frequency,raw,error,smoothed,error_smoothed,equalization,parametric_eq,fixed_band_eq,equalized_raw,equalized_smoothed,target
20.00,1.47,-4.18,1.48,-4.18,4.18,3.56,1.23,5.65,5.66,5.65
20.20,1.51,-4.13,1.51,-4.13,4.13,3.53,1.27,5.65,5.64,5.64
20.40,1.55,-4.09,1.55,-4.08,4.08,3.51,1.30,5.63,5.63,5.63
20.61,1.58,-4.04,1.58,-4.03,4.03,3.48,1.34,5.62,5.62,5.62
20.81,1.62,-3.98,1.62,-3.98,3.99,3.46,1.38,5.61,5.61,5.60
21.02,1.65,-3.94,1.66,-3.94,3.94,3.43,1.43,5.59,5.60,5.59
21.23,1.69,-3.89,1.70,-3.89,3.89,3.41,1.47,5.59,5.59,5.58
21.44,1.74,-3.86,1.73,-3.85,3.84,3.38,1.52,5.58,5.58,5.59
21.66,1.77,-3.80,1.78,-3.80,3.80,3.35,1.56,5.57,5.57,5.57
21.87,1.82,-3.75,1.81,-3.75,3.75,3.33,1.61,5.57,5.57,5.57
22.09,1.85,-3.69,1.85,-3.70,3.71,3.30,1.66,5.56,5.56,5.55
22.31,1.89,-3.66,1.89,-3.66,3.66,3.28,1.71,5.55,5.55,5.55
22.54,1.92,-3.62,1.93,-3.62,3.61,3.25,1.76,5.54,5.54,5.54
22.76,1.96,-3.57,1.96,-3.57,3.57,3.22,1.81,5.53,5.53,5.54
22.99,2.00,-3.52,2.00,-3.52,3.52,3.19,1.87,5.53,5.53,5.53
23.22,2.04,-3.47,2.04,-3.48,3.48,3.17,1.92,5.52,5.52,5.52
23.45,2.08,-3.44,2.09,-3.43,3.44,3.14,1.98,5.52,5.52,5.53
23.69,2.12,-3.39,2.12,-3.39,3.40,3.11,2.04,5.52,5.52,5.52
23.92,2.17,-3.34,2.16,-3.35,3.36,3.08,2.10,5.52,5.52,5.51
24.16,2.20,-3.32,2.20,-3.31,3.31,3.05,2.16,5.51,5.51,5.51
24.40,2.24,-3.28,2.24,-3.28,3.27,3.03,2.22,5.51,5.51,5.51
24.65,2.27,-3.24,2.27,-3.24,3.24,3.00,2.28,5.51,5.51,5.51
24.89,2.31,-3.21,2.31,-3.20,3.20,2.97,2.34,5.50,5.51,5.51
25.14,2.35,-3.16,2.35,-3.16,3.16,2.94,2.40,5.50,5.50,5.50
25.39,2.39,-3.12,2.38,-3.12,3.12,2.91,2.46,5.51,5.51,5.50
25.65,2.42,-3.08,2.42,-3.08,3.08,2.88,2.52,5.51,5.51,5.50
25.91,2.46,-3.04,2.46,-3.04,3.04,2.85,2.59,5.51,5.51,5.50
26.16,2.50,-3.01,2.50,-3.01,3.01,2.82,2.65,5.50,5.50,5.51
26.43,2.53,-2.97,2.53,-2.97,2.97,2.79,2.71,5.50,5.50,5.51
26.69,2.57,-2.93,2.57,-2.94,2.93,2.76,2.77,5.51,5.50,5.51
26.96,2.60,-2.90,2.61,-2.90,2.90,2.73,2.83,5.50,5.50,5.51
27.23,2.64,-2.86,2.64,-2.86,2.86,2.70,2.88,5.51,5.51,5.50
27.50,2.68,-2.82,2.68,-2.82,2.83,2.67,2.94,5.51,5.51,5.50
27.77,2.72,-2.80,2.72,-2.79,2.80,2.64,2.99,5.51,5.51,5.51
28.05,2.75,-2.76,2.75,-2.76,2.76,2.61,3.04,5.52,5.52,5.51
28.33,2.78,-2.73,2.78,-2.73,2.73,2.57,3.08,5.52,5.52,5.52
28.62,2.81,-2.70,2.82,-2.70,2.70,2.54,3.13,5.52,5.52,5.52
28.90,2.85,-2.67,2.85,-2.67,2.67,2.51,3.16,5.52,5.52,5.53
29.19,2.88,-2.64,2.89,-2.64,2.63,2.48,3.20,5.52,5.52,5.53
29.48,2.92,-2.60,2.92,-2.60,2.60,2.45,3.23,5.52,5.52,5.52
29.78,2.95,-2.57,2.96,-2.57,2.56,2.42,3.25,5.52,5.52,5.52
30.08,2.99,-2.53,2.99,-2.53,2.53,2.38,3.27,5.52,5.52,5.52
30.38,3.02,-2.49,3.03,-2.49,2.49,2.35,3.28,5.51,5.52,5.51
30.68,3.06,-2.44,3.06,-2.45,2.45,2.32,3.29,5.52,5.51,5.51
30.99,3.09,-2.41,3.09,-2.41,2.41,2.29,3.29,5.51,5.51,5.51
31.30,3.12,-2.38,3.12,-2.38,2.38,2.25,3.29,5.50,5.50,5.50
31.61,3.15,-2.35,3.15,-2.35,2.34,2.22,3.28,5.50,5.50,5.50
31.93,3.17,-2.31,3.18,-2.31,2.31,2.19,3.26,5.48,5.49,5.48
32.24,3.21,-2.28,3.21,-2.28,2.28,2.15,3.24,5.48,5.48,5.49
32.57,3.23,-2.24,3.23,-2.24,2.24,2.12,3.21,5.48,5.48,5.48
32.89,3.26,-2.21,3.26,-2.21,2.21,2.09,3.18,5.47,5.47,5.47
33.22,3.29,-2.18,3.30,-2.17,2.17,2.05,3.14,5.47,5.47,5.47
33.55,3.32,-2.14,3.33,-2.14,2.14,2.02,3.10,5.46,5.46,5.47
33.89,3.35,-2.10,3.35,-2.11,2.11,1.99,3.05,5.46,5.46,5.46
34.23,3.37,-2.07,3.38,-2.07,2.08,1.95,3.00,5.45,5.45,5.44
34.57,3.39,-2.05,3.40,-2.04,2.05,1.92,2.95,5.44,5.45,5.44
34.92,3.42,-2.00,3.42,-2.01,2.02,1.88,2.89,5.44,5.44,5.43
35.27,3.44,-2.00,3.44,-1.99,1.99,1.85,2.83,5.43,5.43,5.44
35.62,3.46,-1.96,3.47,-1.96,1.96,1.82,2.76,5.42,5.42,5.42
35.97,3.48,-1.93,3.48,-1.93,1.93,1.78,2.69,5.41,5.41,5.42
36.33,3.50,-1.90,3.50,-1.90,1.89,1.75,2.62,5.40,5.40,5.40
36.70,3.52,-1.86,3.53,-1.86,1.86,1.71,2.55,5.38,5.38,5.38
37.06,3.54,-1.82,3.55,-1.82,1.82,1.68,2.48,5.37,5.37,5.37
37.43,3.57,-1.78,3.57,-1.78,1.78,1.64,2.40,5.36,5.36,5.35
37.81,3.59,-1.75,3.59,-1.74,1.74,1.61,2.33,5.34,5.34,5.34
38.19,3.61,-1.70,3.62,-1.70,1.70,1.57,2.25,5.32,5.32,5.32
38.57,3.63,-1.67,3.64,-1.66,1.66,1.54,2.18,5.30,5.30,5.30
38.95,3.66,-1.62,3.66,-1.62,1.62,1.50,2.10,5.29,5.28,5.29
39.34,3.68,-1.58,3.68,-1.58,1.58,1.46,2.02,5.26,5.26,5.26
39.74,3.70,-1.53,3.71,-1.54,1.53,1.43,1.95,5.24,5.24,5.24
40.14,3.72,-1.50,3.73,-1.49,1.49,1.39,1.87,5.22,5.22,5.22
40.54,3.75,-1.45,3.75,-1.45,1.45,1.36,1.79,5.20,5.20,5.21
40.94,3.78,-1.40,3.78,-1.40,1.40,1.32,1.72,5.19,5.19,5.18
41.35,3.80,-1.36,3.81,-1.35,1.36,1.28,1.64,5.17,5.17,5.17
41.76,3.83,-1.31,3.83,-1.31,1.32,1.25,1.57,5.15,5.15,5.14
42.18,3.85,-1.28,3.85,-1.28,1.28,1.21,1.50,5.13,5.13,5.13
42.60,3.86,-1.24,3.87,-1.24,1.24,1.17,1.43,5.10,5.11,5.11
43.03,3.88,-1.21,3.89,-1.20,1.20,1.14,1.35,5.08,5.09,5.09
43.46,3.90,-1.16,3.90,-1.16,1.16,1.10,1.28,5.07,5.06,5.06
43.90,3.92,-1.12,3.92,-1.12,1.12,1.06,1.21,5.05,5.04,5.05
44.33,3.93,-1.09,3.94,-1.09,1.09,1.02,1.15,5.02,5.02,5.02
44.78,3.95,-1.05,3.96,-1.05,1.05,0.99,1.08,5.00,5.00,5.00
45.23,3.97,-1.01,3.97,-1.01,1.01,0.95,1.01,4.98,4.98,4.98
45.68,3.98,-0.96,3.99,-0.97,0.97,0.91,0.95,4.95,4.95,4.95
46.13,3.99,-0.92,4.00,-0.92,0.93,0.87,0.88,4.92,4.92,4.92
46.60,4.00,-0.88,4.00,-0.89,0.89,0.83,0.82,4.89,4.89,4.89
47.06,4.01,-0.85,4.01,-0.84,0.84,0.79,0.76,4.86,4.86,4.86
47.53,4.02,-0.81,4.02,-0.80,0.80,0.75,0.69,4.82,4.82,4.83
48.01,4.03,-0.75,4.04,-0.75,0.75,0.71,0.63,4.78,4.78,4.78
48.49,4.04,-0.71,4.05,-0.70,0.70,0.67,0.57,4.74,4.75,4.75
48.97,4.06,-0.64,4.06,-0.65,0.65,0.63,0.51,4.71,4.71,4.71
49.46,4.07,-0.60,4.08,-0.60,0.60,0.59,0.46,4.67,4.67,4.68
49.96,4.09,-0.53,4.10,-0.54,0.54,0.55,0.40,4.64,4.64,4.63
50.46,4.11,-0.49,4.11,-0.49,0.49,0.51,0.34,4.60,4.60,4.61
50.96,4.13,-0.44,4.13,-0.43,0.44,0.47,0.29,4.57,4.57,4.57
51.47,4.15,-0.39,4.16,-0.38,0.39,0.43,0.23,4.54,4.54,4.54
51.99,4.17,-0.32,4.17,-0.33,0.33,0.39,0.18,4.51,4.51,4.50
52.51,4.19,-0.28,4.19,-0.28,0.28,0.34,0.12,4.48,4.48,4.47
53.03,4.20,-0.25,4.21,-0.24,0.24,0.30,0.07,4.44,4.44,4.45
53.56,4.22,-0.19,4.22,-0.19,0.19,0.26,0.02,4.41,4.41,4.42
54.10,4.23,-0.14,4.23,-0.14,0.14,0.21,-0.03,4.38,4.38,4.37
54.64,4.24,-0.10,4.25,-0.09,0.09,0.17,-0.08,4.34,4.34,4.34
55.18,4.26,-0.04,4.26,-0.05,0.05,0.12,-0.13,4.31,4.31,4.31
55.74,4.27,0.00,4.28,-0.00,-0.00,0.08,-0.17,4.27,4.28,4.27
56.29,4.29,0.04,4.30,0.04,-0.05,0.04,-0.22,4.25,4.25,4.25
56.86,4.31,0.09,4.31,0.09,-0.09,-0.01,-0.26,4.22,4.22,4.23
57.42,4.33,0.15,4.34,0.14,-0.14,-0.06,-0.31,4.20,4.20,4.19
58.00,4.35,0.19,4.35,0.19,-0.18,-0.10,-0.35,4.17,4.17,4.16
58.58,4.37,0.23,4.37,0.23,-0.23,-0.15,-0.39,4.15,4.14,4.14
59.16,4.38,0.26,4.39,0.27,-0.28,-0.19,-0.43,4.11,4.11,4.12
59.76,4.40,0.32,4.40,0.31,-0.33,-0.24,-0.47,4.08,4.08,4.09
60.35,4.41,0.37,4.41,0.37,-0.38,-0.29,-0.51,4.04,4.04,4.05
60.96,4.42,0.42,4.43,0.42,-0.43,-0.33,-0.54,4.00,4.00,4.01
61.57,4.43,0.48,4.44,0.48,-0.48,-0.38,-0.58,3.95,3.96,3.95
62.18,4.44,0.54,4.45,0.54,-0.53,-0.43,-0.61,3.91,3.92,3.91
62.80,4.45,0.59,4.45,0.59,-0.58,-0.47,-0.64,3.88,3.88,3.86
63.43,4.45,0.64,4.46,0.63,-0.62,-0.52,-0.68,3.83,3.83,3.82
64.07,4.45,0.67,4.45,0.67,-0.66,-0.56,-0.71,3.79,3.79,3.78
64.71,4.44,0.70,4.44,0.70,-0.70,-0.61,-0.73,3.75,3.75,3.75
65.35,4.43,0.73,4.44,0.72,-0.73,-0.65,-0.76,3.70,3.70,3.71
66.01,4.42,0.75,4.43,0.75,-0.76,-0.70,-0.79,3.66,3.66,3.67
66.67,4.42,0.78,4.42,0.79,-0.79,-0.74,-0.82,3.63,3.63,3.64
67.33,4.42,0.83,4.42,0.83,-0.83,-0.79,-0.84,3.60,3.60,3.59
68.01,4.42,0.86,4.42,0.86,-0.86,-0.83,-0.87,3.56,3.56,3.56
68.69,4.42,0.90,4.42,0.90,-0.90,-0.87,-0.89,3.52,3.52,3.52
69.37,4.42,0.94,4.42,0.94,-0.94,-0.91,-0.91,3.49,3.49,3.49
70.07,4.42,0.98,4.42,0.98,-0.98,-0.95,-0.94,3.44,3.44,3.45
70.77,4.42,1.02,4.42,1.02,-1.02,-0.99,-0.96,3.40,3.40,3.40
71.48,4.42,1.06,4.42,1.06,-1.06,-1.03,-0.98,3.36,3.36,3.37
72.19,4.42,1.10,4.42,1.10,-1.10,-1.07,-1.00,3.32,3.32,3.32
72.91,4.42,1.15,4.42,1.15,-1.14,-1.11,-1.03,3.28,3.28,3.28
73.64,4.42,1.19,4.42,1.19,-1.18,-1.14,-1.05,3.24,3.24,3.24
74.38,4.42,1.22,4.42,1.22,-1.22,-1.18,-1.07,3.21,3.21,3.20
75.12,4.42,1.25,4.42,1.26,-1.26,-1.21,-1.10,3.17,3.17,3.17
75.87,4.42,1.28,4.42,1.29,-1.29,-1.25,-1.12,3.14,3.14,3.14
76.63,4.42,1.32,4.42,1.32,-1.32,-1.28,-1.14,3.10,3.10,3.10
77.40,4.42,1.35,4.42,1.35,-1.35,-1.32,-1.17,3.07,3.07,3.08
78.17,4.42,1.39,4.42,1.38,-1.38,-1.35,-1.19,3.05,3.05,3.04
78.95,4.42,1.40,4.42,1.41,-1.41,-1.39,-1.22,3.02,3.02,3.02
79.74,4.42,1.44,4.42,1.44,-1.43,-1.42,-1.25,2.99,2.99,2.99
80.54,4.42,1.46,4.42,1.46,-1.46,-1.45,-1.27,2.96,2.96,2.96
81.35,4.42,1.50,4.42,1.49,-1.49,-1.49,-1.30,2.93,2.93,2.93
82.16,4.42,1.51,4.42,1.52,-1.52,-1.52,-1.33,2.90,2.90,2.91
82.98,4.42,1.55,4.42,1.55,-1.55,-1.56,-1.36,2.87,2.87,2.87
83.81,4.42,1.58,4.42,1.58,-1.58,-1.59,-1.40,2.84,2.84,2.85
84.65,4.42,1.62,4.42,1.61,-1.61,-1.62,-1.43,2.81,2.81,2.81
85.50,4.42,1.65,4.42,1.65,-1.64,-1.66,-1.46,2.78,2.78,2.78
86.35,4.42,1.68,4.42,1.68,-1.68,-1.69,-1.50,2.75,2.75,2.75
87.22,4.42,1.71,4.42,1.71,-1.71,-1.73,-1.54,2.72,2.72,2.72
88.09,4.42,1.74,4.42,1.74,-1.74,-1.76,-1.57,2.68,2.68,2.69
88.97,4.42,1.77,4.42,1.77,-1.77,-1.80,-1.61,2.65,2.65,2.65
89.86,4.42,1.80,4.42,1.81,-1.81,-1.83,-1.65,2.62,2.62,2.62
90.76,4.42,1.84,4.42,1.84,-1.84,-1.87,-1.69,2.59,2.59,2.59
91.66,4.42,1.88,4.42,1.87,-1.87,-1.90,-1.74,2.55,2.55,2.54
92.58,4.42,1.91,4.42,1.91,-1.91,-1.94,-1.78,2.52,2.52,2.52
93.51,4.42,1.94,4.42,1.94,-1.94,-1.97,-1.83,2.48,2.48,2.48
94.44,4.42,1.98,4.42,1.98,-1.98,-2.00,-1.87,2.44,2.44,2.45
95.39,4.42,2.02,4.42,2.02,-2.02,-2.04,-1.92,2.40,2.40,2.40
96.34,4.42,2.06,4.42,2.06,-2.06,-2.07,-1.97,2.37,2.37,2.37
97.30,4.42,2.09,4.42,2.10,-2.10,-2.11,-2.02,2.33,2.33,2.33
98.28,4.42,2.14,4.42,2.14,-2.14,-2.14,-2.07,2.29,2.29,2.28
99.26,4.42,2.18,4.42,2.18,-2.17,-2.18,-2.12,2.25,2.25,2.25
100.25,4.42,2.22,4.42,2.21,-2.21,-2.21,-2.17,2.22,2.22,2.21
101.25,4.42,2.24,4.42,2.24,-2.24,-2.24,-2.22,2.18,2.18,2.18
102.27,4.42,2.27,4.42,2.28,-2.28,-2.27,-2.28,2.15,2.15,2.15
103.29,4.42,2.31,4.42,2.30,-2.31,-2.31,-2.33,2.11,2.11,2.12
104.32,4.42,2.34,4.42,2.33,-2.34,-2.34,-2.38,2.08,2.08,2.09
105.37,4.42,2.36,4.43,2.37,-2.38,-2.37,-2.44,2.05,2.05,2.06
106.42,4.43,2.40,4.44,2.41,-2.41,-2.40,-2.49,2.02,2.03,2.03
107.48,4.44,2.45,4.44,2.44,-2.44,-2.43,-2.54,2.01,2.00,1.99
108.56,4.44,2.48,4.44,2.48,-2.47,-2.45,-2.59,1.98,1.98,1.97
109.64,4.43,2.50,4.44,2.50,-2.49,-2.48,-2.64,1.95,1.95,1.94
110.74,4.42,2.52,4.42,2.52,-2.51,-2.51,-2.69,1.91,1.91,1.90
111.85,4.39,2.53,4.40,2.53,-2.53,-2.53,-2.74,1.87,1.87,1.86
112.97,4.36,2.53,4.37,2.53,-2.54,-2.55,-2.79,1.82,1.83,1.84
114.10,4.33,2.53,4.34,2.54,-2.55,-2.58,-2.83,1.79,1.79,1.80
115.24,4.30,2.55,4.31,2.55,-2.55,-2.60,-2.87,1.75,1.76,1.75
116.39,4.28,2.57,4.28,2.56,-2.55,-2.62,-2.91,1.73,1.73,1.72
117.55,4.25,2.57,4.25,2.57,-2.55,-2.64,-2.95,1.70,1.70,1.68
118.73,4.21,2.57,4.21,2.56,-2.55,-2.66,-2.99,1.66,1.66,1.65
119.92,4.17,2.55,4.18,2.56,-2.55,-2.67,-3.02,1.62,1.62,1.62
121.12,4.14,2.55,4.15,2.55,-2.56,-2.69,-3.05,1.59,1.59,1.60
122.33,4.12,2.56,4.12,2.55,-2.56,-2.70,-3.07,1.56,1.56,1.57
123.55,4.10,2.56,4.10,2.56,-2.57,-2.72,-3.09,1.53,1.53,1.54
124.79,4.08,2.57,4.09,2.58,-2.59,-2.73,-3.11,1.50,1.50,1.51
126.03,4.07,2.60,4.08,2.60,-2.61,-2.74,-3.12,1.46,1.47,1.48
127.29,4.08,2.64,4.08,2.64,-2.64,-2.75,-3.13,1.44,1.44,1.45
128.57,4.09,2.69,4.09,2.68,-2.68,-2.76,-3.14,1.42,1.41,1.41
129.85,4.09,2.72,4.10,2.72,-2.71,-2.78,-3.14,1.38,1.38,1.38
131.15,4.10,2.77,4.10,2.76,-2.75,-2.79,-3.15,1.35,1.35,1.34
132.46,4.10,2.79,4.10,2.80,-2.79,-2.80,-3.14,1.31,1.31,1.31
133.79,4.10,2.83,4.11,2.83,-2.83,-2.81,-3.14,1.28,1.28,1.27
135.12,4.10,2.86,4.10,2.86,-2.86,-2.82,-3.13,1.25,1.25,1.25
136.48,4.10,2.88,4.10,2.89,-2.89,-2.83,-3.12,1.21,1.21,1.22
137.84,4.10,2.92,4.10,2.92,-2.92,-2.85,-3.11,1.18,1.18,1.19
139.22,4.10,2.95,4.10,2.95,-2.95,-2.86,-3.10,1.15,1.15,1.15
140.61,4.10,2.98,4.10,2.98,-2.98,-2.88,-3.08,1.12,1.12,1.13
142.02,4.10,3.01,4.10,3.01,-3.01,-2.90,-3.07,1.09,1.09,1.09
143.44,4.10,3.03,4.11,3.04,-3.04,-2.92,-3.05,1.06,1.07,1.07
144.87,4.11,3.06,4.12,3.07,-3.07,-2.94,-3.03,1.04,1.05,1.05
146.32,4.12,3.10,4.12,3.10,-3.09,-2.96,-3.02,1.03,1.03,1.02
147.78,4.12,3.12,4.12,3.12,-3.12,-2.99,-3.00,1.01,1.01,1.00
149.26,4.11,3.14,4.11,3.14,-3.13,-3.01,-2.98,0.98,0.98,0.97
150.75,4.09,3.15,4.10,3.15,-3.14,-3.04,-2.96,0.95,0.96,0.95
152.26,4.08,3.15,4.08,3.15,-3.15,-3.07,-2.95,0.94,0.93,0.93
153.78,4.05,3.15,4.05,3.15,-3.15,-3.09,-2.93,0.91,0.90,0.90
155.32,4.02,3.15,4.03,3.15,-3.15,-3.12,-2.92,0.88,0.88,0.88
156.88,3.98,3.13,3.99,3.14,-3.14,-3.15,-2.90,0.84,0.85,0.86
158.44,3.96,3.14,3.96,3.13,-3.13,-3.18,-2.89,0.83,0.82,0.82
160.03,3.91,3.12,3.92,3.13,-3.13,-3.20,-2.88,0.79,0.80,0.80
161.63,3.89,3.13,3.89,3.12,-3.12,-3.23,-2.87,0.77,0.77,0.77
163.24,3.86,3.13,3.86,3.12,-3.12,-3.26,-2.87,0.74,0.74,0.74
164.88,3.82,3.12,3.83,3.13,-3.12,-3.28,-2.86,0.70,0.71,0.71
166.53,3.80,3.14,3.80,3.13,-3.13,-3.31,-2.86,0.68,0.67,0.67
168.19,3.78,3.14,3.78,3.14,-3.14,-3.33,-2.86,0.64,0.64,0.65
169.87,3.76,3.15,3.77,3.15,-3.17,-3.35,-2.86,0.60,0.60,0.61
171.57,3.75,3.18,3.76,3.18,-3.20,-3.37,-2.86,0.56,0.56,0.58
173.29,3.75,3.21,3.76,3.21,-3.23,-3.39,-2.87,0.53,0.53,0.55
175.02,3.77,3.26,3.78,3.26,-3.26,-3.41,-2.88,0.51,0.51,0.51
176.77,3.79,3.32,3.79,3.31,-3.30,-3.42,-2.88,0.49,0.49,0.48
178.54,3.80,3.36,3.80,3.36,-3.34,-3.44,-2.90,0.47,0.46,0.45
180.32,3.79,3.39,3.80,3.39,-3.37,-3.45,-2.91,0.42,0.43,0.40
182.13,3.78,3.40,3.78,3.40,-3.40,-3.46,-2.93,0.39,0.38,0.38
183.95,3.75,3.41,3.76,3.42,-3.42,-3.47,-2.95,0.34,0.34,0.35
185.79,3.73,3.43,3.74,3.43,-3.43,-3.48,-2.97,0.31,0.31,0.31
187.65,3.71,3.44,3.71,3.43,-3.43,-3.49,-2.99,0.28,0.28,0.28
189.52,3.68,3.44,3.68,3.43,-3.44,-3.50,-3.02,0.25,0.25,0.25
191.42,3.64,3.43,3.65,3.43,-3.44,-3.50,-3.04,0.21,0.21,0.22
193.33,3.61,3.43,3.62,3.43,-3.43,-3.50,-3.07,0.18,0.18,0.19
195.27,3.58,3.43,3.58,3.43,-3.43,-3.51,-3.10,0.16,0.15,0.15
197.22,3.55,3.44,3.55,3.43,-3.42,-3.51,-3.14,0.13,0.13,0.11
199.19,3.51,3.42,3.52,3.43,-3.42,-3.51,-3.17,0.09,0.10,0.10
201.18,3.49,3.43,3.49,3.42,-3.42,-3.51,-3.21,0.07,0.07,0.06
203.19,3.46,3.42,3.46,3.42,-3.43,-3.51,-3.24,0.04,0.03,0.05
205.23,3.44,3.41,3.45,3.42,-3.44,-3.51,-3.28,0.01,0.01,0.03
207.28,3.43,3.43,3.44,3.43,-3.45,-3.50,-3.32,-0.02,-0.01,0.01
209.35,3.44,3.46,3.44,3.46,-3.47,-3.50,-3.36,-0.03,-0.03,-0.02
211.44,3.45,3.50,3.46,3.49,-3.49,-3.50,-3.39,-0.04,-0.04,-0.04
213.56,3.46,3.52,3.46,3.52,-3.51,-3.49,-3.43,-0.05,-0.05,-0.06
215.69,3.46,3.54,3.46,3.54,-3.53,-3.48,-3.47,-0.06,-0.07,-0.08
217.85,3.44,3.55,3.45,3.55,-3.54,-3.48,-3.51,-0.09,-0.09,-0.10
220.03,3.43,3.56,3.43,3.55,-3.54,-3.47,-3.54,-0.11,-0.11,-0.12
222.23,3.40,3.55,3.41,3.55,-3.54,-3.46,-3.58,-0.14,-0.13,-0.14
224.45,3.37,3.53,3.37,3.53,-3.53,-3.45,-3.61,-0.15,-0.16,-0.16
226.70,3.33,3.51,3.34,3.51,-3.51,-3.44,-3.64,-0.18,-0.18,-0.18
228.96,3.29,3.47,3.30,3.49,-3.49,-3.43,-3.67,-0.19,-0.19,-0.18
231.25,3.27,3.47,3.27,3.46,-3.47,-3.42,-3.69,-0.19,-0.20,-0.20
233.57,3.24,3.45,3.24,3.44,-3.44,-3.41,-3.72,-0.20,-0.21,-0.21
235.90,3.19,3.41,3.21,3.42,-3.42,-3.40,-3.73,-0.23,-0.22,-0.22
238.26,3.17,3.41,3.17,3.40,-3.41,-3.38,-3.75,-0.23,-0.23,-0.23
240.64,3.15,3.38,3.15,3.38,-3.39,-3.37,-3.76,-0.24,-0.24,-0.22
243.05,3.13,3.37,3.14,3.37,-3.38,-3.36,-3.77,-0.25,-0.24,-0.23
245.48,3.13,3.37,3.13,3.37,-3.37,-3.34,-3.77,-0.24,-0.24,-0.24
247.93,3.12,3.37,3.13,3.37,-3.37,-3.33,-3.77,-0.24,-0.24,-0.25
250.41,3.12,3.36,3.13,3.36,-3.36,-3.31,-3.76,-0.24,-0.24,-0.23
252.92,3.12,3.36,3.12,3.36,-3.35,-3.30,-3.75,-0.23,-0.23,-0.23
255.45,3.11,3.35,3.12,3.35,-3.34,-3.28,-3.73,-0.23,-0.22,-0.24
258.00,3.10,3.34,3.10,3.33,-3.32,-3.26,-3.71,-0.22,-0.22,-0.24
260.58,3.07,3.31,3.08,3.31,-3.30,-3.24,-3.68,-0.22,-0.22,-0.23
263.19,3.04,3.27,3.04,3.27,-3.27,-3.22,-3.65,-0.23,-0.23,-0.23
265.82,3.00,3.24,3.01,3.24,-3.24,-3.21,-3.62,-0.24,-0.23,-0.23
268.48,2.97,3.20,2.97,3.20,-3.21,-3.19,-3.58,-0.23,-0.23,-0.23
271.16,2.94,3.17,2.94,3.17,-3.17,-3.16,-3.54,-0.23,-0.23,-0.22
273.87,2.90,3.13,2.91,3.13,-3.14,-3.14,-3.50,-0.24,-0.24,-0.23
276.61,2.87,3.10,2.87,3.11,-3.11,-3.12,-3.45,-0.24,-0.24,-0.23
279.38,2.84,3.08,2.85,3.08,-3.09,-3.10,-3.40,-0.24,-0.24,-0.24
282.17,2.83,3.07,2.83,3.06,-3.07,-3.07,-3.35,-0.23,-0.23,-0.23
284.99,2.82,3.04,2.82,3.05,-3.05,-3.05,-3.30,-0.22,-0.23,-0.22
287.84,2.80,3.02,2.81,3.02,-3.03,-3.02,-3.24,-0.22,-0.22,-0.21
290.72,2.79,3.01,2.80,3.01,-3.01,-3.00,-3.18,-0.21,-0.21,-0.22
293.63,2.78,2.99,2.79,2.99,-2.99,-2.97,-3.13,-0.20,-0.20,-0.20
296.57,2.77,2.97,2.77,2.97,-2.96,-2.95,-3.07,-0.19,-0.19,-0.20
299.53,2.75,2.94,2.75,2.94,-2.93,-2.92,-3.01,-0.18,-0.18,-0.19
302.53,2.72,2.90,2.73,2.91,-2.90,-2.89,-2.95,-0.18,-0.17,-0.17
305.55,2.69,2.87,2.69,2.86,-2.86,-2.86,-2.89,-0.17,-0.17,-0.18
308.61,2.66,2.82,2.66,2.82,-2.83,-2.83,-2.83,-0.16,-0.16,-0.16
311.69,2.62,2.78,2.63,2.79,-2.79,-2.80,-2.77,-0.16,-0.15,-0.15
314.81,2.60,2.75,2.60,2.75,-2.75,-2.77,-2.72,-0.14,-0.14,-0.15
317.96,2.57,2.71,2.57,2.71,-2.71,-2.74,-2.66,-0.13,-0.13,-0.14
321.14,2.54,2.67,2.54,2.67,-2.67,-2.70,-2.61,-0.13,-0.13,-0.12
324.35,2.51,2.64,2.52,2.63,-2.64,-2.67,-2.55,-0.13,-0.13,-0.12
327.59,2.49,2.59,2.50,2.60,-2.62,-2.64,-2.50,-0.12,-0.12,-0.10
330.87,2.48,2.58,2.49,2.58,-2.59,-2.61,-2.45,-0.11,-0.11,-0.10
334.18,2.48,2.58,2.48,2.57,-2.57,-2.57,-2.40,-0.09,-0.09,-0.09
337.52,2.47,2.56,2.48,2.56,-2.56,-2.54,-2.35,-0.08,-0.08,-0.08
340.90,2.47,2.54,2.47,2.54,-2.54,-2.50,-2.30,-0.06,-0.06,-0.07
344.30,2.46,2.52,2.47,2.53,-2.52,-2.47,-2.26,-0.05,-0.05,-0.06
347.75,2.45,2.51,2.45,2.50,-2.50,-2.44,-2.21,-0.04,-0.04,-0.05
351.23,2.43,2.49,2.43,2.48,-2.47,-2.40,-2.17,-0.03,-0.04,-0.05
354.74,2.40,2.43,2.41,2.44,-2.43,-2.37,-2.13,-0.03,-0.03,-0.02
358.28,2.37,2.40,2.38,2.40,-2.40,-2.33,-2.09,-0.02,-0.02,-0.03
361.87,2.34,2.36,2.34,2.36,-2.36,-2.30,-2.06,-0.01,-0.02,-0.02
365.49,2.30,2.31,2.31,2.31,-2.32,-2.26,-2.02,-0.01,-0.01,-0.01
369.14,2.27,2.27,2.27,2.27,-2.28,-2.23,-1.99,-0.00,-0.00,0.01
372.83,2.24,2.23,2.24,2.23,-2.24,-2.20,-1.96,0.01,0.00,0.02
376.56,2.21,2.20,2.22,2.20,-2.20,-2.16,-1.93,0.01,0.01,0.02
380.33,2.19,2.17,2.20,2.17,-2.17,-2.13,-1.90,0.03,0.03,0.02
384.13,2.17,2.13,2.18,2.14,-2.14,-2.09,-1.87,0.04,0.04,0.04
387.97,2.16,2.11,2.16,2.11,-2.11,-2.06,-1.85,0.06,0.05,0.05
391.85,2.13,2.07,2.14,2.08,-2.07,-2.02,-1.82,0.06,0.06,0.06
395.77,2.11,2.05,2.12,2.05,-2.04,-1.99,-1.80,0.07,0.07,0.07
399.73,2.09,2.02,2.09,2.01,-2.01,-1.96,-1.78,0.09,0.09,0.08
403.72,2.07,1.97,2.07,1.98,-1.97,-1.92,-1.76,0.10,0.10,0.11
407.76,2.04,1.94,2.04,1.94,-1.93,-1.89,-1.74,0.11,0.11,0.11
411.84,2.01,1.90,2.01,1.89,-1.89,-1.86,-1.72,0.12,0.12,0.11
415.96,1.97,1.84,1.98,1.85,-1.85,-1.82,-1.70,0.12,0.12,0.13
420.12,1.94,1.81,1.95,1.81,-1.82,-1.79,-1.68,0.13,0.13,0.13
424.32,1.91,1.77,1.92,1.77,-1.78,-1.76,-1.66,0.13,0.14,0.14
428.56,1.90,1.74,1.90,1.74,-1.75,-1.73,-1.65,0.16,0.15,0.16
432.85,1.88,1.71,1.88,1.71,-1.71,-1.69,-1.63,0.17,0.17,0.17
437.18,1.85,1.69,1.86,1.69,-1.68,-1.66,-1.62,0.17,0.18,0.17
441.55,1.83,1.66,1.83,1.66,-1.65,-1.63,-1.60,0.18,0.18,0.18
445.96,1.81,1.63,1.81,1.62,-1.62,-1.60,-1.58,0.19,0.19,0.19
450.42,1.78,1.59,1.79,1.59,-1.59,-1.56,-1.57,0.19,0.20,0.20
454.93,1.76,1.56,1.77,1.56,-1.56,-1.53,-1.55,0.21,0.21,0.21
459.48,1.74,1.53,1.75,1.53,-1.52,-1.50,-1.54,0.22,0.22,0.22
464.07,1.72,1.49,1.72,1.49,-1.48,-1.47,-1.52,0.24,0.24,0.23
468.71,1.69,1.45,1.69,1.45,-1.44,-1.44,-1.50,0.25,0.25,0.24
473.40,1.65,1.40,1.66,1.40,-1.40,-1.41,-1.48,0.25,0.26,0.25
478.13,1.62,1.36,1.62,1.36,-1.36,-1.37,-1.46,0.26,0.26,0.26
482.91,1.59,1.32,1.59,1.32,-1.33,-1.34,-1.44,0.27,0.27,0.27
487.74,1.56,1.28,1.57,1.28,-1.29,-1.31,-1.42,0.27,0.27,0.28
492.62,1.54,1.25,1.54,1.25,-1.26,-1.28,-1.40,0.29,0.29,0.29
497.55,1.52,1.22,1.53,1.23,-1.23,-1.25,-1.38,0.30,0.30,0.30
502.52,1.51,1.20,1.52,1.20,-1.20,-1.22,-1.35,0.31,0.31,0.31
507.55,1.50,1.17,1.50,1.18,-1.18,-1.19,-1.33,0.33,0.33,0.33
512.62,1.49,1.15,1.49,1.15,-1.15,-1.16,-1.30,0.34,0.34,0.34
517.75,1.47,1.12,1.48,1.12,-1.12,-1.13,-1.27,0.35,0.36,0.36
522.93,1.46,1.10,1.46,1.09,-1.09,-1.09,-1.24,0.37,0.37,0.37
528.16,1.44,1.07,1.44,1.06,-1.06,-1.06,-1.21,0.39,0.39,0.38
533.44,1.41,1.03,1.42,1.03,-1.02,-1.03,-1.18,0.40,0.40,0.39
538.77,1.38,0.99,1.38,0.98,-0.97,-1.00,-1.15,0.41,0.41,0.40
