frequency,raw
20.00,-2.79
20.20,-2.75
20.40,-2.70
20.61,-2.63
20.81,-2.57
21.02,-2.50
21.23,-2.44
21.44,-2.38
21.66,-2.30
21.87,-2.25
22.09,-2.17
22.31,-2.10
22.54,-2.04
22.76,-1.96
22.99,-1.90
23.22,-1.83
23.45,-1.77
23.69,-1.71
23.92,-1.65
24.16,-1.59
24.40,-1.52
24.65,-1.46
24.89,-1.40
25.14,-1.33
25.39,-1.27
25.65,-1.21
25.91,-1.15
26.16,-1.08
26.43,-1.02
26.69,-0.96
26.96,-0.90
27.23,-0.84
27.50,-0.77
27.77,-0.71
28.05,-0.65
28.33,-0.59
28.62,-0.52
28.90,-0.47
29.19,-0.40
29.48,-0.34
29.78,-0.28
30.08,-0.23
30.38,-0.19
30.68,-0.14
30.99,-0.05
31.30,-0.00
31.61,0.05
31.93,0.11
32.24,0.18
32.57,0.23
32.89,0.28
33.22,0.33
33.55,0.38
33.89,0.44
34.23,0.50
34.57,0.56
34.92,0.61
35.27,0.65
35.62,0.71
35.97,0.77
36.33,0.83
36.70,0.89
37.06,0.93
37.43,0.98
37.81,1.03
38.19,1.08
38.57,1.12
38.95,1.17
39.34,1.22
39.74,1.28
40.14,1.33
40.54,1.38
40.94,1.42
41.35,1.47
41.76,1.50
42.18,1.56
42.60,1.59
43.03,1.64
43.46,1.68
43.90,1.73
44.33,1.77
44.78,1.82
45.23,1.86
45.68,1.90
46.13,1.96
46.60,1.99
47.06,2.03
47.53,2.07
48.01,2.10
48.49,2.14
48.97,2.19
49.46,2.22
49.96,2.25
50.46,2.28
50.96,2.33
51.47,2.37
51.99,2.40
52.51,2.43
53.03,2.46
53.56,2.49
54.10,2.54
54.64,2.55
55.18,2.59
55.74,2.63
56.29,2.63
56.86,2.68
57.42,2.69
58.00,2.73
58.58,2.75
59.16,2.77
59.76,2.79
60.35,2.82
60.96,2.83
61.57,2.87
62.18,2.87
62.80,2.91
63.43,2.91
64.07,2.91
64.71,2.96
65.35,2.96
66.01,2.96
66.67,2.97
67.33,3.01
68.01,3.01
68.69,3.01
69.37,3.01
70.07,3.05
70.77,3.05
71.48,3.05
72.19,3.05
72.91,3.06
73.64,3.10
74.38,3.10
75.12,3.10
75.87,3.10
76.63,3.10
77.40,3.10
78.17,3.10
78.95,3.10
79.74,3.05
80.54,3.04
81.35,3.01
82.16,2.95
82.98,2.91
83.81,2.84
84.65,2.78
85.50,2.71
86.35,2.63
87.22,2.56
88.09,2.48
88.97,2.42
89.86,2.36
90.76,2.29
91.66,2.26
92.58,2.25
93.51,2.21
94.44,2.24
95.39,2.26
96.34,2.30
97.30,2.33
98.28,2.39
99.26,2.42
100.25,2.47
101.25,2.52
102.27,2.56
103.29,2.59
104.32,2.62
105.37,2.63
106.42,2.68
107.48,2.68
108.56,2.68
109.64,2.73
110.74,2.73
111.85,2.73
112.97,2.73
114.10,2.73
115.24,2.73
116.39,2.73
117.55,2.73
118.73,2.71
119.92,2.68
121.12,2.68
122.33,2.68
123.55,2.68
124.79,2.63
126.03,2.63
127.29,2.59
128.57,2.59
129.85,2.59
131.15,2.54
132.46,2.54
133.79,2.50
135.12,2.49
136.48,2.46
137.84,2.45
139.22,2.40
140.61,2.38
142.02,2.35
143.44,2.31
144.87,2.27
146.32,2.24
147.78,2.21
149.26,2.18
150.75,2.17
152.26,2.12
153.78,2.11
155.32,2.07
156.88,2.05
158.44,2.02
160.03,1.99
161.63,1.96
163.24,1.91
164.88,1.87
166.53,1.84
168.19,1.78
169.87,1.75
171.57,1.70
173.29,1.67
175.02,1.64
176.77,1.61
178.54,1.57
180.32,1.56
182.13,1.52
183.95,1.52
185.79,1.50
187.65,1.47
189.52,1.47
191.42,1.42
193.33,1.42
195.27,1.38
197.22,1.36
199.19,1.33
201.18,1.29
203.19,1.26
205.23,1.21
207.28,1.18
209.35,1.12
211.44,1.07
213.56,1.01
215.69,0.94
217.85,0.88
220.03,0.80
222.23,0.75
224.45,0.69
226.70,0.64
228.96,0.59
231.25,0.55
233.57,0.52
235.90,0.47
238.26,0.44
240.64,0.41
243.05,0.35
245.48,0.32
247.93,0.27
250.41,0.23
252.92,0.18
255.45,0.13
258.00,0.07
260.58,0.04
263.19,-0.03
265.82,-0.09
268.48,-0.14
271.16,-0.18
273.87,-0.23
276.61,-0.28
279.38,-0.33
282.17,-0.37
284.99,-0.42
287.84,-0.46
290.72,-0.51
293.63,-0.54
296.57,-0.58
299.53,-0.63
302.53,-0.66
305.55,-0.71
308.61,-0.75
311.69,-0.80
314.81,-0.84
317.96,-0.89
321.14,-0.93
324.35,-0.97
327.59,-1.03
330.87,-1.07
334.18,-1.11
337.52,-1.17
340.90,-1.21
344.30,-1.26
347.75,-1.31
351.23,-1.36
354.74,-1.41
358.28,-1.45
361.87,-1.51
365.49,-1.57
369.14,-1.63
372.83,-1.69
376.56,-1.76
380.33,-1.82
384.13,-1.88
387.97,-1.93
391.85,-1.94
395.77,-1.94
399.73,-1.90
403.72,-1.84
407.76,-1.73
411.84,-1.65
415.96,-1.54
420.12,-1.45
424.32,-1.35
428.56,-1.26
432.85,-1.21
437.18,-1.15
441.55,-1.14
445.96,-1.14
450.42,-1.18
454.93,-1.21
459.48,-1.26
464.07,-1.31
468.71,-1.35
473.40,-1.41
478.13,-1.46
482.91,-1.52
487.74,-1.55
492.62,-1.59
497.55,-1.63
502.52,-1.67
507.55,-1.70
512.62,-1.73
517.75,-1.76
522.93,-1.80
528.16,-1.82
533.44,-1.84
538.77,-1.84
544.16,-1.89
549.60,-1.89
555.10,-1.92
560.65,-1.94
566.25,-1.97
571.92,-1.98
577.64,-1.99
583.41,-2.03
589.25,-2.03
595.14,-2.05
601.09,-2.08
607.10,-2.11
613.17,-2.12
619.30,-2.12
625.50,-2.12
631.75,-2.12
638.07,-2.12
644.45,-2.14
650.89,-2.17
657.40,-2.17
663.98,-2.17
670.62,-2.17
677.32,-2.18
684.10,-2.22
690.94,-2.22
697.85,-2.22
704.83,-2.20
711.87,-2.19
718.99,-2.19
726.18,-2.17
733.44,-2.17
740.78,-2.17
748.19,-2.13
755.67,-2.12
763.23,-2.08
770.86,-2.03
778.57,-2.00
786.35,-1.95
794.22,-1.92
802.16,-1.89
810.18,-1.84
818.28,-1.80
826.46,-1.77
834.73,-1.70
843.08,-1.64
851.51,-1.56
860.02,-1.45
868.62,-1.32
877.31,-1.21
886.08,-1.12
894.94,-1.01
903.89,-0.90
912.93,-0.82
922.06,-0.71
931.28,-0.60
940.59,-0.49
950.00,-0.40
959.50,-0.30
969.09,-0.23
978.78,-0.15
988.57,-0.09
998.46,-0.01
1008.44,0.07
1018.53,0.14
1028.71,0.19
1039.00,0.23
1049.39,0.29
1059.88,0.35
1070.48,0.41
1081.19,0.47
1092.00,0.54
1102.92,0.60
1113.95,0.66
1125.09,0.72
1136.34,0.79
1147.70,0.87
1159.18,0.94
1170.77,1.04
1182.48,1.11
1194.30,1.21
1206.25,1.28
1218.31,1.39
1230.49,1.46
1242.80,1.56
1255.22,1.62
1267.78,1.73
1280.45,1.79
1293.26,1.88
1306.19,1.95
1319.25,2.00
1332.45,2.06
1345.77,2.11
1359.23,2.17
1372.82,2.20
1386.55,2.25
1400.41,2.26
1414.42,2.26
1428.56,2.28
1442.85,2.33
1457.28,2.38
1471.85,2.42
1486.57,2.45
1501.43,2.40
1516.45,2.40
1531.61,2.47
1546.93,2.52
1562.40,2.59
1578.02,2.68
1593.80,2.76
1609.74,2.85
1625.84,2.91
1642.10,3.02
1658.52,3.13
1675.10,3.19
1691.85,3.30
1708.77,3.41
1725.86,3.47
1743.12,3.58
1760.55,3.68
1778.15,3.78
1795.94,3.88
1813.90,3.99
1832.03,4.10
1850.36,4.21
1868.86,4.32
1887.55,4.45
1906.42,4.57
1925.49,4.72
1944.74,4.83
1964.19,4.98
1983.83,5.12
2003.67,5.25
2023.71,5.40
2043.94,5.54
2064.38,5.67
2085.03,5.82
2105.88,5.95
2126.94,6.09
2148.20,6.24
2169.69,6.37
2191.38,6.53
2213.30,6.69
2235.43,6.87
2257.78,7.07
2280.36,7.29
2303.17,7.50
2326.20,7.70
2349.46,7.88
2372.95,8.03
2396.68,8.19
2420.65,8.33
2444.86,8.47
2469.31,8.63
2494.00,8.79
2518.94,8.94
2544.13,9.10
2569.57,9.28
2595.27,9.45
2621.22,9.61
2647.43,9.78
2673.90,9.95
2700.64,10.10
2727.65,10.26
2754.93,10.38
2782.48,10.50
2810.30,10.61
2838.40,10.70
2866.79,10.78
2895.46,10.85
2924.41,10.88
2953.65,10.89
2983.19,10.89
3013.02,10.89
3043.15,10.86
3073.58,10.83
3104.32,10.78
3135.36,10.72
3166.72,10.65
3198.38,10.59
3230.37,10.54
3262.67,10.48
3295.30,10.45
3328.25,10.40
3361.53,10.33
3395.15,10.27
3429.10,10.21
3463.39,10.13
3498.03,10.07
3533.01,10.02
3568.34,9.97
3604.02,9.96
3640.06,9.96
3676.46,9.97
3713.22,10.02
3750.36,10.08
3787.86,10.15
3825.74,10.23
3864.00,10.31
3902.64,10.39
3941.66,10.44
3981.08,10.50
4020.89,10.52
4061.10,10.52
4101.71,10.49
4142.73,10.40
4184.15,10.32
4226.00,10.21
4268.26,10.07
4310.94,9.97
4354.05,9.84
4397.59,9.76
4441.56,9.68
4485.98,9.68
4530.84,9.70
4576.15,9.72
4621.91,9.77
4668.13,9.81
4714.81,9.84
4761.96,9.87
4809.58,9.91
4857.67,9.93
4906.25,9.98
4955.31,10.04
5004.87,10.14
5054.91,10.25
5105.46,10.37
5156.52,10.53
5208.08,10.72
5260.16,10.93
5312.77,11.16
5365.89,11.40
5419.55,11.65
5473.75,11.92
5528.49,12.20
5583.77,12.45
5639.61,12.69
5696.00,12.86
5752.96,13.03
5810.49,13.13
5868.60,13.10
5927.28,12.97
5986.56,12.77
6046.42,12.47
6106.89,12.14
6167.96,11.75
6229.64,11.33
6291.93,10.88
6354.85,10.42
6418.40,9.91
6482.58,9.42
6547.41,8.90
6612.88,8.39
6679.01,7.86
6745.80,7.34
6813.26,6.87
6881.39,6.40
6950.21,5.96
7019.71,5.56
7089.91,5.23
7160.81,4.98
7232.41,4.81
7304.74,4.78
7377.79,5.01
7451.56,5.37
7526.08,5.95
7601.34,6.69
7677.35,7.60
7754.13,8.58
7831.67,9.59
7909.98,10.55
7989.08,11.38
8068.98,12.00
8149.67,12.45
8231.16,12.66
8313.47,12.43
8396.61,11.93
8480.57,11.21
8565.38,10.23
8651.03,9.02
8737.54,7.66
8824.92,6.29
8913.17,5.11
9002.30,4.07
9092.32,3.34
9183.25,2.79
9275.08,2.47
9367.83,2.24
9461.51,2.22
9556.12,2.45
9651.68,2.80
9748.20,3.26
9845.68,3.68
9944.14,4.03
10043.58,4.30
10144.02,4.24
10245.46,4.10
10347.91,3.96
10451.39,3.82
10555.91,3.85
10661.46,4.07
10768.08,4.37
10875.76,4.67
10984.52,4.92
11094.36,5.05
11205.31,4.94
11317.36,4.76
11430.53,4.58
11544.84,4.53
11660.29,4.82
11776.89,5.32
11894.66,6.03
12013.60,7.01
12133.74,8.13
12255.08,9.32
12377.63,10.40
12501.41,11.25
12626.42,11.80
12752.68,11.53
12880.21,10.78
13009.01,9.79
13139.10,8.56
13270.49,7.32
13403.20,6.15
13537.23,5.16
13672.60,4.33
13809.33,3.65
13947.42,3.11
14086.90,2.60
14227.77,2.05
14370.04,1.34
14513.74,0.41
14658.88,-0.60
14805.47,-1.57
14953.52,-2.24
15103.06,-2.74
15254.09,-2.40
15406.63,-1.89
15560.70,-1.06
15716.30,-0.00
15873.47,1.22
16032.20,2.45
16192.52,3.62
16354.45,4.52
16517.99,5.13
16683.17,5.37
16850.01,5.11
17018.51,4.76
17188.69,4.36
17360.58,3.93
17534.18,3.52
17709.53,3.09
17886.62,2.61
18065.49,2.09
18246.14,1.48
18428.60,0.81
18612.89,0.10
18799.02,-0.62
18987.01,-1.26
19176.88,-1.82
19368.65,-2.29
19562.33,-2.66
19757.96,-2.93
19955.54,-3.08
