frequency,raw,error,smoothed,error_smoothed,equalization,parametric_eq,fixed_band_eq,equalized_raw,equalized_smoothed,target
20.00,-6.55,-4.51,-6.56,-4.55,4.55,3.74,-0.38,-1.99,-2.00,-2.03
20.20,-6.34,-4.35,-6.34,-4.37,4.37,3.71,-0.39,-1.97,-1.97,-1.98
20.40,-6.13,-4.19,-6.12,-4.19,4.19,3.66,-0.40,-1.94,-1.93,-1.93
20.61,-5.91,-4.01,-5.91,-4.01,4.01,3.60,-0.41,-1.91,-1.90,-1.90
20.81,-5.70,-3.84,-5.69,-3.82,3.82,3.53,-0.43,-1.87,-1.87,-1.85
21.02,-5.49,-3.67,-5.48,-3.64,3.64,3.45,-0.44,-1.85,-1.84,-1.81
21.23,-5.28,-3.48,-5.27,-3.45,3.45,3.35,-0.45,-1.82,-1.82,-1.79
21.44,-5.06,-3.28,-5.06,-3.27,3.27,3.24,-0.47,-1.79,-1.79,-1.77
21.66,-4.85,-3.10,-4.85,-3.08,3.08,3.12,-0.48,-1.77,-1.77,-1.75
21.87,-4.62,-2.88,-4.65,-2.89,2.89,2.99,-0.50,-1.73,-1.75,-1.74
22.09,-4.43,-2.70,-4.44,-2.71,2.71,2.86,-0.51,-1.72,-1.74,-1.73
22.31,-4.23,-2.52,-4.24,-2.52,2.52,2.71,-0.53,-1.72,-1.73,-1.72
22.54,-4.05,-2.33,-4.04,-2.32,2.32,2.56,-0.54,-1.73,-1.72,-1.72
22.76,-3.86,-2.14,-3.84,-2.12,2.12,2.41,-0.56,-1.73,-1.72,-1.72
22.99,-3.67,-1.94,-3.64,-1.93,1.93,2.25,-0.57,-1.74,-1.71,-1.73
23.22,-3.47,-1.74,-3.45,-1.73,1.73,2.09,-0.59,-1.73,-1.71,-1.73
23.45,-3.27,-1.54,-3.25,-1.54,1.54,1.92,-0.61,-1.73,-1.71,-1.73
23.69,-3.07,-1.35,-3.06,-1.35,1.35,1.76,-0.63,-1.72,-1.71,-1.72
23.92,-2.86,-1.14,-2.87,-1.16,1.16,1.59,-0.65,-1.70,-1.71,-1.72
24.16,-2.68,-0.97,-2.68,-0.97,0.97,1.43,-0.67,-1.70,-1.71,-1.71
24.40,-2.51,-0.81,-2.51,-0.79,0.79,1.26,-0.68,-1.71,-1.71,-1.70
24.65,-2.33,-0.62,-2.33,-0.62,0.62,1.10,-0.70,-1.71,-1.71,-1.71
24.89,-2.14,-0.44,-2.17,-0.46,0.46,0.94,-0.72,-1.69,-1.71,-1.71
25.14,-1.99,-0.28,-2.01,-0.30,0.30,0.78,-0.75,-1.69,-1.71,-1.71
25.39,-1.83,-0.12,-1.85,-0.14,0.14,0.62,-0.77,-1.68,-1.71,-1.70
25.65,-1.68,0.02,-1.70,0.01,-0.01,0.46,-0.79,-1.69,-1.71,-1.70
25.91,-1.52,0.19,-1.55,0.16,-0.16,0.31,-0.81,-1.68,-1.71,-1.71
26.16,-1.39,0.33,-1.41,0.30,-0.30,0.16,-0.83,-1.69,-1.71,-1.71
26.43,-1.29,0.42,-1.27,0.44,-0.44,0.02,-0.85,-1.73,-1.71,-1.71
26.69,-1.19,0.53,-1.13,0.58,-0.58,-0.13,-0.88,-1.77,-1.71,-1.71
26.96,-1.09,0.62,-1.00,0.71,-0.71,-0.27,-0.90,-1.80,-1.71,-1.70
27.23,-0.93,0.78,-0.87,0.84,-0.84,-0.40,-0.92,-1.77,-1.71,-1.71
27.50,-0.77,0.94,-0.76,0.96,-0.96,-0.53,-0.94,-1.73,-1.71,-1.71
27.77,-0.61,1.11,-0.64,1.07,-1.07,-0.66,-0.97,-1.68,-1.72,-1.72
28.05,-0.46,1.26,-0.53,1.18,-1.18,-0.79,-0.99,-1.64,-1.72,-1.72
28.33,-0.38,1.35,-0.43,1.29,-1.29,-0.91,-1.01,-1.66,-1.72,-1.73
28.62,-0.29,1.44,-0.33,1.39,-1.39,-1.02,-1.04,-1.68,-1.72,-1.73
28.90,-0.20,1.52,-0.23,1.49,-1.49,-1.14,-1.06,-1.68,-1.72,-1.72
29.19,-0.13,1.60,-0.14,1.58,-1.58,-1.25,-1.08,-1.71,-1.72,-1.73
29.48,-0.06,1.65,-0.04,1.68,-1.68,-1.35,-1.10,-1.74,-1.72,-1.71
29.78,0.01,1.73,0.05,1.77,-1.77,-1.45,-1.13,-1.76,-1.72,-1.72
30.08,0.08,1.79,0.14,1.86,-1.86,-1.55,-1.15,-1.78,-1.72,-1.71
30.38,0.17,1.90,0.22,1.94,-1.94,-1.64,-1.17,-1.77,-1.72,-1.72
30.68,0.26,1.99,0.30,2.03,-2.03,-1.73,-1.19,-1.77,-1.73,-1.73
30.99,0.35,2.08,0.38,2.11,-2.11,-1.82,-1.21,-1.76,-1.73,-1.73
31.30,0.44,2.17,0.46,2.19,-2.19,-1.90,-1.23,-1.75,-1.73,-1.73
31.61,0.54,2.27,0.54,2.27,-2.27,-1.98,-1.25,-1.73,-1.73,-1.73
31.93,0.64,2.37,0.61,2.34,-2.34,-2.05,-1.27,-1.70,-1.73,-1.73
32.24,0.71,2.46,0.67,2.41,-2.41,-2.13,-1.29,-1.69,-1.74,-1.74
32.57,0.79,2.53,0.74,2.47,-2.47,-2.19,-1.31,-1.68,-1.74,-1.73
32.89,0.86,2.60,0.80,2.54,-2.54,-2.26,-1.33,-1.68,-1.74,-1.74
33.22,0.89,2.64,0.86,2.61,-2.61,-2.32,-1.35,-1.71,-1.75,-1.75
33.55,0.91,2.66,0.92,2.67,-2.67,-2.37,-1.37,-1.75,-1.75,-1.75
33.89,0.93,2.69,0.96,2.72,-2.72,-2.43,-1.39,-1.79,-1.75,-1.76
34.23,0.94,2.69,1.00,2.76,-2.76,-2.48,-1.41,-1.81,-1.76,-1.75
34.57,0.95,2.72,1.02,2.78,-2.78,-2.52,-1.43,-1.83,-1.76,-1.76
34.92,0.96,2.73,1.03,2.79,-2.79,-2.57,-1.44,-1.83,-1.76,-1.77
35.27,1.03,2.80,1.04,2.80,-2.80,-2.60,-1.46,-1.77,-1.77,-1.77
35.62,1.12,2.89,1.04,2.81,-2.81,-2.64,-1.48,-1.68,-1.77,-1.77
35.97,1.20,2.97,1.04,2.81,-2.81,-2.68,-1.50,-1.61,-1.77,-1.77
36.33,1.16,2.92,1.05,2.82,-2.82,-2.71,-1.52,-1.66,-1.77,-1.76
36.70,1.10,2.88,1.07,2.84,-2.84,-2.73,-1.55,-1.73,-1.77,-1.78
37.06,1.05,2.83,1.09,2.85,-2.85,-2.76,-1.57,-1.80,-1.77,-1.78
37.43,0.99,2.75,1.10,2.87,-2.87,-2.78,-1.59,-1.87,-1.76,-1.76
37.81,0.93,2.70,1.11,2.87,-2.87,-2.80,-1.61,-1.94,-1.76,-1.76
38.19,0.95,2.72,1.11,2.87,-2.87,-2.82,-1.64,-1.92,-1.76,-1.77
38.57,1.05,2.81,1.10,2.86,-2.86,-2.84,-1.66,-1.81,-1.76,-1.76
38.95,1.15,2.90,1.09,2.85,-2.85,-2.85,-1.69,-1.70,-1.76,-1.75
39.34,1.19,2.95,1.08,2.84,-2.84,-2.86,-1.72,-1.64,-1.76,-1.75
39.74,1.23,2.99,1.07,2.83,-2.83,-2.87,-1.74,-1.60,-1.75,-1.76
40.14,1.22,2.97,1.07,2.83,-2.83,-2.88,-1.77,-1.60,-1.75,-1.75
40.54,1.15,2.91,1.08,2.84,-2.84,-2.89,-1.81,-1.68,-1.75,-1.75
40.94,1.07,2.83,1.10,2.85,-2.85,-2.89,-1.84,-1.78,-1.76,-1.76
41.35,1.01,2.77,1.11,2.87,-2.87,-2.89,-1.87,-1.86,-1.76,-1.76
41.76,0.95,2.72,1.12,2.88,-2.88,-2.90,-1.91,-1.93,-1.76,-1.76
42.18,0.96,2.72,1.13,2.90,-2.90,-2.90,-1.94,-1.93,-1.77,-1.76
42.60,1.07,2.85,1.12,2.90,-2.90,-2.90,-1.98,-1.83,-1.78,-1.77
43.03,1.16,2.94,1.12,2.90,-2.90,-2.89,-2.02,-1.74,-1.79,-1.78
43.46,1.16,2.94,1.11,2.91,-2.91,-2.89,-2.06,-1.74,-1.80,-1.78
43.90,1.16,2.97,1.11,2.91,-2.91,-2.89,-2.10,-1.75,-1.80,-1.81
44.33,1.17,2.99,1.11,2.92,-2.92,-2.89,-2.15,-1.75,-1.81,-1.82
44.78,1.18,3.02,1.12,2.94,-2.94,-2.88,-2.20,-1.76,-1.82,-1.84
45.23,1.17,3.01,1.13,2.96,-2.96,-2.88,-2.24,-1.79,-1.84,-1.84
45.68,1.15,3.01,1.13,2.98,-2.98,-2.87,-2.29,-1.83,-1.85,-1.86
46.13,1.12,2.99,1.13,2.99,-2.99,-2.87,-2.34,-1.87,-1.86,-1.87
46.60,1.09,2.96,1.12,2.99,-2.99,-2.86,-2.39,-1.90,-1.87,-1.87
47.06,1.06,2.95,1.11,2.99,-2.99,-2.86,-2.45,-1.93,-1.88,-1.88
47.53,1.06,2.95,1.09,2.99,-2.99,-2.85,-2.50,-1.92,-1.89,-1.89
48.01,1.06,2.95,1.08,2.98,-2.98,-2.85,-2.56,-1.92,-1.90,-1.89
48.49,1.06,2.96,1.07,2.98,-2.98,-2.85,-2.62,-1.92,-1.91,-1.90
48.97,1.06,2.98,1.06,2.99,-2.99,-2.84,-2.68,-1.92,-1.92,-1.92
49.46,1.06,3.00,1.06,2.99,-2.99,-2.84,-2.74,-1.93,-1.93,-1.94
49.96,1.06,3.02,1.06,3.00,-3.00,-2.83,-2.80,-1.94,-1.94,-1.95
50.46,1.06,3.01,1.07,3.02,-3.02,-2.83,-2.86,-1.95,-1.95,-1.95
50.96,1.06,3.02,1.07,3.03,-3.03,-2.83,-2.92,-1.96,-1.96,-1.96
51.47,1.06,3.04,1.07,3.04,-3.04,-2.82,-2.98,-1.97,-1.97,-1.98
51.99,1.06,3.05,1.07,3.04,-3.04,-2.82,-3.05,-1.98,-1.97,-1.99
52.51,1.06,3.05,1.06,3.05,-3.05,-2.82,-3.11,-1.98,-1.98,-1.98
53.03,1.06,3.05,1.06,3.05,-3.05,-2.82,-3.17,-1.98,-1.99,-1.98
53.56,1.10,3.09,1.05,3.05,-3.05,-2.82,-3.23,-1.94,-2.00,-1.99
54.10,1.12,3.12,1.04,3.04,-3.04,-2.82,-3.30,-1.92,-2.00,-2.00
54.64,1.05,3.07,1.03,3.04,-3.04,-2.82,-3.36,-1.98,-2.01,-2.01
55.18,0.99,3.01,1.02,3.04,-3.04,-2.82,-3.42,-2.04,-2.01,-2.01
55.74,0.97,3.00,1.02,3.04,-3.04,-2.83,-3.47,-2.07,-2.02,-2.02
56.29,0.96,2.99,1.01,3.04,-3.04,-2.83,-3.53,-2.07,-2.03,-2.02
56.86,0.96,3.00,1.00,3.03,-3.03,-2.84,-3.58,-2.07,-2.03,-2.04
57.42,0.96,3.02,0.98,3.03,-3.03,-2.84,-3.63,-2.06,-2.04,-2.06
58.00,0.96,3.02,0.97,3.02,-3.02,-2.85,-3.68,-2.06,-2.06,-2.06
58.58,0.96,3.03,0.95,3.02,-3.02,-2.86,-3.72,-2.06,-2.07,-2.06
59.16,0.96,3.04,0.93,3.03,-3.03,-2.86,-3.76,-2.06,-2.09,-2.08
59.76,0.96,3.05,0.92,3.03,-3.03,-2.87,-3.80,-2.07,-2.11,-2.09
60.35,0.96,3.09,0.91,3.04,-3.04,-2.88,-3.83,-2.08,-2.13,-2.12
60.96,0.96,3.11,0.90,3.06,-3.06,-2.90,-3.86,-2.10,-2.16,-2.15
61.57,0.87,3.06,0.90,3.08,-3.08,-2.91,-3.88,-2.21,-2.19,-2.18
62.18,0.81,3.03,0.89,3.11,-3.11,-2.92,-3.90,-2.30,-2.22,-2.22
62.80,0.83,3.09,0.89,3.14,-3.14,-2.94,-3.91,-2.31,-2.25,-2.26
63.43,0.85,3.14,0.88,3.17,-3.17,-2.95,-3.92,-2.32,-2.28,-2.29
64.07,0.86,3.19,0.88,3.20,-3.20,-2.97,-3.93,-2.33,-2.32,-2.33
64.71,0.86,3.23,0.87,3.23,-3.23,-2.98,-3.93,-2.36,-2.36,-2.37
65.35,0.86,3.26,0.86,3.26,-3.26,-3.00,-3.93,-2.39,-2.39,-2.39
66.01,0.86,3.30,0.86,3.29,-3.29,-3.02,-3.92,-2.43,-2.43,-2.43
66.67,0.86,3.33,0.86,3.33,-3.33,-3.04,-3.91,-2.47,-2.47,-2.47
67.33,0.88,3.39,0.85,3.36,-3.36,-3.06,-3.90,-2.48,-2.51,-2.51
68.01,0.93,3.47,0.85,3.39,-3.39,-3.08,-3.89,-2.46,-2.55,-2.54
68.69,0.88,3.46,0.84,3.42,-3.42,-3.11,-3.87,-2.54,-2.59,-2.58
69.37,0.82,3.45,0.82,3.45,-3.45,-3.13,-3.85,-2.62,-2.63,-2.62
70.07,0.76,3.43,0.80,3.47,-3.47,-3.15,-3.82,-2.70,-2.67,-2.67
70.77,0.76,3.46,0.78,3.49,-3.49,-3.18,-3.80,-2.73,-2.71,-2.70
71.48,0.76,3.50,0.76,3.51,-3.51,-3.20,-3.77,-2.75,-2.75,-2.74
72.19,0.76,3.56,0.74,3.53,-3.53,-3.23,-3.74,-2.77,-2.80,-2.79
72.91,0.76,3.60,0.72,3.56,-3.56,-3.26,-3.72,-2.80,-2.84,-2.84
73.64,0.66,3.55,0.70,3.58,-3.58,-3.29,-3.69,-2.92,-2.88,-2.88
74.38,0.61,3.54,0.68,3.60,-3.60,-3.32,-3.66,-2.99,-2.93,-2.93
75.12,0.61,3.59,0.67,3.64,-3.64,-3.35,-3.63,-3.03,-2.97,-2.98
75.87,0.65,3.67,0.67,3.68,-3.68,-3.38,-3.61,-3.03,-3.01,-3.02
76.63,0.66,3.72,0.67,3.72,-3.72,-3.41,-3.58,-3.06,-3.05,-3.06
77.40,0.66,3.76,0.67,3.76,-3.76,-3.44,-3.56,-3.10,-3.09,-3.10
78.17,0.66,3.81,0.66,3.80,-3.80,-3.47,-3.53,-3.13,-3.13,-3.14
78.95,0.66,3.83,0.66,3.83,-3.83,-3.50,-3.51,-3.17,-3.17,-3.16
79.74,0.66,3.87,0.65,3.86,-3.86,-3.53,-3.49,-3.20,-3.20,-3.20
80.54,0.66,3.90,0.65,3.89,-3.89,-3.57,-3.47,-3.22,-3.24,-3.23
81.35,0.68,3.96,0.65,3.92,-3.92,-3.60,-3.45,-3.23,-3.27,-3.27
82.16,0.73,4.04,0.64,3.95,-3.95,-3.63,-3.44,-3.22,-3.30,-3.31
82.98,0.72,4.05,0.64,3.97,-3.97,-3.66,-3.43,-3.25,-3.34,-3.33
83.81,0.59,3.96,0.63,4.00,-4.00,-3.69,-3.42,-3.40,-3.37,-3.37
84.65,0.56,3.96,0.62,4.02,-4.02,-3.73,-3.41,-3.46,-3.40,-3.40
85.50,0.56,3.99,0.61,4.05,-4.05,-3.76,-3.41,-3.48,-3.43,-3.43
86.35,0.56,4.02,0.61,4.07,-4.07,-3.79,-3.41,-3.51,-3.47,-3.46
87.22,0.56,4.06,0.60,4.10,-4.10,-3.82,-3.41,-3.53,-3.50,-3.49
88.09,0.56,4.09,0.59,4.12,-4.12,-3.85,-3.41,-3.56,-3.53,-3.53
88.97,0.56,4.13,0.57,4.14,-4.14,-3.88,-3.42,-3.57,-3.57,-3.56
89.86,0.56,4.16,0.55,4.15,-4.15,-3.91,-3.43,-3.59,-3.60,-3.60
90.76,0.57,4.21,0.54,4.17,-4.17,-3.94,-3.44,-3.60,-3.63,-3.64
91.66,0.57,4.24,0.53,4.20,-4.20,-3.97,-3.45,-3.63,-3.67,-3.66
92.58,0.57,4.28,0.52,4.22,-4.22,-3.99,-3.47,-3.65,-3.70,-3.71
93.51,0.53,4.27,0.51,4.24,-4.24,-4.02,-3.49,-3.71,-3.73,-3.74
94.44,0.48,4.25,0.48,4.25,-4.25,-4.04,-3.51,-3.76,-3.76,-3.76
95.39,0.42,4.22,0.45,4.25,-4.25,-4.06,-3.53,-3.83,-3.80,-3.79
96.34,0.36,4.19,0.42,4.25,-4.25,-4.08,-3.56,-3.88,-3.83,-3.83
97.30,0.36,4.22,0.39,4.25,-4.25,-4.10,-3.59,-3.88,-3.86,-3.86
98.28,0.35,4.24,0.36,4.24,-4.24,-4.12,-3.62,-3.89,-3.89,-3.89
99.26,0.35,4.27,0.31,4.22,-4.22,-4.14,-3.65,-3.87,-3.92,-3.92
100.25,0.35,4.30,0.25,4.20,-4.20,-4.15,-3.69,-3.84,-3.95,-3.95
101.25,0.21,4.19,0.20,4.18,-4.18,-4.16,-3.72,-3.97,-3.98,-3.97
102.27,0.02,4.03,0.15,4.15,-4.15,-4.17,-3.76,-4.13,-4.01,-4.00
103.29,0.04,4.09,0.08,4.11,-4.11,-4.18,-3.80,-4.07,-4.04,-4.04
104.32,0.05,4.12,0.01,4.08,-4.08,-4.18,-3.83,-4.03,-4.07,-4.06
105.37,0.03,4.12,-0.05,4.05,-4.05,-4.19,-3.87,-4.02,-4.10,-4.09
106.42,-0.05,4.07,-0.11,4.02,-4.02,-4.19,-3.91,-4.07,-4.13,-4.12
107.48,-0.14,4.02,-0.18,3.98,-3.98,-4.19,-3.95,-4.12,-4.17,-4.16
108.56,-0.32,3.88,-0.26,3.94,-3.94,-4.18,-3.99,-4.26,-4.20,-4.20
109.64,-0.45,3.78,-0.33,3.90,-3.90,-4.18,-4.02,-4.35,-4.23,-4.23
110.74,-0.36,3.91,-0.40,3.87,-3.87,-4.17,-4.06,-4.23,-4.27,-4.27
111.85,-0.39,3.90,-0.46,3.84,-3.84,-4.16,-4.09,-4.23,-4.30,-4.29
112.97,-0.66,3.68,-0.51,3.82,-3.82,-4.14,-4.12,-4.47,-4.33,-4.34
114.10,-0.64,3.73,-0.57,3.79,-3.79,-4.13,-4.15,-4.43,-4.36,-4.36
115.24,-0.54,3.86,-0.63,3.76,-3.76,-4.11,-4.17,-4.30,-4.39,-4.39
116.39,-0.66,3.77,-0.69,3.73,-3.73,-4.09,-4.19,-4.39,-4.42,-4.43
117.55,-0.77,3.68,-0.74,3.70,-3.70,-4.07,-4.21,-4.47,-4.44,-4.45
118.73,-0.87,3.61,-0.78,3.68,-3.68,-4.04,-4.22,-4.55,-4.46,-4.48
119.92,-0.77,3.72,-0.83,3.66,-3.66,-4.01,-4.23,-4.43,-4.49,-4.48
121.12,-0.79,3.72,-0.86,3.64,-3.64,-3.99,-4.23,-4.43,-4.50,-4.51
122.33,-0.95,3.58,-0.91,3.61,-3.61,-3.95,-4.23,-4.56,-4.52,-4.53
123.55,-0.97,3.56,-0.97,3.57,-3.57,-3.92,-4.22,-4.53,-4.54,-4.53
124.79,-0.96,3.59,-1.02,3.53,-3.53,-3.89,-4.20,-4.49,-4.55,-4.55
126.03,-1.07,3.49,-1.06,3.51,-3.51,-3.85,-4.19,-4.57,-4.56,-4.56
127.29,-1.13,3.44,-1.11,3.46,-3.46,-3.81,-4.16,-4.59,-4.58,-4.57
128.57,-1.19,3.40,-1.17,3.42,-3.42,-3.77,-4.13,-4.61,-4.59,-4.59
129.85,-1.24,3.37,-1.22,3.39,-3.39,-3.73,-4.10,-4.63,-4.60,-4.60
131.15,-1.26,3.36,-1.27,3.35,-3.35,-3.69,-4.06,-4.60,-4.62,-4.62
132.46,-1.32,3.31,-1.33,3.30,-3.30,-3.64,-4.01,-4.62,-4.63,-4.63
133.79,-1.36,3.28,-1.39,3.25,-3.25,-3.60,-3.96,-4.61,-4.64,-4.64
135.12,-1.51,3.16,-1.44,3.21,-3.21,-3.55,-3.91,-4.72,-4.65,-4.66
136.48,-1.53,3.14,-1.49,3.17,-3.17,-3.50,-3.85,-4.70,-4.66,-4.66
137.84,-1.46,3.23,-1.55,3.13,-3.13,-3.45,-3.79,-4.59,-4.68,-4.68
139.22,-1.56,3.15,-1.60,3.09,-3.09,-3.40,-3.72,-4.65,-4.69,-4.70
140.61,-1.66,3.07,-1.65,3.06,-3.06,-3.35,-3.65,-4.72,-4.71,-4.72
142.02,-1.73,2.99,-1.69,3.03,-3.03,-3.30,-3.58,-4.76,-4.73,-4.72
143.44,-1.80,2.94,-1.74,3.01,-3.01,-3.25,-3.51,-4.81,-4.75,-4.74
144.87,-1.83,2.94,-1.78,2.99,-2.99,-3.20,-3.44,-4.82,-4.77,-4.77
146.32,-1.83,2.97,-1.83,2.97,-2.97,-3.15,-3.36,-4.80,-4.80,-4.79
147.78,-1.84,2.97,-1.87,2.96,-2.96,-3.09,-3.28,-4.80,-4.84,-4.81
149.26,-1.90,2.95,-1.92,2.96,-2.96,-3.04,-3.21,-4.86,-4.88,-4.85
150.75,-1.98,2.92,-1.96,2.96,-2.96,-2.99,-3.13,-4.94,-4.92,-4.90
152.26,-2.02,2.94,-2.01,2.96,-2.96,-2.93,-3.05,-4.98,-4.97,-4.96
153.78,-2.03,2.98,-2.07,2.96,-2.96,-2.88,-2.97,-4.98,-5.03,-5.01
155.32,-2.10,2.97,-2.12,2.96,-2.96,-2.83,-2.89,-5.06,-5.08,-5.07
156.88,-2.13,3.01,-2.17,2.97,-2.97,-2.77,-2.82,-5.10,-5.14,-5.13
158.44,-2.20,3.01,-2.22,2.99,-2.99,-2.72,-2.74,-5.19,-5.20,-5.21
160.03,-2.29,2.99,-2.27,2.99,-2.99,-2.67,-2.67,-5.28,-5.26,-5.28
161.63,-2.35,2.99,-2.33,2.98,-2.98,-2.61,-2.59,-5.33,-5.32,-5.34
163.24,-2.40,2.99,-2.40,2.97,-2.97,-2.56,-2.52,-5.37,-5.37,-5.39
164.88,-2.48,2.95,-2.45,2.96,-2.96,-2.51,-2.45,-5.43,-5.41,-5.43
166.53,-2.55,2.92,-2.51,2.94,-2.94,-2.46,-2.38,-5.49,-5.45,-5.47
168.19,-2.62,2.88,-2.57,2.91,-2.91,-2.40,-2.31,-5.52,-5.48,-5.50
169.87,-2.66,2.87,-2.63,2.88,-2.88,-2.35,-2.24,-5.53,-5.50,-5.53
171.57,-2.62,2.92,-2.67,2.85,-2.85,-2.30,-2.17,-5.46,-5.52,-5.53
173.29,-2.61,2.93,-2.73,2.80,-2.80,-2.25,-2.11,-5.41,-5.53,-5.54
175.02,-2.76,2.78,-2.78,2.76,-2.76,-2.20,-2.05,-5.52,-5.54,-5.54
176.77,-2.94,2.61,-2.82,2.71,-2.71,-2.15,-1.98,-5.65,-5.54,-5.54
178.54,-2.91,2.63,-2.87,2.67,-2.67,-2.10,-1.93,-5.57,-5.54,-5.54
180.32,-2.91,2.62,-2.92,2.61,-2.61,-2.05,-1.87,-5.52,-5.53,-5.52
182.13,-2.95,2.56,-2.96,2.57,-2.57,-2.00,-1.81,-5.52,-5.53,-5.51
183.95,-3.01,2.50,-3.00,2.53,-2.53,-1.95,-1.76,-5.54,-5.53,-5.51
185.79,-3.05,2.46,-3.04,2.49,-2.49,-1.91,-1.70,-5.54,-5.53,-5.51
187.65,-2.98,2.54,-3.08,2.45,-2.45,-1.86,-1.65,-5.42,-5.53,-5.52
189.52,-3.16,2.36,-3.13,2.40,-2.40,-1.81,-1.60,-5.56,-5.53,-5.52
191.42,-3.27,2.27,-3.18,2.36,-2.36,-1.77,-1.55,-5.63,-5.54,-5.54
193.33,-3.23,2.32,-3.22,2.33,-2.33,-1.72,-1.50,-5.56,-5.55,-5.55
195.27,-3.25,2.31,-3.26,2.30,-2.30,-1.67,-1.45,-5.55,-5.56,-5.56
197.22,-3.30,2.27,-3.30,2.27,-2.27,-1.63,-1.41,-5.57,-5.57,-5.57
199.19,-3.34,2.25,-3.34,2.24,-2.24,-1.58,-1.36,-5.58,-5.58,-5.59
201.18,-3.30,2.30,-3.39,2.21,-2.21,-1.54,-1.32,-5.51,-5.60,-5.60
203.19,-3.40,2.21,-3.43,2.18,-2.18,-1.49,-1.28,-5.58,-5.61,-5.61
205.23,-3.56,2.07,-3.48,2.15,-2.15,-1.45,-1.23,-5.71,-5.63,-5.63
207.28,-3.56,2.07,-3.53,2.12,-2.12,-1.41,-1.19,-5.68,-5.64,-5.63
209.35,-3.59,2.06,-3.58,2.08,-2.08,-1.36,-1.15,-5.67,-5.66,-5.65
211.44,-3.64,2.04,-3.62,2.05,-2.05,-1.32,-1.11,-5.69,-5.67,-5.68
213.56,-3.73,1.95,-3.68,2.00,-2.00,-1.28,-1.07,-5.73,-5.68,-5.68
215.69,-3.72,1.97,-3.75,1.94,-1.94,-1.23,-1.03,-5.66,-5.69,-5.69
217.85,-3.68,2.02,-3.82,1.87,-1.87,-1.19,-0.99,-5.55,-5.70,-5.69
220.03,-3.88,1.82,-3.89,1.81,-1.81,-1.15,-0.95,-5.69,-5.70,-5.70
222.23,-3.99,1.73,-3.96,1.74,-1.74,-1.11,-0.91,-5.73,-5.70,-5.72
224.45,-3.97,1.74,-4.04,1.66,-1.66,-1.07,-0.87,-5.63,-5.70,-5.71
226.70,-4.09,1.62,-4.11,1.59,-1.59,-1.02,-0.83,-5.67,-5.70,-5.70
228.96,-4.21,1.48,-4.17,1.52,-1.52,-0.98,-0.79,-5.72,-5.69,-5.69
231.25,-4.26,1.42,-4.24,1.44,-1.44,-0.94,-0.75,-5.69,-5.68,-5.68
233.57,-4.33,1.33,-4.31,1.35,-1.35,-0.90,-0.71,-5.68,-5.66,-5.66
235.90,-4.45,1.20,-4.37,1.27,-1.27,-0.86,-0.67,-5.72,-5.64,-5.65
238.26,-4.56,1.08,-4.43,1.19,-1.19,-0.81,-0.62,-5.75,-5.62,-5.63
240.64,-4.50,1.11,-4.48,1.12,-1.12,-0.77,-0.58,-5.62,-5.60,-5.61
243.05,-4.49,1.09,-4.54,1.04,-1.04,-0.73,-0.53,-5.53,-5.58,-5.58
245.48,-4.66,0.89,-4.58,0.97,-0.97,-0.69,-0.49,-5.63,-5.55,-5.55
247.93,-4.66,0.86,-4.63,0.89,-0.89,-0.65,-0.44,-5.55,-5.53,-5.52
250.41,-4.58,0.92,-4.68,0.82,-0.82,-0.60,-0.39,-5.40,-5.50,-5.50
252.92,-4.65,0.82,-4.73,0.75,-0.75,-0.56,-0.34,-5.39,-5.47,-5.46
255.45,-4.79,0.65,-4.78,0.66,-0.66,-0.52,-0.29,-5.45,-5.45,-5.44
258.00,-4.87,0.55,-4.85,0.57,-0.57,-0.47,-0.23,-5.44,-5.42,-5.41
260.58,-4.84,0.56,-4.92,0.47,-0.47,-0.43,-0.18,-5.31,-5.39,-5.40
263.19,-4.93,0.43,-4.99,0.37,-0.37,-0.38,-0.12,-5.30,-5.37,-5.36
265.82,-5.09,0.26,-5.07,0.26,-0.26,-0.33,-0.07,-5.35,-5.34,-5.35
268.48,-5.27,0.05,-5.17,0.14,-0.14,-0.29,-0.01,-5.41,-5.31,-5.32
271.16,-5.26,0.02,-5.27,0.02,-0.02,-0.24,0.05,-5.28,-5.29,-5.28
273.87,-5.28,-0.01,-5.36,-0.11,0.11,-0.19,0.12,-5.17,-5.26,-5.27
276.61,-5.45,-0.22,-5.48,-0.24,0.24,-0.14,0.18,-5.20,-5.23,-5.23
279.38,-5.64,-0.44,-5.59,-0.38,0.38,-0.09,0.25,-5.25,-5.20,-5.20
282.17,-5.75,-0.57,-5.69,-0.51,0.51,-0.04,0.31,-5.23,-5.17,-5.18
284.99,-5.81,-0.67,-5.78,-0.64,0.64,0.01,0.38,-5.17,-5.14,-5.14
287.84,-5.88,-0.76,-5.88,-0.76,0.76,0.07,0.45,-5.11,-5.11,-5.12
290.72,-5.96,-0.87,-5.97,-0.89,0.89,0.12,0.52,-5.07,-5.08,-5.08
293.63,-6.08,-1.02,-6.06,-1.01,1.01,0.18,0.59,-5.07,-5.05,-5.06
296.57,-6.22,-1.20,-6.15,-1.13,1.13,0.24,0.67,-5.09,-5.02,-5.02
299.53,-6.32,-1.33,-6.25,-1.26,1.26,0.30,0.74,-5.06,-4.99,-4.99
302.53,-6.37,-1.39,-6.36,-1.40,1.40,0.36,0.82,-4.97,-4.96,-4.97
305.55,-6.46,-1.53,-6.47,-1.53,1.53,0.43,0.90,-4.93,-4.94,-4.93
308.61,-6.50,-1.59,-6.57,-1.66,1.66,0.50,0.98,-4.84,-4.91,-4.91
311.69,-6.58,-1.70,-6.69,-1.80,1.80,0.57,1.06,-4.78,-4.89,-4.88
314.81,-6.71,-1.86,-6.81,-1.95,1.95,0.64,1.14,-4.76,-4.86,-4.85
317.96,-6.89,-2.05,-6.94,-2.10,2.10,0.71,1.23,-4.79,-4.84,-4.83
321.14,-7.07,-2.24,-7.07,-2.25,2.25,0.79,1.31,-4.82,-4.82,-4.83
324.35,-7.22,-2.41,-7.21,-2.41,2.41,0.87,1.40,-4.81,-4.80,-4.81
327.59,-7.41,-2.62,-7.35,-2.56,2.56,0.96,1.49,-4.85,-4.79,-4.79
330.87,-7.56,-2.78,-7.49,-2.71,2.71,1.05,1.58,-4.85,-4.77,-4.78
334.18,-7.67,-2.91,-7.63,-2.87,2.87,1.14,1.67,-4.80,-4.76,-4.76
337.52,-7.79,-3.03,-7.76,-3.01,3.01,1.23,1.77,-4.77,-4.75,-4.75
340.90,-7.94,-3.20,-7.90,-3.15,3.15,1.33,1.86,-4.78,-4.74,-4.73
344.30,-8.04,-3.31,-8.03,-3.30,3.30,1.44,1.96,-4.74,-4.73,-4.73
347.75,-8.18,-3.45,-8.16,-3.43,3.43,1.55,2.06,-4.75,-4.73,-4.73
351.23,-8.31,-3.59,-8.28,-3.56,3.56,1.66,2.16,-4.75,-4.72,-4.72
354.74,-8.48,-3.76,-8.41,-3.69,3.69,1.78,2.26,-4.79,-4.72,-4.72
358.28,-8.56,-3.85,-8.54,-3.83,3.83,1.91,2.37,-4.73,-4.71,-4.71
361.87,-8.64,-3.93,-8.69,-3.97,3.97,2.04,2.48,-4.66,-4.71,-4.71
365.49,-8.77,-4.06,-8.84,-4.13,4.13,2.18,2.58,-4.64,-4.71,-4.70
369.14,-8.90,-4.18,-9.00,-4.29,4.29,2.33,2.69,-4.61,-4.71,-4.71
372.83,-9.07,-4.35,-9.18,-4.47,4.47,2.48,2.81,-4.60,-4.71,-4.72
376.56,-9.31,-4.59,-9.37,-4.65,4.65,2.64,2.92,-4.65,-4.71,-4.72
380.33,-9.56,-4.85,-9.56,-4.85,4.85,2.80,3.03,-4.71,-4.71,-4.71
384.13,-9.73,-5.02,-9.76,-5.05,5.05,2.98,3.15,-4.68,-4.72,-4.71
387.97,-9.96,-5.24,-9.97,-5.25,5.25,3.16,3.27,-4.71,-4.72,-4.72
391.85,-10.22,-5.49,-10.18,-5.46,5.43,3.35,3.39,-4.79,-4.75,-4.73
395.77,-10.47,-5.75,-10.40,-5.67,5.59,3.55,3.51,-4.88,-4.81,-4.72
399.73,-10.67,-5.94,-10.62,-5.88,5.71,3.75,3.63,-4.95,-4.90,-4.73
403.72,-10.83,-6.10,-10.83,-6.09,5.81,3.97,3.75,-5.01,-5.02,-4.73
407.76,-11.05,-6.31,-11.04,-6.29,5.89,4.19,3.87,-5.16,-5.15,-4.74
411.84,-11.27,-6.52,-11.24,-6.49,5.95,4.41,3.99,-5.32,-5.29,-4.74
415.96,-11.42,-6.67,-11.42,-6.68,5.98,4.65,4.11,-5.43,-5.44,-4.74
420.12,-11.56,-6.81,-11.60,-6.85,6.00,4.88,4.23,-5.56,-5.60,-4.74
424.32,-11.73,-6.98,-11.76,-7.02,6.00,5.12,4.34,-5.73,-5.76,-4.75
428.56,-11.88,-7.14,-11.91,-7.18,6.00,5.36,4.46,-5.88,-5.91,-4.74
432.85,-12.00,-7.27,-12.05,-7.33,6.00,5.60,4.57,-6.00,-6.05,-4.73
437.18,-12.15,-7.43,-12.17,-7.48,6.00,5.83,4.68,-6.15,-6.17,-4.72
441.55,-12.24,-7.56,-12.27,-7.60,6.00,6.05,4.78,-6.24,-6.27,-4.68
