frequency,raw,error,smoothed,error_smoothed,equalization,equalized_raw,equalized_smoothed,target
20,-3.1296881236563694,-7.250308874264283,-3.1154046329673135,-7.2360436281455796,5.999999999999998,2.870311876343629,2.8845953670326847,4.120620750607913
21,-2.8404319253092583,-6.99266707001859,-2.8574946566247297,-7.009719177138346,6.0,3.1595680746907417,3.1425053433752703,4.152235144709332
22,-2.641148074835167,-6.821596554858663,-2.617493245719243,-6.7979196640803625,6.0,3.358851925164833,3.382506754280757,4.180448480023496
23,-2.3719685261418517,-6.57722787646339,-2.3954004002508524,-6.600645088971629,6.000000000000001,3.628031473858149,3.6045995997491485,4.205259350321538
24,-2.16550079583266,-6.3921668922868955,-2.191216120219556,-6.417895451812139,5.999999999999999,3.834499204167339,3.808783879780443,4.2266660964542355
25,-1.972663330267916,-6.217330105173714,-2.006546392847749,-6.2512850935821245,5.978229409619629,4.005566079351713,3.9716830167718795,4.244666774905798
26,-1.7798258647031746,-6.0390849887534355,-1.8395026109421297,-6.098921017183592,5.933717641566326,4.153891776863151,4.094215030624197,4.259259124050261
27,-1.7798258647031715,-6.0503353384137135,-1.6883416376392586,-5.959051735368739,5.869098505320233,4.089272640617061,4.180756867680975,4.270509473710542
28,-1.586988399138431,-5.86535003972438,-1.5506447363662774,-5.829239037555234,5.7885073697048215,4.20151897056639,4.237862633338544,4.278361640585948
29,-1.3941509335736877,-5.676937625085399,-1.4236236014699086,-5.706659622361277,5.694689598547965,4.300538664974278,4.271065997078057,4.282786691511712
30,-1.297732200791318,-5.581469889452112,-1.3050938951096716,-5.589077349747434,5.589077349747435,4.291345148956117,4.283983454637763,4.2837376886607945
31,-1.1797556508355354,-5.460902517710414,-1.1933724854741539,-5.4747375123140705,5.4747375123140705,4.294981861478535,4.281365026839916,4.281146866874879
32,-1.1048947352265812,-5.379819016753046,-1.0875150405962604,-5.362604573562869,5.362604573562869,4.257709838336288,4.275089532966609,4.274924281526465
33,-1.0084760024442092,-5.273434622852403,-0.9872263790578379,-5.252274347442873,5.252274347442873,4.243798344998663,4.265047968385034,4.264958620408194
34,-0.9120572696618416,-5.16318932559688,-0.892559136041577,-5.143676440409642,5.1436764404096404,4.231619170747798,4.251117304368064,4.251132055935038
35,-0.7819316765699412,-5.0152462378280775,-0.8036641965193503,-5.036830976326956,5.036830976326955,4.254899299757014,4.233166779807605,4.233314561258136
36,-0.7192198040971023,-4.930594921600427,-0.7205253725508178,-4.931591712727057,4.931591712727056,4.212371908629954,4.211066340176238,4.211375117503325
37,-0.6228010713147344,-4.8079932762515565,-0.6428389426677984,-4.8275362950308445,4.827536295030845,4.204735223716111,4.184697352363047,4.185192204936822
38,-0.5263823385323666,-4.68104878967181,-0.5700643799814069,-4.724029852747169,4.724029852747169,4.197647514214802,4.153965472765762,4.154666451139444
39,-0.5263823385323662,-4.6461174283781315,-0.5016036799356794,-4.620419076620036,4.620419076620036,4.094036738087669,4.118815396684356,4.119735089845765
40,-0.5175745078482837,-4.597962269767748,-0.43704890824191656,-4.516296039840842,4.5162960398408405,3.998721531992557,4.079247131598924,4.0803877619194635
41,-0.33354487296784247,-4.370229785008906,-0.37638032271416644,-4.411713522943193,4.411713522943193,4.078168649975351,4.035333200229027,4.036684912041063
42,-0.3335448729677603,-4.322320300921347,-0.3200239596590565,-4.3072599623135694,4.30725996231357,3.97371508934581,3.9872360026545137,3.9887754279535863
43,-0.3335448729661514,-4.270458758345538,-0.26873510571060655,-4.203959506195221,4.203959506195221,3.87041463322907,3.9352244004846146,3.9369138853793864
44,-0.1407074073977989,-4.022183510215158,-0.22334486681457832,-4.103033323592527,4.103033323592527,3.962325916194728,3.8796884567779486,3.881476102817359
45,-0.1407074073971796,-3.9636792478962497,-0.18446865469673818,-4.005619861325009,4.005619861325009,3.8649124539278294,3.821151206628271,3.8229718404990702
46,-0.14070740741307247,-3.9027608425374405,-0.15228691899396363,-3.912563257713238,3.9125632577132374,3.771855850300165,3.7602763387192737,3.762053435124368
47,-0.14070740745685478,-3.840226596183861,-0.12647001543135333,-3.824340762576802,3.8243407625768016,3.6836333551199467,3.697870747145448,3.699519188727006
48,-0.14070740750658234,-3.7770181408102275,-0.10624931283394008,-3.7411303776461096,3.741130377646109,3.600422970139527,3.634881064812169,3.6363107333036453
49,-0.1407074074741232,-3.7142109486407504,-0.09057164077464457,-3.662955150798878,3.662955150798877,3.522247743324754,3.5723835100242325,3.573503541166627
50,-0.04428867443902678,-3.556578828848107,-0.07825003372993525,-3.5898166941167435,3.5898166941167426,3.545528019677716,3.511566660386807,3.5122901544090803
51,-0.04428867389714813,-3.498244712500611,-0.06805139501070245,-3.521758496417986,3.521758496417986,3.477469822520838,3.4537071014072835,3.453956038603463
52,-0.04428867328521585,-3.4441370247636636,-0.05872344630893703,-3.4588617120705214,3.4588617120705214,3.4145730387853055,3.4001382657615844,3.3998483514784477
53,-0.044288673307117214,-3.395626988942423,-0.04902170797130497,-3.4012348719315897,3.4012348719315906,3.3569461986244735,3.3522131639602857,3.351338315635306
54,-0.0442886750839882,-3.354066943068061,-0.0378161683989133,-3.349078254710417,3.3490782547104176,3.3047895796264295,3.3112620863115043,3.309778267984073
55,-0.04428867957590304,-3.3207435264384886,-0.024322327378450546,-3.302869034031562,3.302869034031562,3.258580354455659,3.278546706653111,3.2764548468625856
56,-0.04428868641540611,-3.296828773028934,-0.008426506850830174,-3.2636388245353367,3.2636388245353376,3.2193501381199314,3.2552123176845074,3.2525400866135277
57,-0.038429346102988135,-3.2774717799259414,0.00900238040629503,-3.2332377747081242,3.2332377747081233,3.194808428605135,3.2422401551144184,3.239042433822953
58,0.0521300420044511,-3.1846298086178773,0.025962830768256763,-3.2144390750041487,3.2144390750041496,3.2665691170086006,3.2404019057724063,3.2367598506223283
59,0.05213006128662884,-3.1941071544919946,0.03945986017897667,-3.210758670169456,3.210758670169456,3.262888731456085,3.250218530348433,3.2462372157786232
60,0.05213010721227646,-3.2156000576397634,0.045981510958399974,-3.225943946111727,3.2259439461117267,3.278074053324003,3.2719254570701266,3.26773016485204
61,0.05213018013689125,-3.249047142713974,0.042251574969395404,-3.263194442213977,3.2631944422139774,3.3153246223508686,3.305446017183373,3.301177322850865
62,0.05213026081394429,-3.2940523248827587,0.026096520604671936,-3.3242781813309445,3.3242781813309454,3.3764084421448897,3.3503747019356176,3.346182585696703
63,0.052130300060349535,-3.349878409822816,-0.0027934281356553014,-3.408764863851638,3.4087648638516383,3.460895163911988,3.405971435715983,3.4020087098831655
64,-0.01342359049652802,-3.4810065826618217,-0.04242479118573102,-3.5135923901091344,3.513592390109135,3.5001687996126067,3.4711675989234037,3.4675829921652936
65,-0.06381639290124869,-3.6053316796399377,-0.08853251371979581,-3.6331165333447797,3.6331165333447797,3.569300140443531,3.544584019624984,3.541515286738689
66,-0.1407081604222275,-3.762836204550343,-0.13512229219812522,-3.759682904608569,3.75968290460857,3.6189747441863425,3.624560612410445,3.6221280441281154
67,-0.22551595766644725,-3.9330134518896553,-0.17543754594963276,-3.884634350035795,3.884634350035795,3.659118392369348,3.7091968040861625,3.707497494223208
68,-0.23712874232993816,-4.032633308464532,-0.20315579978085724,-3.999557177405805,3.999557177405805,3.7624284350758668,3.7964013776249477,3.7955045661345936
69,-0.23712932341464607,-4.12102299284093,-0.2135541210765225,-4.097504038330921,4.097504038330921,3.8603747149162753,3.883949917254399,3.8838936694262842
70,-0.23712877506671032,-4.207465856044382,-0.20438110297028267,-4.173928778061307,4.173928778061307,3.936800002994597,3.9695476750910244,3.970337080977672
71,-0.23712616267950987,-4.289628573267664,-0.1762382894546416,-4.227133711930016,4.227133711930017,3.9900075492505076,4.050895422475376,4.052502410588154
72,-0.14283414808294553,-4.270954619651251,-0.13239177750929032,-4.258147485320628,4.258147485320628,4.115313337237683,4.125755707811338,4.128120471568305
73,-0.09394618436687058,-4.288997052265653,-0.07807410898837713,-4.270091030184615,4.270091030184614,4.176144845817743,4.192016921196236,4.195050867898782
74,0.05116641756703872,-4.20017630979204,-0.019458645782922557,-4.267211318433173,4.267211318433174,4.318377736000213,4.247752672650251,4.251342727359079
75,0.05216631457420302,-4.243121938351168,0.037441745047141504,-4.25383247306629,4.25383247306629,4.305998787640493,4.291274218113432,4.295288252925371
76,0.1359805746556207,-4.189486543522397,0.08770239781213873,-4.233471614208721,4.233471614208721,4.369452188864342,4.32117401202086,4.325467118178018
77,0.14858381253328007,-4.192196363208371,0.12806249904425454,-4.208296424880779,4.20829642488078,4.35688023741406,4.336358923925035,4.340780175741651
78,0.14855604194081456,-4.191915413460185,0.15708285463382154,-4.178989339351425,4.178989339351424,4.327545381292238,4.336072193985245,4.3404714554009995
79,0.1484994654358171,-4.175638506411477,0.17493572211295066,-4.144968008705893,4.144968008705893,4.2934674741417105,4.319903730818844,4.3241379718472945
80,0.1748335044312293,-4.116893906626927,0.18296106233074738,-4.10482771183932,4.10482771183932,4.27966121627055,4.2877887741700675,4.291727411058156
81,0.24471018783737025,-3.998814101877998,0.1831556725663822,-4.0568395482331585,4.056839548233159,4.3015497360705295,4.239995220799542,4.243524289715368
82,0.16729495103984154,-4.012830705759252,0.17774006503415735,-3.9993600921541113,3.9993600921541117,4.166655043193953,4.177100157188269,4.180125656799094
83,0.14804627588104707,-3.954361531613872,0.16888887089525315,-3.9310676617937257,3.9310676617937266,4.079113937674774,4.09995653268898,4.102407807494919
84,0.14799961350487406,-3.8634861754657486,0.15863913467701773,-3.8510125449474293,3.851012544947431,3.999012158452305,4.009651679624449,4.011485788970623
85,0.1480827609327274,-3.7605849227658092,0.14893034993440982,-3.7585302589721232,3.7585302589721232,3.9066130199048508,3.907460608906533,3.908667683698537
86,0.1483662794681356,-3.6470394741920806,0.14169490340578195,-3.653103377119562,3.6531033771195616,3.801469656587697,3.7947982805253435,3.795405753660216
87,0.148915808867593,-3.524330710514533,0.138912058958851,-3.534263393594472,3.534263393594472,3.683179202462065,3.673175452553323,3.673246519382126
88,0.1497746886341485,-3.3940070502210555,0.14255981985635935,-3.4016014442053892,3.4016014442053892,3.551376132839538,3.5441612640617484,3.543781738855204
89,0.15094320200909556,-3.25765885382981,0.15443797249830607,-3.254914119897538,3.254914119897538,3.4058573219066335,3.409352092395844,3.4086020558389056
90,0.15235715954464196,-3.1168976623301807,0.1758815266441821,-3.0944598936467473,3.0944598936467473,3.246817053191389,3.2703414202909293,3.2692548218748225
91,0.15386942234472184,-2.973337859061374,0.207426297362616,-2.9212553787727638,2.9212553787727633,3.075124801117485,3.1286816761353795,3.1272072814060956
92,0.24683462537173884,-2.7369813405978967,0.2485178211656412,-2.737311453963144,2.7373114539631436,2.9841460793348826,2.985829275128785,2.9838159659696353
93,0.2950753924530016,-2.545227400229226,0.2973624920395178,-2.5457079734889243,2.545707973488925,2.8407833659419266,2.843070465528443,2.8403027926822273
94,0.3489509861169112,-2.348787037824833,0.35100019020105244,-2.3504371562022275,2.350437156202228,2.699388142319139,2.7014373464032806,2.697738023941744
95,0.43353893016632755,-2.123491006431096,0.40563100902685656,-2.156005261131112,2.156005261131112,2.5895441912974393,2.5616362701579685,2.5570299365974236
96,0.44070579689246464,-1.978214986631474,0.45716372056667276,-1.9668545082527156,1.966854508252715,2.4075603051451795,2.4240182288193877,2.4189207835239386
97,0.46418211064050513,-1.8198063075846347,0.5018859031057866,-1.7867309519679424,1.7867309519679424,2.2509130626084475,2.288616855073729,2.2839884182251398
98,0.6195690332031143,-1.5330837659470298,0.5371058243339772,-1.618156522531348,1.6181565225313481,2.237725555734462,2.1552623468653254,2.152652799150144
99,0.6082141571948799,-1.4169723387516364,0.5616040256617683,-1.4621488535580367,1.4621488535580367,2.0703630107529167,2.023752879219805,2.0251864959465165
100,0.5937680520483861,-1.3079602301034894,0.5757688273698014,-1.318269897368932,1.318269897368932,1.912037949417318,1.8940387247387334,1.9017282821518755
101,0.576334170832656,-1.2059647409906846,0.581370170009847,-1.1849900422775324,1.1849900422775324,1.7613242131101883,1.7663602122873794,1.7822989118233408
102,0.5562205748466709,-1.110597657987619,0.5810291287162621,-1.0602580626075424,1.0602580626075422,1.616478637454213,1.6412871913238043,1.6668182328342898
104,0.5339297662412876,-0.9592284855504574,0.5775332302645309,-0.9421020251073245,0.9421020251073244,1.476031791348612,1.5196352553718553,1.493158251791745
105,0.564809382954089,-0.8201289872744337,0.5731973883635849,-0.8290768548846803,0.8290768548846803,1.3938862378387693,1.4022742432482653,1.3849383702285227
106,0.5820319015081441,-0.6980878580982586,0.5694554601480807,-0.7204276278447374,0.7204276278447371,1.3024595293528813,1.2898830879928178,1.2801197596064027
107,0.5576558803323368,-0.6207337543203328,0.566789548128119,-0.6159374410710097,0.6159374410710097,1.1735933214033465,1.1827269891991286,1.1783896346526697
108,0.5342875256590607,-0.5451289276541571,0.5649889838199933,-0.5155399222579924,0.5155399222579923,1.0498274479170528,1.0805289060779857,1.0794164533132178
109,0.6081333613669775,-0.37472980064819894,0.5636194879810358,-0.4188588570859671,0.4188588570859672,1.0269922184529447,0.9824783450670029,0.9828631620151764
110,0.5901412324421025,-0.29825759905789795,0.5625160633959018,-0.3248607235590951,0.3248607235590951,0.9150019560011976,0.8873767869549969,0.8883988315000004
111,0.5742041944831564,-0.22150444211898046,0.5621147843618259,-0.23176173881633377,0.23176173881633383,0.8059659332994902,0.7938765231781597,0.7957086366021369
112,0.5617157236390586,-0.14278645756526043,0.5635063968663256,-0.13723635860191213,0.13723635860191216,0.6989520822409708,0.7007427554682378,0.7045021812043191
113,0.5528397164946683,-0.06168048475897536,0.5682008272514807,-0.03886531670116515,0.03886531670116515,0.5917050331958335,0.6070661439526458,0.6145202012536437
114,0.5475360957402666,0.021996398421386454,0.5776943371314542,0.06532020613066955,-0.06532020613066954,0.4822158896095971,0.5123741310007847,0.5255396973188802
115,0.545576705525729,0.10819914794127206,0.5929927749498729,0.17636748340376224,-0.1763674834037623,0.3692092221219667,0.4166252915461106,0.43737755758445696
117,0.6429950061424887,0.3478149857398416,0.614246812200525,0.29413886511753096,-0.29413886511753085,0.3488561410249579,0.32010794708299417,0.2951800204026471
118,0.6464541368032242,0.43705518569379453,0.6406042687559992,0.4173147703040318,-0.41731477030403175,0.22913936649919242,0.22328949845196744,0.20939895110942963
119,0.6518098747656079,0.5276218728384591,0.670306245970431,0.5436370468177509,-0.5436370468177508,0.1081728279478571,0.12666919915268016,0.12418800192714885
120,0.6882683430366372,0.6487432559546984,0.7009801852984601,0.6703054435820119,-0.670305443582012,0.017962899454625147,0.030674741716448017,0.0395250870819388
121,0.7623719180887161,0.8069457755226759,0.7300390607175412,0.7944200815225618,-0.7944200815225618,-0.032048163433845755,-0.06438102080502062,-0.04457385743395981
123,0.7701638152524309,0.9456208703233057,0.755089468750191,0.9133813003870875,-0.9133813003870875,-0.1432174851346566,-0.15829183163689653,-0.17545705507087472
124,0.7779252782314999,1.0348669858407615,0.774273143232582,1.0251959196156513,-1.0251959196156513,-0.24727064138415134,-0.25092277638306926,-0.2569417076092615
125,0.7854099012761906,1.1230292549038743,0.786499028571238,1.1286736139126963,-1.1286736139126963,-0.3432637126365057,-0.3421745853414583,-0.3376193536276837
126,0.7924754634968108,1.2098482917888744,0.7915506803807745,1.2235148350611107,-1.2235148350611107,-0.43103937156429994,-0.4319641546803362,-0.4173728282920637
128,0.7990639881720418,1.3359600304978383,0.7900694619606523,1.3102925142149353,-1.3102925142149355,-0.5112285260428937,-0.5202230522542832,-0.5368960423257965
129,0.8051735788147532,1.418273785548507,0.7834211246696914,1.3903248588194554,-1.3903248588194557,-0.5851512800047025,-0.6069037341497643,-0.6131002067337539
130,0.7966602869686326,1.484650325769186,0.7734605918144632,1.4654401926824616,-1.4654401926824618,-0.6687799057138293,-0.6919796008679986,-0.6879900388005535
131,0.7341470109922741,1.495584099028988,0.7622235391590088,1.537654322120851,-1.5376543221208512,-0.8035073111285771,-0.7754307829618424,-0.7614370880367138
133,0.7244229926836172,1.592197256648805,0.7515921417554583,1.608810502830646,-1.6088105028306463,-0.8843875101470291,-0.857218361075188,-0.8677742639651878
134,0.7287602676431568,1.6655377870681003,0.7429976818516317,1.6802565358130832,-1.6802565358130837,-0.9514962681699268,-0.9372588539614519,-0.9367775194249435
135,0.7325936150693972,1.7366425944562234,0.7372245950959504,1.7526375755372792,-1.7526375755372792,-1.020043960467882,-1.0154129804413288,-1.0040489793868261
137,0.7358614362499112,1.8351295116988924,0.7343629082716012,1.825859798330363,-1.825859798330363,-1.0899983620804519,-1.0914968900587618,-1.0992680754489812
138,0.7385071169871964,1.9002851489252175,0.7339208404786116,1.8992344976772828,-1.8992344976772828,-1.1607273806900864,-1.1653136571986713,-1.161778031938021
140,0.7404972057809192,1.9894470362616847,0.7350663509147215,1.9717593734459327,-1.9717593734459324,-1.2312621676650133,-1.236693022531211,-1.2489498304807656
141,0.7418363051402013,2.048546026986242,0.7369289760599529,2.0424521890175216,-2.0424521890175216,-1.3006158838773203,-1.3055232129575687,-1.3067097218460408
142,0.7425755783694337,2.1051942327141124,0.7388731870435707,2.1106355192319564,-2.1106355192319564,-1.3680599408625227,-1.3717623321883856,-1.3626186543446788
144,0.742813254006228,2.182136629033626,0.7406580586184288,2.1760842771888433,-2.176084277188843,-1.433271023182615,-1.435426218570414,-1.4393233750273977
145,0.7426870338016076,2.23334083839125,0.7424261758514534,2.2389861069298096,-2.238986106929809,-1.4962990731282015,-1.4965599310783557,-1.4906538045896425
147,0.7423595521251714,2.3026027065160206,0.7445132607673195,2.2997194945214128,-2.2997194945214123,-1.557359942396241,-1.5552062337540928,-1.5602431543908493
148,0.741998838558207,2.3491762029816843,0.7471292264052211,2.3585133809330774,-2.3585133809330774,-1.6165145423748704,-1.6113841545278564,-1.6071773644234773
150,0.7417561283069138,2.4118400656014405,0.7500160386704466,2.415100775547031,-2.4151007755470313,-1.6733446472401174,-1.6650847368765846,-1.6700839372945269
151,0.7417434950920236,2.4544953326343393,0.7522187602825985,2.468501205026394,-2.4685012050263944,-1.7267577099343707,-1.7162824447437959,-1.7127518375423154
153,0.7420137997821012,2.511326005420929,0.7520953906784285,2.517049039683344,-2.517049039683344,-1.7750352399012426,-1.7649536490049154,-1.769312205638828
154,0.7425454451567242,2.5502860580131244,0.7476299503538187,2.558721318551666,-2.5587213185516657,-1.8161758733949416,-1.811091368197847,-1.8077406128564002
156,0.7432344108095921,2.6013911080854024,0.7370106410254285,2.5917191276626816,-2.591719127662682,-1.84848471685309,-1.8547084866372536,-1.8581566972758106
157,0.7438959243467713,2.636149022046346,0.7193216151258492,2.6151496413685504,-2.61514964136855,-1.8712537170217787,-1.8958280262427007,-1.8922530976995748
159,0.7442777164676753,2.6808725611446516,0.6951180729944461,2.6295835489344013,-2.6295835489344013,-1.885305832466726,-1.9344654759399553,-1.9365948446769763
