frequency,raw,smoothed,error,error_smoothed,equalization,parametric_eq,fixed_band_eq,equalized_raw,equalized_smoothed,target
20.00,9.72,9.72,2.20,2.20,-2.21,-1.10,-0.78,7.52,7.51,7.52
20.20,9.71,9.72,2.19,2.20,-2.20,-1.10,-0.80,7.51,7.52,7.52
20.40,9.71,9.71,2.19,2.19,-2.19,-1.10,-0.82,7.52,7.52,7.52
20.61,9.70,9.70,2.19,2.19,-2.18,-1.09,-0.85,7.52,7.52,7.52
20.81,9.69,9.69,2.18,2.17,-2.17,-1.09,-0.88,7.53,7.52,7.52
21.02,9.67,9.67,2.16,2.16,-2.15,-1.09,-0.90,7.52,7.52,7.52
21.23,9.65,9.65,2.14,2.14,-2.14,-1.09,-0.93,7.51,7.52,7.52
21.44,9.63,9.63,2.12,2.12,-2.12,-1.09,-0.96,7.51,7.51,7.51
21.66,9.61,9.61,2.10,2.10,-2.10,-1.09,-0.99,7.51,7.51,7.51
21.87,9.59,9.59,2.08,2.08,-2.08,-1.09,-1.02,7.51,7.51,7.51
22.09,9.57,9.57,2.06,2.06,-2.06,-1.09,-1.05,7.51,7.51,7.51
22.31,9.55,9.55,2.04,2.04,-2.04,-1.09,-1.08,7.51,7.51,7.51
22.54,9.53,9.53,2.02,2.02,-2.01,-1.09,-1.11,7.52,7.52,7.51
22.76,9.50,9.50,1.99,1.99,-1.99,-1.09,-1.14,7.51,7.51,7.51
22.99,9.47,9.47,1.96,1.97,-1.96,-1.09,-1.18,7.51,7.51,7.51
23.22,9.44,9.44,1.94,1.94,-1.93,-1.09,-1.21,7.51,7.51,7.51
23.45,9.41,9.41,1.91,1.91,-1.90,-1.09,-1.25,7.51,7.51,7.51
23.69,9.38,9.38,1.88,1.88,-1.88,-1.09,-1.28,7.51,7.51,7.51
23.92,9.35,9.35,1.85,1.85,-1.85,-1.09,-1.32,7.50,7.50,7.50
24.16,9.33,9.33,1.83,1.83,-1.83,-1.09,-1.36,7.50,7.50,7.50
24.40,9.30,9.31,1.80,1.80,-1.81,-1.09,-1.40,7.49,7.49,7.50
24.65,9.29,9.29,1.79,1.79,-1.80,-1.09,-1.43,7.49,7.49,7.50
24.89,9.28,9.28,1.78,1.78,-1.79,-1.09,-1.47,7.49,7.49,7.50
25.14,9.28,9.28,1.78,1.78,-1.79,-1.09,-1.51,7.50,7.50,7.50
25.39,9.28,9.28,1.79,1.79,-1.78,-1.09,-1.55,7.50,7.50,7.50
25.65,9.28,9.28,1.79,1.79,-1.78,-1.09,-1.59,7.50,7.51,7.50
25.91,9.28,9.28,1.79,1.79,-1.78,-1.08,-1.63,7.51,7.50,7.49
26.16,9.27,9.27,1.78,1.78,-1.77,-1.08,-1.67,7.50,7.50,7.49
26.43,9.26,9.26,1.77,1.77,-1.77,-1.08,-1.70,7.49,7.49,7.49
26.69,9.25,9.26,1.76,1.77,-1.77,-1.08,-1.74,7.48,7.48,7.49
26.96,9.25,9.25,1.77,1.76,-1.78,-1.08,-1.78,7.48,7.48,7.49
27.23,9.25,9.25,1.77,1.77,-1.78,-1.08,-1.81,7.47,7.47,7.49
27.50,9.25,9.26,1.77,1.78,-1.79,-1.08,-1.85,7.47,7.47,7.48
27.77,9.27,9.27,1.79,1.79,-1.79,-1.08,-1.88,7.48,7.48,7.48
28.05,9.28,9.28,1.80,1.80,-1.80,-1.08,-1.91,7.49,7.48,7.48
28.33,9.28,9.29,1.81,1.81,-1.80,-1.08,-1.94,7.49,7.49,7.48
28.62,9.28,9.28,1.81,1.80,-1.79,-1.08,-1.97,7.49,7.49,7.48
28.90,9.26,9.26,1.79,1.79,-1.77,-1.08,-1.99,7.49,7.49,7.47
29.19,9.23,9.23,1.76,1.76,-1.75,-1.08,-2.01,7.48,7.48,7.47
29.48,9.19,9.19,1.72,1.72,-1.72,-1.07,-2.03,7.48,7.47,7.47
29.78,9.14,9.14,1.68,1.68,-1.68,-1.07,-2.05,7.46,7.46,7.47
30.08,9.09,9.10,1.63,1.63,-1.64,-1.07,-2.06,7.45,7.45,7.46
30.38,9.05,9.05,1.59,1.59,-1.60,-1.07,-2.07,7.45,7.45,7.46
30.68,9.01,9.02,1.56,1.56,-1.57,-1.07,-2.08,7.44,7.45,7.46
30.99,8.98,8.99,1.53,1.53,-1.54,-1.07,-2.08,7.45,7.45,7.45
31.30,8.96,8.96,1.51,1.51,-1.51,-1.07,-2.08,7.45,7.45,7.45
31.61,8.93,8.94,1.48,1.49,-1.49,-1.07,-2.08,7.45,7.45,7.45
31.93,8.91,8.91,1.47,1.47,-1.46,-1.06,-2.07,7.45,7.45,7.45
32.24,8.89,8.89,1.45,1.45,-1.44,-1.06,-2.06,7.45,7.45,7.44
32.57,8.86,8.86,1.42,1.42,-1.42,-1.06,-2.05,7.44,7.44,7.44
32.89,8.83,8.83,1.40,1.40,-1.40,-1.06,-2.03,7.44,7.44,7.43
33.22,8.80,8.80,1.37,1.37,-1.37,-1.06,-2.01,7.43,7.43,7.43
33.55,8.77,8.78,1.35,1.35,-1.35,-1.06,-1.99,7.42,7.43,7.43
33.89,8.75,8.75,1.33,1.33,-1.33,-1.05,-1.96,7.43,7.42,7.42
34.23,8.72,8.72,1.30,1.30,-1.30,-1.05,-1.94,7.42,7.42,7.42
34.57,8.69,8.70,1.28,1.28,-1.28,-1.05,-1.91,7.41,7.42,7.41
34.92,8.67,8.67,1.26,1.26,-1.26,-1.05,-1.88,7.41,7.41,7.41
35.27,8.64,8.65,1.24,1.24,-1.24,-1.05,-1.84,7.40,7.40,7.41
35.62,8.62,8.63,1.22,1.23,-1.23,-1.04,-1.81,7.40,7.40,7.40
35.97,8.61,8.61,1.22,1.21,-1.22,-1.04,-1.77,7.40,7.39,7.40
36.33,8.59,8.59,1.20,1.20,-1.21,-1.04,-1.73,7.38,7.38,7.39
36.70,8.58,8.59,1.20,1.20,-1.21,-1.04,-1.69,7.37,7.37,7.38
37.06,8.58,8.58,1.20,1.20,-1.21,-1.03,-1.65,7.37,7.37,7.38
37.43,8.58,8.58,1.21,1.21,-1.22,-1.03,-1.61,7.37,7.37,7.37
37.81,8.58,8.59,1.22,1.22,-1.21,-1.03,-1.57,7.37,7.37,7.37
38.19,8.58,8.58,1.22,1.22,-1.21,-1.03,-1.53,7.38,7.37,7.36
38.57,8.57,8.57,1.22,1.21,-1.19,-1.02,-1.48,7.38,7.37,7.35
38.95,8.54,8.54,1.20,1.20,-1.17,-1.02,-1.44,7.37,7.37,7.35
39.34,8.50,8.50,1.16,1.16,-1.15,-1.02,-1.40,7.35,7.35,7.34
39.74,8.45,8.45,1.12,1.12,-1.12,-1.01,-1.36,7.33,7.33,7.33
40.14,8.40,8.40,1.08,1.08,-1.09,-1.01,-1.32,7.31,7.31,7.33
40.54,8.35,8.36,1.04,1.04,-1.06,-1.00,-1.28,7.29,7.30,7.32
40.94,8.32,8.32,1.01,1.02,-1.03,-1.00,-1.24,7.29,7.29,7.31
41.35,8.30,8.30,1.00,1.00,-1.01,-1.00,-1.20,7.30,7.29,7.30
41.76,8.28,8.28,0.99,0.99,-0.99,-0.99,-1.16,7.29,7.29,7.29
42.18,8.26,8.26,0.98,0.98,-0.98,-0.99,-1.12,7.28,7.28,7.28
42.60,8.24,8.25,0.97,0.97,-0.97,-0.98,-1.08,7.27,7.28,7.27
43.03,8.23,8.23,0.97,0.97,-0.97,-0.98,-1.04,7.27,7.26,7.26
43.46,8.21,8.21,0.96,0.96,-0.96,-0.97,-1.00,7.25,7.25,7.25
43.90,8.19,8.19,0.95,0.95,-0.95,-0.96,-0.97,7.24,7.24,7.24
44.33,8.17,8.17,0.94,0.94,-0.94,-0.96,-0.93,7.23,7.23,7.23
44.78,8.15,8.15,0.93,0.93,-0.92,-0.95,-0.90,7.23,7.23,7.22
45.23,8.12,8.12,0.91,0.91,-0.90,-0.94,-0.86,7.22,7.22,7.21
45.68,8.08,8.08,0.89,0.89,-0.88,-0.94,-0.83,7.20,7.21,7.20
46.13,8.04,8.04,0.86,0.86,-0.85,-0.93,-0.79,7.19,7.19,7.19
46.60,7.99,7.99,0.82,0.82,-0.82,-0.92,-0.76,7.17,7.17,7.17
47.06,7.94,7.94,0.78,0.78,-0.79,-0.91,-0.73,7.16,7.16,7.16
47.53,7.89,7.89,0.75,0.75,-0.75,-0.90,-0.70,7.14,7.14,7.15
48.01,7.84,7.84,0.71,0.71,-0.72,-0.90,-0.67,7.12,7.12,7.13
48.49,7.80,7.80,0.69,0.69,-0.69,-0.89,-0.64,7.11,7.11,7.12
48.97,7.76,7.76,0.66,0.66,-0.67,-0.88,-0.61,7.09,7.09,7.10
49.46,7.73,7.73,0.65,0.65,-0.65,-0.86,-0.59,7.08,7.08,7.08
49.96,7.70,7.70,0.63,0.63,-0.63,-0.85,-0.56,7.07,7.07,7.07
50.46,7.67,7.67,0.62,0.62,-0.62,-0.84,-0.53,7.05,7.05,7.05
50.96,7.64,7.64,0.61,0.61,-0.61,-0.83,-0.51,7.04,7.04,7.03
51.47,7.61,7.61,0.60,0.60,-0.60,-0.82,-0.48,7.02,7.02,7.02
51.99,7.58,7.58,0.59,0.59,-0.58,-0.80,-0.46,7.00,7.00,7.00
52.51,7.55,7.55,0.58,0.57,-0.57,-0.79,-0.44,6.99,6.98,6.98
53.03,7.51,7.51,0.55,0.56,-0.55,-0.77,-0.41,6.96,6.96,6.96
53.56,7.47,7.47,0.54,0.54,-0.53,-0.76,-0.39,6.94,6.94,6.94
54.10,7.43,7.43,0.52,0.52,-0.52,-0.74,-0.37,6.92,6.92,6.92
54.64,7.39,7.39,0.50,0.50,-0.50,-0.72,-0.35,6.89,6.89,6.89
55.18,7.35,7.35,0.48,0.48,-0.49,-0.71,-0.34,6.87,6.87,6.87
55.74,7.31,7.32,0.46,0.47,-0.47,-0.69,-0.32,6.84,6.85,6.85
56.29,7.28,7.28,0.46,0.46,-0.46,-0.67,-0.30,6.82,6.82,6.82
56.86,7.25,7.25,0.45,0.45,-0.45,-0.65,-0.29,6.80,6.80,6.80
57.42,7.21,7.22,0.44,0.44,-0.44,-0.63,-0.27,6.77,6.77,6.77
58.00,7.18,7.18,0.44,0.44,-0.44,-0.61,-0.26,6.75,6.75,6.75
58.58,7.15,7.15,0.43,0.43,-0.43,-0.59,-0.25,6.72,6.72,6.72
59.16,7.12,7.12,0.43,0.43,-0.42,-0.56,-0.24,6.70,6.70,6.69
59.76,7.08,7.08,0.42,0.42,-0.42,-0.54,-0.23,6.67,6.67,6.66
60.35,7.04,7.04,0.41,0.41,-0.41,-0.52,-0.22,6.63,6.63,6.63
60.96,7.00,7.00,0.40,0.40,-0.40,-0.50,-0.21,6.60,6.60,6.60
61.57,6.96,6.96,0.39,0.39,-0.39,-0.48,-0.21,6.57,6.57,6.57
62.18,6.92,6.92,0.38,0.38,-0.38,-0.46,-0.21,6.54,6.54,6.54
62.80,6.87,6.88,0.37,0.37,-0.37,-0.44,-0.20,6.50,6.51,6.51
63.43,6.83,6.83,0.36,0.36,-0.36,-0.42,-0.20,6.47,6.47,6.47
64.07,6.78,6.79,0.35,0.35,-0.35,-0.40,-0.20,6.43,6.43,6.44
64.71,6.74,6.74,0.34,0.34,-0.35,-0.39,-0.20,6.40,6.40,6.40
65.35,6.70,6.70,0.34,0.34,-0.34,-0.37,-0.21,6.36,6.36,6.36
66.01,6.66,6.66,0.34,0.34,-0.34,-0.36,-0.21,6.32,6.32,6.32
66.67,6.62,6.63,0.34,0.34,-0.34,-0.35,-0.22,6.28,6.29,6.29
67.33,6.59,6.59,0.35,0.34,-0.34,-0.34,-0.22,6.25,6.25,6.25
68.01,6.55,6.55,0.35,0.35,-0.35,-0.34,-0.23,6.21,6.21,6.20
68.69,6.51,6.51,0.35,0.35,-0.35,-0.33,-0.24,6.16,6.16,6.16
69.37,6.47,6.47,0.35,0.35,-0.35,-0.33,-0.25,6.12,6.12,6.12
70.07,6.43,6.43,0.36,0.36,-0.36,-0.34,-0.26,6.07,6.08,6.08
70.77,6.39,6.39,0.36,0.36,-0.36,-0.34,-0.27,6.03,6.03,6.03
71.48,6.35,6.35,0.37,0.37,-0.37,-0.35,-0.28,5.99,5.98,5.98
72.19,6.30,6.31,0.37,0.37,-0.37,-0.36,-0.30,5.93,5.94,5.94
72.91,6.26,6.26,0.37,0.37,-0.37,-0.37,-0.31,5.89,5.89,5.89
73.64,6.21,6.21,0.37,0.37,-0.37,-0.38,-0.33,5.84,5.84,5.84
74.38,6.16,6.16,0.37,0.38,-0.37,-0.40,-0.34,5.79,5.79,5.79
75.12,6.11,6.11,0.37,0.38,-0.37,-0.41,-0.36,5.74,5.74,5.74
75.87,6.06,6.06,0.38,0.37,-0.37,-0.43,-0.38,5.69,5.69,5.69
76.63,6.00,6.00,0.37,0.37,-0.37,-0.45,-0.40,5.63,5.64,5.63
77.40,5.94,5.95,0.36,0.37,-0.37,-0.46,-0.42,5.57,5.58,5.58
78.17,5.89,5.89,0.37,0.37,-0.37,-0.48,-0.43,5.52,5.52,5.52
78.95,5.83,5.83,0.37,0.37,-0.37,-0.50,-0.46,5.46,5.46,5.47
79.74,5.78,5.78,0.37,0.37,-0.38,-0.52,-0.48,5.40,5.40,5.41
80.54,5.73,5.73,0.38,0.38,-0.39,-0.54,-0.50,5.34,5.34,5.35
81.35,5.69,5.69,0.40,0.40,-0.40,-0.55,-0.52,5.29,5.29,5.29
82.16,5.64,5.65,0.41,0.41,-0.42,-0.57,-0.54,5.23,5.23,5.23
82.98,5.60,5.60,0.43,0.43,-0.43,-0.59,-0.57,5.17,5.17,5.17
83.81,5.55,5.55,0.44,0.44,-0.44,-0.60,-0.59,5.11,5.11,5.11
84.65,5.50,5.50,0.46,0.46,-0.45,-0.62,-0.61,5.06,5.05,5.05
85.50,5.44,5.44,0.46,0.46,-0.45,-0.63,-0.64,4.99,4.99,4.98
86.35,5.37,5.37,0.45,0.46,-0.45,-0.65,-0.66,4.92,4.92,4.92
87.22,5.30,5.30,0.45,0.45,-0.45,-0.66,-0.69,4.86,4.85,4.85
88.09,5.22,5.23,0.44,0.44,-0.44,-0.68,-0.72,4.78,4.78,4.79
88.97,5.15,5.15,0.43,0.43,-0.43,-0.69,-0.75,4.72,4.72,4.72
89.86,5.07,5.08,0.42,0.42,-0.42,-0.70,-0.77,4.65,4.65,4.65
90.76,5.00,5.00,0.42,0.42,-0.41,-0.71,-0.80,4.59,4.59,4.58
91.66,4.93,4.93,0.42,0.41,-0.41,-0.73,-0.83,4.53,4.52,4.52
92.58,4.85,4.85,0.41,0.41,-0.41,-0.74,-0.86,4.45,4.45,4.45
93.51,4.78,4.78,0.41,0.41,-0.41,-0.75,-0.89,4.37,4.37,4.38
94.44,4.72,4.72,0.42,0.42,-0.43,-0.76,-0.92,4.30,4.30,4.31
95.39,4.67,4.67,0.44,0.44,-0.45,-0.77,-0.95,4.22,4.22,4.24
96.34,4.63,4.64,0.47,0.47,-0.48,-0.78,-0.98,4.15,4.16,4.17
97.30,4.61,4.61,0.52,0.52,-0.52,-0.79,-1.01,4.09,4.09,4.09
98.28,4.59,4.59,0.57,0.57,-0.57,-0.80,-1.05,4.02,4.02,4.02
99.26,4.58,4.58,0.63,0.64,-0.63,-0.81,-1.08,3.95,3.95,3.95
100.25,4.58,4.58,0.71,0.70,-0.70,-0.82,-1.11,3.89,3.88,3.88
101.25,4.57,4.57,0.77,0.77,-0.77,-0.83,-1.14,3.81,3.81,3.80
102.27,4.57,4.57,0.84,0.84,-0.84,-0.84,-1.17,3.74,3.73,3.73
103.29,4.56,4.57,0.90,0.91,-0.91,-0.85,-1.21,3.66,3.66,3.66
104.32,4.56,4.56,0.98,0.98,-0.98,-0.86,-1.24,3.59,3.59,3.59
105.37,4.56,4.56,1.05,1.05,-1.05,-0.87,-1.27,3.52,3.51,3.51
106.42,4.55,4.55,1.11,1.11,-1.12,-0.88,-1.30,3.44,3.44,3.44
107.48,4.54,4.54,1.18,1.18,-1.18,-0.89,-1.33,3.36,3.36,3.37
108.56,4.53,4.53,1.24,1.24,-1.24,-0.91,-1.36,3.29,3.29,3.29
109.64,4.52,4.52,1.30,1.30,-1.30,-0.92,-1.39,3.22,3.22,3.22
110.74,4.50,4.50,1.35,1.36,-1.35,-0.93,-1.42,3.15,3.15,3.15
111.85,4.48,4.48,1.41,1.40,-1.40,-0.94,-1.45,3.09,3.08,3.08
112.97,4.44,4.45,1.44,1.44,-1.43,-0.96,-1.47,3.01,3.01,3.00
114.10,4.40,4.40,1.47,1.47,-1.46,-0.97,-1.50,2.94,2.94,2.93
115.24,4.35,4.35,1.49,1.49,-1.48,-0.98,-1.52,2.87,2.87,2.86
116.39,4.29,4.29,1.50,1.50,-1.50,-1.00,-1.54,2.79,2.79,2.79
117.55,4.23,4.23,1.51,1.51,-1.52,-1.01,-1.56,2.71,2.71,2.72
118.73,4.17,4.17,1.52,1.52,-1.53,-1.03,-1.58,2.64,2.64,2.65
119.92,4.11,4.12,1.53,1.54,-1.55,-1.05,-1.59,2.56,2.57,2.58
121.12,4.07,4.07,1.56,1.56,-1.57,-1.06,-1.60,2.50,2.50,2.51
122.33,4.03,4.03,1.59,1.59,-1.59,-1.08,-1.61,2.44,2.44,2.44
123.55,3.99,4.00,1.62,1.62,-1.62,-1.10,-1.62,2.37,2.38,2.38
124.79,3.96,3.96,1.65,1.65,-1.64,-1.12,-1.63,2.32,2.32,2.31
126.03,3.91,3.92,1.67,1.67,-1.66,-1.14,-1.63,2.25,2.25,2.24
127.29,3.87,3.87,1.70,1.69,-1.68,-1.16,-1.63,2.19,2.18,2.18
128.57,3.81,3.82,1.70,1.70,-1.70,-1.19,-1.63,2.11,2.12,2.11
129.85,3.76,3.76,1.71,1.71,-1.71,-1.21,-1.63,2.05,2.05,2.05
131.15,3.70,3.70,1.72,1.72,-1.72,-1.23,-1.63,1.98,1.98,1.99
132.46,3.64,3.64,1.72,1.72,-1.72,-1.26,-1.62,1.92,1.92,1.92
133.79,3.58,3.58,1.72,1.72,-1.72,-1.28,-1.61,1.86,1.86,1.86
135.12,3.52,3.52,1.72,1.72,-1.72,-1.31,-1.60,1.80,1.80,1.80
136.48,3.46,3.46,1.72,1.72,-1.72,-1.33,-1.59,1.74,1.74,1.74
137.84,3.40,3.40,1.72,1.72,-1.72,-1.36,-1.57,1.68,1.68,1.68
139.22,3.34,3.34,1.72,1.72,-1.72,-1.39,-1.56,1.63,1.63,1.63
140.61,3.28,3.28,1.71,1.71,-1.71,-1.41,-1.54,1.57,1.57,1.57
142.02,3.22,3.22,1.71,1.71,-1.71,-1.44,-1.52,1.52,1.52,1.51
143.44,3.16,3.16,1.70,1.70,-1.70,-1.47,-1.51,1.46,1.46,1.46
144.87,3.10,3.10,1.70,1.70,-1.69,-1.50,-1.49,1.41,1.41,1.41
146.32,3.04,3.04,1.69,1.69,-1.69,-1.52,-1.47,1.36,1.35,1.35
147.78,2.98,2.98,1.68,1.68,-1.68,-1.55,-1.45,1.30,1.30,1.30
149.26,2.91,2.92,1.66,1.67,-1.67,-1.57,-1.43,1.24,1.25,1.25
150.75,2.86,2.86,1.66,1.66,-1.67,-1.60,-1.41,1.19,1.19,1.20
152.26,2.81,2.81,1.66,1.66,-1.66,-1.62,-1.39,1.15,1.15,1.15
153.78,2.76,2.76,1.66,1.66,-1.66,-1.65,-1.37,1.10,1.10,1.11
155.32,2.71,2.71,1.65,1.65,-1.65,-1.67,-1.35,1.06,1.06,1.06
156.88,2.66,2.66,1.65,1.65,-1.64,-1.69,-1.33,1.02,1.02,1.01
158.44,2.61,2.61,1.64,1.64,-1.63,-1.71,-1.31,0.98,0.98,0.97
160.03,2.55,2.55,1.63,1.63,-1.62,-1.72,-1.29,0.93,0.93,0.93
161.63,2.49,2.49,1.62,1.61,-1.61,-1.74,-1.27,0.89,0.88,0.87
163.24,2.42,2.42,1.59,1.59,-1.59,-1.75,-1.26,0.83,0.84,0.83
164.88,2.35,2.36,1.56,1.57,-1.57,-1.76,-1.24,0.78,0.79,0.79
166.53,2.30,2.30,1.55,1.55,-1.55,-1.76,-1.22,0.75,0.74,0.75
168.19,2.24,2.25,1.53,1.53,-1.54,-1.77,-1.21,0.70,0.71,0.71
169.87,2.20,2.20,1.53,1.53,-1.53,-1.77,-1.20,0.67,0.67,0.68
171.57,2.16,2.16,1.52,1.52,-1.53,-1.76,-1.18,0.64,0.63,0.64
173.29,2.12,2.13,1.52,1.52,-1.53,-1.76,-1.17,0.60,0.60,0.60
175.02,2.09,2.09,1.52,1.52,-1.53,-1.75,-1.16,0.56,0.57,0.57
176.77,2.07,2.07,1.54,1.53,-1.53,-1.74,-1.15,0.54,0.53,0.54
178.54,2.04,2.05,1.54,1.54,-1.54,-1.72,-1.14,0.50,0.51,0.50
180.32,2.02,2.02,1.55,1.55,-1.54,-1.70,-1.13,0.48,0.48,0.47
182.13,1.99,1.99,1.55,1.55,-1.54,-1.68,-1.13,0.45,0.45,0.44
183.95,1.95,1.95,1.54,1.54,-1.54,-1.65,-1.12,0.42,0.42,0.41
185.79,1.91,1.91,1.53,1.53,-1.52,-1.62,-1.11,0.39,0.39,0.38
187.65,1.86,1.86,1.51,1.51,-1.51,-1.60,-1.11,0.35,0.35,0.35
189.52,1.81,1.81,1.49,1.49,-1.49,-1.56,-1.11,0.32,0.33,0.33
191.42,1.76,1.76,1.46,1.46,-1.46,-1.53,-1.10,0.30,0.30,0.30
193.33,1.71,1.71,1.44,1.44,-1.44,-1.49,-1.10,0.27,0.27,0.27
195.27,1.65,1.66,1.40,1.41,-1.41,-1.45,-1.10,0.24,0.25,0.25
197.22,1.60,1.60,1.38,1.38,-1.38,-1.41,-1.10,0.22,0.22,0.22
199.19,1.55,1.55,1.35,1.35,-1.35,-1.37,-1.10,0.20,0.20,0.20
201.18,1.49,1.50,1.31,1.32,-1.32,-1.33,-1.10,0.17,0.18,0.18
203.19,1.44,1.44,1.29,1.29,-1.29,-1.28,-1.10,0.16,0.16,0.16
205.23,1.39,1.39,1.26,1.26,-1.25,-1.24,-1.10,0.14,0.14,0.13
207.28,1.33,1.34,1.22,1.22,-1.22,-1.20,-1.10,0.11,0.11,0.11
209.35,1.28,1.28,1.19,1.19,-1.19,-1.15,-1.10,0.10,0.09,0.09
211.44,1.22,1.23,1.15,1.15,-1.15,-1.10,-1.10,0.07,0.07,0.07
213.56,1.17,1.17,1.12,1.12,-1.12,-1.06,-1.10,0.05,0.05,0.06
215.69,1.12,1.12,1.09,1.08,-1.08,-1.01,-1.10,0.04,0.04,0.04
217.85,1.06,1.07,1.04,1.05,-1.04,-0.97,-1.10,0.02,0.02,0.02
220.03,1.01,1.01,1.01,1.01,-1.01,-0.92,-1.10,0.01,0.00,0.00
222.23,0.95,0.95,0.97,0.97,-0.97,-0.88,-1.10,-0.01,-0.01,-0.01
224.45,0.90,0.90,0.93,0.93,-0.93,-0.83,-1.09,-0.03,-0.03,-0.03
226.70,0.84,0.85,0.89,0.89,-0.89,-0.79,-1.09,-0.05,-0.05,-0.05
228.96,0.79,0.79,0.85,0.85,-0.86,-0.75,-1.08,-0.06,-0.06,-0.06
231.25,0.74,0.74,0.82,0.82,-0.82,-0.70,-1.08,-0.08,-0.08,-0.08
233.57,0.69,0.69,0.78,0.78,-0.79,-0.66,-1.07,-0.09,-0.10,-0.09
235.90,0.64,0.65,0.76,0.76,-0.76,-0.62,-1.06,-0.11,-0.11,-0.11
238.26,0.60,0.60,0.73,0.73,-0.73,-0.58,-1.05,-0.13,-0.13,-0.13
240.64,0.56,0.56,0.70,0.70,-0.70,-0.54,-1.03,-0.14,-0.14,-0.14
243.05,0.52,0.52,0.67,0.67,-0.68,-0.50,-1.02,-0.15,-0.15,-0.15
245.48,0.48,0.49,0.65,0.65,-0.65,-0.46,-1.00,-0.17,-0.16,-0.16
247.93,0.45,0.45,0.63,0.62,-0.62,-0.42,-0.98,-0.17,-0.17,-0.17
250.41,0.41,0.41,0.60,0.60,-0.59,-0.38,-0.96,-0.18,-0.18,-0.18
252.92,0.37,0.37,0.57,0.57,-0.56,-0.34,-0.94,-0.19,-0.19,-0.19
255.45,0.33,0.33,0.54,0.53,-0.53,-0.30,-0.91,-0.20,-0.20,-0.21
258.00,0.28,0.28,0.50,0.50,-0.50,-0.27,-0.88,-0.21,-0.21,-0.21
260.58,0.23,0.24,0.46,0.46,-0.46,-0.23,-0.85,-0.23,-0.22,-0.22
263.19,0.19,0.19,0.43,0.42,-0.42,-0.20,-0.82,-0.23,-0.24,-0.23
265.82,0.14,0.14,0.39,0.38,-0.39,-0.16,-0.78,-0.24,-0.25,-0.24
268.48,0.09,0.09,0.34,0.35,-0.35,-0.13,-0.75,-0.25,-0.25,-0.25
271.16,0.04,0.05,0.30,0.31,-0.31,-0.09,-0.71,-0.26,-0.26,-0.26
273.87,0.00,-0.00,0.27,0.27,-0.27,-0.06,-0.67,-0.26,-0.27,-0.27
276.61,-0.05,-0.05,0.23,0.23,-0.23,-0.03,-0.62,-0.27,-0.27,-0.27
279.38,-0.10,-0.10,0.19,0.19,-0.18,0.01,-0.58,-0.28,-0.28,-0.28
282.17,-0.15,-0.14,0.14,0.14,-0.14,0.04,-0.53,-0.29,-0.28,-0.29
284.99,-0.19,-0.19,0.10,0.10,-0.10,0.07,-0.49,-0.28,-0.29,-0.29
287.84,-0.24,-0.24,0.05,0.05,-0.05,0.10,-0.44,-0.29,-0.29,-0.28
290.72,-0.29,-0.29,0.00,0.00,-0.00,0.14,-0.39,-0.29,-0.29,-0.29
293.63,-0.34,-0.34,-0.04,-0.05,0.04,0.17,-0.34,-0.29,-0.29,-0.30
296.57,-0.39,-0.38,-0.10,-0.09,0.09,0.20,-0.28,-0.29,-0.29,-0.29
299.53,-0.43,-0.43,-0.14,-0.14,0.14,0.23,-0.23,-0.29,-0.29,-0.29
302.53,-0.48,-0.48,-0.18,-0.19,0.18,0.26,-0.18,-0.29,-0.29,-0.29
305.55,-0.52,-0.52,-0.23,-0.23,0.23,0.29,-0.12,-0.29,-0.29,-0.29
308.61,-0.57,-0.56,-0.27,-0.27,0.27,0.32,-0.06,-0.29,-0.29,-0.29
311.69,-0.61,-0.61,-0.32,-0.32,0.32,0.35,-0.01,-0.29,-0.29,-0.29
314.81,-0.65,-0.65,-0.35,-0.36,0.36,0.38,0.05,-0.29,-0.29,-0.29
317.96,-0.69,-0.69,-0.40,-0.40,0.40,0.41,0.11,-0.29,-0.29,-0.29
321.14,-0.73,-0.73,-0.44,-0.44,0.44,0.44,0.17,-0.29,-0.29,-0.29
324.35,-0.77,-0.77,-0.48,-0.48,0.48,0.48,0.23,-0.29,-0.29,-0.29
327.59,-0.81,-0.81,-0.53,-0.52,0.52,0.51,0.29,-0.28,-0.28,-0.28
330.87,-0.85,-0.85,-0.56,-0.57,0.57,0.54,0.35,-0.28,-0.28,-0.28
334.18,-0.89,-0.89,-0.61,-0.61,0.61,0.57,0.41,-0.28,-0.28,-0.28
337.52,-0.93,-0.93,-0.65,-0.65,0.65,0.60,0.47,-0.28,-0.28,-0.28
340.90,-0.97,-0.97,-0.69,-0.69,0.69,0.63,0.54,-0.28,-0.28,-0.28
344.30,-1.01,-1.00,-0.74,-0.73,0.73,0.66,0.60,-0.28,-0.27,-0.27
347.75,-1.04,-1.04,-0.78,-0.77,0.77,0.69,0.67,-0.27,-0.27,-0.26
351.23,-1.07,-1.07,-0.80,-0.81,0.81,0.72,0.73,-0.26,-0.26,-0.27
354.74,-1.10,-1.10,-0.85,-0.84,0.84,0.75,0.80,-0.25,-0.26,-0.25
358.28,-1.13,-1.13,-0.88,-0.88,0.88,0.79,0.86,-0.25,-0.25,-0.25
361.87,-1.16,-1.15,-0.91,-0.91,0.91,0.82,0.93,-0.25,-0.24,-0.24
365.49,-1.18,-1.18,-0.94,-0.94,0.94,0.85,1.00,-0.23,-0.24,-0.24
369.14,-1.21,-1.21,-0.97,-0.97,0.98,0.88,1.07,-0.23,-0.23,-0.24
372.83,-1.24,-1.24,-1.02,-1.01,1.01,0.91,1.14,-0.23,-0.23,-0.22
376.56,-1.27,-1.27,-1.04,-1.04,1.04,0.95,1.21,-0.22,-0.22,-0.22
380.33,-1.30,-1.30,-1.08,-1.08,1.08,0.98,1.27,-0.22,-0.22,-0.22
384.13,-1.33,-1.33,-1.11,-1.11,1.11,1.01,1.34,-0.21,-0.21,-0.22
387.97,-1.36,-1.36,-1.15,-1.15,1.15,1.05,1.42,-0.21,-0.21,-0.21
391.85,-1.39,-1.39,-1.19,-1.19,1.19,1.08,1.49,-0.20,-0.20,-0.19
395.77,-1.42,-1.42,-1.22,-1.23,1.22,1.12,1.56,-0.19,-0.19,-0.20
399.73,-1.45,-1.45,-1.26,-1.26,1.26,1.15,1.63,-0.19,-0.19,-0.19
403.72,-1.48,-1.48,-1.30,-1.29,1.29,1.19,1.70,-0.18,-0.18,-0.18
407.76,-1.51,-1.51,-1.33,-1.33,1.33,1.22,1.77,-0.18,-0.18,-0.18
411.84,-1.54,-1.54,-1.36,-1.36,1.36,1.26,1.84,-0.17,-0.17,-0.17
415.96,-1.57,-1.56,-1.40,-1.40,1.40,1.29,1.91,-0.17,-0.17,-0.16
420.12,-1.59,-1.59,-1.42,-1.43,1.43,1.33,1.98,-0.16,-0.16,-0.17
424.32,-1.62,-1.62,-1.46,-1.46,1.46,1.37,2.04,-0.16,-0.16,-0.16
428.56,-1.64,-1.64,-1.49,-1.49,1.49,1.40,2.11,-0.15,-0.15,-0.15
432.85,-1.67,-1.67,-1.53,-1.52,1.52,1.44,2.17,-0.15,-0.14,-0.14
437.18,-1.69,-1.69,-1.54,-1.55,1.55,1.48,2.24,-0.13,-0.14,-0.14
441.55,-1.72,-1.72,-1.58,-1.58,1.59,1.51,2.30,-0.13,-0.13,-0.13
445.96,-1.74,-1.74,-1.61,-1.62,1.62,1.55,2.36,-0.12,-0.12,-0.12
450.42,-1.77,-1.76,-1.66,-1.66,1.65,1.59,2.41,-0.11,-0.11,-0.11
454.93,-1.79,-1.79,-1.69,-1.69,1.68,1.63,2.46,-0.10,-0.10,-0.10
459.48,-1.81,-1.81,-1.72,-1.72,1.72,1.67,2.51,-0.09,-0.09,-0.09
464.07,-1.84,-1.83,-1.75,-1.75,1.75,1.70,2.56,-0.09,-0.09,-0.09
468.71,-1.86,-1.86,-1.78,-1.78,1.78,1.74,2.60,-0.08,-0.08,-0.08
473.40,-1.88,-1.88,-1.81,-1.81,1.80,1.78,2.64,-0.07,-0.07,-0.07
478.13,-1.90,-1.90,-1.83,-1.83,1.83,1.82,2.67,-0.07,-0.06,-0.06
482.91,-1.92,-1.91,-1.86,-1.86,1.86,1.86,2.70,-0.06,-0.05,-0.05
487.74,-1.93,-1.93,-1.88,-1.89,1.89,1.89,2.72,-0.04,-0.04,-0.04
492.62,-1.95,-1.95,-1.91,-1.91,1.92,1.93,2.74,-0.03,-0.03,-0.04
497.55,-1.97,-1.97,-1.94,-1.94,1.95,1.97,2.75,-0.02,-0.02,-0.03
502.52,-1.99,-1.99,-1.97,-1.97,1.98,2.01,2.76,-0.01,-0.01,-0.02
507.55,-2.01,-2.01,-2.01,-2.01,2.00,2.04,2.77,-0.00,-0.00,0.00
512.62,-2.03,-2.03,-2.04,-2.04,2.03,2.08,2.77,0.01,0.01,0.01
517.75,-2.05,-2.05,-2.07,-2.07,2.06,2.12,2.76,0.02,0.02,0.02
