frequency,raw,error,smoothed,error_smoothed,equalization,parametric_eq,equalized_raw,equalized_smoothed,target
20,-38.63,-36.28,-38.64,-36.29,6.00,2.68,-32.63,-32.64,-2.35
21,-38.15,-35.80,-38.04,-35.69,6.00,3.07,-32.15,-32.04,-2.35
22,-37.34,-34.99,-37.45,-35.10,6.00,3.50,-31.34,-31.45,-2.35
23,-36.83,-34.48,-36.88,-34.53,6.00,3.97,-30.83,-30.88,-2.35
24,-36.31,-33.96,-36.32,-33.97,6.00,4.46,-30.31,-30.32,-2.35
25,-35.79,-33.44,-35.77,-33.42,6.00,4.97,-29.79,-29.77,-2.35
26,-35.31,-32.96,-35.23,-32.88,6.00,5.48,-29.31,-29.23,-2.35
27,-34.68,-32.33,-34.71,-32.35,6.00,5.96,-28.68,-28.71,-2.35
28,-34.19,-31.84,-34.20,-31.84,6.00,6.40,-28.19,-28.20,-2.35
29,-33.68,-31.33,-33.70,-31.35,6.00,6.76,-27.68,-27.70,-2.35
30,-33.15,-30.80,-33.23,-30.87,6.00,7.02,-27.15,-27.23,-2.35
31,-32.72,-30.37,-32.76,-30.41,6.00,7.18,-26.72,-26.76,-2.35
32,-32.31,-29.96,-32.31,-29.96,6.00,7.23,-26.31,-26.31,-2.35
33,-32.01,-29.66,-31.87,-29.52,6.00,7.19,-26.01,-25.87,-2.35
34,-31.40,-29.05,-31.43,-29.08,6.00,7.08,-25.40,-25.43,-2.35
35,-31.03,-28.68,-31.01,-28.66,6.00,6.92,-25.03,-25.01,-2.35
36,-30.60,-28.25,-30.59,-28.24,6.00,6.73,-24.60,-24.59,-2.35
37,-30.12,-27.77,-30.18,-27.83,6.00,6.54,-24.12,-24.18,-2.35
38,-29.77,-27.42,-29.78,-27.43,6.00,6.36,-23.77,-23.78,-2.35
39,-29.36,-27.01,-29.39,-27.04,6.00,6.18,-23.36,-23.39,-2.35
40,-29.07,-26.72,-29.01,-26.66,6.00,6.03,-23.07,-23.01,-2.35
41,-28.60,-26.25,-28.64,-26.28,6.00,5.90,-22.60,-22.64,-2.35
42,-28.27,-25.92,-28.27,-25.92,6.00,5.80,-22.27,-22.27,-2.35
43,-27.98,-25.63,-27.92,-25.56,6.00,5.72,-21.98,-21.92,-2.35
44,-27.51,-25.16,-27.57,-25.22,6.00,5.67,-21.51,-21.57,-2.35
45,-27.20,-24.85,-27.23,-24.87,6.00,5.63,-21.20,-21.23,-2.35
46,-26.94,-24.59,-26.89,-24.54,6.00,5.62,-20.94,-20.89,-2.35
47,-26.58,-24.23,-26.56,-24.21,6.00,5.63,-20.58,-20.56,-2.35
48,-26.15,-23.80,-26.23,-23.88,6.00,5.66,-20.15,-20.23,-2.35
49,-25.92,-23.57,-25.91,-23.56,6.00,5.70,-19.92,-19.91,-2.35
50,-25.61,-23.26,-25.60,-23.25,6.00,5.76,-19.61,-19.60,-2.35
51,-25.39,-23.04,-25.29,-22.94,6.00,5.82,-19.39,-19.29,-2.35
52,-25.00,-22.65,-24.99,-22.63,6.00,5.89,-19.00,-18.99,-2.35
53,-24.55,-22.20,-24.69,-22.34,6.00,5.97,-18.55,-18.69,-2.35
54,-24.38,-22.03,-24.40,-22.04,6.00,6.05,-18.38,-18.40,-2.35
55,-24.14,-21.79,-24.11,-21.76,6.00,6.12,-18.14,-18.11,-2.35
56,-23.86,-21.51,-23.83,-21.48,6.00,6.19,-17.86,-17.83,-2.35
57,-23.51,-21.16,-23.55,-21.20,6.00,6.26,-17.51,-17.55,-2.35
58,-23.32,-20.97,-23.28,-20.93,6.00,6.32,-17.32,-17.28,-2.35
59,-23.01,-20.66,-23.01,-20.66,6.00,6.37,-17.01,-17.01,-2.35
60,-22.77,-20.42,-22.74,-20.39,6.00,6.40,-16.77,-16.74,-2.35
61,-22.43,-20.08,-22.48,-20.13,6.00,6.42,-16.43,-16.48,-2.35
62,-22.18,-19.83,-22.22,-19.87,6.00,6.43,-16.18,-16.22,-2.35
63,-21.94,-19.59,-21.97,-19.61,6.00,6.43,-15.94,-15.97,-2.35
64,-21.78,-19.43,-21.71,-19.36,6.00,6.41,-15.78,-15.71,-2.35
65,-21.55,-19.20,-21.46,-19.11,6.00,6.39,-15.55,-15.46,-2.35
66,-21.12,-18.77,-21.22,-18.87,6.00,6.35,-15.12,-15.22,-2.35
67,-20.91,-18.56,-20.97,-18.62,6.00,6.30,-14.91,-14.97,-2.35
68,-20.79,-18.44,-20.74,-18.38,6.00,6.25,-14.79,-14.74,-2.35
69,-20.57,-18.22,-20.50,-18.15,6.00,6.19,-14.57,-14.50,-2.35
70,-20.19,-17.84,-20.26,-17.91,6.00,6.13,-14.19,-14.26,-2.35
71,-19.98,-17.63,-20.03,-17.68,6.00,6.07,-13.98,-14.03,-2.35
72,-19.84,-17.49,-19.80,-17.45,6.00,6.00,-13.84,-13.80,-2.35
73,-19.64,-17.29,-19.58,-17.23,6.00,5.94,-13.64,-13.58,-2.35
74,-19.35,-17.00,-19.36,-17.00,6.00,5.88,-13.35,-13.36,-2.35
75,-19.14,-16.79,-19.14,-16.79,6.00,5.82,-13.14,-13.14,-2.35
76,-18.86,-16.51,-18.92,-16.57,6.00,5.76,-12.86,-12.92,-2.35
77,-18.64,-16.29,-18.71,-16.36,6.00,5.71,-12.64,-12.71,-2.35
78,-18.57,-16.22,-18.51,-16.15,6.00,5.67,-12.57,-12.51,-2.35
79,-18.39,-16.04,-18.30,-15.95,6.00,5.63,-12.39,-12.30,-2.35
80,-18.08,-15.73,-18.11,-15.75,6.00,5.59,-12.08,-12.11,-2.35
81,-17.83,-15.48,-17.91,-15.56,6.00,5.56,-11.83,-11.91,-2.35
82,-17.63,-15.28,-17.72,-15.36,6.00,5.54,-11.63,-11.72,-2.35
83,-17.62,-15.27,-17.52,-15.17,6.00,5.52,-11.62,-11.52,-2.35
84,-17.41,-15.06,-17.32,-14.97,6.00,5.51,-11.41,-11.32,-2.35
85,-17.10,-14.75,-17.13,-14.78,6.00,5.50,-11.10,-11.13,-2.35
86,-16.87,-14.52,-16.93,-14.58,6.00,5.50,-10.87,-10.93,-2.35
87,-16.73,-14.38,-16.73,-14.38,6.00,5.50,-10.73,-10.73,-2.35
88,-16.55,-14.20,-16.53,-14.18,6.00,5.51,-10.55,-10.53,-2.35
89,-16.37,-14.02,-16.33,-13.98,6.00,5.53,-10.37,-10.33,-2.35
90,-16.12,-13.77,-16.13,-13.78,6.00,5.55,-10.12,-10.13,-2.35
91,-15.89,-13.54,-15.95,-13.59,6.00,5.58,-9.89,-9.95,-2.35
92,-15.72,-13.37,-15.76,-13.41,6.00,5.61,-9.72,-9.76,-2.35
93,-15.58,-13.23,-15.59,-13.23,6.00,5.64,-9.58,-9.59,-2.35
94,-15.45,-13.10,-15.42,-13.06,6.00,5.68,-9.45,-9.42,-2.35
95,-15.30,-12.95,-15.25,-12.90,6.00,5.72,-9.30,-9.25,-2.35
96,-15.08,-12.73,-15.09,-12.73,6.00,5.77,-9.08,-9.09,-2.35
97,-14.85,-12.50,-14.92,-12.57,6.00,5.82,-8.85,-8.92,-2.35
98,-14.70,-12.35,-14.76,-12.40,6.00,5.87,-8.70,-8.76,-2.36
99,-14.66,-12.31,-14.59,-12.24,6.00,5.93,-8.66,-8.59,-2.36
100,-14.50,-12.15,-14.43,-12.07,6.00,5.98,-8.50,-8.43,-2.36
101,-14.36,-12.01,-14.26,-11.90,6.00,6.04,-8.36,-8.26,-2.36
102,-14.07,-11.72,-14.09,-11.73,6.00,6.10,-8.07,-8.09,-2.36
104,-13.72,-11.37,-13.93,-11.57,6.00,6.22,-7.72,-7.93,-2.36
105,-13.73,-11.38,-13.76,-11.41,6.00,6.29,-7.73,-7.76,-2.36
106,-13.65,-11.30,-13.61,-11.25,6.00,6.35,-7.65,-7.61,-2.36
107,-13.57,-11.22,-13.46,-11.10,6.00,6.41,-7.57,-7.46,-2.36
108,-13.37,-11.02,-13.32,-10.96,6.00,6.47,-7.37,-7.32,-2.35
109,-13.10,-10.75,-13.18,-10.83,6.00,6.53,-7.10,-7.18,-2.35
110,-12.94,-10.59,-13.04,-10.69,6.00,6.58,-6.94,-7.04,-2.35
111,-12.80,-10.45,-12.91,-10.56,6.00,6.63,-6.80,-6.91,-2.35
112,-12.83,-10.49,-12.77,-10.42,6.00,6.68,-6.83,-6.77,-2.35
113,-12.73,-10.39,-12.62,-10.28,6.00,6.73,-6.73,-6.62,-2.34
114,-12.62,-10.28,-12.46,-10.12,6.00,6.77,-6.62,-6.46,-2.34
115,-12.37,-10.04,-12.30,-9.96,6.00,6.80,-6.37,-6.30,-2.33
117,-11.94,-9.61,-12.13,-9.80,6.00,6.86,-5.94,-6.13,-2.33
118,-11.80,-9.48,-11.95,-9.63,6.00,6.88,-5.80,-5.95,-2.32
119,-11.76,-9.44,-11.77,-9.45,6.00,6.89,-5.76,-5.77,-2.32
120,-11.67,-9.36,-11.60,-9.29,6.00,6.90,-5.67,-5.60,-2.31
121,-11.60,-9.30,-11.42,-9.12,6.00,6.90,-5.60,-5.42,-2.30
123,-11.21,-8.91,-11.26,-8.96,6.00,6.88,-5.21,-5.26,-2.30
124,-10.98,-8.69,-11.09,-8.80,6.00,6.86,-4.98,-5.09,-2.29
125,-10.85,-8.57,-10.93,-8.65,6.00,6.84,-4.85,-4.93,-2.28
126,-10.77,-8.50,-10.77,-8.49,6.00,6.81,-4.77,-4.77,-2.28
128,-10.61,-8.34,-10.61,-8.34,6.00,6.73,-4.61,-4.61,-2.27
129,-10.51,-8.25,-10.44,-8.18,6.00,6.68,-4.51,-4.44,-2.26
130,-10.34,-8.09,-10.27,-8.02,6.00,6.62,-4.34,-4.27,-2.25
131,-10.14,-7.90,-10.10,-7.85,6.00,6.56,-4.14,-4.10,-2.24
133,-9.79,-7.56,-9.92,-7.68,6.00,6.43,-3.79,-3.92,-2.24
134,-9.71,-7.48,-9.73,-7.50,6.00,6.35,-3.71,-3.73,-2.23
135,-9.65,-7.43,-9.55,-7.33,6.00,6.27,-3.65,-3.55,-2.22
137,-9.36,-7.15,-9.37,-7.15,6.00,6.11,-3.36,-3.37,-2.22
138,-9.18,-6.97,-9.19,-6.98,6.00,6.02,-3.18,-3.19,-2.21
140,-8.91,-6.71,-9.01,-6.81,6.00,5.84,-2.91,-3.01,-2.21
141,-8.81,-6.61,-8.84,-6.64,6.00,5.75,-2.81,-2.84,-2.20
142,-8.75,-6.56,-8.67,-6.48,6.00,5.65,-2.75,-2.67,-2.20
144,-8.48,-6.29,-8.51,-6.32,6.00,5.46,-2.48,-2.51,-2.19
145,-8.39,-6.20,-8.35,-6.16,5.99,5.36,-2.40,-2.36,-2.19
147,-8.20,-6.02,-8.19,-6.00,5.93,5.16,-2.27,-2.26,-2.19
148,-8.07,-5.89,-8.03,-5.85,5.89,5.07,-2.18,-2.14,-2.18
150,-7.80,-5.62,-7.88,-5.69,5.75,4.87,-2.05,-2.12,-2.18
151,-7.71,-5.53,-7.72,-5.54,5.66,4.77,-2.06,-2.07,-2.18
153,-7.53,-5.35,-7.57,-5.39,5.39,4.58,-2.14,-2.18,-2.18
154,-7.42,-5.24,-7.42,-5.24,5.24,4.48,-2.18,-2.18,-2.18
156,-7.25,-5.07,-7.27,-5.09,5.09,4.29,-2.16,-2.18,-2.18
157,-7.19,-5.01,-7.12,-4.94,4.94,4.19,-2.25,-2.18,-2.18
159,-7.00,-4.82,-6.96,-4.78,4.78,4.01,-2.22,-2.18,-2.18
160,-6.88,-4.70,-6.80,-4.62,4.62,3.92,-2.26,-2.18,-2.18
162,-6.60,-4.43,-6.64,-4.46,4.46,3.74,-2.14,-2.18,-2.18
164,-6.41,-4.24,-6.47,-4.30,4.30,3.56,-2.11,-2.18,-2.18
165,-6.27,-4.10,-6.31,-4.14,4.14,3.48,-2.13,-2.17,-2.17
167,-6.09,-3.92,-6.16,-3.99,3.99,3.31,-2.10,-2.17,-2.17
169,-6.02,-3.85,-6.01,-3.84,3.84,3.14,-2.18,-2.17,-2.17
170,-5.92,-3.75,-5.86,-3.69,3.69,3.06,-2.23,-2.17,-2.17
172,-5.77,-3.61,-5.72,-3.55,3.55,2.91,-2.22,-2.16,-2.16
174,-5.53,-3.37,-5.57,-3.41,3.41,2.75,-2.12,-2.16,-2.16
175,-5.46,-3.31,-5.43,-3.28,3.28,2.68,-2.18,-2.15,-2.15
177,-5.28,-3.13,-5.29,-3.14,3.14,2.53,-2.14,-2.15,-2.15
179,-5.13,-2.99,-5.15,-3.00,3.00,2.39,-2.13,-2.14,-2.14
181,-4.96,-2.83,-5.00,-2.87,2.87,2.25,-2.09,-2.13,-2.13
183,-4.83,-2.70,-4.86,-2.73,2.73,2.11,-2.10,-2.13,-2.13
184,-4.75,-2.63,-4.72,-2.60,2.60,2.05,-2.15,-2.12,-2.12
186,-4.60,-2.49,-4.57,-2.46,2.46,1.92,-2.14,-2.11,-2.11
188,-4.46,-2.36,-4.43,-2.33,2.33,1.79,-2.14,-2.10,-2.10
190,-4.30,-2.21,-4.28,-2.19,2.19,1.67,-2.12,-2.09,-2.09
192,-4.12,-2.04,-4.13,-2.05,2.05,1.55,-2.07,-2.08,-2.08
194,-3.96,-1.89,-3.98,-1.91,1.91,1.43,-2.05,-2.07,-2.07
196,-3.83,-1.77,-3.84,-1.78,1.78,1.32,-2.06,-2.07,-2.07
198,-3.69,-1.64,-3.70,-1.65,1.65,1.21,-2.05,-2.06,-2.06
200,-3.52,-1.47,-3.57,-1.52,1.52,1.10,-2.00,-2.05,-2.05
202,-3.44,-1.40,-3.45,-1.41,1.41,0.99,-2.03,-2.04,-2.04
204,-3.37,-1.34,-3.33,-1.30,1.30,0.89,-2.08,-2.03,-2.03
206,-3.22,-1.20,-3.22,-1.19,1.19,0.79,-2.03,-2.02,-2.02
208,-3.09,-1.07,-3.10,-1.09,1.09,0.70,-2.01,-2.02,-2.02
210,-3.01,-1.00,-3.00,-0.99,0.99,0.60,-2.03,-2.01,-2.01
212,-2.92,-0.92,-2.89,-0.89,0.89,0.51,-2.03,-2.00,-2.00
214,-2.77,-0.78,-2.79,-0.79,0.79,0.43,-1.98,-2.00,-2.00
216,-2.66,-0.67,-2.69,-0.70,0.70,0.34,-1.96,-1.99,-1.99
218,-2.54,-0.56,-2.59,-0.61,0.61,0.26,-1.94,-1.98,-1.98
221,-2.55,-0.58,-2.49,-0.51,0.51,0.15,-2.04,-1.98,-1.98
223,-2.34,-0.37,-2.39,-0.42,0.42,0.07,-1.92,-1.97,-1.97
225,-2.31,-0.35,-2.30,-0.33,0.33,0.00,-1.98,-1.96,-1.96
227,-2.25,-0.30,-2.20,-0.24,0.24,-0.06,-2.01,-1.95,-1.95
229,-2.12,-0.18,-2.10,-0.15,0.15,-0.13,-1.97,-1.95,-1.95
232,-1.98,-0.05,-1.99,-0.06,0.06,-0.21,-1.92,-1.94,-1.94
234,-1.84,0.09,-1.89,0.03,-0.03,-0.27,-1.88,-1.93,-1.93
236,-1.86,0.06,-1.79,0.12,-0.12,-0.32,-1.99,-1.92,-1.92
239,-1.72,0.19,-1.70,0.21,-0.21,-0.39,-1.93,-1.91,-1.91
241,-1.43,0.46,-1.61,0.29,-0.29,-0.44,-1.72,-1.90,-1.90
244,-1.51,0.37,-1.52,0.36,-0.36,-0.50,-1.88,-1.89,-1.89
246,-1.54,0.33,-1.44,0.43,-0.43,-0.53,-1.98,-1.87,-1.87
248,-1.50,0.36,-1.36,0.50,-0.50,-0.57,-2.00,-1.86,-1.86
251,-1.19,0.66,-1.29,0.56,-0.56,-0.61,-1.75,-1.85,-1.85
253,-1.08,0.76,-1.22,0.62,-0.62,-0.64,-1.70,-1.84,-1.84
256,-1.21,0.62,-1.15,0.68,-0.68,-0.67,-1.89,-1.83,-1.83
259,-1.13,0.69,-1.08,0.73,-0.73,-0.70,-1.87,-1.82,-1.82
261,-1.11,0.69,-1.02,0.79,-0.79,-0.71,-1.90,-1.81,-1.81
264,-0.90,0.89,-0.96,0.84,-0.84,-0.73,-1.74,-1.80,-1.80
266,-0.85,0.93,-0.90,0.88,-0.88,-0.74,-1.73,-1.78,-1.78
269,-0.84,0.93,-0.85,0.92,-0.92,-0.75,-1.76,-1.77,-1.77
272,-0.82,0.94,-0.81,0.95,-0.95,-0.76,-1.77,-1.76,-1.76
274,-0.77,0.98,-0.78,0.98,-0.98,-0.76,-1.75,-1.75,-1.75
277,-0.73,1.01,-0.75,1.00,-1.00,-0.76,-1.73,-1.74,-1.74
280,-0.70,1.03,-0.72,1.01,-1.01,-0.76,-1.72,-1.74,-1.74
283,-0.67,1.05,-0.69,1.03,-1.03,-0.75,-1.70,-1.73,-1.73
286,-0.73,0.99,-0.67,1.05,-1.05,-0.75,-1.78,-1.72,-1.72
288,-0.73,0.98,-0.63,1.08,-1.08,-0.74,-1.81,-1.71,-1.71
291,-0.51,1.19,-0.60,1.10,-1.10,-0.73,-1.62,-1.70,-1.70
294,-0.48,1.21,-0.55,1.14,-1.14,-0.72,-1.62,-1.69,-1.69
297,-0.62,1.06,-0.51,1.18,-1.18,-0.70,-1.80,-1.68,-1.68
300,-0.55,1.12,-0.46,1.22,-1.22,-0.69,-1.77,-1.68,-1.68
303,-0.29,1.38,-0.41,1.26,-1.26,-0.67,-1.55,-1.67,-1.67
306,-0.32,1.34,-0.37,1.29,-1.29,-0.66,-1.61,-1.66,-1.66
309,-0.35,1.30,-0.34,1.32,-1.32,-0.64,-1.67,-1.65,-1.65
312,-0.38,1.27,-0.31,1.34,-1.34,-0.63,-1.72,-1.65,-1.65
316,-0.26,1.38,-0.30,1.34,-1.34,-0.61,-1.60,-1.64,-1.64
319,-0.22,1.41,-0.29,1.34,-1.34,-0.59,-1.56,-1.63,-1.63
322,-0.28,1.34,-0.30,1.33,-1.33,-0.57,-1.61,-1.63,-1.63
325,-0.32,1.30,-0.31,1.31,-1.31,-0.56,-1.63,-1.62,-1.62
328,-0.32,1.29,-0.33,1.29,-1.29,-0.54,-1.61,-1.61,-1.61
332,-0.38,1.23,-0.34,1.26,-1.26,-0.52,-1.65,-1.61,-1.61
335,-0.43,1.17,-0.36,1.24,-1.24,-0.50,-1.67,-1.60,-1.60
338,-0.39,1.21,-0.37,1.22,-1.22,-0.49,-1.62,-1.60,-1.60
342,-0.38,1.21,-0.39,1.21,-1.21,-0.47,-1.59,-1.59,-1.59
345,-0.38,1.21,-0.40,1.19,-1.19,-0.46,-1.57,-1.59,-1.59
349,-0.38,1.20,-0.41,1.17,-1.17,-0.44,-1.55,-1.58,-1.58
352,-0.34,1.24,-0.43,1.15,-1.15,-0.43,-1.49,-1.58,-1.58
356,-0.38,1.20,-0.45,1.13,-1.13,-0.41,-1.51,-1.58,-1.58
359,-0.59,0.98,-0.46,1.11,-1.11,-0.40,-1.70,-1.57,-1.57
363,-0.58,0.99,-0.48,1.09,-1.09,-0.38,-1.67,-1.57,-1.57
366,-0.51,1.06,-0.50,1.07,-1.07,-0.37,-1.58,-1.57,-1.57
370,-0.43,1.13,-0.52,1.05,-1.05,-0.36,-1.48,-1.57,-1.57
374,-0.47,1.09,-0.54,1.03,-1.03,-0.35,-1.50,-1.56,-1.56
377,-0.62,0.94,-0.56,1.00,-1.00,-0.34,-1.63,-1.56,-1.56
381,-0.62,0.94,-0.58,0.98,-0.98,-0.32,-1.60,-1.56,-1.56
385,-0.51,1.04,-0.61,0.95,-0.95,-0.31,-1.46,-1.55,-1.55
389,-0.70,0.85,-0.64,0.91,-0.91,-0.30,-1.61,-1.55,-1.55
393,-0.72,0.82,-0.68,0.86,-0.86,-0.29,-1.58,-1.54,-1.54
397,-0.64,0.89,-0.73,0.80,-0.80,-0.28,-1.45,-1.53,-1.53
401,-0.77,0.75,-0.78,0.74,-0.74,-0.27,-1.51,-1.52,-1.52
405,-0.86,0.65,-0.85,0.66,-0.66,-0.27,-1.53,-1.51,-1.51
409,-0.87,0.62,-0.91,0.58,-0.58,-0.26,-1.45,-1.50,-1.50
413,-0.94,0.54,-0.98,0.50,-0.50,-0.25,-1.44,-1.48,-1.48
417,-1.08,0.38,-1.04,0.41,-0.41,-0.24,-1.50,-1.46,-1.46
421,-1.15,0.28,-1.10,0.34,-0.34,-0.24,-1.49,-1.44,-1.44
425,-1.14,0.27,-1.14,0.27,-0.27,-0.23,-1.41,-1.41,-1.41
430,-1.19,0.19,-1.17,0.21,-0.21,-0.22,-1.40,-1.38,-1.38
434,-1.21,0.14,-1.19,0.16,-0.16,-0.22,-1.37,-1.35,-1.35
438,-1.25,0.06,-1.19,0.12,-0.12,-0.21,-1.37,-1.31,-1.32
443,-1.18,0.10,-1.18,0.09,-0.09,-0.20,-1.28,-1.28,-1.28
447,-1.09,0.15,-1.17,0.07,-0.07,-0.20,-1.16,-1.24,-1.24
451,-1.14,0.06,-1.15,0.05,-0.05,-0.19,-1.19,-1.20,-1.20
456,-1.13,0.03,-1.12,0.03,-0.03,-0.19,-1.17,-1.16,-1.16
460,-1.09,0.03,-1.10,0.01,-0.01,-0.18,-1.11,-1.12,-1.12
465,-1.04,0.03,-1.08,-0.01,0.01,-0.18,-1.04,-1.08,-1.08
470,-1.08,-0.05,-1.06,-0.02,0.02,-0.17,-1.06,-1.04,-1.04
474,-1.05,-0.06,-1.04,-0.04,0.04,-0.17,-1.01,-1.00,-1.00
479,-1.03,-0.07,-1.01,-0.06,0.06,-0.17,-0.98,-0.96,-0.96
484,-1.00,-0.08,-0.99,-0.06,0.06,-0.16,-0.94,-0.93,-0.92
489,-0.98,-0.09,-0.96,-0.07,0.07,-0.16,-0.91,-0.89,-0.89
494,-0.94,-0.08,-0.94,-0.07,0.07,-0.15,-0.87,-0.87,-0.87
499,-0.90,-0.06,-0.92,-0.08,0.08,-0.15,-0.83,-0.84,-0.84
504,-0.87,-0.05,-0.90,-0.08,0.08,-0.15,-0.79,-0.82,-0.82
509,-0.93,-0.13,-0.89,-0.08,0.08,-0.14,-0.85,-0.81,-0.81
514,-0.84,-0.05,-0.89,-0.09,0.09,-0.14,-0.75,-0.80,-0.80
519,-0.84,-0.05,-0.90,-0.11,0.11,-0.13,-0.73,-0.79,-0.79
524,-0.98,-0.19,-0.92,-0.13,0.13,-0.13,-0.85,-0.79,-0.79
529,-0.98,-0.19,-0.94,-0.15,0.15,-0.13,-0.83,-0.79,-0.79
535,-0.95,-0.16,-0.98,-0.18,0.18,-0.12,-0.77,-0.79,-0.79
540,-0.98,-0.18,-1.01,-0.21,0.21,-0.12,-0.77,-0.80,-0.80
545,-1.02,-0.21,-1.05,-0.24,0.24,-0.12,-0.78,-0.81,-0.81
551,-1.10,-0.28,-1.10,-0.28,0.28,-0.11,-0.83,-0.82,-0.82
556,-1.17,-0.34,-1.14,-0.31,0.31,-0.11,-0.87,-0.83,-0.83
562,-1.20,-0.36,-1.18,-0.33,0.33,-0.10,-0.87,-0.84,-0.84
568,-1.17,-0.32,-1.21,-0.36,0.36,-0.10,-0.81,-0.85,-0.85
573,-1.21,-0.35,-1.23,-0.37,0.37,-0.10,-0.84,-0.86,-0.86
579,-1.28,-0.41,-1.25,-0.38,0.38,-0.09,-0.90,-0.87,-0.87
585,-1.30,-0.43,-1.25,-0.38,0.38,-0.09,-0.92,-0.87,-0.87
591,-1.24,-0.37,-1.24,-0.37,0.37,-0.09,-0.87,-0.87,-0.87
596,-1.21,-0.35,-1.22,-0.35,0.35,-0.08,-0.86,-0.87,-0.87
602,-1.19,-0.33,-1.19,-0.33,0.33,-0.08,-0.86,-0.86,-0.86
608,-1.18,-0.33,-1.15,-0.30,0.30,-0.08,-0.88,-0.85,-0.85
615,-1.04,-0.21,-1.11,-0.27,0.27,-0.07,-0.77,-0.83,-0.83
621,-1.00,-0.19,-1.06,-0.24,0.24,-0.07,-0.76,-0.81,-0.81
627,-1.04,-0.25,-1.00,-0.21,0.21,-0.06,-0.83,-0.79,-0.79
633,-0.99,-0.23,-0.94,-0.18,0.18,-0.06,-0.81,-0.76,-0.76
639,-0.90,-0.17,-0.88,-0.15,0.15,-0.06,-0.75,-0.74,-0.74
646,-0.79,-0.09,-0.82,-0.12,0.12,-0.05,-0.68,-0.71,-0.71
652,-0.75,-0.08,-0.76,-0.08,0.08,-0.05,-0.67,-0.67,-0.67
659,-0.72,-0.08,-0.69,-0.05,0.05,-0.05,-0.67,-0.64,-0.64
665,-0.59,0.01,-0.63,-0.03,0.03,-0.04,-0.57,-0.61,-0.60
672,-0.54,0.03,-0.57,-0.00,0.00,-0.04,-0.54,-0.57,-0.57
679,-0.52,0.01,-0.51,0.02,-0.02,-0.04,-0.55,-0.54,-0.54
686,-0.47,0.03,-0.46,0.04,-0.04,-0.03,-0.52,-0.50,-0.50
692,-0.44,0.03,-0.41,0.06,-0.06,-0.03,-0.51,-0.47,-0.47
699,-0.41,0.03,-0.36,0.08,-0.08,-0.03,-0.49,-0.44,-0.44
706,-0.27,0.14,-0.32,0.09,-0.09,-0.03,-0.36,-0.41,-0.41
713,-0.26,0.12,-0.29,0.09,-0.09,-0.02,-0.35,-0.39,-0.39
721,-0.25,0.11,-0.27,0.09,-0.09,-0.02,-0.34,-0.36,-0.36
728,-0.26,0.08,-0.26,0.08,-0.08,-0.02,-0.34,-0.34,-0.34
735,-0.25,0.07,-0.25,0.06,-0.06,-0.01,-0.32,-0.32,-0.32
742,-0.22,0.08,-0.26,0.04,-0.04,-0.01,-0.27,-0.30,-0.30
750,-0.26,0.02,-0.26,0.02,-0.02,-0.01,-0.28,-0.29,-0.29
757,-0.32,-0.05,-0.27,-0.00,0.00,-0.01,-0.32,-0.27,-0.27
765,-0.27,-0.01,-0.28,-0.02,0.02,-0.00,-0.25,-0.26,-0.26
773,-0.29,-0.04,-0.28,-0.03,0.03,0.00,-0.26,-0.25,-0.25
780,-0.32,-0.08,-0.27,-0.04,0.04,0.00,-0.28,-0.24,-0.24
788,-0.22,0.01,-0.26,-0.04,0.04,0.01,-0.19,-0.23,-0.23
796,-0.22,-0.00,-0.25,-0.03,0.03,0.01,-0.19,-0.22,-0.22
804,-0.28,-0.07,-0.23,-0.02,0.02,0.01,-0.26,-0.21,-0.21
812,-0.27,-0.07,-0.21,-0.01,0.01,0.01,-0.27,-0.20,-0.20
820,-0.15,0.05,-0.19,0.01,-0.01,0.02,-0.16,-0.20,-0.20
828,-0.09,0.10,-0.17,0.02,-0.02,0.02,-0.11,-0.19,-0.19
837,-0.12,0.06,-0.16,0.03,-0.03,0.02,-0.15,-0.18,-0.18
845,-0.16,0.01,-0.14,0.03,-0.03,0.02,-0.20,-0.18,-0.18
853,-0.17,-0.00,-0.13,0.04,-0.04,0.02,-0.21,-0.17,-0.17
862,-0.17,-0.01,-0.12,0.04,-0.04,0.03,-0.21,-0.16,-0.16
871,-0.14,0.01,-0.11,0.04,-0.04,0.03,-0.18,-0.15,-0.15
879,-0.09,0.05,-0.11,0.04,-0.04,0.03,-0.13,-0.15,-0.15
888,-0.02,0.12,-0.10,0.03,-0.03,0.03,-0.06,-0.14,-0.14
897,-0.04,0.09,-0.10,0.03,-0.03,0.03,-0.07,-0.13,-0.13
906,-0.11,0.01,-0.10,0.02,-0.02,0.03,-0.13,-0.12,-0.12
915,-0.11,0.00,-0.10,0.02,-0.02,0.03,-0.13,-0.11,-0.11
924,-0.13,-0.03,-0.09,0.01,-0.01,0.03,-0.14,-0.10,-0.10
933,-0.20,-0.11,-0.08,0.01,-0.01,0.03,-0.21,-0.09,-0.09
943,-0.08,-0.00,-0.07,0.01,-0.01,0.03,-0.10,-0.08,-0.08
952,0.04,0.11,-0.05,0.02,-0.02,0.03,0.02,-0.07,-0.07
962,-0.00,0.05,-0.04,0.02,-0.02,0.03,-0.02,-0.05,-0.05
971,-0.00,0.04,-0.03,0.01,-0.01,0.02,-0.02,-0.04,-0.04
981,0.01,0.03,-0.02,0.01,-0.01,0.02,0.00,-0.02,-0.02
991,0.02,0.02,-0.01,-0.00,0.00,0.02,0.02,-0.01,-0.01
1001,-0.00,-0.01,-0.00,-0.01,0.01,0.01,0.01,0.01,0.01
1011,-0.08,-0.11,0.01,-0.02,0.02,0.01,-0.06,0.03,0.03
1021,-0.01,-0.07,0.03,-0.03,0.03,0.01,0.02,0.06,0.05
1031,0.05,-0.03,0.05,-0.03,0.03,0.00,0.08,0.08,0.08
1041,0.08,-0.03,0.07,-0.03,0.03,-0.00,0.11,0.10,0.10
1052,0.12,-0.01,0.11,-0.03,0.03,-0.01,0.14,0.13,0.13
1062,0.16,-0.00,0.14,-0.02,0.02,-0.01,0.18,0.16,0.16
1073,0.19,-0.00,0.17,-0.02,0.02,-0.02,0.21,0.19,0.19
1084,0.20,-0.02,0.20,-0.02,0.02,-0.03,0.22,0.22,0.22
1094,0.29,0.03,0.23,-0.03,0.03,-0.04,0.31,0.25,0.25
1105,0.22,-0.07,0.25,-0.04,0.04,-0.04,0.25,0.29,0.29
1116,0.17,-0.15,0.28,-0.05,0.05,-0.05,0.21,0.32,0.32
1128,0.36,0.00,0.30,-0.06,0.06,-0.06,0.42,0.36,0.36
1139,0.43,0.04,0.32,-0.07,0.07,-0.07,0.49,0.39,0.39
1150,0.37,-0.06,0.35,-0.07,0.07,-0.08,0.44,0.42,0.42
1162,0.27,-0.19,0.38,-0.07,0.07,-0.09,0.34,0.46,0.46
1173,0.31,-0.18,0.42,-0.07,0.07,-0.10,0.38,0.49,0.49
1185,0.50,-0.02,0.46,-0.06,0.06,-0.11,0.56,0.52,0.52
1197,0.57,0.02,0.49,-0.06,0.06,-0.12,0.62,0.55,0.55
1209,0.53,-0.05,0.52,-0.05,0.05,-0.13,0.58,0.57,0.57
1221,0.57,-0.03,0.56,-0.04,0.04,-0.14,0.61,0.60,0.60
1233,0.67,0.05,0.58,-0.04,0.04,-0.15,0.70,0.62,0.62
1246,0.61,-0.03,0.61,-0.03,0.03,-0.16,0.63,0.64,0.64
1258,0.61,-0.05,0.64,-0.01,0.01,-0.17,0.62,0.65,0.65
1271,0.62,-0.05,0.68,0.01,-0.01,-0.18,0.61,0.67,0.67
1283,0.65,-0.03,0.72,0.04,-0.04,-0.19,0.61,0.68,0.68
1296,0.71,0.03,0.76,0.08,-0.08,-0.21,0.63,0.68,0.68
1309,0.88,0.19,0.82,0.13,-0.13,-0.22,0.75,0.69,0.69
1322,0.95,0.26,0.87,0.18,-0.18,-0.23,0.77,0.69,0.69
1335,0.95,0.26,0.92,0.24,-0.24,-0.24,0.71,0.68,0.68
1349,0.95,0.27,0.97,0.29,-0.29,-0.26,0.66,0.68,0.68
1362,0.99,0.31,1.01,0.34,-0.34,-0.27,0.65,0.67,0.67
1376,1.01,0.34,1.05,0.39,-0.39,-0.28,0.62,0.67,0.67
1390,1.15,0.49,1.09,0.43,-0.43,-0.30,0.72,0.66,0.66
1404,1.23,0.58,1.12,0.47,-0.47,-0.31,0.76,0.65,0.65
1418,1.11,0.47,1.15,0.51,-0.51,-0.33,0.60,0.64,0.64
1432,1.09,0.46,1.18,0.55,-0.55,-0.34,0.54,0.63,0.63
