frequency,raw,error,smoothed,error_smoothed,equalization,parametric_eq,fixed_band_eq,equalized_raw,equalized_smoothed,target
20.00,4.13,-6.83,4.13,-6.83,5.97,6.20,2.06,10.10,10.10,10.96
20.20,4.19,-6.76,4.19,-6.76,5.99,6.18,2.12,10.18,10.18,10.95
20.40,4.26,-6.68,4.25,-6.68,6.00,6.16,2.18,10.26,10.26,10.94
20.61,4.32,-6.61,4.32,-6.61,6.01,6.13,2.25,10.33,10.33,10.93
20.81,4.38,-6.53,4.38,-6.53,6.02,6.11,2.32,10.40,10.40,10.90
21.02,4.45,-6.45,4.44,-6.45,6.02,6.08,2.39,10.47,10.46,10.89
21.23,4.51,-6.38,4.51,-6.38,6.02,6.05,2.46,10.52,10.52,10.88
21.44,4.57,-6.33,4.57,-6.32,6.01,6.02,2.53,10.58,10.58,10.89
21.66,4.63,-6.25,4.63,-6.25,6.01,5.99,2.61,10.64,10.64,10.87
21.87,4.69,-6.19,4.69,-6.18,6.00,5.96,2.68,10.69,10.69,10.87
22.09,4.76,-6.10,4.75,-6.10,5.99,5.92,2.76,10.75,10.74,10.85
22.31,4.82,-6.03,4.82,-6.03,5.96,5.89,2.84,10.78,10.78,10.85
22.54,4.89,-5.96,4.88,-5.96,5.93,5.85,2.93,10.81,10.81,10.84
22.76,4.95,-5.89,4.95,-5.89,5.88,5.81,3.01,10.83,10.83,10.84
22.99,5.02,-5.81,5.01,-5.82,5.83,5.78,3.10,10.84,10.84,10.83
23.22,5.08,-5.74,5.08,-5.75,5.77,5.74,3.19,10.84,10.84,10.82
23.45,5.14,-5.69,5.14,-5.68,5.70,5.70,3.28,10.84,10.84,10.83
23.69,5.20,-5.62,5.20,-5.62,5.63,5.65,3.38,10.83,10.83,10.82
23.92,5.26,-5.55,5.26,-5.56,5.56,5.61,3.47,10.82,10.82,10.81
24.16,5.32,-5.50,5.32,-5.50,5.50,5.57,3.57,10.82,10.81,10.82
24.40,5.38,-5.44,5.38,-5.44,5.44,5.52,3.67,10.81,10.81,10.82
24.65,5.44,-5.38,5.44,-5.38,5.37,5.48,3.77,10.81,10.81,10.82
24.89,5.50,-5.32,5.50,-5.31,5.31,5.43,3.87,10.81,10.81,10.82
25.14,5.56,-5.25,5.56,-5.25,5.25,5.39,3.97,10.81,10.81,10.80
25.39,5.63,-5.18,5.62,-5.18,5.19,5.34,4.08,10.81,10.81,10.80
25.65,5.69,-5.12,5.69,-5.12,5.12,5.29,4.18,10.81,10.81,10.80
25.91,5.75,-5.06,5.75,-5.06,5.06,5.24,4.28,10.81,10.81,10.80
26.16,5.81,-5.00,5.81,-5.00,5.00,5.19,4.38,10.81,10.80,10.81
26.43,5.87,-4.95,5.87,-4.94,4.94,5.14,4.48,10.80,10.80,10.81
26.69,5.93,-4.88,5.93,-4.88,4.88,5.09,4.58,10.81,10.81,10.81
26.96,5.99,-4.82,5.98,-4.82,4.82,5.04,4.68,10.81,10.81,10.81
27.23,6.05,-4.76,6.04,-4.76,4.77,4.99,4.78,10.81,10.81,10.81
27.50,6.10,-4.71,6.10,-4.71,4.71,4.93,4.87,10.81,10.81,10.81
27.77,6.16,-4.66,6.15,-4.66,4.66,4.88,4.96,10.82,10.81,10.81
28.05,6.21,-4.61,6.21,-4.61,4.61,4.83,5.04,10.81,10.82,10.81
28.33,6.27,-4.56,6.26,-4.56,4.55,4.78,5.12,10.82,10.82,10.82
28.62,6.32,-4.51,6.32,-4.51,4.50,4.72,5.20,10.82,10.82,10.82
28.90,6.38,-4.45,6.37,-4.45,4.45,4.67,5.27,10.83,10.82,10.83
29.19,6.43,-4.40,6.43,-4.40,4.40,4.61,5.33,10.82,10.83,10.83
29.48,6.49,-4.34,6.48,-4.34,4.34,4.56,5.38,10.83,10.83,10.83
29.78,6.54,-4.29,6.54,-4.29,4.29,4.50,5.43,10.82,10.82,10.83
30.08,6.59,-4.24,6.59,-4.23,4.23,4.45,5.47,10.82,10.82,10.82
30.38,6.64,-4.18,6.64,-4.18,4.18,4.39,5.49,10.82,10.82,10.81
30.68,6.69,-4.12,6.69,-4.12,4.13,4.34,5.51,10.82,10.82,10.81
30.99,6.74,-4.07,6.73,-4.08,4.08,4.28,5.52,10.81,10.81,10.81
31.30,6.78,-4.03,6.78,-4.03,4.03,4.22,5.52,10.80,10.81,10.81
31.61,6.82,-3.99,6.82,-3.98,3.98,4.17,5.51,10.80,10.80,10.80
31.93,6.86,-3.93,6.86,-3.94,3.94,4.11,5.50,10.79,10.79,10.78
32.24,6.90,-3.89,6.90,-3.89,3.89,4.05,5.47,10.79,10.79,10.79
32.57,6.94,-3.84,6.94,-3.84,3.84,4.00,5.43,10.78,10.78,10.78
32.89,6.98,-3.80,6.98,-3.80,3.80,3.94,5.39,10.78,10.78,10.78
33.22,7.02,-3.76,7.02,-3.76,3.75,3.88,5.33,10.77,10.77,10.77
33.55,7.06,-3.71,7.06,-3.71,3.71,3.83,5.27,10.77,10.77,10.77
33.89,7.10,-3.66,7.10,-3.66,3.66,3.77,5.20,10.76,10.76,10.76
34.23,7.14,-3.61,7.13,-3.61,3.62,3.71,5.12,10.76,10.75,10.75
34.57,7.17,-3.58,7.17,-3.57,3.58,3.66,5.04,10.74,10.74,10.74
34.92,7.21,-3.52,7.21,-3.53,3.53,3.60,4.95,10.74,10.74,10.73
35.27,7.25,-3.50,7.25,-3.49,3.48,3.54,4.86,10.73,10.73,10.75
35.62,7.29,-3.44,7.29,-3.44,3.44,3.49,4.77,10.73,10.73,10.72
35.97,7.33,-3.39,7.32,-3.40,3.40,3.43,4.67,10.72,10.72,10.72
36.33,7.36,-3.35,7.36,-3.35,3.35,3.37,4.56,10.71,10.71,10.71
36.70,7.39,-3.30,7.39,-3.30,3.31,3.32,4.46,10.69,10.69,10.68
37.06,7.42,-3.25,7.41,-3.26,3.26,3.26,4.35,10.67,10.67,10.67
37.43,7.45,-3.21,7.44,-3.21,3.21,3.21,4.24,10.66,10.65,10.66
37.81,7.47,-3.18,7.47,-3.17,3.16,3.15,4.14,10.63,10.63,10.64
38.19,7.51,-3.11,7.50,-3.12,3.11,3.09,4.03,10.62,10.62,10.62
38.57,7.54,-3.07,7.54,-3.07,3.06,3.04,3.92,10.60,10.60,10.60
38.95,7.58,-3.01,7.57,-3.01,3.01,2.98,3.81,10.59,10.59,10.59
39.34,7.61,-2.96,7.60,-2.96,2.96,2.93,3.70,10.57,10.57,10.56
39.74,7.64,-2.90,7.64,-2.91,2.91,2.87,3.59,10.55,10.55,10.54
40.14,7.67,-2.86,7.67,-2.85,2.86,2.82,3.48,10.52,10.53,10.53
40.54,7.71,-2.80,7.70,-2.80,2.80,2.76,3.38,10.51,10.51,10.51
40.94,7.74,-2.75,7.73,-2.75,2.75,2.71,3.28,10.49,10.49,10.48
41.35,7.77,-2.70,7.77,-2.70,2.70,2.65,3.17,10.46,10.47,10.47
41.76,7.80,-2.65,7.80,-2.65,2.65,2.60,3.07,10.44,10.45,10.44
42.18,7.84,-2.60,7.83,-2.60,2.60,2.55,2.97,10.43,10.43,10.44
42.60,7.87,-2.54,7.87,-2.54,2.55,2.49,2.87,10.41,10.42,10.41
43.03,7.91,-2.49,7.90,-2.49,2.50,2.44,2.78,10.40,10.40,10.39
43.46,7.93,-2.44,7.93,-2.44,2.45,2.38,2.68,10.37,10.38,10.37
43.90,7.95,-2.40,7.95,-2.40,2.40,2.33,2.59,10.35,10.35,10.35
44.33,7.98,-2.35,7.97,-2.35,2.35,2.28,2.50,10.33,10.32,10.32
44.78,8.00,-2.31,8.00,-2.31,2.30,2.23,2.41,10.30,10.30,10.31
45.23,8.03,-2.26,8.03,-2.25,2.25,2.17,2.33,10.27,10.27,10.29
45.68,8.06,-2.19,8.06,-2.20,2.20,2.12,2.24,10.25,10.25,10.25
46.13,8.09,-2.13,8.09,-2.14,2.14,2.07,2.16,10.23,10.23,10.22
46.60,8.12,-2.08,8.11,-2.08,2.08,2.02,2.08,10.20,10.20,10.19
47.06,8.14,-2.03,8.14,-2.02,2.02,1.97,2.00,10.16,10.16,10.16
47.53,8.17,-1.97,8.16,-1.96,1.96,1.91,1.93,10.13,10.12,10.13
48.01,8.19,-1.90,8.19,-1.90,1.90,1.86,1.85,10.08,10.08,10.08
48.49,8.22,-1.84,8.22,-1.84,1.83,1.81,1.78,10.05,10.05,10.05
48.97,8.25,-1.77,8.25,-1.77,1.77,1.76,1.71,10.01,10.01,10.01
49.46,8.28,-1.70,8.28,-1.70,1.70,1.71,1.64,9.98,9.98,9.98
49.96,8.31,-1.62,8.30,-1.64,1.64,1.66,1.57,9.95,9.95,9.93
50.46,8.33,-1.58,8.33,-1.58,1.58,1.61,1.50,9.91,9.91,9.91
50.96,8.36,-1.52,8.35,-1.52,1.52,1.56,1.43,9.88,9.87,9.88
51.47,8.38,-1.47,8.38,-1.46,1.46,1.51,1.37,9.84,9.84,9.84
51.99,8.40,-1.40,8.40,-1.41,1.41,1.46,1.31,9.80,9.81,9.80
52.51,8.43,-1.35,8.42,-1.36,1.35,1.41,1.25,9.78,9.77,9.78
53.03,8.45,-1.31,8.44,-1.30,1.30,1.36,1.19,9.74,9.74,9.75
53.56,8.47,-1.25,8.47,-1.25,1.24,1.31,1.13,9.71,9.71,9.72
54.10,8.49,-1.19,8.49,-1.19,1.19,1.27,1.07,9.68,9.68,9.67
54.64,8.52,-1.13,8.51,-1.13,1.14,1.22,1.02,9.66,9.65,9.65
55.18,8.53,-1.08,8.53,-1.08,1.09,1.17,0.96,9.62,9.62,9.61
55.74,8.54,-1.04,8.54,-1.04,1.05,1.12,0.91,9.59,9.59,9.57
56.29,8.55,-1.01,8.55,-1.01,1.01,1.07,0.86,9.56,9.55,9.56
56.86,8.56,-0.97,8.55,-0.97,0.97,1.03,0.81,9.53,9.53,9.53
57.42,8.56,-0.94,8.56,-0.93,0.94,0.98,0.76,9.49,9.50,9.49
58.00,8.57,-0.90,8.57,-0.90,0.90,0.93,0.71,9.47,9.47,9.46
58.58,8.58,-0.87,8.57,-0.87,0.87,0.89,0.66,9.44,9.44,9.44
59.16,8.58,-0.85,8.58,-0.84,0.83,0.84,0.61,9.40,9.41,9.42
59.76,8.60,-0.80,8.59,-0.80,0.78,0.79,0.57,9.38,9.38,9.39
60.35,8.61,-0.74,8.60,-0.75,0.74,0.75,0.52,9.34,9.34,9.35
60.96,8.62,-0.69,8.62,-0.69,0.69,0.70,0.48,9.31,9.31,9.31
61.57,8.63,-0.63,8.63,-0.63,0.64,0.65,0.44,9.26,9.27,9.26
62.18,8.64,-0.58,8.64,-0.58,0.59,0.61,0.40,9.22,9.22,9.21
62.80,8.65,-0.52,8.64,-0.52,0.53,0.56,0.36,9.18,9.17,9.17
63.43,8.65,-0.48,8.65,-0.48,0.48,0.52,0.32,9.12,9.13,9.12
64.07,8.66,-0.43,8.66,-0.43,0.42,0.47,0.28,9.08,9.08,9.09
64.71,8.68,-0.37,8.68,-0.37,0.37,0.43,0.24,9.04,9.04,9.05
65.35,8.70,-0.32,8.70,-0.32,0.31,0.38,0.20,9.01,9.01,9.01
66.01,8.73,-0.25,8.72,-0.25,0.25,0.34,0.16,8.98,8.97,8.97
66.67,8.75,-0.20,8.75,-0.19,0.19,0.30,0.13,8.94,8.94,8.95
67.33,8.77,-0.13,8.77,-0.13,0.13,0.25,0.09,8.90,8.90,8.90
68.01,8.80,-0.07,8.79,-0.07,0.07,0.21,0.06,8.87,8.87,8.86
68.69,8.82,-0.01,8.82,-0.01,0.01,0.16,0.02,8.83,8.83,8.82
69.37,8.84,0.04,8.84,0.05,-0.05,0.12,-0.01,8.79,8.79,8.79
70.07,8.86,0.11,8.86,0.11,-0.11,0.08,-0.05,8.74,8.74,8.75
70.77,8.88,0.17,8.88,0.17,-0.18,0.03,-0.08,8.70,8.70,8.70
71.48,8.90,0.23,8.90,0.23,-0.24,-0.01,-0.11,8.66,8.66,8.67
72.19,8.92,0.29,8.92,0.29,-0.29,-0.05,-0.15,8.62,8.63,8.62
72.91,8.94,0.36,8.93,0.35,-0.35,-0.09,-0.18,8.59,8.59,8.58
73.64,8.95,0.41,8.94,0.40,-0.40,-0.14,-0.21,8.55,8.55,8.54
74.38,8.95,0.44,8.95,0.45,-0.44,-0.18,-0.25,8.51,8.51,8.50
75.12,8.96,0.48,8.95,0.48,-0.48,-0.22,-0.28,8.48,8.48,8.47
75.87,8.96,0.51,8.95,0.51,-0.51,-0.26,-0.32,8.45,8.44,8.44
76.63,8.95,0.54,8.95,0.54,-0.54,-0.30,-0.35,8.41,8.41,8.40
77.40,8.94,0.55,8.94,0.56,-0.56,-0.34,-0.38,8.37,8.37,8.38
78.17,8.93,0.59,8.93,0.58,-0.59,-0.39,-0.42,8.34,8.34,8.34
78.95,8.93,0.60,8.93,0.60,-0.61,-0.43,-0.45,8.32,8.31,8.33
79.74,8.93,0.63,8.93,0.63,-0.64,-0.47,-0.49,8.29,8.29,8.29
80.54,8.93,0.66,8.93,0.66,-0.66,-0.51,-0.53,8.26,8.26,8.27
81.35,8.93,0.70,8.93,0.69,-0.69,-0.55,-0.56,8.24,8.24,8.23
82.16,8.93,0.71,8.93,0.72,-0.72,-0.59,-0.60,8.21,8.21,8.21
82.98,8.93,0.75,8.93,0.75,-0.75,-0.63,-0.64,8.18,8.18,8.18
83.81,8.93,0.78,8.93,0.78,-0.78,-0.67,-0.68,8.15,8.15,8.15
84.65,8.93,0.82,8.93,0.81,-0.81,-0.71,-0.72,8.12,8.12,8.11
85.50,8.93,0.85,8.93,0.84,-0.84,-0.75,-0.76,8.08,8.08,8.08
86.35,8.93,0.88,8.93,0.88,-0.87,-0.79,-0.80,8.05,8.05,8.05
87.22,8.93,0.91,8.93,0.91,-0.91,-0.83,-0.84,8.02,8.02,8.02
88.09,8.93,0.94,8.93,0.94,-0.94,-0.87,-0.88,7.99,7.99,7.99
88.97,8.93,0.97,8.93,0.97,-0.97,-0.91,-0.92,7.95,7.95,7.96
89.86,8.93,1.00,8.93,1.00,-1.00,-0.95,-0.97,7.92,7.92,7.92
90.76,8.93,1.04,8.93,1.04,-1.04,-0.98,-1.01,7.89,7.89,7.89
91.66,8.93,1.08,8.93,1.07,-1.07,-1.02,-1.06,7.85,7.85,7.85
92.58,8.93,1.10,8.93,1.11,-1.11,-1.06,-1.10,7.82,7.82,7.82
93.51,8.93,1.14,8.93,1.14,-1.14,-1.10,-1.15,7.78,7.78,7.79
94.44,8.93,1.17,8.93,1.18,-1.18,-1.14,-1.20,7.74,7.74,7.75
95.39,8.93,1.22,8.93,1.22,-1.22,-1.17,-1.24,7.71,7.71,7.71
96.34,8.93,1.26,8.93,1.26,-1.26,-1.21,-1.29,7.67,7.67,7.67
97.30,8.93,1.29,8.93,1.30,-1.30,-1.25,-1.34,7.63,7.63,7.63
98.28,8.93,1.34,8.93,1.34,-1.33,-1.29,-1.39,7.59,7.59,7.59
99.26,8.93,1.38,8.93,1.38,-1.37,-1.32,-1.44,7.55,7.55,7.55
100.25,8.93,1.41,8.93,1.41,-1.41,-1.36,-1.49,7.52,7.52,7.51
101.25,8.93,1.44,8.93,1.44,-1.44,-1.40,-1.54,7.48,7.48,7.48
102.27,8.93,1.47,8.93,1.47,-1.47,-1.43,-1.59,7.45,7.45,7.46
103.29,8.93,1.51,8.93,1.50,-1.51,-1.47,-1.64,7.42,7.42,7.42
104.32,8.93,1.54,8.93,1.53,-1.54,-1.50,-1.70,7.39,7.39,7.39
105.37,8.93,1.56,8.93,1.56,-1.57,-1.54,-1.75,7.36,7.36,7.36
106.42,8.93,1.59,8.93,1.59,-1.59,-1.57,-1.80,7.33,7.33,7.33
107.48,8.93,1.63,8.93,1.62,-1.63,-1.61,-1.85,7.30,7.30,7.30
108.56,8.93,1.66,8.93,1.66,-1.66,-1.64,-1.89,7.27,7.27,7.27
109.64,8.93,1.68,8.93,1.69,-1.69,-1.68,-1.94,7.24,7.24,7.24
110.74,8.93,1.72,8.93,1.72,-1.72,-1.71,-1.99,7.20,7.20,7.20
111.85,8.93,1.76,8.93,1.75,-1.76,-1.74,-2.03,7.17,7.17,7.17
112.97,8.93,1.79,8.93,1.79,-1.79,-1.78,-2.08,7.13,7.13,7.14
114.10,8.93,1.82,8.93,1.83,-1.83,-1.81,-2.12,7.10,7.10,7.10
115.24,8.93,1.87,8.93,1.86,-1.87,-1.84,-2.16,7.06,7.06,7.06
116.39,8.93,1.90,8.93,1.91,-1.90,-1.88,-2.20,7.03,7.03,7.02
117.55,8.93,1.94,8.93,1.94,-1.93,-1.91,-2.23,6.99,6.99,6.99
118.73,8.93,1.98,8.93,1.97,-1.97,-1.94,-2.26,6.96,6.96,6.95
119.92,8.93,2.00,8.93,2.00,-2.00,-1.97,-2.29,6.93,6.93,6.93
121.12,8.93,2.02,8.93,2.03,-2.03,-2.00,-2.32,6.90,6.90,6.90
122.33,8.93,2.06,8.93,2.05,-2.06,-2.03,-2.34,6.87,6.87,6.87
123.55,8.93,2.08,8.93,2.08,-2.09,-2.06,-2.37,6.84,6.84,6.85
124.79,8.93,2.11,8.93,2.11,-2.12,-2.09,-2.38,6.81,6.81,6.81
126.03,8.93,2.14,8.93,2.14,-2.15,-2.12,-2.40,6.78,6.78,6.78
127.29,8.93,2.18,8.93,2.18,-2.18,-2.15,-2.41,6.75,6.75,6.75
128.57,8.93,2.22,8.93,2.21,-2.21,-2.18,-2.42,6.71,6.71,6.71
129.85,8.93,2.25,8.93,2.25,-2.24,-2.21,-2.43,6.68,6.68,6.68
131.15,8.93,2.28,8.93,2.28,-2.28,-2.23,-2.43,6.65,6.65,6.64
132.46,8.93,2.31,8.93,2.32,-2.31,-2.26,-2.43,6.61,6.61,6.61
133.79,8.93,2.35,8.92,2.35,-2.35,-2.29,-2.43,6.57,6.57,6.58
135.12,8.93,2.38,8.93,2.38,-2.39,-2.31,-2.43,6.54,6.54,6.55
136.48,8.93,2.40,8.93,2.42,-2.42,-2.34,-2.43,6.50,6.51,6.52
137.84,8.95,2.46,8.94,2.46,-2.46,-2.36,-2.42,6.49,6.49,6.49
139.22,8.96,2.50,8.95,2.50,-2.49,-2.39,-2.41,6.47,6.46,6.45
140.61,8.96,2.53,8.96,2.53,-2.52,-2.41,-2.40,6.44,6.44,6.43
142.02,8.95,2.55,8.95,2.55,-2.54,-2.44,-2.39,6.41,6.41,6.40
143.44,8.94,2.56,8.94,2.56,-2.56,-2.46,-2.38,6.38,6.38,6.38
144.87,8.92,2.56,8.92,2.57,-2.57,-2.48,-2.37,6.35,6.35,6.35
146.32,8.91,2.58,8.90,2.57,-2.57,-2.50,-2.35,6.34,6.33,6.32
147.78,8.88,2.57,8.87,2.57,-2.57,-2.53,-2.34,6.31,6.30,6.31
149.26,8.84,2.56,8.84,2.57,-2.56,-2.55,-2.33,6.27,6.28,6.28
150.75,8.81,2.56,8.81,2.55,-2.55,-2.57,-2.32,6.25,6.25,6.25
152.26,8.78,2.54,8.77,2.54,-2.54,-2.59,-2.31,6.23,6.23,6.23
153.78,8.74,2.53,8.74,2.53,-2.53,-2.61,-2.30,6.20,6.21,6.21
155.32,8.71,2.52,8.70,2.52,-2.52,-2.62,-2.29,6.18,6.18,6.18
156.88,8.67,2.51,8.67,2.52,-2.52,-2.64,-2.28,6.15,6.16,6.16
158.44,8.65,2.52,8.64,2.51,-2.52,-2.66,-2.27,6.13,6.13,6.12
160.03,8.62,2.51,8.62,2.52,-2.52,-2.67,-2.26,6.09,6.09,6.10
161.63,8.60,2.53,8.60,2.53,-2.54,-2.69,-2.26,6.06,6.06,6.07
163.24,8.59,2.55,8.59,2.55,-2.56,-2.70,-2.25,6.02,6.02,6.04
164.88,8.59,2.58,8.59,2.58,-2.59,-2.72,-2.25,5.99,6.00,6.01
166.53,8.60,2.63,8.60,2.62,-2.63,-2.73,-2.25,5.97,5.97,5.97
168.19,8.62,2.66,8.61,2.67,-2.66,-2.74,-2.25,5.96,5.95,5.95
169.87,8.63,2.71,8.62,2.71,-2.70,-2.76,-2.25,5.93,5.93,5.91
171.57,8.63,2.75,8.63,2.74,-2.73,-2.77,-2.26,5.90,5.90,5.88
173.29,8.62,2.76,8.61,2.77,-2.76,-2.78,-2.26,5.86,5.86,5.85
175.02,8.60,2.78,8.60,2.78,-2.78,-2.79,-2.27,5.82,5.82,5.82
176.77,8.57,2.78,8.57,2.79,-2.79,-2.79,-2.28,5.78,5.78,5.78
178.54,8.55,2.80,8.55,2.80,-2.80,-2.80,-2.29,5.75,5.75,5.75
180.32,8.52,2.81,8.51,2.80,-2.80,-2.81,-2.31,5.72,5.72,5.71
182.13,8.49,2.80,8.48,2.80,-2.80,-2.82,-2.32,5.69,5.68,5.68
183.95,8.44,2.79,8.44,2.80,-2.80,-2.82,-2.34,5.64,5.65,5.65
185.79,8.41,2.80,8.41,2.79,-2.80,-2.82,-2.36,5.61,5.61,5.61
187.65,8.38,2.80,8.37,2.79,-2.80,-2.83,-2.38,5.58,5.57,5.58
189.52,8.35,2.80,8.35,2.80,-2.81,-2.83,-2.41,5.54,5.54,5.55
191.42,8.33,2.81,8.33,2.80,-2.82,-2.83,-2.43,5.51,5.51,5.52
193.33,8.31,2.81,8.31,2.82,-2.83,-2.83,-2.46,5.48,5.48,5.49
195.27,8.30,2.84,8.30,2.84,-2.84,-2.83,-2.48,5.45,5.45,5.45
197.22,8.29,2.87,8.28,2.86,-2.86,-2.83,-2.51,5.43,5.43,5.42
199.19,8.28,2.88,8.27,2.88,-2.87,-2.83,-2.54,5.40,5.40,5.40
201.18,8.26,2.89,8.26,2.89,-2.88,-2.83,-2.57,5.37,5.38,5.36
203.19,8.25,2.90,8.25,2.90,-2.89,-2.82,-2.60,5.35,5.36,5.35
205.23,8.24,2.90,8.23,2.90,-2.89,-2.82,-2.63,5.34,5.33,5.33
207.28,8.21,2.90,8.20,2.90,-2.89,-2.81,-2.67,5.31,5.31,5.31
209.35,8.17,2.88,8.17,2.89,-2.89,-2.80,-2.70,5.28,5.28,5.28
211.44,8.14,2.88,8.14,2.87,-2.88,-2.80,-2.73,5.25,5.26,5.26
213.56,8.11,2.86,8.11,2.86,-2.87,-2.79,-2.76,5.23,5.23,5.25
215.69,8.08,2.85,8.08,2.85,-2.86,-2.78,-2.79,5.22,5.22,5.22
217.85,8.05,2.84,8.05,2.85,-2.84,-2.77,-2.82,5.20,5.21,5.20
220.03,8.02,2.84,8.02,2.84,-2.82,-2.75,-2.85,5.19,5.19,5.18
222.23,7.99,2.83,7.98,2.82,-2.81,-2.74,-2.88,5.18,5.18,5.16
224.45,7.94,2.79,7.94,2.79,-2.79,-2.73,-2.90,5.15,5.15,5.15
226.70,7.90,2.77,7.89,2.76,-2.77,-2.71,-2.92,5.12,5.12,5.13
228.96,7.85,2.72,7.85,2.73,-2.76,-2.70,-2.94,5.09,5.10,5.13
231.25,7.83,2.72,7.83,2.72,-2.74,-2.68,-2.96,5.09,5.09,5.11
233.57,7.81,2.71,7.81,2.71,-2.72,-2.66,-2.97,5.09,5.09,5.10
235.90,7.80,2.71,7.79,2.71,-2.70,-2.64,-2.98,5.10,5.10,5.09
238.26,7.78,2.71,7.77,2.69,-2.67,-2.62,-2.99,5.10,5.10,5.07
240.64,7.74,2.66,7.74,2.67,-2.65,-2.60,-2.99,5.09,5.09,5.08
243.05,7.70,2.62,7.70,2.63,-2.62,-2.58,-2.99,5.08,5.08,5.07
245.48,7.66,2.59,7.65,2.59,-2.59,-2.55,-2.98,5.07,5.06,5.06
247.93,7.61,2.55,7.61,2.55,-2.56,-2.53,-2.97,5.05,5.05,5.06
250.41,7.58,2.51,7.57,2.51,-2.52,-2.50,-2.95,5.05,5.05,5.07
252.92,7.54,2.47,7.54,2.48,-2.49,-2.47,-2.93,5.05,5.05,5.07
255.45,7.52,2.45,7.52,2.45,-2.45,-2.45,-2.90,5.06,5.06,5.06
258.00,7.50,2.43,7.49,2.43,-2.42,-2.42,-2.87,5.08,5.08,5.07
260.58,7.47,2.39,7.47,2.40,-2.38,-2.39,-2.84,5.09,5.09,5.07
263.19,7.44,2.36,7.43,2.36,-2.34,-2.36,-2.80,5.10,5.09,5.08
265.82,7.38,2.31,7.38,2.31,-2.30,-2.32,-2.75,5.08,5.08,5.07
268.48,7.34,2.26,7.33,2.26,-2.26,-2.29,-2.70,5.08,5.08,5.07
271.16,7.29,2.21,7.28,2.20,-2.22,-2.26,-2.65,5.07,5.06,5.08
273.87,7.23,2.15,7.23,2.16,-2.18,-2.22,-2.60,5.05,5.06,5.07
276.61,7.19,2.11,7.19,2.12,-2.13,-2.18,-2.54,5.05,5.05,5.08
279.38,7.16,2.09,7.16,2.09,-2.09,-2.15,-2.48,5.06,5.06,5.06
282.17,7.14,2.07,7.14,2.06,-2.06,-2.11,-2.41,5.08,5.08,5.07
284.99,7.12,2.03,7.11,2.03,-2.02,-2.07,-2.35,5.10,5.09,5.08
287.84,7.08,1.99,7.08,1.99,-1.98,-2.03,-2.28,5.10,5.10,5.09
290.72,7.04,1.95,7.04,1.95,-1.94,-1.99,-2.21,5.10,5.10,5.09
293.63,7.00,1.90,7.00,1.90,-1.90,-1.94,-2.13,5.10,5.10,5.10
296.57,6.96,1.85,6.96,1.85,-1.85,-1.90,-2.06,5.10,5.10,5.11
299.53,6.92,1.80,6.91,1.80,-1.81,-1.86,-1.99,5.11,5.10,5.11
302.53,6.88,1.75,6.88,1.75,-1.77,-1.81,-1.91,5.11,5.11,5.13
305.55,6.84,1.71,6.85,1.71,-1.73,-1.76,-1.84,5.11,5.12,5.13
308.61,6.83,1.68,6.82,1.68,-1.68,-1.72,-1.76,5.14,5.14,5.14
311.69,6.81,1.66,6.80,1.65,-1.64,-1.67,-1.68,5.16,5.16,5.15
314.81,6.78,1.62,6.78,1.62,-1.60,-1.62,-1.61,5.18,5.18,5.16
317.96,6.74,1.57,6.74,1.57,-1.56,-1.57,-1.53,5.18,5.18,5.16
321.14,6.70,1.52,6.69,1.52,-1.51,-1.52,-1.46,5.18,5.18,5.18
324.35,6.65,1.47,6.64,1.46,-1.47,-1.46,-1.38,5.18,5.18,5.18
327.59,6.60,1.39,6.60,1.41,-1.42,-1.41,-1.30,5.17,5.18,5.21
330.87,6.57,1.36,6.57,1.36,-1.38,-1.36,-1.23,5.19,5.19,5.20
334.18,6.55,1.34,6.54,1.33,-1.33,-1.30,-1.16,5.21,5.21,5.21
337.52,6.51,1.29,6.52,1.30,-1.29,-1.25,-1.08,5.22,5.23,5.22
340.90,6.50,1.26,6.49,1.26,-1.24,-1.19,-1.01,5.25,5.25,5.24
344.30,6.46,1.21,6.45,1.21,-1.20,-1.13,-0.94,5.26,5.25,5.24
347.75,6.42,1.16,6.41,1.16,-1.15,-1.08,-0.86,5.26,5.26,5.25
351.23,6.36,1.11,6.36,1.10,-1.10,-1.02,-0.79,5.25,5.26,5.25
354.74,6.32,1.04,6.31,1.05,-1.05,-0.96,-0.72,5.27,5.26,5.28
358.28,6.27,0.99,6.27,0.99,-1.00,-0.90,-0.65,5.27,5.27,5.28
361.87,6.23,0.94,6.23,0.94,-0.95,-0.84,-0.58,5.28,5.28,5.28
365.49,6.19,0.89,6.19,0.89,-0.90,-0.77,-0.52,5.29,5.29,5.29
369.14,6.15,0.83,6.15,0.84,-0.85,-0.71,-0.45,5.30,5.30,5.31
372.83,6.12,0.80,6.11,0.80,-0.80,-0.65,-0.38,5.32,5.31,5.32
376.56,6.08,0.76,6.08,0.76,-0.75,-0.58,-0.32,5.33,5.33,5.32
380.33,6.05,0.72,6.04,0.71,-0.70,-0.52,-0.25,5.35,5.34,5.33
384.13,6.00,0.65,6.00,0.66,-0.64,-0.46,-0.18,5.35,5.35,5.35
387.97,5.95,0.59,5.94,0.59,-0.59,-0.39,-0.12,5.36,5.36,5.35
391.85,5.89,0.52,5.89,0.52,-0.53,-0.32,-0.05,5.36,5.36,5.36
395.77,5.83,0.45,5.83,0.46,-0.46,-0.26,0.01,5.36,5.36,5.37
399.73,5.78,0.40,5.78,0.39,-0.40,-0.19,0.07,5.38,5.38,5.38
403.72,5.73,0.32,5.73,0.33,-0.33,-0.12,0.13,5.39,5.40,5.41
407.76,5.69,0.28,5.68,0.27,-0.27,-0.05,0.20,5.42,5.42,5.41
411.84,5.64,0.22,5.63,0.21,-0.20,0.02,0.26,5.43,5.43,5.42
415.96,5.58,0.14,5.57,0.15,-0.14,0.09,0.32,5.44,5.43,5.44
420.12,5.51,0.07,5.51,0.07,-0.08,0.16,0.38,5.43,5.44,5.44
424.32,5.46,0.01,5.46,0.01,-0.02,0.23,0.44,5.44,5.44,5.44
428.56,5.41,-0.06,5.40,-0.05,0.05,0.30,0.50,5.45,5.45,5.46
432.85,5.36,-0.12,5.36,-0.11,0.11,0.37,0.56,5.46,5.47,5.47
437.18,5.31,-0.17,5.31,-0.17,0.17,0.44,0.62,5.48,5.48,5.47
441.55,5.26,-0.22,5.25,-0.23,0.23,0.51,0.67,5.49,5.49,5.48
445.96,5.20,-0.29,5.20,-0.29,0.30,0.58,0.73,5.49,5.49,5.49
450.42,5.14,-0.36,5.14,-0.36,0.36,0.66,0.79,5.50,5.50,5.50
454.93,5.08,-0.43,5.08,-0.43,0.43,0.73,0.84,5.51,5.51,5.51
459.48,5.03,-0.49,5.02,-0.50,0.50,0.80,0.90,5.53,5.53,5.52
464.07,4.96,-0.58,4.96,-0.58,0.58,0.88,0.95,5.54,5.54,5.54
468.71,4.90,-0.65,4.89,-0.66,0.65,0.95,1.01,5.55,5.55,5.55
473.40,4.82,-0.74,4.82,-0.73,0.73,1.02,1.06,5.55,5.55,5.56
478.13,4.76,-0.81,4.76,-0.81,0.80,1.10,1.11,5.56,5.56,5.57
482.91,4.70,-0.88,4.69,-0.89,0.88,1.17,1.16,5.57,5.57,5.58
487.74,4.63,-0.96,4.63,-0.95,0.95,1.25,1.21,5.58,5.58,5.58
492.62,4.57,-1.03,4.57,-1.02,1.02,1.32,1.26,5.59,5.59,5.59
497.55,4.52,-1.09,4.51,-1.09,1.09,1.40,1.31,5.61,5.61,5.60
502.52,4.46,-1.16,4.46,-1.16,1.16,1.47,1.36,5.62,5.62,5.61
507.55,4.40,-1.24,4.40,-1.23,1.24,1.54,1.41,5.63,5.63,5.63
512.62,4.34,-1.31,4.34,-1.31,1.31,1.62,1.46,5.64,5.65,5.64
517.75,4.28,-1.39,4.28,-1.38,1.38,1.69,1.50,5.66,5.66,5.66
522.93,4.22,-1.46,4.21,-1.46,1.46,1.77,1.55,5.67,5.67,5.67
528.16,4.15,-1.53,4.15,-1.54,1.54,1.84,1.60,5.68,5.68,5.68
533.44,4.08,-1.61,4.08,-1.61,1.61,1.92,1.64,5.69,5.69,5.69
538.77,4.01,-1.69,4.01,-1.69,1.69,1.99,1.69,5.70,5.70,5.70
