frequency,raw,smoothed,error,error_smoothed,equalization,parametric_eq,fixed_band_eq,equalized_raw,equalized_smoothed,target
20.00,1.52,1.51,-4.54,-4.55,4.56,4.04,1.36,6.09,6.08,6.06
20.20,1.53,1.55,-4.53,-4.52,4.52,4.01,1.40,6.05,6.07,6.06
20.40,1.58,1.58,-4.48,-4.48,4.48,3.99,1.44,6.06,6.06,6.06
20.61,1.62,1.62,-4.44,-4.44,4.43,3.97,1.49,6.05,6.05,6.06
20.81,1.67,1.67,-4.39,-4.39,4.39,3.95,1.53,6.06,6.06,6.06
21.02,1.72,1.72,-4.34,-4.34,4.34,3.92,1.58,6.06,6.06,6.06
21.23,1.76,1.76,-4.30,-4.30,4.29,3.90,1.63,6.06,6.06,6.06
21.44,1.81,1.82,-4.25,-4.24,4.25,3.88,1.68,6.06,6.06,6.06
21.66,1.86,1.86,-4.20,-4.20,4.20,3.86,1.72,6.06,6.06,6.06
21.87,1.92,1.91,-4.14,-4.15,4.15,3.83,1.78,6.07,6.06,6.06
22.09,1.95,1.96,-4.10,-4.10,4.10,3.81,1.83,6.05,6.06,6.06
22.31,2.00,2.01,-4.05,-4.05,4.05,3.78,1.88,6.05,6.06,6.06
22.54,2.06,2.05,-3.99,-4.00,4.00,3.76,1.94,6.07,6.06,6.06
22.76,2.09,2.10,-3.96,-3.96,3.96,3.74,2.00,6.05,6.06,6.05
22.99,2.14,2.14,-3.91,-3.91,3.91,3.71,2.06,6.05,6.05,6.05
23.22,2.18,2.18,-3.87,-3.87,3.87,3.69,2.12,6.05,6.05,6.05
23.45,2.23,2.23,-3.82,-3.82,3.82,3.66,2.18,6.05,6.05,6.05
23.69,2.27,2.27,-3.78,-3.78,3.78,3.64,2.24,6.05,6.05,6.05
23.92,2.31,2.32,-3.74,-3.73,3.73,3.61,2.30,6.04,6.05,6.05
24.16,2.37,2.36,-3.68,-3.69,3.69,3.59,2.37,6.06,6.05,6.05
24.40,2.40,2.41,-3.64,-3.64,3.64,3.56,2.44,6.05,6.05,6.05
24.65,2.45,2.45,-3.59,-3.60,3.60,3.54,2.50,6.05,6.05,6.05
24.89,2.49,2.49,-3.55,-3.56,3.56,3.51,2.57,6.05,6.04,6.04
25.14,2.52,2.53,-3.52,-3.51,3.51,3.48,2.64,6.04,6.04,6.04
25.39,2.57,2.57,-3.47,-3.48,3.47,3.46,2.71,6.04,6.04,6.04
25.65,2.60,2.61,-3.44,-3.43,3.43,3.43,2.77,6.03,6.04,6.04
25.91,2.65,2.65,-3.39,-3.39,3.39,3.41,2.84,6.04,6.04,6.04
26.16,2.69,2.69,-3.34,-3.35,3.35,3.38,2.91,6.04,6.04,6.04
26.43,2.72,2.73,-3.31,-3.31,3.31,3.35,2.98,6.03,6.04,6.04
26.69,2.76,2.76,-3.27,-3.27,3.27,3.33,3.04,6.03,6.03,6.03
26.96,2.80,2.80,-3.23,-3.23,3.23,3.30,3.11,6.03,6.03,6.03
27.23,2.83,2.83,-3.20,-3.20,3.19,3.27,3.17,6.03,6.03,6.03
27.50,2.87,2.87,-3.16,-3.16,3.16,3.24,3.23,6.03,6.03,6.03
27.77,2.90,2.91,-3.12,-3.12,3.12,3.22,3.29,6.02,6.03,6.03
28.05,2.95,2.94,-3.07,-3.08,3.08,3.19,3.35,6.04,6.03,6.02
28.33,2.97,2.97,-3.05,-3.05,3.05,3.16,3.40,6.02,6.02,6.02
28.62,3.00,3.01,-3.02,-3.01,3.01,3.14,3.45,6.01,6.02,6.02
28.90,3.04,3.04,-2.98,-2.98,2.97,3.11,3.49,6.02,6.01,6.02
29.19,3.08,3.08,-2.93,-2.94,2.94,3.08,3.54,6.02,6.02,6.02
29.48,3.11,3.11,-2.90,-2.90,2.90,3.05,3.57,6.02,6.02,6.01
29.78,3.14,3.14,-2.87,-2.87,2.87,3.02,3.60,6.01,6.01,6.01
30.08,3.17,3.17,-2.84,-2.84,2.84,3.00,3.63,6.01,6.01,6.01
30.38,3.20,3.20,-2.80,-2.80,2.80,2.97,3.65,6.01,6.01,6.01
30.68,3.23,3.23,-2.77,-2.77,2.77,2.94,3.67,6.00,6.00,6.00
30.99,3.26,3.26,-2.74,-2.74,2.74,2.91,3.68,6.00,6.00,6.00
31.30,3.27,3.28,-2.72,-2.71,2.71,2.88,3.68,5.98,5.99,6.00
31.61,3.32,3.31,-2.67,-2.68,2.68,2.86,3.68,6.00,5.99,5.99
31.93,3.34,3.35,-2.65,-2.64,2.65,2.83,3.67,5.99,5.99,5.99
32.24,3.37,3.37,-2.61,-2.61,2.62,2.80,3.66,5.99,5.99,5.99
32.57,3.41,3.40,-2.57,-2.58,2.58,2.77,3.64,6.00,5.99,5.98
32.89,3.41,3.43,-2.57,-2.55,2.55,2.74,3.61,5.97,5.98,5.98
33.22,3.46,3.45,-2.51,-2.53,2.52,2.71,3.58,5.99,5.97,5.98
33.55,3.46,3.48,-2.51,-2.50,2.49,2.68,3.55,5.96,5.97,5.97
33.89,3.51,3.51,-2.46,-2.46,2.46,2.66,3.51,5.98,5.97,5.97
34.23,3.53,3.53,-2.43,-2.44,2.44,2.63,3.47,5.97,5.96,5.96
34.57,3.55,3.56,-2.41,-2.40,2.41,2.60,3.42,5.96,5.96,5.96
34.92,3.57,3.57,-2.38,-2.38,2.38,2.57,3.37,5.95,5.95,5.95
35.27,3.60,3.60,-2.35,-2.35,2.35,2.54,3.32,5.95,5.95,5.95
35.62,3.61,3.62,-2.33,-2.33,2.32,2.51,3.26,5.94,5.94,5.95
35.97,3.65,3.64,-2.29,-2.30,2.30,2.48,3.21,5.95,5.94,5.94
36.33,3.65,3.66,-2.28,-2.27,2.27,2.46,3.15,5.92,5.93,5.93
36.70,3.69,3.69,-2.24,-2.24,2.24,2.43,3.09,5.94,5.93,5.93
37.06,3.69,3.71,-2.23,-2.22,2.22,2.40,3.03,5.91,5.92,5.92
37.43,3.74,3.73,-2.18,-2.19,2.19,2.37,2.96,5.93,5.92,5.92
37.81,3.74,3.75,-2.17,-2.17,2.17,2.34,2.90,5.91,5.91,5.91
38.19,3.75,3.76,-2.15,-2.14,2.14,2.31,2.84,5.89,5.91,5.91
38.57,3.79,3.78,-2.11,-2.12,2.12,2.28,2.77,5.91,5.90,5.90
38.95,3.79,3.80,-2.10,-2.09,2.09,2.25,2.71,5.89,5.89,5.89
39.34,3.82,3.81,-2.06,-2.07,2.07,2.22,2.65,5.89,5.88,5.89
39.74,3.83,3.83,-2.05,-2.05,2.05,2.20,2.59,5.88,5.88,5.88
40.14,3.83,3.85,-2.04,-2.02,2.02,2.17,2.53,5.85,5.87,5.87
40.54,3.88,3.86,-1.98,-2.00,2.00,2.14,2.47,5.88,5.86,5.86
40.94,3.88,3.88,-1.97,-1.98,1.98,2.11,2.41,5.86,5.85,5.85
41.35,3.88,3.90,-1.96,-1.95,1.95,2.08,2.35,5.83,5.85,5.85
41.76,3.90,3.91,-1.93,-1.93,1.93,2.05,2.29,5.83,5.84,5.84
42.18,3.93,3.92,-1.90,-1.91,1.91,2.02,2.24,5.84,5.82,5.83
42.60,3.93,3.93,-1.89,-1.88,1.89,1.99,2.19,5.82,5.82,5.82
43.03,3.93,3.95,-1.88,-1.86,1.86,1.97,2.13,5.80,5.81,5.81
43.46,3.97,3.96,-1.83,-1.84,1.84,1.94,2.08,5.81,5.80,5.80
43.90,3.97,3.97,-1.82,-1.82,1.82,1.91,2.04,5.79,5.79,5.79
44.33,3.97,3.98,-1.81,-1.80,1.80,1.88,1.99,5.77,5.77,5.78
44.78,3.97,3.98,-1.79,-1.78,1.78,1.85,1.94,5.75,5.76,5.77
45.23,4.00,4.00,-1.75,-1.76,1.76,1.82,1.90,5.76,5.76,5.75
45.68,4.02,4.01,-1.72,-1.73,1.74,1.79,1.86,5.76,5.75,5.74
46.13,4.02,4.02,-1.71,-1.71,1.71,1.77,1.82,5.73,5.73,5.73
46.60,4.02,4.02,-1.69,-1.69,1.69,1.74,1.78,5.71,5.71,5.72
47.06,4.02,4.03,-1.68,-1.67,1.66,1.71,1.74,5.69,5.69,5.70
47.53,4.04,4.05,-1.65,-1.64,1.64,1.68,1.71,5.68,5.69,5.69
48.01,4.07,4.06,-1.60,-1.61,1.62,1.65,1.67,5.69,5.68,5.68
48.49,4.07,4.07,-1.59,-1.59,1.60,1.62,1.64,5.67,5.67,5.66
48.97,4.07,4.08,-1.57,-1.57,1.58,1.59,1.61,5.65,5.65,5.65
49.46,4.07,4.07,-1.56,-1.56,1.56,1.56,1.57,5.63,5.63,5.63
49.96,4.07,4.07,-1.54,-1.54,1.54,1.54,1.55,5.61,5.61,5.61
50.46,4.07,4.07,-1.52,-1.52,1.52,1.51,1.52,5.59,5.59,5.60
50.96,4.07,4.07,-1.51,-1.51,1.50,1.48,1.49,5.57,5.57,5.58
51.47,4.07,4.07,-1.49,-1.49,1.48,1.45,1.46,5.56,5.56,5.56
51.99,4.07,4.08,-1.47,-1.46,1.46,1.42,1.44,5.53,5.54,5.54
52.51,4.09,4.09,-1.43,-1.44,1.44,1.39,1.41,5.53,5.52,5.52
53.03,4.09,4.09,-1.41,-1.41,1.41,1.36,1.39,5.51,5.50,5.50
53.56,4.09,4.09,-1.39,-1.39,1.39,1.33,1.36,5.48,5.48,5.48
54.10,4.09,4.10,-1.37,-1.37,1.36,1.30,1.34,5.46,5.46,5.46
54.64,4.10,4.10,-1.34,-1.34,1.34,1.27,1.32,5.44,5.44,5.44
55.18,4.11,4.11,-1.30,-1.31,1.31,1.24,1.29,5.43,5.42,5.42
55.74,4.11,4.11,-1.28,-1.29,1.29,1.21,1.27,5.40,5.40,5.39
56.29,4.09,4.10,-1.28,-1.27,1.27,1.18,1.25,5.36,5.37,5.37
56.86,4.09,4.10,-1.25,-1.25,1.25,1.15,1.23,5.34,5.34,5.34
57.42,4.09,4.09,-1.23,-1.23,1.23,1.12,1.20,5.32,5.32,5.32
58.00,4.09,4.09,-1.20,-1.21,1.21,1.09,1.18,5.30,5.29,5.29
58.58,4.07,4.08,-1.19,-1.19,1.18,1.06,1.16,5.26,5.26,5.26
59.16,4.07,4.07,-1.16,-1.16,1.16,1.03,1.13,5.23,5.23,5.24
59.76,4.07,4.07,-1.14,-1.14,1.13,1.00,1.11,5.20,5.20,5.21
60.35,4.07,4.07,-1.11,-1.11,1.10,0.97,1.08,5.18,5.18,5.18
60.96,4.07,4.07,-1.08,-1.08,1.07,0.94,1.05,5.15,5.15,5.15
61.57,4.07,4.07,-1.04,-1.04,1.05,0.91,1.03,5.12,5.12,5.12
62.18,4.07,4.08,-1.01,-1.01,1.02,0.88,1.00,5.09,5.09,5.08
62.80,4.07,4.07,-0.98,-0.98,0.99,0.85,0.97,5.06,5.06,5.05
63.43,4.07,4.06,-0.94,-0.96,0.96,0.82,0.94,5.03,5.02,5.02
64.07,4.04,4.05,-0.94,-0.94,0.93,0.78,0.91,4.97,4.98,4.98
64.71,4.02,4.03,-0.92,-0.91,0.90,0.75,0.88,4.93,4.93,4.95
65.35,4.02,4.02,-0.89,-0.89,0.88,0.72,0.84,4.90,4.90,4.91
66.01,4.02,4.02,-0.85,-0.85,0.85,0.69,0.81,4.87,4.87,4.87
66.67,4.02,4.02,-0.81,-0.81,0.82,0.65,0.77,4.84,4.84,4.83
67.33,4.02,4.01,-0.77,-0.78,0.79,0.62,0.74,4.81,4.80,4.79
68.01,4.00,4.00,-0.75,-0.75,0.75,0.59,0.70,4.76,4.75,4.75
68.69,3.97,3.98,-0.74,-0.72,0.72,0.55,0.66,4.69,4.70,4.71
69.37,3.97,3.98,-0.69,-0.69,0.69,0.52,0.62,4.66,4.66,4.66
70.07,3.97,3.97,-0.65,-0.65,0.65,0.48,0.58,4.62,4.62,4.62
70.77,3.97,3.96,-0.60,-0.62,0.62,0.45,0.54,4.59,4.58,4.58
71.48,3.93,3.95,-0.60,-0.58,0.58,0.41,0.50,4.51,4.53,4.53
72.19,3.93,3.94,-0.55,-0.54,0.55,0.38,0.46,4.48,4.48,4.48
72.91,3.93,3.93,-0.50,-0.51,0.51,0.34,0.42,4.44,4.44,4.43
73.64,3.93,3.92,-0.45,-0.47,0.47,0.31,0.37,4.41,4.39,4.38
74.38,3.88,3.90,-0.45,-0.43,0.44,0.27,0.33,4.32,4.34,4.33
75.12,3.88,3.88,-0.40,-0.40,0.40,0.23,0.29,4.28,4.28,4.28
75.87,3.88,3.86,-0.35,-0.37,0.36,0.20,0.24,4.24,4.22,4.23
76.63,3.83,3.85,-0.35,-0.33,0.32,0.16,0.20,4.16,4.17,4.18
77.40,3.83,3.84,-0.29,-0.29,0.28,0.12,0.15,4.12,4.12,4.12
78.17,3.83,3.82,-0.24,-0.25,0.24,0.08,0.11,4.08,4.06,4.07
78.95,3.81,3.82,-0.20,-0.19,0.20,0.05,0.06,4.02,4.02,4.01
79.74,3.79,3.80,-0.16,-0.16,0.16,0.01,0.01,3.95,3.96,3.95
80.54,3.79,3.77,-0.10,-0.12,0.12,-0.03,-0.03,3.91,3.89,3.90
81.35,3.74,3.76,-0.09,-0.08,0.08,-0.07,-0.08,3.82,3.84,3.84
82.16,3.74,3.74,-0.03,-0.03,0.03,-0.11,-0.13,3.77,3.77,3.78
82.98,3.74,3.72,0.03,0.01,-0.01,-0.15,-0.17,3.73,3.71,3.72
83.81,3.69,3.71,0.04,0.06,-0.06,-0.19,-0.22,3.63,3.66,3.65
84.65,3.69,3.69,0.10,0.10,-0.10,-0.23,-0.27,3.59,3.59,3.59
85.50,3.69,3.68,0.16,0.15,-0.15,-0.27,-0.32,3.54,3.53,3.53
86.35,3.65,3.66,0.19,0.20,-0.20,-0.31,-0.37,3.46,3.47,3.46
87.22,3.65,3.64,0.25,0.24,-0.24,-0.35,-0.42,3.41,3.40,3.40
88.09,3.61,3.62,0.28,0.29,-0.29,-0.39,-0.47,3.32,3.33,3.33
88.97,3.60,3.60,0.34,0.34,-0.34,-0.43,-0.52,3.26,3.26,3.27
89.86,3.59,3.58,0.39,0.38,-0.39,-0.47,-0.57,3.21,3.20,3.20
90.76,3.55,3.56,0.42,0.43,-0.43,-0.51,-0.62,3.12,3.13,3.13
91.66,3.55,3.54,0.49,0.48,-0.48,-0.55,-0.67,3.07,3.06,3.06
92.58,3.51,3.52,0.52,0.53,-0.53,-0.59,-0.73,2.98,2.99,2.99
93.51,3.51,3.50,0.59,0.58,-0.58,-0.64,-0.78,2.94,2.92,2.92
94.44,3.46,3.47,0.61,0.62,-0.62,-0.68,-0.83,2.84,2.85,2.85
95.39,3.46,3.45,0.68,0.67,-0.67,-0.72,-0.88,2.79,2.78,2.78
96.34,3.42,3.43,0.71,0.72,-0.72,-0.76,-0.94,2.70,2.71,2.71
97.30,3.41,3.41,0.77,0.77,-0.77,-0.80,-0.99,2.64,2.64,2.64
98.28,3.37,3.38,0.81,0.81,-0.82,-0.84,-1.05,2.56,2.56,2.57
99.26,3.37,3.36,0.88,0.87,-0.87,-0.88,-1.10,2.51,2.49,2.49
100.25,3.32,3.33,0.90,0.91,-0.91,-0.92,-1.15,2.41,2.42,2.42
101.25,3.32,3.31,0.97,0.97,-0.96,-0.96,-1.21,2.36,2.35,2.35
102.27,3.28,3.29,1.01,1.01,-1.01,-1.00,-1.26,2.27,2.28,2.28
103.29,3.27,3.27,1.07,1.06,-1.06,-1.04,-1.32,2.21,2.21,2.20
104.32,3.23,3.24,1.10,1.11,-1.11,-1.08,-1.37,2.12,2.13,2.13
105.37,3.21,3.21,1.16,1.15,-1.16,-1.12,-1.42,2.06,2.05,2.06
106.42,3.18,3.18,1.20,1.20,-1.20,-1.16,-1.47,1.98,1.98,1.98
107.48,3.16,3.16,1.25,1.25,-1.25,-1.20,-1.53,1.91,1.91,1.91
108.56,3.14,3.14,1.30,1.30,-1.30,-1.24,-1.58,1.84,1.84,1.84
109.64,3.11,3.11,1.35,1.35,-1.35,-1.28,-1.63,1.77,1.77,1.77
110.74,3.09,3.09,1.40,1.40,-1.39,-1.31,-1.67,1.70,1.70,1.69
111.85,3.05,3.06,1.43,1.44,-1.44,-1.35,-1.72,1.61,1.62,1.62
112.97,3.04,3.03,1.49,1.48,-1.48,-1.39,-1.76,1.56,1.55,1.55
114.10,3.00,3.00,1.53,1.53,-1.53,-1.42,-1.81,1.48,1.48,1.48
115.24,2.96,2.97,1.56,1.57,-1.57,-1.46,-1.85,1.39,1.40,1.41
116.39,2.95,2.94,1.62,1.60,-1.61,-1.49,-1.89,1.34,1.33,1.33
117.55,2.90,2.91,1.64,1.65,-1.65,-1.53,-1.92,1.25,1.26,1.26
118.73,2.89,2.89,1.70,1.69,-1.69,-1.56,-1.96,1.20,1.20,1.19
119.92,2.86,2.86,1.74,1.73,-1.73,-1.60,-1.99,1.13,1.13,1.13
121.12,2.82,2.83,1.77,1.77,-1.77,-1.63,-2.02,1.05,1.06,1.06
122.33,2.79,2.79,1.80,1.80,-1.81,-1.66,-2.05,0.99,0.99,0.99
123.55,2.76,2.76,1.84,1.84,-1.84,-1.69,-2.07,0.92,0.92,0.92
124.79,2.73,2.73,1.88,1.88,-1.88,-1.72,-2.09,0.85,0.85,0.85
126.03,2.70,2.70,1.91,1.91,-1.91,-1.75,-2.11,0.79,0.79,0.79
127.29,2.67,2.67,1.95,1.95,-1.95,-1.78,-2.13,0.72,0.72,0.72
128.57,2.64,2.64,1.98,1.98,-1.98,-1.81,-2.14,0.66,0.66,0.66
129.85,2.61,2.61,2.02,2.02,-2.02,-1.84,-2.15,0.60,0.59,0.59
131.15,2.57,2.58,2.04,2.04,-2.05,-1.86,-2.16,0.53,0.53,0.53
132.46,2.54,2.54,2.07,2.08,-2.08,-1.89,-2.16,0.47,0.47,0.47
133.79,2.51,2.51,2.11,2.10,-2.10,-1.91,-2.16,0.41,0.41,0.41
135.12,2.48,2.48,2.14,2.13,-2.13,-1.94,-2.16,0.35,0.35,0.35
136.48,2.44,2.44,2.16,2.16,-2.15,-1.96,-2.16,0.29,0.29,0.29
137.84,2.40,2.41,2.17,2.18,-2.18,-1.98,-2.16,0.22,0.23,0.23
139.22,2.37,2.37,2.20,2.20,-2.20,-2.01,-2.16,0.17,0.17,0.17
140.61,2.33,2.33,2.22,2.22,-2.22,-2.03,-2.15,0.11,0.11,0.11
142.02,2.30,2.30,2.24,2.24,-2.24,-2.05,-2.15,0.06,0.06,0.06
143.44,2.27,2.27,2.27,2.27,-2.26,-2.07,-2.14,0.01,0.01,0.00
144.87,2.24,2.24,2.29,2.29,-2.28,-2.09,-2.13,-0.04,-0.04,-0.05
146.32,2.20,2.20,2.30,2.30,-2.30,-2.11,-2.12,-0.10,-0.10,-0.10
147.78,2.16,2.16,2.32,2.32,-2.32,-2.12,-2.11,-0.16,-0.16,-0.15
149.26,2.12,2.13,2.33,2.33,-2.33,-2.14,-2.11,-0.21,-0.21,-0.20
150.75,2.09,2.09,2.35,2.35,-2.35,-2.16,-2.10,-0.25,-0.25,-0.25
152.26,2.06,2.06,2.36,2.36,-2.36,-2.17,-2.09,-0.30,-0.30,-0.30
153.78,2.02,2.02,2.37,2.37,-2.37,-2.19,-2.08,-0.35,-0.35,-0.35
155.32,1.98,1.99,2.38,2.38,-2.38,-2.20,-2.08,-0.40,-0.40,-0.40
156.88,1.95,1.95,2.39,2.39,-2.39,-2.22,-2.07,-0.44,-0.44,-0.44
158.44,1.91,1.91,2.40,2.40,-2.40,-2.23,-2.07,-0.49,-0.49,-0.49
160.03,1.88,1.88,2.41,2.41,-2.41,-2.24,-2.06,-0.53,-0.54,-0.53
161.63,1.83,1.84,2.41,2.42,-2.42,-2.26,-2.06,-0.59,-0.58,-0.58
163.24,1.80,1.81,2.43,2.43,-2.42,-2.27,-2.06,-0.62,-0.62,-0.62
164.88,1.77,1.77,2.44,2.43,-2.43,-2.28,-2.06,-0.66,-0.66,-0.66
166.53,1.74,1.74,2.44,2.44,-2.43,-2.29,-2.06,-0.69,-0.70,-0.70
168.19,1.69,1.70,2.43,2.44,-2.44,-2.30,-2.06,-0.74,-0.74,-0.74
169.87,1.65,1.66,2.43,2.44,-2.44,-2.31,-2.07,-0.79,-0.78,-0.78
171.57,1.62,1.62,2.44,2.43,-2.44,-2.32,-2.08,-0.82,-0.82,-0.81
173.29,1.59,1.59,2.44,2.44,-2.44,-2.33,-2.08,-0.85,-0.85,-0.85
175.02,1.55,1.56,2.44,2.44,-2.44,-2.34,-2.09,-0.89,-0.88,-0.88
176.77,1.53,1.53,2.45,2.45,-2.44,-2.35,-2.10,-0.91,-0.91,-0.92
178.54,1.49,1.49,2.44,2.44,-2.44,-2.36,-2.12,-0.95,-0.95,-0.95
180.32,1.46,1.46,2.44,2.44,-2.44,-2.37,-2.13,-0.98,-0.98,-0.98
182.13,1.41,1.43,2.43,2.44,-2.44,-2.38,-2.15,-1.03,-1.02,-1.01
183.95,1.40,1.39,2.45,2.44,-2.44,-2.39,-2.17,-1.04,-1.05,-1.04
185.79,1.37,1.36,2.44,2.44,-2.44,-2.40,-2.19,-1.06,-1.07,-1.07
187.65,1.32,1.34,2.42,2.44,-2.43,-2.41,-2.21,-1.11,-1.10,-1.10
189.52,1.30,1.30,2.43,2.43,-2.43,-2.42,-2.23,-1.12,-1.13,-1.13
191.42,1.27,1.27,2.43,2.42,-2.42,-2.43,-2.25,-1.15,-1.15,-1.16
193.33,1.23,1.23,2.41,2.41,-2.41,-2.44,-2.28,-1.18,-1.18,-1.18
195.27,1.19,1.20,2.40,2.40,-2.40,-2.44,-2.31,-1.21,-1.21,-1.21
197.22,1.16,1.16,2.39,2.39,-2.39,-2.45,-2.34,-1.23,-1.23,-1.23
199.19,1.13,1.13,2.39,2.38,-2.38,-2.46,-2.36,-1.25,-1.26,-1.25
201.18,1.09,1.10,2.37,2.38,-2.38,-2.47,-2.39,-1.28,-1.28,-1.28
203.19,1.07,1.07,2.37,2.37,-2.37,-2.48,-2.42,-1.29,-1.30,-1.30
205.23,1.04,1.04,2.36,2.36,-2.36,-2.49,-2.46,-1.32,-1.32,-1.32
207.28,1.01,1.01,2.35,2.35,-2.36,-2.50,-2.49,-1.34,-1.34,-1.34
209.35,0.99,0.98,2.35,2.35,-2.35,-2.51,-2.52,-1.36,-1.37,-1.36
211.44,0.95,0.97,2.33,2.35,-2.35,-2.52,-2.55,-1.39,-1.38,-1.38
213.56,0.95,0.95,2.35,2.35,-2.34,-2.53,-2.58,-1.39,-1.39,-1.40
215.69,0.95,0.93,2.37,2.35,-2.35,-2.55,-2.61,-1.39,-1.42,-1.42
217.85,0.90,0.92,2.34,2.35,-2.35,-2.56,-2.64,-1.45,-1.43,-1.44
220.03,0.90,0.90,2.36,2.36,-2.37,-2.57,-2.67,-1.46,-1.46,-1.45
222.23,0.90,0.89,2.37,2.36,-2.38,-2.57,-2.70,-1.48,-1.49,-1.47
224.45,0.90,0.91,2.39,2.39,-2.40,-2.58,-2.73,-1.50,-1.49,-1.49
226.70,0.91,0.92,2.41,2.42,-2.42,-2.59,-2.75,-1.51,-1.50,-1.50
228.96,0.95,0.94,2.47,2.45,-2.45,-2.60,-2.77,-1.50,-1.51,-1.52
231.25,0.95,0.95,2.48,2.48,-2.47,-2.61,-2.79,-1.52,-1.52,-1.53
233.57,0.95,0.96,2.50,2.50,-2.50,-2.61,-2.81,-1.55,-1.54,-1.54
235.90,0.95,0.95,2.52,2.52,-2.52,-2.62,-2.82,-1.57,-1.57,-1.57
238.26,0.95,0.96,2.53,2.54,-2.53,-2.62,-2.83,-1.58,-1.57,-1.58
240.64,0.95,0.95,2.55,2.54,-2.54,-2.62,-2.84,-1.59,-1.59,-1.59
243.05,0.95,0.94,2.56,2.54,-2.54,-2.63,-2.84,-1.59,-1.60,-1.61
245.48,0.90,0.92,2.52,2.54,-2.53,-2.62,-2.84,-1.63,-1.61,-1.62
247.93,0.90,0.89,2.53,2.52,-2.52,-2.62,-2.84,-1.62,-1.63,-1.63
250.41,0.86,0.86,2.50,2.50,-2.51,-2.61,-2.83,-1.64,-1.64,-1.64
252.92,0.83,0.84,2.48,2.49,-2.49,-2.61,-2.82,-1.65,-1.65,-1.65
255.45,0.81,0.80,2.47,2.46,-2.46,-2.60,-2.81,-1.65,-1.66,-1.66
258.00,0.76,0.77,2.43,2.44,-2.44,-2.58,-2.79,-1.68,-1.67,-1.67
260.58,0.73,0.74,2.41,2.42,-2.42,-2.57,-2.76,-1.68,-1.68,-1.68
263.19,0.70,0.70,2.39,2.39,-2.39,-2.55,-2.74,-1.69,-1.69,-1.69
265.82,0.67,0.67,2.37,2.36,-2.37,-2.53,-2.71,-1.69,-1.70,-1.70
268.48,0.62,0.64,2.33,2.34,-2.34,-2.51,-2.67,-1.72,-1.71,-1.71
271.16,0.61,0.60,2.33,2.32,-2.32,-2.48,-2.64,-1.70,-1.71,-1.71
273.87,0.57,0.57,2.29,2.29,-2.29,-2.46,-2.60,-1.72,-1.72,-1.72
276.61,0.53,0.54,2.26,2.27,-2.26,-2.43,-2.56,-1.73,-1.73,-1.73
279.38,0.49,0.50,2.23,2.24,-2.24,-2.39,-2.51,-1.75,-1.74,-1.74
282.17,0.48,0.47,2.23,2.21,-2.21,-2.36,-2.47,-1.73,-1.74,-1.74
284.99,0.44,0.44,2.18,2.18,-2.18,-2.33,-2.42,-1.74,-1.74,-1.74
287.84,0.40,0.41,2.14,2.16,-2.16,-2.29,-2.37,-1.75,-1.74,-1.74
290.72,0.39,0.38,2.14,2.12,-2.13,-2.25,-2.32,-1.73,-1.75,-1.74
293.63,0.34,0.35,2.09,2.10,-2.10,-2.21,-2.27,-1.75,-1.74,-1.75
296.57,0.32,0.32,2.07,2.07,-2.07,-2.18,-2.22,-1.74,-1.74,-1.75
299.53,0.30,0.29,2.04,2.04,-2.04,-2.14,-2.16,-1.73,-1.75,-1.74
302.53,0.25,0.26,2.00,2.01,-2.01,-2.10,-2.11,-1.75,-1.74,-1.75
305.55,0.23,0.23,1.98,1.97,-1.98,-2.06,-2.06,-1.74,-1.75,-1.74
308.61,0.20,0.20,1.95,1.94,-1.95,-2.01,-2.00,-1.74,-1.75,-1.75
311.69,0.16,0.17,1.91,1.91,-1.91,-1.97,-1.95,-1.75,-1.75,-1.74
314.81,0.14,0.14,1.89,1.88,-1.88,-1.93,-1.90,-1.74,-1.75,-1.75
317.96,0.11,0.11,1.85,1.86,-1.86,-1.89,-1.85,-1.74,-1.74,-1.74
321.14,0.08,0.08,1.83,1.83,-1.83,-1.85,-1.79,-1.75,-1.75,-1.75
324.35,0.06,0.06,1.80,1.80,-1.80,-1.81,-1.74,-1.74,-1.74,-1.74
327.59,0.02,0.03,1.76,1.77,-1.77,-1.78,-1.69,-1.75,-1.74,-1.74
330.87,0.02,0.01,1.76,1.75,-1.75,-1.74,-1.64,-1.73,-1.73,-1.74
334.18,-0.02,-0.01,1.72,1.72,-1.72,-1.70,-1.59,-1.74,-1.73,-1.73
337.52,-0.03,-0.04,1.71,1.70,-1.69,-1.66,-1.54,-1.72,-1.73,-1.74
340.90,-0.08,-0.07,1.65,1.66,-1.67,-1.63,-1.50,-1.74,-1.73,-1.73
344.30,-0.08,-0.08,1.65,1.64,-1.64,-1.59,-1.45,-1.72,-1.72,-1.72
347.75,-0.12,-0.11,1.60,1.61,-1.61,-1.56,-1.40,-1.73,-1.72,-1.72
351.23,-0.12,-0.13,1.60,1.59,-1.58,-1.52,-1.36,-1.70,-1.71,-1.72
354.74,-0.17,-0.16,1.54,1.55,-1.55,-1.49,-1.32,-1.72,-1.71,-1.70
358.28,-0.17,-0.18,1.54,1.53,-1.52,-1.45,-1.28,-1.69,-1.70,-1.71
361.87,-0.22,-0.21,1.48,1.49,-1.49,-1.42,-1.23,-1.71,-1.70,-1.70
365.49,-0.22,-0.23,1.47,1.47,-1.47,-1.39,-1.19,-1.68,-1.69,-1.69
369.14,-0.26,-0.25,1.44,1.44,-1.44,-1.36,-1.15,-1.69,-1.69,-1.69
372.83,-0.27,-0.27,1.41,1.41,-1.41,-1.33,-1.12,-1.67,-1.68,-1.68
376.56,-0.31,-0.30,1.37,1.37,-1.38,-1.30,-1.08,-1.68,-1.68,-1.68
380.33,-0.33,-0.33,1.34,1.35,-1.35,-1.27,-1.04,-1.67,-1.67,-1.67
384.13,-0.36,-0.35,1.32,1.32,-1.32,-1.25,-1.01,-1.67,-1.67,-1.67
387.97,-0.37,-0.37,1.30,1.29,-1.29,-1.22,-0.97,-1.66,-1.66,-1.67
391.85,-0.40,-0.40,1.25,1.26,-1.26,-1.19,-0.94,-1.66,-1.66,-1.65
395.77,-0.42,-0.42,1.23,1.23,-1.23,-1.17,-0.91,-1.65,-1.65,-1.65
399.73,-0.45,-0.44,1.19,1.20,-1.20,-1.14,-0.88,-1.65,-1.64,-1.64
403.72,-0.45,-0.46,1.19,1.18,-1.18,-1.12,-0.85,-1.62,-1.64,-1.63
407.76,-0.50,-0.49,1.14,1.15,-1.15,-1.09,-0.82,-1.65,-1.63,-1.64
411.84,-0.50,-0.50,1.13,1.12,-1.12,-1.07,-0.79,-1.62,-1.63,-1.63
415.96,-0.54,-0.53,1.08,1.09,-1.09,-1.05,-0.76,-1.63,-1.62,-1.62
420.12,-0.54,-0.55,1.08,1.07,-1.07,-1.02,-0.74,-1.61,-1.62,-1.62
424.32,-0.58,-0.57,1.04,1.04,-1.04,-1.00,-0.71,-1.62,-1.61,-1.61
428.56,-0.59,-0.59,1.02,1.01,-1.02,-0.98,-0.69,-1.60,-1.61,-1.60
432.85,-0.62,-0.61,0.98,0.99,-0.99,-0.96,-0.66,-1.61,-1.60,-1.60
437.18,-0.64,-0.63,0.96,0.96,-0.96,-0.94,-0.64,-1.60,-1.59,-1.60
441.55,-0.64,-0.65,0.95,0.94,-0.93,-0.92,-0.62,-1.57,-1.58,-1.59
445.96,-0.68,-0.67,0.90,0.91,-0.90,-0.90,-0.60,-1.58,-1.57,-1.58
450.42,-0.68,-0.69,0.88,0.87,-0.87,-0.88,-0.58,-1.55,-1.57,-1.56
454.93,-0.73,-0.71,0.82,0.84,-0.85,-0.86,-0.56,-1.57,-1.56,-1.55
459.48,-0.73,-0.73,0.82,0.82,-0.82,-0.84,-0.54,-1.55,-1.55,-1.54
464.07,-0.73,-0.75,0.82,0.79,-0.80,-0.82,-0.52,-1.53,-1.55,-1.54
468.71,-0.78,-0.76,0.76,0.77,-0.78,-0.81,-0.50,-1.55,-1.54,-1.54
473.40,-0.78,-0.78,0.75,0.75,-0.76,-0.79,-0.49,-1.53,-1.53,-1.53
478.13,-0.78,-0.78,0.74,0.74,-0.74,-0.77,-0.47,-1.52,-1.52,-1.52
482.91,-0.78,-0.78,0.73,0.73,-0.72,-0.75,-0.46,-1.50,-1.50,-1.51
487.74,-0.78,-0.79,0.72,0.71,-0.71,-0.74,-0.45,-1.48,-1.49,-1.50
492.62,-0.81,-0.80,0.68,0.69,-0.69,-0.72,-0.43,-1.50,-1.49,-1.49
497.55,-0.82,-0.81,0.66,0.67,-0.67,-0.71,-0.42,-1.49,-1.49,-1.48
502.52,-0.82,-0.82,0.65,0.65,-0.65,-0.69,-0.41,-1.47,-1.47,-1.47
507.55,-0.82,-0.82,0.64,0.64,-0.64,-0.68,-0.40,-1.45,-1.45,-1.45
512.62,-0.82,-0.82,0.63,0.62,-0.62,-0.66,-0.39,-1.43,-1.44,-1.44
517.75,-0.83,-0.83,0.61,0.60,-0.60,-0.65,-0.39,-1.43,-1.43,-1.43
