frequency,raw
20.00,-5.35
20.20,-5.27
20.40,-5.19
20.61,-5.11
20.81,-5.03
21.02,-4.95
21.23,-4.87
21.44,-4.79
21.66,-4.71
21.87,-4.64
22.09,-4.56
22.31,-4.48
22.54,-4.41
22.76,-4.33
22.99,-4.25
23.22,-4.18
23.45,-4.10
23.69,-4.03
23.92,-3.95
24.16,-3.88
24.40,-3.81
24.65,-3.73
24.89,-3.66
25.14,-3.59
25.39,-3.52
25.65,-3.45
25.91,-3.39
26.16,-3.32
26.43,-3.25
26.69,-3.19
26.96,-3.12
27.23,-3.06
27.50,-2.99
27.77,-2.93
28.05,-2.87
28.33,-2.81
28.62,-2.76
28.90,-2.70
29.19,-2.64
29.48,-2.59
29.78,-2.53
30.08,-2.48
30.38,-2.44
30.68,-2.39
30.99,-2.35
31.30,-2.31
31.61,-2.27
31.93,-2.23
32.24,-2.19
32.57,-2.16
32.89,-2.12
33.22,-2.09
33.55,-2.07
33.89,-2.04
34.23,-2.01
34.57,-1.98
34.92,-1.96
35.27,-1.94
35.62,-1.93
35.97,-1.91
36.33,-1.90
36.70,-1.90
37.06,-1.89
37.43,-1.89
37.81,-1.88
38.19,-1.88
38.57,-1.88
38.95,-1.88
39.34,-1.88
39.74,-1.87
40.14,-1.87
40.54,-1.88
40.94,-1.89
41.35,-1.89
41.76,-1.90
42.18,-1.90
42.60,-1.91
43.03,-1.92
43.46,-1.93
43.90,-1.94
44.33,-1.94
44.78,-1.95
45.23,-1.95
45.68,-1.94
46.13,-1.94
46.60,-1.94
47.06,-1.94
47.53,-1.93
48.01,-1.92
48.49,-1.91
48.97,-1.90
49.46,-1.89
49.96,-1.87
50.46,-1.86
50.96,-1.84
51.47,-1.83
51.99,-1.81
52.51,-1.79
53.03,-1.77
53.56,-1.74
54.10,-1.72
54.64,-1.69
55.18,-1.67
55.74,-1.66
56.29,-1.64
56.86,-1.63
57.42,-1.63
58.00,-1.62
58.58,-1.62
59.16,-1.62
59.76,-1.63
60.35,-1.64
60.96,-1.65
61.57,-1.67
62.18,-1.69
62.80,-1.70
63.43,-1.73
64.07,-1.75
64.71,-1.77
65.35,-1.79
66.01,-1.82
66.67,-1.85
67.33,-1.88
68.01,-1.91
68.69,-1.94
69.37,-1.97
70.07,-1.99
70.77,-2.01
71.48,-2.04
72.19,-2.07
72.91,-2.09
73.64,-2.10
74.38,-2.13
75.12,-2.16
75.87,-2.20
76.63,-2.25
77.40,-2.30
78.17,-2.35
78.95,-2.40
79.74,-2.45
80.54,-2.51
81.35,-2.57
82.16,-2.63
82.98,-2.68
83.81,-2.74
84.65,-2.80
85.50,-2.87
86.35,-2.94
87.22,-3.02
88.09,-3.08
88.97,-3.13
89.86,-3.18
90.76,-3.24
91.66,-3.31
92.58,-3.36
93.51,-3.42
94.44,-3.48
95.39,-3.54
96.34,-3.60
97.30,-3.65
98.28,-3.69
99.26,-3.74
100.25,-3.78
101.25,-3.82
102.27,-3.84
103.29,-3.85
104.32,-3.86
105.37,-3.87
106.42,-3.88
107.48,-3.89
108.56,-3.89
109.64,-3.89
110.74,-3.89
111.85,-3.89
112.97,-3.88
114.10,-3.86
115.24,-3.84
116.39,-3.83
117.55,-3.82
118.73,-3.78
119.92,-3.73
121.12,-3.68
122.33,-3.64
123.55,-3.59
124.79,-3.53
126.03,-3.47
127.29,-3.44
128.57,-3.39
129.85,-3.31
131.15,-3.25
132.46,-3.22
133.79,-3.18
135.12,-3.12
136.48,-3.07
137.84,-3.00
139.22,-2.95
140.61,-2.90
142.02,-2.84
143.44,-2.81
144.87,-2.76
146.32,-2.71
147.78,-2.65
149.26,-2.61
150.75,-2.57
152.26,-2.54
153.78,-2.50
155.32,-2.46
156.88,-2.40
158.44,-2.37
160.03,-2.31
161.63,-2.26
163.24,-2.21
164.88,-2.14
166.53,-2.07
168.19,-2.00
169.87,-1.91
171.57,-1.84
173.29,-1.78
175.02,-1.68
176.77,-1.61
178.54,-1.53
180.32,-1.46
182.13,-1.38
183.95,-1.27
185.79,-1.19
187.65,-1.12
189.52,-1.05
191.42,-0.98
193.33,-0.91
195.27,-0.82
197.22,-0.74
199.19,-0.67
201.18,-0.61
203.19,-0.55
205.23,-0.50
207.28,-0.45
209.35,-0.40
211.44,-0.34
213.56,-0.29
215.69,-0.25
217.85,-0.20
220.03,-0.17
222.23,-0.13
224.45,-0.09
226.70,-0.06
228.96,-0.05
231.25,-0.03
233.57,-0.01
235.90,0.01
238.26,0.03
240.64,0.05
243.05,0.06
245.48,0.08
247.93,0.12
250.41,0.14
252.92,0.18
255.45,0.20
258.00,0.24
260.58,0.27
263.19,0.30
265.82,0.33
268.48,0.35
271.16,0.36
273.87,0.37
276.61,0.37
279.38,0.36
282.17,0.35
284.99,0.35
287.84,0.34
290.72,0.33
293.63,0.33
296.57,0.33
299.53,0.34
302.53,0.36
305.55,0.38
308.61,0.40
311.69,0.42
314.81,0.44
317.96,0.47
321.14,0.51
324.35,0.56
327.59,0.61
330.87,0.66
334.18,0.70
337.52,0.76
340.90,0.81
344.30,0.87
347.75,0.91
351.23,0.96
354.74,1.00
358.28,1.06
361.87,1.12
365.49,1.20
369.14,1.26
372.83,1.31
376.56,1.38
380.33,1.43
384.13,1.47
387.97,1.52
391.85,1.56
395.77,1.59
399.73,1.61
403.72,1.63
407.76,1.65
411.84,1.68
415.96,1.70
420.12,1.71
424.32,1.69
428.56,1.68
432.85,1.66
437.18,1.63
441.55,1.59
445.96,1.53
450.42,1.44
454.93,1.35
459.48,1.23
464.07,1.12
468.71,1.00
473.40,0.83
478.13,0.67
482.91,0.50
487.74,0.33
492.62,0.15
497.55,-0.03
502.52,-0.22
507.55,-0.41
512.62,-0.58
517.75,-0.75
522.93,-0.90
528.16,-1.01
533.44,-1.08
538.77,-1.14
544.16,-1.16
549.60,-1.15
555.10,-1.09
560.65,-1.01
566.25,-0.91
571.92,-0.78
577.64,-0.63
583.41,-0.48
589.25,-0.32
595.14,-0.14
601.09,0.03
607.10,0.17
613.17,0.29
619.30,0.42
625.50,0.55
631.75,0.65
638.07,0.75
644.45,0.82
650.89,0.91
657.40,0.95
663.98,0.98
670.62,1.00
677.32,1.01
684.10,1.00
690.94,0.98
697.85,0.94
704.83,0.90
711.87,0.82
718.99,0.76
726.18,0.67
733.44,0.59
740.78,0.50
748.19,0.43
755.67,0.35
763.23,0.28
770.86,0.20
778.57,0.12
786.35,0.06
794.22,0.00
802.16,-0.05
810.18,-0.10
818.28,-0.13
826.46,-0.17
834.73,-0.22
843.08,-0.26
851.51,-0.30
860.02,-0.36
868.62,-0.41
877.31,-0.47
886.08,-0.50
894.94,-0.53
903.89,-0.55
912.93,-0.56
922.06,-0.56
931.28,-0.55
940.59,-0.52
950.00,-0.48
959.50,-0.42
969.09,-0.33
978.78,-0.24
988.57,-0.14
998.46,-0.02
1008.44,0.10
1018.53,0.22
1028.71,0.33
1039.00,0.45
1049.39,0.55
1059.88,0.67
1070.48,0.77
1081.19,0.87
1092.00,0.96
1102.92,1.04
1113.95,1.12
1125.09,1.18
1136.34,1.25
1147.70,1.29
1159.18,1.32
1170.77,1.33
1182.48,1.33
1194.30,1.32
1206.25,1.30
1218.31,1.28
1230.49,1.24
1242.80,1.18
1255.22,1.12
1267.78,1.06
1280.45,0.99
1293.26,0.91
1306.19,0.82
1319.25,0.73
1332.45,0.64
1345.77,0.54
1359.23,0.44
1372.82,0.34
1386.55,0.24
1400.41,0.15
1414.42,0.06
1428.56,-0.02
1442.85,-0.09
1457.28,-0.16
1471.85,-0.23
1486.57,-0.27
1501.43,-0.32
1516.45,-0.37
1531.61,-0.42
1546.93,-0.47
1562.40,-0.53
1578.02,-0.59
1593.80,-0.64
1609.74,-0.69
1625.84,-0.73
1642.10,-0.78
1658.52,-0.84
1675.10,-0.88
1691.85,-0.92
1708.77,-0.95
1725.86,-0.99
1743.12,-1.03
1760.55,-1.07
1778.15,-1.12
1795.94,-1.16
1813.90,-1.21
1832.03,-1.27
1850.36,-1.35
1868.86,-1.43
1887.55,-1.52
1906.42,-1.62
1925.49,-1.71
1944.74,-1.81
1964.19,-1.90
1983.83,-2.01
2003.67,-2.12
2023.71,-2.24
2043.94,-2.36
2064.38,-2.47
2085.03,-2.57
2105.88,-2.69
2126.94,-2.81
2148.20,-2.92
2169.69,-3.02
2191.38,-3.14
2213.30,-3.26
2235.43,-3.39
2257.78,-3.50
2280.36,-3.60
2303.17,-3.70
2326.20,-3.80
2349.46,-3.90
2372.95,-3.99
2396.68,-4.07
2420.65,-4.14
2444.86,-4.22
2469.31,-4.27
2494.00,-4.33
2518.94,-4.39
2544.13,-4.44
2569.57,-4.49
2595.27,-4.54
2621.22,-4.59
2647.43,-4.64
2673.90,-4.69
2700.64,-4.73
2727.65,-4.76
2754.93,-4.79
2782.48,-4.81
2810.30,-4.84
2838.40,-4.87
2866.79,-4.89
2895.46,-4.89
2924.41,-4.87
2953.65,-4.85
2983.19,-4.82
3013.02,-4.78
3043.15,-4.72
3073.58,-4.65
3104.32,-4.55
3135.36,-4.45
3166.72,-4.34
3198.38,-4.21
3230.37,-4.07
3262.67,-3.90
3295.30,-3.73
3328.25,-3.56
3361.53,-3.40
3395.15,-3.23
3429.10,-3.05
3463.39,-2.87
3498.03,-2.70
3533.01,-2.52
3568.34,-2.35
3604.02,-2.20
3640.06,-2.05
3676.46,-1.91
3713.22,-1.76
3750.36,-1.61
3787.86,-1.47
3825.74,-1.35
3864.00,-1.23
3902.64,-1.11
3941.66,-1.00
3981.08,-0.90
4020.89,-0.81
4061.10,-0.74
4101.71,-0.68
4142.73,-0.63
4184.15,-0.60
4226.00,-0.59
4268.26,-0.61
4310.94,-0.65
4354.05,-0.71
4397.59,-0.79
4441.56,-0.90
4485.98,-1.02
4530.84,-1.17
4576.15,-1.34
4621.91,-1.54
4668.13,-1.75
4714.81,-1.99
4761.96,-2.24
4809.58,-2.52
4857.67,-2.82
4906.25,-3.14
4955.31,-3.49
5004.87,-3.85
5054.91,-4.21
5105.46,-4.58
5156.52,-4.96
5208.08,-5.32
5260.16,-5.63
5312.77,-5.91
5365.89,-6.12
5419.55,-6.24
5473.75,-6.31
5528.49,-6.30
5583.77,-6.21
5639.61,-6.02
5696.00,-5.75
5752.96,-5.39
5810.49,-4.96
5868.60,-4.49
5927.28,-3.96
5986.56,-3.40
6046.42,-2.82
6106.89,-2.21
6167.96,-1.62
6229.64,-1.03
6291.93,-0.46
6354.85,0.10
6418.40,0.61
6482.58,1.10
6547.41,1.57
6612.88,1.98
6679.01,2.35
6745.80,2.68
6813.26,2.98
6881.39,3.23
6950.21,3.46
7019.71,3.65
7089.91,3.81
7160.81,3.95
7232.41,4.06
7304.74,4.14
7377.79,4.21
7451.56,4.25
7526.08,4.27
7601.34,4.25
7677.35,4.21
7754.13,4.14
7831.67,4.04
7909.98,3.93
7989.08,3.78
8068.98,3.59
8149.67,3.40
8231.16,3.20
8313.47,2.98
8396.61,2.76
8480.57,2.53
8565.38,2.32
8651.03,2.12
8737.54,1.95
8824.92,1.80
8913.17,1.68
9002.30,1.60
9092.32,1.54
9183.25,1.51
9275.08,1.49
9367.83,1.50
9461.51,1.52
9556.12,1.56
9651.68,1.60
9748.20,1.63
9845.68,1.66
9944.14,1.67
10043.58,1.66
10144.02,1.64
10245.46,1.60
10347.91,1.54
10451.39,1.47
10555.91,1.38
10661.46,1.27
10768.08,1.14
10875.76,0.99
10984.52,0.84
11094.36,0.66
11205.31,0.46
11317.36,0.26
11430.53,0.04
11544.84,-0.19
11660.29,-0.43
11776.89,-0.70
11894.66,-0.99
12013.60,-1.28
12133.74,-1.56
12255.08,-1.86
12377.63,-2.14
12501.41,-2.42
12626.42,-2.68
12752.68,-2.93
12880.21,-3.15
13009.01,-3.35
13139.10,-3.51
13270.49,-3.64
13403.20,-3.75
13537.23,-3.83
13672.60,-3.89
13809.33,-3.91
13947.42,-3.91
14086.90,-3.89
14227.77,-3.86
14370.04,-3.81
14513.74,-3.75
14658.88,-3.69
14805.47,-3.63
14953.52,-3.60
15103.06,-3.57
15254.09,-3.58
15406.63,-3.61
15560.70,-3.67
15716.30,-3.78
15873.47,-3.92
16032.20,-4.12
16192.52,-4.36
16354.45,-4.65
16517.99,-4.98
16683.17,-5.34
16850.01,-5.72
17018.51,-6.13
17188.69,-6.55
17360.58,-6.98
17534.18,-7.43
17709.53,-7.89
17886.62,-8.36
18065.49,-8.83
18246.14,-9.33
18428.60,-9.84
18612.89,-10.38
18799.02,-10.93
18987.01,-11.49
19176.88,-12.06
19368.65,-12.65
19562.33,-13.26
19757.96,-13.88
19955.54,-14.52
