frequency,raw,error,smoothed,error_smoothed,equalization,parametric_eq,equalized_raw,equalized_smoothed,target
20,-18.69,-19.21,-18.71,-19.23,6.00,2.49,-12.69,-12.71,0.52
21,-18.07,-18.59,-18.07,-18.59,6.00,2.86,-12.07,-12.07,0.52
22,-17.53,-18.05,-17.46,-17.99,6.00,3.26,-11.53,-11.46,0.52
23,-16.82,-17.34,-16.88,-17.40,6.00,3.70,-10.82,-10.88,0.53
24,-16.38,-16.91,-16.32,-16.85,6.00,4.17,-10.38,-10.32,0.53
25,-15.76,-16.29,-15.78,-16.31,6.00,4.64,-9.76,-9.78,0.53
26,-15.18,-15.71,-15.28,-15.81,6.00,5.12,-9.18,-9.28,0.53
27,-14.87,-15.40,-14.80,-15.33,6.00,5.58,-8.87,-8.80,0.53
28,-14.37,-14.90,-14.34,-14.87,6.00,6.00,-8.37,-8.34,0.53
29,-13.90,-14.43,-13.91,-14.44,6.00,6.35,-7.90,-7.91,0.53
30,-13.47,-14.00,-13.50,-14.03,6.00,6.61,-7.47,-7.50,0.53
31,-13.06,-13.59,-13.10,-13.63,6.00,6.78,-7.06,-7.10,0.53
32,-12.76,-13.29,-12.73,-13.26,6.00,6.85,-6.76,-6.73,0.53
33,-12.33,-12.86,-12.36,-12.89,6.00,6.84,-6.33,-6.36,0.53
34,-12.08,-12.60,-12.01,-12.53,6.00,6.77,-6.08,-6.01,0.53
35,-11.69,-12.21,-11.66,-12.18,6.00,6.66,-5.69,-5.66,0.52
36,-11.17,-11.69,-11.31,-11.83,6.00,6.52,-5.17,-5.31,0.52
37,-11.14,-11.65,-10.97,-11.49,6.00,6.37,-5.14,-4.97,0.51
38,-10.66,-11.17,-10.63,-11.14,6.00,6.23,-4.66,-4.63,0.51
39,-10.25,-10.75,-10.30,-10.80,6.00,6.11,-4.25,-4.30,0.50
40,-10.00,-10.49,-9.97,-10.47,6.00,6.00,-4.00,-3.97,0.49
41,-9.57,-10.05,-9.65,-10.14,6.00,5.92,-3.57,-3.65,0.48
42,-9.34,-9.81,-9.34,-9.81,6.00,5.86,-3.34,-3.34,0.47
43,-9.11,-9.57,-9.03,-9.49,6.00,5.83,-3.11,-3.03,0.46
44,-8.66,-9.11,-8.72,-9.17,6.00,5.82,-2.66,-2.72,0.45
45,-8.43,-8.86,-8.42,-8.86,6.00,5.83,-2.43,-2.42,0.44
46,-8.37,-8.79,-8.14,-8.56,6.00,5.86,-2.37,-2.14,0.42
47,-7.98,-8.38,-7.88,-8.28,6.00,5.92,-1.98,-1.88,0.40
48,-7.70,-8.08,-7.66,-8.05,6.00,5.99,-1.70,-1.66,0.39
49,-7.52,-7.88,-7.51,-7.88,6.00,6.07,-1.52,-1.51,0.37
50,-7.29,-7.63,-7.45,-7.79,6.00,6.17,-1.29,-1.45,0.35
51,-7.29,-7.61,-7.49,-7.81,6.00,6.27,-1.29,-1.49,0.33
52,-7.39,-7.69,-7.64,-7.95,6.00,6.38,-1.39,-1.64,0.30
53,-7.75,-8.03,-7.91,-8.18,6.00,6.49,-1.75,-1.91,0.28
54,-7.98,-8.23,-8.25,-8.51,6.00,6.60,-1.98,-2.25,0.26
55,-8.41,-8.64,-8.64,-8.87,6.00,6.71,-2.41,-2.64,0.23
56,-9.23,-9.43,-9.04,-9.24,6.00,6.80,-3.23,-3.04,0.21
57,-9.80,-9.98,-9.39,-9.57,6.00,6.88,-3.80,-3.39,0.18
58,-10.03,-10.18,-9.66,-9.81,6.00,6.95,-4.03,-3.66,0.15
59,-10.03,-10.15,-9.82,-9.94,6.00,6.99,-4.03,-3.82,0.12
60,-10.03,-10.12,-9.86,-9.96,6.00,7.02,-4.03,-3.86,0.10
61,-9.80,-9.87,-9.80,-9.87,6.00,7.02,-3.80,-3.80,0.07
62,-9.57,-9.61,-9.65,-9.69,6.00,7.00,-3.57,-3.65,0.04
63,-9.34,-9.35,-9.43,-9.44,6.00,6.95,-3.34,-3.43,0.01
64,-9.02,-9.00,-9.18,-9.16,6.00,6.89,-3.02,-3.18,-0.02
65,-8.84,-8.79,-8.91,-8.86,6.00,6.80,-2.84,-2.91,-0.05
66,-8.66,-8.58,-8.65,-8.57,6.00,6.70,-2.66,-2.65,-0.08
67,-8.43,-8.32,-8.40,-8.29,6.00,6.58,-2.43,-2.40,-0.11
68,-8.11,-7.97,-8.17,-8.04,6.00,6.44,-2.11,-2.17,-0.14
69,-7.95,-7.78,-7.96,-7.79,6.00,6.30,-1.95,-1.96,-0.17
70,-7.75,-7.55,-7.76,-7.57,6.00,6.15,-1.75,-1.76,-0.20
71,-7.52,-7.29,-7.58,-7.35,6.00,5.99,-1.52,-1.58,-0.23
72,-7.51,-7.25,-7.40,-7.15,6.00,5.83,-1.51,-1.40,-0.26
73,-7.29,-7.00,-7.24,-6.95,6.00,5.66,-1.29,-1.24,-0.29
74,-7.06,-6.74,-7.08,-6.77,6.00,5.50,-1.06,-1.08,-0.31
75,-6.89,-6.54,-6.93,-6.59,6.00,5.34,-0.89,-0.93,-0.34
76,-6.77,-6.39,-6.80,-6.42,6.00,5.18,-0.77,-0.80,-0.37
77,-6.61,-6.21,-6.66,-6.26,5.98,5.02,-0.63,-0.69,-0.40
78,-6.54,-6.11,-6.54,-6.11,5.92,4.86,-0.61,-0.61,-0.43
79,-6.38,-5.92,-6.41,-5.95,5.85,4.71,-0.53,-0.57,-0.46
80,-6.38,-5.89,-6.28,-5.79,5.74,4.57,-0.64,-0.54,-0.49
81,-6.23,-5.71,-6.15,-5.63,5.62,4.43,-0.61,-0.54,-0.52
82,-6.14,-5.59,-6.02,-5.47,5.47,4.29,-0.67,-0.55,-0.55
83,-5.82,-5.24,-5.88,-5.30,5.30,4.16,-0.52,-0.58,-0.58
84,-5.70,-5.09,-5.74,-5.14,5.14,4.04,-0.56,-0.60,-0.60
85,-5.47,-4.84,-5.61,-4.98,4.98,3.92,-0.49,-0.63,-0.63
86,-5.47,-4.81,-5.49,-4.83,4.83,3.80,-0.64,-0.66,-0.66
87,-5.47,-4.78,-5.38,-4.69,4.69,3.69,-0.78,-0.69,-0.69
88,-5.24,-4.52,-5.28,-4.56,4.56,3.59,-0.68,-0.71,-0.71
89,-5.24,-4.50,-5.19,-4.45,4.45,3.49,-0.79,-0.74,-0.74
90,-5.06,-4.29,-5.10,-4.33,4.33,3.39,-0.72,-0.77,-0.77
91,-5.01,-4.22,-5.02,-4.23,4.23,3.30,-0.78,-0.79,-0.79
92,-5.01,-4.19,-4.94,-4.13,4.13,3.21,-0.88,-0.82,-0.82
93,-4.88,-4.04,-4.87,-4.03,4.03,3.13,-0.85,-0.84,-0.84
94,-4.78,-3.91,-4.80,-3.94,3.94,3.05,-0.84,-0.86,-0.86
95,-4.77,-3.88,-4.73,-3.84,3.84,2.98,-0.92,-0.88,-0.89
96,-4.56,-3.65,-4.66,-3.76,3.76,2.90,-0.80,-0.91,-0.91
97,-4.56,-3.63,-4.59,-3.67,3.67,2.83,-0.89,-0.93,-0.93
98,-4.56,-3.61,-4.53,-3.58,3.58,2.77,-0.98,-0.95,-0.95
99,-4.56,-3.59,-4.46,-3.49,3.49,2.70,-1.07,-0.97,-0.97
100,-4.33,-3.34,-4.38,-3.39,3.39,2.64,-0.94,-0.99,-0.99
101,-4.33,-3.32,-4.31,-3.29,3.29,2.59,-1.03,-1.01,-1.00
102,-4.33,-3.31,-4.23,-3.19,3.19,2.53,-1.13,-1.04,-1.02
104,-4.10,-3.02,-4.15,-3.09,3.09,2.43,-1.00,-1.06,-1.07
105,-4.10,-3.01,-4.08,-3.00,3.00,2.38,-1.10,-1.08,-1.09
106,-3.94,-2.83,-4.01,-2.91,2.91,2.33,-1.03,-1.10,-1.11
107,-3.87,-2.75,-3.95,-2.83,2.83,2.29,-1.03,-1.12,-1.12
108,-3.87,-2.73,-3.90,-2.76,2.76,2.24,-1.10,-1.14,-1.14
109,-3.87,-2.71,-3.85,-2.70,2.70,2.20,-1.17,-1.15,-1.15
110,-3.87,-2.70,-3.80,-2.63,2.63,2.16,-1.23,-1.17,-1.17
111,-3.87,-2.68,-3.75,-2.56,2.56,2.12,-1.30,-1.19,-1.19
112,-3.64,-2.43,-3.69,-2.49,2.49,2.08,-1.15,-1.21,-1.20
113,-3.64,-2.42,-3.63,-2.40,2.40,2.05,-1.24,-1.22,-1.22
114,-3.62,-2.38,-3.56,-2.31,2.31,2.01,-1.31,-1.24,-1.24
115,-3.42,-2.16,-3.48,-2.22,2.22,1.98,-1.20,-1.27,-1.26
117,-3.42,-2.11,-3.41,-2.12,2.12,1.91,-1.29,-1.29,-1.30
118,-3.39,-2.07,-3.35,-2.04,2.04,1.88,-1.35,-1.31,-1.32
119,-3.19,-1.85,-3.30,-1.96,1.96,1.84,-1.23,-1.34,-1.34
120,-3.19,-1.83,-3.25,-1.88,1.88,1.81,-1.30,-1.37,-1.36
121,-3.19,-1.81,-3.21,-1.82,1.82,1.78,-1.37,-1.39,-1.38
123,-3.19,-1.76,-3.17,-1.75,1.75,1.72,-1.43,-1.42,-1.43
124,-3.19,-1.74,-3.13,-1.69,1.69,1.69,-1.50,-1.44,-1.45
125,-3.19,-1.72,-3.08,-1.61,1.61,1.67,-1.58,-1.47,-1.47
126,-3.04,-1.55,-3.02,-1.53,1.53,1.64,-1.51,-1.49,-1.48
128,-2.96,-1.43,-2.96,-1.44,1.44,1.58,-1.52,-1.52,-1.53
129,-2.87,-1.32,-2.89,-1.34,1.34,1.55,-1.53,-1.54,-1.55
130,-2.73,-1.16,-2.81,-1.24,1.24,1.53,-1.48,-1.57,-1.57
131,-2.73,-1.14,-2.74,-1.14,1.14,1.50,-1.58,-1.59,-1.58
133,-2.73,-1.10,-2.67,-1.05,1.05,1.45,-1.68,-1.62,-1.62
134,-2.55,-0.91,-2.60,-0.96,0.96,1.42,-1.59,-1.64,-1.64
135,-2.51,-0.85,-2.54,-0.87,0.87,1.40,-1.64,-1.66,-1.66
137,-2.51,-0.82,-2.48,-0.79,0.79,1.35,-1.72,-1.69,-1.69
138,-2.51,-0.80,-2.43,-0.72,0.72,1.32,-1.79,-1.71,-1.71
140,-2.31,-0.57,-2.38,-0.64,0.64,1.27,-1.66,-1.73,-1.74
141,-2.28,-0.52,-2.33,-0.57,0.57,1.25,-1.70,-1.75,-1.75
142,-2.28,-0.51,-2.28,-0.50,0.50,1.22,-1.77,-1.77,-1.77
144,-2.28,-0.48,-2.23,-0.43,0.43,1.18,-1.85,-1.79,-1.80
145,-2.28,-0.47,-2.17,-0.36,0.36,1.16,-1.92,-1.81,-1.81
147,-2.05,-0.21,-2.12,-0.29,0.29,1.11,-1.76,-1.83,-1.84
148,-2.05,-0.20,-2.07,-0.22,0.22,1.09,-1.83,-1.85,-1.85
150,-2.05,-0.18,-2.02,-0.16,0.16,1.05,-1.89,-1.87,-1.87
151,-2.05,-0.17,-1.99,-0.10,0.10,1.03,-1.95,-1.88,-1.88
153,-2.03,-0.13,-1.96,-0.07,0.07,0.98,-1.96,-1.90,-1.90
154,-1.85,0.06,-1.97,-0.05,0.05,0.96,-1.80,-1.91,-1.91
156,-1.90,0.03,-1.99,-0.06,0.06,0.93,-1.83,-1.93,-1.93
157,-2.05,-0.11,-2.05,-0.10,0.10,0.91,-1.94,-1.94,-1.94
159,-2.05,-0.09,-2.12,-0.17,0.17,0.87,-1.88,-1.96,-1.96
160,-2.11,-0.14,-2.22,-0.25,0.25,0.85,-1.86,-1.97,-1.97
162,-2.28,-0.30,-2.32,-0.33,0.33,0.81,-1.94,-1.98,-1.98
164,-2.53,-0.53,-2.41,-0.41,0.41,0.78,-2.11,-2.00,-2.00
165,-2.69,-0.68,-2.49,-0.48,0.48,0.76,-2.21,-2.01,-2.00
167,-2.68,-0.66,-2.54,-0.52,0.52,0.73,-2.16,-2.02,-2.02
169,-2.51,-0.47,-2.57,-0.54,0.54,0.70,-1.97,-2.03,-2.03
170,-2.51,-0.47,-2.57,-0.53,0.53,0.68,-1.98,-2.04,-2.04
172,-2.51,-0.46,-2.55,-0.50,0.50,0.65,-2.00,-2.05,-2.05
174,-2.51,-0.45,-2.52,-0.46,0.46,0.62,-2.05,-2.06,-2.06
175,-2.51,-0.44,-2.48,-0.41,0.41,0.61,-2.10,-2.07,-2.06
177,-2.51,-0.43,-2.43,-0.36,0.36,0.58,-2.15,-2.07,-2.07
179,-2.28,-0.20,-2.38,-0.30,0.30,0.55,-1.98,-2.08,-2.08
181,-2.28,-0.19,-2.33,-0.24,0.24,0.52,-2.03,-2.09,-2.09
183,-2.28,-0.18,-2.28,-0.19,0.19,0.50,-2.09,-2.09,-2.10
184,-2.28,-0.18,-2.24,-0.14,0.14,0.48,-2.14,-2.10,-2.10
186,-2.28,-0.17,-2.18,-0.08,0.08,0.46,-2.20,-2.10,-2.10
188,-2.07,0.04,-2.13,-0.02,0.02,0.43,-2.05,-2.11,-2.11
190,-2.05,0.07,-2.08,0.04,-0.04,0.41,-2.08,-2.11,-2.11
192,-2.05,0.07,-2.02,0.10,-0.10,0.39,-2.14,-2.12,-2.12
194,-2.05,0.07,-1.97,0.15,-0.15,0.36,-2.20,-2.12,-2.12
196,-1.89,0.23,-1.92,0.21,-0.21,0.34,-2.09,-2.12,-2.12
198,-1.82,0.31,-1.87,0.25,-0.25,0.32,-2.07,-2.12,-2.12
200,-1.82,0.31,-1.84,0.29,-0.29,0.30,-2.11,-2.13,-2.13
202,-1.82,0.31,-1.81,0.32,-0.32,0.28,-2.13,-2.13,-2.13
204,-1.82,0.31,-1.80,0.33,-0.33,0.26,-2.14,-2.13,-2.13
206,-1.82,0.31,-1.80,0.32,-0.32,0.24,-2.14,-2.13,-2.13
208,-1.82,0.31,-1.82,0.30,-0.30,0.22,-2.12,-2.13,-2.13
210,-1.82,0.31,-1.86,0.27,-0.27,0.20,-2.09,-2.13,-2.13
212,-1.82,0.31,-1.91,0.22,-0.22,0.18,-2.04,-2.13,-2.13
214,-2.02,0.11,-1.97,0.16,-0.16,0.16,-2.17,-2.13,-2.13
216,-2.05,0.08,-2.04,0.09,-0.09,0.14,-2.14,-2.13,-2.12
218,-2.05,0.08,-2.10,0.02,-0.02,0.12,-2.07,-2.12,-2.12
221,-2.18,-0.05,-2.16,-0.04,0.04,0.10,-2.14,-2.12,-2.12
223,-2.28,-0.16,-2.21,-0.09,0.09,0.08,-2.19,-2.12,-2.12
225,-2.28,-0.16,-2.24,-0.12,0.12,0.06,-2.16,-2.12,-2.12
227,-2.28,-0.16,-2.25,-0.14,0.14,0.05,-2.14,-2.12,-2.12
229,-2.28,-0.16,-2.25,-0.13,0.13,0.03,-2.15,-2.12,-2.12
232,-2.28,-0.16,-2.22,-0.11,0.11,0.01,-2.17,-2.12,-2.12
234,-2.24,-0.13,-2.19,-0.08,0.08,-0.01,-2.16,-2.11,-2.11
236,-2.05,0.06,-2.15,-0.04,0.04,-0.02,-2.01,-2.11,-2.11
239,-2.05,0.06,-2.11,-0.00,0.00,-0.04,-2.05,-2.11,-2.11
241,-2.05,0.06,-2.08,0.03,-0.03,-0.06,-2.08,-2.11,-2.11
244,-2.05,0.06,-2.05,0.05,-0.05,-0.08,-2.10,-2.10,-2.10
246,-2.05,0.05,-2.03,0.07,-0.07,-0.09,-2.11,-2.10,-2.10
248,-2.05,0.05,-2.03,0.07,-0.07,-0.11,-2.12,-2.10,-2.10
251,-2.05,0.05,-2.03,0.07,-0.07,-0.13,-2.11,-2.09,-2.09
253,-2.05,0.04,-2.04,0.05,-0.05,-0.14,-2.10,-2.09,-2.09
256,-2.05,0.04,-2.05,0.03,-0.03,-0.16,-2.08,-2.09,-2.09
259,-2.05,0.03,-2.08,0.00,-0.00,-0.18,-2.05,-2.08,-2.08
261,-2.05,0.03,-2.11,-0.03,0.03,-0.19,-2.01,-2.08,-2.08
264,-2.08,-0.01,-2.15,-0.08,0.08,-0.21,-2.00,-2.07,-2.07
266,-2.27,-0.20,-2.19,-0.12,0.12,-0.22,-2.14,-2.07,-2.07
269,-2.28,-0.22,-2.23,-0.17,0.17,-0.24,-2.11,-2.06,-2.06
272,-2.28,-0.22,-2.27,-0.21,0.21,-0.25,-2.06,-2.05,-2.05
274,-2.28,-0.23,-2.29,-0.25,0.25,-0.26,-2.03,-2.05,-2.04
277,-2.28,-0.24,-2.31,-0.27,0.27,-0.28,-2.01,-2.04,-2.04
280,-2.28,-0.25,-2.30,-0.28,0.28,-0.30,-2.00,-2.03,-2.03
283,-2.28,-0.26,-2.28,-0.26,0.26,-0.32,-2.02,-2.02,-2.02
286,-2.28,-0.27,-2.23,-0.22,0.22,-0.33,-2.06,-2.01,-2.01
288,-2.28,-0.28,-2.16,-0.16,0.16,-0.34,-2.11,-1.99,-1.99
291,-2.19,-0.21,-2.07,-0.09,0.09,-0.36,-2.10,-1.98,-1.98
294,-1.92,0.05,-1.97,0.00,-0.00,-0.38,-1.92,-1.97,-1.97
297,-1.82,0.14,-1.86,0.10,-0.10,-0.40,-1.91,-1.95,-1.95
300,-1.62,0.32,-1.75,0.19,-0.19,-0.41,-1.80,-1.94,-1.94
303,-1.59,0.33,-1.65,0.27,-0.27,-0.43,-1.86,-1.92,-1.92
306,-1.59,0.32,-1.56,0.34,-0.34,-0.45,-1.93,-1.91,-1.91
309,-1.53,0.36,-1.48,0.41,-0.41,-0.47,-1.93,-1.89,-1.89
312,-1.37,0.50,-1.42,0.45,-0.45,-0.49,-1.82,-1.87,-1.87
316,-1.37,0.48,-1.36,0.49,-0.49,-0.51,-1.86,-1.85,-1.85
319,-1.37,0.46,-1.31,0.53,-0.53,-0.53,-1.89,-1.83,-1.83
322,-1.35,0.46,-1.26,0.55,-0.55,-0.55,-1.90,-1.81,-1.81
325,-1.14,0.65,-1.22,0.57,-0.57,-0.57,-1.71,-1.79,-1.79
328,-1.14,0.63,-1.19,0.58,-0.58,-0.59,-1.72,-1.77,-1.77
332,-1.14,0.61,-1.17,0.58,-0.58,-0.61,-1.72,-1.75,-1.75
335,-1.14,0.59,-1.15,0.58,-0.58,-0.63,-1.72,-1.73,-1.73
338,-1.14,0.57,-1.14,0.57,-0.57,-0.66,-1.71,-1.71,-1.71
342,-1.14,0.55,-1.12,0.57,-0.57,-0.68,-1.71,-1.69,-1.69
345,-1.14,0.53,-1.10,0.57,-0.57,-0.71,-1.71,-1.67,-1.67
349,-1.14,0.51,-1.08,0.57,-0.57,-0.73,-1.71,-1.65,-1.65
352,-1.14,0.49,-1.05,0.58,-0.58,-0.76,-1.72,-1.63,-1.63
356,-0.99,0.62,-1.02,0.59,-0.59,-0.79,-1.58,-1.61,-1.61
359,-0.91,0.69,-0.99,0.60,-0.60,-0.81,-1.51,-1.59,-1.59
363,-0.91,0.67,-0.96,0.62,-0.62,-0.84,-1.52,-1.58,-1.58
366,-0.91,0.65,-0.94,0.62,-0.62,-0.86,-1.53,-1.56,-1.56
370,-0.91,0.64,-0.91,0.63,-0.63,-0.90,-1.54,-1.54,-1.54
374,-0.91,0.62,-0.89,0.64,-0.64,-0.93,-1.54,-1.53,-1.53
377,-0.91,0.61,-0.87,0.64,-0.64,-0.95,-1.55,-1.51,-1.51
381,-0.91,0.59,-0.85,0.65,-0.65,-0.98,-1.56,-1.50,-1.50
385,-0.91,0.58,-0.82,0.67,-0.67,-1.02,-1.58,-1.49,-1.49
389,-0.71,0.77,-0.79,0.69,-0.69,-1.05,-1.40,-1.48,-1.48
393,-0.68,0.79,-0.75,0.71,-0.71,-1.08,-1.39,-1.46,-1.46
397,-0.68,0.77,-0.72,0.74,-0.74,-1.12,-1.41,-1.45,-1.45
401,-0.68,0.76,-0.68,0.77,-0.77,-1.15,-1.44,-1.44,-1.44
405,-0.68,0.75,-0.63,0.80,-0.80,-1.18,-1.48,-1.43,-1.43
409,-0.68,0.74,-0.59,0.84,-0.84,-1.21,-1.51,-1.42,-1.42
413,-0.50,0.92,-0.54,0.88,-0.88,-1.25,-1.37,-1.41,-1.41
417,-0.45,0.96,-0.49,0.92,-0.92,-1.28,-1.37,-1.40,-1.40
421,-0.45,0.95,-0.43,0.97,-0.97,-1.31,-1.41,-1.40,-1.40
425,-0.43,0.96,-0.37,1.01,-1.01,-1.34,-1.44,-1.39,-1.39
430,-0.23,1.15,-0.31,1.06,-1.06,-1.37,-1.29,-1.38,-1.38
434,-0.23,1.14,-0.26,1.11,-1.11,-1.40,-1.34,-1.37,-1.37
438,-0.23,1.13,-0.20,1.16,-1.16,-1.43,-1.39,-1.36,-1.36
443,-0.23,1.13,-0.14,1.21,-1.21,-1.46,-1.44,-1.35,-1.35
447,-0.01,1.34,-0.08,1.26,-1.26,-1.49,-1.27,-1.34,-1.34
451,0.00,1.34,-0.03,1.31,-1.31,-1.51,-1.31,-1.33,-1.33
456,0.00,1.33,0.03,1.35,-1.35,-1.54,-1.35,-1.32,-1.32
460,0.00,1.32,0.08,1.39,-1.39,-1.56,-1.39,-1.31,-1.31
465,0.12,1.43,0.13,1.43,-1.43,-1.58,-1.31,-1.30,-1.30
470,0.23,1.52,0.16,1.46,-1.46,-1.60,-1.22,-1.29,-1.29
474,0.23,1.51,0.19,1.47,-1.47,-1.61,-1.24,-1.28,-1.28
479,0.23,1.50,0.21,1.48,-1.48,-1.63,-1.25,-1.27,-1.27
484,0.23,1.49,0.23,1.48,-1.48,-1.64,-1.25,-1.25,-1.25
489,0.23,1.47,0.23,1.47,-1.47,-1.65,-1.24,-1.24,-1.24
494,0.23,1.46,0.23,1.46,-1.46,-1.65,-1.22,-1.22,-1.22
499,0.23,1.44,0.24,1.44,-1.44,-1.65,-1.21,-1.21,-1.21
504,0.23,1.42,0.24,1.43,-1.43,-1.65,-1.20,-1.19,-1.19
509,0.23,1.40,0.26,1.43,-1.43,-1.65,-1.20,-1.17,-1.17
514,0.23,1.39,0.29,1.44,-1.44,-1.65,-1.21,-1.15,-1.15
519,0.27,1.41,0.32,1.46,-1.46,-1.64,-1.18,-1.13,-1.13
524,0.46,1.58,0.37,1.48,-1.48,-1.63,-1.02,-1.11,-1.11
529,0.46,1.55,0.42,1.51,-1.51,-1.62,-1.05,-1.09,-1.09
535,0.46,1.53,0.48,1.55,-1.55,-1.60,-1.09,-1.07,-1.07
540,0.46,1.51,0.55,1.59,-1.59,-1.58,-1.13,-1.05,-1.05
545,0.65,1.68,0.62,1.64,-1.64,-1.57,-0.99,-1.02,-1.02
551,0.69,1.69,0.68,1.68,-1.68,-1.54,-0.99,-1.00,-1.00
556,0.72,1.70,0.75,1.73,-1.73,-1.52,-1.01,-0.98,-0.98
562,0.91,1.86,0.82,1.77,-1.77,-1.50,-0.86,-0.95,-0.95
568,0.91,1.84,0.89,1.82,-1.82,-1.47,-0.91,-0.93,-0.93
573,0.91,1.81,0.96,1.86,-1.86,-1.45,-0.95,-0.90,-0.90
579,1.10,1.98,1.04,1.92,-1.92,-1.42,-0.81,-0.88,-0.88
585,1.14,2.00,1.12,1.97,-1.97,-1.39,-0.83,-0.85,-0.85
591,1.14,1.97,1.21,2.04,-2.04,-1.36,-0.90,-0.83,-0.83
596,1.18,1.99,1.31,2.12,-2.12,-1.33,-0.93,-0.80,-0.80
602,1.45,2.23,1.42,2.21,-2.21,-1.30,-0.75,-0.78,-0.78
608,1.60,2.36,1.55,2.31,-2.31,-1.27,-0.71,-0.76,-0.76
615,1.78,2.52,1.70,2.43,-2.43,-1.23,-0.65,-0.74,-0.74
621,1.83,2.54,1.86,2.58,-2.58,-1.20,-0.74,-0.71,-0.71
627,2.05,2.74,2.05,2.74,-2.74,-1.17,-0.69,-0.69,-0.69
633,2.08,2.75,2.25,2.92,-2.92,-1.14,-0.84,-0.67,-0.67
639,2.33,2.98,2.46,3.11,-3.11,-1.12,-0.78,-0.65,-0.65
646,2.51,3.14,2.66,3.29,-3.29,-1.08,-0.78,-0.63,-0.63
652,2.63,3.24,2.83,3.44,-3.44,-1.06,-0.80,-0.61,-0.61
659,2.92,3.51,2.92,3.51,-3.51,-1.02,-0.59,-0.59,-0.59
665,3.15,3.72,2.92,3.49,-3.49,-1.00,-0.34,-0.57,-0.57
672,3.18,3.73,2.78,3.33,-3.33,-0.97,-0.15,-0.55,-0.55
679,2.86,3.39,2.51,3.04,-3.04,-0.94,-0.17,-0.53,-0.53
686,2.32,2.83,2.09,2.60,-2.60,-0.91,-0.28,-0.51,-0.51
692,1.76,2.26,1.56,2.05,-2.05,-0.89,-0.29,-0.49,-0.49
699,0.97,1.45,0.95,1.43,-1.43,-0.86,-0.45,-0.47,-0.47
706,0.18,0.64,0.32,0.78,-0.78,-0.84,-0.59,-0.45,-0.45
713,-0.60,-0.16,-0.28,0.16,-0.16,-0.81,-0.75,-0.43,-0.43
721,-1.08,-0.66,-0.80,-0.39,0.39,-0.79,-0.69,-0.41,-0.41
728,-1.43,-1.03,-1.21,-0.82,0.82,-0.76,-0.61,-0.39,-0.39
735,-1.68,-1.31,-1.50,-1.13,1.13,-0.74,-0.55,-0.37,-0.37
742,-1.82,-1.47,-1.67,-1.31,1.31,-0.72,-0.50,-0.35,-0.35
750,-1.66,-1.33,-1.72,-1.39,1.39,-0.70,-0.27,-0.33,-0.33
757,-1.59,-1.28,-1.69,-1.38,1.38,-0.68,-0.21,-0.31,-0.31
765,-1.59,-1.30,-1.60,-1.31,1.31,-0.66,-0.28,-0.29,-0.29
773,-1.37,-1.09,-1.49,-1.21,1.21,-0.64,-0.16,-0.27,-0.27
780,-1.31,-1.05,-1.36,-1.10,1.10,-0.62,-0.20,-0.26,-0.26
788,-1.14,-0.90,-1.24,-1.00,1.00,-0.60,-0.14,-0.24,-0.24
796,-1.14,-0.92,-1.13,-0.91,0.91,-0.59,-0.23,-0.22,-0.22
804,-1.14,-0.93,-1.04,-0.84,0.84,-0.57,-0.30,-0.21,-0.21
812,-0.93,-0.74,-0.98,-0.79,0.79,-0.55,-0.14,-0.19,-0.19
820,-0.91,-0.73,-0.94,-0.76,0.76,-0.54,-0.14,-0.18,-0.18
828,-0.91,-0.74,-0.93,-0.76,0.76,-0.52,-0.15,-0.17,-0.17
837,-0.91,-0.75,-0.94,-0.78,0.78,-0.51,-0.13,-0.16,-0.16
845,-0.91,-0.76,-0.96,-0.82,0.82,-0.50,-0.09,-0.15,-0.14
853,-0.91,-0.77,-1.00,-0.86,0.86,-0.49,-0.05,-0.14,-0.14
862,-1.09,-0.96,-1.04,-0.91,0.91,-0.47,-0.18,-0.13,-0.13
871,-1.14,-1.02,-1.08,-0.96,0.96,-0.46,-0.18,-0.12,-0.12
879,-1.14,-1.02,-1.11,-0.99,0.99,-0.45,-0.15,-0.11,-0.11
888,-1.14,-1.03,-1.11,-1.00,1.00,-0.44,-0.13,-0.11,-0.11
897,-1.14,-1.04,-1.09,-0.99,0.99,-0.43,-0.15,-0.10,-0.10
906,-1.14,-1.04,-1.05,-0.96,0.96,-0.43,-0.18,-0.10,-0.10
915,-0.98,-0.89,-0.99,-0.90,0.90,-0.42,-0.08,-0.09,-0.09
924,-0.91,-0.82,-0.90,-0.82,0.82,-0.41,-0.09,-0.08,-0.08
933,-0.69,-0.61,-0.80,-0.72,0.72,-0.41,0.03,-0.08,-0.08
943,-0.68,-0.61,-0.69,-0.62,0.62,-0.40,-0.06,-0.07,-0.07
952,-0.62,-0.55,-0.57,-0.51,0.51,-0.40,-0.11,-0.06,-0.06
962,-0.45,-0.39,-0.45,-0.39,0.39,-0.40,-0.05,-0.06,-0.06
971,-0.33,-0.28,-0.33,-0.28,0.28,-0.39,-0.04,-0.05,-0.05
981,-0.23,-0.19,-0.21,-0.18,0.18,-0.39,-0.05,-0.04,-0.04
991,-0.02,0.01,-0.10,-0.07,0.07,-0.39,0.05,-0.03,-0.03
1001,0.00,0.02,0.01,0.03,-0.03,-0.39,-0.03,-0.01,-0.01
1011,0.05,0.05,0.12,0.12,-0.12,-0.39,-0.07,-0.00,-0.00
1021,0.23,0.22,0.22,0.21,-0.21,-0.40,0.02,0.01,0.01
1031,0.34,0.31,0.32,0.29,-0.29,-0.40,0.05,0.03,0.03
1041,0.46,0.42,0.41,0.37,-0.37,-0.40,0.09,0.05,0.05
1052,0.46,0.40,0.50,0.44,-0.44,-0.41,0.02,0.07,0.06
1062,0.66,0.58,0.59,0.50,-0.50,-0.42,0.16,0.08,0.08
1073,0.69,0.59,0.67,0.57,-0.57,-0.42,0.13,0.11,0.10
1084,0.69,0.57,0.76,0.63,-0.63,-0.43,0.06,0.13,0.13
1094,0.76,0.61,0.84,0.69,-0.69,-0.44,0.07,0.15,0.15
1105,0.91,0.74,0.93,0.76,-0.76,-0.45,0.15,0.17,0.17
1116,1.06,0.87,1.02,0.83,-0.83,-0.46,0.23,0.19,0.19
1128,1.14,0.92,1.11,0.89,-0.89,-0.47,0.25,0.22,0.22
1139,1.14,0.90,1.20,0.96,-0.96,-0.48,0.18,0.24,0.24
1150,1.37,1.11,1.28,1.02,-1.02,-0.50,0.36,0.26,0.26
1162,1.37,1.09,1.35,1.07,-1.07,-0.51,0.31,0.28,0.29
1173,1.37,1.07,1.42,1.11,-1.11,-0.52,0.26,0.31,0.31
1185,1.50,1.18,1.48,1.15,-1.15,-0.54,0.35,0.33,0.33
1197,1.60,1.26,1.54,1.19,-1.19,-0.56,0.41,0.34,0.34
1209,1.60,1.24,1.60,1.24,-1.24,-0.57,0.36,0.36,0.36
1221,1.60,1.23,1.66,1.29,-1.29,-0.59,0.31,0.37,0.37
1233,1.63,1.25,1.74,1.35,-1.35,-0.61,0.28,0.39,0.39
1246,1.83,1.44,1.82,1.43,-1.43,-0.63,0.41,0.40,0.40
1258,1.93,1.53,1.91,1.51,-1.51,-0.65,0.42,0.40,0.40
1271,2.05,1.64,2.01,1.61,-1.61,-0.67,0.45,0.41,0.41
1283,2.05,1.64,2.11,1.71,-1.71,-0.69,0.35,0.41,0.41
1296,2.26,1.85,2.22,1.81,-1.81,-0.71,0.45,0.41,0.41
1309,2.29,1.89,2.32,1.91,-1.91,-0.74,0.38,0.41,0.41
1322,2.51,2.11,2.41,2.01,-2.01,-0.76,0.50,0.40,0.40
1335,2.51,2.12,2.50,2.11,-2.11,-0.79,0.40,0.39,0.39
1349,2.51,2.13,2.58,2.20,-2.20,-0.81,0.31,0.38,0.38
1362,2.66,2.29,2.66,2.29,-2.29,-0.84,0.37,0.37,0.37
1376,2.74,2.38,2.74,2.38,-2.38,-0.87,0.37,0.36,0.36
1390,2.74,2.39,2.81,2.46,-2.46,-0.89,0.28,0.35,0.35
1404,2.96,2.63,2.87,2.54,-2.54,-0.92,0.42,0.33,0.33
1418,2.96,2.64,2.93,2.61,-2.61,-0.95,0.35,0.32,0.32
1432,2.96,2.66,2.99,2.68,-2.68,-0.98,0.28,0.31,0.31
1446,2.96,2.67,3.04,2.75,-2.75,-1.01,0.21,0.29,0.29
1461,3.14,2.86,3.09,2.81,-2.81,-1.05,0.34,0.28,0.28
1475,3.19,2.92,3.13,2.86,-2.86,-1.08,0.33,0.27,0.27
1490,3.19,2.93,3.18,2.91,-2.91,-1.11,0.28,0.27,0.27
1505,3.19,2.93,3.22,2.96,-2.96,-1.15,0.23,0.26,0.26
1520,3.19,2.93,3.27,3.01,-3.01,-1.18,0.19,0.26,0.26
1535,3.30,3.04,3.31,3.05,-3.05,-1.22,0.25,0.26,0.26
1550,3.42,3.15,3.36,3.09,-3.09,-1.25,0.33,0.27,0.27
1566,3.42,3.14,3.42,3.13,-3.13,-1.29,0.29,0.28,0.28
1582,3.42,3.12,3.47,3.17,-3.17,-1.33,0.25,0.30,0.30
1597,3.43,3.11,3.51,3.19,-3.19,-1.36,0.24,0.32,0.32
1613,3.65,3.31,3.55,3.21,-3.21,-1.40,0.44,0.35,0.34
