frequency,raw,error,smoothed,error_smoothed,equalization,parametric_eq,equalized_raw,equalized_smoothed,target
20,-18.69,-19.37,-18.71,-19.39,6.00,2.51,-12.69,-12.71,0.68
21,-18.07,-18.75,-18.07,-18.75,6.00,2.89,-12.07,-12.07,0.68
22,-17.53,-18.21,-17.46,-18.15,6.00,3.29,-11.53,-11.46,0.68
23,-16.82,-17.50,-16.88,-17.56,6.00,3.74,-10.82,-10.88,0.69
24,-16.38,-17.07,-16.32,-17.00,6.00,4.21,-10.38,-10.32,0.69
25,-15.76,-16.45,-15.78,-16.47,6.00,4.69,-9.76,-9.78,0.69
26,-15.18,-15.87,-15.28,-15.97,6.00,5.18,-9.18,-9.28,0.69
27,-14.87,-15.56,-14.80,-15.49,6.00,5.65,-8.87,-8.80,0.69
28,-14.37,-15.06,-14.34,-15.03,6.00,6.07,-8.37,-8.34,0.69
29,-13.90,-14.59,-13.91,-14.60,6.00,6.43,-7.90,-7.91,0.69
30,-13.47,-14.16,-13.50,-14.19,6.00,6.70,-7.47,-7.50,0.69
31,-13.06,-13.75,-13.10,-13.79,6.00,6.88,-7.06,-7.10,0.69
32,-12.76,-13.45,-12.73,-13.42,6.00,6.95,-6.76,-6.73,0.69
33,-12.33,-13.02,-12.36,-13.05,6.00,6.94,-6.33,-6.36,0.69
34,-12.08,-12.76,-12.01,-12.69,6.00,6.87,-6.08,-6.01,0.69
35,-11.69,-12.37,-11.66,-12.34,6.00,6.75,-5.69,-5.66,0.68
36,-11.17,-11.85,-11.31,-11.99,6.00,6.60,-5.17,-5.31,0.68
37,-11.14,-11.81,-10.97,-11.65,6.00,6.45,-5.14,-4.97,0.67
38,-10.66,-11.33,-10.63,-11.30,6.00,6.31,-4.66,-4.63,0.67
39,-10.25,-10.91,-10.30,-10.96,6.00,6.17,-4.25,-4.30,0.66
40,-10.00,-10.65,-9.97,-10.63,6.00,6.06,-4.00,-3.97,0.65
41,-9.57,-10.21,-9.65,-10.30,6.00,5.97,-3.57,-3.65,0.64
42,-9.34,-9.97,-9.34,-9.97,6.00,5.91,-3.34,-3.34,0.63
43,-9.11,-9.73,-9.03,-9.65,6.00,5.87,-3.11,-3.03,0.62
44,-8.66,-9.27,-8.72,-9.33,6.00,5.86,-2.66,-2.72,0.61
45,-8.43,-9.02,-8.42,-9.02,6.00,5.87,-2.43,-2.42,0.60
46,-8.37,-8.95,-8.14,-8.72,6.00,5.90,-2.37,-2.14,0.58
47,-7.98,-8.54,-7.88,-8.44,6.00,5.95,-1.98,-1.88,0.56
48,-7.70,-8.24,-7.66,-8.21,6.00,6.02,-1.70,-1.66,0.55
49,-7.52,-8.04,-7.51,-8.04,6.00,6.10,-1.52,-1.51,0.53
50,-7.29,-7.79,-7.45,-7.95,6.00,6.20,-1.29,-1.45,0.51
51,-7.29,-7.77,-7.49,-7.97,6.00,6.30,-1.29,-1.49,0.48
52,-7.39,-7.85,-7.64,-8.11,6.00,6.41,-1.39,-1.64,0.46
53,-7.75,-8.19,-7.91,-8.34,6.00,6.52,-1.75,-1.91,0.44
54,-7.98,-8.39,-8.25,-8.67,6.00,6.63,-1.98,-2.25,0.42
55,-8.41,-8.80,-8.64,-9.03,6.00,6.74,-2.41,-2.64,0.39
56,-9.23,-9.59,-9.04,-9.40,6.00,6.83,-3.23,-3.04,0.37
57,-9.80,-10.14,-9.39,-9.73,6.00,6.92,-3.80,-3.39,0.34
58,-10.03,-10.34,-9.66,-9.97,6.00,6.98,-4.03,-3.66,0.31
59,-10.03,-10.31,-9.82,-10.10,6.00,7.03,-4.03,-3.82,0.28
60,-10.03,-10.28,-9.86,-10.12,6.00,7.06,-4.03,-3.86,0.26
61,-9.80,-10.03,-9.80,-10.03,6.00,7.06,-3.80,-3.80,0.23
62,-9.57,-9.77,-9.65,-9.85,6.00,7.05,-3.57,-3.65,0.20
63,-9.34,-9.51,-9.43,-9.60,6.00,7.00,-3.34,-3.43,0.17
64,-9.02,-9.16,-9.18,-9.32,6.00,6.94,-3.02,-3.18,0.14
65,-8.84,-8.95,-8.91,-9.02,6.00,6.86,-2.84,-2.91,0.11
66,-8.66,-8.74,-8.65,-8.73,6.00,6.75,-2.66,-2.65,0.08
67,-8.43,-8.48,-8.40,-8.45,6.00,6.64,-2.43,-2.40,0.05
68,-8.11,-8.13,-8.17,-8.20,6.00,6.50,-2.11,-2.17,0.02
69,-7.95,-7.94,-7.96,-7.95,6.00,6.36,-1.95,-1.96,-0.01
70,-7.75,-7.71,-7.76,-7.73,6.00,6.21,-1.75,-1.76,-0.04
71,-7.52,-7.45,-7.58,-7.51,6.00,6.06,-1.52,-1.58,-0.07
72,-7.51,-7.41,-7.40,-7.31,6.00,5.90,-1.51,-1.40,-0.10
73,-7.29,-7.16,-7.24,-7.11,6.00,5.74,-1.29,-1.24,-0.13
74,-7.06,-6.90,-7.08,-6.92,6.00,5.57,-1.06,-1.08,-0.15
75,-6.89,-6.70,-6.93,-6.75,6.00,5.41,-0.89,-0.93,-0.18
76,-6.77,-6.55,-6.80,-6.58,6.00,5.25,-0.77,-0.80,-0.21
77,-6.61,-6.37,-6.66,-6.42,6.00,5.10,-0.61,-0.66,-0.24
78,-6.54,-6.27,-6.54,-6.27,5.97,4.95,-0.56,-0.56,-0.27
79,-6.38,-6.08,-6.41,-6.11,5.92,4.80,-0.46,-0.49,-0.30
80,-6.38,-6.05,-6.28,-5.95,5.84,4.66,-0.54,-0.44,-0.33
81,-6.23,-5.87,-6.15,-5.79,5.74,4.52,-0.49,-0.42,-0.36
82,-6.14,-5.75,-6.02,-5.63,5.61,4.39,-0.53,-0.41,-0.39
83,-5.82,-5.40,-5.88,-5.46,5.46,4.26,-0.36,-0.42,-0.42
84,-5.70,-5.25,-5.74,-5.30,5.30,4.14,-0.40,-0.44,-0.44
85,-5.47,-5.00,-5.61,-5.14,5.14,4.02,-0.33,-0.47,-0.47
86,-5.47,-4.97,-5.49,-4.99,4.99,3.91,-0.48,-0.50,-0.50
87,-5.47,-4.94,-5.38,-4.85,4.85,3.80,-0.62,-0.53,-0.53
88,-5.24,-4.68,-5.28,-4.72,4.72,3.70,-0.52,-0.55,-0.55
89,-5.24,-4.66,-5.19,-4.60,4.60,3.60,-0.63,-0.58,-0.58
90,-5.06,-4.45,-5.10,-4.49,4.49,3.51,-0.56,-0.61,-0.61
91,-5.01,-4.38,-5.02,-4.39,4.39,3.42,-0.62,-0.63,-0.63
92,-5.01,-4.35,-4.94,-4.29,4.29,3.33,-0.72,-0.66,-0.66
93,-4.88,-4.20,-4.87,-4.19,4.19,3.25,-0.69,-0.68,-0.68
94,-4.78,-4.07,-4.80,-4.10,4.10,3.18,-0.68,-0.70,-0.70
95,-4.77,-4.04,-4.73,-4.00,4.00,3.11,-0.76,-0.72,-0.73
96,-4.56,-3.81,-4.66,-3.91,3.91,3.04,-0.64,-0.75,-0.75
97,-4.56,-3.79,-4.59,-3.83,3.83,2.97,-0.73,-0.77,-0.77
98,-4.56,-3.77,-4.53,-3.74,3.74,2.91,-0.82,-0.79,-0.79
99,-4.56,-3.75,-4.46,-3.65,3.65,2.85,-0.91,-0.81,-0.81
100,-4.33,-3.50,-4.38,-3.55,3.55,2.79,-0.78,-0.83,-0.83
101,-4.33,-3.48,-4.31,-3.45,3.45,2.74,-0.87,-0.85,-0.84
102,-4.33,-3.47,-4.23,-3.35,3.35,2.68,-0.98,-0.88,-0.86
104,-4.10,-3.18,-4.15,-3.25,3.25,2.59,-0.84,-0.90,-0.91
105,-4.10,-3.17,-4.08,-3.16,3.16,2.54,-0.94,-0.92,-0.93
106,-3.94,-2.99,-4.01,-3.07,3.07,2.50,-0.87,-0.94,-0.95
107,-3.87,-2.91,-3.95,-2.99,2.99,2.46,-0.87,-0.96,-0.96
108,-3.87,-2.89,-3.90,-2.92,2.92,2.42,-0.94,-0.98,-0.98
109,-3.87,-2.87,-3.85,-2.86,2.86,2.38,-1.01,-0.99,-0.99
110,-3.87,-2.86,-3.80,-2.79,2.79,2.34,-1.07,-1.01,-1.01
111,-3.87,-2.84,-3.75,-2.72,2.72,2.30,-1.14,-1.03,-1.03
112,-3.64,-2.59,-3.69,-2.65,2.65,2.27,-0.99,-1.05,-1.04
113,-3.64,-2.58,-3.63,-2.56,2.56,2.23,-1.08,-1.06,-1.06
114,-3.62,-2.54,-3.56,-2.47,2.47,2.20,-1.15,-1.09,-1.08
115,-3.42,-2.32,-3.48,-2.38,2.38,2.17,-1.04,-1.11,-1.10
117,-3.42,-2.27,-3.41,-2.28,2.28,2.10,-1.14,-1.13,-1.14
118,-3.39,-2.22,-3.35,-2.20,2.20,2.07,-1.19,-1.16,-1.16
119,-3.19,-2.01,-3.30,-2.12,2.12,2.04,-1.07,-1.18,-1.18
120,-3.19,-1.99,-3.25,-2.04,2.04,2.01,-1.14,-1.21,-1.20
121,-3.19,-1.97,-3.21,-1.98,1.98,1.99,-1.21,-1.23,-1.22
123,-3.19,-1.92,-3.17,-1.91,1.91,1.93,-1.28,-1.26,-1.27
124,-3.19,-1.90,-3.13,-1.85,1.85,1.90,-1.34,-1.28,-1.29
125,-3.19,-1.88,-3.08,-1.77,1.77,1.87,-1.42,-1.31,-1.31
126,-3.04,-1.71,-3.02,-1.69,1.69,1.84,-1.35,-1.33,-1.33
128,-2.96,-1.59,-2.96,-1.60,1.60,1.79,-1.36,-1.36,-1.37
129,-2.87,-1.48,-2.89,-1.50,1.50,1.76,-1.37,-1.38,-1.39
130,-2.73,-1.32,-2.81,-1.40,1.40,1.73,-1.33,-1.41,-1.41
131,-2.73,-1.30,-2.74,-1.30,1.30,1.71,-1.42,-1.43,-1.42
133,-2.73,-1.26,-2.67,-1.21,1.21,1.65,-1.52,-1.46,-1.46
134,-2.55,-1.07,-2.60,-1.12,1.12,1.63,-1.43,-1.48,-1.48
135,-2.51,-1.01,-2.54,-1.03,1.03,1.60,-1.48,-1.50,-1.50
137,-2.51,-0.98,-2.48,-0.95,0.95,1.55,-1.56,-1.53,-1.53
138,-2.51,-0.96,-2.43,-0.88,0.88,1.52,-1.63,-1.55,-1.55
140,-2.31,-0.73,-2.38,-0.80,0.80,1.47,-1.50,-1.57,-1.58
141,-2.28,-0.68,-2.33,-0.73,0.73,1.45,-1.54,-1.59,-1.59
142,-2.28,-0.67,-2.28,-0.66,0.66,1.42,-1.61,-1.61,-1.61
144,-2.28,-0.64,-2.23,-0.59,0.59,1.37,-1.69,-1.63,-1.64
145,-2.28,-0.63,-2.17,-0.52,0.52,1.35,-1.76,-1.65,-1.65
147,-2.05,-0.37,-2.12,-0.45,0.45,1.30,-1.60,-1.67,-1.68
148,-2.05,-0.36,-2.07,-0.38,0.38,1.28,-1.67,-1.69,-1.69
150,-2.05,-0.34,-2.02,-0.32,0.32,1.23,-1.73,-1.71,-1.71
151,-2.05,-0.33,-1.99,-0.26,0.26,1.21,-1.79,-1.72,-1.72
153,-2.03,-0.28,-1.96,-0.23,0.23,1.16,-1.80,-1.74,-1.74
154,-1.85,-0.10,-1.97,-0.21,0.21,1.14,-1.64,-1.75,-1.75
156,-1.90,-0.13,-1.99,-0.22,0.22,1.10,-1.67,-1.77,-1.77
157,-2.05,-0.27,-2.05,-0.26,0.26,1.08,-1.78,-1.78,-1.78
159,-2.05,-0.25,-2.12,-0.33,0.33,1.04,-1.72,-1.80,-1.80
160,-2.11,-0.30,-2.22,-0.41,0.41,1.02,-1.70,-1.81,-1.81
162,-2.28,-0.45,-2.32,-0.49,0.49,0.98,-1.78,-1.82,-1.82
164,-2.53,-0.69,-2.41,-0.57,0.57,0.95,-1.95,-1.84,-1.84
165,-2.69,-0.84,-2.49,-0.64,0.64,0.93,-2.05,-1.85,-1.84
167,-2.68,-0.82,-2.54,-0.68,0.68,0.89,-2.00,-1.86,-1.86
169,-2.51,-0.63,-2.57,-0.70,0.70,0.86,-1.81,-1.87,-1.87
170,-2.51,-0.63,-2.57,-0.69,0.69,0.84,-1.82,-1.88,-1.88
172,-2.51,-0.62,-2.55,-0.66,0.66,0.81,-1.84,-1.89,-1.89
174,-2.51,-0.61,-2.52,-0.62,0.62,0.78,-1.89,-1.90,-1.90
175,-2.51,-0.60,-2.48,-0.57,0.57,0.77,-1.94,-1.91,-1.90
177,-2.51,-0.59,-2.43,-0.52,0.52,0.74,-1.99,-1.91,-1.91
179,-2.28,-0.36,-2.38,-0.46,0.46,0.71,-1.82,-1.92,-1.92
181,-2.28,-0.35,-2.33,-0.40,0.40,0.68,-1.87,-1.93,-1.93
183,-2.28,-0.34,-2.28,-0.35,0.35,0.65,-1.93,-1.93,-1.94
184,-2.28,-0.34,-2.24,-0.30,0.30,0.64,-1.98,-1.94,-1.94
186,-2.28,-0.33,-2.18,-0.24,0.24,0.62,-2.04,-1.95,-1.94
188,-2.07,-0.12,-2.13,-0.18,0.18,0.59,-1.89,-1.95,-1.95
190,-2.05,-0.09,-2.08,-0.12,0.12,0.57,-1.92,-1.95,-1.95
192,-2.05,-0.09,-2.02,-0.06,0.06,0.54,-1.98,-1.96,-1.96
194,-2.05,-0.09,-1.97,-0.01,0.01,0.52,-2.04,-1.96,-1.96
196,-1.89,0.07,-1.92,0.05,-0.05,0.50,-1.93,-1.96,-1.96
198,-1.82,0.15,-1.87,0.09,-0.09,0.48,-1.91,-1.96,-1.96
200,-1.82,0.15,-1.84,0.13,-0.13,0.46,-1.95,-1.97,-1.97
202,-1.82,0.15,-1.81,0.16,-0.16,0.44,-1.97,-1.97,-1.97
204,-1.82,0.15,-1.80,0.17,-0.17,0.42,-1.99,-1.97,-1.97
206,-1.82,0.15,-1.80,0.16,-0.16,0.40,-1.98,-1.97,-1.97
208,-1.82,0.15,-1.82,0.14,-0.14,0.38,-1.96,-1.97,-1.97
210,-1.82,0.15,-1.86,0.11,-0.11,0.36,-1.93,-1.97,-1.97
212,-1.82,0.15,-1.91,0.06,-0.06,0.34,-1.88,-1.97,-1.97
214,-2.02,-0.05,-1.97,-0.00,0.00,0.32,-2.01,-1.97,-1.97
216,-2.05,-0.08,-2.04,-0.07,0.07,0.31,-1.98,-1.97,-1.97
218,-2.05,-0.08,-2.10,-0.14,0.14,0.29,-1.91,-1.96,-1.96
221,-2.18,-0.21,-2.16,-0.20,0.20,0.26,-1.98,-1.96,-1.97
223,-2.28,-0.31,-2.21,-0.25,0.25,0.25,-2.03,-1.96,-1.96
225,-2.28,-0.32,-2.24,-0.28,0.28,0.23,-2.00,-1.96,-1.96
227,-2.28,-0.32,-2.25,-0.30,0.30,0.22,-1.98,-1.96,-1.96
229,-2.28,-0.32,-2.25,-0.29,0.29,0.20,-1.99,-1.96,-1.96
232,-2.28,-0.32,-2.22,-0.27,0.27,0.18,-2.01,-1.96,-1.96
234,-2.24,-0.28,-2.19,-0.24,0.24,0.16,-2.00,-1.95,-1.95
236,-2.05,-0.10,-2.15,-0.20,0.20,0.15,-1.85,-1.95,-1.95
239,-2.05,-0.10,-2.11,-0.16,0.16,0.13,-1.89,-1.95,-1.95
241,-2.05,-0.10,-2.08,-0.13,0.13,0.11,-1.92,-1.95,-1.95
244,-2.05,-0.10,-2.05,-0.11,0.11,0.09,-1.94,-1.94,-1.94
246,-2.05,-0.11,-2.03,-0.09,0.09,0.08,-1.95,-1.94,-1.94
248,-2.05,-0.11,-2.03,-0.09,0.09,0.07,-1.96,-1.94,-1.94
251,-2.05,-0.11,-2.03,-0.09,0.09,0.05,-1.96,-1.93,-1.93
253,-2.05,-0.12,-2.04,-0.11,0.11,0.03,-1.94,-1.93,-1.93
256,-2.05,-0.12,-2.05,-0.13,0.13,0.01,-1.92,-1.93,-1.93
259,-2.05,-0.13,-2.08,-0.16,0.16,-0.01,-1.89,-1.92,-1.92
261,-2.05,-0.13,-2.11,-0.19,0.19,-0.02,-1.85,-1.92,-1.92
264,-2.08,-0.17,-2.15,-0.24,0.24,-0.04,-1.84,-1.91,-1.91
266,-2.27,-0.36,-2.19,-0.28,0.28,-0.05,-1.98,-1.91,-1.91
269,-2.28,-0.38,-2.23,-0.33,0.33,-0.07,-1.95,-1.90,-1.90
272,-2.28,-0.38,-2.27,-0.37,0.37,-0.09,-1.90,-1.89,-1.89
274,-2.28,-0.39,-2.29,-0.41,0.41,-0.10,-1.87,-1.89,-1.89
277,-2.28,-0.40,-2.31,-0.43,0.43,-0.12,-1.85,-1.88,-1.88
280,-2.28,-0.41,-2.30,-0.44,0.44,-0.14,-1.84,-1.87,-1.87
283,-2.28,-0.42,-2.28,-0.42,0.42,-0.15,-1.86,-1.86,-1.86
286,-2.28,-0.43,-2.23,-0.38,0.38,-0.17,-1.90,-1.85,-1.85
288,-2.28,-0.44,-2.16,-0.32,0.32,-0.18,-1.95,-1.84,-1.84
291,-2.19,-0.37,-2.07,-0.25,0.25,-0.20,-1.94,-1.82,-1.82
294,-1.92,-0.11,-1.97,-0.16,0.16,-0.22,-1.76,-1.81,-1.81
297,-1.82,-0.02,-1.86,-0.06,0.06,-0.24,-1.75,-1.79,-1.79
300,-1.62,0.16,-1.75,0.03,-0.03,-0.26,-1.65,-1.78,-1.78
303,-1.59,0.18,-1.65,0.11,-0.11,-0.28,-1.70,-1.76,-1.76
306,-1.59,0.16,-1.56,0.18,-0.18,-0.30,-1.77,-1.75,-1.75
309,-1.53,0.20,-1.48,0.25,-0.25,-0.32,-1.77,-1.73,-1.73
312,-1.37,0.34,-1.42,0.29,-0.29,-0.34,-1.66,-1.71,-1.71
316,-1.37,0.32,-1.36,0.33,-0.33,-0.36,-1.70,-1.69,-1.69
319,-1.37,0.30,-1.31,0.37,-0.37,-0.38,-1.73,-1.67,-1.67
322,-1.35,0.30,-1.26,0.39,-0.39,-0.40,-1.74,-1.65,-1.65
325,-1.14,0.49,-1.22,0.41,-0.41,-0.42,-1.55,-1.63,-1.63
328,-1.14,0.47,-1.19,0.42,-0.42,-0.44,-1.56,-1.61,-1.61
332,-1.14,0.45,-1.17,0.42,-0.42,-0.47,-1.56,-1.59,-1.59
335,-1.14,0.43,-1.15,0.42,-0.42,-0.49,-1.56,-1.57,-1.57
338,-1.14,0.41,-1.14,0.41,-0.41,-0.51,-1.55,-1.55,-1.55
342,-1.14,0.39,-1.12,0.41,-0.41,-0.54,-1.55,-1.53,-1.53
345,-1.14,0.37,-1.10,0.41,-0.41,-0.56,-1.55,-1.51,-1.51
349,-1.14,0.35,-1.08,0.41,-0.41,-0.59,-1.55,-1.49,-1.49
352,-1.14,0.33,-1.05,0.42,-0.42,-0.61,-1.56,-1.47,-1.47
356,-0.99,0.47,-1.02,0.43,-0.43,-0.64,-1.42,-1.45,-1.45
359,-0.91,0.53,-0.99,0.44,-0.44,-0.67,-1.35,-1.44,-1.43
363,-0.91,0.51,-0.96,0.46,-0.46,-0.70,-1.36,-1.42,-1.42
366,-0.91,0.49,-0.94,0.46,-0.46,-0.72,-1.37,-1.40,-1.40
370,-0.91,0.48,-0.91,0.47,-0.47,-0.75,-1.38,-1.38,-1.38
374,-0.91,0.46,-0.89,0.48,-0.48,-0.78,-1.38,-1.37,-1.37
377,-0.91,0.45,-0.87,0.48,-0.48,-0.81,-1.39,-1.36,-1.35
381,-0.91,0.43,-0.85,0.49,-0.49,-0.84,-1.40,-1.34,-1.34
385,-0.91,0.42,-0.82,0.51,-0.51,-0.87,-1.42,-1.33,-1.33
389,-0.71,0.61,-0.79,0.53,-0.53,-0.90,-1.24,-1.32,-1.32
393,-0.68,0.63,-0.75,0.55,-0.55,-0.93,-1.23,-1.30,-1.30
397,-0.68,0.61,-0.72,0.58,-0.58,-0.97,-1.26,-1.29,-1.29
401,-0.68,0.60,-0.68,0.61,-0.61,-1.00,-1.28,-1.28,-1.28
405,-0.68,0.59,-0.63,0.64,-0.64,-1.03,-1.32,-1.27,-1.27
409,-0.68,0.58,-0.59,0.68,-0.68,-1.06,-1.35,-1.26,-1.26
413,-0.50,0.76,-0.54,0.72,-0.72,-1.09,-1.21,-1.25,-1.25
417,-0.45,0.80,-0.49,0.76,-0.76,-1.12,-1.21,-1.24,-1.24
421,-0.45,0.79,-0.43,0.81,-0.81,-1.15,-1.25,-1.24,-1.24
425,-0.43,0.80,-0.37,0.86,-0.86,-1.18,-1.28,-1.23,-1.23
430,-0.23,0.99,-0.31,0.91,-0.91,-1.21,-1.13,-1.22,-1.22
434,-0.23,0.98,-0.26,0.96,-0.96,-1.24,-1.18,-1.21,-1.21
438,-0.23,0.97,-0.20,1.00,-1.00,-1.27,-1.23,-1.20,-1.20
443,-0.23,0.97,-0.14,1.05,-1.05,-1.30,-1.28,-1.19,-1.19
447,-0.01,1.18,-0.08,1.10,-1.10,-1.32,-1.11,-1.18,-1.18
451,0.00,1.18,-0.03,1.15,-1.15,-1.34,-1.15,-1.17,-1.17
456,0.00,1.17,0.03,1.19,-1.19,-1.37,-1.19,-1.16,-1.16
460,0.00,1.16,0.08,1.23,-1.23,-1.39,-1.23,-1.15,-1.15
465,0.12,1.27,0.13,1.27,-1.27,-1.41,-1.15,-1.14,-1.14
470,0.23,1.36,0.16,1.30,-1.30,-1.42,-1.06,-1.13,-1.13
474,0.23,1.35,0.19,1.31,-1.31,-1.44,-1.08,-1.12,-1.12
479,0.23,1.34,0.21,1.32,-1.32,-1.45,-1.09,-1.11,-1.11
484,0.23,1.33,0.23,1.32,-1.32,-1.46,-1.09,-1.09,-1.09
489,0.23,1.31,0.23,1.31,-1.31,-1.47,-1.08,-1.08,-1.08
494,0.23,1.30,0.23,1.30,-1.30,-1.48,-1.06,-1.06,-1.06
499,0.23,1.28,0.24,1.28,-1.28,-1.48,-1.05,-1.05,-1.05
504,0.23,1.26,0.24,1.27,-1.27,-1.48,-1.04,-1.03,-1.03
509,0.23,1.24,0.26,1.27,-1.27,-1.48,-1.04,-1.01,-1.01
514,0.23,1.23,0.29,1.28,-1.28,-1.47,-1.05,-0.99,-0.99
519,0.27,1.25,0.32,1.30,-1.30,-1.46,-1.02,-0.97,-0.97
524,0.46,1.42,0.37,1.32,-1.32,-1.46,-0.86,-0.95,-0.95
529,0.46,1.39,0.42,1.35,-1.35,-1.44,-0.89,-0.93,-0.93
535,0.46,1.37,0.48,1.39,-1.39,-1.43,-0.93,-0.91,-0.91
540,0.46,1.35,0.55,1.43,-1.43,-1.41,-0.97,-0.89,-0.89
545,0.65,1.52,0.62,1.48,-1.48,-1.40,-0.83,-0.86,-0.86
551,0.69,1.53,0.68,1.53,-1.53,-1.37,-0.83,-0.84,-0.84
556,0.72,1.54,0.75,1.57,-1.57,-1.35,-0.85,-0.82,-0.82
562,0.91,1.70,0.82,1.61,-1.61,-1.33,-0.70,-0.79,-0.79
568,0.91,1.68,0.89,1.66,-1.66,-1.30,-0.75,-0.77,-0.77
573,0.91,1.65,0.96,1.71,-1.71,-1.28,-0.79,-0.74,-0.74
579,1.10,1.82,1.04,1.76,-1.76,-1.25,-0.65,-0.72,-0.72
585,1.14,1.84,1.12,1.81,-1.81,-1.23,-0.67,-0.69,-0.69
591,1.14,1.81,1.21,1.88,-1.88,-1.20,-0.74,-0.67,-0.67
596,1.18,1.83,1.31,1.96,-1.96,-1.17,-0.77,-0.65,-0.64
602,1.45,2.07,1.42,2.05,-2.05,-1.14,-0.59,-0.62,-0.62
608,1.60,2.20,1.55,2.15,-2.15,-1.11,-0.55,-0.60,-0.60
615,1.78,2.36,1.70,2.27,-2.27,-1.08,-0.49,-0.58,-0.58
621,1.83,2.39,1.86,2.42,-2.42,-1.05,-0.58,-0.55,-0.55
627,2.05,2.58,2.05,2.58,-2.58,-1.02,-0.53,-0.53,-0.53
633,2.08,2.59,2.25,2.76,-2.76,-0.99,-0.68,-0.51,-0.51
639,2.33,2.82,2.46,2.95,-2.95,-0.97,-0.62,-0.49,-0.49
646,2.51,2.98,2.66,3.13,-3.13,-0.93,-0.62,-0.47,-0.47
652,2.63,3.08,2.83,3.28,-3.28,-0.91,-0.64,-0.45,-0.45
659,2.92,3.35,2.92,3.35,-3.35,-0.88,-0.43,-0.43,-0.43
665,3.15,3.56,2.92,3.33,-3.33,-0.85,-0.18,-0.41,-0.41
672,3.18,3.57,2.78,3.17,-3.17,-0.82,0.01,-0.39,-0.39
679,2.86,3.23,2.51,2.88,-2.88,-0.79,-0.02,-0.37,-0.37
686,2.32,2.67,2.09,2.44,-2.44,-0.77,-0.12,-0.35,-0.35
692,1.76,2.10,1.56,1.89,-1.89,-0.74,-0.13,-0.33,-0.33
699,0.97,1.29,0.95,1.27,-1.27,-0.72,-0.29,-0.31,-0.31
706,0.18,0.48,0.32,0.62,-0.62,-0.69,-0.43,-0.29,-0.29
713,-0.60,-0.32,-0.28,-0.00,0.00,-0.67,-0.60,-0.27,-0.27
721,-1.08,-0.82,-0.80,-0.55,0.55,-0.64,-0.53,-0.25,-0.25
728,-1.43,-1.19,-1.21,-0.98,0.98,-0.62,-0.45,-0.23,-0.23
735,-1.68,-1.47,-1.50,-1.29,1.29,-0.60,-0.39,-0.21,-0.21
742,-1.82,-1.63,-1.67,-1.47,1.47,-0.57,-0.34,-0.19,-0.19
750,-1.66,-1.49,-1.72,-1.55,1.55,-0.55,-0.11,-0.17,-0.17
757,-1.59,-1.44,-1.69,-1.54,1.54,-0.53,-0.05,-0.15,-0.15
765,-1.59,-1.45,-1.60,-1.47,1.47,-0.51,-0.12,-0.13,-0.13
773,-1.37,-1.25,-1.49,-1.37,1.37,-0.49,0.00,-0.11,-0.11
780,-1.31,-1.21,-1.36,-1.26,1.26,-0.47,-0.05,-0.10,-0.10
788,-1.14,-1.06,-1.24,-1.16,1.16,-0.45,0.02,-0.08,-0.08
796,-1.14,-1.08,-1.13,-1.07,1.07,-0.43,-0.07,-0.06,-0.06
804,-1.14,-1.09,-1.04,-1.00,1.00,-0.42,-0.14,-0.05,-0.05
812,-0.93,-0.90,-0.98,-0.95,0.95,-0.40,0.02,-0.03,-0.03
820,-0.91,-0.89,-0.94,-0.92,0.92,-0.38,0.02,-0.02,-0.02
828,-0.91,-0.90,-0.93,-0.92,0.92,-0.37,0.01,-0.01,-0.01
837,-0.91,-0.91,-0.94,-0.94,0.94,-0.35,0.03,0.00,0.00
845,-0.91,-0.92,-0.96,-0.97,0.97,-0.34,0.07,0.01,0.01
853,-0.91,-0.93,-1.00,-1.02,1.02,-0.32,0.11,0.02,0.02
862,-1.09,-1.12,-1.04,-1.07,1.07,-0.31,-0.02,0.03,0.03
871,-1.14,-1.18,-1.08,-1.12,1.12,-0.30,-0.02,0.04,0.04
879,-1.14,-1.18,-1.11,-1.15,1.15,-0.29,0.01,0.05,0.05
888,-1.14,-1.19,-1.11,-1.16,1.16,-0.28,0.03,0.05,0.05
897,-1.14,-1.20,-1.09,-1.15,1.15,-0.26,0.01,0.06,0.06
906,-1.14,-1.20,-1.05,-1.12,1.12,-0.26,-0.02,0.06,0.06
915,-0.98,-1.05,-0.99,-1.06,1.06,-0.25,0.08,0.07,0.07
924,-0.91,-0.98,-0.90,-0.97,0.97,-0.24,0.07,0.08,0.08
933,-0.69,-0.77,-0.80,-0.88,0.88,-0.23,0.19,0.08,0.08
943,-0.68,-0.77,-0.69,-0.77,0.77,-0.23,0.10,0.09,0.09
952,-0.62,-0.71,-0.57,-0.67,0.67,-0.22,0.05,0.10,0.10
962,-0.45,-0.55,-0.45,-0.55,0.55,-0.22,0.11,0.10,0.10
971,-0.33,-0.44,-0.33,-0.44,0.44,-0.22,0.12,0.11,0.11
981,-0.23,-0.35,-0.21,-0.34,0.34,-0.22,0.11,0.12,0.12
991,-0.02,-0.15,-0.10,-0.23,0.23,-0.22,0.21,0.13,0.13
1001,0.00,-0.14,0.01,-0.13,0.13,-0.22,0.13,0.15,0.15
1011,0.05,-0.11,0.12,-0.04,0.04,-0.22,0.09,0.16,0.16
1021,0.23,0.06,0.22,0.05,-0.05,-0.22,0.18,0.17,0.17
1031,0.34,0.15,0.32,0.13,-0.13,-0.22,0.21,0.19,0.19
1041,0.46,0.26,0.41,0.21,-0.21,-0.23,0.25,0.21,0.21
1052,0.46,0.24,0.50,0.28,-0.28,-0.24,0.18,0.22,0.22
1062,0.66,0.42,0.59,0.34,-0.34,-0.24,0.32,0.24,0.24
1073,0.69,0.43,0.67,0.41,-0.41,-0.25,0.29,0.26,0.26
1084,0.69,0.41,0.76,0.47,-0.47,-0.26,0.22,0.29,0.29
1094,0.76,0.45,0.84,0.53,-0.53,-0.27,0.23,0.31,0.31
1105,0.91,0.58,0.93,0.60,-0.60,-0.28,0.31,0.33,0.33
1116,1.06,0.71,1.02,0.67,-0.67,-0.29,0.39,0.35,0.35
1128,1.14,0.76,1.11,0.73,-0.73,-0.30,0.41,0.38,0.38
1139,1.14,0.74,1.20,0.80,-0.80,-0.32,0.34,0.40,0.40
1150,1.37,0.95,1.28,0.86,-0.86,-0.33,0.52,0.42,0.42
1162,1.37,0.93,1.35,0.91,-0.91,-0.35,0.47,0.44,0.44
1173,1.37,0.91,1.42,0.95,-0.95,-0.36,0.42,0.47,0.47
1185,1.50,1.02,1.48,0.99,-0.99,-0.38,0.51,0.49,0.49
1197,1.60,1.10,1.54,1.03,-1.03,-0.40,0.57,0.50,0.50
1209,1.60,1.08,1.60,1.08,-1.08,-0.42,0.52,0.52,0.52
1221,1.60,1.07,1.66,1.13,-1.13,-0.43,0.47,0.53,0.53
1233,1.63,1.09,1.74,1.19,-1.19,-0.45,0.44,0.55,0.55
1246,1.83,1.28,1.82,1.27,-1.27,-0.48,0.57,0.56,0.56
1258,1.93,1.37,1.91,1.35,-1.35,-0.50,0.58,0.56,0.56
1271,2.05,1.48,2.01,1.45,-1.45,-0.52,0.61,0.57,0.57
1283,2.05,1.48,2.11,1.55,-1.55,-0.54,0.51,0.57,0.57
1296,2.26,1.69,2.22,1.65,-1.65,-0.56,0.61,0.57,0.57
1309,2.29,1.73,2.32,1.75,-1.75,-0.59,0.54,0.57,0.57
1322,2.51,1.95,2.41,1.85,-1.85,-0.61,0.66,0.56,0.56
1335,2.51,1.96,2.50,1.95,-1.95,-0.64,0.56,0.55,0.55
1349,2.51,1.97,2.58,2.04,-2.04,-0.66,0.47,0.54,0.54
1362,2.66,2.13,2.66,2.13,-2.13,-0.69,0.53,0.53,0.53
1376,2.74,2.22,2.74,2.22,-2.22,-0.72,0.53,0.52,0.52
1390,2.74,2.23,2.81,2.30,-2.30,-0.75,0.44,0.51,0.51
1404,2.96,2.47,2.87,2.38,-2.38,-0.78,0.58,0.49,0.49
1418,2.96,2.48,2.93,2.45,-2.45,-0.81,0.51,0.48,0.48
1432,2.96,2.50,2.99,2.52,-2.52,-0.84,0.44,0.47,0.47
1446,2.96,2.51,3.04,2.59,-2.59,-0.87,0.37,0.45,0.45
1461,3.14,2.70,3.09,2.65,-2.65,-0.90,0.49,0.44,0.44
1475,3.19,2.76,3.13,2.70,-2.70,-0.93,0.49,0.43,0.43
1490,3.19,2.77,3.18,2.75,-2.75,-0.97,0.44,0.43,0.43
1505,3.19,2.77,3.22,2.80,-2.80,-1.00,0.39,0.42,0.42
1520,3.19,2.77,3.27,2.85,-2.85,-1.03,0.35,0.42,0.42
1535,3.30,2.88,3.31,2.89,-2.89,-1.07,0.41,0.42,0.42
1550,3.42,2.99,3.36,2.93,-2.93,-1.10,0.49,0.43,0.43
1566,3.42,2.98,3.42,2.97,-2.97,-1.14,0.45,0.44,0.44
1582,3.42,2.96,3.47,3.01,-3.01,-1.17,0.41,0.46,0.46
1597,3.43,2.95,3.51,3.03,-3.03,-1.21,0.40,0.48,0.48
1613,3.65,3.15,3.55,3.05,-3.05,-1.24,0.60,0.51,0.50
1629,3.65,3.12,3.59,3.05,-3.05,-1.28,0.60,0.54,0.54
