frequency,raw,error,smoothed,error_smoothed,equalization,parametric_eq,fixed_band_eq,equalized_raw,equalized_smoothed,target
20.00,-3.45,-4.91,-3.48,-4.97,4.97,4.39,2.02,1.52,1.49,1.46
20.20,-3.45,-4.96,-3.47,-4.99,4.99,4.42,2.08,1.54,1.52,1.51
20.40,-3.45,-5.01,-3.46,-5.02,5.02,4.45,2.14,1.57,1.56,1.56
20.61,-3.46,-5.05,-3.45,-5.04,5.04,4.49,2.20,1.58,1.59,1.59
20.81,-3.46,-5.10,-3.44,-5.06,5.06,4.52,2.27,1.60,1.62,1.64
21.02,-3.46,-5.14,-3.42,-5.07,5.07,4.55,2.33,1.61,1.65,1.68
21.23,-3.43,-5.13,-3.41,-5.08,5.08,4.57,2.40,1.65,1.67,1.70
21.44,-3.41,-5.13,-3.39,-5.09,5.09,4.60,2.47,1.68,1.70,1.72
21.66,-3.38,-5.12,-3.38,-5.10,5.10,4.63,2.55,1.71,1.72,1.73
21.87,-3.35,-5.10,-3.36,-5.10,5.10,4.66,2.62,1.74,1.74,1.75
22.09,-3.33,-5.10,-3.34,-5.09,5.09,4.68,2.70,1.76,1.75,1.76
22.31,-3.31,-5.09,-3.32,-5.09,5.09,4.70,2.78,1.78,1.76,1.77
22.54,-3.29,-5.07,-3.30,-5.07,5.07,4.73,2.86,1.78,1.77,1.77
22.76,-3.27,-5.04,-3.27,-5.05,5.05,4.75,2.94,1.78,1.77,1.77
22.99,-3.25,-5.01,-3.25,-5.02,5.02,4.77,3.02,1.77,1.78,1.76
23.22,-3.23,-4.99,-3.22,-5.00,5.00,4.79,3.11,1.77,1.78,1.76
23.45,-3.20,-4.96,-3.20,-4.98,4.98,4.81,3.20,1.77,1.78,1.76
23.69,-3.18,-4.95,-3.18,-4.96,4.96,4.83,3.29,1.78,1.78,1.77
23.92,-3.16,-4.93,-3.16,-4.94,4.94,4.85,3.38,1.78,1.78,1.77
24.16,-3.13,-4.91,-3.14,-4.92,4.92,4.86,3.47,1.79,1.78,1.78
24.40,-3.11,-4.90,-3.12,-4.90,4.90,4.88,3.57,1.79,1.78,1.79
24.65,-3.08,-4.86,-3.10,-4.88,4.88,4.89,3.67,1.80,1.78,1.78
24.89,-3.06,-4.84,-3.08,-4.86,4.86,4.91,3.76,1.80,1.78,1.78
25.14,-3.05,-4.83,-3.06,-4.84,4.84,4.92,3.86,1.79,1.78,1.78
25.39,-3.05,-4.84,-3.04,-4.82,4.82,4.93,3.96,1.77,1.78,1.79
25.65,-3.04,-4.83,-3.02,-4.81,4.81,4.94,4.06,1.76,1.78,1.79
25.91,-3.04,-4.82,-3.01,-4.79,4.79,4.94,4.16,1.75,1.78,1.78
26.16,-3.01,-4.79,-2.99,-4.78,4.78,4.95,4.26,1.76,1.78,1.78
26.43,-2.96,-4.74,-2.97,-4.75,4.75,4.96,4.36,1.79,1.78,1.78
26.69,-2.91,-4.69,-2.94,-4.72,4.72,4.96,4.46,1.81,1.78,1.78
26.96,-2.86,-4.65,-2.91,-4.69,4.69,4.96,4.55,1.83,1.78,1.79
27.23,-2.86,-4.65,-2.88,-4.66,4.66,4.96,4.65,1.80,1.78,1.78
27.50,-2.88,-4.67,-2.85,-4.62,4.62,4.97,4.74,1.74,1.78,1.78
27.77,-2.89,-4.66,-2.82,-4.59,4.59,4.96,4.83,1.70,1.77,1.77
28.05,-2.88,-4.65,-2.79,-4.56,4.56,4.96,4.91,1.68,1.77,1.77
28.33,-2.80,-4.56,-2.76,-4.53,4.53,4.96,5.00,1.73,1.77,1.76
28.62,-2.71,-4.47,-2.74,-4.51,4.51,4.95,5.07,1.80,1.77,1.76
28.90,-2.62,-4.39,-2.72,-4.49,4.49,4.95,5.15,1.87,1.77,1.77
29.19,-2.60,-4.36,-2.71,-4.47,4.47,4.94,5.21,1.87,1.77,1.76
29.48,-2.62,-4.40,-2.69,-4.46,4.46,4.93,5.27,1.84,1.77,1.78
29.78,-2.64,-4.41,-2.68,-4.44,4.44,4.92,5.33,1.80,1.77,1.77
30.08,-2.65,-4.43,-2.65,-4.42,4.42,4.91,5.38,1.77,1.77,1.78
30.38,-2.66,-4.43,-2.63,-4.39,4.39,4.90,5.42,1.73,1.77,1.77
30.68,-2.66,-4.43,-2.60,-4.37,4.37,4.89,5.45,1.70,1.76,1.76
30.99,-2.67,-4.43,-2.58,-4.34,4.34,4.87,5.47,1.67,1.76,1.76
31.30,-2.63,-4.39,-2.56,-4.32,4.32,4.86,5.49,1.69,1.76,1.76
31.61,-2.60,-4.36,-2.55,-4.31,4.31,4.84,5.50,1.71,1.76,1.76
31.93,-2.56,-4.32,-2.54,-4.29,4.29,4.82,5.51,1.73,1.76,1.76
32.24,-2.50,-4.25,-2.53,-4.28,4.28,4.81,5.50,1.78,1.75,1.75
32.57,-2.44,-4.20,-2.51,-4.26,4.26,4.79,5.49,1.81,1.75,1.76
32.89,-2.38,-4.14,-2.48,-4.23,4.23,4.76,5.47,1.85,1.75,1.75
33.22,-2.38,-4.12,-2.46,-4.21,4.21,4.74,5.44,1.83,1.74,1.74
33.55,-2.40,-4.14,-2.44,-4.18,4.18,4.72,5.41,1.78,1.74,1.74
33.89,-2.43,-4.16,-2.42,-4.16,4.16,4.70,5.38,1.73,1.74,1.73
34.23,-2.44,-4.18,-2.41,-4.14,4.14,4.67,5.33,1.70,1.73,1.74
34.57,-2.45,-4.18,-2.40,-4.13,4.13,4.64,5.29,1.67,1.73,1.73
34.92,-2.46,-4.19,-2.39,-4.12,4.12,4.62,5.24,1.65,1.73,1.72
35.27,-2.43,-4.15,-2.39,-4.11,4.11,4.59,5.18,1.68,1.72,1.72
35.62,-2.39,-4.11,-2.39,-4.11,4.11,4.56,5.13,1.72,1.72,1.72
35.97,-2.34,-4.06,-2.39,-4.11,4.11,4.53,5.07,1.77,1.72,1.72
36.33,-2.34,-4.07,-2.39,-4.11,4.11,4.50,5.01,1.77,1.72,1.73
36.70,-2.34,-4.06,-2.38,-4.10,4.10,4.47,4.95,1.76,1.72,1.71
37.06,-2.34,-4.05,-2.36,-4.08,4.08,4.44,4.88,1.74,1.72,1.71
37.43,-2.34,-4.07,-2.34,-4.06,4.06,4.41,4.82,1.72,1.72,1.73
37.81,-2.34,-4.07,-2.32,-4.04,4.04,4.38,4.76,1.70,1.73,1.73
38.19,-2.34,-4.07,-2.30,-4.02,4.02,4.34,4.69,1.68,1.73,1.72
38.57,-2.33,-4.06,-2.28,-4.01,4.01,4.31,4.63,1.67,1.73,1.73
38.95,-2.32,-4.06,-2.26,-3.99,3.99,4.27,4.57,1.67,1.73,1.74
39.34,-2.26,-4.00,-2.24,-3.97,3.97,4.24,4.51,1.71,1.73,1.74
39.74,-2.19,-3.92,-2.22,-3.96,3.96,4.20,4.46,1.77,1.74,1.73
40.14,-2.14,-3.88,-2.21,-3.94,3.94,4.16,4.40,1.80,1.74,1.74
40.54,-2.14,-3.88,-2.19,-3.92,3.92,4.13,4.35,1.78,1.74,1.74
40.94,-2.14,-3.87,-2.17,-3.91,3.91,4.09,4.30,1.77,1.73,1.73
41.35,-2.14,-3.87,-2.16,-3.89,3.89,4.05,4.25,1.75,1.73,1.73
41.76,-2.14,-3.87,-2.15,-3.87,3.87,4.01,4.21,1.73,1.73,1.73
42.18,-2.14,-3.87,-2.14,-3.86,3.86,3.98,4.17,1.71,1.72,1.73
42.60,-2.14,-3.86,-2.13,-3.84,3.84,3.94,4.13,1.70,1.71,1.72
43.03,-2.14,-3.85,-2.13,-3.83,3.83,3.90,4.09,1.69,1.70,1.71
43.46,-2.14,-3.85,-2.13,-3.82,3.82,3.86,4.06,1.68,1.69,1.71
43.90,-2.14,-3.83,-2.13,-3.82,3.82,3.82,4.03,1.68,1.68,1.68
44.33,-2.14,-3.81,-2.13,-3.81,3.81,3.78,4.00,1.67,1.68,1.67
44.78,-2.14,-3.80,-2.13,-3.80,3.80,3.74,3.98,1.66,1.67,1.65
45.23,-2.14,-3.79,-2.13,-3.79,3.79,3.70,3.95,1.65,1.65,1.65
45.68,-2.14,-3.78,-2.14,-3.78,3.78,3.66,3.94,1.64,1.64,1.63
46.13,-2.14,-3.76,-2.14,-3.77,3.77,3.61,3.92,1.63,1.63,1.62
46.60,-2.14,-3.76,-2.15,-3.77,3.77,3.57,3.91,1.62,1.62,1.62
47.06,-2.14,-3.75,-2.15,-3.76,3.76,3.53,3.90,1.62,1.61,1.61
47.53,-2.14,-3.74,-2.16,-3.76,3.76,3.49,3.89,1.61,1.60,1.60
48.01,-2.14,-3.75,-2.16,-3.75,3.75,3.45,3.89,1.61,1.59,1.60
48.49,-2.15,-3.74,-2.17,-3.74,3.74,3.41,3.89,1.59,1.58,1.59
48.97,-2.17,-3.74,-2.18,-3.74,3.74,3.37,3.89,1.57,1.57,1.57
49.46,-2.20,-3.76,-2.19,-3.75,3.75,3.32,3.89,1.55,1.56,1.55
49.96,-2.24,-3.78,-2.20,-3.75,3.75,3.28,3.90,1.51,1.55,1.54
50.46,-2.24,-3.78,-2.22,-3.76,3.76,3.24,3.91,1.52,1.54,1.54
50.96,-2.24,-3.77,-2.24,-3.77,3.77,3.20,3.91,1.53,1.53,1.53
51.47,-2.24,-3.75,-2.25,-3.78,3.78,3.16,3.93,1.54,1.52,1.51
51.99,-2.24,-3.75,-2.27,-3.78,3.78,3.12,3.94,1.54,1.51,1.50
52.51,-2.24,-3.75,-2.28,-3.78,3.78,3.07,3.95,1.54,1.51,1.51
53.03,-2.24,-3.75,-2.29,-3.79,3.79,3.03,3.96,1.55,1.50,1.51
53.56,-2.33,-3.83,-2.30,-3.79,3.79,2.99,3.97,1.46,1.49,1.50
54.10,-2.39,-3.88,-2.30,-3.79,3.79,2.95,3.99,1.40,1.49,1.49
54.64,-2.36,-3.84,-2.31,-3.79,3.79,2.91,4.00,1.43,1.48,1.48
55.18,-2.34,-3.82,-2.33,-3.80,3.80,2.87,4.01,1.46,1.48,1.48
55.74,-2.34,-3.81,-2.34,-3.82,3.82,2.83,4.02,1.47,1.47,1.47
56.29,-2.33,-3.80,-2.36,-3.83,3.83,2.79,4.03,1.49,1.46,1.46
56.86,-2.31,-3.76,-2.38,-3.83,3.83,2.75,4.03,1.52,1.46,1.45
57.42,-2.34,-3.77,-2.39,-3.84,3.84,2.71,4.04,1.50,1.45,1.43
58.00,-2.39,-3.82,-2.41,-3.85,3.85,2.67,4.04,1.45,1.43,1.43
58.58,-2.42,-3.85,-2.43,-3.85,3.85,2.63,4.04,1.43,1.42,1.43
59.16,-2.45,-3.86,-2.45,-3.85,3.85,2.59,4.03,1.40,1.40,1.41
59.76,-2.50,-3.90,-2.47,-3.85,3.85,2.55,4.02,1.35,1.38,1.40
60.35,-2.54,-3.91,-2.49,-3.85,3.85,2.51,4.01,1.30,1.36,1.37
60.96,-2.58,-3.92,-2.51,-3.84,3.84,2.47,3.99,1.26,1.33,1.34
61.57,-2.53,-3.84,-2.53,-3.84,3.84,2.43,3.97,1.30,1.30,1.31
62.18,-2.51,-3.78,-2.56,-3.83,3.83,2.39,3.94,1.32,1.27,1.27
62.80,-2.56,-3.80,-2.59,-3.83,3.83,2.35,3.91,1.27,1.24,1.23
63.43,-2.61,-3.81,-2.62,-3.83,3.83,2.31,3.87,1.21,1.21,1.20
64.07,-2.65,-3.81,-2.64,-3.81,3.81,2.27,3.83,1.16,1.17,1.16
64.71,-2.65,-3.77,-2.66,-3.79,3.79,2.23,3.79,1.14,1.13,1.12
65.35,-2.65,-3.75,-2.67,-3.77,3.77,2.20,3.74,1.12,1.10,1.10
66.01,-2.65,-3.71,-2.68,-3.74,3.74,2.16,3.68,1.09,1.06,1.06
66.67,-2.65,-3.67,-2.69,-3.71,3.71,2.12,3.63,1.06,1.02,1.02
67.33,-2.70,-3.68,-2.70,-3.69,3.69,2.08,3.56,0.99,0.98,0.98
68.01,-2.81,-3.76,-2.71,-3.66,3.66,2.05,3.50,0.85,0.94,0.95
68.69,-2.81,-3.72,-2.72,-3.62,3.62,2.01,3.43,0.81,0.90,0.91
69.37,-2.75,-3.62,-2.72,-3.58,3.58,1.97,3.36,0.83,0.86,0.87
70.07,-2.65,-3.48,-2.72,-3.54,3.54,1.94,3.28,0.89,0.82,0.82
70.77,-2.65,-3.44,-2.70,-3.48,3.48,1.90,3.20,0.83,0.78,0.79
71.48,-2.65,-3.40,-2.68,-3.42,3.42,1.86,3.12,0.77,0.74,0.75
72.19,-2.65,-3.35,-2.66,-3.35,3.35,1.83,3.04,0.70,0.69,0.70
72.91,-2.65,-3.30,-2.63,-3.28,3.28,1.79,2.96,0.63,0.65,0.65
73.64,-2.62,-3.23,-2.59,-3.20,3.20,1.76,2.87,0.58,0.61,0.61
74.38,-2.57,-3.13,-2.55,-3.11,3.11,1.72,2.79,0.54,0.56,0.56
75.12,-2.51,-3.03,-2.50,-3.02,3.02,1.69,2.70,0.51,0.52,0.51
75.87,-2.46,-2.93,-2.45,-2.93,2.93,1.65,2.62,0.47,0.48,0.47
76.63,-2.48,-2.91,-2.41,-2.85,2.85,1.62,2.53,0.37,0.44,0.43
77.40,-2.37,-2.76,-2.37,-2.77,2.77,1.58,2.44,0.39,0.40,0.39
78.17,-2.20,-2.55,-2.32,-2.68,2.68,1.55,2.36,0.48,0.36,0.34
78.95,-2.22,-2.55,-2.26,-2.58,2.58,1.52,2.27,0.36,0.32,0.33
79.74,-2.17,-2.46,-2.20,-2.49,2.49,1.48,2.18,0.32,0.29,0.29
80.54,-2.14,-2.40,-2.14,-2.40,2.40,1.45,2.10,0.25,0.25,0.26
81.35,-2.11,-2.33,-2.08,-2.30,2.30,1.41,2.01,0.18,0.22,0.22
82.16,-2.03,-2.22,-2.02,-2.21,2.21,1.38,1.93,0.17,0.19,0.18
82.98,-2.00,-2.16,-1.96,-2.12,2.12,1.35,1.85,0.12,0.15,0.16
83.81,-1.94,-2.06,-1.90,-2.02,2.02,1.31,1.76,0.08,0.12,0.12
84.65,-1.83,-1.92,-1.83,-1.92,1.92,1.28,1.68,0.09,0.09,0.09
85.50,-1.74,-1.81,-1.76,-1.82,1.82,1.25,1.60,0.08,0.06,0.06
86.35,-1.68,-1.71,-1.71,-1.73,1.73,1.21,1.52,0.05,0.02,0.03
87.22,-1.65,-1.65,-1.65,-1.64,1.64,1.18,1.45,-0.01,-0.01,-0.00
88.09,-1.66,-1.62,-1.58,-1.54,1.54,1.15,1.37,-0.12,-0.04,-0.04
88.97,-1.46,-1.39,-1.52,-1.44,1.44,1.12,1.29,-0.02,-0.08,-0.07
89.86,-1.42,-1.31,-1.46,-1.35,1.35,1.08,1.22,-0.07,-0.11,-0.11
90.76,-1.46,-1.31,-1.41,-1.26,1.26,1.05,1.14,-0.20,-0.14,-0.15
91.66,-1.30,-1.13,-1.35,-1.17,1.17,1.02,1.07,-0.13,-0.18,-0.17
92.58,-1.20,-0.98,-1.30,-1.09,1.09,0.99,0.99,-0.11,-0.21,-0.22
93.51,-1.21,-0.96,-1.25,-1.01,1.01,0.95,0.92,-0.20,-0.24,-0.25
94.44,-1.25,-0.98,-1.21,-0.94,0.94,0.92,0.85,-0.32,-0.27,-0.27
95.39,-1.25,-0.95,-1.16,-0.86,0.86,0.89,0.78,-0.39,-0.31,-0.30
96.34,-1.14,-0.80,-1.11,-0.78,0.78,0.86,0.71,-0.37,-0.34,-0.34
97.30,-1.02,-0.65,-1.07,-0.70,0.70,0.82,0.65,-0.32,-0.37,-0.37
98.28,-1.07,-0.67,-1.03,-0.63,0.63,0.79,0.58,-0.44,-0.40,-0.40
99.26,-1.06,-0.63,-0.99,-0.57,0.57,0.76,0.51,-0.49,-0.43,-0.43
100.25,-0.93,-0.48,-0.96,-0.50,0.50,0.72,0.45,-0.43,-0.46,-0.46
101.25,-0.87,-0.39,-0.92,-0.43,0.43,0.69,0.39,-0.44,-0.49,-0.49
102.27,-0.92,-0.41,-0.90,-0.38,0.38,0.66,0.32,-0.54,-0.52,-0.51
103.29,-0.87,-0.32,-0.87,-0.33,0.33,0.62,0.26,-0.54,-0.55,-0.55
104.32,-0.79,-0.22,-0.84,-0.26,0.26,0.59,0.20,-0.53,-0.58,-0.57
105.37,-0.73,-0.13,-0.82,-0.21,0.21,0.55,0.14,-0.53,-0.61,-0.60
106.42,-0.77,-0.14,-0.80,-0.16,0.16,0.52,0.08,-0.61,-0.64,-0.63
107.48,-0.83,-0.16,-0.80,-0.12,0.12,0.48,0.03,-0.71,-0.68,-0.67
108.56,-0.79,-0.08,-0.79,-0.08,0.08,0.45,-0.03,-0.71,-0.71,-0.71
109.64,-0.76,-0.02,-0.78,-0.03,0.03,0.41,-0.08,-0.73,-0.74,-0.74
110.74,-0.78,-0.00,-0.76,0.01,-0.01,0.38,-0.13,-0.79,-0.78,-0.78
111.85,-0.80,-0.00,-0.75,0.06,-0.06,0.34,-0.18,-0.86,-0.81,-0.80
112.97,-0.80,0.05,-0.73,0.11,-0.11,0.30,-0.23,-0.91,-0.84,-0.85
114.10,-0.69,0.18,-0.71,0.16,-0.16,0.27,-0.27,-0.85,-0.87,-0.88
115.24,-0.69,0.21,-0.70,0.20,-0.20,0.23,-0.32,-0.89,-0.90,-0.90
116.39,-0.73,0.21,-0.68,0.25,-0.25,0.19,-0.36,-0.98,-0.93,-0.94
117.55,-0.70,0.26,-0.65,0.30,-0.30,0.15,-0.40,-1.00,-0.95,-0.96
118.73,-0.62,0.36,-0.62,0.36,-0.36,0.11,-0.44,-0.98,-0.97,-0.99
119.92,-0.54,0.45,-0.58,0.41,-0.41,0.07,-0.47,-0.96,-1.00,-0.99
121.12,-0.45,0.57,-0.55,0.46,-0.46,0.03,-0.51,-0.92,-1.01,-1.02
122.33,-0.47,0.57,-0.52,0.51,-0.51,-0.01,-0.54,-0.99,-1.03,-1.04
123.55,-0.49,0.55,-0.48,0.56,-0.56,-0.05,-0.57,-1.06,-1.05,-1.04
124.79,-0.50,0.56,-0.45,0.61,-0.61,-0.10,-0.59,-1.11,-1.06,-1.06
126.03,-0.50,0.57,-0.43,0.65,-0.65,-0.14,-0.61,-1.15,-1.08,-1.07
127.29,-0.40,0.68,-0.40,0.68,-0.68,-0.18,-0.64,-1.09,-1.09,-1.08
128.57,-0.34,0.76,-0.38,0.72,-0.72,-0.23,-0.65,-1.06,-1.10,-1.10
129.85,-0.34,0.77,-0.36,0.75,-0.75,-0.27,-0.67,-1.10,-1.11,-1.12
131.15,-0.33,0.80,-0.34,0.78,-0.78,-0.32,-0.69,-1.11,-1.13,-1.13
132.46,-0.33,0.81,-0.33,0.81,-0.81,-0.36,-0.70,-1.14,-1.14,-1.14
133.79,-0.32,0.83,-0.32,0.83,-0.83,-0.41,-0.71,-1.16,-1.15,-1.15
135.12,-0.32,0.85,-0.31,0.85,-0.85,-0.45,-0.72,-1.17,-1.16,-1.17
136.48,-0.32,0.85,-0.30,0.87,-0.87,-0.50,-0.72,-1.20,-1.18,-1.17
137.84,-0.31,0.88,-0.29,0.90,-0.90,-0.55,-0.73,-1.21,-1.19,-1.20
139.22,-0.31,0.90,-0.28,0.92,-0.92,-0.59,-0.73,-1.23,-1.20,-1.21
140.61,-0.31,0.92,-0.29,0.93,-0.93,-0.64,-0.73,-1.24,-1.22,-1.23
142.02,-0.31,0.92,-0.30,0.94,-0.94,-0.68,-0.73,-1.25,-1.24,-1.23
143.44,-0.30,0.95,-0.32,0.93,-0.93,-0.73,-0.73,-1.23,-1.26,-1.25
144.87,-0.32,0.96,-0.36,0.92,-0.92,-0.77,-0.73,-1.24,-1.28,-1.28
146.32,-0.40,0.90,-0.42,0.89,-0.89,-0.81,-0.73,-1.30,-1.31,-1.30
147.78,-0.49,0.83,-0.49,0.86,-0.86,-0.85,-0.73,-1.35,-1.35,-1.32
149.26,-0.51,0.84,-0.58,0.81,-0.81,-0.89,-0.73,-1.32,-1.39,-1.36
150.75,-0.49,0.92,-0.67,0.76,-0.76,-0.93,-0.72,-1.25,-1.43,-1.41
152.26,-0.60,0.86,-0.77,0.71,-0.71,-0.96,-0.72,-1.31,-1.48,-1.47
153.78,-0.75,0.77,-0.87,0.66,-0.66,-0.99,-0.72,-1.42,-1.54,-1.52
155.32,-0.94,0.64,-0.97,0.63,-0.63,-1.02,-0.72,-1.57,-1.60,-1.58
156.88,-1.13,0.51,-1.05,0.60,-0.60,-1.04,-0.71,-1.73,-1.65,-1.65
158.44,-1.28,0.44,-1.12,0.59,-0.59,-1.07,-0.71,-1.88,-1.71,-1.72
160.03,-1.39,0.40,-1.18,0.59,-0.59,-1.09,-0.71,-1.99,-1.77,-1.79
161.63,-1.41,0.44,-1.22,0.61,-0.61,-1.10,-0.70,-2.02,-1.83,-1.85
163.24,-1.39,0.51,-1.24,0.64,-0.64,-1.11,-0.70,-2.03,-1.88,-1.90
164.88,-1.35,0.59,-1.25,0.67,-0.67,-1.12,-0.70,-2.03,-1.92,-1.94
166.53,-1.27,0.71,-1.24,0.72,-0.72,-1.13,-0.70,-1.99,-1.96,-1.98
168.19,-1.18,0.83,-1.22,0.77,-0.77,-1.13,-0.70,-1.95,-1.99,-2.01
169.87,-1.09,0.94,-1.17,0.84,-0.84,-1.13,-0.70,-1.93,-2.01,-2.04
171.57,-0.99,1.05,-1.12,0.91,-0.91,-1.13,-0.70,-1.90,-2.03,-2.04
173.29,-0.96,1.09,-1.06,0.98,-0.98,-1.12,-0.70,-1.94,-2.04,-2.05
175.02,-0.95,1.10,-1.01,1.03,-1.03,-1.11,-0.70,-1.99,-2.05,-2.05
176.77,-0.96,1.09,-0.97,1.08,-1.08,-1.10,-0.70,-2.04,-2.05,-2.05
178.54,-0.92,1.13,-0.94,1.11,-1.11,-1.09,-0.70,-2.03,-2.05,-2.05
180.32,-0.87,1.16,-0.92,1.12,-1.12,-1.08,-0.70,-1.99,-2.04,-2.03
182.13,-0.86,1.16,-0.91,1.13,-1.13,-1.06,-0.71,-1.99,-2.04,-2.02
183.95,-0.90,1.12,-0.91,1.13,-1.13,-1.04,-0.71,-2.04,-2.04,-2.02
185.79,-0.93,1.09,-0.91,1.13,-1.13,-1.02,-0.72,-2.06,-2.04,-2.02
187.65,-0.93,1.10,-0.92,1.12,-1.12,-1.01,-0.72,-2.05,-2.04,-2.03
189.52,-0.98,1.05,-0.93,1.12,-1.12,-0.99,-0.73,-2.10,-2.04,-2.03
191.42,-0.99,1.05,-0.94,1.11,-1.11,-0.97,-0.74,-2.11,-2.05,-2.05
193.33,-0.99,1.07,-0.94,1.11,-1.11,-0.95,-0.74,-2.11,-2.06,-2.06
195.27,-0.99,1.08,-0.95,1.12,-1.12,-0.93,-0.75,-2.11,-2.07,-2.07
197.22,-0.96,1.12,-0.96,1.12,-1.12,-0.91,-0.76,-2.08,-2.08,-2.08
199.19,-0.93,1.17,-0.98,1.12,-1.12,-0.89,-0.77,-2.05,-2.09,-2.10
201.18,-0.93,1.18,-0.99,1.12,-1.12,-0.87,-0.78,-2.05,-2.11,-2.11
203.19,-0.98,1.14,-1.00,1.13,-1.13,-0.86,-0.79,-2.11,-2.12,-2.12
205.23,-1.02,1.12,-1.01,1.13,-1.13,-0.84,-0.80,-2.15,-2.14,-2.14
207.28,-1.02,1.12,-1.04,1.12,-1.12,-0.82,-0.81,-2.14,-2.15,-2.14
209.35,-1.04,1.12,-1.06,1.10,-1.10,-0.80,-0.82,-2.14,-2.17,-2.16
211.44,-1.10,1.09,-1.09,1.09,-1.09,-0.79,-0.83,-2.19,-2.18,-2.19
213.56,-1.12,1.07,-1.13,1.06,-1.06,-0.77,-0.84,-2.18,-2.19,-2.19
215.69,-1.13,1.06,-1.18,1.02,-1.02,-0.76,-0.85,-2.15,-2.20,-2.20
217.85,-1.21,0.99,-1.23,0.98,-0.98,-0.75,-0.86,-2.19,-2.21,-2.20
220.03,-1.23,0.98,-1.27,0.94,-0.94,-0.73,-0.87,-2.17,-2.21,-2.21
222.23,-1.27,0.96,-1.31,0.90,-0.90,-0.72,-0.88,-2.17,-2.21,-2.23
224.45,-1.39,0.83,-1.35,0.87,-0.87,-0.71,-0.88,-2.26,-2.21,-2.22
226.70,-1.44,0.77,-1.37,0.84,-0.84,-0.70,-0.89,-2.28,-2.21,-2.21
228.96,-1.44,0.76,-1.39,0.81,-0.81,-0.69,-0.90,-2.25,-2.20,-2.20
231.25,-1.43,0.76,-1.40,0.79,-0.79,-0.68,-0.91,-2.22,-2.19,-2.19
233.57,-1.45,0.72,-1.41,0.76,-0.76,-0.67,-0.92,-2.22,-2.17,-2.17
235.90,-1.51,0.65,-1.41,0.75,-0.75,-0.67,-0.92,-2.26,-2.15,-2.16
238.26,-1.44,0.70,-1.41,0.73,-0.73,-0.66,-0.93,-2.17,-2.13,-2.14
240.64,-1.36,0.76,-1.40,0.71,-0.71,-0.65,-0.93,-2.07,-2.11,-2.12
243.05,-1.35,0.73,-1.39,0.70,-0.70,-0.65,-0.93,-2.05,-2.09,-2.09
245.48,-1.34,0.72,-1.38,0.68,-0.68,-0.64,-0.94,-2.02,-2.06,-2.06
247.93,-1.31,0.71,-1.37,0.66,-0.66,-0.64,-0.94,-1.97,-2.04,-2.03
250.41,-1.29,0.72,-1.36,0.65,-0.65,-0.63,-0.94,-1.94,-2.01,-2.01
252.92,-1.28,0.69,-1.35,0.64,-0.64,-0.63,-0.94,-1.92,-1.98,-1.97
255.45,-1.30,0.65,-1.34,0.62,-0.62,-0.62,-0.94,-1.92,-1.96,-1.95
258.00,-1.37,0.55,-1.33,0.60,-0.60,-0.62,-0.93,-1.98,-1.93,-1.92
260.58,-1.38,0.53,-1.33,0.58,-0.58,-0.62,-0.93,-1.96,-1.90,-1.91
263.19,-1.36,0.51,-1.33,0.54,-0.54,-0.62,-0.92,-1.90,-1.88,-1.87
265.82,-1.35,0.50,-1.34,0.51,-0.51,-0.61,-0.92,-1.87,-1.85,-1.86
268.48,-1.35,0.48,-1.33,0.49,-0.49,-0.61,-0.91,-1.84,-1.82,-1.83
271.16,-1.36,0.43,-1.32,0.48,-0.48,-0.61,-0.91,-1.84,-1.80,-1.79
273.87,-1.29,0.48,-1.30,0.47,-0.47,-0.61,-0.90,-1.76,-1.77,-1.78
276.61,-1.21,0.53,-1.28,0.46,-0.46,-0.61,-0.89,-1.67,-1.74,-1.74
279.38,-1.23,0.48,-1.27,0.45,-0.45,-0.61,-0.88,-1.68,-1.71,-1.71
282.17,-1.25,0.43,-1.24,0.44,-0.44,-0.61,-0.87,-1.69,-1.68,-1.69
284.99,-1.29,0.36,-1.21,0.45,-0.45,-0.61,-0.86,-1.74,-1.65,-1.65
287.84,-1.31,0.32,-1.16,0.46,-0.46,-0.61,-0.85,-1.77,-1.62,-1.63
290.72,-1.07,0.52,-1.13,0.47,-0.47,-0.61,-0.84,-1.54,-1.59,-1.59
293.63,-0.97,0.59,-1.09,0.47,-0.47,-0.61,-0.83,-1.44,-1.56,-1.57
296.57,-1.00,0.53,-1.06,0.47,-0.47,-0.61,-0.82,-1.48,-1.53,-1.53
299.53,-1.00,0.50,-1.02,0.48,-0.48,-0.61,-0.81,-1.48,-1.50,-1.50
302.53,-0.98,0.50,-0.98,0.50,-0.50,-0.61,-0.80,-1.48,-1.47,-1.48
305.55,-1.02,0.41,-0.93,0.52,-0.52,-0.61,-0.78,-1.54,-1.45,-1.44
308.61,-1.00,0.42,-0.89,0.53,-0.53,-0.62,-0.77,-1.54,-1.42,-1.42
311.69,-0.73,0.66,-0.84,0.55,-0.55,-0.62,-0.76,-1.28,-1.40,-1.39
314.81,-0.73,0.63,-0.80,0.57,-0.57,-0.62,-0.75,-1.30,-1.37,-1.36
317.96,-0.76,0.58,-0.76,0.59,-0.59,-0.62,-0.74,-1.35,-1.35,-1.34
321.14,-0.80,0.53,-0.73,0.60,-0.60,-0.62,-0.73,-1.40,-1.33,-1.34
324.35,-0.74,0.58,-0.71,0.60,-0.60,-0.63,-0.72,-1.34,-1.31,-1.32
327.59,-0.66,0.64,-0.68,0.62,-0.62,-0.63,-0.72,-1.28,-1.30,-1.30
330.87,-0.54,0.75,-0.64,0.64,-0.64,-0.63,-0.71,-1.19,-1.28,-1.29
334.18,-0.51,0.76,-0.60,0.67,-0.67,-0.63,-0.70,-1.18,-1.27,-1.27
337.52,-0.59,0.67,-0.56,0.70,-0.70,-0.63,-0.69,-1.29,-1.26,-1.26
340.90,-0.61,0.63,-0.53,0.72,-0.72,-0.64,-0.69,-1.33,-1.25,-1.25
344.30,-0.55,0.68,-0.51,0.74,-0.74,-0.64,-0.68,-1.29,-1.24,-1.24
347.75,-0.48,0.76,-0.48,0.76,-0.76,-0.64,-0.67,-1.24,-1.24,-1.24
351.23,-0.46,0.77,-0.44,0.79,-0.79,-0.64,-0.67,-1.26,-1.23,-1.23
354.74,-0.41,0.82,-0.39,0.83,-0.83,-0.65,-0.66,-1.25,-1.23,-1.23
358.28,-0.35,0.87,-0.35,0.87,-0.87,-0.65,-0.66,-1.22,-1.22,-1.22
361.87,-0.27,0.95,-0.31,0.91,-0.91,-0.65,-0.66,-1.18,-1.22,-1.22
365.49,-0.24,0.97,-0.28,0.94,-0.94,-0.65,-0.65,-1.19,-1.22,-1.21
369.14,-0.23,0.99,-0.24,0.98,-0.98,-0.66,-0.65,-1.21,-1.22,-1.22
372.83,-0.25,0.97,-0.19,1.03,-1.03,-0.66,-0.65,-1.28,-1.22,-1.23
376.56,-0.23,1.00,-0.15,1.08,-1.08,-0.66,-0.65,-1.31,-1.22,-1.23
380.33,-0.01,1.21,-0.10,1.12,-1.12,-0.67,-0.65,-1.13,-1.22,-1.22
384.13,0.01,1.23,-0.06,1.16,-1.16,-0.67,-0.65,-1.16,-1.23,-1.22
387.97,-0.00,1.23,-0.02,1.21,-1.21,-0.67,-0.65,-1.21,-1.23,-1.23
391.85,-0.02,1.22,0.02,1.25,-1.25,-0.67,-0.65,-1.27,-1.24,-1.24
395.77,0.04,1.27,0.05,1.29,-1.29,-0.68,-0.65,-1.25,-1.24,-1.23
399.73,0.10,1.34,0.08,1.32,-1.32,-0.68,-0.65,-1.23,-1.25,-1.24
403.72,0.11,1.35,0.11,1.36,-1.36,-0.68,-0.65,-1.25,-1.25,-1.24
407.76,0.10,1.35,0.14,1.40,-1.40,-0.68,-0.65,-1.30,-1.26,-1.25
411.84,0.17,1.42,0.18,1.44,-1.44,-0.69,-0.66,-1.27,-1.26,-1.25
415.96,0.24,1.49,0.22,1.48,-1.48,-0.69,-0.66,-1.24,-1.26,-1.25
420.12,0.30,1.55,0.26,1.52,-1.52,-0.69,-0.66,-1.22,-1.26,-1.25
424.32,0.31,1.56,0.30,1.55,-1.55,-0.69,-0.66,-1.24,-1.25,-1.26
428.56,0.32,1.56,0.36,1.60,-1.60,-0.69,-0.67,-1.28,-1.24,-1.25
432.85,0.32,1.56,0.42,1.65,-1.65,-0.70,-0.67,-1.33,-1.22,-1.24
437.18,0.35,1.58,0.48,1.68,-1.68,-0.70,-0.67,-1.33,-1.20,-1.23
441.55,0.46,1.65,0.52,1.70,-1.70,-0.70,-0.68,-1.24,-1.18,-1.19
445.96,0.54,1.70,0.56,1.71,-1.71,-0.70,-0.68,-1.17,-1.14,-1.16
450.42,0.59,1.72,0.59,1.69,-1.69,-0.70,-0.68,-1.11,-1.11,-1.13
454.93,0.65,1.73,0.59,1.66,-1.66,-0.71,-0.69,-1.01,-1.07,-1.08
459.48,0.71,1.74,0.57,1.59,-1.59,-0.71,-0.69,-0.89,-1.02,-1.03
464.07,0.70,1.68,0.53,1.51,-1.51,-0.71,-0.69,-0.81,-0.98,-0.98
468.71,0.64,1.56,0.48,1.41,-1.41,-0.71,-0.69,-0.77,-0.93,-0.92
