frequency,raw
20.00,-0.61
20.20,-0.57
20.40,-0.54
20.61,-0.50
20.81,-0.46
21.02,-0.43
21.23,-0.39
21.44,-0.35
21.66,-0.32
21.87,-0.28
22.09,-0.25
22.31,-0.21
22.54,-0.18
22.76,-0.15
22.99,-0.11
23.22,-0.10
23.45,-0.10
23.69,-0.09
23.92,-0.08
24.16,-0.07
24.40,-0.04
24.65,-0.02
24.89,0.00
25.14,0.03
25.39,0.06
25.65,0.09
25.91,0.12
26.16,0.14
26.43,0.16
26.69,0.18
26.96,0.20
27.23,0.22
27.50,0.24
27.77,0.26
28.05,0.28
28.33,0.29
28.62,0.30
28.90,0.32
29.19,0.33
29.48,0.33
29.78,0.34
30.08,0.35
30.38,0.36
30.68,0.37
30.99,0.38
31.30,0.37
31.61,0.37
31.93,0.36
32.24,0.35
32.57,0.34
32.89,0.32
33.22,0.31
33.55,0.30
33.89,0.28
34.23,0.28
34.57,0.27
34.92,0.26
35.27,0.26
35.62,0.26
35.97,0.26
36.33,0.28
36.70,0.30
37.06,0.32
37.43,0.35
37.81,0.38
38.19,0.42
38.57,0.47
38.95,0.51
39.34,0.57
39.74,0.62
40.14,0.67
40.54,0.73
40.94,0.79
41.35,0.85
41.76,0.91
42.18,0.97
42.60,1.03
43.03,1.08
43.46,1.15
43.90,1.21
44.33,1.28
44.78,1.35
45.23,1.41
45.68,1.48
46.13,1.55
46.60,1.61
47.06,1.68
47.53,1.74
48.01,1.80
48.49,1.86
48.97,1.92
49.46,1.98
49.96,2.03
50.46,2.09
50.96,2.15
51.47,2.20
51.99,2.26
52.51,2.31
53.03,2.36
53.56,2.42
54.10,2.48
54.64,2.53
55.18,2.59
55.74,2.65
56.29,2.71
56.86,2.77
57.42,2.83
58.00,2.89
58.58,2.95
59.16,3.02
59.76,3.08
60.35,3.14
60.96,3.21
61.57,3.27
62.18,3.34
62.80,3.42
63.43,3.49
64.07,3.56
64.71,3.61
65.35,3.66
66.01,3.71
66.67,3.74
67.33,3.78
68.01,3.81
68.69,3.84
69.37,3.87
70.07,3.89
70.77,3.92
71.48,3.95
72.19,3.98
72.91,4.01
73.64,4.04
74.38,4.08
75.12,4.10
75.87,4.13
76.63,4.14
77.40,4.15
78.17,4.17
78.95,4.19
79.74,4.21
80.54,4.23
81.35,4.25
82.16,4.26
82.98,4.27
83.81,4.28
84.65,4.29
85.50,4.29
86.35,4.29
87.22,4.30
88.09,4.30
88.97,4.31
89.86,4.31
90.76,4.31
91.66,4.32
92.58,4.32
93.51,4.32
94.44,4.32
95.39,4.32
96.34,4.32
97.30,4.33
98.28,4.32
99.26,4.31
100.25,4.29
101.25,4.27
102.27,4.26
103.29,4.25
104.32,4.24
105.37,4.23
106.42,4.23
107.48,4.24
108.56,4.25
109.64,4.24
110.74,4.24
111.85,4.22
112.97,4.22
114.10,4.21
115.24,4.20
116.39,4.19
117.55,4.17
118.73,4.16
119.92,4.17
121.12,4.17
122.33,4.18
123.55,4.20
124.79,4.20
126.03,4.20
127.29,4.18
128.57,4.15
129.85,4.11
131.15,4.11
132.46,4.10
133.79,4.10
135.12,4.11
136.48,4.11
137.84,4.10
139.22,4.08
140.61,4.06
142.02,4.02
143.44,4.01
144.87,3.99
146.32,3.98
147.78,3.99
149.26,3.99
150.75,3.98
152.26,3.97
153.78,3.94
155.32,3.90
156.88,3.87
158.44,3.84
160.03,3.82
161.63,3.80
163.24,3.80
164.88,3.78
166.53,3.76
168.19,3.74
169.87,3.70
171.57,3.65
173.29,3.61
175.02,3.57
176.77,3.52
178.54,3.47
180.32,3.43
182.13,3.39
183.95,3.37
185.79,3.35
187.65,3.34
189.52,3.32
191.42,3.28
193.33,3.24
195.27,3.19
197.22,3.13
199.19,3.07
201.18,3.01
203.19,2.96
205.23,2.92
207.28,2.87
209.35,2.83
211.44,2.79
213.56,2.76
215.69,2.72
217.85,2.68
220.03,2.64
222.23,2.59
224.45,2.53
226.70,2.49
228.96,2.46
231.25,2.44
233.57,2.44
235.90,2.45
238.26,2.48
240.64,2.51
243.05,2.54
245.48,2.56
247.93,2.58
250.41,2.60
252.92,2.61
255.45,2.62
258.00,2.62
260.58,2.62
263.19,2.61
265.82,2.59
268.48,2.56
271.16,2.51
273.87,2.47
276.61,2.43
279.38,2.38
282.17,2.33
284.99,2.29
287.84,2.26
290.72,2.22
293.63,2.18
296.57,2.13
299.53,2.07
302.53,2.00
305.55,1.92
308.61,1.84
311.69,1.76
314.81,1.67
317.96,1.59
321.14,1.50
324.35,1.42
327.59,1.35
330.87,1.28
334.18,1.22
337.52,1.17
340.90,1.13
344.30,1.10
347.75,1.06
351.23,1.04
354.74,1.01
358.28,0.98
361.87,0.95
365.49,0.92
369.14,0.91
372.83,0.90
376.56,0.89
380.33,0.89
384.13,0.89
387.97,0.90
391.85,0.91
395.77,0.92
399.73,0.93
403.72,0.95
407.76,0.96
411.84,0.98
415.96,1.00
420.12,1.01
424.32,1.02
428.56,1.03
432.85,1.03
437.18,1.04
441.55,1.05
445.96,1.05
450.42,1.06
454.93,1.09
459.48,1.13
464.07,1.17
468.71,1.21
473.40,1.24
478.13,1.25
482.91,1.23
487.74,1.21
492.62,1.19
497.55,1.17
502.52,1.14
507.55,1.12
512.62,1.11
517.75,1.09
522.93,1.07
528.16,1.05
533.44,1.03
538.77,1.00
544.16,0.98
549.60,0.95
555.10,0.92
560.65,0.90
566.25,0.88
571.92,0.86
577.64,0.84
583.41,0.82
589.25,0.80
595.14,0.77
601.09,0.74
607.10,0.72
613.17,0.70
619.30,0.67
625.50,0.64
631.75,0.61
638.07,0.57
644.45,0.51
650.89,0.46
657.40,0.40
663.98,0.32
670.62,0.25
677.32,0.17
684.10,0.09
690.94,0.01
697.85,-0.06
704.83,-0.12
711.87,-0.17
718.99,-0.22
726.18,-0.24
733.44,-0.26
740.78,-0.25
748.19,-0.25
755.67,-0.25
763.23,-0.26
770.86,-0.25
778.57,-0.23
786.35,-0.18
794.22,-0.12
802.16,-0.05
810.18,0.03
818.28,0.11
826.46,0.18
834.73,0.23
843.08,0.27
851.51,0.30
860.02,0.32
868.62,0.33
877.31,0.33
886.08,0.32
894.94,0.31
903.89,0.31
912.93,0.30
922.06,0.29
931.28,0.28
940.59,0.26
950.00,0.23
959.50,0.19
969.09,0.15
978.78,0.11
988.57,0.06
998.46,0.01
1008.44,-0.05
1018.53,-0.11
1028.71,-0.17
1039.00,-0.24
1049.39,-0.30
1059.88,-0.35
1070.48,-0.39
1081.19,-0.42
1092.00,-0.45
1102.92,-0.47
1113.95,-0.48
1125.09,-0.48
1136.34,-0.48
1147.70,-0.48
1159.18,-0.46
1170.77,-0.43
1182.48,-0.39
1194.30,-0.34
1206.25,-0.28
1218.31,-0.23
1230.49,-0.19
1242.80,-0.14
1255.22,-0.10
1267.78,-0.04
1280.45,0.02
1293.26,0.08
1306.19,0.14
1319.25,0.22
1332.45,0.30
1345.77,0.39
1359.23,0.47
1372.82,0.57
1386.55,0.66
1400.41,0.75
1414.42,0.85
1428.56,0.96
1442.85,1.05
1457.28,1.12
1471.85,1.19
1486.57,1.23
1501.43,1.24
1516.45,1.24
1531.61,1.22
1546.93,1.19
1562.40,1.17
1578.02,1.20
1593.80,1.29
1609.74,1.45
1625.84,1.71
1642.10,2.05
1658.52,2.41
1675.10,2.78
1691.85,3.11
1708.77,3.39
1725.86,3.59
1743.12,3.75
1760.55,3.87
1778.15,3.97
1795.94,4.05
1813.90,4.13
1832.03,4.20
1850.36,4.25
1868.86,4.32
1887.55,4.40
1906.42,4.47
1925.49,4.56
1944.74,4.64
1964.19,4.72
1983.83,4.80
2003.67,4.89
2023.71,4.99
2043.94,5.10
2064.38,5.21
2085.03,5.32
2105.88,5.43
2126.94,5.54
2148.20,5.65
2169.69,5.76
2191.38,5.87
2213.30,5.98
2235.43,6.09
2257.78,6.21
2280.36,6.33
2303.17,6.43
2326.20,6.53
2349.46,6.64
2372.95,6.76
2396.68,6.92
2420.65,7.08
2444.86,7.26
2469.31,7.45
2494.00,7.64
2518.94,7.81
2544.13,7.96
2569.57,8.09
2595.27,8.21
2621.22,8.30
2647.43,8.37
2673.90,8.42
2700.64,8.46
2727.65,8.48
2754.93,8.50
2782.48,8.50
2810.30,8.50
2838.40,8.50
2866.79,8.48
2895.46,8.45
2924.41,8.43
2953.65,8.38
2983.19,8.32
3013.02,8.26
3043.15,8.20
3073.58,8.11
3104.32,8.00
3135.36,7.88
3166.72,7.73
3198.38,7.55
3230.37,7.36
3262.67,7.16
3295.30,6.98
3328.25,6.81
3361.53,6.67
3395.15,6.57
3429.10,6.51
3463.39,6.48
3498.03,6.45
3533.01,6.43
3568.34,6.40
3604.02,6.35
3640.06,6.29
3676.46,6.17
3713.22,6.00
3750.36,5.74
3787.86,5.43
3825.74,5.06
3864.00,4.66
3902.64,4.27
3941.66,3.91
3981.08,3.65
4020.89,3.49
4061.10,3.42
4101.71,3.42
4142.73,3.43
4184.15,3.42
4226.00,3.39
4268.26,3.31
4310.94,3.23
4354.05,3.16
4397.59,3.12
4441.56,3.10
4485.98,3.12
4530.84,3.15
4576.15,3.20
4621.91,3.26
4668.13,3.32
4714.81,3.41
4761.96,3.51
4809.58,3.66
4857.67,3.89
4906.25,4.19
4955.31,4.58
5004.87,5.07
5054.91,5.62
5105.46,6.19
5156.52,6.75
5208.08,7.29
5260.16,7.79
5312.77,8.23
5365.89,8.64
5419.55,9.01
5473.75,9.30
5528.49,9.51
5583.77,9.62
5639.61,9.60
5696.00,9.44
5752.96,9.21
5810.49,8.93
5868.60,8.65
5927.28,8.36
5986.56,8.08
6046.42,7.85
6106.89,7.64
6167.96,7.42
6229.64,7.21
6291.93,6.99
6354.85,6.80
6418.40,6.65
6482.58,6.53
6547.41,6.45
6612.88,6.39
6679.01,6.37
6745.80,6.38
6813.26,6.43
6881.39,6.53
6950.21,6.67
7019.71,6.88
7089.91,7.14
7160.81,7.46
7232.41,7.81
7304.74,8.18
7377.79,8.55
7451.56,8.93
7526.08,9.29
7601.34,9.62
7677.35,9.91
7754.13,10.13
7831.67,10.27
7909.98,10.35
7989.08,10.37
8068.98,10.35
8149.67,10.35
8231.16,10.36
8313.47,10.41
8396.61,10.46
8480.57,10.49
8565.38,10.51
8651.03,10.46
8737.54,10.36
8824.92,10.18
8913.17,10.12
9002.30,10.04
9092.32,9.80
9183.25,9.80
9275.08,10.01
9367.83,9.91
9461.51,9.74
9556.12,9.63
9651.68,9.51
9748.20,9.15
9845.68,8.53
9944.14,7.67
10043.58,6.53
10144.02,5.17
10245.46,3.69
10347.91,2.11
10451.39,0.55
10555.91,-0.84
10661.46,-2.00
10768.08,-2.75
10875.76,-3.14
10984.52,-3.23
11094.36,-2.74
11205.31,-1.89
11317.36,-0.68
11430.53,0.77
11544.84,1.64
11660.29,2.10
11776.89,2.80
11894.66,3.02
12013.60,2.80
12133.74,2.72
12255.08,2.46
12377.63,2.14
12501.41,1.91
12626.42,1.73
12752.68,1.53
12880.21,1.29
13009.01,1.05
13139.10,0.80
13270.49,0.62
13403.20,0.55
13537.23,0.50
13672.60,0.47
13809.33,0.42
13947.42,0.55
14086.90,0.84
14227.77,1.27
14370.04,1.75
14513.74,2.20
14658.88,2.56
14805.47,2.64
14953.52,2.48
15103.06,2.09
15254.09,1.31
15406.63,0.23
15560.70,-1.05
15716.30,-2.45
15873.47,-3.74
16032.20,-4.84
16192.52,-5.65
16354.45,-6.07
16517.99,-6.21
16683.17,-6.11
16850.01,-5.82
17018.51,-5.50
17188.69,-5.20
17360.58,-5.14
17534.18,-5.36
17709.53,-5.82
17886.62,-6.61
18065.49,-7.67
18246.14,-8.91
18428.60,-10.35
18612.89,-11.80
18799.02,-13.11
18987.01,-14.10
19176.88,-14.45
19368.65,-14.33
19562.33,-13.81
19757.96,-13.06
19955.54,-12.45
