frequency,raw,error,smoothed,error_smoothed,equalization,equalized_raw,equalized_smoothed,target
20,-12.554627583466445,-14.202471338935792,-12.477168973543725,-14.124997382345954,5.999999999999999,-6.554627583466446,-6.4771689735437254,1.647843755469347
21,-11.942429252757076,-13.590254048775254,-11.948317761726443,-13.596144911895482,6.0,-5.942429252757076,-5.948317761726443,1.6478247960181784
22,-11.405063096782897,-13.05286309526824,-11.431299022376395,-13.079111334781786,5.999999999999999,-5.405063096782897,-5.431299022376396,1.6477999984853424
23,-10.693969803201849,-12.341737759843822,-10.92611275549358,-12.573896651004862,6.000000000000001,-4.693969803201848,-4.9261127554935795,1.6477679566419732
24,-10.517561480415509,-12.165288491754357,-10.432758961077985,-12.080500860564694,5.999999999999997,-4.5175614804155115,-4.432758961077988,1.647727011338847
25,-9.872317638681594,-11.519992857741768,-9.952077558200845,-11.59976535885032,6.000000000000001,-3.8723176386815927,-3.952077558200844,1.647675219060174
26,-9.525477109109085,-11.173087427289083,-9.482470697784848,-11.130090842287167,5.999999999999999,-3.5254771091090857,-3.4824706977848487,1.6476103181799977
27,-9.103042870688563,-10.750572563888854,-9.023178548700159,-10.670715911127964,5.999999999999999,-3.103042870688564,-3.0231785487001597,1.647529693200291
28,-8.701914423802934,-10.349344759314292,-8.574099049052641,-10.221535919831663,6.0,-2.7019144238029345,-2.5740990490526414,1.6474303355113573
29,-8.136344738839554,-9.783653541764822,-8.136257220479932,-9.783572270269639,6.000000000000001,-2.1363447388395533,-2.136257220479931,1.6473088029252683
30,-7.547886484171749,-9.195047660273495,-7.7123307645748405,-9.359498584735729,6.000000000000001,-1.5478864841717481,-1.7123307645748396,1.6471611761017466
31,-7.419057722884981,-9.066040735483124,-7.305611657147338,-8.952602092962135,5.999999999999999,-1.4190577228849817,-1.305611657147339,1.6469830125981426
32,-6.819294169370666,-8.466063467787148,-6.919074506420325,-8.565852148580182,5.999999999999999,-0.819294169370667,-0.9190745064203263,1.6467692984164817
33,-6.473940054111306,-8.1204544511715,-6.554256148744657,-8.200779823512626,6.000000000000001,-0.47394005411130546,-0.5542561487446562,1.6465143970601943
34,-6.235473711007162,-7.8816857071816,-6.21046806405945,-7.85669021950398,5.999999999999997,-0.23547371100716497,-0.2104680640594525,1.6462119961744381
35,-5.855180169267389,-7.501035220983468,-5.884844017001456,-7.530710059786293,6.000000000000002,0.1448198307326125,0.11515598299854535,1.645855051716079
36,-5.570632562406866,-7.216068292217759,-5.573026498533512,-7.218474028122255,5.999999999999998,0.42936743759313245,0.4269735014664864,1.6454357298108935
37,-5.3224586773393145,-6.967404023689474,-5.270342707234759,-6.9153006653549784,6.0,0.6775413226606855,0.7296572927652409,1.6449453463501595
38,-5.0840875185155046,-6.728461822957969,-4.973036687341544,-6.617424437836021,6.0,0.9159124814844954,1.0269633126584559,1.6443743044424641
39,-4.6815731208949005,-6.325285150748183,-4.679121530376298,-6.32284786880153,5.939389525878131,1.25781640498323,1.2602679955018328,1.643712029853282
40,-4.425471326186569,-6.068418230775157,-4.388636426632951,-6.0315985283240146,5.812748151370295,1.3872768251837257,1.4241117247373438,1.6429469045885874
41,-4.002511107223565,-5.644577306033098,-4.1032826160525975,-5.7453649206450645,5.625258408267125,1.6227473010435594,1.5219757922145272,1.642066198809533
42,-3.820558176911249,-5.461614178197513,-3.8256410293055616,-5.466714058417628,5.407783533893696,1.5872253569824468,1.582142504588134,1.6410560012862638
43,-3.535539463543544,-5.175440612180058,-3.558281198500093,-5.198200304324946,5.1796287685405495,1.6440893049970056,1.6213475700404567,1.6399011486365138
44,-3.3026869080032495,-4.941272061635763,-3.3030401993921212,-4.941644241252815,4.941644241252815,1.6389573332495657,1.638604041860694,1.6385851536325138
45,-3.0704735022675074,-4.707563635175615,-3.060636851371063,-4.69774679921427,4.69774679921427,1.627273296946763,1.6371099478432072,1.6370901329081073
46,-2.8391511512227074,-4.474547885680911,-2.8306336095163864,-4.466051074182795,4.466051074182795,1.6268999229600878,1.6354174646664088,1.6353967344582032
47,-2.6085522871021056,-4.24203635250038,-2.611646419852773,-4.245152110517555,4.245152110517554,1.6365998234154486,1.6335056906647814,1.6334840653982736
48,-2.3784112641429696,-4.009740884689384,-2.4016675482544647,-4.033019658133215,4.033019658133215,1.6546083939902454,1.6313521098787502,1.6313296205464143
49,-2.2451277448795994,-3.874036957386603,-2.1984014984147304,-3.827334020307484,3.8273340203074855,1.582206275427886,1.628932521892755,1.6289092125070037
50,-1.9194365719686157,-3.5456334760444337,-1.9995844272892893,-3.6258054012954206,3.625805401295421,1.7063688293268053,1.6262209740061317,1.626196904075818
51,-1.8738973195944544,-3.497062263547081,-1.8033115371700952,-3.426501233900855,3.4265012339008556,1.5526039143064012,1.6231896967307604,1.6231649439526268
52,-1.5910897305368357,-3.2108734374749757,-1.6084018633150525,-3.228210907130448,3.2282109071304474,1.6371211765936118,1.619809043815395,1.61978370693814
53,-1.4649040697614546,-3.0809257097660856,-1.4147828104511615,-3.0308302487036043,3.0308302487036034,1.5659261789421488,1.616047438252442,1.616021640004631
54,-1.23849999469381,-2.850345210551807,-1.2238060177175876,-2.835677343648416,2.8356773436484155,1.5971773489546055,1.611871325930828,1.611845215857997
55,-1.011816805804488,-2.6190357016492336,-1.0383543620457332,-2.6455995008683297,2.6455995008683306,1.6337826950638425,1.6072451388225975,1.6072188958447455
56,-1.012196579245514,-2.6143016835342334,-0.8626036695747987,-2.4647349393889364,2.4647349393889373,1.4525383601434232,1.6021312698141386,1.6021051042887193
57,-0.5568235473861957,-2.153287763940941,-0.7013757764720452,-2.297865837962335,2.297865837962334,1.7410422905761385,1.5964900614902888,1.5964642165547454
58,-0.5568975955719287,-2.1471521588848064,-0.5591436223806822,-2.1494234337250555,2.1494234337250555,1.5925258381531266,1.5902798113443732,1.5902545633128775
59,-0.329300218679761,-1.9127326722787577,-0.4388827423826737,-2.02233953837472,2.0223395383747205,1.6930393196949596,1.5834567959920467,1.5834324535989968
60,-0.32991861991875704,-1.9058708392353378,-0.34105833770219796,-1.9170336546969957,1.917033654696996,1.5871150347782388,1.575975316994798,1.575952219316581
61,-0.3304672628038464,-1.8982335465864768,-0.2630517095191923,-1.830839480354483,1.8308394803544834,1.500372217550637,1.5677877708352912,1.5677662837826305
62,-0.10242491643181195,-1.6612501732051426,-0.19924896293269445,-1.7580937083507315,1.7580937083507313,1.6556687919189192,1.5588447454180367,1.5588252567733307
63,-0.10116213316117373,-1.6502401914229212,-0.14185224299087879,-1.6909473881763948,1.6909473881763952,1.5897852550152214,1.5490951451855164,1.5490780582617476
64,-0.09877390881713122,-1.637245981474091,-0.08227345142779237,-1.6207597980050124,1.6207597980050126,1.5219858891878815,1.5384863465772203,1.5384720726569596
65,-0.09590714188372995,-1.6228604767394175,-0.012794577650792983,-1.5397589625414905,1.5397589625414905,1.4438518206577604,1.5269643848906975,1.5269533348556874
66,-0.09371007622037753,-1.6081768250374526,0.07191525652649927,-1.442558916803284,1.4425589168032846,1.348848840582907,1.514474173329784,1.514466748817075
67,0.13441645156145754,-1.3665398871304197,0.17381195042585207,-1.3271478040006066,1.3271478040006064,1.461564255562064,1.5009597544264586,1.5009563386918772
68,0.359430514188977,-1.1269350176226252,0.2912617634276002,-1.1951028191052178,1.1951028191052178,1.5545333332941946,1.486364582532818,1.486365531811602
69,0.378999688449672,-1.0916377836625604,0.41962671903983084,-1.0510051159534004,1.0510051159534004,1.4300048044030724,1.4706318349932312,1.4706374721122324
70,0.5702932733936069,-0.8834220884849667,0.5524540269951524,-0.9012507235023531,0.9012507235023532,1.47154399689596,1.4537047504975056,1.4537153618785736
71,0.78473847639573,-0.6508043527042363,0.6829203901358863,-0.7526066048529043,0.7526066048529044,1.5373450812486344,1.4355269949887908,1.4355428290999663
72,0.7765881366663917,-0.6394761806100738,0.8051466581834612,-0.6108963965793583,0.6108963965793582,1.38748453324575,1.4160430547628193,1.4160643172764655
73,0.982019593497662,-0.4132059007543324,0.9150840395085604,-0.480114609985972,0.480114609985972,1.462134203483634,1.3951986494945325,1.3952254942519944
74,0.9683065923377542,-0.4046670842749095,1.0108416316150524,-0.36209952119430133,0.3620995211943013,1.3304061135320555,1.3729411528093536,1.3729736766126637
75,1.1277970500940357,-0.22146121630076632,1.092508350194645,-0.2567116542403575,0.25671165424035747,1.3845087043343933,1.3492200044350025,1.349258266394802
76,1.1783436726694103,-0.14568752462965406,1.1616516788538704,-0.16233542720318406,0.16233542720318406,1.3406790998725944,1.3239871060570545,1.3240311972990644
77,1.1739739534721454,-0.12327343480998687,1.2207124530762679,-0.07648477591851999,0.07648477591851999,1.2504587293906653,1.2971972289947877,1.2972473882821323
78,1.2337904674750457,-0.03507473577377551,1.2724628811761831,0.0036543667460180425,-0.003654366746018038,1.2301361007290277,1.268808514430165,1.2688652032488212
79,1.3937374567868313,0.1548905402646441,1.3195973345595915,0.08081417873565028,-0.0808141787356503,1.312923278051181,1.2387831558239413,1.2388469165221871
80,1.3851697531357683,0.17801056840416152,1.36443602361756,0.15734777801635152,-0.15734777801635155,1.2278219751194168,1.2070882456012084,1.2071591847316068
81,1.371477139533893,0.19770361291998517,1.4086828598261474,0.23498632112403445,-0.23498632112403445,1.1364908184098585,1.173696538702113,1.1737735266139078
82,1.3651243207640973,0.22645750792087505,1.4532041277900927,0.3146174557102668,-0.31461745571026684,1.0505068650538305,1.138586672079826,1.1386668128432222
83,1.5587760312873438,0.4569542630262968,1.4978598257594329,0.39611744647132213,-0.39611744647132224,1.1626585848160216,1.1017423792881107,1.101821768261047
84,1.536126024284746,0.4728985356386599,1.5414769782566826,0.4783262702043749,-0.478326270204375,1.0577997540803712,1.0631507080523077,1.0632274886460862
85,1.5154007229825979,0.4925207496422668,1.5820602261187582,0.5592599621424101,-0.5592599621424102,0.9561407608401876,1.022800263976348,1.022879973340331
86,1.6249924329347176,0.6442097593732097,1.6172727511253733,0.6365910810274649,-0.6365910810274648,0.9884013519072529,0.9806816700979085,0.980782673561508
87,1.7133265247013414,0.7763794706480498,1.645111420883857,0.7083185870574222,-0.7083185870574223,1.005007937643919,0.9367928338264347,0.9369470540532916
88,1.7037140712483683,0.8123209083711873,1.6645912472314286,0.7734409900311109,-0.7734409900311109,0.9302730812172574,0.8911502572003177,0.891393162877181
89,1.6959503447681867,0.8518001440517393,1.67620203287041,0.832397845293052,-0.8323978452930522,0.8635524994751346,0.8438041875773578,0.8441502007164474
90,1.688427749670975,0.8931706724824124,1.6819422512785138,0.8870914063830981,-0.8870914063830981,0.8013363432878768,0.7948508448954157,0.7952570771885625
91,1.6797957113060655,0.9350327737516082,1.6848671883727344,0.9404357054292052,-0.9404357054292048,0.7393600058768607,0.7444314829435296,0.7447629375544573
92,1.669079148964113,0.9763515098324542,1.6882625254058492,0.9955538956648406,-0.9955538956648405,0.6735252532992725,0.6927086297410087,0.6927276391316588
93,1.6556614562389078,1.016439303271151,1.69470022990857,1.054883668196538,-1.054883668196538,0.6007777880423699,0.6398165617120322,0.6392221529677569
94,1.6393015031215508,1.0549726398810275,1.7052884137439488,1.119493260689108,-1.119493260689108,0.5198082424324428,0.5857951530548409,0.5843288632405232
95,1.6322148152002298,1.1040730804432646,1.7193648930633845,1.1888355049827082,-1.1888355049827082,0.44337931021752164,0.5305293880806763,0.5281417347569652
96,1.8271616706644966,1.3563953525220884,1.7347274557729064,1.2610029843216886,-1.2610029843216886,0.5661586863428081,0.4737244714512179,0.4707663181424082
97,1.8054629303449663,1.3931433672295928,1.7483059934868848,1.3333632763914283,-1.3333632763914283,0.47209965395353803,0.4149427170954565,0.41231956311537354
98,1.7843465535452228,1.4314171407071417,1.7570385754476299,1.4033273402624844,-1.4033273402624844,0.38101921328273836,0.35371123518514547,0.3529294128380811
99,1.7646815072395117,1.4719473504129845,1.7586676910763073,1.4689848935959517,-1.468984893595952,0.2956966136435597,0.2896827974803553,0.29273415682652715
100,1.7465344252558412,1.5146528989584263,1.7522322286798453,1.5294262561874934,-1.5294262561874936,0.21710816906834762,0.22280597249235168,0.23188152629741499
101,1.729101380012557,1.5585738560166829,1.7381586367474793,1.5847121011447798,-1.5847121011447802,0.14438927886777675,0.15344653560269905,0.17052752399587412
102,1.7110067348671865,1.6021717446358177,1.7179916903627792,1.6355830279608365,-1.6355830279608363,0.07542370690635014,0.08240866240194289,0.10883499023136878
104,1.6908457252667914,1.7058384327621434,1.6938982469746722,1.6830663138070268,-1.6830663138070268,0.007779411459764685,0.010831933167645413,-0.014992707495351976
105,1.6677448640191894,1.7446808305491697,1.6681032576572248,1.7281229046445448,-1.7281229046445445,-0.06037804062535512,-0.060019646987319764,-0.07693596652998025
106,1.6417206798754433,1.7803043681642357,1.6423892477336506,1.7714112053774294,-1.7714112053774294,-0.129690525501986,-0.12902195764377877,-0.1385836882887923
107,1.6137093201116293,1.8134765683282068,1.6177420728302856,1.8131740200834279,-1.8131740200834279,-0.1994646999717986,-0.19543194725314228,-0.19976724821657754
108,1.5852719005608908,1.8455942163346037,1.5941871443529136,1.8532204619685415,-1.853220461968541,-0.2679485614076502,-0.2590333176156274,-0.2603223157737129
109,1.558108502889294,1.8781996498108442,1.570840714376181,1.8909841659876503,-1.8909841659876505,-0.3328756630983565,-0.3201434516114696,-0.32009114692155016
110,1.5335906012065834,1.912515425551657,1.546186019143509,1.9256680567910298,-1.9256680567910294,-0.39207745558444596,-0.3794820376475203,-0.3789248243450736
111,1.51250794799944,1.9491933243671173,1.5185520674613922,1.9564965549264683,-1.956496554926469,-0.4439886069270289,-0.43794448746507686,-0.43668537636767724
112,1.4951111866731117,1.9883588932283924,1.4867136698309187,1.9830638833887289,-1.9830638833887293,-0.4879526967156176,-0.4963502135578106,-0.4932477065552807
113,1.4813665031493803,2.0298677735229083,1.450461855497367,2.005700398872589,-2.0057003988725888,-0.5243338957232084,-0.5552385433752218,-0.5485012703735279
114,1.4712230096224395,2.073574452502083,1.4109525997298347,2.0257165370719923,-2.0257165370719927,-0.5544935274495533,-0.6147639373421581,-0.6023514428796437
115,1.4647100900548633,2.11943062207177,1.3706670660129228,2.0453733456059897,-2.04537334560599,-0.5806632555511269,-0.6747062795930674,-0.6547205320169067
117,1.2339031326471623,1.9941642539049482,1.33292151046208,2.067496556034828,-2.0674965560348277,-0.8335934233876654,-0.7345750455727478,-0.7602611212577859
118,1.2344018933144336,2.0427827110722525,1.301022513186461,2.0947834669355654,-2.0947834669355654,-0.8603815736211318,-0.7937609537491044,-0.8083808177578189
119,1.2377021420534229,2.0925475511260254,1.277311721959804,2.128994186541014,-2.1289941865410134,-0.8912920444875905,-0.8516824645812093,-0.8548454090726025
120,1.242963895339849,2.1426179889289187,1.2624150311924203,2.1703018956781026,-2.1703018956781026,-0.9273380003382536,-0.9078868644856823,-0.8996540935890698
121,1.2493149931740466,2.1921369357412006,1.2549621322633735,2.21705188389908,-2.2170518838990803,-0.9677368907250337,-0.9620897516357068,-0.942821942567154
123,1.2560548728472063,2.2878318533941973,1.251884424454299,2.2660461315311036,-2.266046131531104,-1.0099912586838977,-1.014161707076805,-1.031776980546991
124,1.262714130814119,2.33317290849317,1.2491937112462845,2.313280575725194,-2.313280575725194,-1.050566444911075,-1.0640868644789094,-1.0704587776790508
125,1.2689715321845845,2.376588219893999,1.2429763487939258,2.3548965275293927,-2.3548965275293923,-1.0859249953448078,-1.1119201787354664,-1.1076166877094145
126,1.2745372407851319,2.417856297149195,1.2302780125116572,2.3880383289748446,-2.3880383289748446,-1.1135010881897127,-1.1577603164631873,-1.1433190563640632
128,1.279116242934109,2.497581148102647,1.209624107272501,2.411364322263222,-2.411364322263223,-1.132248079329114,-1.2017402149907221,-1.218464905168538
129,1.1931411464881672,2.4433231651631706,1.1810819359478288,2.425107263772215,-2.425107263772215,-1.2319661172840477,-1.244025327824386,-1.2501820186750034
130,1.0566558096550254,2.3373510835452,1.1459454894674475,2.4307514665048098,-2.43075146650481,-1.3740956568497849,-1.2848059770373628,-1.2806952738901747
131,1.0576553309701033,2.367747972769077,1.1062344283455587,2.4305104090711227,-2.4305104090711223,-1.372855078101019,-1.3242759807255635,-1.3100926417989736
133,1.0578818613617544,2.43079506890765,1.0642067479911048,2.426807260228364,-2.4268072602283643,-1.36892539886661,-1.3626005122372595,-1.3729132075458956
134,1.057659161365624,2.4567825484567236,1.022005489696853,2.4218907267786385,-2.421890726778639,-1.3642315654130148,-1.399885237081786,-1.3991233870910995
135,1.057171355154341,2.481667156739908,0.981450800339866,2.4176116953482185,-2.4176116953482194,-1.3604403401938785,-1.4361608950083533,-1.424495801585567
137,0.9784372717572803,2.457294749995388,0.9439141570022334,2.415305780793098,-2.415305780793098,-1.436868509035818,-1.4713916237908649,-1.4788574782381079
138,0.8274614814760312,2.329136244710139,0.9102066952305536,2.4157115509502507,-2.4157115509502507,-1.5882500694742197,-1.505504855719697,-1.5016747632341079
140,0.8261547963020855,2.376571838198326,0.8804673484288292,2.41889808771205,-2.418898087712049,-1.5927432914099637,-1.53843073928322,-1.5504170418962406
141,0.8248567742981195,2.3959420081350316,0.8541022027221439,2.424237022831219,-2.4242370228312184,-1.599380248533099,-1.5701348201090746,-1.5710852338369121
142,0.8239845121084851,2.4152777802449785,0.8298530943781246,2.4304844107023555,-2.4304844107023564,-1.6064998985938712,-1.6006313163242318,-1.5912932681364933
144,0.823867231193606,2.45758930859369,0.8060380454321162,2.4360117230577947,-2.436011723057794,-1.6121444918641878,-1.6299736776256775,-1.6337220774000842
145,0.8244779473516392,2.476698401792384,0.7809270389477662,2.4391563828638185,-2.4391563828638185,-1.6146784355121793,-1.6582293439160525,-1.6522204544407448
147,0.8253386834805113,2.5157676423447697,0.7531408533719881,2.438592659288003,-2.438592659288003,-1.613253975807492,-1.685451805916015,-1.6904289588642585
148,0.7656780419112,2.4731112064373266,0.7219346085279463,2.433597377847169,-2.433597377847168,-1.6679193359359679,-1.7116627693192217,-1.7074331645261265
150,0.5970567893613231,2.3389128352614605,0.6872688143333934,2.424120091066317,-2.4241200910663174,-1.8270633017049942,-1.736851276732924,-1.7418560459001373
151,0.595067365820656,2.352548289111648,0.6496588956067986,2.410646905327057,-2.4106469053270576,-1.8155795395064016,-1.760988009720259,-1.7574809232909923
153,0.5921798760499426,2.3806143854879926,0.6098836110680386,2.3939296125302514,-2.3939296125302514,-1.8017497364803088,-1.7840460014622128,-1.78843450943805
154,0.588973669259093,2.391664300922053,0.568679895819161,2.374696682800068,-2.3746966828000686,-1.7857230135409756,-1.8060167869809076,-1.8026906316629603
156,0.5858059270806302,2.416176308358565,0.5265381873578517,2.3534523159533745,-2.3534523159533745,-1.7676463888727443,-1.8269141285955226,-1.8303703812779348
157,0.5637084509124229,2.4068790375169944,0.4836522184768115,2.3304160908496794,-2.330416090849679,-1.7667076399372559,-1.8467638723728674,-1.8431705866045713
159,0.3505433456361038,2.218205162604653,0.44000477146396,2.30558975571188,-2.3055897557118796,-1.9550464100757758,-1.8655849842479197,-1.8676618169685493
