frequency,raw,error,smoothed,error_smoothed,equalization,parametric_eq,equalized_raw,equalized_smoothed,target
20,-13.68,-16.86,-13.66,-16.84,6.00,3.03,-7.68,-7.66,3.18
21,-12.99,-16.17,-12.90,-16.08,6.00,3.48,-6.99,-6.90,3.18
22,-12.06,-15.24,-12.16,-15.34,6.00,3.96,-6.06,-6.16,3.18
23,-11.35,-14.53,-11.45,-14.63,6.00,4.49,-5.35,-5.45,3.18
24,-10.71,-13.90,-10.76,-13.95,6.00,5.04,-4.71,-4.76,3.19
25,-10.06,-13.25,-10.10,-13.29,6.00,5.62,-4.06,-4.10,3.19
26,-9.49,-12.68,-9.47,-12.65,6.00,6.19,-3.49,-3.47,3.19
27,-8.95,-12.14,-8.85,-12.04,6.00,6.74,-2.95,-2.85,3.19
28,-8.22,-11.41,-8.26,-11.45,6.00,7.22,-2.22,-2.26,3.19
29,-7.75,-10.94,-7.68,-10.87,6.00,7.61,-1.75,-1.68,3.19
30,-7.09,-10.28,-7.12,-10.31,6.00,7.85,-1.09,-1.12,3.19
31,-6.68,-9.87,-6.57,-9.76,6.00,7.93,-0.68,-0.57,3.19
32,-5.93,-9.12,-6.04,-9.23,6.00,7.85,0.07,-0.04,3.19
33,-5.49,-8.68,-5.53,-8.72,6.00,7.63,0.51,0.47,3.19
34,-5.01,-8.19,-5.04,-8.22,6.00,7.29,0.99,0.96,3.18
35,-4.62,-7.80,-4.57,-7.75,6.00,6.88,1.38,1.43,3.18
36,-4.11,-7.29,-4.12,-7.29,6.00,6.42,1.89,1.88,3.18
37,-3.85,-7.02,-3.69,-6.86,6.00,5.95,2.15,2.31,3.17
38,-3.14,-6.31,-3.27,-6.44,5.92,5.48,2.78,2.65,3.17
39,-2.74,-5.90,-2.88,-6.03,5.75,5.02,3.01,2.87,3.16
40,-2.48,-5.63,-2.50,-5.65,5.49,4.58,3.01,3.00,3.15
41,-2.28,-5.42,-2.13,-5.27,5.20,4.15,2.92,3.07,3.14
42,-1.88,-5.01,-1.78,-4.91,4.89,3.75,3.01,3.11,3.13
43,-1.48,-4.60,-1.44,-4.56,4.56,3.37,3.08,3.12,3.12
44,-0.91,-4.02,-1.12,-4.22,4.22,3.01,3.31,3.11,3.11
45,-0.68,-3.77,-0.80,-3.90,3.90,2.67,3.22,3.09,3.09
46,-0.62,-3.70,-0.50,-3.58,3.58,2.34,2.96,3.08,3.08
47,-0.23,-3.29,-0.20,-3.26,3.26,2.04,3.03,3.06,3.06
48,0.04,-3.00,0.09,-2.95,2.95,1.74,2.99,3.04,3.04
49,0.36,-2.66,0.38,-2.64,2.64,1.47,3.00,3.02,3.02
50,0.68,-2.32,0.67,-2.33,2.33,1.20,3.01,3.00,3.00
51,0.96,-2.02,0.96,-2.02,2.02,0.95,2.98,2.98,2.98
52,1.24,-1.72,1.25,-1.71,1.71,0.72,2.95,2.96,2.96
53,1.60,-1.34,1.54,-1.39,1.39,0.49,2.99,2.94,2.94
54,1.82,-1.09,1.83,-1.08,1.08,0.28,2.90,2.91,2.91
55,2.05,-0.84,2.11,-0.78,0.78,0.09,2.83,2.89,2.89
56,2.28,-0.58,2.38,-0.48,0.48,-0.10,2.76,2.86,2.86
57,2.74,-0.10,2.63,-0.20,0.20,-0.26,2.94,2.84,2.84
58,2.96,0.15,2.87,0.07,-0.07,-0.42,2.89,2.81,2.81
59,3.19,0.41,3.10,0.32,-0.32,-0.56,2.87,2.78,2.78
60,3.19,0.44,3.30,0.55,-0.55,-0.68,2.64,2.75,2.75
61,3.42,0.69,3.49,0.76,-0.76,-0.79,2.66,2.73,2.73
62,3.65,0.95,3.66,0.96,-0.96,-0.89,2.69,2.70,2.70
63,3.87,1.20,3.81,1.14,-1.14,-0.98,2.73,2.67,2.67
64,3.97,1.33,3.94,1.31,-1.31,-1.05,2.66,2.64,2.64
65,4.10,1.49,4.06,1.45,-1.45,-1.11,2.65,2.61,2.61
66,4.10,1.52,4.17,1.59,-1.59,-1.16,2.51,2.58,2.58
67,4.33,1.78,4.26,1.71,-1.71,-1.20,2.62,2.55,2.55
68,4.33,1.81,4.34,1.82,-1.82,-1.24,2.51,2.52,2.52
69,4.33,1.84,4.41,1.92,-1.92,-1.26,2.41,2.49,2.49
70,4.33,1.87,4.47,2.00,-2.00,-1.28,2.33,2.46,2.46
71,4.56,2.13,4.50,2.07,-2.07,-1.30,2.49,2.43,2.43
72,4.56,2.16,4.50,2.10,-2.10,-1.31,2.46,2.40,2.40
73,4.56,2.19,4.48,2.11,-2.11,-1.32,2.45,2.37,2.37
74,4.56,2.22,4.43,2.09,-2.09,-1.33,2.47,2.34,2.34
75,4.39,2.08,4.36,2.04,-2.04,-1.34,2.35,2.31,2.31
76,4.33,2.05,4.27,1.98,-1.98,-1.35,2.35,2.28,2.28
77,4.15,1.90,4.17,1.92,-1.92,-1.35,2.23,2.25,2.25
78,4.04,1.82,4.09,1.87,-1.87,-1.36,2.17,2.22,2.22
79,3.87,1.67,4.03,1.84,-1.84,-1.36,2.03,2.20,2.20
80,3.87,1.70,4.00,1.84,-1.84,-1.37,2.03,2.17,2.17
81,3.87,1.73,4.00,1.86,-1.86,-1.38,2.01,2.14,2.14
82,3.89,1.78,4.01,1.90,-1.90,-1.39,1.99,2.11,2.11
83,4.10,2.02,4.02,1.94,-1.94,-1.40,2.16,2.08,2.08
84,4.10,2.05,4.01,1.96,-1.96,-1.41,2.14,2.05,2.05
85,4.33,2.31,3.98,1.96,-1.96,-1.43,2.37,2.02,2.02
86,4.14,2.14,3.92,1.92,-1.92,-1.44,2.22,2.00,2.00
87,3.89,1.92,3.83,1.86,-1.86,-1.46,2.03,1.97,1.97
88,3.60,1.66,3.73,1.79,-1.79,-1.48,1.81,1.94,1.94
89,3.42,1.50,3.63,1.71,-1.71,-1.50,1.71,1.92,1.92
90,3.42,1.53,3.54,1.65,-1.65,-1.52,1.77,1.89,1.89
91,3.42,1.56,3.49,1.62,-1.62,-1.54,1.80,1.86,1.86
92,3.42,1.58,3.46,1.62,-1.62,-1.56,1.80,1.84,1.84
93,3.42,1.60,3.47,1.65,-1.65,-1.59,1.77,1.82,1.82
94,3.61,1.82,3.51,1.71,-1.71,-1.62,1.90,1.79,1.79
95,3.65,1.88,3.56,1.79,-1.79,-1.64,1.86,1.77,1.77
96,3.65,1.90,3.62,1.87,-1.87,-1.67,1.78,1.75,1.75
97,3.65,1.92,3.68,1.95,-1.95,-1.70,1.70,1.73,1.73
98,3.65,1.94,3.74,2.03,-2.03,-1.73,1.62,1.71,1.71
99,3.83,2.14,3.78,2.10,-2.10,-1.76,1.73,1.69,1.69
100,3.87,2.20,3.82,2.16,-2.16,-1.79,1.71,1.67,1.67
101,3.87,2.22,3.85,2.21,-2.21,-1.83,1.66,1.64,1.65
102,3.87,2.23,3.87,2.25,-2.25,-1.86,1.62,1.62,1.64
104,3.87,2.29,3.88,2.29,-2.29,-1.92,1.58,1.60,1.58
105,3.87,2.30,3.88,2.31,-2.31,-1.95,1.56,1.58,1.57
106,3.87,2.32,3.87,2.32,-2.32,-1.98,1.55,1.56,1.55
107,3.87,2.34,3.85,2.31,-2.31,-2.01,1.56,1.54,1.53
108,3.87,2.35,3.82,2.30,-2.30,-2.04,1.57,1.52,1.52
109,3.87,2.37,3.79,2.29,-2.29,-2.07,1.58,1.50,1.50
110,3.65,2.16,3.76,2.27,-2.27,-2.10,1.38,1.49,1.49
111,3.65,2.18,3.72,2.25,-2.25,-2.12,1.40,1.47,1.47
112,3.65,2.20,3.68,2.23,-2.23,-2.14,1.42,1.45,1.45
113,3.65,2.21,3.64,2.21,-2.21,-2.17,1.44,1.43,1.44
114,3.65,2.23,3.60,2.19,-2.19,-2.19,1.46,1.41,1.42
115,3.65,2.25,3.56,2.17,-2.17,-2.20,1.48,1.39,1.40
117,3.42,2.07,3.51,2.14,-2.14,-2.23,1.28,1.37,1.35
118,3.42,2.09,3.45,2.11,-2.11,-2.25,1.31,1.34,1.33
119,3.42,2.10,3.38,2.07,-2.07,-2.25,1.35,1.32,1.32
120,3.41,2.11,3.31,2.02,-2.02,-2.26,1.39,1.29,1.30
121,3.19,1.91,3.23,1.97,-1.97,-2.27,1.22,1.27,1.28
123,3.19,1.96,3.16,1.92,-1.92,-2.27,1.27,1.24,1.23
124,3.00,1.79,3.08,1.87,-1.87,-2.26,1.13,1.21,1.21
125,2.96,1.77,3.01,1.82,-1.82,-2.26,1.14,1.19,1.19
126,2.96,1.79,2.95,1.78,-1.78,-2.25,1.18,1.16,1.17
128,2.96,1.83,2.89,1.76,-1.76,-2.23,1.20,1.14,1.13
129,2.87,1.76,2.85,1.74,-1.74,-2.21,1.13,1.11,1.11
130,2.74,1.65,2.81,1.72,-1.72,-2.20,1.02,1.09,1.09
131,2.74,1.67,2.78,1.72,-1.72,-2.18,1.02,1.06,1.07
133,2.74,1.71,2.75,1.71,-1.71,-2.13,1.03,1.04,1.03
134,2.74,1.72,2.73,1.71,-1.71,-2.11,1.03,1.02,1.02
135,2.74,1.74,2.70,1.71,-1.71,-2.08,1.03,0.99,1.00
137,2.74,1.78,2.68,1.71,-1.71,-2.03,1.03,0.97,0.96
138,2.74,1.79,2.65,1.70,-1.70,-2.00,1.04,0.95,0.95
140,2.54,1.62,2.62,1.69,-1.69,-1.94,0.85,0.92,0.92
141,2.51,1.61,2.58,1.68,-1.68,-1.90,0.83,0.90,0.90
142,2.51,1.62,2.55,1.67,-1.67,-1.87,0.84,0.88,0.89
144,2.51,1.65,2.51,1.65,-1.65,-1.80,0.86,0.86,0.86
145,2.51,1.66,2.48,1.63,-1.63,-1.77,0.88,0.84,0.85
147,2.51,1.69,2.44,1.62,-1.62,-1.70,0.89,0.83,0.82
148,2.45,1.64,2.40,1.60,-1.60,-1.66,0.85,0.81,0.81
150,2.28,1.49,2.36,1.57,-1.57,-1.59,0.71,0.79,0.79
151,2.28,1.50,2.32,1.55,-1.55,-1.56,0.73,0.77,0.78
153,2.28,1.53,2.28,1.52,-1.52,-1.48,0.76,0.76,0.75
154,2.28,1.53,2.23,1.49,-1.49,-1.45,0.79,0.74,0.75
156,2.20,1.48,2.18,1.46,-1.46,-1.38,0.74,0.73,0.72
157,2.05,1.33,2.13,1.42,-1.42,-1.34,0.63,0.71,0.72
159,2.05,1.35,2.07,1.37,-1.37,-1.27,0.68,0.70,0.70
160,2.05,1.36,2.01,1.32,-1.32,-1.24,0.73,0.69,0.69
162,2.05,1.38,1.93,1.26,-1.26,-1.17,0.79,0.67,0.67
164,1.82,1.16,1.85,1.19,-1.19,-1.11,0.63,0.66,0.66
165,1.82,1.17,1.77,1.12,-1.12,-1.07,0.70,0.65,0.65
167,1.60,0.96,1.69,1.05,-1.05,-1.01,0.55,0.64,0.64
169,1.60,0.98,1.60,0.98,-0.98,-0.95,0.62,0.63,0.62
170,1.53,0.91,1.53,0.91,-0.91,-0.92,0.62,0.62,0.62
172,1.37,0.76,1.45,0.85,-0.85,-0.86,0.52,0.61,0.61
174,1.37,0.77,1.39,0.79,-0.79,-0.80,0.58,0.60,0.60
175,1.37,0.78,1.32,0.73,-0.73,-0.77,0.64,0.59,0.59
177,1.37,0.79,1.26,0.68,-0.68,-0.72,0.69,0.58,0.58
179,1.14,0.57,1.20,0.63,-0.63,-0.66,0.51,0.57,0.57
181,1.14,0.57,1.14,0.57,-0.57,-0.61,0.57,0.57,0.57
183,1.14,0.58,1.08,0.52,-0.52,-0.56,0.62,0.56,0.56
184,1.05,0.49,1.03,0.48,-0.48,-0.53,0.57,0.56,0.56
186,0.91,0.36,0.99,0.44,-0.44,-0.48,0.47,0.55,0.55
188,0.91,0.36,0.96,0.41,-0.41,-0.43,0.50,0.55,0.55
190,0.91,0.37,0.93,0.39,-0.39,-0.39,0.52,0.54,0.54
192,0.91,0.37,0.92,0.38,-0.38,-0.34,0.53,0.54,0.54
194,0.91,0.37,0.91,0.37,-0.37,-0.29,0.54,0.54,0.54
196,0.91,0.38,0.90,0.36,-0.36,-0.25,0.55,0.53,0.53
198,0.91,0.38,0.88,0.35,-0.35,-0.21,0.56,0.53,0.53
200,0.91,0.38,0.87,0.34,-0.34,-0.16,0.57,0.53,0.53
202,0.91,0.38,0.85,0.32,-0.32,-0.12,0.59,0.53,0.53
204,0.84,0.31,0.82,0.29,-0.29,-0.08,0.55,0.53,0.53
206,0.68,0.15,0.79,0.26,-0.26,-0.04,0.42,0.53,0.53
208,0.68,0.15,0.75,0.22,-0.22,-0.01,0.46,0.53,0.53
210,0.68,0.15,0.71,0.18,-0.18,0.03,0.50,0.53,0.53
212,0.68,0.15,0.66,0.14,-0.14,0.07,0.54,0.53,0.53
214,0.68,0.15,0.61,0.08,-0.08,0.10,0.60,0.53,0.53
216,0.68,0.15,0.55,0.02,-0.02,0.14,0.66,0.53,0.53
218,0.46,-0.07,0.47,-0.06,0.06,0.17,0.52,0.53,0.53
221,0.32,-0.21,0.39,-0.14,0.14,0.22,0.46,0.53,0.53
223,0.23,-0.30,0.30,-0.24,0.24,0.25,0.47,0.53,0.53
225,0.23,-0.31,0.20,-0.34,0.34,0.28,0.57,0.54,0.54
227,0.23,-0.31,0.09,-0.44,0.44,0.31,0.67,0.54,0.54
229,0.07,-0.47,-0.00,-0.54,0.54,0.34,0.61,0.54,0.54
232,-0.23,-0.77,-0.09,-0.63,0.63,0.38,0.40,0.54,0.54
234,-0.23,-0.77,-0.16,-0.70,0.70,0.41,0.47,0.54,0.54
236,-0.23,-0.78,-0.21,-0.75,0.75,0.43,0.52,0.55,0.55
239,-0.23,-0.78,-0.23,-0.78,0.78,0.47,0.55,0.55,0.55
241,-0.23,-0.78,-0.24,-0.79,0.79,0.49,0.56,0.55,0.55
244,-0.23,-0.78,-0.22,-0.77,0.77,0.52,0.54,0.55,0.55
246,-0.23,-0.79,-0.19,-0.74,0.74,0.55,0.51,0.56,0.56
248,-0.23,-0.79,-0.15,-0.71,0.71,0.57,0.48,0.56,0.56
251,0.00,-0.56,-0.11,-0.67,0.67,0.60,0.67,0.56,0.56
253,0.00,-0.57,-0.07,-0.63,0.63,0.62,0.63,0.57,0.57
256,0.00,-0.57,-0.03,-0.60,0.60,0.64,0.60,0.57,0.57
259,0.00,-0.57,-0.01,-0.58,0.58,0.67,0.58,0.58,0.57
261,0.00,-0.58,0.00,-0.57,0.57,0.68,0.57,0.58,0.58
264,0.00,-0.58,0.01,-0.57,0.57,0.71,0.57,0.59,0.58
266,0.00,-0.59,0.01,-0.58,0.58,0.72,0.58,0.59,0.59
269,0.00,-0.60,0.01,-0.59,0.59,0.74,0.59,0.60,0.60
272,0.00,-0.60,0.01,-0.60,0.60,0.77,0.60,0.60,0.60
274,0.00,-0.61,0.00,-0.61,0.61,0.78,0.61,0.61,0.61
277,0.00,-0.62,0.00,-0.62,0.62,0.80,0.62,0.62,0.62
280,0.00,-0.63,0.00,-0.62,0.62,0.82,0.62,0.63,0.63
283,0.00,-0.64,0.01,-0.63,0.63,0.84,0.63,0.64,0.64
286,0.00,-0.65,0.01,-0.64,0.64,0.86,0.64,0.65,0.65
288,0.00,-0.66,0.01,-0.65,0.65,0.87,0.65,0.66,0.66
291,0.00,-0.67,0.00,-0.67,0.67,0.89,0.67,0.67,0.67
294,0.00,-0.69,-0.01,-0.70,0.70,0.91,0.70,0.69,0.69
297,0.00,-0.70,-0.03,-0.73,0.73,0.93,0.73,0.70,0.70
300,0.00,-0.72,-0.05,-0.77,0.77,0.94,0.77,0.72,0.72
303,-0.01,-0.74,-0.09,-0.82,0.82,0.96,0.81,0.73,0.73
306,-0.23,-0.98,-0.13,-0.88,0.88,0.98,0.65,0.75,0.75
309,-0.23,-1.00,-0.17,-0.93,0.93,1.00,0.70,0.77,0.77
312,-0.23,-1.02,-0.21,-0.99,0.99,1.02,0.76,0.79,0.79
316,-0.23,-1.04,-0.25,-1.05,1.05,1.05,0.82,0.81,0.81
319,-0.23,-1.06,-0.29,-1.11,1.11,1.07,0.88,0.83,0.83
322,-0.24,-1.08,-0.33,-1.17,1.17,1.09,0.93,0.85,0.84
325,-0.46,-1.33,-0.37,-1.23,1.23,1.11,0.77,0.87,0.87
328,-0.46,-1.35,-0.41,-1.29,1.29,1.14,0.83,0.89,0.89
332,-0.46,-1.37,-0.44,-1.35,1.35,1.17,0.89,0.91,0.91
335,-0.46,-1.39,-0.48,-1.41,1.41,1.19,0.95,0.93,0.93
338,-0.46,-1.41,-0.52,-1.47,1.47,1.22,1.01,0.95,0.95
342,-0.46,-1.43,-0.56,-1.53,1.53,1.25,1.07,0.97,0.97
345,-0.68,-1.67,-0.60,-1.58,1.58,1.27,0.90,0.99,0.99
349,-0.68,-1.69,-0.63,-1.64,1.64,1.31,0.96,1.01,1.01
352,-0.68,-1.71,-0.65,-1.68,1.68,1.34,1.00,1.03,1.03
356,-0.68,-1.72,-0.67,-1.72,1.72,1.37,1.04,1.04,1.04
359,-0.68,-1.74,-0.68,-1.75,1.75,1.40,1.07,1.06,1.06
363,-0.68,-1.76,-0.69,-1.77,1.77,1.44,1.09,1.08,1.08
366,-0.68,-1.78,-0.69,-1.79,1.79,1.47,1.11,1.10,1.10
370,-0.68,-1.79,-0.69,-1.80,1.80,1.51,1.12,1.11,1.11
374,-0.68,-1.81,-0.69,-1.81,1.81,1.55,1.13,1.13,1.13
377,-0.68,-1.82,-0.68,-1.82,1.82,1.58,1.14,1.14,1.14
381,-0.68,-1.84,-0.68,-1.84,1.84,1.62,1.16,1.16,1.16
385,-0.68,-1.85,-0.68,-1.85,1.85,1.67,1.17,1.17,1.17
389,-0.68,-1.86,-0.68,-1.86,1.86,1.71,1.18,1.18,1.18
393,-0.68,-1.87,-0.68,-1.87,1.87,1.75,1.19,1.19,1.19
397,-0.68,-1.88,-0.68,-1.88,1.88,1.80,1.20,1.20,1.20
401,-0.68,-1.89,-0.68,-1.89,1.89,1.84,1.21,1.21,1.21
405,-0.68,-1.90,-0.68,-1.90,1.90,1.89,1.22,1.22,1.22
409,-0.68,-1.91,-0.68,-1.91,1.91,1.93,1.23,1.23,1.23
413,-0.68,-1.92,-0.68,-1.92,1.92,1.97,1.24,1.24,1.24
417,-0.68,-1.93,-0.68,-1.93,1.93,2.02,1.25,1.25,1.25
421,-0.68,-1.94,-0.68,-1.94,1.94,2.06,1.26,1.26,1.26
425,-0.68,-1.95,-0.68,-1.95,1.95,2.10,1.27,1.27,1.27
430,-0.68,-1.96,-0.68,-1.96,1.96,2.15,1.28,1.28,1.28
434,-0.68,-1.97,-0.68,-1.97,1.97,2.19,1.29,1.29,1.29
438,-0.68,-1.97,-0.68,-1.97,1.97,2.23,1.29,1.29,1.29
443,-0.68,-1.98,-0.68,-1.98,1.98,2.28,1.30,1.30,1.30
447,-0.68,-1.99,-0.68,-1.99,1.99,2.32,1.31,1.31,1.31
451,-0.68,-2.00,-0.68,-2.00,2.00,2.35,1.32,1.32,1.32
456,-0.68,-2.01,-0.68,-2.01,2.01,2.40,1.33,1.33,1.33
460,-0.68,-2.02,-0.68,-2.02,2.02,2.43,1.34,1.34,1.34
465,-0.68,-2.03,-0.68,-2.03,2.03,2.46,1.35,1.35,1.35
470,-0.68,-2.04,-0.68,-2.04,2.04,2.50,1.36,1.36,1.36
474,-0.68,-2.06,-0.68,-2.06,2.06,2.52,1.38,1.38,1.38
479,-0.68,-2.07,-0.68,-2.07,2.07,2.55,1.39,1.39,1.39
484,-0.68,-2.08,-0.68,-2.08,2.08,2.58,1.40,1.40,1.40
489,-0.68,-2.10,-0.68,-2.10,2.10,2.60,1.42,1.42,1.42
494,-0.68,-2.11,-0.68,-2.11,2.11,2.62,1.43,1.43,1.43
499,-0.68,-2.13,-0.68,-2.13,2.13,2.63,1.45,1.45,1.45
504,-0.68,-2.15,-0.68,-2.15,2.15,2.65,1.47,1.47,1.47
509,-0.68,-2.16,-0.68,-2.16,2.16,2.66,1.48,1.48,1.48
514,-0.68,-2.18,-0.68,-2.18,2.18,2.67,1.50,1.50,1.50
519,-0.68,-2.20,-0.68,-2.20,2.20,2.67,1.52,1.52,1.52
524,-0.68,-2.22,-0.68,-2.22,2.22,2.67,1.54,1.54,1.54
529,-0.68,-2.24,-0.68,-2.25,2.25,2.67,1.57,1.56,1.56
535,-0.68,-2.27,-0.68,-2.27,2.27,2.67,1.59,1.59,1.59
540,-0.68,-2.29,-0.68,-2.29,2.29,2.67,1.61,1.61,1.61
545,-0.68,-2.31,-0.68,-2.31,2.31,2.66,1.63,1.63,1.63
551,-0.68,-2.34,-0.68,-2.33,2.33,2.65,1.65,1.66,1.66
556,-0.68,-2.36,-0.67,-2.35,2.35,2.64,1.67,1.68,1.68
562,-0.68,-2.38,-0.66,-2.37,2.37,2.63,1.69,1.70,1.70
568,-0.68,-2.41,-0.66,-2.39,2.39,2.62,1.71,1.73,1.73
573,-0.68,-2.43,-0.65,-2.40,2.40,2.61,1.72,1.75,1.75
579,-0.68,-2.46,-0.65,-2.43,2.43,2.60,1.75,1.78,1.78
585,-0.68,-2.48,-0.67,-2.47,2.47,2.59,1.79,1.80,1.80
591,-0.68,-2.51,-0.71,-2.54,2.54,2.57,1.86,1.83,1.83
596,-0.68,-2.53,-0.77,-2.62,2.62,2.56,1.94,1.85,1.85
602,-0.76,-2.64,-0.86,-2.74,2.74,2.55,1.98,1.88,1.88
608,-0.91,-2.81,-0.98,-2.88,2.88,2.54,1.97,1.90,1.90
615,-1.09,-3.01,-1.11,-3.03,3.03,2.53,1.94,1.92,1.92
621,-1.14,-3.08,-1.24,-3.18,3.18,2.52,2.04,1.94,1.94
627,-1.38,-3.35,-1.36,-3.32,3.32,2.51,1.94,1.97,1.97
633,-1.63,-3.62,-1.45,-3.44,3.44,2.51,1.81,1.99,1.99
639,-1.77,-3.78,-1.51,-3.52,3.52,2.50,1.75,2.01,2.01
646,-1.60,-3.63,-1.53,-3.55,3.55,2.50,1.95,2.03,2.03
652,-1.47,-3.52,-1.51,-3.56,3.56,2.49,2.09,2.05,2.05
659,-1.37,-3.44,-1.47,-3.53,3.53,2.49,2.16,2.07,2.07
665,-1.37,-3.46,-1.40,-3.49,3.49,2.49,2.12,2.09,2.09
672,-1.36,-3.47,-1.33,-3.44,3.44,2.50,2.08,2.11,2.11
679,-1.14,-3.26,-1.26,-3.39,3.39,2.50,2.25,2.12,2.12
686,-1.14,-3.28,-1.20,-3.35,3.35,2.51,2.21,2.14,2.14
692,-1.14,-3.30,-1.15,-3.31,3.31,2.52,2.17,2.16,2.16
699,-1.14,-3.32,-1.11,-3.29,3.29,2.53,2.15,2.18,2.18
706,-1.14,-3.34,-1.07,-3.27,3.27,2.54,2.13,2.20,2.20
713,-1.14,-3.36,-1.03,-3.26,3.26,2.56,2.12,2.22,2.22
721,-0.91,-3.15,-1.00,-3.25,3.25,2.58,2.34,2.24,2.24
728,-0.91,-3.17,-0.97,-3.24,3.24,2.60,2.33,2.26,2.26
735,-0.91,-3.19,-0.94,-3.23,3.23,2.62,2.32,2.28,2.28
742,-0.91,-3.21,-0.91,-3.22,3.22,2.64,2.31,2.30,2.30
750,-0.91,-3.23,-0.88,-3.20,3.20,2.67,2.29,2.32,2.32
757,-0.91,-3.25,-0.85,-3.19,3.19,2.69,2.28,2.34,2.34
765,-0.91,-3.27,-0.81,-3.18,3.18,2.72,2.27,2.36,2.36
773,-0.68,-3.06,-0.78,-3.16,3.16,2.75,2.48,2.38,2.38
780,-0.68,-3.08,-0.74,-3.14,3.14,2.78,2.46,2.40,2.40
788,-0.68,-3.10,-0.70,-3.12,3.12,2.82,2.44,2.42,2.42
796,-0.68,-3.12,-0.66,-3.09,3.09,2.85,2.41,2.43,2.44
804,-0.68,-3.13,-0.62,-3.07,3.07,2.89,2.39,2.45,2.45
812,-0.68,-3.15,-0.58,-3.04,3.04,2.92,2.36,2.46,2.47
820,-0.46,-2.94,-0.54,-3.02,3.02,2.96,2.56,2.48,2.48
828,-0.46,-2.95,-0.51,-3.00,3.00,2.99,2.54,2.49,2.49
837,-0.46,-2.96,-0.49,-2.99,2.99,3.03,2.53,2.50,2.50
845,-0.46,-2.97,-0.47,-2.99,2.99,3.07,2.53,2.51,2.51
853,-0.46,-2.98,-0.47,-2.99,2.99,3.10,2.53,2.52,2.52
862,-0.46,-2.99,-0.46,-2.99,2.99,3.14,2.53,2.53,2.53
871,-0.46,-3.00,-0.46,-3.00,3.00,3.17,2.54,2.54,2.54
879,-0.46,-3.00,-0.45,-3.00,3.00,3.20,2.54,2.54,2.54
888,-0.46,-3.01,-0.44,-2.99,2.99,3.23,2.53,2.55,2.55
897,-0.46,-3.02,-0.41,-2.97,2.97,3.26,2.51,2.56,2.56
906,-0.46,-3.02,-0.38,-2.94,2.94,3.28,2.48,2.56,2.56
915,-0.30,-2.87,-0.34,-2.90,2.90,3.30,2.60,2.57,2.57
924,-0.23,-2.80,-0.29,-2.86,2.86,3.32,2.63,2.57,2.57
933,-0.23,-2.81,-0.23,-2.81,2.81,3.33,2.58,2.58,2.58
943,-0.23,-2.81,-0.18,-2.77,2.77,3.34,2.54,2.59,2.58
952,-0.17,-2.76,-0.13,-2.72,2.72,3.34,2.55,2.59,2.59
962,0.00,-2.60,-0.09,-2.69,2.69,3.34,2.69,2.60,2.60
971,0.00,-2.61,-0.05,-2.66,2.66,3.33,2.66,2.61,2.61
981,0.00,-2.62,-0.02,-2.64,2.64,3.32,2.64,2.62,2.62
991,0.00,-2.63,0.00,-2.63,2.63,3.30,2.63,2.63,2.63
1001,0.00,-2.64,0.03,-2.61,2.61,3.27,2.61,2.64,2.64
1011,0.00,-2.66,0.06,-2.60,2.60,3.24,2.60,2.66,2.66
1021,0.00,-2.67,0.09,-2.58,2.58,3.20,2.58,2.67,2.67
1031,0.11,-2.58,0.11,-2.57,2.57,3.16,2.68,2.69,2.69
1041,0.23,-2.47,0.14,-2.56,2.56,3.11,2.79,2.70,2.70
1052,0.23,-2.49,0.17,-2.56,2.56,3.05,2.79,2.72,2.72
1062,0.23,-2.51,0.19,-2.55,2.55,2.99,2.78,2.74,2.74
1073,0.23,-2.53,0.21,-2.55,2.55,2.92,2.78,2.76,2.76
1084,0.23,-2.55,0.24,-2.54,2.54,2.85,2.77,2.78,2.78
1094,0.23,-2.58,0.28,-2.53,2.53,2.78,2.76,2.81,2.81
1105,0.23,-2.60,0.33,-2.50,2.50,2.70,2.73,2.83,2.83
1116,0.37,-2.48,0.39,-2.46,2.46,2.62,2.83,2.85,2.85
1128,0.46,-2.41,0.46,-2.41,2.41,2.52,2.87,2.87,2.87
1139,0.46,-2.44,0.55,-2.35,2.35,2.43,2.81,2.90,2.90
1150,0.68,-2.24,0.63,-2.29,2.29,2.34,2.97,2.92,2.92
1162,0.75,-2.19,0.71,-2.23,2.23,2.24,2.98,2.94,2.94
1173,0.91,-2.05,0.79,-2.18,2.18,2.15,3.09,2.96,2.96
1185,0.91,-2.07,0.85,-2.13,2.13,2.04,3.04,2.98,2.98
1197,0.91,-2.09,0.90,-2.10,2.10,1.94,3.01,3.00,3.00
1209,0.91,-2.11,0.94,-2.07,2.07,1.83,2.98,3.02,3.02
1221,0.91,-2.12,0.98,-2.05,2.05,1.73,2.96,3.03,3.03
1233,0.95,-2.09,1.02,-2.02,2.02,1.62,2.97,3.04,3.04
1246,1.14,-1.91,1.07,-1.99,1.99,1.51,3.13,3.05,3.05
1258,1.14,-1.92,1.12,-1.94,1.94,1.40,3.08,3.06,3.06
1271,1.14,-1.93,1.19,-1.88,1.88,1.29,3.02,3.06,3.07
1283,1.31,-1.76,1.27,-1.80,1.80,1.19,3.11,3.07,3.07
1296,1.37,-1.70,1.36,-1.71,1.71,1.08,3.08,3.07,3.07
1309,1.38,-1.68,1.47,-1.60,1.60,0.96,2.98,3.06,3.06
1322,1.60,-1.46,1.59,-1.47,1.47,0.85,3.07,3.06,3.06
1335,1.67,-1.38,1.71,-1.34,1.34,0.75,3.01,3.05,3.05
1349,1.82,-1.22,1.85,-1.19,1.19,0.63,3.01,3.04,3.04
1362,1.97,-1.06,1.98,-1.05,1.05,0.52,3.02,3.03,3.03
1376,2.24,-0.78,2.12,-0.90,0.90,0.41,3.14,3.02,3.02
1390,2.28,-0.72,2.25,-0.76,0.76,0.30,3.04,3.00,3.00
1404,2.51,-0.48,2.38,-0.61,0.61,0.18,3.12,2.99,2.99
1418,2.51,-0.47,2.51,-0.47,0.47,0.07,2.98,2.98,2.98
1432,2.51,-0.45,2.65,-0.32,0.32,-0.04,2.83,2.96,2.96
1446,2.63,-0.32,2.79,-0.16,0.16,-0.14,2.79,2.95,2.95
1461,2.91,-0.03,2.94,0.00,-0.00,-0.26,2.91,2.94,2.94
1475,3.16,0.23,3.11,0.18,-0.18,-0.36,2.98,2.93,2.93
1490,3.42,0.50,3.28,0.36,-0.36,-0.48,3.06,2.92,2.92
1505,3.46,0.54,3.46,0.54,-0.54,-0.59,2.92,2.92,2.92
1520,3.65,0.73,3.65,0.73,-0.73,-0.70,2.92,2.92,2.92
1535,3.75,0.83,3.83,0.91,-0.91,-0.81,2.84,2.92,2.92
1550,4.01,1.08,4.01,1.08,-1.08,-0.91,2.93,2.93,2.93
1566,4.10,1.16,4.18,1.24,-1.24,-1.03,2.86,2.94,2.94
1582,4.32,1.37,4.34,1.39,-1.39,-1.14,2.93,2.95,2.95
1597,4.57,1.59,4.48,1.51,-1.51,-1.24,3.06,2.98,2.98
1613,4.79,1.79,4.61,1.60,-1.60,-1.35,3.19,3.00,3.00
1629,4.79,1.76,4.72,1.68,-1.68,-1.45,3.11,3.03,3.03
1646,4.79,1.72,4.81,1.74,-1.74,-1.56,3.05,3.07,3.07
1662,4.93,1.82,4.91,1.79,-1.79,-1.66,3.14,3.12,3.11
1679,5.01,1.85,5.02,1.85,-1.85,-1.77,3.16,3.16,3.16
1696,5.01,1.79,5.15,1.93,-1.93,-1.87,3.08,3.22,3.22
1713,5.24,1.96,5.31,2.03,-2.03,-1.96,3.21,3.28,3.28
1730,5.33,1.99,5.51,2.16,-2.16,-2.06,3.17,3.34,3.34
1747,5.68,2.27,5.73,2.32,-2.32,-2.15,3.36,3.41,3.41
1764,5.99,2.50,5.98,2.49,-2.49,-2.23,3.50,3.49,3.49
1782,6.31,2.74,6.23,2.66,-2.66,-2.32,3.65,3.57,3.57
1800,6.58,2.93,6.48,2.83,-2.83,-2.40,3.75,3.65,3.65
1818,6.84,3.10,6.71,2.97,-2.97,-2.47,3.87,3.74,3.74
1836,6.87,3.04,6.91,3.08,-3.08,-2.54,3.79,3.83,3.83
1854,7.07,3.14,7.08,3.15,-3.15,-2.60,3.92,3.93,3.93
1873,7.17,3.15,7.22,3.19,-3.19,-2.66,3.98,4.02,4.02
1892,7.43,3.31,7.33,3.20,-3.20,-2.71,4.23,4.12,4.12
1911,7.52,3.30,7.42,3.19,-3.19,-2.75,4.33,4.22,4.22
1930,7.52,3.19,7.50,3.17,-3.17,-2.79,4.35,4.33,4.33
1949,7.52,3.08,7.58,3.14,-3.14,-2.82,4.38,4.44,4.44
1969,7.52,2.97,7.66,3.12,-3.12,-2.84,4.40,4.55,4.55
1988,7.60,2.94,7.76,3.10,-3.10,-2.85,4.50,4.66,4.66
2008,7.86,3.09,7.87,3.09,-3.09,-2.86,4.77,4.77,4.77
