frequency,raw
20.00,6.63
20.20,6.66
20.40,6.69
20.61,6.72
20.81,6.75
21.02,6.78
21.23,6.81
21.44,6.84
21.66,6.87
21.87,6.90
22.09,6.93
22.31,6.96
22.54,7.00
22.76,7.03
22.99,7.06
23.22,7.09
23.45,7.12
23.69,7.15
23.92,7.18
24.16,7.21
24.40,7.24
24.65,7.27
24.89,7.30
25.14,7.33
25.39,7.35
25.65,7.38
25.91,7.41
26.16,7.44
26.43,7.47
26.69,7.50
26.96,7.53
27.23,7.55
27.50,7.58
27.77,7.60
28.05,7.62
28.33,7.65
28.62,7.68
28.90,7.70
29.19,7.73
29.48,7.75
29.78,7.78
30.08,7.81
30.38,7.83
30.68,7.85
30.99,7.87
31.30,7.88
31.61,7.90
31.93,7.92
32.24,7.93
32.57,7.95
32.89,7.96
33.22,7.98
33.55,8.00
33.89,8.02
34.23,8.04
34.57,8.06
34.92,8.08
35.27,8.09
35.62,8.10
35.97,8.11
36.33,8.12
36.70,8.13
37.06,8.14
37.43,8.15
37.81,8.16
38.19,8.17
38.57,8.18
38.95,8.19
39.34,8.19
39.74,8.20
40.14,8.20
40.54,8.21
40.94,8.22
41.35,8.22
41.76,8.23
42.18,8.23
42.60,8.24
43.03,8.24
43.46,8.24
43.90,8.24
44.33,8.23
44.78,8.22
45.23,8.22
45.68,8.21
46.13,8.21
46.60,8.21
47.06,8.21
47.53,8.21
48.01,8.21
48.49,8.21
48.97,8.21
49.46,8.21
49.96,8.21
50.46,8.21
50.96,8.21
51.47,8.21
51.99,8.21
52.51,8.21
53.03,8.21
53.56,8.21
54.10,8.21
54.64,8.21
55.18,8.21
55.74,8.21
56.29,8.21
56.86,8.21
57.42,8.21
58.00,8.21
58.58,8.21
59.16,8.21
59.76,8.21
60.35,8.21
60.96,8.21
61.57,8.21
62.18,8.21
62.80,8.21
63.43,8.21
64.07,8.21
64.71,8.21
65.35,8.21
66.01,8.21
66.67,8.21
67.33,8.21
68.01,8.21
68.69,8.21
69.37,8.21
70.07,8.21
70.77,8.21
71.48,8.21
72.19,8.22
72.91,8.22
73.64,8.23
74.38,8.24
75.12,8.24
75.87,8.23
76.63,8.22
77.40,8.21
78.17,8.19
78.95,8.17
79.74,8.16
80.54,8.13
81.35,8.10
82.16,8.08
82.98,8.05
83.81,8.02
84.65,7.99
85.50,7.97
86.35,7.94
87.22,7.92
88.09,7.90
88.97,7.88
89.86,7.87
90.76,7.87
91.66,7.88
92.58,7.90
93.51,7.91
94.44,7.91
95.39,7.89
96.34,7.87
97.30,7.85
98.28,7.83
99.26,7.80
100.25,7.76
101.25,7.73
102.27,7.70
103.29,7.68
104.32,7.66
105.37,7.63
106.42,7.61
107.48,7.60
108.56,7.58
109.64,7.56
110.74,7.54
111.85,7.52
112.97,7.50
114.10,7.48
115.24,7.44
116.39,7.42
117.55,7.39
118.73,7.35
119.92,7.32
121.12,7.30
122.33,7.29
123.55,7.27
124.79,7.24
126.03,7.21
127.29,7.20
128.57,7.18
129.85,7.15
131.15,7.12
132.46,7.10
133.79,7.07
135.12,7.04
136.48,7.03
137.84,6.99
139.22,6.96
140.61,6.93
142.02,6.87
143.44,6.84
144.87,6.80
146.32,6.79
147.78,6.77
149.26,6.76
150.75,6.72
152.26,6.68
153.78,6.64
155.32,6.60
156.88,6.54
158.44,6.50
160.03,6.46
161.63,6.44
163.24,6.43
164.88,6.40
166.53,6.37
168.19,6.33
169.87,6.27
171.57,6.22
173.29,6.19
175.02,6.15
176.77,6.12
178.54,6.10
180.32,6.06
182.13,6.02
183.95,5.95
185.79,5.91
187.65,5.87
189.52,5.83
191.42,5.79
193.33,5.75
195.27,5.72
197.22,5.69
199.19,5.65
201.18,5.61
203.19,5.56
205.23,5.50
207.28,5.45
209.35,5.40
211.44,5.35
213.56,5.31
215.69,5.26
217.85,5.19
220.03,5.15
222.23,5.09
224.45,5.03
226.70,4.98
228.96,4.93
231.25,4.89
233.57,4.84
235.90,4.77
238.26,4.72
240.64,4.68
243.05,4.64
245.48,4.60
247.93,4.54
250.41,4.49
252.92,4.43
255.45,4.39
258.00,4.35
260.58,4.32
263.19,4.27
265.82,4.21
268.48,4.17
271.16,4.12
273.87,4.05
276.61,4.02
279.38,3.98
282.17,3.93
284.99,3.89
287.84,3.82
290.72,3.77
293.63,3.73
296.57,3.68
299.53,3.64
302.53,3.61
305.55,3.56
308.61,3.51
311.69,3.46
314.81,3.42
317.96,3.38
321.14,3.33
324.35,3.29
327.59,3.24
330.87,3.19
334.18,3.14
337.52,3.09
340.90,3.06
344.30,3.02
347.75,2.98
351.23,2.92
354.74,2.88
358.28,2.82
361.87,2.78
365.49,2.75
369.14,2.70
372.83,2.64
376.56,2.57
380.33,2.50
384.13,2.45
387.97,2.40
391.85,2.35
395.77,2.30
399.73,2.23
403.72,2.16
407.76,2.10
411.84,2.04
415.96,1.98
420.12,1.93
424.32,1.87
428.56,1.82
432.85,1.78
437.18,1.73
441.55,1.68
445.96,1.63
450.42,1.56
454.93,1.50
459.48,1.45
464.07,1.39
468.71,1.34
473.40,1.25
478.13,1.18
482.91,1.12
487.74,1.07
492.62,1.01
497.55,0.95
502.52,0.89
507.55,0.83
512.62,0.77
517.75,0.71
522.93,0.67
528.16,0.64
533.44,0.59
538.77,0.54
544.16,0.50
549.60,0.46
555.10,0.41
560.65,0.36
566.25,0.31
571.92,0.28
577.64,0.25
583.41,0.23
589.25,0.21
595.14,0.18
601.09,0.14
607.10,0.10
613.17,0.06
619.30,0.02
625.50,-0.01
631.75,-0.04
638.07,-0.07
644.45,-0.09
650.89,-0.12
657.40,-0.14
663.98,-0.16
670.62,-0.20
677.32,-0.23
684.10,-0.26
690.94,-0.29
697.85,-0.32
704.83,-0.34
711.87,-0.38
718.99,-0.40
726.18,-0.43
733.44,-0.46
740.78,-0.49
748.19,-0.52
755.67,-0.55
763.23,-0.56
770.86,-0.57
778.57,-0.56
786.35,-0.56
794.22,-0.55
802.16,-0.54
810.18,-0.55
818.28,-0.56
826.46,-0.57
834.73,-0.56
843.08,-0.55
851.51,-0.54
860.02,-0.52
868.62,-0.50
877.31,-0.47
886.08,-0.44
894.94,-0.42
903.89,-0.39
912.93,-0.35
922.06,-0.31
931.28,-0.26
940.59,-0.21
950.00,-0.16
959.50,-0.12
969.09,-0.09
978.78,-0.06
988.57,-0.04
998.46,-0.01
1008.44,0.04
1018.53,0.08
1028.71,0.13
1039.00,0.18
1049.39,0.22
1059.88,0.25
1070.48,0.27
1081.19,0.30
1092.00,0.33
1102.92,0.38
1113.95,0.42
1125.09,0.47
1136.34,0.52
1147.70,0.56
1159.18,0.60
1170.77,0.63
1182.48,0.65
1194.30,0.66
1206.25,0.68
1218.31,0.71
1230.49,0.74
1242.80,0.78
1255.22,0.81
1267.78,0.84
1280.45,0.87
1293.26,0.89
1306.19,0.93
1319.25,0.97
1332.45,1.00
1345.77,1.03
1359.23,1.05
1372.82,1.06
1386.55,1.05
1400.41,1.04
1414.42,1.02
1428.56,0.99
1442.85,0.96
1457.28,0.91
1471.85,0.87
1486.57,0.83
1501.43,0.78
1516.45,0.73
1531.61,0.67
1546.93,0.62
1562.40,0.57
1578.02,0.51
1593.80,0.46
1609.74,0.40
1625.84,0.33
1642.10,0.25
1658.52,0.17
1675.10,0.08
1691.85,-0.02
1708.77,-0.12
1725.86,-0.22
1743.12,-0.32
1760.55,-0.45
1778.15,-0.57
1795.94,-0.69
1813.90,-0.83
1832.03,-0.98
1850.36,-1.12
1868.86,-1.25
1887.55,-1.38
1906.42,-1.52
1925.49,-1.67
1944.74,-1.82
1964.19,-1.96
1983.83,-2.12
2003.67,-2.27
2023.71,-2.42
2043.94,-2.58
2064.38,-2.73
2085.03,-2.89
2105.88,-3.05
2126.94,-3.21
2148.20,-3.37
2169.69,-3.52
2191.38,-3.69
2213.30,-3.86
2235.43,-4.00
2257.78,-4.14
2280.36,-4.29
2303.17,-4.44
2326.20,-4.59
2349.46,-4.74
2372.95,-4.88
2396.68,-5.03
2420.65,-5.19
2444.86,-5.35
2469.31,-5.50
2494.00,-5.64
2518.94,-5.78
2544.13,-5.94
2569.57,-6.08
2595.27,-6.21
2621.22,-6.34
2647.43,-6.48
2673.90,-6.62
2700.64,-6.73
2727.65,-6.85
2754.93,-6.97
2782.48,-7.09
2810.30,-7.20
2838.40,-7.31
2866.79,-7.42
2895.46,-7.53
2924.41,-7.65
2953.65,-7.76
2983.19,-7.87
3013.02,-7.97
3043.15,-8.07
3073.58,-8.17
3104.32,-8.26
3135.36,-8.36
3166.72,-8.45
3198.38,-8.54
3230.37,-8.63
3262.67,-8.70
3295.30,-8.77
3328.25,-8.83
3361.53,-8.87
3395.15,-8.91
3429.10,-8.94
3463.39,-8.97
3498.03,-8.99
3533.01,-8.99
3568.34,-9.00
3604.02,-9.00
3640.06,-9.00
3676.46,-8.99
3713.22,-9.00
3750.36,-9.00
3787.86,-9.00
3825.74,-9.00
3864.00,-8.98
3902.64,-8.96
3941.66,-8.94
3981.08,-8.92
4020.89,-8.88
4061.10,-8.82
4101.71,-8.76
4142.73,-8.66
4184.15,-8.56
4226.00,-8.44
4268.26,-8.31
4310.94,-8.17
4354.05,-8.02
4397.59,-7.84
4441.56,-7.66
4485.98,-7.47
4530.84,-7.27
4576.15,-7.06
4621.91,-6.82
4668.13,-6.59
4714.81,-6.33
4761.96,-6.07
4809.58,-5.81
4857.67,-5.54
4906.25,-5.27
4955.31,-5.00
5004.87,-4.71
5054.91,-4.43
5105.46,-4.17
5156.52,-3.91
5208.08,-3.66
5260.16,-3.42
5312.77,-3.20
5365.89,-2.99
5419.55,-2.79
5473.75,-2.63
5528.49,-2.49
5583.77,-2.37
5639.61,-2.28
5696.00,-2.21
5752.96,-2.18
5810.49,-2.19
5868.60,-2.22
5927.28,-2.28
5986.56,-2.39
6046.42,-2.51
6106.89,-2.65
6167.96,-2.83
6229.64,-3.03
6291.93,-3.25
6354.85,-3.50
6418.40,-3.78
6482.58,-4.09
6547.41,-4.42
6612.88,-4.76
6679.01,-5.14
6745.80,-5.54
6813.26,-5.95
6881.39,-6.36
6950.21,-6.78
7019.71,-7.21
7089.91,-7.62
7160.81,-8.02
7232.41,-8.40
7304.74,-8.78
7377.79,-9.13
7451.56,-9.47
7526.08,-9.79
7601.34,-10.09
7677.35,-10.37
7754.13,-10.64
7831.67,-10.90
7909.98,-11.16
7989.08,-11.41
8068.98,-11.66
8149.67,-11.89
8231.16,-12.11
8313.47,-12.31
8396.61,-12.48
8480.57,-12.64
8565.38,-12.76
8651.03,-12.85
8737.54,-12.89
8824.92,-12.88
8913.17,-12.80
9002.30,-12.66
9092.32,-12.44
9183.25,-12.14
9275.08,-11.75
9367.83,-11.30
9461.51,-10.80
9556.12,-10.26
9651.68,-9.70
9748.20,-9.13
9845.68,-8.57
9944.14,-8.05
10043.58,-7.55
10144.02,-7.10
10245.46,-6.71
10347.91,-6.38
10451.39,-6.10
10555.91,-5.88
10661.46,-5.70
10768.08,-5.55
10875.76,-5.42
10984.52,-5.31
11094.36,-5.22
11205.31,-5.14
11317.36,-5.07
11430.53,-5.05
11544.84,-5.12
11660.29,-5.31
11776.89,-5.64
11894.66,-6.12
12013.60,-6.78
12133.74,-7.58
12255.08,-8.53
12377.63,-9.60
12501.41,-10.80
12626.42,-12.06
12752.68,-13.37
12880.21,-14.69
13009.01,-15.99
13139.10,-17.23
13270.49,-18.37
13403.20,-19.40
13537.23,-20.28
13672.60,-21.01
13809.33,-21.60
13947.42,-22.06
14086.90,-22.40
14227.77,-22.63
14370.04,-22.77
14513.74,-22.83
14658.88,-22.81
14805.47,-22.72
14953.52,-22.58
15103.06,-22.43
15254.09,-22.28
15406.63,-22.13
15560.70,-22.01
15716.30,-21.91
15873.47,-21.84
16032.20,-21.83
16192.52,-21.87
16354.45,-21.96
16517.99,-22.10
16683.17,-22.27
16850.01,-22.47
17018.51,-22.69
17188.69,-22.92
17360.58,-23.15
17534.18,-23.39
17709.53,-23.65
17886.62,-23.91
18065.49,-24.19
18246.14,-24.51
18428.60,-24.84
18612.89,-25.19
18799.02,-25.56
18987.01,-25.94
19176.88,-26.35
19368.65,-26.77
19562.33,-27.22
19757.96,-27.68
19955.54,-28.17
