frequency,raw,error,smoothed,error_smoothed,equalization,parametric_eq,fixed_band_eq,equalized_raw,equalized_smoothed,target
20.00,13.06,4.88,13.06,4.87,-4.87,-4.82,-2.22,8.19,8.18,8.18
20.20,13.08,4.89,13.08,4.88,-4.88,-4.83,-2.28,8.20,8.19,8.19
20.40,13.09,4.89,13.09,4.89,-4.89,-4.84,-2.35,8.20,8.20,8.20
20.61,13.11,4.90,13.11,4.90,-4.90,-4.84,-2.41,8.21,8.21,8.21
20.81,13.13,4.92,13.13,4.91,-4.91,-4.85,-2.48,8.22,8.22,8.21
21.02,13.14,4.92,13.15,4.92,-4.92,-4.86,-2.56,8.22,8.23,8.22
21.23,13.16,4.93,13.16,4.93,-4.93,-4.86,-2.63,8.23,8.23,8.23
21.44,13.18,4.93,13.18,4.94,-4.94,-4.87,-2.71,8.24,8.24,8.25
21.66,13.20,4.95,13.20,4.95,-4.95,-4.87,-2.79,8.25,8.25,8.25
21.87,13.22,4.96,13.22,4.96,-4.96,-4.88,-2.87,8.26,8.25,8.26
22.09,13.24,4.98,13.24,4.98,-4.98,-4.89,-2.95,8.26,8.26,8.26
22.31,13.26,4.99,13.26,4.99,-4.99,-4.89,-3.03,8.27,8.27,8.27
22.54,13.27,5.00,13.27,5.00,-5.00,-4.90,-3.12,8.27,8.27,8.27
22.76,13.29,5.01,13.29,5.02,-5.02,-4.91,-3.21,8.27,8.28,8.28
22.99,13.31,5.03,13.31,5.03,-5.03,-4.91,-3.30,8.28,8.28,8.28
23.22,13.33,5.05,13.33,5.05,-5.05,-4.92,-3.40,8.28,8.28,8.28
23.45,13.35,5.06,13.35,5.07,-5.07,-4.93,-3.49,8.28,8.29,8.29
23.69,13.37,5.08,13.37,5.08,-5.08,-4.94,-3.59,8.29,8.29,8.29
23.92,13.39,5.10,13.39,5.10,-5.10,-4.94,-3.69,8.29,8.29,8.29
24.16,13.41,5.12,13.41,5.12,-5.12,-4.95,-3.79,8.29,8.29,8.29
24.40,13.43,5.13,13.43,5.13,-5.13,-4.96,-3.89,8.30,8.30,8.30
24.65,13.45,5.15,13.45,5.15,-5.15,-4.96,-4.00,8.30,8.30,8.30
24.89,13.46,5.16,13.46,5.16,-5.16,-4.97,-4.10,8.30,8.30,8.30
25.14,13.48,5.18,13.48,5.18,-5.18,-4.98,-4.21,8.30,8.30,8.30
25.39,13.50,5.20,13.50,5.19,-5.19,-4.99,-4.32,8.31,8.30,8.30
25.65,13.52,5.22,13.51,5.21,-5.21,-4.99,-4.43,8.31,8.30,8.30
25.91,13.53,5.23,13.52,5.22,-5.22,-5.00,-4.53,8.31,8.30,8.30
26.16,13.54,5.23,13.54,5.23,-5.23,-5.01,-4.64,8.31,8.30,8.31
26.43,13.55,5.24,13.55,5.24,-5.24,-5.02,-4.75,8.31,8.31,8.31
26.69,13.55,5.24,13.56,5.25,-5.25,-5.03,-4.86,8.30,8.31,8.31
26.96,13.56,5.25,13.57,5.26,-5.26,-5.03,-4.97,8.30,8.31,8.31
27.23,13.57,5.27,13.58,5.27,-5.27,-5.04,-5.07,8.30,8.31,8.30
27.50,13.58,5.28,13.58,5.27,-5.27,-5.05,-5.17,8.31,8.31,8.30
27.77,13.59,5.28,13.59,5.28,-5.28,-5.06,-5.27,8.31,8.31,8.31
28.05,13.60,5.29,13.59,5.28,-5.28,-5.07,-5.37,8.32,8.31,8.31
28.33,13.60,5.29,13.59,5.28,-5.28,-5.08,-5.46,8.32,8.31,8.31
28.62,13.60,5.29,13.59,5.28,-5.28,-5.08,-5.55,8.32,8.31,8.31
28.90,13.60,5.28,13.59,5.27,-5.27,-5.09,-5.64,8.33,8.31,8.32
29.19,13.59,5.27,13.59,5.27,-5.27,-5.10,-5.71,8.32,8.31,8.32
29.48,13.58,5.27,13.58,5.27,-5.27,-5.11,-5.79,8.31,8.31,8.31
29.78,13.57,5.26,13.58,5.27,-5.27,-5.12,-5.85,8.30,8.31,8.31
30.08,13.56,5.24,13.58,5.27,-5.27,-5.13,-5.91,8.29,8.31,8.32
30.38,13.56,5.25,13.57,5.26,-5.26,-5.14,-5.97,8.30,8.31,8.31
30.68,13.56,5.25,13.57,5.26,-5.26,-5.15,-6.01,8.30,8.31,8.31
30.99,13.56,5.25,13.56,5.26,-5.26,-5.16,-6.05,8.30,8.31,8.31
31.30,13.56,5.26,13.56,5.25,-5.25,-5.17,-6.08,8.31,8.30,8.30
31.61,13.56,5.26,13.55,5.25,-5.25,-5.18,-6.11,8.31,8.30,8.30
31.93,13.56,5.27,13.55,5.25,-5.25,-5.19,-6.12,8.31,8.30,8.29
32.24,13.55,5.25,13.54,5.25,-5.25,-5.20,-6.13,8.30,8.29,8.30
32.57,13.54,5.25,13.54,5.25,-5.25,-5.21,-6.14,8.29,8.29,8.29
32.89,13.52,5.24,13.53,5.25,-5.25,-5.22,-6.13,8.27,8.29,8.28
33.22,13.52,5.24,13.52,5.24,-5.24,-5.23,-6.12,8.28,8.28,8.28
33.55,13.52,5.24,13.52,5.24,-5.24,-5.24,-6.10,8.28,8.28,8.28
33.89,13.52,5.24,13.51,5.24,-5.24,-5.25,-6.08,8.28,8.27,8.28
34.23,13.51,5.25,13.50,5.23,-5.23,-5.26,-6.06,8.28,8.27,8.26
34.57,13.49,5.23,13.49,5.23,-5.23,-5.27,-6.03,8.26,8.26,8.26
34.92,13.47,5.22,13.48,5.23,-5.23,-5.28,-5.99,8.24,8.25,8.25
35.27,13.46,5.21,13.47,5.23,-5.23,-5.29,-5.96,8.23,8.24,8.25
35.62,13.46,5.23,13.46,5.23,-5.23,-5.30,-5.92,8.23,8.23,8.23
35.97,13.45,5.22,13.45,5.23,-5.23,-5.31,-5.87,8.22,8.22,8.23
36.33,13.44,5.23,13.44,5.23,-5.23,-5.33,-5.83,8.21,8.21,8.21
36.70,13.44,5.24,13.43,5.23,-5.23,-5.34,-5.79,8.21,8.20,8.20
37.06,13.43,5.24,13.42,5.24,-5.24,-5.35,-5.74,8.19,8.19,8.19
37.43,13.41,5.24,13.41,5.24,-5.24,-5.36,-5.70,8.17,8.17,8.17
37.81,13.40,5.24,13.40,5.24,-5.24,-5.37,-5.66,8.16,8.16,8.16
38.19,13.39,5.24,13.39,5.25,-5.25,-5.39,-5.62,8.14,8.15,8.15
38.57,13.38,5.25,13.38,5.25,-5.25,-5.40,-5.58,8.13,8.13,8.13
38.95,13.38,5.26,13.37,5.26,-5.26,-5.41,-5.54,8.12,8.11,8.12
39.34,13.37,5.28,13.36,5.26,-5.26,-5.42,-5.50,8.11,8.10,8.09
39.74,13.35,5.27,13.34,5.26,-5.26,-5.44,-5.47,8.09,8.08,8.08
40.14,13.33,5.27,13.33,5.27,-5.27,-5.45,-5.43,8.06,8.06,8.06
40.54,13.32,5.27,13.32,5.27,-5.27,-5.46,-5.41,8.05,8.04,8.05
40.94,13.30,5.28,13.30,5.28,-5.28,-5.48,-5.38,8.02,8.02,8.02
41.35,13.29,5.28,13.29,5.28,-5.28,-5.49,-5.36,8.01,8.00,8.01
41.76,13.27,5.29,13.27,5.29,-5.29,-5.50,-5.34,7.98,7.98,7.98
42.18,13.25,5.29,13.26,5.30,-5.30,-5.52,-5.32,7.95,7.96,7.96
42.60,13.24,5.30,13.24,5.31,-5.31,-5.53,-5.31,7.93,7.94,7.94
43.03,13.22,5.31,13.23,5.32,-5.32,-5.55,-5.31,7.90,7.91,7.91
43.46,13.21,5.33,13.21,5.33,-5.33,-5.56,-5.30,7.88,7.89,7.88
43.90,13.20,5.34,13.20,5.34,-5.34,-5.57,-5.30,7.86,7.86,7.86
44.33,13.19,5.36,13.19,5.35,-5.35,-5.59,-5.31,7.84,7.83,7.83
44.78,13.18,5.38,13.17,5.37,-5.37,-5.60,-5.31,7.81,7.80,7.80
45.23,13.16,5.38,13.16,5.39,-5.39,-5.62,-5.32,7.77,7.77,7.78
45.68,13.14,5.39,13.15,5.40,-5.40,-5.63,-5.34,7.74,7.74,7.75
46.13,13.13,5.42,13.14,5.43,-5.43,-5.65,-5.36,7.70,7.71,7.71
46.60,13.13,5.45,13.13,5.45,-5.45,-5.66,-5.38,7.68,7.68,7.68
47.06,13.13,5.48,13.11,5.47,-5.47,-5.68,-5.41,7.66,7.64,7.65
47.53,13.10,5.48,13.10,5.49,-5.49,-5.69,-5.44,7.61,7.61,7.62
48.01,13.08,5.51,13.09,5.52,-5.52,-5.71,-5.47,7.56,7.57,7.57
48.49,13.08,5.54,13.08,5.54,-5.54,-5.73,-5.51,7.54,7.54,7.54
48.97,13.08,5.58,13.07,5.57,-5.57,-5.74,-5.55,7.51,7.50,7.50
49.46,13.06,5.59,13.06,5.59,-5.59,-5.76,-5.60,7.47,7.47,7.47
49.96,13.04,5.62,13.05,5.62,-5.62,-5.77,-5.64,7.42,7.43,7.42
50.46,13.04,5.65,13.04,5.65,-5.65,-5.79,-5.69,7.39,7.39,7.39
50.96,13.04,5.69,13.03,5.67,-5.67,-5.81,-5.74,7.37,7.35,7.35
51.47,13.02,5.70,13.02,5.70,-5.70,-5.82,-5.80,7.32,7.32,7.32
51.99,13.00,5.72,13.00,5.72,-5.72,-5.84,-5.85,7.28,7.28,7.28
52.51,13.00,5.76,12.99,5.75,-5.75,-5.86,-5.91,7.25,7.24,7.24
53.03,13.00,5.78,12.98,5.78,-5.78,-5.88,-5.97,7.22,7.20,7.22
53.56,12.97,5.79,12.97,5.81,-5.81,-5.89,-6.03,7.16,7.17,7.18
54.10,12.95,5.82,12.96,5.83,-5.83,-5.91,-6.09,7.12,7.13,7.13
54.64,12.95,5.86,12.95,5.85,-5.85,-5.93,-6.14,7.10,7.10,7.09
55.18,12.94,5.89,12.94,5.88,-5.88,-5.95,-6.20,7.06,7.06,7.05
55.74,12.92,5.91,12.93,5.90,-5.90,-5.96,-6.26,7.02,7.03,7.01
56.29,12.91,5.93,12.92,5.93,-5.93,-5.98,-6.32,6.98,6.99,6.98
56.86,12.91,5.95,12.91,5.95,-5.95,-6.00,-6.37,6.96,6.96,6.96
57.42,12.91,6.00,12.91,5.98,-5.98,-6.02,-6.42,6.93,6.92,6.91
58.00,12.91,6.03,12.90,6.01,-6.01,-6.04,-6.47,6.90,6.89,6.88
58.58,12.89,6.03,12.89,6.04,-6.04,-6.05,-6.51,6.85,6.85,6.86
59.16,12.87,6.04,12.88,6.07,-6.07,-6.07,-6.55,6.80,6.81,6.83
59.76,12.87,6.07,12.87,6.10,-6.10,-6.09,-6.59,6.77,6.77,6.80
60.35,12.87,6.12,12.86,6.13,-6.13,-6.11,-6.62,6.74,6.73,6.75
60.96,12.86,6.16,12.85,6.16,-6.16,-6.13,-6.65,6.70,6.69,6.71
61.57,12.84,6.19,12.84,6.19,-6.19,-6.15,-6.67,6.65,6.65,6.65
62.18,12.82,6.22,12.83,6.22,-6.22,-6.17,-6.69,6.60,6.61,6.60
62.80,12.82,6.27,12.82,6.25,-6.25,-6.19,-6.70,6.57,6.57,6.55
63.43,12.80,6.29,12.81,6.28,-6.28,-6.21,-6.71,6.52,6.53,6.51
64.07,12.78,6.31,12.80,6.31,-6.31,-6.22,-6.71,6.47,6.49,6.47
64.71,12.78,6.34,12.79,6.34,-6.34,-6.24,-6.70,6.44,6.44,6.44
65.35,12.78,6.38,12.78,6.38,-6.38,-6.26,-6.70,6.40,6.40,6.40
66.01,12.78,6.42,12.77,6.41,-6.41,-6.28,-6.68,6.37,6.36,6.36
66.67,12.75,6.42,12.76,6.44,-6.44,-6.30,-6.66,6.31,6.32,6.33
67.33,12.74,6.46,12.74,6.46,-6.46,-6.32,-6.64,6.28,6.28,6.28
68.01,12.74,6.50,12.73,6.49,-6.49,-6.34,-6.62,6.25,6.24,6.24
68.69,12.74,6.54,12.72,6.52,-6.52,-6.36,-6.59,6.22,6.20,6.20
69.37,12.72,6.55,12.71,6.55,-6.55,-6.38,-6.56,6.17,6.16,6.17
70.07,12.69,6.56,12.70,6.58,-6.58,-6.40,-6.53,6.11,6.12,6.13
70.77,12.69,6.61,12.69,6.61,-6.61,-6.42,-6.50,6.08,6.08,6.08
71.48,12.67,6.63,12.67,6.64,-6.64,-6.44,-6.46,6.03,6.03,6.04
72.19,12.65,6.66,12.66,6.67,-6.67,-6.46,-6.43,5.98,5.99,5.99
72.91,12.65,6.70,12.65,6.70,-6.70,-6.48,-6.39,5.95,5.95,5.94
73.64,12.62,6.72,12.63,6.72,-6.72,-6.50,-6.36,5.90,5.91,5.90
74.38,12.61,6.75,12.62,6.75,-6.75,-6.52,-6.33,5.86,5.87,5.86
75.12,12.61,6.79,12.60,6.77,-6.77,-6.54,-6.30,5.84,5.83,5.82
75.87,12.60,6.81,12.59,6.80,-6.80,-6.56,-6.27,5.80,5.79,5.79
76.63,12.57,6.82,12.57,6.82,-6.82,-6.58,-6.24,5.75,5.75,5.75
77.40,12.56,6.84,12.56,6.84,-6.84,-6.60,-6.21,5.72,5.72,5.72
78.17,12.55,6.87,12.54,6.86,-6.86,-6.62,-6.19,5.69,5.68,5.68
78.95,12.52,6.87,12.53,6.88,-6.88,-6.64,-6.17,5.64,5.65,5.65
79.74,12.52,6.90,12.51,6.90,-6.90,-6.66,-6.16,5.62,5.61,5.62
80.54,12.50,6.92,12.50,6.92,-6.92,-6.68,-6.14,5.58,5.58,5.58
81.35,12.48,6.93,12.48,6.93,-6.93,-6.70,-6.13,5.55,5.55,5.55
82.16,12.47,6.95,12.47,6.95,-6.95,-6.72,-6.13,5.52,5.51,5.52
82.98,12.44,6.96,12.45,6.97,-6.97,-6.74,-6.13,5.47,5.48,5.48
83.81,12.44,6.99,12.43,6.99,-6.99,-6.76,-6.13,5.45,5.45,5.45
84.65,12.41,7.00,12.42,7.01,-7.01,-6.78,-6.14,5.40,5.41,5.41
85.50,12.40,7.03,12.40,7.03,-7.03,-6.80,-6.15,5.37,5.37,5.37
86.35,12.38,7.04,12.38,7.04,-7.04,-6.82,-6.17,5.34,5.34,5.34
87.22,12.37,7.06,12.37,7.06,-7.06,-6.84,-6.19,5.31,5.30,5.31
88.09,12.35,7.08,12.35,7.08,-7.08,-6.86,-6.22,5.27,5.27,5.27
88.97,12.35,7.12,12.33,7.10,-7.10,-6.88,-6.25,5.25,5.23,5.23
89.86,12.32,7.13,12.31,7.12,-7.12,-6.90,-6.28,5.20,5.19,5.19
90.76,12.30,7.14,12.30,7.14,-7.14,-6.91,-6.32,5.16,5.15,5.16
91.66,12.27,7.16,12.28,7.16,-7.16,-6.93,-6.37,5.11,5.12,5.11
92.58,12.25,7.17,12.26,7.18,-7.18,-6.95,-6.42,5.07,5.08,5.08
93.51,12.23,7.19,12.24,7.20,-7.20,-6.97,-6.47,5.03,5.04,5.04
94.44,12.22,7.21,12.22,7.22,-7.22,-6.99,-6.53,5.00,5.00,5.01
95.39,12.20,7.24,12.20,7.24,-7.24,-7.01,-6.59,4.96,4.96,4.96
96.34,12.18,7.26,12.18,7.26,-7.26,-7.02,-6.66,4.92,4.92,4.92
97.30,12.16,7.28,12.15,7.28,-7.28,-7.04,-6.73,4.88,4.88,4.88
98.28,12.13,7.30,12.13,7.29,-7.29,-7.06,-6.80,4.84,4.84,4.83
99.26,12.11,7.32,12.11,7.31,-7.31,-7.07,-6.88,4.80,4.80,4.79
100.25,12.09,7.34,12.09,7.33,-7.33,-7.09,-6.96,4.76,4.76,4.75
101.25,12.07,7.35,12.07,7.35,-7.35,-7.11,-7.04,4.72,4.72,4.72
102.27,12.04,7.36,12.05,7.36,-7.36,-7.12,-7.13,4.68,4.69,4.68
103.29,12.02,7.37,12.02,7.37,-7.37,-7.14,-7.22,4.65,4.65,4.65
104.32,12.00,7.38,12.00,7.39,-7.39,-7.16,-7.31,4.61,4.61,4.62
105.37,11.98,7.40,11.98,7.40,-7.40,-7.17,-7.40,4.58,4.58,4.58
106.42,11.95,7.40,11.95,7.41,-7.41,-7.19,-7.49,4.54,4.54,4.55
107.48,11.93,7.43,11.93,7.42,-7.42,-7.20,-7.58,4.51,4.51,4.50
108.56,11.91,7.43,11.90,7.43,-7.43,-7.22,-7.67,4.48,4.47,4.48
109.64,11.88,7.44,11.88,7.44,-7.44,-7.23,-7.76,4.44,4.44,4.44
110.74,11.85,7.45,11.85,7.45,-7.45,-7.24,-7.85,4.40,4.40,4.40
111.85,11.83,7.47,11.83,7.47,-7.47,-7.26,-7.94,4.36,4.36,4.36
112.97,11.79,7.46,11.80,7.48,-7.48,-7.27,-8.02,4.31,4.32,4.33
114.10,11.78,7.49,11.78,7.49,-7.49,-7.28,-8.10,4.29,4.28,4.29
115.24,11.74,7.50,11.75,7.50,-7.50,-7.30,-8.17,4.24,4.25,4.24
116.39,11.71,7.51,11.72,7.51,-7.51,-7.31,-8.24,4.20,4.21,4.20
117.55,11.69,7.53,11.69,7.52,-7.52,-7.32,-8.30,4.17,4.17,4.16
118.73,11.67,7.55,11.66,7.53,-7.53,-7.33,-8.35,4.14,4.13,4.12
119.92,11.65,7.57,11.64,7.54,-7.54,-7.34,-8.40,4.11,4.09,4.08
121.12,11.61,7.55,11.61,7.55,-7.55,-7.35,-8.44,4.06,4.05,4.06
122.33,11.58,7.56,11.58,7.56,-7.56,-7.36,-8.47,4.02,4.02,4.02
123.55,11.55,7.57,11.55,7.57,-7.57,-7.37,-8.49,3.98,3.98,3.98
124.79,11.52,7.57,11.52,7.58,-7.58,-7.38,-8.50,3.94,3.94,3.95
126.03,11.48,7.57,11.49,7.59,-7.59,-7.39,-8.50,3.89,3.90,3.91
127.29,11.45,7.58,11.46,7.60,-7.60,-7.40,-8.49,3.85,3.86,3.87
128.57,11.43,7.60,11.43,7.60,-7.60,-7.41,-8.47,3.83,3.83,3.83
129.85,11.40,7.61,11.40,7.61,-7.61,-7.41,-8.45,3.79,3.79,3.79
131.15,11.37,7.62,11.36,7.61,-7.61,-7.42,-8.41,3.76,3.75,3.75
132.46,11.33,7.62,11.33,7.62,-7.62,-7.43,-8.37,3.71,3.71,3.71
133.79,11.29,7.62,11.30,7.62,-7.62,-7.43,-8.32,3.67,3.68,3.67
135.12,11.28,7.64,11.27,7.63,-7.63,-7.44,-8.27,3.65,3.64,3.64
136.48,11.24,7.63,11.24,7.63,-7.63,-7.44,-8.20,3.61,3.61,3.61
137.84,11.21,7.64,11.21,7.63,-7.63,-7.45,-8.14,3.58,3.57,3.57
139.22,11.17,7.64,11.17,7.63,-7.63,-7.45,-8.06,3.54,3.54,3.53
140.61,11.14,7.63,11.14,7.63,-7.63,-7.45,-7.99,3.51,3.51,3.51
142.02,11.10,7.63,11.10,7.63,-7.63,-7.45,-7.91,3.47,3.48,3.47
143.44,11.06,7.62,11.07,7.62,-7.62,-7.46,-7.83,3.44,3.45,3.44
144.87,11.04,7.62,11.03,7.62,-7.62,-7.46,-7.75,3.42,3.42,3.42
146.32,11.01,7.62,11.00,7.61,-7.61,-7.46,-7.67,3.40,3.39,3.39
147.78,10.97,7.61,10.96,7.60,-7.60,-7.46,-7.59,3.37,3.36,3.36
149.26,10.92,7.59,10.93,7.59,-7.59,-7.46,-7.50,3.33,3.33,3.33
150.75,10.89,7.59,10.89,7.59,-7.59,-7.45,-7.42,3.30,3.30,3.30
152.26,10.85,7.57,10.85,7.58,-7.58,-7.45,-7.35,3.27,3.27,3.28
153.78,10.81,7.57,10.81,7.57,-7.57,-7.45,-7.27,3.24,3.24,3.24
155.32,10.78,7.56,10.78,7.56,-7.56,-7.45,-7.20,3.22,3.21,3.22
156.88,10.73,7.55,10.74,7.55,-7.55,-7.44,-7.13,3.18,3.18,3.18
158.44,10.70,7.55,10.70,7.55,-7.55,-7.44,-7.06,3.15,3.15,3.15
160.03,10.66,7.54,10.66,7.54,-7.54,-7.43,-7.00,3.12,3.12,3.12
161.63,10.62,7.53,10.62,7.53,-7.53,-7.42,-6.94,3.09,3.08,3.09
163.24,10.57,7.52,10.58,7.53,-7.53,-7.42,-6.88,3.04,3.05,3.05
164.88,10.54,7.52,10.54,7.52,-7.52,-7.41,-6.83,3.02,3.02,3.02
166.53,10.50,7.52,10.50,7.52,-7.52,-7.40,-6.78,2.98,2.98,2.98
168.19,10.46,7.51,10.46,7.51,-7.51,-7.39,-6.74,2.95,2.95,2.95
169.87,10.41,7.50,10.42,7.50,-7.50,-7.38,-6.71,2.91,2.91,2.91
171.57,10.38,7.51,10.37,7.50,-7.50,-7.37,-6.67,2.88,2.88,2.87
173.29,10.33,7.49,10.33,7.49,-7.49,-7.36,-6.65,2.84,2.84,2.84
175.02,10.29,7.49,10.29,7.48,-7.48,-7.35,-6.63,2.81,2.80,2.80
176.77,10.25,7.48,10.24,7.48,-7.48,-7.33,-6.61,2.77,2.77,2.77
178.54,10.19,7.45,10.20,7.47,-7.47,-7.32,-6.60,2.72,2.73,2.74
180.32,10.15,7.46,10.15,7.46,-7.46,-7.30,-6.59,2.69,2.70,2.69
182.13,10.10,7.44,10.11,7.45,-7.45,-7.29,-6.59,2.65,2.66,2.66
183.95,10.06,7.43,10.06,7.44,-7.44,-7.27,-6.59,2.62,2.62,2.63
185.79,10.02,7.43,10.01,7.42,-7.42,-7.25,-6.60,2.60,2.59,2.59
187.65,9.97,7.41,9.96,7.41,-7.41,-7.24,-6.61,2.56,2.55,2.56
189.52,9.91,7.39,9.91,7.40,-7.40,-7.22,-6.62,2.51,2.52,2.52
191.42,9.87,7.38,9.86,7.38,-7.38,-7.20,-6.65,2.49,2.48,2.49
193.33,9.82,7.37,9.81,7.37,-7.37,-7.18,-6.67,2.45,2.45,2.45
195.27,9.76,7.35,9.76,7.35,-7.35,-7.15,-6.70,2.41,2.41,2.41
197.22,9.70,7.33,9.71,7.33,-7.33,-7.13,-6.73,2.37,2.38,2.37
199.19,9.66,7.31,9.66,7.31,-7.31,-7.11,-6.77,2.35,2.35,2.35
201.18,9.62,7.31,9.61,7.29,-7.29,-7.08,-6.81,2.33,2.32,2.31
203.19,9.56,7.28,9.56,7.27,-7.27,-7.06,-6.85,2.29,2.29,2.28
205.23,9.50,7.24,9.51,7.25,-7.25,-7.03,-6.90,2.25,2.26,2.26
207.28,9.45,7.22,9.46,7.23,-7.23,-7.01,-6.94,2.22,2.23,2.23
209.35,9.40,7.20,9.40,7.20,-7.20,-6.98,-6.99,2.20,2.20,2.20
211.44,9.35,7.17,9.35,7.18,-7.18,-6.95,-7.04,2.17,2.18,2.18
213.56,9.30,7.15,9.30,7.15,-7.15,-6.92,-7.09,2.15,2.15,2.15
215.69,9.26,7.13,9.24,7.12,-7.12,-6.89,-7.14,2.14,2.13,2.13
217.85,9.19,7.08,9.19,7.08,-7.08,-6.86,-7.19,2.11,2.10,2.11
220.03,9.13,7.05,9.13,7.05,-7.05,-6.82,-7.24,2.08,2.08,2.08
222.23,9.07,7.01,9.07,7.01,-7.01,-6.79,-7.29,2.06,2.06,2.06
224.45,9.01,6.98,9.01,6.97,-6.97,-6.76,-7.33,2.04,2.04,2.03
226.70,8.96,6.95,8.95,6.93,-6.93,-6.72,-7.37,2.03,2.02,2.01
228.96,8.88,6.88,8.88,6.89,-6.89,-6.69,-7.40,1.99,2.00,2.00
231.25,8.83,6.85,8.82,6.84,-6.84,-6.65,-7.44,1.99,1.98,1.98
233.57,8.77,6.81,8.75,6.79,-6.79,-6.61,-7.46,1.98,1.96,1.96
235.90,8.68,6.74,8.69,6.74,-6.74,-6.57,-7.48,1.94,1.95,1.94
238.26,8.63,6.70,8.62,6.69,-6.69,-6.53,-7.49,1.94,1.93,1.93
240.64,8.56,6.63,8.56,6.64,-6.64,-6.49,-7.49,1.92,1.92,1.93
243.05,8.50,6.59,8.50,6.60,-6.60,-6.45,-7.49,1.90,1.91,1.91
245.48,8.44,6.55,8.45,6.55,-6.55,-6.41,-7.48,1.89,1.89,1.89
247.93,8.38,6.51,8.40,6.51,-6.51,-6.36,-7.46,1.87,1.88,1.87
250.41,8.32,6.44,8.35,6.48,-6.48,-6.32,-7.43,1.84,1.87,1.88
252.92,8.28,6.41,8.31,6.44,-6.44,-6.27,-7.39,1.84,1.86,1.87
255.45,8.24,6.39,8.27,6.41,-6.41,-6.23,-7.34,1.83,1.85,1.85
258.00,8.22,6.38,8.23,6.39,-6.39,-6.18,-7.28,1.83,1.84,1.84
260.58,8.20,6.36,8.20,6.36,-6.36,-6.13,-7.21,1.84,1.84,1.84
263.19,8.18,6.35,8.17,6.34,-6.34,-6.08,-7.14,1.84,1.83,1.83
265.82,8.15,6.32,8.14,6.32,-6.32,-6.03,-7.06,1.83,1.82,1.83
268.48,8.11,6.29,8.11,6.30,-6.30,-5.98,-6.97,1.81,1.82,1.82
271.16,8.10,6.28,8.08,6.27,-6.27,-5.93,-6.87,1.83,1.81,1.82
273.87,8.06,6.25,8.05,6.24,-6.24,-5.88,-6.77,1.82,1.81,1.81
276.61,8.03,6.23,8.02,6.21,-6.21,-5.82,-6.67,1.82,1.81,1.80
279.38,8.00,6.21,7.98,6.17,-6.17,-5.77,-6.55,1.83,1.80,1.79
282.17,7.95,6.15,7.93,6.13,-6.13,-5.71,-6.44,1.82,1.80,1.80
284.99,7.89,6.09,7.88,6.08,-6.08,-5.66,-6.32,1.81,1.80,1.80
287.84,7.83,6.02,7.83,6.03,-6.03,-5.60,-6.20,1.80,1.80,1.81
290.72,7.78,5.99,7.77,5.97,-5.97,-5.54,-6.08,1.81,1.80,1.79
293.63,7.71,5.91,7.70,5.91,-5.91,-5.48,-5.95,1.80,1.80,1.80
296.57,7.63,5.83,7.64,5.84,-5.84,-5.42,-5.83,1.79,1.80,1.80
299.53,7.56,5.76,7.57,5.77,-5.77,-5.36,-5.70,1.79,1.80,1.80
302.53,7.49,5.68,7.50,5.70,-5.70,-5.30,-5.57,1.79,1.80,1.81
305.55,7.43,5.63,7.43,5.63,-5.63,-5.24,-5.45,1.80,1.80,1.80
308.61,7.36,5.55,7.36,5.56,-5.56,-5.18,-5.32,1.80,1.81,1.81
311.69,7.29,5.48,7.29,5.48,-5.48,-5.11,-5.20,1.81,1.81,1.81
314.81,7.22,5.41,7.22,5.41,-5.41,-5.05,-5.08,1.81,1.81,1.81
317.96,7.14,5.33,7.15,5.34,-5.34,-4.98,-4.96,1.80,1.81,1.81
321.14,7.08,5.26,7.08,5.27,-5.27,-4.92,-4.84,1.81,1.82,1.82
324.35,7.02,5.20,7.01,5.19,-5.19,-4.85,-4.73,1.83,1.82,1.82
327.59,6.95,5.12,6.95,5.12,-5.12,-4.78,-4.62,1.83,1.82,1.83
330.87,6.88,5.05,6.88,5.05,-5.05,-4.72,-4.51,1.83,1.83,1.83
334.18,6.81,4.98,6.81,4.97,-4.97,-4.65,-4.40,1.84,1.83,1.83
337.52,6.73,4.89,6.74,4.90,-4.90,-4.58,-4.29,1.83,1.84,1.84
340.90,6.66,4.82,6.67,4.82,-4.82,-4.51,-4.19,1.84,1.84,1.84
344.30,6.60,4.75,6.60,4.75,-4.75,-4.44,-4.09,1.85,1.85,1.85
347.75,6.53,4.67,6.52,4.67,-4.67,-4.37,-4.00,1.86,1.86,1.86
351.23,6.46,4.60,6.45,4.59,-4.59,-4.30,-3.91,1.87,1.86,1.86
354.74,6.39,4.51,6.38,4.51,-4.51,-4.23,-3.82,1.88,1.87,1.88
358.28,6.31,4.44,6.31,4.43,-4.43,-4.15,-3.73,1.88,1.88,1.87
361.87,6.24,4.36,6.24,4.36,-4.36,-4.08,-3.64,1.88,1.88,1.88
365.49,6.16,4.27,6.17,4.28,-4.28,-4.01,-3.56,1.88,1.89,1.89
369.14,6.09,4.19,6.09,4.20,-4.20,-3.93,-3.48,1.89,1.90,1.90
372.83,6.02,4.11,6.02,4.12,-4.12,-3.86,-3.41,1.90,1.90,1.91
376.56,5.94,4.03,5.95,4.04,-4.04,-3.78,-3.34,1.90,1.91,1.91
380.33,5.87,3.96,5.88,3.96,-3.96,-3.71,-3.26,1.91,1.92,1.91
384.13,5.81,3.89,5.81,3.88,-3.88,-3.63,-3.20,1.93,1.92,1.92
387.97,5.75,3.82,5.73,3.80,-3.80,-3.55,-3.13,1.95,1.93,1.93
391.85,5.66,3.72,5.66,3.73,-3.73,-3.48,-3.07,1.93,1.94,1.94
395.77,5.59,3.65,5.59,3.65,-3.65,-3.40,-3.01,1.94,1.94,1.94
399.73,5.52,3.57,5.52,3.57,-3.57,-3.32,-2.95,1.95,1.95,1.95
403.72,5.44,3.47,5.44,3.49,-3.49,-3.24,-2.89,1.95,1.96,1.97
407.76,5.37,3.40,5.37,3.41,-3.41,-3.17,-2.83,1.96,1.97,1.97
411.84,5.31,3.34,5.30,3.32,-3.32,-3.09,-2.78,1.99,1.97,1.97
415.96,5.22,3.24,5.22,3.24,-3.24,-3.01,-2.73,1.98,1.98,1.98
420.12,5.14,3.16,5.15,3.16,-3.16,-2.93,-2.68,1.98,1.99,1.98
424.32,5.08,3.09,5.07,3.08,-3.08,-2.85,-2.63,2.00,2.00,1.99
428.56,5.00,2.99,5.00,2.99,-2.99,-2.77,-2.58,2.01,2.00,2.01
432.85,4.92,2.90,4.92,2.91,-2.91,-2.69,-2.53,2.01,2.01,2.02
437.18,4.84,2.82,4.85,2.83,-2.83,-2.61,-2.48,2.01,2.02,2.02
441.55,4.77,2.74,4.77,2.74,-2.74,-2.53,-2.43,2.03,2.03,2.03
445.96,4.70,2.66,4.70,2.66,-2.66,-2.45,-2.39,2.04,2.04,2.04
450.42,4.62,2.57,4.62,2.57,-2.57,-2.37,-2.34,2.05,2.05,2.05
454.93,4.54,2.48,4.55,2.49,-2.49,-2.29,-2.29,2.05,2.06,2.06
459.48,4.48,2.41,4.47,2.40,-2.40,-2.21,-2.24,2.08,2.07,2.07
464.07,4.40,2.32,4.40,2.32,-2.32,-2.13,-2.20,2.08,2.08,2.08
468.71,4.32,2.23,4.32,2.23,-2.23,-2.05,-2.15,2.09,2.09,2.09
473.40,4.26,2.16,4.25,2.15,-2.15,-1.97,-2.10,2.11,2.10,2.10
478.13,4.17,2.06,4.17,2.06,-2.06,-1.89,-2.05,2.11,2.11,2.11
482.91,4.10,1.98,4.10,1.97,-1.97,-1.80,-2.00,2.13,2.12,2.12
487.74,4.02,1.89,4.02,1.89,-1.89,-1.72,-1.94,2.13,2.13,2.13
492.62,3.93,1.79,3.94,1.80,-1.80,-1.64,-1.89,2.13,2.14,2.14
497.55,3.87,1.72,3.87,1.71,-1.71,-1.56,-1.83,2.16,2.16,2.15
502.52,3.80,1.64,3.79,1.62,-1.62,-1.48,-1.77,2.18,2.17,2.16
507.55,3.71,1.53,3.71,1.54,-1.54,-1.40,-1.71,2.17,2.18,2.18
