frequency,raw,error,smoothed,error_smoothed,equalization,parametric_eq,fixed_band_eq,equalized_raw,equalized_smoothed,target
20.00,12.99,2.91,13.05,2.96,-2.96,-3.00,-1.46,10.03,10.08,10.08
20.20,13.04,2.97,13.07,3.00,-3.00,-3.01,-1.51,10.05,10.08,10.07
20.40,13.08,3.01,13.10,3.03,-3.03,-3.02,-1.55,10.06,10.07,10.07
20.61,13.13,3.06,13.12,3.05,-3.05,-3.03,-1.59,10.08,10.07,10.07
20.81,13.18,3.13,13.14,3.08,-3.08,-3.04,-1.64,10.10,10.06,10.05
21.02,13.22,3.17,13.16,3.10,-3.10,-3.05,-1.69,10.12,10.06,10.05
21.23,13.22,3.17,13.18,3.12,-3.12,-3.06,-1.73,10.10,10.06,10.05
21.44,13.22,3.16,13.19,3.14,-3.14,-3.07,-1.78,10.08,10.06,10.06
21.66,13.22,3.17,13.21,3.15,-3.15,-3.08,-1.84,10.07,10.06,10.05
21.87,13.22,3.16,13.22,3.16,-3.16,-3.08,-1.89,10.06,10.05,10.06
22.09,13.22,3.17,13.23,3.17,-3.17,-3.09,-1.94,10.05,10.05,10.05
22.31,13.22,3.16,13.24,3.18,-3.18,-3.10,-2.00,10.04,10.05,10.06
22.54,13.22,3.17,13.23,3.18,-3.18,-3.11,-2.05,10.05,10.06,10.05
22.76,13.22,3.16,13.23,3.17,-3.17,-3.12,-2.11,10.05,10.06,10.06
22.99,13.22,3.16,13.22,3.16,-3.16,-3.13,-2.17,10.06,10.06,10.06
23.22,13.22,3.16,13.21,3.15,-3.15,-3.14,-2.23,10.08,10.06,10.06
23.45,13.22,3.15,13.21,3.14,-3.14,-3.15,-2.30,10.08,10.07,10.07
23.69,13.22,3.15,13.21,3.14,-3.14,-3.16,-2.36,10.08,10.07,10.07
23.92,13.22,3.16,13.22,3.15,-3.15,-3.17,-2.43,10.07,10.07,10.07
24.16,13.22,3.15,13.23,3.16,-3.16,-3.18,-2.49,10.07,10.08,10.08
24.40,13.22,3.14,13.25,3.17,-3.17,-3.19,-2.56,10.05,10.08,10.09
24.65,13.22,3.14,13.27,3.18,-3.18,-3.20,-2.63,10.04,10.08,10.08
24.89,13.22,3.14,13.29,3.20,-3.20,-3.21,-2.70,10.02,10.08,10.08
25.14,13.25,3.17,13.31,3.22,-3.22,-3.21,-2.77,10.03,10.09,10.08
25.39,13.31,3.22,13.33,3.24,-3.24,-3.22,-2.84,10.07,10.09,10.09
25.65,13.37,3.28,13.35,3.26,-3.26,-3.23,-2.91,10.11,10.09,10.09
25.91,13.43,3.35,13.37,3.28,-3.28,-3.24,-2.98,10.15,10.09,10.08
26.16,13.45,3.36,13.39,3.31,-3.31,-3.25,-3.05,10.15,10.09,10.09
26.43,13.45,3.36,13.41,3.33,-3.33,-3.26,-3.12,10.13,10.09,10.09
26.69,13.45,3.36,13.43,3.34,-3.34,-3.27,-3.19,10.11,10.09,10.09
26.96,13.45,3.38,13.44,3.36,-3.36,-3.28,-3.26,10.09,10.08,10.08
27.23,13.45,3.38,13.46,3.37,-3.37,-3.29,-3.33,10.08,10.08,10.08
27.50,13.45,3.38,13.46,3.38,-3.38,-3.30,-3.40,10.07,10.08,10.07
27.77,13.45,3.37,13.47,3.39,-3.39,-3.31,-3.46,10.06,10.08,10.08
28.05,13.45,3.38,13.47,3.39,-3.39,-3.32,-3.52,10.06,10.07,10.07
28.33,13.45,3.38,13.46,3.39,-3.39,-3.33,-3.58,10.06,10.07,10.07
28.62,13.45,3.39,13.46,3.39,-3.39,-3.34,-3.64,10.06,10.07,10.06
28.90,13.45,3.38,13.45,3.39,-3.39,-3.35,-3.70,10.06,10.06,10.07
29.19,13.45,3.40,13.45,3.40,-3.40,-3.36,-3.75,10.05,10.05,10.06
29.48,13.45,3.41,13.45,3.41,-3.41,-3.37,-3.80,10.05,10.05,10.05
29.78,13.45,3.41,13.45,3.41,-3.41,-3.38,-3.84,10.04,10.04,10.04
30.08,13.45,3.41,13.45,3.42,-3.42,-3.39,-3.88,10.03,10.03,10.04
30.38,13.45,3.43,13.45,3.43,-3.43,-3.40,-3.92,10.02,10.02,10.02
30.68,13.45,3.43,13.45,3.44,-3.44,-3.41,-3.95,10.02,10.02,10.02
30.99,13.45,3.45,13.45,3.45,-3.45,-3.43,-3.97,10.01,10.01,10.01
31.30,13.45,3.46,13.45,3.45,-3.45,-3.44,-4.00,10.00,10.00,10.00
31.61,13.45,3.46,13.45,3.46,-3.46,-3.45,-4.01,9.99,9.99,9.99
31.93,13.45,3.48,13.45,3.47,-3.47,-3.46,-4.03,9.99,9.99,9.97
32.24,13.45,3.47,13.45,3.47,-3.47,-3.47,-4.04,9.98,9.98,9.98
32.57,13.45,3.49,13.45,3.48,-3.48,-3.48,-4.04,9.97,9.97,9.97
32.89,13.45,3.49,13.45,3.48,-3.48,-3.49,-4.04,9.97,9.97,9.96
33.22,13.45,3.49,13.45,3.48,-3.48,-3.50,-4.04,9.97,9.97,9.96
33.55,13.45,3.49,13.46,3.49,-3.49,-3.51,-4.03,9.96,9.97,9.96
33.89,13.45,3.49,13.46,3.50,-3.50,-3.53,-4.02,9.95,9.96,9.97
34.23,13.45,3.50,13.47,3.51,-3.51,-3.54,-4.01,9.94,9.96,9.95
34.57,13.45,3.49,13.47,3.51,-3.51,-3.55,-3.99,9.94,9.96,9.96
34.92,13.45,3.49,13.46,3.51,-3.51,-3.56,-3.98,9.94,9.95,9.96
35.27,13.45,3.49,13.45,3.50,-3.50,-3.57,-3.96,9.95,9.95,9.97
35.62,13.45,3.51,13.44,3.49,-3.49,-3.58,-3.94,9.96,9.95,9.94
35.97,13.45,3.51,13.42,3.49,-3.49,-3.60,-3.92,9.96,9.94,9.94
36.33,13.45,3.52,13.41,3.48,-3.48,-3.61,-3.89,9.97,9.93,9.94
36.70,13.45,3.54,13.39,3.47,-3.47,-3.62,-3.87,9.98,9.91,9.91
37.06,13.44,3.54,13.36,3.47,-3.47,-3.63,-3.85,9.98,9.90,9.90
37.43,13.35,3.47,13.34,3.46,-3.46,-3.64,-3.82,9.89,9.88,9.88
37.81,13.26,3.40,13.32,3.46,-3.46,-3.66,-3.80,9.80,9.86,9.86
38.19,13.22,3.38,13.30,3.46,-3.46,-3.67,-3.78,9.76,9.84,9.85
38.57,13.22,3.40,13.28,3.46,-3.46,-3.68,-3.76,9.76,9.81,9.82
38.95,13.22,3.42,13.26,3.47,-3.47,-3.69,-3.74,9.75,9.79,9.80
39.34,13.22,3.47,13.24,3.48,-3.48,-3.71,-3.73,9.74,9.76,9.75
39.74,13.22,3.49,13.23,3.49,-3.49,-3.72,-3.71,9.73,9.74,9.73
40.14,13.22,3.52,13.21,3.50,-3.50,-3.73,-3.70,9.72,9.71,9.70
40.54,13.22,3.54,13.21,3.53,-3.53,-3.74,-3.69,9.70,9.68,9.68
40.94,13.22,3.58,13.20,3.55,-3.55,-3.76,-3.68,9.67,9.66,9.64
41.35,13.22,3.60,13.21,3.58,-3.58,-3.77,-3.67,9.65,9.63,9.63
41.76,13.22,3.62,13.21,3.61,-3.61,-3.78,-3.67,9.61,9.61,9.60
42.18,13.22,3.64,13.22,3.64,-3.64,-3.80,-3.66,9.58,9.58,9.59
42.60,13.22,3.66,13.23,3.67,-3.67,-3.81,-3.66,9.55,9.56,9.56
43.03,13.22,3.69,13.24,3.70,-3.70,-3.82,-3.67,9.52,9.53,9.53
43.46,13.22,3.72,13.24,3.73,-3.73,-3.84,-3.68,9.49,9.51,9.51
43.90,13.22,3.73,13.24,3.75,-3.75,-3.85,-3.68,9.47,9.49,9.49
44.33,13.22,3.76,13.23,3.77,-3.77,-3.86,-3.70,9.45,9.46,9.46
44.78,13.22,3.79,13.22,3.78,-3.78,-3.88,-3.71,9.44,9.44,9.43
45.23,13.22,3.80,13.21,3.80,-3.80,-3.89,-3.73,9.43,9.41,9.43
45.68,13.22,3.83,13.19,3.81,-3.81,-3.91,-3.75,9.42,9.38,9.39
46.13,13.22,3.87,13.17,3.82,-3.82,-3.92,-3.77,9.40,9.35,9.35
46.60,13.22,3.90,13.15,3.83,-3.83,-3.93,-3.80,9.39,9.32,9.32
47.06,13.21,3.91,13.13,3.84,-3.84,-3.95,-3.83,9.37,9.29,9.30
47.53,13.10,3.83,13.11,3.85,-3.85,-3.96,-3.86,9.25,9.26,9.27
48.01,12.99,3.77,13.09,3.87,-3.87,-3.98,-3.89,9.13,9.22,9.22
48.49,12.99,3.80,13.08,3.88,-3.88,-3.99,-3.93,9.11,9.19,9.19
48.97,12.99,3.84,13.06,3.90,-3.90,-4.00,-3.97,9.09,9.16,9.15
49.46,12.99,3.87,13.04,3.92,-3.92,-4.02,-4.01,9.08,9.12,9.12
49.96,12.99,3.92,13.01,3.93,-3.93,-4.03,-4.05,9.06,9.09,9.07
50.46,12.99,3.96,12.99,3.94,-3.94,-4.05,-4.09,9.05,9.05,9.04
50.96,12.99,3.98,12.97,3.96,-3.96,-4.06,-4.14,9.04,9.01,9.01
51.47,12.99,4.01,12.94,3.97,-3.97,-4.08,-4.19,9.02,8.97,8.98
51.99,12.99,4.05,12.92,3.99,-3.99,-4.09,-4.23,9.00,8.94,8.94
52.51,12.99,4.09,12.91,4.01,-4.01,-4.11,-4.28,8.98,8.90,8.91
53.03,12.98,4.10,12.90,4.04,-4.04,-4.12,-4.33,8.94,8.86,8.88
53.56,12.87,4.05,12.88,4.06,-4.06,-4.13,-4.38,8.81,8.82,8.83
54.10,12.77,3.99,12.86,4.07,-4.07,-4.15,-4.43,8.70,8.79,8.78
54.64,12.77,4.03,12.84,4.09,-4.09,-4.16,-4.48,8.68,8.75,8.75
55.18,12.77,4.07,12.82,4.10,-4.10,-4.18,-4.53,8.67,8.71,8.70
55.74,12.77,4.11,12.80,4.12,-4.12,-4.19,-4.57,8.65,8.68,8.66
56.29,12.77,4.15,12.78,4.14,-4.14,-4.21,-4.62,8.63,8.65,8.63
56.86,12.77,4.16,12.77,4.16,-4.16,-4.22,-4.66,8.61,8.61,8.61
57.42,12.77,4.21,12.76,4.19,-4.19,-4.24,-4.70,8.58,8.57,8.56
58.00,12.77,4.24,12.76,4.22,-4.22,-4.25,-4.74,8.55,8.54,8.53
58.58,12.77,4.26,12.76,4.26,-4.26,-4.27,-4.77,8.52,8.50,8.51
59.16,12.77,4.28,12.76,4.30,-4.30,-4.28,-4.81,8.48,8.46,8.49
59.76,12.77,4.32,12.77,4.35,-4.35,-4.30,-4.83,8.42,8.42,8.45
60.35,12.77,4.37,12.79,4.40,-4.40,-4.31,-4.86,8.37,8.39,8.40
60.96,12.77,4.42,12.79,4.44,-4.44,-4.33,-4.87,8.33,8.35,8.36
61.57,12.77,4.47,12.79,4.48,-4.48,-4.34,-4.89,8.29,8.31,8.30
62.18,12.77,4.52,12.78,4.52,-4.52,-4.35,-4.90,8.25,8.26,8.25
62.80,12.77,4.57,12.77,4.55,-4.55,-4.37,-4.90,8.22,8.22,8.21
63.43,12.77,4.61,12.76,4.58,-4.58,-4.38,-4.91,8.19,8.17,8.16
64.07,12.77,4.65,12.74,4.61,-4.61,-4.40,-4.90,8.16,8.13,8.12
64.71,12.77,4.68,12.72,4.64,-4.64,-4.41,-4.89,8.14,8.08,8.09
65.35,12.77,4.73,12.71,4.67,-4.67,-4.43,-4.88,8.10,8.04,8.04
66.01,12.77,4.78,12.69,4.70,-4.70,-4.44,-4.87,8.07,7.99,7.99
66.67,12.62,4.67,12.67,4.72,-4.72,-4.45,-4.85,7.90,7.95,7.95
67.33,12.54,4.64,12.64,4.74,-4.74,-4.47,-4.82,7.80,7.90,7.90
68.01,12.54,4.68,12.61,4.76,-4.76,-4.48,-4.80,7.79,7.86,7.86
68.69,12.54,4.73,12.59,4.77,-4.77,-4.49,-4.77,7.77,7.81,7.81
69.37,12.54,4.76,12.56,4.79,-4.79,-4.51,-4.74,7.75,7.77,7.78
70.07,12.54,4.82,12.53,4.81,-4.81,-4.52,-4.70,7.73,7.72,7.73
70.77,12.54,4.86,12.49,4.82,-4.82,-4.53,-4.67,7.72,7.67,7.68
71.48,12.54,4.91,12.46,4.83,-4.83,-4.55,-4.63,7.71,7.63,7.63
72.19,12.49,4.91,12.42,4.84,-4.84,-4.56,-4.59,7.65,7.58,7.58
72.91,12.33,4.80,12.38,4.84,-4.84,-4.57,-4.56,7.49,7.54,7.54
73.64,12.31,4.83,12.35,4.85,-4.85,-4.59,-4.52,7.46,7.50,7.48
74.38,12.31,4.87,12.32,4.87,-4.87,-4.60,-4.48,7.44,7.46,7.44
75.12,12.31,4.91,12.30,4.88,-4.88,-4.61,-4.45,7.43,7.42,7.40
75.87,12.31,4.93,12.26,4.88,-4.88,-4.62,-4.41,7.43,7.38,7.38
76.63,12.20,4.86,12.22,4.87,-4.87,-4.64,-4.38,7.33,7.35,7.34
77.40,12.11,4.80,12.18,4.87,-4.87,-4.65,-4.35,7.24,7.31,7.31
78.17,12.08,4.80,12.14,4.86,-4.86,-4.66,-4.32,7.22,7.28,7.28
78.95,12.08,4.83,12.11,4.86,-4.86,-4.67,-4.29,7.23,7.25,7.25
79.74,12.08,4.86,12.08,4.86,-4.86,-4.68,-4.26,7.22,7.22,7.22
80.54,12.08,4.89,12.06,4.87,-4.87,-4.69,-4.24,7.22,7.19,7.20
81.35,12.08,4.92,12.03,4.87,-4.87,-4.70,-4.22,7.21,7.16,7.16
82.16,12.06,4.92,11.99,4.87,-4.87,-4.71,-4.20,7.20,7.13,7.14
82.98,11.98,4.88,11.96,4.86,-4.86,-4.72,-4.18,7.12,7.09,7.11
83.81,11.87,4.80,11.92,4.86,-4.86,-4.73,-4.17,7.01,7.06,7.07
84.65,11.85,4.82,11.90,4.87,-4.87,-4.74,-4.16,6.98,7.02,7.03
85.50,11.85,4.87,11.87,4.88,-4.88,-4.75,-4.15,6.97,6.99,6.98
86.35,11.85,4.90,11.84,4.89,-4.89,-4.76,-4.15,6.96,6.95,6.95
87.22,11.84,4.93,11.80,4.89,-4.89,-4.77,-4.15,6.96,6.91,6.91
88.09,11.79,4.93,11.75,4.88,-4.88,-4.78,-4.15,6.91,6.87,6.87
88.97,11.64,4.82,11.72,4.89,-4.89,-4.79,-4.15,6.75,6.83,6.82
89.86,11.63,4.85,11.68,4.89,-4.89,-4.79,-4.16,6.74,6.79,6.78
90.76,11.63,4.89,11.64,4.90,-4.90,-4.80,-4.17,6.74,6.74,6.74
91.66,11.63,4.94,11.60,4.90,-4.90,-4.81,-4.19,6.73,6.70,6.69
92.58,11.63,4.97,11.56,4.90,-4.90,-4.82,-4.21,6.73,6.65,6.66
93.51,11.53,4.92,11.52,4.91,-4.91,-4.82,-4.23,6.62,6.61,6.62
94.44,11.42,4.84,11.48,4.91,-4.91,-4.83,-4.25,6.51,6.56,6.58
95.39,11.40,4.88,11.44,4.92,-4.92,-4.83,-4.28,6.48,6.52,6.52
96.34,11.40,4.93,11.39,4.92,-4.92,-4.84,-4.31,6.48,6.47,6.47
97.30,11.40,4.97,11.35,4.92,-4.92,-4.84,-4.34,6.48,6.43,6.43
98.28,11.35,4.98,11.32,4.93,-4.93,-4.85,-4.38,6.42,6.38,6.37
99.26,11.20,4.87,11.29,4.94,-4.94,-4.85,-4.41,6.26,6.34,6.33
100.25,11.17,4.88,11.24,4.94,-4.94,-4.86,-4.45,6.23,6.30,6.29
101.25,11.17,4.92,11.19,4.93,-4.93,-4.86,-4.49,6.24,6.26,6.25
102.27,11.17,4.96,11.14,4.93,-4.93,-4.86,-4.54,6.25,6.22,6.21
103.29,11.17,5.00,11.11,4.93,-4.93,-4.86,-4.58,6.25,6.18,6.18
104.32,11.12,4.97,11.07,4.92,-4.92,-4.87,-4.62,6.20,6.15,6.15
105.37,11.00,4.89,11.02,4.91,-4.91,-4.87,-4.67,6.09,6.11,6.11
106.42,10.94,4.86,10.97,4.89,-4.89,-4.87,-4.72,6.05,6.08,6.08
107.48,10.94,4.91,10.92,4.87,-4.87,-4.87,-4.76,6.07,6.05,6.04
108.56,10.94,4.92,10.88,4.86,-4.86,-4.87,-4.81,6.08,6.01,6.02
109.64,10.80,4.82,10.83,4.85,-4.85,-4.87,-4.85,5.95,5.98,5.98
110.74,10.71,4.76,10.79,4.84,-4.84,-4.87,-4.89,5.87,5.95,5.95
111.85,10.71,4.80,10.74,4.83,-4.83,-4.87,-4.94,5.88,5.91,5.92
112.97,10.71,4.82,10.69,4.81,-4.81,-4.86,-4.98,5.90,5.88,5.89
114.10,10.67,4.82,10.63,4.79,-4.79,-4.86,-5.01,5.88,5.84,5.85
115.24,10.49,4.69,10.57,4.77,-4.77,-4.86,-5.05,5.72,5.80,5.81
116.39,10.49,4.73,10.53,4.76,-4.76,-4.86,-5.08,5.73,5.77,5.76
117.55,10.49,4.77,10.48,4.75,-4.75,-4.85,-5.10,5.74,5.73,5.72
118.73,10.49,4.81,10.42,4.73,-4.73,-4.85,-5.12,5.76,5.69,5.68
119.92,10.48,4.85,10.36,4.71,-4.71,-4.84,-5.14,5.77,5.65,5.63
121.12,10.26,4.65,10.31,4.70,-4.70,-4.84,-5.16,5.56,5.60,5.61
122.33,10.26,4.71,10.25,4.69,-4.69,-4.83,-5.16,5.57,5.56,5.56
123.55,10.16,4.64,10.19,4.67,-4.67,-4.82,-5.17,5.49,5.52,5.52
124.79,10.04,4.56,10.12,4.65,-4.65,-4.82,-5.16,5.40,5.47,5.48
126.03,10.03,4.59,10.06,4.63,-4.63,-4.81,-5.15,5.40,5.43,5.44
127.29,10.03,4.64,10.00,4.61,-4.61,-4.80,-5.14,5.42,5.39,5.39
128.57,9.98,4.63,9.94,4.59,-4.59,-4.79,-5.12,5.39,5.35,5.35
129.85,9.82,4.52,9.87,4.57,-4.57,-4.78,-5.10,5.25,5.30,5.30
131.15,9.80,4.54,9.81,4.55,-4.55,-4.77,-5.07,5.26,5.26,5.26
132.46,9.80,4.59,9.74,4.53,-4.53,-4.76,-5.03,5.28,5.22,5.21
133.79,9.66,4.49,9.69,4.51,-4.51,-4.75,-5.00,5.15,5.18,5.17
135.12,9.57,4.44,9.64,4.50,-4.50,-4.74,-4.95,5.07,5.14,5.13
136.48,9.57,4.47,9.58,4.48,-4.48,-4.72,-4.91,5.10,5.10,5.10
137.84,9.57,4.51,9.52,4.46,-4.46,-4.71,-4.86,5.12,5.06,5.07
139.22,9.45,4.43,9.46,4.43,-4.43,-4.70,-4.81,5.02,5.03,5.02
140.61,9.36,4.37,9.39,4.40,-4.40,-4.68,-4.75,4.96,4.99,4.99
142.02,9.35,4.40,9.33,4.37,-4.37,-4.67,-4.70,4.99,4.96,4.96
143.44,9.33,4.41,9.26,4.34,-4.34,-4.65,-4.64,5.00,4.93,4.92
144.87,9.16,4.26,9.20,4.30,-4.30,-4.63,-4.58,4.86,4.90,4.90
146.32,9.13,4.26,9.13,4.26,-4.26,-4.62,-4.52,4.87,4.87,4.87
147.78,9.07,4.24,9.06,4.22,-4.22,-4.60,-4.46,4.85,4.84,4.83
149.26,8.95,4.15,9.00,4.19,-4.19,-4.58,-4.40,4.76,4.81,4.81
150.75,8.89,4.12,8.92,4.15,-4.15,-4.56,-4.34,4.74,4.78,4.77
152.26,8.88,4.13,8.84,4.10,-4.10,-4.54,-4.28,4.78,4.74,4.75
153.78,8.74,4.03,8.77,4.05,-4.05,-4.52,-4.22,4.69,4.71,4.72
155.32,8.67,3.98,8.69,4.01,-4.01,-4.50,-4.17,4.67,4.68,4.69
156.88,8.64,3.99,8.61,3.95,-3.95,-4.48,-4.11,4.69,4.65,4.66
158.44,8.50,3.88,8.51,3.89,-3.89,-4.46,-4.06,4.61,4.62,4.62
160.03,8.44,3.85,8.42,3.83,-3.83,-4.43,-4.01,4.61,4.59,4.59
161.63,8.44,3.88,8.33,3.78,-3.78,-4.41,-3.96,4.67,4.56,4.56
163.24,8.30,3.78,8.24,3.71,-3.71,-4.38,-3.91,4.59,4.53,4.52
164.88,8.21,3.72,8.14,3.65,-3.65,-4.36,-3.87,4.56,4.49,4.49
166.53,8.03,3.58,8.06,3.60,-3.60,-4.33,-3.82,4.43,4.46,4.45
168.19,7.98,3.55,7.98,3.56,-3.56,-4.31,-3.79,4.42,4.42,4.43
169.87,7.93,3.54,7.92,3.53,-3.53,-4.28,-3.75,4.40,4.39,4.39
171.57,7.79,3.44,7.87,3.52,-3.52,-4.25,-3.72,4.27,4.35,4.36
173.29,7.75,3.43,7.85,3.53,-3.53,-4.22,-3.68,4.22,4.31,4.32
175.02,7.75,3.47,7.84,3.57,-3.57,-4.19,-3.66,4.19,4.28,4.29
176.77,7.75,3.51,7.87,3.63,-3.63,-4.16,-3.63,4.13,4.24,4.24
178.54,7.75,3.55,7.90,3.69,-3.69,-4.13,-3.61,4.06,4.20,4.21
180.32,7.83,3.67,7.94,3.78,-3.78,-4.10,-3.59,4.05,4.16,4.16
182.13,7.93,3.81,8.00,3.88,-3.88,-4.07,-3.57,4.05,4.13,4.12
183.95,8.07,3.98,8.06,3.98,-3.98,-4.04,-3.56,4.10,4.09,4.09
185.79,8.20,4.16,8.12,4.08,-4.08,-4.01,-3.55,4.13,4.05,4.04
187.65,8.21,4.20,8.17,4.17,-4.17,-3.97,-3.54,4.05,4.01,4.01
189.52,8.39,4.42,8.22,4.25,-4.25,-3.94,-3.53,4.15,3.97,3.97
191.42,8.44,4.50,8.25,4.32,-4.32,-3.90,-3.53,4.12,3.93,3.94
193.33,8.44,4.54,8.27,4.37,-4.37,-3.87,-3.53,4.07,3.90,3.90
195.27,8.33,4.47,8.26,4.40,-4.40,-3.83,-3.53,3.93,3.86,3.86
197.22,8.23,4.41,8.24,4.41,-4.41,-3.79,-3.53,3.82,3.83,3.83
199.19,8.20,4.40,8.21,4.40,-4.40,-3.76,-3.54,3.80,3.80,3.80
201.18,8.07,4.31,8.15,4.37,-4.37,-3.72,-3.54,3.70,3.77,3.76
203.19,7.98,4.25,8.07,4.33,-4.33,-3.68,-3.55,3.66,3.74,3.74
205.23,7.98,4.26,7.99,4.28,-4.28,-3.64,-3.56,3.71,3.72,3.72
207.28,7.90,4.21,7.91,4.22,-4.22,-3.60,-3.57,3.68,3.69,3.70
209.35,7.78,4.12,7.82,4.16,-4.16,-3.56,-3.58,3.62,3.66,3.66
211.44,7.75,4.11,7.73,4.10,-4.10,-3.52,-3.59,3.65,3.64,3.64
213.56,7.60,3.99,7.66,4.05,-4.05,-3.47,-3.60,3.55,3.61,3.62
215.69,7.53,3.94,7.59,4.00,-4.00,-3.43,-3.61,3.53,3.59,3.59
217.85,7.52,3.95,7.52,3.96,-3.96,-3.39,-3.62,3.57,3.56,3.57
220.03,7.43,3.89,7.45,3.91,-3.91,-3.34,-3.63,3.52,3.54,3.54
222.23,7.33,3.83,7.37,3.86,-3.86,-3.30,-3.63,3.48,3.51,3.51
224.45,7.30,3.82,7.29,3.80,-3.80,-3.25,-3.64,3.50,3.49,3.49
226.70,7.30,3.84,7.20,3.74,-3.74,-3.21,-3.64,3.57,3.47,3.46
228.96,7.14,3.70,7.12,3.67,-3.67,-3.16,-3.64,3.47,3.44,3.44
231.25,7.09,3.67,7.04,3.61,-3.61,-3.11,-3.64,3.48,3.42,3.42
233.57,7.04,3.64,6.96,3.55,-3.55,-3.06,-3.63,3.49,3.40,3.40
235.90,6.85,3.47,6.87,3.49,-3.49,-3.01,-3.62,3.36,3.39,3.39
238.26,6.73,3.38,6.79,3.42,-3.42,-2.97,-3.61,3.31,3.37,3.36
240.64,6.63,3.27,6.70,3.35,-3.35,-2.92,-3.59,3.29,3.35,3.36
243.05,6.61,3.27,6.61,3.27,-3.27,-2.86,-3.57,3.34,3.34,3.34
245.48,6.45,3.13,6.52,3.20,-3.20,-2.81,-3.54,3.25,3.32,3.32
247.93,6.38,3.08,6.44,3.13,-3.13,-2.76,-3.50,3.25,3.31,3.30
250.41,6.38,3.08,6.36,3.06,-3.06,-2.71,-3.47,3.32,3.30,3.31
252.92,6.34,3.05,6.27,2.98,-2.98,-2.66,-3.42,3.36,3.29,3.29
255.45,6.19,2.92,6.19,2.92,-2.92,-2.60,-3.38,3.28,3.28,3.27
258.00,6.16,2.90,6.12,2.85,-2.85,-2.55,-3.32,3.31,3.27,3.27
260.58,6.01,2.75,6.05,2.79,-2.79,-2.49,-3.26,3.23,3.26,3.26
263.19,5.94,2.69,5.98,2.73,-2.73,-2.44,-3.20,3.22,3.25,3.25
265.82,5.93,2.68,5.91,2.66,-2.66,-2.38,-3.13,3.27,3.25,3.25
268.48,5.87,2.63,5.83,2.59,-2.59,-2.33,-3.06,3.28,3.24,3.24
271.16,5.74,2.50,5.75,2.51,-2.51,-2.27,-2.98,3.23,3.24,3.25
273.87,5.70,2.46,5.68,2.44,-2.44,-2.21,-2.90,3.26,3.24,3.24
276.61,5.57,2.34,5.60,2.37,-2.37,-2.15,-2.82,3.20,3.23,3.24
279.38,5.49,2.27,5.52,2.29,-2.29,-2.09,-2.73,3.21,3.23,3.22
282.17,5.47,2.25,5.45,2.21,-2.21,-2.03,-2.64,3.26,3.23,3.23
284.99,5.42,2.19,5.38,2.14,-2.14,-1.97,-2.55,3.28,3.23,3.23
287.84,5.25,2.01,5.30,2.06,-2.06,-1.91,-2.45,3.19,3.24,3.24
290.72,5.24,2.01,5.23,2.00,-2.00,-1.85,-2.35,3.25,3.24,3.23
293.63,5.13,1.89,5.16,1.92,-1.92,-1.79,-2.25,3.21,3.24,3.24
296.57,5.03,1.79,5.08,1.84,-1.84,-1.73,-2.15,3.19,3.24,3.25
299.53,5.02,1.78,5.01,1.76,-1.76,-1.66,-2.05,3.26,3.24,3.24
302.53,5.01,1.75,4.94,1.69,-1.69,-1.60,-1.95,3.32,3.25,3.26
305.55,4.82,1.57,4.87,1.62,-1.62,-1.54,-1.84,3.20,3.25,3.25
308.61,4.79,1.53,4.80,1.55,-1.55,-1.47,-1.74,3.24,3.26,3.26
311.69,4.79,1.53,4.73,1.47,-1.47,-1.41,-1.63,3.32,3.26,3.26
314.81,4.65,1.39,4.65,1.39,-1.39,-1.34,-1.53,3.26,3.26,3.27
317.96,4.57,1.31,4.58,1.31,-1.31,-1.27,-1.42,3.26,3.27,3.26
321.14,4.55,1.28,4.51,1.24,-1.24,-1.21,-1.31,3.31,3.27,3.27
324.35,4.38,1.12,4.44,1.16,-1.16,-1.14,-1.21,3.22,3.28,3.27
327.59,4.33,1.04,4.37,1.08,-1.08,-1.07,-1.10,3.25,3.28,3.29
330.87,4.33,1.04,4.29,1.00,-1.00,-1.00,-1.00,3.33,3.29,3.29
334.18,4.23,0.94,4.21,0.91,-0.91,-0.93,-0.89,3.32,3.30,3.29
337.52,4.11,0.82,4.13,0.83,-0.83,-0.86,-0.78,3.28,3.30,3.30
340.90,4.10,0.79,4.06,0.75,-0.75,-0.79,-0.68,3.35,3.31,3.31
344.30,3.93,0.61,3.98,0.66,-0.66,-0.72,-0.57,3.27,3.32,3.32
347.75,3.88,0.55,3.91,0.58,-0.58,-0.65,-0.47,3.30,3.33,3.33
351.23,3.88,0.55,3.84,0.50,-0.50,-0.58,-0.36,3.38,3.34,3.33
354.74,3.78,0.43,3.77,0.42,-0.42,-0.51,-0.26,3.36,3.35,3.36
358.28,3.67,0.32,3.69,0.33,-0.33,-0.44,-0.15,3.34,3.36,3.35
361.87,3.65,0.29,3.62,0.25,-0.25,-0.36,-0.05,3.40,3.36,3.36
365.49,3.48,0.11,3.54,0.17,-0.17,-0.29,0.05,3.31,3.37,3.37
369.14,3.43,0.05,3.46,0.09,-0.09,-0.21,0.16,3.34,3.38,3.38
372.83,3.42,0.03,3.39,0.01,-0.01,-0.14,0.26,3.41,3.38,3.39
376.56,3.37,-0.01,3.32,-0.07,0.07,-0.06,0.36,3.44,3.39,3.39
380.33,3.22,-0.17,3.24,-0.16,0.16,0.01,0.47,3.38,3.39,3.40
384.13,3.19,-0.21,3.17,-0.23,0.23,0.09,0.57,3.42,3.40,3.40
387.97,3.04,-0.36,3.09,-0.31,0.31,0.17,0.67,3.36,3.40,3.40
391.85,2.97,-0.44,3.01,-0.40,0.40,0.24,0.77,3.37,3.41,3.41
395.77,2.96,-0.44,2.94,-0.47,0.47,0.32,0.88,3.43,3.41,3.40
399.73,2.90,-0.51,2.87,-0.55,0.55,0.40,0.98,3.45,3.42,3.41
403.72,2.78,-0.65,2.79,-0.64,0.64,0.48,1.08,3.42,3.43,3.43
407.76,2.74,-0.68,2.72,-0.71,0.71,0.56,1.18,3.46,3.43,3.43
411.84,2.60,-0.84,2.64,-0.80,0.80,0.64,1.28,3.40,3.44,3.45
415.96,2.52,-0.93,2.57,-0.88,0.88,0.72,1.38,3.41,3.45,3.45
420.12,2.51,-0.94,2.50,-0.96,0.96,0.80,1.47,3.48,3.46,3.45
424.32,2.49,-0.98,2.43,-1.05,1.05,0.88,1.57,3.54,3.47,3.47
428.56,2.34,-1.15,2.35,-1.14,1.14,0.96,1.67,3.48,3.48,3.49
432.85,2.28,-1.22,2.28,-1.22,1.22,1.05,1.76,3.50,3.50,3.50
437.18,2.18,-1.33,2.20,-1.31,1.31,1.13,1.85,3.49,3.51,3.51
441.55,2.08,-1.44,2.12,-1.40,1.40,1.21,1.94,3.49,3.52,3.52
445.96,2.05,-1.49,2.04,-1.50,1.50,1.30,2.03,3.55,3.54,3.54
450.42,2.05,-1.50,1.97,-1.58,1.58,1.38,2.12,3.63,3.55,3.55
454.93,1.88,-1.68,1.90,-1.67,1.67,1.47,2.20,3.55,3.57,3.57
459.48,1.83,-1.74,1.83,-1.75,1.75,1.55,2.28,3.58,3.58,3.58
464.07,1.73,-1.86,1.75,-1.84,1.84,1.64,2.36,3.57,3.59,3.60
468.71,1.63,-1.98,1.68,-1.93,1.93,1.72,2.44,3.56,3.61,3.62
473.40,1.60,-2.02,1.61,-2.01,2.01,1.81,2.51,3.61,3.62,3.62
478.13,1.60,-2.04,1.56,-2.08,2.08,1.90,2.58,3.69,3.64,3.64
482.91,1.42,-2.23,1.49,-2.16,2.16,1.98,2.65,3.59,3.66,3.65
487.74,1.37,-2.30,1.43,-2.25,2.25,2.07,2.71,3.62,3.67,3.67
492.62,1.37,-2.32,1.36,-2.33,2.33,2.16,2.77,3.71,3.69,3.69
497.55,1.37,-2.33,1.29,-2.42,2.42,2.25,2.83,3.80,3.71,3.70
502.52,1.24,-2.48,1.23,-2.50,2.50,2.33,2.88,3.75,3.73,3.72
