frequency,raw,error,smoothed,error_smoothed,equalization,parametric_eq,fixed_band_eq,equalized_raw,equalized_smoothed,target
20.00,-12.54,-11.26,-12.48,-11.22,6.00,4.88,2.72,-6.54,-6.48,-1.28
20.20,-12.40,-11.16,-12.37,-11.14,6.00,4.97,2.80,-6.40,-6.37,-1.24
20.40,-12.26,-11.05,-12.25,-11.05,6.00,5.06,2.88,-6.26,-6.25,-1.21
20.61,-12.12,-10.94,-12.14,-10.96,6.00,5.15,2.96,-6.12,-6.14,-1.18
20.81,-11.98,-10.84,-12.02,-10.87,6.00,5.24,3.05,-5.98,-6.02,-1.14
21.02,-11.84,-10.74,-11.90,-10.78,6.00,5.33,3.13,-5.84,-5.90,-1.10
21.23,-11.74,-10.65,-11.79,-10.68,6.00,5.42,3.22,-5.74,-5.79,-1.09
21.44,-11.64,-10.57,-11.67,-10.59,6.00,5.50,3.32,-5.64,-5.67,-1.07
21.66,-11.54,-10.49,-11.55,-10.49,6.00,5.59,3.41,-5.54,-5.55,-1.05
21.87,-11.44,-10.40,-11.43,-10.39,6.00,5.67,3.51,-5.44,-5.43,-1.04
22.09,-11.33,-10.31,-11.31,-10.28,6.00,5.76,3.61,-5.33,-5.31,-1.02
22.31,-11.22,-10.20,-11.20,-10.18,6.00,5.84,3.72,-5.22,-5.20,-1.02
22.54,-11.11,-10.10,-11.08,-10.07,6.00,5.92,3.82,-5.11,-5.08,-1.01
22.76,-11.00,-10.00,-10.96,-9.96,6.00,6.00,3.93,-5.00,-4.96,-1.00
22.99,-10.90,-9.90,-10.84,-9.85,6.00,6.07,4.04,-4.90,-4.84,-1.00
23.22,-10.75,-9.76,-10.71,-9.73,6.00,6.14,4.16,-4.75,-4.71,-0.99
23.45,-10.60,-9.61,-10.59,-9.61,6.00,6.21,4.27,-4.60,-4.59,-0.98
23.69,-10.45,-9.48,-10.47,-9.50,6.00,6.28,4.39,-4.45,-4.47,-0.98
23.92,-10.31,-9.34,-10.35,-9.39,6.00,6.34,4.52,-4.31,-4.35,-0.97
24.16,-10.19,-9.23,-10.24,-9.27,6.00,6.40,4.64,-4.19,-4.24,-0.96
24.40,-10.09,-9.14,-10.13,-9.17,6.00,6.45,4.77,-4.09,-4.13,-0.95
24.65,-9.99,-9.03,-10.02,-9.06,6.00,6.50,4.90,-3.99,-4.02,-0.96
24.89,-9.88,-8.92,-9.92,-8.96,6.00,6.55,5.03,-3.88,-3.92,-0.96
25.14,-9.80,-8.84,-9.82,-8.86,6.00,6.58,5.16,-3.80,-3.82,-0.96
25.39,-9.73,-8.77,-9.72,-8.77,6.00,6.62,5.29,-3.73,-3.72,-0.96
25.65,-9.66,-8.70,-9.63,-8.67,6.00,6.65,5.42,-3.66,-3.63,-0.96
25.91,-9.60,-8.63,-9.54,-8.59,6.00,6.67,5.56,-3.60,-3.54,-0.97
26.16,-9.50,-8.54,-9.46,-8.50,6.00,6.69,5.69,-3.50,-3.46,-0.96
26.43,-9.40,-8.44,-9.39,-8.42,6.00,6.70,5.83,-3.40,-3.39,-0.96
26.69,-9.30,-8.34,-9.31,-8.35,6.00,6.71,5.96,-3.30,-3.31,-0.96
26.96,-9.20,-8.24,-9.23,-8.27,6.00,6.71,6.09,-3.20,-3.23,-0.96
27.23,-9.12,-8.16,-9.15,-8.18,6.00,6.70,6.21,-3.12,-3.15,-0.96
27.50,-9.04,-8.08,-9.07,-8.10,6.00,6.69,6.34,-3.04,-3.07,-0.96
27.77,-8.96,-7.99,-8.98,-8.01,6.00,6.68,6.46,-2.96,-2.98,-0.97
28.05,-8.89,-7.91,-8.89,-7.92,6.00,6.65,6.57,-2.89,-2.89,-0.97
28.33,-8.82,-7.83,-8.80,-7.82,6.00,6.63,6.68,-2.82,-2.80,-0.99
28.62,-8.75,-7.77,-8.71,-7.73,6.00,6.59,6.78,-2.75,-2.71,-0.98
28.90,-8.68,-7.70,-8.62,-7.64,6.00,6.56,6.88,-2.68,-2.62,-0.98
29.19,-8.58,-7.59,-8.54,-7.56,6.00,6.51,6.96,-2.58,-2.54,-0.99
29.48,-8.45,-7.47,-8.45,-7.47,6.00,6.46,7.04,-2.45,-2.45,-0.98
29.78,-8.32,-7.34,-8.37,-7.38,6.00,6.41,7.10,-2.32,-2.37,-0.98
30.08,-8.21,-7.23,-8.28,-7.29,6.00,6.35,7.16,-2.21,-2.28,-0.98
30.38,-8.14,-7.15,-8.18,-7.19,6.00,6.29,7.20,-2.14,-2.18,-0.99
30.68,-8.06,-7.07,-8.09,-7.09,6.00,6.23,7.23,-2.06,-2.09,-0.99
30.99,-7.98,-6.98,-7.99,-6.98,6.00,6.16,7.24,-1.98,-1.99,-1.00
31.30,-7.91,-6.91,-7.89,-6.88,6.00,6.09,7.25,-1.91,-1.89,-1.01
31.61,-7.84,-6.83,-7.79,-6.78,6.00,6.02,7.24,-1.84,-1.79,-1.01
31.93,-7.77,-6.75,-7.70,-6.68,6.00,5.94,7.22,-1.77,-1.70,-1.02
32.24,-7.64,-6.61,-7.61,-6.59,6.00,5.86,7.18,-1.64,-1.61,-1.03
32.57,-7.50,-6.47,-7.51,-6.49,6.00,5.78,7.14,-1.50,-1.51,-1.03
32.89,-7.36,-6.33,-7.41,-6.38,6.00,5.70,7.08,-1.36,-1.41,-1.03
33.22,-7.26,-6.23,-7.31,-6.27,5.99,5.61,7.01,-1.27,-1.32,-1.03
33.55,-7.18,-6.14,-7.20,-6.16,5.96,5.53,6.93,-1.22,-1.24,-1.04
33.89,-7.10,-6.06,-7.10,-6.05,5.91,5.44,6.84,-1.19,-1.18,-1.04
34.23,-7.02,-5.98,-6.99,-5.95,5.85,5.35,6.74,-1.17,-1.14,-1.04
34.57,-6.94,-5.89,-6.89,-5.84,5.79,5.27,6.64,-1.15,-1.11,-1.05
34.92,-6.86,-5.81,-6.79,-5.74,5.71,5.18,6.53,-1.15,-1.08,-1.05
35.27,-6.72,-5.67,-6.70,-5.64,5.63,5.09,6.41,-1.09,-1.07,-1.05
35.62,-6.56,-5.49,-6.61,-5.55,5.55,5.00,6.29,-1.01,-1.06,-1.07
35.97,-6.40,-5.33,-6.53,-5.47,5.47,4.91,6.16,-0.93,-1.07,-1.07
36.33,-6.38,-5.31,-6.45,-5.38,5.38,4.82,6.04,-1.00,-1.07,-1.07
36.70,-6.36,-5.29,-6.37,-5.30,5.30,4.73,5.91,-1.06,-1.08,-1.07
37.06,-6.33,-5.24,-6.29,-5.21,5.21,4.65,5.77,-1.12,-1.08,-1.09
37.43,-6.24,-5.15,-6.21,-5.12,5.12,4.56,5.64,-1.11,-1.09,-1.09
37.81,-6.16,-5.07,-6.13,-5.04,5.04,4.47,5.51,-1.12,-1.09,-1.09
38.19,-6.08,-4.98,-6.06,-4.96,4.96,4.39,5.37,-1.12,-1.10,-1.10
38.57,-6.01,-4.90,-5.98,-4.88,4.88,4.30,5.24,-1.13,-1.10,-1.11
38.95,-5.94,-4.83,-5.90,-4.79,4.79,4.22,5.11,-1.15,-1.11,-1.11
39.34,-5.84,-4.72,-5.82,-4.70,4.70,4.13,4.97,-1.13,-1.11,-1.12
39.74,-5.74,-4.61,-5.73,-4.62,4.62,4.05,4.84,-1.12,-1.12,-1.13
40.14,-5.64,-4.51,-5.65,-4.53,4.53,3.97,4.72,-1.11,-1.12,-1.13
40.54,-5.56,-4.43,-5.56,-4.43,4.43,3.89,4.59,-1.13,-1.13,-1.13
40.94,-5.48,-4.34,-5.47,-4.33,4.33,3.81,4.47,-1.15,-1.14,-1.13
41.35,-5.39,-4.24,-5.39,-4.23,4.23,3.73,4.35,-1.16,-1.16,-1.15
41.76,-5.29,-4.13,-5.31,-4.13,4.13,3.66,4.23,-1.16,-1.17,-1.16
42.18,-5.20,-4.02,-5.23,-4.04,4.04,3.58,4.11,-1.16,-1.19,-1.18
42.60,-5.10,-3.90,-5.15,-3.94,3.94,3.51,4.00,-1.16,-1.21,-1.20
43.03,-5.01,-3.80,-5.08,-3.85,3.85,3.43,3.89,-1.16,-1.23,-1.21
43.46,-5.01,-3.77,-5.01,-3.76,3.76,3.36,3.78,-1.25,-1.26,-1.24
43.90,-5.01,-3.73,-4.96,-3.68,3.68,3.29,3.67,-1.33,-1.28,-1.28
44.33,-4.94,-3.63,-4.90,-3.59,3.59,3.22,3.57,-1.35,-1.30,-1.31
44.78,-4.84,-3.50,-4.84,-3.51,3.51,3.16,3.47,-1.33,-1.33,-1.34
45.23,-4.77,-3.40,-4.78,-3.43,3.43,3.09,3.37,-1.34,-1.35,-1.37
45.68,-4.74,-3.35,-4.73,-3.36,3.36,3.02,3.28,-1.38,-1.37,-1.39
46.13,-4.70,-3.29,-4.68,-3.29,3.29,2.96,3.19,-1.41,-1.39,-1.41
46.60,-4.62,-3.21,-4.63,-3.22,3.22,2.90,3.10,-1.40,-1.41,-1.41
47.06,-4.56,-3.13,-4.58,-3.16,3.16,2.84,3.01,-1.40,-1.42,-1.43
47.53,-4.53,-3.09,-4.52,-3.09,3.09,2.78,2.93,-1.44,-1.43,-1.44
48.01,-4.51,-3.08,-4.46,-3.03,3.03,2.72,2.84,-1.48,-1.44,-1.43
48.49,-4.42,-2.98,-4.41,-2.97,2.97,2.66,2.76,-1.45,-1.44,-1.44
48.97,-4.33,-2.88,-4.35,-2.92,2.92,2.60,2.69,-1.41,-1.44,-1.45
49.46,-4.33,-2.88,-4.31,-2.87,2.87,2.55,2.61,-1.46,-1.44,-1.45
49.96,-4.33,-2.88,-4.27,-2.83,2.83,2.49,2.54,-1.50,-1.43,-1.45
50.46,-4.22,-2.78,-4.23,-2.79,2.79,2.44,2.47,-1.43,-1.44,-1.44
50.96,-4.11,-2.68,-4.19,-2.75,2.75,2.39,2.40,-1.36,-1.44,-1.43
51.47,-4.10,-2.67,-4.16,-2.71,2.71,2.33,2.33,-1.39,-1.45,-1.43
51.99,-4.10,-2.66,-4.14,-2.68,2.68,2.28,2.27,-1.42,-1.46,-1.44
52.51,-4.10,-2.65,-4.12,-2.65,2.65,2.24,2.21,-1.45,-1.47,-1.45
53.03,-4.10,-2.63,-4.12,-2.62,2.62,2.19,2.15,-1.48,-1.49,-1.47
53.56,-4.10,-2.60,-4.11,-2.59,2.59,2.14,2.09,-1.51,-1.52,-1.50
54.10,-4.10,-2.56,-4.10,-2.55,2.55,2.09,2.03,-1.55,-1.55,-1.54
54.64,-4.10,-2.52,-4.09,-2.51,2.51,2.05,1.97,-1.59,-1.58,-1.58
55.18,-4.10,-2.48,-4.08,-2.46,2.46,2.01,1.92,-1.64,-1.62,-1.62
55.74,-4.10,-2.43,-4.07,-2.41,2.41,1.96,1.86,-1.69,-1.66,-1.67
56.29,-4.10,-2.39,-4.07,-2.36,2.36,1.92,1.81,-1.74,-1.71,-1.71
56.86,-4.10,-2.34,-4.06,-2.30,2.30,1.88,1.76,-1.80,-1.76,-1.76
57.42,-4.10,-2.27,-4.04,-2.23,2.23,1.84,1.71,-1.87,-1.82,-1.83
58.00,-4.10,-2.22,-4.02,-2.15,2.15,1.80,1.66,-1.95,-1.87,-1.88
58.58,-3.97,-2.04,-3.99,-2.06,2.06,1.76,1.61,-1.91,-1.93,-1.93
59.16,-3.87,-1.90,-3.95,-1.97,1.97,1.72,1.56,-1.90,-1.98,-1.97
59.76,-3.87,-1.84,-3.93,-1.89,1.89,1.69,1.52,-1.98,-2.04,-2.03
60.35,-3.87,-1.78,-3.90,-1.81,1.81,1.65,1.47,-2.06,-2.09,-2.09
60.96,-3.87,-1.73,-3.86,-1.72,1.72,1.62,1.43,-2.15,-2.14,-2.14
61.57,-3.87,-1.67,-3.82,-1.63,1.63,1.58,1.38,-2.24,-2.19,-2.20
62.18,-3.83,-1.57,-3.79,-1.54,1.54,1.55,1.34,-2.29,-2.24,-2.26
62.80,-3.69,-1.40,-3.75,-1.46,1.46,1.52,1.30,-2.23,-2.29,-2.29
63.43,-3.65,-1.31,-3.71,-1.38,1.38,1.48,1.26,-2.27,-2.33,-2.34
64.07,-3.65,-1.27,-3.67,-1.30,1.30,1.45,1.22,-2.35,-2.37,-2.38
64.71,-3.65,-1.24,-3.63,-1.22,1.22,1.42,1.17,-2.43,-2.41,-2.41
65.35,-3.65,-1.20,-3.60,-1.16,1.16,1.39,1.13,-2.49,-2.44,-2.45
66.01,-3.65,-1.17,-3.56,-1.09,1.09,1.36,1.09,-2.56,-2.48,-2.48
66.67,-3.50,-0.99,-3.51,-1.01,1.01,1.33,1.05,-2.49,-2.50,-2.51
67.33,-3.42,-0.89,-3.46,-0.93,0.93,1.31,1.01,-2.49,-2.53,-2.53
68.01,-3.42,-0.87,-3.40,-0.85,0.85,1.28,0.98,-2.57,-2.55,-2.55
68.69,-3.40,-0.83,-3.35,-0.78,0.78,1.25,0.94,-2.62,-2.57,-2.57
69.37,-3.31,-0.72,-3.31,-0.72,0.72,1.22,0.90,-2.59,-2.59,-2.59
70.07,-3.19,-0.58,-3.27,-0.66,0.66,1.20,0.86,-2.53,-2.61,-2.61
70.77,-3.19,-0.57,-3.21,-0.58,0.58,1.17,0.82,-2.61,-2.63,-2.62
71.48,-3.19,-0.55,-3.15,-0.51,0.51,1.15,0.79,-2.68,-2.65,-2.64
72.19,-3.14,-0.49,-3.10,-0.43,0.43,1.13,0.75,-2.71,-2.66,-2.65
72.91,-2.98,-0.30,-3.04,-0.36,0.36,1.10,0.71,-2.62,-2.68,-2.68
73.64,-2.96,-0.27,-3.00,-0.30,0.30,1.08,0.68,-2.66,-2.70,-2.69
74.38,-2.96,-0.25,-2.96,-0.25,0.25,1.06,0.64,-2.71,-2.72,-2.71
75.12,-2.96,-0.23,-2.93,-0.20,0.20,1.03,0.60,-2.76,-2.73,-2.73
75.87,-2.96,-0.21,-2.89,-0.15,0.15,1.01,0.57,-2.81,-2.75,-2.75
76.63,-2.85,-0.08,-2.86,-0.10,0.10,0.99,0.53,-2.75,-2.76,-2.77
77.40,-2.76,0.01,-2.83,-0.06,0.06,0.97,0.50,-2.70,-2.77,-2.77
78.17,-2.74,0.05,-2.79,-0.01,0.01,0.95,0.46,-2.73,-2.78,-2.79
78.95,-2.74,0.05,-2.76,0.03,-0.03,0.93,0.42,-2.77,-2.79,-2.79
79.74,-2.74,0.05,-2.72,0.07,-0.07,0.91,0.39,-2.81,-2.79,-2.79
80.54,-2.74,0.06,-2.70,0.10,-0.10,0.89,0.35,-2.84,-2.79,-2.80
81.35,-2.74,0.06,-2.67,0.12,-0.12,0.88,0.32,-2.86,-2.79,-2.80
82.16,-2.72,0.07,-2.64,0.15,-0.15,0.86,0.28,-2.87,-2.78,-2.79
82.98,-2.63,0.14,-2.61,0.16,-0.16,0.84,0.25,-2.79,-2.77,-2.77
83.81,-2.53,0.24,-2.59,0.18,-0.18,0.82,0.21,-2.71,-2.76,-2.77
84.65,-2.51,0.25,-2.57,0.18,-0.18,0.81,0.18,-2.69,-2.75,-2.76
85.50,-2.51,0.22,-2.56,0.17,-0.17,0.79,0.14,-2.68,-2.73,-2.73
86.35,-2.51,0.21,-2.56,0.16,-0.16,0.77,0.11,-2.67,-2.72,-2.72
87.22,-2.51,0.19,-2.54,0.16,-0.16,0.76,0.07,-2.67,-2.70,-2.70
88.09,-2.51,0.18,-2.53,0.15,-0.15,0.74,0.04,-2.66,-2.68,-2.69
88.97,-2.51,0.14,-2.51,0.15,-0.15,0.73,0.00,-2.66,-2.66,-2.65
89.86,-2.51,0.13,-2.49,0.15,-0.15,0.71,-0.04,-2.66,-2.65,-2.64
90.76,-2.51,0.12,-2.48,0.15,-0.15,0.70,-0.07,-2.66,-2.63,-2.63
91.66,-2.51,0.10,-2.47,0.16,-0.16,0.69,-0.11,-2.67,-2.62,-2.61
92.58,-2.51,0.11,-2.45,0.16,-0.16,0.67,-0.14,-2.67,-2.61,-2.62
93.51,-2.51,0.08,-2.44,0.16,-0.16,0.66,-0.18,-2.67,-2.60,-2.59
94.44,-2.51,0.08,-2.42,0.18,-0.18,0.65,-0.21,-2.69,-2.60,-2.59
95.39,-2.41,0.18,-2.40,0.20,-0.20,0.63,-0.25,-2.61,-2.60,-2.59
96.34,-2.28,0.33,-2.37,0.22,-0.22,0.62,-0.29,-2.50,-2.60,-2.61
97.30,-2.28,0.33,-2.35,0.25,-0.25,0.61,-0.32,-2.53,-2.60,-2.61
98.28,-2.28,0.34,-2.33,0.28,-0.28,0.60,-0.36,-2.56,-2.61,-2.62
99.26,-2.28,0.34,-2.31,0.31,-0.31,0.58,-0.40,-2.59,-2.62,-2.62
100.25,-2.28,0.35,-2.30,0.34,-0.34,0.57,-0.43,-2.62,-2.63,-2.63
101.25,-2.28,0.37,-2.28,0.37,-0.37,0.56,-0.47,-2.65,-2.65,-2.65
102.27,-2.28,0.39,-2.27,0.41,-0.41,0.55,-0.50,-2.69,-2.68,-2.67
103.29,-2.28,0.42,-2.25,0.45,-0.45,0.54,-0.54,-2.73,-2.70,-2.70
104.32,-2.28,0.44,-2.24,0.49,-0.49,0.53,-0.57,-2.77,-2.73,-2.72
105.37,-2.28,0.47,-2.25,0.52,-0.52,0.52,-0.61,-2.80,-2.77,-2.75
106.42,-2.28,0.51,-2.26,0.55,-0.55,0.51,-0.64,-2.83,-2.81,-2.79
107.48,-2.28,0.56,-2.28,0.57,-0.57,0.50,-0.67,-2.85,-2.85,-2.84
108.56,-2.28,0.62,-2.29,0.61,-0.61,0.49,-0.71,-2.89,-2.90,-2.90
109.64,-2.28,0.67,-2.31,0.64,-0.64,0.48,-0.74,-2.92,-2.95,-2.95
110.74,-2.28,0.72,-2.32,0.68,-0.68,0.47,-0.77,-2.96,-3.00,-3.00
111.85,-2.28,0.77,-2.34,0.71,-0.71,0.46,-0.79,-2.99,-3.06,-3.05
112.97,-2.28,0.83,-2.37,0.74,-0.74,0.45,-0.82,-3.02,-3.11,-3.11
114.10,-2.32,0.84,-2.38,0.78,-0.78,0.45,-0.85,-3.10,-3.16,-3.16
115.24,-2.51,0.71,-2.40,0.82,-0.82,0.44,-0.87,-3.33,-3.21,-3.22
116.39,-2.51,0.77,-2.42,0.85,-0.85,0.43,-0.90,-3.36,-3.26,-3.28
117.55,-2.51,0.82,-2.44,0.87,-0.87,0.42,-0.92,-3.38,-3.31,-3.33
118.73,-2.51,0.86,-2.46,0.89,-0.89,0.41,-0.94,-3.40,-3.35,-3.37
119.92,-2.51,0.89,-2.48,0.91,-0.91,0.41,-0.95,-3.42,-3.39,-3.40
121.12,-2.51,0.93,-2.50,0.92,-0.92,0.40,-0.97,-3.43,-3.42,-3.44
122.33,-2.51,0.95,-2.52,0.93,-0.93,0.39,-0.98,-3.44,-3.45,-3.46
123.55,-2.51,0.96,-2.54,0.94,-0.94,0.38,-0.99,-3.45,-3.48,-3.47
124.79,-2.51,0.99,-2.56,0.93,-0.93,0.38,-1.00,-3.44,-3.50,-3.50
126.03,-2.51,1.00,-2.59,0.92,-0.92,0.37,-1.01,-3.43,-3.52,-3.51
127.29,-2.58,0.94,-2.63,0.91,-0.91,0.36,-1.01,-3.49,-3.53,-3.52
128.57,-2.69,0.86,-2.67,0.88,-0.88,0.36,-1.01,-3.57,-3.55,-3.55
129.85,-2.74,0.82,-2.72,0.85,-0.85,0.35,-1.01,-3.59,-3.57,-3.56
131.15,-2.74,0.84,-2.78,0.81,-0.81,0.35,-1.01,-3.55,-3.58,-3.58
132.46,-2.74,0.86,-2.84,0.76,-0.76,0.34,-1.01,-3.50,-3.60,-3.60
133.79,-2.87,0.74,-2.90,0.72,-0.72,0.33,-1.00,-3.59,-3.62,-3.61
135.12,-2.97,0.67,-2.95,0.69,-0.69,0.33,-0.99,-3.66,-3.63,-3.64
136.48,-3.02,0.63,-3.00,0.66,-0.66,0.32,-0.98,-3.68,-3.65,-3.65
137.84,-3.17,0.50,-3.04,0.63,-0.63,0.32,-0.97,-3.80,-3.67,-3.67
139.22,-3.19,0.52,-3.09,0.61,-0.61,0.31,-0.96,-3.80,-3.70,-3.71
140.61,-3.19,0.55,-3.13,0.59,-0.59,0.31,-0.95,-3.78,-3.72,-3.74
142.02,-3.19,0.56,-3.16,0.59,-0.59,0.30,-0.93,-3.78,-3.75,-3.75
143.44,-3.19,0.59,-3.20,0.59,-0.59,0.30,-0.92,-3.78,-3.78,-3.78
144.87,-3.19,0.62,-3.23,0.59,-0.59,0.29,-0.90,-3.78,-3.82,-3.81
146.32,-3.19,0.65,-3.26,0.60,-0.60,0.29,-0.88,-3.79,-3.86,-3.84
147.78,-3.19,0.68,-3.28,0.62,-0.62,0.28,-0.87,-3.81,-3.90,-3.87
149.26,-3.19,0.73,-3.30,0.65,-0.65,0.28,-0.85,-3.85,-3.95,-3.92
150.75,-3.29,0.70,-3.32,0.69,-0.69,0.28,-0.83,-3.98,-4.01,-3.99
152.26,-3.38,0.66,-3.33,0.73,-0.73,0.27,-0.81,-4.11,-4.07,-4.04
153.78,-3.42,0.69,-3.35,0.78,-0.78,0.27,-0.79,-4.20,-4.12,-4.11
155.32,-3.42,0.77,-3.36,0.83,-0.83,0.26,-0.77,-4.25,-4.18,-4.19
156.88,-3.42,0.83,-3.37,0.88,-0.88,0.26,-0.75,-4.30,-4.24,-4.25
158.44,-3.42,0.89,-3.38,0.92,-0.92,0.26,-0.74,-4.34,-4.30,-4.31
160.03,-3.42,0.96,-3.40,0.96,-0.96,0.25,-0.72,-4.38,-4.36,-4.38
161.63,-3.42,1.01,-3.42,0.99,-0.99,0.25,-0.70,-4.41,-4.40,-4.43
163.24,-3.42,1.05,-3.44,1.01,-1.01,0.25,-0.68,-4.43,-4.45,-4.47
164.88,-3.42,1.08,-3.45,1.03,-1.03,0.24,-0.66,-4.45,-4.48,-4.50
166.53,-3.42,1.11,-3.46,1.05,-1.05,0.24,-0.65,-4.47,-4.50,-4.53
168.19,-3.42,1.12,-3.46,1.06,-1.06,0.24,-0.63,-4.48,-4.52,-4.54
169.87,-3.42,1.13,-3.47,1.06,-1.06,0.24,-0.61,-4.48,-4.53,-4.55
171.57,-3.42,1.13,-3.49,1.04,-1.04,0.23,-0.60,-4.46,-4.53,-4.55
173.29,-3.56,0.98,-3.52,1.01,-1.01,0.23,-0.58,-4.57,-4.53,-4.54
175.02,-3.65,0.86,-3.56,0.97,-0.97,0.23,-0.57,-4.62,-4.52,-4.51
176.77,-3.65,0.86,-3.60,0.92,-0.92,0.23,-0.55,-4.57,-4.52,-4.51
178.54,-3.65,0.85,-3.65,0.86,-0.86,0.23,-0.54,-4.51,-4.51,-4.50
180.32,-3.65,0.83,-3.70,0.80,-0.80,0.22,-0.53,-4.45,-4.50,-4.48
182.13,-3.65,0.82,-3.74,0.75,-0.75,0.22,-0.51,-4.40,-4.49,-4.47
183.95,-3.74,0.72,-3.80,0.69,-0.69,0.22,-0.50,-4.43,-4.49,-4.46
185.79,-3.86,0.60,-3.85,0.63,-0.63,0.22,-0.49,-4.49,-4.49,-4.46
187.65,-3.87,0.61,-3.91,0.58,-0.58,0.22,-0.48,-4.45,-4.49,-4.48
189.52,-4.05,0.44,-3.96,0.53,-0.53,0.22,-0.47,-4.58,-4.49,-4.49
191.42,-4.10,0.40,-4.01,0.48,-0.48,0.21,-0.46,-4.58,-4.50,-4.50
193.33,-4.10,0.41,-4.06,0.45,-0.45,0.21,-0.45,-4.55,-4.51,-4.51
195.27,-4.10,0.42,-4.11,0.41,-0.41,0.21,-0.44,-4.51,-4.52,-4.52
197.22,-4.10,0.43,-4.16,0.37,-0.37,0.21,-0.43,-4.47,-4.53,-4.53
199.19,-4.11,0.45,-4.20,0.34,-0.34,0.21,-0.42,-4.45,-4.54,-4.56
201.18,-4.24,0.32,-4.24,0.32,-0.32,0.21,-0.41,-4.56,-4.56,-4.56
203.19,-4.33,0.24,-4.27,0.30,-0.30,0.21,-0.40,-4.63,-4.57,-4.57
205.23,-4.33,0.26,-4.29,0.30,-0.30,0.21,-0.39,-4.63,-4.58,-4.59
207.28,-4.33,0.26,-4.30,0.29,-0.29,0.21,-0.38,-4.62,-4.60,-4.59
209.35,-4.33,0.28,-4.31,0.29,-0.29,0.21,-0.37,-4.62,-4.61,-4.61
211.44,-4.33,0.30,-4.32,0.30,-0.30,0.21,-0.37,-4.63,-4.62,-4.63
213.56,-4.33,0.30,-4.33,0.29,-0.29,0.21,-0.36,-4.62,-4.63,-4.63
215.69,-4.33,0.29,-4.34,0.29,-0.29,0.21,-0.35,-4.62,-4.63,-4.62
217.85,-4.33,0.31,-4.35,0.30,-0.30,0.21,-0.34,-4.63,-4.64,-4.64
220.03,-4.33,0.32,-4.35,0.30,-0.30,0.21,-0.33,-4.63,-4.65,-4.65
222.23,-4.33,0.34,-4.34,0.31,-0.31,0.21,-0.32,-4.64,-4.66,-4.67
224.45,-4.33,0.33,-4.33,0.33,-0.33,0.21,-0.32,-4.66,-4.66,-4.66
226.70,-4.33,0.33,-4.33,0.34,-0.34,0.21,-0.31,-4.67,-4.67,-4.66
228.96,-4.33,0.34,-4.33,0.34,-0.34,0.21,-0.30,-4.67,-4.67,-4.67
231.25,-4.33,0.33,-4.33,0.34,-0.34,0.21,-0.29,-4.67,-4.67,-4.66
233.57,-4.33,0.34,-4.33,0.34,-0.34,0.22,-0.28,-4.67,-4.67,-4.67
235.90,-4.33,0.35,-4.33,0.34,-0.34,0.22,-0.26,-4.67,-4.67,-4.68
238.26,-4.33,0.34,-4.32,0.35,-0.35,0.22,-0.25,-4.68,-4.66,-4.67
240.64,-4.33,0.34,-4.31,0.35,-0.35,0.22,-0.24,-4.68,-4.66,-4.67
243.05,-4.33,0.32,-4.31,0.34,-0.34,0.22,-0.23,-4.67,-4.65,-4.65
245.48,-4.33,0.32,-4.32,0.33,-0.33,0.23,-0.21,-4.66,-4.65,-4.65
247.93,-4.33,0.30,-4.32,0.32,-0.32,0.23,-0.20,-4.65,-4.64,-4.63
250.41,-4.33,0.31,-4.34,0.30,-0.30,0.23,-0.18,-4.63,-4.63,-4.64
252.92,-4.33,0.29,-4.35,0.27,-0.27,0.24,-0.17,-4.60,-4.62,-4.62
255.45,-4.33,0.27,-4.37,0.24,-0.24,0.24,-0.15,-4.57,-4.61,-4.60
258.00,-4.33,0.26,-4.39,0.21,-0.21,0.24,-0.13,-4.54,-4.60,-4.59
260.58,-4.33,0.25,-4.41,0.17,-0.17,0.25,-0.11,-4.50,-4.58,-4.58
263.19,-4.35,0.22,-4.43,0.13,-0.13,0.25,-0.09,-4.48,-4.57,-4.57
265.82,-4.54,0.02,-4.46,0.10,-0.10,0.26,-0.07,-4.64,-4.55,-4.56
268.48,-4.56,-0.02,-4.48,0.06,-0.06,0.26,-0.05,-4.62,-4.53,-4.54
271.16,-4.56,-0.04,-4.50,0.01,-0.01,0.26,-0.03,-4.57,-4.51,-4.52
273.87,-4.56,-0.06,-4.52,-0.03,0.03,0.27,-0.01,-4.53,-4.49,-4.50
276.61,-4.56,-0.09,-4.53,-0.06,0.06,0.28,0.02,-4.50,-4.47,-4.47
279.38,-4.56,-0.11,-4.54,-0.10,0.10,0.28,0.04,-4.46,-4.44,-4.45
282.17,-4.56,-0.14,-4.55,-0.13,0.13,0.29,0.07,-4.43,-4.42,-4.42
284.99,-4.56,-0.16,-4.56,-0.16,0.16,0.30,0.09,-4.40,-4.39,-4.40
287.84,-4.56,-0.19,-4.57,-0.20,0.20,0.30,0.12,-4.36,-4.36,-4.37
290.72,-4.56,-0.23,-4.57,-0.24,0.24,0.31,0.15,-4.32,-4.33,-4.33
293.63,-4.56,-0.26,-4.58,-0.28,0.28,0.32,0.18,-4.28,-4.30,-4.30
296.57,-4.56,-0.28,-4.59,-0.31,0.31,0.33,0.20,-4.25,-4.28,-4.28
299.53,-4.56,-0.31,-4.60,-0.35,0.35,0.34,0.23,-4.21,-4.25,-4.25
302.53,-4.56,-0.33,-4.62,-0.40,0.40,0.34,0.26,-4.16,-4.23,-4.23
305.55,-4.56,-0.37,-4.65,-0.44,0.44,0.35,0.30,-4.12,-4.21,-4.19
308.61,-4.62,-0.44,-4.66,-0.47,0.47,0.37,0.33,-4.15,-4.19,-4.18
311.69,-4.77,-0.61,-4.67,-0.50,0.50,0.38,0.36,-4.27,-4.17,-4.16
314.81,-4.79,-0.66,-4.69,-0.54,0.54,0.39,0.39,-4.25,-4.16,-4.13
317.96,-4.79,-0.66,-4.72,-0.58,0.58,0.40,0.43,-4.21,-4.14,-4.13
321.14,-4.79,-0.66,-4.75,-0.61,0.61,0.41,0.46,-4.18,-4.13,-4.13
324.35,-4.79,-0.67,-4.77,-0.65,0.65,0.43,0.49,-4.14,-4.12,-4.12
327.59,-4.79,-0.67,-4.80,-0.69,0.69,0.44,0.53,-4.10,-4.11,-4.12
330.87,-4.79,-0.68,-4.83,-0.73,0.73,0.46,0.57,-4.06,-4.10,-4.11
334.18,-4.79,-0.69,-4.86,-0.77,0.77,0.47,0.60,-4.02,-4.09,-4.10
337.52,-4.79,-0.70,-4.88,-0.81,0.81,0.49,0.64,-3.98,-4.07,-4.09
340.90,-4.79,-0.73,-4.90,-0.84,0.84,0.51,0.68,-3.95,-4.06,-4.06
344.30,-4.96,-0.91,-4.92,-0.87,0.87,0.53,0.72,-4.09,-4.05,-4.05
347.75,-5.01,-0.98,-4.92,-0.89,0.89,0.55,0.76,-4.12,-4.03,-4.03
351.23,-5.01,-1.00,-4.93,-0.93,0.93,0.57,0.80,-4.08,-4.01,-4.01
354.74,-5.01,-1.02,-4.95,-0.97,0.97,0.59,0.84,-4.04,-3.98,-3.99
358.28,-5.01,-1.05,-4.97,-1.01,1.01,0.62,0.88,-4.00,-3.96,-3.96
361.87,-5.01,-1.07,-4.99,-1.06,1.06,0.64,0.93,-3.95,-3.94,-3.94
365.49,-5.01,-1.10,-5.02,-1.10,1.10,0.67,0.97,-3.91,-3.91,-3.91
369.14,-5.01,-1.12,-5.04,-1.15,1.15,0.69,1.01,-3.86,-3.89,-3.89
372.83,-5.01,-1.15,-5.06,-1.19,1.19,0.72,1.06,-3.82,-3.87,-3.86
376.56,-5.01,-1.17,-5.08,-1.23,1.23,0.75,1.10,-3.78,-3.85,-3.84
380.33,-5.01,-1.20,-5.10,-1.27,1.27,0.79,1.15,-3.74,-3.83,-3.81
384.13,-5.01,-1.21,-5.11,-1.30,1.30,0.82,1.19,-3.71,-3.81,-3.80
387.97,-5.17,-1.38,-5.13,-1.34,1.34,0.85,1.24,-3.83,-3.79,-3.79
391.85,-5.23,-1.45,-5.15,-1.37,1.37,0.89,1.29,-3.86,-3.78,-3.78
395.77,-5.24,-1.47,-5.17,-1.41,1.41,0.93,1.33,-3.83,-3.77,-3.77
399.73,-5.24,-1.48,-5.19,-1.44,1.44,0.97,1.38,-3.80,-3.76,-3.76
403.72,-5.24,-1.49,-5.21,-1.46,1.46,1.01,1.43,-3.78,-3.75,-3.75
407.76,-5.24,-1.50,-5.23,-1.49,1.49,1.06,1.47,-3.75,-3.74,-3.74
411.84,-5.24,-1.51,-5.24,-1.51,1.51,1.10,1.52,-3.73,-3.73,-3.73
415.96,-5.24,-1.52,-5.25,-1.52,1.52,1.15,1.56,-3.72,-3.73,-3.72
420.12,-5.24,-1.52,-5.26,-1.53,1.53,1.20,1.61,-3.71,-3.73,-3.72
424.32,-5.24,-1.52,-5.26,-1.53,1.53,1.25,1.65,-3.71,-3.72,-3.72
428.56,-5.24,-1.52,-5.25,-1.53,1.53,1.30,1.69,-3.71,-3.72,-3.72
432.85,-5.24,-1.52,-5.24,-1.53,1.53,1.36,1.73,-3.71,-3.72,-3.72
437.18,-5.24,-1.53,-5.24,-1.53,1.53,1.41,1.77,-3.71,-3.71,-3.71
441.55,-5.24,-1.54,-5.24,-1.53,1.53,1.47,1.81,-3.71,-3.71,-3.70
