frequency,raw,error,smoothed,error_smoothed,equalization,parametric_eq,fixed_band_eq,equalized_raw,equalized_smoothed,target
20.00,-14.46,-13.54,-14.46,-13.54,6.00,6.21,2.71,-8.46,-8.46,-0.92
20.20,-14.35,-13.52,-14.34,-13.51,6.00,6.21,2.78,-8.35,-8.34,-0.83
20.40,-14.22,-13.48,-14.23,-13.48,6.00,6.21,2.86,-8.22,-8.23,-0.75
20.61,-14.12,-13.44,-14.11,-13.45,6.00,6.21,2.94,-8.12,-8.11,-0.68
20.81,-13.99,-13.41,-14.00,-13.41,6.00,6.20,3.03,-7.99,-8.00,-0.59
21.02,-13.89,-13.38,-13.88,-13.37,6.00,6.20,3.11,-7.89,-7.88,-0.51
21.23,-13.77,-13.32,-13.76,-13.32,6.00,6.20,3.20,-7.77,-7.76,-0.45
21.44,-13.64,-13.26,-13.65,-13.26,6.00,6.20,3.29,-7.64,-7.65,-0.39
21.66,-13.54,-13.20,-13.53,-13.19,6.00,6.20,3.39,-7.54,-7.53,-0.34
21.87,-13.41,-13.13,-13.41,-13.13,6.00,6.20,3.48,-7.41,-7.41,-0.29
22.09,-13.29,-13.06,-13.30,-13.06,6.00,6.20,3.58,-7.29,-7.30,-0.24
22.31,-13.17,-12.99,-13.18,-12.99,6.00,6.19,3.68,-7.17,-7.18,-0.19
22.54,-13.07,-12.92,-13.06,-12.91,6.00,6.19,3.79,-7.07,-7.06,-0.15
22.76,-12.94,-12.84,-12.95,-12.84,6.00,6.19,3.90,-6.94,-6.95,-0.11
22.99,-12.84,-12.76,-12.83,-12.76,6.00,6.19,4.00,-6.84,-6.83,-0.08
23.22,-12.72,-12.68,-12.71,-12.68,6.00,6.19,4.12,-6.72,-6.71,-0.04
23.45,-12.59,-12.60,-12.60,-12.60,6.00,6.19,4.23,-6.59,-6.60,0.00
23.69,-12.48,-12.52,-12.48,-12.52,6.00,6.18,4.35,-6.48,-6.48,0.04
23.92,-12.36,-12.44,-12.36,-12.44,6.00,6.18,4.47,-6.36,-6.36,0.08
24.16,-12.24,-12.37,-12.24,-12.37,6.00,6.18,4.59,-6.24,-6.24,0.13
24.40,-12.12,-12.28,-12.13,-12.29,6.00,6.18,4.72,-6.12,-6.13,0.16
24.65,-12.02,-12.20,-12.01,-12.20,6.00,6.18,4.84,-6.02,-6.01,0.19
24.89,-11.89,-12.11,-11.89,-12.11,6.00,6.17,4.97,-5.89,-5.89,0.22
25.14,-11.77,-12.03,-11.77,-12.03,6.00,6.17,5.10,-5.77,-5.77,0.26
25.39,-11.65,-11.94,-11.65,-11.94,6.00,6.17,5.23,-5.65,-5.65,0.29
25.65,-11.54,-11.86,-11.54,-11.86,6.00,6.17,5.36,-5.54,-5.54,0.33
25.91,-11.42,-11.76,-11.42,-11.77,6.00,6.16,5.49,-5.42,-5.42,0.35
26.16,-11.30,-11.68,-11.30,-11.68,6.00,6.16,5.62,-5.30,-5.30,0.38
26.43,-11.19,-11.60,-11.19,-11.60,6.00,6.16,5.76,-5.19,-5.19,0.41
26.69,-11.08,-11.52,-11.08,-11.52,6.00,6.16,5.89,-5.08,-5.08,0.44
26.96,-10.97,-11.44,-10.96,-11.44,6.00,6.15,6.02,-4.97,-4.96,0.47
27.23,-10.85,-11.36,-10.85,-11.36,6.00,6.15,6.14,-4.85,-4.85,0.51
27.50,-10.74,-11.28,-10.73,-11.27,6.00,6.15,6.27,-4.74,-4.73,0.54
27.77,-10.61,-11.18,-10.62,-11.19,6.00,6.15,6.39,-4.61,-4.62,0.56
28.05,-10.50,-11.11,-10.50,-11.10,6.00,6.14,6.51,-4.50,-4.50,0.60
28.33,-10.39,-11.01,-10.39,-11.01,6.00,6.14,6.62,-4.39,-4.39,0.62
28.62,-10.28,-10.93,-10.28,-10.93,6.00,6.14,6.72,-4.28,-4.28,0.65
28.90,-10.16,-10.85,-10.17,-10.85,6.00,6.13,6.82,-4.16,-4.17,0.69
29.19,-10.06,-10.76,-10.05,-10.77,6.00,6.13,6.92,-4.06,-4.05,0.71
29.48,-9.94,-10.70,-9.94,-10.69,6.00,6.13,7.00,-3.94,-3.94,0.76
29.78,-9.83,-10.60,-9.83,-10.61,6.00,6.12,7.08,-3.83,-3.83,0.77
30.08,-9.73,-10.53,-9.73,-10.53,6.00,6.12,7.14,-3.73,-3.73,0.80
30.38,-9.63,-10.46,-9.62,-10.45,6.00,6.12,7.20,-3.63,-3.62,0.83
30.68,-9.53,-10.39,-9.53,-10.38,6.00,6.11,7.25,-3.53,-3.53,0.86
30.99,-9.43,-10.31,-9.43,-10.31,6.00,6.11,7.29,-3.43,-3.43,0.88
31.30,-9.34,-10.25,-9.33,-10.24,6.00,6.10,7.32,-3.34,-3.33,0.91
31.61,-9.24,-10.17,-9.24,-10.17,6.00,6.10,7.34,-3.24,-3.24,0.94
31.93,-9.14,-10.09,-9.14,-10.10,6.00,6.10,7.34,-3.14,-3.14,0.96
32.24,-9.04,-10.02,-9.04,-10.02,6.00,6.09,7.34,-3.04,-3.04,0.98
32.57,-8.95,-9.95,-8.95,-9.95,6.00,6.09,7.33,-2.95,-2.95,1.00
32.89,-8.84,-9.88,-8.85,-9.88,6.00,6.08,7.31,-2.84,-2.85,1.03
33.22,-8.75,-9.81,-8.75,-9.80,6.00,6.08,7.27,-2.75,-2.75,1.05
33.55,-8.65,-9.72,-8.66,-9.73,6.00,6.07,7.24,-2.65,-2.66,1.07
33.89,-8.57,-9.64,-8.57,-9.65,6.00,6.07,7.19,-2.57,-2.57,1.08
34.23,-8.48,-9.58,-8.47,-9.57,6.00,6.06,7.14,-2.48,-2.47,1.11
34.57,-8.39,-9.50,-8.38,-9.50,6.00,6.06,7.08,-2.39,-2.38,1.11
34.92,-8.29,-9.41,-8.29,-9.42,6.00,6.05,7.02,-2.29,-2.29,1.12
35.27,-8.20,-9.34,-8.20,-9.33,6.00,6.04,6.96,-2.20,-2.20,1.14
35.62,-8.11,-9.24,-8.11,-9.25,6.00,6.04,6.89,-2.11,-2.11,1.14
35.97,-8.01,-9.16,-8.01,-9.17,6.00,6.03,6.81,-2.01,-2.01,1.15
36.33,-7.92,-9.09,-7.92,-9.08,6.00,6.02,6.74,-1.92,-1.92,1.16
36.70,-7.83,-8.99,-7.83,-8.99,6.00,6.02,6.67,-1.83,-1.83,1.16
37.06,-7.73,-8.89,-7.74,-8.90,6.00,6.01,6.59,-1.73,-1.74,1.16
37.43,-7.64,-8.81,-7.64,-8.81,6.00,6.00,6.52,-1.64,-1.64,1.17
37.81,-7.56,-8.72,-7.55,-8.72,6.00,6.00,6.44,-1.56,-1.55,1.16
38.19,-7.46,-8.62,-7.46,-8.63,6.00,5.99,6.37,-1.46,-1.46,1.16
38.57,-7.37,-8.53,-7.37,-8.53,6.00,5.98,6.30,-1.37,-1.37,1.17
38.95,-7.27,-8.44,-7.27,-8.44,6.00,5.97,6.23,-1.27,-1.27,1.17
39.34,-7.18,-8.34,-7.18,-8.34,6.00,5.96,6.16,-1.18,-1.18,1.15
39.74,-7.09,-8.24,-7.09,-8.24,6.00,5.95,6.10,-1.09,-1.09,1.15
40.14,-7.00,-8.14,-7.00,-8.14,6.00,5.95,6.04,-1.00,-1.00,1.15
40.54,-6.91,-8.05,-6.91,-8.05,6.00,5.94,5.98,-0.91,-0.91,1.14
40.94,-6.81,-7.96,-6.82,-7.96,6.00,5.93,5.93,-0.81,-0.82,1.14
41.35,-6.73,-7.86,-6.72,-7.86,6.00,5.92,5.88,-0.73,-0.72,1.14
41.76,-6.62,-7.76,-6.62,-7.76,6.00,5.91,5.83,-0.62,-0.62,1.13
42.18,-6.52,-7.65,-6.52,-7.65,6.00,5.90,5.79,-0.52,-0.52,1.13
42.60,-6.41,-7.53,-6.42,-7.54,6.00,5.88,5.75,-0.41,-0.42,1.11
43.03,-6.32,-7.44,-6.31,-7.43,6.00,5.87,5.72,-0.32,-0.31,1.12
43.46,-6.22,-7.32,-6.21,-7.32,6.00,5.86,5.69,-0.22,-0.21,1.11
43.90,-6.12,-7.21,-6.12,-7.21,6.00,5.85,5.66,-0.12,-0.12,1.09
44.33,-6.02,-7.10,-6.02,-7.10,6.00,5.84,5.64,-0.02,-0.02,1.08
44.78,-5.93,-7.00,-5.93,-6.99,6.00,5.82,5.62,0.07,0.07,1.07
45.23,-5.83,-6.88,-5.83,-6.88,6.00,5.81,5.61,0.17,0.17,1.06
45.68,-5.73,-6.78,-5.73,-6.78,6.00,5.80,5.60,0.27,0.27,1.05
46.13,-5.62,-6.67,-5.63,-6.68,6.00,5.78,5.60,0.38,0.37,1.05
46.60,-5.54,-6.59,-5.53,-6.58,6.00,5.77,5.60,0.46,0.47,1.05
47.06,-5.45,-6.49,-5.44,-6.49,6.00,5.75,5.60,0.56,0.56,1.04
47.53,-5.35,-6.39,-5.36,-6.40,6.01,5.74,5.61,0.65,0.65,1.04
48.01,-5.28,-6.32,-5.27,-6.31,6.01,5.72,5.62,0.73,0.74,1.04
48.49,-5.20,-6.23,-5.19,-6.23,6.01,5.70,5.64,0.81,0.81,1.04
48.97,-5.12,-6.14,-5.12,-6.15,6.00,5.69,5.66,0.88,0.87,1.03
49.46,-5.06,-6.07,-5.05,-6.07,5.98,5.67,5.68,0.93,0.93,1.01
49.96,-5.00,-6.00,-4.99,-6.00,5.96,5.65,5.71,0.96,0.97,1.00
50.46,-4.93,-5.94,-4.93,-5.94,5.93,5.63,5.73,1.00,1.00,1.02
50.96,-4.87,-5.89,-4.87,-5.89,5.90,5.61,5.76,1.03,1.03,1.03
51.47,-4.82,-5.84,-4.82,-5.84,5.86,5.59,5.79,1.04,1.04,1.02
51.99,-4.78,-5.80,-4.78,-5.80,5.82,5.57,5.83,1.04,1.04,1.02
52.51,-4.75,-5.78,-4.74,-5.77,5.78,5.55,5.86,1.03,1.04,1.03
53.03,-4.72,-5.75,-4.71,-5.75,5.74,5.53,5.89,1.03,1.03,1.03
53.56,-4.69,-5.72,-4.68,-5.72,5.71,5.51,5.93,1.03,1.03,1.03
54.10,-4.66,-5.69,-4.66,-5.69,5.69,5.48,5.96,1.03,1.03,1.04
54.64,-4.64,-5.66,-4.64,-5.67,5.67,5.46,5.99,1.04,1.03,1.02
55.18,-4.63,-5.65,-4.63,-5.65,5.66,5.43,6.02,1.03,1.03,1.02
55.74,-4.63,-5.64,-4.62,-5.64,5.65,5.41,6.05,1.02,1.02,1.01
56.29,-4.63,-5.64,-4.63,-5.64,5.64,5.38,6.08,1.01,1.01,1.01
56.86,-4.64,-5.64,-4.63,-5.64,5.64,5.35,6.10,1.00,1.00,1.00
57.42,-4.65,-5.63,-4.64,-5.64,5.64,5.32,6.12,0.99,0.99,0.99
58.00,-4.66,-5.64,-4.66,-5.64,5.64,5.29,6.13,0.99,0.99,0.99
58.58,-4.67,-5.64,-4.67,-5.64,5.64,5.26,6.14,0.98,0.98,0.97
59.16,-4.68,-5.65,-4.67,-5.64,5.64,5.23,6.14,0.96,0.96,0.97
59.76,-4.69,-5.64,-4.68,-5.64,5.63,5.20,6.13,0.95,0.95,0.96
60.35,-4.69,-5.62,-4.69,-5.63,5.62,5.17,6.12,0.94,0.93,0.93
60.96,-4.70,-5.62,-4.69,-5.61,5.60,5.13,6.10,0.91,0.91,0.93
61.57,-4.69,-5.58,-4.69,-5.58,5.58,5.10,6.07,0.90,0.89,0.89
62.18,-4.68,-5.54,-4.68,-5.55,5.55,5.06,6.03,0.88,0.88,0.87
62.80,-4.67,-5.53,-4.66,-5.51,5.52,5.02,5.99,0.86,0.86,0.86
63.43,-4.64,-5.47,-4.64,-5.48,5.48,4.99,5.94,0.85,0.84,0.84
64.07,-4.62,-5.44,-4.61,-5.44,5.44,4.95,5.88,0.83,0.83,0.83
64.71,-4.58,-5.40,-4.58,-5.39,5.40,4.91,5.81,0.83,0.82,0.82
65.35,-4.54,-5.35,-4.54,-5.35,5.35,4.86,5.73,0.82,0.82,0.81
66.01,-4.49,-5.30,-4.49,-5.30,5.30,4.82,5.64,0.81,0.81,0.81
66.67,-4.44,-5.25,-4.43,-5.25,5.24,4.78,5.55,0.81,0.81,0.82
67.33,-4.36,-5.18,-4.37,-5.18,5.18,4.73,5.46,0.81,0.81,0.82
68.01,-4.30,-5.11,-4.29,-5.11,5.10,4.68,5.35,0.81,0.81,0.82
68.69,-4.21,-5.02,-4.21,-5.02,5.02,4.64,5.24,0.82,0.82,0.82
69.37,-4.11,-4.94,-4.11,-4.94,4.94,4.59,5.13,0.82,0.82,0.82
70.07,-4.02,-4.84,-4.01,-4.84,4.84,4.54,5.01,0.83,0.83,0.82
70.77,-3.91,-4.74,-3.91,-4.74,4.74,4.48,4.88,0.83,0.83,0.84
71.48,-3.80,-4.63,-3.80,-4.63,4.63,4.43,4.75,0.84,0.83,0.84
72.19,-3.69,-4.52,-3.69,-4.52,4.52,4.38,4.62,0.84,0.84,0.83
72.91,-3.57,-4.41,-3.57,-4.41,4.41,4.32,4.49,0.83,0.83,0.84
73.64,-3.45,-4.29,-3.45,-4.29,4.29,4.26,4.35,0.84,0.84,0.83
74.38,-3.34,-4.17,-3.34,-4.17,4.18,4.20,4.22,0.84,0.84,0.84
75.12,-3.21,-4.05,-3.22,-4.05,4.06,4.14,4.08,0.84,0.84,0.83
75.87,-3.10,-3.94,-3.10,-3.94,3.94,4.08,3.94,0.84,0.84,0.84
76.63,-2.99,-3.83,-2.99,-3.83,3.83,4.01,3.80,0.83,0.83,0.84
77.40,-2.89,-3.72,-2.89,-3.72,3.71,3.95,3.66,0.83,0.83,0.83
78.17,-2.77,-3.60,-2.77,-3.61,3.60,3.88,3.52,0.83,0.83,0.82
78.95,-2.66,-3.51,-2.66,-3.50,3.50,3.81,3.38,0.83,0.84,0.84
79.74,-2.54,-3.39,-2.55,-3.39,3.39,3.74,3.25,0.85,0.84,0.84
80.54,-2.44,-3.28,-2.44,-3.29,3.29,3.67,3.11,0.85,0.85,0.84
81.35,-2.34,-3.19,-2.33,-3.19,3.19,3.59,2.97,0.86,0.86,0.85
82.16,-2.24,-3.10,-2.23,-3.10,3.10,3.52,2.84,0.86,0.86,0.86
82.98,-2.14,-3.02,-2.13,-3.01,3.01,3.44,2.70,0.87,0.88,0.88
83.81,-2.03,-2.91,-2.03,-2.92,2.92,3.36,2.57,0.90,0.89,0.89
84.65,-1.93,-2.82,-1.93,-2.83,2.84,3.28,2.43,0.91,0.91,0.90
85.50,-1.84,-2.76,-1.83,-2.75,2.75,3.19,2.30,0.92,0.92,0.92
86.35,-1.75,-2.68,-1.75,-2.68,2.67,3.11,2.17,0.93,0.92,0.94
87.22,-1.66,-2.60,-1.65,-2.60,2.59,3.02,2.04,0.93,0.94,0.94
88.09,-1.56,-2.51,-1.55,-2.51,2.51,2.93,1.92,0.95,0.96,0.96
88.97,-1.45,-2.42,-1.45,-2.42,2.43,2.84,1.79,0.98,0.97,0.97
89.86,-1.37,-2.34,-1.37,-2.34,2.35,2.75,1.67,0.98,0.98,0.98
90.76,-1.29,-2.26,-1.28,-2.26,2.27,2.65,1.54,0.98,0.98,0.97
91.66,-1.21,-2.19,-1.21,-2.18,2.19,2.56,1.42,0.97,0.98,0.97
92.58,-1.14,-2.09,-1.14,-2.10,2.10,2.46,1.30,0.97,0.97,0.96
93.51,-1.07,-2.03,-1.07,-2.02,2.02,2.36,1.18,0.95,0.95,0.96
94.44,-1.00,-1.94,-1.00,-1.94,1.93,2.26,1.06,0.93,0.93,0.94
95.39,-0.93,-1.85,-0.92,-1.85,1.83,2.15,0.95,0.91,0.91,0.92
96.34,-0.85,-1.74,-0.84,-1.74,1.73,2.04,0.83,0.89,0.89,0.90
97.30,-0.77,-1.62,-0.77,-1.63,1.63,1.94,0.72,0.86,0.86,0.86
98.28,-0.69,-1.52,-0.69,-1.52,1.52,1.82,0.60,0.84,0.83,0.83
99.26,-0.63,-1.42,-0.62,-1.41,1.42,1.71,0.49,0.79,0.80,0.79
100.25,-0.55,-1.30,-0.55,-1.30,1.31,1.60,0.38,0.77,0.76,0.75
101.25,-0.49,-1.20,-0.48,-1.19,1.21,1.48,0.28,0.72,0.72,0.71
102.27,-0.42,-1.09,-0.42,-1.10,1.10,1.36,0.17,0.69,0.68,0.67
103.29,-0.38,-1.00,-0.37,-1.00,1.00,1.24,0.06,0.62,0.63,0.62
104.32,-0.33,-0.92,-0.32,-0.91,0.89,1.12,-0.04,0.57,0.58,0.59
105.37,-0.26,-0.80,-0.26,-0.80,0.79,1.00,-0.14,0.53,0.53,0.55
106.42,-0.19,-0.69,-0.18,-0.69,0.68,0.87,-0.23,0.50,0.50,0.51
107.48,-0.11,-0.57,-0.11,-0.57,0.58,0.75,-0.33,0.47,0.47,0.47
108.56,-0.04,-0.46,-0.03,-0.46,0.47,0.62,-0.42,0.43,0.43,0.43
109.64,0.04,-0.34,0.04,-0.35,0.36,0.49,-0.51,0.40,0.39,0.39
110.74,0.10,-0.25,0.11,-0.25,0.25,0.36,-0.60,0.35,0.36,0.36
111.85,0.18,-0.15,0.19,-0.14,0.14,0.23,-0.68,0.32,0.32,0.33
112.97,0.26,-0.02,0.26,-0.03,0.03,0.10,-0.76,0.30,0.29,0.28
114.10,0.33,0.07,0.33,0.08,-0.07,-0.03,-0.83,0.26,0.26,0.26
115.24,0.40,0.18,0.40,0.17,-0.17,-0.16,-0.90,0.23,0.22,0.22
116.39,0.45,0.26,0.46,0.26,-0.27,-0.30,-0.97,0.18,0.19,0.20
117.55,0.52,0.35,0.54,0.36,-0.37,-0.43,-1.03,0.16,0.17,0.18
118.73,0.62,0.47,0.62,0.46,-0.46,-0.56,-1.09,0.16,0.16,0.15
119.92,0.70,0.56,0.70,0.56,-0.55,-0.68,-1.14,0.15,0.15,0.14
121.12,0.78,0.66,0.77,0.65,-0.64,-0.81,-1.19,0.14,0.13,0.13
122.33,0.83,0.72,0.84,0.73,-0.73,-0.93,-1.23,0.10,0.11,0.11
123.55,0.90,0.80,0.92,0.82,-0.82,-1.06,-1.27,0.09,0.10,0.11
124.79,1.00,0.91,1.00,0.90,-0.90,-1.17,-1.30,0.10,0.09,0.09
126.03,1.08,1.00,1.07,0.99,-0.98,-1.29,-1.33,0.10,0.08,0.08
127.29,1.12,1.05,1.13,1.06,-1.06,-1.39,-1.35,0.06,0.07,0.07
128.57,1.17,1.13,1.19,1.14,-1.14,-1.50,-1.37,0.03,0.05,0.05
129.85,1.26,1.22,1.25,1.22,-1.22,-1.60,-1.38,0.04,0.03,0.04
131.15,1.33,1.30,1.32,1.29,-1.30,-1.69,-1.39,0.04,0.02,0.03
132.46,1.37,1.37,1.39,1.38,-1.37,-1.77,-1.39,0.00,0.02,0.01
133.79,1.44,1.44,1.45,1.45,-1.45,-1.86,-1.39,-0.00,0.00,0.01
135.12,1.52,1.54,1.51,1.52,-1.52,-1.93,-1.38,0.00,-0.01,-0.02
136.48,1.56,1.59,1.56,1.59,-1.59,-1.99,-1.37,-0.03,-0.03,-0.03
137.84,1.60,1.65,1.61,1.66,-1.66,-2.05,-1.35,-0.06,-0.05,-0.05
139.22,1.64,1.72,1.65,1.72,-1.72,-2.10,-1.34,-0.08,-0.07,-0.08
140.61,1.69,1.79,1.69,1.79,-1.78,-2.13,-1.32,-0.09,-0.09,-0.10
142.02,1.74,1.85,1.74,1.85,-1.84,-2.17,-1.29,-0.10,-0.10,-0.10
143.44,1.76,1.89,1.77,1.90,-1.89,-2.19,-1.27,-0.13,-0.12,-0.12
144.87,1.79,1.94,1.79,1.94,-1.94,-2.21,-1.24,-0.14,-0.15,-0.15
146.32,1.80,1.98,1.81,1.98,-1.98,-2.21,-1.21,-0.18,-0.17,-0.18
147.78,1.82,2.02,1.82,2.02,-2.02,-2.22,-1.18,-0.20,-0.20,-0.19
149.26,1.83,2.05,1.84,2.06,-2.06,-2.21,-1.14,-0.22,-0.22,-0.22
150.75,1.84,2.10,1.84,2.09,-2.09,-2.20,-1.11,-0.24,-0.25,-0.25
152.26,1.84,2.12,1.84,2.12,-2.12,-2.18,-1.07,-0.27,-0.28,-0.28
153.78,1.83,2.14,1.84,2.14,-2.15,-2.16,-1.04,-0.32,-0.31,-0.30
155.32,1.83,2.17,1.84,2.17,-2.18,-2.13,-1.00,-0.35,-0.34,-0.33
156.88,1.84,2.20,1.84,2.20,-2.21,-2.10,-0.96,-0.36,-0.37,-0.36
158.44,1.83,2.23,1.83,2.23,-2.24,-2.06,-0.92,-0.40,-0.40,-0.40
160.03,1.82,2.26,1.83,2.26,-2.26,-2.02,-0.88,-0.44,-0.43,-0.43
161.63,1.81,2.29,1.82,2.29,-2.28,-1.98,-0.85,-0.47,-0.47,-0.47
163.24,1.80,2.31,1.80,2.30,-2.30,-1.93,-0.81,-0.49,-0.50,-0.50
164.88,1.77,2.31,1.78,2.31,-2.31,-1.89,-0.77,-0.53,-0.53,-0.53
166.53,1.74,2.31,1.75,2.31,-2.31,-1.84,-0.73,-0.56,-0.56,-0.56
168.19,1.71,2.30,1.71,2.30,-2.30,-1.79,-0.70,-0.58,-0.59,-0.59
169.87,1.65,2.27,1.66,2.28,-2.28,-1.74,-0.66,-0.62,-0.62,-0.62
171.57,1.60,2.25,1.60,2.25,-2.25,-1.68,-0.62,-0.65,-0.65,-0.65
173.29,1.54,2.22,1.54,2.21,-2.21,-1.63,-0.59,-0.67,-0.68,-0.67
175.02,1.45,2.15,1.46,2.16,-2.16,-1.58,-0.55,-0.71,-0.70,-0.70
176.77,1.38,2.11,1.38,2.11,-2.10,-1.53,-0.52,-0.72,-0.72,-0.73
178.54,1.29,2.05,1.30,2.05,-2.04,-1.47,-0.48,-0.74,-0.74,-0.75
180.32,1.20,1.97,1.20,1.97,-1.96,-1.42,-0.45,-0.76,-0.76,-0.77
182.13,1.10,1.89,1.09,1.88,-1.88,-1.37,-0.42,-0.77,-0.78,-0.78
183.95,0.97,1.77,0.98,1.78,-1.78,-1.32,-0.38,-0.81,-0.80,-0.80
185.79,0.86,1.67,0.87,1.68,-1.69,-1.27,-0.35,-0.82,-0.81,-0.81
187.65,0.76,1.59,0.76,1.58,-1.58,-1.22,-0.32,-0.82,-0.82,-0.82
189.52,0.65,1.48,0.65,1.48,-1.48,-1.17,-0.29,-0.82,-0.82,-0.83
191.42,0.53,1.37,0.54,1.37,-1.37,-1.12,-0.26,-0.83,-0.83,-0.84
193.33,0.41,1.25,0.42,1.25,-1.26,-1.08,-0.23,-0.84,-0.84,-0.84
195.27,0.29,1.14,0.30,1.14,-1.15,-1.03,-0.20,-0.85,-0.85,-0.84
197.22,0.18,1.04,0.18,1.04,-1.04,-0.99,-0.17,-0.85,-0.86,-0.85
199.19,0.06,0.94,0.06,0.93,-0.93,-0.94,-0.14,-0.86,-0.86,-0.87
201.18,-0.06,0.82,-0.05,0.82,-0.82,-0.90,-0.11,-0.87,-0.87,-0.87
203.19,-0.17,0.71,-0.17,0.71,-0.71,-0.86,-0.08,-0.87,-0.88,-0.87
205.23,-0.28,0.61,-0.28,0.60,-0.60,-0.81,-0.06,-0.88,-0.88,-0.88
207.28,-0.40,0.49,-0.39,0.50,-0.50,-0.77,-0.03,-0.90,-0.89,-0.88
209.35,-0.50,0.40,-0.49,0.40,-0.40,-0.73,-0.01,-0.90,-0.90,-0.89
211.44,-0.60,0.32,-0.59,0.31,-0.31,-0.69,0.02,-0.91,-0.91,-0.91
213.56,-0.68,0.24,-0.69,0.22,-0.23,-0.65,0.04,-0.90,-0.91,-0.91
215.69,-0.78,0.13,-0.77,0.14,-0.15,-0.61,0.07,-0.92,-0.92,-0.91
217.85,-0.87,0.06,-0.85,0.07,-0.07,-0.57,0.09,-0.94,-0.93,-0.93
220.03,-0.93,0.01,-0.93,0.01,-0.00,-0.53,0.11,-0.93,-0.93,-0.93
222.23,-0.99,-0.03,-1.00,-0.05,0.06,-0.49,0.14,-0.92,-0.93,-0.95
224.45,-1.07,-0.12,-1.06,-0.11,0.12,-0.46,0.16,-0.95,-0.95,-0.95
226.70,-1.14,-0.18,-1.13,-0.18,0.17,-0.42,0.18,-0.97,-0.96,-0.96
228.96,-1.20,-0.23,-1.19,-0.23,0.21,-0.38,0.20,-0.98,-0.98,-0.96
231.25,-1.24,-0.27,-1.24,-0.26,0.25,-0.34,0.22,-0.99,-0.99,-0.97
233.57,-1.27,-0.28,-1.27,-0.29,0.28,-0.30,0.24,-0.98,-0.99,-0.99
235.90,-1.32,-0.31,-1.31,-0.31,0.31,-0.27,0.26,-1.00,-1.00,-1.00
238.26,-1.35,-0.33,-1.35,-0.33,0.34,-0.23,0.27,-1.00,-1.00,-1.02
240.64,-1.39,-0.35,-1.38,-0.36,0.37,-0.19,0.29,-1.02,-1.02,-1.03
243.05,-1.43,-0.39,-1.43,-0.39,0.40,-0.15,0.31,-1.03,-1.03,-1.04
245.48,-1.47,-0.42,-1.47,-0.43,0.43,-0.11,0.32,-1.04,-1.04,-1.04
247.93,-1.53,-0.48,-1.52,-0.47,0.46,-0.07,0.33,-1.06,-1.05,-1.05
250.41,-1.56,-0.49,-1.56,-0.50,0.50,-0.03,0.35,-1.06,-1.06,-1.06
252.92,-1.60,-0.55,-1.59,-0.54,0.54,0.01,0.36,-1.06,-1.05,-1.05
255.45,-1.62,-0.57,-1.62,-0.57,0.57,0.06,0.37,-1.04,-1.05,-1.04
258.00,-1.65,-0.61,-1.65,-0.61,0.61,0.10,0.39,-1.04,-1.04,-1.04
260.58,-1.68,-0.65,-1.67,-0.64,0.65,0.15,0.40,-1.03,-1.03,-1.03
263.19,-1.70,-0.68,-1.70,-0.68,0.68,0.19,0.41,-1.02,-1.02,-1.01
265.82,-1.72,-0.71,-1.71,-0.71,0.71,0.24,0.42,-1.01,-1.00,-1.01
268.48,-1.73,-0.74,-1.73,-0.74,0.74,0.29,0.43,-0.99,-0.99,-0.98
271.16,-1.74,-0.77,-1.74,-0.77,0.77,0.35,0.43,-0.97,-0.97,-0.96
273.87,-1.76,-0.81,-1.75,-0.81,0.80,0.40,0.44,-0.96,-0.95,-0.95
276.61,-1.77,-0.84,-1.76,-0.84,0.83,0.45,0.45,-0.93,-0.93,-0.92
279.38,-1.78,-0.86,-1.77,-0.86,0.87,0.51,0.46,-0.91,-0.91,-0.91
282.17,-1.79,-0.89,-1.79,-0.89,0.91,0.57,0.47,-0.88,-0.88,-0.90
284.99,-1.81,-0.92,-1.81,-0.93,0.95,0.64,0.47,-0.86,-0.87,-0.88
287.84,-1.86,-0.99,-1.85,-0.99,0.99,0.70,0.48,-0.86,-0.86,-0.86
290.72,-1.89,-1.05,-1.88,-1.04,1.04,0.77,0.49,-0.85,-0.84,-0.84
293.63,-1.92,-1.09,-1.92,-1.10,1.09,0.84,0.50,-0.83,-0.83,-0.83
296.57,-1.95,-1.14,-1.95,-1.15,1.14,0.91,0.50,-0.81,-0.81,-0.80
299.53,-1.99,-1.20,-1.98,-1.19,1.19,0.99,0.51,-0.80,-0.79,-0.78
302.53,-2.02,-1.24,-2.01,-1.24,1.24,1.07,0.52,-0.78,-0.77,-0.78
305.55,-2.03,-1.29,-2.03,-1.29,1.29,1.16,0.53,-0.74,-0.74,-0.74
308.61,-2.05,-1.33,-2.05,-1.33,1.33,1.24,0.53,-0.71,-0.72,-0.72
311.69,-2.07,-1.37,-2.06,-1.38,1.37,1.33,0.54,-0.69,-0.69,-0.69
314.81,-2.08,-1.42,-2.08,-1.42,1.41,1.42,0.55,-0.66,-0.67,-0.65
317.96,-2.10,-1.46,-2.09,-1.46,1.45,1.52,0.56,-0.65,-0.64,-0.64
321.14,-2.11,-1.49,-2.11,-1.50,1.49,1.61,0.57,-0.62,-0.62,-0.62
324.35,-2.14,-1.54,-2.13,-1.53,1.53,1.71,0.58,-0.61,-0.60,-0.60
327.59,-2.15,-1.57,-2.14,-1.57,1.57,1.80,0.59,-0.57,-0.57,-0.57
330.87,-2.16,-1.60,-2.16,-1.61,1.62,1.90,0.60,-0.53,-0.54,-0.55
334.18,-2.19,-1.66,-2.19,-1.66,1.68,1.99,0.61,-0.51,-0.51,-0.52
337.52,-2.24,-1.73,-2.23,-1.73,1.74,2.08,0.62,-0.50,-0.49,-0.51
340.90,-2.28,-1.80,-2.28,-1.80,1.80,2.16,0.63,-0.47,-0.47,-0.48
344.30,-2.34,-1.89,-2.33,-1.88,1.88,2.24,0.64,-0.46,-0.45,-0.45
347.75,-2.38,-1.95,-2.38,-1.95,1.96,2.31,0.65,-0.42,-0.42,-0.43
351.23,-2.44,-2.03,-2.43,-2.03,2.03,2.37,0.67,-0.40,-0.40,-0.40
354.74,-2.49,-2.11,-2.49,-2.11,2.11,2.42,0.68,-0.38,-0.38,-0.37
358.28,-2.55,-2.19,-2.54,-2.19,2.18,2.45,0.70,-0.36,-0.36,-0.35
361.87,-2.59,-2.26,-2.59,-2.26,2.25,2.48,0.71,-0.34,-0.34,-0.32
365.49,-2.63,-2.33,-2.62,-2.32,2.32,2.49,0.73,-0.31,-0.31,-0.30
369.14,-2.66,-2.37,-2.65,-2.37,2.38,2.48,0.74,-0.28,-0.27,-0.29
372.83,-2.67,-2.41,-2.68,-2.42,2.43,2.46,0.76,-0.23,-0.24,-0.26
376.56,-2.71,-2.47,-2.70,-2.47,2.48,2.43,0.77,-0.22,-0.22,-0.24
380.33,-2.74,-2.54,-2.73,-2.53,2.53,2.39,0.79,-0.21,-0.21,-0.20
384.13,-2.77,-2.57,-2.76,-2.57,2.56,2.33,0.81,-0.20,-0.20,-0.19
387.97,-2.78,-2.60,-2.78,-2.60,2.59,2.27,0.83,-0.18,-0.18,-0.17
391.85,-2.78,-2.61,-2.78,-2.62,2.61,2.19,0.84,-0.16,-0.16,-0.16
395.77,-2.77,-2.63,-2.76,-2.62,2.62,2.12,0.86,-0.14,-0.14,-0.13
399.73,-2.74,-2.61,-2.74,-2.61,2.62,2.03,0.88,-0.12,-0.12,-0.12
403.72,-2.71,-2.58,-2.71,-2.59,2.60,1.94,0.90,-0.11,-0.11,-0.12
407.76,-2.68,-2.56,-2.67,-2.56,2.56,1.85,0.92,-0.11,-0.11,-0.12
411.84,-2.63,-2.52,-2.63,-2.52,2.51,1.76,0.94,-0.11,-0.12,-0.11
415.96,-2.57,-2.46,-2.56,-2.45,2.44,1.67,0.96,-0.12,-0.11,-0.11
420.12,-2.48,-2.37,-2.47,-2.37,2.36,1.58,0.98,-0.11,-0.11,-0.11
424.32,-2.37,-2.26,-2.38,-2.27,2.26,1.49,0.99,-0.10,-0.11,-0.11
428.56,-2.27,-2.16,-2.26,-2.15,2.15,1.40,1.01,-0.12,-0.11,-0.11
432.85,-2.15,-2.03,-2.14,-2.02,2.01,1.32,1.03,-0.13,-0.12,-0.12
437.18,-1.99,-1.87,-2.00,-1.88,1.87,1.23,1.05,-0.12,-0.13,-0.12
441.55,-1.85,-1.73,-1.84,-1.71,1.71,1.15,1.06,-0.14,-0.13,-0.12
445.96,-1.68,-1.55,-1.67,-1.54,1.54,1.07,1.08,-0.13,-0.13,-0.13
450.42,-1.49,-1.35,-1.50,-1.37,1.38,1.00,1.09,-0.11,-0.12,-0.13
454.93,-1.34,-1.20,-1.33,-1.19,1.21,0.92,1.10,-0.13,-0.12,-0.13
459.48,-1.16,-1.01,-1.17,-1.03,1.04,0.85,1.12,-0.12,-0.13,-0.14
464.07,-1.02,-0.88,-1.01,-0.88,0.88,0.78,1.13,-0.14,-0.14,-0.13
