frequency,raw,error,smoothed,error_smoothed,equalization,parametric_eq,equalized_raw,equalized_smoothed,target
20.00,-2.69,-4.39,-2.69,-4.39,4.39,1.44,1.70,1.69,1.70
20.20,-2.65,-4.35,-2.65,-4.34,4.34,1.48,1.69,1.69,1.70
20.40,-2.61,-4.31,-2.60,-4.29,4.29,1.52,1.68,1.69,1.70
20.61,-2.57,-4.27,-2.55,-4.24,4.24,1.57,1.67,1.69,1.70
20.81,-2.53,-4.22,-2.51,-4.20,4.20,1.61,1.67,1.69,1.70
21.02,-2.48,-4.17,-2.47,-4.15,4.15,1.66,1.67,1.69,1.69
21.23,-2.43,-4.12,-2.42,-4.11,4.11,1.71,1.68,1.69,1.69
21.44,-2.37,-4.06,-2.38,-4.07,4.07,1.76,1.70,1.68,1.69
21.66,-2.31,-4.00,-2.34,-4.03,4.03,1.81,1.72,1.68,1.69
21.87,-2.25,-3.94,-2.31,-3.99,3.99,1.87,1.74,1.68,1.69
22.09,-2.22,-3.91,-2.27,-3.95,3.95,1.92,1.73,1.68,1.69
22.31,-2.21,-3.90,-2.24,-3.91,3.91,1.98,1.71,1.68,1.69
22.54,-2.20,-3.89,-2.20,-3.88,3.88,2.03,1.68,1.68,1.69
22.76,-2.20,-3.89,-2.17,-3.85,3.85,2.09,1.65,1.68,1.69
22.99,-2.19,-3.87,-2.14,-3.82,3.82,2.15,1.63,1.68,1.68
23.22,-2.15,-3.83,-2.11,-3.79,3.79,2.21,1.64,1.68,1.68
23.45,-2.11,-3.79,-2.09,-3.76,3.76,2.28,1.65,1.67,1.68
23.69,-2.07,-3.75,-2.06,-3.73,3.73,2.34,1.66,1.67,1.68
23.92,-2.02,-3.70,-2.03,-3.70,3.70,2.41,1.68,1.67,1.68
24.16,-1.99,-3.67,-2.01,-3.67,3.67,2.47,1.69,1.67,1.68
24.40,-1.97,-3.65,-1.98,-3.64,3.64,2.54,1.68,1.66,1.68
24.65,-1.94,-3.62,-1.95,-3.61,3.61,2.61,1.67,1.67,1.68
24.89,-1.91,-3.58,-1.91,-3.58,3.58,2.68,1.67,1.67,1.67
25.14,-1.89,-3.56,-1.88,-3.55,3.55,2.75,1.66,1.67,1.67
25.39,-1.86,-3.53,-1.85,-3.53,3.53,2.81,1.67,1.67,1.67
25.65,-1.83,-3.50,-1.83,-3.50,3.50,2.88,1.67,1.67,1.67
25.91,-1.81,-3.48,-1.80,-3.47,3.47,2.95,1.66,1.67,1.67
26.16,-1.78,-3.45,-1.78,-3.45,3.45,3.02,1.67,1.66,1.67
26.43,-1.76,-3.42,-1.76,-3.43,3.43,3.09,1.67,1.66,1.66
26.69,-1.73,-3.39,-1.75,-3.41,3.41,3.16,1.68,1.66,1.66
26.96,-1.70,-3.36,-1.73,-3.39,3.39,3.23,1.69,1.66,1.66
27.23,-1.70,-3.36,-1.71,-3.37,3.37,3.29,1.67,1.66,1.66
27.50,-1.70,-3.36,-1.69,-3.35,3.35,3.35,1.65,1.66,1.66
27.77,-1.70,-3.35,-1.68,-3.33,3.33,3.41,1.63,1.65,1.66
28.05,-1.69,-3.34,-1.67,-3.32,3.32,3.47,1.63,1.65,1.65
28.33,-1.67,-3.32,-1.65,-3.30,3.30,3.53,1.63,1.65,1.65
28.62,-1.64,-3.29,-1.64,-3.29,3.29,3.58,1.65,1.65,1.65
28.90,-1.61,-3.26,-1.62,-3.27,3.27,3.63,1.66,1.65,1.65
29.19,-1.60,-3.24,-1.61,-3.25,3.25,3.67,1.66,1.64,1.64
29.48,-1.60,-3.24,-1.60,-3.24,3.24,3.71,1.64,1.64,1.64
29.78,-1.60,-3.24,-1.59,-3.22,3.22,3.75,1.62,1.63,1.64
30.08,-1.59,-3.23,-1.57,-3.20,3.20,3.78,1.61,1.63,1.64
30.38,-1.56,-3.19,-1.55,-3.19,3.19,3.81,1.63,1.63,1.64
30.68,-1.53,-3.16,-1.54,-3.17,3.17,3.83,1.64,1.63,1.63
30.99,-1.50,-3.13,-1.52,-3.15,3.15,3.84,1.65,1.63,1.63
31.30,-1.50,-3.13,-1.50,-3.13,3.13,3.86,1.63,1.63,1.63
31.61,-1.50,-3.12,-1.49,-3.11,3.11,3.86,1.61,1.62,1.62
31.93,-1.50,-3.12,-1.47,-3.09,3.09,3.86,1.59,1.62,1.62
32.24,-1.48,-3.10,-1.46,-3.07,3.07,3.86,1.60,1.62,1.62
32.57,-1.44,-3.05,-1.44,-3.06,3.06,3.85,1.62,1.61,1.62
32.89,-1.41,-3.02,-1.43,-3.04,3.04,3.83,1.63,1.61,1.61
33.22,-1.40,-3.01,-1.42,-3.03,3.03,3.81,1.63,1.61,1.61
33.55,-1.40,-3.00,-1.41,-3.02,3.02,3.79,1.62,1.60,1.61
33.89,-1.40,-3.00,-1.41,-3.00,3.00,3.76,1.60,1.60,1.60
34.23,-1.40,-3.00,-1.40,-2.99,2.99,3.73,1.59,1.59,1.60
34.57,-1.40,-2.99,-1.40,-2.98,2.98,3.70,1.59,1.59,1.60
34.92,-1.40,-2.99,-1.39,-2.98,2.98,3.66,1.58,1.59,1.59
35.27,-1.40,-2.99,-1.38,-2.97,2.97,3.62,1.57,1.59,1.59
35.62,-1.40,-2.98,-1.39,-2.97,2.97,3.58,1.57,1.58,1.58
35.97,-1.40,-2.98,-1.39,-2.97,2.97,3.54,1.57,1.58,1.58
36.33,-1.40,-2.97,-1.40,-2.97,2.97,3.50,1.57,1.57,1.58
36.70,-1.40,-2.97,-1.41,-2.97,2.97,3.45,1.57,1.56,1.57
37.06,-1.40,-2.97,-1.42,-2.98,2.98,3.41,1.58,1.56,1.57
37.43,-1.40,-2.96,-1.42,-2.98,2.98,3.36,1.58,1.56,1.56
37.81,-1.40,-2.96,-1.43,-2.98,2.98,3.32,1.58,1.55,1.56
38.19,-1.42,-2.97,-1.44,-2.99,2.99,3.27,1.57,1.55,1.55
38.57,-1.46,-3.01,-1.45,-3.00,3.00,3.22,1.54,1.54,1.55
38.95,-1.50,-3.04,-1.46,-3.00,3.00,3.18,1.50,1.54,1.54
39.34,-1.50,-3.04,-1.47,-3.01,3.01,3.14,1.51,1.54,1.54
39.74,-1.50,-3.03,-1.48,-3.01,3.01,3.09,1.51,1.53,1.53
40.14,-1.50,-3.03,-1.49,-3.01,3.01,3.05,1.51,1.52,1.53
40.54,-1.50,-3.02,-1.50,-3.01,3.01,3.01,1.51,1.51,1.52
40.94,-1.50,-3.01,-1.51,-3.01,3.01,2.98,1.51,1.51,1.51
41.35,-1.50,-3.01,-1.51,-3.01,3.01,2.94,1.51,1.50,1.51
41.76,-1.50,-3.00,-1.51,-3.00,3.00,2.91,1.50,1.49,1.50
42.18,-1.50,-2.99,-1.50,-2.99,2.99,2.87,1.49,1.49,1.50
42.60,-1.50,-2.99,-1.50,-2.98,2.98,2.84,1.48,1.48,1.49
43.03,-1.50,-2.98,-1.49,-2.97,2.97,2.81,1.47,1.48,1.48
43.46,-1.50,-2.97,-1.48,-2.95,2.95,2.79,1.45,1.47,1.48
43.90,-1.50,-2.97,-1.47,-2.93,2.93,2.76,1.43,1.47,1.47
44.33,-1.47,-2.93,-1.46,-2.92,2.92,2.74,1.45,1.46,1.46
44.78,-1.44,-2.89,-1.45,-2.90,2.90,2.72,1.46,1.45,1.45
45.23,-1.42,-2.86,-1.44,-2.88,2.88,2.70,1.46,1.44,1.45
45.68,-1.41,-2.85,-1.43,-2.86,2.86,2.69,1.45,1.43,1.44
46.13,-1.40,-2.83,-1.42,-2.84,2.84,2.67,1.45,1.42,1.43
46.60,-1.40,-2.82,-1.41,-2.83,2.83,2.66,1.43,1.41,1.42
47.06,-1.40,-2.81,-1.41,-2.81,2.81,2.65,1.41,1.41,1.41
47.53,-1.40,-2.80,-1.40,-2.80,2.80,2.65,1.40,1.40,1.40
48.01,-1.40,-2.79,-1.39,-2.78,2.78,2.64,1.38,1.39,1.39
48.49,-1.40,-2.78,-1.39,-2.77,2.77,2.64,1.37,1.38,1.38
48.97,-1.40,-2.77,-1.39,-2.76,2.76,2.63,1.36,1.37,1.37
49.46,-1.40,-2.76,-1.39,-2.75,2.75,2.63,1.35,1.36,1.36
49.96,-1.40,-2.75,-1.39,-2.74,2.74,2.63,1.34,1.35,1.35
50.46,-1.40,-2.74,-1.40,-2.74,2.74,2.64,1.34,1.34,1.34
50.96,-1.40,-2.73,-1.40,-2.73,2.73,2.64,1.33,1.33,1.33
51.47,-1.40,-2.72,-1.41,-2.73,2.73,2.64,1.33,1.32,1.32
51.99,-1.40,-2.71,-1.42,-2.72,2.72,2.65,1.32,1.31,1.31
52.51,-1.41,-2.71,-1.43,-2.72,2.72,2.65,1.31,1.30,1.30
53.03,-1.41,-2.69,-1.44,-2.72,2.72,2.66,1.31,1.28,1.28
53.56,-1.46,-2.73,-1.45,-2.72,2.72,2.67,1.26,1.27,1.27
54.10,-1.50,-2.76,-1.46,-2.72,2.72,2.68,1.22,1.25,1.26
54.64,-1.50,-2.75,-1.48,-2.72,2.72,2.68,1.22,1.24,1.25
55.18,-1.50,-2.73,-1.49,-2.72,2.72,2.69,1.22,1.23,1.23
55.74,-1.50,-2.72,-1.50,-2.72,2.72,2.70,1.22,1.22,1.22
56.29,-1.51,-2.71,-1.52,-2.72,2.72,2.70,1.21,1.20,1.20
56.86,-1.54,-2.73,-1.54,-2.73,2.73,2.71,1.19,1.19,1.19
57.42,-1.57,-2.74,-1.56,-2.73,2.73,2.71,1.16,1.17,1.18
58.00,-1.60,-2.76,-1.58,-2.74,2.74,2.71,1.14,1.16,1.16
58.58,-1.60,-2.74,-1.60,-2.75,2.75,2.72,1.15,1.14,1.14
59.16,-1.60,-2.73,-1.63,-2.76,2.76,2.71,1.16,1.13,1.13
59.76,-1.60,-2.71,-1.66,-2.77,2.77,2.71,1.17,1.11,1.11
60.35,-1.64,-2.73,-1.69,-2.78,2.78,2.71,1.14,1.09,1.10
60.96,-1.70,-2.78,-1.72,-2.79,2.79,2.70,1.09,1.06,1.08
61.57,-1.76,-2.82,-1.75,-2.79,2.79,2.69,1.04,1.04,1.06
62.18,-1.80,-2.84,-1.77,-2.80,2.80,2.68,1.00,1.02,1.04
62.80,-1.80,-2.82,-1.79,-2.79,2.79,2.67,0.99,1.00,1.02
63.43,-1.83,-2.83,-1.80,-2.79,2.79,2.65,0.96,0.98,1.00
64.07,-1.86,-2.84,-1.81,-2.77,2.77,2.63,0.91,0.96,0.99
64.71,-1.89,-2.85,-1.81,-2.75,2.75,2.61,0.86,0.94,0.97
65.35,-1.86,-2.80,-1.80,-2.72,2.72,2.59,0.86,0.92,0.95
66.01,-1.80,-2.72,-1.78,-2.68,2.68,2.56,0.88,0.90,0.93
66.67,-1.74,-2.64,-1.76,-2.64,2.64,2.54,0.90,0.88,0.90
67.33,-1.71,-2.59,-1.73,-2.59,2.59,2.51,0.88,0.87,0.88
68.01,-1.70,-2.56,-1.69,-2.54,2.54,2.47,0.84,0.85,0.86
68.69,-1.63,-2.47,-1.66,-2.49,2.49,2.44,0.86,0.83,0.84
69.37,-1.60,-2.41,-1.62,-2.44,2.44,2.41,0.84,0.81,0.82
70.07,-1.59,-2.38,-1.59,-2.38,2.38,2.37,0.79,0.79,0.79
70.77,-1.52,-2.29,-1.56,-2.33,2.33,2.34,0.81,0.77,0.77
71.48,-1.50,-2.24,-1.54,-2.28,2.28,2.30,0.79,0.75,0.74
72.19,-1.50,-2.22,-1.52,-2.24,2.24,2.26,0.74,0.72,0.72
72.91,-1.50,-2.19,-1.50,-2.20,2.20,2.22,0.70,0.69,0.70
73.64,-1.50,-2.17,-1.49,-2.16,2.16,2.18,0.66,0.66,0.67
74.38,-1.50,-2.14,-1.49,-2.12,2.12,2.14,0.62,0.64,0.64
75.12,-1.50,-2.12,-1.48,-2.09,2.09,2.10,0.59,0.61,0.62
75.87,-1.50,-2.09,-1.48,-2.07,2.07,2.06,0.57,0.59,0.59
76.63,-1.50,-2.06,-1.48,-2.04,2.04,2.02,0.54,0.56,0.56
77.40,-1.50,-2.04,-1.49,-2.02,2.02,1.99,0.52,0.54,0.54
78.17,-1.50,-2.01,-1.50,-2.01,2.01,1.95,0.51,0.51,0.51
78.95,-1.50,-1.98,-1.52,-1.99,1.99,1.91,0.49,0.48,0.48
79.74,-1.50,-1.95,-1.53,-1.98,1.98,1.87,0.48,0.45,0.45
80.54,-1.50,-1.92,-1.55,-1.97,1.97,1.84,0.47,0.42,0.42
81.35,-1.53,-1.92,-1.57,-1.96,1.96,1.80,0.43,0.39,0.40
82.16,-1.58,-1.95,-1.59,-1.95,1.95,1.77,0.37,0.36,0.37
82.98,-1.60,-1.94,-1.61,-1.94,1.94,1.74,0.34,0.32,0.34
83.81,-1.65,-1.96,-1.63,-1.92,1.92,1.70,0.27,0.29,0.31
84.65,-1.69,-1.96,-1.65,-1.91,1.91,1.67,0.22,0.26,0.28
85.50,-1.70,-1.94,-1.66,-1.89,1.89,1.64,0.19,0.23,0.24
86.35,-1.70,-1.91,-1.67,-1.87,1.87,1.61,0.17,0.20,0.21
87.22,-1.70,-1.88,-1.68,-1.85,1.85,1.59,0.15,0.17,0.18
88.09,-1.70,-1.85,-1.68,-1.82,1.82,1.56,0.12,0.13,0.15
88.97,-1.70,-1.82,-1.68,-1.78,1.78,1.53,0.08,0.10,0.12
89.86,-1.70,-1.79,-1.67,-1.75,1.75,1.51,0.05,0.07,0.09
90.76,-1.70,-1.75,-1.66,-1.71,1.71,1.49,0.01,0.04,0.05
91.66,-1.64,-1.66,-1.65,-1.66,1.66,1.47,0.03,0.01,0.02
92.58,-1.60,-1.59,-1.64,-1.62,1.62,1.44,0.02,-0.02,-0.01
93.51,-1.59,-1.55,-1.63,-1.58,1.58,1.42,-0.01,-0.05,-0.04
94.44,-1.59,-1.51,-1.62,-1.54,1.54,1.41,-0.05,-0.08,-0.08
95.39,-1.60,-1.49,-1.61,-1.50,1.50,1.39,-0.10,-0.11,-0.11
96.34,-1.60,-1.46,-1.61,-1.47,1.47,1.37,-0.13,-0.14,-0.14
97.30,-1.61,-1.43,-1.61,-1.43,1.43,1.36,-0.18,-0.17,-0.17
98.28,-1.61,-1.40,-1.61,-1.41,1.41,1.34,-0.20,-0.20,-0.21
99.26,-1.63,-1.39,-1.62,-1.38,1.38,1.33,-0.25,-0.24,-0.24
100.25,-1.65,-1.38,-1.63,-1.36,1.36,1.32,-0.29,-0.27,-0.27
101.25,-1.67,-1.36,-1.66,-1.35,1.35,1.30,-0.32,-0.31,-0.31
102.27,-1.68,-1.34,-1.69,-1.34,1.34,1.29,-0.34,-0.35,-0.34
103.29,-1.69,-1.32,-1.72,-1.33,1.33,1.28,-0.36,-0.38,-0.37
104.32,-1.71,-1.30,-1.74,-1.33,1.33,1.27,-0.38,-0.42,-0.41
105.37,-1.73,-1.29,-1.78,-1.32,1.32,1.26,-0.41,-0.45,-0.44
106.42,-1.77,-1.30,-1.81,-1.32,1.32,1.25,-0.45,-0.49,-0.47
107.48,-1.85,-1.34,-1.83,-1.31,1.31,1.25,-0.54,-0.52,-0.51
108.56,-1.91,-1.37,-1.86,-1.31,1.31,1.24,-0.60,-0.55,-0.54
109.64,-1.93,-1.36,-1.88,-1.30,1.30,1.23,-0.63,-0.58,-0.57
110.74,-1.95,-1.34,-1.91,-1.30,1.30,1.22,-0.65,-0.61,-0.61
111.85,-1.96,-1.32,-1.93,-1.29,1.29,1.22,-0.67,-0.64,-0.64
112.97,-1.97,-1.30,-1.96,-1.28,1.28,1.21,-0.69,-0.68,-0.67
114.10,-1.98,-1.28,-1.98,-1.27,1.27,1.20,-0.71,-0.71,-0.70
115.24,-1.98,-1.26,-1.99,-1.26,1.26,1.19,-0.72,-0.73,-0.72
116.39,-1.98,-1.23,-2.01,-1.24,1.24,1.19,-0.73,-0.76,-0.75
117.55,-1.98,-1.20,-2.01,-1.23,1.23,1.18,-0.75,-0.79,-0.78
118.73,-1.97,-1.17,-2.02,-1.21,1.21,1.17,-0.76,-0.81,-0.80
119.92,-2.03,-1.21,-2.02,-1.19,1.19,1.16,-0.83,-0.82,-0.82
121.12,-2.06,-1.21,-2.02,-1.18,1.18,1.16,-0.88,-0.85,-0.84
122.33,-2.05,-1.18,-2.02,-1.16,1.16,1.15,-0.89,-0.87,-0.86
123.55,-2.04,-1.15,-2.02,-1.13,1.13,1.14,-0.91,-0.89,-0.88
124.79,-2.03,-1.13,-2.02,-1.11,1.11,1.13,-0.92,-0.91,-0.90
126.03,-2.03,-1.11,-2.02,-1.09,1.09,1.12,-0.94,-0.93,-0.92
127.29,-2.02,-1.08,-2.01,-1.07,1.07,1.11,-0.95,-0.94,-0.94
128.57,-2.01,-1.05,-2.01,-1.05,1.05,1.10,-0.96,-0.96,-0.96
129.85,-2.01,-1.03,-2.01,-1.03,1.03,1.09,-0.98,-0.98,-0.98
131.15,-2.00,-1.00,-2.01,-1.01,1.01,1.08,-0.99,-1.00,-1.00
132.46,-2.00,-0.98,-2.01,-0.99,0.99,1.07,-1.01,-1.02,-1.02
133.79,-1.99,-0.95,-2.01,-0.97,0.97,1.05,-1.02,-1.04,-1.04
135.12,-1.99,-0.93,-2.01,-0.95,0.95,1.04,-1.04,-1.06,-1.06
136.48,-1.99,-0.91,-2.02,-0.93,0.93,1.03,-1.06,-1.08,-1.08
137.84,-1.98,-0.88,-2.03,-0.92,0.92,1.02,-1.06,-1.11,-1.10
139.22,-2.04,-0.92,-2.03,-0.90,0.90,1.00,-1.14,-1.13,-1.12
140.61,-2.08,-0.94,-2.03,-0.89,0.89,0.99,-1.19,-1.14,-1.14
142.02,-2.08,-0.92,-2.04,-0.88,0.88,0.98,-1.20,-1.16,-1.16
143.44,-2.08,-0.90,-2.05,-0.86,0.86,0.96,-1.21,-1.19,-1.18
144.87,-2.08,-0.88,-2.06,-0.85,0.85,0.95,-1.23,-1.21,-1.20
146.32,-2.08,-0.86,-2.07,-0.84,0.84,0.94,-1.24,-1.23,-1.22
147.78,-2.08,-0.84,-2.08,-0.83,0.83,0.92,-1.24,-1.25,-1.24
149.26,-2.08,-0.82,-2.09,-0.83,0.83,0.91,-1.25,-1.26,-1.26
150.75,-2.08,-0.80,-2.10,-0.82,0.82,0.90,-1.26,-1.28,-1.28
152.26,-2.08,-0.78,-2.11,-0.81,0.81,0.89,-1.27,-1.30,-1.30
153.78,-2.08,-0.77,-2.12,-0.81,0.81,0.87,-1.27,-1.31,-1.31
155.32,-2.14,-0.81,-2.13,-0.80,0.80,0.86,-1.34,-1.33,-1.33
156.88,-2.18,-0.83,-2.15,-0.80,0.80,0.85,-1.38,-1.35,-1.35
158.44,-2.18,-0.82,-2.16,-0.80,0.80,0.84,-1.38,-1.37,-1.36
160.03,-2.18,-0.80,-2.18,-0.80,0.80,0.83,-1.38,-1.39,-1.38
161.63,-2.18,-0.78,-2.20,-0.80,0.80,0.82,-1.38,-1.41,-1.40
163.24,-2.19,-0.77,-2.22,-0.80,0.80,0.81,-1.39,-1.43,-1.42
164.88,-2.25,-0.81,-2.24,-0.80,0.80,0.80,-1.45,-1.45,-1.43
166.53,-2.28,-0.83,-2.26,-0.80,0.80,0.79,-1.48,-1.46,-1.45
168.19,-2.30,-0.83,-2.27,-0.79,0.79,0.78,-1.51,-1.48,-1.47
169.87,-2.31,-0.82,-2.29,-0.79,0.79,0.78,-1.52,-1.50,-1.49
171.57,-2.31,-0.80,-2.30,-0.79,0.79,0.77,-1.52,-1.51,-1.51
173.29,-2.32,-0.79,-2.31,-0.79,0.79,0.76,-1.53,-1.53,-1.52
175.02,-2.32,-0.78,-2.33,-0.78,0.78,0.76,-1.53,-1.54,-1.54
176.77,-2.33,-0.78,-2.34,-0.78,0.78,0.75,-1.55,-1.56,-1.55
178.54,-2.33,-0.77,-2.35,-0.78,0.78,0.75,-1.55,-1.57,-1.56
180.32,-2.32,-0.75,-2.35,-0.78,0.78,0.74,-1.54,-1.58,-1.57
182.13,-2.33,-0.75,-2.35,-0.77,0.77,0.74,-1.55,-1.58,-1.58
183.95,-2.37,-0.79,-2.35,-0.77,0.77,0.74,-1.60,-1.58,-1.58
185.79,-2.40,-0.82,-2.35,-0.77,0.77,0.73,-1.63,-1.57,-1.58
187.65,-2.38,-0.80,-2.34,-0.77,0.77,0.73,-1.61,-1.57,-1.57
189.52,-2.37,-0.80,-2.34,-0.77,0.77,0.73,-1.60,-1.57,-1.57
191.42,-2.36,-0.79,-2.34,-0.77,0.77,0.73,-1.59,-1.57,-1.57
193.33,-2.34,-0.78,-2.34,-0.77,0.77,0.73,-1.57,-1.57,-1.56
195.27,-2.32,-0.76,-2.34,-0.77,0.77,0.73,-1.54,-1.57,-1.56
197.22,-2.31,-0.76,-2.34,-0.78,0.78,0.73,-1.53,-1.56,-1.55
199.19,-2.30,-0.75,-2.34,-0.78,0.78,0.73,-1.52,-1.56,-1.55
201.18,-2.30,-0.75,-2.34,-0.79,0.79,0.73,-1.51,-1.56,-1.55
203.19,-2.35,-0.80,-2.35,-0.79,0.79,0.73,-1.56,-1.56,-1.55
205.23,-2.39,-0.83,-2.36,-0.80,0.80,0.73,-1.59,-1.56,-1.55
207.28,-2.39,-0.83,-2.37,-0.81,0.81,0.74,-1.58,-1.56,-1.56
209.35,-2.39,-0.82,-2.39,-0.82,0.82,0.74,-1.57,-1.57,-1.57
211.44,-2.39,-0.81,-2.40,-0.82,0.82,0.74,-1.57,-1.58,-1.58
213.56,-2.39,-0.80,-2.42,-0.83,0.83,0.74,-1.56,-1.59,-1.58
215.69,-2.40,-0.80,-2.44,-0.84,0.84,0.74,-1.56,-1.60,-1.60
217.85,-2.48,-0.87,-2.46,-0.85,0.85,0.75,-1.63,-1.61,-1.61
220.03,-2.50,-0.88,-2.47,-0.86,0.86,0.75,-1.64,-1.62,-1.61
222.23,-2.51,-0.89,-2.48,-0.86,0.86,0.75,-1.65,-1.62,-1.62
224.45,-2.51,-0.88,-2.49,-0.87,0.87,0.75,-1.64,-1.62,-1.63
226.70,-2.51,-0.88,-2.49,-0.87,0.87,0.75,-1.64,-1.62,-1.63
228.96,-2.50,-0.87,-2.50,-0.87,0.87,0.75,-1.63,-1.63,-1.63
231.25,-2.50,-0.87,-2.50,-0.87,0.87,0.76,-1.63,-1.63,-1.63
233.57,-2.49,-0.87,-2.49,-0.86,0.86,0.76,-1.63,-1.63,-1.62
235.90,-2.47,-0.85,-2.48,-0.86,0.86,0.76,-1.61,-1.62,-1.62
238.26,-2.46,-0.85,-2.46,-0.85,0.85,0.76,-1.61,-1.61,-1.61
240.64,-2.44,-0.84,-2.44,-0.84,0.84,0.76,-1.60,-1.60,-1.60
243.05,-2.43,-0.85,-2.41,-0.82,0.82,0.75,-1.61,-1.59,-1.58
245.48,-2.41,-0.84,-2.39,-0.81,0.81,0.75,-1.60,-1.58,-1.57
247.93,-2.38,-0.82,-2.36,-0.80,0.80,0.75,-1.58,-1.56,-1.56
250.41,-2.36,-0.81,-2.34,-0.78,0.78,0.75,-1.58,-1.55,-1.55
252.92,-2.34,-0.80,-2.31,-0.77,0.77,0.74,-1.57,-1.54,-1.53
255.45,-2.25,-0.72,-2.29,-0.76,0.76,0.74,-1.49,-1.54,-1.53
258.00,-2.22,-0.70,-2.27,-0.75,0.75,0.73,-1.47,-1.53,-1.52
260.58,-2.22,-0.71,-2.26,-0.74,0.74,0.73,-1.48,-1.52,-1.51
263.19,-2.22,-0.71,-2.25,-0.73,0.73,0.72,-1.49,-1.52,-1.51
265.82,-2.22,-0.71,-2.24,-0.72,0.72,0.72,-1.50,-1.52,-1.51
268.48,-2.22,-0.71,-2.23,-0.71,0.71,0.71,-1.51,-1.52,-1.51
271.16,-2.23,-0.72,-2.23,-0.71,0.71,0.70,-1.52,-1.52,-1.51
273.87,-2.23,-0.72,-2.22,-0.70,0.70,0.69,-1.53,-1.52,-1.51
276.61,-2.23,-0.72,-2.22,-0.70,0.70,0.68,-1.53,-1.52,-1.51
279.38,-2.23,-0.72,-2.21,-0.69,0.69,0.68,-1.54,-1.52,-1.51
282.17,-2.23,-0.72,-2.20,-0.69,0.69,0.67,-1.54,-1.51,-1.51
284.99,-2.22,-0.71,-2.19,-0.68,0.68,0.66,-1.54,-1.51,-1.51
287.84,-2.21,-0.71,-2.18,-0.67,0.67,0.65,-1.54,-1.51,-1.50
290.72,-2.20,-0.70,-2.16,-0.67,0.67,0.64,-1.53,-1.50,-1.50
293.63,-2.19,-0.70,-2.14,-0.66,0.66,0.63,-1.53,-1.49,-1.49
296.57,-2.10,-0.62,-2.13,-0.64,0.64,0.62,-1.45,-1.49,-1.48
299.53,-2.06,-0.59,-2.12,-0.63,0.63,0.61,-1.43,-1.48,-1.47
302.53,-2.05,-0.59,-2.10,-0.62,0.62,0.60,-1.43,-1.48,-1.46
305.55,-2.04,-0.59,-2.08,-0.61,0.61,0.59,-1.43,-1.47,-1.45
308.61,-2.03,-0.58,-2.06,-0.59,0.59,0.58,-1.44,-1.46,-1.44
311.69,-2.03,-0.59,-2.03,-0.58,0.58,0.57,-1.45,-1.46,-1.44
314.81,-2.02,-0.59,-2.01,-0.56,0.56,0.56,-1.46,-1.45,-1.43
317.96,-2.02,-0.59,-1.99,-0.55,0.55,0.55,-1.47,-1.44,-1.43
321.14,-2.02,-0.59,-1.97,-0.53,0.53,0.55,-1.49,-1.44,-1.43
324.35,-2.02,-0.59,-1.95,-0.51,0.51,0.54,-1.51,-1.43,-1.43
327.59,-2.02,-0.59,-1.93,-0.50,0.50,0.53,-1.52,-1.44,-1.42
330.87,-1.88,-0.45,-1.93,-0.48,0.48,0.52,-1.40,-1.45,-1.43
334.18,-1.83,-0.40,-1.92,-0.46,0.46,0.51,-1.37,-1.45,-1.43
337.52,-1.83,-0.40,-1.90,-0.44,0.44,0.51,-1.39,-1.45,-1.43
340.90,-1.83,-0.40,-1.87,-0.42,0.42,0.50,-1.40,-1.45,-1.43
344.30,-1.83,-0.40,-1.84,-0.41,0.41,0.49,-1.42,-1.44,-1.43
347.75,-1.83,-0.40,-1.81,-0.39,0.39,0.49,-1.44,-1.42,-1.43
351.23,-1.83,-0.41,-1.79,-0.38,0.38,0.48,-1.45,-1.42,-1.42
354.74,-1.83,-0.41,-1.77,-0.36,0.36,0.48,-1.47,-1.41,-1.42
358.28,-1.82,-0.40,-1.76,-0.35,0.35,0.47,-1.47,-1.41,-1.41
361.87,-1.82,-0.41,-1.75,-0.34,0.34,0.47,-1.48,-1.41,-1.41
365.49,-1.78,-0.38,-1.75,-0.33,0.33,0.46,-1.45,-1.42,-1.40
369.14,-1.64,-0.24,-1.75,-0.32,0.32,0.46,-1.32,-1.43,-1.39
372.83,-1.59,-0.20,-1.74,-0.32,0.32,0.45,-1.27,-1.42,-1.39
376.56,-1.61,-0.23,-1.73,-0.31,0.31,0.45,-1.30,-1.42,-1.38
380.33,-1.71,-0.33,-1.71,-0.30,0.30,0.45,-1.41,-1.41,-1.38
384.13,-1.76,-0.39,-1.69,-0.29,0.29,0.44,-1.47,-1.40,-1.37
387.97,-1.77,-0.40,-1.67,-0.28,0.28,0.44,-1.49,-1.39,-1.37
391.85,-1.76,-0.40,-1.66,-0.28,0.28,0.44,-1.48,-1.38,-1.36
395.77,-1.75,-0.39,-1.65,-0.27,0.27,0.44,-1.47,-1.38,-1.36
399.73,-1.68,-0.32,-1.65,-0.27,0.27,0.44,-1.41,-1.38,-1.36
403.72,-1.62,-0.26,-1.66,-0.27,0.27,0.43,-1.34,-1.38,-1.36
407.76,-1.58,-0.22,-1.67,-0.28,0.28,0.43,-1.30,-1.39,-1.36
411.84,-1.56,-0.20,-1.68,-0.29,0.29,0.43,-1.27,-1.39,-1.36
415.96,-1.57,-0.21,-1.68,-0.30,0.30,0.43,-1.27,-1.38,-1.36
420.12,-1.59,-0.24,-1.67,-0.31,0.31,0.43,-1.28,-1.37,-1.35
424.32,-1.66,-0.32,-1.66,-0.32,0.32,0.43,-1.34,-1.34,-1.34
428.56,-1.72,-0.39,-1.66,-0.34,0.34,0.43,-1.38,-1.32,-1.32
432.85,-1.74,-0.44,-1.65,-0.35,0.35,0.43,-1.39,-1.30,-1.30
437.18,-1.72,-0.45,-1.64,-0.37,0.37,0.43,-1.35,-1.27,-1.27
441.55,-1.68,-0.44,-1.62,-0.38,0.38,0.43,-1.30,-1.24,-1.23
445.96,-1.64,-0.45,-1.59,-0.39,0.39,0.43,-1.25,-1.20,-1.19
450.42,-1.58,-0.43,-1.56,-0.40,0.40,0.43,-1.18,-1.16,-1.14
454.93,-1.53,-0.44,-1.51,-0.40,0.40,0.42,-1.13,-1.11,-1.09
459.48,-1.46,-0.42,-1.46,-0.40,0.40,0.42,-1.06,-1.05,-1.04
464.07,-1.40,-0.42,-1.39,-0.40,0.40,0.42,-1.00,-1.00,-0.98
468.71,-1.35,-0.43,-1.33,-0.39,0.39,0.42,-0.96,-0.93,-0.92
473.40,-1.26,-0.39,-1.26,-0.38,0.38,0.42,-0.88,-0.87,-0.87
478.13,-1.13,-0.32,-1.19,-0.37,0.37,0.42,-0.76,-0.82,-0.81
482.91,-1.07,-0.31,-1.13,-0.36,0.36,0.42,-0.71,-0.76,-0.76
487.74,-1.04,-0.33,-1.07,-0.35,0.35,0.41,-0.69,-0.72,-0.71
492.62,-1.01,-0.34,-1.03,-0.34,0.34,0.41,-0.67,-0.68,-0.67
497.55,-0.98,-0.34,-0.99,-0.33,0.33,0.41,-0.64,-0.65,-0.64
502.52,-0.96,-0.35,-0.95,-0.33,0.33,0.41,-0.63,-0.63,-0.61
507.55,-0.94,-0.35,-0.93,-0.32,0.32,0.40,-0.62,-0.61,-0.59
512.62,-0.92,-0.34,-0.92,-0.32,0.32,0.40,-0.60,-0.60,-0.58
517.75,-0.91,-0.33,-0.91,-0.32,0.32,0.39,-0.59,-0.59,-0.58
522.93,-0.91,-0.33,-0.92,-0.33,0.33,0.39,-0.58,-0.60,-0.58
528.16,-0.93,-0.33,-0.94,-0.33,0.33,0.38,-0.60,-0.61,-0.59
533.44,-0.94,-0.33,-0.97,-0.34,0.34,0.38,-0.60,-0.63,-0.61
538.77,-0.97,-0.33,-1.00,-0.35,0.35,0.37,-0.62,-0.65,-0.64
544.16,-1.01,-0.34,-1.03,-0.36,0.36,0.37,-0.65,-0.67,-0.67
549.60,-1.05,-0.35,-1.07,-0.37,0.37,0.36,-0.68,-0.70,-0.70
555.10,-1.10,-0.37,-1.11,-0.38,0.38,0.36,-0.72,-0.73,-0.73
560.65,-1.16,-0.40,-1.15,-0.39,0.39,0.35,-0.77,-0.76,-0.76
566.25,-1.20,-0.41,-1.19,-0.40,0.40,0.34,-0.79,-0.78,-0.79
571.92,-1.25,-0.44,-1.22,-0.42,0.42,0.34,-0.83,-0.80,-0.81
577.64,-1.28,-0.45,-1.25,-0.43,0.43,0.33,-0.85,-0.82,-0.83
583.41,-1.31,-0.46,-1.28,-0.45,0.45,0.32,-0.86,-0.83,-0.85
589.25,-1.33,-0.48,-1.31,-0.46,0.46,0.32,-0.87,-0.84,-0.85
595.14,-1.34,-0.48,-1.32,-0.48,0.48,0.31,-0.86,-0.85,-0.85
601.09,-1.33,-0.48,-1.33,-0.49,0.49,0.30,-0.84,-0.84,-0.85
607.10,-1.32,-0.48,-1.33,-0.50,0.50,0.30,-0.82,-0.83,-0.84
613.17,-1.31,-0.49,-1.32,-0.51,0.51,0.29,-0.80,-0.81,-0.81
619.30,-1.29,-0.50,-1.30,-0.51,0.51,0.28,-0.78,-0.79,-0.79
625.50,-1.26,-0.51,-1.26,-0.51,0.51,0.28,-0.75,-0.75,-0.75
