frequency,raw,smoothed,error,error_smoothed,equalization,parametric_eq,fixed_band_eq,equalized_raw,equalized_smoothed,target
20.00,2.31,2.31,-5.84,-5.83,5.86,5.41,1.26,8.16,8.17,8.14
20.20,2.38,2.37,-5.77,-5.77,5.77,5.34,1.30,8.15,8.15,8.14
20.40,2.45,2.44,-5.69,-5.70,5.69,5.28,1.34,8.14,8.13,8.14
20.61,2.52,2.52,-5.63,-5.62,5.60,5.21,1.38,8.12,8.13,8.14
20.81,2.61,2.61,-5.53,-5.53,5.52,5.15,1.42,8.13,8.12,8.14
21.02,2.70,2.70,-5.44,-5.44,5.43,5.08,1.47,8.13,8.13,8.14
21.23,2.80,2.80,-5.34,-5.34,5.34,5.02,1.51,8.14,8.14,8.14
21.44,2.90,2.89,-5.24,-5.24,5.25,4.95,1.56,8.15,8.14,8.14
21.66,2.99,2.99,-5.15,-5.15,5.15,4.89,1.61,8.14,8.14,8.14
21.87,3.09,3.09,-5.05,-5.05,5.06,4.82,1.66,8.15,8.14,8.14
22.09,3.18,3.18,-4.96,-4.96,4.96,4.76,1.70,8.14,8.14,8.14
22.31,3.27,3.27,-4.87,-4.87,4.87,4.69,1.76,8.14,8.14,8.14
22.54,3.36,3.36,-4.78,-4.78,4.77,4.63,1.81,8.13,8.13,8.13
22.76,3.45,3.45,-4.69,-4.69,4.68,4.56,1.86,8.13,8.13,8.13
22.99,3.54,3.54,-4.60,-4.60,4.59,4.50,1.92,8.13,8.13,8.13
23.22,3.63,3.63,-4.50,-4.50,4.50,4.43,1.98,8.13,8.13,8.13
23.45,3.72,3.72,-4.41,-4.41,4.41,4.37,2.03,8.13,8.13,8.13
23.69,3.81,3.80,-4.32,-4.33,4.33,4.30,2.09,8.13,8.13,8.13
23.92,3.89,3.89,-4.24,-4.24,4.24,4.23,2.15,8.13,8.13,8.13
24.16,3.97,3.97,-4.16,-4.16,4.15,4.17,2.21,8.12,8.13,8.13
24.40,4.06,4.06,-4.07,-4.07,4.07,4.10,2.28,8.13,8.13,8.13
24.65,4.14,4.14,-3.99,-3.99,3.99,4.04,2.34,8.12,8.13,8.12
24.89,4.22,4.22,-3.90,-3.90,3.91,3.97,2.40,8.13,8.13,8.12
25.14,4.30,4.30,-3.82,-3.83,3.83,3.91,2.46,8.13,8.12,8.12
25.39,4.37,4.37,-3.75,-3.75,3.75,3.84,2.53,8.12,8.12,8.12
25.65,4.45,4.45,-3.67,-3.67,3.67,3.78,2.59,8.12,8.12,8.12
25.91,4.52,4.52,-3.60,-3.60,3.60,3.71,2.66,8.11,8.12,8.12
26.16,4.60,4.59,-3.52,-3.52,3.52,3.65,2.72,8.12,8.12,8.12
26.43,4.67,4.67,-3.45,-3.45,3.45,3.58,2.78,8.12,8.12,8.11
26.69,4.74,4.74,-3.38,-3.37,3.38,3.52,2.84,8.11,8.11,8.11
26.96,4.81,4.81,-3.30,-3.30,3.30,3.45,2.90,8.11,8.11,8.11
27.23,4.88,4.88,-3.23,-3.23,3.23,3.39,2.96,8.11,8.11,8.11
27.50,4.95,4.95,-3.16,-3.16,3.16,3.32,3.02,8.11,8.11,8.11
27.77,5.02,5.02,-3.09,-3.09,3.09,3.26,3.07,8.11,8.11,8.11
28.05,5.09,5.09,-3.02,-3.02,3.02,3.20,3.12,8.10,8.10,8.10
28.33,5.16,5.16,-2.94,-2.95,2.95,3.13,3.17,8.11,8.10,8.10
28.62,5.22,5.22,-2.88,-2.88,2.88,3.07,3.21,8.10,8.10,8.10
28.90,5.29,5.29,-2.81,-2.81,2.81,3.01,3.25,8.10,8.10,8.10
29.19,5.35,5.35,-2.75,-2.75,2.75,2.94,3.29,8.10,8.09,8.09
29.48,5.41,5.41,-2.68,-2.68,2.68,2.88,3.32,8.09,8.09,8.09
29.78,5.47,5.47,-2.62,-2.62,2.62,2.82,3.34,8.09,8.09,8.09
30.08,5.53,5.53,-2.56,-2.56,2.56,2.75,3.36,8.08,8.09,8.09
30.38,5.59,5.59,-2.50,-2.50,2.50,2.69,3.38,8.08,8.08,8.08
30.68,5.65,5.64,-2.43,-2.44,2.44,2.63,3.39,8.09,8.08,8.08
30.99,5.70,5.70,-2.38,-2.38,2.38,2.57,3.39,8.08,8.08,8.08
31.30,5.76,5.75,-2.32,-2.32,2.32,2.51,3.39,8.08,8.08,8.08
31.61,5.81,5.81,-2.27,-2.27,2.27,2.45,3.38,8.07,8.07,8.07
31.93,5.86,5.86,-2.21,-2.21,2.21,2.39,3.36,8.07,8.07,8.07
32.24,5.91,5.91,-2.16,-2.16,2.16,2.33,3.34,8.06,8.06,8.07
32.57,5.96,5.96,-2.11,-2.10,2.10,2.27,3.32,8.06,8.06,8.06
32.89,6.01,6.01,-2.05,-2.05,2.05,2.21,3.29,8.06,8.06,8.06
33.22,6.06,6.06,-2.00,-2.00,2.00,2.15,3.25,8.05,8.05,8.05
33.55,6.11,6.11,-1.94,-1.94,1.94,2.10,3.21,8.05,8.05,8.05
33.89,6.16,6.16,-1.89,-1.89,1.89,2.04,3.16,8.05,8.05,8.05
34.23,6.20,6.20,-1.85,-1.84,1.84,1.98,3.11,8.04,8.04,8.04
34.57,6.25,6.24,-1.79,-1.79,1.79,1.93,3.06,8.04,8.04,8.04
34.92,6.29,6.29,-1.75,-1.75,1.75,1.87,3.00,8.03,8.03,8.03
35.27,6.33,6.33,-1.70,-1.70,1.70,1.82,2.94,8.03,8.03,8.03
35.62,6.37,6.37,-1.66,-1.66,1.65,1.76,2.87,8.02,8.02,8.02
35.97,6.41,6.41,-1.61,-1.61,1.61,1.71,2.81,8.02,8.02,8.02
36.33,6.45,6.45,-1.57,-1.57,1.57,1.66,2.74,8.01,8.01,8.01
36.70,6.49,6.49,-1.52,-1.52,1.52,1.60,2.67,8.01,8.01,8.01
37.06,6.53,6.53,-1.47,-1.48,1.48,1.55,2.59,8.01,8.00,8.00
37.43,6.56,6.56,-1.44,-1.44,1.44,1.50,2.52,7.99,8.00,8.00
37.81,6.60,6.60,-1.39,-1.39,1.39,1.45,2.45,7.99,7.99,7.99
38.19,6.63,6.63,-1.36,-1.35,1.35,1.40,2.37,7.98,7.98,7.98
38.57,6.67,6.66,-1.31,-1.31,1.31,1.35,2.30,7.98,7.98,7.98
38.95,6.70,6.70,-1.27,-1.27,1.27,1.30,2.22,7.97,7.97,7.97
39.34,6.73,6.73,-1.24,-1.23,1.23,1.25,2.15,7.96,7.96,7.96
39.74,6.77,6.76,-1.19,-1.19,1.19,1.21,2.07,7.96,7.96,7.96
40.14,6.80,6.80,-1.15,-1.15,1.15,1.16,2.00,7.95,7.95,7.95
40.54,6.83,6.83,-1.11,-1.11,1.12,1.12,1.92,7.94,7.94,7.94
40.94,6.86,6.85,-1.08,-1.08,1.08,1.07,1.85,7.94,7.93,7.93
41.35,6.88,6.88,-1.05,-1.04,1.04,1.03,1.78,7.92,7.92,7.92
41.76,6.91,6.91,-1.01,-1.01,1.01,0.98,1.70,7.91,7.91,7.92
42.18,6.94,6.94,-0.97,-0.97,0.97,0.94,1.63,7.91,7.91,7.91
42.60,6.97,6.96,-0.93,-0.93,0.93,0.90,1.56,7.90,7.90,7.90
43.03,6.99,6.99,-0.90,-0.90,0.90,0.86,1.49,7.88,7.89,7.89
43.46,7.02,7.02,-0.86,-0.86,0.86,0.82,1.43,7.88,7.88,7.88
43.90,7.05,7.04,-0.82,-0.82,0.82,0.78,1.36,7.87,7.87,7.87
44.33,7.07,7.07,-0.79,-0.78,0.79,0.74,1.29,7.86,7.86,7.86
44.78,7.10,7.10,-0.75,-0.75,0.75,0.70,1.23,7.85,7.85,7.85
45.23,7.12,7.12,-0.72,-0.72,0.72,0.66,1.16,7.83,7.83,7.83
45.68,7.14,7.14,-0.68,-0.68,0.68,0.63,1.10,7.82,7.82,7.82
46.13,7.16,7.16,-0.65,-0.65,0.65,0.59,1.04,7.81,7.81,7.81
46.60,7.18,7.18,-0.62,-0.62,0.62,0.56,0.98,7.79,7.79,7.80
47.06,7.20,7.20,-0.59,-0.58,0.58,0.52,0.92,7.78,7.78,7.78
47.53,7.22,7.22,-0.55,-0.55,0.55,0.49,0.86,7.77,7.77,7.77
48.01,7.24,7.23,-0.52,-0.52,0.52,0.46,0.80,7.76,7.76,7.75
48.49,7.25,7.25,-0.49,-0.49,0.49,0.43,0.75,7.74,7.74,7.74
48.97,7.26,7.26,-0.47,-0.47,0.47,0.39,0.69,7.72,7.72,7.72
49.46,7.27,7.27,-0.44,-0.44,0.44,0.36,0.64,7.71,7.71,7.71
49.96,7.28,7.28,-0.41,-0.41,0.41,0.33,0.58,7.69,7.69,7.69
50.46,7.29,7.29,-0.39,-0.39,0.39,0.30,0.53,7.67,7.67,7.68
50.96,7.30,7.30,-0.36,-0.36,0.36,0.28,0.48,7.66,7.66,7.66
51.47,7.31,7.31,-0.33,-0.33,0.33,0.25,0.43,7.64,7.64,7.64
51.99,7.32,7.32,-0.30,-0.31,0.31,0.22,0.38,7.62,7.62,7.62
52.51,7.32,7.32,-0.28,-0.28,0.28,0.19,0.33,7.60,7.60,7.60
53.03,7.33,7.33,-0.25,-0.26,0.26,0.17,0.28,7.58,7.58,7.58
53.56,7.33,7.33,-0.23,-0.23,0.23,0.14,0.23,7.56,7.56,7.56
54.10,7.34,7.34,-0.20,-0.20,0.21,0.12,0.19,7.54,7.54,7.54
54.64,7.34,7.34,-0.18,-0.18,0.18,0.09,0.14,7.52,7.52,7.52
55.18,7.34,7.34,-0.16,-0.16,0.16,0.07,0.10,7.50,7.50,7.50
55.74,7.34,7.33,-0.13,-0.14,0.14,0.04,0.05,7.48,7.47,7.47
56.29,7.33,7.33,-0.12,-0.12,0.12,0.02,0.01,7.44,7.45,7.45
56.86,7.33,7.33,-0.10,-0.10,0.09,-0.01,-0.03,7.42,7.42,7.42
57.42,7.33,7.32,-0.07,-0.07,0.07,-0.03,-0.07,7.40,7.40,7.40
58.00,7.32,7.32,-0.05,-0.05,0.05,-0.05,-0.11,7.37,7.37,7.37
58.58,7.32,7.32,-0.03,-0.03,0.03,-0.07,-0.15,7.35,7.34,7.34
59.16,7.31,7.31,-0.01,-0.01,0.00,-0.10,-0.18,7.31,7.31,7.32
59.76,7.31,7.31,0.02,0.02,-0.02,-0.12,-0.22,7.29,7.29,7.29
60.35,7.30,7.30,0.04,0.04,-0.04,-0.14,-0.25,7.25,7.26,7.26
60.96,7.30,7.30,0.07,0.07,-0.07,-0.16,-0.29,7.23,7.23,7.23
61.57,7.29,7.29,0.09,0.09,-0.09,-0.18,-0.32,7.20,7.20,7.20
62.18,7.28,7.28,0.11,0.12,-0.11,-0.21,-0.35,7.16,7.16,7.16
62.80,7.27,7.27,0.14,0.14,-0.14,-0.23,-0.38,7.13,7.13,7.13
63.43,7.26,7.26,0.16,0.16,-0.16,-0.25,-0.41,7.09,7.09,7.10
64.07,7.25,7.25,0.19,0.19,-0.19,-0.27,-0.43,7.06,7.06,7.06
64.71,7.24,7.24,0.21,0.21,-0.21,-0.29,-0.46,7.02,7.02,7.02
65.35,7.23,7.23,0.24,0.24,-0.24,-0.32,-0.49,6.99,6.99,6.99
66.01,7.22,7.22,0.27,0.27,-0.26,-0.34,-0.51,6.95,6.95,6.95
66.67,7.20,7.20,0.29,0.29,-0.29,-0.36,-0.54,6.91,6.91,6.91
67.33,7.19,7.18,0.32,0.31,-0.32,-0.38,-0.56,6.87,6.87,6.87
68.01,7.17,7.17,0.34,0.34,-0.34,-0.41,-0.58,6.83,6.83,6.83
68.69,7.15,7.15,0.36,0.37,-0.37,-0.43,-0.60,6.78,6.79,6.79
69.37,7.14,7.13,0.39,0.39,-0.39,-0.45,-0.63,6.75,6.74,6.74
70.07,7.12,7.12,0.42,0.42,-0.42,-0.48,-0.65,6.70,6.70,6.70
70.77,7.10,7.10,0.44,0.44,-0.44,-0.50,-0.67,6.65,6.66,6.65
71.48,7.08,7.08,0.47,0.47,-0.47,-0.53,-0.69,6.61,6.61,6.61
72.19,7.06,7.06,0.50,0.50,-0.50,-0.55,-0.71,6.56,6.56,6.56
72.91,7.04,7.03,0.52,0.52,-0.52,-0.58,-0.73,6.52,6.51,6.51
73.64,7.01,7.01,0.54,0.55,-0.55,-0.60,-0.75,6.46,6.46,6.46
74.38,6.99,6.99,0.57,0.57,-0.58,-0.63,-0.77,6.41,6.41,6.41
75.12,6.97,6.96,0.61,0.60,-0.60,-0.66,-0.79,6.37,6.36,6.36
75.87,6.94,6.94,0.63,0.63,-0.63,-0.68,-0.82,6.31,6.31,6.31
76.63,6.92,6.92,0.66,0.66,-0.66,-0.71,-0.84,6.26,6.26,6.26
77.40,6.89,6.89,0.69,0.69,-0.69,-0.74,-0.86,6.20,6.20,6.20
78.17,6.87,6.87,0.72,0.72,-0.72,-0.77,-0.88,6.15,6.15,6.15
78.95,6.84,6.84,0.75,0.75,-0.75,-0.80,-0.91,6.09,6.09,6.09
79.74,6.82,6.81,0.78,0.78,-0.78,-0.83,-0.93,6.04,6.03,6.03
80.54,6.79,6.79,0.81,0.81,-0.81,-0.86,-0.96,5.97,5.97,5.97
81.35,6.76,6.76,0.84,0.85,-0.85,-0.89,-0.98,5.91,5.92,5.92
82.16,6.74,6.73,0.88,0.88,-0.88,-0.92,-1.01,5.86,5.86,5.86
82.98,6.71,6.71,0.91,0.91,-0.91,-0.95,-1.04,5.80,5.80,5.79
83.81,6.68,6.68,0.94,0.95,-0.94,-0.98,-1.06,5.73,5.73,5.73
84.65,6.65,6.65,0.98,0.98,-0.98,-1.01,-1.09,5.67,5.67,5.67
85.50,6.62,6.62,1.01,1.01,-1.01,-1.05,-1.12,5.61,5.61,5.61
86.35,6.59,6.59,1.05,1.05,-1.05,-1.08,-1.15,5.54,5.54,5.54
87.22,6.56,6.56,1.08,1.08,-1.08,-1.11,-1.19,5.48,5.48,5.48
88.09,6.53,6.53,1.12,1.12,-1.12,-1.15,-1.22,5.41,5.41,5.41
88.97,6.50,6.50,1.15,1.15,-1.15,-1.18,-1.25,5.34,5.34,5.34
89.86,6.47,6.47,1.19,1.19,-1.19,-1.22,-1.29,5.28,5.28,5.28
90.76,6.44,6.44,1.23,1.23,-1.23,-1.25,-1.32,5.21,5.21,5.21
91.66,6.41,6.40,1.27,1.26,-1.26,-1.29,-1.36,5.14,5.14,5.14
92.58,6.37,6.37,1.30,1.30,-1.30,-1.32,-1.40,5.07,5.07,5.07
93.51,6.34,6.34,1.34,1.34,-1.34,-1.36,-1.44,5.00,5.00,5.00
94.44,6.31,6.31,1.38,1.38,-1.38,-1.40,-1.48,4.93,4.93,4.93
95.39,6.28,6.28,1.42,1.42,-1.42,-1.43,-1.52,4.86,4.86,4.86
96.34,6.25,6.25,1.46,1.46,-1.46,-1.47,-1.56,4.79,4.79,4.79
97.30,6.22,6.21,1.50,1.50,-1.50,-1.51,-1.60,4.72,4.72,4.72
98.28,6.18,6.18,1.53,1.54,-1.54,-1.55,-1.64,4.64,4.64,4.65
99.26,6.15,6.15,1.57,1.57,-1.58,-1.58,-1.68,4.57,4.57,4.57
100.25,6.12,6.12,1.62,1.62,-1.62,-1.62,-1.73,4.50,4.50,4.50
101.25,6.09,6.09,1.66,1.66,-1.66,-1.66,-1.77,4.43,4.43,4.43
102.27,6.06,6.06,1.70,1.70,-1.70,-1.70,-1.82,4.36,4.36,4.36
103.29,6.03,6.03,1.75,1.75,-1.74,-1.74,-1.86,4.28,4.28,4.28
104.32,6.00,6.00,1.79,1.79,-1.79,-1.77,-1.91,4.21,4.21,4.21
105.37,5.97,5.96,1.83,1.83,-1.83,-1.81,-1.95,4.14,4.14,4.14
106.42,5.93,5.93,1.86,1.87,-1.87,-1.85,-1.99,4.06,4.06,4.06
107.48,5.90,5.90,1.91,1.91,-1.91,-1.89,-2.04,3.99,3.99,3.99
108.56,5.87,5.86,1.95,1.95,-1.95,-1.92,-2.08,3.92,3.92,3.92
109.64,5.83,5.83,1.98,1.99,-1.99,-1.96,-2.12,3.84,3.84,3.84
110.74,5.80,5.80,2.03,2.02,-2.02,-2.00,-2.16,3.77,3.77,3.77
111.85,5.76,5.76,2.06,2.06,-2.06,-2.04,-2.20,3.70,3.70,3.70
112.97,5.73,5.73,2.10,2.10,-2.10,-2.07,-2.24,3.63,3.63,3.63
114.10,5.69,5.69,2.13,2.13,-2.13,-2.11,-2.27,3.55,3.56,3.56
115.24,5.66,5.66,2.17,2.17,-2.17,-2.14,-2.31,3.49,3.49,3.48
116.39,5.62,5.62,2.20,2.21,-2.21,-2.18,-2.34,3.41,3.41,3.41
117.55,5.59,5.58,2.24,2.24,-2.24,-2.21,-2.37,3.35,3.34,3.34
118.73,5.55,5.55,2.27,2.27,-2.27,-2.25,-2.39,3.27,3.27,3.27
119.92,5.51,5.51,2.30,2.31,-2.31,-2.28,-2.41,3.20,3.20,3.20
121.12,5.48,5.47,2.34,2.34,-2.34,-2.31,-2.44,3.14,3.14,3.14
122.33,5.44,5.44,2.37,2.37,-2.37,-2.34,-2.45,3.07,3.07,3.07
123.55,5.40,5.40,2.40,2.40,-2.40,-2.38,-2.47,3.00,3.00,3.00
124.79,5.36,5.36,2.43,2.42,-2.43,-2.41,-2.48,2.93,2.93,2.93
126.03,5.32,5.32,2.45,2.45,-2.45,-2.43,-2.48,2.87,2.87,2.87
127.29,5.28,5.28,2.48,2.48,-2.48,-2.46,-2.49,2.80,2.80,2.80
128.57,5.24,5.24,2.50,2.50,-2.50,-2.49,-2.49,2.74,2.74,2.74
129.85,5.20,5.20,2.52,2.52,-2.52,-2.51,-2.49,2.67,2.67,2.67
131.15,5.16,5.15,2.55,2.54,-2.54,-2.54,-2.48,2.61,2.61,2.61
132.46,5.11,5.11,2.56,2.56,-2.56,-2.56,-2.47,2.54,2.55,2.55
133.79,5.07,5.07,2.58,2.58,-2.58,-2.58,-2.46,2.49,2.49,2.49
135.12,5.03,5.02,2.60,2.60,-2.60,-2.60,-2.45,2.43,2.42,2.43
136.48,4.98,4.98,2.61,2.62,-2.62,-2.62,-2.43,2.36,2.37,2.37
137.84,4.94,4.94,2.63,2.63,-2.63,-2.63,-2.42,2.31,2.31,2.31
139.22,4.90,4.89,2.65,2.64,-2.64,-2.65,-2.40,2.25,2.25,2.25
140.61,4.85,4.85,2.65,2.66,-2.66,-2.66,-2.38,2.19,2.19,2.19
142.02,4.81,4.81,2.67,2.67,-2.67,-2.67,-2.36,2.14,2.14,2.14
143.44,4.77,4.76,2.68,2.68,-2.68,-2.68,-2.33,2.09,2.08,2.08
144.87,4.72,4.72,2.69,2.69,-2.69,-2.69,-2.31,2.03,2.03,2.03
146.32,4.68,4.68,2.70,2.70,-2.70,-2.70,-2.28,1.98,1.98,1.98
147.78,4.64,4.63,2.71,2.71,-2.71,-2.70,-2.26,1.93,1.93,1.93
149.26,4.59,4.59,2.71,2.71,-2.71,-2.70,-2.23,1.87,1.88,1.87
150.75,4.54,4.54,2.71,2.72,-2.72,-2.70,-2.21,1.82,1.83,1.83
152.26,4.50,4.49,2.72,2.72,-2.72,-2.70,-2.18,1.78,1.78,1.78
153.78,4.45,4.45,2.72,2.72,-2.72,-2.70,-2.16,1.73,1.73,1.73
155.32,4.40,4.40,2.71,2.72,-2.71,-2.70,-2.14,1.68,1.68,1.68
156.88,4.35,4.35,2.71,2.71,-2.71,-2.69,-2.11,1.64,1.64,1.64
158.44,4.30,4.30,2.70,2.70,-2.71,-2.69,-2.09,1.59,1.59,1.59
160.03,4.25,4.24,2.70,2.70,-2.70,-2.68,-2.07,1.55,1.54,1.55
161.63,4.19,4.19,2.69,2.69,-2.69,-2.67,-2.05,1.50,1.50,1.50
163.24,4.14,4.14,2.68,2.68,-2.68,-2.66,-2.03,1.46,1.46,1.46
164.88,4.09,4.09,2.67,2.67,-2.67,-2.65,-2.01,1.42,1.42,1.42
166.53,4.04,4.04,2.66,2.66,-2.66,-2.63,-2.00,1.38,1.38,1.38
168.19,3.98,3.98,2.64,2.64,-2.64,-2.62,-1.98,1.33,1.34,1.34
169.87,3.93,3.93,2.63,2.63,-2.63,-2.61,-1.97,1.30,1.30,1.30
171.57,3.87,3.87,2.60,2.61,-2.61,-2.59,-1.96,1.26,1.26,1.26
173.29,3.82,3.82,2.59,2.59,-2.58,-2.57,-1.95,1.23,1.23,1.23
175.02,3.76,3.76,2.56,2.56,-2.56,-2.55,-1.94,1.20,1.20,1.19
176.77,3.70,3.70,2.54,2.54,-2.54,-2.54,-1.93,1.16,1.16,1.16
178.54,3.64,3.64,2.51,2.51,-2.51,-2.51,-1.93,1.13,1.13,1.13
180.32,3.58,3.58,2.48,2.48,-2.48,-2.49,-1.92,1.09,1.09,1.10
182.13,3.52,3.52,2.45,2.45,-2.45,-2.47,-1.92,1.06,1.06,1.07
183.95,3.46,3.46,2.42,2.43,-2.43,-2.45,-1.92,1.03,1.04,1.04
185.79,3.41,3.40,2.40,2.40,-2.40,-2.43,-1.92,1.01,1.01,1.01
187.65,3.35,3.35,2.37,2.37,-2.37,-2.40,-1.92,0.98,0.98,0.98
189.52,3.29,3.29,2.34,2.34,-2.34,-2.38,-1.93,0.95,0.95,0.95
191.42,3.24,3.23,2.31,2.31,-2.31,-2.35,-1.93,0.93,0.92,0.92
193.33,3.18,3.18,2.28,2.28,-2.28,-2.32,-1.94,0.89,0.90,0.90
195.27,3.13,3.13,2.25,2.25,-2.26,-2.30,-1.94,0.87,0.87,0.87
197.22,3.08,3.08,2.23,2.23,-2.23,-2.27,-1.95,0.85,0.85,0.85
199.19,3.03,3.03,2.20,2.21,-2.21,-2.24,-1.96,0.82,0.83,0.82
201.18,2.99,2.98,2.19,2.18,-2.18,-2.21,-1.97,0.81,0.80,0.80
203.19,2.94,2.94,2.16,2.16,-2.15,-2.18,-1.98,0.78,0.78,0.78
205.23,2.89,2.89,2.13,2.13,-2.13,-2.15,-1.99,0.76,0.76,0.76
207.28,2.84,2.84,2.10,2.10,-2.10,-2.12,-2.01,0.74,0.74,0.74
209.35,2.79,2.79,2.07,2.07,-2.07,-2.09,-2.02,0.71,0.72,0.72
211.44,2.75,2.74,2.05,2.05,-2.05,-2.06,-2.03,0.70,0.70,0.70
213.56,2.70,2.70,2.02,2.02,-2.02,-2.03,-2.04,0.68,0.68,0.68
215.69,2.65,2.65,1.99,1.99,-1.99,-2.00,-2.05,0.66,0.66,0.66
217.85,2.60,2.60,1.95,1.96,-1.96,-1.97,-2.06,0.64,0.64,0.64
220.03,2.56,2.55,1.93,1.93,-1.93,-1.94,-2.07,0.63,0.63,0.63
222.23,2.51,2.51,1.90,1.90,-1.90,-1.90,-2.08,0.61,0.61,0.61
224.45,2.47,2.47,1.87,1.87,-1.87,-1.87,-2.09,0.60,0.59,0.59
226.70,2.42,2.42,1.84,1.84,-1.84,-1.84,-2.09,0.58,0.58,0.58
228.96,2.38,2.38,1.81,1.81,-1.81,-1.80,-2.10,0.56,0.56,0.56
231.25,2.33,2.33,1.78,1.78,-1.78,-1.77,-2.10,0.54,0.55,0.55
233.57,2.29,2.29,1.75,1.75,-1.75,-1.73,-2.10,0.54,0.53,0.53
235.90,2.24,2.24,1.73,1.72,-1.72,-1.70,-2.09,0.52,0.52,0.51
238.26,2.19,2.19,1.69,1.69,-1.69,-1.66,-2.09,0.50,0.50,0.50
240.64,2.14,2.14,1.65,1.65,-1.65,-1.63,-2.08,0.49,0.49,0.49
243.05,2.09,2.09,1.61,1.61,-1.61,-1.59,-2.07,0.47,0.47,0.47
245.48,2.04,2.04,1.58,1.58,-1.58,-1.55,-2.05,0.46,0.46,0.46
247.93,1.99,1.99,1.54,1.54,-1.54,-1.52,-2.03,0.45,0.45,0.45
250.41,1.94,1.94,1.50,1.50,-1.50,-1.48,-2.01,0.44,0.44,0.44
252.92,1.89,1.89,1.46,1.46,-1.46,-1.44,-1.99,0.43,0.43,0.43
255.45,1.84,1.84,1.42,1.42,-1.42,-1.40,-1.96,0.42,0.42,0.42
258.00,1.79,1.79,1.38,1.38,-1.38,-1.37,-1.93,0.41,0.41,0.41
260.58,1.74,1.74,1.34,1.34,-1.34,-1.33,-1.89,0.40,0.40,0.40
263.19,1.69,1.69,1.30,1.30,-1.30,-1.29,-1.86,0.39,0.39,0.39
265.82,1.64,1.64,1.26,1.26,-1.26,-1.25,-1.82,0.38,0.38,0.38
268.48,1.59,1.59,1.21,1.21,-1.22,-1.21,-1.77,0.37,0.37,0.37
271.16,1.54,1.54,1.17,1.17,-1.17,-1.17,-1.73,0.36,0.36,0.36
273.87,1.49,1.49,1.13,1.13,-1.13,-1.13,-1.68,0.36,0.36,0.36
276.61,1.44,1.44,1.09,1.09,-1.09,-1.09,-1.63,0.35,0.35,0.35
279.38,1.39,1.39,1.05,1.05,-1.04,-1.05,-1.57,0.35,0.35,0.34
282.17,1.34,1.34,1.00,1.00,-1.00,-1.00,-1.52,0.34,0.34,0.33
284.99,1.29,1.29,0.95,0.95,-0.95,-0.96,-1.46,0.34,0.34,0.34
287.84,1.24,1.24,0.90,0.90,-0.90,-0.92,-1.40,0.33,0.33,0.34
290.72,1.19,1.19,0.85,0.86,-0.86,-0.88,-1.34,0.33,0.33,0.33
293.63,1.15,1.14,0.82,0.81,-0.81,-0.84,-1.28,0.34,0.33,0.33
296.57,1.10,1.10,0.77,0.76,-0.76,-0.79,-1.21,0.33,0.33,0.33
299.53,1.05,1.05,0.71,0.72,-0.72,-0.75,-1.15,0.33,0.33,0.34
302.53,1.00,1.00,0.67,0.67,-0.67,-0.71,-1.08,0.33,0.33,0.33
305.55,0.96,0.95,0.62,0.62,-0.62,-0.66,-1.02,0.34,0.33,0.34
308.61,0.91,0.91,0.58,0.57,-0.57,-0.62,-0.95,0.34,0.34,0.33
311.69,0.86,0.86,0.52,0.52,-0.52,-0.57,-0.89,0.33,0.33,0.34
314.81,0.81,0.81,0.48,0.47,-0.47,-0.53,-0.82,0.33,0.33,0.33
317.96,0.76,0.76,0.42,0.43,-0.43,-0.49,-0.75,0.33,0.33,0.34
321.14,0.72,0.71,0.39,0.38,-0.38,-0.44,-0.68,0.34,0.34,0.33
324.35,0.67,0.67,0.33,0.33,-0.33,-0.40,-0.61,0.34,0.34,0.34
327.59,0.63,0.62,0.28,0.28,-0.29,-0.35,-0.55,0.34,0.34,0.34
330.87,0.58,0.58,0.24,0.24,-0.24,-0.31,-0.48,0.34,0.34,0.34
334.18,0.54,0.54,0.19,0.19,-0.19,-0.26,-0.41,0.34,0.34,0.35
337.52,0.50,0.50,0.16,0.15,-0.15,-0.22,-0.34,0.35,0.35,0.34
340.90,0.46,0.46,0.11,0.11,-0.11,-0.17,-0.27,0.35,0.35,0.35
344.30,0.42,0.42,0.06,0.07,-0.06,-0.12,-0.20,0.35,0.35,0.36
347.75,0.38,0.38,0.02,0.02,-0.02,-0.08,-0.13,0.36,0.36,0.36
351.23,0.35,0.34,-0.01,-0.02,0.02,-0.03,-0.06,0.37,0.36,0.36
354.74,0.31,0.31,-0.07,-0.06,0.06,0.01,0.00,0.37,0.37,0.38
358.28,0.28,0.28,-0.10,-0.10,0.10,0.06,0.07,0.37,0.37,0.37
361.87,0.25,0.25,-0.13,-0.13,0.13,0.10,0.14,0.38,0.38,0.38
365.49,0.22,0.22,-0.17,-0.17,0.17,0.15,0.21,0.39,0.39,0.39
369.14,0.19,0.19,-0.20,-0.20,0.20,0.20,0.28,0.39,0.39,0.38
372.83,0.16,0.16,-0.24,-0.24,0.24,0.24,0.35,0.40,0.40,0.40
376.56,0.13,0.13,-0.27,-0.27,0.27,0.29,0.42,0.40,0.40,0.40
380.33,0.10,0.10,-0.31,-0.31,0.31,0.33,0.49,0.41,0.41,0.41
384.13,0.07,0.07,-0.34,-0.34,0.34,0.38,0.55,0.41,0.41,0.40
387.97,0.04,0.04,-0.38,-0.38,0.38,0.43,0.62,0.42,0.42,0.41
391.85,0.01,0.01,-0.42,-0.42,0.42,0.47,0.69,0.43,0.43,0.43
395.77,-0.02,-0.02,-0.45,-0.46,0.46,0.52,0.76,0.43,0.43,0.43
399.73,-0.06,-0.06,-0.50,-0.50,0.50,0.56,0.83,0.43,0.44,0.44
403.72,-0.09,-0.09,-0.54,-0.53,0.53,0.61,0.89,0.44,0.44,0.44
407.76,-0.13,-0.13,-0.58,-0.58,0.57,0.65,0.96,0.44,0.44,0.44
411.84,-0.16,-0.17,-0.61,-0.62,0.61,0.70,1.02,0.45,0.45,0.45
415.96,-0.20,-0.20,-0.66,-0.65,0.65,0.74,1.09,0.45,0.46,0.46
420.12,-0.23,-0.23,-0.69,-0.69,0.69,0.79,1.15,0.46,0.46,0.46
424.32,-0.26,-0.27,-0.73,-0.73,0.73,0.83,1.22,0.47,0.47,0.47
428.56,-0.30,-0.30,-0.78,-0.77,0.77,0.88,1.28,0.47,0.47,0.47
432.85,-0.33,-0.34,-0.82,-0.82,0.81,0.92,1.34,0.48,0.48,0.48
437.18,-0.37,-0.37,-0.85,-0.85,0.86,0.96,1.40,0.48,0.49,0.48
441.55,-0.40,-0.40,-0.89,-0.89,0.90,1.01,1.46,0.50,0.50,0.49
445.96,-0.43,-0.44,-0.93,-0.94,0.94,1.05,1.51,0.51,0.50,0.50
450.42,-0.47,-0.47,-0.99,-0.98,0.98,1.09,1.56,0.51,0.51,0.52
454.93,-0.50,-0.50,-1.03,-1.03,1.02,1.13,1.62,0.52,0.52,0.53
459.48,-0.53,-0.53,-1.07,-1.07,1.06,1.18,1.66,0.53,0.53,0.54
464.07,-0.56,-0.56,-1.10,-1.10,1.10,1.22,1.71,0.54,0.54,0.53
468.71,-0.59,-0.59,-1.14,-1.13,1.13,1.26,1.75,0.54,0.55,0.54
473.40,-0.61,-0.62,-1.16,-1.17,1.17,1.30,1.79,0.56,0.55,0.55
478.13,-0.64,-0.64,-1.20,-1.20,1.21,1.34,1.83,0.56,0.56,0.56
482.91,-0.67,-0.67,-1.24,-1.24,1.24,1.38,1.86,0.57,0.57,0.57
487.74,-0.69,-0.70,-1.27,-1.28,1.28,1.42,1.89,0.58,0.58,0.58
492.62,-0.72,-0.72,-1.31,-1.31,1.31,1.46,1.92,0.59,0.59,0.59
497.55,-0.75,-0.75,-1.35,-1.35,1.35,1.49,1.95,0.60,0.60,0.60
502.52,-0.77,-0.78,-1.38,-1.39,1.39,1.53,1.97,0.61,0.61,0.61
507.55,-0.80,-0.80,-1.43,-1.42,1.42,1.57,1.98,0.62,0.62,0.63
512.62,-0.82,-0.82,-1.46,-1.46,1.46,1.60,2.00,0.64,0.63,0.63
517.75,-0.85,-0.85,-1.50,-1.50,1.49,1.64,2.01,0.64,0.64,0.64
522.93,-0.87,-0.88,-1.53,-1.53,1.53,1.67,2.01,0.65,0.65,0.65
528.16,-0.90,-0.90,-1.57,-1.56,1.56,1.71,2.02,0.66,0.66,0.66
533.44,-0.92,-0.92,-1.59,-1.59,1.59,1.74,2.02,0.67,0.67,0.67
538.77,-0.94,-0.94,-1.61,-1.62,1.62,1.77,2.01,0.68,0.68,0.67
544.16,-0.96,-0.96,-1.65,-1.65,1.66,1.80,2.01,0.69,0.69,0.69
549.60,-0.98,-0.98,-1.68,-1.68,1.69,1.83,2.00,0.71,0.71,0.70
555.10,-1.00,-1.00,-1.72,-1.72,1.72,1.86,2.00,0.72,0.72,0.72
