frequency,raw,smoothed,error,error_smoothed,equalization,parametric_eq,fixed_band_eq,equalized_raw,equalized_smoothed,target
20.00,-2.33,-2.32,-10.19,-10.18,6.00,6.29,2.75,3.67,3.68,7.86
20.20,-2.31,-2.31,-10.17,-10.17,6.00,6.28,2.83,3.69,3.69,7.86
20.40,-2.29,-2.29,-10.15,-10.15,6.00,6.28,2.91,3.71,3.71,7.86
20.61,-2.27,-2.26,-10.13,-10.12,6.00,6.28,2.99,3.73,3.74,7.86
20.81,-2.21,-2.21,-10.06,-10.07,6.00,6.28,3.08,3.79,3.79,7.86
21.02,-2.15,-2.15,-10.00,-10.01,6.00,6.28,3.17,3.85,3.85,7.86
21.23,-2.08,-2.08,-9.93,-9.93,6.00,6.27,3.26,3.92,3.92,7.86
21.44,-2.01,-2.01,-9.86,-9.86,6.00,6.27,3.35,3.99,3.99,7.86
21.66,-1.93,-1.93,-9.78,-9.79,6.00,6.27,3.44,4.07,4.07,7.86
21.87,-1.85,-1.85,-9.71,-9.71,6.00,6.27,3.54,4.15,4.15,7.86
22.09,-1.77,-1.76,-9.62,-9.62,6.00,6.27,3.64,4.23,4.24,7.85
22.31,-1.66,-1.67,-9.52,-9.52,6.00,6.26,3.75,4.34,4.33,7.85
22.54,-1.57,-1.57,-9.42,-9.42,6.00,6.26,3.85,4.43,4.43,7.85
22.76,-1.47,-1.47,-9.32,-9.32,6.00,6.26,3.96,4.53,4.53,7.85
22.99,-1.38,-1.38,-9.23,-9.23,6.00,6.26,4.07,4.62,4.62,7.85
23.22,-1.30,-1.30,-9.15,-9.15,6.00,6.26,4.19,4.70,4.70,7.85
23.45,-1.24,-1.24,-9.08,-9.08,6.00,6.25,4.30,4.76,4.76,7.85
23.69,-1.19,-1.19,-9.03,-9.04,6.00,6.25,4.42,4.81,4.81,7.85
23.92,-1.16,-1.16,-9.00,-9.00,6.00,6.25,4.55,4.84,4.84,7.85
24.16,-1.14,-1.13,-8.98,-8.98,6.00,6.25,4.67,4.86,4.87,7.85
24.40,-1.11,-1.11,-8.95,-8.95,6.00,6.24,4.80,4.89,4.89,7.84
24.65,-1.09,-1.08,-8.93,-8.93,6.00,6.24,4.92,4.91,4.92,7.84
24.89,-1.06,-1.05,-8.90,-8.89,6.00,6.24,5.05,4.94,4.95,7.84
25.14,-1.01,-1.01,-8.85,-8.85,6.00,6.23,5.19,4.99,4.99,7.84
25.39,-0.96,-0.95,-8.79,-8.79,6.00,6.23,5.32,5.04,5.05,7.84
25.65,-0.90,-0.90,-8.73,-8.73,6.00,6.23,5.45,5.10,5.10,7.84
25.91,-0.84,-0.84,-8.67,-8.67,6.00,6.23,5.59,5.16,5.16,7.84
26.16,-0.79,-0.79,-8.62,-8.62,6.00,6.22,5.72,5.21,5.21,7.83
26.43,-0.74,-0.74,-8.57,-8.57,6.00,6.22,5.85,5.26,5.26,7.83
26.69,-0.70,-0.70,-8.53,-8.53,6.00,6.22,5.99,5.30,5.30,7.83
26.96,-0.66,-0.65,-8.49,-8.48,6.00,6.21,6.12,5.34,5.35,7.83
27.23,-0.61,-0.61,-8.43,-8.44,6.00,6.21,6.25,5.39,5.39,7.83
27.50,-0.57,-0.56,-8.39,-8.39,6.00,6.21,6.37,5.43,5.44,7.83
27.77,-0.51,-0.51,-8.33,-8.33,6.00,6.20,6.49,5.49,5.49,7.82
28.05,-0.46,-0.46,-8.28,-8.28,6.00,6.20,6.61,5.54,5.54,7.82
28.33,-0.41,-0.41,-8.23,-8.23,6.00,6.20,6.73,5.59,5.59,7.82
28.62,-0.37,-0.37,-8.18,-8.18,6.00,6.19,6.84,5.63,5.63,7.82
28.90,-0.34,-0.34,-8.15,-8.15,6.00,6.19,6.93,5.66,5.66,7.81
29.19,-0.32,-0.32,-8.13,-8.13,6.00,6.18,7.03,5.68,5.68,7.81
29.48,-0.31,-0.31,-8.12,-8.12,6.00,6.18,7.11,5.69,5.69,7.81
29.78,-0.30,-0.30,-8.10,-8.10,6.00,6.18,7.19,5.70,5.70,7.81
30.08,-0.29,-0.28,-8.09,-8.09,6.00,6.17,7.26,5.71,5.72,7.80
30.38,-0.27,-0.27,-8.07,-8.07,6.00,6.17,7.32,5.73,5.73,7.80
30.68,-0.24,-0.23,-8.04,-8.03,6.00,6.16,7.36,5.76,5.77,7.80
30.99,-0.20,-0.20,-7.99,-7.99,6.00,6.16,7.40,5.80,5.80,7.80
31.30,-0.15,-0.15,-7.94,-7.94,6.00,6.15,7.42,5.85,5.85,7.79
31.61,-0.11,-0.10,-7.90,-7.89,6.00,6.15,7.44,5.89,5.90,7.79
31.93,-0.06,-0.06,-7.84,-7.84,6.00,6.15,7.44,5.94,5.94,7.79
32.24,-0.01,-0.01,-7.79,-7.79,6.00,6.14,7.44,5.99,5.99,7.78
32.57,0.03,0.04,-7.75,-7.74,6.00,6.14,7.42,6.03,6.04,7.78
32.89,0.07,0.07,-7.70,-7.70,6.00,6.13,7.40,6.07,6.07,7.78
33.22,0.11,0.11,-7.66,-7.66,6.00,6.13,7.36,6.11,6.11,7.77
33.55,0.14,0.15,-7.62,-7.62,6.00,6.12,7.32,6.14,6.15,7.77
33.89,0.18,0.18,-7.58,-7.58,6.00,6.12,7.27,6.18,6.18,7.76
34.23,0.21,0.22,-7.55,-7.54,6.00,6.11,7.21,6.21,6.22,7.76
34.57,0.25,0.25,-7.50,-7.51,6.00,6.10,7.15,6.25,6.25,7.76
34.92,0.28,0.29,-7.47,-7.47,6.00,6.10,7.08,6.28,6.29,7.75
35.27,0.32,0.32,-7.42,-7.42,6.00,6.09,7.01,6.32,6.32,7.75
35.62,0.36,0.36,-7.38,-7.38,6.00,6.09,6.93,6.36,6.36,7.74
35.97,0.40,0.40,-7.33,-7.33,6.00,6.08,6.85,6.40,6.40,7.74
36.33,0.44,0.44,-7.29,-7.29,6.00,6.08,6.77,6.44,6.44,7.73
36.70,0.47,0.47,-7.25,-7.25,6.00,6.07,6.69,6.47,6.47,7.73
37.06,0.50,0.51,-7.22,-7.21,6.00,6.06,6.61,6.50,6.51,7.72
37.43,0.53,0.54,-7.18,-7.18,6.00,6.06,6.52,6.53,6.54,7.71
37.81,0.57,0.57,-7.13,-7.14,6.00,6.05,6.44,6.57,6.57,7.71
38.19,0.60,0.60,-7.10,-7.10,6.00,6.05,6.36,6.60,6.60,7.70
38.57,0.63,0.64,-7.06,-7.06,6.00,6.04,6.28,6.63,6.64,7.70
38.95,0.67,0.67,-7.01,-7.02,6.00,6.03,6.20,6.67,6.67,7.69
39.34,0.70,0.71,-6.98,-6.97,6.00,6.03,6.13,6.70,6.71,7.68
39.74,0.74,0.74,-6.93,-6.93,6.00,6.02,6.06,6.74,6.74,7.67
40.14,0.77,0.77,-6.89,-6.90,6.00,6.02,5.99,6.77,6.77,7.67
40.54,0.79,0.80,-6.87,-6.86,6.00,6.01,5.92,6.79,6.80,7.66
40.94,0.81,0.81,-6.84,-6.84,6.00,6.00,5.86,6.81,6.81,7.65
41.35,0.83,0.83,-6.81,-6.81,6.00,6.00,5.80,6.83,6.83,7.64
41.76,0.84,0.85,-6.79,-6.79,6.00,5.99,5.75,6.84,6.85,7.63
42.18,0.86,0.87,-6.76,-6.76,6.00,5.99,5.70,6.86,6.87,7.62
42.60,0.89,0.90,-6.72,-6.72,6.00,5.98,5.65,6.89,6.90,7.62
43.03,0.93,0.93,-6.67,-6.67,6.00,5.98,5.61,6.93,6.93,7.61
43.46,0.97,0.97,-6.62,-6.62,6.00,5.97,5.57,6.97,6.97,7.60
43.90,1.01,1.01,-6.57,-6.57,6.00,5.97,5.54,7.01,7.01,7.58
44.33,1.04,1.05,-6.53,-6.53,6.00,5.96,5.51,7.04,7.05,7.57
44.78,1.08,1.08,-6.48,-6.48,6.00,5.96,5.48,7.08,7.08,7.56
45.23,1.12,1.12,-6.43,-6.43,6.00,5.95,5.46,7.12,7.12,7.55
45.68,1.16,1.17,-6.38,-6.37,6.00,5.95,5.44,7.16,7.17,7.54
46.13,1.20,1.21,-6.32,-6.32,6.00,5.95,5.43,7.20,7.21,7.53
46.60,1.24,1.24,-6.27,-6.28,6.00,5.94,5.42,7.24,7.24,7.51
47.06,1.26,1.26,-6.24,-6.24,6.00,5.94,5.41,7.26,7.26,7.50
47.53,1.27,1.28,-6.21,-6.21,6.00,5.93,5.41,7.27,7.28,7.49
48.01,1.28,1.28,-6.19,-6.19,6.00,5.93,5.41,7.28,7.28,7.47
48.49,1.28,1.29,-6.17,-6.17,6.00,5.93,5.42,7.29,7.29,7.46
48.97,1.29,1.29,-6.15,-6.15,6.01,5.92,5.43,7.30,7.30,7.44
49.46,1.29,1.29,-6.13,-6.13,6.01,5.91,5.44,7.30,7.30,7.43
49.96,1.29,1.30,-6.12,-6.11,6.01,5.91,5.45,7.30,7.30,7.41
50.46,1.31,1.31,-6.08,-6.08,6.00,5.90,5.47,7.31,7.31,7.39
50.96,1.33,1.33,-6.04,-6.04,5.98,5.89,5.49,7.32,7.32,7.38
51.47,1.36,1.36,-5.99,-5.99,5.96,5.88,5.51,7.33,7.33,7.36
51.99,1.39,1.39,-5.95,-5.94,5.94,5.86,5.54,7.33,7.33,7.34
52.51,1.42,1.42,-5.90,-5.90,5.91,5.84,5.56,7.33,7.33,7.32
53.03,1.44,1.44,-5.86,-5.86,5.87,5.82,5.58,7.32,7.32,7.30
53.56,1.45,1.46,-5.83,-5.82,5.84,5.80,5.61,7.29,7.29,7.28
54.10,1.46,1.46,-5.79,-5.79,5.79,5.77,5.63,7.26,7.26,7.26
54.64,1.47,1.47,-5.76,-5.76,5.75,5.74,5.66,7.23,7.23,7.24
55.18,1.48,1.49,-5.73,-5.73,5.71,5.71,5.68,7.20,7.20,7.21
55.74,1.50,1.50,-5.69,-5.69,5.68,5.67,5.70,7.18,7.19,7.19
56.29,1.52,1.52,-5.64,-5.64,5.65,5.63,5.72,7.18,7.17,7.17
56.86,1.53,1.53,-5.61,-5.61,5.63,5.59,5.74,7.17,7.17,7.14
57.42,1.53,1.53,-5.58,-5.58,5.61,5.55,5.75,7.15,7.15,7.12
58.00,1.52,1.52,-5.57,-5.57,5.59,5.51,5.76,7.12,7.11,7.09
58.58,1.49,1.49,-5.57,-5.57,5.57,5.46,5.77,7.06,7.06,7.06
59.16,1.46,1.47,-5.57,-5.56,5.54,5.41,5.77,7.00,7.01,7.03
59.76,1.45,1.46,-5.55,-5.54,5.50,5.37,5.76,6.95,6.96,7.00
60.35,1.48,1.48,-5.49,-5.49,5.45,5.32,5.75,6.94,6.93,6.97
60.96,1.52,1.53,-5.42,-5.41,5.39,5.27,5.73,6.92,6.92,6.94
61.57,1.59,1.59,-5.32,-5.32,5.32,5.22,5.71,6.92,6.92,6.91
62.18,1.66,1.65,-5.22,-5.23,5.25,5.17,5.68,6.91,6.90,6.88
62.80,1.70,1.70,-5.14,-5.14,5.17,5.13,5.65,6.88,6.88,6.85
63.43,1.73,1.74,-5.08,-5.08,5.10,5.08,5.60,6.83,6.84,6.81
64.07,1.76,1.76,-5.01,-5.02,5.03,5.03,5.55,6.79,6.79,6.78
64.71,1.77,1.78,-4.97,-4.96,4.97,4.98,5.50,6.74,6.74,6.74
65.35,1.79,1.79,-4.91,-4.91,4.91,4.93,5.44,6.70,6.70,6.70
66.01,1.80,1.81,-4.86,-4.86,4.85,4.88,5.37,6.66,6.66,6.67
66.67,1.82,1.82,-4.80,-4.80,4.79,4.82,5.29,6.62,6.62,6.63
67.33,1.84,1.84,-4.74,-4.75,4.73,4.77,5.22,6.58,6.58,6.59
68.01,1.86,1.87,-4.68,-4.68,4.67,4.72,5.13,6.53,6.54,6.55
68.69,1.89,1.90,-4.61,-4.61,4.61,4.67,5.04,6.50,6.50,6.50
69.37,1.92,1.92,-4.54,-4.54,4.54,4.61,4.95,6.47,6.47,6.46
70.07,1.95,1.95,-4.46,-4.47,4.48,4.56,4.85,6.43,6.43,6.42
70.77,1.96,1.97,-4.41,-4.41,4.42,4.51,4.76,6.38,6.38,6.37
71.48,1.97,1.97,-4.35,-4.35,4.36,4.45,4.65,6.34,6.33,6.33
72.19,1.97,1.97,-4.31,-4.30,4.31,4.40,4.55,6.28,6.28,6.28
72.91,1.97,1.97,-4.26,-4.26,4.25,4.34,4.44,6.23,6.23,6.23
73.64,1.97,1.97,-4.21,-4.21,4.20,4.28,4.34,6.18,6.18,6.18
74.38,1.97,1.97,-4.16,-4.16,4.15,4.22,4.23,6.13,6.13,6.13
75.12,1.97,1.98,-4.11,-4.10,4.10,4.17,4.12,6.07,6.08,6.08
75.87,1.98,1.98,-4.04,-4.05,4.05,4.11,4.01,6.03,6.03,6.03
76.63,1.98,1.99,-3.99,-3.99,3.99,4.05,3.90,5.97,5.98,5.97
77.40,1.99,1.99,-3.93,-3.93,3.93,3.98,3.80,5.92,5.92,5.92
78.17,1.99,2.00,-3.87,-3.87,3.87,3.92,3.69,5.86,5.86,5.86
78.95,2.00,2.00,-3.80,-3.80,3.80,3.86,3.58,5.81,5.81,5.81
79.74,2.01,2.01,-3.74,-3.74,3.74,3.80,3.48,5.75,5.75,5.75
80.54,2.02,2.02,-3.67,-3.67,3.67,3.73,3.37,5.69,5.69,5.69
81.35,2.03,2.04,-3.60,-3.60,3.60,3.67,3.27,5.63,5.63,5.63
82.16,2.05,2.05,-3.52,-3.52,3.52,3.60,3.17,5.58,5.57,5.57
82.98,2.06,2.06,-3.45,-3.45,3.45,3.53,3.07,5.51,5.51,5.51
83.81,2.07,2.08,-3.38,-3.37,3.37,3.47,2.97,5.45,5.45,5.45
84.65,2.09,2.09,-3.29,-3.30,3.30,3.40,2.87,5.39,5.39,5.39
85.50,2.10,2.10,-3.22,-3.22,3.22,3.33,2.78,5.33,5.33,5.32
86.35,2.11,2.12,-3.15,-3.14,3.15,3.26,2.69,5.26,5.26,5.26
87.22,2.12,2.12,-3.07,-3.07,3.07,3.19,2.60,5.20,5.20,5.19
88.09,2.13,2.13,-2.99,-3.00,3.00,3.12,2.51,5.13,5.13,5.13
88.97,2.13,2.14,-2.93,-2.92,2.92,3.04,2.42,5.06,5.06,5.06
89.86,2.14,2.14,-2.85,-2.85,2.85,2.97,2.33,4.99,4.99,4.99
90.76,2.15,2.15,-2.77,-2.77,2.77,2.90,2.25,4.92,4.92,4.93
91.66,2.16,2.16,-2.69,-2.69,2.69,2.82,2.17,4.86,4.86,4.86
92.58,2.17,2.17,-2.61,-2.61,2.62,2.75,2.09,4.79,4.79,4.79
93.51,2.18,2.18,-2.54,-2.54,2.54,2.67,2.01,4.72,4.72,4.72
94.44,2.19,2.19,-2.45,-2.46,2.46,2.60,1.94,4.65,4.65,4.65
95.39,2.19,2.20,-2.38,-2.38,2.38,2.52,1.86,4.58,4.58,4.58
96.34,2.20,2.20,-2.30,-2.30,2.31,2.45,1.79,4.51,4.51,4.51
97.30,2.20,2.21,-2.23,-2.23,2.23,2.37,1.72,4.43,4.43,4.44
98.28,2.21,2.21,-2.15,-2.15,2.15,2.29,1.65,4.36,4.36,4.36
99.26,2.21,2.22,-2.08,-2.07,2.07,2.21,1.58,4.29,4.29,4.29
100.25,2.22,2.22,-1.99,-1.99,1.99,2.13,1.51,4.22,4.22,4.22
101.25,2.23,2.23,-1.91,-1.91,1.91,2.06,1.45,4.14,4.14,4.15
102.27,2.24,2.24,-1.83,-1.83,1.83,1.98,1.38,4.07,4.07,4.07
103.29,2.25,2.25,-1.75,-1.75,1.75,1.90,1.32,4.00,4.00,4.00
104.32,2.26,2.26,-1.66,-1.66,1.66,1.82,1.26,3.93,3.93,3.93
105.37,2.27,2.27,-1.58,-1.58,1.58,1.74,1.20,3.86,3.86,3.85
106.42,2.28,2.28,-1.50,-1.50,1.50,1.66,1.14,3.78,3.78,3.78
107.48,2.28,2.29,-1.42,-1.42,1.42,1.58,1.08,3.70,3.71,3.71
108.56,2.29,2.29,-1.34,-1.34,1.34,1.50,1.03,3.63,3.63,3.64
109.64,2.30,2.30,-1.26,-1.26,1.26,1.42,0.97,3.56,3.56,3.56
110.74,2.30,2.31,-1.19,-1.18,1.18,1.34,0.92,3.49,3.49,3.49
111.85,2.31,2.31,-1.10,-1.11,1.11,1.27,0.86,3.42,3.42,3.42
112.97,2.31,2.32,-1.03,-1.03,1.03,1.19,0.81,3.34,3.35,3.35
114.10,2.32,2.32,-0.95,-0.95,0.96,1.11,0.76,3.28,3.28,3.27
115.24,2.32,2.32,-0.88,-0.88,0.88,1.03,0.71,3.21,3.21,3.20
116.39,2.32,2.32,-0.81,-0.81,0.81,0.95,0.66,3.13,3.13,3.13
117.55,2.32,2.32,-0.74,-0.74,0.74,0.87,0.61,3.06,3.06,3.06
118.73,2.32,2.32,-0.67,-0.67,0.67,0.80,0.57,2.99,2.99,2.99
119.92,2.32,2.33,-0.60,-0.60,0.59,0.72,0.52,2.92,2.92,2.92
121.12,2.33,2.33,-0.52,-0.52,0.52,0.64,0.47,2.85,2.85,2.85
122.33,2.33,2.34,-0.45,-0.45,0.44,0.57,0.43,2.78,2.78,2.78
123.55,2.34,2.35,-0.37,-0.37,0.37,0.49,0.39,2.71,2.72,2.72
124.79,2.36,2.36,-0.29,-0.29,0.29,0.42,0.34,2.66,2.65,2.65
126.03,2.37,2.37,-0.21,-0.21,0.22,0.35,0.30,2.59,2.59,2.58
127.29,2.37,2.38,-0.15,-0.14,0.14,0.27,0.26,2.52,2.52,2.52
128.57,2.38,2.38,-0.07,-0.07,0.07,0.20,0.22,2.45,2.45,2.45
129.85,2.39,2.39,0.00,0.00,-0.00,0.13,0.18,2.39,2.39,2.39
131.15,2.39,2.40,0.07,0.07,-0.07,0.06,0.14,2.32,2.33,2.33
132.46,2.40,2.40,0.14,0.14,-0.14,-0.01,0.10,2.27,2.26,2.27
133.79,2.40,2.41,0.20,0.20,-0.20,-0.08,0.06,2.20,2.20,2.20
135.12,2.41,2.41,0.27,0.27,-0.27,-0.15,0.02,2.15,2.14,2.14
136.48,2.41,2.42,0.33,0.33,-0.33,-0.22,-0.02,2.08,2.08,2.08
137.84,2.42,2.42,0.40,0.39,-0.39,-0.28,-0.06,2.03,2.03,2.03
139.22,2.42,2.42,0.46,0.46,-0.46,-0.35,-0.10,1.97,1.97,1.97
140.61,2.42,2.43,0.51,0.52,-0.52,-0.41,-0.13,1.91,1.91,1.91
142.02,2.43,2.43,0.58,0.57,-0.58,-0.48,-0.17,1.86,1.85,1.86
143.44,2.43,2.43,0.63,0.63,-0.63,-0.54,-0.21,1.80,1.80,1.80
144.87,2.43,2.44,0.69,0.69,-0.69,-0.60,-0.25,1.74,1.75,1.75
146.32,2.44,2.44,0.75,0.75,-0.75,-0.66,-0.29,1.70,1.70,1.69
147.78,2.44,2.44,0.80,0.80,-0.80,-0.72,-0.32,1.64,1.64,1.64
149.26,2.44,2.45,0.85,0.85,-0.85,-0.78,-0.36,1.59,1.59,1.59
150.75,2.44,2.45,0.90,0.90,-0.90,-0.84,-0.40,1.54,1.54,1.54
152.26,2.45,2.45,0.96,0.96,-0.95,-0.89,-0.44,1.50,1.50,1.49
153.78,2.45,2.45,1.01,1.01,-1.00,-0.95,-0.48,1.45,1.45,1.45
155.32,2.45,2.45,1.05,1.05,-1.05,-1.00,-0.52,1.40,1.40,1.40
156.88,2.45,2.45,1.10,1.10,-1.10,-1.06,-0.56,1.35,1.35,1.36
158.44,2.45,2.45,1.14,1.14,-1.15,-1.11,-0.60,1.31,1.31,1.31
160.03,2.45,2.45,1.19,1.19,-1.19,-1.16,-0.65,1.26,1.26,1.27
161.63,2.45,2.46,1.24,1.24,-1.24,-1.21,-0.69,1.21,1.22,1.22
163.24,2.46,2.46,1.29,1.29,-1.28,-1.26,-0.73,1.18,1.18,1.17
164.88,2.46,2.46,1.33,1.33,-1.33,-1.31,-0.78,1.14,1.14,1.13
166.53,2.46,2.47,1.37,1.37,-1.37,-1.35,-0.82,1.09,1.10,1.09
168.19,2.47,2.47,1.42,1.41,-1.41,-1.40,-0.87,1.06,1.06,1.06
169.87,2.47,2.47,1.46,1.45,-1.46,-1.44,-0.92,1.02,1.02,1.02
171.57,2.47,2.48,1.49,1.49,-1.49,-1.49,-0.97,0.98,0.98,0.98
173.29,2.47,2.48,1.53,1.53,-1.53,-1.53,-1.01,0.94,0.95,0.95
175.02,2.48,2.48,1.57,1.57,-1.57,-1.57,-1.06,0.92,0.91,0.91
176.77,2.48,2.48,1.61,1.60,-1.60,-1.61,-1.11,0.88,0.88,0.88
178.54,2.48,2.48,1.64,1.64,-1.64,-1.65,-1.17,0.85,0.85,0.85
180.32,2.48,2.48,1.67,1.67,-1.67,-1.69,-1.22,0.81,0.81,0.81
182.13,2.48,2.48,1.70,1.70,-1.70,-1.72,-1.27,0.78,0.78,0.78
183.95,2.48,2.48,1.73,1.73,-1.73,-1.76,-1.33,0.75,0.75,0.75
185.79,2.48,2.48,1.76,1.76,-1.76,-1.79,-1.38,0.72,0.72,0.72
187.65,2.48,2.48,1.79,1.79,-1.79,-1.83,-1.44,0.69,0.69,0.70
189.52,2.48,2.48,1.82,1.82,-1.82,-1.86,-1.50,0.67,0.67,0.67
191.42,2.48,2.48,1.84,1.84,-1.84,-1.89,-1.56,0.64,0.64,0.64
193.33,2.48,2.48,1.87,1.87,-1.87,-1.92,-1.61,0.62,0.62,0.62
195.27,2.48,2.48,1.89,1.89,-1.89,-1.95,-1.67,0.59,0.59,0.59
197.22,2.48,2.48,1.92,1.91,-1.91,-1.97,-1.73,0.57,0.57,0.57
199.19,2.47,2.48,1.93,1.93,-1.94,-2.00,-1.79,0.54,0.54,0.54
201.18,2.47,2.47,1.95,1.95,-1.96,-2.03,-1.86,0.52,0.52,0.52
203.19,2.47,2.47,1.98,1.98,-1.98,-2.05,-1.92,0.50,0.49,0.50
205.23,2.47,2.47,2.00,2.00,-2.00,-2.07,-1.98,0.48,0.48,0.48
207.28,2.47,2.47,2.02,2.02,-2.02,-2.10,-2.04,0.46,0.46,0.46
209.35,2.47,2.47,2.04,2.04,-2.04,-2.12,-2.10,0.44,0.44,0.44
211.44,2.47,2.47,2.06,2.06,-2.06,-2.14,-2.16,0.42,0.42,0.42
213.56,2.47,2.47,2.08,2.08,-2.07,-2.15,-2.22,0.40,0.40,0.40
215.69,2.47,2.47,2.10,2.09,-2.09,-2.17,-2.27,0.38,0.38,0.38
217.85,2.46,2.47,2.10,2.11,-2.11,-2.19,-2.33,0.36,0.36,0.36
220.03,2.46,2.46,2.12,2.12,-2.12,-2.21,-2.38,0.34,0.34,0.34
222.23,2.46,2.46,2.14,2.13,-2.13,-2.22,-2.44,0.33,0.33,0.33
224.45,2.45,2.46,2.14,2.15,-2.14,-2.23,-2.49,0.31,0.31,0.31
226.70,2.45,2.45,2.16,2.16,-2.16,-2.25,-2.53,0.30,0.30,0.30
228.96,2.44,2.45,2.16,2.16,-2.17,-2.26,-2.58,0.28,0.28,0.28
231.25,2.44,2.44,2.18,2.18,-2.18,-2.27,-2.62,0.27,0.27,0.27
233.57,2.43,2.44,2.18,2.19,-2.19,-2.28,-2.66,0.25,0.25,0.25
235.90,2.43,2.43,2.20,2.20,-2.20,-2.29,-2.69,0.24,0.23,0.23
238.26,2.42,2.42,2.21,2.21,-2.21,-2.30,-2.72,0.22,0.22,0.22
240.64,2.41,2.42,2.21,2.22,-2.22,-2.30,-2.75,0.20,0.20,0.20
243.05,2.41,2.41,2.22,2.22,-2.23,-2.31,-2.77,0.19,0.19,0.19
245.48,2.41,2.41,2.23,2.23,-2.24,-2.32,-2.79,0.18,0.18,0.18
247.93,2.41,2.41,2.25,2.25,-2.24,-2.32,-2.80,0.17,0.17,0.17
250.41,2.41,2.41,2.26,2.25,-2.25,-2.32,-2.81,0.16,0.16,0.16
252.92,2.40,2.41,2.26,2.26,-2.26,-2.33,-2.81,0.15,0.15,0.15
255.45,2.40,2.40,2.27,2.27,-2.26,-2.33,-2.81,0.14,0.14,0.14
258.00,2.39,2.40,2.27,2.27,-2.27,-2.33,-2.80,0.12,0.13,0.13
260.58,2.39,2.39,2.28,2.27,-2.27,-2.33,-2.79,0.12,0.12,0.12
263.19,2.38,2.38,2.28,2.27,-2.28,-2.33,-2.78,0.11,0.11,0.11
265.82,2.37,2.38,2.27,2.28,-2.28,-2.32,-2.76,0.10,0.10,0.10
268.48,2.36,2.37,2.27,2.28,-2.28,-2.32,-2.74,0.08,0.09,0.09
271.16,2.36,2.36,2.28,2.28,-2.28,-2.32,-2.71,0.08,0.08,0.08
273.87,2.35,2.35,2.28,2.28,-2.28,-2.31,-2.69,0.07,0.07,0.07
276.61,2.34,2.35,2.28,2.28,-2.28,-2.31,-2.65,0.07,0.07,0.07
279.38,2.34,2.34,2.28,2.28,-2.28,-2.30,-2.62,0.07,0.06,0.06
282.17,2.33,2.33,2.28,2.28,-2.27,-2.30,-2.58,0.06,0.06,0.05
284.99,2.32,2.32,2.27,2.27,-2.27,-2.29,-2.54,0.05,0.05,0.06
287.84,2.31,2.31,2.25,2.26,-2.26,-2.28,-2.50,0.05,0.05,0.06
290.72,2.30,2.31,2.25,2.25,-2.26,-2.27,-2.46,0.05,0.05,0.05
293.63,2.30,2.30,2.26,2.25,-2.25,-2.26,-2.42,0.05,0.05,0.05
296.57,2.29,2.29,2.24,2.24,-2.24,-2.25,-2.37,0.05,0.05,0.05
299.53,2.28,2.29,2.23,2.23,-2.23,-2.24,-2.33,0.05,0.05,0.05
302.53,2.27,2.27,2.22,2.22,-2.22,-2.23,-2.28,0.05,0.05,0.05
305.55,2.26,2.26,2.21,2.21,-2.21,-2.21,-2.24,0.05,0.05,0.05
308.61,2.24,2.25,2.20,2.20,-2.20,-2.20,-2.19,0.05,0.05,0.05
311.69,2.23,2.23,2.18,2.18,-2.18,-2.19,-2.15,0.05,0.05,0.05
314.81,2.22,2.22,2.17,2.17,-2.17,-2.17,-2.10,0.05,0.05,0.05
317.96,2.20,2.21,2.15,2.16,-2.16,-2.16,-2.06,0.05,0.05,0.05
321.14,2.19,2.20,2.14,2.14,-2.14,-2.14,-2.01,0.05,0.05,0.05
324.35,2.18,2.18,2.13,2.13,-2.13,-2.12,-1.97,0.06,0.05,0.06
327.59,2.17,2.17,2.11,2.11,-2.11,-2.11,-1.93,0.06,0.06,0.06
330.87,2.15,2.16,2.10,2.10,-2.10,-2.09,-1.89,0.06,0.06,0.06
334.18,2.14,2.14,2.08,2.08,-2.08,-2.07,-1.85,0.06,0.06,0.06
337.52,2.13,2.13,2.07,2.07,-2.07,-2.05,-1.81,0.07,0.07,0.06
340.90,2.11,2.12,2.05,2.05,-2.05,-2.03,-1.78,0.07,0.07,0.07
344.30,2.10,2.10,2.03,2.03,-2.03,-2.01,-1.74,0.08,0.07,0.07
347.75,2.08,2.08,2.00,2.01,-2.01,-1.99,-1.71,0.08,0.08,0.08
351.23,2.06,2.07,1.99,1.99,-1.99,-1.97,-1.67,0.08,0.08,0.08
354.74,2.05,2.05,1.96,1.96,-1.96,-1.95,-1.64,0.09,0.09,0.09
358.28,2.03,2.03,1.94,1.94,-1.94,-1.93,-1.61,0.09,0.09,0.09
361.87,2.01,2.02,1.92,1.92,-1.92,-1.90,-1.58,0.09,0.10,0.10
365.49,2.00,2.00,1.90,1.90,-1.90,-1.88,-1.56,0.11,0.10,0.10
369.14,1.98,1.98,1.88,1.88,-1.88,-1.86,-1.53,0.11,0.11,0.10
372.83,1.96,1.97,1.84,1.85,-1.85,-1.83,-1.51,0.11,0.11,0.12
376.56,1.95,1.95,1.84,1.83,-1.83,-1.81,-1.48,0.12,0.12,0.12
380.33,1.93,1.93,1.81,1.81,-1.81,-1.78,-1.46,0.13,0.13,0.12
384.13,1.91,1.91,1.79,1.79,-1.78,-1.76,-1.44,0.13,0.13,0.12
387.97,1.89,1.89,1.76,1.76,-1.76,-1.73,-1.42,0.14,0.14,0.13
391.85,1.87,1.87,1.73,1.73,-1.73,-1.70,-1.40,0.14,0.14,0.15
395.77,1.85,1.85,1.71,1.70,-1.71,-1.68,-1.38,0.15,0.15,0.15
399.73,1.83,1.83,1.68,1.68,-1.68,-1.65,-1.37,0.15,0.15,0.15
403.72,1.81,1.81,1.65,1.66,-1.66,-1.62,-1.35,0.16,0.16,0.16
407.76,1.79,1.79,1.63,1.63,-1.63,-1.59,-1.33,0.16,0.16,0.16
411.84,1.77,1.77,1.60,1.61,-1.60,-1.57,-1.32,0.17,0.17,0.17
415.96,1.75,1.75,1.58,1.58,-1.58,-1.54,-1.31,0.18,0.18,0.18
420.12,1.73,1.73,1.56,1.55,-1.55,-1.51,-1.29,0.18,0.18,0.18
424.32,1.70,1.71,1.52,1.52,-1.52,-1.48,-1.28,0.18,0.18,0.18
428.56,1.68,1.68,1.49,1.49,-1.49,-1.45,-1.27,0.19,0.19,0.19
432.85,1.66,1.66,1.46,1.46,-1.46,-1.42,-1.25,0.20,0.20,0.20
437.18,1.63,1.64,1.43,1.43,-1.43,-1.39,-1.24,0.20,0.21,0.20
441.55,1.61,1.61,1.41,1.40,-1.40,-1.35,-1.23,0.22,0.21,0.21
445.96,1.58,1.59,1.37,1.37,-1.37,-1.32,-1.22,0.22,0.22,0.22
450.42,1.56,1.56,1.33,1.33,-1.33,-1.29,-1.20,0.23,0.23,0.24
454.93,1.53,1.54,1.29,1.29,-1.30,-1.26,-1.19,0.24,0.24,0.24
459.48,1.51,1.51,1.26,1.26,-1.26,-1.23,-1.17,0.25,0.25,0.25
464.07,1.48,1.48,1.23,1.23,-1.23,-1.19,-1.16,0.26,0.26,0.25
468.71,1.45,1.46,1.19,1.20,-1.19,-1.16,-1.14,0.26,0.26,0.26
473.40,1.43,1.43,1.16,1.16,-1.16,-1.13,-1.13,0.27,0.27,0.27
478.13,1.40,1.40,1.12,1.12,-1.13,-1.09,-1.11,0.28,0.28,0.28
482.91,1.37,1.38,1.09,1.09,-1.09,-1.06,-1.09,0.28,0.29,0.29
487.74,1.35,1.35,1.06,1.05,-1.05,-1.02,-1.07,0.30,0.30,0.30
492.62,1.32,1.32,1.02,1.02,-1.01,-0.99,-1.05,0.31,0.31,0.31
497.55,1.29,1.29,0.98,0.98,-0.98,-0.95,-1.03,0.32,0.32,0.32
502.52,1.26,1.26,0.94,0.94,-0.94,-0.91,-1.01,0.33,0.33,0.32
507.55,1.23,1.23,0.89,0.89,-0.90,-0.88,-0.98,0.34,0.34,0.34
512.62,1.20,1.20,0.85,0.85,-0.86,-0.84,-0.96,0.35,0.35,0.35
517.75,1.17,1.17,0.81,0.81,-0.82,-0.80,-0.93,0.36,0.36,0.36
522.93,1.14,1.14,0.77,0.77,-0.78,-0.77,-0.90,0.37,0.37,0.37
528.16,1.11,1.11,0.73,0.73,-0.73,-0.73,-0.87,0.38,0.38,0.38
533.44,1.08,1.08,0.69,0.70,-0.69,-0.69,-0.84,0.39,0.39,0.39
538.77,1.05,1.05,0.66,0.66,-0.65,-0.65,-0.81,0.40,0.40,0.39
544.16,1.02,1.02,0.62,0.62,-0.61,-0.61,-0.78,0.41,0.41,0.41
549.60,0.99,0.99,0.58,0.57,-0.57,-0.58,-0.74,0.42,0.42,0.42
555.10,0.96,0.96,0.53,0.53,-0.53,-0.54,-0.71,0.43,0.43,0.44
