frequency,raw,error,smoothed,error_smoothed,equalization,parametric_eq,fixed_band_eq,equalized_raw,equalized_smoothed,target
20.00,7.03,3.69,7.02,3.69,-3.70,-1.18,-0.72,3.33,3.33,3.34
20.20,7.00,3.61,7.00,3.61,-3.62,-1.18,-0.74,3.38,3.38,3.39
20.40,6.96,3.52,6.97,3.53,-3.53,-1.18,-0.77,3.42,3.43,3.44
20.61,6.93,3.46,6.93,3.46,-3.45,-1.18,-0.79,3.48,3.48,3.47
20.81,6.90,3.38,6.90,3.38,-3.37,-1.18,-0.81,3.53,3.53,3.52
21.02,6.86,3.30,6.85,3.30,-3.28,-1.18,-0.84,3.58,3.57,3.56
21.23,6.79,3.21,6.79,3.21,-3.20,-1.17,-0.86,3.59,3.59,3.58
21.44,6.71,3.11,6.71,3.11,-3.11,-1.17,-0.89,3.60,3.60,3.60
21.66,6.63,3.01,6.63,3.02,-3.02,-1.17,-0.92,3.61,3.61,3.61
21.87,6.55,2.92,6.55,2.92,-2.93,-1.17,-0.94,3.61,3.62,3.62
22.09,6.48,2.83,6.47,2.83,-2.84,-1.17,-0.97,3.63,3.63,3.64
22.31,6.40,2.74,6.40,2.75,-2.76,-1.17,-1.00,3.64,3.64,3.65
22.54,6.32,2.67,6.32,2.67,-2.67,-1.17,-1.03,3.65,3.65,3.65
22.76,6.24,2.59,6.24,2.59,-2.59,-1.17,-1.06,3.65,3.65,3.65
22.99,6.16,2.52,6.16,2.51,-2.50,-1.17,-1.09,3.66,3.66,3.64
23.22,6.07,2.43,6.07,2.42,-2.41,-1.17,-1.12,3.66,3.66,3.64
23.45,5.97,2.33,5.97,2.33,-2.31,-1.17,-1.16,3.65,3.66,3.64
23.69,5.87,2.22,5.87,2.22,-2.22,-1.17,-1.19,3.65,3.65,3.65
23.92,5.77,2.12,5.77,2.12,-2.12,-1.17,-1.22,3.65,3.65,3.65
24.16,5.68,2.02,5.68,2.02,-2.03,-1.17,-1.26,3.65,3.65,3.66
24.40,5.59,1.92,5.59,1.93,-1.94,-1.17,-1.29,3.65,3.65,3.67
24.65,5.51,1.85,5.50,1.84,-1.85,-1.17,-1.33,3.65,3.65,3.66
24.89,5.42,1.76,5.42,1.77,-1.78,-1.17,-1.36,3.64,3.64,3.65
25.14,5.36,1.70,5.36,1.71,-1.72,-1.17,-1.40,3.64,3.65,3.65
25.39,5.32,1.65,5.31,1.65,-1.66,-1.17,-1.44,3.65,3.65,3.66
25.65,5.28,1.62,5.27,1.62,-1.61,-1.17,-1.47,3.67,3.66,3.66
25.91,5.23,1.58,5.23,1.58,-1.57,-1.16,-1.51,3.66,3.67,3.65
26.16,5.19,1.54,5.19,1.54,-1.52,-1.16,-1.54,3.67,3.66,3.65
26.43,5.14,1.49,5.14,1.49,-1.48,-1.16,-1.58,3.66,3.66,3.65
26.69,5.10,1.45,5.10,1.45,-1.44,-1.16,-1.61,3.66,3.66,3.65
26.96,5.05,1.39,5.05,1.40,-1.40,-1.16,-1.65,3.65,3.65,3.66
27.23,5.01,1.35,5.01,1.35,-1.37,-1.16,-1.68,3.64,3.64,3.65
27.50,4.97,1.32,4.97,1.32,-1.34,-1.16,-1.71,3.63,3.63,3.65
27.77,4.94,1.30,4.94,1.29,-1.31,-1.16,-1.74,3.63,3.63,3.64
28.05,4.91,1.27,4.91,1.27,-1.28,-1.16,-1.77,3.63,3.63,3.64
28.33,4.89,1.26,4.89,1.26,-1.25,-1.16,-1.80,3.64,3.64,3.63
28.62,4.87,1.24,4.87,1.24,-1.22,-1.16,-1.82,3.65,3.66,3.63
28.90,4.86,1.22,4.85,1.22,-1.18,-1.15,-1.85,3.67,3.66,3.64
29.19,4.81,1.18,4.80,1.17,-1.15,-1.15,-1.87,3.66,3.65,3.62
29.48,4.75,1.11,4.75,1.11,-1.12,-1.15,-1.88,3.63,3.63,3.64
29.78,4.69,1.06,4.69,1.06,-1.09,-1.15,-1.90,3.60,3.61,3.63
30.08,4.65,1.01,4.66,1.02,-1.06,-1.15,-1.91,3.59,3.60,3.64
30.38,4.65,1.02,4.64,1.02,-1.04,-1.15,-1.92,3.61,3.61,3.63
30.68,4.65,1.02,4.64,1.02,-1.02,-1.15,-1.93,3.63,3.62,3.62
30.99,4.65,1.03,4.65,1.03,-1.02,-1.14,-1.94,3.63,3.63,3.62
31.30,4.65,1.03,4.65,1.03,-1.02,-1.14,-1.94,3.63,3.63,3.62
31.61,4.65,1.03,4.65,1.03,-1.03,-1.14,-1.93,3.62,3.62,3.62
31.93,4.65,1.03,4.65,1.03,-1.03,-1.14,-1.93,3.61,3.61,3.62
32.24,4.65,1.04,4.65,1.04,-1.03,-1.14,-1.92,3.61,3.62,3.60
32.57,4.65,1.04,4.65,1.04,-1.03,-1.13,-1.91,3.62,3.62,3.61
32.89,4.65,1.04,4.64,1.04,-1.03,-1.13,-1.90,3.62,3.62,3.61
33.22,4.63,1.03,4.62,1.03,-1.02,-1.13,-1.88,3.61,3.60,3.60
33.55,4.60,1.00,4.60,1.01,-1.01,-1.13,-1.86,3.58,3.58,3.59
33.89,4.57,0.99,4.57,0.99,-1.00,-1.12,-1.84,3.56,3.57,3.58
34.23,4.56,0.97,4.56,0.98,-0.99,-1.12,-1.82,3.57,3.57,3.59
34.57,4.56,0.98,4.56,0.98,-0.97,-1.12,-1.79,3.58,3.58,3.57
34.92,4.56,0.99,4.55,0.98,-0.96,-1.12,-1.76,3.60,3.59,3.57
35.27,4.53,0.96,4.53,0.96,-0.95,-1.11,-1.73,3.58,3.58,3.57
35.62,4.50,0.93,4.50,0.93,-0.93,-1.11,-1.70,3.56,3.56,3.56
35.97,4.46,0.90,4.47,0.91,-0.92,-1.11,-1.67,3.53,3.55,3.56
36.33,4.46,0.89,4.46,0.90,-0.91,-1.10,-1.64,3.54,3.54,3.57
36.70,4.46,0.91,4.45,0.90,-0.91,-1.10,-1.60,3.55,3.55,3.55
37.06,4.46,0.91,4.46,0.90,-0.90,-1.09,-1.57,3.56,3.56,3.55
37.43,4.46,0.89,4.46,0.90,-0.89,-1.09,-1.53,3.56,3.56,3.56
37.81,4.46,0.90,4.46,0.90,-0.90,-1.09,-1.49,3.56,3.56,3.56
38.19,4.46,0.90,4.46,0.90,-0.90,-1.08,-1.46,3.56,3.56,3.56
38.57,4.46,0.90,4.46,0.90,-0.90,-1.08,-1.42,3.56,3.56,3.56
38.95,4.46,0.89,4.46,0.90,-0.90,-1.07,-1.39,3.56,3.56,3.57
39.34,4.46,0.90,4.46,0.90,-0.90,-1.06,-1.35,3.56,3.56,3.56
39.74,4.46,0.90,4.46,0.90,-0.89,-1.06,-1.31,3.56,3.56,3.56
40.14,4.46,0.90,4.45,0.90,-0.89,-1.05,-1.28,3.57,3.57,3.56
40.54,4.44,0.88,4.44,0.89,-0.88,-1.04,-1.24,3.56,3.56,3.55
40.94,4.43,0.88,4.43,0.88,-0.87,-1.04,-1.21,3.55,3.55,3.55
41.35,4.41,0.87,4.40,0.86,-0.86,-1.03,-1.17,3.54,3.54,3.54
41.76,4.38,0.84,4.38,0.84,-0.85,-1.02,-1.14,3.53,3.53,3.54
42.18,4.36,0.82,4.37,0.84,-0.84,-1.01,-1.11,3.52,3.53,3.54
42.60,4.37,0.84,4.36,0.84,-0.83,-1.01,-1.07,3.54,3.53,3.52
43.03,4.37,0.85,4.35,0.83,-0.82,-1.00,-1.04,3.54,3.52,3.52
43.46,4.32,0.81,4.32,0.82,-0.82,-0.99,-1.01,3.50,3.50,3.51
43.90,4.28,0.80,4.29,0.81,-0.82,-0.98,-0.98,3.46,3.47,3.48
44.33,4.27,0.80,4.27,0.80,-0.82,-0.96,-0.95,3.44,3.44,3.46
44.78,4.27,0.82,4.27,0.82,-0.83,-0.95,-0.92,3.44,3.44,3.45
45.23,4.27,0.83,4.27,0.84,-0.83,-0.94,-0.89,3.44,3.45,3.44
45.68,4.27,0.85,4.27,0.85,-0.82,-0.93,-0.87,3.44,3.44,3.42
46.13,4.26,0.86,4.24,0.84,-0.82,-0.91,-0.84,3.43,3.42,3.40
46.60,4.21,0.81,4.21,0.82,-0.82,-0.90,-0.81,3.39,3.39,3.40
47.06,4.17,0.79,4.19,0.80,-0.81,-0.88,-0.79,3.36,3.38,3.38
47.53,4.17,0.80,4.17,0.79,-0.80,-0.87,-0.76,3.37,3.37,3.37
48.01,4.17,0.80,4.15,0.78,-0.78,-0.85,-0.74,3.39,3.37,3.37
48.49,4.12,0.77,4.12,0.77,-0.76,-0.83,-0.72,3.35,3.36,3.35
48.97,4.07,0.74,4.08,0.75,-0.75,-0.81,-0.69,3.31,3.33,3.33
49.46,4.05,0.74,4.04,0.74,-0.75,-0.79,-0.67,3.30,3.30,3.31
49.96,4.02,0.73,4.02,0.72,-0.74,-0.77,-0.65,3.28,3.28,3.29
50.46,4.00,0.71,4.00,0.72,-0.73,-0.75,-0.63,3.27,3.26,3.28
50.96,3.98,0.71,3.99,0.72,-0.72,-0.73,-0.61,3.26,3.27,3.27
51.47,3.98,0.73,3.98,0.73,-0.71,-0.71,-0.59,3.27,3.27,3.25
51.99,3.98,0.74,3.96,0.72,-0.70,-0.69,-0.57,3.28,3.27,3.23
52.51,3.93,0.70,3.93,0.70,-0.68,-0.66,-0.56,3.25,3.25,3.23
53.03,3.88,0.65,3.87,0.65,-0.66,-0.64,-0.54,3.22,3.21,3.23
53.56,3.82,0.61,3.83,0.62,-0.64,-0.62,-0.53,3.18,3.19,3.21
54.10,3.78,0.58,3.80,0.60,-0.61,-0.60,-0.51,3.17,3.19,3.20
54.64,3.79,0.61,3.77,0.59,-0.58,-0.57,-0.50,3.20,3.19,3.18
55.18,3.76,0.58,3.74,0.57,-0.56,-0.55,-0.48,3.20,3.18,3.17
55.74,3.69,0.53,3.69,0.53,-0.53,-0.54,-0.47,3.15,3.16,3.16
56.29,3.63,0.48,3.64,0.49,-0.51,-0.52,-0.46,3.12,3.13,3.15
56.86,3.60,0.47,3.61,0.48,-0.49,-0.50,-0.45,3.11,3.12,3.13
57.42,3.59,0.49,3.59,0.48,-0.47,-0.49,-0.44,3.12,3.12,3.10
58.00,3.58,0.49,3.55,0.46,-0.44,-0.48,-0.43,3.14,3.11,3.09
58.58,3.50,0.42,3.51,0.43,-0.41,-0.47,-0.42,3.08,3.09,3.08
59.16,3.44,0.38,3.45,0.39,-0.39,-0.47,-0.42,3.04,3.06,3.06
59.76,3.41,0.37,3.40,0.37,-0.38,-0.47,-0.41,3.03,3.02,3.04
60.35,3.37,0.37,3.36,0.36,-0.37,-0.47,-0.41,3.00,3.00,3.00
60.96,3.32,0.35,3.32,0.35,-0.36,-0.48,-0.40,2.96,2.96,2.97
61.57,3.27,0.34,3.27,0.35,-0.36,-0.48,-0.40,2.91,2.91,2.92
62.18,3.23,0.35,3.23,0.35,-0.36,-0.49,-0.40,2.86,2.87,2.88
62.80,3.21,0.37,3.21,0.38,-0.38,-0.51,-0.40,2.83,2.83,2.84
63.43,3.20,0.41,3.19,0.40,-0.40,-0.52,-0.40,2.80,2.79,2.79
64.07,3.17,0.42,3.16,0.41,-0.41,-0.54,-0.40,2.76,2.75,2.74
64.71,3.12,0.42,3.14,0.44,-0.42,-0.56,-0.40,2.70,2.72,2.70
65.35,3.11,0.45,3.12,0.46,-0.44,-0.57,-0.41,2.67,2.68,2.66
66.01,3.13,0.52,3.08,0.47,-0.45,-0.59,-0.41,2.68,2.63,2.61
66.67,3.02,0.46,3.03,0.46,-0.47,-0.61,-0.42,2.55,2.56,2.56
67.33,2.95,0.43,2.96,0.44,-0.48,-0.63,-0.42,2.47,2.48,2.51
68.01,2.90,0.43,2.91,0.44,-0.49,-0.65,-0.43,2.41,2.43,2.47
68.69,2.91,0.49,2.92,0.50,-0.49,-0.67,-0.44,2.41,2.43,2.42
69.37,2.93,0.56,2.92,0.54,-0.50,-0.69,-0.45,2.42,2.41,2.37
70.07,2.93,0.61,2.88,0.56,-0.52,-0.71,-0.46,2.41,2.36,2.32
70.77,2.79,0.51,2.81,0.54,-0.55,-0.73,-0.47,2.24,2.27,2.27
71.48,2.73,0.51,2.75,0.53,-0.58,-0.75,-0.48,2.15,2.17,2.22
72.19,2.71,0.55,2.72,0.56,-0.60,-0.76,-0.49,2.10,2.11,2.15
72.91,2.73,0.63,2.72,0.63,-0.63,-0.78,-0.50,2.10,2.10,2.10
73.64,2.74,0.70,2.72,0.68,-0.65,-0.80,-0.52,2.09,2.07,2.04
74.38,2.70,0.72,2.70,0.72,-0.67,-0.81,-0.53,2.03,2.02,1.98
75.12,2.63,0.70,2.65,0.73,-0.70,-0.82,-0.55,1.93,1.95,1.92
75.87,2.63,0.76,2.60,0.73,-0.74,-0.83,-0.57,1.89,1.86,1.86
76.63,2.55,0.73,2.56,0.75,-0.77,-0.85,-0.58,1.78,1.79,1.81
77.40,2.52,0.75,2.53,0.77,-0.80,-0.86,-0.60,1.71,1.73,1.76
78.17,2.53,0.83,2.52,0.81,-0.83,-0.87,-0.62,1.69,1.68,1.70
78.95,2.53,0.86,2.53,0.86,-0.87,-0.88,-0.64,1.66,1.66,1.67
79.74,2.53,0.91,2.54,0.92,-0.90,-0.89,-0.66,1.63,1.63,1.62
80.54,2.54,0.97,2.54,0.97,-0.94,-0.89,-0.68,1.60,1.60,1.57
81.35,2.53,1.01,2.51,0.99,-0.97,-0.90,-0.70,1.56,1.54,1.52
82.16,2.49,1.02,2.48,1.01,-1.00,-0.91,-0.72,1.48,1.48,1.47
82.98,2.43,0.99,2.45,1.03,-1.03,-0.91,-0.74,1.40,1.42,1.44
83.81,2.43,1.05,2.43,1.04,-1.05,-0.92,-0.77,1.38,1.37,1.38
84.65,2.42,1.09,2.40,1.06,-1.07,-0.93,-0.79,1.35,1.32,1.33
85.50,2.37,1.08,2.37,1.08,-1.09,-0.93,-0.82,1.28,1.28,1.29
86.35,2.33,1.09,2.36,1.11,-1.11,-0.94,-0.84,1.22,1.25,1.24
87.22,2.34,1.14,2.33,1.14,-1.13,-0.94,-0.87,1.20,1.20,1.19
88.09,2.35,1.21,2.31,1.16,-1.17,-0.94,-0.89,1.18,1.14,1.14
88.97,2.25,1.16,2.28,1.19,-1.20,-0.95,-0.92,1.05,1.08,1.09
89.86,2.25,1.21,2.25,1.21,-1.24,-0.95,-0.95,1.01,1.02,1.04
90.76,2.25,1.26,2.24,1.25,-1.27,-0.95,-0.98,0.98,0.97,0.99
91.66,2.25,1.30,2.25,1.31,-1.30,-0.96,-1.01,0.95,0.95,0.95
92.58,2.25,1.37,2.24,1.36,-1.33,-0.96,-1.04,0.92,0.92,0.88
93.51,2.23,1.39,2.22,1.38,-1.35,-0.96,-1.07,0.87,0.87,0.84
94.44,2.18,1.38,2.17,1.38,-1.38,-0.96,-1.10,0.80,0.80,0.79
95.39,2.12,1.37,2.12,1.37,-1.39,-0.97,-1.13,0.73,0.73,0.75
96.34,2.06,1.36,2.08,1.38,-1.40,-0.97,-1.16,0.66,0.68,0.70
97.30,2.05,1.40,2.05,1.40,-1.40,-0.97,-1.20,0.65,0.65,0.65
98.28,2.03,1.42,2.02,1.41,-1.39,-0.97,-1.23,0.63,0.62,0.60
99.26,1.99,1.43,1.97,1.41,-1.39,-0.98,-1.26,0.59,0.58,0.56
100.25,1.90,1.38,1.90,1.39,-1.40,-0.98,-1.30,0.50,0.51,0.51
101.25,1.83,1.36,1.84,1.37,-1.40,-0.98,-1.33,0.43,0.44,0.47
102.27,1.78,1.36,1.79,1.37,-1.40,-0.98,-1.36,0.38,0.39,0.42
103.29,1.77,1.40,1.77,1.39,-1.40,-0.99,-1.40,0.37,0.37,0.36
104.32,1.75,1.42,1.74,1.42,-1.39,-0.99,-1.43,0.36,0.35,0.33
105.37,1.71,1.43,1.70,1.42,-1.39,-0.99,-1.46,0.32,0.31,0.28
106.42,1.64,1.40,1.63,1.40,-1.39,-0.99,-1.50,0.25,0.24,0.24
107.48,1.55,1.37,1.55,1.37,-1.39,-1.00,-1.53,0.16,0.16,0.18
108.56,1.47,1.34,1.49,1.36,-1.38,-1.00,-1.56,0.08,0.10,0.12
109.64,1.44,1.36,1.44,1.36,-1.38,-1.00,-1.59,0.06,0.06,0.08
110.74,1.42,1.40,1.41,1.38,-1.37,-1.01,-1.62,0.05,0.04,0.02
111.85,1.37,1.38,1.35,1.38,-1.36,-1.01,-1.65,0.01,-0.01,-0.01
112.97,1.30,1.38,1.29,1.36,-1.36,-1.02,-1.67,-0.06,-0.07,-0.08
114.10,1.19,1.31,1.23,1.35,-1.36,-1.02,-1.70,-0.17,-0.13,-0.13
115.24,1.19,1.36,1.18,1.36,-1.36,-1.03,-1.72,-0.18,-0.18,-0.17
116.39,1.16,1.38,1.14,1.36,-1.36,-1.03,-1.75,-0.21,-0.22,-0.22
117.55,1.12,1.38,1.10,1.36,-1.36,-1.04,-1.76,-0.24,-0.26,-0.26
118.73,1.03,1.33,1.06,1.36,-1.36,-1.04,-1.78,-0.33,-0.30,-0.30
119.92,1.02,1.34,1.03,1.36,-1.35,-1.05,-1.80,-0.33,-0.32,-0.33
121.12,1.03,1.40,1.01,1.37,-1.35,-1.05,-1.81,-0.32,-0.35,-0.37
122.33,0.99,1.39,0.97,1.37,-1.36,-1.06,-1.82,-0.37,-0.39,-0.40
123.55,0.91,1.33,0.92,1.34,-1.36,-1.07,-1.83,-0.45,-0.44,-0.42
124.79,0.85,1.30,0.87,1.32,-1.36,-1.08,-1.83,-0.52,-0.49,-0.45
126.03,0.86,1.34,0.85,1.33,-1.36,-1.09,-1.83,-0.51,-0.51,-0.48
127.29,0.87,1.37,0.87,1.38,-1.37,-1.09,-1.83,-0.50,-0.49,-0.50
128.57,0.88,1.42,0.87,1.41,-1.37,-1.10,-1.83,-0.49,-0.50,-0.54
129.85,0.87,1.44,0.83,1.40,-1.37,-1.11,-1.82,-0.51,-0.54,-0.57
131.15,0.76,1.36,0.78,1.38,-1.38,-1.12,-1.82,-0.62,-0.60,-0.60
132.46,0.71,1.34,0.72,1.35,-1.39,-1.13,-1.80,-0.68,-0.67,-0.63
133.79,0.70,1.35,0.70,1.35,-1.40,-1.14,-1.79,-0.70,-0.70,-0.65
135.12,0.70,1.39,0.71,1.39,-1.39,-1.15,-1.78,-0.69,-0.69,-0.69
136.48,0.71,1.41,0.70,1.41,-1.38,-1.17,-1.76,-0.67,-0.68,-0.71
137.84,0.69,1.43,0.66,1.40,-1.36,-1.18,-1.74,-0.68,-0.71,-0.74
139.22,0.59,1.36,0.61,1.38,-1.35,-1.19,-1.72,-0.76,-0.74,-0.77
140.61,0.52,1.32,0.55,1.35,-1.34,-1.20,-1.70,-0.82,-0.79,-0.81
142.02,0.52,1.34,0.48,1.30,-1.32,-1.22,-1.68,-0.80,-0.84,-0.82
143.44,0.42,1.27,0.42,1.27,-1.29,-1.23,-1.65,-0.88,-0.88,-0.85
144.87,0.34,1.23,0.37,1.26,-1.27,-1.24,-1.63,-0.93,-0.90,-0.89
146.32,0.33,1.26,0.33,1.25,-1.25,-1.26,-1.60,-0.93,-0.92,-0.93
147.78,0.33,1.29,0.30,1.26,-1.25,-1.27,-1.58,-0.93,-0.96,-0.96
149.26,0.27,1.27,0.25,1.26,-1.27,-1.28,-1.55,-1.00,-1.01,-1.01
150.75,0.17,1.24,0.19,1.26,-1.29,-1.30,-1.52,-1.12,-1.09,-1.07
152.26,0.14,1.28,0.15,1.28,-1.32,-1.31,-1.50,-1.18,-1.17,-1.14
153.78,0.14,1.34,0.14,1.35,-1.36,-1.33,-1.47,-1.22,-1.22,-1.20
155.32,0.14,1.42,0.14,1.42,-1.40,-1.34,-1.45,-1.26,-1.26,-1.28
156.88,0.14,1.49,0.09,1.45,-1.44,-1.36,-1.42,-1.30,-1.35,-1.35
158.44,0.02,1.45,0.03,1.47,-1.48,-1.37,-1.39,-1.46,-1.44,-1.44
160.03,-0.06,1.46,-0.02,1.50,-1.50,-1.38,-1.37,-1.56,-1.52,-1.52
161.63,-0.05,1.54,-0.07,1.52,-1.50,-1.40,-1.34,-1.55,-1.57,-1.59
163.24,-0.08,1.57,-0.11,1.54,-1.48,-1.41,-1.32,-1.56,-1.59,-1.65
164.88,-0.20,1.50,-0.20,1.50,-1.44,-1.42,-1.30,-1.64,-1.64,-1.70
166.53,-0.33,1.42,-0.33,1.42,-1.39,-1.44,-1.28,-1.72,-1.72,-1.75
168.19,-0.47,1.32,-0.46,1.33,-1.34,-1.45,-1.25,-1.81,-1.80,-1.79
169.87,-0.57,1.25,-0.57,1.25,-1.30,-1.46,-1.23,-1.87,-1.87,-1.83
171.57,-0.64,1.20,-0.65,1.20,-1.26,-1.47,-1.21,-1.91,-1.91,-1.84
173.29,-0.67,1.19,-0.67,1.19,-1.25,-1.48,-1.19,-1.92,-1.92,-1.86
175.02,-0.68,1.18,-0.66,1.21,-1.25,-1.49,-1.18,-1.93,-1.91,-1.86
176.77,-0.60,1.28,-0.61,1.26,-1.26,-1.50,-1.16,-1.86,-1.88,-1.88
178.54,-0.55,1.33,-0.56,1.32,-1.29,-1.50,-1.14,-1.84,-1.85,-1.88
180.32,-0.50,1.37,-0.51,1.37,-1.33,-1.51,-1.13,-1.83,-1.83,-1.88
182.13,-0.48,1.39,-0.48,1.39,-1.36,-1.52,-1.11,-1.84,-1.84,-1.87
183.95,-0.47,1.41,-0.47,1.41,-1.39,-1.52,-1.10,-1.86,-1.85,-1.88
185.79,-0.46,1.42,-0.47,1.41,-1.41,-1.52,-1.09,-1.87,-1.88,-1.88
187.65,-0.48,1.42,-0.49,1.41,-1.42,-1.52,-1.08,-1.90,-1.91,-1.90
189.52,-0.51,1.40,-0.50,1.41,-1.44,-1.52,-1.07,-1.95,-1.94,-1.91
191.42,-0.51,1.42,-0.51,1.42,-1.45,-1.52,-1.05,-1.97,-1.96,-1.93
193.33,-0.50,1.45,-0.50,1.45,-1.48,-1.52,-1.05,-1.98,-1.98,-1.95
195.27,-0.48,1.49,-0.48,1.49,-1.50,-1.52,-1.04,-1.98,-1.98,-1.97
197.22,-0.47,1.52,-0.47,1.52,-1.52,-1.51,-1.03,-1.99,-1.99,-1.99
199.19,-0.45,1.56,-0.45,1.56,-1.53,-1.50,-1.02,-1.99,-1.99,-2.01
201.18,-0.45,1.58,-0.46,1.58,-1.54,-1.50,-1.02,-1.99,-2.00,-2.03
203.19,-0.47,1.57,-0.48,1.57,-1.54,-1.49,-1.01,-2.01,-2.01,-2.05
205.23,-0.52,1.55,-0.52,1.54,-1.52,-1.47,-1.00,-2.04,-2.04,-2.07
207.28,-0.58,1.50,-0.58,1.50,-1.50,-1.46,-1.00,-2.09,-2.09,-2.08
209.35,-0.64,1.46,-0.65,1.46,-1.48,-1.45,-0.99,-2.13,-2.13,-2.10
211.44,-0.71,1.42,-0.70,1.42,-1.46,-1.43,-0.99,-2.17,-2.16,-2.14
213.56,-0.74,1.40,-0.73,1.41,-1.44,-1.41,-0.99,-2.18,-2.18,-2.14
215.69,-0.74,1.41,-0.75,1.41,-1.42,-1.39,-0.98,-2.16,-2.17,-2.15
217.85,-0.75,1.41,-0.75,1.42,-1.40,-1.37,-0.98,-2.16,-2.15,-2.17
220.03,-0.75,1.43,-0.75,1.43,-1.39,-1.35,-0.97,-2.15,-2.15,-2.18
222.23,-0.76,1.44,-0.78,1.41,-1.39,-1.33,-0.97,-2.15,-2.17,-2.20
224.45,-0.82,1.37,-0.81,1.38,-1.39,-1.30,-0.96,-2.21,-2.20,-2.19
226.70,-0.85,1.34,-0.84,1.35,-1.38,-1.28,-0.96,-2.23,-2.22,-2.19
228.96,-0.84,1.34,-0.85,1.33,-1.36,-1.25,-0.95,-2.21,-2.21,-2.18
231.25,-0.84,1.33,-0.84,1.34,-1.34,-1.22,-0.95,-2.18,-2.17,-2.17
233.57,-0.83,1.33,-0.83,1.34,-1.31,-1.20,-0.94,-2.14,-2.14,-2.16
235.90,-0.81,1.34,-0.84,1.32,-1.28,-1.17,-0.93,-2.10,-2.12,-2.15
238.26,-0.87,1.27,-0.86,1.28,-1.26,-1.13,-0.93,-2.13,-2.12,-2.14
240.64,-0.90,1.22,-0.90,1.22,-1.24,-1.10,-0.92,-2.14,-2.14,-2.12
243.05,-0.93,1.16,-0.93,1.16,-1.21,-1.07,-0.91,-2.14,-2.14,-2.09
245.48,-0.94,1.13,-0.93,1.14,-1.17,-1.04,-0.90,-2.11,-2.10,-2.07
247.93,-0.91,1.13,-0.91,1.13,-1.13,-1.00,-0.89,-2.04,-2.04,-2.04
250.41,-0.89,1.13,-0.89,1.12,-1.09,-0.97,-0.88,-1.98,-1.98,-2.03
252.92,-0.88,1.11,-0.91,1.09,-1.05,-0.93,-0.86,-1.93,-1.95,-1.99
255.45,-0.95,1.02,-0.95,1.02,-1.01,-0.90,-0.85,-1.96,-1.96,-1.97
258.00,-1.02,0.93,-1.00,0.94,-0.97,-0.86,-0.84,-2.00,-1.98,-1.95
260.58,-1.05,0.88,-1.04,0.89,-0.93,-0.82,-0.82,-1.98,-1.97,-1.93
263.19,-1.04,0.86,-1.05,0.86,-0.88,-0.79,-0.80,-1.92,-1.93,-1.90
265.82,-1.04,0.85,-1.05,0.84,-0.82,-0.75,-0.79,-1.86,-1.87,-1.89
268.48,-1.05,0.81,-1.06,0.80,-0.76,-0.71,-0.77,-1.81,-1.82,-1.86
271.16,-1.11,0.72,-1.11,0.73,-0.69,-0.67,-0.75,-1.81,-1.80,-1.83
273.87,-1.15,0.66,-1.16,0.65,-0.63,-0.63,-0.73,-1.78,-1.79,-1.81
276.61,-1.24,0.54,-1.22,0.56,-0.57,-0.60,-0.71,-1.81,-1.79,-1.78
279.38,-1.25,0.50,-1.27,0.48,-0.51,-0.56,-0.69,-1.76,-1.78,-1.76
282.17,-1.32,0.41,-1.31,0.41,-0.45,-0.52,-0.66,-1.77,-1.77,-1.73
284.99,-1.34,0.35,-1.33,0.37,-0.40,-0.48,-0.64,-1.74,-1.73,-1.70
287.84,-1.33,0.35,-1.34,0.34,-0.35,-0.44,-0.62,-1.68,-1.69,-1.68
290.72,-1.32,0.32,-1.32,0.32,-0.31,-0.40,-0.60,-1.63,-1.63,-1.64
293.63,-1.31,0.31,-1.32,0.29,-0.27,-0.36,-0.57,-1.58,-1.59,-1.62
296.57,-1.33,0.25,-1.33,0.25,-0.23,-0.32,-0.55,-1.56,-1.56,-1.58
299.53,-1.37,0.19,-1.36,0.20,-0.19,-0.28,-0.52,-1.56,-1.55,-1.56
302.53,-1.37,0.17,-1.39,0.14,-0.15,-0.23,-0.50,-1.52,-1.54,-1.54
305.55,-1.41,0.08,-1.41,0.09,-0.11,-0.19,-0.48,-1.52,-1.53,-1.50
308.61,-1.44,0.04,-1.43,0.05,-0.07,-0.15,-0.45,-1.51,-1.50,-1.48
311.69,-1.44,0.01,-1.44,0.01,-0.02,-0.11,-0.43,-1.47,-1.46,-1.45
314.81,-1.43,-0.01,-1.44,-0.01,0.02,-0.07,-0.40,-1.41,-1.42,-1.43
317.96,-1.43,-0.02,-1.45,-0.04,0.06,-0.03,-0.38,-1.37,-1.40,-1.41
321.14,-1.49,-0.09,-1.48,-0.08,0.10,0.01,-0.35,-1.39,-1.38,-1.40
324.35,-1.53,-0.15,-1.52,-0.13,0.14,0.05,-0.33,-1.39,-1.38,-1.39
327.59,-1.53,-0.16,-1.56,-0.19,0.18,0.09,-0.30,-1.35,-1.38,-1.37
330.87,-1.60,-0.24,-1.59,-0.23,0.23,0.13,-0.28,-1.38,-1.36,-1.36
334.18,-1.63,-0.29,-1.61,-0.27,0.27,0.17,-0.25,-1.36,-1.34,-1.34
337.52,-1.63,-0.30,-1.64,-0.31,0.31,0.20,-0.23,-1.32,-1.34,-1.34
340.90,-1.65,-0.33,-1.67,-0.35,0.34,0.24,-0.20,-1.31,-1.33,-1.32
344.30,-1.71,-0.40,-1.70,-0.38,0.37,0.28,-0.18,-1.34,-1.33,-1.31
347.75,-1.73,-0.42,-1.72,-0.41,0.39,0.31,-0.16,-1.34,-1.33,-1.31
351.23,-1.73,-0.43,-1.73,-0.42,0.42,0.35,-0.13,-1.31,-1.31,-1.31
354.74,-1.72,-0.41,-1.73,-0.42,0.44,0.38,-0.11,-1.28,-1.28,-1.31
358.28,-1.72,-0.42,-1.74,-0.43,0.47,0.42,-0.08,-1.25,-1.27,-1.30
361.87,-1.77,-0.47,-1.77,-0.47,0.49,0.45,-0.06,-1.28,-1.28,-1.30
365.49,-1.81,-0.52,-1.82,-0.52,0.51,0.48,-0.03,-1.30,-1.31,-1.29
369.14,-1.87,-0.57,-1.86,-0.56,0.53,0.51,-0.01,-1.35,-1.34,-1.31
372.83,-1.89,-0.58,-1.88,-0.58,0.54,0.53,0.01,-1.35,-1.34,-1.31
376.56,-1.88,-0.57,-1.89,-0.58,0.56,0.56,0.04,-1.32,-1.32,-1.31
380.33,-1.87,-0.57,-1.87,-0.56,0.58,0.58,0.06,-1.29,-1.29,-1.30
384.13,-1.86,-0.56,-1.87,-0.56,0.59,0.60,0.08,-1.27,-1.28,-1.30
387.97,-1.87,-0.56,-1.89,-0.58,0.60,0.62,0.11,-1.28,-1.29,-1.31
391.85,-1.93,-0.61,-1.92,-0.60,0.60,0.64,0.13,-1.33,-1.32,-1.33
395.77,-1.95,-0.63,-1.94,-0.62,0.60,0.65,0.15,-1.35,-1.34,-1.32
399.73,-1.95,-0.62,-1.96,-0.63,0.60,0.67,0.18,-1.35,-1.36,-1.33
403.72,-1.95,-0.62,-1.96,-0.63,0.61,0.68,0.20,-1.34,-1.35,-1.33
407.76,-1.96,-0.62,-1.96,-0.62,0.62,0.68,0.22,-1.34,-1.33,-1.34
411.84,-1.96,-0.62,-1.96,-0.62,0.64,0.69,0.25,-1.32,-1.32,-1.34
415.96,-1.96,-0.62,-1.97,-0.62,0.66,0.69,0.27,-1.30,-1.31,-1.34
420.12,-1.99,-0.65,-2.00,-0.65,0.68,0.70,0.29,-1.31,-1.32,-1.35
424.32,-2.04,-0.70,-2.05,-0.70,0.71,0.70,0.31,-1.34,-1.34,-1.35
428.56,-2.10,-0.76,-2.09,-0.75,0.73,0.70,0.33,-1.37,-1.36,-1.34
432.85,-2.12,-0.79,-2.11,-0.78,0.75,0.69,0.35,-1.37,-1.36,-1.33
437.18,-2.10,-0.78,-2.10,-0.79,0.76,0.69,0.37,-1.34,-1.34,-1.32
441.55,-2.06,-0.78,-2.07,-0.78,0.77,0.68,0.39,-1.29,-1.30,-1.28
445.96,-2.02,-0.77,-2.02,-0.76,0.77,0.67,0.41,-1.25,-1.25,-1.25
450.42,-1.96,-0.74,-1.97,-0.75,0.76,0.66,0.43,-1.21,-1.21,-1.22
454.93,-1.91,-0.74,-1.91,-0.73,0.74,0.65,0.44,-1.17,-1.17,-1.17
459.48,-1.85,-0.73,-1.85,-0.72,0.73,0.64,0.46,-1.12,-1.12,-1.12
464.07,-1.78,-0.71,-1.79,-0.71,0.72,0.63,0.47,-1.06,-1.07,-1.07
468.71,-1.73,-0.72,-1.72,-0.70,0.72,0.62,0.49,-1.01,-1.00,-1.02
473.40,-1.67,-0.70,-1.68,-0.71,0.73,0.60,0.50,-0.94,-0.95,-0.98
478.13,-1.63,-0.71,-1.65,-0.73,0.74,0.59,0.51,-0.89,-0.91,-0.92
482.91,-1.64,-0.76,-1.63,-0.75,0.75,0.57,0.52,-0.89,-0.88,-0.88
487.74,-1.62,-0.78,-1.61,-0.78,0.77,0.56,0.53,-0.86,-0.85,-0.84
492.62,-1.59,-0.80,-1.59,-0.80,0.78,0.54,0.54,-0.81,-0.82,-0.79
