frequency,raw,error,smoothed,error_smoothed,equalization,equalized_raw,equalized_smoothed,target
20,-11.590962851865525,-15.71158360247344,-11.536408658175633,-15.657047653353892,5.999999999999999,-5.590962851865526,-5.536408658175634,4.120620750607913
21,-10.896144297992453,-15.048379442701785,-10.9220782595331,-15.074302780046713,6.0,-4.896144297992453,-4.9220782595331,4.152235144709332
22,-10.304211905995476,-14.484660386018973,-10.336567061980457,-14.516993480341577,6.0,-4.304211905995476,-4.336567061980457,4.180448480023496
23,-9.719056064320997,-13.924315414642535,-9.779875065517707,-13.985119754238486,6.0,-3.7190560643209967,-3.7798750655177074,4.205259350321538
24,-9.285339833956936,-13.51200593041117,-9.252002270144835,-13.478681601737415,5.999999999999998,-3.2853398339569377,-3.2520022701448372,4.2266660964542355
25,-8.641661673037394,-12.886328447943193,-8.755223308880097,-12.999962009614467,5.999999999999999,-2.6416616730373947,-2.7552233088800984,4.244666774905798
26,-8.296196082802204,-12.555455206852464,-8.286869731072697,-12.546288137314157,6.0,-2.2961960828022043,-2.286869731072697,4.259259124050261
27,-7.9292046572164185,-12.19971413092696,-7.844478574865848,-12.115188672595327,6.0,-1.9292046572164185,-1.8444785748658479,4.270509473710542
28,-7.423938009353828,-11.702299649939775,-7.42462240509733,-11.703216706286288,6.0,-1.4239380093538276,-1.4246224050973302,4.278361640585948
29,-6.9704406578806175,-11.25322734939233,-7.0233241646013065,-11.306360185492675,6.000000000000001,-0.9704406578806166,-1.0233241646013056,4.282786691511712
30,-6.704925010377965,-10.988662699038759,-6.637411245865632,-10.921394700503399,6.000000000000001,-0.7049250103779645,-0.6374112458656311,4.2837376886607945
31,-6.268984611999182,-10.55013147887406,-6.264349579533892,-10.545714606373812,5.999999999999997,-0.26898461199918433,-0.2643495795338948,4.281146866874879
32,-5.85913860245555,-10.134062883982015,-5.902587231147351,-10.177676764113961,6.0,0.14086139754444993,0.09741276885264938,4.274924281526465
33,-5.577397561694748,-9.842356182102943,-5.55148174952028,-9.816529717905315,6.0,0.422602438305252,0.4485182504797196,4.264958620408194
34,-5.250749128926907,-9.501881184861945,-5.210980067385622,-9.462097371753687,5.999999999999998,0.749250871073091,0.7890199326143765,4.251132055935038
35,-4.860052477635076,-9.093367038893213,-4.881400720940935,-9.114567500748539,6.000000000000002,1.1399475223649258,1.118599279059067,4.233314561258136
36,-4.5784432822327785,-8.789818399736102,-4.5631679643299545,-8.77423430450619,6.0,1.4215567177672215,1.4368320356700455,4.211375117503325
37,-4.221757809492308,-8.40695001442913,-4.256656475383966,-8.441353827747013,5.999999999999999,1.778242190507691,1.7433435246160327,4.185192204936822
38,-3.895869085236387,-8.05053553637583,-3.962133665946456,-8.116099138712217,6.000000000000003,2.1041309147636156,2.037866334053547,4.154666451139444
39,-3.770185007400902,-7.889920097246667,-3.6797405840155992,-7.798555980699954,6.000000000000001,2.229814992599099,2.3202594159844017,4.119735089845765
40,-3.438718863270817,-7.519106625190281,-3.409494969029134,-7.488742100628059,5.999999999999999,2.561281136729182,2.5905050309708653,4.0803877619194635
41,-3.100542699738252,-7.137227611779315,-3.15127248921001,-7.186605689439037,5.999999999999998,2.899457300261746,2.8487275107899883,4.036684912041063
42,-2.9189545023046515,-6.907729930258238,-2.90476869084305,-6.892004693497563,6.0,3.0810454976953485,3.09523130915695,3.9887754279535863
43,-2.642247997163248,-6.579161882542635,-2.669476824671515,-6.604701225156131,6.0,3.357752002836752,3.330523175328485,3.9369138853793864
44,-2.4462593741817145,-6.327735476999074,-2.4447242268999387,-6.324412683677888,5.94586247333548,3.4996030991537657,3.5011382464355414,3.881476102817359
45,-2.1948225925718985,-6.017794433070969,-2.2297988841590457,-6.050950090787318,5.832247879404074,3.6374252868321753,3.602448995245028,3.8229718404990702
46,-2.093507645848131,-5.8555610809725,-2.0241532015873984,-5.7844295403066734,5.66328084484552,3.569773198997389,3.6391276432581217,3.762053435124368
47,-1.8304883934770104,-5.530007582204016,-1.8276202800440724,-5.5254910271895215,5.465447641992534,3.6349592485155235,3.6378273619484616,3.699519188727006
48,-1.6416616731410727,-5.277972406444718,-1.6405448714253088,-5.275425936237479,5.256130327291677,3.6144686541506044,3.615585455866368,3.6363107333036453
49,-1.4859470048847405,-5.059450546051368,-1.463738388369268,-5.036121898393501,5.0361218983935,3.550174893508759,3.5723835100242316,3.573503541166627
50,-1.2412617265446386,-4.753551880953719,-1.2982239969410743,-4.809790657327882,4.809790657327881,3.568528930783242,3.5115666603868063,3.5122901544090803
51,-1.1890754654174545,-4.643031504020917,-1.1448239382827832,-4.598531039690067,4.598531039690066,3.409455574272611,3.4537071014072827,3.453956038603463
52,-0.937638683196326,-4.337487034674774,-1.0037197978553953,-4.40385806361698,4.40385806361698,3.466219380420654,3.4001382657615844,3.3998483514784477
53,-0.8704758442630282,-4.221814159898334,-0.8741498338941363,-4.226362997854421,4.226362997854421,3.355887153591393,3.3522131639602852,3.351338315635306
54,-0.7364892597077431,-4.046267527691816,-0.7543738380183609,-4.0656359243298645,4.065635924329864,3.3291466646221206,3.311262086311503,3.309778267984073
55,-0.6359145515559768,-3.912369398418562,-0.6419434568038427,-3.920490163456954,3.9204901634569542,3.2845756119009772,3.2785467066531115,3.2764548468625856
56,-0.5353398457518023,-3.78787993236533,-0.5342005357859748,-3.7894128534704805,3.7894128534704805,3.254073007718678,3.2552123176845056,3.2525400866135277
57,-0.5336202625160882,-3.772662696339041,-0.4288370304190066,-3.6710771855334254,3.671077185533425,3.1374569230173366,3.2422401551144184,3.239042433822953
58,-0.33419042482695954,-3.5709502754492877,-0.3243265015807366,-3.5647284073531424,3.564728407353143,3.2305379825261835,3.2404019057724063,3.2367598506223283
59,-0.18840047267260474,-3.434637688451228,-0.22008892529242643,-3.4703074556408584,3.4703074556408593,3.2819069829682546,3.250218530348433,3.2462372157786232
60,-0.13304093433177522,-3.400771099183815,-0.11635459460778956,-3.3882800516779166,3.3882800516779175,3.255239117346142,3.271925457070128,3.26773016485204
61,0.06810856388019361,-3.2330687589706715,-0.013805315984714156,-3.3192513331680864,3.3192513331680873,3.387359897048281,3.3054460171833733,3.301177322850865
62,0.06810864455724663,-3.278073941139456,0.08685412361919148,-3.2635205783164247,3.2635205783164256,3.3316292228736724,3.350374701935617,3.346182585696703
63,0.16868339644732966,-3.2333253134358357,0.18523087470991975,-3.220740561006062,3.220740561006062,3.389423957453392,3.405971435715982,3.4020087098831655
64,0.2692580252027529,-3.1983249669625406,0.28137435031956703,-3.189793248603836,3.189793248603837,3.45905127380659,3.471167598923404,3.4675829921652936
65,0.3698324314623457,-3.1716828552763436,0.3756789716893334,-3.16890504793565,3.1689050479356493,3.538737479397995,3.544584019624983,3.541515286738689
66,0.4704065394605243,-3.151721504667591,0.4686226118852327,-3.1559380005252113,3.1559380005252127,3.626344539985737,3.6245606124104452,3.6221280441281154
67,0.5691647781570774,-3.138332716066131,0.5604575095056681,-3.148739294580494,3.1487392945804933,3.7179040727375705,3.7091968040861616,3.707497494223208
68,0.6614326923343282,-3.1340718738002655,0.6509772700652192,-3.1454241075597285,3.1454241075597285,3.8068567998940566,3.7964013776249477,3.7955045661345936
69,0.6715535345378351,-3.212340134888449,0.7394476827970212,-3.1445022344573776,3.144502234457378,3.8160557689952133,3.8839499172543994,3.8838936694262842
70,0.8727035081731255,-3.0976335728045465,0.824727372651938,-3.1448203024390855,3.1448203024390864,4.017523810612212,3.9695476750910244,3.970337080977672
71,0.8727061205603259,-3.179796290027828,0.9055381416169968,-3.145357280858377,3.1453572808583776,4.018063401418703,4.050895422475374,4.052502410588154
72,1.0340122430780896,-3.0941082284902155,0.9807941369095539,-3.1449615709017844,3.1449615709017844,4.178973813979874,4.125755707811338,4.128120471568305
73,1.073869840916324,-3.121181026982458,1.0498774387394378,-3.142139482456801,3.1421394824568005,4.216009323373124,4.192016921196238,4.195050867898782
74,1.073880981366281,-3.177461745992798,1.112762210050127,-3.1349904626001233,3.1349904626001237,4.208871443966405,4.24775267265025,4.251342727359079
75,1.1564214951807608,-3.13886675774461,1.169938305658792,-3.12133591245464,3.1213359124546387,4.2777574076353995,4.291274218113431,4.295288252925371
76,1.2750468454107564,-3.050420272767262,1.2221564287101496,-3.0990175833107103,3.0990175833107103,4.374064428721467,4.32117401202086,4.325467118178018
77,1.2750400152183499,-3.0657401605233012,1.2700873738846172,-3.066271550040417,3.0662715500404176,4.341311565258767,4.336358923925035,4.340780175741651
78,1.2750122446258845,-3.0654592107751153,1.314029522197902,-3.022042671787344,3.0220426717873434,4.297054916413228,4.336072193985245,4.3404714554009995
79,1.2749556681208867,-3.0491823037264076,1.3537901109980461,-2.9661136198207982,2.966113619820799,4.241069287941686,4.3199037308188455,4.3241379718472945
80,1.4100916176343221,-2.8816357934238344,1.3888035781623849,-2.8989851960076836,2.898985196007684,4.309076813642006,4.287788774170069,4.291727411058156
81,1.4758970830274263,-2.7676272066879415,1.4184540624214572,-2.821541158378084,2.8215411583780847,4.297438241405511,4.239995220799542,4.243524289715368
82,1.475765330107685,-2.7043603266914085,1.4424775435237023,-2.7346226136645666,2.734622613664567,4.210387943772252,4.177100157188269,4.180125656799094
83,1.4756519038534714,-2.626755903641448,1.4612737115803225,-2.6386828211086564,2.638682821108657,4.114334724962128,4.09995653268898,4.102407807494919
84,1.4756052414772982,-2.535880547493324,1.4759836995172977,-2.5336679801071496,2.5336679801071504,4.009273221584449,4.009651679624448,4.011485788970623
85,1.4756883889051515,-2.4329792947933853,1.488280217862413,-2.4191803910441196,2.4191803910441196,3.894868779949271,3.9074606089065327,3.908667683698537
86,1.47597190744056,-2.319433846219656,1.4999339078726757,-2.2948643726526683,2.294864372652668,3.770836280093228,3.7947982805253435,3.795405753660216
87,1.4765214368400175,-2.1967250825421085,1.5123131023638283,-2.160862350189494,2.1608623501894937,3.637383787029511,3.673175452553322,3.673246519382126
88,1.4773803166065729,-2.0664014222486315,1.5260027600862456,-2.018158503975503,2.018158503975503,3.495538820582076,3.5441612640617484,3.543781738855204
89,1.5791235426252006,-1.829478513213705,1.540680104150467,-1.868671988245377,1.868671988245377,3.447795530870578,3.409352092395844,3.4086020558389056
90,1.580537500160747,-1.6887173217140756,1.5552821863539488,-1.7150592339369803,1.7150592339369803,3.2955967340977272,3.2703414202909293,3.2692548218748225
91,1.582049762960827,-1.5451575184452686,1.5683897001861609,-1.5602919759492186,1.5602919759492182,3.142341738910045,3.128681676135379,3.1272072814060956
92,1.5834186672658006,-1.4003972987038347,1.5786783077605824,-1.4071509673682026,1.4071509673682019,2.9905696346340025,2.9858292751287845,2.9838159659696353
93,1.5843069720465017,-1.2559958206357256,1.5852787627373164,-1.257791702791125,1.257791702791125,2.8420986748376267,2.8430704655284416,2.8403027926822273
94,1.5842938611682804,-1.1134441627734635,1.5879362541242978,-1.1135010922789816,1.113501092278982,2.6977949534472625,2.7014373464032797,2.697738023941744
95,1.5829008007216212,-0.9741291358758024,1.5869408559381557,-0.9746954142198123,0.9746954142198123,2.5575962149414337,2.561636270157968,2.5570299365974236
96,1.5796299391614628,-0.8392908443624758,1.5828804264466325,-0.8411378023727556,0.8411378023727554,2.420767741534218,2.4240182288193877,2.4189207835239386
97,1.5740116054969207,-0.7099768127282191,1.5763185602256677,-0.7122982948480614,0.7122982948480615,2.2863099003449823,2.2886168550737294,2.2839884182251398
98,1.5656557099073756,-0.5869970892427685,1.5675130486991768,-0.5877492981661485,0.5877492981661485,2.1534050080735243,2.1552623468653254,2.152652799150144
99,1.5543008338991415,-0.4708856620473749,1.5562687644546602,-0.4674841147651449,0.46748411476514484,2.0217849486642865,2.023752879219805,2.0251864959465165
100,1.5398547287526483,-0.3618735533992272,1.5419743733008489,-0.3520643514378849,0.3520643514378849,1.8919190801905332,1.8940387247387338,1.9017282821518755
101,1.522420847536918,-0.2598780642864227,1.523816642867911,-0.2425435694194688,0.24254356941946884,1.764964416956387,1.7663602122873798,1.7822989118233408
102,1.5023072515509324,-0.1645109812833574,1.5011103999405855,-0.1401767913832193,0.1401767913832193,1.6424840429341516,1.6412871913238047,1.6668182328342898
104,1.480016442945549,-0.01314180884619609,1.4736384109450085,-0.04599684442684697,0.04599684442684697,1.526013287372396,1.5196352553718555,1.493158251791745
105,1.456216988281994,0.07127861805347124,1.4418785837788102,0.039604340530544915,-0.03960434053054492,1.4166126477514491,1.4022742432482653,1.3849383702285227
106,1.4316998454300345,0.1515800858236318,1.407019061179776,0.11713597318695756,-0.11713597318695752,1.314563872243077,1.2898830879928185,1.2801197596064027
107,1.4073238242542272,0.22893418960155754,1.370726627486154,0.18799963828702512,-0.1879996382870251,1.2193241859672022,1.182726989199129,1.1783896346526697
108,1.3035004779489212,0.22408402463570343,1.334723938284467,0.2541950322064809,-0.2541950322064809,1.0493054457424402,1.0805289060779861,1.0794164533132178
109,1.242001681496863,0.25913851948168665,1.3003136938383073,0.31783534877130415,-0.3178353487713042,0.9241663327255589,0.9824783450670032,0.9828631620151764
110,1.2399952719164973,0.35159644041649685,1.268025742596903,0.38064895564190593,-0.3806489556419058,0.8593463162745915,0.8873767869549972,0.8883988315000004
111,1.2268786929789974,0.43117005637686057,1.2375323795241515,0.4436558563459917,-0.44365585634599186,0.7832228366330056,0.7938765231781597,0.7957086366021369
112,1.2143902221348999,0.5098880409305808,1.2078816523162157,0.507138896847978,-0.507138896847978,0.7072513252869219,0.7007427554682377,0.7045021812043191
113,1.2055142149905094,0.5909940137368657,1.1779740538735752,0.5709079099209291,-0.5709079099209292,0.6346063050695802,0.607066143952646,0.6145202012536437
114,1.2002105942361079,0.6746708969172277,1.1471066190017953,0.6347324880010106,-0.6347324880010105,0.5654781062350974,0.5123741310007849,0.5255396973188802
115,1.2161450609467859,0.7787675033623289,1.1153739198019863,0.6987486282558757,-0.6987486282558757,0.5173964326909102,0.4166252915461106,0.43737755758445696
117,1.000244187323896,0.705064166921249,1.0837640152960266,0.7636560682130324,-0.7636560682130322,0.23658811911086386,0.3201079470829944,0.2951800204026471
118,0.981445534700607,0.7720465835911774,1.0539004847847497,0.8306109863327822,-0.8306109863327821,0.15083454836782495,0.22328949845196766,0.20939895110942963
119,1.0045008293017588,0.8803128273746099,1.0275146071265233,0.900845407973843,-0.9008454079738429,0.10365542132791583,0.12666919915268038,0.12418800192714885
120,1.013594641711823,0.9740695546298841,1.0058331524797524,0.9751584107633042,-0.9751584107633042,0.03843623094851867,0.03067474171644813,0.0395250870819388
121,1.0210595257324628,1.0656333831664226,0.9890997332405111,1.0534807540455315,-1.0534807540455318,-0.03242122831306893,-0.06438102080502062,-0.04457385743395981
123,1.013885185096269,1.1893422401671436,0.9764027055070599,1.1346945371439563,-1.1346945371439563,-0.12080935204768739,-0.15829183163689642,-0.17545705507087472
124,0.9124804279196318,1.1694221355288934,0.9658781860959065,1.216800962478976,-1.2168009624789762,-0.3043205345593444,-0.2509227763830697,-0.2569417076092615
125,0.9068867458973066,1.2445060995249904,0.9552282503446883,1.2974028356861464,-1.2974028356861462,-0.39051608978883967,-0.34217458534145795,-0.3376193536276837
126,0.945477254996846,1.3628500832889097,0.9423842130974713,1.3743483677778079,-1.3743483677778077,-0.4288711127809617,-0.43196415468033633,-0.4173728282920637
128,0.9953227473407031,1.5322187896664996,0.9260898555624841,1.4463129078167674,-1.4463129078167676,-0.45099016047606444,-0.5202230522542834,-0.5368960423257965
129,0.9817329372931112,1.594833144026865,0.90620089323681,1.5131046273865743,-1.5131046273865745,-0.5313716900934633,-0.6069037341497645,-0.6131002067337539
130,0.8831003579270094,1.571090396727563,0.8835923110318511,1.5755719118998495,-1.5755719118998497,-0.6924715539728403,-0.6919796008679986,-0.6879900388005535
131,0.8544533371153096,1.6158904251520234,0.859705719214946,1.635136502176788,-1.635136502176788,-0.7806831650614785,-0.7754307829618421,-0.7614370880367138
133,0.7395751712973531,1.6073494352625408,0.8359065531679502,1.6931249142431377,-1.6931249142431382,-0.9535497429457851,-0.857218361075188,-0.8677742639651878
134,0.7708561098158198,1.7076336292407632,0.8129005427244892,1.7501593966859408,-1.7501593966859408,-0.979303286870121,-0.9372588539614516,-0.9367775194249435
135,0.78597581756448,1.7900247969513061,0.790441480501392,1.8058544609427205,-1.8058544609427207,-1.0198786433782407,-1.0154129804413288,-1.0040489793868261
137,0.7892436387449939,1.8885117141939751,0.767447263783872,1.858944153842634,-1.858944153842634,-1.06970051509764,-1.091496890058762,-1.0992680754489812
138,0.7918893194822791,1.9536673514203002,0.7424716400943524,1.907785297293024,-1.9077852972930243,-1.1158959778107451,-1.1653136571986717,-1.161778031938021
140,0.7447213155225751,1.9936711460033407,0.7143280378296177,1.9510210603608291,-1.9510210603608291,-1.206299744838254,-1.2366930225312114,-1.2489498304807656
141,0.6946437949916071,2.001353516837648,0.6825983307080818,1.9881215436656505,-1.9881215436656507,-1.2934777486740436,-1.305523212957569,-1.3067097218460408
142,0.6605972403635636,2.023215894708242,0.6478150689571527,2.019577401145539,-2.0195774011455394,-1.3589801607819758,-1.3717623321883867,-1.3626186543446788
144,0.595046031213956,2.0343694062413538,0.6112569512912457,2.04668316986166,-2.04668316986166,-1.451637138647704,-1.4354262185704143,-1.4393233750273977
145,0.5949198110093357,2.085573615598978,0.574471967673021,2.071031898751377,-2.0710318987513774,-1.4761120877420417,-1.4965599310783564,-1.4906538045896425
147,0.43367278910301565,1.993915943493865,0.5387563485031637,2.093962582257257,-2.0939625822572565,-1.6602897931542409,-1.5552062337540928,-1.5602431543908493
148,0.4462788718998283,2.0534562363233055,0.5048168689504243,2.116201023478281,-2.1162010234782804,-1.6699221515784521,-1.611384154527856,-1.6071773644234773
150,0.5004219944935719,2.1705059317880986,0.4727340670394287,2.137818803916013,-2.1378188039160135,-1.6373968094224416,-1.6650847368765849,-1.6700839372945269
151,0.5420810482447629,2.2548328857870783,0.4421849771847268,2.1584674219285223,-2.1584674219285227,-1.6163863736837598,-1.7162824447437959,-1.7127518375423154
153,0.4793492381303755,2.2486614437692034,0.412758325374486,2.1777119743794016,-2.177711974379401,-1.6983627362490257,-1.7649536490049151,-1.769312205638828
154,0.393628797077094,2.201369409933494,0.3841655734201793,2.1952569416180268,-2.1952569416180268,-1.8016281445409328,-1.8110913681978476,-1.8077406128564002
156,0.2577668945468834,2.115923591822694,0.356229282862635,2.2109377694998873,-2.2109377694998873,-1.953170874953004,-1.8547084866372523,-1.8581566972758106
157,0.23405973603725738,2.126312833736832,0.3286702605089813,2.2244982867516816,-2.224498286751681,-1.9904385507144238,-1.8958280262426999,-1.8922530976995748
159,0.2947863557443678,2.2313812004213442,0.3008406484377769,2.2353061243777317,-2.235306124377732,-1.9405197686333644,-1.9344654759399553,-1.9365948446769763
160,0.31526418351134233,2.2814374865704394,0.271595180485967,2.2422070683910524,-2.2422070683910524,-1.92694288487971,-1.9706118879050853,-1.9661733030590969
