frequency,raw,error,smoothed,error_smoothed,equalization,parametric_eq,equalized_raw,equalized_smoothed,target
20,-6.14,-8.56,-6.13,-8.55,6.00,2.74,-0.14,-0.13,2.42
21,-5.99,-8.40,-5.97,-8.38,6.00,3.14,0.01,0.03,2.41
22,-5.78,-8.18,-5.82,-8.22,6.00,3.59,0.22,0.18,2.40
23,-5.65,-8.04,-5.67,-8.06,6.00,4.07,0.35,0.33,2.39
24,-5.54,-7.92,-5.53,-7.91,6.00,4.58,0.46,0.47,2.38
25,-5.40,-7.77,-5.40,-7.77,6.00,5.10,0.60,0.60,2.37
26,-5.31,-7.66,-5.27,-7.62,6.00,5.62,0.69,0.73,2.35
27,-5.15,-7.49,-5.15,-7.49,6.00,6.13,0.85,0.85,2.34
28,-5.04,-7.36,-5.03,-7.36,6.00,6.57,0.96,0.97,2.32
29,-4.90,-7.21,-4.92,-7.23,6.00,6.94,1.10,1.08,2.31
30,-4.83,-7.12,-4.83,-7.12,6.00,7.21,1.17,1.17,2.29
31,-4.72,-6.99,-4.74,-7.01,6.00,7.36,1.28,1.26,2.27
32,-4.66,-6.91,-4.66,-6.91,6.00,7.39,1.34,1.34,2.25
33,-4.58,-6.81,-4.59,-6.82,6.00,7.32,1.42,1.41,2.23
34,-4.53,-6.74,-4.53,-6.74,6.00,7.17,1.47,1.47,2.21
35,-4.48,-6.66,-4.48,-6.67,6.00,6.97,1.52,1.52,2.18
36,-4.44,-6.60,-4.44,-6.60,6.00,6.74,1.56,1.56,2.16
37,-4.42,-6.55,-4.39,-6.53,6.00,6.50,1.58,1.61,2.13
38,-4.34,-6.45,-4.36,-6.46,6.00,6.27,1.66,1.64,2.11
39,-4.34,-6.42,-4.32,-6.40,6.00,6.06,1.66,1.68,2.08
40,-4.30,-6.35,-4.28,-6.33,6.00,5.86,1.70,1.72,2.05
41,-4.24,-6.26,-4.24,-6.26,6.00,5.69,1.76,1.76,2.02
42,-4.18,-6.17,-4.21,-6.19,6.00,5.55,1.82,1.79,1.99
43,-4.16,-6.11,-4.17,-6.13,5.99,5.43,1.83,1.82,1.95
44,-4.16,-6.08,-4.14,-6.06,5.97,5.33,1.81,1.83,1.92
45,-4.11,-5.99,-4.10,-5.99,5.94,5.26,1.83,1.83,1.89
46,-4.06,-5.91,-4.07,-5.92,5.89,5.20,1.83,1.82,1.85
47,-4.06,-5.87,-4.04,-5.85,5.84,5.17,1.78,1.80,1.81
48,-4.02,-5.79,-4.01,-5.78,5.78,5.15,1.76,1.77,1.77
49,-3.97,-5.70,-3.98,-5.71,5.71,5.15,1.74,1.73,1.73
50,-3.92,-5.61,-3.95,-5.64,5.64,5.17,1.72,1.69,1.69
51,-3.92,-5.57,-3.92,-5.58,5.58,5.19,1.66,1.65,1.65
52,-3.90,-5.51,-3.90,-5.51,5.51,5.21,1.61,1.61,1.61
53,-3.88,-5.44,-3.88,-5.44,5.44,5.25,1.56,1.56,1.56
54,-3.88,-5.40,-3.86,-5.38,5.38,5.28,1.50,1.52,1.52
55,-3.85,-5.32,-3.83,-5.31,5.31,5.31,1.46,1.47,1.47
56,-3.81,-5.24,-3.81,-5.24,5.24,5.34,1.43,1.43,1.43
57,-3.78,-5.16,-3.79,-5.17,5.17,5.36,1.39,1.38,1.38
58,-3.76,-5.09,-3.77,-5.10,5.10,5.38,1.34,1.33,1.33
59,-3.74,-5.02,-3.75,-5.03,5.03,5.38,1.30,1.28,1.28
60,-3.74,-4.97,-3.73,-4.97,4.97,5.37,1.23,1.23,1.23
61,-3.74,-4.92,-3.71,-4.90,4.90,5.35,1.16,1.18,1.18
62,-3.69,-4.82,-3.70,-4.83,4.83,5.31,1.14,1.13,1.13
63,-3.69,-4.77,-3.68,-4.76,4.76,5.26,1.07,1.08,1.08
64,-3.64,-4.67,-3.67,-4.70,4.70,5.20,1.06,1.03,1.03
65,-3.64,-4.62,-3.65,-4.63,4.63,5.13,0.99,0.98,0.98
66,-3.64,-4.57,-3.64,-4.57,4.57,5.04,0.93,0.93,0.93
67,-3.64,-4.51,-3.63,-4.50,4.50,4.95,0.86,0.87,0.87
68,-3.64,-4.46,-3.61,-4.43,4.43,4.85,0.80,0.82,0.82
69,-3.60,-4.37,-3.60,-4.37,4.37,4.74,0.77,0.77,0.77
70,-3.60,-4.31,-3.59,-4.30,4.30,4.63,0.70,0.71,0.71
71,-3.56,-4.22,-3.58,-4.24,4.24,4.52,0.68,0.66,0.66
72,-3.55,-4.15,-3.57,-4.17,4.17,4.40,0.62,0.61,0.61
73,-3.55,-4.10,-3.56,-4.11,4.11,4.28,0.56,0.55,0.55
74,-3.55,-4.05,-3.55,-4.04,4.04,4.16,0.49,0.50,0.50
75,-3.55,-3.99,-3.54,-3.98,3.98,4.05,0.43,0.44,0.44
76,-3.55,-3.94,-3.53,-3.91,3.91,3.93,0.37,0.39,0.39
77,-3.50,-3.83,-3.52,-3.85,3.85,3.82,0.35,0.33,0.33
78,-3.50,-3.78,-3.51,-3.79,3.79,3.71,0.29,0.28,0.28
79,-3.50,-3.72,-3.50,-3.72,3.72,3.61,0.22,0.23,0.23
80,-3.50,-3.67,-3.49,-3.66,3.66,3.50,0.16,0.17,0.17
81,-3.47,-3.59,-3.48,-3.59,3.59,3.40,0.12,0.12,0.12
82,-3.46,-3.52,-3.47,-3.53,3.53,3.31,0.07,0.06,0.06
83,-3.46,-3.47,-3.46,-3.47,3.47,3.22,0.01,0.01,0.01
84,-3.46,-3.42,-3.45,-3.41,3.41,3.13,-0.05,-0.04,-0.04
85,-3.43,-3.34,-3.44,-3.35,3.35,3.05,-0.08,-0.09,-0.09
86,-3.41,-3.26,-3.43,-3.29,3.29,2.97,-0.12,-0.15,-0.15
87,-3.43,-3.23,-3.43,-3.23,3.23,2.89,-0.20,-0.20,-0.20
88,-3.43,-3.18,-3.42,-3.17,3.17,2.82,-0.26,-0.25,-0.25
89,-3.43,-3.13,-3.41,-3.11,3.11,2.75,-0.32,-0.30,-0.30
90,-3.41,-3.06,-3.41,-3.05,3.05,2.69,-0.35,-0.35,-0.35
91,-3.41,-3.01,-3.40,-3.00,3.00,2.63,-0.41,-0.40,-0.40
92,-3.39,-2.94,-3.39,-2.94,2.94,2.57,-0.45,-0.45,-0.45
93,-3.36,-2.86,-3.38,-2.88,2.88,2.51,-0.48,-0.50,-0.50
94,-3.36,-2.81,-3.37,-2.83,2.83,2.46,-0.53,-0.55,-0.55
95,-3.36,-2.76,-3.37,-2.77,2.77,2.41,-0.59,-0.59,-0.60
96,-3.36,-2.72,-3.36,-2.72,2.72,2.36,-0.64,-0.64,-0.64
97,-3.36,-2.67,-3.35,-2.66,2.66,2.32,-0.70,-0.69,-0.69
98,-3.36,-2.62,-3.35,-2.61,2.61,2.27,-0.75,-0.74,-0.74
99,-3.36,-2.58,-3.34,-2.55,2.55,2.23,-0.81,-0.79,-0.78
100,-3.32,-2.49,-3.33,-2.50,2.50,2.19,-0.82,-0.83,-0.83
101,-3.32,-2.45,-3.32,-2.44,2.44,2.16,-0.88,-0.88,-0.87
102,-3.32,-2.40,-3.31,-2.38,2.38,2.12,-0.94,-0.94,-0.92
104,-3.29,-2.29,-3.30,-2.32,2.32,2.06,-0.97,-0.99,-1.00
105,-3.29,-2.24,-3.30,-2.26,2.26,2.03,-1.03,-1.03,-1.05
106,-3.29,-2.20,-3.29,-2.21,2.21,2.00,-1.08,-1.08,-1.09
107,-3.29,-2.16,-3.29,-2.16,2.16,1.97,-1.13,-1.13,-1.13
108,-3.29,-2.12,-3.28,-2.11,2.11,1.94,-1.18,-1.17,-1.17
109,-3.27,-2.06,-3.28,-2.07,2.07,1.92,-1.20,-1.21,-1.21
110,-3.27,-2.02,-3.27,-2.02,2.02,1.89,-1.25,-1.25,-1.25
111,-3.27,-1.98,-3.26,-1.98,1.98,1.87,-1.29,-1.29,-1.29
112,-3.27,-1.94,-3.26,-1.93,1.93,1.84,-1.34,-1.33,-1.33
113,-3.27,-1.91,-3.25,-1.88,1.88,1.82,-1.39,-1.37,-1.36
114,-3.23,-1.83,-3.24,-1.83,1.83,1.80,-1.40,-1.41,-1.40
115,-3.22,-1.78,-3.23,-1.78,1.78,1.77,-1.43,-1.45,-1.44
117,-3.22,-1.71,-3.23,-1.74,1.74,1.73,-1.48,-1.49,-1.51
118,-3.22,-1.68,-3.22,-1.69,1.69,1.71,-1.53,-1.53,-1.54
119,-3.22,-1.64,-3.22,-1.65,1.65,1.68,-1.57,-1.57,-1.57
120,-3.22,-1.61,-3.22,-1.61,1.61,1.66,-1.61,-1.61,-1.61
121,-3.22,-1.58,-3.22,-1.57,1.57,1.64,-1.65,-1.65,-1.64
123,-3.22,-1.52,-3.22,-1.53,1.53,1.59,-1.69,-1.69,-1.70
124,-3.22,-1.48,-3.22,-1.48,1.48,1.57,-1.73,-1.73,-1.74
125,-3.22,-1.45,-3.21,-1.44,1.44,1.55,-1.78,-1.77,-1.77
126,-3.22,-1.42,-3.21,-1.40,1.40,1.53,-1.82,-1.81,-1.80
128,-3.22,-1.37,-3.20,-1.36,1.36,1.48,-1.86,-1.84,-1.85
129,-3.18,-1.30,-3.20,-1.32,1.32,1.45,-1.86,-1.88,-1.88
130,-3.18,-1.27,-3.19,-1.28,1.28,1.43,-1.90,-1.91,-1.91
131,-3.18,-1.24,-3.19,-1.24,1.24,1.41,-1.94,-1.95,-1.94
133,-3.18,-1.19,-3.19,-1.20,1.20,1.36,-1.97,-1.98,-1.99
134,-3.18,-1.16,-3.19,-1.17,1.17,1.33,-2.01,-2.02,-2.02
135,-3.18,-1.14,-3.19,-1.14,1.14,1.31,-2.04,-2.05,-2.04
137,-3.20,-1.11,-3.19,-1.11,1.11,1.26,-2.09,-2.08,-2.09
138,-3.20,-1.08,-3.19,-1.07,1.07,1.24,-2.13,-2.12,-2.11
140,-3.20,-1.04,-3.18,-1.03,1.03,1.19,-2.17,-2.15,-2.16
141,-3.18,-1.00,-3.17,-0.99,0.99,1.16,-2.19,-2.18,-2.18
142,-3.18,-0.97,-3.16,-0.95,0.95,1.14,-2.23,-2.21,-2.21
144,-3.16,-0.91,-3.15,-0.90,0.90,1.09,-2.26,-2.25,-2.25
145,-3.13,-0.86,-3.13,-0.85,0.85,1.06,-2.28,-2.28,-2.27
147,-3.09,-0.78,-3.11,-0.81,0.81,1.01,-2.28,-2.31,-2.31
148,-3.08,-0.75,-3.10,-0.76,0.76,0.99,-2.31,-2.33,-2.33
150,-3.08,-0.71,-3.09,-0.73,0.73,0.94,-2.35,-2.36,-2.37
151,-3.08,-0.69,-3.08,-0.69,0.69,0.92,-2.39,-2.39,-2.39
153,-3.08,-0.66,-3.08,-0.66,0.66,0.87,-2.42,-2.42,-2.42
154,-3.08,-0.64,-3.08,-0.63,0.63,0.85,-2.45,-2.45,-2.44
156,-3.08,-0.60,-3.08,-0.60,0.60,0.80,-2.47,-2.47,-2.48
157,-3.08,-0.59,-3.08,-0.58,0.58,0.78,-2.50,-2.50,-2.49
159,-3.08,-0.55,-3.07,-0.55,0.55,0.74,-2.53,-2.52,-2.52
160,-3.08,-0.54,-3.07,-0.52,0.52,0.72,-2.55,-2.55,-2.54
162,-3.08,-0.51,-3.07,-0.50,0.50,0.67,-2.58,-2.57,-2.57
164,-3.07,-0.47,-3.06,-0.47,0.47,0.63,-2.60,-2.60,-2.60
165,-3.04,-0.42,-3.05,-0.43,0.43,0.61,-2.60,-2.62,-2.62
167,-3.04,-0.40,-3.05,-0.40,0.40,0.57,-2.63,-2.64,-2.64
169,-3.04,-0.37,-3.04,-0.38,0.38,0.53,-2.66,-2.66,-2.67
170,-3.04,-0.36,-3.04,-0.35,0.35,0.51,-2.69,-2.69,-2.68
172,-3.04,-0.33,-3.04,-0.33,0.33,0.47,-2.71,-2.71,-2.71
174,-3.04,-0.31,-3.04,-0.31,0.31,0.43,-2.73,-2.73,-2.73
175,-3.04,-0.29,-3.04,-0.30,0.30,0.41,-2.74,-2.75,-2.74
177,-3.04,-0.27,-3.05,-0.28,0.28,0.38,-2.76,-2.77,-2.77
179,-3.04,-0.25,-3.06,-0.27,0.27,0.34,-2.77,-2.79,-2.79
181,-3.07,-0.26,-3.07,-0.26,0.26,0.30,-2.81,-2.81,-2.81
183,-3.08,-0.25,-3.07,-0.24,0.24,0.27,-2.84,-2.83,-2.83
184,-3.08,-0.24,-3.07,-0.22,0.22,0.25,-2.86,-2.85,-2.84
186,-3.08,-0.22,-3.06,-0.20,0.20,0.22,-2.88,-2.86,-2.86
188,-3.08,-0.20,-3.05,-0.17,0.17,0.18,-2.91,-2.88,-2.88
190,-3.04,-0.14,-3.03,-0.13,0.13,0.15,-2.91,-2.90,-2.90
192,-3.01,-0.09,-3.01,-0.09,0.09,0.12,-2.92,-2.92,-2.92
194,-2.97,-0.04,-2.99,-0.06,0.06,0.09,-2.91,-2.93,-2.93
196,-2.94,0.01,-2.97,-0.02,0.02,0.06,-2.92,-2.95,-2.95
198,-2.94,0.03,-2.95,0.01,-0.01,0.03,-2.95,-2.97,-2.97
200,-2.94,0.04,-2.94,0.04,-0.04,-0.00,-2.98,-2.98,-2.98
202,-2.94,0.06,-2.93,0.06,-0.06,-0.03,-3.00,-3.00,-3.00
204,-2.94,0.07,-2.93,0.08,-0.08,-0.06,-3.02,-3.01,-3.01
206,-2.94,0.08,-2.93,0.09,-0.09,-0.09,-3.03,-3.02,-3.02
208,-2.94,0.10,-2.93,0.10,-0.10,-0.12,-3.04,-3.04,-3.04
210,-2.94,0.11,-2.94,0.11,-0.11,-0.14,-3.05,-3.05,-3.05
212,-2.94,0.12,-2.94,0.12,-0.12,-0.17,-3.06,-3.06,-3.06
214,-2.94,0.13,-2.95,0.12,-0.12,-0.19,-3.06,-3.07,-3.07
216,-2.94,0.15,-2.96,0.13,-0.13,-0.22,-3.07,-3.09,-3.09
218,-2.94,0.16,-2.97,0.13,-0.13,-0.24,-3.07,-3.10,-3.10
221,-2.99,0.12,-2.97,0.14,-0.14,-0.27,-3.13,-3.11,-3.11
223,-2.99,0.13,-2.98,0.15,-0.15,-0.30,-3.14,-3.12,-3.12
225,-3.00,0.13,-2.97,0.16,-0.16,-0.32,-3.16,-3.13,-3.13
227,-3.00,0.14,-2.97,0.18,-0.18,-0.33,-3.18,-3.14,-3.14
229,-2.97,0.18,-2.96,0.20,-0.20,-0.35,-3.17,-3.15,-3.15
232,-2.92,0.25,-2.94,0.22,-0.22,-0.38,-3.14,-3.16,-3.17
234,-2.90,0.28,-2.92,0.25,-0.25,-0.40,-3.15,-3.17,-3.17
236,-2.90,0.28,-2.91,0.28,-0.28,-0.41,-3.18,-3.19,-3.18
239,-2.90,0.30,-2.89,0.30,-0.30,-0.43,-3.20,-3.20,-3.20
241,-2.88,0.33,-2.88,0.33,-0.33,-0.44,-3.21,-3.21,-3.20
244,-2.85,0.37,-2.86,0.35,-0.35,-0.46,-3.20,-3.22,-3.22
246,-2.85,0.38,-2.85,0.37,-0.37,-0.47,-3.22,-3.22,-3.22
248,-2.85,0.38,-2.84,0.39,-0.39,-0.48,-3.24,-3.23,-3.23
251,-2.85,0.40,-2.83,0.41,-0.41,-0.49,-3.26,-3.24,-3.24
253,-2.85,0.40,-2.83,0.43,-0.43,-0.50,-3.28,-3.25,-3.25
256,-2.80,0.46,-2.82,0.45,-0.45,-0.51,-3.24,-3.26,-3.26
259,-2.80,0.47,-2.81,0.46,-0.46,-0.51,-3.26,-3.27,-3.27
261,-2.80,0.48,-2.80,0.48,-0.48,-0.52,-3.27,-3.28,-3.28
264,-2.80,0.49,-2.80,0.49,-0.49,-0.52,-3.29,-3.29,-3.29
266,-2.80,0.50,-2.80,0.50,-0.50,-0.52,-3.30,-3.30,-3.30
269,-2.80,0.50,-2.80,0.51,-0.51,-0.52,-3.30,-3.30,-3.30
272,-2.80,0.51,-2.80,0.51,-0.51,-0.52,-3.31,-3.31,-3.31
274,-2.80,0.51,-2.80,0.52,-0.52,-0.52,-3.31,-3.31,-3.31
277,-2.80,0.52,-2.80,0.52,-0.52,-0.52,-3.32,-3.32,-3.32
280,-2.80,0.52,-2.80,0.52,-0.52,-0.52,-3.32,-3.32,-3.32
283,-2.80,0.53,-2.80,0.53,-0.53,-0.51,-3.32,-3.32,-3.32
286,-2.80,0.53,-2.80,0.53,-0.53,-0.51,-3.33,-3.32,-3.33
288,-2.80,0.52,-2.79,0.53,-0.53,-0.51,-3.33,-3.32,-3.32
291,-2.80,0.52,-2.78,0.54,-0.54,-0.50,-3.34,-3.32,-3.32
294,-2.78,0.54,-2.78,0.54,-0.54,-0.50,-3.32,-3.32,-3.32
297,-2.76,0.56,-2.77,0.54,-0.54,-0.49,-3.30,-3.31,-3.31
300,-2.76,0.55,-2.77,0.54,-0.54,-0.49,-3.30,-3.31,-3.31
303,-2.76,0.54,-2.76,0.54,-0.54,-0.48,-3.30,-3.30,-3.30
306,-2.76,0.53,-2.76,0.53,-0.53,-0.47,-3.29,-3.29,-3.29
309,-2.76,0.52,-2.76,0.52,-0.52,-0.47,-3.28,-3.28,-3.28
312,-2.76,0.51,-2.76,0.51,-0.51,-0.46,-3.27,-3.27,-3.27
316,-2.76,0.50,-2.77,0.49,-0.49,-0.45,-3.25,-3.26,-3.26
319,-2.76,0.49,-2.77,0.48,-0.48,-0.45,-3.24,-3.25,-3.25
322,-2.78,0.46,-2.78,0.46,-0.46,-0.44,-3.24,-3.24,-3.24
325,-2.80,0.43,-2.78,0.45,-0.45,-0.44,-3.25,-3.23,-3.23
328,-2.80,0.42,-2.78,0.43,-0.43,-0.43,-3.23,-3.22,-3.22
332,-2.80,0.41,-2.78,0.43,-0.43,-0.42,-3.23,-3.21,-3.21
335,-2.76,0.43,-2.77,0.42,-0.42,-0.42,-3.18,-3.19,-3.19
338,-2.76,0.42,-2.76,0.42,-0.42,-0.41,-3.18,-3.18,-3.18
342,-2.76,0.42,-2.75,0.43,-0.43,-0.41,-3.19,-3.17,-3.17
345,-2.71,0.46,-2.73,0.44,-0.44,-0.40,-3.14,-3.17,-3.17
349,-2.71,0.45,-2.71,0.44,-0.44,-0.40,-3.15,-3.16,-3.16
352,-2.71,0.44,-2.70,0.45,-0.45,-0.40,-3.16,-3.15,-3.15
356,-2.70,0.45,-2.69,0.46,-0.46,-0.39,-3.16,-3.15,-3.15
359,-2.66,0.48,-2.68,0.47,-0.47,-0.39,-3.13,-3.14,-3.14
363,-2.66,0.48,-2.67,0.47,-0.47,-0.39,-3.13,-3.14,-3.14
366,-2.66,0.48,-2.66,0.48,-0.48,-0.38,-3.13,-3.14,-3.14
370,-2.66,0.48,-2.66,0.48,-0.48,-0.38,-3.14,-3.14,-3.14
374,-2.66,0.48,-2.66,0.48,-0.48,-0.38,-3.14,-3.14,-3.14
377,-2.66,0.48,-2.66,0.48,-0.48,-0.38,-3.14,-3.14,-3.14
381,-2.66,0.48,-2.66,0.48,-0.48,-0.38,-3.14,-3.14,-3.14
385,-2.66,0.48,-2.66,0.48,-0.48,-0.37,-3.14,-3.14,-3.14
389,-2.66,0.48,-2.66,0.48,-0.48,-0.37,-3.14,-3.14,-3.14
393,-2.66,0.48,-2.66,0.48,-0.48,-0.37,-3.14,-3.14,-3.14
397,-2.66,0.48,-2.66,0.48,-0.48,-0.37,-3.14,-3.14,-3.14
401,-2.66,0.49,-2.66,0.48,-0.48,-0.37,-3.14,-3.14,-3.14
405,-2.66,0.49,-2.66,0.49,-0.49,-0.37,-3.15,-3.15,-3.15
409,-2.66,0.49,-2.66,0.49,-0.49,-0.37,-3.15,-3.15,-3.15
413,-2.66,0.49,-2.65,0.49,-0.49,-0.38,-3.15,-3.15,-3.15
417,-2.66,0.49,-2.65,0.50,-0.50,-0.38,-3.16,-3.15,-3.15
421,-2.66,0.49,-2.64,0.50,-0.50,-0.38,-3.16,-3.15,-3.15
425,-2.62,0.53,-2.64,0.51,-0.51,-0.38,-3.13,-3.15,-3.15
430,-2.62,0.53,-2.63,0.51,-0.51,-0.38,-3.13,-3.14,-3.14
434,-2.62,0.52,-2.63,0.51,-0.51,-0.39,-3.13,-3.14,-3.14
438,-2.62,0.52,-2.62,0.51,-0.51,-0.39,-3.13,-3.14,-3.14
443,-2.62,0.52,-2.62,0.51,-0.51,-0.39,-3.13,-3.14,-3.14
447,-2.62,0.51,-2.62,0.51,-0.51,-0.40,-3.13,-3.13,-3.13
451,-2.62,0.51,-2.61,0.52,-0.52,-0.40,-3.14,-3.13,-3.13
456,-2.62,0.50,-2.60,0.52,-0.52,-0.41,-3.14,-3.12,-3.12
460,-2.62,0.50,-2.59,0.52,-0.52,-0.41,-3.14,-3.12,-3.12
465,-2.57,0.54,-2.58,0.53,-0.53,-0.42,-3.10,-3.11,-3.11
470,-2.57,0.54,-2.57,0.54,-0.54,-0.42,-3.11,-3.10,-3.10
474,-2.54,0.56,-2.55,0.54,-0.54,-0.43,-3.08,-3.10,-3.10
479,-2.52,0.57,-2.54,0.55,-0.55,-0.43,-3.07,-3.09,-3.09
484,-2.52,0.56,-2.53,0.55,-0.55,-0.44,-3.07,-3.08,-3.08
489,-2.52,0.56,-2.52,0.55,-0.55,-0.44,-3.07,-3.07,-3.08
494,-2.52,0.55,-2.51,0.55,-0.55,-0.45,-3.07,-3.07,-3.07
499,-2.52,0.54,-2.50,0.55,-0.55,-0.46,-3.07,-3.06,-3.06
504,-2.52,0.53,-2.49,0.56,-0.56,-0.47,-3.08,-3.05,-3.05
509,-2.49,0.55,-2.47,0.57,-0.57,-0.47,-3.06,-3.04,-3.04
514,-2.45,0.58,-2.45,0.58,-0.58,-0.48,-3.03,-3.03,-3.03
519,-2.41,0.61,-2.43,0.59,-0.59,-0.49,-3.00,-3.02,-3.02
524,-2.38,0.63,-2.40,0.61,-0.61,-0.50,-2.99,-3.01,-3.01
529,-2.38,0.62,-2.37,0.62,-0.62,-0.51,-3.00,-3.00,-3.00
535,-2.34,0.65,-2.34,0.64,-0.64,-0.52,-2.98,-2.99,-2.99
540,-2.33,0.65,-2.31,0.66,-0.66,-0.53,-2.99,-2.98,-2.98
545,-2.29,0.68,-2.28,0.68,-0.68,-0.54,-2.97,-2.96,-2.96
551,-2.27,0.68,-2.25,0.70,-0.70,-0.55,-2.97,-2.95,-2.95
556,-2.22,0.72,-2.22,0.72,-0.72,-0.56,-2.94,-2.94,-2.94
562,-2.18,0.75,-2.19,0.74,-0.74,-0.57,-2.92,-2.93,-2.93
568,-2.15,0.77,-2.17,0.75,-0.75,-0.59,-2.90,-2.92,-2.92
573,-2.14,0.77,-2.15,0.76,-0.76,-0.60,-2.90,-2.91,-2.91
579,-2.13,0.77,-2.14,0.76,-0.76,-0.61,-2.89,-2.90,-2.90
585,-2.13,0.76,-2.13,0.76,-0.76,-0.62,-2.89,-2.89,-2.89
591,-2.13,0.75,-2.12,0.76,-0.76,-0.64,-2.89,-2.88,-2.88
596,-2.13,0.74,-2.12,0.75,-0.75,-0.65,-2.88,-2.87,-2.87
602,-2.13,0.73,-2.11,0.75,-0.75,-0.67,-2.87,-2.86,-2.86
608,-2.10,0.75,-2.11,0.74,-0.74,-0.68,-2.84,-2.85,-2.85
615,-2.10,0.74,-2.10,0.73,-0.73,-0.70,-2.83,-2.84,-2.84
621,-2.10,0.73,-2.10,0.73,-0.73,-0.72,-2.83,-2.83,-2.83
627,-2.10,0.72,-2.09,0.72,-0.72,-0.73,-2.82,-2.81,-2.81
633,-2.09,0.71,-2.08,0.72,-0.72,-0.75,-2.81,-2.80,-2.80
639,-2.06,0.73,-2.07,0.72,-0.72,-0.77,-2.78,-2.79,-2.79
646,-2.06,0.72,-2.06,0.72,-0.72,-0.79,-2.78,-2.77,-2.77
652,-2.06,0.70,-2.05,0.71,-0.71,-0.81,-2.77,-2.76,-2.76
659,-2.01,0.73,-2.03,0.71,-0.71,-0.83,-2.72,-2.74,-2.74
665,-2.01,0.72,-2.02,0.70,-0.70,-0.85,-2.71,-2.73,-2.73
672,-2.01,0.70,-2.01,0.70,-0.70,-0.87,-2.71,-2.71,-2.71
679,-2.01,0.68,-1.99,0.70,-0.70,-0.89,-2.70,-2.69,-2.69
686,-1.99,0.68,-1.98,0.69,-0.69,-0.92,-2.68,-2.67,-2.67
692,-1.96,0.69,-1.96,0.69,-0.69,-0.94,-2.65,-2.65,-2.65
699,-1.94,0.68,-1.94,0.69,-0.69,-0.96,-2.63,-2.62,-2.62
706,-1.92,0.68,-1.91,0.68,-0.68,-0.99,-2.60,-2.60,-2.60
713,-1.87,0.71,-1.89,0.68,-0.68,-1.02,-2.55,-2.57,-2.57
721,-1.87,0.68,-1.87,0.68,-0.68,-1.05,-2.55,-2.55,-2.55
728,-1.85,0.67,-1.85,0.67,-0.67,-1.07,-2.52,-2.52,-2.52
735,-1.82,0.68,-1.83,0.67,-0.67,-1.10,-2.49,-2.50,-2.50
742,-1.82,0.65,-1.81,0.66,-0.66,-1.13,-2.48,-2.47,-2.47
750,-1.78,0.66,-1.79,0.66,-0.66,-1.16,-2.44,-2.44,-2.44
757,-1.78,0.64,-1.76,0.65,-0.65,-1.19,-2.43,-2.42,-2.42
765,-1.73,0.66,-1.74,0.65,-0.65,-1.22,-2.38,-2.39,-2.39
773,-1.72,0.64,-1.71,0.65,-0.65,-1.25,-2.37,-2.36,-2.36
780,-1.69,0.65,-1.68,0.65,-0.65,-1.28,-2.34,-2.34,-2.34
788,-1.66,0.65,-1.65,0.66,-0.66,-1.32,-2.32,-2.31,-2.31
796,-1.60,0.69,-1.61,0.67,-0.67,-1.35,-2.27,-2.29,-2.29
804,-1.57,0.69,-1.57,0.69,-0.69,-1.39,-2.26,-2.26,-2.26
812,-1.54,0.70,-1.53,0.71,-0.71,-1.42,-2.25,-2.24,-2.24
820,-1.49,0.72,-1.48,0.73,-0.73,-1.46,-2.22,-2.21,-2.21
828,-1.44,0.75,-1.43,0.76,-0.76,-1.49,-2.20,-2.19,-2.19
837,-1.37,0.80,-1.37,0.80,-0.80,-1.53,-2.17,-2.17,-2.17
845,-1.30,0.85,-1.31,0.83,-0.83,-1.56,-2.13,-2.15,-2.14
853,-1.24,0.88,-1.25,0.87,-0.87,-1.60,-2.11,-2.12,-2.12
862,-1.18,0.92,-1.18,0.92,-0.92,-1.63,-2.10,-2.10,-2.10
871,-1.12,0.96,-1.12,0.97,-0.97,-1.67,-2.08,-2.08,-2.08
879,-1.06,1.00,-1.05,1.01,-1.01,-1.70,-2.07,-2.06,-2.06
888,-0.98,1.06,-0.97,1.07,-1.07,-1.74,-2.05,-2.04,-2.04
897,-0.90,1.12,-0.90,1.12,-1.12,-1.77,-2.02,-2.02,-2.02
906,-0.82,1.18,-0.82,1.18,-1.18,-1.80,-2.00,-2.00,-2.00
915,-0.74,1.24,-0.74,1.24,-1.24,-1.84,-1.98,-1.98,-1.98
924,-0.67,1.30,-0.66,1.30,-1.30,-1.87,-1.97,-1.96,-1.96
933,-0.57,1.38,-0.58,1.37,-1.37,-1.90,-1.94,-1.95,-1.95
943,-0.50,1.43,-0.50,1.43,-1.43,-1.93,-1.93,-1.93,-1.93
952,-0.40,1.51,-0.42,1.49,-1.49,-1.96,-1.89,-1.91,-1.91
962,-0.33,1.56,-0.33,1.55,-1.55,-1.99,-1.88,-1.89,-1.89
971,-0.26,1.61,-0.25,1.62,-1.62,-2.01,-1.87,-1.87,-1.87
981,-0.16,1.69,-0.17,1.68,-1.68,-2.04,-1.84,-1.85,-1.85
991,-0.10,1.73,-0.08,1.74,-1.74,-2.06,-1.84,-1.82,-1.82
1001,0.01,1.81,0.00,1.81,-1.81,-2.08,-1.80,-1.80,-1.80
1011,0.08,1.86,0.09,1.87,-1.87,-2.10,-1.79,-1.78,-1.78
1021,0.18,1.94,0.19,1.94,-1.94,-2.12,-1.76,-1.76,-1.76
1031,0.29,2.02,0.28,2.01,-2.01,-2.14,-1.72,-1.73,-1.73
1041,0.37,2.08,0.38,2.09,-2.09,-2.16,-1.72,-1.70,-1.70
1052,0.49,2.17,0.48,2.16,-2.16,-2.17,-1.67,-1.68,-1.68
1062,0.59,2.24,0.59,2.23,-2.23,-2.19,-1.64,-1.65,-1.65
1073,0.70,2.32,0.69,2.31,-2.31,-2.20,-1.61,-1.61,-1.61
1084,0.81,2.39,0.80,2.38,-2.38,-2.22,-1.57,-1.58,-1.58
1094,0.89,2.44,0.91,2.45,-2.45,-2.23,-1.56,-1.55,-1.55
1105,1.00,2.51,1.02,2.52,-2.52,-2.24,-1.52,-1.51,-1.51
1116,1.11,2.58,1.13,2.59,-2.59,-2.25,-1.48,-1.47,-1.47
1128,1.25,2.68,1.24,2.66,-2.66,-2.26,-1.41,-1.43,-1.43
1139,1.36,2.74,1.35,2.73,-2.73,-2.28,-1.37,-1.38,-1.38
1150,1.46,2.80,1.46,2.79,-2.79,-2.29,-1.33,-1.34,-1.34
1162,1.58,2.87,1.57,2.86,-2.86,-2.30,-1.28,-1.29,-1.29
1173,1.68,2.92,1.68,2.92,-2.92,-2.31,-1.24,-1.24,-1.24
1185,1.79,2.97,1.79,2.98,-2.98,-2.33,-1.19,-1.18,-1.18
1197,1.90,3.03,1.91,3.04,-3.04,-2.34,-1.13,-1.13,-1.13
1209,2.01,3.08,2.02,3.09,-3.09,-2.36,-1.08,-1.07,-1.07
1221,2.14,3.15,2.14,3.15,-3.15,-2.38,-1.01,-1.01,-1.01
1233,2.27,3.22,2.26,3.21,-3.21,-2.39,-0.94,-0.95,-0.95
1246,2.39,3.27,2.38,3.26,-3.26,-2.42,-0.87,-0.88,-0.88
1258,2.49,3.31,2.50,3.32,-3.32,-2.44,-0.83,-0.82,-0.82
1271,2.63,3.38,2.63,3.37,-3.37,-2.46,-0.74,-0.75,-0.75
1283,2.75,3.43,2.75,3.43,-3.43,-2.48,-0.68,-0.68,-0.68
1296,2.89,3.49,2.88,3.48,-3.48,-2.51,-0.59,-0.60,-0.60
1309,3.00,3.53,3.01,3.54,-3.54,-2.54,-0.54,-0.53,-0.53
1322,3.14,3.59,3.14,3.59,-3.59,-2.57,-0.45,-0.45,-0.45
1335,3.26,3.63,3.27,3.65,-3.65,-2.60,-0.39,-0.37,-0.37
1349,3.41,3.70,3.40,3.70,-3.70,-2.64,-0.29,-0.29,-0.29
1362,3.53,3.74,3.54,3.75,-3.75,-2.67,-0.21,-0.21,-0.21
1376,3.66,3.79,3.66,3.79,-3.79,-2.71,-0.13,-0.13,-0.13
1390,3.80,3.84,3.79,3.83,-3.83,-2.75,-0.03,-0.04,-0.04
1404,3.93,3.88,3.91,3.86,-3.86,-2.80,0.07,0.05,0.05
1418,4.04,3.91,4.03,3.89,-3.89,-2.84,0.15,0.14,0.14
1432,4.14,3.91,4.14,3.92,-3.92,-2.89,0.22,0.23,0.23
1446,4.25,3.93,4.26,3.94,-3.94,-2.94,0.31,0.32,0.32
1461,4.36,3.95,4.37,3.96,-3.96,-3.00,0.41,0.41,0.41
1475,4.47,3.97,4.47,3.97,-3.97,-3.05,0.50,0.50,0.50
1490,4.58,3.98,4.58,3.98,-3.98,-3.11,0.60,0.60,0.60
1505,4.69,3.99,4.69,3.99,-3.99,-3.17,0.70,0.70,0.70
1520,4.80,4.01,4.80,4.01,-4.01,-3.23,0.80,0.79,0.79
1535,4.91,4.02,4.91,4.02,-4.02,-3.29,0.89,0.89,0.89
1550,5.01,4.02,5.02,4.03,-4.03,-3.35,0.98,0.99,0.99
1566,5.13,4.04,5.13,4.04,-4.04,-3.42,1.09,1.09,1.09
1582,5.24,4.05,5.24,4.05,-4.05,-3.49,1.19,1.19,1.19
1597,5.34,4.05,5.35,4.06,-4.06,-3.55,1.28,1.29,1.29
1613,5.45,4.06,5.46,4.07,-4.07,-3.62,1.38,1.39,1.39
1629,5.58,4.08,5.57,4.08,-4.08,-3.70,1.50,1.50,1.50
