frequency,raw
20,-18.86
21,-18.33
22,-17.83
23,-17.34
24,-16.88
25,-16.44
26,-16.03
27,-15.63
28,-15.26
29,-14.91
30,-14.59
31,-14.30
32,-14.04
33,-13.80
34,-13.56
35,-13.35
36,-13.15
37,-12.95
38,-12.76
39,-12.60
40,-12.45
41,-12.31
42,-12.17
43,-12.06
44,-11.94
45,-11.84
46,-11.73
47,-11.64
48,-11.56
49,-11.46
50,-11.38
51,-11.31
52,-11.23
53,-11.13
54,-11.06
55,-10.98
56,-10.89
57,-10.79
58,-10.70
59,-10.63
60,-10.54
61,-10.44
62,-10.36
63,-10.29
64,-10.20
65,-10.10
66,-10.02
67,-9.94
68,-9.86
69,-9.79
70,-9.72
71,-9.64
72,-9.56
73,-9.49
74,-9.44
75,-9.38
76,-9.32
77,-9.25
78,-9.20
79,-9.14
80,-9.09
81,-9.04
82,-9.00
83,-8.96
84,-8.90
85,-8.84
86,-8.79
87,-8.74
88,-8.70
89,-8.66
90,-8.62
91,-8.57
92,-8.53
93,-8.49
94,-8.46
95,-8.41
96,-8.36
97,-8.31
98,-8.27
99,-8.24
100,-8.22
101,-8.21
102,-8.18
104,-8.15
105,-8.11
106,-8.07
107,-8.04
108,-8.01
109,-7.98
110,-7.96
111,-7.93
112,-7.90
113,-7.86
114,-7.83
115,-7.81
117,-7.79
118,-7.77
119,-7.76
120,-7.76
121,-7.77
123,-7.78
124,-7.79
125,-7.79
126,-7.79
128,-7.79
129,-7.79
130,-7.79
131,-7.79
133,-7.79
134,-7.79
135,-7.79
137,-7.79
138,-7.79
140,-7.79
141,-7.79
142,-7.79
144,-7.79
145,-7.79
147,-7.79
148,-7.79
150,-7.79
151,-7.79
153,-7.79
154,-7.79
156,-7.79
157,-7.79
159,-7.79
160,-7.79
162,-7.79
164,-7.79
165,-7.79
167,-7.78
169,-7.77
170,-7.76
172,-7.76
174,-7.77
175,-7.79
177,-7.81
179,-7.84
181,-7.86
183,-7.90
184,-7.93
186,-7.97
188,-8.00
190,-8.03
192,-8.06
194,-8.09
196,-8.11
198,-8.12
200,-8.13
202,-8.13
204,-8.13
206,-8.12
208,-8.11
210,-8.11
212,-8.11
214,-8.11
216,-8.12
218,-8.13
221,-8.13
223,-8.13
225,-8.12
227,-8.11
229,-8.09
232,-8.07
234,-8.05
236,-8.02
239,-8.00
241,-7.96
244,-7.91
246,-7.86
248,-7.81
251,-7.75
253,-7.67
256,-7.58
259,-7.49
261,-7.39
264,-7.30
266,-7.19
269,-7.05
272,-6.90
274,-6.74
277,-6.58
280,-6.42
283,-6.27
286,-6.11
288,-5.94
291,-5.76
294,-5.57
297,-5.37
300,-5.20
303,-5.02
306,-4.83
309,-4.63
312,-4.45
316,-4.28
319,-4.09
322,-3.91
325,-3.74
328,-3.57
332,-3.40
335,-3.24
338,-3.10
342,-2.96
345,-2.82
349,-2.68
352,-2.54
356,-2.40
359,-2.27
363,-2.17
366,-2.06
370,-1.94
374,-1.82
377,-1.71
381,-1.62
385,-1.52
389,-1.41
393,-1.31
397,-1.22
401,-1.14
405,-1.05
409,-0.97
413,-0.89
417,-0.80
421,-0.72
425,-0.66
430,-0.61
434,-0.56
438,-0.50
443,-0.46
447,-0.40
451,-0.34
456,-0.29
460,-0.25
465,-0.20
470,-0.16
474,-0.12
479,-0.09
484,-0.07
489,-0.06
494,-0.05
499,-0.02
504,0.00
509,0.03
514,0.05
519,0.06
524,0.09
529,0.11
535,0.15
540,0.18
545,0.22
551,0.25
556,0.28
562,0.30
568,0.32
573,0.34
579,0.34
585,0.34
591,0.33
596,0.33
602,0.32
608,0.32
615,0.32
621,0.32
627,0.32
633,0.32
639,0.32
646,0.32
652,0.32
659,0.32
665,0.32
672,0.32
679,0.32
686,0.32
692,0.32
699,0.32
706,0.32
713,0.32
721,0.32
728,0.32
735,0.32
742,0.32
750,0.32
757,0.32
765,0.33
773,0.34
780,0.34
788,0.34
796,0.34
804,0.32
812,0.30
820,0.27
828,0.24
837,0.21
845,0.18
853,0.14
862,0.11
871,0.08
879,0.05
888,0.02
897,-0.00
906,-0.02
915,-0.03
924,-0.03
933,-0.02
943,-0.01
952,-0.00
962,-0.00
971,-0.00
981,-0.00
991,-0.00
1001,0.00
1011,0.01
1021,0.02
1031,0.02
1041,0.02
1052,0.00
1062,-0.02
1073,-0.04
1084,-0.07
1094,-0.10
1105,-0.13
1116,-0.17
1128,-0.20
1139,-0.23
1150,-0.26
1162,-0.27
1173,-0.29
1185,-0.32
1197,-0.34
1209,-0.37
1221,-0.38
1233,-0.40
1246,-0.43
1258,-0.46
1271,-0.48
1283,-0.51
1296,-0.54
1309,-0.57
1322,-0.61
1335,-0.65
1349,-0.70
1362,-0.74
1376,-0.77
1390,-0.80
1404,-0.82
1418,-0.85
1432,-0.88
1446,-0.91
1461,-0.94
1475,-0.95
1490,-0.96
1505,-0.97
1520,-0.99
1535,-1.00
1550,-1.02
1566,-1.05
1582,-1.08
1597,-1.11
1613,-1.13
1629,-1.15
1646,-1.16
1662,-1.16
1679,-1.16
1696,-1.16
1713,-1.14
1730,-1.12
1747,-1.10
1764,-1.07
1782,-1.03
1800,-1.00
1818,-0.96
1836,-0.94
1854,-0.93
1873,-0.94
1892,-0.96
1911,-0.98
1930,-1.01
1949,-1.02
1969,-1.04
1988,-1.07
2008,-1.10
2028,-1.14
2048,-1.19
2069,-1.25
2090,-1.31
2111,-1.38
2132,-1.46
2153,-1.54
2175,-1.63
2196,-1.72
2218,-1.81
2240,-1.92
2263,-2.05
2285,-2.19
2308,-2.35
2331,-2.51
2355,-2.68
2378,-2.87
2402,-3.08
2426,-3.30
2450,-3.54
2475,-3.80
2500,-4.07
2525,-4.36
2550,-4.66
2575,-4.98
2601,-5.32
2627,-5.67
2653,-6.04
2680,-6.43
2707,-6.82
2734,-7.22
2761,-7.64
2789,-8.08
2817,-8.52
2845,-8.96
2873,-9.37
2902,-9.78
2931,-10.16
2960,-10.50
2990,-10.80
3020,-11.05
3050,-11.23
3080,-11.32
3111,-11.34
3142,-11.29
3174,-11.18
3206,-10.97
3238,-10.69
3270,-10.34
3303,-9.93
3336,-9.48
3369,-8.99
3403,-8.47
3437,-7.91
3471,-7.32
3506,-6.73
3541,-6.14
3576,-5.55
3612,-4.96
3648,-4.40
3685,-3.84
3721,-3.31
3759,-2.79
3796,-2.30
3834,-1.85
3873,-1.41
3911,-0.99
3950,-0.58
3990,-0.22
4030,0.12
4070,0.44
4111,0.72
4152,0.99
4193,1.24
4235,1.47
4278,1.67
4321,1.85
4364,2.02
4407,2.17
4451,2.30
4496,2.42
4541,2.51
4586,2.60
4632,2.67
4679,2.74
4725,2.81
4773,2.86
4820,2.90
4868,2.91
4917,2.91
4966,2.91
5016,2.89
5066,2.86
5117,2.81
5168,2.76
5220,2.72
5272,2.67
5325,2.61
5378,2.54
5432,2.46
5486,2.37
5541,2.27
5596,2.16
5652,2.06
5709,1.95
5766,1.84
5823,1.73
5882,1.61
5940,1.50
6000,1.40
6060,1.33
6120,1.27
6182,1.24
6244,1.25
6306,1.31
6369,1.41
6433,1.52
6497,1.64
6562,1.79
6628,1.97
6694,2.14
6761,2.33
6828,2.52
6897,2.71
6966,2.90
7035,3.09
7106,3.26
7177,3.41
7249,3.55
7321,3.67
7394,3.78
7468,3.89
7543,3.99
7618,4.07
7694,4.14
7771,4.18
7849,4.19
7928,4.19
8007,4.18
8087,4.16
8168,4.11
8250,4.07
8332,4.02
8415,3.97
8499,3.94
8584,3.93
8670,3.92
8757,3.93
8845,3.94
8933,3.97
9022,4.01
9113,4.05
9204,4.10
9296,4.14
9389,4.18
9483,4.21
9577,4.24
9673,4.26
9770,4.25
9868,4.22
9966,4.17
10066,4.11
10167,4.05
10268,3.98
10371,3.91
10475,3.83
10579,3.75
10685,3.67
10792,3.59
10900,3.54
11009,3.51
11119,3.53
11230,3.59
11343,3.70
11456,3.85
11571,4.03
11686,4.25
11803,4.47
11921,4.69
12040,4.91
12161,5.13
12282,5.35
12405,5.54
12529,5.70
12655,5.82
12781,5.90
12909,5.94
13038,5.93
13168,5.91
13300,5.84
13433,5.73
13567,5.59
13703,5.42
13840,5.21
13978,4.94
14118,4.61
14259,4.22
14402,3.75
14546,3.22
14692,2.63
14838,1.98
14987,1.30
15137,0.57
15288,-0.17
15441,-0.92
15595,-1.65
15751,-2.36
15909,-3.02
16068,-3.63
16229,-4.20
16391,-4.70
16555,-5.14
16720,-5.53
16888,-5.86
17056,-6.16
17227,-6.42
17399,-6.66
17573,-6.88
17749,-7.09
17926,-7.29
18106,-7.49
18287,-7.73
18470,-7.97
18654,-8.21
18841,-8.45
19029,-8.69
19220,-8.93
19412,-9.17
19606,-9.40
19802,-9.64
20000,-9.88
