frequency,raw,smoothed,error,error_smoothed,equalization,parametric_eq,fixed_band_eq,equalized_raw,equalized_smoothed,target
20.00,-11.49,-11.50,-9.69,-9.70,6.00,6.65,2.76,-5.49,-5.50,-1.80
20.20,-11.44,-11.44,-9.67,-9.66,6.00,6.63,2.84,-5.44,-5.44,-1.77
20.40,-11.37,-11.36,-9.63,-9.62,6.00,6.61,2.92,-5.37,-5.36,-1.74
20.61,-11.27,-11.28,-9.55,-9.56,6.00,6.59,3.01,-5.27,-5.28,-1.72
20.81,-11.19,-11.19,-9.50,-9.49,6.00,6.57,3.09,-5.19,-5.19,-1.69
21.02,-11.09,-11.09,-9.43,-9.42,6.00,6.55,3.18,-5.09,-5.09,-1.67
21.23,-10.99,-11.00,-9.34,-9.35,6.00,6.53,3.27,-4.99,-5.00,-1.66
21.44,-10.92,-10.92,-9.28,-9.27,6.00,6.51,3.37,-4.92,-4.92,-1.65
21.66,-10.84,-10.84,-9.21,-9.20,6.00,6.49,3.46,-4.84,-4.84,-1.64
21.87,-10.76,-10.76,-9.12,-9.13,6.00,6.47,3.56,-4.76,-4.76,-1.64
22.09,-10.68,-10.68,-9.05,-9.05,6.00,6.45,3.66,-4.68,-4.68,-1.63
22.31,-10.60,-10.61,-8.97,-8.98,6.00,6.43,3.77,-4.60,-4.61,-1.63
22.54,-10.54,-10.53,-8.91,-8.90,6.00,6.40,3.87,-4.54,-4.53,-1.63
22.76,-10.45,-10.46,-8.82,-8.83,6.00,6.38,3.98,-4.45,-4.46,-1.63
22.99,-10.38,-10.38,-8.74,-8.74,6.00,6.36,4.10,-4.38,-4.38,-1.64
23.22,-10.30,-10.30,-8.66,-8.66,6.00,6.34,4.21,-4.30,-4.30,-1.64
23.45,-10.21,-10.22,-8.57,-8.58,6.00,6.31,4.33,-4.21,-4.22,-1.64
23.69,-10.15,-10.14,-8.51,-8.50,6.00,6.29,4.45,-4.15,-4.14,-1.64
23.92,-10.06,-10.07,-8.42,-8.43,6.00,6.26,4.57,-4.06,-4.07,-1.64
24.16,-9.99,-9.99,-8.36,-8.35,6.00,6.24,4.70,-3.99,-3.99,-1.63
24.40,-9.90,-9.91,-8.27,-8.27,6.00,6.22,4.83,-3.90,-3.91,-1.64
24.65,-9.83,-9.83,-8.19,-8.18,6.00,6.19,4.96,-3.83,-3.83,-1.65
24.89,-9.73,-9.74,-8.08,-8.09,6.00,6.17,5.09,-3.73,-3.74,-1.65
25.14,-9.66,-9.66,-8.01,-8.01,6.00,6.14,5.22,-3.66,-3.66,-1.65
25.39,-9.56,-9.57,-7.91,-7.92,6.00,6.11,5.35,-3.56,-3.57,-1.65
25.65,-9.50,-9.49,-7.85,-7.84,6.00,6.09,5.49,-3.50,-3.49,-1.65
25.91,-9.41,-9.42,-7.75,-7.76,6.00,6.06,5.62,-3.41,-3.42,-1.66
26.16,-9.34,-9.34,-7.68,-7.68,6.00,6.03,5.76,-3.34,-3.34,-1.66
26.43,-9.27,-9.27,-7.61,-7.61,6.00,6.01,5.89,-3.27,-3.27,-1.66
26.69,-9.20,-9.21,-7.54,-7.54,6.00,5.98,6.02,-3.20,-3.21,-1.66
26.96,-9.14,-9.14,-7.48,-7.48,6.00,5.95,6.16,-3.14,-3.14,-1.67
27.23,-9.08,-9.08,-7.42,-7.41,6.00,5.92,6.28,-3.08,-3.08,-1.67
27.50,-9.02,-9.03,-7.35,-7.36,6.00,5.90,6.41,-3.02,-3.03,-1.67
27.77,-8.97,-8.98,-7.29,-7.30,6.00,5.87,6.53,-2.97,-2.98,-1.68
28.05,-8.93,-8.93,-7.25,-7.24,6.00,5.84,6.65,-2.93,-2.93,-1.68
28.33,-8.88,-8.88,-7.19,-7.19,6.00,5.81,6.75,-2.88,-2.88,-1.69
28.62,-8.82,-8.82,-7.13,-7.13,6.00,5.78,6.86,-2.82,-2.82,-1.69
28.90,-8.76,-8.76,-7.07,-7.07,6.00,5.75,6.95,-2.76,-2.76,-1.70
29.19,-8.70,-8.70,-7.00,-7.00,6.00,5.72,7.04,-2.70,-2.70,-1.71
29.48,-8.64,-8.64,-6.94,-6.94,6.00,5.69,7.12,-2.64,-2.64,-1.70
29.78,-8.58,-8.58,-6.87,-6.87,6.00,5.66,7.19,-2.58,-2.58,-1.71
30.08,-8.52,-8.52,-6.81,-6.81,6.00,5.63,7.25,-2.52,-2.52,-1.71
30.38,-8.46,-8.46,-6.74,-6.74,6.00,5.60,7.30,-2.46,-2.46,-1.72
30.68,-8.40,-8.40,-6.68,-6.67,6.00,5.56,7.33,-2.40,-2.40,-1.73
30.99,-8.34,-8.34,-6.60,-6.61,6.00,5.53,7.35,-2.34,-2.34,-1.74
31.30,-8.28,-8.29,-6.54,-6.55,6.00,5.50,7.36,-2.28,-2.29,-1.74
31.61,-8.25,-8.24,-6.51,-6.50,6.00,5.47,7.36,-2.25,-2.24,-1.74
31.93,-8.20,-8.20,-6.45,-6.45,6.00,5.43,7.34,-2.20,-2.20,-1.76
32.24,-8.15,-8.16,-6.38,-6.40,6.00,5.40,7.32,-2.15,-2.16,-1.77
32.57,-8.12,-8.11,-6.35,-6.34,6.00,5.37,7.28,-2.12,-2.11,-1.77
32.89,-8.07,-8.07,-6.30,-6.30,6.00,5.33,7.23,-2.07,-2.07,-1.77
33.22,-8.02,-8.03,-6.24,-6.25,6.01,5.30,7.17,-2.02,-2.02,-1.79
33.55,-7.99,-7.98,-6.20,-6.19,6.01,5.26,7.10,-1.98,-1.98,-1.79
33.89,-7.93,-7.94,-6.13,-6.14,6.01,5.23,7.02,-1.93,-1.93,-1.80
34.23,-7.90,-7.90,-6.10,-6.09,6.00,5.19,6.93,-1.90,-1.90,-1.80
34.57,-7.85,-7.86,-6.04,-6.04,5.99,5.16,6.84,-1.86,-1.87,-1.82
34.92,-7.82,-7.82,-5.99,-6.00,5.97,5.12,6.74,-1.85,-1.85,-1.83
35.27,-7.79,-7.79,-5.96,-5.95,5.95,5.09,6.63,-1.85,-1.85,-1.83
35.62,-7.76,-7.76,-5.92,-5.92,5.92,5.05,6.52,-1.85,-1.85,-1.85
35.97,-7.73,-7.73,-5.87,-5.87,5.88,5.01,6.41,-1.85,-1.85,-1.86
36.33,-7.69,-7.69,-5.83,-5.82,5.84,4.97,6.29,-1.86,-1.86,-1.87
36.70,-7.65,-7.66,-5.77,-5.78,5.79,4.94,6.17,-1.87,-1.87,-1.88
37.06,-7.62,-7.62,-5.73,-5.73,5.74,4.90,6.05,-1.89,-1.89,-1.89
37.43,-7.59,-7.59,-5.69,-5.68,5.68,4.86,5.93,-1.91,-1.91,-1.90
37.81,-7.54,-7.55,-5.63,-5.63,5.63,4.82,5.81,-1.92,-1.92,-1.91
38.19,-7.49,-7.49,-5.57,-5.57,5.57,4.78,5.69,-1.93,-1.93,-1.93
38.57,-7.44,-7.44,-5.51,-5.50,5.51,4.74,5.57,-1.94,-1.93,-1.93
38.95,-7.37,-7.38,-5.43,-5.44,5.44,4.70,5.45,-1.93,-1.94,-1.95
39.34,-7.33,-7.33,-5.37,-5.37,5.37,4.66,5.33,-1.96,-1.96,-1.96
39.74,-7.28,-7.28,-5.31,-5.30,5.30,4.62,5.21,-1.98,-1.97,-1.98
40.14,-7.21,-7.22,-5.23,-5.23,5.23,4.58,5.10,-1.98,-1.99,-1.98
40.54,-7.15,-7.15,-5.16,-5.16,5.15,4.54,4.99,-2.00,-2.00,-2.00
40.94,-7.08,-7.08,-5.08,-5.08,5.08,4.50,4.88,-2.00,-2.00,-2.00
41.35,-7.01,-7.01,-4.99,-5.00,5.00,4.46,4.77,-2.01,-2.01,-2.02
41.76,-6.94,-6.94,-4.92,-4.92,4.92,4.42,4.67,-2.02,-2.02,-2.03
42.18,-6.86,-6.87,-4.83,-4.83,4.84,4.37,4.57,-2.03,-2.03,-2.03
42.60,-6.80,-6.80,-4.75,-4.75,4.75,4.33,4.47,-2.06,-2.05,-2.05
43.03,-6.72,-6.72,-4.67,-4.67,4.66,4.29,4.38,-2.07,-2.07,-2.06
43.46,-6.64,-6.65,-4.57,-4.57,4.56,4.24,4.29,-2.08,-2.08,-2.07
43.90,-6.57,-6.57,-4.47,-4.47,4.47,4.20,4.20,-2.11,-2.10,-2.10
44.33,-6.47,-6.48,-4.35,-4.37,4.37,4.15,4.11,-2.10,-2.11,-2.12
44.78,-6.41,-6.40,-4.28,-4.27,4.27,4.11,4.03,-2.14,-2.13,-2.14
45.23,-6.31,-6.32,-4.16,-4.17,4.17,4.06,3.95,-2.14,-2.15,-2.15
45.68,-6.25,-6.25,-4.08,-4.08,4.08,4.02,3.88,-2.18,-2.17,-2.17
46.13,-6.16,-6.17,-3.97,-3.98,3.98,3.97,3.81,-2.18,-2.19,-2.19
46.60,-6.09,-6.09,-3.89,-3.88,3.88,3.92,3.74,-2.21,-2.21,-2.20
47.06,-6.00,-6.01,-3.78,-3.79,3.78,3.88,3.67,-2.22,-2.22,-2.22
47.53,-5.92,-5.93,-3.68,-3.69,3.68,3.83,3.61,-2.24,-2.24,-2.24
48.01,-5.85,-5.85,-3.60,-3.59,3.58,3.78,3.54,-2.27,-2.27,-2.25
48.49,-5.77,-5.78,-3.49,-3.49,3.48,3.73,3.49,-2.29,-2.29,-2.28
48.97,-5.70,-5.70,-3.39,-3.39,3.39,3.68,3.43,-2.32,-2.31,-2.31
49.46,-5.63,-5.63,-3.29,-3.29,3.30,3.63,3.38,-2.34,-2.33,-2.34
49.96,-5.56,-5.57,-3.19,-3.20,3.21,3.58,3.33,-2.35,-2.36,-2.38
50.46,-5.51,-5.52,-3.13,-3.12,3.13,3.53,3.28,-2.38,-2.38,-2.39
50.96,-5.47,-5.47,-3.06,-3.05,3.07,3.48,3.23,-2.41,-2.41,-2.41
51.47,-5.44,-5.44,-3.00,-3.00,3.01,3.42,3.19,-2.44,-2.43,-2.44
51.99,-5.40,-5.42,-2.94,-2.96,2.95,3.37,3.14,-2.45,-2.47,-2.47
52.51,-5.40,-5.40,-2.92,-2.91,2.91,3.32,3.10,-2.49,-2.49,-2.48
53.03,-5.40,-5.38,-2.90,-2.88,2.87,3.26,3.06,-2.53,-2.51,-2.51
53.56,-5.35,-5.37,-2.82,-2.84,2.83,3.21,3.03,-2.52,-2.54,-2.53
54.10,-5.35,-5.36,-2.80,-2.80,2.80,3.15,2.99,-2.55,-2.56,-2.56
54.64,-5.35,-5.35,-2.77,-2.76,2.77,3.10,2.95,-2.59,-2.58,-2.58
55.18,-5.35,-5.34,-2.74,-2.74,2.74,3.04,2.92,-2.61,-2.61,-2.61
55.74,-5.33,-5.34,-2.70,-2.71,2.71,2.99,2.88,-2.62,-2.63,-2.64
56.29,-5.33,-5.34,-2.68,-2.68,2.69,2.93,2.85,-2.65,-2.65,-2.65
56.86,-5.35,-5.34,-2.67,-2.66,2.67,2.87,2.81,-2.69,-2.68,-2.68
57.42,-5.35,-5.35,-2.64,-2.65,2.65,2.82,2.78,-2.71,-2.71,-2.71
58.00,-5.35,-5.35,-2.62,-2.63,2.63,2.76,2.75,-2.73,-2.73,-2.73
58.58,-5.35,-5.35,-2.60,-2.60,2.61,2.70,2.71,-2.75,-2.75,-2.75
59.16,-5.35,-5.35,-2.58,-2.58,2.58,2.65,2.68,-2.77,-2.77,-2.77
59.76,-5.35,-5.36,-2.56,-2.56,2.55,2.59,2.64,-2.80,-2.80,-2.79
60.35,-5.35,-5.35,-2.53,-2.53,2.52,2.54,2.61,-2.83,-2.83,-2.82
60.96,-5.35,-5.34,-2.51,-2.49,2.48,2.48,2.57,-2.87,-2.86,-2.84
61.57,-5.31,-5.33,-2.43,-2.44,2.44,2.43,2.54,-2.87,-2.89,-2.89
62.18,-5.31,-5.31,-2.39,-2.39,2.40,2.38,2.50,-2.91,-2.91,-2.92
62.80,-5.30,-5.30,-2.36,-2.35,2.35,2.33,2.46,-2.95,-2.95,-2.95
63.43,-5.27,-5.28,-2.29,-2.30,2.30,2.28,2.42,-2.97,-2.98,-2.98
64.07,-5.27,-5.26,-2.27,-2.25,2.25,2.23,2.38,-3.02,-3.01,-3.01
64.71,-5.22,-5.24,-2.19,-2.20,2.20,2.18,2.34,-3.02,-3.03,-3.03
65.35,-5.22,-5.21,-2.16,-2.15,2.15,2.14,2.30,-3.07,-3.06,-3.06
66.01,-5.18,-5.19,-2.09,-2.10,2.11,2.10,2.25,-3.07,-3.09,-3.09
66.67,-5.18,-5.18,-2.06,-2.06,2.06,2.05,2.21,-3.12,-3.12,-3.12
67.33,-5.17,-5.16,-2.02,-2.01,2.02,2.02,2.16,-3.15,-3.14,-3.15
68.01,-5.14,-5.16,-1.96,-1.98,1.97,1.98,2.12,-3.17,-3.18,-3.18
68.69,-5.14,-5.15,-1.93,-1.93,1.93,1.94,2.07,-3.21,-3.22,-3.21
69.37,-5.14,-5.13,-1.90,-1.89,1.89,1.90,2.02,-3.26,-3.24,-3.24
70.07,-5.12,-5.12,-1.85,-1.85,1.85,1.87,1.98,-3.28,-3.27,-3.27
70.77,-5.09,-5.10,-1.79,-1.80,1.80,1.84,1.93,-3.29,-3.30,-3.30
71.48,-5.09,-5.09,-1.76,-1.76,1.76,1.80,1.88,-3.33,-3.33,-3.33
72.19,-5.09,-5.09,-1.73,-1.72,1.72,1.77,1.83,-3.37,-3.37,-3.37
72.91,-5.09,-5.09,-1.69,-1.69,1.69,1.74,1.78,-3.41,-3.41,-3.40
73.64,-5.09,-5.09,-1.65,-1.65,1.65,1.71,1.74,-3.44,-3.44,-3.44
74.38,-5.09,-5.09,-1.62,-1.62,1.62,1.68,1.69,-3.47,-3.47,-3.47
75.12,-5.09,-5.09,-1.59,-1.59,1.59,1.65,1.64,-3.50,-3.50,-3.51
75.87,-5.09,-5.09,-1.56,-1.56,1.57,1.62,1.59,-3.53,-3.53,-3.54
76.63,-5.09,-5.10,-1.53,-1.53,1.54,1.59,1.54,-3.55,-3.56,-3.57
77.40,-5.12,-5.12,-1.53,-1.52,1.52,1.56,1.50,-3.61,-3.60,-3.60
78.17,-5.14,-5.14,-1.50,-1.50,1.49,1.53,1.45,-3.65,-3.64,-3.64
78.95,-5.14,-5.14,-1.48,-1.48,1.47,1.50,1.40,-3.68,-3.68,-3.66
79.74,-5.14,-5.15,-1.45,-1.45,1.44,1.47,1.36,-3.70,-3.70,-3.70
80.54,-5.14,-5.14,-1.41,-1.41,1.41,1.44,1.31,-3.73,-3.73,-3.73
81.35,-5.14,-5.14,-1.38,-1.38,1.38,1.40,1.27,-3.76,-3.76,-3.76
82.16,-5.14,-5.14,-1.34,-1.34,1.35,1.37,1.22,-3.79,-3.79,-3.80
82.98,-5.14,-5.15,-1.32,-1.32,1.32,1.34,1.18,-3.82,-3.83,-3.83
83.81,-5.16,-5.16,-1.29,-1.29,1.29,1.31,1.14,-3.87,-3.87,-3.87
84.65,-5.18,-5.18,-1.27,-1.27,1.26,1.28,1.09,-3.92,-3.91,-3.91
85.50,-5.18,-5.18,-1.24,-1.24,1.24,1.24,1.05,-3.95,-3.94,-3.94
86.35,-5.18,-5.19,-1.20,-1.21,1.21,1.21,1.01,-3.98,-3.98,-3.98
87.22,-5.18,-5.20,-1.16,-1.18,1.18,1.18,0.97,-4.00,-4.02,-4.02
88.09,-5.22,-5.21,-1.16,-1.15,1.15,1.14,0.93,-4.07,-4.06,-4.06
88.97,-5.22,-5.22,-1.13,-1.12,1.12,1.11,0.89,-4.10,-4.10,-4.09
89.86,-5.22,-5.23,-1.09,-1.09,1.09,1.08,0.85,-4.13,-4.13,-4.13
90.76,-5.22,-5.23,-1.04,-1.05,1.06,1.04,0.82,-4.16,-4.17,-4.18
91.66,-5.24,-5.25,-1.03,-1.02,1.03,1.01,0.78,-4.22,-4.22,-4.22
92.58,-5.27,-5.26,-1.00,-1.00,0.99,0.98,0.74,-4.28,-4.27,-4.27
93.51,-5.27,-5.27,-0.97,-0.97,0.96,0.94,0.71,-4.31,-4.31,-4.30
94.44,-5.27,-5.28,-0.93,-0.93,0.92,0.91,0.67,-4.35,-4.35,-4.35
95.39,-5.27,-5.28,-0.88,-0.89,0.89,0.88,0.64,-4.38,-4.39,-4.39
96.34,-5.30,-5.29,-0.86,-0.85,0.86,0.85,0.60,-4.45,-4.44,-4.45
97.30,-5.31,-5.31,-0.82,-0.82,0.82,0.81,0.57,-4.49,-4.49,-4.49
98.28,-5.31,-5.33,-0.78,-0.79,0.79,0.78,0.53,-4.52,-4.54,-4.54
99.26,-5.35,-5.34,-0.77,-0.75,0.76,0.75,0.50,-4.59,-4.58,-4.58
100.25,-5.35,-5.35,-0.72,-0.73,0.73,0.71,0.47,-4.63,-4.63,-4.63
101.25,-5.35,-5.37,-0.68,-0.70,0.69,0.68,0.44,-4.66,-4.68,-4.67
102.27,-5.40,-5.39,-0.68,-0.66,0.66,0.65,0.41,-4.74,-4.73,-4.72
103.29,-5.40,-5.40,-0.63,-0.63,0.63,0.61,0.38,-4.78,-4.78,-4.78
104.32,-5.40,-5.40,-0.59,-0.59,0.59,0.58,0.35,-4.81,-4.81,-4.81
105.37,-5.40,-5.41,-0.54,-0.55,0.55,0.55,0.31,-4.85,-4.85,-4.86
106.42,-5.40,-5.42,-0.50,-0.51,0.51,0.51,0.29,-4.89,-4.90,-4.91
107.48,-5.44,-5.43,-0.49,-0.47,0.47,0.48,0.26,-4.97,-4.96,-4.95
108.56,-5.44,-5.44,-0.43,-0.44,0.43,0.44,0.23,-5.01,-5.01,-5.01
109.64,-5.44,-5.44,-0.39,-0.39,0.39,0.41,0.20,-5.05,-5.05,-5.05
110.74,-5.44,-5.44,-0.34,-0.34,0.35,0.37,0.17,-5.09,-5.10,-5.10
111.85,-5.44,-5.46,-0.30,-0.30,0.31,0.33,0.14,-5.14,-5.15,-5.15
112.97,-5.48,-5.47,-0.27,-0.27,0.26,0.30,0.12,-5.22,-5.21,-5.21
114.10,-5.48,-5.48,-0.23,-0.22,0.21,0.26,0.09,-5.27,-5.27,-5.26
115.24,-5.48,-5.49,-0.17,-0.17,0.16,0.22,0.06,-5.32,-5.32,-5.31
116.39,-5.48,-5.48,-0.12,-0.12,0.12,0.18,0.04,-5.36,-5.36,-5.37
117.55,-5.48,-5.48,-0.06,-0.06,0.07,0.14,0.01,-5.41,-5.41,-5.42
118.73,-5.48,-5.49,-0.01,-0.02,0.03,0.10,-0.01,-5.45,-5.46,-5.47
119.92,-5.49,-5.50,0.02,0.02,-0.01,0.05,-0.04,-5.51,-5.52,-5.52
121.12,-5.53,-5.52,0.04,0.05,-0.06,0.01,-0.06,-5.59,-5.58,-5.57
122.33,-5.53,-5.53,0.09,0.09,-0.10,-0.03,-0.08,-5.63,-5.62,-5.62
123.55,-5.53,-5.54,0.13,0.13,-0.13,-0.07,-0.11,-5.67,-5.67,-5.66
124.79,-5.53,-5.54,0.18,0.17,-0.17,-0.12,-0.13,-5.70,-5.71,-5.72
126.03,-5.57,-5.56,0.19,0.20,-0.20,-0.16,-0.15,-5.78,-5.76,-5.77
127.29,-5.57,-5.58,0.24,0.23,-0.24,-0.21,-0.18,-5.81,-5.82,-5.82
128.57,-5.61,-5.60,0.26,0.27,-0.27,-0.25,-0.20,-5.89,-5.87,-5.88
129.85,-5.61,-5.61,0.31,0.31,-0.31,-0.30,-0.22,-5.92,-5.92,-5.92
131.15,-5.61,-5.63,0.36,0.34,-0.34,-0.34,-0.24,-5.96,-5.97,-5.97
132.46,-5.64,-5.64,0.38,0.38,-0.38,-0.39,-0.26,-6.02,-6.02,-6.02
133.79,-5.66,-5.65,0.39,0.41,-0.41,-0.43,-0.29,-6.07,-6.06,-6.06
135.12,-5.66,-5.67,0.45,0.44,-0.44,-0.48,-0.31,-6.11,-6.11,-6.11
136.48,-5.66,-5.68,0.48,0.47,-0.47,-0.52,-0.33,-6.14,-6.15,-6.15
137.84,-5.70,-5.69,0.49,0.51,-0.50,-0.56,-0.35,-6.21,-6.19,-6.19
139.22,-5.70,-5.70,0.54,0.54,-0.53,-0.60,-0.37,-6.24,-6.24,-6.24
140.61,-5.70,-5.72,0.58,0.56,-0.56,-0.64,-0.39,-6.26,-6.28,-6.29
142.02,-5.74,-5.73,0.57,0.59,-0.59,-0.69,-0.41,-6.33,-6.31,-6.31
143.44,-5.74,-5.74,0.61,0.61,-0.61,-0.72,-0.43,-6.35,-6.35,-6.35
144.87,-5.74,-5.75,0.65,0.64,-0.64,-0.76,-0.46,-6.38,-6.39,-6.39
146.32,-5.76,-5.76,0.67,0.67,-0.67,-0.80,-0.48,-6.43,-6.43,-6.43
147.78,-5.77,-5.78,0.69,0.69,-0.69,-0.84,-0.50,-6.47,-6.47,-6.46
149.26,-5.79,-5.79,0.70,0.71,-0.72,-0.87,-0.52,-6.52,-6.51,-6.50
150.75,-5.79,-5.79,0.75,0.75,-0.75,-0.91,-0.55,-6.54,-6.54,-6.54
152.26,-5.79,-5.79,0.79,0.79,-0.78,-0.94,-0.57,-6.57,-6.57,-6.58
153.78,-5.79,-5.80,0.82,0.82,-0.81,-0.97,-0.59,-6.61,-6.61,-6.62
155.32,-5.79,-5.81,0.87,0.85,-0.85,-1.00,-0.62,-6.64,-6.65,-6.66
156.88,-5.83,-5.82,0.86,0.88,-0.88,-1.03,-0.64,-6.72,-6.70,-6.69
158.44,-5.83,-5.83,0.90,0.91,-0.92,-1.06,-0.67,-6.75,-6.75,-6.74
160.03,-5.83,-5.84,0.95,0.94,-0.95,-1.08,-0.69,-6.78,-6.79,-6.78
161.63,-5.83,-5.83,0.99,0.99,-0.98,-1.11,-0.72,-6.82,-6.81,-6.82
163.24,-5.83,-5.83,1.03,1.03,-1.01,-1.13,-0.75,-6.85,-6.85,-6.86
164.88,-5.83,-5.84,1.06,1.05,-1.04,-1.16,-0.78,-6.88,-6.89,-6.89
166.53,-5.85,-5.85,1.08,1.08,-1.08,-1.18,-0.80,-6.93,-6.93,-6.93
168.19,-5.87,-5.87,1.10,1.10,-1.11,-1.20,-0.83,-6.98,-6.98,-6.97
169.87,-5.87,-5.87,1.13,1.13,-1.15,-1.22,-0.86,-7.02,-7.02,-7.01
171.57,-5.87,-5.88,1.17,1.17,-1.18,-1.24,-0.90,-7.05,-7.05,-7.04
173.29,-5.87,-5.87,1.21,1.21,-1.21,-1.26,-0.93,-7.08,-7.08,-7.08
175.02,-5.87,-5.87,1.24,1.25,-1.24,-1.28,-0.96,-7.11,-7.11,-7.12
176.77,-5.87,-5.87,1.29,1.29,-1.27,-1.29,-0.99,-7.15,-7.15,-7.16
178.54,-5.87,-5.88,1.33,1.32,-1.31,-1.31,-1.03,-7.18,-7.19,-7.20
180.32,-5.89,-5.90,1.34,1.34,-1.34,-1.33,-1.06,-7.23,-7.24,-7.24
182.13,-5.92,-5.91,1.35,1.36,-1.37,-1.34,-1.10,-7.30,-7.29,-7.27
183.95,-5.92,-5.92,1.39,1.39,-1.40,-1.35,-1.13,-7.33,-7.33,-7.31
185.79,-5.92,-5.93,1.42,1.42,-1.43,-1.37,-1.17,-7.35,-7.36,-7.34
187.65,-5.92,-5.92,1.46,1.46,-1.46,-1.38,-1.21,-7.38,-7.38,-7.38
189.52,-5.92,-5.92,1.49,1.49,-1.48,-1.39,-1.25,-7.40,-7.40,-7.41
191.42,-5.92,-5.93,1.52,1.52,-1.50,-1.40,-1.29,-7.42,-7.43,-7.44
193.33,-5.95,-5.95,1.52,1.52,-1.52,-1.41,-1.33,-7.47,-7.47,-7.47
195.27,-5.96,-5.97,1.54,1.53,-1.53,-1.42,-1.37,-7.50,-7.51,-7.50
197.22,-6.00,-5.99,1.53,1.55,-1.54,-1.43,-1.41,-7.55,-7.53,-7.53
199.19,-6.00,-6.00,1.56,1.55,-1.55,-1.43,-1.45,-7.55,-7.55,-7.57
201.18,-6.00,-6.02,1.58,1.56,-1.56,-1.44,-1.49,-7.56,-7.58,-7.58
203.19,-6.05,-6.04,1.55,1.57,-1.56,-1.45,-1.54,-7.62,-7.60,-7.60
205.23,-6.05,-6.05,1.57,1.57,-1.58,-1.46,-1.58,-7.63,-7.63,-7.62
207.28,-6.05,-6.06,1.58,1.57,-1.59,-1.46,-1.62,-7.65,-7.66,-7.63
209.35,-6.05,-6.05,1.60,1.61,-1.61,-1.47,-1.66,-7.67,-7.66,-7.65
211.44,-6.05,-6.04,1.63,1.63,-1.64,-1.47,-1.70,-7.69,-7.68,-7.68
213.56,-6.00,-6.02,1.68,1.66,-1.66,-1.48,-1.74,-7.67,-7.68,-7.68
215.69,-6.00,-5.99,1.68,1.70,-1.69,-1.48,-1.78,-7.69,-7.68,-7.68
217.85,-5.96,-5.97,1.73,1.73,-1.72,-1.49,-1.82,-7.68,-7.69,-7.70
220.03,-5.96,-5.97,1.75,1.74,-1.74,-1.49,-1.86,-7.70,-7.71,-7.71
222.23,-5.96,-5.95,1.76,1.76,-1.76,-1.50,-1.90,-7.72,-7.71,-7.72
224.45,-5.94,-5.94,1.77,1.78,-1.77,-1.50,-1.93,-7.72,-7.72,-7.71
226.70,-5.92,-5.93,1.79,1.78,-1.78,-1.51,-1.97,-7.70,-7.71,-7.71
228.96,-5.92,-5.92,1.79,1.79,-1.78,-1.51,-2.00,-7.71,-7.70,-7.72
231.25,-5.92,-5.92,1.78,1.79,-1.78,-1.51,-2.03,-7.70,-7.70,-7.71
233.57,-5.92,-5.93,1.78,1.78,-1.78,-1.52,-2.06,-7.70,-7.71,-7.71
235.90,-5.94,-5.94,1.76,1.77,-1.77,-1.52,-2.08,-7.71,-7.71,-7.71
238.26,-5.94,-5.94,1.76,1.76,-1.76,-1.53,-2.10,-7.71,-7.71,-7.70
240.64,-5.94,-5.94,1.75,1.75,-1.75,-1.53,-2.12,-7.70,-7.70,-7.69
243.05,-5.94,-5.94,1.74,1.75,-1.75,-1.53,-2.14,-7.69,-7.68,-7.68
245.48,-5.92,-5.93,1.75,1.74,-1.74,-1.54,-2.15,-7.67,-7.68,-7.67
247.93,-5.92,-5.92,1.74,1.74,-1.74,-1.54,-2.16,-7.67,-7.66,-7.66
250.41,-5.92,-5.91,1.73,1.74,-1.74,-1.54,-2.17,-7.67,-7.65,-7.66
252.92,-5.87,-5.89,1.76,1.74,-1.75,-1.55,-2.17,-7.62,-7.64,-7.63
255.45,-5.87,-5.86,1.74,1.75,-1.76,-1.55,-2.18,-7.63,-7.62,-7.61
258.00,-5.83,-5.84,1.77,1.76,-1.76,-1.55,-2.17,-7.60,-7.60,-7.60
260.58,-5.81,-5.81,1.77,1.77,-1.77,-1.56,-2.17,-7.58,-7.58,-7.59
263.19,-5.79,-5.78,1.77,1.78,-1.77,-1.56,-2.16,-7.57,-7.56,-7.56
265.82,-5.75,-5.77,1.80,1.78,-1.78,-1.57,-2.15,-7.53,-7.54,-7.55
268.48,-5.74,-5.74,1.78,1.78,-1.78,-1.57,-2.14,-7.52,-7.52,-7.52
271.16,-5.74,-5.73,1.76,1.78,-1.77,-1.58,-2.13,-7.52,-7.50,-7.50
273.87,-5.70,-5.72,1.78,1.77,-1.77,-1.58,-2.11,-7.47,-7.48,-7.49
276.61,-5.70,-5.71,1.76,1.76,-1.76,-1.58,-2.09,-7.46,-7.46,-7.46
279.38,-5.70,-5.70,1.74,1.74,-1.75,-1.59,-2.07,-7.45,-7.45,-7.45
282.17,-5.70,-5.70,1.73,1.73,-1.73,-1.59,-2.05,-7.44,-7.44,-7.43
284.99,-5.70,-5.69,1.70,1.72,-1.72,-1.60,-2.02,-7.43,-7.41,-7.41
287.84,-5.66,-5.68,1.73,1.71,-1.71,-1.61,-2.00,-7.38,-7.39,-7.39
290.72,-5.66,-5.67,1.70,1.70,-1.70,-1.61,-1.97,-7.37,-7.37,-7.37
293.63,-5.66,-5.66,1.69,1.69,-1.69,-1.62,-1.95,-7.36,-7.35,-7.35
296.57,-5.66,-5.65,1.66,1.68,-1.68,-1.62,-1.92,-7.35,-7.33,-7.33
299.53,-5.61,-5.63,1.70,1.68,-1.67,-1.63,-1.89,-7.29,-7.30,-7.31
302.53,-5.61,-5.62,1.68,1.67,-1.66,-1.64,-1.87,-7.27,-7.28,-7.29
305.55,-5.61,-5.61,1.64,1.66,-1.65,-1.64,-1.84,-7.26,-7.26,-7.26
308.61,-5.61,-5.60,1.63,1.64,-1.64,-1.65,-1.81,-7.25,-7.24,-7.24
311.69,-5.57,-5.59,1.64,1.62,-1.63,-1.66,-1.78,-7.20,-7.22,-7.21
314.81,-5.57,-5.57,1.60,1.61,-1.62,-1.67,-1.76,-7.19,-7.19,-7.18
317.96,-5.57,-5.56,1.59,1.60,-1.61,-1.67,-1.73,-7.18,-7.16,-7.16
321.14,-5.53,-5.55,1.61,1.59,-1.60,-1.68,-1.71,-7.13,-7.15,-7.14
324.35,-5.53,-5.53,1.59,1.59,-1.59,-1.69,-1.68,-7.13,-7.12,-7.13
327.59,-5.52,-5.51,1.58,1.59,-1.59,-1.70,-1.66,-7.11,-7.10,-7.10
330.87,-5.48,-5.50,1.60,1.58,-1.58,-1.71,-1.63,-7.07,-7.08,-7.08
334.18,-5.48,-5.48,1.58,1.58,-1.58,-1.71,-1.61,-7.06,-7.06,-7.07
337.52,-5.48,-5.47,1.57,1.58,-1.57,-1.72,-1.59,-7.05,-7.04,-7.05
340.90,-5.44,-5.46,1.58,1.57,-1.56,-1.73,-1.57,-7.01,-7.02,-7.02
344.30,-5.44,-5.45,1.56,1.56,-1.56,-1.74,-1.55,-7.00,-7.00,-7.00
347.75,-5.44,-5.43,1.54,1.55,-1.55,-1.75,-1.53,-6.99,-6.98,-6.99
351.23,-5.43,-5.43,1.53,1.54,-1.54,-1.76,-1.52,-6.98,-6.97,-6.97
354.74,-5.40,-5.42,1.55,1.53,-1.54,-1.77,-1.50,-6.94,-6.95,-6.95
358.28,-5.40,-5.40,1.53,1.53,-1.53,-1.78,-1.49,-6.94,-6.93,-6.93
361.87,-5.39,-5.38,1.52,1.53,-1.53,-1.79,-1.47,-6.93,-6.92,-6.91
365.49,-5.35,-5.37,1.54,1.53,-1.53,-1.79,-1.46,-6.89,-6.90,-6.90
369.14,-5.35,-5.34,1.53,1.54,-1.54,-1.80,-1.45,-6.89,-6.88,-6.89
372.83,-5.31,-5.32,1.56,1.55,-1.54,-1.81,-1.44,-6.86,-6.87,-6.87
376.56,-5.31,-5.30,1.55,1.55,-1.55,-1.82,-1.43,-6.87,-6.86,-6.86
380.33,-5.27,-5.28,1.56,1.56,-1.56,-1.83,-1.42,-6.84,-6.84,-6.83
384.13,-5.25,-5.25,1.57,1.57,-1.58,-1.84,-1.41,-6.83,-6.83,-6.82
387.97,-5.22,-5.22,1.59,1.59,-1.59,-1.85,-1.41,-6.82,-6.81,-6.82
391.85,-5.19,-5.19,1.61,1.61,-1.61,-1.86,-1.40,-6.80,-6.80,-6.81
395.77,-5.16,-5.16,1.63,1.63,-1.63,-1.86,-1.40,-6.79,-6.79,-6.79
399.73,-5.13,-5.13,1.65,1.65,-1.65,-1.87,-1.40,-6.78,-6.78,-6.78
403.72,-5.10,-5.10,1.67,1.67,-1.67,-1.88,-1.40,-6.77,-6.77,-6.77
407.76,-5.07,-5.07,1.69,1.69,-1.69,-1.89,-1.40,-6.77,-6.76,-6.76
411.84,-5.03,-5.03,1.71,1.71,-1.72,-1.89,-1.40,-6.75,-6.75,-6.74
415.96,-4.99,-5.00,1.74,1.74,-1.74,-1.90,-1.40,-6.74,-6.74,-6.74
420.12,-4.96,-4.96,1.76,1.77,-1.77,-1.91,-1.40,-6.73,-6.73,-6.73
424.32,-4.92,-4.92,1.79,1.80,-1.79,-1.92,-1.41,-6.72,-6.71,-6.72
428.56,-4.88,-4.89,1.83,1.82,-1.82,-1.92,-1.41,-6.70,-6.70,-6.71
432.85,-4.85,-4.85,1.85,1.85,-1.84,-1.93,-1.42,-6.70,-6.70,-6.70
