frequency,raw,smoothed,error,error_smoothed,equalization,parametric_eq,fixed_band_eq,equalized_raw,equalized_smoothed,target
20.00,5.23,5.23,-0.53,-0.53,0.55,0.32,-0.08,5.77,5.77,5.76
20.20,5.23,5.23,-0.53,-0.53,0.53,0.31,-0.09,5.76,5.76,5.76
20.40,5.24,5.24,-0.52,-0.52,0.52,0.31,-0.09,5.75,5.75,5.76
20.61,5.25,5.25,-0.51,-0.51,0.50,0.31,-0.09,5.75,5.75,5.76
20.81,5.26,5.26,-0.50,-0.50,0.49,0.31,-0.09,5.75,5.75,5.76
21.02,5.28,5.28,-0.48,-0.48,0.48,0.30,-0.10,5.75,5.75,5.76
21.23,5.30,5.29,-0.46,-0.46,0.46,0.30,-0.10,5.76,5.76,5.76
21.44,5.31,5.31,-0.45,-0.45,0.45,0.30,-0.10,5.76,5.76,5.76
21.66,5.32,5.32,-0.44,-0.44,0.44,0.30,-0.10,5.76,5.76,5.75
21.87,5.33,5.33,-0.43,-0.43,0.43,0.29,-0.11,5.75,5.75,5.75
22.09,5.34,5.34,-0.42,-0.42,0.42,0.29,-0.11,5.75,5.75,5.75
22.31,5.35,5.34,-0.41,-0.41,0.41,0.29,-0.11,5.76,5.75,5.75
22.54,5.35,5.35,-0.40,-0.40,0.40,0.29,-0.12,5.75,5.75,5.75
22.76,5.36,5.35,-0.39,-0.40,0.40,0.28,-0.12,5.75,5.75,5.75
22.99,5.36,5.36,-0.39,-0.39,0.39,0.28,-0.12,5.75,5.75,5.75
23.22,5.36,5.36,-0.39,-0.39,0.39,0.28,-0.13,5.74,5.75,5.75
23.45,5.37,5.36,-0.38,-0.38,0.38,0.27,-0.13,5.75,5.75,5.75
23.69,5.37,5.37,-0.38,-0.38,0.38,0.27,-0.13,5.75,5.75,5.75
23.92,5.37,5.37,-0.38,-0.38,0.38,0.27,-0.14,5.75,5.75,5.74
24.16,5.37,5.37,-0.38,-0.37,0.37,0.27,-0.14,5.74,5.74,5.74
24.40,5.38,5.37,-0.37,-0.37,0.37,0.26,-0.14,5.75,5.74,5.74
24.65,5.38,5.38,-0.36,-0.36,0.36,0.26,-0.15,5.74,5.74,5.74
24.89,5.39,5.39,-0.35,-0.35,0.35,0.26,-0.15,5.74,5.74,5.74
25.14,5.40,5.40,-0.34,-0.34,0.34,0.25,-0.15,5.74,5.74,5.74
25.39,5.42,5.42,-0.32,-0.32,0.32,0.25,-0.16,5.74,5.74,5.74
25.65,5.44,5.44,-0.30,-0.30,0.30,0.25,-0.16,5.74,5.73,5.74
25.91,5.46,5.46,-0.28,-0.28,0.27,0.24,-0.17,5.73,5.73,5.73
26.16,5.49,5.49,-0.25,-0.25,0.24,0.24,-0.17,5.73,5.73,5.73
26.43,5.52,5.52,-0.21,-0.21,0.21,0.24,-0.17,5.72,5.72,5.73
26.69,5.56,5.56,-0.17,-0.17,0.17,0.23,-0.18,5.73,5.73,5.73
26.96,5.60,5.60,-0.13,-0.13,0.13,0.23,-0.18,5.73,5.73,5.73
27.23,5.64,5.63,-0.09,-0.09,0.09,0.22,-0.18,5.73,5.73,5.73
27.50,5.67,5.67,-0.06,-0.05,0.06,0.22,-0.19,5.73,5.73,5.72
27.77,5.70,5.70,-0.02,-0.02,0.03,0.22,-0.19,5.73,5.73,5.72
28.05,5.73,5.72,0.01,0.00,0.01,0.21,-0.19,5.74,5.73,5.72
28.33,5.74,5.74,0.02,0.02,-0.00,0.21,-0.20,5.73,5.73,5.72
28.62,5.74,5.74,0.02,0.02,-0.01,0.20,-0.20,5.73,5.73,5.72
28.90,5.73,5.73,0.01,0.01,-0.01,0.20,-0.20,5.72,5.72,5.71
29.19,5.72,5.72,0.01,0.01,-0.01,0.20,-0.20,5.71,5.71,5.71
29.48,5.71,5.71,-0.00,-0.00,-0.00,0.19,-0.21,5.70,5.70,5.71
29.78,5.70,5.70,-0.01,-0.01,-0.00,0.19,-0.21,5.70,5.69,5.71
30.08,5.69,5.69,-0.02,-0.01,-0.00,0.18,-0.21,5.69,5.69,5.70
30.38,5.70,5.70,-0.00,-0.00,-0.01,0.18,-0.21,5.69,5.69,5.70
30.68,5.71,5.70,0.01,0.01,-0.01,0.17,-0.21,5.69,5.69,5.70
30.99,5.72,5.72,0.02,0.02,-0.02,0.17,-0.21,5.70,5.70,5.70
31.30,5.73,5.73,0.03,0.04,-0.03,0.16,-0.21,5.70,5.70,5.69
31.61,5.74,5.73,0.05,0.05,-0.04,0.16,-0.21,5.70,5.70,5.69
31.93,5.74,5.74,0.05,0.05,-0.04,0.15,-0.21,5.69,5.69,5.69
32.24,5.74,5.74,0.05,0.05,-0.05,0.15,-0.21,5.69,5.69,5.68
32.57,5.73,5.73,0.05,0.05,-0.04,0.14,-0.21,5.69,5.69,5.68
32.89,5.72,5.71,0.04,0.04,-0.03,0.14,-0.21,5.68,5.68,5.68
33.22,5.70,5.70,0.03,0.03,-0.03,0.13,-0.21,5.67,5.67,5.67
33.55,5.69,5.69,0.02,0.02,-0.02,0.13,-0.21,5.67,5.67,5.67
33.89,5.68,5.67,0.01,0.01,-0.01,0.12,-0.21,5.67,5.66,5.66
34.23,5.67,5.67,0.01,0.01,-0.01,0.12,-0.21,5.66,5.66,5.66
34.57,5.67,5.67,0.01,0.01,-0.02,0.11,-0.20,5.65,5.65,5.65
34.92,5.68,5.68,0.03,0.03,-0.03,0.11,-0.20,5.64,5.65,5.65
35.27,5.71,5.70,0.06,0.06,-0.06,0.10,-0.20,5.64,5.64,5.65
35.62,5.74,5.74,0.10,0.10,-0.11,0.09,-0.20,5.63,5.63,5.64
35.97,5.79,5.79,0.15,0.15,-0.17,0.09,-0.19,5.62,5.62,5.64
36.33,5.86,5.86,0.23,0.23,-0.25,0.08,-0.19,5.60,5.60,5.63
36.70,5.94,5.94,0.31,0.32,-0.35,0.07,-0.19,5.59,5.59,5.62
37.06,6.04,6.04,0.42,0.42,-0.45,0.07,-0.19,5.59,5.59,5.62
37.43,6.15,6.15,0.54,0.54,-0.55,0.06,-0.18,5.60,5.60,5.61
37.81,6.26,6.26,0.65,0.65,-0.63,0.06,-0.18,5.62,5.62,5.61
38.19,6.35,6.34,0.75,0.74,-0.69,0.05,-0.18,5.65,5.65,5.60
38.57,6.39,6.39,0.79,0.79,-0.72,0.04,-0.17,5.67,5.67,5.59
38.95,6.39,6.38,0.80,0.79,-0.72,0.04,-0.17,5.67,5.66,5.59
39.34,6.32,6.31,0.74,0.73,-0.68,0.03,-0.17,5.64,5.63,5.58
39.74,6.21,6.21,0.63,0.63,-0.62,0.02,-0.17,5.59,5.59,5.57
40.14,6.08,6.08,0.51,0.52,-0.55,0.01,-0.16,5.53,5.54,5.57
40.54,5.96,5.97,0.40,0.41,-0.47,0.01,-0.16,5.49,5.50,5.56
40.94,5.88,5.88,0.33,0.33,-0.39,-0.00,-0.16,5.48,5.49,5.55
41.35,5.83,5.83,0.29,0.29,-0.33,-0.01,-0.15,5.50,5.50,5.54
41.76,5.80,5.80,0.26,0.27,-0.28,-0.02,-0.15,5.51,5.52,5.53
42.18,5.79,5.78,0.26,0.26,-0.26,-0.02,-0.15,5.53,5.53,5.52
42.60,5.78,5.77,0.26,0.26,-0.24,-0.03,-0.14,5.54,5.53,5.51
43.03,5.76,5.76,0.25,0.25,-0.23,-0.04,-0.14,5.52,5.53,5.50
43.46,5.74,5.73,0.24,0.24,-0.22,-0.05,-0.14,5.51,5.51,5.49
43.90,5.71,5.71,0.22,0.22,-0.21,-0.05,-0.14,5.49,5.49,5.48
44.33,5.68,5.68,0.20,0.21,-0.20,-0.06,-0.13,5.48,5.48,5.47
44.78,5.65,5.65,0.19,0.19,-0.18,-0.07,-0.13,5.46,5.46,5.46
45.23,5.62,5.62,0.17,0.17,-0.17,-0.08,-0.13,5.45,5.45,5.45
45.68,5.59,5.59,0.15,0.15,-0.15,-0.09,-0.13,5.44,5.43,5.44
46.13,5.56,5.56,0.13,0.13,-0.14,-0.10,-0.12,5.42,5.42,5.43
46.60,5.54,5.54,0.12,0.13,-0.13,-0.10,-0.12,5.40,5.40,5.41
47.06,5.53,5.53,0.13,0.13,-0.13,-0.11,-0.12,5.39,5.39,5.40
47.53,5.52,5.52,0.13,0.13,-0.14,-0.12,-0.12,5.38,5.38,5.39
48.01,5.52,5.51,0.15,0.14,-0.14,-0.13,-0.12,5.37,5.37,5.37
48.49,5.51,5.51,0.15,0.16,-0.16,-0.14,-0.11,5.35,5.36,5.36
48.97,5.52,5.51,0.18,0.17,-0.17,-0.15,-0.11,5.35,5.34,5.34
49.46,5.51,5.51,0.18,0.19,-0.18,-0.16,-0.11,5.33,5.33,5.33
49.96,5.51,5.51,0.20,0.20,-0.19,-0.17,-0.11,5.32,5.32,5.31
50.46,5.50,5.49,0.21,0.20,-0.20,-0.17,-0.11,5.30,5.30,5.29
50.96,5.48,5.48,0.20,0.21,-0.21,-0.18,-0.11,5.27,5.28,5.27
51.47,5.47,5.46,0.21,0.21,-0.21,-0.19,-0.11,5.26,5.25,5.26
51.99,5.45,5.45,0.21,0.21,-0.21,-0.20,-0.11,5.23,5.23,5.24
52.51,5.43,5.43,0.21,0.21,-0.21,-0.21,-0.11,5.21,5.22,5.22
53.03,5.42,5.41,0.22,0.22,-0.21,-0.22,-0.11,5.20,5.20,5.20
53.56,5.40,5.40,0.22,0.22,-0.21,-0.23,-0.11,5.18,5.18,5.18
54.10,5.38,5.37,0.22,0.22,-0.22,-0.24,-0.11,5.16,5.16,5.16
54.64,5.35,5.35,0.21,0.22,-0.22,-0.25,-0.11,5.13,5.13,5.13
55.18,5.33,5.33,0.21,0.22,-0.22,-0.26,-0.11,5.11,5.11,5.11
55.74,5.31,5.31,0.22,0.22,-0.22,-0.26,-0.11,5.09,5.09,5.09
56.29,5.29,5.29,0.22,0.22,-0.22,-0.27,-0.12,5.06,5.06,5.06
56.86,5.27,5.27,0.23,0.23,-0.23,-0.28,-0.12,5.04,5.04,5.04
57.42,5.25,5.25,0.23,0.24,-0.24,-0.29,-0.13,5.01,5.01,5.01
58.00,5.24,5.23,0.25,0.25,-0.25,-0.30,-0.13,4.99,4.99,4.99
58.58,5.22,5.22,0.26,0.26,-0.26,-0.31,-0.14,4.96,4.96,4.96
59.16,5.20,5.20,0.26,0.27,-0.27,-0.32,-0.14,4.93,4.93,4.93
59.76,5.19,5.18,0.28,0.28,-0.28,-0.33,-0.15,4.91,4.91,4.90
60.35,5.17,5.16,0.29,0.29,-0.29,-0.34,-0.16,4.88,4.88,4.87
60.96,5.14,5.14,0.29,0.30,-0.30,-0.35,-0.17,4.84,4.84,4.84
61.57,5.12,5.12,0.31,0.30,-0.30,-0.36,-0.18,4.81,4.81,4.81
62.18,5.09,5.09,0.31,0.31,-0.31,-0.36,-0.19,4.78,4.78,4.78
62.80,5.07,5.06,0.32,0.32,-0.32,-0.37,-0.20,4.75,4.75,4.75
63.43,5.04,5.04,0.33,0.32,-0.32,-0.38,-0.21,4.71,4.71,4.71
64.07,5.01,5.01,0.33,0.33,-0.33,-0.39,-0.23,4.68,4.68,4.68
64.71,4.98,4.98,0.34,0.34,-0.34,-0.40,-0.24,4.64,4.64,4.64
65.35,4.95,4.95,0.34,0.35,-0.35,-0.41,-0.26,4.60,4.60,4.60
66.01,4.93,4.92,0.36,0.36,-0.36,-0.43,-0.28,4.57,4.56,4.57
66.67,4.90,4.90,0.37,0.37,-0.37,-0.44,-0.29,4.52,4.52,4.53
67.33,4.88,4.87,0.39,0.39,-0.39,-0.45,-0.31,4.49,4.49,4.49
68.01,4.85,4.85,0.40,0.41,-0.41,-0.46,-0.33,4.44,4.44,4.45
68.69,4.83,4.83,0.42,0.42,-0.42,-0.48,-0.35,4.40,4.40,4.40
69.37,4.81,4.80,0.45,0.44,-0.44,-0.49,-0.37,4.36,4.36,4.36
70.07,4.78,4.78,0.46,0.46,-0.46,-0.51,-0.40,4.31,4.32,4.32
70.77,4.76,4.75,0.49,0.48,-0.48,-0.53,-0.42,4.28,4.27,4.27
71.48,4.73,4.73,0.50,0.50,-0.50,-0.55,-0.44,4.23,4.23,4.22
72.19,4.70,4.70,0.52,0.52,-0.52,-0.56,-0.47,4.18,4.18,4.18
72.91,4.67,4.67,0.54,0.54,-0.54,-0.59,-0.49,4.13,4.13,4.13
73.64,4.64,4.64,0.56,0.56,-0.56,-0.61,-0.52,4.08,4.08,4.08
74.38,4.61,4.61,0.58,0.58,-0.58,-0.63,-0.55,4.03,4.03,4.03
75.12,4.58,4.58,0.60,0.60,-0.60,-0.65,-0.57,3.98,3.98,3.98
75.87,4.55,4.55,0.62,0.62,-0.62,-0.68,-0.60,3.92,3.92,3.93
76.63,4.52,4.52,0.64,0.65,-0.65,-0.70,-0.63,3.87,3.87,3.87
77.40,4.50,4.49,0.68,0.68,-0.68,-0.73,-0.66,3.82,3.82,3.82
78.17,4.47,4.47,0.70,0.71,-0.71,-0.76,-0.69,3.76,3.76,3.76
78.95,4.45,4.44,0.74,0.74,-0.74,-0.79,-0.72,3.71,3.71,3.71
79.74,4.42,4.42,0.77,0.77,-0.77,-0.81,-0.76,3.65,3.65,3.65
80.54,4.39,4.39,0.80,0.80,-0.80,-0.84,-0.79,3.59,3.59,3.59
81.35,4.37,4.36,0.83,0.83,-0.83,-0.87,-0.82,3.54,3.53,3.53
82.16,4.34,4.34,0.86,0.86,-0.86,-0.90,-0.86,3.47,3.47,3.47
82.98,4.31,4.31,0.90,0.90,-0.90,-0.93,-0.90,3.41,3.41,3.41
83.81,4.28,4.28,0.93,0.93,-0.93,-0.96,-0.93,3.35,3.35,3.35
84.65,4.25,4.25,0.96,0.96,-0.96,-0.99,-0.97,3.29,3.29,3.29
85.50,4.22,4.22,0.99,0.99,-0.99,-1.02,-1.01,3.22,3.22,3.22
86.35,4.19,4.18,1.03,1.03,-1.03,-1.05,-1.05,3.16,3.16,3.16
87.22,4.15,4.15,1.05,1.06,-1.06,-1.08,-1.09,3.09,3.09,3.09
88.09,4.12,4.12,1.09,1.09,-1.09,-1.11,-1.13,3.03,3.03,3.03
88.97,4.09,4.08,1.13,1.12,-1.12,-1.14,-1.17,2.96,2.96,2.96
89.86,4.05,4.05,1.15,1.16,-1.16,-1.17,-1.21,2.89,2.89,2.89
90.76,4.02,4.01,1.19,1.19,-1.19,-1.20,-1.26,2.83,2.82,2.83
91.66,3.98,3.98,1.22,1.22,-1.23,-1.23,-1.30,2.75,2.76,2.76
92.58,3.95,3.95,1.26,1.26,-1.26,-1.26,-1.34,2.69,2.69,2.69
93.51,3.92,3.91,1.30,1.29,-1.29,-1.29,-1.39,2.62,2.62,2.62
94.44,3.88,3.88,1.33,1.33,-1.33,-1.32,-1.44,2.55,2.55,2.55
95.39,3.84,3.84,1.36,1.36,-1.36,-1.35,-1.48,2.47,2.48,2.48
96.34,3.81,3.80,1.40,1.40,-1.40,-1.38,-1.53,2.41,2.41,2.41
97.30,3.77,3.77,1.43,1.43,-1.43,-1.41,-1.58,2.34,2.33,2.33
98.28,3.73,3.73,1.47,1.47,-1.46,-1.44,-1.63,2.26,2.26,2.26
99.26,3.69,3.69,1.50,1.50,-1.50,-1.47,-1.68,2.19,2.19,2.19
100.25,3.65,3.65,1.53,1.53,-1.53,-1.49,-1.73,2.12,2.12,2.12
101.25,3.61,3.61,1.56,1.56,-1.56,-1.52,-1.78,2.04,2.04,2.04
102.27,3.57,3.57,1.60,1.60,-1.60,-1.55,-1.83,1.97,1.97,1.97
103.29,3.53,3.53,1.63,1.63,-1.63,-1.58,-1.88,1.90,1.90,1.90
104.32,3.49,3.49,1.66,1.66,-1.66,-1.61,-1.93,1.82,1.82,1.83
105.37,3.45,3.45,1.69,1.70,-1.70,-1.64,-1.98,1.75,1.75,1.75
106.42,3.42,3.41,1.74,1.73,-1.73,-1.67,-2.03,1.68,1.68,1.68
107.48,3.38,3.38,1.77,1.77,-1.77,-1.69,-2.08,1.61,1.61,1.61
108.56,3.34,3.34,1.80,1.80,-1.80,-1.72,-2.13,1.53,1.53,1.53
109.64,3.30,3.30,1.84,1.84,-1.84,-1.75,-2.18,1.46,1.46,1.46
110.74,3.26,3.26,1.87,1.87,-1.87,-1.78,-2.22,1.38,1.39,1.39
111.85,3.23,3.22,1.91,1.91,-1.91,-1.80,-2.27,1.32,1.31,1.32
112.97,3.19,3.19,1.94,1.94,-1.95,-1.83,-2.31,1.24,1.24,1.24
114.10,3.16,3.16,1.98,1.98,-1.98,-1.86,-2.35,1.17,1.17,1.17
115.24,3.12,3.12,2.02,2.02,-2.02,-1.89,-2.39,1.10,1.10,1.10
116.39,3.09,3.09,2.06,2.05,-2.06,-1.91,-2.43,1.03,1.03,1.03
117.55,3.05,3.05,2.09,2.09,-2.09,-1.94,-2.46,0.96,0.96,0.96
118.73,3.02,3.02,2.13,2.13,-2.12,-1.97,-2.50,0.90,0.89,0.89
119.92,2.98,2.98,2.16,2.16,-2.15,-1.99,-2.52,0.83,0.82,0.82
121.12,2.94,2.94,2.19,2.18,-2.18,-2.02,-2.55,0.76,0.76,0.75
122.33,2.89,2.89,2.20,2.21,-2.20,-2.05,-2.57,0.68,0.68,0.68
123.55,2.85,2.84,2.23,2.23,-2.23,-2.07,-2.60,0.62,0.62,0.62
124.79,2.80,2.80,2.25,2.25,-2.25,-2.10,-2.61,0.55,0.55,0.55
126.03,2.76,2.76,2.27,2.27,-2.27,-2.12,-2.63,0.48,0.48,0.48
127.29,2.72,2.71,2.30,2.30,-2.30,-2.15,-2.64,0.42,0.42,0.42
128.57,2.67,2.67,2.31,2.32,-2.32,-2.17,-2.65,0.35,0.35,0.35
129.85,2.64,2.63,2.35,2.34,-2.35,-2.20,-2.66,0.29,0.29,0.29
131.15,2.60,2.60,2.37,2.37,-2.37,-2.22,-2.66,0.22,0.23,0.23
132.46,2.57,2.57,2.40,2.40,-2.40,-2.24,-2.66,0.16,0.16,0.16
133.79,2.54,2.54,2.43,2.43,-2.44,-2.27,-2.66,0.10,0.10,0.10
135.12,2.51,2.51,2.46,2.47,-2.47,-2.29,-2.66,0.04,0.04,0.04
136.48,2.49,2.49,2.50,2.50,-2.51,-2.32,-2.65,-0.02,-0.02,-0.02
137.84,2.47,2.47,2.54,2.55,-2.55,-2.34,-2.64,-0.08,-0.08,-0.08
139.22,2.46,2.45,2.59,2.59,-2.58,-2.36,-2.64,-0.13,-0.13,-0.13
140.61,2.44,2.44,2.63,2.63,-2.62,-2.38,-2.62,-0.19,-0.19,-0.19
142.02,2.42,2.42,2.66,2.66,-2.66,-2.41,-2.61,-0.24,-0.24,-0.25
143.44,2.40,2.40,2.70,2.70,-2.70,-2.43,-2.60,-0.30,-0.30,-0.30
144.87,2.38,2.38,2.73,2.73,-2.73,-2.45,-2.59,-0.35,-0.35,-0.35
146.32,2.36,2.36,2.76,2.76,-2.76,-2.47,-2.58,-0.41,-0.41,-0.41
147.78,2.34,2.33,2.80,2.79,-2.79,-2.49,-2.56,-0.46,-0.46,-0.46
149.26,2.31,2.31,2.82,2.82,-2.82,-2.51,-2.55,-0.51,-0.51,-0.51
150.75,2.29,2.28,2.85,2.84,-2.84,-2.53,-2.54,-0.56,-0.56,-0.56
152.26,2.26,2.26,2.86,2.87,-2.87,-2.55,-2.53,-0.61,-0.61,-0.61
153.78,2.24,2.24,2.89,2.89,-2.89,-2.57,-2.52,-0.65,-0.65,-0.65
155.32,2.21,2.21,2.91,2.91,-2.90,-2.59,-2.51,-0.70,-0.70,-0.70
156.88,2.18,2.18,2.92,2.92,-2.92,-2.61,-2.50,-0.74,-0.74,-0.75
158.44,2.14,2.14,2.93,2.93,-2.93,-2.62,-2.49,-0.80,-0.79,-0.79
160.03,2.11,2.10,2.94,2.94,-2.94,-2.64,-2.48,-0.84,-0.84,-0.83
161.63,2.07,2.07,2.95,2.95,-2.95,-2.66,-2.48,-0.89,-0.88,-0.89
163.24,2.04,2.04,2.96,2.96,-2.96,-2.68,-2.47,-0.93,-0.93,-0.93
164.88,2.01,2.00,2.97,2.97,-2.97,-2.69,-2.47,-0.96,-0.97,-0.97
166.53,1.97,1.97,2.97,2.98,-2.98,-2.71,-2.47,-1.01,-1.01,-1.01
168.19,1.94,1.94,2.98,2.98,-2.99,-2.72,-2.47,-1.05,-1.05,-1.05
169.87,1.91,1.91,2.99,2.99,-2.99,-2.74,-2.47,-1.09,-1.08,-1.08
171.57,1.89,1.88,3.01,3.00,-3.00,-2.75,-2.48,-1.11,-1.12,-1.12
173.29,1.86,1.86,3.01,3.01,-3.01,-2.77,-2.48,-1.15,-1.15,-1.15
175.02,1.83,1.83,3.02,3.02,-3.02,-2.78,-2.49,-1.19,-1.19,-1.19
176.77,1.80,1.80,3.02,3.02,-3.02,-2.79,-2.50,-1.23,-1.22,-1.22
178.54,1.78,1.77,3.03,3.03,-3.03,-2.81,-2.52,-1.25,-1.26,-1.26
180.32,1.75,1.75,3.03,3.04,-3.04,-2.82,-2.53,-1.29,-1.29,-1.29
182.13,1.73,1.73,3.05,3.05,-3.04,-2.83,-2.55,-1.32,-1.32,-1.32
183.95,1.71,1.70,3.06,3.05,-3.05,-2.84,-2.57,-1.34,-1.35,-1.35
185.79,1.68,1.68,3.05,3.06,-3.06,-2.85,-2.59,-1.38,-1.38,-1.38
187.65,1.66,1.66,3.06,3.06,-3.06,-2.86,-2.61,-1.41,-1.41,-1.41
189.52,1.64,1.64,3.07,3.07,-3.07,-2.87,-2.63,-1.43,-1.43,-1.43
191.42,1.62,1.61,3.08,3.07,-3.07,-2.88,-2.66,-1.46,-1.46,-1.46
193.33,1.59,1.59,3.07,3.08,-3.08,-2.89,-2.69,-1.49,-1.49,-1.49
195.27,1.57,1.57,3.08,3.08,-3.08,-2.90,-2.71,-1.51,-1.51,-1.51
197.22,1.55,1.54,3.08,3.08,-3.08,-2.90,-2.75,-1.53,-1.53,-1.54
199.19,1.52,1.52,3.08,3.08,-3.08,-2.91,-2.78,-1.56,-1.56,-1.56
201.18,1.50,1.49,3.08,3.08,-3.07,-2.92,-2.81,-1.58,-1.58,-1.58
203.19,1.47,1.47,3.07,3.07,-3.07,-2.92,-2.84,-1.60,-1.60,-1.60
205.23,1.44,1.44,3.06,3.06,-3.06,-2.93,-2.88,-1.63,-1.63,-1.63
207.28,1.41,1.41,3.05,3.05,-3.06,-2.93,-2.91,-1.65,-1.65,-1.65
209.35,1.38,1.38,3.04,3.05,-3.05,-2.94,-2.95,-1.67,-1.67,-1.67
211.44,1.36,1.35,3.04,3.04,-3.04,-2.94,-2.98,-1.68,-1.69,-1.69
213.56,1.33,1.33,3.03,3.03,-3.03,-2.94,-3.02,-1.70,-1.70,-1.70
215.69,1.30,1.30,3.02,3.02,-3.02,-2.95,-3.05,-1.72,-1.72,-1.72
217.85,1.27,1.27,3.01,3.01,-3.01,-2.95,-3.09,-1.74,-1.74,-1.74
220.03,1.24,1.24,2.99,2.99,-2.99,-2.95,-3.12,-1.76,-1.76,-1.76
222.23,1.21,1.21,2.98,2.98,-2.98,-2.95,-3.15,-1.77,-1.78,-1.77
224.45,1.18,1.18,2.97,2.97,-2.97,-2.95,-3.18,-1.79,-1.79,-1.79
226.70,1.15,1.15,2.95,2.96,-2.96,-2.95,-3.21,-1.81,-1.81,-1.81
228.96,1.13,1.12,2.95,2.94,-2.95,-2.95,-3.24,-1.82,-1.82,-1.82
231.25,1.10,1.10,2.93,2.93,-2.93,-2.95,-3.26,-1.84,-1.84,-1.83
233.57,1.07,1.07,2.92,2.92,-2.92,-2.95,-3.28,-1.86,-1.85,-1.85
235.90,1.05,1.04,2.92,2.91,-2.91,-2.95,-3.30,-1.86,-1.87,-1.87
238.26,1.02,1.02,2.90,2.90,-2.90,-2.94,-3.32,-1.88,-1.88,-1.89
240.64,0.99,0.99,2.88,2.89,-2.89,-2.94,-3.33,-1.90,-1.90,-1.90
243.05,0.97,0.96,2.88,2.87,-2.87,-2.94,-3.34,-1.91,-1.91,-1.91
245.48,0.94,0.94,2.86,2.86,-2.86,-2.93,-3.34,-1.92,-1.92,-1.92
247.93,0.92,0.91,2.85,2.85,-2.85,-2.93,-3.34,-1.93,-1.93,-1.93
250.41,0.89,0.89,2.83,2.83,-2.83,-2.92,-3.34,-1.95,-1.94,-1.94
252.92,0.87,0.86,2.82,2.82,-2.82,-2.92,-3.33,-1.95,-1.95,-1.95
255.45,0.84,0.84,2.80,2.80,-2.80,-2.91,-3.32,-1.97,-1.97,-1.96
258.00,0.82,0.81,2.79,2.79,-2.79,-2.90,-3.30,-1.97,-1.97,-1.97
260.58,0.79,0.79,2.77,2.77,-2.77,-2.90,-3.29,-1.99,-1.98,-1.98
263.19,0.77,0.77,2.76,2.76,-2.76,-2.89,-3.26,-1.99,-1.99,-1.99
265.82,0.75,0.74,2.75,2.74,-2.75,-2.88,-3.24,-2.00,-2.00,-2.00
268.48,0.72,0.72,2.73,2.73,-2.73,-2.87,-3.21,-2.02,-2.01,-2.01
271.16,0.70,0.70,2.72,2.72,-2.72,-2.86,-3.18,-2.02,-2.02,-2.02
273.87,0.68,0.68,2.70,2.70,-2.70,-2.85,-3.14,-2.03,-2.03,-2.03
276.61,0.66,0.66,2.69,2.69,-2.69,-2.84,-3.11,-2.03,-2.03,-2.03
279.38,0.64,0.63,2.68,2.68,-2.67,-2.83,-3.07,-2.04,-2.04,-2.04
282.17,0.61,0.61,2.66,2.66,-2.66,-2.82,-3.03,-2.05,-2.05,-2.05
284.99,0.59,0.59,2.63,2.64,-2.64,-2.81,-2.98,-2.05,-2.05,-2.05
287.84,0.58,0.57,2.62,2.62,-2.62,-2.80,-2.94,-2.05,-2.05,-2.04
290.72,0.56,0.56,2.61,2.61,-2.60,-2.79,-2.90,-2.05,-2.05,-2.05
293.63,0.54,0.54,2.59,2.59,-2.58,-2.77,-2.85,-2.05,-2.05,-2.06
296.57,0.52,0.52,2.57,2.57,-2.57,-2.76,-2.81,-2.05,-2.05,-2.05
299.53,0.50,0.50,2.54,2.55,-2.55,-2.75,-2.76,-2.05,-2.05,-2.05
302.53,0.48,0.48,2.53,2.53,-2.53,-2.73,-2.71,-2.05,-2.05,-2.05
305.55,0.46,0.46,2.50,2.51,-2.51,-2.72,-2.67,-2.05,-2.05,-2.05
308.61,0.44,0.44,2.49,2.49,-2.49,-2.71,-2.62,-2.06,-2.05,-2.05
311.69,0.43,0.42,2.47,2.47,-2.47,-2.69,-2.58,-2.05,-2.05,-2.05
314.81,0.41,0.41,2.46,2.46,-2.46,-2.68,-2.53,-2.05,-2.05,-2.05
317.96,0.39,0.39,2.43,2.44,-2.44,-2.66,-2.49,-2.05,-2.05,-2.05
321.14,0.38,0.37,2.43,2.42,-2.42,-2.64,-2.45,-2.04,-2.05,-2.05
324.35,0.36,0.36,2.40,2.40,-2.40,-2.63,-2.41,-2.05,-2.05,-2.05
327.59,0.34,0.34,2.38,2.38,-2.39,-2.61,-2.37,-2.05,-2.05,-2.04
330.87,0.33,0.32,2.37,2.37,-2.37,-2.59,-2.33,-2.04,-2.04,-2.04
334.18,0.31,0.31,2.34,2.35,-2.35,-2.58,-2.29,-2.04,-2.04,-2.04
337.52,0.30,0.30,2.34,2.33,-2.33,-2.56,-2.26,-2.03,-2.04,-2.04
340.90,0.28,0.28,2.31,2.31,-2.31,-2.54,-2.22,-2.03,-2.03,-2.03
344.30,0.27,0.26,2.30,2.30,-2.29,-2.52,-2.19,-2.03,-2.03,-2.03
347.75,0.25,0.25,2.27,2.27,-2.27,-2.50,-2.16,-2.03,-2.02,-2.02
351.23,0.24,0.23,2.26,2.25,-2.25,-2.49,-2.13,-2.02,-2.02,-2.02
354.74,0.22,0.22,2.22,2.23,-2.24,-2.47,-2.10,-2.02,-2.01,-2.01
358.28,0.21,0.21,2.22,2.21,-2.22,-2.45,-2.08,-2.01,-2.01,-2.01
361.87,0.20,0.19,2.20,2.20,-2.20,-2.43,-2.06,-2.00,-2.00,-2.00
365.49,0.18,0.18,2.17,2.18,-2.18,-2.41,-2.03,-2.00,-2.00,-2.00
369.14,0.17,0.17,2.17,2.16,-2.16,-2.39,-2.01,-1.99,-1.99,-2.00
372.83,0.16,0.16,2.14,2.14,-2.14,-2.37,-1.99,-1.99,-1.99,-1.98
376.56,0.15,0.14,2.13,2.13,-2.13,-2.35,-1.98,-1.98,-1.98,-1.98
380.33,0.13,0.13,2.10,2.11,-2.11,-2.33,-1.96,-1.98,-1.98,-1.98
384.13,0.12,0.12,2.10,2.09,-2.09,-2.31,-1.94,-1.97,-1.97,-1.98
387.97,0.11,0.11,2.08,2.07,-2.07,-2.29,-1.93,-1.97,-1.97,-1.97
391.85,0.10,0.10,2.05,2.06,-2.06,-2.27,-1.92,-1.96,-1.96,-1.95
395.77,0.09,0.09,2.04,2.04,-2.04,-2.25,-1.91,-1.95,-1.95,-1.96
399.73,0.08,0.08,2.02,2.02,-2.03,-2.22,-1.90,-1.95,-1.95,-1.95
403.72,0.07,0.07,2.01,2.01,-2.01,-2.20,-1.89,-1.94,-1.94,-1.94
407.76,0.06,0.06,2.00,1.99,-2.00,-2.18,-1.88,-1.94,-1.94,-1.94
411.84,0.05,0.05,1.98,1.98,-1.98,-2.16,-1.88,-1.94,-1.93,-1.93
415.96,0.05,0.04,1.97,1.97,-1.97,-2.14,-1.87,-1.92,-1.93,-1.92
420.12,0.04,0.04,1.96,1.96,-1.96,-2.12,-1.87,-1.92,-1.92,-1.93
424.32,0.03,0.03,1.94,1.94,-1.95,-2.10,-1.86,-1.92,-1.92,-1.92
428.56,0.02,0.02,1.93,1.93,-1.93,-2.07,-1.86,-1.92,-1.91,-1.91
432.85,0.02,0.01,1.92,1.92,-1.92,-2.05,-1.85,-1.90,-1.91,-1.90
437.18,0.01,0.01,1.91,1.91,-1.91,-2.03,-1.85,-1.90,-1.90,-1.90
441.55,0.01,0.00,1.90,1.90,-1.89,-2.01,-1.85,-1.89,-1.89,-1.89
445.96,-0.00,-0.00,1.88,1.88,-1.88,-1.99,-1.85,-1.88,-1.88,-1.88
450.42,-0.00,-0.01,1.86,1.86,-1.87,-1.96,-1.84,-1.87,-1.87,-1.87
454.93,-0.01,-0.01,1.84,1.85,-1.85,-1.94,-1.84,-1.87,-1.86,-1.86
459.48,-0.01,-0.02,1.84,1.84,-1.84,-1.92,-1.83,-1.85,-1.85,-1.85
464.07,-0.02,-0.02,1.83,1.82,-1.83,-1.90,-1.83,-1.85,-1.85,-1.85
468.71,-0.02,-0.03,1.82,1.81,-1.81,-1.87,-1.82,-1.84,-1.84,-1.84
473.40,-0.03,-0.03,1.80,1.80,-1.80,-1.85,-1.82,-1.83,-1.83,-1.83
478.13,-0.03,-0.04,1.79,1.79,-1.79,-1.83,-1.81,-1.82,-1.82,-1.82
482.91,-0.04,-0.04,1.77,1.77,-1.77,-1.81,-1.80,-1.82,-1.81,-1.81
487.74,-0.04,-0.05,1.76,1.76,-1.76,-1.79,-1.79,-1.80,-1.80,-1.80
492.62,-0.05,-0.05,1.74,1.74,-1.74,-1.76,-1.78,-1.79,-1.79,-1.80
497.55,-0.06,-0.06,1.72,1.72,-1.72,-1.74,-1.77,-1.79,-1.78,-1.79
502.52,-0.07,-0.07,1.70,1.70,-1.70,-1.72,-1.76,-1.78,-1.77,-1.78
507.55,-0.07,-0.08,1.68,1.68,-1.69,-1.70,-1.75,-1.76,-1.76,-1.76
512.62,-0.08,-0.08,1.67,1.67,-1.67,-1.67,-1.73,-1.75,-1.75,-1.75
