frequency,raw,smoothed,error,error_smoothed,equalization,parametric_eq,fixed_band_eq,equalized_raw,equalized_smoothed,target
20.00,-9.79,-9.79,-8.85,-8.84,6.00,6.49,2.52,-3.79,-3.79,-0.94
20.20,-9.74,-9.75,-8.83,-8.84,6.00,6.47,2.59,-3.74,-3.75,-0.91
20.40,-9.70,-9.71,-8.82,-8.82,6.00,6.45,2.67,-3.70,-3.71,-0.89
20.61,-9.65,-9.66,-8.79,-8.80,6.00,6.42,2.75,-3.65,-3.66,-0.87
20.81,-9.60,-9.61,-8.77,-8.77,6.00,6.40,2.82,-3.60,-3.61,-0.84
21.02,-9.55,-9.54,-8.75,-8.73,6.00,6.38,2.91,-3.55,-3.54,-0.81
21.23,-9.45,-9.46,-8.66,-8.66,6.00,6.35,2.99,-3.45,-3.46,-0.80
21.44,-9.36,-9.36,-8.57,-8.58,6.00,6.33,3.08,-3.36,-3.36,-0.79
21.66,-9.27,-9.26,-8.49,-8.48,6.00,6.30,3.17,-3.27,-3.26,-0.78
21.87,-9.17,-9.17,-8.39,-8.40,6.00,6.28,3.26,-3.17,-3.17,-0.78
22.09,-9.08,-9.09,-8.31,-8.32,6.00,6.25,3.35,-3.08,-3.09,-0.77
22.31,-9.02,-9.02,-8.25,-8.25,6.00,6.23,3.45,-3.02,-3.02,-0.77
22.54,-8.96,-8.96,-8.19,-8.19,6.00,6.20,3.55,-2.96,-2.96,-0.77
22.76,-8.90,-8.90,-8.13,-8.13,6.00,6.17,3.65,-2.90,-2.90,-0.77
22.99,-8.83,-8.83,-8.05,-8.05,6.00,6.15,3.75,-2.83,-2.83,-0.78
23.22,-8.74,-8.74,-7.96,-7.96,6.00,6.12,3.86,-2.74,-2.74,-0.78
23.45,-8.64,-8.65,-7.86,-7.86,6.00,6.09,3.97,-2.64,-2.65,-0.78
23.69,-8.56,-8.55,-7.77,-7.76,6.00,6.06,4.08,-2.56,-2.55,-0.78
23.92,-8.45,-8.46,-7.67,-7.68,6.00,6.03,4.19,-2.45,-2.46,-0.79
24.16,-8.38,-8.39,-7.61,-7.61,6.00,6.01,4.31,-2.38,-2.39,-0.78
24.40,-8.33,-8.33,-7.56,-7.55,6.00,5.98,4.43,-2.33,-2.33,-0.78
24.65,-8.28,-8.28,-7.50,-7.50,6.00,5.95,4.55,-2.28,-2.28,-0.79
24.89,-8.22,-8.22,-7.43,-7.43,6.00,5.92,4.67,-2.22,-2.22,-0.79
25.14,-8.13,-8.13,-7.34,-7.34,6.00,5.89,4.79,-2.13,-2.13,-0.79
25.39,-8.02,-8.02,-7.23,-7.23,6.00,5.86,4.91,-2.02,-2.02,-0.79
25.65,-7.90,-7.90,-7.11,-7.11,6.00,5.83,5.03,-1.90,-1.90,-0.79
25.91,-7.79,-7.80,-6.98,-7.00,6.00,5.79,5.16,-1.79,-1.80,-0.80
26.16,-7.70,-7.71,-6.90,-6.91,6.00,5.76,5.28,-1.70,-1.71,-0.80
26.43,-7.64,-7.64,-6.84,-6.83,6.00,5.73,5.40,-1.64,-1.64,-0.81
26.69,-7.58,-7.58,-6.78,-6.78,6.00,5.70,5.52,-1.58,-1.58,-0.81
26.96,-7.52,-7.52,-6.72,-6.72,6.00,5.67,5.64,-1.52,-1.52,-0.81
27.23,-7.46,-7.46,-6.66,-6.65,6.00,5.63,5.76,-1.46,-1.46,-0.81
27.50,-7.39,-7.40,-6.58,-6.58,6.00,5.60,5.88,-1.39,-1.40,-0.81
27.77,-7.33,-7.33,-6.51,-6.52,6.00,5.56,5.98,-1.33,-1.33,-0.82
28.05,-7.27,-7.27,-6.45,-6.45,6.00,5.53,6.09,-1.27,-1.27,-0.82
28.33,-7.21,-7.21,-6.38,-6.38,6.01,5.50,6.19,-1.20,-1.20,-0.83
28.62,-7.14,-7.15,-6.31,-6.31,6.01,5.46,6.29,-1.13,-1.13,-0.84
28.90,-7.08,-7.08,-6.25,-6.24,6.01,5.43,6.37,-1.07,-1.07,-0.84
29.19,-7.02,-7.02,-6.17,-6.18,6.01,5.39,6.45,-1.02,-1.01,-0.85
29.48,-6.95,-6.95,-6.11,-6.11,5.99,5.35,6.52,-0.96,-0.96,-0.84
29.78,-6.88,-6.89,-6.03,-6.03,5.96,5.32,6.59,-0.92,-0.92,-0.85
30.08,-6.81,-6.81,-5.96,-5.96,5.92,5.28,6.63,-0.89,-0.89,-0.85
30.38,-6.74,-6.74,-5.88,-5.88,5.87,5.24,6.68,-0.87,-0.87,-0.87
30.68,-6.67,-6.67,-5.81,-5.80,5.81,5.21,6.71,-0.86,-0.86,-0.87
30.99,-6.60,-6.60,-5.72,-5.73,5.74,5.17,6.73,-0.86,-0.86,-0.88
31.30,-6.53,-6.54,-5.65,-5.65,5.66,5.13,6.74,-0.87,-0.87,-0.88
31.61,-6.46,-6.46,-5.58,-5.57,5.58,5.09,6.74,-0.88,-0.88,-0.89
31.93,-6.39,-6.39,-5.50,-5.49,5.49,5.06,6.72,-0.90,-0.90,-0.90
32.24,-6.31,-6.32,-5.40,-5.41,5.41,5.02,6.70,-0.90,-0.91,-0.91
32.57,-6.24,-6.24,-5.33,-5.33,5.33,4.98,6.66,-0.92,-0.91,-0.91
32.89,-6.16,-6.17,-5.25,-5.25,5.25,4.94,6.62,-0.92,-0.92,-0.91
33.22,-6.09,-6.09,-5.17,-5.17,5.16,4.90,6.56,-0.93,-0.93,-0.93
33.55,-6.02,-6.02,-5.09,-5.09,5.08,4.86,6.50,-0.94,-0.93,-0.93
33.89,-5.94,-5.95,-5.00,-5.01,5.01,4.82,6.43,-0.93,-0.94,-0.94
34.23,-5.88,-5.88,-4.94,-4.93,4.94,4.78,6.35,-0.94,-0.94,-0.95
34.57,-5.82,-5.82,-4.86,-4.86,4.88,4.74,6.27,-0.94,-0.94,-0.96
34.92,-5.76,-5.77,-4.79,-4.80,4.82,4.70,6.18,-0.94,-0.95,-0.97
35.27,-5.73,-5.74,-4.76,-4.76,4.76,4.65,6.08,-0.98,-0.98,-0.98
35.62,-5.71,-5.71,-4.72,-4.72,4.70,4.61,5.98,-1.01,-1.01,-0.99
35.97,-5.69,-5.67,-4.69,-4.68,4.64,4.57,5.87,-1.05,-1.03,-1.00
36.33,-5.61,-5.61,-4.61,-4.60,4.59,4.53,5.77,-1.02,-1.02,-1.01
36.70,-5.53,-5.54,-4.51,-4.52,4.54,4.49,5.66,-1.00,-1.00,-1.02
37.06,-5.46,-5.48,-4.43,-4.45,4.48,4.45,5.55,-0.98,-1.00,-1.03
37.43,-5.44,-5.44,-4.40,-4.40,4.42,4.40,5.44,-1.02,-1.03,-1.04
37.81,-5.42,-5.41,-4.37,-4.36,4.35,4.36,5.33,-1.08,-1.07,-1.05
38.19,-5.38,-5.38,-4.32,-4.31,4.28,4.32,5.22,-1.11,-1.10,-1.07
38.57,-5.31,-5.32,-4.24,-4.24,4.20,4.28,5.11,-1.11,-1.11,-1.07
38.95,-5.24,-5.24,-4.16,-4.15,4.14,4.23,5.00,-1.10,-1.10,-1.09
39.34,-5.15,-5.15,-4.05,-4.05,4.07,4.19,4.89,-1.08,-1.08,-1.10
39.74,-5.06,-5.07,-3.95,-3.96,4.00,4.15,4.78,-1.07,-1.07,-1.12
40.14,-5.00,-5.03,-3.88,-3.90,3.93,4.11,4.68,-1.08,-1.10,-1.12
40.54,-5.00,-5.00,-3.87,-3.87,3.86,4.06,4.57,-1.14,-1.14,-1.14
40.94,-5.00,-4.97,-3.86,-3.82,3.80,4.02,4.47,-1.20,-1.17,-1.14
41.35,-4.92,-4.92,-3.76,-3.76,3.75,3.98,4.38,-1.18,-1.17,-1.16
41.76,-4.83,-4.85,-3.67,-3.68,3.69,3.93,4.28,-1.14,-1.16,-1.17
42.18,-4.78,-4.81,-3.61,-3.63,3.63,3.89,4.19,-1.15,-1.17,-1.17
42.60,-4.78,-4.78,-3.59,-3.59,3.57,3.85,4.10,-1.21,-1.20,-1.19
43.03,-4.77,-4.74,-3.58,-3.54,3.51,3.80,4.01,-1.26,-1.22,-1.20
43.46,-4.67,-4.67,-3.46,-3.46,3.45,3.76,3.93,-1.22,-1.22,-1.21
43.90,-4.57,-4.61,-3.33,-3.37,3.39,3.72,3.85,-1.18,-1.21,-1.24
44.33,-4.55,-4.56,-3.29,-3.30,3.33,3.68,3.77,-1.22,-1.22,-1.26
44.78,-4.55,-4.54,-3.28,-3.26,3.28,3.63,3.69,-1.28,-1.27,-1.28
45.23,-4.53,-4.53,-3.24,-3.24,3.22,3.59,3.62,-1.32,-1.32,-1.30
45.68,-4.50,-4.50,-3.19,-3.19,3.16,3.55,3.55,-1.34,-1.34,-1.31
46.13,-4.46,-4.45,-3.13,-3.12,3.11,3.51,3.48,-1.35,-1.33,-1.33
46.60,-4.38,-4.39,-3.04,-3.04,3.06,3.47,3.42,-1.32,-1.33,-1.34
47.06,-4.32,-4.35,-2.96,-2.99,3.00,3.42,3.36,-1.32,-1.35,-1.36
47.53,-4.32,-4.32,-2.94,-2.95,2.93,3.38,3.30,-1.39,-1.39,-1.38
48.01,-4.32,-4.30,-2.93,-2.90,2.86,3.34,3.24,-1.47,-1.44,-1.39
48.49,-4.26,-4.26,-2.84,-2.84,2.79,3.30,3.19,-1.48,-1.48,-1.42
48.97,-4.19,-4.20,-2.74,-2.74,2.73,3.26,3.14,-1.46,-1.47,-1.45
49.46,-4.14,-4.14,-2.66,-2.65,2.69,3.22,3.09,-1.45,-1.45,-1.49
49.96,-4.09,-4.10,-2.58,-2.59,2.67,3.18,3.04,-1.43,-1.44,-1.52
50.46,-4.11,-4.11,-2.58,-2.57,2.65,3.14,3.00,-1.46,-1.46,-1.53
50.96,-4.14,-4.18,-2.59,-2.63,2.65,3.10,2.95,-1.50,-1.54,-1.55
51.47,-4.27,-4.28,-2.69,-2.70,2.67,3.06,2.91,-1.61,-1.61,-1.59
51.99,-4.42,-4.34,-2.81,-2.74,2.70,3.02,2.87,-1.72,-1.64,-1.61
52.51,-4.37,-4.38,-2.75,-2.75,2.74,2.98,2.83,-1.63,-1.63,-1.62
53.03,-4.33,-4.41,-2.69,-2.76,2.77,2.95,2.80,-1.56,-1.64,-1.65
53.56,-4.45,-4.45,-2.78,-2.78,2.77,2.91,2.76,-1.68,-1.67,-1.67
54.10,-4.55,-4.52,-2.86,-2.82,2.76,2.87,2.73,-1.79,-1.76,-1.70
54.64,-4.55,-4.55,-2.83,-2.82,2.73,2.84,2.69,-1.83,-1.82,-1.72
55.18,-4.51,-4.49,-2.76,-2.74,2.70,2.80,2.66,-1.82,-1.80,-1.75
55.74,-4.38,-4.40,-2.61,-2.63,2.67,2.77,2.63,-1.71,-1.73,-1.78
56.29,-4.32,-4.34,-2.53,-2.54,2.66,2.73,2.60,-1.67,-1.68,-1.79
56.86,-4.32,-4.35,-2.50,-2.53,2.64,2.70,2.56,-1.68,-1.71,-1.82
57.42,-4.42,-4.43,-2.57,-2.58,2.63,2.66,2.53,-1.80,-1.80,-1.85
58.00,-4.55,-4.51,-2.68,-2.63,2.61,2.63,2.50,-1.94,-1.89,-1.87
58.58,-4.55,-4.56,-2.66,-2.67,2.60,2.60,2.47,-1.96,-1.97,-1.89
59.16,-4.55,-4.58,-2.64,-2.66,2.58,2.57,2.44,-1.97,-1.99,-1.91
59.76,-4.55,-4.52,-2.62,-2.59,2.55,2.53,2.40,-2.00,-1.97,-1.93
60.35,-4.47,-4.46,-2.51,-2.50,2.50,2.50,2.37,-1.98,-1.96,-1.96
60.96,-4.33,-4.39,-2.35,-2.40,2.41,2.47,2.33,-1.93,-1.99,-1.99
61.57,-4.32,-4.32,-2.29,-2.29,2.29,2.44,2.30,-2.03,-2.03,-2.03
62.18,-4.28,-4.24,-2.22,-2.18,2.17,2.42,2.26,-2.12,-2.07,-2.06
62.80,-4.13,-4.13,-2.04,-2.04,2.04,2.39,2.22,-2.10,-2.10,-2.09
63.43,-3.99,-4.01,-1.87,-1.88,1.91,2.36,2.19,-2.09,-2.10,-2.12
64.07,-3.86,-3.90,-1.72,-1.75,1.78,2.34,2.15,-2.08,-2.11,-2.15
64.71,-3.83,-3.81,-1.66,-1.63,1.66,2.31,2.10,-2.17,-2.15,-2.18
65.35,-3.76,-3.74,-1.56,-1.54,1.54,2.29,2.06,-2.22,-2.21,-2.20
66.01,-3.64,-3.69,-1.41,-1.46,1.43,2.27,2.02,-2.22,-2.27,-2.23
66.67,-3.64,-3.61,-1.38,-1.35,1.33,2.25,1.98,-2.32,-2.28,-2.26
67.33,-3.56,-3.53,-1.27,-1.24,1.24,2.23,1.93,-2.32,-2.29,-2.29
68.01,-3.41,-3.47,-1.09,-1.15,1.16,2.21,1.89,-2.25,-2.30,-2.32
68.69,-3.41,-3.41,-1.06,-1.06,1.09,2.20,1.84,-2.32,-2.32,-2.35
69.37,-3.41,-3.40,-1.03,-1.02,1.02,2.19,1.79,-2.39,-2.38,-2.38
70.07,-3.41,-3.41,-1.00,-1.00,0.96,2.18,1.74,-2.45,-2.45,-2.42
70.77,-3.41,-3.41,-0.97,-0.97,0.92,2.17,1.70,-2.49,-2.49,-2.44
71.48,-3.41,-3.40,-0.94,-0.92,0.90,2.17,1.65,-2.51,-2.50,-2.47
72.19,-3.41,-3.41,-0.90,-0.90,0.91,2.17,1.60,-2.50,-2.50,-2.51
72.91,-3.41,-3.46,-0.87,-0.91,0.95,2.17,1.55,-2.47,-2.51,-2.55
73.64,-3.56,-3.54,-0.98,-0.96,1.02,2.18,1.50,-2.54,-2.52,-2.58
74.38,-3.70,-3.69,-1.09,-1.07,1.13,2.20,1.45,-2.58,-2.56,-2.61
75.12,-3.85,-3.89,-1.21,-1.24,1.27,2.22,1.40,-2.59,-2.62,-2.65
75.87,-4.13,-4.12,-1.45,-1.44,1.44,2.25,1.35,-2.69,-2.68,-2.68
76.63,-4.38,-4.37,-1.68,-1.66,1.64,2.29,1.30,-2.74,-2.73,-2.71
77.40,-4.64,-4.65,-1.90,-1.90,1.87,2.35,1.25,-2.78,-2.78,-2.74
78.17,-4.90,-4.90,-2.12,-2.13,2.10,2.41,1.20,-2.80,-2.80,-2.78
78.95,-5.17,-5.16,-2.36,-2.36,2.35,2.50,1.15,-2.82,-2.81,-2.80
79.74,-5.43,-5.43,-2.59,-2.60,2.60,2.59,1.11,-2.82,-2.83,-2.84
80.54,-5.73,-5.71,-2.86,-2.84,2.88,2.71,1.06,-2.85,-2.83,-2.87
81.35,-6.04,-6.07,-3.14,-3.17,3.17,2.84,1.01,-2.87,-2.90,-2.91
82.16,-6.40,-6.48,-3.46,-3.54,3.45,2.99,0.96,-2.95,-3.03,-2.94
82.98,-6.97,-6.88,-4.01,-3.91,3.69,3.14,0.92,-3.28,-3.19,-2.97
83.81,-7.21,-7.23,-4.20,-4.21,3.88,3.29,0.87,-3.34,-3.35,-3.02
84.65,-7.42,-7.42,-4.37,-4.37,4.00,3.44,0.82,-3.42,-3.42,-3.05
85.50,-7.45,-7.43,-4.37,-4.35,4.05,3.54,0.78,-3.41,-3.38,-3.08
86.35,-7.31,-7.30,-4.19,-4.18,4.02,3.61,0.73,-3.29,-3.28,-3.12
87.22,-7.09,-7.08,-3.93,-3.92,3.91,3.58,0.69,-3.19,-3.17,-3.16
88.09,-6.76,-6.84,-3.56,-3.64,3.72,3.51,0.64,-3.04,-3.11,-3.20
88.97,-6.61,-6.62,-3.38,-3.38,3.47,3.35,0.60,-3.14,-3.14,-3.23
89.86,-6.45,-6.41,-3.18,-3.13,3.18,3.16,0.55,-3.27,-3.23,-3.27
90.76,-6.19,-6.20,-2.87,-2.88,2.86,2.93,0.51,-3.33,-3.34,-3.33
91.66,-5.93,-5.93,-2.57,-2.57,2.56,2.69,0.47,-3.38,-3.38,-3.36
92.58,-5.67,-5.67,-2.26,-2.26,2.28,2.45,0.42,-3.39,-3.38,-3.41
93.51,-5.41,-5.44,-1.97,-2.00,2.03,2.21,0.38,-3.38,-3.41,-3.44
94.44,-5.25,-5.26,-1.76,-1.77,1.80,2.00,0.34,-3.45,-3.46,-3.49
95.39,-5.13,-5.11,-1.60,-1.57,1.60,1.79,0.30,-3.54,-3.51,-3.53
96.34,-4.97,-4.98,-1.39,-1.39,1.42,1.61,0.26,-3.55,-3.56,-3.59
97.30,-4.86,-4.87,-1.23,-1.24,1.27,1.44,0.22,-3.60,-3.60,-3.63
98.28,-4.78,-4.81,-1.11,-1.13,1.14,1.28,0.18,-3.64,-3.67,-3.68
99.26,-4.78,-4.78,-1.06,-1.06,1.03,1.14,0.14,-3.75,-3.75,-3.72
100.25,-4.77,-4.74,-1.00,-0.97,0.93,1.01,0.10,-3.84,-3.80,-3.77
101.25,-4.70,-4.68,-0.89,-0.86,0.84,0.88,0.06,-3.86,-3.84,-3.82
102.27,-4.55,-4.61,-0.69,-0.75,0.74,0.77,0.02,-3.81,-3.87,-3.86
103.29,-4.55,-4.56,-0.64,-0.65,0.64,0.66,-0.02,-3.91,-3.92,-3.92
104.32,-4.55,-4.52,-0.60,-0.56,0.55,0.55,-0.05,-4.01,-3.97,-3.95
105.37,-4.49,-4.47,-0.49,-0.47,0.45,0.45,-0.09,-4.04,-4.02,-4.00
106.42,-4.36,-4.40,-0.32,-0.35,0.37,0.36,-0.12,-4.00,-4.03,-4.05
107.48,-4.32,-4.34,-0.23,-0.24,0.29,0.26,-0.16,-4.04,-4.05,-4.09
108.56,-4.32,-4.31,-0.17,-0.17,0.22,0.17,-0.19,-4.11,-4.10,-4.15
109.64,-4.32,-4.32,-0.13,-0.13,0.14,0.08,-0.23,-4.18,-4.18,-4.20
110.74,-4.32,-4.33,-0.08,-0.08,0.06,-0.01,-0.26,-4.27,-4.27,-4.24
111.85,-4.32,-4.34,-0.04,-0.05,-0.03,-0.09,-0.29,-4.35,-4.36,-4.29
112.97,-4.32,-4.30,0.03,0.05,-0.11,-0.18,-0.32,-4.43,-4.41,-4.35
114.10,-4.27,-4.23,0.12,0.17,-0.19,-0.26,-0.35,-4.46,-4.42,-4.40
115.24,-4.09,-4.16,0.36,0.30,-0.27,-0.35,-0.37,-4.36,-4.43,-4.45
116.39,-4.09,-4.10,0.41,0.41,-0.35,-0.43,-0.40,-4.45,-4.45,-4.51
117.55,-4.09,-4.08,0.47,0.48,-0.44,-0.51,-0.42,-4.53,-4.51,-4.56
118.73,-4.09,-4.09,0.52,0.52,-0.51,-0.59,-0.45,-4.61,-4.61,-4.62
119.92,-4.09,-4.09,0.56,0.57,-0.58,-0.66,-0.47,-4.67,-4.67,-4.66
121.12,-4.09,-4.09,0.62,0.62,-0.63,-0.74,-0.49,-4.73,-4.73,-4.71
122.33,-4.09,-4.09,0.67,0.67,-0.68,-0.81,-0.51,-4.77,-4.77,-4.76
123.55,-4.09,-4.09,0.71,0.72,-0.72,-0.88,-0.52,-4.82,-4.82,-4.81
124.79,-4.09,-4.09,0.76,0.76,-0.77,-0.94,-0.54,-4.86,-4.86,-4.86
126.03,-4.09,-4.09,0.81,0.81,-0.82,-1.00,-0.55,-4.91,-4.91,-4.91
127.29,-4.09,-4.09,0.86,0.87,-0.87,-1.06,-0.56,-4.96,-4.96,-4.96
128.57,-4.09,-4.09,0.92,0.92,-0.92,-1.11,-0.57,-5.01,-5.01,-5.02
129.85,-4.09,-4.09,0.97,0.97,-0.97,-1.15,-0.58,-5.06,-5.06,-5.07
131.15,-4.09,-4.09,1.02,1.02,-1.01,-1.20,-0.59,-5.11,-5.11,-5.11
132.46,-4.09,-4.09,1.07,1.06,-1.06,-1.23,-0.59,-5.16,-5.16,-5.16
133.79,-4.09,-4.09,1.10,1.11,-1.12,-1.26,-0.60,-5.21,-5.21,-5.20
135.12,-4.09,-4.09,1.16,1.15,-1.17,-1.28,-0.60,-5.26,-5.26,-5.25
136.48,-4.09,-4.09,1.19,1.20,-1.21,-1.31,-0.60,-5.31,-5.31,-5.29
137.84,-4.09,-4.09,1.24,1.25,-1.25,-1.32,-0.60,-5.35,-5.35,-5.33
139.22,-4.09,-4.09,1.29,1.29,-1.28,-1.33,-0.60,-5.37,-5.37,-5.39
140.61,-4.09,-4.08,1.34,1.34,-1.29,-1.33,-0.60,-5.39,-5.37,-5.43
142.02,-4.09,-4.11,1.36,1.35,-1.31,-1.33,-0.60,-5.40,-5.41,-5.45
143.44,-4.11,-4.16,1.38,1.33,-1.32,-1.33,-0.59,-5.43,-5.48,-5.49
144.87,-4.28,-4.24,1.25,1.29,-1.33,-1.32,-0.59,-5.62,-5.57,-5.53
146.32,-4.31,-4.30,1.26,1.27,-1.34,-1.31,-0.59,-5.66,-5.64,-5.57
147.78,-4.32,-4.33,1.28,1.27,-1.34,-1.30,-0.58,-5.67,-5.68,-5.60
149.26,-4.32,-4.31,1.32,1.33,-1.33,-1.29,-0.58,-5.65,-5.64,-5.64
150.75,-4.32,-4.32,1.36,1.36,-1.30,-1.27,-0.57,-5.62,-5.62,-5.69
152.26,-4.33,-4.37,1.39,1.35,-1.25,-1.26,-0.57,-5.59,-5.62,-5.72
153.78,-4.48,-4.46,1.27,1.30,-1.20,-1.25,-0.56,-5.68,-5.66,-5.76
155.32,-4.59,-4.62,1.21,1.18,-1.14,-1.23,-0.55,-5.73,-5.76,-5.80
156.88,-4.78,-4.79,1.05,1.05,-1.08,-1.21,-0.55,-5.86,-5.86,-5.84
158.44,-4.94,-4.91,0.94,0.97,-1.03,-1.20,-0.54,-5.97,-5.94,-5.88
160.03,-5.00,-4.99,0.92,0.93,-1.00,-1.18,-0.54,-6.01,-6.00,-5.92
161.63,-5.00,-5.04,0.96,0.93,-1.02,-1.17,-0.53,-6.02,-6.05,-5.96
163.24,-5.00,-5.02,1.00,0.98,-1.07,-1.15,-0.53,-6.08,-6.09,-6.00
164.88,-5.00,-4.93,1.03,1.10,-1.17,-1.14,-0.52,-6.17,-6.10,-6.03
166.53,-4.79,-4.80,1.28,1.27,-1.28,-1.13,-0.52,-6.07,-6.08,-6.07
168.19,-4.62,-4.67,1.49,1.44,-1.39,-1.11,-0.52,-6.02,-6.06,-6.11
169.87,-4.55,-4.57,1.60,1.58,-1.49,-1.10,-0.51,-6.04,-6.05,-6.15
171.57,-4.55,-4.52,1.63,1.66,-1.56,-1.09,-0.51,-6.11,-6.08,-6.19
173.29,-4.55,-4.54,1.67,1.68,-1.61,-1.08,-0.51,-6.16,-6.15,-6.22
175.02,-4.55,-4.62,1.70,1.64,-1.63,-1.07,-0.50,-6.18,-6.25,-6.26
176.77,-4.74,-4.75,1.56,1.55,-1.61,-1.05,-0.50,-6.35,-6.36,-6.30
178.54,-4.94,-4.88,1.40,1.46,-1.54,-1.04,-0.50,-6.49,-6.42,-6.35
180.32,-5.00,-4.97,1.38,1.41,-1.45,-1.03,-0.50,-6.46,-6.42,-6.38
182.13,-5.00,-5.04,1.41,1.38,-1.33,-1.02,-0.50,-6.34,-6.37,-6.41
183.95,-5.09,-5.14,1.36,1.31,-1.20,-1.01,-0.50,-6.29,-6.34,-6.45
185.79,-5.35,-5.35,1.13,1.14,-1.05,-1.00,-0.50,-6.40,-6.40,-6.49
187.65,-5.61,-5.60,0.91,0.92,-0.90,-0.99,-0.50,-6.51,-6.50,-6.53
189.52,-5.86,-5.82,0.69,0.74,-0.76,-0.99,-0.50,-6.62,-6.58,-6.56
191.42,-5.97,-5.99,0.61,0.60,-0.64,-0.98,-0.50,-6.61,-6.63,-6.59
193.33,-6.09,-6.14,0.52,0.47,-0.55,-0.97,-0.50,-6.64,-6.69,-6.61
195.27,-6.25,-6.25,0.39,0.39,-0.50,-0.96,-0.50,-6.75,-6.75,-6.64
197.22,-6.35,-6.28,0.32,0.39,-0.49,-0.95,-0.51,-6.85,-6.77,-6.67
199.19,-6.23,-6.21,0.47,0.49,-0.54,-0.94,-0.51,-6.77,-6.74,-6.71
201.18,-6.01,-6.08,0.71,0.64,-0.63,-0.93,-0.51,-6.64,-6.71,-6.72
203.19,-5.92,-5.96,0.82,0.79,-0.74,-0.92,-0.52,-6.66,-6.69,-6.74
205.23,-5.92,-5.87,0.84,0.88,-0.85,-0.91,-0.52,-6.77,-6.72,-6.77
207.28,-5.83,-5.82,0.94,0.96,-0.96,-0.90,-0.52,-6.79,-6.77,-6.77
209.35,-5.72,-5.75,1.07,1.04,-1.03,-0.90,-0.53,-6.76,-6.79,-6.80
211.44,-5.69,-5.68,1.13,1.13,-1.07,-0.89,-0.53,-6.77,-6.76,-6.82
213.56,-5.69,-5.68,1.13,1.14,-1.08,-0.88,-0.54,-6.77,-6.76,-6.82
215.69,-5.69,-5.76,1.13,1.07,-1.04,-0.87,-0.54,-6.73,-6.80,-6.83
217.85,-5.90,-5.86,0.94,0.98,-0.97,-0.85,-0.55,-6.87,-6.83,-6.84
220.03,-6.01,-6.00,0.84,0.85,-0.87,-0.84,-0.55,-6.88,-6.86,-6.85
222.23,-6.11,-6.13,0.75,0.73,-0.73,-0.83,-0.55,-6.85,-6.86,-6.86
224.45,-6.25,-6.24,0.60,0.62,-0.59,-0.82,-0.56,-6.84,-6.82,-6.86
226.70,-6.36,-6.39,0.49,0.47,-0.44,-0.81,-0.56,-6.81,-6.83,-6.86
228.96,-6.53,-6.57,0.32,0.29,-0.31,-0.80,-0.57,-6.85,-6.88,-6.86
231.25,-6.76,-6.71,0.08,0.14,-0.20,-0.78,-0.57,-6.96,-6.91,-6.85
233.57,-6.83,-6.82,0.01,0.03,-0.10,-0.77,-0.58,-6.94,-6.92,-6.85
235.90,-6.83,-6.85,0.01,-0.01,-0.03,-0.75,-0.58,-6.87,-6.88,-6.85
238.26,-6.83,-6.84,0.01,0.00,0.02,-0.74,-0.59,-6.82,-6.83,-6.85
240.64,-6.83,-6.83,0.00,0.00,0.03,-0.72,-0.59,-6.80,-6.80,-6.84
243.05,-6.83,-6.85,-0.01,-0.03,0.03,-0.70,-0.59,-6.81,-6.83,-6.82
245.48,-6.83,-6.83,-0.02,-0.01,-0.01,-0.68,-0.60,-6.84,-6.83,-6.81
247.93,-6.83,-6.77,-0.03,0.04,-0.05,-0.66,-0.60,-6.89,-6.82,-6.80
250.41,-6.64,-6.71,0.15,0.08,-0.10,-0.63,-0.60,-6.75,-6.81,-6.80
252.92,-6.60,-6.63,0.17,0.15,-0.16,-0.60,-0.60,-6.76,-6.78,-6.78
255.45,-6.60,-6.54,0.15,0.22,-0.20,-0.57,-0.61,-6.81,-6.74,-6.75
258.00,-6.46,-6.48,0.28,0.26,-0.24,-0.54,-0.61,-6.71,-6.72,-6.74
260.58,-6.37,-6.41,0.35,0.31,-0.28,-0.51,-0.61,-6.65,-6.69,-6.73
263.19,-6.37,-6.36,0.33,0.34,-0.30,-0.47,-0.61,-6.68,-6.67,-6.70
265.82,-6.37,-6.37,0.32,0.32,-0.32,-0.42,-0.61,-6.69,-6.68,-6.69
268.48,-6.37,-6.37,0.29,0.29,-0.32,-0.38,-0.61,-6.69,-6.69,-6.67
271.16,-6.37,-6.37,0.27,0.27,-0.30,-0.32,-0.61,-6.68,-6.68,-6.64
273.87,-6.37,-6.37,0.25,0.25,-0.27,-0.27,-0.62,-6.65,-6.65,-6.63
276.61,-6.37,-6.37,0.23,0.24,-0.23,-0.20,-0.62,-6.60,-6.60,-6.60
279.38,-6.37,-6.36,0.21,0.23,-0.18,-0.13,-0.62,-6.55,-6.54,-6.59
282.17,-6.37,-6.40,0.20,0.17,-0.13,-0.05,-0.62,-6.50,-6.53,-6.57
284.99,-6.42,-6.46,0.12,0.09,-0.08,0.03,-0.62,-6.51,-6.55,-6.55
287.84,-6.59,-6.54,-0.06,-0.01,-0.03,0.12,-0.62,-6.63,-6.57,-6.53
290.72,-6.60,-6.60,-0.10,-0.09,0.02,0.20,-0.62,-6.58,-6.57,-6.51
293.63,-6.60,-6.62,-0.11,-0.13,0.09,0.29,-0.62,-6.52,-6.53,-6.49
296.57,-6.60,-6.59,-0.14,-0.12,0.16,0.36,-0.62,-6.44,-6.43,-6.47
299.53,-6.60,-6.61,-0.15,-0.16,0.23,0.43,-0.62,-6.37,-6.38,-6.45
302.53,-6.61,-6.68,-0.18,-0.25,0.30,0.48,-0.62,-6.31,-6.37,-6.43
305.55,-6.80,-6.75,-0.41,-0.34,0.36,0.50,-0.62,-6.44,-6.39,-6.40
308.61,-6.83,-6.82,-0.45,-0.44,0.42,0.50,-0.62,-6.41,-6.40,-6.38
311.69,-6.83,-6.85,-0.48,-0.50,0.46,0.48,-0.63,-6.37,-6.39,-6.36
314.81,-6.83,-6.85,-0.51,-0.53,0.50,0.43,-0.63,-6.34,-6.36,-6.32
317.96,-6.83,-6.83,-0.53,-0.53,0.50,0.37,-0.63,-6.33,-6.33,-6.30
321.14,-6.82,-6.78,-0.54,-0.50,0.47,0.29,-0.63,-6.36,-6.32,-6.29
324.35,-6.65,-6.69,-0.39,-0.43,0.39,0.20,-0.64,-6.26,-6.30,-6.27
327.59,-6.57,-6.57,-0.33,-0.33,0.29,0.12,-0.64,-6.28,-6.28,-6.24
330.87,-6.42,-6.41,-0.20,-0.18,0.17,0.03,-0.64,-6.25,-6.24,-6.22
334.18,-6.27,-6.26,-0.07,-0.05,0.05,-0.06,-0.65,-6.23,-6.21,-6.21
337.52,-6.03,-6.07,0.16,0.12,-0.08,-0.14,-0.65,-6.11,-6.15,-6.19
340.90,-5.93,-5.90,0.23,0.27,-0.20,-0.21,-0.66,-6.14,-6.10,-6.16
344.30,-5.74,-5.78,0.40,0.36,-0.31,-0.28,-0.66,-6.06,-6.10,-6.14
347.75,-5.69,-5.72,0.43,0.41,-0.41,-0.35,-0.67,-6.10,-6.12,-6.13
351.23,-5.69,-5.64,0.42,0.47,-0.48,-0.40,-0.68,-6.17,-6.12,-6.11
354.74,-5.59,-5.58,0.50,0.51,-0.52,-0.46,-0.68,-6.11,-6.10,-6.09
358.28,-5.48,-5.52,0.59,0.55,-0.55,-0.51,-0.69,-6.03,-6.06,-6.07
361.87,-5.46,-5.47,0.59,0.59,-0.56,-0.55,-0.70,-6.02,-6.02,-6.06
365.49,-5.46,-5.45,0.58,0.59,-0.57,-0.59,-0.71,-6.03,-6.02,-6.05
369.14,-5.46,-5.47,0.58,0.57,-0.58,-0.63,-0.72,-6.04,-6.05,-6.04
372.83,-5.46,-5.47,0.56,0.55,-0.59,-0.66,-0.73,-6.06,-6.06,-6.02
376.56,-5.46,-5.43,0.55,0.58,-0.61,-0.69,-0.74,-6.07,-6.04,-6.01
380.33,-5.37,-5.37,0.61,0.62,-0.64,-0.72,-0.75,-6.01,-6.00,-5.98
384.13,-5.26,-5.31,0.71,0.67,-0.68,-0.75,-0.76,-5.94,-5.98,-5.98
387.97,-5.23,-5.24,0.73,0.73,-0.73,-0.78,-0.77,-5.96,-5.97,-5.97
391.85,-5.22,-5.17,0.74,0.78,-0.80,-0.80,-0.78,-6.02,-5.97,-5.96
395.77,-5.07,-5.10,0.87,0.84,-0.87,-0.83,-0.80,-5.94,-5.97,-5.94
399.73,-5.00,-5.00,0.93,0.93,-0.94,-0.85,-0.81,-5.94,-5.94,-5.93
403.72,-4.92,-4.90,1.00,1.02,-1.00,-0.87,-0.82,-5.92,-5.90,-5.92
407.76,-4.81,-4.84,1.10,1.07,-1.05,-0.90,-0.84,-5.86,-5.89,-5.91
411.84,-4.78,-4.79,1.11,1.11,-1.08,-0.92,-0.85,-5.86,-5.87,-5.90
415.96,-4.78,-4.77,1.10,1.11,-1.09,-0.94,-0.87,-5.87,-5.86,-5.89
420.12,-4.78,-4.77,1.09,1.11,-1.08,-0.96,-0.88,-5.86,-5.85,-5.88
424.32,-4.78,-4.78,1.09,1.09,-1.05,-0.98,-0.90,-5.83,-5.83,-5.87
428.56,-4.78,-4.82,1.08,1.04,-1.01,-1.00,-0.92,-5.80,-5.83,-5.86
432.85,-4.87,-4.90,0.98,0.95,-0.98,-1.02,-0.93,-5.85,-5.87,-5.85
