frequency,raw,error,smoothed,error_smoothed,equalization,parametric_eq,fixed_band_eq,equalized_raw,equalized_smoothed,target
20.00,-9.79,-8.42,-9.79,-8.41,6.00,6.43,2.49,-3.79,-3.79,-1.38
20.20,-9.74,-8.40,-9.75,-8.41,6.00,6.41,2.56,-3.74,-3.75,-1.34
20.40,-9.70,-8.39,-9.71,-8.40,6.00,6.39,2.64,-3.70,-3.71,-1.31
20.61,-9.65,-8.37,-9.66,-8.38,6.00,6.36,2.71,-3.65,-3.66,-1.28
20.81,-9.60,-8.36,-9.61,-8.37,6.00,6.34,2.79,-3.60,-3.61,-1.24
21.02,-9.55,-8.35,-9.54,-8.33,6.00,6.32,2.87,-3.55,-3.54,-1.20
21.23,-9.45,-8.26,-9.46,-8.27,6.00,6.29,2.96,-3.45,-3.46,-1.19
21.44,-9.36,-8.19,-9.36,-8.19,6.00,6.27,3.04,-3.36,-3.36,-1.17
21.66,-9.27,-8.11,-9.26,-8.11,6.00,6.24,3.13,-3.27,-3.26,-1.15
21.87,-9.17,-8.03,-9.17,-8.03,6.00,6.22,3.22,-3.17,-3.17,-1.14
22.09,-9.08,-7.96,-9.09,-7.96,6.00,6.19,3.31,-3.08,-3.09,-1.12
22.31,-9.02,-7.90,-9.02,-7.90,6.00,6.16,3.41,-3.02,-3.02,-1.12
22.54,-8.96,-7.85,-8.96,-7.85,6.00,6.14,3.51,-2.96,-2.96,-1.12
22.76,-8.90,-7.80,-8.90,-7.79,6.00,6.11,3.61,-2.90,-2.90,-1.11
22.99,-8.83,-7.73,-8.83,-7.72,6.00,6.08,3.71,-2.83,-2.83,-1.11
23.22,-8.74,-7.65,-8.74,-7.65,6.00,6.05,3.82,-2.74,-2.74,-1.10
23.45,-8.64,-7.56,-8.65,-7.56,6.00,6.02,3.92,-2.64,-2.65,-1.09
23.69,-8.56,-7.48,-8.55,-7.47,6.00,6.00,4.03,-2.56,-2.55,-1.08
23.92,-8.45,-7.38,-8.46,-7.39,6.00,5.97,4.15,-2.45,-2.46,-1.07
24.16,-8.38,-7.32,-8.39,-7.33,6.00,5.94,4.26,-2.38,-2.39,-1.06
24.40,-8.33,-7.28,-8.33,-7.28,6.00,5.91,4.38,-2.33,-2.33,-1.05
24.65,-8.28,-7.22,-8.28,-7.22,6.00,5.87,4.49,-2.28,-2.28,-1.06
24.89,-8.22,-7.16,-8.22,-7.15,6.00,5.84,4.61,-2.22,-2.22,-1.06
25.14,-8.13,-7.07,-8.13,-7.07,6.00,5.81,4.73,-2.13,-2.13,-1.06
25.39,-8.02,-6.96,-8.02,-6.95,6.00,5.78,4.86,-2.02,-2.02,-1.06
25.65,-7.90,-6.84,-7.90,-6.83,6.00,5.75,4.98,-1.90,-1.90,-1.07
25.91,-7.79,-6.71,-7.80,-6.73,6.00,5.71,5.10,-1.79,-1.80,-1.08
26.16,-7.70,-6.63,-7.71,-6.64,6.00,5.68,5.22,-1.70,-1.71,-1.07
26.43,-7.64,-6.58,-7.64,-6.57,6.00,5.65,5.34,-1.64,-1.64,-1.07
26.69,-7.58,-6.51,-7.58,-6.51,6.00,5.61,5.46,-1.58,-1.58,-1.07
26.96,-7.52,-6.45,-7.52,-6.45,6.00,5.58,5.58,-1.52,-1.52,-1.07
27.23,-7.46,-6.39,-7.46,-6.39,6.01,5.54,5.70,-1.46,-1.46,-1.07
27.50,-7.39,-6.32,-7.40,-6.32,6.01,5.51,5.81,-1.38,-1.39,-1.07
27.77,-7.33,-6.25,-7.33,-6.25,6.01,5.47,5.92,-1.32,-1.32,-1.09
28.05,-7.27,-6.19,-7.27,-6.18,6.01,5.43,6.02,-1.26,-1.26,-1.09
28.33,-7.21,-6.11,-7.21,-6.12,6.00,5.40,6.12,-1.21,-1.21,-1.10
28.62,-7.14,-6.05,-7.15,-6.05,5.98,5.36,6.21,-1.16,-1.17,-1.09
28.90,-7.08,-5.99,-7.08,-5.99,5.95,5.32,6.29,-1.13,-1.13,-1.09
29.19,-7.02,-5.92,-7.02,-5.92,5.91,5.28,6.37,-1.12,-1.11,-1.10
29.48,-6.95,-5.86,-6.95,-5.86,5.86,5.24,6.44,-1.10,-1.10,-1.10
29.78,-6.88,-5.79,-6.89,-5.79,5.79,5.20,6.50,-1.09,-1.09,-1.10
30.08,-6.81,-5.72,-6.81,-5.71,5.72,5.16,6.55,-1.09,-1.09,-1.10
30.38,-6.74,-5.63,-6.74,-5.64,5.65,5.12,6.59,-1.10,-1.10,-1.11
30.68,-6.67,-5.56,-6.67,-5.56,5.57,5.08,6.62,-1.11,-1.11,-1.11
30.99,-6.60,-5.48,-6.60,-5.48,5.48,5.04,6.64,-1.12,-1.12,-1.12
31.30,-6.53,-5.41,-6.54,-5.41,5.41,5.00,6.64,-1.13,-1.13,-1.13
31.61,-6.46,-5.33,-6.46,-5.33,5.33,4.96,6.64,-1.14,-1.14,-1.13
31.93,-6.39,-5.25,-6.39,-5.25,5.25,4.91,6.62,-1.15,-1.14,-1.14
32.24,-6.31,-5.16,-6.32,-5.17,5.17,4.87,6.60,-1.15,-1.15,-1.15
32.57,-6.24,-5.09,-6.24,-5.08,5.09,4.83,6.56,-1.16,-1.15,-1.16
32.89,-6.16,-5.00,-6.17,-5.01,5.01,4.78,6.52,-1.16,-1.16,-1.16
33.22,-6.09,-4.93,-6.09,-4.93,4.93,4.74,6.46,-1.17,-1.17,-1.16
33.55,-6.02,-4.86,-6.02,-4.85,4.85,4.70,6.39,-1.17,-1.17,-1.16
33.89,-5.94,-4.78,-5.95,-4.78,4.78,4.65,6.32,-1.16,-1.17,-1.17
34.23,-5.88,-4.71,-5.88,-4.71,4.72,4.60,6.24,-1.16,-1.16,-1.17
34.57,-5.82,-4.64,-5.82,-4.64,4.66,4.56,6.15,-1.16,-1.16,-1.18
34.92,-5.76,-4.58,-5.77,-4.59,4.60,4.51,6.06,-1.16,-1.17,-1.19
35.27,-5.73,-4.54,-5.74,-4.55,4.55,4.47,5.96,-1.19,-1.20,-1.19
35.62,-5.71,-4.51,-5.71,-4.51,4.49,4.42,5.85,-1.22,-1.22,-1.20
35.97,-5.69,-4.49,-5.67,-4.47,4.44,4.37,5.75,-1.26,-1.24,-1.21
36.33,-5.61,-4.40,-5.61,-4.40,4.39,4.32,5.64,-1.22,-1.22,-1.21
36.70,-5.53,-4.32,-5.54,-4.32,4.34,4.28,5.53,-1.19,-1.20,-1.22
37.06,-5.46,-4.23,-5.48,-4.25,4.29,4.23,5.41,-1.18,-1.19,-1.23
37.43,-5.44,-4.21,-5.44,-4.21,4.23,4.18,5.30,-1.22,-1.22,-1.23
37.81,-5.42,-4.19,-5.41,-4.17,4.16,4.13,5.18,-1.26,-1.25,-1.24
38.19,-5.38,-4.13,-5.38,-4.13,4.09,4.08,5.07,-1.29,-1.29,-1.25
38.57,-5.31,-4.06,-5.32,-4.06,4.02,4.03,4.95,-1.29,-1.29,-1.26
38.95,-5.24,-3.98,-5.24,-3.97,3.96,3.98,4.84,-1.28,-1.28,-1.26
39.34,-5.15,-3.88,-5.15,-3.87,3.90,3.93,4.73,-1.25,-1.25,-1.28
39.74,-5.06,-3.77,-5.07,-3.79,3.83,3.88,4.62,-1.23,-1.24,-1.29
40.14,-5.00,-3.72,-5.03,-3.74,3.77,3.83,4.51,-1.24,-1.26,-1.29
40.54,-5.00,-3.71,-5.00,-3.71,3.70,3.78,4.40,-1.30,-1.30,-1.29
40.94,-5.00,-3.70,-4.97,-3.67,3.64,3.73,4.29,-1.36,-1.33,-1.30
41.35,-4.92,-3.61,-4.92,-3.60,3.59,3.68,4.19,-1.34,-1.33,-1.31
41.76,-4.83,-3.50,-4.85,-3.52,3.53,3.63,4.09,-1.31,-1.32,-1.33
42.18,-4.78,-3.44,-4.81,-3.46,3.46,3.58,3.99,-1.32,-1.34,-1.35
42.60,-4.78,-3.41,-4.78,-3.41,3.39,3.53,3.90,-1.39,-1.39,-1.37
43.03,-4.77,-3.38,-4.74,-3.34,3.32,3.48,3.80,-1.46,-1.42,-1.39
43.46,-4.67,-3.26,-4.67,-3.25,3.24,3.43,3.71,-1.43,-1.43,-1.42
43.90,-4.57,-3.11,-4.61,-3.15,3.17,3.38,3.63,-1.41,-1.44,-1.47
44.33,-4.55,-3.06,-4.56,-3.06,3.10,3.33,3.54,-1.46,-1.46,-1.49
44.78,-4.55,-3.02,-4.54,-3.01,3.02,3.28,3.46,-1.53,-1.52,-1.53
45.23,-4.53,-2.97,-4.53,-2.97,2.96,3.22,3.38,-1.58,-1.58,-1.56
45.68,-4.50,-2.92,-4.50,-2.92,2.89,3.17,3.30,-1.61,-1.61,-1.59
46.13,-4.46,-2.86,-4.45,-2.84,2.84,3.12,3.23,-1.62,-1.61,-1.61
46.60,-4.38,-2.77,-4.39,-2.77,2.79,3.07,3.16,-1.60,-1.60,-1.62
47.06,-4.32,-2.69,-4.35,-2.72,2.73,3.02,3.09,-1.59,-1.62,-1.64
47.53,-4.32,-2.68,-4.32,-2.68,2.67,2.97,3.02,-1.65,-1.65,-1.65
48.01,-4.32,-2.68,-4.30,-2.65,2.61,2.92,2.96,-1.72,-1.69,-1.65
48.49,-4.26,-2.61,-4.26,-2.60,2.56,2.87,2.90,-1.71,-1.71,-1.66
48.97,-4.19,-2.53,-4.20,-2.53,2.52,2.82,2.84,-1.67,-1.68,-1.67
49.46,-4.14,-2.46,-4.14,-2.46,2.50,2.77,2.78,-1.64,-1.63,-1.68
49.96,-4.09,-2.41,-4.10,-2.42,2.50,2.72,2.73,-1.59,-1.60,-1.68
50.46,-4.11,-2.44,-4.11,-2.43,2.51,2.67,2.67,-1.61,-1.60,-1.67
50.96,-4.14,-2.48,-4.18,-2.51,2.53,2.62,2.62,-1.62,-1.66,-1.67
51.47,-4.27,-2.59,-4.28,-2.60,2.56,2.57,2.57,-1.71,-1.72,-1.68
51.99,-4.42,-2.73,-4.34,-2.65,2.61,2.52,2.53,-1.81,-1.73,-1.69
52.51,-4.37,-2.67,-4.38,-2.67,2.66,2.47,2.48,-1.72,-1.72,-1.71
53.03,-4.33,-2.60,-4.41,-2.67,2.68,2.42,2.43,-1.65,-1.73,-1.73
53.56,-4.45,-2.69,-4.45,-2.68,2.68,2.37,2.39,-1.78,-1.77,-1.77
54.10,-4.55,-2.74,-4.52,-2.71,2.65,2.32,2.35,-1.91,-1.87,-1.81
54.64,-4.55,-2.70,-4.55,-2.69,2.60,2.27,2.31,-1.96,-1.95,-1.86
55.18,-4.51,-2.61,-4.49,-2.58,2.54,2.22,2.27,-1.97,-1.95,-1.90
55.74,-4.38,-2.42,-4.40,-2.44,2.49,2.17,2.23,-1.90,-1.91,-1.96
56.29,-4.32,-2.31,-4.34,-2.33,2.44,2.11,2.19,-1.88,-1.90,-2.01
56.86,-4.32,-2.26,-4.35,-2.28,2.39,2.06,2.16,-1.93,-1.96,-2.07
57.42,-4.42,-2.29,-4.43,-2.30,2.34,2.01,2.12,-2.08,-2.09,-2.14
58.00,-4.55,-2.36,-4.51,-2.31,2.29,1.95,2.08,-2.26,-2.22,-2.19
58.58,-4.55,-2.30,-4.56,-2.31,2.24,1.89,2.05,-2.32,-2.33,-2.25
59.16,-4.55,-2.25,-4.58,-2.27,2.19,1.83,2.01,-2.37,-2.39,-2.31
59.76,-4.55,-2.19,-4.52,-2.15,2.12,1.77,1.98,-2.43,-2.40,-2.37
60.35,-4.47,-2.03,-4.46,-2.03,2.03,1.71,1.94,-2.45,-2.43,-2.44
60.96,-4.33,-1.84,-4.39,-1.89,1.91,1.64,1.91,-2.43,-2.49,-2.49
61.57,-4.32,-1.76,-4.32,-1.76,1.76,1.57,1.87,-2.56,-2.56,-2.56
62.18,-4.28,-1.66,-4.24,-1.62,1.61,1.49,1.83,-2.68,-2.63,-2.63
62.80,-4.13,-1.46,-4.13,-1.46,1.45,1.41,1.80,-2.68,-2.68,-2.67
63.43,-3.99,-1.27,-4.01,-1.28,1.30,1.33,1.76,-2.69,-2.71,-2.73
64.07,-3.86,-1.09,-3.90,-1.12,1.15,1.23,1.73,-2.71,-2.74,-2.77
64.71,-3.83,-1.01,-3.81,-0.99,1.01,1.14,1.69,-2.82,-2.79,-2.82
65.35,-3.76,-0.90,-3.74,-0.88,0.88,1.03,1.65,-2.88,-2.86,-2.87
66.01,-3.64,-0.74,-3.69,-0.79,0.76,0.92,1.62,-2.89,-2.94,-2.91
66.67,-3.64,-0.70,-3.61,-0.67,0.65,0.81,1.58,-2.99,-2.96,-2.94
67.33,-3.56,-0.59,-3.53,-0.55,0.56,0.69,1.54,-3.01,-2.97,-2.97
68.01,-3.41,-0.41,-3.47,-0.46,0.48,0.58,1.50,-2.94,-2.99,-3.00
68.69,-3.41,-0.38,-3.41,-0.38,0.40,0.49,1.46,-3.01,-3.01,-3.04
69.37,-3.41,-0.35,-3.40,-0.33,0.34,0.40,1.43,-3.08,-3.06,-3.07
70.07,-3.41,-0.31,-3.41,-0.32,0.28,0.35,1.39,-3.13,-3.13,-3.10
70.77,-3.41,-0.30,-3.41,-0.29,0.24,0.32,1.35,-3.17,-3.17,-3.11
71.48,-3.41,-0.27,-3.40,-0.25,0.23,0.33,1.31,-3.18,-3.17,-3.15
72.19,-3.41,-0.24,-3.41,-0.23,0.24,0.37,1.27,-3.17,-3.17,-3.17
72.91,-3.41,-0.20,-3.46,-0.25,0.28,0.45,1.23,-3.13,-3.17,-3.21
73.64,-3.56,-0.33,-3.54,-0.31,0.36,0.56,1.20,-3.20,-3.18,-3.24
74.38,-3.70,-0.44,-3.69,-0.42,0.47,0.69,1.16,-3.24,-3.22,-3.26
75.12,-3.85,-0.55,-3.89,-0.59,0.61,0.84,1.12,-3.24,-3.28,-3.30
75.87,-4.13,-0.79,-4.12,-0.78,0.79,1.00,1.08,-3.34,-3.33,-3.33
76.63,-4.38,-1.02,-4.37,-1.01,1.00,1.17,1.04,-3.39,-3.38,-3.36
77.40,-4.64,-1.26,-4.65,-1.26,1.23,1.35,1.01,-3.42,-3.42,-3.38
78.17,-4.90,-1.49,-4.90,-1.49,1.47,1.53,0.97,-3.43,-3.43,-3.42
78.95,-5.17,-1.74,-5.16,-1.73,1.73,1.73,0.93,-3.44,-3.43,-3.43
79.74,-5.43,-1.98,-5.43,-1.99,1.98,1.93,0.90,-3.44,-3.45,-3.44
80.54,-5.73,-2.27,-5.71,-2.25,2.26,2.15,0.86,-3.48,-3.45,-3.47
81.35,-6.04,-2.56,-6.07,-2.60,2.55,2.38,0.83,-3.49,-3.52,-3.48
82.16,-6.40,-2.92,-6.48,-3.00,2.84,2.61,0.79,-3.56,-3.64,-3.49
82.98,-6.97,-3.49,-6.88,-3.40,3.10,2.84,0.76,-3.87,-3.78,-3.48
83.81,-7.21,-3.73,-7.23,-3.74,3.32,3.04,0.72,-3.89,-3.91,-3.49
84.65,-7.42,-3.93,-7.42,-3.93,3.48,3.22,0.69,-3.95,-3.94,-3.50
85.50,-7.45,-3.97,-7.43,-3.94,3.57,3.31,0.65,-3.88,-3.86,-3.49
86.35,-7.31,-3.83,-7.30,-3.82,3.59,3.37,0.62,-3.72,-3.71,-3.48
87.22,-7.09,-3.61,-7.08,-3.59,3.54,3.32,0.59,-3.55,-3.53,-3.48
88.09,-6.76,-3.28,-6.84,-3.36,3.42,3.22,0.55,-3.35,-3.42,-3.49
88.97,-6.61,-3.15,-6.62,-3.14,3.23,3.04,0.52,-3.39,-3.39,-3.47
89.86,-6.45,-2.99,-6.41,-2.94,2.99,2.84,0.49,-3.47,-3.42,-3.47
90.76,-6.19,-2.71,-6.20,-2.73,2.72,2.61,0.46,-3.47,-3.48,-3.48
91.66,-5.93,-2.46,-5.93,-2.45,2.45,2.38,0.43,-3.48,-3.49,-3.47
92.58,-5.67,-2.18,-5.67,-2.18,2.20,2.16,0.40,-3.47,-3.47,-3.50
93.51,-5.41,-1.93,-5.44,-1.95,1.98,1.95,0.37,-3.43,-3.46,-3.49
94.44,-5.25,-1.75,-5.26,-1.75,1.79,1.76,0.33,-3.47,-3.47,-3.50
95.39,-5.13,-1.62,-5.11,-1.58,1.61,1.59,0.30,-3.52,-3.49,-3.52
96.34,-4.97,-1.42,-4.98,-1.43,1.46,1.43,0.28,-3.51,-3.52,-3.55
97.30,-4.86,-1.30,-4.87,-1.30,1.33,1.29,0.25,-3.53,-3.54,-3.57
98.28,-4.78,-1.19,-4.81,-1.21,1.23,1.16,0.22,-3.56,-3.58,-3.59
99.26,-4.78,-1.17,-4.78,-1.17,1.14,1.04,0.19,-3.64,-3.64,-3.62
100.25,-4.77,-1.13,-4.74,-1.09,1.06,0.94,0.16,-3.72,-3.68,-3.64
101.25,-4.70,-1.02,-4.68,-1.00,0.98,0.83,0.13,-3.73,-3.70,-3.68
102.27,-4.55,-0.84,-4.61,-0.89,0.89,0.74,0.10,-3.67,-3.72,-3.72
103.29,-4.55,-0.79,-4.56,-0.81,0.80,0.65,0.08,-3.76,-3.77,-3.76
104.32,-4.55,-0.75,-4.52,-0.72,0.70,0.57,0.05,-3.86,-3.82,-3.80
105.37,-4.49,-0.65,-4.47,-0.62,0.60,0.49,0.02,-3.89,-3.87,-3.85
106.42,-4.36,-0.46,-4.40,-0.49,0.50,0.41,-0.00,-3.86,-3.89,-3.90
107.48,-4.32,-0.36,-4.34,-0.37,0.41,0.34,-0.03,-3.91,-3.92,-3.97
108.56,-4.32,-0.28,-4.31,-0.27,0.32,0.26,-0.05,-4.00,-3.99,-4.04
109.64,-4.32,-0.21,-4.32,-0.21,0.23,0.19,-0.07,-4.10,-4.09,-4.11
110.74,-4.32,-0.15,-4.33,-0.15,0.13,0.12,-0.10,-4.20,-4.20,-4.18
111.85,-4.32,-0.08,-4.34,-0.09,0.02,0.06,-0.12,-4.30,-4.32,-4.24
112.97,-4.32,0.00,-4.30,0.02,-0.08,-0.01,-0.14,-4.41,-4.38,-4.33
114.10,-4.27,0.12,-4.23,0.16,-0.19,-0.08,-0.16,-4.46,-4.42,-4.39
115.24,-4.09,0.37,-4.16,0.31,-0.29,-0.15,-0.18,-4.38,-4.44,-4.47
116.39,-4.09,0.45,-4.10,0.44,-0.38,-0.21,-0.20,-4.48,-4.48,-4.54
117.55,-4.09,0.51,-4.08,0.53,-0.48,-0.28,-0.22,-4.57,-4.56,-4.61
118.73,-4.09,0.58,-4.09,0.57,-0.56,-0.34,-0.23,-4.65,-4.65,-4.67
119.92,-4.09,0.62,-4.09,0.63,-0.63,-0.41,-0.25,-4.72,-4.72,-4.71
121.12,-4.09,0.67,-4.09,0.67,-0.68,-0.47,-0.26,-4.77,-4.77,-4.77
122.33,-4.09,0.71,-4.09,0.71,-0.72,-0.54,-0.27,-4.81,-4.81,-4.81
123.55,-4.09,0.74,-4.09,0.74,-0.75,-0.60,-0.28,-4.84,-4.84,-4.83
124.79,-4.09,0.78,-4.09,0.77,-0.78,-0.66,-0.29,-4.87,-4.87,-4.87
126.03,-4.09,0.81,-4.09,0.81,-0.81,-0.73,-0.30,-4.90,-4.90,-4.90
127.29,-4.09,0.84,-4.09,0.84,-0.84,-0.78,-0.31,-4.94,-4.94,-4.93
128.57,-4.09,0.88,-4.09,0.87,-0.87,-0.84,-0.32,-4.97,-4.97,-4.97
129.85,-4.09,0.91,-4.09,0.91,-0.90,-0.90,-0.32,-5.00,-5.00,-5.00
131.15,-4.09,0.93,-4.09,0.94,-0.94,-0.95,-0.33,-5.03,-5.03,-5.03
132.46,-4.09,0.97,-4.09,0.97,-0.97,-1.00,-0.33,-5.06,-5.06,-5.06
133.79,-4.09,1.00,-4.09,1.00,-1.01,-1.05,-0.33,-5.10,-5.10,-5.09
135.12,-4.09,1.04,-4.09,1.04,-1.05,-1.09,-0.34,-5.14,-5.14,-5.14
136.48,-4.09,1.07,-4.09,1.07,-1.09,-1.13,-0.34,-5.18,-5.18,-5.16
137.84,-4.09,1.10,-4.09,1.11,-1.12,-1.16,-0.34,-5.21,-5.21,-5.20
139.22,-4.09,1.16,-4.09,1.15,-1.14,-1.19,-0.33,-5.23,-5.23,-5.25
140.61,-4.09,1.20,-4.08,1.21,-1.15,-1.21,-0.33,-5.25,-5.23,-5.29
142.02,-4.09,1.22,-4.11,1.22,-1.16,-1.23,-0.33,-5.26,-5.27,-5.32
143.44,-4.11,1.24,-4.16,1.19,-1.18,-1.24,-0.33,-5.29,-5.34,-5.36
144.87,-4.28,1.11,-4.24,1.16,-1.20,-1.25,-0.32,-5.48,-5.44,-5.40
146.32,-4.31,1.13,-4.30,1.14,-1.22,-1.26,-0.32,-5.54,-5.52,-5.45
147.78,-4.32,1.16,-4.33,1.16,-1.24,-1.26,-0.31,-5.56,-5.57,-5.49
149.26,-4.32,1.23,-4.31,1.24,-1.25,-1.26,-0.31,-5.57,-5.56,-5.55
150.75,-4.32,1.31,-4.32,1.30,-1.24,-1.25,-0.30,-5.57,-5.57,-5.63
152.26,-4.33,1.36,-4.37,1.33,-1.24,-1.24,-0.30,-5.57,-5.60,-5.70
153.78,-4.48,1.29,-4.46,1.32,-1.22,-1.23,-0.29,-5.70,-5.68,-5.77
155.32,-4.59,1.27,-4.62,1.24,-1.20,-1.22,-0.29,-5.79,-5.81,-5.87
156.88,-4.78,1.16,-4.79,1.16,-1.17,-1.20,-0.28,-5.96,-5.96,-5.94
158.44,-4.94,1.07,-4.91,1.11,-1.16,-1.19,-0.28,-6.10,-6.07,-6.01
160.03,-5.00,1.08,-4.99,1.09,-1.16,-1.17,-0.27,-6.17,-6.16,-6.09
161.63,-5.00,1.14,-5.04,1.11,-1.20,-1.15,-0.27,-6.20,-6.24,-6.15
163.24,-5.00,1.19,-5.02,1.18,-1.27,-1.14,-0.26,-6.28,-6.29,-6.20
164.88,-5.00,1.23,-4.93,1.31,-1.37,-1.12,-0.25,-6.37,-6.30,-6.24
166.53,-4.79,1.48,-4.80,1.47,-1.48,-1.10,-0.25,-6.27,-6.28,-6.28
168.19,-4.62,1.68,-4.67,1.64,-1.58,-1.08,-0.24,-6.20,-6.25,-6.31
169.87,-4.55,1.77,-4.57,1.76,-1.65,-1.06,-0.24,-6.21,-6.22,-6.32
171.57,-4.55,1.78,-4.52,1.80,-1.70,-1.05,-0.23,-6.25,-6.22,-6.33
173.29,-4.55,1.77,-4.54,1.79,-1.71,-1.03,-0.23,-6.26,-6.25,-6.33
175.02,-4.55,1.76,-4.62,1.70,-1.69,-1.01,-0.22,-6.24,-6.31,-6.31
176.77,-4.74,1.57,-4.75,1.56,-1.62,-1.00,-0.22,-6.36,-6.37,-6.32
178.54,-4.94,1.37,-4.88,1.43,-1.51,-0.98,-0.22,-6.46,-6.39,-6.31
180.32,-5.00,1.30,-4.97,1.33,-1.38,-0.97,-0.21,-6.38,-6.35,-6.30
182.13,-5.00,1.29,-5.04,1.26,-1.23,-0.95,-0.21,-6.23,-6.26,-6.30
183.95,-5.09,1.20,-5.14,1.16,-1.06,-0.94,-0.20,-6.15,-6.20,-6.30
185.79,-5.35,0.96,-5.35,0.96,-0.88,-0.92,-0.20,-6.23,-6.23,-6.31
187.65,-5.61,0.72,-5.60,0.73,-0.71,-0.91,-0.20,-6.32,-6.31,-6.33
189.52,-5.86,0.49,-5.82,0.53,-0.55,-0.90,-0.19,-6.41,-6.37,-6.35
191.42,-5.97,0.40,-5.99,0.38,-0.41,-0.88,-0.19,-6.39,-6.40,-6.37
193.33,-6.09,0.29,-6.14,0.24,-0.31,-0.87,-0.19,-6.41,-6.46,-6.39
195.27,-6.25,0.14,-6.25,0.15,-0.25,-0.86,-0.19,-6.51,-6.51,-6.40
197.22,-6.35,0.06,-6.28,0.14,-0.24,-0.85,-0.18,-6.59,-6.52,-6.41
199.19,-6.23,0.22,-6.21,0.23,-0.28,-0.83,-0.18,-6.52,-6.49,-6.45
201.18,-6.01,0.44,-6.08,0.38,-0.36,-0.82,-0.18,-6.38,-6.45,-6.46
203.19,-5.92,0.55,-5.96,0.52,-0.47,-0.81,-0.18,-6.39,-6.43,-6.47
205.23,-5.92,0.58,-5.87,0.62,-0.58,-0.80,-0.18,-6.51,-6.46,-6.50
207.28,-5.83,0.67,-5.82,0.70,-0.69,-0.79,-0.18,-6.52,-6.50,-6.51
209.35,-5.72,0.81,-5.75,0.78,-0.76,-0.77,-0.18,-6.49,-6.52,-6.53
211.44,-5.69,0.86,-5.68,0.86,-0.81,-0.76,-0.18,-6.50,-6.49,-6.55
213.56,-5.69,0.86,-5.68,0.87,-0.81,-0.75,-0.17,-6.51,-6.50,-6.56
215.69,-5.69,0.87,-5.76,0.81,-0.78,-0.73,-0.17,-6.47,-6.54,-6.56
217.85,-5.90,0.68,-5.86,0.72,-0.71,-0.72,-0.17,-6.62,-6.57,-6.58
220.03,-6.01,0.58,-6.00,0.60,-0.61,-0.71,-0.18,-6.63,-6.61,-6.60
222.23,-6.11,0.50,-6.13,0.48,-0.49,-0.69,-0.18,-6.60,-6.62,-6.62
224.45,-6.25,0.37,-6.24,0.38,-0.35,-0.68,-0.18,-6.60,-6.58,-6.62
226.70,-6.36,0.26,-6.39,0.23,-0.21,-0.66,-0.18,-6.58,-6.60,-6.62
228.96,-6.53,0.10,-6.57,0.06,-0.09,-0.65,-0.18,-6.62,-6.65,-6.63
231.25,-6.76,-0.13,-6.71,-0.08,0.02,-0.63,-0.18,-6.75,-6.69,-6.63
233.57,-6.83,-0.19,-6.82,-0.17,0.11,-0.61,-0.18,-6.73,-6.71,-6.64
235.90,-6.83,-0.18,-6.85,-0.20,0.17,-0.59,-0.19,-6.66,-6.68,-6.65
238.26,-6.83,-0.18,-6.84,-0.19,0.21,-0.58,-0.19,-6.62,-6.63,-6.65
240.64,-6.83,-0.18,-6.83,-0.19,0.22,-0.55,-0.19,-6.61,-6.61,-6.65
243.05,-6.83,-0.20,-6.85,-0.21,0.21,-0.53,-0.19,-6.63,-6.64,-6.64
245.48,-6.83,-0.20,-6.83,-0.19,0.17,-0.51,-0.20,-6.66,-6.66,-6.64
247.93,-6.83,-0.21,-6.77,-0.14,0.12,-0.48,-0.20,-6.71,-6.65,-6.63
250.41,-6.64,-0.01,-6.71,-0.08,0.06,-0.45,-0.21,-6.58,-6.65,-6.63
252.92,-6.60,0.02,-6.63,-0.01,0.00,-0.42,-0.21,-6.60,-6.62,-6.62
255.45,-6.60,-0.01,-6.54,0.07,-0.05,-0.39,-0.22,-6.65,-6.59,-6.60
258.00,-6.46,0.13,-6.48,0.12,-0.10,-0.35,-0.22,-6.57,-6.58,-6.59
260.58,-6.37,0.22,-6.41,0.18,-0.15,-0.31,-0.23,-6.52,-6.56,-6.59
263.19,-6.37,0.20,-6.36,0.22,-0.18,-0.26,-0.23,-6.55,-6.54,-6.58
265.82,-6.37,0.20,-6.37,0.20,-0.20,-0.21,-0.24,-6.57,-6.56,-6.57
268.48,-6.37,0.18,-6.37,0.18,-0.20,-0.16,-0.25,-6.58,-6.58,-6.55
271.16,-6.37,0.16,-6.37,0.16,-0.19,-0.09,-0.25,-6.56,-6.56,-6.54
273.87,-6.37,0.15,-6.37,0.14,-0.16,-0.03,-0.26,-6.54,-6.54,-6.52
276.61,-6.37,0.11,-6.37,0.13,-0.12,0.04,-0.27,-6.49,-6.49,-6.49
279.38,-6.37,0.10,-6.36,0.11,-0.06,0.12,-0.28,-6.44,-6.42,-6.47
282.17,-6.37,0.07,-6.40,0.05,-0.01,0.20,-0.29,-6.38,-6.41,-6.45
284.99,-6.42,-0.00,-6.46,-0.04,0.05,0.28,-0.29,-6.38,-6.42,-6.42
287.84,-6.59,-0.20,-6.54,-0.14,0.10,0.37,-0.30,-6.49,-6.43,-6.40
290.72,-6.60,-0.24,-6.60,-0.23,0.17,0.45,-0.31,-6.44,-6.43,-6.36
293.63,-6.60,-0.27,-6.62,-0.28,0.24,0.52,-0.32,-6.36,-6.38,-6.34
296.57,-6.60,-0.29,-6.59,-0.28,0.32,0.58,-0.33,-6.28,-6.27,-6.31
299.53,-6.60,-0.32,-6.61,-0.33,0.40,0.62,-0.34,-6.21,-6.22,-6.28
302.53,-6.61,-0.34,-6.68,-0.41,0.47,0.65,-0.35,-6.15,-6.21,-6.27
305.55,-6.80,-0.57,-6.75,-0.51,0.53,0.64,-0.36,-6.28,-6.22,-6.23
308.61,-6.83,-0.62,-6.82,-0.60,0.58,0.62,-0.38,-6.25,-6.24,-6.22
311.69,-6.83,-0.63,-6.85,-0.66,0.62,0.58,-0.39,-6.22,-6.24,-6.20
314.81,-6.83,-0.66,-6.85,-0.67,0.63,0.52,-0.40,-6.20,-6.22,-6.17
317.96,-6.83,-0.66,-6.83,-0.65,0.63,0.44,-0.41,-6.21,-6.20,-6.18
321.14,-6.82,-0.64,-6.78,-0.61,0.58,0.36,-0.42,-6.25,-6.20,-6.18
324.35,-6.65,-0.48,-6.69,-0.52,0.49,0.28,-0.44,-6.17,-6.20,-6.17
327.59,-6.57,-0.41,-6.57,-0.41,0.37,0.20,-0.45,-6.20,-6.20,-6.17
330.87,-6.42,-0.27,-6.41,-0.25,0.24,0.12,-0.46,-6.18,-6.17,-6.16
334.18,-6.27,-0.12,-6.26,-0.11,0.10,0.04,-0.48,-6.17,-6.16,-6.15
337.52,-6.03,0.11,-6.07,0.07,-0.03,-0.03,-0.49,-6.07,-6.10,-6.14
340.90,-5.93,0.18,-5.90,0.23,-0.16,-0.09,-0.50,-6.09,-6.06,-6.12
344.30,-5.74,0.37,-5.78,0.32,-0.27,-0.15,-0.52,-6.02,-6.06,-6.11
347.75,-5.69,0.40,-5.72,0.37,-0.37,-0.21,-0.53,-6.06,-6.08,-6.09
351.23,-5.69,0.37,-5.64,0.43,-0.43,-0.26,-0.55,-6.13,-6.07,-6.06
354.74,-5.59,0.45,-5.58,0.46,-0.47,-0.30,-0.57,-6.07,-6.06,-6.05
358.28,-5.48,0.53,-5.52,0.50,-0.49,-0.34,-0.58,-5.97,-6.01,-6.02
361.87,-5.46,0.54,-5.47,0.53,-0.49,-0.38,-0.60,-5.96,-5.96,-6.00
365.49,-5.46,0.51,-5.45,0.52,-0.49,-0.42,-0.62,-5.96,-5.95,-5.97
369.14,-5.46,0.49,-5.47,0.48,-0.49,-0.45,-0.63,-5.96,-5.96,-5.95
372.83,-5.46,0.46,-5.47,0.46,-0.50,-0.48,-0.65,-5.96,-5.97,-5.93
376.56,-5.46,0.44,-5.43,0.47,-0.51,-0.51,-0.67,-5.97,-5.94,-5.91
380.33,-5.37,0.51,-5.37,0.51,-0.53,-0.53,-0.69,-5.90,-5.90,-5.88
384.13,-5.26,0.60,-5.31,0.56,-0.57,-0.56,-0.71,-5.83,-5.87,-5.86
387.97,-5.23,0.62,-5.24,0.61,-0.62,-0.58,-0.73,-5.85,-5.85,-5.85
391.85,-5.22,0.62,-5.17,0.67,-0.68,-0.60,-0.75,-5.91,-5.85,-5.84
395.77,-5.07,0.76,-5.10,0.73,-0.75,-0.62,-0.77,-5.83,-5.86,-5.84
399.73,-5.00,0.82,-5.00,0.82,-0.83,-0.64,-0.79,-5.83,-5.83,-5.83
403.72,-4.92,0.89,-4.90,0.92,-0.89,-0.66,-0.81,-5.82,-5.79,-5.82
407.76,-4.81,1.00,-4.84,0.97,-0.95,-0.68,-0.83,-5.76,-5.79,-5.81
411.84,-4.78,1.02,-4.79,1.01,-0.98,-0.70,-0.85,-5.77,-5.77,-5.80
415.96,-4.78,1.01,-4.77,1.02,-1.00,-0.72,-0.88,-5.78,-5.77,-5.79
420.12,-4.78,1.01,-4.77,1.02,-0.99,-0.74,-0.90,-5.78,-5.76,-5.79
424.32,-4.78,1.01,-4.78,1.02,-0.97,-0.76,-0.92,-5.76,-5.75,-5.79
428.56,-4.78,1.01,-4.82,0.98,-0.94,-0.77,-0.94,-5.73,-5.76,-5.79
432.85,-4.87,0.92,-4.90,0.90,-0.92,-0.79,-0.97,-5.79,-5.81,-5.80
