frequency,raw,error,smoothed,error_smoothed,equalization,parametric_eq,fixed_band_eq,equalized_raw,equalized_smoothed,target
20.00,-8.40,-9.92,-8.40,-9.91,6.00,5.90,2.67,-2.40,-2.40,1.52
20.20,-8.33,-9.85,-8.33,-9.85,6.00,5.92,2.74,-2.33,-2.33,1.52
20.40,-8.27,-9.78,-8.26,-9.79,6.00,5.95,2.82,-2.27,-2.26,1.52
20.61,-8.20,-9.72,-8.20,-9.72,6.00,5.97,2.90,-2.20,-2.20,1.52
20.81,-8.13,-9.64,-8.13,-9.65,6.00,5.99,2.99,-2.13,-2.13,1.52
21.02,-8.06,-9.57,-8.06,-9.57,6.00,6.00,3.07,-2.06,-2.06,1.52
21.23,-7.99,-9.48,-7.99,-9.49,6.00,6.02,3.16,-1.99,-1.99,1.50
21.44,-7.92,-9.40,-7.92,-9.41,6.00,6.03,3.25,-1.92,-1.92,1.49
21.66,-7.86,-9.32,-7.85,-9.32,6.00,6.05,3.35,-1.86,-1.85,1.47
21.87,-7.79,-9.23,-7.78,-9.23,6.00,6.06,3.44,-1.79,-1.78,1.45
22.09,-7.71,-9.14,-7.72,-9.14,6.00,6.07,3.54,-1.71,-1.72,1.44
22.31,-7.65,-9.05,-7.64,-9.05,6.00,6.08,3.64,-1.65,-1.64,1.41
22.54,-7.58,-8.96,-7.57,-8.96,6.00,6.09,3.75,-1.58,-1.57,1.39
22.76,-7.50,-8.86,-7.51,-8.87,6.00,6.09,3.86,-1.50,-1.51,1.37
22.99,-7.44,-8.77,-7.43,-8.77,6.00,6.10,3.97,-1.44,-1.43,1.33
23.22,-7.37,-8.67,-7.36,-8.67,6.00,6.10,4.08,-1.37,-1.36,1.30
23.45,-7.29,-8.57,-7.29,-8.58,6.00,6.10,4.19,-1.29,-1.29,1.28
23.69,-7.22,-8.49,-7.21,-8.48,6.00,6.10,4.31,-1.22,-1.21,1.27
23.92,-7.14,-8.39,-7.14,-8.39,6.00,6.10,4.43,-1.14,-1.14,1.25
24.16,-7.06,-8.30,-7.06,-8.30,6.00,6.10,4.55,-1.06,-1.06,1.24
24.40,-7.00,-8.22,-6.99,-8.21,6.00,6.09,4.68,-1.00,-0.99,1.22
24.65,-6.92,-8.12,-6.92,-8.12,6.00,6.09,4.80,-0.92,-0.92,1.20
24.89,-6.84,-8.02,-6.84,-8.02,6.00,6.08,4.93,-0.84,-0.84,1.18
25.14,-6.76,-7.93,-6.76,-7.93,6.00,6.07,5.06,-0.76,-0.76,1.17
25.39,-6.68,-7.83,-6.68,-7.83,6.00,6.06,5.19,-0.68,-0.68,1.15
25.65,-6.61,-7.75,-6.60,-7.74,6.00,6.05,5.32,-0.61,-0.60,1.14
25.91,-6.53,-7.64,-6.53,-7.64,6.00,6.03,5.45,-0.53,-0.53,1.11
26.16,-6.45,-7.54,-6.45,-7.55,6.00,6.02,5.58,-0.45,-0.45,1.10
26.43,-6.38,-7.47,-6.37,-7.46,6.00,6.00,5.71,-0.38,-0.37,1.09
26.69,-6.30,-7.36,-6.30,-7.37,6.00,5.98,5.84,-0.30,-0.30,1.07
26.96,-6.22,-7.28,-6.22,-7.28,6.00,5.96,5.96,-0.22,-0.22,1.06
27.23,-6.15,-7.19,-6.15,-7.19,6.00,5.94,6.09,-0.15,-0.15,1.05
27.50,-6.08,-7.11,-6.07,-7.11,6.00,5.92,6.21,-0.08,-0.07,1.04
27.77,-6.00,-7.01,-6.00,-7.02,6.00,5.89,6.32,0.00,0.00,1.01
28.05,-5.92,-6.92,-5.92,-6.92,6.00,5.87,6.44,0.08,0.08,1.00
28.33,-5.85,-6.83,-5.84,-6.83,6.00,5.84,6.54,0.15,0.16,0.98
28.62,-5.76,-6.73,-5.76,-6.74,6.00,5.81,6.64,0.24,0.24,0.97
28.90,-5.69,-6.65,-5.69,-6.64,6.00,5.78,6.73,0.31,0.31,0.96
29.19,-5.62,-6.56,-5.61,-6.56,6.00,5.75,6.81,0.39,0.39,0.94
29.48,-5.53,-6.47,-5.53,-6.47,6.01,5.72,6.88,0.48,0.47,0.94
29.78,-5.46,-6.39,-5.46,-6.39,6.01,5.69,6.95,0.56,0.56,0.93
30.08,-5.39,-6.31,-5.39,-6.30,6.01,5.65,7.00,0.63,0.63,0.92
30.38,-5.32,-6.22,-5.32,-6.22,6.01,5.62,7.04,0.69,0.69,0.90
30.68,-5.25,-6.13,-5.25,-6.13,5.99,5.58,7.07,0.75,0.75,0.89
30.99,-5.17,-6.03,-5.18,-6.04,5.96,5.54,7.08,0.80,0.79,0.86
31.30,-5.12,-5.97,-5.11,-5.97,5.92,5.50,7.09,0.81,0.81,0.85
31.61,-5.05,-5.89,-5.05,-5.89,5.87,5.46,7.08,0.83,0.82,0.84
31.93,-4.99,-5.81,-4.99,-5.81,5.81,5.42,7.06,0.82,0.82,0.82
32.24,-4.93,-5.72,-4.92,-5.72,5.74,5.38,7.03,0.81,0.81,0.79
32.57,-4.86,-5.64,-4.86,-5.64,5.65,5.34,6.98,0.80,0.79,0.78
32.89,-4.80,-5.56,-4.80,-5.56,5.57,5.29,6.93,0.77,0.77,0.77
33.22,-4.74,-5.47,-4.74,-5.48,5.48,5.25,6.86,0.74,0.74,0.73
33.55,-4.68,-5.40,-4.68,-5.40,5.40,5.20,6.79,0.72,0.72,0.72
33.89,-4.62,-5.32,-4.62,-5.32,5.32,5.16,6.71,0.70,0.70,0.70
34.23,-4.56,-5.24,-4.56,-5.24,5.24,5.11,6.61,0.68,0.68,0.68
34.57,-4.50,-5.16,-4.50,-5.16,5.16,5.06,6.52,0.66,0.66,0.66
34.92,-4.44,-5.07,-4.44,-5.08,5.09,5.01,6.41,0.65,0.64,0.64
35.27,-4.39,-5.01,-4.39,-5.01,5.01,4.96,6.30,0.62,0.62,0.62
35.62,-4.34,-4.94,-4.34,-4.94,4.94,4.91,6.19,0.60,0.60,0.60
35.97,-4.29,-4.87,-4.28,-4.87,4.86,4.86,6.07,0.58,0.58,0.58
36.33,-4.23,-4.79,-4.23,-4.79,4.79,4.81,5.95,0.57,0.56,0.57
36.70,-4.18,-4.72,-4.17,-4.72,4.72,4.76,5.83,0.54,0.55,0.55
37.06,-4.12,-4.64,-4.12,-4.65,4.65,4.71,5.70,0.53,0.53,0.52
37.43,-4.07,-4.58,-4.07,-4.57,4.57,4.66,5.58,0.51,0.51,0.51
37.81,-4.02,-4.51,-4.01,-4.50,4.50,4.60,5.45,0.48,0.49,0.49
38.19,-3.96,-4.42,-3.96,-4.43,4.43,4.55,5.33,0.47,0.47,0.47
38.57,-3.91,-4.36,-3.91,-4.35,4.35,4.49,5.21,0.44,0.45,0.45
38.95,-3.85,-4.28,-3.85,-4.28,4.28,4.44,5.08,0.43,0.43,0.43
39.34,-3.80,-4.20,-3.79,-4.20,4.21,4.39,4.96,0.41,0.41,0.41
39.74,-3.74,-4.12,-3.74,-4.13,4.14,4.33,4.84,0.40,0.39,0.38
40.14,-3.70,-4.08,-3.69,-4.07,4.07,4.27,4.72,0.37,0.37,0.38
40.54,-3.65,-4.01,-3.64,-4.00,4.00,4.22,4.61,0.35,0.36,0.36
40.94,-3.59,-3.93,-3.59,-3.94,3.94,4.16,4.49,0.35,0.34,0.34
41.35,-3.55,-3.87,-3.54,-3.87,3.88,4.11,4.38,0.33,0.33,0.32
41.76,-3.50,-3.81,-3.50,-3.81,3.82,4.05,4.27,0.32,0.32,0.32
42.18,-3.46,-3.76,-3.46,-3.76,3.76,3.99,4.17,0.30,0.30,0.30
42.60,-3.42,-3.70,-3.42,-3.70,3.70,3.93,4.06,0.28,0.28,0.28
43.03,-3.38,-3.65,-3.38,-3.64,3.64,3.88,3.96,0.26,0.26,0.27
43.46,-3.34,-3.59,-3.34,-3.59,3.58,3.82,3.87,0.25,0.25,0.25
43.90,-3.30,-3.52,-3.30,-3.53,3.52,3.76,3.77,0.23,0.23,0.23
44.33,-3.26,-3.47,-3.26,-3.47,3.47,3.70,3.68,0.21,0.21,0.21
44.78,-3.22,-3.41,-3.22,-3.41,3.41,3.65,3.59,0.19,0.19,0.20
45.23,-3.18,-3.35,-3.18,-3.35,3.35,3.59,3.51,0.17,0.18,0.17
45.68,-3.14,-3.29,-3.14,-3.29,3.30,3.53,3.42,0.16,0.16,0.16
46.13,-3.10,-3.24,-3.10,-3.24,3.24,3.47,3.34,0.15,0.15,0.14
46.60,-3.06,-3.19,-3.06,-3.19,3.19,3.41,3.26,0.13,0.14,0.13
47.06,-3.02,-3.14,-3.02,-3.14,3.14,3.36,3.19,0.12,0.12,0.12
47.53,-2.99,-3.09,-2.99,-3.09,3.09,3.30,3.12,0.10,0.10,0.10
48.01,-2.96,-3.05,-2.96,-3.05,3.04,3.24,3.05,0.08,0.08,0.10
48.49,-2.93,-3.00,-2.93,-3.00,2.99,3.18,2.98,0.06,0.06,0.07
48.97,-2.90,-2.94,-2.90,-2.94,2.94,3.12,2.91,0.04,0.04,0.04
49.46,-2.87,-2.88,-2.87,-2.88,2.89,3.06,2.85,0.02,0.02,0.02
49.96,-2.84,-2.83,-2.84,-2.83,2.84,3.01,2.79,0.00,0.01,-0.01
50.46,-2.81,-2.80,-2.81,-2.79,2.79,2.95,2.73,-0.01,-0.01,-0.01
50.96,-2.78,-2.75,-2.78,-2.75,2.75,2.89,2.67,-0.03,-0.03,-0.03
51.47,-2.76,-2.70,-2.75,-2.70,2.70,2.83,2.62,-0.05,-0.05,-0.06
51.99,-2.73,-2.65,-2.73,-2.66,2.66,2.77,2.57,-0.07,-0.07,-0.07
52.51,-2.71,-2.62,-2.70,-2.62,2.61,2.71,2.51,-0.09,-0.09,-0.08
53.03,-2.68,-2.58,-2.68,-2.57,2.57,2.66,2.46,-0.11,-0.10,-0.10
53.56,-2.65,-2.53,-2.65,-2.53,2.53,2.60,2.41,-0.12,-0.12,-0.12
54.10,-2.62,-2.48,-2.62,-2.48,2.48,2.54,2.37,-0.13,-0.14,-0.14
54.64,-2.60,-2.44,-2.60,-2.44,2.44,2.48,2.32,-0.16,-0.16,-0.16
55.18,-2.58,-2.40,-2.57,-2.39,2.39,2.43,2.27,-0.19,-0.18,-0.18
55.74,-2.55,-2.35,-2.55,-2.35,2.34,2.37,2.23,-0.20,-0.20,-0.20
56.29,-2.52,-2.30,-2.52,-2.30,2.30,2.31,2.18,-0.22,-0.22,-0.21
56.86,-2.49,-2.25,-2.49,-2.25,2.25,2.25,2.14,-0.23,-0.23,-0.24
57.42,-2.46,-2.20,-2.46,-2.21,2.21,2.20,2.09,-0.25,-0.25,-0.26
58.00,-2.44,-2.17,-2.43,-2.16,2.16,2.14,2.05,-0.27,-0.27,-0.27
58.58,-2.41,-2.11,-2.41,-2.12,2.12,2.08,2.01,-0.29,-0.29,-0.29
59.16,-2.38,-2.07,-2.38,-2.07,2.07,2.03,1.96,-0.30,-0.31,-0.31
59.76,-2.36,-2.04,-2.35,-2.03,2.03,1.97,1.92,-0.33,-0.32,-0.32
60.35,-2.32,-1.97,-2.32,-1.99,1.98,1.91,1.87,-0.34,-0.34,-0.34
60.96,-2.30,-1.95,-2.30,-1.94,1.93,1.86,1.83,-0.37,-0.37,-0.35
61.57,-2.27,-1.88,-2.26,-1.88,1.88,1.80,1.78,-0.39,-0.38,-0.38
62.18,-2.24,-1.83,-2.24,-1.83,1.83,1.74,1.74,-0.40,-0.40,-0.41
62.80,-2.20,-1.77,-2.20,-1.77,1.78,1.69,1.69,-0.41,-0.42,-0.42
63.43,-2.18,-1.73,-2.17,-1.73,1.73,1.63,1.64,-0.44,-0.44,-0.45
64.07,-2.15,-1.68,-2.15,-1.68,1.69,1.58,1.60,-0.46,-0.46,-0.47
64.71,-2.12,-1.64,-2.12,-1.64,1.64,1.52,1.55,-0.48,-0.48,-0.47
65.35,-2.09,-1.59,-2.09,-1.60,1.59,1.47,1.50,-0.49,-0.49,-0.49
66.01,-2.06,-1.56,-2.05,-1.55,1.55,1.41,1.45,-0.51,-0.51,-0.50
66.67,-2.02,-1.50,-2.02,-1.50,1.50,1.35,1.40,-0.51,-0.52,-0.52
67.33,-1.99,-1.46,-1.99,-1.46,1.46,1.30,1.35,-0.53,-0.53,-0.53
68.01,-1.97,-1.42,-1.96,-1.41,1.41,1.24,1.30,-0.55,-0.55,-0.55
68.69,-1.93,-1.37,-1.93,-1.37,1.37,1.19,1.24,-0.56,-0.56,-0.56
69.37,-1.91,-1.32,-1.90,-1.32,1.32,1.14,1.19,-0.58,-0.58,-0.58
70.07,-1.87,-1.27,-1.87,-1.27,1.28,1.08,1.14,-0.59,-0.59,-0.59
70.77,-1.84,-1.23,-1.84,-1.23,1.23,1.03,1.08,-0.61,-0.61,-0.61
71.48,-1.81,-1.18,-1.81,-1.18,1.18,0.97,1.03,-0.63,-0.63,-0.63
72.19,-1.79,-1.14,-1.78,-1.13,1.13,0.92,0.98,-0.65,-0.65,-0.64
72.91,-1.75,-1.08,-1.75,-1.09,1.08,0.86,0.92,-0.66,-0.67,-0.67
73.64,-1.73,-1.03,-1.72,-1.03,1.04,0.81,0.87,-0.69,-0.69,-0.69
74.38,-1.70,-0.99,-1.70,-0.98,0.99,0.76,0.81,-0.71,-0.71,-0.71
75.12,-1.67,-0.92,-1.67,-0.93,0.94,0.70,0.76,-0.73,-0.73,-0.74
75.87,-1.65,-0.89,-1.64,-0.89,0.89,0.65,0.70,-0.76,-0.76,-0.76
76.63,-1.62,-0.84,-1.62,-0.84,0.84,0.60,0.64,-0.78,-0.78,-0.78
77.40,-1.60,-0.79,-1.59,-0.79,0.79,0.54,0.59,-0.81,-0.81,-0.81
78.17,-1.57,-0.72,-1.57,-0.73,0.73,0.49,0.53,-0.83,-0.83,-0.84
78.95,-1.54,-0.68,-1.54,-0.68,0.68,0.44,0.47,-0.85,-0.86,-0.85
79.74,-1.52,-0.64,-1.52,-0.63,0.63,0.39,0.42,-0.89,-0.89,-0.88
80.54,-1.50,-0.58,-1.49,-0.58,0.58,0.33,0.36,-0.92,-0.91,-0.91
81.35,-1.47,-0.52,-1.47,-0.53,0.52,0.28,0.30,-0.94,-0.94,-0.94
82.16,-1.44,-0.46,-1.44,-0.47,0.47,0.23,0.25,-0.97,-0.97,-0.97
82.98,-1.42,-0.42,-1.41,-0.41,0.41,0.18,0.19,-1.00,-1.00,-1.00
83.81,-1.39,-0.35,-1.39,-0.36,0.36,0.12,0.13,-1.03,-1.03,-1.04
84.65,-1.38,-0.31,-1.37,-0.30,0.31,0.07,0.08,-1.07,-1.06,-1.07
85.50,-1.35,-0.25,-1.35,-0.25,0.25,0.02,0.02,-1.09,-1.10,-1.09
86.35,-1.33,-0.20,-1.33,-0.20,0.20,-0.03,-0.04,-1.13,-1.13,-1.13
87.22,-1.32,-0.15,-1.31,-0.15,0.15,-0.08,-0.10,-1.17,-1.16,-1.16
88.09,-1.29,-0.09,-1.29,-0.10,0.09,-0.13,-0.15,-1.19,-1.20,-1.20
88.97,-1.27,-0.04,-1.27,-0.04,0.04,-0.19,-0.21,-1.23,-1.23,-1.22
89.86,-1.25,0.01,-1.25,0.01,-0.01,-0.24,-0.27,-1.26,-1.26,-1.26
90.76,-1.23,0.08,-1.23,0.07,-0.07,-0.29,-0.33,-1.29,-1.30,-1.30
91.66,-1.22,0.11,-1.21,0.12,-0.12,-0.34,-0.39,-1.34,-1.33,-1.33
92.58,-1.20,0.18,-1.20,0.17,-0.17,-0.39,-0.45,-1.37,-1.37,-1.38
93.51,-1.18,0.22,-1.18,0.22,-0.23,-0.44,-0.51,-1.41,-1.40,-1.40
94.44,-1.15,0.29,-1.15,0.28,-0.28,-0.49,-0.57,-1.43,-1.44,-1.43
95.39,-1.14,0.33,-1.13,0.34,-0.34,-0.54,-0.63,-1.48,-1.47,-1.47
96.34,-1.12,0.40,-1.12,0.40,-0.40,-0.59,-0.68,-1.51,-1.52,-1.52
97.30,-1.11,0.45,-1.10,0.45,-0.45,-0.64,-0.74,-1.56,-1.56,-1.56
98.28,-1.09,0.51,-1.09,0.52,-0.51,-0.69,-0.80,-1.60,-1.60,-1.60
99.26,-1.07,0.58,-1.07,0.57,-0.57,-0.74,-0.86,-1.64,-1.64,-1.65
100.25,-1.05,0.64,-1.05,0.63,-0.63,-0.79,-0.92,-1.68,-1.68,-1.68
101.25,-1.04,0.69,-1.03,0.70,-0.69,-0.83,-0.98,-1.73,-1.73,-1.72
102.27,-1.02,0.76,-1.02,0.76,-0.75,-0.88,-1.04,-1.77,-1.77,-1.77
103.29,-1.00,0.83,-1.00,0.82,-0.81,-0.93,-1.10,-1.81,-1.81,-1.82
104.32,-0.99,0.87,-0.98,0.88,-0.87,-0.98,-1.16,-1.86,-1.86,-1.86
105.37,-0.97,0.93,-0.97,0.93,-0.93,-1.03,-1.22,-1.90,-1.91,-1.90
106.42,-0.97,0.98,-0.96,0.99,-0.99,-1.08,-1.28,-1.96,-1.95,-1.95
107.48,-0.95,1.05,-0.95,1.05,-1.05,-1.12,-1.33,-2.00,-2.00,-2.00
108.56,-0.94,1.11,-0.94,1.11,-1.11,-1.17,-1.39,-2.05,-2.05,-2.05
109.64,-0.92,1.18,-0.92,1.17,-1.17,-1.22,-1.44,-2.09,-2.09,-2.10
110.74,-0.91,1.23,-0.91,1.23,-1.23,-1.26,-1.50,-2.14,-2.14,-2.14
111.85,-0.90,1.29,-0.90,1.30,-1.30,-1.31,-1.55,-2.19,-2.19,-2.19
112.97,-0.89,1.37,-0.89,1.36,-1.36,-1.36,-1.60,-2.25,-2.25,-2.25
114.10,-0.88,1.42,-0.87,1.42,-1.42,-1.40,-1.65,-2.30,-2.30,-2.29
115.24,-0.86,1.48,-0.86,1.49,-1.49,-1.45,-1.69,-2.34,-2.35,-2.34
116.39,-0.85,1.55,-0.85,1.55,-1.55,-1.49,-1.74,-2.39,-2.39,-2.40
117.55,-0.84,1.61,-0.84,1.61,-1.60,-1.54,-1.78,-2.44,-2.44,-2.45
118.73,-0.83,1.67,-0.83,1.67,-1.66,-1.58,-1.82,-2.49,-2.49,-2.49
119.92,-0.82,1.71,-0.82,1.72,-1.72,-1.62,-1.86,-2.53,-2.53,-2.53
121.12,-0.81,1.77,-0.81,1.77,-1.77,-1.67,-1.89,-2.58,-2.58,-2.58
122.33,-0.81,1.82,-0.80,1.82,-1.82,-1.71,-1.92,-2.63,-2.62,-2.62
123.55,-0.80,1.86,-0.80,1.87,-1.87,-1.75,-1.95,-2.67,-2.67,-2.66
124.79,-0.79,1.92,-0.79,1.92,-1.92,-1.79,-1.98,-2.71,-2.71,-2.71
126.03,-0.78,1.96,-0.78,1.97,-1.97,-1.84,-2.00,-2.75,-2.75,-2.74
127.29,-0.77,2.02,-0.77,2.02,-2.02,-1.88,-2.02,-2.79,-2.79,-2.79
128.57,-0.77,2.07,-0.76,2.07,-2.07,-1.92,-2.04,-2.84,-2.83,-2.84
129.85,-0.75,2.13,-0.75,2.12,-2.12,-1.96,-2.06,-2.86,-2.87,-2.87
131.15,-0.75,2.16,-0.74,2.17,-2.16,-2.00,-2.07,-2.91,-2.91,-2.91
132.46,-0.74,2.21,-0.74,2.21,-2.20,-2.04,-2.08,-2.94,-2.94,-2.95
133.79,-0.73,2.24,-0.73,2.25,-2.24,-2.07,-2.09,-2.97,-2.98,-2.97
135.12,-0.73,2.29,-0.73,2.28,-2.28,-2.11,-2.10,-3.01,-3.01,-3.01
136.48,-0.73,2.31,-0.72,2.31,-2.31,-2.15,-2.11,-3.04,-3.04,-3.03
137.84,-0.72,2.34,-0.72,2.35,-2.35,-2.19,-2.11,-3.06,-3.06,-3.05
139.22,-0.71,2.39,-0.71,2.38,-2.38,-2.22,-2.11,-3.08,-3.09,-3.09
140.61,-0.71,2.42,-0.70,2.41,-2.40,-2.26,-2.11,-3.11,-3.11,-3.12
142.02,-0.70,2.42,-0.70,2.43,-2.43,-2.29,-2.12,-3.13,-3.13,-3.12
143.44,-0.70,2.44,-0.69,2.45,-2.45,-2.32,-2.12,-3.15,-3.15,-3.14
144.87,-0.69,2.48,-0.69,2.47,-2.48,-2.36,-2.11,-3.16,-3.16,-3.17
146.32,-0.68,2.51,-0.68,2.50,-2.50,-2.39,-2.11,-3.18,-3.18,-3.18
147.78,-0.68,2.51,-0.67,2.52,-2.52,-2.42,-2.11,-3.20,-3.19,-3.19
149.26,-0.67,2.54,-0.67,2.54,-2.54,-2.45,-2.11,-3.21,-3.21,-3.20
150.75,-0.67,2.56,-0.67,2.56,-2.56,-2.48,-2.11,-3.22,-3.22,-3.23
152.26,-0.67,2.58,-0.66,2.58,-2.58,-2.51,-2.11,-3.24,-3.24,-3.24
153.78,-0.66,2.60,-0.66,2.60,-2.60,-2.54,-2.11,-3.25,-3.26,-3.26
155.32,-0.66,2.61,-0.66,2.61,-2.62,-2.57,-2.12,-3.27,-3.27,-3.27
156.88,-0.66,2.63,-0.65,2.63,-2.63,-2.59,-2.12,-3.29,-3.29,-3.28
158.44,-0.66,2.65,-0.66,2.65,-2.65,-2.62,-2.12,-3.31,-3.31,-3.31
160.03,-0.65,2.68,-0.65,2.67,-2.67,-2.64,-2.13,-3.32,-3.32,-3.33
161.63,-0.66,2.69,-0.65,2.69,-2.69,-2.67,-2.13,-3.35,-3.34,-3.35
163.24,-0.65,2.71,-0.65,2.71,-2.71,-2.69,-2.14,-3.35,-3.35,-3.36
164.88,-0.65,2.72,-0.65,2.72,-2.72,-2.71,-2.15,-3.37,-3.37,-3.37
166.53,-0.65,2.74,-0.65,2.74,-2.74,-2.73,-2.16,-3.39,-3.39,-3.39
168.19,-0.66,2.76,-0.65,2.76,-2.76,-2.75,-2.17,-3.42,-3.41,-3.42
169.87,-0.66,2.78,-0.66,2.78,-2.78,-2.77,-2.19,-3.43,-3.43,-3.43
171.57,-0.66,2.79,-0.66,2.79,-2.79,-2.79,-2.20,-3.45,-3.45,-3.45
173.29,-0.67,2.80,-0.66,2.81,-2.81,-2.80,-2.22,-3.48,-3.48,-3.47
175.02,-0.67,2.83,-0.67,2.83,-2.83,-2.82,-2.24,-3.50,-3.50,-3.50
176.77,-0.68,2.85,-0.67,2.85,-2.85,-2.83,-2.26,-3.53,-3.53,-3.53
178.54,-0.68,2.88,-0.68,2.88,-2.87,-2.85,-2.29,-3.55,-3.55,-3.56
180.32,-0.69,2.90,-0.69,2.90,-2.90,-2.86,-2.31,-3.58,-3.58,-3.58
182.13,-0.70,2.91,-0.70,2.91,-2.92,-2.87,-2.34,-3.61,-3.61,-3.61
183.95,-0.71,2.93,-0.70,2.94,-2.94,-2.88,-2.37,-3.64,-3.64,-3.64
185.79,-0.71,2.96,-0.71,2.96,-2.95,-2.89,-2.40,-3.66,-3.67,-3.66
187.65,-0.72,2.98,-0.72,2.98,-2.97,-2.90,-2.43,-3.69,-3.69,-3.70
189.52,-0.74,2.98,-0.73,2.99,-2.99,-2.91,-2.46,-3.72,-3.71,-3.72
191.42,-0.74,3.01,-0.74,3.00,-3.00,-2.91,-2.50,-3.74,-3.74,-3.74
193.33,-0.75,3.01,-0.75,3.00,-3.01,-2.92,-2.53,-3.76,-3.76,-3.76
195.27,-0.77,3.01,-0.76,3.02,-3.02,-2.92,-2.57,-3.79,-3.78,-3.78
197.22,-0.79,3.01,-0.78,3.03,-3.03,-2.93,-2.61,-3.81,-3.81,-3.80
199.19,-0.79,3.05,-0.79,3.03,-3.03,-2.93,-2.65,-3.82,-3.83,-3.84
201.18,-0.81,3.04,-0.81,3.04,-3.04,-2.93,-2.69,-3.84,-3.85,-3.85
203.19,-0.83,3.03,-0.82,3.04,-3.04,-2.93,-2.73,-3.87,-3.86,-3.86
205.23,-0.84,3.04,-0.84,3.04,-3.04,-2.93,-2.78,-3.88,-3.88,-3.88
207.28,-0.85,3.03,-0.85,3.04,-3.04,-2.93,-2.82,-3.89,-3.89,-3.88
209.35,-0.87,3.04,-0.86,3.04,-3.04,-2.93,-2.86,-3.91,-3.90,-3.91
211.44,-0.88,3.05,-0.88,3.04,-3.04,-2.92,-2.91,-3.91,-3.92,-3.93
213.56,-0.90,3.04,-0.90,3.04,-3.03,-2.92,-2.95,-3.93,-3.93,-3.94
215.69,-0.92,3.02,-0.92,3.02,-3.03,-2.91,-2.99,-3.94,-3.94,-3.93
217.85,-0.94,3.01,-0.93,3.01,-3.02,-2.90,-3.03,-3.96,-3.95,-3.94
220.03,-0.95,3.01,-0.95,3.01,-3.01,-2.90,-3.07,-3.96,-3.96,-3.96
222.23,-0.96,3.01,-0.96,3.00,-3.00,-2.89,-3.11,-3.96,-3.96,-3.97
224.45,-0.97,2.99,-0.97,2.99,-2.98,-2.88,-3.14,-3.95,-3.95,-3.95
226.70,-0.99,2.97,-0.98,2.98,-2.97,-2.87,-3.18,-3.96,-3.95,-3.96
228.96,-1.00,2.96,-1.00,2.95,-2.96,-2.86,-3.21,-3.95,-3.96,-3.96
231.25,-1.02,2.93,-1.01,2.93,-2.94,-2.85,-3.24,-3.95,-3.95,-3.94
233.57,-1.03,2.90,-1.02,2.91,-2.92,-2.84,-3.26,-3.95,-3.94,-3.93
235.90,-1.03,2.90,-1.03,2.89,-2.90,-2.82,-3.28,-3.93,-3.93,-3.93
238.26,-1.04,2.89,-1.04,2.88,-2.88,-2.81,-3.30,-3.91,-3.91,-3.92
240.64,-1.05,2.85,-1.04,2.86,-2.85,-2.79,-3.31,-3.90,-3.90,-3.90
243.05,-1.05,2.84,-1.05,2.83,-2.83,-2.78,-3.32,-3.88,-3.88,-3.88
245.48,-1.06,2.80,-1.06,2.81,-2.81,-2.76,-3.32,-3.86,-3.86,-3.86
247.93,-1.07,2.78,-1.06,2.78,-2.78,-2.75,-3.32,-3.85,-3.84,-3.84
250.41,-1.07,2.76,-1.07,2.75,-2.75,-2.73,-3.32,-3.82,-3.82,-3.83
252.92,-1.07,2.73,-1.07,2.72,-2.72,-2.71,-3.31,-3.79,-3.80,-3.79
255.45,-1.09,2.68,-1.08,2.69,-2.69,-2.69,-3.29,-3.78,-3.77,-3.77
258.00,-1.09,2.65,-1.09,2.66,-2.66,-2.67,-3.28,-3.75,-3.75,-3.74
260.58,-1.09,2.64,-1.09,2.63,-2.63,-2.66,-3.25,-3.72,-3.72,-3.73
263.19,-1.10,2.60,-1.09,2.61,-2.60,-2.64,-3.22,-3.70,-3.70,-3.70
265.82,-1.10,2.58,-1.10,2.57,-2.57,-2.62,-3.19,-3.67,-3.67,-3.67
268.48,-1.11,2.54,-1.11,2.54,-2.54,-2.59,-3.16,-3.65,-3.64,-3.65
271.16,-1.11,2.50,-1.11,2.51,-2.51,-2.57,-3.12,-3.62,-3.62,-3.61
273.87,-1.12,2.48,-1.11,2.47,-2.48,-2.55,-3.07,-3.60,-3.59,-3.59
276.61,-1.12,2.44,-1.12,2.45,-2.45,-2.53,-3.03,-3.57,-3.57,-3.56
279.38,-1.12,2.42,-1.12,2.42,-2.42,-2.51,-2.98,-3.53,-3.54,-3.54
282.17,-1.13,2.39,-1.12,2.39,-2.39,-2.49,-2.93,-3.51,-3.51,-3.51
284.99,-1.13,2.36,-1.13,2.36,-2.36,-2.46,-2.88,-3.48,-3.49,-3.49
287.84,-1.14,2.32,-1.13,2.32,-2.32,-2.44,-2.82,-3.46,-3.46,-3.46
290.72,-1.14,2.28,-1.14,2.29,-2.29,-2.42,-2.76,-3.43,-3.43,-3.42
293.63,-1.14,2.27,-1.14,2.26,-2.26,-2.39,-2.71,-3.39,-3.40,-3.40
296.57,-1.15,2.22,-1.15,2.22,-2.22,-2.37,-2.65,-3.37,-3.37,-3.37
299.53,-1.16,2.18,-1.16,2.18,-2.18,-2.34,-2.59,-3.34,-3.34,-3.34
302.53,-1.17,2.14,-1.17,2.14,-2.14,-2.32,-2.53,-3.31,-3.31,-3.31
305.55,-1.18,2.09,-1.17,2.10,-2.10,-2.30,-2.47,-3.27,-3.27,-3.26
308.61,-1.18,2.06,-1.18,2.05,-2.05,-2.27,-2.41,-3.23,-3.23,-3.24
311.69,-1.19,2.01,-1.19,2.01,-2.01,-2.25,-2.35,-3.20,-3.20,-3.20
314.81,-1.20,1.96,-1.20,1.97,-1.97,-2.22,-2.29,-3.16,-3.16,-3.16
317.96,-1.22,1.91,-1.21,1.92,-1.92,-2.20,-2.23,-3.14,-3.13,-3.13
321.14,-1.22,1.89,-1.22,1.88,-1.88,-2.17,-2.18,-3.10,-3.10,-3.10
324.35,-1.24,1.84,-1.23,1.84,-1.84,-2.15,-2.12,-3.07,-3.07,-3.08
327.59,-1.25,1.79,-1.25,1.79,-1.80,-2.12,-2.06,-3.04,-3.04,-3.04
330.87,-1.26,1.75,-1.26,1.75,-1.75,-2.10,-2.01,-3.01,-3.01,-3.01
334.18,-1.28,1.71,-1.27,1.71,-1.71,-2.07,-1.95,-2.99,-2.99,-2.99
337.52,-1.28,1.68,-1.28,1.68,-1.68,-2.05,-1.90,-2.95,-2.96,-2.96
340.90,-1.30,1.64,-1.30,1.64,-1.64,-2.02,-1.85,-2.93,-2.93,-2.93
344.30,-1.31,1.61,-1.31,1.60,-1.60,-2.00,-1.80,-2.91,-2.91,-2.91
347.75,-1.33,1.56,-1.32,1.57,-1.57,-1.97,-1.75,-2.89,-2.89,-2.89
351.23,-1.33,1.54,-1.33,1.53,-1.54,-1.95,-1.70,-2.86,-2.87,-2.87
354.74,-1.35,1.50,-1.34,1.51,-1.51,-1.92,-1.65,-2.86,-2.85,-2.85
358.28,-1.35,1.48,-1.35,1.48,-1.48,-1.90,-1.61,-2.83,-2.83,-2.83
361.87,-1.35,1.46,-1.35,1.46,-1.46,-1.87,-1.57,-2.81,-2.81,-2.81
365.49,-1.35,1.43,-1.35,1.44,-1.44,-1.85,-1.52,-2.79,-2.79,-2.78
369.14,-1.35,1.43,-1.34,1.43,-1.43,-1.82,-1.48,-2.77,-2.77,-2.77
372.83,-1.34,1.42,-1.34,1.41,-1.41,-1.80,-1.44,-2.75,-2.75,-2.75
376.56,-1.33,1.41,-1.33,1.40,-1.40,-1.78,-1.40,-2.72,-2.73,-2.73
380.33,-1.33,1.38,-1.33,1.38,-1.38,-1.75,-1.36,-2.71,-2.71,-2.71
384.13,-1.32,1.37,-1.32,1.37,-1.37,-1.73,-1.33,-2.69,-2.69,-2.69
387.97,-1.32,1.35,-1.31,1.35,-1.36,-1.70,-1.29,-2.68,-2.67,-2.67
391.85,-1.30,1.35,-1.30,1.35,-1.35,-1.68,-1.26,-2.64,-2.65,-2.65
395.77,-1.29,1.33,-1.29,1.34,-1.34,-1.66,-1.23,-2.62,-2.62,-2.62
399.73,-1.27,1.33,-1.27,1.33,-1.33,-1.63,-1.19,-2.59,-2.60,-2.60
403.72,-1.26,1.32,-1.26,1.32,-1.32,-1.61,-1.16,-2.58,-2.58,-2.58
407.76,-1.25,1.31,-1.25,1.31,-1.31,-1.59,-1.13,-2.56,-2.56,-2.56
411.84,-1.24,1.29,-1.23,1.30,-1.30,-1.57,-1.10,-2.54,-2.54,-2.53
415.96,-1.22,1.30,-1.22,1.29,-1.30,-1.54,-1.08,-2.52,-2.52,-2.51
420.12,-1.20,1.30,-1.20,1.29,-1.29,-1.52,-1.05,-2.49,-2.49,-2.49
424.32,-1.18,1.29,-1.18,1.29,-1.29,-1.50,-1.03,-2.47,-2.47,-2.46
428.56,-1.16,1.29,-1.16,1.29,-1.29,-1.48,-1.00,-2.45,-2.45,-2.44
432.85,-1.14,1.29,-1.14,1.28,-1.29,-1.46,-0.98,-2.42,-2.42,-2.42
437.18,-1.12,1.28,-1.11,1.28,-1.28,-1.44,-0.95,-2.40,-2.40,-2.40
441.55,-1.09,1.28,-1.09,1.28,-1.28,-1.41,-0.93,-2.36,-2.37,-2.37
445.96,-1.07,1.28,-1.07,1.27,-1.27,-1.39,-0.91,-2.33,-2.34,-2.35
