frequency,raw
20.00,2.83
20.20,2.85
20.40,2.88
20.61,2.90
20.81,2.93
21.02,2.95
21.23,2.98
21.44,3.00
21.66,3.02
21.87,3.05
22.09,3.07
22.31,3.09
22.54,3.12
22.76,3.14
22.99,3.17
23.22,3.19
23.45,3.22
23.69,3.24
23.92,3.26
24.16,3.28
24.40,3.31
24.65,3.33
24.89,3.35
25.14,3.37
25.39,3.39
25.65,3.41
25.91,3.43
26.16,3.45
26.43,3.47
26.69,3.50
26.96,3.52
27.23,3.54
27.50,3.56
27.77,3.57
28.05,3.59
28.33,3.61
28.62,3.63
28.90,3.65
29.19,3.67
29.48,3.68
29.78,3.70
30.08,3.71
30.38,3.73
30.68,3.75
30.99,3.77
31.30,3.78
31.61,3.79
31.93,3.81
32.24,3.82
32.57,3.83
32.89,3.84
33.22,3.84
33.55,3.85
33.89,3.86
34.23,3.86
34.57,3.87
34.92,3.88
35.27,3.89
35.62,3.89
35.97,3.90
36.33,3.90
36.70,3.90
37.06,3.90
37.43,3.91
37.81,3.92
38.19,3.93
38.57,3.94
38.95,3.94
39.34,3.95
39.74,3.95
40.14,3.96
40.54,3.97
40.94,3.98
41.35,3.99
41.76,4.01
42.18,4.03
42.60,4.04
43.03,4.05
43.46,4.06
43.90,4.08
44.33,4.09
44.78,4.11
45.23,4.13
45.68,4.14
46.13,4.15
46.60,4.17
47.06,4.18
47.53,4.19
48.01,4.20
48.49,4.21
48.97,4.23
49.46,4.24
49.96,4.26
50.46,4.26
50.96,4.27
51.47,4.27
51.99,4.26
52.51,4.24
53.03,4.23
53.56,4.21
54.10,4.20
54.64,4.18
55.18,4.17
55.74,4.16
56.29,4.14
56.86,4.12
57.42,4.10
58.00,4.08
58.58,4.06
59.16,4.04
59.76,4.02
60.35,4.00
60.96,3.98
61.57,3.96
62.18,3.94
62.80,3.93
63.43,3.91
64.07,3.90
64.71,3.89
65.35,3.88
66.01,3.87
66.67,3.87
67.33,3.87
68.01,3.87
68.69,3.88
69.37,3.88
70.07,3.89
70.77,3.89
71.48,3.89
72.19,3.89
72.91,3.89
73.64,3.89
74.38,3.89
75.12,3.89
75.87,3.90
76.63,3.91
77.40,3.91
78.17,3.91
78.95,3.91
79.74,3.91
80.54,3.90
81.35,3.88
82.16,3.87
82.98,3.84
83.81,3.82
84.65,3.79
85.50,3.77
86.35,3.74
87.22,3.70
88.09,3.68
88.97,3.66
89.86,3.64
90.76,3.62
91.66,3.59
92.58,3.56
93.51,3.53
94.44,3.51
95.39,3.48
96.34,3.46
97.30,3.44
98.28,3.41
99.26,3.38
100.25,3.35
101.25,3.32
102.27,3.31
103.29,3.30
104.32,3.28
105.37,3.25
106.42,3.23
107.48,3.20
108.56,3.17
109.64,3.15
110.74,3.13
111.85,3.10
112.97,3.07
114.10,3.04
115.24,2.99
116.39,2.96
117.55,2.92
118.73,2.86
119.92,2.81
121.12,2.77
122.33,2.76
123.55,2.74
124.79,2.71
126.03,2.67
127.29,2.64
128.57,2.61
129.85,2.56
131.15,2.53
132.46,2.50
133.79,2.46
135.12,2.42
136.48,2.38
137.84,2.32
139.22,2.27
140.61,2.22
142.02,2.15
143.44,2.11
144.87,2.07
146.32,2.03
147.78,1.98
149.26,1.94
150.75,1.90
152.26,1.86
153.78,1.81
155.32,1.78
156.88,1.74
158.44,1.73
160.03,1.69
161.63,1.67
163.24,1.65
164.88,1.62
166.53,1.60
168.19,1.60
169.87,1.59
171.57,1.59
173.29,1.59
175.02,1.60
176.77,1.61
178.54,1.63
180.32,1.65
182.13,1.68
183.95,1.73
185.79,1.77
187.65,1.79
189.52,1.82
191.42,1.84
193.33,1.86
195.27,1.86
197.22,1.86
199.19,1.85
201.18,1.84
203.19,1.82
205.23,1.79
207.28,1.75
209.35,1.71
211.44,1.66
213.56,1.63
215.69,1.58
217.85,1.53
220.03,1.50
222.23,1.45
224.45,1.39
226.70,1.33
228.96,1.26
231.25,1.21
233.57,1.15
235.90,1.08
238.26,1.05
240.64,1.01
243.05,0.99
245.48,0.97
247.93,0.96
250.41,0.95
252.92,0.95
255.45,0.96
258.00,0.96
260.58,0.97
263.19,0.97
265.82,0.97
268.48,0.97
271.16,0.97
273.87,0.97
276.61,0.97
279.38,0.97
282.17,0.97
284.99,0.97
287.84,0.97
290.72,0.97
293.63,0.97
296.57,0.97
299.53,0.97
302.53,0.96
305.55,0.95
308.61,0.95
311.69,0.96
314.81,0.97
317.96,0.98
321.14,1.00
324.35,1.02
327.59,1.05
330.87,1.08
334.18,1.13
337.52,1.18
340.90,1.23
344.30,1.28
347.75,1.32
351.23,1.38
354.74,1.43
358.28,1.50
361.87,1.55
365.49,1.59
369.14,1.63
372.83,1.68
376.56,1.75
380.33,1.81
384.13,1.86
387.97,1.91
391.85,1.95
395.77,1.99
399.73,2.06
403.72,2.13
407.76,2.20
411.84,2.26
415.96,2.31
420.12,2.35
424.32,2.39
428.56,2.44
432.85,2.49
437.18,2.54
441.55,2.59
445.96,2.63
450.42,2.68
454.93,2.72
459.48,2.76
464.07,2.79
468.71,2.80
473.40,2.83
478.13,2.85
482.91,2.89
487.74,2.93
492.62,2.97
497.55,3.00
502.52,3.03
507.55,3.05
512.62,3.07
517.75,3.11
522.93,3.14
528.16,3.17
533.44,3.20
538.77,3.23
544.16,3.26
549.60,3.28
555.10,3.29
560.65,3.28
566.25,3.27
571.92,3.24
577.64,3.21
583.41,3.19
589.25,3.15
595.14,3.12
601.09,3.08
607.10,3.05
613.17,3.04
619.30,3.01
625.50,2.98
631.75,2.95
638.07,2.91
644.45,2.89
650.89,2.86
657.40,2.84
663.98,2.82
670.62,2.79
677.32,2.74
684.10,2.70
690.94,2.65
697.85,2.58
704.83,2.52
711.87,2.46
718.99,2.40
726.18,2.33
733.44,2.26
740.78,2.19
748.19,2.14
755.67,2.07
763.23,1.99
770.86,1.91
778.57,1.84
786.35,1.77
794.22,1.70
802.16,1.62
810.18,1.54
818.28,1.46
826.46,1.39
834.73,1.33
843.08,1.25
851.51,1.16
860.02,1.10
868.62,1.05
877.31,0.97
886.08,0.89
894.94,0.82
903.89,0.76
912.93,0.70
922.06,0.63
931.28,0.56
940.59,0.50
950.00,0.44
959.50,0.36
969.09,0.27
978.78,0.19
988.57,0.10
998.46,0.01
1008.44,-0.08
1018.53,-0.18
1028.71,-0.29
1039.00,-0.40
1049.39,-0.51
1059.88,-0.64
1070.48,-0.75
1081.19,-0.86
1092.00,-0.98
1102.92,-1.10
1113.95,-1.22
1125.09,-1.32
1136.34,-1.44
1147.70,-1.57
1159.18,-1.67
1170.77,-1.79
1182.48,-1.90
1194.30,-2.01
1206.25,-2.12
1218.31,-2.24
1230.49,-2.36
1242.80,-2.47
1255.22,-2.58
1267.78,-2.68
1280.45,-2.79
1293.26,-2.88
1306.19,-2.98
1319.25,-3.07
1332.45,-3.16
1345.77,-3.25
1359.23,-3.33
1372.82,-3.38
1386.55,-3.44
1400.41,-3.48
1414.42,-3.51
1428.56,-3.55
1442.85,-3.58
1457.28,-3.59
1471.85,-3.60
1486.57,-3.60
1501.43,-3.59
1516.45,-3.57
1531.61,-3.53
1546.93,-3.49
1562.40,-3.44
1578.02,-3.39
1593.80,-3.33
1609.74,-3.26
1625.84,-3.19
1642.10,-3.10
1658.52,-3.02
1675.10,-2.93
1691.85,-2.83
1708.77,-2.73
1725.86,-2.62
1743.12,-2.50
1760.55,-2.37
1778.15,-2.24
1795.94,-2.10
1813.90,-1.95
1832.03,-1.80
1850.36,-1.62
1868.86,-1.44
1887.55,-1.27
1906.42,-1.09
1925.49,-0.90
1944.74,-0.72
1964.19,-0.54
1983.83,-0.36
2003.67,-0.18
2023.71,0.01
2043.94,0.21
2064.38,0.41
2085.03,0.60
2105.88,0.80
2126.94,0.99
2148.20,1.19
2169.69,1.37
2191.38,1.56
2213.30,1.74
2235.43,1.93
2257.78,2.10
2280.36,2.26
2303.17,2.39
2326.20,2.52
2349.46,2.62
2372.95,2.70
2396.68,2.77
2420.65,2.83
2444.86,2.87
2469.31,2.92
2494.00,2.95
2518.94,2.97
2544.13,2.97
2569.57,2.98
2595.27,2.98
2621.22,2.96
2647.43,2.91
2673.90,2.86
2700.64,2.80
2727.65,2.74
2754.93,2.66
2782.48,2.56
2810.30,2.44
2838.40,2.30
2866.79,2.15
2895.46,1.99
2924.41,1.81
2953.65,1.61
2983.19,1.42
3013.02,1.22
3043.15,1.02
3073.58,0.78
3104.32,0.55
3135.36,0.33
3166.72,0.11
3198.38,-0.12
3230.37,-0.35
3262.67,-0.56
3295.30,-0.76
3328.25,-0.96
3361.53,-1.15
3395.15,-1.34
3429.10,-1.51
3463.39,-1.67
3498.03,-1.82
3533.01,-1.95
3568.34,-2.06
3604.02,-2.13
3640.06,-2.17
3676.46,-2.19
3713.22,-2.17
3750.36,-2.12
3787.86,-2.03
3825.74,-1.91
3864.00,-1.76
3902.64,-1.58
3941.66,-1.37
3981.08,-1.15
4020.89,-0.92
4061.10,-0.69
4101.71,-0.45
4142.73,-0.20
4184.15,0.05
4226.00,0.28
4268.26,0.51
4310.94,0.72
4354.05,0.92
4397.59,1.12
4441.56,1.29
4485.98,1.45
4530.84,1.58
4576.15,1.70
4621.91,1.81
4668.13,1.88
4714.81,1.94
4761.96,1.97
4809.58,2.00
4857.67,1.98
4906.25,1.95
4955.31,1.91
5004.87,1.86
5054.91,1.79
5105.46,1.69
5156.52,1.58
5208.08,1.46
5260.16,1.32
5312.77,1.18
5365.89,1.03
5419.55,0.88
5473.75,0.72
5528.49,0.55
5583.77,0.38
5639.61,0.21
5696.00,0.02
5752.96,-0.17
5810.49,-0.37
5868.60,-0.56
5927.28,-0.77
5986.56,-0.98
6046.42,-1.17
6106.89,-1.37
6167.96,-1.56
6229.64,-1.76
6291.93,-1.96
6354.85,-2.15
6418.40,-2.33
6482.58,-2.50
6547.41,-2.69
6612.88,-2.89
6679.01,-3.12
6745.80,-3.36
6813.26,-3.63
6881.39,-3.91
6950.21,-4.19
7019.71,-4.48
7089.91,-4.76
7160.81,-5.05
7232.41,-5.31
7304.74,-5.57
7377.79,-5.82
7451.56,-6.04
7526.08,-6.25
7601.34,-6.43
7677.35,-6.59
7754.13,-6.72
7831.67,-6.84
7909.98,-6.95
7989.08,-7.08
8068.98,-7.21
8149.67,-7.35
8231.16,-7.48
8313.47,-7.62
8396.61,-7.76
8480.57,-7.91
8565.38,-8.07
8651.03,-8.23
8737.54,-8.39
8824.92,-8.57
8913.17,-8.74
9002.30,-8.90
9092.32,-9.06
9183.25,-9.23
9275.08,-9.40
9367.83,-9.57
9461.51,-9.73
9556.12,-9.89
9651.68,-10.06
9748.20,-10.22
9845.68,-10.35
9944.14,-10.47
10043.58,-10.56
10144.02,-10.63
10245.46,-10.68
10347.91,-10.69
10451.39,-10.64
10555.91,-10.56
10661.46,-10.45
10768.08,-10.32
10875.76,-10.17
10984.52,-10.01
11094.36,-9.85
11205.31,-9.68
11317.36,-9.51
11430.53,-9.34
11544.84,-9.17
11660.29,-9.00
11776.89,-8.84
11894.66,-8.69
12013.60,-8.51
12133.74,-8.32
12255.08,-8.12
12377.63,-7.91
12501.41,-7.67
12626.42,-7.43
12752.68,-7.17
12880.21,-6.92
13009.01,-6.67
13139.10,-6.46
13270.49,-6.25
13403.20,-6.08
13537.23,-5.92
13672.60,-5.79
13809.33,-5.68
13947.42,-5.60
14086.90,-5.53
14227.77,-5.49
14370.04,-5.47
14513.74,-5.45
14658.88,-5.44
14805.47,-5.44
14953.52,-5.46
15103.06,-5.49
15254.09,-5.53
15406.63,-5.60
15560.70,-5.68
15716.30,-5.79
15873.47,-5.93
16032.20,-6.11
16192.52,-6.32
16354.45,-6.56
16517.99,-6.83
16683.17,-7.11
16850.01,-7.40
17018.51,-7.70
17188.69,-8.00
17360.58,-8.30
17534.18,-8.60
17709.53,-8.86
17886.62,-9.11
18065.49,-9.36
18246.14,-9.61
18428.60,-9.86
18612.89,-10.11
18799.02,-10.36
18987.01,-10.59
19176.88,-10.83
19368.65,-11.06
19562.33,-11.28
19757.96,-11.50
19955.54,-11.71
