frequency,raw
20.00,-14.45
20.20,-14.34
20.40,-14.22
20.61,-14.11
20.81,-13.99
21.02,-13.88
21.23,-13.76
21.44,-13.64
21.66,-13.53
21.87,-13.41
22.09,-13.29
22.31,-13.17
22.54,-13.06
22.76,-12.94
22.99,-12.83
23.22,-12.71
23.45,-12.59
23.69,-12.47
23.92,-12.36
24.16,-12.24
24.40,-12.12
24.65,-12.01
24.89,-11.89
25.14,-11.77
25.39,-11.65
25.65,-11.53
25.91,-11.41
26.16,-11.30
26.43,-11.18
26.69,-11.07
26.96,-10.96
27.23,-10.84
27.50,-10.73
27.77,-10.61
28.05,-10.50
28.33,-10.39
28.62,-10.27
28.90,-10.16
29.19,-10.05
29.48,-9.94
29.78,-9.82
30.08,-9.72
30.38,-9.62
30.68,-9.52
30.99,-9.42
31.30,-9.33
31.61,-9.23
31.93,-9.13
32.24,-9.04
32.57,-8.94
32.89,-8.84
33.22,-8.75
33.55,-8.65
33.89,-8.56
34.23,-8.47
34.57,-8.38
34.92,-8.28
35.27,-8.19
35.62,-8.10
35.97,-8.01
36.33,-7.92
36.70,-7.82
37.06,-7.73
37.43,-7.64
37.81,-7.55
38.19,-7.45
38.57,-7.36
38.95,-7.27
39.34,-7.18
39.74,-7.08
40.14,-6.99
40.54,-6.90
40.94,-6.81
41.35,-6.72
41.76,-6.62
42.18,-6.52
42.60,-6.41
43.03,-6.31
43.46,-6.21
43.90,-6.11
44.33,-6.02
44.78,-5.92
45.23,-5.82
45.68,-5.72
46.13,-5.62
46.60,-5.53
47.06,-5.44
47.53,-5.35
48.01,-5.27
48.49,-5.19
48.97,-5.11
49.46,-5.05
49.96,-4.99
50.46,-4.92
50.96,-4.86
51.47,-4.81
51.99,-4.77
52.51,-4.74
53.03,-4.71
53.56,-4.68
54.10,-4.65
54.64,-4.63
55.18,-4.62
55.74,-4.62
56.29,-4.62
56.86,-4.63
57.42,-4.64
58.00,-4.65
58.58,-4.66
59.16,-4.67
59.76,-4.68
60.35,-4.68
60.96,-4.69
61.57,-4.68
62.18,-4.67
62.80,-4.66
63.43,-4.63
64.07,-4.61
64.71,-4.57
65.35,-4.53
66.01,-4.48
66.67,-4.43
67.33,-4.36
68.01,-4.29
68.69,-4.20
69.37,-4.11
70.07,-4.01
70.77,-3.90
71.48,-3.79
72.19,-3.68
72.91,-3.57
73.64,-3.45
74.38,-3.33
75.12,-3.21
75.87,-3.10
76.63,-2.99
77.40,-2.88
78.17,-2.77
78.95,-2.66
79.74,-2.54
80.54,-2.43
81.35,-2.33
82.16,-2.23
82.98,-2.13
83.81,-2.02
84.65,-1.92
85.50,-1.83
86.35,-1.74
87.22,-1.65
88.09,-1.55
88.97,-1.44
89.86,-1.36
90.76,-1.28
91.66,-1.21
92.58,-1.13
93.51,-1.06
94.44,-0.99
95.39,-0.92
96.34,-0.84
97.30,-0.76
98.28,-0.68
99.26,-0.62
100.25,-0.54
101.25,-0.48
102.27,-0.41
103.29,-0.37
104.32,-0.32
105.37,-0.25
106.42,-0.18
107.48,-0.10
108.56,-0.03
109.64,0.05
110.74,0.11
111.85,0.19
112.97,0.27
114.10,0.34
115.24,0.41
116.39,0.46
117.55,0.53
118.73,0.63
119.92,0.71
121.12,0.79
122.33,0.84
123.55,0.91
124.79,1.01
126.03,1.09
127.29,1.13
128.57,1.18
129.85,1.27
131.15,1.34
132.46,1.38
133.79,1.45
135.12,1.53
136.48,1.57
137.84,1.61
139.22,1.65
140.61,1.70
142.02,1.75
143.44,1.77
144.87,1.80
146.32,1.81
147.78,1.83
149.26,1.84
150.75,1.85
152.26,1.85
153.78,1.84
155.32,1.84
156.88,1.85
158.44,1.84
160.03,1.83
161.63,1.82
163.24,1.81
164.88,1.78
166.53,1.75
168.19,1.72
169.87,1.66
171.57,1.61
173.29,1.55
175.02,1.46
176.77,1.39
178.54,1.30
180.32,1.21
182.13,1.11
183.95,0.98
185.79,0.87
187.65,0.77
189.52,0.66
191.42,0.54
193.33,0.42
195.27,0.30
197.22,0.19
199.19,0.07
201.18,-0.05
203.19,-0.16
205.23,-0.27
207.28,-0.39
209.35,-0.49
211.44,-0.59
213.56,-0.67
215.69,-0.77
217.85,-0.86
220.03,-0.92
222.23,-0.98
224.45,-1.06
226.70,-1.13
228.96,-1.19
231.25,-1.23
233.57,-1.26
235.90,-1.31
238.26,-1.34
240.64,-1.38
243.05,-1.42
245.48,-1.46
247.93,-1.52
250.41,-1.55
252.92,-1.59
255.45,-1.61
258.00,-1.64
260.58,-1.67
263.19,-1.69
265.82,-1.71
268.48,-1.72
271.16,-1.73
273.87,-1.75
276.61,-1.76
279.38,-1.77
282.17,-1.78
284.99,-1.80
287.84,-1.85
290.72,-1.88
293.63,-1.91
296.57,-1.94
299.53,-1.98
302.53,-2.01
305.55,-2.02
308.61,-2.04
311.69,-2.06
314.81,-2.07
317.96,-2.09
321.14,-2.10
324.35,-2.13
327.59,-2.14
330.87,-2.15
334.18,-2.18
337.52,-2.23
340.90,-2.27
344.30,-2.33
347.75,-2.37
351.23,-2.43
354.74,-2.48
358.28,-2.54
361.87,-2.58
365.49,-2.62
369.14,-2.65
372.83,-2.66
376.56,-2.70
380.33,-2.73
384.13,-2.76
387.97,-2.77
391.85,-2.77
395.77,-2.76
399.73,-2.73
403.72,-2.70
407.76,-2.67
411.84,-2.62
415.96,-2.56
420.12,-2.47
424.32,-2.36
428.56,-2.26
432.85,-2.14
437.18,-1.98
441.55,-1.84
445.96,-1.67
450.42,-1.48
454.93,-1.33
459.48,-1.15
464.07,-1.01
468.71,-0.86
473.40,-0.70
478.13,-0.56
482.91,-0.43
487.74,-0.32
492.62,-0.22
497.55,-0.13
502.52,-0.04
507.55,0.03
512.62,0.09
517.75,0.13
522.93,0.16
528.16,0.19
533.44,0.20
538.77,0.22
544.16,0.22
549.60,0.23
555.10,0.23
560.65,0.21
566.25,0.20
571.92,0.20
577.64,0.20
583.41,0.20
589.25,0.20
595.14,0.20
601.09,0.20
607.10,0.20
613.17,0.20
619.30,0.20
625.50,0.20
631.75,0.20
638.07,0.20
644.45,0.20
650.89,0.20
657.40,0.20
663.98,0.20
670.62,0.20
677.32,0.20
684.10,0.20
690.94,0.20
697.85,0.20
704.83,0.20
711.87,0.20
718.99,0.20
726.18,0.20
733.44,0.20
740.78,0.20
748.19,0.20
755.67,0.20
763.23,0.20
770.86,0.20
778.57,0.20
786.35,0.20
794.22,0.20
802.16,0.20
810.18,0.20
818.28,0.20
826.46,0.20
834.73,0.20
843.08,0.20
851.51,0.20
860.02,0.20
868.62,0.20
877.31,0.20
886.08,0.20
894.94,0.22
903.89,0.23
912.93,0.23
922.06,0.22
931.28,0.20
940.59,0.18
950.00,0.16
959.50,0.14
969.09,0.11
978.78,0.07
988.57,0.04
998.46,0.01
1008.44,-0.02
1018.53,-0.05
1028.71,-0.07
1039.00,-0.09
1049.39,-0.12
1059.88,-0.15
1070.48,-0.18
1081.19,-0.20
1092.00,-0.22
1102.92,-0.24
1113.95,-0.26
1125.09,-0.29
1136.34,-0.33
1147.70,-0.37
1159.18,-0.41
1170.77,-0.45
1182.48,-0.50
1194.30,-0.55
1206.25,-0.59
1218.31,-0.63
1230.49,-0.68
1242.80,-0.73
1255.22,-0.79
1267.78,-0.85
1280.45,-0.94
1293.26,-1.02
1306.19,-1.09
1319.25,-1.17
1332.45,-1.25
1345.77,-1.32
1359.23,-1.41
1372.82,-1.51
1386.55,-1.60
1400.41,-1.69
1414.42,-1.79
1428.56,-1.90
1442.85,-2.00
1457.28,-2.10
1471.85,-2.21
1486.57,-2.31
1501.43,-2.41
1516.45,-2.51
1531.61,-2.60
1546.93,-2.69
1562.40,-2.78
1578.02,-2.86
1593.80,-2.94
1609.74,-3.01
1625.84,-3.08
1642.10,-3.14
1658.52,-3.19
1675.10,-3.23
1691.85,-3.27
1708.77,-3.31
1725.86,-3.34
1743.12,-3.36
1760.55,-3.37
1778.15,-3.38
1795.94,-3.39
1813.90,-3.41
1832.03,-3.40
1850.36,-3.40
1868.86,-3.40
1887.55,-3.39
1906.42,-3.37
1925.49,-3.35
1944.74,-3.31
1964.19,-3.26
1983.83,-3.20
2003.67,-3.14
2023.71,-3.07
2043.94,-2.97
2064.38,-2.86
2085.03,-2.74
2105.88,-2.60
2126.94,-2.47
2148.20,-2.32
2169.69,-2.18
2191.38,-2.02
2213.30,-1.86
2235.43,-1.70
2257.78,-1.53
2280.36,-1.36
2303.17,-1.18
2326.20,-1.00
2349.46,-0.82
2372.95,-0.64
2396.68,-0.47
2420.65,-0.30
2444.86,-0.13
2469.31,0.03
2494.00,0.21
2518.94,0.38
2544.13,0.53
2569.57,0.68
2595.27,0.82
2621.22,0.96
2647.43,1.10
2673.90,1.22
2700.64,1.32
2727.65,1.43
2754.93,1.53
2782.48,1.61
2810.30,1.70
2838.40,1.77
2866.79,1.84
2895.46,1.90
2924.41,1.97
2953.65,2.04
2983.19,2.10
3013.02,2.15
3043.15,2.21
3073.58,2.25
3104.32,2.30
3135.36,2.36
3166.72,2.42
3198.38,2.49
3230.37,2.54
3262.67,2.60
3295.30,2.68
3328.25,2.77
3361.53,2.85
3395.15,2.92
3429.10,2.99
3463.39,3.07
3498.03,3.16
3533.01,3.25
3568.34,3.33
3604.02,3.40
3640.06,3.47
3676.46,3.52
3713.22,3.58
3750.36,3.61
3787.86,3.66
3825.74,3.69
3864.00,3.72
3902.64,3.75
3941.66,3.76
3981.08,3.78
4020.89,3.79
4061.10,3.80
4101.71,3.79
4142.73,3.78
4184.15,3.77
4226.00,3.77
4268.26,3.77
4310.94,3.77
4354.05,3.77
4397.59,3.77
4441.56,3.77
4485.98,3.77
4530.84,3.77
4576.15,3.77
4621.91,3.77
4668.13,3.77
4714.81,3.77
4761.96,3.77
4809.58,3.77
4857.67,3.77
4906.25,3.77
4955.31,3.77
5004.87,3.77
5054.91,3.77
5105.46,3.77
5156.52,3.76
5208.08,3.75
5260.16,3.75
5312.77,3.75
5365.89,3.76
5419.55,3.77
5473.75,3.79
5528.49,3.81
5583.77,3.83
5639.61,3.85
5696.00,3.88
5752.96,3.91
5810.49,3.96
5868.60,4.02
5927.28,4.08
5986.56,4.15
6046.42,4.22
6106.89,4.30
6167.96,4.38
6229.64,4.46
6291.93,4.55
6354.85,4.63
6418.40,4.71
6482.58,4.78
6547.41,4.83
6612.88,4.86
6679.01,4.89
6745.80,4.90
6813.26,4.89
6881.39,4.88
6950.21,4.88
7019.71,4.89
7089.91,4.91
7160.81,4.94
7232.41,4.98
7304.74,5.04
7377.79,5.12
7451.56,5.23
7526.08,5.36
7601.34,5.51
7677.35,5.67
7754.13,5.82
7831.67,5.97
7909.98,6.12
7989.08,6.26
8068.98,6.39
8149.67,6.52
8231.16,6.63
8313.47,6.72
8396.61,6.80
8480.57,6.87
8565.38,6.93
8651.03,6.97
8737.54,7.02
8824.92,7.06
8913.17,7.09
9002.30,7.09
9092.32,7.08
9183.25,7.06
9275.08,7.00
9367.83,6.92
9461.51,6.82
9556.12,6.69
9651.68,6.54
9748.20,6.38
9845.68,6.19
9944.14,5.99
10043.58,5.76
10144.02,5.53
10245.46,5.29
10347.91,5.04
10451.39,4.80
10555.91,4.55
10661.46,4.30
10768.08,4.07
10875.76,3.85
10984.52,3.64
11094.36,3.45
11205.31,3.27
11317.36,3.11
11430.53,2.99
11544.84,2.89
11660.29,2.83
11776.89,2.80
11894.66,2.79
12013.60,2.81
12133.74,2.83
12255.08,2.88
12377.63,2.93
12501.41,2.98
12626.42,3.03
12752.68,3.07
12880.21,3.12
13009.01,3.17
13139.10,3.21
13270.49,3.24
13403.20,3.25
13537.23,3.22
13672.60,3.16
13809.33,3.05
13947.42,2.91
14086.90,2.70
14227.77,2.43
14370.04,2.11
14513.74,1.73
14658.88,1.31
14805.47,0.87
14953.52,0.41
15103.06,-0.06
15254.09,-0.50
15406.63,-0.91
15560.70,-1.27
15716.30,-1.58
15873.47,-1.84
16032.20,-2.04
16192.52,-2.20
16354.45,-2.34
16517.99,-2.44
16683.17,-2.52
16850.01,-2.59
17018.51,-2.67
17188.69,-2.77
17360.58,-2.88
17534.18,-3.00
17709.53,-3.14
17886.62,-3.28
18065.49,-3.43
18246.14,-3.59
18428.60,-3.78
18612.89,-3.97
18799.02,-4.17
18987.01,-4.39
19176.88,-4.62
19368.65,-4.86
19562.33,-5.11
19757.96,-5.37
19955.54,-5.65
