frequency,raw,smoothed,error,error_smoothed,equalization,parametric_eq,fixed_band_eq,equalized_raw,equalized_smoothed,target
20.00,8.42,8.42,-1.82,-1.82,1.85,1.07,0.37,10.27,10.27,10.24
20.20,8.46,8.45,-1.78,-1.78,1.79,1.06,0.38,10.25,10.25,10.24
20.40,8.50,8.49,-1.74,-1.74,1.74,1.05,0.40,10.23,10.23,10.24
20.61,8.53,8.53,-1.70,-1.70,1.68,1.05,0.41,10.22,10.22,10.24
20.81,8.58,8.58,-1.66,-1.66,1.64,1.04,0.42,10.21,10.21,10.24
21.02,8.62,8.62,-1.62,-1.62,1.60,1.03,0.44,10.21,10.21,10.24
21.23,8.67,8.66,-1.57,-1.57,1.56,1.03,0.45,10.22,10.22,10.24
21.44,8.71,8.71,-1.53,-1.53,1.53,1.02,0.47,10.23,10.23,10.23
21.66,8.74,8.75,-1.49,-1.48,1.50,1.01,0.48,10.24,10.25,10.23
21.87,8.80,8.79,-1.44,-1.45,1.48,1.00,0.50,10.27,10.26,10.23
22.09,8.82,8.81,-1.42,-1.42,1.46,1.00,0.51,10.28,10.27,10.23
22.31,8.81,8.81,-1.43,-1.42,1.45,0.99,0.53,10.25,10.26,10.23
22.54,8.80,8.79,-1.43,-1.44,1.43,0.98,0.55,10.23,10.22,10.23
22.76,8.79,8.78,-1.44,-1.45,1.41,0.97,0.56,10.19,10.19,10.23
22.99,8.78,8.80,-1.45,-1.43,1.38,0.96,0.58,10.16,10.18,10.23
23.22,8.84,8.83,-1.39,-1.39,1.35,0.95,0.60,10.19,10.18,10.23
23.45,8.91,8.90,-1.32,-1.32,1.31,0.95,0.62,10.22,10.21,10.23
23.69,8.97,8.98,-1.25,-1.25,1.27,0.94,0.64,10.25,10.25,10.23
23.92,9.05,9.03,-1.18,-1.19,1.23,0.93,0.66,10.28,10.26,10.22
24.16,9.08,9.07,-1.15,-1.15,1.19,0.92,0.68,10.26,10.26,10.22
24.40,9.09,9.09,-1.14,-1.13,1.15,0.91,0.70,10.24,10.24,10.22
24.65,9.10,9.10,-1.13,-1.12,1.12,0.90,0.72,10.21,10.22,10.22
24.89,9.11,9.11,-1.11,-1.11,1.10,0.89,0.74,10.20,10.20,10.22
25.14,9.13,9.12,-1.09,-1.09,1.08,0.88,0.76,10.20,10.20,10.22
25.39,9.15,9.15,-1.07,-1.07,1.06,0.87,0.78,10.20,10.20,10.22
25.65,9.18,9.17,-1.04,-1.04,1.04,0.86,0.80,10.21,10.21,10.21
25.91,9.20,9.20,-1.01,-1.01,1.01,0.85,0.82,10.21,10.21,10.21
26.16,9.24,9.24,-0.98,-0.98,0.98,0.84,0.83,10.22,10.21,10.21
26.43,9.26,9.27,-0.95,-0.94,0.95,0.82,0.85,10.21,10.21,10.21
26.69,9.30,9.29,-0.91,-0.91,0.91,0.81,0.87,10.21,10.21,10.21
26.96,9.33,9.32,-0.88,-0.89,0.88,0.80,0.89,10.21,10.20,10.21
27.23,9.35,9.35,-0.86,-0.86,0.85,0.79,0.91,10.20,10.20,10.20
27.50,9.38,9.38,-0.83,-0.83,0.83,0.78,0.92,10.20,10.21,10.20
27.77,9.41,9.40,-0.80,-0.80,0.81,0.76,0.94,10.21,10.21,10.20
28.05,9.43,9.42,-0.77,-0.78,0.79,0.75,0.95,10.21,10.21,10.20
28.33,9.44,9.43,-0.76,-0.76,0.77,0.74,0.97,10.21,10.20,10.20
28.62,9.44,9.44,-0.76,-0.76,0.75,0.72,0.98,10.19,10.19,10.19
28.90,9.45,9.45,-0.75,-0.74,0.74,0.71,0.99,10.18,10.18,10.19
29.19,9.47,9.46,-0.72,-0.73,0.72,0.70,1.00,10.18,10.18,10.19
29.48,9.49,9.48,-0.70,-0.70,0.70,0.68,1.00,10.18,10.18,10.19
29.78,9.51,9.51,-0.68,-0.68,0.67,0.67,1.01,10.18,10.18,10.19
30.08,9.53,9.53,-0.65,-0.65,0.65,0.65,1.01,10.18,10.18,10.18
30.38,9.56,9.56,-0.61,-0.62,0.61,0.64,1.01,10.18,10.18,10.18
30.68,9.60,9.60,-0.58,-0.58,0.58,0.62,1.01,10.18,10.17,10.18
30.99,9.62,9.63,-0.55,-0.55,0.55,0.60,1.00,10.17,10.17,10.17
31.30,9.65,9.66,-0.52,-0.51,0.52,0.59,1.00,10.18,10.18,10.17
31.61,9.69,9.69,-0.48,-0.48,0.49,0.57,0.99,10.18,10.18,10.17
31.93,9.71,9.71,-0.45,-0.45,0.47,0.55,0.98,10.18,10.18,10.16
32.24,9.73,9.72,-0.44,-0.44,0.45,0.54,0.97,10.17,10.17,10.16
32.57,9.73,9.72,-0.43,-0.43,0.42,0.52,0.95,10.15,10.15,10.16
32.89,9.73,9.73,-0.43,-0.42,0.40,0.50,0.94,10.13,10.14,10.15
33.22,9.75,9.75,-0.40,-0.40,0.39,0.48,0.92,10.13,10.14,10.15
33.55,9.79,9.78,-0.36,-0.36,0.37,0.46,0.90,10.15,10.15,10.15
33.89,9.82,9.81,-0.33,-0.33,0.35,0.44,0.87,10.16,10.16,10.14
34.23,9.83,9.82,-0.31,-0.32,0.33,0.42,0.85,10.15,10.15,10.14
34.57,9.83,9.83,-0.31,-0.31,0.30,0.40,0.82,10.13,10.13,10.13
34.92,9.83,9.83,-0.30,-0.30,0.28,0.38,0.80,10.10,10.11,10.13
35.27,9.85,9.86,-0.27,-0.27,0.25,0.36,0.77,10.11,10.11,10.12
35.62,9.89,9.89,-0.23,-0.23,0.23,0.34,0.74,10.12,10.12,10.12
35.97,9.93,9.91,-0.19,-0.20,0.22,0.32,0.71,10.14,10.13,10.11
36.33,9.93,9.93,-0.18,-0.18,0.20,0.30,0.68,10.13,10.13,10.11
36.70,9.93,9.93,-0.18,-0.17,0.19,0.28,0.64,10.11,10.12,10.10
37.06,9.93,9.93,-0.17,-0.17,0.18,0.26,0.61,10.10,10.10,10.10
37.43,9.93,9.93,-0.17,-0.17,0.17,0.24,0.57,10.09,10.09,10.09
37.81,9.93,9.93,-0.16,-0.16,0.16,0.21,0.54,10.08,10.08,10.09
38.19,9.93,9.92,-0.15,-0.16,0.15,0.19,0.50,10.07,10.07,10.08
38.57,9.93,9.92,-0.15,-0.15,0.13,0.17,0.47,10.06,10.05,10.07
38.95,9.93,9.93,-0.14,-0.13,0.11,0.15,0.43,10.04,10.05,10.07
39.34,9.96,9.96,-0.10,-0.10,0.09,0.13,0.40,10.05,10.05,10.06
39.74,10.00,9.99,-0.06,-0.06,0.07,0.11,0.36,10.07,10.06,10.05
40.14,10.02,10.02,-0.02,-0.03,0.05,0.08,0.32,10.08,10.07,10.04
40.54,10.03,10.03,-0.01,-0.01,0.03,0.06,0.29,10.06,10.06,10.04
40.94,10.03,10.03,-0.00,-0.00,0.01,0.04,0.25,10.03,10.03,10.03
41.35,10.03,10.02,0.01,0.00,-0.02,0.02,0.21,10.00,10.00,10.02
41.76,10.03,10.03,0.01,0.02,-0.05,0.00,0.18,9.98,9.99,10.01
42.18,10.05,10.05,0.04,0.05,-0.07,-0.02,0.14,9.98,9.99,10.00
42.60,10.09,10.08,0.09,0.09,-0.09,-0.04,0.10,10.00,9.99,9.99
43.03,10.13,10.11,0.14,0.13,-0.11,-0.06,0.06,10.01,10.00,9.98
43.46,10.13,10.13,0.15,0.15,-0.13,-0.08,0.03,9.99,9.99,9.97
43.90,10.13,10.13,0.16,0.17,-0.16,-0.10,-0.01,9.97,9.97,9.96
44.33,10.13,10.13,0.17,0.17,-0.18,-0.12,-0.05,9.95,9.95,9.95
44.78,10.13,10.13,0.18,0.18,-0.19,-0.14,-0.08,9.93,9.93,9.94
45.23,10.13,10.13,0.20,0.20,-0.20,-0.16,-0.12,9.92,9.92,9.93
45.68,10.13,10.13,0.21,0.21,-0.21,-0.18,-0.16,9.92,9.92,9.92
46.13,10.13,10.13,0.22,0.22,-0.22,-0.20,-0.19,9.91,9.91,9.90
46.60,10.13,10.13,0.23,0.23,-0.23,-0.22,-0.23,9.90,9.90,9.89
47.06,10.13,10.13,0.25,0.25,-0.24,-0.24,-0.27,9.88,9.88,9.88
47.53,10.13,10.13,0.26,0.26,-0.26,-0.26,-0.30,9.86,9.86,9.86
48.01,10.13,10.12,0.28,0.27,-0.28,-0.28,-0.34,9.84,9.84,9.85
48.49,10.13,10.12,0.29,0.29,-0.31,-0.30,-0.38,9.81,9.81,9.84
48.97,10.13,10.14,0.31,0.32,-0.34,-0.32,-0.41,9.79,9.80,9.82
49.46,10.18,10.18,0.37,0.37,-0.37,-0.34,-0.45,9.80,9.80,9.80
49.96,10.23,10.21,0.44,0.42,-0.40,-0.36,-0.49,9.82,9.80,9.79
50.46,10.23,10.23,0.45,0.46,-0.43,-0.39,-0.52,9.79,9.79,9.77
50.96,10.23,10.23,0.47,0.48,-0.46,-0.41,-0.56,9.76,9.77,9.75
51.47,10.23,10.23,0.49,0.49,-0.49,-0.43,-0.59,9.73,9.73,9.74
51.99,10.23,10.23,0.51,0.51,-0.51,-0.46,-0.63,9.71,9.71,9.72
52.51,10.23,10.23,0.53,0.53,-0.53,-0.48,-0.67,9.69,9.69,9.70
53.03,10.23,10.23,0.55,0.55,-0.55,-0.51,-0.70,9.67,9.67,9.68
53.56,10.23,10.23,0.57,0.57,-0.57,-0.53,-0.74,9.66,9.66,9.66
54.10,10.23,10.23,0.59,0.59,-0.59,-0.56,-0.77,9.64,9.64,9.64
54.64,10.23,10.23,0.61,0.61,-0.61,-0.59,-0.81,9.61,9.61,9.61
55.18,10.23,10.23,0.63,0.63,-0.63,-0.61,-0.84,9.59,9.59,9.59
55.74,10.23,10.23,0.66,0.66,-0.66,-0.64,-0.88,9.57,9.57,9.57
56.29,10.23,10.23,0.68,0.68,-0.68,-0.67,-0.91,9.54,9.54,9.54
56.86,10.23,10.23,0.71,0.71,-0.71,-0.70,-0.94,9.52,9.52,9.52
57.42,10.23,10.23,0.73,0.73,-0.73,-0.73,-0.98,9.49,9.49,9.49
58.00,10.23,10.23,0.76,0.76,-0.76,-0.76,-1.01,9.47,9.47,9.47
58.58,10.23,10.23,0.79,0.79,-0.79,-0.79,-1.04,9.44,9.44,9.44
59.16,10.23,10.23,0.81,0.81,-0.82,-0.82,-1.07,9.41,9.41,9.41
59.76,10.23,10.23,0.84,0.84,-0.85,-0.85,-1.10,9.38,9.38,9.38
60.35,10.23,10.23,0.87,0.87,-0.88,-0.89,-1.13,9.35,9.35,9.35
60.96,10.23,10.23,0.90,0.90,-0.91,-0.92,-1.16,9.32,9.32,9.32
61.57,10.23,10.23,0.93,0.94,-0.93,-0.95,-1.19,9.29,9.30,9.29
62.18,10.23,10.23,0.97,0.97,-0.95,-0.99,-1.22,9.27,9.27,9.26
62.80,10.23,10.22,1.00,0.99,-0.97,-1.02,-1.25,9.25,9.24,9.22
63.43,10.20,10.19,1.00,1.00,-0.99,-1.06,-1.27,9.20,9.20,9.19
64.07,10.17,10.17,1.01,1.01,-1.02,-1.09,-1.30,9.15,9.15,9.16
64.71,10.14,10.14,1.02,1.02,-1.04,-1.13,-1.33,9.10,9.10,9.12
65.35,10.13,10.13,1.04,1.04,-1.06,-1.17,-1.35,9.06,9.07,9.08
66.01,10.13,10.12,1.08,1.08,-1.09,-1.20,-1.38,9.04,9.04,9.04
66.67,10.13,10.12,1.12,1.12,-1.12,-1.24,-1.40,9.01,9.01,9.01
67.33,10.13,10.13,1.16,1.16,-1.16,-1.28,-1.43,8.97,8.97,8.97
68.01,10.13,10.13,1.20,1.20,-1.20,-1.32,-1.45,8.93,8.93,8.92
68.69,10.13,10.13,1.24,1.24,-1.24,-1.36,-1.47,8.89,8.89,8.88
69.37,10.13,10.13,1.29,1.29,-1.29,-1.40,-1.50,8.84,8.84,8.84
70.07,10.13,10.13,1.33,1.33,-1.33,-1.44,-1.52,8.79,8.79,8.80
70.77,10.13,10.13,1.38,1.38,-1.38,-1.48,-1.55,8.74,8.74,8.75
71.48,10.13,10.13,1.42,1.42,-1.43,-1.52,-1.57,8.70,8.70,8.70
72.19,10.13,10.13,1.47,1.47,-1.47,-1.56,-1.60,8.65,8.65,8.66
72.91,10.13,10.13,1.52,1.52,-1.51,-1.60,-1.63,8.61,8.61,8.61
73.64,10.13,10.13,1.57,1.57,-1.55,-1.65,-1.65,8.58,8.58,8.56
74.38,10.13,10.12,1.62,1.61,-1.59,-1.69,-1.68,8.54,8.53,8.51
75.12,10.11,10.09,1.66,1.63,-1.62,-1.73,-1.71,8.49,8.47,8.46
75.87,10.03,10.05,1.62,1.65,-1.66,-1.78,-1.74,8.37,8.39,8.41
76.63,10.02,10.02,1.66,1.67,-1.70,-1.82,-1.77,8.32,8.33,8.35
77.40,10.02,10.01,1.72,1.71,-1.74,-1.87,-1.80,8.28,8.27,8.30
78.17,10.03,10.02,1.78,1.78,-1.78,-1.91,-1.83,8.24,8.24,8.24
78.95,10.03,10.02,1.84,1.84,-1.83,-1.96,-1.87,8.19,8.19,8.19
79.74,10.03,10.03,1.90,1.90,-1.89,-2.01,-1.90,8.13,8.13,8.13
80.54,10.03,10.03,1.95,1.95,-1.96,-2.05,-1.94,8.07,8.07,8.07
81.35,10.03,10.03,2.01,2.01,-2.02,-2.10,-1.98,8.01,8.01,8.01
82.16,10.03,10.03,2.07,2.07,-2.07,-2.15,-2.02,7.95,7.95,7.95
82.98,10.03,10.03,2.14,2.14,-2.12,-2.19,-2.06,7.90,7.91,7.89
83.81,10.03,10.03,2.20,2.20,-2.17,-2.24,-2.11,7.85,7.86,7.83
84.65,10.03,10.00,2.26,2.24,-2.22,-2.29,-2.15,7.81,7.78,7.77
85.50,9.97,9.96,2.26,2.26,-2.26,-2.34,-2.20,7.70,7.70,7.70
86.35,9.91,9.93,2.27,2.29,-2.32,-2.39,-2.25,7.59,7.61,7.64
87.22,9.91,9.91,2.33,2.34,-2.37,-2.43,-2.30,7.53,7.54,7.57
88.09,9.93,9.91,2.42,2.41,-2.44,-2.48,-2.35,7.49,7.48,7.51
88.97,9.93,9.92,2.49,2.48,-2.50,-2.53,-2.40,7.43,7.43,7.44
89.86,9.93,9.92,2.55,2.55,-2.56,-2.58,-2.46,7.37,7.37,7.37
90.76,9.93,9.94,2.62,2.63,-2.61,-2.63,-2.52,7.32,7.33,7.30
91.66,9.94,9.95,2.70,2.72,-2.66,-2.68,-2.58,7.28,7.29,7.24
92.58,9.97,9.93,2.80,2.76,-2.71,-2.73,-2.64,7.26,7.22,7.17
93.51,9.89,9.86,2.79,2.76,-2.75,-2.78,-2.70,7.14,7.11,7.10
94.44,9.75,9.78,2.72,2.76,-2.79,-2.83,-2.77,6.96,7.00,7.03
95.39,9.70,9.72,2.74,2.76,-2.83,-2.88,-2.83,6.87,6.89,6.96
96.34,9.72,9.70,2.83,2.82,-2.87,-2.93,-2.90,6.85,6.83,6.88
97.30,9.72,9.71,2.90,2.90,-2.91,-2.98,-2.97,6.81,6.80,6.81
98.28,9.72,9.71,2.97,2.97,-2.95,-3.02,-3.04,6.76,6.76,6.74
99.26,9.70,9.70,3.03,3.03,-3.00,-3.07,-3.11,6.70,6.70,6.67
100.25,9.68,9.68,3.08,3.08,-3.05,-3.12,-3.18,6.63,6.63,6.60
101.25,9.66,9.64,3.13,3.12,-3.10,-3.17,-3.26,6.56,6.54,6.52
102.27,9.60,9.59,3.14,3.14,-3.15,-3.22,-3.33,6.44,6.44,6.45
103.29,9.54,9.55,3.16,3.17,-3.20,-3.27,-3.41,6.34,6.35,6.38
104.32,9.50,9.50,3.19,3.20,-3.24,-3.31,-3.48,6.25,6.26,6.30
105.37,9.50,9.48,3.26,3.25,-3.28,-3.36,-3.55,6.22,6.20,6.23
106.42,9.47,9.48,3.31,3.32,-3.31,-3.41,-3.63,6.16,6.17,6.16
107.48,9.47,9.47,3.38,3.39,-3.33,-3.46,-3.70,6.13,6.14,6.09
108.56,9.47,9.44,3.45,3.42,-3.36,-3.50,-3.77,6.11,6.08,6.01
109.64,9.36,9.35,3.42,3.41,-3.38,-3.55,-3.84,5.98,5.97,5.94
110.74,9.25,9.24,3.38,3.38,-3.40,-3.59,-3.91,5.84,5.84,5.87
111.85,9.12,9.16,3.32,3.36,-3.42,-3.64,-3.98,5.69,5.73,5.80
112.97,9.12,9.12,3.39,3.40,-3.44,-3.68,-4.04,5.67,5.68,5.72
114.10,9.15,9.13,3.49,3.48,-3.47,-3.72,-4.10,5.67,5.65,5.65
115.24,9.14,9.13,3.56,3.55,-3.52,-3.77,-4.16,5.62,5.61,5.58
116.39,9.11,9.07,3.60,3.57,-3.58,-3.81,-4.21,5.53,5.50,5.51
117.55,9.02,9.04,3.58,3.60,-3.64,-3.85,-4.26,5.38,5.40,5.44
118.73,8.99,9.05,3.62,3.68,-3.70,-3.89,-4.31,5.29,5.35,5.37
119.92,9.11,9.07,3.82,3.77,-3.75,-3.93,-4.35,5.37,5.32,5.30
121.12,9.14,9.09,3.90,3.86,-3.79,-3.97,-4.38,5.35,5.30,5.23
122.33,9.04,9.07,3.87,3.90,-3.83,-4.01,-4.41,5.21,5.24,5.16
123.55,8.99,8.97,3.89,3.87,-3.88,-4.05,-4.44,5.11,5.09,5.10
124.79,8.90,8.89,3.87,3.86,-3.93,-4.08,-4.45,4.97,4.96,5.03
126.03,8.82,8.86,3.85,3.90,-3.98,-4.12,-4.47,4.84,4.88,4.96
127.29,8.88,8.86,3.98,3.96,-4.02,-4.15,-4.47,4.86,4.84,4.90
128.57,8.91,8.89,4.07,4.06,-4.05,-4.19,-4.48,4.85,4.84,4.83
129.85,8.92,8.94,4.15,4.17,-4.09,-4.22,-4.47,4.83,4.85,4.77
131.15,8.94,8.91,4.23,4.21,-4.13,-4.25,-4.47,4.81,4.79,4.71
132.46,8.90,8.85,4.25,4.20,-4.18,-4.28,-4.46,4.72,4.67,4.64
133.79,8.73,8.77,4.14,4.19,-4.23,-4.31,-4.44,4.50,4.55,4.58
135.12,8.69,8.72,4.16,4.20,-4.27,-4.34,-4.42,4.42,4.45,4.52
136.48,8.73,8.70,4.26,4.24,-4.31,-4.36,-4.40,4.42,4.39,4.46
137.84,8.74,8.73,4.33,4.33,-4.34,-4.39,-4.37,4.40,4.40,4.40
139.22,8.74,8.74,4.39,4.39,-4.36,-4.41,-4.34,4.37,4.38,4.35
140.61,8.75,8.73,4.46,4.44,-4.39,-4.44,-4.30,4.36,4.34,4.29
142.02,8.68,8.69,4.44,4.46,-4.41,-4.46,-4.27,4.27,4.29,4.23
143.44,8.66,8.65,4.48,4.47,-4.43,-4.48,-4.23,4.22,4.22,4.18
144.87,8.59,8.58,4.46,4.45,-4.46,-4.50,-4.20,4.13,4.12,4.13
146.32,8.53,8.50,4.45,4.43,-4.48,-4.52,-4.16,4.05,4.03,4.07
147.78,8.41,8.43,4.37,4.40,-4.48,-4.53,-4.12,3.92,3.95,4.03
149.26,8.39,8.41,4.41,4.43,-4.48,-4.55,-4.08,3.90,3.92,3.98
150.75,8.43,8.45,4.49,4.52,-4.48,-4.56,-4.04,3.94,3.97,3.93
152.26,8.50,8.48,4.61,4.60,-4.49,-4.58,-4.00,4.00,3.99,3.88
153.78,8.51,8.42,4.68,4.58,-4.51,-4.59,-3.97,4.00,3.90,3.83
155.32,8.29,8.32,4.50,4.53,-4.54,-4.60,-3.93,3.74,3.77,3.79
156.88,8.14,8.22,4.39,4.47,-4.57,-4.61,-3.90,3.56,3.65,3.74
158.44,8.21,8.18,4.51,4.48,-4.59,-4.61,-3.86,3.62,3.59,3.70
160.03,8.24,8.24,4.58,4.59,-4.59,-4.62,-3.83,3.65,3.65,3.66
161.63,8.29,8.29,4.68,4.69,-4.59,-4.63,-3.81,3.70,3.70,3.60
163.24,8.30,8.24,4.74,4.68,-4.59,-4.63,-3.78,3.71,3.65,3.56
164.88,8.17,8.15,4.64,4.63,-4.61,-4.63,-3.76,3.55,3.54,3.52
166.53,7.98,8.05,4.49,4.57,-4.63,-4.63,-3.73,3.35,3.43,3.48
168.19,7.99,7.99,4.54,4.55,-4.62,-4.63,-3.72,3.36,3.37,3.44
169.87,8.02,7.98,4.61,4.58,-4.60,-4.63,-3.70,3.42,3.38,3.41
171.57,8.00,7.98,4.63,4.61,-4.56,-4.62,-3.69,3.43,3.42,3.37
173.29,7.94,7.95,4.60,4.62,-4.54,-4.62,-3.68,3.40,3.41,3.33
175.02,7.87,7.86,4.57,4.56,-4.53,-4.61,-3.67,3.34,3.33,3.30
176.77,7.81,7.75,4.54,4.49,-4.52,-4.61,-3.66,3.28,3.23,3.27
178.54,7.62,7.66,4.38,4.43,-4.51,-4.60,-3.66,3.10,3.15,3.23
180.32,7.61,7.65,4.40,4.45,-4.50,-4.59,-3.66,3.10,3.15,3.20
182.13,7.68,7.69,4.50,4.52,-4.50,-4.58,-3.67,3.18,3.19,3.17
183.95,7.80,7.69,4.65,4.55,-4.50,-4.56,-3.67,3.30,3.19,3.14
185.79,7.67,7.64,4.55,4.53,-4.51,-4.55,-3.68,3.16,3.13,3.11
187.65,7.48,7.57,4.39,4.49,-4.52,-4.53,-3.70,2.96,3.06,3.08
189.52,7.53,7.56,4.47,4.50,-4.53,-4.52,-3.71,2.99,3.03,3.06
191.42,7.63,7.59,4.60,4.56,-4.54,-4.50,-3.73,3.09,3.05,3.03
193.33,7.67,7.57,4.66,4.57,-4.54,-4.48,-3.75,3.13,3.03,3.00
195.27,7.47,7.49,4.49,4.51,-4.52,-4.46,-3.77,2.95,2.97,2.98
197.22,7.33,7.44,4.37,4.49,-4.50,-4.44,-3.79,2.83,2.94,2.95
199.19,7.43,7.42,4.49,4.49,-4.48,-4.42,-3.82,2.94,2.94,2.93
201.18,7.53,7.40,4.62,4.49,-4.47,-4.39,-3.85,3.06,2.93,2.91
203.19,7.34,7.34,4.45,4.45,-4.44,-4.37,-3.88,2.90,2.90,2.89
205.23,7.15,7.24,4.28,4.38,-4.40,-4.34,-3.91,2.75,2.84,2.86
207.28,7.17,7.16,4.32,4.32,-4.37,-4.32,-3.94,2.80,2.80,2.84
209.35,7.20,7.15,4.37,4.33,-4.34,-4.29,-3.97,2.86,2.81,2.82
211.44,7.15,7.16,4.34,4.35,-4.31,-4.26,-4.00,2.84,2.85,2.80
213.56,7.08,7.07,4.29,4.28,-4.27,-4.23,-4.03,2.80,2.80,2.78
215.69,7.02,6.98,4.26,4.21,-4.23,-4.20,-4.06,2.79,2.74,2.77
217.85,6.83,6.94,4.08,4.19,-4.20,-4.17,-4.09,2.62,2.74,2.75
220.03,6.94,6.92,4.20,4.19,-4.17,-4.14,-4.12,2.76,2.75,2.73
222.23,6.96,6.88,4.24,4.17,-4.14,-4.10,-4.15,2.81,2.74,2.72
224.45,6.84,6.80,4.14,4.10,-4.11,-4.07,-4.18,2.73,2.70,2.70
226.70,6.66,6.71,3.97,4.02,-4.07,-4.03,-4.20,2.59,2.64,2.68
228.96,6.58,6.70,3.91,4.03,-4.03,-4.00,-4.22,2.55,2.67,2.67
231.25,6.78,6.68,4.12,4.03,-4.00,-3.96,-4.24,2.78,2.68,2.65
233.57,6.79,6.64,4.15,4.00,-3.97,-3.93,-4.25,2.81,2.67,2.64
235.90,6.43,6.58,3.81,3.96,-3.95,-3.89,-4.26,2.48,2.63,2.62
238.26,6.45,6.48,3.84,3.88,-3.93,-3.85,-4.27,2.51,2.55,2.60
240.64,6.52,6.44,3.92,3.85,-3.92,-3.81,-4.26,2.59,2.52,2.59
243.05,6.50,6.48,3.92,3.90,-3.90,-3.77,-4.26,2.59,2.58,2.58
245.48,6.44,6.50,3.87,3.93,-3.87,-3.73,-4.25,2.56,2.63,2.57
247.93,6.47,6.45,3.91,3.90,-3.85,-3.69,-4.23,2.62,2.61,2.56
250.41,6.49,6.39,3.95,3.85,-3.82,-3.64,-4.21,2.67,2.57,2.55
252.92,6.24,6.33,3.70,3.79,-3.80,-3.60,-4.18,2.44,2.53,2.53
255.45,6.24,6.26,3.70,3.73,-3.77,-3.56,-4.15,2.46,2.49,2.53
258.00,6.25,6.20,3.72,3.68,-3.73,-3.52,-4.11,2.52,2.48,2.52
260.58,6.20,6.20,3.68,3.68,-3.67,-3.47,-4.07,2.53,2.53,2.51
263.19,6.15,6.15,3.64,3.64,-3.61,-3.43,-4.02,2.54,2.54,2.51
265.82,6.09,6.08,3.59,3.58,-3.55,-3.38,-3.97,2.53,2.53,2.50
268.48,6.01,6.02,3.52,3.54,-3.50,-3.34,-3.91,2.51,2.52,2.49
271.16,5.95,5.94,3.47,3.46,-3.46,-3.29,-3.85,2.49,2.48,2.48
273.87,5.88,5.81,3.40,3.34,-3.41,-3.24,-3.78,2.46,2.40,2.47
276.61,5.70,5.76,3.23,3.29,-3.36,-3.20,-3.71,2.34,2.40,2.46
279.38,5.66,5.75,3.20,3.30,-3.29,-3.15,-3.64,2.36,2.46,2.46
282.17,5.85,5.72,3.40,3.27,-3.23,-3.10,-3.56,2.61,2.49,2.45
284.99,5.76,5.72,3.31,3.27,-3.18,-3.05,-3.48,2.59,2.54,2.45
287.84,5.54,5.66,3.08,3.21,-3.14,-3.01,-3.40,2.40,2.52,2.46
290.72,5.60,5.50,3.14,3.05,-3.10,-2.96,-3.32,2.49,2.40,2.45
293.63,5.42,5.40,2.97,2.95,-3.07,-2.91,-3.23,2.35,2.34,2.44
296.57,5.29,5.38,2.84,2.94,-3.02,-2.86,-3.15,2.27,2.37,2.45
299.53,5.41,5.42,2.95,2.97,-2.96,-2.81,-3.06,2.45,2.46,2.45
302.53,5.51,5.46,3.06,3.01,-2.91,-2.76,-2.97,2.60,2.55,2.45
305.55,5.54,5.40,3.08,2.95,-2.86,-2.71,-2.88,2.67,2.53,2.45
308.61,5.18,5.28,2.73,2.83,-2.82,-2.66,-2.80,2.35,2.46,2.45
311.69,5.08,5.17,2.62,2.72,-2.78,-2.61,-2.71,2.29,2.39,2.45
314.81,5.19,5.11,2.74,2.66,-2.74,-2.56,-2.62,2.45,2.37,2.45
317.96,5.15,5.12,2.69,2.67,-2.68,-2.51,-2.54,2.47,2.44,2.45
321.14,5.08,5.09,2.63,2.64,-2.60,-2.45,-2.45,2.47,2.49,2.45
324.35,5.00,5.01,2.54,2.55,-2.53,-2.40,-2.37,2.47,2.49,2.45
327.59,4.95,4.94,2.48,2.48,-2.45,-2.35,-2.29,2.49,2.49,2.47
330.87,4.89,4.89,2.42,2.42,-2.38,-2.30,-2.20,2.51,2.51,2.47
334.18,4.80,4.80,2.32,2.33,-2.31,-2.25,-2.12,2.48,2.49,2.47
337.52,4.75,4.65,2.28,2.18,-2.24,-2.19,-2.04,2.51,2.41,2.47
340.90,4.50,4.57,2.02,2.09,-2.16,-2.14,-1.96,2.34,2.41,2.47
344.30,4.43,4.55,1.94,2.07,-2.09,-2.09,-1.89,2.33,2.45,2.48
347.75,4.64,4.50,2.15,2.01,-2.03,-2.04,-1.81,2.60,2.46,2.49
351.23,4.56,4.50,2.07,2.01,-1.97,-1.98,-1.74,2.59,2.53,2.48
354.74,4.32,4.49,1.81,1.99,-1.91,-1.93,-1.66,2.41,2.58,2.50
358.28,4.44,4.35,1.94,1.85,-1.86,-1.88,-1.59,2.58,2.50,2.50
361.87,4.39,4.28,1.88,1.77,-1.80,-1.82,-1.52,2.58,2.47,2.51
365.49,4.08,4.27,1.56,1.76,-1.74,-1.77,-1.45,2.33,2.53,2.51
369.14,4.23,4.17,1.72,1.66,-1.68,-1.72,-1.38,2.54,2.49,2.51
372.83,4.25,4.10,1.72,1.57,-1.62,-1.66,-1.32,2.62,2.47,2.53
376.56,3.95,4.11,1.42,1.58,-1.55,-1.61,-1.25,2.39,2.56,2.53
380.33,4.01,4.02,1.47,1.49,-1.49,-1.55,-1.19,2.52,2.54,2.53
384.13,4.11,3.94,1.57,1.40,-1.42,-1.50,-1.12,2.68,2.51,2.53
387.97,3.83,3.94,1.28,1.39,-1.34,-1.44,-1.06,2.48,2.60,2.55
391.85,3.80,3.87,1.23,1.32,-1.26,-1.39,-1.00,2.54,2.61,2.57
395.77,3.91,3.74,1.34,1.17,-1.18,-1.33,-0.94,2.72,2.56,2.56
399.73,3.65,3.65,1.07,1.08,-1.10,-1.28,-0.88,2.55,2.56,2.57
403.72,3.43,3.56,0.85,0.98,-1.01,-1.22,-0.82,2.42,2.55,2.58
407.76,3.50,3.46,0.92,0.88,-0.92,-1.17,-0.77,2.57,2.53,2.58
411.84,3.50,3.43,0.91,0.84,-0.84,-1.11,-0.71,2.65,2.59,2.59
415.96,3.37,3.40,0.77,0.81,-0.76,-1.06,-0.66,2.61,2.64,2.59
420.12,3.30,3.30,0.70,0.71,-0.69,-1.00,-0.60,2.61,2.61,2.59
424.32,3.24,3.23,0.63,0.62,-0.63,-0.94,-0.55,2.60,2.59,2.60
428.56,3.17,3.18,0.56,0.57,-0.58,-0.89,-0.50,2.58,2.59,2.61
432.85,3.14,3.13,0.52,0.51,-0.53,-0.83,-0.45,2.60,2.60,2.62
437.18,3.10,3.09,0.47,0.47,-0.48,-0.77,-0.40,2.62,2.62,2.63
441.55,3.06,3.07,0.42,0.43,-0.42,-0.71,-0.35,2.63,2.64,2.64
445.96,3.06,3.05,0.41,0.40,-0.37,-0.66,-0.30,2.68,2.67,2.64
450.42,3.03,3.04,0.36,0.38,-0.34,-0.60,-0.25,2.68,2.70,2.66
454.93,3.03,2.99,0.35,0.32,-0.32,-0.54,-0.20,2.71,2.67,2.67
459.48,2.97,2.91,0.28,0.23,-0.30,-0.48,-0.15,2.67,2.61,2.68
464.07,2.81,2.90,0.13,0.22,-0.27,-0.43,-0.11,2.54,2.63,2.68
468.71,2.87,2.95,0.18,0.26,-0.25,-0.37,-0.06,2.61,2.69,2.69
473.40,3.10,2.95,0.40,0.25,-0.24,-0.31,-0.01,2.86,2.71,2.70
478.13,3.04,2.97,0.33,0.26,-0.22,-0.25,0.03,2.82,2.76,2.71
482.91,2.78,2.96,0.05,0.23,-0.20,-0.19,0.08,2.58,2.76,2.73
487.74,2.95,2.87,0.21,0.13,-0.18,-0.13,0.12,2.77,2.69,2.73
492.62,2.93,2.88,0.18,0.13,-0.14,-0.07,0.16,2.79,2.74,2.74
497.55,2.78,2.90,0.02,0.15,-0.09,-0.01,0.21,2.69,2.81,2.75
502.52,2.94,2.79,0.17,0.03,-0.03,0.05,0.25,2.91,2.76,2.76
507.55,2.74,2.74,-0.05,-0.03,0.02,0.11,0.29,2.76,2.77,2.78
512.62,2.56,2.72,-0.23,-0.07,0.07,0.18,0.33,2.62,2.79,2.79
517.75,2.77,2.61,-0.03,-0.19,0.12,0.24,0.37,2.88,2.73,2.80
522.93,2.62,2.58,-0.20,-0.23,0.17,0.30,0.42,2.79,2.75,2.82
