frequency,raw
20,-8.59
21,-8.21
22,-7.85
23,-7.51
24,-7.17
25,-6.83
26,-6.49
27,-6.17
28,-5.88
29,-5.59
30,-5.32
31,-5.06
32,-4.84
33,-4.65
34,-4.47
35,-4.31
36,-4.16
37,-4.02
38,-3.90
39,-3.79
40,-3.68
41,-3.58
42,-3.50
43,-3.42
44,-3.35
45,-3.28
46,-3.22
47,-3.17
48,-3.12
49,-3.07
50,-3.03
51,-2.99
52,-2.96
53,-2.93
54,-2.90
55,-2.88
56,-2.86
57,-2.84
58,-2.82
59,-2.81
60,-2.79
61,-2.77
62,-2.74
63,-2.72
64,-2.69
65,-2.68
66,-2.69
67,-2.71
68,-2.72
69,-2.75
70,-2.77
71,-2.79
72,-2.80
73,-2.81
74,-2.81
75,-2.82
76,-2.85
77,-2.88
78,-2.90
79,-2.92
80,-2.94
81,-2.95
82,-2.98
83,-3.01
84,-3.04
85,-3.07
86,-3.11
87,-3.15
88,-3.18
89,-3.21
90,-3.25
91,-3.28
92,-3.31
93,-3.35
94,-3.38
95,-3.41
96,-3.44
97,-3.46
98,-3.49
99,-3.52
100,-3.55
101,-3.59
102,-3.62
104,-3.67
105,-3.68
106,-3.69
107,-3.70
108,-3.70
109,-3.70
110,-3.71
111,-3.71
112,-3.73
113,-3.74
114,-3.76
115,-3.77
117,-3.81
118,-3.83
119,-3.84
120,-3.84
121,-3.84
123,-3.82
124,-3.81
125,-3.82
126,-3.82
128,-3.85
129,-3.88
130,-3.91
131,-3.91
133,-3.93
134,-3.91
135,-3.90
137,-3.89
138,-3.89
140,-3.91
141,-3.93
142,-3.95
144,-3.96
145,-3.96
147,-3.95
148,-3.93
150,-3.91
151,-3.91
153,-3.91
154,-3.92
156,-3.94
157,-3.94
159,-3.95
160,-3.94
162,-3.92
164,-3.89
165,-3.88
167,-3.86
169,-3.87
170,-3.87
172,-3.89
174,-3.90
175,-3.90
177,-3.91
179,-3.93
181,-3.94
183,-3.95
184,-3.95
186,-3.93
188,-3.92
190,-3.92
192,-3.93
194,-3.94
196,-3.97
198,-3.99
200,-4.00
202,-4.02
204,-4.02
206,-4.02
208,-4.03
210,-4.01
212,-4.01
214,-3.99
216,-3.98
218,-3.96
221,-3.95
223,-3.96
225,-3.96
227,-3.96
229,-3.97
232,-3.96
234,-3.96
236,-3.94
239,-3.91
241,-3.90
244,-3.87
246,-3.86
248,-3.84
251,-3.82
253,-3.80
256,-3.78
259,-3.76
261,-3.75
264,-3.72
266,-3.71
269,-3.68
272,-3.66
274,-3.64
277,-3.62
280,-3.59
283,-3.57
286,-3.55
288,-3.53
291,-3.51
294,-3.49
297,-3.47
300,-3.45
303,-3.43
306,-3.41
309,-3.39
312,-3.37
316,-3.35
319,-3.34
322,-3.32
325,-3.31
328,-3.30
332,-3.28
335,-3.27
338,-3.26
342,-3.25
345,-3.24
349,-3.24
352,-3.24
356,-3.25
359,-3.26
363,-3.28
366,-3.30
370,-3.32
374,-3.33
377,-3.33
381,-3.32
385,-3.30
389,-3.26
393,-3.22
397,-3.18
401,-3.13
405,-3.09
409,-3.05
413,-3.00
417,-2.96
421,-2.92
425,-2.87
430,-2.81
434,-2.77
438,-2.72
443,-2.67
447,-2.64
451,-2.64
456,-2.63
460,-2.62
465,-2.61
470,-2.61
474,-2.63
479,-2.66
484,-2.71
489,-2.78
494,-2.83
499,-2.88
504,-2.94
509,-2.99
514,-3.03
519,-3.09
524,-3.16
529,-3.24
535,-3.34
540,-3.42
545,-3.51
551,-3.61
556,-3.67
562,-3.72
568,-3.74
573,-3.72
579,-3.68
585,-3.58
591,-3.46
596,-3.34
602,-3.17
608,-2.98
615,-2.76
621,-2.58
627,-2.40
633,-2.24
639,-2.09
646,-1.95
652,-1.85
659,-1.76
665,-1.71
672,-1.67
679,-1.66
686,-1.67
692,-1.71
699,-1.77
706,-1.84
713,-1.94
721,-2.05
728,-2.15
735,-2.26
742,-2.36
750,-2.49
757,-2.60
765,-2.73
773,-2.85
780,-2.96
788,-3.05
796,-3.14
804,-3.20
812,-3.21
820,-3.21
828,-3.17
837,-3.06
845,-2.94
853,-2.78
862,-2.58
871,-2.36
879,-2.17
888,-1.96
897,-1.76
906,-1.56
915,-1.38
924,-1.21
933,-1.05
943,-0.87
952,-0.72
962,-0.56
971,-0.41
981,-0.25
991,-0.11
1001,0.01
1011,0.12
1021,0.21
1031,0.28
1041,0.33
1052,0.39
1062,0.43
1073,0.46
1084,0.48
1094,0.50
1105,0.49
1116,0.47
1128,0.44
1139,0.40
1150,0.36
1162,0.31
1173,0.27
1185,0.23
1197,0.18
1209,0.13
1221,0.06
1233,-0.02
1246,-0.11
1258,-0.21
1271,-0.32
1283,-0.42
1296,-0.55
1309,-0.67
1322,-0.80
1335,-0.93
1349,-1.06
1362,-1.19
1376,-1.32
1390,-1.43
1404,-1.54
1418,-1.64
1432,-1.72
1446,-1.82
1461,-1.94
1475,-2.05
1490,-2.18
1505,-2.32
1520,-2.46
1535,-2.60
1550,-2.74
1566,-2.88
1582,-3.01
1597,-3.13
1613,-3.26
1629,-3.39
1646,-3.52
1662,-3.63
1679,-3.74
1696,-3.84
1713,-3.94
1730,-4.04
1747,-4.13
1764,-4.21
1782,-4.30
1800,-4.36
1818,-4.42
1836,-4.46
1854,-4.46
1873,-4.41
1892,-4.33
1911,-4.21
1930,-4.08
1949,-3.94
1969,-3.83
1988,-3.73
2008,-3.64
2028,-3.57
2048,-3.53
2069,-3.49
2090,-3.48
2111,-3.49
2132,-3.50
2153,-3.51
2175,-3.53
2196,-3.54
2218,-3.54
2240,-3.55
2263,-3.53
2285,-3.54
2308,-3.55
2331,-3.57
2355,-3.60
2378,-3.63
2402,-3.63
2426,-3.65
2450,-3.66
2475,-3.65
2500,-3.65
2525,-3.65
2550,-3.63
2575,-3.63
2601,-3.62
2627,-3.59
2653,-3.57
2680,-3.53
2707,-3.49
2734,-3.45
2761,-3.39
2789,-3.35
2817,-3.33
2845,-3.34
2873,-3.40
2902,-3.48
2931,-3.60
2960,-3.74
2990,-3.87
3020,-4.00
3050,-4.10
3080,-4.21
3111,-4.33
3142,-4.45
3174,-4.59
3206,-4.74
3238,-4.87
3270,-4.99
3303,-5.11
3336,-5.25
3369,-5.39
3403,-5.59
3437,-5.80
3471,-6.02
3506,-6.20
3541,-6.33
3576,-6.40
3612,-6.44
3648,-6.49
3685,-6.59
3721,-6.75
3759,-7.03
3796,-7.37
3834,-7.80
3873,-8.38
3911,-9.05
3950,-9.83
3990,-10.82
4030,-11.93
4070,-13.11
4111,-14.40
4152,-15.55
4193,-16.53
4235,-17.14
4278,-17.26
4321,-17.03
4364,-16.43
4407,-15.49
4451,-14.38
4496,-13.11
4541,-11.70
4586,-10.30
4632,-8.87
4679,-7.53
4725,-6.39
4773,-5.36
4820,-4.61
4868,-4.12
4917,-3.83
4966,-3.81
5016,-4.05
5066,-4.39
5117,-4.85
5168,-5.27
5220,-5.62
5272,-5.93
5325,-6.22
5378,-6.58
5432,-7.06
5486,-7.80
5541,-8.81
5596,-10.01
5652,-11.46
5709,-12.90
5766,-14.14
5823,-15.01
5882,-15.07
5940,-14.64
6000,-13.69
6060,-12.27
6120,-10.87
6182,-9.45
6244,-8.23
6306,-7.19
6369,-6.23
6433,-5.41
6497,-4.74
6562,-4.15
6628,-3.73
6694,-3.46
6761,-3.27
6828,-3.15
6897,-3.13
6966,-3.11
7035,-3.10
7106,-3.12
7177,-3.12
7249,-3.15
7321,-3.21
7394,-3.25
7468,-3.25
7543,-3.19
7618,-3.04
7694,-2.84
7771,-2.56
7849,-2.22
7928,-1.83
8007,-1.40
8087,-0.89
8168,-0.38
8250,0.10
8332,0.39
8415,0.45
8499,0.32
8584,-0.06
8670,-0.57
8757,-1.16
8845,-1.77
8933,-2.11
9022,-2.49
9113,-3.02
9204,-3.18
9296,-3.17
9389,-3.59
9483,-3.85
9577,-3.87
9673,-3.76
9770,-3.51
9868,-3.21
9966,-2.85
10066,-2.43
10167,-2.00
10268,-1.58
10371,-1.24
10475,-1.03
10579,-0.82
10685,-0.66
10792,-0.69
10900,-0.88
11009,-1.24
11119,-1.80
11230,-2.39
11343,-2.86
11456,-3.22
11571,-4.17
11686,-5.17
11803,-5.28
11921,-5.67
12040,-6.12
12161,-6.02
12282,-6.13
12405,-6.22
12529,-6.24
12655,-6.36
12781,-6.54
12909,-6.78
13038,-7.07
13168,-7.46
13300,-7.84
13433,-8.34
13567,-9.03
13703,-9.85
13840,-10.84
13978,-11.65
14118,-12.31
14259,-12.74
14402,-12.91
14546,-12.93
14692,-12.82
14838,-12.50
14987,-12.05
15137,-11.47
15288,-10.71
15441,-9.94
15595,-9.21
15751,-8.74
15909,-8.77
16068,-9.22
16229,-10.31
16391,-11.99
16555,-13.93
16720,-16.07
16888,-18.16
17056,-20.09
17227,-21.86
17399,-23.25
17573,-24.41
17749,-25.32
17926,-25.74
18106,-25.68
18287,-25.30
18470,-24.54
18654,-23.79
18841,-23.15
19029,-22.74
19220,-22.62
19412,-22.57
19606,-22.55
19802,-22.34
20000,-22.02
