frequency,raw,error,smoothed,error_smoothed,equalization,parametric_eq,fixed_band_eq,equalized_raw,equalized_smoothed,target
20.00,-0.72,-5.56,-0.73,-5.57,5.56,4.46,1.35,4.84,4.83,4.84
20.20,-0.61,-5.43,-0.60,-5.42,5.42,4.42,1.39,4.81,4.81,4.82
20.40,-0.49,-5.29,-0.48,-5.29,5.28,4.39,1.44,4.79,4.80,4.80
20.61,-0.38,-5.17,-0.37,-5.16,5.16,4.35,1.48,4.78,4.79,4.79
20.81,-0.26,-5.03,-0.26,-5.04,5.05,4.31,1.53,4.79,4.79,4.77
21.02,-0.16,-4.92,-0.18,-4.93,4.95,4.28,1.57,4.79,4.78,4.76
21.23,-0.11,-4.85,-0.11,-4.85,4.86,4.24,1.62,4.75,4.76,4.74
21.44,-0.06,-4.79,-0.06,-4.78,4.78,4.21,1.67,4.72,4.73,4.73
21.66,-0.01,-4.73,-0.01,-4.73,4.73,4.17,1.72,4.71,4.71,4.72
21.87,0.03,-4.67,0.03,-4.67,4.68,4.13,1.77,4.71,4.71,4.70
22.09,0.06,-4.63,0.06,-4.63,4.64,4.10,1.83,4.70,4.70,4.69
22.31,0.08,-4.60,0.08,-4.60,4.61,4.06,1.88,4.69,4.69,4.68
22.54,0.09,-4.58,0.09,-4.58,4.58,4.02,1.94,4.67,4.66,4.67
22.76,0.10,-4.56,0.10,-4.56,4.54,3.98,2.00,4.64,4.64,4.65
22.99,0.11,-4.54,0.12,-4.52,4.50,3.95,2.06,4.61,4.63,4.64
23.22,0.17,-4.46,0.17,-4.47,4.45,3.91,2.12,4.62,4.62,4.63
23.45,0.23,-4.40,0.22,-4.40,4.39,3.87,2.18,4.62,4.62,4.63
23.69,0.30,-4.32,0.29,-4.33,4.32,3.83,2.24,4.62,4.61,4.62
23.92,0.36,-4.26,0.37,-4.25,4.24,3.80,2.31,4.60,4.60,4.62
24.16,0.45,-4.17,0.46,-4.16,4.15,3.76,2.37,4.60,4.60,4.62
24.40,0.56,-4.06,0.56,-4.06,4.05,3.72,2.44,4.62,4.61,4.62
24.65,0.67,-3.95,0.67,-3.95,3.97,3.68,2.51,4.64,4.64,4.62
24.89,0.77,-3.85,0.76,-3.85,3.89,3.64,2.57,4.66,4.65,4.62
25.14,0.84,-3.78,0.83,-3.78,3.82,3.60,2.64,4.65,4.65,4.62
25.39,0.88,-3.74,0.88,-3.73,3.75,3.56,2.71,4.63,4.64,4.62
25.65,0.92,-3.70,0.92,-3.70,3.70,3.53,2.78,4.62,4.62,4.61
25.91,0.96,-3.67,0.96,-3.66,3.65,3.49,2.85,4.61,4.61,4.62
26.16,1.00,-3.62,1.00,-3.62,3.61,3.45,2.91,4.61,4.61,4.62
26.43,1.04,-3.58,1.04,-3.58,3.57,3.41,2.98,4.61,4.61,4.62
26.69,1.09,-3.53,1.08,-3.54,3.53,3.37,3.05,4.61,4.61,4.62
26.96,1.13,-3.49,1.13,-3.48,3.48,3.33,3.11,4.60,4.61,4.62
27.23,1.19,-3.43,1.19,-3.43,3.42,3.29,3.17,4.61,4.61,4.62
27.50,1.26,-3.36,1.25,-3.36,3.36,3.25,3.24,4.62,4.61,4.62
27.77,1.32,-3.29,1.32,-3.29,3.30,3.21,3.29,4.62,4.62,4.61
28.05,1.38,-3.23,1.38,-3.23,3.23,3.17,3.35,4.61,4.61,4.61
28.33,1.44,-3.16,1.44,-3.17,3.17,3.13,3.40,4.61,4.61,4.60
28.62,1.49,-3.11,1.49,-3.11,3.12,3.09,3.45,4.60,4.61,4.60
28.90,1.55,-3.05,1.54,-3.05,3.06,3.05,3.49,4.61,4.61,4.60
29.19,1.59,-3.01,1.59,-3.01,3.02,3.01,3.53,4.61,4.61,4.60
29.48,1.63,-2.97,1.63,-2.97,2.98,2.97,3.56,4.61,4.60,4.59
29.78,1.66,-2.93,1.66,-2.93,2.93,2.92,3.59,4.59,4.60,4.59
30.08,1.70,-2.89,1.70,-2.89,2.88,2.88,3.61,4.58,4.58,4.59
30.38,1.74,-2.85,1.73,-2.86,2.83,2.84,3.63,4.57,4.56,4.59
30.68,1.77,-2.81,1.77,-2.81,2.77,2.80,3.64,4.54,4.54,4.58
30.99,1.81,-2.77,1.82,-2.75,2.72,2.76,3.65,4.53,4.54,4.58
31.30,1.89,-2.68,1.90,-2.67,2.68,2.72,3.64,4.57,4.58,4.56
31.61,1.98,-2.58,1.98,-2.58,2.65,2.68,3.64,4.62,4.62,4.56
31.93,2.06,-2.50,2.03,-2.52,2.61,2.64,3.62,4.66,4.63,4.56
32.24,2.04,-2.51,2.02,-2.53,2.56,2.59,3.60,4.60,4.58,4.55
32.57,1.99,-2.55,1.99,-2.55,2.51,2.55,3.57,4.50,4.50,4.54
32.89,1.95,-2.59,1.98,-2.56,2.46,2.51,3.54,4.41,4.44,4.54
33.22,2.03,-2.51,2.05,-2.49,2.41,2.47,3.50,4.44,4.46,4.54
33.55,2.18,-2.36,2.17,-2.36,2.36,2.42,3.46,4.54,4.54,4.54
33.89,2.33,-2.21,2.30,-2.24,2.31,2.38,3.41,4.63,4.60,4.54
34.23,2.38,-2.16,2.36,-2.18,2.24,2.34,3.36,4.62,4.60,4.54
34.57,2.37,-2.17,2.38,-2.16,2.17,2.30,3.30,4.54,4.55,4.54
34.92,2.37,-2.17,2.39,-2.15,2.11,2.25,3.24,4.48,4.51,4.54
35.27,2.44,-2.10,2.46,-2.09,2.08,2.21,3.17,4.51,4.53,4.54
35.62,2.54,-2.01,2.54,-2.01,2.05,2.17,3.11,4.59,4.58,4.55
35.97,2.63,-1.91,2.58,-1.96,2.02,2.13,3.03,4.65,4.60,4.54
36.33,2.58,-1.96,2.56,-1.98,1.98,2.08,2.96,4.56,4.54,4.54
36.70,2.51,-2.03,2.53,-2.01,1.94,2.04,2.89,4.45,4.46,4.53
37.06,2.48,-2.05,2.54,-1.99,1.90,1.99,2.81,4.38,4.44,4.53
37.43,2.63,-1.89,2.64,-1.88,1.86,1.95,2.74,4.49,4.49,4.52
37.81,2.79,-1.72,2.74,-1.77,1.82,1.91,2.66,4.61,4.56,4.51
38.19,2.84,-1.66,2.80,-1.70,1.78,1.86,2.58,4.62,4.58,4.50
38.57,2.78,-1.70,2.79,-1.69,1.73,1.82,2.50,4.51,4.53,4.48
38.95,2.73,-1.74,2.77,-1.70,1.68,1.78,2.42,4.41,4.45,4.47
39.34,2.78,-1.67,2.78,-1.68,1.62,1.73,2.35,4.40,4.40,4.45
39.74,2.84,-1.61,2.83,-1.62,1.57,1.69,2.27,4.41,4.40,4.45
40.14,2.89,-1.54,2.88,-1.55,1.54,1.64,2.19,4.42,4.42,4.43
40.54,2.93,-1.49,2.93,-1.49,1.51,1.60,2.12,4.43,4.44,4.42
40.94,2.97,-1.44,2.98,-1.43,1.47,1.56,2.04,4.44,4.45,4.41
41.35,3.02,-1.39,3.02,-1.38,1.43,1.51,1.97,4.45,4.45,4.41
41.76,3.06,-1.33,3.05,-1.35,1.38,1.47,1.89,4.44,4.43,4.39
42.18,3.06,-1.32,3.03,-1.36,1.33,1.43,1.82,4.39,4.36,4.38
42.60,3.02,-1.37,3.02,-1.36,1.28,1.38,1.75,4.30,4.30,4.39
43.03,2.99,-1.39,3.06,-1.32,1.24,1.34,1.68,4.23,4.30,4.38
43.46,3.15,-1.22,3.15,-1.23,1.21,1.30,1.61,4.36,4.36,4.37
43.90,3.31,-1.07,3.25,-1.12,1.18,1.26,1.54,4.49,4.43,4.37
44.33,3.33,-1.04,3.32,-1.04,1.15,1.21,1.47,4.48,4.47,4.37
44.78,3.30,-1.06,3.31,-1.06,1.12,1.17,1.41,4.42,4.43,4.36
45.23,3.26,-1.10,3.25,-1.11,1.09,1.13,1.35,4.35,4.34,4.36
45.68,3.21,-1.14,3.22,-1.13,1.06,1.09,1.28,4.27,4.28,4.35
46.13,3.21,-1.13,3.24,-1.10,1.04,1.05,1.22,4.25,4.28,4.34
46.60,3.30,-1.04,3.29,-1.04,1.02,1.01,1.16,4.32,4.31,4.33
47.06,3.38,-0.94,3.34,-0.98,1.00,0.97,1.10,4.38,4.34,4.32
47.53,3.38,-0.93,3.38,-0.93,0.95,0.93,1.04,4.33,4.33,4.31
48.01,3.38,-0.92,3.40,-0.90,0.89,0.89,0.99,4.27,4.30,4.30
48.49,3.43,-0.85,3.43,-0.86,0.84,0.85,0.93,4.27,4.26,4.28
48.97,3.48,-0.79,3.48,-0.79,0.79,0.81,0.87,4.27,4.27,4.27
49.46,3.53,-0.73,3.53,-0.72,0.76,0.78,0.82,4.29,4.29,4.26
49.96,3.58,-0.66,3.57,-0.67,0.72,0.74,0.77,4.30,4.29,4.24
50.46,3.58,-0.65,3.58,-0.64,0.68,0.70,0.72,4.26,4.26,4.23
50.96,3.58,-0.64,3.55,-0.66,0.63,0.66,0.66,4.21,4.19,4.21
51.47,3.54,-0.66,3.53,-0.67,0.59,0.62,0.61,4.13,4.12,4.20
51.99,3.50,-0.69,3.58,-0.61,0.55,0.59,0.56,4.05,4.12,4.19
52.51,3.66,-0.52,3.66,-0.51,0.51,0.55,0.52,4.17,4.17,4.17
53.03,3.82,-0.34,3.75,-0.41,0.47,0.51,0.47,4.29,4.22,4.16
53.56,3.80,-0.35,3.80,-0.34,0.43,0.47,0.42,4.22,4.23,4.14
54.10,3.77,-0.36,3.77,-0.36,0.37,0.44,0.37,4.14,4.15,4.13
54.64,3.73,-0.38,3.74,-0.37,0.32,0.40,0.33,4.05,4.06,4.11
55.18,3.73,-0.37,3.76,-0.33,0.28,0.36,0.28,4.01,4.04,4.10
55.74,3.83,-0.25,3.81,-0.27,0.25,0.32,0.24,4.08,4.06,4.08
56.29,3.88,-0.18,3.86,-0.20,0.23,0.28,0.19,4.11,4.09,4.06
56.86,3.88,-0.16,3.89,-0.16,0.21,0.24,0.15,4.09,4.10,4.04
57.42,3.88,-0.15,3.88,-0.15,0.18,0.20,0.10,4.06,4.06,4.02
58.00,3.88,-0.14,3.86,-0.15,0.13,0.16,0.06,4.01,3.99,4.01
58.58,3.85,-0.15,3.86,-0.14,0.08,0.12,0.01,3.93,3.94,4.00
59.16,3.85,-0.13,3.88,-0.10,0.04,0.08,-0.03,3.89,3.91,3.97
59.76,3.94,-0.02,3.94,-0.02,-0.01,0.04,-0.07,3.93,3.92,3.95
60.35,4.02,0.09,4.01,0.08,-0.06,-0.01,-0.11,3.96,3.95,3.93
60.96,4.09,0.18,4.07,0.16,-0.11,-0.05,-0.16,3.98,3.96,3.91
61.57,4.09,0.20,4.09,0.20,-0.16,-0.09,-0.20,3.93,3.93,3.89
62.18,4.08,0.22,4.09,0.23,-0.20,-0.14,-0.24,3.88,3.89,3.86
62.80,4.08,0.25,4.08,0.25,-0.25,-0.18,-0.29,3.83,3.84,3.83
63.43,4.08,0.28,4.07,0.27,-0.29,-0.23,-0.33,3.79,3.78,3.80
64.07,4.08,0.30,4.06,0.28,-0.32,-0.28,-0.37,3.75,3.73,3.78
64.71,4.04,0.30,4.07,0.33,-0.36,-0.32,-0.41,3.68,3.71,3.74
65.35,4.08,0.37,4.10,0.39,-0.40,-0.37,-0.46,3.68,3.70,3.71
66.01,4.18,0.50,4.14,0.46,-0.45,-0.42,-0.50,3.73,3.69,3.67
66.67,4.18,0.53,4.18,0.53,-0.51,-0.47,-0.54,3.67,3.67,3.65
67.33,4.18,0.57,4.18,0.57,-0.57,-0.52,-0.59,3.61,3.61,3.61
68.01,4.18,0.60,4.17,0.60,-0.64,-0.57,-0.63,3.54,3.54,3.58
68.69,4.18,0.64,4.21,0.67,-0.69,-0.62,-0.68,3.49,3.52,3.53
69.37,4.24,0.74,4.26,0.76,-0.74,-0.68,-0.72,3.50,3.52,3.50
70.07,4.35,0.89,4.30,0.84,-0.79,-0.73,-0.77,3.56,3.52,3.46
70.77,4.32,0.89,4.31,0.88,-0.84,-0.78,-0.81,3.48,3.47,3.43
71.48,4.27,0.88,4.27,0.88,-0.89,-0.84,-0.86,3.38,3.38,3.39
72.19,4.22,0.87,4.23,0.89,-0.95,-0.89,-0.91,3.27,3.29,3.35
72.91,4.22,0.91,4.26,0.94,-1.00,-0.95,-0.96,3.22,3.25,3.31
73.64,4.33,1.06,4.31,1.04,-1.06,-1.01,-1.01,3.27,3.25,3.27
74.38,4.39,1.15,4.36,1.13,-1.11,-1.06,-1.06,3.28,3.26,3.24
75.12,4.39,1.20,4.40,1.21,-1.16,-1.12,-1.11,3.23,3.23,3.19
75.87,4.39,1.24,4.39,1.25,-1.22,-1.18,-1.16,3.17,3.17,3.15
76.63,4.39,1.28,4.39,1.28,-1.28,-1.24,-1.21,3.11,3.11,3.11
77.40,4.39,1.32,4.39,1.32,-1.32,-1.30,-1.27,3.07,3.07,3.07
78.17,4.39,1.36,4.39,1.37,-1.36,-1.36,-1.32,3.03,3.03,3.02
78.95,4.39,1.41,4.39,1.41,-1.40,-1.43,-1.38,2.99,2.99,2.98
79.74,4.39,1.45,4.38,1.44,-1.45,-1.49,-1.44,2.94,2.93,2.94
80.54,4.37,1.47,4.36,1.47,-1.50,-1.55,-1.50,2.87,2.86,2.89
81.35,4.36,1.51,4.37,1.52,-1.56,-1.62,-1.56,2.80,2.82,2.85
82.16,4.38,1.57,4.41,1.60,-1.62,-1.68,-1.62,2.76,2.79,2.80
82.98,4.49,1.73,4.45,1.69,-1.68,-1.75,-1.68,2.81,2.77,2.76
83.81,4.49,1.78,4.49,1.77,-1.74,-1.81,-1.74,2.75,2.74,2.71
84.65,4.49,1.83,4.50,1.84,-1.80,-1.88,-1.81,2.69,2.70,2.66
85.50,4.49,1.88,4.49,1.88,-1.87,-1.95,-1.88,2.62,2.62,2.60
86.35,4.49,1.93,4.49,1.93,-1.94,-2.02,-1.95,2.55,2.55,2.56
87.22,4.49,1.98,4.48,1.98,-2.00,-2.09,-2.02,2.49,2.48,2.51
88.09,4.49,2.03,4.49,2.03,-2.07,-2.15,-2.09,2.42,2.42,2.45
88.97,4.49,2.08,4.51,2.11,-2.13,-2.22,-2.16,2.36,2.38,2.40
89.86,4.55,2.21,4.55,2.20,-2.20,-2.29,-2.24,2.35,2.35,2.34
90.76,4.61,2.32,4.58,2.29,-2.27,-2.36,-2.31,2.34,2.31,2.29
91.66,4.60,2.37,4.60,2.37,-2.34,-2.43,-2.39,2.26,2.26,2.23
92.58,4.59,2.41,4.60,2.43,-2.41,-2.50,-2.47,2.18,2.19,2.17
93.51,4.59,2.48,4.59,2.48,-2.48,-2.58,-2.55,2.11,2.11,2.11
94.44,4.59,2.54,4.59,2.54,-2.54,-2.65,-2.64,2.05,2.05,2.05
95.39,4.59,2.61,4.59,2.60,-2.60,-2.72,-2.72,1.99,1.98,1.98
96.34,4.58,2.66,4.57,2.66,-2.67,-2.79,-2.81,1.91,1.90,1.92
97.30,4.56,2.72,4.56,2.71,-2.74,-2.86,-2.89,1.82,1.82,1.84
98.28,4.55,2.77,4.57,2.79,-2.81,-2.93,-2.98,1.73,1.75,1.78
99.26,4.58,2.88,4.59,2.89,-2.89,-3.01,-3.07,1.69,1.69,1.70
100.25,4.64,3.01,4.61,2.98,-2.97,-3.08,-3.16,1.67,1.64,1.63
101.25,4.62,3.07,4.62,3.07,-3.05,-3.15,-3.25,1.57,1.57,1.55
102.27,4.61,3.13,4.62,3.14,-3.12,-3.22,-3.34,1.49,1.49,1.47
103.29,4.60,3.20,4.60,3.20,-3.19,-3.29,-3.43,1.40,1.40,1.40
104.32,4.58,3.26,4.58,3.26,-3.26,-3.36,-3.53,1.32,1.32,1.32
105.37,4.56,3.31,4.56,3.32,-3.32,-3.43,-3.62,1.24,1.24,1.24
106.42,4.53,3.37,4.53,3.37,-3.37,-3.51,-3.71,1.16,1.16,1.16
107.48,4.51,3.43,4.51,3.42,-3.42,-3.58,-3.80,1.09,1.08,1.08
108.56,4.48,3.46,4.48,3.47,-3.47,-3.65,-3.89,1.01,1.01,1.02
109.64,4.46,3.52,4.46,3.52,-3.52,-3.72,-3.97,0.94,0.94,0.94
110.74,4.44,3.57,4.44,3.57,-3.58,-3.79,-4.06,0.86,0.86,0.86
111.85,4.43,3.63,4.43,3.63,-3.63,-3.86,-4.14,0.80,0.80,0.80
112.97,4.42,3.69,4.42,3.69,-3.69,-3.92,-4.22,0.73,0.73,0.73
114.10,4.41,3.74,4.41,3.74,-3.75,-3.99,-4.30,0.66,0.67,0.67
115.24,4.41,3.81,4.41,3.80,-3.81,-4.06,-4.37,0.60,0.60,0.60
116.39,4.41,3.87,4.41,3.87,-3.87,-4.13,-4.44,0.54,0.54,0.54
117.55,4.41,3.92,4.41,3.93,-3.93,-4.19,-4.51,0.48,0.48,0.48
118.73,4.42,4.00,4.42,3.99,-3.99,-4.26,-4.57,0.43,0.42,0.42
119.92,4.43,4.06,4.42,4.06,-4.05,-4.32,-4.63,0.37,0.37,0.37
121.12,4.43,4.11,4.43,4.12,-4.12,-4.38,-4.68,0.31,0.31,0.31
122.33,4.44,4.18,4.44,4.18,-4.18,-4.45,-4.73,0.26,0.26,0.26
123.55,4.45,4.24,4.45,4.24,-4.24,-4.51,-4.77,0.21,0.21,0.21
124.79,4.46,4.30,4.46,4.30,-4.30,-4.57,-4.80,0.16,0.16,0.16
126.03,4.46,4.35,4.46,4.35,-4.35,-4.63,-4.84,0.10,0.11,0.11
127.29,4.47,4.41,4.47,4.41,-4.41,-4.69,-4.86,0.06,0.06,0.06
128.57,4.48,4.47,4.48,4.47,-4.47,-4.75,-4.88,0.01,0.01,0.01
129.85,4.48,4.52,4.48,4.52,-4.52,-4.80,-4.90,-0.04,-0.04,-0.04
131.15,4.49,4.58,4.49,4.57,-4.57,-4.86,-4.91,-0.08,-0.09,-0.09
132.46,4.49,4.62,4.49,4.63,-4.62,-4.92,-4.91,-0.14,-0.13,-0.13
133.79,4.50,4.68,4.50,4.68,-4.68,-4.97,-4.92,-0.18,-0.18,-0.18
135.12,4.50,4.73,4.50,4.72,-4.73,-5.02,-4.92,-0.23,-0.23,-0.23
136.48,4.50,4.77,4.50,4.78,-4.78,-5.07,-4.91,-0.28,-0.27,-0.27
137.84,4.51,4.83,4.51,4.82,-4.83,-5.12,-4.90,-0.32,-0.32,-0.32
139.22,4.51,4.88,4.51,4.87,-4.88,-5.17,-4.89,-0.37,-0.37,-0.37
140.61,4.51,4.92,4.51,4.93,-4.93,-5.22,-4.88,-0.42,-0.42,-0.41
142.02,4.51,4.97,4.51,4.98,-4.98,-5.27,-4.87,-0.47,-0.47,-0.47
143.44,4.51,5.02,4.51,5.02,-5.03,-5.31,-4.85,-0.52,-0.52,-0.52
144.87,4.51,5.08,4.51,5.07,-5.07,-5.36,-4.83,-0.57,-0.57,-0.57
146.32,4.51,5.11,4.51,5.12,-5.12,-5.40,-4.82,-0.61,-0.60,-0.61
147.78,4.51,5.16,4.51,5.17,-5.15,-5.44,-4.80,-0.64,-0.64,-0.66
149.26,4.52,5.22,4.50,5.20,-5.18,-5.48,-4.79,-0.66,-0.68,-0.70
150.75,4.48,5.23,4.47,5.22,-5.21,-5.52,-4.77,-0.73,-0.74,-0.75
152.26,4.43,5.23,4.44,5.23,-5.24,-5.56,-4.76,-0.81,-0.80,-0.80
153.78,4.41,5.24,4.41,5.25,-5.27,-5.60,-4.74,-0.86,-0.86,-0.83
155.32,4.41,5.29,4.40,5.28,-5.30,-5.64,-4.73,-0.89,-0.90,-0.88
156.88,4.41,5.33,4.41,5.33,-5.34,-5.67,-4.73,-0.93,-0.93,-0.92
158.44,4.41,5.37,4.41,5.37,-5.37,-5.70,-4.72,-0.96,-0.96,-0.96
160.03,4.41,5.41,4.41,5.42,-5.41,-5.74,-4.72,-1.00,-1.00,-1.01
161.63,4.41,5.47,4.41,5.46,-5.45,-5.77,-4.72,-1.05,-1.05,-1.06
163.24,4.41,5.51,4.41,5.50,-5.50,-5.80,-4.72,-1.09,-1.09,-1.10
164.88,4.40,5.54,4.40,5.54,-5.54,-5.83,-4.72,-1.14,-1.14,-1.14
166.53,4.40,5.58,4.40,5.57,-5.57,-5.85,-4.73,-1.17,-1.18,-1.18
168.19,4.39,5.60,4.39,5.61,-5.61,-5.88,-4.74,-1.22,-1.22,-1.22
169.87,4.39,5.64,4.39,5.64,-5.64,-5.90,-4.76,-1.25,-1.25,-1.25
171.57,4.38,5.67,4.38,5.67,-5.67,-5.93,-4.78,-1.29,-1.29,-1.29
173.29,4.37,5.69,4.37,5.70,-5.70,-5.95,-4.80,-1.33,-1.32,-1.33
175.02,4.37,5.72,4.37,5.72,-5.72,-5.97,-4.83,-1.35,-1.36,-1.35
176.77,4.37,5.75,4.36,5.75,-5.75,-5.99,-4.86,-1.39,-1.39,-1.39
178.54,4.36,5.78,4.36,5.78,-5.79,-6.01,-4.89,-1.43,-1.42,-1.42
180.32,4.37,5.81,4.36,5.81,-5.82,-6.03,-4.93,-1.45,-1.46,-1.44
182.13,4.37,5.83,4.37,5.84,-5.85,-6.05,-4.97,-1.48,-1.48,-1.47
183.95,4.38,5.87,4.38,5.87,-5.88,-6.06,-5.01,-1.50,-1.49,-1.49
185.79,4.40,5.91,4.40,5.91,-5.89,-6.08,-5.06,-1.49,-1.49,-1.51
187.65,4.41,5.94,4.41,5.94,-5.90,-6.09,-5.11,-1.49,-1.49,-1.53
189.52,4.42,5.97,4.39,5.94,-5.90,-6.10,-5.17,-1.49,-1.51,-1.55
191.42,4.36,5.92,4.35,5.91,-5.91,-6.11,-5.23,-1.55,-1.56,-1.56
193.33,4.28,5.86,4.30,5.88,-5.91,-6.12,-5.29,-1.63,-1.61,-1.58
195.27,4.26,5.86,4.27,5.87,-5.91,-6.13,-5.35,-1.65,-1.64,-1.60
197.22,4.28,5.89,4.27,5.88,-5.91,-6.14,-5.42,-1.64,-1.65,-1.61
199.19,4.29,5.92,4.28,5.92,-5.92,-6.15,-5.49,-1.63,-1.64,-1.63
201.18,4.30,5.95,4.30,5.95,-5.93,-6.16,-5.57,-1.63,-1.63,-1.65
203.19,4.30,5.96,4.30,5.97,-5.95,-6.16,-5.64,-1.65,-1.65,-1.66
205.23,4.31,5.99,4.31,5.98,-5.98,-6.17,-5.72,-1.67,-1.67,-1.68
207.28,4.31,6.00,4.30,6.00,-6.00,-6.17,-5.79,-1.70,-1.70,-1.70
209.35,4.30,6.01,4.30,6.01,-6.02,-6.17,-5.87,-1.72,-1.72,-1.71
211.44,4.30,6.03,4.30,6.03,-6.03,-6.17,-5.95,-1.74,-1.73,-1.73
213.56,4.30,6.05,4.30,6.05,-6.04,-6.17,-6.03,-1.74,-1.74,-1.75
215.69,4.30,6.07,4.30,6.06,-6.04,-6.17,-6.11,-1.74,-1.75,-1.77
217.85,4.29,6.07,4.27,6.05,-6.04,-6.17,-6.19,-1.75,-1.78,-1.78
220.03,4.22,6.02,4.23,6.03,-6.04,-6.17,-6.26,-1.82,-1.81,-1.81
222.23,4.18,6.00,4.19,6.01,-6.03,-6.17,-6.34,-1.85,-1.84,-1.82
224.45,4.18,6.01,4.18,6.01,-6.02,-6.17,-6.41,-1.84,-1.83,-1.83
226.70,4.18,6.02,4.18,6.02,-6.00,-6.16,-6.48,-1.83,-1.83,-1.84
228.96,4.19,6.04,4.16,6.00,-5.99,-6.16,-6.54,-1.81,-1.84,-1.85
231.25,4.11,5.96,4.13,5.99,-5.99,-6.15,-6.60,-1.88,-1.86,-1.85
233.57,4.10,5.96,4.11,5.97,-5.99,-6.14,-6.65,-1.90,-1.88,-1.86
235.90,4.12,5.99,4.11,5.98,-6.00,-6.14,-6.69,-1.88,-1.89,-1.87
238.26,4.13,6.00,4.13,6.00,-6.01,-6.13,-6.74,-1.88,-1.88,-1.87
240.64,4.15,6.02,4.15,6.02,-6.01,-6.12,-6.77,-1.86,-1.87,-1.87
243.05,4.16,6.03,4.17,6.04,-6.02,-6.11,-6.79,-1.86,-1.85,-1.87
245.48,4.18,6.05,4.18,6.04,-6.03,-6.10,-6.81,-1.85,-1.85,-1.87
247.93,4.20,6.06,4.17,6.04,-6.03,-6.09,-6.82,-1.83,-1.86,-1.87
250.41,4.14,6.00,4.16,6.03,-6.03,-6.08,-6.82,-1.89,-1.87,-1.86
252.92,4.15,6.01,4.16,6.02,-6.03,-6.07,-6.81,-1.88,-1.87,-1.86
255.45,4.16,6.03,4.16,6.02,-6.02,-6.05,-6.79,-1.86,-1.87,-1.87
258.00,4.17,6.03,4.15,6.02,-6.01,-6.04,-6.77,-1.84,-1.86,-1.86
260.58,4.13,6.00,4.13,6.00,-5.99,-6.03,-6.74,-1.86,-1.87,-1.87
263.19,4.08,5.96,4.10,5.98,-5.97,-6.01,-6.70,-1.89,-1.87,-1.88
265.82,4.07,5.96,4.07,5.96,-5.96,-6.00,-6.65,-1.89,-1.88,-1.89
268.48,4.07,5.97,4.04,5.94,-5.94,-5.98,-6.60,-1.87,-1.90,-1.90
271.16,4.00,5.91,4.01,5.92,-5.93,-5.96,-6.54,-1.93,-1.92,-1.92
273.87,3.96,5.88,3.98,5.90,-5.93,-5.95,-6.48,-1.97,-1.95,-1.92
276.61,3.96,5.90,3.95,5.89,-5.92,-5.93,-6.41,-1.96,-1.97,-1.94
279.38,3.96,5.91,3.95,5.90,-5.92,-5.91,-6.33,-1.96,-1.97,-1.95
282.17,3.96,5.92,3.96,5.92,-5.91,-5.89,-6.26,-1.96,-1.95,-1.96
284.99,3.97,5.93,3.98,5.94,-5.90,-5.87,-6.18,-1.93,-1.92,-1.96
287.84,3.98,5.94,3.98,5.94,-5.89,-5.85,-6.10,-1.91,-1.91,-1.96
290.72,3.99,5.95,3.95,5.91,-5.88,-5.83,-6.01,-1.89,-1.93,-1.96
293.63,3.88,5.85,3.89,5.86,-5.86,-5.81,-5.93,-1.98,-1.97,-1.97
296.57,3.82,5.78,3.84,5.81,-5.84,-5.79,-5.85,-2.03,-2.00,-1.96
299.53,3.82,5.77,3.81,5.77,-5.83,-5.77,-5.76,-2.01,-2.01,-1.96
302.53,3.83,5.79,3.82,5.78,-5.81,-5.74,-5.68,-1.98,-1.99,-1.96
305.55,3.84,5.79,3.84,5.80,-5.79,-5.72,-5.60,-1.95,-1.95,-1.95
308.61,3.85,5.80,3.84,5.80,-5.78,-5.70,-5.51,-1.93,-1.93,-1.96
311.69,3.85,5.81,3.83,5.79,-5.77,-5.67,-5.43,-1.92,-1.94,-1.96
314.81,3.79,5.75,3.81,5.77,-5.75,-5.65,-5.36,-1.96,-1.94,-1.96
317.96,3.77,5.74,3.77,5.74,-5.72,-5.62,-5.28,-1.96,-1.95,-1.97
321.14,3.75,5.72,3.74,5.70,-5.69,-5.60,-5.21,-1.95,-1.96,-1.97
324.35,3.69,5.65,3.70,5.66,-5.66,-5.57,-5.14,-1.97,-1.96,-1.96
327.59,3.66,5.62,3.64,5.61,-5.63,-5.55,-5.07,-1.97,-1.98,-1.97
330.87,3.59,5.56,3.60,5.57,-5.60,-5.52,-5.01,-2.01,-2.00,-1.97
334.18,3.56,5.53,3.57,5.54,-5.57,-5.49,-4.95,-2.01,-2.00,-1.97
337.52,3.56,5.53,3.55,5.53,-5.55,-5.47,-4.89,-1.99,-2.00,-1.97
340.90,3.56,5.53,3.56,5.53,-5.52,-5.44,-4.84,-1.97,-1.96,-1.98
344.30,3.56,5.53,3.56,5.53,-5.50,-5.41,-4.79,-1.94,-1.94,-1.97
347.75,3.56,5.52,3.55,5.51,-5.47,-5.38,-4.74,-1.92,-1.93,-1.96
351.23,3.51,5.48,3.51,5.47,-5.45,-5.35,-4.70,-1.94,-1.94,-1.97
354.74,3.46,5.41,3.45,5.41,-5.42,-5.33,-4.66,-1.96,-1.97,-1.96
358.28,3.38,5.34,3.40,5.36,-5.38,-5.30,-4.62,-2.00,-1.98,-1.96
361.87,3.37,5.32,3.37,5.32,-5.34,-5.27,-4.59,-1.98,-1.97,-1.95
365.49,3.37,5.31,3.35,5.30,-5.31,-5.24,-4.56,-1.94,-1.95,-1.94
369.14,3.35,5.29,3.34,5.28,-5.27,-5.21,-4.53,-1.92,-1.93,-1.94
372.83,3.30,5.22,3.32,5.25,-5.24,-5.18,-4.51,-1.94,-1.93,-1.93
376.56,3.30,5.23,3.28,5.20,-5.21,-5.14,-4.49,-1.92,-1.94,-1.93
380.33,3.24,5.17,3.25,5.17,-5.19,-5.11,-4.48,-1.95,-1.94,-1.93
384.13,3.21,5.14,3.23,5.16,-5.16,-5.08,-4.47,-1.95,-1.92,-1.93
387.97,3.22,5.15,3.21,5.14,-5.12,-5.05,-4.46,-1.90,-1.91,-1.93
391.85,3.21,5.13,3.17,5.10,-5.08,-5.02,-4.45,-1.88,-1.91,-1.92
395.77,3.10,5.03,3.12,5.05,-5.04,-4.98,-4.45,-1.94,-1.93,-1.94
399.73,3.03,4.97,3.06,4.99,-5.00,-4.95,-4.44,-1.97,-1.94,-1.94
403.72,3.02,4.96,3.01,4.95,-4.96,-4.92,-4.44,-1.94,-1.95,-1.94
407.76,2.98,4.94,2.96,4.92,-4.92,-4.88,-4.45,-1.94,-1.95,-1.96
411.84,2.92,4.88,2.91,4.87,-4.88,-4.85,-4.45,-1.96,-1.97,-1.96
415.96,2.84,4.80,2.86,4.82,-4.84,-4.81,-4.46,-2.00,-1.98,-1.96
420.12,2.81,4.78,2.82,4.79,-4.80,-4.77,-4.46,-1.99,-1.98,-1.97
424.32,2.81,4.77,2.80,4.76,-4.76,-4.74,-4.47,-1.95,-1.96,-1.96
428.56,2.80,4.75,2.78,4.74,-4.71,-4.70,-4.48,-1.91,-1.93,-1.96
432.85,2.75,4.68,2.76,4.70,-4.67,-4.66,-4.49,-1.92,-1.91,-1.94
437.18,2.72,4.65,2.72,4.64,-4.63,-4.62,-4.50,-1.92,-1.92,-1.93
441.55,2.70,4.59,2.68,4.57,-4.60,-4.58,-4.50,-1.90,-1.92,-1.89
445.96,2.66,4.51,2.68,4.53,-4.56,-4.54,-4.51,-1.91,-1.89,-1.85
450.42,2.69,4.49,2.70,4.50,-4.53,-4.50,-4.51,-1.84,-1.82,-1.80
454.93,2.75,4.50,2.75,4.49,-4.49,-4.46,-4.52,-1.74,-1.74,-1.75
459.48,2.81,4.50,2.78,4.48,-4.45,-4.41,-4.52,-1.64,-1.67,-1.69
464.07,2.80,4.44,2.79,4.44,-4.41,-4.37,-4.51,-1.61,-1.62,-1.64
468.71,2.76,4.35,2.79,4.38,-4.37,-4.32,-4.51,-1.61,-1.58,-1.59
473.40,2.79,4.32,2.78,4.32,-4.32,-4.27,-4.50,-1.53,-1.54,-1.53
478.13,2.79,4.26,2.78,4.26,-4.27,-4.23,-4.49,-1.48,-1.48,-1.47
482.91,2.79,4.21,2.78,4.21,-4.21,-4.18,-4.47,-1.42,-1.43,-1.43
487.74,2.75,4.13,2.75,4.13,-4.15,-4.13,-4.45,-1.40,-1.40,-1.39
492.62,2.72,4.07,2.73,4.08,-4.08,-4.07,-4.42,-1.36,-1.35,-1.35
497.55,2.70,4.01,2.71,4.02,-4.02,-4.02,-4.39,-1.32,-1.31,-1.31
502.52,2.72,4.01,2.68,3.96,-3.96,-3.97,-4.36,-1.24,-1.28,-1.29
507.55,2.64,3.90,2.65,3.91,-3.90,-3.91,-4.32,-1.26,-1.25,-1.26
512.62,2.57,3.82,2.60,3.85,-3.84,-3.86,-4.28,-1.28,-1.24,-1.25
517.75,2.56,3.81,2.53,3.78,-3.79,-3.80,-4.23,-1.23,-1.26,-1.25
