frequency,raw
20,-12.62
21,-11.93
22,-11.24
23,-10.66
24,-10.14
25,-9.61
26,-9.13
27,-8.65
28,-8.16
29,-7.72
30,-7.25
31,-6.89
32,-6.48
33,-6.09
34,-5.72
35,-5.36
36,-4.99
37,-4.64
38,-4.32
39,-3.98
40,-3.75
41,-3.57
42,-3.20
43,-2.90
44,-2.59
45,-2.48
46,-2.22
47,-2.14
48,-1.84
49,-1.79
50,-1.59
51,-1.59
52,-1.40
53,-1.39
54,-1.28
55,-1.02
56,-0.88
57,-0.78
58,-0.55
59,-0.38
60,-0.27
61,-0.13
62,0.10
63,0.22
64,0.32
65,0.42
66,0.52
67,0.62
68,0.72
69,0.82
70,0.93
71,0.98
72,1.03
73,1.07
74,1.15
75,1.23
76,1.26
77,1.33
78,1.33
79,1.33
80,1.40
81,1.47
82,1.53
83,1.53
84,1.53
85,1.53
86,1.53
87,1.53
88,1.53
89,1.65
90,1.65
91,1.63
92,1.64
93,1.64
94,1.64
95,1.64
96,1.63
97,1.63
98,1.62
99,1.61
100,1.59
101,1.58
102,1.56
104,1.53
105,1.51
106,1.48
107,1.46
108,1.44
109,1.42
110,1.40
111,1.30
112,1.23
113,1.25
114,1.25
115,1.25
117,1.25
118,1.26
119,1.26
120,1.27
121,1.27
123,1.12
124,1.17
125,1.20
126,1.20
128,1.21
129,1.22
130,1.15
131,1.13
133,1.03
134,1.04
135,0.98
137,0.88
138,0.94
140,0.95
141,1.00
142,1.03
144,0.75
145,0.67
147,0.75
148,0.75
150,0.75
151,0.75
153,0.71
154,0.65
156,0.58
157,0.55
159,0.55
160,0.42
162,0.46
164,0.45
165,0.34
167,0.34
169,0.33
170,0.23
172,0.18
174,0.28
175,0.17
177,0.10
179,0.10
181,0.01
183,-0.09
184,-0.04
186,0.03
188,0.15
190,0.03
192,-0.22
194,-0.16
196,-0.09
198,0.02
200,-0.06
202,-0.36
204,-0.33
206,-0.26
208,-0.18
210,-0.19
212,-0.37
214,-0.47
216,-0.57
218,-0.51
221,-0.48
223,-0.48
225,-0.58
227,-0.58
229,-0.67
232,-0.67
234,-0.66
236,-0.65
239,-0.86
241,-0.80
244,-0.69
246,-0.57
248,-0.69
251,-0.94
253,-0.82
256,-0.81
259,-0.80
261,-0.92
264,-1.03
266,-0.96
269,-1.00
272,-1.10
274,-1.11
277,-1.11
280,-1.11
283,-1.11
286,-1.14
288,-1.18
291,-1.09
294,-1.13
297,-1.09
300,-1.00
303,-1.01
306,-0.92
309,-0.77
312,-0.76
316,-0.90
319,-0.90
322,-0.89
325,-0.86
328,-0.86
332,-1.01
335,-0.99
338,-0.99
342,-1.14
345,-1.23
349,-1.20
352,-1.27
356,-1.31
359,-1.30
363,-1.30
366,-1.29
370,-1.29
374,-1.16
377,-1.15
381,-1.16
385,-1.16
389,-1.15
393,-1.15
397,-1.15
401,-1.15
405,-1.15
409,-1.23
413,-1.30
417,-1.26
421,-1.26
425,-1.25
430,-1.24
434,-1.22
438,-1.19
443,-1.14
447,-1.07
451,-1.07
456,-1.10
460,-1.04
465,-0.98
470,-0.92
474,-0.86
479,-0.81
484,-0.74
489,-0.71
494,-0.78
499,-0.76
504,-0.73
509,-0.71
514,-0.70
519,-0.70
524,-0.70
529,-0.71
535,-0.73
540,-0.76
545,-0.80
551,-0.85
556,-0.94
562,-1.05
568,-1.10
573,-1.14
579,-1.18
585,-1.20
591,-1.22
596,-1.22
602,-1.22
608,-1.21
615,-1.19
621,-1.17
627,-1.15
633,-1.12
639,-1.08
646,-1.05
652,-1.00
659,-0.96
665,-0.91
672,-0.85
679,-0.80
686,-0.76
692,-0.72
699,-0.69
706,-0.68
713,-0.75
721,-0.79
728,-0.72
735,-0.71
742,-0.65
750,-0.68
757,-0.71
765,-0.73
773,-0.75
780,-0.76
788,-0.76
796,-0.72
804,-0.64
812,-0.65
820,-0.67
828,-0.66
837,-0.42
845,-0.43
853,-0.45
862,-0.32
871,-0.33
879,-0.37
888,-0.25
897,-0.23
906,-0.29
915,-0.17
924,-0.14
933,-0.28
943,-0.26
952,-0.06
962,-0.03
971,-0.03
981,-0.04
991,-0.12
1001,0.01
1011,0.11
1021,0.26
1031,0.25
1041,0.25
1052,0.29
1062,0.33
1073,0.37
1084,0.48
1094,0.49
1105,0.55
1116,0.65
1128,0.67
1139,0.74
1150,0.82
1162,0.91
1173,1.00
1185,1.16
1197,1.27
1209,1.22
1221,1.29
1233,1.32
1246,1.52
1258,1.65
1271,1.62
1283,1.68
1296,1.80
1309,1.89
1322,1.93
1335,2.00
1349,2.28
1362,2.42
1376,2.59
1390,2.83
1404,2.85
1418,2.89
1432,2.96
1446,2.94
1461,3.06
1475,3.17
1490,3.36
1505,3.46
1520,3.55
1535,3.65
1550,3.76
1566,3.86
1582,3.90
1597,4.09
1613,4.22
1629,4.32
1646,4.51
1662,4.68
1679,4.85
1696,5.02
1713,5.25
1730,5.46
1747,5.74
1764,5.89
1782,6.09
1800,6.32
1818,6.75
1836,7.23
1854,7.70
1873,8.25
1892,8.80
1911,9.13
1930,9.62
1949,10.01
1969,10.00
1988,10.57
2008,10.75
2028,10.80
2048,11.40
2069,11.42
2090,11.46
2111,11.49
2132,11.32
2153,11.38
2175,11.34
2196,11.19
2218,11.42
2240,11.61
2263,11.37
2285,10.73
2308,10.47
2331,10.41
2355,10.61
2378,10.79
2402,10.81
2426,10.59
2450,10.45
2475,10.21
2500,10.14
2525,10.53
2550,10.79
2575,10.45
2601,10.25
2627,10.37
2653,10.61
2680,10.82
2707,10.82
2734,10.63
2761,10.20
2789,10.40
2817,10.71
2845,10.91
2873,11.24
2902,11.74
2931,11.72
2960,11.82
2990,11.73
3020,11.89
3050,11.68
3080,11.56
3111,11.75
3142,12.06
3174,12.09
3206,11.97
3238,11.51
3270,11.36
3303,11.48
3336,11.72
3369,11.94
3403,12.24
3437,12.54
3471,12.61
3506,12.77
3541,13.60
3576,13.72
3612,13.10
3648,12.72
3685,12.69
3721,12.15
3759,11.52
3796,11.41
3834,11.47
3873,10.94
3911,10.77
3950,10.28
3990,9.52
4030,8.88
4070,8.37
4111,8.03
4152,7.63
4193,7.17
4235,6.54
4278,6.29
4321,6.13
4364,5.92
4407,5.29
4451,5.06
4496,4.86
4541,4.65
4586,4.14
4632,4.14
4679,4.35
4725,4.91
4773,5.06
4820,5.09
4868,5.28
4917,5.59
4966,5.88
5016,6.21
5066,6.14
5117,6.39
5168,6.60
5220,7.15
5272,7.17
5325,6.94
5378,6.65
5432,6.49
5486,6.47
5541,6.27
5596,6.19
5652,5.82
5709,5.37
5766,4.88
5823,4.55
5882,4.61
5940,4.63
6000,4.51
6060,4.64
6120,4.99
6182,4.90
6244,4.50
6306,4.43
6369,4.68
6433,4.80
6497,4.62
6562,4.37
6628,4.55
6694,4.78
6761,5.30
6828,5.76
6897,5.86
6966,6.07
7035,6.68
7106,6.81
7177,6.99
7249,7.10
7321,6.77
7394,6.69
7468,6.60
7543,6.59
7618,6.73
7694,6.88
7771,6.98
7849,6.92
7928,6.77
8007,6.46
8087,6.13
8168,5.85
8250,5.54
8332,5.01
8415,4.76
8499,4.49
8584,5.71
8670,6.49
8757,7.24
8845,7.50
8933,7.98
9022,8.62
9113,9.43
9204,10.37
9296,11.12
9389,11.98
9483,12.51
9577,12.02
9673,11.44
9770,10.35
9868,9.14
9966,8.32
10066,7.14
10167,6.01
10268,4.68
10371,3.33
10475,1.79
10579,-0.71
10685,-1.31
10792,-2.18
10900,-2.94
11009,-3.56
11119,-3.67
11230,-2.82
11343,-2.43
11456,-2.10
11571,-2.42
11686,-2.24
11803,-1.61
11921,-1.32
12040,-1.38
12161,-1.11
12282,0.16
12405,-1.48
12529,-2.87
12655,-4.26
12781,-5.44
12909,-6.60
13038,-7.89
13168,-8.18
13300,-10.39
13433,-11.27
13567,-11.91
13703,-12.88
13840,-12.55
13978,-10.64
14118,-8.41
14259,-7.03
14402,-6.30
14546,-5.54
14692,-5.45
14838,-5.68
14987,-6.12
15137,-7.07
15288,-9.75
15441,-10.51
15595,-10.99
15751,-10.43
15909,-9.77
16068,-8.31
16229,-7.88
16391,-8.53
16555,-9.31
16720,-9.39
16888,-9.75
17056,-10.18
17227,-10.51
17399,-11.71
17573,-13.50
17749,-14.67
17926,-15.28
18106,-15.10
18287,-13.96
18470,-11.26
18654,-9.41
18841,-9.10
19029,-9.21
19220,-10.33
19412,-10.80
19606,-11.15
19802,-10.15
20000,-9.68
