frequency,raw
20.00,3.97
20.20,4.02
20.40,4.08
20.61,4.13
20.81,4.18
21.02,4.23
21.23,4.27
21.44,4.32
21.66,4.36
21.87,4.40
22.09,4.44
22.31,4.47
22.54,4.51
22.76,4.54
22.99,4.57
23.22,4.59
23.45,4.62
23.69,4.64
23.92,4.66
24.16,4.68
24.40,4.69
24.65,4.70
24.89,4.72
25.14,4.74
25.39,4.75
25.65,4.76
25.91,4.77
26.16,4.78
26.43,4.79
26.69,4.79
26.96,4.80
27.23,4.80
27.50,4.80
27.77,4.81
28.05,4.81
28.33,4.81
28.62,4.82
28.90,4.82
29.19,4.82
29.48,4.82
29.78,4.83
30.08,4.83
30.38,4.83
30.68,4.84
30.99,4.84
31.30,4.84
31.61,4.85
31.93,4.86
32.24,4.87
32.57,4.87
32.89,4.88
33.22,4.89
33.55,4.89
33.89,4.90
34.23,4.90
34.57,4.91
34.92,4.91
35.27,4.92
35.62,4.92
35.97,4.91
36.33,4.91
36.70,4.91
37.06,4.91
37.43,4.91
37.81,4.91
38.19,4.90
38.57,4.89
38.95,4.88
39.34,4.87
39.74,4.85
40.14,4.84
40.54,4.81
40.94,4.80
41.35,4.77
41.76,4.75
42.18,4.72
42.60,4.68
43.03,4.66
43.46,4.62
43.90,4.59
44.33,4.54
44.78,4.50
45.23,4.45
45.68,4.41
46.13,4.37
46.60,4.32
47.06,4.27
47.53,4.22
48.01,4.17
48.49,4.12
48.97,4.07
49.46,4.02
49.96,3.97
50.46,3.91
50.96,3.86
51.47,3.81
51.99,3.77
52.51,3.72
53.03,3.67
53.56,3.62
54.10,3.58
54.64,3.53
55.18,3.49
55.74,3.44
56.29,3.40
56.86,3.35
57.42,3.31
58.00,3.28
58.58,3.24
59.16,3.20
59.76,3.17
60.35,3.13
60.96,3.11
61.57,3.07
62.18,3.04
62.80,3.02
63.43,2.99
64.07,2.97
64.71,2.95
65.35,2.92
66.01,2.90
66.67,2.88
67.33,2.85
68.01,2.83
68.69,2.82
69.37,2.80
70.07,2.78
70.77,2.76
71.48,2.75
72.19,2.72
72.91,2.71
73.64,2.69
74.38,2.67
75.12,2.66
75.87,2.64
76.63,2.62
77.40,2.60
78.17,2.59
78.95,2.56
79.74,2.55
80.54,2.52
81.35,2.51
82.16,2.48
82.98,2.46
83.81,2.44
84.65,2.42
85.50,2.38
86.35,2.36
87.22,2.33
88.09,2.30
88.97,2.27
89.86,2.24
90.76,2.21
91.66,2.18
92.58,2.14
93.51,2.11
94.44,2.08
95.39,2.04
96.34,2.00
97.30,1.96
98.28,1.93
99.26,1.88
100.25,1.85
101.25,1.80
102.27,1.76
103.29,1.71
104.32,1.66
105.37,1.61
106.42,1.55
107.48,1.49
108.56,1.43
109.64,1.36
110.74,1.29
111.85,1.23
112.97,1.15
114.10,1.07
115.24,0.98
116.39,0.90
117.55,0.82
118.73,0.73
119.92,0.63
121.12,0.54
122.33,0.44
123.55,0.35
124.79,0.25
126.03,0.14
127.29,0.03
128.57,-0.07
129.85,-0.18
131.15,-0.29
132.46,-0.41
133.79,-0.52
135.12,-0.63
136.48,-0.75
137.84,-0.86
139.22,-0.97
140.61,-1.09
142.02,-1.20
143.44,-1.32
144.87,-1.44
146.32,-1.55
147.78,-1.66
149.26,-1.77
150.75,-1.88
152.26,-1.98
153.78,-2.09
155.32,-2.19
156.88,-2.29
158.44,-2.39
160.03,-2.48
161.63,-2.58
163.24,-2.66
164.88,-2.74
166.53,-2.82
168.19,-2.90
169.87,-2.97
171.57,-3.04
173.29,-3.09
175.02,-3.16
176.77,-3.21
178.54,-3.26
180.32,-3.29
182.13,-3.34
183.95,-3.37
185.79,-3.39
187.65,-3.42
189.52,-3.44
191.42,-3.45
193.33,-3.46
195.27,-3.48
197.22,-3.48
199.19,-3.49
201.18,-3.48
203.19,-3.47
205.23,-3.47
207.28,-3.46
209.35,-3.45
211.44,-3.44
213.56,-3.42
215.69,-3.40
217.85,-3.38
220.03,-3.36
222.23,-3.34
224.45,-3.32
226.70,-3.31
228.96,-3.28
231.25,-3.25
233.57,-3.24
235.90,-3.21
238.26,-3.19
240.64,-3.16
243.05,-3.13
245.48,-3.11
247.93,-3.09
250.41,-3.06
252.92,-3.03
255.45,-3.01
258.00,-2.99
260.58,-2.96
263.19,-2.93
265.82,-2.91
268.48,-2.89
271.16,-2.86
273.87,-2.84
276.61,-2.81
279.38,-2.79
282.17,-2.76
284.99,-2.74
287.84,-2.72
290.72,-2.69
293.63,-2.67
296.57,-2.65
299.53,-2.63
302.53,-2.61
305.55,-2.58
308.61,-2.57
311.69,-2.54
314.81,-2.52
317.96,-2.51
321.14,-2.49
324.35,-2.47
327.59,-2.46
330.87,-2.44
334.18,-2.42
337.52,-2.42
340.90,-2.40
344.30,-2.39
347.75,-2.38
351.23,-2.37
354.74,-2.36
358.28,-2.36
361.87,-2.35
365.49,-2.35
369.14,-2.35
372.83,-2.34
376.56,-2.34
380.33,-2.34
384.13,-2.34
387.97,-2.34
391.85,-2.35
395.77,-2.35
399.73,-2.36
403.72,-2.36
407.76,-2.36
411.84,-2.37
415.96,-2.36
420.12,-2.37
424.32,-2.36
428.56,-2.36
432.85,-2.34
437.18,-2.34
441.55,-2.32
445.96,-2.31
450.42,-2.30
454.93,-2.28
459.48,-2.27
464.07,-2.25
468.71,-2.22
473.40,-2.20
478.13,-2.18
482.91,-2.14
487.74,-2.12
492.62,-2.09
497.55,-2.06
502.52,-2.03
507.55,-2.00
512.62,-1.96
517.75,-1.93
522.93,-1.90
528.16,-1.86
533.44,-1.83
538.77,-1.80
544.16,-1.77
549.60,-1.74
555.10,-1.71
560.65,-1.69
566.25,-1.66
571.92,-1.64
577.64,-1.62
583.41,-1.60
589.25,-1.58
595.14,-1.56
601.09,-1.54
607.10,-1.53
613.17,-1.52
619.30,-1.51
625.50,-1.49
631.75,-1.48
638.07,-1.47
644.45,-1.47
650.89,-1.47
657.40,-1.47
663.98,-1.48
670.62,-1.48
677.32,-1.50
684.10,-1.52
690.94,-1.54
697.85,-1.57
704.83,-1.60
711.87,-1.62
718.99,-1.67
726.18,-1.70
733.44,-1.74
740.78,-1.77
748.19,-1.80
755.67,-1.84
763.23,-1.87
770.86,-1.88
778.57,-1.89
786.35,-1.90
794.22,-1.89
802.16,-1.88
810.18,-1.86
818.28,-1.82
826.46,-1.77
834.73,-1.71
843.08,-1.64
851.51,-1.56
860.02,-1.46
868.62,-1.37
877.31,-1.26
886.08,-1.15
894.94,-1.05
903.89,-0.94
912.93,-0.83
922.06,-0.71
931.28,-0.61
940.59,-0.51
950.00,-0.41
959.50,-0.31
969.09,-0.23
978.78,-0.16
988.57,-0.08
998.46,-0.01
1008.44,0.05
1018.53,0.11
1028.71,0.16
1039.00,0.20
1049.39,0.24
1059.88,0.28
1070.48,0.31
1081.19,0.34
1092.00,0.36
1102.92,0.38
1113.95,0.40
1125.09,0.41
1136.34,0.44
1147.70,0.45
1159.18,0.47
1170.77,0.49
1182.48,0.51
1194.30,0.53
1206.25,0.56
1218.31,0.59
1230.49,0.61
1242.80,0.65
1255.22,0.70
1267.78,0.74
1280.45,0.79
1293.26,0.85
1306.19,0.90
1319.25,0.98
1332.45,1.05
1345.77,1.13
1359.23,1.22
1372.82,1.31
1386.55,1.41
1400.41,1.53
1414.42,1.64
1428.56,1.76
1442.85,1.89
1457.28,2.04
1471.85,2.18
1486.57,2.33
1501.43,2.49
1516.45,2.65
1531.61,2.82
1546.93,3.00
1562.40,3.18
1578.02,3.36
1593.80,3.55
1609.74,3.74
1625.84,3.94
1642.10,4.13
1658.52,4.33
1675.10,4.52
1691.85,4.72
1708.77,4.91
1725.86,5.11
1743.12,5.31
1760.55,5.50
1778.15,5.69
1795.94,5.88
1813.90,6.07
1832.03,6.24
1850.36,6.42
1868.86,6.60
1887.55,6.77
1906.42,6.94
1925.49,7.10
1944.74,7.26
1964.19,7.42
1983.83,7.57
2003.67,7.72
2023.71,7.86
2043.94,8.00
2064.38,8.13
2085.03,8.26
2105.88,8.39
2126.94,8.51
2148.20,8.63
2169.69,8.74
2191.38,8.85
2213.30,8.96
2235.43,9.07
2257.78,9.18
2280.36,9.28
2303.17,9.38
2326.20,9.48
2349.46,9.58
2372.95,9.68
2396.68,9.77
2420.65,9.87
2444.86,9.96
2469.31,10.06
2494.00,10.15
2518.94,10.23
2544.13,10.32
2569.57,10.42
2595.27,10.50
2621.22,10.58
2647.43,10.66
2673.90,10.75
2700.64,10.83
2727.65,10.89
2754.93,10.97
2782.48,11.04
2810.30,11.09
2838.40,11.16
2866.79,11.22
2895.46,11.26
2924.41,11.30
2953.65,11.34
2983.19,11.37
3013.02,11.39
3043.15,11.41
3073.58,11.42
3104.32,11.42
3135.36,11.40
3166.72,11.38
3198.38,11.34
3230.37,11.31
3262.67,11.25
3295.30,11.17
3328.25,11.09
3361.53,10.98
3395.15,10.87
3429.10,10.74
3463.39,10.59
3498.03,10.43
3533.01,10.25
3568.34,10.06
3604.02,9.84
3640.06,9.62
3676.46,9.38
3713.22,9.13
3750.36,8.87
3787.86,8.60
3825.74,8.32
3864.00,8.03
3902.64,7.73
3941.66,7.43
3981.08,7.12
4020.89,6.80
4061.10,6.48
4101.71,6.16
4142.73,5.85
4184.15,5.52
4226.00,5.19
4268.26,4.86
4310.94,4.54
4354.05,4.21
4397.59,3.89
4441.56,3.57
4485.98,3.25
4530.84,2.94
4576.15,2.64
4621.91,2.35
4668.13,2.08
4714.81,1.82
4761.96,1.57
4809.58,1.36
4857.67,1.18
4906.25,1.03
4955.31,0.94
5004.87,0.89
5054.91,0.88
5105.46,0.95
5156.52,1.07
5208.08,1.23
5260.16,1.46
5312.77,1.72
5365.89,2.01
5419.55,2.33
5473.75,2.64
5528.49,2.94
5583.77,3.22
5639.61,3.44
5696.00,3.61
5752.96,3.74
5810.49,3.78
5868.60,3.79
5927.28,3.73
5986.56,3.62
6046.42,3.48
6106.89,3.32
6167.96,3.13
6229.64,2.94
6291.93,2.74
6354.85,2.56
6418.40,2.41
6482.58,2.27
6547.41,2.16
6612.88,2.09
6679.01,2.05
6745.80,2.06
6813.26,2.11
6881.39,2.21
6950.21,2.36
7019.71,2.55
7089.91,2.80
7160.81,3.07
7232.41,3.35
7304.74,3.64
7377.79,3.90
7451.56,4.12
7526.08,4.23
7601.34,4.27
7677.35,4.24
7754.13,4.10
7831.67,3.91
7909.98,3.69
7989.08,3.45
8068.98,3.23
8149.67,3.03
8231.16,2.87
8313.47,2.73
8396.61,2.60
8480.57,2.46
8565.38,2.31
8651.03,2.12
8737.54,1.90
8824.92,1.64
8913.17,1.37
9002.30,1.09
9092.32,0.81
9183.25,0.54
9275.08,0.28
9367.83,0.04
9461.51,-0.16
9556.12,-0.36
9651.68,-0.53
9748.20,-0.69
9845.68,-0.83
9944.14,-0.96
10043.58,-1.07
10144.02,-1.17
10245.46,-1.25
10347.91,-1.31
10451.39,-1.34
10555.91,-1.37
10661.46,-1.36
10768.08,-1.33
10875.76,-1.27
10984.52,-1.20
11094.36,-1.09
11205.31,-0.94
11317.36,-0.77
11430.53,-0.54
11544.84,-0.28
11660.29,0.02
11776.89,0.39
11894.66,0.78
12013.60,1.18
12133.74,1.58
12255.08,1.91
12377.63,2.16
12501.41,2.26
12626.42,2.20
12752.68,1.99
12880.21,1.61
13009.01,1.04
13139.10,0.39
13270.49,-0.36
13403.20,-1.17
13537.23,-1.96
13672.60,-2.75
13809.33,-3.45
13947.42,-4.08
14086.90,-4.63
14227.77,-5.07
14370.04,-5.38
14513.74,-5.61
14658.88,-5.68
14805.47,-5.63
14953.52,-5.50
15103.06,-5.30
15254.09,-5.13
15406.63,-5.01
15560.70,-5.00
15716.30,-5.20
15873.47,-5.57
16032.20,-6.10
16192.52,-6.87
16354.45,-7.74
16517.99,-8.69
16683.17,-9.68
16850.01,-10.64
17018.51,-11.57
17188.69,-12.42
17360.58,-13.21
17534.18,-13.96
17709.53,-14.69
17886.62,-15.42
18065.49,-16.20
18246.14,-17.06
18428.60,-18.01
18612.89,-18.90
18799.02,-19.74
18987.01,-20.58
19176.88,-21.60
19368.65,-22.81
19562.33,-24.41
19757.96,-26.63
19955.54,-29.33
