frequency,raw,error,smoothed,error_smoothed,equalization,parametric_eq,fixed_band_eq,equalized_raw,equalized_smoothed,target
20.00,-0.14,-6.31,-0.14,-6.31,5.98,5.77,2.34,5.84,5.84,6.17
20.20,-0.11,-6.28,-0.11,-6.28,6.00,5.76,2.41,5.89,5.89,6.17
20.40,-0.08,-6.25,-0.08,-6.25,6.01,5.74,2.48,5.93,5.93,6.17
20.61,-0.05,-6.22,-0.05,-6.22,6.02,5.73,2.55,5.97,5.97,6.17
20.81,-0.01,-6.18,-0.01,-6.18,6.02,5.71,2.62,6.01,6.01,6.17
21.02,0.02,-6.15,0.02,-6.14,6.02,5.69,2.70,6.04,6.04,6.17
21.23,0.05,-6.10,0.05,-6.10,6.01,5.68,2.78,6.06,6.06,6.15
21.44,0.08,-6.06,0.08,-6.06,5.99,5.66,2.86,6.08,6.07,6.14
21.66,0.10,-6.02,0.11,-6.02,5.98,5.64,2.94,6.08,6.08,6.12
21.87,0.13,-5.97,0.13,-5.97,5.95,5.63,3.03,6.08,6.08,6.10
22.09,0.16,-5.93,0.16,-5.93,5.92,5.61,3.11,6.08,6.08,6.09
22.31,0.18,-5.88,0.18,-5.88,5.88,5.59,3.20,6.06,6.06,6.06
22.54,0.20,-5.84,0.21,-5.83,5.83,5.58,3.29,6.03,6.04,6.04
22.76,0.24,-5.78,0.23,-5.78,5.78,5.56,3.39,6.02,6.01,6.02
22.99,0.26,-5.72,0.26,-5.72,5.73,5.54,3.49,5.99,5.99,5.99
23.22,0.29,-5.66,0.29,-5.67,5.67,5.52,3.59,5.96,5.97,5.95
23.45,0.32,-5.61,0.32,-5.62,5.62,5.51,3.69,5.94,5.94,5.93
23.69,0.35,-5.57,0.35,-5.57,5.58,5.49,3.79,5.93,5.93,5.92
23.92,0.38,-5.52,0.38,-5.53,5.53,5.47,3.90,5.91,5.91,5.90
24.16,0.40,-5.49,0.40,-5.49,5.49,5.45,4.00,5.89,5.89,5.89
24.40,0.42,-5.45,0.42,-5.45,5.45,5.44,4.11,5.87,5.87,5.87
24.65,0.44,-5.41,0.44,-5.41,5.41,5.42,4.22,5.85,5.85,5.85
24.89,0.46,-5.37,0.46,-5.37,5.37,5.40,4.34,5.83,5.83,5.83
25.14,0.49,-5.33,0.49,-5.33,5.33,5.38,4.45,5.82,5.81,5.82
25.39,0.51,-5.29,0.51,-5.29,5.29,5.36,4.56,5.80,5.80,5.80
25.65,0.53,-5.26,0.53,-5.24,5.25,5.34,4.68,5.78,5.78,5.79
25.91,0.56,-5.20,0.56,-5.21,5.21,5.33,4.79,5.77,5.76,5.76
26.16,0.58,-5.16,0.58,-5.16,5.17,5.31,4.91,5.75,5.75,5.74
26.43,0.60,-5.13,0.60,-5.12,5.13,5.29,5.02,5.73,5.73,5.73
26.69,0.63,-5.08,0.63,-5.09,5.09,5.27,5.13,5.72,5.72,5.71
26.96,0.65,-5.05,0.65,-5.05,5.05,5.25,5.25,5.70,5.70,5.70
27.23,0.67,-5.02,0.67,-5.02,5.01,5.23,5.35,5.68,5.68,5.69
27.50,0.69,-4.99,0.69,-4.98,4.98,5.21,5.46,5.67,5.67,5.68
27.77,0.71,-4.94,0.71,-4.94,4.94,5.19,5.56,5.65,5.65,5.66
28.05,0.74,-4.90,0.74,-4.90,4.90,5.17,5.66,5.64,5.64,5.64
28.33,0.76,-4.86,0.76,-4.87,4.87,5.15,5.76,5.63,5.63,5.62
28.62,0.78,-4.83,0.78,-4.83,4.84,5.13,5.85,5.62,5.62,5.61
28.90,0.80,-4.80,0.80,-4.80,4.80,5.11,5.93,5.60,5.60,5.60
29.19,0.81,-4.77,0.81,-4.77,4.77,5.10,6.00,5.58,5.59,5.58
29.48,0.83,-4.75,0.83,-4.74,4.74,5.08,6.07,5.57,5.57,5.58
29.78,0.84,-4.72,0.84,-4.72,4.72,5.06,6.13,5.56,5.56,5.56
30.08,0.86,-4.69,0.85,-4.70,4.69,5.04,6.18,5.55,5.55,5.55
30.38,0.86,-4.67,0.86,-4.67,4.67,5.02,6.23,5.53,5.53,5.53
30.68,0.87,-4.65,0.87,-4.64,4.65,5.00,6.26,5.52,5.52,5.52
30.99,0.88,-4.62,0.88,-4.62,4.63,4.98,6.29,5.51,5.50,5.50
31.30,0.88,-4.60,0.88,-4.61,4.61,4.96,6.30,5.49,5.49,5.48
31.61,0.88,-4.59,0.88,-4.59,4.59,4.94,6.31,5.47,5.47,5.47
31.93,0.87,-4.58,0.87,-4.57,4.58,4.92,6.30,5.45,5.45,5.45
32.24,0.86,-4.56,0.86,-4.57,4.57,4.90,6.29,5.43,5.43,5.42
32.57,0.85,-4.55,0.85,-4.56,4.56,4.88,6.26,5.41,5.41,5.41
32.89,0.83,-4.56,0.83,-4.55,4.55,4.86,6.23,5.38,5.39,5.39
33.22,0.82,-4.54,0.82,-4.55,4.55,4.84,6.19,5.37,5.36,5.36
33.55,0.80,-4.55,0.80,-4.55,4.54,4.82,6.15,5.34,5.34,5.35
33.89,0.78,-4.54,0.78,-4.54,4.53,4.80,6.09,5.32,5.32,5.32
34.23,0.77,-4.53,0.77,-4.53,4.53,4.78,6.03,5.30,5.30,5.30
34.57,0.76,-4.52,0.76,-4.52,4.52,4.76,5.96,5.28,5.28,5.28
34.92,0.75,-4.50,0.75,-4.51,4.51,4.74,5.89,5.26,5.26,5.26
35.27,0.73,-4.51,0.73,-4.50,4.50,4.72,5.82,5.23,5.24,5.24
35.62,0.72,-4.50,0.72,-4.50,4.50,4.70,5.74,5.22,5.22,5.22
35.97,0.71,-4.48,0.71,-4.49,4.49,4.68,5.65,5.20,5.20,5.19
36.33,0.70,-4.48,0.70,-4.48,4.48,4.66,5.57,5.18,5.18,5.18
36.70,0.68,-4.48,0.68,-4.48,4.48,4.64,5.48,5.16,5.16,5.16
37.06,0.66,-4.47,0.66,-4.48,4.48,4.62,5.40,5.14,5.14,5.13
37.43,0.64,-4.48,0.64,-4.47,4.47,4.60,5.31,5.11,5.11,5.12
37.81,0.62,-4.47,0.62,-4.47,4.47,4.58,5.22,5.09,5.09,5.09
38.19,0.61,-4.46,0.61,-4.47,4.46,4.56,5.14,5.07,5.07,5.07
38.57,0.59,-4.46,0.59,-4.46,4.46,4.54,5.05,5.05,5.05,5.06
38.95,0.57,-4.46,0.57,-4.45,4.46,4.52,4.96,5.03,5.03,5.03
39.34,0.56,-4.44,0.56,-4.45,4.45,4.50,4.88,5.01,5.01,5.00
39.74,0.54,-4.44,0.54,-4.44,4.44,4.48,4.80,4.99,4.99,4.98
40.14,0.53,-4.44,0.53,-4.44,4.44,4.46,4.72,4.97,4.97,4.97
40.54,0.51,-4.44,0.51,-4.44,4.44,4.45,4.64,4.95,4.95,4.95
40.94,0.50,-4.43,0.50,-4.43,4.43,4.43,4.57,4.93,4.93,4.93
41.35,0.49,-4.42,0.49,-4.42,4.43,4.41,4.50,4.92,4.92,4.91
41.76,0.48,-4.42,0.48,-4.42,4.42,4.39,4.43,4.90,4.90,4.90
42.18,0.46,-4.42,0.46,-4.42,4.42,4.37,4.36,4.88,4.88,4.88
42.60,0.45,-4.41,0.45,-4.42,4.41,4.35,4.30,4.86,4.86,4.86
43.03,0.44,-4.41,0.44,-4.40,4.40,4.34,4.24,4.84,4.84,4.85
43.46,0.43,-4.39,0.43,-4.39,4.39,4.32,4.18,4.82,4.82,4.82
43.90,0.43,-4.37,0.43,-4.38,4.37,4.30,4.12,4.80,4.80,4.80
44.33,0.42,-4.36,0.42,-4.36,4.36,4.29,4.07,4.78,4.78,4.78
44.78,0.41,-4.35,0.41,-4.34,4.34,4.27,4.03,4.75,4.76,4.76
45.23,0.41,-4.32,0.41,-4.33,4.33,4.25,3.98,4.74,4.74,4.73
45.68,0.40,-4.31,0.40,-4.31,4.32,4.24,3.94,4.72,4.72,4.71
46.13,0.40,-4.29,0.40,-4.30,4.30,4.22,3.90,4.71,4.70,4.69
46.60,0.39,-4.29,0.39,-4.29,4.29,4.20,3.87,4.68,4.68,4.68
47.06,0.38,-4.28,0.38,-4.28,4.28,4.19,3.83,4.66,4.66,4.67
47.53,0.38,-4.26,0.38,-4.27,4.27,4.17,3.80,4.65,4.64,4.65
48.01,0.37,-4.26,0.37,-4.26,4.25,4.15,3.78,4.62,4.62,4.64
48.49,0.36,-4.24,0.36,-4.24,4.23,4.14,3.75,4.59,4.60,4.60
48.97,0.36,-4.21,0.36,-4.22,4.22,4.12,3.73,4.58,4.57,4.57
49.46,0.35,-4.19,0.35,-4.19,4.20,4.11,3.71,4.55,4.55,4.54
49.96,0.35,-4.16,0.35,-4.17,4.17,4.09,3.69,4.52,4.53,4.51
50.46,0.35,-4.16,0.35,-4.15,4.15,4.07,3.68,4.50,4.50,4.51
50.96,0.35,-4.13,0.35,-4.13,4.13,4.06,3.66,4.48,4.48,4.49
51.47,0.35,-4.10,0.35,-4.11,4.11,4.04,3.65,4.46,4.46,4.45
51.99,0.35,-4.08,0.35,-4.08,4.08,4.02,3.64,4.43,4.43,4.43
52.51,0.35,-4.06,0.35,-4.06,4.06,4.00,3.63,4.41,4.41,4.41
53.03,0.35,-4.04,0.35,-4.04,4.03,3.98,3.62,4.39,4.39,4.39
53.56,0.36,-4.00,0.36,-4.01,4.01,3.95,3.62,4.37,4.36,4.37
54.10,0.36,-3.98,0.36,-3.98,3.98,3.93,3.61,4.34,4.34,4.34
54.64,0.36,-3.95,0.37,-3.95,3.95,3.90,3.60,4.31,4.32,4.31
55.18,0.37,-3.92,0.37,-3.92,3.92,3.88,3.60,4.29,4.29,4.29
55.74,0.38,-3.88,0.38,-3.89,3.89,3.85,3.59,4.27,4.26,4.26
56.29,0.38,-3.86,0.39,-3.85,3.85,3.82,3.58,4.23,4.24,4.24
56.86,0.40,-3.81,0.40,-3.82,3.81,3.78,3.57,4.22,4.21,4.21
57.42,0.41,-3.78,0.41,-3.78,3.78,3.75,3.56,4.19,4.19,4.19
58.00,0.43,-3.74,0.43,-3.73,3.74,3.71,3.55,4.17,4.17,4.17
58.58,0.44,-3.70,0.44,-3.70,3.70,3.67,3.53,4.14,4.14,4.14
59.16,0.46,-3.66,0.46,-3.66,3.66,3.63,3.52,4.12,4.12,4.12
59.76,0.47,-3.62,0.48,-3.62,3.61,3.59,3.50,4.09,4.09,4.10
60.35,0.50,-3.56,0.49,-3.58,3.57,3.55,3.48,4.07,4.06,4.06
60.96,0.51,-3.54,0.51,-3.53,3.52,3.50,3.46,4.03,4.03,4.05
61.57,0.54,-3.47,0.54,-3.47,3.47,3.46,3.43,4.01,4.01,4.01
62.18,0.56,-3.41,0.56,-3.42,3.42,3.41,3.40,3.98,3.98,3.97
62.80,0.59,-3.36,0.59,-3.36,3.37,3.36,3.37,3.96,3.95,3.95
63.43,0.61,-3.30,0.61,-3.31,3.31,3.31,3.33,3.92,3.92,3.91
64.07,0.63,-3.26,0.64,-3.26,3.26,3.26,3.29,3.89,3.90,3.89
64.71,0.66,-3.21,0.66,-3.21,3.21,3.21,3.25,3.87,3.87,3.87
65.35,0.69,-3.15,0.69,-3.16,3.16,3.16,3.21,3.85,3.84,3.84
66.01,0.71,-3.12,0.71,-3.11,3.11,3.11,3.16,3.82,3.82,3.83
66.67,0.74,-3.06,0.74,-3.06,3.06,3.06,3.11,3.80,3.80,3.80
67.33,0.77,-3.01,0.77,-3.01,3.00,3.01,3.06,3.77,3.77,3.78
68.01,0.80,-2.95,0.80,-2.95,2.95,2.96,3.01,3.75,3.75,3.75
68.69,0.83,-2.90,0.83,-2.90,2.90,2.91,2.95,3.73,3.73,3.73
69.37,0.85,-2.84,0.85,-2.84,2.85,2.85,2.89,3.70,3.70,3.69
70.07,0.88,-2.79,0.88,-2.79,2.79,2.80,2.83,3.67,3.67,3.67
70.77,0.91,-2.74,0.91,-2.74,2.74,2.75,2.77,3.65,3.64,3.65
71.48,0.93,-2.68,0.93,-2.69,2.68,2.69,2.70,3.61,3.61,3.61
72.19,0.95,-2.64,0.96,-2.63,2.63,2.64,2.64,3.58,3.58,3.59
72.91,0.98,-2.57,0.98,-2.58,2.57,2.58,2.58,3.55,3.55,3.55
73.64,1.00,-2.51,1.00,-2.52,2.52,2.53,2.51,3.52,3.52,3.52
74.38,1.02,-2.47,1.02,-2.46,2.46,2.47,2.44,3.48,3.48,3.49
75.12,1.04,-2.40,1.04,-2.40,2.41,2.42,2.38,3.45,3.45,3.44
75.87,1.06,-2.35,1.06,-2.35,2.35,2.36,2.31,3.41,3.41,3.41
76.63,1.08,-2.30,1.08,-2.29,2.30,2.31,2.24,3.38,3.37,3.38
77.40,1.09,-2.25,1.10,-2.24,2.24,2.25,2.18,3.33,3.34,3.34
78.17,1.11,-2.18,1.11,-2.19,2.18,2.20,2.11,3.30,3.30,3.29
78.95,1.13,-2.13,1.13,-2.13,2.13,2.14,2.05,3.26,3.25,3.26
79.74,1.14,-2.08,1.15,-2.07,2.07,2.08,1.98,3.21,3.22,3.22
80.54,1.16,-2.02,1.16,-2.02,2.01,2.02,1.92,3.18,3.18,3.18
81.35,1.18,-1.95,1.18,-1.96,1.96,1.97,1.86,3.14,3.13,3.13
82.16,1.19,-1.90,1.19,-1.90,1.90,1.91,1.79,3.09,3.09,3.09
82.98,1.20,-1.85,1.20,-1.84,1.84,1.85,1.73,3.04,3.05,3.05
83.81,1.21,-1.78,1.21,-1.79,1.79,1.80,1.67,3.00,3.00,2.99
84.65,1.21,-1.73,1.21,-1.73,1.73,1.74,1.61,2.94,2.95,2.94
85.50,1.22,-1.69,1.22,-1.68,1.68,1.68,1.55,2.90,2.90,2.91
86.35,1.23,-1.63,1.23,-1.63,1.63,1.63,1.49,2.86,2.85,2.86
87.22,1.23,-1.58,1.23,-1.57,1.57,1.57,1.44,2.81,2.81,2.81
88.09,1.24,-1.52,1.24,-1.52,1.52,1.51,1.38,2.76,2.76,2.76
88.97,1.24,-1.48,1.24,-1.47,1.47,1.46,1.33,2.71,2.71,2.72
89.86,1.24,-1.42,1.24,-1.42,1.42,1.41,1.27,2.66,2.66,2.66
90.76,1.23,-1.37,1.23,-1.37,1.38,1.35,1.22,2.61,2.61,2.60
91.66,1.23,-1.33,1.23,-1.33,1.33,1.30,1.17,2.56,2.56,2.56
92.58,1.22,-1.28,1.22,-1.28,1.28,1.25,1.12,2.50,2.50,2.50
93.51,1.22,-1.24,1.22,-1.24,1.23,1.19,1.06,2.45,2.46,2.46
94.44,1.22,-1.19,1.22,-1.19,1.19,1.14,1.02,2.41,2.41,2.41
95.39,1.21,-1.14,1.21,-1.14,1.14,1.09,0.97,2.35,2.35,2.35
96.34,1.20,-1.09,1.20,-1.10,1.09,1.04,0.92,2.29,2.29,2.29
97.30,1.18,-1.05,1.19,-1.05,1.05,1.00,0.87,2.23,2.23,2.23
98.28,1.18,-1.00,1.18,-1.00,1.00,0.95,0.83,2.18,2.18,2.18
99.26,1.17,-0.94,1.17,-0.95,0.95,0.90,0.78,2.12,2.12,2.11
100.25,1.15,-0.91,1.15,-0.90,0.90,0.86,0.74,2.06,2.06,2.06
101.25,1.14,-0.86,1.14,-0.86,0.86,0.81,0.70,2.00,2.00,2.00
102.27,1.12,-0.81,1.12,-0.81,0.81,0.77,0.65,1.93,1.94,1.94
103.29,1.11,-0.76,1.11,-0.77,0.77,0.73,0.61,1.88,1.88,1.87
104.32,1.09,-0.72,1.09,-0.72,0.72,0.68,0.57,1.82,1.81,1.81
105.37,1.07,-0.69,1.07,-0.68,0.68,0.64,0.53,1.75,1.75,1.76
106.42,1.05,-0.64,1.05,-0.64,0.64,0.60,0.49,1.69,1.69,1.69
107.48,1.03,-0.59,1.03,-0.59,0.59,0.56,0.46,1.62,1.62,1.62
108.56,1.01,-0.55,1.01,-0.54,0.54,0.52,0.42,1.56,1.56,1.56
109.64,1.00,-0.49,1.00,-0.50,0.50,0.49,0.38,1.50,1.50,1.49
110.74,0.98,-0.46,0.98,-0.45,0.45,0.45,0.35,1.43,1.43,1.44
111.85,0.96,-0.41,0.96,-0.40,0.40,0.41,0.31,1.36,1.36,1.37
112.97,0.94,-0.34,0.94,-0.36,0.35,0.38,0.28,1.30,1.29,1.28
114.10,0.91,-0.32,0.92,-0.31,0.31,0.34,0.25,1.22,1.23,1.23
115.24,0.90,-0.26,0.90,-0.26,0.26,0.31,0.22,1.16,1.16,1.16
116.39,0.88,-0.21,0.88,-0.22,0.22,0.28,0.18,1.10,1.10,1.09
117.55,0.85,-0.18,0.85,-0.17,0.18,0.25,0.15,1.03,1.03,1.03
118.73,0.83,-0.13,0.83,-0.14,0.14,0.22,0.13,0.97,0.97,0.96
119.92,0.80,-0.11,0.80,-0.10,0.10,0.19,0.10,0.90,0.91,0.91
121.12,0.78,-0.07,0.78,-0.07,0.07,0.16,0.07,0.85,0.85,0.85
122.33,0.75,-0.03,0.75,-0.04,0.04,0.13,0.05,0.79,0.79,0.78
123.55,0.72,-0.01,0.72,-0.01,0.01,0.10,0.02,0.73,0.73,0.73
124.79,0.69,0.02,0.69,0.02,-0.02,0.08,-0.00,0.67,0.67,0.67
126.03,0.66,0.04,0.66,0.04,-0.05,0.06,-0.02,0.61,0.61,0.62
127.29,0.63,0.07,0.63,0.08,-0.08,0.03,-0.04,0.55,0.55,0.56
128.57,0.60,0.11,0.60,0.10,-0.10,0.01,-0.07,0.50,0.50,0.49
129.85,0.57,0.13,0.57,0.13,-0.12,-0.01,-0.09,0.45,0.45,0.44
131.15,0.53,0.14,0.54,0.14,-0.14,-0.02,-0.10,0.39,0.40,0.39
132.46,0.50,0.16,0.50,0.16,-0.15,-0.04,-0.12,0.35,0.35,0.34
133.79,0.46,0.16,0.46,0.16,-0.16,-0.05,-0.14,0.30,0.29,0.30
135.12,0.41,0.17,0.41,0.16,-0.17,-0.07,-0.16,0.24,0.25,0.24
136.48,0.37,0.16,0.37,0.16,-0.17,-0.08,-0.17,0.20,0.20,0.21
137.84,0.33,0.16,0.33,0.17,-0.16,-0.09,-0.19,0.17,0.17,0.18
139.22,0.29,0.17,0.29,0.16,-0.16,-0.10,-0.20,0.13,0.13,0.12
140.61,0.24,0.16,0.24,0.15,-0.15,-0.10,-0.22,0.09,0.09,0.08
142.02,0.20,0.13,0.20,0.14,-0.14,-0.10,-0.23,0.06,0.06,0.07
143.44,0.15,0.12,0.15,0.12,-0.13,-0.11,-0.25,0.03,0.03,0.04
144.87,0.11,0.12,0.11,0.11,-0.11,-0.11,-0.26,-0.00,-0.00,-0.00
146.32,0.07,0.11,0.07,0.10,-0.10,-0.11,-0.27,-0.03,-0.03,-0.03
147.78,0.02,0.07,0.03,0.08,-0.08,-0.11,-0.29,-0.06,-0.06,-0.05
149.26,-0.01,0.07,-0.02,0.07,-0.07,-0.10,-0.30,-0.08,-0.09,-0.08
150.75,-0.06,0.06,-0.06,0.06,-0.06,-0.10,-0.32,-0.12,-0.11,-0.12
152.26,-0.09,0.06,-0.09,0.05,-0.05,-0.10,-0.33,-0.14,-0.14,-0.14
153.78,-0.13,0.04,-0.13,0.04,-0.04,-0.09,-0.34,-0.17,-0.17,-0.17
155.32,-0.16,0.04,-0.16,0.04,-0.04,-0.09,-0.36,-0.20,-0.20,-0.19
156.88,-0.19,0.03,-0.19,0.03,-0.03,-0.09,-0.37,-0.22,-0.23,-0.22
158.44,-0.22,0.03,-0.22,0.03,-0.03,-0.09,-0.39,-0.25,-0.25,-0.25
160.03,-0.25,0.03,-0.25,0.04,-0.04,-0.09,-0.40,-0.29,-0.28,-0.28
161.63,-0.27,0.05,-0.27,0.04,-0.04,-0.10,-0.42,-0.31,-0.31,-0.32
163.24,-0.29,0.05,-0.29,0.05,-0.05,-0.10,-0.43,-0.34,-0.34,-0.34
164.88,-0.31,0.05,-0.31,0.05,-0.05,-0.11,-0.45,-0.36,-0.36,-0.36
166.53,-0.32,0.07,-0.32,0.06,-0.06,-0.13,-0.47,-0.38,-0.39,-0.39
168.19,-0.34,0.08,-0.34,0.08,-0.08,-0.14,-0.48,-0.42,-0.42,-0.42
169.87,-0.36,0.09,-0.36,0.09,-0.09,-0.16,-0.50,-0.45,-0.45,-0.45
171.57,-0.37,0.11,-0.37,0.11,-0.11,-0.18,-0.52,-0.48,-0.48,-0.48
173.29,-0.39,0.12,-0.38,0.12,-0.13,-0.20,-0.54,-0.52,-0.51,-0.50
175.02,-0.39,0.15,-0.39,0.15,-0.15,-0.23,-0.56,-0.54,-0.54,-0.54
176.77,-0.41,0.18,-0.41,0.17,-0.17,-0.25,-0.58,-0.58,-0.58,-0.58
178.54,-0.42,0.20,-0.42,0.20,-0.19,-0.28,-0.60,-0.61,-0.61,-0.62
180.32,-0.44,0.21,-0.44,0.22,-0.21,-0.30,-0.62,-0.65,-0.65,-0.65
182.13,-0.45,0.24,-0.45,0.23,-0.23,-0.33,-0.64,-0.68,-0.69,-0.68
183.95,-0.48,0.25,-0.47,0.25,-0.25,-0.35,-0.66,-0.73,-0.72,-0.73
185.79,-0.49,0.27,-0.49,0.27,-0.27,-0.38,-0.69,-0.76,-0.76,-0.76
187.65,-0.51,0.29,-0.51,0.28,-0.28,-0.40,-0.71,-0.79,-0.79,-0.80
189.52,-0.54,0.29,-0.53,0.30,-0.29,-0.42,-0.73,-0.83,-0.82,-0.83
191.42,-0.55,0.31,-0.56,0.30,-0.30,-0.44,-0.76,-0.85,-0.85,-0.86
193.33,-0.58,0.30,-0.58,0.30,-0.31,-0.46,-0.78,-0.89,-0.88,-0.88
195.27,-0.60,0.31,-0.60,0.31,-0.31,-0.47,-0.81,-0.91,-0.91,-0.91
197.22,-0.62,0.31,-0.62,0.32,-0.32,-0.49,-0.83,-0.94,-0.94,-0.93
199.19,-0.64,0.34,-0.64,0.33,-0.33,-0.50,-0.86,-0.97,-0.97,-0.98
201.18,-0.65,0.35,-0.65,0.35,-0.34,-0.51,-0.88,-0.99,-0.99,-1.00
203.19,-0.66,0.35,-0.66,0.36,-0.36,-0.52,-0.91,-1.02,-1.02,-1.01
205.23,-0.66,0.38,-0.66,0.37,-0.38,-0.53,-0.93,-1.04,-1.04,-1.04
207.28,-0.66,0.38,-0.66,0.40,-0.40,-0.54,-0.96,-1.06,-1.06,-1.04
209.35,-0.65,0.43,-0.65,0.43,-0.43,-0.54,-0.98,-1.08,-1.08,-1.08
211.44,-0.63,0.47,-0.63,0.47,-0.47,-0.55,-1.00,-1.09,-1.10,-1.10
213.56,-0.61,0.51,-0.61,0.50,-0.50,-0.55,-1.03,-1.11,-1.11,-1.12
215.69,-0.58,0.54,-0.58,0.54,-0.54,-0.55,-1.05,-1.12,-1.13,-1.12
217.85,-0.56,0.57,-0.55,0.58,-0.59,-0.55,-1.07,-1.15,-1.14,-1.13
220.03,-0.52,0.63,-0.52,0.63,-0.63,-0.55,-1.09,-1.15,-1.15,-1.15
222.23,-0.48,0.69,-0.48,0.68,-0.68,-0.55,-1.11,-1.15,-1.16,-1.17
224.45,-0.44,0.72,-0.44,0.73,-0.71,-0.55,-1.12,-1.15,-1.16,-1.16
226.70,-0.41,0.76,-0.41,0.76,-0.75,-0.55,-1.14,-1.16,-1.16,-1.17
228.96,-0.37,0.80,-0.38,0.79,-0.79,-0.54,-1.15,-1.16,-1.16,-1.17
231.25,-0.35,0.81,-0.35,0.81,-0.82,-0.54,-1.16,-1.16,-1.16,-1.16
233.57,-0.32,0.83,-0.32,0.84,-0.84,-0.53,-1.17,-1.16,-1.16,-1.15
235.90,-0.29,0.86,-0.29,0.86,-0.86,-0.53,-1.17,-1.15,-1.15,-1.15
238.26,-0.26,0.89,-0.26,0.88,-0.88,-0.52,-1.18,-1.14,-1.14,-1.15
240.64,-0.24,0.89,-0.24,0.89,-0.89,-0.51,-1.18,-1.13,-1.13,-1.13
243.05,-0.21,0.91,-0.21,0.90,-0.90,-0.50,-1.17,-1.11,-1.12,-1.12
245.48,-0.19,0.91,-0.19,0.91,-0.91,-0.49,-1.17,-1.10,-1.10,-1.10
247.93,-0.16,0.92,-0.16,0.93,-0.92,-0.48,-1.16,-1.08,-1.08,-1.08
250.41,-0.13,0.94,-0.13,0.93,-0.93,-0.47,-1.14,-1.06,-1.06,-1.07
252.92,-0.11,0.93,-0.11,0.93,-0.94,-0.46,-1.13,-1.05,-1.05,-1.04
255.45,-0.09,0.93,-0.08,0.93,-0.94,-0.45,-1.11,-1.03,-1.02,-1.02
258.00,-0.06,0.93,-0.06,0.94,-0.94,-0.44,-1.09,-1.00,-1.00,-0.99
260.58,-0.03,0.95,-0.04,0.94,-0.94,-0.43,-1.06,-0.97,-0.98,-0.98
263.19,-0.02,0.94,-0.02,0.94,-0.94,-0.41,-1.03,-0.96,-0.95,-0.96
265.82,0.00,0.93,0.00,0.93,-0.93,-0.40,-1.00,-0.93,-0.93,-0.93
268.48,0.01,0.92,0.01,0.92,-0.92,-0.39,-0.97,-0.91,-0.91,-0.91
271.16,0.02,0.90,0.02,0.90,-0.90,-0.37,-0.93,-0.88,-0.88,-0.87
273.87,0.02,0.88,0.02,0.88,-0.88,-0.36,-0.89,-0.86,-0.86,-0.86
276.61,0.02,0.85,0.02,0.85,-0.84,-0.34,-0.85,-0.82,-0.83,-0.83
279.38,0.00,0.81,0.00,0.81,-0.80,-0.32,-0.81,-0.80,-0.80,-0.81
282.17,-0.02,0.77,-0.02,0.76,-0.75,-0.31,-0.76,-0.77,-0.77,-0.79
284.99,-0.06,0.70,-0.06,0.70,-0.69,-0.29,-0.71,-0.75,-0.75,-0.76
287.84,-0.10,0.64,-0.10,0.64,-0.63,-0.27,-0.66,-0.72,-0.72,-0.74
290.72,-0.14,0.56,-0.15,0.56,-0.55,-0.25,-0.61,-0.69,-0.70,-0.70
293.63,-0.20,0.49,-0.19,0.48,-0.48,-0.23,-0.56,-0.68,-0.68,-0.68
296.57,-0.24,0.41,-0.24,0.41,-0.41,-0.22,-0.50,-0.65,-0.66,-0.65
299.53,-0.28,0.34,-0.28,0.34,-0.35,-0.20,-0.45,-0.63,-0.63,-0.62
302.53,-0.30,0.30,-0.30,0.29,-0.31,-0.18,-0.39,-0.61,-0.61,-0.60
305.55,-0.31,0.24,-0.30,0.26,-0.27,-0.16,-0.33,-0.58,-0.58,-0.55
308.61,-0.28,0.25,-0.28,0.24,-0.26,-0.13,-0.27,-0.54,-0.54,-0.52
311.69,-0.25,0.24,-0.25,0.24,-0.25,-0.11,-0.21,-0.50,-0.50,-0.49
314.81,-0.20,0.25,-0.20,0.26,-0.27,-0.09,-0.15,-0.47,-0.46,-0.45
317.96,-0.14,0.29,-0.14,0.29,-0.29,-0.07,-0.09,-0.43,-0.43,-0.42
321.14,-0.07,0.33,-0.07,0.32,-0.32,-0.05,-0.03,-0.39,-0.39,-0.40
324.35,-0.01,0.36,-0.01,0.36,-0.35,-0.02,0.04,-0.36,-0.36,-0.37
327.59,0.05,0.38,0.05,0.39,-0.38,0.00,0.10,-0.33,-0.33,-0.33
330.87,0.10,0.41,0.10,0.41,-0.40,0.03,0.16,-0.30,-0.30,-0.31
334.18,0.14,0.43,0.14,0.42,-0.42,0.05,0.23,-0.27,-0.28,-0.29
337.52,0.16,0.42,0.16,0.42,-0.42,0.08,0.29,-0.26,-0.26,-0.26
340.90,0.17,0.41,0.17,0.41,-0.42,0.11,0.36,-0.25,-0.24,-0.23
344.30,0.18,0.40,0.18,0.39,-0.40,0.13,0.42,-0.22,-0.22,-0.22
347.75,0.17,0.36,0.18,0.37,-0.36,0.16,0.49,-0.19,-0.18,-0.19
351.23,0.17,0.34,0.17,0.34,-0.32,0.19,0.55,-0.15,-0.15,-0.17
354.74,0.14,0.29,0.13,0.28,-0.26,0.22,0.62,-0.12,-0.14,-0.15
358.28,0.07,0.21,0.08,0.21,-0.20,0.25,0.69,-0.13,-0.12,-0.14
361.87,0.00,0.12,0.01,0.12,-0.13,0.28,0.76,-0.13,-0.12,-0.12
365.49,-0.06,0.03,-0.06,0.03,-0.05,0.31,0.82,-0.11,-0.11,-0.09
369.14,-0.13,-0.05,-0.13,-0.05,0.04,0.34,0.89,-0.09,-0.09,-0.08
372.83,-0.19,-0.13,-0.19,-0.13,0.12,0.38,0.96,-0.07,-0.07,-0.06
376.56,-0.25,-0.20,-0.25,-0.21,0.21,0.41,1.03,-0.04,-0.04,-0.05
380.33,-0.32,-0.30,-0.31,-0.29,0.29,0.45,1.10,-0.03,-0.02,-0.02
384.13,-0.37,-0.37,-0.38,-0.38,0.38,0.48,1.17,0.01,-0.00,0.00
387.97,-0.44,-0.46,-0.44,-0.46,0.46,0.52,1.24,0.02,0.02,0.02
391.85,-0.50,-0.54,-0.49,-0.54,0.54,0.56,1.31,0.04,0.04,0.04
395.77,-0.55,-0.62,-0.55,-0.62,0.62,0.60,1.38,0.07,0.06,0.07
399.73,-0.61,-0.69,-0.61,-0.69,0.70,0.64,1.45,0.09,0.09,0.09
403.72,-0.67,-0.77,-0.67,-0.78,0.77,0.68,1.52,0.10,0.10,0.10
407.76,-0.73,-0.85,-0.73,-0.85,0.85,0.73,1.59,0.12,0.12,0.12
411.84,-0.79,-0.94,-0.78,-0.93,0.93,0.77,1.66,0.14,0.15,0.15
415.96,-0.83,-1.00,-0.84,-1.01,1.01,0.82,1.73,0.18,0.17,0.17
420.12,-0.89,-1.08,-0.89,-1.08,1.09,0.87,1.80,0.20,0.20,0.19
424.32,-0.95,-1.17,-0.94,-1.16,1.17,0.92,1.87,0.22,0.23,0.22
428.56,-1.00,-1.24,-1.00,-1.24,1.25,0.97,1.93,0.25,0.25,0.24
432.85,-1.06,-1.32,-1.06,-1.32,1.33,1.02,2.00,0.27,0.27,0.26
437.18,-1.12,-1.40,-1.12,-1.41,1.40,1.07,2.06,0.28,0.28,0.28
441.55,-1.18,-1.49,-1.18,-1.49,1.47,1.13,2.12,0.29,0.29,0.31
445.96,-1.24,-1.57,-1.22,-1.56,1.54,1.19,2.18,0.30,0.31,0.33
450.42,-1.25,-1.60,-1.25,-1.61,1.59,1.25,2.24,0.35,0.34,0.35
454.93,-1.26,-1.65,-1.26,-1.65,1.65,1.31,2.29,0.39,0.38,0.39
459.48,-1.27,-1.68,-1.27,-1.68,1.69,1.37,2.35,0.42,0.42,0.41
464.07,-1.28,-1.72,-1.28,-1.72,1.73,1.44,2.40,0.45,0.45,0.44
468.71,-1.29,-1.77,-1.29,-1.76,1.77,1.51,2.44,0.48,0.48,0.48
473.40,-1.30,-1.80,-1.30,-1.80,1.80,1.58,2.49,0.50,0.50,0.50
478.13,-1.31,-1.84,-1.31,-1.84,1.84,1.65,2.52,0.53,0.53,0.53
482.91,-1.33,-1.89,-1.32,-1.88,1.88,1.72,2.56,0.55,0.55,0.56
487.74,-1.34,-1.93,-1.34,-1.92,1.92,1.80,2.59,0.58,0.58,0.59
492.62,-1.34,-1.95,-1.35,-1.96,1.96,1.88,2.62,0.62,0.61,0.62
497.55,-1.36,-1.99,-1.36,-2.00,2.00,1.96,2.65,0.64,0.64,0.63
502.52,-1.38,-2.05,-1.38,-2.04,2.04,2.05,2.67,0.66,0.67,0.67
507.55,-1.39,-2.08,-1.39,-2.09,2.08,2.14,2.68,0.69,0.69,0.69
512.62,-1.41,-2.13,-1.41,-2.13,2.13,2.23,2.70,0.72,0.72,0.72
517.75,-1.42,-2.17,-1.43,-2.18,2.17,2.32,2.70,0.75,0.75,0.75
522.93,-1.45,-2.23,-1.45,-2.23,2.22,2.41,2.71,0.77,0.77,0.78
