frequency,raw,smoothed,error,error_smoothed,equalization,parametric_eq,fixed_band_eq,equalized_raw,equalized_smoothed,target
20.00,-1.96,-1.96,-4.72,-4.73,4.73,3.61,1.47,2.77,2.77,2.77
20.20,-1.89,-1.89,-4.68,-4.68,4.68,3.61,1.51,2.80,2.80,2.80
20.40,-1.82,-1.81,-4.64,-4.64,4.64,3.60,1.56,2.82,2.82,2.83
20.61,-1.75,-1.74,-4.59,-4.59,4.59,3.59,1.61,2.84,2.85,2.84
20.81,-1.67,-1.67,-4.54,-4.55,4.54,3.59,1.65,2.88,2.87,2.87
21.02,-1.60,-1.60,-4.50,-4.50,4.50,3.58,1.70,2.90,2.89,2.90
21.23,-1.55,-1.54,-4.46,-4.46,4.45,3.58,1.75,2.91,2.91,2.91
21.44,-1.49,-1.49,-4.41,-4.41,4.41,3.57,1.81,2.92,2.92,2.92
21.66,-1.44,-1.43,-4.37,-4.36,4.37,3.56,1.86,2.93,2.93,2.93
21.87,-1.38,-1.38,-4.31,-4.32,4.32,3.56,1.92,2.95,2.94,2.93
22.09,-1.34,-1.34,-4.28,-4.28,4.28,3.55,1.97,2.95,2.95,2.94
22.31,-1.30,-1.30,-4.24,-4.24,4.24,3.54,2.03,2.95,2.94,2.94
22.54,-1.27,-1.27,-4.21,-4.21,4.21,3.54,2.09,2.94,2.94,2.94
22.76,-1.24,-1.23,-4.18,-4.17,4.17,3.53,2.15,2.93,2.93,2.94
22.99,-1.20,-1.20,-4.13,-4.13,4.13,3.52,2.22,2.93,2.93,2.93
23.22,-1.16,-1.16,-4.09,-4.09,4.09,3.51,2.28,2.93,2.93,2.93
23.45,-1.12,-1.12,-4.04,-4.04,4.04,3.51,2.35,2.93,2.92,2.93
23.69,-1.08,-1.08,-4.00,-4.00,3.99,3.50,2.41,2.91,2.91,2.93
23.92,-1.03,-1.03,-3.95,-3.95,3.93,3.49,2.48,2.90,2.91,2.93
24.16,-0.97,-0.96,-3.90,-3.89,3.87,3.48,2.55,2.90,2.91,2.93
24.40,-0.89,-0.89,-3.82,-3.82,3.81,3.47,2.62,2.92,2.92,2.93
24.65,-0.82,-0.81,-3.74,-3.74,3.76,3.46,2.69,2.94,2.94,2.92
24.89,-0.74,-0.75,-3.66,-3.67,3.70,3.45,2.77,2.96,2.95,2.92
25.14,-0.70,-0.71,-3.62,-3.63,3.65,3.44,2.84,2.96,2.95,2.92
25.39,-0.69,-0.68,-3.61,-3.60,3.61,3.43,2.91,2.92,2.93,2.92
25.65,-0.67,-0.67,-3.59,-3.58,3.58,3.42,2.99,2.91,2.91,2.92
25.91,-0.66,-0.65,-3.57,-3.56,3.55,3.41,3.06,2.89,2.90,2.91
26.16,-0.63,-0.63,-3.53,-3.54,3.53,3.40,3.13,2.90,2.90,2.91
26.43,-0.61,-0.61,-3.51,-3.51,3.51,3.38,3.21,2.90,2.90,2.91
26.69,-0.58,-0.58,-3.48,-3.48,3.49,3.37,3.28,2.91,2.91,2.90
26.96,-0.55,-0.55,-3.45,-3.46,3.46,3.36,3.35,2.91,2.91,2.90
27.23,-0.53,-0.53,-3.43,-3.43,3.42,3.34,3.42,2.90,2.90,2.90
27.50,-0.50,-0.50,-3.40,-3.40,3.38,3.33,3.48,2.89,2.88,2.90
27.77,-0.47,-0.47,-3.36,-3.36,3.34,3.32,3.55,2.87,2.87,2.89
28.05,-0.44,-0.43,-3.33,-3.31,3.30,3.30,3.61,2.86,2.87,2.89
28.33,-0.38,-0.38,-3.25,-3.26,3.26,3.29,3.67,2.88,2.88,2.88
28.62,-0.33,-0.32,-3.20,-3.20,3.22,3.27,3.72,2.89,2.90,2.87
28.90,-0.27,-0.28,-3.14,-3.15,3.19,3.25,3.77,2.92,2.91,2.87
29.19,-0.25,-0.26,-3.11,-3.13,3.16,3.24,3.82,2.91,2.90,2.86
29.48,-0.26,-0.26,-3.13,-3.12,3.13,3.22,3.86,2.87,2.87,2.87
29.78,-0.27,-0.26,-3.13,-3.12,3.10,3.20,3.90,2.83,2.84,2.86
30.08,-0.26,-0.25,-3.11,-3.11,3.07,3.18,3.92,2.81,2.82,2.86
30.38,-0.22,-0.23,-3.06,-3.07,3.04,3.16,3.95,2.82,2.81,2.84
30.68,-0.19,-0.19,-3.03,-3.03,3.00,3.14,3.97,2.82,2.82,2.84
30.99,-0.15,-0.15,-2.98,-2.98,2.97,3.12,3.98,2.82,2.82,2.83
31.30,-0.10,-0.09,-2.93,-2.92,2.94,3.10,3.99,2.84,2.84,2.83
31.61,-0.05,-0.05,-2.87,-2.87,2.90,3.08,3.99,2.85,2.86,2.83
31.93,0.00,-0.02,-2.81,-2.83,2.87,3.06,3.99,2.87,2.86,2.81
32.24,-0.01,-0.02,-2.81,-2.82,2.85,3.03,3.98,2.84,2.83,2.80
32.57,-0.04,-0.04,-2.84,-2.83,2.82,3.01,3.96,2.79,2.79,2.80
32.89,-0.07,-0.05,-2.86,-2.85,2.81,2.99,3.94,2.74,2.75,2.80
33.22,-0.05,-0.04,-2.83,-2.83,2.79,2.96,3.91,2.74,2.75,2.78
33.55,-0.01,-0.01,-2.79,-2.79,2.77,2.94,3.88,2.77,2.77,2.78
33.89,0.04,0.03,-2.73,-2.74,2.75,2.92,3.84,2.80,2.78,2.77
34.23,0.05,0.05,-2.71,-2.71,2.73,2.90,3.80,2.78,2.78,2.76
34.57,0.05,0.05,-2.70,-2.70,2.70,2.88,3.76,2.75,2.75,2.75
34.92,0.05,0.06,-2.69,-2.68,2.67,2.85,3.71,2.72,2.73,2.74
35.27,0.07,0.08,-2.66,-2.65,2.65,2.83,3.66,2.72,2.73,2.73
35.62,0.09,0.10,-2.63,-2.63,2.64,2.81,3.60,2.73,2.73,2.72
35.97,0.12,0.10,-2.59,-2.61,2.63,2.80,3.55,2.75,2.73,2.71
36.33,0.09,0.09,-2.61,-2.61,2.62,2.78,3.49,2.71,2.71,2.70
36.70,0.06,0.07,-2.63,-2.62,2.62,2.76,3.43,2.68,2.68,2.69
37.06,0.04,0.05,-2.63,-2.63,2.61,2.75,3.37,2.65,2.66,2.68
37.43,0.04,0.04,-2.63,-2.62,2.60,2.73,3.31,2.65,2.65,2.67
37.81,0.05,0.05,-2.61,-2.61,2.60,2.72,3.25,2.66,2.65,2.66
38.19,0.05,0.05,-2.59,-2.59,2.60,2.71,3.19,2.65,2.66,2.64
38.57,0.05,0.05,-2.59,-2.58,2.60,2.70,3.13,2.65,2.65,2.64
38.95,0.05,0.04,-2.57,-2.58,2.59,2.69,3.07,2.64,2.63,2.62
39.34,0.03,0.02,-2.58,-2.58,2.57,2.68,3.01,2.61,2.60,2.61
39.74,0.00,0.01,-2.59,-2.59,2.57,2.67,2.96,2.57,2.57,2.59
40.14,-0.01,0.01,-2.60,-2.57,2.56,2.66,2.90,2.55,2.57,2.59
40.54,0.02,0.02,-2.55,-2.55,2.56,2.65,2.85,2.58,2.58,2.57
40.94,0.05,0.03,-2.51,-2.54,2.57,2.64,2.79,2.62,2.59,2.57
41.35,0.01,0.01,-2.54,-2.54,2.57,2.63,2.74,2.58,2.58,2.55
41.76,-0.03,-0.02,-2.57,-2.56,2.57,2.62,2.69,2.54,2.56,2.54
42.18,-0.05,-0.04,-2.59,-2.58,2.57,2.61,2.64,2.52,2.52,2.54
42.60,-0.05,-0.05,-2.57,-2.58,2.55,2.61,2.59,2.50,2.50,2.52
43.03,-0.05,-0.06,-2.56,-2.57,2.53,2.60,2.55,2.48,2.47,2.51
43.46,-0.05,-0.05,-2.54,-2.55,2.50,2.58,2.51,2.45,2.44,2.50
43.90,-0.05,-0.02,-2.52,-2.49,2.46,2.57,2.46,2.42,2.44,2.47
44.33,0.02,0.04,-2.43,-2.41,2.43,2.56,2.43,2.46,2.47,2.45
44.78,0.12,0.09,-2.31,-2.34,2.40,2.55,2.39,2.52,2.50,2.43
45.23,0.14,0.12,-2.27,-2.29,2.37,2.53,2.35,2.51,2.49,2.41
45.68,0.09,0.10,-2.30,-2.30,2.33,2.52,2.32,2.42,2.43,2.40
46.13,0.04,0.04,-2.34,-2.34,2.29,2.50,2.29,2.33,2.33,2.38
46.60,0.01,0.01,-2.36,-2.35,2.26,2.48,2.26,2.27,2.28,2.37
47.06,0.00,0.04,-2.35,-2.31,2.25,2.47,2.23,2.25,2.29,2.35
47.53,0.09,0.09,-2.24,-2.24,2.26,2.45,2.20,2.35,2.35,2.33
48.01,0.17,0.13,-2.15,-2.18,2.27,2.43,2.18,2.44,2.40,2.32
48.49,0.11,0.12,-2.18,-2.16,2.27,2.41,2.16,2.38,2.39,2.29
48.97,0.05,0.03,-2.20,-2.23,2.26,2.38,2.14,2.31,2.29,2.26
49.46,-0.08,-0.09,-2.30,-2.31,2.24,2.36,2.12,2.17,2.15,2.22
49.96,-0.22,-0.14,-2.41,-2.34,2.23,2.33,2.10,2.02,2.09,2.19
50.46,-0.15,-0.15,-2.33,-2.32,2.24,2.31,2.08,2.09,2.09,2.18
50.96,-0.06,-0.10,-2.22,-2.25,2.25,2.28,2.06,2.19,2.15,2.16
51.47,-0.05,-0.05,-2.17,-2.18,2.27,2.25,2.05,2.22,2.22,2.12
51.99,-0.05,-0.05,-2.15,-2.16,2.27,2.22,2.03,2.23,2.22,2.10
52.51,-0.11,-0.11,-2.20,-2.19,2.27,2.19,2.02,2.16,2.16,2.09
53.03,-0.18,-0.22,-2.24,-2.28,2.25,2.16,2.00,2.07,2.03,2.06
53.56,-0.32,-0.30,-2.36,-2.34,2.23,2.13,1.99,1.91,1.93,2.04
54.10,-0.40,-0.32,-2.41,-2.33,2.22,2.09,1.97,1.82,1.90,2.01
54.64,-0.25,-0.27,-2.24,-2.26,2.21,2.06,1.96,1.96,1.93,1.99
55.18,-0.15,-0.20,-2.11,-2.16,2.20,2.02,1.94,2.05,2.00,1.96
55.74,-0.15,-0.13,-2.08,-2.07,2.18,1.98,1.93,2.03,2.05,1.93
56.29,-0.15,-0.13,-2.06,-2.04,2.15,1.95,1.91,2.00,2.02,1.92
56.86,-0.15,-0.19,-2.04,-2.08,2.11,1.91,1.89,1.96,1.92,1.89
57.42,-0.23,-0.24,-2.09,-2.11,2.07,1.86,1.87,1.84,1.83,1.86
58.00,-0.34,-0.27,-2.18,-2.11,2.03,1.82,1.85,1.69,1.76,1.84
58.58,-0.25,-0.25,-2.07,-2.07,1.98,1.78,1.83,1.73,1.73,1.82
59.16,-0.16,-0.18,-1.96,-1.97,1.92,1.73,1.80,1.77,1.75,1.80
59.76,-0.07,-0.07,-1.85,-1.84,1.86,1.69,1.78,1.79,1.79,1.78
60.35,0.01,0.01,-1.73,-1.74,1.77,1.64,1.75,1.78,1.78,1.75
60.96,0.08,0.08,-1.64,-1.64,1.68,1.59,1.72,1.76,1.75,1.72
61.57,0.12,0.12,-1.56,-1.56,1.59,1.54,1.68,1.71,1.71,1.68
62.18,0.15,0.15,-1.50,-1.50,1.52,1.49,1.65,1.67,1.67,1.65
62.80,0.15,0.15,-1.47,-1.46,1.47,1.43,1.61,1.62,1.62,1.62
63.43,0.15,0.16,-1.44,-1.43,1.44,1.38,1.57,1.59,1.60,1.59
64.07,0.15,0.16,-1.41,-1.40,1.42,1.32,1.52,1.57,1.58,1.56
64.71,0.15,0.12,-1.38,-1.41,1.41,1.27,1.48,1.56,1.53,1.53
65.35,0.09,0.08,-1.42,-1.43,1.41,1.21,1.43,1.50,1.49,1.51
66.01,-0.02,0.04,-1.50,-1.44,1.42,1.15,1.37,1.40,1.46,1.48
66.67,0.02,0.02,-1.43,-1.43,1.43,1.08,1.32,1.45,1.45,1.45
67.33,0.03,0.00,-1.39,-1.42,1.44,1.02,1.26,1.47,1.45,1.42
68.01,0.00,-0.04,-1.39,-1.43,1.45,0.96,1.20,1.45,1.41,1.39
68.69,-0.14,-0.10,-1.50,-1.46,1.46,0.89,1.14,1.32,1.35,1.36
69.37,-0.19,-0.15,-1.51,-1.48,1.45,0.82,1.08,1.26,1.30,1.33
70.07,-0.15,-0.17,-1.44,-1.47,1.44,0.76,1.01,1.29,1.27,1.29
70.77,-0.15,-0.16,-1.42,-1.42,1.41,0.69,0.94,1.27,1.26,1.27
71.48,-0.15,-0.14,-1.38,-1.38,1.38,0.61,0.87,1.24,1.24,1.24
72.19,-0.15,-0.16,-1.35,-1.36,1.35,0.54,0.80,1.20,1.19,1.20
72.91,-0.15,-0.16,-1.31,-1.32,1.32,0.47,0.73,1.17,1.16,1.16
73.64,-0.15,-0.09,-1.28,-1.22,1.27,0.39,0.65,1.12,1.18,1.13
74.38,-0.06,-0.06,-1.16,-1.16,1.21,0.31,0.58,1.15,1.14,1.10
75.12,0.06,-0.07,-1.00,-1.13,1.14,0.23,0.50,1.20,1.07,1.06
75.87,-0.15,-0.07,-1.18,-1.11,1.06,0.15,0.42,0.91,0.98,1.03
76.63,-0.11,-0.05,-1.11,-1.05,0.97,0.07,0.34,0.87,0.92,1.00
77.40,0.04,0.04,-0.93,-0.93,0.88,-0.01,0.26,0.92,0.92,0.97
78.17,0.24,0.21,-0.69,-0.73,0.78,-0.09,0.18,1.02,0.99,0.93
78.95,0.35,0.31,-0.55,-0.59,0.67,-0.18,0.10,1.02,0.98,0.91
79.74,0.35,0.36,-0.52,-0.51,0.54,-0.26,0.01,0.89,0.90,0.87
80.54,0.37,0.41,-0.47,-0.43,0.40,-0.35,-0.07,0.77,0.81,0.84
81.35,0.48,0.50,-0.32,-0.30,0.25,-0.44,-0.15,0.73,0.75,0.80
82.16,0.68,0.64,-0.09,-0.13,0.11,-0.53,-0.24,0.79,0.75,0.77
82.98,0.78,0.79,0.04,0.05,-0.03,-0.62,-0.33,0.75,0.75,0.74
83.81,0.92,0.92,0.23,0.22,-0.18,-0.71,-0.41,0.74,0.73,0.70
84.65,1.02,1.03,0.36,0.37,-0.35,-0.80,-0.50,0.67,0.68,0.66
85.50,1.15,1.16,0.52,0.53,-0.53,-0.89,-0.59,0.62,0.62,0.63
86.35,1.29,1.28,0.70,0.69,-0.72,-0.98,-0.68,0.57,0.55,0.59
87.22,1.42,1.43,0.87,0.87,-0.91,-1.08,-0.77,0.51,0.51,0.55
88.09,1.57,1.60,1.06,1.08,-1.11,-1.17,-0.86,0.46,0.49,0.51
88.97,1.79,1.79,1.31,1.31,-1.31,-1.26,-0.95,0.49,0.48,0.48
89.86,1.99,1.97,1.55,1.53,-1.51,-1.36,-1.04,0.48,0.46,0.44
90.76,2.13,2.13,1.75,1.73,-1.71,-1.45,-1.13,0.43,0.42,0.38
91.66,2.24,2.25,1.89,1.91,-1.90,-1.54,-1.23,0.34,0.35,0.35
92.58,2.37,2.38,2.07,2.08,-2.09,-1.63,-1.32,0.28,0.29,0.30
93.51,2.51,2.52,2.25,2.26,-2.26,-1.72,-1.42,0.25,0.26,0.27
94.44,2.65,2.64,2.43,2.42,-2.42,-1.81,-1.51,0.23,0.22,0.22
95.39,2.76,2.72,2.58,2.55,-2.55,-1.90,-1.61,0.21,0.17,0.18
96.34,2.77,2.82,2.65,2.70,-2.67,-1.99,-1.70,0.10,0.15,0.12
97.30,2.85,2.89,2.78,2.81,-2.78,-2.08,-1.80,0.07,0.11,0.08
98.28,3.03,2.92,3.00,2.89,-2.88,-2.16,-1.90,0.16,0.04,0.03
99.26,2.92,2.96,2.94,2.97,-2.96,-2.25,-2.00,-0.04,-0.00,-0.01
100.25,2.89,2.95,2.95,3.01,-3.03,-2.33,-2.09,-0.14,-0.08,-0.06
101.25,3.00,2.94,3.11,3.05,-3.10,-2.41,-2.19,-0.10,-0.16,-0.11
102.27,2.96,2.98,3.11,3.14,-3.17,-2.49,-2.28,-0.21,-0.18,-0.15
103.29,3.01,3.02,3.22,3.22,-3.23,-2.56,-2.38,-0.21,-0.21,-0.21
104.32,3.04,3.03,3.29,3.27,-3.27,-2.63,-2.47,-0.23,-0.25,-0.24
105.37,3.04,3.04,3.33,3.33,-3.31,-2.70,-2.57,-0.27,-0.27,-0.29
106.42,3.02,3.04,3.36,3.37,-3.33,-2.77,-2.66,-0.31,-0.30,-0.34
107.48,3.01,3.00,3.39,3.38,-3.34,-2.83,-2.75,-0.33,-0.35,-0.38
108.56,2.95,2.93,3.39,3.37,-3.34,-2.89,-2.84,-0.39,-0.41,-0.44
109.64,2.82,2.84,3.31,3.33,-3.32,-2.95,-2.92,-0.50,-0.48,-0.49
110.74,2.74,2.75,3.27,3.28,-3.30,-3.00,-3.00,-0.56,-0.55,-0.53
111.85,2.67,2.66,3.25,3.25,-3.28,-3.05,-3.08,-0.61,-0.62,-0.58
112.97,2.60,2.60,3.24,3.23,-3.27,-3.10,-3.15,-0.67,-0.67,-0.64
114.10,2.53,2.54,3.22,3.23,-3.27,-3.14,-3.22,-0.74,-0.72,-0.69
115.24,2.49,2.51,3.23,3.25,-3.28,-3.17,-3.29,-0.78,-0.77,-0.74
116.39,2.49,2.46,3.29,3.26,-3.29,-3.21,-3.35,-0.80,-0.82,-0.80
117.55,2.45,2.44,3.30,3.29,-3.29,-3.24,-3.40,-0.84,-0.84,-0.85
118.73,2.36,2.43,3.27,3.33,-3.28,-3.26,-3.45,-0.92,-0.85,-0.91
119.92,2.42,2.37,3.37,3.33,-3.26,-3.28,-3.49,-0.84,-0.88,-0.95
121.12,2.32,2.28,3.32,3.28,-3.22,-3.30,-3.53,-0.90,-0.94,-1.00
122.33,2.11,2.15,3.17,3.20,-3.17,-3.31,-3.55,-1.06,-1.01,-1.05
123.55,1.96,1.97,3.06,3.07,-3.11,-3.32,-3.58,-1.15,-1.13,-1.10
124.79,1.86,1.83,3.01,2.98,-3.04,-3.32,-3.59,-1.18,-1.21,-1.15
126.03,1.70,1.76,2.90,2.95,-2.99,-3.33,-3.60,-1.28,-1.23,-1.20
127.29,1.69,1.67,2.94,2.92,-2.94,-3.32,-3.59,-1.25,-1.27,-1.25
128.57,1.63,1.56,2.94,2.87,-2.90,-3.32,-3.59,-1.27,-1.34,-1.31
129.85,1.45,1.50,2.81,2.85,-2.87,-3.31,-3.57,-1.42,-1.38,-1.36
131.15,1.38,1.46,2.78,2.87,-2.85,-3.30,-3.55,-1.47,-1.39,-1.40
132.46,1.48,1.42,2.93,2.87,-2.83,-3.28,-3.53,-1.35,-1.41,-1.45
133.79,1.45,1.39,2.94,2.88,-2.80,-3.26,-3.49,-1.35,-1.42,-1.49
135.12,1.21,1.27,2.75,2.80,-2.78,-3.24,-3.45,-1.57,-1.51,-1.54
136.48,1.15,1.12,2.73,2.70,-2.75,-3.21,-3.41,-1.60,-1.63,-1.58
137.84,0.96,1.05,2.58,2.67,-2.72,-3.18,-3.36,-1.76,-1.67,-1.62
139.22,1.02,0.98,2.70,2.65,-2.68,-3.16,-3.31,-1.66,-1.70,-1.68
140.61,0.99,0.90,2.71,2.61,-2.63,-3.12,-3.25,-1.64,-1.73,-1.72
142.02,0.76,0.89,2.50,2.64,-2.59,-3.09,-3.19,-1.82,-1.70,-1.74
143.44,0.79,0.80,2.57,2.59,-2.54,-3.05,-3.13,-1.75,-1.74,-1.78
144.87,0.85,0.69,2.67,2.51,-2.52,-3.01,-3.06,-1.66,-1.83,-1.82
146.32,0.53,0.62,2.39,2.48,-2.49,-2.97,-3.00,-1.95,-1.86,-1.86
147.78,0.42,0.50,2.31,2.40,-2.44,-2.93,-2.93,-2.02,-1.94,-1.89
149.26,0.50,0.38,2.43,2.31,-2.38,-2.89,-2.85,-1.87,-1.99,-1.93
150.75,0.31,0.37,2.29,2.34,-2.29,-2.85,-2.78,-1.98,-1.93,-1.98
152.26,0.25,0.31,2.26,2.32,-2.20,-2.80,-2.71,-1.95,-1.90,-2.01
153.78,0.28,0.17,2.33,2.22,-2.13,-2.76,-2.64,-1.85,-1.96,-2.05
155.32,0.01,-0.00,2.10,2.09,-2.07,-2.71,-2.56,-2.05,-2.07,-2.09
156.88,-0.22,-0.19,1.91,1.94,-2.02,-2.66,-2.49,-2.23,-2.20,-2.13
158.44,-0.41,-0.32,1.76,1.85,-1.99,-2.61,-2.42,-2.40,-2.31,-2.17
160.03,-0.29,-0.34,1.92,1.87,-1.98,-2.56,-2.34,-2.27,-2.32,-2.21
161.63,-0.27,-0.27,1.98,1.98,-2.00,-2.51,-2.27,-2.27,-2.28,-2.25
163.24,-0.22,-0.21,2.08,2.08,-2.05,-2.46,-2.20,-2.27,-2.26,-2.29
164.88,-0.15,-0.19,2.18,2.14,-2.12,-2.41,-2.13,-2.27,-2.31,-2.32
166.53,-0.20,-0.14,2.16,2.22,-2.20,-2.36,-2.06,-2.40,-2.34,-2.36
168.19,-0.11,-0.10,2.29,2.30,-2.26,-2.31,-2.00,-2.37,-2.37,-2.40
169.87,-0.05,-0.09,2.39,2.35,-2.30,-2.26,-1.93,-2.35,-2.39,-2.44
171.57,-0.10,-0.10,2.38,2.38,-2.30,-2.21,-1.86,-2.40,-2.40,-2.48
173.29,-0.18,-0.18,2.33,2.33,-2.28,-2.15,-1.80,-2.46,-2.46,-2.51
175.02,-0.30,-0.30,2.25,2.26,-2.25,-2.10,-1.74,-2.54,-2.54,-2.55
176.77,-0.42,-0.42,2.17,2.18,-2.21,-2.05,-1.67,-2.62,-2.62,-2.59
178.54,-0.53,-0.53,2.11,2.10,-2.16,-2.00,-1.61,-2.69,-2.69,-2.64
180.32,-0.63,-0.63,2.04,2.04,-2.11,-1.95,-1.55,-2.74,-2.74,-2.67
182.13,-0.69,-0.70,2.01,2.01,-2.06,-1.90,-1.50,-2.75,-2.76,-2.70
183.95,-0.75,-0.68,2.00,2.06,-2.02,-1.84,-1.44,-2.77,-2.71,-2.74
185.79,-0.70,-0.71,2.08,2.07,-2.01,-1.79,-1.39,-2.71,-2.71,-2.78
187.65,-0.63,-0.78,2.19,2.03,-2.00,-1.74,-1.33,-2.63,-2.79,-2.82
189.52,-0.96,-0.86,1.89,1.99,-2.01,-1.69,-1.28,-2.97,-2.87,-2.85
191.42,-1.01,-0.92,1.87,1.96,-2.02,-1.64,-1.23,-3.02,-2.93,-2.88
193.33,-0.88,-0.94,2.03,1.96,-2.02,-1.59,-1.18,-2.89,-2.96,-2.90
195.27,-0.86,-0.91,2.07,2.02,-2.01,-1.54,-1.13,-2.86,-2.92,-2.93
197.22,-0.95,-0.92,2.01,2.05,-1.99,-1.49,-1.09,-2.93,-2.90,-2.96
199.19,-1.02,-0.97,1.98,2.02,-1.97,-1.44,-1.04,-2.99,-2.94,-3.00
201.18,-0.99,-1.05,2.03,1.97,-1.95,-1.39,-0.99,-2.94,-3.00,-3.01
203.19,-1.11,-1.13,1.92,1.91,-1.92,-1.34,-0.95,-3.03,-3.05,-3.03
205.23,-1.27,-1.21,1.79,1.84,-1.88,-1.29,-0.91,-3.15,-3.08,-3.06
207.28,-1.28,-1.28,1.78,1.79,-1.82,-1.24,-0.86,-3.10,-3.10,-3.06
209.35,-1.30,-1.33,1.79,1.76,-1.76,-1.19,-0.82,-3.06,-3.09,-3.09
211.44,-1.36,-1.38,1.75,1.72,-1.70,-1.14,-0.78,-3.06,-3.08,-3.11
213.56,-1.49,-1.46,1.62,1.66,-1.64,-1.09,-0.74,-3.13,-3.10,-3.11
215.69,-1.56,-1.55,1.56,1.58,-1.58,-1.04,-0.71,-3.14,-3.13,-3.12
217.85,-1.60,-1.63,1.53,1.50,-1.52,-0.99,-0.67,-3.11,-3.15,-3.13
220.03,-1.72,-1.71,1.42,1.43,-1.44,-0.94,-0.63,-3.16,-3.15,-3.14
222.23,-1.81,-1.78,1.35,1.36,-1.35,-0.89,-0.60,-3.16,-3.14,-3.15
224.45,-1.85,-1.87,1.30,1.28,-1.26,-0.84,-0.56,-3.11,-3.13,-3.14
226.70,-1.95,-1.96,1.20,1.18,-1.16,-0.79,-0.53,-3.11,-3.12,-3.15
228.96,-2.07,-2.07,1.08,1.07,-1.06,-0.74,-0.49,-3.13,-3.13,-3.15
231.25,-2.22,-2.19,0.92,0.95,-0.95,-0.69,-0.46,-3.17,-3.14,-3.14
233.57,-2.29,-2.31,0.85,0.83,-0.85,-0.64,-0.43,-3.14,-3.15,-3.14
235.90,-2.40,-2.41,0.74,0.73,-0.75,-0.59,-0.39,-3.15,-3.16,-3.14
238.26,-2.51,-2.49,0.63,0.64,-0.66,-0.54,-0.36,-3.17,-3.15,-3.14
240.64,-2.57,-2.56,0.56,0.57,-0.58,-0.50,-0.33,-3.15,-3.14,-3.13
243.05,-2.61,-2.61,0.51,0.50,-0.51,-0.45,-0.30,-3.12,-3.13,-3.11
245.48,-2.64,-2.67,0.46,0.44,-0.45,-0.40,-0.27,-3.09,-3.12,-3.10
247.93,-2.72,-2.69,0.37,0.40,-0.40,-0.35,-0.24,-3.12,-3.09,-3.09
250.41,-2.74,-2.70,0.35,0.38,-0.35,-0.30,-0.21,-3.09,-3.05,-3.09
252.92,-2.67,-2.72,0.40,0.34,-0.31,-0.24,-0.18,-2.98,-3.04,-3.07
255.45,-2.74,-2.76,0.31,0.29,-0.27,-0.19,-0.16,-3.01,-3.04,-3.04
258.00,-2.86,-2.82,0.17,0.21,-0.24,-0.14,-0.13,-3.10,-3.06,-3.03
260.58,-2.89,-2.87,0.13,0.14,-0.19,-0.09,-0.10,-3.08,-3.06,-3.02
263.19,-2.87,-2.87,0.13,0.13,-0.14,-0.04,-0.07,-3.01,-3.01,-2.99
265.82,-2.84,-2.85,0.14,0.13,-0.08,0.01,-0.05,-2.92,-2.93,-2.98
268.48,-2.84,-2.87,0.12,0.09,-0.03,0.06,-0.02,-2.87,-2.89,-2.96
271.16,-2.94,-2.93,-0.01,0.01,0.02,0.12,0.01,-2.92,-2.91,-2.93
273.87,-3.01,-3.02,-0.09,-0.10,0.07,0.17,0.04,-2.94,-2.95,-2.92
276.61,-3.11,-3.08,-0.22,-0.19,0.12,0.22,0.06,-2.99,-2.97,-2.89
279.38,-3.11,-3.10,-0.23,-0.22,0.18,0.28,0.09,-2.93,-2.92,-2.88
282.17,-3.08,-3.07,-0.21,-0.21,0.24,0.33,0.12,-2.84,-2.84,-2.86
284.99,-3.05,-3.08,-0.21,-0.24,0.29,0.38,0.14,-2.76,-2.79,-2.84
287.84,-3.09,-3.14,-0.27,-0.32,0.35,0.44,0.17,-2.74,-2.79,-2.82
290.72,-3.27,-3.20,-0.47,-0.40,0.39,0.49,0.20,-2.88,-2.81,-2.80
293.63,-3.28,-3.26,-0.50,-0.48,0.44,0.55,0.23,-2.84,-2.82,-2.78
296.57,-3.25,-3.29,-0.49,-0.53,0.50,0.60,0.26,-2.75,-2.79,-2.76
299.53,-3.30,-3.29,-0.56,-0.55,0.57,0.66,0.28,-2.73,-2.73,-2.74
302.53,-3.34,-3.33,-0.61,-0.62,0.64,0.72,0.31,-2.70,-2.70,-2.72
305.55,-3.39,-3.39,-0.70,-0.70,0.71,0.77,0.34,-2.68,-2.69,-2.69
308.61,-3.45,-3.44,-0.78,-0.77,0.78,0.83,0.37,-2.67,-2.67,-2.67
311.69,-3.50,-3.49,-0.85,-0.85,0.85,0.89,0.40,-2.65,-2.64,-2.65
314.81,-3.54,-3.55,-0.93,-0.94,0.93,0.94,0.43,-2.60,-2.62,-2.61
317.96,-3.61,-3.61,-1.02,-1.02,1.02,1.00,0.46,-2.58,-2.58,-2.59
321.14,-3.70,-3.68,-1.12,-1.11,1.12,1.05,0.49,-2.58,-2.56,-2.58
324.35,-3.74,-3.76,-1.18,-1.21,1.21,1.11,0.52,-2.53,-2.55,-2.56
327.59,-3.85,-3.84,-1.32,-1.30,1.30,1.17,0.56,-2.55,-2.54,-2.53
330.87,-3.92,-3.92,-1.40,-1.40,1.39,1.22,0.59,-2.53,-2.53,-2.51
334.18,-3.98,-3.99,-1.48,-1.50,1.48,1.28,0.62,-2.50,-2.51,-2.50
337.52,-4.06,-4.03,-1.58,-1.55,1.56,1.33,0.66,-2.50,-2.47,-2.48
340.90,-4.08,-4.08,-1.63,-1.63,1.65,1.38,0.69,-2.43,-2.44,-2.45
344.30,-4.10,-4.15,-1.66,-1.71,1.72,1.43,0.73,-2.38,-2.43,-2.43
347.75,-4.24,-4.21,-1.82,-1.79,1.79,1.48,0.76,-2.44,-2.41,-2.42
351.23,-4.30,-4.26,-1.90,-1.86,1.86,1.53,0.80,-2.44,-2.41,-2.40
354.74,-4.28,-4.31,-1.90,-1.93,1.91,1.58,0.84,-2.37,-2.40,-2.38
358.28,-4.32,-4.33,-1.96,-1.97,1.96,1.63,0.88,-2.36,-2.37,-2.36
361.87,-4.37,-4.35,-2.02,-2.00,2.00,1.67,0.92,-2.37,-2.35,-2.35
365.49,-4.38,-4.37,-2.04,-2.04,2.03,1.71,0.96,-2.35,-2.35,-2.34
369.14,-4.37,-4.37,-2.04,-2.05,2.05,1.75,1.00,-2.32,-2.32,-2.33
372.83,-4.36,-4.36,-2.05,-2.05,2.06,1.79,1.04,-2.30,-2.30,-2.31
376.56,-4.35,-4.35,-2.05,-2.05,2.07,1.83,1.08,-2.28,-2.29,-2.30
380.33,-4.35,-4.35,-2.07,-2.07,2.06,1.86,1.12,-2.29,-2.29,-2.27
384.13,-4.34,-4.35,-2.07,-2.08,2.06,1.89,1.16,-2.28,-2.29,-2.27
387.97,-4.34,-4.32,-2.08,-2.07,2.05,1.92,1.21,-2.28,-2.27,-2.26
391.85,-4.30,-4.29,-2.05,-2.04,2.05,1.94,1.25,-2.25,-2.24,-2.25
395.77,-4.23,-4.25,-2.00,-2.02,2.04,1.96,1.29,-2.19,-2.21,-2.23
399.73,-4.22,-4.23,-2.00,-2.01,2.03,1.98,1.34,-2.19,-2.20,-2.22
403.72,-4.23,-4.23,-2.01,-2.01,2.01,1.99,1.38,-2.21,-2.21,-2.21
407.76,-4.24,-4.22,-2.03,-2.02,2.00,2.00,1.43,-2.24,-2.23,-2.20
411.84,-4.20,-4.20,-2.01,-2.01,1.98,2.01,1.47,-2.22,-2.22,-2.19
415.96,-4.15,-4.14,-1.97,-1.97,1.96,2.01,1.51,-2.19,-2.18,-2.18
420.12,-4.08,-4.09,-1.91,-1.92,1.95,2.01,1.56,-2.13,-2.14,-2.17
424.32,-4.04,-4.05,-1.88,-1.89,1.92,2.00,1.60,-2.11,-2.12,-2.16
428.56,-4.02,-4.03,-1.87,-1.88,1.89,2.00,1.64,-2.12,-2.14,-2.15
432.85,-4.02,-4.01,-1.88,-1.87,1.86,1.99,1.68,-2.16,-2.15,-2.14
437.18,-4.00,-3.96,-1.87,-1.83,1.81,1.97,1.72,-2.19,-2.16,-2.13
441.55,-3.88,-3.90,-1.76,-1.78,1.75,1.96,1.75,-2.13,-2.15,-2.11
445.96,-3.80,-3.82,-1.69,-1.71,1.69,1.94,1.79,-2.11,-2.13,-2.10
450.42,-3.75,-3.72,-1.65,-1.63,1.62,1.91,1.82,-2.13,-2.10,-2.10
454.93,-3.62,-3.62,-1.54,-1.54,1.54,1.89,1.85,-2.08,-2.08,-2.08
459.48,-3.50,-3.50,-1.43,-1.44,1.46,1.86,1.88,-2.04,-2.04,-2.07
464.07,-3.38,-3.39,-1.33,-1.35,1.38,1.83,1.90,-2.00,-2.01,-2.05
468.71,-3.32,-3.31,-1.29,-1.28,1.31,1.80,1.92,-2.01,-2.00,-2.03
473.40,-3.25,-3.25,-1.23,-1.23,1.24,1.77,1.94,-2.01,-2.01,-2.02
478.13,-3.20,-3.20,-1.20,-1.20,1.18,1.73,1.96,-2.02,-2.02,-2.00
482.91,-3.15,-3.14,-1.16,-1.15,1.13,1.69,1.97,-2.02,-2.01,-1.99
487.74,-3.09,-3.07,-1.12,-1.10,1.09,1.66,1.98,-2.00,-1.98,-1.97
