frequency,raw
20.00,-1.36
20.20,-1.33
20.40,-1.31
20.61,-1.28
20.81,-1.25
21.02,-1.23
21.23,-1.20
21.44,-1.18
21.66,-1.15
21.87,-1.12
22.09,-1.10
22.31,-1.08
22.54,-1.05
22.76,-1.03
22.99,-1.00
23.22,-0.98
23.45,-0.95
23.69,-0.92
23.92,-0.90
24.16,-0.87
24.40,-0.85
24.65,-0.82
24.89,-0.79
25.14,-0.76
25.39,-0.74
25.65,-0.71
25.91,-0.68
26.16,-0.65
26.43,-0.63
26.69,-0.60
26.96,-0.57
27.23,-0.55
27.50,-0.52
27.77,-0.50
28.05,-0.48
28.33,-0.45
28.62,-0.42
28.90,-0.40
29.19,-0.37
29.48,-0.35
29.78,-0.32
30.08,-0.29
30.38,-0.27
30.68,-0.24
30.99,-0.21
31.30,-0.19
31.61,-0.16
31.93,-0.14
32.24,-0.11
32.57,-0.09
32.89,-0.07
33.22,-0.04
33.55,-0.02
33.89,-0.00
34.23,0.02
34.57,0.04
34.92,0.07
35.27,0.09
35.62,0.11
35.97,0.13
36.33,0.15
36.70,0.17
37.06,0.18
37.43,0.20
37.81,0.21
38.19,0.23
38.57,0.25
38.95,0.27
39.34,0.28
39.74,0.29
40.14,0.30
40.54,0.31
40.94,0.31
41.35,0.31
41.76,0.32
42.18,0.32
42.60,0.33
43.03,0.33
43.46,0.34
43.90,0.35
44.33,0.36
44.78,0.37
45.23,0.38
45.68,0.39
46.13,0.40
46.60,0.41
47.06,0.41
47.53,0.42
48.01,0.43
48.49,0.45
48.97,0.47
49.46,0.48
49.96,0.50
50.46,0.52
50.96,0.54
51.47,0.55
51.99,0.57
52.51,0.59
53.03,0.60
53.56,0.62
54.10,0.63
54.64,0.64
55.18,0.65
55.74,0.66
56.29,0.68
56.86,0.69
57.42,0.69
58.00,0.69
58.58,0.69
59.16,0.69
59.76,0.68
60.35,0.68
60.96,0.67
61.57,0.67
62.18,0.67
62.80,0.67
63.43,0.67
64.07,0.67
64.71,0.67
65.35,0.67
66.01,0.67
66.67,0.67
67.33,0.67
68.01,0.67
68.69,0.67
69.37,0.67
70.07,0.67
70.77,0.67
71.48,0.67
72.19,0.67
72.91,0.67
73.64,0.67
74.38,0.67
75.12,0.67
75.87,0.67
76.63,0.66
77.40,0.66
78.17,0.66
78.95,0.65
79.74,0.65
80.54,0.65
81.35,0.65
82.16,0.66
82.98,0.67
83.81,0.69
84.65,0.71
85.50,0.73
86.35,0.76
87.22,0.79
88.09,0.81
88.97,0.85
89.86,0.88
90.76,0.90
91.66,0.93
92.58,0.96
93.51,0.98
94.44,0.99
95.39,1.00
96.34,1.01
97.30,1.01
98.28,1.01
99.26,1.00
100.25,0.99
101.25,0.99
102.27,0.99
103.29,0.99
104.32,0.99
105.37,0.99
106.42,0.99
107.48,0.99
108.56,0.99
109.64,0.99
110.74,0.99
111.85,0.99
112.97,0.99
114.10,0.99
115.24,0.99
116.39,0.99
117.55,0.99
118.73,0.99
119.92,0.99
121.12,0.99
122.33,0.99
123.55,0.99
124.79,0.99
126.03,0.99
127.29,0.99
128.57,0.99
129.85,0.99
131.15,0.99
132.46,0.99
133.79,0.99
135.12,0.99
136.48,0.99
137.84,0.99
139.22,0.99
140.61,1.00
142.02,1.00
143.44,1.01
144.87,1.01
146.32,1.01
147.78,0.99
149.26,0.98
150.75,0.95
152.26,0.92
153.78,0.88
155.32,0.85
156.88,0.81
158.44,0.80
160.03,0.79
161.63,0.78
163.24,0.79
164.88,0.80
166.53,0.81
168.19,0.83
169.87,0.87
171.57,0.89
173.29,0.93
175.02,0.97
176.77,0.99
178.54,1.01
180.32,1.02
182.13,1.01
183.95,1.00
185.79,0.99
187.65,0.99
189.52,0.99
191.42,0.99
193.33,0.99
195.27,0.99
197.22,0.99
199.19,0.99
201.18,0.99
203.19,0.99
205.23,0.99
207.28,0.99
209.35,0.99
211.44,0.99
213.56,0.99
215.69,0.99
217.85,0.99
220.03,0.99
222.23,0.99
224.45,0.99
226.70,0.99
228.96,1.00
231.25,1.00
233.57,1.01
235.90,1.01
238.26,1.01
240.64,1.00
243.05,0.99
245.48,0.96
247.93,0.93
250.41,0.91
252.92,0.86
255.45,0.84
258.00,0.80
260.58,0.77
263.19,0.74
265.82,0.70
268.48,0.68
271.16,0.67
273.87,0.65
276.61,0.65
279.38,0.65
282.17,0.66
284.99,0.66
287.84,0.67
290.72,0.67
293.63,0.67
296.57,0.67
299.53,0.68
302.53,0.69
305.55,0.69
308.61,0.68
311.69,0.66
314.81,0.65
317.96,0.62
321.14,0.59
324.35,0.56
327.59,0.52
330.87,0.49
334.18,0.45
337.52,0.41
340.90,0.39
344.30,0.36
347.75,0.35
351.23,0.33
354.74,0.32
358.28,0.32
361.87,0.33
365.49,0.34
369.14,0.35
372.83,0.36
376.56,0.36
380.33,0.36
384.13,0.35
387.97,0.34
391.85,0.33
395.77,0.30
399.73,0.27
403.72,0.24
407.76,0.21
411.84,0.17
415.96,0.14
420.12,0.11
424.32,0.08
428.56,0.05
432.85,0.03
437.18,0.01
441.55,0.00
445.96,0.00
450.42,0.00
454.93,0.01
459.48,0.02
464.07,0.02
468.71,0.02
473.40,0.02
478.13,0.02
482.91,0.02
487.74,0.02
492.62,0.02
497.55,0.02
502.52,0.02
507.55,0.02
512.62,0.02
517.75,0.02
522.93,0.02
528.16,0.03
533.44,0.04
538.77,0.04
544.16,0.04
549.60,0.02
555.10,0.00
560.65,-0.02
566.25,-0.04
571.92,-0.07
577.64,-0.10
583.41,-0.14
589.25,-0.17
595.14,-0.20
601.09,-0.24
607.10,-0.27
613.17,-0.29
619.30,-0.31
625.50,-0.33
631.75,-0.33
638.07,-0.32
644.45,-0.32
650.89,-0.31
657.40,-0.31
663.98,-0.31
670.62,-0.31
677.32,-0.31
684.10,-0.31
690.94,-0.31
697.85,-0.31
704.83,-0.31
711.87,-0.31
718.99,-0.31
726.18,-0.31
733.44,-0.31
740.78,-0.31
748.19,-0.31
755.67,-0.31
763.23,-0.31
770.86,-0.31
778.57,-0.31
786.35,-0.31
794.22,-0.31
802.16,-0.31
810.18,-0.31
818.28,-0.31
826.46,-0.31
834.73,-0.31
843.08,-0.31
851.51,-0.32
860.02,-0.32
868.62,-0.33
877.31,-0.32
886.08,-0.31
894.94,-0.30
903.89,-0.28
912.93,-0.26
922.06,-0.23
931.28,-0.20
940.59,-0.16
950.00,-0.13
959.50,-0.10
969.09,-0.07
978.78,-0.05
988.57,-0.03
998.46,-0.01
1008.44,0.02
1018.53,0.05
1028.71,0.08
1039.00,0.10
1049.39,0.11
1059.88,0.13
1070.48,0.17
1081.19,0.22
1092.00,0.27
1102.92,0.32
1113.95,0.37
1125.09,0.41
1136.34,0.46
1147.70,0.51
1159.18,0.55
1170.77,0.58
1182.48,0.62
1194.30,0.67
1206.25,0.73
1218.31,0.79
1230.49,0.85
1242.80,0.90
1255.22,0.96
1267.78,1.02
1280.45,1.09
1293.26,1.16
1306.19,1.22
1319.25,1.30
1332.45,1.38
1345.77,1.44
1359.23,1.52
1372.82,1.59
1386.55,1.67
1400.41,1.74
1414.42,1.81
1428.56,1.89
1442.85,1.98
1457.28,2.06
1471.85,2.13
1486.57,2.20
1501.43,2.27
1516.45,2.36
1531.61,2.44
1546.93,2.52
1562.40,2.57
1578.02,2.63
1593.80,2.70
1609.74,2.76
1625.84,2.82
1642.10,2.88
1658.52,2.95
1675.10,3.01
1691.85,3.06
1708.77,3.10
1725.86,3.16
1743.12,3.20
1760.55,3.23
1778.15,3.24
1795.94,3.24
1813.90,3.26
1832.03,3.25
1850.36,3.23
1868.86,3.21
1887.55,3.16
1906.42,3.10
1925.49,3.04
1944.74,2.98
1964.19,2.90
1983.83,2.81
2003.67,2.70
2023.71,2.59
2043.94,2.46
2064.38,2.35
2085.03,2.22
2105.88,2.09
2126.94,1.94
2148.20,1.77
2169.69,1.59
2191.38,1.42
2213.30,1.25
2235.43,1.08
2257.78,0.91
2280.36,0.74
2303.17,0.55
2326.20,0.36
2349.46,0.18
2372.95,-0.00
2396.68,-0.18
2420.65,-0.38
2444.86,-0.57
2469.31,-0.74
2494.00,-0.90
2518.94,-1.07
2544.13,-1.23
2569.57,-1.40
2595.27,-1.57
2621.22,-1.75
2647.43,-1.92
2673.90,-2.06
2700.64,-2.19
2727.65,-2.31
2754.93,-2.43
2782.48,-2.55
2810.30,-2.67
2838.40,-2.78
2866.79,-2.89
2895.46,-2.97
2924.41,-3.05
2953.65,-3.12
2983.19,-3.15
3013.02,-3.17
3043.15,-3.17
3073.58,-3.17
3104.32,-3.15
3135.36,-3.11
3166.72,-3.05
3198.38,-2.97
3230.37,-2.87
3262.67,-2.73
3295.30,-2.58
3328.25,-2.41
3361.53,-2.23
3395.15,-2.04
3429.10,-1.85
3463.39,-1.66
3498.03,-1.47
3533.01,-1.28
3568.34,-1.06
3604.02,-0.85
3640.06,-0.65
3676.46,-0.46
3713.22,-0.27
3750.36,-0.09
3787.86,0.09
3825.74,0.27
3864.00,0.44
3902.64,0.60
3941.66,0.76
3981.08,0.90
4020.89,1.02
4061.10,1.12
4101.71,1.20
4142.73,1.27
4184.15,1.30
4226.00,1.32
4268.26,1.31
4310.94,1.29
4354.05,1.23
4397.59,1.15
4441.56,1.04
4485.98,0.89
4530.84,0.72
4576.15,0.52
4621.91,0.32
4668.13,0.08
4714.81,-0.19
4761.96,-0.48
4809.58,-0.80
4857.67,-1.14
4906.25,-1.51
4955.31,-1.89
5004.87,-2.27
5054.91,-2.66
5105.46,-3.05
5156.52,-3.43
5208.08,-3.81
5260.16,-4.17
5312.77,-4.52
5365.89,-4.85
5419.55,-5.14
5473.75,-5.40
5528.49,-5.61
5583.77,-5.78
5639.61,-5.90
5696.00,-5.98
5752.96,-6.03
5810.49,-6.06
5868.60,-6.05
5927.28,-6.02
5986.56,-5.96
6046.42,-5.87
6106.89,-5.78
6167.96,-5.68
6229.64,-5.58
6291.93,-5.46
6354.85,-5.35
6418.40,-5.23
6482.58,-5.09
6547.41,-4.94
6612.88,-4.77
6679.01,-4.59
6745.80,-4.41
6813.26,-4.20
6881.39,-3.96
6950.21,-3.69
7019.71,-3.40
7089.91,-3.07
7160.81,-2.71
7232.41,-2.31
7304.74,-1.89
7377.79,-1.46
7451.56,-1.02
7526.08,-0.57
7601.34,-0.14
7677.35,0.28
7754.13,0.67
7831.67,1.03
7909.98,1.37
7989.08,1.66
8068.98,1.90
8149.67,2.09
8231.16,2.25
8313.47,2.37
8396.61,2.46
8480.57,2.53
8565.38,2.57
8651.03,2.60
8737.54,2.59
8824.92,2.57
8913.17,2.51
9002.30,2.43
9092.32,2.32
9183.25,2.20
9275.08,2.05
9367.83,1.87
9461.51,1.68
9556.12,1.47
9651.68,1.27
9748.20,1.05
9845.68,0.84
9944.14,0.61
10043.58,0.37
10144.02,0.14
10245.46,-0.09
10347.91,-0.33
10451.39,-0.57
10555.91,-0.83
10661.46,-1.11
10768.08,-1.40
10875.76,-1.72
10984.52,-2.06
11094.36,-2.44
11205.31,-2.85
11317.36,-3.30
11430.53,-3.80
11544.84,-4.34
11660.29,-4.91
11776.89,-5.51
11894.66,-6.11
12013.60,-6.71
12133.74,-7.28
12255.08,-7.81
12377.63,-8.30
12501.41,-8.71
12626.42,-9.06
12752.68,-9.33
12880.21,-9.52
13009.01,-9.63
13139.10,-9.66
13270.49,-9.62
13403.20,-9.54
13537.23,-9.42
13672.60,-9.28
13809.33,-9.15
13947.42,-9.03
14086.90,-8.94
14227.77,-8.86
14370.04,-8.80
14513.74,-8.78
14658.88,-8.80
14805.47,-8.85
14953.52,-8.93
15103.06,-9.06
15254.09,-9.24
15406.63,-9.47
15560.70,-9.76
15716.30,-10.08
15873.47,-10.46
16032.20,-10.89
16192.52,-11.37
16354.45,-11.91
16517.99,-12.51
16683.17,-13.16
16850.01,-13.88
17018.51,-14.68
17188.69,-15.53
17360.58,-16.47
17534.18,-17.50
17709.53,-18.66
17886.62,-19.95
18065.49,-21.34
18246.14,-22.71
18428.60,-24.13
18612.89,-25.62
18799.02,-27.18
18987.01,-28.81
19176.88,-30.51
19368.65,-32.27
19562.33,-34.11
19757.96,-36.02
19955.54,-37.99
