frequency,raw
20,-13.11
21,-12.45
22,-11.81
23,-11.19
24,-10.60
25,-10.02
26,-9.47
27,-8.93
28,-8.42
29,-7.93
30,-7.46
31,-7.03
32,-6.60
33,-6.20
34,-5.82
35,-5.45
36,-5.09
37,-4.76
38,-4.44
39,-4.16
40,-3.90
41,-3.66
42,-3.44
43,-3.25
44,-3.07
45,-2.92
46,-2.79
47,-2.69
48,-2.57
49,-2.45
50,-2.34
51,-2.22
52,-2.11
53,-1.99
54,-1.86
55,-1.73
56,-1.61
57,-1.47
58,-1.33
59,-1.20
60,-1.08
61,-0.96
62,-0.85
63,-0.73
64,-0.62
65,-0.55
66,-0.47
67,-0.39
68,-0.31
69,-0.24
70,-0.18
71,-0.11
72,-0.05
73,0.01
74,0.09
75,0.14
76,0.22
77,0.31
78,0.40
79,0.48
80,0.57
81,0.66
82,0.77
83,0.87
84,0.97
85,1.07
86,1.17
87,1.29
88,1.40
89,1.50
90,1.60
91,1.70
92,1.78
93,1.87
94,1.96
95,2.05
96,2.12
97,2.20
98,2.27
99,2.33
100,2.40
101,2.47
102,2.53
104,2.59
105,2.65
106,2.69
107,2.74
108,2.78
109,2.80
110,2.82
111,2.84
112,2.86
113,2.89
114,2.92
115,2.95
117,2.97
118,2.99
119,3.02
120,3.05
121,3.09
123,3.12
124,3.15
125,3.18
126,3.20
128,3.21
129,3.23
130,3.24
131,3.24
133,3.23
134,3.21
135,3.20
137,3.18
138,3.15
140,3.12
141,3.09
142,3.06
144,3.02
145,2.99
147,2.96
148,2.93
150,2.91
151,2.90
153,2.88
154,2.87
156,2.86
157,2.84
159,2.83
160,2.81
162,2.78
164,2.74
165,2.71
167,2.67
169,2.64
170,2.61
172,2.58
174,2.56
175,2.54
177,2.53
179,2.53
181,2.53
183,2.54
184,2.55
186,2.55
188,2.55
190,2.55
192,2.55
194,2.56
196,2.57
198,2.57
200,2.57
202,2.56
204,2.54
206,2.51
208,2.49
210,2.46
212,2.43
214,2.41
216,2.37
218,2.33
221,2.29
223,2.25
225,2.21
227,2.17
229,2.12
232,2.07
234,2.03
236,1.99
239,1.94
241,1.88
244,1.80
246,1.73
248,1.65
251,1.55
253,1.47
256,1.39
259,1.29
261,1.19
264,1.09
266,0.99
269,0.87
272,0.76
274,0.64
277,0.50
280,0.38
283,0.26
286,0.13
288,-0.00
291,-0.13
294,-0.26
297,-0.40
300,-0.52
303,-0.65
306,-0.78
309,-0.89
312,-1.00
316,-1.11
319,-1.21
322,-1.30
325,-1.39
328,-1.49
332,-1.59
335,-1.68
338,-1.78
342,-1.86
345,-1.94
349,-2.01
352,-2.08
356,-2.15
359,-2.20
363,-2.24
366,-2.28
370,-2.31
374,-2.32
377,-2.33
381,-2.33
385,-2.34
389,-2.35
393,-2.35
397,-2.34
401,-2.33
405,-2.33
409,-2.32
413,-2.30
417,-2.27
421,-2.23
425,-2.19
430,-2.14
434,-2.08
438,-2.03
443,-1.95
447,-1.88
451,-1.80
456,-1.71
460,-1.61
465,-1.50
470,-1.41
474,-1.33
479,-1.23
484,-1.13
489,-1.03
494,-0.94
499,-0.83
504,-0.72
509,-0.62
514,-0.54
519,-0.46
524,-0.37
529,-0.29
535,-0.22
540,-0.15
545,-0.08
551,-0.02
556,0.06
562,0.14
568,0.20
573,0.26
579,0.32
585,0.37
591,0.41
596,0.45
602,0.49
608,0.53
615,0.57
621,0.60
627,0.63
633,0.67
639,0.71
646,0.74
652,0.76
659,0.79
665,0.82
672,0.85
679,0.88
686,0.92
692,0.95
699,0.97
706,0.97
713,0.96
721,0.93
728,0.90
735,0.86
742,0.83
750,0.80
757,0.76
765,0.73
773,0.70
780,0.67
788,0.65
796,0.63
804,0.62
812,0.60
820,0.58
828,0.56
837,0.55
845,0.53
853,0.50
862,0.46
871,0.44
879,0.41
888,0.39
897,0.36
906,0.32
915,0.29
924,0.25
933,0.21
943,0.18
952,0.16
962,0.14
971,0.12
981,0.09
991,0.04
1001,-0.00
1011,-0.05
1021,-0.10
1031,-0.14
1041,-0.17
1052,-0.20
1062,-0.23
1073,-0.27
1084,-0.31
1094,-0.36
1105,-0.40
1116,-0.44
1128,-0.49
1139,-0.54
1150,-0.58
1162,-0.63
1173,-0.68
1185,-0.73
1197,-0.78
1209,-0.83
1221,-0.87
1233,-0.91
1246,-0.95
1258,-0.98
1271,-1.02
1283,-1.07
1296,-1.12
1309,-1.16
1322,-1.19
1335,-1.22
1349,-1.24
1362,-1.27
1376,-1.30
1390,-1.32
1404,-1.34
1418,-1.36
1432,-1.36
1446,-1.36
1461,-1.35
1475,-1.35
1490,-1.34
1505,-1.34
1520,-1.34
1535,-1.34
1550,-1.35
1566,-1.35
1582,-1.36
1597,-1.36
1613,-1.36
1629,-1.34
1646,-1.32
1662,-1.30
1679,-1.27
1696,-1.24
1713,-1.21
1730,-1.18
1747,-1.14
1764,-1.11
1782,-1.08
1800,-1.05
1818,-1.04
1836,-1.03
1854,-1.02
1873,-1.02
1892,-1.01
1911,-1.00
1930,-0.98
1949,-0.96
1969,-0.92
1988,-0.89
2008,-0.87
2028,-0.84
2048,-0.81
2069,-0.78
2090,-0.74
2111,-0.70
2132,-0.66
2153,-0.62
2175,-0.58
2196,-0.55
2218,-0.53
2240,-0.50
2263,-0.47
2285,-0.44
2308,-0.41
2331,-0.38
2355,-0.36
2378,-0.35
2402,-0.33
2426,-0.32
2450,-0.33
2475,-0.34
2500,-0.35
2525,-0.36
2550,-0.39
2575,-0.41
2601,-0.46
2627,-0.51
2653,-0.58
2680,-0.66
2707,-0.74
2734,-0.84
2761,-0.95
2789,-1.06
2817,-1.19
2845,-1.32
2873,-1.45
2902,-1.57
2931,-1.67
2960,-1.76
2990,-1.83
3020,-1.88
3050,-1.90
3080,-1.90
3111,-1.87
3142,-1.80
3174,-1.69
3206,-1.55
3238,-1.38
3270,-1.17
3303,-0.93
3336,-0.66
3369,-0.37
3403,-0.06
3437,0.28
3471,0.64
3506,1.02
3541,1.42
3576,1.83
3612,2.26
3648,2.68
3685,3.10
3721,3.52
3759,3.94
3796,4.35
3834,4.75
3873,5.13
3911,5.50
3950,5.85
3990,6.18
4030,6.49
4070,6.77
4111,7.03
4152,7.28
4193,7.49
4235,7.68
4278,7.86
4321,8.02
4364,8.14
4407,8.24
4451,8.31
4496,8.34
4541,8.37
4586,8.37
4632,8.35
4679,8.30
4725,8.24
4773,8.16
4820,8.06
4868,7.94
4917,7.80
4966,7.64
5016,7.47
5066,7.28
5117,7.07
5168,6.85
5220,6.63
5272,6.39
5325,6.13
5378,5.86
5432,5.57
5486,5.26
5541,4.96
5596,4.63
5652,4.29
5709,3.92
5766,3.54
5823,3.15
5882,2.75
5940,2.34
6000,1.91
6060,1.50
6120,1.09
6182,0.70
6244,0.33
6306,-0.00
6369,-0.30
6433,-0.56
6497,-0.80
6562,-1.00
6628,-1.16
6694,-1.28
6761,-1.35
6828,-1.39
6897,-1.39
6966,-1.35
7035,-1.27
7106,-1.16
7177,-1.04
7249,-0.90
7321,-0.73
7394,-0.54
7468,-0.33
7543,-0.11
7618,0.14
7694,0.39
7771,0.67
7849,0.96
7928,1.26
8007,1.59
8087,1.95
8168,2.32
8250,2.70
8332,3.10
8415,3.50
8499,3.91
8584,4.32
8670,4.72
8757,5.10
8845,5.46
8933,5.82
9022,6.15
9113,6.45
9204,6.73
9296,6.99
9389,7.23
9483,7.45
9577,7.64
9673,7.82
9770,7.98
9868,8.11
9966,8.22
10066,8.31
10167,8.37
10268,8.42
10371,8.45
10475,8.46
10579,8.45
10685,8.41
10792,8.35
10900,8.28
11009,8.19
11119,8.08
11230,7.97
11343,7.85
11456,7.72
11571,7.57
11686,7.40
11803,7.22
11921,7.03
12040,6.83
12161,6.60
12282,6.36
12405,6.08
12529,5.79
12655,5.50
12781,5.17
12909,4.83
13038,4.48
13168,4.14
13300,3.82
13433,3.53
13567,3.26
13703,3.03
13840,2.86
13978,2.74
14118,2.65
14259,2.59
14402,2.56
14546,2.57
14692,2.58
14838,2.59
14987,2.61
15137,2.63
15288,2.64
15441,2.62
15595,2.57
15751,2.51
15909,2.44
16068,2.34
16229,2.22
16391,2.08
16555,1.94
16720,1.80
16888,1.66
17056,1.50
17227,1.34
17399,1.19
17573,1.04
17749,0.90
17926,0.75
18106,0.62
18287,0.50
18470,0.40
18654,0.31
18841,0.22
19029,0.14
19220,0.07
19412,0.01
19606,-0.04
19802,-0.09
20000,-0.12
