frequency,raw,error,smoothed,error_smoothed,equalization,parametric_eq,fixed_band_eq,equalized_raw,equalized_smoothed,target
20.00,-1.60,-4.91,-1.63,-4.94,4.94,4.74,1.84,3.34,3.31,3.31
20.20,-1.60,-4.90,-1.62,-4.92,4.92,4.73,1.90,3.32,3.31,3.30
20.40,-1.60,-4.90,-1.60,-4.90,4.90,4.72,1.95,3.30,3.30,3.30
20.61,-1.60,-4.90,-1.58,-4.88,4.88,4.70,2.01,3.28,3.30,3.30
20.81,-1.60,-4.88,-1.56,-4.86,4.86,4.69,2.07,3.26,3.29,3.28
21.02,-1.60,-4.88,-1.54,-4.83,4.83,4.68,2.13,3.23,3.29,3.28
21.23,-1.55,-4.83,-1.52,-4.81,4.81,4.67,2.19,3.26,3.29,3.28
21.44,-1.50,-4.79,-1.50,-4.78,4.78,4.65,2.25,3.28,3.29,3.29
21.66,-1.45,-4.73,-1.47,-4.76,4.76,4.64,2.32,3.31,3.29,3.28
21.87,-1.40,-4.69,-1.45,-4.73,4.73,4.63,2.39,3.33,3.28,3.29
22.09,-1.37,-4.65,-1.42,-4.70,4.70,4.61,2.45,3.33,3.28,3.28
22.31,-1.35,-4.64,-1.39,-4.67,4.67,4.60,2.52,3.32,3.28,3.29
22.54,-1.34,-4.62,-1.36,-4.64,4.64,4.58,2.60,3.30,3.29,3.28
22.76,-1.33,-4.62,-1.32,-4.61,4.61,4.57,2.67,3.28,3.29,3.29
22.99,-1.32,-4.61,-1.28,-4.57,4.57,4.55,2.75,3.25,3.29,3.29
23.22,-1.28,-4.57,-1.24,-4.54,4.54,4.54,2.83,3.26,3.29,3.29
23.45,-1.24,-4.54,-1.21,-4.50,4.50,4.52,2.91,3.26,3.30,3.30
23.69,-1.20,-4.50,-1.17,-4.47,4.47,4.51,2.99,3.27,3.30,3.30
23.92,-1.15,-4.45,-1.14,-4.44,4.44,4.49,3.07,3.29,3.30,3.30
24.16,-1.11,-4.42,-1.10,-4.41,4.41,4.47,3.15,3.30,3.31,3.31
24.40,-1.06,-4.37,-1.07,-4.38,4.38,4.46,3.24,3.32,3.31,3.32
24.65,-1.02,-4.33,-1.04,-4.36,4.36,4.44,3.32,3.33,3.31,3.31
24.89,-0.97,-4.28,-1.02,-4.33,4.33,4.42,3.41,3.36,3.31,3.31
25.14,-0.94,-4.25,-0.99,-4.31,4.31,4.40,3.50,3.37,3.32,3.31
25.39,-0.93,-4.25,-0.97,-4.28,4.28,4.39,3.59,3.35,3.32,3.32
25.65,-0.92,-4.24,-0.94,-4.26,4.26,4.37,3.67,3.34,3.32,3.32
25.91,-0.91,-4.22,-0.92,-4.24,4.24,4.35,3.76,3.32,3.32,3.31
26.16,-0.91,-4.23,-0.90,-4.21,4.21,4.33,3.85,3.30,3.32,3.32
26.43,-0.91,-4.23,-0.87,-4.19,4.19,4.31,3.94,3.28,3.32,3.32
26.69,-0.91,-4.23,-0.85,-4.17,4.17,4.29,4.02,3.26,3.32,3.32
26.96,-0.91,-4.22,-0.83,-4.15,4.15,4.27,4.10,3.24,3.31,3.31
27.23,-0.86,-4.17,-0.81,-4.12,4.12,4.25,4.18,3.26,3.31,3.31
27.50,-0.80,-4.10,-0.79,-4.10,4.10,4.23,4.26,3.30,3.31,3.30
27.77,-0.75,-4.06,-0.78,-4.08,4.08,4.21,4.34,3.33,3.31,3.31
28.05,-0.70,-4.00,-0.76,-4.06,4.06,4.19,4.41,3.36,3.30,3.30
28.33,-0.69,-3.99,-0.74,-4.04,4.04,4.16,4.48,3.35,3.30,3.30
28.62,-0.69,-3.98,-0.73,-4.03,4.03,4.14,4.54,3.34,3.30,3.29
28.90,-0.68,-3.98,-0.72,-4.01,4.01,4.12,4.60,3.33,3.29,3.30
29.19,-0.68,-3.97,-0.70,-3.98,3.98,4.10,4.65,3.30,3.28,3.29
29.48,-0.68,-3.96,-0.68,-3.96,3.96,4.07,4.70,3.28,3.28,3.28
29.78,-0.68,-3.95,-0.66,-3.93,3.93,4.05,4.74,3.25,3.27,3.27
30.08,-0.68,-3.95,-0.65,-3.91,3.91,4.03,4.77,3.23,3.26,3.27
30.38,-0.68,-3.93,-0.63,-3.89,3.89,4.00,4.80,3.21,3.25,3.25
30.68,-0.68,-3.93,-0.62,-3.86,3.86,3.98,4.81,3.18,3.25,3.25
30.99,-0.68,-3.92,-0.60,-3.84,3.84,3.95,4.82,3.16,3.24,3.24
31.30,-0.61,-3.84,-0.58,-3.81,3.81,3.93,4.83,3.20,3.23,3.23
31.61,-0.55,-3.77,-0.56,-3.78,3.78,3.90,4.82,3.23,3.22,3.22
31.93,-0.48,-3.68,-0.54,-3.76,3.76,3.88,4.81,3.28,3.21,3.20
32.24,-0.46,-3.67,-0.52,-3.73,3.73,3.85,4.79,3.27,3.21,3.21
32.57,-0.46,-3.66,-0.51,-3.71,3.71,3.82,4.76,3.25,3.20,3.20
32.89,-0.46,-3.65,-0.50,-3.70,3.70,3.80,4.73,3.24,3.20,3.19
33.22,-0.46,-3.65,-0.49,-3.68,3.68,3.77,4.69,3.22,3.20,3.19
33.55,-0.46,-3.65,-0.48,-3.67,3.67,3.74,4.64,3.21,3.20,3.19
33.89,-0.46,-3.66,-0.46,-3.66,3.66,3.71,4.59,3.20,3.19,3.20
34.23,-0.46,-3.64,-0.45,-3.64,3.64,3.69,4.53,3.18,3.19,3.18
34.57,-0.46,-3.65,-0.44,-3.62,3.62,3.66,4.47,3.16,3.19,3.19
34.92,-0.46,-3.65,-0.43,-3.61,3.61,3.63,4.40,3.15,3.18,3.19
35.27,-0.46,-3.66,-0.41,-3.59,3.59,3.60,4.33,3.13,3.18,3.20
35.62,-0.46,-3.63,-0.40,-3.57,3.57,3.57,4.26,3.11,3.18,3.17
35.97,-0.46,-3.63,-0.38,-3.54,3.54,3.54,4.18,3.08,3.17,3.17
36.33,-0.38,-3.54,-0.36,-3.51,3.51,3.51,4.10,3.13,3.16,3.17
36.70,-0.30,-3.44,-0.33,-3.48,3.48,3.48,4.02,3.18,3.14,3.14
37.06,-0.23,-3.36,-0.31,-3.44,3.44,3.45,3.94,3.21,3.13,3.13
37.43,-0.23,-3.34,-0.29,-3.40,3.40,3.42,3.86,3.17,3.11,3.11
37.81,-0.23,-3.32,-0.27,-3.36,3.36,3.39,3.77,3.13,3.09,3.09
38.19,-0.23,-3.31,-0.25,-3.32,3.32,3.35,3.69,3.09,3.07,3.08
38.57,-0.23,-3.28,-0.24,-3.28,3.28,3.32,3.61,3.05,3.04,3.05
38.95,-0.23,-3.26,-0.23,-3.25,3.25,3.29,3.52,3.02,3.02,3.03
39.34,-0.23,-3.21,-0.23,-3.22,3.22,3.26,3.44,2.99,2.99,2.98
39.74,-0.23,-3.19,-0.23,-3.20,3.20,3.22,3.36,2.97,2.97,2.96
40.14,-0.23,-3.16,-0.23,-3.17,3.17,3.19,3.28,2.94,2.94,2.93
40.54,-0.23,-3.14,-0.23,-3.14,3.14,3.16,3.20,2.91,2.91,2.91
40.94,-0.23,-3.10,-0.23,-3.11,3.11,3.12,3.13,2.88,2.89,2.87
41.35,-0.23,-3.09,-0.22,-3.08,3.08,3.09,3.05,2.85,2.86,2.86
41.76,-0.23,-3.06,-0.20,-3.04,3.04,3.05,2.98,2.81,2.84,2.83
42.18,-0.23,-3.04,-0.18,-2.99,2.99,3.02,2.91,2.76,2.81,2.81
42.60,-0.23,-3.02,-0.16,-2.95,2.95,2.98,2.84,2.72,2.79,2.79
43.03,-0.22,-2.98,-0.14,-2.90,2.90,2.95,2.77,2.68,2.76,2.76
43.46,-0.12,-2.86,-0.12,-2.86,2.86,2.91,2.70,2.74,2.74,2.74
43.90,-0.02,-2.74,-0.09,-2.81,2.81,2.87,2.64,2.79,2.72,2.72
44.33,0.00,-2.69,-0.07,-2.76,2.76,2.84,2.58,2.76,2.69,2.69
44.78,0.00,-2.66,-0.05,-2.72,2.72,2.80,2.52,2.72,2.67,2.66
45.23,0.00,-2.66,-0.03,-2.67,2.67,2.76,2.46,2.67,2.64,2.66
45.68,0.00,-2.62,-0.02,-2.63,2.63,2.72,2.40,2.63,2.61,2.62
46.13,0.00,-2.58,-0.00,-2.58,2.58,2.69,2.35,2.58,2.58,2.58
46.60,0.00,-2.55,0.01,-2.54,2.54,2.65,2.30,2.54,2.55,2.55
47.06,0.00,-2.53,0.02,-2.50,2.50,2.61,2.25,2.50,2.52,2.53
47.53,0.00,-2.50,0.02,-2.47,2.47,2.57,2.20,2.47,2.49,2.50
48.01,0.00,-2.45,0.01,-2.44,2.44,2.53,2.16,2.44,2.45,2.45
48.49,0.00,-2.42,0.01,-2.41,2.41,2.49,2.11,2.41,2.42,2.42
48.97,0.00,-2.38,0.00,-2.39,2.39,2.45,2.07,2.39,2.39,2.38
49.46,0.00,-2.35,0.00,-2.35,2.35,2.41,2.03,2.35,2.35,2.35
49.96,0.00,-2.30,0.00,-2.32,2.32,2.37,1.99,2.32,2.32,2.30
50.46,0.00,-2.27,0.00,-2.28,2.28,2.33,1.95,2.28,2.28,2.27
50.96,0.00,-2.24,0.00,-2.24,2.24,2.29,1.91,2.24,2.24,2.24
51.47,0.00,-2.21,0.00,-2.20,2.20,2.25,1.88,2.20,2.20,2.21
51.99,0.00,-2.17,0.00,-2.17,2.17,2.21,1.84,2.17,2.17,2.17
52.51,0.00,-2.14,-0.01,-2.13,2.13,2.17,1.81,2.13,2.13,2.14
53.03,0.00,-2.11,-0.02,-2.10,2.10,2.13,1.78,2.10,2.09,2.11
53.56,0.00,-2.06,-0.02,-2.07,2.07,2.09,1.74,2.07,2.05,2.06
54.10,0.00,-2.01,-0.02,-2.03,2.03,2.05,1.71,2.03,2.01,2.01
54.64,0.00,-1.98,-0.01,-1.99,1.99,2.00,1.68,1.99,1.98,1.98
55.18,0.00,-1.93,0.00,-1.94,1.94,1.96,1.65,1.94,1.94,1.93
55.74,0.00,-1.89,0.02,-1.90,1.90,1.92,1.62,1.90,1.91,1.89
56.29,0.00,-1.86,0.03,-1.84,1.84,1.88,1.59,1.84,1.88,1.86
56.86,0.00,-1.84,0.05,-1.79,1.79,1.83,1.57,1.79,1.84,1.84
57.42,0.00,-1.79,0.07,-1.73,1.73,1.79,1.54,1.73,1.80,1.79
58.00,0.00,-1.76,0.09,-1.67,1.67,1.75,1.51,1.67,1.77,1.76
58.58,0.13,-1.61,0.12,-1.61,1.61,1.70,1.48,1.74,1.73,1.74
59.16,0.23,-1.49,0.14,-1.55,1.55,1.66,1.45,1.78,1.69,1.72
59.76,0.23,-1.45,0.16,-1.49,1.49,1.62,1.42,1.72,1.65,1.68
60.35,0.23,-1.40,0.18,-1.44,1.44,1.57,1.39,1.67,1.62,1.63
60.96,0.23,-1.36,0.20,-1.38,1.38,1.53,1.36,1.61,1.58,1.59
61.57,0.23,-1.30,0.22,-1.32,1.32,1.48,1.33,1.55,1.54,1.53
62.18,0.23,-1.25,0.23,-1.26,1.26,1.44,1.29,1.49,1.49,1.48
62.80,0.23,-1.21,0.24,-1.21,1.21,1.40,1.26,1.44,1.45,1.44
63.43,0.23,-1.16,0.25,-1.16,1.16,1.35,1.23,1.39,1.40,1.39
64.07,0.23,-1.12,0.25,-1.11,1.11,1.31,1.19,1.34,1.36,1.35
64.71,0.23,-1.09,0.24,-1.07,1.07,1.26,1.16,1.30,1.31,1.32
65.35,0.23,-1.04,0.24,-1.03,1.03,1.22,1.12,1.26,1.27,1.27
66.01,0.23,-0.99,0.23,-0.99,0.99,1.17,1.08,1.22,1.22,1.22
66.67,0.23,-0.95,0.23,-0.95,0.95,1.13,1.04,1.18,1.18,1.18
67.33,0.23,-0.90,0.23,-0.90,0.90,1.08,1.01,1.13,1.13,1.13
68.01,0.23,-0.86,0.23,-0.86,0.86,1.04,0.97,1.09,1.09,1.09
68.69,0.23,-0.81,0.23,-0.81,0.81,0.99,0.93,1.04,1.04,1.04
69.37,0.23,-0.78,0.23,-0.77,0.77,0.94,0.89,1.00,1.00,1.01
70.07,0.23,-0.73,0.23,-0.72,0.72,0.90,0.84,0.95,0.95,0.96
70.77,0.23,-0.68,0.23,-0.67,0.67,0.85,0.80,0.90,0.90,0.91
71.48,0.23,-0.63,0.23,-0.63,0.63,0.81,0.76,0.86,0.86,0.86
72.19,0.23,-0.58,0.23,-0.58,0.58,0.76,0.72,0.81,0.81,0.81
72.91,0.23,-0.54,0.23,-0.54,0.54,0.72,0.67,0.77,0.77,0.77
73.64,0.23,-0.48,0.23,-0.50,0.50,0.67,0.63,0.73,0.73,0.71
74.38,0.23,-0.44,0.23,-0.46,0.46,0.62,0.59,0.69,0.69,0.67
75.12,0.23,-0.40,0.23,-0.42,0.42,0.58,0.54,0.65,0.65,0.63
75.87,0.23,-0.38,0.23,-0.38,0.38,0.53,0.50,0.61,0.61,0.61
76.63,0.23,-0.34,0.23,-0.35,0.35,0.49,0.45,0.58,0.58,0.57
77.40,0.23,-0.31,0.23,-0.31,0.31,0.44,0.41,0.54,0.54,0.54
78.17,0.23,-0.28,0.23,-0.28,0.28,0.39,0.36,0.51,0.51,0.51
78.95,0.23,-0.25,0.23,-0.25,0.25,0.35,0.32,0.48,0.48,0.48
79.74,0.23,-0.22,0.23,-0.22,0.22,0.30,0.27,0.45,0.45,0.45
80.54,0.23,-0.20,0.23,-0.19,0.19,0.26,0.23,0.42,0.42,0.43
81.35,0.23,-0.16,0.23,-0.16,0.16,0.21,0.18,0.39,0.39,0.39
82.16,0.23,-0.14,0.23,-0.13,0.13,0.17,0.14,0.36,0.36,0.37
82.98,0.23,-0.11,0.23,-0.09,0.09,0.12,0.09,0.32,0.32,0.34
83.81,0.23,-0.07,0.23,-0.06,0.06,0.07,0.04,0.29,0.29,0.30
84.65,0.23,-0.03,0.23,-0.02,0.02,0.03,-0.00,0.25,0.25,0.26
85.50,0.23,0.02,0.23,0.01,-0.01,-0.02,-0.05,0.22,0.22,0.21
86.35,0.23,0.05,0.23,0.05,-0.05,-0.06,-0.09,0.18,0.18,0.18
87.22,0.23,0.09,0.23,0.09,-0.09,-0.11,-0.14,0.14,0.14,0.14
88.09,0.23,0.13,0.23,0.13,-0.13,-0.15,-0.19,0.10,0.10,0.10
88.97,0.23,0.18,0.23,0.17,-0.17,-0.20,-0.24,0.06,0.06,0.05
89.86,0.23,0.22,0.23,0.21,-0.21,-0.24,-0.28,0.02,0.02,0.01
90.76,0.23,0.26,0.23,0.26,-0.26,-0.29,-0.33,-0.03,-0.03,-0.03
91.66,0.23,0.31,0.23,0.30,-0.30,-0.33,-0.38,-0.07,-0.07,-0.08
92.58,0.23,0.34,0.23,0.35,-0.35,-0.38,-0.42,-0.12,-0.12,-0.11
93.51,0.23,0.39,0.23,0.39,-0.39,-0.42,-0.47,-0.16,-0.16,-0.16
94.44,0.23,0.42,0.23,0.44,-0.44,-0.47,-0.52,-0.21,-0.21,-0.19
95.39,0.23,0.48,0.23,0.48,-0.48,-0.51,-0.57,-0.25,-0.25,-0.25
96.34,0.23,0.53,0.23,0.53,-0.53,-0.55,-0.62,-0.30,-0.30,-0.30
97.30,0.23,0.57,0.23,0.57,-0.57,-0.60,-0.66,-0.34,-0.34,-0.34
98.28,0.23,0.63,0.23,0.62,-0.62,-0.64,-0.71,-0.39,-0.39,-0.40
99.26,0.23,0.67,0.23,0.66,-0.66,-0.69,-0.76,-0.43,-0.43,-0.44
100.25,0.23,0.71,0.23,0.70,-0.70,-0.73,-0.81,-0.47,-0.47,-0.48
101.25,0.23,0.75,0.23,0.74,-0.74,-0.77,-0.86,-0.51,-0.51,-0.52
102.27,0.23,0.79,0.23,0.78,-0.78,-0.81,-0.91,-0.55,-0.55,-0.56
103.29,0.23,0.82,0.23,0.82,-0.82,-0.86,-0.96,-0.59,-0.59,-0.59
104.32,0.23,0.85,0.23,0.85,-0.85,-0.90,-1.00,-0.62,-0.62,-0.62
105.37,0.23,0.89,0.23,0.89,-0.89,-0.94,-1.05,-0.66,-0.66,-0.66
106.42,0.23,0.92,0.23,0.92,-0.92,-0.98,-1.10,-0.69,-0.69,-0.69
107.48,0.23,0.96,0.23,0.95,-0.95,-1.03,-1.15,-0.72,-0.72,-0.73
108.56,0.23,0.98,0.23,0.99,-0.99,-1.07,-1.19,-0.76,-0.76,-0.75
109.64,0.23,1.02,0.23,1.02,-1.02,-1.11,-1.24,-0.79,-0.79,-0.79
110.74,0.23,1.05,0.23,1.05,-1.05,-1.15,-1.28,-0.82,-0.82,-0.82
111.85,0.23,1.08,0.23,1.09,-1.09,-1.19,-1.33,-0.86,-0.86,-0.85
112.97,0.23,1.11,0.23,1.12,-1.12,-1.23,-1.37,-0.89,-0.89,-0.88
114.10,0.23,1.15,0.23,1.16,-1.16,-1.27,-1.41,-0.93,-0.93,-0.92
115.24,0.23,1.19,0.23,1.20,-1.20,-1.31,-1.45,-0.97,-0.97,-0.96
116.39,0.23,1.24,0.23,1.23,-1.23,-1.35,-1.49,-1.00,-1.00,-1.01
117.55,0.23,1.28,0.23,1.27,-1.27,-1.39,-1.53,-1.04,-1.04,-1.05
118.73,0.23,1.32,0.23,1.31,-1.31,-1.43,-1.56,-1.08,-1.08,-1.09
119.92,0.23,1.37,0.23,1.35,-1.35,-1.47,-1.60,-1.12,-1.12,-1.14
121.12,0.23,1.39,0.23,1.40,-1.40,-1.51,-1.63,-1.17,-1.17,-1.16
122.33,0.23,1.44,0.23,1.44,-1.44,-1.55,-1.66,-1.21,-1.21,-1.21
123.55,0.23,1.48,0.23,1.48,-1.48,-1.58,-1.69,-1.25,-1.25,-1.25
124.79,0.23,1.52,0.23,1.53,-1.53,-1.62,-1.72,-1.30,-1.30,-1.29
126.03,0.23,1.56,0.23,1.57,-1.57,-1.66,-1.74,-1.34,-1.34,-1.33
127.29,0.23,1.61,0.23,1.61,-1.61,-1.70,-1.77,-1.38,-1.38,-1.38
128.57,0.23,1.65,0.23,1.65,-1.65,-1.73,-1.79,-1.42,-1.42,-1.42
129.85,0.23,1.70,0.23,1.70,-1.70,-1.77,-1.81,-1.47,-1.47,-1.47
131.15,0.23,1.74,0.23,1.74,-1.74,-1.80,-1.83,-1.51,-1.51,-1.51
132.46,0.23,1.79,0.23,1.78,-1.78,-1.84,-1.85,-1.55,-1.55,-1.56
133.79,0.23,1.83,0.23,1.82,-1.82,-1.87,-1.87,-1.59,-1.59,-1.60
135.12,0.23,1.87,0.23,1.86,-1.86,-1.91,-1.88,-1.63,-1.63,-1.64
136.48,0.23,1.90,0.23,1.90,-1.90,-1.94,-1.90,-1.67,-1.67,-1.67
137.84,0.23,1.93,0.23,1.94,-1.94,-1.98,-1.91,-1.71,-1.71,-1.70
139.22,0.23,1.98,0.23,1.97,-1.97,-2.01,-1.92,-1.74,-1.74,-1.75
140.61,0.23,2.01,0.23,2.01,-2.01,-2.04,-1.93,-1.78,-1.78,-1.78
142.02,0.23,2.04,0.23,2.04,-2.04,-2.08,-1.95,-1.81,-1.81,-1.81
143.44,0.23,2.08,0.23,2.07,-2.07,-2.11,-1.96,-1.84,-1.84,-1.85
144.87,0.23,2.10,0.23,2.10,-2.10,-2.14,-1.97,-1.87,-1.87,-1.87
146.32,0.23,2.13,0.23,2.13,-2.13,-2.17,-1.98,-1.90,-1.90,-1.90
147.78,0.23,2.17,0.23,2.16,-2.16,-2.20,-2.00,-1.93,-1.93,-1.94
149.26,0.23,2.19,0.23,2.19,-2.19,-2.23,-2.01,-1.96,-1.96,-1.96
150.75,0.23,2.23,0.23,2.22,-2.22,-2.26,-2.02,-1.99,-1.99,-2.00
152.26,0.23,2.25,0.23,2.26,-2.26,-2.29,-2.04,-2.03,-2.03,-2.02
153.78,0.23,2.28,0.23,2.29,-2.29,-2.32,-2.05,-2.06,-2.06,-2.05
155.32,0.23,2.31,0.23,2.32,-2.32,-2.35,-2.07,-2.09,-2.09,-2.08
156.88,0.23,2.34,0.23,2.35,-2.35,-2.38,-2.09,-2.12,-2.12,-2.11
158.44,0.23,2.38,0.23,2.38,-2.38,-2.41,-2.11,-2.15,-2.15,-2.15
160.03,0.23,2.41,0.23,2.41,-2.41,-2.44,-2.13,-2.18,-2.18,-2.18
161.63,0.23,2.44,0.23,2.44,-2.44,-2.46,-2.15,-2.21,-2.21,-2.21
163.24,0.23,2.48,0.23,2.47,-2.47,-2.49,-2.17,-2.24,-2.24,-2.25
164.88,0.23,2.51,0.23,2.51,-2.51,-2.51,-2.20,-2.28,-2.28,-2.28
166.53,0.23,2.55,0.23,2.54,-2.54,-2.54,-2.22,-2.31,-2.31,-2.32
168.19,0.23,2.57,0.23,2.58,-2.58,-2.57,-2.25,-2.35,-2.35,-2.34
169.87,0.23,2.61,0.23,2.61,-2.61,-2.59,-2.28,-2.38,-2.38,-2.38
171.57,0.23,2.64,0.23,2.65,-2.65,-2.61,-2.31,-2.42,-2.42,-2.41
173.29,0.23,2.68,0.23,2.69,-2.69,-2.64,-2.35,-2.46,-2.46,-2.45
175.02,0.23,2.72,0.23,2.72,-2.72,-2.66,-2.38,-2.49,-2.49,-2.49
176.77,0.23,2.76,0.23,2.76,-2.76,-2.68,-2.42,-2.53,-2.53,-2.53
178.54,0.23,2.79,0.23,2.80,-2.80,-2.71,-2.46,-2.57,-2.57,-2.56
180.32,0.23,2.84,0.23,2.84,-2.84,-2.73,-2.50,-2.61,-2.61,-2.61
182.13,0.23,2.88,0.23,2.87,-2.87,-2.75,-2.54,-2.64,-2.64,-2.65
183.95,0.23,2.91,0.23,2.91,-2.91,-2.77,-2.59,-2.68,-2.68,-2.68
185.79,0.23,2.96,0.23,2.95,-2.95,-2.79,-2.63,-2.72,-2.72,-2.73
187.65,0.23,2.99,0.23,2.99,-2.99,-2.81,-2.68,-2.76,-2.76,-2.76
189.52,0.23,3.03,0.23,3.03,-3.03,-2.83,-2.73,-2.80,-2.80,-2.80
191.42,0.23,3.06,0.23,3.07,-3.07,-2.85,-2.78,-2.84,-2.84,-2.83
193.33,0.23,3.10,0.23,3.10,-3.10,-2.87,-2.84,-2.87,-2.87,-2.87
195.27,0.23,3.14,0.23,3.14,-3.14,-2.88,-2.89,-2.91,-2.91,-2.91
197.22,0.23,3.18,0.23,3.17,-3.17,-2.90,-2.95,-2.94,-2.94,-2.95
199.19,0.23,3.20,0.23,3.20,-3.20,-2.92,-3.01,-2.97,-2.97,-2.97
201.18,0.23,3.24,0.23,3.23,-3.23,-2.93,-3.06,-3.00,-3.00,-3.01
203.19,0.23,3.26,0.23,3.26,-3.26,-2.95,-3.12,-3.03,-3.03,-3.03
205.23,0.23,3.28,0.23,3.28,-3.28,-2.96,-3.18,-3.05,-3.05,-3.05
207.28,0.23,3.30,0.24,3.32,-3.32,-2.98,-3.24,-3.09,-3.08,-3.07
209.35,0.23,3.34,0.25,3.36,-3.36,-2.99,-3.30,-3.13,-3.11,-3.11
211.44,0.23,3.36,0.25,3.38,-3.38,-3.01,-3.36,-3.15,-3.13,-3.13
213.56,0.23,3.39,0.25,3.41,-3.41,-3.02,-3.42,-3.18,-3.16,-3.16
215.69,0.23,3.41,0.24,3.42,-3.42,-3.03,-3.48,-3.19,-3.18,-3.18
217.85,0.23,3.43,0.23,3.44,-3.44,-3.04,-3.54,-3.21,-3.21,-3.20
220.03,0.23,3.46,0.21,3.45,-3.45,-3.05,-3.59,-3.22,-3.23,-3.23
222.23,0.23,3.49,0.19,3.45,-3.45,-3.07,-3.65,-3.22,-3.26,-3.26
224.45,0.23,3.51,0.18,3.46,-3.46,-3.08,-3.70,-3.23,-3.28,-3.28
226.70,0.23,3.54,0.15,3.46,-3.46,-3.09,-3.75,-3.23,-3.30,-3.31
228.96,0.23,3.56,0.13,3.46,-3.46,-3.09,-3.80,-3.23,-3.33,-3.33
231.25,0.06,3.41,0.11,3.46,-3.46,-3.10,-3.84,-3.40,-3.35,-3.35
233.57,0.00,3.37,0.09,3.45,-3.45,-3.11,-3.88,-3.45,-3.37,-3.37
235.90,0.00,3.38,0.07,3.45,-3.45,-3.12,-3.91,-3.45,-3.38,-3.38
238.26,0.00,3.41,0.05,3.45,-3.45,-3.13,-3.94,-3.45,-3.40,-3.41
240.64,0.00,3.41,0.03,3.45,-3.45,-3.13,-3.97,-3.45,-3.42,-3.41
243.05,0.00,3.43,0.01,3.44,-3.44,-3.14,-3.99,-3.44,-3.43,-3.43
245.48,0.00,3.45,-0.00,3.45,-3.45,-3.14,-4.00,-3.45,-3.45,-3.45
247.93,0.00,3.47,-0.01,3.45,-3.45,-3.15,-4.01,-3.45,-3.46,-3.47
250.41,0.00,3.46,-0.02,3.45,-3.45,-3.15,-4.02,-3.45,-3.47,-3.46
252.92,0.00,3.48,-0.02,3.46,-3.46,-3.16,-4.02,-3.46,-3.48,-3.48
255.45,0.00,3.50,-0.01,3.48,-3.48,-3.16,-4.01,-3.48,-3.49,-3.50
258.00,0.00,3.50,-0.00,3.50,-3.50,-3.16,-4.00,-3.50,-3.50,-3.50
260.58,0.00,3.51,-0.00,3.51,-3.51,-3.17,-3.99,-3.51,-3.51,-3.51
263.19,0.00,3.52,0.00,3.52,-3.52,-3.17,-3.97,-3.52,-3.52,-3.52
265.82,0.00,3.52,0.00,3.52,-3.52,-3.17,-3.94,-3.52,-3.52,-3.52
268.48,0.00,3.53,0.00,3.53,-3.53,-3.17,-3.91,-3.53,-3.53,-3.53
271.16,0.00,3.52,0.00,3.53,-3.53,-3.17,-3.88,-3.53,-3.53,-3.52
273.87,0.00,3.53,0.00,3.53,-3.53,-3.17,-3.84,-3.53,-3.53,-3.53
276.61,0.00,3.53,-0.00,3.54,-3.54,-3.17,-3.80,-3.54,-3.54,-3.53
279.38,0.00,3.55,0.00,3.54,-3.54,-3.17,-3.76,-3.54,-3.54,-3.55
282.17,0.00,3.54,0.01,3.54,-3.54,-3.17,-3.71,-3.54,-3.54,-3.54
284.99,0.00,3.54,0.02,3.55,-3.55,-3.17,-3.67,-3.55,-3.54,-3.54
287.84,0.00,3.53,0.02,3.55,-3.55,-3.16,-3.62,-3.55,-3.53,-3.53
290.72,0.00,3.54,0.02,3.55,-3.55,-3.16,-3.57,-3.55,-3.53,-3.54
293.63,0.00,3.53,0.01,3.54,-3.54,-3.16,-3.52,-3.54,-3.53,-3.53
296.57,0.00,3.52,-0.00,3.53,-3.53,-3.15,-3.46,-3.53,-3.53,-3.52
299.53,0.00,3.53,-0.02,3.51,-3.51,-3.15,-3.41,-3.51,-3.53,-3.53
302.53,0.00,3.51,-0.03,3.49,-3.49,-3.14,-3.36,-3.49,-3.52,-3.51
305.55,0.00,3.52,-0.05,3.47,-3.47,-3.14,-3.31,-3.47,-3.52,-3.52
308.61,0.00,3.51,-0.07,3.44,-3.44,-3.13,-3.26,-3.44,-3.51,-3.51
311.69,-0.00,3.51,-0.09,3.42,-3.42,-3.12,-3.20,-3.42,-3.51,-3.51
314.81,-0.14,3.36,-0.12,3.39,-3.39,-3.12,-3.15,-3.53,-3.51,-3.50
317.96,-0.22,3.29,-0.14,3.36,-3.36,-3.11,-3.11,-3.58,-3.50,-3.51
321.14,-0.23,3.27,-0.16,3.34,-3.34,-3.10,-3.06,-3.57,-3.50,-3.50
324.35,-0.23,3.27,-0.18,3.31,-3.31,-3.09,-3.01,-3.54,-3.49,-3.50
327.59,-0.23,3.25,-0.20,3.29,-3.29,-3.08,-2.97,-3.52,-3.49,-3.48
330.87,-0.23,3.25,-0.22,3.26,-3.26,-3.07,-2.93,-3.49,-3.48,-3.48
334.18,-0.23,3.25,-0.23,3.24,-3.24,-3.06,-2.89,-3.47,-3.47,-3.48
337.52,-0.23,3.24,-0.24,3.23,-3.23,-3.05,-2.85,-3.46,-3.47,-3.47
340.90,-0.23,3.23,-0.24,3.22,-3.22,-3.04,-2.81,-3.45,-3.46,-3.46
344.30,-0.23,3.22,-0.24,3.21,-3.21,-3.03,-2.77,-3.44,-3.45,-3.45
347.75,-0.23,3.21,-0.23,3.21,-3.21,-3.02,-2.74,-3.44,-3.44,-3.44
351.23,-0.23,3.21,-0.22,3.21,-3.21,-3.01,-2.71,-3.44,-3.43,-3.44
354.74,-0.23,3.18,-0.22,3.20,-3.20,-2.99,-2.68,-3.43,-3.42,-3.41
358.28,-0.23,3.19,-0.23,3.19,-3.19,-2.98,-2.66,-3.42,-3.41,-3.42
361.87,-0.23,3.18,-0.24,3.17,-3.17,-2.97,-2.63,-3.40,-3.41,-3.41
365.49,-0.23,3.17,-0.26,3.14,-3.14,-2.95,-2.61,-3.37,-3.40,-3.40
369.14,-0.23,3.16,-0.28,3.12,-3.12,-2.94,-2.59,-3.35,-3.39,-3.39
372.83,-0.23,3.15,-0.30,3.09,-3.09,-2.92,-2.57,-3.32,-3.39,-3.38
376.56,-0.23,3.15,-0.32,3.07,-3.07,-2.91,-2.56,-3.30,-3.38,-3.38
380.33,-0.32,3.06,-0.34,3.04,-3.04,-2.89,-2.54,-3.36,-3.38,-3.38
384.13,-0.43,2.94,-0.36,3.01,-3.01,-2.88,-2.53,-3.44,-3.37,-3.37
387.97,-0.46,2.91,-0.38,2.98,-2.98,-2.86,-2.52,-3.44,-3.37,-3.37
391.85,-0.46,2.90,-0.41,2.96,-2.96,-2.84,-2.51,-3.42,-3.36,-3.36
395.77,-0.46,2.91,-0.42,2.93,-2.93,-2.82,-2.50,-3.39,-3.36,-3.37
399.73,-0.46,2.90,-0.43,2.92,-2.92,-2.81,-2.50,-3.38,-3.35,-3.36
403.72,-0.46,2.88,-0.44,2.90,-2.90,-2.79,-2.49,-3.36,-3.34,-3.34
407.76,-0.46,2.88,-0.45,2.89,-2.89,-2.77,-2.49,-3.35,-3.34,-3.34
411.84,-0.46,2.86,-0.46,2.87,-2.87,-2.75,-2.49,-3.33,-3.33,-3.32
415.96,-0.46,2.86,-0.47,2.85,-2.85,-2.73,-2.49,-3.31,-3.32,-3.32
420.12,-0.46,2.86,-0.48,2.83,-2.83,-2.71,-2.49,-3.29,-3.31,-3.32
424.32,-0.46,2.84,-0.49,2.81,-2.81,-2.69,-2.49,-3.27,-3.30,-3.30
428.56,-0.46,2.82,-0.50,2.79,-2.79,-2.67,-2.49,-3.25,-3.29,-3.28
432.85,-0.46,2.81,-0.51,2.76,-2.76,-2.65,-2.49,-3.22,-3.27,-3.27
437.18,-0.46,2.80,-0.53,2.73,-2.73,-2.63,-2.49,-3.19,-3.26,-3.26
441.55,-0.46,2.79,-0.55,2.69,-2.69,-2.61,-2.49,-3.15,-3.25,-3.25
445.96,-0.62,2.61,-0.57,2.66,-2.66,-2.59,-2.49,-3.28,-3.23,-3.23
450.42,-0.68,2.54,-0.60,2.62,-2.62,-2.57,-2.49,-3.30,-3.22,-3.22
454.93,-0.68,2.52,-0.62,2.59,-2.59,-2.54,-2.49,-3.27,-3.21,-3.20
459.48,-0.68,2.51,-0.64,2.55,-2.55,-2.52,-2.49,-3.23,-3.19,-3.19
464.07,-0.68,2.49,-0.65,2.52,-2.52,-2.50,-2.49,-3.20,-3.18,-3.17
468.71,-0.68,2.47,-0.67,2.49,-2.49,-2.48,-2.49,-3.17,-3.16,-3.15
473.40,-0.68,2.47,-0.68,2.46,-2.46,-2.45,-2.49,-3.14,-3.15,-3.15
478.13,-0.68,2.45,-0.69,2.44,-2.44,-2.43,-2.48,-3.12,-3.13,-3.13
482.91,-0.68,2.44,-0.70,2.42,-2.42,-2.40,-2.47,-3.10,-3.11,-3.12
487.74,-0.68,2.42,-0.70,2.40,-2.40,-2.38,-2.47,-3.08,-3.10,-3.10
492.62,-0.68,2.40,-0.69,2.38,-2.38,-2.36,-2.46,-3.06,-3.08,-3.08
