frequency,raw,smoothed,error,error_smoothed,equalization,parametric_eq,fixed_band_eq,equalized_raw,equalized_smoothed,target
20.00,-7.28,-7.28,-10.68,-10.69,6.00,6.38,2.71,-1.28,-1.28,3.40
20.20,-7.19,-7.19,-10.62,-10.62,6.00,6.37,2.79,-1.19,-1.19,3.43
20.40,-7.11,-7.10,-10.57,-10.57,6.00,6.36,2.87,-1.11,-1.10,3.46
20.61,-7.02,-7.02,-10.50,-10.51,6.00,6.35,2.95,-1.02,-1.02,3.48
20.81,-6.94,-6.94,-10.45,-10.46,6.00,6.35,3.04,-0.94,-0.94,3.51
21.02,-6.87,-6.87,-10.41,-10.41,6.00,6.34,3.13,-0.87,-0.87,3.54
21.23,-6.81,-6.81,-10.36,-10.36,6.00,6.33,3.21,-0.81,-0.81,3.55
21.44,-6.75,-6.75,-10.31,-10.31,6.00,6.32,3.31,-0.75,-0.75,3.56
21.66,-6.70,-6.70,-10.27,-10.27,6.00,6.31,3.40,-0.70,-0.70,3.57
21.87,-6.65,-6.65,-10.22,-10.22,6.00,6.30,3.50,-0.65,-0.65,3.57
22.09,-6.60,-6.60,-10.18,-10.17,6.00,6.29,3.60,-0.60,-0.60,3.58
22.31,-6.54,-6.54,-10.12,-10.12,6.00,6.28,3.70,-0.54,-0.54,3.58
22.54,-6.47,-6.47,-10.05,-10.05,6.00,6.27,3.81,-0.47,-0.47,3.58
22.76,-6.40,-6.40,-9.98,-9.97,6.00,6.26,3.92,-0.40,-0.40,3.58
22.99,-6.31,-6.31,-9.88,-9.88,6.00,6.25,4.03,-0.31,-0.31,3.57
23.22,-6.22,-6.22,-9.79,-9.79,6.00,6.24,4.14,-0.22,-0.22,3.57
23.45,-6.13,-6.13,-9.70,-9.69,6.00,6.22,4.26,-0.13,-0.13,3.56
23.69,-6.03,-6.03,-9.60,-9.60,6.00,6.21,4.38,-0.03,-0.03,3.56
23.92,-5.94,-5.94,-9.50,-9.51,6.00,6.20,4.50,0.06,0.06,3.56
24.16,-5.85,-5.85,-9.42,-9.42,6.00,6.19,4.62,0.15,0.15,3.57
24.40,-5.77,-5.77,-9.34,-9.34,6.00,6.18,4.74,0.23,0.23,3.57
24.65,-5.70,-5.70,-9.26,-9.26,6.00,6.17,4.87,0.30,0.30,3.56
24.89,-5.63,-5.63,-9.19,-9.19,6.00,6.15,5.00,0.37,0.37,3.56
25.14,-5.57,-5.57,-9.13,-9.13,6.00,6.14,5.13,0.43,0.43,3.56
25.39,-5.51,-5.51,-9.07,-9.07,6.00,6.13,5.26,0.49,0.49,3.56
25.65,-5.45,-5.45,-9.01,-9.01,6.00,6.12,5.40,0.55,0.55,3.56
25.91,-5.40,-5.40,-8.95,-8.95,6.00,6.10,5.53,0.60,0.60,3.55
26.16,-5.34,-5.34,-8.88,-8.89,6.00,6.09,5.66,0.66,0.66,3.54
26.43,-5.29,-5.29,-8.84,-8.83,6.00,6.08,5.79,0.71,0.71,3.54
26.69,-5.23,-5.23,-8.77,-8.77,6.00,6.06,5.92,0.77,0.77,3.54
26.96,-5.16,-5.16,-8.70,-8.71,6.00,6.05,6.05,0.84,0.84,3.54
27.23,-5.09,-5.09,-8.63,-8.63,6.00,6.03,6.18,0.91,0.91,3.54
27.50,-5.02,-5.02,-8.56,-8.55,6.00,6.02,6.30,0.98,0.98,3.54
27.77,-4.94,-4.94,-8.47,-8.47,6.00,6.01,6.42,1.06,1.06,3.53
28.05,-4.85,-4.85,-8.38,-8.38,6.00,5.99,6.54,1.15,1.15,3.53
28.33,-4.77,-4.77,-8.28,-8.29,6.00,5.98,6.65,1.23,1.23,3.51
28.62,-4.69,-4.69,-8.20,-8.20,6.00,5.96,6.75,1.31,1.31,3.51
28.90,-4.62,-4.62,-8.13,-8.13,6.00,5.94,6.85,1.38,1.38,3.51
29.19,-4.56,-4.56,-8.06,-8.07,6.00,5.93,6.94,1.44,1.44,3.50
29.48,-4.51,-4.51,-8.02,-8.01,6.00,5.91,7.01,1.49,1.49,3.51
29.78,-4.45,-4.45,-7.95,-7.95,6.00,5.90,7.09,1.55,1.55,3.50
30.08,-4.39,-4.39,-7.89,-7.88,6.00,5.88,7.14,1.61,1.61,3.49
30.38,-4.32,-4.32,-7.80,-7.81,6.00,5.86,7.20,1.68,1.68,3.48
30.68,-4.25,-4.25,-7.73,-7.73,6.00,5.84,7.23,1.75,1.75,3.48
30.99,-4.17,-4.17,-7.64,-7.64,6.00,5.83,7.26,1.83,1.83,3.47
31.30,-4.09,-4.09,-7.56,-7.56,6.00,5.81,7.28,1.91,1.91,3.47
31.61,-4.01,-4.01,-7.47,-7.47,6.00,5.79,7.28,1.99,1.99,3.46
31.93,-3.94,-3.94,-7.39,-7.39,6.00,5.77,7.27,2.06,2.06,3.45
32.24,-3.88,-3.88,-7.32,-7.32,6.00,5.75,7.26,2.12,2.12,3.44
32.57,-3.81,-3.81,-7.25,-7.25,6.00,5.73,7.22,2.19,2.19,3.44
32.89,-3.75,-3.75,-7.18,-7.18,6.00,5.71,7.19,2.25,2.25,3.43
33.22,-3.69,-3.69,-7.11,-7.11,6.00,5.69,7.13,2.31,2.31,3.42
33.55,-3.63,-3.63,-7.05,-7.05,6.00,5.67,7.08,2.37,2.37,3.42
33.89,-3.57,-3.57,-6.98,-6.98,6.00,5.65,7.01,2.43,2.43,3.41
34.23,-3.51,-3.51,-6.91,-6.91,6.00,5.63,6.94,2.49,2.49,3.40
34.57,-3.45,-3.46,-6.84,-6.84,6.00,5.61,6.85,2.55,2.54,3.39
34.92,-3.40,-3.40,-6.78,-6.78,6.00,5.59,6.77,2.60,2.60,3.38
35.27,-3.34,-3.34,-6.71,-6.71,6.00,5.57,6.67,2.66,2.66,3.37
35.62,-3.27,-3.27,-6.63,-6.63,6.00,5.55,6.58,2.73,2.73,3.36
35.97,-3.21,-3.21,-6.56,-6.56,6.00,5.52,6.48,2.79,2.79,3.35
36.33,-3.14,-3.14,-6.48,-6.48,6.00,5.50,6.38,2.86,2.86,3.34
36.70,-3.08,-3.08,-6.41,-6.41,6.00,5.48,6.28,2.92,2.92,3.33
37.06,-3.02,-3.02,-6.33,-6.34,6.01,5.45,6.17,2.99,2.99,3.31
37.43,-2.96,-2.96,-6.27,-6.27,6.01,5.43,6.07,3.05,3.05,3.31
37.81,-2.90,-2.90,-6.20,-6.20,6.01,5.40,5.96,3.11,3.11,3.30
38.19,-2.85,-2.85,-6.13,-6.13,6.00,5.38,5.86,3.15,3.15,3.28
38.57,-2.79,-2.79,-6.07,-6.07,5.98,5.35,5.75,3.19,3.19,3.28
38.95,-2.74,-2.74,-6.00,-6.00,5.95,5.33,5.65,3.21,3.21,3.26
39.34,-2.69,-2.69,-5.94,-5.93,5.92,5.30,5.55,3.23,3.23,3.25
39.74,-2.63,-2.63,-5.86,-5.87,5.87,5.28,5.46,3.24,3.23,3.23
40.14,-2.58,-2.58,-5.81,-5.80,5.81,5.25,5.36,3.23,3.23,3.23
40.54,-2.52,-2.52,-5.73,-5.73,5.75,5.22,5.27,3.23,3.23,3.21
40.94,-2.46,-2.46,-5.66,-5.67,5.68,5.19,5.18,3.22,3.22,3.20
41.35,-2.41,-2.41,-5.60,-5.60,5.61,5.17,5.09,3.20,3.20,3.19
41.76,-2.36,-2.36,-5.54,-5.54,5.54,5.14,5.01,3.18,3.18,3.18
42.18,-2.31,-2.31,-5.49,-5.48,5.47,5.11,4.93,3.16,3.17,3.18
42.60,-2.25,-2.25,-5.41,-5.41,5.41,5.08,4.85,3.16,3.16,3.16
43.03,-2.19,-2.19,-5.34,-5.34,5.34,5.05,4.78,3.15,3.15,3.15
43.46,-2.14,-2.14,-5.27,-5.27,5.27,5.02,4.71,3.13,3.13,3.13
43.90,-2.09,-2.09,-5.20,-5.20,5.20,4.99,4.64,3.11,3.11,3.11
44.33,-2.04,-2.04,-5.13,-5.13,5.13,4.95,4.58,3.09,3.09,3.09
44.78,-1.99,-1.99,-5.06,-5.06,5.06,4.92,4.52,3.06,3.07,3.07
45.23,-1.93,-1.93,-4.98,-4.98,4.99,4.89,4.46,3.05,3.05,3.05
45.68,-1.87,-1.87,-4.91,-4.91,4.92,4.86,4.41,3.05,3.04,3.03
46.13,-1.82,-1.82,-4.84,-4.84,4.85,4.82,4.36,3.03,3.03,3.01
46.60,-1.77,-1.77,-4.78,-4.77,4.78,4.79,4.32,3.01,3.01,3.01
47.06,-1.73,-1.73,-4.72,-4.72,4.71,4.76,4.28,2.98,2.98,2.99
47.53,-1.69,-1.69,-4.66,-4.66,4.65,4.72,4.24,2.95,2.96,2.97
48.01,-1.64,-1.64,-4.60,-4.59,4.58,4.68,4.20,2.94,2.94,2.96
48.49,-1.59,-1.59,-4.52,-4.52,4.51,4.65,4.17,2.92,2.92,2.93
48.97,-1.54,-1.54,-4.43,-4.43,4.44,4.61,4.14,2.90,2.90,2.89
49.46,-1.49,-1.49,-4.35,-4.36,4.37,4.57,4.11,2.88,2.87,2.86
49.96,-1.45,-1.45,-4.28,-4.29,4.30,4.54,4.08,2.85,2.85,2.83
50.46,-1.41,-1.41,-4.23,-4.22,4.23,4.50,4.06,2.82,2.82,2.82
50.96,-1.37,-1.37,-4.17,-4.16,4.16,4.46,4.04,2.79,2.79,2.80
51.47,-1.33,-1.33,-4.09,-4.10,4.10,4.42,4.02,2.77,2.77,2.76
51.99,-1.29,-1.29,-4.03,-4.04,4.04,4.38,4.00,2.75,2.75,2.74
52.51,-1.26,-1.26,-3.99,-3.98,3.98,4.34,3.99,2.72,2.72,2.73
53.03,-1.22,-1.22,-3.92,-3.92,3.92,4.30,3.97,2.70,2.70,2.70
53.56,-1.19,-1.19,-3.87,-3.87,3.86,4.25,3.96,2.67,2.67,2.68
54.10,-1.16,-1.16,-3.81,-3.81,3.81,4.21,3.94,2.64,2.65,2.65
54.64,-1.13,-1.13,-3.76,-3.75,3.75,4.17,3.93,2.61,2.62,2.62
55.18,-1.09,-1.09,-3.69,-3.69,3.69,4.12,3.91,2.60,2.60,2.60
55.74,-1.05,-1.06,-3.62,-3.63,3.63,4.08,3.90,2.58,2.57,2.57
56.29,-1.03,-1.03,-3.58,-3.58,3.58,4.03,3.88,2.55,2.55,2.55
56.86,-1.01,-1.00,-3.54,-3.52,3.53,3.99,3.87,2.52,2.54,2.53
57.42,-0.97,-0.97,-3.47,-3.47,3.49,3.94,3.85,2.52,2.52,2.50
58.00,-0.93,-0.96,-3.41,-3.43,3.46,3.89,3.83,2.52,2.50,2.48
58.58,-0.96,-0.95,-3.42,-3.41,3.42,3.85,3.81,2.46,2.46,2.46
59.16,-0.97,-0.96,-3.41,-3.40,3.38,3.80,3.78,2.41,2.42,2.44
59.76,-0.96,-0.96,-3.38,-3.37,3.34,3.75,3.76,2.38,2.39,2.42
60.35,-0.93,-0.93,-3.32,-3.32,3.30,3.70,3.73,2.37,2.37,2.38
60.96,-0.90,-0.91,-3.26,-3.26,3.26,3.65,3.69,2.35,2.35,2.36
61.57,-0.88,-0.88,-3.20,-3.20,3.20,3.60,3.66,2.32,2.32,2.32
62.18,-0.86,-0.85,-3.15,-3.14,3.15,3.54,3.62,2.29,2.30,2.29
62.80,-0.81,-0.82,-3.07,-3.07,3.09,3.49,3.58,2.27,2.27,2.26
63.43,-0.78,-0.78,-3.01,-3.01,3.02,3.44,3.53,2.24,2.23,2.23
64.07,-0.75,-0.75,-2.95,-2.95,2.95,3.38,3.48,2.20,2.20,2.20
64.71,-0.72,-0.72,-2.89,-2.89,2.88,3.33,3.43,2.16,2.16,2.17
65.35,-0.68,-0.68,-2.83,-2.82,2.81,3.27,3.37,2.13,2.13,2.15
66.01,-0.63,-0.63,-2.75,-2.75,2.74,3.21,3.31,2.11,2.11,2.12
66.67,-0.58,-0.58,-2.67,-2.67,2.67,3.16,3.25,2.09,2.09,2.09
67.33,-0.54,-0.54,-2.60,-2.60,2.60,3.10,3.18,2.06,2.07,2.06
68.01,-0.49,-0.50,-2.52,-2.53,2.54,3.04,3.11,2.04,2.04,2.03
68.69,-0.47,-0.47,-2.47,-2.46,2.47,2.98,3.04,2.00,2.00,2.00
69.37,-0.44,-0.44,-2.41,-2.40,2.41,2.92,2.97,1.96,1.97,1.97
70.07,-0.41,-0.41,-2.34,-2.35,2.35,2.86,2.89,1.93,1.93,1.93
70.77,-0.39,-0.39,-2.30,-2.30,2.29,2.80,2.82,1.90,1.90,1.91
71.48,-0.37,-0.37,-2.25,-2.24,2.24,2.73,2.74,1.87,1.87,1.87
72.19,-0.35,-0.35,-2.19,-2.19,2.19,2.67,2.66,1.84,1.84,1.84
72.91,-0.33,-0.34,-2.13,-2.14,2.14,2.61,2.58,1.81,1.81,1.80
73.64,-0.33,-0.33,-2.10,-2.10,2.10,2.54,2.50,1.77,1.77,1.77
74.38,-0.33,-0.33,-2.07,-2.07,2.06,2.48,2.41,1.73,1.73,1.74
75.12,-0.34,-0.33,-2.04,-2.03,2.03,2.41,2.33,1.69,1.69,1.70
75.87,-0.33,-0.33,-2.00,-2.00,2.00,2.35,2.25,1.67,1.67,1.67
76.63,-0.34,-0.34,-1.98,-1.98,1.99,2.28,2.16,1.65,1.65,1.64
77.40,-0.36,-0.37,-1.97,-1.97,1.99,2.21,2.08,1.63,1.62,1.61
78.17,-0.41,-0.41,-1.98,-1.98,2.00,2.14,2.00,1.59,1.59,1.57
78.95,-0.47,-0.47,-2.02,-2.01,2.02,2.07,1.91,1.55,1.55,1.54
79.74,-0.53,-0.54,-2.04,-2.05,2.05,2.00,1.83,1.52,1.51,1.51
80.54,-0.61,-0.61,-2.09,-2.09,2.09,1.93,1.75,1.48,1.48,1.48
81.35,-0.69,-0.69,-2.13,-2.13,2.14,1.86,1.66,1.45,1.45,1.44
82.16,-0.76,-0.76,-2.17,-2.17,2.18,1.79,1.58,1.42,1.42,1.41
82.98,-0.83,-0.84,-2.21,-2.21,2.22,1.72,1.50,1.39,1.38,1.38
83.81,-0.91,-0.91,-2.24,-2.24,2.24,1.65,1.42,1.33,1.33,1.33
84.65,-0.96,-0.96,-2.26,-2.26,2.24,1.58,1.34,1.27,1.28,1.30
85.50,-0.98,-0.98,-2.25,-2.24,2.21,1.51,1.26,1.23,1.23,1.27
86.35,-0.97,-0.97,-2.20,-2.19,2.16,1.44,1.18,1.19,1.19,1.23
87.22,-0.92,-0.92,-2.11,-2.11,2.08,1.36,1.10,1.16,1.16,1.19
88.09,-0.84,-0.84,-1.99,-1.99,1.98,1.29,1.03,1.14,1.14,1.15
88.97,-0.74,-0.74,-1.86,-1.86,1.86,1.22,0.95,1.12,1.12,1.12
89.86,-0.64,-0.64,-1.72,-1.71,1.73,1.14,0.88,1.08,1.08,1.08
90.76,-0.54,-0.54,-1.56,-1.57,1.58,1.07,0.80,1.04,1.04,1.02
91.66,-0.44,-0.44,-1.43,-1.43,1.44,1.00,0.73,1.00,1.00,0.99
92.58,-0.35,-0.35,-1.29,-1.29,1.31,0.92,0.65,0.95,0.96,0.94
93.51,-0.26,-0.26,-1.16,-1.17,1.18,0.85,0.58,0.91,0.91,0.90
94.44,-0.19,-0.19,-1.05,-1.05,1.05,0.78,0.51,0.86,0.87,0.86
95.39,-0.12,-0.13,-0.94,-0.94,0.94,0.70,0.44,0.82,0.81,0.82
96.34,-0.08,-0.08,-0.84,-0.84,0.84,0.63,0.37,0.76,0.76,0.76
97.30,-0.03,-0.03,-0.75,-0.74,0.74,0.56,0.30,0.71,0.71,0.72
98.28,0.02,0.02,-0.65,-0.65,0.65,0.48,0.23,0.67,0.67,0.67
99.26,0.06,0.06,-0.57,-0.56,0.57,0.41,0.16,0.63,0.63,0.62
100.25,0.10,0.09,-0.48,-0.49,0.49,0.34,0.09,0.58,0.58,0.58
101.25,0.12,0.12,-0.41,-0.41,0.41,0.27,0.02,0.53,0.53,0.53
102.27,0.15,0.15,-0.34,-0.33,0.33,0.20,-0.04,0.48,0.48,0.49
103.29,0.18,0.17,-0.25,-0.27,0.26,0.12,-0.11,0.44,0.43,0.43
104.32,0.19,0.20,-0.20,-0.19,0.19,0.05,-0.17,0.38,0.39,0.39
105.37,0.22,0.22,-0.13,-0.12,0.13,-0.02,-0.24,0.35,0.35,0.35
106.42,0.25,0.24,-0.05,-0.06,0.06,-0.08,-0.30,0.31,0.30,0.30
107.48,0.26,0.26,0.00,0.00,-0.00,-0.15,-0.36,0.26,0.25,0.25
108.56,0.26,0.27,0.06,0.07,-0.07,-0.22,-0.42,0.19,0.20,0.20
109.64,0.28,0.28,0.13,0.13,-0.13,-0.29,-0.48,0.15,0.15,0.15
110.74,0.30,0.30,0.19,0.19,-0.19,-0.35,-0.53,0.10,0.10,0.11
111.85,0.32,0.32,0.26,0.26,-0.26,-0.42,-0.59,0.06,0.06,0.06
112.97,0.33,0.33,0.33,0.33,-0.33,-0.48,-0.64,0.00,0.00,-0.00
114.10,0.34,0.34,0.39,0.39,-0.40,-0.55,-0.70,-0.06,-0.05,-0.05
115.24,0.36,0.35,0.46,0.46,-0.47,-0.61,-0.74,-0.11,-0.11,-0.10
116.39,0.36,0.36,0.52,0.52,-0.53,-0.67,-0.79,-0.17,-0.17,-0.16
117.55,0.37,0.38,0.58,0.59,-0.59,-0.73,-0.84,-0.23,-0.21,-0.21
118.73,0.40,0.41,0.67,0.67,-0.65,-0.79,-0.88,-0.25,-0.25,-0.27
119.92,0.44,0.42,0.75,0.73,-0.71,-0.85,-0.92,-0.27,-0.29,-0.31
121.12,0.43,0.41,0.79,0.78,-0.76,-0.91,-0.96,-0.33,-0.35,-0.36
122.33,0.37,0.40,0.78,0.81,-0.81,-0.97,-1.00,-0.44,-0.41,-0.42
123.55,0.38,0.38,0.84,0.84,-0.86,-1.02,-1.03,-0.48,-0.48,-0.46
124.79,0.39,0.38,0.90,0.89,-0.91,-1.08,-1.06,-0.52,-0.53,-0.51
126.03,0.39,0.39,0.95,0.95,-0.96,-1.13,-1.10,-0.57,-0.56,-0.56
127.29,0.39,0.39,1.00,1.01,-1.00,-1.18,-1.12,-0.61,-0.61,-0.61
128.57,0.40,0.39,1.07,1.06,-1.05,-1.23,-1.15,-0.65,-0.66,-0.67
129.85,0.39,0.39,1.11,1.11,-1.10,-1.28,-1.17,-0.71,-0.71,-0.72
131.15,0.39,0.39,1.15,1.15,-1.15,-1.33,-1.19,-0.76,-0.76,-0.76
132.46,0.39,0.38,1.20,1.20,-1.20,-1.37,-1.21,-0.81,-0.81,-0.81
133.79,0.38,0.38,1.23,1.24,-1.24,-1.42,-1.23,-0.86,-0.86,-0.85
135.12,0.38,0.38,1.28,1.28,-1.28,-1.46,-1.24,-0.90,-0.90,-0.90
136.48,0.38,0.38,1.32,1.32,-1.32,-1.51,-1.26,-0.95,-0.95,-0.94
137.84,0.38,0.38,1.36,1.37,-1.36,-1.55,-1.27,-0.99,-0.99,-0.98
139.22,0.37,0.37,1.41,1.40,-1.40,-1.59,-1.28,-1.03,-1.03,-1.04
140.61,0.37,0.37,1.45,1.44,-1.44,-1.63,-1.29,-1.07,-1.07,-1.08
142.02,0.37,0.37,1.47,1.48,-1.48,-1.66,-1.30,-1.11,-1.11,-1.10
143.44,0.37,0.37,1.51,1.51,-1.51,-1.70,-1.31,-1.14,-1.14,-1.14
144.87,0.36,0.36,1.54,1.54,-1.54,-1.74,-1.32,-1.18,-1.18,-1.18
146.32,0.35,0.35,1.57,1.57,-1.57,-1.77,-1.32,-1.22,-1.22,-1.22
147.78,0.35,0.34,1.60,1.60,-1.60,-1.80,-1.33,-1.25,-1.26,-1.25
149.26,0.34,0.34,1.63,1.63,-1.64,-1.83,-1.34,-1.30,-1.30,-1.29
150.75,0.33,0.33,1.67,1.67,-1.67,-1.86,-1.35,-1.34,-1.34,-1.34
152.26,0.33,0.33,1.70,1.70,-1.71,-1.89,-1.35,-1.38,-1.38,-1.37
153.78,0.33,0.33,1.74,1.74,-1.74,-1.92,-1.36,-1.41,-1.41,-1.41
155.32,0.33,0.33,1.78,1.78,-1.78,-1.94,-1.37,-1.45,-1.45,-1.45
156.88,0.34,0.33,1.83,1.82,-1.82,-1.97,-1.38,-1.48,-1.48,-1.49
158.44,0.33,0.32,1.86,1.86,-1.85,-1.99,-1.39,-1.52,-1.53,-1.53
160.03,0.31,0.31,1.88,1.89,-1.89,-2.02,-1.40,-1.58,-1.57,-1.57
161.63,0.30,0.30,1.91,1.92,-1.92,-2.04,-1.41,-1.62,-1.62,-1.61
163.24,0.30,0.30,1.95,1.95,-1.95,-2.06,-1.42,-1.65,-1.65,-1.66
164.88,0.30,0.29,1.98,1.98,-1.98,-2.08,-1.44,-1.68,-1.69,-1.69
166.53,0.28,0.28,2.00,2.01,-2.01,-2.10,-1.45,-1.73,-1.72,-1.72
168.19,0.27,0.27,2.03,2.03,-2.03,-2.11,-1.47,-1.76,-1.76,-1.76
169.87,0.26,0.26,2.06,2.06,-2.06,-2.13,-1.49,-1.80,-1.80,-1.80
171.57,0.25,0.25,2.09,2.09,-2.09,-2.15,-1.50,-1.84,-1.84,-1.84
173.29,0.24,0.24,2.11,2.11,-2.11,-2.16,-1.52,-1.87,-1.87,-1.87
175.02,0.22,0.22,2.13,2.13,-2.14,-2.18,-1.54,-1.92,-1.91,-1.91
176.77,0.21,0.21,2.16,2.16,-2.16,-2.19,-1.57,-1.95,-1.95,-1.95
178.54,0.19,0.19,2.19,2.18,-2.18,-2.20,-1.59,-1.99,-1.99,-2.00
180.32,0.18,0.18,2.21,2.21,-2.21,-2.21,-1.61,-2.03,-2.03,-2.03
182.13,0.16,0.16,2.22,2.23,-2.23,-2.22,-1.64,-2.07,-2.07,-2.06
183.95,0.15,0.15,2.25,2.25,-2.25,-2.24,-1.67,-2.10,-2.10,-2.11
185.79,0.14,0.13,2.28,2.27,-2.27,-2.25,-1.70,-2.14,-2.14,-2.14
187.65,0.12,0.12,2.30,2.30,-2.30,-2.26,-1.73,-2.18,-2.17,-2.18
189.52,0.11,0.11,2.32,2.32,-2.32,-2.26,-1.76,-2.21,-2.21,-2.21
191.42,0.10,0.10,2.34,2.34,-2.34,-2.27,-1.79,-2.24,-2.24,-2.24
193.33,0.09,0.09,2.36,2.36,-2.36,-2.28,-1.82,-2.27,-2.27,-2.27
195.27,0.08,0.08,2.37,2.37,-2.38,-2.29,-1.85,-2.30,-2.30,-2.29
197.22,0.07,0.07,2.39,2.39,-2.39,-2.29,-1.89,-2.32,-2.32,-2.32
199.19,0.05,0.06,2.41,2.41,-2.41,-2.30,-1.93,-2.36,-2.35,-2.36
201.18,0.05,0.05,2.42,2.42,-2.42,-2.31,-1.96,-2.37,-2.37,-2.38
203.19,0.04,0.03,2.43,2.43,-2.43,-2.31,-2.00,-2.39,-2.39,-2.39
205.23,0.02,0.02,2.44,2.43,-2.44,-2.31,-2.03,-2.42,-2.41,-2.42
207.28,0.01,0.01,2.43,2.44,-2.45,-2.32,-2.07,-2.44,-2.44,-2.42
209.35,-0.00,-0.00,2.45,2.45,-2.45,-2.32,-2.11,-2.45,-2.45,-2.45
211.44,-0.01,-0.01,2.46,2.45,-2.45,-2.32,-2.15,-2.46,-2.46,-2.47
213.56,-0.02,-0.02,2.45,2.45,-2.45,-2.32,-2.18,-2.47,-2.47,-2.47
215.69,-0.03,-0.03,2.45,2.45,-2.45,-2.32,-2.22,-2.48,-2.48,-2.48
217.85,-0.05,-0.05,2.44,2.44,-2.44,-2.32,-2.25,-2.49,-2.49,-2.49
220.03,-0.07,-0.07,2.43,2.43,-2.43,-2.32,-2.28,-2.51,-2.50,-2.50
222.23,-0.09,-0.09,2.42,2.42,-2.42,-2.31,-2.32,-2.51,-2.51,-2.52
224.45,-0.11,-0.11,2.40,2.40,-2.40,-2.31,-2.35,-2.51,-2.51,-2.51
226.70,-0.13,-0.13,2.38,2.38,-2.37,-2.30,-2.37,-2.50,-2.50,-2.51
228.96,-0.15,-0.16,2.36,2.35,-2.34,-2.29,-2.40,-2.49,-2.49,-2.51
231.25,-0.19,-0.19,2.31,2.31,-2.30,-2.28,-2.42,-2.49,-2.49,-2.50
233.57,-0.23,-0.23,2.27,2.27,-2.26,-2.26,-2.44,-2.49,-2.49,-2.50
235.90,-0.28,-0.28,2.22,2.22,-2.22,-2.25,-2.46,-2.50,-2.50,-2.50
238.26,-0.33,-0.33,2.17,2.17,-2.18,-2.23,-2.48,-2.51,-2.50,-2.50
240.64,-0.37,-0.37,2.12,2.12,-2.14,-2.21,-2.49,-2.51,-2.50,-2.49
243.05,-0.39,-0.39,2.08,2.08,-2.10,-2.19,-2.50,-2.49,-2.49,-2.48
245.48,-0.40,-0.40,2.06,2.06,-2.07,-2.16,-2.50,-2.47,-2.47,-2.46
247.93,-0.41,-0.41,2.04,2.05,-2.05,-2.14,-2.50,-2.46,-2.45,-2.45
250.41,-0.41,-0.41,2.04,2.03,-2.02,-2.11,-2.50,-2.44,-2.44,-2.45
252.92,-0.41,-0.42,2.02,2.01,-2.01,-2.08,-2.49,-2.42,-2.42,-2.43
255.45,-0.42,-0.42,1.98,1.99,-1.99,-2.05,-2.48,-2.41,-2.41,-2.41
258.00,-0.42,-0.42,1.97,1.97,-1.97,-2.02,-2.46,-2.39,-2.39,-2.39
260.58,-0.42,-0.42,1.96,1.95,-1.95,-1.99,-2.45,-2.37,-2.38,-2.38
263.19,-0.42,-0.42,1.93,1.94,-1.93,-1.95,-2.42,-2.35,-2.35,-2.36
265.82,-0.43,-0.43,1.91,1.91,-1.91,-1.92,-2.40,-2.34,-2.33,-2.34
268.48,-0.43,-0.43,1.89,1.89,-1.88,-1.88,-2.37,-2.31,-2.31,-2.32
271.16,-0.44,-0.44,1.85,1.85,-1.86,-1.85,-2.34,-2.30,-2.30,-2.29
273.87,-0.45,-0.45,1.83,1.82,-1.83,-1.81,-2.30,-2.28,-2.28,-2.28
276.61,-0.47,-0.46,1.78,1.80,-1.80,-1.77,-2.27,-2.28,-2.27,-2.25
279.38,-0.46,-0.47,1.78,1.77,-1.78,-1.74,-2.23,-2.24,-2.24,-2.24
282.17,-0.47,-0.47,1.75,1.75,-1.75,-1.70,-2.19,-2.22,-2.22,-2.23
284.99,-0.47,-0.48,1.73,1.73,-1.72,-1.66,-2.14,-2.19,-2.19,-2.20
287.84,-0.49,-0.49,1.69,1.69,-1.69,-1.63,-2.10,-2.18,-2.18,-2.18
290.72,-0.51,-0.51,1.65,1.66,-1.66,-1.59,-2.05,-2.17,-2.16,-2.16
293.63,-0.52,-0.52,1.62,1.62,-1.63,-1.55,-2.01,-2.15,-2.15,-2.14
296.57,-0.53,-0.53,1.59,1.59,-1.59,-1.52,-1.96,-2.13,-2.13,-2.12
299.53,-0.55,-0.54,1.55,1.56,-1.56,-1.48,-1.91,-2.11,-2.10,-2.10
302.53,-0.55,-0.55,1.54,1.53,-1.52,-1.44,-1.86,-2.07,-2.07,-2.09
305.55,-0.56,-0.57,1.49,1.49,-1.48,-1.41,-1.81,-2.04,-2.05,-2.05
308.61,-0.59,-0.59,1.44,1.45,-1.44,-1.37,-1.76,-2.03,-2.02,-2.03
311.69,-0.61,-0.61,1.40,1.39,-1.39,-1.34,-1.71,-2.01,-2.00,-2.01
314.81,-0.63,-0.64,1.34,1.34,-1.35,-1.30,-1.67,-1.98,-1.99,-1.97
317.96,-0.66,-0.66,1.29,1.30,-1.30,-1.27,-1.62,-1.97,-1.96,-1.95
321.14,-0.68,-0.68,1.26,1.25,-1.26,-1.24,-1.57,-1.94,-1.94,-1.94
324.35,-0.70,-0.71,1.22,1.21,-1.21,-1.20,-1.52,-1.91,-1.92,-1.92
327.59,-0.73,-0.73,1.16,1.17,-1.17,-1.17,-1.47,-1.90,-1.89,-1.89
330.87,-0.75,-0.75,1.13,1.13,-1.12,-1.14,-1.43,-1.87,-1.87,-1.88
334.18,-0.77,-0.78,1.09,1.08,-1.08,-1.10,-1.38,-1.85,-1.85,-1.86
337.52,-0.80,-0.80,1.04,1.04,-1.04,-1.07,-1.33,-1.84,-1.84,-1.84
340.90,-0.83,-0.83,0.98,0.99,-0.99,-1.04,-1.29,-1.82,-1.82,-1.81
344.30,-0.85,-0.85,0.95,0.95,-0.95,-1.01,-1.25,-1.80,-1.80,-1.80
347.75,-0.87,-0.87,0.91,0.90,-0.91,-0.98,-1.20,-1.78,-1.78,-1.78
351.23,-0.89,-0.89,0.87,0.87,-0.87,-0.95,-1.16,-1.76,-1.76,-1.76
354.74,-0.91,-0.91,0.83,0.84,-0.83,-0.92,-1.12,-1.74,-1.74,-1.74
358.28,-0.92,-0.93,0.80,0.80,-0.80,-0.89,-1.08,-1.72,-1.72,-1.73
361.87,-0.94,-0.95,0.77,0.76,-0.77,-0.86,-1.04,-1.71,-1.71,-1.71
365.49,-0.97,-0.96,0.72,0.73,-0.74,-0.83,-1.00,-1.71,-1.70,-1.69
369.14,-0.97,-0.97,0.71,0.71,-0.72,-0.80,-0.97,-1.69,-1.69,-1.68
372.83,-0.96,-0.96,0.70,0.70,-0.70,-0.77,-0.93,-1.67,-1.67,-1.66
376.56,-0.95,-0.95,0.70,0.69,-0.69,-0.75,-0.89,-1.64,-1.64,-1.65
380.33,-0.95,-0.95,0.68,0.68,-0.67,-0.72,-0.86,-1.62,-1.62,-1.63
384.13,-0.95,-0.95,0.67,0.67,-0.66,-0.70,-0.82,-1.61,-1.61,-1.62
387.97,-0.96,-0.96,0.65,0.65,-0.64,-0.67,-0.79,-1.60,-1.60,-1.61
391.85,-0.97,-0.97,0.63,0.63,-0.63,-0.65,-0.76,-1.60,-1.59,-1.60
395.77,-0.98,-0.98,0.60,0.61,-0.61,-0.63,-0.73,-1.59,-1.59,-1.58
399.73,-0.98,-0.99,0.59,0.59,-0.59,-0.61,-0.70,-1.57,-1.58,-1.57
403.72,-1.00,-1.00,0.56,0.57,-0.57,-0.58,-0.67,-1.57,-1.57,-1.57
407.76,-1.00,-1.00,0.56,0.55,-0.56,-0.56,-0.64,-1.56,-1.56,-1.56
411.84,-1.00,-1.00,0.54,0.54,-0.54,-0.55,-0.61,-1.54,-1.55,-1.54
415.96,-1.00,-1.00,0.53,0.53,-0.53,-0.53,-0.58,-1.53,-1.53,-1.53
420.12,-0.99,-0.99,0.53,0.52,-0.52,-0.51,-0.56,-1.51,-1.52,-1.52
424.32,-0.99,-0.99,0.52,0.52,-0.52,-0.49,-0.53,-1.51,-1.51,-1.51
428.56,-0.99,-0.99,0.51,0.51,-0.51,-0.48,-0.51,-1.50,-1.50,-1.50
432.85,-0.99,-0.99,0.50,0.50,-0.50,-0.46,-0.49,-1.50,-1.49,-1.49
437.18,-0.98,-0.98,0.50,0.50,-0.50,-0.45,-0.46,-1.48,-1.48,-1.48
441.55,-0.98,-0.98,0.48,0.49,-0.49,-0.44,-0.44,-1.48,-1.47,-1.47
445.96,-0.97,-0.97,0.49,0.49,-0.49,-0.43,-0.42,-1.46,-1.46,-1.46
450.42,-0.96,-0.96,0.49,0.48,-0.48,-0.42,-0.40,-1.44,-1.44,-1.45
454.93,-0.95,-0.95,0.48,0.48,-0.47,-0.40,-0.38,-1.42,-1.42,-1.43
459.48,-0.94,-0.95,0.48,0.47,-0.47,-0.40,-0.37,-1.41,-1.41,-1.42
464.07,-0.94,-0.94,0.46,0.46,-0.46,-0.39,-0.35,-1.40,-1.40,-1.40
468.71,-0.95,-0.94,0.43,0.44,-0.45,-0.38,-0.33,-1.40,-1.39,-1.38
473.40,-0.93,-0.93,0.44,0.43,-0.44,-0.37,-0.32,-1.37,-1.37,-1.37
478.13,-0.92,-0.93,0.43,0.43,-0.43,-0.36,-0.31,-1.35,-1.36,-1.35
