frequency,raw,error,smoothed,error_smoothed,equalization,parametric_eq,fixed_band_eq,equalized_raw,equalized_smoothed,target
20.00,6.73,1.67,6.73,1.66,-1.67,-1.87,-0.36,5.06,5.06,5.07
20.20,6.73,1.67,6.73,1.67,-1.67,-1.85,-0.36,5.06,5.06,5.07
20.40,6.73,1.67,6.74,1.67,-1.67,-1.83,-0.37,5.06,5.07,5.07
20.61,6.73,1.67,6.73,1.67,-1.67,-1.81,-0.38,5.07,5.07,5.07
20.81,6.73,1.68,6.73,1.67,-1.66,-1.79,-0.39,5.07,5.07,5.05
21.02,6.72,1.67,6.72,1.66,-1.66,-1.77,-0.40,5.06,5.06,5.05
21.23,6.70,1.65,6.71,1.65,-1.65,-1.75,-0.41,5.05,5.06,5.05
21.44,6.69,1.63,6.69,1.64,-1.64,-1.73,-0.42,5.05,5.05,5.06
21.66,6.68,1.63,6.68,1.63,-1.63,-1.71,-0.43,5.05,5.05,5.05
21.87,6.67,1.62,6.67,1.62,-1.62,-1.68,-0.44,5.05,5.05,5.05
22.09,6.65,1.61,6.65,1.61,-1.60,-1.66,-0.44,5.05,5.05,5.04
22.31,6.63,1.59,6.63,1.59,-1.59,-1.64,-0.45,5.04,5.04,5.04
22.54,6.61,1.58,6.61,1.58,-1.58,-1.62,-0.47,5.04,5.04,5.03
22.76,6.59,1.56,6.59,1.56,-1.56,-1.59,-0.48,5.03,5.03,5.03
22.99,6.57,1.54,6.57,1.55,-1.55,-1.57,-0.49,5.02,5.02,5.03
23.22,6.55,1.53,6.55,1.53,-1.53,-1.55,-0.50,5.02,5.02,5.02
23.45,6.53,1.51,6.53,1.52,-1.52,-1.52,-0.51,5.01,5.01,5.02
23.69,6.51,1.50,6.51,1.51,-1.50,-1.50,-0.52,5.01,5.01,5.01
23.92,6.49,1.49,6.49,1.49,-1.48,-1.48,-0.53,5.01,5.01,5.00
24.16,6.47,1.47,6.47,1.47,-1.46,-1.45,-0.54,5.01,5.00,5.00
24.40,6.43,1.44,6.44,1.44,-1.44,-1.43,-0.56,4.99,4.99,5.00
24.65,6.41,1.42,6.41,1.42,-1.42,-1.40,-0.57,4.99,4.99,5.00
24.89,6.39,1.40,6.39,1.39,-1.40,-1.38,-0.58,4.99,4.99,5.00
25.14,6.37,1.38,6.37,1.38,-1.38,-1.36,-0.60,4.99,4.99,4.99
25.39,6.34,1.36,6.35,1.36,-1.36,-1.33,-0.61,4.99,4.99,4.98
25.65,6.32,1.34,6.32,1.34,-1.33,-1.31,-0.63,4.99,4.99,4.98
25.91,6.30,1.32,6.30,1.31,-1.31,-1.28,-0.64,4.99,4.99,4.98
26.16,6.27,1.28,6.28,1.29,-1.29,-1.26,-0.66,4.98,4.99,4.99
26.43,6.25,1.26,6.25,1.26,-1.27,-1.24,-0.67,4.99,4.99,4.99
26.69,6.23,1.24,6.23,1.24,-1.24,-1.21,-0.69,4.99,4.99,4.99
26.96,6.21,1.22,6.21,1.22,-1.22,-1.19,-0.70,4.99,4.99,4.99
27.23,6.19,1.21,6.19,1.20,-1.20,-1.17,-0.72,4.99,4.99,4.99
27.50,6.16,1.18,6.17,1.18,-1.18,-1.14,-0.74,4.99,4.99,4.99
27.77,6.14,1.15,6.14,1.15,-1.15,-1.12,-0.76,4.99,4.99,4.99
28.05,6.12,1.14,6.12,1.13,-1.13,-1.10,-0.77,4.99,4.99,4.98
28.33,6.09,1.11,6.10,1.11,-1.11,-1.08,-0.79,4.98,4.98,4.98
28.62,6.07,1.10,6.07,1.09,-1.09,-1.06,-0.81,4.98,4.98,4.97
28.90,6.04,1.06,6.04,1.07,-1.07,-1.04,-0.83,4.97,4.97,4.98
29.19,6.02,1.05,6.02,1.06,-1.06,-1.02,-0.85,4.96,4.97,4.97
29.48,6.00,1.05,6.00,1.04,-1.04,-1.00,-0.87,4.96,4.96,4.96
29.78,5.98,1.03,5.98,1.03,-1.03,-0.98,-0.90,4.96,4.96,4.96
30.08,5.96,1.01,5.96,1.01,-1.01,-0.96,-0.92,4.95,4.95,4.95
30.38,5.94,1.00,5.94,1.00,-1.00,-0.95,-0.94,4.95,4.95,4.94
30.68,5.92,0.98,5.92,0.98,-0.98,-0.93,-0.97,4.94,4.94,4.94
30.99,5.90,0.96,5.90,0.97,-0.97,-0.92,-0.99,4.94,4.94,4.94
31.30,5.88,0.95,5.89,0.95,-0.95,-0.91,-1.02,4.93,4.94,4.94
31.61,5.87,0.94,5.87,0.93,-0.93,-0.90,-1.04,4.94,4.94,4.93
31.93,5.85,0.92,5.85,0.92,-0.91,-0.89,-1.07,4.94,4.94,4.93
32.24,5.83,0.89,5.84,0.90,-0.90,-0.88,-1.10,4.93,4.94,4.94
32.57,5.82,0.89,5.82,0.88,-0.88,-0.87,-1.13,4.94,4.94,4.93
32.89,5.80,0.87,5.80,0.87,-0.87,-0.87,-1.15,4.93,4.93,4.94
33.22,5.79,0.86,5.79,0.86,-0.86,-0.86,-1.19,4.93,4.93,4.93
33.55,5.77,0.84,5.78,0.85,-0.85,-0.86,-1.22,4.92,4.92,4.93
33.89,5.77,0.85,5.77,0.85,-0.85,-0.86,-1.25,4.92,4.92,4.92
34.23,5.76,0.86,5.76,0.85,-0.85,-0.87,-1.28,4.91,4.91,4.91
34.57,5.75,0.85,5.76,0.86,-0.85,-0.87,-1.32,4.90,4.90,4.90
34.92,5.75,0.87,5.75,0.86,-0.86,-0.88,-1.35,4.89,4.89,4.88
35.27,5.74,0.87,5.74,0.88,-0.88,-0.89,-1.39,4.87,4.87,4.88
35.62,5.74,0.90,5.74,0.89,-0.89,-0.90,-1.42,4.85,4.85,4.84
35.97,5.74,0.91,5.74,0.91,-0.92,-0.92,-1.46,4.83,4.83,4.83
36.33,5.74,0.94,5.74,0.94,-0.94,-0.93,-1.50,4.80,4.80,4.81
36.70,5.74,0.97,5.74,0.97,-0.97,-0.95,-1.54,4.77,4.77,4.77
37.06,5.75,1.00,5.75,1.00,-1.00,-0.98,-1.59,4.75,4.75,4.75
37.43,5.75,1.04,5.76,1.04,-1.04,-1.00,-1.63,4.72,4.72,4.72
37.81,5.77,1.08,5.77,1.08,-1.07,-1.03,-1.67,4.70,4.69,4.69
38.19,5.77,1.11,5.77,1.11,-1.11,-1.06,-1.72,4.66,4.66,4.66
38.57,5.78,1.15,5.79,1.15,-1.15,-1.09,-1.77,4.63,4.63,4.63
38.95,5.80,1.19,5.80,1.19,-1.19,-1.13,-1.82,4.61,4.60,4.61
39.34,5.81,1.24,5.82,1.24,-1.24,-1.17,-1.87,4.58,4.58,4.57
39.74,5.83,1.28,5.83,1.28,-1.28,-1.21,-1.92,4.55,4.55,4.55
40.14,5.85,1.33,5.85,1.32,-1.32,-1.25,-1.97,4.53,4.53,4.53
40.54,5.86,1.35,5.87,1.36,-1.36,-1.30,-2.03,4.50,4.50,4.51
40.94,5.89,1.41,5.89,1.41,-1.41,-1.35,-2.08,4.48,4.48,4.48
41.35,5.92,1.46,5.92,1.46,-1.46,-1.40,-2.14,4.46,4.46,4.46
41.76,5.94,1.51,5.94,1.51,-1.51,-1.46,-2.20,4.44,4.44,4.43
42.18,5.97,1.55,5.97,1.55,-1.56,-1.52,-2.27,4.42,4.42,4.43
42.60,6.00,1.60,6.00,1.61,-1.61,-1.58,-2.33,4.40,4.40,4.40
43.03,6.04,1.67,6.04,1.66,-1.66,-1.64,-2.39,4.38,4.38,4.37
43.46,6.07,1.72,6.07,1.72,-1.71,-1.71,-2.46,4.36,4.36,4.36
43.90,6.11,1.77,6.11,1.77,-1.77,-1.77,-2.53,4.34,4.34,4.34
44.33,6.14,1.83,6.14,1.83,-1.83,-1.84,-2.60,4.31,4.32,4.31
44.78,6.18,1.89,6.18,1.88,-1.89,-1.92,-2.67,4.29,4.29,4.30
45.23,6.22,1.93,6.23,1.95,-1.96,-1.99,-2.75,4.27,4.27,4.29
45.68,6.27,2.02,6.27,2.02,-2.02,-2.07,-2.83,4.25,4.25,4.25
46.13,6.32,2.11,6.32,2.10,-2.10,-2.15,-2.90,4.23,4.22,4.21
46.60,6.36,2.17,6.37,2.18,-2.17,-2.23,-2.98,4.19,4.19,4.19
47.06,6.41,2.25,6.41,2.25,-2.25,-2.31,-3.06,4.16,4.16,4.16
47.53,6.46,2.33,6.46,2.33,-2.34,-2.40,-3.15,4.13,4.12,4.13
48.01,6.51,2.43,6.51,2.42,-2.42,-2.48,-3.23,4.09,4.09,4.08
48.49,6.56,2.51,6.56,2.51,-2.51,-2.57,-3.32,4.05,4.05,4.05
48.97,6.61,2.60,6.62,2.60,-2.60,-2.66,-3.41,4.01,4.01,4.01
49.46,6.67,2.69,6.67,2.70,-2.70,-2.75,-3.50,3.98,3.97,3.98
49.96,6.72,2.80,6.72,2.79,-2.79,-2.84,-3.59,3.93,3.93,3.92
50.46,6.77,2.88,6.78,2.89,-2.89,-2.93,-3.68,3.88,3.89,3.89
50.96,6.83,2.99,6.83,2.99,-2.98,-3.03,-3.77,3.85,3.85,3.85
51.47,6.89,3.08,6.89,3.08,-3.08,-3.12,-3.87,3.81,3.81,3.81
51.99,6.96,3.19,6.96,3.18,-3.18,-3.22,-3.96,3.78,3.78,3.77
52.51,7.02,3.28,7.02,3.28,-3.28,-3.31,-4.05,3.74,3.74,3.74
53.03,7.08,3.37,7.08,3.38,-3.38,-3.41,-4.15,3.70,3.70,3.71
53.56,7.14,3.47,7.14,3.48,-3.48,-3.51,-4.24,3.66,3.66,3.67
54.10,7.21,3.59,7.21,3.58,-3.58,-3.60,-4.33,3.63,3.62,3.62
54.64,7.26,3.67,7.27,3.69,-3.68,-3.70,-4.42,3.58,3.59,3.59
55.18,7.33,3.79,7.33,3.79,-3.78,-3.80,-4.51,3.55,3.55,3.54
55.74,7.39,3.89,7.39,3.88,-3.88,-3.90,-4.60,3.51,3.51,3.50
56.29,7.45,3.98,7.45,3.98,-3.97,-4.00,-4.69,3.48,3.48,3.48
56.86,7.50,4.05,7.51,4.07,-4.06,-4.10,-4.77,3.44,3.44,3.45
57.42,7.57,4.17,7.57,4.16,-4.16,-4.20,-4.86,3.42,3.41,3.40
58.00,7.63,4.26,7.63,4.25,-4.25,-4.30,-4.93,3.39,3.38,3.37
58.58,7.69,4.34,7.69,4.34,-4.34,-4.40,-5.01,3.35,3.35,3.35
59.16,7.74,4.42,7.75,4.43,-4.44,-4.50,-5.08,3.31,3.31,3.32
59.76,7.81,4.52,7.81,4.52,-4.54,-4.60,-5.15,3.27,3.27,3.29
60.35,7.87,4.63,7.87,4.63,-4.64,-4.69,-5.21,3.23,3.23,3.24
60.96,7.94,4.74,7.94,4.75,-4.75,-4.79,-5.27,3.19,3.19,3.20
61.57,8.00,4.87,8.00,4.86,-4.86,-4.89,-5.32,3.14,3.14,3.14
62.18,8.06,4.98,8.07,4.98,-4.98,-4.99,-5.37,3.09,3.09,3.08
62.80,8.13,5.10,8.13,5.10,-5.09,-5.09,-5.42,3.04,3.04,3.04
63.43,8.20,5.22,8.20,5.21,-5.20,-5.18,-5.46,3.00,3.00,2.98
64.07,8.26,5.32,8.26,5.32,-5.31,-5.28,-5.49,2.95,2.95,2.95
64.71,8.33,5.42,8.33,5.42,-5.42,-5.37,-5.53,2.92,2.91,2.91
65.35,8.38,5.51,8.39,5.52,-5.52,-5.47,-5.55,2.86,2.87,2.87
66.01,8.45,5.62,8.45,5.61,-5.62,-5.56,-5.58,2.83,2.83,2.83
66.67,8.51,5.71,8.51,5.71,-5.71,-5.66,-5.60,2.80,2.79,2.81
67.33,8.56,5.81,8.57,5.81,-5.81,-5.75,-5.61,2.75,2.76,2.76
68.01,8.62,5.91,8.62,5.91,-5.91,-5.84,-5.63,2.72,2.72,2.71
68.69,8.68,6.01,8.68,6.00,-6.00,-5.93,-5.64,2.68,2.68,2.67
69.37,8.74,6.10,8.74,6.10,-6.10,-6.02,-5.65,2.64,2.64,2.64
70.07,8.79,6.18,8.80,6.19,-6.19,-6.11,-5.66,2.60,2.60,2.61
70.77,8.85,6.29,8.85,6.29,-6.29,-6.20,-5.66,2.56,2.56,2.56
71.48,8.90,6.38,8.90,6.38,-6.38,-6.28,-5.67,2.52,2.52,2.52
72.19,8.95,6.48,8.95,6.48,-6.48,-6.37,-5.68,2.48,2.48,2.47
72.91,9.00,6.56,9.00,6.57,-6.57,-6.45,-5.68,2.44,2.44,2.44
73.64,9.05,6.66,9.05,6.66,-6.65,-6.54,-5.69,2.40,2.39,2.39
74.38,9.09,6.74,9.10,6.74,-6.74,-6.62,-5.70,2.35,2.36,2.35
75.12,9.14,6.83,9.14,6.83,-6.82,-6.70,-5.71,2.32,2.32,2.31
75.87,9.19,6.90,9.19,6.90,-6.90,-6.78,-5.72,2.29,2.29,2.29
76.63,9.23,6.98,9.23,6.98,-6.98,-6.86,-5.73,2.25,2.26,2.25
77.40,9.27,7.05,9.27,7.05,-7.05,-6.94,-5.75,2.22,2.22,2.22
78.17,9.31,7.13,9.31,7.12,-7.12,-7.01,-5.77,2.19,2.19,2.18
78.95,9.34,7.18,9.35,7.19,-7.19,-7.09,-5.79,2.15,2.16,2.17
79.74,9.39,7.26,9.39,7.26,-7.26,-7.16,-5.81,2.13,2.13,2.13
80.54,9.42,7.33,9.43,7.32,-7.32,-7.23,-5.84,2.10,2.10,2.10
81.35,9.46,7.39,9.46,7.39,-7.39,-7.30,-5.87,2.07,2.07,2.07
82.16,9.49,7.45,9.49,7.45,-7.45,-7.37,-5.91,2.04,2.04,2.04
82.98,9.51,7.50,9.52,7.51,-7.51,-7.44,-5.95,2.00,2.01,2.01
83.81,9.55,7.57,9.55,7.57,-7.57,-7.51,-5.99,1.98,1.98,1.98
84.65,9.58,7.64,9.58,7.63,-7.63,-7.57,-6.04,1.95,1.95,1.94
85.50,9.59,7.68,9.60,7.69,-7.68,-7.64,-6.09,1.91,1.92,1.91
86.35,9.62,7.73,9.62,7.73,-7.73,-7.70,-6.15,1.89,1.89,1.89
87.22,9.64,7.78,9.64,7.78,-7.78,-7.76,-6.21,1.86,1.86,1.86
88.09,9.66,7.83,9.66,7.83,-7.83,-7.81,-6.28,1.83,1.83,1.83
88.97,9.67,7.88,9.68,7.88,-7.88,-7.87,-6.35,1.79,1.80,1.80
89.86,9.69,7.93,9.69,7.93,-7.93,-7.93,-6.42,1.77,1.76,1.76
90.76,9.70,7.97,9.70,7.97,-7.97,-7.98,-6.50,1.73,1.73,1.73
91.66,9.71,8.02,9.71,8.02,-8.02,-8.03,-6.59,1.70,1.70,1.70
92.58,9.72,8.06,9.72,8.06,-8.06,-8.08,-6.68,1.66,1.66,1.66
93.51,9.73,8.11,9.73,8.10,-8.11,-8.13,-6.77,1.63,1.63,1.63
94.44,9.73,8.14,9.74,8.15,-8.15,-8.17,-6.87,1.58,1.59,1.59
95.39,9.74,8.20,9.74,8.19,-8.19,-8.22,-6.97,1.55,1.54,1.55
96.34,9.73,8.23,9.74,8.23,-8.24,-8.26,-7.08,1.49,1.50,1.50
97.30,9.73,8.27,9.73,8.28,-8.28,-8.30,-7.19,1.45,1.46,1.46
98.28,9.73,8.33,9.73,8.32,-8.32,-8.34,-7.31,1.41,1.41,1.41
99.26,9.72,8.36,9.72,8.36,-8.35,-8.38,-7.43,1.37,1.37,1.36
100.25,9.71,8.39,9.71,8.39,-8.39,-8.41,-7.55,1.33,1.33,1.32
101.25,9.70,8.42,9.70,8.42,-8.42,-8.44,-7.67,1.29,1.28,1.28
102.27,9.68,8.44,9.69,8.44,-8.44,-8.47,-7.80,1.24,1.25,1.25
103.29,9.67,8.46,9.67,8.46,-8.46,-8.50,-7.93,1.21,1.21,1.21
104.32,9.65,8.47,9.65,8.47,-8.48,-8.53,-8.06,1.18,1.18,1.18
105.37,9.63,8.49,9.63,8.49,-8.49,-8.55,-8.20,1.14,1.15,1.14
106.42,9.61,8.50,9.61,8.50,-8.50,-8.57,-8.33,1.11,1.11,1.11
107.48,9.58,8.51,9.58,8.51,-8.51,-8.59,-8.46,1.07,1.08,1.07
108.56,9.55,8.51,9.55,8.51,-8.51,-8.61,-8.60,1.04,1.04,1.04
109.64,9.52,8.51,9.52,8.52,-8.52,-8.63,-8.73,1.00,1.00,1.01
110.74,9.49,8.52,9.50,8.52,-8.52,-8.64,-8.85,0.97,0.97,0.97
111.85,9.47,8.54,9.47,8.53,-8.53,-8.65,-8.98,0.95,0.94,0.94
112.97,9.43,8.53,9.43,8.53,-8.53,-8.66,-9.09,0.90,0.90,0.90
114.10,9.39,8.53,9.39,8.53,-8.53,-8.67,-9.21,0.86,0.86,0.86
115.24,9.34,8.53,9.35,8.53,-8.53,-8.68,-9.31,0.81,0.81,0.82
116.39,9.30,8.54,9.30,8.53,-8.54,-8.68,-9.41,0.77,0.77,0.76
117.55,9.26,8.54,9.26,8.54,-8.54,-8.68,-9.49,0.73,0.72,0.73
118.73,9.21,8.54,9.21,8.54,-8.53,-8.68,-9.57,0.68,0.68,0.67
119.92,9.16,8.54,9.16,8.53,-8.53,-8.68,-9.63,0.63,0.63,0.63
121.12,9.11,8.52,9.11,8.53,-8.53,-8.67,-9.69,0.58,0.58,0.59
122.33,9.06,8.52,9.06,8.52,-8.52,-8.67,-9.72,0.54,0.54,0.54
123.55,9.01,8.52,9.01,8.51,-8.52,-8.66,-9.75,0.49,0.49,0.50
124.79,8.96,8.51,8.96,8.51,-8.51,-8.65,-9.76,0.45,0.45,0.45
126.03,8.90,8.50,8.90,8.50,-8.51,-8.64,-9.76,0.39,0.39,0.40
127.29,8.84,8.50,8.84,8.50,-8.50,-8.62,-9.74,0.34,0.34,0.34
128.57,8.78,8.49,8.78,8.49,-8.49,-8.60,-9.71,0.29,0.29,0.29
129.85,8.72,8.48,8.72,8.48,-8.48,-8.58,-9.66,0.24,0.24,0.24
131.15,8.66,8.47,8.66,8.47,-8.46,-8.57,-9.61,0.20,0.20,0.19
132.46,8.59,8.45,8.59,8.45,-8.44,-8.54,-9.54,0.15,0.15,0.14
133.79,8.52,8.42,8.52,8.42,-8.42,-8.52,-9.46,0.10,0.11,0.11
135.12,8.45,8.39,8.45,8.39,-8.39,-8.49,-9.37,0.06,0.06,0.06
136.48,8.38,8.35,8.38,8.35,-8.36,-8.47,-9.27,0.03,0.03,0.03
137.84,8.31,8.31,8.31,8.32,-8.32,-8.44,-9.16,-0.01,-0.01,-0.00
139.22,8.24,8.29,8.24,8.28,-8.28,-8.41,-9.05,-0.04,-0.04,-0.05
140.61,8.16,8.23,8.17,8.24,-8.24,-8.37,-8.93,-0.08,-0.07,-0.07
142.02,8.09,8.20,8.09,8.20,-8.19,-8.34,-8.81,-0.10,-0.10,-0.10
143.44,8.02,8.16,8.02,8.15,-8.15,-8.30,-8.69,-0.13,-0.13,-0.13
144.87,7.94,8.10,7.95,8.10,-8.11,-8.27,-8.56,-0.16,-0.16,-0.16
146.32,7.87,8.06,7.87,8.06,-8.06,-8.23,-8.43,-0.19,-0.19,-0.19
147.78,7.79,8.01,7.79,8.01,-8.01,-8.19,-8.30,-0.22,-0.22,-0.21
149.26,7.72,7.97,7.72,7.96,-7.96,-8.15,-8.17,-0.24,-0.24,-0.24
150.75,7.64,7.92,7.64,7.92,-7.91,-8.11,-8.04,-0.27,-0.27,-0.28
152.26,7.56,7.86,7.56,7.87,-7.86,-8.06,-7.91,-0.30,-0.30,-0.30
153.78,7.48,7.82,7.48,7.81,-7.82,-8.02,-7.79,-0.33,-0.33,-0.33
155.32,7.41,7.77,7.41,7.77,-7.77,-7.98,-7.67,-0.36,-0.36,-0.36
156.88,7.32,7.71,7.33,7.72,-7.72,-7.93,-7.55,-0.40,-0.39,-0.39
158.44,7.25,7.68,7.25,7.67,-7.68,-7.88,-7.43,-0.42,-0.43,-0.43
160.03,7.17,7.63,7.17,7.63,-7.63,-7.83,-7.32,-0.46,-0.46,-0.46
161.63,7.09,7.58,7.09,7.59,-7.59,-7.79,-7.21,-0.50,-0.50,-0.49
163.24,7.01,7.55,7.01,7.55,-7.54,-7.74,-7.10,-0.53,-0.53,-0.54
164.88,6.93,7.50,6.93,7.51,-7.50,-7.69,-7.01,-0.57,-0.57,-0.57
166.53,6.86,7.47,6.86,7.46,-7.46,-7.64,-6.91,-0.60,-0.61,-0.61
168.19,6.77,7.41,6.78,7.42,-7.42,-7.58,-6.82,-0.65,-0.64,-0.64
169.87,6.70,7.38,6.70,7.38,-7.38,-7.53,-6.73,-0.68,-0.68,-0.68
171.57,6.62,7.34,6.62,7.34,-7.34,-7.48,-6.65,-0.72,-0.72,-0.72
173.29,6.55,7.31,6.55,7.30,-7.30,-7.43,-6.57,-0.75,-0.75,-0.76
175.02,6.46,7.26,6.47,7.26,-7.26,-7.38,-6.50,-0.80,-0.79,-0.79
176.77,6.39,7.22,6.39,7.22,-7.22,-7.32,-6.43,-0.83,-0.83,-0.83
178.54,6.31,7.17,6.31,7.18,-7.18,-7.27,-6.37,-0.86,-0.86,-0.86
180.32,6.24,7.15,6.24,7.14,-7.13,-7.22,-6.31,-0.89,-0.90,-0.91
182.13,6.15,7.09,6.16,7.09,-7.09,-7.17,-6.26,-0.94,-0.94,-0.94
183.95,6.07,7.04,6.08,7.05,-7.05,-7.11,-6.21,-0.98,-0.97,-0.97
185.79,6.00,7.01,6.00,7.00,-7.01,-7.06,-6.17,-1.01,-1.01,-1.01
187.65,5.92,6.96,5.92,6.96,-6.97,-7.01,-6.13,-1.05,-1.05,-1.04
189.52,5.84,6.92,5.85,6.93,-6.93,-6.96,-6.09,-1.09,-1.08,-1.08
191.42,5.77,6.89,5.77,6.89,-6.89,-6.91,-6.06,-1.12,-1.12,-1.12
193.33,5.70,6.86,5.70,6.86,-6.86,-6.86,-6.04,-1.16,-1.16,-1.16
195.27,5.62,6.82,5.63,6.82,-6.82,-6.80,-6.01,-1.20,-1.19,-1.20
197.22,5.56,6.80,5.56,6.79,-6.78,-6.76,-5.99,-1.22,-1.23,-1.23
199.19,5.48,6.74,5.49,6.75,-6.74,-6.71,-5.98,-1.26,-1.26,-1.26
201.18,5.41,6.71,5.41,6.71,-6.70,-6.66,-5.96,-1.29,-1.29,-1.30
203.19,5.34,6.66,5.34,6.66,-6.66,-6.61,-5.95,-1.32,-1.32,-1.32
205.23,5.26,6.61,5.26,6.61,-6.61,-6.56,-5.95,-1.35,-1.35,-1.35
207.28,5.19,6.56,5.19,6.56,-6.57,-6.51,-5.94,-1.37,-1.38,-1.37
209.35,5.10,6.51,5.11,6.51,-6.52,-6.47,-5.94,-1.41,-1.41,-1.41
211.44,5.03,6.46,5.03,6.46,-6.47,-6.42,-5.93,-1.43,-1.43,-1.43
213.56,4.95,6.42,4.95,6.41,-6.41,-6.37,-5.93,-1.46,-1.46,-1.46
215.69,4.87,6.36,4.87,6.36,-6.36,-6.32,-5.93,-1.49,-1.48,-1.49
217.85,4.79,6.30,4.79,6.30,-6.30,-6.27,-5.93,-1.51,-1.51,-1.51
220.03,4.70,6.24,4.71,6.24,-6.24,-6.22,-5.93,-1.54,-1.53,-1.54
222.23,4.62,6.18,4.62,6.18,-6.18,-6.16,-5.93,-1.56,-1.56,-1.56
224.45,4.53,6.12,4.53,6.11,-6.11,-6.10,-5.93,-1.58,-1.58,-1.58
226.70,4.44,6.05,4.44,6.04,-6.05,-6.04,-5.93,-1.60,-1.60,-1.60
228.96,4.35,5.97,4.36,5.97,-5.98,-5.98,-5.92,-1.62,-1.62,-1.61
231.25,4.27,5.91,4.27,5.90,-5.91,-5.91,-5.91,-1.63,-1.64,-1.63
233.57,4.17,5.83,4.18,5.83,-5.83,-5.84,-5.90,-1.66,-1.66,-1.65
235.90,4.08,5.77,4.08,5.76,-5.76,-5.77,-5.89,-1.68,-1.68,-1.68
238.26,3.99,5.69,3.99,5.69,-5.69,-5.69,-5.87,-1.69,-1.69,-1.70
240.64,3.90,5.60,3.90,5.61,-5.61,-5.61,-5.84,-1.71,-1.71,-1.70
243.05,3.81,5.53,3.81,5.53,-5.53,-5.53,-5.82,-1.72,-1.72,-1.72
245.48,3.72,5.46,3.72,5.46,-5.45,-5.45,-5.79,-1.73,-1.73,-1.74
247.93,3.62,5.38,3.63,5.38,-5.37,-5.37,-5.75,-1.75,-1.74,-1.75
250.41,3.54,5.29,3.54,5.29,-5.29,-5.29,-5.71,-1.75,-1.75,-1.75
252.92,3.44,5.20,3.44,5.20,-5.21,-5.20,-5.66,-1.77,-1.77,-1.76
255.45,3.34,5.12,3.35,5.12,-5.13,-5.12,-5.61,-1.78,-1.78,-1.78
258.00,3.25,5.03,3.26,5.04,-5.04,-5.03,-5.55,-1.79,-1.79,-1.78
260.58,3.17,4.96,3.17,4.96,-4.96,-4.95,-5.49,-1.79,-1.79,-1.79
263.19,3.08,4.89,3.08,4.88,-4.88,-4.87,-5.43,-1.80,-1.80,-1.80
265.82,2.99,4.80,2.99,4.81,-4.80,-4.79,-5.35,-1.81,-1.81,-1.81
268.48,2.90,4.72,2.90,4.72,-4.72,-4.71,-5.28,-1.82,-1.82,-1.82
271.16,2.81,4.64,2.81,4.64,-4.64,-4.63,-5.20,-1.83,-1.83,-1.83
273.87,2.71,4.55,2.72,4.56,-4.56,-4.55,-5.12,-1.85,-1.84,-1.84
276.61,2.63,4.48,2.63,4.48,-4.48,-4.47,-5.03,-1.85,-1.85,-1.85
279.38,2.54,4.41,2.54,4.41,-4.40,-4.39,-4.95,-1.86,-1.86,-1.87
282.17,2.46,4.33,2.46,4.33,-4.32,-4.31,-4.86,-1.86,-1.87,-1.87
284.99,2.37,4.24,2.37,4.24,-4.25,-4.24,-4.76,-1.87,-1.87,-1.87
287.84,2.28,4.15,2.29,4.16,-4.17,-4.16,-4.67,-1.88,-1.88,-1.87
290.72,2.20,4.10,2.20,4.09,-4.09,-4.09,-4.58,-1.89,-1.89,-1.90
293.63,2.12,4.01,2.12,4.01,-4.01,-4.01,-4.48,-1.89,-1.89,-1.89
296.57,2.04,3.94,2.04,3.93,-3.93,-3.94,-4.38,-1.89,-1.89,-1.89
299.53,1.95,3.85,1.96,3.85,-3.85,-3.87,-4.29,-1.90,-1.90,-1.90
302.53,1.87,3.77,1.87,3.77,-3.78,-3.79,-4.19,-1.90,-1.90,-1.90
305.55,1.79,3.70,1.79,3.69,-3.70,-3.72,-4.10,-1.91,-1.91,-1.90
308.61,1.71,3.62,1.71,3.62,-3.62,-3.65,-4.00,-1.91,-1.91,-1.91
311.69,1.63,3.54,1.63,3.55,-3.55,-3.58,-3.91,-1.91,-1.91,-1.91
314.81,1.56,3.48,1.56,3.47,-3.47,-3.51,-3.81,-1.91,-1.91,-1.91
317.96,1.48,3.40,1.49,3.40,-3.39,-3.44,-3.72,-1.91,-1.91,-1.92
321.14,1.41,3.32,1.41,3.32,-3.32,-3.37,-3.63,-1.91,-1.91,-1.91
324.35,1.33,3.25,1.33,3.24,-3.25,-3.30,-3.54,-1.91,-1.92,-1.92
327.59,1.25,3.16,1.26,3.17,-3.17,-3.23,-3.46,-1.92,-1.92,-1.90
330.87,1.18,3.09,1.19,3.10,-3.10,-3.16,-3.37,-1.92,-1.92,-1.91
334.18,1.12,3.04,1.12,3.03,-3.03,-3.09,-3.29,-1.91,-1.91,-1.92
337.52,1.05,2.96,1.05,2.97,-2.96,-3.02,-3.21,-1.91,-1.91,-1.91
340.90,0.98,2.90,0.98,2.89,-2.89,-2.95,-3.13,-1.91,-1.91,-1.91
344.30,0.91,2.82,0.92,2.82,-2.82,-2.88,-3.05,-1.91,-1.91,-1.91
347.75,0.85,2.75,0.85,2.76,-2.76,-2.81,-2.98,-1.91,-1.91,-1.90
351.23,0.79,2.70,0.79,2.69,-2.69,-2.74,-2.90,-1.90,-1.90,-1.91
354.74,0.73,2.62,0.73,2.63,-2.63,-2.68,-2.83,-1.90,-1.90,-1.89
358.28,0.66,2.57,0.67,2.57,-2.57,-2.61,-2.77,-1.90,-1.90,-1.90
361.87,0.61,2.51,0.61,2.50,-2.51,-2.54,-2.70,-1.89,-1.90,-1.90
365.49,0.55,2.45,0.55,2.45,-2.45,-2.48,-2.63,-1.90,-1.89,-1.90
369.14,0.50,2.39,0.50,2.39,-2.39,-2.42,-2.57,-1.89,-1.89,-1.89
372.83,0.45,2.34,0.45,2.34,-2.34,-2.35,-2.51,-1.89,-1.89,-1.89
376.56,0.39,2.28,0.40,2.29,-2.29,-2.29,-2.45,-1.90,-1.89,-1.89
380.33,0.34,2.24,0.35,2.24,-2.24,-2.23,-2.40,-1.89,-1.89,-1.89
384.13,0.30,2.20,0.30,2.19,-2.19,-2.18,-2.34,-1.89,-1.89,-1.89
387.97,0.25,2.14,0.25,2.14,-2.14,-2.12,-2.29,-1.89,-1.89,-1.89
391.85,0.20,2.09,0.21,2.10,-2.09,-2.07,-2.24,-1.89,-1.89,-1.89
395.77,0.16,2.05,0.16,2.05,-2.05,-2.02,-2.19,-1.89,-1.89,-1.89
399.73,0.12,2.01,0.12,2.00,-2.01,-1.97,-2.14,-1.88,-1.89,-1.89
403.72,0.07,1.95,0.08,1.96,-1.96,-1.93,-2.09,-1.89,-1.89,-1.88
407.76,0.04,1.92,0.04,1.92,-1.92,-1.88,-2.05,-1.88,-1.88,-1.88
411.84,0.00,1.89,0.00,1.88,-1.88,-1.84,-2.01,-1.88,-1.88,-1.88
415.96,-0.03,1.85,-0.03,1.85,-1.84,-1.81,-1.96,-1.87,-1.88,-1.87
420.12,-0.08,1.81,-0.07,1.81,-1.81,-1.77,-1.92,-1.89,-1.88,-1.88
424.32,-0.11,1.78,-0.11,1.77,-1.78,-1.74,-1.88,-1.88,-1.88,-1.89
428.56,-0.14,1.74,-0.14,1.74,-1.74,-1.71,-1.85,-1.88,-1.89,-1.88
432.85,-0.17,1.71,-0.17,1.71,-1.71,-1.68,-1.81,-1.88,-1.88,-1.88
437.18,-0.21,1.68,-0.20,1.68,-1.68,-1.65,-1.77,-1.89,-1.89,-1.89
441.55,-0.23,1.66,-0.23,1.66,-1.66,-1.63,-1.74,-1.88,-1.89,-1.89
445.96,-0.26,1.63,-0.26,1.63,-1.63,-1.60,-1.70,-1.88,-1.89,-1.89
450.42,-0.29,1.60,-0.29,1.60,-1.60,-1.58,-1.67,-1.89,-1.89,-1.89
454.93,-0.32,1.57,-0.32,1.57,-1.57,-1.55,-1.64,-1.89,-1.89,-1.89
459.48,-0.35,1.54,-0.35,1.54,-1.54,-1.53,-1.60,-1.89,-1.89,-1.89
464.07,-0.37,1.51,-0.37,1.52,-1.52,-1.51,-1.57,-1.89,-1.89,-1.88
468.71,-0.40,1.49,-0.40,1.49,-1.49,-1.49,-1.54,-1.89,-1.89,-1.88
473.40,-0.42,1.47,-0.42,1.46,-1.47,-1.47,-1.51,-1.88,-1.88,-1.88
478.13,-0.45,1.44,-0.44,1.44,-1.44,-1.45,-1.48,-1.89,-1.88,-1.88
482.91,-0.46,1.43,-0.46,1.42,-1.42,-1.42,-1.45,-1.87,-1.88,-1.88
487.74,-0.49,1.39,-0.49,1.39,-1.39,-1.40,-1.42,-1.88,-1.88,-1.88
492.62,-0.51,1.37,-0.51,1.37,-1.37,-1.38,-1.39,-1.88,-1.87,-1.88
497.55,-0.53,1.35,-0.53,1.34,-1.34,-1.36,-1.36,-1.87,-1.87,-1.88
502.52,-0.55,1.33,-0.55,1.32,-1.32,-1.34,-1.33,-1.87,-1.87,-1.88
507.55,-0.58,1.29,-0.57,1.30,-1.30,-1.32,-1.30,-1.87,-1.87,-1.87
