frequency,raw,error,smoothed,error_smoothed,equalization,parametric_eq,fixed_band_eq,equalized_raw,equalized_smoothed,target
20.00,-5.92,-8.61,-5.93,-8.64,6.00,5.51,2.53,0.08,0.07,2.69
20.20,-5.86,-8.58,-5.87,-8.60,6.00,5.56,2.60,0.14,0.13,2.72
20.40,-5.80,-8.55,-5.80,-8.55,6.00,5.62,2.68,0.20,0.20,2.75
20.61,-5.74,-8.51,-5.74,-8.51,6.00,5.67,2.75,0.26,0.26,2.77
20.81,-5.68,-8.48,-5.67,-8.46,6.00,5.72,2.83,0.32,0.33,2.80
21.02,-5.61,-8.44,-5.60,-8.41,6.00,5.77,2.91,0.39,0.40,2.83
21.23,-5.54,-8.38,-5.53,-8.35,6.00,5.82,3.00,0.46,0.47,2.84
21.44,-5.47,-8.32,-5.47,-8.30,6.00,5.87,3.08,0.53,0.53,2.85
21.66,-5.40,-8.26,-5.40,-8.24,6.00,5.91,3.17,0.60,0.60,2.86
21.87,-5.33,-8.19,-5.33,-8.18,6.00,5.95,3.26,0.67,0.67,2.86
22.09,-5.26,-8.13,-5.26,-8.12,6.00,5.99,3.35,0.74,0.74,2.87
22.31,-5.19,-8.06,-5.19,-8.05,6.00,6.02,3.45,0.81,0.81,2.87
22.54,-5.12,-7.99,-5.12,-7.98,6.00,6.05,3.55,0.88,0.88,2.87
22.76,-5.04,-7.90,-5.04,-7.91,6.00,6.08,3.65,0.96,0.96,2.87
22.99,-4.97,-7.83,-4.97,-7.84,6.00,6.11,3.75,1.03,1.03,2.86
23.22,-4.90,-7.76,-4.90,-7.76,6.00,6.13,3.86,1.10,1.10,2.85
23.45,-4.83,-7.68,-4.83,-7.69,6.00,6.15,3.96,1.17,1.17,2.85
23.69,-4.76,-7.62,-4.76,-7.62,6.00,6.17,4.07,1.24,1.24,2.85
23.92,-4.68,-7.53,-4.69,-7.54,6.00,6.18,4.19,1.32,1.31,2.85
24.16,-4.61,-7.47,-4.61,-7.47,6.00,6.19,4.30,1.39,1.39,2.86
24.40,-4.54,-7.40,-4.54,-7.40,6.00,6.20,4.42,1.46,1.46,2.86
24.65,-4.47,-7.32,-4.47,-7.32,6.00,6.20,4.53,1.53,1.53,2.85
24.89,-4.40,-7.25,-4.40,-7.25,6.00,6.20,4.65,1.60,1.60,2.85
25.14,-4.33,-7.18,-4.33,-7.18,6.00,6.20,4.77,1.67,1.67,2.85
25.39,-4.26,-7.11,-4.26,-7.11,6.00,6.19,4.89,1.74,1.74,2.85
25.65,-4.19,-7.04,-4.19,-7.03,6.00,6.18,5.02,1.81,1.81,2.85
25.91,-4.12,-6.96,-4.11,-6.96,6.00,6.16,5.14,1.88,1.89,2.84
26.16,-4.04,-6.88,-4.04,-6.89,6.00,6.15,5.26,1.96,1.96,2.84
26.43,-3.97,-6.81,-3.97,-6.81,6.00,6.13,5.38,2.03,2.03,2.84
26.69,-3.90,-6.74,-3.90,-6.74,6.00,6.10,5.50,2.10,2.10,2.84
26.96,-3.83,-6.67,-3.83,-6.67,6.00,6.08,5.62,2.17,2.17,2.84
27.23,-3.76,-6.60,-3.76,-6.60,6.00,6.05,5.73,2.24,2.24,2.84
27.50,-3.69,-6.53,-3.69,-6.52,6.00,6.01,5.85,2.31,2.31,2.84
27.77,-3.63,-6.45,-3.62,-6.45,6.00,5.98,5.95,2.37,2.38,2.83
28.05,-3.56,-6.38,-3.56,-6.38,6.00,5.94,6.06,2.44,2.44,2.82
28.33,-3.49,-6.30,-3.49,-6.31,6.00,5.90,6.16,2.51,2.51,2.81
28.62,-3.42,-6.23,-3.42,-6.24,6.00,5.85,6.25,2.58,2.58,2.81
28.90,-3.35,-6.16,-3.35,-6.17,5.99,5.81,6.33,2.64,2.64,2.81
29.19,-3.29,-6.09,-3.29,-6.09,5.97,5.76,6.41,2.68,2.68,2.80
29.48,-3.22,-6.03,-3.22,-6.02,5.94,5.71,6.48,2.72,2.72,2.81
29.78,-3.15,-5.95,-3.15,-5.95,5.90,5.66,6.54,2.75,2.75,2.80
30.08,-3.08,-5.88,-3.09,-5.88,5.85,5.60,6.58,2.77,2.76,2.80
30.38,-3.02,-5.81,-3.02,-5.81,5.80,5.54,6.62,2.77,2.77,2.79
30.68,-2.96,-5.75,-2.96,-5.74,5.74,5.49,6.65,2.78,2.78,2.79
30.99,-2.89,-5.67,-2.89,-5.67,5.67,5.43,6.66,2.78,2.78,2.77
31.30,-2.83,-5.60,-2.83,-5.60,5.60,5.36,6.67,2.77,2.77,2.77
31.61,-2.76,-5.53,-2.76,-5.53,5.53,5.30,6.66,2.77,2.77,2.77
31.93,-2.70,-5.46,-2.70,-5.46,5.46,5.24,6.64,2.76,2.76,2.76
32.24,-2.63,-5.38,-2.63,-5.39,5.39,5.17,6.61,2.76,2.76,2.75
32.57,-2.57,-5.32,-2.57,-5.32,5.32,5.11,6.57,2.75,2.75,2.75
32.89,-2.50,-5.25,-2.50,-5.24,5.24,5.04,6.52,2.74,2.74,2.75
33.22,-2.44,-5.17,-2.44,-5.17,5.17,4.97,6.45,2.73,2.74,2.74
33.55,-2.37,-5.10,-2.37,-5.10,5.10,4.90,6.38,2.73,2.73,2.73
33.89,-2.30,-5.02,-2.31,-5.03,5.03,4.83,6.30,2.73,2.72,2.72
34.23,-2.24,-4.96,-2.24,-4.96,4.96,4.76,6.21,2.72,2.72,2.72
34.57,-2.18,-4.89,-2.18,-4.88,4.88,4.69,6.12,2.70,2.71,2.71
34.92,-2.11,-4.81,-2.11,-4.81,4.81,4.62,6.02,2.70,2.70,2.70
35.27,-2.05,-4.75,-2.05,-4.74,4.74,4.55,5.91,2.69,2.69,2.69
35.62,-1.98,-4.66,-1.98,-4.67,4.67,4.48,5.80,2.69,2.68,2.68
35.97,-1.91,-4.58,-1.92,-4.59,4.59,4.41,5.68,2.68,2.68,2.67
36.33,-1.86,-4.53,-1.86,-4.52,4.52,4.34,5.56,2.66,2.67,2.67
36.70,-1.80,-4.46,-1.79,-4.45,4.45,4.27,5.44,2.65,2.66,2.66
37.06,-1.74,-4.38,-1.73,-4.38,4.38,4.19,5.32,2.64,2.65,2.64
37.43,-1.67,-4.31,-1.67,-4.31,4.31,4.12,5.20,2.64,2.64,2.64
37.81,-1.60,-4.23,-1.61,-4.24,4.24,4.05,5.07,2.64,2.63,2.63
38.19,-1.54,-4.16,-1.55,-4.17,4.17,3.98,4.95,2.62,2.62,2.62
38.57,-1.48,-4.09,-1.49,-4.09,4.09,3.91,4.82,2.61,2.61,2.61
38.95,-1.43,-4.03,-1.43,-4.02,4.02,3.84,4.70,2.60,2.60,2.60
39.34,-1.37,-3.96,-1.37,-3.96,3.96,3.77,4.57,2.59,2.59,2.59
39.74,-1.31,-3.88,-1.31,-3.89,3.89,3.70,4.45,2.58,2.58,2.57
40.14,-1.25,-3.82,-1.25,-3.82,3.82,3.63,4.33,2.57,2.57,2.57
40.54,-1.19,-3.75,-1.19,-3.75,3.75,3.56,4.21,2.56,2.56,2.56
40.94,-1.14,-3.69,-1.13,-3.69,3.69,3.50,4.09,2.55,2.56,2.55
41.35,-1.07,-3.61,-1.07,-3.62,3.62,3.43,3.98,2.55,2.55,2.54
41.76,-1.01,-3.55,-1.02,-3.55,3.55,3.36,3.87,2.54,2.54,2.54
42.18,-0.95,-3.48,-0.96,-3.49,3.49,3.29,3.76,2.54,2.52,2.53
42.60,-0.90,-3.42,-0.91,-3.42,3.42,3.23,3.65,2.52,2.51,2.52
43.03,-0.85,-3.36,-0.85,-3.35,3.35,3.16,3.54,2.50,2.50,2.51
43.46,-0.80,-3.30,-0.79,-3.28,3.28,3.10,3.44,2.48,2.49,2.50
43.90,-0.75,-3.23,-0.74,-3.22,3.22,3.03,3.34,2.47,2.48,2.48
44.33,-0.69,-3.15,-0.69,-3.15,3.15,2.97,3.24,2.46,2.47,2.46
44.78,-0.63,-3.08,-0.63,-3.09,3.09,2.91,3.14,2.46,2.45,2.45
45.23,-0.58,-3.01,-0.58,-3.02,3.02,2.84,3.05,2.44,2.44,2.43
45.68,-0.53,-2.95,-0.53,-2.95,2.95,2.78,2.96,2.42,2.42,2.42
46.13,-0.48,-2.88,-0.48,-2.88,2.88,2.72,2.87,2.40,2.41,2.40
46.60,-0.42,-2.82,-0.42,-2.82,2.82,2.66,2.79,2.39,2.39,2.39
47.06,-0.36,-2.74,-0.37,-2.75,2.75,2.60,2.70,2.39,2.37,2.38
47.53,-0.32,-2.68,-0.32,-2.67,2.67,2.54,2.62,2.36,2.36,2.36
48.01,-0.27,-2.63,-0.27,-2.61,2.61,2.48,2.54,2.34,2.34,2.36
48.49,-0.22,-2.55,-0.22,-2.54,2.54,2.42,2.46,2.32,2.32,2.33
48.97,-0.17,-2.47,-0.17,-2.47,2.47,2.36,2.39,2.30,2.30,2.30
49.46,-0.12,-2.40,-0.12,-2.40,2.40,2.31,2.31,2.28,2.28,2.28
49.96,-0.07,-2.32,-0.07,-2.34,2.34,2.25,2.24,2.27,2.26,2.25
50.46,-0.03,-2.27,-0.03,-2.27,2.27,2.20,2.17,2.24,2.24,2.24
50.96,0.02,-2.20,0.02,-2.20,2.20,2.14,2.11,2.22,2.22,2.22
51.47,0.07,-2.12,0.07,-2.14,2.14,2.09,2.04,2.21,2.20,2.19
51.99,0.12,-2.06,0.11,-2.07,2.07,2.03,1.98,2.19,2.18,2.18
52.51,0.16,-2.01,0.16,-2.00,2.00,1.98,1.91,2.16,2.16,2.17
53.03,0.19,-1.96,0.20,-1.94,1.94,1.92,1.85,2.13,2.14,2.15
53.56,0.25,-1.88,0.25,-1.87,1.87,1.87,1.79,2.12,2.12,2.13
54.10,0.30,-1.81,0.30,-1.81,1.81,1.82,1.74,2.11,2.11,2.11
54.64,0.34,-1.75,0.34,-1.75,1.75,1.77,1.68,2.09,2.09,2.09
55.18,0.39,-1.68,0.39,-1.68,1.68,1.72,1.62,2.07,2.07,2.07
55.74,0.44,-1.61,0.44,-1.62,1.62,1.67,1.57,2.06,2.06,2.05
56.29,0.48,-1.56,0.49,-1.55,1.55,1.62,1.51,2.03,2.04,2.04
56.86,0.53,-1.49,0.54,-1.48,1.48,1.57,1.46,2.01,2.02,2.02
57.42,0.58,-1.41,0.59,-1.42,1.42,1.52,1.41,2.00,2.00,1.99
58.00,0.63,-1.35,0.63,-1.35,1.35,1.47,1.36,1.98,1.98,1.98
58.58,0.68,-1.29,0.68,-1.28,1.28,1.42,1.31,1.96,1.97,1.97
59.16,0.72,-1.23,0.73,-1.21,1.21,1.37,1.26,1.93,1.95,1.95
59.76,0.78,-1.16,0.78,-1.15,1.15,1.33,1.21,1.93,1.93,1.94
60.35,0.83,-1.09,0.82,-1.09,1.09,1.28,1.16,1.92,1.91,1.92
60.96,0.88,-1.02,0.87,-1.02,1.02,1.23,1.12,1.90,1.89,1.90
61.57,0.91,-0.96,0.90,-0.97,0.97,1.19,1.07,1.88,1.87,1.87
62.18,0.95,-0.89,0.94,-0.91,0.91,1.14,1.02,1.86,1.85,1.84
62.80,0.99,-0.84,0.98,-0.85,0.85,1.10,0.97,1.84,1.83,1.83
63.43,1.02,-0.78,1.01,-0.80,0.80,1.05,0.93,1.82,1.81,1.80
64.07,1.04,-0.74,1.03,-0.76,0.76,1.00,0.88,1.80,1.79,1.78
64.71,1.07,-0.70,1.06,-0.71,0.71,0.96,0.84,1.78,1.77,1.77
65.35,1.09,-0.66,1.08,-0.66,0.66,0.92,0.79,1.75,1.75,1.75
66.01,1.10,-0.63,1.11,-0.62,0.62,0.87,0.75,1.72,1.73,1.73
66.67,1.12,-0.59,1.13,-0.58,0.58,0.83,0.70,1.70,1.71,1.71
67.33,1.14,-0.55,1.16,-0.53,0.53,0.78,0.65,1.67,1.69,1.69
68.01,1.17,-0.50,1.18,-0.48,0.48,0.74,0.61,1.65,1.67,1.67
68.69,1.20,-0.45,1.21,-0.44,0.44,0.70,0.56,1.64,1.65,1.65
69.37,1.22,-0.41,1.24,-0.38,0.38,0.66,0.52,1.60,1.63,1.63
70.07,1.24,-0.37,1.28,-0.33,0.33,0.61,0.47,1.57,1.61,1.61
70.77,1.29,-0.30,1.31,-0.28,0.28,0.57,0.43,1.57,1.59,1.59
71.48,1.33,-0.24,1.34,-0.22,0.22,0.53,0.38,1.55,1.57,1.57
72.19,1.37,-0.18,1.37,-0.17,0.17,0.49,0.34,1.54,1.55,1.55
72.91,1.41,-0.11,1.40,-0.12,0.12,0.44,0.29,1.53,1.52,1.52
73.64,1.44,-0.06,1.42,-0.08,0.08,0.40,0.25,1.52,1.50,1.50
74.38,1.46,-0.02,1.44,-0.05,0.05,0.36,0.20,1.51,1.48,1.48
75.12,1.47,0.01,1.44,-0.02,0.02,0.32,0.16,1.49,1.46,1.46
75.87,1.47,0.03,1.44,-0.00,0.00,0.28,0.11,1.47,1.44,1.44
76.63,1.47,0.05,1.43,0.00,-0.00,0.23,0.06,1.47,1.42,1.42
77.40,1.45,0.04,1.41,0.00,-0.00,0.19,0.02,1.45,1.40,1.41
78.17,1.42,0.04,1.38,-0.00,0.00,0.15,-0.03,1.42,1.38,1.38
78.95,1.38,0.01,1.35,-0.02,0.02,0.11,-0.08,1.40,1.36,1.37
79.74,1.33,-0.02,1.31,-0.03,0.03,0.07,-0.12,1.36,1.35,1.35
80.54,1.27,-0.06,1.28,-0.05,0.05,0.03,-0.17,1.32,1.33,1.33
81.35,1.21,-0.10,1.25,-0.06,0.06,-0.02,-0.22,1.27,1.31,1.31
82.16,1.17,-0.12,1.22,-0.06,0.06,-0.06,-0.27,1.23,1.29,1.29
82.98,1.13,-0.14,1.20,-0.07,0.07,-0.10,-0.32,1.20,1.27,1.27
83.81,1.11,-0.13,1.19,-0.06,0.06,-0.14,-0.36,1.17,1.25,1.24
84.65,1.11,-0.11,1.17,-0.05,0.05,-0.18,-0.41,1.16,1.23,1.22
85.50,1.12,-0.09,1.17,-0.04,0.04,-0.23,-0.46,1.16,1.20,1.21
86.35,1.14,-0.04,1.16,-0.02,0.02,-0.27,-0.52,1.16,1.18,1.18
87.22,1.18,0.02,1.15,-0.01,0.01,-0.31,-0.57,1.18,1.16,1.16
88.09,1.20,0.07,1.15,0.01,-0.01,-0.35,-0.62,1.19,1.14,1.13
88.97,1.21,0.09,1.14,0.03,-0.03,-0.40,-0.67,1.18,1.11,1.12
89.86,1.21,0.12,1.12,0.04,-0.04,-0.44,-0.72,1.17,1.09,1.09
90.76,1.18,0.12,1.10,0.04,-0.04,-0.48,-0.78,1.14,1.06,1.06
91.66,1.14,0.10,1.08,0.05,-0.05,-0.53,-0.83,1.09,1.03,1.04
92.58,1.11,0.11,1.06,0.05,-0.05,-0.57,-0.89,1.06,1.01,1.00
93.51,1.05,0.07,1.03,0.05,-0.05,-0.62,-0.94,1.00,0.98,0.98
94.44,1.00,0.04,1.01,0.06,-0.06,-0.66,-1.00,0.94,0.95,0.96
95.39,0.95,0.02,0.99,0.07,-0.07,-0.70,-1.05,0.88,0.92,0.93
96.34,0.92,0.03,0.98,0.09,-0.09,-0.75,-1.11,0.83,0.89,0.89
97.30,0.91,0.05,0.98,0.12,-0.12,-0.79,-1.17,0.79,0.87,0.86
98.28,0.92,0.09,1.00,0.16,-0.16,-0.84,-1.22,0.76,0.84,0.83
99.26,0.96,0.15,1.03,0.22,-0.22,-0.89,-1.28,0.74,0.81,0.81
100.25,1.03,0.25,1.08,0.30,-0.30,-0.93,-1.34,0.73,0.78,0.78
101.25,1.11,0.36,1.14,0.39,-0.39,-0.98,-1.40,0.72,0.75,0.75
102.27,1.20,0.48,1.21,0.49,-0.49,-1.02,-1.45,0.71,0.72,0.72
103.29,1.30,0.62,1.29,0.61,-0.61,-1.07,-1.51,0.69,0.69,0.68
104.32,1.40,0.74,1.39,0.73,-0.73,-1.12,-1.57,0.67,0.66,0.66
105.37,1.51,0.88,1.49,0.86,-0.86,-1.17,-1.63,0.65,0.63,0.63
106.42,1.61,1.01,1.58,0.99,-0.99,-1.21,-1.68,0.62,0.60,0.60
107.48,1.71,1.14,1.68,1.12,-1.12,-1.26,-1.74,0.59,0.57,0.57
108.56,1.80,1.27,1.77,1.24,-1.24,-1.31,-1.80,0.56,0.53,0.53
109.64,1.89,1.39,1.86,1.36,-1.36,-1.36,-1.85,0.53,0.50,0.50
110.74,1.96,1.49,1.94,1.47,-1.47,-1.41,-1.90,0.49,0.47,0.47
111.85,2.02,1.58,2.01,1.58,-1.58,-1.46,-1.96,0.44,0.43,0.44
112.97,2.10,1.70,2.08,1.68,-1.68,-1.51,-2.01,0.42,0.40,0.40
114.10,2.14,1.77,2.13,1.77,-1.77,-1.56,-2.05,0.37,0.36,0.37
115.24,2.18,1.85,2.18,1.85,-1.85,-1.61,-2.10,0.33,0.33,0.33
116.39,2.22,1.93,2.22,1.92,-1.92,-1.66,-2.14,0.30,0.29,0.29
117.55,2.25,2.00,2.25,1.99,-1.99,-1.72,-2.19,0.26,0.26,0.25
118.73,2.29,2.07,2.28,2.06,-2.06,-1.77,-2.22,0.23,0.22,0.22
119.92,2.30,2.11,2.30,2.12,-2.12,-1.82,-2.26,0.18,0.19,0.19
121.12,2.34,2.19,2.32,2.17,-2.17,-1.87,-2.29,0.17,0.15,0.15
122.33,2.34,2.22,2.34,2.22,-2.22,-1.93,-2.33,0.12,0.12,0.12
123.55,2.34,2.25,2.36,2.27,-2.27,-1.98,-2.35,0.07,0.08,0.09
124.79,2.37,2.32,2.37,2.32,-2.32,-2.03,-2.38,0.05,0.05,0.05
126.03,2.38,2.36,2.38,2.37,-2.37,-2.09,-2.40,0.01,0.01,0.02
127.29,2.38,2.40,2.39,2.42,-2.42,-2.14,-2.42,-0.04,-0.02,-0.02
128.57,2.38,2.44,2.41,2.46,-2.46,-2.20,-2.44,-0.08,-0.06,-0.06
129.85,2.42,2.51,2.42,2.51,-2.51,-2.25,-2.45,-0.09,-0.09,-0.09
131.15,2.43,2.56,2.43,2.55,-2.55,-2.30,-2.46,-0.12,-0.12,-0.13
132.46,2.44,2.60,2.45,2.60,-2.60,-2.36,-2.47,-0.16,-0.15,-0.16
133.79,2.47,2.65,2.46,2.65,-2.65,-2.41,-2.48,-0.18,-0.19,-0.18
135.12,2.47,2.69,2.47,2.69,-2.69,-2.47,-2.48,-0.22,-0.22,-0.22
136.48,2.50,2.74,2.49,2.74,-2.74,-2.52,-2.48,-0.24,-0.25,-0.24
137.84,2.51,2.78,2.51,2.78,-2.78,-2.58,-2.48,-0.27,-0.28,-0.27
139.22,2.51,2.82,2.52,2.82,-2.82,-2.63,-2.48,-0.31,-0.30,-0.31
140.61,2.53,2.87,2.53,2.86,-2.86,-2.68,-2.48,-0.33,-0.33,-0.34
142.02,2.56,2.91,2.55,2.90,-2.90,-2.74,-2.48,-0.34,-0.36,-0.35
143.44,2.56,2.94,2.56,2.94,-2.94,-2.79,-2.47,-0.38,-0.38,-0.38
144.87,2.56,2.97,2.57,2.98,-2.98,-2.84,-2.47,-0.42,-0.41,-0.41
146.32,2.59,3.02,2.58,3.01,-3.01,-2.89,-2.47,-0.42,-0.43,-0.43
147.78,2.60,3.05,2.59,3.05,-3.05,-2.94,-2.46,-0.45,-0.46,-0.45
149.26,2.60,3.07,2.60,3.08,-3.08,-3.00,-2.46,-0.48,-0.48,-0.47
150.75,2.60,3.11,2.61,3.12,-3.12,-3.05,-2.45,-0.52,-0.51,-0.51
152.26,2.61,3.14,2.61,3.15,-3.15,-3.09,-2.45,-0.54,-0.54,-0.53
153.78,2.62,3.18,2.62,3.18,-3.18,-3.14,-2.45,-0.56,-0.56,-0.56
155.32,2.62,3.21,2.62,3.21,-3.21,-3.19,-2.45,-0.59,-0.59,-0.59
156.88,2.62,3.23,2.62,3.23,-3.23,-3.23,-2.45,-0.61,-0.62,-0.61
158.44,2.62,3.27,2.61,3.26,-3.26,-3.28,-2.45,-0.64,-0.65,-0.65
160.03,2.60,3.28,2.61,3.28,-3.28,-3.32,-2.45,-0.68,-0.67,-0.68
161.63,2.60,3.31,2.60,3.30,-3.30,-3.36,-2.46,-0.70,-0.70,-0.71
163.24,2.60,3.34,2.59,3.32,-3.32,-3.40,-2.46,-0.72,-0.73,-0.74
164.88,2.59,3.35,2.58,3.33,-3.33,-3.44,-2.47,-0.74,-0.76,-0.76
166.53,2.57,3.36,2.56,3.35,-3.35,-3.48,-2.48,-0.78,-0.79,-0.79
168.19,2.55,3.37,2.55,3.36,-3.36,-3.51,-2.49,-0.81,-0.82,-0.82
169.87,2.52,3.36,2.53,3.38,-3.38,-3.55,-2.50,-0.86,-0.85,-0.84
171.57,2.51,3.38,2.52,3.39,-3.39,-3.58,-2.52,-0.88,-0.87,-0.87
173.29,2.50,3.40,2.50,3.41,-3.41,-3.61,-2.53,-0.91,-0.90,-0.90
175.02,2.47,3.40,2.49,3.42,-3.42,-3.63,-2.55,-0.95,-0.93,-0.93
176.77,2.47,3.43,2.48,3.44,-3.44,-3.66,-2.57,-0.97,-0.96,-0.96
178.54,2.47,3.47,2.46,3.45,-3.45,-3.68,-2.60,-0.98,-0.99,-1.00
180.32,2.44,3.46,2.45,3.47,-3.47,-3.70,-2.62,-1.03,-1.02,-1.02
182.13,2.43,3.48,2.44,3.49,-3.49,-3.72,-2.65,-1.06,-1.05,-1.05
183.95,2.43,3.51,2.43,3.51,-3.51,-3.73,-2.68,-1.08,-1.08,-1.08
185.79,2.43,3.53,2.42,3.53,-3.53,-3.74,-2.71,-1.10,-1.11,-1.10
187.65,2.43,3.57,2.41,3.54,-3.54,-3.75,-2.74,-1.11,-1.13,-1.14
189.52,2.39,3.55,2.40,3.56,-3.56,-3.76,-2.78,-1.17,-1.16,-1.16
191.42,2.38,3.56,2.39,3.58,-3.58,-3.76,-2.81,-1.20,-1.18,-1.18
193.33,2.38,3.59,2.38,3.59,-3.59,-3.77,-2.85,-1.21,-1.21,-1.21
195.27,2.38,3.61,2.37,3.60,-3.60,-3.77,-2.89,-1.22,-1.23,-1.23
197.22,2.36,3.61,2.36,3.61,-3.61,-3.76,-2.93,-1.25,-1.25,-1.25
199.19,2.34,3.62,2.35,3.61,-3.61,-3.76,-2.98,-1.27,-1.27,-1.28
201.18,2.34,3.63,2.33,3.62,-3.62,-3.75,-3.02,-1.28,-1.29,-1.29
203.19,2.32,3.62,2.32,3.62,-3.62,-3.74,-3.06,-1.30,-1.30,-1.30
205.23,2.30,3.62,2.30,3.62,-3.62,-3.73,-3.11,-1.32,-1.32,-1.32
207.28,2.30,3.62,2.29,3.62,-3.62,-3.71,-3.16,-1.32,-1.33,-1.32
209.35,2.27,3.61,2.27,3.61,-3.61,-3.69,-3.20,-1.34,-1.34,-1.34
211.44,2.25,3.61,2.25,3.60,-3.60,-3.67,-3.25,-1.35,-1.35,-1.36
213.56,2.24,3.60,2.24,3.59,-3.59,-3.65,-3.29,-1.35,-1.36,-1.36
215.69,2.21,3.56,2.22,3.58,-3.58,-3.63,-3.34,-1.37,-1.36,-1.35
217.85,2.21,3.57,2.20,3.56,-3.56,-3.60,-3.38,-1.35,-1.36,-1.36
220.03,2.18,3.55,2.18,3.54,-3.54,-3.58,-3.42,-1.36,-1.37,-1.37
222.23,2.15,3.53,2.16,3.52,-3.52,-3.55,-3.46,-1.37,-1.37,-1.38
224.45,2.13,3.49,2.14,3.50,-3.50,-3.51,-3.50,-1.37,-1.36,-1.36
226.70,2.12,3.48,2.12,3.48,-3.48,-3.48,-3.54,-1.36,-1.36,-1.36
228.96,2.08,3.44,2.10,3.45,-3.45,-3.45,-3.57,-1.37,-1.36,-1.36
231.25,2.08,3.42,2.08,3.43,-3.43,-3.41,-3.60,-1.35,-1.35,-1.34
233.57,2.05,3.39,2.06,3.40,-3.40,-3.38,-3.62,-1.35,-1.35,-1.34
235.90,2.04,3.38,2.04,3.37,-3.37,-3.34,-3.65,-1.33,-1.34,-1.34
238.26,2.02,3.35,2.02,3.35,-3.35,-3.30,-3.66,-1.33,-1.33,-1.33
240.64,1.99,3.31,2.00,3.32,-3.32,-3.26,-3.68,-1.33,-1.32,-1.32
243.05,1.99,3.29,1.98,3.28,-3.28,-3.22,-3.68,-1.29,-1.30,-1.30
245.48,1.96,3.25,1.96,3.25,-3.25,-3.17,-3.69,-1.29,-1.29,-1.29
247.93,1.95,3.22,1.94,3.22,-3.22,-3.13,-3.69,-1.27,-1.27,-1.27
250.41,1.92,3.19,1.92,3.18,-3.18,-3.09,-3.68,-1.26,-1.26,-1.27
252.92,1.91,3.15,1.90,3.14,-3.14,-3.04,-3.67,-1.23,-1.24,-1.24
255.45,1.88,3.10,1.88,3.11,-3.11,-3.00,-3.65,-1.23,-1.22,-1.22
258.00,1.86,3.06,1.86,3.07,-3.07,-2.95,-3.63,-1.21,-1.20,-1.20
260.58,1.84,3.03,1.84,3.03,-3.03,-2.91,-3.60,-1.19,-1.18,-1.19
263.19,1.83,2.99,1.82,2.98,-2.98,-2.86,-3.57,-1.15,-1.16,-1.16
265.82,1.80,2.94,1.80,2.94,-2.94,-2.82,-3.53,-1.14,-1.14,-1.14
268.48,1.78,2.90,1.78,2.90,-2.90,-2.77,-3.49,-1.12,-1.12,-1.12
271.16,1.77,2.86,1.76,2.86,-2.86,-2.73,-3.44,-1.09,-1.10,-1.09
273.87,1.73,2.80,1.74,2.82,-2.82,-2.68,-3.39,-1.09,-1.08,-1.07
276.61,1.73,2.78,1.72,2.78,-2.78,-2.63,-3.34,-1.05,-1.05,-1.05
279.38,1.70,2.73,1.70,2.74,-2.74,-2.59,-3.29,-1.04,-1.03,-1.03
282.17,1.69,2.70,1.69,2.70,-2.70,-2.54,-3.23,-1.01,-1.01,-1.01
284.99,1.66,2.65,1.67,2.66,-2.66,-2.50,-3.17,-1.00,-0.99,-0.99
287.84,1.65,2.62,1.65,2.61,-2.61,-2.45,-3.11,-0.96,-0.97,-0.97
290.72,1.64,2.58,1.63,2.57,-2.57,-2.41,-3.04,-0.93,-0.94,-0.94
293.63,1.60,2.52,1.61,2.53,-2.53,-2.36,-2.98,-0.93,-0.92,-0.92
296.57,1.60,2.50,1.59,2.49,-2.49,-2.32,-2.91,-0.89,-0.90,-0.90
299.53,1.57,2.45,1.57,2.45,-2.45,-2.28,-2.84,-0.88,-0.87,-0.88
302.53,1.56,2.42,1.55,2.40,-2.40,-2.23,-2.78,-0.84,-0.85,-0.86
305.55,1.53,2.35,1.54,2.36,-2.36,-2.19,-2.71,-0.83,-0.83,-0.82
308.61,1.52,2.33,1.52,2.32,-2.32,-2.15,-2.64,-0.80,-0.80,-0.81
311.69,1.50,2.28,1.50,2.28,-2.28,-2.10,-2.58,-0.78,-0.78,-0.78
314.81,1.48,2.22,1.48,2.23,-2.23,-2.06,-2.51,-0.75,-0.75,-0.74
317.96,1.46,2.18,1.46,2.19,-2.19,-2.02,-2.44,-0.73,-0.73,-0.72
321.14,1.44,2.14,1.44,2.15,-2.15,-1.98,-2.38,-0.71,-0.71,-0.70
324.35,1.43,2.12,1.43,2.11,-2.11,-1.94,-2.31,-0.68,-0.68,-0.69
327.59,1.40,2.06,1.41,2.07,-2.07,-1.90,-2.25,-0.67,-0.66,-0.66
330.87,1.39,2.03,1.39,2.03,-2.03,-1.86,-2.19,-0.64,-0.64,-0.64
334.18,1.38,2.00,1.37,1.98,-1.98,-1.82,-2.13,-0.60,-0.62,-0.62
337.52,1.34,1.94,1.35,1.94,-1.94,-1.78,-2.07,-0.60,-0.59,-0.60
340.90,1.34,1.91,1.33,1.90,-1.90,-1.75,-2.01,-0.56,-0.58,-0.57
344.30,1.31,1.86,1.31,1.86,-1.86,-1.71,-1.95,-0.55,-0.56,-0.55
347.75,1.29,1.83,1.29,1.82,-1.82,-1.67,-1.90,-0.53,-0.54,-0.54
351.23,1.27,1.79,1.27,1.78,-1.78,-1.64,-1.84,-0.51,-0.52,-0.52
354.74,1.25,1.75,1.25,1.74,-1.74,-1.60,-1.79,-0.49,-0.50,-0.50
358.28,1.22,1.70,1.23,1.71,-1.71,-1.57,-1.74,-0.49,-0.48,-0.48
361.87,1.20,1.66,1.21,1.67,-1.67,-1.53,-1.69,-0.47,-0.46,-0.46
365.49,1.17,1.61,1.19,1.63,-1.63,-1.50,-1.64,-0.46,-0.45,-0.44
369.14,1.16,1.59,1.17,1.60,-1.60,-1.47,-1.60,-0.44,-0.43,-0.43
372.83,1.14,1.55,1.15,1.56,-1.56,-1.43,-1.55,-0.42,-0.41,-0.41
376.56,1.13,1.53,1.13,1.53,-1.53,-1.40,-1.51,-0.40,-0.40,-0.40
380.33,1.13,1.51,1.11,1.49,-1.49,-1.37,-1.46,-0.36,-0.38,-0.38
384.13,1.09,1.46,1.09,1.46,-1.46,-1.34,-1.42,-0.37,-0.37,-0.37
387.97,1.08,1.44,1.07,1.43,-1.43,-1.31,-1.38,-0.35,-0.36,-0.36
391.85,1.05,1.40,1.05,1.39,-1.39,-1.28,-1.34,-0.34,-0.34,-0.35
395.77,1.04,1.37,1.03,1.36,-1.36,-1.25,-1.30,-0.32,-0.33,-0.33
399.73,1.01,1.33,1.00,1.32,-1.32,-1.22,-1.27,-0.31,-0.32,-0.32
403.72,1.00,1.31,0.98,1.28,-1.28,-1.19,-1.23,-0.28,-0.31,-0.31
407.76,0.97,1.27,0.95,1.25,-1.25,-1.16,-1.20,-0.28,-0.30,-0.30
411.84,0.95,1.23,0.94,1.22,-1.22,-1.13,-1.16,-0.27,-0.29,-0.28
415.96,0.94,1.21,0.93,1.20,-1.20,-1.11,-1.13,-0.26,-0.28,-0.27
420.12,0.92,1.18,0.93,1.19,-1.19,-1.08,-1.10,-0.27,-0.27,-0.26
424.32,0.91,1.16,0.94,1.19,-1.19,-1.05,-1.07,-0.28,-0.25,-0.25
428.56,0.89,1.13,0.95,1.20,-1.20,-1.03,-1.04,-0.31,-0.24,-0.24
432.85,0.87,1.10,0.97,1.20,-1.20,-1.00,-1.01,-0.33,-0.23,-0.23
437.18,0.90,1.12,1.00,1.21,-1.21,-0.98,-0.98,-0.31,-0.22,-0.23
441.55,0.95,1.16,1.02,1.23,-1.23,-0.95,-0.95,-0.28,-0.21,-0.21
445.96,1.01,1.21,1.04,1.23,-1.23,-0.93,-0.93,-0.22,-0.19,-0.20
450.42,1.12,1.31,1.06,1.24,-1.24,-0.90,-0.90,-0.12,-0.18,-0.19
454.93,1.17,1.34,1.07,1.24,-1.24,-0.88,-0.87,-0.07,-0.17,-0.17
459.48,1.21,1.37,1.08,1.24,-1.24,-0.85,-0.85,-0.03,-0.15,-0.16
464.07,1.19,1.33,1.09,1.23,-1.23,-0.83,-0.82,-0.04,-0.14,-0.14
468.71,1.16,1.28,1.09,1.21,-1.21,-0.81,-0.80,-0.05,-0.12,-0.12
473.40,1.11,1.22,1.08,1.19,-1.19,-0.78,-0.77,-0.08,-0.11,-0.11
478.13,1.05,1.14,1.07,1.16,-1.16,-0.76,-0.75,-0.11,-0.09,-0.09
482.91,1.01,1.09,1.05,1.12,-1.12,-0.74,-0.73,-0.11,-0.08,-0.08
487.74,0.96,1.02,1.02,1.08,-1.08,-0.71,-0.70,-0.12,-0.06,-0.06
492.62,0.92,0.96,0.98,1.03,-1.03,-0.69,-0.68,-0.11,-0.05,-0.04
497.55,0.91,0.94,0.94,0.97,-0.97,-0.67,-0.66,-0.06,-0.03,-0.03
502.52,0.88,0.89,0.90,0.91,-0.91,-0.65,-0.63,-0.03,-0.01,-0.01
507.55,0.87,0.87,0.86,0.85,-0.85,-0.62,-0.61,0.02,0.00,-0.00
