frequency,raw,error,smoothed,error_smoothed,equalization,parametric_eq,fixed_band_eq,equalized_raw,equalized_smoothed,target
20.00,12.09,5.69,12.28,5.87,-5.87,-6.17,-3.16,6.23,6.41,6.41
20.20,12.26,5.87,12.38,5.98,-5.98,-6.21,-3.25,6.29,6.40,6.40
20.40,12.44,6.05,12.47,6.08,-6.08,-6.24,-3.34,6.35,6.39,6.39
20.61,12.60,6.21,12.56,6.18,-6.18,-6.27,-3.43,6.42,6.38,6.39
20.81,12.79,6.42,12.65,6.27,-6.27,-6.31,-3.53,6.51,6.37,6.37
21.02,12.93,6.57,12.73,6.36,-6.36,-6.34,-3.63,6.57,6.36,6.37
21.23,12.95,6.60,12.80,6.44,-6.44,-6.37,-3.73,6.51,6.36,6.36
21.44,12.96,6.60,12.87,6.52,-6.52,-6.40,-3.84,6.45,6.35,6.36
21.66,12.98,6.63,12.93,6.59,-6.59,-6.44,-3.94,6.40,6.34,6.35
21.87,12.99,6.65,12.99,6.65,-6.65,-6.47,-4.05,6.35,6.34,6.34
22.09,13.01,6.68,13.04,6.71,-6.71,-6.50,-4.17,6.31,6.33,6.33
22.31,13.03,6.70,13.09,6.76,-6.76,-6.53,-4.29,6.28,6.33,6.33
22.54,13.05,6.73,13.11,6.79,-6.79,-6.56,-4.41,6.27,6.32,6.32
22.76,13.07,6.75,13.14,6.82,-6.82,-6.59,-4.53,6.26,6.32,6.32
22.99,13.09,6.78,13.16,6.85,-6.85,-6.62,-4.66,6.25,6.32,6.31
23.22,13.13,6.83,13.19,6.88,-6.88,-6.65,-4.79,6.26,6.31,6.30
23.45,13.16,6.85,13.21,6.90,-6.90,-6.68,-4.92,6.27,6.31,6.31
23.69,13.20,6.90,13.21,6.91,-6.91,-6.70,-5.05,6.30,6.31,6.30
23.92,13.24,6.94,13.20,6.90,-6.90,-6.73,-5.19,6.35,6.31,6.30
24.16,13.27,6.97,13.19,6.88,-6.88,-6.76,-5.33,6.39,6.31,6.31
24.40,13.29,6.98,13.18,6.87,-6.87,-6.79,-5.48,6.43,6.31,6.32
24.65,13.32,7.01,13.17,6.86,-6.86,-6.81,-5.62,6.46,6.31,6.32
24.89,13.34,7.03,13.18,6.86,-6.86,-6.84,-5.77,6.48,6.31,6.32
25.14,13.27,6.96,13.18,6.86,-6.86,-6.86,-5.92,6.41,6.32,6.32
25.39,13.12,6.81,13.16,6.84,-6.84,-6.89,-6.07,6.28,6.32,6.31
25.65,12.97,6.66,13.14,6.82,-6.82,-6.91,-6.23,6.16,6.32,6.31
25.91,12.83,6.50,13.11,6.79,-6.79,-6.94,-6.38,6.04,6.32,6.32
26.16,12.89,6.55,13.11,6.78,-6.78,-6.96,-6.53,6.11,6.33,6.33
26.43,13.06,6.73,13.13,6.80,-6.80,-6.98,-6.69,6.26,6.33,6.33
26.69,13.24,6.91,13.17,6.85,-6.85,-7.01,-6.84,6.40,6.33,6.33
26.96,13.42,7.09,13.23,6.90,-6.90,-7.03,-6.99,6.52,6.33,6.33
27.23,13.38,7.06,13.29,6.96,-6.96,-7.05,-7.14,6.43,6.33,6.33
27.50,13.29,6.97,13.34,7.01,-7.01,-7.07,-7.29,6.28,6.33,6.33
27.77,13.20,6.87,13.40,7.07,-7.07,-7.10,-7.43,6.13,6.33,6.34
28.05,13.19,6.85,13.46,7.13,-7.13,-7.12,-7.57,6.06,6.33,6.33
28.33,13.47,7.14,13.52,7.19,-7.19,-7.14,-7.71,6.28,6.33,6.32
28.62,13.73,7.41,13.57,7.24,-7.24,-7.16,-7.84,6.49,6.33,6.32
28.90,14.01,7.68,13.61,7.27,-7.27,-7.18,-7.96,6.74,6.33,6.33
29.19,13.96,7.63,13.62,7.29,-7.29,-7.20,-8.07,6.68,6.33,6.33
29.48,13.75,7.42,13.62,7.29,-7.29,-7.22,-8.17,6.46,6.33,6.33
29.78,13.56,7.23,13.62,7.30,-7.30,-7.23,-8.27,6.26,6.32,6.33
30.08,13.41,7.07,13.63,7.31,-7.31,-7.25,-8.36,6.10,6.32,6.33
30.38,13.45,7.13,13.65,7.34,-7.34,-7.27,-8.43,6.12,6.32,6.32
30.68,13.50,7.19,13.65,7.33,-7.33,-7.29,-8.49,6.17,6.31,6.31
30.99,13.55,7.24,13.60,7.30,-7.30,-7.30,-8.55,6.25,6.31,6.31
31.30,13.55,7.26,13.54,7.23,-7.23,-7.32,-8.59,6.32,6.30,6.30
31.61,13.55,7.26,13.47,7.17,-7.17,-7.34,-8.62,6.38,6.30,6.30
31.93,13.55,7.27,13.44,7.15,-7.15,-7.35,-8.64,6.41,6.29,6.28
32.24,13.55,7.27,13.43,7.15,-7.15,-7.37,-8.64,6.40,6.28,6.28
32.57,13.55,7.28,13.46,7.18,-7.18,-7.39,-8.64,6.37,6.28,6.27
32.89,13.55,7.29,13.49,7.22,-7.22,-7.40,-8.63,6.34,6.27,6.27
33.22,13.44,7.18,13.52,7.25,-7.25,-7.42,-8.60,6.19,6.27,6.26
33.55,13.27,7.01,13.55,7.28,-7.28,-7.43,-8.57,5.99,6.27,6.26
33.89,13.10,6.83,13.56,7.30,-7.30,-7.44,-8.53,5.81,6.26,6.27
34.23,13.29,7.04,13.57,7.31,-7.31,-7.46,-8.49,5.99,6.26,6.26
34.57,13.64,7.39,13.55,7.29,-7.29,-7.47,-8.44,6.35,6.26,6.25
34.92,13.99,7.74,13.53,7.27,-7.27,-7.49,-8.38,6.72,6.25,6.25
35.27,13.94,7.69,13.52,7.28,-7.28,-7.50,-8.32,6.67,6.25,6.26
35.62,13.75,7.51,13.54,7.30,-7.30,-7.51,-8.26,6.45,6.24,6.24
35.97,13.56,7.32,13.57,7.34,-7.34,-7.53,-8.19,6.23,6.23,6.24
36.33,13.55,7.33,13.60,7.37,-7.37,-7.54,-8.12,6.18,6.22,6.23
36.70,13.55,7.34,13.62,7.41,-7.41,-7.55,-8.06,6.14,6.21,6.21
37.06,13.53,7.33,13.65,7.45,-7.45,-7.56,-7.99,6.08,6.19,6.20
37.43,13.40,7.23,13.66,7.48,-7.48,-7.57,-7.92,5.92,6.18,6.18
37.81,13.27,7.11,13.65,7.49,-7.49,-7.59,-7.86,5.78,6.16,6.16
38.19,13.37,7.23,13.61,7.47,-7.47,-7.60,-7.80,5.90,6.14,6.14
38.57,13.72,7.61,13.57,7.45,-7.45,-7.61,-7.74,6.27,6.11,6.11
38.95,14.06,7.97,13.56,7.47,-7.47,-7.62,-7.68,6.59,6.09,6.09
39.34,13.91,7.86,13.60,7.53,-7.53,-7.63,-7.62,6.38,6.07,6.06
39.74,13.69,7.65,13.64,7.60,-7.60,-7.65,-7.57,6.10,6.04,6.04
40.14,13.56,7.54,13.67,7.65,-7.65,-7.66,-7.53,5.91,6.02,6.02
40.54,13.55,7.56,13.68,7.68,-7.68,-7.67,-7.49,5.87,5.99,5.99
40.94,13.55,7.59,13.67,7.70,-7.70,-7.68,-7.45,5.85,5.97,5.97
41.35,13.55,7.60,13.67,7.72,-7.72,-7.69,-7.42,5.83,5.95,5.95
41.76,13.55,7.64,13.68,7.75,-7.75,-7.70,-7.39,5.80,5.92,5.91
42.18,13.62,7.73,13.68,7.78,-7.78,-7.71,-7.37,5.85,5.90,5.90
42.60,13.80,7.91,13.66,7.78,-7.78,-7.72,-7.35,6.01,5.88,5.88
43.03,13.93,8.08,13.63,7.77,-7.77,-7.74,-7.34,6.16,5.86,5.85
43.46,13.72,7.90,13.61,7.78,-7.78,-7.75,-7.33,5.94,5.83,5.83
43.90,13.51,7.70,13.62,7.81,-7.81,-7.76,-7.33,5.70,5.81,5.81
44.33,13.45,7.67,13.62,7.83,-7.83,-7.77,-7.34,5.62,5.78,5.78
44.78,13.45,7.70,13.60,7.84,-7.84,-7.78,-7.35,5.61,5.76,5.76
45.23,13.54,7.79,13.58,7.85,-7.85,-7.79,-7.36,5.69,5.73,5.75
45.68,13.73,8.02,13.57,7.86,-7.86,-7.80,-7.38,5.87,5.70,5.71
46.13,13.79,8.12,13.55,7.87,-7.87,-7.82,-7.41,5.92,5.67,5.67
46.60,13.56,7.91,13.52,7.88,-7.88,-7.83,-7.44,5.68,5.64,5.64
47.06,13.35,7.74,13.48,7.87,-7.87,-7.84,-7.48,5.48,5.61,5.61
47.53,13.35,7.77,13.43,7.86,-7.86,-7.85,-7.52,5.49,5.57,5.58
48.01,13.35,7.82,13.42,7.88,-7.88,-7.86,-7.57,5.47,5.53,5.53
48.49,13.36,7.87,13.43,7.93,-7.93,-7.88,-7.62,5.43,5.50,5.49
48.97,13.37,7.92,13.43,7.97,-7.97,-7.89,-7.67,5.40,5.46,5.45
49.46,13.44,8.02,13.41,8.00,-8.00,-7.90,-7.73,5.45,5.42,5.42
49.96,13.51,8.15,13.38,8.00,-8.00,-7.91,-7.80,5.51,5.38,5.36
50.46,13.40,8.08,13.35,8.01,-8.01,-7.93,-7.87,5.39,5.34,5.33
50.96,13.26,7.97,13.34,8.04,-8.04,-7.94,-7.94,5.23,5.30,5.30
51.47,13.25,7.99,13.34,8.08,-8.08,-7.96,-8.01,5.18,5.26,5.26
51.99,13.25,8.03,13.35,8.13,-8.13,-7.97,-8.09,5.13,5.22,5.22
52.51,13.42,8.23,13.34,8.16,-8.16,-7.98,-8.17,5.26,5.18,5.19
53.03,13.58,8.42,13.32,8.18,-8.18,-8.00,-8.25,5.41,5.15,5.16
53.56,13.34,8.22,13.31,8.20,-8.20,-8.01,-8.33,5.14,5.11,5.12
54.10,13.16,8.08,13.30,8.23,-8.23,-8.03,-8.41,4.93,5.07,5.07
54.64,13.15,8.12,13.28,8.24,-8.24,-8.04,-8.50,4.91,5.04,5.04
55.18,13.20,8.21,13.25,8.24,-8.24,-8.06,-8.58,4.96,5.01,4.99
55.74,13.36,8.41,13.22,8.25,-8.25,-8.07,-8.66,5.12,4.97,4.96
56.29,13.33,8.40,13.22,8.28,-8.28,-8.09,-8.73,5.06,4.94,4.93
56.86,13.12,8.21,13.21,8.30,-8.30,-8.11,-8.81,4.82,4.91,4.90
57.42,13.08,8.23,13.18,8.31,-8.31,-8.12,-8.88,4.77,4.87,4.85
58.00,13.12,8.29,13.15,8.32,-8.32,-8.14,-8.94,4.81,4.84,4.83
58.58,13.20,8.39,13.11,8.31,-8.31,-8.16,-9.00,4.89,4.80,4.81
59.16,13.20,8.42,13.08,8.31,-8.31,-8.17,-9.05,4.89,4.76,4.78
59.76,13.03,8.27,13.08,8.35,-8.35,-8.19,-9.10,4.67,4.72,4.75
60.35,12.95,8.25,13.07,8.38,-8.38,-8.21,-9.14,4.57,4.69,4.70
60.96,12.95,8.29,13.05,8.40,-8.40,-8.23,-9.17,4.55,4.64,4.66
61.57,13.11,8.51,13.01,8.41,-8.41,-8.25,-9.20,4.70,4.60,4.61
62.18,13.16,8.61,12.99,8.43,-8.43,-8.27,-9.21,4.74,4.56,4.55
62.80,12.92,8.43,12.99,8.47,-8.47,-8.28,-9.22,4.45,4.52,4.50
63.43,12.85,8.40,12.99,8.52,-8.52,-8.30,-9.21,4.34,4.47,4.45
64.07,12.85,8.44,12.97,8.54,-8.54,-8.32,-9.20,4.31,4.43,4.42
64.71,12.87,8.50,12.93,8.55,-8.55,-8.34,-9.18,4.32,4.38,4.37
65.35,12.97,8.64,12.91,8.58,-8.58,-8.36,-9.16,4.40,4.33,4.33
66.01,13.12,8.84,12.88,8.59,-8.59,-8.38,-9.12,4.53,4.29,4.29
66.67,12.87,8.62,12.86,8.62,-8.62,-8.41,-9.08,4.26,4.24,4.26
67.33,12.75,8.56,12.84,8.64,-8.64,-8.43,-9.03,4.11,4.20,4.20
68.01,12.75,8.60,12.81,8.65,-8.65,-8.45,-8.98,4.10,4.15,4.16
68.69,12.93,8.83,12.77,8.66,-8.66,-8.47,-8.92,4.28,4.11,4.10
69.37,12.85,8.78,12.73,8.67,-8.67,-8.49,-8.86,4.19,4.06,4.07
70.07,12.57,8.56,12.70,8.68,-8.68,-8.51,-8.80,3.89,4.02,4.02
70.77,12.48,8.51,12.67,8.70,-8.70,-8.53,-8.73,3.78,3.97,3.98
71.48,12.56,8.63,12.63,8.71,-8.71,-8.55,-8.66,3.85,3.92,3.93
72.19,12.65,8.78,12.59,8.72,-8.72,-8.57,-8.59,3.94,3.88,3.88
72.91,12.52,8.70,12.56,8.72,-8.72,-8.60,-8.52,3.80,3.83,3.83
73.64,12.62,8.84,12.53,8.74,-8.74,-8.62,-8.45,3.89,3.79,3.78
74.38,12.56,8.82,12.51,8.76,-8.76,-8.64,-8.38,3.80,3.75,3.74
75.12,12.35,8.66,12.47,8.76,-8.76,-8.66,-8.31,3.60,3.71,3.69
75.87,12.35,8.69,12.42,8.75,-8.75,-8.68,-8.25,3.60,3.67,3.66
76.63,12.39,8.77,12.39,8.76,-8.76,-8.70,-8.19,3.64,3.63,3.62
77.40,12.48,8.89,12.37,8.77,-8.77,-8.72,-8.13,3.71,3.59,3.59
78.17,12.51,8.96,12.34,8.78,-8.78,-8.74,-8.07,3.73,3.56,3.55
78.95,12.26,8.74,12.31,8.78,-8.78,-8.77,-8.02,3.48,3.52,3.53
79.74,12.25,8.76,12.27,8.78,-8.78,-8.79,-7.97,3.47,3.49,3.49
80.54,12.20,8.75,12.24,8.79,-8.79,-8.81,-7.93,3.42,3.45,3.46
81.35,12.12,8.70,12.22,8.79,-8.79,-8.82,-7.89,3.33,3.42,3.42
82.16,12.06,8.67,12.18,8.79,-8.79,-8.84,-7.85,3.27,3.39,3.40
82.98,12.04,8.69,12.14,8.79,-8.79,-8.86,-7.82,3.25,3.35,3.36
83.81,12.21,8.89,12.11,8.79,-8.79,-8.88,-7.80,3.42,3.32,3.32
84.65,12.15,8.87,12.07,8.79,-8.79,-8.90,-7.78,3.36,3.28,3.28
85.50,12.02,8.79,12.03,8.78,-8.78,-8.91,-7.77,3.24,3.24,3.23
86.35,12.00,8.80,11.98,8.77,-8.77,-8.93,-7.76,3.23,3.21,3.20
87.22,12.09,8.92,11.94,8.77,-8.77,-8.95,-7.76,3.32,3.17,3.17
88.09,11.97,8.84,11.91,8.78,-8.78,-8.96,-7.76,3.19,3.13,3.13
88.97,11.83,8.74,11.88,8.79,-8.79,-8.98,-7.77,3.04,3.09,3.10
89.86,11.76,8.72,11.85,8.80,-8.80,-8.99,-7.79,2.96,3.05,3.04
90.76,11.69,8.68,11.82,8.81,-8.81,-9.00,-7.81,2.89,3.01,3.01
91.66,11.70,8.75,11.77,8.81,-8.81,-9.01,-7.84,2.89,2.96,2.96
92.58,11.77,8.85,11.72,8.80,-8.80,-9.02,-7.87,2.97,2.92,2.92
93.51,11.69,8.82,11.66,8.80,-8.80,-9.03,-7.91,2.90,2.87,2.88
94.44,11.57,8.74,11.62,8.80,-8.80,-9.04,-7.95,2.77,2.82,2.83
95.39,11.55,8.78,11.58,8.82,-8.82,-9.05,-8.00,2.74,2.77,2.78
96.34,11.57,8.85,11.54,8.82,-8.82,-9.05,-8.05,2.75,2.72,2.72
97.30,11.62,8.96,11.48,8.82,-8.82,-9.06,-8.11,2.80,2.66,2.66
98.28,11.56,8.96,11.44,8.83,-8.83,-9.06,-8.17,2.74,2.61,2.61
99.26,11.28,8.74,11.39,8.84,-8.84,-9.06,-8.24,2.45,2.55,2.54
100.25,11.29,8.81,11.33,8.84,-8.84,-9.06,-8.31,2.46,2.49,2.48
101.25,11.23,8.80,11.28,8.84,-8.84,-9.06,-8.39,2.39,2.44,2.43
102.27,11.18,8.81,11.21,8.83,-8.83,-9.06,-8.46,2.36,2.38,2.38
103.29,11.16,8.84,11.13,8.81,-8.81,-9.06,-8.55,2.36,2.32,2.32
104.32,11.11,8.84,11.05,8.79,-8.79,-9.06,-8.63,2.32,2.27,2.27
105.37,10.98,8.77,10.98,8.77,-8.77,-9.05,-8.72,2.21,2.21,2.21
106.42,10.88,8.73,10.91,8.75,-8.75,-9.04,-8.80,2.13,2.15,2.16
107.48,10.80,8.72,10.84,8.74,-8.74,-9.04,-8.89,2.06,2.10,2.09
108.56,10.77,8.72,10.78,8.73,-8.73,-9.03,-8.98,2.04,2.04,2.05
109.64,10.80,8.81,10.72,8.73,-8.73,-9.01,-9.06,2.07,1.99,1.99
110.74,10.68,8.75,10.67,8.73,-8.73,-9.00,-9.15,1.95,1.94,1.94
111.85,10.56,8.68,10.60,8.72,-8.72,-8.99,-9.23,1.85,1.89,1.89
112.97,10.38,8.54,10.54,8.70,-8.70,-8.97,-9.31,1.68,1.84,1.84
114.10,10.40,8.61,10.49,8.70,-8.70,-8.96,-9.39,1.70,1.79,1.79
115.24,10.52,8.79,10.44,8.70,-8.70,-8.94,-9.46,1.82,1.74,1.74
116.39,10.46,8.78,10.39,8.70,-8.70,-8.92,-9.52,1.76,1.70,1.68
117.55,10.44,8.80,10.35,8.70,-8.70,-8.90,-9.58,1.74,1.65,1.65
118.73,10.39,8.80,10.31,8.70,-8.70,-8.88,-9.62,1.69,1.61,1.59
119.92,10.16,8.61,10.27,8.70,-8.70,-8.86,-9.66,1.46,1.57,1.56
121.12,10.15,8.62,10.23,8.70,-8.70,-8.83,-9.69,1.45,1.53,1.53
122.33,10.16,8.67,10.19,8.70,-8.70,-8.81,-9.71,1.47,1.49,1.49
123.55,10.13,8.68,10.15,8.70,-8.70,-8.78,-9.73,1.44,1.45,1.46
124.79,10.14,8.72,10.11,8.70,-8.70,-8.76,-9.73,1.45,1.41,1.42
126.03,10.17,8.79,10.07,8.69,-8.69,-8.73,-9.72,1.48,1.37,1.38
127.29,9.98,8.64,10.01,8.68,-8.68,-8.70,-9.69,1.31,1.34,1.34
128.57,9.90,8.60,9.96,8.66,-8.66,-8.67,-9.66,1.25,1.30,1.30
129.85,9.97,8.71,9.92,8.65,-8.65,-8.65,-9.62,1.32,1.26,1.26
131.15,9.89,8.67,9.87,8.65,-8.65,-8.62,-9.57,1.25,1.23,1.22
132.46,9.81,8.63,9.83,8.65,-8.65,-8.59,-9.51,1.17,1.19,1.18
133.79,9.75,8.61,9.80,8.65,-8.65,-8.55,-9.44,1.11,1.15,1.15
135.12,9.69,8.58,9.75,8.63,-8.63,-8.52,-9.37,1.06,1.11,1.11
136.48,9.68,8.60,9.69,8.62,-8.62,-8.49,-9.29,1.07,1.08,1.08
137.84,9.69,8.65,9.64,8.60,-8.60,-8.46,-9.20,1.09,1.04,1.05
139.22,9.60,8.61,9.59,8.59,-8.59,-8.43,-9.11,1.02,1.00,0.99
140.61,9.55,8.58,9.54,8.57,-8.57,-8.40,-9.01,0.98,0.97,0.97
142.02,9.49,8.57,9.50,8.57,-8.57,-8.37,-8.91,0.93,0.93,0.93
143.44,9.46,8.58,9.44,8.55,-8.55,-8.33,-8.81,0.91,0.89,0.89
144.87,9.39,8.54,9.39,8.53,-8.53,-8.30,-8.71,0.86,0.86,0.86
146.32,9.36,8.54,9.34,8.52,-8.52,-8.27,-8.61,0.85,0.82,0.83
147.78,9.26,8.48,9.29,8.51,-8.51,-8.24,-8.51,0.76,0.79,0.79
149.26,9.18,8.44,9.24,8.49,-8.49,-8.21,-8.40,0.69,0.75,0.75
150.75,9.16,8.46,9.18,8.47,-8.47,-8.18,-8.30,0.69,0.71,0.70
152.26,9.13,8.46,9.12,8.45,-8.45,-8.15,-8.21,0.69,0.67,0.67
153.78,9.06,8.43,9.06,8.43,-8.43,-8.12,-8.11,0.64,0.63,0.64
155.32,9.00,8.40,9.00,8.41,-8.41,-8.09,-8.02,0.60,0.59,0.60
156.88,8.95,8.40,8.94,8.39,-8.39,-8.07,-7.93,0.56,0.55,0.56
158.44,8.88,8.37,8.88,8.37,-8.37,-8.04,-7.84,0.51,0.51,0.52
160.03,8.86,8.39,8.82,8.35,-8.35,-8.01,-7.76,0.52,0.47,0.47
161.63,8.78,8.35,8.75,8.33,-8.33,-7.99,-7.69,0.46,0.43,0.43
163.24,8.69,8.31,8.69,8.30,-8.30,-7.97,-7.61,0.39,0.38,0.38
164.88,8.58,8.24,8.62,8.28,-8.28,-7.94,-7.55,0.30,0.34,0.34
166.53,8.55,8.26,8.55,8.26,-8.26,-7.92,-7.48,0.30,0.29,0.29
168.19,8.47,8.22,8.48,8.23,-8.23,-7.90,-7.43,0.24,0.25,0.25
169.87,8.43,8.23,8.42,8.21,-8.21,-7.88,-7.37,0.22,0.21,0.21
171.57,8.34,8.19,8.35,8.19,-8.19,-7.86,-7.33,0.15,0.16,0.16
173.29,8.29,8.18,8.29,8.17,-8.17,-7.85,-7.29,0.12,0.12,0.11
175.02,8.19,8.12,8.23,8.15,-8.15,-7.83,-7.25,0.04,0.08,0.08
176.77,8.11,8.08,8.17,8.13,-8.13,-7.82,-7.22,-0.02,0.03,0.03
178.54,8.10,8.11,8.11,8.12,-8.12,-7.80,-7.19,-0.01,-0.01,-0.01
180.32,8.07,8.13,8.06,8.10,-8.10,-7.79,-7.17,-0.03,-0.04,-0.05
182.13,8.02,8.11,8.01,8.09,-8.09,-7.78,-7.16,-0.07,-0.08,-0.09
183.95,7.96,8.08,7.96,8.09,-8.09,-7.77,-7.15,-0.12,-0.12,-0.12
185.79,7.92,8.08,7.92,8.07,-8.07,-7.76,-7.14,-0.15,-0.16,-0.16
187.65,7.86,8.05,7.87,8.06,-8.06,-7.75,-7.14,-0.20,-0.19,-0.19
189.52,7.80,8.03,7.82,8.05,-8.05,-7.74,-7.15,-0.24,-0.23,-0.23
191.42,7.77,8.02,7.77,8.03,-8.03,-7.74,-7.16,-0.26,-0.26,-0.25
193.33,7.71,8.00,7.72,8.02,-8.02,-7.73,-7.17,-0.30,-0.29,-0.29
195.27,7.70,8.03,7.67,8.00,-8.00,-7.73,-7.19,-0.29,-0.33,-0.33
197.22,7.64,8.01,7.61,7.97,-7.97,-7.72,-7.21,-0.33,-0.36,-0.36
199.19,7.56,7.95,7.55,7.94,-7.94,-7.72,-7.24,-0.37,-0.39,-0.39
201.18,7.52,7.95,7.49,7.91,-7.91,-7.72,-7.27,-0.39,-0.42,-0.43
203.19,7.44,7.90,7.43,7.88,-7.88,-7.71,-7.30,-0.44,-0.45,-0.45
205.23,7.36,7.84,7.37,7.85,-7.85,-7.71,-7.34,-0.49,-0.48,-0.48
207.28,7.28,7.79,7.31,7.82,-7.82,-7.71,-7.38,-0.54,-0.51,-0.50
209.35,7.22,7.76,7.24,7.79,-7.79,-7.70,-7.42,-0.56,-0.54,-0.54
211.44,7.15,7.72,7.18,7.75,-7.75,-7.70,-7.46,-0.60,-0.57,-0.57
213.56,7.08,7.68,7.11,7.71,-7.71,-7.69,-7.50,-0.62,-0.60,-0.59
215.69,7.04,7.67,7.04,7.67,-7.67,-7.69,-7.54,-0.62,-0.63,-0.63
217.85,6.95,7.60,6.97,7.62,-7.62,-7.68,-7.59,-0.67,-0.65,-0.65
220.03,6.93,7.62,6.90,7.58,-7.58,-7.67,-7.63,-0.65,-0.68,-0.69
222.23,6.88,7.59,6.84,7.54,-7.54,-7.66,-7.67,-0.66,-0.70,-0.71
224.45,6.77,7.51,6.77,7.50,-7.50,-7.65,-7.70,-0.72,-0.72,-0.73
226.70,6.72,7.48,6.71,7.45,-7.45,-7.64,-7.74,-0.73,-0.74,-0.75
228.96,6.66,7.43,6.65,7.41,-7.41,-7.62,-7.77,-0.75,-0.76,-0.76
231.25,6.55,7.33,6.59,7.37,-7.37,-7.60,-7.79,-0.81,-0.77,-0.77
233.57,6.48,7.28,6.53,7.32,-7.32,-7.58,-7.81,-0.83,-0.79,-0.79
235.90,6.45,7.26,6.48,7.27,-7.27,-7.55,-7.83,-0.82,-0.79,-0.80
238.26,6.43,7.24,6.42,7.22,-7.22,-7.53,-7.83,-0.79,-0.80,-0.81
240.64,6.35,7.15,6.37,7.17,-7.17,-7.49,-7.83,-0.82,-0.81,-0.80
243.05,6.30,7.11,6.31,7.12,-7.12,-7.46,-7.83,-0.82,-0.81,-0.81
245.48,6.25,7.07,6.26,7.07,-7.07,-7.42,-7.81,-0.82,-0.81,-0.82
247.93,6.22,7.05,6.21,7.02,-7.02,-7.38,-7.79,-0.80,-0.82,-0.82
250.41,6.17,6.98,6.16,6.98,-6.98,-7.33,-7.75,-0.81,-0.82,-0.81
252.92,6.11,6.92,6.11,6.93,-6.93,-7.28,-7.71,-0.82,-0.82,-0.81
255.45,6.07,6.90,6.06,6.89,-6.89,-7.23,-7.66,-0.81,-0.83,-0.82
258.00,6.01,6.84,6.01,6.84,-6.84,-7.17,-7.60,-0.83,-0.83,-0.82
260.58,5.95,6.78,5.95,6.79,-6.79,-7.11,-7.54,-0.83,-0.84,-0.83
263.19,5.90,6.74,5.89,6.73,-6.73,-7.04,-7.46,-0.83,-0.84,-0.83
265.82,5.82,6.67,5.83,6.68,-6.68,-6.98,-7.38,-0.86,-0.85,-0.85
268.48,5.76,6.62,5.76,6.62,-6.62,-6.90,-7.29,-0.86,-0.86,-0.86
271.16,5.71,6.58,5.69,6.56,-6.56,-6.83,-7.20,-0.85,-0.87,-0.87
273.87,5.62,6.50,5.62,6.50,-6.50,-6.75,-7.10,-0.87,-0.88,-0.88
276.61,5.57,6.47,5.55,6.43,-6.43,-6.67,-6.99,-0.86,-0.89,-0.89
279.38,5.46,6.38,5.47,6.37,-6.37,-6.58,-6.88,-0.90,-0.90,-0.92
282.17,5.40,6.31,5.40,6.30,-6.30,-6.49,-6.77,-0.90,-0.90,-0.91
284.99,5.31,6.23,5.33,6.23,-6.23,-6.40,-6.65,-0.92,-0.91,-0.92
287.84,5.21,6.12,5.26,6.17,-6.17,-6.31,-6.53,-0.95,-0.91,-0.91
290.72,5.21,6.14,5.19,6.10,-6.10,-6.22,-6.41,-0.89,-0.91,-0.92
293.63,5.10,6.02,5.12,6.03,-6.03,-6.12,-6.29,-0.93,-0.92,-0.92
296.57,5.00,5.92,5.05,5.97,-5.97,-6.02,-6.17,-0.97,-0.92,-0.91
299.53,4.96,5.88,4.99,5.91,-5.91,-5.92,-6.05,-0.94,-0.92,-0.92
302.53,4.92,5.83,4.93,5.84,-5.84,-5.82,-5.93,-0.92,-0.92,-0.91
305.55,4.88,5.80,4.87,5.79,-5.79,-5.72,-5.81,-0.90,-0.92,-0.91
308.61,4.81,5.72,4.81,5.73,-5.73,-5.62,-5.69,-0.91,-0.92,-0.91
311.69,4.76,5.68,4.75,5.67,-5.67,-5.52,-5.57,-0.91,-0.92,-0.92
314.81,4.70,5.62,4.70,5.61,-5.61,-5.42,-5.45,-0.91,-0.92,-0.91
317.96,4.63,5.56,4.64,5.56,-5.56,-5.32,-5.34,-0.92,-0.92,-0.93
321.14,4.58,5.50,4.57,5.49,-5.49,-5.21,-5.23,-0.91,-0.92,-0.92
324.35,4.51,5.43,4.51,5.42,-5.42,-5.11,-5.12,-0.91,-0.92,-0.92
327.59,4.45,5.37,4.44,5.36,-5.36,-5.01,-5.01,-0.91,-0.92,-0.91
330.87,4.39,5.31,4.37,5.29,-5.29,-4.91,-4.91,-0.90,-0.92,-0.92
334.18,4.30,5.23,4.30,5.22,-5.22,-4.81,-4.81,-0.92,-0.92,-0.93
337.52,4.25,5.17,4.22,5.14,-5.14,-4.71,-4.71,-0.89,-0.92,-0.92
340.90,4.13,5.06,4.15,5.06,-5.06,-4.61,-4.61,-0.93,-0.92,-0.92
344.30,4.06,4.98,4.07,4.98,-4.98,-4.51,-4.52,-0.92,-0.91,-0.92
347.75,3.99,4.90,3.99,4.90,-4.90,-4.42,-4.43,-0.91,-0.91,-0.91
351.23,3.88,4.80,3.91,4.82,-4.82,-4.32,-4.35,-0.94,-0.91,-0.92
354.74,3.80,4.70,3.84,4.74,-4.74,-4.23,-4.27,-0.94,-0.90,-0.90
358.28,3.78,4.69,3.76,4.66,-4.66,-4.14,-4.19,-0.88,-0.90,-0.90
361.87,3.70,4.60,3.69,4.58,-4.58,-4.05,-4.11,-0.88,-0.89,-0.89
365.49,3.61,4.50,3.62,4.51,-4.51,-3.96,-4.04,-0.89,-0.89,-0.89
369.14,3.52,4.40,3.55,4.43,-4.43,-3.87,-3.97,-0.91,-0.88,-0.88
372.83,3.47,4.34,3.49,4.37,-4.37,-3.78,-3.91,-0.89,-0.88,-0.87
376.56,3.42,4.29,3.43,4.30,-4.30,-3.69,-3.84,-0.88,-0.87,-0.87
380.33,3.35,4.23,3.37,4.24,-4.24,-3.61,-3.78,-0.88,-0.87,-0.87
384.13,3.31,4.18,3.30,4.18,-4.18,-3.53,-3.72,-0.86,-0.87,-0.86
387.97,3.25,4.12,3.24,4.11,-4.11,-3.45,-3.67,-0.86,-0.87,-0.87
391.85,3.18,4.05,3.18,4.05,-4.05,-3.37,-3.62,-0.87,-0.88,-0.87
395.77,3.13,4.01,3.11,3.99,-3.99,-3.29,-3.57,-0.86,-0.88,-0.88
399.73,3.05,3.93,3.04,3.93,-3.93,-3.21,-3.52,-0.88,-0.88,-0.88
403.72,2.99,3.86,2.98,3.87,-3.87,-3.14,-3.47,-0.88,-0.89,-0.87
407.76,2.94,3.83,2.92,3.81,-3.81,-3.06,-3.43,-0.87,-0.89,-0.89
411.84,2.89,3.79,2.85,3.74,-3.74,-2.99,-3.39,-0.85,-0.89,-0.89
415.96,2.77,3.67,2.78,3.68,-3.68,-2.92,-3.34,-0.90,-0.89,-0.89
420.12,2.70,3.61,2.72,3.61,-3.61,-2.85,-3.31,-0.91,-0.89,-0.90
424.32,2.64,3.54,2.66,3.54,-3.54,-2.78,-3.27,-0.90,-0.88,-0.89
428.56,2.58,3.46,2.60,3.47,-3.47,-2.71,-3.23,-0.89,-0.87,-0.88
432.85,2.55,3.41,2.55,3.40,-3.40,-2.64,-3.19,-0.85,-0.85,-0.86
437.18,2.50,3.35,2.52,3.34,-3.34,-2.58,-3.16,-0.83,-0.82,-0.85
441.55,2.46,3.27,2.48,3.27,-3.27,-2.52,-3.12,-0.81,-0.79,-0.81
445.96,2.42,3.19,2.45,3.21,-3.21,-2.45,-3.09,-0.78,-0.75,-0.77
450.42,2.35,3.08,2.43,3.15,-3.15,-2.39,-3.05,-0.79,-0.71,-0.73
454.93,2.37,3.05,2.42,3.08,-3.08,-2.33,-3.02,-0.71,-0.66,-0.68
459.48,2.43,3.05,2.40,3.01,-3.01,-2.27,-2.98,-0.58,-0.61,-0.62
464.07,2.39,2.95,2.39,2.95,-2.95,-2.22,-2.94,-0.56,-0.56,-0.55
468.71,2.37,2.88,2.38,2.89,-2.89,-2.16,-2.91,-0.51,-0.50,-0.50
473.40,2.39,2.84,2.37,2.82,-2.82,-2.10,-2.87,-0.42,-0.45,-0.44
478.13,2.40,2.79,2.35,2.75,-2.75,-2.05,-2.83,-0.34,-0.40,-0.38
482.91,2.40,2.74,2.33,2.68,-2.68,-1.99,-2.79,-0.27,-0.35,-0.33
487.74,2.32,2.62,2.31,2.61,-2.61,-1.94,-2.74,-0.29,-0.30,-0.29
