frequency,raw
20,-16.18
21,-15.11
22,-14.11
23,-12.90
24,-10.27
25,-6.83
26,-4.00
27,-1.86
28,0.42
29,1.37
30,-0.73
31,-3.17
32,-5.41
33,-7.13
34,-8.29
35,-9.13
36,-9.80
37,-9.77
38,-9.07
39,-8.36
40,-7.35
41,-5.82
42,-4.72
43,-3.71
44,-2.96
45,-2.74
46,-2.30
47,-1.82
48,-1.32
49,-1.01
50,-0.68
51,-0.64
52,-0.46
53,-0.46
54,-0.46
55,-0.46
56,-0.46
57,-0.68
58,-0.68
59,-0.68
60,-0.68
61,-0.46
62,-0.46
63,-0.23
64,0.10
65,0.62
66,1.24
67,2.20
68,3.30
69,4.41
70,5.46
71,6.67
72,7.89
73,9.02
74,9.89
75,10.77
76,11.59
77,12.44
78,13.09
79,13.67
80,14.22
81,14.95
82,15.76
83,16.50
84,17.13
85,17.51
86,17.90
87,18.11
88,17.66
89,16.91
90,16.09
91,15.20
92,14.20
93,13.20
94,12.22
95,11.48
96,10.82
97,10.17
98,9.43
99,8.67
100,7.99
101,7.46
102,6.94
104,5.81
105,5.23
106,4.69
107,4.20
108,3.81
109,3.34
110,2.97
111,2.49
112,2.02
113,1.55
114,1.09
115,0.63
117,-0.17
118,-0.60
119,-0.94
120,-1.38
121,-1.59
123,-2.24
124,-2.56
125,-2.96
126,-3.31
128,-4.10
129,-4.46
130,-4.70
131,-4.82
133,-5.22
134,-5.42
135,-5.47
137,-5.39
138,-5.20
140,-5.30
141,-5.58
142,-6.08
144,-7.50
145,-8.23
147,-10.12
148,-11.16
150,-14.09
151,-15.53
153,-17.61
154,-17.18
156,-15.02
157,-13.74
159,-11.35
160,-10.55
162,-9.32
164,-8.51
165,-8.27
167,-8.21
169,-8.21
170,-8.27
172,-8.43
174,-8.65
175,-8.80
177,-9.10
179,-9.34
181,-9.46
183,-9.57
184,-9.67
186,-9.80
188,-10.01
190,-10.03
192,-10.03
194,-10.03
196,-10.03
198,-10.03
200,-10.02
202,-9.80
204,-9.80
206,-9.80
208,-9.67
210,-9.57
212,-9.57
214,-9.38
216,-9.34
218,-9.34
221,-9.21
223,-9.12
225,-8.97
227,-8.74
229,-8.50
232,-8.16
234,-7.94
236,-7.71
239,-7.31
241,-7.05
244,-6.61
246,-6.39
248,-6.18
251,-5.86
253,-5.65
256,-5.47
259,-5.26
261,-5.06
264,-4.99
266,-4.79
269,-4.79
272,-4.79
274,-4.79
277,-4.79
280,-4.79
283,-4.79
286,-4.79
288,-4.79
291,-4.79
294,-4.79
297,-4.79
300,-4.79
303,-4.79
306,-4.79
309,-4.79
312,-4.79
316,-4.79
319,-5.01
322,-5.00
325,-4.79
328,-4.79
332,-4.79
335,-4.64
338,-4.41
342,-4.33
345,-4.10
349,-4.02
352,-3.87
356,-3.87
359,-3.73
363,-3.65
366,-3.65
370,-3.67
374,-3.87
377,-3.94
381,-4.10
385,-4.10
389,-3.90
393,-3.86
397,-3.65
401,-3.65
405,-3.52
409,-3.42
413,-3.42
417,-3.42
421,-3.19
425,-3.16
430,-2.96
434,-2.96
438,-2.83
443,-2.74
447,-2.74
451,-2.74
456,-2.51
460,-2.45
465,-2.28
470,-2.28
474,-2.12
479,-2.05
484,-1.82
489,-1.82
494,-1.71
499,-1.60
504,-1.60
509,-1.60
514,-1.37
519,-1.37
524,-1.37
529,-1.37
535,-1.37
540,-1.37
545,-1.37
551,-1.37
556,-1.37
562,-1.37
568,-1.37
573,-1.37
579,-1.37
585,-1.37
591,-1.37
596,-1.33
602,-1.14
608,-1.14
615,-1.14
621,-1.14
627,-1.14
633,-1.14
639,-1.09
646,-0.91
652,-0.91
659,-0.91
665,-0.91
672,-0.91
679,-0.91
686,-0.91
692,-0.91
699,-0.91
706,-0.91
713,-0.91
721,-0.91
728,-0.91
735,-0.82
742,-0.68
750,-0.68
757,-0.68
765,-0.68
773,-0.68
780,-0.68
788,-0.68
796,-0.68
804,-0.68
812,-0.68
820,-0.68
828,-0.65
837,-0.46
845,-0.46
853,-0.46
862,-0.46
871,-0.46
879,-0.46
888,-0.46
897,-0.36
906,-0.23
915,-0.23
924,-0.23
933,-0.23
943,-0.23
952,-0.23
962,-0.23
971,-0.10
981,-0.00
991,-0.00
1001,0.00
1011,0.05
1021,0.23
1031,0.23
1041,0.23
1052,0.23
1062,0.23
1073,0.25
1084,0.46
1094,0.46
1105,0.46
1116,0.60
1128,0.68
1139,0.68
1150,0.68
1162,0.75
1173,0.91
1185,0.91
1197,0.91
1209,0.91
1221,1.14
1233,1.14
1246,1.14
1258,1.25
1271,1.37
1283,1.37
1296,1.37
1309,1.37
1322,1.37
1335,1.37
1349,1.37
1362,1.51
1376,1.60
1390,1.60
1404,1.60
1418,1.60
1432,1.60
1446,1.60
1461,1.60
1475,1.60
1490,1.60
1505,1.60
1520,1.60
1535,1.60
1550,1.60
1566,1.60
1582,1.60
1597,1.60
1613,1.60
1629,1.60
1646,1.60
1662,1.60
1679,1.78
1696,1.82
1713,2.05
1730,2.14
1747,2.48
1764,2.80
1782,3.12
1800,3.48
1818,3.76
1836,4.26
1854,4.65
1873,5.10
1892,5.50
1911,5.85
1930,6.13
1949,6.39
1969,6.61
1988,6.68
2008,6.95
2028,7.07
2048,7.07
2069,7.07
2090,6.84
2111,6.78
2132,6.52
2153,6.38
2175,6.22
2196,6.15
2218,5.93
2240,5.66
2263,5.26
2285,4.92
2308,4.66
2331,4.56
2355,4.35
2378,4.10
2402,3.70
2426,3.34
2450,3.08
2475,2.96
2500,2.78
2525,2.52
2550,2.26
2575,2.00
2601,1.74
2627,1.60
2653,1.45
2680,1.37
2707,1.14
2734,0.88
2761,0.62
2789,0.46
2817,0.32
2845,0.23
2873,0.03
2902,-0.01
2931,-0.23
2960,-0.23
2990,-0.12
3020,-0.00
3050,-0.00
3080,-0.20
3111,-0.47
3142,-0.73
3174,-1.00
3206,-1.14
3238,-1.14
3270,-1.14
3303,-0.81
3336,-0.27
3369,0.40
3403,1.25
3437,2.16
3471,3.15
3506,4.50
3541,5.71
3576,7.09
3612,8.07
3648,8.75
3685,9.21
3721,9.51
3759,9.57
3796,9.56
3834,9.34
3873,9.26
3911,9.01
3950,8.60
3990,7.98
4030,7.43
4070,6.91
4111,6.41
4152,5.97
4193,5.39
4235,4.74
4278,4.07
4321,3.42
4364,2.88
4407,2.26
4451,1.69
4496,1.10
4541,0.49
4586,-0.06
4632,-0.46
4679,-0.73
4725,-1.02
4773,-1.42
4820,-1.88
4868,-2.49
4917,-3.05
4966,-3.80
5016,-4.38
5066,-5.12
5117,-5.96
5168,-7.00
5220,-8.15
5272,-9.44
5325,-10.64
5378,-11.98
5432,-13.28
5486,-13.99
5541,-13.55
5596,-12.44
5652,-11.26
5709,-10.25
5766,-9.50
5823,-8.96
5882,-8.56
5940,-8.26
6000,-8.21
6060,-8.21
6120,-8.21
6182,-8.21
6244,-8.33
6306,-8.43
6369,-8.62
6433,-8.66
6497,-8.66
6562,-8.66
6628,-8.56
6694,-8.43
6761,-8.27
6828,-8.40
6897,-8.43
6966,-8.43
7035,-8.36
7106,-8.15
7177,-7.88
7249,-7.57
7321,-7.31
7394,-6.93
7468,-6.49
7543,-5.87
7618,-5.35
7694,-4.91
7771,-4.60
7849,-4.34
7928,-4.05
8007,-3.50
8087,-2.85
8168,-2.13
8250,-1.50
8332,-0.88
8415,-0.34
8499,0.52
8584,1.08
8670,1.63
8757,1.96
8845,2.05
8933,2.05
9022,1.82
9113,1.78
9204,1.52
9296,1.25
9389,0.99
9483,0.73
9577,0.47
9673,0.46
9770,0.46
9868,0.46
9966,0.33
10066,0.23
10167,0.23
10268,0.23
10371,-0.00
10475,-0.00
10579,0.10
10685,0.23
10792,0.40
10900,0.46
11009,0.22
11119,0.05
11230,-0.34
11343,-0.79
11456,-1.24
11571,-1.73
11686,-2.14
11803,-2.30
11921,-2.59
12040,-3.02
12161,-3.55
12282,-4.07
12405,-4.78
12529,-5.46
12655,-6.50
12781,-7.55
12909,-8.60
13038,-9.45
13168,-10.10
13300,-10.46
13433,-10.48
13567,-10.05
13703,-9.39
13840,-8.79
13978,-8.34
14118,-8.03
14259,-7.98
14402,-7.84
14546,-7.62
14692,-8.15
14838,-8.84
14987,-9.76
15137,-11.15
15288,-12.61
15441,-13.91
15595,-14.87
15751,-15.14
15909,-15.27
16068,-15.60
16229,-16.02
16391,-16.41
16555,-16.64
16720,-16.57
16888,-16.30
17056,-16.46
17227,-17.07
17399,-18.03
17573,-19.08
17749,-19.97
17926,-20.67
18106,-21.26
18287,-21.99
18470,-22.77
18654,-23.12
18841,-22.24
19029,-21.20
19220,-20.24
19412,-19.64
19606,-19.41
19802,-19.57
20000,-19.94
