frequency,raw
20,-14.36
21,-13.32
22,-12.47
23,-11.65
24,-10.84
25,-10.06
26,-9.41
27,-8.70
28,-8.13
29,-7.59
30,-7.15
31,-6.73
32,-6.46
33,-6.11
34,-5.77
35,-5.60
36,-5.29
37,-5.28
38,-5.00
39,-4.95
40,-4.79
41,-4.63
42,-4.63
43,-4.63
44,-4.63
45,-4.63
46,-4.63
47,-4.63
48,-4.63
49,-4.86
50,-4.95
51,-4.95
52,-4.95
53,-4.95
54,-4.93
55,-4.79
56,-4.68
57,-4.63
58,-4.63
59,-4.58
60,-4.39
61,-4.31
62,-4.31
63,-4.31
64,-4.14
65,-4.14
66,-4.12
67,-3.98
68,-3.98
69,-3.98
70,-3.98
71,-3.98
72,-3.98
73,-3.98
74,-3.98
75,-3.98
76,-3.98
77,-4.12
78,-4.14
79,-4.14
80,-4.23
81,-4.31
82,-4.31
83,-4.31
84,-4.31
85,-4.31
86,-4.40
87,-4.53
88,-4.63
89,-4.63
90,-4.63
91,-4.63
92,-4.63
93,-4.64
94,-4.88
95,-4.95
96,-4.95
97,-4.95
98,-4.95
99,-5.01
100,-5.13
101,-5.24
102,-5.28
104,-5.28
105,-5.28
106,-5.30
107,-5.41
108,-5.51
109,-5.60
110,-5.60
111,-5.60
112,-5.60
113,-5.79
114,-5.93
115,-5.93
117,-5.93
118,-6.02
119,-6.12
120,-6.21
121,-6.25
123,-6.33
124,-6.42
125,-6.51
126,-6.58
128,-6.62
129,-6.71
130,-6.79
131,-6.88
133,-6.90
134,-6.97
135,-7.06
137,-7.22
138,-7.31
140,-7.47
141,-7.55
142,-7.55
144,-7.62
145,-7.70
147,-7.86
148,-7.93
150,-8.08
151,-8.16
153,-8.20
154,-8.24
156,-8.52
157,-8.52
159,-8.64
160,-8.78
162,-8.85
164,-9.01
165,-9.15
167,-9.17
169,-9.37
170,-9.50
172,-9.50
174,-9.60
175,-9.66
177,-9.79
179,-9.92
181,-10.04
183,-10.14
184,-10.14
186,-10.23
188,-10.47
190,-10.47
192,-10.55
194,-10.66
196,-10.78
198,-10.90
200,-11.01
202,-11.12
204,-11.23
206,-11.34
208,-11.46
210,-11.68
212,-11.83
214,-11.93
216,-12.04
218,-12.14
221,-12.30
223,-12.40
225,-12.41
227,-12.41
229,-12.41
232,-12.41
234,-12.37
236,-12.27
239,-12.13
241,-12.09
244,-12.03
246,-11.85
248,-11.77
251,-11.72
253,-11.54
256,-11.36
259,-11.22
261,-11.14
264,-10.90
266,-10.76
269,-10.63
272,-10.51
274,-10.39
277,-10.14
280,-10.02
283,-9.90
286,-9.74
288,-9.58
291,-9.35
294,-9.12
297,-8.89
300,-8.66
303,-8.40
306,-8.06
309,-7.83
312,-7.61
316,-7.27
319,-6.84
322,-6.58
325,-6.32
328,-5.91
332,-5.56
335,-5.28
338,-4.88
342,-4.57
345,-4.27
349,-3.79
352,-3.59
356,-3.26
359,-2.98
363,-2.60
366,-2.39
370,-2.14
374,-1.90
377,-1.64
381,-1.32
385,-1.08
389,-0.85
393,-0.62
397,-0.40
401,-0.29
405,-0.18
409,-0.04
413,0.18
417,0.32
421,0.42
425,0.53
430,0.66
434,0.77
438,0.87
443,0.88
447,0.99
451,1.19
456,1.21
460,1.21
465,1.21
470,1.21
474,1.34
479,1.53
484,1.53
489,1.53
494,1.53
499,1.53
504,1.53
509,1.53
514,1.53
519,1.53
524,1.53
529,1.53
535,1.53
540,1.53
545,1.53
551,1.53
556,1.53
562,1.44
568,1.21
573,1.21
579,1.09
585,0.87
591,0.76
596,0.66
602,0.54
608,0.31
615,0.06
621,-0.13
627,-0.24
633,-0.34
639,-0.48
646,-0.73
652,-0.84
659,-0.96
665,-1.06
672,-1.30
679,-1.39
686,-1.39
692,-1.39
699,-1.46
706,-1.52
713,-1.41
721,-1.39
728,-1.34
735,-1.23
742,-1.12
750,-1.06
757,-1.06
765,-0.94
773,-0.82
780,-0.74
788,-0.74
796,-0.65
804,-0.54
812,-0.43
820,-0.41
828,-0.41
837,-0.41
845,-0.41
853,-0.41
862,-0.40
871,-0.29
879,-0.25
888,-0.23
897,-0.12
906,-0.09
915,-0.09
924,-0.09
933,-0.09
943,-0.09
952,-0.09
962,-0.09
971,-0.09
981,-0.08
991,0.04
1001,-0.00
1011,-0.09
1021,-0.09
1031,-0.09
1041,-0.09
1052,-0.09
1062,-0.09
1073,-0.09
1084,-0.09
1094,-0.09
1105,-0.09
1116,-0.10
1128,-0.22
1139,-0.33
1150,-0.41
1162,-0.41
1173,-0.41
1185,-0.45
1197,-0.56
1209,-0.68
1221,-0.74
1233,-0.74
1246,-0.74
1258,-0.74
1271,-0.74
1283,-0.74
1296,-0.74
1309,-0.76
1322,-0.87
1335,-0.82
1349,-0.78
1362,-0.89
1376,-0.90
1390,-0.95
1404,-1.06
1418,-1.06
1432,-1.06
1446,-1.06
1461,-1.06
1475,-1.06
1490,-1.06
1505,-1.06
1520,-1.06
1535,-1.06
1550,-1.06
1566,-1.06
1582,-1.06
1597,-1.06
1613,-1.29
1629,-1.39
1646,-1.39
1662,-1.39
1679,-1.54
1696,-1.71
1713,-1.71
1730,-1.90
1747,-2.04
1764,-2.04
1782,-2.24
1800,-2.41
1818,-2.53
1836,-2.75
1854,-2.91
1873,-3.04
1892,-3.27
1911,-3.41
1930,-3.53
1949,-3.64
1969,-3.85
1988,-4.06
2008,-4.29
2028,-4.41
2048,-4.52
2069,-4.63
2090,-4.75
2111,-4.86
2132,-4.95
2153,-4.95
2175,-4.95
2196,-4.95
2218,-4.95
2240,-4.77
2263,-4.59
2285,-4.48
2308,-4.36
2331,-4.25
2355,-4.14
2378,-4.03
2402,-3.98
2426,-3.95
2450,-3.72
2475,-3.66
2500,-3.66
2525,-3.66
2550,-3.66
2575,-3.66
2601,-3.66
2627,-3.66
2653,-3.66
2680,-3.66
2707,-3.78
2734,-3.89
2761,-3.98
2789,-3.98
2817,-3.98
2845,-3.98
2873,-3.98
2902,-3.89
2931,-3.73
2960,-3.51
2990,-3.17
3020,-2.83
3050,-2.49
3080,-2.05
3111,-1.73
3142,-1.47
3174,-1.01
3206,-0.73
3238,-0.51
3270,-0.28
3303,-0.06
3336,0.12
3369,0.23
3403,0.45
3437,0.62
3471,0.73
3506,0.84
3541,0.88
3576,0.90
3612,1.02
3648,1.05
3685,1.01
3721,0.90
3759,0.79
3796,0.67
3834,0.56
3873,0.34
3911,0.12
3950,-0.11
3990,-0.34
4030,-0.56
4070,-0.78
4111,-1.01
4152,-1.15
4193,-1.29
4235,-1.52
4278,-1.75
4321,-1.97
4364,-2.20
4407,-2.53
4451,-2.80
4496,-3.01
4541,-3.01
4586,-2.94
4632,-2.78
4679,-2.43
4725,-2.02
4773,-1.52
4820,-0.97
4868,-0.41
4917,0.11
4966,0.56
5016,1.12
5066,1.62
5117,2.04
5168,2.27
5220,2.42
5272,2.56
5325,2.78
5378,2.83
5432,2.91
5486,3.13
5541,3.15
5596,3.15
5652,3.15
5709,3.15
5766,3.09
5823,2.98
5882,2.86
5940,2.60
6000,2.26
6060,1.93
6120,1.50
6182,1.05
6244,0.60
6306,-0.05
6369,-0.62
6433,-1.08
6497,-1.75
6562,-2.23
6628,-2.58
6694,-3.03
6761,-3.33
6828,-3.52
6897,-3.64
6966,-3.66
7035,-3.66
7106,-3.66
7177,-3.35
7249,-2.90
7321,-2.35
7394,-1.90
7468,-1.45
7543,-0.98
7618,-0.42
7694,0.06
7771,0.45
7849,0.68
7928,1.09
8007,1.45
8087,1.68
8168,1.90
8250,2.13
8332,2.35
8415,2.58
8499,2.73
8584,2.86
8670,3.09
8757,3.15
8845,3.15
8933,3.15
9022,3.15
9113,3.15
9204,3.15
9296,3.05
9389,2.94
9483,2.83
9577,2.83
9673,2.69
9770,2.50
9868,2.50
9966,2.42
10066,2.31
10167,2.20
10268,2.18
10371,2.14
10475,2.02
10579,1.91
10685,1.86
10792,1.86
10900,1.86
11009,1.86
11119,1.86
11230,1.86
11343,1.86
11456,1.89
11571,2.00
11686,2.11
11803,2.23
11921,2.34
12040,2.45
12161,2.50
12282,2.50
12405,2.50
12529,2.50
12655,2.50
12781,2.50
12909,2.42
13038,2.28
13168,2.05
13300,1.63
13433,1.23
13567,0.89
13703,0.45
13840,-0.12
13978,-0.79
14118,-1.47
14259,-2.14
14402,-2.84
14546,-3.62
14692,-4.24
14838,-4.80
14987,-5.37
15137,-5.64
15288,-5.81
15441,-5.93
15595,-6.15
15751,-6.31
15909,-6.44
16068,-6.66
16229,-6.88
16391,-7.11
16555,-7.33
16720,-7.56
16888,-7.78
17056,-8.01
17227,-8.23
17399,-8.41
17573,-8.52
17749,-8.74
17926,-8.91
18106,-9.04
18287,-9.38
18470,-9.72
18654,-10.05
18841,-10.39
19029,-10.81
19220,-11.27
19412,-11.71
19606,-12.16
19802,-12.61
20000,-13.06
