frequency,raw,error,smoothed,error_smoothed,equalization,parametric_eq,equalized_raw,equalized_smoothed,target
20,-5.70,-7.34,-5.64,-7.28,6.00,4.98,0.30,0.36,1.64
21,-5.16,-6.80,-5.21,-6.85,6.00,5.71,0.84,0.79,1.64
22,-4.76,-6.40,-4.80,-6.43,5.91,6.24,1.15,1.12,1.64
23,-4.39,-6.03,-4.41,-6.04,5.75,6.47,1.35,1.34,1.63
24,-4.00,-5.63,-4.04,-5.67,5.51,6.35,1.51,1.47,1.63
25,-3.70,-5.33,-3.70,-5.33,5.26,5.98,1.55,1.55,1.63
26,-3.36,-4.99,-3.38,-5.01,4.99,5.48,1.62,1.60,1.62
27,-3.10,-4.72,-3.09,-4.71,4.71,4.95,1.61,1.62,1.62
28,-2.85,-4.47,-2.81,-4.43,4.43,4.46,1.58,1.62,1.62
29,-2.56,-4.18,-2.55,-4.16,4.16,4.03,1.60,1.61,1.61
30,-2.28,-3.89,-2.30,-3.91,3.91,3.66,1.63,1.61,1.61
31,-2.07,-3.68,-2.07,-3.67,3.67,3.37,1.60,1.60,1.60
32,-1.86,-3.46,-1.85,-3.45,3.45,3.12,1.58,1.60,1.60
33,-1.67,-3.26,-1.64,-3.23,3.23,2.93,1.56,1.59,1.59
34,-1.39,-2.98,-1.44,-3.03,3.03,2.78,1.63,1.58,1.58
35,-1.29,-2.87,-1.26,-2.84,2.84,2.65,1.54,1.58,1.58
36,-1.08,-2.65,-1.09,-2.66,2.66,2.54,1.58,1.57,1.57
37,-0.89,-2.45,-0.94,-2.50,2.50,2.44,1.61,1.56,1.56
38,-0.79,-2.34,-0.80,-2.35,2.35,2.34,1.56,1.55,1.55
39,-0.69,-2.23,-0.67,-2.21,2.21,2.24,1.52,1.54,1.54
40,-0.58,-2.11,-0.56,-2.09,2.09,2.12,1.50,1.53,1.53
41,-0.38,-1.90,-0.45,-1.97,1.97,1.99,1.59,1.52,1.52
42,-0.38,-1.89,-0.35,-1.86,1.86,1.86,1.47,1.51,1.51
43,-0.28,-1.78,-0.25,-1.75,1.75,1.72,1.46,1.49,1.49
44,-0.16,-1.64,-0.16,-1.64,1.64,1.59,1.48,1.48,1.48
45,-0.08,-1.55,-0.07,-1.53,1.53,1.45,1.45,1.46,1.46
46,0.02,-1.43,0.02,-1.43,1.43,1.32,1.44,1.45,1.45
47,0.12,-1.32,0.11,-1.32,1.32,1.19,1.44,1.43,1.43
48,0.22,-1.20,0.20,-1.22,1.22,1.07,1.44,1.42,1.42
49,0.32,-1.08,0.28,-1.11,1.11,0.96,1.43,1.40,1.40
50,0.32,-1.06,0.37,-1.01,1.01,0.86,1.33,1.38,1.38
51,0.42,-0.94,0.45,-0.91,0.91,0.76,1.33,1.36,1.36
52,0.57,-0.77,0.53,-0.81,0.81,0.67,1.38,1.34,1.34
53,0.62,-0.70,0.60,-0.71,0.71,0.58,1.33,1.32,1.32
54,0.62,-0.68,0.68,-0.62,0.62,0.50,1.23,1.29,1.29
55,0.82,-0.45,0.75,-0.52,0.52,0.42,1.34,1.27,1.27
56,0.82,-0.43,0.82,-0.42,0.42,0.35,1.24,1.25,1.25
57,0.83,-0.39,0.89,-0.33,0.33,0.28,1.16,1.22,1.22
58,1.02,-0.18,0.95,-0.24,0.24,0.21,1.26,1.19,1.19
59,1.02,-0.15,1.02,-0.15,0.15,0.15,1.17,1.17,1.17
60,1.02,-0.12,1.08,-0.06,0.06,0.09,1.08,1.14,1.14
61,1.13,0.02,1.13,0.02,-0.02,0.03,1.11,1.11,1.11
62,1.23,0.15,1.18,0.10,-0.10,-0.03,1.13,1.08,1.08
63,1.23,0.18,1.22,0.17,-0.17,-0.08,1.06,1.05,1.05
64,1.23,0.21,1.26,0.24,-0.24,-0.13,0.99,1.02,1.02
65,1.33,0.34,1.29,0.30,-0.30,-0.19,1.03,0.99,0.99
66,1.33,0.37,1.31,0.36,-0.36,-0.24,0.97,0.95,0.95
67,1.33,0.41,1.33,0.41,-0.41,-0.29,0.92,0.92,0.92
68,1.33,0.44,1.35,0.46,-0.46,-0.34,0.87,0.88,0.88
69,1.33,0.48,1.36,0.51,-0.51,-0.39,0.82,0.85,0.85
70,1.33,0.51,1.38,0.56,-0.56,-0.44,0.76,0.81,0.81
71,1.43,0.65,1.39,0.61,-0.61,-0.49,0.81,0.78,0.78
72,1.43,0.69,1.40,0.67,-0.67,-0.54,0.76,0.74,0.74
73,1.43,0.73,1.42,0.72,-0.72,-0.58,0.71,0.70,0.70
74,1.43,0.76,1.43,0.76,-0.76,-0.63,0.66,0.66,0.66
75,1.43,0.80,1.43,0.81,-0.81,-0.68,0.62,0.62,0.62
76,1.43,0.84,1.43,0.85,-0.85,-0.73,0.58,0.59,0.59
77,1.43,0.88,1.43,0.89,-0.89,-0.78,0.54,0.55,0.55
78,1.43,0.92,1.42,0.92,-0.92,-0.82,0.51,0.51,0.51
79,1.43,0.96,1.41,0.95,-0.95,-0.87,0.48,0.47,0.47
80,1.43,1.00,1.40,0.97,-0.97,-0.92,0.45,0.42,0.42
81,1.43,1.04,1.39,1.00,-1.00,-0.97,0.42,0.38,0.38
82,1.35,1.00,1.37,1.03,-1.03,-1.01,0.31,0.34,0.34
83,1.33,1.03,1.37,1.07,-1.07,-1.06,0.26,0.30,0.30
84,1.33,1.07,1.37,1.11,-1.11,-1.11,0.22,0.26,0.26
85,1.33,1.11,1.37,1.15,-1.15,-1.16,0.17,0.22,0.22
86,1.40,1.22,1.38,1.20,-1.20,-1.20,0.19,0.18,0.18
87,1.43,1.29,1.39,1.26,-1.26,-1.25,0.17,0.14,0.14
88,1.43,1.33,1.40,1.31,-1.31,-1.30,0.12,0.09,0.09
89,1.43,1.38,1.42,1.36,-1.36,-1.34,0.06,0.05,0.05
90,1.43,1.42,1.43,1.41,-1.41,-1.39,0.01,0.01,0.01
91,1.43,1.46,1.43,1.46,-1.46,-1.43,-0.04,-0.03,-0.03
92,1.43,1.50,1.43,1.51,-1.51,-1.48,-0.08,-0.07,-0.07
93,1.43,1.54,1.43,1.55,-1.55,-1.52,-0.12,-0.11,-0.11
94,1.43,1.58,1.43,1.58,-1.58,-1.57,-0.16,-0.15,-0.15
95,1.43,1.62,1.42,1.62,-1.62,-1.61,-0.19,-0.19,-0.20
96,1.43,1.66,1.42,1.65,-1.65,-1.65,-0.23,-0.23,-0.24
97,1.42,1.69,1.41,1.69,-1.69,-1.69,-0.27,-0.27,-0.28
98,1.42,1.73,1.41,1.72,-1.72,-1.73,-0.31,-0.32,-0.32
99,1.40,1.75,1.40,1.76,-1.76,-1.77,-0.36,-0.36,-0.36
100,1.39,1.78,1.40,1.80,-1.80,-1.81,-0.41,-0.40,-0.39
101,1.37,1.80,1.39,1.84,-1.84,-1.85,-0.47,-0.44,-0.43
102,1.35,1.82,1.39,1.88,-1.88,-1.88,-0.53,-0.49,-0.47
104,1.43,1.97,1.39,1.92,-1.92,-1.95,-0.49,-0.53,-0.55
105,1.41,1.99,1.38,1.95,-1.95,-1.98,-0.54,-0.57,-0.58
106,1.38,1.99,1.37,1.98,-1.98,-2.01,-0.60,-0.61,-0.62
107,1.36,2.01,1.35,2.00,-2.00,-2.04,-0.65,-0.65,-0.65
108,1.33,2.01,1.33,2.02,-2.02,-2.07,-0.69,-0.69,-0.69
109,1.31,2.03,1.31,2.03,-2.03,-2.09,-0.72,-0.72,-0.72
110,1.29,2.04,1.28,2.03,-2.03,-2.11,-0.75,-0.75,-0.75
111,1.28,2.06,1.25,2.04,-2.04,-2.13,-0.76,-0.78,-0.78
112,1.25,2.06,1.23,2.04,-2.04,-2.15,-0.79,-0.81,-0.81
113,1.16,2.00,1.20,2.05,-2.05,-2.17,-0.89,-0.84,-0.84
114,1.15,2.02,1.18,2.06,-2.06,-2.19,-0.91,-0.88,-0.87
115,1.15,2.04,1.17,2.07,-2.07,-2.20,-0.93,-0.91,-0.90
117,1.15,2.10,1.16,2.09,-2.09,-2.22,-0.95,-0.94,-0.95
118,1.15,2.12,1.15,2.12,-2.12,-2.23,-0.97,-0.97,-0.98
119,1.16,2.16,1.14,2.14,-2.14,-2.23,-0.98,-1.00,-1.00
120,1.17,2.19,1.13,2.15,-2.15,-2.24,-0.98,-1.02,-1.02
121,1.17,2.21,1.11,2.16,-2.16,-2.24,-1.00,-1.05,-1.04
123,1.08,2.16,1.10,2.17,-2.17,-2.24,-1.10,-1.08,-1.09
124,1.09,2.19,1.08,2.18,-2.18,-2.23,-1.09,-1.10,-1.11
125,1.03,2.15,1.06,2.19,-2.19,-2.23,-1.16,-1.13,-1.12
126,1.00,2.14,1.04,2.19,-2.19,-2.22,-1.20,-1.15,-1.14
128,1.01,2.19,1.03,2.20,-2.20,-2.20,-1.20,-1.17,-1.18
129,1.01,2.21,1.02,2.21,-2.21,-2.19,-1.21,-1.19,-1.20
130,1.02,2.23,1.01,2.22,-2.22,-2.18,-1.21,-1.22,-1.21
131,1.03,2.26,0.99,2.23,-2.23,-2.17,-1.20,-1.24,-1.23
133,1.02,2.28,0.97,2.23,-2.23,-2.14,-1.21,-1.26,-1.26
134,0.95,2.23,0.95,2.23,-2.23,-2.12,-1.28,-1.28,-1.28
135,0.94,2.23,0.91,2.21,-2.21,-2.10,-1.28,-1.30,-1.29
137,0.84,2.16,0.87,2.20,-2.20,-2.06,-1.36,-1.32,-1.33
138,0.84,2.18,0.83,2.17,-2.17,-2.04,-1.33,-1.34,-1.34
140,0.75,2.12,0.78,2.14,-2.14,-2.00,-1.40,-1.36,-1.37
141,0.75,2.13,0.73,2.11,-2.11,-1.98,-1.37,-1.38,-1.38
142,0.68,2.07,0.68,2.08,-2.08,-1.95,-1.40,-1.40,-1.40
144,0.65,2.07,0.62,2.05,-2.05,-1.91,-1.40,-1.42,-1.43
145,0.61,2.05,0.57,2.02,-2.02,-1.88,-1.41,-1.45,-1.44
147,0.44,1.91,0.52,1.99,-1.99,-1.84,-1.55,-1.47,-1.47
148,0.44,1.92,0.47,1.96,-1.96,-1.81,-1.52,-1.49,-1.48
150,0.44,1.95,0.42,1.93,-1.93,-1.76,-1.49,-1.51,-1.51
151,0.44,1.96,0.38,1.90,-1.90,-1.74,-1.47,-1.53,-1.52
153,0.30,1.85,0.33,1.87,-1.87,-1.69,-1.58,-1.55,-1.55
154,0.24,1.80,0.27,1.84,-1.84,-1.66,-1.60,-1.56,-1.56
156,0.24,1.82,0.22,1.80,-1.80,-1.61,-1.56,-1.58,-1.59
157,0.20,1.80,0.15,1.75,-1.75,-1.58,-1.55,-1.60,-1.60
159,0.04,1.66,0.07,1.69,-1.69,-1.53,-1.66,-1.62,-1.62
160,0.04,1.67,-0.01,1.63,-1.63,-1.51,-1.59,-1.64,-1.63
162,-0.05,1.60,-0.10,1.55,-1.55,-1.46,-1.61,-1.65,-1.65
164,-0.22,1.45,-0.20,1.47,-1.47,-1.41,-1.70,-1.67,-1.67
165,-0.31,1.37,-0.30,1.39,-1.39,-1.39,-1.70,-1.69,-1.68
167,-0.41,1.29,-0.39,1.31,-1.31,-1.34,-1.72,-1.70,-1.70
169,-0.48,1.23,-0.48,1.23,-1.23,-1.29,-1.71,-1.71,-1.72
170,-0.54,1.18,-0.57,1.16,-1.16,-1.27,-1.70,-1.73,-1.72
172,-0.66,1.07,-0.64,1.10,-1.10,-1.23,-1.76,-1.74,-1.74
174,-0.73,1.02,-0.70,1.05,-1.05,-1.18,-1.78,-1.75,-1.75
175,-0.79,0.96,-0.75,1.01,-1.01,-1.16,-1.80,-1.76,-1.75
177,-0.81,0.95,-0.79,0.97,-0.97,-1.12,-1.78,-1.76,-1.76
179,-0.81,0.96,-0.83,0.94,-0.94,-1.08,-1.75,-1.77,-1.77
181,-0.80,0.97,-0.86,0.91,-0.91,-1.04,-1.72,-1.78,-1.78
183,-0.87,0.91,-0.90,0.88,-0.88,-1.00,-1.75,-1.78,-1.78
184,-0.95,0.83,-0.94,0.85,-0.85,-0.98,-1.80,-1.78,-1.78
186,-0.98,0.80,-0.98,0.81,-0.81,-0.94,-1.79,-1.79,-1.79
188,-0.98,0.81,-1.03,0.76,-0.76,-0.90,-1.75,-1.79,-1.79
190,-1.12,0.67,-1.08,0.71,-0.71,-0.86,-1.84,-1.79,-1.79
192,-1.13,0.66,-1.13,0.66,-0.66,-0.83,-1.79,-1.79,-1.79
194,-1.14,0.65,-1.19,0.61,-0.61,-0.79,-1.75,-1.79,-1.79
196,-1.27,0.52,-1.24,0.55,-0.55,-0.76,-1.83,-1.80,-1.80
198,-1.29,0.50,-1.29,0.50,-0.50,-0.73,-1.80,-1.80,-1.80
200,-1.34,0.45,-1.34,0.45,-0.45,-0.69,-1.80,-1.80,-1.80
202,-1.38,0.42,-1.39,0.41,-0.41,-0.66,-1.79,-1.80,-1.80
204,-1.47,0.33,-1.43,0.37,-0.37,-0.63,-1.84,-1.80,-1.80
206,-1.47,0.33,-1.47,0.33,-0.33,-0.60,-1.80,-1.80,-1.80
208,-1.47,0.33,-1.50,0.30,-0.30,-0.57,-1.77,-1.80,-1.80
210,-1.50,0.30,-1.53,0.27,-0.27,-0.54,-1.78,-1.80,-1.80
212,-1.57,0.23,-1.55,0.25,-0.25,-0.51,-1.82,-1.80,-1.80
214,-1.58,0.22,-1.57,0.23,-0.23,-0.48,-1.82,-1.80,-1.80
216,-1.58,0.22,-1.58,0.22,-0.22,-0.46,-1.80,-1.80,-1.80
218,-1.58,0.22,-1.59,0.21,-0.21,-0.43,-1.79,-1.80,-1.80
221,-1.59,0.21,-1.60,0.21,-0.21,-0.39,-1.80,-1.80,-1.80
223,-1.59,0.21,-1.60,0.20,-0.20,-0.36,-1.79,-1.80,-1.80
225,-1.59,0.21,-1.60,0.20,-0.20,-0.34,-1.79,-1.80,-1.80
227,-1.59,0.20,-1.60,0.20,-0.20,-0.31,-1.79,-1.80,-1.80
229,-1.59,0.20,-1.59,0.20,-0.20,-0.29,-1.80,-1.79,-1.79
232,-1.58,0.21,-1.58,0.21,-0.21,-0.25,-1.79,-1.79,-1.79
234,-1.57,0.21,-1.57,0.22,-0.22,-0.23,-1.79,-1.79,-1.79
236,-1.56,0.22,-1.56,0.23,-0.23,-0.20,-1.79,-1.78,-1.78
239,-1.54,0.23,-1.54,0.24,-0.24,-0.17,-1.78,-1.78,-1.78
241,-1.52,0.25,-1.52,0.25,-0.25,-0.14,-1.77,-1.77,-1.77
244,-1.50,0.26,-1.50,0.26,-0.26,-0.11,-1.77,-1.76,-1.77
246,-1.48,0.27,-1.48,0.28,-0.28,-0.09,-1.76,-1.76,-1.76
248,-1.46,0.29,-1.46,0.29,-0.29,-0.06,-1.75,-1.75,-1.75
251,-1.44,0.30,-1.44,0.30,-0.30,-0.03,-1.74,-1.74,-1.74
253,-1.43,0.30,-1.43,0.30,-0.30,-0.01,-1.74,-1.74,-1.73
256,-1.42,0.30,-1.43,0.30,-0.30,0.03,-1.72,-1.73,-1.73
259,-1.41,0.31,-1.43,0.29,-0.29,0.06,-1.70,-1.72,-1.72
261,-1.40,0.31,-1.44,0.27,-0.27,0.08,-1.68,-1.71,-1.71
264,-1.47,0.23,-1.46,0.25,-0.25,0.11,-1.72,-1.71,-1.71
266,-1.50,0.19,-1.48,0.22,-0.22,0.14,-1.72,-1.70,-1.70
269,-1.51,0.18,-1.51,0.18,-0.18,0.17,-1.69,-1.69,-1.69
272,-1.51,0.17,-1.55,0.13,-0.13,0.20,-1.65,-1.68,-1.68
274,-1.59,0.08,-1.59,0.09,-0.09,0.22,-1.68,-1.68,-1.68
277,-1.64,0.03,-1.63,0.04,-0.04,0.25,-1.68,-1.67,-1.67
280,-1.72,-0.06,-1.67,-0.01,0.01,0.29,-1.71,-1.66,-1.66
283,-1.71,-0.06,-1.72,-0.06,0.06,0.32,-1.65,-1.66,-1.66
286,-1.77,-0.12,-1.76,-0.11,0.11,0.35,-1.66,-1.65,-1.65
288,-1.80,-0.16,-1.81,-0.16,0.16,0.37,-1.64,-1.64,-1.64
291,-1.79,-0.15,-1.86,-0.22,0.22,0.41,-1.57,-1.64,-1.64
294,-1.92,-0.29,-1.91,-0.28,0.28,0.44,-1.65,-1.63,-1.63
297,-1.96,-0.34,-1.96,-0.34,0.34,0.47,-1.63,-1.63,-1.63
300,-2.04,-0.42,-2.02,-0.40,0.40,0.50,-1.64,-1.62,-1.62
303,-2.08,-0.47,-2.08,-0.46,0.46,0.54,-1.62,-1.62,-1.62
306,-2.13,-0.52,-2.13,-0.52,0.52,0.57,-1.61,-1.61,-1.61
309,-2.20,-0.60,-2.19,-0.58,0.58,0.60,-1.62,-1.60,-1.60
312,-2.23,-0.63,-2.24,-0.64,0.64,0.64,-1.59,-1.60,-1.60
316,-2.31,-0.72,-2.30,-0.70,0.70,0.68,-1.61,-1.59,-1.59
319,-2.31,-0.72,-2.35,-0.76,0.76,0.72,-1.55,-1.59,-1.59
322,-2.40,-0.82,-2.40,-0.82,0.82,0.75,-1.58,-1.58,-1.58
325,-2.51,-0.93,-2.46,-0.88,0.88,0.79,-1.63,-1.58,-1.58
328,-2.51,-0.94,-2.51,-0.94,0.94,0.82,-1.57,-1.57,-1.57
332,-2.53,-0.96,-2.57,-1.00,1.00,0.87,-1.53,-1.57,-1.57
335,-2.61,-1.05,-2.63,-1.06,1.06,0.90,-1.55,-1.57,-1.57
338,-2.65,-1.09,-2.69,-1.13,1.13,0.94,-1.53,-1.56,-1.56
342,-2.82,-1.26,-2.75,-1.19,1.19,0.98,-1.63,-1.56,-1.56
345,-2.83,-1.28,-2.81,-1.26,1.26,1.02,-1.58,-1.56,-1.56
349,-2.82,-1.27,-2.88,-1.32,1.32,1.07,-1.50,-1.55,-1.55
352,-2.91,-1.36,-2.94,-1.39,1.39,1.10,-1.53,-1.55,-1.55
356,-3.02,-1.47,-2.99,-1.45,1.45,1.15,-1.58,-1.55,-1.55
359,-3.01,-1.47,-3.05,-1.50,1.50,1.19,-1.51,-1.55,-1.55
363,-3.09,-1.55,-3.09,-1.55,1.55,1.24,-1.54,-1.55,-1.54
366,-3.20,-1.66,-3.13,-1.59,1.59,1.27,-1.61,-1.54,-1.54
370,-3.20,-1.66,-3.17,-1.62,1.62,1.32,-1.58,-1.54,-1.54
374,-3.19,-1.65,-3.19,-1.65,1.65,1.37,-1.54,-1.54,-1.54
377,-3.18,-1.65,-3.21,-1.67,1.67,1.40,-1.51,-1.54,-1.54
381,-3.17,-1.64,-3.22,-1.68,1.68,1.45,-1.49,-1.54,-1.54
385,-3.20,-1.67,-3.23,-1.70,1.70,1.50,-1.50,-1.53,-1.53
389,-3.28,-1.76,-3.24,-1.71,1.71,1.55,-1.57,-1.53,-1.53
393,-3.27,-1.75,-3.25,-1.73,1.73,1.59,-1.55,-1.52,-1.52
397,-3.26,-1.75,-3.26,-1.75,1.75,1.64,-1.52,-1.51,-1.51
401,-3.26,-1.76,-3.27,-1.77,1.77,1.68,-1.49,-1.50,-1.50
405,-3.26,-1.77,-3.29,-1.80,1.80,1.72,-1.46,-1.49,-1.49
409,-3.26,-1.78,-3.31,-1.83,1.83,1.77,-1.43,-1.48,-1.48
413,-3.27,-1.81,-3.33,-1.87,1.87,1.81,-1.41,-1.46,-1.46
417,-3.40,-1.96,-3.34,-1.90,1.90,1.85,-1.50,-1.44,-1.44
421,-3.40,-1.98,-3.35,-1.93,1.93,1.89,-1.47,-1.42,-1.42
425,-3.36,-1.97,-3.35,-1.96,1.96,1.92,-1.40,-1.39,-1.40
430,-3.35,-1.99,-3.34,-1.98,1.98,1.97,-1.37,-1.37,-1.37
434,-3.33,-2.00,-3.33,-1.99,1.99,2.00,-1.34,-1.34,-1.34
438,-3.30,-2.00,-3.30,-2.00,2.00,2.03,-1.31,-1.30,-1.30
443,-3.27,-2.01,-3.26,-2.00,2.00,2.06,-1.27,-1.27,-1.27
447,-3.22,-1.99,-3.23,-2.00,2.00,2.09,-1.22,-1.23,-1.23
451,-3.17,-1.98,-3.18,-2.00,2.00,2.11,-1.18,-1.19,-1.19
456,-3.11,-1.97,-3.14,-2.00,2.00,2.14,-1.12,-1.15,-1.15
460,-3.05,-1.95,-3.10,-1.99,1.99,2.16,-1.06,-1.11,-1.11
465,-3.05,-1.99,-3.06,-1.99,1.99,2.18,-1.06,-1.07,-1.07
470,-3.09,-2.07,-3.02,-1.99,1.99,2.19,-1.10,-1.03,-1.03
474,-3.00,-2.02,-2.97,-1.99,1.99,2.20,-1.02,-0.99,-0.99
479,-2.92,-1.97,-2.93,-1.98,1.98,2.21,-0.94,-0.95,-0.95
484,-2.87,-1.96,-2.89,-1.97,1.97,2.22,-0.90,-0.92,-0.92
489,-2.83,-1.95,-2.85,-1.96,1.96,2.22,-0.87,-0.89,-0.88
494,-2.80,-1.95,-2.81,-1.96,1.96,2.22,-0.85,-0.86,-0.86
499,-2.77,-1.94,-2.78,-1.95,1.95,2.21,-0.83,-0.84,-0.83
504,-2.74,-1.93,-2.75,-1.94,1.94,2.20,-0.81,-0.82,-0.81
509,-2.73,-1.93,-2.73,-1.93,1.93,2.19,-0.81,-0.80,-0.80
514,-2.71,-1.92,-2.71,-1.92,1.92,2.18,-0.80,-0.79,-0.79
519,-2.71,-1.93,-2.69,-1.90,1.90,2.16,-0.81,-0.78,-0.78
524,-2.71,-1.93,-2.68,-1.90,1.90,2.14,-0.82,-0.78,-0.78
529,-2.72,-1.94,-2.68,-1.89,1.89,2.12,-0.83,-0.78,-0.78
535,-2.65,-1.87,-2.68,-1.89,1.89,2.10,-0.76,-0.79,-0.79
540,-2.59,-1.80,-2.70,-1.91,1.91,2.07,-0.69,-0.80,-0.80
545,-2.64,-1.84,-2.73,-1.93,1.93,2.04,-0.72,-0.81,-0.80
551,-2.76,-1.95,-2.77,-1.95,1.95,2.01,-0.81,-0.82,-0.82
556,-2.81,-1.99,-2.81,-1.98,1.98,1.98,-0.83,-0.83,-0.83
562,-2.91,-2.08,-2.85,-2.01,2.01,1.95,-0.90,-0.84,-0.84
568,-2.99,-2.14,-2.88,-2.03,2.03,1.91,-0.96,-0.85,-0.85
573,-2.89,-2.04,-2.89,-2.04,2.04,1.88,-0.85,-0.86,-0.86
579,-2.89,-2.03,-2.90,-2.03,2.03,1.84,-0.86,-0.86,-0.86
585,-2.88,-2.02,-2.88,-2.02,2.02,1.80,-0.87,-0.86,-0.87
591,-2.83,-1.97,-2.85,-1.99,1.99,1.76,-0.85,-0.86,-0.87
596,-2.78,-1.92,-2.81,-1.95,1.95,1.73,-0.83,-0.86,-0.86
602,-2.73,-1.88,-2.76,-1.90,1.90,1.69,-0.83,-0.85,-0.86
608,-2.78,-1.94,-2.70,-1.86,1.86,1.65,-0.93,-0.84,-0.84
615,-2.67,-1.84,-2.64,-1.81,1.81,1.60,-0.86,-0.83,-0.83
621,-2.58,-1.77,-2.58,-1.77,1.77,1.57,-0.82,-0.81,-0.81
627,-2.40,-1.62,-2.51,-1.73,1.73,1.53,-0.68,-0.79,-0.79
633,-2.38,-1.62,-2.45,-1.69,1.69,1.49,-0.69,-0.76,-0.76
639,-2.39,-1.66,-2.39,-1.66,1.66,1.46,-0.73,-0.73,-0.73
646,-2.41,-1.71,-2.33,-1.63,1.63,1.41,-0.78,-0.70,-0.70
652,-2.35,-1.68,-2.27,-1.60,1.60,1.38,-0.75,-0.67,-0.67
659,-2.16,-1.53,-2.21,-1.57,1.57,1.34,-0.59,-0.64,-0.64
665,-2.11,-1.51,-2.15,-1.54,1.54,1.31,-0.57,-0.60,-0.60
672,-2.06,-1.50,-2.08,-1.51,1.51,1.27,-0.55,-0.57,-0.57
679,-2.04,-1.51,-2.01,-1.48,1.48,1.23,-0.57,-0.53,-0.53
686,-2.00,-1.50,-1.94,-1.44,1.44,1.20,-0.56,-0.50,-0.50
692,-1.86,-1.39,-1.88,-1.41,1.41,1.17,-0.46,-0.47,-0.47
699,-1.82,-1.38,-1.82,-1.38,1.38,1.13,-0.44,-0.44,-0.44
706,-1.71,-1.30,-1.77,-1.36,1.36,1.10,-0.36,-0.41,-0.41
713,-1.68,-1.30,-1.73,-1.34,1.34,1.07,-0.34,-0.38,-0.38
721,-1.69,-1.33,-1.70,-1.34,1.34,1.04,-0.36,-0.36,-0.36
728,-1.63,-1.30,-1.67,-1.34,1.34,1.01,-0.30,-0.34,-0.34
735,-1.63,-1.32,-1.66,-1.34,1.34,0.98,-0.29,-0.32,-0.32
742,-1.66,-1.36,-1.64,-1.34,1.34,0.95,-0.32,-0.30,-0.30
750,-1.68,-1.40,-1.61,-1.33,1.33,0.92,-0.35,-0.28,-0.28
757,-1.66,-1.39,-1.58,-1.31,1.31,0.90,-0.35,-0.27,-0.27
765,-1.49,-1.24,-1.54,-1.28,1.28,0.87,-0.21,-0.26,-0.26
773,-1.45,-1.21,-1.49,-1.24,1.24,0.84,-0.21,-0.25,-0.25
780,-1.46,-1.23,-1.42,-1.18,1.18,0.82,-0.28,-0.24,-0.24
788,-1.36,-1.14,-1.34,-1.12,1.12,0.79,-0.24,-0.23,-0.23
796,-1.27,-1.05,-1.26,-1.05,1.05,0.77,-0.23,-0.22,-0.22
804,-1.14,-0.93,-1.18,-0.97,0.97,0.74,-0.17,-0.21,-0.21
812,-1.06,-0.86,-1.09,-0.89,0.89,0.72,-0.17,-0.20,-0.20
820,-1.04,-0.85,-1.01,-0.82,0.82,0.70,-0.23,-0.20,-0.20
828,-0.90,-0.71,-0.93,-0.74,0.74,0.68,-0.16,-0.19,-0.19
837,-0.85,-0.67,-0.85,-0.67,0.67,0.66,-0.18,-0.18,-0.18
845,-0.80,-0.63,-0.78,-0.60,0.60,0.64,-0.20,-0.18,-0.18
853,-0.65,-0.48,-0.71,-0.54,0.54,0.62,-0.11,-0.17,-0.17
862,-0.66,-0.50,-0.64,-0.48,0.48,0.60,-0.18,-0.16,-0.16
871,-0.63,-0.48,-0.58,-0.43,0.43,0.58,-0.21,-0.15,-0.15
879,-0.50,-0.36,-0.52,-0.37,0.37,0.56,-0.13,-0.15,-0.15
888,-0.46,-0.33,-0.46,-0.33,0.33,0.54,-0.14,-0.14,-0.14
897,-0.39,-0.26,-0.41,-0.28,0.28,0.52,-0.11,-0.13,-0.13
906,-0.29,-0.17,-0.36,-0.24,0.24,0.51,-0.06,-0.12,-0.12
915,-0.30,-0.19,-0.31,-0.19,0.19,0.49,-0.11,-0.11,-0.11
924,-0.30,-0.20,-0.25,-0.15,0.15,0.47,-0.15,-0.10,-0.10
933,-0.25,-0.16,-0.20,-0.11,0.11,0.46,-0.15,-0.09,-0.09
943,-0.20,-0.12,-0.14,-0.06,0.06,0.44,-0.14,-0.08,-0.08
952,-0.11,-0.05,-0.09,-0.02,0.02,0.42,-0.09,-0.07,-0.07
962,-0.02,0.03,-0.05,0.00,-0.00,0.41,-0.03,-0.05,-0.05
971,0.01,0.05,-0.02,0.02,-0.02,0.39,-0.01,-0.04,-0.04
981,0.05,0.07,-0.02,0.01,-0.01,0.38,0.04,-0.02,-0.02
991,0.03,0.03,-0.03,-0.03,0.03,0.36,0.05,-0.01,-0.01
1001,-0.00,-0.02,-0.07,-0.09,0.09,0.35,0.08,0.01,0.01
1011,-0.03,-0.07,-0.13,-0.16,0.16,0.33,0.13,0.03,0.03
1021,-0.12,-0.18,-0.18,-0.24,0.24,0.32,0.11,0.06,0.06
1031,-0.24,-0.32,-0.23,-0.31,0.31,0.30,0.06,0.08,0.08
1041,-0.46,-0.57,-0.25,-0.35,0.35,0.29,-0.11,0.10,0.10
1052,-0.37,-0.50,-0.23,-0.37,0.37,0.27,-0.01,0.13,0.13
1062,-0.22,-0.38,-0.18,-0.34,0.34,0.26,0.12,0.16,0.16
1073,-0.16,-0.35,-0.09,-0.28,0.28,0.24,0.11,0.19,0.19
1084,0.02,-0.20,0.04,-0.19,0.19,0.23,0.20,0.22,0.22
1094,0.24,-0.02,0.18,-0.08,0.08,0.21,0.31,0.25,0.25
1105,0.38,0.09,0.32,0.03,-0.03,0.20,0.34,0.29,0.29
1116,0.49,0.17,0.45,0.13,-0.13,0.18,0.35,0.32,0.32
1128,0.62,0.26,0.57,0.21,-0.21,0.17,0.41,0.36,0.36
1139,0.74,0.35,0.65,0.26,-0.26,0.15,0.48,0.39,0.39
1150,0.82,0.39,0.70,0.28,-0.28,0.13,0.54,0.42,0.42
1162,0.76,0.30,0.74,0.28,-0.28,0.12,0.48,0.46,0.46
1173,0.71,0.22,0.75,0.26,-0.26,0.10,0.44,0.49,0.49
1185,0.71,0.19,0.77,0.25,-0.25,0.08,0.46,0.52,0.52
1197,0.70,0.15,0.78,0.23,-0.23,0.06,0.46,0.55,0.55
1209,0.77,0.19,0.81,0.24,-0.24,0.04,0.53,0.57,0.57
1221,0.83,0.23,0.85,0.25,-0.25,0.03,0.58,0.60,0.60
1233,0.88,0.26,0.90,0.28,-0.28,0.01,0.59,0.62,0.62
1246,0.99,0.35,0.97,0.33,-0.33,-0.02,0.66,0.64,0.64
1258,1.14,0.48,1.04,0.39,-0.39,-0.04,0.75,0.65,0.65
1271,1.11,0.44,1.12,0.45,-0.45,-0.06,0.65,0.67,0.67
1283,1.17,0.49,1.20,0.52,-0.52,-0.09,0.65,0.68,0.68
1296,1.27,0.58,1.27,0.59,-0.59,-0.11,0.68,0.68,0.68
1309,1.32,0.63,1.34,0.65,-0.65,-0.14,0.66,0.69,0.69
1322,1.43,0.74,1.40,0.72,-0.72,-0.17,0.71,0.69,0.69
1335,1.49,0.80,1.46,0.77,-0.77,-0.20,0.71,0.68,0.68
1349,1.51,0.83,1.50,0.82,-0.82,-0.23,0.68,0.68,0.68
1362,1.58,0.90,1.55,0.87,-0.87,-0.26,0.71,0.67,0.67
1376,1.58,0.91,1.58,0.91,-0.91,-0.30,0.66,0.67,0.67
1390,1.58,0.92,1.61,0.95,-0.95,-0.34,0.62,0.66,0.66
1404,1.63,0.98,1.64,0.99,-0.99,-0.38,0.64,0.65,0.65
1418,1.63,0.99,1.66,1.02,-1.02,-0.43,0.61,0.64,0.64
1432,1.71,1.07,1.68,1.04,-1.04,-0.48,0.66,0.63,0.63
1446,1.75,1.12,1.69,1.07,-1.07,-0.53,0.68,0.63,0.63
1461,1.75,1.13,1.71,1.09,-1.09,-0.58,0.66,0.62,0.62
1475,1.73,1.11,1.73,1.11,-1.11,-0.64,0.62,0.62,0.62
1490,1.70,1.08,1.75,1.14,-1.14,-0.71,0.56,0.62,0.62
1505,1.73,1.11,1.78,1.16,-1.16,-0.78,0.56,0.62,0.62
1520,1.82,1.19,1.82,1.20,-1.20,-0.85,0.62,0.62,0.62
1535,1.91,1.27,1.87,1.24,-1.24,-0.93,0.67,0.63,0.63
1550,1.98,1.33,1.94,1.29,-1.29,-1.01,0.68,0.65,0.65
1566,2.05,1.38,2.02,1.35,-1.35,-1.11,0.69,0.67,0.67
1582,2.10,1.41,2.12,1.43,-1.43,-1.21,0.67,0.69,0.69
1597,2.16,1.44,2.23,1.51,-1.51,-1.30,0.65,0.72,0.72
1613,2.30,1.54,2.36,1.60,-1.60,-1.41,0.69,0.76,0.75
1629,2.51,1.71,2.50,1.71,-1.71,-1.53,0.80,0.80,0.79
1646,2.74,1.90,2.66,1.82,-1.82,-1.65,0.92,0.84,0.84
1662,2.85,1.96,2.83,1.93,-1.93,-1.77,0.91,0.89,0.89
1679,2.94,1.99,2.99,2.04,-2.04,-1.89,0.89,0.95,0.95
1696,3.12,2.11,3.16,2.15,-2.15,-2.01,0.97,1.01,1.01
1713,3.32,2.24,3.32,2.24,-2.24,-2.13,1.07,1.08,1.08
1730,3.53,2.38,3.48,2.33,-2.33,-2.24,1.20,1.15,1.15
1747,3.75,2.52,3.62,2.40,-2.40,-2.34,1.35,1.23,1.23
