frequency,raw,error,smoothed,error_smoothed,equalization,parametric_eq,fixed_band_eq,equalized_raw,equalized_smoothed,target
20.00,-7.92,-9.81,-7.92,-9.81,6.00,6.44,2.88,-1.92,-1.92,1.89
20.20,-7.88,-9.76,-7.88,-9.76,6.00,6.43,2.96,-1.88,-1.88,1.88
20.40,-7.83,-9.71,-7.83,-9.71,6.00,6.43,3.05,-1.83,-1.83,1.88
20.61,-7.79,-9.67,-7.78,-9.66,6.00,6.43,3.13,-1.79,-1.78,1.88
20.81,-7.74,-9.60,-7.73,-9.61,6.00,6.42,3.22,-1.74,-1.73,1.86
21.02,-7.69,-9.55,-7.69,-9.56,6.00,6.42,3.31,-1.69,-1.69,1.86
21.23,-7.64,-9.50,-7.64,-9.50,6.00,6.41,3.40,-1.64,-1.64,1.86
21.44,-7.59,-9.46,-7.59,-9.45,6.00,6.41,3.50,-1.59,-1.59,1.87
21.66,-7.53,-9.39,-7.54,-9.40,6.00,6.41,3.60,-1.53,-1.54,1.86
21.87,-7.48,-9.35,-7.49,-9.35,6.00,6.40,3.70,-1.48,-1.49,1.87
22.09,-7.43,-9.29,-7.44,-9.30,6.00,6.40,3.80,-1.43,-1.44,1.86
22.31,-7.38,-9.25,-7.39,-9.25,6.00,6.39,3.91,-1.38,-1.39,1.87
22.54,-7.34,-9.20,-7.34,-9.20,6.00,6.39,4.02,-1.34,-1.34,1.86
22.76,-7.29,-9.16,-7.29,-9.15,6.00,6.38,4.13,-1.29,-1.29,1.87
22.99,-7.24,-9.11,-7.23,-9.10,6.00,6.38,4.25,-1.24,-1.23,1.87
23.22,-7.19,-9.06,-7.18,-9.06,6.00,6.37,4.37,-1.19,-1.18,1.87
23.45,-7.13,-9.01,-7.13,-9.01,6.00,6.36,4.49,-1.13,-1.13,1.88
23.69,-7.08,-8.96,-7.08,-8.95,6.00,6.36,4.61,-1.08,-1.08,1.88
23.92,-7.03,-8.90,-7.02,-8.90,6.00,6.35,4.74,-1.03,-1.02,1.88
24.16,-6.97,-8.85,-6.97,-8.85,6.00,6.35,4.87,-0.97,-0.97,1.89
24.40,-6.92,-8.81,-6.91,-8.80,6.00,6.34,5.00,-0.92,-0.91,1.89
24.65,-6.86,-8.75,-6.85,-8.74,6.00,6.33,5.13,-0.86,-0.85,1.89
24.89,-6.80,-8.69,-6.80,-8.69,6.00,6.32,5.27,-0.80,-0.80,1.89
25.14,-6.75,-8.64,-6.74,-8.64,6.00,6.32,5.40,-0.75,-0.74,1.89
25.39,-6.69,-8.59,-6.69,-8.58,6.00,6.31,5.54,-0.69,-0.69,1.90
25.65,-6.64,-8.54,-6.64,-8.54,6.00,6.30,5.68,-0.64,-0.64,1.90
25.91,-6.58,-8.47,-6.60,-8.49,6.00,6.29,5.82,-0.58,-0.60,1.89
26.16,-6.53,-8.43,-6.55,-8.45,6.00,6.29,5.95,-0.53,-0.55,1.90
26.43,-6.49,-8.39,-6.50,-8.40,6.00,6.28,6.09,-0.49,-0.50,1.90
26.69,-6.44,-8.34,-6.46,-8.35,6.00,6.27,6.23,-0.44,-0.46,1.90
26.96,-6.40,-8.29,-6.42,-8.31,6.00,6.26,6.36,-0.40,-0.42,1.89
27.23,-6.38,-8.26,-6.38,-8.27,6.00,6.25,6.50,-0.38,-0.38,1.88
27.50,-6.36,-8.24,-6.34,-8.23,6.00,6.24,6.63,-0.36,-0.34,1.88
27.77,-6.34,-8.23,-6.31,-8.20,6.00,6.23,6.75,-0.34,-0.31,1.89
28.05,-6.32,-8.20,-6.27,-8.16,6.00,6.22,6.87,-0.32,-0.27,1.88
28.33,-6.25,-8.13,-6.24,-8.12,6.00,6.22,6.99,-0.25,-0.24,1.88
28.62,-6.19,-8.06,-6.20,-8.08,6.00,6.21,7.10,-0.19,-0.20,1.87
28.90,-6.12,-8.00,-6.17,-8.04,6.00,6.20,7.20,-0.12,-0.17,1.88
29.19,-6.10,-7.97,-6.13,-8.00,6.00,6.19,7.29,-0.10,-0.13,1.87
29.48,-6.10,-7.95,-6.10,-7.96,6.00,6.18,7.37,-0.10,-0.10,1.85
29.78,-6.10,-7.95,-6.07,-7.92,6.00,6.16,7.45,-0.10,-0.07,1.85
30.08,-6.08,-7.93,-6.03,-7.87,6.00,6.15,7.51,-0.08,-0.03,1.85
30.38,-6.01,-7.84,-5.99,-7.82,6.00,6.14,7.56,-0.01,0.01,1.83
30.68,-5.94,-7.77,-5.95,-7.78,6.00,6.13,7.61,0.06,0.05,1.83
30.99,-5.87,-7.69,-5.92,-7.74,6.00,6.12,7.64,0.13,0.08,1.82
31.30,-5.87,-7.67,-5.89,-7.70,6.00,6.11,7.65,0.13,0.11,1.80
31.61,-5.87,-7.67,-5.86,-7.66,6.00,6.10,7.66,0.13,0.14,1.80
31.93,-5.87,-7.65,-5.83,-7.62,6.00,6.09,7.65,0.13,0.17,1.78
32.24,-5.82,-7.61,-5.79,-7.58,6.00,6.08,7.64,0.18,0.21,1.79
32.57,-5.74,-7.52,-5.75,-7.53,6.00,6.07,7.61,0.26,0.25,1.78
32.89,-5.67,-7.44,-5.71,-7.49,6.00,6.05,7.57,0.33,0.29,1.77
33.22,-5.65,-7.42,-5.68,-7.45,6.00,6.04,7.52,0.35,0.32,1.77
33.55,-5.65,-7.42,-5.64,-7.42,6.00,6.03,7.46,0.35,0.36,1.77
33.89,-5.65,-7.43,-5.60,-7.38,6.00,6.02,7.40,0.35,0.40,1.78
34.23,-5.60,-7.36,-5.56,-7.33,6.00,6.01,7.32,0.40,0.44,1.76
34.57,-5.52,-7.29,-5.52,-7.29,6.00,6.00,7.24,0.48,0.48,1.77
34.92,-5.44,-7.21,-5.47,-7.24,6.00,5.99,7.16,0.56,0.53,1.77
35.27,-5.42,-7.19,-5.43,-7.19,6.00,5.98,7.07,0.58,0.57,1.77
35.62,-5.42,-7.17,-5.40,-7.15,6.00,5.97,6.97,0.58,0.60,1.75
35.97,-5.42,-7.17,-5.37,-7.12,6.00,5.96,6.88,0.58,0.63,1.75
36.33,-5.34,-7.08,-5.34,-7.07,6.00,5.95,6.78,0.66,0.66,1.74
36.70,-5.26,-6.98,-5.30,-7.03,6.00,5.94,6.68,0.74,0.70,1.72
37.06,-5.19,-6.90,-5.26,-6.97,6.00,5.93,6.58,0.81,0.74,1.71
37.43,-5.19,-6.88,-5.22,-6.91,6.00,5.92,6.48,0.81,0.78,1.69
37.81,-5.19,-6.86,-5.19,-6.86,6.00,5.91,6.38,0.81,0.81,1.67
38.19,-5.19,-6.85,-5.16,-6.80,6.00,5.90,6.28,0.81,0.84,1.66
38.57,-5.19,-6.82,-5.13,-6.75,6.00,5.90,6.18,0.81,0.87,1.63
38.95,-5.19,-6.79,-5.11,-6.70,6.00,5.89,6.08,0.81,0.89,1.61
39.34,-5.11,-6.67,-5.08,-6.66,6.00,5.89,5.99,0.89,0.92,1.56
39.74,-5.02,-6.56,-5.06,-6.61,6.00,5.88,5.90,0.98,0.94,1.54
40.14,-4.96,-6.47,-5.04,-6.56,6.00,5.88,5.81,1.04,0.96,1.51
40.54,-4.96,-6.45,-5.02,-6.51,6.00,5.88,5.72,1.04,0.98,1.49
40.94,-4.96,-6.41,-4.99,-6.46,6.00,5.87,5.64,1.04,1.01,1.45
41.35,-4.96,-6.40,-4.97,-6.41,6.00,5.87,5.56,1.04,1.03,1.44
41.76,-4.96,-6.37,-4.94,-6.35,6.00,5.87,5.49,1.04,1.06,1.41
42.18,-4.96,-6.35,-4.91,-6.30,6.00,5.87,5.42,1.04,1.09,1.39
42.60,-4.96,-6.33,-4.88,-6.25,6.00,5.87,5.35,1.04,1.12,1.37
43.03,-4.95,-6.29,-4.87,-6.21,6.00,5.87,5.29,1.05,1.13,1.34
43.46,-4.85,-6.16,-4.85,-6.17,6.00,5.86,5.23,1.15,1.15,1.31
43.90,-4.75,-6.05,-4.83,-6.13,5.99,5.85,5.17,1.24,1.16,1.30
44.33,-4.73,-6.00,-4.81,-6.08,5.97,5.84,5.12,1.24,1.17,1.27
44.78,-4.73,-5.97,-4.78,-6.03,5.95,5.82,5.07,1.22,1.17,1.24
45.23,-4.73,-5.96,-4.75,-5.97,5.91,5.80,5.03,1.18,1.16,1.23
45.68,-4.73,-5.93,-4.71,-5.91,5.86,5.77,4.99,1.14,1.15,1.20
46.13,-4.73,-5.89,-4.68,-5.84,5.82,5.74,4.96,1.09,1.14,1.16
46.60,-4.73,-5.86,-4.65,-5.78,5.78,5.70,4.92,1.05,1.12,1.13
47.06,-4.72,-5.83,-4.63,-5.73,5.73,5.65,4.89,1.01,1.10,1.11
47.53,-4.61,-5.69,-4.61,-5.68,5.68,5.61,4.87,1.07,1.07,1.08
48.01,-4.51,-5.54,-4.60,-5.63,5.63,5.56,4.85,1.12,1.03,1.03
48.49,-4.51,-5.51,-4.58,-5.58,5.58,5.50,4.83,1.08,1.00,1.00
48.97,-4.51,-5.47,-4.56,-5.53,5.53,5.45,4.81,1.02,0.97,0.96
49.46,-4.51,-5.44,-4.54,-5.47,5.47,5.39,4.80,0.96,0.93,0.93
49.96,-4.51,-5.39,-4.51,-5.40,5.40,5.34,4.79,0.89,0.89,0.88
50.46,-4.51,-5.36,-4.48,-5.34,5.34,5.28,4.78,0.83,0.86,0.85
50.96,-4.51,-5.33,-4.45,-5.27,5.27,5.23,4.78,0.76,0.82,0.82
51.47,-4.51,-5.30,-4.42,-5.21,5.21,5.18,4.78,0.70,0.78,0.79
51.99,-4.51,-5.26,-4.40,-5.14,5.14,5.12,4.78,0.64,0.75,0.75
52.51,-4.39,-5.10,-4.38,-5.09,5.09,5.07,4.78,0.70,0.71,0.71
53.03,-4.28,-4.97,-4.37,-5.03,5.03,5.02,4.78,0.75,0.67,0.69
53.56,-4.28,-4.91,-4.35,-4.98,4.98,4.98,4.78,0.70,0.63,0.64
54.10,-4.28,-4.87,-4.33,-4.93,4.93,4.93,4.78,0.65,0.59,0.59
54.64,-4.28,-4.83,-4.32,-4.88,4.88,4.88,4.78,0.60,0.56,0.56
55.18,-4.28,-4.79,-4.31,-4.84,4.84,4.84,4.79,0.56,0.52,0.51
55.74,-4.28,-4.75,-4.30,-4.79,4.79,4.79,4.79,0.51,0.49,0.47
56.29,-4.28,-4.71,-4.28,-4.74,4.74,4.75,4.79,0.46,0.45,0.44
56.86,-4.28,-4.70,-4.26,-4.68,4.68,4.70,4.79,0.40,0.42,0.42
57.42,-4.28,-4.65,-4.25,-4.63,4.63,4.66,4.78,0.35,0.38,0.37
58.00,-4.28,-4.62,-4.24,-4.58,4.58,4.61,4.78,0.30,0.35,0.34
58.58,-4.28,-4.60,-4.23,-4.54,4.54,4.57,4.77,0.26,0.31,0.32
59.16,-4.28,-4.58,-4.21,-4.48,4.48,4.53,4.76,0.20,0.27,0.30
59.76,-4.28,-4.54,-4.19,-4.42,4.42,4.48,4.74,0.15,0.23,0.26
60.35,-4.20,-4.41,-4.17,-4.36,4.36,4.44,4.73,0.17,0.20,0.21
60.96,-4.06,-4.23,-4.15,-4.30,4.30,4.40,4.70,0.24,0.16,0.17
61.57,-4.05,-4.16,-4.12,-4.24,4.24,4.35,4.68,0.19,0.12,0.11
62.18,-4.05,-4.11,-4.10,-4.18,4.18,4.31,4.65,0.13,0.07,0.06
62.80,-4.05,-4.06,-4.08,-4.11,4.11,4.27,4.61,0.06,0.03,0.01
63.43,-4.05,-4.02,-4.07,-4.05,4.05,4.22,4.57,0.00,-0.02,-0.03
64.07,-4.05,-3.98,-4.05,-3.99,3.99,4.18,4.53,-0.06,-0.06,-0.07
64.71,-4.05,-3.95,-4.04,-3.94,3.94,4.14,4.48,-0.11,-0.11,-0.10
65.35,-4.05,-3.90,-4.05,-3.89,3.89,4.09,4.43,-0.16,-0.15,-0.15
66.01,-4.05,-3.85,-4.05,-3.85,3.85,4.05,4.38,-0.20,-0.20,-0.20
66.67,-4.05,-3.81,-4.05,-3.81,3.81,4.00,4.32,-0.24,-0.24,-0.24
67.33,-4.05,-3.76,-4.05,-3.77,3.77,3.96,4.26,-0.28,-0.29,-0.29
68.01,-4.05,-3.72,-4.05,-3.72,3.72,3.92,4.19,-0.33,-0.33,-0.33
68.69,-4.05,-3.67,-4.04,-3.66,3.66,3.87,4.13,-0.39,-0.38,-0.38
69.37,-4.05,-3.64,-4.02,-3.60,3.60,3.83,4.05,-0.45,-0.42,-0.41
70.07,-4.05,-3.59,-4.01,-3.54,3.54,3.78,3.98,-0.51,-0.47,-0.46
70.77,-4.05,-3.54,-3.99,-3.47,3.47,3.74,3.91,-0.58,-0.52,-0.51
71.48,-4.05,-3.49,-3.96,-3.40,3.40,3.69,3.83,-0.65,-0.56,-0.56
72.19,-4.00,-3.39,-3.94,-3.33,3.33,3.64,3.75,-0.67,-0.61,-0.61
72.91,-3.84,-3.18,-3.92,-3.27,3.27,3.60,3.67,-0.57,-0.65,-0.65
73.64,-3.82,-3.11,-3.90,-3.20,3.20,3.55,3.59,-0.62,-0.69,-0.71
74.38,-3.82,-3.07,-3.88,-3.14,3.14,3.51,3.52,-0.68,-0.74,-0.75
75.12,-3.82,-3.03,-3.86,-3.08,3.08,3.46,3.44,-0.74,-0.77,-0.79
75.87,-3.82,-3.01,-3.84,-3.03,3.03,3.41,3.36,-0.79,-0.81,-0.81
76.63,-3.82,-2.97,-3.82,-2.98,2.98,3.36,3.28,-0.84,-0.84,-0.85
77.40,-3.82,-2.94,-3.81,-2.93,2.93,3.32,3.20,-0.88,-0.88,-0.88
78.17,-3.82,-2.91,-3.80,-2.90,2.90,3.27,3.12,-0.92,-0.91,-0.91
78.95,-3.82,-2.88,-3.80,-2.86,2.86,3.22,3.04,-0.96,-0.94,-0.94
79.74,-3.82,-2.85,-3.80,-2.83,2.83,3.17,2.97,-0.99,-0.97,-0.97
80.54,-3.82,-2.82,-3.81,-2.81,2.81,3.12,2.89,-1.01,-1.00,-1.00
81.35,-3.82,-2.79,-3.82,-2.79,2.79,3.08,2.82,-1.03,-1.03,-1.03
82.16,-3.82,-2.77,-3.82,-2.76,2.76,3.03,2.75,-1.06,-1.06,-1.05
82.98,-3.82,-2.73,-3.82,-2.72,2.72,2.98,2.67,-1.10,-1.10,-1.09
83.81,-3.82,-2.70,-3.82,-2.69,2.69,2.93,2.61,-1.13,-1.13,-1.12
84.65,-3.82,-2.66,-3.83,-2.66,2.66,2.88,2.54,-1.15,-1.17,-1.16
85.50,-3.82,-2.61,-3.84,-2.63,2.63,2.83,2.47,-1.19,-1.20,-1.21
86.35,-3.82,-2.58,-3.84,-2.59,2.59,2.78,2.41,-1.22,-1.24,-1.24
87.22,-3.82,-2.54,-3.83,-2.55,2.55,2.73,2.35,-1.27,-1.28,-1.28
88.09,-3.82,-2.50,-3.82,-2.50,2.50,2.68,2.28,-1.32,-1.32,-1.32
88.97,-3.82,-2.45,-3.81,-2.44,2.44,2.63,2.23,-1.37,-1.36,-1.37
89.86,-3.82,-2.41,-3.79,-2.39,2.39,2.58,2.17,-1.43,-1.41,-1.41
90.76,-3.82,-2.37,-3.77,-2.32,2.32,2.53,2.11,-1.50,-1.45,-1.45
91.66,-3.82,-2.32,-3.75,-2.26,2.26,2.48,2.06,-1.56,-1.49,-1.50
92.58,-3.82,-2.29,-3.73,-2.19,2.19,2.43,2.01,-1.63,-1.54,-1.53
93.51,-3.72,-2.14,-3.71,-2.12,2.12,2.38,1.95,-1.60,-1.58,-1.58
94.44,-3.61,-2.00,-3.69,-2.06,2.06,2.33,1.90,-1.55,-1.63,-1.61
95.39,-3.59,-1.92,-3.66,-1.99,1.99,2.28,1.86,-1.60,-1.67,-1.67
96.34,-3.59,-1.87,-3.64,-1.92,1.92,2.22,1.81,-1.67,-1.72,-1.72
97.30,-3.59,-1.83,-3.62,-1.86,1.86,2.17,1.76,-1.73,-1.76,-1.76
98.28,-3.59,-1.77,-3.61,-1.80,1.80,2.12,1.72,-1.79,-1.81,-1.82
99.26,-3.59,-1.73,-3.59,-1.74,1.74,2.07,1.68,-1.85,-1.85,-1.86
100.25,-3.59,-1.69,-3.58,-1.69,1.69,2.02,1.64,-1.90,-1.89,-1.90
101.25,-3.59,-1.65,-3.57,-1.64,1.64,1.97,1.60,-1.95,-1.93,-1.94
102.27,-3.59,-1.61,-3.57,-1.60,1.60,1.92,1.56,-1.99,-1.97,-1.98
103.29,-3.59,-1.58,-3.57,-1.56,1.56,1.87,1.52,-2.02,-2.01,-2.01
104.32,-3.59,-1.55,-3.58,-1.54,1.54,1.81,1.48,-2.05,-2.04,-2.04
105.37,-3.59,-1.51,-3.59,-1.51,1.51,1.76,1.45,-2.08,-2.08,-2.08
106.42,-3.59,-1.48,-3.59,-1.48,1.48,1.71,1.41,-2.11,-2.11,-2.11
107.48,-3.59,-1.43,-3.59,-1.45,1.45,1.66,1.38,-2.14,-2.14,-2.16
108.56,-3.59,-1.42,-3.59,-1.41,1.41,1.61,1.35,-2.18,-2.18,-2.17
109.64,-3.59,-1.38,-3.59,-1.38,1.38,1.56,1.31,-2.21,-2.21,-2.21
110.74,-3.59,-1.35,-3.59,-1.35,1.35,1.51,1.28,-2.24,-2.24,-2.24
111.85,-3.59,-1.31,-3.59,-1.31,1.31,1.46,1.25,-2.28,-2.28,-2.28
112.97,-3.59,-1.29,-3.59,-1.27,1.27,1.41,1.22,-2.31,-2.31,-2.30
114.10,-3.59,-1.25,-3.59,-1.24,1.24,1.36,1.19,-2.35,-2.35,-2.34
115.24,-3.59,-1.20,-3.59,-1.20,1.20,1.31,1.15,-2.39,-2.39,-2.39
116.39,-3.59,-1.16,-3.59,-1.16,1.16,1.26,1.12,-2.43,-2.43,-2.43
117.55,-3.59,-1.12,-3.59,-1.12,1.12,1.21,1.09,-2.46,-2.46,-2.47
118.73,-3.59,-1.08,-3.59,-1.09,1.09,1.16,1.06,-2.50,-2.50,-2.51
119.92,-3.59,-1.03,-3.59,-1.04,1.04,1.11,1.03,-2.54,-2.54,-2.56
121.12,-3.59,-1.01,-3.59,-1.00,1.00,1.06,1.00,-2.59,-2.59,-2.58
122.33,-3.59,-0.96,-3.59,-0.96,0.96,1.01,0.97,-2.63,-2.63,-2.63
123.55,-3.59,-0.92,-3.59,-0.92,0.92,0.96,0.94,-2.67,-2.67,-2.67
124.79,-3.59,-0.88,-3.59,-0.87,0.87,0.91,0.91,-2.72,-2.72,-2.71
126.03,-3.59,-0.84,-3.59,-0.83,0.83,0.86,0.88,-2.76,-2.76,-2.75
127.29,-3.59,-0.79,-3.59,-0.79,0.79,0.81,0.84,-2.80,-2.80,-2.80
128.57,-3.59,-0.75,-3.59,-0.74,0.74,0.76,0.81,-2.85,-2.85,-2.84
129.85,-3.59,-0.70,-3.59,-0.70,0.70,0.72,0.78,-2.89,-2.89,-2.89
131.15,-3.59,-0.66,-3.59,-0.66,0.66,0.67,0.75,-2.93,-2.93,-2.93
132.46,-3.59,-0.61,-3.59,-0.62,0.62,0.62,0.71,-2.97,-2.97,-2.98
133.79,-3.59,-0.57,-3.59,-0.58,0.58,0.57,0.68,-3.01,-3.01,-3.02
135.12,-3.59,-0.53,-3.59,-0.54,0.54,0.53,0.65,-3.05,-3.05,-3.06
136.48,-3.59,-0.50,-3.59,-0.50,0.50,0.48,0.61,-3.09,-3.09,-3.09
137.84,-3.59,-0.46,-3.59,-0.46,0.46,0.44,0.58,-3.13,-3.13,-3.12
139.22,-3.59,-0.42,-3.59,-0.42,0.42,0.39,0.54,-3.16,-3.16,-3.17
140.61,-3.59,-0.39,-3.59,-0.39,0.39,0.34,0.51,-3.20,-3.20,-3.20
142.02,-3.59,-0.35,-3.59,-0.36,0.36,0.30,0.47,-3.23,-3.23,-3.24
143.44,-3.59,-0.32,-3.59,-0.33,0.33,0.26,0.44,-3.26,-3.26,-3.27
144.87,-3.59,-0.30,-3.59,-0.29,0.29,0.21,0.40,-3.29,-3.29,-3.29
146.32,-3.59,-0.27,-3.59,-0.26,0.26,0.17,0.36,-3.32,-3.32,-3.32
147.78,-3.59,-0.23,-3.59,-0.23,0.23,0.12,0.33,-3.35,-3.35,-3.36
149.26,-3.59,-0.20,-3.59,-0.20,0.20,0.08,0.29,-3.38,-3.38,-3.39
150.75,-3.59,-0.17,-3.59,-0.17,0.17,0.04,0.25,-3.42,-3.42,-3.42
152.26,-3.59,-0.15,-3.59,-0.14,0.14,-0.00,0.22,-3.45,-3.45,-3.44
153.78,-3.59,-0.11,-3.59,-0.11,0.11,-0.04,0.18,-3.48,-3.48,-3.48
155.32,-3.59,-0.09,-3.59,-0.08,0.08,-0.08,0.14,-3.51,-3.51,-3.50
156.88,-3.59,-0.05,-3.59,-0.05,0.05,-0.12,0.10,-3.54,-3.54,-3.53
158.44,-3.59,-0.02,-3.59,-0.02,0.02,-0.16,0.06,-3.57,-3.57,-3.57
160.03,-3.59,0.01,-3.59,0.01,-0.01,-0.20,0.02,-3.60,-3.60,-3.60
161.63,-3.59,0.04,-3.59,0.04,-0.04,-0.24,-0.02,-3.63,-3.63,-3.63
163.24,-3.59,0.08,-3.59,0.08,-0.08,-0.28,-0.06,-3.67,-3.67,-3.67
164.88,-3.59,0.11,-3.59,0.11,-0.11,-0.32,-0.09,-3.70,-3.70,-3.70
166.53,-3.59,0.15,-3.59,0.14,-0.14,-0.36,-0.13,-3.73,-3.73,-3.74
168.19,-3.59,0.17,-3.59,0.18,-0.18,-0.39,-0.18,-3.77,-3.77,-3.76
169.87,-3.59,0.21,-3.59,0.21,-0.21,-0.43,-0.22,-3.80,-3.80,-3.80
171.57,-3.59,0.25,-3.59,0.25,-0.25,-0.46,-0.26,-3.84,-3.84,-3.83
173.29,-3.59,0.28,-3.59,0.29,-0.29,-0.50,-0.30,-3.88,-3.88,-3.87
175.02,-3.59,0.32,-3.59,0.32,-0.32,-0.53,-0.34,-3.91,-3.91,-3.91
176.77,-3.59,0.36,-3.59,0.36,-0.36,-0.57,-0.38,-3.95,-3.95,-3.95
178.54,-3.59,0.40,-3.59,0.40,-0.40,-0.60,-0.42,-3.99,-3.99,-3.98
180.32,-3.59,0.44,-3.59,0.44,-0.44,-0.63,-0.47,-4.03,-4.03,-4.03
182.13,-3.59,0.48,-3.59,0.48,-0.48,-0.67,-0.51,-4.07,-4.07,-4.07
183.95,-3.59,0.51,-3.59,0.52,-0.52,-0.70,-0.55,-4.11,-4.11,-4.10
185.79,-3.59,0.56,-3.59,0.56,-0.56,-0.73,-0.60,-4.14,-4.14,-4.15
187.65,-3.59,0.59,-3.59,0.59,-0.59,-0.76,-0.64,-4.18,-4.18,-4.18
189.52,-3.59,0.63,-3.59,0.63,-0.63,-0.79,-0.69,-4.22,-4.22,-4.22
191.42,-3.59,0.66,-3.59,0.67,-0.67,-0.82,-0.73,-4.26,-4.26,-4.25
193.33,-3.59,0.70,-3.59,0.70,-0.70,-0.85,-0.78,-4.29,-4.29,-4.29
195.27,-3.59,0.74,-3.60,0.73,-0.73,-0.87,-0.82,-4.32,-4.33,-4.33
197.22,-3.59,0.78,-3.61,0.75,-0.75,-0.90,-0.87,-4.34,-4.36,-4.37
199.19,-3.59,0.80,-3.61,0.78,-0.78,-0.93,-0.91,-4.37,-4.39,-4.39
201.18,-3.59,0.84,-3.60,0.81,-0.81,-0.95,-0.96,-4.40,-4.42,-4.43
203.19,-3.59,0.87,-3.60,0.85,-0.85,-0.98,-1.00,-4.44,-4.45,-4.45
205.23,-3.59,0.88,-3.58,0.89,-0.89,-1.00,-1.05,-4.48,-4.48,-4.47
207.28,-3.59,0.91,-3.57,0.93,-0.93,-1.03,-1.09,-4.52,-4.50,-4.49
209.35,-3.59,0.94,-3.55,0.98,-0.98,-1.05,-1.14,-4.57,-4.53,-4.53
211.44,-3.59,0.96,-3.53,1.02,-1.02,-1.07,-1.18,-4.61,-4.56,-4.55
213.56,-3.59,0.99,-3.51,1.07,-1.07,-1.10,-1.22,-4.66,-4.58,-4.58
215.69,-3.59,1.01,-3.49,1.11,-1.11,-1.12,-1.27,-4.70,-4.61,-4.60
217.85,-3.39,1.23,-3.47,1.16,-1.16,-1.14,-1.31,-4.55,-4.63,-4.62
220.03,-3.37,1.28,-3.45,1.20,-1.20,-1.16,-1.35,-4.57,-4.65,-4.65
222.23,-3.37,1.32,-3.43,1.25,-1.25,-1.18,-1.39,-4.62,-4.68,-4.68
224.45,-3.37,1.34,-3.41,1.29,-1.29,-1.20,-1.42,-4.66,-4.70,-4.71
226.70,-3.37,1.36,-3.39,1.33,-1.33,-1.22,-1.46,-4.70,-4.72,-4.73
228.96,-3.37,1.38,-3.38,1.37,-1.37,-1.24,-1.49,-4.74,-4.75,-4.75
231.25,-3.37,1.40,-3.36,1.40,-1.40,-1.25,-1.52,-4.77,-4.77,-4.77
233.57,-3.37,1.42,-3.36,1.43,-1.43,-1.27,-1.55,-4.80,-4.79,-4.79
235.90,-3.37,1.44,-3.35,1.45,-1.45,-1.29,-1.58,-4.82,-4.81,-4.81
238.26,-3.37,1.46,-3.35,1.47,-1.47,-1.30,-1.60,-4.84,-4.82,-4.83
240.64,-3.37,1.46,-3.36,1.48,-1.48,-1.32,-1.63,-4.85,-4.84,-4.83
243.05,-3.37,1.48,-3.37,1.49,-1.49,-1.33,-1.65,-4.86,-4.85,-4.85
245.48,-3.37,1.50,-3.37,1.50,-1.50,-1.34,-1.66,-4.87,-4.87,-4.87
247.93,-3.37,1.52,-3.37,1.51,-1.51,-1.36,-1.68,-4.88,-4.88,-4.89
250.41,-3.37,1.51,-3.37,1.52,-1.52,-1.37,-1.69,-4.89,-4.89,-4.88
252.92,-3.37,1.53,-3.37,1.53,-1.53,-1.38,-1.70,-4.90,-4.90,-4.90
255.45,-3.37,1.55,-3.37,1.54,-1.54,-1.39,-1.70,-4.91,-4.91,-4.92
258.00,-3.37,1.56,-3.37,1.55,-1.55,-1.40,-1.70,-4.92,-4.92,-4.92
260.58,-3.37,1.56,-3.37,1.56,-1.56,-1.41,-1.70,-4.93,-4.93,-4.93
263.19,-3.37,1.57,-3.37,1.57,-1.57,-1.42,-1.70,-4.94,-4.94,-4.94
265.82,-3.37,1.57,-3.37,1.57,-1.57,-1.43,-1.70,-4.94,-4.94,-4.94
268.48,-3.37,1.58,-3.37,1.58,-1.58,-1.44,-1.69,-4.95,-4.95,-4.95
271.16,-3.37,1.58,-3.37,1.58,-1.58,-1.45,-1.68,-4.95,-4.95,-4.94
273.87,-3.37,1.58,-3.37,1.59,-1.59,-1.46,-1.67,-4.96,-4.96,-4.95
276.61,-3.37,1.59,-3.37,1.59,-1.59,-1.47,-1.65,-4.96,-4.96,-4.95
279.38,-3.37,1.60,-3.37,1.59,-1.59,-1.47,-1.64,-4.96,-4.96,-4.97
282.17,-3.37,1.60,-3.37,1.59,-1.59,-1.48,-1.62,-4.96,-4.96,-4.96
284.99,-3.37,1.59,-3.37,1.59,-1.59,-1.48,-1.60,-4.96,-4.96,-4.96
287.84,-3.37,1.58,-3.37,1.59,-1.59,-1.49,-1.59,-4.96,-4.96,-4.95
290.72,-3.37,1.59,-3.37,1.58,-1.58,-1.49,-1.57,-4.95,-4.95,-4.96
293.63,-3.37,1.58,-3.37,1.58,-1.58,-1.50,-1.55,-4.95,-4.95,-4.95
296.57,-3.37,1.58,-3.37,1.58,-1.58,-1.50,-1.53,-4.95,-4.95,-4.95
299.53,-3.37,1.58,-3.37,1.58,-1.58,-1.50,-1.50,-4.95,-4.95,-4.95
302.53,-3.37,1.56,-3.37,1.57,-1.57,-1.51,-1.48,-4.94,-4.94,-4.93
305.55,-3.37,1.57,-3.37,1.57,-1.57,-1.51,-1.46,-4.94,-4.94,-4.94
308.61,-3.37,1.56,-3.37,1.57,-1.57,-1.51,-1.44,-4.94,-4.94,-4.93
311.69,-3.37,1.56,-3.37,1.56,-1.56,-1.51,-1.42,-4.93,-4.93,-4.93
314.81,-3.37,1.56,-3.37,1.56,-1.56,-1.51,-1.40,-4.93,-4.93,-4.93
317.96,-3.37,1.56,-3.37,1.55,-1.55,-1.51,-1.38,-4.92,-4.92,-4.93
321.14,-3.37,1.55,-3.37,1.55,-1.55,-1.51,-1.36,-4.92,-4.92,-4.92
324.35,-3.37,1.55,-3.37,1.54,-1.54,-1.51,-1.34,-4.91,-4.91,-4.92
327.59,-3.37,1.53,-3.37,1.54,-1.54,-1.51,-1.32,-4.91,-4.91,-4.90
330.87,-3.37,1.53,-3.37,1.53,-1.53,-1.51,-1.30,-4.90,-4.90,-4.90
334.18,-3.37,1.53,-3.37,1.53,-1.53,-1.51,-1.28,-4.89,-4.89,-4.90
337.52,-3.37,1.52,-3.37,1.52,-1.52,-1.51,-1.27,-4.89,-4.89,-4.89
340.90,-3.37,1.51,-3.37,1.51,-1.51,-1.51,-1.25,-4.88,-4.88,-4.88
344.30,-3.37,1.50,-3.37,1.50,-1.50,-1.51,-1.24,-4.87,-4.87,-4.87
347.75,-3.37,1.49,-3.37,1.49,-1.49,-1.50,-1.22,-4.86,-4.86,-4.86
351.23,-3.37,1.49,-3.37,1.48,-1.48,-1.50,-1.21,-4.85,-4.85,-4.86
354.74,-3.37,1.47,-3.37,1.47,-1.47,-1.50,-1.20,-4.84,-4.84,-4.83
358.28,-3.37,1.47,-3.37,1.47,-1.47,-1.50,-1.19,-4.84,-4.84,-4.84
361.87,-3.37,1.46,-3.37,1.46,-1.46,-1.49,-1.18,-4.83,-4.83,-4.83
365.49,-3.37,1.45,-3.37,1.45,-1.45,-1.49,-1.17,-4.82,-4.82,-4.82
369.14,-3.37,1.44,-3.37,1.45,-1.45,-1.48,-1.16,-4.82,-4.82,-4.81
372.83,-3.37,1.43,-3.37,1.44,-1.44,-1.48,-1.15,-4.81,-4.81,-4.80
376.56,-3.37,1.44,-3.37,1.43,-1.43,-1.47,-1.15,-4.80,-4.80,-4.80
380.33,-3.37,1.43,-3.37,1.43,-1.43,-1.47,-1.14,-4.80,-4.80,-4.80
384.13,-3.37,1.42,-3.37,1.42,-1.42,-1.46,-1.14,-4.79,-4.79,-4.79
387.97,-3.37,1.42,-3.37,1.41,-1.41,-1.46,-1.13,-4.78,-4.79,-4.79
391.85,-3.37,1.41,-3.38,1.40,-1.40,-1.45,-1.13,-4.77,-4.78,-4.78
395.77,-3.37,1.42,-3.39,1.39,-1.39,-1.45,-1.13,-4.76,-4.78,-4.79
399.73,-3.37,1.41,-3.39,1.39,-1.39,-1.44,-1.13,-4.75,-4.77,-4.78
403.72,-3.37,1.39,-3.38,1.38,-1.38,-1.44,-1.13,-4.75,-4.76,-4.76
407.76,-3.37,1.40,-3.37,1.39,-1.39,-1.43,-1.13,-4.76,-4.76,-4.76
411.84,-3.37,1.38,-3.36,1.39,-1.39,-1.42,-1.13,-4.76,-4.75,-4.75
415.96,-3.37,1.37,-3.34,1.40,-1.40,-1.42,-1.13,-4.77,-4.74,-4.74
420.12,-3.37,1.37,-3.32,1.41,-1.41,-1.41,-1.13,-4.78,-4.73,-4.74
424.32,-3.37,1.35,-3.30,1.42,-1.42,-1.41,-1.14,-4.79,-4.72,-4.72
428.56,-3.37,1.33,-3.28,1.43,-1.43,-1.40,-1.14,-4.80,-4.71,-4.70
432.85,-3.28,1.41,-3.26,1.44,-1.44,-1.39,-1.14,-4.71,-4.69,-4.69
437.18,-3.16,1.52,-3.24,1.44,-1.44,-1.39,-1.15,-4.60,-4.68,-4.68
441.55,-3.14,1.53,-3.21,1.45,-1.45,-1.38,-1.15,-4.59,-4.67,-4.67
445.96,-3.14,1.51,-3.19,1.46,-1.46,-1.37,-1.16,-4.60,-4.65,-4.65
450.42,-3.14,1.50,-3.17,1.47,-1.47,-1.36,-1.16,-4.61,-4.64,-4.64
454.93,-3.14,1.48,-3.16,1.47,-1.47,-1.36,-1.17,-4.61,-4.63,-4.62
