frequency,raw,error,smoothed,error_smoothed,equalization,parametric_eq,fixed_band_eq,equalized_raw,equalized_smoothed,target
20.00,9.24,3.43,9.24,3.43,-3.43,-3.56,-2.03,5.81,5.81,5.81
20.20,9.28,3.48,9.28,3.48,-3.48,-3.59,-2.09,5.80,5.80,5.80
20.40,9.32,3.53,9.32,3.53,-3.53,-3.62,-2.15,5.79,5.79,5.79
20.61,9.36,3.57,9.36,3.58,-3.58,-3.65,-2.21,5.78,5.78,5.79
20.81,9.40,3.63,9.40,3.63,-3.63,-3.68,-2.27,5.77,5.78,5.77
21.02,9.44,3.67,9.44,3.67,-3.67,-3.71,-2.33,5.76,5.77,5.77
21.23,9.49,3.73,9.48,3.72,-3.72,-3.74,-2.40,5.77,5.76,5.76
21.44,9.53,3.76,9.52,3.76,-3.76,-3.77,-2.46,5.77,5.75,5.77
21.66,9.57,3.81,9.55,3.80,-3.80,-3.80,-2.53,5.76,5.75,5.76
21.87,9.62,3.87,9.59,3.85,-3.85,-3.83,-2.60,5.77,5.74,5.75
22.09,9.65,3.91,9.62,3.89,-3.89,-3.86,-2.68,5.76,5.74,5.74
22.31,9.67,3.93,9.66,3.93,-3.93,-3.89,-2.75,5.74,5.73,5.74
22.54,9.69,3.96,9.69,3.96,-3.96,-3.92,-2.83,5.73,5.73,5.73
22.76,9.72,3.99,9.72,4.00,-4.00,-3.95,-2.91,5.72,5.72,5.72
22.99,9.74,4.02,9.75,4.03,-4.03,-3.98,-2.99,5.71,5.72,5.71
23.22,9.77,4.06,9.78,4.06,-4.06,-4.01,-3.07,5.70,5.72,5.70
23.45,9.80,4.08,9.81,4.10,-4.10,-4.04,-3.15,5.70,5.71,5.71
23.69,9.83,4.12,9.84,4.13,-4.13,-4.07,-3.24,5.69,5.71,5.70
23.92,9.86,4.16,9.88,4.17,-4.17,-4.10,-3.33,5.69,5.71,5.70
24.16,9.90,4.19,9.91,4.20,-4.20,-4.13,-3.42,5.70,5.71,5.71
24.40,9.94,4.22,9.94,4.23,-4.23,-4.16,-3.51,5.71,5.71,5.72
24.65,9.98,4.26,9.97,4.26,-4.26,-4.19,-3.60,5.72,5.71,5.72
24.89,10.02,4.30,10.00,4.28,-4.28,-4.22,-3.69,5.74,5.72,5.72
25.14,10.05,4.33,10.02,4.31,-4.31,-4.25,-3.78,5.74,5.72,5.72
25.39,10.08,4.36,10.05,4.33,-4.33,-4.28,-3.88,5.75,5.72,5.72
25.65,10.11,4.39,10.08,4.36,-4.36,-4.30,-3.98,5.75,5.72,5.72
25.91,10.13,4.40,10.11,4.38,-4.38,-4.33,-4.07,5.75,5.73,5.73
26.16,10.14,4.40,10.13,4.41,-4.41,-4.36,-4.17,5.73,5.73,5.74
26.43,10.14,4.40,10.16,4.43,-4.43,-4.39,-4.26,5.71,5.73,5.73
26.69,10.15,4.41,10.18,4.44,-4.44,-4.42,-4.36,5.70,5.73,5.73
26.96,10.15,4.41,10.19,4.46,-4.46,-4.44,-4.45,5.68,5.73,5.73
27.23,10.19,4.46,10.22,4.48,-4.48,-4.47,-4.55,5.70,5.73,5.73
27.50,10.25,4.52,10.24,4.51,-4.51,-4.50,-4.64,5.74,5.73,5.73
27.77,10.30,4.56,10.27,4.53,-4.53,-4.53,-4.73,5.76,5.73,5.74
28.05,10.34,4.60,10.30,4.56,-4.56,-4.55,-4.81,5.77,5.74,5.74
28.33,10.34,4.61,10.33,4.59,-4.59,-4.58,-4.90,5.74,5.74,5.73
28.62,10.34,4.61,10.36,4.62,-4.62,-4.61,-4.98,5.71,5.73,5.73
28.90,10.34,4.60,10.39,4.65,-4.65,-4.64,-5.05,5.68,5.73,5.73
29.19,10.38,4.64,10.42,4.68,-4.68,-4.66,-5.12,5.69,5.73,5.73
29.48,10.44,4.71,10.44,4.71,-4.71,-4.69,-5.19,5.73,5.73,5.73
29.78,10.50,4.77,10.46,4.74,-4.74,-4.72,-5.25,5.76,5.73,5.73
30.08,10.55,4.81,10.48,4.76,-4.76,-4.74,-5.31,5.79,5.72,5.74
30.38,10.55,4.82,10.50,4.78,-4.78,-4.77,-5.36,5.77,5.72,5.73
30.68,10.55,4.83,10.52,4.80,-4.80,-4.80,-5.41,5.74,5.71,5.71
30.99,10.55,4.83,10.54,4.83,-4.83,-4.82,-5.45,5.72,5.71,5.71
31.30,10.55,4.85,10.56,4.85,-4.85,-4.85,-5.48,5.69,5.70,5.70
31.61,10.55,4.85,10.58,4.88,-4.88,-4.88,-5.51,5.67,5.70,5.70
31.93,10.55,4.86,10.60,4.91,-4.91,-4.90,-5.54,5.64,5.69,5.69
32.24,10.57,4.88,10.62,4.93,-4.93,-4.93,-5.55,5.63,5.69,5.68
32.57,10.61,4.93,10.63,4.95,-4.95,-4.95,-5.56,5.66,5.68,5.67
32.89,10.64,4.97,10.64,4.97,-4.97,-4.98,-5.57,5.67,5.68,5.67
33.22,10.67,5.00,10.66,4.98,-4.98,-5.01,-5.57,5.68,5.67,5.67
33.55,10.71,5.04,10.67,5.00,-5.00,-5.03,-5.57,5.71,5.67,5.67
33.89,10.74,5.06,10.69,5.02,-5.02,-5.06,-5.56,5.71,5.67,5.67
34.23,10.75,5.09,10.71,5.05,-5.05,-5.08,-5.55,5.70,5.66,5.66
34.57,10.75,5.09,10.73,5.07,-5.07,-5.11,-5.54,5.68,5.66,5.66
34.92,10.75,5.09,10.75,5.09,-5.09,-5.14,-5.52,5.65,5.66,5.65
35.27,10.75,5.09,10.77,5.11,-5.11,-5.16,-5.50,5.63,5.65,5.66
35.62,10.75,5.10,10.78,5.14,-5.14,-5.19,-5.48,5.61,5.64,5.65
35.97,10.75,5.10,10.79,5.16,-5.16,-5.21,-5.46,5.59,5.64,5.64
36.33,10.78,5.15,10.80,5.18,-5.18,-5.24,-5.44,5.60,5.63,5.63
36.70,10.82,5.20,10.81,5.20,-5.20,-5.27,-5.42,5.62,5.61,5.62
37.06,10.85,5.24,10.82,5.22,-5.22,-5.29,-5.40,5.63,5.60,5.60
37.43,10.85,5.27,10.82,5.24,-5.24,-5.32,-5.38,5.60,5.58,5.58
37.81,10.85,5.28,10.83,5.27,-5.27,-5.34,-5.36,5.58,5.56,5.57
38.19,10.85,5.30,10.84,5.30,-5.30,-5.37,-5.34,5.55,5.54,5.54
38.57,10.85,5.33,10.84,5.33,-5.33,-5.40,-5.32,5.52,5.52,5.52
38.95,10.85,5.35,10.85,5.35,-5.35,-5.42,-5.31,5.49,5.49,5.49
39.34,10.85,5.39,10.85,5.38,-5.38,-5.45,-5.29,5.47,5.47,5.46
39.74,10.85,5.40,10.85,5.40,-5.40,-5.48,-5.29,5.45,5.45,5.44
40.14,10.85,5.43,10.85,5.43,-5.43,-5.51,-5.28,5.42,5.42,5.42
40.54,10.85,5.45,10.85,5.45,-5.45,-5.53,-5.27,5.40,5.40,5.39
40.94,10.85,5.48,10.84,5.47,-5.47,-5.56,-5.27,5.38,5.37,5.37
41.35,10.85,5.49,10.85,5.50,-5.50,-5.59,-5.28,5.35,5.35,5.35
41.76,10.85,5.53,10.85,5.53,-5.53,-5.61,-5.28,5.32,5.33,5.32
42.18,10.85,5.55,10.86,5.56,-5.56,-5.64,-5.29,5.29,5.30,5.30
42.60,10.85,5.56,10.87,5.59,-5.59,-5.67,-5.31,5.25,5.28,5.28
43.03,10.85,5.59,10.89,5.63,-5.63,-5.70,-5.33,5.22,5.26,5.26
43.46,10.90,5.67,10.90,5.67,-5.67,-5.73,-5.35,5.23,5.24,5.23
43.90,10.94,5.72,10.92,5.71,-5.71,-5.75,-5.38,5.23,5.21,5.21
44.33,10.95,5.76,10.94,5.75,-5.75,-5.78,-5.41,5.19,5.19,5.19
44.78,10.95,5.79,10.96,5.80,-5.80,-5.81,-5.44,5.15,5.16,5.16
45.23,10.97,5.82,10.98,5.85,-5.85,-5.84,-5.48,5.12,5.14,5.15
45.68,11.02,5.90,11.00,5.89,-5.89,-5.87,-5.52,5.12,5.11,5.11
46.13,11.05,5.97,11.02,5.94,-5.94,-5.90,-5.57,5.11,5.08,5.07
46.60,11.05,6.00,11.03,5.98,-5.98,-5.93,-5.62,5.06,5.04,5.05
47.06,11.05,6.03,11.03,6.03,-6.03,-5.96,-5.67,5.02,5.01,5.02
47.53,11.05,6.06,11.04,6.07,-6.07,-5.99,-5.73,4.98,4.97,4.99
48.01,11.05,6.11,11.04,6.10,-6.10,-6.02,-5.79,4.95,4.94,4.94
48.49,11.05,6.15,11.03,6.13,-6.13,-6.05,-5.86,4.92,4.90,4.90
48.97,11.05,6.19,11.02,6.16,-6.16,-6.08,-5.92,4.88,4.86,4.86
49.46,11.03,6.20,11.01,6.19,-6.19,-6.11,-6.00,4.83,4.82,4.83
49.96,11.00,6.23,11.01,6.22,-6.22,-6.14,-6.07,4.78,4.78,4.76
50.46,10.98,6.24,10.99,6.25,-6.25,-6.17,-6.15,4.73,4.74,4.73
50.96,10.95,6.25,10.98,6.28,-6.28,-6.21,-6.23,4.67,4.70,4.70
51.47,10.95,6.28,10.97,6.30,-6.30,-6.24,-6.31,4.64,4.67,4.67
51.99,10.95,6.32,10.96,6.34,-6.34,-6.27,-6.39,4.61,4.63,4.62
52.51,10.95,6.36,10.95,6.37,-6.37,-6.30,-6.48,4.58,4.59,4.59
53.03,10.95,6.38,10.95,6.40,-6.40,-6.34,-6.56,4.55,4.55,4.57
53.56,10.95,6.42,10.94,6.43,-6.43,-6.37,-6.65,4.51,4.51,4.52
54.10,10.95,6.47,10.94,6.46,-6.46,-6.40,-6.74,4.48,4.48,4.48
54.64,10.95,6.51,10.94,6.50,-6.50,-6.43,-6.82,4.45,4.44,4.44
55.18,10.95,6.55,10.94,6.53,-6.53,-6.47,-6.91,4.41,4.41,4.40
55.74,10.95,6.59,10.95,6.57,-6.57,-6.50,-6.99,4.38,4.38,4.36
56.29,10.95,6.62,10.95,6.61,-6.61,-6.53,-7.07,4.34,4.34,4.33
56.86,10.95,6.64,10.95,6.64,-6.64,-6.57,-7.14,4.30,4.31,4.30
57.42,10.95,6.69,10.95,6.68,-6.68,-6.60,-7.22,4.27,4.27,4.26
58.00,10.95,6.71,10.95,6.71,-6.71,-6.64,-7.29,4.23,4.24,4.24
58.58,10.95,6.73,10.95,6.75,-6.75,-6.67,-7.35,4.20,4.20,4.22
59.16,10.95,6.76,10.95,6.78,-6.78,-6.71,-7.41,4.17,4.16,4.19
59.76,10.95,6.79,10.94,6.81,-6.81,-6.74,-7.46,4.14,4.13,4.16
60.35,10.95,6.84,10.92,6.84,-6.84,-6.77,-7.51,4.11,4.09,4.10
60.96,10.95,6.88,10.91,6.86,-6.86,-6.81,-7.55,4.09,4.05,4.06
61.57,10.92,6.91,10.89,6.89,-6.89,-6.84,-7.58,4.03,4.01,4.01
62.18,10.88,6.92,10.88,6.91,-6.91,-6.88,-7.60,3.96,3.96,3.96
62.80,10.86,6.96,10.86,6.94,-6.94,-6.91,-7.62,3.92,3.92,3.90
63.43,10.85,6.99,10.84,6.97,-6.97,-6.95,-7.63,3.88,3.87,3.86
64.07,10.83,7.01,10.83,7.00,-7.00,-6.98,-7.64,3.83,3.83,3.82
64.71,10.78,7.00,10.81,7.03,-7.03,-7.02,-7.63,3.75,3.78,3.77
65.35,10.75,7.01,10.79,7.06,-7.06,-7.05,-7.62,3.69,3.74,3.74
66.01,10.75,7.06,10.78,7.09,-7.09,-7.09,-7.61,3.66,3.69,3.69
66.67,10.75,7.09,10.76,7.12,-7.12,-7.12,-7.58,3.63,3.64,3.66
67.33,10.75,7.15,10.75,7.15,-7.15,-7.15,-7.56,3.60,3.60,3.60
68.01,10.75,7.19,10.74,7.18,-7.18,-7.19,-7.52,3.56,3.55,3.56
68.69,10.75,7.24,10.73,7.22,-7.22,-7.22,-7.49,3.53,3.51,3.51
69.37,10.75,7.27,10.72,7.25,-7.25,-7.25,-7.45,3.50,3.46,3.48
70.07,10.75,7.32,10.71,7.29,-7.29,-7.29,-7.41,3.46,3.42,3.42
70.77,10.70,7.32,10.69,7.32,-7.32,-7.32,-7.36,3.38,3.37,3.38
71.48,10.67,7.33,10.68,7.35,-7.35,-7.35,-7.31,3.31,3.33,3.33
72.19,10.65,7.37,10.66,7.38,-7.38,-7.38,-7.27,3.26,3.28,3.28
72.91,10.65,7.42,10.64,7.41,-7.41,-7.41,-7.22,3.24,3.24,3.23
73.64,10.65,7.46,10.62,7.43,-7.43,-7.44,-7.17,3.22,3.19,3.18
74.38,10.61,7.46,10.60,7.45,-7.45,-7.48,-7.13,3.16,3.15,3.15
75.12,10.55,7.45,10.57,7.46,-7.46,-7.50,-7.08,3.09,3.11,3.10
75.87,10.55,7.48,10.55,7.48,-7.48,-7.53,-7.04,3.07,3.07,3.07
76.63,10.55,7.52,10.53,7.50,-7.50,-7.56,-7.00,3.05,3.03,3.03
77.40,10.53,7.53,10.52,7.52,-7.52,-7.59,-6.96,3.00,3.00,3.00
78.17,10.48,7.52,10.50,7.54,-7.54,-7.62,-6.93,2.93,2.96,2.95
78.95,10.44,7.51,10.49,7.56,-7.56,-7.64,-6.89,2.87,2.93,2.93
79.74,10.44,7.54,10.47,7.58,-7.58,-7.67,-6.87,2.86,2.89,2.90
80.54,10.44,7.58,10.45,7.59,-7.59,-7.70,-6.84,2.85,2.86,2.86
81.35,10.44,7.61,10.43,7.60,-7.60,-7.72,-6.82,2.83,2.82,2.83
82.16,10.44,7.64,10.41,7.62,-7.62,-7.74,-6.81,2.82,2.79,2.80
82.98,10.44,7.68,10.39,7.64,-7.64,-7.77,-6.79,2.80,2.76,2.76
83.81,10.44,7.71,10.38,7.66,-7.66,-7.79,-6.79,2.78,2.72,2.72
84.65,10.41,7.72,10.36,7.67,-7.67,-7.81,-6.78,2.73,2.68,2.68
85.50,10.33,7.69,10.34,7.69,-7.69,-7.83,-6.79,2.64,2.65,2.64
86.35,10.25,7.64,10.32,7.71,-7.71,-7.85,-6.80,2.54,2.61,2.60
87.22,10.24,7.66,10.30,7.72,-7.72,-7.87,-6.81,2.51,2.57,2.57
88.09,10.24,7.70,10.27,7.74,-7.74,-7.88,-6.83,2.50,2.53,2.53
88.97,10.25,7.75,10.25,7.75,-7.75,-7.90,-6.85,2.50,2.49,2.50
89.86,10.25,7.80,10.22,7.76,-7.76,-7.92,-6.88,2.48,2.45,2.45
90.76,10.23,7.81,10.19,7.78,-7.78,-7.93,-6.91,2.45,2.41,2.41
91.66,10.17,7.81,10.16,7.80,-7.80,-7.94,-6.95,2.37,2.37,2.36
92.58,10.15,7.82,10.14,7.82,-7.82,-7.96,-6.99,2.33,2.32,2.33
93.51,10.10,7.82,10.11,7.84,-7.84,-7.97,-7.04,2.26,2.27,2.28
94.44,10.06,7.82,10.08,7.86,-7.86,-7.98,-7.09,2.20,2.22,2.24
95.39,10.05,7.87,10.05,7.88,-7.88,-7.99,-7.15,2.17,2.17,2.18
96.34,10.03,7.90,10.02,7.90,-7.90,-8.00,-7.21,2.13,2.12,2.12
97.30,9.98,7.91,9.98,7.91,-7.91,-8.00,-7.28,2.06,2.06,2.07
98.28,9.93,7.92,9.94,7.93,-7.93,-8.01,-7.35,2.00,2.01,2.01
99.26,9.92,7.97,9.89,7.94,-7.94,-8.02,-7.42,1.98,1.95,1.94
100.25,9.88,7.99,9.84,7.95,-7.95,-8.02,-7.50,1.93,1.90,1.89
101.25,9.79,7.95,9.79,7.95,-7.95,-8.03,-7.58,1.83,1.84,1.84
102.27,9.74,7.96,9.74,7.96,-7.96,-8.03,-7.67,1.78,1.78,1.78
103.29,9.68,7.95,9.69,7.97,-7.97,-8.03,-7.76,1.71,1.72,1.72
104.32,9.63,7.95,9.64,7.97,-7.97,-8.03,-7.84,1.65,1.67,1.67
105.37,9.61,7.99,9.59,7.98,-7.98,-8.03,-7.93,1.63,1.61,1.62
106.42,9.57,8.01,9.53,7.98,-7.98,-8.03,-8.03,1.59,1.56,1.56
107.48,9.50,8.01,9.48,7.98,-7.98,-8.03,-8.12,1.52,1.50,1.49
108.56,9.41,7.95,9.43,7.98,-7.98,-8.03,-8.21,1.42,1.45,1.45
109.64,9.33,7.93,9.38,7.99,-7.99,-8.03,-8.30,1.34,1.39,1.40
110.74,9.30,7.96,9.33,7.99,-7.99,-8.03,-8.39,1.30,1.34,1.34
111.85,9.28,7.99,9.29,8.00,-8.00,-8.02,-8.47,1.28,1.29,1.29
112.97,9.27,8.02,9.25,8.01,-8.01,-8.02,-8.56,1.26,1.24,1.24
114.10,9.25,8.05,9.20,8.01,-8.01,-8.02,-8.63,1.23,1.19,1.20
115.24,9.18,8.04,9.16,8.01,-8.01,-8.01,-8.71,1.16,1.14,1.14
116.39,9.11,8.02,9.12,8.02,-8.02,-8.01,-8.77,1.09,1.10,1.09
117.55,9.07,8.02,9.08,8.02,-8.02,-8.00,-8.83,1.05,1.05,1.05
118.73,9.07,8.07,9.04,8.03,-8.03,-7.99,-8.89,1.04,1.01,0.99
119.92,9.01,8.05,9.01,8.04,-8.04,-7.99,-8.93,0.97,0.97,0.96
121.12,8.97,8.03,8.98,8.05,-8.05,-7.98,-8.97,0.92,0.93,0.94
122.33,8.92,8.02,8.94,8.05,-8.05,-7.98,-9.00,0.86,0.89,0.89
123.55,8.90,8.04,8.91,8.06,-8.06,-7.97,-9.01,0.84,0.85,0.86
124.79,8.85,8.02,8.87,8.06,-8.06,-7.96,-9.02,0.79,0.81,0.83
126.03,8.81,8.02,8.83,8.05,-8.05,-7.96,-9.02,0.75,0.78,0.79
127.29,8.82,8.07,8.79,8.05,-8.05,-7.95,-9.01,0.76,0.74,0.74
128.57,8.81,8.10,8.76,8.06,-8.06,-7.94,-8.99,0.75,0.70,0.70
129.85,8.75,8.08,8.73,8.06,-8.06,-7.94,-8.95,0.68,0.67,0.66
131.15,8.71,8.08,8.70,8.07,-8.07,-7.93,-8.91,0.64,0.63,0.63
132.46,8.66,8.07,8.66,8.07,-8.07,-7.92,-8.87,0.59,0.59,0.59
133.79,8.64,8.09,8.63,8.08,-8.08,-7.92,-8.81,0.56,0.55,0.55
135.12,8.59,8.07,8.60,8.08,-8.08,-7.91,-8.75,0.51,0.52,0.51
136.48,8.53,8.04,8.56,8.08,-8.08,-7.90,-8.68,0.45,0.48,0.49
137.84,8.46,8.01,8.51,8.07,-8.07,-7.90,-8.60,0.39,0.44,0.45
139.22,8.45,8.05,8.47,8.06,-8.06,-7.89,-8.53,0.38,0.40,0.40
140.61,8.46,8.08,8.42,8.06,-8.06,-7.89,-8.44,0.40,0.37,0.37
142.02,8.46,8.13,8.38,8.05,-8.05,-7.88,-8.36,0.41,0.33,0.33
143.44,8.39,8.10,8.34,8.04,-8.04,-7.88,-8.27,0.35,0.30,0.29
144.87,8.29,8.03,8.30,8.03,-8.03,-7.87,-8.18,0.25,0.26,0.26
146.32,8.25,8.02,8.25,8.03,-8.03,-7.87,-8.09,0.22,0.23,0.23
147.78,8.19,8.00,8.21,8.02,-8.02,-7.86,-8.00,0.17,0.19,0.19
149.26,8.13,7.98,8.16,8.01,-8.01,-7.86,-7.92,0.12,0.15,0.15
150.75,8.06,7.95,8.12,8.00,-8.00,-7.86,-7.83,0.05,0.11,0.10
152.26,8.05,7.97,8.07,7.99,-7.99,-7.85,-7.74,0.05,0.07,0.08
153.78,8.05,8.01,8.02,7.98,-7.98,-7.85,-7.66,0.06,0.04,0.04
155.32,8.00,7.99,7.97,7.97,-7.97,-7.85,-7.58,0.02,-0.00,0.01
156.88,7.96,8.00,7.92,7.96,-7.96,-7.84,-7.51,-0.01,-0.04,-0.04
158.44,7.89,7.97,7.87,7.95,-7.95,-7.84,-7.43,-0.07,-0.08,-0.08
160.03,7.83,7.95,7.82,7.95,-7.95,-7.84,-7.36,-0.12,-0.13,-0.12
161.63,7.76,7.92,7.77,7.94,-7.94,-7.84,-7.30,-0.18,-0.17,-0.17
163.24,7.69,7.90,7.72,7.93,-7.93,-7.84,-7.24,-0.25,-0.21,-0.22
164.88,7.65,7.90,7.67,7.93,-7.93,-7.84,-7.18,-0.28,-0.26,-0.26
166.53,7.64,7.94,7.61,7.92,-7.92,-7.83,-7.13,-0.28,-0.30,-0.31
168.19,7.58,7.92,7.56,7.90,-7.90,-7.83,-7.09,-0.33,-0.35,-0.34
169.87,7.53,7.92,7.49,7.88,-7.88,-7.83,-7.04,-0.35,-0.39,-0.39
171.57,7.43,7.87,7.43,7.86,-7.86,-7.83,-7.01,-0.43,-0.44,-0.44
173.29,7.34,7.82,7.37,7.85,-7.85,-7.83,-6.98,-0.51,-0.48,-0.48
175.02,7.31,7.83,7.31,7.83,-7.83,-7.83,-6.95,-0.53,-0.52,-0.52
176.77,7.28,7.84,7.25,7.82,-7.82,-7.83,-6.93,-0.54,-0.56,-0.56
178.54,7.23,7.83,7.20,7.81,-7.81,-7.82,-6.91,-0.58,-0.60,-0.61
180.32,7.14,7.79,7.15,7.80,-7.80,-7.82,-6.90,-0.66,-0.64,-0.65
182.13,7.08,7.76,7.10,7.78,-7.78,-7.82,-6.90,-0.71,-0.68,-0.68
183.95,7.02,7.73,7.05,7.77,-7.77,-7.82,-6.90,-0.75,-0.72,-0.72
185.79,6.96,7.71,7.01,7.76,-7.76,-7.81,-6.90,-0.80,-0.75,-0.76
187.65,6.93,7.71,6.96,7.75,-7.75,-7.81,-6.91,-0.83,-0.79,-0.79
189.52,6.97,7.79,6.92,7.74,-7.74,-7.80,-6.93,-0.78,-0.82,-0.83
191.42,6.92,7.76,6.89,7.74,-7.74,-7.80,-6.95,-0.83,-0.86,-0.85
193.33,6.82,7.70,6.85,7.74,-7.74,-7.79,-6.97,-0.92,-0.89,-0.88
195.27,6.81,7.73,6.80,7.72,-7.72,-7.79,-7.00,-0.92,-0.92,-0.92
197.22,6.82,7.78,6.76,7.71,-7.71,-7.78,-7.03,-0.89,-0.95,-0.96
199.19,6.72,7.70,6.72,7.70,-7.70,-7.77,-7.06,-0.98,-0.98,-0.99
201.18,6.64,7.66,6.67,7.69,-7.69,-7.76,-7.10,-1.05,-1.01,-1.02
203.19,6.64,7.69,6.62,7.67,-7.67,-7.75,-7.14,-1.03,-1.05,-1.05
205.23,6.63,7.70,6.57,7.64,-7.64,-7.73,-7.19,-1.02,-1.08,-1.07
207.28,6.50,7.60,6.51,7.62,-7.62,-7.72,-7.23,-1.12,-1.11,-1.10
209.35,6.44,7.57,6.45,7.58,-7.58,-7.70,-7.28,-1.15,-1.14,-1.13
211.44,6.44,7.60,6.38,7.55,-7.55,-7.69,-7.33,-1.11,-1.17,-1.17
213.56,6.30,7.49,6.32,7.52,-7.52,-7.67,-7.38,-1.22,-1.20,-1.19
215.69,6.22,7.44,6.26,7.48,-7.48,-7.65,-7.43,-1.27,-1.23,-1.22
217.85,6.25,7.49,6.19,7.44,-7.44,-7.63,-7.48,-1.20,-1.25,-1.24
220.03,6.11,7.39,6.13,7.41,-7.41,-7.60,-7.53,-1.30,-1.28,-1.29
222.23,6.02,7.32,6.08,7.38,-7.38,-7.58,-7.57,-1.36,-1.30,-1.31
224.45,6.01,7.34,6.02,7.34,-7.34,-7.55,-7.62,-1.33,-1.32,-1.33
226.70,5.96,7.31,5.96,7.30,-7.30,-7.52,-7.66,-1.34,-1.34,-1.35
228.96,5.92,7.28,5.91,7.26,-7.26,-7.49,-7.69,-1.35,-1.36,-1.36
231.25,5.85,7.22,5.86,7.23,-7.23,-7.46,-7.73,-1.38,-1.37,-1.37
233.57,5.81,7.20,5.81,7.19,-7.19,-7.42,-7.75,-1.39,-1.38,-1.39
235.90,5.75,7.15,5.76,7.16,-7.16,-7.39,-7.77,-1.41,-1.39,-1.40
238.26,5.74,7.14,5.72,7.12,-7.12,-7.35,-7.78,-1.38,-1.40,-1.41
240.64,5.71,7.10,5.68,7.08,-7.08,-7.31,-7.79,-1.37,-1.40,-1.40
243.05,5.65,7.05,5.63,7.04,-7.04,-7.26,-7.79,-1.39,-1.41,-1.40
245.48,5.54,6.95,5.59,7.00,-7.00,-7.22,-7.78,-1.46,-1.41,-1.41
247.93,5.54,6.96,5.54,6.95,-6.95,-7.17,-7.76,-1.42,-1.41,-1.42
250.41,5.54,6.94,5.49,6.91,-6.91,-7.12,-7.73,-1.37,-1.41,-1.41
252.92,5.42,6.82,5.44,6.86,-6.86,-7.07,-7.69,-1.44,-1.42,-1.40
255.45,5.39,6.81,5.39,6.81,-6.81,-7.02,-7.64,-1.42,-1.42,-1.42
258.00,5.38,6.80,5.33,6.76,-6.76,-6.97,-7.59,-1.39,-1.43,-1.42
260.58,5.26,6.68,5.28,6.71,-6.71,-6.91,-7.52,-1.45,-1.43,-1.42
263.19,5.21,6.64,5.22,6.66,-6.66,-6.85,-7.45,-1.45,-1.44,-1.43
265.82,5.22,6.66,5.16,6.61,-6.61,-6.79,-7.37,-1.39,-1.45,-1.45
268.48,5.08,6.53,5.09,6.55,-6.55,-6.73,-7.28,-1.47,-1.46,-1.45
271.16,5.00,6.46,5.03,6.50,-6.50,-6.67,-7.19,-1.50,-1.47,-1.47
273.87,5.01,6.48,4.97,6.45,-6.45,-6.60,-7.09,-1.44,-1.48,-1.47
276.61,4.90,6.39,4.90,6.38,-6.38,-6.54,-6.99,-1.49,-1.48,-1.49
279.38,4.79,6.30,4.83,6.33,-6.33,-6.47,-6.88,-1.54,-1.49,-1.51
282.17,4.80,6.30,4.77,6.27,-6.27,-6.40,-6.76,-1.48,-1.50,-1.51
284.99,4.74,6.25,4.71,6.21,-6.21,-6.33,-6.65,-1.48,-1.50,-1.51
287.84,4.61,6.11,4.65,6.15,-6.15,-6.26,-6.53,-1.55,-1.51,-1.51
290.72,4.61,6.13,4.59,6.10,-6.10,-6.19,-6.41,-1.49,-1.51,-1.52
293.63,4.49,6.00,4.53,6.04,-6.04,-6.12,-6.29,-1.55,-1.51,-1.52
296.57,4.44,5.95,4.47,5.98,-5.98,-6.04,-6.17,-1.55,-1.51,-1.51
299.53,4.46,5.97,4.42,5.93,-5.93,-5.97,-6.05,-1.48,-1.51,-1.51
302.53,4.36,5.86,4.36,5.88,-5.88,-5.89,-5.92,-1.52,-1.51,-1.51
305.55,4.27,5.78,4.30,5.82,-5.82,-5.82,-5.80,-1.55,-1.51,-1.51
308.61,4.29,5.79,4.25,5.76,-5.76,-5.74,-5.68,-1.48,-1.51,-1.50
311.69,4.22,5.73,4.20,5.71,-5.71,-5.66,-5.57,-1.50,-1.51,-1.52
314.81,4.12,5.63,4.14,5.66,-5.66,-5.59,-5.45,-1.54,-1.51,-1.51
317.96,4.10,5.62,4.09,5.60,-5.60,-5.51,-5.34,-1.51,-1.51,-1.52
321.14,4.05,5.56,4.04,5.55,-5.55,-5.43,-5.22,-1.50,-1.52,-1.52
324.35,4.00,5.51,3.98,5.49,-5.49,-5.35,-5.12,-1.49,-1.52,-1.52
327.59,3.91,5.42,3.92,5.44,-5.44,-5.27,-5.01,-1.53,-1.52,-1.51
330.87,3.85,5.36,3.86,5.37,-5.37,-5.19,-4.91,-1.53,-1.52,-1.51
334.18,3.80,5.32,3.79,5.31,-5.31,-5.11,-4.80,-1.51,-1.52,-1.53
337.52,3.73,5.24,3.73,5.25,-5.25,-5.04,-4.71,-1.52,-1.52,-1.52
340.90,3.69,5.21,3.67,5.19,-5.19,-4.96,-4.61,-1.50,-1.51,-1.52
344.30,3.63,5.14,3.61,5.12,-5.12,-4.88,-4.52,-1.49,-1.51,-1.51
347.75,3.53,5.03,3.54,5.05,-5.05,-4.80,-4.43,-1.52,-1.51,-1.50
351.23,3.47,4.98,3.48,4.98,-4.98,-4.72,-4.35,-1.52,-1.50,-1.52
354.74,3.41,4.90,3.41,4.91,-4.91,-4.64,-4.27,-1.50,-1.50,-1.50
358.28,3.34,4.84,3.35,4.84,-4.84,-4.57,-4.19,-1.50,-1.49,-1.50
361.87,3.29,4.78,3.28,4.77,-4.77,-4.49,-4.11,-1.48,-1.49,-1.49
365.49,3.22,4.70,3.22,4.70,-4.70,-4.41,-4.04,-1.48,-1.48,-1.48
369.14,3.17,4.64,3.15,4.63,-4.63,-4.34,-3.97,-1.46,-1.48,-1.47
372.83,3.09,4.55,3.08,4.56,-4.56,-4.26,-3.91,-1.47,-1.47,-1.47
376.56,3.04,4.50,3.02,4.49,-4.49,-4.18,-3.84,-1.45,-1.47,-1.47
380.33,2.94,4.41,2.95,4.42,-4.42,-4.11,-3.78,-1.49,-1.47,-1.47
384.13,2.85,4.31,2.89,4.36,-4.36,-4.03,-3.72,-1.51,-1.47,-1.46
387.97,2.84,4.30,2.82,4.29,-4.29,-3.96,-3.67,-1.46,-1.47,-1.46
391.85,2.77,4.23,2.76,4.23,-4.23,-3.89,-3.62,-1.46,-1.47,-1.46
395.77,2.67,4.14,2.69,4.16,-4.16,-3.81,-3.57,-1.50,-1.48,-1.47
399.73,2.64,4.11,2.62,4.10,-4.10,-3.74,-3.52,-1.46,-1.48,-1.48
403.72,2.59,4.05,2.55,4.03,-4.03,-3.67,-3.48,-1.45,-1.49,-1.47
407.76,2.47,3.95,2.48,3.97,-3.97,-3.60,-3.43,-1.50,-1.49,-1.49
411.84,2.43,3.92,2.41,3.90,-3.90,-3.53,-3.39,-1.48,-1.49,-1.49
415.96,2.40,3.89,2.35,3.84,-3.84,-3.46,-3.35,-1.44,-1.49,-1.49
420.12,2.32,3.82,2.29,3.78,-3.78,-3.39,-3.31,-1.46,-1.49,-1.50
424.32,2.18,3.67,2.23,3.71,-3.71,-3.32,-3.28,-1.54,-1.48,-1.49
428.56,2.15,3.62,2.18,3.65,-3.65,-3.25,-3.24,-1.50,-1.47,-1.47
432.85,2.14,3.59,2.14,3.59,-3.59,-3.18,-3.21,-1.45,-1.45,-1.45
437.18,2.05,3.49,2.10,3.52,-3.52,-3.12,-3.17,-1.48,-1.42,-1.44
441.55,2.03,3.43,2.07,3.46,-3.46,-3.05,-3.14,-1.43,-1.39,-1.41
445.96,2.06,3.42,2.04,3.40,-3.40,-2.98,-3.11,-1.34,-1.35,-1.37
450.42,2.00,3.32,2.03,3.33,-3.33,-2.92,-3.07,-1.34,-1.31,-1.33
454.93,1.98,3.25,2.01,3.27,-3.27,-2.86,-3.04,-1.29,-1.26,-1.28
459.48,2.03,3.24,1.99,3.20,-3.20,-2.79,-3.01,-1.18,-1.21,-1.22
464.07,2.00,3.15,1.98,3.14,-3.14,-2.73,-2.97,-1.14,-1.16,-1.15
468.71,1.98,3.08,1.98,3.08,-3.08,-2.67,-2.94,-1.10,-1.10,-1.10
473.40,2.01,3.05,1.97,3.01,-3.01,-2.61,-2.90,-1.01,-1.05,-1.04
478.13,2.00,2.98,1.95,2.94,-2.94,-2.54,-2.86,-0.95,-0.99,-0.98
482.91,1.92,2.85,1.93,2.88,-2.88,-2.48,-2.83,-0.96,-0.94,-0.93
487.74,1.90,2.79,1.91,2.81,-2.81,-2.42,-2.79,-0.91,-0.90,-0.89
492.62,1.90,2.75,1.89,2.75,-2.75,-2.37,-2.75,-0.85,-0.86,-0.85
