frequency,raw,smoothed,error,error_smoothed,equalization,parametric_eq,fixed_band_eq,equalized_raw,equalized_smoothed,target
20.00,3.68,3.68,-1.19,-1.19,1.20,1.60,0.12,4.87,4.87,4.87
20.20,3.72,3.72,-1.18,-1.18,1.19,1.56,0.13,4.90,4.90,4.90
20.40,3.76,3.76,-1.17,-1.17,1.17,1.53,0.14,4.93,4.93,4.93
20.61,3.80,3.79,-1.15,-1.16,1.16,1.49,0.14,4.96,4.95,4.95
20.81,3.83,3.83,-1.15,-1.15,1.14,1.46,0.15,4.97,4.98,4.98
21.02,3.87,3.87,-1.14,-1.13,1.13,1.42,0.16,5.00,5.00,5.01
21.23,3.91,3.90,-1.11,-1.12,1.11,1.39,0.16,5.02,5.01,5.02
21.44,3.94,3.94,-1.09,-1.09,1.09,1.35,0.17,5.03,5.03,5.03
21.66,3.97,3.97,-1.07,-1.06,1.07,1.31,0.18,5.03,5.04,5.04
21.87,4.01,4.00,-1.03,-1.04,1.04,1.28,0.19,5.05,5.04,5.04
22.09,4.03,4.03,-1.02,-1.01,1.01,1.24,0.20,5.04,5.04,5.05
22.31,4.06,4.06,-0.99,-0.99,0.99,1.20,0.20,5.04,5.05,5.04
22.54,4.09,4.08,-0.96,-0.96,0.96,1.16,0.21,5.05,5.04,5.04
22.76,4.11,4.11,-0.94,-0.93,0.94,1.12,0.22,5.04,5.04,5.04
22.99,4.13,4.13,-0.91,-0.91,0.91,1.08,0.23,5.04,5.04,5.03
23.22,4.15,4.14,-0.89,-0.89,0.89,1.05,0.24,5.04,5.04,5.03
23.45,4.16,4.16,-0.87,-0.87,0.87,1.01,0.25,5.03,5.03,5.03
23.69,4.18,4.18,-0.85,-0.85,0.85,0.97,0.26,5.03,5.03,5.03
23.92,4.20,4.19,-0.83,-0.84,0.84,0.93,0.27,5.03,5.03,5.03
24.16,4.21,4.21,-0.83,-0.82,0.82,0.89,0.28,5.03,5.03,5.04
24.40,4.23,4.22,-0.81,-0.81,0.81,0.85,0.29,5.04,5.03,5.04
24.65,4.24,4.24,-0.79,-0.80,0.80,0.80,0.30,5.03,5.03,5.03
24.89,4.25,4.25,-0.78,-0.78,0.78,0.76,0.31,5.03,5.03,5.03
25.14,4.26,4.26,-0.77,-0.77,0.77,0.72,0.32,5.03,5.03,5.03
25.39,4.27,4.27,-0.76,-0.76,0.75,0.68,0.33,5.02,5.02,5.02
25.65,4.28,4.28,-0.75,-0.74,0.74,0.64,0.34,5.02,5.02,5.02
25.91,4.29,4.29,-0.73,-0.73,0.73,0.59,0.34,5.01,5.02,5.01
26.16,4.31,4.30,-0.70,-0.71,0.71,0.55,0.35,5.02,5.01,5.01
26.43,4.32,4.32,-0.69,-0.69,0.70,0.51,0.36,5.01,5.01,5.01
26.69,4.33,4.33,-0.68,-0.68,0.68,0.46,0.36,5.01,5.01,5.01
26.96,4.35,4.34,-0.66,-0.67,0.66,0.42,0.37,5.01,5.01,5.01
27.23,4.36,4.36,-0.65,-0.65,0.64,0.38,0.37,5.00,5.00,5.01
27.50,4.38,4.38,-0.63,-0.63,0.62,0.33,0.38,5.00,5.00,5.01
27.77,4.40,4.40,-0.60,-0.60,0.60,0.29,0.38,5.00,4.99,4.99
28.05,4.42,4.42,-0.58,-0.57,0.57,0.24,0.38,4.99,4.99,4.99
28.33,4.44,4.44,-0.54,-0.54,0.55,0.20,0.38,4.98,4.99,4.98
28.62,4.47,4.46,-0.51,-0.52,0.52,0.15,0.38,4.98,4.98,4.98
28.90,4.49,4.49,-0.49,-0.48,0.49,0.10,0.37,4.97,4.98,4.98
29.19,4.52,4.52,-0.45,-0.45,0.45,0.06,0.37,4.97,4.97,4.97
29.48,4.56,4.55,-0.42,-0.42,0.41,0.01,0.36,4.97,4.97,4.97
29.78,4.59,4.59,-0.38,-0.37,0.37,-0.04,0.35,4.96,4.96,4.96
30.08,4.63,4.63,-0.33,-0.33,0.33,-0.08,0.34,4.96,4.96,4.96
30.38,4.67,4.67,-0.28,-0.28,0.29,-0.13,0.33,4.95,4.95,4.95
30.68,4.71,4.71,-0.24,-0.23,0.24,-0.18,0.31,4.94,4.95,4.95
30.99,4.76,4.75,-0.18,-0.19,0.19,-0.22,0.29,4.94,4.94,4.93
31.30,4.80,4.80,-0.14,-0.13,0.13,-0.27,0.27,4.93,4.93,4.93
31.61,4.85,4.85,-0.08,-0.08,0.08,-0.32,0.24,4.92,4.92,4.93
31.93,4.90,4.89,-0.02,-0.02,0.02,-0.37,0.22,4.92,4.92,4.92
32.24,4.95,4.95,0.04,0.04,-0.04,-0.42,0.19,4.91,4.91,4.91
32.57,5.00,5.00,0.09,0.10,-0.09,-0.47,0.16,4.90,4.91,4.90
32.89,5.06,5.05,0.16,0.16,-0.15,-0.51,0.12,4.90,4.90,4.90
33.22,5.11,5.11,0.22,0.22,-0.22,-0.56,0.09,4.89,4.89,4.89
33.55,5.16,5.16,0.27,0.28,-0.28,-0.61,0.05,4.88,4.88,4.88
33.89,5.22,5.22,0.34,0.34,-0.35,-0.66,0.01,4.87,4.87,4.87
34.23,5.28,5.28,0.41,0.41,-0.41,-0.71,-0.03,4.86,4.86,4.87
34.57,5.34,5.34,0.48,0.48,-0.48,-0.76,-0.08,4.86,4.86,4.86
34.92,5.40,5.40,0.55,0.55,-0.55,-0.81,-0.13,4.85,4.85,4.84
35.27,5.46,5.46,0.62,0.62,-0.62,-0.86,-0.18,4.84,4.84,4.84
35.62,5.52,5.52,0.69,0.69,-0.69,-0.91,-0.23,4.83,4.83,4.83
35.97,5.58,5.58,0.77,0.76,-0.76,-0.96,-0.28,4.82,4.81,4.81
36.33,5.64,5.64,0.83,0.83,-0.83,-1.01,-0.33,4.80,4.80,4.81
36.70,5.70,5.70,0.90,0.91,-0.91,-1.06,-0.39,4.79,4.79,4.79
37.06,5.77,5.76,0.99,0.98,-0.98,-1.11,-0.45,4.79,4.78,4.78
37.43,5.83,5.83,1.05,1.05,-1.05,-1.16,-0.51,4.77,4.77,4.78
37.81,5.89,5.89,1.13,1.13,-1.13,-1.22,-0.57,4.76,4.76,4.76
38.19,5.95,5.95,1.20,1.20,-1.20,-1.27,-0.63,4.75,4.75,4.75
38.57,6.02,6.01,1.27,1.27,-1.28,-1.32,-0.69,4.74,4.74,4.74
38.95,6.08,6.08,1.35,1.35,-1.35,-1.37,-0.76,4.73,4.73,4.73
39.34,6.14,6.14,1.43,1.42,-1.42,-1.42,-0.82,4.71,4.72,4.71
39.74,6.20,6.20,1.50,1.50,-1.50,-1.47,-0.89,4.70,4.70,4.70
40.14,6.26,6.26,1.56,1.57,-1.57,-1.52,-0.96,4.69,4.69,4.69
40.54,6.32,6.32,1.64,1.64,-1.64,-1.57,-1.03,4.68,4.68,4.68
40.94,6.38,6.38,1.71,1.71,-1.71,-1.63,-1.10,4.67,4.67,4.67
41.35,6.44,6.43,1.78,1.78,-1.77,-1.68,-1.17,4.66,4.66,4.65
41.76,6.49,6.49,1.84,1.84,-1.84,-1.73,-1.25,4.65,4.65,4.65
42.18,6.55,6.54,1.91,1.91,-1.91,-1.78,-1.32,4.64,4.64,4.64
42.60,6.60,6.60,1.97,1.97,-1.97,-1.83,-1.40,4.62,4.62,4.63
43.03,6.65,6.65,2.03,2.03,-2.04,-1.88,-1.47,4.61,4.61,4.62
43.46,6.70,6.70,2.10,2.10,-2.10,-1.93,-1.55,4.59,4.59,4.60
43.90,6.75,6.74,2.17,2.17,-2.17,-1.98,-1.63,4.58,4.58,4.57
44.33,6.79,6.79,2.23,2.23,-2.23,-2.04,-1.71,4.56,4.56,4.56
44.78,6.84,6.83,2.30,2.30,-2.29,-2.09,-1.79,4.54,4.54,4.54
45.23,6.88,6.88,2.36,2.36,-2.35,-2.14,-1.88,4.52,4.52,4.52
45.68,6.92,6.92,2.42,2.42,-2.41,-2.19,-1.96,4.50,4.51,4.50
46.13,6.96,6.96,2.48,2.47,-2.47,-2.24,-2.05,4.49,4.49,4.48
46.60,7.00,6.99,2.52,2.53,-2.52,-2.29,-2.13,4.47,4.47,4.47
47.06,7.03,7.03,2.57,2.57,-2.58,-2.34,-2.22,4.45,4.45,4.45
47.53,7.06,7.06,2.62,2.62,-2.63,-2.39,-2.31,4.43,4.43,4.43
48.01,7.10,7.09,2.67,2.68,-2.68,-2.44,-2.40,4.41,4.41,4.42
48.49,7.13,7.12,2.73,2.73,-2.74,-2.49,-2.49,4.39,4.39,4.39
48.97,7.15,7.15,2.79,2.79,-2.79,-2.54,-2.58,4.36,4.36,4.36
49.46,7.18,7.18,2.85,2.85,-2.84,-2.59,-2.68,4.33,4.33,4.33
49.96,7.21,7.20,2.91,2.90,-2.89,-2.64,-2.77,4.31,4.31,4.30
50.46,7.23,7.23,2.94,2.95,-2.95,-2.69,-2.86,4.28,4.28,4.29
50.96,7.26,7.25,2.99,3.00,-3.00,-2.74,-2.96,4.26,4.26,4.26
51.47,7.28,7.28,3.05,3.04,-3.05,-2.79,-3.05,4.23,4.23,4.23
51.99,7.31,7.30,3.10,3.09,-3.09,-2.84,-3.14,4.21,4.21,4.21
52.51,7.33,7.33,3.13,3.14,-3.14,-2.89,-3.24,4.18,4.19,4.19
53.03,7.36,7.35,3.19,3.19,-3.19,-2.94,-3.33,4.17,4.16,4.17
53.56,7.38,7.38,3.23,3.24,-3.24,-2.99,-3.42,4.14,4.14,4.14
54.10,7.41,7.40,3.29,3.29,-3.29,-3.04,-3.51,4.12,4.12,4.12
54.64,7.43,7.43,3.34,3.34,-3.34,-3.09,-3.60,4.09,4.09,4.09
55.18,7.45,7.45,3.38,3.39,-3.38,-3.13,-3.69,4.06,4.07,4.06
55.74,7.48,7.47,3.44,3.43,-3.43,-3.18,-3.77,4.04,4.04,4.04
56.29,7.50,7.50,3.48,3.48,-3.48,-3.23,-3.85,4.02,4.02,4.02
56.86,7.52,7.52,3.52,3.53,-3.53,-3.28,-3.93,3.99,3.99,3.99
57.42,7.54,7.54,3.57,3.57,-3.57,-3.32,-4.01,3.97,3.97,3.96
58.00,7.57,7.56,3.62,3.62,-3.62,-3.37,-4.08,3.95,3.95,3.94
58.58,7.59,7.59,3.66,3.66,-3.66,-3.42,-4.14,3.93,3.93,3.92
59.16,7.61,7.61,3.70,3.70,-3.71,-3.46,-4.21,3.90,3.90,3.90
59.76,7.63,7.63,3.74,3.75,-3.75,-3.51,-4.26,3.88,3.88,3.88
60.35,7.65,7.65,3.80,3.79,-3.80,-3.55,-4.32,3.85,3.85,3.85
60.96,7.67,7.66,3.84,3.84,-3.85,-3.60,-4.36,3.82,3.82,3.83
61.57,7.68,7.68,3.89,3.89,-3.89,-3.64,-4.41,3.78,3.79,3.79
62.18,7.70,7.70,3.95,3.94,-3.94,-3.69,-4.44,3.76,3.76,3.75
62.80,7.72,7.71,3.99,3.99,-3.99,-3.73,-4.48,3.73,3.73,3.73
63.43,7.73,7.73,4.03,4.04,-4.03,-3.77,-4.50,3.70,3.70,3.69
64.07,7.75,7.74,4.08,4.08,-4.08,-3.82,-4.52,3.67,3.67,3.67
64.71,7.76,7.76,4.12,4.12,-4.12,-3.86,-4.54,3.64,3.64,3.64
65.35,7.77,7.77,4.15,4.16,-4.16,-3.90,-4.55,3.61,3.61,3.61
66.01,7.78,7.78,4.19,4.19,-4.20,-3.94,-4.55,3.58,3.58,3.58
66.67,7.79,7.79,4.23,4.23,-4.23,-3.98,-4.56,3.55,3.55,3.56
67.33,7.80,7.79,4.27,4.27,-4.27,-4.03,-4.55,3.53,3.52,3.53
68.01,7.80,7.80,4.30,4.30,-4.30,-4.07,-4.55,3.49,3.49,3.49
68.69,7.80,7.80,4.33,4.34,-4.34,-4.11,-4.54,3.46,3.46,3.46
69.37,7.81,7.80,4.38,4.37,-4.37,-4.15,-4.53,3.44,3.43,3.43
70.07,7.81,7.81,4.41,4.40,-4.40,-4.18,-4.51,3.40,3.40,3.40
70.77,7.81,7.80,4.43,4.43,-4.43,-4.22,-4.50,3.37,3.37,3.38
71.48,7.80,7.80,4.46,4.46,-4.46,-4.26,-4.48,3.33,3.34,3.34
72.19,7.80,7.80,4.49,4.49,-4.49,-4.30,-4.46,3.30,3.30,3.31
72.91,7.80,7.79,4.53,4.52,-4.52,-4.34,-4.44,3.27,3.27,3.27
73.64,7.79,7.79,4.55,4.55,-4.55,-4.37,-4.42,3.24,3.24,3.23
74.38,7.78,7.78,4.57,4.58,-4.58,-4.41,-4.40,3.20,3.20,3.20
75.12,7.78,7.77,4.61,4.61,-4.60,-4.44,-4.38,3.17,3.17,3.17
75.87,7.77,7.77,4.63,4.63,-4.63,-4.48,-4.37,3.14,3.14,3.14
76.63,7.76,7.75,4.65,4.65,-4.65,-4.51,-4.35,3.11,3.11,3.11
77.40,7.74,7.74,4.66,4.67,-4.67,-4.55,-4.33,3.07,3.07,3.08
78.17,7.73,7.73,4.69,4.69,-4.69,-4.58,-4.32,3.04,3.04,3.03
78.95,7.72,7.71,4.71,4.70,-4.70,-4.61,-4.31,3.01,3.01,3.01
79.74,7.70,7.70,4.72,4.72,-4.72,-4.64,-4.30,2.98,2.98,2.98
80.54,7.68,7.68,4.73,4.74,-4.74,-4.67,-4.29,2.94,2.94,2.94
81.35,7.66,7.66,4.75,4.75,-4.75,-4.70,-4.29,2.91,2.91,2.91
82.16,7.65,7.64,4.77,4.76,-4.77,-4.73,-4.29,2.88,2.87,2.87
82.98,7.62,7.62,4.77,4.78,-4.78,-4.76,-4.29,2.84,2.84,2.85
83.81,7.60,7.60,4.80,4.79,-4.79,-4.79,-4.29,2.80,2.80,2.80
84.65,7.58,7.57,4.81,4.81,-4.81,-4.82,-4.30,2.77,2.77,2.76
85.50,7.55,7.55,4.81,4.82,-4.82,-4.84,-4.31,2.73,2.73,2.73
86.35,7.53,7.52,4.83,4.83,-4.83,-4.87,-4.33,2.70,2.69,2.69
87.22,7.50,7.50,4.84,4.84,-4.84,-4.89,-4.34,2.66,2.66,2.65
88.09,7.47,7.47,4.85,4.85,-4.85,-4.92,-4.36,2.62,2.62,2.61
88.97,7.44,7.44,4.85,4.86,-4.86,-4.94,-4.39,2.58,2.58,2.58
89.86,7.41,7.41,4.87,4.87,-4.87,-4.96,-4.42,2.54,2.54,2.54
90.76,7.38,7.37,4.89,4.88,-4.88,-4.99,-4.45,2.50,2.50,2.49
91.66,7.34,7.34,4.88,4.89,-4.89,-5.01,-4.48,2.45,2.45,2.46
92.58,7.31,7.30,4.90,4.90,-4.89,-5.03,-4.52,2.41,2.41,2.40
93.51,7.27,7.27,4.90,4.90,-4.90,-5.05,-4.56,2.36,2.37,2.37
94.44,7.24,7.23,4.91,4.91,-4.91,-5.06,-4.61,2.33,2.32,2.33
95.39,7.20,7.20,4.92,4.92,-4.92,-5.08,-4.65,2.28,2.28,2.28
96.34,7.16,7.16,4.93,4.93,-4.93,-5.10,-4.70,2.23,2.23,2.23
97.30,7.12,7.12,4.93,4.94,-4.93,-5.11,-4.76,2.18,2.19,2.18
98.28,7.08,7.08,4.94,4.94,-4.94,-5.12,-4.81,2.14,2.14,2.14
99.26,7.04,7.03,4.95,4.94,-4.94,-5.14,-4.87,2.09,2.09,2.09
100.25,6.99,6.99,4.94,4.95,-4.95,-5.15,-4.93,2.04,2.04,2.05
101.25,6.95,6.95,4.95,4.95,-4.95,-5.16,-4.99,2.00,2.00,2.00
102.27,6.91,6.90,4.95,4.95,-4.95,-5.17,-5.06,1.95,1.95,1.95
103.29,6.86,6.86,4.96,4.96,-4.95,-5.18,-5.12,1.90,1.91,1.90
104.32,6.82,6.81,4.96,4.96,-4.95,-5.18,-5.19,1.86,1.86,1.86
105.37,6.77,6.77,4.95,4.95,-4.95,-5.19,-5.25,1.81,1.81,1.81
106.42,6.72,6.72,4.95,4.95,-4.95,-5.19,-5.32,1.76,1.77,1.77
107.48,6.67,6.67,4.95,4.95,-4.95,-5.20,-5.38,1.72,1.72,1.72
108.56,6.62,6.62,4.95,4.95,-4.95,-5.20,-5.44,1.67,1.67,1.67
109.64,6.57,6.57,4.95,4.94,-4.94,-5.20,-5.50,1.62,1.62,1.62
110.74,6.52,6.51,4.94,4.94,-4.94,-5.20,-5.56,1.57,1.57,1.57
111.85,6.46,6.46,4.93,4.94,-4.94,-5.19,-5.62,1.52,1.52,1.53
112.97,6.41,6.41,4.94,4.94,-4.94,-5.19,-5.67,1.47,1.47,1.46
114.10,6.35,6.35,4.93,4.93,-4.94,-5.19,-5.72,1.41,1.41,1.42
115.24,6.30,6.29,4.93,4.93,-4.93,-5.18,-5.76,1.36,1.36,1.36
116.39,6.24,6.24,4.93,4.93,-4.93,-5.17,-5.80,1.31,1.31,1.31
117.55,6.18,6.18,4.92,4.93,-4.92,-5.16,-5.83,1.25,1.26,1.25
118.73,6.13,6.12,4.93,4.92,-4.92,-5.15,-5.85,1.21,1.20,1.20
119.92,6.07,6.07,4.91,4.91,-4.91,-5.14,-5.87,1.16,1.16,1.16
121.12,6.01,6.01,4.90,4.90,-4.90,-5.13,-5.88,1.10,1.11,1.10
122.33,5.95,5.95,4.90,4.89,-4.89,-5.11,-5.88,1.05,1.05,1.05
123.55,5.89,5.89,4.88,4.88,-4.88,-5.10,-5.87,1.00,1.01,1.01
124.79,5.83,5.83,4.87,4.87,-4.87,-5.08,-5.85,0.96,0.95,0.96
126.03,5.77,5.76,4.86,4.86,-4.86,-5.06,-5.83,0.91,0.90,0.91
127.29,5.70,5.70,4.84,4.85,-4.85,-5.04,-5.79,0.85,0.85,0.86
128.57,5.64,5.64,4.84,4.84,-4.83,-5.01,-5.76,0.80,0.80,0.80
129.85,5.58,5.57,4.83,4.82,-4.82,-4.99,-5.70,0.76,0.75,0.75
131.15,5.51,5.51,4.81,4.81,-4.80,-4.97,-5.65,0.70,0.71,0.70
132.46,5.45,5.44,4.79,4.79,-4.79,-4.94,-5.58,0.66,0.66,0.65
133.79,5.38,5.38,4.76,4.77,-4.77,-4.91,-5.51,0.61,0.61,0.62
135.12,5.32,5.32,4.75,4.75,-4.75,-4.88,-5.42,0.57,0.56,0.56
136.48,5.25,5.25,4.72,4.73,-4.73,-4.85,-5.34,0.52,0.52,0.53
137.84,5.19,5.18,4.70,4.71,-4.71,-4.81,-5.24,0.48,0.48,0.48
139.22,5.12,5.12,4.69,4.68,-4.68,-4.78,-5.15,0.44,0.44,0.43
140.61,5.05,5.05,4.66,4.66,-4.65,-4.74,-5.05,0.39,0.40,0.39
142.02,4.99,4.98,4.62,4.63,-4.63,-4.71,-4.94,0.36,0.36,0.36
143.44,4.92,4.92,4.59,4.60,-4.60,-4.67,-4.83,0.32,0.32,0.32
144.87,4.85,4.85,4.56,4.56,-4.56,-4.62,-4.72,0.28,0.29,0.28
146.32,4.78,4.78,4.53,4.53,-4.53,-4.58,-4.61,0.25,0.25,0.24
147.78,4.71,4.70,4.49,4.49,-4.50,-4.54,-4.49,0.21,0.21,0.21
149.26,4.63,4.63,4.45,4.46,-4.46,-4.49,-4.38,0.17,0.17,0.18
150.75,4.56,4.56,4.43,4.42,-4.43,-4.45,-4.26,0.13,0.13,0.13
152.26,4.49,4.48,4.39,4.39,-4.39,-4.40,-4.14,0.10,0.09,0.09
153.78,4.41,4.41,4.35,4.36,-4.35,-4.35,-4.02,0.05,0.06,0.06
155.32,4.34,4.33,4.32,4.32,-4.32,-4.29,-3.91,0.02,0.02,0.01
156.88,4.26,4.26,4.28,4.28,-4.28,-4.24,-3.79,-0.02,-0.03,-0.02
158.44,4.18,4.18,4.24,4.24,-4.24,-4.19,-3.68,-0.07,-0.07,-0.06
160.03,4.10,4.10,4.20,4.20,-4.20,-4.13,-3.56,-0.11,-0.11,-0.11
161.63,4.02,4.02,4.17,4.16,-4.16,-4.07,-3.45,-0.14,-0.14,-0.15
163.24,3.94,3.93,4.13,4.12,-4.12,-4.02,-3.34,-0.18,-0.18,-0.19
164.88,3.85,3.85,4.07,4.07,-4.07,-3.95,-3.23,-0.23,-0.22,-0.22
166.53,3.77,3.77,4.02,4.02,-4.03,-3.89,-3.12,-0.26,-0.26,-0.26
168.19,3.68,3.68,3.97,3.98,-3.98,-3.83,-3.02,-0.30,-0.30,-0.30
169.87,3.60,3.59,3.93,3.93,-3.93,-3.77,-2.91,-0.33,-0.33,-0.33
171.57,3.51,3.51,3.88,3.88,-3.88,-3.70,-2.81,-0.37,-0.37,-0.37
173.29,3.42,3.42,3.82,3.82,-3.83,-3.63,-2.71,-0.41,-0.41,-0.41
175.02,3.33,3.32,3.77,3.77,-3.77,-3.56,-2.61,-0.45,-0.45,-0.44
176.77,3.23,3.23,3.71,3.72,-3.72,-3.49,-2.52,-0.49,-0.49,-0.49
178.54,3.14,3.14,3.67,3.66,-3.66,-3.42,-2.42,-0.52,-0.53,-0.53
180.32,3.04,3.04,3.60,3.60,-3.60,-3.35,-2.33,-0.57,-0.56,-0.56
182.13,2.95,2.94,3.54,3.54,-3.54,-3.27,-2.24,-0.59,-0.60,-0.60
183.95,2.84,2.84,3.48,3.48,-3.48,-3.20,-2.15,-0.64,-0.64,-0.64
185.79,2.74,2.74,3.41,3.41,-3.41,-3.12,-2.07,-0.67,-0.67,-0.67
187.65,2.64,2.63,3.35,3.34,-3.34,-3.04,-1.98,-0.70,-0.71,-0.71
189.52,2.53,2.53,3.27,3.27,-3.27,-2.96,-1.90,-0.74,-0.74,-0.74
191.42,2.42,2.42,3.19,3.19,-3.19,-2.88,-1.82,-0.77,-0.77,-0.77
193.33,2.31,2.31,3.11,3.10,-3.11,-2.80,-1.74,-0.80,-0.80,-0.80
195.27,2.20,2.19,3.02,3.02,-3.03,-2.71,-1.66,-0.83,-0.83,-0.83
197.22,2.08,2.08,2.93,2.94,-2.94,-2.63,-1.59,-0.86,-0.86,-0.86
199.19,1.97,1.96,2.86,2.85,-2.85,-2.54,-1.51,-0.88,-0.88,-0.89
201.18,1.85,1.85,2.76,2.76,-2.75,-2.45,-1.44,-0.91,-0.91,-0.91
203.19,1.73,1.73,2.65,2.66,-2.66,-2.36,-1.37,-0.93,-0.93,-0.93
205.23,1.61,1.61,2.56,2.55,-2.56,-2.27,-1.30,-0.95,-0.95,-0.95
207.28,1.49,1.49,2.44,2.45,-2.45,-2.18,-1.23,-0.97,-0.97,-0.96
209.35,1.37,1.37,2.35,2.35,-2.35,-2.09,-1.16,-0.98,-0.98,-0.98
211.44,1.25,1.25,2.25,2.24,-2.24,-1.99,-1.09,-1.00,-1.00,-1.00
213.56,1.13,1.13,2.14,2.14,-2.14,-1.89,-1.02,-1.01,-1.01,-1.01
215.69,1.01,1.01,2.02,2.02,-2.03,-1.80,-0.96,-1.02,-1.02,-1.01
217.85,0.89,0.89,1.91,1.91,-1.91,-1.70,-0.89,-1.03,-1.03,-1.02
220.03,0.77,0.77,1.80,1.80,-1.80,-1.60,-0.83,-1.03,-1.03,-1.04
222.23,0.65,0.65,1.70,1.69,-1.69,-1.50,-0.76,-1.04,-1.04,-1.05
224.45,0.53,0.53,1.57,1.57,-1.57,-1.39,-0.70,-1.04,-1.04,-1.04
226.70,0.41,0.41,1.45,1.45,-1.45,-1.29,-0.63,-1.04,-1.04,-1.04
228.96,0.29,0.29,1.33,1.32,-1.33,-1.18,-0.57,-1.04,-1.04,-1.04
231.25,0.17,0.16,1.20,1.20,-1.20,-1.08,-0.50,-1.04,-1.04,-1.03
233.57,0.04,0.04,1.07,1.07,-1.08,-0.97,-0.44,-1.04,-1.04,-1.03
235.90,-0.08,-0.08,0.95,0.95,-0.95,-0.86,-0.37,-1.03,-1.03,-1.03
238.26,-0.20,-0.20,0.83,0.82,-0.82,-0.75,-0.31,-1.02,-1.03,-1.03
240.64,-0.32,-0.33,0.70,0.69,-0.69,-0.63,-0.24,-1.01,-1.02,-1.02
243.05,-0.45,-0.45,0.56,0.56,-0.56,-0.52,-0.18,-1.01,-1.01,-1.01
245.48,-0.57,-0.57,0.42,0.43,-0.43,-0.40,-0.11,-1.00,-1.00,-1.00
247.93,-0.69,-0.70,0.29,0.29,-0.29,-0.29,-0.04,-0.99,-0.99,-0.99
250.41,-0.82,-0.82,0.16,0.16,-0.16,-0.17,0.02,-0.98,-0.97,-0.98
252.92,-0.94,-0.94,0.02,0.02,-0.02,-0.05,0.09,-0.96,-0.96,-0.96
255.45,-1.06,-1.07,-0.12,-0.12,0.12,0.07,0.16,-0.94,-0.94,-0.94
258.00,-1.19,-1.19,-0.27,-0.27,0.26,0.19,0.23,-0.93,-0.93,-0.93
260.58,-1.31,-1.32,-0.40,-0.41,0.41,0.32,0.30,-0.91,-0.91,-0.91
263.19,-1.44,-1.44,-0.55,-0.55,0.55,0.44,0.38,-0.89,-0.89,-0.89
265.82,-1.56,-1.56,-0.69,-0.69,0.69,0.57,0.45,-0.87,-0.87,-0.88
268.48,-1.69,-1.69,-0.84,-0.84,0.84,0.70,0.52,-0.85,-0.85,-0.85
271.16,-1.81,-1.82,-0.99,-0.99,0.98,0.83,0.60,-0.83,-0.83,-0.83
273.87,-1.94,-1.94,-1.13,-1.13,1.13,0.96,0.68,-0.82,-0.81,-0.81
276.61,-2.06,-2.06,-1.27,-1.27,1.27,1.09,0.76,-0.79,-0.79,-0.79
279.38,-2.18,-2.19,-1.41,-1.41,1.41,1.22,0.83,-0.77,-0.77,-0.77
282.17,-2.31,-2.31,-1.55,-1.56,1.56,1.35,0.92,-0.76,-0.75,-0.76
284.99,-2.43,-2.44,-1.70,-1.70,1.70,1.49,1.00,-0.73,-0.73,-0.73
287.84,-2.56,-2.56,-1.84,-1.84,1.85,1.63,1.08,-0.72,-0.72,-0.72
290.72,-2.68,-2.69,-1.99,-1.99,1.99,1.76,1.17,-0.69,-0.70,-0.69
293.63,-2.81,-2.81,-2.14,-2.14,2.13,1.90,1.25,-0.68,-0.68,-0.68
296.57,-2.93,-2.94,-2.28,-2.28,2.28,2.04,1.34,-0.65,-0.66,-0.65
299.53,-3.06,-3.06,-2.43,-2.42,2.43,2.18,1.43,-0.64,-0.63,-0.64
302.53,-3.18,-3.18,-2.56,-2.57,2.57,2.33,1.52,-0.61,-0.61,-0.62
305.55,-3.30,-3.31,-2.72,-2.72,2.72,2.47,1.61,-0.58,-0.59,-0.58
308.61,-3.43,-3.43,-2.87,-2.87,2.87,2.61,1.71,-0.57,-0.56,-0.57
311.69,-3.55,-3.55,-3.01,-3.02,3.01,2.76,1.80,-0.54,-0.54,-0.54
314.81,-3.67,-3.67,-3.17,-3.16,3.16,2.90,1.90,-0.52,-0.52,-0.50
317.96,-3.79,-3.79,-3.31,-3.30,3.30,3.05,2.00,-0.49,-0.49,-0.49
321.14,-3.91,-3.91,-3.44,-3.45,3.44,3.19,2.10,-0.47,-0.47,-0.47
324.35,-4.03,-4.03,-3.58,-3.58,3.59,3.34,2.21,-0.45,-0.45,-0.45
327.59,-4.15,-4.15,-3.73,-3.72,3.73,3.48,2.31,-0.43,-0.43,-0.43
330.87,-4.27,-4.27,-3.86,-3.86,3.87,3.63,2.42,-0.41,-0.41,-0.41
334.18,-4.39,-4.39,-4.00,-4.00,4.01,3.78,2.53,-0.39,-0.39,-0.39
337.52,-4.51,-4.51,-4.14,-4.14,4.15,3.92,2.64,-0.37,-0.37,-0.37
340.90,-4.63,-4.63,-4.29,-4.28,4.28,4.07,2.76,-0.35,-0.35,-0.35
344.30,-4.74,-4.75,-4.41,-4.42,4.42,4.21,2.87,-0.32,-0.33,-0.33
347.75,-4.86,-4.86,-4.55,-4.55,4.55,4.35,2.99,-0.31,-0.31,-0.31
351.23,-4.98,-4.98,-4.69,-4.69,4.68,4.49,3.11,-0.30,-0.30,-0.29
354.74,-5.09,-5.09,-4.82,-4.82,4.80,4.63,3.24,-0.29,-0.29,-0.28
358.28,-5.19,-5.19,-4.93,-4.93,4.92,4.77,3.36,-0.27,-0.27,-0.26
361.87,-5.27,-5.28,-5.03,-5.03,5.03,4.91,3.49,-0.24,-0.25,-0.24
365.49,-5.36,-5.36,-5.13,-5.13,5.14,5.04,3.62,-0.23,-0.23,-0.23
369.14,-5.45,-5.45,-5.23,-5.23,5.24,5.17,3.76,-0.22,-0.21,-0.22
372.83,-5.53,-5.53,-5.33,-5.32,5.33,5.30,3.89,-0.20,-0.20,-0.21
376.56,-5.61,-5.61,-5.42,-5.42,5.42,5.42,4.03,-0.19,-0.19,-0.20
380.33,-5.68,-5.69,-5.51,-5.51,5.51,5.54,4.17,-0.17,-0.17,-0.17
384.13,-5.76,-5.76,-5.60,-5.60,5.61,5.66,4.32,-0.16,-0.16,-0.16
387.97,-5.83,-5.83,-5.68,-5.68,5.69,5.77,4.46,-0.14,-0.14,-0.15
391.85,-5.90,-5.90,-5.76,-5.76,5.77,5.88,4.61,-0.13,-0.13,-0.14
395.77,-5.96,-5.97,-5.84,-5.84,5.84,5.98,4.76,-0.12,-0.12,-0.13
399.73,-6.03,-6.03,-5.92,-5.91,5.90,6.08,4.91,-0.13,-0.13,-0.12
403.72,-6.09,-6.10,-5.98,-5.99,5.94,6.17,5.06,-0.15,-0.15,-0.11
407.76,-6.16,-6.16,-6.06,-6.07,5.98,6.25,5.21,-0.19,-0.19,-0.10
411.84,-6.23,-6.23,-6.15,-6.14,6.00,6.33,5.36,-0.23,-0.23,-0.08
415.96,-6.29,-6.30,-6.22,-6.22,6.01,6.40,5.51,-0.28,-0.29,-0.07
420.12,-6.36,-6.36,-6.30,-6.30,6.01,6.46,5.67,-0.35,-0.35,-0.06
424.32,-6.43,-6.43,-6.38,-6.38,6.01,6.52,5.82,-0.42,-0.42,-0.05
428.56,-6.50,-6.51,-6.46,-6.46,6.01,6.57,5.96,-0.50,-0.50,-0.05
432.85,-6.58,-6.58,-6.55,-6.54,6.00,6.61,6.11,-0.58,-0.58,-0.04
437.18,-6.65,-6.65,-6.63,-6.63,6.00,6.65,6.25,-0.65,-0.65,-0.03
441.55,-6.73,-6.73,-6.72,-6.72,6.00,6.67,6.39,-0.73,-0.73,-0.01
445.96,-6.81,-6.82,-6.81,-6.82,6.00,6.70,6.53,-0.81,-0.82,0.00
450.42,-6.92,-6.93,-6.93,-6.94,6.00,6.71,6.65,-0.92,-0.93,0.01
454.93,-7.04,-7.04,-7.07,-7.07,6.00,6.71,6.77,-1.04,-1.04,0.03
459.48,-7.16,-7.16,-7.20,-7.20,6.00,6.71,6.89,-1.16,-1.16,0.04
464.07,-7.27,-7.28,-7.33,-7.33,6.00,6.71,6.99,-1.27,-1.28,0.06
468.71,-7.38,-7.39,-7.46,-7.46,6.00,6.69,7.09,-1.38,-1.39,0.08
473.40,-7.49,-7.49,-7.58,-7.58,6.00,6.67,7.17,-1.49,-1.49,0.09
478.13,-7.58,-7.58,-7.69,-7.69,6.00,6.65,7.24,-1.58,-1.58,0.10
482.91,-7.66,-7.67,-7.78,-7.79,6.00,6.62,7.30,-1.66,-1.67,0.11
487.74,-7.74,-7.74,-7.88,-7.87,6.00,6.58,7.35,-1.74,-1.74,0.13
492.62,-7.80,-7.80,-7.96,-7.95,6.00,6.54,7.38,-1.80,-1.80,0.15
497.55,-7.84,-7.85,-8.01,-8.01,6.00,6.50,7.40,-1.84,-1.85,0.16
502.52,-7.87,-7.87,-8.05,-8.05,6.00,6.45,7.40,-1.87,-1.87,0.18
507.55,-7.89,-7.89,-8.08,-8.08,6.00,6.40,7.39,-1.89,-1.89,0.19
512.62,-7.88,-7.89,-8.09,-8.10,6.00,6.35,7.37,-1.88,-1.89,0.21
