frequency,raw,error,smoothed,error_smoothed,equalization,parametric_eq,fixed_band_eq,equalized_raw,equalized_smoothed,target
20.00,-5.93,-8.00,-5.94,-8.01,6.00,5.69,2.76,0.07,0.06,2.07
20.20,-6.18,-8.25,-6.09,-8.16,6.00,5.72,2.84,-0.18,-0.09,2.07
20.40,-6.37,-8.44,-6.22,-8.29,6.00,5.75,2.92,-0.37,-0.22,2.07
20.61,-6.48,-8.55,-6.33,-8.39,6.00,5.78,3.00,-0.48,-0.33,2.07
20.81,-6.50,-8.56,-6.42,-8.48,6.00,5.81,3.08,-0.50,-0.42,2.06
21.02,-6.46,-8.52,-6.49,-8.56,6.00,5.84,3.17,-0.46,-0.49,2.06
21.23,-6.39,-8.44,-6.55,-8.61,6.00,5.86,3.26,-0.39,-0.55,2.06
21.44,-6.28,-8.34,-6.58,-8.64,6.00,5.89,3.35,-0.28,-0.58,2.07
21.66,-6.25,-8.30,-6.60,-8.65,6.00,5.91,3.45,-0.25,-0.60,2.06
21.87,-6.30,-8.36,-6.60,-8.65,6.00,5.94,3.54,-0.30,-0.60,2.06
22.09,-6.43,-8.47,-6.58,-8.63,6.00,5.96,3.64,-0.43,-0.58,2.05
22.31,-6.56,-8.60,-6.54,-8.58,6.00,5.98,3.75,-0.56,-0.54,2.05
22.54,-6.67,-8.70,-6.46,-8.49,6.00,6.00,3.85,-0.67,-0.46,2.04
22.76,-6.74,-8.77,-6.36,-8.39,6.00,6.02,3.96,-0.74,-0.36,2.03
22.99,-6.68,-8.71,-6.25,-8.28,6.00,6.04,4.07,-0.68,-0.25,2.03
23.22,-6.52,-8.54,-6.14,-8.17,6.00,6.06,4.18,-0.52,-0.14,2.02
23.45,-6.26,-8.29,-6.04,-8.06,6.00,6.07,4.30,-0.26,-0.04,2.02
23.69,-5.93,-7.95,-5.93,-7.94,6.00,6.09,4.42,0.07,0.07,2.01
23.92,-5.60,-7.61,-5.82,-7.82,6.00,6.10,4.54,0.40,0.18,2.00
24.16,-5.32,-7.32,-5.69,-7.70,6.00,6.11,4.66,0.68,0.31,2.00
24.40,-5.12,-7.12,-5.55,-7.55,6.00,6.12,4.78,0.88,0.45,2.00
24.65,-5.03,-7.03,-5.40,-7.40,6.00,6.13,4.91,0.97,0.60,2.00
24.89,-5.03,-7.03,-5.25,-7.25,6.00,6.14,5.04,0.97,0.75,2.00
25.14,-5.12,-7.12,-5.10,-7.10,6.00,6.15,5.17,0.88,0.90,2.00
25.39,-5.18,-7.16,-4.97,-6.96,6.00,6.15,5.30,0.82,1.03,1.99
25.65,-5.20,-7.18,-4.87,-6.86,6.00,6.16,5.43,0.80,1.13,1.99
25.91,-5.14,-7.12,-4.79,-6.78,6.00,6.16,5.56,0.86,1.21,1.99
26.16,-4.99,-6.99,-4.73,-6.73,6.00,6.17,5.69,1.01,1.27,1.99
26.43,-4.83,-6.82,-4.71,-6.70,6.00,6.17,5.82,1.17,1.29,1.99
26.69,-4.63,-6.62,-4.70,-6.69,6.00,6.17,5.95,1.37,1.30,1.99
26.96,-4.47,-6.46,-4.69,-6.68,6.00,6.17,6.08,1.53,1.31,1.99
27.23,-4.38,-6.37,-4.69,-6.69,6.00,6.16,6.21,1.62,1.31,1.99
27.50,-4.36,-6.35,-4.70,-6.69,6.00,6.16,6.33,1.64,1.30,1.99
27.77,-4.45,-6.45,-4.71,-6.69,6.00,6.15,6.45,1.55,1.29,2.00
28.05,-4.59,-6.58,-4.72,-6.71,6.00,6.15,6.56,1.41,1.28,1.99
28.33,-4.75,-6.73,-4.75,-6.73,6.00,6.14,6.67,1.25,1.25,1.99
28.62,-4.89,-6.87,-4.78,-6.76,6.00,6.13,6.77,1.11,1.22,1.97
28.90,-5.02,-7.00,-4.82,-6.79,6.00,6.12,6.86,0.98,1.18,1.98
29.19,-5.08,-7.05,-4.86,-6.83,6.00,6.11,6.95,0.92,1.14,1.97
29.48,-5.10,-7.06,-4.89,-6.85,6.00,6.09,7.03,0.90,1.11,1.96
29.78,-5.05,-7.01,-4.90,-6.87,6.00,6.08,7.09,0.95,1.10,1.96
30.08,-4.99,-6.95,-4.90,-6.85,6.00,6.06,7.15,1.01,1.10,1.96
30.38,-4.90,-6.84,-4.86,-6.82,6.00,6.05,7.20,1.10,1.14,1.95
30.68,-4.79,-6.73,-4.80,-6.75,6.00,6.03,7.23,1.21,1.20,1.94
30.99,-4.67,-6.61,-4.71,-6.66,6.00,6.01,7.26,1.33,1.29,1.94
31.30,-4.54,-6.48,-4.60,-6.55,6.00,5.99,7.27,1.46,1.40,1.94
31.61,-4.43,-6.37,-4.48,-6.43,6.00,5.97,7.27,1.57,1.52,1.94
31.93,-4.32,-6.25,-4.36,-6.30,5.99,5.95,7.26,1.67,1.63,1.94
32.24,-4.23,-6.17,-4.24,-6.18,5.96,5.92,7.24,1.73,1.72,1.94
32.57,-4.13,-6.06,-4.12,-6.06,5.91,5.90,7.20,1.79,1.79,1.93
32.89,-4.04,-5.98,-4.02,-5.95,5.85,5.87,7.16,1.82,1.84,1.94
33.22,-3.93,-5.86,-3.92,-5.85,5.79,5.85,7.10,1.86,1.87,1.94
33.55,-3.83,-5.76,-3.82,-5.75,5.72,5.82,7.04,1.89,1.90,1.93
33.89,-3.73,-5.65,-3.74,-5.66,5.65,5.79,6.97,1.92,1.91,1.92
34.23,-3.65,-5.56,-3.67,-5.59,5.59,5.76,6.89,1.94,1.91,1.91
34.57,-3.59,-5.49,-3.62,-5.52,5.52,5.73,6.80,1.93,1.90,1.91
34.92,-3.57,-5.45,-3.58,-5.47,5.47,5.70,6.71,1.90,1.88,1.88
35.27,-3.55,-5.43,-3.56,-5.43,5.43,5.66,6.61,1.88,1.87,1.88
35.62,-3.52,-5.37,-3.55,-5.40,5.40,5.63,6.51,1.88,1.85,1.85
35.97,-3.51,-5.34,-3.56,-5.39,5.39,5.59,6.40,1.88,1.83,1.83
36.33,-3.51,-5.32,-3.58,-5.38,5.38,5.56,6.30,1.87,1.80,1.81
36.70,-3.53,-5.30,-3.61,-5.38,5.38,5.52,6.19,1.86,1.78,1.78
37.06,-3.60,-5.35,-3.64,-5.40,5.40,5.49,6.08,1.80,1.75,1.75
37.43,-3.69,-5.41,-3.68,-5.41,5.41,5.45,5.97,1.72,1.72,1.72
37.81,-3.76,-5.45,-3.72,-5.41,5.41,5.41,5.85,1.66,1.70,1.70
38.19,-3.82,-5.48,-3.75,-5.41,5.41,5.37,5.74,1.60,1.67,1.66
38.57,-3.86,-5.49,-3.77,-5.41,5.41,5.33,5.63,1.55,1.64,1.64
38.95,-3.88,-5.49,-3.78,-5.40,5.40,5.29,5.53,1.52,1.61,1.61
39.34,-3.89,-5.47,-3.80,-5.38,5.38,5.24,5.42,1.50,1.59,1.58
39.74,-3.88,-5.43,-3.81,-5.37,5.37,5.20,5.31,1.49,1.56,1.55
40.14,-3.85,-5.38,-3.81,-5.34,5.34,5.16,5.21,1.50,1.53,1.53
40.54,-3.80,-5.31,-3.81,-5.32,5.32,5.12,5.11,1.52,1.51,1.51
40.94,-3.74,-5.22,-3.80,-5.28,5.28,5.07,5.01,1.55,1.49,1.49
41.35,-3.69,-5.15,-3.78,-5.25,5.25,5.03,4.92,1.56,1.47,1.46
41.76,-3.66,-5.09,-3.76,-5.21,5.21,4.98,4.83,1.55,1.44,1.44
42.18,-3.67,-5.10,-3.74,-5.17,5.17,4.93,4.74,1.50,1.42,1.43
42.60,-3.70,-5.10,-3.72,-5.13,5.13,4.89,4.65,1.43,1.40,1.40
43.03,-3.72,-5.09,-3.71,-5.09,5.09,4.84,4.57,1.37,1.38,1.38
43.46,-3.73,-5.09,-3.69,-5.05,5.05,4.79,4.49,1.32,1.36,1.36
43.90,-3.72,-5.06,-3.67,-5.01,5.01,4.75,4.42,1.30,1.34,1.34
44.33,-3.71,-5.02,-3.65,-4.98,4.98,4.70,4.34,1.27,1.32,1.32
44.78,-3.69,-4.99,-3.64,-4.94,4.94,4.65,4.27,1.25,1.30,1.30
45.23,-3.64,-4.93,-3.61,-4.89,4.89,4.60,4.21,1.25,1.27,1.29
45.68,-3.60,-4.85,-3.59,-4.84,4.84,4.55,4.15,1.24,1.25,1.25
46.13,-3.54,-4.75,-3.55,-4.77,4.77,4.50,4.09,1.24,1.22,1.21
46.60,-3.50,-4.69,-3.51,-4.70,4.70,4.45,4.03,1.20,1.19,1.20
47.06,-3.46,-4.62,-3.46,-4.62,4.62,4.40,3.98,1.16,1.16,1.17
47.53,-3.43,-4.56,-3.41,-4.53,4.53,4.35,3.93,1.11,1.12,1.14
48.01,-3.38,-4.46,-3.36,-4.45,4.45,4.30,3.88,1.07,1.09,1.09
48.49,-3.33,-4.38,-3.31,-4.37,4.37,4.25,3.84,1.04,1.05,1.06
48.97,-3.27,-4.28,-3.27,-4.29,4.29,4.19,3.79,1.02,1.02,1.02
49.46,-3.21,-4.19,-3.23,-4.21,4.21,4.14,3.75,1.01,0.98,0.98
49.96,-3.17,-4.09,-3.21,-4.14,4.14,4.09,3.72,0.98,0.94,0.92
50.46,-3.14,-4.03,-3.18,-4.08,4.08,4.04,3.68,0.94,0.90,0.89
50.96,-3.12,-3.97,-3.16,-4.02,4.02,3.99,3.65,0.90,0.86,0.85
51.47,-3.11,-3.92,-3.15,-3.97,3.97,3.93,3.62,0.86,0.82,0.82
51.99,-3.10,-3.87,-3.13,-3.91,3.91,3.88,3.59,0.81,0.78,0.77
52.51,-3.11,-3.85,-3.11,-3.85,3.85,3.83,3.56,0.75,0.74,0.74
53.03,-3.12,-3.83,-3.10,-3.80,3.80,3.78,3.54,0.68,0.70,0.72
53.56,-3.14,-3.81,-3.08,-3.74,3.74,3.72,3.51,0.61,0.66,0.67
54.10,-3.12,-3.74,-3.06,-3.69,3.69,3.67,3.49,0.57,0.63,0.63
54.64,-3.11,-3.70,-3.05,-3.64,3.64,3.62,3.46,0.53,0.59,0.59
55.18,-3.07,-3.61,-3.02,-3.58,3.58,3.56,3.44,0.51,0.56,0.54
55.74,-3.03,-3.54,-3.00,-3.52,3.52,3.51,3.41,0.50,0.52,0.51
56.29,-2.98,-3.46,-2.97,-3.46,3.46,3.46,3.39,0.48,0.49,0.48
56.86,-2.93,-3.38,-2.94,-3.40,3.40,3.40,3.36,0.47,0.46,0.45
57.42,-2.88,-3.28,-2.91,-3.33,3.33,3.35,3.34,0.45,0.42,0.40
58.00,-2.84,-3.21,-2.88,-3.26,3.26,3.30,3.31,0.42,0.38,0.38
58.58,-2.82,-3.17,-2.85,-3.19,3.19,3.24,3.29,0.38,0.34,0.36
59.16,-2.80,-3.12,-2.82,-3.13,3.13,3.19,3.26,0.33,0.30,0.33
59.76,-2.78,-3.07,-2.80,-3.06,3.06,3.14,3.23,0.29,0.26,0.30
60.35,-2.77,-3.01,-2.78,-3.00,3.00,3.08,3.19,0.24,0.22,0.24
60.96,-2.76,-2.96,-2.76,-2.95,2.95,3.03,3.16,0.19,0.18,0.20
61.57,-2.76,-2.90,-2.75,-2.89,2.89,2.98,3.12,0.14,0.14,0.14
62.18,-2.76,-2.84,-2.75,-2.84,2.84,2.93,3.09,0.09,0.10,0.08
62.80,-2.75,-2.79,-2.74,-2.79,2.79,2.87,3.04,0.05,0.05,0.04
63.43,-2.76,-2.74,-2.74,-2.74,2.74,2.82,3.00,-0.01,0.01,-0.01
64.07,-2.74,-2.69,-2.73,-2.70,2.70,2.77,2.96,-0.04,-0.03,-0.05
64.71,-2.73,-2.64,-2.72,-2.65,2.65,2.71,2.91,-0.08,-0.08,-0.09
65.35,-2.73,-2.60,-2.72,-2.59,2.59,2.66,2.86,-0.13,-0.12,-0.12
66.01,-2.71,-2.54,-2.71,-2.54,2.54,2.61,2.81,-0.16,-0.16,-0.16
66.67,-2.69,-2.50,-2.70,-2.49,2.49,2.56,2.75,-0.19,-0.20,-0.19
67.33,-2.69,-2.45,-2.68,-2.44,2.44,2.50,2.70,-0.25,-0.24,-0.24
68.01,-2.67,-2.39,-2.67,-2.39,2.39,2.45,2.64,-0.28,-0.28,-0.28
68.69,-2.66,-2.33,-2.65,-2.33,2.33,2.40,2.58,-0.33,-0.32,-0.32
69.37,-2.65,-2.29,-2.63,-2.27,2.27,2.35,2.52,-0.37,-0.36,-0.35
70.07,-2.62,-2.23,-2.61,-2.22,2.22,2.29,2.46,-0.40,-0.40,-0.39
70.77,-2.60,-2.17,-2.59,-2.15,2.15,2.24,2.40,-0.44,-0.44,-0.43
71.48,-2.58,-2.10,-2.58,-2.10,2.10,2.19,2.33,-0.48,-0.48,-0.48
72.19,-2.58,-2.05,-2.56,-2.04,2.04,2.14,2.27,-0.54,-0.52,-0.52
72.91,-2.53,-1.97,-2.54,-1.98,1.98,2.09,2.20,-0.55,-0.56,-0.56
73.64,-2.50,-1.89,-2.51,-1.92,1.92,2.04,2.14,-0.58,-0.60,-0.61
74.38,-2.48,-1.83,-2.49,-1.86,1.86,1.98,2.07,-0.62,-0.63,-0.64
75.12,-2.47,-1.78,-2.47,-1.80,1.80,1.93,2.00,-0.67,-0.67,-0.68
75.87,-2.45,-1.74,-2.45,-1.74,1.74,1.88,1.94,-0.70,-0.71,-0.70
76.63,-2.43,-1.68,-2.43,-1.69,1.69,1.83,1.87,-0.74,-0.74,-0.74
77.40,-2.42,-1.64,-2.41,-1.64,1.64,1.78,1.80,-0.78,-0.77,-0.77
78.17,-2.41,-1.59,-2.40,-1.59,1.59,1.73,1.74,-0.82,-0.81,-0.82
78.95,-2.40,-1.57,-2.39,-1.55,1.55,1.68,1.67,-0.85,-0.84,-0.83
79.74,-2.36,-1.49,-2.38,-1.51,1.51,1.63,1.61,-0.85,-0.87,-0.86
80.54,-2.34,-1.44,-2.37,-1.47,1.47,1.58,1.54,-0.87,-0.90,-0.90
81.35,-2.32,-1.39,-2.36,-1.43,1.43,1.53,1.48,-0.89,-0.93,-0.93
82.16,-2.35,-1.40,-2.35,-1.39,1.39,1.48,1.42,-0.95,-0.96,-0.95
82.98,-2.35,-1.36,-2.34,-1.36,1.36,1.43,1.35,-0.99,-0.99,-0.99
83.81,-2.34,-1.32,-2.33,-1.31,1.31,1.38,1.29,-1.03,-1.02,-1.02
84.65,-2.32,-1.26,-2.31,-1.26,1.26,1.33,1.23,-1.05,-1.05,-1.06
85.50,-2.32,-1.23,-2.29,-1.21,1.21,1.28,1.17,-1.10,-1.08,-1.09
86.35,-2.30,-1.19,-2.27,-1.16,1.16,1.23,1.11,-1.14,-1.11,-1.11
87.22,-2.29,-1.15,-2.24,-1.10,1.10,1.18,1.05,-1.19,-1.14,-1.14
88.09,-2.25,-1.08,-2.21,-1.04,1.04,1.13,0.99,-1.21,-1.17,-1.17
88.97,-2.21,-1.01,-2.17,-0.97,0.97,1.08,0.94,-1.24,-1.20,-1.20
89.86,-2.16,-0.92,-2.14,-0.90,0.90,1.03,0.88,-1.25,-1.23,-1.23
90.76,-2.10,-0.83,-2.10,-0.83,0.83,0.98,0.82,-1.27,-1.27,-1.27
91.66,-2.05,-0.75,-2.06,-0.76,0.76,0.93,0.77,-1.29,-1.30,-1.30
92.58,-2.00,-0.66,-2.03,-0.70,0.70,0.89,0.71,-1.30,-1.34,-1.33
93.51,-1.98,-0.61,-2.01,-0.64,0.64,0.84,0.66,-1.34,-1.38,-1.37
94.44,-1.97,-0.56,-2.00,-0.58,0.58,0.79,0.60,-1.38,-1.42,-1.40
95.39,-1.96,-0.51,-2.00,-0.54,0.54,0.74,0.55,-1.42,-1.46,-1.45
96.34,-1.96,-0.46,-2.01,-0.51,0.51,0.69,0.50,-1.45,-1.50,-1.50
97.30,-1.98,-0.44,-2.02,-0.48,0.48,0.64,0.45,-1.50,-1.54,-1.53
98.28,-2.00,-0.41,-2.05,-0.46,0.46,0.60,0.40,-1.53,-1.58,-1.59
99.26,-2.06,-0.42,-2.08,-0.46,0.46,0.55,0.35,-1.60,-1.62,-1.64
100.25,-2.10,-0.42,-2.12,-0.45,0.45,0.50,0.30,-1.65,-1.66,-1.67
101.25,-2.17,-0.46,-2.15,-0.45,0.45,0.45,0.25,-1.72,-1.70,-1.71
102.27,-2.22,-0.47,-2.18,-0.44,0.44,0.41,0.20,-1.78,-1.74,-1.75
103.29,-2.26,-0.47,-2.21,-0.43,0.43,0.36,0.15,-1.83,-1.78,-1.79
104.32,-2.29,-0.47,-2.23,-0.41,0.41,0.31,0.10,-1.87,-1.82,-1.82
105.37,-2.31,-0.45,-2.24,-0.39,0.39,0.26,0.06,-1.92,-1.85,-1.85
106.42,-2.30,-0.42,-2.24,-0.36,0.36,0.22,0.01,-1.94,-1.89,-1.88
107.48,-2.29,-0.36,-2.24,-0.32,0.32,0.17,-0.04,-1.97,-1.92,-1.93
108.56,-2.26,-0.30,-2.22,-0.27,0.27,0.12,-0.08,-1.99,-1.96,-1.96
109.64,-2.22,-0.23,-2.20,-0.21,0.21,0.08,-0.13,-2.01,-1.99,-1.98
110.74,-2.17,-0.15,-2.18,-0.15,0.15,0.03,-0.17,-2.02,-2.03,-2.02
111.85,-2.12,-0.06,-2.15,-0.08,0.08,-0.02,-0.21,-2.03,-2.07,-2.06
112.97,-2.07,0.03,-2.12,-0.01,0.01,-0.06,-0.25,-2.05,-2.10,-2.10
114.10,-2.04,0.10,-2.09,0.05,-0.05,-0.11,-0.29,-2.09,-2.14,-2.13
115.24,-2.03,0.15,-2.07,0.12,-0.12,-0.15,-0.33,-2.15,-2.18,-2.18
116.39,-2.01,0.23,-2.04,0.18,-0.18,-0.20,-0.37,-2.19,-2.23,-2.23
117.55,-2.01,0.26,-2.03,0.24,-0.24,-0.25,-0.41,-2.25,-2.27,-2.27
118.73,-2.01,0.32,-2.01,0.30,-0.30,-0.29,-0.45,-2.31,-2.32,-2.33
119.92,-2.02,0.35,-2.00,0.36,-0.36,-0.34,-0.49,-2.37,-2.36,-2.37
121.12,-2.02,0.39,-2.00,0.41,-0.41,-0.38,-0.52,-2.43,-2.41,-2.40
122.33,-2.02,0.44,-2.00,0.46,-0.46,-0.43,-0.55,-2.48,-2.46,-2.46
123.55,-2.02,0.48,-1.99,0.51,-0.51,-0.47,-0.59,-2.53,-2.51,-2.50
124.79,-2.01,0.54,-1.99,0.56,-0.56,-0.52,-0.62,-2.57,-2.56,-2.54
126.03,-2.01,0.59,-1.99,0.62,-0.62,-0.56,-0.65,-2.62,-2.61,-2.59
127.29,-1.99,0.67,-1.99,0.67,-0.67,-0.61,-0.68,-2.65,-2.66,-2.66
128.57,-1.98,0.73,-1.98,0.72,-0.72,-0.65,-0.71,-2.70,-2.70,-2.71
129.85,-1.98,0.78,-1.98,0.77,-0.77,-0.70,-0.74,-2.75,-2.75,-2.76
131.15,-1.96,0.85,-1.97,0.82,-0.82,-0.74,-0.77,-2.78,-2.80,-2.81
132.46,-1.97,0.89,-1.97,0.87,-0.87,-0.79,-0.80,-2.84,-2.84,-2.85
133.79,-1.96,0.93,-1.96,0.92,-0.92,-0.83,-0.82,-2.88,-2.88,-2.89
135.12,-1.95,0.99,-1.96,0.97,-0.97,-0.87,-0.85,-2.92,-2.93,-2.94
136.48,-1.95,1.02,-1.95,1.01,-1.01,-0.92,-0.88,-2.96,-2.96,-2.96
137.84,-1.95,1.05,-1.95,1.05,-1.05,-0.96,-0.90,-3.00,-3.00,-3.00
139.22,-1.95,1.10,-1.94,1.09,-1.09,-1.00,-0.93,-3.04,-3.04,-3.04
140.61,-1.95,1.12,-1.94,1.13,-1.13,-1.05,-0.95,-3.07,-3.07,-3.07
142.02,-1.94,1.16,-1.94,1.16,-1.16,-1.09,-0.98,-3.10,-3.10,-3.10
143.44,-1.94,1.19,-1.94,1.19,-1.19,-1.13,-1.00,-3.13,-3.13,-3.13
144.87,-1.95,1.20,-1.94,1.22,-1.22,-1.18,-1.03,-3.17,-3.16,-3.15
146.32,-1.94,1.24,-1.93,1.25,-1.25,-1.22,-1.06,-3.19,-3.18,-3.18
147.78,-1.93,1.28,-1.93,1.28,-1.28,-1.26,-1.08,-3.21,-3.21,-3.21
149.26,-1.93,1.31,-1.93,1.31,-1.31,-1.30,-1.11,-3.24,-3.24,-3.24
150.75,-1.93,1.35,-1.93,1.34,-1.34,-1.35,-1.14,-3.27,-3.27,-3.28
152.26,-1.92,1.38,-1.92,1.38,-1.38,-1.39,-1.16,-3.29,-3.30,-3.29
153.78,-1.93,1.40,-1.92,1.41,-1.41,-1.43,-1.19,-3.33,-3.33,-3.33
155.32,-1.92,1.44,-1.92,1.44,-1.44,-1.47,-1.22,-3.36,-3.36,-3.35
156.88,-1.93,1.46,-1.92,1.47,-1.47,-1.51,-1.25,-3.40,-3.39,-3.39
158.44,-1.92,1.50,-1.92,1.51,-1.51,-1.55,-1.28,-3.43,-3.43,-3.42
160.03,-1.91,1.55,-1.92,1.54,-1.54,-1.59,-1.32,-3.45,-3.46,-3.45
161.63,-1.92,1.57,-1.91,1.58,-1.58,-1.63,-1.35,-3.50,-3.49,-3.49
163.24,-1.92,1.62,-1.91,1.62,-1.62,-1.67,-1.38,-3.53,-3.53,-3.54
164.88,-1.91,1.66,-1.91,1.65,-1.65,-1.71,-1.42,-3.56,-3.57,-3.57
166.53,-1.91,1.70,-1.91,1.69,-1.69,-1.75,-1.45,-3.60,-3.60,-3.61
168.19,-1.92,1.72,-1.91,1.73,-1.73,-1.79,-1.49,-3.65,-3.64,-3.63
169.87,-1.91,1.76,-1.91,1.77,-1.77,-1.83,-1.53,-3.67,-3.68,-3.67
171.57,-1.91,1.81,-1.91,1.81,-1.81,-1.87,-1.57,-3.71,-3.71,-3.72
173.29,-1.91,1.85,-1.91,1.84,-1.84,-1.90,-1.61,-3.75,-3.75,-3.75
175.02,-1.91,1.88,-1.91,1.88,-1.88,-1.94,-1.66,-3.79,-3.79,-3.79
176.77,-1.91,1.92,-1.91,1.92,-1.92,-1.98,-1.70,-3.82,-3.82,-3.82
178.54,-1.91,1.95,-1.91,1.95,-1.95,-2.02,-1.75,-3.86,-3.86,-3.86
180.32,-1.90,2.00,-1.91,1.99,-1.99,-2.05,-1.79,-3.89,-3.90,-3.90
182.13,-1.91,2.03,-1.91,2.03,-2.03,-2.09,-1.84,-3.93,-3.93,-3.93
183.95,-1.91,2.06,-1.91,2.06,-2.06,-2.12,-1.89,-3.97,-3.97,-3.97
185.79,-1.91,2.10,-1.91,2.10,-2.10,-2.16,-1.94,-4.01,-4.01,-4.01
187.65,-1.91,2.13,-1.91,2.14,-2.14,-2.19,-2.00,-4.04,-4.05,-4.04
189.52,-1.92,2.16,-1.91,2.17,-2.17,-2.23,-2.05,-4.09,-4.08,-4.08
191.42,-1.92,2.20,-1.91,2.20,-2.20,-2.26,-2.11,-4.12,-4.12,-4.12
193.33,-1.92,2.24,-1.91,2.24,-2.24,-2.29,-2.16,-4.15,-4.15,-4.15
195.27,-1.92,2.28,-1.92,2.27,-2.27,-2.33,-2.22,-4.19,-4.19,-4.19
197.22,-1.92,2.31,-1.92,2.30,-2.30,-2.36,-2.28,-4.22,-4.22,-4.23
199.19,-1.92,2.34,-1.92,2.34,-2.34,-2.39,-2.33,-4.25,-4.25,-4.26
201.18,-1.92,2.38,-1.92,2.37,-2.37,-2.42,-2.39,-4.28,-4.29,-4.29
203.19,-1.92,2.40,-1.92,2.40,-2.40,-2.45,-2.45,-4.32,-4.32,-4.32
205.23,-1.92,2.43,-1.92,2.43,-2.43,-2.48,-2.51,-4.35,-4.35,-4.34
207.28,-1.92,2.45,-1.92,2.46,-2.46,-2.51,-2.57,-4.38,-4.38,-4.37
209.35,-1.92,2.49,-1.91,2.49,-2.49,-2.54,-2.63,-4.41,-4.41,-4.40
211.44,-1.92,2.51,-1.91,2.52,-2.52,-2.56,-2.69,-4.44,-4.43,-4.43
213.56,-1.91,2.55,-1.91,2.54,-2.54,-2.59,-2.75,-4.45,-4.46,-4.46
215.69,-1.91,2.58,-1.91,2.57,-2.57,-2.62,-2.81,-4.48,-4.48,-4.48
217.85,-1.91,2.60,-1.91,2.60,-2.60,-2.64,-2.87,-4.50,-4.51,-4.50
220.03,-1.91,2.63,-1.91,2.62,-2.62,-2.67,-2.92,-4.53,-4.53,-4.54
222.23,-1.91,2.65,-1.91,2.65,-2.65,-2.69,-2.97,-4.55,-4.55,-4.56
224.45,-1.91,2.67,-1.90,2.67,-2.67,-2.72,-3.03,-4.58,-4.58,-4.58
226.70,-1.91,2.69,-1.90,2.70,-2.70,-2.74,-3.07,-4.60,-4.60,-4.60
228.96,-1.90,2.71,-1.90,2.72,-2.72,-2.76,-3.12,-4.62,-4.62,-4.61
231.25,-1.90,2.73,-1.90,2.74,-2.74,-2.78,-3.16,-4.64,-4.64,-4.63
233.57,-1.90,2.75,-1.89,2.76,-2.76,-2.80,-3.20,-4.66,-4.66,-4.65
235.90,-1.89,2.79,-1.89,2.78,-2.78,-2.82,-3.24,-4.67,-4.67,-4.68
238.26,-1.89,2.81,-1.89,2.80,-2.80,-2.84,-3.27,-4.69,-4.69,-4.70
240.64,-1.89,2.81,-1.88,2.82,-2.82,-2.86,-3.30,-4.71,-4.70,-4.70
243.05,-1.87,2.85,-1.87,2.84,-2.84,-2.87,-3.32,-4.71,-4.72,-4.71
245.48,-1.87,2.87,-1.87,2.86,-2.86,-2.89,-3.34,-4.73,-4.73,-4.73
247.93,-1.87,2.88,-1.86,2.88,-2.88,-2.91,-3.36,-4.74,-4.74,-4.75
250.41,-1.86,2.89,-1.86,2.89,-2.89,-2.92,-3.37,-4.75,-4.75,-4.75
252.92,-1.85,2.91,-1.85,2.91,-2.91,-2.93,-3.37,-4.76,-4.76,-4.76
255.45,-1.85,2.93,-1.84,2.93,-2.93,-2.95,-3.37,-4.78,-4.77,-4.77
258.00,-1.84,2.94,-1.84,2.95,-2.95,-2.96,-3.37,-4.78,-4.78,-4.78
260.58,-1.83,2.96,-1.83,2.96,-2.96,-2.97,-3.36,-4.79,-4.79,-4.79
263.19,-1.83,2.97,-1.83,2.98,-2.98,-2.98,-3.35,-4.80,-4.80,-4.80
265.82,-1.82,2.99,-1.82,2.99,-2.99,-2.99,-3.33,-4.81,-4.81,-4.81
268.48,-1.82,3.00,-1.82,3.00,-3.00,-3.00,-3.31,-4.82,-4.82,-4.81
271.16,-1.81,3.02,-1.81,3.02,-3.02,-3.01,-3.29,-4.82,-4.83,-4.83
273.87,-1.81,3.03,-1.81,3.03,-3.03,-3.01,-3.26,-4.83,-4.84,-4.83
276.61,-1.81,3.04,-1.81,3.04,-3.04,-3.02,-3.23,-4.84,-4.85,-4.85
279.38,-1.81,3.06,-1.81,3.05,-3.05,-3.02,-3.20,-4.85,-4.85,-4.86
282.17,-1.81,3.06,-1.81,3.05,-3.05,-3.03,-3.17,-4.86,-4.86,-4.87
284.99,-1.81,3.06,-1.81,3.06,-3.06,-3.03,-3.13,-4.87,-4.87,-4.86
287.84,-1.82,3.05,-1.81,3.06,-3.06,-3.03,-3.09,-4.88,-4.88,-4.87
290.72,-1.81,3.08,-1.81,3.07,-3.07,-3.04,-3.05,-4.87,-4.88,-4.89
293.63,-1.82,3.07,-1.82,3.07,-3.07,-3.04,-3.01,-4.89,-4.89,-4.89
296.57,-1.82,3.07,-1.82,3.07,-3.07,-3.04,-2.97,-4.89,-4.89,-4.89
299.53,-1.83,3.07,-1.83,3.07,-3.07,-3.03,-2.93,-4.90,-4.90,-4.89
302.53,-1.84,3.06,-1.83,3.07,-3.07,-3.03,-2.89,-4.90,-4.90,-4.90
305.55,-1.84,3.06,-1.84,3.06,-3.06,-3.03,-2.85,-4.90,-4.90,-4.90
308.61,-1.85,3.06,-1.85,3.06,-3.06,-3.03,-2.81,-4.90,-4.90,-4.90
311.69,-1.86,3.05,-1.86,3.05,-3.05,-3.02,-2.77,-4.91,-4.91,-4.91
314.81,-1.86,3.05,-1.86,3.04,-3.04,-3.02,-2.73,-4.90,-4.91,-4.91
317.96,-1.88,3.04,-1.87,3.04,-3.04,-3.01,-2.70,-4.91,-4.91,-4.91
321.14,-1.88,3.03,-1.88,3.03,-3.03,-3.01,-2.66,-4.90,-4.91,-4.91
324.35,-1.90,3.02,-1.89,3.02,-3.02,-3.00,-2.63,-4.91,-4.91,-4.92
327.59,-1.91,2.99,-1.90,3.01,-3.01,-2.99,-2.59,-4.91,-4.91,-4.90
330.87,-1.92,2.99,-1.91,3.00,-3.00,-2.98,-2.56,-4.91,-4.91,-4.90
334.18,-1.92,3.00,-1.92,2.99,-2.99,-2.97,-2.53,-4.90,-4.91,-4.92
337.52,-1.94,2.97,-1.93,2.97,-2.97,-2.96,-2.50,-4.91,-4.91,-4.91
340.90,-1.94,2.97,-1.94,2.96,-2.96,-2.95,-2.47,-4.90,-4.90,-4.91
344.30,-1.96,2.95,-1.95,2.95,-2.95,-2.94,-2.45,-4.91,-4.90,-4.90
347.75,-1.97,2.93,-1.97,2.94,-2.94,-2.93,-2.43,-4.90,-4.90,-4.89
351.23,-1.98,2.93,-1.98,2.92,-2.92,-2.92,-2.40,-4.90,-4.90,-4.91
354.74,-1.99,2.90,-1.99,2.91,-2.91,-2.90,-2.38,-4.90,-4.90,-4.89
358.28,-2.01,2.89,-2.00,2.89,-2.89,-2.89,-2.37,-4.90,-4.90,-4.90
361.87,-2.01,2.88,-2.01,2.88,-2.88,-2.87,-2.35,-4.89,-4.89,-4.89
365.49,-2.03,2.87,-2.03,2.87,-2.87,-2.86,-2.34,-4.89,-4.89,-4.89
369.14,-2.05,2.84,-2.04,2.85,-2.85,-2.84,-2.32,-4.90,-4.89,-4.89
372.83,-2.05,2.84,-2.06,2.83,-2.83,-2.83,-2.31,-4.88,-4.89,-4.89
376.56,-2.07,2.82,-2.07,2.82,-2.82,-2.81,-2.30,-4.89,-4.89,-4.89
380.33,-2.09,2.80,-2.08,2.80,-2.80,-2.79,-2.30,-4.89,-4.89,-4.89
384.13,-2.10,2.79,-2.10,2.79,-2.79,-2.78,-2.29,-4.89,-4.89,-4.89
387.97,-2.12,2.77,-2.11,2.77,-2.77,-2.76,-2.29,-4.89,-4.88,-4.88
391.85,-2.13,2.76,-2.13,2.76,-2.76,-2.74,-2.29,-4.88,-4.88,-4.88
395.77,-2.15,2.74,-2.14,2.74,-2.74,-2.72,-2.29,-4.89,-4.88,-4.88
399.73,-2.16,2.73,-2.16,2.72,-2.72,-2.70,-2.29,-4.88,-4.88,-4.89
403.72,-2.18,2.70,-2.17,2.71,-2.71,-2.68,-2.29,-4.88,-4.88,-4.88
407.76,-2.19,2.69,-2.19,2.69,-2.69,-2.67,-2.29,-4.88,-4.88,-4.88
411.84,-2.20,2.68,-2.20,2.68,-2.68,-2.65,-2.30,-4.87,-4.88,-4.88
415.96,-2.22,2.65,-2.22,2.66,-2.66,-2.63,-2.30,-4.88,-4.88,-4.87
420.12,-2.24,2.64,-2.23,2.65,-2.65,-2.60,-2.31,-4.88,-4.88,-4.88
424.32,-2.25,2.64,-2.25,2.63,-2.63,-2.58,-2.31,-4.88,-4.88,-4.88
428.56,-2.27,2.61,-2.26,2.62,-2.62,-2.56,-2.32,-4.88,-4.88,-4.87
432.85,-2.28,2.60,-2.28,2.60,-2.60,-2.54,-2.33,-4.88,-4.88,-4.87
437.18,-2.30,2.59,-2.30,2.58,-2.58,-2.52,-2.34,-4.88,-4.88,-4.88
441.55,-2.31,2.58,-2.31,2.57,-2.57,-2.50,-2.34,-4.88,-4.88,-4.89
445.96,-2.33,2.56,-2.33,2.55,-2.55,-2.48,-2.35,-4.88,-4.88,-4.89
450.42,-2.35,2.54,-2.35,2.53,-2.53,-2.46,-2.36,-4.88,-4.88,-4.89
454.93,-2.37,2.52,-2.37,2.52,-2.52,-2.43,-2.37,-4.88,-4.88,-4.89
