frequency,raw,error,smoothed,error_smoothed,equalization,parametric_eq,fixed_band_eq,equalized_raw,equalized_smoothed,target
20.00,-5.03,-9.05,-5.05,-9.09,6.00,5.82,2.45,0.97,0.95,4.02
20.20,-4.90,-8.96,-4.91,-8.98,6.00,5.85,2.52,1.10,1.09,4.06
20.40,-4.78,-8.88,-4.77,-8.88,6.00,5.89,2.59,1.22,1.23,4.10
20.61,-4.65,-8.78,-4.64,-8.77,6.00,5.92,2.66,1.35,1.36,4.13
20.81,-4.52,-8.69,-4.51,-8.67,6.00,5.95,2.74,1.48,1.49,4.17
21.02,-4.40,-8.61,-4.38,-8.56,6.00,5.98,2.81,1.60,1.62,4.21
21.23,-4.26,-8.49,-4.25,-8.46,6.00,6.00,2.89,1.74,1.75,4.23
21.44,-4.13,-8.38,-4.13,-8.36,6.00,6.03,2.98,1.87,1.87,4.25
21.66,-4.00,-8.27,-4.01,-8.26,6.00,6.05,3.06,2.00,1.99,4.27
21.87,-3.87,-8.15,-3.89,-8.16,6.00,6.07,3.15,2.13,2.11,4.28
22.09,-3.75,-8.04,-3.77,-8.06,6.00,6.08,3.24,2.25,2.23,4.30
22.31,-3.64,-7.95,-3.66,-7.97,6.00,6.10,3.33,2.36,2.34,4.31
22.54,-3.54,-7.86,-3.55,-7.87,6.00,6.11,3.43,2.46,2.45,4.32
22.76,-3.44,-7.77,-3.44,-7.77,6.00,6.12,3.52,2.56,2.56,4.33
22.99,-3.33,-7.66,-3.33,-7.67,6.00,6.13,3.62,2.67,2.67,4.33
23.22,-3.24,-7.58,-3.23,-7.58,6.00,6.13,3.72,2.76,2.77,4.34
23.45,-3.14,-7.49,-3.13,-7.49,6.00,6.14,3.83,2.86,2.87,4.35
23.69,-3.05,-7.40,-3.03,-7.40,6.00,6.14,3.93,2.95,2.97,4.36
23.92,-2.95,-7.32,-2.94,-7.31,6.00,6.14,4.04,3.05,3.06,4.37
24.16,-2.85,-7.24,-2.85,-7.23,6.00,6.13,4.15,3.15,3.15,4.39
24.40,-2.75,-7.16,-2.75,-7.15,6.00,6.13,4.26,3.25,3.25,4.40
24.65,-2.65,-7.06,-2.66,-7.06,6.00,6.12,4.37,3.35,3.34,4.40
24.89,-2.55,-6.97,-2.57,-6.98,6.00,6.11,4.49,3.45,3.43,4.41
25.14,-2.46,-6.89,-2.47,-6.90,6.00,6.09,4.60,3.54,3.53,4.42
25.39,-2.38,-6.81,-2.38,-6.81,6.00,6.08,4.72,3.62,3.62,4.43
25.65,-2.29,-6.75,-2.28,-6.73,6.00,6.06,4.84,3.71,3.72,4.45
25.91,-2.21,-6.66,-2.18,-6.64,6.00,6.04,4.95,3.79,3.82,4.45
26.16,-2.12,-6.58,-2.09,-6.56,6.00,6.02,5.07,3.88,3.91,4.46
26.43,-2.02,-6.49,-2.00,-6.48,6.00,5.99,5.18,3.98,4.00,4.47
26.69,-1.92,-6.40,-1.92,-6.40,6.00,5.97,5.30,4.08,4.08,4.48
26.96,-1.82,-6.31,-1.83,-6.33,6.00,5.94,5.41,4.18,4.17,4.50
27.23,-1.73,-6.23,-1.75,-6.25,6.00,5.91,5.52,4.27,4.25,4.51
27.50,-1.64,-6.16,-1.67,-6.18,5.99,5.88,5.62,4.35,4.32,4.52
27.77,-1.55,-6.07,-1.59,-6.11,5.97,5.84,5.73,4.42,4.39,4.52
28.05,-1.47,-6.01,-1.50,-6.03,5.94,5.81,5.83,4.47,4.44,4.54
28.33,-1.42,-5.96,-1.42,-5.96,5.90,5.77,5.92,4.49,4.48,4.54
28.62,-1.37,-5.91,-1.34,-5.89,5.86,5.73,6.01,4.49,4.51,4.54
28.90,-1.32,-5.87,-1.27,-5.82,5.81,5.69,6.09,4.49,4.54,4.55
29.19,-1.24,-5.79,-1.19,-5.75,5.75,5.65,6.16,4.51,4.56,4.55
29.48,-1.14,-5.72,-1.12,-5.69,5.69,5.61,6.23,4.55,4.57,4.58
29.78,-1.04,-5.62,-1.04,-5.62,5.62,5.56,6.29,4.58,4.58,4.58
30.08,-0.95,-5.54,-0.97,-5.56,5.56,5.52,6.34,4.60,4.59,4.59
30.38,-0.88,-5.47,-0.90,-5.49,5.49,5.47,6.38,4.61,4.59,4.59
30.68,-0.81,-5.41,-0.82,-5.42,5.42,5.43,6.41,4.62,4.60,4.61
30.99,-0.73,-5.34,-0.75,-5.36,5.36,5.38,6.43,4.63,4.61,4.61
31.30,-0.67,-5.29,-0.68,-5.30,5.30,5.33,6.44,4.63,4.62,4.62
31.61,-0.61,-5.23,-0.61,-5.23,5.23,5.28,6.44,4.62,4.63,4.62
31.93,-0.54,-5.18,-0.54,-5.17,5.17,5.23,6.43,4.63,4.63,4.63
32.24,-0.48,-5.11,-0.47,-5.11,5.11,5.18,6.41,4.64,4.64,4.63
32.57,-0.41,-5.06,-0.41,-5.06,5.06,5.13,6.39,4.65,4.65,4.65
32.89,-0.34,-5.00,-0.35,-5.01,5.01,5.08,6.35,4.67,4.66,4.66
33.22,-0.29,-4.95,-0.30,-4.96,4.96,5.03,6.31,4.67,4.67,4.67
33.55,-0.24,-4.91,-0.24,-4.91,4.91,4.98,6.25,4.67,4.67,4.68
33.89,-0.19,-4.87,-0.17,-4.85,4.85,4.92,6.20,4.67,4.68,4.68
34.23,-0.13,-4.82,-0.12,-4.80,4.80,4.87,6.13,4.67,4.69,4.69
34.57,-0.07,-4.77,-0.06,-4.76,4.76,4.82,6.06,4.69,4.70,4.70
34.92,-0.01,-4.71,-0.01,-4.71,4.71,4.77,5.99,4.70,4.70,4.70
35.27,0.04,-4.67,0.04,-4.67,4.67,4.71,5.91,4.71,4.71,4.71
35.62,0.09,-4.62,0.09,-4.63,4.63,4.66,5.83,4.72,4.71,4.71
35.97,0.15,-4.57,0.14,-4.58,4.58,4.61,5.74,4.72,4.72,4.71
36.33,0.21,-4.51,0.19,-4.53,4.53,4.56,5.65,4.74,4.72,4.72
36.70,0.27,-4.45,0.24,-4.48,4.48,4.51,5.56,4.75,4.72,4.72
37.06,0.32,-4.41,0.29,-4.43,4.43,4.45,5.48,4.75,4.72,4.73
37.43,0.32,-4.41,0.33,-4.39,4.39,4.40,5.39,4.71,4.72,4.73
37.81,0.32,-4.41,0.38,-4.35,4.35,4.35,5.30,4.67,4.72,4.73
38.19,0.37,-4.36,0.42,-4.31,4.31,4.30,5.21,4.67,4.72,4.73
38.57,0.46,-4.26,0.46,-4.26,4.26,4.25,5.12,4.72,4.72,4.73
38.95,0.56,-4.16,0.51,-4.21,4.21,4.20,5.03,4.77,4.72,4.72
39.34,0.60,-4.12,0.56,-4.16,4.16,4.15,4.95,4.76,4.72,4.72
39.74,0.63,-4.09,0.60,-4.12,4.12,4.10,4.86,4.75,4.72,4.72
40.14,0.65,-4.07,0.64,-4.08,4.08,4.06,4.78,4.73,4.72,4.72
40.54,0.65,-4.07,0.68,-4.04,4.04,4.01,4.71,4.69,4.72,4.72
40.94,0.65,-4.07,0.72,-4.00,4.00,3.96,4.63,4.65,4.72,4.72
41.35,0.75,-3.97,0.77,-3.95,3.95,3.92,4.56,4.69,4.72,4.71
41.76,0.86,-3.86,0.83,-3.89,3.89,3.87,4.49,4.75,4.72,4.72
42.18,0.93,-3.80,0.88,-3.84,3.84,3.83,4.42,4.76,4.72,4.72
42.60,0.95,-3.77,0.93,-3.78,3.78,3.79,4.36,4.74,4.72,4.72
43.03,0.97,-3.76,0.98,-3.74,3.74,3.74,4.29,4.71,4.72,4.73
43.46,0.97,-3.75,1.03,-3.69,3.69,3.70,4.24,4.66,4.72,4.72
43.90,0.97,-3.74,1.07,-3.64,3.64,3.66,4.18,4.61,4.72,4.71
44.33,1.08,-3.63,1.11,-3.60,3.60,3.62,4.13,4.68,4.72,4.71
44.78,1.23,-3.48,1.15,-3.57,3.57,3.59,4.08,4.79,4.72,4.71
45.23,1.30,-3.40,1.19,-3.53,3.53,3.55,4.04,4.83,4.71,4.70
45.68,1.30,-3.41,1.22,-3.49,3.49,3.51,4.00,4.79,4.71,4.71
46.13,1.30,-3.40,1.25,-3.46,3.46,3.48,3.96,4.76,4.71,4.70
46.60,1.30,-3.42,1.28,-3.43,3.43,3.44,3.92,4.73,4.71,4.72
47.06,1.30,-3.41,1.32,-3.39,3.39,3.41,3.89,4.69,4.71,4.71
47.53,1.30,-3.40,1.36,-3.34,3.34,3.38,3.86,4.64,4.70,4.70
48.01,1.30,-3.42,1.39,-3.30,3.30,3.35,3.83,4.60,4.70,4.72
48.49,1.33,-3.37,1.43,-3.26,3.26,3.32,3.81,4.59,4.69,4.70
48.97,1.36,-3.33,1.46,-3.23,3.23,3.29,3.79,4.59,4.69,4.68
49.46,1.47,-3.21,1.48,-3.20,3.20,3.27,3.77,4.67,4.68,4.68
49.96,1.58,-3.08,1.50,-3.17,3.17,3.25,3.75,4.75,4.67,4.66
50.46,1.60,-3.06,1.52,-3.14,3.14,3.22,3.74,4.74,4.66,4.66
50.96,1.62,-3.04,1.55,-3.10,3.10,3.20,3.72,4.72,4.65,4.65
51.47,1.62,-3.01,1.58,-3.06,3.06,3.18,3.71,4.68,4.64,4.63
51.99,1.62,-3.00,1.61,-3.01,3.01,3.16,3.70,4.63,4.63,4.62
52.51,1.62,-3.00,1.64,-2.98,2.98,3.15,3.70,4.60,4.61,4.62
53.03,1.62,-2.98,1.65,-2.94,2.94,3.13,3.69,4.56,4.60,4.60
53.56,1.62,-2.97,1.66,-2.92,2.92,3.12,3.68,4.54,4.58,4.59
54.10,1.62,-2.95,1.65,-2.92,2.92,3.11,3.68,4.54,4.57,4.57
54.64,1.62,-2.94,1.63,-2.93,2.93,3.10,3.67,4.55,4.56,4.56
55.18,1.62,-2.92,1.60,-2.94,2.94,3.09,3.66,4.56,4.54,4.54
55.74,1.62,-2.90,1.58,-2.95,2.95,3.09,3.66,4.57,4.53,4.52
56.29,1.62,-2.90,1.55,-2.96,2.96,3.08,3.65,4.58,4.52,4.52
56.86,1.62,-2.88,1.53,-2.97,2.97,3.08,3.64,4.59,4.50,4.50
57.42,1.54,-2.93,1.51,-2.98,2.98,3.08,3.63,4.52,4.49,4.47
58.00,1.44,-3.02,1.48,-2.99,2.99,3.09,3.62,4.43,4.47,4.46
58.58,1.36,-3.09,1.45,-3.00,3.00,3.09,3.61,4.36,4.45,4.45
59.16,1.30,-3.14,1.41,-3.02,3.02,3.10,3.60,4.32,4.43,4.44
59.76,1.30,-3.12,1.37,-3.04,3.04,3.11,3.58,4.34,4.41,4.42
60.35,1.30,-3.10,1.33,-3.06,3.06,3.12,3.56,4.36,4.39,4.40
60.96,1.30,-3.07,1.28,-3.09,3.09,3.13,3.54,4.39,4.36,4.37
61.57,1.30,-3.04,1.22,-3.12,3.12,3.15,3.51,4.42,4.34,4.34
62.18,1.27,-3.03,1.17,-3.15,3.15,3.17,3.48,4.42,4.31,4.30
62.80,1.18,-3.11,1.11,-3.17,3.17,3.18,3.45,4.35,4.29,4.29
63.43,1.07,-3.18,1.06,-3.20,3.20,3.20,3.42,4.27,4.26,4.25
64.07,0.97,-3.26,1.01,-3.22,3.22,3.23,3.38,4.19,4.23,4.22
64.71,0.96,-3.23,0.96,-3.24,3.24,3.25,3.34,4.21,4.20,4.20
65.35,0.90,-3.27,0.89,-3.28,3.28,3.27,3.30,4.18,4.17,4.17
66.01,0.79,-3.35,0.82,-3.32,3.32,3.30,3.25,4.11,4.14,4.14
66.67,0.70,-3.43,0.75,-3.36,3.36,3.33,3.21,4.06,4.11,4.12
67.33,0.65,-3.44,0.68,-3.41,3.41,3.35,3.16,4.06,4.08,4.09
68.01,0.65,-3.41,0.61,-3.44,3.44,3.38,3.10,4.09,4.06,4.06
68.69,0.62,-3.41,0.55,-3.48,3.48,3.40,3.05,4.10,4.03,4.03
69.37,0.55,-3.45,0.50,-3.50,3.50,3.43,2.99,4.05,4.00,4.00
70.07,0.44,-3.53,0.46,-3.52,3.52,3.45,2.93,3.96,3.97,3.97
70.77,0.35,-3.60,0.41,-3.53,3.53,3.47,2.87,3.88,3.95,3.95
71.48,0.32,-3.60,0.37,-3.54,3.54,3.49,2.81,3.86,3.92,3.92
72.19,0.32,-3.57,0.34,-3.56,3.56,3.51,2.75,3.88,3.89,3.89
72.91,0.32,-3.54,0.32,-3.55,3.55,3.52,2.69,3.87,3.87,3.86
73.64,0.32,-3.52,0.31,-3.54,3.54,3.53,2.62,3.86,3.84,3.84
74.38,0.32,-3.50,0.31,-3.51,3.51,3.53,2.56,3.83,3.82,3.82
75.12,0.32,-3.48,0.31,-3.49,3.49,3.53,2.50,3.81,3.80,3.80
75.87,0.32,-3.46,0.31,-3.47,3.47,3.52,2.43,3.79,3.78,3.78
76.63,0.32,-3.44,0.33,-3.43,3.43,3.51,2.37,3.75,3.77,3.76
77.40,0.32,-3.43,0.37,-3.38,3.38,3.49,2.31,3.70,3.75,3.75
78.17,0.34,-3.39,0.41,-3.32,3.32,3.46,2.25,3.66,3.73,3.73
78.95,0.43,-3.29,0.46,-3.26,3.26,3.43,2.18,3.68,3.72,3.72
79.74,0.53,-3.18,0.51,-3.20,3.20,3.39,2.12,3.73,3.71,3.71
80.54,0.61,-3.09,0.56,-3.13,3.13,3.34,2.06,3.75,3.70,3.70
81.35,0.65,-3.04,0.61,-3.07,3.07,3.29,2.00,3.72,3.69,3.69
82.16,0.65,-3.03,0.66,-3.02,3.02,3.23,1.95,3.67,3.68,3.68
82.98,0.66,-3.02,0.71,-2.97,2.97,3.17,1.89,3.63,3.67,3.68
83.81,0.77,-2.89,0.76,-2.91,2.91,3.10,1.83,3.68,3.67,3.66
84.65,0.88,-2.77,0.81,-2.85,2.85,3.03,1.78,3.73,3.66,3.65
85.50,0.95,-2.71,0.86,-2.79,2.79,2.95,1.72,3.74,3.66,3.66
86.35,0.97,-2.68,0.91,-2.74,2.74,2.87,1.67,3.71,3.65,3.65
87.22,0.97,-2.68,0.95,-2.70,2.70,2.79,1.62,3.67,3.65,3.65
88.09,0.97,-2.67,1.00,-2.65,2.65,2.71,1.57,3.62,3.65,3.64
88.97,0.97,-2.68,1.04,-2.61,2.61,2.62,1.52,3.58,3.65,3.65
89.86,0.97,-2.68,1.09,-2.56,2.56,2.53,1.47,3.53,3.65,3.65
90.76,1.10,-2.54,1.14,-2.51,2.51,2.44,1.43,3.60,3.64,3.64
91.66,1.25,-2.39,1.19,-2.45,2.45,2.35,1.38,3.69,3.64,3.64
92.58,1.30,-2.33,1.25,-2.39,2.39,2.26,1.34,3.69,3.64,3.63
93.51,1.30,-2.35,1.31,-2.33,2.33,2.17,1.29,3.63,3.64,3.65
94.44,1.34,-2.30,1.36,-2.27,2.27,2.08,1.25,3.61,3.63,3.64
95.39,1.43,-2.21,1.43,-2.20,2.20,2.00,1.21,3.63,3.63,3.64
96.34,1.54,-2.09,1.50,-2.12,2.12,1.91,1.17,3.66,3.62,3.62
97.30,1.61,-2.00,1.58,-2.04,2.04,1.82,1.13,3.65,3.62,3.61
98.28,1.64,-1.97,1.66,-1.95,1.95,1.74,1.09,3.59,3.61,3.61
99.26,1.71,-1.89,1.74,-1.86,1.86,1.65,1.05,3.57,3.60,3.60
100.25,1.82,-1.77,1.81,-1.78,1.78,1.57,1.02,3.60,3.59,3.59
101.25,1.92,-1.66,1.89,-1.69,1.69,1.49,0.98,3.61,3.58,3.58
102.27,1.97,-1.59,1.97,-1.59,1.59,1.41,0.95,3.56,3.56,3.56
103.29,2.03,-1.51,2.07,-1.48,1.48,1.33,0.91,3.51,3.54,3.54
104.32,2.11,-1.42,2.17,-1.36,1.36,1.26,0.88,3.47,3.52,3.53
105.37,2.22,-1.29,2.27,-1.24,1.24,1.18,0.84,3.46,3.50,3.51
106.42,2.34,-1.15,2.36,-1.12,1.12,1.11,0.81,3.46,3.48,3.48
107.48,2.45,-1.01,2.45,-1.00,1.00,1.03,0.78,3.45,3.45,3.46
108.56,2.55,-0.87,2.53,-0.89,0.89,0.96,0.75,3.44,3.42,3.42
109.64,2.59,-0.80,2.61,-0.78,0.78,0.89,0.71,3.37,3.39,3.39
110.74,2.67,-0.69,2.67,-0.68,0.68,0.83,0.68,3.35,3.36,3.36
111.85,2.88,-0.45,2.74,-0.58,0.58,0.76,0.65,3.46,3.32,3.33
112.97,2.92,-0.36,2.80,-0.48,0.48,0.69,0.62,3.40,3.28,3.28
114.10,2.92,-0.33,2.86,-0.38,0.38,0.63,0.59,3.30,3.24,3.25
115.24,2.92,-0.28,2.92,-0.29,0.29,0.57,0.55,3.21,3.20,3.20
116.39,2.92,-0.23,2.96,-0.20,0.20,0.50,0.52,3.12,3.16,3.15
117.55,2.92,-0.19,3.00,-0.12,0.12,0.44,0.49,3.04,3.12,3.11
118.73,2.92,-0.15,3.02,-0.06,0.06,0.38,0.46,2.98,3.08,3.07
119.92,2.92,-0.12,3.04,-0.00,0.00,0.32,0.42,2.92,3.04,3.04
121.12,2.98,-0.01,3.04,0.04,-0.04,0.27,0.39,2.94,3.00,2.99
122.33,3.10,0.14,3.05,0.08,-0.08,0.21,0.36,3.01,2.96,2.96
123.55,3.20,0.27,3.04,0.11,-0.11,0.15,0.32,3.09,2.93,2.93
124.79,3.16,0.27,3.03,0.14,-0.14,0.09,0.29,3.02,2.89,2.90
126.03,3.08,0.22,3.03,0.17,-0.17,0.04,0.25,2.91,2.86,2.86
127.29,3.05,0.23,3.02,0.20,-0.20,-0.02,0.21,2.86,2.82,2.83
128.57,2.99,0.21,3.01,0.22,-0.22,-0.07,0.18,2.77,2.79,2.78
129.85,2.92,0.17,3.00,0.24,-0.24,-0.13,0.14,2.68,2.76,2.76
131.15,2.92,0.19,2.99,0.25,-0.25,-0.18,0.10,2.67,2.73,2.73
132.46,2.92,0.22,2.96,0.26,-0.26,-0.24,0.06,2.66,2.70,2.70
133.79,2.92,0.24,2.94,0.26,-0.26,-0.29,0.02,2.66,2.68,2.68
135.12,2.92,0.27,2.91,0.26,-0.26,-0.34,-0.02,2.66,2.65,2.65
136.48,2.92,0.29,2.90,0.27,-0.27,-0.40,-0.06,2.65,2.63,2.63
137.84,2.92,0.32,2.90,0.30,-0.30,-0.45,-0.10,2.62,2.60,2.60
139.22,2.92,0.35,2.91,0.33,-0.33,-0.50,-0.14,2.59,2.58,2.57
140.61,2.92,0.38,2.93,0.38,-0.38,-0.56,-0.19,2.54,2.55,2.54
142.02,2.92,0.39,2.95,0.42,-0.42,-0.61,-0.23,2.50,2.53,2.53
143.44,2.92,0.41,2.98,0.47,-0.47,-0.66,-0.28,2.45,2.51,2.51
144.87,2.92,0.43,3.00,0.52,-0.52,-0.72,-0.32,2.40,2.48,2.49
146.32,3.01,0.55,3.04,0.58,-0.58,-0.77,-0.37,2.43,2.46,2.46
147.78,3.12,0.68,3.08,0.65,-0.65,-0.82,-0.42,2.47,2.43,2.44
149.26,3.20,0.79,3.12,0.72,-0.72,-0.87,-0.47,2.49,2.40,2.42
150.75,3.24,0.87,3.16,0.79,-0.79,-0.93,-0.52,2.45,2.38,2.37
152.26,3.24,0.89,3.21,0.86,-0.86,-0.98,-0.57,2.38,2.35,2.35
153.78,3.24,0.92,3.26,0.94,-0.94,-1.03,-0.62,2.30,2.32,2.32
155.32,3.25,0.97,3.31,1.02,-1.02,-1.09,-0.67,2.22,2.29,2.28
156.88,3.31,1.05,3.37,1.12,-1.12,-1.14,-0.72,2.19,2.26,2.26
158.44,3.42,1.19,3.43,1.21,-1.21,-1.20,-0.78,2.21,2.22,2.23
160.03,3.53,1.35,3.49,1.30,-1.30,-1.25,-0.83,2.23,2.19,2.19
161.63,3.56,1.42,3.55,1.39,-1.39,-1.31,-0.89,2.17,2.15,2.14
163.24,3.57,1.46,3.60,1.48,-1.48,-1.36,-0.94,2.09,2.12,2.11
164.88,3.57,1.49,3.65,1.56,-1.56,-1.42,-1.00,2.01,2.08,2.08
166.53,3.66,1.62,3.69,1.65,-1.65,-1.47,-1.06,2.01,2.04,2.04
168.19,3.77,1.77,3.74,1.74,-1.74,-1.53,-1.12,2.04,2.01,2.01
169.87,3.88,1.91,3.79,1.82,-1.82,-1.58,-1.18,2.06,1.97,1.97
171.57,3.89,1.96,3.82,1.90,-1.90,-1.64,-1.25,1.99,1.92,1.93
173.29,3.89,2.01,3.85,1.97,-1.97,-1.69,-1.31,1.92,1.88,1.88
175.02,3.89,2.04,3.87,2.04,-2.04,-1.75,-1.37,1.85,1.84,1.85
176.77,3.89,2.10,3.89,2.09,-2.09,-1.81,-1.44,1.80,1.79,1.79
178.54,3.89,2.15,3.90,2.15,-2.15,-1.86,-1.51,1.74,1.75,1.74
180.32,3.89,2.19,3.91,2.21,-2.21,-1.92,-1.58,1.68,1.70,1.70
182.13,3.89,2.23,3.91,2.26,-2.26,-1.98,-1.65,1.63,1.65,1.66
183.95,3.89,2.29,3.91,2.31,-2.31,-2.03,-1.72,1.58,1.60,1.60
185.79,3.89,2.33,3.90,2.35,-2.35,-2.09,-1.79,1.54,1.55,1.56
187.65,3.89,2.40,3.90,2.39,-2.39,-2.14,-1.86,1.50,1.51,1.49
189.52,3.89,2.44,3.89,2.43,-2.43,-2.20,-1.93,1.46,1.46,1.45
191.42,3.89,2.48,3.89,2.48,-2.48,-2.26,-2.01,1.41,1.41,1.41
193.33,3.89,2.52,3.89,2.53,-2.53,-2.31,-2.08,1.36,1.36,1.37
195.27,3.89,2.57,3.89,2.57,-2.57,-2.37,-2.16,1.32,1.32,1.32
197.22,3.89,2.62,3.89,2.62,-2.62,-2.42,-2.24,1.27,1.27,1.27
199.19,3.89,2.67,3.89,2.66,-2.66,-2.48,-2.32,1.23,1.23,1.22
201.18,3.89,2.71,3.89,2.70,-2.70,-2.53,-2.39,1.19,1.19,1.18
203.19,3.89,2.74,3.89,2.74,-2.74,-2.58,-2.47,1.15,1.15,1.15
205.23,3.89,2.79,3.89,2.78,-2.78,-2.63,-2.55,1.11,1.11,1.10
207.28,3.89,2.81,3.89,2.82,-2.82,-2.68,-2.63,1.07,1.07,1.08
209.35,3.89,2.86,3.89,2.86,-2.86,-2.73,-2.70,1.03,1.03,1.03
211.44,3.89,2.91,3.89,2.90,-2.90,-2.78,-2.78,0.99,0.99,0.98
213.56,3.89,2.93,3.89,2.93,-2.93,-2.83,-2.86,0.96,0.96,0.96
215.69,3.89,2.95,3.89,2.96,-2.96,-2.88,-2.93,0.93,0.93,0.94
217.85,3.89,2.99,3.89,2.99,-2.99,-2.92,-3.00,0.90,0.90,0.90
220.03,3.89,3.03,3.89,3.02,-3.02,-2.96,-3.07,0.87,0.87,0.86
222.23,3.89,3.06,3.89,3.05,-3.05,-3.00,-3.14,0.84,0.84,0.83
224.45,3.89,3.07,3.89,3.07,-3.07,-3.04,-3.20,0.82,0.82,0.82
226.70,3.89,3.09,3.89,3.09,-3.09,-3.08,-3.27,0.80,0.80,0.80
228.96,3.89,3.12,3.89,3.11,-3.11,-3.11,-3.32,0.78,0.78,0.77
231.25,3.89,3.12,3.89,3.13,-3.13,-3.15,-3.38,0.76,0.76,0.77
233.57,3.89,3.14,3.89,3.14,-3.14,-3.18,-3.43,0.75,0.75,0.75
235.90,3.89,3.16,3.89,3.15,-3.15,-3.21,-3.47,0.74,0.74,0.73
238.26,3.89,3.16,3.89,3.16,-3.16,-3.23,-3.51,0.73,0.73,0.73
240.64,3.89,3.17,3.89,3.16,-3.16,-3.26,-3.55,0.73,0.73,0.72
243.05,3.89,3.16,3.89,3.17,-3.17,-3.28,-3.58,0.72,0.72,0.73
245.48,3.89,3.17,3.89,3.16,-3.16,-3.29,-3.60,0.73,0.73,0.72
247.93,3.89,3.16,3.89,3.16,-3.16,-3.31,-3.62,0.73,0.73,0.73
250.41,3.89,3.17,3.89,3.16,-3.16,-3.32,-3.63,0.73,0.73,0.72
252.92,3.89,3.15,3.89,3.15,-3.15,-3.33,-3.64,0.74,0.74,0.74
255.45,3.89,3.14,3.89,3.14,-3.14,-3.34,-3.64,0.75,0.75,0.75
258.00,3.89,3.13,3.89,3.13,-3.13,-3.34,-3.63,0.76,0.76,0.76
260.58,3.89,3.12,3.89,3.12,-3.12,-3.34,-3.62,0.77,0.77,0.77
263.19,3.89,3.11,3.89,3.11,-3.11,-3.34,-3.61,0.78,0.78,0.78
265.82,3.89,3.10,3.89,3.09,-3.09,-3.34,-3.59,0.80,0.80,0.79
268.48,3.89,3.08,3.89,3.08,-3.08,-3.33,-3.56,0.81,0.81,0.81
271.16,3.89,3.06,3.89,3.06,-3.06,-3.32,-3.53,0.83,0.83,0.83
273.87,3.89,3.05,3.89,3.05,-3.05,-3.31,-3.50,0.84,0.84,0.84
276.61,3.89,3.03,3.89,3.03,-3.03,-3.30,-3.46,0.86,0.86,0.86
279.38,3.89,3.02,3.89,3.02,-3.02,-3.28,-3.42,0.87,0.87,0.87
282.17,3.89,3.00,3.89,3.00,-3.00,-3.26,-3.37,0.89,0.89,0.89
284.99,3.89,2.98,3.89,2.99,-2.99,-3.24,-3.33,0.90,0.90,0.91
287.84,3.89,2.98,3.89,2.97,-2.97,-3.22,-3.28,0.92,0.92,0.91
290.72,3.89,2.96,3.89,2.96,-2.96,-3.19,-3.23,0.93,0.93,0.93
293.63,3.89,2.94,3.89,2.94,-2.94,-3.17,-3.18,0.95,0.95,0.95
296.57,3.89,2.93,3.89,2.93,-2.93,-3.14,-3.13,0.96,0.96,0.96
299.53,3.89,2.92,3.89,2.91,-2.91,-3.11,-3.07,0.98,0.98,0.97
302.53,3.89,2.91,3.89,2.90,-2.90,-3.08,-3.02,0.99,0.99,0.98
305.55,3.89,2.88,3.89,2.89,-2.89,-3.04,-2.97,1.00,1.00,1.01
308.61,3.89,2.87,3.90,2.89,-2.89,-3.01,-2.91,1.00,1.01,1.02
311.69,3.89,2.87,3.91,2.88,-2.88,-2.98,-2.86,1.01,1.03,1.02
314.81,3.89,2.84,3.91,2.88,-2.88,-2.94,-2.81,1.01,1.04,1.05
317.96,3.89,2.84,3.91,2.86,-2.86,-2.90,-2.76,1.03,1.05,1.05
321.14,3.89,2.83,3.90,2.84,-2.84,-2.87,-2.71,1.05,1.06,1.06
324.35,3.89,2.83,3.88,2.82,-2.82,-2.83,-2.66,1.07,1.06,1.06
327.59,3.89,2.82,3.86,2.79,-2.79,-2.79,-2.62,1.10,1.07,1.07
330.87,3.89,2.82,3.84,2.76,-2.76,-2.76,-2.57,1.13,1.08,1.07
334.18,3.89,2.82,3.81,2.73,-2.73,-2.72,-2.53,1.16,1.08,1.07
337.52,3.89,2.81,3.79,2.71,-2.71,-2.68,-2.48,1.18,1.08,1.08
340.90,3.81,2.72,3.77,2.68,-2.68,-2.64,-2.44,1.13,1.08,1.09
344.30,3.70,2.62,3.74,2.66,-2.66,-2.60,-2.40,1.04,1.08,1.09
347.75,3.60,2.52,3.72,2.63,-2.63,-2.57,-2.37,0.97,1.08,1.09
351.23,3.57,2.49,3.68,2.60,-2.60,-2.53,-2.33,0.97,1.08,1.08
354.74,3.57,2.49,3.64,2.57,-2.57,-2.49,-2.30,1.00,1.08,1.08
358.28,3.57,2.50,3.60,2.53,-2.53,-2.46,-2.27,1.04,1.08,1.07
361.87,3.57,2.50,3.56,2.49,-2.49,-2.42,-2.24,1.08,1.07,1.07
365.49,3.57,2.50,3.52,2.45,-2.45,-2.39,-2.21,1.12,1.07,1.07
369.14,3.57,2.51,3.48,2.42,-2.42,-2.35,-2.18,1.15,1.06,1.06
372.83,3.57,2.51,3.45,2.39,-2.39,-2.32,-2.16,1.18,1.06,1.06
376.56,3.50,2.45,3.42,2.37,-2.37,-2.29,-2.14,1.13,1.05,1.05
380.33,3.39,2.34,3.40,2.36,-2.36,-2.26,-2.12,1.03,1.04,1.05
384.13,3.28,2.24,3.38,2.35,-2.35,-2.23,-2.10,0.93,1.04,1.04
387.97,3.24,2.22,3.36,2.33,-2.33,-2.20,-2.08,0.92,1.03,1.02
391.85,3.24,2.23,3.32,2.30,-2.30,-2.17,-2.06,0.94,1.02,1.01
395.77,3.24,2.22,3.28,2.26,-2.26,-2.14,-2.05,0.98,1.02,1.02
399.73,3.24,2.23,3.24,2.23,-2.23,-2.12,-2.04,1.01,1.01,1.01
403.72,3.24,2.24,3.19,2.19,-2.19,-2.09,-2.02,1.05,1.00,1.00
407.76,3.24,2.25,3.15,2.16,-2.16,-2.07,-2.01,1.08,1.00,0.99
411.84,3.24,2.24,3.12,2.12,-2.12,-2.05,-2.00,1.12,0.99,1.00
415.96,3.18,2.19,3.09,2.10,-2.10,-2.02,-1.99,1.08,0.99,0.99
420.12,3.07,2.09,3.07,2.08,-2.08,-2.00,-1.98,0.99,0.99,0.99
424.32,2.97,1.98,3.05,2.07,-2.07,-1.98,-1.97,0.90,0.98,0.99
428.56,2.93,1.95,3.04,2.06,-2.06,-1.96,-1.97,0.87,0.98,0.98
432.85,2.92,1.94,3.01,2.03,-2.03,-1.94,-1.96,0.89,0.98,0.98
437.18,2.92,1.94,2.98,2.00,-2.00,-1.93,-1.95,0.92,0.98,0.98
441.55,2.92,1.93,2.95,1.97,-1.97,-1.91,-1.94,0.95,0.98,0.99
445.96,2.92,1.93,2.91,1.93,-1.93,-1.89,-1.93,0.99,0.98,0.99
450.42,2.92,1.94,2.88,1.89,-1.89,-1.87,-1.92,1.03,0.98,0.98
454.93,2.92,1.94,2.84,1.85,-1.85,-1.86,-1.91,1.07,0.99,0.98
459.48,2.92,1.94,2.81,1.82,-1.82,-1.84,-1.90,1.10,0.99,0.98
464.07,2.91,1.92,2.79,1.79,-1.79,-1.83,-1.89,1.12,0.99,0.99
468.71,2.81,1.81,2.76,1.76,-1.76,-1.81,-1.88,1.05,1.00,1.00
473.40,2.70,1.70,2.74,1.73,-1.73,-1.79,-1.86,0.97,1.00,1.00
478.13,2.61,1.59,2.71,1.70,-1.70,-1.77,-1.85,0.90,1.01,1.01
482.91,2.59,1.58,2.69,1.68,-1.68,-1.75,-1.83,0.91,1.02,1.01
487.74,2.59,1.57,2.67,1.65,-1.65,-1.73,-1.81,0.94,1.02,1.02
492.62,2.59,1.56,2.65,1.62,-1.62,-1.71,-1.79,0.97,1.03,1.03
497.55,2.59,1.56,2.62,1.59,-1.59,-1.69,-1.76,1.00,1.03,1.03
502.52,2.59,1.55,2.59,1.55,-1.55,-1.67,-1.74,1.04,1.04,1.04
507.55,2.59,1.55,2.56,1.52,-1.52,-1.64,-1.71,1.07,1.04,1.04
512.62,2.59,1.55,2.54,1.49,-1.49,-1.62,-1.68,1.10,1.04,1.04
517.75,2.59,1.54,2.51,1.47,-1.47,-1.59,-1.65,1.12,1.05,1.05
522.93,2.59,1.54,2.49,1.44,-1.44,-1.55,-1.62,1.15,1.05,1.05
528.16,2.58,1.53,2.48,1.43,-1.43,-1.52,-1.58,1.15,1.05,1.05
533.44,2.49,1.44,2.46,1.41,-1.41,-1.49,-1.54,1.08,1.05,1.05
538.77,2.38,1.33,2.43,1.38,-1.38,-1.45,-1.50,1.00,1.05,1.05
544.16,2.28,1.23,2.40,1.36,-1.36,-1.41,-1.46,0.93,1.05,1.05
549.60,2.27,1.22,2.37,1.33,-1.33,-1.37,-1.42,0.94,1.04,1.05
555.10,2.27,1.23,2.34,1.30,-1.30,-1.33,-1.37,0.97,1.04,1.04
