frequency,raw,error,smoothed,error_smoothed,equalization,parametric_eq,equalized_raw,equalized_smoothed,target
20,-31.49,-29.69,-31.68,-29.88,6.00,4.76,-25.49,-25.68,-1.80
21,-30.16,-28.32,-30.14,-28.30,6.00,5.06,-24.16,-24.14,-1.84
22,-28.90,-27.02,-28.65,-26.77,6.00,5.35,-22.90,-22.65,-1.88
23,-27.34,-25.43,-27.22,-25.30,6.00,5.62,-21.34,-21.22,-1.92
24,-25.87,-23.92,-25.83,-23.88,6.00,5.86,-19.87,-19.83,-1.95
25,-24.48,-22.50,-24.49,-22.50,6.00,6.08,-18.48,-18.49,-1.99
26,-23.14,-21.12,-23.21,-21.18,6.00,6.26,-17.14,-17.21,-2.02
27,-21.89,-19.84,-21.98,-19.92,6.00,6.42,-15.89,-15.98,-2.06
28,-20.75,-18.66,-20.80,-18.71,6.00,6.54,-14.75,-14.80,-2.09
29,-19.67,-17.55,-19.69,-17.56,6.00,6.62,-13.67,-13.69,-2.12
30,-18.66,-16.51,-18.63,-16.47,6.00,6.67,-12.66,-12.63,-2.16
31,-17.63,-15.45,-17.62,-15.43,6.00,6.68,-11.63,-11.62,-2.19
32,-16.68,-14.47,-16.67,-14.45,6.00,6.65,-10.68,-10.67,-2.22
33,-15.77,-13.53,-15.76,-13.52,6.00,6.59,-9.77,-9.76,-2.25
34,-14.90,-12.63,-14.91,-12.63,6.00,6.50,-8.90,-8.91,-2.28
35,-14.07,-11.77,-14.09,-11.79,6.00,6.39,-8.07,-8.09,-2.30
36,-13.31,-10.98,-13.32,-10.99,6.00,6.25,-7.31,-7.32,-2.33
37,-12.57,-10.22,-12.59,-10.23,6.00,6.08,-6.57,-6.59,-2.36
38,-11.93,-9.55,-11.90,-9.52,6.00,5.90,-5.93,-5.90,-2.38
39,-11.24,-8.84,-11.25,-8.84,6.00,5.71,-5.24,-5.25,-2.41
40,-10.61,-8.18,-10.63,-8.20,6.00,5.50,-4.61,-4.63,-2.43
41,-10.04,-7.59,-10.04,-7.59,6.00,5.28,-4.04,-4.04,-2.45
42,-9.49,-7.02,-9.49,-7.02,5.93,5.06,-3.56,-3.56,-2.47
43,-8.99,-6.50,-8.97,-6.48,5.79,4.83,-3.21,-3.18,-2.49
44,-8.49,-5.99,-8.48,-5.97,5.57,4.59,-2.93,-2.91,-2.51
45,-7.98,-5.46,-8.01,-5.49,5.30,4.36,-2.69,-2.71,-2.53
46,-7.56,-5.02,-7.57,-5.03,4.97,4.12,-2.59,-2.60,-2.54
47,-7.13,-4.58,-7.16,-4.61,4.61,3.88,-2.53,-2.55,-2.55
48,-6.75,-4.19,-6.77,-4.21,4.21,3.65,-2.55,-2.56,-2.56
49,-6.40,-3.83,-6.40,-3.83,3.83,3.41,-2.57,-2.57,-2.57
50,-6.06,-3.49,-6.05,-3.47,3.47,3.18,-2.59,-2.58,-2.58
51,-5.74,-3.16,-5.72,-3.13,3.13,2.95,-2.61,-2.58,-2.58
52,-5.41,-2.83,-5.39,-2.81,2.81,2.72,-2.61,-2.59,-2.59
53,-5.09,-2.51,-5.08,-2.49,2.49,2.50,-2.61,-2.59,-2.59
54,-4.78,-2.20,-4.77,-2.19,2.19,2.28,-2.60,-2.59,-2.59
55,-4.47,-1.89,-4.47,-1.89,1.89,2.06,-2.58,-2.58,-2.58
56,-4.17,-1.60,-4.19,-1.61,1.61,1.85,-2.56,-2.58,-2.58
57,-3.87,-1.31,-3.91,-1.34,1.34,1.64,-2.53,-2.57,-2.57
58,-3.62,-1.07,-3.65,-1.09,1.09,1.43,-2.54,-2.56,-2.56
59,-3.41,-0.87,-3.39,-0.85,0.85,1.23,-2.57,-2.55,-2.55
60,-3.16,-0.63,-3.15,-0.62,0.62,1.03,-2.55,-2.53,-2.53
61,-2.91,-0.40,-2.92,-0.40,0.40,0.84,-2.51,-2.52,-2.52
62,-2.68,-0.19,-2.70,-0.20,0.20,0.65,-2.49,-2.50,-2.50
63,-2.48,-0.01,-2.48,-0.01,0.01,0.46,-2.48,-2.48,-2.48
64,-2.29,0.16,-2.28,0.18,-0.18,0.27,-2.47,-2.46,-2.46
65,-2.06,0.37,-2.08,0.35,-0.35,0.09,-2.42,-2.43,-2.43
66,-1.88,0.52,-1.89,0.52,-0.52,-0.08,-2.41,-2.41,-2.41
67,-1.69,0.69,-1.70,0.69,-0.69,-0.26,-2.38,-2.38,-2.38
68,-1.51,0.84,-1.51,0.84,-0.84,-0.43,-2.36,-2.36,-2.36
69,-1.35,0.98,-1.34,1.00,-1.00,-0.59,-2.35,-2.33,-2.33
70,-1.17,1.13,-1.16,1.14,-1.14,-0.75,-2.32,-2.30,-2.30
71,-0.99,1.28,-0.99,1.29,-1.29,-0.92,-2.28,-2.28,-2.27
72,-0.81,1.43,-0.82,1.42,-1.42,-1.07,-2.24,-2.25,-2.25
73,-0.65,1.56,-0.67,1.55,-1.55,-1.23,-2.21,-2.22,-2.22
74,-0.49,1.70,-0.51,1.68,-1.68,-1.38,-2.17,-2.19,-2.19
75,-0.35,1.81,-0.37,1.80,-1.80,-1.52,-2.15,-2.16,-2.16
76,-0.22,1.91,-0.23,1.91,-1.91,-1.67,-2.13,-2.14,-2.14
77,-0.08,2.02,-0.09,2.02,-2.02,-1.81,-2.10,-2.11,-2.11
78,0.01,2.09,0.04,2.13,-2.13,-1.95,-2.12,-2.08,-2.08
79,0.18,2.23,0.17,2.23,-2.23,-2.09,-2.06,-2.06,-2.06
80,0.30,2.33,0.30,2.33,-2.33,-2.22,-2.04,-2.03,-2.03
81,0.44,2.44,0.43,2.44,-2.44,-2.35,-2.00,-2.01,-2.01
82,0.57,2.55,0.55,2.54,-2.54,-2.48,-1.98,-1.99,-1.99
83,0.68,2.64,0.68,2.65,-2.65,-2.60,-1.97,-1.97,-1.97
84,0.81,2.75,0.80,2.75,-2.75,-2.73,-1.95,-1.95,-1.95
85,0.94,2.86,0.93,2.86,-2.86,-2.85,-1.92,-1.93,-1.93
86,1.03,2.94,1.05,2.96,-2.96,-2.96,-1.93,-1.91,-1.91
87,1.16,3.05,1.17,3.06,-3.06,-3.08,-1.91,-1.90,-1.90
88,1.29,3.17,1.28,3.16,-3.16,-3.19,-1.88,-1.88,-1.88
89,1.43,3.29,1.40,3.26,-3.26,-3.30,-1.84,-1.87,-1.87
90,1.52,3.37,1.50,3.36,-3.36,-3.41,-1.84,-1.85,-1.85
91,1.61,3.45,1.61,3.45,-3.45,-3.51,-1.85,-1.84,-1.84
92,1.70,3.53,1.71,3.54,-3.54,-3.62,-1.85,-1.83,-1.83
93,1.84,3.66,1.80,3.63,-3.63,-3.72,-1.79,-1.82,-1.82
94,1.89,3.70,1.90,3.71,-3.71,-3.82,-1.83,-1.82,-1.82
95,1.98,3.78,1.99,3.80,-3.80,-3.91,-1.82,-1.81,-1.81
96,2.07,3.87,2.08,3.88,-3.88,-4.01,-1.81,-1.80,-1.80
97,2.20,3.99,2.17,3.96,-3.96,-4.10,-1.77,-1.80,-1.80
98,2.26,4.05,2.26,4.05,-4.05,-4.19,-1.79,-1.79,-1.79
99,2.35,4.13,2.35,4.14,-4.14,-4.27,-1.79,-1.79,-1.79
100,2.43,4.21,2.44,4.22,-4.22,-4.36,-1.80,-1.78,-1.78
101,2.52,4.29,2.54,4.32,-4.32,-4.44,-1.80,-1.78,-1.78
102,2.58,4.35,2.63,4.41,-4.41,-4.52,-1.83,-1.77,-1.77
104,2.81,4.57,2.73,4.50,-4.50,-4.68,-1.69,-1.77,-1.77
105,2.84,4.60,2.82,4.58,-4.58,-4.75,-1.75,-1.77,-1.77
106,2.90,4.66,2.90,4.66,-4.66,-4.82,-1.77,-1.76,-1.76
107,3.00,4.75,2.98,4.74,-4.74,-4.89,-1.75,-1.76,-1.76
108,3.08,4.83,3.06,4.81,-4.81,-4.96,-1.74,-1.76,-1.76
109,3.10,4.85,3.13,4.88,-4.88,-5.03,-1.79,-1.75,-1.75
110,3.19,4.94,3.20,4.95,-4.95,-5.09,-1.77,-1.75,-1.75
111,3.31,5.05,3.27,5.02,-5.02,-5.15,-1.71,-1.75,-1.75
112,3.32,5.06,3.34,5.08,-5.08,-5.21,-1.76,-1.74,-1.74
113,3.39,5.13,3.40,5.14,-5.14,-5.27,-1.76,-1.74,-1.74
114,3.46,5.19,3.47,5.20,-5.20,-5.33,-1.75,-1.74,-1.74
115,3.51,5.24,3.53,5.26,-5.26,-5.38,-1.76,-1.74,-1.74
117,3.67,5.40,3.59,5.32,-5.32,-5.49,-1.66,-1.73,-1.73
118,3.64,5.37,3.65,5.38,-5.38,-5.54,-1.74,-1.73,-1.73
119,3.72,5.45,3.70,5.43,-5.43,-5.58,-1.72,-1.73,-1.73
120,3.75,5.47,3.76,5.48,-5.48,-5.63,-1.74,-1.73,-1.73
121,3.77,5.49,3.81,5.54,-5.54,-5.67,-1.77,-1.73,-1.73
123,3.86,5.58,3.86,5.58,-5.58,-5.76,-1.73,-1.73,-1.73
124,3.92,5.64,3.91,5.63,-5.63,-5.79,-1.72,-1.72,-1.72
125,3.97,5.69,3.95,5.68,-5.68,-5.83,-1.71,-1.72,-1.72
126,3.99,5.71,4.00,5.72,-5.72,-5.87,-1.74,-1.72,-1.72
128,4.09,5.81,4.04,5.76,-5.76,-5.93,-1.68,-1.72,-1.72
129,4.10,5.82,4.08,5.80,-5.80,-5.96,-1.71,-1.72,-1.72
130,4.10,5.81,4.12,5.84,-5.84,-5.99,-1.74,-1.72,-1.72
131,4.13,5.84,4.15,5.87,-5.87,-6.02,-1.74,-1.72,-1.72
133,4.20,5.91,4.18,5.90,-5.90,-6.07,-1.71,-1.72,-1.72
134,4.20,5.91,4.21,5.93,-5.93,-6.10,-1.73,-1.71,-1.71
135,4.25,5.96,4.25,5.96,-5.96,-6.12,-1.71,-1.71,-1.71
137,4.28,5.98,4.27,5.98,-5.98,-6.16,-1.71,-1.71,-1.71
138,4.35,6.05,4.30,6.01,-6.01,-6.18,-1.66,-1.71,-1.71
140,4.34,6.04,4.33,6.03,-6.03,-6.21,-1.70,-1.70,-1.70
141,4.33,6.02,4.35,6.05,-6.05,-6.22,-1.73,-1.70,-1.70
142,4.38,6.07,4.38,6.07,-6.07,-6.24,-1.70,-1.69,-1.69
144,4.39,6.07,4.40,6.09,-6.09,-6.26,-1.71,-1.69,-1.69
145,4.43,6.11,4.43,6.11,-6.11,-6.27,-1.68,-1.68,-1.68
147,4.48,6.15,4.45,6.12,-6.12,-6.29,-1.65,-1.67,-1.67
148,4.48,6.14,4.47,6.14,-6.14,-6.29,-1.66,-1.67,-1.67
150,4.49,6.15,4.49,6.15,-6.15,-6.30,-1.67,-1.66,-1.66
151,4.51,6.16,4.51,6.16,-6.16,-6.31,-1.66,-1.65,-1.65
153,4.54,6.18,4.52,6.17,-6.17,-6.31,-1.63,-1.65,-1.65
154,4.51,6.14,4.53,6.17,-6.17,-6.31,-1.67,-1.64,-1.64
156,4.57,6.20,4.54,6.17,-6.17,-6.31,-1.61,-1.63,-1.63
157,4.57,6.19,4.55,6.17,-6.17,-6.31,-1.61,-1.63,-1.63
159,4.55,6.17,4.55,6.17,-6.17,-6.31,-1.63,-1.62,-1.62
160,4.53,6.14,4.55,6.17,-6.17,-6.30,-1.64,-1.62,-1.62
162,4.52,6.13,4.55,6.16,-6.16,-6.30,-1.65,-1.61,-1.61
164,4.59,6.20,4.55,6.16,-6.16,-6.28,-1.57,-1.61,-1.61
165,4.59,6.19,4.54,6.15,-6.15,-6.28,-1.57,-1.61,-1.61
167,4.55,6.15,4.54,6.15,-6.15,-6.26,-1.60,-1.61,-1.61
169,4.51,6.11,4.54,6.14,-6.14,-6.24,-1.64,-1.61,-1.61
170,4.48,6.08,4.53,6.14,-6.14,-6.23,-1.66,-1.61,-1.61
172,4.51,6.12,4.52,6.13,-6.13,-6.21,-1.63,-1.61,-1.61
174,4.58,6.19,4.51,6.13,-6.13,-6.19,-1.55,-1.61,-1.61
175,4.55,6.16,4.51,6.12,-6.12,-6.18,-1.58,-1.62,-1.62
177,4.51,6.13,4.50,6.12,-6.12,-6.15,-1.61,-1.62,-1.62
179,4.48,6.10,4.49,6.12,-6.12,-6.12,-1.64,-1.63,-1.63
181,4.44,6.07,4.48,6.11,-6.11,-6.09,-1.68,-1.63,-1.63
183,4.46,6.10,4.47,6.11,-6.11,-6.06,-1.66,-1.64,-1.64
184,4.45,6.09,4.47,6.12,-6.12,-6.05,-1.67,-1.65,-1.65
186,4.46,6.11,4.46,6.12,-6.12,-6.02,-1.66,-1.66,-1.66
188,4.49,6.15,4.45,6.12,-6.12,-5.98,-1.63,-1.67,-1.67
190,4.47,6.14,4.44,6.12,-6.12,-5.95,-1.65,-1.67,-1.67
192,4.45,6.13,4.43,6.11,-6.11,-5.91,-1.67,-1.68,-1.68
194,4.42,6.11,4.41,6.10,-6.10,-5.88,-1.68,-1.69,-1.69
196,4.39,6.08,4.39,6.08,-6.08,-5.84,-1.70,-1.70,-1.70
198,4.36,6.06,4.36,6.07,-6.07,-5.80,-1.71,-1.71,-1.71
200,4.33,6.04,4.33,6.05,-6.05,-5.77,-1.72,-1.72,-1.72
202,4.30,6.02,4.30,6.03,-6.03,-5.73,-1.73,-1.72,-1.72
204,4.27,6.00,4.28,6.01,-6.01,-5.69,-1.74,-1.73,-1.73
206,4.25,5.98,4.25,5.99,-5.99,-5.65,-1.74,-1.74,-1.74
208,4.22,5.96,4.23,5.97,-5.97,-5.61,-1.76,-1.74,-1.74
210,4.20,5.95,4.21,5.96,-5.96,-5.57,-1.76,-1.75,-1.75
212,4.19,5.94,4.18,5.94,-5.94,-5.53,-1.75,-1.76,-1.76
214,4.17,5.93,4.16,5.92,-5.92,-5.49,-1.75,-1.76,-1.76
216,4.16,5.92,4.13,5.89,-5.89,-5.45,-1.74,-1.76,-1.76
218,4.14,5.90,4.10,5.86,-5.86,-5.41,-1.73,-1.77,-1.77
221,4.08,5.84,4.06,5.83,-5.83,-5.35,-1.76,-1.77,-1.77
223,4.02,5.79,4.02,5.79,-5.79,-5.30,-1.78,-1.77,-1.77
225,3.93,5.69,3.98,5.75,-5.75,-5.26,-1.83,-1.77,-1.77
227,3.92,5.68,3.94,5.71,-5.71,-5.22,-1.80,-1.77,-1.77
229,3.91,5.67,3.90,5.67,-5.67,-5.18,-1.76,-1.77,-1.77
232,3.89,5.65,3.86,5.62,-5.62,-5.12,-1.74,-1.76,-1.76
234,3.88,5.63,3.82,5.58,-5.58,-5.08,-1.70,-1.76,-1.76
236,3.81,5.56,3.78,5.53,-5.53,-5.04,-1.73,-1.75,-1.75
239,3.69,5.43,3.74,5.48,-5.48,-4.98,-1.80,-1.74,-1.74
241,3.66,5.39,3.70,5.43,-5.43,-4.93,-1.77,-1.73,-1.73
244,3.66,5.38,3.65,5.38,-5.38,-4.87,-1.72,-1.72,-1.73
246,3.65,5.36,3.61,5.32,-5.32,-4.83,-1.68,-1.71,-1.71
248,3.59,5.29,3.56,5.26,-5.26,-4.79,-1.68,-1.70,-1.70
251,3.48,5.17,3.51,5.20,-5.20,-4.73,-1.73,-1.69,-1.69
253,3.48,5.15,3.47,5.14,-5.14,-4.69,-1.67,-1.68,-1.68
256,3.44,5.10,3.42,5.08,-5.08,-4.63,-1.65,-1.66,-1.66
259,3.34,4.99,3.37,5.02,-5.02,-4.57,-1.69,-1.65,-1.65
261,3.30,4.93,3.32,4.96,-4.96,-4.53,-1.66,-1.64,-1.64
264,3.30,4.92,3.27,4.89,-4.89,-4.47,-1.60,-1.62,-1.62
266,3.28,4.88,3.22,4.83,-4.83,-4.44,-1.55,-1.61,-1.61
269,3.13,4.72,3.17,4.76,-4.76,-4.38,-1.63,-1.59,-1.59
272,3.12,4.69,3.11,4.69,-4.69,-4.32,-1.57,-1.58,-1.58
274,3.09,4.65,3.05,4.61,-4.61,-4.28,-1.53,-1.56,-1.56
277,2.96,4.50,2.99,4.54,-4.54,-4.23,-1.58,-1.55,-1.55
280,2.95,4.48,2.93,4.46,-4.46,-4.17,-1.51,-1.53,-1.53
283,2.86,4.37,2.86,4.38,-4.38,-4.11,-1.52,-1.51,-1.51
286,2.78,4.27,2.80,4.30,-4.30,-4.06,-1.52,-1.50,-1.50
288,2.78,4.26,2.73,4.22,-4.22,-4.02,-1.44,-1.49,-1.48
291,2.65,4.12,2.66,4.13,-4.13,-3.96,-1.49,-1.47,-1.47
294,2.60,4.05,2.59,4.05,-4.05,-3.91,-1.45,-1.46,-1.46
297,2.53,3.97,2.52,3.96,-3.96,-3.85,-1.44,-1.44,-1.44
300,2.45,3.87,2.45,3.88,-3.88,-3.80,-1.44,-1.43,-1.43
303,2.39,3.80,2.38,3.80,-3.80,-3.74,-1.41,-1.42,-1.42
306,2.30,3.70,2.31,3.71,-3.71,-3.69,-1.42,-1.40,-1.40
309,2.25,3.63,2.24,3.63,-3.63,-3.64,-1.38,-1.39,-1.39
312,2.19,3.56,2.17,3.55,-3.55,-3.58,-1.36,-1.38,-1.38
316,2.09,3.45,2.10,3.47,-3.47,-3.51,-1.38,-1.37,-1.37
319,2.05,3.40,2.03,3.39,-3.39,-3.45,-1.34,-1.35,-1.35
322,1.96,3.30,1.96,3.31,-3.31,-3.40,-1.35,-1.34,-1.34
325,1.90,3.23,1.90,3.23,-3.23,-3.34,-1.33,-1.33,-1.33
328,1.86,3.18,1.83,3.15,-3.15,-3.28,-1.30,-1.32,-1.32
332,1.74,3.05,1.76,3.08,-3.08,-3.21,-1.34,-1.31,-1.31
335,1.71,3.01,1.70,3.00,-3.00,-3.15,-1.30,-1.30,-1.30
338,1.66,2.95,1.63,2.93,-2.93,-3.09,-1.27,-1.29,-1.29
342,1.55,2.83,1.57,2.85,-2.85,-3.02,-1.31,-1.28,-1.28
345,1.54,2.81,1.51,2.78,-2.78,-2.96,-1.25,-1.27,-1.27
349,1.44,2.70,1.45,2.71,-2.71,-2.88,-1.28,-1.27,-1.27
352,1.38,2.63,1.39,2.64,-2.64,-2.81,-1.27,-1.26,-1.26
356,1.35,2.60,1.33,2.58,-2.58,-2.73,-1.23,-1.25,-1.25
359,1.28,2.52,1.27,2.51,-2.51,-2.67,-1.24,-1.24,-1.24
363,1.19,2.42,1.22,2.45,-2.45,-2.59,-1.27,-1.24,-1.24
366,1.19,2.42,1.17,2.40,-2.40,-2.52,-1.21,-1.23,-1.23
370,1.15,2.37,1.12,2.34,-2.34,-2.44,-1.20,-1.23,-1.23
374,1.03,2.25,1.07,2.29,-2.29,-2.36,-1.27,-1.22,-1.22
377,1.02,2.23,1.03,2.25,-2.25,-2.30,-1.23,-1.22,-1.22
381,1.02,2.23,0.99,2.21,-2.21,-2.22,-1.19,-1.21,-1.21
385,0.99,2.19,0.96,2.17,-2.17,-2.15,-1.18,-1.21,-1.21
389,0.94,2.14,0.93,2.13,-2.13,-2.09,-1.20,-1.21,-1.21
393,0.90,2.10,0.89,2.10,-2.10,-2.03,-1.20,-1.20,-1.20
397,0.86,2.05,0.87,2.07,-2.07,-1.99,-1.21,-1.20,-1.20
401,0.84,2.03,0.84,2.04,-2.04,-1.95,-1.20,-1.20,-1.20
405,0.82,2.01,0.82,2.01,-2.01,-1.92,-1.20,-1.19,-1.19
409,0.80,1.98,0.81,2.00,-2.00,-1.90,-1.20,-1.19,-1.19
413,0.80,1.98,0.80,1.98,-1.98,-1.88,-1.19,-1.18,-1.19
417,0.79,1.97,0.79,1.97,-1.97,-1.87,-1.18,-1.18,-1.18
421,0.79,1.96,0.78,1.96,-1.96,-1.87,-1.17,-1.17,-1.17
425,0.79,1.95,0.78,1.95,-1.95,-1.87,-1.16,-1.17,-1.17
430,0.79,1.94,0.78,1.94,-1.94,-1.87,-1.15,-1.16,-1.16
434,0.79,1.93,0.78,1.93,-1.93,-1.88,-1.14,-1.15,-1.15
438,0.79,1.92,0.78,1.91,-1.91,-1.88,-1.13,-1.14,-1.14
443,0.78,1.90,0.77,1.90,-1.90,-1.89,-1.12,-1.13,-1.13
447,0.77,1.88,0.77,1.88,-1.88,-1.89,-1.11,-1.11,-1.11
451,0.76,1.85,0.76,1.86,-1.86,-1.90,-1.10,-1.10,-1.10
456,0.76,1.84,0.76,1.84,-1.84,-1.90,-1.08,-1.08,-1.08
460,0.75,1.81,0.75,1.82,-1.82,-1.90,-1.07,-1.06,-1.06
465,0.75,1.79,0.75,1.79,-1.79,-1.90,-1.05,-1.05,-1.05
470,0.75,1.77,0.75,1.77,-1.77,-1.90,-1.03,-1.03,-1.03
474,0.76,1.76,0.74,1.75,-1.75,-1.89,-1.00,-1.01,-1.01
479,0.76,1.75,0.74,1.74,-1.74,-1.89,-0.98,-0.99,-0.99
484,0.74,1.71,0.74,1.72,-1.72,-1.88,-0.98,-0.97,-0.97
489,0.74,1.69,0.75,1.70,-1.70,-1.87,-0.96,-0.95,-0.95
494,0.75,1.68,0.75,1.68,-1.68,-1.86,-0.94,-0.94,-0.94
499,0.77,1.68,0.75,1.67,-1.67,-1.85,-0.90,-0.92,-0.92
504,0.78,1.68,0.76,1.66,-1.66,-1.84,-0.88,-0.90,-0.90
509,0.76,1.64,0.76,1.65,-1.65,-1.83,-0.89,-0.89,-0.89
514,0.76,1.63,0.77,1.64,-1.64,-1.82,-0.89,-0.87,-0.87
519,0.78,1.63,0.78,1.64,-1.64,-1.80,-0.87,-0.86,-0.86
524,0.80,1.64,0.80,1.64,-1.64,-1.79,-0.85,-0.84,-0.84
529,0.82,1.64,0.82,1.65,-1.65,-1.77,-0.83,-0.83,-0.83
535,0.84,1.65,0.84,1.66,-1.66,-1.76,-0.82,-0.82,-0.82
540,0.87,1.67,0.86,1.66,-1.66,-1.74,-0.80,-0.80,-0.80
545,0.89,1.67,0.88,1.67,-1.67,-1.73,-0.78,-0.79,-0.79
551,0.91,1.68,0.90,1.67,-1.67,-1.71,-0.77,-0.78,-0.78
556,0.93,1.69,0.91,1.67,-1.67,-1.70,-0.75,-0.76,-0.76
562,0.94,1.68,0.92,1.67,-1.67,-1.68,-0.73,-0.75,-0.75
568,0.94,1.67,0.93,1.66,-1.66,-1.66,-0.73,-0.73,-0.73
573,0.95,1.66,0.94,1.65,-1.65,-1.65,-0.71,-0.71,-0.71
579,0.92,1.61,0.95,1.64,-1.64,-1.63,-0.73,-0.69,-0.69
585,0.95,1.62,0.96,1.63,-1.63,-1.61,-0.68,-0.67,-0.67
591,0.94,1.59,0.96,1.62,-1.62,-1.59,-0.68,-0.65,-0.65
596,0.98,1.60,0.97,1.60,-1.60,-1.58,-0.63,-0.63,-0.63
602,1.01,1.61,0.98,1.59,-1.59,-1.56,-0.58,-0.60,-0.60
608,1.02,1.59,0.99,1.57,-1.57,-1.55,-0.55,-0.58,-0.58
615,1.03,1.58,1.00,1.55,-1.55,-1.53,-0.52,-0.55,-0.55
621,1.01,1.53,1.00,1.52,-1.52,-1.51,-0.52,-0.52,-0.52
627,0.98,1.47,1.00,1.50,-1.50,-1.49,-0.52,-0.49,-0.49
633,0.98,1.44,1.00,1.47,-1.47,-1.48,-0.49,-0.47,-0.47
639,1.01,1.44,1.00,1.44,-1.44,-1.46,-0.43,-0.44,-0.44
646,1.01,1.41,1.00,1.41,-1.41,-1.44,-0.41,-0.41,-0.41
652,1.03,1.41,1.00,1.38,-1.38,-1.42,-0.36,-0.38,-0.38
659,1.00,1.35,0.99,1.35,-1.35,-1.40,-0.36,-0.36,-0.36
665,0.97,1.30,0.99,1.32,-1.32,-1.39,-0.36,-0.34,-0.34
672,0.99,1.30,0.98,1.30,-1.30,-1.37,-0.31,-0.31,-0.31
679,1.00,1.29,0.98,1.27,-1.27,-1.35,-0.28,-0.30,-0.30
686,0.98,1.25,0.97,1.25,-1.25,-1.33,-0.28,-0.28,-0.28
692,0.94,1.20,0.96,1.23,-1.23,-1.31,-0.29,-0.27,-0.26
699,0.96,1.21,0.96,1.21,-1.21,-1.30,-0.26,-0.25,-0.25
706,0.97,1.21,0.95,1.20,-1.20,-1.28,-0.23,-0.24,-0.24
713,0.98,1.21,0.95,1.18,-1.18,-1.26,-0.21,-0.24,-0.24
721,0.91,1.14,0.94,1.17,-1.17,-1.24,-0.27,-0.23,-0.23
728,0.93,1.16,0.93,1.16,-1.16,-1.22,-0.24,-0.23,-0.23
735,0.95,1.17,0.93,1.16,-1.16,-1.20,-0.21,-0.23,-0.23
742,0.93,1.16,0.92,1.15,-1.15,-1.18,-0.23,-0.23,-0.23
750,0.90,1.13,0.91,1.15,-1.15,-1.16,-0.25,-0.23,-0.23
757,0.91,1.14,0.91,1.14,-1.14,-1.14,-0.24,-0.24,-0.24
765,0.93,1.16,0.90,1.14,-1.14,-1.11,-0.21,-0.24,-0.24
773,0.87,1.11,0.88,1.13,-1.13,-1.09,-0.26,-0.24,-0.24
780,0.86,1.10,0.87,1.12,-1.12,-1.07,-0.26,-0.25,-0.25
788,0.88,1.13,0.85,1.11,-1.11,-1.04,-0.23,-0.25,-0.25
796,0.84,1.09,0.83,1.09,-1.09,-1.02,-0.25,-0.26,-0.26
804,0.81,1.06,0.81,1.07,-1.07,-0.99,-0.27,-0.26,-0.26
812,0.81,1.07,0.79,1.05,-1.05,-0.97,-0.24,-0.26,-0.26
820,0.77,1.03,0.76,1.02,-1.02,-0.94,-0.26,-0.26,-0.26
828,0.73,0.99,0.73,0.99,-0.99,-0.91,-0.27,-0.26,-0.26
837,0.71,0.97,0.70,0.96,-0.96,-0.88,-0.26,-0.26,-0.26
845,0.67,0.92,0.67,0.93,-0.93,-0.85,-0.27,-0.26,-0.26
853,0.65,0.90,0.65,0.90,-0.90,-0.82,-0.25,-0.25,-0.25
862,0.62,0.86,0.62,0.87,-0.87,-0.78,-0.25,-0.25,-0.25
871,0.56,0.80,0.59,0.83,-0.83,-0.75,-0.27,-0.24,-0.24
879,0.58,0.81,0.55,0.79,-0.79,-0.72,-0.21,-0.24,-0.24
888,0.55,0.77,0.52,0.75,-0.75,-0.68,-0.20,-0.23,-0.23
897,0.47,0.68,0.49,0.70,-0.70,-0.64,-0.24,-0.22,-0.22
906,0.48,0.68,0.45,0.65,-0.65,-0.59,-0.18,-0.20,-0.20
915,0.39,0.57,0.41,0.59,-0.59,-0.55,-0.21,-0.19,-0.19
924,0.37,0.54,0.36,0.54,-0.54,-0.51,-0.17,-0.17,-0.17
933,0.36,0.51,0.32,0.47,-0.47,-0.46,-0.12,-0.16,-0.16
943,0.25,0.38,0.27,0.41,-0.41,-0.41,-0.16,-0.14,-0.14
952,0.23,0.34,0.22,0.34,-0.34,-0.35,-0.11,-0.12,-0.12
962,0.13,0.22,0.17,0.27,-0.27,-0.30,-0.14,-0.09,-0.09
971,0.15,0.21,0.13,0.20,-0.20,-0.24,-0.05,-0.07,-0.07
981,0.08,0.12,0.08,0.12,-0.12,-0.18,-0.05,-0.04,-0.04
991,0.05,0.06,0.04,0.05,-0.05,-0.11,-0.01,-0.01,-0.01
1001,-0.00,-0.02,-0.01,-0.03,0.03,-0.04,0.02,0.02,0.02
1011,-0.05,-0.10,-0.06,-0.11,0.11,0.03,0.05,0.05,0.05
1021,-0.09,-0.18,-0.11,-0.19,0.19,0.11,0.10,0.08,0.08
1031,-0.15,-0.28,-0.16,-0.28,0.28,0.19,0.12,0.12,0.12
1041,-0.21,-0.37,-0.21,-0.37,0.37,0.27,0.15,0.16,0.16
1052,-0.26,-0.46,-0.26,-0.46,0.46,0.37,0.20,0.20,0.20
1062,-0.32,-0.57,-0.32,-0.56,0.56,0.46,0.23,0.24,0.24
1073,-0.37,-0.66,-0.37,-0.66,0.66,0.57,0.28,0.29,0.29
1084,-0.44,-0.78,-0.43,-0.76,0.76,0.68,0.32,0.33,0.33
1094,-0.47,-0.85,-0.49,-0.87,0.87,0.78,0.39,0.38,0.38
1105,-0.54,-0.97,-0.55,-0.98,0.98,0.90,0.43,0.42,0.42
1116,-0.59,-1.07,-0.62,-1.09,1.09,1.02,0.49,0.47,0.47
1128,-0.71,-1.23,-0.68,-1.20,1.20,1.16,0.49,0.52,0.52
1139,-0.74,-1.31,-0.75,-1.32,1.32,1.30,0.57,0.57,0.57
1150,-0.81,-1.43,-0.82,-1.44,1.44,1.43,0.62,0.61,0.61
1162,-0.90,-1.56,-0.90,-1.56,1.56,1.58,0.65,0.66,0.66
1173,-0.97,-1.68,-0.97,-1.67,1.67,1.71,0.70,0.70,0.70
1185,-1.05,-1.80,-1.04,-1.79,1.79,1.85,0.73,0.75,0.75
1197,-1.09,-1.88,-1.12,-1.90,1.90,1.99,0.81,0.79,0.79
1209,-1.21,-2.04,-1.19,-2.02,2.02,2.11,0.80,0.82,0.82
1221,-1.25,-2.11,-1.27,-2.13,2.13,2.23,0.87,0.86,0.86
1233,-1.32,-2.22,-1.34,-2.24,2.24,2.33,0.91,0.89,0.89
1246,-1.41,-2.34,-1.42,-2.34,2.34,2.42,0.92,0.92,0.92
1258,-1.49,-2.44,-1.49,-2.44,2.44,2.50,0.94,0.95,0.95
1271,-1.57,-2.54,-1.56,-2.53,2.53,2.56,0.95,0.97,0.97
1283,-1.64,-2.63,-1.62,-2.61,2.61,2.61,0.96,0.99,0.99
1296,-1.68,-2.69,-1.68,-2.68,2.68,2.65,1.00,1.00,1.00
1309,-1.72,-2.74,-1.73,-2.75,2.75,2.69,1.02,1.01,1.02
1322,-1.77,-2.80,-1.78,-2.81,2.81,2.72,1.03,1.02,1.02
1335,-1.82,-2.85,-1.83,-2.86,2.86,2.75,1.03,1.03,1.03
1349,-1.87,-2.91,-1.87,-2.91,2.91,2.78,1.03,1.03,1.03
1362,-1.91,-2.95,-1.91,-2.95,2.95,2.81,1.03,1.03,1.03
1376,-1.95,-2.99,-1.95,-2.99,2.99,2.84,1.03,1.03,1.03
1390,-2.00,-3.04,-1.99,-3.02,3.02,2.88,1.02,1.03,1.03
1404,-2.02,-3.05,-2.03,-3.06,3.06,2.93,1.03,1.03,1.03
1418,-2.03,-3.06,-2.07,-3.09,3.09,2.97,1.06,1.03,1.03
1432,-2.12,-3.15,-2.10,-3.12,3.12,3.03,1.00,1.02,1.02
1446,-2.10,-3.13,-2.13,-3.16,3.16,3.08,1.05,1.02,1.02
1461,-2.22,-3.25,-2.17,-3.19,3.19,3.14,0.96,1.02,1.02
1475,-2.18,-3.21,-2.20,-3.22,3.22,3.21,1.04,1.03,1.02
1490,-2.18,-3.22,-2.22,-3.25,3.25,3.28,1.07,1.03,1.03
1505,-2.27,-3.31,-2.25,-3.29,3.29,3.35,1.01,1.04,1.04
1520,-2.23,-3.29,-2.27,-3.32,3.32,3.42,1.09,1.05,1.05
1535,-2.30,-3.37,-2.29,-3.36,3.36,3.50,1.05,1.07,1.07
1550,-2.32,-3.42,-2.30,-3.40,3.40,3.57,1.07,1.09,1.09
1566,-2.29,-3.42,-2.31,-3.44,3.44,3.65,1.14,1.12,1.12
1582,-2.34,-3.50,-2.32,-3.48,3.48,3.73,1.13,1.15,1.15
1597,-2.33,-3.53,-2.32,-3.52,3.52,3.80,1.18,1.19,1.19
1613,-2.31,-3.55,-2.32,-3.56,3.56,3.88,1.25,1.24,1.24
1629,-2.30,-3.60,-2.32,-3.61,3.61,3.96,1.31,1.29,1.29
1646,-2.32,-3.67,-2.32,-3.67,3.67,4.03,1.34,1.35,1.35
1662,-2.30,-3.72,-2.31,-3.73,3.73,4.10,1.42,1.41,1.41
1679,-2.28,-3.77,-2.31,-3.79,3.79,4.17,1.51,1.48,1.48
1696,-2.28,-3.84,-2.30,-3.86,3.86,4.24,1.58,1.56,1.56
