frequency,raw,smoothed,error,error_smoothed,equalization,parametric_eq,fixed_band_eq,equalized_raw,equalized_smoothed,target
20.00,12.73,12.73,3.74,3.73,-3.73,-3.87,-1.86,9.00,9.00,9.00
20.20,12.77,12.77,3.78,3.78,-3.77,-3.89,-1.92,9.00,9.00,9.00
20.40,12.81,12.81,3.82,3.82,-3.82,-3.90,-1.97,8.99,9.00,9.00
20.61,12.85,12.85,3.86,3.86,-3.86,-3.92,-2.03,8.99,8.99,9.00
20.81,12.89,12.89,3.90,3.90,-3.90,-3.94,-2.09,8.99,8.99,9.00
21.02,12.93,12.93,3.94,3.93,-3.94,-3.95,-2.15,8.99,8.99,9.00
21.23,12.96,12.97,3.97,3.97,-3.97,-3.97,-2.22,8.99,8.99,9.00
21.44,13.00,13.00,4.01,4.01,-4.01,-3.99,-2.28,9.00,8.99,9.00
21.66,13.03,13.03,4.04,4.04,-4.04,-4.00,-2.35,8.99,8.99,8.99
21.87,13.06,13.07,4.07,4.07,-4.07,-4.02,-2.42,8.99,8.99,8.99
22.09,13.09,13.09,4.10,4.10,-4.10,-4.04,-2.49,8.99,9.00,8.99
22.31,13.12,13.12,4.13,4.13,-4.12,-4.05,-2.56,9.00,9.00,8.99
22.54,13.14,13.14,4.15,4.15,-4.14,-4.07,-2.64,9.00,9.00,8.99
22.76,13.16,13.16,4.16,4.16,-4.16,-4.09,-2.72,9.01,9.01,9.00
22.99,13.18,13.18,4.17,4.17,-4.17,-4.10,-2.79,9.01,9.01,9.01
23.22,13.20,13.20,4.18,4.18,-4.18,-4.12,-2.88,9.02,9.02,9.02
23.45,13.21,13.22,4.18,4.18,-4.19,-4.13,-2.96,9.02,9.03,9.03
23.69,13.23,13.23,4.19,4.19,-4.20,-4.15,-3.04,9.03,9.03,9.04
23.92,13.24,13.24,4.20,4.20,-4.21,-4.16,-3.13,9.03,9.03,9.04
24.16,13.25,13.25,4.21,4.22,-4.22,-4.18,-3.22,9.04,9.04,9.04
24.40,13.26,13.26,4.23,4.23,-4.22,-4.19,-3.30,9.04,9.04,9.03
24.65,13.27,13.27,4.23,4.24,-4.23,-4.20,-3.39,9.04,9.05,9.04
24.89,13.28,13.28,4.23,4.24,-4.23,-4.21,-3.48,9.05,9.05,9.05
25.14,13.29,13.29,4.24,4.23,-4.23,-4.23,-3.58,9.06,9.06,9.06
25.39,13.29,13.29,4.23,4.23,-4.23,-4.24,-3.67,9.06,9.06,9.07
25.65,13.29,13.29,4.23,4.22,-4.23,-4.25,-3.76,9.07,9.07,9.07
25.91,13.29,13.29,4.22,4.22,-4.22,-4.25,-3.85,9.07,9.07,9.08
26.16,13.28,13.29,4.21,4.21,-4.21,-4.26,-3.94,9.07,9.08,9.08
26.43,13.28,13.28,4.20,4.20,-4.20,-4.27,-4.04,9.08,9.08,9.08
26.69,13.27,13.27,4.20,4.20,-4.20,-4.27,-4.12,9.08,9.08,9.07
26.96,13.26,13.26,4.19,4.19,-4.19,-4.28,-4.21,9.07,9.08,9.07
27.23,13.25,13.25,4.18,4.18,-4.18,-4.28,-4.30,9.07,9.07,9.07
27.50,13.24,13.24,4.17,4.17,-4.17,-4.28,-4.38,9.07,9.07,9.07
27.77,13.23,13.23,4.16,4.17,-4.17,-4.28,-4.46,9.07,9.07,9.07
28.05,13.22,13.22,4.16,4.16,-4.16,-4.28,-4.54,9.06,9.06,9.06
28.33,13.21,13.21,4.16,4.16,-4.16,-4.28,-4.61,9.06,9.05,9.05
28.62,13.19,13.19,4.15,4.15,-4.15,-4.28,-4.68,9.04,9.04,9.05
28.90,13.17,13.18,4.14,4.14,-4.15,-4.27,-4.74,9.03,9.03,9.04
29.19,13.16,13.16,4.15,4.14,-4.14,-4.27,-4.80,9.02,9.02,9.02
29.48,13.14,13.14,4.14,4.14,-4.14,-4.26,-4.85,9.01,9.01,9.00
29.78,13.12,13.12,4.13,4.14,-4.13,-4.25,-4.89,8.99,8.99,8.99
30.08,13.10,13.10,4.13,4.13,-4.13,-4.24,-4.93,8.98,8.98,8.97
30.38,13.08,13.08,4.12,4.12,-4.12,-4.22,-4.96,8.96,8.96,8.96
30.68,13.06,13.06,4.11,4.11,-4.11,-4.21,-4.98,8.95,8.95,8.95
30.99,13.04,13.04,4.11,4.11,-4.11,-4.19,-4.99,8.93,8.93,8.94
31.30,13.01,13.02,4.10,4.10,-4.10,-4.17,-4.99,8.91,8.91,8.92
31.61,12.99,12.99,4.10,4.09,-4.10,-4.15,-4.99,8.90,8.89,8.89
31.93,12.96,12.96,4.09,4.09,-4.09,-4.13,-4.98,8.87,8.87,8.87
32.24,12.93,12.93,4.08,4.08,-4.08,-4.11,-4.96,8.85,8.85,8.85
32.57,12.90,12.90,4.08,4.08,-4.07,-4.09,-4.93,8.83,8.83,8.82
32.89,12.86,12.87,4.06,4.07,-4.07,-4.06,-4.90,8.80,8.80,8.80
33.22,12.83,12.83,4.06,4.06,-4.05,-4.03,-4.86,8.78,8.78,8.78
33.55,12.79,12.79,4.04,4.04,-4.04,-4.00,-4.81,8.75,8.75,8.75
33.89,12.75,12.75,4.03,4.03,-4.03,-3.97,-4.76,8.73,8.72,8.72
34.23,12.70,12.71,4.00,4.01,-4.01,-3.94,-4.70,8.69,8.70,8.70
34.57,12.66,12.66,3.99,3.99,-3.99,-3.91,-4.63,8.67,8.67,8.67
34.92,12.61,12.61,3.97,3.97,-3.97,-3.88,-4.56,8.64,8.64,8.65
35.27,12.56,12.56,3.95,3.95,-3.94,-3.84,-4.49,8.62,8.62,8.62
35.62,12.51,12.51,3.92,3.92,-3.92,-3.81,-4.41,8.60,8.60,8.59
35.97,12.46,12.46,3.88,3.89,-3.88,-3.77,-4.33,8.58,8.58,8.58
36.33,12.41,12.41,3.85,3.85,-3.85,-3.73,-4.25,8.56,8.56,8.56
36.70,12.35,12.36,3.81,3.81,-3.81,-3.69,-4.17,8.54,8.54,8.55
37.06,12.30,12.30,3.77,3.77,-3.77,-3.65,-4.08,8.53,8.53,8.53
37.43,12.24,12.24,3.72,3.72,-3.73,-3.61,-4.00,8.52,8.52,8.52
37.81,12.18,12.19,3.68,3.68,-3.68,-3.57,-3.91,8.50,8.51,8.51
38.19,12.13,12.13,3.64,3.63,-3.63,-3.53,-3.82,8.50,8.50,8.49
38.57,12.07,12.07,3.58,3.58,-3.58,-3.49,-3.74,8.50,8.49,8.49
38.95,12.01,12.01,3.52,3.53,-3.52,-3.44,-3.65,8.49,8.49,8.49
39.34,11.95,11.95,3.47,3.47,-3.47,-3.40,-3.56,8.48,8.48,8.49
39.74,11.89,11.89,3.41,3.41,-3.41,-3.35,-3.48,8.48,8.48,8.48
40.14,11.83,11.83,3.36,3.36,-3.36,-3.31,-3.40,8.48,8.48,8.48
40.54,11.77,11.77,3.30,3.30,-3.30,-3.26,-3.31,8.48,8.48,8.47
40.94,11.71,11.71,3.24,3.24,-3.24,-3.22,-3.23,8.47,8.47,8.47
41.35,11.65,11.65,3.19,3.18,-3.18,-3.17,-3.15,8.47,8.47,8.47
41.76,11.58,11.59,3.12,3.12,-3.13,-3.13,-3.08,8.46,8.46,8.46
42.18,11.52,11.52,3.07,3.07,-3.07,-3.08,-3.00,8.45,8.45,8.45
42.60,11.45,11.45,3.01,3.01,-3.01,-3.03,-2.93,8.44,8.44,8.44
43.03,11.39,11.39,2.96,2.96,-2.96,-2.99,-2.85,8.44,8.43,8.43
43.46,11.32,11.33,2.90,2.90,-2.90,-2.94,-2.79,8.42,8.42,8.43
43.90,11.26,11.26,2.85,2.85,-2.85,-2.89,-2.72,8.42,8.41,8.41
44.33,11.19,11.19,2.80,2.79,-2.79,-2.85,-2.65,8.40,8.40,8.40
44.78,11.12,11.12,2.74,2.74,-2.74,-2.80,-2.59,8.38,8.38,8.38
45.23,11.05,11.06,2.68,2.69,-2.69,-2.75,-2.53,8.36,8.37,8.37
45.68,10.99,10.99,2.64,2.64,-2.64,-2.71,-2.47,8.35,8.35,8.35
46.13,10.92,10.92,2.59,2.59,-2.59,-2.66,-2.41,8.33,8.33,8.33
46.60,10.85,10.86,2.54,2.54,-2.54,-2.61,-2.36,8.31,8.31,8.32
47.06,10.79,10.79,2.50,2.50,-2.50,-2.57,-2.30,8.29,8.29,8.29
47.53,10.72,10.72,2.46,2.46,-2.46,-2.52,-2.25,8.27,8.27,8.26
48.01,10.66,10.66,2.42,2.42,-2.41,-2.48,-2.20,8.25,8.25,8.24
48.49,10.59,10.59,2.37,2.38,-2.37,-2.43,-2.15,8.22,8.22,8.22
48.97,10.53,10.53,2.34,2.34,-2.34,-2.38,-2.11,8.20,8.19,8.19
49.46,10.46,10.47,2.30,2.30,-2.30,-2.34,-2.06,8.17,8.17,8.17
49.96,10.40,10.40,2.25,2.26,-2.26,-2.29,-2.02,8.14,8.14,8.15
50.46,10.34,10.34,2.22,2.22,-2.22,-2.25,-1.98,8.12,8.12,8.12
50.96,10.27,10.28,2.18,2.19,-2.19,-2.20,-1.94,8.09,8.09,8.09
51.47,10.21,10.21,2.16,2.15,-2.15,-2.16,-1.90,8.06,8.06,8.05
51.99,10.14,10.15,2.12,2.12,-2.12,-2.11,-1.87,8.03,8.03,8.03
52.51,10.08,10.08,2.09,2.09,-2.08,-2.07,-1.83,8.00,8.00,8.00
53.03,10.01,10.01,2.05,2.05,-2.05,-2.03,-1.80,7.96,7.96,7.97
53.56,9.94,9.94,2.02,2.01,-2.01,-1.98,-1.76,7.93,7.93,7.93
54.10,9.87,9.87,1.98,1.98,-1.98,-1.94,-1.73,7.89,7.89,7.90
54.64,9.80,9.80,1.95,1.94,-1.94,-1.90,-1.70,7.86,7.86,7.86
55.18,9.73,9.73,1.91,1.91,-1.91,-1.86,-1.67,7.82,7.82,7.83
55.74,9.66,9.66,1.88,1.87,-1.87,-1.82,-1.64,7.79,7.79,7.79
56.29,9.58,9.59,1.83,1.84,-1.84,-1.77,-1.61,7.75,7.75,7.75
56.86,9.51,9.51,1.80,1.80,-1.80,-1.73,-1.59,7.71,7.71,7.71
57.42,9.44,9.44,1.77,1.77,-1.76,-1.69,-1.56,7.68,7.68,7.67
58.00,9.36,9.37,1.73,1.73,-1.72,-1.65,-1.53,7.64,7.64,7.64
58.58,9.29,9.29,1.69,1.69,-1.69,-1.61,-1.51,7.61,7.60,7.60
59.16,9.21,9.21,1.64,1.64,-1.65,-1.58,-1.48,7.56,7.56,7.57
59.76,9.13,9.14,1.61,1.61,-1.61,-1.54,-1.45,7.52,7.53,7.53
60.35,9.06,9.06,1.57,1.57,-1.57,-1.50,-1.43,7.49,7.49,7.49
60.96,8.98,8.99,1.53,1.53,-1.54,-1.46,-1.40,7.45,7.45,7.45
61.57,8.91,8.91,1.50,1.50,-1.50,-1.43,-1.38,7.41,7.41,7.41
62.18,8.83,8.84,1.47,1.46,-1.46,-1.39,-1.35,7.37,7.37,7.37
62.80,8.76,8.76,1.43,1.43,-1.43,-1.35,-1.33,7.34,7.33,7.33
63.43,8.68,8.68,1.39,1.39,-1.39,-1.32,-1.30,7.29,7.29,7.29
64.07,8.60,8.60,1.36,1.35,-1.35,-1.29,-1.28,7.25,7.25,7.25
64.71,8.52,8.52,1.31,1.31,-1.31,-1.25,-1.25,7.21,7.21,7.21
65.35,8.44,8.44,1.27,1.27,-1.27,-1.22,-1.23,7.17,7.17,7.17
66.01,8.36,8.36,1.23,1.23,-1.23,-1.19,-1.20,7.13,7.13,7.13
66.67,8.28,8.28,1.19,1.19,-1.19,-1.15,-1.17,7.09,7.09,7.09
67.33,8.20,8.20,1.15,1.15,-1.15,-1.12,-1.15,7.05,7.05,7.05
68.01,8.12,8.12,1.12,1.12,-1.11,-1.09,-1.12,7.01,7.01,7.01
68.69,8.04,8.04,1.08,1.08,-1.07,-1.06,-1.10,6.97,6.97,6.96
69.37,7.96,7.96,1.04,1.04,-1.04,-1.03,-1.07,6.93,6.92,6.92
70.07,7.87,7.88,0.99,1.00,-1.00,-1.00,-1.05,6.88,6.88,6.88
70.77,7.79,7.79,0.95,0.96,-0.96,-0.97,-1.02,6.83,6.83,6.84
71.48,7.71,7.71,0.93,0.92,-0.92,-0.94,-1.00,6.80,6.79,6.79
72.19,7.62,7.63,0.88,0.88,-0.88,-0.92,-0.97,6.74,6.75,6.74
72.91,7.54,7.54,0.84,0.84,-0.84,-0.89,-0.95,6.70,6.70,6.70
73.64,7.45,7.45,0.80,0.80,-0.80,-0.86,-0.92,6.65,6.65,6.65
74.38,7.36,7.36,0.75,0.76,-0.76,-0.84,-0.90,6.60,6.60,6.61
75.12,7.27,7.28,0.72,0.72,-0.73,-0.81,-0.87,6.55,6.55,6.55
75.87,7.19,7.19,0.70,0.69,-0.69,-0.79,-0.85,6.50,6.50,6.50
76.63,7.10,7.10,0.66,0.66,-0.66,-0.76,-0.83,6.45,6.45,6.44
77.40,7.01,7.01,0.63,0.63,-0.62,-0.74,-0.80,6.39,6.39,6.38
78.17,6.92,6.92,0.60,0.60,-0.59,-0.71,-0.78,6.33,6.33,6.32
78.95,6.83,6.83,0.57,0.57,-0.56,-0.69,-0.76,6.27,6.27,6.27
79.74,6.73,6.74,0.54,0.53,-0.54,-0.66,-0.73,6.19,6.20,6.20
80.54,6.64,6.64,0.51,0.51,-0.52,-0.64,-0.71,6.13,6.12,6.14
81.35,6.54,6.54,0.49,0.49,-0.50,-0.62,-0.69,6.05,6.05,6.06
82.16,6.45,6.45,0.48,0.48,-0.48,-0.60,-0.67,5.98,5.97,5.98
82.98,6.35,6.36,0.47,0.47,-0.46,-0.57,-0.65,5.89,5.89,5.89
83.81,6.26,6.26,0.46,0.46,-0.45,-0.55,-0.63,5.81,5.81,5.80
84.65,6.16,6.16,0.44,0.44,-0.44,-0.53,-0.61,5.73,5.72,5.72
85.50,6.06,6.06,0.43,0.43,-0.43,-0.51,-0.59,5.63,5.64,5.63
86.35,5.96,5.96,0.42,0.42,-0.42,-0.49,-0.57,5.54,5.54,5.55
87.22,5.86,5.86,0.41,0.41,-0.42,-0.46,-0.55,5.45,5.45,5.45
88.09,5.76,5.76,0.40,0.40,-0.41,-0.44,-0.54,5.35,5.35,5.36
88.97,5.65,5.66,0.40,0.40,-0.41,-0.42,-0.52,5.24,5.25,5.25
89.86,5.55,5.55,0.40,0.41,-0.41,-0.40,-0.50,5.15,5.15,5.15
90.76,5.45,5.45,0.42,0.41,-0.40,-0.38,-0.48,5.05,5.05,5.03
91.66,5.34,5.34,0.41,0.41,-0.40,-0.36,-0.47,4.94,4.94,4.93
92.58,5.23,5.24,0.39,0.40,-0.39,-0.34,-0.45,4.84,4.84,4.84
93.51,5.13,5.13,0.39,0.38,-0.39,-0.32,-0.43,4.74,4.74,4.75
94.44,5.02,5.02,0.37,0.37,-0.38,-0.30,-0.42,4.64,4.64,4.65
95.39,4.91,4.91,0.36,0.37,-0.37,-0.28,-0.40,4.54,4.54,4.55
96.34,4.80,4.80,0.36,0.36,-0.36,-0.26,-0.39,4.45,4.45,4.44
97.30,4.69,4.69,0.35,0.35,-0.34,-0.24,-0.37,4.35,4.35,4.35
98.28,4.58,4.58,0.33,0.33,-0.33,-0.22,-0.36,4.26,4.25,4.25
99.26,4.46,4.47,0.31,0.31,-0.31,-0.20,-0.34,4.15,4.16,4.15
100.25,4.35,4.35,0.29,0.29,-0.29,-0.18,-0.33,4.06,4.06,4.06
101.25,4.24,4.24,0.28,0.27,-0.27,-0.16,-0.32,3.97,3.97,3.97
102.27,4.12,4.13,0.25,0.25,-0.25,-0.14,-0.30,3.87,3.88,3.88
103.29,4.01,4.01,0.22,0.23,-0.22,-0.12,-0.29,3.79,3.79,3.79
104.32,3.89,3.89,0.20,0.20,-0.20,-0.10,-0.28,3.69,3.69,3.69
105.37,3.77,3.77,0.17,0.17,-0.17,-0.08,-0.26,3.60,3.60,3.60
106.42,3.65,3.66,0.14,0.14,-0.14,-0.07,-0.25,3.51,3.51,3.51
107.48,3.54,3.54,0.12,0.11,-0.11,-0.05,-0.24,3.43,3.43,3.43
108.56,3.42,3.42,0.09,0.08,-0.09,-0.03,-0.23,3.34,3.34,3.34
109.64,3.30,3.30,0.05,0.05,-0.06,-0.01,-0.21,3.25,3.25,3.25
110.74,3.18,3.18,0.02,0.02,-0.03,0.01,-0.20,3.16,3.16,3.16
111.85,3.06,3.06,-0.00,-0.00,0.00,0.03,-0.19,3.07,3.07,3.06
112.97,2.94,2.94,-0.03,-0.03,0.03,0.04,-0.18,2.98,2.98,2.98
114.10,2.82,2.82,-0.07,-0.06,0.06,0.06,-0.16,2.89,2.89,2.89
115.24,2.70,2.71,-0.09,-0.09,0.09,0.08,-0.15,2.80,2.80,2.79
116.39,2.59,2.59,-0.12,-0.12,0.12,0.09,-0.14,2.72,2.71,2.71
117.55,2.47,2.47,-0.15,-0.15,0.15,0.11,-0.13,2.62,2.62,2.63
118.73,2.35,2.36,-0.19,-0.18,0.18,0.12,-0.11,2.53,2.54,2.54
119.92,2.24,2.24,-0.21,-0.21,0.21,0.14,-0.10,2.45,2.45,2.45
121.12,2.13,2.13,-0.23,-0.23,0.24,0.15,-0.09,2.37,2.36,2.36
122.33,2.01,2.02,-0.26,-0.26,0.26,0.17,-0.08,2.27,2.28,2.27
123.55,1.90,1.91,-0.29,-0.28,0.29,0.18,-0.06,2.19,2.19,2.19
124.79,1.80,1.80,-0.30,-0.31,0.31,0.19,-0.05,2.11,2.10,2.10
126.03,1.69,1.69,-0.33,-0.33,0.32,0.20,-0.04,2.02,2.02,2.02
127.29,1.59,1.59,-0.34,-0.34,0.34,0.22,-0.03,1.93,1.93,1.94
128.57,1.49,1.49,-0.36,-0.36,0.35,0.23,-0.01,1.84,1.84,1.85
129.85,1.40,1.40,-0.36,-0.36,0.36,0.23,-0.00,1.76,1.76,1.76
131.15,1.30,1.30,-0.36,-0.36,0.36,0.24,0.01,1.67,1.67,1.67
132.46,1.21,1.22,-0.36,-0.36,0.36,0.25,0.03,1.58,1.58,1.58
133.79,1.13,1.13,-0.35,-0.36,0.36,0.25,0.04,1.49,1.49,1.48
135.12,1.05,1.05,-0.35,-0.35,0.35,0.26,0.05,1.41,1.41,1.40
136.48,0.97,0.97,-0.35,-0.35,0.34,0.26,0.07,1.32,1.32,1.32
137.84,0.90,0.90,-0.34,-0.34,0.33,0.26,0.08,1.23,1.23,1.24
139.22,0.83,0.83,-0.32,-0.32,0.31,0.26,0.09,1.15,1.15,1.15
140.61,0.77,0.77,-0.29,-0.30,0.30,0.26,0.11,1.07,1.07,1.07
142.02,0.71,0.71,-0.27,-0.27,0.27,0.26,0.12,0.99,0.99,0.99
143.44,0.65,0.66,-0.25,-0.24,0.25,0.25,0.14,0.90,0.90,0.90
144.87,0.60,0.60,-0.21,-0.22,0.22,0.24,0.15,0.82,0.82,0.81
146.32,0.55,0.55,-0.19,-0.19,0.19,0.23,0.17,0.75,0.74,0.75
147.78,0.50,0.51,-0.17,-0.16,0.16,0.22,0.18,0.66,0.67,0.67
149.26,0.47,0.47,-0.13,-0.13,0.13,0.20,0.20,0.60,0.60,0.60
150.75,0.43,0.43,-0.10,-0.10,0.10,0.18,0.21,0.53,0.53,0.53
152.26,0.40,0.40,-0.06,-0.06,0.06,0.16,0.23,0.47,0.47,0.47
153.78,0.37,0.37,-0.03,-0.03,0.03,0.14,0.25,0.40,0.40,0.40
155.32,0.35,0.35,0.01,0.01,-0.01,0.11,0.26,0.35,0.34,0.34
156.88,0.32,0.33,0.05,0.05,-0.04,0.08,0.28,0.28,0.28,0.28
158.44,0.30,0.31,0.08,0.08,-0.08,0.04,0.30,0.22,0.23,0.23
160.03,0.29,0.29,0.12,0.11,-0.12,0.00,0.32,0.18,0.17,0.17
161.63,0.27,0.28,0.14,0.15,-0.15,-0.04,0.33,0.12,0.13,0.13
163.24,0.26,0.26,0.18,0.18,-0.18,-0.08,0.35,0.08,0.08,0.08
164.88,0.25,0.25,0.22,0.22,-0.22,-0.13,0.37,0.04,0.04,0.03
166.53,0.24,0.24,0.25,0.25,-0.25,-0.18,0.39,-0.00,-0.01,-0.01
168.19,0.22,0.23,0.28,0.28,-0.28,-0.23,0.41,-0.05,-0.05,-0.06
169.87,0.21,0.21,0.31,0.30,-0.30,-0.28,0.43,-0.09,-0.09,-0.09
171.57,0.19,0.20,0.32,0.33,-0.33,-0.32,0.45,-0.14,-0.13,-0.13
173.29,0.18,0.18,0.35,0.35,-0.35,-0.37,0.47,-0.17,-0.17,-0.17
175.02,0.16,0.16,0.37,0.37,-0.37,-0.40,0.49,-0.20,-0.20,-0.20
176.77,0.14,0.14,0.38,0.38,-0.38,-0.44,0.51,-0.24,-0.24,-0.24
178.54,0.11,0.11,0.38,0.38,-0.39,-0.45,0.53,-0.27,-0.27,-0.27
180.32,0.08,0.08,0.39,0.39,-0.39,-0.47,0.55,-0.31,-0.31,-0.30
182.13,0.05,0.05,0.39,0.39,-0.39,-0.46,0.58,-0.33,-0.34,-0.34
183.95,0.01,0.01,0.38,0.38,-0.38,-0.45,0.60,-0.37,-0.37,-0.37
185.79,-0.03,-0.03,0.37,0.37,-0.36,-0.42,0.62,-0.39,-0.39,-0.40
187.65,-0.08,-0.08,0.34,0.35,-0.34,-0.38,0.64,-0.42,-0.42,-0.42
189.52,-0.13,-0.13,0.31,0.32,-0.32,-0.32,0.67,-0.44,-0.44,-0.44
191.42,-0.19,-0.19,0.29,0.28,-0.28,-0.26,0.69,-0.47,-0.47,-0.47
193.33,-0.26,-0.26,0.24,0.24,-0.24,-0.19,0.72,-0.50,-0.49,-0.50
195.27,-0.33,-0.33,0.19,0.19,-0.19,-0.11,0.74,-0.52,-0.52,-0.52
197.22,-0.41,-0.41,0.13,0.13,-0.14,-0.03,0.77,-0.54,-0.54,-0.54
199.19,-0.49,-0.49,0.07,0.07,-0.07,0.06,0.79,-0.56,-0.56,-0.56
201.18,-0.58,-0.58,0.01,0.01,-0.01,0.15,0.82,-0.58,-0.58,-0.58
203.19,-0.67,-0.67,-0.06,-0.07,0.07,0.23,0.85,-0.60,-0.60,-0.60
205.23,-0.77,-0.77,-0.14,-0.14,0.14,0.32,0.87,-0.62,-0.62,-0.62
207.28,-0.87,-0.87,-0.22,-0.23,0.23,0.41,0.90,-0.64,-0.64,-0.64
209.35,-0.97,-0.97,-0.31,-0.31,0.31,0.49,0.92,-0.65,-0.66,-0.65
211.44,-1.08,-1.07,-0.41,-0.40,0.40,0.57,0.95,-0.67,-0.67,-0.67
213.56,-1.18,-1.18,-0.50,-0.50,0.50,0.65,0.98,-0.68,-0.68,-0.68
215.69,-1.29,-1.29,-0.59,-0.59,0.60,0.72,1.00,-0.69,-0.69,-0.70
217.85,-1.40,-1.40,-0.69,-0.69,0.69,0.79,1.03,-0.70,-0.70,-0.71
220.03,-1.51,-1.51,-0.79,-0.79,0.79,0.86,1.06,-0.71,-0.71,-0.72
222.23,-1.61,-1.61,-0.89,-0.89,0.89,0.92,1.08,-0.71,-0.72,-0.71
224.45,-1.72,-1.71,-1.00,-0.99,0.99,0.98,1.11,-0.73,-0.72,-0.72
226.70,-1.81,-1.81,-1.08,-1.09,1.08,1.04,1.13,-0.72,-0.73,-0.73
228.96,-1.91,-1.91,-1.18,-1.18,1.17,1.10,1.16,-0.73,-0.73,-0.72
231.25,-2.00,-1.99,-1.27,-1.26,1.26,1.15,1.18,-0.74,-0.74,-0.73
233.57,-2.08,-2.08,-1.34,-1.34,1.34,1.20,1.20,-0.74,-0.74,-0.74
235.90,-2.16,-2.16,-1.41,-1.41,1.42,1.25,1.22,-0.74,-0.74,-0.74
238.26,-2.23,-2.23,-1.48,-1.48,1.49,1.29,1.25,-0.74,-0.74,-0.75
240.64,-2.30,-2.30,-1.55,-1.55,1.55,1.34,1.27,-0.75,-0.75,-0.75
243.05,-2.36,-2.36,-1.62,-1.61,1.61,1.38,1.29,-0.75,-0.74,-0.74
245.48,-2.41,-2.41,-1.67,-1.67,1.67,1.42,1.31,-0.74,-0.74,-0.74
247.93,-2.45,-2.45,-1.71,-1.72,1.71,1.46,1.32,-0.73,-0.73,-0.73
250.41,-2.49,-2.49,-1.76,-1.76,1.76,1.50,1.34,-0.73,-0.73,-0.73
252.92,-2.52,-2.52,-1.79,-1.80,1.80,1.53,1.36,-0.72,-0.72,-0.72
255.45,-2.55,-2.55,-1.83,-1.83,1.83,1.57,1.37,-0.72,-0.72,-0.72
258.00,-2.57,-2.57,-1.86,-1.85,1.85,1.60,1.39,-0.71,-0.72,-0.71
260.58,-2.59,-2.59,-1.87,-1.87,1.87,1.63,1.40,-0.71,-0.71,-0.72
263.19,-2.60,-2.60,-1.89,-1.89,1.89,1.67,1.42,-0.71,-0.71,-0.71
265.82,-2.61,-2.61,-1.90,-1.90,1.90,1.70,1.43,-0.70,-0.70,-0.70
268.48,-2.61,-2.61,-1.91,-1.91,1.91,1.73,1.44,-0.69,-0.70,-0.70
271.16,-2.61,-2.61,-1.92,-1.92,1.92,1.76,1.46,-0.69,-0.69,-0.69
273.87,-2.61,-2.61,-1.92,-1.92,1.92,1.78,1.47,-0.69,-0.69,-0.69
276.61,-2.61,-2.60,-1.93,-1.92,1.92,1.81,1.48,-0.69,-0.69,-0.68
279.38,-2.60,-2.60,-1.91,-1.92,1.91,1.84,1.49,-0.68,-0.69,-0.68
282.17,-2.59,-2.59,-1.90,-1.91,1.91,1.87,1.50,-0.68,-0.69,-0.69
284.99,-2.59,-2.58,-1.90,-1.89,1.90,1.89,1.51,-0.69,-0.69,-0.69
287.84,-2.58,-2.58,-1.89,-1.89,1.89,1.92,1.53,-0.69,-0.69,-0.69
290.72,-2.57,-2.57,-1.87,-1.88,1.88,1.94,1.54,-0.69,-0.69,-0.69
293.63,-2.57,-2.56,-1.87,-1.87,1.87,1.96,1.55,-0.70,-0.70,-0.70
296.57,-2.56,-2.56,-1.86,-1.86,1.86,1.99,1.56,-0.70,-0.70,-0.70
299.53,-2.56,-2.55,-1.85,-1.85,1.85,2.01,1.58,-0.71,-0.70,-0.70
302.53,-2.55,-2.55,-1.84,-1.84,1.84,2.03,1.59,-0.70,-0.71,-0.71
305.55,-2.55,-2.55,-1.84,-1.84,1.84,2.06,1.61,-0.71,-0.71,-0.71
308.61,-2.55,-2.54,-1.84,-1.83,1.83,2.08,1.62,-0.71,-0.71,-0.71
311.69,-2.54,-2.54,-1.82,-1.83,1.83,2.10,1.64,-0.71,-0.71,-0.71
314.81,-2.55,-2.54,-1.83,-1.83,1.83,2.12,1.66,-0.72,-0.72,-0.71
317.96,-2.55,-2.55,-1.83,-1.83,1.83,2.14,1.68,-0.72,-0.72,-0.72
321.14,-2.55,-2.55,-1.83,-1.83,1.83,2.16,1.70,-0.72,-0.72,-0.72
324.35,-2.56,-2.55,-1.84,-1.83,1.83,2.18,1.72,-0.72,-0.72,-0.72
327.59,-2.56,-2.56,-1.83,-1.84,1.84,2.20,1.74,-0.72,-0.72,-0.72
330.87,-2.57,-2.57,-1.84,-1.84,1.85,2.22,1.77,-0.72,-0.72,-0.72
334.18,-2.58,-2.58,-1.86,-1.86,1.86,2.24,1.80,-0.71,-0.71,-0.72
337.52,-2.59,-2.59,-1.88,-1.88,1.88,2.25,1.82,-0.71,-0.71,-0.71
340.90,-2.61,-2.60,-1.91,-1.90,1.90,2.27,1.85,-0.71,-0.70,-0.70
344.30,-2.62,-2.62,-1.93,-1.93,1.93,2.29,1.88,-0.69,-0.69,-0.69
347.75,-2.63,-2.63,-1.95,-1.96,1.95,2.31,1.92,-0.67,-0.68,-0.67
351.23,-2.65,-2.65,-1.98,-1.98,1.98,2.32,1.95,-0.66,-0.66,-0.66
354.74,-2.67,-2.66,-2.02,-2.01,2.02,2.34,1.98,-0.65,-0.65,-0.65
358.28,-2.68,-2.68,-2.04,-2.05,2.05,2.36,2.02,-0.63,-0.63,-0.64
361.87,-2.70,-2.70,-2.08,-2.08,2.09,2.37,2.06,-0.61,-0.61,-0.62
365.49,-2.72,-2.72,-2.13,-2.12,2.12,2.39,2.10,-0.59,-0.59,-0.59
369.14,-2.74,-2.74,-2.17,-2.17,2.16,2.40,2.14,-0.57,-0.57,-0.57
372.83,-2.76,-2.76,-2.21,-2.21,2.20,2.42,2.18,-0.56,-0.56,-0.55
376.56,-2.78,-2.78,-2.24,-2.24,2.24,2.43,2.23,-0.54,-0.54,-0.53
380.33,-2.80,-2.80,-2.28,-2.28,2.28,2.44,2.27,-0.51,-0.51,-0.51
384.13,-2.82,-2.82,-2.32,-2.32,2.32,2.46,2.32,-0.49,-0.49,-0.50
387.97,-2.84,-2.84,-2.36,-2.36,2.36,2.47,2.37,-0.47,-0.47,-0.48
391.85,-2.86,-2.86,-2.40,-2.40,2.40,2.48,2.42,-0.46,-0.46,-0.46
395.77,-2.88,-2.88,-2.44,-2.44,2.44,2.49,2.47,-0.44,-0.44,-0.44
399.73,-2.91,-2.90,-2.49,-2.48,2.48,2.51,2.52,-0.43,-0.42,-0.42
403.72,-2.93,-2.93,-2.52,-2.52,2.52,2.52,2.57,-0.41,-0.41,-0.41
407.76,-2.95,-2.95,-2.56,-2.56,2.56,2.53,2.62,-0.39,-0.39,-0.39
411.84,-2.97,-2.97,-2.60,-2.59,2.60,2.54,2.68,-0.37,-0.37,-0.37
415.96,-2.99,-2.99,-2.63,-2.63,2.64,2.55,2.73,-0.35,-0.35,-0.35
420.12,-3.02,-3.01,-2.67,-2.68,2.68,2.56,2.78,-0.34,-0.34,-0.34
424.32,-3.04,-3.04,-2.71,-2.71,2.71,2.57,2.83,-0.32,-0.32,-0.32
428.56,-3.06,-3.06,-2.75,-2.75,2.75,2.57,2.88,-0.31,-0.31,-0.30
432.85,-3.07,-3.07,-2.78,-2.79,2.78,2.58,2.93,-0.28,-0.29,-0.29
437.18,-3.09,-3.08,-2.82,-2.82,2.82,2.59,2.98,-0.27,-0.27,-0.27
441.55,-3.10,-3.10,-2.84,-2.84,2.85,2.60,3.03,-0.25,-0.25,-0.26
445.96,-3.11,-3.11,-2.87,-2.87,2.87,2.60,3.07,-0.23,-0.24,-0.24
450.42,-3.12,-3.11,-2.90,-2.90,2.90,2.61,3.11,-0.22,-0.22,-0.22
454.93,-3.12,-3.11,-2.92,-2.92,2.91,2.62,3.15,-0.20,-0.20,-0.20
459.48,-3.11,-3.11,-2.93,-2.93,2.93,2.62,3.19,-0.18,-0.18,-0.18
464.07,-3.10,-3.10,-2.94,-2.94,2.94,2.63,3.22,-0.16,-0.16,-0.16
468.71,-3.09,-3.09,-2.95,-2.95,2.94,2.63,3.25,-0.14,-0.14,-0.14
473.40,-3.07,-3.07,-2.95,-2.95,2.95,2.64,3.27,-0.12,-0.12,-0.12
478.13,-3.05,-3.05,-2.95,-2.94,2.94,2.64,3.29,-0.10,-0.10,-0.10
482.91,-3.02,-3.02,-2.94,-2.94,2.94,2.64,3.31,-0.08,-0.08,-0.08
487.74,-2.99,-2.99,-2.93,-2.93,2.93,2.64,3.32,-0.06,-0.06,-0.06
492.62,-2.96,-2.96,-2.92,-2.92,2.92,2.65,3.32,-0.04,-0.04,-0.04
497.55,-2.93,-2.92,-2.90,-2.90,2.91,2.65,3.32,-0.02,-0.02,-0.02
