frequency,raw,error,smoothed,error_smoothed,equalization,parametric_eq,fixed_band_eq,equalized_raw,equalized_smoothed,target
20.00,1.60,0.67,1.61,0.68,-0.63,-1.56,-1.44,0.97,0.98,0.93
20.20,1.68,0.70,1.67,0.69,-0.67,-1.57,-1.48,1.01,1.00,0.98
20.40,1.75,0.72,1.74,0.72,-0.72,-1.59,-1.53,1.03,1.02,1.03
20.61,1.83,0.77,1.82,0.75,-0.78,-1.61,-1.57,1.05,1.04,1.06
20.81,1.90,0.79,1.90,0.79,-0.84,-1.63,-1.62,1.06,1.06,1.11
21.02,1.98,0.83,2.00,0.86,-0.91,-1.65,-1.67,1.07,1.09,1.15
21.23,2.12,0.95,2.12,0.95,-0.99,-1.67,-1.72,1.13,1.13,1.17
21.44,2.26,1.07,2.26,1.07,-1.07,-1.70,-1.77,1.19,1.18,1.19
21.66,2.40,1.19,2.40,1.20,-1.18,-1.72,-1.82,1.22,1.23,1.21
21.87,2.54,1.32,2.54,1.31,-1.29,-1.74,-1.88,1.25,1.25,1.22
22.09,2.66,1.42,2.65,1.42,-1.40,-1.77,-1.93,1.26,1.25,1.24
22.31,2.75,1.50,2.76,1.51,-1.51,-1.79,-1.99,1.24,1.25,1.25
22.54,2.85,1.60,2.85,1.61,-1.60,-1.82,-2.05,1.24,1.25,1.25
22.76,2.94,1.69,2.94,1.70,-1.69,-1.85,-2.11,1.26,1.26,1.25
22.99,3.04,1.80,3.03,1.79,-1.76,-1.88,-2.17,1.28,1.27,1.24
23.22,3.09,1.85,3.09,1.86,-1.83,-1.91,-2.24,1.26,1.27,1.24
23.45,3.15,1.92,3.14,1.91,-1.91,-1.94,-2.30,1.24,1.24,1.24
23.69,3.20,1.95,3.19,1.95,-2.00,-1.97,-2.37,1.20,1.19,1.24
23.92,3.25,2.01,3.27,2.02,-2.10,-2.00,-2.43,1.15,1.17,1.24
24.16,3.37,2.12,3.38,2.12,-2.20,-2.04,-2.50,1.17,1.18,1.25
24.40,3.52,2.26,3.52,2.27,-2.28,-2.07,-2.57,1.24,1.24,1.26
24.65,3.67,2.42,3.68,2.43,-2.35,-2.11,-2.64,1.32,1.33,1.25
24.89,3.83,2.58,3.80,2.54,-2.41,-2.14,-2.71,1.42,1.39,1.25
25.14,3.87,2.62,3.85,2.60,-2.47,-2.18,-2.78,1.40,1.38,1.25
25.39,3.83,2.57,3.83,2.57,-2.54,-2.22,-2.86,1.29,1.29,1.26
25.65,3.79,2.53,3.78,2.52,-2.61,-2.26,-2.93,1.18,1.17,1.26
25.91,3.74,2.49,3.78,2.53,-2.68,-2.31,-3.00,1.06,1.10,1.25
26.16,3.85,2.60,3.87,2.62,-2.76,-2.35,-3.07,1.10,1.11,1.25
26.43,4.04,2.79,4.03,2.78,-2.84,-2.39,-3.14,1.20,1.20,1.25
26.69,4.22,2.97,4.22,2.97,-2.93,-2.44,-3.21,1.29,1.30,1.25
26.96,4.41,3.15,4.36,3.11,-3.02,-2.49,-3.28,1.39,1.35,1.26
27.23,4.44,3.18,4.44,3.19,-3.09,-2.53,-3.34,1.35,1.35,1.26
27.50,4.45,3.19,4.47,3.22,-3.15,-2.58,-3.41,1.30,1.32,1.26
27.77,4.46,3.21,4.46,3.21,-3.17,-2.63,-3.47,1.29,1.29,1.25
28.05,4.45,3.20,4.43,3.19,-3.17,-2.68,-3.53,1.28,1.26,1.25
28.33,4.38,3.15,4.38,3.14,-3.16,-2.73,-3.58,1.22,1.22,1.23
28.62,4.32,3.09,4.31,3.08,-3.14,-2.78,-3.63,1.18,1.17,1.23
28.90,4.25,3.01,4.28,3.04,-3.14,-2.84,-3.68,1.11,1.14,1.24
29.19,4.29,3.06,4.30,3.06,-3.14,-2.89,-3.72,1.15,1.16,1.23
29.48,4.38,3.13,4.38,3.13,-3.15,-2.94,-3.76,1.23,1.23,1.25
29.78,4.47,3.23,4.46,3.22,-3.16,-2.99,-3.79,1.31,1.30,1.24
30.08,4.53,3.28,4.50,3.26,-3.17,-3.04,-3.82,1.36,1.33,1.25
30.38,4.49,3.25,4.50,3.26,-3.18,-3.09,-3.84,1.31,1.32,1.24
30.68,4.46,3.22,4.46,3.23,-3.19,-3.14,-3.85,1.27,1.27,1.24
30.99,4.42,3.18,4.43,3.20,-3.21,-3.19,-3.86,1.21,1.22,1.24
31.30,4.42,3.19,4.41,3.17,-3.25,-3.23,-3.86,1.17,1.16,1.23
31.61,4.42,3.19,4.41,3.18,-3.29,-3.28,-3.86,1.13,1.12,1.23
31.93,4.42,3.19,4.46,3.23,-3.33,-3.32,-3.84,1.09,1.12,1.23
32.24,4.55,3.33,4.57,3.34,-3.38,-3.36,-3.83,1.18,1.20,1.22
32.57,4.71,3.48,4.72,3.49,-3.41,-3.39,-3.80,1.30,1.31,1.23
32.89,4.88,3.65,4.82,3.60,-3.44,-3.42,-3.77,1.44,1.38,1.23
33.22,4.84,3.62,4.81,3.59,-3.45,-3.45,-3.74,1.39,1.36,1.22
33.55,4.70,3.48,4.72,3.50,-3.45,-3.48,-3.70,1.25,1.26,1.21
33.89,4.56,3.36,4.60,3.39,-3.45,-3.49,-3.65,1.11,1.15,1.20
34.23,4.52,3.31,4.52,3.32,-3.44,-3.51,-3.60,1.08,1.08,1.21
34.57,4.52,3.32,4.50,3.30,-3.42,-3.52,-3.55,1.10,1.08,1.20
34.92,4.52,3.32,4.53,3.33,-3.40,-3.52,-3.49,1.12,1.13,1.20
35.27,4.57,3.37,4.59,3.39,-3.39,-3.52,-3.43,1.18,1.20,1.20
35.62,4.64,3.45,4.64,3.45,-3.37,-3.51,-3.37,1.27,1.28,1.19
35.97,4.71,3.52,4.66,3.47,-3.34,-3.50,-3.30,1.36,1.32,1.19
36.33,4.62,3.42,4.62,3.43,-3.32,-3.48,-3.23,1.30,1.30,1.20
36.70,4.51,3.32,4.53,3.34,-3.30,-3.46,-3.16,1.22,1.23,1.19
37.06,4.41,3.22,4.41,3.21,-3.28,-3.43,-3.09,1.13,1.13,1.18
37.43,4.33,3.13,4.31,3.12,-3.26,-3.40,-3.02,1.07,1.05,1.20
37.81,4.25,3.05,4.28,3.08,-3.23,-3.37,-2.94,1.02,1.04,1.20
38.19,4.29,3.09,4.35,3.15,-3.21,-3.32,-2.87,1.08,1.14,1.20
38.57,4.46,3.26,4.46,3.25,-3.18,-3.28,-2.79,1.28,1.28,1.20
38.95,4.63,3.42,4.53,3.32,-3.16,-3.23,-2.72,1.47,1.37,1.21
39.34,4.50,3.29,4.50,3.29,-3.15,-3.18,-2.65,1.35,1.34,1.21
39.74,4.34,3.14,4.38,3.17,-3.15,-3.13,-2.57,1.19,1.23,1.21
40.14,4.22,3.01,4.24,3.03,-3.14,-3.07,-2.50,1.09,1.10,1.21
40.54,4.18,2.97,4.17,2.96,-3.10,-3.01,-2.43,1.08,1.07,1.21
40.94,4.15,2.95,4.17,2.97,-3.03,-2.95,-2.36,1.12,1.14,1.21
41.35,4.19,2.99,4.21,3.01,-2.96,-2.89,-2.29,1.24,1.26,1.20
41.76,4.25,3.05,4.21,3.01,-2.88,-2.82,-2.22,1.37,1.33,1.20
42.18,4.18,2.97,4.12,2.92,-2.83,-2.76,-2.15,1.35,1.29,1.20
42.60,3.96,2.77,3.97,2.78,-2.77,-2.69,-2.09,1.18,1.20,1.19
43.03,3.75,2.56,3.83,2.64,-2.72,-2.63,-2.02,1.03,1.11,1.19
43.46,3.75,2.57,3.74,2.57,-2.66,-2.56,-1.96,1.09,1.08,1.18
43.90,3.75,2.59,3.72,2.56,-2.60,-2.50,-1.90,1.15,1.12,1.16
44.33,3.71,2.57,3.71,2.56,-2.54,-2.43,-1.84,1.17,1.16,1.14
44.78,3.65,2.52,3.66,2.53,-2.51,-2.36,-1.78,1.15,1.15,1.13
45.23,3.60,2.48,3.60,2.48,-2.48,-2.30,-1.72,1.12,1.12,1.12
45.68,3.55,2.44,3.55,2.45,-2.46,-2.23,-1.67,1.09,1.09,1.11
46.13,3.51,2.42,3.53,2.43,-2.43,-2.16,-1.61,1.08,1.10,1.09
46.60,3.50,2.40,3.49,2.41,-2.38,-2.10,-1.56,1.12,1.12,1.10
47.06,3.46,2.38,3.43,2.35,-2.30,-2.03,-1.51,1.16,1.13,1.08
47.53,3.34,2.27,3.34,2.26,-2.21,-1.97,-1.46,1.13,1.14,1.07
48.01,3.21,2.13,3.23,2.16,-2.11,-1.91,-1.41,1.10,1.12,1.08
48.49,3.10,2.04,3.10,2.04,-2.04,-1.84,-1.36,1.06,1.06,1.06
48.97,2.99,1.95,2.95,1.90,-1.98,-1.78,-1.32,1.01,0.97,1.04
49.46,2.83,1.80,2.82,1.79,-1.92,-1.72,-1.27,0.91,0.89,1.03
49.96,2.66,1.65,2.75,1.74,-1.86,-1.65,-1.23,0.80,0.90,1.01
50.46,2.76,1.75,2.76,1.75,-1.78,-1.59,-1.19,0.97,0.97,1.01
50.96,2.87,1.87,2.85,1.85,-1.71,-1.53,-1.15,1.16,1.13,1.00
51.47,2.86,1.87,2.88,1.89,-1.66,-1.47,-1.11,1.20,1.22,0.99
51.99,2.83,1.85,2.67,1.69,-1.60,-1.41,-1.07,1.23,1.07,0.98
52.51,2.41,1.44,2.42,1.44,-1.53,-1.35,-1.03,0.88,0.88,0.98
53.03,2.01,1.03,2.28,1.31,-1.45,-1.29,-0.99,0.56,0.83,0.98
53.56,2.27,1.30,2.22,1.25,-1.35,-1.23,-0.96,0.92,0.87,0.97
54.10,2.43,1.47,2.23,1.27,-1.24,-1.17,-0.92,1.19,0.99,0.96
54.64,2.15,1.20,2.19,1.24,-1.12,-1.10,-0.89,1.03,1.07,0.95
55.18,1.94,0.99,2.03,1.08,-1.03,-1.04,-0.86,0.91,0.99,0.95
55.74,1.89,0.95,1.87,0.93,-0.97,-0.98,-0.83,0.92,0.91,0.94
56.29,1.83,0.89,1.81,0.87,-0.91,-0.92,-0.80,0.92,0.90,0.94
56.86,1.74,0.81,1.73,0.81,-0.85,-0.86,-0.77,0.89,0.88,0.93
57.42,1.66,0.76,1.66,0.75,-0.79,-0.80,-0.74,0.87,0.87,0.90
58.00,1.57,0.67,1.62,0.72,-0.72,-0.74,-0.71,0.85,0.90,0.90
58.58,1.60,0.70,1.58,0.68,-0.65,-0.68,-0.69,0.95,0.93,0.90
59.16,1.57,0.68,1.51,0.62,-0.58,-0.62,-0.66,0.99,0.93,0.89
59.76,1.39,0.52,1.46,0.60,-0.50,-0.55,-0.64,0.89,0.96,0.87
60.35,1.31,0.47,1.35,0.51,-0.44,-0.49,-0.61,0.87,0.91,0.84
60.96,1.32,0.51,1.15,0.34,-0.38,-0.43,-0.59,0.94,0.77,0.81
61.57,0.94,0.16,0.98,0.20,-0.32,-0.37,-0.57,0.63,0.67,0.78
62.18,0.71,-0.03,0.87,0.12,-0.25,-0.31,-0.55,0.46,0.61,0.74
62.80,0.88,0.17,0.86,0.16,-0.20,-0.25,-0.53,0.68,0.67,0.71
63.43,0.97,0.30,0.92,0.25,-0.16,-0.20,-0.51,0.82,0.76,0.67
64.07,0.99,0.36,0.88,0.24,-0.11,-0.14,-0.49,0.88,0.76,0.63
64.71,0.65,0.06,0.71,0.11,-0.08,-0.09,-0.47,0.57,0.63,0.60
65.35,0.49,-0.08,0.57,0.00,-0.05,-0.04,-0.46,0.44,0.52,0.57
66.01,0.47,-0.06,0.52,-0.01,-0.01,0.01,-0.44,0.46,0.50,0.53
66.67,0.59,0.10,0.50,0.01,0.01,0.06,-0.42,0.60,0.51,0.49
67.33,0.50,0.05,0.40,-0.05,0.04,0.10,-0.41,0.54,0.45,0.45
68.01,0.19,-0.23,0.26,-0.15,0.09,0.14,-0.39,0.28,0.35,0.42
68.69,0.10,-0.28,0.23,-0.15,0.11,0.18,-0.38,0.21,0.34,0.38
69.37,0.22,-0.12,0.22,-0.12,0.13,0.21,-0.37,0.35,0.35,0.34
70.07,0.45,0.15,0.22,-0.08,0.15,0.24,-0.36,0.60,0.38,0.30
70.77,0.04,-0.22,0.20,-0.06,0.17,0.27,-0.34,0.21,0.38,0.26
71.48,0.01,-0.21,0.02,-0.20,0.19,0.29,-0.33,0.20,0.20,0.22
72.19,0.01,-0.16,-0.15,-0.32,0.20,0.30,-0.32,0.21,0.05,0.17
72.91,-0.38,-0.50,-0.13,-0.25,0.21,0.32,-0.31,-0.16,0.08,0.12
73.64,-0.09,-0.17,-0.16,-0.24,0.24,0.32,-0.30,0.15,0.08,0.08
74.38,-0.05,-0.08,-0.20,-0.23,0.27,0.33,-0.29,0.22,0.07,0.03
75.12,-0.31,-0.30,-0.21,-0.20,0.30,0.33,-0.28,-0.01,0.08,-0.01
75.87,-0.37,-0.31,-0.34,-0.28,0.30,0.32,-0.27,-0.07,-0.03,-0.06
76.63,-0.39,-0.29,-0.42,-0.33,0.28,0.32,-0.26,-0.11,-0.14,-0.10
77.40,-0.44,-0.31,-0.44,-0.31,0.26,0.31,-0.25,-0.18,-0.18,-0.13
78.17,-0.49,-0.31,-0.48,-0.31,0.24,0.29,-0.25,-0.25,-0.24,-0.18
78.95,-0.49,-0.29,-0.49,-0.29,0.22,0.28,-0.24,-0.27,-0.27,-0.20
79.74,-0.49,-0.25,-0.44,-0.20,0.20,0.26,-0.23,-0.29,-0.24,-0.24
80.54,-0.36,-0.09,-0.37,-0.09,0.18,0.24,-0.22,-0.18,-0.18,-0.27
81.35,-0.29,0.02,-0.36,-0.05,0.16,0.22,-0.21,-0.14,-0.21,-0.31
82.16,-0.39,-0.05,-0.41,-0.07,0.14,0.20,-0.21,-0.25,-0.28,-0.34
82.98,-0.59,-0.23,-0.51,-0.14,0.12,0.18,-0.20,-0.47,-0.39,-0.36
83.81,-0.59,-0.18,-0.59,-0.19,0.12,0.16,-0.19,-0.47,-0.47,-0.41
84.65,-0.59,-0.15,-0.61,-0.17,0.11,0.14,-0.18,-0.48,-0.50,-0.44
85.50,-0.59,-0.13,-0.59,-0.12,0.11,0.12,-0.18,-0.48,-0.48,-0.46
86.35,-0.59,-0.09,-0.59,-0.09,0.10,0.10,-0.17,-0.49,-0.49,-0.50
87.22,-0.59,-0.06,-0.59,-0.06,0.07,0.07,-0.16,-0.52,-0.52,-0.53
88.09,-0.59,-0.02,-0.59,-0.02,0.04,0.05,-0.16,-0.55,-0.56,-0.57
88.97,-0.59,0.01,-0.59,0.01,-0.01,0.03,-0.15,-0.60,-0.60,-0.60
89.86,-0.59,0.05,-0.59,0.05,-0.05,0.02,-0.14,-0.64,-0.64,-0.64
90.76,-0.58,0.09,-0.58,0.09,-0.09,-0.00,-0.14,-0.67,-0.67,-0.67
91.66,-0.58,0.12,-0.58,0.13,-0.12,-0.02,-0.13,-0.70,-0.70,-0.70
92.58,-0.58,0.17,-0.58,0.16,-0.16,-0.04,-0.12,-0.74,-0.74,-0.75
93.51,-0.58,0.19,-0.58,0.19,-0.19,-0.05,-0.12,-0.77,-0.77,-0.77
94.44,-0.58,0.22,-0.58,0.22,-0.22,-0.07,-0.11,-0.80,-0.80,-0.80
95.39,-0.58,0.25,-0.58,0.25,-0.24,-0.08,-0.10,-0.82,-0.83,-0.83
96.34,-0.59,0.28,-0.59,0.28,-0.28,-0.09,-0.10,-0.87,-0.86,-0.87
97.30,-0.59,0.31,-0.59,0.30,-0.31,-0.11,-0.09,-0.90,-0.91,-0.90
98.28,-0.60,0.33,-0.61,0.32,-0.35,-0.12,-0.08,-0.95,-0.96,-0.93
99.26,-0.62,0.33,-0.62,0.33,-0.39,-0.13,-0.08,-1.01,-1.01,-0.95
100.25,-0.63,0.35,-0.59,0.40,-0.41,-0.14,-0.07,-1.04,-0.99,-0.98
101.25,-0.58,0.43,-0.55,0.46,-0.41,-0.15,-0.07,-0.99,-0.97,-1.01
102.27,-0.46,0.58,-0.57,0.47,-0.40,-0.15,-0.06,-0.86,-0.97,-1.04
103.29,-0.65,0.43,-0.63,0.45,-0.36,-0.16,-0.06,-1.01,-0.99,-1.08
104.32,-0.79,0.31,-0.72,0.39,-0.33,-0.17,-0.05,-1.12,-1.05,-1.10
105.37,-0.82,0.31,-0.85,0.28,-0.30,-0.17,-0.04,-1.12,-1.15,-1.13
106.42,-0.89,0.27,-0.96,0.20,-0.28,-0.18,-0.04,-1.17,-1.24,-1.16
107.48,-1.10,0.10,-1.06,0.13,-0.24,-0.18,-0.03,-1.34,-1.31,-1.20
108.56,-1.19,0.05,-1.11,0.12,-0.22,-0.19,-0.03,-1.41,-1.33,-1.24
109.64,-1.07,0.20,-1.07,0.20,-0.20,-0.19,-0.02,-1.27,-1.27,-1.27
110.74,-0.96,0.35,-1.00,0.30,-0.20,-0.19,-0.02,-1.16,-1.20,-1.31
111.85,-0.96,0.37,-1.04,0.30,-0.21,-0.20,-0.01,-1.17,-1.25,-1.33
112.97,-1.14,0.23,-1.14,0.23,-0.22,-0.20,-0.01,-1.36,-1.36,-1.37
114.10,-1.36,0.04,-1.23,0.17,-0.22,-0.20,-0.01,-1.58,-1.45,-1.40
115.24,-1.24,0.19,-1.25,0.19,-0.21,-0.20,-0.00,-1.45,-1.45,-1.43
116.39,-1.19,0.28,-1.28,0.19,-0.18,-0.20,0.00,-1.37,-1.46,-1.47
117.55,-1.26,0.23,-1.31,0.18,-0.14,-0.20,0.01,-1.41,-1.45,-1.49
118.73,-1.52,-0.01,-1.40,0.11,-0.11,-0.20,0.01,-1.63,-1.50,-1.51
119.92,-1.44,0.08,-1.48,0.05,-0.08,-0.20,0.01,-1.52,-1.56,-1.52
121.12,-1.49,0.06,-1.52,0.03,-0.06,-0.21,0.01,-1.55,-1.58,-1.55
122.33,-1.54,0.02,-1.52,0.04,-0.03,-0.21,0.02,-1.57,-1.55,-1.56
123.55,-1.59,-0.02,-1.58,-0.00,0.01,-0.21,0.02,-1.58,-1.57,-1.57
124.79,-1.60,-0.01,-1.62,-0.04,0.05,-0.21,0.02,-1.55,-1.57,-1.59
126.03,-1.68,-0.08,-1.66,-0.07,0.08,-0.21,0.02,-1.60,-1.58,-1.60
127.29,-1.71,-0.11,-1.72,-0.11,0.11,-0.21,0.02,-1.60,-1.60,-1.60
128.57,-1.77,-0.14,-1.78,-0.15,0.14,-0.21,0.02,-1.63,-1.64,-1.63
129.85,-1.85,-0.21,-1.83,-0.19,0.18,-0.21,0.02,-1.67,-1.65,-1.64
131.15,-1.88,-0.22,-1.88,-0.23,0.22,-0.21,0.02,-1.66,-1.66,-1.66
132.46,-1.92,-0.25,-1.92,-0.25,0.24,-0.21,0.02,-1.68,-1.67,-1.67
133.79,-1.94,-0.26,-1.94,-0.26,0.25,-0.21,0.02,-1.69,-1.69,-1.68
135.12,-1.96,-0.26,-1.97,-0.28,0.26,-0.21,0.02,-1.70,-1.71,-1.70
136.48,-2.01,-0.31,-2.02,-0.31,0.26,-0.21,0.02,-1.75,-1.75,-1.70
137.84,-2.05,-0.33,-2.06,-0.34,0.29,-0.21,0.02,-1.76,-1.77,-1.72
139.22,-2.09,-0.35,-2.01,-0.27,0.33,-0.21,0.01,-1.76,-1.67,-1.74
140.61,-2.01,-0.25,-1.98,-0.22,0.37,-0.21,0.01,-1.64,-1.61,-1.76
142.02,-1.85,-0.09,-2.07,-0.31,0.40,-0.22,0.01,-1.45,-1.67,-1.76
143.44,-2.26,-0.48,-2.23,-0.44,0.43,-0.22,0.01,-1.83,-1.80,-1.78
144.87,-2.56,-0.75,-2.37,-0.57,0.46,-0.22,0.01,-2.10,-1.91,-1.80
146.32,-2.42,-0.59,-2.46,-0.63,0.49,-0.23,0.00,-1.93,-1.97,-1.83
147.78,-2.32,-0.47,-2.38,-0.53,0.51,-0.23,-0.00,-1.81,-1.87,-1.85
149.26,-2.31,-0.43,-2.29,-0.40,0.51,-0.24,-0.00,-1.80,-1.78,-1.88
150.75,-2.31,-0.37,-2.31,-0.38,0.45,-0.24,-0.01,-1.86,-1.86,-1.94
152.26,-2.32,-0.33,-2.40,-0.41,0.34,-0.25,-0.01,-1.97,-2.06,-1.99
153.78,-2.47,-0.42,-2.42,-0.37,0.23,-0.26,-0.01,-2.24,-2.19,-2.05
155.32,-2.48,-0.37,-2.33,-0.22,0.12,-0.27,-0.02,-2.36,-2.21,-2.11
156.88,-2.10,0.07,-2.18,-0.00,0.03,-0.28,-0.02,-2.07,-2.14,-2.17
158.44,-1.92,0.32,-2.03,0.22,-0.03,-0.29,-0.03,-1.95,-2.06,-2.24
160.03,-2.02,0.30,-1.98,0.34,-0.12,-0.30,-0.03,-2.14,-2.09,-2.32
161.63,-2.10,0.28,-2.12,0.25,-0.22,-0.32,-0.03,-2.32,-2.35,-2.38
163.24,-2.21,0.22,-2.22,0.20,-0.33,-0.33,-0.04,-2.54,-2.55,-2.43
164.88,-2.37,0.10,-2.23,0.24,-0.42,-0.35,-0.04,-2.79,-2.65,-2.47
166.53,-2.07,0.44,-2.18,0.33,-0.48,-0.37,-0.05,-2.55,-2.66,-2.51
168.19,-2.02,0.51,-1.99,0.55,-0.53,-0.40,-0.05,-2.55,-2.52,-2.53
169.87,-1.89,0.67,-1.79,0.77,-0.59,-0.42,-0.05,-2.48,-2.38,-2.56
171.57,-1.57,1.00,-1.79,0.78,-0.67,-0.45,-0.06,-2.24,-2.46,-2.57
173.29,-1.78,0.80,-1.79,0.79,-0.75,-0.48,-0.06,-2.53,-2.54,-2.58
175.02,-2.04,0.53,-1.81,0.77,-0.81,-0.52,-0.07,-2.85,-2.62,-2.57
176.77,-1.74,0.84,-1.83,0.75,-0.84,-0.56,-0.07,-2.58,-2.67,-2.58
178.54,-1.68,0.90,-1.74,0.83,-0.85,-0.60,-0.08,-2.53,-2.59,-2.58
180.32,-1.68,0.88,-1.65,0.91,-0.86,-0.64,-0.08,-2.54,-2.51,-2.56
182.13,-1.67,0.88,-1.67,0.89,-0.88,-0.69,-0.09,-2.55,-2.55,-2.55
183.95,-1.66,0.89,-1.66,0.89,-0.92,-0.74,-0.09,-2.58,-2.58,-2.55
185.79,-1.65,0.89,-1.66,0.88,-0.95,-0.78,-0.10,-2.60,-2.61,-2.54
187.65,-1.63,0.93,-1.63,0.93,-0.97,-0.83,-0.10,-2.60,-2.60,-2.56
189.52,-1.62,0.94,-1.53,1.03,-0.98,-0.86,-0.11,-2.60,-2.51,-2.56
191.42,-1.44,1.13,-1.50,1.07,-0.98,-0.89,-0.11,-2.42,-2.48,-2.57
193.33,-1.42,1.16,-1.57,1.02,-0.97,-0.91,-0.12,-2.39,-2.53,-2.58
195.27,-1.77,0.83,-1.64,0.95,-0.94,-0.92,-0.12,-2.71,-2.58,-2.60
197.22,-1.84,0.77,-1.74,0.87,-0.90,-0.92,-0.12,-2.74,-2.64,-2.61
199.19,-1.70,0.93,-1.82,0.81,-0.85,-0.90,-0.13,-2.55,-2.67,-2.63
201.18,-1.82,0.82,-1.84,0.80,-0.78,-0.87,-0.13,-2.60,-2.63,-2.64
203.19,-1.98,0.67,-1.92,0.73,-0.71,-0.84,-0.14,-2.69,-2.63,-2.65
205.23,-2.04,0.63,-2.04,0.62,-0.64,-0.79,-0.14,-2.68,-2.68,-2.67
207.28,-2.09,0.58,-2.11,0.57,-0.59,-0.75,-0.15,-2.68,-2.69,-2.67
209.35,-2.16,0.53,-2.15,0.54,-0.54,-0.69,-0.15,-2.70,-2.69,-2.69
211.44,-2.21,0.51,-2.22,0.49,-0.49,-0.64,-0.15,-2.70,-2.71,-2.72
213.56,-2.27,0.45,-2.27,0.45,-0.46,-0.58,-0.16,-2.73,-2.72,-2.72
215.69,-2.32,0.40,-2.31,0.42,-0.42,-0.53,-0.16,-2.74,-2.73,-2.72
217.85,-2.33,0.40,-2.35,0.38,-0.39,-0.48,-0.16,-2.72,-2.74,-2.73
220.03,-2.39,0.35,-2.39,0.36,-0.35,-0.43,-0.17,-2.74,-2.74,-2.74
222.23,-2.43,0.33,-2.42,0.33,-0.30,-0.39,-0.17,-2.73,-2.71,-2.76
224.45,-2.43,0.31,-2.42,0.33,-0.26,-0.34,-0.17,-2.69,-2.68,-2.74
226.70,-2.43,0.31,-2.43,0.31,-0.26,-0.31,-0.17,-2.69,-2.69,-2.74
228.96,-2.42,0.31,-2.50,0.22,-0.27,-0.27,-0.17,-2.69,-2.77,-2.73
231.25,-2.59,0.12,-2.57,0.14,-0.29,-0.23,-0.17,-2.88,-2.86,-2.71
233.57,-2.64,0.06,-2.54,0.16,-0.31,-0.20,-0.17,-2.95,-2.85,-2.70
235.90,-2.43,0.26,-2.37,0.32,-0.33,-0.17,-0.17,-2.76,-2.70,-2.69
238.26,-2.08,0.59,-2.16,0.50,-0.36,-0.15,-0.17,-2.44,-2.53,-2.67
240.64,-1.94,0.71,-2.09,0.55,-0.41,-0.12,-0.16,-2.35,-2.50,-2.65
243.05,-2.18,0.43,-2.11,0.50,-0.45,-0.10,-0.16,-2.63,-2.56,-2.61
245.48,-2.31,0.28,-2.16,0.42,-0.50,-0.07,-0.16,-2.81,-2.66,-2.59
247.93,-2.07,0.48,-2.14,0.42,-0.53,-0.05,-0.15,-2.60,-2.67,-2.55
250.41,-2.00,0.54,-2.04,0.49,-0.53,-0.03,-0.15,-2.53,-2.57,-2.54
252.92,-1.97,0.53,-1.96,0.55,-0.51,-0.01,-0.14,-2.48,-2.46,-2.50
255.45,-1.96,0.52,-1.94,0.54,-0.48,0.01,-0.13,-2.44,-2.42,-2.48
258.00,-1.95,0.50,-1.96,0.49,-0.45,0.03,-0.12,-2.40,-2.41,-2.45
260.58,-1.96,0.47,-1.98,0.45,-0.42,0.05,-0.11,-2.38,-2.40,-2.43
263.19,-2.08,0.32,-2.05,0.36,-0.38,0.07,-0.10,-2.46,-2.43,-2.40
265.82,-2.09,0.29,-2.14,0.24,-0.31,0.09,-0.09,-2.40,-2.45,-2.38
268.48,-2.24,0.12,-2.17,0.19,-0.21,0.11,-0.08,-2.45,-2.38,-2.36
271.16,-2.23,0.09,-2.19,0.13,-0.10,0.13,-0.07,-2.33,-2.29,-2.32
273.87,-2.12,0.18,-2.26,0.04,0.03,0.15,-0.06,-2.09,-2.23,-2.30
276.61,-2.40,-0.13,-2.34,-0.07,0.16,0.17,-0.04,-2.24,-2.18,-2.27
279.38,-2.52,-0.28,-2.49,-0.25,0.29,0.19,-0.03,-2.23,-2.20,-2.24
282.17,-2.63,-0.42,-2.66,-0.45,0.40,0.21,-0.01,-2.23,-2.26,-2.21
284.99,-2.76,-0.58,-2.76,-0.58,0.51,0.23,0.00,-2.25,-2.26,-2.18
287.84,-2.87,-0.71,-2.86,-0.71,0.61,0.25,0.02,-2.26,-2.26,-2.16
290.72,-2.90,-0.78,-2.88,-0.76,0.69,0.27,0.04,-2.21,-2.19,-2.12
293.63,-2.88,-0.79,-2.83,-0.74,0.76,0.30,0.05,-2.12,-2.07,-2.09
296.57,-2.71,-0.65,-2.79,-0.72,0.80,0.32,0.07,-1.91,-1.98,-2.06
299.53,-2.73,-0.70,-2.78,-0.75,0.82,0.35,0.09,-1.91,-1.95,-2.03
302.53,-2.87,-0.86,-2.81,-0.81,0.82,0.38,0.11,-2.05,-1.98,-2.01
305.55,-2.85,-0.89,-2.85,-0.87,0.82,0.41,0.13,-2.03,-2.03,-1.96
308.61,-2.82,-0.87,-2.82,-0.87,0.80,0.44,0.15,-2.02,-2.01,-1.94
311.69,-2.74,-0.82,-2.74,-0.83,0.80,0.47,0.17,-1.94,-1.94,-1.92
314.81,-2.65,-0.76,-2.67,-0.78,0.79,0.51,0.19,-1.86,-1.88,-1.89
317.96,-2.62,-0.75,-2.60,-0.73,0.77,0.54,0.21,-1.85,-1.84,-1.87
321.14,-2.55,-0.69,-2.56,-0.70,0.73,0.58,0.23,-1.82,-1.83,-1.86
324.35,-2.53,-0.69,-2.54,-0.69,0.70,0.62,0.26,-1.83,-1.84,-1.84
327.59,-2.53,-0.70,-2.54,-0.71,0.67,0.67,0.28,-1.86,-1.87,-1.83
330.87,-2.53,-0.71,-2.52,-0.71,0.66,0.71,0.30,-1.87,-1.86,-1.82
334.18,-2.53,-0.73,-2.47,-0.67,0.68,0.76,0.32,-1.85,-1.79,-1.80
337.52,-2.40,-0.61,-2.45,-0.66,0.72,0.81,0.35,-1.68,-1.73,-1.79
340.90,-2.42,-0.65,-2.48,-0.71,0.78,0.87,0.37,-1.64,-1.70,-1.77
344.30,-2.62,-0.86,-2.56,-0.80,0.85,0.93,0.40,-1.77,-1.71,-1.76
347.75,-2.71,-0.95,-2.70,-0.94,0.93,0.98,0.42,-1.78,-1.76,-1.76
351.23,-2.80,-1.04,-2.83,-1.07,1.02,1.04,0.45,-1.78,-1.81,-1.76
354.74,-2.92,-1.16,-2.92,-1.17,1.10,1.10,0.47,-1.82,-1.82,-1.76
358.28,-3.03,-1.28,-2.99,-1.24,1.19,1.16,0.50,-1.84,-1.80,-1.75
361.87,-3.04,-1.29,-3.03,-1.29,1.27,1.23,0.52,-1.77,-1.76,-1.75
365.49,-3.03,-1.29,-3.09,-1.34,1.35,1.28,0.55,-1.68,-1.74,-1.74
369.14,-3.12,-1.37,-3.12,-1.37,1.42,1.34,0.58,-1.70,-1.70,-1.75
372.83,-3.24,-1.49,-3.15,-1.40,1.48,1.39,0.61,-1.76,-1.68,-1.75
376.56,-3.16,-1.41,-3.23,-1.48,1.52,1.44,0.63,-1.64,-1.71,-1.75
380.33,-3.25,-1.51,-3.31,-1.56,1.54,1.48,0.66,-1.71,-1.76,-1.74
384.13,-3.44,-1.69,-3.35,-1.60,1.55,1.51,0.69,-1.89,-1.81,-1.75
387.97,-3.40,-1.64,-3.38,-1.62,1.52,1.53,0.72,-1.88,-1.86,-1.76
391.85,-3.28,-1.51,-3.33,-1.57,1.46,1.54,0.75,-1.82,-1.87,-1.77
395.77,-3.20,-1.44,-3.19,-1.43,1.39,1.54,0.78,-1.81,-1.81,-1.76
399.73,-3.10,-1.33,-3.05,-1.28,1.31,1.53,0.80,-1.79,-1.74,-1.77
403.72,-2.89,-1.12,-2.94,-1.17,1.23,1.51,0.83,-1.66,-1.71,-1.77
407.76,-2.82,-1.04,-2.85,-1.07,1.17,1.48,0.86,-1.65,-1.68,-1.78
411.84,-2.84,-1.06,-2.79,-1.01,1.13,1.44,0.89,-1.71,-1.66,-1.78
415.96,-2.81,-1.03,-2.83,-1.04,1.11,1.39,0.92,-1.70,-1.72,-1.78
420.12,-2.84,-1.06,-2.92,-1.13,1.12,1.34,0.95,-1.72,-1.79,-1.78
424.32,-3.05,-1.27,-2.99,-1.21,1.16,1.28,0.97,-1.89,-1.83,-1.78
428.56,-3.10,-1.33,-3.03,-1.26,1.20,1.23,1.00,-1.90,-1.83,-1.77
432.85,-3.00,-1.24,-3.04,-1.28,1.24,1.16,1.03,-1.76,-1.80,-1.76
437.18,-2.93,-1.18,-2.99,-1.25,1.26,1.10,1.05,-1.67,-1.73,-1.75
441.55,-3.01,-1.30,-2.96,-1.24,1.24,1.04,1.07,-1.77,-1.72,-1.71
445.96,-2.91,-1.22,-2.92,-1.23,1.19,0.98,1.10,-1.72,-1.73,-1.69
450.42,-2.84,-1.18,-2.82,-1.17,1.11,0.92,1.12,-1.73,-1.72,-1.66
454.93,-2.66,-1.05,-2.65,-1.04,1.00,0.87,1.14,-1.66,-1.65,-1.61
459.48,-2.44,-0.88,-2.47,-0.91,0.89,0.81,1.15,-1.55,-1.58,-1.56
464.07,-2.27,-0.76,-2.26,-0.76,0.77,0.76,1.17,-1.50,-1.49,-1.51
468.71,-2.09,-0.64,-2.08,-0.63,0.66,0.71,1.18,-1.43,-1.42,-1.45
473.40,-1.90,-0.49,-1.92,-0.52,0.57,0.67,1.20,-1.33,-1.35,-1.41
