frequency,raw,smoothed,error,error_smoothed,equalization,parametric_eq,fixed_band_eq,equalized_raw,equalized_smoothed,target
20.00,2.50,2.50,-1.66,-1.66,1.66,1.48,0.24,4.16,4.16,4.15
20.20,2.54,2.54,-1.65,-1.64,1.65,1.45,0.25,4.18,4.19,4.18
20.40,2.59,2.58,-1.63,-1.63,1.63,1.42,0.26,4.22,4.21,4.21
20.61,2.63,2.63,-1.61,-1.61,1.61,1.39,0.27,4.24,4.24,4.23
20.81,2.67,2.67,-1.60,-1.59,1.59,1.36,0.27,4.26,4.26,4.26
21.02,2.72,2.71,-1.58,-1.57,1.57,1.33,0.28,4.28,4.28,4.29
21.23,2.76,2.76,-1.55,-1.55,1.54,1.30,0.29,4.30,4.30,4.30
21.44,2.80,2.80,-1.51,-1.52,1.51,1.27,0.30,4.31,4.31,4.31
21.66,2.84,2.84,-1.48,-1.48,1.48,1.24,0.31,4.32,4.32,4.32
21.87,2.88,2.88,-1.44,-1.45,1.45,1.21,0.33,4.33,4.33,4.32
22.09,2.92,2.91,-1.41,-1.41,1.41,1.18,0.34,4.33,4.33,4.33
22.31,2.95,2.95,-1.38,-1.38,1.38,1.15,0.35,4.32,4.33,4.33
22.54,2.99,2.99,-1.34,-1.34,1.34,1.12,0.36,4.32,4.32,4.33
22.76,3.03,3.03,-1.30,-1.30,1.30,1.09,0.37,4.32,4.32,4.33
22.99,3.07,3.07,-1.25,-1.25,1.25,1.06,0.38,4.32,4.32,4.32
23.22,3.11,3.11,-1.21,-1.21,1.21,1.03,0.40,4.32,4.32,4.32
23.45,3.15,3.15,-1.17,-1.17,1.17,1.00,0.41,4.32,4.32,4.32
23.69,3.19,3.19,-1.13,-1.13,1.13,0.97,0.42,4.32,4.32,4.31
23.92,3.23,3.23,-1.09,-1.09,1.09,0.95,0.43,4.32,4.32,4.31
24.16,3.27,3.27,-1.06,-1.05,1.05,0.92,0.45,4.32,4.32,4.32
24.40,3.31,3.30,-1.01,-1.01,1.01,0.89,0.46,4.32,4.32,4.32
24.65,3.34,3.34,-0.98,-0.98,0.98,0.86,0.47,4.31,4.32,4.31
24.89,3.38,3.38,-0.93,-0.94,0.94,0.83,0.49,4.32,4.31,4.31
25.14,3.41,3.41,-0.90,-0.90,0.90,0.80,0.50,4.31,4.31,4.31
25.39,3.45,3.44,-0.86,-0.86,0.86,0.77,0.51,4.31,4.31,4.31
25.65,3.48,3.48,-0.83,-0.83,0.83,0.74,0.53,4.30,4.30,4.31
25.91,3.51,3.51,-0.79,-0.79,0.79,0.71,0.54,4.29,4.30,4.30
26.16,3.55,3.54,-0.75,-0.75,0.75,0.68,0.55,4.30,4.30,4.30
26.43,3.58,3.58,-0.72,-0.71,0.72,0.65,0.57,4.29,4.30,4.29
26.69,3.62,3.61,-0.68,-0.68,0.68,0.62,0.58,4.30,4.30,4.29
26.96,3.65,3.65,-0.65,-0.65,0.65,0.59,0.59,4.29,4.29,4.29
27.23,3.68,3.68,-0.61,-0.61,0.61,0.56,0.60,4.29,4.29,4.29
27.50,3.71,3.71,-0.58,-0.58,0.58,0.53,0.61,4.28,4.28,4.29
27.77,3.74,3.74,-0.54,-0.54,0.54,0.50,0.62,4.28,4.28,4.28
28.05,3.77,3.77,-0.51,-0.51,0.51,0.47,0.63,4.27,4.27,4.28
28.33,3.80,3.80,-0.47,-0.47,0.47,0.44,0.63,4.27,4.27,4.26
28.62,3.83,3.83,-0.44,-0.44,0.44,0.41,0.64,4.27,4.27,4.26
28.90,3.86,3.86,-0.40,-0.40,0.40,0.38,0.64,4.26,4.26,4.26
29.19,3.89,3.89,-0.36,-0.37,0.37,0.35,0.65,4.26,4.26,4.25
29.48,3.92,3.91,-0.34,-0.34,0.34,0.33,0.65,4.25,4.25,4.26
29.78,3.94,3.94,-0.31,-0.31,0.30,0.30,0.65,4.24,4.24,4.25
30.08,3.97,3.97,-0.28,-0.28,0.27,0.27,0.65,4.24,4.24,4.24
30.38,4.00,3.99,-0.24,-0.24,0.24,0.24,0.64,4.24,4.24,4.23
30.68,4.03,4.02,-0.20,-0.20,0.21,0.21,0.64,4.23,4.23,4.23
30.99,4.05,4.05,-0.17,-0.17,0.17,0.18,0.63,4.22,4.22,4.22
31.30,4.08,4.07,-0.14,-0.14,0.14,0.15,0.62,4.22,4.22,4.22
31.61,4.10,4.10,-0.12,-0.11,0.11,0.13,0.61,4.21,4.21,4.21
31.93,4.13,4.12,-0.08,-0.08,0.08,0.10,0.60,4.20,4.20,4.20
32.24,4.15,4.15,-0.04,-0.05,0.04,0.07,0.58,4.19,4.19,4.19
32.57,4.18,4.17,-0.01,-0.01,0.01,0.04,0.57,4.19,4.19,4.19
32.89,4.20,4.20,0.01,0.02,-0.02,0.02,0.55,4.18,4.18,4.18
33.22,4.23,4.22,0.06,0.05,-0.05,-0.01,0.53,4.18,4.18,4.17
33.55,4.25,4.25,0.08,0.08,-0.08,-0.04,0.51,4.17,4.17,4.17
33.89,4.27,4.27,0.11,0.11,-0.11,-0.07,0.49,4.15,4.16,4.16
34.23,4.29,4.29,0.13,0.14,-0.14,-0.09,0.46,4.14,4.15,4.15
34.57,4.32,4.31,0.18,0.17,-0.17,-0.12,0.43,4.14,4.14,4.14
34.92,4.34,4.34,0.21,0.21,-0.20,-0.15,0.41,4.13,4.13,4.13
35.27,4.36,4.36,0.23,0.24,-0.24,-0.17,0.38,4.12,4.12,4.12
35.62,4.38,4.38,0.27,0.27,-0.27,-0.20,0.35,4.11,4.11,4.11
35.97,4.40,4.40,0.30,0.30,-0.30,-0.23,0.32,4.10,4.10,4.10
36.33,4.42,4.41,0.32,0.33,-0.33,-0.25,0.29,4.09,4.09,4.09
36.70,4.43,4.43,0.35,0.35,-0.35,-0.28,0.25,4.07,4.08,4.08
37.06,4.45,4.45,0.38,0.38,-0.38,-0.30,0.22,4.07,4.07,4.06
37.43,4.47,4.47,0.41,0.41,-0.41,-0.33,0.18,4.06,4.06,4.06
37.81,4.49,4.48,0.44,0.44,-0.44,-0.35,0.15,4.05,4.05,4.05
38.19,4.50,4.50,0.47,0.46,-0.46,-0.38,0.11,4.03,4.03,4.03
38.57,4.52,4.51,0.49,0.49,-0.49,-0.40,0.08,4.02,4.02,4.03
38.95,4.53,4.53,0.52,0.52,-0.52,-0.43,0.04,4.01,4.01,4.01
39.34,4.55,4.54,0.55,0.55,-0.55,-0.45,0.00,4.00,4.00,4.00
39.74,4.56,4.56,0.58,0.58,-0.57,-0.48,-0.04,3.98,3.99,3.98
40.14,4.58,4.57,0.60,0.60,-0.60,-0.50,-0.07,3.98,3.97,3.98
40.54,4.59,4.59,0.63,0.62,-0.62,-0.53,-0.11,3.96,3.96,3.96
40.94,4.60,4.60,0.64,0.65,-0.65,-0.55,-0.15,3.95,3.95,3.95
41.35,4.62,4.61,0.68,0.67,-0.67,-0.58,-0.19,3.95,3.94,3.94
41.76,4.63,4.63,0.69,0.69,-0.69,-0.60,-0.23,3.94,3.93,3.93
42.18,4.64,4.64,0.71,0.72,-0.71,-0.62,-0.27,3.92,3.92,3.93
42.60,4.65,4.65,0.74,0.73,-0.74,-0.65,-0.31,3.91,3.91,3.91
43.03,4.66,4.66,0.75,0.76,-0.76,-0.67,-0.35,3.89,3.89,3.90
43.46,4.67,4.67,0.78,0.79,-0.79,-0.69,-0.40,3.88,3.88,3.88
43.90,4.68,4.68,0.82,0.82,-0.82,-0.72,-0.44,3.86,3.86,3.86
44.33,4.69,4.69,0.85,0.85,-0.84,-0.74,-0.48,3.84,3.84,3.84
44.78,4.70,4.70,0.88,0.88,-0.87,-0.76,-0.52,3.82,3.83,3.82
45.23,4.71,4.71,0.90,0.90,-0.90,-0.79,-0.56,3.81,3.81,3.80
45.68,4.72,4.71,0.93,0.93,-0.92,-0.81,-0.61,3.79,3.79,3.78
46.13,4.72,4.72,0.95,0.95,-0.95,-0.83,-0.65,3.77,3.77,3.77
46.60,4.73,4.73,0.97,0.97,-0.97,-0.85,-0.69,3.75,3.75,3.76
47.06,4.74,4.73,1.00,1.00,-1.00,-0.88,-0.74,3.74,3.73,3.74
47.53,4.74,4.74,1.02,1.02,-1.02,-0.90,-0.78,3.71,3.72,3.72
48.01,4.75,4.74,1.04,1.04,-1.05,-0.92,-0.83,3.69,3.69,3.71
48.49,4.75,4.75,1.07,1.07,-1.08,-0.94,-0.87,3.67,3.67,3.68
48.97,4.76,4.75,1.11,1.11,-1.11,-0.96,-0.92,3.65,3.65,3.64
49.46,4.76,4.76,1.14,1.15,-1.14,-0.99,-0.96,3.62,3.62,3.61
49.96,4.77,4.76,1.18,1.18,-1.17,-1.01,-1.01,3.60,3.60,3.58
50.46,4.77,4.77,1.20,1.20,-1.20,-1.03,-1.05,3.57,3.57,3.57
50.96,4.77,4.77,1.22,1.23,-1.22,-1.05,-1.09,3.54,3.54,3.55
51.47,4.77,4.77,1.25,1.25,-1.25,-1.07,-1.14,3.52,3.52,3.51
51.99,4.77,4.77,1.28,1.27,-1.27,-1.09,-1.18,3.49,3.49,3.49
52.51,4.77,4.77,1.29,1.29,-1.30,-1.11,-1.23,3.47,3.47,3.48
53.03,4.77,4.77,1.31,1.32,-1.32,-1.14,-1.27,3.45,3.45,3.45
53.56,4.77,4.77,1.34,1.34,-1.34,-1.16,-1.32,3.42,3.42,3.43
54.10,4.77,4.77,1.37,1.37,-1.37,-1.18,-1.36,3.40,3.40,3.40
54.64,4.77,4.77,1.39,1.39,-1.39,-1.20,-1.40,3.37,3.37,3.38
55.18,4.77,4.77,1.42,1.42,-1.42,-1.22,-1.44,3.35,3.35,3.35
55.74,4.77,4.77,1.44,1.44,-1.44,-1.24,-1.48,3.33,3.33,3.32
56.29,4.77,4.77,1.46,1.47,-1.46,-1.26,-1.52,3.30,3.30,3.30
56.86,4.77,4.76,1.49,1.49,-1.48,-1.29,-1.56,3.28,3.28,3.28
57.42,4.76,4.76,1.51,1.51,-1.50,-1.31,-1.59,3.25,3.26,3.25
58.00,4.76,4.75,1.53,1.53,-1.52,-1.33,-1.63,3.23,3.23,3.23
58.58,4.75,4.75,1.54,1.54,-1.54,-1.35,-1.66,3.21,3.21,3.21
59.16,4.75,4.74,1.56,1.56,-1.56,-1.37,-1.69,3.19,3.18,3.19
59.76,4.74,4.74,1.57,1.57,-1.58,-1.39,-1.72,3.16,3.16,3.17
60.35,4.74,4.73,1.60,1.60,-1.60,-1.41,-1.75,3.13,3.13,3.14
60.96,4.73,4.73,1.61,1.62,-1.63,-1.44,-1.78,3.10,3.10,3.11
61.57,4.73,4.72,1.66,1.65,-1.65,-1.46,-1.80,3.08,3.08,3.07
62.18,4.72,4.72,1.68,1.68,-1.67,-1.48,-1.82,3.04,3.04,3.04
62.80,4.71,4.71,1.70,1.70,-1.70,-1.50,-1.84,3.01,3.01,3.01
63.43,4.70,4.70,1.72,1.72,-1.72,-1.52,-1.86,2.98,2.98,2.98
64.07,4.70,4.69,1.75,1.74,-1.74,-1.55,-1.88,2.95,2.95,2.95
64.71,4.69,4.69,1.76,1.76,-1.76,-1.57,-1.89,2.92,2.92,2.92
65.35,4.68,4.68,1.78,1.78,-1.78,-1.59,-1.90,2.89,2.90,2.90
66.01,4.67,4.67,1.80,1.80,-1.80,-1.61,-1.91,2.87,2.87,2.87
66.67,4.66,4.66,1.82,1.82,-1.82,-1.64,-1.92,2.84,2.84,2.84
67.33,4.65,4.65,1.84,1.84,-1.84,-1.66,-1.93,2.81,2.81,2.81
68.01,4.64,4.64,1.86,1.86,-1.86,-1.68,-1.94,2.78,2.78,2.78
68.69,4.63,4.62,1.88,1.88,-1.87,-1.71,-1.94,2.75,2.75,2.75
69.37,4.61,4.61,1.89,1.89,-1.89,-1.73,-1.94,2.71,2.72,2.72
70.07,4.60,4.60,1.91,1.91,-1.91,-1.75,-1.95,2.69,2.69,2.68
70.77,4.59,4.58,1.93,1.93,-1.93,-1.78,-1.95,2.66,2.65,2.66
71.48,4.57,4.57,1.94,1.95,-1.95,-1.80,-1.95,2.62,2.62,2.62
72.19,4.56,4.55,1.97,1.97,-1.97,-1.83,-1.95,2.59,2.59,2.59
72.91,4.54,4.54,1.98,1.98,-1.99,-1.85,-1.96,2.55,2.55,2.55
73.64,4.53,4.52,2.01,2.01,-2.00,-1.88,-1.96,2.52,2.52,2.52
74.38,4.51,4.51,2.02,2.02,-2.02,-1.90,-1.96,2.49,2.49,2.49
75.12,4.50,4.49,2.05,2.04,-2.04,-1.93,-1.96,2.46,2.45,2.45
75.87,4.48,4.48,2.06,2.05,-2.06,-1.95,-1.97,2.42,2.42,2.42
76.63,4.46,4.46,2.07,2.07,-2.07,-1.98,-1.97,2.39,2.39,2.39
77.40,4.45,4.44,2.09,2.09,-2.09,-2.00,-1.97,2.36,2.36,2.36
78.17,4.43,4.43,2.11,2.10,-2.10,-2.03,-1.98,2.32,2.32,2.32
78.95,4.41,4.41,2.11,2.12,-2.12,-2.05,-1.99,2.29,2.29,2.30
79.74,4.39,4.39,2.12,2.13,-2.13,-2.08,-1.99,2.26,2.26,2.26
80.54,4.38,4.37,2.15,2.15,-2.15,-2.11,-2.00,2.23,2.23,2.23
81.35,4.36,4.36,2.16,2.16,-2.16,-2.13,-2.01,2.20,2.20,2.19
82.16,4.34,4.34,2.18,2.18,-2.17,-2.16,-2.02,2.16,2.16,2.16
82.98,4.32,4.31,2.19,2.19,-2.19,-2.19,-2.04,2.13,2.12,2.13
83.81,4.29,4.29,2.20,2.20,-2.20,-2.21,-2.05,2.08,2.09,2.08
84.65,4.27,4.27,2.22,2.22,-2.22,-2.24,-2.07,2.05,2.05,2.05
85.50,4.25,4.25,2.23,2.23,-2.23,-2.27,-2.08,2.01,2.01,2.02
86.35,4.23,4.23,2.25,2.25,-2.25,-2.30,-2.10,1.98,1.98,1.98
87.22,4.21,4.20,2.27,2.26,-2.26,-2.32,-2.12,1.94,1.94,1.94
88.09,4.18,4.18,2.28,2.28,-2.28,-2.35,-2.14,1.90,1.90,1.90
88.97,4.16,4.16,2.29,2.29,-2.30,-2.38,-2.17,1.86,1.86,1.87
89.86,4.14,4.13,2.31,2.31,-2.31,-2.41,-2.19,1.82,1.82,1.83
90.76,4.11,4.11,2.33,2.33,-2.33,-2.43,-2.22,1.78,1.78,1.77
91.66,4.09,4.08,2.35,2.35,-2.35,-2.46,-2.25,1.74,1.74,1.74
92.58,4.06,4.06,2.37,2.36,-2.36,-2.49,-2.28,1.69,1.69,1.69
93.51,4.03,4.03,2.37,2.38,-2.38,-2.52,-2.31,1.65,1.65,1.65
94.44,4.01,4.00,2.40,2.40,-2.40,-2.54,-2.35,1.61,1.61,1.61
95.39,3.98,3.98,2.41,2.41,-2.41,-2.57,-2.38,1.56,1.56,1.57
96.34,3.95,3.95,2.44,2.43,-2.43,-2.60,-2.42,1.52,1.52,1.51
97.30,3.92,3.92,2.45,2.45,-2.45,-2.63,-2.46,1.47,1.47,1.47
98.28,3.89,3.89,2.47,2.47,-2.47,-2.65,-2.50,1.42,1.42,1.42
99.26,3.86,3.86,2.48,2.48,-2.48,-2.68,-2.54,1.37,1.37,1.38
100.25,3.83,3.83,2.50,2.50,-2.50,-2.71,-2.58,1.33,1.33,1.33
101.25,3.80,3.80,2.51,2.51,-2.52,-2.73,-2.62,1.28,1.28,1.28
102.27,3.77,3.77,2.53,2.53,-2.53,-2.76,-2.66,1.24,1.24,1.24
103.29,3.74,3.74,2.56,2.55,-2.55,-2.79,-2.71,1.19,1.19,1.18
104.32,3.71,3.70,2.56,2.56,-2.56,-2.81,-2.75,1.15,1.14,1.14
105.37,3.67,3.67,2.57,2.57,-2.57,-2.84,-2.79,1.09,1.10,1.10
106.42,3.64,3.64,2.58,2.58,-2.59,-2.86,-2.84,1.05,1.05,1.05
107.48,3.61,3.60,2.60,2.60,-2.60,-2.89,-2.88,1.01,1.00,1.01
108.56,3.57,3.57,2.62,2.62,-2.61,-2.91,-2.92,0.95,0.95,0.95
109.64,3.54,3.53,2.63,2.63,-2.63,-2.94,-2.97,0.91,0.91,0.90
110.74,3.50,3.50,2.64,2.64,-2.64,-2.96,-3.01,0.85,0.85,0.86
111.85,3.47,3.46,2.66,2.66,-2.66,-2.98,-3.05,0.81,0.80,0.81
112.97,3.43,3.43,2.68,2.68,-2.68,-3.00,-3.09,0.75,0.75,0.75
114.10,3.40,3.39,2.70,2.70,-2.70,-3.03,-3.12,0.70,0.70,0.70
115.24,3.36,3.36,2.71,2.71,-2.71,-3.05,-3.16,0.64,0.64,0.65
116.39,3.33,3.32,2.74,2.73,-2.73,-3.07,-3.19,0.60,0.59,0.59
117.55,3.29,3.29,2.75,2.75,-2.75,-3.09,-3.22,0.54,0.54,0.54
118.73,3.26,3.25,2.77,2.77,-2.76,-3.11,-3.24,0.49,0.49,0.48
119.92,3.22,3.22,2.78,2.78,-2.78,-3.12,-3.27,0.44,0.44,0.44
121.12,3.18,3.18,2.79,2.79,-2.79,-3.14,-3.29,0.38,0.39,0.39
122.33,3.15,3.14,2.81,2.80,-2.81,-3.16,-3.30,0.34,0.34,0.34
123.55,3.11,3.11,2.81,2.82,-2.82,-3.18,-3.32,0.29,0.29,0.29
124.79,3.08,3.08,2.83,2.83,-2.84,-3.19,-3.32,0.24,0.24,0.24
126.03,3.05,3.04,2.85,2.85,-2.85,-3.21,-3.33,0.19,0.19,0.19
127.29,3.01,3.01,2.86,2.87,-2.87,-3.22,-3.33,0.14,0.14,0.14
128.57,2.98,2.98,2.89,2.89,-2.89,-3.23,-3.33,0.09,0.09,0.08
129.85,2.95,2.95,2.91,2.91,-2.91,-3.25,-3.33,0.04,0.04,0.03
131.15,2.92,2.92,2.93,2.93,-2.93,-3.26,-3.32,-0.01,-0.01,-0.01
132.46,2.90,2.89,2.96,2.95,-2.95,-3.27,-3.31,-0.06,-0.06,-0.06
133.79,2.87,2.87,2.96,2.97,-2.98,-3.28,-3.30,-0.11,-0.11,-0.10
135.12,2.85,2.85,3.00,2.99,-3.00,-3.29,-3.28,-0.15,-0.15,-0.15
136.48,2.83,2.83,3.02,3.02,-3.02,-3.30,-3.26,-0.19,-0.20,-0.19
137.84,2.81,2.81,3.04,3.05,-3.04,-3.30,-3.24,-0.24,-0.24,-0.23
139.22,2.79,2.79,3.07,3.07,-3.06,-3.31,-3.22,-0.28,-0.28,-0.29
140.61,2.77,2.77,3.10,3.09,-3.08,-3.32,-3.19,-0.32,-0.32,-0.33
142.02,2.75,2.75,3.10,3.11,-3.10,-3.32,-3.17,-0.36,-0.36,-0.35
143.44,2.73,2.73,3.12,3.12,-3.12,-3.33,-3.14,-0.40,-0.40,-0.39
144.87,2.71,2.71,3.14,3.14,-3.14,-3.33,-3.11,-0.43,-0.43,-0.43
146.32,2.69,2.69,3.16,3.16,-3.16,-3.33,-3.09,-0.47,-0.47,-0.47
147.78,2.67,2.67,3.17,3.17,-3.17,-3.33,-3.06,-0.51,-0.51,-0.50
149.26,2.65,2.65,3.19,3.19,-3.19,-3.33,-3.03,-0.54,-0.54,-0.54
150.75,2.63,2.63,3.21,3.21,-3.21,-3.33,-3.00,-0.58,-0.58,-0.59
152.26,2.61,2.61,3.23,3.23,-3.23,-3.33,-2.98,-0.62,-0.62,-0.62
153.78,2.59,2.59,3.25,3.25,-3.25,-3.33,-2.95,-0.66,-0.66,-0.66
155.32,2.57,2.56,3.27,3.26,-3.26,-3.33,-2.93,-0.70,-0.70,-0.70
156.88,2.54,2.54,3.27,3.28,-3.28,-3.32,-2.90,-0.75,-0.74,-0.74
158.44,2.52,2.52,3.30,3.30,-3.30,-3.32,-2.88,-0.78,-0.78,-0.78
160.03,2.50,2.50,3.32,3.32,-3.32,-3.32,-2.86,-0.82,-0.82,-0.82
161.63,2.48,2.47,3.34,3.34,-3.33,-3.31,-2.84,-0.86,-0.86,-0.86
163.24,2.45,2.45,3.35,3.35,-3.35,-3.30,-2.82,-0.90,-0.90,-0.90
164.88,2.43,2.42,3.36,3.36,-3.36,-3.29,-2.81,-0.94,-0.94,-0.93
166.53,2.40,2.40,3.37,3.37,-3.37,-3.29,-2.79,-0.98,-0.97,-0.97
168.19,2.38,2.37,3.39,3.39,-3.39,-3.28,-2.78,-1.01,-1.01,-1.01
169.87,2.35,2.35,3.40,3.40,-3.40,-3.27,-2.77,-1.05,-1.05,-1.05
171.57,2.32,2.32,3.40,3.40,-3.40,-3.26,-2.77,-1.09,-1.09,-1.09
173.29,2.29,2.29,3.41,3.41,-3.41,-3.25,-2.76,-1.13,-1.13,-1.12
175.02,2.26,2.26,3.41,3.42,-3.42,-3.23,-2.76,-1.16,-1.16,-1.16
176.77,2.23,2.23,3.43,3.43,-3.43,-3.22,-2.76,-1.20,-1.20,-1.20
178.54,2.20,2.19,3.44,3.44,-3.43,-3.21,-2.76,-1.24,-1.24,-1.25
180.32,2.16,2.16,3.44,3.44,-3.44,-3.19,-2.76,-1.28,-1.28,-1.28
182.13,2.13,2.13,3.44,3.44,-3.45,-3.18,-2.77,-1.32,-1.32,-1.31
183.95,2.10,2.10,3.45,3.45,-3.45,-3.16,-2.77,-1.35,-1.35,-1.35
185.79,2.07,2.06,3.45,3.45,-3.45,-3.15,-2.79,-1.39,-1.39,-1.39
187.65,2.03,2.03,3.45,3.46,-3.45,-3.13,-2.80,-1.43,-1.42,-1.43
189.52,2.00,2.00,3.45,3.45,-3.45,-3.11,-2.81,-1.46,-1.46,-1.46
191.42,1.97,1.96,3.45,3.45,-3.45,-3.10,-2.83,-1.48,-1.49,-1.49
193.33,1.93,1.93,3.44,3.44,-3.45,-3.08,-2.84,-1.52,-1.52,-1.52
195.27,1.90,1.89,3.44,3.44,-3.44,-3.06,-2.86,-1.54,-1.55,-1.54
197.22,1.86,1.86,3.43,3.43,-3.43,-3.04,-2.88,-1.58,-1.57,-1.57
199.19,1.83,1.82,3.44,3.43,-3.42,-3.02,-2.90,-1.60,-1.60,-1.61
201.18,1.79,1.79,3.41,3.42,-3.41,-3.00,-2.93,-1.63,-1.62,-1.63
203.19,1.76,1.76,3.40,3.40,-3.40,-2.98,-2.95,-1.64,-1.64,-1.64
205.23,1.73,1.72,3.39,3.38,-3.39,-2.95,-2.97,-1.66,-1.66,-1.67
207.28,1.69,1.69,3.36,3.37,-3.37,-2.93,-3.00,-1.69,-1.68,-1.67
209.35,1.66,1.66,3.35,3.36,-3.36,-2.91,-3.02,-1.70,-1.70,-1.70
211.44,1.63,1.63,3.35,3.34,-3.34,-2.89,-3.05,-1.71,-1.71,-1.72
213.56,1.60,1.60,3.32,3.32,-3.32,-2.86,-3.07,-1.72,-1.72,-1.72
215.69,1.57,1.56,3.29,3.30,-3.30,-2.84,-3.10,-1.73,-1.73,-1.73
217.85,1.53,1.53,3.27,3.27,-3.27,-2.81,-3.12,-1.75,-1.74,-1.74
220.03,1.50,1.50,3.25,3.25,-3.25,-2.79,-3.14,-1.75,-1.75,-1.75
222.23,1.47,1.47,3.23,3.22,-3.22,-2.76,-3.16,-1.75,-1.75,-1.76
224.45,1.44,1.44,3.19,3.20,-3.19,-2.74,-3.18,-1.75,-1.76,-1.76
226.70,1.41,1.40,3.16,3.16,-3.16,-2.71,-3.19,-1.75,-1.76,-1.76
228.96,1.37,1.37,3.12,3.12,-3.13,-2.69,-3.21,-1.76,-1.76,-1.76
231.25,1.34,1.33,3.08,3.09,-3.09,-2.66,-3.22,-1.75,-1.75,-1.75
233.57,1.30,1.30,3.05,3.05,-3.05,-2.63,-3.22,-1.75,-1.75,-1.75
235.90,1.27,1.26,3.01,3.01,-3.01,-2.60,-3.22,-1.74,-1.75,-1.75
238.26,1.23,1.23,2.97,2.97,-2.97,-2.58,-3.22,-1.74,-1.74,-1.75
240.64,1.19,1.19,2.92,2.93,-2.92,-2.55,-3.22,-1.74,-1.73,-1.74
243.05,1.16,1.15,2.88,2.88,-2.88,-2.52,-3.21,-1.72,-1.73,-1.73
245.48,1.12,1.12,2.83,2.83,-2.83,-2.49,-3.19,-1.72,-1.72,-1.71
247.93,1.08,1.08,2.78,2.79,-2.79,-2.46,-3.17,-1.71,-1.70,-1.70
250.41,1.05,1.04,2.75,2.73,-2.73,-2.43,-3.14,-1.69,-1.69,-1.70
252.92,1.01,1.01,2.68,2.68,-2.68,-2.40,-3.12,-1.68,-1.68,-1.68
255.45,0.97,0.97,2.62,2.63,-2.63,-2.37,-3.08,-1.66,-1.66,-1.65
258.00,0.94,0.93,2.58,2.57,-2.58,-2.34,-3.04,-1.64,-1.64,-1.64
260.58,0.90,0.90,2.52,2.52,-2.52,-2.31,-2.99,-1.62,-1.62,-1.63
263.19,0.86,0.86,2.46,2.47,-2.46,-2.28,-2.95,-1.61,-1.61,-1.60
265.82,0.82,0.82,2.41,2.41,-2.41,-2.25,-2.89,-1.59,-1.59,-1.59
268.48,0.78,0.78,2.34,2.35,-2.35,-2.22,-2.83,-1.57,-1.57,-1.57
271.16,0.75,0.74,2.29,2.29,-2.29,-2.18,-2.77,-1.54,-1.55,-1.54
273.87,0.71,0.71,2.24,2.23,-2.23,-2.15,-2.70,-1.53,-1.53,-1.53
276.61,0.67,0.67,2.17,2.17,-2.18,-2.12,-2.63,-1.51,-1.51,-1.50
279.38,0.63,0.63,2.12,2.12,-2.12,-2.09,-2.56,-1.49,-1.49,-1.49
282.17,0.59,0.59,2.06,2.06,-2.06,-2.05,-2.48,-1.47,-1.47,-1.47
284.99,0.56,0.55,2.01,2.01,-2.00,-2.02,-2.40,-1.45,-1.45,-1.45
287.84,0.52,0.52,1.95,1.95,-1.95,-1.99,-2.32,-1.43,-1.43,-1.43
290.72,0.48,0.48,1.89,1.89,-1.89,-1.95,-2.24,-1.41,-1.41,-1.41
293.63,0.44,0.44,1.83,1.83,-1.83,-1.92,-2.15,-1.39,-1.39,-1.39
296.57,0.40,0.40,1.76,1.77,-1.77,-1.88,-2.07,-1.37,-1.37,-1.37
299.53,0.36,0.36,1.71,1.71,-1.71,-1.85,-1.98,-1.35,-1.35,-1.35
302.53,0.32,0.32,1.65,1.65,-1.64,-1.81,-1.89,-1.33,-1.33,-1.34
305.55,0.28,0.28,1.58,1.58,-1.58,-1.78,-1.80,-1.30,-1.30,-1.30
308.61,0.24,0.24,1.52,1.52,-1.52,-1.74,-1.71,-1.28,-1.28,-1.28
311.69,0.20,0.20,1.45,1.45,-1.45,-1.71,-1.62,-1.26,-1.26,-1.26
314.81,0.16,0.16,1.38,1.38,-1.39,-1.67,-1.53,-1.23,-1.23,-1.22
317.96,0.12,0.12,1.32,1.32,-1.33,-1.63,-1.44,-1.21,-1.21,-1.20
321.14,0.08,0.08,1.26,1.26,-1.26,-1.59,-1.34,-1.19,-1.19,-1.19
324.35,0.04,0.04,1.21,1.20,-1.20,-1.56,-1.25,-1.16,-1.16,-1.17
327.59,-0.00,-0.00,1.14,1.14,-1.14,-1.52,-1.16,-1.14,-1.14,-1.14
330.87,-0.04,-0.05,1.08,1.08,-1.08,-1.48,-1.07,-1.12,-1.12,-1.13
334.18,-0.09,-0.09,1.01,1.02,-1.02,-1.44,-0.98,-1.11,-1.11,-1.11
337.52,-0.13,-0.13,0.96,0.96,-0.95,-1.40,-0.88,-1.09,-1.09,-1.09
340.90,-0.17,-0.17,0.89,0.89,-0.89,-1.36,-0.79,-1.07,-1.07,-1.06
344.30,-0.21,-0.22,0.83,0.83,-0.83,-1.32,-0.70,-1.04,-1.05,-1.05
347.75,-0.26,-0.26,0.76,0.77,-0.77,-1.28,-0.61,-1.03,-1.03,-1.03
351.23,-0.30,-0.30,0.71,0.71,-0.71,-1.24,-0.52,-1.01,-1.01,-1.01
354.74,-0.34,-0.35,0.65,0.64,-0.65,-1.20,-0.43,-0.99,-0.99,-0.99
358.28,-0.39,-0.39,0.58,0.58,-0.59,-1.16,-0.34,-0.98,-0.98,-0.97
361.87,-0.43,-0.43,0.52,0.53,-0.53,-1.11,-0.25,-0.96,-0.96,-0.96
365.49,-0.47,-0.48,0.48,0.47,-0.47,-1.07,-0.16,-0.94,-0.95,-0.95
369.14,-0.52,-0.52,0.42,0.42,-0.41,-1.02,-0.07,-0.94,-0.93,-0.94
372.83,-0.56,-0.56,0.36,0.36,-0.36,-0.98,0.01,-0.92,-0.92,-0.92
376.56,-0.60,-0.61,0.31,0.30,-0.30,-0.93,0.10,-0.90,-0.91,-0.91
380.33,-0.65,-0.65,0.23,0.24,-0.24,-0.89,0.19,-0.90,-0.89,-0.89
384.13,-0.69,-0.69,0.18,0.19,-0.19,-0.84,0.28,-0.88,-0.88,-0.88
387.97,-0.73,-0.74,0.14,0.13,-0.13,-0.79,0.36,-0.87,-0.87,-0.87
391.85,-0.78,-0.78,0.08,0.08,-0.08,-0.74,0.45,-0.86,-0.86,-0.86
395.77,-0.82,-0.82,0.02,0.02,-0.02,-0.69,0.53,-0.84,-0.84,-0.84
399.73,-0.86,-0.87,-0.03,-0.03,0.03,-0.64,0.62,-0.83,-0.83,-0.83
403.72,-0.91,-0.91,-0.09,-0.09,0.09,-0.58,0.70,-0.83,-0.82,-0.82
407.76,-0.95,-0.95,-0.14,-0.14,0.14,-0.53,0.78,-0.81,-0.81,-0.82
411.84,-0.99,-0.99,-0.20,-0.19,0.19,-0.47,0.87,-0.80,-0.80,-0.80
415.96,-1.03,-1.04,-0.25,-0.25,0.25,-0.42,0.95,-0.79,-0.79,-0.79
420.12,-1.08,-1.08,-0.30,-0.30,0.30,-0.36,1.02,-0.78,-0.78,-0.78
424.32,-1.12,-1.12,-0.35,-0.35,0.35,-0.30,1.10,-0.77,-0.77,-0.77
428.56,-1.16,-1.16,-0.40,-0.40,0.40,-0.24,1.18,-0.76,-0.76,-0.76
432.85,-1.20,-1.20,-0.45,-0.45,0.46,-0.18,1.25,-0.75,-0.75,-0.75
437.18,-1.24,-1.25,-0.50,-0.51,0.51,-0.11,1.32,-0.73,-0.74,-0.74
441.55,-1.29,-1.29,-0.57,-0.56,0.56,-0.04,1.39,-0.73,-0.73,-0.72
445.96,-1.33,-1.33,-0.62,-0.62,0.61,0.02,1.46,-0.72,-0.72,-0.72
450.42,-1.37,-1.37,-0.67,-0.67,0.67,0.09,1.52,-0.70,-0.70,-0.71
454.93,-1.41,-1.41,-0.73,-0.72,0.72,0.17,1.58,-0.69,-0.69,-0.69
459.48,-1.45,-1.45,-0.78,-0.78,0.78,0.24,1.63,-0.67,-0.67,-0.68
464.07,-1.49,-1.49,-0.83,-0.83,0.83,0.32,1.69,-0.66,-0.66,-0.66
468.71,-1.53,-1.53,-0.89,-0.89,0.89,0.40,1.74,-0.64,-0.64,-0.64
473.40,-1.57,-1.57,-0.94,-0.95,0.94,0.48,1.78,-0.63,-0.63,-0.63
478.13,-1.61,-1.61,-1.00,-1.00,1.00,0.56,1.82,-0.61,-0.61,-0.61
482.91,-1.65,-1.65,-1.05,-1.05,1.06,0.65,1.86,-0.60,-0.60,-0.60
487.74,-1.69,-1.69,-1.11,-1.11,1.11,0.73,1.89,-0.58,-0.58,-0.58
492.62,-1.73,-1.73,-1.17,-1.17,1.17,0.82,1.91,-0.57,-0.57,-0.56
497.55,-1.77,-1.77,-1.22,-1.22,1.22,0.92,1.93,-0.55,-0.55,-0.55
502.52,-1.81,-1.81,-1.28,-1.28,1.28,1.01,1.95,-0.54,-0.54,-0.53
507.55,-1.85,-1.85,-1.33,-1.33,1.33,1.11,1.96,-0.52,-0.52,-0.53
512.62,-1.89,-1.89,-1.39,-1.39,1.39,1.21,1.97,-0.51,-0.50,-0.51
