frequency,raw,error,smoothed,error_smoothed,equalization,parametric_eq,fixed_band_eq,equalized_raw,equalized_smoothed,target
20.00,4.89,-3.39,4.89,-3.39,3.41,2.30,0.93,8.30,8.30,8.28
20.20,4.93,-3.33,4.93,-3.33,3.34,2.29,0.96,8.27,8.26,8.26
20.40,4.97,-3.27,4.96,-3.28,3.27,2.28,0.99,8.24,8.24,8.24
20.61,5.01,-3.22,5.01,-3.22,3.21,2.28,1.02,8.21,8.21,8.23
20.81,5.05,-3.16,5.05,-3.16,3.14,2.27,1.05,8.19,8.19,8.21
21.02,5.09,-3.11,5.09,-3.10,3.08,2.27,1.08,8.17,8.17,8.19
21.23,5.14,-3.04,5.14,-3.04,3.03,2.26,1.11,8.16,8.16,8.17
21.44,5.19,-2.98,5.19,-2.98,2.97,2.25,1.15,8.16,8.16,8.16
21.66,5.24,-2.92,5.24,-2.91,2.92,2.25,1.18,8.15,8.15,8.15
21.87,5.28,-2.85,5.28,-2.86,2.86,2.24,1.22,8.14,8.14,8.13
22.09,5.32,-2.80,5.31,-2.81,2.81,2.23,1.26,8.13,8.13,8.12
22.31,5.34,-2.77,5.33,-2.77,2.78,2.23,1.29,8.11,8.11,8.11
22.54,5.35,-2.75,5.35,-2.74,2.75,2.22,1.33,8.09,8.10,8.10
22.76,5.37,-2.72,5.37,-2.72,2.73,2.21,1.37,8.09,8.10,8.09
22.99,5.39,-2.69,5.38,-2.70,2.72,2.21,1.41,8.10,8.09,8.07
23.22,5.38,-2.69,5.38,-2.69,2.71,2.20,1.46,8.09,8.09,8.06
23.45,5.36,-2.71,5.36,-2.70,2.71,2.19,1.50,8.06,8.06,8.06
23.69,5.35,-2.70,5.34,-2.71,2.70,2.18,1.54,8.04,8.04,8.05
23.92,5.33,-2.72,5.34,-2.71,2.68,2.17,1.59,8.01,8.02,8.05
24.16,5.36,-2.69,5.36,-2.69,2.66,2.17,1.63,8.02,8.02,8.05
24.40,5.41,-2.64,5.40,-2.65,2.63,2.16,1.68,8.04,8.03,8.05
24.65,5.46,-2.59,5.45,-2.59,2.59,2.15,1.72,8.04,8.04,8.05
24.89,5.51,-2.54,5.51,-2.53,2.53,2.14,1.77,8.04,8.04,8.04
25.14,5.57,-2.47,5.57,-2.47,2.47,2.13,1.82,8.04,8.04,8.04
25.39,5.63,-2.41,5.63,-2.41,2.42,2.12,1.86,8.04,8.05,8.04
25.65,5.70,-2.34,5.70,-2.34,2.36,2.11,1.91,8.06,8.06,8.04
25.91,5.76,-2.28,5.76,-2.29,2.31,2.10,1.96,8.07,8.06,8.05
26.16,5.81,-2.24,5.80,-2.24,2.26,2.09,2.01,8.06,8.06,8.04
26.43,5.83,-2.22,5.83,-2.21,2.21,2.08,2.05,8.03,8.04,8.04
26.69,5.86,-2.18,5.86,-2.18,2.16,2.07,2.10,8.02,8.02,8.04
26.96,5.89,-2.15,5.89,-2.15,2.12,2.06,2.14,8.00,8.00,8.04
27.23,5.93,-2.11,5.93,-2.11,2.09,2.05,2.18,8.01,8.02,8.04
27.50,5.98,-2.06,5.98,-2.05,2.07,2.04,2.23,8.04,8.05,8.03
27.77,6.03,-2.00,6.02,-2.01,2.06,2.03,2.27,8.08,8.08,8.03
28.05,6.06,-1.97,6.03,-1.99,2.05,2.02,2.31,8.11,8.09,8.03
28.33,6.01,-2.01,6.00,-2.02,2.05,2.00,2.34,8.05,8.05,8.02
28.62,5.95,-2.07,5.95,-2.06,2.04,1.99,2.37,7.99,8.00,8.01
28.90,5.90,-2.11,5.91,-2.09,2.04,1.98,2.40,7.94,7.95,8.01
29.19,5.92,-2.09,5.92,-2.09,2.03,1.97,2.43,7.95,7.96,8.01
29.48,5.97,-2.04,5.96,-2.04,2.02,1.95,2.45,7.99,7.98,8.00
29.78,6.03,-1.98,6.02,-1.98,1.99,1.94,2.48,8.02,8.01,8.00
30.08,6.08,-1.92,6.07,-1.93,1.94,1.93,2.49,8.02,8.01,8.00
30.38,6.12,-1.88,6.11,-1.88,1.87,1.91,2.51,7.99,7.98,7.99
30.68,6.16,-1.83,6.15,-1.83,1.80,1.90,2.51,7.95,7.95,7.98
30.99,6.20,-1.78,6.21,-1.77,1.73,1.88,2.52,7.92,7.94,7.98
31.30,6.28,-1.68,6.30,-1.67,1.67,1.87,2.52,7.96,7.97,7.96
31.61,6.38,-1.58,6.38,-1.58,1.64,1.85,2.52,8.01,8.02,7.96
31.93,6.47,-1.48,6.44,-1.52,1.61,1.84,2.51,8.08,8.05,7.96
32.24,6.43,-1.51,6.42,-1.53,1.59,1.82,2.50,8.02,8.01,7.94
32.57,6.35,-1.59,6.36,-1.58,1.57,1.80,2.48,7.92,7.93,7.94
32.89,6.27,-1.67,6.29,-1.64,1.57,1.79,2.47,7.83,7.86,7.93
33.22,6.28,-1.65,6.29,-1.64,1.57,1.77,2.44,7.84,7.85,7.93
33.55,6.33,-1.60,6.32,-1.61,1.57,1.75,2.42,7.90,7.89,7.92
33.89,6.38,-1.55,6.36,-1.56,1.57,1.73,2.39,7.95,7.94,7.93
34.23,6.40,-1.53,6.39,-1.53,1.57,1.72,2.36,7.96,7.96,7.92
34.57,6.40,-1.52,6.40,-1.52,1.55,1.70,2.32,7.95,7.95,7.92
34.92,6.40,-1.53,6.40,-1.52,1.53,1.68,2.29,7.93,7.93,7.92
35.27,6.40,-1.52,6.40,-1.52,1.52,1.66,2.25,7.91,7.91,7.92
35.62,6.40,-1.52,6.40,-1.52,1.51,1.64,2.20,7.91,7.91,7.92
35.97,6.40,-1.52,6.40,-1.52,1.52,1.62,2.16,7.91,7.91,7.91
36.33,6.40,-1.51,6.40,-1.51,1.52,1.60,2.12,7.92,7.92,7.91
36.70,6.40,-1.50,6.40,-1.50,1.52,1.58,2.07,7.92,7.92,7.90
37.06,6.40,-1.50,6.38,-1.51,1.51,1.56,2.03,7.91,7.89,7.89
37.43,6.37,-1.51,6.36,-1.52,1.49,1.54,1.98,7.86,7.86,7.88
37.81,6.35,-1.52,6.36,-1.51,1.47,1.51,1.93,7.81,7.82,7.87
38.19,6.37,-1.48,6.38,-1.47,1.44,1.49,1.88,7.80,7.82,7.85
38.57,6.43,-1.41,6.42,-1.41,1.41,1.47,1.84,7.83,7.83,7.83
38.95,6.49,-1.33,6.47,-1.35,1.37,1.45,1.79,7.86,7.84,7.81
39.34,6.50,-1.30,6.50,-1.30,1.34,1.43,1.74,7.83,7.83,7.79
39.74,6.50,-1.29,6.50,-1.28,1.30,1.41,1.70,7.80,7.80,7.79
40.14,6.50,-1.27,6.50,-1.27,1.27,1.38,1.65,7.77,7.77,7.77
40.54,6.50,-1.25,6.50,-1.26,1.25,1.36,1.60,7.74,7.74,7.75
40.94,6.50,-1.24,6.50,-1.24,1.23,1.34,1.56,7.73,7.73,7.74
41.35,6.50,-1.23,6.50,-1.22,1.22,1.32,1.51,7.71,7.71,7.73
41.76,6.50,-1.21,6.50,-1.21,1.21,1.30,1.47,7.70,7.70,7.71
42.18,6.50,-1.20,6.50,-1.20,1.20,1.28,1.43,7.70,7.70,7.69
42.60,6.50,-1.20,6.50,-1.19,1.20,1.26,1.39,7.70,7.70,7.69
43.03,6.50,-1.18,6.50,-1.18,1.21,1.24,1.35,7.70,7.71,7.68
43.46,6.50,-1.17,6.50,-1.17,1.21,1.22,1.31,7.70,7.71,7.67
43.90,6.50,-1.17,6.47,-1.19,1.20,1.20,1.27,7.70,7.67,7.66
44.33,6.45,-1.21,6.43,-1.22,1.19,1.18,1.23,7.63,7.62,7.65
44.78,6.38,-1.26,6.41,-1.23,1.17,1.16,1.19,7.54,7.58,7.64
45.23,6.41,-1.23,6.43,-1.20,1.14,1.14,1.16,7.55,7.58,7.63
45.68,6.52,-1.10,6.50,-1.12,1.11,1.12,1.12,7.63,7.61,7.62
46.13,6.60,-1.01,6.57,-1.04,1.08,1.10,1.09,7.67,7.64,7.60
46.60,6.60,-0.99,6.60,-0.98,1.04,1.08,1.06,7.63,7.64,7.59
47.06,6.60,-0.97,6.60,-0.97,1.00,1.06,1.03,7.59,7.60,7.57
47.53,6.60,-0.96,6.60,-0.96,0.96,1.04,1.00,7.55,7.55,7.55
48.01,6.60,-0.94,6.60,-0.94,0.93,1.02,0.97,7.52,7.52,7.54
48.49,6.60,-0.91,6.60,-0.92,0.90,1.00,0.94,7.50,7.50,7.51
48.97,6.60,-0.89,6.60,-0.89,0.89,0.98,0.91,7.48,7.48,7.49
49.46,6.60,-0.87,6.60,-0.87,0.87,0.96,0.88,7.46,7.46,7.47
49.96,6.60,-0.84,6.60,-0.85,0.85,0.94,0.86,7.44,7.44,7.44
50.46,6.60,-0.82,6.60,-0.82,0.83,0.92,0.83,7.42,7.42,7.42
50.96,6.60,-0.80,6.60,-0.80,0.80,0.90,0.80,7.40,7.40,7.40
51.47,6.60,-0.78,6.60,-0.78,0.78,0.87,0.78,7.38,7.38,7.38
51.99,6.60,-0.76,6.60,-0.76,0.76,0.85,0.76,7.36,7.36,7.35
52.51,6.60,-0.73,6.60,-0.73,0.73,0.83,0.73,7.33,7.33,7.33
53.03,6.60,-0.71,6.60,-0.71,0.70,0.81,0.71,7.29,7.29,7.30
53.56,6.60,-0.68,6.59,-0.68,0.66,0.78,0.68,7.25,7.25,7.28
54.10,6.60,-0.66,6.59,-0.66,0.62,0.76,0.66,7.22,7.21,7.25
54.64,6.60,-0.63,6.61,-0.62,0.60,0.73,0.64,7.20,7.21,7.23
55.18,6.62,-0.58,6.64,-0.56,0.59,0.71,0.61,7.21,7.24,7.20
55.74,6.69,-0.48,6.66,-0.51,0.60,0.68,0.59,7.29,7.26,7.17
56.29,6.66,-0.49,6.63,-0.51,0.61,0.65,0.57,7.27,7.24,7.14
56.86,6.53,-0.58,6.52,-0.59,0.62,0.62,0.54,7.15,7.14,7.11
57.42,6.40,-0.68,6.39,-0.69,0.63,0.60,0.52,7.03,7.02,7.08
58.00,6.26,-0.80,6.31,-0.74,0.64,0.57,0.49,6.89,6.95,7.06
58.58,6.31,-0.72,6.30,-0.72,0.64,0.54,0.47,6.95,6.94,7.02
59.16,6.36,-0.63,6.33,-0.66,0.64,0.51,0.44,6.99,6.97,6.99
59.76,6.39,-0.57,6.38,-0.57,0.61,0.47,0.42,7.00,6.99,6.95
60.35,6.40,-0.52,6.40,-0.52,0.57,0.44,0.39,6.96,6.96,6.92
60.96,6.40,-0.49,6.40,-0.48,0.50,0.41,0.36,6.90,6.90,6.88
61.57,6.40,-0.45,6.39,-0.45,0.44,0.38,0.34,6.83,6.83,6.84
62.18,6.40,-0.41,6.39,-0.41,0.38,0.34,0.31,6.77,6.77,6.80
62.80,6.40,-0.36,6.42,-0.34,0.33,0.31,0.28,6.73,6.75,6.75
63.43,6.44,-0.28,6.44,-0.27,0.30,0.27,0.25,6.73,6.74,6.71
64.07,6.48,-0.19,6.45,-0.22,0.27,0.23,0.21,6.74,6.71,6.67
64.71,6.43,-0.19,6.42,-0.20,0.24,0.20,0.18,6.66,6.66,6.62
65.35,6.36,-0.22,6.37,-0.21,0.20,0.16,0.15,6.56,6.57,6.57
66.01,6.30,-0.22,6.31,-0.20,0.17,0.12,0.11,6.46,6.48,6.52
66.67,6.30,-0.17,6.29,-0.18,0.13,0.08,0.08,6.42,6.42,6.47
67.33,6.30,-0.12,6.29,-0.12,0.09,0.04,0.04,6.38,6.38,6.41
68.01,6.30,-0.07,6.30,-0.07,0.05,0.00,0.00,6.35,6.35,6.36
68.69,6.30,-0.01,6.30,-0.00,0.02,-0.04,-0.04,6.31,6.32,6.30
69.37,6.31,0.06,6.32,0.07,-0.01,-0.08,-0.08,6.29,6.30,6.25
70.07,6.32,0.13,6.31,0.12,-0.05,-0.12,-0.12,6.27,6.26,6.19
70.77,6.30,0.16,6.24,0.11,-0.08,-0.17,-0.16,6.22,6.17,6.13
71.48,6.16,0.08,6.16,0.09,-0.10,-0.21,-0.20,6.05,6.06,6.08
72.19,6.03,0.01,6.09,0.08,-0.13,-0.26,-0.25,5.90,5.96,6.01
72.91,6.09,0.13,6.06,0.10,-0.17,-0.30,-0.29,5.92,5.90,5.96
73.64,6.10,0.20,6.08,0.18,-0.21,-0.35,-0.33,5.88,5.87,5.90
74.38,6.10,0.26,6.10,0.26,-0.27,-0.39,-0.38,5.83,5.83,5.84
75.12,6.10,0.33,6.09,0.32,-0.34,-0.44,-0.43,5.76,5.76,5.77
75.87,6.10,0.39,6.11,0.40,-0.40,-0.49,-0.48,5.69,5.70,5.71
76.63,6.13,0.48,6.14,0.50,-0.46,-0.54,-0.52,5.66,5.68,5.64
77.40,6.17,0.59,6.14,0.57,-0.51,-0.58,-0.57,5.66,5.64,5.58
78.17,6.17,0.65,6.13,0.61,-0.54,-0.63,-0.62,5.63,5.59,5.51
78.95,6.01,0.56,6.06,0.61,-0.57,-0.68,-0.68,5.43,5.49,5.45
79.74,6.00,0.62,5.95,0.57,-0.61,-0.73,-0.73,5.39,5.35,5.38
80.54,5.87,0.55,5.87,0.56,-0.65,-0.79,-0.78,5.22,5.23,5.31
81.35,5.80,0.55,5.84,0.60,-0.69,-0.84,-0.83,5.11,5.15,5.24
82.16,5.87,0.70,5.85,0.68,-0.73,-0.89,-0.89,5.13,5.12,5.17
82.98,5.89,0.79,5.91,0.81,-0.78,-0.94,-0.94,5.10,5.12,5.10
83.81,5.99,0.96,5.94,0.92,-0.85,-0.99,-1.00,5.14,5.10,5.03
84.65,5.94,0.98,5.92,0.97,-0.91,-1.05,-1.06,5.02,5.01,4.95
85.50,5.85,0.98,5.87,1.00,-0.97,-1.10,-1.12,4.87,4.89,4.87
86.35,5.79,0.99,5.81,1.02,-1.03,-1.16,-1.18,4.76,4.79,4.79
87.22,5.79,1.07,5.78,1.06,-1.07,-1.21,-1.24,4.72,4.71,4.72
88.09,5.78,1.14,5.75,1.11,-1.11,-1.26,-1.30,4.67,4.64,4.64
88.97,5.70,1.13,5.70,1.14,-1.15,-1.32,-1.36,4.55,4.55,4.56
89.86,5.64,1.16,5.65,1.17,-1.20,-1.38,-1.43,4.43,4.45,4.47
90.76,5.61,1.21,5.61,1.21,-1.26,-1.43,-1.49,4.35,4.35,4.40
91.66,5.60,1.29,5.60,1.29,-1.31,-1.49,-1.56,4.29,4.28,4.31
92.58,5.60,1.37,5.62,1.39,-1.36,-1.54,-1.62,4.23,4.26,4.22
93.51,5.63,1.49,5.63,1.49,-1.42,-1.60,-1.69,4.21,4.21,4.13
94.44,5.64,1.59,5.57,1.53,-1.48,-1.65,-1.76,4.15,4.09,4.04
95.39,5.50,1.55,5.49,1.54,-1.55,-1.71,-1.83,3.94,3.94,3.95
96.34,5.34,1.48,5.41,1.55,-1.62,-1.77,-1.90,3.71,3.78,3.86
97.30,5.37,1.61,5.36,1.60,-1.68,-1.82,-1.97,3.68,3.68,3.75
98.28,5.39,1.72,5.39,1.73,-1.73,-1.88,-2.04,3.66,3.66,3.66
99.26,5.42,1.86,5.41,1.85,-1.78,-1.94,-2.11,3.64,3.63,3.56
100.25,5.42,1.96,5.36,1.91,-1.84,-1.99,-2.18,3.58,3.53,3.45
101.25,5.26,1.91,5.28,1.93,-1.91,-2.05,-2.26,3.35,3.37,3.35
102.27,5.16,1.91,5.17,1.92,-1.98,-2.10,-2.33,3.18,3.19,3.25
103.29,5.09,1.95,5.09,1.95,-2.03,-2.16,-2.40,3.05,3.05,3.14
104.32,5.05,2.01,5.08,2.05,-2.08,-2.21,-2.48,2.97,3.01,3.04
105.37,5.10,2.16,5.09,2.16,-2.11,-2.27,-2.55,2.98,2.98,2.93
106.42,5.11,2.29,5.06,2.24,-2.15,-2.32,-2.62,2.95,2.91,2.82
107.48,4.99,2.27,4.96,2.25,-2.21,-2.38,-2.69,2.78,2.76,2.71
108.56,4.82,2.20,4.83,2.22,-2.27,-2.43,-2.76,2.55,2.57,2.62
109.64,4.70,2.18,4.76,2.24,-2.32,-2.48,-2.83,2.38,2.44,2.51
110.74,4.73,2.32,4.74,2.33,-2.36,-2.54,-2.89,2.36,2.38,2.41
111.85,4.82,2.50,4.74,2.42,-2.40,-2.59,-2.96,2.42,2.34,2.32
112.97,4.73,2.50,4.72,2.50,-2.44,-2.64,-3.02,2.29,2.28,2.22
114.10,4.61,2.48,4.65,2.52,-2.49,-2.69,-3.07,2.12,2.16,2.13
115.24,4.59,2.55,4.56,2.52,-2.55,-2.74,-3.13,2.04,2.01,2.04
116.39,4.50,2.55,4.52,2.58,-2.61,-2.79,-3.18,1.89,1.91,1.94
117.55,4.49,2.62,4.50,2.64,-2.66,-2.84,-3.23,1.82,1.84,1.86
118.73,4.53,2.75,4.47,2.70,-2.71,-2.89,-3.28,1.82,1.77,1.77
119.92,4.44,2.75,4.46,2.77,-2.75,-2.93,-3.31,1.68,1.71,1.69
121.12,4.43,2.82,4.44,2.83,-2.80,-2.98,-3.35,1.62,1.64,1.61
122.33,4.43,2.90,4.41,2.88,-2.87,-3.02,-3.38,1.56,1.54,1.53
123.55,4.39,2.93,4.38,2.93,-2.93,-3.07,-3.41,1.46,1.45,1.45
124.79,4.34,2.96,4.33,2.95,-2.98,-3.11,-3.43,1.35,1.34,1.37
126.03,4.27,2.97,4.29,2.99,-3.03,-3.15,-3.46,1.23,1.25,1.30
127.29,4.27,3.05,4.29,3.07,-3.08,-3.19,-3.47,1.19,1.22,1.22
128.57,4.31,3.16,4.31,3.16,-3.12,-3.23,-3.48,1.19,1.19,1.15
129.85,4.36,3.29,4.28,3.21,-3.16,-3.27,-3.48,1.20,1.12,1.07
131.15,4.21,3.21,4.21,3.21,-3.19,-3.31,-3.49,1.01,1.01,1.00
132.46,4.07,3.14,4.12,3.20,-3.22,-3.35,-3.48,0.84,0.90,0.92
133.79,4.06,3.20,4.08,3.23,-3.25,-3.38,-3.48,0.80,0.83,0.85
135.12,4.10,3.31,4.06,3.28,-3.28,-3.42,-3.47,0.81,0.78,0.78
136.48,4.10,3.38,4.03,3.32,-3.32,-3.45,-3.46,0.78,0.72,0.71
137.84,3.93,3.28,3.97,3.33,-3.36,-3.48,-3.44,0.57,0.62,0.64
139.22,3.90,3.33,3.92,3.35,-3.40,-3.51,-3.42,0.50,0.52,0.57
140.61,3.91,3.41,3.92,3.42,-3.44,-3.54,-3.40,0.46,0.47,0.50
142.02,3.96,3.53,3.95,3.53,-3.49,-3.57,-3.38,0.47,0.47,0.42
143.44,3.98,3.63,3.93,3.58,-3.52,-3.59,-3.36,0.46,0.41,0.35
144.87,3.88,3.60,3.86,3.58,-3.54,-3.62,-3.34,0.34,0.32,0.27
146.32,3.71,3.49,3.77,3.56,-3.55,-3.64,-3.31,0.15,0.22,0.21
147.78,3.69,3.54,3.70,3.56,-3.57,-3.67,-3.29,0.11,0.13,0.14
149.26,3.69,3.61,3.65,3.58,-3.59,-3.69,-3.26,0.09,0.05,0.07
150.75,3.62,3.61,3.58,3.58,-3.61,-3.71,-3.24,0.01,-0.03,0.00
152.26,3.49,3.55,3.51,3.57,-3.62,-3.72,-3.22,-0.14,-0.11,-0.06
153.78,3.43,3.55,3.49,3.62,-3.65,-3.74,-3.19,-0.22,-0.15,-0.12
155.32,3.53,3.71,3.51,3.69,-3.68,-3.76,-3.17,-0.15,-0.17,-0.19
156.88,3.59,3.84,3.51,3.76,-3.71,-3.77,-3.15,-0.12,-0.20,-0.25
158.44,3.46,3.77,3.47,3.78,-3.74,-3.78,-3.13,-0.29,-0.28,-0.31
160.03,3.36,3.73,3.39,3.77,-3.77,-3.80,-3.11,-0.41,-0.38,-0.38
161.63,3.29,3.73,3.32,3.76,-3.79,-3.81,-3.09,-0.51,-0.47,-0.45
163.24,3.33,3.83,3.29,3.79,-3.81,-3.82,-3.08,-0.48,-0.52,-0.51
164.88,3.26,3.82,3.25,3.82,-3.81,-3.82,-3.07,-0.55,-0.56,-0.56
166.53,3.20,3.82,3.21,3.83,-3.80,-3.83,-3.06,-0.61,-0.60,-0.62
168.19,3.13,3.80,3.13,3.81,-3.80,-3.83,-3.05,-0.67,-0.67,-0.68
169.87,3.08,3.81,3.07,3.80,-3.79,-3.84,-3.04,-0.71,-0.73,-0.73
171.57,2.99,3.77,3.00,3.79,-3.79,-3.84,-3.04,-0.80,-0.79,-0.79
173.29,2.95,3.78,2.94,3.77,-3.78,-3.84,-3.04,-0.83,-0.84,-0.84
175.02,2.88,3.76,2.87,3.76,-3.77,-3.84,-3.04,-0.90,-0.90,-0.88
176.77,2.82,3.75,2.82,3.75,-3.77,-3.84,-3.04,-0.95,-0.95,-0.93
178.54,2.77,3.75,2.78,3.76,-3.76,-3.84,-3.05,-1.00,-0.98,-0.98
180.32,2.76,3.77,2.75,3.77,-3.77,-3.84,-3.05,-1.01,-1.01,-1.02
182.13,2.75,3.80,2.74,3.79,-3.78,-3.83,-3.07,-1.03,-1.04,-1.06
183.95,2.71,3.80,2.70,3.79,-3.79,-3.83,-3.08,-1.09,-1.09,-1.09
185.79,2.67,3.79,2.66,3.79,-3.80,-3.82,-3.09,-1.14,-1.15,-1.13
187.65,2.61,3.77,2.63,3.79,-3.82,-3.81,-3.11,-1.21,-1.19,-1.16
189.52,2.62,3.81,2.64,3.83,-3.82,-3.80,-3.13,-1.21,-1.18,-1.20
191.42,2.66,3.87,2.65,3.87,-3.83,-3.79,-3.15,-1.18,-1.19,-1.22
193.33,2.68,3.93,2.61,3.86,-3.84,-3.78,-3.17,-1.16,-1.23,-1.25
195.27,2.53,3.81,2.54,3.82,-3.84,-3.77,-3.20,-1.31,-1.30,-1.28
197.22,2.43,3.74,2.50,3.81,-3.84,-3.76,-3.23,-1.41,-1.33,-1.31
199.19,2.49,3.82,2.48,3.82,-3.83,-3.75,-3.25,-1.34,-1.35,-1.34
201.18,2.54,3.90,2.45,3.82,-3.80,-3.73,-3.28,-1.27,-1.35,-1.37
203.19,2.40,3.79,2.42,3.81,-3.77,-3.72,-3.32,-1.38,-1.35,-1.39
205.23,2.29,3.71,2.36,3.78,-3.74,-3.70,-3.35,-1.46,-1.39,-1.42
207.28,2.32,3.76,2.27,3.71,-3.72,-3.69,-3.38,-1.40,-1.46,-1.45
209.35,2.24,3.71,2.19,3.66,-3.69,-3.67,-3.41,-1.46,-1.50,-1.47
211.44,2.07,3.57,2.12,3.62,-3.66,-3.65,-3.45,-1.59,-1.54,-1.50
213.56,2.05,3.57,2.08,3.61,-3.63,-3.63,-3.48,-1.59,-1.55,-1.53
215.69,2.08,3.64,2.07,3.63,-3.61,-3.62,-3.51,-1.53,-1.54,-1.56
217.85,2.13,3.71,2.04,3.62,-3.59,-3.60,-3.55,-1.46,-1.55,-1.58
220.03,1.95,3.56,1.97,3.58,-3.57,-3.58,-3.58,-1.63,-1.61,-1.61
222.23,1.85,3.48,1.90,3.53,-3.56,-3.56,-3.61,-1.71,-1.66,-1.63
224.45,1.86,3.51,1.88,3.53,-3.54,-3.54,-3.64,-1.69,-1.67,-1.65
226.70,1.91,3.58,1.88,3.55,-3.53,-3.51,-3.66,-1.62,-1.64,-1.67
228.96,1.93,3.61,1.84,3.52,-3.50,-3.49,-3.69,-1.57,-1.66,-1.69
231.25,1.72,3.41,1.77,3.47,-3.47,-3.47,-3.71,-1.75,-1.70,-1.70
233.57,1.64,3.35,1.72,3.43,-3.44,-3.45,-3.72,-1.81,-1.72,-1.71
235.90,1.73,3.46,1.69,3.41,-3.42,-3.43,-3.74,-1.69,-1.73,-1.73
238.26,1.75,3.48,1.67,3.41,-3.40,-3.40,-3.75,-1.65,-1.73,-1.74
240.64,1.60,3.34,1.62,3.37,-3.37,-3.38,-3.75,-1.77,-1.75,-1.74
243.05,1.52,3.26,1.56,3.31,-3.34,-3.36,-3.76,-1.83,-1.78,-1.75
245.48,1.55,3.30,1.56,3.31,-3.32,-3.33,-3.75,-1.78,-1.76,-1.75
247.93,1.61,3.36,1.58,3.33,-3.31,-3.31,-3.75,-1.71,-1.74,-1.76
250.41,1.62,3.38,1.55,3.31,-3.29,-3.28,-3.73,-1.68,-1.74,-1.76
252.92,1.45,3.21,1.50,3.26,-3.27,-3.26,-3.72,-1.83,-1.78,-1.76
255.45,1.42,3.19,1.46,3.23,-3.25,-3.23,-3.70,-1.83,-1.79,-1.78
258.00,1.46,3.23,1.46,3.24,-3.22,-3.21,-3.67,-1.77,-1.76,-1.78
260.58,1.51,3.30,1.45,3.24,-3.20,-3.18,-3.64,-1.69,-1.75,-1.79
263.19,1.42,3.22,1.38,3.18,-3.17,-3.16,-3.61,-1.75,-1.79,-1.80
265.82,1.23,3.05,1.29,3.11,-3.14,-3.13,-3.57,-1.91,-1.85,-1.82
268.48,1.21,3.04,1.24,3.07,-3.11,-3.10,-3.53,-1.90,-1.87,-1.83
271.16,1.24,3.09,1.23,3.08,-3.08,-3.07,-3.48,-1.85,-1.85,-1.85
273.87,1.29,3.15,1.22,3.08,-3.05,-3.05,-3.43,-1.77,-1.84,-1.86
276.61,1.16,3.04,1.15,3.04,-3.02,-3.02,-3.38,-1.87,-1.87,-1.88
279.38,1.03,2.93,1.09,2.99,-3.00,-2.99,-3.33,-1.97,-1.91,-1.90
282.17,1.04,2.95,1.04,2.95,-2.98,-2.96,-3.27,-1.94,-1.93,-1.91
284.99,1.08,2.99,1.04,2.96,-2.96,-2.93,-3.21,-1.88,-1.92,-1.92
287.84,1.04,2.95,1.02,2.94,-2.93,-2.90,-3.15,-1.90,-1.91,-1.92
290.72,0.98,2.90,0.97,2.89,-2.89,-2.87,-3.09,-1.92,-1.92,-1.92
293.63,0.89,2.82,0.94,2.87,-2.86,-2.83,-3.02,-1.97,-1.92,-1.93
296.57,0.92,2.85,0.92,2.85,-2.83,-2.80,-2.96,-1.91,-1.90,-1.93
299.53,0.96,2.88,0.88,2.81,-2.79,-2.77,-2.89,-1.84,-1.92,-1.93
302.53,0.81,2.74,0.81,2.74,-2.76,-2.73,-2.83,-1.95,-1.94,-1.93
305.55,0.69,2.62,0.74,2.68,-2.71,-2.70,-2.76,-2.03,-1.97,-1.93
308.61,0.70,2.63,0.71,2.65,-2.67,-2.66,-2.70,-1.97,-1.96,-1.94
311.69,0.75,2.69,0.72,2.66,-2.64,-2.62,-2.64,-1.89,-1.92,-1.94
314.81,0.74,2.68,0.69,2.63,-2.61,-2.59,-2.57,-1.87,-1.92,-1.95
317.96,0.60,2.55,0.62,2.57,-2.58,-2.55,-2.51,-1.98,-1.96,-1.95
321.14,0.52,2.48,0.56,2.51,-2.55,-2.51,-2.45,-2.04,-1.99,-1.96
324.35,0.54,2.49,0.53,2.49,-2.52,-2.48,-2.39,-1.98,-1.99,-1.95
327.59,0.55,2.51,0.53,2.49,-2.48,-2.44,-2.33,-1.93,-1.94,-1.96
330.87,0.54,2.50,0.53,2.50,-2.43,-2.40,-2.27,-1.89,-1.90,-1.96
334.18,0.47,2.44,0.47,2.44,-2.39,-2.36,-2.21,-1.92,-1.92,-1.97
337.52,0.42,2.39,0.36,2.34,-2.35,-2.32,-2.15,-1.93,-1.99,-1.97
340.90,0.24,2.21,0.27,2.25,-2.31,-2.28,-2.10,-2.07,-2.04,-1.98
344.30,0.17,2.14,0.24,2.21,-2.26,-2.25,-2.04,-2.10,-2.02,-1.97
347.75,0.27,2.23,0.22,2.20,-2.22,-2.21,-1.99,-1.95,-1.99,-1.97
351.23,0.29,2.27,0.24,2.21,-2.17,-2.17,-1.94,-1.88,-1.93,-1.98
354.74,0.18,2.14,0.21,2.18,-2.13,-2.13,-1.89,-1.95,-1.92,-1.96
358.28,0.14,2.10,0.12,2.08,-2.09,-2.09,-1.84,-1.95,-1.97,-1.97
361.87,0.06,2.02,0.06,2.02,-2.05,-2.05,-1.80,-1.99,-1.99,-1.96
365.49,-0.01,1.94,0.06,2.02,-2.01,-2.02,-1.75,-2.02,-1.95,-1.96
369.14,0.08,2.03,0.03,1.98,-1.97,-1.98,-1.71,-1.89,-1.94,-1.96
372.83,0.07,2.01,-0.01,1.94,-1.93,-1.94,-1.67,-1.86,-1.94,-1.94
376.56,-0.13,1.81,-0.06,1.88,-1.90,-1.91,-1.63,-2.03,-1.96,-1.94
380.33,-0.14,1.80,-0.12,1.82,-1.87,-1.87,-1.59,-2.01,-1.99,-1.95
384.13,-0.12,1.83,-0.14,1.81,-1.84,-1.83,-1.55,-1.97,-1.98,-1.95
387.97,-0.10,1.85,-0.11,1.84,-1.81,-1.80,-1.52,-1.92,-1.93,-1.95
391.85,-0.11,1.83,-0.13,1.82,-1.78,-1.76,-1.48,-1.89,-1.91,-1.95
395.77,-0.18,1.77,-0.18,1.77,-1.75,-1.73,-1.45,-1.93,-1.93,-1.96
399.73,-0.25,1.71,-0.23,1.73,-1.72,-1.69,-1.41,-1.98,-1.95,-1.96
403.72,-0.29,1.67,-0.30,1.67,-1.69,-1.66,-1.38,-1.98,-1.99,-1.96
407.76,-0.31,1.67,-0.36,1.62,-1.65,-1.63,-1.35,-1.96,-2.01,-1.99
411.84,-0.45,1.53,-0.40,1.59,-1.60,-1.59,-1.32,-2.05,-1.99,-1.99
415.96,-0.44,1.55,-0.42,1.57,-1.54,-1.56,-1.29,-1.99,-1.96,-1.99
420.12,-0.41,1.59,-0.46,1.53,-1.50,-1.53,-1.27,-1.91,-1.96,-2.00
424.32,-0.48,1.51,-0.52,1.48,-1.47,-1.49,-1.24,-1.95,-1.98,-1.99
428.56,-0.62,1.36,-0.58,1.40,-1.44,-1.46,-1.22,-2.06,-2.02,-1.99
432.85,-0.66,1.30,-0.62,1.35,-1.42,-1.43,-1.19,-2.08,-2.04,-1.97
437.18,-0.57,1.39,-0.60,1.35,-1.40,-1.40,-1.17,-1.97,-2.00,-1.96
441.55,-0.52,1.40,-0.53,1.39,-1.38,-1.37,-1.14,-1.90,-1.91,-1.92
445.96,-0.47,1.41,-0.48,1.41,-1.35,-1.33,-1.12,-1.82,-1.82,-1.88
450.42,-0.45,1.38,-0.46,1.37,-1.32,-1.30,-1.10,-1.77,-1.78,-1.83
454.93,-0.46,1.32,-0.46,1.33,-1.29,-1.27,-1.08,-1.75,-1.75,-1.79
459.48,-0.47,1.25,-0.45,1.28,-1.26,-1.24,-1.06,-1.74,-1.72,-1.73
464.07,-0.44,1.23,-0.47,1.21,-1.24,-1.21,-1.04,-1.69,-1.72,-1.68
468.71,-0.45,1.18,-0.49,1.14,-1.21,-1.18,-1.02,-1.67,-1.70,-1.63
473.40,-0.53,1.04,-0.45,1.12,-1.17,-1.15,-1.00,-1.71,-1.62,-1.57
478.13,-0.41,1.10,-0.39,1.13,-1.13,-1.12,-0.98,-1.54,-1.52,-1.51
482.91,-0.24,1.22,-0.33,1.14,-1.09,-1.09,-0.96,-1.34,-1.42,-1.46
487.74,-0.27,1.15,-0.27,1.15,-1.06,-1.06,-0.94,-1.33,-1.33,-1.43
492.62,-0.33,1.05,-0.30,1.08,-1.03,-1.03,-0.92,-1.37,-1.34,-1.39
497.55,-0.33,1.01,-0.39,0.97,-1.01,-1.00,-0.90,-1.34,-1.40,-1.35
502.52,-0.46,0.86,-0.43,0.89,-0.97,-0.97,-0.89,-1.44,-1.41,-1.33
507.55,-0.47,0.83,-0.42,0.89,-0.93,-0.94,-0.87,-1.40,-1.35,-1.30
512.62,-0.38,0.91,-0.38,0.91,-0.89,-0.91,-0.85,-1.27,-1.27,-1.29
517.75,-0.28,1.01,-0.38,0.91,-0.85,-0.89,-0.83,-1.14,-1.23,-1.29
