frequency,raw,error,smoothed,error_smoothed,equalization,parametric_eq,fixed_band_eq,equalized_raw,equalized_smoothed,target
20.00,7.31,2.36,7.32,2.34,-2.34,-2.38,-1.45,4.97,4.98,4.95
20.20,7.35,2.35,7.36,2.34,-2.34,-2.41,-1.50,5.01,5.02,5.00
20.40,7.40,2.35,7.39,2.34,-2.34,-2.43,-1.54,5.06,5.05,5.05
20.61,7.44,2.36,7.43,2.35,-2.35,-2.46,-1.58,5.09,5.08,5.08
20.81,7.49,2.36,7.47,2.35,-2.35,-2.48,-1.63,5.14,5.11,5.13
21.02,7.53,2.36,7.50,2.36,-2.36,-2.51,-1.67,5.17,5.14,5.17
21.23,7.56,2.37,7.54,2.38,-2.38,-2.53,-1.72,5.18,5.17,5.19
21.44,7.58,2.37,7.58,2.39,-2.39,-2.56,-1.77,5.19,5.19,5.21
21.66,7.61,2.38,7.62,2.41,-2.41,-2.58,-1.82,5.20,5.21,5.23
21.87,7.64,2.40,7.66,2.43,-2.43,-2.61,-1.87,5.21,5.23,5.24
22.09,7.67,2.41,7.70,2.45,-2.45,-2.64,-1.93,5.21,5.24,5.26
22.31,7.72,2.45,7.74,2.48,-2.48,-2.66,-1.98,5.24,5.26,5.27
22.54,7.76,2.49,7.78,2.52,-2.52,-2.69,-2.04,5.24,5.26,5.27
22.76,7.81,2.54,7.82,2.55,-2.55,-2.71,-2.09,5.25,5.27,5.27
22.99,7.86,2.60,7.86,2.59,-2.59,-2.74,-2.15,5.27,5.27,5.26
23.22,7.91,2.65,7.90,2.63,-2.63,-2.76,-2.21,5.28,5.27,5.26
23.45,7.97,2.71,7.95,2.67,-2.67,-2.79,-2.28,5.29,5.27,5.26
23.69,8.02,2.75,8.00,2.72,-2.72,-2.81,-2.34,5.29,5.27,5.26
23.92,8.07,2.80,8.05,2.78,-2.78,-2.84,-2.40,5.29,5.27,5.26
24.16,8.11,2.83,8.10,2.83,-2.83,-2.86,-2.47,5.28,5.27,5.27
24.40,8.13,2.85,8.15,2.88,-2.88,-2.89,-2.53,5.25,5.27,5.28
24.65,8.16,2.89,8.19,2.92,-2.92,-2.91,-2.60,5.24,5.27,5.27
24.89,8.18,2.91,8.23,2.96,-2.96,-2.94,-2.67,5.22,5.27,5.27
25.14,8.23,2.96,8.26,2.99,-2.99,-2.96,-2.74,5.24,5.27,5.27
25.39,8.30,3.02,8.29,3.02,-3.02,-2.99,-2.81,5.28,5.28,5.28
25.65,8.37,3.09,8.32,3.04,-3.04,-3.01,-2.88,5.33,5.28,5.28
25.91,8.43,3.16,8.34,3.06,-3.06,-3.04,-2.95,5.37,5.28,5.27
26.16,8.45,3.18,8.36,3.09,-3.09,-3.06,-3.02,5.36,5.28,5.27
26.43,8.43,3.16,8.39,3.12,-3.12,-3.09,-3.09,5.31,5.27,5.27
26.69,8.40,3.13,8.42,3.15,-3.15,-3.11,-3.16,5.25,5.27,5.27
26.96,8.38,3.10,8.45,3.18,-3.18,-3.13,-3.22,5.20,5.27,5.28
27.23,8.41,3.13,8.47,3.21,-3.21,-3.16,-3.29,5.20,5.27,5.28
27.50,8.44,3.16,8.50,3.23,-3.23,-3.18,-3.36,5.21,5.27,5.28
27.77,8.47,3.20,8.52,3.26,-3.26,-3.21,-3.42,5.21,5.27,5.27
28.05,8.51,3.24,8.54,3.28,-3.28,-3.23,-3.48,5.23,5.27,5.26
28.33,8.57,3.31,8.56,3.30,-3.30,-3.25,-3.54,5.27,5.26,5.25
28.62,8.64,3.38,8.59,3.33,-3.33,-3.28,-3.60,5.31,5.26,5.25
28.90,8.70,3.44,8.62,3.35,-3.35,-3.30,-3.65,5.35,5.26,5.26
29.19,8.72,3.47,8.65,3.39,-3.39,-3.33,-3.70,5.33,5.26,5.25
29.48,8.71,3.44,8.68,3.42,-3.42,-3.35,-3.75,5.29,5.26,5.27
29.78,8.70,3.44,8.72,3.46,-3.46,-3.37,-3.80,5.24,5.26,5.26
30.08,8.71,3.44,8.75,3.49,-3.49,-3.39,-3.83,5.21,5.26,5.27
30.38,8.75,3.49,8.78,3.53,-3.53,-3.42,-3.87,5.22,5.26,5.26
30.68,8.78,3.52,8.81,3.56,-3.56,-3.44,-3.90,5.22,5.26,5.26
30.99,8.82,3.56,8.84,3.58,-3.58,-3.46,-3.93,5.23,5.26,5.26
31.30,8.85,3.59,8.86,3.61,-3.61,-3.48,-3.95,5.24,5.25,5.25
31.61,8.89,3.64,8.89,3.63,-3.63,-3.51,-3.97,5.26,5.25,5.25
31.93,8.92,3.67,8.91,3.65,-3.65,-3.53,-3.98,5.26,5.25,5.25
32.24,8.95,3.71,8.92,3.68,-3.68,-3.55,-3.99,5.27,5.25,5.24
32.57,8.98,3.73,8.95,3.70,-3.70,-3.57,-3.99,5.28,5.24,5.25
32.89,9.01,3.76,8.97,3.73,-3.73,-3.59,-3.99,5.28,5.24,5.25
33.22,9.02,3.78,8.99,3.75,-3.75,-3.62,-3.99,5.27,5.24,5.24
33.55,9.02,3.78,9.00,3.77,-3.77,-3.64,-3.98,5.25,5.23,5.23
33.89,9.02,3.80,9.02,3.79,-3.79,-3.66,-3.97,5.23,5.23,5.22
34.23,9.02,3.79,9.04,3.81,-3.81,-3.68,-3.96,5.21,5.23,5.23
34.57,9.02,3.80,9.06,3.83,-3.83,-3.70,-3.95,5.19,5.22,5.22
34.92,9.02,3.80,9.07,3.85,-3.85,-3.72,-3.93,5.17,5.22,5.22
35.27,9.05,3.83,9.09,3.87,-3.87,-3.74,-3.91,5.18,5.22,5.22
35.62,9.08,3.87,9.10,3.89,-3.89,-3.76,-3.89,5.19,5.22,5.21
35.97,9.12,3.91,9.12,3.90,-3.90,-3.78,-3.87,5.22,5.21,5.21
36.33,9.15,3.93,9.13,3.92,-3.92,-3.80,-3.85,5.23,5.21,5.22
36.70,9.19,3.98,9.15,3.94,-3.94,-3.82,-3.82,5.25,5.21,5.21
37.06,9.22,4.01,9.17,3.95,-3.95,-3.84,-3.80,5.26,5.22,5.20
37.43,9.22,4.00,9.19,3.97,-3.97,-3.86,-3.78,5.24,5.22,5.22
37.81,9.22,4.00,9.21,3.99,-3.99,-3.88,-3.76,5.22,5.22,5.22
38.19,9.22,4.00,9.23,4.01,-4.01,-3.89,-3.74,5.21,5.22,5.22
38.57,9.22,3.99,9.25,4.03,-4.03,-3.91,-3.72,5.19,5.22,5.22
38.95,9.22,3.99,9.26,4.04,-4.04,-3.93,-3.70,5.18,5.22,5.23
39.34,9.25,4.02,9.27,4.05,-4.05,-3.95,-3.69,5.20,5.23,5.23
39.74,9.29,4.06,9.28,4.05,-4.05,-3.97,-3.67,5.23,5.23,5.23
40.14,9.32,4.09,9.29,4.06,-4.06,-3.98,-3.66,5.26,5.23,5.23
40.54,9.32,4.09,9.30,4.07,-4.07,-4.00,-3.65,5.25,5.23,5.23
40.94,9.32,4.09,9.30,4.08,-4.08,-4.02,-3.64,5.24,5.23,5.22
41.35,9.32,4.10,9.31,4.08,-4.08,-4.04,-3.64,5.23,5.22,5.22
41.76,9.32,4.10,9.32,4.10,-4.10,-4.05,-3.63,5.22,5.22,5.22
42.18,9.32,4.09,9.32,4.11,-4.11,-4.07,-3.63,5.21,5.21,5.22
42.60,9.32,4.11,9.32,4.12,-4.12,-4.08,-3.63,5.20,5.21,5.21
43.03,9.32,4.11,9.33,4.13,-4.13,-4.10,-3.64,5.19,5.20,5.21
43.46,9.32,4.12,9.33,4.14,-4.14,-4.12,-3.65,5.18,5.19,5.20
43.90,9.32,4.14,9.32,4.15,-4.15,-4.13,-3.66,5.17,5.18,5.18
44.33,9.32,4.16,9.32,4.15,-4.15,-4.15,-3.67,5.17,5.17,5.16
44.78,9.32,4.17,9.32,4.16,-4.16,-4.16,-3.69,5.16,5.16,5.15
45.23,9.32,4.18,9.32,4.17,-4.17,-4.18,-3.71,5.15,5.15,5.14
45.68,9.32,4.19,9.32,4.18,-4.18,-4.19,-3.73,5.14,5.14,5.13
46.13,9.32,4.21,9.32,4.19,-4.19,-4.21,-3.75,5.12,5.12,5.11
46.60,9.32,4.20,9.32,4.21,-4.21,-4.22,-3.78,5.11,5.11,5.12
47.06,9.32,4.22,9.32,4.22,-4.22,-4.23,-3.81,5.10,5.10,5.10
47.53,9.32,4.23,9.32,4.23,-4.23,-4.25,-3.84,5.09,5.09,5.09
48.01,9.32,4.22,9.32,4.24,-4.24,-4.26,-3.88,5.08,5.08,5.10
48.49,9.32,4.24,9.32,4.25,-4.25,-4.27,-3.92,5.07,5.07,5.08
48.97,9.32,4.25,9.32,4.26,-4.26,-4.29,-3.96,5.06,5.06,5.06
49.46,9.32,4.27,9.32,4.27,-4.27,-4.30,-4.00,5.05,5.05,5.05
49.96,9.32,4.29,9.32,4.28,-4.28,-4.31,-4.04,5.04,5.04,5.03
50.46,9.32,4.29,9.33,4.29,-4.29,-4.32,-4.09,5.03,5.03,5.03
50.96,9.32,4.29,9.33,4.30,-4.30,-4.34,-4.14,5.02,5.02,5.02
51.47,9.32,4.31,9.32,4.31,-4.31,-4.35,-4.18,5.01,5.02,5.01
51.99,9.32,4.32,9.32,4.31,-4.31,-4.36,-4.23,5.00,5.01,5.00
52.51,9.32,4.32,9.32,4.32,-4.32,-4.37,-4.28,5.00,5.00,5.00
53.03,9.32,4.32,9.31,4.32,-4.32,-4.38,-4.34,5.00,4.99,5.00
53.56,9.32,4.33,9.30,4.32,-4.32,-4.39,-4.39,5.00,4.98,4.99
54.10,9.32,4.34,9.29,4.31,-4.31,-4.40,-4.44,5.00,4.98,4.98
54.64,9.32,4.35,9.28,4.31,-4.31,-4.41,-4.49,5.01,4.97,4.97
55.18,9.30,4.33,9.28,4.31,-4.31,-4.42,-4.54,4.99,4.97,4.97
55.74,9.25,4.29,9.27,4.31,-4.31,-4.43,-4.58,4.94,4.96,4.96
56.29,9.22,4.26,9.26,4.31,-4.31,-4.44,-4.63,4.91,4.96,4.96
56.86,9.22,4.27,9.25,4.30,-4.30,-4.45,-4.67,4.91,4.95,4.95
57.42,9.22,4.29,9.24,4.30,-4.30,-4.46,-4.71,4.92,4.94,4.92
58.00,9.22,4.30,9.23,4.30,-4.30,-4.47,-4.75,4.91,4.93,4.92
58.58,9.22,4.30,9.22,4.31,-4.31,-4.48,-4.79,4.91,4.91,4.92
59.16,9.22,4.31,9.20,4.31,-4.31,-4.49,-4.82,4.91,4.89,4.91
59.76,9.22,4.33,9.19,4.32,-4.32,-4.50,-4.85,4.90,4.87,4.89
60.35,9.22,4.36,9.18,4.34,-4.34,-4.50,-4.87,4.88,4.85,4.86
60.96,9.22,4.39,9.18,4.36,-4.36,-4.51,-4.89,4.86,4.82,4.83
61.57,9.17,4.37,9.17,4.38,-4.38,-4.52,-4.90,4.79,4.79,4.80
62.18,9.13,4.37,9.17,4.40,-4.40,-4.53,-4.91,4.72,4.76,4.76
62.80,9.12,4.39,9.16,4.43,-4.43,-4.53,-4.92,4.69,4.73,4.73
63.43,9.12,4.43,9.15,4.45,-4.45,-4.54,-4.92,4.67,4.70,4.69
64.07,9.12,4.46,9.13,4.47,-4.47,-4.55,-4.91,4.65,4.66,4.65
64.71,9.12,4.50,9.12,4.49,-4.49,-4.55,-4.90,4.62,4.63,4.62
65.35,9.12,4.53,9.10,4.51,-4.51,-4.56,-4.89,4.61,4.59,4.59
66.01,9.12,4.57,9.08,4.53,-4.53,-4.56,-4.87,4.59,4.55,4.55
66.67,9.10,4.59,9.06,4.54,-4.54,-4.57,-4.85,4.55,4.51,4.51
67.33,9.06,4.59,9.04,4.56,-4.56,-4.58,-4.83,4.49,4.48,4.47
68.01,9.01,4.57,9.02,4.58,-4.58,-4.58,-4.80,4.43,4.44,4.44
68.69,9.00,4.60,8.99,4.59,-4.59,-4.59,-4.77,4.40,4.40,4.40
69.37,8.96,4.60,8.96,4.60,-4.60,-4.59,-4.73,4.36,4.36,4.36
70.07,8.92,4.60,8.93,4.61,-4.61,-4.59,-4.70,4.31,4.32,4.32
70.77,8.92,4.63,8.90,4.62,-4.62,-4.60,-4.66,4.29,4.27,4.28
71.48,8.85,4.61,8.87,4.64,-4.64,-4.60,-4.62,4.20,4.23,4.24
72.19,8.79,4.60,8.85,4.66,-4.66,-4.61,-4.58,4.13,4.19,4.19
72.91,8.82,4.68,8.82,4.68,-4.68,-4.61,-4.54,4.14,4.14,4.14
73.64,8.82,4.72,8.79,4.69,-4.69,-4.61,-4.50,4.12,4.10,4.10
74.38,8.76,4.71,8.77,4.71,-4.71,-4.62,-4.46,4.05,4.06,4.05
75.12,8.66,4.65,8.74,4.73,-4.73,-4.62,-4.42,3.93,4.01,4.01
75.87,8.66,4.70,8.70,4.73,-4.73,-4.62,-4.38,3.93,3.97,3.96
76.63,8.72,4.80,8.67,4.74,-4.74,-4.62,-4.34,3.97,3.93,3.92
77.40,8.75,4.86,8.65,4.76,-4.76,-4.63,-4.30,3.99,3.89,3.89
78.17,8.72,4.88,8.62,4.77,-4.77,-4.63,-4.27,3.94,3.85,3.84
78.95,8.63,4.81,8.59,4.78,-4.78,-4.63,-4.23,3.85,3.81,3.82
79.74,8.50,4.72,8.57,4.79,-4.79,-4.63,-4.20,3.71,3.78,3.78
80.54,8.49,4.74,8.53,4.79,-4.79,-4.63,-4.17,3.70,3.75,3.75
81.35,8.48,4.77,8.50,4.79,-4.79,-4.63,-4.15,3.69,3.71,3.71
82.16,8.40,4.72,8.47,4.79,-4.79,-4.63,-4.12,3.61,3.68,3.68
82.98,8.35,4.69,8.43,4.78,-4.78,-4.63,-4.10,3.56,3.65,3.66
83.81,8.41,4.80,8.38,4.77,-4.77,-4.63,-4.08,3.64,3.62,3.61
84.65,8.47,4.89,8.33,4.75,-4.75,-4.63,-4.07,3.72,3.58,3.58
85.50,8.35,4.79,8.28,4.73,-4.73,-4.63,-4.06,3.62,3.55,3.56
86.35,8.20,4.68,8.23,4.72,-4.72,-4.63,-4.05,3.48,3.52,3.52
87.22,8.20,4.71,8.20,4.71,-4.71,-4.63,-4.04,3.49,3.48,3.49
88.09,8.21,4.76,8.16,4.71,-4.71,-4.63,-4.04,3.50,3.45,3.45
88.97,8.07,4.65,8.12,4.71,-4.71,-4.63,-4.04,3.36,3.42,3.42
89.86,8.11,4.73,8.07,4.69,-4.69,-4.63,-4.04,3.42,3.38,3.38
90.76,7.95,4.60,8.01,4.66,-4.66,-4.63,-4.04,3.29,3.35,3.35
91.66,7.85,4.53,7.96,4.64,-4.64,-4.62,-4.05,3.21,3.32,3.32
92.58,7.88,4.61,7.91,4.63,-4.63,-4.62,-4.06,3.25,3.28,3.27
93.51,7.92,4.67,7.87,4.62,-4.62,-4.62,-4.08,3.30,3.25,3.25
94.44,7.89,4.67,7.82,4.60,-4.60,-4.62,-4.10,3.29,3.22,3.22
95.39,7.83,4.64,7.78,4.59,-4.59,-4.61,-4.12,3.24,3.19,3.19
96.34,7.77,4.62,7.74,4.58,-4.58,-4.61,-4.14,3.19,3.16,3.15
97.30,7.66,4.53,7.70,4.57,-4.57,-4.61,-4.16,3.09,3.13,3.12
98.28,7.53,4.43,7.66,4.56,-4.56,-4.60,-4.19,2.97,3.10,3.09
99.26,7.51,4.44,7.61,4.54,-4.54,-4.60,-4.22,2.96,3.07,3.07
100.25,7.59,4.55,7.56,4.52,-4.52,-4.60,-4.25,3.07,3.04,3.04
101.25,7.64,4.63,7.51,4.50,-4.50,-4.59,-4.29,3.14,3.01,3.01
102.27,7.60,4.62,7.45,4.47,-4.47,-4.59,-4.32,3.13,2.98,2.98
103.29,7.36,4.42,7.38,4.44,-4.44,-4.58,-4.36,2.92,2.95,2.94
104.32,7.21,4.29,7.32,4.40,-4.40,-4.58,-4.40,2.81,2.91,2.92
105.37,7.27,4.38,7.25,4.37,-4.37,-4.57,-4.43,2.90,2.88,2.89
106.42,7.32,4.46,7.19,4.34,-4.34,-4.56,-4.47,2.98,2.85,2.86
107.48,7.20,4.38,7.12,4.31,-4.31,-4.56,-4.51,2.89,2.82,2.82
108.56,6.95,4.17,7.06,4.28,-4.28,-4.55,-4.55,2.67,2.78,2.78
109.64,6.90,4.15,7.00,4.25,-4.25,-4.55,-4.59,2.64,2.75,2.75
110.74,6.95,4.23,6.94,4.22,-4.22,-4.54,-4.63,2.72,2.72,2.71
111.85,6.91,4.21,6.88,4.20,-4.20,-4.53,-4.66,2.71,2.68,2.69
112.97,6.84,4.19,6.83,4.18,-4.18,-4.52,-4.69,2.66,2.65,2.65
114.10,6.77,4.15,6.80,4.18,-4.18,-4.52,-4.73,2.59,2.62,2.62
115.24,6.73,4.14,6.78,4.19,-4.19,-4.51,-4.75,2.54,2.59,2.59
116.39,6.73,4.18,6.76,4.19,-4.19,-4.50,-4.78,2.53,2.57,2.55
117.55,6.74,4.21,6.73,4.19,-4.19,-4.49,-4.80,2.55,2.54,2.53
118.73,6.74,4.23,6.73,4.21,-4.21,-4.48,-4.82,2.52,2.52,2.51
119.92,6.75,4.25,6.75,4.25,-4.25,-4.47,-4.83,2.50,2.50,2.50
121.12,6.76,4.29,6.76,4.28,-4.28,-4.46,-4.84,2.48,2.48,2.47
122.33,6.76,4.30,6.77,4.31,-4.31,-4.45,-4.85,2.45,2.46,2.46
123.55,6.77,4.32,6.77,4.32,-4.32,-4.44,-4.85,2.44,2.44,2.45
124.79,6.78,4.34,6.78,4.35,-4.35,-4.43,-4.85,2.43,2.43,2.43
126.03,6.79,4.37,6.79,4.37,-4.37,-4.42,-4.84,2.42,2.42,2.42
127.29,6.79,4.37,6.80,4.40,-4.40,-4.41,-4.82,2.39,2.40,2.42
128.57,6.80,4.41,6.81,4.41,-4.41,-4.40,-4.81,2.38,2.39,2.39
129.85,6.89,4.51,6.80,4.42,-4.42,-4.39,-4.78,2.47,2.38,2.38
131.15,6.91,4.54,6.79,4.43,-4.43,-4.38,-4.75,2.48,2.37,2.36
132.46,6.77,4.42,6.78,4.43,-4.43,-4.37,-4.72,2.34,2.35,2.35
133.79,6.72,4.38,6.77,4.43,-4.43,-4.35,-4.69,2.29,2.34,2.34
135.12,6.72,4.40,6.76,4.43,-4.43,-4.34,-4.65,2.29,2.33,2.32
136.48,6.72,4.40,6.74,4.42,-4.42,-4.33,-4.61,2.30,2.32,2.32
137.84,6.73,4.43,6.72,4.41,-4.41,-4.31,-4.56,2.31,2.30,2.30
139.22,6.73,4.45,6.69,4.40,-4.40,-4.30,-4.51,2.33,2.29,2.28
140.61,6.66,4.40,6.66,4.38,-4.38,-4.29,-4.46,2.28,2.27,2.26
142.02,6.51,4.25,6.62,4.37,-4.37,-4.27,-4.41,2.14,2.26,2.26
143.44,6.60,4.36,6.59,4.35,-4.35,-4.26,-4.36,2.25,2.24,2.24
144.87,6.61,4.39,6.56,4.35,-4.35,-4.24,-4.30,2.26,2.21,2.21
146.32,6.56,4.37,6.53,4.35,-4.35,-4.23,-4.25,2.21,2.18,2.19
147.78,6.48,4.31,6.50,4.36,-4.36,-4.21,-4.19,2.12,2.15,2.17
149.26,6.44,4.30,6.46,4.36,-4.36,-4.20,-4.14,2.08,2.10,2.14
150.75,6.43,4.35,6.42,4.36,-4.36,-4.18,-4.08,2.07,2.06,2.08
152.26,6.38,4.35,6.38,4.37,-4.37,-4.16,-4.03,2.01,2.01,2.03
153.78,6.23,4.26,6.31,4.36,-4.36,-4.15,-3.98,1.87,1.95,1.97
155.32,6.24,4.33,6.24,4.34,-4.34,-4.13,-3.93,1.90,1.90,1.91
156.88,6.25,4.40,6.17,4.33,-4.33,-4.11,-3.87,1.92,1.84,1.85
158.44,6.20,4.42,6.09,4.31,-4.31,-4.09,-3.83,1.88,1.78,1.78
160.03,6.07,4.36,5.99,4.27,-4.27,-4.07,-3.78,1.80,1.72,1.70
161.63,5.88,4.24,5.90,4.23,-4.23,-4.05,-3.74,1.65,1.67,1.64
163.24,5.83,4.24,5.80,4.18,-4.18,-4.04,-3.69,1.65,1.62,1.59
164.88,5.73,4.18,5.69,4.12,-4.12,-4.02,-3.65,1.61,1.57,1.55
166.53,5.62,4.11,5.58,4.05,-4.05,-4.00,-3.62,1.57,1.53,1.51
168.19,5.45,3.96,5.46,3.96,-3.96,-3.98,-3.58,1.49,1.50,1.48
169.87,5.18,3.72,5.37,3.89,-3.89,-3.95,-3.55,1.28,1.48,1.46
171.57,5.27,3.82,5.29,3.83,-3.83,-3.93,-3.52,1.44,1.46,1.45
173.29,5.29,3.85,5.20,3.75,-3.75,-3.91,-3.49,1.54,1.45,1.44
175.02,5.07,3.62,5.12,3.67,-3.67,-3.89,-3.46,1.40,1.45,1.45
176.77,4.94,3.50,5.05,3.61,-3.61,-3.87,-3.44,1.33,1.45,1.44
178.54,4.95,3.50,4.99,3.54,-3.54,-3.85,-3.42,1.40,1.45,1.44
180.32,4.91,3.45,4.94,3.49,-3.49,-3.82,-3.41,1.42,1.45,1.46
182.13,4.89,3.41,4.88,3.43,-3.43,-3.80,-3.39,1.46,1.45,1.47
183.95,4.89,3.42,4.84,3.39,-3.39,-3.77,-3.38,1.50,1.45,1.47
185.79,4.91,3.43,4.82,3.37,-3.37,-3.75,-3.37,1.54,1.45,1.48
187.65,5.05,3.59,4.81,3.36,-3.36,-3.73,-3.36,1.69,1.45,1.46
189.52,4.78,3.32,4.80,3.35,-3.35,-3.70,-3.36,1.43,1.45,1.46
191.42,4.60,3.15,4.77,3.33,-3.33,-3.68,-3.36,1.27,1.44,1.45
193.33,4.76,3.32,4.77,3.33,-3.33,-3.65,-3.36,1.43,1.43,1.44
195.27,4.69,3.27,4.78,3.35,-3.35,-3.62,-3.36,1.33,1.42,1.42
197.22,4.65,3.24,4.78,3.37,-3.37,-3.60,-3.36,1.28,1.41,1.41
199.19,4.76,3.37,4.78,3.39,-3.39,-3.57,-3.37,1.37,1.40,1.39
201.18,4.81,3.43,4.79,3.40,-3.40,-3.54,-3.38,1.40,1.38,1.38
203.19,4.91,3.54,4.79,3.42,-3.42,-3.51,-3.39,1.49,1.37,1.37
205.23,4.94,3.59,4.80,3.44,-3.44,-3.48,-3.40,1.50,1.35,1.35
207.28,4.79,3.44,4.81,3.47,-3.47,-3.46,-3.41,1.31,1.34,1.35
209.35,4.72,3.39,4.83,3.50,-3.50,-3.43,-3.42,1.22,1.33,1.33
211.44,4.84,3.54,4.84,3.53,-3.53,-3.40,-3.43,1.31,1.31,1.30
213.56,4.97,3.66,4.84,3.54,-3.54,-3.37,-3.44,1.43,1.30,1.30
215.69,4.86,3.56,4.83,3.53,-3.53,-3.33,-3.45,1.32,1.29,1.30
217.85,4.80,3.51,4.82,3.53,-3.53,-3.30,-3.47,1.27,1.29,1.29
220.03,4.80,3.52,4.80,3.52,-3.52,-3.27,-3.48,1.28,1.28,1.28
222.23,4.80,3.54,4.78,3.50,-3.50,-3.24,-3.49,1.30,1.28,1.26
224.45,4.80,3.52,4.76,3.48,-3.48,-3.21,-3.49,1.32,1.28,1.28
226.70,4.80,3.52,4.75,3.47,-3.47,-3.17,-3.50,1.33,1.29,1.28
228.96,4.80,3.51,4.76,3.47,-3.47,-3.14,-3.50,1.33,1.29,1.29
231.25,4.58,3.27,4.76,3.45,-3.45,-3.11,-3.50,1.12,1.31,1.31
233.57,4.59,3.27,4.75,3.42,-3.42,-3.07,-3.50,1.16,1.32,1.32
235.90,4.72,3.38,4.73,3.39,-3.39,-3.04,-3.50,1.33,1.34,1.33
238.26,4.75,3.40,4.72,3.37,-3.37,-3.00,-3.49,1.38,1.36,1.35
240.64,4.76,3.39,4.73,3.35,-3.35,-2.96,-3.48,1.41,1.38,1.37
243.05,4.77,3.36,4.74,3.33,-3.33,-2.93,-3.46,1.43,1.40,1.41
245.48,4.79,3.36,4.74,3.31,-3.31,-2.89,-3.44,1.48,1.43,1.43
247.93,4.82,3.35,4.75,3.29,-3.29,-2.85,-3.41,1.53,1.46,1.47
250.41,4.84,3.36,4.75,3.27,-3.27,-2.82,-3.39,1.57,1.48,1.48
252.92,4.69,3.17,4.76,3.25,-3.25,-2.78,-3.35,1.44,1.51,1.52
255.45,4.59,3.05,4.76,3.23,-3.23,-2.74,-3.31,1.36,1.53,1.54
258.00,4.71,3.14,4.76,3.20,-3.20,-2.70,-3.27,1.51,1.56,1.57
260.58,4.78,3.19,4.73,3.14,-3.14,-2.66,-3.23,1.64,1.59,1.58
263.19,4.77,3.15,4.68,3.06,-3.06,-2.62,-3.18,1.70,1.62,1.62
265.82,4.69,3.05,4.64,3.00,-3.00,-2.58,-3.12,1.69,1.64,1.64
268.48,4.68,3.02,4.60,2.93,-2.93,-2.54,-3.06,1.75,1.67,1.66
271.16,4.61,2.91,4.56,2.87,-2.87,-2.49,-3.00,1.74,1.70,1.70
273.87,4.56,2.84,4.52,2.80,-2.80,-2.45,-2.94,1.76,1.72,1.72
276.61,4.48,2.73,4.46,2.71,-2.71,-2.41,-2.87,1.77,1.75,1.75
279.38,4.41,2.63,4.40,2.62,-2.62,-2.36,-2.80,1.79,1.78,1.78
282.17,4.31,2.50,4.37,2.56,-2.56,-2.32,-2.73,1.75,1.81,1.81
284.99,4.12,2.27,4.31,2.47,-2.47,-2.28,-2.65,1.65,1.84,1.84
287.84,4.12,2.26,4.24,2.37,-2.37,-2.23,-2.57,1.75,1.87,1.86
290.72,4.28,2.38,4.20,2.30,-2.30,-2.19,-2.49,1.98,1.90,1.90
293.63,4.23,2.30,4.18,2.25,-2.25,-2.14,-2.41,1.98,1.93,1.93
296.57,4.19,2.22,4.13,2.17,-2.17,-2.09,-2.33,2.02,1.96,1.96
299.53,4.14,2.15,4.08,2.09,-2.09,-2.05,-2.25,2.05,1.99,1.99
302.53,3.89,1.88,4.06,2.04,-2.04,-2.00,-2.17,1.84,2.02,2.01
305.55,3.84,1.78,4.05,2.00,-2.00,-1.95,-2.08,1.84,2.05,2.06
308.61,4.20,2.12,4.01,1.94,-1.94,-1.90,-2.00,2.26,2.07,2.07
311.69,4.10,2.00,3.96,1.86,-1.86,-1.85,-1.92,2.24,2.10,2.10
314.81,3.80,1.67,3.90,1.78,-1.78,-1.80,-1.83,2.01,2.12,2.13
317.96,3.94,1.79,3.86,1.72,-1.72,-1.75,-1.75,2.22,2.14,2.15
321.14,4.09,1.93,3.79,1.63,-1.63,-1.70,-1.67,2.46,2.16,2.16
324.35,3.69,1.51,3.72,1.54,-1.54,-1.65,-1.58,2.15,2.18,2.18
327.59,3.43,1.24,3.68,1.48,-1.48,-1.60,-1.50,1.95,2.19,2.19
330.87,3.71,1.51,3.62,1.41,-1.41,-1.55,-1.42,2.30,2.21,2.20
334.18,3.79,1.57,3.55,1.33,-1.33,-1.49,-1.34,2.46,2.22,2.22
337.52,3.31,1.08,3.50,1.27,-1.27,-1.44,-1.25,2.04,2.23,2.23
340.90,3.13,0.88,3.43,1.19,-1.19,-1.39,-1.17,1.94,2.24,2.25
344.30,3.18,0.92,3.34,1.09,-1.09,-1.33,-1.09,2.09,2.25,2.26
347.75,3.47,1.21,3.29,1.03,-1.03,-1.28,-1.02,2.43,2.26,2.25
351.23,3.41,1.14,3.25,0.99,-0.99,-1.22,-0.94,2.42,2.26,2.26
354.74,3.08,0.82,3.19,0.93,-0.93,-1.17,-0.86,2.15,2.27,2.26
358.28,3.22,0.95,3.12,0.85,-0.85,-1.11,-0.78,2.37,2.27,2.27
361.87,3.24,0.97,3.08,0.81,-0.81,-1.05,-0.71,2.43,2.27,2.27
365.49,2.82,0.54,3.04,0.77,-0.77,-0.99,-0.63,2.05,2.27,2.28
369.14,3.00,0.73,2.97,0.70,-0.70,-0.94,-0.55,2.30,2.27,2.27
372.83,3.11,0.84,2.92,0.65,-0.65,-0.88,-0.48,2.46,2.27,2.27
376.56,2.69,0.42,2.88,0.61,-0.61,-0.82,-0.41,2.08,2.27,2.27
380.33,2.77,0.49,2.81,0.54,-0.54,-0.76,-0.33,2.23,2.27,2.28
384.13,2.89,0.61,2.72,0.46,-0.46,-0.70,-0.26,2.43,2.26,2.27
387.97,2.70,0.43,2.62,0.36,-0.36,-0.64,-0.19,2.34,2.26,2.26
391.85,2.42,0.17,2.54,0.28,-0.28,-0.58,-0.12,2.14,2.26,2.25
395.77,2.37,0.11,2.47,0.21,-0.21,-0.52,-0.04,2.15,2.25,2.26
399.73,2.63,0.38,2.39,0.14,-0.14,-0.46,0.03,2.49,2.25,2.25
403.72,2.48,0.23,2.33,0.08,-0.08,-0.40,0.10,2.39,2.24,2.25
407.76,2.15,-0.09,2.27,0.04,-0.04,-0.33,0.16,2.11,2.24,2.24
411.84,2.10,-0.14,2.20,-0.03,0.03,-0.27,0.23,2.13,2.24,2.24
415.96,2.08,-0.16,2.14,-0.10,0.10,-0.21,0.30,2.18,2.23,2.24
420.12,2.02,-0.22,2.10,-0.14,0.14,-0.14,0.37,2.15,2.24,2.24
424.32,1.96,-0.28,2.06,-0.19,0.19,-0.08,0.43,2.15,2.24,2.24
428.56,1.94,-0.31,2.01,-0.24,0.24,-0.02,0.49,2.18,2.25,2.25
432.85,1.99,-0.27,2.00,-0.27,0.27,0.05,0.56,2.25,2.27,2.26
437.18,2.19,-0.08,2.00,-0.29,0.29,0.11,0.62,2.48,2.29,2.27
441.55,2.10,-0.21,1.98,-0.33,0.33,0.18,0.68,2.43,2.32,2.31
445.96,1.97,-0.37,1.96,-0.39,0.39,0.24,0.74,2.36,2.35,2.33
450.42,1.92,-0.45,1.98,-0.41,0.41,0.31,0.80,2.33,2.38,2.36
454.93,1.92,-0.50,2.01,-0.41,0.41,0.38,0.86,2.33,2.43,2.41
459.48,1.93,-0.53,2.03,-0.44,0.44,0.44,0.91,2.37,2.47,2.46
464.07,2.10,-0.41,2.03,-0.48,0.48,0.51,0.96,2.58,2.52,2.51
468.71,2.04,-0.53,2.03,-0.54,0.54,0.57,1.01,2.57,2.57,2.57
473.40,1.94,-0.67,2.01,-0.60,0.60,0.64,1.06,2.54,2.61,2.61
478.13,2.10,-0.57,1.99,-0.67,0.67,0.71,1.11,2.77,2.66,2.67
482.91,2.00,-0.71,1.96,-0.75,0.75,0.78,1.16,2.75,2.71,2.71
487.74,1.82,-0.93,1.92,-0.83,0.83,0.84,1.20,2.65,2.75,2.75
492.62,2.02,-0.78,1.90,-0.89,0.89,0.91,1.24,2.91,2.79,2.80
497.55,2.11,-0.71,1.86,-0.96,0.96,0.98,1.28,3.07,2.82,2.82
502.52,1.94,-0.91,1.81,-1.03,1.03,1.04,1.32,2.97,2.84,2.85
507.55,1.56,-1.30,1.74,-1.11,1.11,1.11,1.36,2.67,2.85,2.86
512.62,1.48,-1.39,1.67,-1.19,1.19,1.18,1.39,2.67,2.86,2.87
517.75,1.53,-1.35,1.58,-1.28,1.28,1.25,1.42,2.81,2.86,2.88
522.93,1.50,-1.37,1.50,-1.34,1.34,1.31,1.45,2.84,2.84,2.87
528.16,1.44,-1.40,1.41,-1.41,1.41,1.38,1.48,2.85,2.82,2.84
533.44,1.36,-1.45,1.31,-1.49,1.49,1.45,1.51,2.84,2.79,2.81
538.77,1.25,-1.53,1.23,-1.53,1.53,1.51,1.53,2.77,2.76,2.78
544.16,1.17,-1.56,1.14,-1.57,1.57,1.58,1.56,2.74,2.71,2.73
549.60,1.04,-1.64,1.02,-1.64,1.64,1.65,1.58,2.68,2.67,2.68
