frequency,raw
10,-11.85908606273178
11,-11.080805909523189
12,-10.253351266878203
13,-9.69885853167742
14,-9.095673905225855
15,-8.5336961436837
16,-8.003808060106124
17,-7.626724969060352
18,-7.211267755293351
19,-6.768450401323888
20,-6.474401143926308
21,-6.109773718356854
22,-5.756520400882483
23,-5.552793103397168
24,-5.3436176721947435
25,-5.0482344115694895
26,-4.782663873272944
27,-4.576576359297846
28,-4.4659809833509625
29,-4.210903387157344
30,-4.024558557156041
31,-3.8082254272475557
32,-3.67891702300839
33,-3.5237036591320052
34,-3.4543608695270622
35,-3.287369384953231
36,-3.203988615902196
37,-3.17452110406791
38,-2.9302624643244553
39,-2.9593977814817034
40,-2.771127353394082
41,-2.5769792850425066
42,-2.5174970236830063
43,-2.494500680935557
44,-2.355640522538237
45,-2.235774674909365
46,-2.311582706423592
47,-2.1767848736417985
48,-2.1764946944970047
49,-2.06774713796099
50,-1.9572872871492122
51,-1.9328522236636572
52,-1.848416042445643
53,-1.7918020869971905
54,-1.7145177472449717
55,-1.6923730708709344
56,-1.698827470955116
57,-1.7086937477452468
58,-1.6187238035028713
59,-1.5790680337137155
60,-1.5341254669351734
61,-1.538149620226846
62,-1.5401288408526788
63,-1.541168356241313
64,-1.5422441398501143
65,-1.5436467618353558
66,-1.4039592619574583
67,-1.442371605234891
68,-1.4632449529378264
69,-1.4352104403421924
70,-1.3275149252178438
71,-1.3204475247247105
72,-1.31555971114168
73,-1.3142739570277981
74,-1.3171438943708804
75,-1.3239730606954112
76,-1.3340908840737322
77,-1.3464739004209647
78,-1.3596365795419034
79,-1.3715367481015754
80,-1.3798371966086167
81,-1.382606466140966
82,-1.3791143871500038
83,-1.3701576043530186
84,-1.357597050483605
85,-1.3433731441171526
86,-1.3287097703788517
87,-1.3141179661246705
88,-1.3001849977808213
89,-1.2884477997173853
90,-1.2814678083903523
91,-1.281747551227481
92,-1.290007193293019
93,-1.3039490393050002
94,-1.318522947478278
95,-1.327881232331204
96,-1.328165531080232
97,-1.319641413746724
98,-1.3068937265017608
99,-1.3177730830027332
100,-1.3955604591028614
101,-1.512728790706465
102,-1.519041032484784
104,-1.5334464812868591
105,-1.5406297036164625
106,-1.5369567246705491
107,-1.5236327955326814
108,-1.5058318361289185
109,-1.490061162215038
110,-1.481292923242166
111,-1.4813010286788504
112,-1.4840778709160138
113,-1.4805984426389343
114,-1.5331785308982029
115,-1.7081003084565818
117,-1.7433982311220209
118,-1.7446566918787476
119,-1.7490814249024713
120,-1.7508265189437615
121,-1.7507331843543696
123,-1.7466546944058985
124,-1.7308400253689904
125,-1.827010839285396
126,-1.9621882483039788
128,-1.9526461612247792
129,-1.9490404099421765
130,-1.942600663446177
131,-1.9352170235388881
133,-1.929692590614417
134,-1.9281830671517917
135,-1.9305412220859088
137,-1.915515534765156
138,-1.9921514699218246
140,-2.0396286717895062
141,-2.0349576858620937
142,-2.0274632397697347
144,-2.0201252282967017
145,-2.015696000137919
147,-2.0154299883607036
148,-2.018649104246573
150,-2.0341276820340157
151,-2.11397800336991
153,-2.1413516700859443
154,-2.1160291364625268
156,-2.081855735694983
157,-2.0611422065556875
159,-2.161779078114243
160,-2.178708859949147
162,-2.2455320928498237
164,-2.2361992257777192
165,-2.3145616913461993
167,-2.361132280807027
169,-2.419796110460111
170,-2.473646141701046
172,-2.5413651904661156
174,-2.5697858893534002
175,-2.566443203772617
177,-2.564551168428027
179,-2.5639741120516426
181,-2.5636947980360665
183,-2.562881323142536
184,-2.561601827901648
186,-2.628110297394792
188,-2.6810575685627933
190,-2.7635427266078123
192,-2.764399967183283
194,-2.7623687560858823
196,-2.755408789557719
198,-2.779602632866779
200,-2.847205991376809
202,-2.826808980225877
204,-2.776274143470874
206,-2.760007587397576
208,-2.8545413107799376
210,-2.863515528984975
212,-2.8795868085214553
214,-2.969605611501774
216,-2.958452438853751
218,-2.9343408619512945
221,-2.9296457368744027
223,-2.931795451295181
225,-3.0217963179880396
227,-3.064769298307781
229,-3.152278595036928
232,-3.1608046932897866
234,-3.1646231516135934
236,-3.20669968451164
239,-3.26795891006753
241,-3.333283565751767
244,-3.3215979448528343
246,-3.307362645744326
248,-3.3168342049930875
251,-3.392610734366572
253,-3.451925293206801
256,-3.4931810245923463
259,-3.4964303268929973
261,-3.501037470143408
264,-3.5319332323006094
266,-3.638519340386945
269,-3.6444962817801425
272,-3.6143968176836543
274,-3.578723931232519
277,-3.712011252079793
280,-3.828759818524971
283,-3.785780532708676
286,-3.7768306778555107
288,-3.8534717920715407
291,-3.9243880665635578
294,-3.859601770408526
297,-3.814839348617033
300,-3.780298591110182
303,-3.9687386129122206
306,-4.086966977726792
309,-4.043334480788755
312,-4.019742615314616
316,-4.087703575488913
319,-4.190684164511376
322,-4.133114266000646
325,-4.089356923258485
328,-4.079340646747726
332,-4.072776207314193
335,-4.07009403360938
338,-4.196750927999408
342,-4.269548707863802
345,-4.209141036196998
349,-4.15496747097572
352,-4.141422478877127
356,-4.125463268774906
359,-4.24363767595871
363,-4.301035324977031
366,-4.189823482784567
370,-4.166302748755551
374,-4.153679710206504
377,-4.142113405142164
381,-4.1320068625148405
385,-4.193324564864674
389,-4.356375969457747
393,-4.249880151213671
397,-4.195271440506348
401,-4.183069669641398
405,-4.171998724842307
409,-4.164894401746422
413,-4.1635353324536215
417,-4.167511655986672
421,-4.174378353860476
425,-4.061036132896847
430,-3.922763285286848
434,-3.995427363819231
438,-4.074056045749721
443,-4.065459771374064
447,-4.056437159715596
451,-4.046706620434438
456,-4.035166547253968
460,-3.930472112224998
465,-3.7240842266074115
470,-3.8594403154987846
474,-3.874819754745768
479,-3.8603826083555752
484,-3.8438431799484083
489,-3.5208696001148634
494,-3.4937824397986543
499,-3.663297342789866
504,-3.6303996919272397
509,-3.6001277627055583
514,-3.5755489038657573
519,-3.558175029628325
524,-3.548028288837179
529,-3.544119687841768
535,-3.5448971467385446
540,-3.548486915090738
545,-3.6740464171980705
551,-3.7370965087968355
556,-3.475645017646509
562,-3.44884396892957
568,-3.436682500172178
573,-3.417783871259803
579,-3.3931476641516314
585,-3.365446629201676
591,-3.338853747131196
596,-3.4455170703870497
602,-3.302867007975683
608,-3.1455812696431438
615,-3.2319872179259894
621,-3.398230451518261
627,-3.3924696387216904
633,-3.2895816673024503
639,-3.2654718354083396
646,-3.2391038166606276
652,-3.21856775138583
659,-3.2096151767409986
665,-3.156367923859446
672,-3.0650204711128883
679,-3.0120238076594847
686,-2.914732010327048
692,-2.832012592907768
699,-2.6008388925480235
706,-2.4680149960793427
713,-2.32764290906515
721,-2.2646646982829384
728,-1.9120335434891864
735,-1.6686627274169779
742,-1.9225206110700963
750,-1.4334108126313485
757,-1.0418977728291876
765,-0.932649034845568
773,-0.4597228102979063
780,-0.6356231321040078
788,-0.870367425792199
796,-0.4362701539440115
804,-0.03132174586190328
812,-0.06701792348488689
820,-0.11000549386244352
828,-0.02322132047129921
837,-0.3853757898810628
845,-0.47774374547987475
853,-0.5686996545530485
862,-0.3944671007180309
871,-0.10767528713016916
879,0.1600765788314218
888,0.3597960626931862
897,0.2788356041134348
906,0.4087497499642432
915,0.3663043369112936
924,0.1520424224525253
933,0.09954838446991843
943,-0.07389267381972986
952,-0.12969287448220124
962,-0.1201248548979661
971,-0.19734541408992023
981,-0.1863247438522928
991,-0.06208060245659053
1001,0.006863326553379068
1011,0.13658252933625348
1021,0.3882420041330352
1031,0.4557340821201983
1041,0.540566551928876
1052,0.638889151052957
1062,0.6048098527424386
1073,0.435044526876186
1084,0.19247042757143507
1094,0.12799460510620886
1105,0.1517717151419773
1116,0.18355751790970443
1128,0.10006306231830142
1139,-0.0400027148744706
1150,-0.41013978077110047
1162,-0.7441587398625635
1173,-0.9447153322616455
1185,-1.4287743973166736
1197,-2.2583102773047816
1209,-2.8529477751894468
1221,-3.2124329555892603
1233,-3.6868454339547783
1246,-3.930709623691602
1258,-4.193157789282079
1271,-4.459950260022193
1283,-4.720301542029383
1296,-4.9635125836180904
1309,-5.6018072742861635
1322,-6.210904374643347
1335,-6.169036715463176
1349,-6.030140159383949
1362,-5.890777208346185
1376,-5.748612268386884
1390,-5.604177719712425
1404,-5.404941548701761
1418,-4.9995332060238455
1432,-4.83517409855829
1446,-4.945493658907752
1461,-5.310947757956948
1475,-5.28544836836241
1490,-5.095302722031768
1505,-5.002831327241967
1520,-5.142095749276239
1535,-5.274302706927662
1550,-5.21623144956723
1566,-5.253686541432724
1582,-5.550553715403759
1597,-5.702368620933542
1613,-5.781320643470406
1629,-5.858381770187623
1646,-6.109285302188174
1662,-6.483804587258653
1679,-6.660372419288264
1696,-6.8434190293663475
1713,-7.210140521564444
1730,-7.4420171550579095
1747,-7.527836570629008
1764,-7.561325943206017
1782,-7.441218210211486
1800,-7.196199894896143
1818,-6.934741749742957
1836,-6.369203341785569
1854,-5.65972259873993
1873,-5.147493280629707
1892,-4.3161565649936415
1911,-3.507296273748884
1930,-3.1006211625984763
1949,-3.0693921115058487
1969,-3.5850925624460652
1988,-3.0505783692343567
2008,-2.5986135170787374
2028,-2.631327493122293
2048,-2.797189646581004
2069,-3.2001193920115636
2090,-4.001243836313905
2111,-4.613961589689447
2132,-4.881173156290216
2153,-5.3718615008430675
2175,-5.193756155966726
2196,-4.8086645543682325
2218,-4.58538790863077
2240,-4.57096021054769
2263,-4.4631699141200265
2285,-4.398397735599819
2308,-4.547802614365556
2331,-4.547713735217726
2355,-4.456698505855738
2378,-4.476845272154788
2402,-4.665843484636524
2426,-4.940511952217091
2450,-4.796621782865588
2475,-4.724437108009712
2500,-4.586468737188219
2525,-4.420380279161972
2550,-4.3880803276461515
2575,-4.298209729738244
2601,-4.12470006012953
2627,-3.9069615809869243
2653,-3.6473928086211957
2680,-3.4763299078980703
2707,-3.256162412573077
2734,-3.0006198670996698
2761,-2.719687683718167
2789,-2.4015592763469975
2817,-2.180470507053574
2845,-1.9191179349493854
2873,-1.6383907087345957
2902,-1.3879575027559898
2931,-1.2604746215418565
2960,-1.0724313346690977
2990,-0.8794592818773221
3020,-0.7097278697359375
3050,-0.5621296036446015
3080,-0.3802601787458961
3111,-0.2660079846564294
3142,-0.1904931265961629
3174,-0.17322238377870747
3206,-0.09721560611856006
3238,-0.16905556504085162
3270,-0.3204338954226209
3303,-0.2446406804561736
3336,-0.25850786855924923
3369,-0.3266898498000863
3403,-0.4383742251272835
3437,-0.716298345200169
3471,-0.822247022780985
3506,-0.769255521126798
3541,-0.7425093039036437
3576,-0.635199324945873
3612,-0.4719163167816749
3648,-0.2891848408713855
3685,-0.24202936697183475
3721,-0.18764083948079602
3759,-0.21763263526317544
3796,-0.4161295657479087
3834,-0.4505493768852187
3873,-0.6669536040509119
3911,-1.0889250301200253
3950,-1.4968202719648644
3990,-1.6995157340689921
4030,-2.0718512233524073
4070,-2.6203958277495865
4111,-3.0970397568251435
4152,-3.4746108141506404
4193,-3.839512651927656
4235,-4.171229507979039
4278,-4.3858806555660586
4321,-4.670859260889854
4364,-5.107261409882213
4407,-5.61447978164319
4451,-5.912214310947338
4496,-6.154163082988184
4541,-6.475039646217011
4586,-6.76488708609488
4632,-6.994437354598318
4679,-7.344625186098158
4725,-7.561732669489999
4773,-8.009526526593092
4820,-8.177038170120344
4868,-7.983182882895247
4917,-7.547336616253339
4966,-7.262585290129464
5016,-6.66871024090035
5066,-6.144486180177226
5117,-5.291629754555289
5168,-4.3218936478914936
5220,-3.5532197836836863
5272,-2.9601578819283683
5325,-2.334579197758198
5378,-2.135031490498739
5432,-2.1077551920486712
5486,-2.1730560562931096
5541,-2.4795623195837697
5596,-2.6783893602928464
5652,-2.9843223953268163
5709,-3.478221184102142
5766,-3.9403283602176353
5823,-4.341873946978181
5882,-4.788514479277975
5940,-5.3277054096707746
6000,-5.77288254453059
6060,-6.211131909641379
6120,-6.67868439652543
6182,-7.042713564959596
6244,-7.337105929008893
6306,-7.6116506274191815
6369,-7.898704164596283
6433,-8.295640349099681
6497,-8.704720615591786
6562,-9.179816109604836
6628,-9.592588022021292
6694,-10.020452504348494
6761,-10.503234035363228
6828,-10.962212147578526
6897,-11.39313554892179
6966,-11.810112425901451
7035,-12.336993164429424
7106,-12.73333280581685
7177,-13.118611559131699
7249,-13.679863320141155
7321,-14.03262748535893
7394,-14.320243584951607
7468,-14.64464122179076
7543,-14.902599738367437
7618,-15.165987933930003
7694,-15.490483661041441
7771,-15.884764414638795
7849,-16.151444157267424
7928,-16.37253370604649
8007,-16.600677223477618
8087,-16.5666582667454
8168,-16.32223492804122
8250,-15.33137755505135
8332,-14.412784920473658
8415,-13.902302897281352
8499,-13.163936813314022
8584,-11.900432764315712
8670,-10.99938476922896
8757,-10.061820348256042
8845,-8.858456059613061
8933,-7.995938345515973
9022,-6.658036213493924
9113,-5.171395534954717
9204,-4.1562214945963065
9296,-2.572664371383356
9389,-1.175923188145219
9483,-0.2704391957178425
9577,0.14782846124745275
9673,-0.016284106443688273
9770,-0.1606720506750161
9868,-0.7734434022672274
9966,-1.4746773375891626
10066,-3.3387885458726463
10167,-4.584091846970679
10268,-5.191030775287804
10371,-5.995617254585059
10475,-6.522458904369144
10579,-6.549271107108491
10685,-6.1614005536291
10792,-6.409120995816662
10900,-6.669648814631324
11009,-6.63008026341201
11119,-6.0766113136586055
11230,-5.33313744016062
11343,-4.531240549550091
11456,-4.267887578156847
11571,-5.127979764590897
11686,-5.454145741456401
11803,-5.524390443644
11921,-6.053947053445351
12040,-6.587455075931569
12161,-7.043019562629104
12282,-7.703720070779141
12405,-7.920885047228275
12529,-7.7483762027555985
12655,-7.350788263779564
12781,-7.236945514864495
12909,-7.2291108641931165
13038,-7.3017247548972675
13168,-7.3815836674355735
13300,-7.89324678478625
13433,-8.666713777209416
13567,-9.226491309992582
13703,-9.702272098789052
13840,-10.730455718677774
13978,-11.83027308929621
14118,-12.667871767896584
14259,-13.774625891477363
14402,-14.996471463418397
14546,-16.712858311267468
14692,-17.64878614048051
14838,-17.9881840372152
14987,-17.987001920564097
15137,-16.45836984667083
15288,-15.500885829389706
15441,-14.849333131197014
15595,-15.341402675930052
15751,-15.228775707467989
15909,-15.480593196574004
16068,-14.494761851402476
16229,-14.160625946524108
16391,-13.986887775350446
16555,-14.262494546624147
16720,-13.595276173303048
16888,-14.166046299039555
17056,-15.515612888451866
17227,-17.391689040485662
17399,-18.854991986350033
17573,-19.932927886350885
17749,-20.04122500903207
17926,-19.71300808306312
18106,-19.020399271886177
18287,-17.65701113080764
18470,-15.350651309849201
18654,-14.41007161746648
18841,-12.773720860509666
19029,-11.613931398815396
19220,-11.927093876492638
19412,-12.456647979994125
19606,-13.053177880595324
19802,-13.189392076653768
20000,-14.363697040949639
20200,-17.3051270111139
20402,-19.404116816848386
20606,-20.476844038814434
20812,-21.956957981315647
21020,-22.31317079779006
21230,-23.500902723014867
21443,-25.216135370344716
21657,-27.000811249840062
21874,-28.009294078486214
22092,-27.298272989983086
22313,-26.33524854450503
22537,-25.144549733945684
22762,-24.520096771931488
22989,-24.96836435994424
23219,-26.090848397728934
23452,-27.578342706911663
23686,-28.78519152891238
23923,-30.308942420671745
24162,-30.380003804112388
24404,-30.45250710958558
24648,-30.525353741325986
24894,-30.59833525128766
25143,-30.672136161175594
25395,-30.746522265030933
25649,-30.820413667956565
25905,-30.893712515981655
26164,-30.967253353539633
26426,-31.041007905394963
26690,-31.114114889271818
26957,-31.187466592634976
27227,-31.261077823533544
27499,-31.33411576653195
27774,-31.407420398381213
28052,-31.48096431114439
28332,-31.553899915814217
28615,-31.62701167496133
28902,-31.701068152909933
29191,-31.77444252891221
29482,-31.847134212477517
29777,-31.920685419262252
