frequency,raw,error,smoothed,error_smoothed,equalization,parametric_eq,fixed_band_eq,equalized_raw,equalized_smoothed,target
20.00,5.47,0.04,5.47,0.04,-0.04,-0.34,-0.26,5.43,5.43,5.43
20.20,5.48,0.05,5.48,0.05,-0.05,-0.35,-0.26,5.43,5.43,5.43
20.40,5.49,0.06,5.49,0.07,-0.06,-0.36,-0.27,5.43,5.43,5.43
20.61,5.50,0.07,5.50,0.08,-0.08,-0.36,-0.28,5.43,5.43,5.43
20.81,5.51,0.09,5.52,0.09,-0.09,-0.37,-0.28,5.42,5.43,5.42
21.02,5.53,0.11,5.53,0.11,-0.10,-0.38,-0.29,5.43,5.43,5.42
21.23,5.53,0.11,5.54,0.12,-0.11,-0.38,-0.30,5.42,5.42,5.42
21.44,5.54,0.12,5.54,0.12,-0.13,-0.39,-0.30,5.42,5.42,5.43
21.66,5.55,0.13,5.55,0.13,-0.14,-0.40,-0.31,5.41,5.41,5.42
21.87,5.56,0.15,5.57,0.15,-0.15,-0.41,-0.32,5.41,5.41,5.42
22.09,5.58,0.18,5.58,0.17,-0.17,-0.41,-0.33,5.41,5.41,5.41
22.31,5.59,0.19,5.59,0.19,-0.18,-0.42,-0.33,5.41,5.41,5.41
22.54,5.60,0.21,5.60,0.20,-0.20,-0.43,-0.34,5.40,5.40,5.40
22.76,5.61,0.22,5.61,0.22,-0.22,-0.44,-0.35,5.40,5.40,5.40
22.99,5.62,0.23,5.62,0.23,-0.23,-0.44,-0.36,5.39,5.39,5.39
23.22,5.63,0.25,5.63,0.24,-0.25,-0.45,-0.37,5.38,5.38,5.38
23.45,5.64,0.26,5.64,0.26,-0.27,-0.46,-0.38,5.38,5.38,5.38
23.69,5.65,0.28,5.66,0.28,-0.28,-0.47,-0.39,5.37,5.38,5.37
23.92,5.67,0.31,5.67,0.30,-0.30,-0.48,-0.40,5.38,5.37,5.36
24.16,5.68,0.32,5.68,0.32,-0.31,-0.49,-0.41,5.37,5.37,5.36
24.40,5.68,0.32,5.69,0.33,-0.32,-0.50,-0.42,5.36,5.36,5.36
24.65,5.69,0.33,5.69,0.33,-0.34,-0.50,-0.43,5.36,5.36,5.36
24.89,5.70,0.34,5.70,0.34,-0.35,-0.51,-0.44,5.35,5.35,5.36
25.14,5.71,0.35,5.71,0.36,-0.36,-0.52,-0.45,5.35,5.35,5.36
25.39,5.72,0.37,5.72,0.37,-0.37,-0.53,-0.46,5.35,5.35,5.35
25.65,5.73,0.39,5.73,0.38,-0.38,-0.54,-0.47,5.35,5.35,5.35
25.91,5.74,0.40,5.74,0.39,-0.39,-0.55,-0.48,5.35,5.35,5.35
26.16,5.75,0.40,5.75,0.40,-0.40,-0.56,-0.49,5.35,5.35,5.36
26.43,5.76,0.41,5.76,0.41,-0.41,-0.57,-0.50,5.35,5.35,5.35
26.69,5.77,0.42,5.77,0.42,-0.42,-0.58,-0.52,5.35,5.35,5.35
26.96,5.78,0.43,5.78,0.43,-0.43,-0.59,-0.53,5.35,5.35,5.35
27.23,5.79,0.44,5.79,0.44,-0.44,-0.60,-0.54,5.35,5.35,5.35
27.50,5.80,0.45,5.80,0.45,-0.45,-0.62,-0.55,5.35,5.35,5.35
27.77,5.81,0.45,5.81,0.46,-0.46,-0.63,-0.56,5.35,5.35,5.36
28.05,5.82,0.47,5.82,0.47,-0.47,-0.64,-0.58,5.35,5.35,5.35
28.33,5.83,0.49,5.83,0.49,-0.49,-0.65,-0.59,5.35,5.35,5.35
28.62,5.84,0.51,5.84,0.50,-0.50,-0.66,-0.60,5.34,5.34,5.34
28.90,5.85,0.51,5.85,0.51,-0.51,-0.67,-0.62,5.34,5.34,5.34
29.19,5.86,0.53,5.86,0.53,-0.53,-0.69,-0.63,5.33,5.33,5.33
29.48,5.86,0.54,5.87,0.54,-0.54,-0.70,-0.64,5.32,5.33,5.32
29.78,5.88,0.56,5.88,0.56,-0.56,-0.71,-0.66,5.33,5.32,5.32
30.08,5.88,0.56,5.88,0.57,-0.57,-0.72,-0.67,5.31,5.31,5.32
30.38,5.89,0.59,5.90,0.59,-0.58,-0.74,-0.68,5.31,5.31,5.31
30.68,5.90,0.60,5.90,0.60,-0.59,-0.75,-0.70,5.31,5.31,5.30
30.99,5.91,0.61,5.91,0.61,-0.61,-0.76,-0.71,5.31,5.30,5.30
31.30,5.91,0.61,5.92,0.62,-0.62,-0.78,-0.73,5.30,5.30,5.30
31.61,5.92,0.62,5.92,0.62,-0.63,-0.79,-0.74,5.30,5.30,5.30
31.93,5.93,0.64,5.93,0.63,-0.63,-0.81,-0.76,5.30,5.30,5.30
32.24,5.94,0.64,5.94,0.64,-0.64,-0.82,-0.77,5.30,5.30,5.30
32.57,5.95,0.66,5.95,0.66,-0.65,-0.83,-0.79,5.30,5.30,5.29
32.89,5.96,0.66,5.96,0.66,-0.66,-0.85,-0.80,5.30,5.30,5.30
33.22,5.97,0.67,5.97,0.67,-0.67,-0.86,-0.82,5.30,5.30,5.30
33.55,5.97,0.68,5.98,0.68,-0.69,-0.88,-0.84,5.29,5.29,5.30
33.89,5.98,0.70,5.98,0.70,-0.70,-0.90,-0.85,5.28,5.28,5.28
34.23,5.99,0.72,5.99,0.72,-0.72,-0.91,-0.87,5.27,5.27,5.27
34.57,6.00,0.74,6.00,0.74,-0.74,-0.93,-0.89,5.27,5.27,5.27
34.92,6.01,0.77,6.01,0.76,-0.76,-0.94,-0.90,5.26,5.25,5.24
35.27,6.01,0.77,6.02,0.78,-0.78,-0.96,-0.92,5.23,5.23,5.24
35.62,6.02,0.81,6.02,0.81,-0.81,-0.98,-0.94,5.22,5.21,5.21
35.97,6.02,0.83,6.02,0.83,-0.84,-0.99,-0.96,5.19,5.19,5.19
36.33,6.03,0.86,6.03,0.86,-0.87,-1.01,-0.98,5.17,5.16,5.17
36.70,6.03,0.89,6.04,0.89,-0.90,-1.03,-1.00,5.14,5.14,5.14
37.06,6.04,0.93,6.04,0.93,-0.93,-1.05,-1.02,5.11,5.11,5.11
37.43,6.05,0.97,6.05,0.97,-0.97,-1.06,-1.04,5.09,5.08,5.08
37.81,6.06,1.01,6.06,1.01,-1.00,-1.08,-1.07,5.06,5.06,5.06
38.19,6.06,1.04,6.07,1.04,-1.04,-1.10,-1.09,5.02,5.03,5.02
38.57,6.07,1.07,6.07,1.07,-1.08,-1.12,-1.11,5.00,5.00,5.00
38.95,6.08,1.11,6.08,1.11,-1.11,-1.14,-1.14,4.97,4.97,4.97
39.34,6.08,1.14,6.09,1.15,-1.14,-1.16,-1.17,4.94,4.95,4.94
39.74,6.09,1.18,6.09,1.18,-1.17,-1.18,-1.19,4.92,4.92,4.91
40.14,6.10,1.21,6.10,1.20,-1.21,-1.20,-1.22,4.90,4.89,4.89
40.54,6.09,1.22,6.10,1.23,-1.23,-1.22,-1.25,4.86,4.87,4.87
40.94,6.11,1.26,6.11,1.26,-1.26,-1.24,-1.28,4.85,4.85,4.85
41.35,6.11,1.29,6.11,1.29,-1.29,-1.26,-1.31,4.82,4.83,4.82
41.76,6.12,1.33,6.12,1.32,-1.32,-1.28,-1.34,4.81,4.81,4.80
42.18,6.12,1.33,6.12,1.34,-1.34,-1.31,-1.38,4.78,4.78,4.79
42.60,6.12,1.36,6.13,1.36,-1.36,-1.33,-1.41,4.76,4.76,4.76
43.03,6.13,1.39,6.13,1.39,-1.39,-1.35,-1.44,4.75,4.74,4.74
43.46,6.13,1.41,6.14,1.42,-1.41,-1.37,-1.48,4.72,4.72,4.72
43.90,6.14,1.44,6.14,1.44,-1.43,-1.40,-1.52,4.71,4.71,4.70
44.33,6.14,1.47,6.14,1.46,-1.46,-1.42,-1.56,4.68,4.68,4.68
44.78,6.14,1.48,6.14,1.48,-1.49,-1.44,-1.60,4.66,4.66,4.66
45.23,6.14,1.49,6.15,1.51,-1.51,-1.47,-1.64,4.63,4.63,4.65
45.68,6.15,1.54,6.15,1.54,-1.54,-1.49,-1.68,4.61,4.61,4.61
46.13,6.16,1.59,6.16,1.58,-1.57,-1.51,-1.72,4.59,4.59,4.57
46.60,6.16,1.61,6.16,1.61,-1.60,-1.54,-1.77,4.56,4.56,4.56
47.06,6.16,1.64,6.16,1.64,-1.64,-1.56,-1.81,4.52,4.52,4.53
47.53,6.16,1.67,6.17,1.67,-1.68,-1.59,-1.86,4.48,4.49,4.50
48.01,6.17,1.73,6.17,1.72,-1.72,-1.62,-1.90,4.46,4.45,4.45
48.49,6.17,1.76,6.17,1.76,-1.76,-1.64,-1.95,4.41,4.41,4.42
48.97,6.17,1.80,6.18,1.80,-1.80,-1.67,-2.00,4.37,4.38,4.38
49.46,6.18,1.84,6.18,1.84,-1.84,-1.69,-2.05,4.34,4.34,4.35
49.96,6.18,1.90,6.18,1.89,-1.88,-1.72,-2.10,4.30,4.30,4.28
50.46,6.17,1.92,6.18,1.93,-1.93,-1.75,-2.15,4.25,4.25,4.25
50.96,6.18,1.97,6.18,1.97,-1.97,-1.78,-2.20,4.22,4.21,4.21
51.47,6.18,2.01,6.18,2.01,-2.01,-1.80,-2.25,4.17,4.18,4.18
51.99,6.19,2.06,6.19,2.05,-2.05,-1.83,-2.31,4.14,4.14,4.13
52.51,6.19,2.09,6.19,2.09,-2.09,-1.86,-2.36,4.10,4.10,4.10
53.03,6.19,2.12,6.20,2.13,-2.13,-1.89,-2.41,4.06,4.07,4.08
53.56,6.19,2.16,6.19,2.16,-2.17,-1.92,-2.46,4.02,4.03,4.03
54.10,6.20,2.22,6.20,2.21,-2.21,-1.95,-2.51,3.99,3.99,3.99
54.64,6.19,2.24,6.20,2.25,-2.25,-1.98,-2.57,3.94,3.95,3.95
55.18,6.20,2.30,6.20,2.29,-2.29,-2.01,-2.61,3.92,3.91,3.91
55.74,6.20,2.33,6.20,2.33,-2.33,-2.04,-2.66,3.88,3.88,3.87
56.29,6.20,2.36,6.20,2.36,-2.36,-2.07,-2.71,3.84,3.84,3.84
56.86,6.20,2.39,6.20,2.40,-2.39,-2.10,-2.76,3.81,3.81,3.81
57.42,6.20,2.44,6.20,2.43,-2.43,-2.14,-2.80,3.78,3.78,3.77
58.00,6.20,2.47,6.21,2.46,-2.46,-2.17,-2.85,3.75,3.75,3.74
58.58,6.21,2.50,6.21,2.49,-2.49,-2.20,-2.89,3.72,3.72,3.72
59.16,6.20,2.52,6.21,2.52,-2.53,-2.23,-2.92,3.68,3.68,3.69
59.76,6.20,2.55,6.20,2.55,-2.57,-2.27,-2.96,3.64,3.64,3.66
60.35,6.20,2.60,6.20,2.59,-2.61,-2.30,-3.00,3.59,3.59,3.60
60.96,6.20,2.64,6.20,2.65,-2.65,-2.33,-3.03,3.55,3.55,3.56
61.57,6.20,2.70,6.20,2.70,-2.70,-2.37,-3.06,3.50,3.50,3.50
62.18,6.20,2.76,6.20,2.76,-2.75,-2.40,-3.08,3.46,3.46,3.45
62.80,6.20,2.80,6.20,2.81,-2.79,-2.44,-3.10,3.41,3.41,3.40
63.43,6.20,2.86,6.20,2.85,-2.84,-2.47,-3.13,3.36,3.36,3.35
64.07,6.19,2.88,6.19,2.88,-2.88,-2.51,-3.14,3.31,3.31,3.31
64.71,6.19,2.92,6.19,2.92,-2.92,-2.54,-3.16,3.27,3.27,3.27
65.35,6.18,2.95,6.19,2.95,-2.96,-2.58,-3.17,3.22,3.23,3.24
66.01,6.19,2.99,6.19,2.99,-2.99,-2.61,-3.18,3.20,3.20,3.20
66.67,6.19,3.02,6.19,3.03,-3.03,-2.65,-3.19,3.16,3.16,3.17
67.33,6.18,3.06,6.19,3.07,-3.06,-2.69,-3.20,3.12,3.13,3.12
68.01,6.18,3.10,6.18,3.10,-3.10,-2.72,-3.21,3.08,3.08,3.08
68.69,6.18,3.14,6.18,3.14,-3.14,-2.76,-3.21,3.05,3.04,3.04
69.37,6.17,3.17,6.18,3.17,-3.17,-2.80,-3.21,3.00,3.00,3.01
70.07,6.17,3.20,6.17,3.21,-3.21,-2.84,-3.22,2.96,2.96,2.97
70.77,6.17,3.24,6.17,3.24,-3.25,-2.87,-3.22,2.92,2.92,2.93
71.48,6.17,3.29,6.17,3.28,-3.29,-2.91,-3.22,2.89,2.88,2.88
72.19,6.16,3.32,6.17,3.32,-3.32,-2.95,-3.22,2.84,2.84,2.84
72.91,6.16,3.36,6.16,3.36,-3.36,-2.99,-3.22,2.80,2.80,2.80
73.64,6.15,3.40,6.15,3.40,-3.40,-3.03,-3.22,2.76,2.76,2.75
74.38,6.15,3.44,6.15,3.43,-3.43,-3.07,-3.22,2.72,2.72,2.72
75.12,6.14,3.47,6.15,3.46,-3.46,-3.11,-3.22,2.68,2.68,2.68
75.87,6.14,3.48,6.14,3.49,-3.49,-3.15,-3.23,2.65,2.65,2.66
76.63,6.14,3.53,6.14,3.52,-3.52,-3.19,-3.23,2.62,2.62,2.62
77.40,6.13,3.55,6.14,3.55,-3.55,-3.23,-3.24,2.59,2.59,2.59
78.17,6.13,3.59,6.13,3.58,-3.57,-3.27,-3.25,2.56,2.56,2.54
78.95,6.11,3.58,6.12,3.60,-3.60,-3.31,-3.25,2.52,2.52,2.53
79.74,6.11,3.62,6.11,3.62,-3.62,-3.35,-3.27,2.49,2.49,2.50
80.54,6.10,3.64,6.10,3.64,-3.64,-3.39,-3.28,2.46,2.46,2.46
81.35,6.10,3.67,6.10,3.67,-3.67,-3.43,-3.29,2.43,2.43,2.44
82.16,6.09,3.68,6.10,3.69,-3.69,-3.47,-3.31,2.40,2.40,2.41
82.98,6.09,3.72,6.09,3.72,-3.72,-3.51,-3.33,2.37,2.37,2.37
83.81,6.09,3.75,6.09,3.75,-3.74,-3.55,-3.35,2.35,2.34,2.34
84.65,6.08,3.78,6.08,3.78,-3.77,-3.59,-3.38,2.31,2.32,2.30
85.50,6.07,3.80,6.08,3.80,-3.79,-3.64,-3.40,2.28,2.28,2.28
86.35,6.07,3.82,6.07,3.82,-3.82,-3.68,-3.43,2.26,2.25,2.26
87.22,6.05,3.83,6.06,3.83,-3.84,-3.72,-3.47,2.22,2.22,2.22
88.09,6.05,3.86,6.05,3.85,-3.86,-3.76,-3.50,2.19,2.19,2.19
88.97,6.03,3.87,6.04,3.88,-3.88,-3.80,-3.54,2.15,2.16,2.16
89.86,6.03,3.91,6.03,3.90,-3.90,-3.84,-3.58,2.13,2.13,2.13
90.76,6.02,3.93,6.02,3.93,-3.93,-3.89,-3.62,2.10,2.09,2.09
91.66,6.01,3.95,6.01,3.95,-3.95,-3.93,-3.67,2.06,2.06,2.06
92.58,6.00,3.98,6.01,3.98,-3.98,-3.97,-3.71,2.02,2.03,2.03
93.51,6.00,4.01,6.00,4.01,-4.01,-4.01,-3.76,1.99,1.99,1.99
94.44,5.99,4.04,5.99,4.04,-4.04,-4.05,-3.82,1.95,1.95,1.96
95.39,5.98,4.07,5.98,4.07,-4.07,-4.09,-3.87,1.91,1.91,1.91
96.34,5.97,4.11,5.97,4.10,-4.11,-4.14,-3.93,1.87,1.86,1.86
97.30,5.95,4.13,5.96,4.14,-4.14,-4.18,-3.99,1.81,1.82,1.83
98.28,5.95,4.18,5.95,4.18,-4.17,-4.22,-4.05,1.78,1.77,1.77
99.26,5.93,4.21,5.94,4.21,-4.21,-4.26,-4.12,1.73,1.73,1.72
100.25,5.93,4.25,5.93,4.24,-4.24,-4.30,-4.18,1.70,1.69,1.69
101.25,5.91,4.26,5.91,4.27,-4.27,-4.34,-4.25,1.65,1.65,1.65
102.27,5.90,4.29,5.90,4.29,-4.29,-4.38,-4.32,1.61,1.61,1.61
103.29,5.89,4.32,5.89,4.32,-4.32,-4.42,-4.39,1.57,1.57,1.57
104.32,5.88,4.34,5.88,4.34,-4.34,-4.46,-4.46,1.54,1.54,1.55
105.37,5.87,4.37,5.87,4.36,-4.36,-4.50,-4.53,1.51,1.51,1.51
106.42,5.86,4.38,5.86,4.39,-4.38,-4.54,-4.60,1.48,1.48,1.48
107.48,5.84,4.41,5.85,4.41,-4.40,-4.58,-4.67,1.44,1.44,1.43
108.56,5.83,4.43,5.83,4.42,-4.43,-4.62,-4.74,1.41,1.40,1.40
109.64,5.81,4.44,5.82,4.44,-4.45,-4.66,-4.81,1.37,1.37,1.38
110.74,5.80,4.46,5.80,4.46,-4.47,-4.70,-4.87,1.33,1.34,1.34
111.85,5.79,4.49,5.79,4.49,-4.49,-4.74,-4.94,1.30,1.30,1.30
112.97,5.78,4.52,5.78,4.52,-4.52,-4.77,-5.00,1.27,1.27,1.26
114.10,5.77,4.54,5.77,4.54,-4.54,-4.81,-5.06,1.23,1.22,1.23
115.24,5.74,4.56,5.75,4.57,-4.57,-4.85,-5.12,1.17,1.18,1.18
116.39,5.73,4.61,5.73,4.60,-4.60,-4.89,-5.17,1.13,1.13,1.13
117.55,5.72,4.63,5.72,4.64,-4.63,-4.92,-5.22,1.09,1.09,1.09
118.73,5.70,4.67,5.71,4.67,-4.66,-4.96,-5.27,1.04,1.04,1.04
119.92,5.69,4.70,5.69,4.70,-4.69,-4.99,-5.31,1.00,1.00,0.99
121.12,5.67,4.72,5.67,4.73,-4.72,-5.03,-5.34,0.95,0.95,0.96
122.33,5.66,4.76,5.66,4.76,-4.76,-5.06,-5.37,0.91,0.91,0.90
123.55,5.64,4.78,5.64,4.78,-4.79,-5.09,-5.40,0.86,0.86,0.86
124.79,5.63,4.82,5.63,4.81,-4.82,-5.12,-5.41,0.81,0.81,0.82
126.03,5.60,4.84,5.61,4.85,-4.85,-5.16,-5.43,0.75,0.76,0.77
127.29,5.59,4.89,5.59,4.88,-4.89,-5.19,-5.44,0.71,0.71,0.70
128.57,5.58,4.93,5.58,4.92,-4.92,-5.22,-5.44,0.66,0.66,0.65
129.85,5.55,4.95,5.56,4.96,-4.95,-5.25,-5.44,0.60,0.61,0.60
131.15,5.54,4.99,5.54,4.98,-4.98,-5.28,-5.43,0.56,0.56,0.56
132.46,5.51,5.01,5.52,5.01,-5.01,-5.31,-5.42,0.51,0.51,0.51
133.79,5.50,5.03,5.50,5.03,-5.03,-5.33,-5.40,0.47,0.47,0.47
135.12,5.48,5.06,5.48,5.05,-5.05,-5.36,-5.38,0.43,0.43,0.42
136.48,5.46,5.07,5.47,5.07,-5.07,-5.39,-5.36,0.39,0.39,0.40
137.84,5.45,5.09,5.45,5.09,-5.09,-5.41,-5.33,0.37,0.36,0.36
139.22,5.42,5.11,5.43,5.10,-5.10,-5.44,-5.30,0.32,0.32,0.32
140.61,5.40,5.11,5.40,5.11,-5.11,-5.46,-5.27,0.29,0.29,0.29
142.02,5.38,5.12,5.38,5.12,-5.12,-5.48,-5.24,0.26,0.26,0.26
143.44,5.36,5.13,5.36,5.13,-5.13,-5.50,-5.20,0.23,0.23,0.23
144.87,5.34,5.13,5.34,5.14,-5.14,-5.53,-5.17,0.21,0.21,0.21
146.32,5.32,5.14,5.32,5.14,-5.14,-5.54,-5.13,0.18,0.18,0.18
147.78,5.30,5.15,5.30,5.15,-5.15,-5.56,-5.10,0.15,0.15,0.15
149.26,5.27,5.15,5.27,5.16,-5.15,-5.58,-5.06,0.12,0.12,0.12
150.75,5.24,5.16,5.25,5.16,-5.16,-5.60,-5.03,0.08,0.09,0.08
152.26,5.23,5.17,5.23,5.16,-5.16,-5.61,-5.00,0.07,0.06,0.07
153.78,5.20,5.17,5.20,5.17,-5.17,-5.63,-4.96,0.03,0.03,0.03
155.32,5.18,5.18,5.18,5.18,-5.18,-5.64,-4.93,0.01,0.00,0.01
156.88,5.15,5.18,5.16,5.18,-5.19,-5.66,-4.91,-0.03,-0.03,-0.03
158.44,5.13,5.19,5.13,5.19,-5.20,-5.67,-4.88,-0.06,-0.06,-0.06
160.03,5.11,5.21,5.11,5.20,-5.21,-5.68,-4.86,-0.09,-0.10,-0.09
161.63,5.08,5.21,5.09,5.22,-5.22,-5.69,-4.84,-0.13,-0.13,-0.13
163.24,5.06,5.24,5.06,5.23,-5.23,-5.70,-4.82,-0.17,-0.17,-0.18
164.88,5.03,5.24,5.03,5.24,-5.24,-5.71,-4.81,-0.21,-0.21,-0.21
166.53,5.01,5.26,5.01,5.25,-5.25,-5.71,-4.80,-0.24,-0.24,-0.25
168.19,4.98,5.26,4.98,5.26,-5.26,-5.72,-4.79,-0.28,-0.28,-0.27
169.87,4.96,5.27,4.96,5.28,-5.28,-5.72,-4.79,-0.31,-0.31,-0.31
171.57,4.93,5.29,4.93,5.29,-5.29,-5.73,-4.79,-0.35,-0.35,-0.36
173.29,4.91,5.31,4.91,5.30,-5.30,-5.73,-4.79,-0.38,-0.39,-0.39
175.02,4.87,5.30,4.88,5.31,-5.31,-5.73,-4.80,-0.43,-0.43,-0.43
176.77,4.85,5.32,4.85,5.32,-5.32,-5.73,-4.81,-0.46,-0.46,-0.46
178.54,4.82,5.32,4.82,5.33,-5.32,-5.73,-4.82,-0.50,-0.50,-0.50
180.32,4.80,5.34,4.80,5.33,-5.33,-5.73,-4.84,-0.53,-0.54,-0.54
182.13,4.76,5.34,4.77,5.34,-5.34,-5.72,-4.86,-0.58,-0.57,-0.57
183.95,4.73,5.34,4.74,5.35,-5.35,-5.72,-4.89,-0.61,-0.61,-0.60
185.79,4.71,5.36,4.71,5.35,-5.35,-5.71,-4.92,-0.64,-0.65,-0.65
187.65,4.68,5.36,4.68,5.36,-5.36,-5.71,-4.95,-0.68,-0.68,-0.68
189.52,4.65,5.37,4.65,5.37,-5.37,-5.70,-4.99,-0.72,-0.72,-0.72
191.42,4.62,5.38,4.62,5.38,-5.38,-5.69,-5.03,-0.76,-0.76,-0.76
193.33,4.59,5.39,4.59,5.39,-5.39,-5.68,-5.07,-0.79,-0.79,-0.79
195.27,4.56,5.39,4.56,5.39,-5.39,-5.68,-5.11,-0.83,-0.83,-0.83
197.22,4.53,5.40,4.53,5.40,-5.40,-5.66,-5.16,-0.86,-0.86,-0.87
199.19,4.50,5.40,4.50,5.40,-5.40,-5.65,-5.21,-0.90,-0.89,-0.90
201.18,4.47,5.41,4.47,5.40,-5.40,-5.64,-5.26,-0.93,-0.93,-0.93
203.19,4.44,5.40,4.44,5.40,-5.40,-5.63,-5.32,-0.95,-0.96,-0.96
205.23,4.40,5.39,4.41,5.39,-5.39,-5.61,-5.38,-0.99,-0.99,-0.98
207.28,4.38,5.39,4.38,5.39,-5.39,-5.60,-5.43,-1.01,-1.01,-1.01
209.35,4.34,5.38,4.34,5.38,-5.39,-5.58,-5.49,-1.04,-1.04,-1.04
211.44,4.31,5.38,4.31,5.38,-5.38,-5.56,-5.55,-1.07,-1.07,-1.07
213.56,4.28,5.38,4.28,5.38,-5.38,-5.54,-5.61,-1.10,-1.10,-1.10
215.69,4.25,5.37,4.25,5.37,-5.37,-5.53,-5.67,-1.12,-1.12,-1.12
217.85,4.22,5.37,4.22,5.37,-5.37,-5.51,-5.73,-1.15,-1.14,-1.14
220.03,4.19,5.37,4.19,5.37,-5.36,-5.49,-5.78,-1.17,-1.17,-1.18
222.23,4.16,5.36,4.16,5.36,-5.35,-5.47,-5.84,-1.19,-1.19,-1.20
224.45,4.12,5.34,4.13,5.34,-5.34,-5.45,-5.89,-1.22,-1.22,-1.22
226.70,4.09,5.33,4.09,5.33,-5.33,-5.42,-5.94,-1.24,-1.24,-1.24
228.96,4.06,5.31,4.06,5.32,-5.32,-5.40,-5.98,-1.26,-1.26,-1.25
231.25,4.04,5.31,4.04,5.31,-5.31,-5.38,-6.02,-1.27,-1.27,-1.27
233.57,4.00,5.29,4.01,5.30,-5.30,-5.35,-6.06,-1.29,-1.29,-1.29
235.90,3.97,5.29,3.97,5.29,-5.28,-5.33,-6.08,-1.31,-1.31,-1.32
238.26,3.94,5.28,3.94,5.27,-5.27,-5.31,-6.11,-1.33,-1.33,-1.34
240.64,3.91,5.25,3.92,5.26,-5.26,-5.28,-6.12,-1.35,-1.34,-1.34
243.05,3.89,5.25,3.89,5.25,-5.25,-5.26,-6.14,-1.35,-1.36,-1.35
245.48,3.86,5.24,3.86,5.23,-5.23,-5.23,-6.14,-1.37,-1.37,-1.37
247.93,3.83,5.22,3.84,5.22,-5.22,-5.20,-6.14,-1.38,-1.38,-1.39
250.41,3.81,5.20,3.81,5.20,-5.20,-5.18,-6.12,-1.39,-1.39,-1.39
252.92,3.79,5.19,3.79,5.19,-5.19,-5.15,-6.10,-1.40,-1.40,-1.39
255.45,3.76,5.17,3.77,5.17,-5.17,-5.12,-6.08,-1.41,-1.41,-1.41
258.00,3.74,5.16,3.74,5.16,-5.16,-5.10,-6.04,-1.42,-1.42,-1.42
260.58,3.71,5.14,3.72,5.14,-5.15,-5.07,-6.00,-1.43,-1.43,-1.42
263.19,3.69,5.13,3.69,5.13,-5.13,-5.04,-5.95,-1.44,-1.44,-1.44
265.82,3.67,5.12,3.67,5.12,-5.12,-5.02,-5.90,-1.45,-1.45,-1.45
268.48,3.65,5.11,3.65,5.11,-5.11,-4.99,-5.84,-1.45,-1.45,-1.45
271.16,3.63,5.10,3.63,5.09,-5.09,-4.96,-5.77,-1.46,-1.46,-1.47
273.87,3.59,5.07,3.60,5.08,-5.08,-4.93,-5.70,-1.48,-1.48,-1.47
276.61,3.57,5.06,3.57,5.06,-5.06,-4.91,-5.63,-1.49,-1.49,-1.49
279.38,3.54,5.05,3.54,5.04,-5.04,-4.88,-5.55,-1.50,-1.50,-1.50
282.17,3.52,5.03,3.52,5.02,-5.02,-4.85,-5.47,-1.50,-1.50,-1.51
284.99,3.49,5.00,3.49,5.00,-5.00,-4.82,-5.38,-1.51,-1.51,-1.50
287.84,3.46,4.97,3.47,4.98,-4.98,-4.80,-5.29,-1.52,-1.51,-1.51
290.72,3.44,4.97,3.44,4.96,-4.96,-4.77,-5.20,-1.52,-1.52,-1.53
293.63,3.41,4.94,3.41,4.94,-4.93,-4.74,-5.11,-1.52,-1.52,-1.52
296.57,3.37,4.90,3.38,4.91,-4.90,-4.71,-5.02,-1.53,-1.53,-1.53
299.53,3.34,4.88,3.34,4.87,-4.87,-4.69,-4.93,-1.53,-1.53,-1.53
302.53,3.30,4.84,3.30,4.84,-4.84,-4.66,-4.84,-1.54,-1.54,-1.54
305.55,3.27,4.81,3.27,4.81,-4.81,-4.63,-4.75,-1.54,-1.54,-1.54
308.61,3.22,4.77,3.23,4.77,-4.77,-4.60,-4.66,-1.55,-1.54,-1.54
311.69,3.19,4.74,3.19,4.74,-4.73,-4.57,-4.57,-1.54,-1.54,-1.55
314.81,3.15,4.70,3.15,4.70,-4.69,-4.55,-4.48,-1.54,-1.54,-1.55
317.96,3.10,4.65,3.11,4.66,-4.65,-4.52,-4.40,-1.55,-1.55,-1.55
321.14,3.06,4.61,3.06,4.61,-4.61,-4.49,-4.31,-1.55,-1.55,-1.54
324.35,3.01,4.57,3.01,4.56,-4.57,-4.46,-4.23,-1.55,-1.55,-1.56
327.59,2.97,4.51,2.97,4.52,-4.52,-4.43,-4.15,-1.55,-1.55,-1.54
330.87,2.92,4.47,2.92,4.47,-4.47,-4.39,-4.08,-1.55,-1.55,-1.54
334.18,2.88,4.44,2.88,4.43,-4.43,-4.36,-4.00,-1.54,-1.54,-1.55
337.52,2.83,4.38,2.84,4.39,-4.38,-4.33,-3.93,-1.55,-1.54,-1.55
340.90,2.79,4.34,2.79,4.33,-4.33,-4.29,-3.86,-1.54,-1.54,-1.55
344.30,2.73,4.27,2.74,4.28,-4.28,-4.26,-3.79,-1.55,-1.54,-1.54
347.75,2.68,4.22,2.69,4.23,-4.23,-4.22,-3.73,-1.55,-1.54,-1.53
351.23,2.64,4.19,2.64,4.18,-4.18,-4.18,-3.67,-1.54,-1.54,-1.55
354.74,2.59,4.12,2.59,4.13,-4.13,-4.14,-3.61,-1.53,-1.54,-1.53
358.28,2.54,4.08,2.54,4.08,-4.08,-4.10,-3.55,-1.53,-1.53,-1.54
361.87,2.49,4.02,2.49,4.02,-4.02,-4.06,-3.50,-1.53,-1.53,-1.53
365.49,2.44,3.98,2.44,3.97,-3.97,-4.01,-3.45,-1.53,-1.53,-1.53
369.14,2.39,3.92,2.39,3.92,-3.92,-3.97,-3.40,-1.53,-1.53,-1.52
372.83,2.34,3.87,2.34,3.87,-3.87,-3.92,-3.36,-1.53,-1.53,-1.53
376.56,2.29,3.82,2.29,3.82,-3.82,-3.87,-3.32,-1.53,-1.53,-1.53
380.33,2.24,3.77,2.24,3.77,-3.77,-3.82,-3.28,-1.52,-1.52,-1.53
384.13,2.19,3.72,2.19,3.72,-3.71,-3.77,-3.24,-1.52,-1.52,-1.53
387.97,2.13,3.65,2.14,3.66,-3.66,-3.72,-3.20,-1.53,-1.53,-1.52
391.85,2.08,3.61,2.08,3.61,-3.61,-3.66,-3.17,-1.53,-1.53,-1.52
395.77,2.03,3.56,2.03,3.55,-3.56,-3.61,-3.14,-1.52,-1.53,-1.52
399.73,1.98,3.51,1.98,3.50,-3.50,-3.55,-3.11,-1.52,-1.52,-1.53
403.72,1.93,3.45,1.93,3.45,-3.45,-3.50,-3.08,-1.52,-1.52,-1.52
407.76,1.88,3.40,1.88,3.40,-3.40,-3.44,-3.06,-1.52,-1.51,-1.52
411.84,1.83,3.35,1.83,3.35,-3.35,-3.38,-3.03,-1.51,-1.51,-1.52
415.96,1.78,3.29,1.78,3.30,-3.30,-3.33,-3.01,-1.51,-1.52,-1.51
420.12,1.72,3.24,1.73,3.24,-3.24,-3.27,-2.99,-1.52,-1.52,-1.52
424.32,1.67,3.19,1.67,3.19,-3.19,-3.21,-2.97,-1.52,-1.52,-1.52
428.56,1.62,3.14,1.62,3.14,-3.15,-3.16,-2.95,-1.52,-1.52,-1.51
432.85,1.58,3.10,1.58,3.09,-3.10,-3.10,-2.93,-1.51,-1.52,-1.51
437.18,1.52,3.05,1.53,3.05,-3.05,-3.04,-2.91,-1.52,-1.52,-1.52
441.55,1.48,3.01,1.48,3.00,-3.00,-2.98,-2.89,-1.51,-1.52,-1.52
445.96,1.42,2.95,1.43,2.95,-2.95,-2.93,-2.87,-1.52,-1.52,-1.53
450.42,1.37,2.90,1.37,2.90,-2.90,-2.87,-2.86,-1.52,-1.52,-1.53
454.93,1.32,2.85,1.32,2.85,-2.85,-2.82,-2.84,-1.52,-1.53,-1.53
459.48,1.26,2.79,1.27,2.79,-2.80,-2.76,-2.81,-1.53,-1.53,-1.53
464.07,1.22,2.74,1.22,2.74,-2.75,-2.71,-2.79,-1.52,-1.53,-1.52
468.71,1.17,2.69,1.17,2.69,-2.69,-2.65,-2.77,-1.52,-1.52,-1.52
473.40,1.12,2.64,1.13,2.64,-2.64,-2.60,-2.75,-1.52,-1.52,-1.52
478.13,1.07,2.59,1.08,2.60,-2.59,-2.54,-2.72,-1.52,-1.52,-1.52
482.91,1.03,2.55,1.03,2.54,-2.54,-2.49,-2.69,-1.51,-1.52,-1.52
487.74,0.97,2.48,0.98,2.49,-2.49,-2.44,-2.66,-1.52,-1.52,-1.51
492.62,0.92,2.43,0.93,2.44,-2.44,-2.38,-2.63,-1.52,-1.51,-1.51
497.55,0.88,2.39,0.88,2.39,-2.39,-2.33,-2.60,-1.51,-1.51,-1.51
502.52,0.83,2.35,0.83,2.34,-2.34,-2.28,-2.56,-1.50,-1.51,-1.51
507.55,0.77,2.28,0.78,2.29,-2.28,-2.23,-2.53,-1.51,-1.50,-1.50
512.62,0.73,2.24,0.73,2.23,-2.23,-2.18,-2.49,-1.50,-1.50,-1.50
