frequency,raw,error,smoothed,error_smoothed,equalization,parametric_eq,equalized_raw,equalized_smoothed,target
20,5.16,5.81,5.14,5.80,-5.80,-2.04,-0.64,-0.66,-0.65
21,5.04,5.69,5.08,5.74,-5.74,-2.35,-0.70,-0.66,-0.65
22,4.99,5.65,5.01,5.68,-5.68,-2.69,-0.69,-0.66,-0.66
23,4.97,5.63,4.94,5.61,-5.61,-3.06,-0.64,-0.67,-0.66
24,4.85,5.52,4.86,5.53,-5.53,-3.44,-0.68,-0.67,-0.67
25,4.71,5.38,4.78,5.46,-5.46,-3.84,-0.75,-0.68,-0.67
26,4.68,5.36,4.69,5.38,-5.38,-4.24,-0.70,-0.68,-0.68
27,4.65,5.34,4.60,5.29,-5.29,-4.62,-0.64,-0.69,-0.69
28,4.57,5.26,4.51,5.20,-5.20,-4.95,-0.63,-0.70,-0.69
29,4.47,5.17,4.40,5.11,-5.11,-5.23,-0.64,-0.70,-0.70
30,4.34,5.05,4.30,5.01,-5.01,-5.43,-0.67,-0.71,-0.71
31,4.19,4.91,4.18,4.90,-4.90,-5.55,-0.71,-0.72,-0.72
32,4.07,4.80,4.06,4.78,-4.78,-5.59,-0.71,-0.72,-0.73
33,3.94,4.67,3.93,4.66,-4.66,-5.55,-0.72,-0.74,-0.73
34,3.79,4.53,3.80,4.54,-4.54,-5.45,-0.75,-0.75,-0.74
35,3.65,4.41,3.66,4.42,-4.42,-5.32,-0.77,-0.76,-0.76
36,3.51,4.28,3.53,4.30,-4.30,-5.16,-0.79,-0.78,-0.77
37,3.39,4.17,3.40,4.19,-4.19,-5.00,-0.80,-0.79,-0.78
38,3.27,4.06,3.27,4.08,-4.08,-4.84,-0.81,-0.81,-0.79
39,3.16,3.96,3.16,3.99,-3.99,-4.68,-0.83,-0.82,-0.80
40,3.06,3.88,3.07,3.90,-3.90,-4.54,-0.84,-0.83,-0.82
41,2.96,3.79,2.98,3.83,-3.83,-4.42,-0.87,-0.85,-0.83
42,2.87,3.72,2.91,3.78,-3.78,-4.32,-0.91,-0.86,-0.85
43,2.82,3.68,2.85,3.73,-3.73,-4.23,-0.91,-0.88,-0.86
44,2.79,3.67,2.81,3.70,-3.70,-4.17,-0.91,-0.89,-0.88
45,2.77,3.67,2.77,3.68,-3.68,-4.12,-0.91,-0.91,-0.90
46,2.74,3.65,2.75,3.67,-3.67,-4.09,-0.93,-0.93,-0.91
47,2.73,3.66,2.74,3.68,-3.68,-4.07,-0.95,-0.94,-0.93
48,2.74,3.69,2.73,3.69,-3.69,-4.07,-0.95,-0.96,-0.95
49,2.74,3.71,2.73,3.71,-3.71,-4.08,-0.97,-0.98,-0.97
50,2.74,3.73,2.73,3.73,-3.73,-4.10,-0.99,-0.99,-0.99
51,2.75,3.77,2.74,3.75,-3.75,-4.13,-1.00,-1.01,-1.02
52,2.76,3.80,2.75,3.78,-3.78,-4.16,-1.02,-1.03,-1.04
53,2.76,3.82,2.75,3.81,-3.81,-4.19,-1.05,-1.06,-1.06
54,2.77,3.85,2.76,3.84,-3.84,-4.23,-1.07,-1.09,-1.08
55,2.77,3.88,2.76,3.87,-3.87,-4.26,-1.10,-1.11,-1.11
56,2.76,3.89,2.76,3.90,-3.90,-4.29,-1.14,-1.14,-1.13
57,2.76,3.92,2.76,3.92,-3.92,-4.32,-1.16,-1.16,-1.16
58,2.75,3.94,2.76,3.95,-3.95,-4.34,-1.20,-1.19,-1.19
59,2.74,3.95,2.75,3.97,-3.97,-4.35,-1.23,-1.22,-1.21
60,2.73,3.97,2.74,3.98,-3.98,-4.34,-1.25,-1.24,-1.24
61,2.71,3.98,2.72,3.99,-3.99,-4.33,-1.28,-1.27,-1.27
62,2.70,4.00,2.70,4.00,-4.00,-4.31,-1.30,-1.30,-1.30
63,2.68,4.01,2.67,4.00,-4.00,-4.28,-1.32,-1.33,-1.33
64,2.66,4.02,2.63,4.00,-4.00,-4.23,-1.34,-1.36,-1.36
65,2.62,4.01,2.59,3.99,-3.99,-4.18,-1.37,-1.39,-1.39
66,2.57,3.99,2.54,3.97,-3.97,-4.12,-1.40,-1.43,-1.42
67,2.51,3.96,2.49,3.95,-3.95,-4.05,-1.44,-1.46,-1.45
68,2.44,3.93,2.44,3.93,-3.93,-3.97,-1.49,-1.49,-1.49
69,2.36,3.88,2.38,3.90,-3.90,-3.89,-1.54,-1.52,-1.52
70,2.29,3.84,2.31,3.87,-3.87,-3.81,-1.58,-1.56,-1.55
71,2.22,3.80,2.25,3.84,-3.84,-3.72,-1.62,-1.59,-1.58
72,2.16,3.78,2.17,3.80,-3.80,-3.63,-1.64,-1.63,-1.62
73,2.10,3.75,2.10,3.76,-3.76,-3.54,-1.66,-1.66,-1.65
74,2.04,3.73,2.03,3.72,-3.72,-3.45,-1.68,-1.70,-1.69
75,1.97,3.69,1.96,3.69,-3.69,-3.36,-1.72,-1.73,-1.72
76,1.90,3.66,1.88,3.65,-3.65,-3.27,-1.75,-1.76,-1.76
77,1.81,3.60,1.81,3.61,-3.61,-3.18,-1.80,-1.80,-1.79
78,1.73,3.56,1.74,3.57,-3.57,-3.10,-1.84,-1.83,-1.83
79,1.65,3.52,1.67,3.53,-3.53,-3.02,-1.88,-1.87,-1.87
80,1.58,3.48,1.59,3.49,-3.49,-2.94,-1.91,-1.90,-1.90
81,1.51,3.45,1.51,3.45,-3.45,-2.87,-1.94,-1.94,-1.94
82,1.44,3.41,1.43,3.41,-3.41,-2.79,-1.97,-1.98,-1.97
83,1.36,3.37,1.35,3.36,-3.36,-2.73,-2.00,-2.01,-2.01
84,1.28,3.33,1.27,3.32,-3.32,-2.66,-2.04,-2.05,-2.05
85,1.19,3.27,1.19,3.28,-3.28,-2.60,-2.09,-2.09,-2.08
86,1.10,3.22,1.11,3.23,-3.23,-2.54,-2.13,-2.12,-2.12
87,1.02,3.18,1.03,3.19,-3.19,-2.48,-2.17,-2.16,-2.16
88,0.94,3.13,0.95,3.14,-3.14,-2.43,-2.20,-2.19,-2.19
89,0.86,3.09,0.86,3.09,-3.09,-2.38,-2.23,-2.23,-2.23
90,0.78,3.04,0.78,3.04,-3.04,-2.34,-2.26,-2.27,-2.26
91,0.69,2.99,0.69,3.00,-3.00,-2.29,-2.31,-2.30,-2.30
92,0.61,2.95,0.61,2.95,-2.95,-2.25,-2.34,-2.34,-2.34
93,0.52,2.89,0.53,2.90,-2.90,-2.21,-2.38,-2.37,-2.37
94,0.43,2.84,0.44,2.84,-2.84,-2.18,-2.41,-2.40,-2.41
95,0.34,2.78,0.35,2.78,-2.78,-2.14,-2.44,-2.44,-2.44
96,0.25,2.73,0.25,2.72,-2.72,-2.11,-2.47,-2.47,-2.48
97,0.17,2.68,0.15,2.66,-2.66,-2.08,-2.49,-2.51,-2.51
98,0.07,2.61,0.05,2.60,-2.60,-2.06,-2.53,-2.55,-2.54
99,-0.03,2.55,-0.06,2.53,-2.53,-2.03,-2.56,-2.59,-2.58
100,-0.13,2.48,-0.16,2.46,-2.46,-2.00,-2.59,-2.63,-2.61
101,-0.24,2.40,-0.27,2.40,-2.40,-1.98,-2.64,-2.67,-2.64
102,-0.35,2.33,-0.38,2.33,-2.33,-1.96,-2.68,-2.70,-2.68
104,-0.55,2.19,-0.48,2.26,-2.26,-1.92,-2.81,-2.74,-2.74
105,-0.64,2.13,-0.58,2.19,-2.19,-1.90,-2.83,-2.78,-2.77
106,-0.72,2.09,-0.68,2.13,-2.13,-1.88,-2.85,-2.81,-2.81
107,-0.80,2.04,-0.77,2.07,-2.07,-1.86,-2.87,-2.84,-2.84
108,-0.88,1.99,-0.87,2.00,-2.00,-1.84,-2.88,-2.87,-2.87
109,-0.95,1.95,-0.96,1.94,-1.94,-1.82,-2.89,-2.91,-2.90
110,-1.04,1.89,-1.05,1.89,-1.89,-1.80,-2.93,-2.94,-2.93
111,-1.11,1.85,-1.14,1.83,-1.83,-1.78,-2.94,-2.97,-2.96
112,-1.20,1.79,-1.22,1.78,-1.78,-1.76,-2.98,-3.00,-2.99
113,-1.28,1.73,-1.31,1.72,-1.72,-1.74,-3.00,-3.03,-3.01
114,-1.36,1.68,-1.39,1.67,-1.67,-1.72,-3.03,-3.06,-3.04
115,-1.44,1.63,-1.47,1.62,-1.62,-1.70,-3.06,-3.09,-3.07
117,-1.60,1.52,-1.55,1.57,-1.57,-1.66,-3.17,-3.12,-3.12
118,-1.68,1.47,-1.63,1.51,-1.51,-1.64,-3.19,-3.15,-3.15
119,-1.75,1.43,-1.72,1.46,-1.46,-1.61,-3.21,-3.18,-3.18
120,-1.81,1.39,-1.80,1.41,-1.41,-1.58,-3.22,-3.21,-3.20
121,-1.87,1.36,-1.89,1.35,-1.35,-1.56,-3.22,-3.24,-3.23
123,-1.99,1.28,-1.98,1.30,-1.30,-1.50,-3.29,-3.28,-3.27
124,-2.04,1.26,-2.06,1.24,-1.24,-1.47,-3.28,-3.31,-3.30
125,-2.11,1.21,-2.15,1.19,-1.19,-1.44,-3.30,-3.34,-3.32
126,-2.18,1.16,-2.23,1.13,-1.13,-1.41,-3.31,-3.36,-3.34
128,-2.33,1.06,-2.31,1.07,-1.07,-1.34,-3.40,-3.39,-3.39
129,-2.42,0.99,-2.40,1.01,-1.01,-1.30,-3.43,-3.41,-3.41
130,-2.51,0.92,-2.48,0.95,-0.95,-1.26,-3.46,-3.44,-3.43
131,-2.58,0.87,-2.58,0.89,-0.89,-1.22,-3.47,-3.47,-3.45
133,-2.72,0.77,-2.67,0.82,-0.82,-1.14,-3.54,-3.49,-3.49
134,-2.77,0.74,-2.77,0.75,-0.75,-1.10,-3.52,-3.52,-3.51
135,-2.82,0.71,-2.86,0.68,-0.68,-1.06,-3.50,-3.55,-3.53
137,-2.95,0.62,-2.97,0.61,-0.61,-0.97,-3.56,-3.58,-3.57
138,-3.02,0.57,-3.06,0.54,-0.54,-0.93,-3.56,-3.60,-3.59
140,-3.18,0.44,-3.16,0.46,-0.46,-0.84,-3.64,-3.62,-3.62
141,-3.26,0.38,-3.26,0.38,-0.38,-0.79,-3.64,-3.64,-3.64
142,-3.35,0.31,-3.36,0.30,-0.30,-0.75,-3.65,-3.67,-3.66
144,-3.50,0.19,-3.47,0.22,-0.22,-0.65,-3.72,-3.69,-3.69
145,-3.58,0.13,-3.58,0.13,-0.13,-0.60,-3.71,-3.71,-3.71
147,-3.72,0.02,-3.69,0.05,-0.05,-0.50,-3.77,-3.73,-3.74
148,-3.78,-0.03,-3.80,-0.04,0.04,-0.46,-3.74,-3.76,-3.75
150,-3.91,-0.13,-3.92,-0.13,0.13,-0.36,-3.78,-3.79,-3.78
151,-3.98,-0.18,-4.03,-0.22,0.22,-0.31,-3.76,-3.81,-3.80
153,-4.13,-0.31,-4.14,-0.31,0.31,-0.21,-3.82,-3.83,-3.82
154,-4.22,-0.38,-4.25,-0.40,0.40,-0.16,-3.82,-3.85,-3.84
156,-4.38,-0.52,-4.35,-0.49,0.49,-0.06,-3.89,-3.87,-3.86
157,-4.46,-0.59,-4.45,-0.57,0.57,-0.01,-3.89,-3.88,-3.87
159,-4.59,-0.69,-4.55,-0.64,0.64,0.09,-3.95,-3.90,-3.90
160,-4.65,-0.74,-4.64,-0.72,0.72,0.14,-3.93,-3.92,-3.91
162,-4.74,-0.81,-4.72,-0.78,0.78,0.24,-3.96,-3.94,-3.93
164,-4.81,-0.86,-4.80,-0.83,0.83,0.34,-3.98,-3.96,-3.95
165,-4.85,-0.88,-4.86,-0.88,0.88,0.40,-3.97,-3.98,-3.97
167,-4.91,-0.92,-4.92,-0.92,0.92,0.50,-3.99,-4.00,-3.99
169,-4.98,-0.97,-4.97,-0.95,0.95,0.60,-4.03,-4.02,-4.01
170,-5.00,-0.98,-5.00,-0.97,0.97,0.65,-4.03,-4.03,-4.02
172,-5.06,-1.03,-5.03,-0.98,0.98,0.75,-4.08,-4.05,-4.03
174,-5.08,-1.03,-5.05,-0.99,0.99,0.85,-4.09,-4.06,-4.05
175,-5.09,-1.03,-5.07,-0.99,0.99,0.90,-4.10,-4.07,-4.06
177,-5.10,-1.02,-5.08,-1.00,1.00,1.00,-4.10,-4.09,-4.08
179,-5.11,-1.02,-5.10,-1.00,1.00,1.10,-4.11,-4.10,-4.09
181,-5.12,-1.01,-5.12,-1.01,1.01,1.20,-4.11,-4.11,-4.11
183,-5.14,-1.02,-5.15,-1.03,1.03,1.30,-4.11,-4.12,-4.12
184,-5.15,-1.02,-5.19,-1.05,1.05,1.35,-4.10,-4.14,-4.13
186,-5.17,-1.02,-5.23,-1.08,1.08,1.45,-4.09,-4.15,-4.15
188,-5.22,-1.06,-5.29,-1.12,1.12,1.55,-4.10,-4.17,-4.16
190,-5.29,-1.12,-5.35,-1.17,1.17,1.65,-4.12,-4.18,-4.17
192,-5.40,-1.22,-5.42,-1.23,1.23,1.75,-4.17,-4.19,-4.18
194,-5.50,-1.30,-5.50,-1.30,1.30,1.85,-4.20,-4.21,-4.20
196,-5.62,-1.41,-5.59,-1.37,1.37,1.95,-4.25,-4.22,-4.21
198,-5.73,-1.51,-5.68,-1.45,1.45,2.05,-4.28,-4.24,-4.22
200,-5.82,-1.59,-5.77,-1.53,1.53,2.14,-4.29,-4.24,-4.23
202,-5.91,-1.67,-5.87,-1.62,1.62,2.24,-4.29,-4.25,-4.24
204,-5.99,-1.74,-5.97,-1.71,1.71,2.33,-4.28,-4.26,-4.25
206,-6.07,-1.81,-6.07,-1.80,1.80,2.42,-4.27,-4.27,-4.26
208,-6.16,-1.89,-6.17,-1.89,1.89,2.52,-4.27,-4.28,-4.27
210,-6.24,-1.96,-6.27,-1.98,1.98,2.60,-4.26,-4.29,-4.28
212,-6.34,-2.05,-6.36,-2.07,2.07,2.69,-4.27,-4.30,-4.29
214,-6.43,-2.13,-6.46,-2.16,2.16,2.77,-4.27,-4.30,-4.30
216,-6.53,-2.23,-6.56,-2.25,2.25,2.85,-4.28,-4.31,-4.30
218,-6.63,-2.32,-6.66,-2.34,2.34,2.93,-4.29,-4.32,-4.31
221,-6.78,-2.46,-6.76,-2.44,2.44,3.04,-4.34,-4.32,-4.32
223,-6.89,-2.56,-6.86,-2.53,2.53,3.11,-4.36,-4.33,-4.33
225,-6.98,-2.64,-6.96,-2.62,2.62,3.17,-4.36,-4.34,-4.34
227,-7.07,-2.73,-7.06,-2.71,2.71,3.23,-4.36,-4.35,-4.34
229,-7.15,-2.80,-7.15,-2.80,2.80,3.29,-4.35,-4.35,-4.35
232,-7.26,-2.90,-7.25,-2.88,2.88,3.36,-4.38,-4.36,-4.36
234,-7.33,-2.97,-7.33,-2.96,2.96,3.41,-4.37,-4.37,-4.36
236,-7.38,-3.01,-7.42,-3.04,3.04,3.45,-4.34,-4.38,-4.37
239,-7.47,-3.09,-7.49,-3.10,3.10,3.49,-4.37,-4.39,-4.38
241,-7.53,-3.15,-7.56,-3.16,3.16,3.52,-4.37,-4.40,-4.38
244,-7.62,-3.23,-7.61,-3.21,3.21,3.55,-4.41,-4.40,-4.39
246,-7.67,-3.27,-7.66,-3.25,3.25,3.56,-4.42,-4.41,-4.40
248,-7.71,-3.31,-7.69,-3.27,3.27,3.57,-4.44,-4.42,-4.40
251,-7.76,-3.35,-7.72,-3.29,3.29,3.57,-4.47,-4.42,-4.41
253,-7.77,-3.36,-7.73,-3.30,3.30,3.56,-4.47,-4.43,-4.41
256,-7.76,-3.34,-7.73,-3.29,3.29,3.54,-4.47,-4.43,-4.42
259,-7.74,-3.32,-7.72,-3.28,3.28,3.51,-4.46,-4.44,-4.42
261,-7.71,-3.28,-7.70,-3.26,3.26,3.49,-4.45,-4.44,-4.43
264,-7.66,-3.23,-7.67,-3.23,3.23,3.44,-4.43,-4.44,-4.43
266,-7.62,-3.18,-7.64,-3.19,3.19,3.41,-4.43,-4.45,-4.44
269,-7.57,-3.13,-7.60,-3.15,3.15,3.35,-4.42,-4.45,-4.44
272,-7.53,-3.08,-7.56,-3.11,3.11,3.28,-4.42,-4.45,-4.45
274,-7.50,-3.05,-7.52,-3.07,3.07,3.23,-4.43,-4.45,-4.45
277,-7.46,-3.00,-7.47,-3.02,3.02,3.16,-4.44,-4.45,-4.46
280,-7.43,-2.97,-7.43,-2.97,2.97,3.07,-4.46,-4.46,-4.46
283,-7.39,-2.93,-7.39,-2.93,2.93,2.99,-4.46,-4.46,-4.46
286,-7.35,-2.88,-7.35,-2.88,2.88,2.90,-4.47,-4.47,-4.47
288,-7.32,-2.85,-7.30,-2.83,2.83,2.84,-4.49,-4.48,-4.47
291,-7.27,-2.80,-7.26,-2.78,2.78,2.75,-4.49,-4.48,-4.47
294,-7.22,-2.74,-7.21,-2.73,2.73,2.65,-4.49,-4.48,-4.48
297,-7.17,-2.69,-7.17,-2.68,2.68,2.56,-4.49,-4.49,-4.48
300,-7.12,-2.63,-7.12,-2.63,2.63,2.46,-4.49,-4.49,-4.49
303,-7.06,-2.57,-7.06,-2.57,2.57,2.36,-4.49,-4.49,-4.49
306,-7.01,-2.52,-7.01,-2.51,2.51,2.26,-4.50,-4.49,-4.49
309,-6.95,-2.46,-6.95,-2.46,2.46,2.17,-4.49,-4.50,-4.49
312,-6.90,-2.40,-6.90,-2.40,2.40,2.07,-4.50,-4.50,-4.50
316,-6.83,-2.33,-6.84,-2.34,2.34,1.94,-4.49,-4.50,-4.50
319,-6.78,-2.28,-6.79,-2.29,2.29,1.84,-4.49,-4.50,-4.50
322,-6.73,-2.22,-6.73,-2.23,2.23,1.75,-4.50,-4.50,-4.51
325,-6.68,-2.17,-6.68,-2.17,2.17,1.66,-4.51,-4.51,-4.51
328,-6.63,-2.12,-6.63,-2.12,2.12,1.56,-4.51,-4.51,-4.51
332,-6.57,-2.06,-6.57,-2.06,2.06,1.44,-4.51,-4.51,-4.51
335,-6.52,-2.00,-6.52,-2.00,2.00,1.35,-4.52,-4.52,-4.52
338,-6.47,-1.95,-6.47,-1.95,1.95,1.26,-4.52,-4.52,-4.52
342,-6.41,-1.89,-6.41,-1.89,1.89,1.15,-4.52,-4.52,-4.52
345,-6.36,-1.84,-6.36,-1.83,1.83,1.06,-4.53,-4.53,-4.52
349,-6.30,-1.77,-6.30,-1.77,1.77,0.95,-4.53,-4.53,-4.53
352,-6.25,-1.72,-6.24,-1.71,1.71,0.86,-4.54,-4.53,-4.53
356,-6.18,-1.65,-6.18,-1.64,1.64,0.76,-4.54,-4.53,-4.53
359,-6.12,-1.59,-6.11,-1.57,1.57,0.68,-4.55,-4.54,-4.53
363,-6.04,-1.51,-6.04,-1.50,1.50,0.57,-4.54,-4.54,-4.53
366,-5.98,-1.44,-5.97,-1.43,1.43,0.49,-4.55,-4.54,-4.54
370,-5.90,-1.36,-5.90,-1.35,1.35,0.39,-4.55,-4.54,-4.54
374,-5.81,-1.27,-5.82,-1.28,1.28,0.29,-4.53,-4.54,-4.54
377,-5.75,-1.21,-5.74,-1.20,1.20,0.22,-4.55,-4.54,-4.54
381,-5.67,-1.13,-5.67,-1.12,1.12,0.12,-4.55,-4.55,-4.54
385,-5.59,-1.04,-5.59,-1.04,1.04,0.03,-4.55,-4.55,-4.55
389,-5.51,-0.96,-5.51,-0.96,0.96,-0.06,-4.55,-4.55,-4.55
393,-5.43,-0.88,-5.43,-0.89,0.89,-0.16,-4.54,-4.55,-4.55
397,-5.36,-0.81,-5.36,-0.81,0.81,-0.24,-4.55,-4.55,-4.55
401,-5.28,-0.73,-5.29,-0.74,0.74,-0.33,-4.54,-4.55,-4.55
405,-5.21,-0.66,-5.22,-0.67,0.67,-0.42,-4.54,-4.55,-4.55
409,-5.14,-0.59,-5.15,-0.61,0.61,-0.50,-4.53,-4.55,-4.55
413,-5.08,-0.52,-5.10,-0.55,0.55,-0.58,-4.53,-4.55,-4.56
417,-5.02,-0.46,-5.04,-0.49,0.49,-0.66,-4.53,-4.55,-4.56
421,-4.97,-0.41,-4.99,-0.44,0.44,-0.74,-4.53,-4.56,-4.56
425,-4.92,-0.36,-4.95,-0.38,0.38,-0.81,-4.54,-4.57,-4.56
430,-4.86,-0.30,-4.90,-0.32,0.32,-0.90,-4.54,-4.58,-4.56
434,-4.82,-0.26,-4.84,-0.26,0.26,-0.97,-4.56,-4.58,-4.56
438,-4.77,-0.20,-4.78,-0.19,0.19,-1.04,-4.58,-4.59,-4.57
443,-4.71,-0.14,-4.70,-0.11,0.11,-1.12,-4.60,-4.59,-4.57
447,-4.66,-0.10,-4.61,-0.02,0.02,-1.19,-4.64,-4.59,-4.56
451,-4.59,-0.03,-4.51,0.09,-0.09,-1.25,-4.68,-4.59,-4.56
456,-4.46,0.10,-4.38,0.21,-0.21,-1.32,-4.67,-4.59,-4.56
460,-4.33,0.22,-4.24,0.34,-0.34,-1.37,-4.67,-4.58,-4.55
465,-4.13,0.41,-4.08,0.49,-0.49,-1.43,-4.62,-4.57,-4.54
470,-3.91,0.62,-3.91,0.65,-0.65,-1.49,-4.56,-4.56,-4.53
474,-3.73,0.80,-3.73,0.82,-0.82,-1.54,-4.55,-4.55,-4.53
479,-3.51,1.00,-3.53,1.00,-1.00,-1.59,-4.51,-4.53,-4.51
484,-3.30,1.20,-3.34,1.18,-1.18,-1.64,-4.48,-4.51,-4.50
489,-3.11,1.38,-3.14,1.36,-1.36,-1.68,-4.47,-4.49,-4.49
494,-2.91,1.57,-2.94,1.54,-1.54,-1.72,-4.45,-4.47,-4.48
499,-2.73,1.73,-2.75,1.70,-1.70,-1.75,-4.43,-4.45,-4.46
504,-2.56,1.89,-2.57,1.87,-1.87,-1.78,-4.43,-4.43,-4.45
509,-2.39,2.04,-2.40,2.01,-2.01,-1.81,-4.40,-4.42,-4.43
514,-2.23,2.18,-2.26,2.15,-2.15,-1.83,-4.38,-4.41,-4.41
519,-2.10,2.30,-2.12,2.27,-2.27,-1.85,-4.37,-4.39,-4.40
524,-1.98,2.40,-2.00,2.38,-2.38,-1.87,-4.36,-4.38,-4.38
529,-1.88,2.48,-1.89,2.47,-2.47,-1.88,-4.35,-4.36,-4.36
535,-1.77,2.57,-1.79,2.55,-2.55,-1.89,-4.32,-4.34,-4.34
540,-1.69,2.63,-1.70,2.62,-2.62,-1.90,-4.31,-4.32,-4.32
545,-1.63,2.67,-1.62,2.68,-2.68,-1.90,-4.31,-4.30,-4.30
551,-1.56,2.71,-1.55,2.72,-2.72,-1.91,-4.28,-4.27,-4.27
556,-1.50,2.75,-1.49,2.76,-2.76,-1.91,-4.26,-4.25,-4.25
562,-1.44,2.78,-1.43,2.80,-2.80,-1.91,-4.24,-4.23,-4.22
568,-1.38,2.81,-1.37,2.83,-2.83,-1.90,-4.21,-4.20,-4.19
573,-1.33,2.84,-1.32,2.85,-2.85,-1.90,-4.18,-4.17,-4.17
579,-1.28,2.86,-1.27,2.87,-2.87,-1.90,-4.15,-4.14,-4.14
585,-1.22,2.89,-1.22,2.89,-2.89,-1.89,-4.11,-4.11,-4.11
591,-1.17,2.91,-1.18,2.91,-2.91,-1.88,-4.08,-4.08,-4.08
596,-1.13,2.92,-1.13,2.92,-2.92,-1.88,-4.05,-4.05,-4.05
602,-1.09,2.93,-1.08,2.94,-2.94,-1.87,-4.03,-4.02,-4.02
608,-1.04,2.95,-1.04,2.95,-2.95,-1.86,-3.99,-3.99,-3.99
615,-0.99,2.96,-1.00,2.96,-2.96,-1.86,-3.95,-3.96,-3.95
621,-0.96,2.96,-0.96,2.97,-2.97,-1.85,-3.93,-3.92,-3.92
627,-0.92,2.97,-0.92,2.98,-2.98,-1.84,-3.90,-3.89,-3.89
633,-0.88,2.98,-0.88,2.98,-2.98,-1.84,-3.86,-3.86,-3.86
639,-0.84,2.99,-0.84,2.99,-2.99,-1.84,-3.83,-3.83,-3.83
646,-0.81,2.98,-0.81,2.99,-2.99,-1.83,-3.80,-3.79,-3.79
652,-0.77,2.99,-0.77,2.99,-2.99,-1.83,-3.76,-3.76,-3.76
659,-0.73,3.00,-0.74,2.98,-2.98,-1.83,-3.71,-3.72,-3.73
665,-0.71,2.98,-0.71,2.98,-2.98,-1.83,-3.69,-3.69,-3.69
672,-0.68,2.98,-0.68,2.97,-2.97,-1.83,-3.65,-3.66,-3.66
679,-0.65,2.97,-0.66,2.97,-2.97,-1.83,-3.62,-3.62,-3.62
686,-0.62,2.96,-0.63,2.96,-2.96,-1.84,-3.58,-3.59,-3.58
692,-0.59,2.96,-0.60,2.95,-2.95,-1.84,-3.54,-3.55,-3.55
699,-0.58,2.93,-0.57,2.94,-2.94,-1.85,-3.52,-3.52,-3.51
706,-0.55,2.92,-0.54,2.93,-2.93,-1.86,-3.48,-3.48,-3.47
713,-0.53,2.90,-0.51,2.93,-2.93,-1.87,-3.46,-3.44,-3.43
721,-0.50,2.89,-0.48,2.92,-2.92,-1.88,-3.42,-3.40,-3.39
728,-0.47,2.88,-0.45,2.91,-2.91,-1.89,-3.38,-3.36,-3.35
735,-0.43,2.89,-0.41,2.91,-2.91,-1.91,-3.34,-3.32,-3.32
742,-0.38,2.90,-0.38,2.90,-2.90,-1.92,-3.28,-3.28,-3.28
750,-0.34,2.90,-0.35,2.89,-2.89,-1.94,-3.23,-3.24,-3.24
757,-0.30,2.90,-0.32,2.88,-2.88,-1.96,-3.18,-3.20,-3.20
765,-0.27,2.89,-0.29,2.87,-2.87,-1.98,-3.14,-3.16,-3.16
773,-0.25,2.87,-0.27,2.85,-2.85,-2.00,-3.10,-3.12,-3.12
780,-0.24,2.85,-0.25,2.84,-2.84,-2.02,-3.08,-3.09,-3.09
788,-0.22,2.83,-0.24,2.82,-2.82,-2.05,-3.04,-3.05,-3.05
796,-0.21,2.81,-0.22,2.80,-2.80,-2.07,-3.01,-3.02,-3.02
804,-0.21,2.77,-0.21,2.78,-2.78,-2.10,-2.99,-2.99,-2.98
812,-0.20,2.75,-0.20,2.76,-2.76,-2.12,-2.96,-2.96,-2.95
820,-0.20,2.72,-0.19,2.74,-2.74,-2.15,-2.94,-2.93,-2.92
828,-0.21,2.68,-0.17,2.72,-2.72,-2.18,-2.93,-2.90,-2.89
837,-0.19,2.66,-0.16,2.70,-2.70,-2.21,-2.89,-2.86,-2.85
845,-0.17,2.65,-0.14,2.69,-2.69,-2.24,-2.86,-2.83,-2.82
853,-0.14,2.65,-0.13,2.67,-2.67,-2.26,-2.81,-2.80,-2.79
862,-0.11,2.65,-0.11,2.66,-2.66,-2.29,-2.77,-2.77,-2.76
871,-0.07,2.66,-0.10,2.64,-2.64,-2.32,-2.71,-2.74,-2.73
879,-0.06,2.65,-0.08,2.63,-2.63,-2.35,-2.69,-2.71,-2.71
888,-0.04,2.64,-0.07,2.61,-2.61,-2.37,-2.65,-2.68,-2.68
897,-0.04,2.61,-0.05,2.60,-2.60,-2.40,-2.64,-2.65,-2.65
906,-0.03,2.59,-0.04,2.58,-2.58,-2.42,-2.61,-2.62,-2.62
915,-0.03,2.57,-0.03,2.57,-2.57,-2.44,-2.60,-2.60,-2.60
924,-0.03,2.54,-0.02,2.55,-2.55,-2.46,-2.58,-2.57,-2.57
933,-0.03,2.51,-0.02,2.53,-2.53,-2.48,-2.56,-2.55,-2.54
943,-0.03,2.49,-0.01,2.51,-2.51,-2.50,-2.54,-2.52,-2.52
952,-0.03,2.46,-0.01,2.48,-2.48,-2.51,-2.51,-2.49,-2.49
962,-0.03,2.44,-0.01,2.46,-2.46,-2.52,-2.49,-2.47,-2.47
971,-0.02,2.42,-0.01,2.43,-2.43,-2.53,-2.45,-2.44,-2.44
981,0.00,2.41,-0.01,2.40,-2.40,-2.54,-2.40,-2.41,-2.41
991,0.00,2.39,-0.01,2.37,-2.37,-2.54,-2.37,-2.39,-2.39
1001,0.00,2.36,-0.02,2.34,-2.34,-2.54,-2.34,-2.36,-2.36
1011,0.00,2.33,-0.03,2.31,-2.31,-2.54,-2.31,-2.33,-2.33
1021,-0.02,2.29,-0.04,2.27,-2.27,-2.54,-2.29,-2.31,-2.31
1031,-0.04,2.24,-0.05,2.23,-2.23,-2.53,-2.27,-2.28,-2.28
1041,-0.07,2.18,-0.07,2.18,-2.18,-2.52,-2.25,-2.25,-2.25
1052,-0.10,2.12,-0.08,2.14,-2.14,-2.50,-2.24,-2.22,-2.22
1062,-0.12,2.08,-0.10,2.09,-2.09,-2.49,-2.21,-2.19,-2.20
1073,-0.14,2.03,-0.13,2.04,-2.04,-2.47,-2.18,-2.17,-2.17
1084,-0.16,1.98,-0.15,1.99,-1.99,-2.45,-2.15,-2.14,-2.14
1094,-0.17,1.94,-0.18,1.93,-1.93,-2.43,-2.10,-2.11,-2.11
1105,-0.19,1.89,-0.20,1.88,-1.88,-2.40,-2.07,-2.08,-2.08
1116,-0.21,1.84,-0.22,1.83,-1.83,-2.38,-2.04,-2.05,-2.05
1128,-0.23,1.79,-0.24,1.78,-1.78,-2.35,-2.01,-2.02,-2.02
1139,-0.25,1.73,-0.25,1.73,-1.73,-2.32,-1.98,-1.99,-1.98
1150,-0.28,1.67,-0.27,1.69,-1.69,-2.29,-1.97,-1.96,-1.95
1162,-0.29,1.63,-0.28,1.64,-1.64,-2.26,-1.93,-1.93,-1.92
1173,-0.31,1.58,-0.30,1.60,-1.60,-2.23,-1.91,-1.90,-1.89
1185,-0.31,1.55,-0.31,1.56,-1.56,-2.20,-1.87,-1.86,-1.86
1197,-0.32,1.50,-0.32,1.52,-1.52,-2.17,-1.84,-1.83,-1.82
1209,-0.32,1.47,-0.32,1.48,-1.48,-2.14,-1.80,-1.80,-1.79
1221,-0.33,1.43,-0.33,1.44,-1.44,-2.11,-1.77,-1.77,-1.76
1233,-0.33,1.40,-0.33,1.40,-1.40,-2.08,-1.73,-1.73,-1.73
1246,-0.33,1.37,-0.33,1.36,-1.36,-2.05,-1.69,-1.69,-1.70
1258,-0.34,1.32,-0.34,1.32,-1.32,-2.03,-1.66,-1.66,-1.66
1271,-0.33,1.30,-0.34,1.29,-1.29,-2.00,-1.62,-1.63,-1.63
1283,-0.32,1.28,-0.34,1.25,-1.25,-1.97,-1.57,-1.60,-1.60
1296,-0.32,1.24,-0.35,1.22,-1.22,-1.95,-1.54,-1.57,-1.56
1309,-0.32,1.20,-0.34,1.20,-1.20,-1.93,-1.52,-1.54,-1.52
1322,-0.32,1.17,-0.34,1.18,-1.18,-1.90,-1.50,-1.51,-1.49
1335,-0.32,1.13,-0.32,1.16,-1.16,-1.88,-1.48,-1.48,-1.45
1349,-0.30,1.12,-0.29,1.16,-1.16,-1.86,-1.46,-1.45,-1.42
1362,-0.29,1.09,-0.25,1.16,-1.16,-1.84,-1.45,-1.42,-1.38
1376,-0.26,1.08,-0.20,1.18,-1.18,-1.83,-1.44,-1.38,-1.34
1390,-0.20,1.10,-0.14,1.20,-1.20,-1.81,-1.40,-1.34,-1.30
1404,-0.13,1.13,-0.07,1.23,-1.23,-1.80,-1.36,-1.30,-1.26
1418,-0.03,1.19,0.01,1.27,-1.27,-1.78,-1.30,-1.26,-1.22
1432,0.09,1.28,0.10,1.31,-1.31,-1.77,-1.22,-1.21,-1.19
1446,0.20,1.35,0.19,1.36,-1.36,-1.76,-1.16,-1.16,-1.15
1461,0.32,1.43,0.29,1.40,-1.40,-1.75,-1.08,-1.12,-1.11
1475,0.42,1.49,0.38,1.45,-1.45,-1.75,-1.03,-1.07,-1.07
1490,0.52,1.55,0.47,1.48,-1.48,-1.74,-0.96,-1.02,-1.03
1505,0.59,1.58,0.55,1.52,-1.52,-1.74,-0.93,-0.97,-0.99
1520,0.65,1.60,0.61,1.54,-1.54,-1.73,-0.89,-0.93,-0.95
1535,0.69,1.60,0.67,1.55,-1.55,-1.73,-0.86,-0.88,-0.91
1550,0.72,1.59,0.71,1.55,-1.55,-1.73,-0.83,-0.85,-0.87
1566,0.75,1.57,0.74,1.55,-1.55,-1.73,-0.80,-0.81,-0.82
1582,0.76,1.54,0.76,1.53,-1.53,-1.73,-0.77,-0.77,-0.78
