frequency,raw
20.00,-4.78
20.20,-4.78
20.40,-4.78
20.61,-4.78
20.81,-4.78
21.02,-4.78
21.23,-4.78
21.44,-4.78
21.66,-4.77
21.87,-4.77
22.09,-4.75
22.31,-4.70
22.54,-4.66
22.76,-4.61
22.99,-4.56
23.22,-4.56
23.45,-4.56
23.69,-4.56
23.92,-4.56
24.16,-4.56
24.40,-4.56
24.65,-4.56
24.89,-4.56
25.14,-4.55
25.39,-4.52
25.65,-4.50
25.91,-4.48
26.16,-4.45
26.43,-4.41
26.69,-4.37
26.96,-4.34
27.23,-4.33
27.50,-4.33
27.77,-4.33
28.05,-4.33
28.33,-4.33
28.62,-4.33
28.90,-4.33
29.19,-4.33
29.48,-4.33
29.78,-4.33
30.08,-4.32
30.38,-4.27
30.68,-4.22
30.99,-4.17
31.30,-4.15
31.61,-4.13
31.93,-4.11
32.24,-4.10
32.57,-4.10
32.89,-4.10
33.22,-4.10
33.55,-4.10
33.89,-4.10
34.23,-4.10
34.57,-4.10
34.92,-4.10
35.27,-4.10
35.62,-4.10
35.97,-4.10
36.33,-4.10
36.70,-4.10
37.06,-4.10
37.43,-4.10
37.81,-4.10
38.19,-4.10
38.57,-4.10
38.95,-4.10
39.34,-4.10
39.74,-4.10
40.14,-4.10
40.54,-4.10
40.94,-4.10
41.35,-4.10
41.76,-4.10
42.18,-4.06
42.60,-3.96
43.03,-3.87
43.46,-3.87
43.90,-3.87
44.33,-3.87
44.78,-3.87
45.23,-3.87
45.68,-3.87
46.13,-3.87
46.60,-3.87
47.06,-3.87
47.53,-3.87
48.01,-3.87
48.49,-3.87
48.97,-3.87
49.46,-3.87
49.96,-3.87
50.46,-3.87
50.96,-3.87
51.47,-3.87
51.99,-3.87
52.51,-3.87
53.03,-3.87
53.56,-3.87
54.10,-3.85
54.64,-3.72
55.18,-3.68
55.74,-3.81
56.29,-3.87
56.86,-3.87
57.42,-3.87
58.00,-3.87
58.58,-3.87
59.16,-3.87
59.76,-3.87
60.35,-3.87
60.96,-3.87
61.57,-3.87
62.18,-3.87
62.80,-3.87
63.43,-3.87
64.07,-3.87
64.71,-3.87
65.35,-3.87
66.01,-3.87
66.67,-3.87
67.33,-3.79
68.01,-3.64
68.69,-3.64
69.37,-3.64
70.07,-3.64
70.77,-3.64
71.48,-3.64
72.19,-3.64
72.91,-3.64
73.64,-3.64
74.38,-3.64
75.12,-3.64
75.87,-3.64
76.63,-3.64
77.40,-3.64
78.17,-3.64
78.95,-3.64
79.74,-3.64
80.54,-3.64
81.35,-3.64
82.16,-3.64
82.98,-3.64
83.81,-3.64
84.65,-3.64
85.50,-3.64
86.35,-3.64
87.22,-3.64
88.09,-3.64
88.97,-3.64
89.86,-3.64
90.76,-3.64
91.66,-3.64
92.58,-3.64
93.51,-3.64
94.44,-3.64
95.39,-3.64
96.34,-3.64
97.30,-3.64
98.28,-3.64
99.26,-3.64
100.25,-3.64
101.25,-3.64
102.27,-3.64
103.29,-3.64
104.32,-3.64
105.37,-3.64
106.42,-3.64
107.48,-3.64
108.56,-3.64
109.64,-3.64
110.74,-3.64
111.85,-3.64
112.97,-3.62
114.10,-3.42
115.24,-3.42
116.39,-3.42
117.55,-3.42
118.73,-3.42
119.92,-3.42
121.12,-3.42
122.33,-3.42
123.55,-3.42
124.79,-3.42
126.03,-3.42
127.29,-3.42
128.57,-3.42
129.85,-3.42
131.15,-3.42
132.46,-3.42
133.79,-3.42
135.12,-3.42
136.48,-3.42
137.84,-3.42
139.22,-3.42
140.61,-3.42
142.02,-3.42
143.44,-3.42
144.87,-3.42
146.32,-3.42
147.78,-3.42
149.26,-3.42
150.75,-3.42
152.26,-3.42
153.78,-3.42
155.32,-3.42
156.88,-3.42
158.44,-3.42
160.03,-3.42
161.63,-3.42
163.24,-3.42
164.88,-3.42
166.53,-3.42
168.19,-3.42
169.87,-3.42
171.57,-3.42
173.29,-3.42
175.02,-3.42
176.77,-3.42
178.54,-3.42
180.32,-3.42
182.13,-3.42
183.95,-3.42
185.79,-3.42
187.65,-3.42
189.52,-3.42
191.42,-3.42
193.33,-3.42
195.27,-3.42
197.22,-3.42
199.19,-3.41
201.18,-3.28
203.19,-3.19
205.23,-3.19
207.28,-3.19
209.35,-3.19
211.44,-3.19
213.56,-3.19
215.69,-3.19
217.85,-3.19
220.03,-3.19
222.23,-3.19
224.45,-3.19
226.70,-3.19
228.96,-3.19
231.25,-3.19
233.57,-3.19
235.90,-3.19
238.26,-3.19
240.64,-3.19
243.05,-3.19
245.48,-3.19
247.93,-3.19
250.41,-3.19
252.92,-3.19
255.45,-3.19
258.00,-3.19
260.58,-3.19
263.19,-3.19
265.82,-3.19
268.48,-3.19
271.16,-3.19
273.87,-3.19
276.61,-3.19
279.38,-3.19
282.17,-3.19
284.99,-3.19
287.84,-3.19
290.72,-3.19
293.63,-3.19
296.57,-3.19
299.53,-3.19
302.53,-3.19
305.55,-3.19
308.61,-3.19
311.69,-3.19
314.81,-3.19
317.96,-3.19
321.14,-3.18
324.35,-3.01
327.59,-2.96
330.87,-2.96
334.18,-2.96
337.52,-2.96
340.90,-2.96
344.30,-2.96
347.75,-2.96
351.23,-2.96
354.74,-2.96
358.28,-2.96
361.87,-2.96
365.49,-2.96
369.14,-2.96
372.83,-2.96
376.56,-2.96
380.33,-2.96
384.13,-2.96
387.97,-2.96
391.85,-2.96
395.77,-2.96
399.73,-2.96
403.72,-2.96
407.76,-2.96
411.84,-2.83
415.96,-2.74
420.12,-2.73
424.32,-2.73
428.56,-2.73
432.85,-2.73
437.18,-2.73
441.55,-2.73
445.96,-2.73
450.42,-2.73
454.93,-2.73
459.48,-2.73
464.07,-2.73
468.71,-2.73
473.40,-2.73
478.13,-2.73
482.91,-2.73
487.74,-2.73
492.62,-2.73
497.55,-2.73
502.52,-2.60
507.55,-2.52
512.62,-2.51
517.75,-2.51
522.93,-2.51
528.16,-2.51
533.44,-2.51
538.77,-2.51
544.16,-2.51
549.60,-2.51
555.10,-2.51
560.65,-2.51
566.25,-2.51
571.92,-2.51
577.64,-2.36
583.41,-2.29
589.25,-2.28
595.14,-2.28
601.09,-2.28
607.10,-2.28
613.17,-2.28
619.30,-2.28
625.50,-2.28
631.75,-2.28
638.07,-2.24
644.45,-2.09
650.89,-2.05
657.40,-2.05
663.98,-2.05
670.62,-2.05
677.32,-2.05
684.10,-2.05
690.94,-2.05
697.85,-2.05
704.83,-1.91
711.87,-1.83
718.99,-1.82
726.18,-1.82
733.44,-1.82
740.78,-1.82
748.19,-1.70
755.67,-1.60
763.23,-1.59
770.86,-1.59
778.57,-1.55
786.35,-1.40
794.22,-1.37
802.16,-1.37
810.18,-1.37
818.28,-1.19
826.46,-1.14
834.73,-1.14
843.08,-1.14
851.51,-1.14
860.02,-0.99
868.62,-0.92
877.31,-0.90
886.08,-0.73
894.94,-0.68
903.89,-0.68
912.93,-0.68
922.06,-0.68
931.28,-0.51
940.59,-0.45
950.00,-0.40
959.50,-0.27
969.09,-0.23
978.78,-0.23
988.57,-0.07
998.46,-0.01
1008.44,0.04
1018.53,0.19
1028.71,0.23
1039.00,0.23
1049.39,0.37
1059.88,0.45
1070.48,0.48
1081.19,0.64
1092.00,0.69
1102.92,0.69
1113.95,0.80
1125.09,0.89
1136.34,0.91
1147.70,1.09
1159.18,1.14
1170.77,1.14
1182.48,1.24
1194.30,1.35
1206.25,1.37
1218.31,1.55
1230.49,1.60
1242.80,1.60
1255.22,1.68
1267.78,1.80
1280.45,1.83
1293.26,1.83
1306.19,1.84
1319.25,2.01
1332.45,2.05
1345.77,2.05
1359.23,2.17
1372.82,2.41
1386.55,2.50
1400.41,2.51
1414.42,2.56
1428.56,2.70
1442.85,2.83
1457.28,3.07
1471.85,3.18
1486.57,3.37
1501.43,3.45
1516.45,3.61
1531.61,3.73
1546.93,3.96
1562.40,4.08
1578.02,4.27
1593.80,4.34
1609.74,4.55
1625.84,4.81
1642.10,4.98
1658.52,5.13
1675.10,5.37
1691.85,5.46
1708.77,5.67
1725.86,5.93
1743.12,6.12
1760.55,6.25
1778.15,6.48
1795.94,6.75
1813.90,7.01
1832.03,7.09
1850.36,7.26
1868.86,7.38
1887.55,7.60
1906.42,7.87
1925.49,8.13
1944.74,8.21
1964.19,8.39
1983.83,8.49
2003.67,8.71
2023.71,8.97
2043.94,9.24
2064.38,9.34
2085.03,9.52
2105.88,9.57
2126.94,9.65
2148.20,9.77
2169.69,9.80
2191.38,9.80
2213.30,9.97
2235.43,10.03
2257.78,10.03
2280.36,9.96
2303.17,9.83
2326.20,9.80
2349.46,9.80
2372.95,9.80
2396.68,9.62
2420.65,9.52
2444.86,9.30
2469.31,9.15
2494.00,8.98
2518.94,8.90
2544.13,8.71
2569.57,8.62
2595.27,8.41
2621.22,8.24
2647.43,8.09
2673.90,8.00
2700.64,7.80
2727.65,7.73
2754.93,7.52
2782.48,7.34
2810.30,7.30
2838.40,7.30
2866.79,7.14
2895.46,7.08
2924.41,7.07
2953.65,7.07
2983.19,6.98
3013.02,6.87
3043.15,6.84
3073.58,6.84
3104.32,6.85
3135.36,7.02
3166.72,7.07
3198.38,7.07
3230.37,7.07
3262.67,7.07
3295.30,7.07
3328.25,7.07
3361.53,7.07
3395.15,7.07
3429.10,7.07
3463.39,7.07
3498.03,7.22
3533.01,7.29
3568.34,7.30
3604.02,7.30
3640.06,7.38
3676.46,7.49
3713.22,7.65
3750.36,7.74
3787.86,7.94
3825.74,8.16
3864.00,8.27
3902.64,8.49
3941.66,8.75
3981.08,8.94
4020.89,9.25
4061.10,9.55
4101.71,9.89
4142.73,10.21
4184.15,10.54
4226.00,10.81
4268.26,11.08
4310.94,11.34
4354.05,11.40
4397.59,11.40
4441.56,11.28
4485.98,10.94
4530.84,10.49
4576.15,9.82
4621.91,9.22
4668.13,8.52
4714.81,7.91
4761.96,7.32
4809.58,6.61
4857.67,5.87
4906.25,5.12
4955.31,4.44
5004.87,3.89
5054.91,3.36
5105.46,2.79
5156.52,2.16
5208.08,1.50
5260.16,0.93
5312.77,0.42
5365.89,0.06
5419.55,-0.34
5473.75,-0.74
5528.49,-1.17
5583.77,-1.57
5639.61,-1.79
5696.00,-2.03
5752.96,-2.29
5810.49,-2.55
5868.60,-2.82
5927.28,-3.08
5986.56,-3.18
6046.42,-3.37
6106.89,-3.46
6167.96,-3.60
6229.64,-3.74
6291.93,-3.85
6354.85,-3.87
6418.40,-3.87
6482.58,-3.89
6547.41,-4.06
6612.88,-4.10
6679.01,-4.10
6745.80,-3.98
6813.26,-3.74
6881.39,-3.47
6950.21,-3.24
7019.71,-3.10
7089.91,-2.78
7160.81,-2.33
7232.41,-1.82
7304.74,-1.30
7377.79,-0.78
7451.56,-0.21
7526.08,0.53
7601.34,1.32
7677.35,2.16
7754.13,2.85
7831.67,3.48
7909.98,3.94
7989.08,4.31
8068.98,4.45
8149.67,4.11
8231.16,3.57
8313.47,2.88
8396.61,2.29
8480.57,1.48
8565.38,0.75
8651.03,0.02
8737.54,-0.60
8824.92,-1.07
8913.17,-1.31
9002.30,-1.54
9092.32,-1.81
9183.25,-2.07
9275.08,-2.25
9367.83,-2.16
9461.51,-2.07
9556.12,-1.88
9651.68,-1.62
9748.20,-1.28
9845.68,-0.96
9944.14,-0.63
10043.58,-0.60
10144.02,-0.97
10245.46,-1.56
10347.91,-2.44
10451.39,-3.56
10555.91,-4.74
10661.46,-5.87
10768.08,-6.80
10875.76,-7.69
10984.52,-8.50
11094.36,-9.25
11205.31,-9.71
11317.36,-10.06
11430.53,-10.34
11544.84,-10.46
11660.29,-10.48
11776.89,-10.39
11894.66,-10.51
12013.60,-11.40
12133.74,-13.04
12255.08,-15.54
12377.63,-18.55
12501.41,-22.03
12626.42,-26.03
12752.68,-29.50
12880.21,-31.60
13009.01,-31.88
13139.10,-31.18
13270.49,-30.20
13403.20,-29.15
13537.23,-28.13
13672.60,-27.18
13809.33,-26.30
13947.42,-25.45
14086.90,-24.54
14227.77,-23.55
14370.04,-22.50
14513.74,-21.44
14658.88,-20.28
14805.47,-19.05
14953.52,-17.83
15103.06,-16.64
15254.09,-15.80
15406.63,-15.59
15560.70,-16.19
15716.30,-17.05
15873.47,-18.05
16032.20,-19.17
16192.52,-20.18
16354.45,-21.11
16517.99,-21.79
16683.17,-22.12
16850.01,-22.30
17018.51,-22.33
17188.69,-22.33
17360.58,-22.17
17534.18,-21.83
17709.53,-21.27
17886.62,-20.46
18065.49,-19.56
18246.14,-18.49
18428.60,-17.12
18612.89,-15.40
18799.02,-13.56
18987.01,-11.72
19176.88,-10.26
19368.65,-9.14
19562.33,-8.44
19757.96,-8.83
19955.54,-10.14
