frequency,raw,error,smoothed,error_smoothed,equalization,parametric_eq,equalized_raw,equalized_smoothed,target
20.00,5.16,1.32,5.15,1.32,-1.32,-0.88,3.84,3.84,3.84
20.20,5.18,1.34,5.18,1.34,-1.34,-0.91,3.84,3.84,3.84
20.40,5.20,1.36,5.20,1.36,-1.36,-0.93,3.84,3.84,3.84
20.61,5.22,1.38,5.22,1.38,-1.38,-0.96,3.85,3.84,3.84
20.81,5.25,1.40,5.24,1.40,-1.40,-0.99,3.85,3.84,3.84
21.02,5.27,1.42,5.27,1.42,-1.42,-1.01,3.85,3.85,3.85
21.23,5.29,1.44,5.29,1.44,-1.44,-1.04,3.85,3.85,3.85
21.44,5.31,1.45,5.31,1.46,-1.46,-1.07,3.85,3.85,3.85
21.66,5.33,1.48,5.33,1.48,-1.48,-1.10,3.85,3.85,3.85
21.87,5.36,1.50,5.35,1.50,-1.50,-1.13,3.86,3.85,3.86
22.09,5.38,1.52,5.38,1.52,-1.52,-1.17,3.86,3.86,3.86
22.31,5.40,1.54,5.40,1.54,-1.54,-1.20,3.86,3.86,3.86
22.54,5.42,1.55,5.42,1.56,-1.56,-1.23,3.86,3.86,3.86
22.76,5.45,1.58,5.44,1.58,-1.58,-1.27,3.87,3.86,3.86
22.99,5.47,1.60,5.46,1.60,-1.60,-1.30,3.87,3.86,3.87
23.22,5.49,1.62,5.48,1.62,-1.62,-1.34,3.87,3.87,3.87
23.45,5.51,1.64,5.50,1.63,-1.63,-1.38,3.87,3.87,3.87
23.69,5.53,1.65,5.53,1.65,-1.65,-1.41,3.87,3.87,3.87
23.92,5.55,1.67,5.55,1.67,-1.67,-1.45,3.87,3.87,3.87
24.16,5.57,1.69,5.57,1.69,-1.69,-1.49,3.88,3.88,3.88
24.40,5.59,1.71,5.59,1.71,-1.71,-1.53,3.88,3.88,3.88
24.65,5.61,1.72,5.61,1.73,-1.73,-1.57,3.88,3.88,3.88
24.89,5.63,1.74,5.63,1.74,-1.74,-1.61,3.88,3.88,3.88
25.14,5.65,1.76,5.65,1.76,-1.76,-1.65,3.88,3.89,3.89
25.39,5.67,1.78,5.67,1.78,-1.78,-1.69,3.89,3.89,3.89
25.65,5.69,1.80,5.69,1.80,-1.80,-1.74,3.89,3.89,3.89
25.91,5.70,1.81,5.71,1.81,-1.81,-1.78,3.89,3.89,3.89
26.16,5.73,1.83,5.72,1.83,-1.83,-1.82,3.89,3.89,3.89
26.43,5.75,1.85,5.74,1.85,-1.85,-1.86,3.90,3.90,3.90
26.69,5.77,1.87,5.76,1.86,-1.86,-1.90,3.90,3.90,3.90
26.96,5.79,1.89,5.78,1.88,-1.88,-1.94,3.90,3.90,3.90
27.23,5.80,1.89,5.80,1.90,-1.90,-1.98,3.90,3.90,3.90
27.50,5.82,1.91,5.82,1.91,-1.91,-2.02,3.90,3.90,3.90
27.77,5.84,1.93,5.83,1.93,-1.93,-2.05,3.91,3.90,3.90
28.05,5.85,1.94,5.85,1.94,-1.94,-2.09,3.90,3.91,3.91
28.33,5.87,1.96,5.87,1.96,-1.96,-2.12,3.91,3.91,3.91
28.62,5.89,1.98,5.88,1.97,-1.97,-2.15,3.91,3.91,3.91
28.90,5.90,1.99,5.90,1.99,-1.99,-2.18,3.91,3.91,3.91
29.19,5.92,2.01,5.91,2.00,-2.00,-2.21,3.91,3.91,3.91
29.48,5.93,2.01,5.93,2.02,-2.02,-2.24,3.91,3.91,3.91
29.78,5.95,2.03,5.94,2.03,-2.03,-2.26,3.91,3.91,3.91
30.08,5.96,2.04,5.96,2.05,-2.05,-2.28,3.91,3.91,3.91
30.38,5.98,2.06,5.97,2.06,-2.06,-2.30,3.91,3.91,3.91
30.68,5.99,2.07,5.99,2.07,-2.07,-2.32,3.91,3.91,3.91
30.99,6.01,2.09,6.00,2.09,-2.09,-2.33,3.92,3.91,3.91
31.30,6.02,2.10,6.01,2.10,-2.10,-2.34,3.92,3.91,3.91
31.61,6.03,2.11,6.02,2.11,-2.11,-2.35,3.91,3.91,3.91
31.93,6.04,2.12,6.04,2.12,-2.12,-2.35,3.91,3.91,3.91
32.24,6.05,2.13,6.05,2.13,-2.13,-2.36,3.91,3.91,3.91
32.57,6.06,2.14,6.06,2.15,-2.15,-2.36,3.91,3.91,3.91
32.89,6.07,2.16,6.07,2.16,-2.16,-2.35,3.91,3.91,3.91
33.22,6.08,2.17,6.07,2.17,-2.17,-2.35,3.91,3.91,3.91
33.55,6.09,2.18,6.08,2.17,-2.17,-2.34,3.91,3.91,3.91
33.89,6.10,2.19,6.09,2.18,-2.18,-2.33,3.91,3.91,3.91
34.23,6.10,2.19,6.10,2.19,-2.19,-2.32,3.90,3.91,3.91
34.57,6.11,2.20,6.10,2.20,-2.20,-2.31,3.91,3.90,3.91
34.92,6.11,2.20,6.11,2.21,-2.21,-2.30,3.90,3.90,3.90
35.27,6.12,2.21,6.11,2.21,-2.21,-2.28,3.90,3.90,3.90
35.62,6.12,2.22,6.12,2.22,-2.22,-2.27,3.89,3.90,3.90
35.97,6.13,2.23,6.13,2.23,-2.23,-2.25,3.90,3.90,3.90
36.33,6.13,2.23,6.13,2.23,-2.23,-2.24,3.89,3.90,3.90
36.70,6.14,2.24,6.13,2.24,-2.24,-2.22,3.89,3.89,3.89
37.06,6.14,2.24,6.14,2.25,-2.25,-2.20,3.89,3.89,3.89
37.43,6.14,2.25,6.14,2.25,-2.25,-2.19,3.88,3.89,3.89
37.81,6.15,2.26,6.14,2.26,-2.26,-2.17,3.89,3.88,3.89
38.19,6.15,2.26,6.14,2.26,-2.26,-2.15,3.88,3.88,3.88
38.57,6.16,2.28,6.15,2.27,-2.27,-2.14,3.89,3.88,3.88
38.95,6.16,2.28,6.15,2.28,-2.28,-2.12,3.88,3.87,3.87
39.34,6.16,2.29,6.15,2.28,-2.28,-2.11,3.87,3.87,3.87
39.74,6.15,2.28,6.15,2.29,-2.29,-2.10,3.86,3.86,3.87
40.14,6.15,2.28,6.15,2.29,-2.29,-2.08,3.85,3.86,3.86
40.54,6.15,2.29,6.15,2.30,-2.30,-2.07,3.85,3.86,3.86
40.94,6.15,2.29,6.15,2.30,-2.30,-2.06,3.84,3.85,3.85
41.35,6.15,2.30,6.15,2.31,-2.31,-2.06,3.84,3.85,3.85
41.76,6.15,2.30,6.15,2.31,-2.31,-2.05,3.83,3.84,3.84
42.18,6.15,2.31,6.15,2.32,-2.32,-2.04,3.83,3.84,3.84
42.60,6.16,2.32,6.15,2.32,-2.32,-2.04,3.84,3.83,3.83
43.03,6.16,2.33,6.15,2.32,-2.32,-2.04,3.83,3.83,3.83
43.46,6.16,2.33,6.15,2.33,-2.33,-2.04,3.83,3.82,3.82
43.90,6.15,2.33,6.15,2.33,-2.33,-2.04,3.82,3.82,3.82
44.33,6.15,2.34,6.14,2.33,-2.33,-2.04,3.81,3.81,3.81
44.78,6.14,2.33,6.14,2.33,-2.33,-2.05,3.80,3.80,3.80
45.23,6.14,2.34,6.13,2.33,-2.33,-2.05,3.80,3.79,3.80
45.68,6.13,2.34,6.12,2.33,-2.33,-2.06,3.79,3.79,3.79
46.13,6.12,2.34,6.11,2.33,-2.33,-2.07,3.78,3.78,3.78
46.60,6.10,2.33,6.10,2.33,-2.33,-2.08,3.76,3.77,3.77
47.06,6.09,2.33,6.09,2.33,-2.33,-2.09,3.75,3.76,3.76
47.53,6.08,2.33,6.07,2.33,-2.33,-2.10,3.75,3.75,3.75
48.01,6.07,2.33,6.06,2.32,-2.32,-2.12,3.74,3.74,3.74
48.49,6.05,2.32,6.05,2.32,-2.32,-2.13,3.72,3.73,3.73
48.97,6.03,2.31,6.03,2.32,-2.32,-2.15,3.71,3.71,3.71
49.46,6.02,2.32,6.01,2.31,-2.31,-2.17,3.70,3.70,3.70
49.96,6.00,2.31,6.00,2.31,-2.31,-2.19,3.69,3.69,3.69
50.46,5.99,2.31,5.98,2.31,-2.31,-2.21,3.68,3.67,3.67
50.96,5.97,2.31,5.96,2.30,-2.30,-2.23,3.66,3.66,3.66
51.47,5.95,2.30,5.94,2.30,-2.30,-2.25,3.64,3.64,3.64
51.99,5.93,2.30,5.93,2.30,-2.30,-2.28,3.63,3.63,3.63
52.51,5.91,2.29,5.91,2.30,-2.30,-2.30,3.61,3.61,3.62
53.03,5.90,2.30,5.90,2.30,-2.30,-2.33,3.60,3.60,3.60
53.56,5.88,2.29,5.88,2.30,-2.30,-2.35,3.57,3.58,3.58
54.10,5.87,2.30,5.87,2.30,-2.30,-2.37,3.56,3.57,3.57
54.64,5.86,2.30,5.86,2.31,-2.31,-2.40,3.55,3.55,3.55
55.18,5.85,2.31,5.85,2.31,-2.31,-2.42,3.53,3.53,3.54
55.74,5.84,2.32,5.84,2.32,-2.32,-2.45,3.52,3.52,3.52
56.29,5.83,2.32,5.83,2.33,-2.33,-2.47,3.50,3.50,3.50
56.86,5.82,2.33,5.82,2.34,-2.34,-2.49,3.48,3.48,3.48
57.42,5.82,2.35,5.81,2.35,-2.35,-2.51,3.47,3.46,3.47
58.00,5.81,2.36,5.80,2.35,-2.35,-2.53,3.45,3.45,3.45
58.58,5.80,2.37,5.79,2.36,-2.36,-2.55,3.43,3.43,3.43
59.16,5.79,2.38,5.78,2.38,-2.38,-2.57,3.41,3.41,3.41
59.76,5.77,2.38,5.77,2.39,-2.39,-2.58,3.38,3.39,3.39
60.35,5.77,2.40,5.76,2.40,-2.40,-2.59,3.37,3.37,3.37
60.96,5.76,2.41,5.75,2.41,-2.41,-2.61,3.35,3.35,3.35
61.57,5.75,2.42,5.74,2.41,-2.41,-2.62,3.33,3.32,3.32
62.18,5.73,2.42,5.72,2.42,-2.42,-2.62,3.30,3.30,3.30
62.80,5.72,2.44,5.71,2.43,-2.43,-2.63,3.28,3.28,3.28
63.43,5.70,2.44,5.69,2.44,-2.44,-2.63,3.25,3.25,3.25
64.07,5.68,2.45,5.68,2.45,-2.45,-2.63,3.23,3.23,3.23
64.71,5.66,2.45,5.66,2.46,-2.46,-2.63,3.20,3.20,3.20
65.35,5.64,2.46,5.64,2.46,-2.46,-2.63,3.17,3.18,3.18
66.01,5.62,2.47,5.62,2.47,-2.47,-2.63,3.15,3.15,3.15
66.67,5.61,2.48,5.60,2.48,-2.48,-2.62,3.13,3.12,3.12
67.33,5.59,2.49,5.57,2.48,-2.48,-2.62,3.10,3.09,3.09
68.01,5.56,2.49,5.55,2.49,-2.49,-2.61,3.06,3.06,3.06
68.69,5.54,2.50,5.53,2.50,-2.50,-2.60,3.04,3.03,3.03
69.37,5.51,2.50,5.50,2.51,-2.51,-2.59,3.00,3.00,3.00
70.07,5.49,2.51,5.48,2.51,-2.51,-2.58,2.97,2.97,2.97
70.77,5.46,2.52,5.46,2.52,-2.52,-2.57,2.93,2.93,2.94
71.48,5.43,2.52,5.44,2.53,-2.53,-2.56,2.89,2.90,2.91
72.19,5.40,2.52,5.42,2.55,-2.55,-2.54,2.85,2.87,2.87
72.91,5.38,2.54,5.39,2.56,-2.56,-2.53,2.82,2.84,2.84
73.64,5.36,2.55,5.37,2.57,-2.57,-2.52,2.78,2.80,2.81
74.38,5.35,2.57,5.35,2.58,-2.58,-2.51,2.76,2.77,2.77
75.12,5.34,2.60,5.33,2.60,-2.60,-2.50,2.74,2.73,2.74
75.87,5.32,2.62,5.30,2.61,-2.61,-2.49,2.71,2.70,2.70
76.63,5.30,2.63,5.28,2.62,-2.62,-2.48,2.67,2.66,2.66
77.40,5.28,2.65,5.26,2.63,-2.63,-2.47,2.64,2.62,2.63
78.17,5.25,2.66,5.23,2.64,-2.64,-2.46,2.60,2.58,2.59
78.95,5.22,2.66,5.20,2.66,-2.66,-2.46,2.56,2.55,2.55
79.74,5.19,2.67,5.18,2.67,-2.67,-2.45,2.52,2.51,2.51
80.54,5.15,2.67,5.15,2.68,-2.68,-2.45,2.47,2.47,2.48
81.35,5.12,2.68,5.12,2.69,-2.69,-2.45,2.43,2.43,2.44
82.16,5.08,2.68,5.09,2.70,-2.70,-2.45,2.38,2.40,2.40
82.98,5.05,2.68,5.07,2.71,-2.71,-2.45,2.34,2.36,2.36
83.81,5.03,2.70,5.04,2.72,-2.72,-2.45,2.31,2.32,2.32
84.65,5.00,2.71,5.01,2.73,-2.73,-2.46,2.27,2.28,2.29
85.50,4.98,2.73,4.98,2.74,-2.74,-2.46,2.24,2.24,2.25
86.35,4.97,2.75,4.96,2.75,-2.75,-2.47,2.21,2.20,2.21
87.22,4.95,2.77,4.93,2.76,-2.76,-2.48,2.18,2.17,2.17
88.09,4.93,2.79,4.90,2.78,-2.78,-2.50,2.15,2.13,2.13
88.97,4.90,2.80,4.88,2.79,-2.79,-2.51,2.11,2.09,2.10
89.86,4.87,2.81,4.86,2.80,-2.80,-2.53,2.06,2.05,2.06
90.76,4.84,2.82,4.83,2.81,-2.81,-2.54,2.02,2.02,2.02
91.66,4.80,2.81,4.81,2.83,-2.83,-2.56,1.97,1.98,1.98
92.58,4.77,2.82,4.78,2.84,-2.84,-2.59,1.93,1.94,1.94
93.51,4.74,2.83,4.75,2.85,-2.85,-2.61,1.88,1.90,1.90
94.44,4.72,2.85,4.72,2.86,-2.86,-2.64,1.85,1.86,1.86
95.39,4.70,2.87,4.69,2.88,-2.88,-2.66,1.82,1.82,1.82
96.34,4.68,2.89,4.66,2.89,-2.89,-2.69,1.79,1.77,1.78
97.30,4.65,2.91,4.63,2.90,-2.90,-2.72,1.74,1.73,1.74
98.28,4.63,2.93,4.60,2.91,-2.91,-2.75,1.71,1.69,1.70
99.26,4.59,2.93,4.58,2.93,-2.93,-2.79,1.66,1.65,1.66
100.25,4.55,2.93,4.55,2.94,-2.94,-2.82,1.61,1.61,1.61
101.25,4.51,2.93,4.52,2.95,-2.95,-2.86,1.55,1.57,1.57
102.27,4.47,2.94,4.49,2.97,-2.97,-2.89,1.50,1.53,1.53
103.29,4.45,2.96,4.46,2.98,-2.98,-2.93,1.47,1.49,1.49
104.32,4.43,2.98,4.43,2.99,-2.99,-2.97,1.44,1.44,1.44
105.37,4.39,2.98,4.39,3.00,-3.00,-3.00,1.39,1.40,1.40
106.42,4.37,3.01,4.36,3.01,-3.01,-3.04,1.36,1.35,1.36
107.48,4.36,3.04,4.32,3.02,-3.02,-3.08,1.34,1.31,1.31
108.56,4.33,3.05,4.29,3.02,-3.02,-3.12,1.30,1.26,1.27
109.64,4.28,3.05,4.25,3.03,-3.03,-3.15,1.24,1.22,1.23
110.74,4.23,3.04,4.22,3.04,-3.04,-3.18,1.19,1.18,1.19
111.85,4.18,3.03,4.18,3.05,-3.05,-3.22,1.13,1.14,1.14
112.97,4.13,3.03,4.15,3.05,-3.05,-3.25,1.07,1.10,1.10
114.10,4.08,3.02,4.11,3.06,-3.06,-3.28,1.02,1.05,1.06
115.24,4.05,3.03,4.07,3.06,-3.06,-3.31,0.98,1.01,1.01
116.39,4.03,3.06,4.03,3.07,-3.07,-3.33,0.95,0.96,0.97
117.55,4.01,3.08,4.00,3.08,-3.08,-3.35,0.93,0.92,0.93
118.73,3.98,3.09,3.96,3.08,-3.08,-3.37,0.89,0.88,0.88
119.92,3.94,3.09,3.92,3.09,-3.09,-3.38,0.85,0.84,0.84
121.12,3.90,3.09,3.89,3.09,-3.09,-3.40,0.80,0.80,0.80
122.33,3.87,3.10,3.86,3.10,-3.10,-3.40,0.77,0.76,0.76
123.55,3.83,3.10,3.83,3.11,-3.11,-3.41,0.72,0.72,0.72
124.79,3.78,3.09,3.79,3.11,-3.11,-3.41,0.67,0.68,0.68
126.03,3.75,3.10,3.76,3.11,-3.11,-3.40,0.63,0.65,0.65
127.29,3.73,3.12,3.73,3.11,-3.11,-3.40,0.61,0.61,0.61
128.57,3.71,3.13,3.69,3.11,-3.11,-3.39,0.59,0.58,0.57
129.85,3.67,3.13,3.65,3.11,-3.11,-3.37,0.56,0.54,0.54
131.15,3.62,3.11,3.61,3.11,-3.11,-3.35,0.51,0.50,0.50
132.46,3.58,3.10,3.57,3.10,-3.10,-3.33,0.48,0.47,0.47
133.79,3.53,3.09,3.53,3.09,-3.09,-3.30,0.44,0.44,0.44
135.12,3.48,3.07,3.49,3.08,-3.08,-3.28,0.40,0.41,0.41
136.48,3.45,3.07,3.44,3.06,-3.06,-3.25,0.38,0.38,0.38
137.84,3.41,3.06,3.40,3.05,-3.05,-3.21,0.36,0.35,0.35
139.22,3.37,3.05,3.35,3.03,-3.03,-3.18,0.33,0.32,0.32
140.61,3.33,3.03,3.31,3.02,-3.02,-3.14,0.31,0.29,0.29
142.02,3.26,2.99,3.26,3.00,-3.00,-3.10,0.26,0.26,0.26
143.44,3.22,2.98,3.22,2.98,-2.98,-3.06,0.23,0.23,0.24
144.87,3.17,2.95,3.17,2.97,-2.97,-3.02,0.20,0.21,0.21
146.32,3.13,2.94,3.13,2.95,-2.95,-2.98,0.17,0.18,0.19
147.78,3.08,2.91,3.09,2.94,-2.94,-2.93,0.14,0.16,0.16
149.26,3.04,2.90,3.05,2.92,-2.92,-2.89,0.11,0.13,0.14
150.75,3.01,2.89,3.02,2.91,-2.91,-2.85,0.09,0.10,0.11
152.26,2.99,2.90,2.98,2.90,-2.90,-2.80,0.08,0.08,0.09
153.78,2.96,2.89,2.95,2.89,-2.89,-2.76,0.06,0.05,0.06
155.32,2.93,2.89,2.92,2.89,-2.89,-2.72,0.04,0.03,0.04
156.88,2.88,2.86,2.89,2.88,-2.88,-2.68,-0.00,0.01,0.01
158.44,2.85,2.86,2.86,2.87,-2.87,-2.64,-0.03,-0.02,-0.01
160.03,2.82,2.85,2.82,2.86,-2.86,-2.60,-0.05,-0.04,-0.04
161.63,2.80,2.86,2.79,2.85,-2.85,-2.57,-0.06,-0.06,-0.06
163.24,2.77,2.85,2.75,2.84,-2.84,-2.53,-0.08,-0.09,-0.09
164.88,2.73,2.84,2.72,2.83,-2.83,-2.50,-0.10,-0.11,-0.11
166.53,2.70,2.83,2.68,2.81,-2.81,-2.46,-0.12,-0.14,-0.14
168.19,2.66,2.82,2.63,2.79,-2.79,-2.43,-0.14,-0.16,-0.16
169.87,2.60,2.78,2.59,2.77,-2.77,-2.40,-0.18,-0.18,-0.18
171.57,2.55,2.75,2.54,2.75,-2.75,-2.37,-0.20,-0.20,-0.20
173.29,2.51,2.73,2.50,2.72,-2.72,-2.35,-0.21,-0.22,-0.22
175.02,2.43,2.67,2.45,2.69,-2.69,-2.32,-0.26,-0.24,-0.24
176.77,2.39,2.65,2.39,2.65,-2.65,-2.30,-0.27,-0.26,-0.26
178.54,2.33,2.60,2.34,2.62,-2.62,-2.28,-0.29,-0.28,-0.28
180.32,2.29,2.58,2.29,2.58,-2.58,-2.26,-0.30,-0.30,-0.29
182.13,2.25,2.55,2.23,2.54,-2.54,-2.24,-0.30,-0.31,-0.31
183.95,2.19,2.51,2.18,2.50,-2.50,-2.23,-0.32,-0.33,-0.32
185.79,2.14,2.47,2.13,2.46,-2.46,-2.21,-0.33,-0.34,-0.33
187.65,2.08,2.42,2.07,2.42,-2.42,-2.20,-0.35,-0.35,-0.35
189.52,2.02,2.37,2.03,2.39,-2.39,-2.19,-0.37,-0.36,-0.36
191.42,1.97,2.33,1.98,2.35,-2.35,-2.18,-0.38,-0.37,-0.37
193.33,1.92,2.29,1.93,2.31,-2.31,-2.18,-0.39,-0.38,-0.38
195.27,1.87,2.25,1.88,2.27,-2.27,-2.17,-0.40,-0.39,-0.39
197.22,1.84,2.23,1.83,2.23,-2.23,-2.16,-0.39,-0.40,-0.40
199.19,1.79,2.19,1.78,2.19,-2.19,-2.16,-0.40,-0.41,-0.40
201.18,1.75,2.16,1.73,2.15,-2.15,-2.16,-0.41,-0.42,-0.41
203.19,1.70,2.12,1.69,2.11,-2.11,-2.16,-0.42,-0.43,-0.42
205.23,1.66,2.09,1.64,2.08,-2.08,-2.16,-0.42,-0.44,-0.43
207.28,1.61,2.05,1.60,2.04,-2.04,-2.16,-0.44,-0.44,-0.44
209.35,1.57,2.02,1.56,2.01,-2.01,-2.16,-0.44,-0.45,-0.45
211.44,1.51,1.97,1.51,1.98,-1.98,-2.16,-0.47,-0.46,-0.46
213.56,1.47,1.94,1.47,1.95,-1.95,-2.16,-0.48,-0.47,-0.47
215.69,1.43,1.91,1.43,1.92,-1.92,-2.16,-0.49,-0.48,-0.48
217.85,1.39,1.88,1.40,1.89,-1.89,-2.17,-0.51,-0.49,-0.49
220.03,1.37,1.87,1.36,1.87,-1.87,-2.17,-0.50,-0.50,-0.50
222.23,1.35,1.85,1.34,1.85,-1.85,-2.17,-0.50,-0.51,-0.51
224.45,1.32,1.83,1.31,1.83,-1.83,-2.17,-0.52,-0.52,-0.52
226.70,1.29,1.81,1.29,1.82,-1.82,-2.17,-0.53,-0.53,-0.53
228.96,1.27,1.80,1.28,1.81,-1.81,-2.17,-0.55,-0.54,-0.53
231.25,1.25,1.79,1.26,1.81,-1.81,-2.17,-0.56,-0.54,-0.54
233.57,1.24,1.78,1.25,1.80,-1.80,-2.17,-0.57,-0.55,-0.55
235.90,1.24,1.79,1.25,1.80,-1.80,-2.16,-0.57,-0.55,-0.55
238.26,1.25,1.80,1.25,1.81,-1.81,-2.16,-0.56,-0.56,-0.56
240.64,1.26,1.82,1.25,1.81,-1.81,-2.15,-0.56,-0.56,-0.56
243.05,1.27,1.83,1.25,1.82,-1.82,-2.14,-0.55,-0.57,-0.56
245.48,1.27,1.83,1.26,1.83,-1.83,-2.13,-0.56,-0.57,-0.57
247.93,1.27,1.84,1.26,1.84,-1.84,-2.12,-0.57,-0.58,-0.57
250.41,1.27,1.84,1.27,1.85,-1.85,-2.10,-0.58,-0.58,-0.57
252.92,1.27,1.84,1.27,1.86,-1.86,-2.08,-0.59,-0.58,-0.58
255.45,1.27,1.85,1.28,1.86,-1.86,-2.07,-0.60,-0.59,-0.58
258.00,1.28,1.86,1.28,1.87,-1.87,-2.05,-0.59,-0.59,-0.59
260.58,1.29,1.88,1.28,1.87,-1.87,-2.02,-0.59,-0.59,-0.59
263.19,1.29,1.89,1.27,1.87,-1.87,-2.00,-0.59,-0.60,-0.60
265.82,1.28,1.88,1.26,1.87,-1.87,-1.97,-0.59,-0.61,-0.61
268.48,1.27,1.88,1.25,1.86,-1.86,-1.94,-0.59,-0.61,-0.61
271.16,1.26,1.88,1.23,1.85,-1.85,-1.91,-0.59,-0.62,-0.62
273.87,1.22,1.84,1.21,1.84,-1.84,-1.88,-0.62,-0.63,-0.63
276.61,1.19,1.82,1.18,1.82,-1.82,-1.85,-0.63,-0.64,-0.63
279.38,1.17,1.80,1.16,1.80,-1.80,-1.82,-0.63,-0.64,-0.64
282.17,1.14,1.78,1.13,1.78,-1.78,-1.78,-0.64,-0.65,-0.64
284.99,1.11,1.75,1.10,1.76,-1.76,-1.75,-0.65,-0.65,-0.65
287.84,1.06,1.71,1.07,1.73,-1.73,-1.71,-0.68,-0.66,-0.65
290.72,1.03,1.68,1.05,1.71,-1.71,-1.67,-0.68,-0.66,-0.65
293.63,1.00,1.65,1.02,1.69,-1.69,-1.64,-0.69,-0.66,-0.65
296.57,0.98,1.63,1.00,1.66,-1.66,-1.60,-0.69,-0.66,-0.65
299.53,0.97,1.62,0.98,1.64,-1.64,-1.56,-0.68,-0.66,-0.66
302.53,0.96,1.61,0.96,1.62,-1.62,-1.52,-0.66,-0.66,-0.65
305.55,0.94,1.59,0.94,1.60,-1.60,-1.49,-0.66,-0.66,-0.65
308.61,0.93,1.58,0.92,1.58,-1.58,-1.45,-0.65,-0.66,-0.65
311.69,0.92,1.57,0.90,1.56,-1.56,-1.41,-0.64,-0.66,-0.65
314.81,0.91,1.55,0.88,1.53,-1.53,-1.38,-0.63,-0.65,-0.65
317.96,0.89,1.53,0.86,1.51,-1.51,-1.34,-0.63,-0.65,-0.65
321.14,0.86,1.50,0.84,1.49,-1.49,-1.30,-0.63,-0.64,-0.64
324.35,0.83,1.47,0.82,1.46,-1.46,-1.27,-0.64,-0.64,-0.64
327.59,0.79,1.42,0.80,1.43,-1.43,-1.23,-0.65,-0.64,-0.64
330.87,0.77,1.40,0.77,1.41,-1.41,-1.20,-0.64,-0.64,-0.64
334.18,0.74,1.37,0.74,1.38,-1.38,-1.16,-0.64,-0.64,-0.63
337.52,0.71,1.34,0.71,1.35,-1.35,-1.13,-0.64,-0.63,-0.63
340.90,0.69,1.32,0.68,1.31,-1.31,-1.10,-0.63,-0.63,-0.63
344.30,0.66,1.28,0.65,1.28,-1.28,-1.06,-0.63,-0.63,-0.63
347.75,0.63,1.25,0.62,1.25,-1.25,-1.03,-0.62,-0.63,-0.63
351.23,0.59,1.21,0.59,1.21,-1.21,-1.00,-0.63,-0.62,-0.62
354.74,0.56,1.18,0.56,1.18,-1.18,-0.97,-0.62,-0.62,-0.62
358.28,0.53,1.14,0.53,1.15,-1.15,-0.94,-0.62,-0.62,-0.62
361.87,0.51,1.12,0.50,1.11,-1.11,-0.92,-0.61,-0.62,-0.62
365.49,0.48,1.09,0.47,1.08,-1.08,-0.89,-0.60,-0.61,-0.61
369.14,0.46,1.07,0.44,1.05,-1.05,-0.86,-0.59,-0.61,-0.61
372.83,0.42,1.02,0.41,1.02,-1.02,-0.83,-0.60,-0.61,-0.61
376.56,0.38,0.98,0.38,0.99,-0.99,-0.81,-0.61,-0.61,-0.60
380.33,0.36,0.96,0.36,0.96,-0.96,-0.78,-0.61,-0.60,-0.60
384.13,0.33,0.92,0.34,0.94,-0.94,-0.76,-0.61,-0.60,-0.60
387.97,0.31,0.90,0.32,0.91,-0.91,-0.74,-0.61,-0.60,-0.59
391.85,0.29,0.87,0.30,0.89,-0.89,-0.71,-0.61,-0.59,-0.59
395.77,0.27,0.85,0.29,0.88,-0.88,-0.69,-0.61,-0.59,-0.58
399.73,0.27,0.84,0.28,0.87,-0.87,-0.67,-0.60,-0.58,-0.58
403.72,0.28,0.85,0.28,0.86,-0.86,-0.65,-0.58,-0.58,-0.57
407.76,0.28,0.84,0.28,0.85,-0.85,-0.63,-0.57,-0.57,-0.56
411.84,0.29,0.84,0.28,0.84,-0.84,-0.61,-0.56,-0.57,-0.56
415.96,0.29,0.84,0.28,0.84,-0.84,-0.59,-0.56,-0.56,-0.55
420.12,0.29,0.83,0.29,0.84,-0.84,-0.57,-0.56,-0.55,-0.55
424.32,0.29,0.83,0.29,0.84,-0.84,-0.55,-0.56,-0.55,-0.54
428.56,0.30,0.84,0.30,0.84,-0.84,-0.54,-0.55,-0.54,-0.54
432.85,0.30,0.83,0.30,0.84,-0.84,-0.52,-0.54,-0.54,-0.54
437.18,0.31,0.84,0.30,0.84,-0.84,-0.50,-0.53,-0.54,-0.54
441.55,0.32,0.85,0.29,0.83,-0.83,-0.49,-0.51,-0.53,-0.54
445.96,0.31,0.84,0.29,0.82,-0.82,-0.47,-0.51,-0.53,-0.54
450.42,0.30,0.83,0.27,0.81,-0.81,-0.46,-0.51,-0.53,-0.54
454.93,0.28,0.81,0.26,0.79,-0.79,-0.45,-0.51,-0.53,-0.53
459.48,0.25,0.78,0.24,0.77,-0.77,-0.44,-0.52,-0.53,-0.53
464.07,0.23,0.76,0.21,0.74,-0.74,-0.42,-0.52,-0.53,-0.53
468.71,0.20,0.73,0.19,0.71,-0.71,-0.41,-0.52,-0.53,-0.53
473.40,0.16,0.68,0.16,0.68,-0.68,-0.40,-0.53,-0.52,-0.53
478.13,0.13,0.65,0.13,0.65,-0.65,-0.39,-0.53,-0.52,-0.52
482.91,0.10,0.62,0.10,0.62,-0.62,-0.38,-0.52,-0.52,-0.52
487.74,0.07,0.58,0.07,0.59,-0.59,-0.37,-0.52,-0.52,-0.51
492.62,0.04,0.54,0.04,0.56,-0.56,-0.37,-0.52,-0.52,-0.51
497.55,0.01,0.50,0.02,0.53,-0.53,-0.36,-0.52,-0.51,-0.50
502.52,-0.01,0.48,-0.00,0.50,-0.50,-0.35,-0.51,-0.50,-0.49
507.55,-0.03,0.44,-0.02,0.48,-0.48,-0.35,-0.51,-0.50,-0.48
512.62,-0.05,0.41,-0.03,0.46,-0.46,-0.34,-0.51,-0.49,-0.47
517.75,-0.06,0.39,-0.03,0.44,-0.44,-0.34,-0.51,-0.48,-0.46
522.93,-0.05,0.39,-0.04,0.43,-0.43,-0.33,-0.48,-0.47,-0.45
528.16,-0.04,0.40,-0.04,0.42,-0.42,-0.33,-0.46,-0.45,-0.44
533.44,-0.03,0.40,-0.04,0.41,-0.41,-0.33,-0.44,-0.44,-0.43
538.77,-0.03,0.39,-0.03,0.40,-0.40,-0.32,-0.43,-0.43,-0.42
544.16,-0.02,0.39,-0.03,0.38,-0.38,-0.32,-0.41,-0.42,-0.42
549.60,-0.01,0.39,-0.03,0.37,-0.37,-0.32,-0.38,-0.40,-0.41
555.10,-0.01,0.38,-0.03,0.35,-0.35,-0.32,-0.37,-0.39,-0.39
560.65,-0.01,0.37,-0.04,0.33,-0.33,-0.32,-0.35,-0.37,-0.38
566.25,-0.02,0.34,-0.05,0.31,-0.31,-0.32,-0.33,-0.36,-0.37
571.92,-0.05,0.30,-0.06,0.28,-0.28,-0.32,-0.33,-0.34,-0.35
577.64,-0.07,0.27,-0.08,0.25,-0.25,-0.32,-0.32,-0.33,-0.34
583.41,-0.09,0.23,-0.11,0.21,-0.21,-0.33,-0.31,-0.32,-0.33
589.25,-0.12,0.19,-0.13,0.18,-0.18,-0.33,-0.30,-0.31,-0.31
595.14,-0.15,0.14,-0.16,0.14,-0.14,-0.33,-0.29,-0.30,-0.30
601.09,-0.19,0.09,-0.19,0.10,-0.10,-0.33,-0.30,-0.30,-0.29
607.10,-0.23,0.04,-0.23,0.06,-0.06,-0.34,-0.30,-0.29,-0.28
613.17,-0.25,0.01,-0.26,0.03,-0.03,-0.34,-0.28,-0.28,-0.27
619.30,-0.29,-0.04,-0.28,-0.01,0.01,-0.35,-0.29,-0.28,-0.26
625.50,-0.32,-0.07,-0.31,-0.04,0.04,-0.35,-0.29,-0.27,-0.25
631.75,-0.34,-0.10,-0.33,-0.06,0.06,-0.36,-0.28,-0.27,-0.25
638.07,-0.36,-0.12,-0.34,-0.08,0.08,-0.36,-0.28,-0.26,-0.25
644.45,-0.38,-0.14,-0.36,-0.10,0.10,-0.37,-0.29,-0.26,-0.25
650.89,-0.38,-0.14,-0.37,-0.11,0.11,-0.37,-0.28,-0.26,-0.25
657.40,-0.37,-0.12,-0.37,-0.12,0.12,-0.38,-0.26,-0.26,-0.25
663.98,-0.37,-0.12,-0.38,-0.12,0.12,-0.39,-0.25,-0.26,-0.25
670.62,-0.36,-0.11,-0.38,-0.12,0.12,-0.39,-0.24,-0.26,-0.26
677.32,-0.36,-0.11,-0.38,-0.12,0.12,-0.40,-0.24,-0.25,-0.26
684.10,-0.36,-0.11,-0.37,-0.12,0.12,-0.41,-0.24,-0.25,-0.26
690.94,-0.36,-0.11,-0.37,-0.12,0.12,-0.42,-0.24,-0.25,-0.26
697.85,-0.36,-0.11,-0.37,-0.12,0.12,-0.42,-0.24,-0.25,-0.26
704.83,-0.36,-0.11,-0.37,-0.12,0.12,-0.43,-0.24,-0.25,-0.25
711.87,-0.36,-0.11,-0.37,-0.12,0.12,-0.44,-0.24,-0.25,-0.25
718.99,-0.36,-0.12,-0.37,-0.12,0.12,-0.45,-0.24,-0.25,-0.25
