frequency,raw,error,smoothed,error_smoothed,equalization,parametric_eq,fixed_band_eq,equalized_raw,equalized_smoothed,target
20.00,8.20,3.71,8.20,3.71,-3.75,-2.47,-1.23,4.45,4.45,4.49
20.20,8.20,3.67,8.21,3.68,-3.69,-2.55,-1.27,4.51,4.51,4.53
20.40,8.20,3.64,8.21,3.65,-3.64,-2.64,-1.31,4.57,4.57,4.56
20.61,8.20,3.61,8.21,3.61,-3.59,-2.73,-1.35,4.62,4.62,4.59
20.81,8.20,3.57,8.21,3.58,-3.54,-2.82,-1.39,4.67,4.67,4.63
21.02,8.20,3.53,8.19,3.53,-3.49,-2.90,-1.44,4.72,4.70,4.67
21.23,8.15,3.47,8.16,3.47,-3.44,-2.98,-1.48,4.71,4.71,4.68
21.44,8.10,3.40,8.11,3.40,-3.40,-3.07,-1.53,4.70,4.71,4.70
21.66,8.05,3.34,8.05,3.33,-3.35,-3.14,-1.57,4.71,4.70,4.72
21.87,8.00,3.27,8.01,3.28,-3.30,-3.22,-1.62,4.70,4.71,4.73
22.09,7.97,3.23,7.98,3.24,-3.26,-3.28,-1.67,4.71,4.72,4.75
22.31,7.97,3.23,7.97,3.22,-3.24,-3.34,-1.73,4.74,4.74,4.75
22.54,7.97,3.22,7.97,3.21,-3.22,-3.39,-1.78,4.76,4.76,4.76
22.76,7.97,3.21,7.97,3.21,-3.20,-3.44,-1.83,4.77,4.77,4.77
22.99,7.97,3.21,7.97,3.20,-3.20,-3.47,-1.89,4.78,4.78,4.77
23.22,7.97,3.20,7.97,3.20,-3.19,-3.50,-1.95,4.78,4.78,4.78
23.45,7.97,3.19,7.98,3.19,-3.18,-3.51,-2.00,4.79,4.80,4.79
23.69,7.97,3.18,7.98,3.18,-3.16,-3.51,-2.06,4.81,4.81,4.80
23.92,7.97,3.17,7.96,3.16,-3.14,-3.51,-2.12,4.84,4.83,4.81
24.16,7.94,3.13,7.94,3.12,-3.11,-3.49,-2.19,4.84,4.83,4.82
24.40,7.89,3.07,7.90,3.08,-3.08,-3.46,-2.25,4.82,4.82,4.82
24.65,7.85,3.04,7.85,3.03,-3.04,-3.42,-2.31,4.81,4.81,4.81
24.89,7.80,2.99,7.81,2.99,-3.01,-3.37,-2.37,4.79,4.80,4.81
25.14,7.77,2.96,7.78,2.97,-2.98,-3.32,-2.44,4.79,4.80,4.81
25.39,7.76,2.95,7.76,2.95,-2.96,-3.25,-2.50,4.80,4.80,4.81
25.65,7.75,2.94,7.75,2.94,-2.95,-3.18,-2.56,4.80,4.80,4.81
25.91,7.74,2.94,7.75,2.94,-2.95,-3.11,-2.63,4.80,4.80,4.80
26.16,7.74,2.93,7.74,2.93,-2.94,-3.03,-2.69,4.81,4.81,4.81
26.43,7.74,2.93,7.75,2.94,-2.93,-2.94,-2.75,4.82,4.82,4.81
26.69,7.74,2.93,7.75,2.94,-2.91,-2.86,-2.81,4.84,4.84,4.81
26.96,7.74,2.93,7.73,2.92,-2.88,-2.77,-2.87,4.86,4.85,4.81
27.23,7.69,2.89,7.69,2.88,-2.86,-2.68,-2.93,4.84,4.83,4.81
27.50,7.62,2.82,7.63,2.82,-2.83,-2.59,-2.98,4.79,4.79,4.81
27.77,7.56,2.77,7.57,2.77,-2.81,-2.50,-3.03,4.76,4.76,4.80
28.05,7.51,2.72,7.53,2.73,-2.78,-2.41,-3.08,4.74,4.75,4.80
28.33,7.51,2.73,7.51,2.72,-2.74,-2.32,-3.12,4.77,4.78,4.79
28.62,7.51,2.72,7.51,2.72,-2.70,-2.23,-3.16,4.81,4.81,4.79
28.90,7.51,2.72,7.50,2.71,-2.67,-2.15,-3.20,4.85,4.84,4.79
29.19,7.47,2.69,7.46,2.67,-2.64,-2.06,-3.23,4.84,4.83,4.78
29.48,7.40,2.61,7.40,2.61,-2.61,-1.98,-3.25,4.79,4.79,4.79
29.78,7.33,2.54,7.34,2.55,-2.59,-1.91,-3.27,4.75,4.75,4.79
30.08,7.28,2.49,7.30,2.51,-2.56,-1.83,-3.29,4.72,4.74,4.79
30.38,7.28,2.50,7.29,2.50,-2.53,-1.76,-3.29,4.75,4.76,4.78
30.68,7.28,2.51,7.28,2.51,-2.49,-1.69,-3.29,4.79,4.79,4.78
30.99,7.28,2.52,7.26,2.49,-2.45,-1.62,-3.29,4.83,4.81,4.77
31.30,7.21,2.45,7.22,2.45,-2.41,-1.55,-3.28,4.80,4.81,4.77
31.61,7.15,2.39,7.16,2.40,-2.37,-1.49,-3.26,4.78,4.79,4.76
31.93,7.08,2.33,7.08,2.33,-2.33,-1.43,-3.23,4.76,4.76,4.75
32.24,7.01,2.27,7.01,2.26,-2.28,-1.37,-3.20,4.73,4.73,4.74
32.57,6.94,2.20,6.94,2.20,-2.23,-1.32,-3.16,4.71,4.71,4.74
32.89,6.87,2.13,6.89,2.15,-2.19,-1.26,-3.11,4.68,4.70,4.74
33.22,6.85,2.12,6.86,2.12,-2.14,-1.21,-3.06,4.71,4.71,4.74
33.55,6.84,2.11,6.84,2.11,-2.10,-1.16,-3.00,4.74,4.74,4.74
33.89,6.83,2.10,6.82,2.09,-2.05,-1.11,-2.94,4.78,4.77,4.73
34.23,6.78,2.05,6.78,2.05,-2.00,-1.07,-2.87,4.78,4.77,4.73
34.57,6.70,1.98,6.71,1.98,-1.95,-1.03,-2.80,4.75,4.76,4.72
34.92,6.62,1.91,6.63,1.91,-1.90,-0.98,-2.72,4.72,4.73,4.72
35.27,6.54,1.83,6.54,1.83,-1.85,-0.94,-2.64,4.70,4.69,4.72
35.62,6.46,1.76,6.46,1.75,-1.79,-0.90,-2.55,4.67,4.67,4.71
35.97,6.38,1.68,6.40,1.70,-1.74,-0.87,-2.46,4.65,4.66,4.70
36.33,6.36,1.66,6.37,1.67,-1.68,-0.83,-2.37,4.68,4.69,4.70
36.70,6.35,1.66,6.34,1.65,-1.63,-0.79,-2.28,4.72,4.71,4.70
37.06,6.32,1.64,6.31,1.62,-1.58,-0.76,-2.18,4.74,4.72,4.69
37.43,6.23,1.55,6.24,1.56,-1.53,-0.73,-2.08,4.70,4.71,4.68
37.81,6.15,1.47,6.16,1.48,-1.48,-0.70,-1.98,4.68,4.68,4.68
38.19,6.07,1.41,6.08,1.41,-1.42,-0.66,-1.88,4.66,4.66,4.67
38.57,6.00,1.34,6.00,1.34,-1.35,-0.63,-1.78,4.66,4.66,4.67
38.95,5.93,1.27,5.93,1.27,-1.27,-0.60,-1.67,4.67,4.66,4.66
39.34,5.84,1.19,5.84,1.19,-1.18,-0.57,-1.57,4.66,4.66,4.65
39.74,5.75,1.12,5.76,1.11,-1.09,-0.55,-1.46,4.66,4.66,4.64
40.14,5.66,1.02,5.66,1.02,-1.02,-0.52,-1.35,4.65,4.65,4.64
40.54,5.57,0.93,5.57,0.93,-0.95,-0.49,-1.25,4.63,4.63,4.64
40.94,5.47,0.84,5.48,0.85,-0.88,-0.46,-1.14,4.59,4.60,4.64
41.35,5.40,0.78,5.40,0.77,-0.81,-0.43,-1.03,4.59,4.58,4.62
41.76,5.32,0.71,5.33,0.72,-0.74,-0.41,-0.93,4.58,4.58,4.61
42.18,5.27,0.68,5.30,0.71,-0.68,-0.38,-0.82,4.60,4.62,4.60
42.60,5.25,0.68,5.25,0.68,-0.62,-0.35,-0.71,4.64,4.64,4.57
43.03,5.22,0.67,5.16,0.61,-0.56,-0.32,-0.61,4.66,4.60,4.56
43.46,5.02,0.49,5.02,0.50,-0.51,-0.29,-0.50,4.52,4.52,4.53
43.90,4.84,0.35,4.89,0.40,-0.45,-0.27,-0.39,4.38,4.44,4.49
44.33,4.78,0.32,4.80,0.34,-0.39,-0.24,-0.29,4.39,4.41,4.46
44.78,4.78,0.35,4.75,0.32,-0.33,-0.20,-0.18,4.46,4.42,4.43
45.23,4.71,0.31,4.69,0.29,-0.26,-0.17,-0.07,4.46,4.43,4.40
45.68,4.58,0.21,4.59,0.21,-0.19,-0.14,0.03,4.39,4.40,4.38
46.13,4.46,0.10,4.48,0.12,-0.12,-0.11,0.14,4.35,4.37,4.36
46.60,4.38,0.03,4.38,0.03,-0.03,-0.07,0.25,4.35,4.35,4.36
47.06,4.30,-0.04,4.29,-0.05,0.07,-0.03,0.35,4.37,4.36,4.34
47.53,4.18,-0.15,4.18,-0.16,0.19,0.01,0.46,4.37,4.37,4.34
48.01,4.05,-0.28,4.05,-0.28,0.32,0.05,0.56,4.37,4.37,4.34
48.49,3.89,-0.44,3.90,-0.43,0.44,0.09,0.66,4.33,4.34,4.33
48.97,3.74,-0.58,3.73,-0.59,0.56,0.14,0.77,4.30,4.29,4.33
49.46,3.58,-0.74,3.58,-0.74,0.68,0.19,0.87,4.26,4.26,4.32
49.96,3.42,-0.90,3.47,-0.85,0.80,0.25,0.97,4.23,4.28,4.32
50.46,3.39,-0.94,3.39,-0.94,0.93,0.31,1.07,4.32,4.33,4.33
50.96,3.36,-0.98,3.33,-1.01,1.06,0.37,1.17,4.42,4.38,4.35
51.47,3.23,-1.10,3.23,-1.10,1.17,0.44,1.27,4.41,4.41,4.34
51.99,3.09,-1.24,3.08,-1.25,1.29,0.52,1.36,4.37,4.37,4.33
52.51,2.91,-1.41,2.91,-1.41,1.40,0.60,1.45,4.31,4.31,4.32
53.03,2.72,-1.58,2.75,-1.55,1.51,0.69,1.54,4.24,4.26,4.30
53.56,2.60,-1.67,2.60,-1.67,1.63,0.79,1.63,4.23,4.23,4.27
54.10,2.48,-1.75,2.48,-1.76,1.74,0.90,1.71,4.22,4.21,4.23
54.64,2.35,-1.84,2.36,-1.83,1.84,1.01,1.79,4.19,4.20,4.19
55.18,2.23,-1.92,2.23,-1.92,1.94,1.14,1.87,4.17,4.17,4.15
55.74,2.10,-2.00,2.10,-2.00,2.02,1.27,1.94,4.12,4.12,4.10
56.29,1.97,-2.09,1.98,-2.08,2.09,1.41,2.00,4.07,4.07,4.06
56.86,1.84,-2.16,1.85,-2.16,2.17,1.56,2.06,4.01,4.01,4.01
57.42,1.72,-2.22,1.72,-2.23,2.23,1.71,2.11,3.96,3.95,3.95
58.00,1.59,-2.30,1.58,-2.31,2.30,1.87,2.16,3.89,3.88,3.89
58.58,1.46,-2.38,1.48,-2.37,2.35,2.03,2.19,3.81,3.82,3.84
59.16,1.36,-2.43,1.40,-2.39,2.38,2.18,2.22,3.75,3.78,3.80
59.76,1.36,-2.38,1.32,-2.42,2.40,2.31,2.24,3.77,3.73,3.74
60.35,1.28,-2.40,1.25,-2.43,2.42,2.43,2.26,3.70,3.67,3.68
60.96,1.14,-2.49,1.19,-2.44,2.42,2.52,2.26,3.57,3.62,3.64
61.57,1.13,-2.44,1.15,-2.43,2.43,2.58,2.25,3.56,3.57,3.57
62.18,1.13,-2.38,1.13,-2.39,2.43,2.59,2.24,3.57,3.56,3.51
62.80,1.13,-2.35,1.09,-2.38,2.44,2.57,2.21,3.57,3.53,3.48
63.43,1.03,-2.40,1.02,-2.41,2.44,2.50,2.18,3.47,3.46,3.43
64.07,0.90,-2.49,0.95,-2.44,2.44,2.40,2.14,3.34,3.39,3.40
64.71,0.90,-2.45,0.90,-2.46,2.43,2.27,2.08,3.33,3.33,3.36
65.35,0.90,-2.42,0.88,-2.44,2.40,2.11,2.02,3.31,3.29,3.32
66.01,0.90,-2.39,0.89,-2.40,2.37,1.94,1.95,3.27,3.26,3.29
66.67,0.90,-2.36,0.94,-2.33,2.32,1.76,1.87,3.23,3.26,3.26
67.33,0.98,-2.26,1.00,-2.24,2.25,1.57,1.79,3.24,3.25,3.24
68.01,1.13,-2.09,1.08,-2.14,2.15,1.38,1.69,3.29,3.23,3.22
68.69,1.15,-2.05,1.17,-2.03,2.04,1.20,1.59,3.19,3.21,3.20
69.37,1.24,-1.94,1.27,-1.92,1.90,1.03,1.48,3.15,3.17,3.18
70.07,1.38,-1.78,1.38,-1.78,1.76,0.86,1.37,3.14,3.14,3.16
70.77,1.54,-1.61,1.54,-1.61,1.61,0.70,1.24,3.15,3.15,3.16
71.48,1.70,-1.43,1.70,-1.43,1.45,0.55,1.12,3.16,3.15,3.13
72.19,1.86,-1.26,1.87,-1.25,1.28,0.40,0.99,3.15,3.15,3.12
72.91,2.02,-1.07,2.03,-1.07,1.10,0.27,0.85,3.12,3.13,3.10
73.64,2.19,-0.89,2.17,-0.91,0.90,0.14,0.71,3.09,3.07,3.08
74.38,2.33,-0.73,2.33,-0.73,0.68,0.02,0.57,3.02,3.02,3.07
75.12,2.48,-0.55,2.52,-0.52,0.46,-0.10,0.42,2.95,2.99,3.04
75.87,2.76,-0.27,2.75,-0.28,0.25,-0.21,0.27,3.00,2.99,3.02
76.63,3.01,0.01,3.01,0.01,0.02,-0.32,0.12,3.04,3.04,3.01
77.40,3.27,0.28,3.26,0.27,-0.21,-0.42,-0.04,3.06,3.05,3.00
78.17,3.50,0.53,3.47,0.48,-0.44,-0.53,-0.20,3.06,3.02,2.98
78.95,3.64,0.65,3.67,0.69,-0.68,-0.63,-0.36,2.95,2.98,2.98
79.74,3.85,0.86,3.86,0.89,-0.92,-0.72,-0.52,2.93,2.95,2.98
80.54,4.09,1.12,4.06,1.09,-1.14,-0.82,-0.68,2.96,2.92,2.97
81.35,4.31,1.34,4.32,1.35,-1.35,-0.92,-0.85,2.96,2.97,2.97
82.16,4.52,1.55,4.57,1.59,-1.56,-1.02,-1.02,2.96,3.01,2.98
82.98,4.87,1.88,4.79,1.80,-1.77,-1.12,-1.19,3.10,3.02,3.00
83.81,4.98,1.98,5.01,2.00,-2.00,-1.23,-1.36,2.99,3.01,3.00
84.65,5.18,2.17,5.22,2.20,-2.22,-1.33,-1.53,2.96,3.00,3.01
85.50,5.43,2.39,5.41,2.37,-2.44,-1.44,-1.70,2.99,2.97,3.04
86.35,5.66,2.61,5.67,2.62,-2.64,-1.55,-1.88,3.02,3.02,3.05
87.22,5.88,2.81,5.92,2.85,-2.83,-1.67,-2.06,3.05,3.09,3.07
88.09,6.21,3.13,6.17,3.07,-3.02,-1.79,-2.23,3.20,3.15,3.08
88.97,6.36,3.24,6.36,3.25,-3.19,-1.92,-2.42,3.17,3.17,3.12
89.86,6.53,3.40,6.52,3.39,-3.36,-2.06,-2.60,3.18,3.17,3.13
90.76,6.61,3.48,6.63,3.49,-3.51,-2.20,-2.78,3.10,3.12,3.14
91.66,6.76,3.60,6.77,3.62,-3.65,-2.35,-2.97,3.12,3.12,3.16
92.58,6.91,3.76,6.93,3.76,-3.78,-2.52,-3.15,3.13,3.15,3.15
93.51,7.10,3.93,7.09,3.92,-3.91,-2.69,-3.34,3.19,3.18,3.18
94.44,7.27,4.09,7.25,4.08,-4.06,-2.87,-3.53,3.21,3.19,3.18
95.39,7.38,4.20,7.40,4.22,-4.23,-3.07,-3.72,3.15,3.17,3.18
96.34,7.55,4.39,7.53,4.36,-4.41,-3.28,-3.91,3.14,3.12,3.16
97.30,7.68,4.52,7.71,4.55,-4.60,-3.50,-4.11,3.08,3.11,3.16
98.28,7.90,4.75,7.95,4.79,-4.79,-3.74,-4.30,3.11,3.15,3.16
99.26,8.21,5.07,8.17,5.02,-4.99,-3.99,-4.50,3.22,3.18,3.15
100.25,8.43,5.30,8.38,5.25,-5.20,-4.26,-4.69,3.24,3.19,3.14
101.25,8.50,5.39,8.55,5.43,-5.40,-4.54,-4.89,3.10,3.15,3.12
102.27,8.69,5.59,8.68,5.59,-5.61,-4.84,-5.09,3.09,3.08,3.10
103.29,8.84,5.77,8.85,5.78,-5.81,-5.15,-5.28,3.04,3.05,3.07
104.32,9.02,5.97,9.05,6.00,-6.00,-5.46,-5.48,3.02,3.04,3.05
105.37,9.25,6.23,9.20,6.18,-6.19,-5.78,-5.67,3.06,3.01,3.02
106.42,9.33,6.35,9.34,6.36,-6.37,-6.09,-5.87,2.97,2.97,2.98
107.48,9.43,6.50,9.46,6.53,-6.54,-6.39,-6.06,2.90,2.92,2.93
108.56,9.55,6.68,9.57,6.70,-6.69,-6.67,-6.24,2.86,2.88,2.87
109.64,9.71,6.89,9.69,6.86,-6.84,-6.92,-6.43,2.88,2.85,2.82
110.74,9.79,7.02,9.77,7.00,-6.96,-7.12,-6.60,2.83,2.81,2.78
111.85,9.79,7.07,9.81,7.08,-7.07,-7.26,-6.77,2.72,2.73,2.73
112.97,9.79,7.14,9.80,7.14,-7.17,-7.35,-6.94,2.63,2.64,2.66
114.10,9.79,7.18,9.79,7.19,-7.23,-7.37,-7.09,2.56,2.56,2.61
115.24,9.79,7.24,9.81,7.26,-7.28,-7.33,-7.24,2.51,2.53,2.55
116.39,9.79,7.30,9.79,7.29,-7.30,-7.24,-7.37,2.50,2.49,2.49
117.55,9.78,7.34,9.75,7.31,-7.28,-7.10,-7.49,2.51,2.47,2.45
118.73,9.62,7.23,9.66,7.26,-7.22,-6.94,-7.60,2.40,2.43,2.40
119.92,9.55,7.18,9.53,7.16,-7.13,-6.75,-7.70,2.42,2.40,2.37
121.12,9.33,7.00,9.37,7.04,-7.00,-6.55,-7.78,2.34,2.37,2.33
122.33,9.19,6.89,9.19,6.87,-6.83,-6.35,-7.84,2.37,2.36,2.31
123.55,8.95,6.65,8.91,6.62,-6.62,-6.16,-7.89,2.33,2.30,2.30
124.79,8.59,6.31,8.58,6.30,-6.38,-5.97,-7.92,2.20,2.20,2.28
126.03,8.18,5.92,8.19,5.93,-6.10,-5.80,-7.94,2.09,2.09,2.26
127.29,7.79,5.55,7.82,5.58,-5.79,-5.65,-7.93,2.00,2.02,2.25
128.57,7.48,5.26,7.50,5.28,-5.50,-5.51,-7.92,1.98,2.00,2.22
129.85,7.25,5.04,7.21,5.00,-5.25,-5.39,-7.88,2.00,1.96,2.21
131.15,6.99,4.80,6.96,4.77,-5.06,-5.29,-7.83,1.93,1.90,2.20
132.46,6.73,4.56,6.80,4.62,-4.95,-5.21,-7.77,1.78,1.84,2.17
133.79,6.75,4.59,6.78,4.63,-4.93,-5.14,-7.69,1.83,1.86,2.16
135.12,6.93,4.80,6.94,4.80,-4.99,-5.09,-7.61,1.94,1.95,2.13
136.48,7.24,5.12,7.21,5.10,-5.14,-5.06,-7.51,2.10,2.07,2.12
137.84,7.52,5.42,7.51,5.42,-5.37,-5.05,-7.40,2.15,2.13,2.10
139.22,7.78,5.72,7.79,5.73,-5.66,-5.04,-7.28,2.12,2.13,2.06
140.61,8.05,6.02,8.05,6.01,-5.98,-5.06,-7.16,2.08,2.07,2.03
142.02,8.31,6.29,8.34,6.32,-6.28,-5.08,-7.02,2.03,2.05,2.02
143.44,8.57,6.58,8.60,6.60,-6.55,-5.12,-6.89,2.02,2.04,1.99
144.87,8.84,6.88,8.79,6.82,-6.74,-5.17,-6.75,2.10,2.04,1.97
146.32,8.87,6.94,8.87,6.94,-6.86,-5.23,-6.61,2.02,2.02,1.93
147.78,8.83,6.93,8.84,6.94,-6.90,-5.29,-6.46,1.93,1.93,1.90
149.26,8.71,6.87,8.73,6.88,-6.87,-5.37,-6.32,1.84,1.86,1.85
150.75,8.55,6.77,8.60,6.81,-6.78,-5.46,-6.17,1.77,1.82,1.78
152.26,8.43,6.70,8.39,6.67,-6.59,-5.55,-6.03,1.84,1.80,1.73
153.78,8.11,6.45,8.07,6.41,-6.35,-5.64,-5.88,1.76,1.72,1.66
155.32,7.63,6.05,7.63,6.04,-6.09,-5.74,-5.73,1.55,1.54,1.58
156.88,7.09,5.57,7.11,5.59,-5.85,-5.85,-5.59,1.24,1.26,1.52
158.44,6.62,5.17,6.59,5.14,-5.65,-5.95,-5.45,0.98,0.95,1.46
160.03,6.20,4.81,6.22,4.83,-5.51,-6.05,-5.31,0.69,0.71,1.40
161.63,6.00,4.66,6.08,4.74,-5.46,-6.15,-5.17,0.54,0.62,1.34
163.24,6.17,4.87,6.19,4.88,-5.50,-6.25,-5.04,0.68,0.69,1.30
164.88,6.51,5.24,6.50,5.22,-5.61,-6.34,-4.91,0.91,0.89,1.27
166.53,6.91,5.67,6.90,5.65,-5.77,-6.42,-4.78,1.14,1.13,1.25
168.19,7.26,6.04,7.26,6.03,-5.96,-6.48,-4.65,1.31,1.30,1.23
169.87,7.55,6.34,7.53,6.31,-6.14,-6.54,-4.53,1.41,1.39,1.22
171.57,7.70,6.48,7.69,6.46,-6.30,-6.58,-4.41,1.40,1.39,1.22
173.29,7.74,6.51,7.77,6.53,-6.41,-6.60,-4.30,1.33,1.36,1.23
175.02,7.74,6.49,7.75,6.50,-6.46,-6.60,-4.18,1.29,1.30,1.26
176.77,7.74,6.48,7.69,6.42,-6.45,-6.59,-4.07,1.29,1.23,1.26
178.54,7.56,6.29,7.61,6.33,-6.42,-6.55,-3.97,1.14,1.18,1.28
180.32,7.51,6.22,7.54,6.25,-6.36,-6.50,-3.86,1.15,1.18,1.29
182.13,7.51,6.21,7.51,6.21,-6.28,-6.42,-3.76,1.23,1.23,1.31
183.95,7.51,6.20,7.52,6.21,-6.19,-6.33,-3.66,1.32,1.33,1.31
185.79,7.51,6.21,7.46,6.15,-6.09,-6.21,-3.57,1.42,1.37,1.31
187.65,7.35,6.06,7.34,6.05,-5.98,-6.08,-3.48,1.38,1.37,1.29
189.52,7.12,5.84,7.18,5.90,-5.85,-5.94,-3.39,1.27,1.33,1.28
191.42,7.00,5.73,6.97,5.70,-5.70,-5.78,-3.30,1.30,1.27,1.27
193.33,6.80,5.55,6.78,5.52,-5.54,-5.61,-3.21,1.26,1.24,1.26
195.27,6.54,5.29,6.59,5.35,-5.36,-5.43,-3.13,1.18,1.23,1.26
197.22,6.40,5.16,6.39,5.15,-5.18,-5.25,-3.05,1.22,1.21,1.24
199.19,6.23,5.02,6.20,4.98,-5.01,-5.05,-2.98,1.22,1.19,1.21
201.18,6.01,4.80,6.04,4.83,-4.85,-4.86,-2.90,1.16,1.19,1.21
203.19,5.87,4.67,5.88,4.68,-4.70,-4.66,-2.83,1.17,1.18,1.20
205.23,5.75,4.57,5.74,4.55,-4.56,-4.46,-2.76,1.19,1.18,1.18
207.28,5.61,4.43,5.63,4.45,-4.42,-4.26,-2.69,1.19,1.20,1.18
209.35,5.49,4.33,5.47,4.31,-4.29,-4.06,-2.62,1.21,1.19,1.16
211.44,5.33,4.19,5.32,4.16,-4.15,-3.86,-2.55,1.18,1.17,1.14
213.56,5.09,3.95,5.14,4.00,-4.01,-3.67,-2.48,1.09,1.14,1.15
215.69,5.01,3.87,4.98,3.84,-3.85,-3.47,-2.42,1.16,1.13,1.15
217.85,4.80,3.67,4.83,3.70,-3.69,-3.28,-2.35,1.11,1.14,1.13
220.03,4.69,3.57,4.67,3.55,-3.52,-3.09,-2.29,1.17,1.15,1.12
222.23,4.50,3.40,4.47,3.36,-3.35,-2.91,-2.22,1.16,1.13,1.10
224.45,4.24,3.14,4.30,3.19,-3.17,-2.73,-2.16,1.07,1.12,1.11
226.70,4.10,2.99,4.09,2.98,-3.00,-2.55,-2.10,1.10,1.09,1.11
228.96,3.94,2.84,3.92,2.81,-2.84,-2.38,-2.03,1.10,1.07,1.10
231.25,3.71,2.61,3.75,2.65,-2.68,-2.21,-1.97,1.03,1.07,1.11
233.57,3.61,2.51,3.58,2.48,-2.52,-2.05,-1.90,1.09,1.06,1.10
235.90,3.42,2.33,3.44,2.34,-2.36,-1.88,-1.84,1.07,1.09,1.10
238.26,3.30,2.20,3.32,2.22,-2.19,-1.72,-1.77,1.11,1.13,1.10
240.64,3.20,2.10,3.18,2.07,-2.02,-1.57,-1.70,1.18,1.15,1.10
243.05,3.02,1.90,3.01,1.89,-1.85,-1.42,-1.63,1.18,1.16,1.12
245.48,2.79,1.67,2.78,1.66,-1.65,-1.27,-1.56,1.15,1.13,1.12
247.93,2.53,1.39,2.56,1.43,-1.43,-1.12,-1.49,1.10,1.13,1.14
250.41,2.32,1.19,2.36,1.22,-1.21,-0.98,-1.41,1.12,1.16,1.13
252.92,2.22,1.07,2.17,1.02,-0.99,-0.83,-1.34,1.24,1.19,1.15
255.45,1.97,0.80,1.95,0.78,-0.78,-0.69,-1.26,1.20,1.17,1.17
258.00,1.71,0.53,1.71,0.53,-0.58,-0.55,-1.18,1.13,1.13,1.18
260.58,1.44,0.26,1.50,0.31,-0.41,-0.42,-1.10,1.03,1.09,1.19
263.19,1.37,0.17,1.39,0.19,-0.26,-0.28,-1.02,1.12,1.13,1.20
265.82,1.36,0.15,1.33,0.12,-0.11,-0.15,-0.93,1.25,1.22,1.21
268.48,1.30,0.07,1.28,0.05,0.02,-0.02,-0.84,1.32,1.30,1.24
271.16,1.17,-0.08,1.17,-0.08,0.13,0.11,-0.75,1.31,1.31,1.25
273.87,1.05,-0.21,1.07,-0.21,0.23,0.25,-0.66,1.29,1.30,1.27
276.61,0.92,-0.38,0.95,-0.35,0.33,0.38,-0.57,1.25,1.28,1.31
279.38,0.90,-0.42,0.85,-0.48,0.43,0.51,-0.48,1.33,1.27,1.32
282.17,0.73,-0.62,0.77,-0.58,0.55,0.64,-0.38,1.28,1.31,1.35
284.99,0.67,-0.70,0.72,-0.66,0.68,0.77,-0.29,1.35,1.40,1.38
287.84,0.67,-0.73,0.64,-0.77,0.81,0.90,-0.19,1.49,1.45,1.40
290.72,0.60,-0.84,0.55,-0.89,0.95,1.03,-0.09,1.55,1.50,1.44
293.63,0.35,-1.11,0.40,-1.07,1.09,1.16,0.02,1.45,1.49,1.47
296.57,0.23,-1.26,0.24,-1.26,1.24,1.29,0.12,1.48,1.48,1.50
299.53,0.05,-1.47,0.07,-1.45,1.40,1.43,0.22,1.46,1.48,1.52
302.53,-0.01,-1.55,-0.05,-1.59,1.57,1.56,0.33,1.57,1.53,1.54
305.55,-0.21,-1.78,-0.18,-1.75,1.75,1.70,0.44,1.55,1.58,1.58
308.61,-0.30,-1.89,-0.30,-1.90,1.93,1.83,0.55,1.63,1.63,1.60
311.69,-0.45,-2.06,-0.47,-2.09,2.09,1.97,0.66,1.64,1.62,1.61
314.81,-0.61,-2.25,-0.62,-2.25,2.25,2.11,0.77,1.64,1.63,1.64
317.96,-0.83,-2.47,-0.79,-2.43,2.40,2.25,0.88,1.58,1.61,1.64
321.14,-0.93,-2.56,-0.94,-2.59,2.57,2.40,1.00,1.64,1.62,1.64
324.35,-1.10,-2.74,-1.08,-2.72,2.73,2.54,1.11,1.63,1.66,1.65
327.59,-1.18,-2.83,-1.19,-2.84,2.89,2.69,1.23,1.71,1.70,1.66
330.87,-1.33,-2.99,-1.34,-3.00,3.03,2.84,1.35,1.70,1.69,1.66
334.18,-1.48,-3.15,-1.51,-3.18,3.16,2.99,1.47,1.69,1.65,1.67
337.52,-1.72,-3.40,-1.67,-3.35,3.29,3.14,1.59,1.58,1.62,1.68
340.90,-1.81,-3.52,-1.78,-3.48,3.42,3.29,1.71,1.62,1.65,1.71
344.30,-1.83,-3.54,-1.85,-3.57,3.56,3.45,1.84,1.73,1.71,1.72
347.75,-1.89,-3.62,-1.90,-3.64,3.71,3.61,1.97,1.82,1.80,1.74
351.23,-2.02,-3.78,-2.02,-3.78,3.86,3.77,2.09,1.84,1.84,1.77
354.74,-2.16,-3.94,-2.17,-3.96,4.00,3.93,2.22,1.85,1.83,1.78
358.28,-2.38,-4.19,-2.35,-4.16,4.15,4.09,2.36,1.78,1.81,1.81
361.87,-2.49,-4.32,-2.51,-4.34,4.31,4.25,2.49,1.82,1.80,1.83
365.49,-2.68,-4.54,-2.66,-4.52,4.46,4.41,2.63,1.79,1.81,1.86
369.14,-2.76,-4.64,-2.78,-4.66,4.62,4.57,2.76,1.86,1.85,1.88
372.83,-2.91,-4.82,-2.88,-4.79,4.78,4.72,2.90,1.87,1.89,1.91
376.56,-2.97,-4.89,-2.96,-4.90,4.92,4.88,3.04,1.96,1.96,1.93
380.33,-3.06,-5.01,-3.07,-5.03,5.05,5.03,3.18,2.00,1.98,1.96
384.13,-3.17,-5.14,-3.18,-5.15,5.18,5.18,3.33,2.02,2.00,1.98
387.97,-3.35,-5.33,-3.32,-5.31,5.31,5.33,3.47,1.97,1.99,1.99
391.85,-3.44,-5.43,-3.46,-5.45,5.44,5.47,3.62,2.01,1.99,1.99
395.77,-3.60,-5.60,-3.57,-5.57,5.57,5.61,3.77,1.98,2.00,2.00
399.73,-3.66,-5.67,-3.65,-5.67,5.69,5.73,3.92,2.03,2.03,2.01
403.72,-3.74,-5.76,-3.76,-5.78,5.79,5.85,4.06,2.05,2.03,2.02
407.76,-3.85,-5.88,-3.87,-5.90,5.87,5.96,4.21,2.02,2.00,2.03
411.84,-4.02,-6.06,-3.99,-6.03,5.93,6.06,4.36,1.92,1.94,2.04
415.96,-4.10,-6.15,-4.08,-6.12,5.98,6.15,4.51,1.88,1.90,2.05
420.12,-4.11,-6.16,-4.11,-6.16,6.00,6.22,4.66,1.90,1.90,2.05
424.32,-4.11,-6.16,-4.11,-6.16,6.02,6.29,4.80,1.91,1.91,2.05
428.56,-4.11,-6.15,-4.14,-6.19,6.02,6.34,4.95,1.92,1.88,2.05
432.85,-4.20,-6.24,-4.21,-6.26,6.02,6.38,5.09,1.82,1.81,2.05
437.18,-4.32,-6.37,-4.28,-6.33,6.01,6.40,5.23,1.69,1.73,2.06
441.55,-4.34,-6.40,-4.33,-6.39,6.00,6.41,5.36,1.66,1.67,2.07
445.96,-4.34,-6.40,-4.35,-6.42,6.00,6.41,5.49,1.66,1.65,2.07
450.42,-4.34,-6.41,-4.35,-6.42,6.00,6.39,5.62,1.66,1.65,2.08
454.93,-4.34,-6.42,-4.34,-6.43,6.00,6.36,5.74,1.66,1.66,2.09
459.48,-4.34,-6.43,-4.30,-6.40,6.00,6.32,5.85,1.66,1.70,2.09
464.07,-4.25,-6.36,-4.24,-6.35,6.00,6.27,5.96,1.76,1.76,2.11
468.71,-4.14,-6.27,-4.17,-6.30,6.01,6.21,6.05,1.88,1.84,2.13
473.40,-4.11,-6.25,-4.12,-6.27,6.01,6.14,6.14,1.91,1.90,2.14
478.13,-4.11,-6.28,-4.12,-6.29,6.01,6.06,6.22,1.90,1.89,2.17
482.91,-4.11,-6.30,-4.09,-6.29,6.00,5.98,6.28,1.89,1.91,2.19
487.74,-4.06,-6.28,-4.01,-6.23,5.98,5.89,6.34,1.93,1.98,2.22
492.62,-3.84,-6.09,-3.86,-6.11,5.96,5.79,6.38,2.13,2.10,2.25
497.55,-3.69,-5.96,-3.69,-5.96,5.94,5.70,6.42,2.25,2.25,2.27
502.52,-3.53,-5.83,-3.54,-5.84,5.90,5.60,6.44,2.37,2.36,2.30
507.55,-3.44,-5.76,-3.47,-5.80,5.84,5.50,6.45,2.40,2.36,2.32
512.62,-3.43,-5.78,-3.41,-5.76,5.76,5.39,6.45,2.33,2.35,2.35
517.75,-3.39,-5.76,-3.33,-5.70,5.66,5.29,6.43,2.27,2.33,2.37
522.93,-3.18,-5.58,-3.20,-5.60,5.54,5.19,6.41,2.36,2.33,2.40
528.16,-3.00,-5.41,-3.03,-5.44,5.40,5.09,6.38,2.40,2.37,2.41
533.44,-2.85,-5.28,-2.81,-5.24,5.25,4.99,6.34,2.40,2.44,2.43
538.77,-2.63,-5.08,-2.62,-5.07,5.08,4.89,6.28,2.46,2.46,2.45
544.16,-2.37,-4.83,-2.43,-4.89,4.91,4.80,6.22,2.54,2.48,2.46
