frequency,raw,error,smoothed,error_smoothed,equalization,parametric_eq,fixed_band_eq,equalized_raw,equalized_smoothed,target
20.00,-10.28,-9.55,-10.30,-9.57,6.00,5.72,2.32,-4.28,-4.30,-0.73
20.20,-10.08,-9.40,-10.07,-9.40,6.00,5.78,2.38,-4.08,-4.07,-0.68
20.40,-9.89,-9.26,-9.87,-9.24,6.00,5.84,2.45,-3.89,-3.87,-0.63
20.61,-9.70,-9.10,-9.68,-9.09,6.00,5.90,2.52,-3.70,-3.68,-0.60
20.81,-9.50,-8.95,-9.50,-8.95,6.00,5.94,2.60,-3.50,-3.50,-0.55
21.02,-9.31,-8.80,-9.35,-8.84,6.00,5.99,2.67,-3.31,-3.35,-0.51
21.23,-9.26,-8.77,-9.25,-8.77,6.00,6.03,2.75,-3.26,-3.25,-0.49
21.44,-9.20,-8.73,-9.19,-8.73,6.00,6.06,2.83,-3.20,-3.19,-0.47
21.66,-9.14,-8.69,-9.15,-8.70,6.00,6.09,2.91,-3.14,-3.15,-0.45
21.87,-9.08,-8.64,-9.07,-8.63,6.00,6.12,2.99,-3.08,-3.07,-0.44
22.09,-8.97,-8.55,-8.94,-8.52,6.00,6.14,3.08,-2.97,-2.94,-0.42
22.31,-8.76,-8.35,-8.77,-8.36,6.00,6.15,3.17,-2.76,-2.77,-0.41
22.54,-8.56,-8.15,-8.56,-8.15,6.00,6.16,3.26,-2.56,-2.56,-0.41
22.76,-8.36,-7.95,-8.35,-7.94,6.00,6.17,3.35,-2.36,-2.35,-0.41
22.99,-8.16,-7.74,-8.19,-7.77,6.00,6.17,3.44,-2.16,-2.19,-0.42
23.22,-8.07,-7.65,-8.07,-7.65,6.00,6.16,3.54,-2.07,-2.07,-0.42
23.45,-7.99,-7.57,-7.99,-7.57,6.00,6.15,3.64,-1.99,-1.99,-0.42
23.69,-7.92,-7.51,-7.92,-7.50,6.00,6.13,3.74,-1.92,-1.92,-0.41
23.92,-7.84,-7.43,-7.83,-7.42,6.00,6.11,3.85,-1.84,-1.83,-0.41
24.16,-7.73,-7.33,-7.73,-7.33,6.00,6.09,3.95,-1.73,-1.73,-0.40
24.40,-7.61,-7.22,-7.61,-7.21,6.00,6.06,4.06,-1.61,-1.61,-0.39
24.65,-7.48,-7.08,-7.48,-7.08,6.00,6.03,4.17,-1.48,-1.48,-0.40
24.89,-7.36,-6.96,-7.37,-6.96,6.00,5.99,4.28,-1.36,-1.37,-0.40
25.14,-7.26,-6.86,-7.26,-6.86,6.00,5.95,4.39,-1.26,-1.26,-0.40
25.39,-7.17,-6.77,-7.17,-6.77,6.00,5.91,4.50,-1.17,-1.16,-0.40
25.65,-7.07,-6.68,-7.08,-6.68,6.01,5.86,4.61,-1.07,-1.07,-0.40
25.91,-6.98,-6.58,-6.97,-6.57,6.01,5.82,4.72,-0.98,-0.97,-0.41
26.16,-6.85,-6.44,-6.84,-6.44,6.01,5.77,4.84,-0.84,-0.84,-0.41
26.43,-6.69,-6.29,-6.69,-6.28,6.01,5.72,4.95,-0.69,-0.68,-0.41
26.69,-6.53,-6.12,-6.53,-6.13,6.00,5.66,5.06,-0.53,-0.53,-0.41
26.96,-6.38,-5.98,-6.41,-6.01,5.99,5.61,5.17,-0.39,-0.42,-0.40
27.23,-6.34,-5.94,-6.34,-5.94,5.96,5.56,5.27,-0.38,-0.38,-0.40
27.50,-6.32,-5.92,-6.33,-5.92,5.91,5.50,5.38,-0.41,-0.42,-0.40
27.77,-6.31,-5.90,-6.30,-5.90,5.84,5.44,5.48,-0.47,-0.46,-0.41
28.05,-6.27,-5.86,-6.24,-5.82,5.76,5.39,5.57,-0.51,-0.48,-0.41
28.33,-6.12,-5.70,-6.12,-5.70,5.68,5.33,5.66,-0.44,-0.45,-0.42
28.62,-5.97,-5.55,-5.97,-5.55,5.59,5.27,5.75,-0.38,-0.38,-0.42
28.90,-5.82,-5.41,-5.84,-5.42,5.50,5.21,5.83,-0.32,-0.34,-0.41
29.19,-5.75,-5.33,-5.76,-5.34,5.42,5.16,5.90,-0.33,-0.34,-0.43
29.48,-5.72,-5.31,-5.72,-5.30,5.33,5.10,5.96,-0.39,-0.39,-0.41
29.78,-5.69,-5.27,-5.69,-5.27,5.24,5.04,6.02,-0.45,-0.45,-0.42
30.08,-5.64,-5.23,-5.63,-5.21,5.15,4.99,6.07,-0.49,-0.48,-0.41
30.38,-5.53,-5.11,-5.54,-5.12,5.07,4.93,6.11,-0.47,-0.47,-0.42
30.68,-5.42,-5.00,-5.42,-5.01,4.98,4.88,6.14,-0.44,-0.44,-0.42
30.99,-5.30,-4.88,-5.31,-4.89,4.89,4.83,6.16,-0.41,-0.42,-0.42
31.30,-5.20,-4.78,-5.20,-4.77,4.80,4.77,6.17,-0.40,-0.40,-0.42
31.61,-5.10,-4.68,-5.10,-4.67,4.71,4.72,6.18,-0.39,-0.39,-0.42
31.93,-5.00,-4.58,-5.02,-4.59,4.63,4.67,6.17,-0.38,-0.39,-0.43
32.24,-4.96,-4.52,-4.96,-4.53,4.56,4.62,6.15,-0.40,-0.40,-0.44
32.57,-4.93,-4.50,-4.93,-4.49,4.50,4.58,6.13,-0.43,-0.43,-0.43
32.89,-4.90,-4.47,-4.90,-4.46,4.44,4.53,6.09,-0.46,-0.45,-0.43
33.22,-4.86,-4.42,-4.86,-4.42,4.39,4.48,6.05,-0.47,-0.47,-0.44
33.55,-4.82,-4.38,-4.82,-4.38,4.34,4.44,6.00,-0.48,-0.48,-0.44
33.89,-4.77,-4.32,-4.77,-4.32,4.30,4.40,5.95,-0.47,-0.47,-0.45
34.23,-4.71,-4.27,-4.71,-4.26,4.26,4.35,5.89,-0.45,-0.45,-0.45
34.57,-4.65,-4.19,-4.64,-4.19,4.22,4.31,5.82,-0.43,-0.42,-0.46
34.92,-4.58,-4.12,-4.60,-4.14,4.18,4.27,5.75,-0.40,-0.42,-0.46
35.27,-4.57,-4.11,-4.59,-4.12,4.14,4.24,5.67,-0.43,-0.44,-0.46
35.62,-4.59,-4.13,-4.59,-4.13,4.11,4.20,5.59,-0.48,-0.48,-0.46
35.97,-4.61,-4.15,-4.59,-4.12,4.09,4.16,5.51,-0.52,-0.50,-0.47
36.33,-4.56,-4.10,-4.56,-4.09,4.07,4.13,5.43,-0.49,-0.48,-0.46
36.70,-4.50,-4.03,-4.51,-4.05,4.06,4.09,5.34,-0.44,-0.45,-0.47
37.06,-4.46,-3.99,-4.48,-4.02,4.05,4.06,5.25,-0.41,-0.43,-0.47
37.43,-4.48,-4.03,-4.48,-4.01,4.03,4.03,5.17,-0.45,-0.45,-0.46
37.81,-4.49,-4.03,-4.48,-4.02,4.01,4.00,5.08,-0.48,-0.47,-0.46
38.19,-4.47,-4.01,-4.47,-4.01,3.98,3.97,4.99,-0.50,-0.49,-0.46
38.57,-4.42,-3.97,-4.43,-3.97,3.94,3.94,4.91,-0.48,-0.48,-0.45
38.95,-4.37,-3.92,-4.37,-3.92,3.91,3.91,4.82,-0.47,-0.47,-0.45
39.34,-4.31,-3.86,-4.31,-3.86,3.86,3.89,4.74,-0.45,-0.45,-0.45
39.74,-4.26,-3.81,-4.26,-3.81,3.82,3.86,4.66,-0.44,-0.44,-0.45
40.14,-4.21,-3.77,-4.21,-3.77,3.78,3.84,4.58,-0.43,-0.44,-0.45
40.54,-4.18,-3.73,-4.18,-3.73,3.74,3.81,4.50,-0.44,-0.44,-0.45
40.94,-4.15,-3.70,-4.16,-3.70,3.72,3.79,4.42,-0.43,-0.43,-0.45
41.35,-4.15,-3.70,-4.14,-3.69,3.71,3.77,4.35,-0.44,-0.43,-0.46
41.76,-4.14,-3.68,-4.15,-3.69,3.72,3.75,4.28,-0.43,-0.43,-0.46
42.18,-4.16,-3.71,-4.17,-3.71,3.73,3.73,4.21,-0.43,-0.45,-0.45
42.60,-4.21,-3.74,-4.21,-3.75,3.74,3.70,4.15,-0.47,-0.47,-0.47
43.03,-4.26,-3.79,-4.24,-3.77,3.75,3.69,4.09,-0.51,-0.49,-0.47
43.46,-4.26,-3.79,-4.26,-3.78,3.76,3.67,4.03,-0.50,-0.51,-0.48
43.90,-4.26,-3.76,-4.27,-3.77,3.75,3.65,3.97,-0.51,-0.52,-0.50
44.33,-4.26,-3.75,-4.27,-3.75,3.73,3.63,3.92,-0.53,-0.54,-0.52
44.78,-4.26,-3.73,-4.25,-3.72,3.70,3.61,3.87,-0.57,-0.55,-0.53
45.23,-4.22,-3.69,-4.21,-3.67,3.66,3.59,3.83,-0.57,-0.55,-0.54
45.68,-4.14,-3.59,-4.15,-3.60,3.61,3.58,3.78,-0.53,-0.54,-0.55
46.13,-4.08,-3.52,-4.09,-3.54,3.57,3.56,3.74,-0.51,-0.53,-0.57
46.60,-4.06,-3.50,-4.06,-3.49,3.53,3.55,3.70,-0.53,-0.53,-0.56
47.06,-4.05,-3.47,-4.05,-3.48,3.50,3.53,3.67,-0.56,-0.55,-0.58
47.53,-4.05,-3.47,-4.05,-3.47,3.47,3.52,3.64,-0.58,-0.58,-0.58
48.01,-4.05,-3.47,-4.05,-3.46,3.45,3.50,3.61,-0.60,-0.60,-0.58
48.49,-4.05,-3.46,-4.05,-3.45,3.44,3.49,3.58,-0.62,-0.62,-0.60
48.97,-4.05,-3.44,-4.05,-3.44,3.42,3.47,3.56,-0.63,-0.63,-0.61
49.46,-4.05,-3.42,-4.05,-3.42,3.41,3.46,3.54,-0.64,-0.64,-0.63
49.96,-4.05,-3.40,-4.05,-3.41,3.40,3.44,3.52,-0.65,-0.65,-0.65
50.46,-4.05,-3.41,-4.05,-3.40,3.40,3.43,3.50,-0.65,-0.65,-0.65
50.96,-4.05,-3.40,-4.05,-3.39,3.40,3.42,3.48,-0.65,-0.65,-0.65
51.47,-4.05,-3.38,-4.05,-3.38,3.40,3.40,3.47,-0.65,-0.65,-0.67
51.99,-4.05,-3.37,-4.07,-3.40,3.41,3.39,3.45,-0.64,-0.66,-0.68
52.51,-4.11,-3.43,-4.11,-3.43,3.43,3.37,3.44,-0.68,-0.68,-0.68
53.03,-4.17,-3.49,-4.16,-3.48,3.46,3.36,3.43,-0.71,-0.70,-0.68
53.56,-4.20,-3.51,-4.20,-3.51,3.50,3.35,3.42,-0.71,-0.70,-0.69
54.10,-4.23,-3.53,-4.21,-3.52,3.54,3.33,3.42,-0.69,-0.67,-0.70
54.64,-4.23,-3.52,-4.25,-3.55,3.59,3.32,3.41,-0.64,-0.66,-0.71
55.18,-4.28,-3.57,-4.32,-3.61,3.63,3.31,3.40,-0.65,-0.69,-0.71
55.74,-4.43,-3.71,-4.40,-3.68,3.67,3.29,3.39,-0.76,-0.73,-0.72
56.29,-4.49,-3.77,-4.46,-3.74,3.70,3.28,3.38,-0.79,-0.76,-0.72
56.86,-4.47,-3.74,-4.49,-3.76,3.71,3.27,3.38,-0.76,-0.78,-0.73
57.42,-4.47,-3.72,-4.48,-3.74,3.72,3.25,3.37,-0.75,-0.77,-0.75
58.00,-4.48,-3.73,-4.47,-3.71,3.71,3.24,3.36,-0.77,-0.76,-0.76
58.58,-4.45,-3.69,-4.45,-3.69,3.69,3.22,3.35,-0.77,-0.76,-0.76
59.16,-4.41,-3.64,-4.41,-3.64,3.65,3.21,3.33,-0.76,-0.76,-0.77
59.76,-4.37,-3.59,-4.38,-3.59,3.61,3.20,3.32,-0.76,-0.77,-0.79
60.35,-4.36,-3.54,-4.36,-3.55,3.56,3.18,3.30,-0.80,-0.80,-0.82
60.96,-4.36,-3.52,-4.36,-3.51,3.52,3.17,3.29,-0.84,-0.84,-0.84
61.57,-4.36,-3.48,-4.36,-3.48,3.48,3.15,3.27,-0.88,-0.88,-0.88
62.18,-4.36,-3.45,-4.36,-3.45,3.44,3.14,3.25,-0.92,-0.92,-0.91
62.80,-4.36,-3.41,-4.36,-3.41,3.41,3.12,3.22,-0.95,-0.95,-0.95
63.43,-4.36,-3.37,-4.36,-3.37,3.38,3.11,3.20,-0.99,-0.99,-0.99
64.07,-4.36,-3.34,-4.36,-3.34,3.35,3.09,3.17,-1.01,-1.01,-1.02
64.71,-4.36,-3.30,-4.36,-3.30,3.31,3.07,3.14,-1.05,-1.05,-1.06
65.35,-4.36,-3.27,-4.36,-3.27,3.28,3.06,3.11,-1.09,-1.09,-1.09
66.01,-4.36,-3.23,-4.36,-3.23,3.23,3.04,3.08,-1.13,-1.13,-1.13
66.67,-4.36,-3.20,-4.37,-3.21,3.18,3.02,3.04,-1.18,-1.19,-1.17
67.33,-4.36,-3.16,-4.36,-3.16,3.12,3.01,3.01,-1.24,-1.24,-1.21
68.01,-4.36,-3.13,-4.33,-3.09,3.07,2.99,2.97,-1.29,-1.26,-1.24
68.69,-4.26,-2.98,-4.28,-3.00,3.01,2.97,2.93,-1.25,-1.27,-1.28
69.37,-4.22,-2.90,-4.24,-2.92,2.95,2.95,2.89,-1.27,-1.29,-1.32
70.07,-4.22,-2.86,-4.22,-2.87,2.90,2.94,2.85,-1.32,-1.33,-1.36
70.77,-4.25,-2.86,-4.24,-2.84,2.85,2.92,2.81,-1.40,-1.39,-1.39
71.48,-4.26,-2.83,-4.25,-2.81,2.82,2.90,2.76,-1.44,-1.43,-1.44
72.19,-4.26,-2.77,-4.26,-2.78,2.79,2.88,2.72,-1.47,-1.48,-1.49
72.91,-4.26,-2.73,-4.29,-2.76,2.76,2.86,2.68,-1.50,-1.53,-1.53
73.64,-4.34,-2.76,-4.33,-2.75,2.74,2.84,2.64,-1.60,-1.59,-1.58
74.38,-4.38,-2.76,-4.37,-2.74,2.72,2.82,2.59,-1.67,-1.65,-1.62
75.12,-4.39,-2.72,-4.38,-2.71,2.69,2.80,2.55,-1.71,-1.70,-1.67
75.87,-4.36,-2.65,-4.37,-2.66,2.65,2.78,2.51,-1.71,-1.72,-1.72
76.63,-4.36,-2.61,-4.36,-2.61,2.62,2.76,2.47,-1.74,-1.75,-1.75
77.40,-4.36,-2.57,-4.36,-2.56,2.58,2.74,2.43,-1.78,-1.78,-1.79
78.17,-4.36,-2.52,-4.36,-2.53,2.53,2.72,2.39,-1.83,-1.83,-1.84
78.95,-4.36,-2.50,-4.36,-2.50,2.49,2.70,2.35,-1.87,-1.87,-1.86
79.74,-4.36,-2.46,-4.36,-2.46,2.46,2.68,2.31,-1.91,-1.91,-1.90
80.54,-4.36,-2.43,-4.36,-2.43,2.43,2.66,2.28,-1.93,-1.93,-1.93
81.35,-4.36,-2.39,-4.35,-2.39,2.42,2.64,2.24,-1.94,-1.93,-1.97
82.16,-4.36,-2.36,-4.36,-2.37,2.40,2.62,2.21,-1.96,-1.96,-2.00
82.98,-4.36,-2.34,-4.40,-2.37,2.39,2.59,2.18,-1.97,-2.01,-2.02
83.81,-4.47,-2.41,-4.45,-2.39,2.38,2.57,2.15,-2.10,-2.08,-2.06
84.65,-4.52,-2.42,-4.49,-2.40,2.36,2.55,2.12,-2.16,-2.13,-2.10
85.50,-4.50,-2.38,-4.50,-2.38,2.34,2.53,2.09,-2.16,-2.16,-2.12
86.35,-4.46,-2.31,-4.48,-2.33,2.31,2.51,2.06,-2.15,-2.17,-2.15
87.22,-4.46,-2.27,-4.46,-2.27,2.29,2.48,2.04,-2.18,-2.18,-2.19
88.09,-4.46,-2.24,-4.45,-2.23,2.25,2.46,2.01,-2.21,-2.21,-2.22
88.97,-4.45,-2.19,-4.45,-2.20,2.20,2.44,1.99,-2.25,-2.25,-2.26
89.86,-4.45,-2.16,-4.45,-2.16,2.15,2.41,1.97,-2.30,-2.30,-2.29
90.76,-4.45,-2.12,-4.45,-2.12,2.11,2.39,1.95,-2.34,-2.34,-2.33
91.66,-4.45,-2.09,-4.45,-2.09,2.09,2.37,1.94,-2.36,-2.36,-2.36
92.58,-4.45,-2.05,-4.45,-2.05,2.07,2.34,1.92,-2.38,-2.38,-2.40
93.51,-4.45,-2.02,-4.44,-2.01,2.06,2.32,1.90,-2.40,-2.39,-2.43
94.44,-4.45,-1.99,-4.47,-2.01,2.04,2.30,1.89,-2.41,-2.43,-2.46
95.39,-4.50,-2.01,-4.53,-2.04,2.02,2.27,1.88,-2.49,-2.51,-2.49
96.34,-4.61,-2.09,-4.58,-2.06,2.00,2.25,1.87,-2.61,-2.58,-2.53
97.30,-4.63,-2.08,-4.60,-2.05,1.98,2.23,1.86,-2.65,-2.62,-2.55
98.28,-4.56,-1.98,-4.58,-1.99,1.98,2.20,1.85,-2.58,-2.60,-2.58
99.26,-4.53,-1.92,-4.53,-1.92,1.97,2.18,1.84,-2.56,-2.55,-2.61
100.25,-4.50,-1.86,-4.54,-1.90,1.97,2.16,1.84,-2.53,-2.57,-2.64
101.25,-4.58,-1.91,-4.60,-1.93,1.97,2.13,1.83,-2.62,-2.64,-2.67
102.27,-4.73,-2.03,-4.68,-1.97,1.96,2.11,1.83,-2.77,-2.72,-2.70
103.29,-4.74,-2.00,-4.74,-2.01,1.96,2.09,1.83,-2.78,-2.78,-2.74
104.32,-4.76,-2.00,-4.78,-2.02,1.97,2.06,1.82,-2.79,-2.80,-2.76
105.37,-4.79,-2.00,-4.79,-2.00,1.99,2.04,1.82,-2.80,-2.79,-2.79
106.42,-4.81,-2.00,-4.80,-1.99,2.02,2.01,1.82,-2.79,-2.79,-2.82
107.48,-4.84,-1.99,-4.84,-1.98,2.03,1.99,1.82,-2.81,-2.80,-2.86
108.56,-4.86,-1.97,-4.90,-2.01,2.04,1.97,1.82,-2.83,-2.87,-2.90
109.64,-4.98,-2.06,-4.98,-2.05,2.03,1.94,1.82,-2.95,-2.94,-2.92
110.74,-5.08,-2.12,-5.03,-2.07,2.03,1.92,1.82,-3.05,-3.00,-2.96
111.85,-5.04,-2.06,-5.06,-2.07,2.02,1.90,1.82,-3.02,-3.04,-2.98
112.97,-5.03,-2.00,-5.05,-2.02,2.01,1.87,1.81,-3.02,-3.04,-3.03
114.10,-5.03,-1.97,-5.03,-1.97,1.99,1.85,1.81,-3.04,-3.04,-3.06
115.24,-5.04,-1.95,-5.04,-1.94,1.96,1.83,1.81,-3.08,-3.07,-3.09
116.39,-5.04,-1.92,-5.04,-1.92,1.93,1.80,1.81,-3.11,-3.11,-3.13
117.55,-5.03,-1.89,-5.04,-1.89,1.89,1.78,1.81,-3.14,-3.14,-3.14
118.73,-5.03,-1.86,-5.03,-1.86,1.86,1.76,1.80,-3.17,-3.17,-3.17
119.92,-5.02,-1.84,-5.02,-1.83,1.83,1.74,1.80,-3.19,-3.19,-3.18
121.12,-5.01,-1.81,-5.01,-1.81,1.81,1.71,1.79,-3.20,-3.20,-3.20
122.33,-5.00,-1.78,-5.00,-1.79,1.79,1.69,1.79,-3.21,-3.21,-3.22
123.55,-5.00,-1.77,-5.00,-1.77,1.77,1.67,1.78,-3.23,-3.23,-3.23
124.79,-4.99,-1.75,-4.99,-1.75,1.75,1.65,1.77,-3.24,-3.24,-3.24
126.03,-4.98,-1.72,-4.99,-1.73,1.73,1.62,1.76,-3.25,-3.26,-3.26
127.29,-4.98,-1.72,-4.98,-1.71,1.71,1.60,1.75,-3.27,-3.27,-3.26
128.57,-4.97,-1.69,-4.97,-1.69,1.69,1.58,1.74,-3.28,-3.28,-3.29
129.85,-4.96,-1.66,-4.96,-1.67,1.67,1.56,1.72,-3.29,-3.30,-3.30
131.15,-4.96,-1.65,-4.96,-1.65,1.65,1.54,1.71,-3.31,-3.31,-3.31
132.46,-4.95,-1.63,-4.95,-1.63,1.63,1.52,1.69,-3.33,-3.33,-3.32
133.79,-4.95,-1.61,-4.95,-1.61,1.60,1.50,1.68,-3.35,-3.35,-3.34
135.12,-4.95,-1.59,-4.95,-1.60,1.58,1.48,1.66,-3.37,-3.36,-3.36
136.48,-4.94,-1.58,-4.94,-1.58,1.57,1.45,1.64,-3.37,-3.37,-3.36
137.84,-4.94,-1.56,-4.94,-1.56,1.57,1.43,1.63,-3.37,-3.37,-3.38
139.22,-4.94,-1.54,-4.93,-1.53,1.58,1.41,1.61,-3.36,-3.34,-3.40
140.61,-4.94,-1.52,-4.94,-1.53,1.59,1.39,1.59,-3.35,-3.36,-3.42
142.02,-4.94,-1.52,-5.01,-1.58,1.59,1.37,1.57,-3.35,-3.41,-3.42
143.44,-5.10,-1.67,-5.07,-1.63,1.59,1.35,1.55,-3.51,-3.48,-3.43
144.87,-5.16,-1.70,-5.11,-1.65,1.59,1.34,1.53,-3.57,-3.52,-3.46
146.32,-5.08,-1.59,-5.11,-1.62,1.57,1.32,1.51,-3.51,-3.53,-3.49
147.78,-5.04,-1.54,-5.06,-1.55,1.55,1.30,1.49,-3.49,-3.51,-3.51
149.26,-5.04,-1.50,-5.04,-1.49,1.51,1.28,1.47,-3.53,-3.52,-3.54
150.75,-5.04,-1.45,-5.04,-1.45,1.46,1.26,1.45,-3.58,-3.58,-3.60
152.26,-5.04,-1.39,-5.04,-1.39,1.40,1.24,1.44,-3.65,-3.65,-3.65
153.78,-5.04,-1.34,-5.04,-1.34,1.33,1.22,1.42,-3.71,-3.71,-3.70
155.32,-5.04,-1.27,-5.04,-1.27,1.27,1.21,1.40,-3.78,-3.77,-3.77
156.88,-5.03,-1.20,-5.02,-1.19,1.21,1.19,1.38,-3.83,-3.81,-3.83
158.44,-5.03,-1.13,-5.04,-1.14,1.15,1.17,1.37,-3.88,-3.89,-3.90
160.03,-5.03,-1.06,-5.09,-1.12,1.11,1.15,1.35,-3.92,-3.98,-3.97
161.63,-5.19,-1.16,-5.10,-1.07,1.07,1.14,1.34,-4.12,-4.03,-4.03
163.24,-5.14,-1.06,-5.11,-1.03,1.04,1.12,1.32,-4.10,-4.08,-4.08
164.88,-5.02,-0.90,-5.14,-1.01,1.02,1.10,1.31,-4.00,-4.12,-4.12
166.53,-5.19,-1.03,-5.16,-0.99,1.01,1.09,1.30,-4.18,-4.14,-4.16
168.19,-5.25,-1.06,-5.22,-1.02,1.02,1.07,1.28,-4.23,-4.19,-4.19
169.87,-5.26,-1.04,-5.27,-1.05,1.04,1.06,1.27,-4.22,-4.23,-4.22
171.57,-5.27,-1.04,-5.26,-1.03,1.07,1.04,1.26,-4.20,-4.19,-4.23
173.29,-5.27,-1.04,-5.31,-1.07,1.10,1.03,1.26,-4.17,-4.21,-4.23
175.02,-5.33,-1.10,-5.37,-1.13,1.13,1.01,1.25,-4.21,-4.24,-4.23
176.77,-5.50,-1.26,-5.42,-1.19,1.15,1.00,1.24,-4.35,-4.27,-4.24
178.54,-5.44,-1.21,-5.44,-1.21,1.17,0.98,1.23,-4.27,-4.27,-4.23
180.32,-5.39,-1.17,-5.42,-1.20,1.18,0.97,1.23,-4.21,-4.24,-4.22
182.13,-5.37,-1.17,-5.37,-1.16,1.18,0.96,1.23,-4.19,-4.19,-4.20
183.95,-5.36,-1.15,-5.36,-1.16,1.17,0.94,1.22,-4.19,-4.19,-4.21
185.79,-5.35,-1.15,-5.35,-1.15,1.15,0.93,1.22,-4.20,-4.20,-4.20
187.65,-5.34,-1.13,-5.34,-1.13,1.12,0.92,1.22,-4.22,-4.21,-4.21
189.52,-5.32,-1.10,-5.33,-1.11,1.11,0.91,1.22,-4.22,-4.22,-4.22
191.42,-5.31,-1.08,-5.31,-1.08,1.09,0.89,1.22,-4.22,-4.22,-4.23
193.33,-5.30,-1.06,-5.29,-1.05,1.08,0.88,1.22,-4.22,-4.21,-4.24
195.27,-5.28,-1.03,-5.28,-1.03,1.07,0.87,1.22,-4.22,-4.22,-4.25
197.22,-5.27,-1.01,-5.31,-1.04,1.04,0.86,1.22,-4.23,-4.27,-4.26
199.19,-5.34,-1.06,-5.34,-1.06,1.01,0.85,1.23,-4.33,-4.33,-4.29
201.18,-5.39,-1.10,-5.33,-1.03,0.97,0.84,1.23,-4.42,-4.36,-4.30
203.19,-5.28,-0.97,-5.28,-0.97,0.94,0.83,1.23,-4.35,-4.35,-4.31
205.23,-5.16,-0.84,-5.20,-0.89,0.90,0.82,1.24,-4.26,-4.31,-4.33
207.28,-5.14,-0.82,-5.14,-0.81,0.86,0.81,1.24,-4.28,-4.28,-4.33
209.35,-5.14,-0.80,-5.13,-0.78,0.83,0.81,1.25,-4.31,-4.30,-4.35
211.44,-5.14,-0.77,-5.14,-0.78,0.79,0.80,1.25,-4.35,-4.35,-4.37
213.56,-5.15,-0.78,-5.15,-0.77,0.77,0.79,1.26,-4.38,-4.38,-4.37
215.69,-5.15,-0.77,-5.15,-0.77,0.75,0.79,1.26,-4.40,-4.40,-4.38
217.85,-5.16,-0.77,-5.16,-0.77,0.75,0.78,1.27,-4.41,-4.41,-4.39
220.03,-5.16,-0.77,-5.16,-0.76,0.76,0.78,1.27,-4.40,-4.40,-4.40
222.23,-5.16,-0.75,-5.16,-0.76,0.77,0.77,1.27,-4.39,-4.40,-4.41
224.45,-5.16,-0.76,-5.16,-0.76,0.77,0.77,1.28,-4.40,-4.40,-4.40
226.70,-5.16,-0.76,-5.16,-0.76,0.76,0.76,1.28,-4.40,-4.40,-4.40
228.96,-5.16,-0.78,-5.16,-0.77,0.76,0.76,1.28,-4.41,-4.40,-4.38
231.25,-5.15,-0.78,-5.16,-0.79,0.75,0.76,1.28,-4.40,-4.41,-4.37
233.57,-5.14,-0.78,-5.13,-0.78,0.76,0.76,1.28,-4.38,-4.37,-4.36
235.90,-5.13,-0.79,-5.09,-0.75,0.77,0.76,1.28,-4.36,-4.32,-4.34
238.26,-5.02,-0.69,-5.07,-0.74,0.79,0.76,1.27,-4.23,-4.28,-4.33
240.64,-5.04,-0.74,-5.07,-0.77,0.81,0.77,1.27,-4.24,-4.27,-4.30
243.05,-5.13,-0.86,-5.10,-0.83,0.83,0.77,1.26,-4.30,-4.27,-4.27
245.48,-5.16,-0.92,-5.14,-0.90,0.86,0.78,1.25,-4.30,-4.28,-4.24
247.93,-5.13,-0.92,-5.14,-0.93,0.90,0.78,1.25,-4.23,-4.25,-4.21
250.41,-5.11,-0.92,-5.12,-0.93,0.93,0.79,1.23,-4.18,-4.18,-4.19
252.92,-5.10,-0.94,-5.10,-0.94,0.96,0.80,1.22,-4.14,-4.13,-4.16
255.45,-5.09,-0.96,-5.11,-0.97,0.98,0.81,1.21,-4.11,-4.12,-4.13
258.00,-5.12,-1.01,-5.14,-1.03,0.99,0.82,1.19,-4.13,-4.15,-4.11
260.58,-5.16,-1.07,-5.14,-1.05,1.00,0.84,1.17,-4.16,-4.14,-4.09
263.19,-5.15,-1.10,-5.08,-1.02,1.00,0.85,1.15,-4.15,-4.07,-4.06
265.82,-4.96,-0.92,-5.01,-0.97,1.01,0.87,1.13,-3.96,-4.00,-4.04
268.48,-4.90,-0.89,-4.99,-0.98,1.01,0.89,1.11,-3.89,-3.98,-4.01
271.16,-5.02,-1.04,-4.98,-1.00,1.02,0.91,1.09,-4.00,-3.96,-3.98
273.87,-5.08,-1.12,-4.99,-1.04,1.03,0.94,1.06,-4.06,-3.96,-3.96
276.61,-4.92,-1.00,-4.98,-1.05,1.04,0.97,1.04,-3.88,-3.94,-3.92
279.38,-4.90,-1.00,-4.94,-1.05,1.06,0.99,1.01,-3.84,-3.89,-3.90
282.17,-4.96,-1.09,-4.93,-1.07,1.09,1.03,0.98,-3.87,-3.85,-3.87
284.99,-4.98,-1.15,-4.97,-1.13,1.12,1.06,0.95,-3.86,-3.85,-3.83
287.84,-4.97,-1.16,-4.98,-1.17,1.15,1.09,0.93,-3.82,-3.82,-3.82
290.72,-4.96,-1.18,-4.96,-1.18,1.18,1.13,0.90,-3.78,-3.78,-3.78
293.63,-4.94,-1.19,-4.94,-1.19,1.21,1.16,0.86,-3.73,-3.73,-3.75
296.57,-4.93,-1.22,-4.94,-1.22,1.24,1.20,0.83,-3.70,-3.70,-3.71
299.53,-4.92,-1.24,-4.95,-1.26,1.25,1.23,0.80,-3.67,-3.70,-3.69
302.53,-4.96,-1.29,-4.94,-1.28,1.25,1.27,0.77,-3.72,-3.69,-3.67
305.55,-4.94,-1.32,-4.91,-1.28,1.23,1.30,0.74,-3.71,-3.68,-3.62
308.61,-4.81,-1.21,-4.85,-1.25,1.21,1.32,0.71,-3.60,-3.65,-3.60
311.69,-4.78,-1.21,-4.77,-1.20,1.19,1.35,0.67,-3.59,-3.57,-3.57
314.81,-4.70,-1.16,-4.68,-1.13,1.18,1.36,0.64,-3.52,-3.50,-3.55
317.96,-4.62,-1.09,-4.64,-1.11,1.17,1.37,0.61,-3.45,-3.47,-3.53
321.14,-4.60,-1.08,-4.62,-1.11,1.17,1.37,0.58,-3.43,-3.45,-3.52
324.35,-4.66,-1.16,-4.64,-1.14,1.18,1.36,0.55,-3.49,-3.46,-3.50
327.59,-4.68,-1.20,-4.69,-1.21,1.18,1.35,0.51,-3.50,-3.51,-3.48
330.87,-4.72,-1.25,-4.72,-1.25,1.19,1.33,0.48,-3.53,-3.53,-3.47
334.18,-4.75,-1.30,-4.71,-1.25,1.20,1.29,0.45,-3.55,-3.51,-3.46
337.52,-4.65,-1.20,-4.67,-1.22,1.20,1.26,0.42,-3.46,-3.47,-3.45
340.90,-4.59,-1.16,-4.63,-1.20,1.19,1.21,0.39,-3.41,-3.44,-3.43
344.30,-4.58,-1.16,-4.58,-1.15,1.17,1.16,0.36,-3.42,-3.41,-3.42
347.75,-4.58,-1.16,-4.52,-1.10,1.14,1.11,0.33,-3.45,-3.38,-3.42
351.23,-4.45,-1.04,-4.49,-1.07,1.10,1.05,0.30,-3.35,-3.39,-3.41
354.74,-4.41,-1.00,-4.48,-1.06,1.07,1.00,0.27,-3.34,-3.40,-3.41
358.28,-4.52,-1.12,-4.46,-1.05,1.06,0.94,0.24,-3.47,-3.40,-3.41
361.87,-4.48,-1.07,-4.45,-1.04,1.04,0.88,0.21,-3.44,-3.41,-3.41
365.49,-4.38,-0.98,-4.42,-1.01,1.02,0.82,0.18,-3.36,-3.40,-3.40
369.14,-4.35,-0.94,-4.38,-0.98,0.98,0.76,0.15,-3.37,-3.40,-3.41
372.83,-4.39,-0.98,-4.38,-0.98,0.94,0.70,0.12,-3.45,-3.44,-3.41
376.56,-4.40,-0.99,-4.37,-0.97,0.90,0.65,0.09,-3.50,-3.47,-3.41
380.33,-4.33,-0.93,-4.31,-0.90,0.86,0.60,0.06,-3.47,-3.45,-3.40
384.13,-4.19,-0.79,-4.20,-0.79,0.82,0.54,0.03,-3.37,-3.38,-3.40
387.97,-4.08,-0.67,-4.11,-0.70,0.78,0.50,0.00,-3.30,-3.33,-3.41
391.85,-4.07,-0.65,-4.08,-0.66,0.75,0.45,-0.03,-3.32,-3.33,-3.42
395.77,-4.11,-0.70,-4.11,-0.69,0.71,0.40,-0.05,-3.40,-3.40,-3.42
399.73,-4.16,-0.74,-4.14,-0.72,0.68,0.36,-0.08,-3.48,-3.47,-3.43
403.72,-4.16,-0.73,-4.13,-0.70,0.64,0.32,-0.11,-3.52,-3.49,-3.43
407.76,-4.06,-0.62,-4.08,-0.65,0.60,0.28,-0.14,-3.46,-3.48,-3.44
411.84,-3.99,-0.55,-4.00,-0.56,0.56,0.24,-0.17,-3.43,-3.44,-3.44
415.96,-3.94,-0.50,-3.95,-0.51,0.51,0.20,-0.19,-3.43,-3.44,-3.44
420.12,-3.87,-0.43,-3.89,-0.45,0.44,0.16,-0.22,-3.43,-3.45,-3.44
424.32,-3.86,-0.42,-3.79,-0.36,0.37,0.13,-0.25,-3.49,-3.42,-3.44
428.56,-3.67,-0.24,-3.70,-0.27,0.30,0.09,-0.27,-3.37,-3.40,-3.43
432.85,-3.56,-0.14,-3.62,-0.20,0.23,0.06,-0.30,-3.33,-3.40,-3.42
437.18,-3.59,-0.18,-3.55,-0.15,0.16,0.03,-0.33,-3.43,-3.39,-3.41
441.55,-3.51,-0.14,-3.49,-0.11,0.09,-0.00,-0.35,-3.42,-3.40,-3.37
