frequency,raw,error,smoothed,error_smoothed,equalization,parametric_eq,fixed_band_eq,equalized_raw,equalized_smoothed,target
20.00,-10.28,-9.55,-10.19,-9.49,6.00,6.29,2.29,-4.28,-4.19,-0.73
20.20,-10.08,-9.40,-10.04,-9.38,6.00,6.26,2.36,-4.08,-4.04,-0.68
20.40,-9.89,-9.26,-9.90,-9.27,6.00,6.24,2.43,-3.89,-3.90,-0.63
20.61,-9.70,-9.10,-9.75,-9.16,6.00,6.22,2.50,-3.70,-3.75,-0.60
20.81,-9.50,-8.95,-9.61,-9.05,6.00,6.19,2.57,-3.50,-3.61,-0.55
21.02,-9.31,-8.80,-9.47,-8.93,6.00,6.17,2.64,-3.31,-3.47,-0.51
21.23,-9.26,-8.77,-9.33,-8.82,6.00,6.14,2.72,-3.26,-3.33,-0.49
21.44,-9.20,-8.73,-9.20,-8.71,6.00,6.12,2.79,-3.20,-3.20,-0.47
21.66,-9.14,-8.69,-9.06,-8.59,6.00,6.09,2.87,-3.14,-3.06,-0.45
21.87,-9.08,-8.64,-8.93,-8.48,6.00,6.07,2.96,-3.08,-2.93,-0.44
22.09,-8.97,-8.55,-8.80,-8.36,6.00,6.04,3.04,-2.97,-2.80,-0.42
22.31,-8.76,-8.35,-8.67,-8.25,6.00,6.01,3.13,-2.76,-2.67,-0.41
22.54,-8.56,-8.15,-8.55,-8.13,6.00,5.99,3.21,-2.56,-2.55,-0.41
22.76,-8.36,-7.95,-8.43,-8.01,6.00,5.96,3.31,-2.36,-2.43,-0.41
22.99,-8.16,-7.74,-8.30,-7.90,6.00,5.93,3.40,-2.16,-2.30,-0.42
23.22,-8.07,-7.65,-8.18,-7.77,6.00,5.90,3.49,-2.07,-2.18,-0.42
23.45,-7.99,-7.57,-8.06,-7.65,6.00,5.87,3.59,-1.99,-2.06,-0.42
23.69,-7.92,-7.51,-7.93,-7.52,6.00,5.84,3.69,-1.92,-1.93,-0.41
23.92,-7.84,-7.43,-7.81,-7.40,6.00,5.81,3.79,-1.84,-1.81,-0.41
24.16,-7.73,-7.33,-7.69,-7.29,6.00,5.78,3.89,-1.73,-1.69,-0.40
24.40,-7.61,-7.22,-7.58,-7.17,6.00,5.75,4.00,-1.61,-1.58,-0.39
24.65,-7.48,-7.08,-7.46,-7.06,6.00,5.72,4.10,-1.48,-1.46,-0.40
24.89,-7.36,-6.96,-7.35,-6.95,6.00,5.69,4.21,-1.36,-1.35,-0.40
25.14,-7.26,-6.86,-7.24,-6.84,6.00,5.66,4.31,-1.26,-1.24,-0.40
25.39,-7.17,-6.77,-7.14,-6.74,6.00,5.62,4.42,-1.17,-1.14,-0.40
25.65,-7.07,-6.68,-7.04,-6.64,6.00,5.59,4.53,-1.07,-1.04,-0.40
25.91,-6.98,-6.58,-6.93,-6.53,6.00,5.56,4.64,-0.98,-0.93,-0.41
26.16,-6.85,-6.44,-6.83,-6.43,6.00,5.53,4.75,-0.85,-0.83,-0.41
26.43,-6.69,-6.29,-6.72,-6.32,6.00,5.49,4.85,-0.69,-0.72,-0.41
26.69,-6.53,-6.12,-6.61,-6.21,5.99,5.46,4.96,-0.54,-0.63,-0.41
26.96,-6.38,-5.98,-6.51,-6.10,5.96,5.43,5.06,-0.42,-0.55,-0.40
27.23,-6.34,-5.94,-6.41,-6.00,5.92,5.40,5.16,-0.42,-0.50,-0.40
27.50,-6.32,-5.92,-6.32,-5.91,5.86,5.36,5.26,-0.46,-0.46,-0.40
27.77,-6.31,-5.90,-6.23,-5.82,5.79,5.33,5.36,-0.52,-0.44,-0.41
28.05,-6.27,-5.86,-6.15,-5.74,5.72,5.30,5.45,-0.55,-0.43,-0.41
28.33,-6.12,-5.70,-6.06,-5.65,5.65,5.26,5.54,-0.47,-0.42,-0.42
28.62,-5.97,-5.55,-5.98,-5.57,5.57,5.23,5.62,-0.40,-0.41,-0.42
28.90,-5.82,-5.41,-5.90,-5.49,5.49,5.19,5.69,-0.33,-0.41,-0.41
29.19,-5.75,-5.33,-5.82,-5.41,5.41,5.16,5.76,-0.35,-0.41,-0.43
29.48,-5.72,-5.31,-5.74,-5.32,5.32,5.13,5.82,-0.40,-0.42,-0.41
29.78,-5.69,-5.27,-5.65,-5.24,5.24,5.09,5.88,-0.46,-0.42,-0.42
30.08,-5.64,-5.23,-5.56,-5.15,5.15,5.06,5.92,-0.50,-0.42,-0.41
30.38,-5.53,-5.11,-5.47,-5.05,5.05,5.03,5.96,-0.48,-0.42,-0.42
30.68,-5.42,-5.00,-5.38,-4.96,4.96,4.99,5.99,-0.46,-0.42,-0.42
30.99,-5.30,-4.88,-5.30,-4.88,4.88,4.96,6.01,-0.43,-0.42,-0.42
31.30,-5.20,-4.78,-5.22,-4.80,4.80,4.92,6.03,-0.40,-0.42,-0.42
31.61,-5.10,-4.68,-5.16,-4.73,4.73,4.89,6.03,-0.37,-0.42,-0.42
31.93,-5.00,-4.58,-5.09,-4.66,4.66,4.86,6.02,-0.34,-0.43,-0.43
32.24,-4.96,-4.52,-5.02,-4.59,4.59,4.82,6.01,-0.38,-0.43,-0.44
32.57,-4.93,-4.50,-4.95,-4.51,4.51,4.79,5.99,-0.42,-0.43,-0.43
32.89,-4.90,-4.47,-4.88,-4.45,4.45,4.75,5.96,-0.46,-0.44,-0.43
33.22,-4.86,-4.42,-4.83,-4.39,4.39,4.72,5.92,-0.47,-0.44,-0.44
33.55,-4.82,-4.38,-4.78,-4.33,4.33,4.69,5.87,-0.49,-0.44,-0.44
33.89,-4.77,-4.32,-4.74,-4.29,4.29,4.65,5.82,-0.48,-0.45,-0.45
34.23,-4.71,-4.27,-4.70,-4.25,4.25,4.62,5.76,-0.46,-0.45,-0.45
34.57,-4.65,-4.19,-4.67,-4.22,4.22,4.59,5.70,-0.44,-0.45,-0.46
34.92,-4.58,-4.12,-4.64,-4.19,4.19,4.55,5.63,-0.40,-0.46,-0.46
35.27,-4.57,-4.11,-4.62,-4.16,4.16,4.52,5.56,-0.41,-0.46,-0.46
35.62,-4.59,-4.13,-4.60,-4.14,4.14,4.49,5.49,-0.46,-0.46,-0.46
35.97,-4.61,-4.15,-4.57,-4.11,4.11,4.46,5.41,-0.50,-0.46,-0.47
36.33,-4.56,-4.10,-4.55,-4.08,4.08,4.42,5.33,-0.48,-0.46,-0.46
36.70,-4.50,-4.03,-4.52,-4.06,4.06,4.39,5.25,-0.44,-0.46,-0.47
37.06,-4.46,-3.99,-4.49,-4.03,4.03,4.36,5.17,-0.43,-0.46,-0.47
37.43,-4.48,-4.03,-4.47,-4.01,4.01,4.33,5.08,-0.47,-0.46,-0.46
37.81,-4.49,-4.03,-4.44,-3.98,3.98,4.29,5.00,-0.51,-0.46,-0.46
38.19,-4.47,-4.01,-4.41,-3.95,3.95,4.26,4.92,-0.52,-0.46,-0.46
38.57,-4.42,-3.97,-4.37,-3.92,3.92,4.23,4.84,-0.50,-0.45,-0.45
38.95,-4.37,-3.92,-4.34,-3.89,3.89,4.20,4.76,-0.49,-0.45,-0.45
39.34,-4.31,-3.86,-4.30,-3.85,3.85,4.17,4.68,-0.46,-0.45,-0.45
39.74,-4.26,-3.81,-4.27,-3.82,3.82,4.14,4.60,-0.44,-0.45,-0.45
40.14,-4.21,-3.77,-4.25,-3.80,3.80,4.10,4.52,-0.41,-0.45,-0.45
40.54,-4.18,-3.73,-4.23,-3.79,3.79,4.07,4.45,-0.40,-0.45,-0.45
40.94,-4.15,-3.70,-4.22,-3.78,3.78,4.04,4.38,-0.38,-0.45,-0.45
41.35,-4.15,-3.70,-4.22,-3.77,3.77,4.01,4.31,-0.39,-0.45,-0.46
41.76,-4.14,-3.68,-4.21,-3.75,3.75,3.98,4.24,-0.39,-0.46,-0.46
42.18,-4.16,-3.71,-4.20,-3.74,3.74,3.95,4.18,-0.42,-0.46,-0.45
42.60,-4.21,-3.74,-4.20,-3.73,3.73,3.92,4.12,-0.48,-0.47,-0.47
43.03,-4.26,-3.79,-4.20,-3.72,3.72,3.89,4.06,-0.54,-0.48,-0.47
43.46,-4.26,-3.79,-4.20,-3.71,3.71,3.86,4.00,-0.55,-0.49,-0.48
43.90,-4.26,-3.76,-4.20,-3.70,3.70,3.83,3.95,-0.56,-0.50,-0.50
44.33,-4.26,-3.75,-4.19,-3.68,3.68,3.80,3.90,-0.58,-0.51,-0.52
44.78,-4.26,-3.73,-4.18,-3.67,3.67,3.78,3.85,-0.60,-0.52,-0.53
45.23,-4.22,-3.69,-4.17,-3.64,3.64,3.75,3.81,-0.58,-0.53,-0.54
45.68,-4.14,-3.59,-4.16,-3.62,3.62,3.72,3.77,-0.52,-0.54,-0.55
46.13,-4.08,-3.52,-4.14,-3.59,3.59,3.69,3.73,-0.49,-0.55,-0.57
46.60,-4.06,-3.50,-4.12,-3.56,3.56,3.66,3.69,-0.50,-0.56,-0.56
47.06,-4.05,-3.47,-4.10,-3.52,3.52,3.63,3.66,-0.53,-0.58,-0.58
47.53,-4.05,-3.47,-4.07,-3.49,3.49,3.61,3.63,-0.56,-0.59,-0.58
48.01,-4.05,-3.47,-4.05,-3.46,3.46,3.58,3.60,-0.60,-0.60,-0.58
48.49,-4.05,-3.46,-4.04,-3.43,3.43,3.55,3.58,-0.62,-0.61,-0.60
48.97,-4.05,-3.44,-4.03,-3.42,3.42,3.53,3.55,-0.63,-0.62,-0.61
49.46,-4.05,-3.42,-4.03,-3.41,3.41,3.50,3.53,-0.65,-0.63,-0.63
49.96,-4.05,-3.40,-4.03,-3.39,3.39,3.47,3.51,-0.66,-0.64,-0.65
50.46,-4.05,-3.41,-4.04,-3.39,3.39,3.45,3.50,-0.66,-0.64,-0.65
50.96,-4.05,-3.40,-4.06,-3.40,3.40,3.42,3.48,-0.65,-0.65,-0.65
51.47,-4.05,-3.38,-4.08,-3.42,3.42,3.39,3.47,-0.63,-0.66,-0.67
51.99,-4.05,-3.37,-4.11,-3.44,3.44,3.37,3.46,-0.61,-0.67,-0.68
52.51,-4.11,-3.43,-4.14,-3.46,3.46,3.34,3.45,-0.65,-0.68,-0.68
53.03,-4.17,-3.49,-4.18,-3.49,3.49,3.32,3.44,-0.68,-0.69,-0.68
53.56,-4.20,-3.51,-4.22,-3.52,3.52,3.29,3.43,-0.68,-0.69,-0.69
54.10,-4.23,-3.53,-4.26,-3.56,3.56,3.27,3.42,-0.67,-0.70,-0.70
54.64,-4.23,-3.52,-4.29,-3.59,3.59,3.25,3.42,-0.64,-0.70,-0.71
55.18,-4.28,-3.57,-4.33,-3.62,3.62,3.22,3.41,-0.66,-0.71,-0.71
55.74,-4.43,-3.71,-4.36,-3.64,3.64,3.20,3.40,-0.79,-0.71,-0.72
56.29,-4.49,-3.77,-4.38,-3.66,3.66,3.17,3.40,-0.83,-0.72,-0.72
56.86,-4.47,-3.74,-4.40,-3.68,3.68,3.15,3.39,-0.80,-0.73,-0.73
57.42,-4.47,-3.72,-4.42,-3.68,3.68,3.13,3.38,-0.79,-0.74,-0.75
58.00,-4.48,-3.73,-4.43,-3.68,3.68,3.10,3.37,-0.80,-0.75,-0.76
58.58,-4.45,-3.69,-4.43,-3.66,3.66,3.08,3.36,-0.79,-0.77,-0.76
59.16,-4.41,-3.64,-4.43,-3.64,3.64,3.06,3.35,-0.77,-0.79,-0.77
59.76,-4.37,-3.59,-4.42,-3.62,3.62,3.04,3.33,-0.76,-0.81,-0.79
60.35,-4.36,-3.54,-4.41,-3.59,3.59,3.01,3.32,-0.78,-0.83,-0.82
60.96,-4.36,-3.52,-4.40,-3.55,3.55,2.99,3.30,-0.81,-0.85,-0.84
61.57,-4.36,-3.48,-4.39,-3.51,3.51,2.97,3.28,-0.85,-0.88,-0.88
62.18,-4.36,-3.45,-4.38,-3.47,3.47,2.95,3.26,-0.89,-0.91,-0.91
62.80,-4.36,-3.41,-4.37,-3.43,3.43,2.93,3.24,-0.93,-0.94,-0.95
63.43,-4.36,-3.37,-4.36,-3.39,3.39,2.91,3.21,-0.98,-0.98,-0.99
64.07,-4.36,-3.34,-4.36,-3.34,3.34,2.89,3.19,-1.02,-1.01,-1.02
64.71,-4.36,-3.30,-4.35,-3.30,3.30,2.86,3.16,-1.06,-1.05,-1.06
65.35,-4.36,-3.27,-4.34,-3.25,3.25,2.84,3.13,-1.11,-1.09,-1.09
66.01,-4.36,-3.23,-4.33,-3.21,3.21,2.82,3.09,-1.16,-1.13,-1.13
66.67,-4.36,-3.20,-4.32,-3.16,3.16,2.80,3.06,-1.21,-1.16,-1.17
67.33,-4.36,-3.16,-4.31,-3.11,3.11,2.78,3.02,-1.25,-1.20,-1.21
68.01,-4.36,-3.13,-4.30,-3.06,3.06,2.76,2.98,-1.30,-1.24,-1.24
68.69,-4.26,-2.98,-4.30,-3.02,3.02,2.74,2.95,-1.25,-1.28,-1.28
69.37,-4.22,-2.90,-4.29,-2.97,2.97,2.73,2.91,-1.25,-1.32,-1.32
70.07,-4.22,-2.86,-4.29,-2.93,2.93,2.71,2.86,-1.29,-1.36,-1.36
70.77,-4.25,-2.86,-4.29,-2.89,2.89,2.69,2.82,-1.37,-1.40,-1.39
71.48,-4.26,-2.83,-4.29,-2.84,2.84,2.67,2.78,-1.42,-1.45,-1.44
72.19,-4.26,-2.77,-4.29,-2.80,2.80,2.65,2.74,-1.46,-1.49,-1.49
72.91,-4.26,-2.73,-4.30,-2.77,2.77,2.63,2.69,-1.50,-1.53,-1.53
73.64,-4.34,-2.76,-4.31,-2.73,2.73,2.61,2.65,-1.61,-1.58,-1.58
74.38,-4.38,-2.76,-4.32,-2.70,2.70,2.59,2.61,-1.69,-1.62,-1.62
75.12,-4.39,-2.72,-4.32,-2.66,2.66,2.58,2.56,-1.73,-1.66,-1.67
75.87,-4.36,-2.65,-4.33,-2.62,2.62,2.56,2.52,-1.74,-1.71,-1.72
76.63,-4.36,-2.61,-4.34,-2.60,2.60,2.54,2.48,-1.76,-1.75,-1.75
77.40,-4.36,-2.57,-4.36,-2.57,2.57,2.52,2.44,-1.79,-1.79,-1.79
78.17,-4.36,-2.52,-4.37,-2.54,2.54,2.51,2.40,-1.82,-1.83,-1.84
78.95,-4.36,-2.50,-4.38,-2.51,2.51,2.49,2.36,-1.85,-1.86,-1.86
79.74,-4.36,-2.46,-4.39,-2.49,2.49,2.47,2.32,-1.87,-1.90,-1.90
80.54,-4.36,-2.43,-4.40,-2.46,2.46,2.46,2.29,-1.90,-1.93,-1.93
81.35,-4.36,-2.39,-4.40,-2.44,2.44,2.44,2.25,-1.92,-1.97,-1.97
82.16,-4.36,-2.36,-4.41,-2.41,2.41,2.42,2.22,-1.95,-2.00,-2.00
82.98,-4.36,-2.34,-4.42,-2.39,2.39,2.41,2.19,-1.98,-2.03,-2.02
83.81,-4.47,-2.41,-4.43,-2.36,2.36,2.39,2.16,-2.11,-2.06,-2.06
84.65,-4.52,-2.42,-4.44,-2.34,2.34,2.37,2.13,-2.18,-2.09,-2.10
85.50,-4.50,-2.38,-4.44,-2.31,2.31,2.36,2.10,-2.19,-2.13,-2.12
86.35,-4.46,-2.31,-4.44,-2.28,2.28,2.34,2.07,-2.18,-2.16,-2.15
87.22,-4.46,-2.27,-4.44,-2.25,2.25,2.33,2.05,-2.21,-2.19,-2.19
88.09,-4.46,-2.24,-4.45,-2.23,2.23,2.31,2.02,-2.24,-2.23,-2.22
88.97,-4.45,-2.19,-4.46,-2.20,2.20,2.29,2.00,-2.25,-2.26,-2.26
89.86,-4.45,-2.16,-4.47,-2.18,2.18,2.28,1.98,-2.27,-2.29,-2.29
90.76,-4.45,-2.12,-4.48,-2.15,2.15,2.26,1.96,-2.30,-2.33,-2.33
91.66,-4.45,-2.09,-4.48,-2.11,2.11,2.25,1.94,-2.34,-2.36,-2.36
92.58,-4.45,-2.05,-4.47,-2.08,2.08,2.23,1.93,-2.37,-2.39,-2.40
93.51,-4.45,-2.02,-4.47,-2.05,2.05,2.22,1.91,-2.40,-2.43,-2.43
94.44,-4.45,-1.99,-4.48,-2.02,2.02,2.20,1.90,-2.43,-2.46,-2.46
95.39,-4.50,-2.01,-4.50,-2.01,2.01,2.19,1.89,-2.49,-2.49,-2.49
96.34,-4.61,-2.09,-4.52,-2.00,2.00,2.17,1.88,-2.61,-2.52,-2.53
97.30,-4.63,-2.08,-4.54,-1.99,1.99,2.16,1.87,-2.64,-2.55,-2.55
98.28,-4.56,-1.98,-4.56,-1.98,1.98,2.14,1.86,-2.58,-2.58,-2.58
99.26,-4.53,-1.92,-4.58,-1.97,1.97,2.13,1.85,-2.56,-2.61,-2.61
100.25,-4.50,-1.86,-4.61,-1.97,1.97,2.11,1.85,-2.53,-2.64,-2.64
101.25,-4.58,-1.91,-4.64,-1.97,1.97,2.10,1.84,-2.61,-2.67,-2.67
102.27,-4.73,-2.03,-4.68,-1.98,1.98,2.09,1.84,-2.75,-2.70,-2.70
103.29,-4.74,-2.00,-4.72,-1.99,1.99,2.07,1.83,-2.75,-2.73,-2.74
104.32,-4.76,-2.00,-4.76,-2.00,2.00,2.06,1.83,-2.77,-2.76,-2.76
105.37,-4.79,-2.00,-4.80,-2.00,2.00,2.04,1.83,-2.79,-2.79,-2.79
106.42,-4.81,-2.00,-4.83,-2.01,2.01,2.03,1.83,-2.81,-2.83,-2.82
107.48,-4.84,-1.99,-4.87,-2.01,2.01,2.02,1.83,-2.83,-2.86,-2.86
108.56,-4.86,-1.97,-4.91,-2.02,2.02,2.00,1.83,-2.85,-2.89,-2.90
109.64,-4.98,-2.06,-4.95,-2.02,2.02,1.99,1.83,-2.96,-2.93,-2.92
110.74,-5.08,-2.12,-4.98,-2.02,2.02,1.97,1.83,-3.06,-2.96,-2.96
111.85,-5.04,-2.06,-5.00,-2.01,2.01,1.96,1.83,-3.03,-2.99,-2.98
112.97,-5.03,-2.00,-5.02,-1.99,1.99,1.95,1.82,-3.04,-3.03,-3.03
114.10,-5.03,-1.97,-5.03,-1.97,1.97,1.93,1.82,-3.06,-3.06,-3.06
115.24,-5.04,-1.95,-5.04,-1.95,1.95,1.92,1.82,-3.09,-3.08,-3.09
116.39,-5.04,-1.92,-5.04,-1.93,1.93,1.91,1.82,-3.11,-3.11,-3.13
117.55,-5.03,-1.89,-5.04,-1.91,1.91,1.89,1.82,-3.12,-3.14,-3.14
118.73,-5.03,-1.86,-5.04,-1.88,1.88,1.88,1.81,-3.15,-3.16,-3.17
119.92,-5.02,-1.84,-5.03,-1.85,1.85,1.87,1.81,-3.17,-3.18,-3.18
121.12,-5.01,-1.81,-5.02,-1.82,1.82,1.85,1.80,-3.19,-3.20,-3.20
122.33,-5.00,-1.78,-5.01,-1.79,1.79,1.84,1.80,-3.21,-3.22,-3.22
123.55,-5.00,-1.77,-5.00,-1.77,1.77,1.83,1.79,-3.24,-3.23,-3.23
124.79,-4.99,-1.75,-4.99,-1.75,1.75,1.81,1.78,-3.25,-3.25,-3.24
126.03,-4.98,-1.72,-4.99,-1.73,1.73,1.80,1.77,-3.25,-3.26,-3.26
127.29,-4.98,-1.72,-4.98,-1.71,1.71,1.79,1.76,-3.28,-3.27,-3.26
128.57,-4.97,-1.69,-4.96,-1.68,1.68,1.77,1.75,-3.29,-3.29,-3.29
129.85,-4.96,-1.66,-4.95,-1.65,1.65,1.76,1.74,-3.31,-3.30,-3.30
131.15,-4.96,-1.65,-4.95,-1.64,1.64,1.75,1.72,-3.33,-3.31,-3.31
132.46,-4.95,-1.63,-4.95,-1.63,1.63,1.73,1.71,-3.33,-3.32,-3.32
133.79,-4.95,-1.61,-4.95,-1.62,1.62,1.72,1.69,-3.33,-3.34,-3.34
135.12,-4.95,-1.59,-4.96,-1.61,1.61,1.71,1.68,-3.34,-3.35,-3.36
136.48,-4.94,-1.58,-4.97,-1.61,1.61,1.69,1.66,-3.33,-3.36,-3.36
137.84,-4.94,-1.56,-4.98,-1.60,1.60,1.68,1.64,-3.34,-3.37,-3.38
139.22,-4.94,-1.54,-4.99,-1.60,1.60,1.67,1.62,-3.34,-3.39,-3.40
140.61,-4.94,-1.52,-5.00,-1.59,1.59,1.65,1.60,-3.35,-3.40,-3.42
142.02,-4.94,-1.52,-5.01,-1.59,1.59,1.64,1.58,-3.35,-3.42,-3.42
143.44,-5.10,-1.67,-5.02,-1.58,1.58,1.63,1.56,-3.52,-3.44,-3.43
144.87,-5.16,-1.70,-5.02,-1.55,1.55,1.62,1.54,-3.61,-3.47,-3.46
146.32,-5.08,-1.59,-5.03,-1.53,1.53,1.60,1.53,-3.55,-3.50,-3.49
147.78,-5.04,-1.54,-5.04,-1.51,1.51,1.59,1.51,-3.53,-3.53,-3.51
149.26,-5.04,-1.50,-5.04,-1.47,1.47,1.58,1.49,-3.57,-3.57,-3.54
150.75,-5.04,-1.45,-5.05,-1.43,1.43,1.56,1.47,-3.61,-3.62,-3.60
152.26,-5.04,-1.39,-5.05,-1.38,1.38,1.55,1.45,-3.66,-3.67,-3.65
153.78,-5.04,-1.34,-5.06,-1.33,1.33,1.54,1.43,-3.71,-3.72,-3.70
155.32,-5.04,-1.27,-5.06,-1.28,1.28,1.52,1.41,-3.76,-3.78,-3.77
156.88,-5.03,-1.20,-5.07,-1.23,1.23,1.51,1.40,-3.80,-3.84,-3.83
158.44,-5.03,-1.13,-5.07,-1.17,1.17,1.50,1.38,-3.86,-3.90,-3.90
160.03,-5.03,-1.06,-5.07,-1.12,1.12,1.48,1.36,-3.92,-3.96,-3.97
161.63,-5.19,-1.16,-5.09,-1.08,1.08,1.47,1.35,-4.11,-4.01,-4.03
163.24,-5.14,-1.06,-5.13,-1.07,1.07,1.46,1.33,-4.07,-4.06,-4.08
164.88,-5.02,-0.90,-5.16,-1.06,1.06,1.44,1.32,-3.97,-4.11,-4.12
166.53,-5.19,-1.03,-5.19,-1.05,1.05,1.43,1.31,-4.14,-4.14,-4.16
168.19,-5.25,-1.06,-5.23,-1.05,1.05,1.42,1.30,-4.20,-4.17,-4.19
169.87,-5.26,-1.04,-5.26,-1.06,1.06,1.40,1.29,-4.20,-4.20,-4.22
171.57,-5.27,-1.04,-5.29,-1.07,1.07,1.39,1.28,-4.20,-4.21,-4.23
173.29,-5.27,-1.04,-5.31,-1.09,1.09,1.38,1.27,-4.18,-4.22,-4.23
175.02,-5.33,-1.10,-5.34,-1.11,1.11,1.36,1.26,-4.22,-4.23,-4.23
176.77,-5.50,-1.26,-5.36,-1.12,1.12,1.35,1.25,-4.38,-4.23,-4.24
178.54,-5.44,-1.21,-5.36,-1.13,1.13,1.34,1.25,-4.31,-4.23,-4.23
180.32,-5.39,-1.17,-5.36,-1.13,1.13,1.32,1.24,-4.26,-4.23,-4.22
182.13,-5.37,-1.17,-5.37,-1.15,1.15,1.31,1.24,-4.22,-4.23,-4.20
183.95,-5.36,-1.15,-5.38,-1.16,1.16,1.30,1.23,-4.20,-4.22,-4.21
185.79,-5.35,-1.15,-5.38,-1.15,1.15,1.28,1.23,-4.20,-4.22,-4.20
187.65,-5.34,-1.13,-5.37,-1.15,1.15,1.27,1.23,-4.20,-4.23,-4.21
189.52,-5.32,-1.10,-5.36,-1.13,1.13,1.26,1.23,-4.19,-4.23,-4.22
191.42,-5.31,-1.08,-5.35,-1.11,1.11,1.24,1.23,-4.20,-4.23,-4.23
193.33,-5.30,-1.06,-5.33,-1.08,1.08,1.23,1.23,-4.22,-4.24,-4.24
195.27,-5.28,-1.03,-5.30,-1.05,1.05,1.22,1.23,-4.23,-4.25,-4.25
197.22,-5.27,-1.01,-5.28,-1.01,1.01,1.20,1.24,-4.26,-4.26,-4.26
199.19,-5.34,-1.06,-5.26,-0.99,0.99,1.19,1.24,-4.36,-4.28,-4.29
201.18,-5.39,-1.10,-5.25,-0.96,0.96,1.18,1.24,-4.43,-4.29,-4.30
203.19,-5.28,-0.97,-5.24,-0.93,0.93,1.16,1.25,-4.35,-4.31,-4.31
205.23,-5.16,-0.84,-5.22,-0.90,0.90,1.15,1.25,-4.27,-4.32,-4.33
207.28,-5.14,-0.82,-5.21,-0.87,0.87,1.13,1.25,-4.27,-4.34,-4.33
209.35,-5.14,-0.80,-5.19,-0.84,0.84,1.12,1.26,-4.30,-4.35,-4.35
211.44,-5.14,-0.77,-5.18,-0.82,0.82,1.11,1.26,-4.32,-4.36,-4.37
213.56,-5.15,-0.78,-5.18,-0.81,0.81,1.09,1.27,-4.35,-4.37,-4.37
215.69,-5.15,-0.77,-5.17,-0.79,0.79,1.08,1.27,-4.36,-4.38,-4.38
217.85,-5.16,-0.77,-5.16,-0.77,0.77,1.07,1.28,-4.39,-4.39,-4.39
220.03,-5.16,-0.77,-5.14,-0.75,0.75,1.05,1.28,-4.41,-4.39,-4.40
222.23,-5.16,-0.75,-5.13,-0.74,0.74,1.04,1.29,-4.43,-4.40,-4.41
224.45,-5.16,-0.76,-5.13,-0.73,0.73,1.02,1.29,-4.43,-4.39,-4.40
226.70,-5.16,-0.76,-5.14,-0.74,0.74,1.01,1.29,-4.42,-4.39,-4.40
228.96,-5.16,-0.78,-5.14,-0.76,0.76,1.00,1.29,-4.40,-4.38,-4.38
231.25,-5.15,-0.78,-5.14,-0.76,0.76,0.98,1.29,-4.39,-4.37,-4.37
233.57,-5.14,-0.78,-5.13,-0.77,0.77,0.97,1.29,-4.37,-4.36,-4.36
235.90,-5.13,-0.79,-5.12,-0.78,0.78,0.95,1.29,-4.35,-4.34,-4.34
238.26,-5.02,-0.69,-5.13,-0.81,0.81,0.94,1.29,-4.21,-4.32,-4.33
240.64,-5.04,-0.74,-5.13,-0.83,0.83,0.93,1.28,-4.21,-4.30,-4.30
243.05,-5.13,-0.86,-5.12,-0.85,0.85,0.91,1.27,-4.28,-4.27,-4.27
245.48,-5.16,-0.92,-5.11,-0.87,0.87,0.90,1.27,-4.29,-4.25,-4.24
247.93,-5.13,-0.92,-5.11,-0.89,0.89,0.88,1.26,-4.24,-4.22,-4.21
250.41,-5.11,-0.92,-5.11,-0.91,0.91,0.87,1.25,-4.20,-4.20,-4.19
252.92,-5.10,-0.94,-5.10,-0.93,0.93,0.86,1.23,-4.17,-4.17,-4.16
255.45,-5.09,-0.96,-5.09,-0.95,0.95,0.84,1.22,-4.14,-4.14,-4.13
258.00,-5.12,-1.01,-5.08,-0.96,0.96,0.83,1.20,-4.16,-4.12,-4.11
260.58,-5.16,-1.07,-5.07,-0.98,0.98,0.81,1.18,-4.18,-4.09,-4.09
263.19,-5.15,-1.10,-5.06,-1.00,1.00,0.80,1.17,-4.15,-4.06,-4.06
265.82,-4.96,-0.92,-5.05,-1.02,1.02,0.78,1.14,-3.94,-4.03,-4.04
268.48,-4.90,-0.89,-5.03,-1.03,1.03,0.77,1.12,-3.88,-4.01,-4.01
271.16,-5.02,-1.04,-5.01,-1.03,1.03,0.76,1.10,-3.99,-3.98,-3.98
273.87,-5.08,-1.12,-5.00,-1.04,1.04,0.74,1.07,-4.04,-3.95,-3.96
276.61,-4.92,-1.00,-4.99,-1.07,1.07,0.73,1.05,-3.86,-3.93,-3.92
279.38,-4.90,-1.00,-4.98,-1.09,1.09,0.71,1.02,-3.81,-3.90,-3.90
282.17,-4.96,-1.09,-4.98,-1.11,1.11,0.70,0.99,-3.85,-3.87,-3.87
284.99,-4.98,-1.15,-4.97,-1.13,1.13,0.68,0.96,-3.85,-3.84,-3.83
287.84,-4.97,-1.16,-4.96,-1.16,1.16,0.67,0.94,-3.82,-3.81,-3.82
290.72,-4.96,-1.18,-4.95,-1.17,1.17,0.65,0.91,-3.79,-3.78,-3.78
293.63,-4.94,-1.19,-4.93,-1.19,1.19,0.64,0.87,-3.76,-3.75,-3.75
296.57,-4.93,-1.22,-4.92,-1.20,1.20,0.62,0.84,-3.73,-3.71,-3.71
299.53,-4.92,-1.24,-4.89,-1.20,1.20,0.61,0.81,-3.72,-3.69,-3.69
302.53,-4.96,-1.29,-4.86,-1.20,1.20,0.59,0.78,-3.76,-3.66,-3.67
305.55,-4.94,-1.32,-4.84,-1.21,1.21,0.58,0.75,-3.73,-3.63,-3.62
308.61,-4.81,-1.21,-4.83,-1.22,1.22,0.56,0.72,-3.59,-3.61,-3.60
311.69,-4.78,-1.21,-4.80,-1.22,1.22,0.55,0.68,-3.56,-3.58,-3.57
314.81,-4.70,-1.16,-4.77,-1.22,1.22,0.53,0.65,-3.48,-3.56,-3.55
317.96,-4.62,-1.09,-4.75,-1.22,1.22,0.52,0.62,-3.41,-3.54,-3.53
321.14,-4.60,-1.08,-4.72,-1.21,1.21,0.50,0.59,-3.40,-3.52,-3.52
324.35,-4.66,-1.16,-4.69,-1.20,1.20,0.49,0.55,-3.47,-3.50,-3.50
327.59,-4.68,-1.20,-4.67,-1.19,1.19,0.47,0.52,-3.49,-3.48,-3.48
330.87,-4.72,-1.25,-4.65,-1.18,1.18,0.46,0.49,-3.54,-3.47,-3.47
334.18,-4.75,-1.30,-4.62,-1.17,1.17,0.44,0.46,-3.58,-3.46,-3.46
337.52,-4.65,-1.20,-4.60,-1.15,1.15,0.42,0.43,-3.50,-3.44,-3.45
340.90,-4.59,-1.16,-4.58,-1.15,1.15,0.41,0.40,-3.45,-3.44,-3.43
344.30,-4.58,-1.16,-4.58,-1.15,1.15,0.39,0.36,-3.43,-3.43,-3.42
347.75,-4.58,-1.16,-4.57,-1.14,1.14,0.38,0.33,-3.44,-3.42,-3.42
351.23,-4.45,-1.04,-4.55,-1.13,1.13,0.36,0.30,-3.32,-3.42,-3.41
354.74,-4.41,-1.00,-4.52,-1.11,1.11,0.34,0.27,-3.30,-3.41,-3.41
358.28,-4.52,-1.12,-4.48,-1.07,1.07,0.33,0.24,-3.45,-3.41,-3.41
361.87,-4.48,-1.07,-4.43,-1.03,1.03,0.31,0.21,-3.45,-3.41,-3.41
365.49,-4.38,-0.98,-4.40,-0.99,0.99,0.29,0.18,-3.39,-3.40,-3.40
369.14,-4.35,-0.94,-4.36,-0.96,0.96,0.28,0.15,-3.39,-3.40,-3.41
372.83,-4.39,-0.98,-4.33,-0.93,0.93,0.26,0.12,-3.46,-3.40,-3.41
376.56,-4.40,-0.99,-4.31,-0.90,0.90,0.24,0.09,-3.50,-3.41,-3.41
380.33,-4.33,-0.93,-4.28,-0.87,0.87,0.23,0.07,-3.46,-3.41,-3.40
384.13,-4.19,-0.79,-4.25,-0.84,0.84,0.21,0.04,-3.35,-3.41,-3.40
387.97,-4.08,-0.67,-4.23,-0.81,0.81,0.19,0.01,-3.27,-3.42,-3.41
391.85,-4.07,-0.65,-4.19,-0.77,0.77,0.17,-0.02,-3.30,-3.42,-3.42
395.77,-4.11,-0.70,-4.15,-0.73,0.73,0.16,-0.05,-3.39,-3.43,-3.42
399.73,-4.16,-0.74,-4.10,-0.67,0.67,0.14,-0.08,-3.49,-3.43,-3.43
403.72,-4.16,-0.73,-4.07,-0.63,0.63,0.12,-0.10,-3.53,-3.44,-3.43
407.76,-4.06,-0.62,-4.03,-0.59,0.59,0.10,-0.13,-3.48,-3.44,-3.44
411.84,-3.99,-0.55,-3.98,-0.53,0.53,0.08,-0.16,-3.46,-3.44,-3.44
415.96,-3.94,-0.50,-3.92,-0.48,0.48,0.06,-0.19,-3.46,-3.44,-3.44
420.12,-3.87,-0.43,-3.86,-0.42,0.42,0.05,-0.21,-3.45,-3.44,-3.44
424.32,-3.86,-0.42,-3.80,-0.37,0.37,0.03,-0.24,-3.49,-3.43,-3.44
428.56,-3.67,-0.24,-3.74,-0.31,0.31,0.01,-0.27,-3.36,-3.42,-3.43
432.85,-3.56,-0.14,-3.66,-0.25,0.25,-0.01,-0.29,-3.31,-3.41,-3.42
437.18,-3.59,-0.18,-3.56,-0.17,0.17,-0.03,-0.32,-3.42,-3.39,-3.41
441.55,-3.51,-0.14,-3.45,-0.09,0.09,-0.05,-0.35,-3.42,-3.36,-3.37
