frequency,raw,error,smoothed,error_smoothed,equalization,parametric_eq,fixed_band_eq,equalized_raw,equalized_smoothed,target
20.00,-9.50,-12.29,-9.49,-12.29,6.00,4.78,2.79,-3.50,-3.49,2.79
20.20,-9.41,-12.19,-9.41,-12.20,6.00,4.78,2.87,-3.41,-3.41,2.78
20.40,-9.33,-12.10,-9.33,-12.10,6.00,4.78,2.95,-3.33,-3.33,2.77
20.61,-9.24,-12.01,-9.24,-12.01,6.00,4.77,3.04,-3.24,-3.24,2.77
20.81,-9.16,-11.91,-9.15,-11.91,6.00,4.77,3.12,-3.16,-3.15,2.75
21.02,-9.07,-11.82,-9.06,-11.82,6.00,4.77,3.21,-3.07,-3.06,2.75
21.23,-8.97,-11.71,-8.97,-11.72,6.00,4.77,3.30,-2.97,-2.97,2.74
21.44,-8.88,-11.63,-8.87,-11.62,6.00,4.77,3.40,-2.88,-2.87,2.75
21.66,-8.78,-11.52,-8.78,-11.52,6.00,4.77,3.49,-2.78,-2.78,2.74
21.87,-8.69,-11.42,-8.69,-11.42,6.00,4.77,3.60,-2.69,-2.69,2.73
22.09,-8.60,-11.32,-8.60,-11.33,6.00,4.77,3.70,-2.60,-2.60,2.72
22.31,-8.54,-11.26,-8.54,-11.26,6.00,4.76,3.80,-2.54,-2.54,2.72
22.54,-8.48,-11.19,-8.48,-11.19,6.00,4.76,3.91,-2.48,-2.48,2.71
22.76,-8.42,-11.13,-8.42,-11.13,6.00,4.76,4.02,-2.42,-2.42,2.71
22.99,-8.36,-11.06,-8.35,-11.06,6.00,4.76,4.14,-2.36,-2.35,2.70
23.22,-8.29,-10.98,-8.29,-10.99,6.00,4.76,4.25,-2.29,-2.29,2.69
23.45,-8.21,-10.91,-8.21,-10.91,6.00,4.76,4.37,-2.21,-2.21,2.70
23.69,-8.13,-10.82,-8.13,-10.83,6.00,4.76,4.49,-2.13,-2.13,2.69
23.92,-8.05,-10.74,-8.04,-10.74,6.00,4.75,4.62,-2.05,-2.04,2.69
24.16,-7.96,-10.66,-7.96,-10.66,6.00,4.75,4.74,-1.96,-1.96,2.70
24.40,-7.86,-10.57,-7.86,-10.57,6.00,4.75,4.87,-1.86,-1.86,2.71
24.65,-7.76,-10.47,-7.75,-10.47,6.00,4.75,5.00,-1.76,-1.75,2.71
24.89,-7.65,-10.36,-7.66,-10.37,6.00,4.75,5.13,-1.65,-1.66,2.71
25.14,-7.57,-10.28,-7.57,-10.28,6.00,4.74,5.27,-1.57,-1.57,2.71
25.39,-7.50,-10.21,-7.50,-10.21,6.00,4.74,5.40,-1.50,-1.50,2.71
25.65,-7.43,-10.14,-7.43,-10.15,6.00,4.74,5.54,-1.43,-1.43,2.71
25.91,-7.37,-10.09,-7.36,-10.08,6.00,4.74,5.67,-1.37,-1.36,2.72
26.16,-7.28,-10.01,-7.28,-10.01,6.00,4.74,5.81,-1.28,-1.28,2.73
26.43,-7.20,-9.93,-7.19,-9.92,6.00,4.73,5.95,-1.20,-1.19,2.73
26.69,-7.11,-9.84,-7.10,-9.84,6.00,4.73,6.08,-1.11,-1.10,2.73
26.96,-7.02,-9.75,-7.04,-9.77,6.00,4.73,6.21,-1.02,-1.04,2.73
27.23,-7.00,-9.73,-7.00,-9.73,6.00,4.73,6.34,-1.00,-1.00,2.73
27.50,-6.98,-9.71,-6.98,-9.72,6.00,4.72,6.47,-0.98,-0.98,2.73
27.77,-6.97,-9.71,-6.96,-9.70,6.00,4.72,6.59,-0.97,-0.96,2.74
28.05,-6.93,-9.67,-6.90,-9.64,6.00,4.72,6.71,-0.93,-0.90,2.74
28.33,-6.79,-9.52,-6.79,-9.53,6.00,4.72,6.82,-0.79,-0.79,2.73
28.62,-6.65,-9.38,-6.65,-9.39,6.00,4.71,6.93,-0.65,-0.65,2.73
28.90,-6.51,-9.25,-6.52,-9.26,6.00,4.71,7.02,-0.51,-0.52,2.74
29.19,-6.43,-9.17,-6.44,-9.18,6.00,4.71,7.11,-0.43,-0.44,2.74
29.48,-6.40,-9.14,-6.39,-9.14,6.00,4.70,7.19,-0.40,-0.39,2.74
29.78,-6.36,-9.10,-6.35,-9.10,6.00,4.70,7.26,-0.36,-0.35,2.74
30.08,-6.30,-9.05,-6.29,-9.04,6.00,4.70,7.32,-0.30,-0.29,2.75
30.38,-6.20,-8.94,-6.20,-8.95,6.00,4.69,7.37,-0.20,-0.20,2.74
30.68,-6.09,-8.82,-6.10,-8.83,6.00,4.69,7.40,-0.09,-0.10,2.73
30.99,-5.98,-8.71,-5.96,-8.69,6.00,4.69,7.42,0.02,0.04,2.73
31.30,-5.81,-8.53,-5.80,-8.52,6.00,4.68,7.43,0.19,0.20,2.72
31.61,-5.64,-8.36,-5.63,-8.35,6.00,4.68,7.43,0.36,0.37,2.72
31.93,-5.46,-8.17,-5.50,-8.22,6.00,4.67,7.42,0.54,0.50,2.71
32.24,-5.44,-8.15,-5.45,-8.16,6.00,4.67,7.39,0.56,0.55,2.71
32.57,-5.46,-8.16,-5.45,-8.15,6.00,4.67,7.35,0.54,0.55,2.70
32.89,-5.48,-8.18,-5.45,-8.16,6.00,4.66,7.30,0.52,0.55,2.70
33.22,-5.42,-8.12,-5.41,-8.11,6.00,4.66,7.24,0.58,0.59,2.70
33.55,-5.32,-8.02,-5.33,-8.03,6.00,4.65,7.17,0.68,0.67,2.70
33.89,-5.22,-7.93,-5.22,-7.93,6.00,4.65,7.09,0.78,0.78,2.71
34.23,-5.12,-7.82,-5.11,-7.81,6.00,4.64,7.01,0.88,0.89,2.70
34.57,-5.02,-7.72,-5.01,-7.71,6.00,4.64,6.91,0.98,0.99,2.70
34.92,-4.91,-7.61,-4.94,-7.65,6.00,4.63,6.81,1.09,1.06,2.70
35.27,-4.92,-7.63,-4.94,-7.65,6.00,4.63,6.71,1.08,1.06,2.71
35.62,-4.97,-7.67,-4.96,-7.67,6.00,4.62,6.60,1.03,1.04,2.70
35.97,-5.02,-7.72,-4.96,-7.67,6.00,4.61,6.48,0.98,1.04,2.70
36.33,-4.89,-7.58,-4.90,-7.59,6.00,4.61,6.37,1.11,1.10,2.69
36.70,-4.75,-7.43,-4.76,-7.45,6.00,4.60,6.25,1.25,1.24,2.68
37.06,-4.60,-7.27,-4.58,-7.25,6.00,4.59,6.13,1.40,1.42,2.67
37.43,-4.42,-7.07,-4.41,-7.06,6.00,4.59,6.01,1.58,1.59,2.65
37.81,-4.25,-6.89,-4.27,-6.91,6.00,4.58,5.89,1.75,1.73,2.64
38.19,-4.18,-6.80,-4.22,-6.84,6.00,4.57,5.76,1.82,1.78,2.62
38.57,-4.23,-6.83,-4.22,-6.82,6.00,4.56,5.64,1.77,1.78,2.60
38.95,-4.28,-6.86,-4.23,-6.81,6.00,4.55,5.53,1.72,1.77,2.58
39.34,-4.22,-6.77,-4.21,-6.77,6.01,4.55,5.41,1.80,1.81,2.55
39.74,-4.13,-6.67,-4.15,-6.69,6.03,4.54,5.29,1.90,1.88,2.54
40.14,-4.07,-6.59,-4.10,-6.62,6.02,4.53,5.18,1.96,1.92,2.52
40.54,-4.06,-6.56,-4.06,-6.57,6.00,4.52,5.07,1.95,1.94,2.50
40.94,-4.04,-6.52,-3.97,-6.46,5.97,4.51,4.96,1.93,1.99,2.48
41.35,-3.83,-6.30,-3.82,-6.28,5.92,4.50,4.86,2.09,2.10,2.47
41.76,-3.58,-6.02,-3.61,-6.06,5.88,4.49,4.75,2.30,2.27,2.44
42.18,-3.39,-5.82,-3.39,-5.82,5.84,4.48,4.65,2.46,2.46,2.43
42.60,-3.27,-5.69,-3.25,-5.67,5.82,4.47,4.56,2.55,2.56,2.42
43.03,-3.17,-5.57,-3.23,-5.63,5.78,4.45,4.46,2.62,2.56,2.40
43.46,-3.27,-5.65,-3.26,-5.65,5.73,4.44,4.37,2.47,2.47,2.38
43.90,-3.37,-5.74,-3.34,-5.70,5.66,4.43,4.29,2.29,2.32,2.37
44.33,-3.38,-5.73,-3.39,-5.75,5.57,4.42,4.20,2.19,2.18,2.35
44.78,-3.37,-5.70,-3.34,-5.68,5.48,4.40,4.12,2.12,2.14,2.33
45.23,-3.23,-5.56,-3.18,-5.50,5.42,4.39,4.04,2.19,2.24,2.33
45.68,-2.96,-5.26,-2.98,-5.29,5.36,4.37,3.97,2.40,2.38,2.30
46.13,-2.75,-5.02,-2.80,-5.08,5.29,4.36,3.90,2.54,2.49,2.27
46.60,-2.74,-4.99,-2.72,-4.97,5.19,4.34,3.83,2.46,2.48,2.25
47.06,-2.74,-4.97,-2.80,-5.03,5.08,4.33,3.76,2.34,2.28,2.23
47.53,-2.89,-5.10,-2.90,-5.10,4.97,4.31,3.70,2.08,2.07,2.21
48.01,-3.04,-5.21,-2.92,-5.09,4.88,4.29,3.64,1.84,1.96,2.17
48.49,-2.82,-4.96,-2.84,-4.99,4.81,4.27,3.59,1.99,1.97,2.14
48.97,-2.61,-4.72,-2.60,-4.72,4.74,4.25,3.53,2.14,2.14,2.11
49.46,-2.40,-4.49,-2.37,-4.46,4.66,4.23,3.48,2.26,2.28,2.09
49.96,-2.19,-4.23,-2.35,-4.40,4.54,4.21,3.43,2.35,2.19,2.04
50.46,-2.39,-4.41,-2.40,-4.43,4.41,4.19,3.38,2.03,2.01,2.02
50.96,-2.62,-4.62,-2.40,-4.40,4.30,4.17,3.34,1.68,1.90,2.00
51.47,-2.34,-4.32,-2.33,-4.30,4.21,4.14,3.30,1.88,1.89,1.98
51.99,-2.01,-3.96,-2.18,-4.14,4.16,4.12,3.25,2.14,1.97,1.95
52.51,-2.07,-4.00,-2.06,-4.00,4.11,4.09,3.22,2.05,2.05,1.93
53.03,-2.14,-4.06,-2.04,-3.96,4.06,4.06,3.18,1.92,2.02,1.92
53.56,-2.07,-3.96,-2.09,-3.98,3.97,4.04,3.14,1.90,1.88,1.89
54.10,-2.03,-3.89,-2.12,-3.99,3.88,4.01,3.11,1.85,1.75,1.86
54.64,-2.15,-3.99,-2.08,-3.92,3.80,3.98,3.07,1.65,1.72,1.84
55.18,-2.09,-3.91,-1.96,-3.78,3.74,3.94,3.04,1.64,1.78,1.81
55.74,-1.73,-3.52,-1.84,-3.63,3.69,3.91,3.01,1.96,1.85,1.79
56.29,-1.62,-3.40,-1.72,-3.50,3.63,3.88,2.98,2.02,1.91,1.78
56.86,-1.76,-3.53,-1.67,-3.44,3.56,3.84,2.95,1.80,1.89,1.77
57.42,-1.75,-3.49,-1.72,-3.48,3.47,3.80,2.91,1.73,1.75,1.74
58.00,-1.69,-3.43,-1.77,-3.52,3.39,3.76,2.88,1.70,1.62,1.74
58.58,-1.75,-3.49,-1.70,-3.44,3.32,3.72,2.85,1.57,1.61,1.74
59.16,-1.69,-3.43,-1.57,-3.30,3.25,3.68,2.82,1.56,1.68,1.73
59.76,-1.33,-3.05,-1.44,-3.16,3.19,3.64,2.79,1.86,1.75,1.72
60.35,-1.25,-2.94,-1.33,-3.03,3.13,3.59,2.76,1.88,1.79,1.69
60.96,-1.38,-3.05,-1.29,-2.96,3.05,3.54,2.72,1.68,1.76,1.67
61.57,-1.33,-2.97,-1.30,-2.94,2.96,3.49,2.69,1.64,1.67,1.64
62.18,-1.27,-2.88,-1.28,-2.89,2.87,3.44,2.66,1.61,1.60,1.61
62.80,-1.21,-2.79,-1.30,-2.88,2.81,3.38,2.62,1.60,1.51,1.58
63.43,-1.29,-2.85,-1.28,-2.84,2.76,3.32,2.59,1.47,1.48,1.56
64.07,-1.38,-2.93,-1.18,-2.73,2.72,3.26,2.55,1.34,1.54,1.55
64.71,-0.95,-2.48,-1.05,-2.58,2.67,3.20,2.51,1.72,1.62,1.53
65.35,-0.84,-2.36,-0.97,-2.49,2.60,3.13,2.47,1.76,1.63,1.52
66.01,-0.99,-2.49,-0.98,-2.49,2.52,3.07,2.43,1.53,1.54,1.50
66.67,-1.15,-2.65,-1.05,-2.54,2.43,3.00,2.40,1.29,1.38,1.50
67.33,-1.08,-2.55,-1.00,-2.48,2.35,2.92,2.35,1.27,1.34,1.47
68.01,-0.78,-2.24,-0.85,-2.31,2.27,2.85,2.31,1.49,1.42,1.46
68.69,-0.66,-2.10,-0.71,-2.16,2.22,2.77,2.27,1.56,1.51,1.44
69.37,-0.64,-2.08,-0.63,-2.07,2.18,2.69,2.23,1.54,1.54,1.44
70.07,-0.68,-2.10,-0.62,-2.05,2.14,2.60,2.19,1.46,1.51,1.42
70.77,-0.61,-2.02,-0.61,-2.02,2.09,2.52,2.14,1.48,1.48,1.41
71.48,-0.59,-1.99,-0.64,-2.04,2.03,2.43,2.10,1.44,1.40,1.40
72.19,-0.64,-2.02,-0.69,-2.07,1.99,2.34,2.06,1.35,1.30,1.38
72.91,-0.81,-2.18,-0.73,-2.10,1.95,2.24,2.02,1.15,1.23,1.37
73.64,-0.71,-2.07,-0.63,-2.00,1.92,2.15,1.97,1.21,1.29,1.36
74.38,-0.48,-1.84,-0.49,-1.85,1.88,2.06,1.93,1.40,1.38,1.36
75.12,-0.22,-1.57,-0.36,-1.72,1.82,1.97,1.89,1.60,1.47,1.35
75.87,-0.36,-1.72,-0.31,-1.67,1.77,1.87,1.85,1.41,1.46,1.36
76.63,-0.38,-1.74,-0.33,-1.69,1.72,1.78,1.81,1.34,1.39,1.36
77.40,-0.34,-1.71,-0.34,-1.71,1.67,1.69,1.77,1.33,1.32,1.37
78.17,-0.27,-1.64,-0.28,-1.66,1.62,1.61,1.73,1.36,1.34,1.37
78.95,-0.23,-1.62,-0.23,-1.62,1.60,1.53,1.69,1.38,1.37,1.39
79.74,-0.19,-1.59,-0.19,-1.60,1.59,1.45,1.65,1.41,1.40,1.40
80.54,-0.17,-1.58,-0.17,-1.58,1.59,1.38,1.61,1.42,1.42,1.41
81.35,-0.14,-1.56,-0.12,-1.55,1.57,1.31,1.58,1.43,1.45,1.42
82.16,-0.07,-1.51,-0.05,-1.49,1.53,1.26,1.54,1.46,1.48,1.44
82.98,0.01,-1.44,-0.03,-1.48,1.49,1.21,1.50,1.50,1.46,1.45
83.81,0.02,-1.44,-0.04,-1.50,1.44,1.17,1.47,1.47,1.41,1.46
84.65,-0.10,-1.57,-0.02,-1.49,1.41,1.13,1.44,1.31,1.39,1.47
85.50,-0.01,-1.48,0.08,-1.40,1.38,1.10,1.41,1.37,1.46,1.47
86.35,0.26,-1.23,0.20,-1.30,1.35,1.08,1.37,1.61,1.54,1.49
87.22,0.41,-1.10,0.29,-1.22,1.32,1.07,1.34,1.73,1.61,1.51
88.09,0.22,-1.30,0.30,-1.23,1.28,1.06,1.31,1.51,1.58,1.52
88.97,0.22,-1.32,0.25,-1.29,1.25,1.06,1.29,1.47,1.49,1.54
89.86,0.24,-1.30,0.24,-1.31,1.22,1.07,1.26,1.46,1.46,1.54
90.76,0.31,-1.25,0.31,-1.25,1.21,1.08,1.23,1.52,1.53,1.56
91.66,0.38,-1.18,0.37,-1.20,1.23,1.09,1.21,1.61,1.60,1.56
92.58,0.42,-1.16,0.42,-1.16,1.24,1.10,1.18,1.66,1.66,1.58
93.51,0.43,-1.16,0.44,-1.15,1.23,1.12,1.16,1.66,1.67,1.59
94.44,0.43,-1.17,0.41,-1.19,1.20,1.13,1.14,1.63,1.61,1.60
95.39,0.38,-1.22,0.33,-1.27,1.16,1.15,1.11,1.54,1.49,1.60
96.34,0.27,-1.33,0.33,-1.28,1.14,1.16,1.09,1.42,1.47,1.60
97.30,0.30,-1.30,0.44,-1.17,1.13,1.18,1.07,1.44,1.57,1.60
98.28,0.66,-0.94,0.58,-1.02,1.11,1.19,1.05,1.77,1.69,1.60
99.26,0.79,-0.80,0.68,-0.92,1.06,1.21,1.03,1.86,1.75,1.59
100.25,0.62,-0.97,0.63,-0.97,1.00,1.22,1.01,1.63,1.63,1.59
101.25,0.50,-1.10,0.53,-1.07,0.94,1.23,0.99,1.45,1.47,1.60
102.27,0.40,-1.20,0.56,-1.04,0.91,1.24,0.98,1.31,1.47,1.60
103.29,0.74,-0.86,0.69,-0.92,0.92,1.24,0.96,1.66,1.61,1.60
104.32,0.93,-0.68,0.80,-0.81,0.95,1.25,0.94,1.88,1.75,1.61
105.37,0.79,-0.82,0.83,-0.78,0.98,1.25,0.93,1.78,1.82,1.61
106.42,0.67,-0.94,0.72,-0.90,0.99,1.25,0.91,1.66,1.71,1.61
107.48,0.60,-1.00,0.54,-1.07,0.96,1.24,0.89,1.57,1.51,1.60
108.56,0.45,-1.17,0.44,-1.18,0.94,1.24,0.88,1.39,1.38,1.62
109.64,0.36,-1.26,0.48,-1.14,0.93,1.23,0.86,1.30,1.42,1.62
110.74,0.59,-1.03,0.64,-0.98,0.95,1.22,0.85,1.55,1.60,1.62
111.85,0.95,-0.68,0.83,-0.81,0.98,1.21,0.83,1.93,1.80,1.63
112.97,0.99,-0.65,0.94,-0.71,0.98,1.20,0.82,1.97,1.91,1.64
114.10,0.82,-0.83,0.88,-0.77,0.94,1.19,0.80,1.76,1.82,1.65
115.24,0.72,-0.93,0.70,-0.96,0.88,1.17,0.78,1.61,1.58,1.65
116.39,0.58,-1.07,0.58,-1.08,0.84,1.15,0.77,1.42,1.42,1.65
117.55,0.51,-1.16,0.60,-1.06,0.83,1.13,0.75,1.34,1.43,1.67
118.73,0.74,-0.93,0.77,-0.91,0.84,1.12,0.74,1.59,1.61,1.67
119.92,1.01,-0.68,0.98,-0.72,0.87,1.10,0.72,1.88,1.85,1.69
121.12,1.20,-0.52,1.10,-0.61,0.88,1.07,0.70,2.08,1.99,1.72
122.33,1.06,-0.67,1.06,-0.68,0.86,1.05,0.68,1.92,1.92,1.73
123.55,0.88,-0.87,0.91,-0.85,0.81,1.03,0.67,1.70,1.72,1.75
124.79,0.76,-1.01,0.80,-0.97,0.77,1.01,0.65,1.53,1.57,1.77
126.03,0.77,-1.01,0.82,-0.96,0.74,0.98,0.63,1.51,1.56,1.78
127.29,0.99,-0.80,0.94,-0.86,0.73,0.96,0.61,1.72,1.66,1.79
128.57,1.11,-0.69,1.13,-0.67,0.73,0.93,0.59,1.84,1.86,1.80
129.85,1.25,-0.56,1.29,-0.52,0.71,0.90,0.57,1.96,2.00,1.81
131.15,1.45,-0.37,1.35,-0.48,0.67,0.88,0.54,2.12,2.01,1.82
132.46,1.29,-0.54,1.28,-0.55,0.62,0.85,0.52,1.91,1.90,1.83
133.79,1.17,-0.67,1.19,-0.66,0.59,0.82,0.50,1.77,1.78,1.84
135.12,1.02,-0.83,1.14,-0.72,0.58,0.80,0.48,1.60,1.72,1.85
136.48,1.23,-0.64,1.20,-0.67,0.58,0.77,0.45,1.81,1.77,1.87
137.84,1.34,-0.54,1.28,-0.59,0.58,0.74,0.43,1.92,1.86,1.88
139.22,1.35,-0.52,1.36,-0.53,0.57,0.71,0.40,1.92,1.93,1.87
140.61,1.35,-0.54,1.35,-0.54,0.56,0.68,0.38,1.91,1.90,1.89
142.02,1.35,-0.54,1.40,-0.49,0.53,0.66,0.35,1.89,1.93,1.89
143.44,1.40,-0.49,1.46,-0.43,0.50,0.63,0.33,1.91,1.97,1.89
144.87,1.61,-0.29,1.45,-0.45,0.48,0.60,0.30,2.09,1.93,1.90
146.32,1.42,-0.49,1.41,-0.50,0.47,0.57,0.27,1.89,1.88,1.91
147.78,1.23,-0.68,1.39,-0.52,0.45,0.54,0.25,1.69,1.85,1.91
149.26,1.42,-0.49,1.39,-0.52,0.43,0.52,0.22,1.86,1.83,1.91
150.75,1.55,-0.35,1.48,-0.43,0.42,0.49,0.19,1.97,1.90,1.90
152.26,1.55,-0.36,1.56,-0.35,0.42,0.46,0.16,1.97,1.98,1.91
153.78,1.55,-0.36,1.57,-0.35,0.42,0.43,0.13,1.97,1.98,1.91
155.32,1.55,-0.36,1.55,-0.36,0.40,0.40,0.10,1.96,1.96,1.91
156.88,1.55,-0.35,1.57,-0.33,0.37,0.37,0.07,1.93,1.94,1.90
158.44,1.55,-0.34,1.53,-0.37,0.33,0.34,0.04,1.89,1.86,1.89
160.03,1.55,-0.33,1.46,-0.42,0.29,0.32,0.01,1.85,1.75,1.88
161.63,1.37,-0.50,1.51,-0.36,0.26,0.29,-0.02,1.63,1.77,1.87
163.24,1.51,-0.34,1.62,-0.24,0.22,0.26,-0.05,1.73,1.83,1.85
164.88,1.93,0.09,1.73,-0.11,0.16,0.23,-0.08,2.10,1.90,1.84
166.53,1.82,-0.00,1.83,0.01,0.11,0.20,-0.11,1.93,1.94,1.82
168.19,1.76,-0.05,1.82,0.01,0.07,0.17,-0.14,1.83,1.89,1.81
169.87,1.73,-0.06,1.73,-0.06,0.05,0.15,-0.17,1.78,1.78,1.79
171.57,1.72,-0.05,1.72,-0.05,0.04,0.12,-0.21,1.76,1.76,1.77
173.29,1.72,-0.03,1.73,-0.02,0.05,0.09,-0.24,1.77,1.78,1.75
175.02,1.71,-0.03,1.71,-0.03,0.06,0.06,-0.27,1.77,1.77,1.74
176.77,1.71,-0.01,1.64,-0.09,0.06,0.03,-0.31,1.77,1.70,1.72
178.54,1.54,-0.16,1.58,-0.13,0.05,-0.00,-0.34,1.59,1.62,1.70
180.32,1.49,-0.19,1.59,-0.10,0.01,-0.03,-0.37,1.51,1.60,1.68
182.13,1.68,0.01,1.66,-0.02,-0.03,-0.06,-0.41,1.65,1.63,1.67
183.95,1.83,0.17,1.77,0.11,-0.07,-0.09,-0.44,1.77,1.70,1.66
185.79,1.84,0.20,1.85,0.21,-0.11,-0.12,-0.48,1.73,1.74,1.64
187.65,1.85,0.22,1.87,0.24,-0.18,-0.15,-0.51,1.68,1.69,1.63
189.52,1.87,0.26,1.87,0.25,-0.25,-0.18,-0.55,1.63,1.62,1.61
191.42,1.88,0.27,1.88,0.27,-0.31,-0.22,-0.58,1.57,1.56,1.61
193.33,1.90,0.31,1.89,0.29,-0.37,-0.25,-0.62,1.54,1.52,1.59
195.27,1.91,0.34,1.94,0.36,-0.40,-0.28,-0.66,1.51,1.54,1.57
197.22,1.98,0.43,2.04,0.49,-0.44,-0.31,-0.69,1.55,1.61,1.55
199.19,2.16,0.62,2.09,0.55,-0.48,-0.35,-0.73,1.69,1.61,1.54
201.18,2.17,0.65,2.08,0.56,-0.52,-0.38,-0.76,1.65,1.56,1.52
203.19,1.94,0.43,2.06,0.55,-0.56,-0.41,-0.80,1.38,1.50,1.51
205.23,2.01,0.51,2.04,0.54,-0.60,-0.45,-0.83,1.41,1.44,1.50
207.28,2.14,0.65,2.08,0.59,-0.63,-0.48,-0.87,1.51,1.45,1.49
209.35,2.15,0.68,2.15,0.67,-0.65,-0.52,-0.90,1.50,1.50,1.47
211.44,2.15,0.70,2.16,0.70,-0.67,-0.55,-0.93,1.48,1.49,1.45
213.56,2.14,0.70,2.15,0.71,-0.69,-0.58,-0.97,1.45,1.46,1.44
215.69,2.14,0.72,2.14,0.72,-0.72,-0.62,-1.00,1.43,1.43,1.42
217.85,2.14,0.73,2.14,0.73,-0.74,-0.65,-1.03,1.41,1.40,1.41
220.03,2.13,0.75,2.14,0.75,-0.76,-0.69,-1.06,1.38,1.38,1.38
222.23,2.13,0.76,2.13,0.76,-0.77,-0.72,-1.08,1.36,1.36,1.37
224.45,2.13,0.77,2.13,0.77,-0.77,-0.76,-1.11,1.36,1.36,1.36
226.70,2.13,0.78,2.13,0.77,-0.77,-0.79,-1.13,1.36,1.36,1.35
228.96,2.13,0.78,2.14,0.78,-0.77,-0.82,-1.15,1.37,1.37,1.35
231.25,2.14,0.79,2.15,0.80,-0.76,-0.85,-1.17,1.38,1.39,1.35
233.57,2.15,0.81,2.15,0.81,-0.77,-0.88,-1.18,1.39,1.39,1.34
235.90,2.16,0.82,2.11,0.76,-0.78,-0.91,-1.20,1.38,1.33,1.34
238.26,2.07,0.73,2.08,0.73,-0.80,-0.93,-1.21,1.27,1.28,1.34
240.64,2.01,0.65,2.11,0.75,-0.83,-0.96,-1.21,1.18,1.28,1.36
243.05,2.22,0.86,2.18,0.82,-0.86,-0.98,-1.22,1.36,1.32,1.36
245.48,2.33,0.97,2.29,0.92,-0.89,-1.00,-1.22,1.44,1.40,1.36
247.93,2.36,1.00,2.37,1.00,-0.92,-1.02,-1.22,1.44,1.45,1.36
250.41,2.38,1.00,2.39,1.01,-0.96,-1.03,-1.21,1.42,1.43,1.38
252.92,2.39,1.00,2.40,1.01,-1.01,-1.04,-1.20,1.38,1.39,1.39
255.45,2.41,1.03,2.41,1.01,-1.05,-1.05,-1.19,1.36,1.36,1.38
258.00,2.41,1.02,2.41,1.01,-1.07,-1.05,-1.18,1.34,1.34,1.39
260.58,2.42,1.03,2.44,1.05,-1.07,-1.05,-1.16,1.35,1.37,1.39
263.19,2.45,1.06,2.49,1.10,-1.06,-1.05,-1.14,1.39,1.43,1.39
265.82,2.57,1.19,2.50,1.12,-1.05,-1.04,-1.11,1.52,1.45,1.38
268.48,2.49,1.11,2.47,1.09,-1.05,-1.03,-1.08,1.44,1.42,1.38
271.16,2.35,0.98,2.40,1.02,-1.04,-1.02,-1.05,1.31,1.36,1.37
273.87,2.31,0.94,2.33,0.96,-1.02,-1.01,-1.02,1.30,1.31,1.37
276.61,2.31,0.95,2.30,0.94,-0.98,-0.99,-0.98,1.33,1.32,1.36
279.38,2.31,0.97,2.32,0.96,-0.93,-0.97,-0.95,1.38,1.39,1.34
282.17,2.31,0.96,2.32,0.96,-0.88,-0.94,-0.91,1.43,1.43,1.35
284.99,2.29,0.94,2.25,0.89,-0.85,-0.92,-0.87,1.44,1.40,1.35
287.84,2.18,0.82,2.16,0.80,-0.83,-0.89,-0.82,1.35,1.33,1.36
290.72,2.01,0.66,2.10,0.74,-0.83,-0.86,-0.78,1.18,1.27,1.35
293.63,2.10,0.74,2.12,0.76,-0.84,-0.83,-0.73,1.27,1.28,1.36
296.57,2.20,0.83,2.17,0.80,-0.85,-0.80,-0.68,1.36,1.32,1.37
299.53,2.32,0.95,2.25,0.87,-0.86,-0.77,-0.63,1.47,1.40,1.37
302.53,2.20,0.82,2.30,0.91,-0.86,-0.73,-0.58,1.34,1.43,1.38
305.55,2.34,0.96,2.33,0.94,-0.87,-0.70,-0.53,1.47,1.45,1.38
308.61,2.36,0.97,2.34,0.95,-0.88,-0.67,-0.48,1.48,1.45,1.39
311.69,2.32,0.94,2.31,0.92,-0.88,-0.63,-0.43,1.45,1.43,1.38
314.81,2.23,0.84,2.21,0.82,-0.85,-0.60,-0.37,1.39,1.36,1.39
317.96,2.07,0.69,2.15,0.76,-0.81,-0.56,-0.32,1.27,1.34,1.38
321.14,2.10,0.71,2.12,0.73,-0.77,-0.53,-0.27,1.34,1.36,1.39
324.35,2.19,0.80,2.13,0.73,-0.73,-0.49,-0.21,1.46,1.39,1.39
327.59,2.13,0.73,2.13,0.73,-0.71,-0.46,-0.16,1.42,1.42,1.40
330.87,2.07,0.67,2.07,0.67,-0.70,-0.42,-0.10,1.37,1.37,1.40
334.18,2.02,0.63,2.04,0.63,-0.70,-0.39,-0.05,1.33,1.34,1.39
337.52,2.01,0.61,2.08,0.68,-0.69,-0.36,0.01,1.32,1.38,1.40
340.90,2.15,0.75,2.12,0.72,-0.68,-0.33,0.07,1.48,1.45,1.40
344.30,2.20,0.79,2.11,0.70,-0.64,-0.29,0.12,1.56,1.47,1.41
347.75,2.03,0.61,2.07,0.65,-0.59,-0.26,0.18,1.45,1.48,1.42
351.23,1.90,0.49,1.98,0.56,-0.52,-0.23,0.24,1.38,1.46,1.41
354.74,1.93,0.50,1.89,0.46,-0.46,-0.20,0.29,1.48,1.43,1.43
358.28,1.86,0.43,1.80,0.36,-0.38,-0.17,0.35,1.48,1.42,1.43
361.87,1.66,0.22,1.69,0.25,-0.29,-0.14,0.41,1.37,1.40,1.44
365.49,1.54,0.09,1.61,0.16,-0.21,-0.11,0.46,1.33,1.40,1.45
369.14,1.58,0.12,1.57,0.11,-0.14,-0.08,0.52,1.44,1.43,1.46
372.83,1.63,0.16,1.56,0.09,-0.08,-0.05,0.58,1.55,1.48,1.47
376.56,1.51,0.04,1.54,0.06,-0.04,-0.02,0.64,1.47,1.50,1.47
380.33,1.46,-0.01,1.49,0.01,-0.01,0.01,0.70,1.46,1.49,1.47
384.13,1.46,-0.02,1.46,-0.02,0.02,0.04,0.75,1.49,1.48,1.48
387.97,1.46,-0.02,1.44,-0.05,0.04,0.06,0.81,1.51,1.48,1.48
391.85,1.43,-0.05,1.41,-0.07,0.06,0.09,0.87,1.50,1.48,1.48
395.77,1.33,-0.14,1.40,-0.08,0.08,0.12,0.93,1.42,1.48,1.47
399.73,1.39,-0.08,1.37,-0.11,0.10,0.15,0.99,1.50,1.47,1.47
403.72,1.37,-0.11,1.33,-0.14,0.12,0.18,1.05,1.50,1.45,1.48
407.76,1.28,-0.18,1.32,-0.15,0.15,0.20,1.10,1.43,1.47,1.46
411.84,1.26,-0.20,1.31,-0.16,0.19,0.23,1.16,1.45,1.50,1.46
415.96,1.31,-0.15,1.27,-0.19,0.23,0.26,1.22,1.54,1.50,1.46
420.12,1.29,-0.16,1.22,-0.24,0.27,0.29,1.27,1.56,1.49,1.45
424.32,1.07,-0.39,1.16,-0.31,0.31,0.32,1.33,1.38,1.47,1.46
428.56,1.07,-0.41,1.09,-0.39,0.35,0.35,1.38,1.42,1.44,1.48
432.85,1.12,-0.38,1.05,-0.45,0.38,0.37,1.44,1.50,1.43,1.50
437.18,1.04,-0.47,1.07,-0.46,0.42,0.40,1.49,1.46,1.49,1.51
441.55,1.05,-0.50,1.09,-0.46,0.46,0.43,1.54,1.52,1.55,1.55
445.96,1.12,-0.47,1.12,-0.47,0.50,0.46,1.59,1.63,1.62,1.59
450.42,1.20,-0.43,1.16,-0.48,0.54,0.49,1.64,1.74,1.70,1.63
454.93,1.15,-0.53,1.15,-0.53,0.58,0.52,1.68,1.73,1.73,1.68
459.48,1.11,-0.63,1.11,-0.63,0.62,0.56,1.73,1.73,1.73,1.74
464.07,1.06,-0.75,1.09,-0.71,0.67,0.59,1.77,1.73,1.76,1.81
468.71,1.09,-0.77,1.11,-0.76,0.72,0.62,1.81,1.81,1.83,1.86
473.40,1.18,-0.74,1.14,-0.78,0.78,0.66,1.84,1.96,1.92,1.92
478.13,1.16,-0.82,1.16,-0.82,0.84,0.69,1.88,2.00,2.00,1.98
482.91,1.15,-0.88,1.16,-0.88,0.90,0.72,1.91,2.05,2.05,2.03
487.74,1.11,-0.96,1.12,-0.95,0.95,0.76,1.94,2.06,2.07,2.07
492.62,1.11,-1.00,1.11,-1.00,1.01,0.80,1.97,2.12,2.12,2.11
497.55,1.08,-1.07,1.09,-1.06,1.07,0.84,1.99,2.15,2.16,2.15
502.52,1.08,-1.09,1.05,-1.13,1.13,0.88,2.01,2.21,2.18,2.17
507.55,0.98,-1.22,1.00,-1.20,1.20,0.92,2.03,2.18,2.19,2.20
512.62,0.90,-1.31,0.95,-1.27,1.26,0.96,2.04,2.16,2.21,2.21
517.75,0.92,-1.30,0.88,-1.35,1.33,1.00,2.05,2.25,2.20,2.22
522.93,0.83,-1.39,0.82,-1.39,1.40,1.05,2.06,2.23,2.22,2.22
528.16,0.71,-1.49,0.76,-1.44,1.47,1.09,2.07,2.18,2.23,2.20
