frequency,raw
20.00,-1.38
20.20,-1.36
20.40,-1.34
20.61,-1.32
20.81,-1.31
21.02,-1.29
21.23,-1.27
21.44,-1.25
21.66,-1.23
21.87,-1.21
22.09,-1.19
22.31,-1.17
22.54,-1.15
22.76,-1.13
22.99,-1.11
23.22,-1.09
23.45,-1.06
23.69,-1.04
23.92,-1.02
24.16,-0.99
24.40,-0.97
24.65,-0.94
24.89,-0.92
25.14,-0.90
25.39,-0.87
25.65,-0.84
25.91,-0.82
26.16,-0.79
26.43,-0.76
26.69,-0.73
26.96,-0.70
27.23,-0.67
27.50,-0.64
27.77,-0.61
28.05,-0.58
28.33,-0.56
28.62,-0.53
28.90,-0.50
29.19,-0.47
29.48,-0.43
29.78,-0.40
30.08,-0.37
30.38,-0.35
30.68,-0.33
30.99,-0.31
31.30,-0.28
31.61,-0.25
31.93,-0.22
32.24,-0.18
32.57,-0.14
32.89,-0.10
33.22,-0.06
33.55,-0.01
33.89,0.03
34.23,0.09
34.57,0.14
34.92,0.20
35.27,0.24
35.62,0.28
35.97,0.33
36.33,0.38
36.70,0.44
37.06,0.49
37.43,0.55
37.81,0.60
38.19,0.66
38.57,0.72
38.95,0.77
39.34,0.83
39.74,0.88
40.14,0.93
40.54,0.97
40.94,1.02
41.35,1.07
41.76,1.11
42.18,1.15
42.60,1.18
43.03,1.22
43.46,1.27
43.90,1.31
44.33,1.35
44.78,1.39
45.23,1.43
45.68,1.47
46.13,1.51
46.60,1.55
47.06,1.58
47.53,1.62
48.01,1.65
48.49,1.68
48.97,1.71
49.46,1.73
49.96,1.76
50.46,1.79
50.96,1.82
51.47,1.84
51.99,1.86
52.51,1.88
53.03,1.89
53.56,1.91
54.10,1.92
54.64,1.93
55.18,1.94
55.74,1.95
56.29,1.96
56.86,1.97
57.42,1.97
58.00,1.98
58.58,1.99
59.16,1.99
59.76,1.99
60.35,1.99
60.96,1.98
61.57,1.97
62.18,1.97
62.80,1.97
63.43,1.97
64.07,1.97
64.71,1.97
65.35,1.97
66.01,1.97
66.67,1.97
67.33,1.97
68.01,1.97
68.69,1.96
69.37,1.96
70.07,1.95
70.77,1.95
71.48,1.95
72.19,1.96
72.91,1.96
73.64,1.96
74.38,1.96
75.12,1.97
75.87,1.99
76.63,2.00
77.40,2.02
78.17,2.04
78.95,2.06
79.74,2.08
80.54,2.11
81.35,2.13
82.16,2.15
82.98,2.18
83.81,2.20
84.65,2.23
85.50,2.25
86.35,2.27
87.22,2.28
88.09,2.29
88.97,2.29
89.86,2.30
90.76,2.30
91.66,2.30
92.58,2.30
93.51,2.29
94.44,2.29
95.39,2.29
96.34,2.29
97.30,2.29
98.28,2.28
99.26,2.27
100.25,2.27
101.25,2.27
102.27,2.28
103.29,2.29
104.32,2.31
105.37,2.34
106.42,2.37
107.48,2.40
108.56,2.44
109.64,2.48
110.74,2.51
111.85,2.55
112.97,2.58
114.10,2.60
115.24,2.62
116.39,2.63
117.55,2.64
118.73,2.63
119.92,2.62
121.12,2.62
122.33,2.61
123.55,2.61
124.79,2.61
126.03,2.61
127.29,2.61
128.57,2.61
129.85,2.61
131.15,2.61
132.46,2.61
133.79,2.61
135.12,2.61
136.48,2.61
137.84,2.61
139.22,2.61
140.61,2.61
142.02,2.61
143.44,2.61
144.87,2.61
146.32,2.61
147.78,2.61
149.26,2.61
150.75,2.61
152.26,2.61
153.78,2.61
155.32,2.61
156.88,2.61
158.44,2.61
160.03,2.60
161.63,2.59
163.24,2.59
164.88,2.60
166.53,2.61
168.19,2.62
169.87,2.66
171.57,2.68
173.29,2.71
175.02,2.75
176.77,2.79
178.54,2.81
180.32,2.85
182.13,2.88
183.95,2.91
185.79,2.94
187.65,2.95
189.52,2.96
191.42,2.96
193.33,2.96
195.27,2.95
197.22,2.95
199.19,2.96
201.18,2.96
203.19,2.95
205.23,2.94
207.28,2.92
209.35,2.90
211.44,2.87
213.56,2.84
215.69,2.80
217.85,2.76
220.03,2.73
222.23,2.70
224.45,2.66
226.70,2.62
228.96,2.61
231.25,2.60
233.57,2.60
235.90,2.62
238.26,2.64
240.64,2.67
243.05,2.68
245.48,2.70
247.93,2.71
250.41,2.72
252.92,2.72
255.45,2.72
258.00,2.71
260.58,2.68
263.19,2.66
265.82,2.62
268.48,2.60
271.16,2.58
273.87,2.55
276.61,2.54
279.38,2.55
282.17,2.55
284.99,2.56
287.84,2.56
290.72,2.55
293.63,2.53
296.57,2.52
299.53,2.50
302.53,2.48
305.55,2.46
308.61,2.43
311.69,2.40
314.81,2.37
317.96,2.34
321.14,2.31
324.35,2.28
327.59,2.27
330.87,2.27
334.18,2.27
337.52,2.29
340.90,2.30
344.30,2.31
347.75,2.31
351.23,2.30
354.74,2.29
358.28,2.26
361.87,2.24
365.49,2.21
369.14,2.19
372.83,2.17
376.56,2.13
380.33,2.09
384.13,2.05
387.97,2.01
391.85,1.96
395.77,1.92
399.73,1.88
403.72,1.84
407.76,1.79
411.84,1.75
415.96,1.71
420.12,1.66
424.32,1.59
428.56,1.54
432.85,1.48
437.18,1.41
441.55,1.35
445.96,1.28
450.42,1.21
454.93,1.15
459.48,1.07
464.07,0.99
468.71,0.93
473.40,0.84
478.13,0.77
482.91,0.71
487.74,0.65
492.62,0.59
497.55,0.53
502.52,0.48
507.55,0.43
512.62,0.37
517.75,0.32
522.93,0.29
528.16,0.25
533.44,0.20
538.77,0.15
544.16,0.11
549.60,0.07
555.10,0.03
560.65,-0.03
566.25,-0.08
571.92,-0.15
577.64,-0.21
583.41,-0.26
589.25,-0.32
595.14,-0.39
601.09,-0.46
607.10,-0.54
613.17,-0.61
619.30,-0.69
625.50,-0.76
631.75,-0.83
638.07,-0.91
644.45,-0.99
650.89,-1.08
657.40,-1.15
663.98,-1.23
670.62,-1.29
677.32,-1.35
684.10,-1.41
690.94,-1.47
697.85,-1.53
704.83,-1.59
711.87,-1.65
718.99,-1.69
726.18,-1.73
733.44,-1.77
740.78,-1.81
748.19,-1.84
755.67,-1.88
763.23,-1.91
770.86,-1.93
778.57,-1.95
786.35,-1.95
794.22,-1.95
802.16,-1.93
810.18,-1.88
818.28,-1.83
826.46,-1.79
834.73,-1.74
843.08,-1.67
851.51,-1.61
860.02,-1.54
868.62,-1.46
877.31,-1.38
886.08,-1.28
894.94,-1.19
903.89,-1.10
912.93,-1.01
922.06,-0.92
931.28,-0.81
940.59,-0.70
950.00,-0.59
959.50,-0.49
969.09,-0.37
978.78,-0.25
988.57,-0.13
998.46,-0.02
1008.44,0.09
1018.53,0.20
1028.71,0.31
1039.00,0.44
1049.39,0.54
1059.88,0.66
1070.48,0.79
1081.19,0.92
1092.00,1.04
1102.92,1.17
1113.95,1.30
1125.09,1.42
1136.34,1.56
1147.70,1.69
1159.18,1.83
1170.77,1.97
1182.48,2.12
1194.30,2.26
1206.25,2.41
1218.31,2.57
1230.49,2.72
1242.80,2.86
1255.22,3.00
1267.78,3.13
1280.45,3.25
1293.26,3.35
1306.19,3.44
1319.25,3.50
1332.45,3.55
1345.77,3.60
1359.23,3.63
1372.82,3.66
1386.55,3.66
1400.41,3.65
1414.42,3.63
1428.56,3.60
1442.85,3.56
1457.28,3.50
1471.85,3.44
1486.57,3.36
1501.43,3.27
1516.45,3.16
1531.61,3.03
1546.93,2.89
1562.40,2.75
1578.02,2.61
1593.80,2.44
1609.74,2.28
1625.84,2.12
1642.10,1.97
1658.52,1.81
1675.10,1.68
1691.85,1.54
1708.77,1.40
1725.86,1.27
1743.12,1.14
1760.55,1.00
1778.15,0.85
1795.94,0.70
1813.90,0.54
1832.03,0.37
1850.36,0.18
1868.86,-0.01
1887.55,-0.20
1906.42,-0.38
1925.49,-0.58
1944.74,-0.81
1964.19,-1.01
1983.83,-1.22
2003.67,-1.43
2023.71,-1.63
2043.94,-1.81
2064.38,-1.98
2085.03,-2.14
2105.88,-2.30
2126.94,-2.46
2148.20,-2.61
2169.69,-2.73
2191.38,-2.84
2213.30,-2.92
2235.43,-2.99
2257.78,-3.03
2280.36,-3.06
2303.17,-3.07
2326.20,-3.07
2349.46,-3.05
2372.95,-3.03
2396.68,-2.98
2420.65,-2.92
2444.86,-2.87
2469.31,-2.82
2494.00,-2.78
2518.94,-2.75
2544.13,-2.73
2569.57,-2.74
2595.27,-2.75
2621.22,-2.76
2647.43,-2.77
2673.90,-2.78
2700.64,-2.80
2727.65,-2.82
2754.93,-2.85
2782.48,-2.88
2810.30,-2.91
2838.40,-2.92
2866.79,-2.92
2895.46,-2.91
2924.41,-2.91
2953.65,-2.92
2983.19,-2.92
3013.02,-2.92
3043.15,-2.91
3073.58,-2.91
3104.32,-2.90
3135.36,-2.88
3166.72,-2.85
3198.38,-2.83
3230.37,-2.78
3262.67,-2.73
3295.30,-2.67
3328.25,-2.60
3361.53,-2.51
3395.15,-2.41
3429.10,-2.31
3463.39,-2.19
3498.03,-2.07
3533.01,-1.94
3568.34,-1.80
3604.02,-1.65
3640.06,-1.47
3676.46,-1.28
3713.22,-1.06
3750.36,-0.83
3787.86,-0.57
3825.74,-0.27
3864.00,0.06
3902.64,0.43
3941.66,0.83
3981.08,1.26
4020.89,1.72
4061.10,2.23
4101.71,2.78
4142.73,3.36
4184.15,3.98
4226.00,4.61
4268.26,5.25
4310.94,5.91
4354.05,6.59
4397.59,7.27
4441.56,7.91
4485.98,8.50
4530.84,9.06
4576.15,9.59
4621.91,10.07
4668.13,10.49
4714.81,10.87
4761.96,11.17
4809.58,11.43
4857.67,11.63
4906.25,11.77
4955.31,11.87
5004.87,11.93
5054.91,11.95
5105.46,11.93
5156.52,11.89
5208.08,11.81
5260.16,11.69
5312.77,11.52
5365.89,11.30
5419.55,11.03
5473.75,10.69
5528.49,10.30
5583.77,9.84
5639.61,9.33
5696.00,8.75
5752.96,8.09
5810.49,7.38
5868.60,6.63
5927.28,5.84
5986.56,5.04
6046.42,4.24
6106.89,3.45
6167.96,2.70
6229.64,2.00
6291.93,1.35
6354.85,0.78
6418.40,0.30
6482.58,-0.08
6547.41,-0.36
6612.88,-0.56
6679.01,-0.69
6745.80,-0.73
6813.26,-0.72
6881.39,-0.66
6950.21,-0.56
7019.71,-0.40
7089.91,-0.22
7160.81,-0.03
7232.41,0.16
7304.74,0.35
7377.79,0.55
7451.56,0.75
7526.08,0.95
7601.34,1.15
7677.35,1.36
7754.13,1.53
7831.67,1.70
7909.98,1.86
7989.08,2.00
8068.98,2.10
8149.67,2.17
8231.16,2.19
8313.47,2.17
8396.61,2.12
8480.57,2.03
8565.38,1.90
8651.03,1.73
8737.54,1.52
8824.92,1.27
8913.17,0.98
9002.30,0.68
9092.32,0.35
9183.25,0.00
9275.08,-0.37
9367.83,-0.76
9461.51,-1.17
9556.12,-1.58
9651.68,-1.97
9748.20,-2.34
9845.68,-2.67
9944.14,-2.95
10043.58,-3.18
10144.02,-3.35
10245.46,-3.43
10347.91,-3.47
10451.39,-3.42
10555.91,-3.32
10661.46,-3.16
10768.08,-2.96
10875.76,-2.74
10984.52,-2.51
11094.36,-2.29
11205.31,-2.08
11317.36,-1.91
11430.53,-1.78
11544.84,-1.70
11660.29,-1.66
11776.89,-1.66
11894.66,-1.70
12013.60,-1.79
12133.74,-1.91
12255.08,-2.07
12377.63,-2.28
12501.41,-2.53
12626.42,-2.82
12752.68,-3.14
12880.21,-3.50
13009.01,-3.89
13139.10,-4.30
13270.49,-4.72
13403.20,-5.16
13537.23,-5.59
13672.60,-5.99
13809.33,-6.35
13947.42,-6.62
14086.90,-6.81
14227.77,-6.92
14370.04,-6.92
14513.74,-6.83
14658.88,-6.63
14805.47,-6.35
14953.52,-5.99
15103.06,-5.56
15254.09,-5.10
15406.63,-4.61
15560.70,-4.12
15716.30,-3.64
15873.47,-3.18
16032.20,-2.75
16192.52,-2.37
16354.45,-2.02
16517.99,-1.71
16683.17,-1.44
16850.01,-1.18
17018.51,-0.93
17188.69,-0.72
17360.58,-0.54
17534.18,-0.37
17709.53,-0.21
17886.62,-0.06
18065.49,0.06
18246.14,0.16
18428.60,0.25
18612.89,0.32
18799.02,0.37
18987.01,0.40
19176.88,0.41
19368.65,0.40
19562.33,0.38
19757.96,0.34
19955.54,0.28
