frequency,raw,error,smoothed,error_smoothed,equalization,parametric_eq,equalized_raw,equalized_smoothed,target
20,-0.28,-1.67,-0.28,-1.67,1.67,0.08,1.39,1.39,1.39
21,-0.08,-1.47,-0.08,-1.47,1.47,0.10,1.39,1.39,1.39
22,0.11,-1.27,0.11,-1.28,1.28,0.14,1.40,1.39,1.39
23,0.26,-1.12,0.28,-1.11,1.11,0.17,1.37,1.39,1.39
24,0.43,-0.95,0.44,-0.95,0.95,0.21,1.38,1.38,1.38
25,0.58,-0.80,0.58,-0.80,0.80,0.25,1.39,1.38,1.38
26,0.75,-0.62,0.71,-0.67,0.67,0.29,1.43,1.38,1.38
27,0.81,-0.56,0.82,-0.55,0.55,0.32,1.37,1.37,1.37
28,0.88,-0.48,0.92,-0.45,0.45,0.35,1.33,1.37,1.37
29,1.02,-0.34,1.02,-0.35,0.35,0.36,1.37,1.37,1.37
30,1.09,-0.27,1.11,-0.25,0.25,0.36,1.35,1.36,1.36
31,1.18,-0.17,1.19,-0.17,0.17,0.35,1.35,1.36,1.36
32,1.27,-0.07,1.26,-0.09,0.09,0.32,1.36,1.35,1.35
33,1.33,-0.01,1.34,-0.01,0.01,0.28,1.34,1.34,1.34
34,1.39,0.06,1.40,0.07,-0.07,0.23,1.33,1.34,1.34
35,1.48,0.16,1.47,0.14,-0.14,0.17,1.34,1.33,1.33
36,1.51,0.19,1.53,0.21,-0.21,0.10,1.30,1.32,1.32
37,1.58,0.27,1.59,0.28,-0.28,0.03,1.30,1.31,1.31
38,1.66,0.36,1.65,0.35,-0.35,-0.05,1.31,1.30,1.30
39,1.70,0.41,1.71,0.42,-0.42,-0.13,1.29,1.29,1.29
40,1.74,0.46,1.76,0.48,-0.48,-0.21,1.26,1.28,1.28
41,1.81,0.54,1.82,0.54,-0.54,-0.29,1.27,1.27,1.27
42,1.88,0.63,1.86,0.60,-0.60,-0.37,1.28,1.26,1.26
43,1.91,0.67,1.90,0.66,-0.66,-0.46,1.26,1.25,1.25
44,1.94,0.71,1.94,0.71,-0.71,-0.54,1.23,1.23,1.23
45,1.98,0.77,1.98,0.76,-0.76,-0.62,1.23,1.22,1.22
46,1.99,0.79,2.01,0.80,-0.80,-0.70,1.19,1.20,1.20
47,2.03,0.85,2.03,0.85,-0.85,-0.78,1.19,1.19,1.19
48,2.03,0.87,2.06,0.89,-0.89,-0.87,1.15,1.17,1.17
49,2.08,0.94,2.08,0.93,-0.93,-0.95,1.16,1.15,1.15
50,2.14,1.01,2.10,0.97,-0.97,-1.03,1.17,1.13,1.13
51,2.13,1.02,2.13,1.02,-1.02,-1.11,1.12,1.11,1.11
52,2.13,1.04,2.15,1.06,-1.06,-1.19,1.07,1.09,1.09
53,2.13,1.07,2.19,1.12,-1.12,-1.27,1.02,1.07,1.07
54,2.22,1.18,2.23,1.18,-1.18,-1.35,1.05,1.05,1.05
55,2.27,1.25,2.27,1.25,-1.25,-1.42,1.03,1.02,1.02
56,2.31,1.32,2.32,1.32,-1.32,-1.50,1.00,1.00,1.00
57,2.35,1.38,2.37,1.39,-1.39,-1.57,0.96,0.97,0.97
58,2.45,1.51,2.42,1.47,-1.47,-1.64,0.98,0.95,0.95
59,2.45,1.54,2.47,1.55,-1.55,-1.70,0.90,0.92,0.92
60,2.54,1.65,2.53,1.64,-1.64,-1.77,0.91,0.89,0.89
61,2.59,1.73,2.58,1.72,-1.72,-1.83,0.88,0.86,0.86
62,2.59,1.76,2.63,1.79,-1.79,-1.88,0.80,0.83,0.83
63,2.67,1.87,2.67,1.87,-1.87,-1.94,0.81,0.80,0.80
64,2.73,1.96,2.71,1.94,-1.94,-1.99,0.79,0.77,0.77
65,2.75,2.02,2.75,2.01,-2.01,-2.04,0.74,0.74,0.74
66,2.77,2.07,2.79,2.08,-2.08,-2.09,0.69,0.71,0.71
67,2.81,2.14,2.82,2.15,-2.15,-2.13,0.67,0.67,0.67
68,2.87,2.24,2.85,2.22,-2.22,-2.18,0.66,0.64,0.64
69,2.84,2.24,2.88,2.28,-2.28,-2.23,0.56,0.60,0.60
70,2.95,2.39,2.91,2.34,-2.34,-2.27,0.61,0.57,0.57
71,2.91,2.39,2.94,2.41,-2.41,-2.32,0.51,0.53,0.53
72,2.96,2.47,2.96,2.47,-2.47,-2.36,0.49,0.49,0.49
73,2.97,2.52,2.99,2.54,-2.54,-2.41,0.44,0.45,0.45
74,3.03,2.62,3.02,2.60,-2.60,-2.46,0.44,0.42,0.42
75,3.02,2.65,3.04,2.66,-2.66,-2.51,0.36,0.38,0.38
76,3.09,2.76,3.06,2.73,-2.73,-2.56,0.37,0.34,0.34
77,3.06,2.77,3.09,2.79,-2.79,-2.62,0.27,0.30,0.30
78,3.12,2.87,3.11,2.86,-2.86,-2.67,0.27,0.26,0.26
79,3.13,2.92,3.14,2.92,-2.92,-2.73,0.21,0.22,0.22
80,3.15,2.98,3.17,2.99,-2.99,-2.79,0.17,0.18,0.18
81,3.19,3.06,3.19,3.06,-3.06,-2.86,0.14,0.14,0.14
82,3.23,3.14,3.22,3.12,-3.12,-2.92,0.11,0.10,0.09
83,3.22,3.17,3.25,3.19,-3.19,-2.99,0.03,0.05,0.05
84,3.29,3.28,3.28,3.26,-3.26,-3.06,0.03,0.01,0.01
85,3.26,3.29,3.31,3.33,-3.33,-3.14,-0.07,-0.03,-0.03
86,3.38,3.46,3.33,3.41,-3.41,-3.21,-0.02,-0.07,-0.07
87,3.35,3.47,3.36,3.48,-3.48,-3.29,-0.12,-0.11,-0.11
88,3.38,3.54,3.39,3.54,-3.54,-3.37,-0.16,-0.15,-0.15
89,3.40,3.60,3.42,3.61,-3.61,-3.46,-0.21,-0.20,-0.20
90,3.44,3.68,3.44,3.68,-3.68,-3.54,-0.24,-0.24,-0.24
91,3.46,3.74,3.47,3.75,-3.75,-3.63,-0.28,-0.28,-0.28
92,3.51,3.83,3.49,3.81,-3.81,-3.72,-0.30,-0.32,-0.32
93,3.50,3.87,3.51,3.87,-3.87,-3.82,-0.37,-0.36,-0.36
94,3.54,3.95,3.54,3.94,-3.94,-3.91,-0.39,-0.40,-0.40
95,3.55,4.00,3.56,4.00,-4.00,-4.01,-0.44,-0.44,-0.44
96,3.58,4.07,3.58,4.06,-4.06,-4.11,-0.48,-0.48,-0.48
97,3.59,4.12,3.61,4.13,-4.13,-4.20,-0.53,-0.52,-0.52
98,3.63,4.20,3.63,4.19,-4.19,-4.31,-0.56,-0.56,-0.56
99,3.64,4.24,3.66,4.26,-4.26,-4.41,-0.62,-0.60,-0.60
100,3.70,4.34,3.69,4.34,-4.34,-4.51,-0.63,-0.64,-0.64
101,3.69,4.37,3.73,4.41,-4.41,-4.61,-0.72,-0.69,-0.68
102,3.77,4.49,3.76,4.49,-4.49,-4.71,-0.72,-0.73,-0.71
104,3.80,4.59,3.80,4.57,-4.57,-4.92,-0.76,-0.77,-0.79
105,3.85,4.68,3.83,4.64,-4.64,-5.02,-0.79,-0.81,-0.83
106,3.85,4.72,3.86,4.72,-4.72,-5.12,-0.86,-0.86,-0.86
107,3.88,4.78,3.89,4.78,-4.78,-5.21,-0.90,-0.89,-0.90
108,3.93,4.87,3.92,4.85,-4.85,-5.31,-0.91,-0.93,-0.93
109,3.92,4.89,3.94,4.91,-4.91,-5.40,-0.98,-0.97,-0.97
110,3.95,4.95,3.97,4.97,-4.97,-5.50,-1.01,-1.00,-1.00
111,4.00,5.04,4.00,5.03,-5.03,-5.58,-1.02,-1.03,-1.03
112,4.02,5.09,4.02,5.09,-5.09,-5.67,-1.07,-1.07,-1.07
113,4.05,5.15,4.05,5.15,-5.15,-5.75,-1.10,-1.10,-1.10
114,4.05,5.18,4.08,5.21,-5.21,-5.83,-1.16,-1.14,-1.13
115,4.08,5.25,4.11,5.28,-5.28,-5.90,-1.19,-1.17,-1.16
117,4.18,5.41,4.13,5.34,-5.34,-6.03,-1.16,-1.21,-1.22
118,4.15,5.41,4.16,5.40,-5.40,-6.09,-1.25,-1.24,-1.25
119,4.19,5.47,4.19,5.47,-5.47,-6.15,-1.27,-1.28,-1.28
120,4.20,5.51,4.21,5.52,-5.52,-6.19,-1.32,-1.31,-1.31
121,4.21,5.55,4.24,5.58,-5.58,-6.24,-1.37,-1.35,-1.34
123,4.26,5.65,4.26,5.64,-5.64,-6.31,-1.37,-1.38,-1.39
124,4.29,5.71,4.28,5.69,-5.69,-6.33,-1.40,-1.41,-1.42
125,4.28,5.73,4.30,5.74,-5.74,-6.36,-1.46,-1.44,-1.44
126,4.30,5.77,4.32,5.79,-5.79,-6.37,-1.49,-1.47,-1.47
128,4.35,5.87,4.33,5.84,-5.84,-6.39,-1.48,-1.50,-1.51
129,4.34,5.88,4.35,5.88,-5.88,-6.39,-1.54,-1.53,-1.54
130,4.36,5.93,4.36,5.92,-5.92,-6.39,-1.56,-1.56,-1.56
131,4.37,5.96,4.37,5.96,-5.96,-6.38,-1.59,-1.59,-1.58
133,4.39,6.02,4.38,6.00,-6.00,-6.36,-1.61,-1.62,-1.63
134,4.36,6.01,4.39,6.04,-6.04,-6.34,-1.67,-1.65,-1.65
135,4.36,6.03,4.40,6.07,-6.07,-6.32,-1.71,-1.68,-1.67
137,4.43,6.14,4.40,6.11,-6.11,-6.27,-1.67,-1.70,-1.71
138,4.40,6.13,4.41,6.14,-6.14,-6.24,-1.74,-1.73,-1.73
140,4.42,6.19,4.42,6.17,-6.17,-6.18,-1.75,-1.76,-1.77
141,4.41,6.20,4.42,6.20,-6.20,-6.15,-1.79,-1.78,-1.78
142,4.42,6.23,4.42,6.23,-6.23,-6.12,-1.81,-1.81,-1.80
144,4.44,6.28,4.43,6.26,-6.26,-6.05,-1.81,-1.83,-1.83
145,4.40,6.26,4.43,6.28,-6.28,-6.01,-1.88,-1.86,-1.85
147,4.41,6.30,4.42,6.30,-6.30,-5.94,-1.89,-1.88,-1.88
148,4.41,6.31,4.42,6.32,-6.32,-5.91,-1.91,-1.90,-1.90
150,4.42,6.35,4.42,6.34,-6.34,-5.84,-1.91,-1.92,-1.93
151,4.40,6.35,4.41,6.35,-6.35,-5.81,-1.95,-1.94,-1.94
153,4.41,6.38,4.39,6.36,-6.36,-5.74,-1.94,-1.96,-1.97
154,4.40,6.39,4.38,6.36,-6.36,-5.71,-1.96,-1.98,-1.98
156,4.36,6.37,4.36,6.37,-6.37,-5.66,-2.00,-2.00,-2.01
157,4.32,6.34,4.34,6.37,-6.37,-5.63,-2.04,-2.02,-2.02
159,4.30,6.35,4.33,6.37,-6.37,-5.58,-2.06,-2.04,-2.04
160,4.29,6.35,4.31,6.37,-6.37,-5.56,-2.07,-2.06,-2.05
162,4.30,6.38,4.29,6.37,-6.37,-5.51,-2.06,-2.08,-2.08
164,4.27,6.37,4.28,6.37,-6.37,-5.48,-2.09,-2.09,-2.10
165,4.26,6.37,4.26,6.37,-6.37,-5.46,-2.11,-2.11,-2.11
167,4.23,6.36,4.25,6.38,-6.38,-5.44,-2.14,-2.13,-2.13
169,4.24,6.39,4.24,6.38,-6.38,-5.41,-2.14,-2.14,-2.15
170,4.23,6.39,4.23,6.38,-6.38,-5.41,-2.15,-2.16,-2.16
172,4.21,6.39,4.22,6.39,-6.39,-5.39,-2.17,-2.17,-2.17
174,4.22,6.41,4.20,6.39,-6.39,-5.39,-2.17,-2.19,-2.19
175,4.19,6.39,4.19,6.39,-6.39,-5.38,-2.20,-2.20,-2.20
177,4.16,6.38,4.19,6.40,-6.40,-5.39,-2.23,-2.21,-2.21
179,4.18,6.41,4.18,6.41,-6.41,-5.39,-2.22,-2.23,-2.23
181,4.15,6.40,4.18,6.42,-6.42,-5.40,-2.26,-2.24,-2.24
183,4.15,6.41,4.18,6.43,-6.43,-5.42,-2.27,-2.25,-2.26
184,4.17,6.44,4.18,6.44,-6.44,-5.43,-2.27,-2.26,-2.26
186,4.21,6.49,4.18,6.46,-6.46,-5.46,-2.24,-2.28,-2.27
188,4.19,6.48,4.19,6.47,-6.47,-5.48,-2.28,-2.29,-2.29
190,4.16,6.46,4.19,6.49,-6.49,-5.52,-2.32,-2.30,-2.30
192,4.17,6.48,4.19,6.50,-6.50,-5.55,-2.33,-2.31,-2.31
194,4.18,6.50,4.19,6.51,-6.51,-5.59,-2.32,-2.32,-2.32
196,4.19,6.52,4.18,6.51,-6.51,-5.63,-2.31,-2.33,-2.33
198,4.19,6.53,4.16,6.50,-6.50,-5.68,-2.31,-2.34,-2.34
200,4.16,6.51,4.14,6.49,-6.49,-5.72,-2.33,-2.35,-2.35
202,4.12,6.48,4.12,6.48,-6.48,-5.77,-2.35,-2.36,-2.36
204,4.07,6.44,4.09,6.45,-6.45,-5.82,-2.38,-2.37,-2.37
206,4.03,6.41,4.05,6.43,-6.43,-5.87,-2.39,-2.37,-2.37
208,3.98,6.37,4.02,6.40,-6.40,-5.92,-2.41,-2.38,-2.38
210,3.96,6.35,3.98,6.37,-6.37,-5.98,-2.40,-2.39,-2.39
212,3.95,6.35,3.94,6.34,-6.34,-6.03,-2.38,-2.40,-2.40
214,3.91,6.32,3.90,6.30,-6.30,-6.08,-2.39,-2.40,-2.40
216,3.86,6.28,3.85,6.26,-6.26,-6.13,-2.40,-2.41,-2.41
218,3.81,6.23,3.81,6.22,-6.22,-6.17,-2.41,-2.42,-2.42
221,3.74,6.17,3.76,6.18,-6.18,-6.24,-2.44,-2.42,-2.43
223,3.67,6.11,3.70,6.13,-6.13,-6.28,-2.46,-2.43,-2.43
225,3.64,6.08,3.64,6.08,-6.08,-6.31,-2.43,-2.44,-2.44
227,3.60,6.05,3.58,6.02,-6.02,-6.34,-2.42,-2.44,-2.44
229,3.50,5.95,3.51,5.96,-5.96,-6.37,-2.45,-2.45,-2.45
232,3.44,5.90,3.43,5.89,-5.89,-6.40,-2.44,-2.45,-2.45
234,3.34,5.80,3.36,5.82,-5.82,-6.41,-2.47,-2.46,-2.46
236,3.29,5.76,3.27,5.74,-5.74,-6.42,-2.44,-2.46,-2.46
239,3.18,5.65,3.19,5.66,-5.66,-6.41,-2.47,-2.47,-2.47
241,3.10,5.58,3.10,5.58,-5.58,-6.40,-2.47,-2.47,-2.47
244,2.99,5.47,3.02,5.49,-5.49,-6.38,-2.50,-2.48,-2.48
246,2.90,5.39,2.93,5.41,-5.41,-6.35,-2.50,-2.48,-2.48
248,2.84,5.33,2.84,5.32,-5.32,-6.32,-2.48,-2.49,-2.49
251,2.75,5.25,2.75,5.24,-5.24,-6.25,-2.48,-2.49,-2.49
253,2.67,5.17,2.65,5.15,-5.15,-6.20,-2.47,-2.49,-2.49
256,2.53,5.03,2.56,5.06,-5.06,-6.11,-2.52,-2.50,-2.50
259,2.47,4.98,2.46,4.96,-4.96,-6.01,-2.49,-2.50,-2.50
261,2.35,4.86,2.36,4.87,-4.87,-5.93,-2.51,-2.51,-2.51
264,2.25,4.76,2.26,4.77,-4.77,-5.81,-2.52,-2.51,-2.51
266,2.17,4.69,2.16,4.67,-4.67,-5.72,-2.50,-2.51,-2.51
269,2.04,4.56,2.05,4.57,-4.57,-5.58,-2.52,-2.52,-2.52
272,1.94,4.46,1.95,4.47,-4.47,-5.42,-2.52,-2.52,-2.52
274,1.83,4.36,1.84,4.36,-4.36,-5.32,-2.53,-2.52,-2.52
277,1.74,4.27,1.73,4.26,-4.26,-5.16,-2.51,-2.52,-2.52
280,1.61,4.14,1.62,4.15,-4.15,-4.99,-2.54,-2.53,-2.53
283,1.51,4.05,1.51,4.04,-4.04,-4.81,-2.53,-2.53,-2.53
286,1.38,3.92,1.40,3.94,-3.94,-4.63,-2.55,-2.53,-2.53
288,1.30,3.84,1.29,3.83,-3.83,-4.51,-2.52,-2.54,-2.53
291,1.20,3.74,1.18,3.72,-3.72,-4.33,-2.51,-2.54,-2.54
294,1.06,3.60,1.06,3.60,-3.60,-4.15,-2.54,-2.54,-2.54
297,0.92,3.47,0.95,3.49,-3.49,-3.96,-2.57,-2.54,-2.54
300,0.83,3.38,0.83,3.38,-3.38,-3.78,-2.54,-2.54,-2.54
303,0.70,3.25,0.71,3.26,-3.26,-3.59,-2.55,-2.55,-2.55
306,0.61,3.16,0.59,3.14,-3.14,-3.41,-2.53,-2.55,-2.55
309,0.47,3.02,0.47,3.02,-3.02,-3.22,-2.55,-2.55,-2.55
312,0.33,2.89,0.35,2.90,-2.90,-3.04,-2.57,-2.55,-2.55
316,0.24,2.80,0.23,2.78,-2.78,-2.80,-2.54,-2.55,-2.55
319,0.09,2.65,0.11,2.66,-2.66,-2.62,-2.57,-2.56,-2.56
322,-0.03,2.53,-0.02,2.54,-2.54,-2.44,-2.57,-2.56,-2.56
325,-0.12,2.44,-0.14,2.42,-2.42,-2.27,-2.53,-2.56,-2.56
328,-0.26,2.30,-0.27,2.29,-2.29,-2.09,-2.55,-2.56,-2.56
332,-0.44,2.13,-0.40,2.17,-2.17,-1.86,-2.60,-2.56,-2.56
335,-0.53,2.04,-0.53,2.04,-2.04,-1.69,-2.56,-2.56,-2.56
338,-0.65,1.92,-0.66,1.90,-1.90,-1.52,-2.55,-2.56,-2.56
342,-0.80,1.77,-0.80,1.77,-1.77,-1.30,-2.56,-2.57,-2.57
345,-0.90,1.67,-0.94,1.63,-1.63,-1.14,-2.52,-2.57,-2.57
349,-1.10,1.47,-1.08,1.49,-1.49,-0.92,-2.58,-2.57,-2.57
352,-1.24,1.33,-1.22,1.35,-1.35,-0.76,-2.58,-2.57,-2.57
356,-1.38,1.20,-1.36,1.21,-1.21,-0.55,-2.58,-2.57,-2.57
359,-1.51,1.07,-1.50,1.07,-1.07,-0.40,-2.57,-2.57,-2.57
363,-1.68,0.90,-1.64,0.94,-0.94,-0.19,-2.61,-2.57,-2.57
366,-1.77,0.81,-1.77,0.80,-0.80,-0.04,-2.57,-2.57,-2.57
370,-1.90,0.68,-1.90,0.67,-0.67,0.16,-2.57,-2.58,-2.58
374,-2.06,0.52,-2.03,0.54,-0.54,0.36,-2.60,-2.58,-2.58
377,-2.15,0.43,-2.17,0.41,-0.41,0.51,-2.55,-2.58,-2.58
381,-2.28,0.30,-2.31,0.27,-0.27,0.70,-2.55,-2.58,-2.58
385,-2.44,0.15,-2.45,0.13,-0.13,0.89,-2.56,-2.58,-2.58
389,-2.61,-0.02,-2.60,-0.02,0.02,1.08,-2.59,-2.58,-2.58
393,-2.77,-0.18,-2.75,-0.17,0.17,1.26,-2.59,-2.58,-2.58
397,-2.91,-0.32,-2.91,-0.33,0.33,1.45,-2.58,-2.59,-2.59
401,-3.07,-0.48,-3.07,-0.48,0.48,1.62,-2.58,-2.59,-2.59
405,-3.25,-0.66,-3.23,-0.64,0.64,1.80,-2.61,-2.59,-2.59
409,-3.39,-0.80,-3.38,-0.79,0.79,1.97,-2.59,-2.59,-2.59
413,-3.52,-0.93,-3.53,-0.94,0.94,2.14,-2.57,-2.59,-2.59
417,-3.70,-1.11,-3.68,-1.09,1.09,2.31,-2.61,-2.59,-2.59
421,-3.85,-1.26,-3.82,-1.23,1.23,2.47,-2.61,-2.59,-2.59
425,-3.99,-1.40,-3.96,-1.37,1.37,2.63,-2.61,-2.59,-2.59
430,-4.09,-1.50,-4.10,-1.51,1.51,2.82,-2.57,-2.59,-2.59
434,-4.19,-1.60,-4.24,-1.65,1.65,2.96,-2.54,-2.59,-2.59
438,-4.34,-1.75,-4.37,-1.79,1.79,3.10,-2.55,-2.58,-2.58
443,-4.54,-1.95,-4.51,-1.93,1.93,3.27,-2.61,-2.58,-2.58
447,-4.68,-2.10,-4.65,-2.07,2.07,3.40,-2.61,-2.58,-2.58
451,-4.80,-2.22,-4.78,-2.21,2.21,3.52,-2.59,-2.57,-2.57
456,-4.92,-2.35,-4.92,-2.35,2.35,3.67,-2.57,-2.57,-2.57
460,-5.03,-2.46,-5.05,-2.48,2.48,3.77,-2.54,-2.56,-2.56
465,-5.19,-2.63,-5.17,-2.62,2.62,3.89,-2.57,-2.56,-2.56
470,-5.32,-2.77,-5.29,-2.75,2.75,4.00,-2.57,-2.55,-2.55
474,-5.39,-2.85,-5.41,-2.87,2.87,4.08,-2.51,-2.54,-2.54
479,-5.53,-3.00,-5.53,-3.00,3.00,4.17,-2.52,-2.53,-2.53
484,-5.64,-3.12,-5.64,-3.12,3.12,4.25,-2.51,-2.52,-2.52
489,-5.75,-3.24,-5.75,-3.24,3.24,4.31,-2.50,-2.51,-2.51
494,-5.89,-3.39,-5.85,-3.36,3.36,4.36,-2.52,-2.49,-2.49
499,-5.95,-3.47,-5.95,-3.47,3.47,4.40,-2.47,-2.48,-2.48
504,-6.05,-3.58,-6.05,-3.58,3.58,4.42,-2.46,-2.46,-2.46
509,-6.14,-3.69,-6.13,-3.69,3.69,4.44,-2.45,-2.45,-2.45
514,-6.19,-3.76,-6.21,-3.78,3.78,4.44,-2.40,-2.43,-2.43
519,-6.31,-3.89,-6.28,-3.87,3.87,4.43,-2.43,-2.41,-2.41
524,-6.37,-3.97,-6.35,-3.96,3.96,4.41,-2.41,-2.39,-2.39
529,-6.40,-4.02,-6.41,-4.03,4.03,4.39,-2.36,-2.37,-2.37
535,-6.47,-4.12,-6.45,-4.10,4.10,4.34,-2.36,-2.35,-2.35
540,-6.51,-4.18,-6.50,-4.17,4.17,4.30,-2.34,-2.33,-2.33
545,-6.52,-4.21,-6.53,-4.22,4.22,4.25,-2.29,-2.30,-2.30
551,-6.55,-4.27,-6.55,-4.27,4.27,4.18,-2.27,-2.28,-2.28
556,-6.57,-4.31,-6.57,-4.32,4.32,4.11,-2.25,-2.26,-2.26
562,-6.62,-4.39,-6.59,-4.36,4.36,4.03,-2.26,-2.23,-2.23
568,-6.60,-4.39,-6.59,-4.39,4.39,3.94,-2.20,-2.20,-2.20
573,-6.61,-4.43,-6.60,-4.42,4.42,3.86,-2.18,-2.18,-2.18
579,-6.57,-4.42,-6.59,-4.45,4.45,3.77,-2.12,-2.15,-2.15
585,-6.58,-4.46,-6.59,-4.47,4.47,3.67,-2.11,-2.12,-2.12
591,-6.58,-4.49,-6.58,-4.49,4.49,3.57,-2.09,-2.09,-2.09
596,-6.55,-4.49,-6.56,-4.50,4.50,3.48,-2.05,-2.06,-2.06
602,-6.55,-4.52,-6.53,-4.51,4.51,3.38,-2.04,-2.03,-2.03
608,-6.52,-4.52,-6.50,-4.51,4.51,3.27,-2.01,-2.00,-2.00
615,-6.49,-4.52,-6.46,-4.50,4.50,3.15,-1.99,-1.97,-1.97
621,-6.44,-4.50,-6.42,-4.49,4.49,3.05,-1.95,-1.93,-1.93
627,-6.37,-4.47,-6.37,-4.47,4.47,2.95,-1.90,-1.90,-1.90
633,-6.29,-4.42,-6.31,-4.44,4.44,2.84,-1.85,-1.87,-1.87
639,-6.22,-4.38,-6.24,-4.41,4.41,2.74,-1.81,-1.83,-1.83
646,-6.17,-4.37,-6.17,-4.37,4.37,2.63,-1.79,-1.80,-1.80
652,-6.12,-4.35,-6.10,-4.33,4.33,2.53,-1.78,-1.76,-1.76
659,-6.02,-4.29,-6.02,-4.29,4.29,2.42,-1.72,-1.73,-1.73
665,-5.95,-4.25,-5.93,-4.24,4.24,2.32,-1.70,-1.69,-1.69
672,-5.87,-4.21,-5.85,-4.19,4.19,2.22,-1.67,-1.65,-1.65
679,-5.75,-4.13,-5.75,-4.13,4.13,2.11,-1.61,-1.62,-1.62
686,-5.64,-4.05,-5.65,-4.07,4.07,2.01,-1.56,-1.58,-1.58
692,-5.54,-3.99,-5.55,-4.01,4.01,1.92,-1.53,-1.54,-1.54
699,-5.46,-3.95,-5.44,-3.94,3.94,1.82,-1.52,-1.51,-1.51
706,-5.36,-3.89,-5.33,-3.86,3.86,1.73,-1.49,-1.47,-1.47
713,-5.20,-3.76,-5.21,-3.78,3.78,1.63,-1.41,-1.43,-1.43
721,-5.10,-3.70,-5.09,-3.70,3.70,1.53,-1.40,-1.39,-1.39
728,-4.97,-3.61,-4.96,-3.61,3.61,1.44,-1.36,-1.35,-1.35
735,-4.84,-3.52,-4.83,-3.51,3.51,1.35,-1.32,-1.32,-1.32
742,-4.69,-3.41,-4.69,-3.41,3.41,1.27,-1.27,-1.28,-1.28
750,-4.56,-3.31,-4.55,-3.31,3.31,1.17,-1.25,-1.24,-1.24
757,-4.41,-3.20,-4.41,-3.21,3.21,1.09,-1.20,-1.20,-1.20
765,-4.27,-3.10,-4.27,-3.10,3.10,1.00,-1.16,-1.17,-1.17
773,-4.11,-2.98,-4.13,-3.00,3.00,0.92,-1.11,-1.13,-1.13
780,-3.98,-2.88,-3.99,-2.89,2.89,0.84,-1.08,-1.09,-1.09
788,-3.86,-2.80,-3.84,-2.78,2.78,0.76,-1.07,-1.06,-1.06
796,-3.67,-2.64,-3.70,-2.67,2.67,0.68,-0.99,-1.02,-1.02
804,-3.59,-2.60,-3.55,-2.56,2.56,0.60,-1.02,-0.99,-0.99
812,-3.45,-2.49,-3.40,-2.44,2.44,0.53,-1.00,-0.95,-0.95
820,-3.27,-2.34,-3.24,-2.32,2.32,0.45,-0.94,-0.92,-0.92
828,-3.06,-2.17,-3.09,-2.20,2.20,0.38,-0.85,-0.89,-0.89
837,-2.90,-2.04,-2.93,-2.08,2.08,0.31,-0.82,-0.86,-0.86
845,-2.76,-1.93,-2.78,-1.95,1.95,0.24,-0.80,-0.82,-0.82
853,-2.64,-1.84,-2.62,-1.83,1.83,0.18,-0.81,-0.79,-0.79
862,-2.48,-1.71,-2.46,-1.70,1.70,0.11,-0.78,-0.76,-0.76
871,-2.29,-1.55,-2.30,-1.57,1.57,0.05,-0.72,-0.73,-0.73
879,-2.17,-1.46,-2.14,-1.44,1.44,-0.01,-0.73,-0.71,-0.71
888,-2.00,-1.32,-1.98,-1.30,1.30,-0.07,-0.69,-0.68,-0.68
897,-1.82,-1.17,-1.81,-1.17,1.17,-0.12,-0.65,-0.65,-0.65
906,-1.65,-1.02,-1.65,-1.02,1.02,-0.17,-0.62,-0.62,-0.62
915,-1.47,-0.87,-1.47,-0.88,0.88,-0.22,-0.59,-0.59,-0.59
924,-1.33,-0.76,-1.30,-0.73,0.73,-0.26,-0.59,-0.57,-0.57
933,-1.12,-0.58,-1.12,-0.59,0.59,-0.30,-0.53,-0.54,-0.54
943,-0.96,-0.44,-0.95,-0.44,0.44,-0.34,-0.52,-0.51,-0.51
952,-0.76,-0.27,-0.78,-0.30,0.30,-0.38,-0.46,-0.49,-0.49
962,-0.61,-0.15,-0.61,-0.15,0.15,-0.41,-0.45,-0.46,-0.46
971,-0.47,-0.03,-0.45,-0.02,0.02,-0.43,-0.45,-0.43,-0.43
981,-0.30,0.11,-0.29,0.12,-0.12,-0.46,-0.41,-0.41,-0.41
991,-0.14,0.24,-0.14,0.24,-0.24,-0.48,-0.38,-0.38,-0.38
1001,0.01,0.37,0.01,0.36,-0.36,-0.49,-0.35,-0.35,-0.35
1011,0.17,0.50,0.16,0.48,-0.48,-0.50,-0.31,-0.33,-0.33
1021,0.30,0.60,0.30,0.59,-0.59,-0.51,-0.29,-0.30,-0.30
1031,0.41,0.69,0.43,0.70,-0.70,-0.51,-0.29,-0.27,-0.27
1041,0.54,0.79,0.56,0.81,-0.81,-0.51,-0.26,-0.24,-0.24
1052,0.72,0.94,0.69,0.90,-0.90,-0.51,-0.18,-0.21,-0.21
1062,0.79,0.98,0.82,1.00,-1.00,-0.50,-0.21,-0.19,-0.19
1073,0.93,1.09,0.94,1.09,-1.09,-0.49,-0.16,-0.16,-0.16
1084,1.06,1.19,1.06,1.19,-1.19,-0.47,-0.12,-0.13,-0.13
1094,1.14,1.24,1.17,1.27,-1.27,-0.46,-0.13,-0.10,-0.10
1105,1.31,1.38,1.29,1.36,-1.36,-0.44,-0.04,-0.07,-0.07
1116,1.38,1.42,1.40,1.44,-1.44,-0.41,-0.05,-0.04,-0.04
1128,1.51,1.52,1.51,1.52,-1.52,-0.38,-0.00,-0.01,-0.01
1139,1.60,1.58,1.61,1.59,-1.59,-0.36,0.02,0.02,0.02
1150,1.71,1.66,1.71,1.66,-1.66,-0.33,0.06,0.05,0.05
1162,1.80,1.72,1.80,1.72,-1.72,-0.29,0.09,0.08,0.08
1173,1.90,1.79,1.89,1.78,-1.78,-0.26,0.13,0.12,0.12
1185,1.96,1.82,1.97,1.83,-1.83,-0.22,0.14,0.15,0.15
1197,2.04,1.87,2.05,1.87,-1.87,-0.19,0.17,0.18,0.18
1209,2.12,1.91,2.13,1.91,-1.91,-0.15,0.21,0.21,0.21
1221,2.19,1.95,2.20,1.95,-1.95,-0.11,0.24,0.25,0.25
1233,2.26,1.99,2.26,1.98,-1.98,-0.07,0.28,0.28,0.28
1246,2.33,2.02,2.32,2.01,-2.01,-0.02,0.33,0.31,0.31
1258,2.36,2.02,2.37,2.03,-2.03,0.02,0.34,0.35,0.35
1271,2.40,2.02,2.43,2.04,-2.04,0.06,0.36,0.38,0.38
1283,2.44,2.03,2.47,2.06,-2.06,0.10,0.39,0.41,0.41
1296,2.52,2.08,2.51,2.06,-2.06,0.15,0.47,0.45,0.45
1309,2.56,2.08,2.54,2.05,-2.05,0.19,0.51,0.49,0.49
1322,2.57,2.05,2.56,2.04,-2.04,0.24,0.53,0.52,0.52
1335,2.57,2.02,2.58,2.02,-2.02,0.29,0.55,0.56,0.56
1349,2.57,1.98,2.58,1.99,-1.99,0.34,0.58,0.59,0.59
1362,2.58,1.95,2.58,1.95,-1.95,0.38,0.63,0.63,0.63
1376,2.57,1.91,2.57,1.91,-1.91,0.43,0.67,0.67,0.67
1390,2.56,1.86,2.56,1.85,-1.85,0.48,0.71,0.71,0.71
1404,2.54,1.80,2.53,1.79,-1.79,0.53,0.75,0.74,0.74
1418,2.49,1.71,2.51,1.72,-1.72,0.58,0.77,0.78,0.78
1432,2.45,1.63,2.47,1.65,-1.65,0.63,0.80,0.82,0.82
1446,2.42,1.57,2.44,1.58,-1.58,0.68,0.85,0.86,0.86
1461,2.38,1.49,2.40,1.50,-1.50,0.73,0.89,0.90,0.90
1475,2.35,1.42,2.35,1.41,-1.41,0.78,0.95,0.94,0.94
1490,2.30,1.33,2.29,1.31,-1.31,0.83,0.99,0.98,0.98
1505,2.23,1.21,2.23,1.21,-1.21,0.88,1.03,1.02,1.02
1520,2.18,1.12,2.15,1.09,-1.09,0.93,1.09,1.06,1.06
1535,2.14,1.04,2.07,0.97,-0.97,0.98,1.17,1.10,1.10
1550,1.99,0.85,1.99,0.85,-0.85,1.03,1.15,1.15,1.15
1566,1.83,0.65,1.91,0.72,-0.72,1.09,1.12,1.19,1.19
1582,1.78,0.55,1.82,0.59,-0.59,1.14,1.19,1.23,1.23
1597,1.73,0.46,1.74,0.47,-0.47,1.19,1.26,1.27,1.27
1613,1.66,0.35,1.67,0.35,-0.35,1.24,1.31,1.32,1.32
1629,1.60,0.24,1.60,0.24,-0.24,1.29,1.36,1.36,1.36
1646,1.56,0.16,1.54,0.14,-0.14,1.35,1.43,1.41,1.41
1662,1.50,0.05,1.49,0.04,-0.04,1.40,1.47,1.45,1.45
1679,1.46,-0.03,1.44,-0.06,0.06,1.45,1.52,1.50,1.50
1696,1.40,-0.14,1.40,-0.15,0.15,1.50,1.55,1.54,1.54
1713,1.33,-0.25,1.36,-0.23,0.23,1.55,1.56,1.59,1.59
1730,1.30,-0.33,1.33,-0.30,0.30,1.60,1.61,1.64,1.64
1747,1.28,-0.40,1.31,-0.37,0.37,1.65,1.66,1.69,1.69
1764,1.28,-0.45,1.30,-0.43,0.43,1.70,1.72,1.74,1.74
1782,1.30,-0.48,1.30,-0.48,0.48,1.75,1.79,1.79,1.79
1800,1.32,-0.51,1.31,-0.53,0.53,1.79,1.86,1.84,1.84
