frequency,raw,error,smoothed,error_smoothed,equalization,parametric_eq,fixed_band_eq,equalized_raw,equalized_smoothed,target
20.00,-18.92,-19.75,-19.00,-19.86,6.00,3.98,2.86,-12.92,-13.00,0.84
20.20,-18.78,-19.65,-18.82,-19.70,6.00,4.06,2.94,-12.78,-12.82,0.88
20.40,-18.64,-19.54,-18.64,-19.55,6.00,4.13,3.03,-12.64,-12.64,0.91
20.61,-18.50,-19.43,-18.46,-19.40,6.00,4.21,3.12,-12.50,-12.46,0.93
20.81,-18.36,-19.33,-18.29,-19.25,6.00,4.29,3.21,-12.36,-12.29,0.98
21.02,-18.21,-19.22,-18.12,-19.11,6.00,4.37,3.30,-12.21,-12.12,1.01
21.23,-18.02,-19.04,-17.95,-18.96,6.00,4.45,3.40,-12.02,-11.95,1.02
21.44,-17.82,-18.86,-17.79,-18.82,6.00,4.53,3.49,-11.82,-11.79,1.04
21.66,-17.63,-18.69,-17.64,-18.69,6.00,4.61,3.59,-11.63,-11.64,1.06
21.87,-17.43,-18.50,-17.48,-18.55,6.00,4.69,3.70,-11.43,-11.48,1.07
22.09,-17.27,-18.36,-17.33,-18.42,6.00,4.77,3.81,-11.27,-11.33,1.09
22.31,-17.16,-18.25,-17.19,-18.29,6.00,4.85,3.92,-11.16,-11.19,1.09
22.54,-17.05,-18.15,-17.04,-18.15,6.00,4.93,4.03,-11.05,-11.04,1.10
22.76,-16.94,-18.05,-16.90,-18.02,6.00,5.01,4.14,-10.94,-10.90,1.11
22.99,-16.83,-17.94,-16.78,-17.90,6.00,5.10,4.26,-10.83,-10.78,1.11
23.22,-16.67,-17.79,-16.66,-17.79,6.00,5.18,4.38,-10.67,-10.66,1.12
23.45,-16.51,-17.64,-16.54,-17.68,6.00,5.25,4.51,-10.51,-10.54,1.13
23.69,-16.36,-17.50,-16.41,-17.55,6.00,5.33,4.63,-10.36,-10.41,1.14
23.92,-16.20,-17.35,-16.28,-17.42,6.00,5.41,4.76,-10.20,-10.28,1.15
24.16,-16.11,-17.27,-16.14,-17.29,6.00,5.48,4.89,-10.11,-10.14,1.16
24.40,-16.06,-17.23,-16.01,-17.16,6.00,5.56,5.03,-10.06,-10.01,1.17
24.65,-16.00,-17.16,-15.88,-17.04,6.00,5.63,5.16,-10.00,-9.88,1.16
24.89,-15.93,-17.09,-15.76,-16.92,6.00,5.70,5.30,-9.93,-9.76,1.16
25.14,-15.77,-16.93,-15.64,-16.80,6.00,5.77,5.44,-9.77,-9.64,1.16
25.39,-15.53,-16.69,-15.53,-16.69,6.00,5.83,5.58,-9.53,-9.53,1.16
25.65,-15.29,-16.45,-15.41,-16.57,6.00,5.89,5.72,-9.29,-9.41,1.16
25.91,-15.05,-16.20,-15.30,-16.46,6.00,5.95,5.87,-9.05,-9.30,1.15
26.16,-14.97,-16.12,-15.19,-16.35,6.00,6.00,6.01,-8.97,-9.19,1.16
26.43,-14.99,-16.14,-15.09,-16.24,6.00,6.05,6.15,-8.99,-9.09,1.16
26.69,-15.00,-16.15,-14.98,-16.13,6.00,6.09,6.29,-9.00,-8.98,1.15
26.96,-15.02,-16.17,-14.86,-16.01,6.00,6.13,6.43,-9.02,-8.86,1.15
27.23,-14.87,-16.02,-14.73,-15.88,6.00,6.16,6.56,-8.87,-8.73,1.15
27.50,-14.69,-15.84,-14.60,-15.75,6.00,6.19,6.70,-8.69,-8.60,1.15
27.77,-14.51,-15.65,-14.46,-15.60,6.00,6.21,6.83,-8.51,-8.46,1.14
28.05,-14.34,-15.48,-14.32,-15.47,6.00,6.22,6.95,-8.34,-8.32,1.14
28.33,-14.21,-15.34,-14.18,-15.32,6.00,6.23,7.07,-8.21,-8.18,1.13
28.62,-14.08,-15.22,-14.03,-15.17,6.00,6.23,7.18,-8.08,-8.03,1.14
28.90,-13.94,-15.08,-13.86,-15.00,6.00,6.22,7.28,-7.94,-7.86,1.14
29.19,-13.72,-14.84,-13.67,-14.81,6.00,6.20,7.38,-7.72,-7.67,1.13
29.48,-13.46,-14.59,-13.48,-14.61,6.00,6.18,7.46,-7.46,-7.48,1.14
29.78,-13.19,-14.33,-13.28,-14.41,6.00,6.15,7.54,-7.19,-7.28,1.14
30.08,-12.96,-14.10,-13.09,-14.22,6.00,6.12,7.60,-6.96,-7.09,1.13
30.38,-12.84,-13.96,-12.91,-14.03,6.00,6.08,7.65,-6.84,-6.91,1.12
30.68,-12.72,-13.84,-12.74,-13.86,6.00,6.03,7.69,-6.72,-6.74,1.12
30.99,-12.61,-13.72,-12.57,-13.69,6.00,5.99,7.72,-6.61,-6.57,1.11
31.30,-12.44,-13.55,-12.41,-13.52,6.00,5.94,7.74,-6.44,-6.41,1.11
31.61,-12.28,-13.39,-12.26,-13.37,6.00,5.90,7.74,-6.28,-6.26,1.11
31.93,-12.12,-13.22,-12.12,-13.22,6.00,5.86,7.73,-6.12,-6.12,1.10
32.24,-11.97,-13.05,-11.99,-13.09,6.00,5.82,7.71,-5.97,-5.99,1.09
32.57,-11.83,-12.91,-11.87,-12.96,6.00,5.79,7.67,-5.83,-5.87,1.08
32.89,-11.69,-12.77,-11.74,-12.83,6.00,5.77,7.63,-5.69,-5.74,1.08
33.22,-11.58,-12.66,-11.62,-12.70,6.00,5.76,7.57,-5.58,-5.62,1.08
33.55,-11.50,-12.58,-11.49,-12.57,6.00,5.75,7.51,-5.50,-5.49,1.08
33.89,-11.42,-12.50,-11.36,-12.44,6.00,5.75,7.43,-5.42,-5.36,1.08
34.23,-11.30,-12.38,-11.23,-12.31,6.00,5.77,7.35,-5.30,-5.23,1.08
34.57,-11.17,-12.23,-11.11,-12.17,6.00,5.78,7.26,-5.17,-5.11,1.07
34.92,-11.03,-12.09,-10.98,-12.04,6.00,5.80,7.16,-5.03,-4.98,1.06
35.27,-10.86,-11.92,-10.85,-11.91,6.00,5.82,7.06,-4.86,-4.85,1.06
35.62,-10.68,-11.73,-10.71,-11.77,6.00,5.85,6.95,-4.68,-4.71,1.05
35.97,-10.50,-11.54,-10.57,-11.62,6.00,5.87,6.84,-4.50,-4.57,1.05
36.33,-10.40,-11.44,-10.43,-11.47,6.00,5.89,6.73,-4.40,-4.43,1.04
36.70,-10.31,-11.35,-10.29,-11.32,6.00,5.92,6.62,-4.31,-4.29,1.04
37.06,-10.20,-11.23,-10.14,-11.17,6.00,5.93,6.50,-4.20,-4.14,1.03
37.43,-10.02,-11.04,-9.99,-11.02,6.00,5.95,6.39,-4.02,-3.99,1.03
37.81,-9.84,-10.86,-9.84,-10.87,6.00,5.96,6.27,-3.84,-3.84,1.03
38.19,-9.67,-10.68,-9.70,-10.71,6.00,5.97,6.16,-3.67,-3.70,1.01
38.57,-9.52,-10.53,-9.55,-10.56,6.00,5.98,6.05,-3.52,-3.55,1.01
38.95,-9.36,-10.36,-9.41,-10.41,6.00,5.99,5.93,-3.36,-3.41,1.01
39.34,-9.25,-10.24,-9.27,-10.27,6.00,5.99,5.82,-3.25,-3.27,0.99
39.74,-9.15,-10.13,-9.12,-10.12,6.00,6.00,5.72,-3.15,-3.12,0.98
40.14,-9.02,-10.01,-8.97,-9.96,6.00,6.00,5.61,-3.02,-2.97,0.99
40.54,-8.85,-9.83,-8.82,-9.80,6.00,6.00,5.51,-2.85,-2.82,0.98
40.94,-8.68,-9.66,-8.66,-9.63,6.00,6.01,5.41,-2.68,-2.66,0.98
41.35,-8.52,-9.48,-8.51,-9.47,6.00,6.01,5.31,-2.52,-2.51,0.97
41.76,-8.35,-9.30,-8.37,-9.31,6.00,6.01,5.22,-2.35,-2.37,0.95
42.18,-8.21,-9.15,-8.23,-9.15,6.00,6.01,5.13,-2.21,-2.23,0.94
42.60,-8.09,-9.00,-8.08,-8.98,6.00,6.02,5.05,-2.09,-2.08,0.92
43.03,-7.97,-8.87,-7.93,-8.81,6.00,6.02,4.96,-1.97,-1.93,0.90
43.46,-7.77,-8.64,-7.78,-8.64,6.00,6.02,4.88,-1.77,-1.78,0.88
43.90,-7.57,-8.40,-7.63,-8.47,6.00,6.03,4.81,-1.57,-1.63,0.83
44.33,-7.44,-8.24,-7.48,-8.29,6.00,6.03,4.74,-1.44,-1.48,0.81
44.78,-7.34,-8.11,-7.34,-8.13,6.00,6.04,4.67,-1.34,-1.34,0.77
45.23,-7.22,-7.97,-7.20,-7.96,6.00,6.04,4.61,-1.22,-1.20,0.75
45.68,-7.09,-7.81,-7.05,-7.79,6.00,6.05,4.55,-1.09,-1.05,0.72
46.13,-6.95,-7.65,-6.91,-7.63,6.00,6.05,4.49,-0.95,-0.91,0.71
46.60,-6.77,-7.47,-6.76,-7.46,6.00,6.05,4.43,-0.77,-0.76,0.70
47.06,-6.59,-7.27,-6.60,-7.30,6.00,6.05,4.38,-0.59,-0.60,0.69
47.53,-6.47,-7.15,-6.46,-7.14,6.00,6.04,4.34,-0.47,-0.46,0.68
48.01,-6.34,-7.02,-6.31,-6.99,6.00,6.02,4.29,-0.34,-0.31,0.68
48.49,-6.18,-6.85,-6.17,-6.85,6.00,6.00,4.25,-0.18,-0.17,0.68
48.97,-6.03,-6.70,-6.03,-6.71,6.00,5.98,4.21,-0.03,-0.03,0.67
49.46,-5.87,-6.53,-5.88,-6.56,6.00,5.94,4.18,0.13,0.12,0.66
49.96,-5.71,-6.37,-5.74,-6.42,6.00,5.90,4.14,0.29,0.26,0.67
50.46,-5.57,-6.25,-5.61,-6.29,5.98,5.84,4.11,0.41,0.37,0.68
50.96,-5.43,-6.12,-5.48,-6.15,5.94,5.78,4.08,0.51,0.46,0.69
51.47,-5.33,-6.01,-5.34,-6.01,5.87,5.70,4.05,0.54,0.52,0.68
51.99,-5.24,-5.91,-5.21,-5.87,5.78,5.62,4.03,0.54,0.56,0.67
52.51,-5.12,-5.78,-5.08,-5.72,5.67,5.52,4.00,0.55,0.59,0.66
53.03,-5.00,-5.64,-4.95,-5.57,5.55,5.41,3.98,0.55,0.60,0.65
53.56,-4.88,-5.49,-4.83,-5.43,5.43,5.29,3.96,0.55,0.59,0.62
54.10,-4.76,-5.33,-4.72,-5.29,5.29,5.17,3.93,0.53,0.57,0.58
54.64,-4.64,-5.17,-4.62,-5.15,5.15,5.03,3.91,0.51,0.53,0.54
55.18,-4.52,-5.01,-4.52,-5.01,5.01,4.89,3.89,0.50,0.49,0.50
55.74,-4.39,-4.83,-4.43,-4.88,4.88,4.74,3.86,0.49,0.45,0.44
56.29,-4.26,-4.66,-4.35,-4.75,4.75,4.59,3.84,0.50,0.40,0.40
56.86,-4.13,-4.48,-4.28,-4.63,4.63,4.43,3.81,0.50,0.35,0.35
57.42,-4.10,-4.39,-4.20,-4.50,4.50,4.27,3.78,0.40,0.30,0.29
58.00,-4.10,-4.34,-4.13,-4.38,4.38,4.10,3.75,0.28,0.24,0.24
58.58,-4.10,-4.28,-4.06,-4.25,4.25,3.94,3.72,0.15,0.19,0.18
59.16,-4.06,-4.20,-3.98,-4.12,4.12,3.78,3.68,0.06,0.13,0.14
59.76,-3.93,-4.02,-3.91,-3.99,3.99,3.61,3.64,0.06,0.08,0.09
60.35,-3.88,-3.90,-3.83,-3.85,3.85,3.45,3.60,-0.03,0.03,0.02
60.96,-3.87,-3.85,-3.74,-3.72,3.72,3.29,3.56,-0.15,-0.03,-0.02
61.57,-3.74,-3.65,-3.65,-3.57,3.57,3.13,3.51,-0.17,-0.08,-0.09
62.18,-3.60,-3.46,-3.55,-3.42,3.42,2.97,3.46,-0.18,-0.13,-0.14
62.80,-3.46,-3.28,-3.43,-3.26,3.26,2.82,3.40,-0.20,-0.17,-0.18
63.43,-3.28,-3.05,-3.30,-3.09,3.09,2.67,3.34,-0.19,-0.22,-0.22
64.07,-3.08,-2.82,-3.16,-2.91,2.91,2.52,3.27,-0.17,-0.26,-0.26
64.71,-2.96,-2.66,-3.01,-2.72,2.72,2.37,3.21,-0.24,-0.29,-0.30
65.35,-2.85,-2.51,-2.85,-2.52,2.52,2.23,3.13,-0.33,-0.33,-0.34
66.01,-2.73,-2.36,-2.69,-2.33,2.33,2.09,3.06,-0.40,-0.36,-0.36
66.67,-2.58,-2.18,-2.54,-2.15,2.15,1.95,2.98,-0.43,-0.39,-0.39
67.33,-2.40,-1.98,-2.38,-1.97,1.97,1.82,2.89,-0.43,-0.41,-0.41
68.01,-2.18,-1.75,-2.22,-1.79,1.79,1.69,2.81,-0.39,-0.43,-0.43
68.69,-2.07,-1.61,-2.08,-1.62,1.62,1.56,2.72,-0.44,-0.45,-0.45
69.37,-1.94,-1.46,-1.94,-1.46,1.46,1.44,2.63,-0.47,-0.47,-0.48
70.07,-1.80,-1.30,-1.80,-1.31,1.31,1.32,2.53,-0.49,-0.49,-0.50
70.77,-1.64,-1.14,-1.68,-1.16,1.16,1.20,2.43,-0.47,-0.51,-0.50
71.48,-1.48,-0.96,-1.55,-1.02,1.02,1.08,2.33,-0.46,-0.53,-0.52
72.19,-1.37,-0.83,-1.42,-0.87,0.87,0.97,2.23,-0.50,-0.55,-0.54
72.91,-1.37,-0.81,-1.30,-0.73,0.73,0.85,2.13,-0.64,-0.57,-0.56
73.64,-1.22,-0.64,-1.18,-0.60,0.60,0.75,2.02,-0.62,-0.58,-0.58
74.38,-1.08,-0.49,-1.08,-0.48,0.48,0.64,1.92,-0.59,-0.60,-0.59
75.12,-0.96,-0.34,-0.98,-0.37,0.37,0.53,1.81,-0.59,-0.62,-0.62
75.87,-0.92,-0.28,-0.89,-0.26,0.26,0.43,1.70,-0.66,-0.63,-0.63
76.63,-0.80,-0.15,-0.79,-0.15,0.15,0.33,1.59,-0.65,-0.64,-0.65
77.40,-0.69,-0.03,-0.69,-0.04,0.04,0.23,1.48,-0.65,-0.66,-0.66
78.17,-0.59,0.09,-0.60,0.07,-0.07,0.13,1.37,-0.66,-0.67,-0.68
78.95,-0.46,0.22,-0.51,0.16,-0.16,0.04,1.26,-0.62,-0.67,-0.68
79.74,-0.45,0.23,-0.42,0.26,-0.26,-0.06,1.15,-0.71,-0.68,-0.67
80.54,-0.37,0.32,-0.32,0.36,-0.36,-0.15,1.03,-0.73,-0.68,-0.69
81.35,-0.28,0.41,-0.22,0.45,-0.45,-0.24,0.92,-0.73,-0.67,-0.69
82.16,-0.18,0.50,-0.14,0.53,-0.53,-0.33,0.81,-0.71,-0.67,-0.68
82.98,0.00,0.66,-0.06,0.60,-0.60,-0.42,0.70,-0.60,-0.66,-0.66
83.81,0.00,0.65,0.02,0.66,-0.66,-0.51,0.58,-0.66,-0.65,-0.65
84.65,0.15,0.80,0.09,0.73,-0.73,-0.59,0.47,-0.57,-0.63,-0.64
85.50,0.23,0.85,0.17,0.78,-0.78,-0.68,0.36,-0.55,-0.62,-0.62
86.35,0.23,0.83,0.24,0.84,-0.84,-0.76,0.24,-0.61,-0.60,-0.60
87.22,0.28,0.87,0.32,0.90,-0.90,-0.84,0.13,-0.62,-0.58,-0.59
88.09,0.46,1.03,0.40,0.96,-0.96,-0.92,0.02,-0.50,-0.57,-0.57
88.97,0.46,1.00,0.47,1.02,-1.02,-1.00,-0.10,-0.55,-0.55,-0.54
89.86,0.46,0.98,0.53,1.06,-1.06,-1.08,-0.21,-0.60,-0.53,-0.52
90.76,0.48,1.00,0.58,1.10,-1.10,-1.15,-0.32,-0.62,-0.52,-0.52
91.66,0.62,1.12,0.64,1.14,-1.14,-1.23,-0.44,-0.52,-0.51,-0.49
92.58,0.69,1.19,0.69,1.19,-1.19,-1.30,-0.55,-0.50,-0.50,-0.50
93.51,0.79,1.27,0.75,1.24,-1.24,-1.38,-0.67,-0.45,-0.49,-0.48
94.44,0.89,1.37,0.81,1.29,-1.29,-1.45,-0.78,-0.40,-0.48,-0.48
95.39,0.91,1.39,0.86,1.34,-1.34,-1.52,-0.89,-0.43,-0.48,-0.47
96.34,0.91,1.40,0.91,1.39,-1.39,-1.58,-1.01,-0.48,-0.48,-0.49
97.30,0.91,1.40,0.94,1.43,-1.43,-1.65,-1.12,-0.52,-0.49,-0.49
98.28,0.91,1.41,0.98,1.47,-1.47,-1.72,-1.24,-0.56,-0.49,-0.50
99.26,0.97,1.48,1.02,1.52,-1.52,-1.78,-1.35,-0.55,-0.50,-0.51
100.25,1.14,1.66,1.06,1.58,-1.58,-1.84,-1.46,-0.44,-0.52,-0.52
101.25,1.14,1.68,1.09,1.63,-1.63,-1.90,-1.57,-0.49,-0.54,-0.54
102.27,1.14,1.70,1.12,1.68,-1.68,-1.96,-1.69,-0.54,-0.56,-0.56
103.29,1.14,1.73,1.15,1.74,-1.74,-2.02,-1.80,-0.59,-0.59,-0.59
104.32,1.14,1.75,1.18,1.80,-1.80,-2.08,-1.90,-0.65,-0.62,-0.60
105.37,1.14,1.78,1.21,1.86,-1.86,-2.13,-2.01,-0.72,-0.65,-0.63
106.42,1.14,1.82,1.24,1.93,-1.93,-2.18,-2.12,-0.79,-0.69,-0.67
107.48,1.24,1.97,1.27,2.00,-2.00,-2.24,-2.22,-0.76,-0.73,-0.72
108.56,1.36,2.14,1.30,2.08,-2.08,-2.28,-2.32,-0.72,-0.78,-0.78
109.64,1.37,2.20,1.32,2.15,-2.15,-2.33,-2.42,-0.78,-0.83,-0.83
110.74,1.37,2.25,1.33,2.21,-2.21,-2.38,-2.51,-0.84,-0.89,-0.88
111.85,1.37,2.30,1.34,2.28,-2.28,-2.42,-2.61,-0.91,-0.94,-0.93
112.97,1.37,2.37,1.36,2.35,-2.35,-2.46,-2.69,-0.98,-0.99,-1.00
114.10,1.37,2.42,1.37,2.42,-2.42,-2.50,-2.78,-1.05,-1.05,-1.05
115.24,1.37,2.48,1.38,2.48,-2.48,-2.53,-2.85,-1.11,-1.10,-1.10
116.39,1.37,2.54,1.40,2.55,-2.55,-2.57,-2.93,-1.18,-1.15,-1.16
117.55,1.37,2.58,1.41,2.60,-2.60,-2.60,-3.00,-1.23,-1.19,-1.21
118.73,1.37,2.63,1.41,2.64,-2.64,-2.63,-3.06,-1.27,-1.23,-1.26
119.92,1.37,2.66,1.39,2.66,-2.66,-2.66,-3.11,-1.29,-1.27,-1.29
121.12,1.37,2.69,1.38,2.68,-2.68,-2.68,-3.16,-1.31,-1.30,-1.32
122.33,1.37,2.72,1.36,2.70,-2.70,-2.71,-3.21,-1.32,-1.33,-1.35
123.55,1.37,2.73,1.35,2.71,-2.71,-2.73,-3.24,-1.33,-1.36,-1.35
124.79,1.37,2.75,1.34,2.72,-2.72,-2.75,-3.27,-1.34,-1.38,-1.38
126.03,1.37,2.77,1.32,2.72,-2.72,-2.76,-3.30,-1.35,-1.40,-1.39
127.29,1.37,2.78,1.31,2.72,-2.72,-2.78,-3.31,-1.35,-1.42,-1.41
128.57,1.32,2.76,1.28,2.72,-2.72,-2.79,-3.33,-1.39,-1.44,-1.43
129.85,1.16,2.61,1.25,2.70,-2.70,-2.80,-3.33,-1.54,-1.45,-1.45
131.15,1.14,2.60,1.22,2.69,-2.69,-2.81,-3.33,-1.55,-1.47,-1.46
132.46,1.14,2.62,1.19,2.67,-2.67,-2.81,-3.32,-1.53,-1.48,-1.48
133.79,1.14,2.64,1.15,2.65,-2.65,-2.81,-3.30,-1.51,-1.50,-1.49
135.12,1.14,2.67,1.12,2.64,-2.64,-2.81,-3.29,-1.49,-1.52,-1.53
136.48,1.14,2.68,1.09,2.63,-2.63,-2.81,-3.26,-1.49,-1.54,-1.54
137.84,1.14,2.70,1.06,2.62,-2.62,-2.81,-3.23,-1.48,-1.56,-1.56
139.22,1.02,2.62,1.03,2.61,-2.61,-2.81,-3.20,-1.59,-1.58,-1.60
140.61,0.93,2.56,1.00,2.60,-2.60,-2.80,-3.17,-1.67,-1.60,-1.63
142.02,0.91,2.55,0.98,2.61,-2.61,-2.79,-3.13,-1.70,-1.63,-1.63
143.44,0.91,2.57,0.96,2.62,-2.62,-2.78,-3.09,-1.71,-1.66,-1.66
144.87,0.91,2.60,0.93,2.64,-2.64,-2.77,-3.04,-1.72,-1.70,-1.69
146.32,0.91,2.64,0.90,2.64,-2.64,-2.75,-3.00,-1.73,-1.74,-1.73
147.78,0.91,2.66,0.86,2.65,-2.65,-2.74,-2.95,-1.73,-1.79,-1.75
149.26,0.91,2.72,0.82,2.66,-2.66,-2.72,-2.90,-1.75,-1.84,-1.81
150.75,0.81,2.68,0.79,2.68,-2.68,-2.70,-2.85,-1.87,-1.89,-1.87
152.26,0.72,2.65,0.75,2.70,-2.70,-2.69,-2.80,-1.98,-1.95,-1.93
153.78,0.69,2.68,0.72,2.73,-2.73,-2.66,-2.76,-2.03,-2.01,-1.99
155.32,0.69,2.77,0.68,2.75,-2.75,-2.64,-2.71,-2.06,-2.07,-2.07
156.88,0.67,2.81,0.64,2.77,-2.77,-2.62,-2.66,-2.09,-2.13,-2.14
158.44,0.52,2.72,0.58,2.77,-2.77,-2.60,-2.61,-2.25,-2.19,-2.20
160.03,0.46,2.72,0.53,2.77,-2.77,-2.57,-2.56,-2.31,-2.24,-2.26
161.63,0.46,2.77,0.47,2.76,-2.76,-2.55,-2.52,-2.30,-2.29,-2.31
163.24,0.46,2.81,0.41,2.74,-2.74,-2.52,-2.47,-2.28,-2.33,-2.35
164.88,0.46,2.84,0.35,2.71,-2.71,-2.49,-2.43,-2.25,-2.36,-2.38
166.53,0.28,2.69,0.28,2.67,-2.67,-2.47,-2.39,-2.38,-2.39,-2.41
168.19,0.23,2.66,0.20,2.61,-2.61,-2.44,-2.34,-2.37,-2.40,-2.43
169.87,0.18,2.62,0.12,2.53,-2.53,-2.41,-2.31,-2.35,-2.41,-2.44
171.57,0.04,2.48,0.04,2.46,-2.46,-2.38,-2.27,-2.42,-2.42,-2.43
173.29,0.00,2.42,-0.01,2.40,-2.40,-2.35,-2.23,-2.40,-2.41,-2.42
175.02,0.00,2.40,-0.04,2.37,-2.37,-2.32,-2.20,-2.37,-2.41,-2.40
176.77,0.00,2.40,-0.04,2.36,-2.36,-2.29,-2.17,-2.36,-2.40,-2.39
178.54,-0.18,2.20,-0.02,2.37,-2.37,-2.26,-2.13,-2.55,-2.39,-2.38
180.32,-0.23,2.14,-0.01,2.38,-2.38,-2.23,-2.11,-2.61,-2.38,-2.37
182.13,-0.23,2.12,0.01,2.39,-2.39,-2.20,-2.08,-2.62,-2.38,-2.35
183.95,-0.23,2.12,0.04,2.41,-2.41,-2.17,-2.05,-2.64,-2.37,-2.34
185.79,-0.16,2.19,0.08,2.44,-2.44,-2.14,-2.03,-2.60,-2.37,-2.35
187.65,0.13,2.49,0.10,2.47,-2.47,-2.11,-2.01,-2.34,-2.37,-2.36
189.52,0.40,2.78,0.12,2.49,-2.49,-2.08,-1.99,-2.09,-2.37,-2.37
191.42,0.46,2.85,0.13,2.51,-2.51,-2.05,-1.97,-2.05,-2.38,-2.39
193.33,0.46,2.86,0.13,2.52,-2.52,-2.02,-1.95,-2.05,-2.39,-2.40
195.27,0.36,2.76,0.09,2.50,-2.50,-1.98,-1.94,-2.13,-2.40,-2.40
197.22,0.14,2.55,0.04,2.45,-2.45,-1.95,-1.92,-2.31,-2.41,-2.41
199.19,-0.13,2.31,-0.04,2.38,-2.38,-1.92,-1.91,-2.51,-2.43,-2.44
201.18,-0.23,2.22,-0.16,2.28,-2.28,-1.90,-1.90,-2.51,-2.44,-2.44
203.19,-0.27,2.19,-0.29,2.17,-2.17,-1.87,-1.89,-2.44,-2.46,-2.45
205.23,-0.39,2.09,-0.42,2.05,-2.05,-1.84,-1.88,-2.44,-2.47,-2.47
207.28,-0.53,1.95,-0.54,1.94,-1.94,-1.81,-1.87,-2.46,-2.48,-2.47
209.35,-0.65,1.84,-0.66,1.83,-1.83,-1.78,-1.86,-2.47,-2.49,-2.49
211.44,-0.81,1.70,-0.76,1.74,-1.74,-1.75,-1.85,-2.55,-2.50,-2.51
213.56,-1.06,1.45,-0.82,1.69,-1.69,-1.72,-1.85,-2.75,-2.51,-2.51
215.69,-1.14,1.37,-0.84,1.67,-1.67,-1.70,-1.84,-2.81,-2.52,-2.51
217.85,-1.14,1.39,-0.85,1.68,-1.68,-1.67,-1.84,-2.82,-2.53,-2.53
220.03,-1.05,1.49,-0.82,1.72,-1.72,-1.64,-1.83,-2.77,-2.53,-2.53
222.23,-0.86,1.69,-0.78,1.76,-1.76,-1.62,-1.82,-2.62,-2.54,-2.55
224.45,-0.60,1.95,-0.74,1.81,-1.81,-1.59,-1.82,-2.40,-2.55,-2.55
226.70,-0.46,2.09,-0.70,1.85,-1.85,-1.56,-1.81,-2.31,-2.55,-2.55
228.96,-0.45,2.10,-0.65,1.90,-1.90,-1.54,-1.81,-2.35,-2.55,-2.55
231.25,-0.45,2.10,-0.60,1.95,-1.95,-1.51,-1.80,-2.40,-2.55,-2.55
233.57,-0.45,2.11,-0.56,2.00,-2.00,-1.49,-1.79,-2.45,-2.55,-2.55
235.90,-0.45,2.11,-0.51,2.04,-2.04,-1.47,-1.79,-2.49,-2.55,-2.56
238.26,-0.45,2.11,-0.48,2.07,-2.07,-1.44,-1.78,-2.52,-2.55,-2.56
240.64,-0.45,2.10,-0.47,2.08,-2.08,-1.42,-1.77,-2.53,-2.55,-2.55
243.05,-0.46,2.08,-0.48,2.06,-2.06,-1.40,-1.76,-2.52,-2.54,-2.54
245.48,-0.62,1.91,-0.51,2.02,-2.02,-1.37,-1.75,-2.64,-2.53,-2.53
247.93,-0.68,1.84,-0.56,1.96,-1.96,-1.35,-1.73,-2.64,-2.52,-2.52
250.41,-0.68,1.84,-0.61,1.90,-1.90,-1.33,-1.72,-2.58,-2.52,-2.52
252.92,-0.68,1.83,-0.66,1.85,-1.85,-1.31,-1.70,-2.53,-2.51,-2.51
255.45,-0.68,1.80,-0.69,1.80,-1.80,-1.29,-1.69,-2.48,-2.50,-2.48
258.00,-0.68,1.80,-0.73,1.75,-1.75,-1.27,-1.67,-2.43,-2.48,-2.48
260.58,-0.68,1.79,-0.76,1.71,-1.71,-1.25,-1.65,-2.39,-2.47,-2.47
263.19,-0.70,1.76,-0.78,1.67,-1.67,-1.23,-1.63,-2.37,-2.45,-2.45
265.82,-0.89,1.56,-0.80,1.63,-1.63,-1.21,-1.61,-2.52,-2.44,-2.45
268.48,-0.91,1.51,-0.83,1.59,-1.59,-1.20,-1.58,-2.50,-2.42,-2.42
271.16,-0.91,1.50,-0.85,1.55,-1.55,-1.18,-1.56,-2.46,-2.40,-2.40
273.87,-0.91,1.48,-0.87,1.51,-1.51,-1.16,-1.53,-2.42,-2.38,-2.39
276.61,-0.91,1.44,-0.90,1.46,-1.46,-1.15,-1.51,-2.37,-2.35,-2.35
279.38,-0.91,1.43,-0.93,1.40,-1.40,-1.13,-1.48,-2.31,-2.33,-2.33
282.17,-0.91,1.40,-0.96,1.35,-1.35,-1.11,-1.46,-2.25,-2.30,-2.31
284.99,-0.91,1.37,-0.99,1.29,-1.29,-1.10,-1.43,-2.20,-2.28,-2.28
287.84,-0.91,1.34,-1.01,1.23,-1.23,-1.08,-1.40,-2.14,-2.25,-2.25
290.72,-0.98,1.24,-1.03,1.18,-1.18,-1.07,-1.37,-2.16,-2.22,-2.22
293.63,-1.12,1.07,-1.05,1.14,-1.14,-1.05,-1.34,-2.26,-2.19,-2.19
296.57,-1.14,1.02,-1.06,1.10,-1.10,-1.04,-1.32,-2.24,-2.16,-2.16
299.53,-1.14,0.99,-1.08,1.05,-1.05,-1.03,-1.29,-2.19,-2.14,-2.13
302.53,-1.14,0.98,-1.10,1.01,-1.01,-1.01,-1.26,-2.15,-2.11,-2.11
305.55,-1.14,0.94,-1.12,0.97,-0.97,-1.00,-1.23,-2.11,-2.09,-2.08
308.61,-1.14,0.92,-1.13,0.94,-0.94,-0.99,-1.20,-2.08,-2.07,-2.06
311.69,-1.14,0.90,-1.15,0.91,-0.91,-0.98,-1.18,-2.05,-2.05,-2.04
314.81,-1.14,0.88,-1.15,0.89,-0.89,-0.97,-1.15,-2.02,-2.04,-2.01
317.96,-1.14,0.88,-1.16,0.87,-0.87,-0.96,-1.12,-2.01,-2.03,-2.02
321.14,-1.14,0.88,-1.15,0.86,-0.86,-0.95,-1.09,-2.00,-2.01,-2.02
324.35,-1.14,0.87,-1.15,0.86,-0.86,-0.93,-1.07,-2.00,-2.00,-2.01
327.59,-1.14,0.86,-1.14,0.85,-0.85,-0.93,-1.04,-1.99,-1.99,-2.00
330.87,-1.14,0.85,-1.14,0.84,-0.84,-0.92,-1.02,-1.98,-1.98,-1.99
334.18,-1.14,0.85,-1.14,0.83,-0.83,-0.91,-0.99,-1.97,-1.97,-1.98
337.52,-1.14,0.84,-1.14,0.82,-0.82,-0.90,-0.97,-1.96,-1.96,-1.97
340.90,-1.14,0.81,-1.14,0.81,-0.81,-0.89,-0.95,-1.95,-1.95,-1.95
344.30,-1.14,0.80,-1.14,0.79,-0.79,-0.88,-0.92,-1.93,-1.93,-1.94
347.75,-1.14,0.78,-1.14,0.77,-0.77,-0.87,-0.90,-1.91,-1.91,-1.92
351.23,-1.14,0.75,-1.14,0.75,-0.75,-0.87,-0.88,-1.89,-1.89,-1.89
354.74,-1.14,0.73,-1.14,0.73,-0.73,-0.86,-0.86,-1.87,-1.87,-1.87
358.28,-1.14,0.70,-1.14,0.71,-0.71,-0.85,-0.84,-1.84,-1.84,-1.84
361.87,-1.14,0.69,-1.13,0.69,-0.69,-0.85,-0.82,-1.82,-1.82,-1.82
365.49,-1.14,0.66,-1.13,0.67,-0.67,-0.84,-0.80,-1.81,-1.80,-1.79
369.14,-1.14,0.64,-1.11,0.66,-0.66,-0.84,-0.78,-1.80,-1.77,-1.78
372.83,-1.14,0.61,-1.11,0.65,-0.65,-0.83,-0.76,-1.78,-1.75,-1.75
376.56,-1.14,0.59,-1.11,0.62,-0.62,-0.83,-0.75,-1.76,-1.73,-1.73
380.33,-1.14,0.56,-1.12,0.59,-0.59,-0.82,-0.73,-1.73,-1.71,-1.70
384.13,-1.14,0.54,-1.13,0.56,-0.56,-0.82,-0.72,-1.70,-1.69,-1.68
387.97,-1.14,0.53,-1.15,0.53,-0.53,-0.81,-0.70,-1.67,-1.68,-1.67
391.85,-1.14,0.52,-1.18,0.48,-0.48,-0.81,-0.69,-1.62,-1.66,-1.66
395.77,-1.14,0.51,-1.23,0.42,-0.42,-0.81,-0.67,-1.56,-1.65,-1.65
399.73,-1.14,0.51,-1.28,0.36,-0.36,-0.80,-0.66,-1.49,-1.64,-1.64
403.72,-1.22,0.42,-1.34,0.29,-0.29,-0.80,-0.64,-1.51,-1.63,-1.63
407.76,-1.34,0.29,-1.39,0.24,-0.24,-0.80,-0.63,-1.57,-1.62,-1.62
411.84,-1.50,0.12,-1.44,0.18,-0.18,-0.80,-0.62,-1.67,-1.62,-1.61
415.96,-1.58,0.03,-1.50,0.11,-0.11,-0.80,-0.61,-1.69,-1.62,-1.61
420.12,-1.59,0.02,-1.55,0.06,-0.06,-0.79,-0.60,-1.65,-1.61,-1.61
424.32,-1.61,-0.00,-1.59,0.02,-0.02,-0.79,-0.59,-1.62,-1.61,-1.61
428.56,-1.76,-0.15,-1.62,-0.02,0.02,-0.79,-0.58,-1.74,-1.61,-1.61
432.85,-1.82,-0.21,-1.65,-0.05,0.05,-0.79,-0.57,-1.77,-1.60,-1.61
