frequency,raw,error,smoothed,error_smoothed,equalization,parametric_eq,fixed_band_eq,equalized_raw,equalized_smoothed,target
20.00,-18.92,-19.75,-18.91,-19.75,6.00,5.14,2.87,-12.92,-12.91,0.84
20.20,-18.78,-19.65,-18.78,-19.65,6.00,5.18,2.95,-12.78,-12.78,0.88
20.40,-18.64,-19.54,-18.65,-19.55,6.00,5.23,3.04,-12.64,-12.65,0.91
20.61,-18.50,-19.43,-18.50,-19.44,6.00,5.27,3.13,-12.50,-12.50,0.93
20.81,-18.36,-19.33,-18.36,-19.33,6.00,5.31,3.22,-12.36,-12.36,0.98
21.02,-18.21,-19.22,-18.20,-19.20,6.00,5.35,3.31,-12.21,-12.20,1.01
21.23,-18.02,-19.04,-18.02,-19.05,6.00,5.39,3.41,-12.02,-12.02,1.02
21.44,-17.82,-18.86,-17.82,-18.87,6.00,5.43,3.51,-11.82,-11.82,1.04
21.66,-17.63,-18.69,-17.62,-18.68,6.00,5.47,3.61,-11.63,-11.62,1.06
21.87,-17.43,-18.50,-17.44,-18.51,6.00,5.51,3.71,-11.43,-11.44,1.07
22.09,-17.27,-18.36,-17.28,-18.37,6.00,5.55,3.82,-11.27,-11.28,1.09
22.31,-17.16,-18.25,-17.15,-18.25,6.00,5.59,3.93,-11.16,-11.15,1.09
22.54,-17.05,-18.15,-17.05,-18.15,6.00,5.63,4.04,-11.05,-11.05,1.10
22.76,-16.94,-18.05,-16.94,-18.05,6.00,5.67,4.16,-10.94,-10.94,1.11
22.99,-16.83,-17.94,-16.81,-17.93,6.00,5.71,4.28,-10.83,-10.81,1.11
23.22,-16.67,-17.79,-16.67,-17.79,6.00,5.74,4.40,-10.67,-10.67,1.12
23.45,-16.51,-17.64,-16.51,-17.64,6.00,5.78,4.52,-10.51,-10.51,1.13
23.69,-16.36,-17.50,-16.35,-17.49,6.00,5.81,4.65,-10.36,-10.35,1.14
23.92,-16.20,-17.35,-16.22,-17.37,6.00,5.85,4.78,-10.20,-10.22,1.15
24.16,-16.11,-17.27,-16.12,-17.28,6.00,5.88,4.91,-10.11,-10.12,1.16
24.40,-16.06,-17.23,-16.06,-17.22,6.00,5.92,5.05,-10.06,-10.06,1.17
24.65,-16.00,-17.16,-16.01,-17.17,6.00,5.95,5.19,-10.00,-10.01,1.16
24.89,-15.93,-17.09,-15.91,-17.07,6.00,5.98,5.33,-9.93,-9.91,1.16
25.14,-15.77,-16.93,-15.76,-16.91,6.00,6.01,5.47,-9.77,-9.76,1.16
25.39,-15.53,-16.69,-15.53,-16.69,6.00,6.04,5.61,-9.53,-9.53,1.16
25.65,-15.29,-16.45,-15.28,-16.44,6.00,6.07,5.75,-9.29,-9.28,1.16
25.91,-15.05,-16.20,-15.09,-16.24,6.00,6.10,5.90,-9.05,-9.09,1.15
26.16,-14.97,-16.12,-14.99,-16.14,6.00,6.13,6.04,-8.97,-8.99,1.16
26.43,-14.99,-16.14,-14.98,-16.13,6.00,6.16,6.19,-8.99,-8.98,1.16
26.69,-15.00,-16.15,-15.00,-16.16,6.00,6.18,6.33,-9.00,-9.00,1.15
26.96,-15.02,-16.17,-14.97,-16.13,6.00,6.21,6.47,-9.02,-8.97,1.15
27.23,-14.87,-16.02,-14.87,-16.02,6.00,6.23,6.61,-8.87,-8.87,1.15
27.50,-14.69,-15.84,-14.70,-15.85,6.00,6.25,6.75,-8.69,-8.70,1.15
27.77,-14.51,-15.65,-14.51,-15.65,6.00,6.28,6.88,-8.51,-8.51,1.14
28.05,-14.34,-15.48,-14.35,-15.49,6.00,6.30,7.01,-8.34,-8.35,1.14
28.33,-14.21,-15.34,-14.21,-15.35,6.00,6.32,7.13,-8.21,-8.21,1.13
28.62,-14.08,-15.22,-14.08,-15.21,6.00,6.33,7.25,-8.08,-8.08,1.14
28.90,-13.94,-15.08,-13.92,-15.05,6.00,6.35,7.35,-7.94,-7.92,1.14
29.19,-13.72,-14.84,-13.71,-14.84,6.00,6.36,7.45,-7.72,-7.71,1.13
29.48,-13.46,-14.59,-13.45,-14.59,6.00,6.38,7.54,-7.46,-7.45,1.14
29.78,-13.19,-14.33,-13.20,-14.33,6.00,6.39,7.62,-7.19,-7.20,1.14
30.08,-12.96,-14.10,-12.99,-14.12,6.00,6.40,7.69,-6.96,-6.99,1.13
30.38,-12.84,-13.96,-12.84,-13.96,6.00,6.41,7.74,-6.84,-6.84,1.12
30.68,-12.72,-13.84,-12.71,-13.83,6.00,6.42,7.79,-6.72,-6.71,1.12
30.99,-12.61,-13.72,-12.59,-13.71,6.00,6.43,7.82,-6.61,-6.59,1.11
31.30,-12.44,-13.55,-12.44,-13.55,6.00,6.43,7.83,-6.44,-6.44,1.11
31.61,-12.28,-13.39,-12.28,-13.39,6.00,6.43,7.84,-6.28,-6.28,1.11
31.93,-12.12,-13.22,-12.12,-13.22,6.00,6.43,7.83,-6.12,-6.12,1.10
32.24,-11.97,-13.05,-11.97,-13.06,6.00,6.43,7.81,-5.97,-5.97,1.09
32.57,-11.83,-12.91,-11.82,-12.91,6.00,6.43,7.77,-5.83,-5.82,1.08
32.89,-11.69,-12.77,-11.69,-12.78,6.00,6.43,7.73,-5.69,-5.69,1.08
33.22,-11.58,-12.66,-11.59,-12.67,6.00,6.42,7.67,-5.58,-5.59,1.08
33.55,-11.50,-12.58,-11.50,-12.58,6.00,6.41,7.60,-5.50,-5.50,1.08
33.89,-11.42,-12.50,-11.40,-12.48,6.00,6.40,7.53,-5.42,-5.40,1.08
34.23,-11.30,-12.38,-11.30,-12.37,6.00,6.39,7.44,-5.30,-5.30,1.08
34.57,-11.17,-12.23,-11.17,-12.24,6.00,6.37,7.35,-5.17,-5.17,1.07
34.92,-11.03,-12.09,-11.02,-12.09,6.00,6.36,7.25,-5.03,-5.02,1.06
35.27,-10.86,-11.92,-10.85,-11.91,6.00,6.34,7.15,-4.86,-4.85,1.06
35.62,-10.68,-11.73,-10.68,-11.73,6.00,6.32,7.04,-4.68,-4.68,1.05
35.97,-10.50,-11.54,-10.52,-11.57,6.00,6.29,6.93,-4.50,-4.52,1.05
36.33,-10.40,-11.44,-10.40,-11.45,6.00,6.27,6.81,-4.40,-4.40,1.04
36.70,-10.31,-11.35,-10.30,-11.34,6.00,6.24,6.69,-4.31,-4.30,1.04
37.06,-10.20,-11.23,-10.18,-11.21,6.00,6.21,6.58,-4.20,-4.18,1.03
37.43,-10.02,-11.04,-10.02,-11.05,6.00,6.18,6.46,-4.02,-4.02,1.03
37.81,-9.84,-10.86,-9.85,-10.87,6.00,6.15,6.34,-3.84,-3.85,1.03
38.19,-9.67,-10.68,-9.67,-10.69,6.00,6.12,6.22,-3.67,-3.67,1.01
38.57,-9.52,-10.53,-9.51,-10.52,6.00,6.09,6.11,-3.52,-3.51,1.01
38.95,-9.36,-10.36,-9.37,-10.37,6.00,6.05,5.99,-3.36,-3.37,1.01
39.34,-9.25,-10.24,-9.25,-10.25,6.00,6.02,5.88,-3.25,-3.25,0.99
39.74,-9.15,-10.13,-9.14,-10.12,6.00,5.98,5.77,-3.15,-3.14,0.98
40.14,-9.02,-10.01,-9.01,-9.99,6.00,5.95,5.66,-3.02,-3.01,0.99
40.54,-8.85,-9.83,-8.85,-9.84,6.00,5.92,5.56,-2.85,-2.85,0.98
40.94,-8.68,-9.66,-8.68,-9.66,6.00,5.88,5.46,-2.68,-2.68,0.98
41.35,-8.52,-9.48,-8.51,-9.48,6.00,5.85,5.36,-2.52,-2.51,0.97
41.76,-8.35,-9.30,-8.35,-9.31,6.00,5.82,5.27,-2.35,-2.35,0.95
42.18,-8.21,-9.15,-8.22,-9.16,6.00,5.78,5.18,-2.21,-2.22,0.94
42.60,-8.09,-9.00,-8.09,-9.01,6.00,5.75,5.09,-2.09,-2.09,0.92
43.03,-7.97,-8.87,-7.94,-8.83,6.00,5.72,5.01,-1.97,-1.94,0.90
43.46,-7.77,-8.64,-7.77,-8.64,6.00,5.68,4.93,-1.77,-1.77,0.88
43.90,-7.57,-8.40,-7.60,-8.44,6.00,5.64,4.85,-1.57,-1.60,0.83
44.33,-7.44,-8.24,-7.45,-8.25,6.00,5.60,4.78,-1.44,-1.45,0.81
44.78,-7.34,-8.11,-7.33,-8.10,6.00,5.56,4.71,-1.34,-1.33,0.77
45.23,-7.22,-7.97,-7.22,-7.96,6.00,5.52,4.65,-1.22,-1.22,0.75
45.68,-7.09,-7.81,-7.09,-7.81,6.00,5.48,4.58,-1.09,-1.09,0.72
46.13,-6.95,-7.65,-6.93,-7.64,6.00,5.43,4.53,-0.95,-0.93,0.71
46.60,-6.77,-7.47,-6.77,-7.46,6.00,5.38,4.47,-0.77,-0.77,0.70
47.06,-6.59,-7.27,-6.61,-7.30,6.00,5.33,4.42,-0.59,-0.61,0.69
47.53,-6.47,-7.15,-6.46,-7.15,6.00,5.28,4.37,-0.47,-0.46,0.68
48.01,-6.34,-7.02,-6.32,-7.00,6.00,5.22,4.33,-0.34,-0.32,0.68
48.49,-6.18,-6.85,-6.18,-6.86,6.01,5.16,4.29,-0.17,-0.18,0.68
48.97,-6.03,-6.70,-6.03,-6.69,6.02,5.10,4.25,-0.01,-0.01,0.67
49.46,-5.87,-6.53,-5.87,-6.53,6.02,5.04,4.21,0.16,0.16,0.66
49.96,-5.71,-6.37,-5.71,-6.38,6.02,4.98,4.18,0.32,0.31,0.67
50.46,-5.57,-6.25,-5.56,-6.24,6.01,4.91,4.15,0.44,0.45,0.68
50.96,-5.43,-6.12,-5.44,-6.12,5.98,4.84,4.12,0.55,0.54,0.69
51.47,-5.33,-6.01,-5.33,-6.01,5.93,4.77,4.09,0.60,0.60,0.68
51.99,-5.24,-5.91,-5.23,-5.90,5.86,4.70,4.07,0.62,0.64,0.67
52.51,-5.12,-5.78,-5.12,-5.78,5.77,4.63,4.04,0.65,0.65,0.66
53.03,-5.00,-5.64,-5.00,-5.64,5.65,4.55,4.02,0.65,0.65,0.65
53.56,-4.88,-5.49,-4.88,-5.49,5.50,4.47,4.00,0.62,0.62,0.62
54.10,-4.76,-5.33,-4.76,-5.34,5.34,4.39,3.97,0.58,0.58,0.58
54.64,-4.64,-5.17,-4.64,-5.17,5.16,4.31,3.95,0.52,0.52,0.54
55.18,-4.52,-5.01,-4.52,-5.01,4.99,4.23,3.93,0.48,0.48,0.50
55.74,-4.39,-4.83,-4.38,-4.83,4.84,4.14,3.90,0.45,0.46,0.44
56.29,-4.26,-4.66,-4.25,-4.65,4.70,4.06,3.88,0.44,0.44,0.40
56.86,-4.13,-4.48,-4.16,-4.50,4.57,3.97,3.85,0.44,0.41,0.35
57.42,-4.10,-4.39,-4.11,-4.40,4.45,3.88,3.82,0.35,0.34,0.29
58.00,-4.10,-4.34,-4.10,-4.34,4.34,3.79,3.79,0.24,0.24,0.24
58.58,-4.10,-4.28,-4.08,-4.27,4.24,3.70,3.76,0.14,0.16,0.18
59.16,-4.06,-4.20,-4.03,-4.16,4.14,3.60,3.72,0.08,0.12,0.14
59.76,-3.93,-4.02,-3.97,-4.05,4.04,3.51,3.69,0.11,0.07,0.09
60.35,-3.88,-3.90,-3.90,-3.93,3.92,3.41,3.64,0.04,0.02,0.02
60.96,-3.87,-3.85,-3.82,-3.80,3.78,3.32,3.60,-0.09,-0.05,-0.02
61.57,-3.74,-3.65,-3.74,-3.66,3.62,3.22,3.55,-0.12,-0.12,-0.09
62.18,-3.60,-3.46,-3.61,-3.48,3.44,3.12,3.50,-0.15,-0.17,-0.14
62.80,-3.46,-3.28,-3.44,-3.26,3.26,3.02,3.44,-0.19,-0.18,-0.18
63.43,-3.28,-3.05,-3.27,-3.05,3.08,2.92,3.38,-0.20,-0.19,-0.22
64.07,-3.08,-2.82,-3.11,-2.84,2.89,2.81,3.31,-0.19,-0.22,-0.26
64.71,-2.96,-2.66,-2.96,-2.66,2.70,2.71,3.24,-0.26,-0.26,-0.30
65.35,-2.85,-2.51,-2.84,-2.51,2.51,2.60,3.17,-0.34,-0.33,-0.34
66.01,-2.73,-2.36,-2.72,-2.36,2.32,2.50,3.09,-0.41,-0.40,-0.36
66.67,-2.58,-2.18,-2.56,-2.17,2.14,2.39,3.01,-0.44,-0.42,-0.39
67.33,-2.40,-1.98,-2.39,-1.97,1.97,2.29,2.93,-0.43,-0.42,-0.41
68.01,-2.18,-1.75,-2.22,-1.78,1.79,2.18,2.84,-0.39,-0.42,-0.43
68.69,-2.07,-1.61,-2.06,-1.61,1.62,2.07,2.75,-0.45,-0.44,-0.45
69.37,-1.94,-1.46,-1.93,-1.45,1.45,1.96,2.66,-0.48,-0.47,-0.48
70.07,-1.80,-1.30,-1.79,-1.30,1.29,1.85,2.56,-0.50,-0.49,-0.50
70.77,-1.64,-1.14,-1.63,-1.12,1.14,1.74,2.46,-0.50,-0.48,-0.50
71.48,-1.48,-0.96,-1.50,-0.98,1.00,1.63,2.36,-0.48,-0.50,-0.52
72.19,-1.37,-0.83,-1.40,-0.86,0.87,1.52,2.26,-0.50,-0.53,-0.54
72.91,-1.37,-0.81,-1.31,-0.76,0.74,1.41,2.15,-0.63,-0.57,-0.56
73.64,-1.22,-0.64,-1.21,-0.63,0.61,1.30,2.05,-0.60,-0.59,-0.58
74.38,-1.08,-0.49,-1.10,-0.51,0.49,1.19,1.94,-0.59,-0.61,-0.59
75.12,-0.96,-0.34,-0.98,-0.37,0.37,1.08,1.83,-0.59,-0.61,-0.62
75.87,-0.92,-0.28,-0.89,-0.26,0.26,0.96,1.72,-0.66,-0.63,-0.63
76.63,-0.80,-0.15,-0.80,-0.15,0.14,0.85,1.61,-0.65,-0.65,-0.65
77.40,-0.69,-0.03,-0.69,-0.03,0.04,0.74,1.50,-0.65,-0.65,-0.66
78.17,-0.59,0.09,-0.58,0.09,-0.07,0.63,1.39,-0.65,-0.64,-0.68
78.95,-0.46,0.22,-0.50,0.18,-0.16,0.52,1.28,-0.62,-0.66,-0.68
79.74,-0.45,0.23,-0.43,0.26,-0.26,0.41,1.16,-0.71,-0.69,-0.67
80.54,-0.37,0.32,-0.36,0.32,-0.35,0.30,1.05,-0.72,-0.72,-0.69
81.35,-0.28,0.41,-0.27,0.41,-0.44,0.19,0.94,-0.72,-0.71,-0.69
82.16,-0.18,0.50,-0.16,0.51,-0.52,0.08,0.82,-0.70,-0.69,-0.68
82.98,0.00,0.66,-0.05,0.61,-0.60,-0.02,0.71,-0.60,-0.66,-0.66
83.81,0.00,0.65,0.06,0.71,-0.68,-0.13,0.60,-0.68,-0.62,-0.65
84.65,0.15,0.80,0.14,0.78,-0.75,-0.24,0.48,-0.60,-0.61,-0.64
85.50,0.23,0.85,0.18,0.81,-0.81,-0.34,0.37,-0.58,-0.63,-0.62
86.35,0.23,0.83,0.27,0.87,-0.87,-0.45,0.26,-0.63,-0.60,-0.60
87.22,0.28,0.87,0.33,0.92,-0.91,-0.55,0.14,-0.62,-0.57,-0.59
88.09,0.46,1.03,0.40,0.96,-0.94,-0.65,0.03,-0.48,-0.55,-0.57
88.97,0.46,1.00,0.45,0.99,-0.98,-0.75,-0.08,-0.52,-0.54,-0.54
89.86,0.46,0.98,0.49,1.01,-1.03,-0.85,-0.20,-0.57,-0.55,-0.52
90.76,0.48,1.00,0.52,1.03,-1.09,-0.94,-0.31,-0.60,-0.57,-0.52
91.66,0.62,1.12,0.59,1.10,-1.14,-1.04,-0.43,-0.52,-0.55,-0.49
92.58,0.69,1.19,0.70,1.19,-1.19,-1.13,-0.54,-0.50,-0.49,-0.50
93.51,0.79,1.27,0.80,1.28,-1.24,-1.22,-0.66,-0.45,-0.44,-0.48
94.44,0.89,1.37,0.87,1.35,-1.29,-1.31,-0.77,-0.40,-0.42,-0.48
95.39,0.91,1.39,0.91,1.39,-1.34,-1.40,-0.89,-0.43,-0.43,-0.47
96.34,0.91,1.40,0.92,1.40,-1.40,-1.49,-1.00,-0.49,-0.48,-0.49
97.30,0.91,1.40,0.90,1.39,-1.45,-1.57,-1.11,-0.54,-0.55,-0.49
98.28,0.91,1.41,0.94,1.44,-1.50,-1.65,-1.23,-0.59,-0.56,-0.50
99.26,0.97,1.48,1.01,1.52,-1.54,-1.73,-1.34,-0.57,-0.53,-0.51
100.25,1.14,1.66,1.08,1.60,-1.57,-1.81,-1.45,-0.43,-0.49,-0.52
101.25,1.14,1.68,1.14,1.68,-1.61,-1.88,-1.57,-0.47,-0.47,-0.54
102.27,1.14,1.70,1.16,1.72,-1.66,-1.95,-1.68,-0.52,-0.50,-0.56
103.29,1.14,1.73,1.14,1.72,-1.72,-2.02,-1.79,-0.57,-0.57,-0.59
104.32,1.14,1.75,1.13,1.74,-1.78,-2.09,-1.90,-0.64,-0.65,-0.60
105.37,1.14,1.78,1.14,1.77,-1.85,-2.15,-2.00,-0.70,-0.71,-0.63
106.42,1.14,1.82,1.18,1.86,-1.91,-2.21,-2.11,-0.77,-0.73,-0.67
107.48,1.24,1.97,1.25,1.97,-1.98,-2.27,-2.21,-0.74,-0.74,-0.72
108.56,1.36,2.14,1.32,2.10,-2.06,-2.32,-2.31,-0.70,-0.74,-0.78
109.64,1.37,2.20,1.37,2.20,-2.15,-2.37,-2.41,-0.77,-0.77,-0.83
110.74,1.37,2.25,1.38,2.27,-2.23,-2.42,-2.51,-0.86,-0.85,-0.88
111.85,1.37,2.30,1.37,2.31,-2.31,-2.47,-2.60,-0.94,-0.94,-0.93
112.97,1.37,2.37,1.37,2.36,-2.38,-2.51,-2.69,-1.01,-1.01,-1.00
114.10,1.37,2.42,1.37,2.42,-2.44,-2.55,-2.77,-1.07,-1.07,-1.05
115.24,1.37,2.48,1.37,2.48,-2.49,-2.59,-2.85,-1.12,-1.12,-1.10
116.39,1.37,2.54,1.37,2.53,-2.53,-2.63,-2.92,-1.16,-1.16,-1.16
117.55,1.37,2.58,1.37,2.58,-2.58,-2.66,-2.99,-1.20,-1.20,-1.21
118.73,1.37,2.63,1.37,2.63,-2.62,-2.69,-3.05,-1.25,-1.25,-1.26
119.92,1.37,2.66,1.37,2.66,-2.66,-2.72,-3.11,-1.29,-1.29,-1.29
121.12,1.37,2.69,1.37,2.69,-2.70,-2.74,-3.16,-1.33,-1.33,-1.32
122.33,1.37,2.72,1.37,2.71,-2.73,-2.76,-3.20,-1.36,-1.36,-1.35
123.55,1.37,2.73,1.37,2.73,-2.74,-2.78,-3.24,-1.37,-1.37,-1.35
124.79,1.37,2.75,1.38,2.75,-2.74,-2.80,-3.27,-1.37,-1.36,-1.38
126.03,1.37,2.77,1.39,2.78,-2.73,-2.81,-3.29,-1.36,-1.35,-1.39
127.29,1.37,2.78,1.35,2.76,-2.72,-2.82,-3.31,-1.34,-1.37,-1.41
128.57,1.32,2.76,1.28,2.71,-2.70,-2.83,-3.32,-1.38,-1.42,-1.43
129.85,1.16,2.61,1.21,2.66,-2.69,-2.84,-3.32,-1.53,-1.48,-1.45
131.15,1.14,2.60,1.15,2.61,-2.68,-2.84,-3.32,-1.54,-1.53,-1.46
132.46,1.14,2.62,1.13,2.61,-2.67,-2.85,-3.31,-1.52,-1.54,-1.48
133.79,1.14,2.64,1.14,2.64,-2.65,-2.85,-3.30,-1.51,-1.51,-1.49
135.12,1.14,2.67,1.15,2.67,-2.63,-2.85,-3.28,-1.49,-1.48,-1.53
136.48,1.14,2.68,1.15,2.68,-2.62,-2.84,-3.26,-1.48,-1.48,-1.54
137.84,1.14,2.70,1.10,2.67,-2.62,-2.84,-3.23,-1.47,-1.52,-1.56
139.22,1.02,2.62,1.03,2.62,-2.61,-2.83,-3.20,-1.59,-1.58,-1.60
140.61,0.93,2.56,0.96,2.58,-2.61,-2.82,-3.16,-1.68,-1.65,-1.63
142.02,0.91,2.55,0.91,2.55,-2.61,-2.81,-3.12,-1.70,-1.70,-1.63
143.44,0.91,2.57,0.90,2.57,-2.61,-2.80,-3.08,-1.70,-1.70,-1.66
144.87,0.91,2.60,0.91,2.60,-2.61,-2.79,-3.04,-1.70,-1.70,-1.69
146.32,0.91,2.64,0.92,2.64,-2.62,-2.77,-2.99,-1.71,-1.70,-1.73
147.78,0.91,2.66,0.92,2.68,-2.64,-2.76,-2.94,-1.73,-1.72,-1.75
149.26,0.91,2.72,0.88,2.69,-2.66,-2.74,-2.90,-1.75,-1.79,-1.81
150.75,0.81,2.68,0.81,2.68,-2.69,-2.72,-2.85,-1.87,-1.87,-1.87
152.26,0.72,2.65,0.75,2.68,-2.70,-2.70,-2.80,-1.98,-1.96,-1.93
153.78,0.69,2.68,0.71,2.71,-2.72,-2.68,-2.75,-2.03,-2.01,-1.99
155.32,0.69,2.77,0.68,2.74,-2.74,-2.66,-2.70,-2.04,-2.06,-2.07
156.88,0.67,2.81,0.62,2.76,-2.75,-2.64,-2.65,-2.08,-2.13,-2.14
158.44,0.52,2.72,0.55,2.76,-2.77,-2.62,-2.60,-2.25,-2.22,-2.20
160.03,0.46,2.72,0.49,2.75,-2.78,-2.60,-2.56,-2.32,-2.29,-2.26
161.63,0.46,2.77,0.47,2.78,-2.78,-2.57,-2.51,-2.32,-2.31,-2.31
163.24,0.46,2.81,0.45,2.80,-2.77,-2.55,-2.47,-2.31,-2.32,-2.35
164.88,0.46,2.84,0.40,2.79,-2.74,-2.52,-2.42,-2.28,-2.34,-2.38
166.53,0.28,2.69,0.34,2.75,-2.71,-2.50,-2.38,-2.42,-2.37,-2.41
168.19,0.23,2.66,0.24,2.67,-2.66,-2.47,-2.34,-2.43,-2.42,-2.43
169.87,0.18,2.62,0.14,2.57,-2.61,-2.45,-2.30,-2.42,-2.47,-2.44
171.57,0.04,2.48,0.07,2.51,-2.53,-2.42,-2.26,-2.49,-2.46,-2.43
173.29,0.00,2.42,0.03,2.46,-2.44,-2.39,-2.22,-2.44,-2.41,-2.42
175.02,0.00,2.40,-0.01,2.39,-2.34,-2.37,-2.19,-2.34,-2.36,-2.40
176.77,0.00,2.40,-0.06,2.33,-2.26,-2.34,-2.16,-2.26,-2.32,-2.39
178.54,-0.18,2.20,-0.13,2.24,-2.21,-2.31,-2.13,-2.38,-2.34,-2.38
180.32,-0.23,2.14,-0.21,2.16,-2.20,-2.29,-2.10,-2.43,-2.41,-2.37
182.13,-0.23,2.12,-0.27,2.08,-2.24,-2.26,-2.07,-2.47,-2.51,-2.35
183.95,-0.23,2.12,-0.22,2.12,-2.31,-2.23,-2.04,-2.54,-2.54,-2.34
185.79,-0.16,2.19,-0.08,2.27,-2.41,-2.20,-2.02,-2.56,-2.48,-2.35
187.65,0.13,2.49,0.12,2.48,-2.50,-2.17,-2.00,-2.37,-2.37,-2.36
189.52,0.40,2.78,0.33,2.71,-2.58,-2.15,-1.98,-2.18,-2.25,-2.37
191.42,0.46,2.85,0.47,2.86,-2.64,-2.12,-1.96,-2.18,-2.16,-2.39
193.33,0.46,2.86,0.47,2.86,-2.66,-2.09,-1.94,-2.20,-2.20,-2.40
195.27,0.36,2.76,0.32,2.73,-2.65,-2.06,-1.93,-2.29,-2.33,-2.40
197.22,0.14,2.55,0.13,2.55,-2.60,-2.04,-1.91,-2.45,-2.47,-2.41
199.19,-0.13,2.31,-0.06,2.37,-2.49,-2.01,-1.90,-2.62,-2.55,-2.44
201.18,-0.23,2.22,-0.21,2.24,-2.35,-1.98,-1.89,-2.58,-2.56,-2.44
203.19,-0.27,2.19,-0.31,2.15,-2.19,-1.95,-1.88,-2.46,-2.50,-2.45
205.23,-0.39,2.09,-0.39,2.07,-2.02,-1.93,-1.87,-2.41,-2.41,-2.47
207.28,-0.53,1.95,-0.50,1.98,-1.86,-1.90,-1.86,-2.39,-2.36,-2.47
209.35,-0.65,1.84,-0.67,1.82,-1.73,-1.87,-1.85,-2.38,-2.40,-2.49
211.44,-0.81,1.70,-0.85,1.65,-1.63,-1.85,-1.84,-2.44,-2.48,-2.51
213.56,-1.06,1.45,-1.01,1.50,-1.57,-1.82,-1.84,-2.63,-2.58,-2.51
215.69,-1.14,1.37,-1.13,1.39,-1.55,-1.80,-1.83,-2.69,-2.68,-2.51
217.85,-1.14,1.39,-1.14,1.38,-1.57,-1.77,-1.82,-2.70,-2.71,-2.53
220.03,-1.05,1.49,-1.02,1.51,-1.62,-1.75,-1.82,-2.66,-2.64,-2.53
222.23,-0.86,1.69,-0.83,1.71,-1.70,-1.72,-1.81,-2.55,-2.53,-2.55
224.45,-0.60,1.95,-0.64,1.91,-1.80,-1.70,-1.81,-2.40,-2.44,-2.55
226.70,-0.46,2.09,-0.50,2.05,-1.92,-1.67,-1.80,-2.37,-2.41,-2.55
228.96,-0.45,2.10,-0.43,2.11,-2.02,-1.65,-1.79,-2.47,-2.46,-2.55
231.25,-0.45,2.10,-0.43,2.12,-2.10,-1.62,-1.79,-2.55,-2.54,-2.55
233.57,-0.45,2.11,-0.45,2.11,-2.14,-1.60,-1.78,-2.59,-2.59,-2.55
235.90,-0.45,2.11,-0.45,2.11,-2.14,-1.58,-1.77,-2.59,-2.59,-2.56
238.26,-0.45,2.11,-0.43,2.12,-2.11,-1.55,-1.76,-2.55,-2.54,-2.56
240.64,-0.45,2.10,-0.45,2.10,-2.06,-1.53,-1.75,-2.50,-2.51,-2.55
243.05,-0.46,2.08,-0.51,2.03,-2.01,-1.51,-1.74,-2.47,-2.52,-2.54
245.48,-0.62,1.91,-0.58,1.95,-1.97,-1.49,-1.73,-2.58,-2.55,-2.53
247.93,-0.68,1.84,-0.65,1.87,-1.93,-1.47,-1.72,-2.61,-2.58,-2.52
250.41,-0.68,1.84,-0.69,1.82,-1.89,-1.45,-1.70,-2.57,-2.58,-2.52
252.92,-0.68,1.83,-0.68,1.82,-1.85,-1.42,-1.69,-2.53,-2.53,-2.51
255.45,-0.68,1.80,-0.68,1.81,-1.80,-1.40,-1.67,-2.48,-2.48,-2.48
258.00,-0.68,1.80,-0.66,1.81,-1.75,-1.38,-1.65,-2.43,-2.41,-2.48
260.58,-0.68,1.79,-0.69,1.77,-1.71,-1.36,-1.63,-2.39,-2.40,-2.47
263.19,-0.70,1.76,-0.76,1.70,-1.67,-1.34,-1.61,-2.37,-2.43,-2.45
265.82,-0.89,1.56,-0.83,1.61,-1.63,-1.33,-1.59,-2.51,-2.46,-2.45
268.48,-0.91,1.51,-0.89,1.53,-1.58,-1.31,-1.57,-2.49,-2.47,-2.42
271.16,-0.91,1.50,-0.92,1.48,-1.54,-1.29,-1.55,-2.44,-2.46,-2.40
273.87,-0.91,1.48,-0.91,1.47,-1.50,-1.27,-1.52,-2.40,-2.41,-2.39
276.61,-0.91,1.44,-0.91,1.45,-1.46,-1.25,-1.50,-2.36,-2.36,-2.35
279.38,-0.91,1.43,-0.91,1.42,-1.41,-1.23,-1.47,-2.32,-2.32,-2.33
282.17,-0.91,1.40,-0.90,1.41,-1.37,-1.22,-1.44,-2.28,-2.27,-2.31
284.99,-0.91,1.37,-0.90,1.38,-1.32,-1.20,-1.42,-2.23,-2.22,-2.28
287.84,-0.91,1.34,-0.94,1.31,-1.27,-1.18,-1.39,-2.18,-2.20,-2.25
290.72,-0.98,1.24,-1.00,1.22,-1.21,-1.17,-1.36,-2.19,-2.21,-2.22
293.63,-1.12,1.07,-1.07,1.11,-1.14,-1.15,-1.33,-2.26,-2.22,-2.19
296.57,-1.14,1.02,-1.13,1.03,-1.08,-1.14,-1.30,-2.22,-2.21,-2.16
299.53,-1.14,0.99,-1.15,0.98,-1.02,-1.12,-1.28,-2.16,-2.17,-2.13
302.53,-1.14,0.98,-1.14,0.97,-0.97,-1.11,-1.25,-2.11,-2.11,-2.11
305.55,-1.14,0.94,-1.14,0.95,-0.93,-1.09,-1.22,-2.07,-2.07,-2.08
308.61,-1.14,0.92,-1.14,0.92,-0.91,-1.08,-1.19,-2.05,-2.05,-2.06
311.69,-1.14,0.90,-1.14,0.90,-0.90,-1.07,-1.16,-2.03,-2.03,-2.04
314.81,-1.14,0.88,-1.14,0.89,-0.89,-1.05,-1.14,-2.03,-2.03,-2.01
317.96,-1.14,0.88,-1.14,0.88,-0.88,-1.04,-1.11,-2.02,-2.02,-2.02
321.14,-1.14,0.88,-1.14,0.87,-0.87,-1.03,-1.08,-2.01,-2.01,-2.02
324.35,-1.14,0.87,-1.14,0.87,-0.87,-1.01,-1.06,-2.00,-2.00,-2.01
327.59,-1.14,0.86,-1.14,0.86,-0.86,-1.00,-1.03,-2.00,-2.00,-2.00
330.87,-1.14,0.85,-1.14,0.86,-0.85,-0.99,-1.01,-1.99,-1.99,-1.99
334.18,-1.14,0.85,-1.14,0.84,-0.84,-0.98,-0.98,-1.98,-1.98,-1.98
337.52,-1.14,0.84,-1.14,0.83,-0.83,-0.97,-0.96,-1.97,-1.97,-1.97
340.90,-1.14,0.81,-1.14,0.82,-0.81,-0.96,-0.94,-1.95,-1.95,-1.95
344.30,-1.14,0.80,-1.14,0.80,-0.80,-0.95,-0.91,-1.93,-1.93,-1.94
347.75,-1.14,0.78,-1.14,0.78,-0.78,-0.94,-0.89,-1.91,-1.91,-1.92
351.23,-1.14,0.75,-1.14,0.76,-0.76,-0.93,-0.87,-1.89,-1.89,-1.89
354.74,-1.14,0.73,-1.14,0.73,-0.73,-0.92,-0.85,-1.87,-1.87,-1.87
358.28,-1.14,0.70,-1.14,0.71,-0.71,-0.91,-0.83,-1.85,-1.85,-1.84
361.87,-1.14,0.69,-1.14,0.68,-0.68,-0.90,-0.81,-1.82,-1.82,-1.82
365.49,-1.14,0.66,-1.14,0.66,-0.66,-0.89,-0.79,-1.80,-1.80,-1.79
369.14,-1.14,0.64,-1.14,0.64,-0.63,-0.88,-0.77,-1.77,-1.77,-1.78
372.83,-1.14,0.61,-1.14,0.61,-0.61,-0.88,-0.76,-1.75,-1.75,-1.75
376.56,-1.14,0.59,-1.14,0.59,-0.60,-0.87,-0.74,-1.73,-1.73,-1.73
380.33,-1.14,0.56,-1.14,0.56,-0.59,-0.86,-0.72,-1.72,-1.72,-1.70
384.13,-1.14,0.54,-1.14,0.55,-0.57,-0.85,-0.71,-1.71,-1.71,-1.68
387.97,-1.14,0.53,-1.14,0.53,-0.55,-0.85,-0.69,-1.69,-1.69,-1.67
391.85,-1.14,0.52,-1.13,0.53,-0.52,-0.84,-0.68,-1.66,-1.65,-1.66
395.77,-1.14,0.51,-1.13,0.52,-0.48,-0.84,-0.66,-1.61,-1.61,-1.65
399.73,-1.14,0.51,-1.15,0.49,-0.42,-0.83,-0.65,-1.56,-1.57,-1.64
403.72,-1.22,0.42,-1.23,0.40,-0.35,-0.83,-0.64,-1.57,-1.58,-1.63
407.76,-1.34,0.29,-1.35,0.27,-0.27,-0.82,-0.62,-1.61,-1.62,-1.62
411.84,-1.50,0.12,-1.47,0.14,-0.18,-0.82,-0.61,-1.68,-1.65,-1.61
415.96,-1.58,0.03,-1.54,0.06,-0.09,-0.81,-0.60,-1.67,-1.63,-1.61
420.12,-1.59,0.02,-1.60,0.00,-0.01,-0.81,-0.59,-1.60,-1.62,-1.61
424.32,-1.61,-0.00,-1.67,-0.06,0.05,-0.80,-0.58,-1.56,-1.62,-1.61
428.56,-1.76,-0.15,-1.73,-0.12,0.09,-0.80,-0.57,-1.67,-1.64,-1.61
432.85,-1.82,-0.21,-1.76,-0.15,0.11,-0.80,-0.56,-1.71,-1.65,-1.61
