frequency,raw,error,smoothed,error_smoothed,equalization,parametric_eq,fixed_band_eq,equalized_raw,equalized_smoothed,target
20.00,-14.01,-15.02,-14.05,-15.08,6.00,4.20,1.30,-8.01,-8.05,1.01
20.20,-13.72,-14.77,-13.75,-14.81,6.00,4.42,1.34,-7.72,-7.75,1.05
20.40,-13.43,-14.51,-13.44,-14.53,6.00,4.64,1.38,-7.43,-7.44,1.08
20.61,-13.15,-14.26,-13.14,-14.25,6.00,4.85,1.42,-7.15,-7.14,1.11
20.81,-12.86,-14.01,-12.83,-13.97,6.00,5.07,1.47,-6.86,-6.83,1.15
21.02,-12.58,-13.77,-12.53,-13.69,6.00,5.27,1.51,-6.58,-6.53,1.19
21.23,-12.27,-13.46,-12.23,-13.41,6.00,5.47,1.56,-6.27,-6.23,1.20
21.44,-11.95,-13.17,-11.92,-13.13,6.00,5.65,1.61,-5.95,-5.92,1.22
21.66,-11.65,-12.89,-11.62,-12.85,6.00,5.82,1.66,-5.65,-5.62,1.24
21.87,-11.33,-12.58,-11.32,-12.56,6.00,5.98,1.71,-5.33,-5.32,1.25
22.09,-11.02,-12.29,-11.02,-12.28,6.00,6.11,1.76,-5.02,-5.02,1.27
22.31,-10.70,-11.97,-10.72,-11.99,6.00,6.21,1.81,-4.70,-4.72,1.27
22.54,-10.40,-11.68,-10.41,-11.69,6.00,6.29,1.87,-4.40,-4.41,1.28
22.76,-10.08,-11.37,-10.10,-11.39,6.00,6.34,1.93,-4.08,-4.10,1.29
22.99,-9.77,-11.05,-9.79,-11.09,6.00,6.36,1.99,-3.77,-3.79,1.29
23.22,-9.49,-10.78,-9.49,-10.80,6.00,6.35,2.04,-3.49,-3.49,1.30
23.45,-9.19,-10.50,-9.19,-10.50,6.00,6.31,2.11,-3.19,-3.19,1.31
23.69,-8.91,-10.23,-8.90,-10.21,6.00,6.23,2.17,-2.91,-2.90,1.32
23.92,-8.61,-9.94,-8.60,-9.93,6.00,6.14,2.23,-2.61,-2.60,1.33
24.16,-8.32,-9.66,-8.32,-9.64,6.00,6.01,2.29,-2.32,-2.32,1.33
24.40,-8.03,-9.38,-8.04,-9.36,6.00,5.86,2.36,-2.03,-2.04,1.34
24.65,-7.75,-9.08,-7.76,-9.09,6.00,5.69,2.42,-1.75,-1.76,1.33
24.89,-7.45,-8.78,-7.49,-8.82,6.00,5.50,2.49,-1.45,-1.49,1.33
25.14,-7.18,-8.52,-7.22,-8.55,6.00,5.30,2.55,-1.18,-1.22,1.33
25.39,-6.92,-8.25,-6.95,-8.28,6.00,5.09,2.62,-0.92,-0.95,1.33
25.65,-6.67,-8.00,-6.67,-8.01,6.00,4.87,2.68,-0.67,-0.67,1.33
25.91,-6.41,-7.73,-6.40,-7.73,6.00,4.65,2.75,-0.41,-0.40,1.32
26.16,-6.13,-7.46,-6.12,-7.45,6.00,4.42,2.81,-0.13,-0.12,1.33
26.43,-5.88,-7.21,-5.84,-7.17,6.00,4.19,2.88,0.12,0.16,1.33
26.69,-5.62,-6.95,-5.56,-6.88,6.00,3.95,2.94,0.38,0.44,1.33
26.96,-5.35,-6.68,-5.28,-6.60,5.96,3.72,2.99,0.61,0.68,1.33
27.23,-5.04,-6.37,-5.00,-6.32,5.88,3.49,3.05,0.84,0.88,1.33
27.50,-4.72,-6.05,-4.71,-6.04,5.74,3.27,3.10,1.03,1.03,1.33
27.77,-4.39,-5.71,-4.43,-5.75,5.57,3.05,3.15,1.17,1.13,1.32
28.05,-4.08,-5.40,-4.15,-5.47,5.36,2.83,3.20,1.27,1.21,1.32
28.33,-3.81,-5.12,-3.87,-5.18,5.13,2.62,3.24,1.31,1.26,1.31
28.62,-3.56,-4.87,-3.58,-4.90,4.88,2.41,3.28,1.32,1.30,1.31
28.90,-3.28,-4.60,-3.31,-4.62,4.62,2.21,3.31,1.34,1.31,1.31
29.19,-3.03,-4.33,-3.03,-4.34,4.34,2.01,3.33,1.32,1.31,1.30
29.48,-2.76,-4.08,-2.76,-4.07,4.07,1.82,3.35,1.30,1.31,1.31
29.78,-2.51,-3.82,-2.49,-3.79,3.79,1.64,3.36,1.29,1.30,1.31
30.08,-2.24,-3.55,-2.23,-3.53,3.53,1.46,3.36,1.29,1.30,1.31
30.38,-1.98,-3.28,-1.97,-3.26,3.26,1.28,3.36,1.28,1.30,1.30
30.68,-1.72,-3.01,-1.71,-3.00,3.00,1.11,3.35,1.28,1.29,1.30
30.99,-1.46,-2.75,-1.45,-2.73,2.73,0.95,3.33,1.28,1.29,1.29
31.30,-1.20,-2.48,-1.18,-2.47,2.47,0.79,3.30,1.27,1.28,1.29
31.61,-0.94,-2.22,-0.92,-2.20,2.20,0.63,3.26,1.26,1.28,1.28
31.93,-0.67,-1.94,-0.66,-1.93,1.93,0.48,3.22,1.26,1.28,1.27
32.24,-0.40,-1.66,-0.40,-1.68,1.68,0.33,3.16,1.27,1.27,1.26
32.57,-0.15,-1.41,-0.15,-1.42,1.42,0.19,3.10,1.27,1.27,1.26
32.89,0.12,-1.14,0.11,-1.16,1.16,0.05,3.03,1.27,1.26,1.26
33.22,0.38,-0.88,0.36,-0.90,0.90,-0.09,2.96,1.28,1.26,1.26
33.55,0.64,-0.62,0.60,-0.65,0.65,-0.22,2.87,1.29,1.25,1.26
33.89,0.89,-0.36,0.84,-0.41,0.41,-0.35,2.78,1.31,1.25,1.25
34.23,1.10,-0.15,1.07,-0.17,0.17,-0.48,2.69,1.28,1.25,1.25
34.57,1.29,0.05,1.31,0.07,-0.07,-0.60,2.58,1.23,1.24,1.24
34.92,1.48,0.24,1.54,0.30,-0.30,-0.73,2.47,1.18,1.24,1.24
35.27,1.72,0.48,1.77,0.54,-0.54,-0.85,2.36,1.18,1.23,1.24
35.62,1.98,0.76,2.00,0.78,-0.78,-0.97,2.24,1.21,1.23,1.22
35.97,2.25,1.02,2.23,1.00,-1.00,-1.09,2.12,1.24,1.22,1.22
36.33,2.44,1.22,2.44,1.22,-1.22,-1.21,2.00,1.21,1.22,1.22
36.70,2.60,1.38,2.64,1.43,-1.43,-1.33,1.87,1.17,1.21,1.22
37.06,2.81,1.60,2.85,1.64,-1.64,-1.45,1.74,1.17,1.21,1.21
37.43,3.07,1.86,3.05,1.85,-1.85,-1.58,1.60,1.22,1.20,1.20
37.81,3.33,2.13,3.25,2.05,-2.05,-1.70,1.46,1.28,1.20,1.20
38.19,3.54,2.35,3.45,2.26,-2.26,-1.82,1.33,1.28,1.19,1.19
38.57,3.69,2.51,3.65,2.46,-2.46,-1.95,1.18,1.23,1.19,1.18
38.95,3.85,2.66,3.83,2.64,-2.64,-2.08,1.04,1.20,1.18,1.18
39.34,3.95,2.79,3.99,2.82,-2.82,-2.21,0.90,1.14,1.18,1.17
39.74,4.05,2.90,4.16,2.99,-2.99,-2.35,0.75,1.07,1.17,1.16
40.14,4.21,3.05,4.33,3.16,-3.16,-2.49,0.61,1.05,1.17,1.16
40.54,4.47,3.31,4.50,3.34,-3.34,-2.64,0.46,1.13,1.16,1.16
40.94,4.73,3.58,4.66,3.51,-3.51,-2.79,0.31,1.23,1.15,1.16
41.35,4.85,3.71,4.80,3.67,-3.67,-2.95,0.17,1.19,1.13,1.14
41.76,4.95,3.83,4.94,3.82,-3.82,-3.12,0.02,1.14,1.12,1.13
42.18,5.04,3.93,5.06,3.96,-3.96,-3.29,-0.13,1.08,1.10,1.11
42.60,5.14,4.05,5.19,4.11,-4.11,-3.47,-0.28,1.04,1.08,1.09
43.03,5.24,4.17,5.31,4.25,-4.25,-3.66,-0.43,0.99,1.06,1.08
43.46,5.44,4.39,5.42,4.39,-4.39,-3.85,-0.59,1.06,1.03,1.05
43.90,5.64,4.63,5.52,4.51,-4.51,-4.04,-0.74,1.13,1.01,1.01
44.33,5.69,4.71,5.61,4.63,-4.63,-4.23,-0.89,1.07,0.99,0.98
44.78,5.69,4.75,5.69,4.73,-4.73,-4.42,-1.04,0.97,0.96,0.95
45.23,5.70,4.78,5.75,4.81,-4.81,-4.61,-1.20,0.89,0.94,0.92
45.68,5.73,4.84,5.80,4.88,-4.88,-4.78,-1.35,0.85,0.92,0.90
46.13,5.77,4.89,5.84,4.95,-4.95,-4.93,-1.51,0.83,0.90,0.88
46.60,5.85,4.98,5.88,5.00,-5.00,-5.06,-1.66,0.86,0.88,0.88
47.06,5.92,5.06,5.90,5.03,-5.03,-5.16,-1.82,0.89,0.87,0.86
47.53,5.92,5.07,5.91,5.05,-5.05,-5.23,-1.98,0.88,0.86,0.85
48.01,5.92,5.07,5.90,5.04,-5.04,-5.26,-2.13,0.88,0.86,0.86
48.49,5.92,5.07,5.87,5.02,-5.02,-5.25,-2.29,0.90,0.85,0.85
48.97,5.92,5.08,5.84,4.98,-4.98,-5.21,-2.45,0.94,0.85,0.84
49.46,5.81,4.98,5.79,4.94,-4.94,-5.14,-2.60,0.87,0.86,0.84
49.96,5.70,4.86,5.75,4.89,-4.89,-5.05,-2.76,0.81,0.86,0.84
50.46,5.67,4.82,5.69,4.83,-4.83,-4.94,-2.92,0.84,0.85,0.85
50.96,5.64,4.78,5.62,4.77,-4.77,-4.82,-3.07,0.87,0.85,0.86
51.47,5.55,4.70,5.54,4.70,-4.70,-4.69,-3.23,0.85,0.84,0.86
51.99,5.46,4.62,5.46,4.63,-4.63,-4.55,-3.38,0.84,0.83,0.85
52.51,5.34,4.51,5.36,4.55,-4.55,-4.42,-3.54,0.80,0.82,0.84
53.03,5.22,4.40,5.27,4.47,-4.47,-4.29,-3.69,0.75,0.80,0.82
53.56,5.10,4.31,5.17,4.40,-4.40,-4.17,-3.83,0.71,0.77,0.79
54.10,5.00,4.25,5.07,4.33,-4.33,-4.06,-3.98,0.67,0.74,0.75
54.64,5.00,4.29,4.98,4.27,-4.27,-3.95,-4.12,0.73,0.71,0.71
55.18,4.96,4.29,4.89,4.22,-4.22,-3.85,-4.25,0.74,0.67,0.67
55.74,4.84,4.23,4.79,4.16,-4.16,-3.76,-4.39,0.68,0.63,0.62
56.29,4.71,4.14,4.69,4.11,-4.11,-3.68,-4.51,0.60,0.58,0.58
56.86,4.58,4.06,4.59,4.06,-4.06,-3.60,-4.63,0.52,0.53,0.53
57.42,4.45,3.99,4.49,4.02,-4.02,-3.54,-4.75,0.43,0.47,0.46
58.00,4.32,3.91,4.39,3.98,-3.98,-3.47,-4.85,0.35,0.42,0.41
58.58,4.32,3.96,4.30,3.94,-3.94,-3.42,-4.95,0.38,0.36,0.36
59.16,4.28,3.97,4.22,3.91,-3.91,-3.37,-5.04,0.37,0.31,0.32
59.76,4.15,3.89,4.13,3.87,-3.87,-3.32,-5.12,0.28,0.25,0.26
60.35,4.01,3.81,4.04,3.84,-3.84,-3.28,-5.19,0.17,0.20,0.20
60.96,3.87,3.72,3.96,3.81,-3.81,-3.24,-5.25,0.06,0.15,0.15
61.57,3.86,3.77,3.88,3.78,-3.78,-3.21,-5.30,0.08,0.10,0.09
62.18,3.82,3.79,3.81,3.76,-3.76,-3.18,-5.34,0.06,0.05,0.03
62.80,3.68,3.69,3.74,3.73,-3.73,-3.15,-5.37,-0.05,0.00,-0.00
63.43,3.64,3.69,3.68,3.72,-3.72,-3.12,-5.39,-0.07,-0.04,-0.05
64.07,3.64,3.73,3.62,3.70,-3.70,-3.10,-5.40,-0.05,-0.08,-0.09
64.71,3.60,3.73,3.55,3.67,-3.67,-3.08,-5.40,-0.07,-0.12,-0.12
65.35,3.53,3.69,3.48,3.64,-3.64,-3.06,-5.38,-0.10,-0.15,-0.16
66.01,3.41,3.60,3.42,3.60,-3.60,-3.05,-5.36,-0.19,-0.18,-0.19
66.67,3.41,3.63,3.37,3.58,-3.58,-3.03,-5.33,-0.16,-0.21,-0.22
67.33,3.33,3.57,3.32,3.56,-3.56,-3.02,-5.29,-0.22,-0.24,-0.24
68.01,3.18,3.44,3.27,3.53,-3.53,-3.01,-5.24,-0.34,-0.26,-0.26
68.69,3.18,3.46,3.21,3.49,-3.49,-2.99,-5.19,-0.31,-0.28,-0.28
69.37,3.18,3.48,3.16,3.46,-3.46,-2.98,-5.13,-0.28,-0.30,-0.30
70.07,3.16,3.49,3.11,3.43,-3.43,-2.98,-5.07,-0.27,-0.32,-0.32
70.77,3.00,3.33,3.07,3.40,-3.40,-2.97,-5.00,-0.40,-0.34,-0.32
71.48,2.95,3.30,3.02,3.37,-3.37,-2.96,-4.92,-0.42,-0.36,-0.35
72.19,2.95,3.32,2.97,3.34,-3.34,-2.95,-4.84,-0.39,-0.37,-0.36
72.91,2.95,3.34,2.92,3.32,-3.32,-2.95,-4.76,-0.36,-0.39,-0.39
73.64,2.95,3.35,2.88,3.29,-3.29,-2.94,-4.68,-0.33,-0.41,-0.40
74.38,2.89,3.31,2.83,3.26,-3.26,-2.94,-4.59,-0.36,-0.42,-0.42
75.12,2.77,3.22,2.79,3.23,-3.23,-2.93,-4.51,-0.46,-0.44,-0.44
75.87,2.74,3.20,2.76,3.21,-3.21,-2.93,-4.42,-0.47,-0.46,-0.46
76.63,2.73,3.21,2.72,3.19,-3.19,-2.93,-4.34,-0.45,-0.47,-0.48
77.40,2.70,3.19,2.68,3.16,-3.16,-2.92,-4.25,-0.46,-0.48,-0.48
78.17,2.63,3.13,2.64,3.13,-3.13,-2.92,-4.17,-0.50,-0.49,-0.50
78.95,2.51,3.01,2.61,3.11,-3.11,-2.92,-4.08,-0.59,-0.50,-0.50
79.74,2.50,3.00,2.57,3.07,-3.07,-2.92,-4.00,-0.57,-0.50,-0.50
80.54,2.50,3.01,2.53,3.04,-3.04,-2.91,-3.92,-0.53,-0.50,-0.51
81.35,2.50,3.01,2.50,3.00,-3.00,-2.91,-3.84,-0.50,-0.50,-0.51
82.16,2.50,3.01,2.47,2.96,-2.96,-2.91,-3.76,-0.46,-0.49,-0.50
82.98,2.50,2.99,2.44,2.92,-2.92,-2.91,-3.68,-0.42,-0.48,-0.48
83.81,2.50,2.98,2.40,2.88,-2.88,-2.91,-3.61,-0.37,-0.47,-0.48
84.65,2.35,2.82,2.37,2.83,-2.83,-2.91,-3.54,-0.47,-0.46,-0.47
85.50,2.27,2.72,2.33,2.77,-2.77,-2.91,-3.47,-0.50,-0.44,-0.44
86.35,2.27,2.70,2.30,2.72,-2.72,-2.90,-3.40,-0.45,-0.43,-0.43
87.22,2.27,2.68,2.27,2.68,-2.68,-2.90,-3.34,-0.40,-0.41,-0.41
88.09,2.27,2.67,2.24,2.63,-2.63,-2.90,-3.28,-0.36,-0.39,-0.40
88.97,2.27,2.64,2.21,2.58,-2.58,-2.90,-3.22,-0.31,-0.37,-0.36
89.86,2.12,2.47,2.17,2.53,-2.53,-2.90,-3.16,-0.40,-0.36,-0.35
90.76,2.05,2.40,2.13,2.47,-2.47,-2.90,-3.11,-0.42,-0.34,-0.34
91.66,2.04,2.36,2.09,2.42,-2.42,-2.90,-3.05,-0.38,-0.33,-0.32
92.58,2.04,2.37,2.06,2.38,-2.38,-2.90,-3.00,-0.34,-0.32,-0.33
93.51,2.04,2.35,2.04,2.35,-2.35,-2.90,-2.96,-0.31,-0.31,-0.30
94.44,2.04,2.35,2.01,2.32,-2.32,-2.90,-2.91,-0.28,-0.31,-0.30
95.39,2.04,2.34,1.98,2.29,-2.29,-2.90,-2.87,-0.24,-0.31,-0.30
96.34,2.01,2.33,1.94,2.25,-2.25,-2.90,-2.83,-0.24,-0.31,-0.32
97.30,1.90,2.22,1.90,2.21,-2.21,-2.90,-2.79,-0.31,-0.31,-0.32
98.28,1.81,2.14,1.87,2.19,-2.19,-2.90,-2.76,-0.38,-0.32,-0.32
99.26,1.81,2.15,1.85,2.18,-2.18,-2.90,-2.73,-0.36,-0.33,-0.33
100.25,1.81,2.16,1.82,2.16,-2.16,-2.89,-2.69,-0.35,-0.34,-0.34
101.25,1.81,2.18,1.78,2.14,-2.14,-2.89,-2.66,-0.33,-0.36,-0.36
102.27,1.78,2.16,1.74,2.12,-2.12,-2.89,-2.64,-0.34,-0.38,-0.38
103.29,1.67,2.08,1.69,2.10,-2.10,-2.89,-2.61,-0.43,-0.41,-0.41
104.32,1.59,2.02,1.65,2.09,-2.09,-2.89,-2.59,-0.50,-0.44,-0.43
105.37,1.59,2.05,1.61,2.08,-2.08,-2.89,-2.56,-0.49,-0.48,-0.46
106.42,1.59,2.09,1.58,2.09,-2.09,-2.89,-2.54,-0.50,-0.52,-0.50
107.48,1.59,2.14,1.55,2.11,-2.11,-2.89,-2.52,-0.51,-0.56,-0.55
108.56,1.59,2.20,1.52,2.13,-2.13,-2.89,-2.50,-0.53,-0.61,-0.61
109.64,1.44,2.10,1.49,2.15,-2.15,-2.89,-2.48,-0.70,-0.66,-0.66
110.74,1.36,2.07,1.45,2.16,-2.16,-2.89,-2.46,-0.80,-0.71,-0.71
111.85,1.36,2.12,1.41,2.18,-2.18,-2.89,-2.44,-0.81,-0.77,-0.75
112.97,1.36,2.19,1.38,2.20,-2.20,-2.88,-2.43,-0.84,-0.82,-0.82
114.10,1.36,2.24,1.36,2.23,-2.23,-2.88,-2.41,-0.87,-0.87,-0.87
115.24,1.36,2.29,1.33,2.26,-2.26,-2.88,-2.39,-0.89,-0.92,-0.93
116.39,1.36,2.35,1.30,2.27,-2.27,-2.88,-2.38,-0.91,-0.97,-0.99
117.55,1.35,2.39,1.26,2.28,-2.28,-2.88,-2.36,-0.93,-1.02,-1.04
118.73,1.19,2.28,1.22,2.28,-2.28,-2.88,-2.34,-1.09,-1.06,-1.08
119.92,1.13,2.24,1.19,2.28,-2.28,-2.88,-2.32,-1.15,-1.10,-1.11
121.12,1.13,2.28,1.15,2.28,-2.28,-2.88,-2.31,-1.15,-1.13,-1.15
122.33,1.13,2.31,1.13,2.28,-2.28,-2.87,-2.29,-1.15,-1.16,-1.17
123.55,1.13,2.31,1.10,2.29,-2.29,-2.87,-2.27,-1.15,-1.18,-1.18
124.79,1.13,2.34,1.07,2.27,-2.27,-2.87,-2.25,-1.14,-1.21,-1.20
126.03,0.98,2.20,1.03,2.26,-2.26,-2.87,-2.23,-1.27,-1.22,-1.22
127.29,0.93,2.17,1.00,2.24,-2.24,-2.87,-2.21,-1.31,-1.24,-1.23
128.57,0.90,2.16,0.96,2.22,-2.22,-2.86,-2.18,-1.32,-1.26,-1.26
129.85,0.90,2.18,0.93,2.20,-2.20,-2.86,-2.16,-1.30,-1.28,-1.27
131.15,0.90,2.19,0.90,2.19,-2.19,-2.86,-2.14,-1.28,-1.29,-1.28
132.46,0.90,2.21,0.87,2.18,-2.18,-2.86,-2.11,-1.28,-1.31,-1.31
133.79,0.90,2.22,0.84,2.17,-2.17,-2.86,-2.09,-1.26,-1.33,-1.32
135.12,0.89,2.24,0.81,2.15,-2.15,-2.85,-2.07,-1.26,-1.34,-1.35
136.48,0.84,2.21,0.78,2.14,-2.14,-2.85,-2.04,-1.30,-1.36,-1.36
137.84,0.69,2.08,0.76,2.14,-2.14,-2.85,-2.02,-1.44,-1.38,-1.38
139.22,0.67,2.10,0.74,2.14,-2.14,-2.85,-1.99,-1.47,-1.40,-1.42
140.61,0.67,2.12,0.73,2.16,-2.16,-2.84,-1.96,-1.48,-1.43,-1.45
142.02,0.67,2.13,0.72,2.18,-2.18,-2.84,-1.94,-1.50,-1.46,-1.46
143.44,0.67,2.16,0.71,2.20,-2.20,-2.84,-1.91,-1.52,-1.49,-1.49
144.87,0.67,2.19,0.70,2.22,-2.22,-2.84,-1.89,-1.55,-1.53,-1.51
146.32,0.67,2.22,0.68,2.25,-2.25,-2.83,-1.86,-1.57,-1.57,-1.55
147.78,0.67,2.25,0.67,2.28,-2.28,-2.83,-1.84,-1.61,-1.61,-1.58
149.26,0.67,2.31,0.66,2.33,-2.33,-2.83,-1.81,-1.65,-1.66,-1.63
150.75,0.67,2.37,0.66,2.37,-2.37,-2.82,-1.79,-1.70,-1.72,-1.70
152.26,0.67,2.43,0.65,2.42,-2.42,-2.82,-1.76,-1.75,-1.77,-1.75
153.78,0.67,2.49,0.63,2.47,-2.47,-2.82,-1.74,-1.79,-1.83,-1.82
155.32,0.67,2.57,0.61,2.50,-2.50,-2.81,-1.72,-1.83,-1.89,-1.90
156.88,0.65,2.62,0.57,2.53,-2.53,-2.81,-1.70,-1.87,-1.95,-1.96
158.44,0.51,2.54,0.54,2.55,-2.55,-2.81,-1.68,-2.04,-2.01,-2.02
160.03,0.45,2.54,0.50,2.56,-2.56,-2.80,-1.66,-2.11,-2.06,-2.09
161.63,0.45,2.59,0.46,2.57,-2.57,-2.80,-1.64,-2.12,-2.11,-2.14
163.24,0.45,2.63,0.42,2.57,-2.57,-2.80,-1.62,-2.12,-2.15,-2.18
164.88,0.45,2.66,0.38,2.57,-2.57,-2.79,-1.61,-2.11,-2.19,-2.21
166.53,0.27,2.51,0.34,2.55,-2.55,-2.79,-1.59,-2.28,-2.21,-2.24
168.19,0.22,2.48,0.32,2.55,-2.55,-2.78,-1.58,-2.32,-2.23,-2.25
169.87,0.22,2.49,0.29,2.53,-2.53,-2.78,-1.56,-2.31,-2.24,-2.26
171.57,0.22,2.48,0.27,2.51,-2.51,-2.77,-1.55,-2.29,-2.24,-2.26
173.29,0.22,2.47,0.25,2.49,-2.49,-2.77,-1.54,-2.26,-2.24,-2.25
175.02,0.22,2.45,0.23,2.46,-2.46,-2.77,-1.53,-2.24,-2.23,-2.22
176.77,0.22,2.44,0.21,2.44,-2.44,-2.76,-1.52,-2.22,-2.23,-2.22
178.54,0.22,2.43,0.19,2.41,-2.41,-2.76,-1.51,-2.19,-2.22,-2.21
180.32,0.22,2.41,0.18,2.39,-2.39,-2.75,-1.51,-2.16,-2.21,-2.19
182.13,0.22,2.40,0.17,2.37,-2.37,-2.75,-1.50,-2.15,-2.20,-2.18
183.95,0.22,2.39,0.15,2.35,-2.35,-2.74,-1.50,-2.13,-2.20,-2.17
185.79,0.22,2.40,0.14,2.33,-2.33,-2.74,-1.49,-2.11,-2.19,-2.17
187.65,0.05,2.24,0.11,2.31,-2.31,-2.73,-1.49,-2.25,-2.20,-2.19
189.52,-0.01,2.19,0.08,2.28,-2.28,-2.73,-1.49,-2.28,-2.20,-2.20
191.42,-0.01,2.21,0.04,2.25,-2.25,-2.72,-1.49,-2.25,-2.21,-2.21
193.33,-0.01,2.22,0.01,2.22,-2.22,-2.72,-1.49,-2.23,-2.22,-2.22
195.27,-0.01,2.22,-0.03,2.19,-2.19,-2.71,-1.49,-2.20,-2.23,-2.23
197.22,-0.01,2.23,-0.06,2.17,-2.17,-2.70,-1.49,-2.18,-2.24,-2.24
199.19,-0.02,2.25,-0.09,2.16,-2.16,-2.70,-1.49,-2.18,-2.25,-2.27
201.18,-0.15,2.12,-0.12,2.15,-2.15,-2.69,-1.50,-2.29,-2.27,-2.27
203.19,-0.24,2.04,-0.15,2.13,-2.13,-2.69,-1.50,-2.37,-2.28,-2.28
205.23,-0.24,2.06,-0.18,2.12,-2.12,-2.68,-1.51,-2.35,-2.29,-2.30
207.28,-0.24,2.06,-0.20,2.10,-2.10,-2.67,-1.51,-2.34,-2.30,-2.30
209.35,-0.24,2.08,-0.22,2.09,-2.09,-2.67,-1.52,-2.33,-2.32,-2.32
211.44,-0.24,2.10,-0.25,2.07,-2.07,-2.66,-1.53,-2.31,-2.33,-2.34
213.56,-0.24,2.10,-0.28,2.05,-2.05,-2.66,-1.53,-2.29,-2.33,-2.33
215.69,-0.24,2.10,-0.31,2.03,-2.03,-2.65,-1.54,-2.27,-2.34,-2.33
217.85,-0.24,2.11,-0.33,2.02,-2.02,-2.64,-1.55,-2.26,-2.35,-2.35
220.03,-0.33,2.03,-0.35,2.01,-2.01,-2.64,-1.56,-2.34,-2.36,-2.36
222.23,-0.43,1.95,-0.36,2.00,-2.00,-2.63,-1.56,-2.43,-2.37,-2.38
224.45,-0.47,1.91,-0.38,1.99,-1.99,-2.62,-1.57,-2.46,-2.37,-2.37
226.70,-0.47,1.90,-0.40,1.97,-1.97,-2.61,-1.58,-2.44,-2.37,-2.37
228.96,-0.47,1.91,-0.43,1.95,-1.95,-2.61,-1.59,-2.41,-2.38,-2.38
231.25,-0.47,1.91,-0.46,1.92,-1.92,-2.60,-1.59,-2.38,-2.38,-2.37
233.57,-0.47,1.91,-0.49,1.88,-1.88,-2.59,-1.60,-2.35,-2.38,-2.38
235.90,-0.47,1.92,-0.52,1.85,-1.85,-2.59,-1.60,-2.32,-2.38,-2.39
238.26,-0.47,1.91,-0.55,1.82,-1.82,-2.58,-1.61,-2.29,-2.37,-2.38
240.64,-0.47,1.91,-0.57,1.80,-1.80,-2.57,-1.61,-2.26,-2.37,-2.38
243.05,-0.62,1.75,-0.58,1.78,-1.78,-2.56,-1.61,-2.40,-2.36,-2.36
245.48,-0.69,1.67,-0.59,1.76,-1.76,-2.56,-1.62,-2.45,-2.36,-2.36
247.93,-0.69,1.66,-0.61,1.74,-1.74,-2.55,-1.62,-2.43,-2.35,-2.34
250.41,-0.69,1.66,-0.63,1.71,-1.71,-2.54,-1.62,-2.40,-2.34,-2.35
252.92,-0.69,1.65,-0.66,1.68,-1.68,-2.53,-1.62,-2.36,-2.33,-2.33
255.45,-0.69,1.62,-0.68,1.64,-1.64,-2.52,-1.62,-2.32,-2.32,-2.31
258.00,-0.69,1.61,-0.71,1.60,-1.60,-2.51,-1.62,-2.28,-2.31,-2.30
260.58,-0.69,1.61,-0.74,1.55,-1.55,-2.51,-1.61,-2.24,-2.29,-2.29
263.19,-0.69,1.59,-0.76,1.51,-1.51,-2.50,-1.61,-2.20,-2.28,-2.28
265.82,-0.69,1.59,-0.79,1.47,-1.47,-2.49,-1.61,-2.16,-2.26,-2.27
268.48,-0.75,1.50,-0.81,1.44,-1.44,-2.48,-1.60,-2.18,-2.24,-2.25
271.16,-0.88,1.35,-0.82,1.41,-1.41,-2.47,-1.60,-2.28,-2.22,-2.23
273.87,-0.92,1.30,-0.84,1.37,-1.37,-2.46,-1.59,-2.28,-2.20,-2.21
276.61,-0.92,1.26,-0.86,1.32,-1.32,-2.45,-1.59,-2.24,-2.18,-2.18
279.38,-0.92,1.24,-0.88,1.28,-1.28,-2.45,-1.58,-2.19,-2.15,-2.16
282.17,-0.92,1.22,-0.90,1.23,-1.23,-2.44,-1.57,-2.15,-2.13,-2.13
284.99,-0.92,1.19,-0.90,1.20,-1.20,-2.43,-1.57,-2.11,-2.10,-2.10
287.84,-0.92,1.16,-0.91,1.17,-1.17,-2.42,-1.56,-2.08,-2.07,-2.08
290.72,-0.92,1.12,-0.91,1.13,-1.13,-2.41,-1.55,-2.05,-2.04,-2.04
293.63,-0.92,1.10,-0.92,1.10,-1.10,-2.40,-1.55,-2.01,-2.01,-2.01
296.57,-0.92,1.07,-0.92,1.06,-1.06,-2.39,-1.54,-1.98,-1.99,-1.99
299.53,-0.92,1.04,-0.93,1.03,-1.03,-2.38,-1.54,-1.95,-1.96,-1.96
302.53,-0.92,1.02,-0.93,1.00,-1.00,-2.37,-1.53,-1.92,-1.94,-1.94
305.55,-0.92,0.99,-0.95,0.97,-0.97,-2.36,-1.53,-1.88,-1.92,-1.90
308.61,-0.92,0.97,-0.97,0.93,-0.93,-2.35,-1.53,-1.84,-1.90,-1.88
311.69,-0.92,0.95,-0.99,0.89,-0.89,-2.34,-1.52,-1.80,-1.88,-1.87
314.81,-0.92,0.92,-1.02,0.84,-0.84,-2.33,-1.52,-1.76,-1.86,-1.84
317.96,-1.06,0.78,-1.05,0.80,-0.80,-2.32,-1.52,-1.86,-1.85,-1.84
321.14,-1.15,0.70,-1.07,0.77,-0.77,-2.31,-1.52,-1.91,-1.84,-1.84
324.35,-1.15,0.69,-1.09,0.74,-0.74,-2.30,-1.52,-1.88,-1.83,-1.83
327.59,-1.15,0.68,-1.10,0.72,-0.72,-2.29,-1.52,-1.86,-1.82,-1.83
330.87,-1.15,0.67,-1.11,0.70,-0.70,-2.28,-1.53,-1.84,-1.81,-1.82
334.18,-1.15,0.66,-1.11,0.69,-0.69,-2.27,-1.53,-1.83,-1.80,-1.81
337.52,-1.15,0.65,-1.11,0.68,-0.68,-2.27,-1.54,-1.82,-1.78,-1.80
340.90,-1.15,0.63,-1.10,0.68,-0.68,-2.26,-1.54,-1.82,-1.77,-1.77
344.30,-1.15,0.62,-1.08,0.67,-0.67,-2.25,-1.55,-1.82,-1.75,-1.76
347.75,-1.09,0.66,-1.06,0.68,-0.68,-2.24,-1.56,-1.76,-1.74,-1.74
351.23,-0.96,0.76,-1.03,0.68,-0.68,-2.23,-1.57,-1.64,-1.72,-1.72
354.74,-0.92,0.78,-1.00,0.69,-0.69,-2.22,-1.58,-1.61,-1.69,-1.70
358.28,-0.92,0.75,-0.97,0.69,-0.69,-2.21,-1.59,-1.61,-1.67,-1.67
361.87,-0.92,0.73,-0.96,0.69,-0.69,-2.20,-1.60,-1.60,-1.65,-1.65
365.49,-0.92,0.70,-0.95,0.67,-0.67,-2.19,-1.62,-1.59,-1.62,-1.62
369.14,-0.92,0.68,-0.94,0.66,-0.66,-2.18,-1.63,-1.58,-1.60,-1.60
372.83,-0.92,0.66,-0.93,0.65,-0.65,-2.17,-1.65,-1.57,-1.58,-1.57
376.56,-0.92,0.64,-0.91,0.64,-0.64,-2.16,-1.67,-1.56,-1.56,-1.55
380.33,-0.92,0.61,-0.90,0.63,-0.63,-2.15,-1.69,-1.55,-1.54,-1.52
384.13,-0.92,0.59,-0.90,0.62,-0.62,-2.14,-1.71,-1.54,-1.52,-1.50
387.97,-0.92,0.58,-0.90,0.61,-0.61,-2.13,-1.73,-1.52,-1.50,-1.50
391.85,-0.92,0.57,-0.89,0.60,-0.60,-2.13,-1.75,-1.52,-1.49,-1.49
395.77,-0.92,0.56,-0.87,0.61,-0.61,-2.12,-1.77,-1.53,-1.48,-1.48
399.73,-0.92,0.55,-0.84,0.62,-0.62,-2.11,-1.80,-1.54,-1.47,-1.47
403.72,-0.84,0.62,-0.82,0.64,-0.64,-2.10,-1.82,-1.47,-1.46,-1.46
407.76,-0.72,0.73,-0.78,0.66,-0.66,-2.10,-1.85,-1.38,-1.45,-1.45
411.84,-0.69,0.75,-0.74,0.70,-0.70,-2.09,-1.87,-1.39,-1.44,-1.44
415.96,-0.69,0.74,-0.70,0.74,-0.74,-2.08,-1.90,-1.43,-1.44,-1.43
420.12,-0.69,0.75,-0.66,0.78,-0.78,-2.07,-1.92,-1.46,-1.44,-1.43
424.32,-0.67,0.77,-0.61,0.82,-0.82,-2.07,-1.95,-1.49,-1.43,-1.43
428.56,-0.53,0.91,-0.56,0.87,-0.87,-2.06,-1.97,-1.40,-1.43,-1.43
432.85,-0.47,0.97,-0.51,0.92,-0.92,-2.06,-2.00,-1.38,-1.43,-1.43
437.18,-0.47,0.96,-0.46,0.96,-0.96,-2.05,-2.02,-1.43,-1.42,-1.42
441.55,-0.47,0.95,-0.41,1.01,-1.01,-2.05,-2.05,-1.47,-1.42,-1.41
445.96,-0.31,1.11,-0.36,1.05,-1.05,-2.04,-2.07,-1.36,-1.41,-1.41
450.42,-0.24,1.17,-0.31,1.09,-1.09,-2.04,-2.10,-1.33,-1.40,-1.40
454.93,-0.24,1.16,-0.26,1.14,-1.14,-2.04,-2.12,-1.37,-1.39,-1.40
459.48,-0.24,1.15,-0.19,1.19,-1.19,-2.04,-2.14,-1.43,-1.38,-1.39
464.07,-0.14,1.23,-0.11,1.25,-1.25,-2.04,-2.16,-1.39,-1.36,-1.37
468.71,-0.04,1.31,-0.04,1.30,-1.30,-2.04,-2.18,-1.34,-1.35,-1.35
