frequency,raw,error,smoothed,error_smoothed,equalization,parametric_eq,fixed_band_eq,equalized_raw,equalized_smoothed,target
20.00,10.98,0.21,10.97,0.21,-0.29,-0.74,-1.11,10.69,10.68,10.77
20.20,11.04,0.29,11.05,0.30,-0.33,-0.77,-1.14,10.71,10.72,10.74
20.40,11.11,0.38,11.11,0.39,-0.37,-0.81,-1.17,10.74,10.75,10.72
20.61,11.17,0.45,11.17,0.46,-0.41,-0.85,-1.20,10.75,10.76,10.71
20.81,11.23,0.54,11.23,0.54,-0.46,-0.88,-1.23,10.77,10.77,10.69
21.02,11.29,0.61,11.27,0.59,-0.52,-0.92,-1.27,10.77,10.75,10.68
21.23,11.29,0.63,11.29,0.63,-0.57,-0.96,-1.30,10.72,10.72,10.66
21.44,11.29,0.64,11.29,0.64,-0.63,-1.00,-1.34,10.66,10.66,10.65
21.66,11.29,0.65,11.28,0.64,-0.68,-1.03,-1.38,10.60,10.60,10.64
21.87,11.29,0.67,11.30,0.68,-0.75,-1.07,-1.42,10.54,10.55,10.62
22.09,11.34,0.73,11.36,0.75,-0.82,-1.11,-1.46,10.52,10.54,10.61
22.31,11.46,0.86,11.45,0.85,-0.90,-1.15,-1.50,10.56,10.55,10.60
22.54,11.57,0.98,11.58,0.99,-0.97,-1.19,-1.54,10.60,10.61,10.59
22.76,11.69,1.11,11.69,1.12,-1.04,-1.22,-1.58,10.65,10.65,10.58
22.99,11.80,1.23,11.77,1.20,-1.10,-1.26,-1.62,10.69,10.66,10.57
23.22,11.80,1.24,11.80,1.24,-1.17,-1.30,-1.67,10.63,10.64,10.56
23.45,11.79,1.23,11.79,1.24,-1.22,-1.34,-1.72,10.56,10.57,10.56
23.69,11.78,1.23,11.77,1.22,-1.28,-1.38,-1.76,10.50,10.49,10.55
23.92,11.76,1.22,11.79,1.24,-1.34,-1.42,-1.81,10.42,10.45,10.54
24.16,11.85,1.31,11.86,1.32,-1.40,-1.46,-1.86,10.45,10.46,10.54
24.40,11.98,1.44,11.97,1.43,-1.46,-1.50,-1.91,10.52,10.51,10.54
24.65,12.11,1.57,12.11,1.57,-1.53,-1.54,-1.96,10.58,10.58,10.54
24.89,12.23,1.69,12.22,1.68,-1.60,-1.58,-2.01,10.63,10.61,10.54
25.14,12.30,1.76,12.29,1.75,-1.68,-1.62,-2.06,10.62,10.61,10.54
25.39,12.32,1.78,12.32,1.78,-1.75,-1.66,-2.11,10.57,10.57,10.54
25.65,12.34,1.80,12.34,1.80,-1.81,-1.70,-2.16,10.53,10.53,10.54
25.91,12.35,1.80,12.36,1.82,-1.86,-1.74,-2.22,10.49,10.50,10.55
26.16,12.40,1.85,12.40,1.86,-1.90,-1.78,-2.27,10.50,10.50,10.55
26.43,12.46,1.91,12.46,1.91,-1.93,-1.82,-2.32,10.53,10.53,10.54
26.69,12.52,1.98,12.52,1.98,-1.96,-1.86,-2.37,10.56,10.56,10.54
26.96,12.58,2.04,12.57,2.03,-2.00,-1.90,-2.42,10.57,10.57,10.54
27.23,12.61,2.07,12.61,2.07,-2.05,-1.94,-2.48,10.56,10.56,10.54
27.50,12.64,2.10,12.64,2.10,-2.10,-1.98,-2.53,10.53,10.53,10.54
27.77,12.67,2.13,12.67,2.13,-2.16,-2.02,-2.58,10.51,10.51,10.54
28.05,12.70,2.16,12.71,2.17,-2.20,-2.06,-2.62,10.50,10.51,10.54
28.33,12.76,2.23,12.76,2.23,-2.23,-2.10,-2.67,10.53,10.53,10.53
28.62,12.81,2.28,12.81,2.29,-2.26,-2.14,-2.72,10.55,10.55,10.52
28.90,12.87,2.35,12.86,2.33,-2.29,-2.19,-2.76,10.58,10.57,10.52
29.19,12.88,2.36,12.87,2.35,-2.31,-2.23,-2.80,10.57,10.56,10.52
29.48,12.87,2.35,12.87,2.35,-2.35,-2.27,-2.84,10.52,10.52,10.52
29.78,12.86,2.34,12.86,2.34,-2.39,-2.31,-2.88,10.47,10.47,10.52
30.08,12.87,2.35,12.89,2.38,-2.44,-2.35,-2.91,10.43,10.45,10.51
30.38,12.96,2.44,12.95,2.44,-2.50,-2.39,-2.95,10.46,10.45,10.51
30.68,13.05,2.55,13.04,2.54,-2.56,-2.43,-2.98,10.49,10.48,10.50
30.99,13.14,2.64,13.13,2.64,-2.62,-2.48,-3.01,10.51,10.51,10.50
31.30,13.21,2.72,13.22,2.73,-2.68,-2.52,-3.03,10.53,10.54,10.49
31.61,13.29,2.80,13.29,2.81,-2.73,-2.56,-3.05,10.56,10.56,10.48
31.93,13.36,2.88,13.33,2.86,-2.78,-2.60,-3.07,10.58,10.55,10.48
32.24,13.34,2.87,13.32,2.85,-2.82,-2.64,-3.09,10.52,10.50,10.47
32.57,13.29,2.82,13.29,2.82,-2.86,-2.68,-3.11,10.43,10.43,10.47
32.89,13.24,2.77,13.27,2.81,-2.90,-2.72,-3.12,10.34,10.37,10.46
33.22,13.31,2.85,13.32,2.86,-2.94,-2.77,-3.13,10.37,10.38,10.46
33.55,13.43,2.97,13.42,2.96,-2.99,-2.81,-3.14,10.44,10.44,10.46
33.89,13.56,3.09,13.54,3.07,-3.04,-2.85,-3.15,10.52,10.50,10.47
34.23,13.62,3.16,13.61,3.15,-3.09,-2.89,-3.15,10.52,10.52,10.46
34.57,13.66,3.20,13.66,3.20,-3.16,-2.93,-3.16,10.50,10.50,10.46
34.92,13.69,3.22,13.69,3.23,-3.23,-2.97,-3.16,10.46,10.47,10.47
35.27,13.73,3.26,13.73,3.26,-3.28,-3.01,-3.17,10.45,10.45,10.46
35.62,13.76,3.29,13.76,3.29,-3.31,-3.06,-3.17,10.45,10.45,10.47
35.97,13.80,3.33,13.80,3.33,-3.33,-3.10,-3.17,10.47,10.47,10.47
36.33,13.83,3.37,13.84,3.37,-3.34,-3.14,-3.17,10.49,10.50,10.46
36.70,13.87,3.41,13.87,3.41,-3.36,-3.18,-3.18,10.50,10.50,10.46
37.06,13.89,3.43,13.86,3.41,-3.40,-3.22,-3.18,10.48,10.46,10.45
37.43,13.85,3.41,13.83,3.39,-3.45,-3.26,-3.18,10.40,10.38,10.44
37.81,13.80,3.36,13.83,3.40,-3.50,-3.30,-3.19,10.30,10.34,10.44
38.19,13.87,3.45,13.92,3.50,-3.54,-3.35,-3.19,10.32,10.37,10.42
38.57,14.05,3.64,14.05,3.64,-3.60,-3.39,-3.20,10.45,10.45,10.41
38.95,14.24,3.85,14.15,3.76,-3.67,-3.43,-3.21,10.57,10.48,10.39
39.34,14.19,3.81,14.17,3.79,-3.75,-3.47,-3.22,10.44,10.42,10.38
39.74,14.11,3.74,14.15,3.78,-3.83,-3.51,-3.23,10.28,10.32,10.37
40.14,14.11,3.75,14.18,3.82,-3.90,-3.55,-3.24,10.21,10.28,10.36
40.54,14.28,3.94,14.27,3.93,-3.95,-3.59,-3.26,10.33,10.32,10.34
40.94,14.44,4.10,14.36,4.03,-3.98,-3.63,-3.27,10.46,10.38,10.33
41.35,14.40,4.07,14.40,4.07,-3.99,-3.68,-3.29,10.41,10.41,10.33
41.76,14.34,4.03,14.36,4.05,-4.00,-3.72,-3.32,10.34,10.37,10.31
42.18,14.30,3.99,14.32,4.01,-3.99,-3.76,-3.34,10.30,10.32,10.31
42.60,14.30,3.99,14.30,3.99,-3.99,-3.80,-3.37,10.31,10.30,10.31
43.03,14.30,4.00,14.27,3.97,-3.99,-3.84,-3.39,10.30,10.28,10.30
43.46,14.25,3.95,14.25,3.95,-4.00,-3.88,-3.43,10.25,10.24,10.30
43.90,14.21,3.91,14.24,3.95,-4.02,-3.92,-3.46,10.19,10.22,10.30
44.33,14.27,3.98,14.27,3.98,-4.05,-3.96,-3.50,10.22,10.22,10.29
44.78,14.36,4.08,14.36,4.07,-4.09,-4.00,-3.54,10.27,10.27,10.28
45.23,14.46,4.17,14.48,4.20,-4.12,-4.04,-3.58,10.33,10.36,10.28
45.68,14.58,4.30,14.56,4.28,-4.16,-4.09,-3.62,10.41,10.39,10.27
46.13,14.62,4.35,14.54,4.28,-4.21,-4.13,-3.67,10.41,10.33,10.27
46.60,14.47,4.21,14.49,4.23,-4.25,-4.17,-3.72,10.22,10.24,10.26
47.06,14.36,4.11,14.45,4.20,-4.28,-4.21,-3.77,10.08,10.17,10.25
47.53,14.48,4.24,14.47,4.23,-4.31,-4.25,-3.82,10.17,10.16,10.24
48.01,14.60,4.37,14.54,4.32,-4.32,-4.29,-3.88,10.28,10.22,10.23
48.49,14.60,4.39,14.60,4.39,-4.34,-4.33,-3.94,10.26,10.26,10.21
48.97,14.60,4.40,14.61,4.41,-4.37,-4.37,-4.00,10.22,10.23,10.20
49.46,14.60,4.41,14.60,4.42,-4.42,-4.41,-4.06,10.18,10.17,10.18
49.96,14.60,4.44,14.61,4.45,-4.48,-4.45,-4.12,10.12,10.13,10.16
50.46,14.65,4.50,14.65,4.49,-4.53,-4.49,-4.19,10.12,10.11,10.15
50.96,14.70,4.56,14.70,4.56,-4.57,-4.53,-4.26,10.12,10.13,10.14
51.47,14.75,4.62,14.75,4.63,-4.61,-4.57,-4.33,10.14,10.14,10.12
51.99,14.81,4.70,14.79,4.68,-4.65,-4.62,-4.40,10.16,10.14,10.11
52.51,14.81,4.71,14.81,4.71,-4.69,-4.66,-4.47,10.12,10.12,10.10
53.03,14.81,4.73,14.81,4.73,-4.73,-4.70,-4.54,10.08,10.09,10.08
53.56,14.81,4.74,14.81,4.74,-4.75,-4.74,-4.61,10.06,10.06,10.07
54.10,14.81,4.76,14.81,4.76,-4.75,-4.78,-4.68,10.06,10.06,10.05
54.64,14.81,4.77,14.81,4.78,-4.75,-4.82,-4.75,10.06,10.06,10.04
55.18,14.81,4.79,14.81,4.79,-4.76,-4.86,-4.82,10.05,10.06,10.02
55.74,14.81,4.81,14.78,4.78,-4.78,-4.90,-4.89,10.03,10.01,10.00
56.29,14.77,4.78,14.75,4.76,-4.81,-4.94,-4.96,9.95,9.93,9.98
56.86,14.69,4.72,14.74,4.77,-4.86,-4.98,-5.03,9.83,9.88,9.97
57.42,14.77,4.82,14.79,4.84,-4.91,-5.02,-5.09,9.86,9.88,9.95
58.00,14.91,4.97,14.90,4.96,-4.97,-5.06,-5.15,9.94,9.93,9.94
58.58,15.03,5.11,15.01,5.09,-5.02,-5.11,-5.21,10.01,9.99,9.92
59.16,15.10,5.20,15.06,5.16,-5.08,-5.15,-5.27,10.02,9.99,9.90
59.76,15.04,5.16,15.06,5.18,-5.13,-5.19,-5.32,9.91,9.93,9.88
60.35,15.02,5.16,15.03,5.18,-5.18,-5.23,-5.37,9.84,9.85,9.86
60.96,15.01,5.18,15.01,5.17,-5.21,-5.27,-5.42,9.79,9.79,9.83
61.57,15.01,5.20,15.01,5.20,-5.23,-5.31,-5.46,9.78,9.77,9.81
62.18,15.01,5.22,15.01,5.22,-5.24,-5.35,-5.50,9.77,9.77,9.79
62.80,15.01,5.26,15.01,5.25,-5.24,-5.40,-5.53,9.77,9.77,9.75
63.43,15.01,5.28,15.01,5.29,-5.25,-5.44,-5.56,9.75,9.76,9.73
64.07,15.01,5.31,15.01,5.32,-5.28,-5.48,-5.59,9.73,9.73,9.70
64.71,15.01,5.34,14.97,5.31,-5.32,-5.52,-5.61,9.69,9.66,9.66
65.35,14.96,5.32,14.94,5.31,-5.36,-5.56,-5.63,9.60,9.58,9.64
66.01,14.87,5.27,14.95,5.35,-5.41,-5.60,-5.64,9.46,9.55,9.60
66.67,15.02,5.45,15.00,5.43,-5.46,-5.65,-5.66,9.56,9.54,9.57
67.33,15.10,5.57,15.06,5.53,-5.51,-5.69,-5.67,9.59,9.55,9.53
68.01,15.11,5.61,15.12,5.62,-5.56,-5.73,-5.68,9.54,9.55,9.50
68.69,15.11,5.65,15.12,5.66,-5.62,-5.77,-5.68,9.49,9.49,9.46
69.37,15.11,5.68,15.11,5.69,-5.68,-5.82,-5.69,9.43,9.43,9.43
70.07,15.11,5.73,15.11,5.72,-5.73,-5.86,-5.69,9.38,9.38,9.38
70.77,15.11,5.76,15.11,5.76,-5.77,-5.90,-5.69,9.34,9.34,9.35
71.48,15.11,5.79,15.11,5.80,-5.81,-5.95,-5.69,9.30,9.30,9.32
72.19,15.11,5.84,15.11,5.84,-5.84,-5.99,-5.70,9.27,9.27,9.27
72.91,15.11,5.87,15.11,5.87,-5.87,-6.03,-5.70,9.23,9.23,9.23
73.64,15.11,5.91,15.11,5.91,-5.91,-6.07,-5.70,9.20,9.20,9.20
74.38,15.11,5.95,15.11,5.95,-5.95,-6.12,-5.71,9.15,9.15,9.16
75.12,15.11,6.00,15.11,5.99,-5.99,-6.16,-5.72,9.11,9.11,9.11
75.87,15.11,6.04,15.11,6.04,-6.04,-6.20,-5.72,9.07,9.07,9.07
76.63,15.11,6.08,15.11,6.08,-6.08,-6.25,-5.74,9.03,9.03,9.03
77.40,15.11,6.12,15.11,6.12,-6.12,-6.29,-5.75,8.99,8.99,8.99
78.17,15.11,6.16,15.11,6.16,-6.16,-6.34,-5.76,8.95,8.95,8.95
78.95,15.11,6.20,15.11,6.20,-6.20,-6.38,-5.78,8.91,8.91,8.91
79.74,15.11,6.25,15.11,6.25,-6.25,-6.42,-5.81,8.86,8.86,8.86
80.54,15.11,6.29,15.11,6.29,-6.29,-6.47,-5.83,8.82,8.82,8.82
81.35,15.11,6.34,15.11,6.34,-6.33,-6.51,-5.86,8.77,8.77,8.77
82.16,15.11,6.38,15.11,6.38,-6.38,-6.56,-5.90,8.73,8.73,8.73
82.98,15.11,6.43,15.11,6.43,-6.43,-6.60,-5.93,8.68,8.68,8.68
83.81,15.11,6.47,15.11,6.47,-6.48,-6.65,-5.97,8.63,8.63,8.63
84.65,15.11,6.52,15.11,6.53,-6.53,-6.69,-6.02,8.58,8.58,8.59
85.50,15.11,6.58,15.11,6.58,-6.58,-6.73,-6.07,8.53,8.53,8.53
86.35,15.11,6.63,15.11,6.63,-6.63,-6.78,-6.12,8.48,8.48,8.48
87.22,15.11,6.68,15.11,6.68,-6.68,-6.82,-6.18,8.43,8.43,8.43
88.09,15.11,6.73,15.11,6.73,-6.73,-6.87,-6.25,8.38,8.38,8.38
88.97,15.11,6.78,15.11,6.78,-6.79,-6.91,-6.32,8.32,8.32,8.33
89.86,15.11,6.84,15.11,6.84,-6.84,-6.96,-6.39,8.27,8.27,8.27
90.76,15.11,6.89,15.11,6.90,-6.90,-7.00,-6.47,8.21,8.21,8.21
91.66,15.11,6.96,15.11,6.95,-6.95,-7.04,-6.55,8.16,8.16,8.15
92.58,15.11,7.01,15.11,7.01,-7.01,-7.09,-6.64,8.10,8.10,8.10
93.51,15.11,7.07,15.11,7.07,-7.08,-7.13,-6.73,8.03,8.03,8.03
94.44,15.11,7.14,15.11,7.14,-7.15,-7.18,-6.82,7.95,7.96,7.97
95.39,15.11,7.20,15.11,7.20,-7.23,-7.22,-6.92,7.88,7.88,7.91
96.34,15.11,7.27,15.10,7.26,-7.29,-7.26,-7.03,7.82,7.81,7.84
97.30,15.10,7.33,15.11,7.34,-7.34,-7.31,-7.13,7.76,7.77,7.77
98.28,15.11,7.41,15.14,7.44,-7.38,-7.35,-7.25,7.73,7.76,7.70
99.26,15.15,7.52,15.13,7.51,-7.41,-7.39,-7.36,7.74,7.72,7.63
100.25,15.13,7.58,15.04,7.49,-7.44,-7.44,-7.48,7.69,7.60,7.55
101.25,14.89,7.41,14.92,7.44,-7.46,-7.48,-7.60,7.42,7.45,7.47
102.27,14.72,7.32,14.80,7.41,-7.49,-7.52,-7.73,7.23,7.31,7.40
103.29,14.77,7.45,14.75,7.43,-7.52,-7.56,-7.86,7.25,7.23,7.32
104.32,14.80,7.55,14.76,7.52,-7.55,-7.60,-7.98,7.25,7.22,7.24
105.37,14.78,7.61,14.78,7.62,-7.58,-7.65,-8.11,7.20,7.20,7.17
106.42,14.75,7.67,14.76,7.67,-7.63,-7.69,-8.24,7.12,7.13,7.08
107.48,14.73,7.72,14.73,7.72,-7.69,-7.73,-8.38,7.04,7.03,7.01
108.56,14.70,7.76,14.70,7.77,-7.76,-7.77,-8.50,6.94,6.94,6.94
109.64,14.68,7.81,14.68,7.81,-7.83,-7.81,-8.63,6.85,6.85,6.86
110.74,14.66,7.87,14.66,7.87,-7.89,-7.85,-8.76,6.77,6.77,6.79
111.85,14.64,7.92,14.64,7.92,-7.93,-7.88,-8.88,6.71,6.71,6.72
112.97,14.64,7.98,14.64,7.98,-7.97,-7.92,-9.00,6.66,6.67,6.66
114.10,14.63,8.04,14.63,8.04,-8.01,-7.96,-9.11,6.61,6.61,6.59
115.24,14.62,8.09,14.61,8.08,-8.05,-8.00,-9.21,6.57,6.56,6.53
116.39,14.56,8.10,14.57,8.10,-8.08,-8.03,-9.31,6.47,6.48,6.46
117.55,14.53,8.12,14.52,8.11,-8.12,-8.07,-9.40,6.41,6.40,6.41
118.73,14.47,8.12,14.47,8.13,-8.15,-8.10,-9.48,6.32,6.32,6.34
119.92,14.44,8.15,14.45,8.16,-8.19,-8.14,-9.55,6.25,6.26,6.29
121.12,14.45,8.21,14.44,8.21,-8.23,-8.17,-9.61,6.21,6.21,6.24
122.33,14.46,8.27,14.45,8.27,-8.28,-8.21,-9.66,6.18,6.17,6.19
123.55,14.47,8.33,14.47,8.33,-8.33,-8.24,-9.70,6.14,6.13,6.13
124.79,14.47,8.39,14.48,8.39,-8.38,-8.27,-9.72,6.09,6.10,6.08
126.03,14.48,8.45,14.48,8.45,-8.42,-8.30,-9.74,6.06,6.06,6.03
127.29,14.49,8.51,14.48,8.50,-8.46,-8.33,-9.73,6.03,6.02,5.98
128.57,14.46,8.53,14.45,8.52,-8.49,-8.36,-9.72,5.97,5.96,5.93
129.85,14.40,8.51,14.40,8.52,-8.52,-8.39,-9.70,5.88,5.88,5.88
131.15,14.34,8.50,14.35,8.51,-8.55,-8.42,-9.67,5.79,5.80,5.84
132.46,14.32,8.53,14.32,8.53,-8.57,-8.45,-9.62,5.75,5.75,5.79
133.79,14.31,8.57,14.31,8.57,-8.58,-8.47,-9.57,5.73,5.73,5.74
135.12,14.32,8.62,14.32,8.62,-8.60,-8.50,-9.50,5.71,5.72,5.70
136.48,14.32,8.67,14.33,8.67,-8.63,-8.52,-9.43,5.68,5.69,5.65
137.84,14.32,8.71,14.28,8.68,-8.67,-8.55,-9.35,5.65,5.61,5.61
139.22,14.25,8.70,14.23,8.67,-8.71,-8.57,-9.28,5.54,5.52,5.55
140.61,14.13,8.62,14.22,8.71,-8.75,-8.59,-9.19,5.38,5.47,5.51
142.02,14.22,8.76,14.23,8.77,-8.78,-8.61,-9.10,5.44,5.45,5.46
143.44,14.33,8.92,14.24,8.83,-8.81,-8.63,-9.01,5.52,5.43,5.41
144.87,14.22,8.86,14.23,8.87,-8.83,-8.65,-8.91,5.39,5.40,5.36
146.32,14.15,8.83,14.18,8.87,-8.85,-8.67,-8.82,5.30,5.34,5.32
147.78,14.12,8.85,14.12,8.86,-8.86,-8.69,-8.72,5.25,5.26,5.27
149.26,14.12,8.90,14.10,8.88,-8.88,-8.71,-8.63,5.24,5.22,5.22
150.75,14.07,8.89,14.06,8.89,-8.88,-8.72,-8.54,5.19,5.18,5.17
152.26,14.01,8.88,14.00,8.87,-8.88,-8.74,-8.45,5.12,5.12,5.13
153.78,13.93,8.84,13.95,8.86,-8.89,-8.75,-8.36,5.04,5.06,5.09
155.32,13.92,8.87,13.93,8.88,-8.90,-8.76,-8.28,5.02,5.03,5.05
156.88,13.93,8.93,13.92,8.92,-8.92,-8.78,-8.20,5.00,5.00,5.00
158.44,13.93,8.97,13.89,8.93,-8.94,-8.79,-8.12,4.99,4.95,4.96
160.03,13.86,8.94,13.87,8.95,-8.95,-8.80,-8.05,4.91,4.92,4.92
161.63,13.78,8.91,13.84,8.97,-8.95,-8.80,-7.98,4.83,4.89,4.87
163.24,13.87,9.04,13.82,9.00,-8.96,-8.81,-7.92,4.91,4.87,4.83
164.88,13.81,9.02,13.80,9.01,-8.96,-8.82,-7.86,4.85,4.84,4.79
166.53,13.73,8.98,13.72,8.97,-8.97,-8.83,-7.80,4.76,4.75,4.75
168.19,13.63,8.92,13.60,8.89,-8.97,-8.83,-7.76,4.66,4.63,4.71
169.87,13.48,8.81,13.56,8.89,-8.97,-8.83,-7.72,4.51,4.59,4.67
171.57,13.55,8.92,13.58,8.94,-8.96,-8.84,-7.68,4.59,4.62,4.63
173.29,13.67,9.07,13.62,9.02,-8.95,-8.84,-7.65,4.72,4.67,4.60
175.02,13.65,9.08,13.59,9.02,-8.94,-8.84,-7.62,4.71,4.65,4.57
176.77,13.50,8.96,13.50,8.96,-8.93,-8.84,-7.60,4.57,4.56,4.54
178.54,13.30,8.80,13.41,8.90,-8.93,-8.84,-7.59,4.37,4.48,4.50
180.32,13.38,8.90,13.35,8.87,-8.92,-8.84,-7.58,4.46,4.43,4.48
182.13,13.41,8.95,13.34,8.88,-8.91,-8.83,-7.58,4.50,4.43,4.46
183.95,13.29,8.85,13.35,8.92,-8.89,-8.83,-7.58,4.39,4.46,4.44
185.79,13.31,8.89,13.31,8.89,-8.89,-8.82,-7.59,4.42,4.42,4.41
187.65,13.32,8.93,13.25,8.86,-8.89,-8.82,-7.60,4.43,4.36,4.39
189.52,13.20,8.83,13.26,8.88,-8.90,-8.81,-7.62,4.30,4.36,4.37
191.42,13.22,8.85,13.26,8.90,-8.90,-8.80,-7.64,4.32,4.36,4.36
193.33,13.32,8.97,13.25,8.91,-8.88,-8.79,-7.68,4.43,4.37,4.35
195.27,13.25,8.92,13.23,8.90,-8.86,-8.78,-7.71,4.39,4.37,4.33
197.22,13.14,8.83,13.18,8.87,-8.82,-8.77,-7.75,4.31,4.36,4.31
199.19,13.08,8.79,13.11,8.82,-8.80,-8.75,-7.79,4.28,4.31,4.29
201.18,13.09,8.81,13.03,8.75,-8.78,-8.74,-7.83,4.31,4.25,4.28
203.19,12.97,8.71,12.94,8.68,-8.74,-8.72,-7.88,4.23,4.20,4.26
205.23,12.81,8.57,12.88,8.64,-8.70,-8.71,-7.93,4.11,4.18,4.24
207.28,12.85,8.62,12.89,8.66,-8.67,-8.69,-7.99,4.18,4.22,4.23
209.35,12.94,8.72,12.91,8.70,-8.65,-8.67,-8.05,4.29,4.26,4.21
211.44,12.99,8.80,12.88,8.68,-8.63,-8.65,-8.10,4.36,4.25,4.19
213.56,12.74,8.56,12.78,8.61,-8.63,-8.63,-8.16,4.11,4.16,4.18
215.69,12.63,8.48,12.71,8.55,-8.61,-8.61,-8.22,4.02,4.10,4.15
217.85,12.69,8.55,12.71,8.57,-8.59,-8.59,-8.28,4.10,4.12,4.14
220.03,12.79,8.67,12.72,8.60,-8.56,-8.57,-8.34,4.23,4.16,4.12
222.23,12.76,8.65,12.66,8.55,-8.51,-8.54,-8.39,4.25,4.15,4.11
224.45,12.47,8.37,12.61,8.52,-8.47,-8.52,-8.45,4.00,4.15,4.09
226.70,12.47,8.39,12.52,8.44,-8.43,-8.49,-8.49,4.04,4.10,4.08
228.96,12.62,8.55,12.41,8.33,-8.39,-8.46,-8.54,4.23,4.02,4.07
231.25,12.30,8.23,12.36,8.30,-8.35,-8.43,-8.58,3.94,4.01,4.07
233.57,12.19,8.13,12.34,8.28,-8.31,-8.40,-8.61,3.88,4.03,4.06
235.90,12.38,8.33,12.30,8.25,-8.26,-8.37,-8.64,4.12,4.04,4.05
238.26,12.44,8.39,12.30,8.25,-8.22,-8.34,-8.66,4.22,4.08,4.05
240.64,12.20,8.14,12.29,8.24,-8.18,-8.30,-8.67,4.02,4.12,4.05
243.05,12.15,8.09,12.24,8.19,-8.14,-8.27,-8.67,4.01,4.10,4.06
245.48,12.28,8.22,12.16,8.10,-8.11,-8.23,-8.66,4.17,4.05,4.06
247.93,12.16,8.10,12.11,8.05,-8.08,-8.20,-8.64,4.08,4.03,4.06
250.41,11.94,7.88,12.04,7.98,-8.04,-8.16,-8.61,3.90,4.00,4.06
252.92,11.98,7.92,12.02,7.96,-8.00,-8.12,-8.58,3.98,4.02,4.06
255.45,12.08,8.02,12.03,7.97,-7.97,-8.08,-8.53,4.11,4.06,4.06
258.00,12.12,8.06,12.02,7.96,-7.93,-8.04,-8.47,4.19,4.09,4.06
260.58,11.90,7.85,11.99,7.94,-7.89,-8.00,-8.40,4.01,4.10,4.05
263.19,11.85,7.80,11.93,7.88,-7.86,-7.95,-8.33,3.99,4.07,4.05
265.82,11.99,7.96,11.82,7.78,-7.81,-7.91,-8.24,4.17,4.00,4.03
268.48,11.73,7.71,11.79,7.77,-7.77,-7.86,-8.15,3.96,4.02,4.02
271.16,11.61,7.60,11.73,7.72,-7.72,-7.82,-8.05,3.89,4.01,4.01
273.87,11.76,7.76,11.61,7.61,-7.66,-7.77,-7.94,4.10,3.95,4.00
276.61,11.58,7.59,11.57,7.59,-7.59,-7.72,-7.83,3.99,3.98,3.99
279.38,11.40,7.43,11.54,7.57,-7.53,-7.67,-7.72,3.87,4.01,3.97
282.17,11.53,7.56,11.43,7.47,-7.47,-7.62,-7.60,4.06,3.97,3.97
284.99,11.44,7.48,11.39,7.43,-7.40,-7.56,-7.47,4.03,3.99,3.96
287.84,11.23,7.26,11.33,7.37,-7.34,-7.51,-7.35,3.89,3.99,3.97
290.72,11.28,7.32,11.19,7.23,-7.28,-7.46,-7.22,4.00,3.91,3.96
293.63,11.11,7.15,11.15,7.19,-7.22,-7.40,-7.09,3.89,3.93,3.96
296.57,11.05,7.09,11.14,7.18,-7.16,-7.34,-6.96,3.89,3.98,3.96
299.53,11.22,7.25,11.06,7.10,-7.11,-7.28,-6.84,4.11,3.95,3.97
302.53,11.02,7.05,11.04,7.07,-7.06,-7.23,-6.71,3.96,3.98,3.96
305.55,10.87,6.90,11.01,7.04,-7.02,-7.17,-6.58,3.85,3.99,3.97
308.61,11.02,7.05,10.91,6.94,-6.98,-7.10,-6.46,4.04,3.93,3.97
311.69,10.92,6.95,10.88,6.91,-6.93,-7.04,-6.33,3.99,3.95,3.96
314.81,10.75,6.79,10.87,6.91,-6.87,-6.98,-6.21,3.88,3.99,3.96
317.96,10.82,6.86,10.79,6.83,-6.82,-6.91,-6.10,4.00,3.97,3.96
321.14,10.81,6.85,10.72,6.77,-6.76,-6.85,-5.98,4.05,3.97,3.95
324.35,10.60,6.64,10.66,6.70,-6.68,-6.78,-5.87,3.92,3.97,3.96
327.59,10.52,6.56,10.54,6.58,-6.60,-6.71,-5.76,3.92,3.94,3.96
330.87,10.47,6.51,10.45,6.49,-6.51,-6.64,-5.66,3.96,3.94,3.96
334.18,10.38,6.43,10.39,6.44,-6.41,-6.57,-5.56,3.97,3.99,3.95
337.52,10.33,6.38,10.31,6.36,-6.32,-6.50,-5.46,4.01,3.99,3.95
340.90,10.20,6.25,10.17,6.22,-6.23,-6.42,-5.37,3.96,3.94,3.95
344.30,10.05,6.09,10.04,6.08,-6.15,-6.35,-5.28,3.90,3.88,3.95
347.75,9.88,5.92,9.97,6.01,-6.08,-6.28,-5.19,3.80,3.89,3.96
351.23,9.94,5.99,9.96,6.00,-6.01,-6.20,-5.11,3.93,3.95,3.95
354.74,10.05,6.08,9.93,5.97,-5.95,-6.12,-5.03,4.10,3.99,3.97
358.28,9.90,5.93,9.89,5.92,-5.88,-6.04,-4.96,4.02,4.01,3.97
361.87,9.72,5.74,9.81,5.84,-5.81,-5.96,-4.89,3.91,4.00,3.97
365.49,9.73,5.75,9.71,5.73,-5.74,-5.88,-4.82,3.99,3.97,3.98
369.14,9.70,5.72,9.67,5.68,-5.66,-5.80,-4.76,4.04,4.01,3.98
372.83,9.58,5.58,9.61,5.62,-5.58,-5.72,-4.70,4.00,4.04,4.00
376.56,9.56,5.56,9.49,5.49,-5.49,-5.63,-4.64,4.07,4.00,4.00
380.33,9.33,5.33,9.35,5.36,-5.41,-5.55,-4.59,3.92,3.94,3.99
384.13,9.21,5.22,9.26,5.26,-5.33,-5.46,-4.54,3.88,3.93,3.99
387.97,9.20,5.21,9.20,5.21,-5.25,-5.37,-4.49,3.95,3.95,3.99
391.85,9.22,5.22,9.19,5.20,-5.17,-5.28,-4.45,4.04,4.02,4.00
395.77,9.18,5.19,9.14,5.15,-5.09,-5.19,-4.41,4.09,4.05,3.99
399.73,9.03,5.04,9.04,5.05,-5.01,-5.10,-4.37,4.02,4.03,3.99
403.72,8.89,4.90,8.92,4.95,-4.93,-5.01,-4.33,3.96,3.99,3.99
407.76,8.82,4.85,8.81,4.84,-4.85,-4.92,-4.30,3.97,3.96,3.96
411.84,8.73,4.77,8.71,4.74,-4.76,-4.83,-4.26,3.97,3.95,3.96
415.96,8.60,4.64,8.61,4.65,-4.66,-4.73,-4.23,3.94,3.95,3.96
420.12,8.49,4.54,8.50,4.55,-4.56,-4.63,-4.20,3.93,3.94,3.95
424.32,8.42,4.46,8.42,4.46,-4.47,-4.54,-4.17,3.95,3.95,3.96
428.56,8.35,4.38,8.33,4.37,-4.37,-4.44,-4.14,3.97,3.96,3.97
432.85,8.28,4.29,8.27,4.29,-4.28,-4.34,-4.11,4.00,3.99,3.99
437.18,8.18,4.18,8.23,4.23,-4.19,-4.24,-4.08,3.99,4.04,4.00
441.55,8.20,4.16,8.17,4.13,-4.10,-4.14,-4.05,4.10,4.06,4.04
445.96,8.15,4.07,8.09,4.01,-4.02,-4.04,-4.02,4.12,4.06,4.07
450.42,7.96,3.83,8.02,3.90,-3.95,-3.93,-3.99,4.01,4.07,4.12
454.93,7.95,3.78,7.98,3.81,-3.87,-3.83,-3.95,4.08,4.11,4.17
459.48,8.01,3.78,7.99,3.77,-3.79,-3.72,-3.91,4.22,4.21,4.23
464.07,8.06,3.78,8.03,3.75,-3.70,-3.62,-3.87,4.36,4.33,4.28
468.71,8.03,3.70,8.01,3.68,-3.61,-3.51,-3.83,4.42,4.40,4.33
473.40,7.94,3.55,7.94,3.54,-3.52,-3.40,-3.78,4.42,4.42,4.39
