frequency,raw,error,smoothed,error_smoothed,equalization,parametric_eq,equalized_raw,equalized_smoothed,target
20,-15.50,-19.27,-15.47,-19.23,6.00,2.89,-9.50,-9.47,3.77
21,-14.81,-18.58,-14.80,-18.57,6.00,3.31,-8.81,-8.80,3.77
22,-14.11,-17.88,-14.15,-17.92,6.00,3.78,-8.11,-8.15,3.77
23,-13.40,-17.16,-13.53,-17.29,6.00,4.28,-7.40,-7.53,3.76
24,-12.99,-16.75,-12.92,-16.67,6.00,4.81,-6.99,-6.92,3.76
25,-12.31,-16.07,-12.32,-16.08,6.00,5.36,-6.31,-6.32,3.76
26,-11.77,-15.52,-11.75,-15.50,6.00,5.92,-5.77,-5.75,3.75
27,-11.23,-14.98,-11.20,-14.94,6.00,6.45,-5.23,-5.20,3.75
28,-10.71,-14.46,-10.66,-14.40,6.00,6.92,-4.71,-4.66,3.75
29,-10.26,-14.00,-10.15,-13.88,6.00,7.31,-4.26,-4.15,3.74
30,-9.59,-13.33,-9.65,-13.38,6.00,7.58,-3.59,-3.65,3.74
31,-9.19,-12.93,-9.16,-12.90,6.00,7.72,-3.19,-3.16,3.74
32,-8.66,-12.40,-8.71,-12.43,6.00,7.72,-2.66,-2.71,3.74
33,-8.22,-11.96,-8.27,-11.99,6.00,7.61,-2.22,-2.27,3.74
34,-7.75,-11.48,-7.85,-11.56,6.00,7.41,-1.75,-1.85,3.73
35,-7.36,-11.09,-7.45,-11.16,6.00,7.15,-1.36,-1.45,3.73
36,-7.07,-10.80,-7.05,-10.76,6.00,6.85,-1.07,-1.05,3.73
37,-6.81,-10.53,-6.68,-10.38,6.00,6.55,-0.81,-0.68,3.72
38,-6.33,-10.05,-6.32,-10.02,6.00,6.25,-0.33,-0.32,3.72
39,-5.93,-9.64,-5.98,-9.66,6.00,5.96,0.07,0.02,3.71
40,-5.70,-9.39,-5.65,-9.33,6.00,5.69,0.30,0.35,3.69
41,-5.47,-9.15,-5.34,-9.00,6.00,5.45,0.53,0.66,3.68
42,-5.07,-8.74,-5.05,-8.69,6.00,5.23,0.93,0.95,3.67
43,-4.79,-8.44,-4.76,-8.39,6.00,5.04,1.21,1.24,3.65
44,-4.33,-7.96,-4.48,-8.10,6.00,4.87,1.67,1.52,3.63
45,-4.10,-7.71,-4.22,-7.82,6.00,4.73,1.90,1.78,3.61
46,-4.04,-7.63,-3.97,-7.55,6.00,4.60,1.96,2.03,3.59
47,-3.65,-7.22,-3.73,-7.29,6.00,4.50,2.35,2.27,3.57
48,-3.42,-6.97,-3.51,-7.04,6.00,4.41,2.58,2.49,3.55
49,-3.29,-6.81,-3.29,-6.79,6.00,4.34,2.71,2.71,3.52
50,-3.19,-6.69,-3.07,-6.55,6.00,4.28,2.81,2.93,3.50
51,-2.92,-6.40,-2.85,-6.31,5.96,4.23,3.04,3.11,3.48
52,-2.63,-6.09,-2.64,-6.08,5.87,4.19,3.24,3.23,3.46
53,-2.51,-5.94,-2.44,-5.85,5.74,4.15,3.23,3.29,3.43
54,-2.28,-5.69,-2.25,-5.62,5.57,4.12,3.29,3.32,3.41
55,-2.05,-5.44,-2.03,-5.40,5.38,4.09,3.33,3.35,3.39
56,-1.82,-5.18,-1.82,-5.17,5.17,4.06,3.35,3.35,3.36
57,-1.60,-4.94,-1.62,-4.93,4.93,4.03,3.33,3.31,3.34
58,-1.37,-4.68,-1.41,-4.71,4.71,3.99,3.34,3.29,3.31
59,-1.14,-4.42,-1.21,-4.48,4.48,3.95,3.34,3.28,3.28
60,-0.92,-4.17,-1.01,-4.26,4.26,3.90,3.34,3.25,3.25
61,-0.91,-4.13,-0.82,-4.05,4.05,3.85,3.14,3.23,3.22
62,-0.68,-3.87,-0.64,-3.83,3.83,3.78,3.15,3.19,3.19
63,-0.46,-3.62,-0.46,-3.62,3.62,3.71,3.16,3.16,3.16
64,-0.23,-3.36,-0.29,-3.42,3.42,3.63,3.19,3.13,3.13
65,-0.18,-3.28,-0.13,-3.23,3.23,3.55,3.05,3.10,3.10
66,0.00,-3.07,0.03,-3.04,3.04,3.46,3.04,3.07,3.07
67,0.23,-2.82,0.19,-2.85,2.85,3.36,3.08,3.03,3.05
68,0.33,-2.69,0.34,-2.66,2.66,3.26,2.99,3.00,3.02
69,0.48,-2.51,0.49,-2.49,2.49,3.15,2.97,2.98,2.99
70,0.68,-2.29,0.65,-2.31,2.31,3.04,2.99,2.96,2.97
71,0.68,-2.26,0.80,-2.15,2.15,2.93,2.83,2.94,2.94
72,0.92,-2.00,0.92,-1.99,1.99,2.82,2.91,2.91,2.92
73,1.14,-1.75,1.05,-1.83,1.83,2.71,2.97,2.88,2.89
74,1.14,-1.72,1.17,-1.69,1.69,2.59,2.83,2.86,2.86
75,1.31,-1.53,1.27,-1.56,1.56,2.48,2.87,2.83,2.84
76,1.37,-1.45,1.37,-1.44,1.44,2.37,2.81,2.81,2.82
77,1.55,-1.24,1.46,-1.32,1.32,2.26,2.87,2.78,2.79
78,1.60,-1.17,1.55,-1.21,1.21,2.15,2.81,2.76,2.77
79,1.60,-1.14,1.63,-1.12,1.12,2.04,2.72,2.74,2.74
80,1.60,-1.12,1.69,-1.02,1.02,1.94,2.62,2.71,2.72
81,1.74,-0.96,1.75,-0.94,0.94,1.83,2.68,2.69,2.70
82,1.82,-0.85,1.80,-0.86,0.86,1.73,2.68,2.66,2.67
83,1.82,-0.83,1.85,-0.78,0.78,1.63,2.60,2.64,2.65
84,1.82,-0.81,1.91,-0.71,0.71,1.53,2.53,2.62,2.63
85,2.05,-0.56,1.96,-0.64,0.64,1.44,2.69,2.60,2.61
86,2.05,-0.54,2.01,-0.57,0.57,1.35,2.62,2.58,2.59
87,2.05,-0.51,2.06,-0.50,0.50,1.26,2.55,2.55,2.56
88,2.05,-0.49,2.11,-0.43,0.43,1.17,2.48,2.54,2.54
89,2.05,-0.47,2.15,-0.37,0.37,1.08,2.42,2.52,2.52
90,2.24,-0.26,2.18,-0.32,0.32,1.00,2.56,2.49,2.50
91,2.28,-0.19,2.20,-0.26,0.26,0.91,2.54,2.46,2.47
92,2.28,-0.17,2.22,-0.21,0.21,0.83,2.49,2.43,2.45
93,2.28,-0.15,2.25,-0.16,0.16,0.75,2.44,2.41,2.43
94,2.28,-0.13,2.27,-0.12,0.12,0.67,2.40,2.39,2.41
95,2.28,-0.11,2.29,-0.07,0.07,0.60,2.35,2.36,2.39
96,2.28,-0.09,2.32,-0.03,0.03,0.52,2.31,2.35,2.37
97,2.28,-0.07,2.35,0.01,-0.01,0.45,2.27,2.34,2.35
98,2.28,-0.06,2.38,0.05,-0.05,0.38,2.23,2.32,2.34
99,2.28,-0.04,2.40,0.09,-0.09,0.31,2.19,2.30,2.32
100,2.50,0.19,2.41,0.13,-0.13,0.24,2.37,2.28,2.31
101,2.51,0.21,2.43,0.16,-0.16,0.18,2.35,2.27,2.30
102,2.51,0.22,2.45,0.19,-0.19,0.11,2.32,2.26,2.29
104,2.51,0.26,2.48,0.22,-0.22,-0.01,2.29,2.26,2.25
105,2.51,0.27,2.49,0.25,-0.25,-0.07,2.26,2.25,2.24
106,2.51,0.27,2.51,0.27,-0.27,-0.12,2.24,2.24,2.24
107,2.51,0.28,2.52,0.29,-0.29,-0.18,2.22,2.23,2.23
108,2.51,0.29,2.53,0.31,-0.31,-0.23,2.20,2.22,2.22
109,2.51,0.30,2.53,0.32,-0.32,-0.28,2.19,2.21,2.21
110,2.51,0.30,2.52,0.34,-0.34,-0.33,2.17,2.18,2.21
111,2.51,0.31,2.52,0.35,-0.35,-0.37,2.16,2.17,2.20
112,2.51,0.33,2.53,0.36,-0.36,-0.42,2.15,2.17,2.18
113,2.51,0.34,2.53,0.37,-0.37,-0.46,2.14,2.15,2.17
114,2.51,0.35,2.52,0.38,-0.38,-0.49,2.13,2.14,2.16
115,2.51,0.37,2.51,0.40,-0.40,-0.53,2.11,2.11,2.14
117,2.51,0.41,2.50,0.41,-0.41,-0.59,2.10,2.09,2.10
118,2.51,0.43,2.48,0.41,-0.41,-0.62,2.10,2.06,2.08
119,2.51,0.45,2.46,0.42,-0.42,-0.64,2.09,2.04,2.06
120,2.51,0.47,2.45,0.42,-0.42,-0.67,2.09,2.02,2.04
121,2.51,0.50,2.43,0.43,-0.43,-0.69,2.08,2.00,2.01
123,2.28,0.31,2.40,0.43,-0.43,-0.72,1.85,1.97,1.97
124,2.28,0.33,2.37,0.42,-0.42,-0.73,1.86,1.95,1.95
125,2.28,0.35,2.33,0.42,-0.42,-0.74,1.86,1.92,1.93
126,2.28,0.37,2.31,0.41,-0.41,-0.74,1.87,1.90,1.91
128,2.28,0.41,2.28,0.40,-0.40,-0.75,1.88,1.88,1.87
129,2.28,0.42,2.24,0.39,-0.39,-0.75,1.89,1.85,1.86
130,2.28,0.44,2.20,0.37,-0.37,-0.75,1.91,1.83,1.84
131,2.24,0.41,2.16,0.36,-0.36,-0.74,1.88,1.80,1.83
133,2.05,0.26,2.12,0.34,-0.34,-0.73,1.71,1.78,1.79
134,2.05,0.27,2.08,0.32,-0.32,-0.72,1.73,1.76,1.78
135,2.05,0.28,2.06,0.30,-0.30,-0.70,1.75,1.76,1.77
137,2.05,0.32,2.02,0.29,-0.29,-0.67,1.76,1.74,1.73
138,2.05,0.33,1.98,0.27,-0.27,-0.66,1.78,1.71,1.72
140,1.86,0.17,1.93,0.25,-0.25,-0.62,1.61,1.68,1.69
141,1.82,0.14,1.89,0.23,-0.23,-0.60,1.59,1.66,1.68
142,1.82,0.16,1.86,0.21,-0.21,-0.58,1.61,1.64,1.66
144,1.82,0.19,1.82,0.20,-0.20,-0.54,1.62,1.63,1.63
145,1.82,0.20,1.78,0.18,-0.18,-0.51,1.64,1.61,1.62
147,1.82,0.23,1.75,0.16,-0.16,-0.46,1.66,1.59,1.59
148,1.76,0.18,1.71,0.14,-0.14,-0.44,1.62,1.57,1.58
150,1.60,0.05,1.67,0.12,-0.12,-0.39,1.48,1.55,1.55
151,1.60,0.06,1.63,0.09,-0.09,-0.36,1.51,1.54,1.54
153,1.60,0.08,1.60,0.07,-0.07,-0.31,1.53,1.53,1.52
154,1.60,0.09,1.56,0.03,-0.03,-0.28,1.57,1.52,1.51
156,1.52,0.02,1.50,-0.00,0.00,-0.23,1.52,1.50,1.50
157,1.37,-0.12,1.44,-0.04,0.04,-0.20,1.41,1.48,1.49
159,1.37,-0.10,1.37,-0.09,0.09,-0.14,1.46,1.46,1.47
160,1.37,-0.10,1.31,-0.14,0.14,-0.12,1.51,1.45,1.47
162,1.37,-0.09,1.26,-0.19,0.19,-0.06,1.56,1.44,1.46
164,1.14,-0.30,1.20,-0.24,0.24,-0.01,1.38,1.44,1.44
165,1.14,-0.29,1.14,-0.29,0.29,0.02,1.43,1.43,1.43
167,1.09,-0.33,1.07,-0.34,0.34,0.08,1.43,1.41,1.42
169,0.91,-0.49,1.01,-0.39,0.39,0.13,1.30,1.40,1.40
170,0.91,-0.49,0.95,-0.43,0.43,0.16,1.34,1.38,1.40
172,0.91,-0.47,0.90,-0.47,0.47,0.21,1.38,1.37,1.38
174,0.91,-0.46,0.85,-0.51,0.51,0.27,1.42,1.36,1.37
175,0.91,-0.45,0.80,-0.54,0.54,0.29,1.45,1.34,1.36
177,0.70,-0.64,0.76,-0.56,0.56,0.34,1.26,1.33,1.34
179,0.68,-0.65,0.73,-0.58,0.58,0.40,1.26,1.32,1.33
181,0.68,-0.63,0.72,-0.59,0.59,0.45,1.27,1.31,1.31
183,0.68,-0.62,0.70,-0.60,0.60,0.50,1.28,1.30,1.30
184,0.68,-0.62,0.69,-0.60,0.60,0.53,1.28,1.30,1.30
186,0.68,-0.62,0.69,-0.61,0.61,0.58,1.29,1.30,1.30
188,0.68,-0.61,0.69,-0.61,0.61,0.63,1.29,1.30,1.29
190,0.68,-0.61,0.68,-0.61,0.61,0.68,1.29,1.29,1.29
192,0.68,-0.61,0.67,-0.61,0.61,0.73,1.29,1.28,1.29
194,0.68,-0.61,0.66,-0.62,0.62,0.78,1.30,1.28,1.29
196,0.68,-0.61,0.66,-0.63,0.63,0.83,1.31,1.29,1.29
198,0.68,-0.61,0.64,-0.64,0.64,0.87,1.32,1.28,1.29
200,0.68,-0.61,0.63,-0.65,0.65,0.92,1.33,1.28,1.29
202,0.68,-0.61,0.61,-0.67,0.67,0.97,1.35,1.28,1.29
204,0.61,-0.68,0.59,-0.69,0.69,1.01,1.30,1.28,1.29
206,0.46,-0.83,0.56,-0.71,0.71,1.06,1.17,1.28,1.29
208,0.46,-0.82,0.53,-0.74,0.74,1.10,1.20,1.27,1.28
210,0.46,-0.82,0.50,-0.76,0.76,1.15,1.22,1.26,1.28
212,0.46,-0.81,0.46,-0.79,0.79,1.19,1.25,1.25,1.27
214,0.46,-0.81,0.44,-0.82,0.82,1.23,1.28,1.26,1.27
216,0.46,-0.80,0.41,-0.85,0.85,1.27,1.31,1.26,1.26
218,0.46,-0.80,0.37,-0.89,0.89,1.31,1.35,1.26,1.26
221,0.32,-0.93,0.33,-0.92,0.92,1.37,1.24,1.25,1.25
223,0.23,-1.02,0.30,-0.95,0.95,1.41,1.18,1.25,1.25
225,0.23,-1.02,0.27,-0.98,0.98,1.44,1.21,1.25,1.25
227,0.23,-1.03,0.25,-1.02,1.02,1.48,1.25,1.27,1.26
229,0.23,-1.03,0.21,-1.05,1.05,1.51,1.28,1.26,1.26
232,0.23,-1.03,0.17,-1.09,1.09,1.55,1.32,1.26,1.26
234,0.19,-1.08,0.13,-1.13,1.13,1.58,1.32,1.26,1.27
236,0.00,-1.27,0.09,-1.17,1.17,1.61,1.17,1.26,1.27
239,0.00,-1.27,0.06,-1.21,1.21,1.65,1.21,1.27,1.27
241,0.00,-1.28,0.02,-1.25,1.25,1.67,1.25,1.27,1.28
244,0.00,-1.28,-0.02,-1.29,1.29,1.70,1.29,1.28,1.28
246,0.00,-1.28,-0.06,-1.34,1.34,1.72,1.34,1.28,1.28
248,0.00,-1.29,-0.11,-1.39,1.39,1.74,1.39,1.27,1.29
251,-0.23,-1.52,-0.16,-1.43,1.43,1.76,1.20,1.28,1.29
253,-0.23,-1.52,-0.20,-1.48,1.48,1.78,1.25,1.27,1.29
256,-0.23,-1.52,-0.25,-1.52,1.52,1.79,1.29,1.27,1.29
259,-0.23,-1.52,-0.29,-1.57,1.57,1.81,1.34,1.27,1.29
261,-0.41,-1.70,-0.33,-1.61,1.61,1.82,1.20,1.28,1.29
264,-0.46,-1.75,-0.38,-1.66,1.66,1.83,1.20,1.28,1.29
266,-0.46,-1.76,-0.42,-1.71,1.71,1.83,1.25,1.28,1.30
269,-0.46,-1.76,-0.48,-1.75,1.75,1.84,1.29,1.28,1.30
272,-0.46,-1.76,-0.52,-1.81,1.81,1.85,1.35,1.28,1.30
274,-0.55,-1.85,-0.57,-1.86,1.86,1.85,1.31,1.29,1.30
277,-0.68,-1.99,-0.62,-1.93,1.93,1.85,1.25,1.31,1.31
280,-0.68,-1.99,-0.68,-2.00,2.00,1.85,1.32,1.31,1.31
283,-0.68,-2.00,-0.75,-2.08,2.08,1.85,1.40,1.33,1.32
286,-0.77,-2.10,-0.83,-2.18,2.18,1.85,1.41,1.35,1.33
288,-0.91,-2.25,-0.91,-2.29,2.29,1.85,1.38,1.38,1.34
291,-0.99,-2.35,-1.02,-2.41,2.41,1.85,1.42,1.39,1.36
294,-1.14,-2.51,-1.14,-2.53,2.53,1.85,1.39,1.39,1.37
297,-1.14,-2.52,-1.27,-2.65,2.65,1.85,1.51,1.38,1.38
300,-1.34,-2.74,-1.40,-2.77,2.77,1.85,1.43,1.37,1.40
303,-1.37,-2.79,-1.52,-2.88,2.88,1.85,1.51,1.36,1.42
306,-1.60,-3.03,-1.61,-2.96,2.96,1.85,1.36,1.35,1.43
309,-1.66,-3.11,-1.68,-3.02,3.02,1.85,1.36,1.34,1.45
312,-1.82,-3.29,-1.69,-3.04,3.04,1.85,1.22,1.35,1.47
316,-1.82,-3.31,-1.65,-3.02,3.02,1.85,1.20,1.37,1.49
319,-1.82,-3.33,-1.57,-2.96,2.96,1.86,1.14,1.39,1.51
322,-1.81,-3.34,-1.45,-2.87,2.87,1.86,1.06,1.42,1.53
325,-1.57,-3.12,-1.31,-2.75,2.75,1.87,1.18,1.45,1.55
328,-1.30,-2.86,-1.14,-2.61,2.61,1.87,1.31,1.47,1.56
332,-0.89,-2.47,-0.95,-2.45,2.45,1.88,1.56,1.50,1.58
335,-0.58,-2.18,-0.76,-2.29,2.29,1.89,1.71,1.53,1.60
338,-0.31,-1.93,-0.57,-2.13,2.13,1.90,1.82,1.57,1.62
342,0.00,-1.64,-0.39,-1.99,1.99,1.92,1.99,1.60,1.64
345,0.00,-1.66,-0.22,-1.87,1.87,1.93,1.87,1.65,1.66
349,0.00,-1.68,-0.08,-1.77,1.77,1.95,1.77,1.69,1.68
352,0.00,-1.70,0.02,-1.70,1.70,1.96,1.70,1.72,1.70
356,0.00,-1.72,0.08,-1.66,1.66,1.98,1.66,1.74,1.72
359,0.00,-1.74,0.09,-1.65,1.65,2.00,1.65,1.74,1.74
363,0.00,-1.75,0.08,-1.66,1.66,2.02,1.66,1.74,1.75
366,0.00,-1.77,0.04,-1.69,1.69,2.04,1.69,1.73,1.77
370,0.00,-1.78,-0.00,-1.74,1.74,2.07,1.74,1.74,1.78
374,0.00,-1.80,-0.04,-1.80,1.80,2.10,1.80,1.76,1.80
377,0.00,-1.81,-0.07,-1.85,1.85,2.12,1.85,1.78,1.81
381,-0.11,-1.94,-0.10,-1.90,1.90,2.15,1.79,1.81,1.83
385,-0.23,-2.07,-0.13,-1.95,1.95,2.18,1.72,1.83,1.84
389,-0.23,-2.08,-0.16,-2.01,2.01,2.21,1.78,1.85,1.85
393,-0.23,-2.09,-0.20,-2.05,2.05,2.24,1.82,1.86,1.86
397,-0.23,-2.10,-0.23,-2.10,2.10,2.28,1.87,1.86,1.87
401,-0.23,-2.11,-0.27,-2.14,2.14,2.31,1.91,1.87,1.88
405,-0.23,-2.12,-0.31,-2.18,2.18,2.35,1.95,1.87,1.89
409,-0.23,-2.13,-0.34,-2.22,2.22,2.38,1.99,1.87,1.90
413,-0.41,-2.32,-0.37,-2.25,2.25,2.42,1.84,1.88,1.91
417,-0.46,-2.37,-0.39,-2.28,2.28,2.46,1.82,1.88,1.91
421,-0.46,-2.38,-0.40,-2.30,2.30,2.49,1.84,1.90,1.92
425,-0.46,-2.38,-0.41,-2.32,2.32,2.53,1.86,1.92,1.92
430,-0.46,-2.39,-0.42,-2.35,2.35,2.57,1.89,1.92,1.93
434,-0.46,-2.39,-0.44,-2.37,2.37,2.61,1.91,1.93,1.93
438,-0.46,-2.40,-0.46,-2.39,2.39,2.64,1.93,1.93,1.94
443,-0.46,-2.41,-0.48,-2.42,2.42,2.68,1.96,1.93,1.95
447,-0.46,-2.42,-0.50,-2.44,2.44,2.71,1.98,1.94,1.96
451,-0.46,-2.43,-0.52,-2.47,2.47,2.75,2.01,1.95,1.97
456,-0.46,-2.44,-0.53,-2.50,2.50,2.78,2.04,1.97,1.98
460,-0.46,-2.45,-0.55,-2.53,2.53,2.81,2.07,1.98,1.99
465,-0.57,-2.57,-0.57,-2.56,2.56,2.84,1.99,1.99,2.00
470,-0.68,-2.69,-0.59,-2.60,2.60,2.87,1.92,2.00,2.01
474,-0.68,-2.70,-0.62,-2.63,2.63,2.90,1.95,2.01,2.02
479,-0.68,-2.72,-0.64,-2.66,2.66,2.92,1.98,2.02,2.04
484,-0.68,-2.73,-0.66,-2.69,2.69,2.94,2.01,2.04,2.05
489,-0.68,-2.75,-0.67,-2.72,2.72,2.96,2.04,2.05,2.07
494,-0.68,-2.76,-0.69,-2.75,2.75,2.98,2.07,2.07,2.08
499,-0.68,-2.78,-0.69,-2.77,2.77,3.00,2.09,2.08,2.10
504,-0.68,-2.79,-0.70,-2.80,2.80,3.01,2.12,2.10,2.11
509,-0.68,-2.81,-0.70,-2.81,2.81,3.02,2.13,2.12,2.13
514,-0.68,-2.82,-0.69,-2.83,2.83,3.02,2.15,2.14,2.14
519,-0.68,-2.84,-0.68,-2.85,2.85,3.03,2.17,2.17,2.16
524,-0.68,-2.86,-0.68,-2.86,2.86,3.03,2.18,2.18,2.18
529,-0.68,-2.88,-0.68,-2.88,2.88,3.03,2.20,2.20,2.20
535,-0.68,-2.90,-0.68,-2.90,2.90,3.03,2.22,2.22,2.22
540,-0.68,-2.92,-0.68,-2.92,2.92,3.02,2.24,2.24,2.24
545,-0.68,-2.94,-0.68,-2.94,2.94,3.02,2.26,2.26,2.26
551,-0.68,-2.96,-0.68,-2.97,2.97,3.01,2.29,2.29,2.28
556,-0.68,-2.99,-0.68,-2.99,2.99,3.00,2.31,2.31,2.31
562,-0.68,-3.01,-0.68,-3.02,3.02,2.99,2.34,2.34,2.33
568,-0.68,-3.04,-0.68,-3.04,3.04,2.99,2.36,2.36,2.36
573,-0.68,-3.07,-0.68,-3.07,3.07,2.98,2.39,2.39,2.39
579,-0.68,-3.10,-0.68,-3.10,3.10,2.97,2.42,2.42,2.42
585,-0.68,-3.12,-0.68,-3.12,3.12,2.96,2.44,2.44,2.44
591,-0.68,-3.15,-0.68,-3.15,3.15,2.95,2.47,2.47,2.47
596,-0.68,-3.18,-0.68,-3.18,3.18,2.94,2.50,2.50,2.50
602,-0.68,-3.21,-0.68,-3.20,3.20,2.93,2.52,2.52,2.53
608,-0.68,-3.23,-0.68,-3.23,3.23,2.92,2.55,2.55,2.55
615,-0.68,-3.26,-0.68,-3.25,3.25,2.92,2.57,2.57,2.58
621,-0.68,-3.28,-0.68,-3.28,3.28,2.91,2.60,2.60,2.60
627,-0.68,-3.30,-0.68,-3.30,3.30,2.91,2.62,2.62,2.62
633,-0.68,-3.32,-0.68,-3.32,3.32,2.91,2.64,2.64,2.64
639,-0.68,-3.34,-0.68,-3.34,3.34,2.91,2.66,2.66,2.66
646,-0.68,-3.36,-0.68,-3.36,3.36,2.91,2.68,2.68,2.68
652,-0.68,-3.37,-0.68,-3.38,3.38,2.92,2.70,2.70,2.69
659,-0.68,-3.39,-0.68,-3.39,3.39,2.92,2.71,2.71,2.71
665,-0.68,-3.40,-0.69,-3.41,3.41,2.93,2.73,2.72,2.72
672,-0.68,-3.42,-0.69,-3.42,3.42,2.94,2.74,2.73,2.74
679,-0.68,-3.43,-0.70,-3.43,3.43,2.96,2.75,2.74,2.75
686,-0.68,-3.44,-0.69,-3.44,3.44,2.97,2.76,2.75,2.76
692,-0.68,-3.46,-0.69,-3.45,3.45,2.99,2.77,2.76,2.78
699,-0.68,-3.47,-0.67,-3.46,3.46,3.01,2.78,2.78,2.79
706,-0.68,-3.49,-0.66,-3.46,3.46,3.03,2.78,2.80,2.81
713,-0.68,-3.50,-0.64,-3.46,3.46,3.05,2.78,2.82,2.82
721,-0.68,-3.52,-0.62,-3.46,3.46,3.09,2.78,2.84,2.84
728,-0.68,-3.54,-0.60,-3.46,3.46,3.11,2.78,2.86,2.86
735,-0.59,-3.47,-0.57,-3.46,3.46,3.15,2.87,2.88,2.88
742,-0.46,-3.37,-0.55,-3.46,3.46,3.18,3.00,2.91,2.91
750,-0.46,-3.40,-0.53,-3.46,3.46,3.22,3.00,2.94,2.94
757,-0.46,-3.42,-0.50,-3.47,3.47,3.25,3.01,2.97,2.96
765,-0.46,-3.45,-0.48,-3.48,3.48,3.30,3.02,3.00,2.99
773,-0.46,-3.48,-0.47,-3.50,3.50,3.34,3.04,3.03,3.02
780,-0.46,-3.51,-0.46,-3.51,3.51,3.38,3.05,3.06,3.05
788,-0.46,-3.53,-0.45,-3.53,3.53,3.43,3.07,3.08,3.07
796,-0.46,-3.56,-0.46,-3.54,3.54,3.48,3.08,3.09,3.10
804,-0.46,-3.58,-0.46,-3.56,3.56,3.53,3.10,3.10,3.12
812,-0.46,-3.59,-0.47,-3.57,3.57,3.58,3.11,3.10,3.13
820,-0.46,-3.60,-0.47,-3.58,3.58,3.62,3.12,3.11,3.14
828,-0.46,-3.61,-0.46,-3.58,3.58,3.67,3.12,3.12,3.15
837,-0.46,-3.62,-0.45,-3.58,3.58,3.73,3.12,3.14,3.16
845,-0.46,-3.62,-0.43,-3.57,3.57,3.78,3.11,3.14,3.16
853,-0.46,-3.62,-0.40,-3.56,3.56,3.82,3.10,3.15,3.16
862,-0.46,-3.62,-0.38,-3.54,3.54,3.87,3.08,3.16,3.16
871,-0.46,-3.62,-0.36,-3.52,3.52,3.92,3.06,3.16,3.16
879,-0.23,-3.39,-0.34,-3.50,3.50,3.96,3.27,3.16,3.16
888,-0.23,-3.39,-0.32,-3.48,3.48,4.00,3.25,3.15,3.16
897,-0.23,-3.39,-0.30,-3.46,3.46,4.04,3.23,3.15,3.16
906,-0.23,-3.39,-0.28,-3.44,3.44,4.07,3.21,3.16,3.16
915,-0.23,-3.40,-0.25,-3.42,3.42,4.10,3.19,3.17,3.17
924,-0.23,-3.41,-0.22,-3.40,3.40,4.13,3.17,3.18,3.18
933,-0.23,-3.42,-0.20,-3.39,3.39,4.15,3.16,3.19,3.19
943,-0.23,-3.43,-0.18,-3.37,3.37,4.16,3.14,3.19,3.20
952,-0.23,-3.44,-0.16,-3.36,3.36,4.17,3.13,3.20,3.21
962,-0.23,-3.45,-0.14,-3.35,3.35,4.17,3.12,3.21,3.22
971,-0.10,-3.33,-0.12,-3.33,3.33,4.16,3.23,3.21,3.23
981,0.00,-3.24,-0.08,-3.31,3.31,4.15,3.31,3.23,3.24
991,0.00,-3.25,-0.05,-3.30,3.30,4.12,3.30,3.25,3.25
1001,0.00,-3.27,-0.01,-3.28,3.28,4.09,3.28,3.26,3.27
1011,0.00,-3.28,0.02,-3.25,3.25,4.06,3.25,3.28,3.28
1021,0.00,-3.30,0.07,-3.23,3.23,4.01,3.23,3.30,3.30
1031,0.11,-3.20,0.11,-3.21,3.21,3.96,3.32,3.32,3.31
1041,0.23,-3.10,0.15,-3.18,3.18,3.90,3.41,3.33,3.33
1052,0.23,-3.11,0.18,-3.16,3.16,3.83,3.39,3.34,3.34
1062,0.23,-3.13,0.22,-3.13,3.13,3.76,3.36,3.35,3.36
1073,0.23,-3.14,0.26,-3.10,3.10,3.68,3.33,3.37,3.37
1084,0.23,-3.16,0.31,-3.08,3.08,3.59,3.31,3.39,3.39
1094,0.30,-3.10,0.35,-3.06,3.06,3.50,3.36,3.40,3.40
1105,0.46,-2.96,0.39,-3.03,3.03,3.40,3.49,3.43,3.42
1116,0.46,-2.98,0.44,-3.01,3.01,3.30,3.47,3.45,3.44
1128,0.46,-3.01,0.49,-2.99,2.99,3.18,3.45,3.48,3.47
1139,0.46,-3.03,0.53,-2.97,2.97,3.07,3.43,3.50,3.49
1150,0.68,-2.84,0.57,-2.95,2.95,2.96,3.63,3.51,3.52
1162,0.68,-2.86,0.62,-2.93,2.93,2.84,3.61,3.55,3.54
1173,0.68,-2.89,0.67,-2.91,2.91,2.72,3.59,3.57,3.57
1185,0.68,-2.91,0.72,-2.89,2.89,2.59,3.57,3.60,3.59
1197,0.68,-2.94,0.77,-2.86,2.86,2.47,3.54,3.64,3.62
1209,0.88,-2.77,0.82,-2.84,2.84,2.34,3.72,3.66,3.65
1221,0.91,-2.77,0.87,-2.81,2.81,2.21,3.72,3.68,3.68
1233,0.91,-2.80,0.93,-2.77,2.77,2.08,3.68,3.70,3.71
1246,0.91,-2.82,0.99,-2.73,2.73,1.94,3.64,3.72,3.73
1258,1.02,-2.73,1.05,-2.68,2.68,1.81,3.70,3.73,3.75
1271,1.14,-2.62,1.10,-2.62,2.62,1.68,3.76,3.72,3.76
1283,1.14,-2.62,1.17,-2.55,2.55,1.55,3.69,3.72,3.76
1296,1.35,-2.40,1.26,-2.47,2.47,1.41,3.82,3.73,3.75
1309,1.37,-2.37,1.34,-2.39,2.39,1.28,3.76,3.73,3.74
1322,1.37,-2.35,1.42,-2.30,2.30,1.15,3.67,3.72,3.72
1335,1.44,-2.26,1.50,-2.20,2.20,1.02,3.64,3.70,3.70
1349,1.60,-2.08,1.58,-2.10,2.10,0.88,3.70,3.68,3.68
1362,1.60,-2.05,1.67,-2.00,2.00,0.75,3.60,3.66,3.65
1376,1.78,-1.85,1.75,-1.89,1.89,0.61,3.67,3.64,3.63
1390,1.82,-1.78,1.83,-1.78,1.78,0.47,3.60,3.61,3.60
1404,2.05,-1.53,1.91,-1.67,1.67,0.34,3.72,3.57,3.58
1418,2.05,-1.51,1.99,-1.56,1.56,0.21,3.61,3.55,3.56
1432,2.05,-1.50,2.08,-1.45,1.45,0.08,3.50,3.53,3.55
1446,2.18,-1.36,2.17,-1.34,1.34,-0.05,3.52,3.51,3.54
1461,2.28,-1.26,2.27,-1.23,1.23,-0.19,3.51,3.50,3.54
1475,2.28,-1.26,2.38,-1.12,1.12,-0.32,3.40,3.50,3.54
1490,2.51,-1.04,2.48,-1.00,1.00,-0.45,3.51,3.48,3.55
1505,2.55,-1.00,2.59,-0.88,0.88,-0.58,3.43,3.47,3.55
1520,2.74,-0.82,2.70,-0.74,0.74,-0.71,3.48,3.45,3.56
1535,2.84,-0.72,2.83,-0.60,0.60,-0.84,3.44,3.43,3.56
1550,3.09,-0.48,2.99,-0.43,0.43,-0.97,3.52,3.42,3.57
1566,3.19,-0.39,3.17,-0.25,0.25,-1.11,3.44,3.42,3.58
1582,3.41,-0.18,3.37,-0.05,0.05,-1.24,3.46,3.42,3.59
1597,3.65,0.05,3.60,0.18,-0.18,-1.36,3.47,3.42,3.60
1613,3.87,0.26,3.85,0.44,-0.44,-1.49,3.43,3.42,3.61
1629,3.98,0.35,4.16,0.73,-0.73,-1.62,3.25,3.43,3.63
1646,4.39,0.74,4.51,1.07,-1.07,-1.75,3.32,3.45,3.65
1662,4.85,1.17,4.92,1.44,-1.44,-1.87,3.41,3.48,3.68
1679,5.29,1.58,5.38,1.85,-1.85,-1.99,3.44,3.53,3.71
1696,5.80,2.05,5.89,2.28,-2.28,-2.12,3.52,3.60,3.75
1713,6.21,2.40,6.44,2.74,-2.74,-2.24,3.47,3.70,3.81
1730,6.76,2.88,7.02,3.21,-3.21,-2.35,3.55,3.81,3.88
1747,7.45,3.49,7.62,3.68,-3.68,-2.46,3.77,3.94,3.96
1764,8.16,4.11,8.20,4.13,-4.13,-2.57,4.03,4.08,4.05
1782,8.91,4.76,8.77,4.54,-4.54,-2.68,4.37,4.23,4.15
1800,9.51,5.25,9.28,4.92,-4.92,-2.78,4.59,4.36,4.26
1818,9.92,5.56,9.72,5.24,-5.24,-2.88,4.68,4.48,4.36
1836,10.40,5.93,10.09,5.50,-5.50,-2.97,4.90,4.59,4.47
1854,10.69,6.10,10.38,5.68,-5.68,-3.05,5.01,4.70,4.59
1873,10.94,6.24,10.60,5.80,-5.80,-3.14,5.14,4.80,4.70
1892,10.94,6.12,10.75,5.86,-5.86,-3.21,5.08,4.89,4.82
1911,10.94,6.01,10.82,5.84,-5.84,-3.28,5.10,4.98,4.93
1930,10.73,5.69,10.84,5.78,-5.78,-3.34,4.95,5.06,5.04
1949,10.70,5.55,10.81,5.68,-5.68,-3.39,5.02,5.13,5.15
1969,10.48,5.22,10.76,5.55,-5.55,-3.44,4.93,5.21,5.26
