frequency,raw,error,smoothed,error_smoothed,equalization,parametric_eq,equalized_raw,equalized_smoothed,target
20,-15.50,-16.02,-15.46,-15.98,6.00,5.23,-9.50,-9.46,0.52
21,-14.81,-15.33,-14.80,-15.32,6.00,5.46,-8.81,-8.80,0.52
22,-14.11,-14.63,-14.15,-14.68,6.00,5.67,-8.11,-8.15,0.52
23,-13.40,-13.93,-13.53,-14.06,6.00,5.86,-7.40,-7.53,0.53
24,-12.99,-13.52,-12.93,-13.45,6.00,6.02,-6.99,-6.93,0.53
25,-12.31,-12.84,-12.34,-12.87,6.00,6.16,-6.31,-6.34,0.53
26,-11.77,-12.30,-11.77,-12.30,6.00,6.27,-5.77,-5.77,0.53
27,-11.23,-11.76,-11.22,-11.75,6.00,6.35,-5.23,-5.22,0.53
28,-10.71,-11.24,-10.68,-11.21,6.00,6.41,-4.71,-4.68,0.53
29,-10.26,-10.79,-10.16,-10.69,6.00,6.45,-4.26,-4.16,0.53
30,-9.59,-10.12,-9.65,-10.18,6.00,6.45,-3.59,-3.65,0.53
31,-9.19,-9.72,-9.16,-9.69,6.00,6.44,-3.19,-3.16,0.53
32,-8.66,-9.19,-8.69,-9.22,6.00,6.39,-2.66,-2.69,0.53
33,-8.22,-8.75,-8.24,-8.77,6.00,6.33,-2.22,-2.24,0.53
34,-7.75,-8.28,-7.82,-8.35,6.00,6.25,-1.75,-1.82,0.53
35,-7.36,-7.88,-7.42,-7.95,6.00,6.14,-1.36,-1.42,0.52
36,-7.07,-7.59,-7.05,-7.57,6.00,6.02,-1.07,-1.05,0.52
37,-6.81,-7.32,-6.69,-7.20,6.00,5.88,-0.81,-0.69,0.51
38,-6.33,-6.84,-6.34,-6.85,6.00,5.73,-0.33,-0.34,0.51
39,-5.93,-6.43,-6.01,-6.51,5.94,5.57,0.01,-0.07,0.50
40,-5.70,-6.19,-5.68,-6.17,5.82,5.40,0.12,0.14,0.49
41,-5.47,-5.95,-5.36,-5.84,5.64,5.21,0.17,0.28,0.48
42,-5.07,-5.54,-5.05,-5.52,5.42,5.02,0.35,0.37,0.47
43,-4.79,-5.25,-4.75,-5.21,5.18,4.82,0.39,0.43,0.46
44,-4.33,-4.78,-4.46,-4.91,4.91,4.62,0.58,0.45,0.45
45,-4.10,-4.54,-4.19,-4.63,4.63,4.41,0.53,0.44,0.44
46,-4.04,-4.46,-3.94,-4.36,4.36,4.20,0.32,0.42,0.42
47,-3.65,-4.05,-3.71,-4.11,4.11,3.98,0.46,0.40,0.40
48,-3.42,-3.81,-3.49,-3.88,3.88,3.77,0.46,0.39,0.39
49,-3.29,-3.66,-3.28,-3.65,3.65,3.55,0.36,0.37,0.37
50,-3.19,-3.54,-3.08,-3.43,3.43,3.33,0.24,0.35,0.35
51,-2.92,-3.25,-2.88,-3.21,3.21,3.11,0.29,0.33,0.33
52,-2.63,-2.93,-2.68,-2.98,2.98,2.90,0.35,0.30,0.30
53,-2.51,-2.79,-2.47,-2.75,2.75,2.68,0.24,0.28,0.28
54,-2.28,-2.54,-2.26,-2.51,2.51,2.46,0.23,0.26,0.26
55,-2.05,-2.28,-2.04,-2.27,2.27,2.25,0.22,0.23,0.23
56,-1.82,-2.03,-1.82,-2.02,2.02,2.04,0.20,0.21,0.21
57,-1.60,-1.78,-1.60,-1.78,1.78,1.83,0.18,0.18,0.18
58,-1.37,-1.52,-1.39,-1.55,1.55,1.62,0.18,0.15,0.15
59,-1.14,-1.26,-1.19,-1.32,1.32,1.42,0.18,0.12,0.12
60,-0.92,-1.02,-1.00,-1.10,1.10,1.22,0.18,0.10,0.10
61,-0.91,-0.98,-0.81,-0.88,0.88,1.02,-0.03,0.07,0.07
62,-0.68,-0.72,-0.64,-0.68,0.68,0.82,-0.00,0.04,0.04
63,-0.46,-0.47,-0.47,-0.48,0.48,0.63,0.02,0.01,0.01
64,-0.23,-0.21,-0.30,-0.28,0.28,0.44,0.05,-0.02,-0.02
65,-0.18,-0.13,-0.13,-0.09,0.09,0.26,-0.09,-0.05,-0.05
66,0.00,0.08,0.03,0.10,-0.10,0.08,-0.10,-0.08,-0.08
67,0.23,0.34,0.18,0.29,-0.29,-0.10,-0.06,-0.11,-0.11
68,0.33,0.47,0.34,0.48,-0.48,-0.27,-0.15,-0.14,-0.14
69,0.48,0.65,0.49,0.66,-0.66,-0.44,-0.18,-0.17,-0.17
70,0.68,0.88,0.64,0.84,-0.84,-0.61,-0.16,-0.20,-0.20
71,0.68,0.91,0.78,1.01,-1.01,-0.77,-0.33,-0.23,-0.23
72,0.92,1.18,0.92,1.18,-1.18,-0.93,-0.26,-0.26,-0.26
73,1.14,1.43,1.06,1.34,-1.34,-1.08,-0.20,-0.28,-0.29
74,1.14,1.45,1.18,1.49,-1.49,-1.23,-0.35,-0.31,-0.31
75,1.31,1.65,1.29,1.63,-1.63,-1.37,-0.32,-0.34,-0.34
76,1.37,1.74,1.39,1.76,-1.76,-1.51,-0.39,-0.37,-0.37
77,1.55,1.95,1.48,1.88,-1.88,-1.65,-0.33,-0.40,-0.40
78,1.60,2.03,1.55,1.99,-1.99,-1.78,-0.39,-0.43,-0.43
79,1.60,2.06,1.62,2.08,-2.08,-1.90,-0.48,-0.46,-0.46
80,1.60,2.09,1.68,2.17,-2.17,-2.03,-0.57,-0.49,-0.49
81,1.74,2.26,1.74,2.26,-2.26,-2.14,-0.52,-0.52,-0.52
82,1.82,2.37,1.79,2.34,-2.34,-2.26,-0.52,-0.55,-0.55
83,1.82,2.40,1.85,2.42,-2.42,-2.37,-0.60,-0.58,-0.58
84,1.82,2.42,1.90,2.50,-2.50,-2.47,-0.68,-0.60,-0.60
85,2.05,2.68,1.95,2.59,-2.59,-2.57,-0.54,-0.63,-0.63
86,2.05,2.71,2.01,2.67,-2.67,-2.67,-0.62,-0.66,-0.66
87,2.05,2.74,2.06,2.74,-2.74,-2.76,-0.69,-0.69,-0.69
88,2.05,2.76,2.11,2.82,-2.82,-2.84,-0.77,-0.71,-0.71
89,2.05,2.79,2.15,2.89,-2.89,-2.93,-0.84,-0.74,-0.74
90,2.24,3.01,2.19,2.95,-2.95,-3.01,-0.71,-0.77,-0.77
91,2.28,3.07,2.22,3.01,-3.01,-3.08,-0.73,-0.79,-0.79
92,2.28,3.10,2.24,3.06,-3.06,-3.15,-0.78,-0.82,-0.82
93,2.28,3.12,2.26,3.10,-3.10,-3.22,-0.82,-0.84,-0.84
94,2.28,3.14,2.27,3.13,-3.13,-3.28,-0.85,-0.86,-0.86
95,2.28,3.17,2.29,3.17,-3.17,-3.34,-0.89,-0.88,-0.89
96,2.28,3.19,2.30,3.21,-3.21,-3.40,-0.93,-0.91,-0.91
97,2.28,3.21,2.32,3.25,-3.25,-3.45,-0.97,-0.93,-0.93
98,2.28,3.23,2.35,3.29,-3.29,-3.50,-1.01,-0.95,-0.95
99,2.28,3.25,2.38,3.35,-3.35,-3.54,-1.07,-0.97,-0.97
100,2.50,3.49,2.41,3.40,-3.40,-3.59,-0.90,-0.99,-0.99
101,2.51,3.51,2.45,3.46,-3.46,-3.63,-0.95,-1.01,-1.00
102,2.51,3.53,2.48,3.51,-3.51,-3.66,-1.00,-1.04,-1.02
104,2.51,3.58,2.50,3.56,-3.56,-3.72,-1.05,-1.06,-1.07
105,2.51,3.60,2.51,3.59,-3.59,-3.75,-1.08,-1.08,-1.09
106,2.51,3.62,2.52,3.62,-3.62,-3.78,-1.11,-1.10,-1.11
107,2.51,3.63,2.52,3.64,-3.64,-3.80,-1.13,-1.12,-1.12
108,2.51,3.65,2.52,3.66,-3.66,-3.82,-1.15,-1.14,-1.14
109,2.51,3.66,2.52,3.67,-3.67,-3.83,-1.16,-1.15,-1.15
110,2.51,3.68,2.51,3.68,-3.68,-3.85,-1.17,-1.17,-1.17
111,2.51,3.70,2.51,3.70,-3.70,-3.86,-1.19,-1.19,-1.19
112,2.51,3.71,2.52,3.72,-3.72,-3.87,-1.21,-1.21,-1.20
113,2.51,3.73,2.52,3.74,-3.74,-3.88,-1.23,-1.22,-1.22
114,2.51,3.75,2.52,3.77,-3.77,-3.89,-1.26,-1.24,-1.24
115,2.51,3.77,2.52,3.79,-3.79,-3.89,-1.28,-1.27,-1.26
117,2.51,3.81,2.51,3.80,-3.80,-3.90,-1.29,-1.29,-1.30
118,2.51,3.83,2.50,3.81,-3.81,-3.90,-1.30,-1.31,-1.32
119,2.51,3.85,2.48,3.82,-3.82,-3.89,-1.31,-1.34,-1.34
120,2.51,3.87,2.45,3.82,-3.82,-3.89,-1.31,-1.37,-1.36
121,2.51,3.89,2.42,3.81,-3.81,-3.89,-1.30,-1.39,-1.38
123,2.28,3.71,2.39,3.80,-3.80,-3.87,-1.52,-1.42,-1.43
124,2.28,3.73,2.35,3.80,-3.80,-3.87,-1.52,-1.44,-1.45
125,2.28,3.75,2.32,3.79,-3.79,-3.86,-1.51,-1.47,-1.47
126,2.28,3.76,2.29,3.79,-3.79,-3.85,-1.51,-1.49,-1.48
128,2.28,3.81,2.27,3.79,-3.79,-3.82,-1.51,-1.52,-1.53
129,2.28,3.83,2.24,3.78,-3.78,-3.81,-1.50,-1.54,-1.55
130,2.28,3.85,2.21,3.78,-3.78,-3.80,-1.50,-1.57,-1.57
131,2.24,3.82,2.18,3.77,-3.77,-3.78,-1.53,-1.59,-1.58
133,2.05,3.67,2.14,3.76,-3.76,-3.75,-1.71,-1.62,-1.62
134,2.05,3.69,2.10,3.74,-3.74,-3.74,-1.69,-1.64,-1.64
135,2.05,3.71,2.05,3.72,-3.72,-3.72,-1.67,-1.66,-1.66
137,2.05,3.74,2.01,3.70,-3.70,-3.68,-1.65,-1.69,-1.69
138,2.05,3.76,1.96,3.67,-3.67,-3.67,-1.62,-1.71,-1.71
140,1.86,3.60,1.92,3.66,-3.66,-3.63,-1.80,-1.73,-1.74
141,1.82,3.57,1.89,3.64,-3.64,-3.61,-1.82,-1.75,-1.75
142,1.82,3.59,1.85,3.63,-3.63,-3.59,-1.81,-1.77,-1.77
144,1.82,3.62,1.82,3.61,-3.61,-3.55,-1.79,-1.79,-1.80
145,1.82,3.63,1.79,3.60,-3.60,-3.53,-1.78,-1.81,-1.81
147,1.82,3.66,1.75,3.58,-3.58,-3.49,-1.76,-1.83,-1.84
148,1.76,3.61,1.72,3.57,-3.57,-3.47,-1.81,-1.85,-1.85
150,1.60,3.47,1.68,3.55,-3.55,-3.42,-1.95,-1.87,-1.87
151,1.60,3.48,1.64,3.52,-3.52,-3.40,-1.92,-1.88,-1.88
153,1.60,3.50,1.59,3.49,-3.49,-3.36,-1.89,-1.90,-1.90
154,1.60,3.51,1.55,3.46,-3.46,-3.34,-1.86,-1.91,-1.91
156,1.52,3.45,1.50,3.43,-3.43,-3.30,-1.91,-1.93,-1.93
157,1.37,3.31,1.45,3.39,-3.39,-3.27,-2.02,-1.94,-1.94
159,1.37,3.33,1.39,3.35,-3.35,-3.23,-1.98,-1.96,-1.96
160,1.37,3.34,1.33,3.30,-3.30,-3.21,-1.93,-1.97,-1.97
162,1.37,3.35,1.26,3.25,-3.25,-3.17,-1.88,-1.98,-1.98
164,1.14,3.14,1.20,3.19,-3.19,-3.12,-2.05,-2.00,-2.00
165,1.14,3.14,1.13,3.14,-3.14,-3.10,-2.00,-2.01,-2.00
167,1.09,3.11,1.07,3.09,-3.09,-3.06,-2.00,-2.02,-2.02
169,0.91,2.94,1.01,3.04,-3.04,-3.02,-2.13,-2.03,-2.03
170,0.91,2.95,0.95,2.99,-2.99,-3.00,-2.08,-2.04,-2.04
172,0.91,2.96,0.90,2.94,-2.94,-2.95,-2.03,-2.05,-2.05
174,0.91,2.97,0.85,2.91,-2.91,-2.91,-2.00,-2.06,-2.06
175,0.91,2.97,0.80,2.87,-2.87,-2.89,-1.96,-2.07,-2.06
177,0.70,2.77,0.76,2.84,-2.84,-2.85,-2.14,-2.07,-2.07
179,0.68,2.76,0.73,2.81,-2.81,-2.81,-2.13,-2.08,-2.08
181,0.68,2.77,0.71,2.79,-2.79,-2.77,-2.11,-2.09,-2.09
183,0.68,2.78,0.69,2.78,-2.78,-2.73,-2.10,-2.09,-2.10
184,0.68,2.78,0.68,2.78,-2.78,-2.71,-2.10,-2.10,-2.10
186,0.68,2.78,0.67,2.78,-2.78,-2.67,-2.10,-2.10,-2.10
188,0.68,2.79,0.68,2.79,-2.79,-2.64,-2.11,-2.11,-2.11
190,0.68,2.79,0.68,2.79,-2.79,-2.60,-2.11,-2.11,-2.11
192,0.68,2.80,0.68,2.80,-2.80,-2.56,-2.12,-2.12,-2.12
194,0.68,2.80,0.68,2.80,-2.80,-2.53,-2.12,-2.12,-2.12
196,0.68,2.80,0.68,2.80,-2.80,-2.49,-2.12,-2.12,-2.12
198,0.68,2.80,0.66,2.79,-2.79,-2.46,-2.11,-2.12,-2.12
200,0.68,2.81,0.64,2.77,-2.77,-2.42,-2.09,-2.13,-2.13
202,0.68,2.81,0.62,2.74,-2.74,-2.39,-2.06,-2.13,-2.13
204,0.61,2.74,0.58,2.71,-2.71,-2.36,-2.10,-2.13,-2.13
206,0.46,2.59,0.55,2.68,-2.68,-2.32,-2.22,-2.13,-2.13
208,0.46,2.59,0.52,2.65,-2.65,-2.29,-2.19,-2.13,-2.13
210,0.46,2.59,0.49,2.62,-2.62,-2.26,-2.16,-2.13,-2.13
212,0.46,2.59,0.46,2.59,-2.59,-2.23,-2.13,-2.13,-2.13
214,0.46,2.59,0.43,2.56,-2.56,-2.20,-2.10,-2.13,-2.13
216,0.46,2.58,0.41,2.53,-2.53,-2.17,-2.07,-2.13,-2.12
218,0.46,2.58,0.38,2.50,-2.50,-2.14,-2.04,-2.12,-2.12
221,0.32,2.44,0.34,2.47,-2.47,-2.09,-2.15,-2.12,-2.12
223,0.23,2.35,0.31,2.43,-2.43,-2.07,-2.20,-2.12,-2.12
225,0.23,2.35,0.27,2.39,-2.39,-2.04,-2.16,-2.12,-2.12
227,0.23,2.35,0.24,2.36,-2.36,-2.01,-2.13,-2.12,-2.12
229,0.23,2.35,0.20,2.32,-2.32,-1.99,-2.09,-2.12,-2.12
232,0.23,2.35,0.16,2.28,-2.28,-1.95,-2.05,-2.12,-2.12
234,0.19,2.30,0.13,2.24,-2.24,-1.92,-2.05,-2.11,-2.11
236,0.00,2.11,0.09,2.20,-2.20,-1.90,-2.20,-2.11,-2.11
239,0.00,2.11,0.06,2.17,-2.17,-1.86,-2.17,-2.11,-2.11
241,0.00,2.11,0.02,2.13,-2.13,-1.84,-2.13,-2.11,-2.11
244,0.00,2.10,-0.02,2.09,-2.09,-1.80,-2.09,-2.10,-2.10
246,0.00,2.10,-0.06,2.04,-2.04,-1.78,-2.04,-2.10,-2.10
248,0.00,2.10,-0.10,2.00,-2.00,-1.75,-2.00,-2.10,-2.10
251,-0.23,1.86,-0.15,1.95,-1.95,-1.72,-2.18,-2.09,-2.09
253,-0.23,1.86,-0.20,1.89,-1.89,-1.70,-2.12,-2.09,-2.09
256,-0.23,1.86,-0.25,1.84,-1.84,-1.67,-2.07,-2.09,-2.09
259,-0.23,1.85,-0.30,1.78,-1.78,-1.64,-2.01,-2.08,-2.08
261,-0.41,1.67,-0.35,1.73,-1.73,-1.62,-2.14,-2.08,-2.08
264,-0.46,1.61,-0.39,1.68,-1.68,-1.59,-2.14,-2.07,-2.07
266,-0.46,1.61,-0.44,1.63,-1.63,-1.57,-2.09,-2.07,-2.07
269,-0.46,1.60,-0.48,1.58,-1.58,-1.54,-2.04,-2.06,-2.06
272,-0.46,1.59,-0.52,1.53,-1.53,-1.52,-1.99,-2.05,-2.05
274,-0.55,1.49,-0.56,1.48,-1.48,-1.50,-2.03,-2.05,-2.04
277,-0.68,1.36,-0.61,1.42,-1.42,-1.47,-2.10,-2.04,-2.04
280,-0.68,1.35,-0.67,1.36,-1.36,-1.45,-2.04,-2.03,-2.03
283,-0.68,1.34,-0.73,1.28,-1.28,-1.42,-1.96,-2.02,-2.02
286,-0.77,1.24,-0.81,1.20,-1.20,-1.40,-1.97,-2.01,-2.01
288,-0.91,1.08,-0.89,1.10,-1.10,-1.38,-2.01,-1.99,-1.99
291,-0.99,0.99,-0.99,0.99,-0.99,-1.36,-1.98,-1.98,-1.98
294,-1.14,0.83,-1.10,0.87,-0.87,-1.34,-2.01,-1.97,-1.97
297,-1.14,0.81,-1.22,0.73,-0.73,-1.31,-1.87,-1.95,-1.95
300,-1.34,0.60,-1.35,0.59,-0.59,-1.29,-1.93,-1.94,-1.94
303,-1.37,0.55,-1.48,0.44,-0.44,-1.27,-1.81,-1.92,-1.92
306,-1.60,0.31,-1.60,0.30,-0.30,-1.25,-1.90,-1.91,-1.91
309,-1.66,0.23,-1.70,0.19,-0.19,-1.23,-1.85,-1.89,-1.89
312,-1.82,0.05,-1.76,0.11,-0.11,-1.21,-1.93,-1.87,-1.87
316,-1.82,0.03,-1.77,0.08,-0.08,-1.19,-1.90,-1.85,-1.85
319,-1.82,0.01,-1.72,0.11,-0.11,-1.17,-1.93,-1.83,-1.83
322,-1.81,0.00,-1.60,0.21,-0.21,-1.15,-2.02,-1.81,-1.81
325,-1.57,0.22,-1.42,0.37,-0.37,-1.14,-1.94,-1.79,-1.79
328,-1.30,0.47,-1.19,0.58,-0.58,-1.12,-1.88,-1.77,-1.77
332,-0.89,0.86,-0.94,0.81,-0.81,-1.10,-1.70,-1.75,-1.75
335,-0.58,1.15,-0.68,1.05,-1.05,-1.08,-1.63,-1.73,-1.73
338,-0.31,1.40,-0.45,1.26,-1.26,-1.07,-1.57,-1.71,-1.71
342,0.00,1.69,-0.25,1.44,-1.44,-1.05,-1.44,-1.69,-1.69
345,0.00,1.67,-0.10,1.57,-1.57,-1.03,-1.57,-1.67,-1.67
349,0.00,1.65,-0.00,1.65,-1.65,-1.01,-1.65,-1.65,-1.65
352,0.00,1.63,0.05,1.68,-1.68,-1.00,-1.68,-1.63,-1.63
356,0.00,1.61,0.07,1.68,-1.68,-0.98,-1.68,-1.61,-1.61
359,0.00,1.59,0.06,1.66,-1.66,-0.97,-1.66,-1.59,-1.59
363,0.00,1.58,0.05,1.62,-1.62,-0.95,-1.62,-1.58,-1.58
366,0.00,1.56,0.02,1.58,-1.58,-0.94,-1.58,-1.56,-1.56
370,0.00,1.54,-0.01,1.53,-1.53,-0.92,-1.53,-1.54,-1.54
374,0.00,1.53,-0.04,1.48,-1.48,-0.91,-1.48,-1.53,-1.53
377,0.00,1.51,-0.08,1.44,-1.44,-0.90,-1.44,-1.51,-1.51
381,-0.11,1.39,-0.11,1.39,-1.39,-0.88,-1.50,-1.50,-1.50
385,-0.23,1.26,-0.14,1.35,-1.35,-0.87,-1.58,-1.49,-1.49
389,-0.23,1.25,-0.17,1.30,-1.30,-0.85,-1.53,-1.48,-1.48
393,-0.23,1.23,-0.20,1.26,-1.26,-0.84,-1.49,-1.46,-1.46
397,-0.23,1.22,-0.23,1.22,-1.22,-0.83,-1.45,-1.45,-1.45
401,-0.23,1.21,-0.26,1.18,-1.18,-0.81,-1.41,-1.44,-1.44
405,-0.23,1.20,-0.30,1.14,-1.14,-0.80,-1.37,-1.43,-1.43
409,-0.23,1.19,-0.33,1.09,-1.09,-0.79,-1.32,-1.42,-1.42
413,-0.41,1.00,-0.36,1.05,-1.05,-0.78,-1.46,-1.41,-1.41
417,-0.46,0.94,-0.39,1.01,-1.01,-0.77,-1.47,-1.40,-1.40
421,-0.46,0.94,-0.42,0.97,-0.97,-0.76,-1.43,-1.40,-1.40
425,-0.46,0.93,-0.44,0.95,-0.95,-0.75,-1.41,-1.39,-1.39
430,-0.46,0.92,-0.45,0.93,-0.93,-0.73,-1.39,-1.38,-1.38
434,-0.46,0.91,-0.46,0.91,-0.91,-0.72,-1.37,-1.37,-1.37
438,-0.46,0.90,-0.46,0.90,-0.90,-0.72,-1.36,-1.36,-1.36
443,-0.46,0.89,-0.46,0.89,-0.89,-0.70,-1.35,-1.35,-1.35
447,-0.46,0.88,-0.47,0.87,-0.87,-0.70,-1.33,-1.34,-1.34
451,-0.46,0.87,-0.48,0.85,-0.85,-0.69,-1.31,-1.33,-1.33
456,-0.46,0.86,-0.51,0.82,-0.82,-0.68,-1.28,-1.32,-1.32
460,-0.46,0.85,-0.54,0.78,-0.78,-0.67,-1.24,-1.31,-1.31
465,-0.57,0.73,-0.57,0.73,-0.73,-0.66,-1.30,-1.30,-1.30
470,-0.68,0.61,-0.60,0.69,-0.69,-0.65,-1.37,-1.29,-1.29
474,-0.68,0.60,-0.63,0.65,-0.65,-0.64,-1.33,-1.28,-1.28
479,-0.68,0.59,-0.66,0.61,-0.61,-0.63,-1.29,-1.27,-1.27
484,-0.68,0.57,-0.68,0.58,-0.58,-0.63,-1.26,-1.25,-1.25
489,-0.68,0.56,-0.69,0.55,-0.55,-0.62,-1.23,-1.24,-1.24
494,-0.68,0.54,-0.69,0.53,-0.53,-0.61,-1.21,-1.22,-1.22
499,-0.68,0.53,-0.69,0.52,-0.52,-0.60,-1.20,-1.21,-1.21
504,-0.68,0.51,-0.69,0.50,-0.50,-0.60,-1.18,-1.19,-1.19
509,-0.68,0.49,-0.68,0.49,-0.49,-0.59,-1.17,-1.17,-1.17
514,-0.68,0.47,-0.68,0.47,-0.47,-0.58,-1.15,-1.15,-1.15
519,-0.68,0.45,-0.68,0.45,-0.45,-0.58,-1.13,-1.13,-1.13
524,-0.68,0.43,-0.68,0.43,-0.43,-0.57,-1.11,-1.11,-1.11
529,-0.68,0.41,-0.68,0.41,-0.41,-0.57,-1.09,-1.09,-1.09
535,-0.68,0.39,-0.68,0.39,-0.39,-0.56,-1.07,-1.07,-1.07
540,-0.68,0.37,-0.68,0.37,-0.37,-0.56,-1.05,-1.05,-1.05
545,-0.68,0.34,-0.68,0.34,-0.34,-0.55,-1.02,-1.02,-1.02
551,-0.68,0.32,-0.68,0.32,-0.32,-0.55,-1.00,-1.00,-1.00
556,-0.68,0.30,-0.68,0.30,-0.30,-0.54,-0.98,-0.98,-0.98
562,-0.68,0.27,-0.68,0.27,-0.27,-0.54,-0.95,-0.95,-0.95
568,-0.68,0.25,-0.68,0.25,-0.25,-0.53,-0.93,-0.93,-0.93
573,-0.68,0.22,-0.68,0.22,-0.22,-0.53,-0.90,-0.90,-0.90
579,-0.68,0.20,-0.68,0.20,-0.20,-0.52,-0.88,-0.88,-0.88
585,-0.68,0.17,-0.68,0.17,-0.17,-0.52,-0.85,-0.85,-0.85
591,-0.68,0.15,-0.68,0.15,-0.15,-0.52,-0.83,-0.83,-0.83
596,-0.68,0.12,-0.68,0.12,-0.12,-0.51,-0.80,-0.80,-0.80
602,-0.68,0.10,-0.68,0.10,-0.10,-0.51,-0.78,-0.78,-0.78
608,-0.68,0.08,-0.68,0.08,-0.08,-0.51,-0.76,-0.76,-0.76
615,-0.68,0.06,-0.68,0.06,-0.06,-0.51,-0.74,-0.74,-0.74
621,-0.68,0.03,-0.68,0.03,-0.03,-0.50,-0.71,-0.71,-0.71
627,-0.68,0.01,-0.68,0.01,-0.01,-0.50,-0.69,-0.69,-0.69
633,-0.68,-0.01,-0.68,-0.01,0.01,-0.50,-0.67,-0.67,-0.67
639,-0.68,-0.03,-0.68,-0.03,0.03,-0.50,-0.65,-0.65,-0.65
646,-0.68,-0.05,-0.68,-0.05,0.05,-0.50,-0.63,-0.63,-0.63
652,-0.68,-0.07,-0.68,-0.07,0.07,-0.50,-0.61,-0.61,-0.61
659,-0.68,-0.09,-0.68,-0.09,0.09,-0.50,-0.59,-0.59,-0.59
665,-0.68,-0.11,-0.68,-0.11,0.11,-0.49,-0.57,-0.57,-0.57
672,-0.68,-0.13,-0.68,-0.13,0.13,-0.49,-0.55,-0.55,-0.55
679,-0.68,-0.15,-0.69,-0.16,0.16,-0.49,-0.52,-0.53,-0.53
686,-0.68,-0.17,-0.69,-0.18,0.18,-0.49,-0.50,-0.51,-0.51
692,-0.68,-0.19,-0.69,-0.20,0.20,-0.49,-0.48,-0.49,-0.49
699,-0.68,-0.21,-0.69,-0.21,0.21,-0.49,-0.47,-0.47,-0.47
706,-0.68,-0.23,-0.68,-0.22,0.22,-0.50,-0.46,-0.45,-0.45
713,-0.68,-0.25,-0.66,-0.23,0.23,-0.50,-0.45,-0.43,-0.43
721,-0.68,-0.27,-0.64,-0.22,0.22,-0.50,-0.46,-0.41,-0.41
728,-0.68,-0.29,-0.61,-0.21,0.21,-0.50,-0.47,-0.39,-0.39
735,-0.59,-0.22,-0.57,-0.20,0.20,-0.50,-0.39,-0.37,-0.37
742,-0.46,-0.11,-0.54,-0.19,0.19,-0.50,-0.27,-0.35,-0.35
750,-0.46,-0.13,-0.51,-0.18,0.18,-0.51,-0.28,-0.33,-0.33
757,-0.46,-0.15,-0.48,-0.17,0.17,-0.51,-0.29,-0.31,-0.31
765,-0.46,-0.17,-0.46,-0.17,0.17,-0.51,-0.29,-0.29,-0.29
773,-0.46,-0.19,-0.45,-0.18,0.18,-0.52,-0.28,-0.27,-0.27
780,-0.46,-0.20,-0.45,-0.19,0.19,-0.52,-0.27,-0.26,-0.26
788,-0.46,-0.22,-0.45,-0.21,0.21,-0.52,-0.25,-0.24,-0.24
796,-0.46,-0.24,-0.46,-0.23,0.23,-0.53,-0.23,-0.22,-0.22
804,-0.46,-0.25,-0.46,-0.26,0.26,-0.53,-0.20,-0.21,-0.21
812,-0.46,-0.27,-0.47,-0.28,0.28,-0.54,-0.18,-0.19,-0.19
820,-0.46,-0.28,-0.47,-0.29,0.29,-0.54,-0.17,-0.18,-0.18
828,-0.46,-0.29,-0.47,-0.30,0.30,-0.55,-0.16,-0.17,-0.17
837,-0.46,-0.30,-0.46,-0.31,0.31,-0.55,-0.15,-0.16,-0.16
845,-0.46,-0.32,-0.45,-0.30,0.30,-0.56,-0.16,-0.15,-0.14
853,-0.46,-0.32,-0.43,-0.29,0.29,-0.57,-0.17,-0.14,-0.14
862,-0.46,-0.33,-0.40,-0.27,0.27,-0.57,-0.19,-0.13,-0.13
871,-0.46,-0.34,-0.36,-0.24,0.24,-0.58,-0.22,-0.12,-0.12
879,-0.23,-0.12,-0.33,-0.21,0.21,-0.59,-0.02,-0.11,-0.11
888,-0.23,-0.12,-0.30,-0.19,0.19,-0.60,-0.04,-0.11,-0.11
897,-0.23,-0.13,-0.27,-0.17,0.17,-0.61,-0.06,-0.10,-0.10
906,-0.23,-0.13,-0.25,-0.15,0.15,-0.62,-0.08,-0.10,-0.10
915,-0.23,-0.14,-0.24,-0.15,0.15,-0.63,-0.08,-0.09,-0.09
924,-0.23,-0.15,-0.23,-0.14,0.14,-0.64,-0.09,-0.08,-0.08
933,-0.23,-0.15,-0.22,-0.14,0.14,-0.65,-0.09,-0.08,-0.08
943,-0.23,-0.16,-0.20,-0.13,0.13,-0.66,-0.10,-0.07,-0.07
952,-0.23,-0.17,-0.18,-0.12,0.12,-0.67,-0.11,-0.06,-0.06
962,-0.23,-0.17,-0.16,-0.10,0.10,-0.68,-0.13,-0.06,-0.06
971,-0.10,-0.05,-0.12,-0.07,0.07,-0.69,-0.03,-0.05,-0.05
981,0.00,0.04,-0.08,-0.05,0.05,-0.71,0.05,-0.04,-0.04
991,0.00,0.03,-0.04,-0.02,0.02,-0.72,0.02,-0.03,-0.03
1001,0.00,0.01,-0.00,0.01,-0.01,-0.74,-0.01,-0.01,-0.01
1011,0.00,0.00,0.04,0.04,-0.04,-0.76,-0.04,-0.00,-0.00
1021,0.00,-0.01,0.08,0.06,-0.06,-0.77,-0.06,0.01,0.01
1031,0.11,0.08,0.11,0.08,-0.08,-0.79,0.03,0.03,0.03
1041,0.23,0.18,0.15,0.10,-0.10,-0.81,0.13,0.05,0.05
1052,0.23,0.17,0.19,0.12,-0.12,-0.83,0.11,0.07,0.06
1062,0.23,0.15,0.22,0.14,-0.14,-0.85,0.09,0.08,0.08
1073,0.23,0.13,0.26,0.15,-0.15,-0.87,0.08,0.11,0.10
1084,0.23,0.10,0.30,0.17,-0.17,-0.89,0.06,0.13,0.13
1094,0.30,0.15,0.34,0.19,-0.19,-0.91,0.11,0.15,0.15
1105,0.46,0.29,0.39,0.22,-0.22,-0.93,0.24,0.17,0.17
1116,0.46,0.27,0.44,0.24,-0.24,-0.96,0.22,0.19,0.19
1128,0.46,0.24,0.49,0.27,-0.27,-0.99,0.19,0.22,0.22
1139,0.46,0.22,0.54,0.30,-0.30,-1.02,0.16,0.24,0.24
1150,0.68,0.42,0.59,0.32,-0.32,-1.04,0.36,0.26,0.26
1162,0.68,0.39,0.63,0.35,-0.35,-1.08,0.33,0.28,0.29
1173,0.68,0.37,0.68,0.37,-0.37,-1.11,0.31,0.31,0.31
1185,0.68,0.35,0.72,0.40,-0.40,-1.14,0.28,0.33,0.33
1197,0.68,0.34,0.77,0.42,-0.42,-1.18,0.26,0.34,0.34
1209,0.88,0.52,0.81,0.45,-0.45,-1.21,0.43,0.36,0.36
1221,0.91,0.54,0.86,0.49,-0.49,-1.25,0.42,0.37,0.37
1233,0.91,0.52,0.92,0.53,-0.53,-1.29,0.38,0.39,0.39
1246,0.91,0.51,0.98,0.58,-0.58,-1.34,0.33,0.40,0.40
1258,1.02,0.62,1.04,0.64,-0.64,-1.38,0.38,0.40,0.40
1271,1.14,0.73,1.11,0.70,-0.70,-1.43,0.44,0.41,0.41
1283,1.14,0.73,1.18,0.77,-0.77,-1.47,0.37,0.41,0.41
1296,1.35,0.94,1.26,0.85,-0.85,-1.53,0.50,0.41,0.41
1309,1.37,0.96,1.33,0.93,-0.93,-1.58,0.44,0.41,0.41
1322,1.37,0.97,1.41,1.01,-1.01,-1.64,0.36,0.40,0.40
1335,1.44,1.05,1.49,1.10,-1.10,-1.70,0.34,0.39,0.39
1349,1.60,1.22,1.58,1.20,-1.20,-1.77,0.40,0.38,0.38
1362,1.60,1.23,1.67,1.29,-1.29,-1.84,0.31,0.37,0.37
1376,1.78,1.42,1.76,1.39,-1.39,-1.91,0.39,0.36,0.36
1390,1.82,1.47,1.84,1.50,-1.50,-1.99,0.32,0.35,0.35
1404,2.05,1.72,1.93,1.59,-1.59,-2.07,0.46,0.33,0.33
1418,2.05,1.73,2.01,1.69,-1.69,-2.15,0.36,0.32,0.32
1432,2.05,1.74,2.09,1.79,-1.79,-2.24,0.26,0.31,0.31
1446,2.18,1.89,2.18,1.88,-1.88,-2.34,0.30,0.29,0.29
1461,2.28,2.00,2.27,1.98,-1.98,-2.44,0.30,0.28,0.28
1475,2.28,2.01,2.36,2.09,-2.09,-2.54,0.19,0.27,0.27
1490,2.51,2.24,2.47,2.20,-2.20,-2.66,0.31,0.27,0.27
1505,2.55,2.29,2.59,2.32,-2.32,-2.78,0.23,0.26,0.26
1520,2.74,2.48,2.72,2.46,-2.46,-2.91,0.28,0.26,0.26
1535,2.84,2.58,2.86,2.60,-2.60,-3.04,0.24,0.26,0.26
1550,3.09,2.82,3.02,2.75,-2.75,-3.19,0.34,0.27,0.27
1566,3.19,2.91,3.19,2.91,-2.91,-3.34,0.28,0.28,0.28
1582,3.41,3.11,3.38,3.08,-3.08,-3.51,0.33,0.30,0.30
1597,3.65,3.33,3.59,3.27,-3.27,-3.67,0.38,0.32,0.32
1613,3.87,3.53,3.84,3.49,-3.49,-3.86,0.38,0.35,0.34
1629,3.98,3.60,4.12,3.75,-3.75,-4.05,0.23,0.38,0.38
1646,4.39,3.98,4.46,4.04,-4.04,-4.27,0.35,0.42,0.41
1662,4.85,4.39,4.84,4.38,-4.38,-4.48,0.47,0.46,0.46
1679,5.29,4.78,5.28,4.77,-4.77,-4.72,0.52,0.51,0.51
1696,5.80,5.24,5.78,5.22,-5.22,-4.97,0.58,0.56,0.56
