frequency,raw,error,smoothed,error_smoothed,equalization,parametric_eq,equalized_raw,equalized_smoothed,target
20.00,0.72,-4.38,0.71,-4.38,4.38,0.67,5.10,5.09,5.10
20.20,0.80,-4.30,0.79,-4.30,4.30,0.69,5.10,5.09,5.10
20.40,0.87,-4.23,0.87,-4.23,4.23,0.72,5.10,5.09,5.10
20.61,0.95,-4.15,0.95,-4.15,4.15,0.74,5.10,5.09,5.10
20.81,1.02,-4.07,1.03,-4.07,4.07,0.76,5.09,5.09,5.10
21.02,1.10,-3.99,1.10,-3.99,3.99,0.79,5.09,5.09,5.10
21.23,1.17,-3.92,1.18,-3.91,3.91,0.81,5.08,5.09,5.10
21.44,1.25,-3.84,1.26,-3.83,3.83,0.84,5.08,5.09,5.09
21.66,1.32,-3.77,1.34,-3.75,3.75,0.86,5.07,5.09,5.09
21.87,1.40,-3.69,1.42,-3.67,3.67,0.89,5.07,5.09,5.09
22.09,1.48,-3.61,1.50,-3.59,3.59,0.92,5.07,5.09,5.09
22.31,1.57,-3.52,1.58,-3.51,3.51,0.95,5.08,5.09,5.09
22.54,1.66,-3.43,1.65,-3.43,3.43,0.98,5.09,5.08,5.09
22.76,1.75,-3.34,1.73,-3.35,3.35,1.01,5.10,5.08,5.09
22.99,1.84,-3.25,1.81,-3.27,3.27,1.04,5.11,5.08,5.09
23.22,1.91,-3.17,1.89,-3.19,3.19,1.07,5.10,5.08,5.09
23.45,1.98,-3.10,1.97,-3.10,3.10,1.10,5.08,5.08,5.08
23.69,2.05,-3.03,2.05,-3.02,3.02,1.14,5.07,5.07,5.08
23.92,2.12,-2.96,2.14,-2.94,2.94,1.17,5.06,5.07,5.08
24.16,2.20,-2.88,2.22,-2.85,2.85,1.20,5.06,5.08,5.08
24.40,2.28,-2.80,2.30,-2.77,2.77,1.24,5.05,5.08,5.08
24.65,2.36,-2.72,2.38,-2.69,2.69,1.27,5.05,5.07,5.08
24.89,2.44,-2.63,2.46,-2.61,2.61,1.31,5.05,5.07,5.08
25.14,2.53,-2.54,2.54,-2.53,2.53,1.34,5.06,5.07,5.07
25.39,2.63,-2.44,2.62,-2.45,2.45,1.37,5.08,5.06,5.07
25.65,2.72,-2.35,2.69,-2.37,2.37,1.41,5.09,5.06,5.07
25.91,2.82,-2.25,2.77,-2.29,2.29,1.44,5.11,5.06,5.07
26.16,2.88,-2.19,2.85,-2.21,2.21,1.47,5.10,5.06,5.07
26.43,2.94,-2.13,2.92,-2.14,2.14,1.51,5.08,5.06,5.07
26.69,2.99,-2.07,3.00,-2.06,2.06,1.54,5.05,5.06,5.06
26.96,3.04,-2.02,3.07,-1.98,1.98,1.57,5.02,5.06,5.06
27.23,3.12,-1.94,3.15,-1.91,1.91,1.59,5.03,5.05,5.06
27.50,3.20,-1.86,3.22,-1.83,1.83,1.62,5.03,5.05,5.06
27.77,3.28,-1.77,3.30,-1.75,1.75,1.64,5.03,5.05,5.06
28.05,3.37,-1.68,3.38,-1.67,1.67,1.67,5.04,5.05,5.06
28.33,3.45,-1.60,3.45,-1.59,1.59,1.68,5.04,5.04,5.05
28.62,3.53,-1.52,3.53,-1.51,1.51,1.70,5.04,5.04,5.05
28.90,3.61,-1.44,3.61,-1.43,1.43,1.71,5.04,5.04,5.05
29.19,3.69,-1.36,3.69,-1.35,1.35,1.72,5.04,5.04,5.05
29.48,3.78,-1.26,3.77,-1.27,1.27,1.73,5.05,5.04,5.04
29.78,3.86,-1.18,3.85,-1.19,1.19,1.73,5.05,5.04,5.04
30.08,3.94,-1.10,3.93,-1.11,1.11,1.73,5.05,5.04,5.04
30.38,4.01,-1.03,4.00,-1.03,1.03,1.72,5.04,5.04,5.04
30.68,4.08,-0.95,4.08,-0.96,0.96,1.71,5.04,5.03,5.03
30.99,4.16,-0.87,4.15,-0.88,0.88,1.70,5.04,5.03,5.03
31.30,4.22,-0.81,4.22,-0.81,0.81,1.68,5.03,5.03,5.03
31.61,4.28,-0.75,4.28,-0.74,0.74,1.66,5.02,5.02,5.03
31.93,4.35,-0.67,4.35,-0.67,0.67,1.63,5.02,5.02,5.02
32.24,4.41,-0.61,4.42,-0.60,0.60,1.60,5.01,5.02,5.02
32.57,4.47,-0.55,4.49,-0.53,0.53,1.56,5.00,5.02,5.02
32.89,4.54,-0.47,4.55,-0.46,0.46,1.52,5.00,5.01,5.01
33.22,4.60,-0.41,4.61,-0.39,0.39,1.48,5.00,5.01,5.01
33.55,4.67,-0.34,4.67,-0.33,0.33,1.43,5.00,5.00,5.01
33.89,4.74,-0.26,4.74,-0.26,0.26,1.38,5.01,5.00,5.00
34.23,4.81,-0.19,4.80,-0.20,0.20,1.32,5.01,5.00,5.00
34.57,4.87,-0.13,4.86,-0.14,0.14,1.26,5.01,4.99,5.00
34.92,4.94,-0.05,4.92,-0.07,0.07,1.20,5.01,4.99,4.99
35.27,4.99,0.00,4.98,-0.01,0.01,1.13,5.00,4.99,4.99
35.62,5.03,0.05,5.04,0.05,-0.05,1.07,4.98,4.99,4.99
35.97,5.07,0.09,5.09,0.11,-0.11,1.00,4.96,4.98,4.98
36.33,5.13,0.15,5.15,0.18,-0.18,0.93,4.96,4.97,4.98
36.70,5.20,0.23,5.20,0.24,-0.24,0.85,4.96,4.96,4.97
37.06,5.27,0.30,5.26,0.30,-0.30,0.78,4.97,4.96,4.97
37.43,5.33,0.37,5.33,0.37,-0.37,0.70,4.96,4.96,4.96
37.81,5.38,0.42,5.39,0.43,-0.43,0.62,4.95,4.96,4.96
38.19,5.44,0.49,5.45,0.50,-0.50,0.54,4.94,4.95,4.95
38.57,5.50,0.55,5.51,0.57,-0.57,0.46,4.93,4.94,4.95
38.95,5.55,0.61,5.58,0.64,-0.64,0.38,4.92,4.94,4.94
39.34,5.62,0.68,5.64,0.71,-0.71,0.30,4.92,4.93,4.94
39.74,5.69,0.76,5.70,0.77,-0.77,0.21,4.92,4.93,4.93
40.14,5.76,0.83,5.77,0.84,-0.84,0.13,4.92,4.93,4.93
40.54,5.86,0.94,5.82,0.91,-0.91,0.04,4.95,4.92,4.92
40.94,5.96,1.05,5.88,0.97,-0.97,-0.04,4.99,4.91,4.92
41.35,5.97,1.06,5.94,1.04,-1.04,-0.13,4.94,4.90,4.91
41.76,5.97,1.07,5.99,1.10,-1.10,-0.21,4.87,4.90,4.90
42.18,6.01,1.11,6.05,1.16,-1.16,-0.30,4.85,4.89,4.90
42.60,6.09,1.20,6.11,1.22,-1.22,-0.39,4.87,4.89,4.89
43.03,6.17,1.29,6.16,1.27,-1.27,-0.47,4.90,4.89,4.88
43.46,6.20,1.32,6.21,1.33,-1.33,-0.56,4.87,4.88,4.88
43.90,6.23,1.36,6.25,1.38,-1.38,-0.65,4.85,4.87,4.87
44.33,6.28,1.42,6.29,1.44,-1.44,-0.74,4.84,4.86,4.86
44.78,6.34,1.49,6.34,1.49,-1.49,-0.83,4.85,4.85,4.85
45.23,6.39,1.54,6.38,1.54,-1.54,-0.92,4.85,4.84,4.85
45.68,6.44,1.60,6.42,1.59,-1.59,-1.01,4.85,4.83,4.84
46.13,6.48,1.65,6.46,1.64,-1.64,-1.10,4.84,4.82,4.83
46.60,6.53,1.71,6.51,1.70,-1.70,-1.19,4.83,4.82,4.82
47.06,6.57,1.76,6.56,1.75,-1.75,-1.28,4.82,4.81,4.81
47.53,6.57,1.77,6.60,1.80,-1.80,-1.37,4.77,4.80,4.80
48.01,6.57,1.78,6.64,1.85,-1.85,-1.47,4.72,4.79,4.79
48.49,6.67,1.89,6.68,1.91,-1.91,-1.56,4.77,4.78,4.79
48.97,6.76,1.99,6.73,1.96,-1.96,-1.65,4.80,4.77,4.78
49.46,6.77,2.01,6.77,2.01,-2.01,-1.74,4.76,4.76,4.77
49.96,6.77,2.02,6.81,2.06,-2.06,-1.84,4.71,4.75,4.76
50.46,6.86,2.12,6.85,2.11,-2.11,-1.93,4.75,4.74,4.74
50.96,6.96,2.23,6.90,2.16,-2.16,-2.02,4.80,4.73,4.73
51.47,6.97,2.25,6.94,2.21,-2.21,-2.11,4.76,4.72,4.72
51.99,6.97,2.26,6.97,2.26,-2.26,-2.20,4.71,4.71,4.71
52.51,6.97,2.27,7.00,2.31,-2.31,-2.29,4.66,4.70,4.70
53.03,6.98,2.29,7.04,2.35,-2.35,-2.38,4.63,4.69,4.69
53.56,7.08,2.41,7.08,2.40,-2.40,-2.47,4.68,4.68,4.67
54.10,7.16,2.50,7.10,2.44,-2.44,-2.56,4.72,4.66,4.66
54.64,7.17,2.52,7.13,2.49,-2.49,-2.65,4.68,4.64,4.65
55.18,7.17,2.54,7.16,2.53,-2.53,-2.73,4.64,4.63,4.63
55.74,7.17,2.55,7.19,2.57,-2.57,-2.81,4.60,4.61,4.62
56.29,7.17,2.56,7.21,2.62,-2.62,-2.89,4.55,4.59,4.61
56.86,7.18,2.59,7.24,2.67,-2.67,-2.97,4.51,4.58,4.59
57.42,7.26,2.68,7.28,2.71,-2.71,-3.04,4.55,4.57,4.58
58.00,7.37,2.81,7.32,2.76,-2.76,-3.11,4.61,4.56,4.56
58.58,7.37,2.82,7.35,2.81,-2.81,-3.18,4.56,4.54,4.55
59.16,7.37,2.84,7.39,2.86,-2.86,-3.25,4.51,4.53,4.53
59.76,7.37,2.86,7.41,2.91,-2.91,-3.31,4.46,4.51,4.51
60.35,7.41,2.91,7.44,2.96,-2.96,-3.37,4.46,4.49,4.50
60.96,7.48,3.00,7.48,3.00,-3.00,-3.42,4.48,4.47,4.48
61.57,7.54,3.08,7.51,3.05,-3.05,-3.47,4.49,4.46,4.46
62.18,7.58,3.14,7.53,3.09,-3.09,-3.51,4.49,4.44,4.44
62.80,7.58,3.16,7.55,3.13,-3.13,-3.55,4.46,4.43,4.43
63.43,7.58,3.17,7.57,3.16,-3.16,-3.59,4.42,4.40,4.41
64.07,7.58,3.19,7.57,3.19,-3.19,-3.62,4.39,4.38,4.39
64.71,7.58,3.21,7.58,3.22,-3.22,-3.65,4.36,4.36,4.37
65.35,7.58,3.23,7.59,3.25,-3.25,-3.68,4.33,4.34,4.35
66.01,7.58,3.25,7.60,3.28,-3.28,-3.70,4.30,4.32,4.33
66.67,7.58,3.28,7.60,3.30,-3.30,-3.72,4.28,4.30,4.31
67.33,7.58,3.30,7.60,3.32,-3.32,-3.73,4.26,4.28,4.28
68.01,7.58,3.32,7.59,3.34,-3.34,-3.75,4.24,4.26,4.26
68.69,7.58,3.34,7.59,3.36,-3.36,-3.76,4.23,4.23,4.24
69.37,7.58,3.36,7.58,3.37,-3.37,-3.77,4.21,4.21,4.22
70.07,7.58,3.39,7.57,3.39,-3.39,-3.77,4.20,4.19,4.19
70.77,7.58,3.41,7.57,3.40,-3.40,-3.78,4.18,4.17,4.17
71.48,7.58,3.43,7.56,3.41,-3.41,-3.78,4.17,4.14,4.15
72.19,7.58,3.46,7.55,3.43,-3.43,-3.79,4.15,4.12,4.12
72.91,7.56,3.46,7.54,3.44,-3.44,-3.79,4.12,4.10,4.10
73.64,7.51,3.44,7.52,3.45,-3.45,-3.79,4.06,4.07,4.07
74.38,7.48,3.43,7.51,3.46,-3.46,-3.80,4.02,4.05,4.05
75.12,7.48,3.46,7.50,3.48,-3.48,-3.80,4.00,4.02,4.02
75.87,7.48,3.49,7.49,3.49,-3.49,-3.80,3.99,3.99,3.99
76.63,7.48,3.51,7.48,3.51,-3.51,-3.81,3.97,3.96,3.97
77.40,7.48,3.54,7.47,3.53,-3.53,-3.82,3.95,3.93,3.94
78.17,7.47,3.56,7.46,3.56,-3.56,-3.83,3.91,3.90,3.91
78.95,7.45,3.57,7.46,3.59,-3.59,-3.84,3.86,3.87,3.88
79.74,7.46,3.61,7.47,3.62,-3.62,-3.85,3.84,3.85,3.86
80.54,7.47,3.64,7.48,3.66,-3.66,-3.87,3.81,3.82,3.83
81.35,7.48,3.68,7.50,3.71,-3.71,-3.88,3.77,3.79,3.80
82.16,7.49,3.72,7.52,3.76,-3.76,-3.90,3.73,3.76,3.77
82.98,7.57,3.83,7.55,3.82,-3.82,-3.92,3.75,3.74,3.74
83.81,7.58,3.87,7.58,3.88,-3.88,-3.95,3.70,3.70,3.71
84.65,7.58,3.90,7.61,3.94,-3.94,-3.98,3.64,3.67,3.68
85.50,7.63,3.98,7.65,4.01,-4.01,-4.01,3.62,3.64,3.65
86.35,7.72,4.11,7.70,4.09,-4.09,-4.04,3.63,3.61,3.62
87.22,7.78,4.20,7.74,4.16,-4.16,-4.08,3.62,3.58,3.58
88.09,7.79,4.24,7.79,4.24,-4.24,-4.12,3.55,3.55,3.55
88.97,7.84,4.32,7.84,4.33,-4.33,-4.16,3.51,3.52,3.52
89.86,7.89,4.40,7.90,4.41,-4.41,-4.21,3.48,3.49,3.49
90.76,7.96,4.50,7.95,4.50,-4.50,-4.26,3.47,3.46,3.46
91.66,7.99,4.57,8.01,4.58,-4.58,-4.31,3.41,3.43,3.42
92.58,8.01,4.62,8.06,4.66,-4.66,-4.36,3.35,3.39,3.39
93.51,8.11,4.75,8.11,4.75,-4.75,-4.42,3.36,3.36,3.36
94.44,8.19,4.87,8.15,4.83,-4.83,-4.48,3.36,3.32,3.33
95.39,8.20,4.91,8.20,4.91,-4.91,-4.55,3.29,3.29,3.29
96.34,8.24,4.98,8.24,4.99,-4.99,-4.61,3.25,3.26,3.26
97.30,8.30,5.07,8.29,5.06,-5.06,-4.68,3.24,3.23,3.23
98.28,8.36,5.17,8.33,5.13,-5.13,-4.75,3.23,3.20,3.19
99.26,8.36,5.20,8.37,5.20,-5.20,-4.83,3.16,3.17,3.16
100.25,8.39,5.26,8.39,5.27,-5.27,-4.90,3.12,3.13,3.13
101.25,8.42,5.33,8.42,5.33,-5.33,-4.98,3.09,3.09,3.09
102.27,8.42,5.36,8.44,5.38,-5.38,-5.06,3.04,3.06,3.06
103.29,8.46,5.43,8.46,5.44,-5.44,-5.14,3.02,3.02,3.03
104.32,8.51,5.52,8.48,5.49,-5.49,-5.23,3.02,2.99,3.00
105.37,8.55,5.59,8.49,5.54,-5.54,-5.31,3.01,2.95,2.96
106.42,8.53,5.60,8.51,5.58,-5.58,-5.39,2.95,2.93,2.93
107.48,8.50,5.61,8.52,5.63,-5.63,-5.48,2.87,2.90,2.89
108.56,8.48,5.62,8.53,5.67,-5.67,-5.56,2.81,2.86,2.86
109.64,8.46,5.63,8.54,5.71,-5.71,-5.64,2.75,2.83,2.83
110.74,8.51,5.71,8.54,5.76,-5.76,-5.73,2.76,2.79,2.80
111.85,8.61,5.85,8.55,5.80,-5.80,-5.81,2.81,2.75,2.77
112.97,8.61,5.88,8.56,5.84,-5.84,-5.88,2.77,2.72,2.74
114.10,8.61,5.91,8.58,5.88,-5.88,-5.96,2.73,2.69,2.71
115.24,8.61,5.93,8.60,5.93,-5.93,-6.03,2.68,2.66,2.68
116.39,8.61,5.96,8.62,5.98,-5.98,-6.10,2.63,2.63,2.65
117.55,8.61,5.98,8.64,6.03,-6.03,-6.17,2.58,2.61,2.63
118.73,8.62,6.02,8.67,6.08,-6.08,-6.23,2.54,2.59,2.60
119.92,8.62,6.04,8.71,6.13,-6.13,-6.28,2.49,2.57,2.58
121.12,8.64,6.08,8.74,6.18,-6.18,-6.34,2.46,2.55,2.56
122.33,8.77,6.23,8.76,6.23,-6.23,-6.38,2.54,2.53,2.54
123.55,8.85,6.33,8.78,6.28,-6.28,-6.42,2.58,2.51,2.52
124.79,8.85,6.35,8.80,6.31,-6.31,-6.46,2.54,2.49,2.50
126.03,8.86,6.38,8.82,6.35,-6.35,-6.49,2.51,2.47,2.48
127.29,8.87,6.41,8.84,6.38,-6.38,-6.52,2.49,2.46,2.46
128.57,8.87,6.43,8.85,6.40,-6.40,-6.54,2.47,2.44,2.44
129.85,8.88,6.46,8.85,6.42,-6.42,-6.55,2.46,2.43,2.42
131.15,8.88,6.48,8.85,6.44,-6.44,-6.56,2.44,2.41,2.41
132.46,8.84,6.46,8.83,6.45,-6.45,-6.57,2.39,2.39,2.39
133.79,8.80,6.44,8.82,6.46,-6.46,-6.57,2.34,2.36,2.37
135.12,8.79,6.45,8.80,6.47,-6.47,-6.57,2.33,2.33,2.35
136.48,8.80,6.48,8.78,6.48,-6.48,-6.56,2.33,2.30,2.33
137.84,8.75,6.45,8.76,6.49,-6.49,-6.55,2.26,2.28,2.31
139.22,8.72,6.44,8.76,6.50,-6.50,-6.54,2.22,2.26,2.28
140.61,8.71,6.45,8.76,6.52,-6.52,-6.53,2.19,2.23,2.26
142.02,8.71,6.47,8.76,6.55,-6.55,-6.52,2.16,2.21,2.24
143.44,8.71,6.49,8.77,6.59,-6.59,-6.51,2.13,2.18,2.22
144.87,8.71,6.51,8.79,6.63,-6.63,-6.49,2.09,2.17,2.20
146.32,8.78,6.60,8.82,6.66,-6.66,-6.48,2.12,2.15,2.18
147.78,8.81,6.65,8.85,6.70,-6.70,-6.47,2.12,2.15,2.16
149.26,8.87,6.73,8.87,6.72,-6.72,-6.46,2.15,2.15,2.14
150.75,8.91,6.79,8.88,6.74,-6.74,-6.45,2.17,2.14,2.12
152.26,8.91,6.80,8.87,6.75,-6.75,-6.44,2.16,2.12,2.11
153.78,8.91,6.82,8.84,6.75,-6.75,-6.44,2.16,2.09,2.09
155.32,8.91,6.84,8.80,6.75,-6.75,-6.43,2.16,2.06,2.07
156.88,8.91,6.86,8.76,6.73,-6.73,-6.43,2.18,2.02,2.06
158.44,8.87,6.83,8.71,6.71,-6.71,-6.44,2.16,2.00,2.04
160.03,8.83,6.81,8.65,6.68,-6.68,-6.45,2.15,1.97,2.02
161.63,8.66,6.66,8.60,6.66,-6.66,-6.46,2.00,1.94,2.00
163.24,8.51,6.52,8.55,6.64,-6.64,-6.47,1.87,1.91,1.99
164.88,8.35,6.38,8.52,6.63,-6.63,-6.49,1.72,1.89,1.97
166.53,8.20,6.25,8.49,6.62,-6.62,-6.52,1.58,1.87,1.95
168.19,8.21,6.28,8.48,6.63,-6.63,-6.55,1.58,1.86,1.93
169.87,8.28,6.37,8.49,6.64,-6.64,-6.58,1.64,1.84,1.91
171.57,8.46,6.57,8.50,6.67,-6.67,-6.62,1.79,1.82,1.89
173.29,8.57,6.69,8.52,6.71,-6.71,-6.66,1.86,1.81,1.88
175.02,8.65,6.79,8.57,6.77,-6.77,-6.71,1.88,1.80,1.86
176.77,8.74,6.89,8.63,6.83,-6.83,-6.76,1.91,1.80,1.85
178.54,8.83,6.99,8.71,6.90,-6.90,-6.82,1.93,1.80,1.84
180.32,8.87,7.04,8.79,6.98,-6.98,-6.88,1.90,1.82,1.83
182.13,8.93,7.11,8.88,7.04,-7.04,-6.95,1.89,1.84,1.83
183.95,8.98,7.16,8.96,7.11,-7.11,-7.03,1.87,1.85,1.82
185.79,8.99,7.17,9.03,7.17,-7.17,-7.10,1.82,1.86,1.82
187.65,9.01,7.18,9.08,7.23,-7.23,-7.19,1.78,1.85,1.83
189.52,9.07,7.24,9.12,7.28,-7.28,-7.27,1.79,1.84,1.83
191.42,9.20,7.36,9.16,7.33,-7.33,-7.37,1.87,1.83,1.84
193.33,9.25,7.41,9.20,7.37,-7.37,-7.46,1.88,1.83,1.84
195.27,9.27,7.43,9.23,7.40,-7.40,-7.57,1.87,1.83,1.85
197.22,9.28,7.43,9.27,7.43,-7.43,-7.67,1.85,1.84,1.85
199.19,9.29,7.44,9.30,7.46,-7.46,-7.78,1.83,1.84,1.85
201.18,9.30,7.45,9.33,7.50,-7.50,-7.89,1.81,1.84,1.85
203.19,9.31,7.46,9.36,7.53,-7.53,-8.01,1.79,1.84,1.85
205.23,9.37,7.52,9.39,7.56,-7.56,-8.13,1.82,1.84,1.85
207.28,9.41,7.57,9.42,7.58,-7.58,-8.25,1.83,1.84,1.84
209.35,9.48,7.65,9.44,7.61,-7.61,-8.37,1.87,1.83,1.84
211.44,9.50,7.67,9.46,7.64,-7.64,-8.50,1.86,1.82,1.83
213.56,9.50,7.68,9.47,7.67,-7.67,-8.62,1.83,1.80,1.82
215.69,9.50,7.69,9.49,7.69,-7.69,-8.74,1.81,1.80,1.81
217.85,9.49,7.69,9.51,7.72,-7.72,-8.86,1.77,1.79,1.80
220.03,9.50,7.71,9.53,7.75,-7.75,-8.98,1.75,1.78,1.79
222.23,9.57,7.79,9.55,7.78,-7.78,-9.10,1.80,1.78,1.78
224.45,9.60,7.83,9.58,7.80,-7.80,-9.20,1.80,1.77,1.77
226.70,9.59,7.82,9.60,7.83,-7.83,-9.31,1.76,1.77,1.77
228.96,9.57,7.80,9.63,7.86,-7.86,-9.40,1.71,1.77,1.77
231.25,9.60,7.83,9.66,7.89,-7.89,-9.48,1.72,1.77,1.77
233.57,9.69,7.91,9.69,7.91,-7.91,-9.56,1.78,1.77,1.78
235.90,9.72,7.94,9.72,7.94,-7.94,-9.61,1.78,1.78,1.79
238.26,9.74,7.95,9.76,7.97,-7.97,-9.66,1.77,1.79,1.79
240.64,9.76,7.96,9.80,7.99,-7.99,-9.69,1.77,1.80,1.81
243.05,9.86,8.04,9.83,8.02,-8.02,-9.70,1.84,1.81,1.82
245.48,9.91,8.08,9.87,8.04,-8.04,-9.70,1.87,1.83,1.83
247.93,9.92,8.08,9.90,8.06,-8.06,-9.68,1.86,1.83,1.84
250.41,9.94,8.08,9.92,8.08,-8.08,-9.64,1.86,1.84,1.86
252.92,9.95,8.08,9.95,8.09,-8.09,-9.57,1.86,1.86,1.87
255.45,9.96,8.08,9.97,8.10,-8.10,-9.50,1.86,1.87,1.88
258.00,9.97,8.09,9.99,8.11,-8.11,-9.40,1.86,1.88,1.88
260.58,9.98,8.09,9.99,8.11,-8.11,-9.28,1.87,1.88,1.89
263.19,9.98,8.09,9.98,8.10,-8.10,-9.15,1.88,1.89,1.89
265.82,9.98,8.09,9.97,8.09,-8.09,-9.01,1.89,1.89,1.89
268.48,9.97,8.08,9.96,8.07,-8.07,-8.84,1.90,1.89,1.89
271.16,9.97,8.08,9.93,8.04,-8.04,-8.67,1.93,1.89,1.89
273.87,9.87,7.98,9.89,8.01,-8.01,-8.48,1.86,1.88,1.89
276.61,9.87,7.98,9.86,7.97,-7.97,-8.29,1.90,1.89,1.89
279.38,9.86,7.97,9.82,7.93,-7.93,-8.08,1.93,1.89,1.89
282.17,9.79,7.90,9.77,7.88,-7.88,-7.87,1.91,1.89,1.89
284.99,9.69,7.80,9.71,7.83,-7.83,-7.65,1.87,1.89,1.89
287.84,9.60,7.70,9.66,7.77,-7.77,-7.43,1.84,1.89,1.90
290.72,9.59,7.69,9.60,7.70,-7.70,-7.20,1.89,1.90,1.91
293.63,9.51,7.60,9.54,7.63,-7.63,-6.97,1.88,1.91,1.91
296.57,9.45,7.53,9.47,7.56,-7.56,-6.74,1.89,1.91,1.92
299.53,9.33,7.40,9.40,7.48,-7.48,-6.51,1.85,1.92,1.93
302.53,9.31,7.37,9.32,7.39,-7.39,-6.27,1.92,1.93,1.94
305.55,9.32,7.37,9.24,7.30,-7.30,-6.04,2.02,1.94,1.95
308.61,9.13,7.17,9.15,7.20,-7.20,-5.80,1.93,1.95,1.96
311.69,9.07,7.11,9.06,7.10,-7.10,-5.57,1.97,1.95,1.96
314.81,9.01,7.04,8.95,6.99,-6.99,-5.33,2.02,1.96,1.97
317.96,8.90,6.93,8.84,6.87,-6.87,-5.10,2.03,1.97,1.97
321.14,8.71,6.74,8.71,6.74,-6.74,-4.87,1.97,1.97,1.98
324.35,8.55,6.57,8.58,6.61,-6.61,-4.64,1.95,1.98,1.98
327.59,8.42,6.44,8.44,6.46,-6.46,-4.42,1.96,1.98,1.98
330.87,8.29,6.31,8.29,6.31,-6.31,-4.19,1.98,1.98,1.98
334.18,8.18,6.21,8.13,6.15,-6.15,-3.97,2.03,1.98,1.98
337.52,8.00,6.03,7.96,5.99,-5.99,-3.75,2.01,1.97,1.97
340.90,7.75,5.78,7.79,5.82,-5.82,-3.53,1.93,1.97,1.97
344.30,7.54,5.57,7.62,5.65,-5.65,-3.31,1.89,1.97,1.97
347.75,7.43,5.46,7.44,5.47,-5.47,-3.10,1.96,1.97,1.98
351.23,7.27,5.29,7.26,5.29,-5.29,-2.88,1.98,1.97,1.98
354.74,7.12,5.14,7.09,5.11,-5.11,-2.67,2.01,1.98,1.98
358.28,6.93,4.94,6.91,4.92,-4.92,-2.46,2.01,1.98,1.99
361.87,6.65,4.66,6.72,4.74,-4.74,-2.25,1.91,1.98,1.99
365.49,6.48,4.48,6.54,4.55,-4.55,-2.05,1.93,1.99,2.00
369.14,6.32,4.31,6.35,4.36,-4.36,-1.84,1.96,1.99,2.01
372.83,6.17,4.16,6.17,4.17,-4.17,-1.64,2.00,2.00,2.01
376.56,6.00,3.98,5.98,3.97,-3.97,-1.44,2.03,2.01,2.02
380.33,5.82,3.79,5.79,3.76,-3.76,-1.24,2.06,2.03,2.03
384.13,5.57,3.54,5.58,3.55,-3.55,-1.04,2.02,2.03,2.03
387.97,5.35,3.32,5.36,3.33,-3.33,-0.85,2.02,2.03,2.04
391.85,5.14,3.10,5.13,3.10,-3.10,-0.65,2.04,2.02,2.04
395.77,4.93,2.89,4.89,2.87,-2.87,-0.46,2.06,2.02,2.04
399.73,4.74,2.70,4.65,2.63,-2.63,-0.27,2.11,2.03,2.04
403.72,4.54,2.50,4.41,2.38,-2.38,-0.08,2.16,2.04,2.04
407.76,4.19,2.15,4.16,2.12,-2.12,0.10,2.07,2.04,2.04
411.84,3.87,1.83,3.90,1.85,-1.85,0.29,2.02,2.04,2.04
415.96,3.61,1.57,3.63,1.59,-1.59,0.47,2.02,2.05,2.04
420.12,3.35,1.30,3.37,1.32,-1.32,0.65,2.03,2.05,2.05
424.32,3.04,0.98,3.12,1.05,-1.05,0.83,1.99,2.07,2.06
428.56,2.77,0.69,2.87,0.79,-0.79,1.00,1.98,2.08,2.08
432.85,2.59,0.49,2.62,0.53,-0.53,1.17,2.06,2.09,2.10
437.18,2.46,0.33,2.39,0.28,-0.28,1.33,2.19,2.12,2.13
441.55,2.22,0.05,2.18,0.03,-0.03,1.49,2.19,2.14,2.17
445.96,1.97,-0.24,1.98,-0.20,0.20,1.65,2.17,2.18,2.21
450.42,1.73,-0.53,1.81,-0.43,0.43,1.80,2.16,2.23,2.26
454.93,1.56,-0.75,1.65,-0.64,0.64,1.95,2.21,2.30,2.31
459.48,1.42,-0.94,1.50,-0.85,0.85,2.09,2.27,2.36,2.36
464.07,1.31,-1.11,1.36,-1.06,1.06,2.22,2.37,2.41,2.42
468.71,1.15,-1.33,1.22,-1.25,1.25,2.35,2.41,2.47,2.48
473.40,1.01,-1.52,1.07,-1.45,1.45,2.47,2.46,2.52,2.54
478.13,0.98,-1.61,0.93,-1.64,1.64,2.59,2.62,2.57,2.59
482.91,0.91,-1.73,0.79,-1.83,1.83,2.69,2.74,2.62,2.64
487.74,0.76,-1.93,0.64,-2.02,2.02,2.79,2.78,2.66,2.69
492.62,0.60,-2.13,0.49,-2.22,2.22,2.88,2.82,2.70,2.73
497.55,0.40,-2.36,0.33,-2.41,2.41,2.97,2.81,2.74,2.77
502.52,0.15,-2.64,0.16,-2.61,2.61,3.04,2.77,2.78,2.79
507.55,-0.09,-2.90,-0.02,-2.82,2.82,3.11,2.73,2.80,2.81
512.62,-0.27,-3.09,-0.22,-3.03,3.03,3.17,2.76,2.81,2.82
517.75,-0.46,-3.28,-0.43,-3.24,3.24,3.22,2.78,2.81,2.83
522.93,-0.67,-3.49,-0.66,-3.46,3.46,3.27,2.79,2.80,2.82
528.16,-0.85,-3.66,-0.89,-3.69,3.69,3.31,2.84,2.79,2.81
533.44,-1.12,-3.91,-1.15,-3.92,3.92,3.34,2.80,2.77,2.79
538.77,-1.40,-4.16,-1.40,-4.15,4.15,3.37,2.75,2.75,2.76
544.16,-1.62,-4.35,-1.66,-4.38,4.38,3.39,2.76,2.72,2.73
549.60,-1.85,-4.55,-1.92,-4.61,4.61,3.41,2.76,2.69,2.70
555.10,-2.17,-4.84,-2.18,-4.85,4.85,3.42,2.68,2.67,2.67
560.65,-2.44,-5.08,-2.44,-5.08,5.08,3.43,2.64,2.64,2.64
566.25,-2.68,-5.29,-2.70,-5.32,5.29,3.44,2.62,2.60,2.61
571.92,-2.98,-5.57,-2.96,-5.55,5.48,3.44,2.50,2.52,2.59
577.64,-3.23,-5.80,-3.21,-5.78,5.63,3.44,2.40,2.43,2.57
583.41,-3.47,-6.02,-3.45,-6.01,5.76,3.44,2.29,2.31,2.56
589.25,-3.75,-6.30,-3.68,-6.23,5.86,3.44,2.11,2.18,2.55
595.14,-3.96,-6.51,-3.89,-6.44,5.93,3.43,1.97,2.04,2.55
601.09,-4.15,-6.70,-4.10,-6.65,5.98,3.43,1.83,1.88,2.55
607.10,-4.28,-6.85,-4.29,-6.86,6.00,3.42,1.72,1.71,2.57
613.17,-4.46,-7.05,-4.46,-7.05,6.00,3.42,1.54,1.54,2.59
619.30,-4.60,-7.21,-4.62,-7.24,6.00,3.42,1.40,1.38,2.62
625.50,-4.72,-7.37,-4.76,-7.41,6.00,3.42,1.28,1.24,2.65
631.75,-4.88,-7.57,-4.89,-7.58,6.00,3.41,1.12,1.11,2.69
638.07,-5.00,-7.73,-5.00,-7.74,6.00,3.42,1.00,1.00,2.73
644.45,-5.11,-7.89,-5.11,-7.89,6.00,3.42,0.89,0.89,2.78
650.89,-5.25,-8.08,-5.19,-8.02,6.00,3.42,0.75,0.81,2.83
657.40,-5.31,-8.19,-5.27,-8.15,6.00,3.43,0.69,0.73,2.88
663.98,-5.32,-8.25,-5.34,-8.26,6.00,3.44,0.68,0.66,2.93
670.62,-5.36,-8.34,-5.40,-8.37,6.00,3.45,0.64,0.60,2.98
677.32,-5.41,-8.44,-5.45,-8.46,6.00,3.47,0.59,0.55,3.03
684.10,-5.50,-8.57,-5.49,-8.53,6.00,3.48,0.50,0.51,3.07
690.94,-5.53,-8.63,-5.52,-8.60,6.00,3.50,0.47,0.48,3.11
697.85,-5.60,-8.73,-5.54,-8.65,6.00,3.53,0.40,0.46,3.14
704.83,-5.51,-8.67,-5.54,-8.68,6.00,3.55,0.49,0.46,3.16
711.87,-5.49,-8.67,-5.54,-8.70,6.00,3.58,0.51,0.46,3.18
718.99,-5.50,-8.69,-5.54,-8.71,6.00,3.61,0.50,0.46,3.19
726.18,-5.51,-8.71,-5.52,-8.70,6.00,3.65,0.49,0.48,3.20
733.44,-5.52,-8.72,-5.49,-8.68,6.00,3.69,0.48,0.51,3.20
740.78,-5.43,-8.63,-5.45,-8.64,6.00,3.73,0.57,0.55,3.20
748.19,-5.39,-8.59,-5.40,-8.59,6.00,3.77,0.61,0.60,3.20
755.67,-5.33,-8.53,-5.32,-8.52,6.00,3.82,0.67,0.68,3.20
763.23,-5.27,-8.48,-5.23,-8.44,6.00,3.87,0.73,0.77,3.21
770.86,-5.18,-8.39,-5.14,-8.35,6.00,3.92,0.82,0.86,3.21
778.57,-5.06,-8.28,-5.02,-8.24,6.00,3.97,0.94,0.98,3.22
786.35,-4.92,-8.15,-4.90,-8.11,6.00,4.03,1.08,1.10,3.23
