frequency,raw,error,smoothed,error_smoothed,equalization,parametric_eq,equalized_raw,equalized_smoothed,target
20,5.95,4.21,5.94,4.20,-4.20,-3.51,1.75,1.74,1.74
21,5.95,4.21,5.93,4.18,-4.18,-3.92,1.77,1.74,1.74
22,5.87,4.13,5.90,4.16,-4.16,-4.25,1.71,1.74,1.74
23,5.84,4.10,5.86,4.13,-4.13,-4.45,1.72,1.74,1.74
24,5.80,4.07,5.82,4.08,-4.08,-4.51,1.72,1.74,1.74
25,5.73,4.00,5.77,4.03,-4.03,-4.43,1.70,1.73,1.73
26,5.69,3.96,5.70,3.97,-3.97,-4.23,1.72,1.73,1.73
27,5.65,3.92,5.63,3.90,-3.90,-3.97,1.75,1.73,1.73
28,5.54,3.82,5.54,3.82,-3.82,-3.67,1.72,1.72,1.72
29,5.44,3.72,5.43,3.71,-3.71,-3.37,1.73,1.72,1.72
30,5.33,3.62,5.29,3.58,-3.58,-3.08,1.75,1.71,1.71
31,5.15,3.44,5.14,3.43,-3.43,-2.81,1.72,1.71,1.71
32,4.98,3.28,4.96,3.25,-3.25,-2.56,1.73,1.70,1.70
33,4.79,3.10,4.75,3.06,-3.06,-2.35,1.73,1.70,1.70
34,4.52,2.83,4.53,2.84,-2.84,-2.15,1.68,1.69,1.69
35,4.29,2.61,4.29,2.61,-2.61,-1.98,1.68,1.68,1.68
36,4.00,2.33,4.04,2.37,-2.37,-1.83,1.63,1.67,1.67
37,3.81,2.15,3.79,2.13,-2.13,-1.70,1.68,1.66,1.66
38,3.54,1.89,3.54,1.89,-1.89,-1.58,1.65,1.65,1.65
39,3.30,1.66,3.30,1.66,-1.66,-1.48,1.64,1.64,1.64
40,3.06,1.43,3.07,1.43,-1.43,-1.39,1.63,1.63,1.63
41,2.83,1.21,2.85,1.23,-1.23,-1.31,1.60,1.62,1.62
42,2.66,1.05,2.65,1.03,-1.03,-1.24,1.63,1.61,1.61
43,2.41,0.81,2.46,0.86,-0.86,-1.17,1.55,1.60,1.60
44,2.30,0.72,2.29,0.71,-0.71,-1.12,1.59,1.58,1.58
45,2.13,0.56,2.14,0.57,-0.57,-1.07,1.56,1.57,1.57
46,2.03,0.48,2.01,0.46,-0.46,-1.02,1.57,1.55,1.55
47,1.89,0.35,1.90,0.37,-0.37,-0.98,1.52,1.54,1.54
48,1.80,0.28,1.81,0.29,-0.29,-0.95,1.51,1.52,1.52
49,1.75,0.25,1.74,0.24,-0.24,-0.92,1.51,1.50,1.50
50,1.68,0.20,1.68,0.20,-0.20,-0.89,1.48,1.48,1.48
51,1.60,0.14,1.64,0.17,-0.17,-0.87,1.43,1.46,1.46
52,1.60,0.16,1.60,0.16,-0.16,-0.84,1.44,1.44,1.44
53,1.60,0.18,1.58,0.16,-0.16,-0.82,1.44,1.42,1.42
54,1.59,0.19,1.56,0.16,-0.16,-0.81,1.43,1.40,1.40
55,1.53,0.16,1.55,0.18,-0.18,-0.79,1.35,1.38,1.38
56,1.53,0.18,1.54,0.19,-0.19,-0.78,1.34,1.35,1.35
57,1.56,0.24,1.54,0.21,-0.21,-0.77,1.35,1.33,1.33
58,1.56,0.26,1.54,0.24,-0.24,-0.76,1.32,1.30,1.30
59,1.53,0.26,1.54,0.27,-0.27,-0.75,1.27,1.27,1.27
60,1.53,0.29,1.54,0.29,-0.29,-0.74,1.24,1.24,1.24
61,1.53,0.32,1.54,0.33,-0.33,-0.74,1.21,1.22,1.22
62,1.53,0.35,1.54,0.36,-0.36,-0.73,1.17,1.19,1.19
63,1.55,0.40,1.55,0.39,-0.39,-0.73,1.16,1.16,1.16
64,1.55,0.43,1.55,0.42,-0.42,-0.73,1.13,1.12,1.12
65,1.54,0.45,1.55,0.45,-0.45,-0.73,1.09,1.09,1.09
66,1.55,0.49,1.54,0.48,-0.48,-0.72,1.07,1.06,1.06
67,1.54,0.52,1.53,0.50,-0.50,-0.72,1.04,1.02,1.02
68,1.55,0.56,1.51,0.52,-0.52,-0.72,1.03,0.99,0.99
69,1.51,0.56,1.50,0.54,-0.54,-0.73,0.97,0.95,0.95
70,1.46,0.54,1.48,0.56,-0.56,-0.73,0.90,0.92,0.92
71,1.42,0.54,1.46,0.58,-0.58,-0.73,0.84,0.88,0.88
72,1.42,0.58,1.44,0.60,-0.60,-0.73,0.82,0.84,0.84
73,1.42,0.61,1.43,0.62,-0.62,-0.74,0.80,0.81,0.81
74,1.42,0.65,1.42,0.65,-0.65,-0.74,0.77,0.77,0.77
75,1.40,0.67,1.41,0.68,-0.68,-0.75,0.72,0.73,0.73
76,1.42,0.73,1.40,0.71,-0.71,-0.75,0.71,0.69,0.69
77,1.39,0.74,1.39,0.74,-0.74,-0.76,0.65,0.65,0.65
78,1.36,0.75,1.38,0.77,-0.77,-0.76,0.60,0.61,0.61
79,1.38,0.81,1.36,0.79,-0.79,-0.77,0.59,0.57,0.57
80,1.38,0.85,1.35,0.82,-0.82,-0.78,0.56,0.53,0.53
81,1.34,0.85,1.33,0.85,-0.85,-0.78,0.50,0.49,0.49
82,1.27,0.82,1.32,0.87,-0.87,-0.79,0.40,0.45,0.45
83,1.28,0.87,1.30,0.90,-0.90,-0.80,0.38,0.41,0.41
84,1.31,0.95,1.29,0.93,-0.93,-0.81,0.38,0.36,0.36
85,1.27,0.95,1.28,0.96,-0.96,-0.82,0.31,0.32,0.32
86,1.27,0.99,1.27,0.99,-0.99,-0.83,0.29,0.28,0.28
87,1.27,1.03,1.25,1.01,-1.01,-0.83,0.26,0.24,0.24
88,1.24,1.04,1.24,1.04,-1.04,-0.84,0.20,0.20,0.20
89,1.20,1.04,1.22,1.06,-1.06,-0.85,0.14,0.16,0.16
90,1.20,1.09,1.20,1.08,-1.08,-0.86,0.12,0.12,0.12
91,1.20,1.13,1.17,1.10,-1.10,-0.87,0.10,0.07,0.07
92,1.16,1.13,1.15,1.11,-1.11,-0.88,0.05,0.03,0.03
93,1.12,1.13,1.12,1.12,-1.12,-0.89,-0.00,-0.01,-0.01
94,1.07,1.12,1.09,1.13,-1.13,-0.90,-0.06,-0.05,-0.05
95,1.03,1.12,1.06,1.14,-1.14,-0.91,-0.11,-0.09,-0.09
96,1.02,1.15,1.03,1.15,-1.15,-0.92,-0.13,-0.13,-0.13
97,0.98,1.15,0.99,1.16,-1.16,-0.93,-0.18,-0.17,-0.17
98,0.99,1.20,0.96,1.17,-1.17,-0.95,-0.18,-0.21,-0.21
99,0.95,1.20,0.93,1.18,-1.18,-0.96,-0.23,-0.25,-0.25
100,0.91,1.20,0.91,1.20,-1.20,-0.97,-0.29,-0.29,-0.29
101,0.87,1.20,0.88,1.21,-1.21,-0.98,-0.34,-0.33,-0.32
102,0.84,1.20,0.85,1.23,-1.23,-0.99,-0.38,-0.38,-0.36
104,0.80,1.24,0.82,1.24,-1.24,-1.01,-0.44,-0.42,-0.44
105,0.77,1.24,0.79,1.26,-1.26,-1.02,-0.48,-0.46,-0.47
106,0.78,1.29,0.77,1.27,-1.27,-1.04,-0.49,-0.50,-0.51
107,0.76,1.30,0.74,1.28,-1.28,-1.05,-0.52,-0.54,-0.54
108,0.73,1.31,0.72,1.29,-1.29,-1.06,-0.56,-0.58,-0.58
109,0.69,1.30,0.69,1.30,-1.30,-1.07,-0.61,-0.61,-0.61
110,0.66,1.31,0.66,1.31,-1.31,-1.08,-0.65,-0.65,-0.65
111,0.63,1.31,0.64,1.32,-1.32,-1.10,-0.69,-0.68,-0.68
112,0.60,1.31,0.62,1.33,-1.33,-1.11,-0.73,-0.72,-0.71
113,0.58,1.33,0.59,1.34,-1.34,-1.12,-0.76,-0.75,-0.75
114,0.57,1.35,0.57,1.35,-1.35,-1.13,-0.78,-0.78,-0.78
115,0.57,1.38,0.55,1.37,-1.37,-1.14,-0.80,-0.82,-0.81
117,0.53,1.40,0.53,1.38,-1.38,-1.17,-0.85,-0.85,-0.87
118,0.50,1.40,0.50,1.39,-1.39,-1.18,-0.89,-0.89,-0.90
119,0.46,1.39,0.48,1.40,-1.40,-1.19,-0.94,-0.93,-0.93
120,0.45,1.41,0.45,1.41,-1.41,-1.20,-0.96,-0.96,-0.96
121,0.44,1.42,0.43,1.42,-1.42,-1.22,-0.98,-0.99,-0.98
123,0.41,1.45,0.40,1.43,-1.43,-1.24,-1.02,-1.03,-1.04
124,0.38,1.44,0.37,1.43,-1.43,-1.25,-1.05,-1.06,-1.06
125,0.34,1.43,0.34,1.43,-1.43,-1.26,-1.09,-1.09,-1.09
126,0.30,1.41,0.32,1.44,-1.44,-1.28,-1.14,-1.12,-1.11
128,0.29,1.45,0.29,1.44,-1.44,-1.30,-1.15,-1.15,-1.16
129,0.26,1.45,0.27,1.45,-1.45,-1.31,-1.19,-1.18,-1.19
130,0.24,1.45,0.25,1.46,-1.46,-1.32,-1.22,-1.21,-1.21
131,0.22,1.45,0.23,1.47,-1.47,-1.33,-1.25,-1.24,-1.23
133,0.21,1.49,0.21,1.48,-1.48,-1.36,-1.27,-1.27,-1.27
134,0.20,1.50,0.20,1.49,-1.49,-1.37,-1.29,-1.30,-1.30
135,0.20,1.52,0.19,1.51,-1.51,-1.38,-1.31,-1.32,-1.32
137,0.17,1.53,0.17,1.52,-1.52,-1.40,-1.35,-1.35,-1.36
138,0.12,1.50,0.16,1.54,-1.54,-1.41,-1.42,-1.38,-1.38
140,0.17,1.58,0.15,1.55,-1.55,-1.44,-1.38,-1.40,-1.41
141,0.16,1.59,0.13,1.56,-1.56,-1.45,-1.40,-1.43,-1.43
142,0.12,1.57,0.11,1.57,-1.57,-1.46,-1.45,-1.45,-1.45
144,0.09,1.57,0.10,1.58,-1.58,-1.48,-1.49,-1.48,-1.48
145,0.06,1.56,0.08,1.58,-1.58,-1.49,-1.52,-1.50,-1.50
147,0.06,1.59,0.07,1.59,-1.59,-1.51,-1.53,-1.53,-1.53
148,0.05,1.60,0.05,1.60,-1.60,-1.52,-1.55,-1.55,-1.55
150,0.04,1.62,0.04,1.61,-1.61,-1.54,-1.57,-1.57,-1.57
151,0.03,1.62,0.03,1.62,-1.62,-1.55,-1.59,-1.59,-1.59
153,0.03,1.65,0.02,1.63,-1.63,-1.57,-1.60,-1.61,-1.62
154,0.00,1.63,0.02,1.65,-1.65,-1.58,-1.65,-1.63,-1.63
156,-0.01,1.65,0.01,1.66,-1.66,-1.60,-1.67,-1.65,-1.65
157,0.00,1.67,0.00,1.67,-1.67,-1.61,-1.67,-1.67,-1.67
159,0.02,1.71,-0.01,1.68,-1.68,-1.63,-1.66,-1.69,-1.69
160,-0.02,1.68,-0.02,1.69,-1.69,-1.63,-1.71,-1.71,-1.70
162,-0.03,1.70,-0.03,1.69,-1.69,-1.65,-1.72,-1.72,-1.72
164,-0.03,1.72,-0.05,1.69,-1.69,-1.67,-1.72,-1.74,-1.75
165,-0.07,1.69,-0.07,1.69,-1.69,-1.68,-1.76,-1.76,-1.76
167,-0.12,1.66,-0.10,1.68,-1.68,-1.69,-1.80,-1.77,-1.78
169,-0.12,1.67,-0.12,1.67,-1.67,-1.71,-1.79,-1.79,-1.79
170,-0.13,1.67,-0.15,1.65,-1.65,-1.72,-1.78,-1.81,-1.80
172,-0.18,1.64,-0.18,1.64,-1.64,-1.73,-1.82,-1.82,-1.82
174,-0.23,1.61,-0.21,1.63,-1.63,-1.74,-1.85,-1.83,-1.84
175,-0.26,1.59,-0.24,1.61,-1.61,-1.75,-1.87,-1.85,-1.85
177,-0.24,1.62,-0.26,1.60,-1.60,-1.76,-1.84,-1.86,-1.86
179,-0.27,1.61,-0.29,1.59,-1.59,-1.78,-1.86,-1.87,-1.88
181,-0.31,1.58,-0.31,1.58,-1.58,-1.79,-1.89,-1.89,-1.89
183,-0.34,1.56,-0.32,1.58,-1.58,-1.80,-1.92,-1.90,-1.90
184,-0.37,1.54,-0.34,1.58,-1.58,-1.81,-1.94,-1.91,-1.91
186,-0.36,1.56,-0.35,1.58,-1.58,-1.82,-1.94,-1.92,-1.92
188,-0.33,1.61,-0.36,1.58,-1.58,-1.83,-1.91,-1.93,-1.93
190,-0.35,1.60,-0.36,1.58,-1.58,-1.84,-1.93,-1.95,-1.95
192,-0.37,1.59,-0.37,1.59,-1.59,-1.85,-1.95,-1.96,-1.96
194,-0.39,1.58,-0.38,1.59,-1.59,-1.86,-1.98,-1.97,-1.97
196,-0.38,1.60,-0.39,1.59,-1.59,-1.87,-1.97,-1.98,-1.98
198,-0.38,1.61,-0.40,1.59,-1.59,-1.88,-1.97,-1.99,-1.99
200,-0.41,1.59,-0.41,1.59,-1.59,-1.89,-2.00,-2.00,-2.00
202,-0.43,1.58,-0.42,1.59,-1.59,-1.90,-2.02,-2.01,-2.01
204,-0.42,1.59,-0.42,1.59,-1.59,-1.91,-2.01,-2.01,-2.01
206,-0.42,1.60,-0.43,1.59,-1.59,-1.91,-2.01,-2.02,-2.02
208,-0.45,1.58,-0.43,1.60,-1.60,-1.92,-2.05,-2.03,-2.03
210,-0.45,1.59,-0.43,1.61,-1.61,-1.93,-2.06,-2.04,-2.04
212,-0.41,1.64,-0.42,1.62,-1.62,-1.93,-2.03,-2.04,-2.04
214,-0.40,1.65,-0.41,1.64,-1.64,-1.94,-2.04,-2.05,-2.05
216,-0.41,1.65,-0.40,1.65,-1.65,-1.95,-2.06,-2.06,-2.06
218,-0.43,1.63,-0.39,1.67,-1.67,-1.95,-2.10,-2.06,-2.06
221,-0.36,1.71,-0.38,1.69,-1.69,-1.96,-2.05,-2.07,-2.07
223,-0.34,1.74,-0.38,1.70,-1.70,-1.97,-2.04,-2.08,-2.08
225,-0.36,1.73,-0.37,1.72,-1.72,-1.97,-2.08,-2.08,-2.08
227,-0.37,1.72,-0.36,1.73,-1.73,-1.98,-2.10,-2.09,-2.09
229,-0.35,1.75,-0.34,1.75,-1.75,-1.98,-2.10,-2.10,-2.09
232,-0.33,1.77,-0.33,1.77,-1.77,-1.99,-2.10,-2.10,-2.10
234,-0.33,1.78,-0.31,1.80,-1.80,-2.00,-2.12,-2.11,-2.11
236,-0.32,1.79,-0.29,1.82,-1.82,-2.00,-2.14,-2.11,-2.11
239,-0.26,1.86,-0.26,1.86,-1.86,-2.01,-2.11,-2.12,-2.12
241,-0.24,1.88,-0.23,1.89,-1.89,-2.02,-2.13,-2.12,-2.12
244,-0.16,1.97,-0.20,1.92,-1.92,-2.02,-2.08,-2.13,-2.13
246,-0.17,1.96,-0.17,1.96,-1.96,-2.03,-2.13,-2.13,-2.13
248,-0.15,1.98,-0.15,1.99,-1.99,-2.03,-2.14,-2.13,-2.13
251,-0.10,2.04,-0.12,2.02,-2.02,-2.04,-2.12,-2.14,-2.14
253,-0.10,2.04,-0.09,2.05,-2.05,-2.05,-2.15,-2.14,-2.14
256,-0.07,2.08,-0.07,2.08,-2.08,-2.05,-2.15,-2.15,-2.15
259,-0.03,2.12,-0.04,2.11,-2.11,-2.06,-2.14,-2.15,-2.15
261,-0.03,2.12,-0.01,2.15,-2.15,-2.07,-2.18,-2.15,-2.15
264,0.01,2.17,0.03,2.18,-2.18,-2.08,-2.17,-2.16,-2.16
266,0.04,2.20,0.06,2.22,-2.22,-2.08,-2.18,-2.16,-2.16
269,0.08,2.24,0.10,2.26,-2.26,-2.09,-2.18,-2.16,-2.16
272,0.19,2.36,0.14,2.30,-2.30,-2.10,-2.11,-2.17,-2.17
274,0.19,2.36,0.17,2.34,-2.34,-2.11,-2.15,-2.17,-2.17
277,0.20,2.37,0.21,2.38,-2.38,-2.12,-2.18,-2.17,-2.17
280,0.26,2.44,0.24,2.42,-2.42,-2.13,-2.16,-2.18,-2.18
283,0.26,2.44,0.27,2.45,-2.45,-2.14,-2.19,-2.18,-2.18
286,0.28,2.46,0.30,2.48,-2.48,-2.16,-2.20,-2.18,-2.18
288,0.32,2.50,0.33,2.51,-2.51,-2.16,-2.19,-2.18,-2.18
291,0.37,2.56,0.36,2.54,-2.54,-2.18,-2.17,-2.19,-2.18
294,0.36,2.55,0.38,2.57,-2.57,-2.19,-2.21,-2.19,-2.19
297,0.40,2.59,0.40,2.59,-2.59,-2.21,-2.19,-2.19,-2.19
300,0.45,2.64,0.42,2.62,-2.62,-2.22,-2.16,-2.19,-2.19
303,0.46,2.65,0.44,2.63,-2.63,-2.24,-2.17,-2.19,-2.19
306,0.46,2.66,0.46,2.65,-2.65,-2.26,-2.19,-2.20,-2.20
309,0.46,2.66,0.47,2.67,-2.67,-2.27,-2.20,-2.20,-2.20
312,0.46,2.66,0.48,2.68,-2.68,-2.29,-2.22,-2.20,-2.20
316,0.47,2.67,0.49,2.69,-2.69,-2.32,-2.22,-2.20,-2.20
319,0.51,2.71,0.50,2.70,-2.70,-2.34,-2.19,-2.20,-2.20
322,0.53,2.74,0.51,2.72,-2.72,-2.36,-2.19,-2.20,-2.20
325,0.53,2.74,0.53,2.73,-2.73,-2.38,-2.20,-2.21,-2.21
328,0.53,2.74,0.55,2.75,-2.75,-2.40,-2.22,-2.21,-2.21
332,0.54,2.75,0.57,2.78,-2.78,-2.43,-2.24,-2.21,-2.21
335,0.59,2.80,0.59,2.80,-2.80,-2.46,-2.21,-2.21,-2.21
338,0.62,2.83,0.62,2.83,-2.83,-2.48,-2.21,-2.21,-2.21
342,0.64,2.85,0.64,2.85,-2.85,-2.52,-2.21,-2.21,-2.21
345,0.67,2.88,0.66,2.88,-2.88,-2.54,-2.21,-2.21,-2.21
349,0.68,2.90,0.69,2.90,-2.90,-2.58,-2.22,-2.22,-2.22
352,0.71,2.93,0.70,2.92,-2.92,-2.61,-2.21,-2.22,-2.22
356,0.74,2.96,0.72,2.94,-2.94,-2.64,-2.20,-2.22,-2.22
359,0.74,2.96,0.73,2.95,-2.95,-2.67,-2.21,-2.22,-2.22
363,0.74,2.96,0.74,2.96,-2.96,-2.71,-2.22,-2.22,-2.22
366,0.74,2.96,0.75,2.97,-2.97,-2.74,-2.23,-2.22,-2.22
370,0.74,2.96,0.76,2.98,-2.98,-2.79,-2.24,-2.22,-2.22
374,0.75,2.98,0.76,2.99,-2.99,-2.83,-2.24,-2.22,-2.22
377,0.77,3.00,0.77,3.00,-3.00,-2.86,-2.23,-2.23,-2.23
381,0.78,3.01,0.79,3.01,-3.01,-2.90,-2.23,-2.23,-2.23
385,0.81,3.04,0.80,3.03,-3.03,-2.95,-2.22,-2.23,-2.23
389,0.81,3.04,0.82,3.05,-3.05,-2.99,-2.23,-2.23,-2.23
393,0.83,3.06,0.83,3.06,-3.06,-3.03,-2.23,-2.23,-2.23
397,0.85,3.08,0.85,3.08,-3.08,-3.07,-2.23,-2.23,-2.23
401,0.85,3.09,0.86,3.09,-3.09,-3.12,-2.24,-2.23,-2.23
405,0.88,3.12,0.87,3.11,-3.11,-3.16,-2.23,-2.24,-2.24
409,0.91,3.15,0.88,3.12,-3.12,-3.20,-2.21,-2.24,-2.24
413,0.89,3.13,0.90,3.13,-3.13,-3.24,-2.24,-2.24,-2.24
417,0.87,3.11,0.91,3.14,-3.14,-3.27,-2.27,-2.24,-2.24
421,0.91,3.15,0.92,3.15,-3.15,-3.31,-2.24,-2.24,-2.24
425,0.94,3.18,0.93,3.16,-3.16,-3.34,-2.22,-2.24,-2.24
430,0.94,3.18,0.93,3.17,-3.17,-3.38,-2.23,-2.24,-2.24
434,0.95,3.19,0.94,3.18,-3.18,-3.41,-2.22,-2.23,-2.23
438,0.97,3.20,0.95,3.18,-3.18,-3.44,-2.21,-2.23,-2.23
443,0.93,3.16,0.96,3.19,-3.19,-3.47,-2.26,-2.23,-2.23
447,0.95,3.18,0.97,3.19,-3.19,-3.49,-2.24,-2.23,-2.23
451,0.98,3.20,0.98,3.20,-3.20,-3.51,-2.22,-2.22,-2.22
456,1.00,3.22,0.99,3.21,-3.21,-3.53,-2.21,-2.22,-2.22
460,0.98,3.19,1.00,3.22,-3.22,-3.54,-2.23,-2.21,-2.21
465,1.01,3.21,1.02,3.22,-3.22,-3.55,-2.21,-2.20,-2.20
470,1.04,3.24,1.03,3.23,-3.23,-3.55,-2.19,-2.20,-2.20
474,1.06,3.25,1.05,3.23,-3.23,-3.55,-2.17,-2.19,-2.19
479,1.04,3.22,1.06,3.23,-3.23,-3.54,-2.19,-2.18,-2.18
484,1.08,3.25,1.06,3.23,-3.23,-3.53,-2.15,-2.17,-2.17
489,1.10,3.25,1.06,3.22,-3.22,-3.52,-2.12,-2.15,-2.15
494,1.10,3.24,1.06,3.20,-3.20,-3.50,-2.10,-2.14,-2.14
499,1.02,3.15,1.06,3.19,-3.19,-3.48,-2.17,-2.13,-2.13
504,1.03,3.14,1.07,3.18,-3.18,-3.45,-2.15,-2.11,-2.11
509,1.06,3.16,1.07,3.17,-3.17,-3.42,-2.11,-2.09,-2.09
514,1.08,3.16,1.09,3.16,-3.16,-3.39,-2.08,-2.08,-2.08
519,1.07,3.13,1.10,3.16,-3.16,-3.35,-2.09,-2.06,-2.06
524,1.12,3.16,1.12,3.16,-3.16,-3.32,-2.04,-2.04,-2.04
529,1.16,3.18,1.14,3.16,-3.16,-3.28,-2.00,-2.02,-2.02
535,1.16,3.16,1.16,3.16,-3.16,-3.23,-2.00,-2.00,-2.00
540,1.19,3.17,1.17,3.15,-3.15,-3.18,-1.96,-1.97,-1.97
545,1.22,3.17,1.18,3.14,-3.14,-3.14,-1.91,-1.95,-1.95
551,1.24,3.17,1.19,3.12,-3.12,-3.09,-1.88,-1.93,-1.93
556,1.16,3.06,1.19,3.09,-3.09,-3.05,-1.93,-1.90,-1.90
562,1.15,3.03,1.19,3.07,-3.07,-3.00,-1.91,-1.88,-1.88
568,1.17,3.02,1.19,3.04,-3.04,-2.95,-1.87,-1.85,-1.85
573,1.20,3.02,1.19,3.01,-3.01,-2.92,-1.81,-1.82,-1.82
579,1.17,2.97,1.20,2.99,-2.99,-2.88,-1.82,-1.79,-1.79
585,1.20,2.97,1.21,2.97,-2.97,-2.84,-1.77,-1.77,-1.77
591,1.23,2.97,1.22,2.96,-2.96,-2.81,-1.72,-1.74,-1.74
596,1.26,2.97,1.23,2.94,-2.94,-2.80,-1.68,-1.71,-1.71
602,1.23,2.91,1.25,2.92,-2.92,-2.78,-1.69,-1.68,-1.68
608,1.27,2.92,1.26,2.91,-2.91,-2.78,-1.63,-1.64,-1.64
615,1.29,2.90,1.27,2.89,-2.89,-2.78,-1.60,-1.61,-1.61
621,1.26,2.84,1.29,2.87,-2.87,-2.80,-1.61,-1.58,-1.58
627,1.28,2.83,1.30,2.85,-2.85,-2.82,-1.56,-1.55,-1.55
633,1.30,2.81,1.31,2.82,-2.82,-2.84,-1.52,-1.51,-1.51
639,1.31,2.79,1.32,2.80,-2.80,-2.86,-1.48,-1.48,-1.48
646,1.33,2.78,1.32,2.76,-2.76,-2.86,-1.43,-1.45,-1.45
652,1.32,2.73,1.32,2.73,-2.73,-2.83,-1.41,-1.41,-1.41
659,1.33,2.71,1.31,2.68,-2.68,-2.76,-1.35,-1.37,-1.37
665,1.28,2.62,1.29,2.63,-2.63,-2.67,-1.35,-1.34,-1.34
672,1.27,2.57,1.26,2.57,-2.57,-2.54,-1.30,-1.30,-1.30
679,1.22,2.49,1.23,2.49,-2.49,-2.39,-1.27,-1.27,-1.27
686,1.14,2.37,1.17,2.40,-2.40,-2.25,-1.26,-1.23,-1.23
692,1.11,2.30,1.10,2.29,-2.29,-2.13,-1.18,-1.19,-1.19
699,1.04,2.19,1.02,2.17,-2.17,-2.01,-1.13,-1.15,-1.15
706,0.98,2.10,0.92,2.03,-2.03,-1.89,-1.05,-1.12,-1.12
713,0.85,1.93,0.80,1.88,-1.88,-1.79,-1.03,-1.08,-1.08
721,0.69,1.73,0.68,1.72,-1.72,-1.68,-1.03,-1.04,-1.04
728,0.56,1.56,0.55,1.55,-1.55,-1.60,-0.99,-1.00,-1.00
735,0.40,1.36,0.43,1.39,-1.39,-1.52,-0.99,-0.96,-0.96
742,0.27,1.20,0.32,1.24,-1.24,-1.45,-0.97,-0.93,-0.93
750,0.19,1.08,0.22,1.11,-1.11,-1.38,-0.92,-0.89,-0.89
757,0.15,1.00,0.15,1.01,-1.01,-1.32,-0.85,-0.85,-0.85
765,0.06,0.87,0.11,0.93,-0.93,-1.26,-0.87,-0.81,-0.81
773,0.09,0.87,0.10,0.88,-0.88,-1.20,-0.79,-0.78,-0.78
780,0.06,0.80,0.12,0.86,-0.86,-1.15,-0.80,-0.74,-0.74
788,0.14,0.85,0.15,0.86,-0.86,-1.10,-0.72,-0.71,-0.71
796,0.23,0.90,0.20,0.87,-0.87,-1.05,-0.64,-0.67,-0.67
804,0.28,0.92,0.26,0.90,-0.90,-1.01,-0.62,-0.64,-0.64
812,0.35,0.95,0.33,0.93,-0.93,-0.96,-0.58,-0.60,-0.60
820,0.42,0.99,0.39,0.96,-0.96,-0.92,-0.54,-0.57,-0.57
828,0.46,1.00,0.45,0.99,-0.99,-0.88,-0.53,-0.54,-0.54
837,0.49,0.99,0.50,1.01,-1.01,-0.83,-0.52,-0.50,-0.50
845,0.54,1.01,0.54,1.02,-1.02,-0.80,-0.48,-0.47,-0.47
853,0.57,1.01,0.57,1.01,-1.01,-0.76,-0.44,-0.44,-0.44
862,0.59,1.00,0.59,1.00,-1.00,-0.72,-0.41,-0.41,-0.41
871,0.62,1.00,0.59,0.97,-0.97,-0.68,-0.35,-0.38,-0.38
879,0.60,0.95,0.58,0.93,-0.93,-0.65,-0.33,-0.35,-0.35
888,0.58,0.91,0.55,0.88,-0.88,-0.61,-0.30,-0.32,-0.32
897,0.48,0.78,0.52,0.82,-0.82,-0.58,-0.34,-0.30,-0.30
906,0.48,0.75,0.48,0.75,-0.75,-0.54,-0.27,-0.27,-0.27
915,0.40,0.64,0.44,0.68,-0.68,-0.51,-0.28,-0.24,-0.24
924,0.38,0.59,0.39,0.60,-0.60,-0.48,-0.22,-0.21,-0.21
933,0.37,0.56,0.34,0.52,-0.52,-0.44,-0.15,-0.19,-0.19
943,0.29,0.45,0.28,0.44,-0.44,-0.41,-0.15,-0.16,-0.16
952,0.24,0.37,0.22,0.36,-0.36,-0.38,-0.12,-0.13,-0.13
962,0.18,0.29,0.17,0.28,-0.28,-0.34,-0.10,-0.11,-0.11
971,0.11,0.19,0.12,0.20,-0.20,-0.31,-0.09,-0.08,-0.08
981,0.06,0.11,0.07,0.12,-0.12,-0.27,-0.06,-0.05,-0.05
991,-0.01,0.02,0.03,0.06,-0.06,-0.24,-0.07,-0.03,-0.03
1001,0.00,0.00,0.00,0.00,-0.00,-0.21,-0.00,0.00,0.00
1011,-0.02,-0.05,-0.01,-0.04,0.04,-0.17,0.02,0.03,0.03
1021,-0.05,-0.10,-0.02,-0.08,0.08,-0.14,0.03,0.05,0.05
1031,-0.03,-0.11,-0.02,-0.10,0.10,-0.10,0.08,0.08,0.08
1041,-0.01,-0.12,-0.02,-0.13,0.13,-0.07,0.12,0.11,0.11
1052,-0.01,-0.15,-0.01,-0.15,0.15,-0.03,0.14,0.14,0.14
1062,0.01,-0.16,-0.01,-0.17,0.17,0.00,0.18,0.17,0.17
1073,0.03,-0.16,-0.01,-0.20,0.20,0.04,0.23,0.19,0.19
1084,0.01,-0.21,-0.01,-0.23,0.23,0.08,0.24,0.22,0.22
1094,-0.01,-0.26,-0.01,-0.26,0.26,0.12,0.25,0.25,0.25
1105,-0.02,-0.30,-0.02,-0.30,0.30,0.16,0.28,0.28,0.28
1116,-0.04,-0.35,-0.02,-0.34,0.34,0.20,0.30,0.31,0.31
1128,-0.06,-0.40,-0.03,-0.37,0.37,0.24,0.31,0.34,0.34
1139,-0.05,-0.42,-0.03,-0.40,0.40,0.28,0.36,0.37,0.37
1150,-0.04,-0.44,-0.03,-0.44,0.44,0.33,0.40,0.40,0.40
1162,-0.03,-0.47,-0.03,-0.47,0.47,0.37,0.44,0.44,0.44
1173,0.00,-0.47,-0.03,-0.50,0.50,0.42,0.50,0.47,0.47
1185,-0.02,-0.52,-0.04,-0.54,0.54,0.47,0.52,0.50,0.50
1197,-0.04,-0.57,-0.04,-0.57,0.57,0.52,0.53,0.53,0.53
1209,-0.07,-0.63,-0.05,-0.61,0.61,0.57,0.55,0.56,0.56
1221,-0.09,-0.69,-0.06,-0.66,0.66,0.62,0.57,0.60,0.60
1233,-0.05,-0.68,-0.08,-0.71,0.71,0.68,0.66,0.63,0.63
1246,-0.10,-0.76,-0.10,-0.77,0.77,0.74,0.67,0.66,0.66
1258,-0.11,-0.81,-0.12,-0.82,0.82,0.79,0.71,0.70,0.70
1271,-0.17,-0.90,-0.15,-0.88,0.88,0.86,0.72,0.73,0.73
1283,-0.18,-0.95,-0.18,-0.95,0.95,0.92,0.77,0.77,0.77
1296,-0.19,-0.99,-0.21,-1.01,1.01,0.98,0.82,0.80,0.80
1309,-0.23,-1.07,-0.24,-1.08,1.08,1.05,0.85,0.84,0.84
1322,-0.27,-1.14,-0.26,-1.14,1.14,1.11,0.87,0.87,0.87
1335,-0.30,-1.21,-0.28,-1.19,1.19,1.18,0.90,0.91,0.91
1349,-0.32,-1.26,-0.30,-1.25,1.25,1.25,0.93,0.95,0.95
1362,-0.33,-1.31,-0.31,-1.29,1.29,1.31,0.96,0.98,0.98
1376,-0.31,-1.33,-0.31,-1.33,1.33,1.38,1.02,1.02,1.02
1390,-0.32,-1.38,-0.30,-1.36,1.36,1.45,1.04,1.06,1.06
1404,-0.30,-1.39,-0.30,-1.39,1.39,1.51,1.09,1.10,1.10
1418,-0.33,-1.46,-0.29,-1.42,1.42,1.57,1.09,1.13,1.13
1432,-0.23,-1.40,-0.29,-1.46,1.46,1.62,1.23,1.17,1.17
1446,-0.26,-1.47,-0.29,-1.50,1.50,1.66,1.24,1.21,1.21
1461,-0.33,-1.58,-0.31,-1.56,1.56,1.70,1.23,1.25,1.25
1475,-0.31,-1.60,-0.34,-1.63,1.63,1.73,1.33,1.29,1.29
1490,-0.31,-1.64,-0.39,-1.72,1.72,1.74,1.41,1.33,1.33
1505,-0.33,-1.70,-0.43,-1.81,1.81,1.74,1.48,1.37,1.37
1520,-0.38,-1.79,-0.47,-1.88,1.88,1.72,1.50,1.41,1.41
1535,-0.47,-1.92,-0.48,-1.94,1.94,1.68,1.47,1.46,1.46
1550,-0.53,-2.03,-0.45,-1.95,1.95,1.62,1.42,1.50,1.50
1566,-0.51,-2.05,-0.36,-1.90,1.90,1.53,1.39,1.54,1.54
1582,-0.38,-1.96,-0.20,-1.78,1.78,1.41,1.40,1.58,1.58
1597,-0.15,-1.77,0.03,-1.59,1.59,1.29,1.45,1.63,1.63
1613,0.22,-1.45,0.33,-1.34,1.34,1.12,1.57,1.67,1.67
1629,0.65,-1.06,0.67,-1.05,1.05,0.94,1.70,1.71,1.71
1646,1.13,-0.63,1.03,-0.73,0.73,0.73,1.86,1.76,1.76
1662,1.52,-0.28,1.40,-0.40,0.40,0.52,1.93,1.80,1.80
1679,1.81,-0.04,1.74,-0.11,0.11,0.29,1.92,1.85,1.85
1696,2.16,0.27,2.05,0.15,-0.15,0.06,2.01,1.89,1.90
1713,2.39,0.45,2.30,0.36,-0.36,-0.15,2.03,1.94,1.94
1730,2.58,0.59,2.50,0.51,-0.51,-0.34,2.07,1.99,1.99
1747,2.66,0.62,2.65,0.62,-0.62,-0.50,2.05,2.04,2.04
1764,2.74,0.65,2.77,0.68,-0.68,-0.63,2.06,2.09,2.09
1782,2.82,0.68,2.85,0.72,-0.72,-0.73,2.11,2.14,2.14
1800,2.88,0.69,2.93,0.73,-0.73,-0.80,2.15,2.19,2.19
1818,2.95,0.71,2.99,0.75,-0.75,-0.85,2.20,2.24,2.25
