frequency,raw,error,smoothed,error_smoothed,equalization,parametric_eq,equalized_raw,equalized_smoothed,target
20,3.27,-0.95,3.32,-0.86,0.86,-1.19,4.13,4.18,4.22
21,3.60,-0.62,3.76,-0.42,0.42,-1.36,4.02,4.18,4.22
22,4.25,0.04,4.18,-0.00,0.00,-1.54,4.25,4.18,4.21
23,4.64,0.43,4.59,0.41,-0.41,-1.73,4.23,4.18,4.21
24,5.03,0.83,4.98,0.80,-0.80,-1.94,4.23,4.18,4.20
25,5.49,1.29,5.35,1.17,-1.17,-2.16,4.32,4.18,4.19
26,5.80,1.61,5.71,1.53,-1.53,-2.37,4.26,4.18,4.19
27,6.08,1.90,6.05,1.88,-1.88,-2.59,4.20,4.17,4.18
28,6.33,2.15,6.38,2.21,-2.21,-2.79,4.12,4.17,4.17
29,6.67,2.50,6.69,2.52,-2.52,-2.98,4.14,4.16,4.17
30,7.00,2.84,6.98,2.82,-2.82,-3.14,4.17,4.16,4.16
31,7.25,3.10,7.25,3.10,-3.10,-3.28,4.15,4.15,4.15
32,7.45,3.31,7.49,3.36,-3.36,-3.40,4.08,4.13,4.14
33,7.69,3.55,7.73,3.61,-3.61,-3.50,4.08,4.12,4.13
34,7.93,3.80,7.95,3.84,-3.84,-3.58,4.08,4.11,4.12
35,8.22,4.11,8.16,4.07,-4.07,-3.66,4.15,4.09,4.11
36,8.40,4.30,8.37,4.28,-4.28,-3.73,4.11,4.09,4.10
37,8.59,4.50,8.57,4.49,-4.49,-3.82,4.10,4.08,4.09
38,8.78,4.70,8.76,4.68,-4.68,-3.90,4.09,4.07,4.08
39,8.97,4.90,8.92,4.87,-4.87,-4.00,4.10,4.06,4.06
40,9.07,5.02,9.09,5.04,-5.04,-4.12,4.02,4.04,4.05
41,9.17,5.13,9.25,5.21,-5.21,-4.24,3.95,4.03,4.03
42,9.38,5.36,9.39,5.37,-5.37,-4.39,4.00,4.02,4.02
43,9.54,5.53,9.53,5.53,-5.53,-4.55,4.01,4.00,4.00
44,9.65,5.66,9.65,5.68,-5.68,-4.72,3.97,3.98,3.99
45,9.84,5.87,9.78,5.82,-5.82,-4.91,4.02,3.96,3.97
46,9.85,5.89,9.90,5.95,-5.95,-5.11,3.90,3.95,3.95
47,10.04,6.10,10.01,6.08,-6.08,-5.32,3.95,3.93,3.93
48,10.08,6.16,10.12,6.21,-6.21,-5.54,3.87,3.91,3.91
49,10.26,6.36,10.22,6.33,-6.33,-5.77,3.93,3.89,3.89
50,10.32,6.44,10.32,6.45,-6.45,-6.01,3.87,3.87,3.87
51,10.38,6.52,10.41,6.56,-6.56,-6.25,3.82,3.85,3.85
52,10.50,6.67,10.50,6.67,-6.67,-6.50,3.83,3.83,3.83
53,10.61,6.80,10.58,6.77,-6.77,-6.74,3.84,3.81,3.81
54,10.67,6.88,10.65,6.87,-6.87,-6.97,3.80,3.78,3.78
55,10.71,6.95,10.71,6.96,-6.96,-7.19,3.75,3.75,3.76
56,10.71,6.97,10.78,7.05,-7.05,-7.40,3.66,3.73,3.73
57,10.86,7.15,10.83,7.13,-7.13,-7.59,3.73,3.70,3.71
58,10.90,7.22,10.89,7.21,-7.21,-7.77,3.69,3.68,3.68
59,10.94,7.28,10.93,7.28,-7.28,-7.91,3.66,3.65,3.65
60,11.00,7.37,10.97,7.34,-7.34,-8.03,3.65,3.63,3.63
61,11.00,7.40,11.00,7.40,-7.40,-8.12,3.59,3.59,3.60
62,11.00,7.43,11.02,7.46,-7.46,-8.18,3.54,3.56,3.57
63,11.00,7.46,11.04,7.51,-7.51,-8.22,3.49,3.54,3.54
64,11.09,7.58,11.06,7.55,-7.55,-8.23,3.54,3.51,3.51
65,11.09,7.61,11.07,7.59,-7.59,-8.21,3.50,3.48,3.48
66,11.09,7.64,11.06,7.61,-7.61,-8.17,3.47,3.45,3.45
67,11.07,7.65,11.05,7.64,-7.64,-8.12,3.43,3.41,3.41
68,11.00,7.61,11.03,7.65,-7.65,-8.04,3.34,3.38,3.38
69,11.00,7.65,11.01,7.66,-7.66,-7.96,3.33,3.34,3.35
70,11.00,7.68,10.98,7.67,-7.67,-7.87,3.33,3.31,3.32
71,11.00,7.71,10.95,7.67,-7.67,-7.77,3.33,3.27,3.28
72,10.90,7.65,10.91,7.67,-7.67,-7.66,3.23,3.24,3.25
73,10.85,7.63,10.87,7.66,-7.66,-7.56,3.19,3.21,3.21
74,10.78,7.60,10.81,7.64,-7.64,-7.46,3.13,3.17,3.18
75,10.71,7.56,10.76,7.63,-7.63,-7.36,3.08,3.14,3.14
76,10.71,7.60,10.71,7.60,-7.60,-7.26,3.10,3.10,3.11
77,10.67,7.59,10.65,7.58,-7.58,-7.17,3.09,3.07,3.07
78,10.61,7.57,10.58,7.54,-7.54,-7.08,3.06,3.03,3.04
79,10.54,7.54,10.50,7.51,-7.51,-7.00,3.03,2.99,3.00
80,10.43,7.46,10.42,7.47,-7.47,-6.93,2.96,2.95,2.97
81,10.41,7.48,10.34,7.43,-7.43,-6.86,2.98,2.91,2.93
82,10.24,7.34,10.27,7.38,-7.38,-6.80,2.86,2.89,2.89
83,10.14,7.28,10.19,7.33,-7.33,-6.75,2.81,2.86,2.86
84,10.13,7.31,10.10,7.28,-7.28,-6.70,2.85,2.82,2.82
85,9.99,7.20,10.00,7.23,-7.23,-6.66,2.76,2.78,2.78
86,9.89,7.14,9.91,7.17,-7.17,-6.63,2.71,2.73,2.75
87,9.73,7.02,9.82,7.12,-7.12,-6.61,2.61,2.70,2.71
88,9.75,7.07,9.73,7.07,-7.07,-6.59,2.68,2.66,2.68
89,9.74,7.10,9.65,7.02,-7.02,-6.58,2.71,2.63,2.64
90,9.59,6.98,9.57,6.98,-6.98,-6.58,2.61,2.60,2.60
91,9.51,6.94,9.50,6.93,-6.93,-6.58,2.58,2.57,2.57
92,9.37,6.84,9.42,6.88,-6.88,-6.59,2.49,2.54,2.53
93,9.27,6.77,9.34,6.84,-6.84,-6.60,2.43,2.50,2.50
94,9.27,6.81,9.25,6.79,-6.79,-6.62,2.47,2.46,2.46
95,9.22,6.79,9.18,6.75,-6.75,-6.64,2.47,2.43,2.43
96,9.16,6.77,9.10,6.71,-6.71,-6.67,2.45,2.39,2.39
97,9.07,6.71,9.02,6.67,-6.67,-6.71,2.40,2.35,2.36
98,9.01,6.68,8.94,6.64,-6.64,-6.74,2.37,2.30,2.32
99,8.86,6.57,8.87,6.61,-6.61,-6.78,2.25,2.26,2.29
100,8.81,6.55,8.82,6.59,-6.59,-6.82,2.22,2.23,2.26
101,8.67,6.44,8.77,6.58,-6.58,-6.87,2.09,2.19,2.22
102,8.71,6.52,8.74,6.58,-6.58,-6.92,2.13,2.16,2.19
104,8.69,6.56,8.71,6.59,-6.59,-7.02,2.10,2.12,2.12
105,8.66,6.56,8.69,6.61,-6.61,-7.07,2.05,2.08,2.09
106,8.67,6.61,8.68,6.64,-6.64,-7.12,2.02,2.04,2.06
107,8.67,6.64,8.69,6.69,-6.69,-7.17,1.98,2.00,2.03
108,8.74,6.74,8.72,6.75,-6.75,-7.22,1.99,1.97,2.00
109,8.80,6.83,8.76,6.82,-6.82,-7.27,1.98,1.94,1.97
110,8.82,6.88,8.82,6.90,-6.90,-7.32,1.92,1.92,1.94
111,8.91,7.00,8.88,6.98,-6.98,-7.36,1.93,1.90,1.91
112,8.88,7.00,8.94,7.07,-7.07,-7.41,1.81,1.87,1.88
113,8.92,7.06,8.99,7.16,-7.16,-7.44,1.76,1.84,1.85
114,9.03,7.20,9.05,7.24,-7.24,-7.48,1.79,1.81,1.83
115,9.06,7.25,9.11,7.32,-7.32,-7.51,1.74,1.79,1.80
117,9.25,7.49,9.15,7.40,-7.40,-7.56,1.85,1.76,1.75
118,9.30,7.56,9.19,7.46,-7.46,-7.57,1.83,1.73,1.73
119,9.27,7.55,9.22,7.52,-7.52,-7.58,1.75,1.69,1.72
120,9.25,7.55,9.25,7.56,-7.56,-7.58,1.68,1.68,1.70
121,9.20,7.52,9.26,7.58,-7.58,-7.58,1.61,1.67,1.68
123,9.21,7.56,9.24,7.59,-7.59,-7.56,1.62,1.66,1.64
124,9.21,7.58,9.21,7.57,-7.57,-7.53,1.64,1.64,1.63
125,9.14,7.52,9.13,7.52,-7.52,-7.51,1.61,1.61,1.62
126,9.08,7.47,9.04,7.46,-7.46,-7.47,1.62,1.58,1.60
128,8.99,7.42,8.94,7.37,-7.37,-7.38,1.62,1.57,1.57
129,8.90,7.34,8.81,7.26,-7.26,-7.33,1.64,1.55,1.56
130,8.78,7.23,8.66,7.13,-7.13,-7.27,1.64,1.53,1.54
131,8.69,7.16,8.50,6.99,-6.99,-7.21,1.70,1.51,1.53
133,8.22,6.72,8.33,6.83,-6.83,-7.07,1.38,1.50,1.50
134,8.05,6.56,8.15,6.67,-6.67,-7.00,1.38,1.48,1.49
135,7.89,6.42,7.97,6.51,-6.51,-6.92,1.38,1.46,1.47
137,7.71,6.27,7.78,6.35,-6.35,-6.75,1.36,1.43,1.44
138,7.72,6.29,7.58,6.20,-6.20,-6.66,1.52,1.39,1.43
140,7.43,6.03,7.40,6.05,-6.05,-6.48,1.37,1.34,1.39
141,7.15,5.77,7.24,5.93,-5.93,-6.39,1.22,1.31,1.38
142,6.97,5.60,7.11,5.83,-5.83,-6.29,1.14,1.27,1.37
144,7.02,5.68,7.01,5.76,-5.76,-6.10,1.26,1.26,1.34
145,7.02,5.70,6.95,5.71,-5.71,-6.00,1.31,1.24,1.32
147,6.75,5.45,6.91,5.67,-5.67,-5.81,1.07,1.24,1.29
148,6.68,5.40,6.87,5.64,-5.64,-5.71,1.03,1.23,1.28
150,6.62,5.36,6.82,5.61,-5.61,-5.52,1.01,1.21,1.25
151,6.55,5.30,6.76,5.56,-5.56,-5.42,0.99,1.20,1.24
153,6.79,5.57,6.68,5.48,-5.48,-5.23,1.31,1.20,1.22
154,6.85,5.64,6.58,5.38,-5.38,-5.14,1.47,1.20,1.21
156,6.70,5.51,6.43,5.24,-5.24,-4.95,1.46,1.20,1.19
157,6.62,5.44,6.24,5.06,-5.06,-4.86,1.55,1.17,1.18
159,6.23,5.07,6.00,4.86,-4.86,-4.68,1.37,1.14,1.15
160,6.00,4.85,5.73,4.63,-4.63,-4.59,1.37,1.10,1.14
162,5.51,4.39,5.45,4.39,-4.39,-4.42,1.12,1.06,1.12
164,5.13,4.03,5.15,4.13,-4.13,-4.26,0.99,1.01,1.10
165,4.87,3.78,4.85,3.89,-3.89,-4.17,0.98,0.96,1.09
167,4.43,3.36,4.58,3.67,-3.67,-4.02,0.76,0.91,1.07
169,4.05,3.00,4.35,3.48,-3.48,-3.86,0.56,0.87,1.04
170,3.89,2.86,4.19,3.34,-3.34,-3.79,0.54,0.85,1.03
172,3.75,2.74,4.09,3.26,-3.26,-3.64,0.49,0.83,1.01
174,3.77,2.78,4.06,3.24,-3.24,-3.50,0.53,0.82,0.99
175,3.84,2.85,4.09,3.26,-3.26,-3.43,0.58,0.83,0.98
177,4.05,3.08,4.16,3.32,-3.32,-3.30,0.72,0.84,0.97
179,4.30,3.34,4.28,3.41,-3.41,-3.17,0.88,0.86,0.95
181,4.59,3.64,4.40,3.52,-3.52,-3.05,1.07,0.88,0.94
183,4.86,3.92,4.52,3.62,-3.62,-2.93,1.24,0.90,0.94
184,4.96,4.01,4.65,3.71,-3.71,-2.87,1.25,0.94,0.94
186,4.86,3.91,4.74,3.78,-3.78,-2.75,1.08,0.96,0.95
188,4.90,3.95,4.79,3.83,-3.83,-2.64,1.07,0.97,0.95
190,4.98,4.02,4.81,3.84,-3.84,-2.54,1.14,0.97,0.95
192,4.79,3.83,4.79,3.82,-3.82,-2.43,0.97,0.97,0.96
194,4.72,3.75,4.72,3.77,-3.77,-2.33,0.95,0.95,0.96
196,4.58,3.61,4.63,3.69,-3.69,-2.24,0.89,0.94,0.97
198,4.43,3.45,4.51,3.59,-3.59,-2.14,0.84,0.92,0.97
200,4.35,3.37,4.38,3.47,-3.47,-2.05,0.88,0.92,0.97
202,4.17,3.19,4.26,3.34,-3.34,-1.97,0.83,0.92,0.97
204,4.06,3.08,4.14,3.21,-3.21,-1.88,0.85,0.93,0.97
206,3.97,3.00,4.02,3.09,-3.09,-1.80,0.88,0.93,0.97
208,3.89,2.93,3.89,2.96,-2.96,-1.73,0.92,0.92,0.96
210,3.75,2.79,3.76,2.84,-2.84,-1.65,0.90,0.92,0.95
212,3.67,2.72,3.65,2.72,-2.72,-1.58,0.94,0.92,0.94
214,3.61,2.67,3.52,2.60,-2.60,-1.51,1.01,0.92,0.93
216,3.44,2.51,3.39,2.47,-2.47,-1.44,0.97,0.92,0.92
218,3.31,2.39,3.26,2.34,-2.34,-1.37,0.96,0.92,0.91
221,3.12,2.22,3.12,2.21,-2.21,-1.28,0.91,0.91,0.90
223,2.96,2.06,2.98,2.08,-2.08,-1.22,0.88,0.91,0.90
225,2.83,1.94,2.84,1.94,-1.94,-1.17,0.89,0.90,0.89
227,2.71,1.82,2.69,1.80,-1.80,-1.11,0.91,0.89,0.89
229,2.59,1.70,2.55,1.66,-1.66,-1.06,0.92,0.89,0.89
232,2.37,1.48,2.41,1.53,-1.53,-0.99,0.84,0.88,0.89
234,2.23,1.33,2.28,1.39,-1.39,-0.94,0.84,0.89,0.90
236,2.14,1.23,2.15,1.26,-1.26,-0.90,0.88,0.89,0.91
239,2.01,1.09,2.05,1.14,-1.14,-0.83,0.87,0.91,0.91
241,1.95,1.02,1.94,1.02,-1.02,-0.80,0.92,0.92,0.93
244,1.80,0.86,1.85,0.91,-0.91,-0.74,0.89,0.94,0.94
246,1.77,0.81,1.76,0.81,-0.81,-0.71,0.96,0.95,0.96
248,1.67,0.70,1.67,0.71,-0.71,-0.68,0.96,0.96,0.97
251,1.57,0.59,1.58,0.62,-0.62,-0.63,0.95,0.96,0.98
253,1.54,0.54,1.51,0.53,-0.53,-0.61,1.01,0.98,0.99
256,1.53,0.53,1.44,0.45,-0.45,-0.57,1.08,0.99,1.00
259,1.39,0.38,1.37,0.37,-0.37,-0.54,1.02,1.00,1.01
261,1.33,0.31,1.30,0.30,-0.30,-0.52,1.03,1.00,1.01
264,1.18,0.16,1.23,0.22,-0.22,-0.49,0.95,1.00,1.01
266,1.16,0.14,1.16,0.16,-0.16,-0.47,1.00,1.00,1.01
269,1.08,0.06,1.11,0.10,-0.10,-0.45,0.98,1.01,1.01
272,1.01,-0.00,1.04,0.04,-0.04,-0.43,0.97,1.01,1.01
274,0.98,-0.03,0.99,-0.02,0.02,-0.42,1.00,1.01,1.01
277,0.98,-0.03,0.93,-0.07,0.07,-0.40,1.05,1.00,1.01
280,0.89,-0.12,0.88,-0.12,0.12,-0.39,1.01,1.00,1.01
283,0.81,-0.20,0.84,-0.16,0.16,-0.37,0.97,1.00,1.01
286,0.79,-0.23,0.81,-0.20,0.20,-0.36,0.99,1.01,1.01
288,0.80,-0.22,0.78,-0.24,0.24,-0.36,1.04,1.02,1.02
291,0.81,-0.22,0.76,-0.28,0.28,-0.35,1.08,1.03,1.03
294,0.70,-0.34,0.73,-0.31,0.31,-0.34,1.01,1.04,1.04
297,0.64,-0.41,0.70,-0.35,0.35,-0.34,0.98,1.05,1.04
300,0.66,-0.40,0.68,-0.38,0.38,-0.33,1.03,1.05,1.05
303,0.67,-0.40,0.65,-0.41,0.41,-0.33,1.08,1.06,1.06
306,0.68,-0.40,0.63,-0.44,0.44,-0.33,1.12,1.06,1.07
309,0.69,-0.40,0.61,-0.47,0.47,-0.33,1.15,1.07,1.08
312,0.61,-0.48,0.59,-0.49,0.49,-0.33,1.10,1.08,1.09
316,0.55,-0.55,0.56,-0.52,0.52,-0.33,1.07,1.08,1.09
319,0.51,-0.59,0.54,-0.54,0.54,-0.33,1.05,1.08,1.10
322,0.51,-0.59,0.53,-0.56,0.56,-0.33,1.06,1.08,1.10
325,0.51,-0.59,0.52,-0.57,0.57,-0.33,1.08,1.09,1.10
328,0.51,-0.59,0.51,-0.58,0.58,-0.33,1.08,1.09,1.10
332,0.50,-0.60,0.51,-0.58,0.58,-0.33,1.08,1.09,1.10
335,0.50,-0.60,0.51,-0.58,0.58,-0.34,1.08,1.09,1.10
338,0.50,-0.60,0.51,-0.58,0.58,-0.34,1.08,1.09,1.10
342,0.50,-0.60,0.52,-0.57,0.57,-0.34,1.07,1.09,1.10
345,0.50,-0.60,0.53,-0.56,0.56,-0.34,1.06,1.10,1.10
349,0.59,-0.51,0.55,-0.55,0.55,-0.35,1.14,1.10,1.10
352,0.60,-0.50,0.56,-0.54,0.54,-0.35,1.14,1.10,1.10
356,0.60,-0.51,0.57,-0.54,0.54,-0.36,1.13,1.10,1.10
359,0.60,-0.51,0.58,-0.53,0.53,-0.36,1.12,1.11,1.11
363,0.61,-0.51,0.60,-0.52,0.52,-0.36,1.12,1.11,1.11
366,0.61,-0.52,0.62,-0.51,0.51,-0.37,1.11,1.12,1.12
370,0.62,-0.51,0.63,-0.50,0.50,-0.37,1.12,1.13,1.13
374,0.63,-0.51,0.64,-0.49,0.49,-0.38,1.12,1.13,1.14
377,0.64,-0.51,0.65,-0.48,0.48,-0.38,1.12,1.13,1.15
381,0.64,-0.52,0.66,-0.47,0.47,-0.39,1.11,1.14,1.15
385,0.65,-0.51,0.68,-0.46,0.46,-0.39,1.11,1.14,1.16
389,0.77,-0.39,0.70,-0.44,0.44,-0.40,1.21,1.15,1.16
393,0.78,-0.39,0.73,-0.43,0.43,-0.40,1.20,1.15,1.16
397,0.76,-0.41,0.75,-0.40,0.40,-0.41,1.16,1.15,1.16
401,0.76,-0.41,0.77,-0.38,0.38,-0.41,1.14,1.15,1.16
405,0.74,-0.43,0.79,-0.36,0.36,-0.42,1.09,1.15,1.16
409,0.75,-0.41,0.83,-0.33,0.33,-0.42,1.08,1.16,1.16
413,0.91,-0.26,0.86,-0.31,0.31,-0.42,1.22,1.17,1.16
417,0.96,-0.21,0.89,-0.29,0.29,-0.43,1.24,1.18,1.17
421,0.94,-0.23,0.92,-0.26,0.26,-0.43,1.20,1.18,1.17
425,0.95,-0.24,0.95,-0.25,0.25,-0.43,1.19,1.19,1.18
430,0.96,-0.24,0.98,-0.23,0.23,-0.44,1.18,1.21,1.20
434,0.98,-0.25,1.02,-0.21,0.21,-0.44,1.18,1.23,1.22
438,1.13,-0.13,1.07,-0.19,0.19,-0.44,1.32,1.26,1.25
443,1.18,-0.11,1.12,-0.17,0.17,-0.44,1.34,1.28,1.29
447,1.19,-0.15,1.18,-0.14,0.14,-0.44,1.33,1.33,1.34
451,1.22,-0.17,1.26,-0.12,0.12,-0.44,1.33,1.38,1.39
456,1.25,-0.19,1.34,-0.09,0.09,-0.43,1.33,1.43,1.44
460,1.32,-0.18,1.42,-0.05,0.05,-0.43,1.37,1.48,1.50
465,1.53,-0.03,1.52,-0.01,0.01,-0.43,1.54,1.53,1.56
470,1.59,-0.03,1.62,0.03,-0.03,-0.42,1.56,1.59,1.61
474,1.67,-0.01,1.73,0.07,-0.07,-0.41,1.59,1.66,1.67
479,1.83,0.10,1.84,0.12,-0.12,-0.40,1.71,1.72,1.73
484,2.00,0.22,1.92,0.16,-0.16,-0.39,1.84,1.76,1.78
489,2.15,0.32,1.99,0.20,-0.20,-0.38,1.95,1.79,1.82
494,2.14,0.27,2.07,0.24,-0.24,-0.37,1.90,1.83,1.86
499,2.12,0.22,2.16,0.27,-0.27,-0.35,1.85,1.89,1.90
504,2.15,0.22,2.23,0.29,-0.29,-0.33,1.85,1.94,1.92
509,2.31,0.36,2.26,0.31,-0.31,-0.31,2.00,1.95,1.94
514,2.36,0.40,2.25,0.32,-0.32,-0.29,2.04,1.94,1.95
519,2.28,0.32,2.24,0.32,-0.32,-0.27,1.96,1.92,1.95
524,2.18,0.23,2.22,0.31,-0.31,-0.25,1.87,1.91,1.95
529,2.05,0.11,2.20,0.29,-0.29,-0.23,1.76,1.91,1.93
535,2.21,0.30,2.16,0.26,-0.26,-0.20,1.94,1.90,1.91
540,2.35,0.46,2.12,0.24,-0.24,-0.17,2.11,1.88,1.88
545,2.23,0.38,2.07,0.20,-0.20,-0.14,2.02,1.86,1.85
551,1.86,0.04,1.99,0.17,-0.17,-0.11,1.69,1.82,1.82
556,1.67,-0.12,1.91,0.14,-0.14,-0.08,1.53,1.77,1.78
562,1.71,-0.04,1.84,0.11,-0.11,-0.04,1.60,1.73,1.75
568,1.98,0.25,1.79,0.09,-0.09,-0.01,1.89,1.70,1.72
573,2.03,0.33,1.76,0.08,-0.08,0.02,1.95,1.68,1.70
579,1.84,0.16,1.73,0.08,-0.08,0.06,1.76,1.66,1.68
585,1.58,-0.09,1.73,0.09,-0.09,0.10,1.49,1.64,1.67
591,1.53,-0.14,1.74,0.11,-0.11,0.14,1.42,1.63,1.66
596,1.54,-0.13,1.77,0.15,-0.15,0.18,1.39,1.62,1.67
602,1.70,0.02,1.84,0.19,-0.19,0.22,1.50,1.65,1.68
608,1.99,0.30,1.93,0.25,-0.25,0.26,1.74,1.68,1.69
615,2.07,0.35,2.01,0.31,-0.31,0.31,1.75,1.70,1.71
621,2.11,0.36,2.10,0.38,-0.38,0.35,1.72,1.72,1.74
627,2.25,0.47,2.20,0.45,-0.45,0.39,1.79,1.74,1.78
633,2.41,0.59,2.32,0.52,-0.52,0.44,1.88,1.79,1.82
639,2.55,0.69,2.45,0.59,-0.59,0.48,1.96,1.86,1.86
646,2.55,0.64,2.58,0.65,-0.65,0.53,1.90,1.93,1.91
652,2.59,0.63,2.69,0.70,-0.70,0.57,1.89,1.99,1.96
659,2.79,0.78,2.77,0.74,-0.74,0.62,2.05,2.03,2.01
665,2.84,0.78,2.83,0.76,-0.76,0.67,2.07,2.07,2.06
672,2.91,0.79,2.88,0.78,-0.78,0.72,2.13,2.10,2.11
679,2.98,0.82,2.92,0.77,-0.77,0.77,2.20,2.15,2.16
686,2.94,0.73,2.95,0.76,-0.76,0.82,2.18,2.19,2.20
692,2.93,0.69,2.95,0.73,-0.73,0.87,2.20,2.23,2.24
699,2.98,0.70,2.93,0.68,-0.68,0.92,2.30,2.25,2.27
706,2.96,0.66,2.90,0.62,-0.62,0.97,2.34,2.28,2.30
713,2.88,0.57,2.86,0.54,-0.54,1.03,2.34,2.32,2.31
721,2.78,0.46,2.78,0.44,-0.44,1.09,2.34,2.34,2.32
728,2.66,0.34,2.68,0.34,-0.34,1.14,2.32,2.34,2.32
735,2.64,0.32,2.55,0.22,-0.22,1.20,2.42,2.34,2.32
742,2.49,0.17,2.41,0.09,-0.09,1.25,2.39,2.32,2.32
750,2.31,-0.01,2.27,-0.04,0.04,1.31,2.34,2.31,2.32
757,2.18,-0.14,2.14,-0.17,0.17,1.37,2.34,2.31,2.32
765,2.02,-0.31,2.01,-0.29,0.29,1.43,2.31,2.30,2.32
773,1.92,-0.41,1.89,-0.41,0.41,1.49,2.32,2.30,2.33
780,1.75,-0.59,1.78,-0.51,0.51,1.54,2.26,2.29,2.34
788,1.51,-0.84,1.70,-0.60,0.60,1.61,2.10,2.30,2.35
796,1.44,-0.93,1.64,-0.67,0.67,1.67,2.11,2.31,2.36
804,1.44,-0.94,1.60,-0.72,0.72,1.73,2.16,2.32,2.38
812,1.52,-0.88,1.59,-0.75,0.75,1.79,2.27,2.34,2.40
820,1.66,-0.76,1.60,-0.77,0.77,1.85,2.43,2.36,2.41
828,1.71,-0.72,1.61,-0.77,0.77,1.91,2.48,2.39,2.43
837,1.62,-0.83,1.64,-0.77,0.77,1.98,2.39,2.42,2.45
845,1.64,-0.82,1.67,-0.77,0.77,2.04,2.41,2.44,2.46
853,1.71,-0.76,1.69,-0.78,0.78,2.10,2.48,2.47,2.47
862,1.80,-0.68,1.71,-0.79,0.79,2.16,2.58,2.50,2.48
871,1.86,-0.63,1.70,-0.81,0.81,2.22,2.67,2.52,2.48
879,1.73,-0.76,1.66,-0.85,0.85,2.28,2.58,2.52,2.49
888,1.67,-0.83,1.60,-0.91,0.91,2.34,2.58,2.51,2.49
897,1.56,-0.94,1.52,-0.99,0.99,2.39,2.55,2.51,2.50
906,1.42,-1.09,1.42,-1.09,1.09,2.45,2.51,2.51,2.51
915,1.33,-1.18,1.31,-1.21,1.21,2.50,2.53,2.52,2.51
924,1.15,-1.37,1.19,-1.34,1.34,2.56,2.48,2.52,2.52
933,1.04,-1.49,1.05,-1.48,1.48,2.60,2.51,2.52,2.52
943,0.83,-1.71,0.90,-1.63,1.63,2.66,2.45,2.52,2.53
952,0.71,-1.83,0.74,-1.78,1.78,2.70,2.49,2.52,2.54
962,0.57,-1.98,0.59,-1.93,1.93,2.75,2.50,2.52,2.55
971,0.54,-2.03,0.45,-2.09,2.09,2.78,2.62,2.54,2.56
981,0.35,-2.23,0.33,-2.24,2.24,2.82,2.59,2.56,2.58
991,0.12,-2.48,0.20,-2.39,2.39,2.86,2.50,2.59,2.59
1001,-0.01,-2.62,0.07,-2.53,2.53,2.90,2.52,2.61,2.61
1011,-0.08,-2.71,-0.05,-2.68,2.68,2.93,2.60,2.63,2.63
1021,-0.16,-2.82,-0.17,-2.82,2.82,2.96,2.66,2.65,2.65
1031,-0.27,-2.95,-0.29,-2.97,2.97,2.98,2.69,2.68,2.68
1041,-0.44,-3.15,-0.40,-3.11,3.11,3.00,2.67,2.71,2.71
1052,-0.49,-3.23,-0.53,-3.26,3.26,3.03,2.77,2.73,2.73
1062,-0.55,-3.31,-0.66,-3.42,3.42,3.05,2.87,2.76,2.76
1073,-0.72,-3.51,-0.79,-3.58,3.58,3.07,2.85,2.79,2.79
1084,-0.96,-3.78,-0.91,-3.74,3.74,3.08,2.78,2.83,2.82
1094,-1.06,-3.91,-1.05,-3.91,3.91,3.10,2.85,2.87,2.85
1105,-1.18,-4.06,-1.19,-4.08,4.08,3.11,2.90,2.90,2.88
1116,-1.29,-4.21,-1.34,-4.26,4.26,3.13,2.97,2.92,2.91
1128,-1.46,-4.41,-1.49,-4.44,4.44,3.14,2.97,2.94,2.95
1139,-1.66,-4.65,-1.64,-4.61,4.61,3.15,2.95,2.98,2.98
1150,-1.82,-4.84,-1.77,-4.79,4.79,3.16,2.97,3.02,3.02
1162,-1.90,-4.96,-1.91,-4.96,4.96,3.18,3.06,3.05,3.05
1173,-2.00,-5.09,-2.05,-5.13,5.13,3.19,3.13,3.08,3.09
1185,-2.22,-5.35,-2.17,-5.29,5.29,3.20,3.07,3.12,3.13
1197,-2.30,-5.47,-2.28,-5.44,5.44,3.22,3.14,3.16,3.16
1209,-2.41,-5.61,-2.39,-5.58,5.58,3.23,3.17,3.19,3.20
1221,-2.56,-5.80,-2.50,-5.71,5.71,3.25,3.15,3.21,3.24
1233,-2.55,-5.82,-2.59,-5.83,5.81,3.27,3.26,3.22,3.27
1246,-2.59,-5.89,-2.67,-5.93,5.89,3.29,3.30,3.23,3.30
1258,-2.68,-6.01,-2.74,-6.02,5.94,3.31,3.26,3.21,3.32
1271,-2.84,-6.19,-2.80,-6.10,5.97,3.34,3.13,3.17,3.34
1283,-2.87,-6.23,-2.85,-6.15,5.99,3.36,3.12,3.14,3.36
1296,-2.89,-6.25,-2.89,-6.20,6.00,3.39,3.11,3.11,3.36
1309,-2.91,-6.27,-2.92,-6.22,6.00,3.42,3.09,3.08,3.36
1322,-2.95,-6.31,-2.94,-6.23,6.00,3.46,3.05,3.06,3.35
1335,-2.96,-6.30,-2.94,-6.23,6.00,3.49,3.04,3.06,3.34
1349,-2.90,-6.23,-2.94,-6.21,6.00,3.53,3.10,3.06,3.33
1362,-2.93,-6.24,-2.92,-6.17,6.00,3.57,3.07,3.08,3.31
1376,-2.89,-6.18,-2.88,-6.12,5.99,3.62,3.09,3.10,3.29
1390,-2.84,-6.11,-2.83,-6.05,5.95,3.67,3.11,3.12,3.26
1404,-2.78,-6.03,-2.77,-5.97,5.90,3.72,3.12,3.13,3.25
1418,-2.70,-5.93,-2.69,-5.87,5.84,3.78,3.13,3.14,3.23
1432,-2.57,-5.79,-2.60,-5.77,5.76,3.83,3.18,3.15,3.21
1446,-2.51,-5.72,-2.49,-5.66,5.66,3.89,3.15,3.17,3.21
1461,-2.37,-5.58,-2.37,-5.54,5.54,3.96,3.17,3.17,3.20
1475,-2.22,-5.43,-2.23,-5.41,5.41,4.02,3.19,3.18,3.20
1490,-2.12,-5.33,-2.09,-5.28,5.28,4.09,3.16,3.19,3.21
1505,-2.00,-5.22,-1.93,-5.14,5.14,4.16,3.14,3.21,3.21
1520,-1.81,-5.04,-1.79,-5.00,5.00,4.24,3.19,3.21,3.22
1535,-1.61,-4.85,-1.65,-4.85,4.85,4.31,3.24,3.21,3.24
1550,-1.37,-4.62,-1.50,-4.70,4.70,4.39,3.33,3.20,3.25
1566,-1.21,-4.48,-1.32,-4.54,4.54,4.47,3.33,3.22,3.27
1582,-1.04,-4.33,-1.12,-4.38,4.38,4.56,3.34,3.26,3.29
1597,-0.93,-4.25,-0.91,-4.22,4.22,4.64,3.28,3.30,3.32
1613,-0.80,-4.15,-0.71,-4.05,4.05,4.73,3.25,3.34,3.35
1629,-0.65,-4.03,-0.50,-3.89,3.89,4.82,3.23,3.39,3.38
1646,-0.45,-3.87,-0.29,-3.73,3.73,4.91,3.27,3.43,3.42
1662,-0.38,-3.85,-0.09,-3.57,3.57,5.00,3.19,3.48,3.46
1679,0.18,-3.34,0.11,-3.42,3.42,5.09,3.60,3.53,3.51
1696,0.46,-3.11,0.30,-3.29,3.29,5.18,3.74,3.59,3.57
1713,0.80,-2.84,0.48,-3.16,3.16,5.27,3.96,3.64,3.64
1730,0.90,-2.81,0.67,-3.06,3.06,5.35,3.96,3.72,3.71
1747,0.85,-2.95,0.84,-2.97,2.97,5.43,3.82,3.81,3.79
1764,0.92,-2.97,1.00,-2.90,2.90,5.51,3.82,3.90,3.89
1782,1.07,-2.91,1.15,-2.85,2.85,5.59,3.91,4.00,3.98
1800,1.22,-2.87,1.29,-2.81,2.81,5.66,4.03,4.10,4.08
1818,1.38,-2.81,1.41,-2.79,2.79,5.73,4.17,4.20,4.19
1836,1.50,-2.80,1.51,-2.79,2.79,5.79,4.28,4.30,4.29
1854,1.52,-2.89,1.58,-2.80,2.80,5.84,4.32,4.38,4.40
1873,1.57,-2.95,1.66,-2.83,2.83,5.88,4.39,4.48,4.52
1892,1.84,-2.79,1.73,-2.87,2.87,5.92,4.71,4.60,4.63
1911,1.79,-2.96,1.80,-2.93,2.93,5.94,4.72,4.73,4.74
1930,1.86,-3.00,1.86,-3.00,3.00,5.96,4.86,4.86,4.86
1949,2.02,-2.95,1.89,-3.09,3.09,5.96,5.11,4.98,4.97
1969,1.95,-3.13,1.90,-3.19,3.19,5.96,5.14,5.09,5.08
1988,1.93,-3.26,1.88,-3.32,3.32,5.94,5.25,5.20,5.19
2008,1.83,-3.46,1.84,-3.46,3.46,5.91,5.29,5.30,5.29
2028,1.84,-3.56,1.78,-3.62,3.62,5.87,5.46,5.40,5.39
2048,1.79,-3.71,1.72,-3.79,3.79,5.82,5.57,5.51,5.50
2069,1.69,-3.91,1.65,-3.97,3.97,5.75,5.65,5.62,5.60
