frequency,raw,smoothed,error,error_smoothed,equalization,parametric_eq,fixed_band_eq,equalized_raw,equalized_smoothed,target
20.00,-9.65,-9.65,-12.32,-12.32,6.00,6.99,2.44,-3.65,-3.65,2.67
20.20,-9.47,-9.48,-12.17,-12.18,6.00,6.95,2.51,-3.47,-3.48,2.70
20.40,-9.30,-9.30,-12.03,-12.03,6.00,6.91,2.59,-3.30,-3.30,2.73
20.61,-9.13,-9.13,-11.88,-11.88,6.00,6.87,2.66,-3.13,-3.13,2.75
20.81,-8.95,-8.96,-11.73,-11.74,6.00,6.83,2.74,-2.95,-2.96,2.78
21.02,-8.78,-8.78,-11.59,-11.58,6.00,6.79,2.82,-2.78,-2.78,2.81
21.23,-8.60,-8.60,-11.42,-11.42,6.00,6.75,2.90,-2.60,-2.60,2.82
21.44,-8.42,-8.42,-11.25,-11.25,6.00,6.70,2.99,-2.42,-2.42,2.83
21.66,-8.23,-8.23,-11.07,-11.07,6.00,6.66,3.07,-2.23,-2.23,2.84
21.87,-8.05,-8.05,-10.89,-10.89,6.00,6.62,3.16,-2.05,-2.05,2.84
22.09,-7.88,-7.88,-10.73,-10.72,6.00,6.58,3.25,-1.88,-1.88,2.85
22.31,-7.70,-7.70,-10.55,-10.55,6.00,6.53,3.35,-1.70,-1.70,2.85
22.54,-7.53,-7.53,-10.38,-10.38,6.00,6.49,3.44,-1.53,-1.53,2.85
22.76,-7.36,-7.36,-10.20,-10.20,6.00,6.44,3.54,-1.36,-1.36,2.84
22.99,-7.19,-7.19,-10.03,-10.03,6.00,6.40,3.64,-1.19,-1.19,2.83
23.22,-7.03,-7.03,-9.87,-9.86,6.00,6.35,3.75,-1.03,-1.03,2.83
23.45,-6.87,-6.87,-9.70,-9.70,6.00,6.31,3.86,-0.87,-0.87,2.83
23.69,-6.71,-6.71,-9.55,-9.54,6.00,6.26,3.96,-0.71,-0.71,2.83
23.92,-6.55,-6.55,-9.38,-9.38,6.00,6.22,4.07,-0.55,-0.55,2.83
24.16,-6.39,-6.39,-9.23,-9.23,6.00,6.17,4.19,-0.39,-0.39,2.84
24.40,-6.23,-6.23,-9.07,-9.07,6.00,6.12,4.30,-0.23,-0.23,2.84
24.65,-6.08,-6.08,-8.91,-8.91,6.00,6.07,4.42,-0.08,-0.08,2.83
24.89,-5.92,-5.92,-8.75,-8.75,6.00,6.03,4.54,0.08,0.08,2.83
25.14,-5.76,-5.76,-8.59,-8.59,6.00,5.98,4.65,0.24,0.24,2.83
25.39,-5.60,-5.60,-8.42,-8.43,6.00,5.93,4.77,0.40,0.40,2.83
25.65,-5.45,-5.45,-8.28,-8.27,6.00,5.88,4.89,0.55,0.55,2.82
25.91,-5.29,-5.29,-8.11,-8.11,6.00,5.83,5.01,0.71,0.71,2.81
26.16,-5.14,-5.14,-7.95,-7.96,6.00,5.78,5.13,0.86,0.86,2.81
26.43,-4.99,-4.99,-7.81,-7.80,6.00,5.73,5.25,1.01,1.01,2.81
26.69,-4.85,-4.85,-7.66,-7.66,6.00,5.68,5.37,1.15,1.15,2.81
26.96,-4.71,-4.71,-7.52,-7.52,6.00,5.63,5.49,1.29,1.29,2.81
27.23,-4.57,-4.57,-7.38,-7.38,6.00,5.57,5.60,1.43,1.43,2.81
27.50,-4.43,-4.43,-7.24,-7.24,6.00,5.52,5.71,1.57,1.57,2.81
27.77,-4.30,-4.30,-7.09,-7.10,6.00,5.47,5.81,1.70,1.70,2.79
28.05,-4.16,-4.16,-6.95,-6.95,6.00,5.42,5.91,1.84,1.84,2.79
28.33,-4.03,-4.03,-6.81,-6.81,6.00,5.36,6.01,1.97,1.98,2.78
28.62,-3.89,-3.90,-6.67,-6.68,6.01,5.31,6.10,2.12,2.12,2.78
28.90,-3.77,-3.77,-6.55,-6.54,6.02,5.26,6.18,2.25,2.25,2.78
29.19,-3.64,-3.65,-6.41,-6.42,6.02,5.20,6.25,2.38,2.38,2.77
29.48,-3.53,-3.53,-6.31,-6.30,6.01,5.15,6.31,2.48,2.48,2.78
29.78,-3.41,-3.41,-6.18,-6.18,5.98,5.09,6.37,2.57,2.57,2.76
30.08,-3.30,-3.30,-6.06,-6.06,5.94,5.04,6.41,2.63,2.64,2.76
30.38,-3.18,-3.18,-5.93,-5.93,5.87,4.98,6.45,2.69,2.69,2.75
30.68,-3.06,-3.06,-5.81,-5.81,5.79,4.92,6.46,2.73,2.73,2.75
30.99,-2.94,-2.95,-5.68,-5.68,5.70,4.87,6.48,2.76,2.75,2.74
31.30,-2.83,-2.83,-5.57,-5.57,5.59,4.81,6.47,2.76,2.76,2.73
31.61,-2.72,-2.72,-5.45,-5.45,5.47,4.75,6.46,2.75,2.75,2.73
31.93,-2.61,-2.61,-5.33,-5.33,5.35,4.70,6.44,2.73,2.73,2.72
32.24,-2.51,-2.51,-5.22,-5.22,5.22,4.64,6.40,2.71,2.71,2.71
32.57,-2.41,-2.41,-5.12,-5.11,5.11,4.58,6.35,2.70,2.70,2.70
32.89,-2.31,-2.31,-5.01,-5.01,5.00,4.52,6.30,2.69,2.69,2.70
33.22,-2.21,-2.21,-4.90,-4.90,4.90,4.46,6.22,2.69,2.69,2.69
33.55,-2.11,-2.11,-4.80,-4.80,4.80,4.40,6.15,2.69,2.69,2.69
33.89,-2.02,-2.02,-4.69,-4.70,4.71,4.35,6.06,2.69,2.68,2.67
34.23,-1.94,-1.94,-4.61,-4.61,4.62,4.29,5.97,2.68,2.68,2.67
34.57,-1.87,-1.87,-4.53,-4.53,4.53,4.23,5.86,2.66,2.66,2.66
34.92,-1.80,-1.80,-4.45,-4.45,4.45,4.17,5.76,2.65,2.65,2.64
35.27,-1.74,-1.74,-4.38,-4.37,4.37,4.11,5.64,2.63,2.64,2.64
35.62,-1.67,-1.67,-4.30,-4.30,4.29,4.05,5.53,2.62,2.62,2.63
35.97,-1.60,-1.60,-4.21,-4.22,4.21,3.98,5.40,2.61,2.61,2.61
36.33,-1.53,-1.53,-4.14,-4.13,4.13,3.92,5.28,2.60,2.60,2.61
36.70,-1.44,-1.45,-4.04,-4.04,4.03,3.86,5.15,2.59,2.59,2.60
37.06,-1.36,-1.36,-3.94,-3.94,3.94,3.80,5.02,2.58,2.58,2.58
37.43,-1.26,-1.26,-3.84,-3.83,3.83,3.74,4.89,2.57,2.57,2.58
37.81,-1.16,-1.16,-3.72,-3.73,3.73,3.68,4.75,2.56,2.56,2.56
38.19,-1.06,-1.06,-3.61,-3.62,3.61,3.62,4.62,2.55,2.55,2.55
38.57,-0.96,-0.96,-3.51,-3.50,3.50,3.55,4.49,2.54,2.54,2.54
38.95,-0.86,-0.86,-3.39,-3.38,3.38,3.49,4.35,2.52,2.53,2.53
39.34,-0.75,-0.75,-3.26,-3.27,3.27,3.43,4.22,2.52,2.51,2.51
39.74,-0.65,-0.65,-3.15,-3.15,3.16,3.37,4.09,2.50,2.50,2.50
40.14,-0.55,-0.55,-3.05,-3.04,3.05,3.30,3.96,2.49,2.49,2.49
40.54,-0.46,-0.46,-2.94,-2.94,2.95,3.24,3.83,2.48,2.48,2.48
40.94,-0.37,-0.37,-2.84,-2.84,2.85,3.18,3.70,2.48,2.48,2.47
41.35,-0.29,-0.29,-2.75,-2.75,2.76,3.12,3.58,2.47,2.46,2.46
41.76,-0.22,-0.22,-2.67,-2.67,2.67,3.05,3.45,2.45,2.45,2.45
42.18,-0.16,-0.16,-2.60,-2.60,2.59,2.99,3.33,2.43,2.44,2.44
42.60,-0.10,-0.10,-2.53,-2.53,2.52,2.93,3.21,2.42,2.42,2.43
43.03,-0.04,-0.04,-2.46,-2.46,2.45,2.86,3.09,2.41,2.41,2.42
43.46,0.01,0.00,-2.39,-2.39,2.39,2.80,2.98,2.40,2.39,2.40
43.90,0.04,0.05,-2.34,-2.33,2.33,2.74,2.86,2.37,2.38,2.37
44.33,0.08,0.07,-2.28,-2.28,2.28,2.67,2.75,2.36,2.36,2.36
44.78,0.10,0.10,-2.24,-2.24,2.24,2.61,2.64,2.34,2.34,2.34
45.23,0.11,0.11,-2.21,-2.21,2.22,2.55,2.53,2.32,2.33,2.32
45.68,0.12,0.12,-2.18,-2.19,2.20,2.48,2.43,2.32,2.31,2.30
46.13,0.11,0.11,-2.17,-2.18,2.19,2.42,2.33,2.30,2.30,2.28
46.60,0.09,0.09,-2.18,-2.18,2.20,2.36,2.23,2.29,2.28,2.27
47.06,0.05,0.05,-2.21,-2.20,2.21,2.29,2.13,2.26,2.26,2.25
47.53,0.02,0.01,-2.22,-2.22,2.23,2.23,2.03,2.25,2.24,2.23
48.01,-0.03,-0.03,-2.25,-2.25,2.25,2.17,1.93,2.21,2.22,2.22
48.49,-0.07,-0.07,-2.26,-2.27,2.26,2.11,1.84,2.19,2.19,2.19
48.97,-0.11,-0.11,-2.27,-2.28,2.27,2.04,1.75,2.15,2.15,2.16
49.46,-0.14,-0.14,-2.27,-2.27,2.26,1.98,1.66,2.12,2.12,2.13
49.96,-0.15,-0.14,-2.25,-2.25,2.24,1.92,1.57,2.09,2.09,2.10
50.46,-0.12,-0.13,-2.21,-2.21,2.20,1.86,1.48,2.08,2.07,2.09
50.96,-0.09,-0.09,-2.16,-2.15,2.14,1.79,1.40,2.05,2.05,2.06
51.47,-0.03,-0.03,-2.06,-2.07,2.07,1.73,1.32,2.04,2.03,2.03
51.99,0.03,0.03,-1.98,-1.98,1.97,1.67,1.24,2.00,2.00,2.01
52.51,0.12,0.12,-1.88,-1.87,1.86,1.61,1.16,1.98,1.98,1.99
53.03,0.21,0.22,-1.76,-1.75,1.74,1.55,1.08,1.95,1.95,1.97
53.56,0.34,0.33,-1.61,-1.61,1.60,1.49,1.00,1.94,1.94,1.94
54.10,0.46,0.46,-1.46,-1.46,1.46,1.43,0.93,1.92,1.92,1.92
54.64,0.59,0.59,-1.30,-1.30,1.31,1.37,0.86,1.90,1.90,1.89
55.18,0.72,0.71,-1.15,-1.15,1.17,1.31,0.79,1.89,1.88,1.87
55.74,0.83,0.83,-1.01,-1.01,1.02,1.25,0.72,1.85,1.85,1.84
56.29,0.94,0.94,-0.88,-0.88,0.88,1.19,0.65,1.82,1.82,1.82
56.86,1.04,1.04,-0.76,-0.75,0.76,1.13,0.59,1.79,1.80,1.79
57.42,1.14,1.14,-0.63,-0.63,0.64,1.07,0.53,1.78,1.78,1.76
58.00,1.22,1.22,-0.53,-0.52,0.53,1.01,0.46,1.75,1.75,1.75
58.58,1.30,1.30,-0.43,-0.43,0.43,0.95,0.41,1.73,1.73,1.73
59.16,1.36,1.36,-0.35,-0.34,0.34,0.89,0.35,1.70,1.70,1.71
59.76,1.42,1.42,-0.27,-0.26,0.26,0.84,0.30,1.67,1.67,1.68
60.35,1.47,1.47,-0.18,-0.19,0.18,0.78,0.24,1.65,1.65,1.65
60.96,1.51,1.51,-0.12,-0.11,0.11,0.72,0.19,1.62,1.62,1.63
61.57,1.55,1.54,-0.04,-0.05,0.04,0.67,0.14,1.59,1.59,1.59
62.18,1.57,1.57,0.02,0.01,-0.01,0.61,0.10,1.56,1.56,1.55
62.80,1.59,1.59,0.06,0.07,-0.06,0.56,0.05,1.53,1.53,1.53
63.43,1.60,1.60,0.11,0.10,-0.10,0.50,0.01,1.50,1.50,1.49
64.07,1.60,1.60,0.13,0.13,-0.13,0.45,-0.03,1.47,1.47,1.47
64.71,1.59,1.59,0.15,0.15,-0.15,0.39,-0.07,1.44,1.44,1.44
65.35,1.57,1.57,0.16,0.16,-0.15,0.34,-0.11,1.41,1.41,1.41
66.01,1.54,1.54,0.15,0.15,-0.15,0.29,-0.15,1.38,1.38,1.39
66.67,1.51,1.51,0.15,0.15,-0.15,0.23,-0.18,1.36,1.36,1.36
67.33,1.46,1.46,0.13,0.14,-0.13,0.18,-0.21,1.33,1.33,1.33
68.01,1.42,1.41,0.12,0.12,-0.11,0.13,-0.25,1.31,1.30,1.30
68.69,1.36,1.36,0.09,0.10,-0.09,0.08,-0.28,1.27,1.27,1.26
69.37,1.30,1.30,0.07,0.07,-0.07,0.03,-0.31,1.23,1.23,1.23
70.07,1.25,1.24,0.05,0.04,-0.05,-0.02,-0.34,1.20,1.20,1.20
70.77,1.19,1.19,0.01,0.02,-0.03,-0.07,-0.36,1.16,1.17,1.18
71.48,1.15,1.15,0.01,0.01,-0.01,-0.12,-0.39,1.14,1.14,1.14
72.19,1.11,1.11,0.00,-0.00,-0.00,-0.17,-0.42,1.10,1.10,1.11
72.91,1.07,1.07,-0.00,-0.00,-0.00,-0.22,-0.45,1.07,1.07,1.07
73.64,1.04,1.04,0.00,0.00,-0.01,-0.27,-0.47,1.03,1.03,1.03
74.38,1.02,1.02,0.01,0.02,-0.02,-0.32,-0.50,1.00,1.00,1.01
75.12,1.01,1.01,0.04,0.04,-0.04,-0.36,-0.52,0.97,0.97,0.97
75.87,1.00,1.00,0.06,0.06,-0.06,-0.41,-0.55,0.94,0.94,0.94
76.63,1.00,1.00,0.09,0.09,-0.09,-0.45,-0.58,0.91,0.91,0.91
77.40,1.00,1.00,0.12,0.13,-0.13,-0.50,-0.60,0.87,0.87,0.88
78.17,1.01,1.01,0.17,0.17,-0.17,-0.54,-0.63,0.84,0.84,0.84
78.95,1.02,1.02,0.21,0.21,-0.21,-0.59,-0.66,0.81,0.81,0.81
79.74,1.04,1.04,0.26,0.26,-0.26,-0.63,-0.69,0.78,0.78,0.78
80.54,1.06,1.06,0.31,0.31,-0.31,-0.68,-0.72,0.75,0.75,0.75
81.35,1.08,1.08,0.37,0.37,-0.37,-0.72,-0.74,0.71,0.71,0.71
82.16,1.11,1.10,0.43,0.43,-0.43,-0.76,-0.77,0.68,0.68,0.67
82.98,1.13,1.13,0.48,0.49,-0.49,-0.80,-0.80,0.64,0.64,0.65
83.81,1.16,1.16,0.56,0.55,-0.56,-0.84,-0.84,0.60,0.60,0.60
84.65,1.19,1.19,0.63,0.62,-0.63,-0.88,-0.87,0.56,0.56,0.56
85.50,1.23,1.23,0.69,0.69,-0.70,-0.92,-0.90,0.53,0.53,0.53
86.35,1.26,1.26,0.76,0.76,-0.77,-0.96,-0.94,0.49,0.49,0.50
87.22,1.29,1.29,0.83,0.83,-0.84,-1.00,-0.97,0.45,0.45,0.46
88.09,1.32,1.32,0.90,0.90,-0.90,-1.04,-1.01,0.42,0.41,0.42
88.97,1.34,1.34,0.95,0.96,-0.96,-1.08,-1.04,0.38,0.38,0.38
89.86,1.36,1.36,1.02,1.02,-1.01,-1.11,-1.08,0.35,0.35,0.34
90.76,1.37,1.37,1.08,1.07,-1.05,-1.15,-1.12,0.32,0.32,0.29
91.66,1.36,1.36,1.10,1.11,-1.08,-1.19,-1.16,0.28,0.28,0.26
92.58,1.34,1.33,1.13,1.12,-1.10,-1.22,-1.20,0.24,0.23,0.21
93.51,1.30,1.30,1.13,1.13,-1.12,-1.25,-1.24,0.18,0.18,0.17
94.44,1.25,1.25,1.12,1.12,-1.14,-1.29,-1.28,0.11,0.11,0.13
95.39,1.21,1.21,1.13,1.13,-1.16,-1.32,-1.33,0.05,0.05,0.08
96.34,1.18,1.19,1.15,1.15,-1.18,-1.35,-1.37,-0.00,0.00,0.03
97.30,1.18,1.18,1.20,1.19,-1.22,-1.38,-1.41,-0.04,-0.04,-0.02
98.28,1.19,1.19,1.25,1.25,-1.26,-1.41,-1.46,-0.07,-0.07,-0.06
99.26,1.20,1.20,1.31,1.31,-1.31,-1.44,-1.50,-0.11,-0.11,-0.11
100.25,1.22,1.22,1.37,1.37,-1.36,-1.47,-1.55,-0.14,-0.15,-0.15
101.25,1.23,1.23,1.43,1.43,-1.42,-1.50,-1.59,-0.19,-0.19,-0.20
102.27,1.23,1.23,1.47,1.48,-1.47,-1.52,-1.64,-0.24,-0.24,-0.25
103.29,1.23,1.22,1.53,1.52,-1.51,-1.55,-1.68,-0.28,-0.29,-0.30
104.32,1.21,1.21,1.55,1.55,-1.55,-1.57,-1.73,-0.34,-0.34,-0.34
105.37,1.19,1.19,1.57,1.57,-1.57,-1.60,-1.77,-0.39,-0.38,-0.38
106.42,1.16,1.16,1.59,1.59,-1.59,-1.62,-1.81,-0.43,-0.43,-0.43
107.48,1.12,1.12,1.60,1.60,-1.60,-1.64,-1.85,-0.48,-0.48,-0.48
108.56,1.07,1.07,1.60,1.60,-1.59,-1.66,-1.89,-0.52,-0.52,-0.53
109.64,1.01,1.01,1.59,1.58,-1.58,-1.68,-1.93,-0.57,-0.57,-0.58
110.74,0.94,0.94,1.56,1.57,-1.56,-1.69,-1.96,-0.62,-0.62,-0.63
111.85,0.86,0.86,1.53,1.54,-1.53,-1.71,-2.00,-0.67,-0.67,-0.67
112.97,0.78,0.78,1.52,1.51,-1.50,-1.73,-2.02,-0.72,-0.72,-0.74
114.10,0.69,0.69,1.47,1.47,-1.47,-1.74,-2.05,-0.78,-0.78,-0.78
115.24,0.60,0.60,1.44,1.43,-1.43,-1.75,-2.07,-0.83,-0.84,-0.84
116.39,0.51,0.51,1.40,1.40,-1.41,-1.76,-2.09,-0.90,-0.90,-0.89
117.55,0.43,0.44,1.37,1.38,-1.39,-1.77,-2.11,-0.96,-0.96,-0.95
118.73,0.38,0.38,1.38,1.37,-1.39,-1.78,-2.12,-1.01,-1.01,-1.00
119.92,0.34,0.33,1.38,1.38,-1.40,-1.79,-2.12,-1.06,-1.06,-1.04
121.12,0.31,0.31,1.40,1.41,-1.42,-1.79,-2.13,-1.12,-1.11,-1.10
122.33,0.31,0.31,1.46,1.45,-1.47,-1.80,-2.12,-1.16,-1.16,-1.15
123.55,0.33,0.32,1.52,1.52,-1.53,-1.80,-2.11,-1.20,-1.20,-1.19
124.79,0.35,0.35,1.59,1.59,-1.59,-1.80,-2.09,-1.25,-1.24,-1.24
126.03,0.38,0.38,1.67,1.67,-1.67,-1.80,-2.08,-1.29,-1.29,-1.29
127.29,0.41,0.41,1.75,1.75,-1.74,-1.79,-2.05,-1.33,-1.34,-1.34
128.57,0.43,0.43,1.83,1.83,-1.81,-1.79,-2.02,-1.39,-1.38,-1.40
129.85,0.45,0.45,1.90,1.90,-1.88,-1.78,-1.98,-1.43,-1.43,-1.45
131.15,0.46,0.45,1.96,1.95,-1.94,-1.77,-1.94,-1.48,-1.49,-1.50
132.46,0.45,0.45,1.99,1.99,-1.99,-1.76,-1.90,-1.54,-1.54,-1.54
133.79,0.44,0.44,2.02,2.03,-2.03,-1.75,-1.85,-1.59,-1.59,-1.58
135.12,0.42,0.42,2.06,2.05,-2.05,-1.74,-1.79,-1.63,-1.64,-1.64
136.48,0.39,0.39,2.06,2.07,-2.07,-1.72,-1.73,-1.68,-1.68,-1.67
137.84,0.36,0.36,2.07,2.08,-2.08,-1.70,-1.67,-1.72,-1.72,-1.72
139.22,0.32,0.32,2.09,2.08,-2.08,-1.68,-1.60,-1.76,-1.76,-1.77
140.61,0.27,0.27,2.08,2.07,-2.07,-1.66,-1.53,-1.80,-1.80,-1.81
142.02,0.21,0.21,2.04,2.05,-2.05,-1.64,-1.45,-1.84,-1.84,-1.83
143.44,0.15,0.15,2.02,2.03,-2.03,-1.61,-1.38,-1.88,-1.88,-1.88
144.87,0.09,0.09,2.00,2.00,-2.00,-1.58,-1.30,-1.92,-1.92,-1.92
146.32,0.02,0.02,1.97,1.97,-1.97,-1.55,-1.21,-1.95,-1.95,-1.96
147.78,-0.06,-0.06,1.92,1.93,-1.93,-1.52,-1.13,-1.99,-1.99,-1.98
149.26,-0.14,-0.14,1.88,1.89,-1.89,-1.48,-1.04,-2.03,-2.03,-2.02
150.75,-0.22,-0.23,1.85,1.84,-1.84,-1.45,-0.95,-2.06,-2.07,-2.07
152.26,-0.31,-0.31,1.79,1.79,-1.79,-1.41,-0.86,-2.11,-2.11,-2.11
153.78,-0.41,-0.41,1.73,1.74,-1.74,-1.37,-0.77,-2.15,-2.15,-2.14
155.32,-0.50,-0.51,1.68,1.68,-1.68,-1.32,-0.68,-2.18,-2.19,-2.19
156.88,-0.61,-0.61,1.61,1.61,-1.62,-1.28,-0.59,-2.23,-2.23,-2.22
158.44,-0.72,-0.72,1.54,1.55,-1.55,-1.23,-0.49,-2.27,-2.26,-2.26
160.03,-0.83,-0.84,1.47,1.47,-1.46,-1.18,-0.40,-2.29,-2.30,-2.31
161.63,-0.96,-0.96,1.39,1.38,-1.37,-1.12,-0.30,-2.33,-2.33,-2.35
163.24,-1.10,-1.10,1.29,1.28,-1.26,-1.07,-0.20,-2.36,-2.36,-2.39
164.88,-1.25,-1.25,1.17,1.17,-1.14,-1.01,-0.11,-2.39,-2.39,-2.42
166.53,-1.41,-1.42,1.05,1.04,-1.02,-0.95,-0.01,-2.43,-2.44,-2.46
168.19,-1.59,-1.59,0.90,0.90,-0.90,-0.88,0.09,-2.49,-2.50,-2.50
169.87,-1.77,-1.77,0.76,0.76,-0.79,-0.82,0.19,-2.56,-2.56,-2.53
171.57,-1.93,-1.93,0.64,0.64,-0.69,-0.75,0.29,-2.62,-2.62,-2.57
173.29,-2.06,-2.06,0.54,0.55,-0.60,-0.68,0.39,-2.66,-2.65,-2.61
175.02,-2.16,-2.16,0.48,0.49,-0.52,-0.60,0.49,-2.68,-2.67,-2.64
176.77,-2.23,-2.24,0.45,0.45,-0.45,-0.52,0.59,-2.68,-2.68,-2.69
178.54,-2.32,-2.32,0.41,0.40,-0.38,-0.44,0.69,-2.70,-2.70,-2.73
180.32,-2.41,-2.42,0.35,0.35,-0.31,-0.36,0.79,-2.73,-2.73,-2.76
182.13,-2.53,-2.53,0.26,0.27,-0.24,-0.28,0.90,-2.78,-2.78,-2.80
183.95,-2.66,-2.66,0.18,0.18,-0.17,-0.19,1.00,-2.83,-2.82,-2.84
185.79,-2.79,-2.80,0.08,0.08,-0.07,-0.10,1.10,-2.87,-2.87,-2.87
187.65,-2.94,-2.94,-0.03,-0.03,0.03,-0.01,1.20,-2.91,-2.91,-2.91
189.52,-3.09,-3.09,-0.15,-0.15,0.14,0.09,1.31,-2.95,-2.94,-2.94
191.42,-3.24,-3.24,-0.27,-0.27,0.27,0.19,1.41,-2.97,-2.97,-2.97
193.33,-3.39,-3.39,-0.39,-0.40,0.39,0.29,1.51,-3.00,-3.00,-3.00
195.27,-3.55,-3.55,-0.52,-0.53,0.53,0.39,1.62,-3.02,-3.03,-3.03
197.22,-3.72,-3.72,-0.67,-0.66,0.66,0.50,1.72,-3.06,-3.06,-3.05
199.19,-3.88,-3.88,-0.79,-0.80,0.80,0.61,1.83,-3.08,-3.08,-3.09
201.18,-4.05,-4.05,-0.94,-0.94,0.94,0.72,1.93,-3.11,-3.11,-3.11
203.19,-4.21,-4.21,-1.09,-1.08,1.09,0.84,2.03,-3.13,-3.12,-3.12
205.23,-4.37,-4.38,-1.22,-1.23,1.23,0.95,2.13,-3.14,-3.15,-3.15
207.28,-4.54,-4.54,-1.39,-1.38,1.38,1.07,2.23,-3.17,-3.16,-3.15
209.35,-4.70,-4.70,-1.52,-1.52,1.52,1.19,2.33,-3.18,-3.18,-3.18
211.44,-4.85,-4.85,-1.65,-1.66,1.66,1.32,2.43,-3.20,-3.20,-3.20
213.56,-5.00,-5.00,-1.79,-1.79,1.79,1.44,2.52,-3.21,-3.21,-3.21
215.69,-5.14,-5.14,-1.93,-1.92,1.92,1.57,2.62,-3.22,-3.22,-3.21
217.85,-5.27,-5.27,-2.05,-2.05,2.04,1.70,2.71,-3.23,-3.23,-3.22
220.03,-5.39,-5.39,-2.16,-2.16,2.16,1.82,2.80,-3.23,-3.24,-3.24
222.23,-5.51,-5.51,-2.26,-2.27,2.27,1.95,2.88,-3.24,-3.24,-3.25
224.45,-5.62,-5.62,-2.38,-2.38,2.38,2.09,2.96,-3.24,-3.24,-3.24
226.70,-5.72,-5.72,-2.48,-2.48,2.48,2.22,3.04,-3.24,-3.24,-3.24
228.96,-5.82,-5.82,-2.58,-2.58,2.58,2.35,3.11,-3.24,-3.24,-3.24
231.25,-5.91,-5.92,-2.68,-2.68,2.68,2.48,3.18,-3.23,-3.23,-3.23
233.57,-6.01,-6.01,-2.78,-2.78,2.78,2.61,3.24,-3.23,-3.23,-3.23
235.90,-6.10,-6.10,-2.87,-2.87,2.87,2.74,3.29,-3.23,-3.23,-3.23
238.26,-6.18,-6.19,-2.95,-2.96,2.96,2.86,3.34,-3.22,-3.23,-3.23
240.64,-6.27,-6.27,-3.05,-3.05,3.05,2.99,3.38,-3.22,-3.22,-3.22
243.05,-6.35,-6.35,-3.14,-3.14,3.14,3.11,3.42,-3.22,-3.21,-3.21
245.48,-6.41,-6.42,-3.22,-3.22,3.22,3.23,3.45,-3.19,-3.20,-3.20
247.93,-6.48,-6.48,-3.30,-3.29,3.30,3.34,3.47,-3.18,-3.18,-3.18
250.41,-6.54,-6.54,-3.36,-3.37,3.37,3.45,3.49,-3.17,-3.17,-3.18
252.92,-6.60,-6.60,-3.44,-3.44,3.44,3.55,3.50,-3.16,-3.16,-3.16
255.45,-6.65,-6.65,-3.51,-3.51,3.50,3.65,3.50,-3.15,-3.15,-3.14
258.00,-6.69,-6.69,-3.57,-3.57,3.55,3.74,3.49,-3.14,-3.14,-3.12
260.58,-6.71,-6.71,-3.60,-3.60,3.59,3.82,3.48,-3.12,-3.12,-3.11
263.19,-6.72,-6.72,-3.63,-3.63,3.63,3.90,3.46,-3.10,-3.09,-3.09
265.82,-6.72,-6.72,-3.65,-3.65,3.65,3.96,3.44,-3.07,-3.07,-3.07
268.48,-6.71,-6.72,-3.66,-3.67,3.67,4.02,3.41,-3.04,-3.05,-3.05
271.16,-6.71,-6.71,-3.69,-3.68,3.68,4.07,3.37,-3.03,-3.02,-3.03
273.87,-6.70,-6.70,-3.69,-3.69,3.69,4.11,3.33,-3.01,-3.01,-3.01
276.61,-6.69,-6.69,-3.70,-3.70,3.70,4.14,3.28,-2.99,-2.99,-2.99
279.38,-6.68,-6.68,-3.71,-3.71,3.71,4.16,3.23,-2.97,-2.97,-2.97
282.17,-6.67,-6.67,-3.71,-3.72,3.72,4.17,3.18,-2.95,-2.95,-2.96
284.99,-6.66,-6.66,-3.73,-3.73,3.73,4.17,3.12,-2.93,-2.93,-2.93
287.84,-6.65,-6.65,-3.73,-3.73,3.73,4.16,3.06,-2.92,-2.91,-2.92
290.72,-6.63,-6.64,-3.74,-3.74,3.74,4.14,3.00,-2.89,-2.89,-2.89
293.63,-6.62,-6.62,-3.75,-3.75,3.75,4.12,2.93,-2.87,-2.87,-2.88
296.57,-6.61,-6.61,-3.76,-3.75,3.76,4.08,2.87,-2.85,-2.85,-2.85
299.53,-6.59,-6.60,-3.76,-3.76,3.77,4.04,2.80,-2.83,-2.83,-2.83
302.53,-6.58,-6.58,-3.76,-3.77,3.77,3.99,2.73,-2.81,-2.81,-2.82
305.55,-6.56,-6.56,-3.78,-3.77,3.78,3.93,2.66,-2.78,-2.78,-2.78
308.61,-6.54,-6.54,-3.78,-3.78,3.78,3.87,2.60,-2.77,-2.77,-2.77
311.69,-6.51,-6.51,-3.77,-3.78,3.77,3.80,2.53,-2.74,-2.74,-2.74
314.81,-6.48,-6.48,-3.78,-3.77,3.76,3.73,2.46,-2.72,-2.72,-2.70
317.96,-6.43,-6.43,-3.75,-3.75,3.74,3.66,2.39,-2.69,-2.70,-2.69
321.14,-6.38,-6.38,-3.71,-3.71,3.71,3.58,2.32,-2.67,-2.67,-2.67
324.35,-6.32,-6.32,-3.67,-3.67,3.67,3.49,2.25,-2.65,-2.65,-2.65
327.59,-6.26,-6.26,-3.64,-3.63,3.63,3.41,2.19,-2.63,-2.63,-2.63
330.87,-6.19,-6.19,-3.58,-3.58,3.59,3.32,2.12,-2.61,-2.61,-2.61
334.18,-6.12,-6.12,-3.53,-3.53,3.54,3.23,2.06,-2.58,-2.58,-2.59
337.52,-6.05,-6.05,-3.48,-3.48,3.49,3.14,1.99,-2.56,-2.56,-2.57
340.90,-5.98,-5.98,-3.44,-3.43,3.44,3.05,1.93,-2.54,-2.54,-2.55
344.30,-5.91,-5.92,-3.38,-3.39,3.39,2.96,1.87,-2.52,-2.53,-2.53
347.75,-5.85,-5.85,-3.34,-3.34,3.34,2.87,1.81,-2.52,-2.51,-2.51
351.23,-5.78,-5.78,-3.29,-3.29,3.28,2.78,1.76,-2.50,-2.50,-2.49
354.74,-5.70,-5.71,-3.23,-3.23,3.23,2.69,1.70,-2.47,-2.48,-2.48
358.28,-5.63,-5.63,-3.17,-3.17,3.17,2.60,1.64,-2.46,-2.46,-2.46
361.87,-5.55,-5.55,-3.11,-3.11,3.11,2.51,1.59,-2.44,-2.44,-2.44
365.49,-5.47,-5.47,-3.05,-3.05,3.05,2.42,1.54,-2.42,-2.42,-2.42
369.14,-5.39,-5.39,-2.98,-2.98,2.98,2.33,1.49,-2.41,-2.41,-2.41
372.83,-5.31,-5.31,-2.92,-2.91,2.91,2.25,1.44,-2.40,-2.40,-2.40
376.56,-5.22,-5.22,-2.83,-2.84,2.84,2.17,1.39,-2.38,-2.38,-2.39
380.33,-5.12,-5.12,-2.76,-2.76,2.76,2.09,1.34,-2.37,-2.37,-2.36
384.13,-5.02,-5.02,-2.67,-2.67,2.67,2.01,1.30,-2.35,-2.36,-2.35
387.97,-4.92,-4.92,-2.58,-2.58,2.57,1.93,1.25,-2.35,-2.35,-2.34
391.85,-4.80,-4.80,-2.47,-2.47,2.47,1.85,1.21,-2.33,-2.33,-2.33
395.77,-4.68,-4.68,-2.37,-2.36,2.36,1.78,1.17,-2.32,-2.32,-2.31
399.73,-4.55,-4.55,-2.25,-2.25,2.24,1.70,1.12,-2.31,-2.31,-2.31
403.72,-4.42,-4.42,-2.12,-2.13,2.13,1.63,1.09,-2.29,-2.30,-2.30
407.76,-4.29,-4.29,-2.00,-2.00,2.01,1.56,1.05,-2.29,-2.28,-2.29
411.84,-4.15,-4.15,-1.88,-1.88,1.89,1.49,1.01,-2.27,-2.27,-2.27
415.96,-4.02,-4.02,-1.76,-1.76,1.76,1.43,0.97,-2.26,-2.26,-2.26
420.12,-3.89,-3.89,-1.64,-1.64,1.65,1.36,0.94,-2.25,-2.25,-2.25
424.32,-3.77,-3.77,-1.53,-1.53,1.53,1.30,0.90,-2.24,-2.24,-2.24
428.56,-3.65,-3.65,-1.42,-1.41,1.41,1.24,0.87,-2.24,-2.23,-2.23
432.85,-3.52,-3.52,-1.30,-1.30,1.30,1.18,0.84,-2.22,-2.23,-2.23
437.18,-3.40,-3.40,-1.19,-1.19,1.19,1.12,0.81,-2.21,-2.21,-2.22
441.55,-3.28,-3.28,-1.08,-1.08,1.08,1.07,0.78,-2.20,-2.20,-2.20
445.96,-3.16,-3.16,-0.97,-0.97,0.97,1.01,0.75,-2.19,-2.19,-2.19
450.42,-3.04,-3.04,-0.86,-0.87,0.87,0.96,0.72,-2.18,-2.18,-2.18
454.93,-2.92,-2.92,-0.76,-0.76,0.76,0.91,0.69,-2.16,-2.16,-2.16
459.48,-2.81,-2.81,-0.66,-0.66,0.66,0.86,0.66,-2.15,-2.15,-2.15
464.07,-2.69,-2.69,-0.56,-0.56,0.56,0.81,0.63,-2.13,-2.14,-2.13
468.71,-2.58,-2.58,-0.47,-0.46,0.46,0.76,0.61,-2.12,-2.12,-2.11
473.40,-2.46,-2.46,-0.36,-0.36,0.36,0.72,0.58,-2.10,-2.10,-2.10
478.13,-2.35,-2.35,-0.27,-0.27,0.27,0.67,0.56,-2.08,-2.08,-2.08
482.91,-2.25,-2.25,-0.18,-0.17,0.18,0.63,0.53,-2.07,-2.07,-2.07
