frequency,raw,error,smoothed,error_smoothed,equalization,parametric_eq,equalized_raw,equalized_smoothed,target
20,-14.02,-20.25,-14.17,-20.41,6.00,0.34,-8.02,-8.17,6.23
21,-11.69,-17.92,-11.55,-17.78,6.00,0.39,-5.69,-5.55,6.23
22,-8.94,-15.16,-9.06,-15.28,6.00,0.45,-2.94,-3.06,6.23
23,-6.92,-13.14,-6.71,-12.93,6.00,0.51,-0.92,-0.71,6.22
24,-4.69,-10.91,-4.49,-10.72,6.00,0.57,1.31,1.51,6.22
25,-2.82,-9.04,-2.40,-8.62,5.65,0.63,2.83,3.25,6.22
26,-0.29,-6.50,-0.45,-6.67,4.93,0.69,4.64,4.48,6.22
27,1.33,-4.88,1.33,-4.88,3.89,0.75,5.22,5.22,6.21
28,2.98,-3.22,2.93,-3.28,2.78,0.79,5.77,5.72,6.21
29,4.50,-1.70,4.32,-1.89,1.73,0.81,6.23,6.05,6.20
30,5.62,-0.58,5.47,-0.73,0.73,0.82,6.35,6.20,6.20
31,6.87,0.68,6.40,0.20,-0.20,0.80,6.67,6.19,6.19
32,7.48,1.30,7.10,0.91,-0.91,0.77,6.57,6.19,6.19
33,7.43,1.25,7.61,1.43,-1.43,0.72,6.00,6.18,6.18
34,7.48,1.31,7.97,1.79,-1.79,0.65,5.69,6.17,6.17
35,7.99,1.83,8.19,2.02,-2.02,0.58,5.97,6.17,6.17
36,8.49,2.33,8.32,2.16,-2.16,0.49,6.33,6.16,6.16
37,8.37,2.22,8.38,2.23,-2.23,0.41,6.15,6.15,6.15
38,8.16,2.02,8.39,2.25,-2.25,0.32,5.92,6.14,6.14
39,8.53,2.40,8.36,2.23,-2.23,0.23,6.31,6.13,6.13
40,8.37,2.25,8.30,2.18,-2.18,0.14,6.19,6.12,6.12
41,8.09,1.98,8.22,2.11,-2.11,0.05,5.98,6.11,6.11
42,8.17,2.08,8.12,2.03,-2.03,-0.04,6.15,6.10,6.10
43,8.00,1.92,8.02,1.93,-1.93,-0.13,6.07,6.08,6.08
44,7.75,1.68,7.91,1.84,-1.84,-0.22,5.91,6.07,6.07
45,7.77,1.72,7.81,1.75,-1.75,-0.30,6.02,6.05,6.05
46,7.81,1.77,7.71,1.68,-1.68,-0.39,6.14,6.04,6.04
47,7.59,1.57,7.63,1.61,-1.61,-0.47,5.99,6.02,6.02
48,7.50,1.50,7.55,1.55,-1.55,-0.55,5.96,6.01,6.01
49,7.56,1.57,7.48,1.50,-1.50,-0.63,6.07,5.99,5.99
50,7.34,1.37,7.42,1.45,-1.45,-0.71,5.89,5.97,5.97
51,7.35,1.40,7.36,1.41,-1.41,-0.78,5.95,5.95,5.95
52,7.36,1.43,7.29,1.36,-1.36,-0.86,6.00,5.93,5.93
53,7.28,1.38,7.23,1.32,-1.32,-0.93,5.96,5.91,5.91
54,7.14,1.26,7.17,1.29,-1.29,-1.00,5.86,5.88,5.88
55,7.11,1.25,7.11,1.25,-1.25,-1.07,5.86,5.86,5.86
56,6.99,1.16,7.06,1.22,-1.22,-1.13,5.77,5.84,5.84
57,6.94,1.13,7.01,1.19,-1.19,-1.19,5.75,5.81,5.81
58,6.94,1.16,6.96,1.17,-1.17,-1.24,5.77,5.79,5.79
59,7.00,1.24,6.91,1.15,-1.15,-1.29,5.85,5.76,5.76
60,6.84,1.11,6.86,1.13,-1.13,-1.34,5.72,5.73,5.73
61,6.84,1.14,6.80,1.10,-1.10,-1.38,5.74,5.70,5.70
62,6.74,1.07,6.74,1.07,-1.07,-1.41,5.68,5.67,5.67
63,6.66,1.02,6.67,1.03,-1.03,-1.44,5.63,5.64,5.64
64,6.63,1.02,6.60,0.99,-0.99,-1.47,5.64,5.61,5.61
65,6.49,0.92,6.53,0.95,-0.95,-1.49,5.54,5.58,5.58
66,6.44,0.90,6.45,0.91,-0.91,-1.51,5.54,5.54,5.54
67,6.38,0.87,6.38,0.87,-0.87,-1.53,5.52,5.51,5.51
68,6.25,0.78,6.31,0.83,-0.83,-1.54,5.42,5.48,5.48
69,6.21,0.77,6.24,0.80,-0.80,-1.56,5.42,5.44,5.44
70,6.28,0.88,6.17,0.77,-0.77,-1.57,5.51,5.40,5.40
71,6.14,0.78,6.11,0.75,-0.75,-1.58,5.40,5.37,5.37
72,6.00,0.67,6.06,0.73,-0.73,-1.59,5.27,5.33,5.33
73,6.03,0.74,6.02,0.73,-0.73,-1.60,5.31,5.29,5.29
74,6.04,0.79,5.99,0.73,-0.73,-1.61,5.31,5.25,5.25
75,5.87,0.66,5.97,0.75,-0.75,-1.62,5.12,5.22,5.22
76,5.87,0.70,5.96,0.79,-0.79,-1.63,5.08,5.18,5.18
77,5.95,0.82,5.98,0.84,-0.84,-1.64,5.11,5.14,5.14
78,6.12,1.03,6.00,0.90,-0.90,-1.65,5.22,5.10,5.10
79,6.04,0.99,6.03,0.98,-0.98,-1.66,5.07,5.06,5.06
80,6.04,1.03,6.08,1.06,-1.06,-1.68,4.98,5.02,5.02
81,6.12,1.15,6.13,1.15,-1.15,-1.70,4.97,4.97,4.97
82,6.23,1.30,6.18,1.25,-1.25,-1.72,4.99,4.93,4.93
83,6.14,1.25,6.23,1.34,-1.34,-1.74,4.80,4.89,4.89
84,6.25,1.40,6.29,1.44,-1.44,-1.76,4.82,4.85,4.85
85,6.36,1.55,6.33,1.53,-1.53,-1.78,4.84,4.81,4.81
86,6.51,1.75,6.38,1.61,-1.61,-1.81,4.90,4.77,4.77
87,6.38,1.66,6.41,1.69,-1.69,-1.83,4.70,4.73,4.73
88,6.34,1.66,6.44,1.76,-1.76,-1.86,4.58,4.68,4.68
89,6.60,1.96,6.47,1.83,-1.83,-1.89,4.77,4.64,4.64
90,6.60,2.00,6.50,1.89,-1.89,-1.92,4.71,4.60,4.60
91,6.43,1.87,6.52,1.96,-1.96,-1.95,4.47,4.56,4.56
92,6.28,1.76,6.55,2.03,-2.03,-1.99,4.25,4.52,4.52
93,6.52,2.05,6.57,2.09,-2.09,-2.02,4.43,4.48,4.48
94,6.79,2.36,6.60,2.16,-2.16,-2.06,4.63,4.44,4.44
95,6.65,2.26,6.61,2.22,-2.22,-2.10,4.44,4.40,4.40
96,6.64,2.29,6.62,2.26,-2.26,-2.14,4.38,4.36,4.35
97,6.64,2.33,6.62,2.30,-2.30,-2.18,4.34,4.32,4.31
98,6.63,2.36,6.61,2.33,-2.33,-2.22,4.30,4.28,4.27
99,6.62,2.39,6.59,2.36,-2.36,-2.26,4.26,4.23,4.24
100,6.58,2.39,6.58,2.39,-2.39,-2.30,4.20,4.19,4.20
101,6.42,2.27,6.56,2.42,-2.42,-2.34,4.01,4.15,4.16
102,6.40,2.28,6.56,2.45,-2.45,-2.38,3.95,4.10,4.12
104,6.64,2.60,6.55,2.49,-2.49,-2.47,4.15,4.06,4.04
105,6.62,2.61,6.55,2.54,-2.54,-2.51,4.09,4.02,4.01
106,6.59,2.62,6.56,2.58,-2.58,-2.55,4.02,3.98,3.97
107,6.57,2.63,6.56,2.62,-2.62,-2.59,3.96,3.94,3.94
108,6.55,2.65,6.56,2.65,-2.65,-2.63,3.90,3.90,3.90
109,6.53,2.66,6.55,2.68,-2.68,-2.67,3.85,3.87,3.87
110,6.51,2.67,6.54,2.70,-2.70,-2.71,3.82,3.84,3.84
111,6.49,2.68,6.52,2.71,-2.71,-2.74,3.78,3.81,3.81
112,6.48,2.70,6.49,2.71,-2.71,-2.78,3.77,3.78,3.78
113,6.47,2.72,6.46,2.71,-2.71,-2.81,3.76,3.75,3.75
114,6.49,2.77,6.42,2.71,-2.71,-2.84,3.78,3.72,3.72
115,6.60,2.91,6.39,2.70,-2.70,-2.87,3.90,3.68,3.70
117,6.14,2.50,6.35,2.70,-2.70,-2.93,3.45,3.65,3.64
118,6.26,2.65,6.32,2.70,-2.70,-2.95,3.57,3.62,3.62
119,6.27,2.68,6.30,2.71,-2.71,-2.97,3.57,3.59,3.59
120,6.28,2.71,6.29,2.72,-2.72,-2.99,3.56,3.57,3.57
121,6.28,2.73,6.29,2.75,-2.75,-3.01,3.53,3.54,3.55
123,6.29,2.79,6.29,2.78,-2.78,-3.04,3.51,3.51,3.50
124,6.30,2.82,6.31,2.82,-2.82,-3.05,3.49,3.49,3.48
125,6.31,2.85,6.32,2.85,-2.85,-3.06,3.46,3.46,3.47
126,6.31,2.86,6.32,2.88,-2.88,-3.06,3.43,3.44,3.45
128,6.46,3.05,6.32,2.90,-2.90,-3.07,3.56,3.42,3.41
129,6.36,2.97,6.31,2.92,-2.92,-3.07,3.45,3.40,3.39
130,6.23,2.86,6.30,2.92,-2.92,-3.07,3.31,3.37,3.38
131,6.24,2.88,6.28,2.93,-2.93,-3.06,3.31,3.35,3.36
133,6.24,2.92,6.27,2.94,-2.94,-3.05,3.31,3.33,3.33
134,6.25,2.94,6.26,2.95,-2.95,-3.04,3.30,3.31,3.31
135,6.25,2.95,6.26,2.97,-2.97,-3.04,3.29,3.29,3.30
137,6.25,2.99,6.26,2.99,-2.99,-3.01,3.26,3.27,3.26
138,6.26,3.01,6.26,3.02,-3.02,-3.00,3.25,3.25,3.25
140,6.26,3.04,6.27,3.05,-3.05,-2.97,3.22,3.23,3.22
141,6.26,3.06,6.28,3.08,-3.08,-2.96,3.19,3.21,3.21
142,6.26,3.07,6.29,3.10,-3.10,-2.95,3.16,3.19,3.19
144,6.34,3.18,6.28,3.12,-3.12,-2.92,3.23,3.17,3.16
145,6.38,3.23,6.27,3.12,-3.12,-2.90,3.26,3.15,3.15
147,6.16,3.04,6.24,3.12,-3.12,-2.87,3.04,3.13,3.12
148,6.16,3.05,6.21,3.10,-3.10,-2.85,3.06,3.10,3.11
150,6.21,3.13,6.16,3.08,-3.08,-2.82,3.13,3.08,3.08
151,6.26,3.20,6.11,3.05,-3.05,-2.81,3.21,3.06,3.07
153,6.03,2.99,6.06,3.02,-3.02,-2.78,3.01,3.05,3.04
154,5.87,2.84,6.02,2.99,-2.99,-2.77,2.88,3.03,3.03
156,5.92,2.92,5.98,2.97,-2.97,-2.74,2.95,3.01,3.00
157,5.96,2.97,5.95,2.96,-2.96,-2.73,3.01,2.99,2.99
159,5.96,2.99,5.92,2.95,-2.95,-2.71,3.01,2.97,2.97
160,5.96,3.00,5.91,2.96,-2.96,-2.70,3.01,2.95,2.96
162,5.78,2.85,5.90,2.96,-2.96,-2.68,2.82,2.94,2.94
164,5.90,2.99,5.89,2.97,-2.97,-2.67,2.93,2.92,2.92
165,5.96,3.06,5.89,2.98,-2.98,-2.66,2.98,2.91,2.91
167,5.91,3.02,5.88,2.99,-2.99,-2.65,2.92,2.89,2.89
169,5.93,3.06,5.88,3.00,-3.00,-2.65,2.93,2.88,2.87
170,5.85,2.99,5.88,3.02,-3.02,-2.64,2.83,2.87,2.87
172,5.83,2.98,5.89,3.04,-3.04,-2.64,2.79,2.85,2.85
174,5.82,2.98,5.91,3.06,-3.06,-2.64,2.76,2.84,2.84
175,5.82,2.98,5.93,3.09,-3.09,-2.64,2.73,2.84,2.84
177,6.06,3.23,5.95,3.12,-3.12,-2.64,2.94,2.83,2.83
179,6.06,3.24,5.97,3.15,-3.15,-2.65,2.92,2.82,2.82
181,5.92,3.11,5.98,3.16,-3.16,-2.66,2.76,2.82,2.81
183,6.00,3.20,5.98,3.17,-3.17,-2.67,2.83,2.81,2.81
184,6.07,3.26,5.97,3.17,-3.17,-2.68,2.91,2.81,2.81
186,5.96,3.16,5.95,3.15,-3.15,-2.69,2.81,2.80,2.81
188,5.86,3.06,5.92,3.12,-3.12,-2.71,2.74,2.80,2.80
190,5.87,3.07,5.89,3.09,-3.09,-2.73,2.78,2.80,2.80
192,5.89,3.10,5.86,3.07,-3.07,-2.75,2.83,2.80,2.80
194,5.89,3.10,5.84,3.04,-3.04,-2.77,2.85,2.80,2.80
196,5.68,2.89,5.82,3.03,-3.03,-2.79,2.66,2.79,2.79
198,5.75,2.96,5.81,3.02,-3.02,-2.82,2.73,2.79,2.79
200,5.84,3.05,5.81,3.02,-3.02,-2.84,2.82,2.79,2.79
202,5.85,3.06,5.82,3.03,-3.03,-2.87,2.82,2.79,2.79
204,5.85,3.06,5.83,3.04,-3.04,-2.90,2.81,2.79,2.79
206,5.86,3.07,5.85,3.06,-3.06,-2.93,2.81,2.79,2.79
208,5.86,3.07,5.86,3.07,-3.07,-2.95,2.79,2.79,2.79
210,5.85,3.06,5.87,3.08,-3.08,-2.98,2.77,2.79,2.79
212,5.85,3.06,5.87,3.09,-3.09,-3.01,2.77,2.79,2.79
214,5.85,3.06,5.87,3.08,-3.08,-3.04,2.77,2.79,2.79
216,5.84,3.05,5.86,3.07,-3.07,-3.06,2.78,2.79,2.79
218,5.84,3.05,5.83,3.04,-3.04,-3.09,2.80,2.79,2.79
221,5.93,3.14,5.80,3.01,-3.01,-3.13,2.93,2.79,2.79
223,5.98,3.19,5.76,2.97,-2.97,-3.15,3.01,2.79,2.79
225,5.55,2.76,5.72,2.93,-2.93,-3.17,2.62,2.79,2.79
227,5.49,2.70,5.69,2.89,-2.89,-3.19,2.60,2.79,2.79
229,5.63,2.83,5.66,2.87,-2.87,-3.21,2.77,2.80,2.80
232,5.64,2.84,5.65,2.85,-2.85,-3.23,2.79,2.80,2.80
234,5.65,2.85,5.65,2.84,-2.84,-3.24,2.81,2.80,2.80
236,5.67,2.86,5.65,2.84,-2.84,-3.25,2.83,2.81,2.81
239,5.68,2.87,5.66,2.85,-2.85,-3.26,2.84,2.81,2.81
241,5.70,2.88,5.67,2.85,-2.85,-3.27,2.86,2.82,2.82
244,5.72,2.90,5.67,2.84,-2.84,-3.26,2.88,2.83,2.83
246,5.66,2.83,5.66,2.83,-2.83,-3.26,2.83,2.83,2.83
248,5.65,2.81,5.65,2.81,-2.81,-3.26,2.84,2.84,2.84
251,5.58,2.74,5.64,2.79,-2.79,-3.24,2.79,2.85,2.85
253,5.59,2.74,5.62,2.77,-2.77,-3.23,2.83,2.86,2.86
256,5.61,2.75,5.60,2.74,-2.74,-3.21,2.87,2.86,2.86
259,5.62,2.75,5.58,2.71,-2.71,-3.18,2.91,2.87,2.87
261,5.62,2.74,5.57,2.69,-2.69,-3.16,2.93,2.88,2.88
264,5.58,2.70,5.55,2.66,-2.66,-3.12,2.92,2.89,2.89
266,5.36,2.47,5.53,2.64,-2.64,-3.09,2.73,2.89,2.89
269,5.36,2.46,5.51,2.61,-2.61,-3.05,2.76,2.90,2.90
272,5.60,2.70,5.48,2.57,-2.57,-3.00,3.03,2.91,2.91
274,5.67,2.76,5.45,2.54,-2.54,-2.97,3.14,2.91,2.91
277,5.49,2.57,5.42,2.50,-2.50,-2.92,3.00,2.92,2.92
280,5.35,2.43,5.38,2.46,-2.46,-2.86,2.90,2.93,2.93
283,5.15,2.22,5.35,2.42,-2.42,-2.81,2.73,2.93,2.93
286,5.27,2.33,5.33,2.39,-2.39,-2.75,2.88,2.94,2.94
288,5.32,2.38,5.32,2.37,-2.37,-2.71,2.95,2.95,2.95
291,5.33,2.38,5.32,2.36,-2.36,-2.66,2.97,2.95,2.95
294,5.35,2.40,5.33,2.37,-2.37,-2.60,2.99,2.96,2.96
297,5.36,2.40,5.34,2.38,-2.38,-2.54,2.99,2.96,2.96
300,5.37,2.40,5.36,2.39,-2.39,-2.48,2.98,2.97,2.97
303,5.38,2.41,5.38,2.41,-2.41,-2.42,2.97,2.97,2.97
306,5.39,2.41,5.41,2.42,-2.42,-2.36,2.97,2.98,2.98
309,5.40,2.42,5.42,2.44,-2.44,-2.31,2.97,2.99,2.99
312,5.41,2.42,5.43,2.44,-2.44,-2.25,2.97,2.99,2.99
316,5.41,2.42,5.44,2.44,-2.44,-2.18,2.97,3.00,3.00
319,5.54,2.54,5.44,2.44,-2.44,-2.13,3.10,3.00,3.00
322,5.55,2.55,5.44,2.43,-2.43,-2.07,3.12,3.01,3.01
325,5.32,2.31,5.42,2.41,-2.41,-2.02,2.91,3.01,3.01
328,5.31,2.30,5.41,2.39,-2.39,-1.97,2.92,3.02,3.02
332,5.31,2.29,5.38,2.36,-2.36,-1.91,2.96,3.02,3.02
335,5.31,2.29,5.33,2.31,-2.31,-1.86,3.00,3.02,3.02
338,5.35,2.32,5.28,2.25,-2.25,-1.82,3.11,3.03,3.03
342,5.34,2.31,5.20,2.17,-2.17,-1.76,3.17,3.03,3.03
345,5.18,2.15,5.11,2.08,-2.08,-1.72,3.10,3.03,3.04
349,5.17,2.14,5.02,1.98,-1.98,-1.67,3.19,3.04,3.04
352,4.94,1.90,4.93,1.89,-1.89,-1.63,3.05,3.04,3.04
356,4.59,1.55,4.85,1.81,-1.81,-1.58,2.78,3.04,3.04
359,4.61,1.57,4.80,1.75,-1.75,-1.54,2.86,3.04,3.04
363,4.80,1.76,4.77,1.73,-1.73,-1.50,3.08,3.05,3.05
366,4.68,1.64,4.77,1.72,-1.72,-1.47,2.96,3.05,3.05
370,4.77,1.72,4.79,1.74,-1.74,-1.42,3.03,3.05,3.05
374,4.94,1.89,4.83,1.78,-1.78,-1.38,3.17,3.05,3.05
377,4.95,1.90,4.87,1.82,-1.82,-1.35,3.14,3.05,3.05
381,4.95,1.90,4.91,1.85,-1.85,-1.32,3.10,3.06,3.06
385,4.96,1.90,4.94,1.88,-1.88,-1.28,3.08,3.06,3.06
389,4.97,1.91,4.96,1.90,-1.90,-1.25,3.08,3.06,3.06
393,4.91,1.84,4.97,1.90,-1.90,-1.21,3.01,3.07,3.07
397,4.93,1.86,4.98,1.90,-1.90,-1.18,3.03,3.08,3.08
401,5.00,1.92,4.98,1.89,-1.89,-1.15,3.11,3.09,3.09
405,4.97,1.88,4.98,1.88,-1.88,-1.12,3.09,3.10,3.10
409,4.96,1.85,4.98,1.86,-1.86,-1.09,3.10,3.11,3.11
413,4.96,1.83,4.97,1.85,-1.85,-1.07,3.12,3.13,3.13
417,5.01,1.87,4.97,1.82,-1.82,-1.04,3.19,3.15,3.15
421,5.06,1.89,4.97,1.80,-1.80,-1.01,3.26,3.17,3.17
425,4.93,1.74,4.97,1.77,-1.77,-0.99,3.16,3.20,3.20
430,4.88,1.66,4.97,1.75,-1.75,-0.95,3.14,3.22,3.22
434,4.90,1.65,4.97,1.71,-1.71,-0.93,3.19,3.26,3.25
438,4.93,1.64,4.97,1.68,-1.68,-0.90,3.26,3.29,3.29
443,5.02,1.70,4.96,1.63,-1.63,-0.87,3.39,3.33,3.32
447,5.08,1.72,4.95,1.58,-1.58,-0.85,3.50,3.36,3.36
451,4.94,1.54,4.93,1.53,-1.53,-0.82,3.41,3.40,3.40
456,4.90,1.46,4.91,1.47,-1.47,-0.79,3.43,3.44,3.44
460,4.94,1.46,4.89,1.41,-1.41,-0.76,3.53,3.48,3.48
465,4.82,1.30,4.88,1.35,-1.35,-0.73,3.47,3.53,3.53
470,4.75,1.19,4.87,1.30,-1.30,-0.69,3.45,3.57,3.57
474,4.73,1.13,4.87,1.26,-1.26,-0.67,3.47,3.60,3.60
479,4.93,1.29,4.87,1.23,-1.23,-0.63,3.70,3.64,3.64
484,4.96,1.29,4.88,1.20,-1.20,-0.59,3.76,3.67,3.68
489,4.89,1.19,4.88,1.17,-1.17,-0.56,3.72,3.71,3.71
494,4.93,1.20,4.88,1.14,-1.14,-0.52,3.79,3.73,3.73
499,4.89,1.14,4.87,1.11,-1.11,-0.48,3.78,3.76,3.76
504,4.78,1.01,4.85,1.07,-1.07,-0.43,3.71,3.77,3.78
509,4.80,1.01,4.82,1.03,-1.03,-0.39,3.78,3.79,3.79
514,4.77,0.97,4.78,0.98,-0.98,-0.35,3.79,3.80,3.80
519,4.73,0.93,4.73,0.93,-0.93,-0.30,3.81,3.81,3.81
524,4.64,0.83,4.68,0.87,-0.87,-0.26,3.77,3.81,3.81
529,4.60,0.80,4.61,0.80,-0.80,-0.21,3.80,3.81,3.81
535,4.58,0.78,4.53,0.73,-0.73,-0.15,3.85,3.80,3.80
540,4.47,0.68,4.44,0.65,-0.65,-0.10,3.82,3.79,3.80
545,4.31,0.53,4.34,0.55,-0.55,-0.05,3.76,3.79,3.79
551,4.25,0.48,4.22,0.45,-0.45,0.01,3.81,3.78,3.78
556,4.12,0.36,4.09,0.32,-0.32,0.06,3.80,3.76,3.76
562,3.96,0.21,3.95,0.19,-0.19,0.12,3.77,3.75,3.75
568,3.76,0.02,3.80,0.06,-0.06,0.19,3.71,3.74,3.74
573,3.58,-0.15,3.65,-0.09,0.09,0.24,3.67,3.74,3.73
579,3.45,-0.28,3.49,-0.24,0.24,0.31,3.69,3.73,3.73
585,3.30,-0.42,3.32,-0.40,0.40,0.37,3.71,3.73,3.72
591,3.16,-0.56,3.15,-0.58,0.58,0.44,3.74,3.73,3.72
596,3.02,-0.71,2.97,-0.76,0.76,0.50,3.79,3.73,3.73
602,2.87,-0.86,2.77,-0.96,0.96,0.57,3.84,3.74,3.74
608,2.64,-1.10,2.57,-1.18,1.18,0.64,3.82,3.75,3.75
615,2.34,-1.42,2.37,-1.40,1.40,0.72,3.74,3.76,3.76
621,2.12,-1.66,2.16,-1.62,1.62,0.79,3.74,3.78,3.78
627,1.91,-1.89,1.97,-1.83,1.83,0.86,3.74,3.80,3.80
633,1.76,-2.07,1.80,-2.03,2.03,0.93,3.79,3.83,3.83
639,1.63,-2.22,1.65,-2.20,2.20,1.01,3.84,3.86,3.86
646,1.49,-2.40,1.53,-2.36,2.36,1.09,3.85,3.89,3.89
652,1.40,-2.52,1.43,-2.49,2.49,1.16,3.89,3.92,3.92
659,1.29,-2.66,1.35,-2.61,2.61,1.25,3.90,3.95,3.95
665,1.28,-2.71,1.28,-2.71,2.71,1.33,4.00,3.99,3.99
672,1.23,-2.79,1.20,-2.82,2.82,1.41,4.05,4.02,4.02
679,1.17,-2.88,1.13,-2.93,2.93,1.50,4.10,4.06,4.06
686,1.12,-2.97,1.04,-3.05,3.05,1.59,4.18,4.09,4.09
692,0.99,-3.13,0.93,-3.19,3.19,1.67,4.19,4.12,4.12
699,0.77,-3.38,0.80,-3.35,3.35,1.76,4.13,4.15,4.15
706,0.60,-3.58,0.65,-3.53,3.53,1.85,4.13,4.18,4.18
713,0.51,-3.69,0.50,-3.71,3.71,1.94,4.22,4.21,4.21
721,0.37,-3.86,0.33,-3.90,3.90,2.04,4.27,4.23,4.23
728,0.19,-4.06,0.16,-4.09,4.09,2.14,4.28,4.25,4.25
735,-0.01,-4.28,-0.00,-4.27,4.27,2.23,4.27,4.27,4.27
742,-0.18,-4.47,-0.15,-4.44,4.44,2.32,4.27,4.29,4.29
750,-0.37,-4.67,-0.29,-4.60,4.60,2.43,4.23,4.31,4.31
757,-0.44,-4.76,-0.41,-4.73,4.73,2.52,4.29,4.32,4.32
765,-0.50,-4.83,-0.51,-4.84,4.84,2.63,4.34,4.33,4.33
773,-0.70,-5.04,-0.59,-4.93,4.93,2.74,4.24,4.35,4.35
780,-0.66,-5.01,-0.66,-5.01,5.01,2.83,4.36,4.36,4.36
788,-0.64,-5.00,-0.72,-5.08,5.08,2.94,4.45,4.36,4.36
796,-0.74,-5.11,-0.78,-5.15,5.15,3.05,4.42,4.37,4.37
804,-0.79,-5.17,-0.84,-5.22,5.22,3.15,4.43,4.38,4.38
812,-0.90,-5.28,-0.90,-5.29,5.29,3.26,4.39,4.39,4.39
820,-0.93,-5.32,-0.97,-5.36,5.36,3.36,4.43,4.39,4.39
828,-1.03,-5.43,-1.03,-5.43,5.43,3.46,4.40,4.40,4.40
837,-1.13,-5.54,-1.08,-5.49,5.49,3.58,4.36,4.41,4.41
845,-1.17,-5.58,-1.12,-5.54,5.54,3.67,4.37,4.42,4.42
853,-1.22,-5.64,-1.15,-5.57,5.57,3.77,4.35,4.42,4.42
862,-1.18,-5.61,-1.16,-5.59,5.59,3.87,4.41,4.43,4.43
871,-1.08,-5.51,-1.15,-5.59,5.59,3.97,4.51,4.44,4.44
879,-1.09,-5.53,-1.13,-5.57,5.57,4.06,4.49,4.44,4.44
888,-1.10,-5.55,-1.09,-5.55,5.55,4.15,4.45,4.45,4.45
897,-1.11,-5.57,-1.05,-5.51,5.51,4.23,4.40,4.46,4.46
906,-1.03,-5.50,-0.99,-5.46,5.46,4.31,4.44,4.47,4.47
915,-0.92,-5.40,-0.93,-5.41,5.41,4.38,4.49,4.48,4.48
924,-0.80,-5.29,-0.86,-5.35,5.35,4.45,4.55,4.49,4.49
933,-0.69,-5.19,-0.78,-5.28,5.28,4.50,4.60,4.50,4.50
943,-0.70,-5.21,-0.69,-5.20,5.20,4.56,4.51,4.51,4.51
952,-0.80,-5.32,-0.59,-5.12,5.12,4.60,4.32,4.52,4.52
962,-0.54,-5.07,-0.48,-5.02,5.02,4.64,4.48,4.54,4.54
971,-0.26,-4.81,-0.37,-4.92,4.92,4.66,4.66,4.55,4.55
981,-0.21,-4.77,-0.24,-4.81,4.81,4.68,4.60,4.57,4.57
991,-0.12,-4.70,-0.11,-4.70,4.70,4.68,4.58,4.58,4.58
1001,0.01,-4.59,0.02,-4.58,4.58,4.68,4.60,4.60,4.60
1011,0.24,-4.38,0.15,-4.47,4.47,4.66,4.71,4.62,4.62
1021,0.23,-4.41,0.28,-4.36,4.36,4.64,4.59,4.65,4.65
1031,0.34,-4.33,0.41,-4.26,4.26,4.61,4.60,4.67,4.67
1041,0.59,-4.10,0.54,-4.15,4.15,4.57,4.75,4.70,4.70
1052,0.68,-4.04,0.67,-4.05,4.05,4.51,4.73,4.72,4.72
1062,0.89,-3.86,0.81,-3.94,3.94,4.45,4.84,4.75,4.75
1073,0.98,-3.80,0.95,-3.83,3.83,4.38,4.81,4.78,4.78
1084,1.07,-3.74,1.11,-3.70,3.70,4.30,4.78,4.81,4.81
1094,1.17,-3.67,1.28,-3.57,3.57,4.22,4.74,4.85,4.84
1105,1.39,-3.49,1.46,-3.41,3.41,4.13,4.81,4.88,4.88
1116,1.63,-3.28,1.67,-3.25,3.25,4.04,4.88,4.91,4.91
1128,1.92,-3.02,1.88,-3.07,3.07,3.93,4.99,4.95,4.95
1139,2.14,-2.84,2.10,-2.88,2.88,3.82,5.02,4.98,4.98
1150,2.37,-2.64,2.33,-2.69,2.69,3.71,5.06,5.01,5.01
1162,2.60,-2.44,2.56,-2.49,2.49,3.59,5.10,5.05,5.05
1173,2.72,-2.36,2.78,-2.30,2.30,3.48,5.02,5.08,5.08
1185,2.98,-2.13,3.00,-2.11,2.11,3.36,5.09,5.11,5.11
1197,3.23,-1.91,3.22,-1.91,1.91,3.24,5.15,5.14,5.14
1209,3.50,-1.66,3.44,-1.72,1.72,3.11,5.22,5.16,5.17
1221,3.66,-1.53,3.66,-1.53,1.53,2.98,5.19,5.19,5.19
1233,3.83,-1.38,3.88,-1.33,1.33,2.86,5.16,5.21,5.21
1246,4.06,-1.17,4.10,-1.13,1.13,2.73,5.19,5.23,5.23
1258,4.34,-0.90,4.32,-0.92,0.92,2.60,5.26,5.24,5.25
1271,4.53,-0.72,4.54,-0.71,0.71,2.47,5.25,5.26,5.26
1283,4.71,-0.55,4.76,-0.51,0.51,2.35,5.22,5.27,5.27
1296,5.01,-0.26,4.97,-0.30,0.30,2.22,5.32,5.27,5.27
1309,5.21,-0.06,5.17,-0.11,0.11,2.09,5.32,5.28,5.28
1322,5.36,0.09,5.36,0.08,-0.08,1.96,5.28,5.28,5.28
1335,5.52,0.25,5.53,0.25,-0.25,1.84,5.27,5.27,5.28
1349,5.67,0.40,5.68,0.41,-0.41,1.71,5.26,5.27,5.27
1362,5.82,0.56,5.82,0.56,-0.56,1.58,5.27,5.27,5.27
1376,5.97,0.71,5.94,0.68,-0.68,1.46,5.29,5.26,5.26
1390,6.09,0.84,6.05,0.80,-0.80,1.33,5.29,5.25,5.25
1404,6.15,0.91,6.14,0.90,-0.90,1.20,5.25,5.24,5.24
1418,6.23,1.00,6.23,0.99,-0.99,1.08,5.24,5.23,5.23
1432,6.31,1.09,6.31,1.09,-1.09,0.96,5.23,5.22,5.22
1446,6.35,1.14,6.40,1.18,-1.18,0.84,5.17,5.22,5.22
1461,6.46,1.25,6.49,1.28,-1.28,0.72,5.18,5.21,5.21
1475,6.57,1.37,6.60,1.39,-1.39,0.60,5.18,5.21,5.21
1490,6.67,1.47,6.72,1.51,-1.51,0.48,5.16,5.21,5.21
1505,6.85,1.64,6.85,1.64,-1.64,0.36,5.21,5.21,5.21
1520,6.95,1.74,6.98,1.77,-1.77,0.25,5.18,5.21,5.21
1535,7.15,1.93,7.13,1.90,-1.90,0.13,5.25,5.22,5.22
1550,7.26,2.02,7.27,2.03,-2.03,0.02,5.23,5.24,5.24
1566,7.43,2.18,7.41,2.15,-2.15,-0.10,5.28,5.26,5.26
1582,7.63,2.35,7.54,2.26,-2.26,-0.21,5.37,5.28,5.28
1597,7.69,2.38,7.67,2.35,-2.35,-0.32,5.34,5.31,5.31
1613,7.75,2.41,7.78,2.44,-2.44,-0.43,5.32,5.35,5.35
1629,7.82,2.44,7.90,2.51,-2.51,-0.53,5.31,5.39,5.39
1646,7.97,2.54,8.00,2.57,-2.57,-0.65,5.40,5.43,5.43
1662,8.10,2.62,8.11,2.62,-2.62,-0.75,5.48,5.48,5.48
1679,8.25,2.71,8.21,2.67,-2.67,-0.85,5.58,5.54,5.54
1696,8.34,2.74,8.30,2.70,-2.70,-0.95,5.64,5.60,5.60
1713,8.37,2.70,8.39,2.73,-2.73,-1.05,5.65,5.67,5.67
1730,8.45,2.71,8.48,2.74,-2.74,-1.14,5.72,5.74,5.74
1747,8.54,2.73,8.55,2.74,-2.74,-1.23,5.81,5.82,5.82
1764,8.64,2.75,8.62,2.72,-2.72,-1.31,5.92,5.90,5.90
1782,8.73,2.75,8.68,2.70,-2.70,-1.39,6.04,5.98,5.98
1800,8.69,2.62,8.73,2.66,-2.66,-1.47,6.03,6.07,6.07
1818,8.75,2.59,8.77,2.61,-2.61,-1.54,6.14,6.16,6.16
1836,8.83,2.58,8.81,2.55,-2.55,-1.61,6.28,6.25,6.25
1854,8.83,2.48,8.84,2.49,-2.49,-1.67,6.35,6.35,6.35
1873,8.86,2.41,8.86,2.41,-2.41,-1.72,6.45,6.45,6.45
1892,8.85,2.30,8.89,2.34,-2.34,-1.77,6.52,6.55,6.55
1911,8.91,2.25,8.91,2.25,-2.25,-1.81,6.66,6.66,6.66
1930,8.98,2.22,8.93,2.17,-2.17,-1.84,6.81,6.76,6.76
1949,8.97,2.10,8.95,2.08,-2.08,-1.87,6.89,6.87,6.87
1969,8.95,1.97,8.98,1.99,-1.99,-1.88,6.96,6.98,6.98
1988,8.98,1.88,9.00,1.91,-1.91,-1.89,7.08,7.10,7.10
2008,8.99,1.78,9.03,1.82,-1.82,-1.89,7.17,7.21,7.21
2028,9.05,1.72,9.07,1.73,-1.73,-1.89,7.32,7.33,7.33
2048,9.11,1.66,9.10,1.64,-1.64,-1.88,7.47,7.46,7.46
2069,9.13,1.55,9.14,1.55,-1.55,-1.85,7.58,7.58,7.58
2090,9.21,1.50,9.17,1.46,-1.46,-1.82,7.75,7.71,7.71
2111,9.26,1.42,9.20,1.36,-1.36,-1.79,7.90,7.85,7.84
2132,9.18,1.20,9.24,1.25,-1.25,-1.74,7.93,7.98,7.98
