frequency,raw,error,smoothed,error_smoothed,equalization,parametric_eq,equalized_raw,equalized_smoothed,target
20.00,4.00,0.38,4.00,0.38,-0.38,-0.50,3.61,3.61,3.61
20.20,4.02,0.40,4.02,0.40,-0.40,-0.51,3.61,3.62,3.62
20.40,4.04,0.42,4.04,0.42,-0.42,-0.52,3.61,3.62,3.62
20.61,4.06,0.44,4.06,0.44,-0.44,-0.53,3.62,3.62,3.62
20.81,4.09,0.46,4.08,0.46,-0.46,-0.55,3.63,3.62,3.62
21.02,4.11,0.48,4.10,0.48,-0.48,-0.56,3.63,3.63,3.63
21.23,4.13,0.50,4.12,0.50,-0.50,-0.57,3.63,3.63,3.63
21.44,4.15,0.52,4.14,0.51,-0.51,-0.59,3.63,3.63,3.63
21.66,4.17,0.53,4.16,0.53,-0.53,-0.60,3.63,3.63,3.63
21.87,4.19,0.55,4.19,0.55,-0.55,-0.62,3.63,3.63,3.63
22.09,4.21,0.57,4.21,0.57,-0.57,-0.63,3.64,3.64,3.64
22.31,4.23,0.59,4.23,0.59,-0.59,-0.65,3.64,3.64,3.64
22.54,4.25,0.60,4.25,0.61,-0.61,-0.67,3.64,3.64,3.64
22.76,4.27,0.62,4.27,0.62,-0.62,-0.68,3.64,3.64,3.64
22.99,4.29,0.64,4.29,0.64,-0.64,-0.70,3.64,3.64,3.64
23.22,4.31,0.66,4.31,0.66,-0.66,-0.72,3.65,3.65,3.65
23.45,4.33,0.68,4.33,0.68,-0.68,-0.73,3.65,3.65,3.65
23.69,4.35,0.69,4.35,0.70,-0.70,-0.75,3.65,3.65,3.65
23.92,4.37,0.71,4.37,0.71,-0.71,-0.77,3.65,3.65,3.65
24.16,4.39,0.73,4.39,0.73,-0.73,-0.79,3.65,3.66,3.66
24.40,4.41,0.75,4.41,0.75,-0.75,-0.81,3.66,3.66,3.66
24.65,4.43,0.76,4.43,0.77,-0.77,-0.83,3.66,3.66,3.66
24.89,4.45,0.78,4.44,0.78,-0.78,-0.84,3.66,3.66,3.66
25.14,4.47,0.80,4.46,0.80,-0.80,-0.86,3.67,3.66,3.66
25.39,4.49,0.82,4.48,0.82,-0.82,-0.88,3.67,3.67,3.67
25.65,4.51,0.84,4.50,0.83,-0.83,-0.90,3.67,3.67,3.67
25.91,4.52,0.84,4.52,0.85,-0.85,-0.92,3.67,3.67,3.67
26.16,4.54,0.86,4.54,0.87,-0.87,-0.94,3.67,3.67,3.67
26.43,4.56,0.88,4.56,0.88,-0.88,-0.96,3.67,3.68,3.68
26.69,4.58,0.90,4.57,0.90,-0.90,-0.98,3.68,3.68,3.68
26.96,4.60,0.92,4.59,0.91,-0.91,-1.00,3.68,3.68,3.68
27.23,4.61,0.92,4.61,0.93,-0.93,-1.02,3.68,3.68,3.68
27.50,4.63,0.94,4.63,0.94,-0.94,-1.03,3.68,3.68,3.68
27.77,4.65,0.96,4.64,0.96,-0.96,-1.05,3.69,3.68,3.68
28.05,4.66,0.97,4.66,0.97,-0.97,-1.07,3.68,3.68,3.68
28.33,4.68,0.99,4.68,0.99,-0.99,-1.08,3.69,3.69,3.69
28.62,4.70,1.01,4.69,1.00,-1.00,-1.10,3.69,3.69,3.69
28.90,4.71,1.02,4.71,1.02,-1.02,-1.11,3.69,3.69,3.69
29.19,4.73,1.04,4.72,1.03,-1.03,-1.13,3.69,3.69,3.69
29.48,4.74,1.05,4.74,1.05,-1.05,-1.14,3.69,3.69,3.69
29.78,4.76,1.06,4.75,1.06,-1.06,-1.15,3.69,3.69,3.69
30.08,4.77,1.07,4.77,1.08,-1.08,-1.16,3.69,3.69,3.69
30.38,4.79,1.09,4.78,1.09,-1.09,-1.17,3.70,3.69,3.69
30.68,4.80,1.10,4.79,1.10,-1.10,-1.18,3.69,3.69,3.69
30.99,4.81,1.11,4.81,1.12,-1.12,-1.19,3.69,3.69,3.69
31.30,4.82,1.12,4.82,1.13,-1.13,-1.20,3.68,3.69,3.69
31.61,4.83,1.13,4.83,1.14,-1.14,-1.20,3.68,3.69,3.69
31.93,4.85,1.15,4.85,1.16,-1.16,-1.21,3.69,3.69,3.69
32.24,4.86,1.17,4.86,1.17,-1.17,-1.21,3.69,3.69,3.69
32.57,4.87,1.18,4.87,1.18,-1.18,-1.22,3.69,3.69,3.69
32.89,4.89,1.20,4.88,1.19,-1.19,-1.22,3.69,3.69,3.69
33.22,4.90,1.21,4.89,1.20,-1.20,-1.22,3.69,3.69,3.69
33.55,4.91,1.22,4.90,1.21,-1.21,-1.22,3.69,3.69,3.69
33.89,4.92,1.23,4.91,1.22,-1.22,-1.22,3.69,3.68,3.69
34.23,4.92,1.23,4.91,1.23,-1.23,-1.22,3.69,3.68,3.69
34.57,4.93,1.24,4.92,1.24,-1.24,-1.22,3.69,3.68,3.68
34.92,4.93,1.24,4.93,1.25,-1.25,-1.22,3.68,3.68,3.68
35.27,4.93,1.24,4.93,1.25,-1.25,-1.22,3.67,3.68,3.68
35.62,4.94,1.26,4.94,1.26,-1.26,-1.22,3.67,3.68,3.68
35.97,4.94,1.26,4.94,1.27,-1.27,-1.21,3.67,3.68,3.68
36.33,4.95,1.27,4.95,1.27,-1.27,-1.21,3.67,3.67,3.67
36.70,4.95,1.27,4.95,1.28,-1.28,-1.21,3.67,3.67,3.67
37.06,4.96,1.28,4.95,1.29,-1.29,-1.21,3.67,3.67,3.67
37.43,4.96,1.29,4.96,1.29,-1.29,-1.21,3.66,3.67,3.67
37.81,4.97,1.30,4.96,1.30,-1.30,-1.21,3.67,3.66,3.66
38.19,4.97,1.30,4.96,1.30,-1.30,-1.21,3.66,3.66,3.66
38.57,4.97,1.31,4.96,1.31,-1.31,-1.21,3.66,3.66,3.66
38.95,4.97,1.31,4.96,1.31,-1.31,-1.21,3.66,3.65,3.65
39.34,4.97,1.32,4.96,1.31,-1.31,-1.21,3.65,3.65,3.65
39.74,4.97,1.32,4.96,1.32,-1.32,-1.21,3.65,3.64,3.64
40.14,4.97,1.33,4.96,1.32,-1.32,-1.22,3.65,3.64,3.64
40.54,4.96,1.32,4.96,1.32,-1.32,-1.22,3.63,3.63,3.64
40.94,4.95,1.31,4.96,1.33,-1.33,-1.23,3.62,3.63,3.63
41.35,4.95,1.32,4.95,1.33,-1.33,-1.23,3.62,3.63,3.63
41.76,4.95,1.32,4.95,1.33,-1.33,-1.24,3.61,3.62,3.62
42.18,4.95,1.33,4.95,1.33,-1.33,-1.24,3.61,3.62,3.62
42.60,4.95,1.33,4.95,1.34,-1.34,-1.25,3.61,3.61,3.61
43.03,4.95,1.34,4.95,1.34,-1.34,-1.26,3.61,3.61,3.61
43.46,4.95,1.34,4.94,1.34,-1.34,-1.27,3.60,3.60,3.60
43.90,4.95,1.35,4.94,1.35,-1.35,-1.28,3.60,3.59,3.60
44.33,4.95,1.36,4.94,1.35,-1.35,-1.30,3.59,3.59,3.59
44.78,4.95,1.36,4.94,1.36,-1.36,-1.31,3.59,3.58,3.58
45.23,4.95,1.37,4.94,1.36,-1.36,-1.32,3.58,3.57,3.57
45.68,4.94,1.37,4.93,1.37,-1.37,-1.34,3.57,3.56,3.57
46.13,4.94,1.38,4.93,1.38,-1.38,-1.35,3.56,3.55,3.56
46.60,4.93,1.38,4.93,1.39,-1.39,-1.37,3.54,3.54,3.55
47.06,4.93,1.39,4.93,1.40,-1.40,-1.39,3.53,3.53,3.54
47.53,4.93,1.40,4.93,1.41,-1.41,-1.41,3.52,3.52,3.53
48.01,4.93,1.41,4.93,1.42,-1.42,-1.43,3.50,3.51,3.52
48.49,4.93,1.42,4.94,1.44,-1.44,-1.45,3.49,3.50,3.50
48.97,4.94,1.44,4.94,1.45,-1.45,-1.47,3.48,3.49,3.49
49.46,4.95,1.47,4.95,1.47,-1.47,-1.49,3.47,3.48,3.48
49.96,4.96,1.49,4.95,1.49,-1.49,-1.51,3.47,3.46,3.47
50.46,4.96,1.50,4.96,1.51,-1.51,-1.54,3.45,3.45,3.45
50.96,4.97,1.53,4.97,1.53,-1.53,-1.56,3.44,3.44,3.44
51.47,4.98,1.55,4.97,1.55,-1.55,-1.59,3.43,3.42,3.42
51.99,4.99,1.58,4.98,1.57,-1.57,-1.61,3.42,3.41,3.41
52.51,5.00,1.60,4.98,1.59,-1.59,-1.64,3.41,3.39,3.39
53.03,5.00,1.62,4.99,1.61,-1.61,-1.66,3.39,3.38,3.38
53.56,5.01,1.64,4.99,1.63,-1.63,-1.69,3.38,3.36,3.36
54.10,5.01,1.66,5.00,1.65,-1.65,-1.72,3.36,3.35,3.35
54.64,5.00,1.66,5.00,1.67,-1.67,-1.74,3.33,3.33,3.33
55.18,5.00,1.68,5.00,1.69,-1.69,-1.77,3.30,3.31,3.31
55.74,5.00,1.70,5.01,1.71,-1.71,-1.80,3.28,3.29,3.30
56.29,5.00,1.71,5.01,1.73,-1.73,-1.82,3.26,3.28,3.28
56.86,5.01,1.74,5.01,1.75,-1.75,-1.85,3.25,3.26,3.26
57.42,5.01,1.76,5.02,1.78,-1.78,-1.87,3.23,3.24,3.24
58.00,5.02,1.79,5.02,1.80,-1.80,-1.90,3.22,3.22,3.23
58.58,5.03,1.82,5.03,1.82,-1.82,-1.92,3.20,3.20,3.21
59.16,5.04,1.85,5.03,1.85,-1.85,-1.95,3.19,3.18,3.19
59.76,5.05,1.88,5.03,1.87,-1.87,-1.97,3.18,3.17,3.17
60.35,5.05,1.90,5.04,1.89,-1.89,-1.99,3.15,3.15,3.15
60.96,5.05,1.92,5.04,1.92,-1.92,-2.01,3.13,3.13,3.13
61.57,5.05,1.94,5.04,1.94,-1.94,-2.03,3.11,3.10,3.10
62.18,5.05,1.97,5.04,1.96,-1.96,-2.05,3.08,3.08,3.08
62.80,5.05,1.99,5.04,1.98,-1.98,-2.07,3.06,3.05,3.06
63.43,5.05,2.01,5.03,2.00,-2.00,-2.09,3.04,3.03,3.03
64.07,5.04,2.03,5.03,2.03,-2.03,-2.10,3.01,3.00,3.01
64.71,5.03,2.04,5.02,2.05,-2.05,-2.12,2.98,2.98,2.98
65.35,5.02,2.06,5.02,2.07,-2.07,-2.13,2.95,2.95,2.96
66.01,5.01,2.08,5.02,2.09,-2.09,-2.15,2.91,2.92,2.93
66.67,5.00,2.09,5.01,2.11,-2.11,-2.16,2.88,2.90,2.90
67.33,4.99,2.11,5.01,2.14,-2.14,-2.17,2.85,2.87,2.87
68.01,4.99,2.14,5.00,2.16,-2.16,-2.19,2.83,2.84,2.84
68.69,5.00,2.18,4.99,2.18,-2.18,-2.20,2.81,2.81,2.81
69.37,5.00,2.21,4.99,2.21,-2.21,-2.21,2.79,2.78,2.78
70.07,5.00,2.24,4.98,2.23,-2.23,-2.22,2.76,2.75,2.75
70.77,4.99,2.27,4.97,2.26,-2.26,-2.24,2.73,2.71,2.72
71.48,4.99,2.30,4.97,2.29,-2.29,-2.25,2.70,2.68,2.69
72.19,4.98,2.32,4.96,2.31,-2.31,-2.26,2.66,2.65,2.65
72.91,4.96,2.34,4.96,2.34,-2.34,-2.28,2.61,2.61,2.62
73.64,4.95,2.36,4.95,2.37,-2.37,-2.29,2.57,2.58,2.58
74.38,4.94,2.39,4.95,2.40,-2.40,-2.31,2.53,2.55,2.55
75.12,4.93,2.41,4.95,2.44,-2.44,-2.32,2.49,2.51,2.51
75.87,4.93,2.45,4.94,2.47,-2.47,-2.34,2.46,2.47,2.48
76.63,4.94,2.49,4.94,2.50,-2.50,-2.36,2.43,2.44,2.44
77.40,4.94,2.53,4.94,2.54,-2.54,-2.38,2.40,2.40,2.41
78.17,4.95,2.58,4.94,2.57,-2.57,-2.40,2.37,2.36,2.37
78.95,4.95,2.61,4.94,2.61,-2.61,-2.42,2.34,2.33,2.33
79.74,4.95,2.65,4.94,2.65,-2.65,-2.45,2.30,2.29,2.29
80.54,4.95,2.69,4.94,2.69,-2.69,-2.47,2.26,2.25,2.26
81.35,4.95,2.73,4.94,2.73,-2.73,-2.50,2.22,2.22,2.22
82.16,4.95,2.77,4.94,2.76,-2.76,-2.53,2.18,2.18,2.18
82.98,4.95,2.80,4.95,2.80,-2.80,-2.56,2.14,2.14,2.14
83.81,4.95,2.84,4.95,2.84,-2.84,-2.60,2.10,2.11,2.10
84.65,4.95,2.88,4.95,2.88,-2.88,-2.63,2.07,2.07,2.06
85.50,4.95,2.92,4.95,2.92,-2.92,-2.67,2.03,2.03,2.03
86.35,4.95,2.96,4.95,2.96,-2.96,-2.71,1.99,1.99,1.99
87.22,4.95,2.99,4.95,2.99,-2.99,-2.75,1.95,1.95,1.95
88.09,4.95,3.03,4.95,3.03,-3.03,-2.80,1.91,1.91,1.91
88.97,4.95,3.07,4.95,3.07,-3.07,-2.85,1.88,1.88,1.88
89.86,4.95,3.11,4.95,3.11,-3.11,-2.89,1.84,1.84,1.84
90.76,4.95,3.15,4.95,3.15,-3.15,-2.94,1.80,1.80,1.80
91.66,4.95,3.19,4.95,3.19,-3.19,-3.00,1.76,1.76,1.76
92.58,4.95,3.22,4.95,3.23,-3.23,-3.05,1.72,1.72,1.72
93.51,4.95,3.26,4.95,3.26,-3.26,-3.11,1.68,1.68,1.68
94.44,4.95,3.30,4.95,3.30,-3.30,-3.17,1.64,1.64,1.64
95.39,4.95,3.34,4.95,3.34,-3.34,-3.23,1.60,1.60,1.60
96.34,4.95,3.38,4.95,3.39,-3.39,-3.29,1.56,1.56,1.56
97.30,4.95,3.43,4.94,3.43,-3.43,-3.36,1.52,1.52,1.52
98.28,4.95,3.47,4.94,3.47,-3.47,-3.42,1.48,1.48,1.48
99.26,4.95,3.51,4.94,3.51,-3.51,-3.49,1.43,1.43,1.43
100.25,4.95,3.55,4.94,3.55,-3.55,-3.56,1.39,1.39,1.39
101.25,4.95,3.60,4.94,3.60,-3.60,-3.63,1.35,1.35,1.35
102.27,4.95,3.64,4.95,3.64,-3.64,-3.70,1.30,1.30,1.31
103.29,4.95,3.68,4.95,3.69,-3.69,-3.77,1.26,1.26,1.26
104.32,4.95,3.72,4.95,3.73,-3.73,-3.84,1.21,1.22,1.22
105.37,4.95,3.77,4.95,3.78,-3.78,-3.91,1.17,1.17,1.18
106.42,4.95,3.81,4.96,3.83,-3.83,-3.98,1.12,1.13,1.14
107.48,4.95,3.85,4.96,3.87,-3.87,-4.05,1.08,1.09,1.09
108.56,4.96,3.90,4.96,3.91,-3.91,-4.12,1.04,1.05,1.05
109.64,4.96,3.95,4.96,3.95,-3.95,-4.19,1.00,1.00,1.01
110.74,4.97,4.00,4.95,3.99,-3.99,-4.26,0.97,0.96,0.96
111.85,4.97,4.04,4.95,4.03,-4.03,-4.32,0.94,0.92,0.92
112.97,4.96,4.08,4.94,4.06,-4.06,-4.39,0.90,0.88,0.88
114.10,4.94,4.10,4.92,4.09,-4.09,-4.44,0.85,0.83,0.83
115.24,4.92,4.12,4.90,4.11,-4.11,-4.50,0.80,0.79,0.79
116.39,4.91,4.16,4.88,4.13,-4.13,-4.55,0.77,0.75,0.75
117.55,4.88,4.17,4.86,4.15,-4.15,-4.60,0.72,0.71,0.71
118.73,4.84,4.17,4.83,4.17,-4.17,-4.64,0.67,0.66,0.66
119.92,4.80,4.17,4.80,4.18,-4.18,-4.68,0.62,0.62,0.62
121.12,4.76,4.18,4.77,4.19,-4.19,-4.72,0.56,0.57,0.58
122.33,4.74,4.19,4.74,4.20,-4.20,-4.75,0.53,0.53,0.54
123.55,4.71,4.20,4.71,4.22,-4.22,-4.77,0.49,0.49,0.50
124.79,4.68,4.21,4.68,4.23,-4.23,-4.79,0.45,0.45,0.46
126.03,4.64,4.21,4.66,4.25,-4.25,-4.80,0.39,0.42,0.42
127.29,4.63,4.24,4.64,4.26,-4.26,-4.81,0.36,0.38,0.39
128.57,4.61,4.25,4.63,4.28,-4.28,-4.81,0.32,0.34,0.35
129.85,4.60,4.28,4.62,4.31,-4.31,-4.81,0.29,0.31,0.32
131.15,4.60,4.31,4.61,4.33,-4.33,-4.80,0.26,0.28,0.28
132.46,4.61,4.35,4.60,4.36,-4.36,-4.79,0.25,0.25,0.25
133.79,4.62,4.40,4.60,4.39,-4.39,-4.77,0.23,0.21,0.22
135.12,4.62,4.43,4.60,4.42,-4.42,-4.75,0.20,0.18,0.19
136.48,4.62,4.46,4.60,4.45,-4.45,-4.73,0.17,0.15,0.16
137.84,4.62,4.49,4.60,4.48,-4.48,-4.70,0.13,0.12,0.13
139.22,4.62,4.52,4.61,4.51,-4.51,-4.67,0.10,0.10,0.10
140.61,4.62,4.54,4.62,4.55,-4.55,-4.64,0.07,0.07,0.07
142.02,4.62,4.57,4.62,4.58,-4.58,-4.60,0.04,0.04,0.04
143.44,4.62,4.60,4.63,4.61,-4.61,-4.57,0.01,0.02,0.02
144.87,4.62,4.62,4.63,4.64,-4.64,-4.53,-0.03,-0.01,-0.01
146.32,4.62,4.65,4.63,4.67,-4.67,-4.49,-0.06,-0.04,-0.03
147.78,4.63,4.68,4.63,4.70,-4.70,-4.45,-0.07,-0.06,-0.06
149.26,4.63,4.71,4.63,4.72,-4.72,-4.42,-0.10,-0.09,-0.08
150.75,4.64,4.74,4.63,4.74,-4.74,-4.38,-0.11,-0.11,-0.11
152.26,4.65,4.78,4.63,4.76,-4.76,-4.34,-0.12,-0.14,-0.13
153.78,4.64,4.79,4.62,4.78,-4.78,-4.31,-0.14,-0.16,-0.16
155.32,4.63,4.81,4.61,4.79,-4.79,-4.28,-0.17,-0.18,-0.18
156.88,4.61,4.81,4.59,4.80,-4.80,-4.24,-0.19,-0.21,-0.21
158.44,4.60,4.83,4.57,4.81,-4.81,-4.21,-0.21,-0.24,-0.23
160.03,4.56,4.81,4.55,4.81,-4.81,-4.19,-0.25,-0.26,-0.26
161.63,4.54,4.82,4.52,4.81,-4.81,-4.16,-0.27,-0.29,-0.28
163.24,4.51,4.81,4.49,4.81,-4.81,-4.14,-0.30,-0.32,-0.31
164.88,4.46,4.79,4.46,4.81,-4.81,-4.12,-0.35,-0.34,-0.33
166.53,4.43,4.78,4.43,4.80,-4.80,-4.10,-0.38,-0.37,-0.36
168.19,4.40,4.78,4.41,4.80,-4.80,-4.08,-0.41,-0.39,-0.38
169.87,4.36,4.76,4.38,4.80,-4.80,-4.07,-0.44,-0.42,-0.40
171.57,4.34,4.76,4.36,4.80,-4.80,-4.06,-0.46,-0.44,-0.43
173.29,4.32,4.76,4.34,4.80,-4.80,-4.06,-0.48,-0.46,-0.45
175.02,4.30,4.76,4.33,4.80,-4.80,-4.05,-0.51,-0.47,-0.46
176.77,4.30,4.78,4.31,4.80,-4.80,-4.05,-0.51,-0.49,-0.48
178.54,4.30,4.80,4.30,4.80,-4.80,-4.06,-0.51,-0.51,-0.50
180.32,4.30,4.81,4.29,4.80,-4.80,-4.06,-0.51,-0.52,-0.52
182.13,4.30,4.83,4.27,4.80,-4.80,-4.07,-0.51,-0.53,-0.53
183.95,4.29,4.83,4.26,4.80,-4.80,-4.09,-0.52,-0.55,-0.54
185.79,4.27,4.82,4.24,4.80,-4.80,-4.10,-0.53,-0.56,-0.56
187.65,4.25,4.81,4.22,4.79,-4.79,-4.12,-0.55,-0.57,-0.57
189.52,4.23,4.80,4.20,4.78,-4.78,-4.14,-0.56,-0.58,-0.58
191.42,4.20,4.78,4.18,4.77,-4.77,-4.17,-0.58,-0.59,-0.59
193.33,4.16,4.75,4.16,4.76,-4.76,-4.19,-0.61,-0.60,-0.60
195.27,4.13,4.73,4.14,4.75,-4.75,-4.22,-0.62,-0.61,-0.61
197.22,4.10,4.71,4.11,4.73,-4.73,-4.25,-0.64,-0.62,-0.62
199.19,4.06,4.68,4.08,4.72,-4.72,-4.29,-0.66,-0.63,-0.62
201.18,4.04,4.67,4.06,4.70,-4.70,-4.32,-0.66,-0.64,-0.63
203.19,4.02,4.66,4.03,4.68,-4.68,-4.36,-0.67,-0.65,-0.64
205.23,4.01,4.66,4.01,4.67,-4.67,-4.40,-0.66,-0.66,-0.65
207.28,3.99,4.65,3.98,4.65,-4.65,-4.44,-0.67,-0.67,-0.66
209.35,3.97,4.64,3.96,4.64,-4.64,-4.48,-0.67,-0.68,-0.67
211.44,3.95,4.63,3.94,4.63,-4.63,-4.52,-0.68,-0.69,-0.68
213.56,3.93,4.62,3.92,4.61,-4.61,-4.56,-0.69,-0.69,-0.69
215.69,3.91,4.61,3.90,4.60,-4.60,-4.60,-0.69,-0.70,-0.70
217.85,3.88,4.59,3.87,4.58,-4.58,-4.64,-0.71,-0.71,-0.71
220.03,3.86,4.58,3.85,4.57,-4.57,-4.68,-0.71,-0.72,-0.72
222.23,3.83,4.56,3.82,4.55,-4.55,-4.72,-0.72,-0.73,-0.73
224.45,3.80,4.53,3.80,4.53,-4.53,-4.75,-0.74,-0.74,-0.74
226.70,3.77,4.51,3.77,4.51,-4.51,-4.79,-0.75,-0.74,-0.75
228.96,3.74,4.49,3.73,4.49,-4.49,-4.82,-0.75,-0.75,-0.75
231.25,3.72,4.48,3.71,4.47,-4.47,-4.84,-0.75,-0.76,-0.76
233.57,3.69,4.45,3.67,4.44,-4.44,-4.87,-0.76,-0.77,-0.77
235.90,3.64,4.41,3.65,4.42,-4.42,-4.88,-0.78,-0.77,-0.77
238.26,3.61,4.38,3.62,4.39,-4.39,-4.90,-0.79,-0.78,-0.78
240.64,3.58,4.36,3.59,4.37,-4.37,-4.91,-0.79,-0.78,-0.78
243.05,3.55,4.33,3.56,4.34,-4.34,-4.91,-0.80,-0.79,-0.78
245.48,3.53,4.31,3.53,4.32,-4.32,-4.91,-0.79,-0.79,-0.79
247.93,3.49,4.28,3.50,4.29,-4.29,-4.90,-0.81,-0.80,-0.79
250.41,3.47,4.26,3.46,4.27,-4.27,-4.89,-0.80,-0.80,-0.79
252.92,3.45,4.24,3.43,4.24,-4.24,-4.87,-0.80,-0.81,-0.80
255.45,3.43,4.23,3.40,4.22,-4.22,-4.85,-0.79,-0.81,-0.80
258.00,3.39,4.20,3.37,4.19,-4.19,-4.81,-0.81,-0.82,-0.81
260.58,3.36,4.17,3.35,4.17,-4.17,-4.78,-0.81,-0.82,-0.82
263.19,3.32,4.14,3.32,4.14,-4.14,-4.74,-0.83,-0.83,-0.82
265.82,3.27,4.09,3.29,4.12,-4.12,-4.69,-0.86,-0.83,-0.83
268.48,3.25,4.08,3.26,4.10,-4.10,-4.64,-0.85,-0.84,-0.84
271.16,3.22,4.06,3.23,4.07,-4.07,-4.59,-0.86,-0.84,-0.84
273.87,3.19,4.03,3.20,4.05,-4.05,-4.53,-0.86,-0.85,-0.85
276.61,3.17,4.02,3.16,4.02,-4.02,-4.46,-0.85,-0.86,-0.85
279.38,3.15,4.01,3.13,3.99,-3.99,-4.40,-0.85,-0.86,-0.86
282.17,3.13,3.99,3.10,3.97,-3.97,-4.33,-0.84,-0.87,-0.86
284.99,3.09,3.95,3.06,3.94,-3.94,-4.26,-0.85,-0.87,-0.87
287.84,3.05,3.92,3.03,3.91,-3.91,-4.19,-0.86,-0.88,-0.87
290.72,3.00,3.87,3.00,3.88,-3.88,-4.11,-0.88,-0.88,-0.87
293.63,2.96,3.83,2.97,3.85,-3.85,-4.04,-0.89,-0.88,-0.87
296.57,2.93,3.80,2.94,3.82,-3.82,-3.96,-0.89,-0.88,-0.88
299.53,2.89,3.76,2.91,3.79,-3.79,-3.89,-0.90,-0.88,-0.88
302.53,2.86,3.73,2.88,3.75,-3.75,-3.81,-0.90,-0.88,-0.88
305.55,2.84,3.71,2.84,3.72,-3.72,-3.73,-0.89,-0.88,-0.87
308.61,2.83,3.70,2.81,3.69,-3.69,-3.66,-0.86,-0.88,-0.87
311.69,2.80,3.67,2.77,3.65,-3.65,-3.58,-0.86,-0.88,-0.87
314.81,2.77,3.64,2.74,3.62,-3.62,-3.51,-0.86,-0.88,-0.87
317.96,2.73,3.59,2.72,3.59,-3.59,-3.44,-0.86,-0.87,-0.87
321.14,2.69,3.55,2.69,3.55,-3.55,-3.37,-0.87,-0.87,-0.86
324.35,2.65,3.51,2.66,3.52,-3.52,-3.30,-0.88,-0.86,-0.86
327.59,2.61,3.47,2.63,3.49,-3.49,-3.23,-0.88,-0.86,-0.86
330.87,2.58,3.43,2.59,3.45,-3.45,-3.16,-0.88,-0.86,-0.86
334.18,2.56,3.41,2.56,3.42,-3.42,-3.10,-0.86,-0.86,-0.85
337.52,2.53,3.38,2.52,3.38,-3.38,-3.04,-0.85,-0.86,-0.85
340.90,2.51,3.36,2.49,3.34,-3.34,-2.98,-0.84,-0.86,-0.85
344.30,2.48,3.32,2.45,3.31,-3.31,-2.92,-0.83,-0.85,-0.85
347.75,2.44,3.28,2.42,3.27,-3.27,-2.86,-0.83,-0.85,-0.85
351.23,2.38,3.22,2.38,3.23,-3.23,-2.81,-0.85,-0.85,-0.84
354.74,2.34,3.18,2.35,3.19,-3.19,-2.75,-0.85,-0.84,-0.84
358.28,2.29,3.12,2.31,3.14,-3.14,-2.70,-0.86,-0.84,-0.84
361.87,2.26,3.09,2.27,3.10,-3.10,-2.66,-0.85,-0.83,-0.84
365.49,2.23,3.06,2.23,3.06,-3.06,-2.61,-0.83,-0.83,-0.83
369.14,2.20,3.03,2.18,3.02,-3.02,-2.57,-0.82,-0.83,-0.83
372.83,2.16,2.98,2.14,2.97,-2.97,-2.52,-0.82,-0.83,-0.83
376.56,2.12,2.94,2.10,2.93,-2.93,-2.48,-0.81,-0.83,-0.82
380.33,2.08,2.90,2.05,2.88,-2.88,-2.45,-0.81,-0.83,-0.82
384.13,2.02,2.83,2.02,2.84,-2.84,-2.41,-0.82,-0.82,-0.82
387.97,1.97,2.78,1.98,2.79,-2.79,-2.38,-0.83,-0.81,-0.81
391.85,1.92,2.72,1.94,2.75,-2.75,-2.34,-0.83,-0.81,-0.81
395.77,1.88,2.68,1.90,2.71,-2.71,-2.31,-0.83,-0.80,-0.80
399.73,1.85,2.64,1.87,2.67,-2.67,-2.28,-0.82,-0.80,-0.80
403.72,1.83,2.62,1.83,2.63,-2.63,-2.25,-0.80,-0.80,-0.79
407.76,1.81,2.59,1.80,2.59,-2.59,-2.23,-0.78,-0.79,-0.79
411.84,1.79,2.56,1.76,2.55,-2.55,-2.20,-0.77,-0.79,-0.78
415.96,1.75,2.52,1.73,2.52,-2.52,-2.18,-0.77,-0.78,-0.77
420.12,1.72,2.48,1.70,2.48,-2.48,-2.16,-0.77,-0.78,-0.77
424.32,1.68,2.44,1.68,2.45,-2.45,-2.13,-0.77,-0.77,-0.77
428.56,1.64,2.40,1.65,2.42,-2.42,-2.11,-0.78,-0.77,-0.76
432.85,1.61,2.37,1.62,2.38,-2.38,-2.09,-0.78,-0.76,-0.76
437.18,1.58,2.33,1.59,2.35,-2.35,-2.07,-0.78,-0.76,-0.76
441.55,1.57,2.32,1.56,2.32,-2.32,-2.06,-0.75,-0.76,-0.76
445.96,1.55,2.30,1.53,2.29,-2.29,-2.04,-0.74,-0.76,-0.76
450.42,1.51,2.26,1.49,2.26,-2.26,-2.02,-0.75,-0.76,-0.76
454.93,1.49,2.24,1.46,2.22,-2.22,-2.00,-0.74,-0.76,-0.76
459.48,1.45,2.20,1.43,2.19,-2.19,-1.98,-0.75,-0.76,-0.75
464.07,1.41,2.16,1.40,2.16,-2.16,-1.97,-0.75,-0.76,-0.75
468.71,1.37,2.12,1.37,2.12,-2.12,-1.95,-0.76,-0.75,-0.75
473.40,1.33,2.08,1.34,2.09,-2.09,-1.93,-0.76,-0.75,-0.75
478.13,1.29,2.03,1.31,2.05,-2.05,-1.91,-0.77,-0.74,-0.75
482.91,1.26,2.00,1.28,2.01,-2.01,-1.89,-0.76,-0.74,-0.74
487.74,1.24,1.97,1.24,1.98,-1.98,-1.87,-0.74,-0.73,-0.74
492.62,1.22,1.94,1.21,1.94,-1.94,-1.86,-0.72,-0.73,-0.73
497.55,1.20,1.92,1.17,1.90,-1.90,-1.83,-0.70,-0.73,-0.72
502.52,1.17,1.88,1.14,1.86,-1.86,-1.81,-0.69,-0.72,-0.71
507.55,1.13,1.83,1.11,1.82,-1.82,-1.79,-0.69,-0.71,-0.70
512.62,1.09,1.77,1.08,1.78,-1.78,-1.77,-0.69,-0.70,-0.69
517.75,1.05,1.73,1.05,1.74,-1.74,-1.75,-0.69,-0.69,-0.68
522.93,1.01,1.68,1.02,1.70,-1.70,-1.72,-0.69,-0.68,-0.67
528.16,0.97,1.63,0.99,1.65,-1.65,-1.70,-0.69,-0.67,-0.66
533.44,0.94,1.59,0.96,1.61,-1.61,-1.67,-0.68,-0.66,-0.65
538.77,0.91,1.55,0.92,1.57,-1.57,-1.65,-0.66,-0.65,-0.65
544.16,0.89,1.52,0.89,1.53,-1.53,-1.62,-0.64,-0.64,-0.64
549.60,0.87,1.49,0.85,1.48,-1.48,-1.60,-0.62,-0.63,-0.63
555.10,0.85,1.46,0.82,1.44,-1.44,-1.57,-0.59,-0.62,-0.62
560.65,0.82,1.42,0.79,1.39,-1.39,-1.54,-0.58,-0.60,-0.60
566.25,0.78,1.37,0.76,1.35,-1.35,-1.52,-0.57,-0.59,-0.59
571.92,0.73,1.30,0.73,1.30,-1.30,-1.49,-0.58,-0.58,-0.58
577.64,0.69,1.25,0.70,1.26,-1.26,-1.46,-0.57,-0.56,-0.56
583.41,0.66,1.20,0.67,1.21,-1.21,-1.43,-0.56,-0.55,-0.55
589.25,0.62,1.15,0.64,1.17,-1.17,-1.41,-0.56,-0.53,-0.53
595.14,0.59,1.10,0.60,1.13,-1.13,-1.38,-0.54,-0.52,-0.52
601.09,0.57,1.07,0.57,1.09,-1.09,-1.35,-0.52,-0.51,-0.51
607.10,0.54,1.03,0.54,1.04,-1.04,-1.33,-0.51,-0.51,-0.50
613.17,0.53,1.01,0.51,1.00,-1.00,-1.30,-0.48,-0.50,-0.49
619.30,0.50,0.98,0.47,0.96,-0.96,-1.27,-0.47,-0.49,-0.48
625.50,0.46,0.93,0.44,0.93,-0.93,-1.25,-0.47,-0.48,-0.47
631.75,0.43,0.90,0.42,0.89,-0.89,-1.22,-0.46,-0.48,-0.47
638.07,0.39,0.85,0.39,0.85,-0.85,-1.20,-0.47,-0.47,-0.47
644.45,0.35,0.81,0.35,0.82,-0.82,-1.17,-0.47,-0.47,-0.47
650.89,0.32,0.78,0.32,0.79,-0.79,-1.15,-0.47,-0.47,-0.47
657.40,0.29,0.76,0.29,0.76,-0.76,-1.13,-0.47,-0.47,-0.47
663.98,0.26,0.73,0.25,0.73,-0.73,-1.11,-0.47,-0.47,-0.47
670.62,0.24,0.71,0.22,0.70,-0.70,-1.08,-0.46,-0.48,-0.48
677.32,0.21,0.68,0.19,0.67,-0.67,-1.06,-0.47,-0.48,-0.48
684.10,0.18,0.65,0.17,0.65,-0.65,-1.04,-0.48,-0.48,-0.48
690.94,0.15,0.62,0.14,0.63,-0.63,-1.02,-0.48,-0.49,-0.48
697.85,0.11,0.58,0.13,0.61,-0.61,-1.00,-0.51,-0.48,-0.48
704.83,0.09,0.56,0.11,0.60,-0.60,-0.98,-0.51,-0.48,-0.47
711.87,0.07,0.54,0.10,0.59,-0.59,-0.97,-0.52,-0.48,-0.47
718.99,0.07,0.53,0.10,0.57,-0.57,-0.95,-0.51,-0.48,-0.47
726.18,0.07,0.53,0.09,0.56,-0.56,-0.93,-0.50,-0.48,-0.47
