frequency,raw,error,smoothed,error_smoothed,equalization,parametric_eq,fixed_band_eq,equalized_raw,equalized_smoothed,target
20.00,-4.72,-6.01,-4.57,-5.89,6.00,6.45,1.63,1.28,1.43,1.29
20.20,-4.71,-6.05,-4.63,-5.99,6.00,6.38,1.68,1.29,1.37,1.34
20.40,-4.70,-6.09,-4.68,-6.08,6.00,6.31,1.73,1.30,1.32,1.39
20.61,-4.70,-6.12,-4.73,-6.15,6.00,6.23,1.78,1.30,1.27,1.42
20.81,-4.69,-6.16,-4.77,-6.22,6.00,6.16,1.83,1.31,1.23,1.47
21.02,-4.68,-6.19,-4.80,-6.28,6.00,6.09,1.88,1.32,1.20,1.51
21.23,-4.71,-6.24,-4.82,-6.32,6.00,6.01,1.94,1.29,1.18,1.53
21.44,-4.74,-6.29,-4.83,-6.36,6.00,5.93,2.00,1.26,1.17,1.55
21.66,-4.77,-6.33,-4.83,-6.39,6.00,5.85,2.06,1.23,1.17,1.57
21.87,-4.80,-6.38,-4.83,-6.40,6.00,5.78,2.12,1.20,1.17,1.58
22.09,-4.82,-6.41,-4.82,-6.40,6.00,5.70,2.18,1.18,1.18,1.60
22.31,-4.82,-6.42,-4.80,-6.40,6.00,5.62,2.25,1.18,1.20,1.61
22.54,-4.82,-6.42,-4.78,-6.39,6.00,5.54,2.31,1.18,1.22,1.61
22.76,-4.82,-6.42,-4.76,-6.37,6.00,5.46,2.38,1.18,1.24,1.61
22.99,-4.82,-6.41,-4.72,-6.33,6.00,5.38,2.45,1.18,1.28,1.60
23.22,-4.73,-6.32,-4.66,-6.27,6.00,5.30,2.52,1.27,1.34,1.60
23.45,-4.64,-6.23,-4.60,-6.21,5.99,5.22,2.59,1.35,1.39,1.60
23.69,-4.54,-6.14,-4.52,-6.13,5.96,5.14,2.66,1.43,1.44,1.61
23.92,-4.44,-6.05,-4.43,-6.05,5.93,5.06,2.74,1.48,1.49,1.61
24.16,-4.33,-5.95,-4.34,-5.95,5.87,4.98,2.82,1.54,1.53,1.62
24.40,-4.21,-5.84,-4.25,-5.86,5.81,4.90,2.89,1.60,1.57,1.62
24.65,-4.09,-5.70,-4.15,-5.77,5.74,4.82,2.97,1.65,1.59,1.61
24.89,-3.96,-5.58,-4.06,-5.67,5.66,4.74,3.05,1.70,1.61,1.61
25.14,-3.87,-5.49,-3.96,-5.57,5.57,4.66,3.13,1.70,1.62,1.61
25.39,-3.79,-5.42,-3.86,-5.48,5.48,4.59,3.21,1.68,1.62,1.62
25.65,-3.73,-5.35,-3.76,-5.38,5.38,4.51,3.29,1.66,1.62,1.62
25.91,-3.66,-5.27,-3.66,-5.28,5.28,4.43,3.37,1.62,1.62,1.61
26.16,-3.56,-5.18,-3.56,-5.17,5.17,4.36,3.45,1.61,1.62,1.61
26.43,-3.47,-5.08,-3.44,-5.06,5.06,4.28,3.53,1.59,1.62,1.61
26.69,-3.37,-4.98,-3.31,-4.93,4.93,4.21,3.61,1.56,1.61,1.61
26.96,-3.28,-4.90,-3.17,-4.78,4.78,4.14,3.68,1.51,1.61,1.62
27.23,-3.10,-4.72,-3.01,-4.63,4.63,4.06,3.75,1.53,1.61,1.62
27.50,-2.91,-4.53,-2.84,-4.45,4.45,3.99,3.83,1.55,1.61,1.62
27.77,-2.71,-4.32,-2.66,-4.27,4.27,3.92,3.89,1.55,1.61,1.61
28.05,-2.50,-4.11,-2.45,-4.06,4.06,3.85,3.96,1.55,1.61,1.61
28.33,-2.25,-3.85,-2.23,-3.84,3.84,3.78,4.02,1.58,1.61,1.60
28.62,-2.01,-3.61,-2.01,-3.61,3.61,3.71,4.08,1.60,1.61,1.60
28.90,-1.76,-3.37,-1.77,-3.37,3.37,3.64,4.13,1.61,1.61,1.60
29.19,-1.53,-3.12,-1.53,-3.13,3.13,3.58,4.18,1.61,1.60,1.59
29.48,-1.30,-2.92,-1.30,-2.90,2.90,3.51,4.22,1.59,1.60,1.61
29.78,-1.08,-2.68,-1.08,-2.68,2.68,3.45,4.25,1.60,1.60,1.60
30.08,-0.87,-2.48,-0.88,-2.48,2.48,3.38,4.28,1.61,1.60,1.61
30.38,-0.69,-2.29,-0.71,-2.31,2.31,3.32,4.31,1.62,1.60,1.60
30.68,-0.52,-2.11,-0.56,-2.16,2.16,3.26,4.32,1.65,1.60,1.60
30.99,-0.35,-1.94,-0.45,-2.05,2.05,3.19,4.33,1.70,1.60,1.60
31.30,-0.27,-1.86,-0.37,-1.97,1.97,3.13,4.33,1.70,1.60,1.60
31.61,-0.21,-1.80,-0.32,-1.91,1.91,3.07,4.33,1.71,1.59,1.59
31.93,-0.14,-1.73,-0.30,-1.89,1.89,3.01,4.31,1.76,1.59,1.59
32.24,-0.20,-1.78,-0.31,-1.90,1.90,2.96,4.30,1.70,1.59,1.58
32.57,-0.31,-1.90,-0.33,-1.92,1.92,2.90,4.27,1.61,1.58,1.59
32.89,-0.42,-2.01,-0.38,-1.96,1.96,2.84,4.24,1.54,1.58,1.59
33.22,-0.52,-2.09,-0.44,-2.01,2.01,2.79,4.20,1.50,1.58,1.58
33.55,-0.60,-2.17,-0.52,-2.09,2.09,2.73,4.16,1.50,1.57,1.58
33.89,-0.68,-2.24,-0.61,-2.18,2.18,2.68,4.11,1.51,1.57,1.56
34.23,-0.75,-2.32,-0.71,-2.28,2.28,2.62,4.05,1.53,1.57,1.57
34.57,-0.82,-2.38,-0.80,-2.37,2.37,2.57,3.99,1.55,1.56,1.56
34.92,-0.88,-2.43,-0.88,-2.44,2.44,2.52,3.93,1.56,1.56,1.56
35.27,-0.91,-2.46,-0.94,-2.50,2.50,2.47,3.87,1.59,1.56,1.56
35.62,-0.92,-2.47,-0.98,-2.53,2.53,2.42,3.80,1.62,1.56,1.55
35.97,-0.94,-2.49,-0.98,-2.54,2.54,2.37,3.73,1.60,1.56,1.55
36.33,-1.01,-2.57,-0.96,-2.52,2.52,2.32,3.65,1.51,1.56,1.56
36.70,-1.09,-2.63,-0.92,-2.48,2.48,2.27,3.58,1.39,1.56,1.55
37.06,-1.11,-2.66,-0.85,-2.41,2.41,2.23,3.50,1.30,1.56,1.55
37.43,-0.93,-2.50,-0.77,-2.33,2.33,2.18,3.42,1.40,1.56,1.56
37.81,-0.77,-2.33,-0.67,-2.23,2.23,2.13,3.34,1.47,1.56,1.56
38.19,-0.60,-2.16,-0.56,-2.13,2.13,2.09,3.27,1.53,1.56,1.56
38.57,-0.45,-2.01,-0.45,-2.01,2.01,2.05,3.19,1.57,1.56,1.57
38.95,-0.28,-1.86,-0.33,-1.90,1.90,2.00,3.11,1.61,1.57,1.57
39.34,-0.12,-1.69,-0.22,-1.79,1.79,1.96,3.03,1.67,1.57,1.57
39.74,0.02,-1.54,-0.12,-1.69,1.69,1.92,2.96,1.71,1.57,1.57
40.14,0.13,-1.44,-0.03,-1.60,1.60,1.88,2.88,1.73,1.57,1.57
40.54,0.16,-1.41,0.05,-1.52,1.52,1.83,2.81,1.69,1.57,1.57
40.94,0.19,-1.37,0.10,-1.47,1.47,1.79,2.73,1.66,1.57,1.57
41.35,0.17,-1.39,0.12,-1.44,1.44,1.76,2.66,1.62,1.57,1.56
41.76,0.15,-1.41,0.11,-1.45,1.45,1.72,2.59,1.60,1.56,1.56
42.18,0.11,-1.45,0.09,-1.47,1.47,1.68,2.52,1.58,1.55,1.57
42.60,0.03,-1.52,0.04,-1.50,1.50,1.64,2.45,1.54,1.55,1.55
43.03,-0.04,-1.58,-0.01,-1.55,1.55,1.60,2.39,1.51,1.54,1.55
43.46,-0.10,-1.64,-0.07,-1.60,1.60,1.57,2.32,1.50,1.53,1.54
43.90,-0.16,-1.67,-0.13,-1.65,1.65,1.53,2.26,1.49,1.52,1.52
44.33,-0.21,-1.71,-0.18,-1.69,1.69,1.49,2.20,1.48,1.51,1.50
44.78,-0.27,-1.75,-0.21,-1.71,1.71,1.46,2.14,1.45,1.50,1.49
45.23,-0.31,-1.79,-0.23,-1.72,1.72,1.43,2.08,1.42,1.49,1.48
45.68,-0.33,-1.79,-0.25,-1.72,1.72,1.39,2.03,1.40,1.48,1.47
46.13,-0.34,-1.79,-0.24,-1.71,1.71,1.36,1.98,1.37,1.47,1.45
46.60,-0.31,-1.76,-0.23,-1.69,1.69,1.33,1.92,1.38,1.45,1.46
47.06,-0.28,-1.72,-0.21,-1.66,1.66,1.29,1.87,1.38,1.44,1.44
47.53,-0.19,-1.62,-0.19,-1.62,1.62,1.26,1.82,1.43,1.43,1.44
48.01,-0.10,-1.54,-0.16,-1.58,1.58,1.23,1.78,1.48,1.42,1.44
48.49,-0.05,-1.47,-0.12,-1.53,1.53,1.20,1.73,1.49,1.41,1.42
48.97,0.00,-1.40,-0.09,-1.49,1.49,1.17,1.69,1.50,1.40,1.41
49.46,0.00,-1.38,-0.06,-1.45,1.45,1.14,1.64,1.46,1.39,1.39
49.96,0.00,-1.37,-0.03,-1.41,1.41,1.11,1.60,1.41,1.38,1.37
50.46,0.00,-1.37,-0.00,-1.38,1.38,1.08,1.56,1.38,1.37,1.37
50.96,0.00,-1.36,0.02,-1.35,1.35,1.05,1.52,1.35,1.37,1.37
51.47,0.00,-1.34,0.03,-1.33,1.33,1.02,1.49,1.33,1.36,1.35
51.99,0.00,-1.33,0.03,-1.32,1.32,0.99,1.45,1.33,1.35,1.34
52.51,0.00,-1.34,0.02,-1.32,1.32,0.96,1.41,1.32,1.34,1.34
53.03,0.00,-1.34,0.01,-1.32,1.32,0.94,1.38,1.33,1.33,1.34
53.56,0.00,-1.33,0.00,-1.32,1.32,0.91,1.35,1.33,1.33,1.33
54.10,0.00,-1.32,-0.01,-1.33,1.33,0.88,1.31,1.33,1.32,1.32
54.64,0.00,-1.31,-0.02,-1.34,1.34,0.86,1.28,1.34,1.32,1.31
55.18,-0.01,-1.32,-0.03,-1.34,1.34,0.83,1.25,1.34,1.31,1.31
55.74,-0.06,-1.36,-0.05,-1.35,1.35,0.80,1.22,1.30,1.31,1.30
56.29,-0.09,-1.39,-0.06,-1.35,1.35,0.78,1.19,1.27,1.30,1.30
56.86,-0.10,-1.38,-0.07,-1.36,1.36,0.75,1.16,1.26,1.29,1.29
57.42,-0.10,-1.36,-0.09,-1.37,1.37,0.73,1.13,1.27,1.28,1.27
58.00,-0.10,-1.36,-0.10,-1.37,1.37,0.70,1.10,1.28,1.27,1.26
58.58,-0.10,-1.36,-0.13,-1.38,1.38,0.68,1.07,1.28,1.25,1.26
59.16,-0.12,-1.36,-0.15,-1.38,1.38,0.66,1.05,1.26,1.23,1.25
59.76,-0.19,-1.42,-0.17,-1.39,1.39,0.63,1.02,1.20,1.21,1.23
60.35,-0.21,-1.41,-0.20,-1.39,1.39,0.61,0.99,1.18,1.19,1.20
60.96,-0.20,-1.37,-0.22,-1.38,1.38,0.59,0.96,1.19,1.16,1.17
61.57,-0.19,-1.33,-0.23,-1.37,1.37,0.56,0.93,1.18,1.14,1.14
62.18,-0.21,-1.31,-0.24,-1.34,1.34,0.54,0.91,1.14,1.11,1.10
62.80,-0.28,-1.34,-0.24,-1.32,1.32,0.52,0.88,1.04,1.07,1.07
63.43,-0.30,-1.33,-0.24,-1.28,1.28,0.49,0.85,0.99,1.04,1.03
64.07,-0.30,-1.29,-0.24,-1.25,1.25,0.47,0.82,0.95,1.00,1.00
64.71,-0.30,-1.25,-0.23,-1.20,1.20,0.45,0.80,0.91,0.97,0.96
65.35,-0.28,-1.21,-0.22,-1.15,1.15,0.43,0.77,0.87,0.93,0.93
66.01,-0.25,-1.14,-0.20,-1.09,1.09,0.41,0.74,0.85,0.89,0.89
66.67,-0.18,-1.03,-0.18,-1.04,1.04,0.38,0.71,0.86,0.85,0.85
67.33,-0.13,-0.94,-0.17,-0.98,0.98,0.36,0.68,0.86,0.82,0.81
68.01,-0.10,-0.88,-0.15,-0.93,0.93,0.34,0.66,0.84,0.78,0.78
68.69,-0.10,-0.84,-0.14,-0.88,0.88,0.32,0.63,0.78,0.74,0.74
69.37,-0.10,-0.80,-0.13,-0.83,0.83,0.30,0.60,0.73,0.70,0.70
70.07,-0.10,-0.75,-0.13,-0.78,0.78,0.28,0.57,0.69,0.66,0.66
70.77,-0.10,-0.72,-0.13,-0.74,0.74,0.26,0.54,0.65,0.61,0.63
71.48,-0.11,-0.69,-0.14,-0.71,0.71,0.24,0.51,0.60,0.57,0.58
72.19,-0.14,-0.67,-0.15,-0.68,0.68,0.22,0.48,0.54,0.53,0.53
72.91,-0.19,-0.67,-0.17,-0.65,0.65,0.20,0.45,0.47,0.48,0.49
73.64,-0.20,-0.64,-0.19,-0.63,0.63,0.18,0.43,0.44,0.44,0.44
74.38,-0.23,-0.62,-0.22,-0.61,0.61,0.16,0.40,0.39,0.40,0.39
75.12,-0.28,-0.63,-0.24,-0.60,0.60,0.14,0.37,0.32,0.35,0.35
75.87,-0.30,-0.60,-0.26,-0.57,0.57,0.12,0.34,0.28,0.31,0.30
76.63,-0.30,-0.56,-0.28,-0.55,0.55,0.10,0.31,0.25,0.27,0.27
77.40,-0.30,-0.52,-0.29,-0.52,0.52,0.08,0.28,0.22,0.23,0.23
78.17,-0.30,-0.48,-0.29,-0.49,0.49,0.06,0.25,0.19,0.19,0.18
78.95,-0.30,-0.46,-0.30,-0.46,0.46,0.04,0.22,0.16,0.16,0.16
79.74,-0.30,-0.42,-0.30,-0.42,0.42,0.02,0.19,0.12,0.12,0.12
80.54,-0.30,-0.39,-0.29,-0.38,0.38,-0.00,0.16,0.08,0.09,0.09
81.35,-0.30,-0.35,-0.28,-0.33,0.33,-0.02,0.14,0.04,0.05,0.05
82.16,-0.29,-0.30,-0.26,-0.29,0.29,-0.04,0.11,-0.00,0.02,0.02
82.98,-0.25,-0.24,-0.25,-0.23,0.23,-0.06,0.08,-0.01,-0.01,-0.00
83.81,-0.21,-0.16,-0.23,-0.18,0.18,-0.08,0.05,-0.02,-0.04,-0.05
84.65,-0.20,-0.12,-0.21,-0.13,0.13,-0.10,0.02,-0.07,-0.08,-0.08
85.50,-0.20,-0.09,-0.19,-0.08,0.08,-0.12,-0.01,-0.12,-0.11,-0.10
86.35,-0.20,-0.06,-0.17,-0.03,0.03,-0.14,-0.04,-0.17,-0.14,-0.14
87.22,-0.18,-0.01,-0.15,0.02,-0.02,-0.16,-0.07,-0.20,-0.17,-0.17
88.09,-0.10,0.11,-0.13,0.07,-0.07,-0.18,-0.10,-0.17,-0.21,-0.21
88.97,-0.09,0.15,-0.12,0.12,-0.12,-0.20,-0.13,-0.21,-0.24,-0.24
89.86,-0.09,0.19,-0.10,0.17,-0.17,-0.22,-0.16,-0.26,-0.28,-0.28
90.76,-0.09,0.23,-0.09,0.22,-0.22,-0.24,-0.19,-0.30,-0.31,-0.31
91.66,-0.09,0.25,-0.09,0.26,-0.26,-0.26,-0.22,-0.34,-0.34,-0.34
92.58,-0.09,0.30,-0.08,0.29,-0.29,-0.28,-0.25,-0.38,-0.38,-0.39
93.51,-0.09,0.33,-0.08,0.33,-0.33,-0.30,-0.28,-0.41,-0.41,-0.41
94.44,-0.09,0.35,-0.08,0.36,-0.36,-0.32,-0.31,-0.45,-0.44,-0.44
95.39,-0.09,0.38,-0.08,0.39,-0.39,-0.34,-0.34,-0.48,-0.47,-0.47
96.34,-0.09,0.42,-0.09,0.42,-0.42,-0.36,-0.37,-0.50,-0.50,-0.51
97.30,-0.10,0.44,-0.10,0.44,-0.44,-0.38,-0.40,-0.53,-0.53,-0.54
98.28,-0.11,0.46,-0.11,0.45,-0.45,-0.40,-0.43,-0.56,-0.56,-0.56
99.26,-0.12,0.48,-0.12,0.47,-0.47,-0.42,-0.47,-0.59,-0.59,-0.59
100.25,-0.14,0.49,-0.14,0.49,-0.49,-0.44,-0.50,-0.62,-0.62,-0.62
101.25,-0.16,0.49,-0.15,0.50,-0.50,-0.46,-0.53,-0.66,-0.65,-0.65
102.27,-0.17,0.51,-0.17,0.51,-0.51,-0.48,-0.56,-0.68,-0.68,-0.68
103.29,-0.18,0.54,-0.19,0.52,-0.52,-0.50,-0.59,-0.70,-0.71,-0.72
104.32,-0.20,0.54,-0.21,0.53,-0.53,-0.52,-0.62,-0.73,-0.74,-0.74
105.37,-0.23,0.54,-0.23,0.55,-0.55,-0.54,-0.65,-0.77,-0.78,-0.77
106.42,-0.25,0.55,-0.25,0.56,-0.56,-0.56,-0.68,-0.80,-0.81,-0.80
107.48,-0.28,0.56,-0.27,0.57,-0.57,-0.58,-0.71,-0.84,-0.84,-0.84
108.56,-0.30,0.58,-0.29,0.58,-0.58,-0.60,-0.74,-0.88,-0.88,-0.88
109.64,-0.32,0.59,-0.31,0.60,-0.60,-0.62,-0.77,-0.91,-0.91,-0.91
110.74,-0.34,0.61,-0.33,0.62,-0.62,-0.65,-0.80,-0.95,-0.94,-0.94
111.85,-0.36,0.61,-0.34,0.64,-0.64,-0.67,-0.82,-0.99,-0.98,-0.96
112.97,-0.37,0.65,-0.35,0.66,-0.66,-0.69,-0.85,-1.02,-1.01,-1.01
114.10,-0.37,0.67,-0.36,0.68,-0.68,-0.71,-0.87,-1.04,-1.04,-1.04
115.24,-0.38,0.69,-0.37,0.70,-0.70,-0.73,-0.90,-1.08,-1.07,-1.07
116.39,-0.37,0.74,-0.37,0.73,-0.73,-0.75,-0.92,-1.09,-1.09,-1.11
117.55,-0.37,0.76,-0.37,0.75,-0.75,-0.77,-0.95,-1.12,-1.12,-1.12
118.73,-0.37,0.79,-0.36,0.78,-0.78,-0.80,-0.97,-1.14,-1.14,-1.15
119.92,-0.36,0.80,-0.36,0.81,-0.81,-0.82,-0.99,-1.16,-1.16,-1.16
121.12,-0.35,0.84,-0.35,0.83,-0.83,-0.84,-1.01,-1.18,-1.18,-1.19
122.33,-0.34,0.87,-0.34,0.85,-0.85,-0.86,-1.03,-1.19,-1.20,-1.20
123.55,-0.34,0.87,-0.34,0.88,-0.88,-0.88,-1.04,-1.21,-1.21,-1.21
124.79,-0.33,0.90,-0.33,0.90,-0.90,-0.91,-1.06,-1.23,-1.23,-1.22
126.03,-0.32,0.92,-0.32,0.93,-0.93,-0.93,-1.07,-1.24,-1.24,-1.24
127.29,-0.31,0.94,-0.31,0.94,-0.94,-0.95,-1.09,-1.25,-1.25,-1.24
128.57,-0.31,0.96,-0.31,0.96,-0.96,-0.97,-1.10,-1.26,-1.27,-1.27
129.85,-0.30,0.98,-0.31,0.97,-0.97,-0.99,-1.11,-1.27,-1.28,-1.28
131.15,-0.30,1.00,-0.30,0.99,-0.99,-1.02,-1.12,-1.29,-1.29,-1.29
132.46,-0.30,1.01,-0.30,1.01,-1.01,-1.04,-1.13,-1.31,-1.31,-1.31
133.79,-0.33,0.99,-0.30,1.02,-1.02,-1.06,-1.14,-1.35,-1.32,-1.32
135.12,-0.28,1.06,-0.30,1.03,-1.03,-1.08,-1.14,-1.30,-1.33,-1.34
136.48,-0.28,1.06,-0.30,1.04,-1.04,-1.11,-1.15,-1.32,-1.34,-1.34
137.84,-0.28,1.08,-0.30,1.05,-1.05,-1.13,-1.15,-1.33,-1.35,-1.36
139.22,-0.34,1.04,-0.30,1.07,-1.07,-1.15,-1.16,-1.41,-1.37,-1.38
140.61,-0.37,1.03,-0.30,1.09,-1.09,-1.17,-1.16,-1.45,-1.38,-1.40
142.02,-0.29,1.11,-0.30,1.10,-1.10,-1.20,-1.17,-1.39,-1.40,-1.40
143.44,-0.28,1.14,-0.31,1.12,-1.12,-1.22,-1.17,-1.39,-1.42,-1.42
144.87,-0.30,1.15,-0.31,1.13,-1.13,-1.24,-1.17,-1.43,-1.45,-1.44
146.32,-0.36,1.11,-0.33,1.15,-1.15,-1.26,-1.18,-1.51,-1.48,-1.47
147.78,-0.38,1.11,-0.34,1.17,-1.17,-1.29,-1.18,-1.55,-1.51,-1.49
149.26,-0.32,1.21,-0.36,1.19,-1.19,-1.31,-1.19,-1.51,-1.55,-1.52
150.75,-0.27,1.31,-0.38,1.22,-1.22,-1.33,-1.19,-1.49,-1.60,-1.58
152.26,-0.33,1.31,-0.39,1.26,-1.26,-1.35,-1.19,-1.59,-1.65,-1.63
153.78,-0.39,1.30,-0.40,1.31,-1.31,-1.37,-1.20,-1.69,-1.70,-1.69
155.32,-0.45,1.30,-0.40,1.36,-1.36,-1.40,-1.20,-1.81,-1.76,-1.75
156.88,-0.47,1.34,-0.40,1.42,-1.42,-1.42,-1.21,-1.88,-1.82,-1.81
158.44,-0.47,1.42,-0.41,1.47,-1.47,-1.44,-1.22,-1.94,-1.88,-1.88
160.03,-0.47,1.49,-0.41,1.53,-1.53,-1.46,-1.23,-2.00,-1.94,-1.95
161.63,-0.48,1.54,-0.40,1.59,-1.59,-1.48,-1.23,-2.07,-1.99,-2.02
163.24,-0.44,1.63,-0.39,1.65,-1.65,-1.50,-1.24,-2.09,-2.04,-2.07
164.88,-0.38,1.73,-0.38,1.70,-1.70,-1.52,-1.25,-2.08,-2.09,-2.11
166.53,-0.32,1.83,-0.38,1.75,-1.75,-1.54,-1.26,-2.06,-2.13,-2.14
168.19,-0.29,1.89,-0.37,1.79,-1.79,-1.57,-1.28,-2.07,-2.16,-2.17
169.87,-0.30,1.91,-0.35,1.83,-1.83,-1.59,-1.29,-2.12,-2.18,-2.20
171.57,-0.30,1.91,-0.33,1.86,-1.86,-1.60,-1.30,-2.16,-2.20,-2.21
173.29,-0.31,1.91,-0.32,1.89,-1.89,-1.62,-1.32,-2.19,-2.21,-2.22
175.02,-0.32,1.90,-0.31,1.90,-1.90,-1.64,-1.34,-2.22,-2.21,-2.21
176.77,-0.32,1.90,-0.30,1.91,-1.91,-1.66,-1.35,-2.23,-2.21,-2.22
178.54,-0.32,1.90,-0.29,1.92,-1.92,-1.68,-1.37,-2.23,-2.21,-2.21
180.32,-0.32,1.88,-0.29,1.92,-1.92,-1.70,-1.39,-2.24,-2.21,-2.20
182.13,-0.31,1.88,-0.29,1.92,-1.92,-1.72,-1.41,-2.23,-2.21,-2.18
183.95,-0.30,1.89,-0.28,1.92,-1.92,-1.73,-1.43,-2.22,-2.21,-2.19
185.79,-0.29,1.90,-0.28,1.93,-1.93,-1.75,-1.46,-2.21,-2.21,-2.18
187.65,-0.27,1.93,-0.27,1.94,-1.94,-1.76,-1.48,-2.21,-2.21,-2.20
189.52,-0.26,1.94,-0.25,1.96,-1.96,-1.78,-1.50,-2.22,-2.21,-2.20
191.42,-0.25,1.97,-0.24,1.98,-1.98,-1.80,-1.53,-2.23,-2.22,-2.21
193.33,-0.23,2.00,-0.22,2.00,-2.00,-1.81,-1.56,-2.23,-2.22,-2.22
195.27,-0.22,2.02,-0.21,2.03,-2.03,-1.82,-1.58,-2.24,-2.23,-2.23
197.22,-0.20,2.05,-0.20,2.05,-2.05,-1.84,-1.61,-2.25,-2.25,-2.25
199.19,-0.19,2.08,-0.19,2.07,-2.07,-1.85,-1.64,-2.25,-2.26,-2.27
201.18,-0.18,2.10,-0.19,2.08,-2.08,-1.86,-1.67,-2.26,-2.27,-2.28
203.19,-0.18,2.11,-0.20,2.09,-2.09,-1.87,-1.70,-2.26,-2.29,-2.29
205.23,-0.18,2.13,-0.21,2.10,-2.10,-1.88,-1.73,-2.27,-2.30,-2.31
207.28,-0.18,2.13,-0.22,2.10,-2.10,-1.89,-1.76,-2.28,-2.32,-2.31
209.35,-0.20,2.13,-0.24,2.10,-2.10,-1.90,-1.79,-2.29,-2.33,-2.33
211.44,-0.28,2.08,-0.26,2.09,-2.09,-1.91,-1.82,-2.37,-2.35,-2.36
213.56,-0.28,2.08,-0.28,2.07,-2.07,-1.92,-1.85,-2.35,-2.36,-2.35
215.69,-0.32,2.05,-0.31,2.05,-2.05,-1.93,-1.88,-2.37,-2.36,-2.36
217.85,-0.39,1.98,-0.34,2.03,-2.03,-1.93,-1.91,-2.42,-2.37,-2.37
220.03,-0.40,1.98,-0.37,2.01,-2.01,-1.94,-1.93,-2.40,-2.38,-2.38
222.23,-0.40,2.00,-0.39,1.98,-1.98,-1.95,-1.96,-2.38,-2.38,-2.40
224.45,-0.40,1.99,-0.42,1.96,-1.96,-1.95,-1.99,-2.35,-2.38,-2.38
226.70,-0.40,1.98,-0.44,1.94,-1.94,-1.95,-2.01,-2.33,-2.37,-2.38
228.96,-0.46,1.91,-0.45,1.92,-1.92,-1.96,-2.03,-2.37,-2.36,-2.37
231.25,-0.50,1.86,-0.46,1.90,-1.90,-1.96,-2.05,-2.39,-2.35,-2.35
233.57,-0.50,1.84,-0.46,1.88,-1.88,-1.96,-2.07,-2.37,-2.34,-2.34
235.90,-0.49,1.84,-0.46,1.86,-1.86,-1.96,-2.09,-2.35,-2.32,-2.32
238.26,-0.47,1.84,-0.45,1.85,-1.85,-1.96,-2.10,-2.32,-2.30,-2.31
240.64,-0.44,1.85,-0.44,1.84,-1.84,-1.96,-2.11,-2.28,-2.28,-2.29
243.05,-0.42,1.84,-0.42,1.84,-1.84,-1.96,-2.12,-2.25,-2.25,-2.25
245.48,-0.40,1.83,-0.40,1.83,-1.83,-1.95,-2.13,-2.23,-2.23,-2.23
247.93,-0.37,1.83,-0.38,1.83,-1.83,-1.95,-2.13,-2.19,-2.20,-2.19
250.41,-0.35,1.83,-0.35,1.82,-1.82,-1.95,-2.13,-2.17,-2.18,-2.18
252.92,-0.34,1.80,-0.33,1.82,-1.82,-1.94,-2.13,-2.15,-2.15,-2.14
255.45,-0.34,1.78,-0.31,1.82,-1.82,-1.94,-2.13,-2.15,-2.12,-2.12
258.00,-0.27,1.82,-0.28,1.82,-1.82,-1.93,-2.12,-2.08,-2.10,-2.09
260.58,-0.21,1.87,-0.26,1.81,-1.81,-1.92,-2.11,-2.02,-2.07,-2.07
263.19,-0.21,1.83,-0.24,1.80,-1.80,-1.92,-2.10,-2.01,-2.04,-2.04
265.82,-0.21,1.82,-0.22,1.79,-1.79,-1.91,-2.08,-2.00,-2.02,-2.02
268.48,-0.21,1.79,-0.21,1.78,-1.78,-1.90,-2.06,-1.98,-1.99,-1.99
271.16,-0.22,1.74,-0.20,1.76,-1.76,-1.89,-2.04,-1.97,-1.96,-1.96
273.87,-0.22,1.73,-0.20,1.73,-1.73,-1.88,-2.02,-1.95,-1.93,-1.94
276.61,-0.22,1.69,-0.19,1.71,-1.71,-1.87,-2.00,-1.93,-1.91,-1.91
279.38,-0.17,1.71,-0.19,1.69,-1.69,-1.86,-1.97,-1.86,-1.88,-1.88
282.17,-0.13,1.73,-0.18,1.67,-1.67,-1.85,-1.94,-1.80,-1.85,-1.85
284.99,-0.14,1.68,-0.17,1.65,-1.65,-1.84,-1.92,-1.79,-1.82,-1.81
287.84,-0.21,1.59,-0.16,1.63,-1.63,-1.82,-1.89,-1.83,-1.79,-1.80
290.72,-0.20,1.56,-0.15,1.61,-1.61,-1.81,-1.86,-1.80,-1.76,-1.76
293.63,-0.18,1.56,-0.14,1.59,-1.59,-1.80,-1.83,-1.77,-1.73,-1.73
296.57,-0.17,1.53,-0.12,1.58,-1.58,-1.78,-1.80,-1.74,-1.70,-1.69
299.53,-0.16,1.51,-0.10,1.56,-1.56,-1.77,-1.77,-1.72,-1.67,-1.67
302.53,-0.07,1.58,-0.09,1.55,-1.55,-1.75,-1.74,-1.62,-1.64,-1.65
305.55,-0.03,1.58,-0.07,1.54,-1.54,-1.74,-1.70,-1.57,-1.61,-1.60
308.61,-0.03,1.56,-0.06,1.53,-1.53,-1.72,-1.67,-1.55,-1.59,-1.58
311.69,-0.02,1.54,-0.05,1.51,-1.51,-1.70,-1.64,-1.53,-1.56,-1.56
314.81,-0.02,1.51,-0.03,1.51,-1.51,-1.69,-1.61,-1.52,-1.54,-1.53
317.96,-0.01,1.50,-0.02,1.50,-1.50,-1.67,-1.58,-1.51,-1.52,-1.51
321.14,-0.01,1.50,-0.00,1.50,-1.50,-1.65,-1.55,-1.50,-1.50,-1.50
324.35,-0.01,1.48,0.00,1.48,-1.48,-1.64,-1.53,-1.49,-1.48,-1.48
327.59,-0.01,1.46,0.00,1.47,-1.47,-1.62,-1.50,-1.47,-1.46,-1.46
330.87,-0.02,1.44,-0.00,1.45,-1.45,-1.60,-1.47,-1.46,-1.45,-1.46
334.18,-0.02,1.42,-0.01,1.43,-1.43,-1.58,-1.45,-1.44,-1.44,-1.44
337.52,-0.02,1.41,-0.02,1.40,-1.40,-1.57,-1.42,-1.42,-1.43,-1.43
340.90,-0.02,1.39,-0.04,1.38,-1.38,-1.55,-1.40,-1.40,-1.42,-1.41
344.30,-0.02,1.39,-0.04,1.37,-1.37,-1.53,-1.37,-1.38,-1.41,-1.40
347.75,-0.02,1.39,-0.05,1.35,-1.35,-1.51,-1.35,-1.37,-1.40,-1.40
351.23,-0.07,1.33,-0.06,1.34,-1.34,-1.49,-1.33,-1.40,-1.40,-1.39
354.74,-0.11,1.29,-0.06,1.33,-1.33,-1.47,-1.31,-1.44,-1.39,-1.40
358.28,-0.11,1.28,-0.06,1.33,-1.33,-1.45,-1.29,-1.43,-1.39,-1.39
361.87,-0.11,1.28,-0.06,1.32,-1.32,-1.44,-1.28,-1.43,-1.39,-1.39
365.49,-0.10,1.28,-0.07,1.32,-1.32,-1.42,-1.26,-1.41,-1.39,-1.38
369.14,-0.10,1.29,-0.08,1.31,-1.31,-1.40,-1.24,-1.41,-1.38,-1.39
372.83,-0.09,1.31,-0.09,1.30,-1.30,-1.38,-1.23,-1.39,-1.39,-1.39
376.56,-0.08,1.32,-0.10,1.29,-1.29,-1.36,-1.21,-1.37,-1.39,-1.39
380.33,-0.07,1.32,-0.11,1.28,-1.28,-1.34,-1.20,-1.35,-1.39,-1.38
384.13,-0.07,1.32,-0.12,1.27,-1.27,-1.32,-1.19,-1.34,-1.39,-1.38
387.97,-0.06,1.34,-0.14,1.26,-1.26,-1.30,-1.18,-1.32,-1.40,-1.39
391.85,-0.11,1.30,-0.15,1.25,-1.25,-1.28,-1.17,-1.36,-1.40,-1.41
395.77,-0.16,1.24,-0.17,1.24,-1.24,-1.27,-1.16,-1.40,-1.41,-1.40
399.73,-0.23,1.18,-0.18,1.23,-1.23,-1.25,-1.15,-1.46,-1.41,-1.41
403.72,-0.26,1.15,-0.20,1.22,-1.22,-1.23,-1.14,-1.47,-1.42,-1.41
407.76,-0.26,1.16,-0.22,1.20,-1.20,-1.21,-1.14,-1.46,-1.42,-1.42
411.84,-0.27,1.15,-0.24,1.18,-1.18,-1.19,-1.13,-1.45,-1.42,-1.42
415.96,-0.27,1.15,-0.25,1.17,-1.17,-1.17,-1.12,-1.44,-1.42,-1.42
420.12,-0.27,1.15,-0.26,1.16,-1.16,-1.15,-1.12,-1.42,-1.42,-1.42
424.32,-0.26,1.17,-0.27,1.15,-1.15,-1.14,-1.11,-1.40,-1.42,-1.42
428.56,-0.25,1.17,-0.26,1.14,-1.14,-1.12,-1.11,-1.39,-1.40,-1.41
432.85,-0.24,1.17,-0.25,1.14,-1.14,-1.10,-1.10,-1.38,-1.39,-1.40
437.18,-0.21,1.19,-0.22,1.15,-1.15,-1.08,-1.10,-1.35,-1.37,-1.39
441.55,-0.23,1.13,-0.19,1.15,-1.15,-1.07,-1.10,-1.38,-1.34,-1.35
445.96,-0.23,1.10,-0.16,1.15,-1.15,-1.05,-1.09,-1.38,-1.31,-1.32
450.42,-0.18,1.12,-0.13,1.14,-1.14,-1.03,-1.09,-1.32,-1.27,-1.29
454.93,-0.12,1.13,-0.10,1.13,-1.13,-1.01,-1.08,-1.25,-1.23,-1.24
459.48,-0.06,1.14,-0.06,1.13,-1.13,-1.00,-1.08,-1.18,-1.19,-1.20
464.07,0.00,1.15,-0.03,1.11,-1.11,-0.98,-1.07,-1.11,-1.14,-1.15
