frequency,raw,error,smoothed,error_smoothed,equalization,parametric_eq,fixed_band_eq,equalized_raw,equalized_smoothed,target
20.00,2.52,-2.40,2.52,-2.40,2.40,2.48,0.42,4.93,4.93,4.93
20.20,2.58,-2.38,2.58,-2.39,2.39,2.44,0.43,4.97,4.97,4.97
20.40,2.63,-2.37,2.64,-2.37,2.37,2.40,0.45,5.01,5.01,5.01
20.61,2.69,-2.34,2.69,-2.35,2.35,2.36,0.46,5.04,5.04,5.04
20.81,2.74,-2.33,2.75,-2.33,2.33,2.31,0.48,5.07,5.07,5.08
21.02,2.80,-2.31,2.80,-2.31,2.30,2.27,0.49,5.11,5.11,5.12
21.23,2.85,-2.28,2.86,-2.28,2.27,2.23,0.51,5.13,5.13,5.14
21.44,2.91,-2.24,2.91,-2.25,2.24,2.19,0.52,5.16,5.16,5.16
21.66,2.96,-2.21,2.97,-2.21,2.21,2.15,0.54,5.17,5.17,5.18
21.87,3.02,-2.16,3.02,-2.17,2.17,2.10,0.56,5.19,5.19,5.19
22.09,3.07,-2.13,3.08,-2.13,2.13,2.06,0.58,5.20,5.21,5.21
22.31,3.13,-2.08,3.13,-2.08,2.08,2.02,0.60,5.22,5.21,5.21
22.54,3.18,-2.04,3.18,-2.04,2.04,1.98,0.61,5.22,5.22,5.22
22.76,3.23,-2.00,3.24,-1.99,1.99,1.94,0.63,5.23,5.23,5.23
22.99,3.29,-1.94,3.29,-1.95,1.94,1.90,0.65,5.24,5.23,5.23
23.22,3.34,-1.90,3.35,-1.90,1.90,1.85,0.67,5.24,5.25,5.24
23.45,3.40,-1.85,3.40,-1.85,1.85,1.81,0.69,5.26,5.26,5.25
23.69,3.46,-1.80,3.46,-1.80,1.81,1.77,0.71,5.27,5.27,5.26
23.92,3.51,-1.76,3.52,-1.76,1.76,1.73,0.73,5.28,5.28,5.27
24.16,3.57,-1.72,3.57,-1.72,1.72,1.69,0.76,5.29,5.29,5.29
24.40,3.62,-1.69,3.62,-1.68,1.68,1.65,0.78,5.30,5.30,5.31
24.65,3.67,-1.64,3.68,-1.64,1.63,1.61,0.80,5.31,5.31,5.31
24.89,3.73,-1.59,3.73,-1.59,1.59,1.56,0.82,5.33,5.32,5.32
25.14,3.78,-1.55,3.78,-1.55,1.55,1.52,0.84,5.33,5.33,5.33
25.39,3.83,-1.50,3.84,-1.50,1.50,1.48,0.87,5.34,5.34,5.34
25.65,3.89,-1.47,3.89,-1.46,1.46,1.44,0.89,5.35,5.35,5.36
25.91,3.94,-1.42,3.94,-1.42,1.42,1.40,0.91,5.36,5.36,5.36
26.16,3.99,-1.37,4.00,-1.37,1.37,1.36,0.93,5.37,5.37,5.37
26.43,4.05,-1.32,4.05,-1.33,1.33,1.32,0.95,5.38,5.38,5.38
26.69,4.10,-1.28,4.10,-1.29,1.29,1.28,0.97,5.39,5.39,5.39
26.96,4.15,-1.25,4.15,-1.25,1.25,1.24,0.99,5.40,5.40,5.41
27.23,4.20,-1.21,4.21,-1.21,1.20,1.20,1.01,5.41,5.41,5.42
27.50,4.26,-1.16,4.26,-1.16,1.16,1.16,1.03,5.42,5.42,5.42
27.77,4.31,-1.11,4.31,-1.12,1.12,1.12,1.05,5.43,5.43,5.42
28.05,4.36,-1.08,4.37,-1.07,1.08,1.09,1.06,5.44,5.44,5.44
28.33,4.41,-1.03,4.41,-1.03,1.03,1.05,1.08,5.45,5.45,5.44
28.62,4.46,-0.99,4.46,-0.99,0.99,1.01,1.09,5.46,5.45,5.45
28.90,4.50,-0.96,4.51,-0.95,0.95,0.97,1.10,5.46,5.46,5.46
29.19,4.55,-0.91,4.55,-0.91,0.91,0.93,1.11,5.47,5.47,5.46
29.48,4.60,-0.88,4.60,-0.88,0.87,0.90,1.12,5.48,5.48,5.49
29.78,4.65,-0.83,4.65,-0.83,0.83,0.86,1.12,5.49,5.49,5.49
30.08,4.70,-0.79,4.70,-0.80,0.80,0.82,1.12,5.50,5.50,5.50
30.38,4.74,-0.75,4.75,-0.75,0.76,0.79,1.13,5.50,5.50,5.50
30.68,4.79,-0.72,4.79,-0.72,0.72,0.75,1.12,5.51,5.51,5.51
30.99,4.83,-0.68,4.83,-0.68,0.68,0.71,1.12,5.51,5.51,5.51
31.30,4.87,-0.65,4.88,-0.65,0.64,0.68,1.11,5.52,5.52,5.52
31.61,4.92,-0.61,4.92,-0.61,0.61,0.64,1.11,5.53,5.53,5.53
31.93,4.96,-0.58,4.96,-0.57,0.58,0.61,1.09,5.54,5.54,5.54
32.24,5.00,-0.53,5.00,-0.54,0.55,0.57,1.08,5.55,5.55,5.54
32.57,5.03,-0.52,5.04,-0.52,0.52,0.54,1.06,5.55,5.56,5.56
32.89,5.07,-0.49,5.07,-0.49,0.49,0.50,1.05,5.56,5.56,5.57
33.22,5.10,-0.47,5.11,-0.47,0.46,0.47,1.03,5.57,5.57,5.57
33.55,5.14,-0.44,5.14,-0.44,0.44,0.44,1.00,5.58,5.58,5.58
33.89,5.18,-0.41,5.18,-0.41,0.41,0.40,0.98,5.59,5.59,5.59
34.23,5.21,-0.39,5.22,-0.38,0.38,0.37,0.95,5.60,5.60,5.60
34.57,5.25,-0.35,5.25,-0.35,0.35,0.34,0.92,5.61,5.60,5.61
34.92,5.28,-0.32,5.28,-0.33,0.32,0.31,0.90,5.61,5.61,5.61
35.27,5.31,-0.30,5.32,-0.30,0.30,0.28,0.86,5.61,5.61,5.61
35.62,5.35,-0.27,5.35,-0.27,0.27,0.25,0.83,5.62,5.62,5.62
35.97,5.38,-0.24,5.38,-0.24,0.24,0.22,0.80,5.62,5.62,5.62
36.33,5.41,-0.21,5.42,-0.21,0.21,0.18,0.76,5.62,5.63,5.63
36.70,5.45,-0.17,5.45,-0.18,0.18,0.16,0.73,5.63,5.63,5.62
37.06,5.48,-0.15,5.48,-0.15,0.15,0.13,0.69,5.63,5.63,5.63
37.43,5.51,-0.13,5.51,-0.12,0.12,0.10,0.65,5.63,5.63,5.64
37.81,5.54,-0.09,5.54,-0.09,0.09,0.07,0.61,5.63,5.63,5.64
38.19,5.57,-0.06,5.57,-0.06,0.06,0.04,0.57,5.63,5.63,5.63
38.57,5.60,-0.03,5.60,-0.03,0.03,0.01,0.53,5.63,5.63,5.63
38.95,5.63,0.01,5.63,0.00,0.00,-0.02,0.49,5.64,5.63,5.63
39.34,5.65,0.03,5.65,0.03,-0.03,-0.04,0.45,5.63,5.63,5.63
39.74,5.67,0.05,5.68,0.05,-0.05,-0.07,0.41,5.62,5.63,5.62
40.14,5.70,0.07,5.70,0.07,-0.08,-0.09,0.37,5.63,5.63,5.63
40.54,5.72,0.10,5.72,0.10,-0.10,-0.12,0.33,5.63,5.63,5.63
40.94,5.74,0.12,5.74,0.12,-0.12,-0.15,0.29,5.63,5.63,5.62
41.35,5.76,0.14,5.76,0.14,-0.14,-0.17,0.25,5.63,5.62,5.62
41.76,5.78,0.16,5.78,0.16,-0.16,-0.20,0.21,5.62,5.62,5.63
42.18,5.80,0.17,5.81,0.18,-0.18,-0.22,0.17,5.62,5.63,5.63
42.60,5.83,0.21,5.83,0.20,-0.20,-0.24,0.13,5.63,5.63,5.63
43.03,5.85,0.22,5.85,0.22,-0.23,-0.27,0.08,5.63,5.63,5.63
43.46,5.87,0.24,5.88,0.25,-0.25,-0.29,0.04,5.62,5.62,5.63
43.90,5.89,0.28,5.90,0.28,-0.28,-0.31,0.00,5.62,5.62,5.61
44.33,5.92,0.30,5.92,0.30,-0.30,-0.33,-0.04,5.62,5.62,5.62
44.78,5.94,0.33,5.94,0.33,-0.33,-0.36,-0.08,5.62,5.61,5.61
45.23,5.96,0.35,5.97,0.36,-0.35,-0.38,-0.12,5.61,5.61,5.61
45.68,5.99,0.38,5.99,0.38,-0.38,-0.40,-0.16,5.62,5.62,5.61
46.13,6.02,0.41,6.02,0.40,-0.40,-0.42,-0.20,5.62,5.62,5.61
46.60,6.04,0.42,6.04,0.43,-0.42,-0.44,-0.25,5.62,5.62,5.62
47.06,6.06,0.45,6.06,0.45,-0.45,-0.46,-0.29,5.62,5.62,5.62
47.53,6.08,0.47,6.08,0.46,-0.47,-0.48,-0.33,5.61,5.61,5.61
48.01,6.10,0.48,6.10,0.49,-0.50,-0.50,-0.37,5.61,5.61,5.62
48.49,6.12,0.52,6.12,0.51,-0.52,-0.52,-0.41,5.60,5.60,5.61
48.97,6.14,0.55,6.14,0.55,-0.55,-0.53,-0.45,5.59,5.59,5.59
49.46,6.16,0.58,6.17,0.59,-0.58,-0.55,-0.49,5.58,5.58,5.58
49.96,6.19,0.63,6.19,0.62,-0.61,-0.57,-0.53,5.58,5.58,5.57
50.46,6.21,0.64,6.21,0.65,-0.64,-0.59,-0.57,5.57,5.57,5.57
50.96,6.23,0.67,6.23,0.68,-0.67,-0.61,-0.61,5.56,5.56,5.56
51.47,6.24,0.71,6.25,0.71,-0.70,-0.62,-0.65,5.54,5.55,5.53
51.99,6.26,0.74,6.26,0.73,-0.73,-0.64,-0.69,5.54,5.53,5.52
52.51,6.27,0.75,6.27,0.75,-0.75,-0.66,-0.73,5.52,5.52,5.53
53.03,6.27,0.77,6.28,0.77,-0.78,-0.67,-0.77,5.50,5.50,5.51
53.56,6.29,0.80,6.29,0.79,-0.81,-0.69,-0.81,5.49,5.49,5.50
54.10,6.30,0.83,6.31,0.83,-0.83,-0.70,-0.84,5.47,5.47,5.48
54.64,6.32,0.86,6.32,0.86,-0.86,-0.72,-0.88,5.46,5.46,5.47
55.18,6.34,0.90,6.34,0.89,-0.89,-0.74,-0.92,5.45,5.45,5.45
55.74,6.35,0.93,6.36,0.92,-0.92,-0.75,-0.95,5.43,5.44,5.43
56.29,6.37,0.95,6.37,0.95,-0.95,-0.77,-0.98,5.42,5.42,5.43
56.86,6.38,0.98,6.38,0.98,-0.97,-0.78,-1.02,5.41,5.41,5.40
57.42,6.38,1.00,6.39,1.00,-0.99,-0.80,-1.05,5.39,5.39,5.38
58.00,6.38,1.01,6.38,1.01,-1.00,-0.81,-1.08,5.38,5.38,5.37
58.58,6.37,1.02,6.37,1.02,-1.01,-0.83,-1.10,5.36,5.36,5.36
59.16,6.36,1.02,6.36,1.02,-1.02,-0.84,-1.13,5.34,5.34,5.34
59.76,6.34,1.01,6.34,1.02,-1.02,-0.86,-1.16,5.32,5.32,5.33
60.35,6.32,1.02,6.32,1.02,-1.03,-0.87,-1.18,5.29,5.30,5.31
60.96,6.30,1.02,6.30,1.03,-1.03,-0.89,-1.20,5.27,5.27,5.28
61.57,6.28,1.04,6.29,1.04,-1.04,-0.90,-1.22,5.24,5.25,5.25
62.18,6.26,1.05,6.27,1.05,-1.05,-0.92,-1.24,5.22,5.22,5.21
62.80,6.25,1.06,6.25,1.06,-1.06,-0.93,-1.26,5.20,5.19,5.19
63.43,6.22,1.07,6.23,1.07,-1.06,-0.95,-1.27,5.16,5.16,5.16
64.07,6.20,1.07,6.21,1.07,-1.07,-0.96,-1.29,5.13,5.13,5.13
64.71,6.18,1.08,6.18,1.08,-1.08,-0.98,-1.30,5.11,5.11,5.10
65.35,6.16,1.09,6.16,1.09,-1.08,-0.99,-1.31,5.08,5.08,5.08
66.01,6.14,1.10,6.14,1.09,-1.09,-1.01,-1.32,5.06,5.05,5.05
66.67,6.11,1.09,6.12,1.09,-1.09,-1.02,-1.32,5.02,5.02,5.03
67.33,6.09,1.10,6.09,1.10,-1.10,-1.04,-1.33,4.99,4.99,5.00
68.01,6.07,1.11,6.07,1.10,-1.11,-1.05,-1.34,4.97,4.96,4.97
68.69,6.05,1.12,6.05,1.12,-1.12,-1.07,-1.34,4.94,4.94,4.94
69.37,6.03,1.13,6.04,1.13,-1.13,-1.09,-1.34,4.91,4.91,4.91
70.07,6.02,1.15,6.02,1.14,-1.14,-1.10,-1.35,4.88,4.88,4.87
70.77,6.00,1.15,6.01,1.16,-1.16,-1.12,-1.35,4.85,4.85,4.85
71.48,6.00,1.17,6.00,1.17,-1.18,-1.13,-1.35,4.83,4.82,4.83
72.19,5.99,1.20,5.99,1.19,-1.20,-1.15,-1.35,4.80,4.79,4.80
72.91,5.98,1.21,5.99,1.22,-1.22,-1.17,-1.35,4.76,4.77,4.77
73.64,5.99,1.25,5.99,1.24,-1.24,-1.19,-1.35,4.75,4.74,4.75
74.38,5.99,1.26,6.00,1.27,-1.27,-1.20,-1.35,4.72,4.73,4.73
75.12,6.00,1.30,6.00,1.30,-1.29,-1.22,-1.35,4.71,4.71,4.71
75.87,6.01,1.33,6.01,1.32,-1.32,-1.24,-1.35,4.70,4.69,4.69
76.63,6.01,1.34,6.01,1.34,-1.34,-1.26,-1.35,4.68,4.68,4.67
77.40,6.01,1.36,6.01,1.36,-1.36,-1.28,-1.36,4.66,4.66,4.65
78.17,6.01,1.38,6.01,1.38,-1.37,-1.30,-1.36,4.64,4.64,4.64
78.95,6.01,1.39,6.01,1.39,-1.39,-1.32,-1.36,4.62,4.62,4.63
79.74,6.01,1.40,6.01,1.40,-1.40,-1.34,-1.37,4.61,4.61,4.62
80.54,6.01,1.41,6.01,1.41,-1.41,-1.36,-1.37,4.60,4.60,4.61
81.35,6.01,1.42,6.01,1.42,-1.42,-1.38,-1.38,4.60,4.60,4.60
82.16,6.01,1.43,6.01,1.43,-1.42,-1.40,-1.38,4.59,4.59,4.58
82.98,6.01,1.43,6.01,1.43,-1.43,-1.42,-1.39,4.59,4.58,4.58
83.81,6.00,1.43,6.00,1.43,-1.43,-1.44,-1.40,4.58,4.58,4.57
84.65,5.99,1.44,6.00,1.43,-1.43,-1.46,-1.41,4.56,4.57,4.56
85.50,5.99,1.43,5.99,1.43,-1.43,-1.48,-1.42,4.56,4.56,4.56
86.35,5.99,1.43,5.99,1.43,-1.44,-1.50,-1.43,4.56,4.56,4.56
87.22,5.99,1.44,5.99,1.44,-1.44,-1.53,-1.44,4.55,4.55,4.56
88.09,6.00,1.45,6.00,1.45,-1.46,-1.55,-1.46,4.55,4.55,4.55
88.97,6.01,1.46,6.02,1.46,-1.47,-1.57,-1.47,4.54,4.54,4.56
89.86,6.04,1.48,6.04,1.49,-1.50,-1.59,-1.49,4.55,4.54,4.56
90.76,6.06,1.52,6.07,1.52,-1.52,-1.61,-1.51,4.54,4.55,4.54
91.66,6.10,1.56,6.10,1.56,-1.55,-1.64,-1.52,4.55,4.55,4.55
92.58,6.13,1.59,6.14,1.59,-1.58,-1.66,-1.54,4.55,4.55,4.54
93.51,6.17,1.62,6.17,1.62,-1.62,-1.68,-1.56,4.56,4.55,4.55
94.44,6.19,1.65,6.19,1.65,-1.65,-1.71,-1.59,4.55,4.55,4.55
95.39,6.21,1.67,6.21,1.67,-1.67,-1.73,-1.61,4.54,4.54,4.55
96.34,6.22,1.69,6.23,1.69,-1.69,-1.75,-1.63,4.53,4.53,4.53
97.30,6.23,1.71,6.24,1.71,-1.71,-1.77,-1.66,4.53,4.53,4.52
98.28,6.24,1.73,6.24,1.73,-1.72,-1.80,-1.68,4.53,4.52,4.51
99.26,6.23,1.73,6.23,1.73,-1.72,-1.82,-1.71,4.51,4.51,4.50
100.25,6.21,1.72,6.22,1.72,-1.72,-1.84,-1.74,4.49,4.49,4.49
101.25,6.19,1.71,6.19,1.71,-1.72,-1.86,-1.77,4.48,4.48,4.49
102.27,6.17,1.71,6.18,1.71,-1.71,-1.88,-1.79,4.47,4.47,4.47
103.29,6.15,1.71,6.15,1.70,-1.70,-1.91,-1.82,4.46,4.46,4.45
104.32,6.13,1.70,6.13,1.69,-1.68,-1.93,-1.85,4.45,4.44,4.44
105.37,6.09,1.68,6.09,1.68,-1.67,-1.95,-1.88,4.42,4.42,4.42
106.42,6.05,1.67,6.06,1.66,-1.67,-1.97,-1.91,4.38,4.39,4.39
107.48,6.02,1.65,6.02,1.66,-1.67,-1.99,-1.94,4.35,4.35,4.37
108.56,6.00,1.67,6.00,1.67,-1.69,-2.01,-1.96,4.32,4.32,4.33
109.64,5.99,1.69,5.99,1.69,-1.71,-2.03,-1.99,4.29,4.29,4.30
110.74,5.99,1.72,6.00,1.73,-1.74,-2.05,-2.02,4.26,4.26,4.27
111.85,6.00,1.77,6.00,1.77,-1.78,-2.07,-2.04,4.23,4.23,4.23
112.97,6.01,1.83,6.01,1.82,-1.82,-2.09,-2.07,4.19,4.19,4.18
114.10,6.02,1.87,6.03,1.88,-1.87,-2.10,-2.09,4.15,4.16,4.16
115.24,6.03,1.93,6.03,1.92,-1.92,-2.12,-2.11,4.12,4.11,4.11
116.39,6.03,1.97,6.03,1.97,-1.96,-2.14,-2.13,4.07,4.07,4.06
117.55,6.02,2.00,6.03,2.01,-2.00,-2.15,-2.14,4.03,4.03,4.02
118.73,6.01,2.04,6.01,2.03,-2.02,-2.17,-2.16,3.99,3.99,3.97
119.92,5.99,2.05,5.99,2.05,-2.05,-2.18,-2.17,3.95,3.94,3.95
121.12,5.96,2.06,5.97,2.07,-2.06,-2.20,-2.18,3.90,3.90,3.90
122.33,5.94,2.08,5.94,2.07,-2.08,-2.21,-2.19,3.87,3.86,3.86
123.55,5.91,2.08,5.91,2.08,-2.09,-2.22,-2.19,3.83,3.83,3.84
124.79,5.88,2.08,5.89,2.08,-2.09,-2.24,-2.19,3.79,3.79,3.80
126.03,5.85,2.09,5.86,2.09,-2.10,-2.25,-2.19,3.76,3.76,3.77
127.29,5.83,2.10,5.83,2.10,-2.10,-2.26,-2.19,3.74,3.74,3.73
128.57,5.80,2.11,5.80,2.10,-2.09,-2.27,-2.19,3.71,3.71,3.69
129.85,5.76,2.10,5.76,2.10,-2.09,-2.27,-2.18,3.68,3.68,3.67
131.15,5.71,2.08,5.72,2.09,-2.08,-2.28,-2.17,3.64,3.64,3.63
132.46,5.68,2.07,5.68,2.07,-2.07,-2.29,-2.15,3.61,3.61,3.61
133.79,5.63,2.05,5.64,2.05,-2.06,-2.30,-2.14,3.57,3.57,3.59
135.12,5.59,2.04,5.60,2.04,-2.05,-2.30,-2.12,3.54,3.54,3.56
136.48,5.56,2.03,5.56,2.03,-2.05,-2.30,-2.10,3.52,3.52,3.54
137.84,5.53,2.03,5.54,2.04,-2.04,-2.31,-2.08,3.49,3.50,3.51
139.22,5.52,2.05,5.52,2.04,-2.03,-2.31,-2.06,3.49,3.49,3.48
140.61,5.50,2.06,5.50,2.04,-2.03,-2.31,-2.03,3.48,3.47,3.45
142.02,5.46,2.03,5.47,2.03,-2.02,-2.31,-2.01,3.45,3.45,3.44
143.44,5.43,2.01,5.43,2.02,-2.01,-2.31,-1.98,3.42,3.42,3.42
144.87,5.39,2.00,5.39,2.00,-2.00,-2.31,-1.96,3.39,3.39,3.39
146.32,5.35,1.99,5.35,1.98,-1.99,-2.31,-1.93,3.36,3.36,3.37
147.78,5.31,1.96,5.31,1.97,-1.98,-2.31,-1.90,3.33,3.33,3.35
149.26,5.27,1.95,5.28,1.96,-1.98,-2.30,-1.87,3.30,3.30,3.32
150.75,5.24,1.96,5.25,1.96,-1.97,-2.30,-1.85,3.27,3.28,3.28
152.26,5.23,1.98,5.23,1.97,-1.97,-2.29,-1.82,3.26,3.26,3.25
153.78,5.20,1.97,5.21,1.98,-1.97,-2.29,-1.79,3.24,3.24,3.23
155.32,5.18,2.00,5.18,1.98,-1.97,-2.28,-1.76,3.22,3.21,3.19
156.88,5.13,1.97,5.14,1.97,-1.96,-2.27,-1.74,3.17,3.17,3.17
158.44,5.09,1.96,5.09,1.96,-1.96,-2.27,-1.71,3.13,3.13,3.13
160.03,5.03,1.94,5.04,1.95,-1.96,-2.26,-1.69,3.08,3.09,3.09
161.63,5.00,1.95,5.00,1.94,-1.95,-2.25,-1.66,3.05,3.05,3.05
163.24,4.96,1.94,4.96,1.94,-1.95,-2.24,-1.64,3.02,3.01,3.02
164.88,4.91,1.92,4.93,1.94,-1.95,-2.23,-1.62,2.97,2.98,2.99
166.53,4.89,1.94,4.89,1.94,-1.95,-2.21,-1.60,2.95,2.95,2.95
168.19,4.87,1.96,4.87,1.95,-1.95,-2.20,-1.58,2.93,2.92,2.91
169.87,4.83,1.96,4.84,1.97,-1.95,-2.19,-1.56,2.88,2.89,2.87
171.57,4.80,1.97,4.80,1.97,-1.95,-2.18,-1.54,2.85,2.85,2.84
173.29,4.76,1.97,4.75,1.96,-1.96,-2.16,-1.52,2.81,2.79,2.79
175.02,4.69,1.94,4.70,1.96,-1.96,-2.15,-1.51,2.73,2.74,2.75
176.77,4.65,1.96,4.66,1.96,-1.97,-2.14,-1.49,2.68,2.69,2.70
178.54,4.62,1.97,4.62,1.97,-1.98,-2.12,-1.48,2.64,2.64,2.65
180.32,4.59,1.99,4.59,1.99,-1.99,-2.11,-1.47,2.61,2.60,2.61
182.13,4.56,2.00,4.56,2.00,-2.00,-2.09,-1.46,2.56,2.56,2.56
183.95,4.52,2.02,4.53,2.02,-2.01,-2.08,-1.45,2.51,2.51,2.51
185.79,4.48,2.02,4.49,2.03,-2.02,-2.06,-1.44,2.46,2.46,2.46
187.65,4.45,2.05,4.45,2.04,-2.04,-2.05,-1.44,2.42,2.41,2.40
189.52,4.40,2.05,4.41,2.05,-2.04,-2.03,-1.43,2.36,2.36,2.36
191.42,4.36,2.05,4.37,2.05,-2.05,-2.02,-1.42,2.31,2.32,2.32
193.33,4.32,2.05,4.32,2.05,-2.05,-2.01,-1.42,2.27,2.27,2.27
195.27,4.28,2.05,4.28,2.05,-2.06,-1.99,-1.42,2.23,2.22,2.23
197.22,4.23,2.05,4.23,2.06,-2.06,-1.98,-1.42,2.18,2.18,2.18
199.19,4.18,2.05,4.19,2.05,-2.05,-1.97,-1.41,2.13,2.13,2.13
201.18,4.14,2.06,4.14,2.05,-2.05,-1.95,-1.41,2.09,2.09,2.09
203.19,4.09,2.04,4.10,2.04,-2.04,-1.94,-1.41,2.05,2.05,2.06
205.23,4.05,2.05,4.05,2.03,-2.03,-1.93,-1.41,2.02,2.02,2.01
207.28,4.00,2.01,4.00,2.02,-2.02,-1.92,-1.41,1.98,1.98,1.99
209.35,3.95,2.01,3.95,2.01,-2.01,-1.91,-1.41,1.95,1.94,1.94
211.44,3.89,2.00,3.89,1.99,-2.00,-1.90,-1.41,1.90,1.90,1.89
213.56,3.83,1.97,3.84,1.97,-1.98,-1.88,-1.41,1.85,1.86,1.86
215.69,3.79,1.95,3.79,1.95,-1.97,-1.87,-1.41,1.83,1.82,1.84
217.85,3.74,1.94,3.75,1.95,-1.95,-1.86,-1.41,1.79,1.80,1.81
220.03,3.71,1.95,3.71,1.94,-1.93,-1.84,-1.41,1.78,1.78,1.77
222.23,3.68,1.94,3.67,1.93,-1.92,-1.83,-1.41,1.77,1.76,1.74
224.45,3.62,1.90,3.63,1.91,-1.90,-1.81,-1.41,1.73,1.73,1.72
226.70,3.57,1.87,3.58,1.87,-1.87,-1.78,-1.41,1.70,1.70,1.71
228.96,3.52,1.84,3.53,1.84,-1.85,-1.76,-1.40,1.67,1.67,1.68
231.25,3.48,1.81,3.48,1.81,-1.82,-1.72,-1.39,1.66,1.66,1.67
233.57,3.44,1.79,3.44,1.79,-1.79,-1.69,-1.39,1.65,1.65,1.66
235.90,3.40,1.76,3.40,1.76,-1.75,-1.65,-1.38,1.65,1.65,1.64
238.26,3.36,1.73,3.36,1.73,-1.71,-1.60,-1.37,1.65,1.65,1.64
240.64,3.31,1.68,3.31,1.68,-1.67,-1.55,-1.35,1.64,1.64,1.63
243.05,3.26,1.63,3.26,1.63,-1.63,-1.50,-1.34,1.63,1.63,1.64
245.48,3.20,1.57,3.21,1.58,-1.58,-1.45,-1.32,1.62,1.62,1.63
247.93,3.14,1.51,3.16,1.53,-1.53,-1.39,-1.30,1.61,1.63,1.63
250.41,3.12,1.49,3.11,1.47,-1.47,-1.33,-1.28,1.65,1.64,1.63
252.92,3.06,1.42,3.07,1.42,-1.42,-1.27,-1.26,1.65,1.65,1.65
255.45,3.01,1.35,3.02,1.36,-1.36,-1.21,-1.23,1.66,1.66,1.66
258.00,2.96,1.30,2.96,1.29,-1.30,-1.15,-1.20,1.67,1.66,1.67
260.58,2.90,1.23,2.91,1.23,-1.23,-1.10,-1.17,1.67,1.68,1.67
263.19,2.85,1.17,2.85,1.17,-1.16,-1.04,-1.14,1.69,1.69,1.69
265.82,2.79,1.10,2.80,1.10,-1.09,-0.98,-1.10,1.70,1.71,1.70
268.48,2.74,1.02,2.74,1.03,-1.02,-0.92,-1.06,1.72,1.72,1.72
271.16,2.69,0.96,2.68,0.95,-0.95,-0.86,-1.02,1.74,1.73,1.74
273.87,2.61,0.87,2.62,0.87,-0.88,-0.81,-0.98,1.74,1.75,1.74
276.61,2.56,0.79,2.56,0.80,-0.80,-0.75,-0.94,1.76,1.76,1.77
279.38,2.50,0.73,2.51,0.73,-0.73,-0.70,-0.89,1.78,1.78,1.78
282.17,2.45,0.66,2.45,0.65,-0.65,-0.64,-0.85,1.80,1.80,1.80
284.99,2.39,0.58,2.39,0.58,-0.57,-0.59,-0.80,1.82,1.82,1.81
287.84,2.31,0.49,2.32,0.50,-0.49,-0.54,-0.75,1.82,1.83,1.82
290.72,2.25,0.42,2.25,0.41,-0.41,-0.49,-0.70,1.84,1.84,1.84
293.63,2.18,0.33,2.18,0.33,-0.33,-0.44,-0.65,1.85,1.85,1.85
296.57,2.11,0.24,2.11,0.25,-0.25,-0.38,-0.59,1.86,1.86,1.87
299.53,2.04,0.16,2.05,0.17,-0.17,-0.33,-0.54,1.87,1.88,1.88
302.53,1.98,0.10,1.99,0.09,-0.09,-0.28,-0.48,1.89,1.90,1.89
305.55,1.93,0.02,1.93,0.02,-0.01,-0.23,-0.43,1.92,1.91,1.91
308.61,1.86,-0.06,1.86,-0.06,0.06,-0.18,-0.37,1.93,1.93,1.92
311.69,1.79,-0.14,1.80,-0.14,0.14,-0.14,-0.32,1.93,1.94,1.93
314.81,1.73,-0.22,1.73,-0.22,0.22,-0.09,-0.26,1.95,1.95,1.96
317.96,1.66,-0.29,1.67,-0.29,0.29,-0.04,-0.20,1.95,1.95,1.96
321.14,1.60,-0.36,1.60,-0.36,0.36,0.01,-0.14,1.96,1.96,1.96
324.35,1.53,-0.43,1.54,-0.43,0.43,0.06,-0.08,1.97,1.97,1.96
327.59,1.47,-0.51,1.47,-0.50,0.50,0.11,-0.03,1.97,1.97,1.98
330.87,1.41,-0.57,1.41,-0.57,0.57,0.15,0.03,1.98,1.98,1.98
334.18,1.35,-0.62,1.36,-0.63,0.63,0.20,0.09,1.98,1.99,1.98
337.52,1.29,-0.69,1.30,-0.69,0.69,0.25,0.15,1.99,1.99,1.99
340.90,1.24,-0.75,1.24,-0.75,0.75,0.30,0.21,2.00,1.99,2.00
344.30,1.17,-0.82,1.18,-0.82,0.82,0.34,0.28,1.99,1.99,1.99
347.75,1.11,-0.88,1.12,-0.88,0.88,0.39,0.34,1.99,2.00,1.99
351.23,1.05,-0.94,1.05,-0.94,0.94,0.44,0.40,2.00,2.00,1.99
354.74,0.99,-1.00,0.99,-1.00,1.00,0.49,0.46,2.00,1.99,1.99
358.28,0.92,-1.06,0.92,-1.06,1.06,0.53,0.52,1.99,1.98,1.98
361.87,0.85,-1.12,0.85,-1.12,1.12,0.58,0.59,1.97,1.97,1.98
365.49,0.78,-1.19,0.79,-1.18,1.17,0.63,0.65,1.95,1.96,1.98
369.14,0.74,-1.22,0.74,-1.23,1.22,0.67,0.71,1.96,1.96,1.97
372.83,0.70,-1.26,0.70,-1.26,1.26,0.72,0.77,1.97,1.96,1.96
376.56,0.65,-1.30,0.66,-1.30,1.31,0.77,0.84,1.96,1.96,1.95
380.33,0.61,-1.34,0.61,-1.34,1.35,0.82,0.90,1.96,1.96,1.95
384.13,0.56,-1.38,0.56,-1.38,1.39,0.86,0.97,1.95,1.95,1.94
387.97,0.51,-1.42,0.52,-1.42,1.42,0.91,1.03,1.94,1.94,1.93
391.85,0.47,-1.45,0.47,-1.45,1.46,0.96,1.10,1.93,1.93,1.92
395.77,0.43,-1.50,0.43,-1.49,1.49,1.00,1.16,1.92,1.92,1.93
399.73,0.39,-1.53,0.40,-1.52,1.52,1.05,1.23,1.91,1.91,1.92
403.72,0.36,-1.54,0.36,-1.55,1.54,1.09,1.29,1.90,1.90,1.91
407.76,0.34,-1.55,0.34,-1.56,1.55,1.14,1.35,1.90,1.90,1.90
411.84,0.33,-1.57,0.34,-1.56,1.56,1.19,1.42,1.90,1.90,1.91
415.96,0.33,-1.56,0.33,-1.57,1.57,1.23,1.48,1.90,1.90,1.90
420.12,0.33,-1.56,0.33,-1.56,1.57,1.28,1.54,1.90,1.90,1.90
424.32,0.33,-1.56,0.34,-1.56,1.56,1.32,1.61,1.89,1.89,1.90
428.56,0.34,-1.54,0.34,-1.54,1.55,1.37,1.67,1.89,1.89,1.88
432.85,0.35,-1.53,0.35,-1.53,1.53,1.42,1.73,1.88,1.88,1.88
437.18,0.37,-1.51,0.37,-1.51,1.51,1.46,1.78,1.88,1.88,1.88
441.55,0.39,-1.50,0.40,-1.49,1.48,1.51,1.84,1.87,1.88,1.89
445.96,0.42,-1.47,0.43,-1.46,1.45,1.55,1.90,1.88,1.88,1.89
450.42,0.46,-1.42,0.46,-1.43,1.43,1.59,1.95,1.89,1.89,1.88
454.93,0.48,-1.41,0.49,-1.40,1.41,1.64,2.00,1.89,1.90,1.89
459.48,0.51,-1.38,0.51,-1.38,1.39,1.68,2.05,1.91,1.91,1.89
464.07,0.53,-1.37,0.53,-1.37,1.38,1.73,2.09,1.92,1.91,1.90
468.71,0.54,-1.37,0.54,-1.37,1.38,1.77,2.14,1.92,1.92,1.91
473.40,0.53,-1.38,0.53,-1.38,1.38,1.81,2.18,1.92,1.91,1.91
478.13,0.51,-1.41,0.52,-1.40,1.40,1.85,2.21,1.91,1.91,1.92
482.91,0.49,-1.43,0.50,-1.42,1.41,1.89,2.25,1.91,1.91,1.92
487.74,0.48,-1.45,0.48,-1.45,1.44,1.94,2.28,1.92,1.92,1.93
492.62,0.46,-1.47,0.46,-1.47,1.47,1.98,2.30,1.93,1.93,1.94
497.55,0.44,-1.49,0.44,-1.50,1.51,2.02,2.33,1.95,1.95,1.94
502.52,0.40,-1.54,0.41,-1.54,1.55,2.06,2.35,1.95,1.95,1.95
507.55,0.36,-1.58,0.36,-1.58,1.59,2.10,2.36,1.95,1.95,1.95
512.62,0.31,-1.63,0.32,-1.64,1.64,2.13,2.38,1.95,1.95,1.95
517.75,0.26,-1.69,0.26,-1.69,1.69,2.17,2.38,1.95,1.95,1.96
522.93,0.21,-1.74,0.21,-1.75,1.75,2.21,2.39,1.96,1.96,1.96
528.16,0.14,-1.81,0.15,-1.81,1.81,2.25,2.39,1.95,1.96,1.96
533.44,0.09,-1.86,0.09,-1.87,1.87,2.28,2.39,1.96,1.96,1.96
538.77,0.02,-1.93,0.02,-1.93,1.93,2.32,2.39,1.95,1.95,1.96
544.16,-0.05,-2.00,-0.04,-2.00,2.00,2.35,2.39,1.95,1.95,1.96
549.60,-0.11,-2.06,-0.11,-2.06,2.06,2.38,2.38,1.96,1.95,1.96
555.10,-0.18,-2.12,-0.17,-2.12,2.13,2.42,2.37,1.95,1.96,1.95
560.65,-0.24,-2.18,-0.24,-2.19,2.19,2.45,2.36,1.96,1.95,1.95
