frequency,raw,error,smoothed,error_smoothed,equalization,parametric_eq,fixed_band_eq,equalized_raw,equalized_smoothed,target
20.00,-2.43,-5.44,-2.37,-5.42,5.42,4.93,1.82,2.98,3.04,3.01
20.20,-2.35,-5.41,-2.31,-5.39,5.39,4.98,1.87,3.04,3.08,3.06
20.40,-2.27,-5.38,-2.26,-5.37,5.37,5.02,1.92,3.10,3.11,3.11
20.61,-2.19,-5.33,-2.20,-5.34,5.34,5.07,1.98,3.15,3.15,3.14
20.81,-2.10,-5.29,-2.14,-5.32,5.32,5.10,2.04,3.22,3.18,3.19
21.02,-2.03,-5.26,-2.09,-5.29,5.29,5.14,2.10,3.26,3.20,3.23
21.23,-1.98,-5.23,-2.03,-5.26,5.26,5.17,2.16,3.28,3.23,3.25
21.44,-1.94,-5.21,-1.98,-5.23,5.23,5.20,2.22,3.29,3.25,3.27
21.66,-1.90,-5.19,-1.93,-5.20,5.20,5.22,2.28,3.30,3.27,3.29
21.87,-1.85,-5.15,-1.88,-5.17,5.17,5.24,2.35,3.32,3.29,3.30
22.09,-1.82,-5.14,-1.83,-5.14,5.14,5.26,2.42,3.32,3.31,3.32
22.31,-1.79,-5.12,-1.78,-5.10,5.10,5.27,2.49,3.31,3.32,3.33
22.54,-1.75,-5.08,-1.75,-5.07,5.07,5.28,2.56,3.32,3.33,3.33
22.76,-1.72,-5.05,-1.71,-5.04,5.04,5.29,2.63,3.32,3.33,3.33
22.99,-1.69,-5.01,-1.67,-5.00,5.00,5.29,2.70,3.31,3.33,3.32
23.22,-1.65,-4.97,-1.63,-4.96,4.96,5.29,2.78,3.31,3.33,3.32
23.45,-1.60,-4.92,-1.59,-4.92,4.92,5.28,2.86,3.32,3.33,3.32
23.69,-1.56,-4.89,-1.55,-4.88,4.88,5.27,2.94,3.32,3.33,3.33
23.92,-1.51,-4.84,-1.50,-4.84,4.84,5.26,3.02,3.33,3.33,3.33
24.16,-1.46,-4.80,-1.46,-4.79,4.79,5.24,3.10,3.33,3.33,3.34
24.40,-1.41,-4.76,-1.41,-4.75,4.75,5.21,3.18,3.34,3.33,3.35
24.65,-1.35,-4.69,-1.36,-4.70,4.70,5.19,3.27,3.34,3.33,3.34
24.89,-1.29,-4.63,-1.31,-4.65,4.65,5.16,3.35,3.36,3.34,3.34
25.14,-1.25,-4.59,-1.26,-4.60,4.60,5.13,3.44,3.35,3.34,3.33
25.39,-1.21,-4.56,-1.22,-4.55,4.55,5.09,3.53,3.34,3.34,3.34
25.65,-1.17,-4.52,-1.17,-4.51,4.51,5.05,3.61,3.34,3.34,3.34
25.91,-1.13,-4.47,-1.12,-4.46,4.46,5.01,3.70,3.33,3.34,3.33
26.16,-1.09,-4.42,-1.08,-4.42,4.42,4.96,3.78,3.33,3.34,3.33
26.43,-1.03,-4.37,-1.03,-4.37,4.37,4.92,3.87,3.33,3.34,3.33
26.69,-0.98,-4.31,-0.98,-4.32,4.32,4.87,3.95,3.34,3.33,3.33
26.96,-0.93,-4.27,-0.94,-4.27,4.27,4.81,4.03,3.34,3.33,3.34
27.23,-0.89,-4.23,-0.90,-4.23,4.23,4.76,4.11,3.33,3.33,3.34
27.50,-0.86,-4.20,-0.86,-4.19,4.19,4.70,4.19,3.33,3.33,3.34
27.77,-0.83,-4.16,-0.82,-4.15,4.15,4.65,4.27,3.32,3.33,3.33
28.05,-0.80,-4.13,-0.78,-4.11,4.11,4.59,4.34,3.31,3.33,3.33
28.33,-0.74,-4.06,-0.74,-4.07,4.07,4.53,4.40,3.33,3.33,3.32
28.62,-0.68,-4.00,-0.71,-4.03,4.03,4.47,4.47,3.35,3.33,3.32
28.90,-0.62,-3.95,-0.67,-4.00,4.00,4.40,4.52,3.38,3.33,3.33
29.19,-0.60,-3.92,-0.64,-3.97,3.97,4.34,4.58,3.36,3.32,3.31
29.48,-0.61,-3.95,-0.61,-3.94,3.94,4.28,4.62,3.32,3.32,3.33
29.78,-0.62,-3.94,-0.58,-3.90,3.90,4.21,4.66,3.28,3.32,3.32
30.08,-0.60,-3.93,-0.55,-3.87,3.87,4.15,4.70,3.27,3.32,3.33
30.38,-0.54,-3.86,-0.52,-3.84,3.84,4.08,4.73,3.29,3.32,3.32
30.68,-0.48,-3.80,-0.49,-3.81,3.81,4.02,4.75,3.32,3.32,3.32
30.99,-0.42,-3.74,-0.46,-3.78,3.78,3.95,4.76,3.35,3.32,3.32
31.30,-0.41,-3.73,-0.43,-3.75,3.75,3.89,4.76,3.34,3.32,3.32
31.61,-0.41,-3.73,-0.41,-3.72,3.72,3.83,4.76,3.31,3.32,3.32
31.93,-0.40,-3.72,-0.38,-3.69,3.69,3.76,4.76,3.29,3.31,3.31
32.24,-0.36,-3.66,-0.35,-3.66,3.66,3.70,4.74,3.30,3.31,3.30
32.57,-0.30,-3.61,-0.31,-3.62,3.62,3.64,4.72,3.31,3.31,3.31
32.89,-0.24,-3.55,-0.27,-3.57,3.57,3.57,4.69,3.33,3.30,3.31
33.22,-0.22,-3.52,-0.24,-3.54,3.54,3.51,4.66,3.31,3.30,3.30
33.55,-0.23,-3.53,-0.21,-3.50,3.50,3.45,4.62,3.27,3.29,3.30
33.89,-0.24,-3.53,-0.19,-3.48,3.48,3.39,4.57,3.24,3.29,3.29
34.23,-0.19,-3.49,-0.17,-3.45,3.45,3.33,4.52,3.26,3.29,3.29
34.57,-0.12,-3.40,-0.14,-3.42,3.42,3.28,4.47,3.30,3.28,3.28
34.92,-0.05,-3.33,-0.11,-3.39,3.39,3.22,4.41,3.34,3.28,3.28
35.27,-0.02,-3.30,-0.08,-3.36,3.36,3.16,4.35,3.33,3.28,3.28
35.62,-0.02,-3.30,-0.05,-3.33,3.33,3.11,4.29,3.30,3.28,3.28
35.97,-0.01,-3.29,-0.02,-3.30,3.30,3.06,4.22,3.29,3.28,3.27
36.33,-0.02,-3.30,0.00,-3.27,3.27,3.00,4.15,3.25,3.28,3.28
36.70,-0.02,-3.29,0.03,-3.25,3.25,2.95,4.08,3.22,3.28,3.27
37.06,-0.02,-3.29,0.06,-3.22,3.22,2.91,4.01,3.19,3.28,3.27
37.43,0.07,-3.22,0.10,-3.18,3.18,2.86,3.94,3.25,3.28,3.28
37.81,0.16,-3.12,0.13,-3.15,3.15,2.81,3.87,3.31,3.28,3.28
38.19,0.20,-3.08,0.15,-3.13,3.13,2.77,3.80,3.33,3.28,3.28
38.57,0.21,-3.08,0.18,-3.11,3.11,2.72,3.73,3.32,3.29,3.29
38.95,0.22,-3.08,0.20,-3.08,3.08,2.68,3.66,3.30,3.29,3.29
39.34,0.24,-3.05,0.24,-3.05,3.05,2.64,3.59,3.29,3.29,3.29
39.74,0.26,-3.03,0.28,-3.01,3.01,2.60,3.53,3.27,3.29,3.29
40.14,0.30,-3.00,0.31,-2.98,2.98,2.57,3.46,3.28,3.29,3.29
40.54,0.34,-2.95,0.35,-2.95,2.95,2.53,3.40,3.28,3.29,3.29
40.94,0.38,-2.91,0.38,-2.91,2.91,2.50,3.33,3.29,3.29,3.29
41.35,0.39,-2.90,0.40,-2.89,2.89,2.47,3.27,3.28,3.29,3.28
41.76,0.39,-2.89,0.41,-2.87,2.87,2.44,3.22,3.26,3.28,3.28
42.18,0.42,-2.87,0.41,-2.86,2.86,2.41,3.16,3.28,3.28,3.29
42.60,0.48,-2.79,0.43,-2.84,2.84,2.39,3.11,3.32,3.27,3.27
43.03,0.53,-2.74,0.45,-2.81,2.81,2.36,3.05,3.34,3.26,3.27
43.46,0.51,-2.76,0.47,-2.78,2.78,2.34,3.00,3.29,3.25,3.26
43.90,0.49,-2.75,0.49,-2.75,2.75,2.33,2.96,3.24,3.24,3.24
44.33,0.49,-2.74,0.51,-2.72,2.72,2.31,2.91,3.21,3.23,3.22
44.78,0.49,-2.72,0.53,-2.69,2.69,2.30,2.87,3.18,3.22,3.21
45.23,0.48,-2.73,0.54,-2.66,2.66,2.29,2.83,3.14,3.21,3.20
45.68,0.46,-2.73,0.56,-2.63,2.63,2.29,2.79,3.09,3.20,3.19
46.13,0.49,-2.68,0.58,-2.60,2.60,2.29,2.75,3.09,3.19,3.17
46.60,0.62,-2.56,0.60,-2.58,2.58,2.29,2.72,3.19,3.18,3.18
47.06,0.73,-2.43,0.62,-2.54,2.54,2.29,2.69,3.27,3.16,3.16
47.53,0.71,-2.45,0.64,-2.51,2.51,2.30,2.66,3.22,3.15,3.16
48.01,0.69,-2.47,0.66,-2.48,2.48,2.32,2.63,3.17,3.14,3.16
48.49,0.69,-2.46,0.68,-2.45,2.45,2.34,2.61,3.14,3.13,3.14
48.97,0.69,-2.44,0.69,-2.43,2.43,2.36,2.58,3.12,3.12,3.13
49.46,0.69,-2.42,0.69,-2.42,2.42,2.39,2.56,3.11,3.11,3.11
49.96,0.69,-2.40,0.69,-2.42,2.42,2.42,2.54,3.10,3.10,3.09
50.46,0.69,-2.41,0.68,-2.42,2.42,2.46,2.52,3.11,3.09,3.09
50.96,0.69,-2.40,0.66,-2.43,2.43,2.51,2.50,3.11,3.09,3.09
51.47,0.70,-2.37,0.64,-2.44,2.44,2.56,2.49,3.13,3.08,3.07
51.99,0.72,-2.34,0.63,-2.44,2.44,2.61,2.47,3.16,3.07,3.06
52.51,0.61,-2.45,0.62,-2.45,2.45,2.67,2.46,3.06,3.06,3.06
53.03,0.51,-2.55,0.61,-2.44,2.44,2.73,2.44,2.95,3.05,3.06
53.56,0.48,-2.57,0.61,-2.44,2.44,2.80,2.43,2.92,3.05,3.05
54.10,0.47,-2.57,0.60,-2.44,2.44,2.86,2.42,2.91,3.04,3.04
54.64,0.50,-2.53,0.58,-2.46,2.46,2.92,2.40,2.95,3.04,3.03
55.18,0.54,-2.49,0.55,-2.48,2.48,2.98,2.39,3.02,3.03,3.03
55.74,0.57,-2.45,0.52,-2.51,2.51,3.02,2.38,3.07,3.03,3.02
56.29,0.60,-2.42,0.48,-2.53,2.53,3.06,2.36,3.13,3.02,3.02
56.86,0.61,-2.40,0.44,-2.57,2.57,3.09,2.35,3.18,3.01,3.01
57.42,0.53,-2.46,0.39,-2.61,2.61,3.09,2.33,3.14,3.00,2.99
58.00,0.42,-2.57,0.33,-2.66,2.66,3.08,2.32,3.08,2.99,2.98
58.58,0.33,-2.65,0.27,-2.70,2.70,3.06,2.30,3.03,2.97,2.98
59.16,0.22,-2.75,0.21,-2.75,2.75,3.01,2.28,2.96,2.95,2.97
59.76,0.09,-2.87,0.14,-2.79,2.79,2.95,2.26,2.88,2.93,2.95
60.35,-0.00,-2.92,0.08,-2.84,2.84,2.87,2.24,2.83,2.91,2.92
60.96,-0.07,-2.97,0.01,-2.87,2.87,2.79,2.22,2.80,2.89,2.90
61.57,-0.07,-2.93,-0.04,-2.90,2.90,2.69,2.19,2.83,2.86,2.86
62.18,-0.10,-2.93,-0.08,-2.90,2.90,2.59,2.16,2.80,2.83,2.83
62.80,-0.20,-2.99,-0.10,-2.89,2.89,2.48,2.13,2.69,2.79,2.79
63.43,-0.20,-2.96,-0.11,-2.87,2.87,2.37,2.10,2.66,2.76,2.75
64.07,-0.14,-2.86,-0.09,-2.81,2.81,2.27,2.07,2.67,2.73,2.72
64.71,-0.02,-2.70,-0.04,-2.73,2.73,2.16,2.03,2.71,2.69,2.68
65.35,0.06,-2.59,0.01,-2.64,2.64,2.06,1.99,2.70,2.65,2.65
66.01,0.09,-2.52,0.09,-2.53,2.53,1.96,1.95,2.62,2.61,2.61
66.67,0.16,-2.42,0.17,-2.41,2.41,1.87,1.91,2.57,2.58,2.57
67.33,0.25,-2.28,0.25,-2.29,2.29,1.78,1.87,2.54,2.54,2.53
68.01,0.37,-2.14,0.34,-2.16,2.16,1.70,1.82,2.53,2.50,2.50
68.69,0.43,-2.04,0.44,-2.02,2.02,1.62,1.78,2.45,2.46,2.46
69.37,0.50,-1.92,0.53,-1.89,1.89,1.55,1.73,2.38,2.42,2.42
70.07,0.59,-1.79,0.62,-1.75,1.75,1.48,1.68,2.34,2.38,2.38
70.77,0.81,-1.54,0.71,-1.63,1.63,1.42,1.63,2.44,2.34,2.35
71.48,0.86,-1.45,0.78,-1.51,1.51,1.36,1.58,2.37,2.29,2.30
72.19,0.86,-1.39,0.85,-1.40,1.40,1.30,1.52,2.26,2.25,2.25
72.91,0.92,-1.29,0.91,-1.29,1.29,1.25,1.47,2.21,2.21,2.21
73.64,0.97,-1.19,0.97,-1.19,1.19,1.20,1.42,2.16,2.16,2.16
74.38,1.03,-1.09,1.02,-1.09,1.09,1.15,1.36,2.12,2.12,2.12
75.12,1.10,-0.97,1.06,-1.01,1.01,1.11,1.31,2.11,2.08,2.07
75.87,1.16,-0.87,1.10,-0.94,0.94,1.07,1.25,2.09,2.03,2.02
76.63,1.07,-0.92,1.12,-0.87,0.87,1.03,1.20,1.94,1.99,1.99
77.40,1.08,-0.87,1.14,-0.82,0.82,0.99,1.14,1.89,1.95,1.95
78.17,1.19,-0.71,1.15,-0.77,0.77,0.96,1.08,1.96,1.91,1.90
78.95,1.19,-0.69,1.15,-0.72,0.72,0.92,1.03,1.91,1.88,1.88
79.74,1.19,-0.65,1.17,-0.67,0.67,0.89,0.97,1.86,1.84,1.84
80.54,1.19,-0.62,1.19,-0.62,0.62,0.87,0.92,1.81,1.81,1.81
81.35,1.19,-0.58,1.21,-0.57,0.57,0.84,0.86,1.76,1.77,1.77
82.16,1.19,-0.55,1.22,-0.52,0.52,0.81,0.81,1.71,1.74,1.74
82.98,1.19,-0.53,1.24,-0.47,0.47,0.79,0.75,1.66,1.71,1.72
83.81,1.19,-0.49,1.26,-0.42,0.42,0.76,0.70,1.61,1.68,1.68
84.65,1.24,-0.40,1.28,-0.37,0.37,0.74,0.64,1.61,1.65,1.64
85.50,1.30,-0.32,1.30,-0.31,0.31,0.72,0.59,1.61,1.61,1.62
86.35,1.35,-0.24,1.32,-0.26,0.26,0.70,0.54,1.61,1.58,1.59
87.22,1.39,-0.16,1.33,-0.21,0.21,0.68,0.48,1.60,1.55,1.55
88.09,1.40,-0.12,1.35,-0.16,0.16,0.66,0.43,1.56,1.51,1.52
88.97,1.40,-0.08,1.37,-0.11,0.11,0.64,0.38,1.51,1.48,1.48
89.86,1.40,-0.05,1.39,-0.06,0.06,0.62,0.32,1.46,1.45,1.44
90.76,1.40,-0.01,1.40,-0.01,0.01,0.61,0.27,1.41,1.41,1.41
91.66,1.40,0.02,1.41,0.03,-0.03,0.59,0.22,1.37,1.38,1.38
92.58,1.40,0.06,1.41,0.07,-0.07,0.58,0.17,1.33,1.35,1.34
93.51,1.40,0.09,1.41,0.10,-0.10,0.56,0.12,1.30,1.31,1.31
94.44,1.40,0.12,1.40,0.12,-0.12,0.55,0.07,1.28,1.28,1.28
95.39,1.40,0.15,1.39,0.14,-0.14,0.53,0.01,1.26,1.25,1.25
96.34,1.40,0.18,1.38,0.16,-0.16,0.52,-0.04,1.23,1.22,1.21
97.30,1.39,0.20,1.38,0.19,-0.19,0.51,-0.09,1.20,1.19,1.19
98.28,1.38,0.22,1.38,0.22,-0.22,0.50,-0.14,1.16,1.16,1.16
99.26,1.37,0.24,1.38,0.25,-0.25,0.49,-0.18,1.12,1.13,1.13
100.25,1.35,0.25,1.37,0.27,-0.27,0.47,-0.23,1.07,1.10,1.10
101.25,1.33,0.26,1.37,0.30,-0.30,0.46,-0.28,1.03,1.07,1.07
102.27,1.32,0.28,1.36,0.32,-0.32,0.45,-0.33,1.00,1.04,1.04
103.29,1.31,0.31,1.35,0.34,-0.34,0.44,-0.38,0.97,1.01,1.00
104.32,1.35,0.37,1.34,0.36,-0.36,0.43,-0.42,0.98,0.98,0.98
105.37,1.44,0.48,1.33,0.38,-0.38,0.42,-0.47,1.05,0.94,0.95
106.42,1.40,0.47,1.32,0.40,-0.40,0.41,-0.52,0.99,0.91,0.92
107.48,1.33,0.44,1.30,0.43,-0.43,0.41,-0.56,0.90,0.88,0.88
108.56,1.29,0.44,1.29,0.45,-0.45,0.40,-0.60,0.84,0.85,0.84
109.64,1.27,0.45,1.28,0.47,-0.47,0.39,-0.65,0.80,0.81,0.82
110.74,1.25,0.47,1.27,0.49,-0.49,0.38,-0.69,0.76,0.78,0.78
111.85,1.23,0.47,1.26,0.51,-0.51,0.37,-0.73,0.71,0.75,0.76
112.97,1.22,0.51,1.25,0.53,-0.53,0.37,-0.77,0.68,0.71,0.71
114.10,1.22,0.54,1.24,0.56,-0.56,0.36,-0.80,0.66,0.68,0.68
115.24,1.22,0.57,1.23,0.57,-0.57,0.35,-0.84,0.64,0.66,0.65
116.39,1.22,0.60,1.22,0.59,-0.59,0.34,-0.87,0.63,0.63,0.61
117.55,1.22,0.62,1.21,0.61,-0.61,0.34,-0.90,0.61,0.60,0.60
118.73,1.23,0.66,1.22,0.64,-0.64,0.33,-0.93,0.59,0.58,0.57
119.92,1.23,0.67,1.23,0.67,-0.67,0.33,-0.96,0.56,0.56,0.56
121.12,1.24,0.70,1.23,0.69,-0.69,0.32,-0.99,0.54,0.54,0.53
122.33,1.25,0.73,1.24,0.72,-0.72,0.31,-1.01,0.53,0.52,0.52
123.55,1.26,0.74,1.25,0.74,-0.74,0.31,-1.04,0.51,0.51,0.51
124.79,1.26,0.76,1.26,0.77,-0.77,0.30,-1.06,0.49,0.49,0.50
126.03,1.27,0.79,1.27,0.79,-0.79,0.30,-1.07,0.48,0.48,0.48
127.29,1.28,0.80,1.27,0.81,-0.81,0.29,-1.09,0.47,0.47,0.48
128.57,1.28,0.82,1.28,0.83,-0.83,0.29,-1.10,0.45,0.45,0.45
129.85,1.29,0.85,1.29,0.84,-0.84,0.28,-1.12,0.44,0.44,0.44
131.15,1.29,0.86,1.29,0.86,-0.86,0.28,-1.13,0.43,0.43,0.43
132.46,1.30,0.88,1.30,0.88,-0.88,0.27,-1.14,0.42,0.42,0.41
133.79,1.30,0.90,1.30,0.90,-0.90,0.27,-1.14,0.40,0.40,0.40
135.12,1.31,0.93,1.30,0.91,-0.91,0.26,-1.15,0.40,0.39,0.38
136.48,1.31,0.93,1.31,0.93,-0.93,0.26,-1.15,0.37,0.38,0.38
137.84,1.31,0.95,1.32,0.96,-0.96,0.26,-1.16,0.35,0.37,0.36
139.22,1.32,0.98,1.33,0.97,-0.97,0.25,-1.16,0.35,0.35,0.34
140.61,1.32,1.00,1.32,0.98,-0.98,0.25,-1.16,0.33,0.34,0.32
142.02,1.32,1.00,1.32,1.00,-1.00,0.25,-1.16,0.32,0.32,0.32
143.44,1.32,1.01,1.31,1.01,-1.01,0.24,-1.16,0.31,0.30,0.30
144.87,1.32,1.04,1.30,1.02,-1.02,0.24,-1.16,0.30,0.27,0.28
146.32,1.32,1.07,1.29,1.04,-1.04,0.24,-1.16,0.28,0.24,0.25
147.78,1.32,1.08,1.28,1.07,-1.07,0.23,-1.16,0.24,0.21,0.23
149.26,1.32,1.12,1.27,1.10,-1.10,0.23,-1.15,0.22,0.17,0.20
150.75,1.32,1.17,1.26,1.14,-1.14,0.23,-1.15,0.18,0.12,0.14
152.26,1.19,1.10,1.25,1.18,-1.18,0.22,-1.15,0.00,0.07,0.09
153.78,1.12,1.08,1.25,1.23,-1.23,0.22,-1.15,-0.11,0.02,0.04
155.32,1.19,1.22,1.24,1.28,-1.28,0.22,-1.15,-0.09,-0.04,-0.03
156.88,1.22,1.31,1.23,1.33,-1.33,0.22,-1.15,-0.12,-0.10,-0.09
158.44,1.22,1.38,1.23,1.39,-1.39,0.21,-1.15,-0.17,-0.16,-0.16
160.03,1.22,1.45,1.22,1.44,-1.44,0.21,-1.15,-0.22,-0.22,-0.23
161.63,1.30,1.59,1.22,1.49,-1.49,0.21,-1.15,-0.19,-0.27,-0.29
163.24,1.28,1.62,1.21,1.53,-1.53,0.21,-1.15,-0.26,-0.32,-0.34
164.88,1.16,1.54,1.21,1.57,-1.57,0.21,-1.15,-0.42,-0.37,-0.38
166.53,1.27,1.69,1.21,1.61,-1.61,0.20,-1.16,-0.34,-0.40,-0.42
168.19,1.24,1.69,1.21,1.64,-1.64,0.20,-1.16,-0.40,-0.43,-0.45
169.87,1.19,1.67,1.21,1.67,-1.67,0.20,-1.17,-0.48,-0.46,-0.48
171.57,1.19,1.68,1.20,1.68,-1.68,0.20,-1.17,-0.49,-0.47,-0.49
173.29,1.18,1.67,1.19,1.68,-1.68,0.20,-1.18,-0.50,-0.48,-0.50
175.02,1.18,1.67,1.19,1.68,-1.68,0.20,-1.19,-0.50,-0.49,-0.49
176.77,1.17,1.67,1.18,1.67,-1.67,0.19,-1.20,-0.51,-0.49,-0.50
178.54,1.17,1.66,1.18,1.67,-1.67,0.19,-1.21,-0.51,-0.49,-0.49
180.32,1.17,1.65,1.19,1.68,-1.68,0.19,-1.22,-0.51,-0.49,-0.48
182.13,1.18,1.64,1.20,1.68,-1.68,0.19,-1.23,-0.50,-0.49,-0.46
183.95,1.19,1.66,1.20,1.68,-1.68,0.19,-1.25,-0.49,-0.48,-0.47
185.79,1.20,1.66,1.20,1.68,-1.68,0.19,-1.26,-0.49,-0.48,-0.46
187.65,1.22,1.69,1.21,1.70,-1.70,0.19,-1.28,-0.48,-0.49,-0.47
189.52,1.23,1.71,1.22,1.71,-1.71,0.19,-1.29,-0.48,-0.49,-0.48
191.42,1.24,1.73,1.23,1.72,-1.72,0.19,-1.31,-0.49,-0.49,-0.49
193.33,1.26,1.76,1.23,1.74,-1.74,0.19,-1.33,-0.48,-0.50,-0.50
195.27,1.27,1.78,1.23,1.75,-1.75,0.19,-1.35,-0.48,-0.51,-0.51
197.22,1.29,1.81,1.23,1.75,-1.75,0.19,-1.36,-0.47,-0.52,-0.53
199.19,1.21,1.75,1.22,1.76,-1.76,0.18,-1.38,-0.55,-0.54,-0.55
201.18,1.12,1.67,1.21,1.77,-1.77,0.18,-1.40,-0.65,-0.55,-0.56
203.19,1.20,1.76,1.20,1.77,-1.77,0.18,-1.42,-0.57,-0.57,-0.57
205.23,1.31,1.89,1.19,1.77,-1.77,0.18,-1.45,-0.46,-0.58,-0.59
207.28,1.21,1.79,1.17,1.77,-1.77,0.18,-1.47,-0.56,-0.60,-0.59
209.35,1.12,1.72,1.16,1.77,-1.77,0.18,-1.49,-0.65,-0.61,-0.61
211.44,1.11,1.74,1.14,1.76,-1.76,0.18,-1.51,-0.66,-0.62,-0.63
213.56,1.11,1.74,1.13,1.76,-1.76,0.18,-1.53,-0.65,-0.63,-0.63
215.69,1.10,1.74,1.12,1.76,-1.76,0.18,-1.55,-0.66,-0.64,-0.64
217.85,1.10,1.75,1.11,1.76,-1.76,0.18,-1.57,-0.66,-0.65,-0.65
220.03,1.09,1.74,1.10,1.75,-1.75,0.18,-1.59,-0.67,-0.65,-0.66
222.23,1.09,1.76,1.10,1.76,-1.76,0.19,-1.60,-0.67,-0.66,-0.67
224.45,1.09,1.75,1.10,1.75,-1.75,0.19,-1.62,-0.67,-0.66,-0.66
226.70,1.09,1.75,1.09,1.74,-1.74,0.19,-1.64,-0.66,-0.65,-0.66
228.96,1.10,1.74,1.09,1.73,-1.73,0.19,-1.65,-0.63,-0.64,-0.64
231.25,1.10,1.73,1.10,1.73,-1.73,0.19,-1.66,-0.63,-0.63,-0.63
233.57,1.11,1.73,1.10,1.72,-1.72,0.19,-1.67,-0.61,-0.62,-0.62
235.90,1.13,1.73,1.10,1.70,-1.70,0.19,-1.68,-0.57,-0.60,-0.60
238.26,1.14,1.73,1.10,1.68,-1.68,0.19,-1.69,-0.54,-0.58,-0.59
240.64,1.07,1.63,1.09,1.65,-1.65,0.19,-1.69,-0.58,-0.56,-0.56
243.05,1.06,1.59,1.09,1.63,-1.63,0.19,-1.69,-0.57,-0.53,-0.53
245.48,1.17,1.67,1.09,1.60,-1.60,0.19,-1.69,-0.43,-0.51,-0.51
247.93,1.09,1.56,1.09,1.57,-1.57,0.19,-1.68,-0.48,-0.48,-0.47
250.41,1.05,1.50,1.08,1.54,-1.54,0.20,-1.68,-0.49,-0.46,-0.45
252.92,1.05,1.47,1.08,1.51,-1.51,0.20,-1.67,-0.46,-0.43,-0.42
255.45,1.07,1.46,1.08,1.48,-1.48,0.20,-1.66,-0.41,-0.40,-0.39
258.00,1.07,1.44,1.09,1.46,-1.46,0.20,-1.64,-0.40,-0.38,-0.37
260.58,1.08,1.43,1.09,1.44,-1.44,0.20,-1.62,-0.36,-0.35,-0.35
263.19,1.08,1.39,1.09,1.41,-1.41,0.20,-1.60,-0.33,-0.32,-0.32
265.82,1.08,1.38,1.08,1.37,-1.37,0.21,-1.58,-0.29,-0.29,-0.30
268.48,1.08,1.35,1.07,1.34,-1.34,0.21,-1.56,-0.26,-0.27,-0.27
271.16,1.07,1.31,1.05,1.29,-1.29,0.21,-1.53,-0.23,-0.24,-0.24
273.87,1.07,1.29,1.04,1.25,-1.25,0.21,-1.50,-0.18,-0.21,-0.22
276.61,1.07,1.25,1.03,1.21,-1.21,0.21,-1.47,-0.14,-0.19,-0.18
279.38,1.07,1.22,1.01,1.17,-1.17,0.22,-1.44,-0.10,-0.16,-0.16
282.17,1.14,1.27,0.99,1.12,-1.12,0.22,-1.41,0.02,-0.13,-0.13
284.99,1.04,1.13,0.98,1.07,-1.07,0.22,-1.37,-0.04,-0.10,-0.09
287.84,0.80,0.87,0.97,1.04,-1.04,0.22,-1.33,-0.24,-0.07,-0.08
290.72,0.79,0.83,0.97,1.01,-1.01,0.22,-1.30,-0.22,-0.04,-0.04
293.63,0.90,0.91,0.97,0.97,-0.97,0.23,-1.26,-0.08,-0.01,-0.01
296.57,0.92,0.89,0.96,0.93,-0.93,0.23,-1.22,-0.01,0.02,0.03
299.53,0.93,0.87,0.94,0.89,-0.89,0.23,-1.18,0.04,0.05,0.05
302.53,0.94,0.87,0.93,0.85,-0.85,0.23,-1.14,0.09,0.08,0.07
305.55,0.95,0.83,0.91,0.80,-0.80,0.24,-1.10,0.15,0.11,0.12
308.61,0.96,0.82,0.90,0.76,-0.76,0.24,-1.06,0.20,0.13,0.14
311.69,0.99,0.82,0.89,0.73,-0.73,0.24,-1.02,0.26,0.16,0.17
314.81,1.05,0.85,0.88,0.70,-0.70,0.25,-0.98,0.35,0.18,0.19
317.96,0.97,0.76,0.89,0.68,-0.68,0.25,-0.94,0.29,0.20,0.21
321.14,0.86,0.64,0.89,0.66,-0.66,0.25,-0.90,0.19,0.22,0.22
324.35,0.71,0.47,0.87,0.63,-0.63,0.26,-0.86,0.08,0.24,0.24
327.59,0.70,0.44,0.84,0.59,-0.59,0.26,-0.82,0.11,0.26,0.26
330.87,0.75,0.48,0.81,0.54,-0.54,0.26,-0.78,0.21,0.27,0.26
334.18,0.77,0.48,0.78,0.49,-0.49,0.27,-0.74,0.27,0.28,0.28
337.52,0.77,0.48,0.75,0.46,-0.46,0.27,-0.70,0.31,0.30,0.29
340.90,0.84,0.53,0.73,0.43,-0.43,0.27,-0.67,0.41,0.30,0.31
344.30,0.82,0.50,0.71,0.40,-0.40,0.28,-0.63,0.42,0.31,0.32
347.75,0.71,0.39,0.69,0.38,-0.38,0.28,-0.59,0.33,0.32,0.32
351.23,0.67,0.34,0.68,0.35,-0.35,0.29,-0.55,0.31,0.32,0.33
354.74,0.67,0.34,0.67,0.34,-0.34,0.29,-0.52,0.33,0.33,0.33
358.28,0.58,0.24,0.66,0.33,-0.33,0.29,-0.48,0.25,0.33,0.33
361.87,0.51,0.17,0.64,0.31,-0.31,0.30,-0.45,0.20,0.33,0.33
365.49,0.56,0.22,0.61,0.27,-0.27,0.30,-0.41,0.29,0.34,0.34
369.14,0.63,0.30,0.57,0.23,-0.23,0.31,-0.38,0.40,0.34,0.33
372.83,0.69,0.36,0.54,0.20,-0.20,0.31,-0.34,0.48,0.34,0.33
376.56,0.58,0.25,0.51,0.18,-0.18,0.32,-0.31,0.40,0.33,0.33
380.33,0.52,0.18,0.49,0.16,-0.16,0.32,-0.27,0.36,0.33,0.34
384.13,0.47,0.13,0.45,0.13,-0.13,0.33,-0.24,0.34,0.33,0.34
387.97,0.36,0.03,0.42,0.10,-0.10,0.33,-0.21,0.26,0.32,0.33
391.85,0.38,0.06,0.40,0.08,-0.08,0.34,-0.18,0.30,0.32,0.32
395.77,0.39,0.06,0.37,0.06,-0.06,0.34,-0.14,0.33,0.31,0.32
399.73,0.26,-0.06,0.35,0.04,-0.04,0.35,-0.11,0.22,0.31,0.31
403.72,0.26,-0.06,0.32,0.01,-0.01,0.35,-0.08,0.24,0.30,0.31
407.76,0.39,0.09,0.29,-0.01,0.01,0.36,-0.05,0.40,0.30,0.30
411.84,0.37,0.07,0.27,-0.03,0.03,0.36,-0.02,0.40,0.30,0.30
415.96,0.25,-0.05,0.26,-0.04,0.04,0.37,0.01,0.28,0.30,0.30
420.12,0.15,-0.15,0.27,-0.03,0.03,0.37,0.04,0.18,0.30,0.30
424.32,0.16,-0.14,0.28,-0.02,0.02,0.38,0.07,0.18,0.31,0.30
428.56,0.34,0.03,0.30,-0.02,0.02,0.39,0.09,0.36,0.32,0.31
432.85,0.40,0.08,0.32,-0.01,0.01,0.39,0.12,0.41,0.33,0.32
437.18,0.30,-0.03,0.33,-0.02,0.02,0.40,0.15,0.32,0.35,0.33
441.55,0.31,-0.06,0.35,-0.03,0.03,0.40,0.18,0.34,0.38,0.37
445.96,0.35,-0.05,0.38,-0.03,0.03,0.41,0.20,0.38,0.41,0.40
450.42,0.44,0.01,0.41,-0.04,0.04,0.42,0.23,0.48,0.45,0.43
454.93,0.52,0.04,0.43,-0.05,0.05,0.42,0.25,0.57,0.49,0.48
459.48,0.48,-0.05,0.46,-0.07,0.07,0.43,0.27,0.55,0.53,0.53
464.07,0.49,-0.09,0.49,-0.09,0.09,0.44,0.30,0.58,0.58,0.58
468.71,0.51,-0.13,0.50,-0.13,0.13,0.44,0.32,0.64,0.63,0.64
473.40,0.52,-0.16,0.50,-0.18,0.18,0.45,0.34,0.69,0.68,0.67
478.13,0.50,-0.24,0.50,-0.22,0.22,0.46,0.36,0.72,0.73,0.73
482.91,0.51,-0.27,0.52,-0.25,0.25,0.47,0.38,0.76,0.77,0.77
487.74,0.57,-0.25,0.54,-0.27,0.27,0.47,0.40,0.84,0.81,0.81
492.62,0.62,-0.25,0.55,-0.30,0.30,0.48,0.42,0.92,0.85,0.86
497.55,0.54,-0.35,0.54,-0.34,0.34,0.49,0.43,0.87,0.88,0.88
502.52,0.43,-0.49,0.54,-0.36,0.36,0.50,0.45,0.79,0.90,0.91
507.55,0.42,-0.50,0.55,-0.37,0.37,0.50,0.46,0.79,0.92,0.92
512.62,0.46,-0.47,0.54,-0.38,0.38,0.51,0.48,0.84,0.92,0.93
517.75,0.56,-0.38,0.53,-0.39,0.39,0.52,0.49,0.95,0.92,0.94
522.93,0.62,-0.31,0.51,-0.40,0.40,0.53,0.51,1.02,0.91,0.93
528.16,0.61,-0.29,0.48,-0.40,0.40,0.54,0.52,1.01,0.89,0.90
533.44,0.56,-0.31,0.45,-0.40,0.40,0.54,0.53,0.96,0.86,0.87
538.77,0.43,-0.41,0.42,-0.40,0.40,0.55,0.54,0.83,0.82,0.84
544.16,0.31,-0.48,0.38,-0.40,0.40,0.56,0.55,0.71,0.78,0.79
549.60,0.36,-0.38,0.33,-0.40,0.40,0.57,0.56,0.76,0.73,0.74
