frequency,raw,smoothed,error,error_smoothed,equalization,parametric_eq,fixed_band_eq,equalized_raw,equalized_smoothed,target
20.00,8.21,8.21,0.78,0.78,-0.78,-1.28,-0.63,7.43,7.43,7.43
20.20,8.23,8.24,0.80,0.80,-0.80,-1.29,-0.65,7.43,7.43,7.43
20.40,8.26,8.26,0.83,0.83,-0.83,-1.29,-0.67,7.44,7.43,7.43
20.61,8.28,8.28,0.85,0.85,-0.85,-1.29,-0.69,7.43,7.43,7.43
20.81,8.30,8.30,0.87,0.87,-0.87,-1.29,-0.71,7.43,7.43,7.43
21.02,8.32,8.32,0.89,0.89,-0.89,-1.30,-0.73,7.43,7.43,7.43
21.23,8.34,8.34,0.91,0.91,-0.91,-1.30,-0.75,7.43,7.43,7.43
21.44,8.36,8.36,0.93,0.93,-0.94,-1.30,-0.77,7.43,7.43,7.43
21.66,8.38,8.38,0.95,0.96,-0.96,-1.30,-0.79,7.43,7.43,7.43
21.87,8.40,8.40,0.98,0.98,-0.98,-1.31,-0.82,7.43,7.43,7.43
22.09,8.42,8.42,1.00,1.00,-1.00,-1.31,-0.84,7.43,7.43,7.43
22.31,8.44,8.44,1.02,1.02,-1.02,-1.31,-0.86,7.42,7.42,7.42
22.54,8.46,8.46,1.04,1.04,-1.04,-1.32,-0.89,7.42,7.42,7.42
22.76,8.48,8.48,1.06,1.06,-1.06,-1.32,-0.91,7.42,7.42,7.42
22.99,8.50,8.50,1.08,1.08,-1.08,-1.32,-0.94,7.42,7.42,7.42
23.22,8.52,8.52,1.10,1.10,-1.10,-1.33,-0.96,7.42,7.42,7.42
23.45,8.54,8.54,1.12,1.12,-1.12,-1.33,-0.99,7.42,7.42,7.42
23.69,8.55,8.56,1.13,1.14,-1.14,-1.33,-1.02,7.41,7.42,7.42
23.92,8.57,8.57,1.15,1.16,-1.16,-1.33,-1.05,7.42,7.42,7.42
24.16,8.59,8.59,1.18,1.17,-1.18,-1.34,-1.07,7.42,7.42,7.42
24.40,8.61,8.61,1.20,1.19,-1.19,-1.34,-1.10,7.42,7.42,7.42
24.65,8.62,8.63,1.21,1.21,-1.21,-1.35,-1.13,7.41,7.42,7.41
24.89,8.64,8.64,1.23,1.23,-1.23,-1.35,-1.16,7.42,7.41,7.41
25.14,8.65,8.65,1.24,1.24,-1.24,-1.35,-1.19,7.41,7.41,7.41
25.39,8.66,8.67,1.25,1.26,-1.26,-1.36,-1.22,7.41,7.41,7.41
25.65,8.68,8.68,1.27,1.27,-1.27,-1.36,-1.25,7.41,7.41,7.41
25.91,8.69,8.69,1.29,1.29,-1.29,-1.36,-1.28,7.40,7.41,7.41
26.16,8.71,8.71,1.31,1.30,-1.30,-1.37,-1.31,7.41,7.41,7.41
26.43,8.72,8.73,1.32,1.32,-1.32,-1.37,-1.34,7.40,7.40,7.40
26.69,8.74,8.74,1.34,1.34,-1.34,-1.38,-1.37,7.41,7.40,7.40
26.96,8.75,8.75,1.35,1.35,-1.35,-1.38,-1.40,7.40,7.40,7.40
27.23,8.76,8.77,1.36,1.37,-1.37,-1.38,-1.43,7.39,7.40,7.40
27.50,8.78,8.78,1.39,1.38,-1.38,-1.39,-1.46,7.40,7.40,7.40
27.77,8.79,8.79,1.40,1.40,-1.40,-1.39,-1.49,7.40,7.40,7.39
28.05,8.80,8.80,1.41,1.41,-1.41,-1.40,-1.52,7.39,7.39,7.39
28.33,8.81,8.81,1.42,1.42,-1.42,-1.40,-1.54,7.39,7.39,7.39
28.62,8.82,8.82,1.43,1.43,-1.44,-1.41,-1.57,7.39,7.39,7.39
28.90,8.83,8.83,1.45,1.45,-1.45,-1.41,-1.59,7.39,7.39,7.39
29.19,8.84,8.84,1.46,1.46,-1.46,-1.42,-1.61,7.38,7.38,7.38
29.48,8.85,8.85,1.47,1.47,-1.47,-1.42,-1.63,7.38,7.38,7.38
29.78,8.86,8.86,1.48,1.48,-1.48,-1.43,-1.65,7.38,7.38,7.38
30.08,8.87,8.87,1.50,1.49,-1.49,-1.43,-1.67,7.38,7.38,7.38
30.38,8.87,8.88,1.50,1.50,-1.50,-1.44,-1.69,7.37,7.37,7.37
30.68,8.88,8.88,1.51,1.51,-1.51,-1.44,-1.70,7.37,7.37,7.37
30.99,8.89,8.89,1.52,1.52,-1.53,-1.45,-1.72,7.37,7.37,7.37
31.30,8.90,8.90,1.54,1.54,-1.54,-1.45,-1.73,7.36,7.37,7.36
31.61,8.91,8.91,1.55,1.55,-1.55,-1.46,-1.74,7.36,7.36,7.36
31.93,8.92,8.92,1.56,1.56,-1.56,-1.46,-1.74,7.36,7.36,7.36
32.24,8.92,8.93,1.57,1.57,-1.57,-1.47,-1.75,7.35,7.36,7.36
32.57,8.93,8.93,1.58,1.58,-1.58,-1.48,-1.75,7.35,7.35,7.35
32.89,8.94,8.94,1.59,1.59,-1.59,-1.48,-1.76,7.35,7.35,7.35
33.22,8.94,8.95,1.60,1.60,-1.60,-1.49,-1.76,7.34,7.34,7.34
33.55,8.95,8.95,1.61,1.61,-1.61,-1.49,-1.76,7.34,7.34,7.34
33.89,8.95,8.95,1.62,1.62,-1.62,-1.50,-1.76,7.33,7.33,7.34
34.23,8.96,8.96,1.63,1.63,-1.63,-1.51,-1.75,7.33,7.33,7.33
34.57,8.96,8.96,1.63,1.64,-1.64,-1.51,-1.75,7.32,7.33,7.33
34.92,8.97,8.97,1.65,1.65,-1.65,-1.52,-1.74,7.33,7.32,7.32
35.27,8.97,8.98,1.65,1.66,-1.66,-1.53,-1.74,7.32,7.32,7.32
35.62,8.98,8.98,1.67,1.67,-1.66,-1.54,-1.73,7.32,7.32,7.31
35.97,8.98,8.98,1.67,1.67,-1.67,-1.54,-1.73,7.31,7.31,7.31
36.33,8.98,8.98,1.68,1.68,-1.68,-1.55,-1.72,7.30,7.30,7.30
36.70,8.98,8.99,1.68,1.69,-1.69,-1.56,-1.71,7.29,7.30,7.30
37.06,8.99,8.99,1.70,1.70,-1.70,-1.56,-1.71,7.29,7.29,7.29
37.43,8.99,8.99,1.71,1.70,-1.71,-1.57,-1.70,7.29,7.29,7.29
37.81,8.99,8.99,1.71,1.71,-1.71,-1.58,-1.70,7.28,7.28,7.28
38.19,8.99,9.00,1.72,1.72,-1.72,-1.59,-1.69,7.27,7.27,7.27
38.57,9.00,9.00,1.74,1.73,-1.73,-1.60,-1.68,7.27,7.27,7.27
38.95,9.00,9.00,1.74,1.74,-1.74,-1.61,-1.68,7.26,7.26,7.26
39.34,9.00,9.00,1.75,1.75,-1.75,-1.61,-1.68,7.25,7.25,7.25
39.74,9.00,9.00,1.76,1.76,-1.76,-1.62,-1.67,7.25,7.25,7.25
40.14,9.00,9.00,1.76,1.76,-1.76,-1.63,-1.67,7.24,7.24,7.24
40.54,9.00,9.00,1.77,1.77,-1.77,-1.64,-1.67,7.23,7.23,7.23
40.94,9.00,9.00,1.78,1.78,-1.78,-1.65,-1.67,7.23,7.22,7.22
41.35,8.99,9.00,1.78,1.78,-1.78,-1.66,-1.67,7.21,7.21,7.21
41.76,8.99,8.99,1.79,1.79,-1.79,-1.67,-1.67,7.20,7.20,7.21
42.18,8.99,8.99,1.80,1.80,-1.80,-1.68,-1.67,7.19,7.19,7.20
42.60,8.99,8.99,1.81,1.81,-1.81,-1.69,-1.68,7.19,7.19,7.19
43.03,8.99,8.99,1.82,1.81,-1.81,-1.70,-1.68,7.18,7.18,7.18
43.46,8.99,8.99,1.83,1.82,-1.82,-1.71,-1.69,7.17,7.17,7.17
43.90,8.98,8.99,1.83,1.83,-1.83,-1.72,-1.70,7.15,7.16,7.16
44.33,8.98,8.98,1.84,1.84,-1.84,-1.73,-1.71,7.14,7.14,7.15
44.78,8.98,8.98,1.85,1.84,-1.85,-1.74,-1.72,7.14,7.13,7.13
45.23,8.97,8.98,1.85,1.85,-1.86,-1.75,-1.73,7.12,7.12,7.12
45.68,8.97,8.97,1.86,1.86,-1.86,-1.76,-1.74,7.11,7.11,7.11
46.13,8.97,8.97,1.87,1.87,-1.87,-1.77,-1.76,7.10,7.10,7.10
46.60,8.97,8.97,1.89,1.88,-1.88,-1.79,-1.77,7.09,7.09,7.09
47.06,8.96,8.97,1.89,1.89,-1.89,-1.80,-1.79,7.07,7.08,7.07
47.53,8.96,8.96,1.90,1.90,-1.90,-1.81,-1.81,7.06,7.06,7.06
48.01,8.95,8.95,1.91,1.91,-1.91,-1.82,-1.83,7.04,7.04,7.04
48.49,8.94,8.95,1.91,1.92,-1.92,-1.84,-1.85,7.02,7.03,7.03
48.97,8.94,8.94,1.93,1.93,-1.93,-1.85,-1.87,7.01,7.01,7.01
49.46,8.93,8.94,1.93,1.94,-1.94,-1.86,-1.89,7.00,7.00,7.00
49.96,8.93,8.93,1.95,1.95,-1.95,-1.87,-1.91,6.99,6.98,6.98
50.46,8.92,8.92,1.96,1.96,-1.96,-1.89,-1.94,6.97,6.96,6.96
50.96,8.91,8.91,1.97,1.97,-1.97,-1.90,-1.96,6.95,6.95,6.95
51.47,8.90,8.91,1.97,1.98,-1.98,-1.92,-1.99,6.92,6.93,6.93
51.99,8.90,8.90,1.99,1.99,-1.99,-1.93,-2.01,6.91,6.91,6.91
52.51,8.89,8.89,2.00,2.00,-2.00,-1.94,-2.04,6.89,6.89,6.89
53.03,8.88,8.88,2.01,2.01,-2.01,-1.96,-2.07,6.87,6.87,6.87
53.56,8.87,8.87,2.02,2.02,-2.02,-1.97,-2.09,6.85,6.85,6.85
54.10,8.86,8.86,2.03,2.03,-2.03,-1.99,-2.12,6.83,6.83,6.83
54.64,8.85,8.85,2.04,2.04,-2.05,-2.00,-2.15,6.81,6.81,6.81
55.18,8.84,8.84,2.06,2.06,-2.06,-2.02,-2.18,6.78,6.78,6.78
55.74,8.83,8.83,2.07,2.07,-2.07,-2.04,-2.21,6.76,6.76,6.76
56.29,8.82,8.82,2.08,2.08,-2.09,-2.05,-2.23,6.74,6.74,6.74
56.86,8.81,8.81,2.10,2.10,-2.10,-2.07,-2.26,6.71,6.71,6.71
57.42,8.80,8.80,2.12,2.12,-2.12,-2.09,-2.29,6.69,6.69,6.69
58.00,8.79,8.79,2.13,2.13,-2.13,-2.10,-2.31,6.66,6.66,6.66
58.58,8.78,8.78,2.15,2.15,-2.15,-2.12,-2.34,6.63,6.63,6.63
59.16,8.77,8.77,2.17,2.17,-2.17,-2.14,-2.36,6.61,6.61,6.61
59.76,8.76,8.76,2.19,2.18,-2.18,-2.16,-2.38,6.58,6.58,6.58
60.35,8.74,8.75,2.20,2.20,-2.20,-2.18,-2.40,6.54,6.55,6.55
60.96,8.73,8.73,2.22,2.22,-2.22,-2.20,-2.42,6.52,6.52,6.52
61.57,8.72,8.72,2.24,2.23,-2.23,-2.21,-2.44,6.49,6.48,6.48
62.18,8.70,8.71,2.25,2.25,-2.25,-2.23,-2.46,6.45,6.45,6.45
62.80,8.69,8.69,2.27,2.27,-2.27,-2.25,-2.48,6.42,6.42,6.42
63.43,8.67,8.67,2.29,2.29,-2.29,-2.27,-2.49,6.38,6.38,6.38
64.07,8.66,8.66,2.31,2.31,-2.31,-2.29,-2.51,6.35,6.35,6.35
64.71,8.64,8.65,2.33,2.33,-2.33,-2.32,-2.52,6.31,6.31,6.31
65.35,8.63,8.63,2.36,2.35,-2.35,-2.34,-2.53,6.28,6.28,6.28
66.01,8.61,8.61,2.37,2.37,-2.37,-2.36,-2.54,6.24,6.24,6.24
66.67,8.59,8.60,2.39,2.40,-2.40,-2.38,-2.55,6.20,6.20,6.20
67.33,8.58,8.58,2.42,2.42,-2.42,-2.40,-2.56,6.16,6.16,6.16
68.01,8.56,8.56,2.44,2.44,-2.44,-2.43,-2.57,6.12,6.12,6.12
68.69,8.54,8.54,2.47,2.47,-2.47,-2.45,-2.58,6.08,6.07,6.08
69.37,8.52,8.52,2.49,2.49,-2.49,-2.47,-2.59,6.03,6.03,6.03
70.07,8.50,8.51,2.51,2.52,-2.52,-2.50,-2.60,5.98,5.99,5.99
70.77,8.49,8.49,2.55,2.55,-2.55,-2.52,-2.61,5.95,5.94,5.94
71.48,8.47,8.47,2.57,2.57,-2.57,-2.55,-2.62,5.90,5.90,5.90
72.19,8.45,8.45,2.60,2.60,-2.60,-2.57,-2.62,5.85,5.85,5.85
72.91,8.43,8.43,2.63,2.63,-2.63,-2.60,-2.63,5.80,5.80,5.80
73.64,8.41,8.41,2.66,2.66,-2.66,-2.62,-2.64,5.75,5.75,5.75
74.38,8.39,8.39,2.69,2.69,-2.69,-2.65,-2.66,5.70,5.70,5.70
75.12,8.37,8.37,2.72,2.72,-2.72,-2.68,-2.67,5.65,5.65,5.65
75.87,8.35,8.35,2.75,2.75,-2.75,-2.70,-2.68,5.60,5.60,5.60
76.63,8.33,8.33,2.79,2.79,-2.78,-2.73,-2.69,5.55,5.55,5.55
77.40,8.31,8.31,2.82,2.82,-2.82,-2.76,-2.71,5.50,5.49,5.49
78.17,8.28,8.29,2.85,2.85,-2.85,-2.79,-2.73,5.43,5.43,5.44
78.95,8.26,8.26,2.88,2.88,-2.88,-2.82,-2.75,5.38,5.38,5.38
79.74,8.24,8.24,2.92,2.92,-2.92,-2.85,-2.77,5.32,5.32,5.32
80.54,8.22,8.22,2.96,2.95,-2.96,-2.88,-2.79,5.27,5.26,5.26
81.35,8.19,8.20,2.99,2.99,-2.99,-2.91,-2.82,5.20,5.21,5.20
82.16,8.17,8.17,3.03,3.03,-3.03,-2.94,-2.84,5.14,5.14,5.14
82.98,8.15,8.15,3.07,3.07,-3.06,-2.97,-2.87,5.09,5.08,5.08
83.81,8.12,8.13,3.10,3.10,-3.10,-3.01,-2.90,5.02,5.02,5.02
84.65,8.10,8.10,3.14,3.14,-3.14,-3.04,-2.94,4.96,4.96,4.96
85.50,8.07,8.07,3.18,3.18,-3.18,-3.07,-2.97,4.90,4.90,4.90
86.35,8.04,8.05,3.21,3.22,-3.22,-3.11,-3.01,4.83,4.83,4.83
87.22,8.02,8.02,3.26,3.25,-3.25,-3.14,-3.05,4.77,4.76,4.77
88.09,7.99,7.99,3.29,3.29,-3.29,-3.18,-3.09,4.70,4.70,4.70
88.97,7.96,7.97,3.33,3.33,-3.33,-3.21,-3.14,4.63,4.63,4.63
89.86,7.94,7.94,3.38,3.37,-3.37,-3.25,-3.19,4.57,4.57,4.57
90.76,7.91,7.91,3.41,3.41,-3.41,-3.28,-3.24,4.50,4.50,4.50
91.66,7.88,7.88,3.45,3.45,-3.45,-3.32,-3.29,4.43,4.43,4.43
92.58,7.85,7.85,3.49,3.49,-3.49,-3.36,-3.34,4.36,4.36,4.36
93.51,7.82,7.82,3.53,3.53,-3.53,-3.40,-3.40,4.29,4.29,4.29
94.44,7.79,7.79,3.57,3.57,-3.57,-3.43,-3.46,4.22,4.22,4.22
95.39,7.76,7.76,3.61,3.61,-3.61,-3.47,-3.52,4.15,4.15,4.15
96.34,7.73,7.73,3.65,3.65,-3.66,-3.51,-3.58,4.08,4.08,4.08
97.30,7.70,7.70,3.70,3.70,-3.70,-3.55,-3.65,4.01,4.01,4.01
98.28,7.67,7.67,3.74,3.74,-3.74,-3.59,-3.71,3.94,3.94,3.93
99.26,7.64,7.64,3.78,3.78,-3.78,-3.64,-3.78,3.86,3.86,3.86
100.25,7.61,7.61,3.82,3.82,-3.82,-3.68,-3.85,3.79,3.79,3.79
101.25,7.57,7.58,3.85,3.86,-3.86,-3.72,-3.92,3.71,3.72,3.72
102.27,7.54,7.54,3.90,3.90,-3.90,-3.76,-3.99,3.64,3.64,3.64
103.29,7.51,7.51,3.94,3.94,-3.94,-3.80,-4.07,3.57,3.57,3.57
104.32,7.47,7.48,3.97,3.98,-3.98,-3.85,-4.14,3.49,3.50,3.50
105.37,7.44,7.44,4.02,4.02,-4.02,-3.89,-4.21,3.43,3.42,3.43
106.42,7.41,7.41,4.06,4.06,-4.06,-3.93,-4.28,3.36,3.35,3.35
107.48,7.37,7.38,4.09,4.10,-4.09,-3.98,-4.35,3.28,3.28,3.28
108.56,7.34,7.34,4.14,4.13,-4.13,-4.02,-4.42,3.21,3.21,3.21
109.64,7.30,7.30,4.17,4.17,-4.17,-4.06,-4.49,3.13,3.13,3.13
110.74,7.26,7.27,4.20,4.21,-4.20,-4.11,-4.56,3.06,3.06,3.06
111.85,7.23,7.23,4.24,4.24,-4.24,-4.15,-4.63,2.99,2.99,2.99
112.97,7.19,7.19,4.28,4.27,-4.28,-4.19,-4.69,2.92,2.92,2.92
114.10,7.15,7.15,4.31,4.31,-4.31,-4.24,-4.75,2.84,2.84,2.85
115.24,7.11,7.12,4.34,4.34,-4.34,-4.28,-4.80,2.77,2.77,2.77
116.39,7.08,7.08,4.38,4.38,-4.38,-4.33,-4.85,2.71,2.70,2.70
117.55,7.04,7.04,4.41,4.41,-4.41,-4.37,-4.89,2.63,2.63,2.63
118.73,7.00,7.00,4.44,4.44,-4.44,-4.41,-4.94,2.57,2.57,2.56
119.92,6.96,6.96,4.47,4.47,-4.47,-4.45,-4.97,2.50,2.50,2.49
121.12,6.92,6.92,4.50,4.49,-4.49,-4.49,-5.00,2.43,2.42,2.42
122.33,6.87,6.88,4.52,4.52,-4.52,-4.53,-5.02,2.35,2.35,2.36
123.55,6.83,6.83,4.54,4.54,-4.55,-4.58,-5.04,2.28,2.29,2.29
124.79,6.79,6.79,4.57,4.57,-4.57,-4.61,-5.05,2.22,2.22,2.22
126.03,6.75,6.75,4.60,4.60,-4.60,-4.65,-5.06,2.16,2.16,2.16
127.29,6.71,6.71,4.62,4.62,-4.62,-4.69,-5.06,2.09,2.09,2.09
128.57,6.67,6.67,4.65,4.64,-4.64,-4.73,-5.05,2.03,2.03,2.03
129.85,6.62,6.63,4.66,4.66,-4.66,-4.76,-5.04,1.96,1.96,1.96
131.15,6.58,6.58,4.68,4.68,-4.68,-4.80,-5.02,1.90,1.90,1.90
132.46,6.54,6.54,4.71,4.70,-4.70,-4.83,-5.00,1.84,1.84,1.84
133.79,6.49,6.50,4.72,4.72,-4.72,-4.86,-4.97,1.77,1.78,1.78
135.12,6.45,6.45,4.74,4.74,-4.73,-4.89,-4.93,1.72,1.72,1.71
136.48,6.40,6.41,4.75,4.75,-4.75,-4.91,-4.90,1.65,1.66,1.66
137.84,6.36,6.36,4.77,4.76,-4.76,-4.94,-4.86,1.60,1.60,1.60
139.22,6.31,6.31,4.77,4.77,-4.77,-4.96,-4.81,1.54,1.54,1.54
140.61,6.26,6.27,4.78,4.78,-4.78,-4.98,-4.76,1.48,1.48,1.48
142.02,6.22,6.22,4.80,4.79,-4.79,-5.00,-4.71,1.43,1.43,1.43
143.44,6.17,6.17,4.80,4.80,-4.80,-5.02,-4.66,1.37,1.37,1.37
144.87,6.12,6.13,4.80,4.81,-4.81,-5.04,-4.61,1.32,1.32,1.32
146.32,6.08,6.08,4.82,4.81,-4.81,-5.05,-4.55,1.27,1.27,1.27
147.78,6.03,6.03,4.82,4.82,-4.82,-5.06,-4.50,1.22,1.22,1.21
149.26,5.98,5.98,4.82,4.82,-4.82,-5.06,-4.45,1.16,1.17,1.16
150.75,5.93,5.93,4.82,4.82,-4.82,-5.07,-4.39,1.11,1.11,1.11
152.26,5.88,5.88,4.82,4.82,-4.82,-5.07,-4.34,1.07,1.07,1.07
153.78,5.83,5.83,4.81,4.81,-4.81,-5.07,-4.28,1.02,1.02,1.02
155.32,5.78,5.78,4.81,4.81,-4.81,-5.07,-4.23,0.97,0.97,0.97
156.88,5.73,5.73,4.81,4.80,-4.81,-5.06,-4.18,0.93,0.93,0.93
158.44,5.68,5.68,4.80,4.80,-4.80,-5.05,-4.13,0.88,0.88,0.88
160.03,5.62,5.63,4.78,4.79,-4.79,-5.04,-4.08,0.83,0.83,0.84
161.63,5.57,5.57,4.79,4.78,-4.78,-5.03,-4.04,0.79,0.79,0.79
163.24,5.52,5.52,4.78,4.78,-4.77,-5.01,-4.00,0.75,0.75,0.75
164.88,5.47,5.47,4.77,4.77,-4.76,-4.99,-3.96,0.71,0.71,0.70
166.53,5.41,5.42,4.75,4.75,-4.75,-4.97,-3.92,0.66,0.66,0.67
168.19,5.36,5.36,4.74,4.74,-4.74,-4.95,-3.89,0.63,0.63,0.63
169.87,5.31,5.31,4.72,4.72,-4.72,-4.92,-3.85,0.59,0.59,0.59
171.57,5.26,5.26,4.71,4.71,-4.70,-4.89,-3.82,0.56,0.55,0.55
173.29,5.20,5.21,4.68,4.69,-4.69,-4.86,-3.80,0.52,0.52,0.52
175.02,5.15,5.15,4.67,4.67,-4.67,-4.83,-3.77,0.49,0.48,0.48
176.77,5.09,5.09,4.64,4.64,-4.65,-4.79,-3.75,0.45,0.45,0.45
178.54,5.04,5.04,4.63,4.62,-4.62,-4.76,-3.74,0.42,0.42,0.42
180.32,4.98,4.98,4.60,4.60,-4.60,-4.72,-3.72,0.38,0.38,0.39
182.13,4.93,4.93,4.58,4.58,-4.58,-4.68,-3.71,0.36,0.35,0.35
183.95,4.87,4.87,4.55,4.55,-4.55,-4.63,-3.70,0.32,0.32,0.32
185.79,4.82,4.82,4.53,4.52,-4.52,-4.59,-3.69,0.30,0.30,0.30
187.65,4.76,4.77,4.50,4.50,-4.50,-4.54,-3.69,0.27,0.27,0.27
189.52,4.71,4.71,4.47,4.47,-4.47,-4.49,-3.69,0.24,0.24,0.24
191.42,4.65,4.65,4.44,4.44,-4.44,-4.44,-3.69,0.21,0.21,0.21
193.33,4.59,4.59,4.41,4.41,-4.41,-4.39,-3.70,0.19,0.19,0.19
195.27,4.53,4.54,4.37,4.37,-4.37,-4.34,-3.70,0.16,0.16,0.16
197.22,4.48,4.48,4.34,4.34,-4.34,-4.29,-3.71,0.14,0.14,0.14
199.19,4.42,4.42,4.31,4.31,-4.31,-4.24,-3.72,0.12,0.12,0.11
201.18,4.36,4.36,4.27,4.27,-4.27,-4.18,-3.73,0.09,0.09,0.09
203.19,4.30,4.30,4.23,4.23,-4.24,-4.13,-3.75,0.07,0.07,0.07
205.23,4.24,4.25,4.19,4.20,-4.20,-4.07,-3.76,0.04,0.05,0.05
207.28,4.19,4.19,4.17,4.16,-4.16,-4.01,-3.78,0.03,0.03,0.03
209.35,4.13,4.13,4.13,4.13,-4.12,-3.96,-3.79,0.01,0.01,0.01
211.44,4.07,4.07,4.08,4.09,-4.08,-3.90,-3.81,-0.01,-0.01,-0.01
213.56,4.01,4.01,4.04,4.04,-4.04,-3.84,-3.83,-0.03,-0.03,-0.03
215.69,3.95,3.95,4.00,4.00,-4.00,-3.78,-3.85,-0.05,-0.05,-0.05
217.85,3.89,3.89,3.96,3.96,-3.96,-3.72,-3.86,-0.07,-0.07,-0.07
220.03,3.83,3.83,3.92,3.92,-3.92,-3.67,-3.88,-0.09,-0.09,-0.08
222.23,3.77,3.78,3.87,3.88,-3.88,-3.61,-3.90,-0.10,-0.10,-0.10
224.45,3.72,3.72,3.84,3.84,-3.83,-3.55,-3.91,-0.11,-0.12,-0.12
226.70,3.66,3.66,3.80,3.79,-3.79,-3.49,-3.92,-0.13,-0.13,-0.13
228.96,3.60,3.60,3.75,3.75,-3.75,-3.43,-3.93,-0.15,-0.15,-0.15
231.25,3.54,3.54,3.70,3.70,-3.71,-3.38,-3.94,-0.16,-0.16,-0.16
233.57,3.48,3.48,3.66,3.66,-3.66,-3.32,-3.94,-0.18,-0.18,-0.18
235.90,3.42,3.42,3.62,3.62,-3.62,-3.26,-3.94,-0.20,-0.20,-0.20
238.26,3.36,3.37,3.57,3.58,-3.58,-3.20,-3.94,-0.21,-0.21,-0.21
240.64,3.31,3.31,3.54,3.53,-3.53,-3.15,-3.93,-0.22,-0.22,-0.23
243.05,3.25,3.25,3.49,3.49,-3.49,-3.09,-3.92,-0.23,-0.23,-0.24
245.48,3.19,3.19,3.44,3.44,-3.44,-3.03,-3.91,-0.25,-0.25,-0.25
247.93,3.13,3.13,3.39,3.39,-3.39,-2.98,-3.89,-0.26,-0.26,-0.26
250.41,3.07,3.07,3.34,3.34,-3.34,-2.92,-3.87,-0.27,-0.27,-0.27
252.92,3.01,3.01,3.29,3.29,-3.29,-2.87,-3.84,-0.28,-0.28,-0.28
255.45,2.95,2.95,3.24,3.24,-3.25,-2.82,-3.81,-0.29,-0.29,-0.29
258.00,2.89,2.89,3.19,3.19,-3.20,-2.76,-3.77,-0.30,-0.30,-0.30
260.58,2.83,2.83,3.14,3.14,-3.15,-2.71,-3.73,-0.31,-0.31,-0.31
263.19,2.77,2.78,3.09,3.10,-3.10,-2.66,-3.68,-0.32,-0.32,-0.32
265.82,2.72,2.72,3.05,3.05,-3.05,-2.61,-3.63,-0.33,-0.33,-0.33
268.48,2.66,2.66,3.00,3.00,-3.00,-2.56,-3.58,-0.34,-0.34,-0.34
271.16,2.60,2.60,2.95,2.95,-2.95,-2.51,-3.53,-0.35,-0.35,-0.35
273.87,2.54,2.54,2.90,2.90,-2.90,-2.46,-3.47,-0.36,-0.36,-0.35
276.61,2.48,2.49,2.84,2.85,-2.85,-2.41,-3.40,-0.37,-0.36,-0.36
279.38,2.43,2.43,2.80,2.80,-2.80,-2.36,-3.34,-0.36,-0.37,-0.37
282.17,2.37,2.37,2.75,2.74,-2.74,-2.31,-3.27,-0.37,-0.37,-0.38
284.99,2.31,2.32,2.69,2.69,-2.69,-2.27,-3.20,-0.38,-0.37,-0.37
287.84,2.26,2.26,2.63,2.63,-2.63,-2.22,-3.13,-0.37,-0.38,-0.37
290.72,2.20,2.20,2.58,2.58,-2.58,-2.17,-3.06,-0.38,-0.38,-0.38
293.63,2.14,2.15,2.52,2.52,-2.52,-2.13,-2.98,-0.38,-0.38,-0.38
296.57,2.09,2.09,2.47,2.47,-2.47,-2.09,-2.91,-0.38,-0.38,-0.38
299.53,2.03,2.03,2.41,2.41,-2.41,-2.04,-2.83,-0.38,-0.38,-0.37
302.53,1.98,1.98,2.36,2.36,-2.36,-2.00,-2.76,-0.37,-0.38,-0.38
305.55,1.92,1.92,2.30,2.30,-2.30,-1.96,-2.68,-0.38,-0.38,-0.37
308.61,1.87,1.87,2.25,2.25,-2.25,-1.91,-2.61,-0.38,-0.38,-0.38
311.69,1.81,1.82,2.19,2.19,-2.19,-1.87,-2.53,-0.38,-0.38,-0.37
314.81,1.76,1.76,2.14,2.14,-2.14,-1.83,-2.46,-0.38,-0.38,-0.38
317.96,1.71,1.71,2.09,2.09,-2.08,-1.79,-2.38,-0.37,-0.38,-0.37
321.14,1.65,1.66,2.03,2.03,-2.03,-1.75,-2.31,-0.38,-0.38,-0.38
324.35,1.60,1.60,1.98,1.98,-1.98,-1.72,-2.24,-0.38,-0.37,-0.37
327.59,1.55,1.55,1.92,1.92,-1.92,-1.68,-2.16,-0.37,-0.37,-0.37
330.87,1.50,1.50,1.87,1.87,-1.87,-1.64,-2.09,-0.37,-0.37,-0.37
334.18,1.45,1.45,1.82,1.82,-1.82,-1.60,-2.02,-0.37,-0.37,-0.36
337.52,1.40,1.40,1.77,1.77,-1.76,-1.57,-1.96,-0.36,-0.36,-0.37
340.90,1.35,1.35,1.71,1.71,-1.71,-1.53,-1.89,-0.36,-0.36,-0.36
344.30,1.30,1.30,1.66,1.66,-1.66,-1.50,-1.82,-0.36,-0.36,-0.36
347.75,1.25,1.25,1.60,1.60,-1.61,-1.46,-1.76,-0.35,-0.35,-0.35
351.23,1.20,1.20,1.55,1.55,-1.55,-1.43,-1.69,-0.35,-0.35,-0.35
354.74,1.16,1.16,1.50,1.50,-1.50,-1.39,-1.63,-0.34,-0.34,-0.34
358.28,1.11,1.12,1.45,1.45,-1.45,-1.36,-1.57,-0.34,-0.33,-0.34
361.87,1.07,1.07,1.40,1.40,-1.40,-1.33,-1.51,-0.33,-0.33,-0.33
365.49,1.03,1.03,1.36,1.35,-1.35,-1.30,-1.45,-0.32,-0.33,-0.32
369.14,0.98,0.99,1.31,1.31,-1.31,-1.27,-1.39,-0.33,-0.32,-0.33
372.83,0.94,0.95,1.25,1.26,-1.26,-1.23,-1.34,-0.32,-0.32,-0.31
376.56,0.91,0.91,1.22,1.22,-1.22,-1.20,-1.28,-0.31,-0.31,-0.31
380.33,0.87,0.87,1.18,1.18,-1.18,-1.17,-1.23,-0.30,-0.30,-0.30
384.13,0.83,0.84,1.14,1.14,-1.13,-1.14,-1.18,-0.30,-0.30,-0.31
387.97,0.80,0.80,1.10,1.10,-1.09,-1.11,-1.13,-0.29,-0.29,-0.30
391.85,0.77,0.77,1.05,1.05,-1.06,-1.08,-1.07,-0.28,-0.29,-0.28
395.77,0.73,0.74,1.01,1.01,-1.02,-1.06,-1.03,-0.29,-0.28,-0.28
399.73,0.70,0.71,0.98,0.98,-0.98,-1.03,-0.98,-0.28,-0.28,-0.27
403.72,0.68,0.68,0.95,0.95,-0.95,-1.00,-0.93,-0.27,-0.27,-0.27
407.76,0.65,0.65,0.92,0.92,-0.92,-0.97,-0.88,-0.27,-0.26,-0.27
411.84,0.63,0.63,0.89,0.89,-0.89,-0.94,-0.84,-0.26,-0.26,-0.26
415.96,0.60,0.60,0.85,0.86,-0.86,-0.92,-0.79,-0.26,-0.25,-0.25
420.12,0.58,0.58,0.84,0.83,-0.83,-0.89,-0.75,-0.25,-0.25,-0.25
424.32,0.56,0.56,0.81,0.80,-0.81,-0.86,-0.71,-0.24,-0.24,-0.24
428.56,0.54,0.54,0.78,0.78,-0.78,-0.84,-0.67,-0.24,-0.24,-0.24
432.85,0.52,0.52,0.75,0.75,-0.75,-0.81,-0.63,-0.23,-0.23,-0.23
437.18,0.50,0.50,0.73,0.73,-0.73,-0.79,-0.59,-0.22,-0.22,-0.23
441.55,0.48,0.48,0.70,0.70,-0.70,-0.76,-0.55,-0.22,-0.22,-0.22
445.96,0.47,0.47,0.68,0.68,-0.68,-0.74,-0.52,-0.20,-0.21,-0.21
450.42,0.45,0.45,0.65,0.65,-0.65,-0.71,-0.48,-0.20,-0.20,-0.19
454.93,0.44,0.44,0.63,0.62,-0.63,-0.69,-0.45,-0.19,-0.19,-0.18
459.48,0.42,0.43,0.60,0.60,-0.61,-0.66,-0.41,-0.18,-0.18,-0.18
464.07,0.41,0.41,0.59,0.59,-0.59,-0.64,-0.38,-0.17,-0.17,-0.18
468.71,0.40,0.40,0.57,0.57,-0.56,-0.61,-0.35,-0.16,-0.17,-0.17
473.40,0.38,0.39,0.54,0.55,-0.54,-0.59,-0.32,-0.16,-0.16,-0.16
478.13,0.37,0.37,0.52,0.52,-0.52,-0.56,-0.29,-0.15,-0.15,-0.15
482.91,0.36,0.36,0.50,0.50,-0.50,-0.54,-0.26,-0.14,-0.14,-0.14
487.74,0.34,0.35,0.47,0.48,-0.48,-0.51,-0.23,-0.13,-0.13,-0.13
492.62,0.33,0.33,0.45,0.45,-0.45,-0.49,-0.21,-0.12,-0.12,-0.12
497.55,0.31,0.32,0.43,0.43,-0.43,-0.47,-0.18,-0.12,-0.11,-0.11
502.52,0.30,0.30,0.41,0.40,-0.40,-0.44,-0.16,-0.10,-0.10,-0.10
507.55,0.29,0.29,0.38,0.38,-0.38,-0.42,-0.13,-0.09,-0.09,-0.09
512.62,0.27,0.28,0.35,0.35,-0.35,-0.39,-0.11,-0.08,-0.08,-0.08
517.75,0.26,0.26,0.33,0.33,-0.33,-0.37,-0.09,-0.07,-0.07,-0.07
522.93,0.24,0.24,0.30,0.30,-0.30,-0.34,-0.07,-0.06,-0.06,-0.06
