frequency,raw,smoothed,error,error_smoothed,equalization,parametric_eq,fixed_band_eq,equalized_raw,equalized_smoothed,target
20.00,-1.47,-1.47,-5.21,-5.20,5.15,5.45,2.53,3.68,3.68,3.73
20.20,-1.48,-1.49,-5.25,-5.25,5.25,5.47,2.60,3.77,3.77,3.76
20.40,-1.51,-1.52,-5.31,-5.31,5.35,5.50,2.68,3.83,3.83,3.79
20.61,-1.56,-1.57,-5.37,-5.39,5.43,5.52,2.75,3.87,3.87,3.81
20.81,-1.64,-1.64,-5.49,-5.48,5.51,5.54,2.83,3.87,3.87,3.84
21.02,-1.71,-1.72,-5.58,-5.58,5.58,5.56,2.91,3.86,3.86,3.87
21.23,-1.79,-1.78,-5.67,-5.67,5.63,5.59,3.00,3.84,3.85,3.88
21.44,-1.83,-1.83,-5.72,-5.72,5.68,5.60,3.09,3.85,3.85,3.89
21.66,-1.85,-1.86,-5.75,-5.75,5.73,5.62,3.17,3.87,3.87,3.90
21.87,-1.86,-1.86,-5.76,-5.76,5.76,5.64,3.27,3.89,3.89,3.90
22.09,-1.86,-1.86,-5.77,-5.77,5.78,5.66,3.36,3.91,3.91,3.91
22.31,-1.86,-1.86,-5.77,-5.77,5.78,5.68,3.46,3.92,3.92,3.91
22.54,-1.86,-1.86,-5.77,-5.77,5.79,5.69,3.55,3.93,3.93,3.91
22.76,-1.87,-1.88,-5.78,-5.78,5.79,5.71,3.66,3.92,3.92,3.91
22.99,-1.89,-1.90,-5.79,-5.79,5.80,5.72,3.76,3.91,3.91,3.90
23.22,-1.92,-1.92,-5.82,-5.81,5.81,5.73,3.87,3.89,3.89,3.89
23.45,-1.94,-1.94,-5.84,-5.83,5.82,5.74,3.97,3.88,3.88,3.89
23.69,-1.95,-1.95,-5.85,-5.85,5.84,5.75,4.09,3.88,3.88,3.89
23.92,-1.96,-1.96,-5.86,-5.86,5.85,5.76,4.20,3.89,3.89,3.89
24.16,-1.97,-1.97,-5.87,-5.87,5.87,5.77,4.31,3.90,3.90,3.90
24.40,-1.98,-1.99,-5.88,-5.88,5.89,5.78,4.43,3.91,3.91,3.90
24.65,-2.00,-2.01,-5.89,-5.90,5.91,5.79,4.55,3.91,3.91,3.89
24.89,-2.03,-2.03,-5.92,-5.92,5.93,5.79,4.67,3.90,3.90,3.89
25.14,-2.06,-2.06,-5.95,-5.95,5.95,5.80,4.79,3.89,3.89,3.89
25.39,-2.09,-2.10,-5.98,-5.98,5.97,5.80,4.92,3.87,3.87,3.89
25.65,-2.13,-2.13,-6.02,-6.01,5.98,5.80,5.04,3.85,3.85,3.89
25.91,-2.16,-2.17,-6.04,-6.05,6.00,5.81,5.16,3.83,3.83,3.87
26.16,-2.20,-2.20,-6.08,-6.08,6.01,5.81,5.29,3.81,3.81,3.87
26.43,-2.23,-2.23,-6.10,-6.10,6.02,5.81,5.41,3.79,3.79,3.87
26.69,-2.24,-2.25,-6.11,-6.12,6.02,5.80,5.53,3.77,3.77,3.87
26.96,-2.24,-2.24,-6.11,-6.11,6.00,5.80,5.65,3.76,3.76,3.87
27.23,-2.22,-2.22,-6.09,-6.08,5.98,5.80,5.77,3.76,3.77,3.87
27.50,-2.16,-2.16,-6.03,-6.03,5.95,5.79,5.89,3.79,3.79,3.87
27.77,-2.09,-2.09,-5.95,-5.95,5.91,5.79,5.99,3.82,3.82,3.86
28.05,-2.01,-2.02,-5.87,-5.87,5.87,5.78,6.10,3.85,3.85,3.85
28.33,-1.94,-1.95,-5.79,-5.79,5.82,5.77,6.20,3.88,3.87,3.84
28.62,-1.89,-1.89,-5.74,-5.73,5.77,5.76,6.30,3.88,3.88,3.84
28.90,-1.85,-1.86,-5.69,-5.69,5.73,5.75,6.39,3.87,3.87,3.84
29.19,-1.83,-1.83,-5.66,-5.67,5.68,5.74,6.47,3.85,3.85,3.83
29.48,-1.81,-1.81,-5.65,-5.64,5.63,5.73,6.54,3.82,3.82,3.84
29.78,-1.79,-1.79,-5.62,-5.62,5.60,5.72,6.61,3.80,3.81,3.82
30.08,-1.76,-1.76,-5.59,-5.58,5.56,5.70,6.66,3.80,3.80,3.82
30.38,-1.72,-1.72,-5.53,-5.53,5.53,5.69,6.71,3.80,3.81,3.81
30.68,-1.67,-1.68,-5.48,-5.48,5.49,5.67,6.74,3.81,3.81,3.81
30.99,-1.63,-1.63,-5.43,-5.43,5.44,5.66,6.77,3.81,3.81,3.80
31.30,-1.59,-1.59,-5.39,-5.39,5.39,5.64,6.78,3.80,3.80,3.79
31.61,-1.55,-1.56,-5.35,-5.34,5.34,5.62,6.79,3.79,3.79,3.79
31.93,-1.52,-1.52,-5.30,-5.30,5.29,5.60,6.78,3.76,3.77,3.78
32.24,-1.47,-1.47,-5.24,-5.25,5.23,5.58,6.76,3.76,3.76,3.77
32.57,-1.43,-1.43,-5.20,-5.19,5.18,5.56,6.73,3.75,3.75,3.76
32.89,-1.37,-1.38,-5.14,-5.14,5.13,5.53,6.70,3.76,3.76,3.76
33.22,-1.33,-1.33,-5.08,-5.08,5.09,5.51,6.65,3.76,3.76,3.75
33.55,-1.29,-1.29,-5.04,-5.04,5.05,5.49,6.60,3.76,3.76,3.75
33.89,-1.27,-1.27,-5.01,-5.01,5.03,5.46,6.53,3.75,3.75,3.73
34.23,-1.26,-1.27,-4.99,-4.99,5.01,5.44,6.46,3.75,3.75,3.73
34.57,-1.27,-1.28,-4.99,-4.99,5.01,5.41,6.39,3.74,3.73,3.72
34.92,-1.30,-1.30,-5.01,-5.01,5.02,5.38,6.31,3.72,3.72,3.70
35.27,-1.33,-1.34,-5.03,-5.03,5.03,5.36,6.22,3.70,3.70,3.70
35.62,-1.37,-1.37,-5.06,-5.06,5.05,5.33,6.13,3.68,3.68,3.69
35.97,-1.40,-1.40,-5.08,-5.08,5.06,5.30,6.04,3.66,3.66,3.67
36.33,-1.42,-1.43,-5.09,-5.09,5.07,5.27,5.94,3.65,3.65,3.67
36.70,-1.44,-1.44,-5.10,-5.10,5.08,5.24,5.85,3.64,3.64,3.66
37.06,-1.44,-1.44,-5.09,-5.09,5.08,5.21,5.75,3.63,3.64,3.64
37.43,-1.43,-1.43,-5.07,-5.07,5.07,5.18,5.65,3.63,3.63,3.64
37.81,-1.42,-1.43,-5.05,-5.05,5.05,5.14,5.55,3.63,3.62,3.62
38.19,-1.42,-1.42,-5.03,-5.04,5.03,5.11,5.45,3.61,3.61,3.61
38.57,-1.42,-1.42,-5.03,-5.02,5.02,5.08,5.35,3.60,3.60,3.60
38.95,-1.42,-1.42,-5.01,-5.01,5.02,5.04,5.26,3.59,3.60,3.59
39.34,-1.42,-1.42,-5.00,-5.00,5.02,5.01,5.16,3.60,3.60,3.57
39.74,-1.43,-1.44,-4.99,-5.00,5.03,4.98,5.07,3.60,3.59,3.56
40.14,-1.47,-1.47,-5.03,-5.03,5.05,4.94,4.98,3.58,3.58,3.55
40.54,-1.52,-1.53,-5.06,-5.07,5.07,4.91,4.89,3.55,3.55,3.54
40.94,-1.58,-1.58,-5.12,-5.11,5.09,4.87,4.81,3.51,3.51,3.53
41.35,-1.63,-1.63,-5.15,-5.15,5.10,4.83,4.72,3.47,3.48,3.52
41.76,-1.65,-1.65,-5.16,-5.16,5.12,4.80,4.64,3.46,3.47,3.51
42.18,-1.64,-1.64,-5.15,-5.14,5.13,4.76,4.57,3.48,3.49,3.50
42.60,-1.62,-1.62,-5.11,-5.11,5.13,4.72,4.49,3.51,3.51,3.49
43.03,-1.59,-1.61,-5.07,-5.08,5.13,4.68,4.42,3.54,3.52,3.48
43.46,-1.61,-1.62,-5.08,-5.08,5.12,4.65,4.36,3.50,3.50,3.46
43.90,-1.64,-1.65,-5.08,-5.09,5.09,4.61,4.29,3.45,3.45,3.44
44.33,-1.68,-1.68,-5.10,-5.09,5.06,4.57,4.23,3.38,3.39,3.42
44.78,-1.68,-1.68,-5.08,-5.08,5.03,4.53,4.17,3.34,3.35,3.40
45.23,-1.65,-1.64,-5.03,-5.02,4.99,4.49,4.12,3.33,3.35,3.38
45.68,-1.57,-1.57,-4.94,-4.94,4.94,4.45,4.07,3.37,3.37,3.36
46.13,-1.48,-1.50,-4.83,-4.85,4.88,4.41,4.02,3.40,3.38,3.34
46.60,-1.43,-1.44,-4.77,-4.77,4.81,4.37,3.98,3.37,3.37,3.33
47.06,-1.39,-1.40,-4.71,-4.71,4.72,4.34,3.93,3.32,3.32,3.31
47.53,-1.36,-1.35,-4.66,-4.65,4.62,4.30,3.89,3.26,3.27,3.29
48.01,-1.28,-1.28,-4.57,-4.56,4.52,4.26,3.86,3.23,3.24,3.28
48.49,-1.18,-1.19,-4.44,-4.44,4.41,4.22,3.83,3.23,3.23,3.25
48.97,-1.08,-1.08,-4.31,-4.31,4.31,4.18,3.79,3.23,3.23,3.22
49.46,-0.98,-0.99,-4.17,-4.18,4.20,4.13,3.77,3.22,3.21,3.19
49.96,-0.91,-0.91,-4.07,-4.08,4.10,4.09,3.74,3.18,3.18,3.16
50.46,-0.85,-0.85,-4.00,-3.99,4.00,4.05,3.72,3.15,3.15,3.15
50.96,-0.79,-0.79,-3.92,-3.91,3.92,4.01,3.69,3.12,3.13,3.12
51.47,-0.74,-0.75,-3.83,-3.84,3.86,3.97,3.68,3.11,3.11,3.09
51.99,-0.71,-0.72,-3.78,-3.79,3.81,3.93,3.66,3.10,3.10,3.07
52.51,-0.71,-0.71,-3.77,-3.76,3.79,3.89,3.64,3.08,3.08,3.05
53.03,-0.72,-0.73,-3.75,-3.76,3.77,3.85,3.62,3.05,3.04,3.03
53.56,-0.77,-0.77,-3.78,-3.77,3.76,3.81,3.61,2.99,3.00,3.00
54.10,-0.80,-0.80,-3.78,-3.78,3.76,3.77,3.60,2.96,2.96,2.98
54.64,-0.82,-0.82,-3.78,-3.78,3.75,3.73,3.58,2.93,2.93,2.95
55.18,-0.83,-0.83,-3.76,-3.76,3.74,3.69,3.57,2.91,2.91,2.93
55.74,-0.83,-0.83,-3.73,-3.73,3.72,3.65,3.56,2.89,2.89,2.90
56.29,-0.81,-0.82,-3.70,-3.70,3.69,3.61,3.54,2.88,2.87,2.88
56.86,-0.80,-0.80,-3.66,-3.65,3.65,3.56,3.53,2.85,2.85,2.85
57.42,-0.78,-0.78,-3.61,-3.61,3.61,3.52,3.51,2.83,2.83,2.83
58.00,-0.75,-0.76,-3.56,-3.56,3.57,3.48,3.50,2.82,2.81,2.81
58.58,-0.73,-0.74,-3.52,-3.52,3.53,3.44,3.48,2.80,2.79,2.79
59.16,-0.72,-0.72,-3.49,-3.49,3.49,3.40,3.46,2.77,2.77,2.77
59.76,-0.71,-0.71,-3.46,-3.46,3.46,3.36,3.44,2.75,2.75,2.75
60.35,-0.71,-0.71,-3.43,-3.43,3.44,3.32,3.42,2.72,2.72,2.71
60.96,-0.72,-0.72,-3.41,-3.41,3.42,3.28,3.39,2.70,2.69,2.69
61.57,-0.74,-0.74,-3.39,-3.39,3.40,3.24,3.36,2.66,2.66,2.65
62.18,-0.76,-0.76,-3.38,-3.38,3.39,3.20,3.33,2.63,2.63,2.61
62.80,-0.78,-0.79,-3.37,-3.37,3.38,3.16,3.30,2.60,2.60,2.59
63.43,-0.80,-0.80,-3.36,-3.36,3.36,3.12,3.27,2.56,2.56,2.55
64.07,-0.81,-0.81,-3.34,-3.34,3.33,3.08,3.23,2.52,2.52,2.53
64.71,-0.80,-0.80,-3.30,-3.30,3.28,3.04,3.19,2.48,2.48,2.50
65.35,-0.76,-0.77,-3.24,-3.25,3.21,3.00,3.15,2.45,2.44,2.47
66.01,-0.72,-0.71,-3.17,-3.16,3.12,2.95,3.11,2.40,2.41,2.45
66.67,-0.62,-0.62,-3.04,-3.04,3.00,2.91,3.06,2.38,2.38,2.42
67.33,-0.50,-0.51,-2.89,-2.89,2.87,2.87,3.01,2.37,2.37,2.39
68.01,-0.37,-0.37,-2.73,-2.73,2.73,2.83,2.96,2.36,2.36,2.36
68.69,-0.24,-0.24,-2.57,-2.57,2.59,2.79,2.91,2.35,2.35,2.33
69.37,-0.13,-0.13,-2.43,-2.42,2.46,2.75,2.86,2.32,2.33,2.29
70.07,-0.02,-0.03,-2.28,-2.30,2.33,2.71,2.81,2.31,2.30,2.26
70.77,0.04,0.04,-2.20,-2.20,2.23,2.67,2.75,2.27,2.27,2.24
71.48,0.08,0.07,-2.13,-2.13,2.15,2.63,2.70,2.22,2.22,2.20
72.19,0.09,0.09,-2.08,-2.08,2.08,2.59,2.64,2.17,2.17,2.17
72.91,0.09,0.09,-2.04,-2.04,2.03,2.55,2.58,2.12,2.12,2.13
73.64,0.09,0.09,-2.01,-2.01,1.99,2.51,2.53,2.08,2.08,2.09
74.38,0.09,0.09,-1.98,-1.98,1.97,2.47,2.47,2.05,2.05,2.07
75.12,0.08,0.08,-1.95,-1.95,1.94,2.43,2.41,2.02,2.03,2.03
75.87,0.08,0.07,-1.92,-1.93,1.93,2.39,2.35,2.00,2.00,2.00
76.63,0.06,0.06,-1.91,-1.91,1.92,2.35,2.30,1.97,1.97,1.97
77.40,0.04,0.04,-1.90,-1.90,1.91,2.31,2.24,1.94,1.94,1.94
78.17,0.01,0.01,-1.89,-1.90,1.90,2.27,2.19,1.91,1.91,1.90
78.95,-0.02,-0.03,-1.90,-1.90,1.90,2.23,2.13,1.88,1.88,1.87
79.74,-0.06,-0.06,-1.90,-1.90,1.90,2.19,2.08,1.84,1.84,1.84
80.54,-0.10,-0.10,-1.91,-1.91,1.90,2.15,2.02,1.80,1.80,1.81
81.35,-0.14,-0.14,-1.91,-1.91,1.90,2.11,1.97,1.76,1.76,1.77
82.16,-0.16,-0.17,-1.90,-1.90,1.89,2.07,1.92,1.73,1.72,1.74
82.98,-0.18,-0.18,-1.89,-1.89,1.87,2.03,1.87,1.69,1.69,1.71
83.81,-0.19,-0.19,-1.86,-1.86,1.85,1.99,1.82,1.65,1.66,1.66
84.65,-0.19,-0.19,-1.82,-1.82,1.82,1.95,1.77,1.62,1.62,1.62
85.50,-0.18,-0.19,-1.78,-1.78,1.78,1.91,1.73,1.60,1.60,1.60
86.35,-0.18,-0.18,-1.74,-1.74,1.75,1.87,1.68,1.56,1.57,1.56
87.22,-0.18,-0.18,-1.70,-1.70,1.71,1.83,1.64,1.53,1.53,1.52
88.09,-0.19,-0.19,-1.67,-1.68,1.69,1.79,1.59,1.49,1.49,1.48
88.97,-0.21,-0.21,-1.66,-1.65,1.66,1.75,1.55,1.45,1.45,1.45
89.86,-0.23,-0.23,-1.64,-1.64,1.64,1.71,1.51,1.41,1.40,1.40
90.76,-0.26,-0.26,-1.61,-1.62,1.62,1.67,1.47,1.36,1.36,1.35
91.66,-0.29,-0.29,-1.61,-1.61,1.60,1.63,1.43,1.31,1.31,1.32
92.58,-0.32,-0.32,-1.59,-1.59,1.59,1.59,1.39,1.26,1.27,1.27
93.51,-0.34,-0.34,-1.58,-1.58,1.57,1.56,1.36,1.22,1.22,1.23
94.44,-0.36,-0.36,-1.55,-1.55,1.55,1.52,1.32,1.18,1.18,1.19
95.39,-0.38,-0.38,-1.53,-1.52,1.52,1.48,1.29,1.14,1.14,1.14
96.34,-0.40,-0.40,-1.49,-1.50,1.50,1.44,1.26,1.09,1.09,1.09
97.30,-0.42,-0.42,-1.47,-1.47,1.47,1.40,1.22,1.05,1.05,1.04
98.28,-0.44,-0.44,-1.44,-1.44,1.44,1.36,1.19,1.00,1.00,1.00
99.26,-0.45,-0.46,-1.41,-1.41,1.41,1.32,1.16,0.96,0.95,0.95
100.25,-0.47,-0.47,-1.38,-1.38,1.38,1.28,1.13,0.91,0.91,0.91
101.25,-0.49,-0.49,-1.35,-1.35,1.35,1.24,1.10,0.85,0.86,0.86
102.27,-0.50,-0.50,-1.32,-1.32,1.31,1.20,1.07,0.81,0.81,0.82
103.29,-0.51,-0.51,-1.27,-1.28,1.28,1.16,1.05,0.77,0.77,0.76
104.32,-0.52,-0.52,-1.25,-1.24,1.24,1.12,1.02,0.72,0.72,0.72
105.37,-0.53,-0.53,-1.21,-1.21,1.21,1.09,0.99,0.68,0.68,0.68
106.42,-0.54,-0.54,-1.17,-1.17,1.18,1.05,0.97,0.63,0.63,0.63
107.48,-0.55,-0.56,-1.14,-1.14,1.14,1.01,0.94,0.59,0.59,0.58
108.56,-0.57,-0.57,-1.10,-1.10,1.11,0.97,0.92,0.53,0.54,0.53
109.64,-0.58,-0.59,-1.06,-1.07,1.07,0.93,0.89,0.49,0.48,0.48
110.74,-0.60,-0.60,-1.04,-1.04,1.03,0.89,0.87,0.43,0.43,0.44
111.85,-0.61,-0.61,-1.00,-1.00,0.99,0.86,0.84,0.37,0.37,0.39
112.97,-0.62,-0.62,-0.95,-0.95,0.94,0.82,0.82,0.32,0.32,0.32
114.10,-0.62,-0.62,-0.90,-0.90,0.90,0.78,0.79,0.27,0.27,0.28
115.24,-0.62,-0.62,-0.85,-0.85,0.85,0.74,0.77,0.23,0.23,0.22
116.39,-0.62,-0.63,-0.79,-0.79,0.81,0.71,0.74,0.18,0.18,0.17
117.55,-0.63,-0.63,-0.75,-0.75,0.76,0.67,0.72,0.13,0.13,0.12
118.73,-0.64,-0.65,-0.70,-0.71,0.72,0.63,0.70,0.07,0.07,0.06
119.92,-0.66,-0.66,-0.68,-0.67,0.67,0.60,0.67,0.01,0.01,0.02
121.12,-0.67,-0.67,-0.64,-0.64,0.63,0.56,0.64,-0.04,-0.04,-0.03
122.33,-0.68,-0.68,-0.60,-0.60,0.59,0.52,0.62,-0.09,-0.09,-0.09
123.55,-0.68,-0.68,-0.55,-0.55,0.55,0.49,0.59,-0.14,-0.14,-0.13
124.79,-0.68,-0.68,-0.50,-0.50,0.50,0.45,0.57,-0.18,-0.18,-0.18
126.03,-0.68,-0.69,-0.45,-0.46,0.46,0.41,0.54,-0.22,-0.23,-0.23
127.29,-0.69,-0.69,-0.41,-0.41,0.42,0.38,0.51,-0.28,-0.28,-0.28
128.57,-0.70,-0.70,-0.36,-0.37,0.37,0.34,0.48,-0.33,-0.33,-0.34
129.85,-0.71,-0.71,-0.33,-0.33,0.33,0.31,0.46,-0.39,-0.39,-0.39
131.15,-0.72,-0.72,-0.29,-0.29,0.28,0.27,0.43,-0.44,-0.44,-0.44
132.46,-0.73,-0.73,-0.25,-0.25,0.24,0.24,0.40,-0.49,-0.49,-0.48
133.79,-0.73,-0.73,-0.21,-0.21,0.21,0.20,0.37,-0.53,-0.53,-0.52
135.12,-0.73,-0.74,-0.16,-0.17,0.17,0.17,0.34,-0.56,-0.57,-0.58
136.48,-0.74,-0.74,-0.13,-0.13,0.14,0.13,0.30,-0.61,-0.61,-0.61
137.84,-0.75,-0.76,-0.10,-0.09,0.10,0.10,0.27,-0.65,-0.65,-0.66
139.22,-0.77,-0.77,-0.06,-0.07,0.07,0.06,0.24,-0.71,-0.70,-0.71
140.61,-0.78,-0.78,-0.03,-0.04,0.04,0.03,0.21,-0.75,-0.75,-0.75
142.02,-0.79,-0.79,-0.02,-0.01,0.00,-0.01,0.17,-0.79,-0.79,-0.77
143.44,-0.79,-0.79,0.02,0.02,-0.03,-0.04,0.14,-0.82,-0.82,-0.81
144.87,-0.79,-0.79,0.06,0.06,-0.06,-0.07,0.11,-0.85,-0.85,-0.86
146.32,-0.79,-0.79,0.10,0.10,-0.09,-0.11,0.07,-0.88,-0.88,-0.89
147.78,-0.79,-0.80,0.13,0.13,-0.13,-0.14,0.04,-0.92,-0.92,-0.92
149.26,-0.80,-0.80,0.16,0.16,-0.17,-0.17,-0.00,-0.97,-0.97,-0.96
150.75,-0.80,-0.80,0.21,0.20,-0.21,-0.21,-0.04,-1.01,-1.02,-1.01
152.26,-0.80,-0.80,0.24,0.25,-0.26,-0.24,-0.07,-1.06,-1.06,-1.05
153.78,-0.78,-0.78,0.30,0.30,-0.31,-0.27,-0.11,-1.10,-1.10,-1.08
155.32,-0.76,-0.76,0.36,0.36,-0.37,-0.31,-0.15,-1.13,-1.13,-1.13
156.88,-0.73,-0.73,0.43,0.43,-0.42,-0.34,-0.19,-1.15,-1.15,-1.16
158.44,-0.71,-0.72,0.49,0.49,-0.47,-0.37,-0.22,-1.18,-1.19,-1.20
160.03,-0.70,-0.71,0.54,0.54,-0.52,-0.40,-0.26,-1.22,-1.23,-1.24
161.63,-0.71,-0.71,0.57,0.58,-0.57,-0.44,-0.30,-1.28,-1.28,-1.29
163.24,-0.71,-0.71,0.61,0.61,-0.61,-0.47,-0.34,-1.33,-1.33,-1.33
164.88,-0.71,-0.71,0.64,0.65,-0.65,-0.50,-0.38,-1.37,-1.37,-1.36
166.53,-0.71,-0.71,0.68,0.68,-0.69,-0.53,-0.43,-1.40,-1.40,-1.40
168.19,-0.71,-0.71,0.72,0.72,-0.72,-0.56,-0.47,-1.44,-1.43,-1.43
169.87,-0.71,-0.71,0.76,0.76,-0.75,-0.59,-0.51,-1.47,-1.47,-1.47
171.57,-0.71,-0.72,0.80,0.79,-0.79,-0.63,-0.55,-1.50,-1.50,-1.51
173.29,-0.72,-0.72,0.82,0.82,-0.82,-0.66,-0.60,-1.54,-1.54,-1.54
175.02,-0.73,-0.73,0.85,0.85,-0.85,-0.69,-0.64,-1.58,-1.58,-1.58
176.77,-0.74,-0.74,0.88,0.88,-0.88,-0.72,-0.68,-1.63,-1.63,-1.62
178.54,-0.75,-0.75,0.92,0.91,-0.92,-0.75,-0.73,-1.67,-1.67,-1.67
180.32,-0.75,-0.75,0.95,0.95,-0.95,-0.78,-0.78,-1.71,-1.71,-1.70
182.13,-0.75,-0.76,0.98,0.98,-0.99,-0.81,-0.82,-1.74,-1.75,-1.73
183.95,-0.75,-0.75,1.02,1.02,-1.03,-0.84,-0.87,-1.78,-1.78,-1.78
185.79,-0.74,-0.74,1.06,1.07,-1.07,-0.87,-0.92,-1.82,-1.81,-1.81
187.65,-0.72,-0.73,1.13,1.12,-1.11,-0.90,-0.97,-1.84,-1.84,-1.85
189.52,-0.71,-0.71,1.17,1.16,-1.16,-0.93,-1.01,-1.87,-1.87,-1.88
191.42,-0.70,-0.71,1.21,1.20,-1.20,-0.96,-1.06,-1.90,-1.91,-1.91
193.33,-0.70,-0.70,1.23,1.24,-1.24,-0.99,-1.11,-1.94,-1.94,-1.94
195.27,-0.69,-0.69,1.27,1.28,-1.28,-1.02,-1.16,-1.97,-1.97,-1.97
197.22,-0.68,-0.68,1.31,1.31,-1.31,-1.05,-1.21,-1.99,-1.99,-1.99
199.19,-0.67,-0.68,1.36,1.35,-1.34,-1.08,-1.26,-2.02,-2.02,-2.03
201.18,-0.67,-0.67,1.37,1.38,-1.37,-1.11,-1.31,-2.04,-2.04,-2.05
203.19,-0.67,-0.67,1.39,1.40,-1.40,-1.14,-1.36,-2.07,-2.07,-2.06
205.23,-0.66,-0.66,1.43,1.42,-1.42,-1.17,-1.41,-2.09,-2.09,-2.09
207.28,-0.65,-0.65,1.44,1.45,-1.45,-1.20,-1.46,-2.10,-2.10,-2.09
209.35,-0.64,-0.65,1.48,1.47,-1.47,-1.23,-1.51,-2.12,-2.12,-2.12
211.44,-0.64,-0.64,1.50,1.49,-1.50,-1.26,-1.56,-2.14,-2.14,-2.14
213.56,-0.63,-0.63,1.51,1.51,-1.52,-1.29,-1.61,-2.15,-2.15,-2.15
215.69,-0.62,-0.62,1.53,1.53,-1.54,-1.31,-1.66,-2.16,-2.16,-2.15
217.85,-0.60,-0.61,1.56,1.56,-1.56,-1.34,-1.70,-2.16,-2.16,-2.16
220.03,-0.59,-0.59,1.58,1.58,-1.57,-1.37,-1.75,-2.17,-2.17,-2.17
222.23,-0.58,-0.58,1.60,1.60,-1.59,-1.40,-1.79,-2.17,-2.17,-2.19
224.45,-0.57,-0.58,1.60,1.61,-1.60,-1.43,-1.83,-2.17,-2.18,-2.18
226.70,-0.57,-0.57,1.61,1.61,-1.61,-1.45,-1.87,-2.19,-2.18,-2.18
228.96,-0.56,-0.56,1.62,1.61,-1.62,-1.48,-1.91,-2.18,-2.18,-2.18
231.25,-0.55,-0.55,1.62,1.62,-1.63,-1.51,-1.94,-2.18,-2.18,-2.17
233.57,-0.53,-0.54,1.64,1.64,-1.64,-1.54,-1.98,-2.17,-2.17,-2.17
235.90,-0.52,-0.52,1.65,1.65,-1.64,-1.56,-2.01,-2.16,-2.16,-2.17
238.26,-0.51,-0.51,1.66,1.65,-1.65,-1.59,-2.03,-2.16,-2.16,-2.17
240.64,-0.50,-0.50,1.66,1.66,-1.65,-1.61,-2.06,-2.16,-2.16,-2.16
243.05,-0.49,-0.49,1.65,1.66,-1.66,-1.64,-2.08,-2.15,-2.15,-2.15
245.48,-0.47,-0.47,1.66,1.66,-1.67,-1.67,-2.10,-2.14,-2.14,-2.14
247.93,-0.45,-0.45,1.67,1.67,-1.68,-1.69,-2.11,-2.13,-2.13,-2.12
250.41,-0.43,-0.43,1.69,1.68,-1.68,-1.72,-2.12,-2.12,-2.12,-2.12
252.92,-0.41,-0.41,1.69,1.69,-1.69,-1.74,-2.13,-2.10,-2.10,-2.10
255.45,-0.38,-0.39,1.69,1.70,-1.69,-1.76,-2.13,-2.08,-2.08,-2.08
258.00,-0.36,-0.36,1.70,1.70,-1.70,-1.79,-2.13,-2.06,-2.06,-2.06
260.58,-0.34,-0.34,1.71,1.71,-1.70,-1.81,-2.13,-2.04,-2.04,-2.05
263.19,-0.32,-0.33,1.70,1.70,-1.69,-1.83,-2.13,-2.02,-2.02,-2.03
265.82,-0.31,-0.32,1.70,1.69,-1.69,-1.86,-2.12,-2.00,-2.01,-2.01
268.48,-0.31,-0.31,1.68,1.68,-1.68,-1.88,-2.11,-2.00,-1.99,-1.99
271.16,-0.29,-0.30,1.67,1.67,-1.68,-1.90,-2.09,-1.97,-1.97,-1.97
273.87,-0.28,-0.28,1.67,1.66,-1.67,-1.92,-2.08,-1.95,-1.95,-1.95
276.61,-0.26,-0.27,1.66,1.66,-1.67,-1.94,-2.06,-1.93,-1.93,-1.93
279.38,-0.25,-0.25,1.66,1.66,-1.67,-1.96,-2.04,-1.92,-1.92,-1.91
282.17,-0.23,-0.23,1.66,1.66,-1.67,-1.98,-2.02,-1.90,-1.90,-1.90
284.99,-0.20,-0.20,1.67,1.67,-1.67,-2.00,-2.00,-1.88,-1.88,-1.87
287.84,-0.17,-0.17,1.68,1.68,-1.68,-2.02,-1.97,-1.85,-1.85,-1.86
290.72,-0.14,-0.14,1.69,1.69,-1.68,-2.04,-1.95,-1.83,-1.83,-1.83
293.63,-0.11,-0.12,1.70,1.70,-1.69,-2.05,-1.92,-1.80,-1.81,-1.82
296.57,-0.09,-0.09,1.70,1.70,-1.70,-2.07,-1.89,-1.79,-1.79,-1.79
299.53,-0.07,-0.07,1.70,1.70,-1.70,-2.08,-1.87,-1.77,-1.77,-1.77
302.53,-0.04,-0.05,1.71,1.70,-1.71,-2.10,-1.84,-1.75,-1.75,-1.76
305.55,-0.02,-0.02,1.70,1.71,-1.71,-2.11,-1.81,-1.73,-1.73,-1.72
308.61,0.02,0.01,1.72,1.72,-1.72,-2.13,-1.79,-1.70,-1.70,-1.70
311.69,0.05,0.05,1.73,1.72,-1.73,-2.14,-1.76,-1.68,-1.68,-1.68
314.81,0.09,0.08,1.73,1.73,-1.74,-2.15,-1.74,-1.65,-1.65,-1.64
317.96,0.12,0.12,1.74,1.74,-1.75,-2.17,-1.71,-1.63,-1.63,-1.63
321.14,0.15,0.15,1.76,1.76,-1.76,-2.18,-1.69,-1.61,-1.61,-1.61
324.35,0.19,0.19,1.78,1.77,-1.77,-2.19,-1.66,-1.59,-1.59,-1.59
327.59,0.23,0.22,1.79,1.79,-1.78,-2.20,-1.64,-1.56,-1.56,-1.56
330.87,0.26,0.26,1.80,1.81,-1.80,-2.20,-1.62,-1.54,-1.54,-1.55
334.18,0.29,0.28,1.82,1.81,-1.81,-2.21,-1.60,-1.52,-1.52,-1.53
337.52,0.31,0.31,1.82,1.82,-1.82,-2.22,-1.58,-1.51,-1.51,-1.51
340.90,0.34,0.34,1.82,1.83,-1.83,-2.22,-1.56,-1.50,-1.49,-1.48
344.30,0.38,0.37,1.84,1.84,-1.85,-2.23,-1.54,-1.47,-1.48,-1.47
347.75,0.41,0.41,1.86,1.86,-1.86,-2.23,-1.52,-1.46,-1.46,-1.45
351.23,0.45,0.45,1.88,1.88,-1.88,-2.24,-1.51,-1.44,-1.44,-1.43
354.74,0.49,0.49,1.90,1.90,-1.90,-2.24,-1.50,-1.42,-1.41,-1.41
358.28,0.54,0.54,1.93,1.93,-1.93,-2.24,-1.48,-1.39,-1.39,-1.40
361.87,0.59,0.58,1.97,1.96,-1.96,-2.24,-1.47,-1.37,-1.37,-1.38
365.49,0.63,0.62,1.99,1.99,-1.99,-2.24,-1.46,-1.36,-1.36,-1.36
369.14,0.66,0.66,2.01,2.01,-2.01,-2.24,-1.45,-1.36,-1.35,-1.35
372.83,0.71,0.70,2.04,2.04,-2.04,-2.23,-1.44,-1.34,-1.34,-1.33
376.56,0.75,0.75,2.07,2.07,-2.07,-2.23,-1.44,-1.33,-1.32,-1.33
380.33,0.81,0.80,2.10,2.11,-2.10,-2.23,-1.43,-1.29,-1.30,-1.30
384.13,0.85,0.85,2.14,2.14,-2.13,-2.22,-1.43,-1.28,-1.29,-1.29
387.97,0.89,0.89,2.17,2.16,-2.16,-2.21,-1.42,-1.27,-1.28,-1.28
391.85,0.92,0.92,2.19,2.19,-2.19,-2.20,-1.42,-1.27,-1.27,-1.27
395.77,0.96,0.96,2.21,2.21,-2.22,-2.19,-1.42,-1.26,-1.26,-1.25
399.73,1.00,1.00,2.24,2.25,-2.25,-2.18,-1.42,-1.25,-1.25,-1.24
403.72,1.05,1.05,2.28,2.28,-2.28,-2.17,-1.42,-1.23,-1.23,-1.24
407.76,1.10,1.09,2.32,2.31,-2.31,-2.16,-1.42,-1.21,-1.22,-1.23
411.84,1.13,1.13,2.34,2.34,-2.34,-2.15,-1.42,-1.21,-1.21,-1.21
415.96,1.17,1.17,2.37,2.37,-2.37,-2.13,-1.42,-1.20,-1.20,-1.20
420.12,1.21,1.20,2.40,2.39,-2.40,-2.11,-1.42,-1.19,-1.20,-1.19
424.32,1.24,1.24,2.42,2.42,-2.43,-2.10,-1.43,-1.19,-1.19,-1.18
428.56,1.28,1.27,2.45,2.45,-2.45,-2.08,-1.43,-1.17,-1.18,-1.17
432.85,1.31,1.31,2.47,2.47,-2.47,-2.06,-1.43,-1.16,-1.16,-1.16
437.18,1.34,1.34,2.49,2.49,-2.49,-2.03,-1.43,-1.15,-1.15,-1.16
441.55,1.37,1.37,2.50,2.51,-2.50,-2.01,-1.43,-1.13,-1.13,-1.14
445.96,1.39,1.38,2.51,2.51,-2.50,-1.99,-1.44,-1.11,-1.12,-1.13
450.42,1.39,1.38,2.51,2.50,-2.50,-1.96,-1.44,-1.12,-1.12,-1.12
454.93,1.38,1.39,2.48,2.49,-2.50,-1.93,-1.44,-1.12,-1.11,-1.10
459.48,1.39,1.39,2.48,2.48,-2.49,-1.90,-1.44,-1.10,-1.10,-1.09
464.07,1.40,1.39,2.47,2.46,-2.47,-1.87,-1.44,-1.08,-1.08,-1.07
468.71,1.40,1.39,2.45,2.45,-2.45,-1.83,-1.44,-1.06,-1.06,-1.05
473.40,1.38,1.38,2.42,2.42,-2.42,-1.79,-1.43,-1.05,-1.04,-1.04
478.13,1.36,1.36,2.38,2.39,-2.38,-1.75,-1.43,-1.03,-1.02,-1.02
482.91,1.34,1.33,2.35,2.34,-2.33,-1.71,-1.42,-1.00,-1.00,-1.01
