frequency,raw,smoothed,error,error_smoothed,equalization,parametric_eq,fixed_band_eq,equalized_raw,equalized_smoothed,target
20.00,-5.93,-5.94,-7.04,-7.04,6.00,6.32,2.46,0.07,0.06,1.10
20.20,-5.88,-5.88,-7.01,-7.01,6.00,6.29,2.53,0.12,0.12,1.13
20.40,-5.83,-5.83,-6.99,-6.99,6.00,6.27,2.60,0.17,0.17,1.16
20.61,-5.78,-5.78,-6.96,-6.97,6.00,6.24,2.68,0.22,0.22,1.18
20.81,-5.73,-5.73,-6.94,-6.95,6.00,6.22,2.76,0.27,0.27,1.21
21.02,-5.69,-5.70,-6.93,-6.93,6.00,6.19,2.84,0.31,0.30,1.24
21.23,-5.66,-5.66,-6.91,-6.92,6.00,6.17,2.92,0.34,0.34,1.25
21.44,-5.64,-5.64,-6.90,-6.90,6.00,6.14,3.01,0.36,0.36,1.26
21.66,-5.61,-5.61,-6.88,-6.88,6.00,6.12,3.09,0.39,0.39,1.27
21.87,-5.58,-5.58,-6.85,-6.85,6.00,6.09,3.18,0.42,0.42,1.27
22.09,-5.54,-5.54,-6.82,-6.81,6.00,6.07,3.27,0.46,0.46,1.28
22.31,-5.48,-5.48,-6.76,-6.76,6.00,6.04,3.37,0.52,0.52,1.28
22.54,-5.42,-5.42,-6.70,-6.70,6.00,6.02,3.46,0.58,0.58,1.28
22.76,-5.36,-5.36,-6.64,-6.63,6.00,5.99,3.56,0.64,0.64,1.27
22.99,-5.30,-5.31,-6.57,-6.58,6.00,5.97,3.66,0.70,0.69,1.26
23.22,-5.26,-5.26,-6.53,-6.52,6.00,5.94,3.77,0.74,0.74,1.26
23.45,-5.21,-5.21,-6.48,-6.48,6.00,5.91,3.88,0.79,0.79,1.26
23.69,-5.17,-5.17,-6.44,-6.43,6.00,5.89,3.98,0.83,0.83,1.26
23.92,-5.12,-5.12,-6.38,-6.39,6.00,5.86,4.09,0.88,0.88,1.26
24.16,-5.08,-5.08,-6.35,-6.35,6.00,5.83,4.21,0.92,0.92,1.27
24.40,-5.03,-5.03,-6.30,-6.30,6.00,5.81,4.32,0.97,0.97,1.27
24.65,-4.99,-4.99,-6.25,-6.25,6.00,5.78,4.44,1.01,1.01,1.26
24.89,-4.94,-4.95,-6.20,-6.21,6.00,5.75,4.56,1.06,1.06,1.26
25.14,-4.91,-4.91,-6.17,-6.17,6.01,5.73,4.68,1.10,1.10,1.26
25.39,-4.88,-4.88,-6.14,-6.14,6.01,5.70,4.80,1.13,1.13,1.26
25.65,-4.85,-4.86,-6.11,-6.11,6.00,5.67,4.92,1.15,1.15,1.25
25.91,-4.83,-4.83,-6.08,-6.07,5.99,5.65,5.04,1.16,1.17,1.24
26.16,-4.79,-4.79,-6.03,-6.03,5.98,5.62,5.16,1.19,1.19,1.24
26.43,-4.74,-4.74,-5.99,-5.98,5.96,5.59,5.28,1.21,1.21,1.24
26.69,-4.69,-4.69,-5.93,-5.93,5.93,5.57,5.40,1.24,1.24,1.24
26.96,-4.64,-4.65,-5.88,-5.89,5.90,5.54,5.51,1.26,1.25,1.24
27.23,-4.61,-4.61,-5.85,-5.85,5.87,5.51,5.63,1.25,1.25,1.24
27.50,-4.58,-4.58,-5.82,-5.82,5.83,5.48,5.74,1.25,1.25,1.24
27.77,-4.55,-4.56,-5.78,-5.78,5.79,5.46,5.85,1.24,1.24,1.23
28.05,-4.53,-4.53,-5.76,-5.75,5.75,5.43,5.95,1.22,1.23,1.22
28.33,-4.50,-4.50,-5.71,-5.72,5.71,5.40,6.05,1.21,1.21,1.21
28.62,-4.47,-4.48,-5.68,-5.69,5.67,5.37,6.14,1.20,1.19,1.21
28.90,-4.45,-4.44,-5.66,-5.65,5.63,5.35,6.23,1.18,1.19,1.21
29.19,-4.40,-4.40,-5.60,-5.60,5.59,5.32,6.31,1.19,1.19,1.20
29.48,-4.34,-4.34,-5.55,-5.54,5.55,5.29,6.37,1.21,1.21,1.21
29.78,-4.28,-4.29,-5.48,-5.48,5.52,5.26,6.44,1.23,1.23,1.19
30.08,-4.24,-4.25,-5.44,-5.44,5.48,5.24,6.49,1.23,1.22,1.19
30.38,-4.24,-4.25,-5.42,-5.43,5.44,5.21,6.53,1.19,1.19,1.18
30.68,-4.24,-4.24,-5.42,-5.42,5.40,5.18,6.56,1.15,1.15,1.18
30.99,-4.24,-4.23,-5.41,-5.40,5.36,5.15,6.59,1.12,1.13,1.17
31.30,-4.18,-4.18,-5.35,-5.35,5.32,5.13,6.60,1.14,1.14,1.16
31.61,-4.12,-4.13,-5.28,-5.28,5.29,5.10,6.60,1.17,1.16,1.16
31.93,-4.06,-4.08,-5.21,-5.22,5.25,5.07,6.59,1.19,1.18,1.15
32.24,-4.04,-4.05,-5.18,-5.19,5.21,5.04,6.57,1.17,1.17,1.14
32.57,-4.03,-4.03,-5.17,-5.16,5.17,5.01,6.54,1.13,1.14,1.13
32.89,-4.01,-4.01,-5.14,-5.14,5.12,4.99,6.50,1.11,1.11,1.13
33.22,-3.98,-3.98,-5.10,-5.10,5.08,4.96,6.45,1.10,1.10,1.12
33.55,-3.93,-3.93,-5.05,-5.05,5.04,4.93,6.39,1.11,1.11,1.12
33.89,-3.88,-3.89,-4.99,-4.99,5.00,4.90,6.33,1.12,1.11,1.10
34.23,-3.84,-3.85,-4.94,-4.95,4.96,4.88,6.26,1.11,1.11,1.10
34.57,-3.82,-3.82,-4.91,-4.91,4.91,4.85,6.18,1.08,1.08,1.09
34.92,-3.80,-3.80,-4.88,-4.87,4.86,4.82,6.09,1.06,1.07,1.07
35.27,-3.76,-3.76,-4.83,-4.82,4.82,4.79,6.00,1.06,1.06,1.07
35.62,-3.71,-3.71,-4.77,-4.77,4.78,4.76,5.91,1.07,1.07,1.06
35.97,-3.66,-3.68,-4.71,-4.73,4.75,4.74,5.82,1.09,1.07,1.04
36.33,-3.66,-3.66,-4.70,-4.70,4.71,4.71,5.72,1.05,1.05,1.04
36.70,-3.66,-3.66,-4.69,-4.68,4.68,4.68,5.62,1.02,1.02,1.03
37.06,-3.65,-3.65,-4.66,-4.66,4.64,4.65,5.52,0.99,0.99,1.01
37.43,-3.62,-3.63,-4.63,-4.63,4.60,4.62,5.41,0.98,0.98,1.01
37.81,-3.59,-3.59,-4.59,-4.59,4.57,4.60,5.31,0.98,0.98,0.99
38.19,-3.55,-3.55,-4.53,-4.53,4.54,4.57,5.21,0.98,0.99,0.98
38.57,-3.51,-3.51,-4.49,-4.48,4.50,4.54,5.11,0.99,0.99,0.97
38.95,-3.47,-3.49,-4.43,-4.44,4.47,4.51,5.01,1.00,0.98,0.96
39.34,-3.47,-3.47,-4.42,-4.42,4.43,4.48,4.91,0.96,0.95,0.94
39.74,-3.47,-3.47,-4.40,-4.40,4.39,4.45,4.81,0.92,0.92,0.93
40.14,-3.46,-3.46,-4.39,-4.38,4.35,4.43,4.72,0.89,0.89,0.92
40.54,-3.42,-3.43,-4.33,-4.34,4.31,4.40,4.62,0.89,0.88,0.91
40.94,-3.39,-3.39,-4.29,-4.29,4.28,4.37,4.53,0.89,0.89,0.90
41.35,-3.34,-3.34,-4.23,-4.23,4.25,4.34,4.45,0.90,0.90,0.89
41.76,-3.30,-3.31,-4.18,-4.19,4.22,4.31,4.36,0.91,0.91,0.88
42.18,-3.28,-3.29,-4.16,-4.16,4.19,4.28,4.28,0.90,0.90,0.87
42.60,-3.28,-3.28,-4.14,-4.14,4.15,4.26,4.20,0.87,0.87,0.86
43.03,-3.28,-3.28,-4.13,-4.13,4.12,4.23,4.12,0.84,0.84,0.85
43.46,-3.28,-3.29,-4.12,-4.11,4.09,4.20,4.05,0.81,0.80,0.83
43.90,-3.28,-3.27,-4.09,-4.08,4.05,4.17,3.98,0.77,0.78,0.80
44.33,-3.25,-3.25,-4.04,-4.04,4.01,4.14,3.91,0.76,0.76,0.79
44.78,-3.21,-3.22,-3.98,-3.98,3.97,4.11,3.85,0.76,0.76,0.77
45.23,-3.17,-3.17,-3.92,-3.92,3.93,4.08,3.78,0.76,0.76,0.75
45.68,-3.12,-3.13,-3.86,-3.86,3.89,4.05,3.72,0.76,0.76,0.73
46.13,-3.09,-3.10,-3.81,-3.82,3.84,4.02,3.67,0.75,0.74,0.71
46.60,-3.09,-3.09,-3.80,-3.79,3.81,3.99,3.62,0.72,0.72,0.70
47.06,-3.09,-3.09,-3.78,-3.78,3.78,3.96,3.57,0.69,0.69,0.68
47.53,-3.09,-3.09,-3.76,-3.76,3.76,3.93,3.52,0.66,0.66,0.66
48.01,-3.09,-3.09,-3.75,-3.74,3.74,3.90,3.47,0.64,0.64,0.65
48.49,-3.09,-3.09,-3.72,-3.72,3.71,3.87,3.43,0.62,0.62,0.62
48.97,-3.09,-3.10,-3.69,-3.69,3.68,3.84,3.39,0.59,0.58,0.59
49.46,-3.09,-3.10,-3.65,-3.66,3.64,3.81,3.35,0.55,0.54,0.56
49.96,-3.09,-3.08,-3.62,-3.62,3.59,3.78,3.32,0.50,0.51,0.53
50.46,-3.04,-3.05,-3.56,-3.56,3.54,3.74,3.29,0.49,0.49,0.52
50.96,-2.99,-2.99,-3.49,-3.48,3.48,3.71,3.25,0.49,0.49,0.49
51.47,-2.94,-2.94,-3.40,-3.41,3.43,3.68,3.23,0.49,0.49,0.46
51.99,-2.89,-2.91,-3.33,-3.35,3.38,3.65,3.20,0.49,0.47,0.44
52.51,-2.89,-2.89,-3.32,-3.31,3.33,3.61,3.17,0.44,0.44,0.42
53.03,-2.89,-2.89,-3.29,-3.29,3.29,3.58,3.15,0.40,0.41,0.40
53.56,-2.89,-2.89,-3.27,-3.27,3.26,3.55,3.12,0.37,0.37,0.37
54.10,-2.89,-2.89,-3.24,-3.24,3.24,3.51,3.10,0.34,0.34,0.35
54.64,-2.89,-2.89,-3.22,-3.22,3.21,3.48,3.07,0.32,0.32,0.32
55.18,-2.89,-2.89,-3.19,-3.19,3.19,3.44,3.05,0.30,0.30,0.30
55.74,-2.89,-2.90,-3.16,-3.17,3.16,3.41,3.03,0.27,0.27,0.27
56.29,-2.89,-2.90,-3.14,-3.14,3.13,3.37,3.00,0.24,0.23,0.25
56.86,-2.89,-2.88,-3.12,-3.10,3.09,3.34,2.98,0.20,0.21,0.22
57.42,-2.85,-2.85,-3.05,-3.05,3.05,3.30,2.96,0.19,0.20,0.20
58.00,-2.80,-2.83,-2.98,-3.00,3.00,3.27,2.93,0.20,0.17,0.18
58.58,-2.80,-2.79,-2.96,-2.95,2.95,3.23,2.91,0.15,0.16,0.16
59.16,-2.78,-2.76,-2.92,-2.90,2.90,3.19,2.88,0.12,0.14,0.14
59.76,-2.72,-2.74,-2.84,-2.85,2.85,3.15,2.85,0.13,0.11,0.11
60.35,-2.70,-2.71,-2.79,-2.80,2.81,3.11,2.82,0.11,0.10,0.08
60.96,-2.70,-2.70,-2.76,-2.75,2.77,3.07,2.79,0.07,0.07,0.06
61.57,-2.70,-2.70,-2.72,-2.72,2.73,3.03,2.76,0.03,0.03,0.02
62.18,-2.70,-2.70,-2.69,-2.69,2.69,2.99,2.72,-0.01,-0.01,-0.02
62.80,-2.70,-2.71,-2.66,-2.66,2.65,2.95,2.69,-0.05,-0.06,-0.04
63.43,-2.70,-2.71,-2.63,-2.63,2.60,2.91,2.65,-0.10,-0.10,-0.08
64.07,-2.70,-2.70,-2.60,-2.60,2.56,2.87,2.61,-0.14,-0.14,-0.10
64.71,-2.67,-2.65,-2.54,-2.52,2.51,2.82,2.56,-0.16,-0.14,-0.13
65.35,-2.61,-2.61,-2.46,-2.45,2.47,2.78,2.52,-0.14,-0.14,-0.16
66.01,-2.53,-2.58,-2.35,-2.39,2.43,2.74,2.47,-0.11,-0.15,-0.18
66.67,-2.58,-2.57,-2.37,-2.36,2.39,2.69,2.42,-0.19,-0.18,-0.21
67.33,-2.60,-2.59,-2.36,-2.34,2.36,2.65,2.37,-0.25,-0.23,-0.24
68.01,-2.60,-2.61,-2.33,-2.33,2.33,2.60,2.32,-0.28,-0.28,-0.27
68.69,-2.60,-2.60,-2.30,-2.29,2.30,2.55,2.27,-0.31,-0.30,-0.30
69.37,-2.60,-2.61,-2.27,-2.28,2.27,2.51,2.21,-0.34,-0.35,-0.34
70.07,-2.61,-2.63,-2.24,-2.27,2.24,2.46,2.16,-0.38,-0.40,-0.37
70.77,-2.66,-2.62,-2.27,-2.23,2.20,2.41,2.10,-0.46,-0.42,-0.39
71.48,-2.60,-2.59,-2.18,-2.16,2.16,2.36,2.04,-0.45,-0.44,-0.43
72.19,-2.51,-2.55,-2.05,-2.09,2.10,2.31,1.99,-0.41,-0.45,-0.46
72.91,-2.51,-2.51,-2.01,-2.01,2.03,2.26,1.93,-0.48,-0.48,-0.50
73.64,-2.51,-2.52,-1.98,-1.98,1.97,2.21,1.87,-0.54,-0.55,-0.54
74.38,-2.51,-2.50,-1.95,-1.93,1.91,2.15,1.81,-0.60,-0.59,-0.56
75.12,-2.49,-2.45,-1.89,-1.85,1.86,2.10,1.75,-0.64,-0.60,-0.60
75.87,-2.36,-2.41,-1.73,-1.78,1.81,2.05,1.69,-0.55,-0.60,-0.63
76.63,-2.37,-2.38,-1.71,-1.71,1.77,1.99,1.63,-0.60,-0.61,-0.66
77.40,-2.39,-2.39,-1.70,-1.70,1.73,1.94,1.57,-0.66,-0.66,-0.69
78.17,-2.42,-2.44,-1.69,-1.71,1.68,1.88,1.51,-0.74,-0.76,-0.73
78.95,-2.49,-2.46,-1.74,-1.70,1.64,1.82,1.45,-0.86,-0.82,-0.76
79.74,-2.45,-2.44,-1.66,-1.64,1.59,1.77,1.39,-0.86,-0.84,-0.79
80.54,-2.37,-2.39,-1.55,-1.56,1.55,1.71,1.34,-0.82,-0.84,-0.82
81.35,-2.31,-2.33,-1.45,-1.47,1.51,1.65,1.28,-0.80,-0.82,-0.86
82.16,-2.31,-2.31,-1.42,-1.42,1.46,1.59,1.22,-0.85,-0.85,-0.90
82.98,-2.31,-2.31,-1.39,-1.38,1.41,1.53,1.16,-0.90,-0.90,-0.92
83.81,-2.32,-2.32,-1.35,-1.35,1.36,1.47,1.11,-0.97,-0.96,-0.97
84.65,-2.31,-2.32,-1.31,-1.32,1.30,1.41,1.05,-1.02,-1.02,-1.01
85.50,-2.31,-2.32,-1.28,-1.28,1.24,1.35,1.00,-1.07,-1.08,-1.03
86.35,-2.31,-2.31,-1.24,-1.24,1.19,1.29,0.94,-1.12,-1.12,-1.07
87.22,-2.29,-2.27,-1.18,-1.16,1.15,1.23,0.89,-1.14,-1.12,-1.11
88.09,-2.23,-2.23,-1.08,-1.08,1.10,1.17,0.83,-1.13,-1.12,-1.15
88.97,-2.14,-2.19,-0.96,-1.00,1.06,1.10,0.78,-1.09,-1.13,-1.19
89.86,-2.20,-2.18,-0.98,-0.96,1.00,1.04,0.73,-1.20,-1.18,-1.23
90.76,-2.21,-2.22,-0.93,-0.95,0.95,0.98,0.68,-1.27,-1.28,-1.28
91.66,-2.26,-2.27,-0.95,-0.95,0.89,0.92,0.63,-1.37,-1.38,-1.31
92.58,-2.29,-2.25,-0.93,-0.89,0.83,0.85,0.58,-1.46,-1.41,-1.36
93.51,-2.20,-2.21,-0.81,-0.81,0.78,0.79,0.53,-1.43,-1.43,-1.40
94.44,-2.11,-2.15,-0.67,-0.71,0.72,0.72,0.48,-1.39,-1.43,-1.44
95.39,-2.12,-2.11,-0.64,-0.63,0.67,0.66,0.43,-1.46,-1.45,-1.49
96.34,-2.12,-2.11,-0.58,-0.57,0.61,0.59,0.38,-1.51,-1.50,-1.54
97.30,-2.12,-2.13,-0.54,-0.54,0.55,0.53,0.33,-1.57,-1.57,-1.59
98.28,-2.13,-2.14,-0.50,-0.50,0.50,0.47,0.28,-1.63,-1.63,-1.63
99.26,-2.15,-2.15,-0.48,-0.48,0.47,0.40,0.24,-1.69,-1.69,-1.68
100.25,-2.17,-2.17,-0.45,-0.45,0.43,0.34,0.19,-1.74,-1.74,-1.72
101.25,-2.19,-2.19,-0.42,-0.42,0.41,0.27,0.15,-1.78,-1.78,-1.77
102.27,-2.20,-2.20,-0.39,-0.38,0.38,0.21,0.10,-1.82,-1.82,-1.82
103.29,-2.21,-2.22,-0.34,-0.35,0.36,0.15,0.06,-1.86,-1.86,-1.87
104.32,-2.23,-2.23,-0.32,-0.32,0.33,0.08,0.01,-1.90,-1.90,-1.91
105.37,-2.25,-2.25,-0.30,-0.30,0.31,0.02,-0.03,-1.95,-1.95,-1.95
106.42,-2.28,-2.28,-0.28,-0.28,0.28,-0.04,-0.07,-2.00,-2.00,-2.00
107.48,-2.30,-2.31,-0.26,-0.26,0.25,-0.11,-0.12,-2.05,-2.05,-2.05
108.56,-2.33,-2.33,-0.23,-0.23,0.23,-0.17,-0.16,-2.11,-2.10,-2.10
109.64,-2.35,-2.35,-0.20,-0.20,0.20,-0.23,-0.20,-2.15,-2.15,-2.15
110.74,-2.36,-2.37,-0.17,-0.17,0.17,-0.29,-0.24,-2.20,-2.20,-2.20
111.85,-2.38,-2.38,-0.14,-0.13,0.13,-0.35,-0.27,-2.25,-2.25,-2.24
112.97,-2.39,-2.39,-0.09,-0.09,0.09,-0.41,-0.31,-2.30,-2.30,-2.31
114.10,-2.40,-2.40,-0.05,-0.05,0.04,-0.47,-0.35,-2.36,-2.36,-2.35
115.24,-2.40,-2.40,0.00,0.00,-0.01,-0.53,-0.38,-2.41,-2.41,-2.41
116.39,-2.40,-2.40,0.06,0.06,-0.06,-0.59,-0.42,-2.46,-2.46,-2.46
117.55,-2.40,-2.40,0.11,0.12,-0.11,-0.64,-0.45,-2.52,-2.51,-2.52
118.73,-2.39,-2.39,0.18,0.17,-0.17,-0.70,-0.48,-2.56,-2.56,-2.57
119.92,-2.38,-2.39,0.23,0.23,-0.23,-0.76,-0.51,-2.61,-2.61,-2.61
121.12,-2.38,-2.38,0.28,0.29,-0.28,-0.81,-0.54,-2.67,-2.66,-2.66
122.33,-2.37,-2.37,0.34,0.34,-0.34,-0.86,-0.57,-2.71,-2.71,-2.72
123.55,-2.36,-2.36,0.40,0.40,-0.40,-0.92,-0.60,-2.76,-2.76,-2.76
124.79,-2.35,-2.36,0.46,0.45,-0.46,-0.97,-0.63,-2.81,-2.81,-2.81
126.03,-2.35,-2.35,0.51,0.51,-0.52,-1.02,-0.65,-2.87,-2.86,-2.86
127.29,-2.34,-2.34,0.57,0.57,-0.57,-1.07,-0.67,-2.92,-2.92,-2.91
128.57,-2.33,-2.34,0.64,0.63,-0.63,-1.12,-0.70,-2.96,-2.96,-2.97
129.85,-2.33,-2.33,0.69,0.69,-0.68,-1.17,-0.72,-3.02,-3.01,-3.02
131.15,-2.32,-2.32,0.74,0.74,-0.74,-1.21,-0.74,-3.06,-3.06,-3.07
132.46,-2.32,-2.32,0.79,0.79,-0.79,-1.26,-0.76,-3.11,-3.11,-3.11
133.79,-2.31,-2.32,0.84,0.84,-0.84,-1.30,-0.78,-3.16,-3.16,-3.15
135.12,-2.31,-2.31,0.89,0.89,-0.89,-1.35,-0.79,-3.20,-3.20,-3.21
136.48,-2.31,-2.31,0.93,0.94,-0.94,-1.39,-0.81,-3.25,-3.25,-3.24
137.84,-2.30,-2.31,0.98,0.99,-0.98,-1.43,-0.83,-3.29,-3.29,-3.29
139.22,-2.30,-2.30,1.04,1.03,-1.03,-1.47,-0.84,-3.33,-3.33,-3.34
140.61,-2.30,-2.30,1.08,1.07,-1.07,-1.51,-0.86,-3.37,-3.37,-3.38
142.02,-2.30,-2.30,1.10,1.11,-1.11,-1.54,-0.87,-3.41,-3.41,-3.40
143.44,-2.30,-2.30,1.14,1.14,-1.15,-1.58,-0.89,-3.45,-3.45,-3.45
144.87,-2.30,-2.30,1.18,1.18,-1.18,-1.61,-0.90,-3.49,-3.49,-3.49
146.32,-2.30,-2.30,1.22,1.22,-1.22,-1.65,-0.92,-3.52,-3.52,-3.53
147.78,-2.30,-2.30,1.25,1.26,-1.26,-1.68,-0.93,-3.56,-3.56,-3.55
149.26,-2.30,-2.30,1.29,1.29,-1.30,-1.71,-0.95,-3.60,-3.60,-3.59
150.75,-2.30,-2.30,1.34,1.33,-1.34,-1.74,-0.96,-3.64,-3.64,-3.64
152.26,-2.30,-2.30,1.37,1.37,-1.38,-1.77,-0.98,-3.68,-3.68,-3.68
153.78,-2.30,-2.30,1.41,1.41,-1.42,-1.80,-1.00,-3.72,-3.72,-3.71
155.32,-2.30,-2.30,1.45,1.45,-1.45,-1.82,-1.01,-3.76,-3.76,-3.76
156.88,-2.30,-2.30,1.49,1.49,-1.49,-1.85,-1.03,-3.79,-3.79,-3.79
158.44,-2.30,-2.30,1.53,1.53,-1.52,-1.87,-1.05,-3.82,-3.82,-3.83
160.03,-2.30,-2.32,1.57,1.55,-1.54,-1.89,-1.07,-3.85,-3.87,-3.88
161.63,-2.35,-2.35,1.56,1.57,-1.56,-1.91,-1.09,-3.91,-3.91,-3.92
163.24,-2.40,-2.37,1.55,1.58,-1.57,-1.93,-1.11,-3.98,-3.95,-3.96
164.88,-2.38,-2.41,1.60,1.59,-1.58,-1.95,-1.13,-3.97,-3.99,-3.99
166.53,-2.42,-2.44,1.60,1.59,-1.59,-1.97,-1.15,-4.01,-4.03,-4.03
168.19,-2.48,-2.47,1.58,1.60,-1.60,-1.99,-1.17,-4.08,-4.07,-4.06
169.87,-2.51,-2.51,1.59,1.59,-1.61,-2.00,-1.20,-4.12,-4.12,-4.10
171.57,-2.52,-2.53,1.62,1.61,-1.63,-2.02,-1.22,-4.15,-4.15,-4.14
173.29,-2.53,-2.53,1.64,1.64,-1.65,-2.03,-1.25,-4.18,-4.18,-4.18
175.02,-2.53,-2.54,1.68,1.68,-1.68,-2.04,-1.28,-4.21,-4.22,-4.21
176.77,-2.54,-2.54,1.71,1.72,-1.71,-2.05,-1.30,-4.25,-4.25,-4.26
178.54,-2.54,-2.54,1.76,1.75,-1.75,-2.06,-1.33,-4.29,-4.29,-4.30
180.32,-2.53,-2.54,1.80,1.80,-1.79,-2.07,-1.36,-4.33,-4.33,-4.33
182.13,-2.53,-2.53,1.83,1.84,-1.84,-2.08,-1.39,-4.37,-4.37,-4.37
183.95,-2.52,-2.52,1.88,1.88,-1.88,-2.09,-1.43,-4.41,-4.41,-4.41
185.79,-2.51,-2.51,1.93,1.93,-1.93,-2.09,-1.46,-4.44,-4.44,-4.44
187.65,-2.49,-2.50,1.99,1.98,-1.98,-2.10,-1.49,-4.47,-4.48,-4.48
189.52,-2.48,-2.48,2.03,2.03,-2.03,-2.10,-1.53,-4.51,-4.51,-4.51
191.42,-2.47,-2.47,2.07,2.07,-2.07,-2.10,-1.57,-4.55,-4.54,-4.54
193.33,-2.45,-2.45,2.11,2.11,-2.12,-2.11,-1.60,-4.57,-4.57,-4.57
195.27,-2.43,-2.44,2.16,2.16,-2.16,-2.11,-1.64,-4.59,-4.60,-4.60
197.22,-2.42,-2.42,2.20,2.21,-2.20,-2.11,-1.68,-4.62,-4.62,-4.62
199.19,-2.41,-2.41,2.25,2.24,-2.24,-2.11,-1.72,-4.65,-4.65,-4.66
201.18,-2.40,-2.41,2.27,2.27,-2.27,-2.11,-1.76,-4.67,-4.67,-4.68
203.19,-2.40,-2.40,2.29,2.30,-2.29,-2.11,-1.80,-4.70,-4.69,-4.69
205.23,-2.39,-2.40,2.33,2.32,-2.32,-2.10,-1.84,-4.71,-4.71,-4.72
207.28,-2.39,-2.40,2.33,2.34,-2.34,-2.10,-1.88,-4.74,-4.74,-4.72
209.35,-2.40,-2.40,2.35,2.35,-2.36,-2.10,-1.92,-4.77,-4.76,-4.75
211.44,-2.40,-2.40,2.37,2.36,-2.38,-2.09,-1.96,-4.78,-4.78,-4.77
213.56,-2.40,-2.41,2.37,2.37,-2.38,-2.09,-2.00,-4.79,-4.79,-4.78
215.69,-2.41,-2.40,2.37,2.38,-2.37,-2.08,-2.04,-4.79,-4.78,-4.78
217.85,-2.41,-2.39,2.38,2.41,-2.36,-2.07,-2.07,-4.77,-4.74,-4.79
220.03,-2.38,-2.42,2.42,2.39,-2.33,-2.07,-2.11,-4.72,-4.75,-4.81
222.23,-2.43,-2.48,2.38,2.33,-2.31,-2.06,-2.14,-4.74,-4.79,-4.82
224.45,-2.61,-2.55,2.20,2.26,-2.28,-2.05,-2.18,-4.89,-4.83,-4.81
226.70,-2.63,-2.61,2.18,2.20,-2.25,-2.04,-2.21,-4.89,-4.87,-4.81
228.96,-2.60,-2.63,2.21,2.18,-2.23,-2.03,-2.24,-4.83,-4.86,-4.81
231.25,-2.60,-2.60,2.20,2.20,-2.21,-2.03,-2.27,-4.82,-4.82,-4.80
233.57,-2.59,-2.59,2.21,2.21,-2.20,-2.02,-2.29,-4.80,-4.79,-4.80
235.90,-2.57,-2.58,2.23,2.22,-2.21,-2.00,-2.31,-4.78,-4.78,-4.80
238.26,-2.56,-2.56,2.24,2.24,-2.22,-1.99,-2.33,-4.78,-4.78,-4.80
240.64,-2.54,-2.55,2.25,2.24,-2.24,-1.98,-2.35,-4.78,-4.78,-4.79
243.05,-2.53,-2.53,2.24,2.25,-2.25,-1.97,-2.36,-4.79,-4.78,-4.78
245.48,-2.51,-2.51,2.25,2.26,-2.27,-1.96,-2.37,-4.78,-4.78,-4.77
247.93,-2.48,-2.49,2.27,2.27,-2.28,-1.95,-2.38,-4.76,-4.77,-4.75
250.41,-2.46,-2.47,2.29,2.28,-2.29,-1.94,-2.38,-4.75,-4.75,-4.75
252.92,-2.45,-2.45,2.28,2.28,-2.29,-1.92,-2.38,-4.74,-4.74,-4.73
255.45,-2.43,-2.42,2.27,2.29,-2.28,-1.91,-2.37,-4.71,-4.70,-4.71
258.00,-2.41,-2.40,2.28,2.29,-2.26,-1.90,-2.37,-4.67,-4.66,-4.69
260.58,-2.37,-2.41,2.31,2.27,-2.23,-1.88,-2.36,-4.61,-4.64,-4.68
263.19,-2.43,-2.44,2.22,2.22,-2.20,-1.87,-2.34,-4.64,-4.64,-4.66
265.82,-2.51,-2.48,2.13,2.16,-2.17,-1.86,-2.33,-4.68,-4.65,-4.64
268.48,-2.52,-2.52,2.10,2.10,-2.13,-1.84,-2.31,-4.65,-4.65,-4.62
271.16,-2.52,-2.53,2.07,2.07,-2.09,-1.83,-2.28,-4.62,-4.63,-4.60
273.87,-2.53,-2.53,2.05,2.05,-2.06,-1.81,-2.26,-4.59,-4.59,-4.58
276.61,-2.53,-2.53,2.02,2.03,-2.03,-1.80,-2.23,-4.56,-4.56,-4.56
279.38,-2.53,-2.53,2.01,2.01,-2.00,-1.78,-2.20,-4.54,-4.54,-4.54
282.17,-2.52,-2.53,2.00,2.00,-1.99,-1.77,-2.17,-4.51,-4.51,-4.53
284.99,-2.52,-2.52,1.98,1.98,-1.98,-1.75,-2.14,-4.50,-4.50,-4.50
287.84,-2.51,-2.51,1.97,1.97,-1.97,-1.74,-2.11,-4.49,-4.49,-4.49
290.72,-2.50,-2.50,1.96,1.96,-1.97,-1.72,-2.07,-4.47,-4.48,-4.46
293.63,-2.49,-2.49,1.95,1.95,-1.97,-1.71,-2.04,-4.46,-4.46,-4.45
296.57,-2.48,-2.48,1.94,1.94,-1.96,-1.69,-2.00,-4.44,-4.44,-4.42
299.53,-2.46,-2.46,1.94,1.95,-1.94,-1.68,-1.97,-4.41,-4.40,-4.40
302.53,-2.43,-2.42,1.96,1.96,-1.93,-1.66,-1.93,-4.36,-4.35,-4.39
305.55,-2.40,-2.42,1.95,1.94,-1.90,-1.65,-1.89,-4.31,-4.32,-4.35
308.61,-2.40,-2.44,1.93,1.89,-1.88,-1.63,-1.86,-4.28,-4.31,-4.34
311.69,-2.51,-2.48,1.80,1.83,-1.84,-1.62,-1.82,-4.35,-4.32,-4.31
314.81,-2.52,-2.51,1.75,1.77,-1.79,-1.60,-1.78,-4.32,-4.31,-4.27
317.96,-2.52,-2.52,1.73,1.74,-1.74,-1.59,-1.75,-4.27,-4.26,-4.26
321.14,-2.51,-2.52,1.73,1.71,-1.69,-1.57,-1.71,-4.21,-4.22,-4.24
324.35,-2.52,-2.56,1.70,1.66,-1.64,-1.56,-1.68,-4.17,-4.20,-4.22
327.59,-2.63,-2.60,1.56,1.60,-1.60,-1.54,-1.64,-4.24,-4.20,-4.19
330.87,-2.65,-2.64,1.52,1.54,-1.57,-1.53,-1.61,-4.23,-4.21,-4.18
334.18,-2.63,-2.65,1.53,1.51,-1.55,-1.51,-1.58,-4.18,-4.19,-4.16
337.52,-2.62,-2.63,1.52,1.51,-1.52,-1.50,-1.55,-4.14,-4.15,-4.14
340.90,-2.62,-2.62,1.49,1.50,-1.49,-1.48,-1.52,-4.12,-4.12,-4.12
344.30,-2.62,-2.61,1.48,1.49,-1.46,-1.47,-1.49,-4.09,-4.07,-4.10
347.75,-2.60,-2.60,1.48,1.48,-1.44,-1.46,-1.46,-4.04,-4.04,-4.08
351.23,-2.58,-2.62,1.48,1.44,-1.41,-1.44,-1.43,-4.00,-4.04,-4.06
354.74,-2.67,-2.65,1.37,1.39,-1.39,-1.43,-1.41,-4.06,-4.04,-4.04
358.28,-2.71,-2.69,1.31,1.34,-1.36,-1.41,-1.38,-4.08,-4.05,-4.03
361.87,-2.70,-2.71,1.31,1.30,-1.34,-1.40,-1.36,-4.04,-4.05,-4.01
365.49,-2.70,-2.70,1.30,1.30,-1.31,-1.39,-1.34,-4.02,-4.02,-4.00
369.14,-2.69,-2.69,1.30,1.30,-1.29,-1.37,-1.32,-3.99,-3.98,-3.99
372.83,-2.68,-2.68,1.29,1.29,-1.28,-1.36,-1.29,-3.96,-3.97,-3.97
376.56,-2.67,-2.68,1.29,1.28,-1.28,-1.35,-1.28,-3.95,-3.95,-3.97
380.33,-2.67,-2.67,1.27,1.27,-1.28,-1.33,-1.26,-3.95,-3.95,-3.94
384.13,-2.66,-2.67,1.27,1.27,-1.28,-1.32,-1.24,-3.94,-3.94,-3.93
387.97,-2.66,-2.66,1.26,1.26,-1.27,-1.31,-1.22,-3.93,-3.93,-3.92
391.85,-2.65,-2.64,1.26,1.26,-1.25,-1.30,-1.21,-3.90,-3.89,-3.91
395.77,-2.64,-2.64,1.25,1.25,-1.23,-1.28,-1.19,-3.87,-3.87,-3.89
399.73,-2.63,-2.66,1.25,1.23,-1.20,-1.27,-1.18,-3.83,-3.86,-3.89
403.72,-2.70,-2.69,1.17,1.18,-1.17,-1.26,-1.17,-3.88,-3.87,-3.88
407.76,-2.74,-2.73,1.13,1.13,-1.15,-1.25,-1.16,-3.89,-3.88,-3.87
411.84,-2.76,-2.76,1.09,1.09,-1.12,-1.24,-1.15,-3.88,-3.88,-3.85
415.96,-2.76,-2.77,1.08,1.07,-1.09,-1.23,-1.14,-3.86,-3.86,-3.84
420.12,-2.76,-2.76,1.07,1.07,-1.07,-1.22,-1.13,-3.84,-3.84,-3.83
424.32,-2.75,-2.76,1.07,1.07,-1.06,-1.20,-1.12,-3.82,-3.82,-3.82
428.56,-2.74,-2.74,1.07,1.07,-1.06,-1.19,-1.12,-3.81,-3.81,-3.81
432.85,-2.73,-2.73,1.07,1.08,-1.08,-1.18,-1.11,-3.81,-3.80,-3.81
437.18,-2.70,-2.71,1.09,1.09,-1.10,-1.17,-1.10,-3.80,-3.80,-3.80
441.55,-2.67,-2.67,1.10,1.11,-1.13,-1.17,-1.10,-3.80,-3.80,-3.78
445.96,-2.62,-2.62,1.15,1.14,-1.16,-1.16,-1.10,-3.78,-3.78,-3.77
450.42,-2.57,-2.57,1.19,1.18,-1.19,-1.15,-1.09,-3.76,-3.76,-3.76
454.93,-2.51,-2.51,1.23,1.23,-1.22,-1.14,-1.09,-3.73,-3.73,-3.74
