frequency,raw,smoothed,error,error_smoothed,equalization,parametric_eq,fixed_band_eq,equalized_raw,equalized_smoothed,target
20.00,0.86,0.87,-4.87,-4.87,4.87,3.93,1.53,5.73,5.73,5.74
20.20,0.86,0.86,-4.87,-4.87,4.88,3.93,1.57,5.74,5.74,5.74
20.40,0.86,0.86,-4.87,-4.87,4.88,3.92,1.62,5.74,5.74,5.73
20.61,0.87,0.87,-4.86,-4.87,4.87,3.91,1.67,5.75,5.74,5.73
20.81,0.87,0.87,-4.86,-4.86,4.86,3.90,1.72,5.73,5.73,5.73
21.02,0.87,0.89,-4.86,-4.84,4.84,3.89,1.77,5.71,5.73,5.73
21.23,0.92,0.92,-4.81,-4.81,4.81,3.89,1.82,5.73,5.73,5.73
21.44,0.96,0.96,-4.77,-4.77,4.77,3.88,1.88,5.73,5.73,5.73
21.66,1.01,1.01,-4.72,-4.72,4.72,3.87,1.94,5.73,5.73,5.73
21.87,1.05,1.06,-4.68,-4.67,4.66,3.86,1.99,5.71,5.72,5.73
22.09,1.11,1.12,-4.61,-4.61,4.59,3.85,2.05,5.70,5.71,5.73
22.31,1.20,1.20,-4.52,-4.53,4.52,3.84,2.12,5.72,5.71,5.73
22.54,1.28,1.29,-4.44,-4.44,4.45,3.83,2.18,5.73,5.73,5.73
22.76,1.36,1.37,-4.36,-4.35,4.38,3.82,2.24,5.75,5.75,5.73
22.99,1.45,1.44,-4.27,-4.29,4.32,3.81,2.31,5.78,5.76,5.73
23.22,1.48,1.48,-4.24,-4.24,4.27,3.80,2.38,5.75,5.75,5.72
23.45,1.50,1.51,-4.22,-4.21,4.22,3.79,2.44,5.72,5.73,5.72
23.69,1.53,1.53,-4.19,-4.19,4.17,3.78,2.52,5.70,5.70,5.72
23.92,1.56,1.57,-4.16,-4.16,4.12,3.77,2.59,5.69,5.69,5.72
24.16,1.60,1.61,-4.12,-4.11,4.09,3.76,2.66,5.69,5.69,5.72
24.40,1.65,1.66,-4.06,-4.06,4.06,3.75,2.73,5.71,5.71,5.72
24.65,1.70,1.71,-4.01,-4.01,4.04,3.74,2.81,5.74,5.74,5.72
24.89,1.75,1.74,-3.96,-3.97,4.02,3.73,2.88,5.77,5.76,5.72
25.14,1.76,1.76,-3.95,-3.96,4.00,3.72,2.96,5.77,5.76,5.71
25.39,1.74,1.74,-3.97,-3.97,3.98,3.71,3.04,5.73,5.73,5.71
25.65,1.72,1.72,-3.99,-3.99,3.97,3.70,3.11,5.69,5.69,5.71
25.91,1.70,1.72,-4.01,-3.99,3.94,3.68,3.19,5.65,5.66,5.71
26.16,1.74,1.75,-3.96,-3.96,3.91,3.67,3.27,5.66,5.66,5.71
26.43,1.81,1.81,-3.89,-3.90,3.88,3.66,3.34,5.69,5.69,5.71
26.69,1.88,1.89,-3.82,-3.82,3.83,3.65,3.42,5.72,5.72,5.71
26.96,1.96,1.96,-3.74,-3.75,3.77,3.63,3.49,5.74,5.73,5.70
27.23,2.02,2.02,-3.68,-3.68,3.70,3.62,3.56,5.72,5.72,5.70
27.50,2.07,2.08,-3.63,-3.62,3.62,3.61,3.63,5.69,5.70,5.70
27.77,2.13,2.13,-3.56,-3.57,3.54,3.60,3.69,5.67,5.67,5.70
28.05,2.19,2.20,-3.50,-3.50,3.47,3.58,3.76,5.66,5.66,5.70
28.33,2.27,2.28,-3.42,-3.41,3.40,3.57,3.82,5.68,5.69,5.69
28.62,2.36,2.37,-3.33,-3.33,3.36,3.55,3.87,5.72,5.72,5.69
28.90,2.44,2.42,-3.25,-3.26,3.32,3.54,3.92,5.76,5.74,5.69
29.19,2.45,2.45,-3.23,-3.24,3.29,3.52,3.97,5.75,5.74,5.69
29.48,2.42,2.43,-3.26,-3.26,3.28,3.51,4.01,5.70,5.71,5.68
29.78,2.39,2.40,-3.29,-3.28,3.27,3.49,4.05,5.66,5.67,5.68
30.08,2.37,2.38,-3.31,-3.30,3.27,3.48,4.07,5.64,5.65,5.68
30.38,2.38,2.38,-3.29,-3.30,3.26,3.46,4.10,5.64,5.64,5.68
30.68,2.39,2.39,-3.28,-3.29,3.25,3.45,4.11,5.64,5.64,5.67
30.99,2.40,2.41,-3.27,-3.26,3.23,3.43,4.12,5.64,5.65,5.67
31.30,2.45,2.46,-3.22,-3.21,3.21,3.41,4.13,5.66,5.67,5.67
31.61,2.50,2.51,-3.16,-3.16,3.18,3.40,4.12,5.68,5.69,5.67
31.93,2.56,2.55,-3.10,-3.11,3.15,3.38,4.11,5.71,5.70,5.66
32.24,2.57,2.57,-3.08,-3.09,3.12,3.36,4.10,5.69,5.69,5.66
32.57,2.57,2.58,-3.08,-3.08,3.08,3.35,4.07,5.66,5.66,5.65
32.89,2.57,2.58,-3.08,-3.07,3.05,3.33,4.05,5.63,5.63,5.65
33.22,2.59,2.60,-3.05,-3.05,3.02,3.31,4.01,5.62,5.62,5.65
33.55,2.63,2.63,-3.01,-3.02,2.99,3.29,3.97,5.63,5.62,5.64
33.89,2.66,2.66,-2.98,-2.98,2.96,3.27,3.92,5.63,5.62,5.64
34.23,2.69,2.70,-2.94,-2.94,2.93,3.25,3.88,5.62,5.63,5.64
34.57,2.73,2.73,-2.90,-2.90,2.91,3.23,3.82,5.64,5.64,5.63
34.92,2.76,2.76,-2.86,-2.87,2.90,3.21,3.76,5.66,5.66,5.63
35.27,2.77,2.78,-2.85,-2.84,2.90,3.19,3.70,5.67,5.68,5.62
35.62,2.77,2.78,-2.84,-2.84,2.90,3.17,3.64,5.67,5.68,5.62
35.97,2.77,2.75,-2.84,-2.86,2.88,3.15,3.57,5.66,5.64,5.61
36.33,2.71,2.69,-2.89,-2.91,2.86,3.13,3.50,5.57,5.55,5.61
36.70,2.64,2.65,-2.96,-2.95,2.83,3.11,3.43,5.47,5.48,5.60
37.06,2.63,2.69,-2.97,-2.90,2.79,3.09,3.36,5.42,5.48,5.60
37.43,2.81,2.81,-2.78,-2.78,2.75,3.06,3.28,5.55,5.56,5.59
37.81,2.99,2.95,-2.59,-2.64,2.70,3.04,3.21,5.69,5.64,5.58
38.19,3.06,3.03,-2.51,-2.54,2.65,3.02,3.14,5.71,5.68,5.58
38.57,3.02,3.04,-2.55,-2.53,2.61,2.99,3.06,5.64,5.65,5.57
38.95,2.98,3.01,-2.58,-2.56,2.59,2.97,2.99,5.57,5.60,5.56
39.34,2.98,2.99,-2.57,-2.57,2.58,2.95,2.92,5.56,5.57,5.56
39.74,2.98,2.98,-2.57,-2.57,2.58,2.92,2.85,5.57,5.56,5.55
40.14,2.96,2.93,-2.58,-2.61,2.58,2.90,2.78,5.55,5.51,5.54
40.54,2.88,2.88,-2.65,-2.65,2.58,2.87,2.71,5.46,5.46,5.53
40.94,2.81,2.88,-2.71,-2.65,2.55,2.85,2.64,5.37,5.43,5.53
41.35,2.93,2.94,-2.58,-2.57,2.52,2.82,2.57,5.45,5.46,5.52
41.76,3.08,3.05,-2.42,-2.46,2.47,2.79,2.51,5.55,5.52,5.51
42.18,3.17,3.15,-2.33,-2.35,2.42,2.77,2.44,5.59,5.57,5.50
42.60,3.18,3.19,-2.31,-2.30,2.36,2.74,2.38,5.55,5.55,5.49
43.03,3.18,3.19,-2.30,-2.29,2.32,2.71,2.32,5.50,5.51,5.48
43.46,3.18,3.18,-2.29,-2.29,2.29,2.68,2.26,5.47,5.47,5.47
43.90,3.18,3.19,-2.28,-2.27,2.28,2.65,2.20,5.46,5.47,5.46
44.33,3.18,3.19,-2.27,-2.26,2.28,2.62,2.15,5.47,5.47,5.45
44.78,3.18,3.17,-2.25,-2.27,2.29,2.59,2.09,5.47,5.46,5.44
45.23,3.14,3.12,-2.28,-2.31,2.29,2.56,2.04,5.44,5.41,5.43
45.68,3.06,3.08,-2.35,-2.33,2.28,2.53,1.99,5.34,5.36,5.41
46.13,3.05,3.10,-2.36,-2.30,2.25,2.50,1.94,5.29,5.34,5.40
46.60,3.17,3.16,-2.22,-2.23,2.20,2.47,1.89,5.37,5.36,5.39
47.06,3.28,3.23,-2.09,-2.15,2.14,2.44,1.85,5.42,5.36,5.38
47.53,3.28,3.28,-2.08,-2.08,2.07,2.40,1.81,5.35,5.36,5.36
48.01,3.28,3.35,-2.06,-1.99,2.00,2.37,1.76,5.29,5.36,5.35
48.49,3.42,3.42,-1.91,-1.91,1.94,2.34,1.72,5.37,5.37,5.33
48.97,3.55,3.48,-1.76,-1.84,1.90,2.30,1.68,5.46,5.38,5.32
49.46,3.48,3.49,-1.82,-1.81,1.88,2.27,1.65,5.36,5.37,5.30
49.96,3.40,3.45,-1.88,-1.84,1.87,2.23,1.61,5.28,5.32,5.29
50.46,3.39,3.39,-1.87,-1.87,1.86,2.19,1.57,5.26,5.26,5.27
50.96,3.38,3.35,-1.87,-1.90,1.85,2.16,1.54,5.24,5.20,5.25
51.47,3.32,3.32,-1.91,-1.91,1.84,2.12,1.50,5.17,5.16,5.23
51.99,3.26,3.33,-1.95,-1.89,1.83,2.08,1.47,5.09,5.15,5.21
52.51,3.37,3.37,-1.82,-1.82,1.80,2.04,1.44,5.17,5.17,5.19
53.03,3.48,3.44,-1.69,-1.74,1.77,2.00,1.41,5.25,5.20,5.17
53.56,3.48,3.49,-1.67,-1.67,1.72,1.96,1.38,5.21,5.21,5.15
54.10,3.48,3.49,-1.65,-1.64,1.67,1.92,1.35,5.16,5.17,5.13
54.64,3.48,3.48,-1.63,-1.63,1.63,1.88,1.32,5.11,5.11,5.11
55.18,3.48,3.48,-1.60,-1.60,1.59,1.84,1.29,5.08,5.08,5.09
55.74,3.48,3.48,-1.58,-1.58,1.57,1.80,1.26,5.06,5.06,5.06
56.29,3.48,3.48,-1.56,-1.56,1.56,1.76,1.23,5.05,5.05,5.04
56.86,3.48,3.49,-1.53,-1.52,1.55,1.71,1.20,5.03,5.04,5.02
57.42,3.48,3.48,-1.51,-1.51,1.53,1.67,1.17,5.01,5.01,4.99
58.00,3.48,3.44,-1.48,-1.52,1.50,1.62,1.14,4.98,4.94,4.96
58.58,3.40,3.42,-1.53,-1.51,1.47,1.58,1.11,4.87,4.89,4.94
59.16,3.38,3.44,-1.52,-1.47,1.43,1.53,1.07,4.82,4.87,4.91
59.76,3.51,3.48,-1.37,-1.40,1.39,1.48,1.04,4.90,4.87,4.88
60.35,3.57,3.55,-1.28,-1.30,1.34,1.44,1.01,4.91,4.88,4.85
60.96,3.58,3.59,-1.24,-1.23,1.27,1.39,0.97,4.85,4.86,4.82
61.57,3.58,3.58,-1.20,-1.21,1.20,1.34,0.94,4.78,4.78,4.79
62.18,3.58,3.58,-1.17,-1.18,1.13,1.29,0.90,4.71,4.70,4.76
62.80,3.58,3.64,-1.14,-1.09,1.06,1.24,0.87,4.64,4.70,4.72
63.43,3.69,3.70,-0.99,-0.98,1.00,1.19,0.83,4.70,4.70,4.69
64.07,3.83,3.75,-0.82,-0.91,0.95,1.14,0.79,4.79,4.70,4.65
64.71,3.73,3.75,-0.88,-0.86,0.91,1.08,0.75,4.65,4.67,4.62
65.35,3.68,3.72,-0.90,-0.86,0.88,1.03,0.70,4.56,4.60,4.58
66.01,3.68,3.68,-0.86,-0.86,0.85,0.98,0.66,4.53,4.52,4.54
66.67,3.68,3.69,-0.82,-0.81,0.82,0.92,0.62,4.50,4.50,4.50
67.33,3.68,3.67,-0.78,-0.79,0.78,0.87,0.57,4.47,4.46,4.46
68.01,3.68,3.63,-0.74,-0.79,0.75,0.81,0.52,4.43,4.38,4.42
68.69,3.57,3.64,-0.81,-0.74,0.70,0.75,0.48,4.27,4.33,4.38
69.37,3.62,3.67,-0.71,-0.67,0.64,0.69,0.43,4.27,4.31,4.34
70.07,3.78,3.72,-0.51,-0.57,0.58,0.64,0.38,4.36,4.29,4.29
70.77,3.78,3.78,-0.46,-0.47,0.51,0.58,0.33,4.29,4.29,4.25
71.48,3.78,3.80,-0.42,-0.40,0.45,0.52,0.28,4.23,4.25,4.20
72.19,3.78,3.78,-0.37,-0.37,0.38,0.46,0.22,4.16,4.16,4.15
72.91,3.78,3.78,-0.32,-0.32,0.32,0.39,0.17,4.10,4.10,4.11
73.64,3.78,3.78,-0.27,-0.27,0.26,0.33,0.12,4.05,4.05,4.06
74.38,3.78,3.78,-0.22,-0.22,0.21,0.27,0.06,4.00,4.00,4.01
75.12,3.78,3.78,-0.17,-0.17,0.16,0.21,0.01,3.95,3.95,3.95
75.87,3.78,3.78,-0.12,-0.12,0.11,0.14,-0.05,3.90,3.90,3.90
76.63,3.78,3.78,-0.07,-0.07,0.07,0.08,-0.11,3.85,3.85,3.85
77.40,3.78,3.78,-0.01,-0.01,0.02,0.01,-0.16,3.80,3.80,3.79
78.17,3.78,3.78,0.04,0.05,-0.03,-0.06,-0.22,3.75,3.76,3.74
78.95,3.78,3.79,0.10,0.10,-0.08,-0.12,-0.28,3.70,3.71,3.68
79.74,3.78,3.78,0.16,0.16,-0.14,-0.19,-0.34,3.64,3.64,3.63
80.54,3.77,3.74,0.21,0.17,-0.21,-0.26,-0.40,3.57,3.53,3.57
81.35,3.72,3.74,0.22,0.23,-0.28,-0.33,-0.46,3.45,3.46,3.51
82.16,3.68,3.76,0.24,0.31,-0.35,-0.40,-0.52,3.33,3.41,3.45
82.98,3.87,3.81,0.49,0.42,-0.43,-0.47,-0.59,3.45,3.38,3.39
83.81,3.88,3.87,0.56,0.54,-0.51,-0.54,-0.65,3.38,3.36,3.33
84.65,3.88,3.90,0.62,0.64,-0.59,-0.61,-0.71,3.30,3.31,3.26
85.50,3.88,3.88,0.68,0.69,-0.67,-0.68,-0.78,3.21,3.21,3.20
86.35,3.88,3.88,0.75,0.75,-0.75,-0.76,-0.84,3.13,3.13,3.13
87.22,3.88,3.88,0.81,0.81,-0.83,-0.83,-0.91,3.06,3.06,3.07
88.09,3.88,3.88,0.88,0.88,-0.89,-0.90,-0.97,2.99,2.99,3.00
88.97,3.88,3.89,0.95,0.95,-0.96,-0.98,-1.04,2.92,2.93,2.94
89.86,3.89,3.89,1.02,1.02,-1.02,-1.05,-1.11,2.87,2.87,2.87
90.76,3.89,3.89,1.09,1.09,-1.09,-1.13,-1.18,2.81,2.81,2.80
91.66,3.89,3.89,1.16,1.16,-1.15,-1.20,-1.25,2.74,2.74,2.73
92.58,3.89,3.90,1.23,1.23,-1.22,-1.28,-1.32,2.67,2.67,2.66
93.51,3.89,3.90,1.30,1.30,-1.30,-1.35,-1.39,2.60,2.60,2.59
94.44,3.89,3.88,1.37,1.36,-1.37,-1.43,-1.46,2.52,2.51,2.52
95.39,3.87,3.86,1.42,1.40,-1.44,-1.50,-1.53,2.43,2.41,2.45
96.34,3.82,3.88,1.44,1.50,-1.51,-1.58,-1.60,2.31,2.37,2.38
97.30,3.88,3.90,1.57,1.59,-1.58,-1.65,-1.68,2.30,2.32,2.31
98.28,4.00,3.92,1.77,1.68,-1.64,-1.73,-1.75,2.36,2.27,2.24
99.26,3.88,3.91,1.72,1.74,-1.71,-1.81,-1.82,2.18,2.20,2.17
100.25,3.84,3.87,1.75,1.78,-1.77,-1.88,-1.90,2.08,2.10,2.09
101.25,3.82,3.82,1.80,1.80,-1.82,-1.96,-1.97,2.00,1.99,2.02
102.27,3.81,3.81,1.87,1.86,-1.88,-2.04,-2.05,1.94,1.93,1.95
103.29,3.79,3.79,1.92,1.92,-1.93,-2.11,-2.12,1.87,1.87,1.87
104.32,3.77,3.78,1.97,1.97,-1.98,-2.19,-2.20,1.80,1.80,1.80
105.37,3.75,3.75,2.03,2.02,-2.02,-2.26,-2.27,1.73,1.73,1.73
106.42,3.73,3.73,2.08,2.07,-2.06,-2.34,-2.35,1.67,1.67,1.66
107.48,3.70,3.71,2.12,2.12,-2.11,-2.41,-2.42,1.60,1.60,1.58
108.56,3.68,3.69,2.17,2.18,-2.15,-2.49,-2.49,1.53,1.54,1.51
109.64,3.66,3.66,2.23,2.22,-2.21,-2.56,-2.56,1.46,1.45,1.44
110.74,3.64,3.61,2.28,2.24,-2.27,-2.64,-2.63,1.38,1.34,1.36
111.85,3.55,3.58,2.26,2.28,-2.34,-2.71,-2.70,1.22,1.24,1.29
112.97,3.53,3.59,2.31,2.36,-2.41,-2.78,-2.77,1.12,1.18,1.22
114.10,3.65,3.62,2.50,2.47,-2.49,-2.86,-2.83,1.17,1.13,1.15
115.24,3.70,3.68,2.63,2.60,-2.57,-2.93,-2.90,1.13,1.11,1.08
116.39,3.70,3.72,2.70,2.71,-2.67,-3.00,-2.96,1.04,1.05,1.01
117.55,3.71,3.71,2.78,2.78,-2.76,-3.07,-3.01,0.95,0.95,0.94
118.73,3.71,3.72,2.85,2.85,-2.86,-3.14,-3.07,0.85,0.85,0.87
119.92,3.72,3.72,2.93,2.93,-2.95,-3.21,-3.12,0.78,0.77,0.80
121.12,3.73,3.73,3.01,3.00,-3.02,-3.28,-3.17,0.72,0.72,0.73
122.33,3.74,3.76,3.08,3.10,-3.07,-3.35,-3.21,0.67,0.69,0.66
123.55,3.77,3.77,3.18,3.18,-3.13,-3.41,-3.26,0.65,0.64,0.59
124.79,3.79,3.75,3.27,3.22,-3.18,-3.48,-3.29,0.61,0.56,0.53
126.03,3.67,3.70,3.21,3.25,-3.25,-3.54,-3.33,0.43,0.46,0.46
127.29,3.64,3.65,3.25,3.25,-3.31,-3.61,-3.36,0.33,0.33,0.39
128.57,3.63,3.64,3.30,3.31,-3.38,-3.67,-3.39,0.25,0.26,0.33
129.85,3.64,3.69,3.38,3.42,-3.45,-3.73,-3.42,0.19,0.23,0.27
131.15,3.78,3.74,3.58,3.54,-3.52,-3.79,-3.44,0.26,0.21,0.20
132.46,3.79,3.78,3.65,3.64,-3.60,-3.85,-3.46,0.19,0.18,0.14
133.79,3.79,3.81,3.72,3.73,-3.69,-3.91,-3.48,0.11,0.12,0.08
135.12,3.79,3.80,3.78,3.78,-3.77,-3.97,-3.50,0.02,0.03,0.02
136.48,3.80,3.80,3.84,3.84,-3.85,-4.03,-3.51,-0.05,-0.05,-0.04
137.84,3.80,3.80,3.90,3.90,-3.92,-4.08,-3.52,-0.11,-0.11,-0.10
139.22,3.80,3.80,3.96,3.96,-3.97,-4.14,-3.54,-0.17,-0.17,-0.16
140.61,3.80,3.81,4.02,4.02,-4.02,-4.19,-3.55,-0.21,-0.21,-0.21
142.02,3.80,3.81,4.07,4.08,-4.06,-4.24,-3.56,-0.25,-0.25,-0.27
143.44,3.81,3.80,4.14,4.13,-4.10,-4.30,-3.57,-0.29,-0.30,-0.32
144.87,3.79,3.77,4.17,4.15,-4.15,-4.35,-3.57,-0.36,-0.38,-0.38
146.32,3.73,3.74,4.16,4.17,-4.20,-4.39,-3.58,-0.47,-0.45,-0.43
147.78,3.70,3.74,4.18,4.21,-4.25,-4.44,-3.59,-0.54,-0.51,-0.47
149.26,3.76,3.75,4.29,4.28,-4.30,-4.49,-3.60,-0.54,-0.55,-0.52
150.75,3.80,3.78,4.38,4.36,-4.35,-4.53,-3.61,-0.55,-0.57,-0.57
152.26,3.80,3.81,4.42,4.43,-4.41,-4.58,-3.63,-0.61,-0.60,-0.62
153.78,3.80,3.81,4.47,4.48,-4.47,-4.62,-3.64,-0.66,-0.66,-0.67
155.32,3.81,3.81,4.53,4.53,-4.52,-4.66,-3.66,-0.71,-0.71,-0.71
156.88,3.81,3.81,4.57,4.57,-4.57,-4.70,-3.67,-0.76,-0.76,-0.76
158.44,3.81,3.82,4.62,4.62,-4.61,-4.74,-3.69,-0.80,-0.79,-0.80
160.03,3.81,3.81,4.66,4.66,-4.64,-4.78,-3.71,-0.83,-0.83,-0.85
161.63,3.80,3.79,4.70,4.68,-4.67,-4.81,-3.74,-0.86,-0.88,-0.90
163.24,3.74,3.75,4.69,4.69,-4.69,-4.85,-3.77,-0.95,-0.94,-0.94
164.88,3.70,3.72,4.69,4.70,-4.71,-4.88,-3.80,-1.01,-1.00,-0.98
166.53,3.69,3.69,4.71,4.71,-4.74,-4.91,-3.83,-1.04,-1.04,-1.02
168.19,3.69,3.68,4.75,4.74,-4.76,-4.94,-3.86,-1.07,-1.08,-1.06
169.87,3.68,3.69,4.78,4.78,-4.78,-4.97,-3.90,-1.10,-1.10,-1.10
171.57,3.67,3.69,4.81,4.82,-4.81,-5.00,-3.94,-1.14,-1.12,-1.13
173.29,3.70,3.69,4.87,4.85,-4.84,-5.03,-3.98,-1.14,-1.16,-1.17
175.02,3.68,3.68,4.89,4.88,-4.88,-5.05,-4.03,-1.19,-1.19,-1.20
176.77,3.66,3.67,4.90,4.91,-4.91,-5.08,-4.08,-1.25,-1.24,-1.24
178.54,3.66,3.66,4.93,4.93,-4.95,-5.10,-4.14,-1.28,-1.29,-1.27
180.32,3.66,3.66,4.97,4.97,-4.98,-5.12,-4.19,-1.32,-1.32,-1.30
182.13,3.67,3.67,5.01,5.01,-5.01,-5.14,-4.25,-1.34,-1.34,-1.33
183.95,3.68,3.69,5.05,5.05,-5.04,-5.16,-4.31,-1.35,-1.35,-1.36
185.79,3.69,3.69,5.08,5.09,-5.06,-5.18,-4.38,-1.37,-1.37,-1.39
187.65,3.70,3.69,5.12,5.11,-5.09,-5.19,-4.45,-1.39,-1.41,-1.42
189.52,3.66,3.67,5.11,5.12,-5.12,-5.21,-4.52,-1.46,-1.45,-1.45
191.42,3.64,3.66,5.12,5.13,-5.15,-5.22,-4.59,-1.51,-1.50,-1.47
193.33,3.65,3.65,5.15,5.15,-5.18,-5.23,-4.67,-1.52,-1.53,-1.50
195.27,3.66,3.67,5.19,5.19,-5.20,-5.25,-4.75,-1.54,-1.54,-1.52
197.22,3.68,3.68,5.23,5.23,-5.22,-5.26,-4.83,-1.54,-1.54,-1.55
199.19,3.69,3.69,5.27,5.27,-5.24,-5.26,-4.92,-1.55,-1.54,-1.57
201.18,3.69,3.69,5.29,5.28,-5.26,-5.27,-5.00,-1.56,-1.57,-1.60
203.19,3.67,3.66,5.29,5.28,-5.28,-5.28,-5.09,-1.60,-1.61,-1.62
205.23,3.62,3.63,5.26,5.27,-5.29,-5.28,-5.18,-1.67,-1.65,-1.64
207.28,3.60,3.61,5.26,5.27,-5.30,-5.29,-5.27,-1.69,-1.68,-1.66
209.35,3.60,3.60,5.28,5.28,-5.29,-5.29,-5.36,-1.69,-1.69,-1.68
211.44,3.60,3.61,5.30,5.31,-5.29,-5.29,-5.45,-1.68,-1.68,-1.70
213.56,3.59,3.59,5.31,5.31,-5.29,-5.29,-5.54,-1.69,-1.69,-1.72
215.69,3.59,3.56,5.33,5.30,-5.29,-5.29,-5.62,-1.69,-1.73,-1.74
217.85,3.49,3.52,5.25,5.27,-5.29,-5.29,-5.71,-1.79,-1.77,-1.75
220.03,3.47,3.49,5.25,5.26,-5.29,-5.29,-5.79,-1.81,-1.80,-1.77
222.23,3.48,3.47,5.27,5.26,-5.28,-5.28,-5.87,-1.80,-1.81,-1.79
224.45,3.48,3.49,5.29,5.29,-5.27,-5.28,-5.95,-1.79,-1.79,-1.80
226.70,3.48,3.48,5.30,5.30,-5.27,-5.27,-6.02,-1.79,-1.79,-1.82
228.96,3.48,3.45,5.32,5.28,-5.28,-5.26,-6.09,-1.80,-1.83,-1.83
231.25,3.40,3.42,5.25,5.27,-5.29,-5.26,-6.16,-1.88,-1.87,-1.85
233.57,3.36,3.40,5.23,5.26,-5.29,-5.25,-6.21,-1.93,-1.89,-1.86
235.90,3.41,3.40,5.30,5.29,-5.30,-5.24,-6.26,-1.88,-1.89,-1.89
238.26,3.43,3.43,5.33,5.33,-5.30,-5.23,-6.30,-1.87,-1.88,-1.90
240.64,3.45,3.42,5.37,5.34,-5.31,-5.21,-6.34,-1.86,-1.89,-1.91
243.05,3.39,3.40,5.32,5.32,-5.33,-5.20,-6.36,-1.93,-1.93,-1.92
245.48,3.34,3.38,5.28,5.31,-5.34,-5.18,-6.38,-2.00,-1.96,-1.94
247.93,3.38,3.38,5.33,5.33,-5.35,-5.17,-6.39,-1.96,-1.97,-1.95
250.41,3.41,3.42,5.37,5.37,-5.35,-5.15,-6.38,-1.93,-1.93,-1.96
252.92,3.44,3.43,5.41,5.39,-5.35,-5.14,-6.37,-1.91,-1.92,-1.97
255.45,3.42,3.39,5.39,5.37,-5.36,-5.12,-6.35,-1.93,-1.96,-1.97
258.00,3.32,3.36,5.30,5.34,-5.36,-5.10,-6.32,-2.04,-2.00,-1.98
260.58,3.31,3.34,5.30,5.33,-5.37,-5.08,-6.28,-2.06,-2.03,-1.99
263.19,3.36,3.34,5.36,5.34,-5.37,-5.06,-6.24,-2.01,-2.03,-2.00
265.82,3.37,3.37,5.38,5.38,-5.37,-5.03,-6.18,-1.99,-2.00,-2.01
268.48,3.36,3.37,5.38,5.39,-5.35,-5.01,-6.12,-1.99,-1.98,-2.01
271.16,3.36,3.35,5.39,5.37,-5.33,-4.99,-6.05,-1.97,-1.98,-2.02
273.87,3.29,3.30,5.32,5.33,-5.30,-4.96,-5.98,-2.01,-2.00,-2.03
276.61,3.24,3.25,5.28,5.29,-5.27,-4.94,-5.90,-2.03,-2.02,-2.04
279.38,3.17,3.19,5.22,5.24,-5.24,-4.91,-5.81,-2.06,-2.04,-2.05
282.17,3.16,3.13,5.22,5.18,-5.20,-4.88,-5.72,-2.04,-2.07,-2.05
284.99,3.07,3.05,5.12,5.10,-5.16,-4.86,-5.63,-2.09,-2.11,-2.05
287.84,2.97,3.02,5.02,5.07,-5.12,-4.83,-5.53,-2.15,-2.10,-2.05
290.72,2.98,3.05,5.04,5.10,-5.09,-4.80,-5.43,-2.11,-2.04,-2.05
293.63,3.13,3.06,5.19,5.11,-5.07,-4.77,-5.33,-1.93,-2.01,-2.06
296.57,3.12,3.04,5.18,5.09,-5.05,-4.74,-5.23,-1.93,-2.01,-2.05
299.53,2.87,2.98,4.92,5.04,-5.04,-4.71,-5.13,-2.16,-2.05,-2.05
302.53,2.90,2.92,4.96,4.97,-5.03,-4.67,-5.03,-2.12,-2.11,-2.06
305.55,2.94,2.91,5.00,4.97,-5.01,-4.64,-4.93,-2.07,-2.10,-2.05
308.61,2.95,2.95,5.01,5.01,-4.98,-4.61,-4.83,-2.03,-2.03,-2.06
311.69,2.94,2.93,5.00,4.98,-4.95,-4.57,-4.73,-2.01,-2.02,-2.05
314.81,2.88,2.88,4.94,4.94,-4.91,-4.54,-4.63,-2.03,-2.03,-2.06
317.96,2.81,2.83,4.86,4.89,-4.87,-4.50,-4.53,-2.06,-2.04,-2.05
321.14,2.77,2.78,4.83,4.83,-4.83,-4.47,-4.43,-2.06,-2.05,-2.06
324.35,2.75,2.73,4.80,4.78,-4.78,-4.43,-4.34,-2.03,-2.05,-2.05
327.59,2.67,2.68,4.71,4.72,-4.73,-4.39,-4.25,-2.05,-2.05,-2.03
330.87,2.61,2.63,4.65,4.66,-4.67,-4.35,-4.16,-2.05,-2.04,-2.04
334.18,2.56,2.57,4.60,4.61,-4.62,-4.32,-4.07,-2.05,-2.04,-2.03
337.52,2.55,2.53,4.59,4.57,-4.57,-4.28,-3.99,-2.02,-2.04,-2.04
340.90,2.48,2.48,4.51,4.51,-4.52,-4.24,-3.91,-2.04,-2.04,-2.03
344.30,2.43,2.43,4.46,4.46,-4.48,-4.20,-3.83,-2.04,-2.04,-2.02
347.75,2.37,2.42,4.39,4.44,-4.43,-4.16,-3.75,-2.05,-2.00,-2.02
351.23,2.41,2.39,4.43,4.41,-4.37,-4.12,-3.68,-1.96,-1.98,-2.02
354.74,2.41,2.32,4.42,4.33,-4.32,-4.08,-3.61,-1.90,-2.00,-2.00
358.28,2.19,2.28,4.20,4.28,-4.26,-4.03,-3.54,-2.07,-1.98,-2.00
361.87,2.14,2.20,4.14,4.20,-4.20,-3.99,-3.48,-2.06,-2.00,-2.00
365.49,2.24,2.11,4.23,4.11,-4.15,-3.95,-3.42,-1.90,-2.03,-1.99
369.14,2.04,2.08,4.04,4.07,-4.08,-3.91,-3.36,-2.04,-2.00,-1.99
372.83,1.95,2.04,3.93,4.02,-4.02,-3.86,-3.30,-2.06,-1.98,-1.98
376.56,2.04,1.97,4.02,3.95,-3.96,-3.82,-3.25,-1.91,-1.98,-1.98
380.33,1.96,1.96,3.93,3.93,-3.91,-3.77,-3.20,-1.94,-1.95,-1.97
384.13,1.89,1.91,3.87,3.87,-3.86,-3.73,-3.15,-1.96,-1.95,-1.97
387.97,1.83,1.82,3.79,3.77,-3.81,-3.68,-3.10,-1.97,-1.99,-1.95
391.85,1.75,1.78,3.69,3.72,-3.75,-3.64,-3.05,-1.99,-1.97,-1.94
395.77,1.73,1.77,3.67,3.70,-3.68,-3.59,-3.01,-1.95,-1.91,-1.94
399.73,1.77,1.72,3.70,3.65,-3.62,-3.55,-2.97,-1.85,-1.90,-1.93
403.72,1.70,1.66,3.63,3.59,-3.56,-3.50,-2.93,-1.86,-1.90,-1.92
407.76,1.49,1.58,3.42,3.50,-3.50,-3.46,-2.90,-2.00,-1.92,-1.92
411.84,1.50,1.48,3.42,3.40,-3.44,-3.41,-2.86,-1.93,-1.96,-1.92
415.96,1.44,1.42,3.35,3.33,-3.37,-3.36,-2.83,-1.93,-1.96,-1.91
420.12,1.36,1.40,3.27,3.31,-3.30,-3.32,-2.80,-1.94,-1.90,-1.91
424.32,1.37,1.38,3.28,3.28,-3.23,-3.27,-2.77,-1.86,-1.86,-1.90
428.56,1.35,1.32,3.25,3.22,-3.17,-3.22,-2.74,-1.82,-1.85,-1.89
432.85,1.28,1.24,3.17,3.12,-3.12,-3.18,-2.71,-1.83,-1.88,-1.88
437.18,1.10,1.17,2.98,3.04,-3.07,-3.13,-2.68,-1.96,-1.90,-1.88
441.55,1.08,1.12,2.95,2.98,-3.03,-3.08,-2.66,-1.95,-1.91,-1.87
445.96,1.16,1.11,3.02,2.96,-3.00,-3.03,-2.63,-1.83,-1.89,-1.86
450.42,1.12,1.13,2.96,2.97,-2.97,-2.99,-2.61,-1.85,-1.84,-1.84
454.93,1.11,1.13,2.94,2.96,-2.96,-2.94,-2.58,-1.84,-1.83,-1.83
459.48,1.12,1.12,2.95,2.94,-2.95,-2.89,-2.56,-1.83,-1.84,-1.82
464.07,1.12,1.13,2.95,2.95,-2.95,-2.84,-2.53,-1.83,-1.82,-1.82
468.71,1.13,1.14,2.95,2.96,-2.94,-2.79,-2.51,-1.81,-1.80,-1.81
473.40,1.15,1.14,2.96,2.95,-2.92,-2.75,-2.48,-1.77,-1.78,-1.81
478.13,1.14,1.14,2.94,2.93,-2.89,-2.70,-2.45,-1.75,-1.75,-1.80
482.91,1.09,1.10,2.87,2.88,-2.86,-2.65,-2.43,-1.77,-1.76,-1.78
487.74,1.06,1.03,2.83,2.80,-2.82,-2.60,-2.40,-1.75,-1.79,-1.77
492.62,0.94,0.97,2.70,2.73,-2.77,-2.55,-2.37,-1.82,-1.80,-1.76
497.55,0.90,0.93,2.65,2.68,-2.71,-2.51,-2.34,-1.80,-1.77,-1.75
502.52,0.92,0.91,2.66,2.64,-2.64,-2.46,-2.31,-1.72,-1.74,-1.74
507.55,0.89,0.87,2.62,2.60,-2.58,-2.41,-2.28,-1.68,-1.70,-1.72
512.62,0.82,0.81,2.54,2.52,-2.51,-2.36,-2.25,-1.69,-1.70,-1.71
517.75,0.70,0.74,2.41,2.43,-2.44,-2.31,-2.22,-1.74,-1.71,-1.70
522.93,0.65,0.67,2.34,2.35,-2.37,-2.27,-2.18,-1.72,-1.70,-1.68
