frequency,raw,error,smoothed,error_smoothed,equalization,parametric_eq,equalized_raw,equalized_smoothed,target
20,-6.09,-9.79,-6.07,-9.77,6.00,1.95,-0.09,-0.07,3.70
21,-5.34,-9.03,-5.36,-9.05,6.00,2.25,0.66,0.64,3.69
22,-4.68,-8.36,-4.69,-8.37,6.00,2.58,1.32,1.31,3.68
23,-4.09,-7.76,-4.07,-7.74,6.00,2.93,1.91,1.93,3.67
24,-3.51,-7.17,-3.49,-7.15,6.00,3.30,2.49,2.51,3.66
25,-2.96,-6.60,-2.96,-6.60,5.91,3.69,2.95,2.95,3.65
26,-2.43,-6.06,-2.47,-6.10,5.72,4.06,3.29,3.25,3.63
27,-2.05,-5.67,-2.03,-5.65,5.44,4.41,3.40,3.41,3.62
28,-1.60,-5.20,-1.64,-5.24,5.14,4.71,3.54,3.51,3.60
29,-1.28,-4.86,-1.28,-4.87,4.84,4.94,3.56,3.56,3.59
30,-0.96,-4.53,-0.97,-4.54,4.54,5.09,3.58,3.57,3.57
31,-0.69,-4.24,-0.69,-4.24,4.24,5.14,3.55,3.55,3.55
32,-0.45,-3.98,-0.44,-3.97,3.97,5.10,3.52,3.53,3.53
33,-0.24,-3.75,-0.22,-3.73,3.73,4.98,3.49,3.51,3.51
34,-0.04,-3.52,-0.02,-3.51,3.51,4.80,3.47,3.49,3.49
35,0.15,-3.31,0.16,-3.30,3.30,4.58,3.45,3.46,3.46
36,0.31,-3.13,0.33,-3.11,3.11,4.32,3.42,3.44,3.44
37,0.47,-2.94,0.48,-2.93,2.93,4.06,3.41,3.41,3.41
38,0.62,-2.76,0.62,-2.77,2.77,3.79,3.39,3.39,3.39
39,0.74,-2.62,0.75,-2.61,2.61,3.53,3.35,3.36,3.36
40,0.87,-2.46,0.86,-2.47,2.47,3.28,3.34,3.33,3.33
41,0.97,-2.33,0.97,-2.33,2.33,3.04,3.30,3.30,3.30
42,1.07,-2.19,1.06,-2.21,2.21,2.82,3.28,3.27,3.27
43,1.10,-2.13,1.14,-2.09,2.09,2.61,3.19,3.23,3.23
44,1.23,-1.97,1.21,-1.99,1.99,2.42,3.22,3.20,3.20
45,1.23,-1.93,1.27,-1.89,1.89,2.24,3.12,3.16,3.16
46,1.36,-1.77,1.33,-1.80,1.80,2.07,3.16,3.13,3.13
47,1.40,-1.69,1.37,-1.72,1.72,1.92,3.13,3.09,3.09
48,1.40,-1.65,1.40,-1.65,1.65,1.78,3.06,3.05,3.05
49,1.40,-1.61,1.42,-1.59,1.59,1.64,2.99,3.01,3.01
50,1.44,-1.53,1.44,-1.53,1.53,1.52,2.98,2.97,2.97
51,1.47,-1.46,1.45,-1.48,1.48,1.40,2.95,2.93,2.93
52,1.47,-1.42,1.46,-1.42,1.42,1.30,2.90,2.89,2.89
53,1.47,-1.37,1.48,-1.36,1.36,1.19,2.84,2.84,2.84
54,1.47,-1.33,1.50,-1.30,1.30,1.10,2.77,2.80,2.80
55,1.49,-1.26,1.53,-1.22,1.22,1.01,2.71,2.75,2.75
56,1.56,-1.15,1.57,-1.14,1.14,0.92,2.70,2.71,2.71
57,1.60,-1.06,1.61,-1.05,1.05,0.84,2.65,2.66,2.66
58,1.60,-1.01,1.66,-0.95,0.95,0.75,2.55,2.61,2.61
59,1.79,-0.77,1.72,-0.85,0.85,0.68,2.64,2.56,2.56
60,1.81,-0.70,1.77,-0.74,0.74,0.60,2.56,2.51,2.51
61,1.81,-0.65,1.82,-0.64,0.64,0.53,2.46,2.46,2.46
62,1.86,-0.55,1.86,-0.55,0.55,0.45,2.41,2.41,2.41
63,1.91,-0.45,1.91,-0.46,0.46,0.38,2.37,2.36,2.36
64,1.93,-0.38,1.94,-0.37,0.37,0.31,2.30,2.31,2.31
65,1.95,-0.31,1.97,-0.29,0.29,0.24,2.24,2.26,2.26
66,2.01,-0.19,1.99,-0.21,0.21,0.17,2.22,2.21,2.21
67,2.04,-0.11,2.02,-0.14,0.14,0.10,2.18,2.15,2.15
68,2.04,-0.06,2.04,-0.06,0.06,0.03,2.10,2.10,2.10
69,2.05,0.01,2.06,0.02,-0.02,-0.03,2.04,2.05,2.05
70,2.09,0.10,2.09,0.09,-0.09,-0.10,2.00,1.99,1.99
71,2.05,0.11,2.11,0.17,-0.17,-0.17,1.88,1.94,1.94
72,2.15,0.27,2.14,0.26,-0.26,-0.24,1.90,1.88,1.88
73,2.15,0.32,2.17,0.34,-0.34,-0.31,1.81,1.83,1.83
74,2.18,0.41,2.20,0.43,-0.43,-0.37,1.76,1.78,1.78
75,2.29,0.57,2.23,0.51,-0.51,-0.44,1.78,1.72,1.72
76,2.26,0.59,2.26,0.59,-0.59,-0.51,1.67,1.67,1.67
77,2.28,0.67,2.28,0.67,-0.67,-0.58,1.61,1.61,1.61
78,2.32,0.76,2.30,0.74,-0.74,-0.65,1.58,1.56,1.56
79,2.28,0.78,2.32,0.81,-0.81,-0.72,1.47,1.50,1.50
80,2.34,0.89,2.33,0.88,-0.88,-0.79,1.47,1.45,1.45
81,2.35,0.95,2.34,0.94,-0.94,-0.86,1.41,1.40,1.40
82,2.33,0.99,2.34,1.00,-1.00,-0.93,1.34,1.34,1.34
83,2.34,1.05,2.34,1.05,-1.05,-1.01,1.29,1.29,1.29
84,2.34,1.10,2.35,1.11,-1.11,-1.08,1.23,1.24,1.24
85,2.33,1.15,2.35,1.17,-1.17,-1.15,1.17,1.19,1.19
86,2.36,1.23,2.35,1.22,-1.22,-1.22,1.14,1.13,1.13
87,2.37,1.29,2.36,1.28,-1.28,-1.30,1.09,1.08,1.08
88,2.37,1.34,2.36,1.33,-1.33,-1.37,1.04,1.03,1.03
89,2.33,1.35,2.36,1.39,-1.39,-1.45,0.95,0.98,0.98
90,2.34,1.41,2.37,1.44,-1.44,-1.53,0.90,0.93,0.93
91,2.43,1.55,2.37,1.49,-1.49,-1.60,0.94,0.88,0.88
92,2.39,1.56,2.37,1.54,-1.54,-1.68,0.85,0.83,0.83
93,2.35,1.57,2.37,1.59,-1.59,-1.76,0.76,0.78,0.78
94,2.32,1.59,2.37,1.64,-1.64,-1.84,0.68,0.73,0.73
95,2.37,1.69,2.37,1.69,-1.69,-1.91,0.68,0.68,0.68
96,2.39,1.76,2.38,1.74,-1.74,-1.99,0.65,0.64,0.64
97,2.39,1.80,2.39,1.80,-1.80,-2.07,0.59,0.59,0.59
98,2.40,1.86,2.40,1.86,-1.86,-2.15,0.54,0.54,0.54
99,2.44,1.95,2.42,1.93,-1.93,-2.23,0.51,0.49,0.50
100,2.42,1.97,2.44,2.00,-2.00,-2.31,0.43,0.44,0.45
101,2.46,2.06,2.46,2.07,-2.07,-2.38,0.39,0.39,0.41
102,2.47,2.11,2.49,2.14,-2.14,-2.46,0.33,0.34,0.36
104,2.51,2.24,2.51,2.22,-2.22,-2.62,0.29,0.29,0.28
105,2.53,2.30,2.54,2.29,-2.29,-2.69,0.24,0.24,0.23
106,2.58,2.39,2.56,2.37,-2.37,-2.76,0.22,0.20,0.19
107,2.60,2.45,2.59,2.43,-2.43,-2.84,0.17,0.15,0.15
108,2.60,2.49,2.61,2.50,-2.50,-2.91,0.10,0.11,0.11
109,2.63,2.56,2.63,2.56,-2.56,-2.98,0.07,0.07,0.07
110,2.67,2.64,2.65,2.62,-2.62,-3.04,0.06,0.03,0.03
111,2.64,2.65,2.66,2.67,-2.67,-3.11,-0.03,-0.01,-0.01
112,2.65,2.70,2.68,2.73,-2.73,-3.17,-0.08,-0.05,-0.05
113,2.72,2.81,2.70,2.79,-2.79,-3.23,-0.07,-0.09,-0.08
114,2.71,2.83,2.72,2.85,-2.85,-3.29,-0.14,-0.13,-0.12
115,2.70,2.86,2.74,2.91,-2.91,-3.34,-0.21,-0.17,-0.16
117,2.81,3.04,2.77,2.98,-2.98,-3.45,-0.16,-0.21,-0.23
118,2.78,3.04,2.79,3.04,-3.04,-3.49,-0.26,-0.25,-0.26
119,2.81,3.11,2.81,3.10,-3.10,-3.53,-0.29,-0.29,-0.30
120,2.84,3.17,2.83,3.17,-3.17,-3.57,-0.32,-0.33,-0.33
121,2.83,3.19,2.85,3.23,-3.23,-3.61,-0.40,-0.37,-0.36
123,2.89,3.32,2.87,3.29,-3.29,-3.67,-0.39,-0.41,-0.43
124,2.89,3.35,2.89,3.34,-3.34,-3.70,-0.45,-0.45,-0.46
125,2.89,3.38,2.91,3.40,-3.40,-3.72,-0.51,-0.49,-0.49
126,2.93,3.45,2.93,3.45,-3.45,-3.74,-0.52,-0.53,-0.52
128,2.93,3.51,2.94,3.50,-3.50,-3.78,-0.57,-0.56,-0.57
129,2.96,3.56,2.96,3.55,-3.55,-3.79,-0.59,-0.60,-0.60
130,2.99,3.62,2.97,3.60,-3.60,-3.80,-0.61,-0.63,-0.63
131,2.95,3.61,2.98,3.65,-3.65,-3.80,-0.70,-0.67,-0.66
133,3.00,3.71,2.99,3.69,-3.69,-3.81,-0.69,-0.70,-0.71
134,3.02,3.76,3.00,3.73,-3.73,-3.81,-0.71,-0.74,-0.74
135,3.00,3.76,3.00,3.77,-3.77,-3.81,-0.77,-0.77,-0.76
137,2.96,3.77,3.01,3.82,-3.82,-3.80,-0.85,-0.81,-0.81
138,3.02,3.86,3.02,3.86,-3.86,-3.80,-0.84,-0.84,-0.84
140,3.05,3.93,3.03,3.90,-3.90,-3.78,-0.85,-0.87,-0.88
141,3.01,3.92,3.04,3.94,-3.94,-3.77,-0.93,-0.90,-0.90
142,3.03,3.96,3.05,3.98,-3.98,-3.76,-0.95,-0.94,-0.93
144,3.10,4.07,3.06,4.03,-4.03,-3.74,-0.92,-0.97,-0.97
145,3.06,4.05,3.07,4.06,-4.06,-3.73,-1.00,-1.00,-0.99
147,3.05,4.08,3.07,4.10,-4.10,-3.71,-1.05,-1.03,-1.03
148,3.08,4.13,3.08,4.13,-4.13,-3.70,-1.05,-1.06,-1.05
150,3.10,4.19,3.08,4.16,-4.16,-3.68,-1.06,-1.08,-1.09
151,3.08,4.19,3.07,4.19,-4.19,-3.67,-1.10,-1.11,-1.11
153,3.06,4.21,3.07,4.21,-4.21,-3.66,-1.14,-1.14,-1.14
154,3.06,4.22,3.06,4.22,-4.22,-3.65,-1.16,-1.17,-1.16
156,3.05,4.25,3.04,4.24,-4.24,-3.63,-1.19,-1.19,-1.20
157,3.01,4.23,3.03,4.25,-4.25,-3.63,-1.24,-1.22,-1.21
159,3.00,4.25,3.02,4.26,-4.26,-3.62,-1.26,-1.24,-1.25
160,2.99,4.25,3.01,4.28,-4.28,-3.61,-1.28,-1.27,-1.26
162,3.01,4.30,3.00,4.29,-4.29,-3.61,-1.28,-1.29,-1.29
164,3.02,4.34,2.99,4.30,-4.30,-3.61,-1.28,-1.32,-1.32
165,2.99,4.33,2.98,4.32,-4.32,-3.61,-1.32,-1.34,-1.34
167,2.95,4.32,2.97,4.33,-4.33,-3.61,-1.38,-1.36,-1.36
169,2.92,4.31,2.96,4.34,-4.34,-3.62,-1.42,-1.39,-1.39
170,2.92,4.33,2.95,4.36,-4.36,-3.63,-1.44,-1.41,-1.40
172,2.97,4.40,2.94,4.37,-4.37,-3.64,-1.40,-1.43,-1.43
174,2.97,4.43,2.94,4.39,-4.39,-3.66,-1.41,-1.45,-1.45
175,2.94,4.41,2.93,4.40,-4.40,-3.67,-1.46,-1.47,-1.47
177,2.90,4.39,2.92,4.41,-4.41,-3.69,-1.51,-1.49,-1.49
179,2.89,4.40,2.92,4.43,-4.43,-3.72,-1.54,-1.51,-1.51
181,2.90,4.43,2.91,4.44,-4.44,-3.75,-1.54,-1.53,-1.53
183,2.92,4.48,2.91,4.46,-4.46,-3.78,-1.54,-1.55,-1.55
184,2.91,4.48,2.91,4.47,-4.47,-3.80,-1.56,-1.57,-1.56
186,2.91,4.49,2.90,4.49,-4.49,-3.84,-1.58,-1.58,-1.58
188,2.89,4.49,2.90,4.50,-4.50,-3.88,-1.61,-1.60,-1.60
190,2.89,4.51,2.90,4.52,-4.52,-3.92,-1.63,-1.62,-1.62
192,2.92,4.56,2.90,4.53,-4.53,-3.97,-1.61,-1.64,-1.64
194,2.89,4.55,2.89,4.55,-4.55,-4.01,-1.66,-1.65,-1.65
196,2.87,4.54,2.89,4.56,-4.56,-4.06,-1.69,-1.67,-1.67
198,2.87,4.56,2.89,4.58,-4.58,-4.11,-1.71,-1.69,-1.69
200,2.87,4.57,2.89,4.59,-4.59,-4.17,-1.72,-1.70,-1.70
202,2.91,4.63,2.89,4.60,-4.60,-4.22,-1.69,-1.72,-1.72
204,2.91,4.64,2.88,4.61,-4.61,-4.27,-1.70,-1.73,-1.73
206,2.89,4.64,2.88,4.62,-4.62,-4.33,-1.73,-1.74,-1.74
208,2.86,4.62,2.87,4.62,-4.62,-4.38,-1.76,-1.76,-1.76
210,2.84,4.61,2.85,4.62,-4.62,-4.44,-1.78,-1.77,-1.77
212,2.83,4.62,2.84,4.62,-4.62,-4.49,-1.79,-1.78,-1.78
214,2.81,4.61,2.82,4.62,-4.62,-4.54,-1.81,-1.80,-1.80
216,2.80,4.61,2.81,4.61,-4.61,-4.59,-1.81,-1.81,-1.81
218,2.78,4.60,2.79,4.61,-4.61,-4.64,-1.83,-1.82,-1.82
221,2.77,4.61,2.77,4.60,-4.60,-4.72,-1.83,-1.83,-1.83
223,2.76,4.61,2.75,4.59,-4.59,-4.76,-1.83,-1.84,-1.84
225,2.74,4.60,2.72,4.58,-4.58,-4.80,-1.84,-1.85,-1.85
227,2.69,4.56,2.70,4.56,-4.56,-4.84,-1.87,-1.87,-1.86
229,2.68,4.56,2.67,4.55,-4.55,-4.88,-1.87,-1.88,-1.87
232,2.61,4.50,2.64,4.53,-4.53,-4.93,-1.92,-1.89,-1.89
234,2.60,4.50,2.61,4.51,-4.51,-4.95,-1.90,-1.90,-1.90
236,2.58,4.49,2.58,4.48,-4.48,-4.98,-1.90,-1.91,-1.90
239,2.56,4.48,2.54,4.46,-4.46,-5.00,-1.89,-1.92,-1.92
241,2.51,4.44,2.50,4.43,-4.43,-5.02,-1.92,-1.93,-1.92
244,2.45,4.39,2.47,4.40,-4.40,-5.03,-1.95,-1.93,-1.94
246,2.41,4.36,2.43,4.37,-4.37,-5.03,-1.96,-1.94,-1.94
248,2.39,4.34,2.39,4.34,-4.34,-5.03,-1.95,-1.95,-1.95
251,2.36,4.32,2.35,4.31,-4.31,-5.01,-1.95,-1.96,-1.96
253,2.32,4.29,2.31,4.27,-4.27,-5.00,-1.95,-1.97,-1.97
256,2.24,4.22,2.26,4.24,-4.24,-4.97,-2.00,-1.98,-1.98
259,2.22,4.21,2.22,4.21,-4.21,-4.93,-1.98,-1.98,-1.99
261,2.18,4.17,2.18,4.17,-4.17,-4.91,-1.99,-1.99,-1.99
264,2.13,4.13,2.14,4.14,-4.14,-4.86,-2.00,-2.00,-2.00
266,2.10,4.11,2.10,4.10,-4.10,-4.82,-2.00,-2.01,-2.00
269,2.05,4.06,2.05,4.07,-4.07,-4.76,-2.01,-2.01,-2.01
272,2.03,4.05,2.01,4.03,-4.03,-4.69,-2.00,-2.02,-2.02
274,1.96,3.99,1.97,4.00,-4.00,-4.64,-2.03,-2.03,-2.02
277,1.91,3.94,1.93,3.96,-3.96,-4.57,-2.05,-2.03,-2.03
280,1.88,3.92,1.89,3.93,-3.93,-4.49,-2.05,-2.04,-2.04
283,1.86,3.91,1.85,3.89,-3.89,-4.41,-2.03,-2.04,-2.04
286,1.81,3.86,1.81,3.86,-3.86,-4.33,-2.05,-2.05,-2.05
288,1.78,3.84,1.77,3.83,-3.83,-4.27,-2.05,-2.06,-2.05
291,1.73,3.79,1.74,3.80,-3.80,-4.19,-2.07,-2.06,-2.06
294,1.70,3.77,1.70,3.77,-3.77,-4.10,-2.06,-2.07,-2.07
297,1.67,3.74,1.66,3.74,-3.74,-4.02,-2.06,-2.07,-2.07
300,1.63,3.71,1.63,3.71,-3.71,-3.93,-2.07,-2.08,-2.08
303,1.58,3.66,1.60,3.68,-3.68,-3.85,-2.10,-2.08,-2.08
306,1.54,3.63,1.56,3.65,-3.65,-3.77,-2.11,-2.09,-2.09
309,1.53,3.62,1.53,3.62,-3.62,-3.68,-2.09,-2.09,-2.09
312,1.53,3.63,1.50,3.60,-3.60,-3.60,-2.06,-2.10,-2.10
316,1.48,3.58,1.47,3.57,-3.57,-3.50,-2.09,-2.10,-2.10
319,1.44,3.55,1.44,3.55,-3.55,-3.42,-2.11,-2.10,-2.10
322,1.39,3.50,1.42,3.52,-3.52,-3.35,-2.13,-2.11,-2.11
325,1.36,3.47,1.39,3.50,-3.50,-3.27,-2.14,-2.11,-2.11
328,1.36,3.48,1.36,3.48,-3.48,-3.20,-2.12,-2.12,-2.12
332,1.35,3.47,1.33,3.46,-3.46,-3.11,-2.10,-2.12,-2.12
335,1.34,3.47,1.31,3.43,-3.43,-3.04,-2.09,-2.12,-2.12
338,1.28,3.41,1.28,3.41,-3.41,-2.98,-2.12,-2.13,-2.13
342,1.21,3.34,1.25,3.38,-3.38,-2.90,-2.17,-2.13,-2.13
345,1.20,3.34,1.22,3.35,-3.35,-2.84,-2.15,-2.13,-2.13
349,1.20,3.34,1.18,3.32,-3.32,-2.76,-2.12,-2.14,-2.14
352,1.20,3.34,1.15,3.29,-3.29,-2.71,-2.09,-2.14,-2.14
356,1.10,3.25,1.11,3.26,-3.26,-2.64,-2.16,-2.14,-2.14
359,1.02,3.17,1.08,3.23,-3.23,-2.59,-2.20,-2.15,-2.15
363,1.02,3.17,1.04,3.19,-3.19,-2.53,-2.17,-2.15,-2.15
366,1.02,3.17,1.00,3.16,-3.16,-2.48,-2.13,-2.15,-2.15
370,1.01,3.17,0.96,3.12,-3.12,-2.42,-2.11,-2.16,-2.16
374,0.91,3.07,0.92,3.08,-3.08,-2.37,-2.17,-2.16,-2.16
377,0.85,3.01,0.88,3.04,-3.04,-2.33,-2.19,-2.16,-2.16
381,0.85,3.02,0.83,3.00,-3.00,-2.28,-2.15,-2.17,-2.17
385,0.80,2.97,0.78,2.95,-2.95,-2.23,-2.15,-2.17,-2.17
389,0.70,2.87,0.74,2.91,-2.91,-2.18,-2.21,-2.17,-2.17
393,0.68,2.86,0.69,2.86,-2.86,-2.14,-2.18,-2.17,-2.17
397,0.65,2.83,0.63,2.81,-2.81,-2.10,-2.16,-2.18,-2.18
401,0.57,2.75,0.58,2.76,-2.76,-2.06,-2.19,-2.18,-2.18
405,0.52,2.70,0.53,2.72,-2.72,-2.02,-2.19,-2.18,-2.18
409,0.51,2.70,0.48,2.67,-2.67,-1.99,-2.16,-2.19,-2.19
413,0.44,2.63,0.43,2.62,-2.62,-1.95,-2.18,-2.19,-2.19
417,0.34,2.53,0.38,2.57,-2.57,-1.92,-2.23,-2.19,-2.19
421,0.33,2.52,0.33,2.52,-2.52,-1.89,-2.19,-2.19,-2.19
425,0.29,2.48,0.28,2.47,-2.47,-1.86,-2.18,-2.19,-2.19
430,0.23,2.42,0.22,2.42,-2.42,-1.82,-2.18,-2.19,-2.19
434,0.16,2.35,0.17,2.36,-2.36,-1.80,-2.20,-2.19,-2.19
438,0.15,2.34,0.12,2.31,-2.31,-1.77,-2.16,-2.19,-2.19
443,0.05,2.24,0.07,2.26,-2.26,-1.74,-2.20,-2.19,-2.19
447,0.01,2.20,0.02,2.20,-2.20,-1.72,-2.19,-2.19,-2.19
451,-0.04,2.14,-0.03,2.16,-2.16,-1.69,-2.19,-2.18,-2.18
456,-0.09,2.09,-0.07,2.11,-2.11,-1.66,-2.20,-2.18,-2.18
460,-0.12,2.06,-0.11,2.06,-2.06,-1.64,-2.18,-2.17,-2.17
465,-0.16,2.01,-0.15,2.02,-2.02,-1.61,-2.18,-2.17,-2.17
470,-0.17,1.99,-0.18,1.98,-1.98,-1.59,-2.15,-2.16,-2.16
474,-0.18,1.97,-0.22,1.94,-1.94,-1.56,-2.12,-2.15,-2.15
479,-0.26,1.89,-0.25,1.89,-1.89,-1.54,-2.15,-2.14,-2.14
484,-0.30,1.84,-0.29,1.85,-1.85,-1.51,-2.14,-2.13,-2.13
489,-0.32,1.80,-0.33,1.80,-1.80,-1.48,-2.11,-2.12,-2.12
494,-0.34,1.77,-0.37,1.75,-1.75,-1.46,-2.08,-2.11,-2.11
499,-0.43,1.67,-0.40,1.69,-1.69,-1.43,-2.12,-2.10,-2.10
504,-0.45,1.63,-0.44,1.64,-1.64,-1.41,-2.09,-2.08,-2.08
509,-0.48,1.59,-0.48,1.59,-1.59,-1.38,-2.06,-2.07,-2.07
514,-0.54,1.51,-0.52,1.53,-1.53,-1.35,-2.07,-2.05,-2.05
519,-0.57,1.46,-0.55,1.48,-1.48,-1.33,-2.05,-2.03,-2.03
524,-0.57,1.45,-0.58,1.43,-1.43,-1.30,-2.00,-2.01,-2.01
529,-0.59,1.41,-0.62,1.38,-1.38,-1.27,-1.97,-1.99,-1.99
535,-0.67,1.31,-0.65,1.33,-1.33,-1.24,-1.99,-1.97,-1.97
540,-0.67,1.28,-0.68,1.27,-1.27,-1.22,-1.94,-1.95,-1.95
545,-0.72,1.21,-0.71,1.22,-1.22,-1.19,-1.94,-1.93,-1.93
551,-0.79,1.12,-0.75,1.16,-1.16,-1.16,-1.95,-1.91,-1.91
556,-0.75,1.13,-0.79,1.10,-1.10,-1.13,-1.84,-1.88,-1.88
562,-0.82,1.04,-0.83,1.03,-1.03,-1.10,-1.85,-1.86,-1.86
568,-0.87,0.96,-0.87,0.96,-0.96,-1.07,-1.82,-1.83,-1.83
573,-0.89,0.91,-0.92,0.88,-0.88,-1.04,-1.77,-1.80,-1.80
579,-0.99,0.79,-0.98,0.80,-0.80,-1.01,-1.79,-1.78,-1.78
585,-1.03,0.72,-1.03,0.72,-0.72,-0.98,-1.75,-1.75,-1.75
591,-1.13,0.59,-1.08,0.64,-0.64,-0.95,-1.76,-1.72,-1.72
596,-1.13,0.56,-1.14,0.55,-0.55,-0.93,-1.68,-1.69,-1.69
602,-1.17,0.49,-1.19,0.47,-0.47,-0.90,-1.64,-1.66,-1.66
608,-1.26,0.37,-1.24,0.39,-0.39,-0.87,-1.65,-1.63,-1.63
615,-1.29,0.31,-1.28,0.31,-0.31,-0.83,-1.60,-1.60,-1.60
621,-1.30,0.27,-1.33,0.24,-0.24,-0.81,-1.53,-1.56,-1.56
627,-1.37,0.16,-1.37,0.16,-0.16,-0.78,-1.53,-1.53,-1.53
633,-1.43,0.07,-1.42,0.08,-0.08,-0.75,-1.51,-1.50,-1.50
639,-1.48,-0.01,-1.46,0.01,-0.01,-0.72,-1.49,-1.47,-1.47
646,-1.50,-0.07,-1.50,-0.07,0.07,-0.69,-1.43,-1.43,-1.43
652,-1.52,-0.12,-1.54,-0.14,0.14,-0.67,-1.38,-1.40,-1.40
659,-1.59,-0.23,-1.58,-0.21,0.21,-0.64,-1.37,-1.36,-1.36
665,-1.59,-0.26,-1.61,-0.29,0.29,-0.61,-1.30,-1.33,-1.33
672,-1.68,-0.39,-1.65,-0.36,0.36,-0.58,-1.32,-1.29,-1.29
679,-1.65,-0.39,-1.68,-0.43,0.43,-0.56,-1.22,-1.25,-1.25
686,-1.72,-0.50,-1.71,-0.49,0.49,-0.53,-1.22,-1.22,-1.22
692,-1.75,-0.57,-1.74,-0.56,0.56,-0.51,-1.19,-1.18,-1.18
699,-1.76,-0.62,-1.76,-0.62,0.62,-0.48,-1.14,-1.14,-1.14
706,-1.77,-0.66,-1.78,-0.67,0.67,-0.45,-1.09,-1.10,-1.10
713,-1.79,-0.72,-1.79,-0.72,0.72,-0.43,-1.06,-1.07,-1.07
721,-1.83,-0.80,-1.80,-0.77,0.77,-0.40,-1.06,-1.03,-1.03
728,-1.81,-0.82,-1.80,-0.81,0.81,-0.37,-1.00,-0.99,-0.99
735,-1.79,-0.83,-1.80,-0.85,0.85,-0.35,-0.94,-0.95,-0.95
742,-1.79,-0.87,-1.79,-0.88,0.88,-0.33,-0.91,-0.92,-0.92
750,-1.77,-0.89,-1.78,-0.90,0.90,-0.30,-0.87,-0.88,-0.88
757,-1.76,-0.92,-1.76,-0.92,0.92,-0.28,-0.84,-0.84,-0.84
765,-1.77,-0.96,-1.75,-0.94,0.94,-0.25,-0.83,-0.81,-0.81
773,-1.74,-0.97,-1.72,-0.96,0.96,-0.23,-0.78,-0.77,-0.77
780,-1.71,-0.98,-1.70,-0.97,0.97,-0.21,-0.74,-0.73,-0.73
788,-1.62,-0.92,-1.67,-0.98,0.98,-0.18,-0.64,-0.70,-0.70
796,-1.63,-0.97,-1.64,-0.98,0.98,-0.16,-0.65,-0.66,-0.66
804,-1.63,-1.00,-1.61,-0.98,0.98,-0.14,-0.65,-0.63,-0.63
812,-1.58,-0.98,-1.57,-0.98,0.98,-0.12,-0.60,-0.59,-0.59
820,-1.58,-1.02,-1.53,-0.97,0.97,-0.09,-0.61,-0.56,-0.56
828,-1.51,-0.98,-1.48,-0.95,0.95,-0.07,-0.56,-0.53,-0.53
837,-1.39,-0.89,-1.42,-0.93,0.93,-0.05,-0.46,-0.50,-0.50
845,-1.34,-0.87,-1.37,-0.90,0.90,-0.04,-0.44,-0.47,-0.47
853,-1.31,-0.87,-1.30,-0.87,0.87,-0.02,-0.44,-0.44,-0.44
862,-1.24,-0.83,-1.24,-0.84,0.84,-0.00,-0.40,-0.41,-0.41
871,-1.18,-0.80,-1.18,-0.80,0.80,0.02,-0.38,-0.38,-0.38
879,-1.12,-0.77,-1.11,-0.76,0.76,0.03,-0.36,-0.35,-0.35
888,-1.04,-0.72,-1.04,-0.72,0.72,0.04,-0.31,-0.32,-0.32
897,-0.97,-0.68,-0.97,-0.68,0.68,0.06,-0.28,-0.29,-0.29
906,-0.90,-0.64,-0.90,-0.64,0.64,0.07,-0.26,-0.26,-0.26
915,-0.83,-0.59,-0.83,-0.60,0.60,0.08,-0.23,-0.24,-0.24
924,-0.76,-0.55,-0.76,-0.55,0.55,0.08,-0.21,-0.21,-0.21
933,-0.69,-0.51,-0.68,-0.50,0.50,0.09,-0.19,-0.18,-0.18
943,-0.61,-0.45,-0.60,-0.45,0.45,0.09,-0.16,-0.16,-0.16
952,-0.52,-0.39,-0.51,-0.38,0.38,0.09,-0.13,-0.13,-0.13
962,-0.43,-0.33,-0.42,-0.32,0.32,0.09,-0.11,-0.10,-0.10
971,-0.30,-0.22,-0.32,-0.24,0.24,0.09,-0.05,-0.08,-0.08
981,-0.24,-0.19,-0.21,-0.17,0.17,0.09,-0.07,-0.05,-0.05
991,-0.11,-0.09,-0.10,-0.08,0.08,0.08,-0.03,-0.02,-0.02
1001,0.01,0.01,0.02,0.01,-0.01,0.07,0.00,0.00,0.00
1011,0.12,0.09,0.14,0.11,-0.11,0.06,0.02,0.03,0.03
1021,0.24,0.18,0.26,0.20,-0.20,0.05,0.04,0.06,0.06
1031,0.43,0.35,0.38,0.30,-0.30,0.03,0.14,0.09,0.09
1041,0.48,0.37,0.50,0.39,-0.39,0.02,0.09,0.11,0.11
1052,0.67,0.53,0.62,0.48,-0.48,-0.01,0.19,0.14,0.14
1062,0.71,0.54,0.74,0.57,-0.57,-0.03,0.15,0.17,0.17
1073,0.86,0.66,0.85,0.65,-0.65,-0.05,0.21,0.20,0.20
1084,0.94,0.71,0.95,0.73,-0.73,-0.08,0.22,0.23,0.23
1094,1.05,0.80,1.06,0.80,-0.80,-0.10,0.25,0.26,0.26
1105,1.14,0.86,1.16,0.87,-0.87,-0.13,0.27,0.29,0.29
1116,1.26,0.95,1.26,0.94,-0.94,-0.17,0.32,0.32,0.32
1128,1.37,1.03,1.36,1.01,-1.01,-0.20,0.36,0.35,0.35
1139,1.45,1.08,1.45,1.08,-1.08,-0.24,0.38,0.38,0.38
1150,1.53,1.12,1.55,1.14,-1.14,-0.27,0.39,0.41,0.41
1162,1.65,1.21,1.64,1.21,-1.21,-0.31,0.45,0.44,0.44
1173,1.76,1.29,1.74,1.27,-1.27,-0.35,0.49,0.47,0.47
1185,1.84,1.34,1.84,1.33,-1.33,-0.39,0.51,0.50,0.50
1197,1.88,1.35,1.93,1.40,-1.40,-0.43,0.48,0.53,0.53
1209,2.01,1.45,2.03,1.46,-1.46,-0.48,0.55,0.57,0.57
1221,2.14,1.54,2.13,1.53,-1.53,-0.52,0.62,0.60,0.60
1233,2.27,1.64,2.22,1.59,-1.59,-0.57,0.68,0.63,0.63
1246,2.31,1.65,2.32,1.65,-1.65,-0.62,0.66,0.67,0.67
1258,2.38,1.68,2.41,1.71,-1.71,-0.66,0.67,0.70,0.70
1271,2.51,1.78,2.50,1.77,-1.77,-0.71,0.74,0.73,0.73
1283,2.58,1.81,2.60,1.83,-1.83,-0.76,0.76,0.77,0.77
1296,2.68,1.88,2.69,1.88,-1.88,-0.81,0.80,0.80,0.80
1309,2.77,1.93,2.77,1.93,-1.93,-0.86,0.84,0.84,0.84
1322,2.86,1.99,2.86,1.98,-1.98,-0.92,0.88,0.88,0.88
1335,2.94,2.03,2.94,2.03,-2.03,-0.97,0.91,0.91,0.91
1349,3.03,2.08,3.02,2.07,-2.07,-1.03,0.96,0.95,0.95
1362,3.11,2.13,3.09,2.11,-2.11,-1.08,1.00,0.98,0.98
1376,3.17,2.15,3.16,2.14,-2.14,-1.14,1.03,1.02,1.02
1390,3.21,2.15,3.23,2.17,-2.17,-1.20,1.04,1.06,1.06
1404,3.29,2.19,3.29,2.20,-2.20,-1.26,1.10,1.10,1.10
1418,3.36,2.23,3.35,2.22,-2.22,-1.32,1.14,1.14,1.14
1432,3.41,2.24,3.42,2.24,-2.24,-1.38,1.17,1.17,1.17
1446,3.45,2.24,3.48,2.26,-2.26,-1.44,1.19,1.21,1.21
1461,3.53,2.28,3.54,2.29,-2.29,-1.51,1.25,1.25,1.25
1475,3.61,2.32,3.60,2.31,-2.31,-1.57,1.30,1.29,1.29
1490,3.66,2.33,3.66,2.33,-2.33,-1.63,1.33,1.33,1.33
1505,3.74,2.37,3.73,2.35,-2.35,-1.70,1.39,1.37,1.37
1520,3.81,2.40,3.79,2.37,-2.37,-1.77,1.44,1.42,1.42
1535,3.85,2.40,3.85,2.39,-2.39,-1.83,1.46,1.46,1.46
1550,3.89,2.39,3.91,2.42,-2.42,-1.90,1.48,1.50,1.50
1566,3.96,2.42,3.98,2.44,-2.44,-1.97,1.52,1.54,1.54
1582,4.05,2.47,4.05,2.46,-2.46,-2.04,1.59,1.58,1.58
1597,4.11,2.48,4.12,2.49,-2.49,-2.11,1.62,1.63,1.63
1613,4.19,2.52,4.19,2.52,-2.52,-2.18,1.67,1.67,1.67
1629,4.28,2.57,4.27,2.55,-2.55,-2.25,1.73,1.71,1.71
1646,4.34,2.58,4.35,2.59,-2.59,-2.32,1.75,1.76,1.76
1662,4.43,2.63,4.43,2.62,-2.62,-2.39,1.81,1.80,1.80
1679,4.52,2.67,4.51,2.66,-2.66,-2.46,1.86,1.85,1.85
1696,4.57,2.68,4.59,2.70,-2.70,-2.52,1.88,1.90,1.90
1713,4.69,2.75,4.68,2.73,-2.73,-2.59,1.96,1.94,1.94
1730,4.75,2.76,4.77,2.77,-2.77,-2.65,1.98,1.99,1.99
1747,4.84,2.80,4.86,2.82,-2.82,-2.72,2.03,2.04,2.04
1764,4.94,2.85,4.95,2.86,-2.86,-2.78,2.08,2.09,2.09
1782,5.05,2.91,5.04,2.90,-2.90,-2.84,2.15,2.14,2.14
1800,5.14,2.95,5.14,2.95,-2.95,-2.89,2.20,2.19,2.19
1818,5.24,3.00,5.23,2.99,-2.99,-2.95,2.25,2.24,2.25
1836,5.33,3.03,5.33,3.03,-3.03,-2.99,2.30,2.30,2.30
