frequency,raw,error,smoothed,error_smoothed,equalization,parametric_eq,equalized_raw,equalized_smoothed,target
20.00,6.17,5.72,6.29,5.90,-5.90,-3.06,0.27,0.39,0.45
20.20,6.26,5.81,6.34,5.95,-5.95,-3.15,0.31,0.40,0.45
20.40,6.36,5.91,6.39,6.00,-6.00,-3.23,0.36,0.40,0.45
20.61,6.44,6.00,6.44,6.04,-6.04,-3.32,0.40,0.40,0.44
20.81,6.55,6.10,6.49,6.08,-6.08,-3.41,0.46,0.40,0.44
21.02,6.63,6.18,6.53,6.13,-6.13,-3.50,0.50,0.40,0.44
21.23,6.68,6.23,6.57,6.16,-6.16,-3.60,0.51,0.41,0.44
21.44,6.72,6.28,6.61,6.20,-6.20,-3.70,0.52,0.41,0.44
21.66,6.76,6.32,6.64,6.24,-6.24,-3.80,0.52,0.41,0.44
21.87,6.81,6.37,6.68,6.27,-6.27,-3.90,0.54,0.41,0.44
22.09,6.81,6.37,6.71,6.30,-6.30,-4.01,0.51,0.41,0.44
22.31,6.75,6.31,6.74,6.32,-6.32,-4.12,0.42,0.41,0.44
22.54,6.69,6.25,6.75,6.34,-6.34,-4.23,0.35,0.41,0.44
22.76,6.64,6.20,6.76,6.35,-6.35,-4.34,0.28,0.40,0.43
22.99,6.58,6.14,6.77,6.37,-6.37,-4.46,0.21,0.40,0.43
23.22,6.66,6.22,6.78,6.38,-6.38,-4.58,0.28,0.40,0.43
23.45,6.74,6.31,6.79,6.39,-6.39,-4.70,0.34,0.39,0.43
23.69,6.82,6.40,6.80,6.41,-6.41,-4.83,0.42,0.39,0.43
23.92,6.91,6.48,6.82,6.43,-6.43,-4.96,0.48,0.39,0.43
24.16,6.94,6.51,6.84,6.45,-6.45,-5.09,0.48,0.39,0.43
24.40,6.94,6.51,6.87,6.48,-6.48,-5.22,0.46,0.39,0.43
24.65,6.94,6.51,6.91,6.50,-6.50,-5.35,0.43,0.40,0.42
24.89,6.94,6.51,6.94,6.52,-6.52,-5.49,0.41,0.42,0.42
25.14,6.95,6.53,6.97,6.54,-6.54,-5.63,0.41,0.43,0.42
25.39,6.96,6.54,6.99,6.55,-6.55,-5.76,0.40,0.44,0.42
25.65,6.98,6.56,7.00,6.57,-6.57,-5.90,0.41,0.43,0.42
25.91,6.99,6.57,6.99,6.58,-6.58,-6.04,0.41,0.41,0.42
26.16,7.01,6.59,6.98,6.58,-6.58,-6.18,0.43,0.40,0.41
26.43,7.02,6.60,6.97,6.58,-6.58,-6.32,0.43,0.38,0.41
26.69,7.03,6.62,6.96,6.59,-6.59,-6.46,0.44,0.38,0.41
26.96,7.04,6.63,6.97,6.59,-6.59,-6.60,0.45,0.38,0.41
27.23,7.00,6.59,6.98,6.60,-6.60,-6.73,0.40,0.38,0.41
27.50,6.95,6.54,6.99,6.61,-6.61,-6.86,0.34,0.38,0.41
27.77,6.90,6.49,7.01,6.62,-6.62,-6.99,0.28,0.39,0.40
28.05,6.87,6.46,7.02,6.63,-6.63,-7.12,0.23,0.39,0.40
28.33,6.95,6.55,7.03,6.65,-6.65,-7.23,0.29,0.38,0.40
28.62,7.02,6.63,7.05,6.67,-6.67,-7.35,0.35,0.37,0.40
28.90,7.11,6.71,7.06,6.70,-6.70,-7.45,0.41,0.37,0.40
29.19,7.16,6.76,7.08,6.72,-6.72,-7.55,0.44,0.36,0.39
29.48,7.19,6.80,7.11,6.74,-6.74,-7.64,0.44,0.36,0.39
29.78,7.22,6.83,7.13,6.77,-6.77,-7.73,0.44,0.36,0.39
30.08,7.23,6.84,7.16,6.80,-6.80,-7.80,0.42,0.36,0.39
30.38,7.21,6.82,7.20,6.83,-6.83,-7.86,0.37,0.36,0.38
30.68,7.18,6.80,7.23,6.86,-6.86,-7.92,0.32,0.37,0.38
30.99,7.15,6.77,7.26,6.88,-6.88,-7.96,0.27,0.38,0.38
31.30,7.21,6.83,7.28,6.90,-6.90,-7.99,0.31,0.38,0.38
31.61,7.27,6.89,7.29,6.92,-6.92,-8.02,0.35,0.37,0.37
31.93,7.33,6.96,7.29,6.93,-6.93,-8.03,0.40,0.36,0.37
32.24,7.34,6.97,7.28,6.94,-6.94,-8.03,0.40,0.34,0.37
32.57,7.34,6.97,7.28,6.95,-6.95,-8.03,0.39,0.33,0.36
32.89,7.34,6.98,7.28,6.95,-6.95,-8.01,0.38,0.33,0.36
33.22,7.34,6.98,7.28,6.96,-6.96,-7.99,0.38,0.33,0.36
33.55,7.34,6.98,7.29,6.97,-6.97,-7.95,0.37,0.33,0.35
33.89,7.34,6.99,7.30,6.98,-6.98,-7.92,0.36,0.33,0.35
34.23,7.29,6.94,7.31,6.99,-6.99,-7.87,0.30,0.33,0.35
34.57,7.23,6.88,7.32,7.00,-7.00,-7.82,0.23,0.32,0.34
34.92,7.16,6.82,7.32,7.01,-7.01,-7.77,0.15,0.31,0.34
35.27,7.22,6.88,7.33,7.02,-7.02,-7.71,0.19,0.31,0.34
35.62,7.33,6.99,7.35,7.04,-7.04,-7.65,0.29,0.31,0.33
35.97,7.43,7.10,7.36,7.05,-7.05,-7.59,0.38,0.31,0.33
36.33,7.44,7.11,7.37,7.06,-7.06,-7.52,0.37,0.31,0.32
36.70,7.44,7.12,7.37,7.08,-7.08,-7.46,0.36,0.30,0.32
37.06,7.44,7.12,7.38,7.09,-7.09,-7.39,0.35,0.29,0.31
37.43,7.44,7.13,7.39,7.10,-7.10,-7.33,0.33,0.28,0.31
37.81,7.44,7.13,7.40,7.12,-7.12,-7.27,0.32,0.28,0.31
38.19,7.44,7.14,7.41,7.13,-7.13,-7.20,0.31,0.29,0.30
38.57,7.44,7.14,7.42,7.14,-7.14,-7.14,0.30,0.29,0.30
38.95,7.44,7.14,7.43,7.15,-7.15,-7.09,0.29,0.28,0.29
39.34,7.38,7.09,7.43,7.16,-7.16,-7.03,0.21,0.27,0.29
39.74,7.31,7.03,7.43,7.18,-7.18,-6.98,0.13,0.25,0.28
40.14,7.30,7.02,7.43,7.19,-7.19,-6.94,0.10,0.24,0.27
40.54,7.41,7.14,7.44,7.21,-7.21,-6.89,0.20,0.23,0.27
40.94,7.52,7.25,7.47,7.22,-7.22,-6.86,0.29,0.24,0.26
41.35,7.54,7.28,7.49,7.24,-7.24,-6.82,0.30,0.25,0.26
41.76,7.54,7.29,7.50,7.25,-7.25,-6.79,0.28,0.25,0.25
42.18,7.54,7.29,7.50,7.27,-7.27,-6.76,0.27,0.23,0.24
42.60,7.54,7.30,7.51,7.29,-7.29,-6.74,0.25,0.22,0.24
43.03,7.54,7.31,7.51,7.30,-7.30,-6.73,0.24,0.21,0.23
43.46,7.54,7.31,7.52,7.31,-7.31,-6.72,0.23,0.21,0.22
43.90,7.54,7.32,7.52,7.31,-7.31,-6.71,0.22,0.21,0.22
44.33,7.58,7.37,7.52,7.32,-7.32,-6.71,0.26,0.20,0.21
44.78,7.63,7.42,7.51,7.33,-7.33,-6.71,0.30,0.19,0.20
45.23,7.55,7.35,7.50,7.33,-7.33,-6.72,0.21,0.17,0.19
45.68,7.36,7.17,7.49,7.34,-7.34,-6.73,0.02,0.16,0.19
46.13,7.26,7.08,7.49,7.34,-7.34,-6.75,-0.08,0.16,0.18
46.60,7.40,7.24,7.50,7.34,-7.34,-6.77,0.06,0.16,0.17
47.06,7.54,7.38,7.50,7.35,-7.35,-6.80,0.19,0.15,0.16
47.53,7.54,7.39,7.49,7.36,-7.36,-6.83,0.18,0.13,0.15
48.01,7.54,7.39,7.48,7.37,-7.37,-6.87,0.17,0.11,0.14
48.49,7.54,7.40,7.48,7.38,-7.38,-6.91,0.16,0.10,0.13
48.97,7.54,7.41,7.49,7.40,-7.40,-6.95,0.14,0.09,0.12
49.46,7.54,7.42,7.49,7.41,-7.41,-7.00,0.12,0.08,0.11
49.96,7.54,7.43,7.51,7.43,-7.43,-7.05,0.10,0.07,0.10
50.46,7.54,7.45,7.53,7.45,-7.45,-7.11,0.08,0.07,0.09
50.96,7.54,7.46,7.55,7.47,-7.47,-7.17,0.06,0.07,0.08
51.47,7.47,7.40,7.56,7.49,-7.49,-7.23,-0.03,0.07,0.07
51.99,7.40,7.34,7.57,7.52,-7.52,-7.29,-0.12,0.05,0.06
52.51,7.52,7.47,7.57,7.54,-7.54,-7.36,-0.02,0.03,0.05
53.03,7.64,7.60,7.57,7.56,-7.56,-7.42,0.08,0.01,0.03
53.56,7.64,7.62,7.56,7.58,-7.58,-7.49,0.06,-0.01,0.02
54.10,7.64,7.63,7.57,7.59,-7.59,-7.56,0.04,-0.03,0.01
54.64,7.64,7.64,7.58,7.62,-7.62,-7.63,0.02,-0.03,-0.01
55.18,7.64,7.65,7.60,7.64,-7.64,-7.70,-0.00,-0.04,-0.02
55.74,7.64,7.67,7.61,7.67,-7.67,-7.77,-0.03,-0.05,-0.03
56.29,7.64,7.68,7.63,7.69,-7.69,-7.83,-0.05,-0.06,-0.05
56.86,7.64,7.70,7.64,7.71,-7.71,-7.89,-0.07,-0.07,-0.06
57.42,7.56,7.63,7.65,7.73,-7.73,-7.96,-0.17,-0.08,-0.08
58.00,7.46,7.55,7.65,7.75,-7.75,-8.01,-0.30,-0.10,-0.09
58.58,7.56,7.66,7.65,7.77,-7.77,-8.06,-0.22,-0.13,-0.11
59.16,7.68,7.80,7.64,7.79,-7.79,-8.11,-0.12,-0.15,-0.12
59.76,7.84,7.97,7.64,7.81,-7.81,-8.16,0.02,-0.17,-0.14
60.35,7.81,7.96,7.65,7.83,-7.83,-8.19,-0.03,-0.18,-0.16
60.96,7.65,7.82,7.66,7.85,-7.85,-8.23,-0.20,-0.19,-0.17
61.57,7.64,7.83,7.67,7.87,-7.87,-8.25,-0.24,-0.20,-0.19
62.18,7.64,7.85,7.67,7.89,-7.89,-8.27,-0.26,-0.22,-0.21
62.80,7.64,7.86,7.68,7.91,-7.91,-8.29,-0.27,-0.23,-0.23
63.43,7.64,7.88,7.67,7.92,-7.92,-8.29,-0.29,-0.25,-0.25
64.07,7.64,7.90,7.67,7.94,-7.94,-8.29,-0.30,-0.27,-0.27
64.71,7.64,7.92,7.66,7.95,-7.95,-8.29,-0.31,-0.29,-0.29
65.35,7.67,7.97,7.65,7.96,-7.96,-8.28,-0.30,-0.32,-0.31
66.01,7.73,8.05,7.63,7.97,-7.97,-8.26,-0.25,-0.34,-0.33
66.67,7.69,8.03,7.61,7.98,-7.98,-8.24,-0.30,-0.37,-0.35
67.33,7.63,7.99,7.61,7.99,-7.99,-8.21,-0.37,-0.38,-0.37
68.01,7.54,7.93,7.60,8.00,-8.00,-8.18,-0.47,-0.40,-0.39
68.69,7.54,7.95,7.59,8.01,-8.01,-8.15,-0.48,-0.42,-0.41
69.37,7.54,7.97,7.58,8.02,-8.02,-8.11,-0.49,-0.44,-0.44
70.07,7.54,8.00,7.57,8.03,-8.03,-8.07,-0.50,-0.46,-0.46
70.77,7.59,8.07,7.56,8.04,-8.04,-8.04,-0.46,-0.49,-0.48
71.48,7.60,8.10,7.54,8.05,-8.05,-7.99,-0.45,-0.51,-0.51
72.19,7.55,8.08,7.52,8.05,-8.05,-7.95,-0.51,-0.54,-0.53
72.91,7.45,8.00,7.49,8.06,-8.06,-7.91,-0.61,-0.57,-0.56
73.64,7.44,8.02,7.47,8.06,-8.06,-7.87,-0.62,-0.59,-0.58
74.38,7.44,8.04,7.45,8.06,-8.06,-7.83,-0.62,-0.61,-0.61
75.12,7.45,8.08,7.42,8.06,-8.06,-7.80,-0.61,-0.64,-0.63
75.87,7.53,8.19,7.39,8.06,-8.06,-7.76,-0.53,-0.67,-0.66
76.63,7.40,8.08,7.36,8.06,-8.06,-7.73,-0.66,-0.69,-0.69
77.40,7.27,7.98,7.34,8.05,-8.05,-7.70,-0.78,-0.71,-0.71
78.17,7.22,7.96,7.30,8.04,-8.04,-7.68,-0.82,-0.74,-0.74
78.95,7.29,8.06,7.25,8.03,-8.03,-7.65,-0.74,-0.77,-0.77
79.74,7.18,7.97,7.21,8.01,-8.01,-7.64,-0.84,-0.80,-0.80
80.54,7.18,8.00,7.17,8.00,-8.00,-7.62,-0.82,-0.82,-0.83
81.35,7.17,8.02,7.12,7.98,-7.98,-7.61,-0.81,-0.86,-0.86
82.16,7.07,7.95,7.07,7.97,-7.97,-7.61,-0.90,-0.90,-0.89
82.98,7.04,7.95,7.02,7.96,-7.96,-7.61,-0.92,-0.94,-0.92
83.81,7.09,8.03,6.97,7.95,-7.95,-7.62,-0.86,-0.98,-0.95
84.65,7.05,8.02,6.93,7.94,-7.94,-7.63,-0.90,-1.01,-0.98
85.50,6.91,7.91,6.92,7.95,-7.95,-7.65,-1.04,-1.03,-1.01
86.35,6.79,7.82,6.90,7.96,-7.96,-7.67,-1.17,-1.06,-1.04
87.22,6.80,7.87,6.88,7.98,-7.98,-7.70,-1.19,-1.10,-1.07
88.09,6.83,7.93,6.88,8.01,-8.01,-7.73,-1.19,-1.13,-1.10
88.97,6.78,7.91,6.90,8.06,-8.06,-7.77,-1.28,-1.16,-1.13
89.86,6.81,7.97,6.92,8.11,-8.11,-7.81,-1.30,-1.19,-1.16
90.76,7.03,8.22,6.94,8.17,-8.17,-7.86,-1.15,-1.23,-1.20
91.66,7.03,8.26,6.99,8.25,-8.25,-7.92,-1.22,-1.26,-1.23
92.58,7.02,8.28,7.05,8.34,-8.34,-7.98,-1.32,-1.29,-1.26
93.51,7.18,8.47,7.11,8.43,-8.43,-8.05,-1.26,-1.32,-1.29
94.44,7.26,8.58,7.19,8.54,-8.54,-8.12,-1.28,-1.34,-1.33
95.39,7.21,8.57,7.28,8.64,-8.64,-8.20,-1.44,-1.36,-1.36
96.34,7.32,8.71,7.36,8.75,-8.75,-8.28,-1.43,-1.39,-1.39
97.30,7.49,8.91,7.43,8.86,-8.86,-8.37,-1.37,-1.42,-1.43
98.28,7.50,8.96,7.51,8.96,-8.96,-8.46,-1.47,-1.45,-1.46
99.26,7.53,9.02,7.58,9.06,-9.06,-8.56,-1.54,-1.48,-1.49
100.25,7.64,9.16,7.63,9.16,-9.16,-8.66,-1.52,-1.53,-1.53
101.25,7.78,9.33,7.67,9.24,-9.24,-8.76,-1.47,-1.57,-1.56
102.27,7.74,9.33,7.72,9.32,-9.32,-8.87,-1.59,-1.60,-1.59
103.29,7.80,9.42,7.76,9.39,-9.39,-8.98,-1.59,-1.63,-1.63
104.32,7.82,9.47,7.78,9.45,-9.45,-9.10,-1.63,-1.66,-1.66
105.37,7.77,9.46,7.80,9.50,-9.50,-9.21,-1.73,-1.69,-1.69
106.42,7.78,9.50,7.81,9.53,-9.53,-9.33,-1.76,-1.72,-1.73
107.48,7.83,9.59,7.80,9.55,-9.55,-9.45,-1.73,-1.76,-1.76
108.56,7.79,9.58,7.77,9.56,-9.56,-9.57,-1.78,-1.79,-1.79
109.64,7.70,9.52,7.74,9.56,-9.56,-9.68,-1.87,-1.82,-1.82
110.74,7.69,9.54,7.69,9.55,-9.55,-9.80,-1.86,-1.86,-1.86
111.85,7.72,9.60,7.63,9.52,-9.52,-9.91,-1.81,-1.89,-1.89
112.97,7.64,9.55,7.57,9.49,-9.49,-10.01,-1.85,-1.92,-1.92
114.10,7.51,9.45,7.50,9.44,-9.44,-10.11,-1.94,-1.94,-1.95
115.24,7.44,9.41,7.42,9.39,-9.39,-10.21,-1.96,-1.98,-1.97
116.39,7.33,9.33,7.33,9.34,-9.34,-10.30,-2.01,-2.00,-2.00
117.55,7.23,9.25,7.25,9.27,-9.27,-10.38,-2.05,-2.03,-2.03
118.73,7.14,9.19,7.16,9.21,-9.21,-10.45,-2.07,-2.05,-2.05
119.92,7.08,9.15,7.06,9.14,-9.14,-10.51,-2.07,-2.08,-2.07
121.12,6.97,9.06,6.98,9.08,-9.08,-10.56,-2.11,-2.10,-2.10
122.33,6.89,9.00,6.89,9.02,-9.02,-10.59,-2.13,-2.12,-2.12
123.55,6.83,8.96,6.81,8.96,-8.96,-10.62,-2.13,-2.15,-2.14
124.79,6.72,8.87,6.74,8.91,-8.91,-10.63,-2.19,-2.17,-2.16
126.03,6.60,8.77,6.68,8.86,-8.86,-10.63,-2.27,-2.18,-2.17
127.29,6.63,8.82,6.63,8.83,-8.83,-10.61,-2.20,-2.20,-2.19
128.57,6.63,8.84,6.59,8.80,-8.80,-10.59,-2.18,-2.22,-2.21
129.85,6.55,8.77,6.56,8.79,-8.79,-10.55,-2.25,-2.23,-2.23
131.15,6.53,8.77,6.54,8.80,-8.80,-10.50,-2.27,-2.26,-2.25
132.46,6.54,8.80,6.53,8.82,-8.82,-10.44,-2.28,-2.29,-2.27
133.79,6.54,8.82,6.53,8.85,-8.85,-10.37,-2.31,-2.32,-2.29
135.12,6.56,8.86,6.55,8.90,-8.90,-10.29,-2.34,-2.35,-2.31
136.48,6.62,8.94,6.59,8.96,-8.96,-10.21,-2.35,-2.37,-2.33
137.84,6.65,8.99,6.65,9.04,-9.04,-10.11,-2.40,-2.39,-2.35
139.22,6.66,9.03,6.73,9.14,-9.14,-10.01,-2.49,-2.42,-2.37
140.61,6.71,9.10,6.82,9.25,-9.25,-9.91,-2.55,-2.44,-2.39
142.02,6.84,9.25,6.91,9.38,-9.38,-9.81,-2.54,-2.46,-2.41
143.44,6.94,9.37,7.03,9.50,-9.50,-9.70,-2.57,-2.48,-2.43
144.87,7.03,9.48,7.14,9.62,-9.62,-9.59,-2.59,-2.48,-2.45
146.32,7.17,9.64,7.25,9.73,-9.73,-9.48,-2.56,-2.48,-2.47
147.78,7.34,9.83,7.34,9.83,-9.83,-9.37,-2.49,-2.49,-2.49
149.26,7.50,10.01,7.40,9.91,-9.91,-9.26,-2.41,-2.51,-2.51
150.75,7.64,10.17,7.44,9.97,-9.97,-9.15,-2.34,-2.53,-2.53
152.26,7.66,10.20,7.45,10.02,-10.02,-9.05,-2.36,-2.56,-2.55
153.78,7.66,10.22,7.44,10.04,-10.04,-8.95,-2.38,-2.60,-2.56
155.32,7.66,10.24,7.41,10.04,-10.04,-8.85,-2.38,-2.63,-2.58
156.88,7.58,10.17,7.37,10.02,-10.02,-8.75,-2.45,-2.66,-2.60
158.44,7.43,10.04,7.31,10.00,-10.00,-8.66,-2.57,-2.69,-2.61
160.03,7.23,9.86,7.26,9.96,-9.96,-8.58,-2.74,-2.71,-2.63
161.63,7.02,9.67,7.20,9.93,-9.93,-8.50,-2.91,-2.73,-2.65
163.24,6.89,9.55,7.14,9.90,-9.90,-8.42,-3.01,-2.76,-2.67
164.88,6.79,9.47,7.08,9.88,-9.88,-8.35,-3.09,-2.79,-2.69
166.53,6.76,9.46,7.05,9.86,-9.86,-8.29,-3.10,-2.82,-2.70
168.19,6.83,9.55,7.03,9.86,-9.86,-8.23,-3.03,-2.83,-2.72
169.87,6.99,9.73,7.03,9.87,-9.87,-8.18,-2.89,-2.84,-2.74
171.57,7.13,9.89,7.06,9.90,-9.90,-8.13,-2.77,-2.84,-2.76
173.29,7.22,9.99,7.09,9.94,-9.94,-8.09,-2.72,-2.85,-2.78
175.02,7.27,10.06,7.14,9.98,-9.98,-8.05,-2.72,-2.84,-2.79
176.77,7.31,10.11,7.20,10.03,-10.03,-8.02,-2.73,-2.83,-2.80
178.54,7.32,10.13,7.26,10.07,-10.07,-8.00,-2.76,-2.82,-2.82
180.32,7.32,10.14,7.31,10.11,-10.11,-7.98,-2.79,-2.80,-2.82
182.13,7.38,10.20,7.34,10.14,-10.14,-7.97,-2.76,-2.80,-2.83
183.95,7.44,10.27,7.36,10.15,-10.15,-7.96,-2.72,-2.80,-2.83
185.79,7.39,10.22,7.36,10.16,-10.16,-7.96,-2.77,-2.80,-2.83
187.65,7.35,10.17,7.33,10.15,-10.15,-7.97,-2.80,-2.82,-2.83
189.52,7.29,10.11,7.30,10.13,-10.13,-7.98,-2.84,-2.83,-2.82
191.42,7.24,10.05,7.26,10.09,-10.09,-7.99,-2.86,-2.84,-2.82
193.33,7.18,9.99,7.21,10.04,-10.04,-8.01,-2.87,-2.83,-2.81
195.27,7.13,9.93,7.16,9.99,-9.99,-8.04,-2.86,-2.83,-2.81
197.22,7.09,9.89,7.11,9.93,-9.93,-8.07,-2.84,-2.82,-2.80
199.19,7.05,9.85,7.05,9.87,-9.87,-8.10,-2.82,-2.81,-2.80
201.18,7.01,9.81,6.99,9.80,-9.80,-8.14,-2.80,-2.82,-2.80
203.19,6.91,9.71,6.91,9.74,-9.74,-8.18,-2.83,-2.82,-2.80
205.23,6.83,9.63,6.84,9.67,-9.67,-8.22,-2.84,-2.83,-2.81
207.28,6.77,9.58,6.76,9.60,-9.60,-8.27,-2.83,-2.83,-2.81
209.35,6.70,9.51,6.68,9.52,-9.52,-8.32,-2.83,-2.84,-2.82
211.44,6.64,9.46,6.60,9.45,-9.45,-8.37,-2.81,-2.84,-2.83
213.56,6.56,9.39,6.52,9.37,-9.37,-8.42,-2.81,-2.84,-2.84
215.69,6.46,9.30,6.44,9.29,-9.29,-8.47,-2.83,-2.85,-2.85
217.85,6.35,9.20,6.35,9.20,-9.20,-8.52,-2.85,-2.85,-2.86
220.03,6.20,9.06,6.25,9.11,-9.11,-8.56,-2.91,-2.86,-2.87
222.23,6.10,8.97,6.15,9.01,-9.01,-8.61,-2.92,-2.87,-2.87
224.45,6.04,8.92,6.04,8.92,-8.92,-8.65,-2.88,-2.87,-2.88
226.70,5.93,8.81,5.94,8.81,-8.81,-8.68,-2.89,-2.88,-2.88
228.96,5.83,8.71,5.83,8.71,-8.71,-8.71,-2.88,-2.88,-2.88
231.25,5.78,8.66,5.72,8.60,-8.60,-8.74,-2.82,-2.88,-2.88
233.57,5.67,8.54,5.60,8.48,-8.48,-8.75,-2.82,-2.88,-2.88
235.90,5.53,8.39,5.49,8.37,-8.37,-8.76,-2.84,-2.87,-2.87
238.26,5.36,8.21,5.38,8.25,-8.25,-8.75,-2.89,-2.87,-2.86
240.64,5.22,8.06,5.27,8.13,-8.13,-8.74,-2.91,-2.86,-2.85
243.05,5.13,7.96,5.16,8.01,-8.01,-8.71,-2.88,-2.85,-2.84
245.48,5.03,7.85,5.05,7.89,-7.89,-8.67,-2.86,-2.84,-2.82
247.93,4.91,7.72,4.94,7.77,-7.77,-8.62,-2.86,-2.82,-2.81
250.41,4.82,7.61,4.83,7.64,-7.64,-8.56,-2.83,-2.81,-2.80
252.92,4.71,7.49,4.71,7.52,-7.52,-8.48,-2.81,-2.80,-2.79
255.45,4.58,7.35,4.59,7.39,-7.39,-8.39,-2.81,-2.80,-2.78
258.00,4.47,7.24,4.46,7.25,-7.25,-8.29,-2.79,-2.80,-2.77
260.58,4.36,7.12,4.33,7.12,-7.12,-8.17,-2.76,-2.79,-2.77
263.19,4.22,6.98,4.20,6.98,-6.98,-8.04,-2.76,-2.78,-2.76
265.82,4.12,6.88,4.07,6.83,-6.83,-7.90,-2.72,-2.76,-2.76
268.48,3.99,6.75,3.92,6.68,-6.68,-7.76,-2.70,-2.76,-2.76
271.16,3.84,6.60,3.77,6.52,-6.52,-7.60,-2.69,-2.76,-2.76
273.87,3.61,6.37,3.60,6.36,-6.36,-7.43,-2.76,-2.76,-2.76
276.61,3.39,6.15,3.43,6.19,-6.19,-7.25,-2.81,-2.76,-2.77
279.38,3.24,6.00,3.26,6.02,-6.02,-7.07,-2.78,-2.76,-2.76
282.17,3.06,5.82,3.08,5.84,-5.84,-6.88,-2.78,-2.76,-2.76
284.99,2.91,5.67,2.90,5.66,-5.66,-6.69,-2.75,-2.76,-2.76
287.84,2.76,5.51,2.72,5.47,-5.47,-6.49,-2.72,-2.76,-2.75
290.72,2.54,5.28,2.53,5.29,-5.29,-6.29,-2.75,-2.75,-2.75
293.63,2.35,5.09,2.36,5.10,-5.10,-6.09,-2.76,-2.75,-2.74
296.57,2.13,4.86,2.18,4.92,-4.92,-5.88,-2.79,-2.74,-2.73
299.53,1.95,4.67,2.00,4.74,-4.74,-5.68,-2.79,-2.74,-2.72
302.53,1.81,4.52,1.83,4.55,-4.55,-5.47,-2.75,-2.73,-2.71
305.55,1.68,4.38,1.66,4.37,-4.37,-5.26,-2.70,-2.71,-2.70
308.61,1.50,4.19,1.50,4.20,-4.20,-5.05,-2.70,-2.70,-2.70
311.69,1.32,4.01,1.32,4.02,-4.02,-4.84,-2.71,-2.70,-2.69
314.81,1.17,3.85,1.15,3.85,-3.85,-4.63,-2.68,-2.70,-2.68
317.96,1.02,3.70,0.98,3.67,-3.67,-4.42,-2.66,-2.70,-2.68
321.14,0.87,3.54,0.81,3.50,-3.50,-4.22,-2.64,-2.69,-2.68
324.35,0.66,3.33,0.65,3.33,-3.33,-4.01,-2.68,-2.69,-2.68
327.59,0.46,3.13,0.48,3.17,-3.17,-3.80,-2.71,-2.68,-2.68
330.87,0.31,2.98,0.32,3.00,-3.00,-3.60,-2.69,-2.68,-2.68
334.18,0.17,2.84,0.16,2.84,-2.84,-3.40,-2.67,-2.68,-2.68
337.52,-0.01,2.66,-0.01,2.67,-2.67,-3.20,-2.68,-2.68,-2.68
340.90,-0.21,2.47,-0.17,2.51,-2.51,-3.00,-2.72,-2.68,-2.68
344.30,-0.38,2.29,-0.33,2.35,-2.35,-2.80,-2.73,-2.68,-2.68
347.75,-0.49,2.18,-0.49,2.19,-2.19,-2.61,-2.68,-2.68,-2.68
351.23,-0.62,2.05,-0.65,2.03,-2.03,-2.41,-2.65,-2.68,-2.67
354.74,-0.78,1.89,-0.80,1.87,-1.87,-2.22,-2.65,-2.67,-2.67
358.28,-0.95,1.71,-0.96,1.71,-1.71,-2.03,-2.67,-2.67,-2.67
361.87,-1.10,1.56,-1.10,1.56,-1.56,-1.84,-2.66,-2.66,-2.66
365.49,-1.23,1.42,-1.25,1.40,-1.40,-1.65,-2.64,-2.66,-2.65
369.14,-1.42,1.22,-1.40,1.25,-1.25,-1.46,-2.67,-2.65,-2.65
372.83,-1.56,1.08,-1.55,1.09,-1.09,-1.28,-2.66,-2.64,-2.64
376.56,-1.69,0.94,-1.69,0.93,-0.93,-1.09,-2.63,-2.63,-2.63
380.33,-1.86,0.76,-1.85,0.77,-0.77,-0.91,-2.64,-2.63,-2.63
384.13,-2.01,0.61,-2.02,0.61,-0.61,-0.73,-2.63,-2.63,-2.62
387.97,-2.14,0.47,-2.18,0.45,-0.45,-0.55,-2.59,-2.64,-2.62
391.85,-2.32,0.29,-2.34,0.29,-0.29,-0.37,-2.61,-2.63,-2.62
395.77,-2.48,0.13,-2.51,0.12,-0.12,-0.20,-2.60,-2.63,-2.61
399.73,-2.62,-0.01,-2.67,-0.05,0.05,-0.02,-2.58,-2.63,-2.61
403.72,-2.80,-0.19,-2.83,-0.21,0.21,0.15,-2.59,-2.62,-2.62
407.76,-2.96,-0.35,-3.00,-0.38,0.38,0.32,-2.58,-2.62,-2.62
411.84,-3.15,-0.54,-3.16,-0.55,0.55,0.49,-2.61,-2.62,-2.62
415.96,-3.41,-0.80,-3.33,-0.71,0.71,0.65,-2.70,-2.62,-2.61
420.12,-3.58,-0.98,-3.48,-0.88,0.88,0.81,-2.71,-2.61,-2.61
424.32,-3.60,-1.01,-3.62,-1.03,1.03,0.97,-2.57,-2.59,-2.59
428.56,-3.68,-1.11,-3.76,-1.19,1.19,1.13,-2.50,-2.57,-2.58
432.85,-3.85,-1.30,-3.89,-1.34,1.34,1.28,-2.52,-2.55,-2.55
437.18,-4.08,-1.56,-4.00,-1.48,1.48,1.42,-2.60,-2.52,-2.52
441.55,-4.14,-1.66,-4.09,-1.62,1.62,1.57,-2.52,-2.47,-2.49
445.96,-4.16,-1.72,-4.18,-1.75,1.75,1.70,-2.41,-2.43,-2.44
450.42,-4.38,-1.99,-4.27,-1.88,1.88,1.83,-2.50,-2.39,-2.40
454.93,-4.42,-2.08,-4.35,-2.00,2.00,1.96,-2.42,-2.35,-2.34
459.48,-4.34,-2.06,-4.41,-2.12,2.12,2.07,-2.22,-2.29,-2.29
464.07,-4.38,-2.15,-4.46,-2.23,2.23,2.18,-2.15,-2.23,-2.23
468.71,-4.46,-2.29,-4.53,-2.34,2.34,2.28,-2.12,-2.19,-2.17
473.40,-4.61,-2.50,-4.58,-2.44,2.44,2.38,-2.17,-2.14,-2.12
478.13,-4.58,-2.52,-4.61,-2.54,2.54,2.46,-2.05,-2.07,-2.06
482.91,-4.55,-2.54,-4.64,-2.63,2.63,2.53,-1.93,-2.02,-2.01
487.74,-4.64,-2.68,-4.68,-2.71,2.71,2.60,-1.94,-1.97,-1.97
492.62,-4.88,-2.96,-4.72,-2.78,2.78,2.66,-2.10,-1.94,-1.92
497.55,-4.90,-3.02,-4.76,-2.85,2.85,2.70,-2.05,-1.91,-1.89
502.52,-4.67,-2.81,-4.78,-2.90,2.90,2.74,-1.77,-1.88,-1.86
507.55,-4.67,-2.83,-4.82,-2.95,2.95,2.77,-1.72,-1.87,-1.84
512.62,-4.93,-3.10,-4.85,-2.99,2.99,2.79,-1.94,-1.86,-1.83
517.75,-4.84,-3.02,-4.87,-3.01,3.01,2.80,-1.83,-1.85,-1.83
522.93,-4.68,-2.85,-4.88,-3.03,3.03,2.79,-1.66,-1.85,-1.83
528.16,-4.91,-3.07,-4.89,-3.02,3.02,2.79,-1.89,-1.86,-1.85
533.44,-5.01,-3.15,-4.90,-3.01,3.01,2.77,-2.00,-1.89,-1.87
538.77,-4.96,-3.07,-4.89,-2.98,2.98,2.74,-1.98,-1.91,-1.89
544.16,-4.88,-2.96,-4.87,-2.94,2.94,2.71,-1.94,-1.93,-1.92
549.60,-4.80,-2.85,-4.84,-2.89,2.89,2.67,-1.92,-1.96,-1.95
555.10,-4.77,-2.79,-4.81,-2.82,2.82,2.62,-1.96,-1.99,-1.98
560.65,-4.77,-2.76,-4.77,-2.74,2.74,2.57,-2.04,-2.03,-2.01
566.25,-4.71,-2.68,-4.69,-2.64,2.64,2.51,-2.07,-2.05,-2.04
571.92,-4.64,-2.58,-4.60,-2.54,2.54,2.45,-2.11,-2.07,-2.06
577.64,-4.56,-2.48,-4.51,-2.43,2.43,2.39,-2.14,-2.09,-2.08
583.41,-4.47,-2.38,-4.40,-2.31,2.31,2.32,-2.17,-2.09,-2.10
589.25,-4.33,-2.23,-4.27,-2.18,2.18,2.24,-2.15,-2.08,-2.11
595.14,-4.13,-2.03,-4.14,-2.05,2.05,2.17,-2.08,-2.09,-2.11
601.09,-3.98,-1.88,-4.01,-1.92,1.92,2.09,-2.06,-2.09,-2.10
607.10,-3.78,-1.70,-3.87,-1.79,1.79,2.01,-2.00,-2.08,-2.09
613.17,-3.65,-1.59,-3.71,-1.65,1.65,1.93,-2.00,-2.06,-2.07
619.30,-3.51,-1.48,-3.55,-1.52,1.52,1.85,-1.99,-2.03,-2.04
625.50,-3.40,-1.40,-3.39,-1.39,1.39,1.77,-2.02,-2.00,-2.00
631.75,-3.24,-1.28,-3.23,-1.25,1.25,1.68,-1.99,-1.97,-1.97
638.07,-3.00,-1.08,-3.06,-1.12,1.12,1.60,-1.88,-1.93,-1.92
644.45,-2.91,-1.04,-2.88,-1.00,1.00,1.51,-1.92,-1.88,-1.87
650.89,-2.82,-1.00,-2.69,-0.87,0.87,1.43,-1.95,-1.82,-1.82
657.40,-2.59,-0.82,-2.52,-0.75,0.75,1.35,-1.85,-1.77,-1.77
663.98,-2.34,-0.62,-2.36,-0.62,0.62,1.26,-1.72,-1.73,-1.72
