frequency,raw,error,smoothed,error_smoothed,equalization,parametric_eq,fixed_band_eq,equalized_raw,equalized_smoothed,target
20.00,6.16,-1.69,6.15,-1.70,1.69,1.24,-0.04,7.84,7.84,7.85
20.20,6.24,-1.60,6.24,-1.61,1.60,1.20,-0.04,7.84,7.84,7.84
20.40,6.31,-1.52,6.32,-1.52,1.52,1.16,-0.04,7.83,7.83,7.83
20.61,6.39,-1.45,6.39,-1.44,1.44,1.12,-0.04,7.83,7.83,7.83
20.81,6.47,-1.34,6.46,-1.35,1.37,1.08,-0.04,7.83,7.83,7.81
21.02,6.54,-1.27,6.53,-1.28,1.29,1.05,-0.04,7.83,7.83,7.81
21.23,6.59,-1.21,6.59,-1.21,1.23,1.01,-0.04,7.82,7.82,7.80
21.44,6.64,-1.17,6.64,-1.17,1.16,0.97,-0.04,7.80,7.80,7.81
21.66,6.69,-1.11,6.69,-1.11,1.11,0.93,-0.03,7.79,7.79,7.80
21.87,6.73,-1.06,6.73,-1.06,1.05,0.89,-0.03,7.78,7.79,7.79
22.09,6.78,-1.00,6.78,-1.01,1.00,0.85,-0.03,7.78,7.78,7.78
22.31,6.82,-0.96,6.82,-0.96,0.95,0.81,-0.03,7.77,7.77,7.78
22.54,6.87,-0.90,6.86,-0.91,0.90,0.77,-0.03,7.77,7.77,7.77
22.76,6.91,-0.86,6.91,-0.85,0.85,0.73,-0.02,7.76,7.76,7.77
22.99,6.96,-0.80,6.96,-0.80,0.80,0.69,-0.02,7.76,7.76,7.76
23.22,7.01,-0.74,7.01,-0.75,0.75,0.65,-0.02,7.76,7.76,7.75
23.45,7.06,-0.70,7.06,-0.69,0.70,0.61,-0.02,7.75,7.75,7.76
23.69,7.11,-0.64,7.10,-0.64,0.64,0.57,-0.02,7.75,7.75,7.75
23.92,7.15,-0.60,7.15,-0.60,0.59,0.53,-0.02,7.74,7.75,7.74
24.16,7.21,-0.55,7.20,-0.55,0.54,0.48,-0.01,7.75,7.74,7.75
24.40,7.26,-0.50,7.26,-0.50,0.49,0.44,-0.01,7.75,7.75,7.76
24.65,7.32,-0.45,7.32,-0.44,0.45,0.40,-0.01,7.76,7.77,7.76
24.89,7.38,-0.38,7.37,-0.39,0.40,0.36,-0.01,7.78,7.78,7.76
25.14,7.42,-0.34,7.42,-0.34,0.36,0.32,-0.01,7.78,7.78,7.76
25.39,7.45,-0.31,7.45,-0.31,0.32,0.27,-0.01,7.77,7.77,7.76
25.65,7.48,-0.28,7.48,-0.28,0.28,0.23,-0.01,7.76,7.76,7.76
25.91,7.52,-0.25,7.52,-0.25,0.23,0.19,-0.01,7.75,7.75,7.77
26.16,7.57,-0.21,7.57,-0.20,0.19,0.15,-0.01,7.75,7.75,7.78
26.43,7.63,-0.15,7.63,-0.15,0.13,0.10,-0.01,7.76,7.76,7.78
26.69,7.70,-0.08,7.69,-0.08,0.08,0.06,-0.01,7.77,7.77,7.78
26.96,7.76,-0.02,7.76,-0.01,0.01,0.02,-0.01,7.77,7.77,7.77
27.23,7.83,0.05,7.83,0.05,-0.05,-0.03,-0.02,7.78,7.78,7.77
27.50,7.89,0.12,7.89,0.12,-0.11,-0.07,-0.02,7.78,7.78,7.77
27.77,7.96,0.18,7.96,0.18,-0.17,-0.12,-0.02,7.79,7.79,7.78
28.05,8.02,0.24,8.01,0.23,-0.22,-0.16,-0.03,7.80,7.79,7.78
28.33,8.04,0.27,8.04,0.27,-0.26,-0.20,-0.04,7.78,7.79,7.77
28.62,8.07,0.30,8.07,0.30,-0.28,-0.25,-0.04,7.78,7.79,7.77
28.90,8.10,0.32,8.09,0.32,-0.31,-0.29,-0.05,7.79,7.78,7.78
29.19,8.12,0.34,8.11,0.34,-0.34,-0.34,-0.06,7.78,7.78,7.77
29.48,8.13,0.35,8.13,0.35,-0.37,-0.38,-0.08,7.76,7.76,7.77
29.78,8.14,0.37,8.14,0.37,-0.40,-0.42,-0.09,7.74,7.74,7.77
30.08,8.17,0.39,8.17,0.40,-0.44,-0.47,-0.10,7.73,7.74,7.78
30.38,8.23,0.46,8.23,0.46,-0.48,-0.51,-0.12,7.75,7.75,7.77
30.68,8.30,0.54,8.30,0.53,-0.53,-0.56,-0.14,7.77,7.77,7.76
30.99,8.37,0.61,8.35,0.60,-0.57,-0.60,-0.16,7.79,7.78,7.75
31.30,8.40,0.65,8.40,0.65,-0.62,-0.65,-0.18,7.77,7.78,7.74
31.61,8.43,0.69,8.43,0.69,-0.67,-0.69,-0.20,7.75,7.76,7.74
31.93,8.46,0.73,8.46,0.73,-0.73,-0.74,-0.23,7.73,7.73,7.73
32.24,8.49,0.76,8.48,0.76,-0.78,-0.78,-0.25,7.71,7.70,7.73
32.57,8.52,0.80,8.51,0.80,-0.83,-0.83,-0.28,7.69,7.68,7.71
32.89,8.55,0.84,8.56,0.85,-0.88,-0.87,-0.31,7.67,7.68,7.71
33.22,8.62,0.91,8.62,0.91,-0.92,-0.92,-0.34,7.70,7.71,7.71
33.55,8.70,0.99,8.70,0.99,-0.96,-0.96,-0.37,7.74,7.74,7.71
33.89,8.78,1.06,8.76,1.05,-1.00,-1.00,-0.41,7.78,7.76,7.71
34.23,8.80,1.10,8.78,1.08,-1.05,-1.05,-0.45,7.75,7.73,7.70
34.57,8.78,1.08,8.78,1.07,-1.09,-1.09,-0.48,7.68,7.68,7.70
34.92,8.75,1.05,8.78,1.08,-1.14,-1.14,-0.52,7.61,7.64,7.70
35.27,8.82,1.11,8.83,1.13,-1.17,-1.18,-0.56,7.64,7.65,7.70
35.62,8.91,1.22,8.90,1.21,-1.21,-1.23,-0.61,7.70,7.70,7.69
35.97,9.00,1.31,8.97,1.28,-1.24,-1.27,-0.65,7.76,7.73,7.69
36.33,9.00,1.32,9.00,1.32,-1.28,-1.32,-0.70,7.72,7.72,7.67
36.70,8.99,1.33,8.99,1.33,-1.32,-1.36,-0.74,7.67,7.68,7.66
37.06,8.98,1.33,8.99,1.35,-1.37,-1.41,-0.79,7.61,7.62,7.65
37.43,9.01,1.39,9.00,1.38,-1.42,-1.45,-0.84,7.59,7.59,7.62
37.81,9.04,1.43,9.03,1.43,-1.46,-1.50,-0.89,7.57,7.57,7.61
38.19,9.07,1.48,9.08,1.49,-1.50,-1.54,-0.94,7.56,7.57,7.58
38.57,9.12,1.56,9.12,1.56,-1.54,-1.58,-1.00,7.58,7.58,7.56
38.95,9.17,1.63,9.16,1.62,-1.58,-1.63,-1.05,7.59,7.58,7.54
39.34,9.18,1.68,9.18,1.67,-1.62,-1.67,-1.11,7.55,7.55,7.50
39.74,9.18,1.69,9.18,1.70,-1.67,-1.72,-1.17,7.51,7.51,7.49
40.14,9.17,1.71,9.16,1.70,-1.72,-1.76,-1.22,7.44,7.44,7.46
40.54,9.16,1.72,9.15,1.71,-1.78,-1.81,-1.28,7.38,7.37,7.44
40.94,9.14,1.73,9.18,1.76,-1.83,-1.85,-1.35,7.31,7.35,7.41
41.35,9.24,1.84,9.25,1.86,-1.88,-1.89,-1.41,7.36,7.36,7.39
41.76,9.35,1.99,9.33,1.96,-1.93,-1.94,-1.47,7.42,7.39,7.36
42.18,9.41,2.06,9.39,2.04,-1.98,-1.98,-1.54,7.43,7.41,7.34
42.60,9.40,2.07,9.40,2.08,-2.03,-2.02,-1.60,7.37,7.37,7.33
43.03,9.38,2.08,9.39,2.09,-2.07,-2.07,-1.67,7.31,7.33,7.30
43.46,9.38,2.10,9.38,2.10,-2.10,-2.11,-1.74,7.28,7.28,7.27
43.90,9.38,2.12,9.37,2.12,-2.13,-2.15,-1.81,7.25,7.24,7.26
44.33,9.37,2.14,9.36,2.13,-2.16,-2.20,-1.88,7.21,7.20,7.23
44.78,9.35,2.15,9.36,2.15,-2.19,-2.24,-1.95,7.15,7.16,7.20
45.23,9.37,2.17,9.38,2.20,-2.24,-2.28,-2.03,7.13,7.14,7.19
45.68,9.44,2.28,9.43,2.27,-2.30,-2.32,-2.10,7.14,7.13,7.16
46.13,9.50,2.38,9.50,2.37,-2.36,-2.37,-2.18,7.14,7.14,7.12
46.60,9.55,2.46,9.55,2.46,-2.42,-2.41,-2.26,7.12,7.13,7.09
47.06,9.60,2.54,9.58,2.52,-2.49,-2.45,-2.34,7.11,7.09,7.06
47.53,9.59,2.56,9.59,2.57,-2.55,-2.49,-2.42,7.04,7.04,7.03
48.01,9.58,2.60,9.59,2.60,-2.60,-2.53,-2.50,6.97,6.98,6.98
48.49,9.58,2.64,9.58,2.63,-2.65,-2.58,-2.59,6.93,6.93,6.94
48.97,9.58,2.68,9.58,2.68,-2.69,-2.62,-2.67,6.89,6.89,6.90
49.46,9.58,2.71,9.58,2.72,-2.72,-2.66,-2.75,6.86,6.86,6.87
49.96,9.58,2.77,9.58,2.76,-2.75,-2.70,-2.84,6.83,6.83,6.81
50.46,9.58,2.80,9.58,2.80,-2.79,-2.74,-2.93,6.79,6.79,6.77
50.96,9.58,2.84,9.57,2.83,-2.84,-2.78,-3.01,6.74,6.74,6.74
51.47,9.58,2.87,9.57,2.87,-2.89,-2.82,-3.10,6.69,6.68,6.71
51.99,9.57,2.90,9.59,2.91,-2.96,-2.86,-3.18,6.61,6.63,6.67
52.51,9.63,2.99,9.62,2.99,-3.02,-2.91,-3.27,6.60,6.60,6.63
53.03,9.68,3.07,9.69,3.09,-3.09,-2.95,-3.36,6.59,6.60,6.61
53.56,9.76,3.19,9.75,3.19,-3.16,-2.99,-3.44,6.60,6.60,6.56
54.10,9.82,3.30,9.79,3.26,-3.22,-3.03,-3.53,6.59,6.56,6.52
54.64,9.79,3.30,9.80,3.32,-3.29,-3.07,-3.61,6.50,6.51,6.48
55.18,9.78,3.34,9.79,3.35,-3.34,-3.11,-3.69,6.44,6.45,6.44
55.74,9.78,3.38,9.78,3.37,-3.38,-3.15,-3.77,6.39,6.39,6.40
56.29,9.78,3.40,9.78,3.41,-3.42,-3.19,-3.84,6.36,6.36,6.37
56.86,9.78,3.43,9.78,3.44,-3.44,-3.23,-3.92,6.33,6.33,6.35
57.42,9.78,3.48,9.78,3.47,-3.47,-3.27,-3.99,6.31,6.31,6.30
58.00,9.78,3.50,9.78,3.50,-3.49,-3.31,-4.05,6.28,6.28,6.28
58.58,9.78,3.52,9.78,3.52,-3.52,-3.35,-4.12,6.26,6.26,6.26
59.16,9.78,3.55,9.78,3.55,-3.56,-3.38,-4.18,6.22,6.22,6.23
59.76,9.78,3.58,9.78,3.58,-3.60,-3.42,-4.23,6.18,6.18,6.20
60.35,9.78,3.63,9.78,3.63,-3.64,-3.46,-4.28,6.14,6.14,6.15
60.96,9.78,3.67,9.78,3.67,-3.68,-3.50,-4.33,6.10,6.10,6.10
61.57,9.78,3.73,9.78,3.73,-3.73,-3.54,-4.37,6.05,6.05,6.05
62.18,9.78,3.78,9.78,3.78,-3.77,-3.58,-4.40,6.00,6.00,6.00
62.80,9.78,3.83,9.78,3.83,-3.82,-3.62,-4.43,5.96,5.96,5.94
63.43,9.78,3.88,9.78,3.88,-3.87,-3.66,-4.46,5.91,5.91,5.90
64.07,9.78,3.92,9.78,3.92,-3.92,-3.70,-4.48,5.86,5.86,5.86
64.71,9.78,3.96,9.78,3.96,-3.96,-3.73,-4.50,5.82,5.82,5.82
65.35,9.78,4.00,9.78,4.00,-4.00,-3.77,-4.51,5.77,5.77,5.78
66.01,9.78,4.05,9.78,4.04,-4.05,-3.81,-4.51,5.73,5.73,5.73
66.67,9.78,4.08,9.78,4.08,-4.09,-3.85,-4.52,5.69,5.69,5.70
67.33,9.78,4.14,9.78,4.13,-4.13,-3.89,-4.52,5.64,5.64,5.64
68.01,9.78,4.18,9.78,4.18,-4.18,-3.93,-4.51,5.59,5.59,5.60
68.69,9.78,4.23,9.78,4.22,-4.23,-3.96,-4.51,5.55,5.55,5.55
69.37,9.78,4.26,9.78,4.27,-4.27,-4.00,-4.50,5.51,5.51,5.52
70.07,9.78,4.31,9.79,4.32,-4.31,-4.04,-4.49,5.47,5.48,5.46
70.77,9.80,4.38,9.79,4.37,-4.35,-4.08,-4.47,5.45,5.44,5.42
71.48,9.79,4.41,9.77,4.40,-4.38,-4.11,-4.46,5.41,5.39,5.38
72.19,9.75,4.43,9.74,4.42,-4.41,-4.15,-4.44,5.33,5.33,5.32
72.91,9.69,4.41,9.71,4.43,-4.44,-4.19,-4.43,5.24,5.26,5.27
73.64,9.68,4.45,9.68,4.45,-4.47,-4.23,-4.41,5.20,5.21,5.23
74.38,9.68,4.49,9.67,4.49,-4.50,-4.27,-4.40,5.17,5.17,5.19
75.12,9.68,4.54,9.68,4.53,-4.53,-4.30,-4.38,5.14,5.14,5.14
75.87,9.68,4.57,9.68,4.57,-4.57,-4.34,-4.37,5.11,5.11,5.11
76.63,9.68,4.61,9.68,4.61,-4.60,-4.38,-4.36,5.08,5.08,5.07
77.40,9.68,4.64,9.68,4.64,-4.64,-4.41,-4.34,5.04,5.04,5.04
78.17,9.68,4.68,9.68,4.68,-4.67,-4.45,-4.34,5.00,5.00,5.00
78.95,9.68,4.71,9.68,4.71,-4.71,-4.49,-4.33,4.97,4.97,4.97
79.74,9.68,4.74,9.68,4.74,-4.75,-4.53,-4.32,4.93,4.93,4.94
80.54,9.68,4.77,9.68,4.77,-4.78,-4.56,-4.32,4.90,4.90,4.90
81.35,9.68,4.81,9.68,4.80,-4.82,-4.60,-4.32,4.86,4.86,4.87
82.16,9.68,4.84,9.68,4.84,-4.85,-4.63,-4.32,4.83,4.83,4.84
82.98,9.68,4.87,9.69,4.88,-4.88,-4.67,-4.33,4.80,4.81,4.80
83.81,9.70,4.93,9.69,4.92,-4.90,-4.71,-4.34,4.79,4.78,4.77
84.65,9.68,4.95,9.66,4.94,-4.92,-4.74,-4.35,4.76,4.74,4.73
85.50,9.63,4.95,9.63,4.95,-4.93,-4.78,-4.36,4.70,4.70,4.68
86.35,9.58,4.93,9.60,4.96,-4.94,-4.81,-4.38,4.64,4.66,4.65
87.22,9.58,4.96,9.56,4.95,-4.95,-4.85,-4.40,4.63,4.61,4.62
88.09,9.56,4.98,9.53,4.95,-4.96,-4.88,-4.43,4.59,4.56,4.57
88.97,9.46,4.92,9.49,4.96,-4.98,-4.92,-4.46,4.48,4.51,4.54
89.86,9.47,4.98,9.47,4.98,-5.01,-4.95,-4.49,4.46,4.46,4.49
90.76,9.48,5.02,9.47,5.02,-5.04,-4.98,-4.52,4.44,4.43,4.46
91.66,9.49,5.09,9.49,5.08,-5.07,-5.02,-4.56,4.41,4.41,4.40
92.58,9.49,5.12,9.50,5.13,-5.11,-5.05,-4.60,4.38,4.38,4.37
93.51,9.50,5.17,9.50,5.18,-5.15,-5.08,-4.65,4.35,4.35,4.32
94.44,9.50,5.22,9.48,5.21,-5.19,-5.11,-4.69,4.31,4.29,4.28
95.39,9.46,5.24,9.45,5.23,-5.22,-5.15,-4.75,4.24,4.23,4.22
96.34,9.39,5.22,9.41,5.25,-5.25,-5.18,-4.80,4.14,4.16,4.17
97.30,9.38,5.27,9.37,5.27,-5.27,-5.21,-4.86,4.11,4.10,4.11
98.28,9.35,5.30,9.33,5.28,-5.29,-5.24,-4.92,4.06,4.04,4.05
99.26,9.29,5.30,9.29,5.30,-5.30,-5.27,-4.98,3.99,3.99,3.99
100.25,9.22,5.29,9.25,5.32,-5.31,-5.29,-5.04,3.90,3.93,3.93
101.25,9.22,5.34,9.21,5.34,-5.33,-5.32,-5.11,3.89,3.88,3.88
102.27,9.20,5.38,9.17,5.35,-5.35,-5.35,-5.18,3.85,3.83,3.82
103.29,9.13,5.36,9.13,5.36,-5.37,-5.37,-5.25,3.76,3.77,3.76
104.32,9.07,5.35,9.08,5.37,-5.39,-5.40,-5.32,3.68,3.69,3.72
105.37,9.05,5.39,9.04,5.39,-5.41,-5.42,-5.39,3.64,3.63,3.66
106.42,9.02,5.42,9.02,5.42,-5.42,-5.45,-5.46,3.59,3.59,3.60
107.48,9.00,5.46,9.00,5.46,-5.43,-5.47,-5.53,3.57,3.57,3.53
108.56,8.97,5.47,8.98,5.49,-5.44,-5.49,-5.60,3.53,3.54,3.50
109.64,8.95,5.51,8.92,5.48,-5.44,-5.51,-5.67,3.50,3.48,3.44
110.74,8.85,5.47,8.84,5.45,-5.45,-5.53,-5.74,3.39,3.38,3.38
111.85,8.73,5.39,8.76,5.43,-5.47,-5.55,-5.80,3.26,3.29,3.33
112.97,8.70,5.41,8.70,5.42,-5.48,-5.57,-5.86,3.21,3.22,3.29
114.10,8.70,5.46,8.69,5.45,-5.49,-5.59,-5.93,3.20,3.19,3.24
115.24,8.70,5.51,8.70,5.52,-5.50,-5.60,-5.98,3.19,3.20,3.18
116.39,8.70,5.57,8.70,5.57,-5.52,-5.62,-6.03,3.18,3.18,3.13
117.55,8.70,5.61,8.68,5.59,-5.54,-5.63,-6.08,3.16,3.14,3.09
118.73,8.64,5.60,8.63,5.58,-5.56,-5.65,-6.12,3.07,3.06,3.04
119.92,8.55,5.55,8.57,5.56,-5.59,-5.66,-6.15,2.96,2.98,3.00
121.12,8.52,5.54,8.53,5.56,-5.60,-5.67,-6.19,2.92,2.93,2.98
122.33,8.53,5.59,8.53,5.59,-5.61,-5.68,-6.21,2.91,2.91,2.93
123.55,8.54,5.64,8.52,5.62,-5.62,-5.69,-6.23,2.92,2.90,2.90
124.79,8.53,5.66,8.51,5.65,-5.63,-5.70,-6.23,2.90,2.88,2.87
126.03,8.46,5.63,8.49,5.66,-5.64,-5.71,-6.24,2.82,2.85,2.83
127.29,8.46,5.67,8.45,5.67,-5.65,-5.72,-6.23,2.81,2.80,2.79
128.57,8.43,5.68,8.41,5.66,-5.66,-5.73,-6.23,2.76,2.75,2.75
129.85,8.37,5.66,8.37,5.66,-5.67,-5.74,-6.21,2.69,2.69,2.71
131.15,8.31,5.64,8.32,5.65,-5.68,-5.74,-6.19,2.63,2.64,2.67
132.46,8.29,5.66,8.29,5.66,-5.68,-5.75,-6.16,2.61,2.61,2.63
133.79,8.28,5.69,8.29,5.70,-5.68,-5.76,-6.12,2.60,2.61,2.59
135.12,8.29,5.73,8.27,5.71,-5.68,-5.76,-6.08,2.60,2.59,2.56
136.48,8.26,5.73,8.23,5.71,-5.69,-5.77,-6.04,2.57,2.54,2.53
137.84,8.15,5.65,8.17,5.68,-5.70,-5.77,-5.99,2.45,2.47,2.49
139.22,8.11,5.67,8.12,5.67,-5.70,-5.78,-5.94,2.40,2.41,2.44
140.61,8.09,5.67,8.09,5.68,-5.70,-5.78,-5.89,2.38,2.39,2.42
142.02,8.09,5.71,8.09,5.72,-5.70,-5.78,-5.84,2.39,2.39,2.37
143.44,8.09,5.76,8.06,5.73,-5.69,-5.79,-5.78,2.40,2.37,2.33
144.87,8.03,5.73,8.02,5.72,-5.69,-5.79,-5.72,2.34,2.33,2.30
146.32,7.93,5.66,7.95,5.69,-5.68,-5.79,-5.66,2.24,2.27,2.27
147.78,7.89,5.66,7.89,5.65,-5.68,-5.79,-5.60,2.20,2.20,2.23
149.26,7.85,5.65,7.84,5.64,-5.68,-5.79,-5.54,2.17,2.16,2.19
150.75,7.80,5.65,7.81,5.66,-5.68,-5.79,-5.49,2.12,2.14,2.15
152.26,7.79,5.67,7.79,5.67,-5.67,-5.79,-5.43,2.12,2.12,2.12
153.78,7.79,5.70,7.77,5.69,-5.67,-5.79,-5.37,2.12,2.10,2.08
155.32,7.74,5.69,7.74,5.69,-5.67,-5.78,-5.32,2.06,2.06,2.05
156.88,7.69,5.68,7.68,5.68,-5.68,-5.78,-5.27,2.01,2.01,2.00
158.44,7.62,5.66,7.63,5.67,-5.68,-5.77,-5.22,1.94,1.95,1.96
160.03,7.59,5.67,7.59,5.67,-5.68,-5.77,-5.17,1.91,1.91,1.92
161.63,7.56,5.68,7.54,5.67,-5.67,-5.76,-5.13,1.89,1.87,1.88
163.24,7.51,5.68,7.50,5.67,-5.66,-5.75,-5.09,1.85,1.84,1.83
164.88,7.42,5.63,7.44,5.66,-5.65,-5.74,-5.05,1.77,1.79,1.79
166.53,7.39,5.65,7.39,5.65,-5.64,-5.73,-5.02,1.75,1.75,1.74
168.19,7.34,5.64,7.33,5.63,-5.63,-5.71,-4.99,1.70,1.69,1.70
169.87,7.28,5.63,7.26,5.61,-5.63,-5.70,-4.96,1.65,1.64,1.65
171.57,7.18,5.57,7.20,5.60,-5.61,-5.69,-4.94,1.56,1.59,1.60
173.29,7.15,5.59,7.17,5.61,-5.60,-5.67,-4.92,1.54,1.56,1.56
175.02,7.15,5.62,7.12,5.60,-5.59,-5.65,-4.90,1.56,1.53,1.52
176.77,7.11,5.63,7.08,5.60,-5.58,-5.64,-4.89,1.53,1.50,1.48
178.54,6.98,5.54,7.02,5.58,-5.57,-5.62,-4.88,1.41,1.45,1.43
180.32,6.95,5.56,6.95,5.56,-5.56,-5.60,-4.88,1.39,1.39,1.39
182.13,6.92,5.56,6.90,5.54,-5.56,-5.57,-4.88,1.36,1.34,1.36
183.95,6.86,5.53,6.86,5.54,-5.56,-5.55,-4.88,1.30,1.30,1.33
185.79,6.82,5.53,6.82,5.53,-5.56,-5.53,-4.89,1.26,1.26,1.29
187.65,6.79,5.53,6.80,5.55,-5.56,-5.51,-4.90,1.23,1.24,1.26
189.52,6.80,5.58,6.79,5.57,-5.57,-5.48,-4.91,1.23,1.23,1.22
191.42,6.80,5.60,6.78,5.59,-5.57,-5.45,-4.93,1.23,1.21,1.20
193.33,6.75,5.59,6.76,5.60,-5.57,-5.43,-4.95,1.18,1.19,1.16
195.27,6.70,5.58,6.71,5.58,-5.56,-5.40,-4.97,1.13,1.14,1.12
197.22,6.66,5.57,6.64,5.55,-5.55,-5.37,-5.00,1.11,1.09,1.08
199.19,6.57,5.51,6.57,5.52,-5.53,-5.34,-5.02,1.04,1.04,1.06
201.18,6.49,5.47,6.52,5.50,-5.50,-5.31,-5.05,0.98,1.02,1.02
203.19,6.48,5.48,6.47,5.47,-5.48,-5.28,-5.09,1.00,0.99,0.99
205.23,6.46,5.49,6.41,5.45,-5.46,-5.25,-5.12,1.00,0.96,0.97
207.28,6.34,5.39,6.36,5.42,-5.44,-5.22,-5.16,0.90,0.92,0.94
209.35,6.28,5.37,6.30,5.39,-5.42,-5.18,-5.19,0.86,0.89,0.91
211.44,6.28,5.40,6.28,5.40,-5.40,-5.15,-5.23,0.88,0.88,0.88
213.56,6.27,5.41,6.25,5.40,-5.38,-5.11,-5.27,0.89,0.87,0.85
215.69,6.23,5.41,6.20,5.38,-5.35,-5.08,-5.30,0.88,0.85,0.82
217.85,6.09,5.29,6.14,5.34,-5.33,-5.04,-5.34,0.76,0.81,0.80
220.03,6.07,5.31,6.06,5.30,-5.30,-5.01,-5.37,0.77,0.76,0.76
222.23,6.02,5.28,5.98,5.25,-5.27,-4.97,-5.41,0.75,0.71,0.73
224.45,5.91,5.19,5.93,5.22,-5.23,-4.93,-5.44,0.67,0.70,0.71
226.70,5.86,5.17,5.88,5.18,-5.19,-4.89,-5.46,0.66,0.68,0.69
228.96,5.86,5.18,5.84,5.16,-5.15,-4.85,-5.49,0.70,0.69,0.68
231.25,5.81,5.14,5.80,5.14,-5.12,-4.81,-5.51,0.69,0.69,0.67
233.57,5.77,5.11,5.74,5.09,-5.08,-4.77,-5.52,0.69,0.66,0.65
235.90,5.66,5.01,5.68,5.04,-5.05,-4.73,-5.53,0.61,0.64,0.64
238.26,5.62,4.98,5.64,5.00,-5.01,-4.69,-5.54,0.61,0.63,0.63
240.64,5.62,4.97,5.60,4.96,-4.97,-4.65,-5.53,0.65,0.63,0.65
243.05,5.59,4.95,5.56,4.93,-4.93,-4.61,-5.53,0.66,0.64,0.64
245.48,5.50,4.87,5.53,4.90,-4.88,-4.57,-5.51,0.61,0.65,0.63
247.93,5.48,4.86,5.48,4.85,-4.84,-4.52,-5.49,0.63,0.64,0.62
250.41,5.47,4.83,5.43,4.80,-4.80,-4.48,-5.46,0.66,0.62,0.63
252.92,5.36,4.72,5.39,4.76,-4.76,-4.44,-5.43,0.59,0.63,0.64
255.45,5.34,4.72,5.34,4.71,-4.72,-4.39,-5.39,0.62,0.62,0.62
258.00,5.31,4.68,5.29,4.67,-4.67,-4.35,-5.34,0.63,0.62,0.62
260.58,5.25,4.63,5.26,4.64,-4.63,-4.30,-5.28,0.62,0.63,0.62
263.19,5.20,4.59,5.20,4.59,-4.58,-4.26,-5.22,0.62,0.62,0.61
265.82,5.14,4.54,5.13,4.53,-4.53,-4.21,-5.15,0.61,0.60,0.60
268.48,5.06,4.47,5.07,4.48,-4.48,-4.16,-5.08,0.58,0.59,0.59
271.16,5.00,4.42,4.99,4.42,-4.43,-4.12,-5.00,0.57,0.57,0.57
273.87,4.93,4.36,4.93,4.36,-4.37,-4.07,-4.92,0.55,0.55,0.57
276.61,4.86,4.30,4.86,4.31,-4.32,-4.02,-4.83,0.54,0.54,0.55
279.38,4.81,4.28,4.80,4.26,-4.27,-3.98,-4.74,0.54,0.54,0.53
282.17,4.75,4.21,4.74,4.21,-4.21,-3.93,-4.64,0.54,0.53,0.53
284.99,4.69,4.16,4.70,4.17,-4.15,-3.88,-4.55,0.53,0.54,0.53
287.84,4.64,4.10,4.64,4.11,-4.10,-3.83,-4.44,0.54,0.54,0.54
290.72,4.60,4.08,4.57,4.04,-4.04,-3.78,-4.34,0.56,0.53,0.52
293.63,4.49,3.96,4.51,3.98,-3.98,-3.73,-4.24,0.50,0.53,0.53
296.57,4.44,3.90,4.44,3.91,-3.92,-3.69,-4.13,0.52,0.52,0.53
299.53,4.40,3.87,4.38,3.85,-3.86,-3.64,-4.02,0.54,0.52,0.53
302.53,4.33,3.79,4.34,3.80,-3.80,-3.59,-3.92,0.53,0.54,0.54
305.55,4.29,3.75,4.28,3.75,-3.74,-3.54,-3.81,0.54,0.54,0.53
308.61,4.23,3.69,4.23,3.69,-3.69,-3.49,-3.70,0.54,0.53,0.54
311.69,4.17,3.64,4.16,3.63,-3.64,-3.44,-3.60,0.52,0.52,0.53
314.81,4.10,3.56,4.09,3.56,-3.59,-3.38,-3.49,0.51,0.50,0.53
317.96,4.03,3.51,4.06,3.54,-3.54,-3.33,-3.39,0.49,0.52,0.52
321.14,4.02,3.49,4.03,3.50,-3.48,-3.28,-3.28,0.53,0.55,0.53
324.35,4.04,3.51,3.98,3.45,-3.42,-3.23,-3.18,0.61,0.55,0.52
327.59,3.90,3.37,3.90,3.37,-3.36,-3.18,-3.08,0.54,0.54,0.53
330.87,3.78,3.25,3.82,3.29,-3.29,-3.13,-2.98,0.49,0.53,0.53
334.18,3.73,3.21,3.73,3.20,-3.21,-3.07,-2.88,0.51,0.52,0.52
337.52,3.70,3.17,3.66,3.14,-3.14,-3.02,-2.79,0.56,0.52,0.52
340.90,3.58,3.06,3.59,3.07,-3.06,-2.97,-2.69,0.51,0.53,0.52
344.30,3.50,2.97,3.51,2.98,-2.99,-2.92,-2.60,0.51,0.52,0.53
347.75,3.44,2.90,3.41,2.88,-2.92,-2.86,-2.51,0.52,0.49,0.54
351.23,3.35,2.82,3.36,2.83,-2.85,-2.81,-2.42,0.50,0.51,0.53
354.74,3.30,2.75,3.34,2.80,-2.78,-2.76,-2.33,0.52,0.56,0.54
358.28,3.34,2.80,3.30,2.75,-2.72,-2.70,-2.24,0.62,0.58,0.54
361.87,3.29,2.74,3.23,2.67,-2.65,-2.65,-2.16,0.63,0.57,0.55
365.49,3.09,2.53,3.15,2.59,-2.59,-2.59,-2.08,0.49,0.55,0.56
369.14,3.03,2.46,3.06,2.49,-2.54,-2.54,-2.00,0.49,0.53,0.57
372.83,3.06,2.48,3.01,2.44,-2.48,-2.48,-1.92,0.58,0.54,0.58
376.56,2.99,2.41,3.00,2.42,-2.41,-2.43,-1.84,0.58,0.59,0.57
380.33,2.95,2.37,2.95,2.37,-2.34,-2.37,-1.77,0.61,0.61,0.57
384.13,2.89,2.31,2.87,2.29,-2.28,-2.31,-1.69,0.61,0.59,0.58
387.97,2.79,2.21,2.80,2.22,-2.21,-2.26,-1.62,0.58,0.59,0.58
391.85,2.70,2.12,2.72,2.14,-2.15,-2.20,-1.55,0.55,0.57,0.58
395.77,2.67,2.10,2.62,2.04,-2.07,-2.14,-1.48,0.59,0.54,0.57
399.73,2.52,1.95,2.56,1.99,-1.99,-2.08,-1.41,0.52,0.56,0.57
403.72,2.46,1.88,2.51,1.95,-1.91,-2.03,-1.34,0.55,0.60,0.58
407.76,2.50,1.94,2.42,1.86,-1.84,-1.97,-1.28,0.66,0.58,0.55
411.84,2.36,1.80,2.31,1.76,-1.77,-1.91,-1.22,0.59,0.54,0.55
415.96,2.14,1.59,2.23,1.68,-1.70,-1.85,-1.15,0.43,0.52,0.55
420.12,2.10,1.56,2.15,1.61,-1.64,-1.79,-1.09,0.46,0.51,0.54
424.32,2.22,1.67,2.10,1.55,-1.57,-1.73,-1.03,0.64,0.53,0.55
428.56,2.10,1.53,2.09,1.53,-1.50,-1.67,-0.97,0.60,0.59,0.57
432.85,1.97,1.38,2.08,1.49,-1.43,-1.61,-0.91,0.54,0.65,0.59
437.18,2.06,1.46,2.00,1.39,-1.37,-1.55,-0.86,0.69,0.63,0.60
441.55,2.02,1.38,1.93,1.30,-1.31,-1.49,-0.80,0.71,0.62,0.64
445.96,1.81,1.13,1.90,1.22,-1.25,-1.42,-0.75,0.55,0.64,0.68
450.42,1.81,1.09,1.85,1.14,-1.19,-1.36,-0.69,0.62,0.66,0.72
454.93,1.93,1.16,1.86,1.09,-1.12,-1.30,-0.64,0.81,0.74,0.76
459.48,1.91,1.08,1.91,1.09,-1.05,-1.23,-0.59,0.86,0.87,0.82
464.07,1.91,1.01,1.92,1.04,-0.98,-1.17,-0.54,0.93,0.95,0.89
468.71,1.90,0.95,1.89,0.94,-0.92,-1.10,-0.49,0.98,0.97,0.94
473.40,1.87,0.87,1.85,0.84,-0.86,-1.04,-0.44,1.01,0.99,1.00
478.13,1.79,0.73,1.79,0.74,-0.78,-0.97,-0.39,1.00,1.01,1.06
482.91,1.75,0.64,1.79,0.68,-0.71,-0.90,-0.35,1.04,1.08,1.11
487.74,1.77,0.62,1.78,0.62,-0.62,-0.83,-0.30,1.14,1.15,1.15
492.62,1.85,0.66,1.78,0.59,-0.54,-0.76,-0.26,1.31,1.24,1.19
497.55,1.71,0.48,1.74,0.52,-0.46,-0.69,-0.21,1.24,1.28,1.23
502.52,1.67,0.42,1.63,0.38,-0.40,-0.62,-0.17,1.27,1.23,1.25
507.55,1.53,0.25,1.55,0.28,-0.33,-0.55,-0.12,1.19,1.22,1.28
512.62,1.44,0.15,1.53,0.24,-0.27,-0.48,-0.08,1.17,1.26,1.29
517.75,1.58,0.28,1.46,0.16,-0.19,-0.41,-0.04,1.38,1.27,1.30
522.93,1.46,0.16,1.42,0.13,-0.11,-0.33,0.00,1.34,1.31,1.30
528.16,1.24,-0.04,1.39,0.11,-0.04,-0.26,0.04,1.20,1.35,1.28
533.44,1.33,0.07,1.25,-0.00,0.04,-0.18,0.09,1.36,1.29,1.26
538.77,1.24,0.01,1.11,-0.12,0.11,-0.11,0.13,1.35,1.22,1.23
544.16,0.87,-0.34,1.00,-0.20,0.20,-0.03,0.17,1.06,1.20,1.21
549.60,0.81,-0.37,0.86,-0.31,0.28,0.05,0.21,1.09,1.15,1.18
