frequency,raw,smoothed,error,error_smoothed,equalization,parametric_eq,fixed_band_eq,equalized_raw,equalized_smoothed,target
20.00,-8.15,-8.15,-6.06,-6.06,6.03,1.49,1.15,-2.11,-2.11,-2.09
20.20,-8.02,-8.02,-5.96,-5.96,5.94,1.49,1.19,-2.08,-2.08,-2.06
20.40,-7.89,-7.89,-5.86,-5.86,5.85,1.49,1.23,-2.04,-2.04,-2.03
20.61,-7.76,-7.76,-5.75,-5.76,5.75,1.48,1.26,-2.01,-2.01,-2.01
20.81,-7.64,-7.64,-5.66,-5.66,5.65,1.48,1.30,-1.99,-1.99,-1.98
21.02,-7.51,-7.51,-5.56,-5.55,5.55,1.48,1.34,-1.96,-1.96,-1.95
21.23,-7.39,-7.38,-5.45,-5.45,5.44,1.48,1.38,-1.95,-1.94,-1.94
21.44,-7.26,-7.26,-5.33,-5.33,5.33,1.48,1.42,-1.92,-1.93,-1.93
21.66,-7.14,-7.14,-5.22,-5.21,5.21,1.48,1.47,-1.92,-1.92,-1.92
21.87,-7.02,-7.01,-5.09,-5.10,5.10,1.48,1.51,-1.92,-1.91,-1.92
22.09,-6.90,-6.90,-4.98,-4.98,4.98,1.48,1.55,-1.91,-1.91,-1.91
22.31,-6.78,-6.78,-4.86,-4.87,4.87,1.48,1.60,-1.91,-1.91,-1.91
22.54,-6.67,-6.66,-4.76,-4.75,4.75,1.48,1.65,-1.92,-1.92,-1.91
22.76,-6.55,-6.55,-4.63,-4.63,4.63,1.48,1.70,-1.91,-1.92,-1.91
22.99,-6.44,-6.44,-4.51,-4.52,4.52,1.47,1.75,-1.92,-1.92,-1.93
23.22,-6.33,-6.33,-4.40,-4.40,4.40,1.47,1.80,-1.92,-1.92,-1.93
23.45,-6.22,-6.22,-4.29,-4.29,4.29,1.47,1.85,-1.92,-1.93,-1.93
23.69,-6.11,-6.11,-4.18,-4.18,4.18,1.47,1.91,-1.93,-1.93,-1.93
23.92,-6.00,-6.00,-4.07,-4.07,4.07,1.47,1.96,-1.92,-1.93,-1.93
24.16,-5.89,-5.89,-3.97,-3.97,3.96,1.47,2.02,-1.92,-1.93,-1.92
24.40,-5.79,-5.78,-3.87,-3.86,3.86,1.47,2.07,-1.93,-1.93,-1.92
24.65,-5.68,-5.68,-3.75,-3.75,3.75,1.47,2.13,-1.93,-1.93,-1.93
24.89,-5.58,-5.58,-3.64,-3.65,3.65,1.47,2.19,-1.93,-1.93,-1.93
25.14,-5.48,-5.47,-3.54,-3.54,3.54,1.46,2.24,-1.93,-1.93,-1.93
25.39,-5.38,-5.38,-3.44,-3.44,3.44,1.46,2.30,-1.94,-1.94,-1.93
25.65,-5.28,-5.28,-3.34,-3.34,3.34,1.46,2.36,-1.94,-1.94,-1.94
25.91,-5.19,-5.18,-3.24,-3.24,3.24,1.46,2.42,-1.95,-1.94,-1.95
26.16,-5.09,-5.09,-3.14,-3.14,3.15,1.46,2.48,-1.94,-1.94,-1.95
26.43,-5.00,-5.00,-3.05,-3.05,3.06,1.46,2.53,-1.94,-1.94,-1.95
26.69,-4.92,-4.91,-2.97,-2.96,2.97,1.46,2.59,-1.95,-1.95,-1.95
26.96,-4.83,-4.83,-2.88,-2.88,2.88,1.45,2.64,-1.95,-1.95,-1.95
27.23,-4.75,-4.75,-2.80,-2.80,2.79,1.45,2.70,-1.96,-1.96,-1.95
27.50,-4.67,-4.67,-2.71,-2.71,2.71,1.45,2.75,-1.96,-1.96,-1.95
27.77,-4.59,-4.59,-2.62,-2.63,2.63,1.45,2.80,-1.96,-1.96,-1.96
28.05,-4.52,-4.51,-2.55,-2.54,2.55,1.45,2.84,-1.97,-1.97,-1.97
28.33,-4.44,-4.44,-2.46,-2.47,2.47,1.45,2.89,-1.97,-1.97,-1.98
28.62,-4.37,-4.37,-2.39,-2.39,2.39,1.45,2.93,-1.98,-1.98,-1.98
28.90,-4.30,-4.30,-2.32,-2.31,2.31,1.44,2.96,-1.98,-1.98,-1.98
29.19,-4.23,-4.23,-2.24,-2.24,2.24,1.44,3.00,-1.99,-1.99,-1.99
29.48,-4.16,-4.16,-2.17,-2.17,2.17,1.44,3.03,-1.99,-1.99,-1.98
29.78,-4.10,-4.09,-2.10,-2.10,2.10,1.44,3.05,-2.00,-2.00,-2.00
30.08,-4.03,-4.03,-2.03,-2.03,2.03,1.44,3.07,-2.00,-2.00,-2.00
30.38,-3.97,-3.97,-1.96,-1.96,1.96,1.43,3.09,-2.01,-2.01,-2.01
30.68,-3.91,-3.91,-1.90,-1.89,1.90,1.43,3.10,-2.01,-2.01,-2.01
30.99,-3.85,-3.85,-1.82,-1.83,1.83,1.43,3.11,-2.02,-2.02,-2.02
31.30,-3.79,-3.79,-1.76,-1.77,1.77,1.43,3.11,-2.02,-2.02,-2.03
31.61,-3.74,-3.74,-1.71,-1.70,1.70,1.43,3.11,-2.03,-2.03,-2.03
31.93,-3.69,-3.69,-1.65,-1.65,1.64,1.42,3.10,-2.05,-2.05,-2.04
32.24,-3.64,-3.64,-1.58,-1.59,1.58,1.42,3.08,-2.06,-2.06,-2.05
32.57,-3.59,-3.58,-1.53,-1.53,1.52,1.42,3.06,-2.07,-2.06,-2.06
32.89,-3.53,-3.53,-1.47,-1.47,1.47,1.42,3.04,-2.06,-2.06,-2.06
33.22,-3.48,-3.48,-1.41,-1.41,1.41,1.41,3.01,-2.06,-2.06,-2.07
33.55,-3.43,-3.43,-1.35,-1.35,1.36,1.41,2.98,-2.06,-2.07,-2.07
33.89,-3.39,-3.39,-1.30,-1.31,1.32,1.41,2.94,-2.07,-2.07,-2.09
34.23,-3.36,-3.36,-1.27,-1.27,1.27,1.41,2.90,-2.08,-2.09,-2.09
34.57,-3.34,-3.34,-1.23,-1.23,1.23,1.40,2.86,-2.10,-2.10,-2.10
34.92,-3.32,-3.31,-1.20,-1.20,1.20,1.40,2.82,-2.12,-2.12,-2.12
35.27,-3.29,-3.29,-1.17,-1.17,1.16,1.40,2.77,-2.13,-2.13,-2.12
35.62,-3.27,-3.27,-1.14,-1.13,1.13,1.39,2.72,-2.14,-2.14,-2.13
35.97,-3.24,-3.24,-1.09,-1.09,1.09,1.39,2.66,-2.15,-2.15,-2.15
36.33,-3.21,-3.21,-1.06,-1.05,1.05,1.39,2.61,-2.15,-2.16,-2.15
36.70,-3.18,-3.18,-1.01,-1.02,1.02,1.38,2.55,-2.16,-2.16,-2.16
37.06,-3.16,-3.15,-0.98,-0.98,0.98,1.38,2.49,-2.18,-2.17,-2.18
37.43,-3.13,-3.13,-0.94,-0.94,0.95,1.38,2.43,-2.18,-2.18,-2.18
37.81,-3.11,-3.11,-0.91,-0.91,0.91,1.37,2.38,-2.19,-2.19,-2.20
38.19,-3.09,-3.09,-0.88,-0.88,0.88,1.37,2.32,-2.20,-2.21,-2.21
38.57,-3.08,-3.08,-0.86,-0.86,0.86,1.37,2.26,-2.22,-2.22,-2.22
38.95,-3.07,-3.07,-0.84,-0.83,0.83,1.36,2.20,-2.23,-2.23,-2.23
39.34,-3.06,-3.06,-0.81,-0.81,0.81,1.36,2.14,-2.24,-2.24,-2.25
39.74,-3.05,-3.05,-0.79,-0.79,0.80,1.35,2.08,-2.25,-2.25,-2.26
40.14,-3.05,-3.05,-0.78,-0.78,0.78,1.35,2.02,-2.26,-2.27,-2.27
40.54,-3.06,-3.05,-0.78,-0.77,0.77,1.35,1.96,-2.28,-2.28,-2.28
40.94,-3.06,-3.06,-0.77,-0.77,0.77,1.34,1.91,-2.29,-2.29,-2.29
41.35,-3.06,-3.06,-0.75,-0.76,0.76,1.34,1.85,-2.30,-2.30,-2.30
41.76,-3.07,-3.07,-0.76,-0.76,0.76,1.33,1.80,-2.31,-2.31,-2.31
42.18,-3.08,-3.07,-0.76,-0.75,0.75,1.33,1.74,-2.33,-2.32,-2.32
42.60,-3.08,-3.08,-0.74,-0.75,0.75,1.32,1.69,-2.33,-2.34,-2.33
43.03,-3.09,-3.09,-0.75,-0.74,0.74,1.32,1.64,-2.35,-2.35,-2.34
43.46,-3.10,-3.09,-0.74,-0.73,0.73,1.31,1.59,-2.37,-2.36,-2.36
43.90,-3.10,-3.10,-0.71,-0.72,0.72,1.31,1.54,-2.38,-2.38,-2.38
44.33,-3.11,-3.11,-0.70,-0.71,0.71,1.30,1.49,-2.40,-2.40,-2.40
44.78,-3.12,-3.12,-0.70,-0.70,0.70,1.30,1.45,-2.42,-2.42,-2.42
45.23,-3.13,-3.13,-0.69,-0.69,0.69,1.29,1.40,-2.44,-2.44,-2.44
45.68,-3.14,-3.13,-0.68,-0.68,0.68,1.28,1.35,-2.46,-2.45,-2.46
46.13,-3.14,-3.14,-0.66,-0.67,0.67,1.28,1.31,-2.46,-2.47,-2.48
46.60,-3.16,-3.16,-0.67,-0.66,0.67,1.27,1.27,-2.49,-2.49,-2.49
47.06,-3.17,-3.17,-0.66,-0.66,0.66,1.26,1.23,-2.51,-2.51,-2.51
47.53,-3.19,-3.18,-0.66,-0.66,0.66,1.26,1.19,-2.53,-2.53,-2.53
48.01,-3.20,-3.20,-0.66,-0.66,0.65,1.25,1.15,-2.55,-2.55,-2.54
48.49,-3.22,-3.22,-0.65,-0.65,0.65,1.24,1.11,-2.57,-2.57,-2.57
48.97,-3.24,-3.23,-0.64,-0.64,0.64,1.24,1.07,-2.60,-2.59,-2.60
49.46,-3.25,-3.25,-0.62,-0.63,0.63,1.23,1.04,-2.62,-2.62,-2.63
49.96,-3.28,-3.27,-0.62,-0.62,0.63,1.22,1.00,-2.65,-2.65,-2.66
50.46,-3.30,-3.30,-0.62,-0.62,0.62,1.21,0.97,-2.68,-2.68,-2.67
50.96,-3.32,-3.32,-0.62,-0.62,0.61,1.21,0.94,-2.70,-2.70,-2.70
51.47,-3.34,-3.33,-0.61,-0.61,0.61,1.20,0.90,-2.73,-2.73,-2.73
51.99,-3.35,-3.35,-0.60,-0.60,0.60,1.19,0.87,-2.74,-2.75,-2.75
52.51,-3.37,-3.37,-0.60,-0.60,0.60,1.18,0.84,-2.77,-2.77,-2.77
53.03,-3.39,-3.39,-0.60,-0.60,0.59,1.17,0.81,-2.79,-2.79,-2.79
53.56,-3.41,-3.41,-0.59,-0.59,0.59,1.16,0.78,-2.82,-2.82,-2.82
54.10,-3.43,-3.42,-0.59,-0.58,0.58,1.15,0.75,-2.85,-2.84,-2.84
54.64,-3.44,-3.44,-0.57,-0.57,0.57,1.14,0.73,-2.86,-2.87,-2.87
55.18,-3.46,-3.46,-0.56,-0.57,0.57,1.13,0.70,-2.89,-2.89,-2.89
55.74,-3.48,-3.48,-0.56,-0.56,0.56,1.12,0.67,-2.91,-2.91,-2.92
56.29,-3.50,-3.50,-0.56,-0.56,0.56,1.11,0.64,-2.94,-2.94,-2.94
56.86,-3.52,-3.52,-0.55,-0.55,0.55,1.10,0.62,-2.96,-2.96,-2.97
57.42,-3.54,-3.54,-0.54,-0.55,0.55,1.09,0.59,-2.99,-2.99,-2.99
58.00,-3.56,-3.56,-0.54,-0.54,0.54,1.08,0.57,-3.01,-3.01,-3.01
58.58,-3.58,-3.58,-0.54,-0.54,0.54,1.06,0.54,-3.04,-3.04,-3.03
59.16,-3.59,-3.59,-0.53,-0.54,0.53,1.05,0.52,-3.06,-3.06,-3.05
59.76,-3.61,-3.61,-0.53,-0.53,0.52,1.04,0.49,-3.09,-3.08,-3.08
60.35,-3.62,-3.62,-0.51,-0.52,0.51,1.03,0.47,-3.11,-3.11,-3.11
60.96,-3.64,-3.63,-0.51,-0.50,0.50,1.01,0.44,-3.14,-3.14,-3.13
61.57,-3.65,-3.65,-0.47,-0.48,0.48,1.00,0.42,-3.16,-3.17,-3.17
62.18,-3.67,-3.67,-0.46,-0.47,0.47,0.99,0.40,-3.20,-3.20,-3.21
62.80,-3.69,-3.69,-0.46,-0.45,0.46,0.97,0.37,-3.23,-3.23,-3.23
63.43,-3.71,-3.71,-0.44,-0.44,0.45,0.96,0.35,-3.26,-3.26,-3.27
64.07,-3.73,-3.73,-0.44,-0.43,0.44,0.94,0.32,-3.29,-3.29,-3.29
64.71,-3.75,-3.75,-0.43,-0.43,0.43,0.93,0.30,-3.32,-3.32,-3.32
65.35,-3.77,-3.77,-0.42,-0.42,0.42,0.91,0.28,-3.35,-3.35,-3.35
66.01,-3.80,-3.79,-0.42,-0.42,0.42,0.89,0.25,-3.38,-3.38,-3.37
66.67,-3.82,-3.82,-0.41,-0.41,0.41,0.88,0.23,-3.41,-3.41,-3.40
67.33,-3.84,-3.84,-0.40,-0.41,0.41,0.86,0.20,-3.43,-3.43,-3.43
68.01,-3.87,-3.86,-0.40,-0.40,0.40,0.84,0.18,-3.47,-3.46,-3.46
68.69,-3.89,-3.89,-0.39,-0.39,0.40,0.82,0.16,-3.49,-3.49,-3.49
69.37,-3.92,-3.92,-0.39,-0.39,0.39,0.80,0.13,-3.52,-3.52,-3.53
70.07,-3.95,-3.95,-0.39,-0.39,0.39,0.78,0.11,-3.56,-3.56,-3.56
70.77,-3.98,-3.98,-0.39,-0.39,0.39,0.76,0.08,-3.59,-3.59,-3.58
71.48,-4.01,-4.01,-0.39,-0.39,0.38,0.74,0.06,-3.62,-3.62,-3.62
72.19,-4.04,-4.04,-0.38,-0.38,0.38,0.72,0.03,-3.66,-3.66,-3.65
72.91,-4.07,-4.07,-0.38,-0.38,0.38,0.70,0.01,-3.69,-3.69,-3.69
73.64,-4.10,-4.10,-0.37,-0.37,0.38,0.68,-0.02,-3.72,-3.72,-3.73
74.38,-4.13,-4.13,-0.37,-0.37,0.38,0.66,-0.05,-3.75,-3.75,-3.75
75.12,-4.17,-4.17,-0.38,-0.38,0.38,0.64,-0.07,-3.79,-3.79,-3.79
75.87,-4.20,-4.20,-0.38,-0.38,0.38,0.61,-0.10,-3.82,-3.82,-3.82
76.63,-4.24,-4.24,-0.39,-0.38,0.38,0.59,-0.13,-3.86,-3.86,-3.85
77.40,-4.27,-4.27,-0.39,-0.39,0.38,0.56,-0.15,-3.88,-3.89,-3.88
78.17,-4.31,-4.30,-0.38,-0.39,0.39,0.54,-0.18,-3.92,-3.92,-3.92
78.95,-4.34,-4.34,-0.39,-0.39,0.39,0.51,-0.21,-3.95,-3.95,-3.95
79.74,-4.37,-4.37,-0.39,-0.39,0.39,0.49,-0.24,-3.98,-3.98,-3.98
80.54,-4.41,-4.40,-0.39,-0.39,0.39,0.46,-0.27,-4.01,-4.01,-4.01
81.35,-4.44,-4.44,-0.39,-0.39,0.39,0.43,-0.30,-4.04,-4.05,-4.05
82.16,-4.48,-4.48,-0.39,-0.39,0.39,0.41,-0.33,-4.09,-4.09,-4.08
82.98,-4.51,-4.51,-0.40,-0.39,0.38,0.38,-0.36,-4.12,-4.12,-4.11
83.81,-4.54,-4.54,-0.38,-0.38,0.37,0.35,-0.39,-4.16,-4.16,-4.16
84.65,-4.56,-4.56,-0.36,-0.37,0.36,0.32,-0.42,-4.19,-4.20,-4.20
85.50,-4.58,-4.58,-0.35,-0.35,0.35,0.29,-0.45,-4.23,-4.23,-4.22
86.35,-4.60,-4.59,-0.33,-0.33,0.33,0.26,-0.48,-4.27,-4.26,-4.26
87.22,-4.61,-4.61,-0.30,-0.31,0.31,0.23,-0.52,-4.30,-4.30,-4.30
88.09,-4.63,-4.63,-0.28,-0.29,0.29,0.20,-0.55,-4.33,-4.34,-4.34
88.97,-4.65,-4.65,-0.27,-0.27,0.27,0.17,-0.59,-4.37,-4.38,-4.38
89.86,-4.68,-4.67,-0.26,-0.25,0.25,0.13,-0.62,-4.42,-4.42,-4.42
90.76,-4.70,-4.70,-0.23,-0.24,0.24,0.10,-0.66,-4.46,-4.46,-4.47
91.66,-4.72,-4.72,-0.22,-0.21,0.22,0.07,-0.69,-4.50,-4.51,-4.50
92.58,-4.75,-4.74,-0.19,-0.20,0.20,0.03,-0.73,-4.55,-4.55,-4.55
93.51,-4.77,-4.77,-0.18,-0.18,0.17,-0.00,-0.76,-4.59,-4.59,-4.59
94.44,-4.79,-4.79,-0.16,-0.15,0.15,-0.04,-0.80,-4.64,-4.64,-4.63
95.39,-4.81,-4.81,-0.13,-0.13,0.13,-0.07,-0.84,-4.68,-4.68,-4.68
96.34,-4.83,-4.83,-0.10,-0.10,0.10,-0.11,-0.88,-4.73,-4.73,-4.73
97.30,-4.85,-4.85,-0.07,-0.07,0.07,-0.14,-0.91,-4.78,-4.77,-4.78
98.28,-4.86,-4.86,-0.04,-0.04,0.04,-0.18,-0.95,-4.82,-4.82,-4.82
99.26,-4.88,-4.88,-0.01,-0.01,0.01,-0.21,-0.99,-4.87,-4.87,-4.87
100.25,-4.89,-4.89,0.03,0.03,-0.03,-0.25,-1.03,-4.92,-4.92,-4.91
101.25,-4.90,-4.90,0.06,0.06,-0.06,-0.29,-1.07,-4.96,-4.96,-4.96
102.27,-4.91,-4.91,0.10,0.10,-0.10,-0.32,-1.10,-5.01,-5.01,-5.01
103.29,-4.92,-4.91,0.14,0.14,-0.14,-0.36,-1.14,-5.06,-5.05,-5.06
104.32,-4.92,-4.92,0.18,0.18,-0.18,-0.40,-1.18,-5.09,-5.10,-5.10
105.37,-4.93,-4.93,0.22,0.22,-0.22,-0.43,-1.21,-5.14,-5.14,-5.14
106.42,-4.94,-4.94,0.25,0.25,-0.25,-0.47,-1.25,-5.19,-5.19,-5.19
107.48,-4.95,-4.95,0.29,0.29,-0.29,-0.51,-1.28,-5.24,-5.24,-5.24
108.56,-4.96,-4.96,0.34,0.33,-0.33,-0.54,-1.31,-5.29,-5.29,-5.29
109.64,-4.97,-4.97,0.37,0.37,-0.37,-0.58,-1.34,-5.34,-5.34,-5.34
110.74,-4.98,-4.98,0.41,0.41,-0.41,-0.62,-1.37,-5.39,-5.39,-5.39
111.85,-4.99,-4.99,0.44,0.45,-0.45,-0.65,-1.39,-5.43,-5.44,-5.43
112.97,-5.01,-5.00,0.49,0.48,-0.49,-0.69,-1.41,-5.49,-5.49,-5.50
114.10,-5.02,-5.02,0.52,0.52,-0.52,-0.72,-1.43,-5.54,-5.54,-5.54
115.24,-5.04,-5.03,0.56,0.56,-0.56,-0.75,-1.45,-5.60,-5.60,-5.60
116.39,-5.05,-5.05,0.60,0.60,-0.60,-0.79,-1.46,-5.65,-5.65,-5.65
117.55,-5.07,-5.07,0.64,0.64,-0.63,-0.82,-1.47,-5.70,-5.70,-5.71
118.73,-5.09,-5.08,0.67,0.67,-0.67,-0.85,-1.48,-5.76,-5.76,-5.76
119.92,-5.10,-5.10,0.70,0.71,-0.71,-0.88,-1.48,-5.81,-5.81,-5.80
121.12,-5.11,-5.11,0.75,0.75,-0.75,-0.91,-1.48,-5.85,-5.86,-5.85
122.33,-5.12,-5.12,0.79,0.79,-0.79,-0.94,-1.47,-5.90,-5.90,-5.91
123.55,-5.13,-5.13,0.82,0.82,-0.83,-0.97,-1.46,-5.95,-5.96,-5.95
124.79,-5.14,-5.14,0.86,0.86,-0.87,-0.99,-1.44,-6.01,-6.01,-6.00
126.03,-5.15,-5.14,0.90,0.91,-0.91,-1.02,-1.42,-6.06,-6.06,-6.05
127.29,-5.15,-5.15,0.95,0.95,-0.95,-1.04,-1.40,-6.10,-6.11,-6.10
128.57,-5.16,-5.16,1.00,1.00,-1.00,-1.06,-1.37,-6.15,-6.15,-6.16
129.85,-5.17,-5.17,1.04,1.04,-1.04,-1.08,-1.33,-6.20,-6.20,-6.21
131.15,-5.18,-5.18,1.08,1.08,-1.07,-1.10,-1.30,-6.25,-6.25,-6.26
132.46,-5.19,-5.19,1.12,1.11,-1.11,-1.11,-1.25,-6.30,-6.30,-6.30
133.79,-5.21,-5.20,1.13,1.14,-1.14,-1.13,-1.21,-6.35,-6.35,-6.34
135.12,-5.22,-5.22,1.18,1.17,-1.17,-1.14,-1.15,-6.39,-6.39,-6.40
136.48,-5.24,-5.24,1.19,1.19,-1.20,-1.15,-1.10,-6.43,-6.44,-6.43
137.84,-5.27,-5.26,1.21,1.22,-1.22,-1.15,-1.04,-6.48,-6.48,-6.48
139.22,-5.29,-5.29,1.24,1.24,-1.23,-1.16,-0.98,-6.52,-6.52,-6.53
140.61,-5.32,-5.32,1.25,1.25,-1.24,-1.16,-0.92,-6.56,-6.56,-6.57
142.02,-5.35,-5.35,1.25,1.25,-1.25,-1.16,-0.85,-6.60,-6.60,-6.59
143.44,-5.39,-5.38,1.25,1.25,-1.25,-1.16,-0.78,-6.64,-6.64,-6.64
144.87,-5.42,-5.42,1.26,1.25,-1.25,-1.15,-0.71,-6.67,-6.67,-6.68
146.32,-5.46,-5.46,1.26,1.25,-1.25,-1.15,-0.63,-6.71,-6.71,-6.72
147.78,-5.51,-5.51,1.24,1.24,-1.24,-1.14,-0.56,-6.75,-6.75,-6.74
149.26,-5.56,-5.56,1.22,1.23,-1.23,-1.12,-0.48,-6.79,-6.79,-6.78
150.75,-5.61,-5.61,1.22,1.22,-1.22,-1.11,-0.40,-6.83,-6.83,-6.83
152.26,-5.66,-5.66,1.21,1.21,-1.21,-1.09,-0.32,-6.86,-6.87,-6.87
153.78,-5.72,-5.71,1.18,1.19,-1.19,-1.07,-0.23,-6.91,-6.90,-6.90
155.32,-5.77,-5.77,1.18,1.17,-1.17,-1.05,-0.15,-6.94,-6.94,-6.95
156.88,-5.83,-5.83,1.15,1.15,-1.15,-1.02,-0.06,-6.98,-6.98,-6.98
158.44,-5.90,-5.89,1.12,1.13,-1.13,-0.99,0.03,-7.03,-7.02,-7.02
160.03,-5.96,-5.96,1.11,1.11,-1.10,-0.96,0.11,-7.06,-7.06,-7.07
161.63,-6.03,-6.03,1.08,1.08,-1.07,-0.93,0.20,-7.10,-7.10,-7.11
163.24,-6.10,-6.10,1.05,1.04,-1.04,-0.90,0.29,-7.14,-7.14,-7.15
164.88,-6.18,-6.17,1.00,1.01,-1.01,-0.86,0.39,-7.19,-7.18,-7.18
166.53,-6.25,-6.25,0.97,0.97,-0.97,-0.82,0.48,-7.22,-7.22,-7.22
168.19,-6.33,-6.33,0.93,0.93,-0.93,-0.78,0.57,-7.26,-7.26,-7.25
169.87,-6.41,-6.41,0.88,0.89,-0.88,-0.73,0.66,-7.29,-7.29,-7.29
171.57,-6.49,-6.49,0.84,0.84,-0.84,-0.68,0.76,-7.33,-7.33,-7.33
173.29,-6.58,-6.58,0.79,0.79,-0.79,-0.64,0.85,-7.37,-7.36,-7.37
175.02,-6.67,-6.67,0.73,0.73,-0.74,-0.58,0.95,-7.40,-7.40,-7.40
176.77,-6.77,-6.77,0.68,0.68,-0.68,-0.53,1.05,-7.45,-7.45,-7.45
178.54,-6.87,-6.87,0.62,0.62,-0.62,-0.47,1.15,-7.49,-7.49,-7.49
180.32,-6.97,-6.97,0.55,0.56,-0.56,-0.42,1.24,-7.52,-7.52,-7.52
182.13,-7.07,-7.07,0.49,0.49,-0.49,-0.36,1.34,-7.55,-7.56,-7.56
183.95,-7.18,-7.18,0.42,0.42,-0.42,-0.29,1.44,-7.59,-7.59,-7.60
185.79,-7.29,-7.29,0.34,0.34,-0.34,-0.23,1.54,-7.63,-7.63,-7.63
187.65,-7.41,-7.41,0.26,0.26,-0.26,-0.16,1.65,-7.67,-7.67,-7.67
189.52,-7.53,-7.52,0.17,0.18,-0.18,-0.09,1.75,-7.71,-7.70,-7.70
191.42,-7.64,-7.64,0.09,0.09,-0.09,-0.02,1.85,-7.73,-7.73,-7.73
193.33,-7.76,-7.76,-0.00,-0.00,-0.00,0.05,1.95,-7.76,-7.76,-7.76
195.27,-7.88,-7.88,-0.09,-0.09,0.09,0.13,2.06,-7.78,-7.79,-7.79
197.22,-8.01,-8.01,-0.19,-0.19,0.19,0.21,2.16,-7.81,-7.81,-7.81
199.19,-8.14,-8.14,-0.29,-0.29,0.30,0.29,2.26,-7.84,-7.84,-7.85
201.18,-8.27,-8.27,-0.40,-0.40,0.40,0.38,2.37,-7.87,-7.87,-7.87
203.19,-8.40,-8.40,-0.51,-0.51,0.51,0.46,2.47,-7.89,-7.89,-7.88
205.23,-8.53,-8.53,-0.62,-0.63,0.62,0.55,2.58,-7.90,-7.91,-7.91
207.28,-8.67,-8.66,-0.75,-0.74,0.74,0.65,2.68,-7.93,-7.92,-7.91
209.35,-8.80,-8.80,-0.86,-0.86,0.86,0.75,2.78,-7.94,-7.94,-7.94
211.44,-8.93,-8.93,-0.97,-0.98,0.98,0.85,2.88,-7.95,-7.95,-7.96
213.56,-9.07,-9.07,-1.10,-1.10,1.10,0.96,2.98,-7.97,-7.97,-7.97
215.69,-9.21,-9.20,-1.24,-1.23,1.23,1.06,3.08,-7.98,-7.98,-7.97
217.85,-9.34,-9.34,-1.36,-1.36,1.35,1.18,3.17,-7.98,-7.99,-7.98
220.03,-9.48,-9.48,-1.48,-1.48,1.48,1.30,3.27,-7.99,-7.99,-7.99
222.23,-9.62,-9.62,-1.61,-1.62,1.62,1.43,3.36,-8.00,-8.00,-8.01
224.45,-9.76,-9.76,-1.76,-1.75,1.76,1.56,3.45,-8.00,-8.00,-8.00
226.70,-9.90,-9.90,-1.90,-1.90,1.90,1.70,3.53,-8.00,-8.00,-8.00
228.96,-10.05,-10.05,-2.05,-2.05,2.05,1.84,3.61,-8.00,-8.00,-8.00
231.25,-10.20,-10.20,-2.21,-2.20,2.20,1.99,3.68,-8.00,-8.00,-7.99
233.57,-10.35,-10.35,-2.36,-2.36,2.35,2.15,3.76,-7.99,-7.99,-7.99
235.90,-10.50,-10.50,-2.51,-2.51,2.51,2.32,3.82,-7.98,-7.99,-7.99
238.26,-10.66,-10.66,-2.67,-2.67,2.68,2.49,3.88,-7.98,-7.98,-7.99
240.64,-10.82,-10.82,-2.84,-2.84,2.84,2.67,3.94,-7.97,-7.97,-7.98
243.05,-10.98,-10.98,-3.01,-3.01,3.01,2.86,3.99,-7.96,-7.97,-7.97
245.48,-11.15,-11.14,-3.19,-3.19,3.18,3.06,4.03,-7.96,-7.96,-7.96
247.93,-11.31,-11.31,-3.36,-3.36,3.36,3.26,4.07,-7.95,-7.95,-7.94
250.41,-11.47,-11.47,-3.53,-3.53,3.53,3.46,4.10,-7.94,-7.94,-7.94
252.92,-11.63,-11.62,-3.71,-3.71,3.70,3.67,4.12,-7.93,-7.92,-7.92
255.45,-11.78,-11.78,-3.88,-3.87,3.88,3.88,4.14,-7.90,-7.90,-7.90
258.00,-11.93,-11.93,-4.04,-4.05,4.05,4.09,4.15,-7.88,-7.88,-7.88
260.58,-12.08,-12.08,-4.21,-4.21,4.22,4.29,4.16,-7.86,-7.86,-7.87
263.19,-12.24,-12.23,-4.39,-4.38,4.39,4.48,4.16,-7.85,-7.84,-7.85
265.82,-12.39,-12.39,-4.55,-4.56,4.56,4.66,4.16,-7.83,-7.83,-7.83
268.48,-12.54,-12.54,-4.73,-4.73,4.73,4.82,4.15,-7.81,-7.81,-7.81
271.16,-12.69,-12.69,-4.90,-4.90,4.90,4.96,4.14,-7.79,-7.79,-7.79
273.87,-12.83,-12.83,-5.06,-5.06,5.05,5.08,4.12,-7.77,-7.78,-7.77
276.61,-12.97,-12.97,-5.22,-5.22,5.21,5.18,4.10,-7.75,-7.75,-7.75
279.38,-13.10,-13.09,-5.37,-5.36,5.37,5.26,4.08,-7.73,-7.72,-7.73
282.17,-13.21,-13.21,-5.49,-5.50,5.51,5.32,4.05,-7.70,-7.70,-7.72
284.99,-13.32,-13.32,-5.63,-5.62,5.64,5.37,4.02,-7.68,-7.68,-7.69
287.84,-13.42,-13.42,-5.74,-5.74,5.75,5.40,3.99,-7.67,-7.67,-7.68
290.72,-13.52,-13.52,-5.87,-5.86,5.84,5.44,3.96,-7.68,-7.67,-7.65
293.63,-13.61,-13.61,-5.97,-5.98,5.91,5.46,3.93,-7.70,-7.70,-7.64
296.57,-13.70,-13.70,-6.09,-6.08,5.96,5.49,3.90,-7.73,-7.74,-7.61
299.53,-13.79,-13.78,-6.19,-6.19,6.00,5.52,3.87,-7.79,-7.79,-7.59
302.53,-13.87,-13.87,-6.29,-6.30,6.02,5.55,3.84,-7.85,-7.85,-7.58
305.55,-13.95,-13.95,-6.41,-6.40,6.02,5.59,3.80,-7.93,-7.93,-7.54
308.61,-14.03,-14.03,-6.50,-6.50,6.02,5.63,3.77,-8.01,-8.01,-7.53
311.69,-14.10,-14.10,-6.60,-6.60,6.01,5.69,3.74,-8.09,-8.09,-7.50
314.81,-14.17,-14.17,-6.71,-6.70,6.00,5.75,3.72,-8.17,-8.16,-7.46
317.96,-14.23,-14.23,-6.78,-6.78,6.00,5.82,3.69,-8.23,-8.23,-7.45
321.14,-14.29,-14.29,-6.86,-6.86,6.00,5.89,3.67,-8.29,-8.29,-7.43
324.35,-14.35,-14.34,-6.94,-6.93,6.00,5.97,3.65,-8.35,-8.34,-7.41
327.59,-14.39,-14.39,-7.00,-7.00,6.00,6.06,3.63,-8.39,-8.39,-7.38
330.87,-14.44,-14.44,-7.07,-7.07,6.00,6.15,3.61,-8.44,-8.44,-7.37
334.18,-14.48,-14.47,-7.13,-7.13,6.00,6.24,3.60,-8.48,-8.47,-7.35
337.52,-14.51,-14.51,-7.17,-7.18,6.00,6.33,3.58,-8.51,-8.51,-7.33
340.90,-14.54,-14.54,-7.23,-7.23,6.00,6.43,3.58,-8.54,-8.54,-7.31
344.30,-14.57,-14.56,-7.28,-7.28,6.00,6.52,3.57,-8.57,-8.56,-7.29
347.75,-14.59,-14.59,-7.32,-7.32,6.00,6.61,3.57,-8.59,-8.59,-7.27
351.23,-14.61,-14.61,-7.36,-7.36,6.00,6.70,3.57,-8.61,-8.61,-7.25
354.74,-14.63,-14.63,-7.39,-7.39,6.00,6.78,3.57,-8.63,-8.63,-7.23
358.28,-14.65,-14.65,-7.43,-7.43,6.00,6.85,3.57,-8.65,-8.65,-7.22
361.87,-14.66,-14.66,-7.46,-7.46,6.00,6.91,3.58,-8.66,-8.66,-7.20
365.49,-14.67,-14.66,-7.49,-7.48,6.00,6.97,3.59,-8.67,-8.66,-7.18
369.14,-14.67,-14.67,-7.49,-7.50,6.00,7.01,3.61,-8.67,-8.67,-7.17
372.83,-14.67,-14.67,-7.51,-7.52,6.00,7.03,3.63,-8.67,-8.67,-7.15
376.56,-14.68,-14.67,-7.53,-7.53,6.00,7.05,3.65,-8.68,-8.67,-7.15
380.33,-14.68,-14.68,-7.56,-7.55,6.00,7.04,3.67,-8.68,-8.68,-7.12
384.13,-14.68,-14.68,-7.57,-7.57,6.00,7.02,3.69,-8.68,-8.68,-7.11
387.97,-14.69,-14.68,-7.59,-7.59,6.00,6.99,3.72,-8.69,-8.68,-7.10
391.85,-14.69,-14.69,-7.60,-7.60,6.00,6.93,3.75,-8.69,-8.69,-7.09
395.77,-14.69,-14.69,-7.61,-7.61,6.00,6.86,3.78,-8.69,-8.69,-7.07
399.73,-14.69,-14.69,-7.62,-7.62,6.00,6.78,3.81,-8.69,-8.69,-7.07
403.72,-14.69,-14.69,-7.63,-7.63,6.00,6.67,3.84,-8.69,-8.69,-7.06
407.76,-14.68,-14.68,-7.63,-7.64,6.00,6.56,3.88,-8.68,-8.68,-7.05
411.84,-14.67,-14.66,-7.64,-7.63,6.00,6.43,3.91,-8.67,-8.66,-7.03
415.96,-14.62,-14.62,-7.60,-7.60,6.00,6.28,3.95,-8.62,-8.62,-7.02
420.12,-14.57,-14.57,-7.56,-7.56,6.00,6.12,3.98,-8.57,-8.57,-7.01
424.32,-14.50,-14.49,-7.49,-7.49,6.00,5.96,4.02,-8.50,-8.49,-7.00
428.56,-14.40,-14.41,-7.40,-7.41,6.00,5.78,4.05,-8.40,-8.41,-6.99
