frequency,raw,error,smoothed,error_smoothed,equalization,parametric_eq,equalized_raw,equalized_smoothed,target
20.00,-9.33,-7.73,-9.33,-7.73,6.00,2.34,-3.33,-3.33,-1.59
20.20,-9.23,-7.68,-9.23,-7.68,6.00,2.41,-3.23,-3.23,-1.55
20.40,-9.13,-7.62,-9.13,-7.62,6.00,2.48,-3.13,-3.13,-1.51
20.61,-9.04,-7.57,-9.03,-7.56,6.00,2.55,-3.04,-3.03,-1.47
20.81,-8.94,-7.51,-8.94,-7.51,6.00,2.63,-2.94,-2.94,-1.43
21.02,-8.84,-7.45,-8.84,-7.45,6.00,2.71,-2.84,-2.84,-1.39
21.23,-8.74,-7.39,-8.74,-7.39,6.00,2.79,-2.74,-2.74,-1.35
21.44,-8.65,-7.34,-8.65,-7.34,6.00,2.87,-2.65,-2.65,-1.31
21.66,-8.55,-7.28,-8.55,-7.28,6.00,2.95,-2.55,-2.55,-1.27
21.87,-8.46,-7.23,-8.45,-7.22,6.00,3.04,-2.46,-2.45,-1.23
22.09,-8.36,-7.17,-8.35,-7.16,6.00,3.13,-2.36,-2.35,-1.19
22.31,-8.26,-7.10,-8.26,-7.10,6.00,3.22,-2.26,-2.26,-1.15
22.54,-8.16,-7.05,-8.16,-7.05,6.00,3.32,-2.16,-2.16,-1.11
22.76,-8.06,-6.98,-8.06,-6.99,6.00,3.41,-2.06,-2.06,-1.07
22.99,-7.96,-6.92,-7.96,-6.93,6.00,3.51,-1.96,-1.96,-1.03
23.22,-7.87,-6.87,-7.86,-6.87,6.00,3.62,-1.87,-1.86,-0.99
23.45,-7.77,-6.81,-7.77,-6.81,6.00,3.72,-1.77,-1.77,-0.96
23.69,-7.67,-6.75,-7.67,-6.75,6.00,3.83,-1.67,-1.67,-0.92
23.92,-7.57,-6.69,-7.57,-6.69,6.00,3.93,-1.57,-1.57,-0.88
24.16,-7.47,-6.63,-7.47,-6.63,6.00,4.04,-1.47,-1.47,-0.84
24.40,-7.38,-6.58,-7.37,-6.57,6.00,4.16,-1.38,-1.37,-0.80
24.65,-7.28,-6.52,-7.27,-6.51,6.00,4.27,-1.28,-1.27,-0.76
24.89,-7.18,-6.45,-7.18,-6.45,6.00,4.38,-1.18,-1.18,-0.72
25.14,-7.08,-6.39,-7.08,-6.39,6.00,4.50,-1.08,-1.08,-0.69
25.39,-6.98,-6.33,-6.98,-6.33,6.00,4.61,-0.98,-0.98,-0.65
25.65,-6.89,-6.28,-6.88,-6.27,6.00,4.73,-0.89,-0.88,-0.61
25.91,-6.79,-6.21,-6.78,-6.21,6.00,4.85,-0.79,-0.78,-0.58
26.16,-6.69,-6.15,-6.69,-6.15,5.99,4.97,-0.69,-0.70,-0.54
26.43,-6.59,-6.09,-6.59,-6.08,5.97,5.08,-0.61,-0.62,-0.50
26.69,-6.49,-6.02,-6.49,-6.02,5.95,5.19,-0.54,-0.54,-0.47
26.96,-6.40,-5.97,-6.39,-5.96,5.91,5.31,-0.49,-0.48,-0.43
27.23,-6.30,-5.90,-6.30,-5.90,5.87,5.42,-0.43,-0.43,-0.40
27.50,-6.20,-5.83,-6.20,-5.83,5.82,5.52,-0.38,-0.38,-0.37
27.77,-6.11,-5.77,-6.10,-5.77,5.77,5.63,-0.34,-0.34,-0.33
28.05,-6.01,-5.71,-6.01,-5.71,5.71,5.72,-0.30,-0.30,-0.30
28.33,-5.92,-5.65,-5.91,-5.65,5.65,5.82,-0.27,-0.27,-0.27
28.62,-5.82,-5.58,-5.82,-5.58,5.58,5.90,-0.24,-0.23,-0.23
28.90,-5.72,-5.51,-5.72,-5.52,5.52,5.98,-0.20,-0.20,-0.20
29.19,-5.63,-5.46,-5.63,-5.46,5.46,6.06,-0.17,-0.17,-0.17
29.48,-5.54,-5.40,-5.54,-5.40,5.40,6.12,-0.14,-0.14,-0.14
29.78,-5.45,-5.34,-5.45,-5.33,5.33,6.18,-0.11,-0.11,-0.11
30.08,-5.36,-5.28,-5.36,-5.27,5.27,6.22,-0.09,-0.08,-0.08
30.38,-5.27,-5.22,-5.27,-5.21,5.21,6.26,-0.06,-0.05,-0.05
30.68,-5.18,-5.15,-5.18,-5.15,5.15,6.28,-0.03,-0.03,-0.03
30.99,-5.08,-5.08,-5.09,-5.09,5.09,6.30,0.01,-0.00,0.00
31.30,-5.00,-5.02,-5.00,-5.02,5.02,6.31,0.02,0.03,0.03
31.61,-4.91,-4.96,-4.91,-4.96,4.96,6.30,0.05,0.05,0.05
31.93,-4.83,-4.90,-4.82,-4.90,4.90,6.28,0.07,0.07,0.08
32.24,-4.74,-4.83,-4.74,-4.83,4.83,6.26,0.10,0.10,0.10
32.57,-4.66,-4.78,-4.65,-4.77,4.77,6.22,0.11,0.12,0.12
32.89,-4.57,-4.71,-4.57,-4.71,4.71,6.18,0.14,0.14,0.14
33.22,-4.48,-4.64,-4.48,-4.64,4.64,6.12,0.17,0.16,0.16
33.55,-4.40,-4.58,-4.40,-4.58,4.58,6.06,0.18,0.18,0.18
33.89,-4.32,-4.52,-4.32,-4.52,4.52,5.99,0.20,0.20,0.20
34.23,-4.24,-4.45,-4.24,-4.45,4.45,5.91,0.21,0.21,0.22
34.57,-4.16,-4.39,-4.16,-4.39,4.39,5.83,0.23,0.23,0.23
34.92,-4.08,-4.32,-4.08,-4.32,4.32,5.74,0.24,0.25,0.25
35.27,-4.00,-4.26,-4.00,-4.26,4.26,5.65,0.26,0.26,0.26
35.62,-3.92,-4.19,-3.92,-4.19,4.19,5.55,0.27,0.27,0.27
35.97,-3.85,-4.13,-3.84,-4.13,4.13,5.45,0.28,0.28,0.29
36.33,-3.77,-4.06,-3.77,-4.06,4.06,5.34,0.29,0.29,0.30
36.70,-3.69,-3.99,-3.69,-4.00,4.00,5.24,0.31,0.30,0.31
37.06,-3.62,-3.93,-3.62,-3.93,3.93,5.13,0.31,0.31,0.32
37.43,-3.55,-3.87,-3.55,-3.87,3.87,5.02,0.32,0.32,0.32
37.81,-3.48,-3.81,-3.47,-3.80,3.80,4.91,0.32,0.33,0.33
38.19,-3.41,-3.74,-3.40,-3.74,3.74,4.80,0.33,0.33,0.34
38.57,-3.34,-3.68,-3.34,-3.68,3.68,4.69,0.34,0.34,0.34
38.95,-3.28,-3.62,-3.27,-3.61,3.61,4.59,0.34,0.34,0.34
39.34,-3.21,-3.55,-3.21,-3.55,3.55,4.48,0.35,0.34,0.35
39.74,-3.15,-3.50,-3.15,-3.50,3.50,4.37,0.35,0.35,0.35
40.14,-3.09,-3.44,-3.09,-3.44,3.44,4.27,0.35,0.35,0.35
40.54,-3.03,-3.38,-3.04,-3.39,3.39,4.17,0.36,0.35,0.35
40.94,-2.98,-3.33,-2.98,-3.33,3.33,4.07,0.36,0.35,0.35
41.35,-2.93,-3.28,-2.93,-3.28,3.28,3.97,0.36,0.35,0.35
41.76,-2.89,-3.24,-2.89,-3.24,3.24,3.87,0.35,0.35,0.35
42.18,-2.84,-3.19,-2.84,-3.19,3.19,3.78,0.36,0.35,0.35
42.60,-2.81,-3.16,-2.80,-3.15,3.15,3.69,0.35,0.35,0.35
43.03,-2.77,-3.12,-2.77,-3.12,3.12,3.60,0.35,0.35,0.35
43.46,-2.73,-3.08,-2.73,-3.08,3.08,3.52,0.35,0.35,0.35
43.90,-2.70,-3.05,-2.70,-3.05,3.05,3.43,0.35,0.35,0.35
44.33,-2.67,-3.02,-2.67,-3.02,3.02,3.35,0.35,0.35,0.35
44.78,-2.64,-2.99,-2.64,-2.99,2.99,3.27,0.35,0.35,0.35
45.23,-2.62,-2.97,-2.62,-2.97,2.97,3.20,0.35,0.35,0.35
45.68,-2.60,-2.95,-2.59,-2.95,2.95,3.13,0.35,0.35,0.35
46.13,-2.57,-2.92,-2.57,-2.92,2.92,3.05,0.36,0.35,0.35
46.60,-2.55,-2.90,-2.55,-2.91,2.91,2.99,0.36,0.35,0.35
47.06,-2.53,-2.88,-2.53,-2.89,2.89,2.92,0.36,0.36,0.36
47.53,-2.51,-2.87,-2.51,-2.87,2.87,2.86,0.36,0.36,0.36
48.01,-2.49,-2.85,-2.49,-2.85,2.85,2.80,0.37,0.36,0.36
48.49,-2.48,-2.84,-2.47,-2.84,2.84,2.74,0.36,0.36,0.37
48.97,-2.46,-2.83,-2.45,-2.82,2.82,2.68,0.36,0.37,0.37
49.46,-2.44,-2.81,-2.43,-2.81,2.81,2.63,0.37,0.37,0.37
49.96,-2.42,-2.80,-2.41,-2.79,2.79,2.57,0.37,0.38,0.38
50.46,-2.40,-2.78,-2.39,-2.77,2.77,2.52,0.37,0.38,0.38
50.96,-2.37,-2.76,-2.36,-2.75,2.75,2.47,0.38,0.39,0.39
51.47,-2.34,-2.73,-2.33,-2.73,2.73,2.43,0.39,0.39,0.39
51.99,-2.30,-2.70,-2.31,-2.70,2.70,2.38,0.40,0.40,0.40
52.51,-2.27,-2.67,-2.27,-2.67,2.67,2.34,0.41,0.40,0.40
53.03,-2.24,-2.64,-2.24,-2.64,2.64,2.29,0.40,0.40,0.41
53.56,-2.20,-2.61,-2.20,-2.61,2.61,2.25,0.41,0.40,0.41
54.10,-2.16,-2.57,-2.16,-2.57,2.57,2.21,0.41,0.40,0.41
54.64,-2.13,-2.54,-2.12,-2.53,2.53,2.17,0.40,0.40,0.41
55.18,-2.09,-2.50,-2.08,-2.48,2.48,2.13,0.39,0.40,0.41
55.74,-2.04,-2.45,-2.03,-2.43,2.43,2.09,0.39,0.40,0.41
56.29,-1.99,-2.40,-1.98,-2.38,2.38,2.06,0.39,0.40,0.41
56.86,-1.93,-2.33,-1.92,-2.32,2.32,2.02,0.39,0.40,0.40
57.42,-1.88,-2.28,-1.87,-2.26,2.26,1.98,0.38,0.39,0.40
58.00,-1.82,-2.21,-1.81,-2.20,2.20,1.95,0.38,0.39,0.39
58.58,-1.76,-2.14,-1.75,-2.13,2.13,1.91,0.37,0.38,0.38
59.16,-1.69,-2.06,-1.69,-2.06,2.06,1.87,0.38,0.37,0.38
59.76,-1.62,-1.99,-1.63,-1.99,1.99,1.84,0.37,0.36,0.37
60.35,-1.55,-1.91,-1.57,-1.92,1.92,1.80,0.37,0.35,0.36
60.96,-1.49,-1.84,-1.50,-1.85,1.85,1.76,0.36,0.35,0.35
61.57,-1.44,-1.78,-1.44,-1.78,1.78,1.73,0.34,0.34,0.34
62.18,-1.38,-1.71,-1.38,-1.71,1.71,1.69,0.33,0.33,0.33
62.80,-1.33,-1.65,-1.31,-1.63,1.63,1.65,0.31,0.32,0.32
63.43,-1.27,-1.58,-1.25,-1.56,1.56,1.61,0.29,0.31,0.31
64.07,-1.20,-1.50,-1.19,-1.49,1.49,1.57,0.29,0.30,0.30
64.71,-1.14,-1.43,-1.13,-1.43,1.43,1.53,0.29,0.29,0.29
65.35,-1.08,-1.36,-1.07,-1.36,1.36,1.49,0.28,0.29,0.29
66.01,-1.02,-1.30,-1.02,-1.30,1.30,1.45,0.28,0.28,0.28
66.67,-0.97,-1.24,-0.97,-1.24,1.24,1.41,0.27,0.27,0.27
67.33,-0.91,-1.18,-0.92,-1.19,1.19,1.36,0.28,0.27,0.27
68.01,-0.86,-1.12,-0.87,-1.13,1.13,1.32,0.28,0.26,0.26
68.69,-0.81,-1.07,-0.82,-1.08,1.08,1.28,0.28,0.26,0.26
69.37,-0.77,-1.03,-0.78,-1.04,1.04,1.23,0.27,0.26,0.26
70.07,-0.74,-0.99,-0.74,-1.00,1.00,1.19,0.26,0.25,0.25
70.77,-0.70,-0.95,-0.71,-0.96,0.96,1.14,0.26,0.25,0.25
71.48,-0.67,-0.92,-0.68,-0.92,0.92,1.10,0.25,0.24,0.25
72.19,-0.65,-0.89,-0.64,-0.88,0.88,1.05,0.24,0.24,0.25
72.91,-0.63,-0.87,-0.61,-0.85,0.85,1.01,0.22,0.24,0.24
73.64,-0.60,-0.84,-0.59,-0.82,0.82,0.96,0.22,0.23,0.24
74.38,-0.57,-0.80,-0.56,-0.79,0.79,0.92,0.22,0.23,0.24
75.12,-0.55,-0.78,-0.53,-0.76,0.76,0.87,0.21,0.22,0.23
75.87,-0.52,-0.75,-0.51,-0.73,0.73,0.83,0.21,0.22,0.23
76.63,-0.49,-0.71,-0.48,-0.70,0.70,0.78,0.21,0.22,0.22
77.40,-0.46,-0.68,-0.46,-0.67,0.67,0.73,0.22,0.21,0.22
78.17,-0.43,-0.64,-0.44,-0.65,0.65,0.69,0.22,0.21,0.21
78.95,-0.40,-0.61,-0.41,-0.62,0.62,0.64,0.22,0.21,0.21
79.74,-0.39,-0.60,-0.39,-0.60,0.60,0.60,0.21,0.21,0.21
80.54,-0.36,-0.56,-0.37,-0.57,0.57,0.55,0.22,0.21,0.21
81.35,-0.34,-0.54,-0.34,-0.55,0.55,0.50,0.22,0.21,0.21
82.16,-0.33,-0.53,-0.32,-0.53,0.53,0.46,0.20,0.21,0.20
82.98,-0.30,-0.50,-0.30,-0.51,0.51,0.41,0.22,0.21,0.21
83.81,-0.28,-0.48,-0.28,-0.49,0.49,0.37,0.22,0.21,0.21
84.65,-0.27,-0.48,-0.26,-0.47,0.47,0.32,0.21,0.21,0.21
85.50,-0.25,-0.46,-0.24,-0.45,0.45,0.28,0.21,0.21,0.21
86.35,-0.22,-0.43,-0.22,-0.43,0.43,0.23,0.22,0.21,0.22
87.22,-0.20,-0.42,-0.20,-0.41,0.41,0.19,0.22,0.21,0.22
88.09,-0.18,-0.40,-0.18,-0.39,0.39,0.14,0.21,0.21,0.22
88.97,-0.15,-0.37,-0.15,-0.36,0.36,0.10,0.22,0.21,0.22
89.86,-0.13,-0.35,-0.13,-0.33,0.33,0.05,0.20,0.21,0.22
90.76,-0.11,-0.32,-0.10,-0.30,0.30,0.01,0.19,0.20,0.21
91.66,-0.10,-0.30,-0.07,-0.26,0.26,-0.04,0.16,0.19,0.20
92.58,-0.07,-0.26,-0.05,-0.22,0.22,-0.08,0.16,0.18,0.19
93.51,-0.03,-0.20,-0.02,-0.18,0.18,-0.13,0.15,0.16,0.18
94.44,0.00,-0.15,0.01,-0.14,0.14,-0.17,0.14,0.14,0.15
95.39,0.03,-0.10,0.03,-0.09,0.09,-0.22,0.13,0.12,0.13
96.34,0.06,-0.04,0.04,-0.05,0.05,-0.26,0.11,0.09,0.10
97.30,0.09,0.02,0.06,0.00,-0.00,-0.31,0.09,0.06,0.07
98.28,0.10,0.07,0.07,0.05,-0.05,-0.35,0.05,0.02,0.03
99.26,0.11,0.12,0.09,0.10,-0.10,-0.40,0.01,-0.01,-0.00
100.25,0.12,0.17,0.10,0.15,-0.15,-0.44,-0.03,-0.05,-0.04
101.25,0.12,0.21,0.11,0.20,-0.20,-0.49,-0.08,-0.10,-0.09
102.27,0.11,0.24,0.11,0.25,-0.25,-0.53,-0.14,-0.14,-0.13
103.29,0.10,0.28,0.12,0.31,-0.31,-0.57,-0.21,-0.19,-0.18
104.32,0.10,0.32,0.13,0.37,-0.37,-0.62,-0.26,-0.23,-0.22
105.37,0.11,0.38,0.15,0.42,-0.42,-0.66,-0.31,-0.28,-0.27
106.42,0.13,0.44,0.16,0.48,-0.48,-0.70,-0.35,-0.32,-0.31
107.48,0.15,0.50,0.18,0.54,-0.54,-0.74,-0.39,-0.36,-0.35
108.56,0.19,0.58,0.20,0.61,-0.61,-0.79,-0.41,-0.40,-0.39
109.64,0.22,0.65,0.23,0.67,-0.67,-0.83,-0.45,-0.44,-0.43
110.74,0.25,0.72,0.26,0.73,-0.73,-0.87,-0.48,-0.47,-0.46
111.85,0.29,0.79,0.29,0.79,-0.79,-0.91,-0.49,-0.50,-0.50
112.97,0.33,0.86,0.31,0.84,-0.84,-0.94,-0.51,-0.53,-0.53
114.10,0.36,0.92,0.34,0.89,-0.89,-0.98,-0.53,-0.55,-0.55
115.24,0.39,0.97,0.36,0.94,-0.94,-1.02,-0.54,-0.57,-0.58
116.39,0.40,1.00,0.38,0.98,-0.98,-1.05,-0.57,-0.59,-0.60
117.55,0.42,1.04,0.40,1.01,-1.01,-1.08,-0.59,-0.61,-0.62
118.73,0.44,1.08,0.41,1.04,-1.04,-1.11,-0.60,-0.63,-0.63
119.92,0.44,1.09,0.42,1.07,-1.07,-1.14,-0.63,-0.65,-0.65
121.12,0.43,1.09,0.43,1.09,-1.09,-1.17,-0.66,-0.66,-0.66
122.33,0.42,1.09,0.44,1.11,-1.11,-1.20,-0.69,-0.68,-0.67
123.55,0.42,1.10,0.45,1.13,-1.13,-1.23,-0.71,-0.69,-0.67
124.79,0.43,1.11,0.46,1.15,-1.15,-1.25,-0.72,-0.69,-0.68
126.03,0.44,1.13,0.47,1.17,-1.17,-1.27,-0.73,-0.70,-0.69
127.29,0.45,1.14,0.49,1.19,-1.19,-1.29,-0.74,-0.71,-0.69
128.57,0.48,1.18,0.51,1.22,-1.22,-1.31,-0.74,-0.71,-0.70
129.85,0.52,1.22,0.53,1.25,-1.25,-1.33,-0.73,-0.72,-0.70
131.15,0.55,1.26,0.56,1.28,-1.28,-1.35,-0.73,-0.72,-0.71
132.46,0.58,1.30,0.58,1.31,-1.31,-1.36,-0.73,-0.73,-0.72
133.79,0.61,1.34,0.61,1.35,-1.35,-1.38,-0.73,-0.73,-0.72
135.12,0.65,1.39,0.64,1.38,-1.38,-1.39,-0.73,-0.74,-0.73
136.48,0.68,1.43,0.67,1.42,-1.42,-1.40,-0.73,-0.75,-0.75
137.84,0.71,1.47,0.69,1.45,-1.45,-1.41,-0.74,-0.76,-0.76
139.22,0.73,1.51,0.71,1.48,-1.48,-1.42,-0.75,-0.78,-0.78
140.61,0.75,1.54,0.72,1.52,-1.52,-1.43,-0.77,-0.80,-0.79
142.02,0.77,1.58,0.74,1.55,-1.55,-1.44,-0.78,-0.81,-0.81
143.44,0.76,1.59,0.75,1.59,-1.59,-1.45,-0.82,-0.84,-0.83
144.87,0.76,1.61,0.76,1.62,-1.62,-1.46,-0.86,-0.86,-0.85
146.32,0.75,1.62,0.77,1.65,-1.65,-1.47,-0.90,-0.88,-0.87
147.78,0.76,1.65,0.79,1.69,-1.69,-1.48,-0.93,-0.90,-0.89
149.26,0.77,1.69,0.80,1.73,-1.73,-1.49,-0.96,-0.93,-0.91
150.75,0.79,1.73,0.82,1.77,-1.77,-1.50,-0.98,-0.95,-0.94
152.26,0.81,1.77,0.84,1.81,-1.81,-1.51,-1.00,-0.97,-0.96
153.78,0.84,1.82,0.86,1.86,-1.86,-1.52,-1.02,-1.00,-0.98
155.32,0.88,1.89,0.89,1.91,-1.91,-1.53,-1.03,-1.02,-1.00
156.88,0.92,1.95,0.92,1.96,-1.96,-1.55,-1.04,-1.04,-1.03
158.44,0.95,2.00,0.95,2.01,-2.01,-1.56,-1.06,-1.06,-1.05
160.03,0.99,2.06,0.98,2.06,-2.06,-1.57,-1.07,-1.08,-1.07
161.63,1.01,2.11,1.01,2.10,-2.10,-1.59,-1.09,-1.10,-1.10
163.24,1.04,2.16,1.03,2.15,-2.15,-1.61,-1.11,-1.12,-1.12
164.88,1.07,2.21,1.05,2.19,-2.19,-1.62,-1.12,-1.14,-1.14
166.53,1.09,2.25,1.07,2.23,-2.23,-1.64,-1.13,-1.16,-1.16
168.19,1.10,2.28,1.08,2.26,-2.26,-1.66,-1.15,-1.17,-1.18
169.87,1.11,2.31,1.09,2.28,-2.28,-1.69,-1.17,-1.19,-1.20
171.57,1.11,2.32,1.10,2.30,-2.30,-1.71,-1.19,-1.21,-1.21
173.29,1.10,2.32,1.10,2.32,-2.32,-1.73,-1.22,-1.22,-1.22
175.02,1.08,2.31,1.10,2.33,-2.33,-1.76,-1.25,-1.23,-1.23
176.77,1.08,2.32,1.10,2.34,-2.34,-1.79,-1.26,-1.24,-1.24
178.54,1.08,2.33,1.10,2.34,-2.34,-1.82,-1.26,-1.24,-1.25
180.32,1.08,2.33,1.09,2.34,-2.34,-1.85,-1.26,-1.25,-1.25
182.13,1.08,2.33,1.09,2.34,-2.34,-1.88,-1.26,-1.25,-1.25
183.95,1.08,2.33,1.09,2.34,-2.34,-1.91,-1.25,-1.25,-1.25
185.79,1.08,2.33,1.08,2.33,-2.33,-1.95,-1.25,-1.25,-1.25
187.65,1.08,2.33,1.08,2.33,-2.33,-1.98,-1.25,-1.25,-1.24
189.52,1.08,2.32,1.08,2.32,-2.32,-2.02,-1.24,-1.24,-1.24
191.42,1.08,2.32,1.08,2.32,-2.32,-2.06,-1.24,-1.24,-1.24
193.33,1.08,2.31,1.08,2.32,-2.32,-2.10,-1.23,-1.23,-1.23
195.27,1.08,2.31,1.08,2.31,-2.31,-2.14,-1.23,-1.23,-1.23
197.22,1.08,2.31,1.08,2.31,-2.31,-2.18,-1.23,-1.23,-1.23
199.19,1.08,2.31,1.08,2.31,-2.31,-2.22,-1.23,-1.23,-1.22
201.18,1.08,2.31,1.08,2.31,-2.31,-2.27,-1.23,-1.23,-1.22
203.19,1.08,2.31,1.08,2.31,-2.31,-2.31,-1.23,-1.23,-1.22
205.23,1.08,2.31,1.08,2.31,-2.31,-2.35,-1.23,-1.23,-1.23
207.28,1.08,2.31,1.08,2.32,-2.32,-2.40,-1.24,-1.24,-1.23
209.35,1.08,2.32,1.08,2.32,-2.32,-2.44,-1.24,-1.24,-1.24
211.44,1.08,2.33,1.08,2.33,-2.33,-2.49,-1.25,-1.25,-1.24
213.56,1.08,2.34,1.08,2.34,-2.34,-2.53,-1.26,-1.26,-1.25
215.69,1.08,2.35,1.08,2.35,-2.35,-2.57,-1.27,-1.27,-1.26
217.85,1.08,2.36,1.08,2.36,-2.36,-2.61,-1.28,-1.28,-1.28
220.03,1.08,2.37,1.08,2.38,-2.38,-2.65,-1.29,-1.29,-1.29
222.23,1.08,2.39,1.08,2.39,-2.39,-2.69,-1.31,-1.31,-1.31
224.45,1.08,2.40,1.08,2.41,-2.41,-2.73,-1.33,-1.33,-1.32
226.70,1.08,2.42,1.08,2.42,-2.42,-2.77,-1.34,-1.34,-1.34
228.96,1.08,2.44,1.08,2.44,-2.44,-2.80,-1.36,-1.36,-1.36
231.25,1.08,2.46,1.08,2.46,-2.46,-2.83,-1.38,-1.38,-1.37
233.57,1.08,2.47,1.08,2.47,-2.47,-2.86,-1.39,-1.39,-1.39
235.90,1.08,2.49,1.08,2.49,-2.49,-2.88,-1.41,-1.41,-1.41
238.26,1.08,2.51,1.08,2.51,-2.51,-2.90,-1.42,-1.42,-1.43
240.64,1.08,2.52,1.08,2.52,-2.52,-2.92,-1.44,-1.44,-1.44
243.05,1.08,2.54,1.08,2.53,-2.53,-2.93,-1.45,-1.45,-1.46
245.48,1.08,2.55,1.08,2.55,-2.55,-2.94,-1.46,-1.46,-1.47
247.93,1.08,2.56,1.08,2.56,-2.56,-2.94,-1.48,-1.48,-1.48
250.41,1.08,2.57,1.08,2.57,-2.57,-2.94,-1.48,-1.48,-1.49
252.92,1.08,2.57,1.08,2.57,-2.57,-2.94,-1.49,-1.49,-1.49
255.45,1.08,2.58,1.08,2.58,-2.58,-2.93,-1.50,-1.50,-1.50
258.00,1.08,2.58,1.08,2.58,-2.58,-2.92,-1.50,-1.50,-1.50
260.58,1.08,2.58,1.08,2.58,-2.58,-2.91,-1.50,-1.50,-1.50
263.19,1.08,2.59,1.08,2.58,-2.58,-2.89,-1.50,-1.50,-1.50
265.82,1.08,2.58,1.08,2.58,-2.58,-2.86,-1.50,-1.50,-1.50
268.48,1.08,2.58,1.08,2.58,-2.58,-2.84,-1.50,-1.50,-1.50
271.16,1.08,2.58,1.08,2.57,-2.57,-2.81,-1.49,-1.49,-1.49
273.87,1.08,2.57,1.08,2.56,-2.56,-2.78,-1.48,-1.48,-1.49
276.61,1.08,2.56,1.08,2.55,-2.55,-2.74,-1.47,-1.47,-1.47
279.38,1.08,2.54,1.08,2.54,-2.54,-2.71,-1.46,-1.46,-1.46
282.17,1.08,2.53,1.08,2.53,-2.53,-2.67,-1.45,-1.45,-1.45
284.99,1.08,2.52,1.08,2.52,-2.52,-2.63,-1.43,-1.43,-1.43
287.84,1.08,2.50,1.08,2.50,-2.50,-2.58,-1.42,-1.42,-1.42
290.72,1.08,2.48,1.08,2.49,-2.49,-2.54,-1.41,-1.41,-1.40
293.63,1.08,2.47,1.08,2.47,-2.47,-2.50,-1.39,-1.39,-1.39
296.57,1.08,2.45,1.08,2.46,-2.46,-2.45,-1.38,-1.38,-1.37
299.53,1.08,2.44,1.08,2.44,-2.44,-2.40,-1.36,-1.36,-1.35
302.53,1.08,2.42,1.08,2.43,-2.43,-2.36,-1.35,-1.35,-1.34
305.55,1.08,2.40,1.08,2.42,-2.42,-2.31,-1.33,-1.33,-1.32
308.61,1.08,2.39,1.09,2.40,-2.40,-2.27,-1.32,-1.31,-1.31
311.69,1.08,2.37,1.09,2.39,-2.39,-2.22,-1.31,-1.30,-1.29
314.81,1.08,2.36,1.10,2.37,-2.37,-2.18,-1.29,-1.28,-1.27
317.96,1.08,2.34,1.10,2.36,-2.36,-2.13,-1.27,-1.26,-1.26
321.14,1.09,2.33,1.10,2.34,-2.34,-2.09,-1.25,-1.24,-1.24
324.35,1.09,2.31,1.10,2.32,-2.32,-2.04,-1.23,-1.22,-1.22
327.59,1.10,2.30,1.10,2.29,-2.29,-2.00,-1.19,-1.20,-1.20
330.87,1.11,2.29,1.09,2.27,-2.27,-1.96,-1.15,-1.17,-1.18
334.18,1.10,2.26,1.08,2.23,-2.23,-1.92,-1.13,-1.15,-1.16
337.52,1.09,2.22,1.07,2.20,-2.20,-1.88,-1.11,-1.13,-1.13
340.90,1.08,2.19,1.06,2.16,-2.16,-1.85,-1.08,-1.10,-1.11
344.30,1.05,2.13,1.04,2.11,-2.11,-1.81,-1.06,-1.08,-1.08
347.75,1.02,2.08,1.01,2.07,-2.07,-1.77,-1.04,-1.05,-1.05
351.23,0.99,2.02,0.99,2.02,-2.02,-1.74,-1.02,-1.03,-1.03
354.74,0.96,1.97,0.96,1.96,-1.96,-1.71,-1.00,-1.01,-1.00
358.28,0.92,1.90,0.93,1.91,-1.91,-1.68,-0.99,-0.98,-0.98
361.87,0.89,1.85,0.90,1.86,-1.86,-1.65,-0.97,-0.96,-0.96
365.49,0.86,1.79,0.87,1.81,-1.81,-1.62,-0.95,-0.94,-0.93
369.14,0.83,1.74,0.84,1.76,-1.76,-1.59,-0.93,-0.92,-0.91
372.83,0.80,1.69,0.81,1.72,-1.72,-1.57,-0.91,-0.90,-0.89
376.56,0.77,1.64,0.79,1.68,-1.68,-1.54,-0.90,-0.88,-0.87
380.33,0.75,1.60,0.78,1.64,-1.64,-1.52,-0.89,-0.86,-0.85
384.13,0.74,1.58,0.77,1.61,-1.61,-1.50,-0.87,-0.85,-0.84
387.97,0.74,1.56,0.76,1.59,-1.59,-1.48,-0.85,-0.83,-0.82
391.85,0.74,1.55,0.75,1.57,-1.57,-1.46,-0.83,-0.82,-0.81
395.77,0.75,1.55,0.75,1.56,-1.56,-1.44,-0.81,-0.81,-0.80
399.73,0.76,1.56,0.75,1.55,-1.55,-1.43,-0.79,-0.81,-0.79
403.72,0.76,1.55,0.75,1.55,-1.55,-1.41,-0.79,-0.80,-0.79
407.76,0.76,1.55,0.75,1.55,-1.55,-1.39,-0.79,-0.80,-0.79
411.84,0.76,1.55,0.75,1.55,-1.55,-1.38,-0.79,-0.80,-0.79
415.96,0.76,1.56,0.76,1.56,-1.56,-1.37,-0.80,-0.80,-0.79
420.12,0.76,1.56,0.77,1.57,-1.57,-1.35,-0.81,-0.80,-0.80
424.32,0.76,1.57,0.77,1.58,-1.58,-1.34,-0.82,-0.81,-0.81
428.56,0.76,1.58,0.78,1.59,-1.59,-1.33,-0.83,-0.82,-0.82
432.85,0.76,1.59,0.78,1.60,-1.60,-1.32,-0.84,-0.82,-0.82
437.18,0.76,1.60,0.78,1.61,-1.61,-1.31,-0.85,-0.83,-0.83
441.55,0.77,1.62,0.78,1.62,-1.62,-1.30,-0.85,-0.84,-0.84
445.96,0.78,1.63,0.77,1.62,-1.62,-1.30,-0.84,-0.85,-0.85
450.42,0.78,1.64,0.77,1.62,-1.62,-1.29,-0.84,-0.85,-0.86
454.93,0.78,1.64,0.76,1.62,-1.62,-1.28,-0.84,-0.86,-0.86
459.48,0.77,1.64,0.75,1.61,-1.61,-1.27,-0.84,-0.86,-0.87
464.07,0.75,1.62,0.73,1.60,-1.60,-1.26,-0.85,-0.86,-0.87
468.71,0.73,1.60,0.71,1.58,-1.58,-1.26,-0.85,-0.87,-0.87
473.40,0.69,1.56,0.69,1.56,-1.56,-1.25,-0.87,-0.87,-0.87
478.13,0.67,1.55,0.66,1.54,-1.54,-1.24,-0.87,-0.87,-0.87
482.91,0.64,1.52,0.63,1.51,-1.51,-1.24,-0.87,-0.88,-0.87
487.74,0.60,1.48,0.60,1.48,-1.48,-1.23,-0.88,-0.88,-0.87
492.62,0.57,1.45,0.57,1.45,-1.45,-1.22,-0.88,-0.88,-0.88
497.55,0.54,1.42,0.54,1.42,-1.42,-1.21,-0.88,-0.88,-0.87
502.52,0.50,1.37,0.51,1.39,-1.39,-1.21,-0.89,-0.88,-0.87
507.55,0.48,1.35,0.49,1.36,-1.36,-1.20,-0.88,-0.87,-0.87
512.62,0.45,1.32,0.47,1.33,-1.33,-1.19,-0.88,-0.86,-0.86
517.75,0.42,1.28,0.45,1.31,-1.31,-1.18,-0.88,-0.85,-0.86
522.93,0.41,1.26,0.44,1.28,-1.28,-1.18,-0.87,-0.84,-0.84
528.16,0.41,1.24,0.43,1.26,-1.26,-1.17,-0.85,-0.83,-0.83
533.44,0.41,1.23,0.42,1.24,-1.24,-1.16,-0.83,-0.82,-0.82
538.77,0.43,1.23,0.42,1.22,-1.22,-1.15,-0.79,-0.81,-0.80
544.16,0.43,1.22,0.42,1.21,-1.21,-1.14,-0.78,-0.79,-0.78
549.60,0.43,1.20,0.42,1.19,-1.19,-1.14,-0.76,-0.77,-0.77
555.10,0.43,1.18,0.43,1.18,-1.18,-1.13,-0.75,-0.76,-0.75
560.65,0.43,1.16,0.43,1.17,-1.17,-1.12,-0.74,-0.74,-0.73
566.25,0.43,1.15,0.44,1.16,-1.16,-1.11,-0.73,-0.72,-0.71
571.92,0.43,1.13,0.45,1.15,-1.15,-1.11,-0.72,-0.71,-0.70
577.64,0.44,1.13,0.45,1.14,-1.14,-1.10,-0.70,-0.69,-0.68
583.41,0.44,1.11,0.45,1.13,-1.13,-1.09,-0.69,-0.68,-0.67
589.25,0.45,1.11,0.45,1.12,-1.12,-1.09,-0.67,-0.67,-0.66
595.14,0.46,1.12,0.44,1.11,-1.11,-1.08,-0.64,-0.66,-0.65
601.09,0.45,1.10,0.44,1.09,-1.09,-1.08,-0.64,-0.65,-0.65
607.10,0.44,1.08,0.42,1.07,-1.07,-1.07,-0.63,-0.65,-0.64
613.17,0.43,1.07,0.41,1.05,-1.05,-1.07,-0.61,-0.64,-0.64
619.30,0.41,1.04,0.40,1.02,-1.02,-1.07,-0.61,-0.62,-0.63
625.50,0.38,1.01,0.38,0.99,-0.99,-1.06,-0.61,-0.61,-0.62
631.75,0.35,0.97,0.35,0.95,-0.95,-1.06,-0.60,-0.60,-0.62
638.07,0.31,0.92,0.33,0.92,-0.92,-1.06,-0.60,-0.59,-0.60
644.45,0.29,0.88,0.30,0.88,-0.88,-1.06,-0.58,-0.58,-0.59
650.89,0.26,0.83,0.27,0.83,-0.83,-1.06,-0.57,-0.56,-0.57
657.40,0.23,0.78,0.24,0.79,-0.79,-1.06,-0.55,-0.55,-0.55
