frequency,raw
20.00,17.58
20.20,17.58
20.40,17.58
20.61,17.58
20.81,17.58
21.02,17.58
21.23,17.54
21.44,17.51
21.66,17.48
21.87,17.45
22.09,17.43
22.31,17.42
22.54,17.41
22.76,17.40
22.99,17.39
23.22,17.39
23.45,17.39
23.69,17.39
23.92,17.39
24.16,17.37
24.40,17.34
24.65,17.31
24.89,17.28
25.14,17.26
25.39,17.24
25.65,17.22
25.91,17.21
26.16,17.18
26.43,17.16
26.69,17.13
26.96,17.10
27.23,17.08
27.50,17.05
27.77,17.03
28.05,17.00
28.33,16.98
28.62,16.95
28.90,16.92
29.19,16.89
29.48,16.87
29.78,16.84
30.08,16.81
30.38,16.78
30.68,16.75
30.99,16.72
31.30,16.70
31.61,16.67
31.93,16.65
32.24,16.61
32.57,16.58
32.89,16.54
33.22,16.51
33.55,16.47
33.89,16.44
34.23,16.41
34.57,16.38
34.92,16.35
35.27,16.31
35.62,16.28
35.97,16.24
36.33,16.21
36.70,16.17
37.06,16.13
37.43,16.06
37.81,15.99
38.19,15.95
38.57,15.95
38.95,15.95
39.34,15.88
39.74,15.81
40.14,15.76
40.54,15.76
40.94,15.76
41.35,15.70
41.76,15.64
42.18,15.59
42.60,15.58
43.03,15.57
43.46,15.52
43.90,15.48
44.33,15.42
44.78,15.36
45.23,15.30
45.68,15.23
46.13,15.18
46.60,15.16
47.06,15.13
47.53,15.06
48.01,14.99
48.49,14.95
48.97,14.90
49.46,14.85
49.96,14.80
50.46,14.76
50.96,14.71
51.47,14.66
51.99,14.61
52.51,14.56
53.03,14.51
53.56,14.46
54.10,14.41
54.64,14.36
55.18,14.30
55.74,14.25
56.29,14.20
56.86,14.14
57.42,14.09
58.00,14.03
58.58,13.98
59.16,13.93
59.76,13.89
60.35,13.83
60.96,13.76
61.57,13.70
62.18,13.65
62.80,13.58
63.43,13.52
64.07,13.46
64.71,13.39
65.35,13.36
66.01,13.36
66.67,13.24
67.33,13.15
68.01,13.10
68.69,13.04
69.37,12.99
70.07,12.94
70.77,12.89
71.48,12.84
72.19,12.78
72.91,12.76
73.64,12.66
74.38,12.60
75.12,12.58
75.87,12.49
76.63,12.43
77.40,12.37
78.17,12.31
78.95,12.22
79.74,12.21
80.54,12.11
81.35,12.03
82.16,12.01
82.98,11.97
83.81,11.81
84.65,11.74
85.50,11.68
86.35,11.61
87.22,11.55
88.09,11.50
88.97,11.45
89.86,11.39
90.76,11.36
91.66,11.31
92.58,11.22
93.51,11.15
94.44,11.07
95.39,10.97
96.34,10.92
97.30,10.85
98.28,10.78
99.26,10.71
100.25,10.62
101.25,10.54
102.27,10.42
103.29,10.37
104.32,10.31
105.37,10.21
106.42,10.07
107.48,9.96
108.56,9.90
109.64,9.81
110.74,9.76
111.85,9.68
112.97,9.57
114.10,9.53
115.24,9.45
116.39,9.39
117.55,9.35
118.73,9.26
119.92,9.18
121.12,9.13
122.33,9.08
123.55,9.01
124.79,8.93
126.03,8.82
127.29,8.79
128.57,8.71
129.85,8.65
131.15,8.59
132.46,8.56
133.79,8.49
135.12,8.47
136.48,8.39
137.84,8.31
139.22,8.23
140.61,8.17
142.02,8.10
143.44,8.02
144.87,7.92
146.32,7.90
147.78,7.81
149.26,7.75
150.75,7.72
152.26,7.64
153.78,7.55
155.32,7.48
156.88,7.37
158.44,7.28
160.03,7.15
161.63,7.15
163.24,7.13
164.88,7.04
166.53,6.96
168.19,6.91
169.87,6.84
171.57,6.75
173.29,6.71
175.02,6.61
176.77,6.51
178.54,6.45
180.32,6.38
182.13,6.31
183.95,6.26
185.79,6.18
187.65,6.16
189.52,6.07
191.42,6.03
193.33,6.04
195.27,5.96
197.22,5.89
199.19,5.86
201.18,5.77
203.19,5.71
205.23,5.67
207.28,5.56
209.35,5.46
211.44,5.41
213.56,5.33
215.69,5.23
217.85,5.13
220.03,5.11
222.23,5.06
224.45,4.99
226.70,4.94
228.96,4.90
231.25,4.78
233.57,4.75
235.90,4.76
238.26,4.65
240.64,4.57
243.05,4.53
245.48,4.48
247.93,4.47
250.41,4.41
252.92,4.38
255.45,4.34
258.00,4.24
260.58,4.16
263.19,4.10
265.82,4.05
268.48,3.98
271.16,3.92
273.87,3.85
276.61,3.82
279.38,3.76
282.17,3.67
284.99,3.56
287.84,3.48
290.72,3.48
293.63,3.42
296.57,3.34
299.53,3.34
302.53,3.25
305.55,3.18
308.61,3.18
311.69,3.17
314.81,3.05
317.96,2.99
321.14,2.90
324.35,2.80
327.59,2.75
330.87,2.71
334.18,2.63
337.52,2.58
340.90,2.46
344.30,2.40
347.75,2.34
351.23,2.28
354.74,2.24
358.28,2.17
361.87,2.14
365.49,2.13
369.14,2.03
372.83,1.94
376.56,1.88
380.33,1.82
384.13,1.79
387.97,1.73
391.85,1.70
395.77,1.64
399.73,1.59
403.72,1.47
407.76,1.40
411.84,1.30
415.96,1.24
420.12,1.23
424.32,1.18
428.56,1.16
432.85,1.13
437.18,1.06
441.55,1.04
445.96,1.01
450.42,1.02
454.93,1.00
459.48,1.05
464.07,1.04
468.71,1.01
473.40,1.04
478.13,1.03
482.91,1.00
487.74,0.98
492.62,0.95
497.55,0.93
502.52,0.84
507.55,0.82
512.62,0.83
517.75,0.76
522.93,0.74
528.16,0.67
533.44,0.55
538.77,0.49
544.16,0.46
549.60,0.34
555.10,0.26
560.65,0.13
566.25,0.06
571.92,-0.07
577.64,-0.21
583.41,-0.25
589.25,-0.26
595.14,-0.24
601.09,-0.28
607.10,-0.43
613.17,-0.45
619.30,-0.40
625.50,-0.40
631.75,-0.50
638.07,-0.52
644.45,-0.48
650.89,-0.43
657.40,-0.37
663.98,-0.34
670.62,-0.43
677.32,-0.43
684.10,-0.39
690.94,-0.34
697.85,-0.31
704.83,-0.29
711.87,-0.29
718.99,-0.29
726.18,-0.30
733.44,-0.33
740.78,-0.36
748.19,-0.38
755.67,-0.41
763.23,-0.44
770.86,-0.53
778.57,-0.59
786.35,-0.66
794.22,-0.67
802.16,-0.67
810.18,-0.66
818.28,-0.60
826.46,-0.56
834.73,-0.56
843.08,-0.56
851.51,-0.56
860.02,-0.57
868.62,-0.57
877.31,-0.58
886.08,-0.51
894.94,-0.50
903.89,-0.43
912.93,-0.42
922.06,-0.42
931.28,-0.42
940.59,-0.35
950.00,-0.25
959.50,-0.22
969.09,-0.22
978.78,-0.21
988.57,-0.15
998.46,-0.03
1008.44,0.02
1018.53,0.05
1028.71,0.08
1039.00,0.10
1049.39,0.14
1059.88,0.19
1070.48,0.30
1081.19,0.37
1092.00,0.42
1102.92,0.46
1113.95,0.46
1125.09,0.51
1136.34,0.58
1147.70,0.66
1159.18,0.75
1170.77,0.79
1182.48,0.86
1194.30,0.95
1206.25,1.03
1218.31,1.07
1230.49,1.13
1242.80,1.16
1255.22,1.28
1267.78,1.31
1280.45,1.34
1293.26,1.43
1306.19,1.50
1319.25,1.50
1332.45,1.56
1345.77,1.60
1359.23,1.69
1372.82,1.78
1386.55,1.80
1400.41,1.84
1414.42,1.90
1428.56,2.03
1442.85,2.13
1457.28,2.13
1471.85,2.18
1486.57,2.21
1501.43,2.28
1516.45,2.37
1531.61,2.37
1546.93,2.43
1562.40,2.40
1578.02,2.48
1593.80,2.61
1609.74,2.69
1625.84,2.75
1642.10,2.81
1658.52,2.88
1675.10,2.94
1691.85,3.02
1708.77,3.09
1725.86,3.18
1743.12,3.26
1760.55,3.36
1778.15,3.46
1795.94,3.56
1813.90,3.67
1832.03,3.74
1850.36,3.81
1868.86,3.95
1887.55,4.09
1906.42,4.13
1925.49,4.15
1944.74,4.26
1964.19,4.40
1983.83,4.53
2003.67,4.67
2023.71,4.80
2043.94,4.92
2064.38,4.96
2085.03,5.07
2105.88,5.21
2126.94,5.35
2148.20,5.50
2169.69,5.66
2191.38,5.83
2213.30,6.02
2235.43,6.16
2257.78,6.33
2280.36,6.54
2303.17,6.69
2326.20,6.88
2349.46,7.04
2372.95,7.20
2396.68,7.31
2420.65,7.49
2444.86,7.66
2469.31,7.87
2494.00,8.09
2518.94,8.30
2544.13,8.58
2569.57,8.89
2595.27,9.14
2621.22,9.35
2647.43,9.60
2673.90,9.89
2700.64,10.15
2727.65,10.48
2754.93,10.74
2782.48,10.98
2810.30,11.24
2838.40,11.50
2866.79,11.81
2895.46,12.09
2924.41,12.37
2953.65,12.63
2983.19,12.89
3013.02,13.18
3043.15,13.50
3073.58,13.94
3104.32,14.27
3135.36,14.56
3166.72,14.91
3198.38,15.28
3230.37,15.61
3262.67,15.90
3295.30,16.15
3328.25,16.47
3361.53,16.74
3395.15,16.98
3429.10,17.24
3463.39,17.51
3498.03,17.73
3533.01,17.87
3568.34,17.97
3604.02,18.03
3640.06,17.96
3676.46,17.89
3713.22,17.80
3750.36,17.63
3787.86,17.45
3825.74,17.13
3864.00,16.81
3902.64,16.61
3941.66,16.47
3981.08,16.34
4020.89,16.19
4061.10,16.05
4101.71,15.87
4142.73,15.77
4184.15,15.62
4226.00,15.48
4268.26,15.35
4310.94,15.24
4354.05,15.17
4397.59,15.10
4441.56,15.07
4485.98,15.01
4530.84,15.04
4576.15,15.07
4621.91,15.07
4668.13,15.01
4714.81,15.04
4761.96,15.10
4809.58,15.21
4857.67,15.35
4906.25,15.51
4955.31,15.62
5004.87,15.79
5054.91,15.96
5105.46,16.29
5156.52,16.54
5208.08,16.79
5260.16,17.11
5312.77,17.85
5365.89,18.37
5419.55,18.96
5473.75,19.57
5528.49,20.00
5583.77,20.28
5639.61,20.80
5696.00,21.19
5752.96,21.14
5810.49,20.76
5868.60,20.17
5927.28,19.64
5986.56,18.85
6046.42,17.94
6106.89,16.93
6167.96,15.87
6229.64,14.94
6291.93,14.05
6354.85,13.10
6418.40,11.98
6482.58,11.06
6547.41,10.02
6612.88,9.14
6679.01,8.36
6745.80,7.98
6813.26,7.76
6881.39,7.59
6950.21,7.33
7019.71,6.89
7089.91,6.38
7160.81,5.82
7232.41,5.31
7304.74,4.94
7377.79,4.50
7451.56,4.12
7526.08,3.66
7601.34,3.17
7677.35,2.72
7754.13,2.37
7831.67,2.28
7909.98,2.27
7989.08,2.25
8068.98,2.19
8149.67,2.17
8231.16,2.39
8313.47,2.38
8396.61,2.22
8480.57,1.89
8565.38,1.56
8651.03,1.48
8737.54,1.47
8824.92,1.55
8913.17,1.73
9002.30,1.79
9092.32,1.71
9183.25,1.68
9275.08,1.32
9367.83,1.06
9461.51,1.03
9556.12,1.10
9651.68,1.28
9748.20,1.58
9845.68,2.16
9944.14,2.64
10043.58,2.93
10144.02,3.39
10245.46,3.79
10347.91,4.30
10451.39,5.17
10555.91,6.19
10661.46,7.16
10768.08,7.97
10875.76,8.65
10984.52,9.51
11094.36,10.70
11205.31,11.50
11317.36,11.55
11430.53,10.69
11544.84,9.34
11660.29,8.40
11776.89,7.74
11894.66,6.71
12013.60,5.75
12133.74,4.88
12255.08,3.42
12377.63,2.31
12501.41,1.13
12626.42,0.24
12752.68,-0.60
12880.21,-0.62
13009.01,-0.54
13139.10,-0.78
13270.49,-0.94
13403.20,-1.27
13537.23,-1.08
13672.60,-1.12
13809.33,-0.50
13947.42,0.21
14086.90,0.73
14227.77,1.65
14370.04,1.97
14513.74,2.01
14658.88,2.73
14805.47,3.83
14953.52,4.38
15103.06,3.63
15254.09,2.52
15406.63,1.49
15560.70,0.54
15716.30,-1.30
15873.47,-3.02
16032.20,-5.12
16192.52,-6.84
16354.45,-7.95
16517.99,-8.94
16683.17,-9.90
16850.01,-10.68
17018.51,-11.75
17188.69,-12.24
17360.58,-12.75
17534.18,-13.04
17709.53,-13.70
17886.62,-14.27
18065.49,-15.00
18246.14,-15.69
18428.60,-16.19
18612.89,-16.48
18799.02,-16.87
18987.01,-17.00
19176.88,-16.00
19368.65,-14.79
19562.33,-13.97
19757.96,-13.32
19955.54,-12.80
