frequency,raw,error,smoothed,error_smoothed,equalization,parametric_eq,fixed_band_eq,equalized_raw,equalized_smoothed,target
20.00,-16.62,-20.21,-16.64,-20.23,6.00,5.93,2.79,-10.62,-10.64,3.59
20.20,-16.57,-20.19,-16.55,-20.17,6.00,5.93,2.87,-10.57,-10.55,3.62
20.40,-16.46,-20.11,-16.45,-20.10,6.00,5.93,2.96,-10.46,-10.45,3.65
20.61,-16.32,-19.99,-16.33,-20.00,6.00,5.93,3.04,-10.32,-10.33,3.67
20.81,-16.18,-19.88,-16.18,-19.88,6.00,5.93,3.13,-10.18,-10.18,3.70
21.02,-16.02,-19.75,-16.02,-19.75,6.00,5.93,3.22,-10.02,-10.02,3.73
21.23,-15.87,-19.61,-15.87,-19.61,6.00,5.93,3.31,-9.87,-9.87,3.74
21.44,-15.73,-19.48,-15.72,-19.47,6.00,5.93,3.40,-9.73,-9.72,3.75
21.66,-15.58,-19.34,-15.58,-19.33,6.00,5.93,3.50,-9.58,-9.58,3.76
21.87,-15.43,-19.19,-15.43,-19.20,6.00,5.93,3.60,-9.43,-9.43,3.76
22.09,-15.29,-19.06,-15.29,-19.05,6.00,5.94,3.70,-9.29,-9.29,3.77
22.31,-15.15,-18.92,-15.14,-18.91,6.00,5.94,3.81,-9.15,-9.14,3.77
22.54,-15.00,-18.77,-15.00,-18.77,6.00,5.94,3.91,-9.00,-9.00,3.77
22.76,-14.85,-18.62,-14.85,-18.62,6.00,5.94,4.03,-8.85,-8.85,3.77
22.99,-14.71,-18.47,-14.71,-18.47,6.00,5.94,4.14,-8.71,-8.71,3.76
23.22,-14.57,-18.33,-14.57,-18.32,6.00,5.95,4.26,-8.57,-8.57,3.76
23.45,-14.43,-18.18,-14.42,-18.18,6.00,5.95,4.37,-8.43,-8.42,3.76
23.69,-14.27,-18.03,-14.28,-18.03,6.00,5.95,4.50,-8.27,-8.28,3.76
23.92,-14.13,-17.88,-14.13,-17.89,6.00,5.96,4.62,-8.13,-8.13,3.75
24.16,-13.99,-17.75,-13.98,-17.74,6.00,5.96,4.75,-7.99,-7.98,3.76
24.40,-13.83,-17.59,-13.83,-17.59,6.00,5.97,4.87,-7.83,-7.83,3.76
24.65,-13.68,-17.43,-13.68,-17.44,6.00,5.97,5.00,-7.68,-7.68,3.75
24.89,-13.54,-17.29,-13.53,-17.29,6.00,5.97,5.14,-7.54,-7.53,3.75
25.14,-13.39,-17.14,-13.39,-17.15,6.00,5.98,5.27,-7.39,-7.39,3.75
25.39,-13.26,-17.01,-13.26,-17.01,6.00,5.98,5.41,-7.26,-7.26,3.75
25.65,-13.12,-16.87,-13.11,-16.86,6.00,5.99,5.54,-7.12,-7.11,3.75
25.91,-12.97,-16.71,-12.97,-16.71,6.00,5.99,5.68,-6.97,-6.97,3.74
26.16,-12.82,-16.56,-12.83,-16.57,6.00,6.00,5.81,-6.82,-6.83,3.74
26.43,-12.68,-16.42,-12.68,-16.42,6.00,6.00,5.95,-6.68,-6.68,3.74
26.69,-12.55,-16.29,-12.54,-16.28,6.00,6.01,6.08,-6.55,-6.54,3.74
26.96,-12.40,-16.14,-12.40,-16.14,6.00,6.02,6.22,-6.40,-6.40,3.74
27.23,-12.26,-16.00,-12.26,-16.00,6.00,6.02,6.35,-6.26,-6.26,3.74
27.50,-12.12,-15.86,-12.12,-15.85,6.00,6.03,6.48,-6.12,-6.12,3.74
27.77,-11.98,-15.70,-11.97,-15.70,6.00,6.03,6.60,-5.98,-5.97,3.73
28.05,-11.82,-15.54,-11.83,-15.55,6.00,6.04,6.72,-5.82,-5.83,3.73
28.33,-11.68,-15.39,-11.68,-15.40,6.00,6.04,6.83,-5.68,-5.68,3.71
28.62,-11.54,-15.26,-11.54,-15.25,6.00,6.05,6.94,-5.54,-5.54,3.71
28.90,-11.40,-15.11,-11.40,-15.11,6.00,6.05,7.04,-5.40,-5.40,3.71
29.19,-11.25,-14.95,-11.25,-14.96,6.00,6.06,7.14,-5.25,-5.25,3.70
29.48,-11.10,-14.81,-11.11,-14.81,6.00,6.06,7.22,-5.10,-5.11,3.71
29.78,-10.96,-14.66,-10.96,-14.66,6.00,6.06,7.30,-4.96,-4.96,3.70
30.08,-10.83,-14.53,-10.82,-14.52,6.00,6.07,7.36,-4.83,-4.82,3.70
30.38,-10.67,-14.36,-10.68,-14.37,6.00,6.07,7.42,-4.67,-4.68,3.69
30.68,-10.54,-14.23,-10.54,-14.22,6.00,6.07,7.46,-4.54,-4.54,3.69
30.99,-10.41,-14.09,-10.40,-14.08,6.00,6.07,7.50,-4.41,-4.40,3.68
31.30,-10.25,-13.93,-10.27,-13.94,6.00,6.07,7.51,-4.25,-4.27,3.67
31.61,-10.14,-13.81,-10.13,-13.80,6.00,6.07,7.53,-4.14,-4.13,3.67
31.93,-9.99,-13.65,-9.99,-13.65,6.00,6.07,7.52,-3.99,-3.99,3.66
32.24,-9.84,-13.49,-9.85,-13.51,6.00,6.07,7.51,-3.84,-3.85,3.65
32.57,-9.72,-13.37,-9.71,-13.36,6.00,6.06,7.49,-3.72,-3.71,3.65
32.89,-9.57,-13.22,-9.58,-13.22,6.00,6.06,7.45,-3.57,-3.58,3.65
33.22,-9.46,-13.10,-9.44,-13.08,6.00,6.05,7.41,-3.46,-3.44,3.64
33.55,-9.30,-12.93,-9.31,-12.94,6.00,6.05,7.36,-3.30,-3.31,3.63
33.89,-9.17,-12.79,-9.17,-12.80,6.00,6.04,7.30,-3.17,-3.17,3.62
34.23,-9.04,-12.66,-9.03,-12.65,6.00,6.04,7.23,-3.04,-3.03,3.62
34.57,-8.89,-12.50,-8.90,-12.51,6.00,6.03,7.15,-2.89,-2.90,3.61
34.92,-8.78,-12.38,-8.77,-12.37,6.00,6.02,7.07,-2.78,-2.77,3.60
35.27,-8.63,-12.23,-8.64,-12.23,6.00,6.02,6.99,-2.63,-2.64,3.60
35.62,-8.51,-12.09,-8.51,-12.09,6.00,6.01,6.90,-2.51,-2.51,3.58
35.97,-8.36,-11.93,-8.37,-11.94,6.00,6.00,6.81,-2.36,-2.37,3.57
36.33,-8.25,-11.82,-8.24,-11.80,6.00,6.00,6.72,-2.25,-2.24,3.57
36.70,-8.09,-11.65,-8.10,-11.66,6.00,5.99,6.62,-2.09,-2.10,3.56
37.06,-7.98,-11.52,-7.97,-11.52,6.00,5.98,6.53,-1.98,-1.97,3.54
37.43,-7.83,-11.37,-7.84,-11.37,6.00,5.98,6.43,-1.83,-1.84,3.54
37.81,-7.72,-11.25,-7.71,-11.24,6.00,5.97,6.33,-1.72,-1.71,3.53
38.19,-7.57,-11.09,-7.58,-11.10,6.00,5.97,6.24,-1.57,-1.58,3.52
38.57,-7.46,-10.97,-7.45,-10.96,6.00,5.96,6.15,-1.46,-1.45,3.51
38.95,-7.30,-10.80,-7.31,-10.81,6.00,5.96,6.06,-1.30,-1.31,3.50
39.34,-7.18,-10.67,-7.18,-10.67,6.00,5.96,5.97,-1.18,-1.18,3.49
39.74,-7.04,-10.52,-7.04,-10.52,6.00,5.96,5.88,-1.04,-1.04,3.48
40.14,-6.92,-10.39,-6.91,-10.38,6.00,5.96,5.80,-0.92,-0.91,3.47
40.54,-6.77,-10.23,-6.77,-10.24,6.00,5.96,5.72,-0.77,-0.77,3.46
40.94,-6.63,-10.08,-6.64,-10.09,6.00,5.96,5.64,-0.63,-0.64,3.46
41.35,-6.51,-9.95,-6.50,-9.95,6.00,5.97,5.56,-0.51,-0.50,3.44
41.76,-6.37,-9.81,-6.37,-9.81,6.00,5.97,5.49,-0.37,-0.37,3.44
42.18,-6.25,-9.68,-6.24,-9.67,6.00,5.98,5.43,-0.25,-0.24,3.43
42.60,-6.09,-9.51,-6.10,-9.53,6.00,5.99,5.36,-0.09,-0.10,3.42
43.03,-5.98,-9.40,-5.97,-9.39,6.00,6.00,5.31,0.02,0.03,3.42
43.46,-5.83,-9.23,-5.84,-9.24,6.00,6.01,5.25,0.17,0.16,3.40
43.90,-5.72,-9.10,-5.71,-9.09,6.00,6.02,5.20,0.28,0.29,3.38
44.33,-5.56,-8.92,-5.57,-8.93,6.00,6.03,5.15,0.44,0.43,3.36
44.78,-5.43,-8.78,-5.43,-8.78,6.00,6.05,5.11,0.57,0.57,3.35
45.23,-5.30,-8.63,-5.29,-8.62,6.00,6.06,5.07,0.70,0.71,3.33
45.68,-5.14,-8.46,-5.16,-8.47,6.00,6.07,5.04,0.86,0.84,3.32
46.13,-5.03,-8.33,-5.02,-8.33,6.00,6.09,5.00,0.97,0.98,3.30
46.60,-4.88,-8.18,-4.88,-8.17,6.00,6.10,4.98,1.12,1.12,3.30
47.06,-4.76,-8.04,-4.76,-8.04,6.00,6.10,4.95,1.24,1.24,3.28
47.53,-4.61,-7.87,-4.62,-7.89,6.00,6.11,4.93,1.39,1.38,3.26
48.01,-4.50,-7.76,-4.49,-7.74,6.00,6.11,4.92,1.50,1.51,3.26
48.49,-4.35,-7.58,-4.36,-7.59,6.00,6.11,4.90,1.65,1.64,3.23
48.97,-4.24,-7.44,-4.23,-7.43,6.00,6.11,4.89,1.76,1.77,3.20
49.46,-4.09,-7.27,-4.10,-7.28,6.00,6.10,4.88,1.91,1.90,3.18
49.96,-3.98,-7.13,-3.97,-7.13,6.00,6.09,4.88,2.02,2.03,3.15
50.46,-3.85,-6.99,-3.85,-6.98,6.00,6.06,4.87,2.15,2.16,3.14
50.96,-3.71,-6.83,-3.72,-6.84,6.01,6.04,4.87,2.30,2.30,3.12
51.47,-3.59,-6.69,-3.59,-6.69,6.02,6.00,4.87,2.43,2.44,3.10
51.99,-3.45,-6.53,-3.46,-6.54,6.03,5.96,4.88,2.58,2.57,3.08
52.51,-3.34,-6.41,-3.33,-6.40,6.02,5.91,4.88,2.68,2.68,3.07
53.03,-3.21,-6.26,-3.21,-6.26,5.99,5.85,4.88,2.78,2.79,3.05
53.56,-3.08,-6.11,-3.08,-6.12,5.95,5.79,4.89,2.87,2.87,3.03
54.10,-2.96,-5.97,-2.96,-5.97,5.89,5.72,4.89,2.93,2.93,3.01
54.64,-2.84,-5.83,-2.84,-5.83,5.80,5.64,4.90,2.96,2.96,2.99
55.18,-2.73,-5.70,-2.72,-5.70,5.70,5.56,4.90,2.97,2.97,2.97
55.74,-2.61,-5.56,-2.60,-5.55,5.58,5.47,4.90,2.97,2.97,2.95
56.29,-2.47,-5.41,-2.48,-5.41,5.44,5.38,4.90,2.97,2.96,2.94
56.86,-2.36,-5.28,-2.36,-5.28,5.30,5.28,4.90,2.94,2.94,2.92
57.42,-2.25,-5.14,-2.25,-5.15,5.16,5.18,4.89,2.91,2.91,2.89
58.00,-2.14,-5.02,-2.14,-5.02,5.02,5.07,4.88,2.88,2.88,2.88
58.58,-2.03,-4.90,-2.03,-4.90,4.90,4.97,4.87,2.87,2.87,2.87
59.16,-1.92,-4.78,-1.92,-4.77,4.77,4.86,4.86,2.85,2.85,2.86
59.76,-1.81,-4.65,-1.81,-4.65,4.64,4.75,4.83,2.83,2.84,2.84
60.35,-1.70,-4.52,-1.70,-4.53,4.52,4.64,4.81,2.82,2.82,2.82
60.96,-1.60,-4.40,-1.60,-4.40,4.40,4.53,4.78,2.80,2.79,2.80
61.57,-1.51,-4.28,-1.50,-4.27,4.27,4.41,4.74,2.76,2.77,2.77
62.18,-1.40,-4.14,-1.41,-4.15,4.15,4.30,4.70,2.75,2.75,2.74
62.80,-1.30,-4.03,-1.31,-4.03,4.04,4.19,4.65,2.74,2.73,2.73
63.43,-1.23,-3.93,-1.22,-3.92,3.92,4.08,4.60,2.69,2.71,2.70
64.07,-1.12,-3.80,-1.13,-3.81,3.81,3.97,4.54,2.69,2.69,2.68
64.71,-1.04,-3.71,-1.04,-3.71,3.71,3.86,4.47,2.67,2.67,2.67
65.35,-0.95,-3.60,-0.96,-3.60,3.61,3.75,4.41,2.66,2.65,2.65
66.01,-0.89,-3.52,-0.88,-3.51,3.51,3.65,4.33,2.62,2.63,2.63
66.67,-0.80,-3.41,-0.81,-3.42,3.41,3.54,4.25,2.61,2.61,2.61
67.33,-0.73,-3.32,-0.74,-3.33,3.33,3.44,4.16,2.60,2.59,2.59
68.01,-0.68,-3.25,-0.67,-3.24,3.24,3.33,4.08,2.56,2.57,2.57
68.69,-0.60,-3.15,-0.61,-3.16,3.16,3.23,3.98,2.56,2.55,2.55
69.37,-0.54,-3.07,-0.54,-3.07,3.08,3.13,3.88,2.54,2.53,2.53
70.07,-0.49,-3.00,-0.48,-2.99,3.00,3.03,3.78,2.51,2.51,2.51
70.77,-0.43,-2.92,-0.43,-2.92,2.92,2.94,3.68,2.49,2.49,2.49
71.48,-0.38,-2.85,-0.38,-2.85,2.85,2.84,3.57,2.47,2.47,2.47
72.19,-0.33,-2.78,-0.33,-2.78,2.78,2.74,3.46,2.45,2.45,2.45
72.91,-0.30,-2.72,-0.29,-2.72,2.72,2.65,3.35,2.42,2.43,2.42
73.64,-0.24,-2.64,-0.25,-2.65,2.65,2.55,3.24,2.41,2.41,2.40
74.38,-0.21,-2.59,-0.21,-2.59,2.59,2.46,3.13,2.38,2.38,2.38
75.12,-0.16,-2.52,-0.16,-2.52,2.52,2.37,3.01,2.36,2.36,2.36
75.87,-0.12,-2.46,-0.12,-2.46,2.46,2.28,2.90,2.34,2.34,2.34
76.63,-0.07,-2.39,-0.07,-2.39,2.39,2.19,2.78,2.32,2.32,2.32
77.40,-0.02,-2.33,-0.01,-2.32,2.31,2.10,2.67,2.29,2.30,2.31
78.17,0.05,-2.23,0.05,-2.24,2.24,2.01,2.55,2.29,2.29,2.28
78.95,0.12,-2.15,0.11,-2.16,2.16,1.92,2.43,2.28,2.27,2.27
79.74,0.17,-2.08,0.18,-2.07,2.07,1.83,2.32,2.24,2.25,2.25
80.54,0.24,-1.99,0.25,-1.98,1.98,1.75,2.20,2.22,2.23,2.23
81.35,0.33,-1.88,0.32,-1.89,1.89,1.66,2.09,2.22,2.21,2.21
82.16,0.39,-1.80,0.40,-1.79,1.79,1.57,1.97,2.18,2.19,2.19
82.98,0.48,-1.70,0.48,-1.69,1.69,1.49,1.86,2.17,2.17,2.18
83.81,0.56,-1.58,0.56,-1.59,1.58,1.40,1.75,2.14,2.14,2.14
84.65,0.65,-1.47,0.65,-1.47,1.48,1.32,1.63,2.13,2.13,2.12
85.50,0.73,-1.38,0.74,-1.37,1.37,1.24,1.52,2.10,2.11,2.11
86.35,0.84,-1.24,0.82,-1.26,1.26,1.15,1.41,2.10,2.09,2.08
87.22,0.90,-1.16,0.91,-1.15,1.16,1.07,1.30,2.06,2.07,2.06
88.09,0.99,-1.04,0.99,-1.05,1.05,0.99,1.19,2.04,2.04,2.03
88.97,1.07,-0.95,1.06,-0.95,0.95,0.91,1.08,2.02,2.01,2.02
89.86,1.13,-0.86,1.14,-0.85,0.85,0.82,0.98,1.98,1.99,1.99
90.76,1.20,-0.76,1.20,-0.76,0.76,0.74,0.87,1.96,1.96,1.96
91.66,1.28,-0.66,1.27,-0.66,0.66,0.66,0.76,1.94,1.93,1.94
92.58,1.33,-0.57,1.34,-0.57,0.57,0.58,0.66,1.90,1.91,1.90
93.51,1.41,-0.48,1.41,-0.48,0.48,0.51,0.55,1.89,1.89,1.89
94.44,1.47,-0.39,1.46,-0.39,0.40,0.43,0.45,1.87,1.86,1.86
95.39,1.51,-0.32,1.52,-0.31,0.31,0.35,0.35,1.82,1.83,1.83
96.34,1.56,-0.23,1.56,-0.23,0.23,0.27,0.25,1.79,1.79,1.79
97.30,1.61,-0.15,1.61,-0.15,0.15,0.19,0.15,1.76,1.76,1.76
98.28,1.66,-0.08,1.66,-0.07,0.07,0.12,0.05,1.73,1.73,1.73
99.26,1.72,0.01,1.72,0.01,-0.01,0.04,-0.05,1.71,1.70,1.71
100.25,1.77,0.09,1.77,0.09,-0.09,-0.03,-0.15,1.68,1.67,1.68
101.25,1.82,0.17,1.82,0.18,-0.18,-0.10,-0.25,1.65,1.65,1.65
102.27,1.87,0.25,1.87,0.26,-0.25,-0.18,-0.34,1.62,1.62,1.62
103.29,1.93,0.35,1.92,0.34,-0.33,-0.25,-0.44,1.60,1.59,1.58
104.32,1.96,0.40,1.97,0.41,-0.41,-0.32,-0.53,1.55,1.56,1.56
105.37,2.02,0.49,2.01,0.48,-0.48,-0.39,-0.62,1.54,1.53,1.53
106.42,2.05,0.55,2.05,0.55,-0.55,-0.46,-0.71,1.50,1.50,1.50
107.48,2.09,0.62,2.09,0.62,-0.62,-0.53,-0.80,1.47,1.47,1.47
108.56,2.13,0.70,2.12,0.68,-0.69,-0.60,-0.89,1.44,1.43,1.43
109.64,2.14,0.74,2.16,0.75,-0.75,-0.66,-0.97,1.39,1.41,1.40
110.74,2.19,0.82,2.19,0.81,-0.82,-0.73,-1.05,1.37,1.37,1.37
111.85,2.23,0.88,2.22,0.88,-0.88,-0.80,-1.13,1.35,1.34,1.35
112.97,2.23,0.93,2.24,0.94,-0.94,-0.86,-1.20,1.29,1.30,1.30
114.10,2.27,1.00,2.26,1.00,-1.00,-0.92,-1.28,1.27,1.26,1.27
115.24,2.28,1.05,2.29,1.06,-1.06,-0.98,-1.35,1.22,1.23,1.23
116.39,2.31,1.12,2.31,1.11,-1.11,-1.04,-1.41,1.20,1.19,1.19
117.55,2.33,1.18,2.32,1.17,-1.17,-1.10,-1.47,1.16,1.16,1.15
118.73,2.33,1.21,2.35,1.23,-1.22,-1.16,-1.53,1.11,1.13,1.12
119.92,2.37,1.28,2.35,1.27,-1.27,-1.21,-1.59,1.10,1.08,1.09
121.12,2.37,1.32,2.37,1.32,-1.32,-1.27,-1.64,1.05,1.05,1.05
122.33,2.37,1.35,2.39,1.37,-1.37,-1.32,-1.68,1.00,1.02,1.02
123.55,2.42,1.43,2.40,1.41,-1.42,-1.38,-1.73,1.00,0.98,0.99
124.79,2.42,1.46,2.42,1.46,-1.47,-1.43,-1.76,0.95,0.95,0.96
126.03,2.42,1.50,2.44,1.52,-1.52,-1.48,-1.80,0.90,0.92,0.92
127.29,2.45,1.56,2.45,1.56,-1.57,-1.52,-1.83,0.88,0.88,0.89
128.57,2.47,1.63,2.46,1.61,-1.61,-1.57,-1.85,0.86,0.85,0.84
129.85,2.47,1.66,2.47,1.66,-1.66,-1.62,-1.87,0.81,0.81,0.81
131.15,2.47,1.69,2.48,1.71,-1.71,-1.66,-1.89,0.76,0.78,0.78
132.46,2.50,1.76,2.49,1.75,-1.75,-1.70,-1.91,0.75,0.75,0.74
133.79,2.51,1.79,2.51,1.79,-1.79,-1.74,-1.92,0.72,0.72,0.72
135.12,2.51,1.83,2.51,1.83,-1.82,-1.78,-1.92,0.69,0.69,0.68
136.48,2.51,1.85,2.51,1.86,-1.86,-1.82,-1.93,0.65,0.65,0.66
137.84,2.51,1.88,2.51,1.89,-1.89,-1.86,-1.93,0.62,0.62,0.63
139.22,2.51,1.92,2.51,1.92,-1.92,-1.89,-1.93,0.59,0.59,0.59
140.61,2.51,1.95,2.51,1.94,-1.94,-1.92,-1.93,0.57,0.57,0.56
142.02,2.51,1.96,2.51,1.97,-1.97,-1.96,-1.92,0.54,0.54,0.55
143.44,2.51,1.99,2.51,1.99,-1.99,-1.99,-1.92,0.52,0.52,0.52
144.87,2.51,2.01,2.51,2.01,-2.02,-2.02,-1.91,0.49,0.49,0.50
146.32,2.51,2.04,2.51,2.04,-2.04,-2.04,-1.90,0.47,0.47,0.47
147.78,2.51,2.06,2.51,2.06,-2.06,-2.07,-1.89,0.45,0.45,0.45
149.26,2.51,2.08,2.51,2.09,-2.08,-2.09,-1.88,0.43,0.43,0.43
150.75,2.51,2.12,2.50,2.11,-2.10,-2.12,-1.87,0.41,0.40,0.39
152.26,2.49,2.12,2.49,2.12,-2.12,-2.14,-1.86,0.37,0.37,0.37
153.78,2.47,2.13,2.48,2.14,-2.14,-2.16,-1.85,0.33,0.34,0.34
155.32,2.47,2.16,2.47,2.15,-2.16,-2.18,-1.85,0.31,0.31,0.31
156.88,2.47,2.18,2.45,2.17,-2.17,-2.19,-1.84,0.30,0.28,0.29
158.44,2.42,2.16,2.44,2.18,-2.19,-2.21,-1.83,0.23,0.25,0.26
160.03,2.42,2.20,2.42,2.20,-2.20,-2.22,-1.82,0.22,0.22,0.22
161.63,2.42,2.23,2.40,2.21,-2.21,-2.24,-1.81,0.21,0.19,0.19
163.24,2.39,2.23,2.40,2.23,-2.22,-2.25,-1.81,0.17,0.17,0.16
164.88,2.37,2.23,2.38,2.24,-2.23,-2.26,-1.81,0.14,0.14,0.14
166.53,2.37,2.26,2.36,2.25,-2.24,-2.27,-1.80,0.13,0.12,0.11
168.19,2.33,2.24,2.34,2.25,-2.25,-2.27,-1.80,0.08,0.09,0.09
169.87,2.33,2.27,2.32,2.26,-2.26,-2.28,-1.80,0.07,0.06,0.06
171.57,2.28,2.25,2.29,2.26,-2.27,-2.28,-1.80,0.01,0.03,0.03
173.29,2.28,2.28,2.27,2.27,-2.27,-2.29,-1.80,0.01,-0.00,0.00
175.02,2.24,2.26,2.24,2.27,-2.28,-2.29,-1.81,-0.04,-0.03,-0.02
176.77,2.23,2.29,2.23,2.29,-2.29,-2.29,-1.81,-0.06,-0.06,-0.06
178.54,2.20,2.30,2.20,2.29,-2.29,-2.29,-1.82,-0.09,-0.09,-0.10
180.32,2.19,2.31,2.18,2.30,-2.30,-2.29,-1.83,-0.11,-0.12,-0.12
182.13,2.14,2.29,2.15,2.30,-2.30,-2.29,-1.84,-0.16,-0.15,-0.15
183.95,2.14,2.32,2.13,2.31,-2.31,-2.28,-1.85,-0.17,-0.18,-0.18
185.79,2.10,2.30,2.10,2.31,-2.31,-2.28,-1.87,-0.21,-0.21,-0.20
187.65,2.09,2.33,2.08,2.32,-2.32,-2.27,-1.88,-0.23,-0.23,-0.24
189.52,2.05,2.31,2.06,2.32,-2.32,-2.27,-1.90,-0.27,-0.26,-0.26
191.42,2.05,2.33,2.04,2.33,-2.33,-2.26,-1.91,-0.28,-0.28,-0.28
193.33,2.02,2.32,2.02,2.32,-2.33,-2.25,-1.93,-0.31,-0.31,-0.30
195.27,2.00,2.33,2.00,2.33,-2.33,-2.24,-1.95,-0.33,-0.32,-0.33
197.22,1.98,2.33,1.98,2.33,-2.33,-2.23,-1.97,-0.35,-0.35,-0.35
199.19,1.96,2.34,1.95,2.33,-2.32,-2.22,-1.99,-0.36,-0.37,-0.38
201.18,1.92,2.31,1.93,2.32,-2.32,-2.20,-2.02,-0.40,-0.39,-0.39
203.19,1.91,2.31,1.91,2.31,-2.31,-2.19,-2.04,-0.40,-0.40,-0.40
205.23,1.88,2.30,1.88,2.29,-2.30,-2.18,-2.06,-0.42,-0.42,-0.42
207.28,1.86,2.28,1.86,2.28,-2.28,-2.16,-2.09,-0.42,-0.43,-0.42
209.35,1.82,2.26,1.83,2.27,-2.27,-2.14,-2.11,-0.45,-0.44,-0.44
211.44,1.81,2.27,1.80,2.25,-2.25,-2.13,-2.14,-0.44,-0.45,-0.46
213.56,1.77,2.22,1.78,2.23,-2.23,-2.11,-2.16,-0.46,-0.46,-0.45
215.69,1.77,2.22,1.76,2.22,-2.22,-2.09,-2.18,-0.45,-0.46,-0.45
217.85,1.72,2.18,1.73,2.19,-2.20,-2.07,-2.20,-0.48,-0.47,-0.46
220.03,1.72,2.19,1.71,2.18,-2.18,-2.05,-2.23,-0.46,-0.47,-0.47
222.23,1.68,2.16,1.69,2.16,-2.16,-2.03,-2.25,-0.48,-0.47,-0.48
224.45,1.68,2.14,1.68,2.15,-2.14,-2.01,-2.26,-0.46,-0.46,-0.46
226.70,1.68,2.14,1.66,2.12,-2.12,-1.99,-2.28,-0.44,-0.46,-0.46
228.96,1.63,2.09,1.65,2.10,-2.10,-1.96,-2.29,-0.47,-0.46,-0.46
231.25,1.63,2.07,1.64,2.08,-2.09,-1.94,-2.31,-0.46,-0.45,-0.44
233.57,1.63,2.07,1.62,2.06,-2.07,-1.92,-2.31,-0.44,-0.44,-0.44
235.90,1.63,2.07,1.61,2.05,-2.05,-1.89,-2.32,-0.42,-0.43,-0.44
238.26,1.58,2.01,1.60,2.03,-2.02,-1.87,-2.32,-0.44,-0.43,-0.43
240.64,1.58,2.00,1.58,2.00,-2.00,-1.84,-2.32,-0.42,-0.42,-0.42
243.05,1.58,1.98,1.57,1.97,-1.98,-1.81,-2.32,-0.40,-0.41,-0.40
245.48,1.57,1.96,1.56,1.95,-1.95,-1.79,-2.31,-0.38,-0.39,-0.39
247.93,1.54,1.91,1.56,1.93,-1.93,-1.76,-2.30,-0.39,-0.37,-0.37
250.41,1.54,1.91,1.54,1.90,-1.90,-1.73,-2.29,-0.36,-0.36,-0.37
252.92,1.54,1.88,1.52,1.86,-1.86,-1.70,-2.27,-0.32,-0.34,-0.34
255.45,1.49,1.81,1.51,1.83,-1.83,-1.67,-2.24,-0.34,-0.32,-0.32
258.00,1.49,1.79,1.49,1.79,-1.79,-1.65,-2.22,-0.30,-0.30,-0.30
260.58,1.48,1.76,1.47,1.75,-1.75,-1.62,-2.19,-0.27,-0.28,-0.28
263.19,1.44,1.70,1.45,1.72,-1.71,-1.59,-2.16,-0.27,-0.26,-0.26
265.82,1.44,1.68,1.43,1.67,-1.66,-1.55,-2.12,-0.22,-0.24,-0.24
268.48,1.40,1.62,1.40,1.62,-1.62,-1.52,-2.08,-0.22,-0.22,-0.22
271.16,1.38,1.57,1.38,1.57,-1.57,-1.49,-2.04,-0.19,-0.19,-0.19
273.87,1.35,1.52,1.35,1.52,-1.53,-1.46,-1.99,-0.18,-0.18,-0.17
276.61,1.34,1.49,1.33,1.48,-1.48,-1.43,-1.94,-0.14,-0.15,-0.15
279.38,1.30,1.43,1.31,1.44,-1.44,-1.40,-1.89,-0.14,-0.13,-0.13
282.17,1.28,1.39,1.28,1.39,-1.39,-1.36,-1.84,-0.11,-0.11,-0.11
284.99,1.26,1.35,1.26,1.34,-1.34,-1.33,-1.78,-0.08,-0.09,-0.09
287.84,1.23,1.30,1.23,1.30,-1.30,-1.30,-1.72,-0.07,-0.06,-0.07
290.72,1.21,1.25,1.21,1.25,-1.25,-1.26,-1.66,-0.04,-0.04,-0.04
293.63,1.18,1.20,1.18,1.20,-1.21,-1.23,-1.60,-0.03,-0.03,-0.02
296.57,1.16,1.16,1.16,1.16,-1.16,-1.19,-1.54,0.00,-0.00,0.00
299.53,1.12,1.10,1.13,1.11,-1.11,-1.16,-1.48,0.01,0.02,0.02
302.53,1.12,1.08,1.11,1.06,-1.06,-1.12,-1.42,0.06,0.05,0.04
305.55,1.08,1.00,1.08,1.02,-1.01,-1.09,-1.35,0.07,0.08,0.08
308.61,1.07,0.97,1.06,0.96,-0.96,-1.05,-1.29,0.11,0.10,0.10
311.69,1.02,0.90,1.03,0.90,-0.91,-1.02,-1.22,0.11,0.13,0.12
314.81,1.01,0.85,1.01,0.85,-0.86,-0.98,-1.16,0.15,0.15,0.16
317.96,0.98,0.80,0.98,0.80,-0.80,-0.94,-1.10,0.18,0.17,0.18
321.14,0.95,0.75,0.95,0.75,-0.76,-0.91,-1.03,0.19,0.20,0.20
324.35,0.93,0.71,0.92,0.71,-0.71,-0.87,-0.97,0.22,0.22,0.22
327.59,0.89,0.65,0.90,0.66,-0.66,-0.83,-0.90,0.23,0.24,0.24
330.87,0.88,0.62,0.88,0.62,-0.61,-0.80,-0.84,0.27,0.27,0.26
334.18,0.85,0.57,0.85,0.57,-0.57,-0.76,-0.77,0.28,0.29,0.28
337.52,0.84,0.54,0.83,0.53,-0.52,-0.72,-0.71,0.32,0.31,0.30
340.90,0.79,0.46,0.80,0.48,-0.47,-0.68,-0.64,0.32,0.33,0.33
344.30,0.78,0.43,0.77,0.42,-0.43,-0.65,-0.58,0.35,0.34,0.35
347.75,0.74,0.37,0.74,0.37,-0.38,-0.61,-0.52,0.36,0.36,0.37
351.23,0.71,0.33,0.72,0.34,-0.34,-0.57,-0.45,0.37,0.38,0.38
354.74,0.70,0.30,0.70,0.29,-0.29,-0.53,-0.39,0.41,0.40,0.40
358.28,0.68,0.26,0.67,0.25,-0.25,-0.49,-0.33,0.43,0.42,0.42
361.87,0.65,0.21,0.65,0.21,-0.21,-0.45,-0.27,0.44,0.44,0.44
365.49,0.61,0.15,0.62,0.16,-0.17,-0.41,-0.21,0.44,0.46,0.46
369.14,0.61,0.14,0.60,0.13,-0.13,-0.37,-0.15,0.48,0.47,0.47
372.83,0.57,0.08,0.57,0.09,-0.09,-0.33,-0.08,0.48,0.49,0.49
376.56,0.56,0.06,0.55,0.05,-0.05,-0.29,-0.02,0.51,0.51,0.50
380.33,0.51,-0.02,0.52,0.00,-0.01,-0.25,0.04,0.50,0.51,0.53
384.13,0.51,-0.02,0.50,-0.03,0.03,-0.21,0.10,0.54,0.53,0.53
387.97,0.47,-0.07,0.48,-0.07,0.06,-0.17,0.15,0.53,0.54,0.54
391.85,0.47,-0.08,0.46,-0.10,0.10,-0.13,0.21,0.57,0.55,0.55
395.77,0.43,-0.14,0.44,-0.13,0.13,-0.09,0.27,0.56,0.57,0.57
399.73,0.42,-0.16,0.42,-0.16,0.16,-0.05,0.33,0.58,0.58,0.58
403.72,0.42,-0.17,0.40,-0.19,0.19,-0.01,0.39,0.61,0.60,0.59
407.76,0.37,-0.23,0.38,-0.22,0.22,0.03,0.44,0.59,0.61,0.60
411.84,0.37,-0.25,0.36,-0.25,0.25,0.07,0.50,0.62,0.62,0.62
415.96,0.33,-0.30,0.34,-0.29,0.28,0.12,0.55,0.61,0.62,0.63
420.12,0.33,-0.31,0.32,-0.32,0.32,0.16,0.61,0.65,0.64,0.64
424.32,0.29,-0.36,0.30,-0.35,0.35,0.20,0.66,0.64,0.65,0.65
428.56,0.28,-0.38,0.28,-0.38,0.38,0.24,0.71,0.66,0.66,0.66
432.85,0.26,-0.41,0.25,-0.41,0.42,0.28,0.77,0.68,0.67,0.67
437.18,0.23,-0.45,0.24,-0.44,0.45,0.32,0.82,0.68,0.69,0.68
441.55,0.21,-0.49,0.21,-0.48,0.48,0.36,0.86,0.69,0.69,0.70
445.96,0.19,-0.52,0.18,-0.52,0.52,0.41,0.91,0.71,0.70,0.71
450.42,0.15,-0.56,0.16,-0.56,0.56,0.45,0.96,0.71,0.72,0.71
454.93,0.14,-0.59,0.14,-0.60,0.59,0.49,1.00,0.73,0.73,0.73
459.48,0.12,-0.62,0.12,-0.63,0.63,0.53,1.04,0.75,0.75,0.74
464.07,0.09,-0.67,0.10,-0.67,0.66,0.57,1.08,0.75,0.76,0.76
468.71,0.09,-0.69,0.08,-0.70,0.70,0.61,1.12,0.79,0.77,0.78
473.40,0.05,-0.74,0.07,-0.73,0.73,0.66,1.16,0.78,0.80,0.79
478.13,0.05,-0.76,0.05,-0.76,0.76,0.70,1.19,0.81,0.81,0.81
482.91,0.05,-0.77,0.03,-0.80,0.80,0.74,1.22,0.85,0.82,0.82
487.74,0.00,-0.84,0.02,-0.82,0.83,0.78,1.25,0.83,0.85,0.84
