frequency,raw,error,smoothed,error_smoothed,equalization,parametric_eq,fixed_band_eq,equalized_raw,equalized_smoothed,target
20.00,0.65,-3.51,0.64,-3.51,3.54,1.65,0.07,4.20,4.19,4.16
20.20,0.71,-3.48,0.72,-3.47,3.48,1.62,0.07,4.19,4.19,4.19
20.40,0.78,-3.43,0.80,-3.42,3.41,1.59,0.08,4.19,4.20,4.22
20.61,0.89,-3.35,0.89,-3.35,3.33,1.57,0.08,4.22,4.22,4.24
20.81,1.00,-3.26,0.99,-3.28,3.25,1.54,0.09,4.25,4.24,4.27
21.02,1.10,-3.19,1.11,-3.18,3.17,1.51,0.09,4.27,4.27,4.30
21.23,1.21,-3.09,1.22,-3.09,3.08,1.48,0.10,4.29,4.30,4.31
21.44,1.34,-2.97,1.33,-2.98,2.98,1.46,0.10,4.33,4.32,4.32
21.66,1.45,-2.87,1.45,-2.87,2.88,1.43,0.11,4.33,4.33,4.32
21.87,1.56,-2.76,1.57,-2.76,2.77,1.40,0.12,4.33,4.34,4.32
22.09,1.67,-2.66,1.67,-2.66,2.66,1.37,0.12,4.33,4.33,4.33
22.31,1.78,-2.55,1.79,-2.55,2.55,1.34,0.13,4.34,4.34,4.33
22.54,1.89,-2.44,1.89,-2.44,2.44,1.30,0.13,4.33,4.34,4.33
22.76,2.00,-2.33,1.99,-2.34,2.34,1.27,0.14,4.34,4.33,4.33
22.99,2.08,-2.24,2.09,-2.23,2.23,1.24,0.15,4.31,4.32,4.32
23.22,2.19,-2.13,2.19,-2.13,2.12,1.21,0.15,4.32,4.32,4.32
23.45,2.30,-2.02,2.30,-2.02,2.02,1.17,0.16,4.32,4.32,4.32
23.69,2.41,-1.91,2.41,-1.91,1.91,1.14,0.17,4.32,4.32,4.32
23.92,2.52,-1.79,2.52,-1.80,1.80,1.10,0.18,4.32,4.32,4.32
24.16,2.63,-1.69,2.63,-1.69,1.69,1.07,0.18,4.32,4.32,4.33
24.40,2.73,-1.59,2.74,-1.58,1.58,1.03,0.19,4.32,4.32,4.33
24.65,2.84,-1.47,2.84,-1.48,1.48,0.99,0.20,4.32,4.32,4.32
24.89,2.95,-1.36,2.95,-1.37,1.37,0.96,0.20,4.32,4.32,4.31
25.14,3.04,-1.27,3.05,-1.26,1.27,0.92,0.21,4.31,4.32,4.31
25.39,3.15,-1.16,3.14,-1.17,1.17,0.88,0.22,4.32,4.31,4.31
25.65,3.23,-1.08,3.24,-1.07,1.07,0.84,0.22,4.30,4.31,4.31
25.91,3.32,-0.98,3.33,-0.98,0.98,0.80,0.23,4.30,4.30,4.30
26.16,3.43,-0.87,3.42,-0.88,0.88,0.75,0.24,4.32,4.30,4.30
26.43,3.49,-0.81,3.51,-0.79,0.79,0.71,0.24,4.29,4.30,4.30
26.69,3.60,-0.69,3.59,-0.71,0.71,0.67,0.25,4.31,4.30,4.30
26.96,3.66,-0.63,3.67,-0.63,0.62,0.62,0.25,4.28,4.29,4.30
27.23,3.76,-0.53,3.76,-0.54,0.54,0.58,0.25,4.30,4.29,4.29
27.50,3.83,-0.46,3.84,-0.45,0.45,0.53,0.26,4.28,4.29,4.29
27.77,3.92,-0.36,3.92,-0.36,0.37,0.48,0.26,4.29,4.29,4.28
28.05,4.00,-0.28,4.00,-0.28,0.28,0.43,0.26,4.28,4.28,4.28
28.33,4.06,-0.21,4.07,-0.20,0.20,0.38,0.26,4.26,4.27,4.27
28.62,4.15,-0.12,4.15,-0.12,0.11,0.33,0.25,4.27,4.26,4.27
28.90,4.23,-0.03,4.23,-0.03,0.03,0.28,0.25,4.26,4.26,4.27
29.19,4.31,0.06,4.31,0.05,-0.05,0.23,0.25,4.26,4.26,4.25
29.48,4.39,0.13,4.39,0.13,-0.13,0.17,0.24,4.26,4.26,4.26
29.78,4.46,0.21,4.47,0.21,-0.21,0.11,0.23,4.25,4.25,4.25
30.08,4.54,0.29,4.54,0.29,-0.29,0.06,0.22,4.25,4.25,4.25
30.38,4.61,0.37,4.61,0.37,-0.37,-0.00,0.21,4.24,4.24,4.24
30.68,4.68,0.45,4.68,0.45,-0.45,-0.06,0.20,4.23,4.23,4.23
30.99,4.75,0.53,4.75,0.52,-0.52,-0.12,0.18,4.23,4.22,4.22
31.30,4.81,0.59,4.82,0.60,-0.60,-0.19,0.17,4.21,4.22,4.22
31.61,4.88,0.66,4.88,0.67,-0.67,-0.25,0.15,4.21,4.21,4.22
31.93,4.95,0.75,4.95,0.74,-0.74,-0.32,0.13,4.21,4.21,4.21
32.24,5.00,0.81,5.00,0.80,-0.80,-0.38,0.10,4.20,4.20,4.19
32.57,5.05,0.86,5.06,0.87,-0.86,-0.45,0.08,4.19,4.19,4.19
32.89,5.10,0.91,5.10,0.92,-0.92,-0.52,0.05,4.18,4.18,4.19
33.22,5.16,0.99,5.15,0.98,-0.98,-0.59,0.03,4.19,4.18,4.18
33.55,5.19,1.02,5.20,1.03,-1.03,-0.66,-0.00,4.17,4.17,4.17
33.89,5.24,1.08,5.24,1.08,-1.07,-0.73,-0.04,4.17,4.17,4.16
34.23,5.27,1.12,5.27,1.12,-1.12,-0.79,-0.07,4.15,4.15,4.16
34.57,5.30,1.16,5.31,1.16,-1.16,-0.86,-0.10,4.14,4.14,4.14
34.92,5.33,1.20,5.33,1.20,-1.20,-0.93,-0.14,4.13,4.13,4.13
35.27,5.37,1.24,5.37,1.24,-1.24,-1.00,-0.18,4.13,4.12,4.13
35.62,5.39,1.28,5.40,1.28,-1.28,-1.07,-0.22,4.11,4.11,4.11
35.97,5.43,1.33,5.42,1.32,-1.32,-1.14,-0.26,4.11,4.10,4.10
36.33,5.44,1.35,5.46,1.36,-1.36,-1.20,-0.30,4.08,4.10,4.10
36.70,5.49,1.41,5.48,1.40,-1.40,-1.26,-0.34,4.09,4.08,4.08
37.06,5.52,1.45,5.51,1.44,-1.44,-1.32,-0.39,4.08,4.07,4.07
37.43,5.53,1.47,5.55,1.49,-1.49,-1.37,-0.43,4.05,4.06,4.06
37.81,5.58,1.53,5.58,1.53,-1.53,-1.43,-0.48,4.05,4.04,4.05
38.19,5.61,1.58,5.61,1.57,-1.58,-1.48,-0.52,4.03,4.03,4.04
38.57,5.65,1.62,5.66,1.63,-1.63,-1.52,-0.57,4.02,4.03,4.03
38.95,5.70,1.69,5.69,1.68,-1.68,-1.57,-0.62,4.02,4.01,4.02
39.34,5.73,1.73,5.74,1.73,-1.73,-1.61,-0.67,4.00,4.00,4.00
39.74,5.77,1.79,5.78,1.79,-1.78,-1.64,-0.72,3.99,3.99,3.99
40.14,5.81,1.83,5.81,1.83,-1.83,-1.68,-0.77,3.98,3.98,3.98
40.54,5.85,1.89,5.85,1.88,-1.87,-1.71,-0.83,3.98,3.97,3.96
40.94,5.86,1.90,5.88,1.92,-1.92,-1.74,-0.88,3.95,3.96,3.96
41.35,5.91,1.97,5.90,1.96,-1.95,-1.77,-0.93,3.96,3.95,3.94
41.76,5.92,1.99,5.92,1.99,-1.99,-1.80,-0.99,3.93,3.93,3.94
42.18,5.95,2.02,5.95,2.03,-2.03,-1.82,-1.05,3.93,3.93,3.93
42.60,5.96,2.05,5.97,2.05,-2.06,-1.85,-1.10,3.90,3.91,3.91
43.03,6.00,2.10,5.99,2.09,-2.09,-1.87,-1.16,3.91,3.90,3.91
43.46,6.00,2.11,6.01,2.13,-2.13,-1.90,-1.22,3.87,3.88,3.89
43.90,6.04,2.18,6.03,2.16,-2.17,-1.92,-1.28,3.88,3.86,3.86
44.33,6.04,2.20,6.04,2.20,-2.20,-1.95,-1.34,3.84,3.84,3.84
44.78,6.04,2.22,6.06,2.24,-2.23,-1.97,-1.40,3.81,3.83,3.83
45.23,6.09,2.28,6.07,2.27,-2.27,-2.00,-1.46,3.83,3.81,3.81
45.68,6.09,2.30,6.09,2.30,-2.29,-2.03,-1.52,3.80,3.79,3.79
46.13,6.09,2.32,6.10,2.33,-2.32,-2.06,-1.59,3.77,3.78,3.77
46.60,6.10,2.34,6.10,2.35,-2.35,-2.09,-1.65,3.76,3.76,3.76
47.06,6.11,2.37,6.11,2.37,-2.37,-2.12,-1.72,3.74,3.74,3.74
47.53,6.11,2.39,6.11,2.39,-2.39,-2.15,-1.78,3.72,3.72,3.72
48.01,6.11,2.40,6.12,2.41,-2.42,-2.19,-1.85,3.69,3.70,3.71
48.49,6.11,2.43,6.11,2.43,-2.44,-2.22,-1.92,3.67,3.67,3.68
48.97,6.11,2.46,6.11,2.46,-2.46,-2.26,-1.98,3.65,3.65,3.65
49.46,6.09,2.47,6.10,2.49,-2.48,-2.30,-2.05,3.61,3.63,3.62
49.96,6.09,2.51,6.09,2.50,-2.49,-2.34,-2.12,3.60,3.60,3.59
50.46,6.09,2.52,6.08,2.51,-2.50,-2.38,-2.19,3.59,3.57,3.57
50.96,6.04,2.49,6.06,2.51,-2.51,-2.42,-2.26,3.53,3.55,3.55
51.47,6.03,2.51,6.03,2.51,-2.51,-2.46,-2.33,3.52,3.52,3.52
51.99,6.00,2.51,6.00,2.50,-2.50,-2.51,-2.41,3.50,3.50,3.49
52.51,5.97,2.49,5.97,2.50,-2.49,-2.55,-2.48,3.48,3.48,3.48
53.03,5.93,2.48,5.93,2.48,-2.47,-2.60,-2.55,3.46,3.46,3.46
53.56,5.88,2.45,5.89,2.46,-2.46,-2.64,-2.62,3.43,3.43,3.43
54.10,5.84,2.44,5.84,2.43,-2.44,-2.69,-2.69,3.41,3.40,3.41
54.64,5.79,2.41,5.79,2.41,-2.42,-2.74,-2.76,3.38,3.37,3.38
55.18,5.74,2.39,5.75,2.40,-2.40,-2.79,-2.83,3.34,3.35,3.35
55.74,5.71,2.39,5.71,2.38,-2.38,-2.84,-2.90,3.33,3.33,3.33
56.29,5.67,2.36,5.67,2.37,-2.37,-2.89,-2.97,3.31,3.30,3.31
56.86,5.63,2.35,5.64,2.36,-2.35,-2.94,-3.03,3.28,3.29,3.28
57.42,5.60,2.35,5.60,2.35,-2.34,-3.00,-3.10,3.26,3.26,3.25
58.00,5.58,2.35,5.57,2.34,-2.33,-3.05,-3.16,3.25,3.24,3.23
58.58,5.53,2.32,5.55,2.34,-2.33,-3.10,-3.22,3.20,3.22,3.21
59.16,5.53,2.34,5.53,2.34,-2.34,-3.16,-3.28,3.19,3.19,3.19
59.76,5.53,2.36,5.51,2.34,-2.35,-3.21,-3.34,3.18,3.16,3.17
60.35,5.49,2.35,5.51,2.37,-2.37,-3.27,-3.40,3.12,3.14,3.14
60.96,5.49,2.38,5.50,2.39,-2.40,-3.33,-3.45,3.09,3.10,3.12
61.57,5.53,2.46,5.51,2.44,-2.45,-3.38,-3.50,3.09,3.07,3.07
62.18,5.53,2.49,5.54,2.50,-2.50,-3.44,-3.55,3.03,3.05,3.04
62.80,5.58,2.57,5.58,2.57,-2.56,-3.50,-3.60,3.02,3.02,3.02
63.43,5.62,2.64,5.62,2.64,-2.63,-3.56,-3.65,2.99,2.98,2.98
64.07,5.67,2.72,5.67,2.72,-2.72,-3.62,-3.69,2.95,2.96,2.95
64.71,5.73,2.80,5.73,2.81,-2.81,-3.67,-3.74,2.92,2.92,2.93
65.35,5.80,2.90,5.80,2.90,-2.91,-3.73,-3.78,2.90,2.89,2.90
66.01,5.88,3.01,5.88,3.01,-3.01,-3.79,-3.81,2.87,2.87,2.87
66.67,5.96,3.12,5.97,3.12,-3.12,-3.85,-3.85,2.84,2.84,2.84
67.33,6.06,3.25,6.05,3.24,-3.24,-3.91,-3.89,2.82,2.81,2.81
68.01,6.14,3.36,6.15,3.37,-3.37,-3.97,-3.92,2.78,2.78,2.78
68.69,6.24,3.49,6.25,3.49,-3.49,-4.03,-3.96,2.75,2.75,2.75
69.37,6.35,3.63,6.35,3.63,-3.62,-4.09,-3.99,2.73,2.72,2.72
70.07,6.44,3.76,6.45,3.76,-3.75,-4.15,-4.03,2.69,2.69,2.69
70.77,6.55,3.89,6.54,3.88,-3.88,-4.21,-4.06,2.67,2.66,2.66
71.48,6.63,4.00,6.64,4.02,-4.02,-4.27,-4.10,2.62,2.63,2.63
72.19,6.74,4.15,6.74,4.15,-4.15,-4.32,-4.13,2.59,2.59,2.59
72.91,6.85,4.30,6.83,4.28,-4.28,-4.38,-4.17,2.58,2.56,2.56
73.64,6.91,4.39,6.93,4.41,-4.41,-4.44,-4.20,2.51,2.53,2.52
74.38,7.02,4.53,7.02,4.53,-4.53,-4.50,-4.24,2.49,2.48,2.49
75.12,7.12,4.67,7.11,4.66,-4.66,-4.55,-4.28,2.46,2.45,2.45
75.87,7.19,4.77,7.21,4.78,-4.79,-4.60,-4.32,2.41,2.42,2.42
76.63,7.30,4.91,7.29,4.90,-4.90,-4.66,-4.37,2.40,2.39,2.39
77.40,7.36,5.00,7.37,5.01,-5.02,-4.71,-4.41,2.35,2.36,2.36
78.17,7.45,5.13,7.45,5.12,-5.12,-4.76,-4.46,2.33,2.33,2.32
78.95,7.51,5.21,7.51,5.22,-5.21,-4.81,-4.51,2.30,2.31,2.30
79.74,7.57,5.31,7.56,5.30,-5.29,-4.85,-4.57,2.29,2.28,2.27
80.54,7.58,5.35,7.58,5.35,-5.35,-4.90,-4.62,2.24,2.24,2.23
81.35,7.58,5.39,7.59,5.39,-5.39,-4.94,-4.68,2.19,2.20,2.20
82.16,7.58,5.42,7.58,5.42,-5.41,-4.98,-4.75,2.17,2.17,2.16
82.98,7.56,5.43,7.55,5.43,-5.41,-5.01,-4.81,2.15,2.14,2.14
83.81,7.51,5.42,7.51,5.42,-5.40,-5.05,-4.88,2.11,2.11,2.09
84.65,7.43,5.38,7.44,5.38,-5.37,-5.08,-4.95,2.06,2.07,2.05
85.50,7.36,5.34,7.36,5.34,-5.33,-5.10,-5.03,2.03,2.03,2.02
86.35,7.26,5.28,7.27,5.28,-5.28,-5.13,-5.11,1.98,1.98,1.98
87.22,7.18,5.24,7.18,5.23,-5.24,-5.15,-5.20,1.94,1.94,1.94
88.09,7.08,5.18,7.09,5.18,-5.20,-5.17,-5.29,1.89,1.89,1.90
88.97,7.02,5.15,7.02,5.15,-5.16,-5.18,-5.38,1.86,1.86,1.87
89.86,6.95,5.12,6.96,5.13,-5.15,-5.20,-5.47,1.81,1.81,1.83
90.76,6.93,5.15,6.92,5.13,-5.15,-5.22,-5.57,1.78,1.77,1.78
91.66,6.88,5.14,6.90,5.16,-5.17,-5.25,-5.68,1.71,1.73,1.74
92.58,6.90,5.21,6.90,5.20,-5.21,-5.28,-5.79,1.69,1.69,1.69
93.51,6.93,5.27,6.92,5.26,-5.28,-5.31,-5.90,1.66,1.64,1.66
94.44,6.95,5.34,6.96,5.35,-5.36,-5.37,-6.01,1.59,1.61,1.61
95.39,7.02,5.45,7.02,5.45,-5.45,-5.42,-6.13,1.57,1.56,1.57
96.34,7.08,5.57,7.08,5.56,-5.57,-5.50,-6.26,1.52,1.52,1.52
97.30,7.16,5.69,7.16,5.69,-5.68,-5.58,-6.38,1.48,1.48,1.47
98.28,7.23,5.81,7.24,5.81,-5.81,-5.69,-6.51,1.42,1.43,1.42
99.26,7.32,5.94,7.32,5.94,-5.93,-5.79,-6.64,1.39,1.38,1.38
100.25,7.40,6.07,7.40,6.07,-6.06,-5.92,-6.78,1.34,1.34,1.33
101.25,7.47,6.19,7.48,6.19,-6.18,-6.04,-6.92,1.29,1.29,1.29
102.27,7.55,6.31,7.55,6.31,-6.30,-6.17,-7.06,1.25,1.24,1.24
103.29,7.61,6.43,7.61,6.42,-6.42,-6.31,-7.20,1.19,1.19,1.18
104.32,7.67,6.52,7.68,6.53,-6.53,-6.44,-7.34,1.14,1.15,1.15
105.37,7.74,6.64,7.74,6.64,-6.63,-6.57,-7.48,1.11,1.10,1.10
106.42,7.79,6.74,7.79,6.74,-6.74,-6.70,-7.63,1.05,1.06,1.06
107.48,7.85,6.84,7.84,6.84,-6.84,-6.83,-7.77,1.02,1.01,1.01
108.56,7.88,6.93,7.89,6.93,-6.93,-6.96,-7.91,0.95,0.95,0.95
109.64,7.93,7.03,7.93,7.02,-7.03,-7.08,-8.05,0.90,0.90,0.91
110.74,7.98,7.12,7.98,7.12,-7.12,-7.19,-8.19,0.86,0.86,0.86
111.85,8.02,7.21,8.03,7.22,-7.22,-7.31,-8.32,0.81,0.81,0.82
112.97,8.07,7.32,8.07,7.31,-7.31,-7.41,-8.45,0.77,0.76,0.75
114.10,8.10,7.40,8.10,7.40,-7.40,-7.52,-8.58,0.71,0.70,0.70
115.24,8.13,7.48,8.13,7.49,-7.49,-7.62,-8.69,0.65,0.65,0.65
116.39,8.16,7.57,8.16,7.57,-7.57,-7.72,-8.81,0.59,0.59,0.60
117.55,8.20,7.66,8.20,7.66,-7.66,-7.81,-8.91,0.54,0.54,0.54
118.73,8.23,7.74,8.24,7.75,-7.74,-7.91,-9.01,0.49,0.49,0.49
119.92,8.28,7.84,8.27,7.83,-7.83,-7.99,-9.09,0.46,0.44,0.44
121.12,8.29,7.90,8.30,7.91,-7.91,-8.08,-9.17,0.38,0.40,0.39
122.33,8.33,7.99,8.33,7.99,-7.99,-8.16,-9.23,0.34,0.34,0.34
123.55,8.37,8.07,8.36,8.07,-8.07,-8.25,-9.29,0.30,0.29,0.30
124.79,8.38,8.14,8.39,8.15,-8.15,-8.32,-9.33,0.23,0.24,0.25
126.03,8.42,8.23,8.42,8.22,-8.23,-8.40,-9.36,0.19,0.19,0.20
127.29,8.44,8.30,8.45,8.30,-8.31,-8.47,-9.38,0.14,0.14,0.15
128.57,8.47,8.39,8.48,8.39,-8.38,-8.55,-9.40,0.09,0.09,0.09
129.85,8.51,8.47,8.50,8.47,-8.46,-8.61,-9.39,0.05,0.04,0.04
131.15,8.52,8.53,8.53,8.54,-8.54,-8.68,-9.38,-0.02,-0.01,-0.01
132.46,8.56,8.62,8.56,8.61,-8.61,-8.75,-9.36,-0.05,-0.05,-0.06
133.79,8.58,8.68,8.58,8.68,-8.68,-8.81,-9.34,-0.10,-0.10,-0.09
135.12,8.61,8.76,8.61,8.75,-8.75,-8.87,-9.30,-0.14,-0.14,-0.15
136.48,8.63,8.82,8.63,8.82,-8.82,-8.93,-9.26,-0.19,-0.19,-0.19
137.84,8.65,8.88,8.65,8.89,-8.89,-8.99,-9.21,-0.23,-0.23,-0.23
139.22,8.66,8.95,8.67,8.95,-8.95,-9.05,-9.16,-0.29,-0.28,-0.28
140.61,8.70,9.03,8.69,9.01,-9.01,-9.10,-9.10,-0.31,-0.32,-0.33
142.02,8.70,9.05,8.72,9.07,-9.07,-9.16,-9.04,-0.37,-0.35,-0.35
143.44,8.75,9.14,8.74,9.13,-9.13,-9.21,-8.97,-0.37,-0.39,-0.39
144.87,8.75,9.18,8.75,9.18,-9.18,-9.26,-8.91,-0.43,-0.43,-0.43
146.32,8.76,9.23,8.77,9.24,-9.24,-9.31,-8.85,-0.47,-0.46,-0.47
147.78,8.79,9.29,8.78,9.28,-9.29,-9.36,-8.78,-0.49,-0.51,-0.50
149.26,8.79,9.33,8.79,9.33,-9.33,-9.41,-8.72,-0.54,-0.54,-0.54
150.75,8.79,9.38,8.80,9.38,-9.38,-9.45,-8.66,-0.59,-0.58,-0.58
152.26,8.81,9.43,8.81,9.43,-9.42,-9.49,-8.60,-0.61,-0.61,-0.62
153.78,8.81,9.47,8.81,9.47,-9.46,-9.54,-8.54,-0.65,-0.65,-0.65
155.32,8.81,9.51,8.81,9.50,-9.50,-9.58,-8.49,-0.69,-0.69,-0.70
156.88,8.79,9.53,8.80,9.53,-9.54,-9.62,-8.44,-0.75,-0.74,-0.73
158.44,8.79,9.57,8.79,9.57,-9.58,-9.66,-8.40,-0.79,-0.78,-0.78
160.03,8.79,9.61,8.79,9.61,-9.61,-9.69,-8.35,-0.82,-0.82,-0.82
161.63,8.79,9.65,8.79,9.65,-9.65,-9.73,-8.32,-0.86,-0.86,-0.86
163.24,8.79,9.69,8.79,9.69,-9.68,-9.77,-8.28,-0.89,-0.89,-0.90
164.88,8.79,9.72,8.79,9.73,-9.72,-9.80,-8.26,-0.93,-0.93,-0.93
166.53,8.79,9.76,8.79,9.76,-9.76,-9.84,-8.24,-0.97,-0.97,-0.97
168.19,8.79,9.80,8.79,9.80,-9.80,-9.87,-8.23,-1.01,-1.01,-1.01
169.87,8.79,9.84,8.79,9.84,-9.85,-9.90,-8.21,-1.05,-1.06,-1.05
171.57,8.79,9.88,8.80,9.88,-9.89,-9.93,-8.21,-1.10,-1.09,-1.08
173.29,8.80,9.92,8.81,9.93,-9.94,-9.97,-8.21,-1.13,-1.13,-1.12
175.02,8.83,9.99,8.83,9.98,-9.98,-10.00,-8.22,-1.15,-1.16,-1.15
176.77,8.84,10.04,8.84,10.04,-10.03,-10.03,-8.23,-1.18,-1.19,-1.20
178.54,8.84,10.09,8.84,10.08,-10.07,-10.06,-8.26,-1.23,-1.23,-1.24
180.32,8.84,10.12,8.84,10.12,-10.12,-10.09,-8.28,-1.27,-1.27,-1.28
182.13,8.84,10.15,8.84,10.15,-10.16,-10.12,-8.32,-1.31,-1.31,-1.31
183.95,8.84,10.19,8.84,10.19,-10.20,-10.15,-8.35,-1.35,-1.35,-1.35
185.79,8.84,10.22,8.84,10.23,-10.23,-10.18,-8.40,-1.39,-1.39,-1.38
187.65,8.84,10.27,8.84,10.26,-10.27,-10.21,-8.45,-1.42,-1.42,-1.42
189.52,8.84,10.30,8.84,10.29,-10.30,-10.23,-8.51,-1.46,-1.46,-1.45
191.42,8.84,10.32,8.84,10.33,-10.33,-10.26,-8.57,-1.48,-1.48,-1.48
193.33,8.84,10.35,8.85,10.36,-10.35,-10.29,-8.64,-1.51,-1.51,-1.51
195.27,8.84,10.38,8.84,10.38,-10.38,-10.31,-8.71,-1.54,-1.54,-1.54
197.22,8.84,10.41,8.83,10.40,-10.40,-10.33,-8.79,-1.56,-1.57,-1.57
199.19,8.79,10.40,8.81,10.41,-10.41,-10.35,-8.87,-1.62,-1.60,-1.60
201.18,8.79,10.41,8.80,10.42,-10.42,-10.37,-8.95,-1.63,-1.62,-1.62
203.19,8.79,10.43,8.78,10.42,-10.42,-10.38,-9.04,-1.63,-1.64,-1.64
205.23,8.75,10.42,8.76,10.41,-10.41,-10.39,-9.14,-1.66,-1.65,-1.66
207.28,8.72,10.39,8.72,10.40,-10.40,-10.39,-9.24,-1.67,-1.67,-1.67
209.35,8.68,10.37,8.68,10.37,-10.37,-10.38,-9.34,-1.69,-1.70,-1.69
211.44,8.63,10.35,8.64,10.35,-10.34,-10.37,-9.44,-1.71,-1.71,-1.72
213.56,8.58,10.30,8.59,10.31,-10.31,-10.34,-9.54,-1.72,-1.72,-1.72
215.69,8.54,10.27,8.53,10.26,-10.26,-10.31,-9.64,-1.71,-1.73,-1.72
217.85,8.46,10.20,8.46,10.20,-10.20,-10.26,-9.74,-1.74,-1.73,-1.74
220.03,8.38,10.13,8.39,10.14,-10.13,-10.21,-9.84,-1.75,-1.74,-1.75
222.23,8.31,10.07,8.31,10.06,-10.06,-10.14,-9.93,-1.75,-1.75,-1.76
224.45,8.22,9.97,8.23,9.98,-9.98,-10.06,-10.02,-1.76,-1.75,-1.75
226.70,8.14,9.90,8.14,9.89,-9.89,-9.97,-10.10,-1.75,-1.75,-1.75
228.96,8.05,9.81,8.05,9.80,-9.80,-9.88,-10.17,-1.75,-1.75,-1.75
231.25,7.94,9.69,7.96,9.70,-9.71,-9.78,-10.23,-1.76,-1.75,-1.74
233.57,7.86,9.61,7.86,9.60,-9.61,-9.67,-10.29,-1.75,-1.75,-1.74
235.90,7.77,9.52,7.77,9.51,-9.51,-9.55,-10.32,-1.74,-1.75,-1.74
238.26,7.66,9.41,7.68,9.42,-9.42,-9.43,-10.35,-1.75,-1.74,-1.74
240.64,7.59,9.32,7.58,9.32,-9.32,-9.31,-10.35,-1.73,-1.74,-1.73
243.05,7.49,9.21,7.50,9.22,-9.22,-9.18,-10.34,-1.73,-1.73,-1.72
245.48,7.40,9.11,7.41,9.12,-9.12,-9.05,-10.31,-1.72,-1.72,-1.71
247.93,7.32,9.02,7.31,9.02,-9.02,-8.91,-10.26,-1.70,-1.71,-1.70
250.41,7.21,8.91,7.22,8.91,-8.91,-8.78,-10.18,-1.70,-1.69,-1.70
252.92,7.13,8.81,7.13,8.80,-8.79,-8.64,-10.10,-1.66,-1.67,-1.67
255.45,7.02,8.67,7.02,8.67,-8.66,-8.50,-9.98,-1.64,-1.64,-1.65
258.00,6.89,8.53,6.90,8.54,-8.53,-8.36,-9.85,-1.63,-1.62,-1.64
260.58,6.77,8.40,6.76,8.38,-8.38,-8.21,-9.70,-1.60,-1.61,-1.62
263.19,6.61,8.21,6.61,8.22,-8.22,-8.07,-9.53,-1.60,-1.60,-1.60
265.82,6.45,8.04,6.46,8.04,-8.05,-7.92,-9.34,-1.59,-1.59,-1.59
268.48,6.29,7.86,6.29,7.86,-7.86,-7.77,-9.14,-1.57,-1.57,-1.56
271.16,6.13,7.67,6.13,7.67,-7.68,-7.62,-8.92,-1.54,-1.55,-1.54
273.87,5.96,7.49,5.96,7.48,-7.48,-7.47,-8.70,-1.52,-1.52,-1.52
276.61,5.77,7.27,5.78,7.28,-7.27,-7.31,-8.46,-1.50,-1.50,-1.50
279.38,5.59,7.08,5.58,7.07,-7.06,-7.16,-8.21,-1.47,-1.48,-1.49
282.17,5.38,6.85,5.39,6.86,-6.85,-7.00,-7.95,-1.46,-1.46,-1.47
284.99,5.19,6.64,5.19,6.63,-6.63,-6.83,-7.69,-1.44,-1.44,-1.45
287.84,4.99,6.42,4.98,6.41,-6.41,-6.67,-7.42,-1.42,-1.43,-1.43
290.72,4.77,6.18,4.79,6.20,-6.20,-6.50,-7.15,-1.43,-1.41,-1.40
293.63,4.61,6.00,4.60,5.99,-6.00,-6.33,-6.87,-1.38,-1.40,-1.39
296.57,4.42,5.79,4.42,5.79,-5.80,-6.15,-6.59,-1.38,-1.38,-1.36
299.53,4.26,5.61,4.26,5.61,-5.63,-5.98,-6.31,-1.37,-1.36,-1.35
302.53,4.12,5.45,4.12,5.45,-5.47,-5.80,-6.03,-1.35,-1.35,-1.33
305.55,3.99,5.29,4.00,5.30,-5.32,-5.61,-5.75,-1.33,-1.32,-1.30
308.61,3.91,5.19,3.90,5.18,-5.19,-5.43,-5.46,-1.28,-1.29,-1.28
311.69,3.80,5.05,3.82,5.06,-5.07,-5.24,-5.18,-1.26,-1.25,-1.25
314.81,3.74,4.96,3.73,4.95,-4.94,-5.05,-4.90,-1.20,-1.22,-1.22
317.96,3.63,4.83,3.64,4.84,-4.82,-4.86,-4.62,-1.19,-1.18,-1.20
321.14,3.52,4.70,3.53,4.71,-4.68,-4.67,-4.34,-1.16,-1.16,-1.18
324.35,3.41,4.58,3.39,4.56,-4.54,-4.47,-4.06,-1.13,-1.15,-1.17
327.59,3.23,4.37,3.25,4.39,-4.38,-4.27,-3.79,-1.15,-1.13,-1.14
330.87,3.09,4.21,3.09,4.21,-4.21,-4.08,-3.51,-1.11,-1.12,-1.12
334.18,2.92,4.03,2.91,4.02,-4.02,-3.88,-3.24,-1.10,-1.10,-1.10
337.52,2.72,3.81,2.73,3.82,-3.82,-3.68,-2.96,-1.10,-1.08,-1.09
340.90,2.55,3.61,2.54,3.60,-3.61,-3.48,-2.69,-1.06,-1.07,-1.06
344.30,2.33,3.37,2.34,3.38,-3.39,-3.28,-2.42,-1.06,-1.05,-1.04
347.75,2.14,3.17,2.15,3.17,-3.17,-3.08,-2.15,-1.02,-1.02,-1.02
351.23,1.94,2.95,1.94,2.94,-2.94,-2.87,-1.89,-0.99,-1.00,-1.01
354.74,1.73,2.72,1.72,2.71,-2.71,-2.67,-1.62,-0.97,-0.98,-0.99
358.28,1.49,2.46,1.50,2.47,-2.47,-2.47,-1.35,-0.98,-0.97,-0.97
361.87,1.27,2.22,1.27,2.23,-2.24,-2.26,-1.09,-0.97,-0.96,-0.95
365.49,1.05,1.99,1.05,1.99,-2.00,-2.06,-0.82,-0.95,-0.95,-0.93
369.14,0.83,1.76,0.84,1.76,-1.76,-1.85,-0.56,-0.93,-0.93,-0.93
372.83,0.62,1.53,0.62,1.53,-1.53,-1.64,-0.30,-0.90,-0.90,-0.91
376.56,0.40,1.30,0.40,1.30,-1.29,-1.42,-0.04,-0.88,-0.88,-0.90
380.33,0.18,1.05,0.18,1.05,-1.05,-1.20,0.22,-0.87,-0.87,-0.87
384.13,-0.06,0.81,-0.06,0.81,-0.81,-0.98,0.48,-0.87,-0.87,-0.86
387.97,-0.30,0.56,-0.29,0.56,-0.57,-0.76,0.74,-0.87,-0.86,-0.85
391.85,-0.52,0.33,-0.52,0.32,-0.32,-0.53,1.00,-0.84,-0.85,-0.85
395.77,-0.76,0.07,-0.75,0.08,-0.08,-0.29,1.26,-0.83,-0.83,-0.83
399.73,-0.98,-0.16,-0.99,-0.17,0.17,-0.05,1.52,-0.80,-0.81,-0.82
403.72,-1.24,-0.43,-1.23,-0.42,0.42,0.19,1.77,-0.81,-0.81,-0.81
407.76,-1.46,-0.66,-1.47,-0.67,0.67,0.44,2.02,-0.78,-0.79,-0.80
411.84,-1.72,-0.93,-1.71,-0.92,0.92,0.69,2.27,-0.80,-0.79,-0.78
415.96,-1.94,-1.16,-1.95,-1.17,1.17,0.95,2.52,-0.77,-0.78,-0.77
420.12,-2.20,-1.43,-2.19,-1.42,1.42,1.21,2.77,-0.78,-0.77,-0.77
424.32,-2.42,-1.66,-2.42,-1.67,1.66,1.48,3.01,-0.76,-0.76,-0.76
428.56,-2.66,-1.91,-2.66,-1.91,1.90,1.75,3.25,-0.76,-0.76,-0.75
432.85,-2.88,-2.14,-2.88,-2.14,2.14,2.03,3.48,-0.74,-0.74,-0.74
437.18,-3.10,-2.37,-3.10,-2.37,2.37,2.31,3.71,-0.73,-0.73,-0.73
441.55,-3.31,-2.60,-3.31,-2.60,2.60,2.60,3.93,-0.71,-0.71,-0.71
445.96,-3.53,-2.83,-3.53,-2.83,2.83,2.88,4.14,-0.70,-0.70,-0.70
450.42,-3.75,-3.06,-3.75,-3.06,3.06,3.17,4.35,-0.69,-0.69,-0.69
454.93,-3.97,-3.29,-3.96,-3.29,3.29,3.46,4.55,-0.68,-0.67,-0.67
459.48,-4.18,-3.51,-4.18,-3.52,3.53,3.75,4.73,-0.65,-0.66,-0.66
464.07,-4.40,-3.75,-4.40,-3.75,3.76,4.04,4.91,-0.64,-0.64,-0.65
468.71,-4.62,-3.99,-4.62,-3.99,4.00,4.32,5.07,-0.62,-0.62,-0.63
473.40,-4.84,-4.22,-4.85,-4.23,4.23,4.60,5.22,-0.61,-0.62,-0.62
478.13,-5.08,-4.48,-5.07,-4.47,4.46,4.87,5.36,-0.61,-0.61,-0.60
482.91,-5.29,-4.70,-5.28,-4.70,4.70,5.14,5.48,-0.59,-0.58,-0.59
487.74,-5.49,-4.92,-5.49,-4.92,4.94,5.39,5.59,-0.55,-0.55,-0.57
492.62,-5.68,-5.13,-5.69,-5.14,5.17,5.64,5.68,-0.51,-0.52,-0.55
497.55,-5.90,-5.36,-5.89,-5.35,5.38,5.86,5.75,-0.52,-0.51,-0.54
502.52,-6.08,-5.56,-6.08,-5.55,5.56,6.07,5.81,-0.52,-0.52,-0.52
