frequency,raw
20.00,-17.59
20.20,-17.55
20.40,-17.50
20.61,-17.46
20.81,-17.40
21.02,-17.35
21.23,-17.28
21.44,-17.22
21.66,-17.15
21.87,-17.07
22.09,-17.00
22.31,-16.91
22.54,-16.82
22.76,-16.73
22.99,-16.63
23.22,-16.52
23.45,-16.43
23.69,-16.32
23.92,-16.19
24.16,-16.07
24.40,-15.96
24.65,-15.85
24.89,-15.72
25.14,-15.58
25.39,-15.45
25.65,-15.31
25.91,-15.17
26.16,-15.04
26.43,-14.90
26.69,-14.77
26.96,-14.64
27.23,-14.53
27.50,-14.40
27.77,-14.27
28.05,-14.14
28.33,-14.01
28.62,-13.87
28.90,-13.74
29.19,-13.60
29.48,-13.47
29.78,-13.35
30.08,-13.22
30.38,-13.10
30.68,-12.98
30.99,-12.85
31.30,-12.73
31.61,-12.60
31.93,-12.47
32.24,-12.36
32.57,-12.24
32.89,-12.12
33.22,-12.02
33.55,-11.91
33.89,-11.79
34.23,-11.68
34.57,-11.56
34.92,-11.45
35.27,-11.34
35.62,-11.23
35.97,-11.11
36.33,-11.00
36.70,-10.90
37.06,-10.79
37.43,-10.68
37.81,-10.58
38.19,-10.47
38.57,-10.35
38.95,-10.23
39.34,-10.11
39.74,-9.99
40.14,-9.88
40.54,-9.74
40.94,-9.60
41.35,-9.46
41.76,-9.31
42.18,-9.16
42.60,-9.01
43.03,-8.85
43.46,-8.70
43.90,-8.55
44.33,-8.39
44.78,-8.26
45.23,-8.12
45.68,-7.98
46.13,-7.84
46.60,-7.72
47.06,-7.60
47.53,-7.47
48.01,-7.36
48.49,-7.26
48.97,-7.17
49.46,-7.07
49.96,-6.96
50.46,-6.86
50.96,-6.77
51.47,-6.69
51.99,-6.60
52.51,-6.52
53.03,-6.44
53.56,-6.37
54.10,-6.31
54.64,-6.24
55.18,-6.17
55.74,-6.10
56.29,-6.04
56.86,-5.97
57.42,-5.92
58.00,-5.86
58.58,-5.79
59.16,-5.72
59.76,-5.66
60.35,-5.60
60.96,-5.54
61.57,-5.47
62.18,-5.42
62.80,-5.37
63.43,-5.33
64.07,-5.29
64.71,-5.26
65.35,-5.23
66.01,-5.21
66.67,-5.20
67.33,-5.19
68.01,-5.18
68.69,-5.17
69.37,-5.17
70.07,-5.17
70.77,-5.17
71.48,-5.17
72.19,-5.17
72.91,-5.18
73.64,-5.20
74.38,-5.21
75.12,-5.24
75.87,-5.26
76.63,-5.29
77.40,-5.32
78.17,-5.35
78.95,-5.39
79.74,-5.42
80.54,-5.45
81.35,-5.47
82.16,-5.50
82.98,-5.52
83.81,-5.53
84.65,-5.54
85.50,-5.54
86.35,-5.54
87.22,-5.53
88.09,-5.52
88.97,-5.52
89.86,-5.51
90.76,-5.50
91.66,-5.50
92.58,-5.50
93.51,-5.51
94.44,-5.53
95.39,-5.55
96.34,-5.57
97.30,-5.60
98.28,-5.63
99.26,-5.66
100.25,-5.69
101.25,-5.72
102.27,-5.73
103.29,-5.76
104.32,-5.79
105.37,-5.82
106.42,-5.85
107.48,-5.88
108.56,-5.90
109.64,-5.92
110.74,-5.94
111.85,-5.97
112.97,-6.00
114.10,-6.04
115.24,-6.09
116.39,-6.14
117.55,-6.19
118.73,-6.25
119.92,-6.31
121.12,-6.37
122.33,-6.42
123.55,-6.48
124.79,-6.53
126.03,-6.58
127.29,-6.64
128.57,-6.71
129.85,-6.78
131.15,-6.84
132.46,-6.89
133.79,-6.94
135.12,-6.98
136.48,-7.02
137.84,-7.06
139.22,-7.10
140.61,-7.12
142.02,-7.13
143.44,-7.14
144.87,-7.15
146.32,-7.16
147.78,-7.15
149.26,-7.14
150.75,-7.13
152.26,-7.13
153.78,-7.14
155.32,-7.16
156.88,-7.18
158.44,-7.20
160.03,-7.23
161.63,-7.26
163.24,-7.28
164.88,-7.30
166.53,-7.33
168.19,-7.36
169.87,-7.40
171.57,-7.43
173.29,-7.46
175.02,-7.50
176.77,-7.54
178.54,-7.57
180.32,-7.61
182.13,-7.66
183.95,-7.71
185.79,-7.77
187.65,-7.83
189.52,-7.91
191.42,-7.99
193.33,-8.08
195.27,-8.17
197.22,-8.26
199.19,-8.35
201.18,-8.45
203.19,-8.55
205.23,-8.65
207.28,-8.76
209.35,-8.86
211.44,-8.94
213.56,-9.02
215.69,-9.11
217.85,-9.19
220.03,-9.27
222.23,-9.35
224.45,-9.43
226.70,-9.50
228.96,-9.54
231.25,-9.58
233.57,-9.60
235.90,-9.61
238.26,-9.63
240.64,-9.63
243.05,-9.62
245.48,-9.60
247.93,-9.57
250.41,-9.54
252.92,-9.51
255.45,-9.47
258.00,-9.41
260.58,-9.34
263.19,-9.28
265.82,-9.22
268.48,-9.16
271.16,-9.11
273.87,-9.07
276.61,-9.03
279.38,-8.98
282.17,-8.93
284.99,-8.87
287.84,-8.82
290.72,-8.77
293.63,-8.73
296.57,-8.70
299.53,-8.66
302.53,-8.62
305.55,-8.58
308.61,-8.54
311.69,-8.50
314.81,-8.46
317.96,-8.41
321.14,-8.36
324.35,-8.32
327.59,-8.29
330.87,-8.26
334.18,-8.23
337.52,-8.20
340.90,-8.18
344.30,-8.14
347.75,-8.09
351.23,-8.05
354.74,-8.02
358.28,-7.99
361.87,-7.97
365.49,-7.95
369.14,-7.92
372.83,-7.88
376.56,-7.83
380.33,-7.80
384.13,-7.76
387.97,-7.72
391.85,-7.67
395.77,-7.62
399.73,-7.58
403.72,-7.55
407.76,-7.51
411.84,-7.46
415.96,-7.40
420.12,-7.35
424.32,-7.30
428.56,-7.24
432.85,-7.18
437.18,-7.12
441.55,-7.06
445.96,-7.00
450.42,-6.94
454.93,-6.86
459.48,-6.78
464.07,-6.71
468.71,-6.65
473.40,-6.60
478.13,-6.53
482.91,-6.45
487.74,-6.38
492.62,-6.32
497.55,-6.27
502.52,-6.22
507.55,-6.15
512.62,-6.09
517.75,-6.03
522.93,-5.98
528.16,-5.92
533.44,-5.85
538.77,-5.78
544.16,-5.73
549.60,-5.67
555.10,-5.61
560.65,-5.55
566.25,-5.49
571.92,-5.42
577.64,-5.35
583.41,-5.28
589.25,-5.21
595.14,-5.13
601.09,-5.06
607.10,-4.98
613.17,-4.91
619.30,-4.83
625.50,-4.74
631.75,-4.64
638.07,-4.55
644.45,-4.46
650.89,-4.36
657.40,-4.25
663.98,-4.15
670.62,-4.04
677.32,-3.94
684.10,-3.83
690.94,-3.72
697.85,-3.62
704.83,-3.50
711.87,-3.38
718.99,-3.27
726.18,-3.17
733.44,-3.06
740.78,-2.95
748.19,-2.86
755.67,-2.76
763.23,-2.66
770.86,-2.57
778.57,-2.47
786.35,-2.36
794.22,-2.27
802.16,-2.17
810.18,-2.06
818.28,-1.95
826.46,-1.84
834.73,-1.73
843.08,-1.62
851.51,-1.51
860.02,-1.41
868.62,-1.30
877.31,-1.20
886.08,-1.10
894.94,-0.99
903.89,-0.89
912.93,-0.79
922.06,-0.69
931.28,-0.60
940.59,-0.51
950.00,-0.41
959.50,-0.33
969.09,-0.24
978.78,-0.17
988.57,-0.09
998.46,-0.01
1008.44,0.06
1018.53,0.14
1028.71,0.21
1039.00,0.27
1049.39,0.33
1059.88,0.38
1070.48,0.43
1081.19,0.48
1092.00,0.51
1102.92,0.55
1113.95,0.59
1125.09,0.61
1136.34,0.63
1147.70,0.64
1159.18,0.65
1170.77,0.67
1182.48,0.68
1194.30,0.69
1206.25,0.67
1218.31,0.66
1230.49,0.64
1242.80,0.62
1255.22,0.61
1267.78,0.59
1280.45,0.57
1293.26,0.53
1306.19,0.49
1319.25,0.44
1332.45,0.41
1345.77,0.36
1359.23,0.31
1372.82,0.26
1386.55,0.20
1400.41,0.14
1414.42,0.09
1428.56,0.02
1442.85,-0.04
1457.28,-0.11
1471.85,-0.18
1486.57,-0.27
1501.43,-0.37
1516.45,-0.48
1531.61,-0.60
1546.93,-0.71
1562.40,-0.83
1578.02,-0.96
1593.80,-1.11
1609.74,-1.27
1625.84,-1.43
1642.10,-1.58
1658.52,-1.74
1675.10,-1.91
1691.85,-2.08
1708.77,-2.24
1725.86,-2.41
1743.12,-2.57
1760.55,-2.74
1778.15,-2.90
1795.94,-3.06
1813.90,-3.21
1832.03,-3.37
1850.36,-3.53
1868.86,-3.68
1887.55,-3.84
1906.42,-3.99
1925.49,-4.13
1944.74,-4.27
1964.19,-4.42
1983.83,-4.57
2003.67,-4.72
2023.71,-4.86
2043.94,-5.01
2064.38,-5.15
2085.03,-5.29
2105.88,-5.42
2126.94,-5.55
2148.20,-5.67
2169.69,-5.79
2191.38,-5.91
2213.30,-6.02
2235.43,-6.11
2257.78,-6.22
2280.36,-6.31
2303.17,-6.39
2326.20,-6.48
2349.46,-6.58
2372.95,-6.67
2396.68,-6.75
2420.65,-6.83
2444.86,-6.92
2469.31,-7.00
2494.00,-7.09
2518.94,-7.18
2544.13,-7.26
2569.57,-7.33
2595.27,-7.41
2621.22,-7.49
2647.43,-7.55
2673.90,-7.63
2700.64,-7.70
2727.65,-7.77
2754.93,-7.82
2782.48,-7.87
2810.30,-7.92
2838.40,-7.96
2866.79,-8.00
2895.46,-8.04
2924.41,-8.07
2953.65,-8.08
2983.19,-8.09
3013.02,-8.09
3043.15,-8.10
3073.58,-8.12
3104.32,-8.12
3135.36,-8.13
3166.72,-8.14
3198.38,-8.16
3230.37,-8.19
3262.67,-8.23
3295.30,-8.27
3328.25,-8.32
3361.53,-8.38
3395.15,-8.45
3429.10,-8.54
3463.39,-8.63
3498.03,-8.73
3533.01,-8.84
3568.34,-8.97
3604.02,-9.10
3640.06,-9.24
3676.46,-9.39
3713.22,-9.57
3750.36,-9.78
3787.86,-10.00
3825.74,-10.24
3864.00,-10.49
3902.64,-10.77
3941.66,-11.07
3981.08,-11.39
4020.89,-11.73
4061.10,-12.08
4101.71,-12.46
4142.73,-12.86
4184.15,-13.28
4226.00,-13.71
4268.26,-14.14
4310.94,-14.57
4354.05,-15.00
4397.59,-15.42
4441.56,-15.83
4485.98,-16.23
4530.84,-16.62
4576.15,-17.00
4621.91,-17.35
4668.13,-17.68
4714.81,-17.98
4761.96,-18.25
4809.58,-18.49
4857.67,-18.69
4906.25,-18.86
4955.31,-18.98
5004.87,-19.07
5054.91,-19.11
5105.46,-19.11
5156.52,-19.06
5208.08,-18.97
5260.16,-18.84
5312.77,-18.67
5365.89,-18.48
5419.55,-18.26
5473.75,-18.02
5528.49,-17.78
5583.77,-17.56
5639.61,-17.33
5696.00,-17.11
5752.96,-16.89
5810.49,-16.70
5868.60,-16.54
5927.28,-16.39
5986.56,-16.26
6046.42,-16.16
6106.89,-16.08
6167.96,-16.01
6229.64,-15.96
6291.93,-15.92
6354.85,-15.91
6418.40,-15.92
6482.58,-15.95
6547.41,-16.00
6612.88,-16.08
6679.01,-16.18
6745.80,-16.29
6813.26,-16.40
6881.39,-16.53
6950.21,-16.65
7019.71,-16.76
7089.91,-16.86
7160.81,-16.94
7232.41,-17.02
7304.74,-17.08
7377.79,-17.13
7451.56,-17.16
7526.08,-17.18
7601.34,-17.20
7677.35,-17.22
7754.13,-17.24
7831.67,-17.29
7909.98,-17.35
7989.08,-17.45
8068.98,-17.59
8149.67,-17.77
8231.16,-18.00
8313.47,-18.30
8396.61,-18.65
8480.57,-19.05
8565.38,-19.50
8651.03,-20.00
8737.54,-20.53
8824.92,-21.06
8913.17,-21.60
9002.30,-22.14
9092.32,-22.65
9183.25,-23.12
9275.08,-23.56
9367.83,-23.97
9461.51,-24.33
9556.12,-24.65
9651.68,-24.91
9748.20,-25.12
9845.68,-25.29
9944.14,-25.43
10043.58,-25.55
10144.02,-25.66
10245.46,-25.79
10347.91,-25.95
10451.39,-26.13
10555.91,-26.34
10661.46,-26.58
10768.08,-26.84
10875.76,-27.09
10984.52,-27.32
11094.36,-27.52
11205.31,-27.67
11317.36,-27.75
11430.53,-27.78
11544.84,-27.74
11660.29,-27.63
11776.89,-27.46
11894.66,-27.21
12013.60,-26.91
12133.74,-26.55
12255.08,-26.15
12377.63,-25.72
12501.41,-25.28
12626.42,-24.85
12752.68,-24.44
12880.21,-24.06
13009.01,-23.72
13139.10,-23.42
13270.49,-23.16
13403.20,-22.93
13537.23,-22.72
13672.60,-22.55
13809.33,-22.39
13947.42,-22.25
14086.90,-22.15
14227.77,-22.08
14370.04,-22.05
14513.74,-22.07
14658.88,-22.14
14805.47,-22.27
14953.52,-22.45
15103.06,-22.68
15254.09,-22.97
15406.63,-23.29
15560.70,-23.65
15716.30,-24.04
15873.47,-24.43
16032.20,-24.80
16192.52,-25.13
16354.45,-25.42
16517.99,-25.66
16683.17,-25.82
16850.01,-25.92
17018.51,-25.95
17188.69,-25.91
17360.58,-25.79
17534.18,-25.61
17709.53,-25.38
17886.62,-25.11
18065.49,-24.88
18246.14,-24.61
18428.60,-24.31
18612.89,-23.98
18799.02,-23.61
18987.01,-23.21
19176.88,-22.78
19368.65,-22.31
19562.33,-21.81
19757.96,-21.27
19955.54,-20.70
