frequency,raw
20.00,1.89
20.20,1.89
20.40,1.98
20.61,2.05
20.81,2.13
21.02,2.18
21.23,2.22
21.44,2.29
21.66,2.35
21.87,2.44
22.09,2.50
22.31,2.53
22.54,2.61
22.76,2.69
22.99,2.74
23.22,2.75
23.45,2.78
23.69,2.88
23.92,2.95
24.16,3.06
24.40,3.12
24.65,3.21
24.89,3.27
25.14,3.33
25.39,3.40
25.65,3.48
25.91,3.53
26.16,3.59
26.43,3.64
26.69,3.66
26.96,3.71
27.23,3.78
27.50,3.85
27.77,3.87
28.05,3.92
28.33,3.94
28.62,3.99
28.90,4.04
29.19,4.06
29.48,4.08
29.78,4.13
30.08,4.17
30.38,4.20
30.68,4.20
30.99,4.21
31.30,4.25
31.61,4.30
31.93,4.36
32.24,4.39
32.57,4.42
32.89,4.49
33.22,4.55
33.55,4.62
33.89,4.65
34.23,4.69
34.57,4.71
34.92,4.72
35.27,4.76
35.62,4.81
35.97,4.86
36.33,4.92
36.70,4.95
37.06,4.95
37.43,4.99
37.81,4.99
38.19,4.99
38.57,4.99
38.95,4.99
39.34,4.99
39.74,5.02
40.14,5.07
40.54,5.09
40.94,5.11
41.35,5.16
41.76,5.22
42.18,5.23
42.60,5.23
43.03,5.19
43.46,5.18
43.90,5.18
44.33,5.18
44.78,5.20
45.23,5.28
45.68,5.36
46.13,5.43
46.60,5.49
47.06,5.54
47.53,5.55
48.01,5.60
48.49,5.61
48.97,5.64
49.46,5.67
49.96,5.72
50.46,5.74
50.96,5.76
51.47,5.73
51.99,5.70
52.51,5.69
53.03,5.69
53.56,5.69
54.10,5.69
54.64,5.69
55.18,5.69
55.74,5.69
56.29,5.69
56.86,5.71
57.42,5.76
58.00,5.82
58.58,5.83
59.16,5.83
59.76,5.83
60.35,5.83
60.96,5.79
61.57,5.79
62.18,5.79
62.80,5.79
63.43,5.82
64.07,5.85
64.71,5.88
65.35,5.88
66.01,5.88
66.67,5.88
67.33,5.84
68.01,5.83
68.69,5.83
69.37,5.85
70.07,5.90
70.77,5.93
71.48,5.93
72.19,5.93
72.91,5.93
73.64,5.93
74.38,5.93
75.12,5.90
75.87,5.84
76.63,5.83
77.40,5.87
78.17,5.90
78.95,5.86
79.74,5.83
80.54,5.86
81.35,5.90
82.16,5.96
82.98,6.01
83.81,6.02
84.65,6.02
85.50,6.00
86.35,5.97
87.22,5.92
88.09,5.89
88.97,5.83
89.86,5.83
90.76,5.83
91.66,5.83
92.58,5.83
93.51,5.83
94.44,5.86
95.39,5.88
96.34,5.88
97.30,5.88
98.28,5.88
99.26,5.86
100.25,5.81
101.25,5.75
102.27,5.76
103.29,5.81
104.32,5.87
105.37,5.88
106.42,5.88
107.48,5.85
108.56,5.83
109.64,5.81
110.74,5.76
111.85,5.76
112.97,5.79
114.10,5.73
115.24,5.68
116.39,5.62
117.55,5.66
118.73,5.69
119.92,5.69
121.12,5.69
122.33,5.69
123.55,5.67
124.79,5.64
126.03,5.58
127.29,5.55
128.57,5.53
129.85,5.47
131.15,5.46
132.46,5.46
133.79,5.42
135.12,5.42
136.48,5.44
137.84,5.46
139.22,5.49
140.61,5.51
142.02,5.46
143.44,5.43
144.87,5.35
146.32,5.28
147.78,5.22
149.26,5.18
150.75,5.18
152.26,5.15
153.78,5.10
155.32,5.09
156.88,5.11
158.44,5.14
160.03,5.18
161.63,5.15
163.24,5.07
164.88,5.02
166.53,4.99
168.19,4.98
169.87,4.95
171.57,4.95
173.29,4.91
175.02,4.88
176.77,4.85
178.54,4.81
180.32,4.81
182.13,4.78
183.95,4.78
185.79,4.76
187.65,4.76
189.52,4.70
191.42,4.67
193.33,4.60
195.27,4.59
197.22,4.64
199.19,4.67
201.18,4.66
203.19,4.60
205.23,4.55
207.28,4.50
209.35,4.44
211.44,4.38
213.56,4.31
215.69,4.29
217.85,4.29
220.03,4.29
222.23,4.25
224.45,4.22
226.70,4.19
228.96,4.16
231.25,4.13
233.57,4.09
235.90,4.02
238.26,3.96
240.64,3.90
243.05,3.87
245.48,3.87
247.93,3.80
250.41,3.76
252.92,3.71
255.45,3.67
258.00,3.64
260.58,3.64
263.19,3.63
265.82,3.57
268.48,3.52
271.16,3.48
273.87,3.43
276.61,3.40
279.38,3.37
282.17,3.34
284.99,3.29
287.84,3.24
290.72,3.18
293.63,3.17
296.57,3.10
299.53,3.02
302.53,2.99
305.55,2.99
308.61,2.99
311.69,2.98
314.81,2.91
317.96,2.85
321.14,2.75
324.35,2.68
327.59,2.64
330.87,2.61
334.18,2.57
337.52,2.57
340.90,2.52
344.30,2.48
347.75,2.47
351.23,2.42
354.74,2.35
358.28,2.29
361.87,2.20
365.49,2.20
369.14,2.20
372.83,2.14
376.56,2.09
380.33,2.01
384.13,1.92
387.97,1.85
391.85,1.82
395.77,1.81
399.73,1.78
403.72,1.73
407.76,1.70
411.84,1.64
415.96,1.57
420.12,1.53
424.32,1.48
428.56,1.43
432.85,1.40
437.18,1.36
441.55,1.33
445.96,1.25
450.42,1.20
454.93,1.15
459.48,1.09
464.07,1.06
468.71,1.01
473.40,0.95
478.13,0.94
482.91,0.91
487.74,0.86
492.62,0.80
497.55,0.77
502.52,0.69
507.55,0.62
512.62,0.56
517.75,0.56
522.93,0.55
528.16,0.49
533.44,0.41
538.77,0.35
544.16,0.33
549.60,0.32
555.10,0.29
560.65,0.26
566.25,0.19
571.92,0.13
577.64,0.10
583.41,0.06
589.25,0.03
595.14,-0.04
601.09,-0.07
607.10,-0.11
613.17,-0.16
619.30,-0.22
625.50,-0.23
631.75,-0.23
638.07,-0.26
644.45,-0.31
650.89,-0.35
657.40,-0.39
663.98,-0.42
670.62,-0.44
677.32,-0.49
684.10,-0.51
690.94,-0.54
697.85,-0.58
704.83,-0.60
711.87,-0.60
718.99,-0.60
726.18,-0.65
733.44,-0.68
740.78,-0.70
748.19,-0.70
755.67,-0.70
763.23,-0.74
770.86,-0.79
778.57,-0.79
786.35,-0.79
794.22,-0.79
802.16,-0.84
810.18,-0.84
818.28,-0.82
826.46,-0.82
834.73,-0.84
843.08,-0.82
851.51,-0.79
860.02,-0.76
868.62,-0.71
877.31,-0.70
886.08,-0.71
894.94,-0.68
903.89,-0.65
912.93,-0.60
922.06,-0.60
931.28,-0.57
940.59,-0.49
950.00,-0.42
959.50,-0.34
969.09,-0.23
978.78,-0.17
988.57,-0.09
998.46,-0.01
1008.44,0.05
1018.53,0.17
1028.71,0.27
1039.00,0.37
1049.39,0.51
1059.88,0.65
1070.48,0.81
1081.19,0.98
1092.00,1.18
1102.92,1.33
1113.95,1.51
1125.09,1.60
1136.34,1.76
1147.70,1.88
1159.18,2.02
1170.77,2.27
1182.48,2.48
1194.30,2.64
1206.25,2.95
1218.31,3.14
1230.49,3.26
1242.80,3.44
1255.22,3.59
1267.78,3.75
1280.45,3.96
1293.26,4.16
1306.19,4.42
1319.25,4.64
1332.45,4.88
1345.77,5.12
1359.23,5.34
1372.82,5.55
1386.55,5.75
1400.41,5.94
1414.42,6.08
1428.56,6.33
1442.85,6.53
1457.28,6.76
1471.85,7.13
1486.57,7.39
1501.43,7.59
1516.45,7.92
1531.61,8.18
1546.93,8.43
1562.40,8.66
1578.02,8.86
1593.80,9.11
1609.74,9.32
1625.84,9.60
1642.10,10.05
1658.52,10.28
1675.10,10.52
1691.85,10.79
1708.77,10.91
1725.86,11.01
1743.12,11.00
1760.55,10.97
1778.15,10.92
1795.94,10.86
1813.90,10.73
1832.03,10.55
1850.36,10.38
1868.86,10.22
1887.55,10.13
1906.42,10.05
1925.49,10.03
1944.74,10.03
1964.19,10.03
1983.83,10.05
2003.67,10.08
2023.71,10.12
2043.94,10.12
2064.38,10.12
2085.03,10.07
2105.88,10.02
2126.94,9.91
2148.20,9.83
2169.69,9.70
2191.38,9.52
2213.30,9.38
2235.43,9.23
2257.78,9.07
2280.36,8.93
2303.17,8.73
2326.20,8.54
2349.46,8.32
2372.95,8.14
2396.68,7.98
2420.65,7.84
2444.86,7.70
2469.31,7.60
2494.00,7.50
2518.94,7.43
2544.13,7.37
2569.57,7.33
2595.27,7.33
2621.22,7.33
2647.43,7.33
2673.90,7.38
2700.64,7.47
2727.65,7.58
2754.93,7.71
2782.48,7.84
2810.30,8.03
2838.40,8.22
2866.79,8.40
2895.46,8.59
2924.41,8.73
2953.65,8.84
2983.19,8.86
3013.02,8.73
3043.15,8.36
3073.58,7.79
3104.32,7.06
3135.36,6.12
3166.72,4.99
3198.38,4.09
3230.37,3.00
3262.67,1.68
3295.30,0.77
3328.25,-0.36
3361.53,-1.58
3395.15,-2.33
3429.10,-2.96
3463.39,-3.22
3498.03,-2.73
3533.01,-2.11
3568.34,-1.41
3604.02,-0.60
3640.06,0.14
3676.46,0.56
3713.22,1.18
3750.36,1.60
3787.86,1.81
3825.74,1.99
3864.00,1.98
3902.64,1.88
3941.66,1.68
3981.08,1.39
4020.89,1.08
4061.10,0.67
4101.71,0.18
4142.73,-0.28
4184.15,-0.88
4226.00,-1.58
4268.26,-2.32
4310.94,-3.13
4354.05,-3.95
4397.59,-4.80
4441.56,-5.63
4485.98,-6.45
4530.84,-7.34
4576.15,-8.22
4621.91,-8.89
4668.13,-9.93
4714.81,-11.06
4761.96,-11.93
4809.58,-13.28
4857.67,-14.50
4906.25,-15.48
4955.31,-16.23
5004.87,-16.76
5054.91,-17.05
5105.46,-16.56
5156.52,-15.53
5208.08,-13.71
5260.16,-11.59
5312.77,-9.46
5365.89,-6.80
5419.55,-5.02
5473.75,-3.88
5528.49,-2.83
5583.77,-2.38
5639.61,-2.22
5696.00,-2.25
5752.96,-2.39
5810.49,-2.53
5868.60,-2.77
5927.28,-3.01
5986.56,-3.25
6046.42,-3.50
6106.89,-3.74
6167.96,-3.91
6229.64,-4.04
6291.93,-4.11
6354.85,-4.17
6418.40,-4.19
6482.58,-4.18
6547.41,-4.11
6612.88,-4.01
6679.01,-3.86
6745.80,-3.73
6813.26,-3.55
6881.39,-3.41
6950.21,-3.33
7019.71,-3.27
7089.91,-3.37
7160.81,-3.54
7232.41,-3.84
7304.74,-4.24
7377.79,-4.74
7451.56,-5.29
7526.08,-5.91
7601.34,-6.51
7677.35,-7.13
7754.13,-7.69
7831.67,-8.22
7909.98,-8.74
7989.08,-9.27
8068.98,-9.69
8149.67,-10.10
8231.16,-10.79
8313.47,-11.35
8396.61,-12.00
8480.57,-12.88
8565.38,-13.70
8651.03,-14.58
8737.54,-15.54
8824.92,-16.59
8913.17,-17.54
9002.30,-18.10
9092.32,-18.74
9183.25,-18.71
9275.08,-18.68
9367.83,-17.89
9461.51,-17.03
9556.12,-15.72
9651.68,-14.14
9748.20,-12.68
9845.68,-11.41
9944.14,-10.28
10043.58,-9.26
10144.02,-8.29
10245.46,-7.46
10347.91,-6.89
10451.39,-6.38
10555.91,-6.08
10661.46,-5.93
10768.08,-5.83
10875.76,-5.83
10984.52,-5.91
11094.36,-6.04
11205.31,-6.20
11317.36,-6.33
11430.53,-6.44
11544.84,-6.43
11660.29,-6.31
11776.89,-6.14
11894.66,-5.96
12013.60,-5.77
12133.74,-5.53
12255.08,-5.29
12377.63,-5.01
12501.41,-4.74
12626.42,-4.47
12752.68,-4.28
12880.21,-4.14
13009.01,-4.22
13139.10,-4.44
13270.49,-4.84
13403.20,-5.43
13537.23,-6.21
13672.60,-7.10
13809.33,-7.93
13947.42,-8.60
14086.90,-9.07
14227.77,-8.74
14370.04,-8.14
14513.74,-7.57
14658.88,-6.47
14805.47,-5.82
14953.52,-5.41
15103.06,-4.96
15254.09,-4.81
15406.63,-4.80
15560.70,-4.78
15716.30,-4.72
15873.47,-4.83
16032.20,-5.12
16192.52,-5.64
16354.45,-6.29
16517.99,-7.05
16683.17,-7.91
16850.01,-8.96
17018.51,-9.96
17188.69,-11.06
17360.58,-12.19
17534.18,-13.20
17709.53,-14.02
17886.62,-14.57
18065.49,-14.93
18246.14,-15.06
18428.60,-15.37
18612.89,-15.84
18799.02,-16.45
18987.01,-17.38
19176.88,-17.91
19368.65,-18.42
19562.33,-19.02
19757.96,-19.62
19955.54,-20.22
