frequency,raw
20,-5.91
21,-5.69
22,-5.48
23,-5.26
24,-5.01
25,-4.74
26,-4.49
27,-4.23
28,-4.00
29,-3.79
30,-3.59
31,-3.40
32,-3.26
33,-3.13
34,-2.99
35,-2.85
36,-2.73
37,-2.61
38,-2.49
39,-2.39
40,-2.30
41,-2.22
42,-2.12
43,-2.03
44,-1.96
45,-1.89
46,-1.82
47,-1.75
48,-1.68
49,-1.62
50,-1.56
51,-1.51
52,-1.46
53,-1.42
54,-1.38
55,-1.35
56,-1.32
57,-1.29
58,-1.25
59,-1.22
60,-1.18
61,-1.13
62,-1.08
63,-1.02
64,-0.96
65,-0.92
66,-0.88
67,-0.84
68,-0.80
69,-0.76
70,-0.70
71,-0.63
72,-0.55
73,-0.47
74,-0.37
75,-0.28
76,-0.20
77,-0.13
78,-0.04
79,0.04
80,0.13
81,0.21
82,0.29
83,0.36
84,0.42
85,0.48
86,0.53
87,0.58
88,0.63
89,0.68
90,0.72
91,0.74
92,0.78
93,0.79
94,0.81
95,0.82
96,0.83
97,0.85
98,0.84
99,0.83
100,0.81
101,0.78
102,0.74
104,0.67
105,0.64
106,0.60
107,0.57
108,0.54
109,0.49
110,0.43
111,0.36
112,0.28
113,0.20
114,0.10
115,0.01
117,-0.22
118,-0.33
119,-0.44
120,-0.54
121,-0.63
123,-0.80
124,-0.88
125,-0.96
126,-1.04
128,-1.20
129,-1.28
130,-1.35
131,-1.40
133,-1.48
134,-1.49
135,-1.51
137,-1.55
138,-1.58
140,-1.66
141,-1.71
142,-1.76
144,-1.85
145,-1.89
147,-1.97
148,-2.00
150,-2.07
151,-2.11
153,-2.22
154,-2.28
156,-2.41
157,-2.47
159,-2.59
160,-2.64
162,-2.73
164,-2.81
165,-2.86
167,-2.95
169,-3.05
170,-3.10
172,-3.22
174,-3.32
175,-3.36
177,-3.46
179,-3.55
181,-3.63
183,-3.70
184,-3.72
186,-3.76
188,-3.79
190,-3.83
192,-3.87
194,-3.91
196,-3.96
198,-3.99
200,-4.02
202,-4.04
204,-4.04
206,-4.03
208,-4.03
210,-4.01
212,-3.99
214,-3.96
216,-3.93
218,-3.90
221,-3.85
223,-3.84
225,-3.82
227,-3.80
229,-3.78
232,-3.73
234,-3.70
236,-3.65
239,-3.59
241,-3.54
244,-3.47
246,-3.42
248,-3.37
251,-3.30
253,-3.25
256,-3.18
259,-3.11
261,-3.06
264,-2.98
266,-2.94
269,-2.87
272,-2.80
274,-2.75
277,-2.69
280,-2.63
283,-2.57
286,-2.51
288,-2.47
291,-2.41
294,-2.36
297,-2.30
300,-2.25
303,-2.19
306,-2.14
309,-2.08
312,-2.03
316,-1.94
319,-1.87
322,-1.80
325,-1.73
328,-1.65
332,-1.54
335,-1.46
338,-1.37
342,-1.27
345,-1.19
349,-1.09
352,-1.03
356,-0.96
359,-0.91
363,-0.85
366,-0.82
370,-0.78
374,-0.75
377,-0.74
381,-0.73
385,-0.73
389,-0.73
393,-0.74
397,-0.76
401,-0.78
405,-0.80
409,-0.82
413,-0.84
417,-0.86
421,-0.89
425,-0.91
430,-0.93
434,-0.96
438,-0.98
443,-1.02
447,-1.04
451,-1.05
456,-1.03
460,-1.01
465,-0.98
470,-0.95
474,-0.95
479,-0.94
484,-0.96
489,-0.99
494,-1.01
499,-1.02
504,-1.03
509,-1.04
514,-1.03
519,-1.02
524,-1.02
529,-1.03
535,-1.02
540,-1.02
545,-1.03
551,-1.03
556,-1.02
562,-1.02
568,-1.02
573,-1.01
579,-1.00
585,-0.99
591,-0.98
596,-0.97
602,-0.96
608,-0.95
615,-0.93
621,-0.92
627,-0.90
633,-0.89
639,-0.87
646,-0.85
652,-0.83
659,-0.81
665,-0.80
672,-0.79
679,-0.77
686,-0.75
692,-0.74
699,-0.73
706,-0.71
713,-0.71
721,-0.69
728,-0.67
735,-0.64
742,-0.60
750,-0.57
757,-0.55
765,-0.53
773,-0.52
780,-0.53
788,-0.52
796,-0.53
804,-0.55
812,-0.55
820,-0.57
828,-0.58
837,-0.57
845,-0.56
853,-0.54
862,-0.50
871,-0.46
879,-0.43
888,-0.40
897,-0.38
906,-0.34
915,-0.31
924,-0.28
933,-0.24
943,-0.20
952,-0.16
962,-0.12
971,-0.07
981,-0.03
991,-0.01
1001,0.00
1011,-0.01
1021,-0.05
1031,-0.09
1041,-0.11
1052,-0.09
1062,-0.04
1073,0.08
1084,0.24
1094,0.39
1105,0.56
1116,0.72
1128,0.88
1139,1.01
1150,1.12
1162,1.24
1173,1.34
1185,1.46
1197,1.57
1209,1.67
1221,1.76
1233,1.84
1246,1.92
1258,1.98
1271,2.06
1283,2.13
1296,2.19
1309,2.26
1322,2.32
1335,2.39
1349,2.47
1362,2.53
1376,2.61
1390,2.68
1404,2.76
1418,2.84
1432,2.93
1446,3.00
1461,3.07
1475,3.14
1490,3.20
1505,3.25
1520,3.31
1535,3.37
1550,3.43
1566,3.51
1582,3.60
1597,3.68
1613,3.77
1629,3.86
1646,3.96
1662,4.07
1679,4.19
1696,4.32
1713,4.45
1730,4.59
1747,4.73
1764,4.87
1782,5.01
1800,5.13
1818,5.24
1836,5.33
1854,5.40
1873,5.49
1892,5.58
1911,5.65
1930,5.73
1949,5.81
1969,5.87
1988,5.93
2008,6.00
2028,6.07
2048,6.13
2069,6.20
2090,6.25
2111,6.30
2132,6.34
2153,6.39
2175,6.43
2196,6.47
2218,6.52
2240,6.56
2263,6.61
2285,6.64
2308,6.64
2331,6.64
2355,6.63
2378,6.61
2402,6.63
2426,6.65
2450,6.68
2475,6.74
2500,6.81
2525,6.88
2550,6.98
2575,7.07
2601,7.18
2627,7.29
2653,7.38
2680,7.46
2707,7.53
2734,7.56
2761,7.60
2789,7.62
2817,7.64
2845,7.65
2873,7.63
2902,7.62
2931,7.59
2960,7.55
2990,7.53
3020,7.53
3050,7.56
3080,7.59
3111,7.64
3142,7.70
3174,7.74
3206,7.76
3238,7.78
3270,7.78
3303,7.76
3336,7.73
3369,7.69
3403,7.63
3437,7.56
3471,7.47
3506,7.36
3541,7.22
3576,7.07
3612,6.91
3648,6.75
3685,6.58
3721,6.42
3759,6.26
3796,6.14
3834,6.01
3873,5.90
3911,5.78
3950,5.63
3990,5.44
4030,5.24
4070,5.04
4111,4.84
4152,4.68
4193,4.55
4235,4.44
4278,4.31
4321,4.21
4364,4.11
4407,3.99
4451,3.88
4496,3.77
4541,3.68
4586,3.61
4632,3.57
4679,3.58
4725,3.63
4773,3.72
4820,3.85
4868,4.01
4917,4.18
4966,4.32
5016,4.38
5066,4.38
5117,4.28
5168,4.09
5220,3.89
5272,3.66
5325,3.47
5378,3.33
5432,3.24
5486,3.18
5541,3.15
5596,3.13
5652,3.09
5709,3.03
5766,2.97
5823,2.90
5882,2.84
5940,2.75
6000,2.64
6060,2.52
6120,2.37
6182,2.19
6244,1.99
6306,1.79
6369,1.61
6433,1.49
6497,1.42
6562,1.42
6628,1.47
6694,1.61
6761,1.81
6828,2.07
6897,2.36
6966,2.69
7035,3.06
7106,3.45
7177,3.90
7249,4.35
7321,4.78
7394,5.17
7468,5.51
7543,5.76
7618,5.96
7694,6.13
7771,6.28
7849,6.45
7928,6.64
8007,6.84
8087,7.04
8168,7.23
8250,7.38
8332,7.44
8415,7.42
8499,7.33
8584,7.18
8670,7.00
8757,6.79
8845,6.58
8933,6.62
9022,6.59
9113,6.41
9204,6.53
9296,6.79
9389,6.56
9483,6.36
9577,6.27
9673,6.20
9770,6.04
9868,5.75
9966,5.40
10066,4.89
10167,4.28
10268,3.62
10371,2.83
10475,1.99
10579,1.23
10685,0.56
10792,-0.01
10900,-0.53
11009,-1.00
11119,-1.29
11230,-1.46
11343,-1.40
11456,-1.21
11571,-1.78
11686,-2.61
11803,-2.91
11921,-3.84
12040,-5.03
12161,-5.82
12282,-6.64
12405,-7.18
12529,-7.28
12655,-6.78
12781,-6.05
12909,-5.09
13038,-4.05
13168,-3.19
13300,-2.42
13433,-2.02
13567,-2.07
13703,-2.44
13840,-3.26
13978,-4.11
14118,-4.87
14259,-5.46
14402,-5.64
14546,-5.60
14692,-5.34
14838,-4.99
14987,-4.72
15137,-4.57
15288,-4.68
15441,-5.01
15595,-5.55
15751,-6.44
15909,-7.64
16068,-8.99
16229,-10.46
16391,-11.59
16555,-12.40
16720,-12.76
16888,-12.55
17056,-12.16
17227,-11.64
17399,-11.28
17573,-11.12
17749,-11.14
17926,-11.45
18106,-11.87
18287,-12.36
18470,-12.86
18654,-13.35
18841,-13.84
19029,-14.32
19220,-14.87
19412,-15.44
19606,-16.05
19802,-16.68
20000,-17.31
