frequency,raw,smoothed,error,error_smoothed,equalization,parametric_eq,fixed_band_eq,equalized_raw,equalized_smoothed,target
20.00,3.47,3.47,-1.06,-1.06,1.06,-1.21,-0.49,4.53,4.53,4.53
20.20,3.52,3.52,-1.04,-1.04,1.04,-1.21,-0.50,4.56,4.56,4.56
20.40,3.57,3.57,-1.02,-1.02,1.02,-1.21,-0.52,4.59,4.59,4.59
20.61,3.63,3.63,-0.98,-0.99,0.99,-1.21,-0.53,4.62,4.62,4.61
20.81,3.68,3.68,-0.96,-0.96,0.96,-1.22,-0.55,4.64,4.64,4.64
21.02,3.73,3.73,-0.94,-0.93,0.93,-1.22,-0.56,4.66,4.66,4.67
21.23,3.79,3.79,-0.89,-0.89,0.88,-1.22,-0.58,4.67,4.67,4.68
21.44,3.85,3.85,-0.84,-0.84,0.84,-1.22,-0.59,4.69,4.68,4.69
21.66,3.91,3.91,-0.79,-0.78,0.78,-1.23,-0.61,4.69,4.69,4.70
21.87,3.97,3.97,-0.73,-0.73,0.73,-1.23,-0.63,4.70,4.70,4.70
22.09,4.04,4.04,-0.67,-0.66,0.66,-1.23,-0.65,4.70,4.70,4.71
22.31,4.11,4.11,-0.59,-0.60,0.60,-1.24,-0.66,4.71,4.71,4.71
22.54,4.18,4.18,-0.53,-0.53,0.52,-1.24,-0.68,4.70,4.70,4.70
22.76,4.25,4.25,-0.45,-0.45,0.45,-1.24,-0.70,4.70,4.70,4.70
22.99,4.32,4.32,-0.37,-0.38,0.38,-1.25,-0.72,4.70,4.70,4.69
23.22,4.39,4.39,-0.30,-0.30,0.30,-1.25,-0.74,4.69,4.70,4.69
23.45,4.47,4.47,-0.22,-0.22,0.23,-1.25,-0.76,4.70,4.69,4.69
23.69,4.54,4.54,-0.15,-0.15,0.15,-1.26,-0.78,4.69,4.69,4.69
23.92,4.61,4.62,-0.08,-0.08,0.08,-1.26,-0.80,4.69,4.69,4.69
24.16,4.69,4.69,-0.01,-0.01,0.00,-1.26,-0.82,4.69,4.69,4.70
24.40,4.77,4.77,0.07,0.07,-0.07,-1.27,-0.85,4.70,4.69,4.70
24.65,4.84,4.84,0.15,0.15,-0.15,-1.27,-0.87,4.69,4.69,4.69
24.89,4.92,4.92,0.23,0.23,-0.23,-1.28,-0.89,4.69,4.69,4.69
25.14,4.99,4.99,0.31,0.31,-0.31,-1.28,-0.91,4.68,4.69,4.69
25.39,5.07,5.07,0.39,0.39,-0.39,-1.29,-0.94,4.68,4.68,4.68
25.65,5.15,5.15,0.47,0.47,-0.47,-1.29,-0.96,4.68,4.68,4.68
25.91,5.22,5.22,0.55,0.55,-0.55,-1.30,-0.98,4.67,4.68,4.67
26.16,5.30,5.30,0.63,0.63,-0.62,-1.30,-1.01,4.68,4.68,4.67
26.43,5.37,5.37,0.70,0.70,-0.70,-1.31,-1.03,4.67,4.67,4.67
26.69,5.44,5.44,0.77,0.77,-0.77,-1.31,-1.05,4.67,4.67,4.67
26.96,5.51,5.51,0.84,0.84,-0.84,-1.32,-1.08,4.67,4.67,4.67
27.23,5.58,5.58,0.91,0.91,-0.91,-1.33,-1.10,4.67,4.66,4.67
27.50,5.64,5.64,0.97,0.98,-0.98,-1.33,-1.12,4.66,4.66,4.67
27.77,5.70,5.71,1.05,1.05,-1.05,-1.34,-1.15,4.65,4.66,4.65
28.05,5.77,5.77,1.12,1.12,-1.12,-1.35,-1.17,4.66,4.65,4.65
28.33,5.83,5.83,1.19,1.18,-1.18,-1.36,-1.19,4.65,4.65,4.64
28.62,5.88,5.88,1.24,1.25,-1.24,-1.36,-1.21,4.64,4.64,4.64
28.90,5.94,5.94,1.30,1.30,-1.30,-1.37,-1.23,4.64,4.64,4.64
29.19,5.99,5.99,1.36,1.36,-1.36,-1.38,-1.25,4.63,4.63,4.63
29.48,6.04,6.04,1.41,1.41,-1.42,-1.39,-1.27,4.62,4.63,4.63
29.78,6.09,6.09,1.47,1.47,-1.47,-1.40,-1.29,4.62,4.62,4.62
30.08,6.14,6.14,1.52,1.52,-1.52,-1.41,-1.31,4.62,4.62,4.62
30.38,6.19,6.19,1.58,1.58,-1.57,-1.42,-1.33,4.62,4.61,4.61
30.68,6.23,6.23,1.62,1.63,-1.62,-1.43,-1.34,4.61,4.61,4.61
30.99,6.27,6.27,1.67,1.67,-1.67,-1.44,-1.36,4.60,4.60,4.59
31.30,6.31,6.31,1.72,1.71,-1.72,-1.46,-1.37,4.59,4.59,4.59
31.61,6.34,6.34,1.75,1.76,-1.76,-1.47,-1.38,4.58,4.59,4.59
31.93,6.38,6.38,1.80,1.80,-1.80,-1.48,-1.40,4.58,4.58,4.58
32.24,6.41,6.41,1.84,1.84,-1.83,-1.50,-1.41,4.58,4.57,4.57
32.57,6.43,6.43,1.87,1.87,-1.87,-1.51,-1.42,4.56,4.57,4.56
32.89,6.46,6.46,1.90,1.90,-1.90,-1.53,-1.43,4.56,4.56,4.56
33.22,6.48,6.48,1.93,1.93,-1.93,-1.55,-1.44,4.55,4.55,4.55
33.55,6.50,6.50,1.96,1.96,-1.96,-1.56,-1.45,4.54,4.54,4.54
33.89,6.52,6.52,1.99,1.99,-1.99,-1.58,-1.46,4.53,4.53,4.53
34.23,6.54,6.54,2.01,2.01,-2.01,-1.60,-1.46,4.53,4.53,4.53
34.57,6.56,6.56,2.04,2.04,-2.04,-1.62,-1.47,4.52,4.52,4.52
34.92,6.57,6.57,2.07,2.06,-2.06,-1.65,-1.48,4.51,4.51,4.50
35.27,6.58,6.58,2.08,2.09,-2.08,-1.67,-1.49,4.50,4.50,4.50
35.62,6.59,6.59,2.10,2.10,-2.10,-1.69,-1.49,4.49,4.49,4.49
35.97,6.59,6.59,2.12,2.12,-2.12,-1.72,-1.50,4.47,4.47,4.47
36.33,6.60,6.60,2.13,2.13,-2.13,-1.75,-1.51,4.47,4.46,4.47
36.70,6.60,6.60,2.15,2.15,-2.15,-1.78,-1.52,4.45,4.45,4.45
37.06,6.60,6.60,2.16,2.16,-2.16,-1.81,-1.52,4.44,4.44,4.44
37.43,6.60,6.60,2.16,2.17,-2.16,-1.84,-1.53,4.43,4.43,4.44
37.81,6.59,6.59,2.17,2.17,-2.17,-1.87,-1.54,4.42,4.42,4.42
38.19,6.59,6.59,2.18,2.18,-2.18,-1.90,-1.55,4.41,4.41,4.41
38.57,6.58,6.58,2.18,2.18,-2.18,-1.93,-1.56,4.40,4.40,4.40
38.95,6.56,6.56,2.17,2.18,-2.18,-1.97,-1.58,4.38,4.39,4.39
39.34,6.55,6.55,2.18,2.17,-2.17,-2.00,-1.59,4.38,4.38,4.37
39.74,6.53,6.53,2.17,2.17,-2.17,-2.04,-1.60,4.36,4.36,4.36
40.14,6.51,6.51,2.16,2.16,-2.16,-2.07,-1.62,4.35,4.35,4.35
40.54,6.49,6.49,2.15,2.15,-2.15,-2.11,-1.63,4.34,4.34,4.34
40.94,6.47,6.47,2.14,2.14,-2.14,-2.14,-1.65,4.33,4.33,4.33
41.35,6.45,6.45,2.14,2.14,-2.13,-2.17,-1.67,4.32,4.32,4.31
41.76,6.44,6.44,2.13,2.13,-2.13,-2.19,-1.69,4.31,4.31,4.31
42.18,6.42,6.42,2.12,2.12,-2.12,-2.22,-1.71,4.30,4.30,4.30
42.60,6.40,6.40,2.11,2.11,-2.12,-2.24,-1.73,4.28,4.28,4.29
43.03,6.39,6.39,2.11,2.11,-2.12,-2.26,-1.75,4.27,4.26,4.28
43.46,6.38,6.38,2.12,2.12,-2.13,-2.27,-1.78,4.25,4.25,4.26
43.90,6.37,6.37,2.14,2.14,-2.14,-2.28,-1.81,4.23,4.24,4.23
44.33,6.37,6.37,2.15,2.15,-2.15,-2.28,-1.83,4.22,4.22,4.22
44.78,6.36,6.36,2.16,2.16,-2.15,-2.28,-1.86,4.21,4.21,4.20
45.23,6.35,6.35,2.17,2.17,-2.16,-2.28,-1.89,4.19,4.19,4.18
45.68,6.33,6.33,2.17,2.17,-2.16,-2.27,-1.92,4.17,4.17,4.16
46.13,6.31,6.31,2.17,2.17,-2.16,-2.26,-1.96,4.15,4.15,4.14
46.60,6.30,6.29,2.17,2.17,-2.16,-2.25,-1.99,4.14,4.13,4.13
47.06,6.27,6.27,2.16,2.16,-2.16,-2.23,-2.03,4.11,4.11,4.11
47.53,6.25,6.25,2.16,2.15,-2.16,-2.21,-2.07,4.09,4.09,4.09
48.01,6.22,6.22,2.14,2.15,-2.15,-2.20,-2.10,4.07,4.07,4.08
48.49,6.20,6.20,2.15,2.14,-2.15,-2.18,-2.14,4.05,4.04,4.05
48.97,6.17,6.17,2.15,2.15,-2.15,-2.16,-2.18,4.02,4.02,4.02
49.46,6.15,6.15,2.16,2.16,-2.16,-2.14,-2.23,3.99,3.99,3.99
49.96,6.13,6.13,2.17,2.17,-2.16,-2.12,-2.27,3.97,3.97,3.96
50.46,6.12,6.12,2.17,2.18,-2.17,-2.11,-2.31,3.95,3.94,3.95
50.96,6.10,6.10,2.18,2.18,-2.18,-2.09,-2.35,3.92,3.92,3.92
51.47,6.09,6.09,2.20,2.19,-2.19,-2.08,-2.40,3.90,3.89,3.89
51.99,6.07,6.07,2.20,2.20,-2.20,-2.07,-2.44,3.87,3.87,3.87
52.51,6.06,6.06,2.21,2.21,-2.21,-2.06,-2.49,3.85,3.85,3.85
53.03,6.05,6.05,2.22,2.22,-2.22,-2.05,-2.53,3.83,3.83,3.83
53.56,6.04,6.04,2.24,2.24,-2.24,-2.04,-2.58,3.80,3.80,3.80
54.10,6.03,6.03,2.25,2.25,-2.25,-2.03,-2.62,3.78,3.78,3.78
54.64,6.01,6.01,2.26,2.26,-2.26,-2.03,-2.66,3.75,3.75,3.75
55.18,6.00,6.00,2.27,2.27,-2.28,-2.03,-2.70,3.72,3.72,3.73
55.74,5.99,5.99,2.29,2.29,-2.29,-2.03,-2.75,3.70,3.70,3.70
56.29,5.98,5.98,2.30,2.30,-2.30,-2.03,-2.78,3.68,3.68,3.68
56.86,5.97,5.97,2.32,2.32,-2.32,-2.03,-2.82,3.65,3.65,3.65
57.42,5.96,5.96,2.34,2.33,-2.33,-2.04,-2.86,3.63,3.63,3.62
58.00,5.95,5.95,2.35,2.35,-2.34,-2.04,-2.89,3.61,3.61,3.60
58.58,5.94,5.94,2.36,2.35,-2.35,-2.05,-2.92,3.59,3.59,3.58
59.16,5.92,5.92,2.36,2.36,-2.36,-2.06,-2.95,3.56,3.56,3.56
59.76,5.91,5.91,2.37,2.37,-2.37,-2.07,-2.98,3.54,3.53,3.54
60.35,5.89,5.89,2.38,2.38,-2.38,-2.09,-3.00,3.51,3.51,3.51
60.96,5.88,5.88,2.39,2.39,-2.39,-2.10,-3.02,3.49,3.48,3.49
61.57,5.86,5.86,2.41,2.41,-2.40,-2.12,-3.04,3.46,3.45,3.45
62.18,5.83,5.83,2.42,2.42,-2.41,-2.14,-3.05,3.42,3.42,3.41
62.80,5.81,5.81,2.42,2.42,-2.42,-2.16,-3.07,3.39,3.39,3.39
63.43,5.78,5.78,2.43,2.43,-2.43,-2.18,-3.07,3.35,3.35,3.35
64.07,5.76,5.76,2.43,2.43,-2.44,-2.21,-3.08,3.32,3.32,3.33
64.71,5.74,5.74,2.44,2.44,-2.44,-2.23,-3.08,3.30,3.30,3.30
65.35,5.72,5.72,2.45,2.45,-2.44,-2.26,-3.08,3.28,3.28,3.27
66.01,5.70,5.70,2.46,2.45,-2.45,-2.29,-3.08,3.25,3.25,3.24
66.67,5.67,5.67,2.45,2.45,-2.45,-2.33,-3.07,3.22,3.22,3.22
67.33,5.64,5.64,2.45,2.46,-2.46,-2.36,-3.06,3.18,3.19,3.19
68.01,5.62,5.62,2.46,2.46,-2.47,-2.40,-3.05,3.15,3.15,3.16
68.69,5.60,5.60,2.48,2.48,-2.48,-2.44,-3.04,3.12,3.12,3.12
69.37,5.58,5.58,2.49,2.49,-2.49,-2.48,-3.02,3.09,3.09,3.09
70.07,5.57,5.57,2.51,2.51,-2.51,-2.53,-3.01,3.06,3.06,3.06
70.77,5.56,5.56,2.52,2.53,-2.53,-2.57,-2.99,3.03,3.03,3.04
71.48,5.56,5.56,2.56,2.56,-2.56,-2.62,-2.97,3.00,3.00,3.00
72.19,5.56,5.56,2.59,2.60,-2.60,-2.68,-2.95,2.96,2.96,2.97
72.91,5.57,5.57,2.64,2.64,-2.64,-2.73,-2.94,2.93,2.93,2.93
73.64,5.58,5.58,2.69,2.69,-2.69,-2.79,-2.92,2.89,2.89,2.89
74.38,5.60,5.60,2.73,2.74,-2.74,-2.85,-2.90,2.86,2.86,2.87
75.12,5.63,5.63,2.80,2.80,-2.80,-2.92,-2.88,2.83,2.83,2.83
75.87,5.66,5.66,2.86,2.86,-2.86,-2.99,-2.86,2.80,2.80,2.80
76.63,5.69,5.69,2.92,2.92,-2.92,-3.06,-2.85,2.77,2.77,2.77
77.40,5.72,5.72,2.98,2.99,-2.99,-3.14,-2.83,2.73,2.73,2.74
78.17,5.76,5.76,3.07,3.06,-3.06,-3.21,-2.81,2.70,2.70,2.69
78.95,5.80,5.80,3.13,3.13,-3.13,-3.30,-2.80,2.67,2.67,2.67
79.74,5.84,5.84,3.20,3.20,-3.20,-3.38,-2.79,2.64,2.64,2.64
80.54,5.88,5.88,3.28,3.28,-3.28,-3.47,-2.78,2.60,2.60,2.60
81.35,5.93,5.93,3.36,3.36,-3.36,-3.56,-2.77,2.57,2.57,2.57
82.16,5.98,5.98,3.45,3.44,-3.44,-3.66,-2.76,2.54,2.54,2.53
82.98,6.02,6.02,3.51,3.52,-3.52,-3.76,-2.76,2.50,2.50,2.51
83.81,6.07,6.07,3.61,3.61,-3.61,-3.86,-2.76,2.46,2.46,2.46
84.65,6.12,6.12,3.70,3.69,-3.70,-3.96,-2.75,2.42,2.43,2.42
85.50,6.18,6.18,3.79,3.79,-3.79,-4.07,-2.76,2.39,2.39,2.39
86.35,6.23,6.23,3.88,3.88,-3.88,-4.17,-2.76,2.35,2.35,2.36
87.22,6.29,6.29,3.97,3.97,-3.98,-4.28,-2.76,2.31,2.31,2.32
88.09,6.34,6.34,4.07,4.06,-4.07,-4.39,-2.77,2.27,2.27,2.27
88.97,6.40,6.41,4.16,4.17,-4.17,-4.49,-2.78,2.23,2.24,2.24
89.86,6.47,6.46,4.27,4.26,-4.26,-4.59,-2.79,2.21,2.20,2.20
90.76,6.52,6.52,4.37,4.36,-4.35,-4.69,-2.81,2.17,2.17,2.15
91.66,6.55,6.55,4.43,4.44,-4.43,-4.79,-2.82,2.12,2.13,2.12
92.58,6.58,6.58,4.52,4.51,-4.50,-4.87,-2.84,2.08,2.08,2.06
93.51,6.60,6.60,4.57,4.57,-4.57,-4.96,-2.86,2.03,2.03,2.03
94.44,6.61,6.61,4.62,4.63,-4.63,-5.03,-2.88,1.98,1.98,1.99
95.39,6.62,6.62,4.68,4.68,-4.69,-5.09,-2.91,1.93,1.93,1.94
96.34,6.63,6.63,4.74,4.74,-4.74,-5.14,-2.93,1.89,1.89,1.89
97.30,6.63,6.63,4.79,4.79,-4.79,-5.18,-2.96,1.84,1.84,1.84
98.28,6.63,6.63,4.83,4.83,-4.83,-5.20,-2.99,1.80,1.79,1.80
99.26,6.62,6.62,4.87,4.87,-4.87,-5.21,-3.02,1.75,1.75,1.75
100.25,6.61,6.61,4.90,4.91,-4.91,-5.20,-3.05,1.70,1.70,1.71
101.25,6.60,6.60,4.94,4.94,-4.94,-5.19,-3.08,1.66,1.66,1.66
102.27,6.57,6.57,4.96,4.96,-4.96,-5.15,-3.12,1.61,1.61,1.61
103.29,6.54,6.54,4.98,4.98,-4.97,-5.11,-3.15,1.57,1.57,1.56
104.32,6.50,6.50,4.98,4.98,-4.97,-5.04,-3.19,1.53,1.52,1.52
105.37,6.44,6.44,4.97,4.97,-4.96,-4.97,-3.22,1.48,1.48,1.47
106.42,6.37,6.37,4.94,4.94,-4.94,-4.88,-3.26,1.43,1.43,1.43
107.48,6.29,6.29,4.91,4.91,-4.91,-4.78,-3.29,1.38,1.38,1.38
108.56,6.20,6.20,4.87,4.87,-4.87,-4.68,-3.32,1.33,1.33,1.33
109.64,6.10,6.10,4.82,4.82,-4.82,-4.57,-3.35,1.28,1.28,1.28
110.74,6.00,5.99,4.77,4.76,-4.76,-4.45,-3.38,1.24,1.23,1.23
111.85,5.87,5.87,4.68,4.69,-4.69,-4.33,-3.41,1.18,1.18,1.19
112.97,5.74,5.74,4.62,4.61,-4.61,-4.20,-3.44,1.13,1.13,1.12
114.10,5.60,5.60,4.52,4.52,-4.52,-4.07,-3.46,1.08,1.08,1.08
115.24,5.45,5.45,4.43,4.43,-4.42,-3.94,-3.48,1.03,1.02,1.02
116.39,5.28,5.28,4.31,4.32,-4.32,-3.81,-3.50,0.96,0.97,0.97
117.55,5.12,5.12,4.21,4.20,-4.20,-3.69,-3.51,0.92,0.91,0.91
118.73,4.94,4.94,4.08,4.08,-4.08,-3.56,-3.52,0.86,0.86,0.86
119.92,4.77,4.77,3.95,3.96,-3.96,-3.44,-3.53,0.81,0.81,0.82
121.12,4.59,4.59,3.83,3.83,-3.83,-3.31,-3.53,0.77,0.77,0.76
122.33,4.41,4.41,3.70,3.69,-3.69,-3.19,-3.52,0.72,0.72,0.71
123.55,4.22,4.22,3.55,3.55,-3.56,-3.08,-3.52,0.66,0.66,0.67
124.79,4.03,4.03,3.41,3.41,-3.42,-2.96,-3.50,0.61,0.61,0.62
126.03,3.84,3.84,3.27,3.27,-3.28,-2.85,-3.49,0.56,0.56,0.57
127.29,3.66,3.65,3.14,3.14,-3.14,-2.75,-3.46,0.52,0.51,0.52
128.57,3.46,3.46,3.00,3.00,-3.00,-2.64,-3.43,0.46,0.46,0.46
129.85,3.27,3.27,2.86,2.86,-2.86,-2.55,-3.40,0.41,0.42,0.41
131.15,3.08,3.08,2.72,2.71,-2.71,-2.45,-3.36,0.37,0.37,0.36
132.46,2.88,2.88,2.56,2.56,-2.56,-2.36,-3.32,0.32,0.32,0.31
133.79,2.68,2.68,2.40,2.41,-2.41,-2.27,-3.28,0.27,0.27,0.28
135.12,2.49,2.49,2.27,2.26,-2.26,-2.19,-3.22,0.23,0.23,0.22
136.48,2.29,2.29,2.10,2.10,-2.10,-2.10,-3.17,0.19,0.19,0.19
137.84,2.09,2.09,1.95,1.95,-1.95,-2.03,-3.11,0.14,0.14,0.14
139.22,1.88,1.89,1.79,1.79,-1.79,-1.95,-3.05,0.09,0.10,0.09
140.61,1.69,1.69,1.64,1.64,-1.63,-1.88,-2.99,0.06,0.06,0.05
142.02,1.50,1.50,1.48,1.48,-1.48,-1.81,-2.93,0.02,0.02,0.02
143.44,1.31,1.31,1.33,1.33,-1.33,-1.74,-2.86,-0.02,-0.02,-0.02
144.87,1.13,1.13,1.19,1.19,-1.19,-1.68,-2.79,-0.06,-0.06,-0.06
146.32,0.96,0.96,1.06,1.05,-1.05,-1.62,-2.72,-0.09,-0.10,-0.10
147.78,0.79,0.79,0.92,0.92,-0.92,-1.56,-2.64,-0.13,-0.13,-0.13
149.26,0.64,0.63,0.80,0.80,-0.80,-1.50,-2.57,-0.16,-0.17,-0.16
150.75,0.48,0.48,0.69,0.69,-0.69,-1.45,-2.50,-0.21,-0.21,-0.21
152.26,0.34,0.34,0.59,0.59,-0.59,-1.40,-2.42,-0.25,-0.25,-0.25
153.78,0.21,0.21,0.49,0.49,-0.49,-1.35,-2.35,-0.28,-0.28,-0.28
155.32,0.08,0.08,0.41,0.40,-0.40,-1.30,-2.27,-0.32,-0.32,-0.33
156.88,-0.04,-0.04,0.32,0.32,-0.33,-1.26,-2.20,-0.36,-0.36,-0.36
158.44,-0.15,-0.15,0.25,0.25,-0.25,-1.21,-2.12,-0.41,-0.41,-0.40
160.03,-0.26,-0.26,0.19,0.19,-0.19,-1.17,-2.05,-0.45,-0.45,-0.45
161.63,-0.35,-0.35,0.14,0.14,-0.14,-1.13,-1.98,-0.49,-0.49,-0.49
163.24,-0.43,-0.43,0.10,0.09,-0.09,-1.09,-1.90,-0.52,-0.52,-0.53
164.88,-0.51,-0.51,0.05,0.05,-0.05,-1.06,-1.83,-0.56,-0.56,-0.56
166.53,-0.58,-0.58,0.02,0.02,-0.02,-1.02,-1.76,-0.60,-0.60,-0.60
168.19,-0.64,-0.64,-0.00,-0.01,0.01,-0.99,-1.69,-0.63,-0.64,-0.64
169.87,-0.70,-0.70,-0.03,-0.03,0.03,-0.95,-1.62,-0.68,-0.67,-0.67
171.57,-0.75,-0.75,-0.04,-0.04,0.04,-0.92,-1.55,-0.71,-0.71,-0.71
173.29,-0.79,-0.79,-0.04,-0.05,0.04,-0.89,-1.49,-0.75,-0.75,-0.75
175.02,-0.83,-0.83,-0.05,-0.05,0.05,-0.86,-1.42,-0.78,-0.79,-0.78
176.77,-0.87,-0.87,-0.04,-0.04,0.04,-0.84,-1.35,-0.83,-0.83,-0.83
178.54,-0.90,-0.90,-0.03,-0.03,0.03,-0.81,-1.29,-0.87,-0.87,-0.87
180.32,-0.92,-0.92,-0.02,-0.02,0.02,-0.78,-1.23,-0.90,-0.91,-0.90
182.13,-0.94,-0.94,-0.00,-0.00,-0.00,-0.76,-1.16,-0.94,-0.94,-0.94
183.95,-0.96,-0.96,0.02,0.02,-0.02,-0.73,-1.10,-0.98,-0.98,-0.98
185.79,-0.97,-0.97,0.04,0.05,-0.04,-0.71,-1.04,-1.01,-1.01,-1.01
187.65,-0.97,-0.98,0.08,0.07,-0.07,-0.69,-0.98,-1.04,-1.04,-1.05
189.52,-0.98,-0.98,0.10,0.10,-0.10,-0.67,-0.92,-1.08,-1.08,-1.08
191.42,-0.99,-0.99,0.12,0.12,-0.12,-0.65,-0.87,-1.11,-1.11,-1.11
193.33,-0.99,-0.99,0.15,0.15,-0.15,-0.63,-0.81,-1.14,-1.14,-1.14
195.27,-0.99,-0.99,0.18,0.18,-0.18,-0.61,-0.76,-1.17,-1.17,-1.17
197.22,-0.99,-0.99,0.20,0.21,-0.21,-0.59,-0.70,-1.20,-1.19,-1.19
199.19,-0.99,-0.99,0.24,0.23,-0.23,-0.57,-0.65,-1.22,-1.22,-1.23
201.18,-0.99,-0.99,0.26,0.26,-0.25,-0.55,-0.60,-1.24,-1.25,-1.25
203.19,-1.00,-0.99,0.26,0.28,-0.28,-0.54,-0.55,-1.28,-1.27,-1.26
205.23,-0.99,-0.99,0.30,0.29,-0.30,-0.52,-0.50,-1.29,-1.29,-1.29
207.28,-0.99,-0.99,0.31,0.31,-0.31,-0.50,-0.45,-1.30,-1.31,-1.30
209.35,-0.99,-0.99,0.33,0.33,-0.33,-0.49,-0.40,-1.32,-1.32,-1.32
211.44,-0.99,-0.99,0.35,0.35,-0.34,-0.47,-0.35,-1.33,-1.33,-1.34
213.56,-0.99,-0.99,0.36,0.36,-0.36,-0.46,-0.31,-1.35,-1.35,-1.35
215.69,-0.99,-0.99,0.36,0.36,-0.37,-0.45,-0.26,-1.36,-1.36,-1.35
217.85,-1.00,-0.99,0.36,0.37,-0.38,-0.43,-0.22,-1.38,-1.37,-1.36
220.03,-0.99,-1.00,0.39,0.38,-0.38,-0.42,-0.18,-1.37,-1.37,-1.38
222.23,-1.00,-1.00,0.39,0.38,-0.38,-0.41,-0.14,-1.38,-1.38,-1.39
224.45,-1.00,-1.00,0.38,0.38,-0.37,-0.40,-0.10,-1.37,-1.38,-1.38
226.70,-1.01,-1.01,0.37,0.37,-0.37,-0.38,-0.07,-1.38,-1.38,-1.38
228.96,-1.02,-1.02,0.36,0.36,-0.35,-0.37,-0.03,-1.38,-1.37,-1.38
231.25,-1.03,-1.03,0.34,0.34,-0.34,-0.36,0.00,-1.37,-1.38,-1.37
233.57,-1.05,-1.05,0.32,0.33,-0.33,-0.35,0.03,-1.38,-1.38,-1.37
235.90,-1.06,-1.06,0.31,0.31,-0.32,-0.34,0.06,-1.38,-1.38,-1.37
238.26,-1.07,-1.07,0.30,0.30,-0.31,-0.33,0.09,-1.38,-1.37,-1.37
240.64,-1.07,-1.07,0.29,0.29,-0.30,-0.32,0.11,-1.37,-1.37,-1.36
243.05,-1.06,-1.06,0.29,0.29,-0.30,-0.31,0.14,-1.36,-1.36,-1.35
245.48,-1.05,-1.05,0.29,0.29,-0.29,-0.30,0.16,-1.34,-1.34,-1.34
247.93,-1.03,-1.03,0.30,0.30,-0.30,-0.29,0.18,-1.33,-1.33,-1.33
250.41,-1.01,-1.01,0.31,0.30,-0.30,-0.29,0.20,-1.31,-1.31,-1.32
252.92,-1.00,-1.00,0.30,0.30,-0.30,-0.28,0.21,-1.30,-1.29,-1.30
255.45,-0.98,-0.98,0.30,0.30,-0.30,-0.27,0.22,-1.28,-1.28,-1.28
258.00,-0.97,-0.97,0.30,0.29,-0.30,-0.26,0.24,-1.27,-1.27,-1.27
260.58,-0.96,-0.96,0.29,0.29,-0.29,-0.26,0.24,-1.25,-1.25,-1.25
263.19,-0.95,-0.95,0.28,0.28,-0.28,-0.25,0.25,-1.23,-1.23,-1.23
265.82,-0.94,-0.94,0.27,0.27,-0.27,-0.24,0.26,-1.21,-1.21,-1.21
268.48,-0.93,-0.93,0.26,0.26,-0.26,-0.23,0.26,-1.19,-1.19,-1.19
271.16,-0.93,-0.93,0.24,0.24,-0.24,-0.23,0.27,-1.17,-1.17,-1.17
273.87,-0.93,-0.93,0.22,0.22,-0.23,-0.22,0.27,-1.16,-1.16,-1.15
276.61,-0.92,-0.92,0.21,0.21,-0.22,-0.21,0.27,-1.14,-1.14,-1.13
279.38,-0.91,-0.91,0.20,0.20,-0.20,-0.21,0.27,-1.11,-1.11,-1.11
282.17,-0.90,-0.90,0.20,0.19,-0.19,-0.20,0.26,-1.09,-1.09,-1.10
284.99,-0.89,-0.89,0.18,0.18,-0.18,-0.20,0.26,-1.07,-1.07,-1.07
287.84,-0.89,-0.89,0.17,0.17,-0.17,-0.19,0.25,-1.06,-1.06,-1.06
290.72,-0.88,-0.88,0.15,0.15,-0.16,-0.18,0.25,-1.04,-1.04,-1.03
293.63,-0.87,-0.87,0.15,0.14,-0.15,-0.18,0.24,-1.02,-1.02,-1.02
296.57,-0.86,-0.86,0.13,0.14,-0.13,-0.17,0.23,-0.99,-0.99,-0.99
299.53,-0.85,-0.85,0.13,0.12,-0.12,-0.17,0.23,-0.97,-0.97,-0.98
302.53,-0.84,-0.84,0.12,0.11,-0.11,-0.16,0.22,-0.95,-0.95,-0.96
305.55,-0.83,-0.83,0.09,0.10,-0.10,-0.16,0.21,-0.93,-0.93,-0.92
308.61,-0.82,-0.82,0.09,0.08,-0.08,-0.15,0.20,-0.90,-0.90,-0.91
311.69,-0.81,-0.81,0.07,0.07,-0.07,-0.15,0.19,-0.88,-0.88,-0.88
314.81,-0.80,-0.80,0.04,0.05,-0.06,-0.15,0.18,-0.86,-0.86,-0.84
317.96,-0.78,-0.78,0.05,0.04,-0.05,-0.14,0.17,-0.83,-0.83,-0.83
321.14,-0.77,-0.77,0.04,0.04,-0.04,-0.14,0.16,-0.81,-0.81,-0.81
324.35,-0.76,-0.76,0.03,0.03,-0.03,-0.13,0.15,-0.79,-0.79,-0.79
327.59,-0.75,-0.75,0.02,0.02,-0.02,-0.13,0.14,-0.77,-0.77,-0.77
330.87,-0.75,-0.75,-0.00,0.00,-0.00,-0.12,0.12,-0.75,-0.75,-0.75
334.18,-0.74,-0.74,-0.01,-0.01,0.01,-0.12,0.11,-0.73,-0.72,-0.73
337.52,-0.73,-0.73,-0.02,-0.02,0.03,-0.12,0.10,-0.70,-0.70,-0.71
340.90,-0.73,-0.73,-0.04,-0.04,0.05,-0.11,0.09,-0.68,-0.68,-0.69
344.30,-0.74,-0.74,-0.07,-0.07,0.07,-0.11,0.08,-0.67,-0.67,-0.67
347.75,-0.74,-0.74,-0.09,-0.09,0.08,-0.10,0.07,-0.66,-0.66,-0.65
351.23,-0.74,-0.74,-0.11,-0.10,0.09,-0.10,0.06,-0.65,-0.64,-0.63
354.74,-0.73,-0.73,-0.11,-0.11,0.10,-0.10,0.05,-0.63,-0.63,-0.62
358.28,-0.71,-0.71,-0.11,-0.11,0.11,-0.09,0.04,-0.60,-0.60,-0.60
361.87,-0.69,-0.69,-0.11,-0.11,0.11,-0.09,0.03,-0.58,-0.58,-0.58
365.49,-0.67,-0.67,-0.11,-0.10,0.11,-0.09,0.02,-0.56,-0.56,-0.56
369.14,-0.65,-0.65,-0.10,-0.10,0.11,-0.08,0.01,-0.54,-0.54,-0.55
372.83,-0.63,-0.63,-0.09,-0.10,0.10,-0.08,-0.00,-0.53,-0.53,-0.54
376.56,-0.62,-0.62,-0.09,-0.10,0.10,-0.08,-0.01,-0.52,-0.52,-0.53
380.33,-0.61,-0.61,-0.11,-0.10,0.10,-0.07,-0.02,-0.51,-0.51,-0.50
384.13,-0.59,-0.59,-0.10,-0.10,0.10,-0.07,-0.03,-0.49,-0.50,-0.49
387.97,-0.58,-0.58,-0.10,-0.10,0.10,-0.07,-0.04,-0.48,-0.48,-0.48
391.85,-0.57,-0.57,-0.10,-0.10,0.10,-0.07,-0.05,-0.47,-0.47,-0.47
395.77,-0.55,-0.56,-0.09,-0.10,0.10,-0.06,-0.06,-0.45,-0.46,-0.46
399.73,-0.55,-0.54,-0.10,-0.10,0.10,-0.06,-0.07,-0.45,-0.45,-0.45
403.72,-0.53,-0.53,-0.09,-0.09,0.09,-0.06,-0.08,-0.44,-0.44,-0.44
407.76,-0.52,-0.52,-0.09,-0.09,0.09,-0.05,-0.09,-0.43,-0.43,-0.43
411.84,-0.50,-0.50,-0.09,-0.09,0.09,-0.05,-0.10,-0.41,-0.41,-0.41
415.96,-0.49,-0.49,-0.09,-0.09,0.09,-0.05,-0.11,-0.40,-0.40,-0.40
420.12,-0.48,-0.48,-0.09,-0.09,0.09,-0.05,-0.11,-0.39,-0.39,-0.39
424.32,-0.47,-0.47,-0.09,-0.09,0.09,-0.04,-0.12,-0.38,-0.38,-0.38
428.56,-0.46,-0.46,-0.08,-0.08,0.08,-0.04,-0.13,-0.38,-0.38,-0.38
432.85,-0.45,-0.45,-0.08,-0.08,0.08,-0.04,-0.13,-0.37,-0.37,-0.37
437.18,-0.44,-0.44,-0.08,-0.08,0.08,-0.03,-0.14,-0.36,-0.36,-0.36
441.55,-0.42,-0.42,-0.08,-0.08,0.08,-0.03,-0.14,-0.34,-0.34,-0.34
445.96,-0.40,-0.40,-0.07,-0.07,0.07,-0.03,-0.15,-0.33,-0.33,-0.33
450.42,-0.38,-0.38,-0.06,-0.07,0.07,-0.03,-0.15,-0.31,-0.31,-0.32
454.93,-0.37,-0.37,-0.07,-0.06,0.06,-0.02,-0.15,-0.31,-0.30,-0.30
459.48,-0.35,-0.35,-0.06,-0.06,0.06,-0.02,-0.16,-0.29,-0.29,-0.29
464.07,-0.33,-0.33,-0.06,-0.06,0.06,-0.02,-0.16,-0.27,-0.27,-0.27
468.71,-0.31,-0.31,-0.06,-0.05,0.05,-0.02,-0.16,-0.26,-0.26,-0.25
473.40,-0.29,-0.29,-0.05,-0.05,0.05,-0.01,-0.16,-0.24,-0.24,-0.24
478.13,-0.28,-0.28,-0.06,-0.05,0.05,-0.01,-0.16,-0.23,-0.22,-0.22
482.91,-0.26,-0.26,-0.04,-0.05,0.05,-0.01,-0.16,-0.21,-0.21,-0.22
487.74,-0.25,-0.25,-0.05,-0.05,0.05,-0.01,-0.15,-0.20,-0.20,-0.20
492.62,-0.24,-0.24,-0.06,-0.06,0.06,-0.00,-0.15,-0.18,-0.18,-0.18
