frequency,raw
20.00,-1.63
20.20,-1.63
20.40,-1.59
20.61,-1.55
20.81,-1.50
21.02,-1.45
21.23,-1.39
21.44,-1.36
21.66,-1.31
21.87,-1.28
22.09,-1.24
22.31,-1.20
22.54,-1.16
22.76,-1.12
22.99,-1.07
23.22,-1.04
23.45,-0.99
23.69,-0.96
23.92,-0.90
24.16,-0.88
24.40,-0.85
24.65,-0.79
24.89,-0.74
25.14,-0.70
25.39,-0.64
25.65,-0.59
25.91,-0.55
26.16,-0.50
26.43,-0.45
26.69,-0.39
26.96,-0.35
27.23,-0.32
27.50,-0.29
27.77,-0.26
28.05,-0.21
28.33,-0.18
28.62,-0.14
28.90,-0.10
29.19,-0.07
29.48,-0.04
29.78,-0.01
30.08,0.02
30.38,0.03
30.68,0.04
30.99,0.08
31.30,0.08
31.61,0.08
31.93,0.08
32.24,0.08
32.57,0.08
32.89,0.06
33.22,0.03
33.55,0.00
33.89,-0.01
34.23,-0.05
34.57,-0.09
34.92,-0.12
35.27,-0.14
35.62,-0.18
35.97,-0.19
36.33,-0.23
36.70,-0.25
37.06,-0.27
37.43,-0.31
37.81,-0.31
38.19,-0.32
38.57,-0.33
38.95,-0.33
39.34,-0.31
39.74,-0.31
40.14,-0.31
40.54,-0.30
40.94,-0.27
41.35,-0.24
41.76,-0.23
42.18,-0.18
42.60,-0.17
43.03,-0.14
43.46,-0.11
43.90,-0.10
44.33,-0.05
44.78,-0.05
45.23,-0.01
45.68,-0.01
46.13,-0.01
46.60,0.03
47.06,0.03
47.53,0.03
48.01,0.08
48.49,0.08
48.97,0.10
49.46,0.12
49.96,0.16
50.46,0.19
50.96,0.21
51.47,0.25
51.99,0.26
52.51,0.29
53.03,0.29
53.56,0.29
54.10,0.29
54.64,0.29
55.18,0.25
55.74,0.25
56.29,0.21
56.86,0.21
57.42,0.16
58.00,0.16
58.58,0.16
59.16,0.16
59.76,0.20
60.35,0.23
60.96,0.27
61.57,0.31
62.18,0.36
62.80,0.40
63.43,0.45
64.07,0.49
64.71,0.53
65.35,0.60
66.01,0.67
66.67,0.76
67.33,0.84
68.01,0.91
68.69,0.99
69.37,1.06
70.07,1.12
70.77,1.18
71.48,1.27
72.19,1.37
72.91,1.47
73.64,1.58
74.38,1.66
75.12,1.74
75.87,1.84
76.63,1.90
77.40,2.00
78.17,2.11
78.95,2.17
79.74,2.27
80.54,2.33
81.35,2.43
82.16,2.50
82.98,2.57
83.81,2.62
84.65,2.68
85.50,2.72
86.35,2.72
87.22,2.72
88.09,2.74
88.97,2.73
89.86,2.72
90.76,2.71
91.66,2.68
92.58,2.63
93.51,2.58
94.44,2.52
95.39,2.44
96.34,2.36
97.30,2.25
98.28,2.12
99.26,2.01
100.25,1.88
101.25,1.75
102.27,1.63
103.29,1.49
104.32,1.38
105.37,1.25
106.42,1.13
107.48,1.01
108.56,0.91
109.64,0.79
110.74,0.68
111.85,0.55
112.97,0.45
114.10,0.35
115.24,0.27
116.39,0.16
117.55,0.08
118.73,0.00
119.92,-0.08
121.12,-0.11
122.33,-0.16
123.55,-0.19
124.79,-0.23
126.03,-0.27
127.29,-0.27
128.57,-0.27
129.85,-0.31
131.15,-0.31
132.46,-0.31
133.79,-0.31
135.12,-0.31
136.48,-0.31
137.84,-0.31
139.22,-0.31
140.61,-0.31
142.02,-0.29
143.44,-0.29
144.87,-0.27
146.32,-0.27
147.78,-0.27
149.26,-0.27
150.75,-0.27
152.26,-0.27
153.78,-0.27
155.32,-0.27
156.88,-0.31
158.44,-0.31
160.03,-0.31
161.63,-0.34
163.24,-0.36
164.88,-0.38
166.53,-0.41
168.19,-0.44
169.87,-0.47
171.57,-0.51
173.29,-0.56
175.02,-0.61
176.77,-0.64
178.54,-0.70
180.32,-0.76
182.13,-0.81
183.95,-0.88
185.79,-0.94
187.65,-0.98
189.52,-1.03
191.42,-1.09
193.33,-1.17
195.27,-1.24
197.22,-1.32
199.19,-1.39
201.18,-1.48
203.19,-1.54
205.23,-1.64
207.28,-1.74
209.35,-1.80
211.44,-1.89
213.56,-1.96
215.69,-2.03
217.85,-2.13
220.03,-2.21
222.23,-2.29
224.45,-2.39
226.70,-2.46
228.96,-2.54
231.25,-2.60
233.57,-2.68
235.90,-2.74
238.26,-2.83
240.64,-2.89
243.05,-2.95
245.48,-2.92
247.93,-2.85
250.41,-2.73
252.92,-2.64
255.45,-2.58
258.00,-2.52
260.58,-2.48
263.19,-2.45
265.82,-2.42
268.48,-2.39
271.16,-2.35
273.87,-2.35
276.61,-2.35
279.38,-2.34
282.17,-2.31
284.99,-2.31
287.84,-2.31
290.72,-2.28
293.63,-2.26
296.57,-2.22
299.53,-2.22
302.53,-2.18
305.55,-2.18
308.61,-2.18
311.69,-2.21
314.81,-2.24
317.96,-2.29
321.14,-2.38
324.35,-2.46
327.59,-2.52
330.87,-2.56
334.18,-2.59
337.52,-2.61
340.90,-2.61
344.30,-2.60
347.75,-2.57
351.23,-2.52
354.74,-2.49
358.28,-2.44
361.87,-2.41
365.49,-2.37
369.14,-2.32
372.83,-2.27
376.56,-2.24
380.33,-2.19
384.13,-2.15
387.97,-2.11
391.85,-2.06
395.77,-2.02
399.73,-1.98
403.72,-1.95
407.76,-1.90
411.84,-1.87
415.96,-1.83
420.12,-1.78
424.32,-1.75
428.56,-1.70
432.85,-1.65
437.18,-1.57
441.55,-1.48
445.96,-1.41
450.42,-1.34
454.93,-1.26
459.48,-1.19
464.07,-1.12
468.71,-1.07
473.40,-1.05
478.13,-1.01
482.91,-1.00
487.74,-0.96
492.62,-0.94
497.55,-0.90
502.52,-0.86
507.55,-0.81
512.62,-0.77
517.75,-0.72
522.93,-0.68
528.16,-0.64
533.44,-0.59
538.77,-0.54
544.16,-0.53
549.60,-0.49
555.10,-0.49
560.65,-0.49
566.25,-0.48
571.92,-0.44
577.64,-0.44
583.41,-0.44
589.25,-0.44
595.14,-0.44
601.09,-0.44
607.10,-0.40
613.17,-0.40
619.30,-0.40
625.50,-0.40
631.75,-0.37
638.07,-0.36
644.45,-0.36
650.89,-0.32
657.40,-0.31
663.98,-0.31
670.62,-0.31
677.32,-0.31
684.10,-0.31
690.94,-0.31
697.85,-0.31
704.83,-0.31
711.87,-0.31
718.99,-0.31
726.18,-0.27
733.44,-0.27
740.78,-0.27
748.19,-0.23
755.67,-0.23
763.23,-0.23
770.86,-0.23
778.57,-0.23
786.35,-0.23
794.22,-0.23
802.16,-0.23
810.18,-0.23
818.28,-0.23
826.46,-0.27
834.73,-0.27
843.08,-0.27
851.51,-0.27
860.02,-0.26
868.62,-0.23
877.31,-0.22
886.08,-0.18
894.94,-0.18
903.89,-0.14
912.93,-0.14
922.06,-0.14
931.28,-0.10
940.59,-0.10
950.00,-0.10
959.50,-0.10
969.09,-0.05
978.78,-0.05
988.57,-0.01
998.46,-0.01
1008.44,0.03
1018.53,0.05
1028.71,0.08
1039.00,0.11
1049.39,0.14
1059.88,0.19
1070.48,0.22
1081.19,0.28
1092.00,0.34
1102.92,0.40
1113.95,0.46
1125.09,0.53
1136.34,0.60
1147.70,0.67
1159.18,0.76
1170.77,0.82
1182.48,0.93
1194.30,1.03
1206.25,1.10
1218.31,1.17
1230.49,1.23
1242.80,1.27
1255.22,1.31
1267.78,1.36
1280.45,1.38
1293.26,1.42
1306.19,1.42
1319.25,1.46
1332.45,1.46
1345.77,1.49
1359.23,1.51
1372.82,1.51
1386.55,1.51
1400.41,1.51
1414.42,1.51
1428.56,1.51
1442.85,1.46
1457.28,1.46
1471.85,1.46
1486.57,1.44
1501.43,1.44
1516.45,1.44
1531.61,1.46
1546.93,1.46
1562.40,1.49
1578.02,1.51
1593.80,1.55
1609.74,1.57
1625.84,1.63
1642.10,1.75
1658.52,1.86
1675.10,2.00
1691.85,2.17
1708.77,2.31
1725.86,2.44
1743.12,2.54
1760.55,2.59
1778.15,2.59
1795.94,2.59
1813.90,2.61
1832.03,2.63
1850.36,2.70
1868.86,2.85
1887.55,2.99
1906.42,3.16
1925.49,3.27
1944.74,3.39
1964.19,3.52
1983.83,3.72
2003.67,3.89
2023.71,4.05
2043.94,4.21
2064.38,4.34
2085.03,4.45
2105.88,4.57
2126.94,4.69
2148.20,4.79
2169.69,4.90
2191.38,5.02
2213.30,5.10
2235.43,5.21
2257.78,5.29
2280.36,5.39
2303.17,5.49
2326.20,5.58
2349.46,5.70
2372.95,5.83
2396.68,5.93
2420.65,6.03
2444.86,6.14
2469.31,6.24
2494.00,6.34
2518.94,6.44
2544.13,6.55
2569.57,6.67
2595.27,6.78
2621.22,6.94
2647.43,7.10
2673.90,7.29
2700.64,7.50
2727.65,7.70
2754.93,7.91
2782.48,8.11
2810.30,8.30
2838.40,8.46
2866.79,8.64
2895.46,8.81
2924.41,8.99
2953.65,9.17
2983.19,9.32
3013.02,9.48
3043.15,9.60
3073.58,9.70
3104.32,9.79
3135.36,9.87
3166.72,9.96
3198.38,10.03
3230.37,10.11
3262.67,10.19
3295.30,10.28
3328.25,10.35
3361.53,10.41
3395.15,10.45
3429.10,10.48
3463.39,10.52
3498.03,10.54
3533.01,10.56
3568.34,10.56
3604.02,10.61
3640.06,10.62
3676.46,10.63
3713.22,10.65
3750.36,10.65
3787.86,10.65
3825.74,10.62
3864.00,10.59
3902.64,10.54
3941.66,10.49
3981.08,10.37
4020.89,10.20
4061.10,9.97
4101.71,9.65
4142.73,9.39
4184.15,9.09
4226.00,8.86
4268.26,8.68
4310.94,8.55
4354.05,8.40
4397.59,8.24
4441.56,8.13
4485.98,7.98
4530.84,7.80
4576.15,7.56
4621.91,7.36
4668.13,7.12
4714.81,6.90
4761.96,6.72
4809.58,6.57
4857.67,6.46
4906.25,6.40
4955.31,6.40
5004.87,6.45
5054.91,6.49
5105.46,6.45
5156.52,6.33
5208.08,6.15
5260.16,5.96
5312.77,5.78
5365.89,5.60
5419.55,5.49
5473.75,5.43
5528.49,5.42
5583.77,5.41
5639.61,5.32
5696.00,5.28
5752.96,5.23
5810.49,5.28
5868.60,5.28
5927.28,5.28
5986.56,5.28
6046.42,5.32
6106.89,5.35
6167.96,5.42
6229.64,5.47
6291.93,5.55
6354.85,5.60
6418.40,5.67
6482.58,5.72
6547.41,5.75
6612.88,5.75
6679.01,5.72
6745.80,5.66
6813.26,5.57
6881.39,5.46
6950.21,5.31
7019.71,5.20
7089.91,5.04
7160.81,4.89
7232.41,4.70
7304.74,4.49
7377.79,4.23
7451.56,3.97
7526.08,3.71
7601.34,3.42
7677.35,3.15
7754.13,2.87
7831.67,2.62
7909.98,2.38
7989.08,2.13
8068.98,1.91
8149.67,1.69
8231.16,1.42
8313.47,1.11
8396.61,0.76
8480.57,0.39
8565.38,0.05
8651.03,-0.28
8737.54,-0.58
8824.92,-0.87
8913.17,-1.18
9002.30,-1.45
9092.32,-1.78
9183.25,-2.27
9275.08,-2.82
9367.83,-3.51
9461.51,-4.20
9556.12,-4.95
9651.68,-5.58
9748.20,-6.12
9845.68,-6.66
9944.14,-7.22
10043.58,-7.54
10144.02,-7.87
10245.46,-8.15
10347.91,-8.26
10451.39,-8.40
10555.91,-8.50
10661.46,-8.48
10768.08,-8.11
10875.76,-7.41
10984.52,-6.94
11094.36,-6.40
11205.31,-5.58
11317.36,-5.13
11430.53,-4.49
11544.84,-3.78
11660.29,-3.31
11776.89,-2.93
11894.66,-2.51
12013.60,-2.14
12133.74,-1.75
12255.08,-1.45
12377.63,-1.26
12501.41,-1.24
12626.42,-1.42
12752.68,-1.65
12880.21,-1.96
13009.01,-2.40
13139.10,-2.85
13270.49,-3.41
13403.20,-3.87
13537.23,-4.47
13672.60,-5.22
13809.33,-5.70
13947.42,-6.27
14086.90,-6.93
14227.77,-7.26
14370.04,-7.70
14513.74,-8.44
14658.88,-8.78
14805.47,-9.18
14953.52,-9.24
15103.06,-9.14
15254.09,-8.50
15406.63,-8.23
15560.70,-7.28
15716.30,-6.38
15873.47,-6.03
16032.20,-5.38
16192.52,-5.00
16354.45,-5.07
16517.99,-5.35
16683.17,-5.77
16850.01,-6.51
17018.51,-7.30
17188.69,-8.03
17360.58,-9.35
17534.18,-10.40
17709.53,-11.11
17886.62,-12.10
18065.49,-12.55
18246.14,-12.82
18428.60,-13.08
18612.89,-13.42
18799.02,-13.88
18987.01,-14.28
19176.88,-14.67
19368.65,-15.02
19562.33,-15.18
19757.96,-15.24
19955.54,-15.28
