frequency,raw,error,smoothed,error_smoothed,equalization,parametric_eq,fixed_band_eq,equalized_raw,equalized_smoothed,target
20.00,0.32,-3.72,0.32,-3.72,3.71,3.90,1.41,4.03,4.03,4.04
20.20,0.32,-3.77,0.33,-3.76,3.76,3.89,1.45,4.08,4.09,4.09
20.40,0.32,-3.82,0.33,-3.81,3.81,3.88,1.50,4.13,4.14,4.14
20.61,0.32,-3.85,0.33,-3.85,3.86,3.87,1.54,4.18,4.19,4.17
20.81,0.32,-3.90,0.32,-3.89,3.91,3.86,1.59,4.23,4.23,4.22
21.02,0.32,-3.93,0.31,-3.94,3.95,3.85,1.64,4.27,4.26,4.26
21.23,0.29,-3.98,0.30,-3.98,3.99,3.84,1.68,4.28,4.29,4.28
21.44,0.27,-4.02,0.27,-4.03,4.03,3.82,1.73,4.30,4.30,4.30
21.66,0.24,-4.07,0.24,-4.07,4.07,3.81,1.79,4.31,4.31,4.32
21.87,0.21,-4.11,0.22,-4.11,4.10,3.80,1.84,4.32,4.32,4.33
22.09,0.19,-4.15,0.19,-4.15,4.13,3.79,1.89,4.33,4.33,4.35
22.31,0.17,-4.18,0.18,-4.18,4.16,3.77,1.95,4.34,4.34,4.35
22.54,0.16,-4.19,0.16,-4.19,4.20,3.76,2.01,4.36,4.36,4.35
22.76,0.14,-4.21,0.14,-4.21,4.23,3.75,2.07,4.37,4.37,4.35
22.99,0.12,-4.22,0.12,-4.23,4.26,3.73,2.13,4.38,4.38,4.34
23.22,0.08,-4.26,0.09,-4.26,4.29,3.72,2.19,4.37,4.38,4.34
23.45,0.05,-4.29,0.05,-4.30,4.31,3.71,2.25,4.36,4.35,4.34
23.69,0.01,-4.34,0.01,-4.34,4.32,3.69,2.32,4.33,4.32,4.35
23.92,-0.03,-4.38,-0.01,-4.36,4.31,3.68,2.38,4.29,4.31,4.35
24.16,0.00,-4.36,0.01,-4.35,4.30,3.67,2.45,4.30,4.31,4.36
24.40,0.07,-4.29,0.07,-4.30,4.27,3.65,2.52,4.35,4.34,4.37
24.65,0.14,-4.21,0.14,-4.22,4.23,3.64,2.59,4.38,4.37,4.36
24.89,0.20,-4.15,0.21,-4.15,4.18,3.62,2.66,4.39,4.39,4.36
25.14,0.26,-4.09,0.26,-4.10,4.13,3.61,2.73,4.39,4.39,4.36
25.39,0.31,-4.05,0.31,-4.05,4.07,3.59,2.80,4.38,4.38,4.36
25.65,0.35,-4.01,0.36,-4.00,4.02,3.58,2.87,4.37,4.37,4.36
25.91,0.40,-3.95,0.40,-3.95,3.96,3.56,2.94,4.37,4.37,4.35
26.16,0.45,-3.90,0.46,-3.90,3.91,3.55,3.01,4.36,4.37,4.35
26.43,0.51,-3.84,0.50,-3.85,3.85,3.53,3.08,4.36,4.35,4.35
26.69,0.56,-3.79,0.56,-3.79,3.77,3.52,3.15,4.33,4.33,4.35
26.96,0.61,-3.74,0.64,-3.72,3.68,3.50,3.21,4.29,4.31,4.36
27.23,0.75,-3.60,0.75,-3.60,3.56,3.48,3.28,4.31,4.31,4.36
27.50,0.90,-3.45,0.90,-3.46,3.43,3.47,3.34,4.33,4.32,4.35
27.77,1.07,-3.28,1.06,-3.29,3.28,3.45,3.40,4.34,4.34,4.34
28.05,1.21,-3.13,1.22,-3.12,3.12,3.43,3.46,4.33,4.34,4.34
28.33,1.37,-2.96,1.38,-2.95,2.96,3.42,3.52,4.33,4.34,4.33
28.62,1.53,-2.80,1.54,-2.79,2.81,3.40,3.57,4.34,4.35,4.33
28.90,1.69,-2.64,1.68,-2.65,2.68,3.38,3.62,4.37,4.35,4.34
29.19,1.79,-2.53,1.79,-2.55,2.58,3.37,3.66,4.37,4.36,4.33
29.48,1.85,-2.49,1.87,-2.47,2.51,3.35,3.70,4.36,4.38,4.34
29.78,1.91,-2.42,1.91,-2.43,2.47,3.33,3.74,4.38,4.38,4.33
30.08,1.93,-2.41,1.91,-2.42,2.45,3.31,3.77,4.38,4.36,4.34
30.38,1.87,-2.45,1.88,-2.45,2.45,3.29,3.79,4.32,4.32,4.33
30.68,1.81,-2.51,1.82,-2.51,2.46,3.28,3.81,4.28,4.28,4.33
30.99,1.75,-2.57,1.77,-2.55,2.50,3.26,3.82,4.25,4.27,4.32
31.30,1.74,-2.58,1.75,-2.57,2.55,3.24,3.83,4.29,4.30,4.32
31.61,1.74,-2.58,1.74,-2.58,2.61,3.22,3.83,4.35,4.35,4.32
31.93,1.73,-2.58,1.71,-2.60,2.67,3.20,3.82,4.40,4.38,4.32
32.24,1.64,-2.66,1.63,-2.68,2.73,3.18,3.81,4.37,4.36,4.31
32.57,1.52,-2.79,1.52,-2.78,2.78,3.16,3.80,4.30,4.30,4.31
32.89,1.40,-2.91,1.43,-2.88,2.82,3.14,3.78,4.23,4.25,4.31
33.22,1.36,-2.93,1.37,-2.93,2.87,3.12,3.75,4.23,4.24,4.30
33.55,1.36,-2.93,1.35,-2.94,2.91,3.10,3.72,4.27,4.26,4.29
33.89,1.36,-2.92,1.36,-2.93,2.94,3.08,3.68,4.31,4.30,4.28
34.23,1.35,-2.94,1.35,-2.93,2.97,3.06,3.64,4.32,4.32,4.29
34.57,1.34,-2.93,1.34,-2.93,2.98,3.04,3.60,4.32,4.32,4.28
34.92,1.33,-2.94,1.33,-2.94,2.98,3.02,3.55,4.31,4.31,4.27
35.27,1.31,-2.96,1.30,-2.96,2.96,3.00,3.50,4.27,4.26,4.27
35.62,1.29,-2.97,1.29,-2.98,2.93,2.98,3.45,4.23,4.22,4.27
35.97,1.27,-2.99,1.31,-2.96,2.89,2.95,3.40,4.17,4.20,4.26
36.33,1.37,-2.89,1.37,-2.89,2.84,2.93,3.34,4.21,4.21,4.27
36.70,1.48,-2.77,1.47,-2.79,2.77,2.91,3.28,4.25,4.24,4.25
37.06,1.58,-2.67,1.58,-2.67,2.69,2.89,3.23,4.27,4.27,4.25
37.43,1.67,-2.59,1.68,-2.58,2.60,2.87,3.17,4.28,4.28,4.27
37.81,1.76,-2.50,1.76,-2.50,2.52,2.84,3.11,4.29,4.28,4.26
38.19,1.82,-2.43,1.83,-2.43,2.46,2.82,3.05,4.28,4.28,4.26
38.57,1.87,-2.39,1.88,-2.38,2.41,2.80,2.99,4.28,4.29,4.26
38.95,1.92,-2.34,1.91,-2.36,2.39,2.78,2.93,4.31,4.29,4.27
39.34,1.90,-2.36,1.90,-2.36,2.38,2.75,2.88,4.29,4.29,4.26
39.74,1.87,-2.38,1.88,-2.38,2.39,2.73,2.82,4.27,4.27,4.26
40.14,1.83,-2.43,1.83,-2.43,2.41,2.70,2.76,4.24,4.24,4.26
40.54,1.79,-2.46,1.79,-2.47,2.44,2.68,2.71,4.23,4.23,4.26
40.94,1.74,-2.51,1.76,-2.49,2.47,2.66,2.66,4.21,4.23,4.25
41.35,1.74,-2.50,1.75,-2.50,2.50,2.63,2.60,4.24,4.24,4.24
41.76,1.75,-2.49,1.74,-2.50,2.51,2.61,2.55,4.27,4.25,4.24
42.18,1.73,-2.51,1.72,-2.51,2.52,2.58,2.51,4.26,4.24,4.24
42.60,1.69,-2.53,1.69,-2.54,2.52,2.56,2.46,4.21,4.21,4.22
43.03,1.65,-2.56,1.68,-2.54,2.51,2.53,2.42,4.16,4.19,4.22
43.46,1.69,-2.52,1.69,-2.52,2.50,2.51,2.37,4.19,4.19,4.21
43.90,1.72,-2.46,1.71,-2.48,2.48,2.48,2.33,4.20,4.19,4.18
44.33,1.73,-2.43,1.73,-2.44,2.46,2.46,2.29,4.19,4.19,4.17
44.78,1.73,-2.41,1.73,-2.42,2.43,2.43,2.26,4.17,4.17,4.15
45.23,1.73,-2.41,1.73,-2.40,2.40,2.40,2.22,4.14,4.13,4.14
45.68,1.73,-2.39,1.74,-2.39,2.38,2.38,2.19,4.11,4.11,4.12
46.13,1.74,-2.36,1.76,-2.35,2.35,2.35,2.15,4.09,4.10,4.10
46.60,1.79,-2.31,1.79,-2.30,2.31,2.32,2.12,4.11,4.10,4.10
47.06,1.83,-2.25,1.81,-2.27,2.28,2.30,2.10,4.11,4.09,4.08
47.53,1.83,-2.24,1.83,-2.25,2.23,2.27,2.07,4.06,4.06,4.07
48.01,1.83,-2.24,1.86,-2.21,2.18,2.24,2.04,4.01,4.03,4.07
48.49,1.89,-2.16,1.89,-2.16,2.12,2.21,2.02,4.01,4.02,4.05
48.97,1.96,-2.07,1.95,-2.08,2.07,2.19,2.00,4.04,4.03,4.03
49.46,2.00,-2.01,2.01,-2.00,2.03,2.16,1.98,4.04,4.04,4.01
49.96,2.04,-1.94,2.04,-1.96,2.00,2.13,1.96,4.05,4.04,3.99
50.46,2.04,-1.94,2.04,-1.94,1.98,2.10,1.94,4.02,4.03,3.98
50.96,2.03,-1.94,2.02,-1.94,1.97,2.07,1.92,4.00,3.99,3.97
51.47,1.98,-1.97,1.98,-1.97,1.96,2.04,1.90,3.95,3.95,3.95
51.99,1.93,-2.00,1.95,-1.99,1.96,2.01,1.89,3.90,3.91,3.94
52.51,1.92,-2.01,1.92,-2.01,1.97,1.98,1.87,3.89,3.89,3.93
53.03,1.92,-2.00,1.92,-2.00,1.97,1.95,1.86,3.90,3.89,3.93
53.56,1.93,-1.98,1.93,-1.98,1.98,1.92,1.84,3.91,3.91,3.91
54.10,1.93,-1.96,1.94,-1.96,1.98,1.89,1.83,3.91,3.91,3.90
54.64,1.94,-1.94,1.94,-1.94,1.97,1.86,1.81,3.92,3.91,3.88
55.18,1.93,-1.94,1.93,-1.94,1.97,1.83,1.80,3.90,3.90,3.87
55.74,1.90,-1.95,1.90,-1.96,1.97,1.79,1.79,3.87,3.87,3.86
56.29,1.87,-1.98,1.87,-1.97,1.97,1.76,1.77,3.84,3.84,3.85
56.86,1.84,-1.99,1.85,-1.98,1.97,1.73,1.75,3.81,3.82,3.83
57.42,1.83,-1.97,1.84,-1.98,1.97,1.70,1.74,3.80,3.80,3.80
58.00,1.83,-1.96,1.83,-1.97,1.95,1.66,1.72,3.79,3.78,3.79
58.58,1.83,-1.95,1.83,-1.95,1.93,1.63,1.70,3.76,3.76,3.78
59.16,1.83,-1.93,1.84,-1.93,1.90,1.60,1.68,3.74,3.74,3.76
59.76,1.85,-1.89,1.86,-1.87,1.87,1.56,1.66,3.72,3.73,3.74
60.35,1.88,-1.82,1.89,-1.82,1.83,1.53,1.64,3.72,3.72,3.70
60.96,1.93,-1.74,1.90,-1.77,1.80,1.49,1.61,3.73,3.70,3.67
61.57,1.88,-1.74,1.89,-1.74,1.76,1.46,1.58,3.64,3.65,3.63
62.18,1.85,-1.73,1.86,-1.72,1.73,1.42,1.55,3.58,3.59,3.58
62.80,1.83,-1.70,1.84,-1.70,1.69,1.38,1.52,3.52,3.53,3.54
63.43,1.83,-1.66,1.83,-1.66,1.65,1.35,1.49,3.48,3.48,3.49
64.07,1.83,-1.61,1.83,-1.62,1.61,1.31,1.46,3.44,3.44,3.45
64.71,1.83,-1.57,1.83,-1.58,1.56,1.27,1.42,3.39,3.38,3.40
65.35,1.83,-1.53,1.83,-1.52,1.50,1.24,1.38,3.34,3.34,3.36
66.01,1.83,-1.48,1.86,-1.45,1.45,1.20,1.34,3.28,3.31,3.31
66.67,1.91,-1.35,1.90,-1.37,1.39,1.16,1.30,3.30,3.28,3.26
67.33,1.94,-1.27,1.93,-1.29,1.32,1.12,1.26,3.27,3.25,3.21
68.01,1.93,-1.24,1.94,-1.23,1.26,1.08,1.21,3.19,3.20,3.17
68.69,1.93,-1.19,1.93,-1.19,1.19,1.04,1.16,3.13,3.12,3.12
69.37,1.92,-1.15,1.92,-1.15,1.13,1.00,1.12,3.05,3.05,3.07
70.07,1.91,-1.11,1.93,-1.09,1.06,0.96,1.07,2.97,2.99,3.02
70.77,1.96,-1.01,1.96,-1.01,0.99,0.92,1.01,2.95,2.95,2.97
71.48,2.00,-0.92,2.00,-0.92,0.92,0.87,0.96,2.93,2.92,2.92
72.19,2.03,-0.82,2.03,-0.83,0.86,0.83,0.91,2.89,2.88,2.86
72.91,2.03,-0.77,2.04,-0.76,0.78,0.79,0.85,2.82,2.82,2.80
73.64,2.03,-0.71,2.04,-0.71,0.71,0.75,0.80,2.74,2.75,2.74
74.38,2.03,-0.65,2.03,-0.65,0.64,0.70,0.74,2.68,2.68,2.68
75.12,2.03,-0.59,2.03,-0.59,0.58,0.66,0.69,2.61,2.61,2.63
75.87,2.03,-0.53,2.03,-0.54,0.53,0.61,0.63,2.56,2.56,2.57
76.63,2.03,-0.48,2.03,-0.48,0.48,0.57,0.57,2.52,2.52,2.52
77.40,2.03,-0.43,2.04,-0.42,0.45,0.52,0.51,2.48,2.49,2.47
78.17,2.03,-0.37,2.03,-0.38,0.41,0.48,0.45,2.44,2.44,2.40
78.95,2.03,-0.34,2.00,-0.36,0.37,0.43,0.39,2.41,2.38,2.37
79.74,1.94,-0.37,1.97,-0.35,0.34,0.39,0.33,2.28,2.31,2.32
80.54,1.92,-0.35,1.94,-0.33,0.31,0.34,0.27,2.23,2.25,2.27
81.35,1.93,-0.29,1.92,-0.30,0.28,0.29,0.21,2.21,2.20,2.22
82.16,1.93,-0.24,1.93,-0.25,0.24,0.24,0.15,2.17,2.17,2.17
82.98,1.93,-0.20,1.93,-0.19,0.20,0.20,0.09,2.14,2.14,2.14
83.81,1.93,-0.15,1.93,-0.15,0.16,0.15,0.03,2.09,2.09,2.08
84.65,1.93,-0.10,1.93,-0.10,0.11,0.10,-0.03,2.04,2.04,2.03
85.50,1.93,-0.06,1.93,-0.06,0.06,0.05,-0.09,1.99,1.99,1.99
86.35,1.93,-0.01,1.93,-0.01,0.01,0.00,-0.15,1.94,1.94,1.94
87.22,1.93,0.04,1.93,0.04,-0.04,-0.05,-0.22,1.89,1.89,1.89
88.09,1.93,0.09,1.94,0.09,-0.09,-0.10,-0.28,1.84,1.84,1.84
88.97,1.94,0.15,1.94,0.15,-0.15,-0.15,-0.34,1.80,1.79,1.79
89.86,1.94,0.20,1.94,0.20,-0.20,-0.20,-0.40,1.74,1.74,1.74
90.76,1.94,0.25,1.94,0.25,-0.25,-0.25,-0.47,1.69,1.69,1.69
91.66,1.94,0.30,1.94,0.30,-0.30,-0.30,-0.53,1.64,1.64,1.65
92.58,1.94,0.36,1.94,0.35,-0.35,-0.35,-0.59,1.59,1.59,1.58
93.51,1.94,0.40,1.94,0.40,-0.40,-0.40,-0.66,1.54,1.54,1.54
94.44,1.94,0.45,1.94,0.45,-0.45,-0.45,-0.72,1.49,1.49,1.50
95.39,1.94,0.49,1.94,0.50,-0.50,-0.50,-0.79,1.45,1.45,1.45
96.34,1.94,0.55,1.94,0.54,-0.54,-0.56,-0.85,1.41,1.40,1.40
97.30,1.93,0.58,1.93,0.58,-0.58,-0.61,-0.91,1.36,1.36,1.35
98.28,1.92,0.62,1.92,0.62,-0.61,-0.66,-0.98,1.31,1.31,1.31
99.26,1.91,0.65,1.91,0.65,-0.65,-0.71,-1.04,1.26,1.26,1.26
100.25,1.89,0.68,1.89,0.68,-0.68,-0.76,-1.11,1.21,1.21,1.21
101.25,1.87,0.70,1.88,0.71,-0.71,-0.81,-1.17,1.16,1.16,1.17
102.27,1.86,0.74,1.86,0.74,-0.74,-0.86,-1.23,1.12,1.12,1.12
103.29,1.85,0.79,1.85,0.78,-0.77,-0.91,-1.30,1.08,1.08,1.07
104.32,1.83,0.80,1.83,0.80,-0.80,-0.96,-1.36,1.04,1.03,1.03
105.37,1.80,0.82,1.81,0.82,-0.82,-1.01,-1.42,0.98,0.99,0.98
106.42,1.78,0.85,1.78,0.85,-0.84,-1.06,-1.48,0.94,0.94,0.94
107.48,1.75,0.87,1.76,0.87,-0.87,-1.11,-1.54,0.89,0.89,0.88
108.56,1.73,0.91,1.74,0.91,-0.90,-1.16,-1.60,0.84,0.84,0.82
109.64,1.71,0.93,1.71,0.93,-0.93,-1.21,-1.66,0.78,0.78,0.78
110.74,1.69,0.97,1.67,0.95,-0.98,-1.26,-1.71,0.72,0.70,0.72
111.85,1.65,0.97,1.67,0.99,-1.03,-1.31,-1.77,0.63,0.64,0.69
112.97,1.64,1.02,1.69,1.06,-1.08,-1.35,-1.82,0.56,0.60,0.62
114.10,1.76,1.19,1.72,1.14,-1.14,-1.40,-1.87,0.62,0.58,0.58
115.24,1.76,1.23,1.76,1.23,-1.20,-1.45,-1.91,0.57,0.56,0.53
116.39,1.76,1.29,1.77,1.29,-1.26,-1.49,-1.96,0.51,0.52,0.48
117.55,1.76,1.32,1.77,1.32,-1.31,-1.54,-2.00,0.45,0.45,0.44
118.73,1.77,1.37,1.77,1.37,-1.37,-1.58,-2.04,0.40,0.40,0.40
119.92,1.77,1.40,1.78,1.41,-1.42,-1.63,-2.08,0.36,0.36,0.38
121.12,1.78,1.45,1.78,1.45,-1.46,-1.67,-2.11,0.32,0.32,0.33
122.33,1.79,1.49,1.79,1.49,-1.50,-1.71,-2.14,0.30,0.30,0.30
123.55,1.80,1.52,1.80,1.53,-1.53,-1.75,-2.17,0.27,0.27,0.28
124.79,1.80,1.56,1.81,1.56,-1.56,-1.80,-2.19,0.25,0.25,0.25
126.03,1.81,1.60,1.82,1.60,-1.58,-1.84,-2.21,0.23,0.24,0.22
127.29,1.82,1.63,1.82,1.63,-1.60,-1.88,-2.22,0.22,0.22,0.20
128.57,1.82,1.67,1.80,1.64,-1.62,-1.92,-2.24,0.20,0.17,0.16
129.85,1.75,1.62,1.76,1.63,-1.64,-1.95,-2.25,0.11,0.12,0.13
131.15,1.71,1.61,1.74,1.63,-1.66,-1.99,-2.26,0.05,0.08,0.10
132.46,1.73,1.66,1.73,1.65,-1.68,-2.03,-2.26,0.05,0.05,0.07
133.79,1.74,1.70,1.74,1.69,-1.70,-2.06,-2.26,0.04,0.04,0.05
135.12,1.75,1.74,1.75,1.73,-1.72,-2.10,-2.26,0.03,0.03,0.01
136.48,1.75,1.76,1.75,1.76,-1.75,-2.13,-2.26,0.00,0.00,-0.00
137.84,1.75,1.79,1.75,1.79,-1.78,-2.17,-2.25,-0.03,-0.03,-0.04
139.22,1.75,1.82,1.75,1.82,-1.82,-2.20,-2.24,-0.07,-0.06,-0.07
140.61,1.75,1.86,1.76,1.85,-1.85,-2.23,-2.23,-0.10,-0.09,-0.10
142.02,1.76,1.88,1.76,1.88,-1.88,-2.26,-2.22,-0.12,-0.12,-0.12
143.44,1.76,1.91,1.76,1.91,-1.91,-2.29,-2.21,-0.15,-0.15,-0.15
144.87,1.76,1.95,1.76,1.95,-1.95,-2.32,-2.20,-0.18,-0.18,-0.19
146.32,1.76,1.99,1.76,1.98,-1.98,-2.35,-2.19,-0.22,-0.22,-0.23
147.78,1.76,2.02,1.76,2.02,-2.03,-2.37,-2.18,-0.27,-0.27,-0.26
149.26,1.75,2.06,1.76,2.07,-2.08,-2.40,-2.16,-0.33,-0.32,-0.30
150.75,1.75,2.12,1.76,2.12,-2.13,-2.43,-2.15,-0.38,-0.38,-0.37
152.26,1.76,2.20,1.76,2.19,-2.19,-2.45,-2.14,-0.43,-0.44,-0.44
153.78,1.76,2.27,1.76,2.27,-2.26,-2.47,-2.12,-0.50,-0.50,-0.50
155.32,1.76,2.34,1.76,2.34,-2.33,-2.50,-2.11,-0.57,-0.57,-0.58
156.88,1.76,2.41,1.76,2.42,-2.42,-2.52,-2.10,-0.65,-0.65,-0.65
158.44,1.76,2.50,1.76,2.49,-2.50,-2.54,-2.09,-0.74,-0.75,-0.73
160.03,1.76,2.58,1.76,2.58,-2.60,-2.56,-2.08,-0.83,-0.84,-0.82
161.63,1.76,2.65,1.78,2.66,-2.69,-2.58,-2.07,-0.93,-0.91,-0.89
163.24,1.82,2.77,1.82,2.77,-2.78,-2.60,-2.06,-0.95,-0.96,-0.95
164.88,1.86,2.86,1.87,2.87,-2.86,-2.61,-2.06,-1.00,-0.99,-1.00
166.53,1.93,2.98,1.92,2.96,-2.93,-2.63,-2.05,-1.00,-1.01,-1.05
168.19,1.94,3.03,1.94,3.03,-2.99,-2.65,-2.05,-1.05,-1.05,-1.09
169.87,1.93,3.06,1.94,3.06,-3.04,-2.66,-2.04,-1.11,-1.10,-1.12
171.57,1.93,3.07,1.93,3.07,-3.07,-2.67,-2.04,-1.14,-1.14,-1.14
173.29,1.92,3.08,1.92,3.08,-3.08,-2.69,-2.04,-1.16,-1.16,-1.16
175.02,1.92,3.09,1.92,3.09,-3.09,-2.70,-2.05,-1.16,-1.17,-1.16
176.77,1.91,3.09,1.92,3.09,-3.09,-2.71,-2.05,-1.18,-1.17,-1.18
178.54,1.91,3.09,1.92,3.09,-3.09,-2.72,-2.06,-1.18,-1.18,-1.18
180.32,1.92,3.10,1.90,3.08,-3.11,-2.73,-2.06,-1.18,-1.20,-1.17
182.13,1.91,3.08,1.92,3.09,-3.13,-2.74,-2.07,-1.21,-1.21,-1.17
183.95,1.91,3.09,1.95,3.13,-3.16,-2.75,-2.08,-1.24,-1.20,-1.18
185.79,2.03,3.21,2.00,3.19,-3.19,-2.76,-2.10,-1.16,-1.19,-1.18
187.65,2.06,3.26,2.05,3.25,-3.23,-2.77,-2.11,-1.16,-1.18,-1.20
189.52,2.07,3.28,2.08,3.29,-3.27,-2.77,-2.13,-1.20,-1.19,-1.21
191.42,2.08,3.31,2.09,3.32,-3.31,-2.78,-2.14,-1.23,-1.22,-1.23
193.33,2.10,3.35,2.10,3.35,-3.36,-2.78,-2.16,-1.25,-1.25,-1.25
195.27,2.12,3.39,2.12,3.39,-3.39,-2.79,-2.18,-1.27,-1.27,-1.27
197.22,2.13,3.42,2.13,3.42,-3.43,-2.79,-2.20,-1.29,-1.29,-1.29
199.19,2.14,3.46,2.14,3.45,-3.46,-2.80,-2.22,-1.31,-1.31,-1.31
201.18,2.15,3.48,2.15,3.48,-3.48,-2.80,-2.25,-1.33,-1.33,-1.33
203.19,2.15,3.50,2.15,3.50,-3.51,-2.80,-2.27,-1.35,-1.35,-1.35
205.23,2.15,3.52,2.15,3.52,-3.52,-2.80,-2.29,-1.37,-1.37,-1.37
207.28,2.15,3.53,2.16,3.54,-3.53,-2.80,-2.32,-1.38,-1.38,-1.38
209.35,2.15,3.55,2.16,3.56,-3.54,-2.81,-2.35,-1.38,-1.38,-1.40
211.44,2.15,3.59,2.13,3.56,-3.53,-2.81,-2.37,-1.38,-1.40,-1.43
213.56,2.10,3.54,2.10,3.54,-3.53,-2.80,-2.40,-1.43,-1.43,-1.44
215.69,2.03,3.48,2.06,3.51,-3.53,-2.80,-2.42,-1.50,-1.47,-1.45
217.85,2.03,3.50,2.03,3.50,-3.53,-2.80,-2.45,-1.50,-1.50,-1.46
220.03,2.04,3.52,2.03,3.51,-3.54,-2.80,-2.48,-1.50,-1.51,-1.48
222.23,2.03,3.53,2.03,3.52,-3.55,-2.80,-2.50,-1.51,-1.52,-1.50
224.45,2.03,3.52,2.05,3.54,-3.55,-2.80,-2.53,-1.52,-1.50,-1.49
226.70,2.05,3.54,2.10,3.59,-3.55,-2.79,-2.55,-1.50,-1.46,-1.49
228.96,2.17,3.66,2.12,3.60,-3.56,-2.79,-2.57,-1.38,-1.44,-1.48
231.25,2.14,3.62,2.11,3.58,-3.55,-2.78,-2.60,-1.41,-1.44,-1.47
233.57,2.02,3.49,2.09,3.55,-3.53,-2.78,-2.62,-1.51,-1.44,-1.46
235.90,2.02,3.48,2.04,3.49,-3.51,-2.77,-2.63,-1.48,-1.47,-1.45
238.26,2.06,3.50,2.00,3.44,-3.47,-2.77,-2.65,-1.41,-1.47,-1.44
240.64,1.97,3.39,2.01,3.43,-3.44,-2.76,-2.67,-1.47,-1.43,-1.42
243.05,1.96,3.35,1.99,3.39,-3.40,-2.76,-2.68,-1.43,-1.40,-1.39
245.48,2.02,3.39,1.96,3.33,-3.34,-2.75,-2.69,-1.32,-1.38,-1.37
247.93,1.94,3.28,1.97,3.31,-3.28,-2.75,-2.70,-1.34,-1.31,-1.34
250.41,1.91,3.24,1.96,3.28,-3.23,-2.74,-2.70,-1.31,-1.26,-1.32
252.92,1.99,3.28,1.93,3.22,-3.18,-2.73,-2.71,-1.19,-1.26,-1.29
255.45,1.88,3.15,1.87,3.14,-3.15,-2.72,-2.71,-1.27,-1.28,-1.27
258.00,1.77,3.02,1.78,3.03,-3.12,-2.72,-2.71,-1.34,-1.34,-1.25
260.58,1.69,2.93,1.73,2.96,-3.08,-2.71,-2.71,-1.39,-1.35,-1.23
263.19,1.74,2.94,1.80,3.00,-3.03,-2.70,-2.70,-1.29,-1.24,-1.20
265.82,1.91,3.10,1.88,3.06,-2.98,-2.69,-2.70,-1.07,-1.10,-1.19
268.48,1.98,3.14,1.88,3.04,-2.92,-2.68,-2.69,-0.94,-1.04,-1.16
271.16,1.80,2.93,1.82,2.96,-2.86,-2.68,-2.68,-1.06,-1.04,-1.13
273.87,1.60,2.72,1.69,2.80,-2.80,-2.67,-2.67,-1.20,-1.11,-1.11
276.61,1.63,2.71,1.57,2.65,-2.73,-2.66,-2.66,-1.10,-1.17,-1.08
279.38,1.51,2.57,1.52,2.57,-2.65,-2.65,-2.65,-1.14,-1.13,-1.05
282.17,1.45,2.48,1.50,2.53,-2.56,-2.64,-2.63,-1.11,-1.06,-1.03
284.99,1.50,2.50,1.47,2.48,-2.47,-2.63,-2.62,-0.97,-0.99,-0.99
287.84,1.48,2.46,1.47,2.44,-2.39,-2.62,-2.60,-0.91,-0.93,-0.98
290.72,1.42,2.37,1.42,2.36,-2.33,-2.61,-2.59,-0.91,-0.91,-0.94
293.63,1.35,2.27,1.35,2.27,-2.28,-2.60,-2.58,-0.92,-0.92,-0.92
296.57,1.27,2.16,1.32,2.21,-2.23,-2.59,-2.56,-0.95,-0.91,-0.88
299.53,1.31,2.17,1.29,2.15,-2.17,-2.58,-2.55,-0.86,-0.88,-0.86
302.53,1.30,2.14,1.26,2.09,-2.11,-2.57,-2.54,-0.81,-0.85,-0.84
305.55,1.21,2.01,1.25,2.05,-2.05,-2.56,-2.52,-0.83,-0.80,-0.79
308.61,1.20,1.98,1.24,2.01,-1.99,-2.55,-2.51,-0.79,-0.75,-0.78
311.69,1.24,1.99,1.22,1.96,-1.94,-2.55,-2.50,-0.70,-0.72,-0.75
314.81,1.22,1.95,1.17,1.90,-1.89,-2.54,-2.49,-0.66,-0.72,-0.72
317.96,1.08,1.79,1.10,1.81,-1.83,-2.53,-2.49,-0.75,-0.73,-0.71
321.14,0.98,1.68,1.05,1.74,-1.77,-2.52,-2.48,-0.78,-0.72,-0.70
324.35,1.02,1.71,1.01,1.70,-1.70,-2.51,-2.48,-0.68,-0.69,-0.68
327.59,1.05,1.72,1.00,1.67,-1.64,-2.50,-2.47,-0.59,-0.64,-0.67
330.87,0.95,1.61,0.95,1.61,-1.59,-2.49,-2.47,-0.63,-0.63,-0.66
334.18,0.87,1.52,0.87,1.52,-1.53,-2.48,-2.47,-0.66,-0.66,-0.64
337.52,0.77,1.41,0.82,1.45,-1.48,-2.47,-2.48,-0.70,-0.66,-0.63
340.90,0.80,1.42,0.80,1.42,-1.43,-2.47,-2.48,-0.63,-0.63,-0.62
344.30,0.84,1.45,0.79,1.40,-1.39,-2.46,-2.49,-0.54,-0.60,-0.61
347.75,0.76,1.38,0.77,1.38,-1.36,-2.45,-2.50,-0.59,-0.58,-0.61
351.23,0.71,1.32,0.72,1.33,-1.34,-2.44,-2.51,-0.62,-0.61,-0.60
354.74,0.69,1.30,0.70,1.30,-1.33,-2.44,-2.52,-0.64,-0.64,-0.61
358.28,0.69,1.29,0.72,1.32,-1.35,-2.43,-2.53,-0.65,-0.63,-0.60
361.87,0.78,1.38,0.76,1.36,-1.37,-2.42,-2.55,-0.59,-0.61,-0.60
365.49,0.82,1.42,0.80,1.40,-1.40,-2.42,-2.57,-0.58,-0.60,-0.59
369.14,0.83,1.44,0.86,1.46,-1.45,-2.41,-2.59,-0.61,-0.59,-0.60
372.83,0.90,1.51,0.91,1.51,-1.50,-2.41,-2.61,-0.60,-0.60,-0.61
376.56,0.98,1.59,0.97,1.58,-1.57,-2.40,-2.63,-0.58,-0.59,-0.61
380.33,1.04,1.64,1.04,1.64,-1.63,-2.40,-2.66,-0.59,-0.59,-0.60
384.13,1.10,1.70,1.10,1.71,-1.70,-2.39,-2.69,-0.60,-0.60,-0.60
387.97,1.15,1.77,1.15,1.76,-1.78,-2.39,-2.71,-0.62,-0.62,-0.61
391.85,1.22,1.85,1.22,1.84,-1.85,-2.39,-2.74,-0.63,-0.63,-0.62
395.77,1.27,1.89,1.29,1.92,-1.93,-2.39,-2.78,-0.66,-0.64,-0.62
399.73,1.39,2.02,1.38,2.00,-2.01,-2.38,-2.81,-0.61,-0.63,-0.63
403.72,1.46,2.09,1.46,2.09,-2.08,-2.38,-2.84,-0.62,-0.62,-0.63
407.76,1.54,2.18,1.54,2.18,-2.16,-2.38,-2.88,-0.61,-0.62,-0.64
411.84,1.60,2.24,1.60,2.24,-2.23,-2.38,-2.91,-0.63,-0.63,-0.64
415.96,1.65,2.30,1.66,2.31,-2.30,-2.38,-2.95,-0.65,-0.64,-0.64
420.12,1.72,2.37,1.72,2.36,-2.37,-2.39,-2.98,-0.65,-0.65,-0.64
424.32,1.78,2.43,1.78,2.43,-2.44,-2.39,-3.02,-0.65,-0.65,-0.64
428.56,1.85,2.49,1.86,2.50,-2.50,-2.39,-3.05,-0.65,-0.64,-0.64
432.85,1.94,2.57,1.93,2.56,-2.57,-2.40,-3.09,-0.63,-0.64,-0.63
437.18,2.02,2.64,2.01,2.62,-2.64,-2.40,-3.12,-0.62,-0.63,-0.62
441.55,2.06,2.64,2.11,2.69,-2.70,-2.41,-3.15,-0.64,-0.59,-0.58
445.96,2.22,2.77,2.22,2.77,-2.76,-2.41,-3.18,-0.53,-0.54,-0.55
450.42,2.35,2.87,2.32,2.84,-2.81,-2.42,-3.21,-0.46,-0.49,-0.52
454.93,2.41,2.88,2.42,2.89,-2.86,-2.43,-3.24,-0.45,-0.44,-0.47
459.48,2.47,2.90,2.48,2.90,-2.90,-2.44,-3.26,-0.43,-0.42,-0.42
464.07,2.54,2.92,2.53,2.90,-2.94,-2.45,-3.28,-0.39,-0.40,-0.37
468.71,2.59,2.91,2.61,2.93,-2.96,-2.46,-3.30,-0.36,-0.34,-0.31
473.40,2.68,2.96,2.70,2.97,-2.97,-2.47,-3.32,-0.28,-0.26,-0.27
478.13,2.80,3.02,2.77,2.99,-2.97,-2.49,-3.33,-0.17,-0.20,-0.22
482.91,2.84,3.02,2.82,3.00,-2.97,-2.50,-3.34,-0.13,-0.15,-0.18
487.74,2.81,2.95,2.84,2.97,-2.96,-2.52,-3.34,-0.15,-0.13,-0.14
492.62,2.83,2.92,2.84,2.94,-2.96,-2.53,-3.34,-0.12,-0.12,-0.09
497.55,2.86,2.93,2.86,2.92,-2.94,-2.55,-3.33,-0.08,-0.09,-0.07
502.52,2.88,2.92,2.89,2.93,-2.92,-2.57,-3.32,-0.04,-0.04,-0.04
507.55,2.90,2.93,2.89,2.92,-2.90,-2.58,-3.31,0.00,-0.01,-0.03
512.62,2.89,2.91,2.88,2.90,-2.88,-2.60,-3.29,0.01,-0.00,-0.02
517.75,2.84,2.85,2.86,2.87,-2.87,-2.62,-3.26,-0.03,-0.02,-0.01
522.93,2.82,2.84,2.83,2.86,-2.88,-2.64,-3.24,-0.05,-0.05,-0.02
