frequency,raw
20,-18.33849957810662
21,-17.768805759954688
22,-17.203951175207937
23,-16.491142813639556
24,-15.890609507113881
25,-15.237765803045932
26,-14.665983981546052
27,-14.19111797498853
28,-13.694276054931375
29,-12.910197607129579
30,-12.565781127226382
31,-12.242759579708549
32,-11.625478225337332
33,-11.234435089491262
34,-10.828592178157555
35,-10.25847201367735
36,-9.821794399367432
37,-9.485223869155694
38,-9.2490307926231
39,-8.723545703079616
40,-8.190400966108047
41,-7.910838346246609
42,-7.757499175019518
43,-7.369359778083951
44,-7.005702445339355
45,-6.713947934402815
46,-6.451801291718417
47,-6.188782039347296
48,-5.884189372261963
49,-5.638238626209316
50,-5.297831234483889
51,-5.0569956737892685
52,-4.793058765848221
53,-4.480228400519138
54,-4.340642645728098
55,-4.324993072127865
56,-4.131639377829242
57,-3.9989554956809332
58,-3.6247119515646262
59,-3.3028912385419664
60,-3.098470452317391
61,-2.9318283981047033
62,-2.7815643116578657
63,-2.6809895597677826
64,-2.5804149310123594
65,-2.479840524752768
66,-2.4798411293982654
67,-2.479842014249546
68,-2.4798429785236067
69,-2.4798435596083164
70,-2.4798430112603786
71,-2.4798403988731783
72,-2.4798348670527006
73,-2.580400816448212
74,-2.580389675998255
75,-2.269189846754264
76,-2.280855871765382
77,-2.283716235440277
78,-2.028450263384277
79,-1.9967360780571237
80,-1.9368757066684128
81,-1.7095362145152075
82,-1.5241822189905951
83,-1.39323359790651
84,-1.204744895465348
85,-1.0132133713759095
86,-0.9714021981998394
87,-0.9289870121823922
88,-0.7012213785482962
89,-0.6762716642806302
90,-0.6858021227210365
91,-0.5636002047485384
92,-0.5622313004435667
93,-0.5257334612571485
94,-0.4607813938974077
95,-0.37268799161399835
96,-0.3648706032605481
97,-0.37048893692509044
98,-0.37884483251463497
99,-0.39019970852286756
100,-0.4079667683997912
101,-0.4220796948850928
102,-0.37261856343183775
104,-0.3639093868327825
105,-0.38770884149633766
106,-0.4122259843482954
107,-0.43660200552410444
108,-0.4599703601973806
109,-0.4815169731818034
110,-0.5005353861967072
111,-0.5164724241556515
112,-0.5430181730476
113,-0.6374269198113629
114,-0.6772223216505038
115,-0.7462493384004372
117,-0.7452497705660455
118,-0.7417906399053082
119,-0.7364349019429244
120,-0.7297564754228294
121,-0.7222915914021897
123,-0.7144996942384729
124,-0.7067382312594039
125,-0.6992536082147152
126,-0.692188045994095
128,-0.6855995213188621
129,-0.6794899306761526
130,-0.6738355222267574
131,-0.732148134414109
133,-0.7643964966685926
134,-0.7600592217090525
135,-0.7571651822088143
137,-0.8535327657459812
138,-0.8508870850086943
140,-0.8488969962149715
141,-0.8475578968556889
142,-0.846818623626457
144,-0.8465809479896644
145,-0.8815154244175638
147,-0.9476093625143984
148,-0.9479700760813627
150,-0.9572228169902941
151,-1.0211716977234213
153,-1.0485298275011459
154,-1.047998182126523
156,-1.047309216473655
157,-1.046647702936474
159,-1.0462659108155719
160,-1.0464577411529536
162,-1.093055436805977
164,-1.3011458376240914
165,-1.325565558449968
167,-1.4825769059140312
169,-1.6673040100025143
170,-1.673982599959106
172,-1.6121430407435353
174,-1.4861460950833363
175,-1.491301703073047
177,-1.4944206714138188
179,-1.4948308038135443
181,-1.5486835673869144
183,-1.5864634234077803
184,-1.5770065097028758
186,-1.5646729217881372
188,-1.5501455917862197
190,-1.5343008460268535
192,-1.5181077529871907
194,-1.5025190102895352
196,-1.4883702352450747
198,-1.5068132873855273
200,-1.5672927856195906
202,-1.5603476256239508
204,-1.5559768211994371
206,-1.5539437512771028
208,-1.5538997845520237
210,-1.5554409187143745
212,-1.5581501041824968
214,-1.561618789557559
216,-1.565447269453068
218,-1.5692293040861156
221,-1.6394958958125825
223,-1.6754491374936769
225,-1.6763145628919212
227,-1.7484478964564347
229,-1.8223418372934157
232,-1.8974924305333238
234,-1.9567377026999904
236,-1.9436796355382466
239,-1.9276563555604005
241,-1.9092193853529755
244,-1.7886135404828893
246,-1.768011019514124
248,-1.7479651714448388
251,-1.7295903760630096
253,-1.7138632919464236
256,-1.701510842179626
259,-1.5923510532124319
261,-1.587546673771914
264,-1.586157011827535
266,-1.5874821100573566
269,-1.5905723815776285
272,-1.5975069969021911
274,-1.6713483590729945
277,-1.7032659001797175
280,-1.699959124937295
283,-1.6970559028613743
286,-1.6913410797558446
288,-1.7444577872643432
291,-1.7931517955643412
294,-1.7619168123673936
297,-1.7333697914718458
300,-1.715496897391713
303,-1.8068843505996044
306,-1.8442270233671783
309,-1.9061122998665927
312,-1.965870637087705
316,-2.0717193438810493
319,-2.172610215838144
322,-2.261911292005901
325,-2.301385965243076
328,-2.39123868553287
332,-2.4595504023623382
335,-2.5016577742690043
338,-2.5036025132792434
342,-2.5997714679703217
345,-2.6621211969183136
349,-2.7066765330480838
352,-2.755541992143293
356,-2.831286165425583
359,-2.8996480025919045
363,-2.958982744037474
366,-3.031702741695374
370,-3.0786541733921617
374,-3.0737675519930803
377,-3.14264244620405
381,-3.186440195755327
385,-3.2804257950480684
389,-3.3508059035763753
393,-3.4941079556251555
397,-3.6373983039165996
401,-3.763757983871785
405,-3.8112125367812655
409,-3.915633668362238
413,-4.1194229329018075
417,-4.261888046855312
421,-4.386814836791682
425,-4.575509891676495
430,-4.816204203324176
434,-5.001777551641671
438,-5.229636684283354
443,-5.3724122127565455
447,-5.345781099719597
451,-5.406124320433254
456,-5.59765939933664
460,-5.642182440076351
465,-5.728207244528969
470,-5.756426424458248
474,-5.89867818254868
479,-5.841476396349262
484,-5.763178634141685
489,-5.68922804539919
494,-6.0689891606656134
499,-6.058994771812012
504,-5.939094466756237
509,-5.750908869325229
514,-5.846560188331604
519,-6.124551705001419
524,-6.048073539769028
529,-5.982950245324624
535,-6.048456998815817
540,-6.165498703312001
545,-6.2654674456315975
551,-6.165250644126111
556,-6.116422347057423
562,-6.089679126338036
568,-6.154602313544721
573,-6.118053628656765
579,-6.016066876447217
585,-5.914798974853613
591,-5.777030706656627
596,-5.718241846526394
602,-5.571948575356132
608,-5.419368840128289
615,-5.223560295771257
621,-5.011780638778168
627,-4.881244054284644
633,-4.731488510052314
639,-4.541088205114571
646,-4.442130907206458
652,-4.337530102772337
659,-4.140119043329027
665,-4.002271052999281
672,-3.7929698898428557
679,-3.5601713170175597
686,-3.559363993444071
692,-3.484363333334891
699,-3.3639398723538005
706,-3.194767468521942
713,-3.108290407199747
721,-2.986987799472379
728,-2.837389154387903
735,-2.6988420616591733
742,-2.6176599618392697
750,-2.555047145310888
757,-2.483142607936498
765,-2.4136983468711044
773,-2.487383776557526
780,-2.53498639029644
788,-2.5880939437108377
796,-2.558576267947286
804,-2.4609197429011402
812,-2.2832110479451826
820,-2.1341884663642214
828,-1.9368616491553243
837,-1.7739927500587707
845,-1.5918582787951667
853,-1.4641179549769543
862,-1.4070077580382314
871,-1.3260417798662563
879,-1.208247937865828
888,-1.120881406048086
897,-0.9848043019132928
906,-0.8497318972809761
915,-0.7751052306387574
924,-0.7317568677723945
933,-0.5933063585192018
943,-0.5408580027969376
952,-0.48615599604116877
962,-0.43119167936600367
971,-0.3737157796849689
981,-0.28747415208761057
991,-0.1539810076691437
1001,0.01702338406574866
1011,0.10089293866201873
1021,0.27957973850735407
1031,0.3577696020828466
1041,0.3707183232886585
1052,0.5043612162516837
1062,0.5438671465192417
1073,0.6884885454851196
1084,0.8780355563812535
1094,0.9215681456594054
1105,0.9097865510850632
1116,1.0555175314597753
1128,1.183617523910192
1139,1.2584451026528294
1150,1.3391219702006847
1162,1.2966048550301532
1173,1.3781581310832949
1185,1.5046257447180897
1197,1.6241298468394512
1209,1.6612096597580108
1221,1.7357091303965584
1233,1.7804445135849425
1246,1.847603805231987
1258,1.8917580517589807
1271,1.887186404570684
1283,1.9240986561219624
1296,1.906017684315843
1309,2.0340722078227653
1322,2.1180358811703273
1335,2.131775906180862
1349,2.132897342483368
1362,2.1897074767427886
1376,2.143061546358897
1390,2.2342173780399155
1404,2.3534478812851005
1418,2.3499082978783568
1432,2.2919775615845412
1446,2.317354073619597
1461,2.371395411285334
1475,2.4013631053428006
1490,2.4542027207233312
1505,2.4701805629718763
1520,2.6138677424850068
1535,2.6960209894711262
1550,2.6057130526415726
1566,2.738804411849758
1582,2.730618931026097
1597,2.471016648377608
1613,2.339625289176296
1629,2.2407216361752456
1646,2.177773858463633
1662,2.078361241410903
1679,1.9496592441606087
1696,1.9124834540778206
1713,1.8485524953011039
1730,1.848719009819641
1747,1.8892651094091466
1764,1.9297276540785164
1782,1.9421530823925233
1800,2.0349407185113266
1818,2.2256931585912003
1836,2.292472313912806
1854,2.3857628603244683
1873,2.5142969755874054
1892,2.643952470451975
1911,2.7752745036151847
1930,2.901491655079414
1949,3.037671910999568
1969,3.2520248048220832
1988,3.481341856620044
2008,3.734073975388366
2028,4.024899033169543
2048,4.2979486542634735
2069,4.492964737827765
2090,4.577628639687967
2111,4.668539444100335
2132,4.717234003283303
2153,4.775666403512253
2175,4.790503757802204
2196,4.771626753640426
2218,4.780278472196272
2240,4.661400503982176
2263,4.475542923148847
2285,4.4345281486120784
2308,4.281533348414275
2331,4.102816700463289
2355,4.097871070273534
2378,4.012954838262457
2402,3.725791511351323
2426,3.4889397433309197
2450,3.3357005448004067
2475,2.9546387439850026
2500,2.837957932229232
2525,2.787506784554509
2550,2.7238852761317123
2575,2.4059247937249726
2601,2.314087320847472
2627,2.261097569639162
2653,1.979362783634821
2680,1.8054392480473318
2707,1.7538834615355725
2734,1.5933290905931923
2761,1.4165872806060449
2789,1.3717536396325176
2817,1.1758203649926546
2845,0.9144395491365369
2873,0.6986511849966206
2902,0.6310335111881766
2931,0.27922090335449035
2960,0.09663187074399993
2990,-0.003947443543800944
3020,-0.2211917888956858
3050,-0.32622492164971817
3080,-0.25981708928957303
3111,-0.12135511239693386
3142,0.2290138542191631
3174,0.42603775624530726
3206,0.6607667613583654
3238,0.800547064457712
3270,0.9323280814882615
3303,0.8912291267901278
3336,0.7789862687821447
3369,0.762076348590389
3403,0.7360928536237576
3437,0.48876397391359916
3471,0.33491544625019465
3506,0.3722780872990228
3541,0.48144925966198215
3576,0.6347638942822904
3612,0.9730376684211173
3648,1.1559599696141287
3685,1.412083483367086
3721,1.8605678032452069
3759,2.1536702267014824
3796,2.6130340877963754
3834,3.18030312068535
3873,3.628927242414827
3911,3.9630009519962
3950,4.600378731045808
3990,5.142041438466537
4030,5.33926802406522
4070,5.705165131928811
4111,5.840854087549793
4152,5.599280025448409
4193,5.232842414471767
4235,4.729969547858147
4278,4.335121227553694
4321,4.046945625592802
4364,3.520931901084756
4407,3.194139746862886
4451,3.3003437736300185
4496,3.5549204730905615
4541,3.890839837110363
4586,4.07300964820549
4632,4.074852372038926
4679,4.238489026031148
4725,4.162239564914449
4773,3.7961334519773278
4820,3.6285684764889776
4868,3.0356821829706515
4917,2.7330779949128186
4966,2.108924666557515
5016,1.6678911702538102
5066,1.3473475944308788
5117,1.1377339416845924
5168,0.7408585684952875
5220,0.3838270569108957
5272,0.09746787776642485
5325,-0.25680262551461297
5378,-0.6759828535668149
5432,-0.9269633456905062
5486,-1.0959339873621978
5541,-1.3854593947541627
5596,-1.6099865277617464
5652,-1.8310760602168017
5709,-2.1462194151423652
5766,-2.2220520931155114
5823,-2.2896861568259848
5882,-2.15167087214539
5940,-2.240356326918917
6000,-2.453469174277526
6060,-2.604851503574075
6120,-2.6946253198963497
6182,-2.847624647317783
6244,-2.9863381765162043
6306,-3.2801512538537025
6369,-4.128376485074394
6433,-5.066477084637256
6497,-6.332608729737306
6562,-7.9690018605291275
6628,-9.302163829650032
6694,-10.471069735549646
6761,-11.494498571390466
6828,-12.299431760299566
6897,-13.219702571300092
6966,-13.94215573833108
7035,-13.781124402507121
7106,-13.103279814746202
7177,-12.691844558449805
7249,-12.241319518633972
7321,-12.045736297222994
7394,-12.118046307025683
7468,-11.58565202571668
7543,-11.149256024490171
7618,-10.803800132486078
7694,-10.2707192587991
7771,-9.726378898331319
7849,-8.957819940473176
7928,-7.968095795850159
8007,-6.746225111376122
8087,-4.8902361055644565
8168,-3.717425558816938
8250,-2.055447382287964
8332,-0.7248497482023053
8415,0.043922287915795444
8499,1.1454681643873998
8584,1.9814824455125342
8670,2.6199045966998975
8757,2.9951432604325374
8845,2.143571366620752
8933,1.4135722784375302
9022,0.5401384079131075
9113,1.3201878171235295
9204,1.915661838071065
9296,2.155068296187988
9389,1.6934257893241362
9483,1.1358637687999664
9577,0.5206764118343079
9673,-0.017226824376297856
9770,-0.3025533137551264
9868,-0.5398560943461472
9966,-0.8349268666558611
10066,-1.2098928743605004
10167,-0.6580184323590519
10268,-0.3544678033202313
10371,0.19110399376465548
10475,0.5081021712158638
10579,0.9239908138811046
10685,1.4805818030316633
10792,2.169206379470957
10900,2.405248324217439
11009,2.668812965029492
11119,2.529819857084317
11230,2.323560167778748
11343,2.1705639399658443
11456,1.3767886542001335
11571,0.12711455691812823
11686,-0.81242148253172
11803,-1.9406952596699583
11921,-3.0902500295792166
12040,-3.7429344810988763
12161,-4.149866101926513
12282,-4.746884043870205
12405,-5.194223938870719
12529,-5.7274247415191955
12655,-6.5017582042267215
12781,-7.696711724956064
12909,-8.628345558796081
13038,-9.19446839394285
13168,-9.37954834577911
13300,-9.48497480713662
13433,-8.806841705352646
13567,-9.096728153750444
13703,-9.04770378363894
13840,-8.707718220319936
13978,-7.603740212205173
14118,-6.837463216673377
14259,-6.682112746201122
14402,-6.310049195696939
14546,-6.190610523250989
14692,-6.439002797167208
14838,-5.893398067194822
14987,-5.649931046081498
15137,-6.037700282171858
15288,-6.669523182151263
15441,-7.9894271748560035
15595,-8.79171371996281
15751,-9.238391725296015
15909,-9.978874864997467
16068,-10.329616928842235
16229,-9.664274158550716
16391,-9.302666181226854
16555,-8.849603223319598
16720,-8.622663670041344
16888,-8.677337015074905
17056,-8.68876843099321
17227,-7.8775645902088405
17399,-7.279940518073631
17573,-6.649626147713352
17749,-6.6285213098674065
17926,-7.215815395888376
18106,-7.616731824479544
18287,-7.825073867201384
18470,-8.021075414695401
18654,-8.780749534459055
18841,-9.52695287958207
19029,-9.803673576934964
19220,-9.339223243794505
19412,-9.506016995925043
19606,-8.416723932898003
19802,-7.8211955030878055
20000,-9.222620160061386
