frequency,raw,error,smoothed,error_smoothed,equalization,parametric_eq,fixed_band_eq,equalized_raw,equalized_smoothed,target
20.00,9.77,4.01,9.77,4.01,-4.01,-4.52,-2.02,5.76,5.75,5.76
20.20,9.78,4.02,9.78,4.03,-4.03,-4.53,-2.08,5.75,5.76,5.76
20.40,9.80,4.04,9.80,4.05,-4.05,-4.53,-2.14,5.75,5.76,5.76
20.61,9.82,4.06,9.82,4.07,-4.06,-4.53,-2.20,5.75,5.75,5.76
20.81,9.84,4.09,9.84,4.09,-4.08,-4.53,-2.27,5.76,5.75,5.75
21.02,9.86,4.11,9.86,4.11,-4.11,-4.54,-2.33,5.75,5.75,5.74
21.23,9.87,4.13,9.87,4.13,-4.13,-4.54,-2.40,5.74,5.75,5.74
21.44,9.89,4.14,9.89,4.14,-4.15,-4.54,-2.47,5.74,5.74,5.75
21.66,9.91,4.17,9.91,4.17,-4.17,-4.54,-2.54,5.74,5.74,5.74
21.87,9.94,4.20,9.94,4.19,-4.20,-4.55,-2.61,5.74,5.74,5.74
22.09,9.96,4.23,9.96,4.23,-4.22,-4.55,-2.68,5.74,5.74,5.73
22.31,9.98,4.25,9.98,4.25,-4.25,-4.55,-2.76,5.73,5.74,5.73
22.54,10.01,4.29,10.01,4.28,-4.28,-4.55,-2.84,5.73,5.73,5.72
22.76,10.03,4.31,10.03,4.31,-4.31,-4.56,-2.92,5.72,5.72,5.72
22.99,10.05,4.33,10.05,4.33,-4.34,-4.56,-3.00,5.71,5.71,5.72
23.22,10.07,4.36,10.07,4.36,-4.37,-4.56,-3.09,5.70,5.71,5.71
23.45,10.10,4.39,10.10,4.39,-4.39,-4.57,-3.17,5.71,5.70,5.71
23.69,10.12,4.42,10.12,4.42,-4.42,-4.57,-3.26,5.70,5.70,5.70
23.92,10.14,4.45,10.14,4.45,-4.44,-4.57,-3.35,5.70,5.70,5.69
24.16,10.16,4.47,10.16,4.47,-4.46,-4.58,-3.44,5.70,5.69,5.69
24.40,10.17,4.48,10.17,4.49,-4.49,-4.58,-3.54,5.68,5.69,5.69
24.65,10.19,4.50,10.19,4.50,-4.51,-4.58,-3.63,5.68,5.68,5.69
24.89,10.21,4.52,10.21,4.52,-4.53,-4.59,-3.73,5.68,5.68,5.69
25.14,10.23,4.55,10.23,4.55,-4.55,-4.59,-3.82,5.68,5.68,5.68
25.39,10.24,4.57,10.24,4.57,-4.57,-4.59,-3.92,5.67,5.68,5.67
25.65,10.26,4.59,10.26,4.59,-4.58,-4.60,-4.02,5.68,5.68,5.67
25.91,10.28,4.61,10.28,4.60,-4.60,-4.60,-4.12,5.68,5.68,5.67
26.16,10.29,4.61,10.29,4.62,-4.61,-4.60,-4.22,5.68,5.68,5.68
26.43,10.31,4.63,10.31,4.63,-4.63,-4.61,-4.32,5.68,5.68,5.68
26.69,10.32,4.64,10.32,4.64,-4.64,-4.61,-4.41,5.68,5.68,5.68
26.96,10.33,4.65,10.33,4.65,-4.65,-4.62,-4.51,5.68,5.68,5.68
27.23,10.34,4.66,10.34,4.66,-4.66,-4.62,-4.60,5.68,5.68,5.68
27.50,10.35,4.67,10.35,4.67,-4.67,-4.62,-4.70,5.68,5.68,5.68
27.77,10.36,4.67,10.36,4.68,-4.68,-4.63,-4.79,5.68,5.68,5.69
28.05,10.37,4.70,10.37,4.69,-4.69,-4.63,-4.87,5.68,5.68,5.67
28.33,10.37,4.70,10.37,4.70,-4.70,-4.64,-4.96,5.67,5.67,5.67
28.62,10.38,4.72,10.38,4.71,-4.71,-4.64,-5.04,5.67,5.67,5.66
28.90,10.38,4.71,10.38,4.72,-4.72,-4.65,-5.11,5.66,5.66,5.67
29.19,10.39,4.73,10.39,4.73,-4.73,-4.65,-5.19,5.66,5.66,5.66
29.48,10.39,4.74,10.39,4.74,-4.74,-4.66,-5.25,5.65,5.65,5.65
29.78,10.39,4.74,10.39,4.75,-4.74,-4.66,-5.31,5.65,5.65,5.65
30.08,10.39,4.75,10.39,4.75,-4.75,-4.67,-5.37,5.64,5.64,5.64
30.38,10.39,4.76,10.39,4.75,-4.75,-4.67,-5.42,5.64,5.64,5.63
30.68,10.39,4.76,10.39,4.76,-4.76,-4.68,-5.46,5.63,5.63,5.63
30.99,10.39,4.76,10.39,4.76,-4.76,-4.68,-5.49,5.63,5.63,5.63
31.30,10.39,4.76,10.39,4.76,-4.76,-4.69,-5.52,5.63,5.63,5.63
31.61,10.38,4.75,10.38,4.76,-4.76,-4.69,-5.54,5.62,5.63,5.63
31.93,10.38,4.76,10.38,4.75,-4.75,-4.70,-5.56,5.63,5.63,5.62
32.24,10.38,4.75,10.38,4.75,-4.75,-4.70,-5.57,5.63,5.63,5.63
32.57,10.37,4.75,10.37,4.75,-4.75,-4.71,-5.57,5.62,5.63,5.62
32.89,10.37,4.74,10.37,4.74,-4.74,-4.71,-5.57,5.63,5.62,5.63
33.22,10.36,4.74,10.36,4.74,-4.74,-4.72,-5.56,5.62,5.62,5.62
33.55,10.35,4.73,10.35,4.73,-4.74,-4.73,-5.55,5.61,5.61,5.62
33.89,10.35,4.74,10.35,4.74,-4.74,-4.73,-5.53,5.61,5.61,5.61
34.23,10.34,4.74,10.34,4.74,-4.74,-4.74,-5.51,5.60,5.60,5.60
34.57,10.34,4.75,10.33,4.75,-4.74,-4.75,-5.48,5.60,5.59,5.59
34.92,10.32,4.75,10.32,4.75,-4.74,-4.75,-5.45,5.58,5.58,5.57
35.27,10.31,4.74,10.31,4.75,-4.75,-4.76,-5.42,5.56,5.56,5.57
35.62,10.30,4.77,10.30,4.75,-4.76,-4.77,-5.39,5.54,5.54,5.53
35.97,10.28,4.76,10.28,4.76,-4.77,-4.77,-5.35,5.51,5.51,5.52
36.33,10.27,4.77,10.27,4.78,-4.78,-4.78,-5.31,5.49,5.49,5.50
36.70,10.26,4.80,10.26,4.79,-4.79,-4.79,-5.28,5.47,5.46,5.46
37.06,10.25,4.81,10.25,4.81,-4.81,-4.79,-5.24,5.44,5.44,5.44
37.43,10.24,4.83,10.24,4.83,-4.83,-4.80,-5.20,5.41,5.41,5.41
37.81,10.23,4.85,10.23,4.85,-4.84,-4.81,-5.17,5.39,5.38,5.38
38.19,10.21,4.86,10.21,4.86,-4.86,-4.82,-5.13,5.35,5.35,5.35
38.57,10.20,4.88,10.20,4.88,-4.88,-4.82,-5.10,5.32,5.32,5.32
38.95,10.19,4.89,10.19,4.89,-4.89,-4.83,-5.07,5.30,5.29,5.30
39.34,10.17,4.90,10.17,4.91,-4.90,-4.84,-5.04,5.27,5.27,5.26
39.74,10.16,4.92,10.16,4.92,-4.92,-4.85,-5.01,5.24,5.24,5.24
40.14,10.15,4.93,10.14,4.93,-4.93,-4.86,-4.99,5.22,5.22,5.22
40.54,10.12,4.92,10.13,4.93,-4.93,-4.87,-4.97,5.19,5.20,5.20
40.94,10.12,4.95,10.12,4.94,-4.94,-4.88,-4.95,5.18,5.17,5.17
41.35,10.10,4.95,10.10,4.95,-4.95,-4.88,-4.93,5.15,5.15,5.15
41.76,10.09,4.97,10.09,4.96,-4.96,-4.89,-4.92,5.13,5.13,5.12
42.18,10.07,4.95,10.07,4.96,-4.96,-4.90,-4.91,5.11,5.11,5.12
42.60,10.05,4.96,10.05,4.97,-4.97,-4.91,-4.91,5.08,5.09,5.09
43.03,10.04,4.98,10.04,4.97,-4.97,-4.92,-4.90,5.07,5.07,5.06
43.46,10.03,4.98,10.03,4.98,-4.97,-4.93,-4.91,5.06,5.05,5.05
43.90,10.01,4.98,10.01,4.99,-4.98,-4.94,-4.91,5.03,5.03,5.03
44.33,9.99,4.99,9.99,4.98,-4.98,-4.95,-4.92,5.01,5.01,5.00
44.78,9.97,4.98,9.97,4.98,-4.99,-4.96,-4.94,4.98,4.98,4.99
45.23,9.95,4.97,9.95,4.99,-4.99,-4.97,-4.95,4.96,4.96,4.98
45.68,9.94,5.00,9.94,5.00,-5.00,-4.98,-4.97,4.94,4.94,4.94
46.13,9.93,5.03,9.93,5.02,-5.01,-5.00,-5.00,4.92,4.91,4.90
46.60,9.91,5.03,9.91,5.03,-5.02,-5.01,-5.03,4.89,4.88,4.88
47.06,9.89,5.04,9.89,5.04,-5.04,-5.02,-5.06,4.85,4.85,4.85
47.53,9.87,5.05,9.87,5.05,-5.06,-5.03,-5.09,4.81,4.81,4.82
48.01,9.86,5.09,9.86,5.08,-5.08,-5.04,-5.13,4.78,4.78,4.77
48.49,9.84,5.10,9.84,5.10,-5.10,-5.05,-5.18,4.74,4.74,4.74
48.97,9.82,5.12,9.82,5.12,-5.12,-5.07,-5.22,4.70,4.70,4.70
49.46,9.81,5.14,9.81,5.14,-5.14,-5.08,-5.27,4.67,4.66,4.67
49.96,9.79,5.18,9.79,5.17,-5.17,-5.09,-5.32,4.62,4.62,4.61
50.46,9.77,5.19,9.77,5.19,-5.19,-5.10,-5.37,4.58,4.58,4.58
50.96,9.75,5.21,9.75,5.22,-5.21,-5.12,-5.42,4.54,4.54,4.54
51.47,9.74,5.24,9.74,5.24,-5.23,-5.13,-5.48,4.51,4.50,4.50
51.99,9.72,5.26,9.72,5.26,-5.25,-5.14,-5.54,4.47,4.47,4.46
52.51,9.71,5.28,9.70,5.27,-5.27,-5.16,-5.60,4.44,4.43,4.43
53.03,9.68,5.28,9.68,5.29,-5.29,-5.17,-5.66,4.39,4.39,4.40
53.56,9.66,5.30,9.66,5.31,-5.31,-5.19,-5.72,4.35,4.35,4.36
54.10,9.65,5.34,9.65,5.33,-5.33,-5.20,-5.77,4.32,4.31,4.31
54.64,9.63,5.35,9.63,5.36,-5.35,-5.21,-5.83,4.28,4.28,4.28
55.18,9.61,5.38,9.61,5.38,-5.37,-5.23,-5.89,4.24,4.24,4.23
55.74,9.59,5.39,9.59,5.39,-5.39,-5.24,-5.95,4.20,4.20,4.20
56.29,9.57,5.40,9.57,5.40,-5.40,-5.26,-6.00,4.17,4.17,4.17
56.86,9.55,5.41,9.55,5.42,-5.42,-5.28,-6.05,4.13,4.13,4.14
57.42,9.53,5.44,9.53,5.43,-5.43,-5.29,-6.09,4.10,4.11,4.09
58.00,9.51,5.45,9.51,5.44,-5.44,-5.31,-6.14,4.07,4.07,4.06
58.58,9.49,5.45,9.49,5.45,-5.45,-5.32,-6.17,4.04,4.04,4.04
59.16,9.46,5.45,9.46,5.45,-5.46,-5.34,-6.21,4.00,4.00,4.01
59.76,9.44,5.46,9.44,5.46,-5.48,-5.35,-6.23,3.96,3.96,3.98
60.35,9.42,5.49,9.42,5.48,-5.50,-5.37,-6.25,3.92,3.92,3.93
60.96,9.40,5.51,9.40,5.51,-5.52,-5.39,-6.27,3.88,3.88,3.89
61.57,9.37,5.54,9.37,5.54,-5.55,-5.40,-6.28,3.82,3.83,3.83
62.18,9.35,5.58,9.35,5.58,-5.57,-5.42,-6.28,3.78,3.78,3.77
62.80,9.33,5.60,9.33,5.61,-5.60,-5.44,-6.28,3.73,3.73,3.73
63.43,9.31,5.64,9.31,5.63,-5.62,-5.45,-6.26,3.69,3.69,3.67
64.07,9.28,5.64,9.28,5.65,-5.64,-5.47,-6.25,3.64,3.64,3.64
64.71,9.26,5.66,9.25,5.66,-5.66,-5.49,-6.22,3.60,3.60,3.60
65.35,9.22,5.66,9.23,5.66,-5.67,-5.51,-6.19,3.55,3.56,3.56
66.01,9.20,5.68,9.20,5.67,-5.68,-5.52,-6.15,3.52,3.52,3.52
66.67,9.18,5.68,9.17,5.68,-5.69,-5.54,-6.11,3.49,3.48,3.50
67.33,9.14,5.69,9.15,5.70,-5.70,-5.56,-6.06,3.44,3.45,3.45
68.01,9.11,5.70,9.11,5.71,-5.70,-5.57,-6.01,3.41,3.41,3.41
68.69,9.09,5.73,9.08,5.72,-5.71,-5.59,-5.96,3.38,3.37,3.36
69.37,9.05,5.72,9.05,5.72,-5.72,-5.60,-5.90,3.33,3.33,3.33
70.07,9.02,5.72,9.02,5.73,-5.73,-5.62,-5.83,3.29,3.29,3.30
70.77,8.99,5.73,8.99,5.73,-5.74,-5.63,-5.77,3.25,3.25,3.25
71.48,8.95,5.74,8.95,5.74,-5.74,-5.65,-5.70,3.21,3.21,3.21
72.19,8.91,5.75,8.91,5.75,-5.75,-5.66,-5.63,3.16,3.17,3.16
72.91,8.88,5.75,8.88,5.75,-5.75,-5.68,-5.56,3.13,3.13,3.13
73.64,8.84,5.76,8.84,5.76,-5.75,-5.69,-5.49,3.09,3.09,3.08
74.38,8.80,5.76,8.80,5.76,-5.75,-5.70,-5.42,3.05,3.05,3.04
75.12,8.76,5.76,8.76,5.75,-5.75,-5.71,-5.35,3.01,3.01,3.00
75.87,8.72,5.74,8.72,5.74,-5.74,-5.72,-5.29,2.98,2.98,2.98
76.63,8.68,5.74,8.68,5.74,-5.74,-5.73,-5.22,2.94,2.94,2.94
77.40,8.64,5.73,8.64,5.73,-5.72,-5.74,-5.15,2.92,2.91,2.91
78.17,8.59,5.72,8.59,5.71,-5.71,-5.75,-5.09,2.88,2.88,2.87
78.95,8.54,5.68,8.54,5.69,-5.70,-5.76,-5.03,2.84,2.85,2.86
79.74,8.50,5.68,8.50,5.68,-5.68,-5.76,-4.97,2.82,2.82,2.82
80.54,8.45,5.66,8.45,5.66,-5.66,-5.77,-4.91,2.79,2.79,2.79
81.35,8.41,5.65,8.40,5.64,-5.64,-5.77,-4.85,2.77,2.76,2.76
82.16,8.35,5.61,8.35,5.62,-5.62,-5.77,-4.80,2.73,2.73,2.74
82.98,8.30,5.60,8.30,5.60,-5.60,-5.77,-4.75,2.70,2.70,2.70
83.81,8.25,5.58,8.25,5.58,-5.58,-5.76,-4.71,2.67,2.67,2.67
84.65,8.20,5.57,8.19,5.56,-5.55,-5.76,-4.67,2.64,2.64,2.63
85.50,8.13,5.53,8.14,5.53,-5.53,-5.75,-4.63,2.60,2.61,2.60
86.35,8.08,5.50,8.08,5.50,-5.50,-5.74,-4.59,2.58,2.58,2.58
87.22,8.02,5.47,8.02,5.47,-5.47,-5.73,-4.56,2.55,2.54,2.55
88.09,7.96,5.44,7.96,5.44,-5.44,-5.72,-4.53,2.52,2.52,2.52
88.97,7.90,5.41,7.90,5.41,-5.41,-5.70,-4.51,2.49,2.49,2.49
89.86,7.84,5.39,7.84,5.38,-5.38,-5.68,-4.49,2.46,2.46,2.45
90.76,7.77,5.35,7.77,5.35,-5.35,-5.66,-4.47,2.42,2.42,2.42
91.66,7.71,5.32,7.71,5.32,-5.32,-5.64,-4.45,2.39,2.39,2.39
92.58,7.64,5.29,7.64,5.29,-5.29,-5.61,-4.44,2.35,2.35,2.35
93.51,7.57,5.25,7.57,5.26,-5.26,-5.58,-4.43,2.31,2.31,2.32
94.44,7.51,5.23,7.50,5.23,-5.23,-5.55,-4.43,2.28,2.27,2.28
95.39,7.43,5.19,7.43,5.19,-5.20,-5.52,-4.43,2.23,2.23,2.24
96.34,7.36,5.17,7.36,5.17,-5.17,-5.48,-4.43,2.19,2.19,2.19
97.30,7.29,5.14,7.29,5.14,-5.14,-5.44,-4.43,2.15,2.15,2.15
98.28,7.22,5.12,7.21,5.12,-5.11,-5.40,-4.44,2.11,2.10,2.10
99.26,7.13,5.08,7.14,5.08,-5.08,-5.35,-4.45,2.05,2.06,2.05
100.25,7.06,5.05,7.06,5.05,-5.04,-5.31,-4.46,2.02,2.02,2.01
101.25,6.98,5.01,6.98,5.01,-5.00,-5.26,-4.47,1.98,1.97,1.97
102.27,6.90,4.96,6.90,4.96,-4.96,-5.21,-4.49,1.94,1.94,1.94
103.29,6.82,4.92,6.82,4.92,-4.92,-5.15,-4.50,1.90,1.90,1.90
104.32,6.74,4.87,6.74,4.87,-4.87,-5.10,-4.52,1.87,1.87,1.87
105.37,6.65,4.82,6.65,4.82,-4.82,-5.04,-4.54,1.83,1.83,1.83
106.42,6.57,4.76,6.57,4.77,-4.77,-4.98,-4.56,1.80,1.80,1.81
107.48,6.48,4.72,6.48,4.72,-4.72,-4.92,-4.57,1.76,1.77,1.76
108.56,6.40,4.67,6.40,4.66,-4.66,-4.85,-4.59,1.74,1.73,1.73
109.64,6.31,4.61,6.31,4.61,-4.61,-4.79,-4.61,1.70,1.70,1.70
110.74,6.21,4.55,6.22,4.55,-4.55,-4.72,-4.63,1.66,1.66,1.66
111.85,6.13,4.50,6.13,4.50,-4.50,-4.66,-4.64,1.63,1.63,1.63
112.97,6.04,4.45,6.04,4.45,-4.45,-4.59,-4.65,1.59,1.59,1.59
114.10,5.95,4.40,5.94,4.39,-4.40,-4.52,-4.66,1.55,1.55,1.55
115.24,5.84,4.33,5.85,4.34,-4.34,-4.45,-4.67,1.50,1.50,1.51
116.39,5.75,4.30,5.75,4.29,-4.29,-4.38,-4.67,1.46,1.46,1.45
117.55,5.66,4.24,5.65,4.24,-4.24,-4.31,-4.67,1.42,1.41,1.42
118.73,5.56,4.20,5.56,4.20,-4.19,-4.24,-4.67,1.37,1.37,1.36
119.92,5.46,4.14,5.46,4.14,-4.14,-4.17,-4.66,1.32,1.32,1.32
121.12,5.37,4.09,5.37,4.09,-4.09,-4.10,-4.65,1.28,1.28,1.28
122.33,5.27,4.04,5.27,4.04,-4.04,-4.03,-4.63,1.23,1.23,1.23
123.55,5.17,3.98,5.17,3.98,-3.99,-3.95,-4.61,1.18,1.18,1.19
124.79,5.08,3.94,5.07,3.93,-3.94,-3.88,-4.57,1.14,1.13,1.14
126.03,4.97,3.88,4.97,3.89,-3.89,-3.82,-4.54,1.08,1.08,1.09
127.29,4.87,3.84,4.87,3.84,-3.84,-3.75,-4.50,1.03,1.03,1.03
128.57,4.78,3.80,4.77,3.79,-3.79,-3.68,-4.46,0.99,0.98,0.98
129.85,4.67,3.74,4.67,3.74,-3.74,-3.61,-4.41,0.93,0.94,0.93
131.15,4.57,3.69,4.57,3.69,-3.68,-3.54,-4.35,0.89,0.89,0.88
132.46,4.46,3.63,4.46,3.63,-3.63,-3.48,-4.29,0.83,0.84,0.83
133.79,4.36,3.56,4.36,3.57,-3.57,-3.41,-4.23,0.79,0.79,0.80
135.12,4.26,3.51,4.26,3.50,-3.51,-3.35,-4.16,0.75,0.75,0.75
136.48,4.16,3.44,4.16,3.44,-3.44,-3.29,-4.08,0.72,0.72,0.72
137.84,4.07,3.38,4.06,3.38,-3.38,-3.23,-4.01,0.69,0.69,0.69
139.22,3.96,3.32,3.96,3.31,-3.31,-3.16,-3.93,0.65,0.65,0.64
140.61,3.86,3.24,3.86,3.24,-3.24,-3.10,-3.84,0.62,0.62,0.62
142.02,3.76,3.17,3.76,3.17,-3.17,-3.04,-3.76,0.59,0.59,0.59
143.44,3.66,3.10,3.66,3.10,-3.10,-2.99,-3.67,0.56,0.56,0.56
144.87,3.56,3.02,3.56,3.03,-3.03,-2.93,-3.58,0.53,0.53,0.53
146.32,3.46,2.96,3.46,2.96,-2.96,-2.87,-3.49,0.50,0.50,0.50
147.78,3.36,2.88,3.36,2.88,-2.88,-2.81,-3.39,0.48,0.48,0.48
149.26,3.26,2.81,3.26,2.81,-2.81,-2.75,-3.30,0.45,0.45,0.45
150.75,3.15,2.74,3.15,2.74,-2.73,-2.70,-3.21,0.41,0.42,0.41
152.26,3.05,2.66,3.05,2.66,-2.66,-2.64,-3.11,0.39,0.39,0.39
153.78,2.94,2.58,2.94,2.59,-2.59,-2.58,-3.02,0.35,0.36,0.36
155.32,2.85,2.52,2.84,2.51,-2.52,-2.53,-2.92,0.33,0.33,0.33
156.88,2.74,2.44,2.74,2.45,-2.44,-2.47,-2.83,0.30,0.30,0.30
158.44,2.64,2.37,2.64,2.37,-2.37,-2.41,-2.74,0.27,0.27,0.26
160.03,2.54,2.31,2.54,2.30,-2.31,-2.35,-2.64,0.23,0.23,0.23
161.63,2.43,2.23,2.43,2.24,-2.24,-2.29,-2.55,0.19,0.20,0.20
163.24,2.33,2.18,2.33,2.17,-2.17,-2.23,-2.46,0.16,0.16,0.15
164.88,2.23,2.11,2.23,2.11,-2.11,-2.17,-2.37,0.12,0.12,0.12
166.53,2.13,2.05,2.13,2.05,-2.04,-2.11,-2.28,0.09,0.09,0.08
168.19,2.03,1.98,2.03,1.98,-1.98,-2.05,-2.20,0.05,0.05,0.05
169.87,1.93,1.91,1.93,1.92,-1.92,-1.99,-2.11,0.01,0.01,0.01
171.57,1.83,1.86,1.84,1.86,-1.86,-1.93,-2.02,-0.03,-0.03,-0.03
173.29,1.75,1.82,1.74,1.81,-1.81,-1.87,-1.94,-0.06,-0.07,-0.07
175.02,1.65,1.75,1.65,1.75,-1.75,-1.81,-1.86,-0.10,-0.10,-0.10
176.77,1.56,1.70,1.56,1.70,-1.70,-1.75,-1.78,-0.14,-0.14,-0.14
178.54,1.47,1.64,1.47,1.65,-1.65,-1.69,-1.70,-0.18,-0.18,-0.17
180.32,1.39,1.60,1.38,1.60,-1.60,-1.63,-1.62,-0.21,-0.21,-0.21
182.13,1.30,1.55,1.30,1.55,-1.55,-1.57,-1.54,-0.25,-0.25,-0.25
183.95,1.21,1.49,1.22,1.50,-1.50,-1.51,-1.46,-0.29,-0.28,-0.28
185.79,1.14,1.46,1.13,1.45,-1.45,-1.45,-1.39,-0.31,-0.32,-0.32
187.65,1.05,1.40,1.05,1.40,-1.40,-1.39,-1.31,-0.35,-0.35,-0.35
189.52,0.96,1.35,0.97,1.36,-1.36,-1.34,-1.24,-0.40,-0.39,-0.39
191.42,0.88,1.31,0.88,1.31,-1.31,-1.28,-1.17,-0.43,-0.43,-0.43
193.33,0.80,1.27,0.80,1.27,-1.26,-1.22,-1.10,-0.46,-0.47,-0.47
195.27,0.71,1.22,0.71,1.22,-1.22,-1.17,-1.03,-0.51,-0.50,-0.51
197.22,0.63,1.17,0.63,1.17,-1.17,-1.12,-0.97,-0.54,-0.54,-0.54
199.19,0.54,1.11,0.54,1.12,-1.11,-1.06,-0.90,-0.57,-0.57,-0.57
201.18,0.46,1.07,0.46,1.06,-1.06,-1.01,-0.83,-0.60,-0.60,-0.61
203.19,0.38,1.01,0.38,1.01,-1.01,-0.95,-0.77,-0.63,-0.63,-0.63
205.23,0.29,0.95,0.29,0.95,-0.95,-0.90,-0.71,-0.66,-0.66,-0.66
207.28,0.21,0.89,0.20,0.89,-0.89,-0.85,-0.65,-0.68,-0.69,-0.68
209.35,0.11,0.83,0.12,0.83,-0.83,-0.80,-0.59,-0.72,-0.72,-0.72
211.44,0.03,0.77,0.03,0.77,-0.78,-0.75,-0.53,-0.75,-0.74,-0.74
213.56,-0.05,0.72,-0.05,0.72,-0.72,-0.70,-0.47,-0.77,-0.77,-0.77
215.69,-0.13,0.67,-0.13,0.66,-0.66,-0.64,-0.42,-0.79,-0.79,-0.80
217.85,-0.22,0.60,-0.22,0.61,-0.60,-0.59,-0.36,-0.82,-0.82,-0.82
220.03,-0.30,0.55,-0.30,0.55,-0.55,-0.54,-0.31,-0.85,-0.85,-0.85
222.23,-0.38,0.49,-0.38,0.49,-0.49,-0.49,-0.26,-0.87,-0.87,-0.87
224.45,-0.46,0.43,-0.46,0.43,-0.43,-0.44,-0.21,-0.89,-0.89,-0.89
226.70,-0.54,0.37,-0.54,0.37,-0.37,-0.39,-0.17,-0.91,-0.91,-0.91
228.96,-0.61,0.31,-0.61,0.31,-0.32,-0.34,-0.12,-0.93,-0.93,-0.92
231.25,-0.68,0.26,-0.68,0.26,-0.26,-0.29,-0.08,-0.94,-0.95,-0.94
233.57,-0.76,0.20,-0.76,0.21,-0.21,-0.24,-0.04,-0.97,-0.97,-0.96
235.90,-0.83,0.16,-0.83,0.16,-0.16,-0.19,-0.00,-0.99,-0.99,-0.99
238.26,-0.90,0.11,-0.90,0.11,-0.11,-0.13,0.04,-1.01,-1.00,-1.01
240.64,-0.96,0.05,-0.96,0.06,-0.06,-0.08,0.07,-1.02,-1.02,-1.01
243.05,-1.02,0.01,-1.02,0.01,-0.01,-0.04,0.10,-1.03,-1.03,-1.03
245.48,-1.08,-0.03,-1.08,-0.04,0.04,0.01,0.13,-1.04,-1.04,-1.05
247.93,-1.14,-0.08,-1.14,-0.08,0.08,0.06,0.16,-1.06,-1.05,-1.06
250.41,-1.19,-0.13,-1.19,-0.12,0.13,0.11,0.18,-1.06,-1.06,-1.06
252.92,-1.24,-0.17,-1.24,-0.17,0.17,0.15,0.21,-1.07,-1.07,-1.07
255.45,-1.29,-0.20,-1.29,-0.21,0.21,0.19,0.23,-1.08,-1.08,-1.09
258.00,-1.34,-0.25,-1.34,-0.25,0.24,0.24,0.25,-1.10,-1.09,-1.09
260.58,-1.38,-0.28,-1.38,-0.28,0.28,0.27,0.26,-1.10,-1.10,-1.10
263.19,-1.42,-0.31,-1.42,-0.31,0.31,0.31,0.28,-1.11,-1.11,-1.11
265.82,-1.45,-0.33,-1.45,-0.33,0.33,0.34,0.29,-1.12,-1.12,-1.12
268.48,-1.49,-0.36,-1.49,-0.36,0.36,0.37,0.30,-1.13,-1.13,-1.13
271.16,-1.52,-0.38,-1.52,-0.38,0.38,0.39,0.31,-1.14,-1.14,-1.14
273.87,-1.55,-0.40,-1.55,-0.40,0.40,0.41,0.32,-1.15,-1.15,-1.15
276.61,-1.57,-0.41,-1.57,-0.41,0.41,0.43,0.33,-1.16,-1.16,-1.16
279.38,-1.60,-0.42,-1.59,-0.42,0.43,0.44,0.33,-1.17,-1.17,-1.18
282.17,-1.61,-0.43,-1.61,-0.44,0.44,0.45,0.33,-1.17,-1.18,-1.18
284.99,-1.63,-0.45,-1.63,-0.45,0.45,0.45,0.34,-1.18,-1.19,-1.18
287.84,-1.65,-0.47,-1.64,-0.46,0.45,0.45,0.34,-1.20,-1.19,-1.18
290.72,-1.65,-0.45,-1.65,-0.46,0.46,0.45,0.34,-1.19,-1.19,-1.20
293.63,-1.66,-0.46,-1.66,-0.46,0.47,0.44,0.34,-1.19,-1.20,-1.20
296.57,-1.67,-0.47,-1.67,-0.46,0.47,0.44,0.34,-1.20,-1.20,-1.20
299.53,-1.68,-0.47,-1.68,-0.47,0.47,0.43,0.34,-1.21,-1.21,-1.21
302.53,-1.68,-0.47,-1.68,-0.47,0.47,0.42,0.33,-1.21,-1.22,-1.21
305.55,-1.68,-0.47,-1.68,-0.47,0.46,0.40,0.33,-1.22,-1.22,-1.21
308.61,-1.68,-0.46,-1.68,-0.46,0.46,0.39,0.33,-1.22,-1.22,-1.22
311.69,-1.67,-0.45,-1.67,-0.45,0.45,0.38,0.32,-1.22,-1.22,-1.22
314.81,-1.66,-0.44,-1.66,-0.44,0.45,0.36,0.32,-1.21,-1.22,-1.22
317.96,-1.66,-0.43,-1.66,-0.43,0.44,0.35,0.32,-1.22,-1.22,-1.23
321.14,-1.65,-0.43,-1.65,-0.43,0.43,0.33,0.31,-1.22,-1.22,-1.22
324.35,-1.65,-0.42,-1.65,-0.42,0.42,0.32,0.31,-1.23,-1.23,-1.23
327.59,-1.63,-0.42,-1.63,-0.41,0.41,0.30,0.31,-1.22,-1.23,-1.21
330.87,-1.62,-0.40,-1.62,-0.40,0.40,0.29,0.30,-1.22,-1.22,-1.22
334.18,-1.60,-0.37,-1.60,-0.38,0.38,0.28,0.30,-1.22,-1.22,-1.23
337.52,-1.59,-0.37,-1.59,-0.36,0.37,0.26,0.30,-1.22,-1.22,-1.22
340.90,-1.57,-0.35,-1.58,-0.36,0.36,0.25,0.29,-1.21,-1.22,-1.22
344.30,-1.57,-0.35,-1.56,-0.35,0.34,0.24,0.29,-1.23,-1.22,-1.22
347.75,-1.55,-0.34,-1.55,-0.33,0.33,0.23,0.29,-1.22,-1.22,-1.21
351.23,-1.52,-0.30,-1.53,-0.32,0.31,0.22,0.29,-1.21,-1.21,-1.22
354.74,-1.51,-0.31,-1.51,-0.30,0.30,0.21,0.29,-1.21,-1.21,-1.20
358.28,-1.49,-0.28,-1.49,-0.28,0.28,0.20,0.28,-1.21,-1.20,-1.21
361.87,-1.47,-0.27,-1.47,-0.27,0.27,0.20,0.28,-1.20,-1.21,-1.21
365.49,-1.45,-0.24,-1.45,-0.25,0.25,0.19,0.28,-1.20,-1.20,-1.21
369.14,-1.44,-0.24,-1.43,-0.23,0.23,0.19,0.28,-1.21,-1.20,-1.20
372.83,-1.41,-0.21,-1.42,-0.22,0.21,0.18,0.28,-1.20,-1.20,-1.20
376.56,-1.40,-0.20,-1.40,-0.20,0.20,0.18,0.28,-1.20,-1.20,-1.20
380.33,-1.38,-0.18,-1.38,-0.18,0.18,0.17,0.28,-1.20,-1.20,-1.20
384.13,-1.36,-0.16,-1.36,-0.16,0.16,0.17,0.28,-1.20,-1.20,-1.20
387.97,-1.34,-0.14,-1.34,-0.14,0.14,0.17,0.28,-1.20,-1.20,-1.20
391.85,-1.33,-0.13,-1.33,-0.13,0.13,0.17,0.28,-1.20,-1.20,-1.20
395.77,-1.31,-0.11,-1.31,-0.11,0.11,0.17,0.29,-1.20,-1.20,-1.20
399.73,-1.29,-0.09,-1.29,-0.10,0.10,0.16,0.29,-1.20,-1.20,-1.20
403.72,-1.27,-0.08,-1.27,-0.08,0.08,0.16,0.29,-1.19,-1.19,-1.19
407.76,-1.26,-0.07,-1.25,-0.06,0.07,0.17,0.29,-1.19,-1.19,-1.19
411.84,-1.24,-0.05,-1.24,-0.05,0.05,0.17,0.30,-1.19,-1.19,-1.19
415.96,-1.22,-0.04,-1.23,-0.04,0.04,0.17,0.30,-1.18,-1.19,-1.18
420.12,-1.22,-0.03,-1.21,-0.02,0.02,0.17,0.30,-1.20,-1.19,-1.19
424.32,-1.20,-0.00,-1.20,-0.01,0.01,0.17,0.31,-1.19,-1.19,-1.20
428.56,-1.19,-0.00,-1.19,0.00,-0.01,0.18,0.31,-1.20,-1.20,-1.19
432.85,-1.17,0.02,-1.17,0.02,-0.02,0.18,0.31,-1.19,-1.19,-1.19
437.18,-1.17,0.03,-1.16,0.03,-0.03,0.18,0.32,-1.20,-1.19,-1.20
441.55,-1.15,0.05,-1.15,0.04,-0.04,0.19,0.32,-1.19,-1.19,-1.20
445.96,-1.15,0.05,-1.15,0.05,-0.05,0.19,0.33,-1.20,-1.20,-1.20
450.42,-1.14,0.06,-1.14,0.06,-0.05,0.20,0.33,-1.19,-1.20,-1.20
454.93,-1.14,0.06,-1.14,0.06,-0.06,0.20,0.34,-1.20,-1.20,-1.20
459.48,-1.14,0.06,-1.14,0.06,-0.06,0.21,0.34,-1.20,-1.20,-1.20
464.07,-1.14,0.05,-1.14,0.06,-0.06,0.22,0.35,-1.20,-1.20,-1.19
468.71,-1.14,0.05,-1.14,0.06,-0.06,0.22,0.35,-1.20,-1.20,-1.19
473.40,-1.13,0.06,-1.14,0.06,-0.06,0.23,0.36,-1.19,-1.19,-1.19
478.13,-1.14,0.05,-1.14,0.06,-0.05,0.24,0.36,-1.19,-1.19,-1.19
482.91,-1.14,0.05,-1.14,0.05,-0.05,0.25,0.37,-1.19,-1.19,-1.19
487.74,-1.15,0.03,-1.15,0.04,-0.04,0.26,0.38,-1.19,-1.19,-1.19
492.62,-1.16,0.03,-1.16,0.03,-0.03,0.27,0.38,-1.19,-1.19,-1.19
497.55,-1.16,0.03,-1.17,0.02,-0.02,0.28,0.39,-1.18,-1.19,-1.19
