frequency,raw,smoothed,error,error_smoothed,equalization,parametric_eq,fixed_band_eq,equalized_raw,equalized_smoothed,target
20.00,-4.45,-4.45,-6.85,-6.84,5.99,6.65,1.68,1.53,1.54,2.40
20.20,-4.36,-4.36,-6.81,-6.81,5.99,6.58,1.73,1.63,1.63,2.44
20.40,-4.27,-4.28,-6.77,-6.77,6.00,6.51,1.79,1.73,1.73,2.49
20.61,-4.19,-4.19,-6.72,-6.72,6.01,6.43,1.84,1.81,1.82,2.52
20.81,-4.10,-4.10,-6.67,-6.67,6.01,6.36,1.90,1.91,1.91,2.57
21.02,-4.01,-4.01,-6.62,-6.62,6.01,6.28,1.95,2.00,2.00,2.61
21.23,-3.92,-3.92,-6.55,-6.55,6.01,6.21,2.01,2.09,2.09,2.63
21.44,-3.82,-3.82,-6.47,-6.48,6.01,6.13,2.07,2.19,2.18,2.65
21.66,-3.73,-3.73,-6.40,-6.40,6.02,6.06,2.14,2.28,2.29,2.67
21.87,-3.63,-3.63,-6.31,-6.32,6.02,5.98,2.20,2.39,2.38,2.68
22.09,-3.54,-3.54,-6.24,-6.24,6.01,5.90,2.27,2.47,2.47,2.70
22.31,-3.45,-3.45,-6.16,-6.16,5.99,5.83,2.34,2.54,2.54,2.71
22.54,-3.36,-3.36,-6.07,-6.07,5.96,5.75,2.40,2.60,2.60,2.71
22.76,-3.27,-3.27,-5.98,-5.98,5.92,5.67,2.48,2.65,2.65,2.71
22.99,-3.18,-3.18,-5.88,-5.88,5.87,5.60,2.55,2.69,2.69,2.70
23.22,-3.09,-3.09,-5.79,-5.79,5.80,5.52,2.62,2.71,2.71,2.70
23.45,-3.00,-3.00,-5.70,-5.70,5.72,5.44,2.70,2.72,2.72,2.70
23.69,-2.91,-2.91,-5.62,-5.61,5.63,5.37,2.78,2.72,2.72,2.70
23.92,-2.82,-2.82,-5.52,-5.53,5.54,5.29,2.86,2.72,2.72,2.70
24.16,-2.72,-2.72,-5.43,-5.44,5.43,5.21,2.94,2.71,2.71,2.71
24.40,-2.62,-2.62,-5.34,-5.34,5.33,5.13,3.02,2.71,2.71,2.72
24.65,-2.52,-2.52,-5.23,-5.24,5.22,5.05,3.10,2.70,2.70,2.71
24.89,-2.42,-2.42,-5.13,-5.13,5.11,4.98,3.19,2.69,2.69,2.71
25.14,-2.31,-2.31,-5.02,-5.02,5.00,4.90,3.27,2.69,2.70,2.71
25.39,-2.19,-2.19,-4.91,-4.90,4.90,4.82,3.36,2.71,2.72,2.72
25.65,-2.07,-2.07,-4.79,-4.78,4.81,4.74,3.44,2.74,2.75,2.72
25.91,-1.95,-1.97,-4.66,-4.68,4.73,4.66,3.53,2.78,2.77,2.71
26.16,-1.89,-1.90,-4.60,-4.60,4.66,4.58,3.61,2.77,2.76,2.71
26.43,-1.86,-1.86,-4.57,-4.57,4.58,4.51,3.69,2.72,2.72,2.70
26.69,-1.83,-1.84,-4.53,-4.54,4.50,4.43,3.77,2.67,2.66,2.70
26.96,-1.80,-1.78,-4.51,-4.49,4.41,4.35,3.85,2.61,2.63,2.71
27.23,-1.69,-1.69,-4.40,-4.40,4.33,4.27,3.93,2.64,2.64,2.71
27.50,-1.55,-1.55,-4.26,-4.26,4.24,4.19,4.00,2.69,2.69,2.71
27.77,-1.41,-1.42,-4.11,-4.12,4.15,4.11,4.07,2.74,2.73,2.70
28.05,-1.29,-1.31,-3.99,-4.00,4.06,4.03,4.14,2.76,2.75,2.70
28.33,-1.23,-1.23,-3.92,-3.92,3.96,3.95,4.20,2.73,2.74,2.68
28.62,-1.17,-1.17,-3.86,-3.85,3.87,3.88,4.26,2.70,2.71,2.68
28.90,-1.11,-1.11,-3.80,-3.80,3.79,3.80,4.31,2.68,2.68,2.69
29.19,-1.05,-1.05,-3.73,-3.74,3.72,3.72,4.36,2.67,2.68,2.68
29.48,-0.98,-0.99,-3.68,-3.68,3.66,3.64,4.40,2.68,2.67,2.70
29.78,-0.92,-0.92,-3.61,-3.61,3.59,3.56,4.44,2.67,2.67,2.69
30.08,-0.85,-0.85,-3.55,-3.54,3.52,3.48,4.46,2.67,2.67,2.69
30.38,-0.76,-0.76,-3.45,-3.45,3.44,3.40,4.48,2.68,2.68,2.68
30.68,-0.67,-0.67,-3.35,-3.35,3.36,3.32,4.49,2.68,2.68,2.68
30.99,-0.57,-0.58,-3.25,-3.26,3.27,3.25,4.49,2.69,2.69,2.68
31.30,-0.49,-0.49,-3.17,-3.17,3.17,3.17,4.48,2.68,2.68,2.68
31.61,-0.40,-0.40,-3.08,-3.08,3.08,3.09,4.47,2.68,2.68,2.67
31.93,-0.32,-0.32,-2.99,-2.99,2.99,3.01,4.44,2.66,2.67,2.67
32.24,-0.23,-0.23,-2.89,-2.90,2.90,2.94,4.41,2.67,2.67,2.66
32.57,-0.15,-0.15,-2.82,-2.81,2.81,2.86,4.37,2.66,2.66,2.67
32.89,-0.06,-0.07,-2.73,-2.73,2.73,2.78,4.32,2.67,2.66,2.66
33.22,0.01,0.01,-2.64,-2.64,2.65,2.70,4.27,2.66,2.66,2.65
33.55,0.08,0.08,-2.57,-2.57,2.57,2.63,4.21,2.65,2.65,2.65
33.89,0.15,0.15,-2.49,-2.50,2.50,2.55,4.13,2.65,2.64,2.64
34.23,0.21,0.21,-2.43,-2.43,2.42,2.48,4.06,2.63,2.63,2.64
34.57,0.28,0.27,-2.35,-2.36,2.35,2.40,3.98,2.63,2.63,2.63
34.92,0.34,0.34,-2.29,-2.29,2.28,2.32,3.90,2.62,2.62,2.63
35.27,0.42,0.42,-2.21,-2.20,2.20,2.25,3.80,2.62,2.62,2.62
35.62,0.50,0.50,-2.12,-2.12,2.12,2.17,3.71,2.62,2.62,2.62
35.97,0.58,0.57,-2.04,-2.04,2.03,2.10,3.61,2.61,2.61,2.62
36.33,0.65,0.65,-1.97,-1.97,1.95,2.03,3.51,2.60,2.59,2.62
36.70,0.72,0.72,-1.89,-1.89,1.87,1.95,3.41,2.59,2.59,2.61
37.06,0.80,0.81,-1.81,-1.80,1.81,1.88,3.31,2.61,2.62,2.60
37.43,0.90,0.91,-1.72,-1.70,1.76,1.81,3.20,2.66,2.67,2.62
37.81,1.00,0.98,-1.62,-1.64,1.72,1.74,3.09,2.72,2.70,2.62
38.19,1.02,0.99,-1.59,-1.63,1.67,1.66,2.98,2.69,2.66,2.61
38.57,0.97,0.97,-1.65,-1.65,1.62,1.59,2.88,2.58,2.59,2.62
38.95,0.92,0.97,-1.70,-1.65,1.55,1.52,2.77,2.47,2.52,2.62
39.34,1.02,1.02,-1.60,-1.60,1.49,1.45,2.66,2.51,2.52,2.62
39.74,1.15,1.13,-1.46,-1.48,1.43,1.39,2.55,2.58,2.57,2.61
40.14,1.28,1.28,-1.34,-1.33,1.37,1.32,2.44,2.65,2.65,2.62
40.54,1.39,1.39,-1.22,-1.22,1.31,1.25,2.33,2.70,2.70,2.61
40.94,1.49,1.46,-1.12,-1.15,1.24,1.18,2.22,2.73,2.69,2.60
41.35,1.48,1.47,-1.12,-1.13,1.16,1.12,2.12,2.64,2.63,2.60
41.76,1.45,1.47,-1.14,-1.12,1.09,1.05,2.01,2.54,2.56,2.59
42.18,1.47,1.49,-1.13,-1.10,1.02,0.99,1.91,2.49,2.52,2.60
42.60,1.57,1.56,-1.01,-1.02,0.97,0.92,1.80,2.53,2.53,2.58
43.03,1.67,1.65,-0.90,-0.92,0.91,0.86,1.70,2.57,2.56,2.57
43.46,1.74,1.74,-0.83,-0.82,0.84,0.80,1.60,2.58,2.58,2.57
43.90,1.81,1.81,-0.73,-0.73,0.76,0.73,1.50,2.57,2.57,2.54
44.33,1.86,1.86,-0.66,-0.66,0.68,0.67,1.40,2.54,2.54,2.52
44.78,1.91,1.91,-0.59,-0.60,0.60,0.61,1.30,2.51,2.51,2.50
45.23,1.95,1.95,-0.55,-0.54,0.53,0.55,1.20,2.48,2.48,2.49
45.68,2.00,2.00,-0.48,-0.48,0.48,0.50,1.11,2.48,2.47,2.47
46.13,2.04,2.05,-0.42,-0.42,0.43,0.44,1.01,2.47,2.48,2.46
46.60,2.09,2.09,-0.37,-0.36,0.39,0.38,0.92,2.48,2.48,2.46
47.06,2.13,2.11,-0.31,-0.33,0.34,0.33,0.82,2.47,2.45,2.44
47.53,2.12,2.12,-0.31,-0.31,0.30,0.27,0.73,2.42,2.41,2.43
48.01,2.11,2.14,-0.32,-0.28,0.25,0.22,0.64,2.36,2.39,2.43
48.49,2.18,2.18,-0.23,-0.23,0.19,0.16,0.55,2.37,2.37,2.41
48.97,2.25,2.23,-0.14,-0.15,0.14,0.11,0.46,2.39,2.37,2.39
49.46,2.29,2.29,-0.07,-0.07,0.08,0.06,0.38,2.37,2.38,2.36
49.96,2.34,2.34,-0.00,-0.00,0.02,0.01,0.29,2.36,2.37,2.34
50.46,2.39,2.39,0.05,0.05,-0.04,-0.04,0.20,2.35,2.35,2.34
50.96,2.44,2.42,0.11,0.10,-0.09,-0.09,0.12,2.35,2.33,2.33
51.47,2.45,2.45,0.14,0.14,-0.14,-0.14,0.04,2.31,2.31,2.30
51.99,2.46,2.48,0.17,0.19,-0.18,-0.18,-0.04,2.28,2.30,2.29
52.51,2.51,2.51,0.22,0.22,-0.22,-0.23,-0.12,2.29,2.29,2.29
53.03,2.56,2.52,0.28,0.24,-0.25,-0.27,-0.20,2.31,2.27,2.28
53.56,2.53,2.54,0.26,0.27,-0.28,-0.32,-0.28,2.25,2.26,2.27
54.10,2.52,2.55,0.27,0.30,-0.30,-0.36,-0.36,2.22,2.25,2.25
54.64,2.59,2.58,0.35,0.34,-0.33,-0.40,-0.43,2.25,2.24,2.24
55.18,2.63,2.61,0.40,0.39,-0.37,-0.45,-0.50,2.26,2.24,2.23
55.74,2.63,2.62,0.42,0.41,-0.41,-0.49,-0.57,2.21,2.21,2.21
56.29,2.63,2.62,0.42,0.42,-0.46,-0.53,-0.64,2.17,2.16,2.20
56.86,2.62,2.66,0.43,0.48,-0.51,-0.57,-0.71,2.11,2.15,2.19
57.42,2.71,2.72,0.55,0.56,-0.56,-0.61,-0.77,2.15,2.17,2.16
58.00,2.84,2.79,0.69,0.64,-0.60,-0.64,-0.84,2.23,2.18,2.15
58.58,2.83,2.83,0.69,0.69,-0.65,-0.68,-0.90,2.18,2.18,2.14
59.16,2.82,2.83,0.70,0.72,-0.69,-0.72,-0.96,2.13,2.14,2.12
59.76,2.82,2.82,0.72,0.73,-0.74,-0.76,-1.01,2.08,2.08,2.10
60.35,2.82,2.82,0.76,0.76,-0.78,-0.79,-1.06,2.04,2.04,2.06
60.96,2.82,2.82,0.80,0.80,-0.81,-0.83,-1.12,2.01,2.01,2.02
61.57,2.82,2.82,0.84,0.84,-0.85,-0.86,-1.16,1.97,1.97,1.98
62.18,2.82,2.82,0.88,0.88,-0.88,-0.90,-1.21,1.94,1.94,1.94
62.80,2.82,2.82,0.93,0.93,-0.92,-0.93,-1.25,1.90,1.90,1.89
63.43,2.82,2.82,0.97,0.97,-0.97,-0.97,-1.29,1.85,1.85,1.85
64.07,2.82,2.82,1.02,1.02,-1.02,-1.00,-1.33,1.80,1.80,1.80
64.71,2.82,2.82,1.06,1.06,-1.07,-1.03,-1.37,1.75,1.75,1.75
65.35,2.82,2.82,1.10,1.10,-1.11,-1.07,-1.40,1.70,1.70,1.72
66.01,2.82,2.82,1.15,1.15,-1.16,-1.10,-1.44,1.66,1.66,1.67
66.67,2.82,2.83,1.20,1.21,-1.20,-1.13,-1.47,1.62,1.63,1.62
67.33,2.83,2.83,1.26,1.26,-1.24,-1.16,-1.50,1.59,1.59,1.57
68.01,2.84,2.82,1.31,1.30,-1.27,-1.20,-1.52,1.57,1.55,1.53
68.69,2.80,2.80,1.32,1.32,-1.31,-1.23,-1.55,1.49,1.49,1.48
69.37,2.76,2.76,1.33,1.34,-1.35,-1.26,-1.57,1.41,1.42,1.43
70.07,2.73,2.74,1.36,1.36,-1.39,-1.29,-1.60,1.34,1.35,1.37
70.77,2.73,2.73,1.40,1.40,-1.43,-1.33,-1.62,1.30,1.29,1.33
71.48,2.73,2.73,1.45,1.45,-1.47,-1.36,-1.64,1.25,1.25,1.28
72.19,2.73,2.73,1.52,1.52,-1.51,-1.39,-1.67,1.21,1.22,1.21
72.91,2.73,2.73,1.57,1.58,-1.55,-1.43,-1.69,1.17,1.18,1.15
73.64,2.73,2.72,1.63,1.63,-1.59,-1.46,-1.71,1.14,1.13,1.10
74.38,2.70,2.69,1.66,1.66,-1.63,-1.49,-1.73,1.07,1.07,1.04
75.12,2.65,2.65,1.67,1.67,-1.66,-1.52,-1.75,0.99,0.99,0.98
75.87,2.60,2.60,1.68,1.67,-1.70,-1.56,-1.78,0.90,0.90,0.92
76.63,2.55,2.55,1.68,1.69,-1.72,-1.59,-1.80,0.83,0.83,0.87
77.40,2.53,2.53,1.71,1.72,-1.75,-1.62,-1.83,0.78,0.79,0.82
78.17,2.53,2.53,1.77,1.76,-1.76,-1.66,-1.85,0.76,0.77,0.76
78.95,2.54,2.53,1.81,1.81,-1.78,-1.69,-1.88,0.75,0.75,0.73
79.74,2.53,2.52,1.86,1.84,-1.80,-1.73,-1.90,0.72,0.71,0.67
80.54,2.48,2.47,1.85,1.85,-1.83,-1.76,-1.93,0.65,0.64,0.63
81.35,2.41,2.42,1.84,1.84,-1.85,-1.80,-1.96,0.56,0.56,0.57
82.16,2.36,2.37,1.83,1.84,-1.87,-1.83,-1.99,0.49,0.49,0.53
82.98,2.34,2.34,1.85,1.86,-1.89,-1.87,-2.03,0.45,0.46,0.49
83.81,2.34,2.34,1.90,1.90,-1.90,-1.90,-2.06,0.44,0.44,0.43
84.65,2.34,2.33,1.95,1.94,-1.91,-1.94,-2.10,0.43,0.42,0.39
85.50,2.31,2.30,1.96,1.96,-1.93,-1.97,-2.14,0.38,0.37,0.35
86.35,2.25,2.25,1.95,1.95,-1.95,-2.01,-2.18,0.30,0.30,0.30
87.22,2.20,2.20,1.95,1.95,-1.97,-2.04,-2.22,0.23,0.23,0.25
88.09,2.15,2.17,1.95,1.97,-1.99,-2.08,-2.26,0.16,0.18,0.20
88.97,2.15,2.14,2.00,2.00,-2.01,-2.12,-2.31,0.14,0.14,0.15
89.86,2.15,2.12,2.05,2.02,-2.03,-2.15,-2.35,0.12,0.09,0.10
90.76,2.08,2.10,2.03,2.05,-2.05,-2.19,-2.40,0.03,0.05,0.04
91.66,2.06,2.07,2.06,2.08,-2.07,-2.23,-2.45,-0.01,-0.00,0.00
92.58,2.06,2.04,2.12,2.09,-2.09,-2.27,-2.51,-0.04,-0.06,-0.06
93.51,2.01,2.01,2.11,2.12,-2.11,-2.30,-2.56,-0.10,-0.10,-0.11
94.44,1.97,1.98,2.12,2.13,-2.12,-2.34,-2.62,-0.15,-0.14,-0.15
95.39,1.95,1.94,2.14,2.14,-2.13,-2.38,-2.67,-0.18,-0.18,-0.19
96.34,1.91,1.90,2.16,2.14,-2.13,-2.42,-2.73,-0.22,-0.24,-0.25
97.30,1.84,1.84,2.13,2.13,-2.14,-2.46,-2.79,-0.30,-0.30,-0.29
98.28,1.77,1.78,2.11,2.12,-2.14,-2.49,-2.86,-0.37,-0.36,-0.34
99.26,1.74,1.74,2.12,2.13,-2.14,-2.53,-2.92,-0.40,-0.40,-0.38
100.25,1.72,1.72,2.15,2.15,-2.14,-2.57,-2.98,-0.43,-0.43,-0.43
101.25,1.70,1.70,2.17,2.17,-2.15,-2.61,-3.05,-0.45,-0.45,-0.48
102.27,1.67,1.66,2.19,2.18,-2.16,-2.65,-3.11,-0.50,-0.51,-0.52
103.29,1.61,1.61,2.19,2.18,-2.19,-2.68,-3.18,-0.58,-0.58,-0.58
104.32,1.56,1.57,2.17,2.18,-2.21,-2.72,-3.24,-0.65,-0.64,-0.62
105.37,1.54,1.55,2.20,2.21,-2.24,-2.76,-3.30,-0.70,-0.69,-0.66
106.42,1.55,1.55,2.26,2.26,-2.27,-2.80,-3.37,-0.72,-0.72,-0.71
107.48,1.58,1.56,2.34,2.32,-2.30,-2.84,-3.43,-0.73,-0.74,-0.76
108.56,1.56,1.56,2.38,2.38,-2.35,-2.88,-3.49,-0.79,-0.79,-0.82
109.64,1.54,1.54,2.40,2.41,-2.39,-2.91,-3.55,-0.86,-0.85,-0.87
110.74,1.52,1.51,2.44,2.43,-2.45,-2.95,-3.61,-0.93,-0.93,-0.92
111.85,1.50,1.51,2.46,2.48,-2.50,-2.99,-3.66,-1.00,-0.99,-0.96
112.97,1.52,1.53,2.54,2.55,-2.55,-3.03,-3.71,-1.04,-1.02,-1.02
114.10,1.58,1.55,2.65,2.62,-2.61,-3.07,-3.76,-1.03,-1.06,-1.07
115.24,1.58,1.57,2.69,2.69,-2.68,-3.11,-3.80,-1.10,-1.11,-1.11
116.39,1.58,1.59,2.75,2.75,-2.75,-3.15,-3.84,-1.18,-1.16,-1.17
117.55,1.60,1.61,2.80,2.81,-2.84,-3.19,-3.87,-1.24,-1.23,-1.20
118.73,1.67,1.66,2.91,2.90,-2.92,-3.23,-3.90,-1.25,-1.26,-1.25
119.92,1.72,1.73,2.99,3.01,-3.00,-3.27,-3.92,-1.29,-1.27,-1.27
121.12,1.81,1.80,3.12,3.11,-3.09,-3.31,-3.94,-1.28,-1.29,-1.31
122.33,1.87,1.85,3.21,3.19,-3.18,-3.36,-3.95,-1.31,-1.32,-1.34
123.55,1.91,1.90,3.27,3.27,-3.26,-3.40,-3.95,-1.36,-1.36,-1.37
124.79,1.92,1.95,3.32,3.35,-3.35,-3.45,-3.95,-1.44,-1.40,-1.40
126.03,2.02,2.01,3.45,3.43,-3.44,-3.50,-3.94,-1.43,-1.44,-1.43
127.29,2.08,2.07,3.53,3.52,-3.53,-3.56,-3.93,-1.46,-1.47,-1.45
128.57,2.13,2.14,3.62,3.62,-3.62,-3.61,-3.91,-1.49,-1.49,-1.49
129.85,2.19,2.19,3.70,3.70,-3.71,-3.68,-3.88,-1.52,-1.52,-1.52
131.15,2.25,2.25,3.79,3.79,-3.80,-3.74,-3.84,-1.55,-1.55,-1.54
132.46,2.31,2.31,3.88,3.89,-3.88,-3.82,-3.80,-1.57,-1.56,-1.57
133.79,2.37,2.38,3.97,3.97,-3.96,-3.89,-3.76,-1.59,-1.58,-1.60
135.12,2.44,2.42,4.07,4.05,-4.03,-3.96,-3.70,-1.59,-1.61,-1.63
136.48,2.45,2.44,4.10,4.10,-4.10,-4.03,-3.65,-1.65,-1.65,-1.65
137.84,2.45,2.46,4.13,4.15,-4.16,-4.09,-3.59,-1.71,-1.70,-1.68
139.22,2.47,2.48,4.19,4.20,-4.22,-4.15,-3.53,-1.75,-1.73,-1.72
140.61,2.53,2.51,4.28,4.26,-4.27,-4.17,-3.46,-1.74,-1.76,-1.75
142.02,2.55,2.54,4.31,4.31,-4.32,-4.19,-3.39,-1.77,-1.78,-1.76
143.44,2.55,2.55,4.34,4.35,-4.36,-4.16,-3.31,-1.81,-1.81,-1.79
144.87,2.55,2.56,4.38,4.39,-4.40,-4.14,-3.24,-1.85,-1.83,-1.83
146.32,2.55,2.55,4.42,4.42,-4.42,-4.08,-3.16,-1.87,-1.86,-1.87
147.78,2.55,2.52,4.45,4.43,-4.42,-4.03,-3.08,-1.87,-1.90,-1.90
149.26,2.44,2.45,4.39,4.40,-4.40,-3.96,-3.00,-1.96,-1.96,-1.95
150.75,2.33,2.33,4.34,4.35,-4.35,-3.90,-2.92,-2.02,-2.02,-2.02
152.26,2.18,2.18,4.26,4.26,-4.26,-3.84,-2.84,-2.08,-2.07,-2.08
153.78,2.01,2.01,4.16,4.16,-4.12,-3.79,-2.75,-2.11,-2.10,-2.15
155.32,1.79,1.76,4.01,3.99,-3.93,-3.73,-2.67,-2.14,-2.16,-2.22
156.88,1.49,1.48,3.79,3.78,-3.69,-3.68,-2.59,-2.20,-2.21,-2.30
158.44,1.08,1.12,3.46,3.50,-3.42,-3.64,-2.51,-2.34,-2.30,-2.38
160.03,0.78,0.72,3.24,3.18,-3.14,-3.59,-2.42,-2.36,-2.42,-2.46
161.63,0.30,0.32,2.83,2.86,-2.86,-3.55,-2.34,-2.56,-2.54,-2.53
163.24,-0.05,-0.04,2.54,2.56,-2.62,-3.51,-2.26,-2.67,-2.66,-2.59
164.88,-0.33,-0.35,2.31,2.30,-2.43,-3.47,-2.18,-2.76,-2.78,-2.64
166.53,-0.54,-0.53,2.15,2.16,-2.32,-3.43,-2.10,-2.86,-2.85,-2.69
168.19,-0.62,-0.60,2.11,2.13,-2.27,-3.39,-2.03,-2.89,-2.87,-2.73
169.87,-0.57,-0.56,2.20,2.21,-2.29,-3.35,-1.95,-2.86,-2.84,-2.77
171.57,-0.40,-0.42,2.39,2.37,-2.36,-3.31,-1.88,-2.76,-2.78,-2.79
173.29,-0.26,-0.26,2.54,2.54,-2.46,-3.27,-1.80,-2.72,-2.72,-2.80
175.02,-0.11,-0.13,2.70,2.68,-2.57,-3.23,-1.73,-2.68,-2.70,-2.81
176.77,-0.06,-0.06,2.76,2.76,-2.68,-3.18,-1.66,-2.74,-2.73,-2.82
178.54,-0.01,-0.01,2.82,2.81,-2.76,-3.14,-1.59,-2.77,-2.77,-2.83
180.32,-0.00,0.01,2.82,2.83,-2.81,-3.09,-1.52,-2.81,-2.80,-2.82
182.13,0.01,0.01,2.82,2.83,-2.84,-3.04,-1.45,-2.83,-2.83,-2.81
183.95,0.02,-0.02,2.84,2.80,-2.84,-2.99,-1.39,-2.83,-2.86,-2.82
185.79,-0.07,-0.03,2.75,2.80,-2.83,-2.94,-1.32,-2.90,-2.87,-2.83
187.65,-0.07,-0.05,2.78,2.79,-2.81,-2.88,-1.26,-2.88,-2.86,-2.85
189.52,-0.05,-0.08,2.81,2.77,-2.77,-2.83,-1.20,-2.82,-2.86,-2.86
191.42,-0.11,-0.11,2.76,2.76,-2.73,-2.77,-1.13,-2.84,-2.84,-2.88
193.33,-0.19,-0.17,2.70,2.72,-2.68,-2.71,-1.07,-2.87,-2.85,-2.90
195.27,-0.25,-0.26,2.66,2.65,-2.62,-2.64,-1.02,-2.87,-2.88,-2.91
197.22,-0.35,-0.38,2.58,2.55,-2.57,-2.58,-0.96,-2.92,-2.95,-2.93
199.19,-0.50,-0.50,2.46,2.45,-2.51,-2.51,-0.90,-3.01,-3.01,-2.96
201.18,-0.65,-0.58,2.32,2.39,-2.45,-2.44,-0.85,-3.10,-3.03,-2.97
203.19,-0.64,-0.64,2.35,2.36,-2.38,-2.36,-0.79,-3.02,-3.02,-2.99
205.23,-0.61,-0.70,2.40,2.31,-2.31,-2.29,-0.74,-2.92,-3.01,-3.02
207.28,-0.78,-0.76,2.24,2.27,-2.23,-2.21,-0.69,-3.02,-2.99,-3.02
209.35,-0.90,-0.84,2.14,2.21,-2.16,-2.12,-0.64,-3.06,-3.00,-3.05
211.44,-0.92,-0.95,2.16,2.12,-2.08,-2.04,-0.59,-3.00,-3.03,-3.08
213.56,-1.03,-1.08,2.05,2.01,-2.00,-1.95,-0.55,-3.03,-3.08,-3.08
215.69,-1.23,-1.22,1.87,1.88,-1.91,-1.86,-0.50,-3.15,-3.14,-3.10
217.85,-1.43,-1.36,1.68,1.75,-1.82,-1.77,-0.46,-3.25,-3.17,-3.11
220.03,-1.43,-1.46,1.69,1.67,-1.71,-1.67,-0.42,-3.15,-3.17,-3.12
222.23,-1.49,-1.53,1.65,1.61,-1.60,-1.57,-0.38,-3.09,-3.13,-3.14
224.45,-1.62,-1.59,1.51,1.54,-1.48,-1.47,-0.34,-3.10,-3.08,-3.14
226.70,-1.72,-1.72,1.42,1.42,-1.36,-1.37,-0.30,-3.08,-3.08,-3.14
228.96,-1.83,-1.86,1.30,1.26,-1.23,-1.26,-0.26,-3.07,-3.10,-3.13
231.25,-2.03,-2.02,1.09,1.09,-1.10,-1.15,-0.23,-3.13,-3.13,-3.12
233.57,-2.20,-2.18,0.91,0.93,-0.97,-1.04,-0.20,-3.17,-3.15,-3.11
235.90,-2.33,-2.32,0.77,0.78,-0.82,-0.93,-0.17,-3.15,-3.14,-3.10
238.26,-2.41,-2.42,0.68,0.66,-0.67,-0.81,-0.14,-3.08,-3.10,-3.09
240.64,-2.51,-2.53,0.55,0.54,-0.53,-0.69,-0.12,-3.04,-3.06,-3.07
243.05,-2.63,-2.62,0.40,0.41,-0.40,-0.57,-0.09,-3.03,-3.02,-3.03
245.48,-2.74,-2.73,0.27,0.29,-0.27,-0.45,-0.07,-3.01,-3.00,-3.01
247.93,-2.81,-2.84,0.17,0.15,-0.15,-0.33,-0.05,-2.96,-2.98,-2.98
250.41,-2.93,-2.93,0.04,0.03,-0.03,-0.20,-0.03,-2.96,-2.96,-2.97
252.92,-3.05,-3.02,-0.11,-0.08,0.08,-0.08,-0.02,-2.97,-2.94,-2.94
255.45,-3.09,-3.12,-0.18,-0.20,0.18,0.05,-0.00,-2.92,-2.94,-2.91
258.00,-3.17,-3.21,-0.28,-0.32,0.27,0.17,0.01,-2.90,-2.94,-2.89
260.58,-3.32,-3.27,-0.44,-0.39,0.37,0.30,0.02,-2.95,-2.90,-2.88
263.19,-3.34,-3.31,-0.50,-0.46,0.47,0.42,0.03,-2.87,-2.84,-2.84
265.82,-3.29,-3.35,-0.46,-0.53,0.58,0.54,0.03,-2.71,-2.78,-2.83
268.48,-3.40,-3.40,-0.59,-0.60,0.69,0.66,0.04,-2.72,-2.72,-2.81
271.16,-3.53,-3.52,-0.76,-0.74,0.79,0.77,0.04,-2.74,-2.73,-2.77
273.87,-3.64,-3.68,-0.88,-0.92,0.89,0.89,0.04,-2.76,-2.79,-2.76
276.61,-3.81,-3.79,-1.09,-1.06,0.98,0.99,0.04,-2.83,-2.81,-2.72
279.38,-3.89,-3.83,-1.19,-1.13,1.07,1.09,0.04,-2.82,-2.76,-2.70
282.17,-3.82,-3.85,-1.15,-1.18,1.16,1.19,0.04,-2.67,-2.70,-2.67
284.99,-3.78,-3.86,-1.14,-1.21,1.23,1.28,0.03,-2.56,-2.63,-2.64
287.84,-3.92,-3.87,-1.30,-1.25,1.28,1.36,0.03,-2.64,-2.58,-2.62
290.72,-3.92,-3.89,-1.33,-1.30,1.32,1.43,0.02,-2.60,-2.57,-2.59
293.63,-3.88,-3.92,-1.32,-1.36,1.35,1.49,0.02,-2.53,-2.56,-2.56
296.57,-3.90,-3.92,-1.37,-1.39,1.39,1.55,0.01,-2.51,-2.53,-2.53
299.53,-3.97,-3.94,-1.47,-1.44,1.44,1.59,0.00,-2.53,-2.50,-2.50
302.53,-3.97,-3.95,-1.49,-1.48,1.48,1.63,-0.01,-2.49,-2.47,-2.49
305.55,-3.94,-3.96,-1.50,-1.51,1.53,1.65,-0.02,-2.41,-2.43,-2.44
308.61,-3.93,-3.97,-1.51,-1.55,1.57,1.67,-0.03,-2.37,-2.40,-2.42
311.69,-4.02,-4.00,-1.63,-1.61,1.60,1.68,-0.04,-2.43,-2.40,-2.40
314.81,-4.03,-4.02,-1.66,-1.65,1.62,1.68,-0.05,-2.41,-2.40,-2.37
317.96,-4.03,-4.01,-1.68,-1.66,1.63,1.67,-0.06,-2.40,-2.38,-2.35
321.14,-3.96,-3.98,-1.62,-1.63,1.63,1.65,-0.07,-2.33,-2.34,-2.35
324.35,-3.93,-3.96,-1.60,-1.63,1.62,1.62,-0.09,-2.31,-2.33,-2.33
327.59,-3.93,-3.93,-1.62,-1.61,1.61,1.59,-0.10,-2.32,-2.32,-2.31
330.87,-3.93,-3.89,-1.63,-1.58,1.58,1.55,-0.11,-2.35,-2.30,-2.30
334.18,-3.81,-3.83,-1.52,-1.54,1.55,1.50,-0.12,-2.26,-2.28,-2.29
337.52,-3.75,-3.78,-1.47,-1.51,1.52,1.45,-0.14,-2.23,-2.26,-2.28
340.90,-3.75,-3.74,-1.49,-1.47,1.50,1.39,-0.15,-2.26,-2.24,-2.26
344.30,-3.73,-3.71,-1.48,-1.45,1.47,1.33,-0.16,-2.27,-2.25,-2.26
347.75,-3.67,-3.69,-1.41,-1.44,1.43,1.27,-0.17,-2.24,-2.26,-2.26
351.23,-3.65,-3.66,-1.40,-1.41,1.39,1.20,-0.19,-2.26,-2.27,-2.25
354.74,-3.65,-3.62,-1.40,-1.37,1.36,1.13,-0.20,-2.30,-2.26,-2.25
358.28,-3.57,-3.58,-1.33,-1.33,1.31,1.06,-0.21,-2.26,-2.26,-2.24
361.87,-3.49,-3.51,-1.25,-1.26,1.27,0.99,-0.23,-2.23,-2.24,-2.25
365.49,-3.45,-3.43,-1.21,-1.19,1.21,0.92,-0.24,-2.24,-2.22,-2.24
369.14,-3.36,-3.39,-1.11,-1.14,1.14,0.85,-0.26,-2.22,-2.24,-2.25
372.83,-3.33,-3.34,-1.08,-1.09,1.08,0.78,-0.27,-2.26,-2.26,-2.25
376.56,-3.30,-3.26,-1.05,-1.01,1.01,0.71,-0.28,-2.30,-2.26,-2.25
380.33,-3.18,-3.18,-0.94,-0.93,0.93,0.64,-0.30,-2.25,-2.25,-2.25
384.13,-3.07,-3.10,-0.82,-0.85,0.86,0.57,-0.31,-2.21,-2.24,-2.25
387.97,-3.02,-3.03,-0.76,-0.77,0.78,0.50,-0.32,-2.24,-2.24,-2.26
391.85,-3.00,-2.97,-0.73,-0.70,0.71,0.44,-0.34,-2.29,-2.26,-2.27
395.77,-2.90,-2.91,-0.64,-0.64,0.63,0.37,-0.35,-2.28,-2.28,-2.26
399.73,-2.81,-2.83,-0.54,-0.56,0.55,0.31,-0.37,-2.26,-2.28,-2.27
403.72,-2.75,-2.73,-0.48,-0.46,0.47,0.25,-0.38,-2.28,-2.26,-2.27
407.76,-2.66,-2.66,-0.38,-0.38,0.39,0.19,-0.39,-2.27,-2.27,-2.29
411.84,-2.57,-2.59,-0.28,-0.31,0.31,0.13,-0.41,-2.26,-2.28,-2.29
415.96,-2.54,-2.52,-0.25,-0.23,0.23,0.07,-0.42,-2.32,-2.29,-2.29
420.12,-2.44,-2.44,-0.15,-0.15,0.14,0.02,-0.44,-2.30,-2.31,-2.29
424.32,-2.34,-2.36,-0.05,-0.08,0.05,-0.04,-0.45,-2.29,-2.31,-2.29
428.56,-2.27,-2.25,0.01,0.03,-0.03,-0.09,-0.46,-2.30,-2.28,-2.28
432.85,-2.15,-2.13,0.12,0.14,-0.12,-0.14,-0.48,-2.27,-2.25,-2.27
437.18,-1.98,-2.02,0.28,0.24,-0.21,-0.19,-0.49,-2.19,-2.23,-2.26
441.55,-1.90,-1.92,0.32,0.31,-0.31,-0.24,-0.50,-2.21,-2.23,-2.22
445.96,-1.84,-1.81,0.35,0.39,-0.41,-0.28,-0.52,-2.25,-2.22,-2.20
450.42,-1.72,-1.69,0.44,0.47,-0.51,-0.33,-0.53,-2.23,-2.20,-2.17
454.93,-1.50,-1.54,0.62,0.58,-0.60,-0.37,-0.54,-2.10,-2.13,-2.12
459.48,-1.36,-1.36,0.71,0.71,-0.68,-0.41,-0.55,-2.04,-2.04,-2.07
464.07,-1.21,-1.20,0.81,0.81,-0.77,-0.45,-0.57,-1.98,-1.97,-2.02
468.71,-1.06,-1.08,0.90,0.88,-0.86,-0.49,-0.58,-1.92,-1.94,-1.96
473.40,-0.99,-0.98,0.93,0.93,-0.94,-0.53,-0.59,-1.94,-1.93,-1.92
478.13,-0.88,-0.89,0.98,0.97,-1.02,-0.57,-0.60,-1.91,-1.92,-1.86
482.91,-0.80,-0.77,1.02,1.05,-1.09,-0.61,-0.61,-1.89,-1.86,-1.82
487.74,-0.64,-0.62,1.14,1.16,-1.15,-0.64,-0.62,-1.79,-1.77,-1.78
