frequency,raw
20,-14.301640665163061
21,-13.43765254493211
22,-12.450513445124772
23,-11.469974855781874
24,-10.635228005924095
25,-9.70274125353906
26,-8.782881269511053
27,-8.06194898613351
28,-7.145178600375257
29,-6.326112846060718
30,-5.6133115786353684
31,-4.796495893566639
32,-4.055082828490534
33,-3.2914918724007114
34,-2.6959651465412446
35,-2.0457733802794515
36,-1.50880719280829
37,-0.8681171493685359
38,-0.24208084911049188
39,0.18140639313449858
40,0.6572643978496829
41,1.1783076026811679
42,1.4109784907133078
43,1.8460467493345236
44,2.170742948160008
45,2.4535806681619152
46,2.8012421126288887
47,2.95425352308666
48,3.1034163845285607
49,3.1273634515226463
50,3.0980891397604746
51,3.0631913689686754
52,2.9404331903627527
53,2.768997146627348
54,2.702782711343749
55,2.694030154122255
56,2.71452748394848
57,2.6023028123694223
58,2.6754522281710256
59,2.662662296133144
60,2.4016192327762003
61,2.266703683912411
62,1.9916558687893327
63,1.8518217275089484
64,1.630832893833372
65,1.362351309182951
66,1.1321545154456394
67,0.9157044376062455
68,0.8652055971321418
69,0.7598811331118523
70,0.5670338702823833
71,0.4982441572089029
72,0.3673385030210473
73,0.29403609295122557
74,0.22140222383620833
75,0.12552265626531178
76,0.12552825163442438
77,0.02963101048311234
78,-0.06628717106825766
79,-0.06634374757325556
80,-0.07957255352746839
81,-0.1624421689129758
82,-0.1625739218327169
83,-0.2585777590458319
84,-0.3545148323809103
85,-0.37312168069186946
86,-0.45003857737655284
87,-0.4494890479770959
88,-0.44863016821054036
89,-0.6306783664101862
90,-0.6378285192178532
91,-0.6363162564177742
92,-0.6780965478281501
93,-0.8201916507600637
94,-0.8258529801281298
95,-0.8272460405747889
96,-1.008079431364532
97,-1.0279160577172952
98,-1.0362719533068399
99,-1.064194563086017
100,-1.2149378544459408
101,-1.2712876375951083
102,-1.291401233581094
104,-1.475727777037099
105,-1.5292723187678423
106,-1.5537894616198018
107,-1.578165482795609
108,-1.6638359870464408
109,-1.7189708614122112
110,-1.8177621330193756
111,-1.8498167233449643
112,-1.862305194189062
113,-1.8711812013334523
114,-1.9346370522066747
115,-1.9743346232612966
117,-2.06922546638581
118,-2.0657663357250744
119,-2.0604105977626905
120,-2.0537321712425936
121,-2.107574087101743
123,-2.230256211976047
124,-2.2224947489969775
125,-2.2150101259522867
126,-2.2079445637316675
128,-2.244614412151648
129,-2.3332332330640595
130,-2.381372861882138
131,-2.376151070308281
133,-2.3942310186624183
134,-2.4557438500024173
135,-2.469325807000263
137,-2.551701502031811
138,-2.5490558212945267
140,-2.547065732500803
141,-2.545726633141521
142,-2.544987359912289
144,-2.594954107609428
145,-2.64076631543902
147,-2.6410937971154564
148,-2.6414545106824208
150,-2.737587631892616
151,-2.737600265107506
153,-2.737329960417429
154,-2.736798315042805
156,-2.736109349389938
157,-2.7354478358527596
159,-2.830956454690759
160,-2.8311482850281413
162,-2.9109909968535383
164,-2.9302900108489864
165,-2.9337623143335767
167,-2.9385338185565772
169,-2.944439109035536
170,-2.9511152789311286
172,-2.958011515699635
174,-2.9644281993427155
175,-2.969583807332426
177,-2.972702775673196
179,-2.973112908072922
181,-3.065135808734039
183,-3.0600612259823823
184,-3.1456622723063465
186,-3.134161135321646
188,-3.1196338053197277
190,-3.1037890595603614
192,-3.0875959665206985
194,-3.072007223823043
196,-3.0578584487785845
198,-3.0457907068363497
200,-3.0362062865094233
202,-3.0292611265137834
204,-3.0248903220892704
206,-3.0228572521669337
208,-3.093338393632668
210,-3.1202448305631147
212,-3.122954016031236
214,-3.126422701406298
216,-3.1969331151784353
218,-3.229923626893754
221,-3.233225158522046
223,-3.2355687476576347
225,-3.23643417305588
227,-3.2352817666601776
229,-3.231599378491855
232,-3.224967677054883
234,-3.2151331749329177
236,-3.202075107771172
239,-3.186051827793328
241,-3.1902191512030553
244,-3.2434741363183983
246,-3.222871615349633
248,-3.2028257672803475
251,-3.1844509718985194
253,-3.1687238877819333
256,-3.156371438015135
259,-3.147786361691617
261,-3.142981982251102
264,-3.1415923203067213
266,-3.1429174185365456
269,-3.146007690056814
272,-3.1497760913167934
274,-3.153123586191154
277,-3.1550620688262763
280,-3.154819720772803
283,-3.1519164986968833
286,-3.1462016755913536
288,-3.1378505319966896
291,-3.127322736227434
294,-3.115289920457537
297,-3.102543738479331
300,-3.0898977231122764
303,-3.078096249666369
306,-3.0677418878768137
309,-3.059248757771065
312,-3.052824854037456
316,-3.0484815100640366
319,-3.046064108711007
322,-3.0452955426934123
325,-3.0458232092562736
328,-3.0472614957179847
332,-3.049224354750838
335,-3.0513459563114074
338,-3.0532906953216465
342,-3.054756272661498
345,-3.0554746519367555
349,-3.0552152898031313
352,-3.0537933925765026
356,-3.0508881622354123
359,-2.9730712491697373
363,-2.9458093636840035
366,-2.939332454606331
370,-2.9319792362212227
374,-2.92641975563885
377,-2.9887350379680244
381,-3.0046172360505294
385,-2.998107197604754
389,-2.9930264876722066
393,-2.9897370465098536
397,-2.9884296457089405
401,-2.989060123201442
405,-3.0223980448755516
409,-3.0903581347597022
413,-3.093470740238226
417,-3.09521138498246
421,-3.0940355155837524
425,-3.088288494562465
430,-3.154584765272088
434,-3.1545744410636294
438,-3.1249447610555428
443,-3.0883174538100135
447,-3.0433263175394463
451,-2.991072966672599
456,-2.9311826415399764
460,-2.8721479204825413
465,-2.8570362186199163
470,-2.8452827427537173
474,-2.787962575172596
479,-2.7355043244991735
484,-2.6887920313032447
489,-2.6481452240843666
494,-2.613467742107627
499,-2.5844749351622442
504,-2.560945436196685
509,-2.542935304266329
514,-2.5141815907207574
519,-2.429781573508171
524,-2.390171544744824
529,-2.3481325673468523
535,-2.369322948138965
540,-2.362119796880479
545,-2.3437898493203346
551,-2.3902261824903546
556,-2.4408415886133223
562,-2.492344001933685
568,-2.541262190886546
573,-2.584397027920859
579,-2.619231081333166
585,-2.6442137689052343
591,-2.658865366362585
596,-2.577512242865688
602,-2.5458421293331863
608,-2.553087163541358
615,-2.553350334721784
621,-2.533527616521882
627,-2.4073733318858994
633,-2.3659263214342485
639,-2.3174132389001487
646,-2.1796901732487877
652,-2.159239880934892
659,-2.127740334189517
665,-2.011053358048619
672,-1.9102475258231317
679,-1.8600594609503813
686,-1.8145709914209731
692,-1.776801062423287
699,-1.7492444451688873
706,-1.6376024695460494
713,-1.6341008711388352
721,-1.5461898901877422
728,-1.5646907339738738
735,-1.5887062793204396
742,-1.5848467547538196
750,-1.4715754912420893
757,-1.4646326919443544
765,-1.407149209760603
773,-1.4240138526172768
780,-1.4348546890271876
788,-1.4400612993420687
796,-1.3447626392512266
804,-1.2761415619399665
812,-1.242021827333245
820,-1.1901650070933576
828,-1.1384036018092158
837,-1.136988740124692
845,-1.1141205958243834
853,-1.0238518145688085
862,-0.9548554840878697
871,-0.9567343032105555
879,-0.8737995756077154
888,-0.8532682881358009
897,-0.7723211069985616
906,-0.7392713945108024
915,-0.6577951345294735
924,-0.617886532416801
933,-0.6197770551471595
943,-0.5716810095627991
952,-0.521397634232212
962,-0.40772382800625107
971,-0.31867382112527404
981,-0.21870264340456919
991,-0.13018589770834432
1001,0.014392713557215608
1011,0.12393693764621935
1021,0.2428552692964644
1031,0.2697248424325701
1041,0.3006315797386855
1052,0.33575475362354124
1062,0.37526068389109923
1073,0.41930737021330156
1084,0.46010982036415526
1094,0.47370030047967293
1105,0.5802605482270388
1116,0.6440749172931103
1128,0.809177334309923
1139,0.9434717045935689
1150,1.0605721915593156
1162,1.190771167123898
1173,1.3363033611019848
1185,1.4358732284617859
1197,1.5420451918006688
1209,1.6548213035423016
1221,1.774069941998571
1233,1.8995092838335144
1246,2.030705619927752
1258,2.2629781705206353
1271,2.4038657237091954
1283,2.5485057526750983
1296,2.6961100463204155
1309,2.7262898750181614
1322,2.8052655356202556
1335,2.9400958712554335
1349,3.134163215296454
1362,3.355139038262142
1376,3.503876529446314
1390,3.745675134155673
1404,3.8592778289768526
1418,3.765339073845852
1432,3.8785762048721035
1446,4.088310414843783
1461,4.167512552749978
1475,4.101198366398544
1490,4.173392654494677
1505,4.3588480863649455
1520,4.370537089845903
1535,4.371647491903241
1550,4.450401626803961
1566,4.6911662612258995
1582,4.584239179487473
1597,4.549117030976891
1613,4.6114031895861824
1629,4.674297137814297
1646,4.834770958795146
1662,5.070364497389423
1679,5.162959355695733
1696,5.218692998480661
1713,5.362089231942672
1730,5.486682724927391
1747,5.724778404216442
1764,5.940479271316866
1782,5.869842843662589
1800,5.975844569219669
1818,5.947813673485665
1836,5.891114714105187
1854,5.917570303499555
1873,6.044738029340669
1892,6.201294677324702
1911,6.268469678471179
1930,5.847307764435446
1949,5.7233088936831225
1969,5.3443553058564754
1988,5.219536542978421
2008,5.092137362767431
2028,5.044071112139305
2048,4.997961956505213
2069,4.5393682037832255
2090,4.199955011805814
2111,3.89098189651323
2132,3.836531685499815
2153,3.8062405016103567
2175,3.715516374832485
2196,3.598584212504462
2218,3.3737985274315365
2240,3.0386304068570373
2263,2.8884191046747594
2285,2.596079218659196
2308,2.2896835688276527
2331,2.077278618414753
2355,1.9520853689306294
2378,1.759175842501028
2402,1.8318744197156427
2426,1.9384031023979098
2450,1.9765710823261387
2475,1.5870582114805352
2500,1.9175424645217927
2525,2.210628841546235
2550,2.5623457001901837
2575,3.039992088325789
2601,3.211411437778981
2627,3.3831072748156092
2653,3.66985334968234
2680,4.128523317935926
2707,4.891202336288202
2734,5.637004835082972
2761,6.185534621943014
2789,6.818488348335889
2817,7.056561873637276
2845,7.161800714038855
2873,7.1817723504063435
2902,7.224547245626998
2931,7.210849492195133
2960,7.2407940474187376
2990,7.506701544923614
3020,8.012321417431327
3050,8.426414608080723
3080,8.772659612744718
3111,9.059016535873592
3142,9.298444744303389
3174,9.379060954644746
3206,9.447388020810184
3238,9.504352362960866
3270,9.418130319190926
3303,9.340071955239868
3336,9.297083357059783
3369,9.305768928552759
3403,9.488507667292769
3437,9.627034917480621
3471,9.757238598330883
3506,9.701508715719601
3541,9.62425209459624
3576,9.488181627640184
3612,9.429374833264855
3648,9.455692931580383
3685,9.459164433746356
3721,9.3508801026675
3759,9.21054103218551
3796,9.067909247771674
3834,8.778280496574109
3873,8.52454764620024
3911,8.414582945074159
3950,8.240165431234157
3990,7.862406989619312
4030,7.670461120827386
4070,7.597291176523391
4111,7.4890519426113995
4152,7.30544664101322
4193,7.103409710351406
4235,6.944032175618209
4278,6.681152109267939
4321,6.558656250217308
4364,6.328206741548981
4407,5.888473686373131
4451,5.5348575558700555
4496,5.2118323469388885
4541,5.128858291606163
4586,5.012440032433859
4632,4.60619566287108
4679,4.348409127451758
4725,4.311417239063932
4773,4.316607039968249
4820,4.245013773320087
4868,3.9912817567559262
4917,3.826931901687537
4966,3.436345566966301
5016,3.2364779698539223
5066,3.1814292371116295
5117,3.036274379057401
5168,2.812259717386805
5220,2.7743354140270533
5272,2.625342876066277
5325,2.3176095098986096
5378,2.0561489393321732
5432,1.9778262613352595
5486,1.9964903091281982
5541,1.7737204152827974
5596,1.4982819924836228
5652,1.5709410420959156
5709,1.5352584140924819
5766,1.4033022673848947
5823,1.2692545629337335
5882,1.4798797046268781
5940,1.7231424284873498
6000,1.9990239704499224
6060,2.372620931724363
6120,2.4778553462193074
6182,2.435957111266559
6244,2.4945025529816514
6306,2.687723727710142
6369,2.591167448801289
6433,2.6157189726625587
6497,2.610166953220989
6562,2.655034916025465
6628,2.6817518369657813
6694,2.591717665642425
6761,2.8253611061862873
6828,2.8110637407925694
6897,2.8183554923583367
6966,2.792583069909777
7035,2.832109677565641
7106,2.735782339397094
7177,2.43964736515572
7249,2.0087255214284756
7321,1.4721827005259698
7394,0.9323964695769167
7468,0.4439412645411869
7543,-0.28778460350518387
7618,-1.100282507407015
7694,-1.4939021694035874
7771,-1.5809999727943218
7849,-1.7523543799816022
7928,-2.07341046417175
8007,-2.4804224873167557
8087,-2.0635241042631796
8168,-1.171972683797864
8250,-0.03522686867505964
8332,1.5084929229174957
8415,2.349516717301304
8499,3.9759821950892684
8584,4.640456076428078
8670,4.870890475851574
8757,4.841805173467711
8845,4.451912410928472
8933,4.02906196501305
9022,4.086593307575616
9113,4.422248663485606
9204,4.489688661092268
9296,4.224560715529932
9389,4.500818998157719
9483,4.914339643307409
9577,5.168181422053102
9673,4.3667777327189565
9770,3.291870817880035
9868,1.8544927420197332
9966,0.7992333932528872
10066,-1.3108354916700593
10167,-2.4536059669503
10268,-3.2470184884997995
10371,-3.8487712404370864
10475,-5.118229536777946
10579,-5.6753060076050375
10685,-4.666941233493313
10792,-3.7085151366867875
10900,-2.910731145470212
11009,-2.062925999951851
11119,-0.964193110237213
11230,-1.2387313300818033
11343,-1.4486168948464222
11456,-2.0135046189448804
11571,-2.5178732652850986
11686,-2.654052135572103
11803,-2.8958184894907593
11921,-2.852105211446908
12040,-3.2142874189106028
12161,-3.8819346645574804
12282,-4.484481694361291
12405,-5.5328161615739635
12529,-6.543450464006488
12655,-7.822326716373873
12781,-8.196479018706825
12909,-8.135286284844522
13038,-8.660416784283695
13168,-9.517069671957234
13300,-10.455789449689345
13433,-9.993600721127628
13567,-10.584192078913077
13703,-9.992845883472132
13840,-10.124044357450185
13978,-9.498956971021224
14118,-9.016459198132459
14259,-8.519444896706283
14402,-8.672572108207016
14546,-9.182322599843296
14692,-8.67191936243184
14838,-10.342628765069477
14987,-10.354338202689405
15137,-10.43271116356751
15288,-11.097505295603712
15441,-11.43246147852452
15595,-12.807773792685243
15751,-14.121332555388424
15909,-13.712596186477674
16068,-13.278667215126266
16229,-13.07024623470521
16391,-12.248450568492
16555,-10.78604986639567
16720,-10.192660064845246
16888,-9.8000423425298
17056,-9.497226656487317
17227,-8.457563480807949
17399,-7.696039562928616
17573,-6.0119557719990695
17749,-4.814518689537043
17926,-3.8250906354298513
18106,-3.2260526447367948
18287,-3.214631442517634
18470,-3.498527283587544
18654,-2.666047270202572
18841,-2.074785412546694
19029,-2.618709005981776
19220,-2.699831683162232
19412,-2.836230885210325
19606,-2.8206180308021285
19802,-3.8186144883488016
20000,-4.573981910524449
