frequency,raw
20.00,-6.24
20.20,-6.21
20.40,-6.19
20.61,-6.16
20.81,-6.13
21.02,-6.09
21.23,-6.06
21.44,-6.02
21.66,-5.98
21.87,-5.94
22.09,-5.90
22.31,-5.85
22.54,-5.80
22.76,-5.74
22.99,-5.68
23.22,-5.63
23.45,-5.58
23.69,-5.53
23.92,-5.48
24.16,-5.43
24.40,-5.37
24.65,-5.31
24.89,-5.24
25.14,-5.19
25.39,-5.14
25.65,-5.10
25.91,-5.07
26.16,-5.03
26.43,-4.98
26.69,-4.94
26.96,-4.90
27.23,-4.87
27.50,-4.84
27.77,-4.82
28.05,-4.79
28.33,-4.75
28.62,-4.72
28.90,-4.68
29.19,-4.64
29.48,-4.59
29.78,-4.54
30.08,-4.49
30.38,-4.44
30.68,-4.40
30.99,-4.37
31.30,-4.34
31.61,-4.31
31.93,-4.29
32.24,-4.26
32.57,-4.22
32.89,-4.18
33.22,-4.15
33.55,-4.11
33.89,-4.09
34.23,-4.06
34.57,-4.04
34.92,-4.01
35.27,-3.99
35.62,-3.97
35.97,-3.95
36.33,-3.94
36.70,-3.92
37.06,-3.91
37.43,-3.89
37.81,-3.88
38.19,-3.86
38.57,-3.84
38.95,-3.82
39.34,-3.79
39.74,-3.76
40.14,-3.74
40.54,-3.71
40.94,-3.69
41.35,-3.66
41.76,-3.62
42.18,-3.59
42.60,-3.55
43.03,-3.52
43.46,-3.48
43.90,-3.46
44.33,-3.44
44.78,-3.41
45.23,-3.39
45.68,-3.35
46.13,-3.33
46.60,-3.30
47.06,-3.29
47.53,-3.28
48.01,-3.27
48.49,-3.26
48.97,-3.25
49.46,-3.24
49.96,-3.22
50.46,-3.21
50.96,-3.18
51.47,-3.15
51.99,-3.12
52.51,-3.09
53.03,-3.06
53.56,-3.03
54.10,-3.00
54.64,-2.97
55.18,-2.95
55.74,-2.93
56.29,-2.92
56.86,-2.91
57.42,-2.91
58.00,-2.92
58.58,-2.93
59.16,-2.94
59.76,-2.94
60.35,-2.94
60.96,-2.95
61.57,-2.96
62.18,-2.96
62.80,-2.96
63.43,-2.94
64.07,-2.93
64.71,-2.91
65.35,-2.88
66.01,-2.86
66.67,-2.83
67.33,-2.79
68.01,-2.76
68.69,-2.73
69.37,-2.70
70.07,-2.67
70.77,-2.65
71.48,-2.63
72.19,-2.61
72.91,-2.60
73.64,-2.59
74.38,-2.59
75.12,-2.60
75.87,-2.60
76.63,-2.61
77.40,-2.61
78.17,-2.61
78.95,-2.61
79.74,-2.61
80.54,-2.61
81.35,-2.61
82.16,-2.61
82.98,-2.61
83.81,-2.61
84.65,-2.62
85.50,-2.63
86.35,-2.64
87.22,-2.63
88.09,-2.62
88.97,-2.61
89.86,-2.59
90.76,-2.56
91.66,-2.54
92.58,-2.51
93.51,-2.48
94.44,-2.45
95.39,-2.41
96.34,-2.38
97.30,-2.35
98.28,-2.31
99.26,-2.28
100.25,-2.26
101.25,-2.26
102.27,-2.26
103.29,-2.28
104.32,-2.31
105.37,-2.34
106.42,-2.38
107.48,-2.41
108.56,-2.44
109.64,-2.47
110.74,-2.50
111.85,-2.53
112.97,-2.56
114.10,-2.58
115.24,-2.60
116.39,-2.62
117.55,-2.63
118.73,-2.64
119.92,-2.64
121.12,-2.63
122.33,-2.64
123.55,-2.64
124.79,-2.63
126.03,-2.62
127.29,-2.61
128.57,-2.59
129.85,-2.57
131.15,-2.54
132.46,-2.51
133.79,-2.48
135.12,-2.45
136.48,-2.43
137.84,-2.41
139.22,-2.38
140.61,-2.35
142.02,-2.31
143.44,-2.28
144.87,-2.24
146.32,-2.21
147.78,-2.18
149.26,-2.15
150.75,-2.13
152.26,-2.11
153.78,-2.08
155.32,-2.05
156.88,-2.02
158.44,-2.00
160.03,-1.97
161.63,-1.96
163.24,-1.94
164.88,-1.94
166.53,-1.94
168.19,-1.95
169.87,-1.96
171.57,-1.96
173.29,-1.96
175.02,-1.96
176.77,-1.96
178.54,-1.96
180.32,-1.96
182.13,-1.96
183.95,-1.96
185.79,-1.96
187.65,-1.97
189.52,-1.98
191.42,-1.98
193.33,-1.99
195.27,-1.98
197.22,-1.97
199.19,-1.96
201.18,-1.93
203.19,-1.91
205.23,-1.88
207.28,-1.85
209.35,-1.82
211.44,-1.79
213.56,-1.76
215.69,-1.73
217.85,-1.70
220.03,-1.68
222.23,-1.65
224.45,-1.64
226.70,-1.62
228.96,-1.62
231.25,-1.62
233.57,-1.62
235.90,-1.63
238.26,-1.64
240.64,-1.64
243.05,-1.64
245.48,-1.64
247.93,-1.64
250.41,-1.64
252.92,-1.64
255.45,-1.64
258.00,-1.64
260.58,-1.64
263.19,-1.64
265.82,-1.64
268.48,-1.64
271.16,-1.64
273.87,-1.64
276.61,-1.64
279.38,-1.64
282.17,-1.65
284.99,-1.66
287.84,-1.66
290.72,-1.66
293.63,-1.65
296.57,-1.64
299.53,-1.62
302.53,-1.60
305.55,-1.57
308.61,-1.54
311.69,-1.51
314.81,-1.48
317.96,-1.45
321.14,-1.42
324.35,-1.39
327.59,-1.36
330.87,-1.34
334.18,-1.32
337.52,-1.30
340.90,-1.29
344.30,-1.29
347.75,-1.29
351.23,-1.30
354.74,-1.31
358.28,-1.31
361.87,-1.31
365.49,-1.31
369.14,-1.31
372.83,-1.31
376.56,-1.31
380.33,-1.31
384.13,-1.31
387.97,-1.32
391.85,-1.32
395.77,-1.33
399.73,-1.34
403.72,-1.34
407.76,-1.33
411.84,-1.32
415.96,-1.30
420.12,-1.28
424.32,-1.25
428.56,-1.22
432.85,-1.19
437.18,-1.16
441.55,-1.13
445.96,-1.10
450.42,-1.07
454.93,-1.04
459.48,-1.02
464.07,-1.00
468.71,-0.98
473.40,-0.97
478.13,-0.97
482.91,-0.97
487.74,-0.98
492.62,-0.99
497.55,-0.99
502.52,-0.99
507.55,-0.99
512.62,-0.99
517.75,-0.99
522.93,-1.00
528.16,-1.00
533.44,-1.01
538.77,-1.01
544.16,-1.01
549.60,-1.00
555.10,-0.98
560.65,-0.96
566.25,-0.94
571.92,-0.91
577.64,-0.89
583.41,-0.86
589.25,-0.82
595.14,-0.79
601.09,-0.76
607.10,-0.73
613.17,-0.71
619.30,-0.69
625.50,-0.67
631.75,-0.65
638.07,-0.65
644.45,-0.65
650.89,-0.65
657.40,-0.66
663.98,-0.67
670.62,-0.68
677.32,-0.69
684.10,-0.68
690.94,-0.68
697.85,-0.66
704.83,-0.64
711.87,-0.62
718.99,-0.59
726.18,-0.56
733.44,-0.53
740.78,-0.50
748.19,-0.47
755.67,-0.44
763.23,-0.41
770.86,-0.40
778.57,-0.38
786.35,-0.37
794.22,-0.35
802.16,-0.34
810.18,-0.32
818.28,-0.31
826.46,-0.29
834.73,-0.27
843.08,-0.24
851.51,-0.22
860.02,-0.18
868.62,-0.15
877.31,-0.12
886.08,-0.09
894.94,-0.07
903.89,-0.04
912.93,-0.02
922.06,-0.01
931.28,0.00
940.59,0.00
950.00,-0.01
959.50,-0.03
969.09,-0.04
978.78,-0.03
988.57,-0.02
998.46,-0.00
1008.44,0.02
1018.53,0.04
1028.71,0.06
1039.00,0.08
1049.39,0.11
1059.88,0.14
1070.48,0.18
1081.19,0.23
1092.00,0.27
1102.92,0.31
1113.95,0.35
1125.09,0.39
1136.34,0.44
1147.70,0.48
1159.18,0.52
1170.77,0.55
1182.48,0.60
1194.30,0.65
1206.25,0.72
1218.31,0.77
1230.49,0.83
1242.80,0.89
1255.22,0.95
1267.78,1.01
1280.45,1.06
1293.26,1.13
1306.19,1.20
1319.25,1.27
1332.45,1.35
1345.77,1.42
1359.23,1.50
1372.82,1.57
1386.55,1.66
1400.41,1.74
1414.42,1.82
1428.56,1.90
1442.85,1.98
1457.28,2.08
1471.85,2.18
1486.57,2.28
1501.43,2.38
1516.45,2.48
1531.61,2.58
1546.93,2.70
1562.40,2.82
1578.02,2.94
1593.80,3.06
1609.74,3.18
1625.84,3.31
1642.10,3.45
1658.52,3.60
1675.10,3.74
1691.85,3.88
1708.77,4.03
1725.86,4.18
1743.12,4.32
1760.55,4.46
1778.15,4.62
1795.94,4.79
1813.90,4.97
1832.03,5.15
1850.36,5.36
1868.86,5.56
1887.55,5.75
1906.42,5.95
1925.49,6.15
1944.74,6.36
1964.19,6.56
1983.83,6.76
2003.67,6.98
2023.71,7.19
2043.94,7.39
2064.38,7.58
2085.03,7.76
2105.88,7.93
2126.94,8.10
2148.20,8.25
2169.69,8.41
2191.38,8.54
2213.30,8.67
2235.43,8.77
2257.78,8.86
2280.36,8.95
2303.17,9.02
2326.20,9.05
2349.46,9.05
2372.95,9.02
2396.68,8.99
2420.65,8.93
2444.86,8.84
2469.31,8.73
2494.00,8.60
2518.94,8.45
2544.13,8.28
2569.57,8.10
2595.27,7.90
2621.22,7.69
2647.43,7.46
2673.90,7.21
2700.64,6.97
2727.65,6.71
2754.93,6.45
2782.48,6.18
2810.30,5.92
2838.40,5.65
2866.79,5.39
2895.46,5.12
2924.41,4.84
2953.65,4.56
2983.19,4.30
3013.02,4.04
3043.15,3.79
3073.58,3.54
3104.32,3.31
3135.36,3.09
3166.72,2.88
3198.38,2.67
3230.37,2.45
3262.67,2.22
3295.30,2.00
3328.25,1.79
3361.53,1.58
3395.15,1.36
3429.10,1.14
3463.39,0.91
3498.03,0.67
3533.01,0.44
3568.34,0.22
3604.02,0.00
3640.06,-0.22
3676.46,-0.41
3713.22,-0.57
3750.36,-0.72
3787.86,-0.82
3825.74,-0.90
3864.00,-0.95
3902.64,-0.97
3941.66,-0.96
3981.08,-0.92
4020.89,-0.87
4061.10,-0.78
4101.71,-0.68
4142.73,-0.55
4184.15,-0.42
4226.00,-0.29
4268.26,-0.16
4310.94,-0.03
4354.05,0.12
4397.59,0.27
4441.56,0.42
4485.98,0.57
4530.84,0.71
4576.15,0.88
4621.91,1.04
4668.13,1.21
4714.81,1.40
4761.96,1.58
4809.58,1.78
4857.67,2.00
4906.25,2.25
4955.31,2.50
5004.87,2.75
5054.91,3.02
5105.46,3.29
5156.52,3.56
5208.08,3.81
5260.16,4.05
5312.77,4.28
5365.89,4.50
5419.55,4.70
5473.75,4.86
5528.49,5.00
5583.77,5.11
5639.61,5.18
5696.00,5.23
5752.96,5.23
5810.49,5.21
5868.60,5.16
5927.28,5.07
5986.56,4.95
6046.42,4.80
6106.89,4.63
6167.96,4.39
6229.64,4.11
6291.93,3.78
6354.85,3.41
6418.40,2.98
6482.58,2.50
6547.41,1.98
6612.88,1.40
6679.01,0.77
6745.80,0.09
6813.26,-0.60
6881.39,-1.31
6950.21,-2.02
7019.71,-2.73
7089.91,-3.42
7160.81,-4.09
7232.41,-4.71
7304.74,-5.30
7377.79,-5.85
7451.56,-6.34
7526.08,-6.78
7601.34,-7.17
7677.35,-7.51
7754.13,-7.81
7831.67,-8.06
7909.98,-8.27
7989.08,-8.46
8068.98,-8.62
8149.67,-8.77
8231.16,-8.91
8313.47,-9.05
8396.61,-9.18
8480.57,-9.28
8565.38,-9.39
8651.03,-9.49
8737.54,-9.59
8824.92,-9.69
8913.17,-9.80
9002.30,-9.91
9092.32,-10.01
9183.25,-10.10
9275.08,-10.19
9367.83,-10.27
9461.51,-10.34
9556.12,-10.38
9651.68,-10.41
9748.20,-10.41
9845.68,-10.37
9944.14,-10.29
10043.58,-10.15
10144.02,-9.94
10245.46,-9.67
10347.91,-9.33
10451.39,-8.93
10555.91,-8.47
10661.46,-7.97
10768.08,-7.44
10875.76,-6.89
10984.52,-6.34
11094.36,-5.80
11205.31,-5.27
11317.36,-4.76
11430.53,-4.31
11544.84,-3.90
11660.29,-3.56
11776.89,-3.26
11894.66,-3.03
12013.60,-2.86
12133.74,-2.74
12255.08,-2.65
12377.63,-2.59
12501.41,-2.55
12626.42,-2.53
12752.68,-2.53
12880.21,-2.55
13009.01,-2.60
13139.10,-2.69
13270.49,-2.81
13403.20,-2.96
13537.23,-3.15
13672.60,-3.38
13809.33,-3.64
13947.42,-3.93
14086.90,-4.23
14227.77,-4.55
14370.04,-4.88
14513.74,-5.21
14658.88,-5.53
14805.47,-5.84
14953.52,-6.14
15103.06,-6.42
15254.09,-6.68
15406.63,-6.92
15560.70,-7.16
15716.30,-7.42
15873.47,-7.73
16032.20,-8.15
16192.52,-8.70
16354.45,-9.41
16517.99,-10.27
16683.17,-11.30
16850.01,-12.49
17018.51,-13.83
17188.69,-15.28
17360.58,-16.84
17534.18,-18.47
17709.53,-20.13
17886.62,-21.79
18065.49,-23.11
18246.14,-24.42
18428.60,-25.70
18612.89,-26.96
18799.02,-28.20
18987.01,-29.42
19176.88,-30.62
19368.65,-31.80
19562.33,-32.95
19757.96,-34.08
19955.54,-35.19
