frequency,raw,error,smoothed,error_smoothed,equalization,parametric_eq,fixed_band_eq,equalized_raw,equalized_smoothed,target
20.00,-11.75,-14.56,-11.75,-14.56,6.00,6.00,2.66,-5.75,-5.75,2.81
20.20,-11.65,-14.51,-11.65,-14.51,6.00,6.00,2.74,-5.65,-5.65,2.86
20.40,-11.56,-14.47,-11.56,-14.46,6.00,6.00,2.81,-5.56,-5.56,2.91
20.61,-11.46,-14.40,-11.46,-14.41,6.00,6.00,2.89,-5.46,-5.46,2.94
20.81,-11.37,-14.36,-11.37,-14.35,6.00,6.00,2.97,-5.37,-5.37,2.99
21.02,-11.27,-14.30,-11.28,-14.30,6.00,6.00,3.06,-5.27,-5.28,3.03
21.23,-11.20,-14.25,-11.20,-14.25,6.00,6.00,3.15,-5.20,-5.20,3.05
21.44,-11.13,-14.20,-11.12,-14.19,6.00,6.00,3.24,-5.13,-5.12,3.07
21.66,-11.05,-14.14,-11.05,-14.14,6.00,6.00,3.33,-5.05,-5.05,3.09
21.87,-10.98,-14.08,-10.98,-14.08,6.00,6.00,3.42,-4.98,-4.98,3.10
22.09,-10.91,-14.03,-10.91,-14.02,6.00,6.00,3.52,-4.91,-4.91,3.12
22.31,-10.83,-13.95,-10.83,-13.95,6.00,6.00,3.62,-4.83,-4.83,3.12
22.54,-10.75,-13.88,-10.75,-13.87,6.00,6.00,3.72,-4.75,-4.75,3.12
22.76,-10.67,-13.79,-10.67,-13.79,6.00,6.00,3.83,-4.67,-4.67,3.12
22.99,-10.59,-13.70,-10.60,-13.71,6.00,6.00,3.93,-4.59,-4.60,3.11
23.22,-10.53,-13.64,-10.53,-13.64,6.00,6.00,4.04,-4.53,-4.53,3.11
23.45,-10.46,-13.57,-10.46,-13.58,6.00,6.00,4.15,-4.46,-4.46,3.11
23.69,-10.40,-13.52,-10.40,-13.52,6.00,6.00,4.27,-4.40,-4.40,3.12
23.92,-10.33,-13.45,-10.32,-13.45,6.00,6.00,4.39,-4.33,-4.32,3.12
24.16,-10.24,-13.37,-10.24,-13.37,6.00,6.00,4.51,-4.24,-4.24,3.13
24.40,-10.13,-13.27,-10.13,-13.26,6.00,6.00,4.63,-4.13,-4.13,3.14
24.65,-10.03,-13.16,-10.03,-13.16,6.00,6.00,4.75,-4.03,-4.03,3.13
24.89,-9.92,-13.05,-9.93,-13.06,6.00,6.00,4.88,-3.92,-3.93,3.13
25.14,-9.84,-12.97,-9.84,-12.97,6.00,6.00,5.00,-3.84,-3.84,3.13
25.39,-9.76,-12.89,-9.76,-12.89,6.00,6.00,5.13,-3.76,-3.76,3.13
25.65,-9.68,-12.81,-9.68,-12.81,6.00,6.00,5.26,-3.68,-3.68,3.13
25.91,-9.61,-12.73,-9.61,-12.74,6.00,6.00,5.39,-3.61,-3.61,3.12
26.16,-9.55,-12.67,-9.56,-12.68,6.00,6.00,5.52,-3.55,-3.56,3.12
26.43,-9.51,-12.63,-9.51,-12.63,6.00,6.01,5.65,-3.51,-3.51,3.12
26.69,-9.47,-12.59,-9.47,-12.59,6.00,6.01,5.77,-3.47,-3.47,3.12
26.96,-9.43,-12.56,-9.42,-12.54,6.00,6.01,5.90,-3.43,-3.42,3.13
27.23,-9.34,-12.47,-9.34,-12.46,6.00,6.01,6.02,-3.34,-3.34,3.13
27.50,-9.24,-12.37,-9.24,-12.37,6.00,6.01,6.15,-3.24,-3.24,3.12
27.77,-9.14,-12.25,-9.14,-12.26,6.00,6.01,6.26,-3.14,-3.14,3.11
28.05,-9.05,-12.16,-9.06,-12.17,6.00,6.01,6.38,-3.05,-3.06,3.11
28.33,-9.00,-12.10,-9.00,-12.10,6.00,6.01,6.49,-3.00,-3.00,3.10
28.62,-8.95,-12.05,-8.95,-12.05,6.00,6.01,6.60,-2.95,-2.95,3.10
28.90,-8.90,-12.01,-8.90,-12.00,6.00,6.01,6.69,-2.90,-2.90,3.11
29.19,-8.85,-11.95,-8.85,-11.96,6.00,6.01,6.79,-2.85,-2.85,3.10
29.48,-8.80,-11.91,-8.81,-11.91,6.00,6.01,6.87,-2.80,-2.81,3.11
29.78,-8.76,-11.86,-8.76,-11.86,6.00,6.01,6.95,-2.76,-2.76,3.10
30.08,-8.70,-11.81,-8.70,-11.80,6.00,6.01,7.02,-2.70,-2.70,3.11
30.38,-8.63,-11.73,-8.64,-11.74,6.00,6.01,7.08,-2.63,-2.64,3.10
30.68,-8.56,-11.66,-8.56,-11.66,6.00,6.01,7.13,-2.56,-2.56,3.10
30.99,-8.49,-11.59,-8.48,-11.58,6.00,6.01,7.17,-2.49,-2.48,3.09
31.30,-8.39,-11.48,-8.39,-11.48,6.00,6.01,7.20,-2.39,-2.39,3.09
31.61,-8.28,-11.37,-8.28,-11.37,6.00,6.01,7.23,-2.28,-2.28,3.09
31.93,-8.18,-11.27,-8.19,-11.27,6.00,6.01,7.24,-2.18,-2.19,3.09
32.24,-8.10,-11.18,-8.10,-11.19,6.00,6.01,7.24,-2.10,-2.10,3.08
32.57,-8.04,-11.12,-8.04,-11.12,6.00,6.01,7.24,-2.04,-2.04,3.08
32.89,-7.98,-11.06,-7.98,-11.06,6.00,6.01,7.22,-1.98,-1.98,3.08
33.22,-7.92,-10.99,-7.92,-10.99,6.00,6.01,7.20,-1.92,-1.92,3.07
33.55,-7.85,-10.91,-7.85,-10.91,6.00,6.01,7.17,-1.85,-1.85,3.06
33.89,-7.78,-10.83,-7.78,-10.84,6.00,6.01,7.13,-1.78,-1.78,3.05
34.23,-7.71,-10.77,-7.71,-10.77,6.00,6.01,7.09,-1.71,-1.71,3.06
34.57,-7.64,-10.69,-7.64,-10.69,6.00,6.01,7.05,-1.64,-1.64,3.05
34.92,-7.57,-10.61,-7.56,-10.61,6.00,6.01,7.00,-1.57,-1.56,3.04
35.27,-7.47,-10.51,-7.46,-10.50,6.00,6.01,6.94,-1.47,-1.46,3.04
35.62,-7.37,-10.41,-7.37,-10.40,6.00,6.01,6.88,-1.37,-1.37,3.04
35.97,-7.27,-10.30,-7.32,-10.35,6.00,6.01,6.82,-1.27,-1.32,3.03
36.33,-7.32,-10.36,-7.33,-10.36,6.00,6.01,6.76,-1.32,-1.33,3.04
36.70,-7.39,-10.41,-7.37,-10.40,6.00,6.01,6.70,-1.39,-1.37,3.02
37.06,-7.43,-10.45,-7.39,-10.42,6.00,6.01,6.63,-1.43,-1.39,3.02
37.43,-7.33,-10.37,-7.34,-10.37,6.00,6.01,6.57,-1.33,-1.34,3.04
37.81,-7.22,-10.25,-7.24,-10.27,6.00,6.01,6.51,-1.22,-1.24,3.03
38.19,-7.11,-10.14,-7.10,-10.13,6.00,6.01,6.45,-1.11,-1.10,3.03
38.57,-6.99,-10.02,-6.98,-10.01,6.00,6.01,6.39,-0.99,-0.98,3.03
38.95,-6.86,-9.90,-6.90,-9.93,6.00,6.01,6.33,-0.86,-0.90,3.04
39.34,-6.86,-9.89,-6.87,-9.90,6.00,6.00,6.28,-0.86,-0.87,3.03
39.74,-6.88,-9.91,-6.86,-9.89,6.00,6.00,6.23,-0.88,-0.86,3.03
40.14,-6.87,-9.90,-6.86,-9.88,6.00,6.00,6.18,-0.87,-0.86,3.03
40.54,-6.81,-9.84,-6.82,-9.84,6.00,6.00,6.14,-0.81,-0.82,3.03
40.94,-6.76,-9.78,-6.77,-9.79,6.00,6.00,6.10,-0.76,-0.77,3.02
41.35,-6.71,-9.73,-6.72,-9.73,6.00,6.00,6.06,-0.71,-0.72,3.01
41.76,-6.67,-9.68,-6.66,-9.67,6.00,6.00,6.03,-0.67,-0.66,3.01
42.18,-6.59,-9.60,-6.56,-9.56,6.00,6.00,6.00,-0.59,-0.56,3.01
42.60,-6.46,-9.45,-6.46,-9.46,6.00,6.00,5.98,-0.46,-0.46,2.99
43.03,-6.34,-9.33,-6.42,-9.41,6.00,6.00,5.96,-0.34,-0.42,2.99
43.46,-6.42,-9.40,-6.43,-9.40,6.00,6.00,5.94,-0.42,-0.43,2.98
43.90,-6.50,-9.45,-6.42,-9.38,6.00,6.00,5.93,-0.50,-0.42,2.95
44.33,-6.40,-9.33,-6.37,-9.31,6.00,6.00,5.92,-0.40,-0.37,2.94
44.78,-6.23,-9.15,-6.29,-9.21,6.00,6.00,5.92,-0.23,-0.29,2.92
45.23,-6.20,-9.11,-6.26,-9.17,6.00,5.99,5.92,-0.20,-0.26,2.91
45.68,-6.30,-9.19,-6.26,-9.15,6.00,5.99,5.93,-0.30,-0.26,2.89
46.13,-6.31,-9.18,-6.22,-9.09,6.00,5.99,5.94,-0.31,-0.22,2.87
46.60,-6.10,-8.97,-6.12,-8.98,6.00,5.99,5.96,-0.10,-0.12,2.87
47.06,-5.93,-8.78,-6.03,-8.88,6.00,5.99,5.98,0.07,-0.03,2.85
47.53,-5.99,-8.83,-5.98,-8.83,6.00,5.99,6.00,0.01,0.02,2.84
48.01,-6.05,-8.89,-6.00,-8.83,6.00,5.99,6.03,-0.05,0.00,2.84
48.49,-6.00,-8.82,-6.00,-8.82,6.00,5.99,6.06,-0.00,-0.00,2.82
48.97,-5.94,-8.74,-5.95,-8.75,6.00,5.99,6.10,0.06,0.05,2.80
49.46,-5.89,-8.67,-5.89,-8.67,6.00,5.99,6.14,0.11,0.11,2.78
49.96,-5.84,-8.60,-5.86,-8.62,6.00,5.99,6.18,0.16,0.14,2.76
50.46,-5.84,-8.60,-5.84,-8.59,6.00,5.98,6.22,0.16,0.16,2.76
50.96,-5.84,-8.58,-5.82,-8.55,6.00,5.98,6.27,0.16,0.18,2.74
51.47,-5.78,-8.50,-5.78,-8.51,6.00,5.98,6.32,0.22,0.22,2.72
51.99,-5.72,-8.43,-5.73,-8.44,6.00,5.98,6.37,0.28,0.27,2.71
52.51,-5.68,-8.38,-5.68,-8.38,6.00,5.98,6.42,0.32,0.32,2.70
53.03,-5.64,-8.34,-5.63,-8.33,6.00,5.98,6.48,0.36,0.37,2.70
53.56,-5.58,-8.26,-5.58,-8.27,6.00,5.98,6.53,0.42,0.42,2.68
54.10,-5.53,-8.20,-5.53,-8.20,6.00,5.98,6.58,0.47,0.47,2.67
54.64,-5.48,-8.13,-5.48,-8.13,6.00,5.98,6.64,0.52,0.52,2.65
55.18,-5.44,-8.09,-5.45,-8.09,6.00,5.98,6.69,0.56,0.55,2.64
55.74,-5.44,-8.07,-5.44,-8.07,6.00,5.98,6.74,0.56,0.56,2.63
56.29,-5.44,-8.06,-5.44,-8.06,6.00,5.98,6.78,0.56,0.56,2.62
56.86,-5.44,-8.04,-5.43,-8.03,6.00,5.98,6.82,0.56,0.57,2.60
57.42,-5.40,-7.97,-5.40,-7.98,6.00,5.98,6.86,0.60,0.60,2.57
58.00,-5.34,-7.91,-5.34,-7.91,6.00,5.98,6.90,0.66,0.66,2.56
58.58,-5.28,-7.84,-5.29,-7.84,6.00,5.98,6.93,0.72,0.71,2.55
59.16,-5.24,-7.77,-5.25,-7.79,6.00,5.98,6.95,0.76,0.75,2.53
59.76,-5.24,-7.75,-5.23,-7.74,6.00,5.98,6.96,0.76,0.77,2.51
60.35,-5.24,-7.71,-5.24,-7.72,6.00,5.98,6.97,0.76,0.76,2.47
60.96,-5.24,-7.68,-5.29,-7.73,6.00,5.99,6.98,0.76,0.71,2.44
61.57,-5.31,-7.71,-5.27,-7.66,6.00,5.99,6.97,0.69,0.73,2.40
62.18,-5.28,-7.63,-5.19,-7.54,6.00,5.99,6.96,0.72,0.81,2.35
62.80,-5.01,-7.32,-5.09,-7.40,6.00,5.99,6.94,0.99,0.91,2.31
63.43,-4.97,-7.23,-5.03,-7.29,6.00,6.00,6.91,1.03,0.97,2.26
64.07,-5.05,-7.27,-5.04,-7.25,6.00,6.00,6.87,0.95,0.96,2.22
64.71,-5.13,-7.30,-5.07,-7.25,6.00,6.00,6.83,0.87,0.93,2.17
65.35,-5.08,-7.21,-5.06,-7.19,6.00,6.01,6.77,0.92,0.94,2.13
66.01,-4.94,-7.03,-5.00,-7.08,6.00,6.01,6.71,1.06,1.00,2.08
66.67,-4.94,-6.98,-4.93,-6.97,6.00,6.01,6.65,1.06,1.07,2.03
67.33,-4.91,-6.90,-4.89,-6.88,6.00,6.02,6.58,1.09,1.11,1.99
68.01,-4.85,-6.80,-4.88,-6.82,6.00,6.02,6.50,1.15,1.12,1.94
68.69,-4.86,-6.75,-4.84,-6.73,6.00,6.03,6.42,1.14,1.16,1.89
69.37,-4.82,-6.66,-4.80,-6.64,6.00,6.03,6.33,1.18,1.20,1.84
70.07,-4.74,-6.53,-4.77,-6.56,6.00,6.03,6.24,1.26,1.23,1.79
70.77,-4.74,-6.49,-4.74,-6.48,6.00,6.04,6.14,1.26,1.27,1.75
71.48,-4.74,-6.43,-4.74,-6.43,6.01,6.04,6.05,1.27,1.26,1.69
72.19,-4.76,-6.39,-4.79,-6.42,6.01,6.04,5.95,1.25,1.22,1.63
72.91,-4.83,-6.40,-4.82,-6.39,6.00,6.04,5.85,1.17,1.19,1.57
73.64,-4.84,-6.35,-4.80,-6.31,6.00,6.04,5.74,1.16,1.19,1.51
74.38,-4.76,-6.22,-4.75,-6.21,5.98,6.04,5.64,1.22,1.23,1.45
75.12,-4.64,-6.04,-4.68,-6.08,5.96,6.04,5.54,1.32,1.28,1.40
75.87,-4.64,-5.98,-4.64,-5.98,5.95,6.03,5.44,1.31,1.31,1.34
76.63,-4.64,-5.93,-4.63,-5.92,5.93,6.03,5.34,1.29,1.30,1.29
77.40,-4.66,-5.90,-4.66,-5.90,5.93,6.02,5.24,1.27,1.26,1.24
78.17,-4.70,-5.87,-4.70,-5.88,5.92,6.00,5.14,1.22,1.22,1.17
78.95,-4.76,-5.90,-4.75,-5.89,5.93,5.99,5.05,1.17,1.18,1.14
79.74,-4.82,-5.91,-4.83,-5.91,5.94,5.97,4.95,1.12,1.12,1.09
80.54,-4.91,-5.95,-4.94,-5.98,5.96,5.95,4.86,1.05,1.02,1.04
81.35,-5.04,-6.03,-5.05,-6.05,5.98,5.92,4.77,0.94,0.92,0.99
82.16,-5.18,-6.12,-5.12,-6.06,5.99,5.89,4.69,0.81,0.87,0.94
82.98,-5.15,-6.06,-5.13,-6.03,5.98,5.85,4.60,0.83,0.85,0.91
83.81,-5.06,-5.91,-5.13,-5.98,5.96,5.81,4.52,0.90,0.83,0.85
84.65,-5.11,-5.91,-5.12,-5.93,5.92,5.77,4.44,0.81,0.80,0.80
85.50,-5.15,-5.91,-5.13,-5.88,5.86,5.72,4.37,0.71,0.73,0.76
86.35,-5.12,-5.83,-5.07,-5.79,5.78,5.67,4.30,0.66,0.71,0.71
87.22,-5.00,-5.67,-5.00,-5.67,5.69,5.61,4.23,0.69,0.69,0.66
88.09,-4.85,-5.47,-4.98,-5.59,5.60,5.55,4.16,0.75,0.62,0.61
88.97,-4.99,-5.55,-4.92,-5.49,5.51,5.48,4.10,0.51,0.58,0.56
89.86,-4.99,-5.50,-4.87,-5.39,5.41,5.41,4.04,0.41,0.53,0.51
90.76,-4.72,-5.18,-4.85,-5.31,5.30,5.33,3.99,0.58,0.46,0.46
91.66,-4.75,-5.17,-4.79,-5.20,5.20,5.26,3.93,0.45,0.41,0.42
92.58,-4.82,-5.17,-4.74,-5.10,5.10,5.18,3.88,0.27,0.36,0.35
93.51,-4.73,-5.04,-4.71,-5.03,4.99,5.09,3.84,0.26,0.27,0.31
94.44,-4.59,-4.86,-4.63,-4.90,4.88,5.01,3.79,0.29,0.24,0.27
95.39,-4.53,-4.75,-4.54,-4.76,4.77,4.92,3.75,0.24,0.23,0.22
96.34,-4.50,-4.67,-4.48,-4.65,4.67,4.83,3.71,0.17,0.19,0.17
97.30,-4.43,-4.55,-4.44,-4.56,4.57,4.74,3.68,0.14,0.13,0.12
98.28,-4.40,-4.48,-4.39,-4.46,4.47,4.65,3.64,0.07,0.09,0.08
99.26,-4.34,-4.37,-4.34,-4.37,4.38,4.56,3.61,0.04,0.05,0.03
100.25,-4.29,-4.28,-4.33,-4.31,4.31,4.47,3.58,0.02,-0.02,-0.02
101.25,-4.32,-4.26,-4.33,-4.26,4.25,4.38,3.55,-0.07,-0.07,-0.06
102.27,-4.37,-4.26,-4.31,-4.20,4.21,4.28,3.53,-0.16,-0.10,-0.11
103.29,-4.29,-4.13,-4.29,-4.14,4.16,4.19,3.50,-0.13,-0.13,-0.16
104.32,-4.24,-4.04,-4.30,-4.10,4.12,4.10,3.48,-0.12,-0.18,-0.20
105.37,-4.32,-4.07,-4.34,-4.10,4.09,4.01,3.46,-0.23,-0.25,-0.25
106.42,-4.45,-4.16,-4.38,-4.09,4.06,3.92,3.44,-0.39,-0.32,-0.29
107.48,-4.42,-4.07,-4.38,-4.03,4.02,3.83,3.42,-0.40,-0.36,-0.35
108.56,-4.30,-3.90,-4.37,-3.96,3.97,3.74,3.40,-0.33,-0.40,-0.40
109.64,-4.30,-3.85,-4.36,-3.90,3.91,3.65,3.39,-0.39,-0.45,-0.45
110.74,-4.44,-3.93,-4.38,-3.88,3.85,3.57,3.37,-0.59,-0.53,-0.51
111.85,-4.39,-3.85,-4.37,-3.81,3.77,3.48,3.35,-0.62,-0.60,-0.54
112.97,-4.30,-3.69,-4.29,-3.69,3.68,3.40,3.33,-0.62,-0.61,-0.61
114.10,-4.14,-3.49,-4.19,-3.54,3.57,3.32,3.31,-0.57,-0.62,-0.65
115.24,-4.12,-3.42,-4.14,-3.43,3.47,3.24,3.29,-0.65,-0.67,-0.70
116.39,-4.13,-3.38,-4.12,-3.37,3.36,3.15,3.27,-0.78,-0.76,-0.75
117.55,-4.10,-3.31,-4.09,-3.30,3.25,3.08,3.25,-0.85,-0.84,-0.79
118.73,-4.03,-3.20,-3.97,-3.14,3.14,3.00,3.23,-0.89,-0.83,-0.83
119.92,-3.82,-2.97,-3.85,-2.99,3.04,2.92,3.20,-0.79,-0.82,-0.85
121.12,-3.69,-2.79,-3.79,-2.90,2.94,2.85,3.18,-0.75,-0.85,-0.90
122.33,-3.81,-2.88,-3.77,-2.85,2.86,2.78,3.15,-0.95,-0.91,-0.93
123.55,-3.84,-2.89,-3.76,-2.80,2.78,2.70,3.12,-1.06,-0.98,-0.95
124.79,-3.69,-2.71,-3.71,-2.72,2.71,2.63,3.09,-0.98,-1.00,-0.98
126.03,-3.57,-2.56,-3.62,-2.61,2.63,2.56,3.05,-0.94,-0.99,-1.01
127.29,-3.56,-2.53,-3.59,-2.55,2.56,2.50,3.01,-1.00,-1.03,-1.03
128.57,-3.61,-2.54,-3.58,-2.52,2.49,2.43,2.98,-1.12,-1.09,-1.07
129.85,-3.64,-2.54,-3.56,-2.46,2.42,2.37,2.93,-1.22,-1.15,-1.10
131.15,-3.43,-2.30,-3.51,-2.38,2.35,2.30,2.89,-1.08,-1.17,-1.13
132.46,-3.42,-2.27,-3.40,-2.25,2.28,2.24,2.85,-1.14,-1.12,-1.16
133.79,-3.37,-2.19,-3.32,-2.14,2.22,2.18,2.80,-1.15,-1.10,-1.18
135.12,-3.23,-2.01,-3.33,-2.12,2.16,2.12,2.75,-1.07,-1.18,-1.22
136.48,-3.35,-2.12,-3.33,-2.10,2.09,2.06,2.70,-1.26,-1.25,-1.23
137.84,-3.41,-2.14,-3.33,-2.06,2.02,2.01,2.65,-1.39,-1.32,-1.27
139.22,-3.29,-1.99,-3.31,-2.01,1.95,1.95,2.59,-1.34,-1.36,-1.30
140.61,-3.21,-1.88,-3.23,-1.90,1.88,1.90,2.54,-1.33,-1.35,-1.33
142.02,-3.14,-1.79,-3.15,-1.80,1.82,1.84,2.48,-1.32,-1.33,-1.35
143.44,-3.11,-1.73,-3.10,-1.71,1.75,1.79,2.43,-1.36,-1.34,-1.38
144.87,-3.05,-1.63,-3.05,-1.64,1.67,1.74,2.37,-1.38,-1.38,-1.42
146.32,-3.01,-1.55,-3.03,-1.57,1.59,1.69,2.31,-1.42,-1.43,-1.46
147.78,-3.00,-1.51,-3.01,-1.52,1.51,1.65,2.26,-1.50,-1.50,-1.49
149.26,-3.01,-1.48,-2.99,-1.45,1.42,1.60,2.20,-1.59,-1.57,-1.53
150.75,-2.97,-1.37,-2.97,-1.37,1.33,1.55,2.14,-1.64,-1.63,-1.60
152.26,-2.92,-1.25,-2.93,-1.26,1.24,1.51,2.08,-1.68,-1.69,-1.67
153.78,-2.88,-1.15,-2.87,-1.14,1.14,1.47,2.03,-1.74,-1.74,-1.73
155.32,-2.83,-1.02,-2.83,-1.03,1.03,1.42,1.97,-1.80,-1.80,-1.81
156.88,-2.80,-0.92,-2.81,-0.93,0.93,1.38,1.91,-1.87,-1.88,-1.88
158.44,-2.80,-0.84,-2.80,-0.83,0.84,1.34,1.86,-1.96,-1.96,-1.96
160.03,-2.80,-0.75,-2.78,-0.73,0.76,1.31,1.80,-2.05,-2.02,-2.05
161.63,-2.77,-0.65,-2.77,-0.66,0.69,1.27,1.75,-2.08,-2.08,-2.12
163.24,-2.75,-0.57,-2.79,-0.61,0.65,1.23,1.69,-2.11,-2.14,-2.18
164.88,-2.84,-0.61,-2.83,-0.60,0.61,1.20,1.64,-2.23,-2.22,-2.23
166.53,-2.90,-0.62,-2.88,-0.60,0.59,1.16,1.59,-2.31,-2.29,-2.28
168.19,-2.92,-0.60,-2.92,-0.60,0.57,1.13,1.53,-2.35,-2.35,-2.32
169.87,-2.93,-0.58,-2.93,-0.58,0.55,1.10,1.48,-2.38,-2.38,-2.35
171.57,-2.93,-0.56,-2.95,-0.58,0.55,1.07,1.43,-2.38,-2.40,-2.37
173.29,-2.96,-0.57,-2.94,-0.56,0.55,1.03,1.38,-2.41,-2.39,-2.39
175.02,-2.95,-0.56,-2.93,-0.53,0.56,1.01,1.34,-2.39,-2.37,-2.39
176.77,-2.90,-0.49,-2.93,-0.53,0.57,0.98,1.29,-2.33,-2.36,-2.41
178.54,-2.94,-0.53,-2.95,-0.55,0.59,0.95,1.24,-2.35,-2.36,-2.41
180.32,-3.02,-0.62,-3.01,-0.61,0.61,0.92,1.20,-2.41,-2.40,-2.40
182.13,-3.08,-0.68,-3.08,-0.67,0.63,0.90,1.15,-2.45,-2.44,-2.40
183.95,-3.13,-0.72,-3.10,-0.70,0.65,0.87,1.11,-2.48,-2.45,-2.41
185.79,-3.10,-0.69,-3.12,-0.71,0.68,0.85,1.07,-2.42,-2.44,-2.41
187.65,-3.11,-0.68,-3.13,-0.71,0.71,0.82,1.02,-2.40,-2.43,-2.43
189.52,-3.17,-0.73,-3.14,-0.70,0.73,0.80,0.98,-2.44,-2.41,-2.44
191.42,-3.18,-0.72,-3.17,-0.71,0.74,0.78,0.94,-2.44,-2.43,-2.46
193.33,-3.18,-0.70,-3.22,-0.74,0.75,0.76,0.90,-2.43,-2.47,-2.48
195.27,-3.26,-0.76,-3.26,-0.76,0.75,0.74,0.87,-2.51,-2.50,-2.50
197.22,-3.32,-0.81,-3.30,-0.78,0.76,0.72,0.83,-2.56,-2.54,-2.52
199.19,-3.32,-0.78,-3.33,-0.79,0.76,0.70,0.79,-2.56,-2.57,-2.54
201.18,-3.32,-0.76,-3.32,-0.76,0.76,0.68,0.76,-2.56,-2.57,-2.56
203.19,-3.31,-0.74,-3.31,-0.74,0.75,0.66,0.72,-2.56,-2.57,-2.58
205.23,-3.31,-0.71,-3.31,-0.72,0.73,0.65,0.69,-2.58,-2.58,-2.60
207.28,-3.31,-0.70,-3.31,-0.70,0.70,0.63,0.65,-2.61,-2.61,-2.61
209.35,-3.31,-0.68,-3.32,-0.68,0.68,0.61,0.62,-2.64,-2.64,-2.63
211.44,-3.31,-0.65,-3.31,-0.65,0.64,0.60,0.59,-2.67,-2.67,-2.66
213.56,-3.31,-0.64,-3.28,-0.61,0.60,0.58,0.56,-2.71,-2.67,-2.67
215.69,-3.22,-0.54,-3.26,-0.57,0.57,0.57,0.53,-2.65,-2.69,-2.68
217.85,-3.22,-0.53,-3.23,-0.54,0.53,0.55,0.50,-2.69,-2.70,-2.69
220.03,-3.24,-0.53,-3.20,-0.49,0.50,0.54,0.47,-2.74,-2.70,-2.71
222.23,-3.18,-0.45,-3.18,-0.46,0.47,0.53,0.44,-2.71,-2.71,-2.73
224.45,-3.13,-0.41,-3.15,-0.43,0.45,0.52,0.42,-2.68,-2.70,-2.72
226.70,-3.13,-0.41,-3.13,-0.40,0.43,0.51,0.39,-2.70,-2.69,-2.72
228.96,-3.12,-0.41,-3.12,-0.41,0.41,0.49,0.37,-2.71,-2.71,-2.71
231.25,-3.12,-0.42,-3.13,-0.42,0.40,0.48,0.35,-2.73,-2.73,-2.70
233.57,-3.11,-0.42,-3.11,-0.42,0.38,0.47,0.32,-2.73,-2.73,-2.69
235.90,-3.10,-0.42,-3.08,-0.39,0.37,0.46,0.30,-2.73,-2.70,-2.68
238.26,-3.02,-0.35,-3.02,-0.36,0.36,0.45,0.28,-2.66,-2.66,-2.67
240.64,-2.95,-0.30,-2.98,-0.33,0.36,0.44,0.27,-2.59,-2.62,-2.65
243.05,-2.94,-0.32,-2.94,-0.31,0.35,0.44,0.25,-2.59,-2.59,-2.62
245.48,-2.93,-0.33,-2.92,-0.32,0.33,0.43,0.23,-2.60,-2.58,-2.60
247.93,-2.90,-0.33,-2.92,-0.35,0.32,0.42,0.22,-2.58,-2.60,-2.57
250.41,-2.90,-0.35,-2.90,-0.35,0.31,0.41,0.21,-2.59,-2.59,-2.55
252.92,-2.89,-0.37,-2.85,-0.33,0.31,0.41,0.19,-2.59,-2.55,-2.52
255.45,-2.78,-0.28,-2.80,-0.30,0.30,0.40,0.18,-2.48,-2.50,-2.50
258.00,-2.74,-0.27,-2.76,-0.28,0.31,0.39,0.17,-2.44,-2.45,-2.48
260.58,-2.74,-0.28,-2.73,-0.28,0.31,0.39,0.16,-2.43,-2.42,-2.46
263.19,-2.74,-0.31,-2.74,-0.30,0.32,0.38,0.16,-2.43,-2.42,-2.43
265.82,-2.74,-0.33,-2.74,-0.33,0.33,0.37,0.15,-2.41,-2.41,-2.42
268.48,-2.74,-0.35,-2.74,-0.36,0.35,0.37,0.14,-2.39,-2.39,-2.39
271.16,-2.75,-0.39,-2.75,-0.38,0.38,0.36,0.14,-2.37,-2.37,-2.36
273.87,-2.75,-0.41,-2.75,-0.41,0.41,0.36,0.14,-2.34,-2.34,-2.34
276.61,-2.75,-0.44,-2.75,-0.44,0.44,0.35,0.13,-2.31,-2.31,-2.31
279.38,-2.75,-0.47,-2.75,-0.47,0.46,0.35,0.13,-2.29,-2.29,-2.28
282.17,-2.75,-0.49,-2.76,-0.50,0.47,0.35,0.13,-2.28,-2.28,-2.26
284.99,-2.74,-0.52,-2.74,-0.51,0.48,0.34,0.13,-2.26,-2.25,-2.22
287.84,-2.73,-0.52,-2.70,-0.50,0.49,0.34,0.13,-2.24,-2.21,-2.21
290.72,-2.63,-0.46,-2.66,-0.48,0.49,0.34,0.13,-2.14,-2.17,-2.17
293.63,-2.61,-0.46,-2.62,-0.47,0.49,0.33,0.13,-2.12,-2.12,-2.15
296.57,-2.60,-0.49,-2.59,-0.48,0.50,0.33,0.13,-2.10,-2.09,-2.11
299.53,-2.59,-0.50,-2.59,-0.50,0.50,0.33,0.14,-2.09,-2.08,-2.09
302.53,-2.57,-0.50,-2.57,-0.51,0.51,0.32,0.14,-2.06,-2.06,-2.07
305.55,-2.56,-0.54,-2.56,-0.53,0.53,0.32,0.14,-2.03,-2.03,-2.02
308.61,-2.55,-0.54,-2.55,-0.55,0.54,0.32,0.15,-2.01,-2.01,-2.01
311.69,-2.55,-0.57,-2.55,-0.57,0.56,0.32,0.15,-1.99,-1.98,-1.98
314.81,-2.54,-0.59,-2.54,-0.58,0.58,0.32,0.15,-1.96,-1.96,-1.95
317.96,-2.54,-0.60,-2.54,-0.60,0.60,0.31,0.16,-1.94,-1.94,-1.94
321.14,-2.54,-0.61,-2.54,-0.61,0.62,0.31,0.16,-1.92,-1.92,-1.93
324.35,-2.54,-0.63,-2.54,-0.63,0.64,0.31,0.17,-1.90,-1.90,-1.91
327.59,-2.54,-0.64,-2.54,-0.64,0.65,0.31,0.17,-1.89,-1.89,-1.90
330.87,-2.54,-0.65,-2.55,-0.66,0.65,0.31,0.18,-1.89,-1.89,-1.89
334.18,-2.55,-0.68,-2.55,-0.68,0.66,0.31,0.19,-1.89,-1.90,-1.87
337.52,-2.55,-0.69,-2.54,-0.68,0.66,0.31,0.19,-1.90,-1.88,-1.86
340.90,-2.52,-0.67,-2.51,-0.66,0.65,0.31,0.20,-1.87,-1.86,-1.85
344.30,-2.46,-0.62,-2.48,-0.64,0.65,0.31,0.20,-1.82,-1.83,-1.84
347.75,-2.45,-0.61,-2.46,-0.62,0.64,0.31,0.21,-1.81,-1.82,-1.84
351.23,-2.45,-0.62,-2.45,-0.61,0.63,0.31,0.22,-1.82,-1.82,-1.83
354.74,-2.45,-0.61,-2.45,-0.61,0.62,0.31,0.22,-1.83,-1.83,-1.84
358.28,-2.44,-0.61,-2.44,-0.62,0.61,0.31,0.23,-1.83,-1.84,-1.83
361.87,-2.44,-0.61,-2.44,-0.61,0.60,0.31,0.24,-1.84,-1.84,-1.83
365.49,-2.43,-0.61,-2.43,-0.60,0.60,0.31,0.25,-1.83,-1.83,-1.82
369.14,-2.42,-0.59,-2.43,-0.59,0.59,0.31,0.25,-1.83,-1.83,-1.83
372.83,-2.42,-0.58,-2.42,-0.58,0.58,0.31,0.26,-1.84,-1.83,-1.84
376.56,-2.41,-0.57,-2.41,-0.57,0.58,0.31,0.27,-1.84,-1.83,-1.84
380.33,-2.40,-0.57,-2.40,-0.57,0.57,0.31,0.28,-1.84,-1.84,-1.83
384.13,-2.39,-0.56,-2.39,-0.56,0.56,0.31,0.28,-1.84,-1.84,-1.83
387.97,-2.39,-0.55,-2.39,-0.55,0.55,0.31,0.29,-1.84,-1.84,-1.84
391.85,-2.38,-0.53,-2.38,-0.53,0.54,0.31,0.30,-1.84,-1.84,-1.85
395.77,-2.38,-0.53,-2.38,-0.53,0.53,0.31,0.30,-1.85,-1.85,-1.85
399.73,-2.38,-0.52,-2.38,-0.53,0.53,0.31,0.31,-1.85,-1.85,-1.86
403.72,-2.39,-0.53,-2.39,-0.53,0.52,0.31,0.32,-1.87,-1.86,-1.86
407.76,-2.39,-0.52,-2.39,-0.52,0.52,0.31,0.33,-1.87,-1.87,-1.87
411.84,-2.39,-0.52,-2.39,-0.52,0.52,0.31,0.33,-1.87,-1.87,-1.87
415.96,-2.39,-0.52,-2.39,-0.52,0.52,0.31,0.34,-1.87,-1.87,-1.87
420.12,-2.39,-0.52,-2.39,-0.52,0.52,0.31,0.35,-1.87,-1.87,-1.87
424.32,-2.39,-0.52,-2.39,-0.52,0.52,0.31,0.35,-1.87,-1.87,-1.87
428.56,-2.38,-0.52,-2.38,-0.51,0.52,0.31,0.36,-1.86,-1.87,-1.87
432.85,-2.37,-0.51,-2.37,-0.51,0.51,0.31,0.36,-1.86,-1.86,-1.86
437.18,-2.34,-0.49,-2.34,-0.50,0.49,0.31,0.37,-1.85,-1.85,-1.85
441.55,-2.30,-0.49,-2.31,-0.50,0.47,0.31,0.37,-1.83,-1.84,-1.81
445.96,-2.26,-0.48,-2.26,-0.47,0.45,0.31,0.37,-1.82,-1.81,-1.78
450.42,-2.20,-0.45,-2.18,-0.43,0.41,0.31,0.38,-1.79,-1.76,-1.75
454.93,-2.07,-0.37,-2.09,-0.38,0.39,0.31,0.38,-1.68,-1.70,-1.70
