frequency,raw,error,smoothed,error_smoothed,equalization,parametric_eq,fixed_band_eq,equalized_raw,equalized_smoothed,target
20.00,14.47,6.60,14.47,6.60,-6.59,-8.54,-4.24,7.88,7.88,7.87
20.20,14.54,6.67,14.54,6.66,-6.66,-8.55,-4.35,7.88,7.87,7.87
20.40,14.61,6.74,14.61,6.73,-6.74,-8.56,-4.47,7.87,7.87,7.87
20.61,14.68,6.81,14.68,6.81,-6.81,-8.57,-4.59,7.86,7.87,7.87
20.81,14.76,6.89,14.76,6.88,-6.89,-8.58,-4.71,7.87,7.86,7.87
21.02,14.83,6.96,14.83,6.97,-6.97,-8.59,-4.84,7.86,7.86,7.87
21.23,14.91,7.06,14.91,7.05,-7.05,-8.60,-4.97,7.85,7.85,7.85
21.44,14.98,7.14,14.98,7.14,-7.14,-8.61,-5.10,7.84,7.84,7.84
21.66,15.05,7.23,15.05,7.23,-7.23,-8.62,-5.24,7.82,7.82,7.82
21.87,15.12,7.32,15.12,7.32,-7.32,-8.63,-5.38,7.80,7.80,7.80
22.09,15.20,7.41,15.19,7.41,-7.41,-8.64,-5.52,7.79,7.78,7.79
22.31,15.27,7.51,15.27,7.50,-7.51,-8.66,-5.67,7.76,7.76,7.76
22.54,15.33,7.59,15.34,7.60,-7.60,-8.67,-5.82,7.73,7.74,7.74
22.76,15.41,7.69,15.40,7.69,-7.69,-8.68,-5.98,7.72,7.71,7.72
22.99,15.48,7.79,15.47,7.79,-7.79,-8.69,-6.14,7.69,7.69,7.69
23.22,15.54,7.88,15.55,7.88,-7.88,-8.71,-6.30,7.66,7.67,7.66
23.45,15.62,7.98,15.61,7.97,-7.97,-8.72,-6.47,7.65,7.64,7.64
23.69,15.68,8.05,15.68,8.06,-8.05,-8.74,-6.64,7.62,7.63,7.63
23.92,15.75,8.14,15.75,8.14,-8.14,-8.75,-6.82,7.61,7.61,7.61
24.16,15.82,8.22,15.81,8.22,-8.22,-8.77,-7.00,7.59,7.59,7.60
24.40,15.88,8.30,15.88,8.30,-8.31,-8.78,-7.18,7.57,7.57,7.58
24.65,15.94,8.38,15.94,8.38,-8.39,-8.80,-7.37,7.55,7.55,7.56
24.89,16.00,8.46,16.00,8.47,-8.47,-8.81,-7.56,7.53,7.54,7.53
25.14,16.07,8.54,16.07,8.54,-8.54,-8.83,-7.75,7.53,7.52,7.52
25.39,16.13,8.63,16.12,8.62,-8.62,-8.85,-7.95,7.51,7.50,7.50
25.65,16.18,8.68,16.18,8.70,-8.70,-8.87,-8.14,7.48,7.49,7.49
25.91,16.24,8.77,16.24,8.77,-8.77,-8.89,-8.34,7.47,7.47,7.46
26.16,16.30,8.85,16.29,8.84,-8.84,-8.91,-8.54,7.46,7.45,7.45
26.43,16.35,8.91,16.35,8.91,-8.91,-8.93,-8.74,7.44,7.44,7.44
26.69,16.40,8.98,16.40,8.98,-8.97,-8.95,-8.94,7.42,7.43,7.42
26.96,16.45,9.04,16.45,9.04,-9.04,-8.97,-9.14,7.41,7.41,7.41
27.23,16.50,9.10,16.50,9.10,-9.10,-8.99,-9.34,7.40,7.40,7.40
27.50,16.54,9.15,16.54,9.16,-9.16,-9.02,-9.54,7.38,7.38,7.39
27.77,16.59,9.22,16.59,9.22,-9.22,-9.04,-9.73,7.37,7.37,7.37
28.05,16.63,9.27,16.63,9.27,-9.27,-9.06,-9.91,7.36,7.36,7.36
28.33,16.67,9.33,16.67,9.33,-9.33,-9.09,-10.09,7.34,7.34,7.34
28.62,16.71,9.38,16.70,9.38,-9.38,-9.12,-10.27,7.33,7.33,7.33
28.90,16.74,9.42,16.74,9.43,-9.43,-9.15,-10.43,7.31,7.31,7.31
29.19,16.77,9.47,16.77,9.47,-9.47,-9.17,-10.58,7.30,7.30,7.29
29.48,16.81,9.52,16.81,9.51,-9.52,-9.20,-10.72,7.29,7.29,7.29
29.78,16.84,9.56,16.83,9.55,-9.56,-9.23,-10.85,7.28,7.28,7.28
30.08,16.86,9.59,16.86,9.59,-9.60,-9.27,-10.96,7.26,7.26,7.27
30.38,16.88,9.63,16.88,9.63,-9.63,-9.30,-11.06,7.25,7.25,7.25
30.68,16.91,9.67,16.90,9.67,-9.66,-9.33,-11.14,7.24,7.24,7.24
30.99,16.93,9.71,16.92,9.70,-9.69,-9.37,-11.21,7.23,7.23,7.22
31.30,16.93,9.72,16.93,9.72,-9.72,-9.40,-11.25,7.21,7.21,7.21
31.61,16.94,9.74,16.94,9.75,-9.75,-9.43,-11.29,7.19,7.19,7.20
31.93,16.94,9.76,16.94,9.77,-9.77,-9.47,-11.30,7.17,7.17,7.17
32.24,16.94,9.80,16.94,9.79,-9.79,-9.50,-11.30,7.15,7.15,7.14
32.57,16.95,9.82,16.94,9.81,-9.81,-9.54,-11.27,7.14,7.13,7.13
32.89,16.94,9.82,16.94,9.83,-9.83,-9.57,-11.25,7.11,7.11,7.12
33.22,16.95,9.86,16.94,9.85,-9.85,-9.60,-11.20,7.10,7.09,7.09
33.55,16.94,9.86,16.94,9.87,-9.87,-9.63,-11.14,7.07,7.07,7.08
33.89,16.94,9.88,16.94,9.88,-9.88,-9.66,-11.07,7.05,7.05,7.05
34.23,16.93,9.90,16.93,9.90,-9.90,-9.69,-10.99,7.03,7.03,7.03
34.57,16.93,9.92,16.93,9.91,-9.91,-9.72,-10.90,7.02,7.01,7.01
34.92,16.92,9.93,16.92,9.93,-9.92,-9.74,-10.81,7.00,7.00,6.99
35.27,16.91,9.93,16.91,9.94,-9.93,-9.76,-10.71,6.98,6.98,6.98
35.62,16.90,9.94,16.90,9.94,-9.94,-9.77,-10.61,6.96,6.96,6.96
35.97,16.88,9.94,16.88,9.94,-9.95,-9.79,-10.50,6.93,6.94,6.93
36.33,16.87,9.95,16.87,9.95,-9.95,-9.80,-10.40,6.92,6.91,6.92
36.70,16.85,9.95,16.85,9.95,-9.96,-9.81,-10.29,6.89,6.90,6.90
37.06,16.84,9.96,16.84,9.96,-9.96,-9.81,-10.18,6.88,6.88,6.88
37.43,16.83,9.96,16.82,9.96,-9.96,-9.81,-10.08,6.86,6.86,6.86
37.81,16.81,9.97,16.81,9.97,-9.97,-9.82,-9.97,6.84,6.84,6.84
38.19,16.80,9.98,16.80,9.97,-9.97,-9.82,-9.88,6.83,6.82,6.82
38.57,16.78,9.97,16.78,9.97,-9.97,-9.81,-9.78,6.80,6.80,6.81
38.95,16.76,9.97,16.76,9.98,-9.98,-9.81,-9.69,6.78,6.78,6.78
39.34,16.74,9.98,16.74,9.98,-9.98,-9.81,-9.60,6.76,6.76,6.76
39.74,16.72,9.98,16.72,9.98,-9.98,-9.81,-9.52,6.74,6.74,6.74
40.14,16.71,9.97,16.70,9.97,-9.98,-9.80,-9.44,6.73,6.73,6.73
40.54,16.68,9.97,16.68,9.97,-9.97,-9.80,-9.37,6.71,6.71,6.71
40.94,16.67,9.97,16.67,9.97,-9.97,-9.80,-9.30,6.70,6.70,6.70
41.35,16.65,9.97,16.65,9.97,-9.96,-9.80,-9.24,6.68,6.68,6.67
41.76,16.63,9.96,16.63,9.96,-9.96,-9.80,-9.18,6.67,6.67,6.67
42.18,16.61,9.95,16.61,9.96,-9.96,-9.80,-9.14,6.65,6.65,6.66
42.60,16.59,9.96,16.59,9.95,-9.95,-9.80,-9.09,6.63,6.63,6.63
43.03,16.57,9.94,16.57,9.95,-9.95,-9.80,-9.06,6.62,6.62,6.63
43.46,16.55,9.94,16.55,9.95,-9.95,-9.80,-9.03,6.60,6.60,6.60
43.90,16.54,9.96,16.53,9.95,-9.95,-9.80,-9.00,6.59,6.58,6.58
44.33,16.51,9.94,16.51,9.95,-9.95,-9.81,-8.99,6.56,6.57,6.56
44.78,16.49,9.94,16.49,9.94,-9.94,-9.81,-8.98,6.55,6.55,6.55
45.23,16.47,9.94,16.47,9.94,-9.94,-9.82,-8.97,6.53,6.53,6.52
45.68,16.45,9.94,16.45,9.94,-9.93,-9.82,-8.98,6.51,6.51,6.51
46.13,16.43,9.93,16.43,9.93,-9.93,-9.83,-8.99,6.50,6.50,6.49
46.60,16.41,9.92,16.41,9.93,-9.92,-9.84,-9.00,6.49,6.49,6.49
47.06,16.39,9.92,16.39,9.92,-9.92,-9.84,-9.02,6.47,6.47,6.47
47.53,16.37,9.91,16.36,9.90,-9.91,-9.85,-9.05,6.46,6.45,6.46
48.01,16.34,9.89,16.34,9.90,-9.91,-9.86,-9.08,6.43,6.44,6.45
48.49,16.32,9.90,16.32,9.90,-9.90,-9.87,-9.12,6.42,6.42,6.42
48.97,16.30,9.90,16.29,9.90,-9.90,-9.88,-9.16,6.40,6.40,6.40
49.46,16.27,9.90,16.27,9.90,-9.90,-9.89,-9.21,6.37,6.38,6.37
49.96,16.25,9.91,16.25,9.90,-9.89,-9.90,-9.27,6.36,6.36,6.34
50.46,16.23,9.88,16.23,9.89,-9.89,-9.91,-9.33,6.34,6.34,6.34
50.96,16.21,9.88,16.21,9.89,-9.88,-9.92,-9.39,6.32,6.32,6.33
51.47,16.18,9.88,16.18,9.88,-9.88,-9.93,-9.45,6.30,6.30,6.30
51.99,16.16,9.88,16.16,9.87,-9.87,-9.94,-9.52,6.28,6.28,6.28
52.51,16.13,9.86,16.13,9.86,-9.87,-9.96,-9.60,6.26,6.26,6.27
53.03,16.11,9.86,16.11,9.86,-9.86,-9.97,-9.67,6.25,6.25,6.25
53.56,16.09,9.86,16.09,9.85,-9.86,-9.98,-9.74,6.23,6.23,6.23
54.10,16.07,9.86,16.06,9.85,-9.85,-9.99,-9.82,6.22,6.21,6.21
54.64,16.04,9.85,16.04,9.85,-9.84,-10.00,-9.90,6.19,6.19,6.19
55.18,16.01,9.84,16.01,9.84,-9.84,-10.01,-9.97,6.17,6.17,6.17
55.74,15.99,9.84,15.99,9.83,-9.84,-10.02,-10.05,6.15,6.15,6.15
56.29,15.97,9.83,15.96,9.83,-9.83,-10.04,-10.12,6.14,6.13,6.14
56.86,15.94,9.82,15.94,9.82,-9.83,-10.05,-10.19,6.11,6.12,6.12
57.42,15.92,9.82,15.92,9.82,-9.82,-10.06,-10.25,6.10,6.10,6.10
58.00,15.90,9.81,15.89,9.81,-9.81,-10.07,-10.31,6.09,6.08,6.08
58.58,15.87,9.81,15.87,9.81,-9.80,-10.08,-10.37,6.07,6.07,6.06
59.16,15.85,9.80,15.85,9.80,-9.80,-10.09,-10.42,6.05,6.05,6.05
59.76,15.82,9.78,15.82,9.79,-9.79,-10.10,-10.46,6.03,6.03,6.03
60.35,15.80,9.79,15.79,9.78,-9.78,-10.11,-10.49,6.01,6.01,6.01
60.96,15.76,9.75,15.76,9.77,-9.78,-10.12,-10.51,5.98,5.99,6.01
61.57,15.74,9.77,15.74,9.77,-9.77,-10.13,-10.53,5.97,5.97,5.97
62.18,15.72,9.77,15.71,9.77,-9.76,-10.14,-10.54,5.95,5.95,5.94
62.80,15.69,9.76,15.69,9.77,-9.76,-10.15,-10.53,5.93,5.93,5.93
63.43,15.67,9.77,15.66,9.76,-9.75,-10.16,-10.52,5.92,5.91,5.90
64.07,15.63,9.74,15.63,9.75,-9.74,-10.17,-10.50,5.89,5.89,5.89
64.71,15.61,9.73,15.61,9.73,-9.73,-10.18,-10.47,5.88,5.87,5.88
65.35,15.58,9.72,15.58,9.71,-9.72,-10.18,-10.44,5.86,5.86,5.86
66.01,15.55,9.70,15.55,9.70,-9.71,-10.19,-10.39,5.84,5.84,5.85
66.67,15.53,9.70,15.53,9.69,-9.70,-10.20,-10.34,5.83,5.83,5.83
67.33,15.51,9.68,15.50,9.68,-9.68,-10.20,-10.28,5.82,5.82,5.82
68.01,15.48,9.68,15.48,9.68,-9.67,-10.21,-10.21,5.81,5.81,5.80
68.69,15.46,9.67,15.45,9.67,-9.66,-10.21,-10.14,5.80,5.79,5.79
69.37,15.43,9.66,15.43,9.65,-9.65,-10.22,-10.07,5.78,5.78,5.77
70.07,15.40,9.64,15.40,9.64,-9.64,-10.22,-9.99,5.76,5.76,5.76
70.77,15.38,9.63,15.37,9.63,-9.63,-10.23,-9.91,5.75,5.74,5.75
71.48,15.35,9.62,15.35,9.62,-9.62,-10.23,-9.83,5.72,5.72,5.72
72.19,15.32,9.61,15.32,9.62,-9.62,-10.23,-9.75,5.70,5.71,5.71
72.91,15.30,9.61,15.29,9.61,-9.61,-10.24,-9.67,5.69,5.68,5.69
73.64,15.27,9.61,15.27,9.60,-9.61,-10.24,-9.59,5.66,5.66,5.66
74.38,15.24,9.59,15.24,9.60,-9.60,-10.24,-9.51,5.64,5.64,5.65
75.12,15.22,9.61,15.22,9.60,-9.60,-10.24,-9.43,5.62,5.62,5.61
75.87,15.20,9.60,15.19,9.60,-9.60,-10.24,-9.36,5.60,5.60,5.59
76.63,15.17,9.59,15.17,9.60,-9.60,-10.24,-9.28,5.57,5.57,5.58
77.40,15.14,9.59,15.14,9.60,-9.60,-10.24,-9.22,5.54,5.55,5.55
78.17,15.12,9.61,15.12,9.59,-9.60,-10.24,-9.15,5.52,5.52,5.51
78.95,15.09,9.59,15.09,9.60,-9.60,-10.24,-9.09,5.49,5.49,5.50
79.74,15.07,9.60,15.07,9.60,-9.60,-10.23,-9.04,5.47,5.47,5.47
80.54,15.04,9.60,15.04,9.60,-9.60,-10.23,-8.99,5.44,5.44,5.44
81.35,15.02,9.61,15.02,9.61,-9.61,-10.23,-8.94,5.41,5.41,5.41
82.16,15.00,9.62,15.00,9.61,-9.61,-10.22,-8.90,5.39,5.38,5.38
82.98,14.97,9.61,14.97,9.62,-9.62,-10.22,-8.87,5.35,5.35,5.36
83.81,14.95,9.63,14.94,9.63,-9.62,-10.21,-8.84,5.32,5.32,5.31
84.65,14.91,9.63,14.92,9.63,-9.63,-10.21,-8.82,5.28,5.29,5.28
85.50,14.90,9.64,14.89,9.64,-9.64,-10.20,-8.81,5.26,5.25,5.26
86.35,14.87,9.64,14.87,9.64,-9.64,-10.20,-8.80,5.22,5.22,5.22
87.22,14.84,9.65,14.84,9.65,-9.65,-10.19,-8.79,5.19,5.19,5.19
88.09,14.82,9.66,14.82,9.66,-9.66,-10.19,-8.80,5.16,5.16,5.16
88.97,14.80,9.67,14.79,9.67,-9.67,-10.18,-8.81,5.13,5.13,5.13
89.86,14.77,9.67,14.77,9.68,-9.68,-10.17,-8.82,5.09,5.09,5.09
90.76,14.74,9.69,14.74,9.69,-9.69,-10.17,-8.84,5.05,5.06,5.05
91.66,14.72,9.70,14.71,9.70,-9.70,-10.16,-8.87,5.02,5.02,5.02
92.58,14.69,9.71,14.69,9.71,-9.71,-10.15,-8.91,4.98,4.99,4.97
93.51,14.67,9.71,14.67,9.71,-9.72,-10.14,-8.94,4.95,4.95,4.96
94.44,14.65,9.73,14.64,9.73,-9.73,-10.14,-8.99,4.92,4.91,4.92
95.39,14.62,9.74,14.62,9.74,-9.74,-10.13,-9.04,4.87,4.88,4.88
96.34,14.60,9.76,14.60,9.76,-9.76,-10.12,-9.10,4.84,4.84,4.83
97.30,14.57,9.77,14.57,9.77,-9.77,-10.11,-9.16,4.79,4.80,4.80
98.28,14.55,9.79,14.55,9.79,-9.79,-10.11,-9.23,4.76,4.76,4.76
99.26,14.52,9.81,14.52,9.81,-9.81,-10.10,-9.31,4.71,4.71,4.71
100.25,14.50,9.83,14.50,9.83,-9.83,-10.09,-9.39,4.67,4.67,4.67
101.25,14.47,9.84,14.47,9.85,-9.84,-10.08,-9.47,4.62,4.63,4.63
102.27,14.45,9.87,14.45,9.87,-9.86,-10.08,-9.56,4.58,4.58,4.58
103.29,14.42,9.89,14.42,9.89,-9.88,-10.07,-9.64,4.54,4.54,4.53
104.32,14.40,9.91,14.39,9.90,-9.90,-10.06,-9.74,4.50,4.49,4.49
105.37,14.37,9.92,14.37,9.92,-9.92,-10.05,-9.83,4.45,4.44,4.45
106.42,14.34,9.94,14.34,9.94,-9.94,-10.05,-9.93,4.39,4.40,4.40
107.48,14.32,9.96,14.32,9.97,-9.97,-10.04,-10.03,4.35,4.35,4.35
108.56,14.30,9.99,14.30,9.99,-9.99,-10.04,-10.13,4.31,4.31,4.30
109.64,14.28,10.02,14.28,10.02,-10.01,-10.03,-10.23,4.26,4.26,4.25
110.74,14.25,10.03,14.25,10.04,-10.04,-10.03,-10.32,4.21,4.21,4.22
111.85,14.23,10.06,14.23,10.07,-10.07,-10.02,-10.42,4.16,4.16,4.17
112.97,14.20,10.10,14.20,10.09,-10.10,-10.02,-10.51,4.10,4.11,4.10
114.10,14.18,10.12,14.18,10.12,-10.12,-10.01,-10.60,4.05,4.05,4.06
115.24,14.16,10.15,14.16,10.15,-10.15,-10.01,-10.67,4.01,4.01,4.01
116.39,14.14,10.18,14.14,10.18,-10.18,-10.01,-10.75,3.96,3.96,3.95
117.55,14.12,10.21,14.12,10.21,-10.21,-10.01,-10.82,3.91,3.91,3.91
118.73,14.10,10.24,14.10,10.24,-10.23,-10.01,-10.88,3.86,3.86,3.86
119.92,14.08,10.26,14.08,10.26,-10.26,-10.01,-10.93,3.82,3.82,3.82
121.12,14.06,10.28,14.06,10.28,-10.28,-10.01,-10.98,3.78,3.78,3.77
122.33,14.04,10.31,14.04,10.31,-10.31,-10.01,-11.00,3.73,3.73,3.73
123.55,14.02,10.33,14.02,10.33,-10.33,-10.01,-11.03,3.69,3.69,3.69
124.79,14.00,10.35,14.00,10.35,-10.35,-10.01,-11.04,3.64,3.64,3.65
126.03,13.98,10.37,13.98,10.37,-10.38,-10.01,-11.04,3.60,3.60,3.61
127.29,13.96,10.39,13.96,10.40,-10.40,-10.02,-11.02,3.56,3.56,3.57
128.57,13.95,10.43,13.95,10.43,-10.42,-10.02,-11.01,3.52,3.52,3.51
129.85,13.94,10.46,13.93,10.45,-10.45,-10.03,-10.97,3.49,3.49,3.48
131.15,13.91,10.46,13.92,10.47,-10.47,-10.03,-10.93,3.44,3.45,3.45
132.46,13.90,10.49,13.90,10.49,-10.48,-10.04,-10.88,3.41,3.41,3.40
133.79,13.88,10.50,13.88,10.50,-10.50,-10.05,-10.82,3.38,3.38,3.38
135.12,13.86,10.52,13.86,10.51,-10.51,-10.06,-10.75,3.34,3.34,3.34
136.48,13.84,10.52,13.84,10.52,-10.52,-10.06,-10.68,3.31,3.31,3.32
137.84,13.82,10.52,13.82,10.53,-10.53,-10.07,-10.60,3.29,3.29,3.30
139.22,13.81,10.55,13.80,10.54,-10.54,-10.08,-10.52,3.27,3.27,3.26
140.61,13.79,10.56,13.79,10.54,-10.54,-10.09,-10.43,3.25,3.25,3.23
142.02,13.77,10.54,13.77,10.55,-10.54,-10.10,-10.34,3.23,3.23,3.23
143.44,13.75,10.53,13.75,10.54,-10.54,-10.12,-10.25,3.21,3.21,3.21
144.87,13.73,10.54,13.73,10.54,-10.54,-10.13,-10.16,3.19,3.19,3.19
146.32,13.71,10.54,13.71,10.53,-10.53,-10.14,-10.07,3.18,3.17,3.17
147.78,13.68,10.51,13.68,10.52,-10.52,-10.15,-9.97,3.16,3.16,3.16
149.26,13.66,10.51,13.66,10.51,-10.51,-10.17,-9.89,3.15,3.14,3.15
150.75,13.63,10.50,13.63,10.50,-10.50,-10.18,-9.80,3.13,3.13,3.12
152.26,13.61,10.50,13.60,10.50,-10.49,-10.19,-9.72,3.12,3.11,3.11
153.78,13.58,10.48,13.58,10.48,-10.48,-10.21,-9.63,3.10,3.10,3.10
155.32,13.55,10.47,13.55,10.47,-10.47,-10.22,-9.56,3.08,3.08,3.08
156.88,13.53,10.46,13.53,10.46,-10.46,-10.24,-9.48,3.07,3.06,3.07
158.44,13.50,10.45,13.50,10.45,-10.45,-10.25,-9.42,3.04,3.05,3.05
160.03,13.48,10.45,13.47,10.45,-10.45,-10.26,-9.35,3.03,3.03,3.03
161.63,13.45,10.44,13.45,10.44,-10.44,-10.28,-9.30,3.01,3.01,3.01
163.24,13.43,10.43,13.43,10.44,-10.44,-10.29,-9.24,2.99,2.99,2.99
164.88,13.42,10.43,13.41,10.43,-10.44,-10.31,-9.20,2.98,2.98,2.99
166.53,13.40,10.43,13.40,10.43,-10.43,-10.32,-9.16,2.96,2.96,2.97
168.19,13.38,10.44,13.38,10.44,-10.43,-10.33,-9.13,2.94,2.95,2.94
169.87,13.36,10.44,13.36,10.44,-10.44,-10.35,-9.10,2.92,2.92,2.92
171.57,13.34,10.44,13.34,10.43,-10.44,-10.36,-9.08,2.90,2.90,2.90
173.29,13.31,10.42,13.31,10.43,-10.44,-10.37,-9.06,2.87,2.88,2.88
175.02,13.30,10.44,13.29,10.44,-10.44,-10.38,-9.06,2.86,2.85,2.86
176.77,13.27,10.45,13.27,10.44,-10.44,-10.39,-9.05,2.83,2.83,2.82
178.54,13.25,10.45,13.25,10.45,-10.45,-10.40,-9.06,2.80,2.80,2.80
180.32,13.22,10.45,13.22,10.45,-10.45,-10.41,-9.07,2.77,2.77,2.77
182.13,13.19,10.44,13.19,10.44,-10.45,-10.42,-9.09,2.74,2.74,2.75
183.95,13.15,10.44,13.16,10.44,-10.44,-10.43,-9.11,2.70,2.71,2.71
185.79,13.13,10.44,13.12,10.44,-10.44,-10.43,-9.14,2.69,2.69,2.69
187.65,13.10,10.44,13.09,10.44,-10.43,-10.44,-9.18,2.67,2.66,2.65
189.52,13.05,10.42,13.06,10.42,-10.41,-10.44,-9.22,2.63,2.64,2.63
191.42,13.02,10.41,13.01,10.40,-10.40,-10.44,-9.27,2.62,2.62,2.61
193.33,12.97,10.37,12.97,10.37,-10.38,-10.44,-9.33,2.59,2.59,2.60
195.27,12.92,10.34,12.92,10.35,-10.35,-10.44,-9.39,2.57,2.57,2.58
197.22,12.87,10.31,12.87,10.32,-10.32,-10.43,-9.45,2.54,2.55,2.55
199.19,12.83,10.31,12.82,10.30,-10.30,-10.43,-9.52,2.53,2.53,2.51
201.18,12.78,10.28,12.78,10.27,-10.27,-10.42,-9.60,2.51,2.51,2.50
203.19,12.73,10.24,12.73,10.24,-10.24,-10.41,-9.68,2.48,2.49,2.49
205.23,12.69,10.22,12.69,10.21,-10.22,-10.40,-9.76,2.47,2.47,2.47
207.28,12.66,10.18,12.65,10.19,-10.20,-10.39,-9.85,2.46,2.45,2.47
209.35,12.62,10.17,12.62,10.18,-10.18,-10.37,-9.94,2.44,2.44,2.44
211.44,12.60,10.17,12.60,10.16,-10.16,-10.36,-10.03,2.43,2.43,2.43
213.56,12.57,10.15,12.57,10.15,-10.15,-10.34,-10.13,2.42,2.42,2.42
215.69,12.55,10.13,12.55,10.13,-10.13,-10.32,-10.22,2.42,2.41,2.42
217.85,12.52,10.11,12.52,10.12,-10.12,-10.29,-10.31,2.40,2.41,2.41
220.03,12.50,10.11,12.50,10.10,-10.10,-10.27,-10.40,2.40,2.40,2.39
222.23,12.47,10.08,12.47,10.08,-10.07,-10.24,-10.49,2.40,2.40,2.39
224.45,12.44,10.04,12.44,10.05,-10.04,-10.21,-10.58,2.40,2.40,2.40
226.70,12.40,10.01,12.40,10.01,-10.01,-10.17,-10.65,2.39,2.40,2.39
228.96,12.37,9.97,12.37,9.97,-9.97,-10.14,-10.73,2.40,2.40,2.39
231.25,12.33,9.92,12.33,9.92,-9.92,-10.10,-10.79,2.40,2.40,2.41
233.57,12.29,9.87,12.29,9.87,-9.88,-10.06,-10.85,2.41,2.41,2.42
235.90,12.25,9.82,12.25,9.82,-9.83,-10.01,-10.89,2.42,2.42,2.43
238.26,12.22,9.79,12.21,9.78,-9.77,-9.97,-10.93,2.44,2.44,2.43
240.64,12.17,9.71,12.17,9.72,-9.72,-9.92,-10.95,2.45,2.45,2.45
243.05,12.14,9.67,12.13,9.66,-9.66,-9.87,-10.96,2.47,2.47,2.47
245.48,12.09,9.59,12.09,9.60,-9.61,-9.81,-10.95,2.48,2.49,2.49
247.93,12.06,9.55,12.06,9.55,-9.54,-9.76,-10.93,2.51,2.51,2.51
250.41,12.02,9.49,12.02,9.48,-9.48,-9.70,-10.88,2.54,2.53,2.52
252.92,11.98,9.42,11.98,9.42,-9.42,-9.64,-10.83,2.56,2.56,2.56
255.45,11.93,9.34,11.93,9.35,-9.35,-9.57,-10.76,2.58,2.58,2.59
258.00,11.89,9.28,11.89,9.28,-9.28,-9.51,-10.68,2.60,2.60,2.61
260.58,11.85,9.22,11.84,9.21,-9.22,-9.44,-10.58,2.63,2.63,2.63
263.19,11.80,9.15,11.80,9.15,-9.15,-9.37,-10.46,2.65,2.66,2.65
265.82,11.76,9.08,11.76,9.08,-9.07,-9.29,-10.34,2.68,2.68,2.68
268.48,11.71,9.00,11.71,9.00,-9.00,-9.22,-10.20,2.71,2.71,2.71
271.16,11.67,8.93,11.66,8.93,-8.93,-9.14,-10.05,2.74,2.74,2.74
273.87,11.61,8.85,11.62,8.85,-8.85,-9.06,-9.89,2.76,2.76,2.76
276.61,11.57,8.77,11.57,8.78,-8.78,-8.98,-9.72,2.79,2.79,2.80
279.38,11.52,8.71,11.51,8.70,-8.70,-8.90,-9.55,2.82,2.81,2.81
282.17,11.46,8.62,11.46,8.62,-8.62,-8.81,-9.37,2.84,2.84,2.84
284.99,11.41,8.54,11.41,8.54,-8.54,-8.72,-9.19,2.87,2.87,2.87
287.84,11.36,8.46,11.36,8.46,-8.46,-8.63,-9.00,2.90,2.89,2.89
290.72,11.31,8.38,11.31,8.38,-8.38,-8.54,-8.81,2.93,2.92,2.93
293.63,11.25,8.30,11.25,8.30,-8.30,-8.44,-8.62,2.95,2.96,2.95
296.57,11.20,8.21,11.20,8.21,-8.21,-8.35,-8.43,2.99,2.99,2.99
299.53,11.14,8.12,11.14,8.12,-8.12,-8.25,-8.24,3.02,3.02,3.01
302.53,11.08,8.04,11.08,8.03,-8.03,-8.15,-8.05,3.05,3.05,3.04
305.55,11.02,7.93,11.02,7.94,-7.94,-8.05,-7.86,3.08,3.08,3.09
308.61,10.96,7.84,10.96,7.84,-7.84,-7.95,-7.68,3.12,3.12,3.12
311.69,10.90,7.74,10.90,7.74,-7.74,-7.84,-7.49,3.15,3.15,3.15
314.81,10.84,7.65,10.84,7.65,-7.65,-7.74,-7.31,3.19,3.19,3.19
317.96,10.77,7.55,10.77,7.55,-7.55,-7.63,-7.13,3.22,3.22,3.22
321.14,10.71,7.46,10.71,7.46,-7.45,-7.52,-6.96,3.25,3.25,3.25
324.35,10.64,7.36,10.64,7.36,-7.36,-7.41,-6.79,3.28,3.28,3.28
327.59,10.58,7.26,10.57,7.26,-7.26,-7.30,-6.62,3.31,3.31,3.32
330.87,10.51,7.16,10.51,7.17,-7.17,-7.19,-6.46,3.34,3.34,3.34
334.18,10.44,7.08,10.44,7.07,-7.08,-7.08,-6.30,3.35,3.36,3.36
337.52,10.38,6.99,10.38,6.98,-7.00,-6.96,-6.14,3.38,3.38,3.39
340.90,10.31,6.89,10.31,6.89,-6.90,-6.85,-5.99,3.40,3.40,3.42
344.30,10.24,6.80,10.24,6.80,-6.80,-6.73,-5.84,3.43,3.43,3.44
347.75,10.16,6.69,10.17,6.71,-6.69,-6.61,-5.70,3.46,3.48,3.47
351.23,10.10,6.61,10.09,6.61,-6.57,-6.49,-5.56,3.52,3.52,3.49
354.74,10.01,6.50,9.98,6.48,-6.44,-6.37,-5.42,3.57,3.54,3.50
358.28,9.84,6.31,9.85,6.32,-6.30,-6.25,-5.29,3.54,3.55,3.52
361.87,9.68,6.14,9.69,6.14,-6.15,-6.13,-5.16,3.53,3.54,3.54
365.49,9.53,5.96,9.53,5.96,-5.98,-6.01,-5.04,3.54,3.54,3.57
369.14,9.38,5.80,9.38,5.80,-5.82,-5.88,-4.92,3.56,3.56,3.58
372.83,9.24,5.64,9.24,5.64,-5.65,-5.76,-4.80,3.59,3.59,3.60
376.56,9.11,5.49,9.10,5.48,-5.48,-5.63,-4.69,3.62,3.62,3.62
380.33,8.97,5.32,8.97,5.33,-5.32,-5.51,-4.58,3.64,3.65,3.65
384.13,8.84,5.17,8.84,5.17,-5.17,-5.38,-4.47,3.67,3.67,3.67
387.97,8.71,5.02,8.71,5.02,-5.03,-5.25,-4.37,3.68,3.68,3.69
391.85,8.59,4.88,8.59,4.88,-4.88,-5.12,-4.27,3.71,3.70,3.70
395.77,8.47,4.73,8.47,4.74,-4.74,-4.99,-4.17,3.73,3.73,3.73
399.73,8.36,4.60,8.36,4.61,-4.60,-4.86,-4.07,3.75,3.75,3.75
403.72,8.25,4.48,8.25,4.47,-4.47,-4.73,-3.98,3.78,3.78,3.77
407.76,8.14,4.35,8.14,4.34,-4.34,-4.60,-3.89,3.80,3.80,3.79
411.84,8.03,4.21,8.03,4.21,-4.21,-4.47,-3.80,3.81,3.82,3.82
415.96,7.93,4.09,7.93,4.09,-4.09,-4.34,-3.72,3.84,3.84,3.84
420.12,7.83,3.97,7.83,3.96,-3.96,-4.20,-3.63,3.86,3.86,3.86
424.32,7.73,3.84,7.73,3.85,-3.84,-4.07,-3.55,3.89,3.89,3.89
428.56,7.64,3.73,7.63,3.73,-3.72,-3.94,-3.47,3.92,3.92,3.91
432.85,7.54,3.61,7.54,3.61,-3.60,-3.80,-3.39,3.94,3.94,3.93
437.18,7.45,3.49,7.44,3.49,-3.49,-3.67,-3.31,3.96,3.95,3.96
441.55,7.36,3.37,7.35,3.37,-3.38,-3.53,-3.23,3.97,3.97,3.99
445.96,7.26,3.25,7.27,3.26,-3.28,-3.39,-3.16,3.98,3.99,4.01
450.42,7.21,3.18,7.21,3.17,-3.18,-3.26,-3.08,4.02,4.02,4.03
454.93,7.15,3.08,7.15,3.09,-3.09,-3.12,-3.00,4.06,4.06,4.07
459.48,7.10,3.01,7.09,3.00,-3.00,-2.98,-2.92,4.10,4.10,4.09
