frequency,raw,error,smoothed,error_smoothed,equalization,parametric_eq,fixed_band_eq,equalized_raw,equalized_smoothed,target
20.00,-2.16,-0.91,-2.16,-0.92,0.92,0.87,-0.60,-1.24,-1.24,-1.24
20.20,-2.05,-0.89,-2.05,-0.89,0.89,0.82,-0.62,-1.15,-1.15,-1.15
20.40,-1.94,-0.86,-1.94,-0.86,0.87,0.76,-0.63,-1.07,-1.07,-1.07
20.61,-1.83,-0.82,-1.83,-0.83,0.83,0.70,-0.65,-0.99,-0.99,-1.00
20.81,-1.72,-0.80,-1.72,-0.80,0.80,0.65,-0.66,-0.92,-0.92,-0.91
21.02,-1.61,-0.77,-1.61,-0.77,0.76,0.59,-0.68,-0.85,-0.85,-0.83
21.23,-1.50,-0.72,-1.50,-0.73,0.71,0.53,-0.69,-0.78,-0.78,-0.77
21.44,-1.38,-0.67,-1.39,-0.67,0.67,0.47,-0.71,-0.72,-0.72,-0.71
21.66,-1.28,-0.61,-1.27,-0.61,0.61,0.41,-0.72,-0.67,-0.66,-0.66
21.87,-1.15,-0.54,-1.16,-0.55,0.55,0.35,-0.74,-0.60,-0.61,-0.61
22.09,-1.04,-0.48,-1.05,-0.48,0.49,0.29,-0.76,-0.56,-0.56,-0.56
22.31,-0.93,-0.42,-0.93,-0.42,0.42,0.23,-0.78,-0.52,-0.51,-0.51
22.54,-0.83,-0.35,-0.83,-0.35,0.35,0.17,-0.79,-0.48,-0.48,-0.48
22.76,-0.72,-0.28,-0.72,-0.28,0.28,0.11,-0.81,-0.44,-0.44,-0.44
22.99,-0.62,-0.21,-0.61,-0.21,0.21,0.05,-0.83,-0.41,-0.40,-0.41
23.22,-0.50,-0.13,-0.50,-0.13,0.14,-0.01,-0.85,-0.36,-0.36,-0.37
23.45,-0.39,-0.06,-0.39,-0.06,0.07,-0.07,-0.87,-0.32,-0.32,-0.33
23.69,-0.28,0.01,-0.28,0.01,-0.01,-0.13,-0.89,-0.28,-0.28,-0.29
23.92,-0.16,0.08,-0.17,0.08,-0.08,-0.19,-0.91,-0.24,-0.24,-0.25
24.16,-0.06,0.14,-0.06,0.15,-0.15,-0.26,-0.93,-0.21,-0.21,-0.20
24.40,0.06,0.22,0.05,0.22,-0.23,-0.32,-0.95,-0.17,-0.17,-0.17
24.65,0.16,0.30,0.16,0.30,-0.30,-0.38,-0.98,-0.14,-0.14,-0.14
24.89,0.28,0.38,0.28,0.38,-0.38,-0.45,-1.00,-0.11,-0.11,-0.11
25.14,0.39,0.45,0.39,0.46,-0.46,-0.51,-1.02,-0.07,-0.07,-0.07
25.39,0.51,0.55,0.50,0.54,-0.54,-0.57,-1.05,-0.03,-0.04,-0.04
25.65,0.61,0.61,0.61,0.62,-0.62,-0.64,-1.07,-0.01,-0.01,-0.00
25.91,0.72,0.70,0.73,0.70,-0.70,-0.70,-1.10,0.02,0.03,0.02
26.16,0.84,0.79,0.83,0.78,-0.78,-0.77,-1.13,0.06,0.06,0.05
26.43,0.94,0.86,0.94,0.86,-0.85,-0.83,-1.15,0.09,0.09,0.09
26.69,1.04,0.93,1.05,0.93,-0.93,-0.90,-1.18,0.11,0.12,0.12
26.96,1.15,1.01,1.15,1.00,-1.01,-0.97,-1.21,0.14,0.14,0.15
27.23,1.26,1.08,1.26,1.08,-1.09,-1.03,-1.24,0.18,0.18,0.19
27.50,1.37,1.16,1.37,1.16,-1.16,-1.10,-1.27,0.21,0.21,0.21
27.77,1.49,1.25,1.48,1.24,-1.24,-1.17,-1.30,0.24,0.24,0.23
28.05,1.59,1.32,1.59,1.33,-1.32,-1.23,-1.33,0.27,0.27,0.27
28.33,1.69,1.40,1.70,1.40,-1.40,-1.30,-1.36,0.30,0.30,0.29
28.62,1.80,1.48,1.80,1.48,-1.48,-1.37,-1.39,0.33,0.32,0.32
28.90,1.90,1.54,1.91,1.55,-1.55,-1.44,-1.42,0.35,0.35,0.36
29.19,2.01,1.63,2.01,1.63,-1.63,-1.51,-1.46,0.39,0.39,0.38
29.48,2.12,1.70,2.12,1.70,-1.70,-1.58,-1.49,0.43,0.42,0.43
29.78,2.22,1.77,2.22,1.77,-1.77,-1.64,-1.53,0.45,0.46,0.45
30.08,2.32,1.85,2.32,1.84,-1.84,-1.71,-1.56,0.48,0.48,0.48
30.38,2.41,1.91,2.41,1.91,-1.91,-1.78,-1.60,0.50,0.51,0.51
30.68,2.50,1.97,2.51,1.97,-1.98,-1.85,-1.64,0.53,0.53,0.53
30.99,2.60,2.05,2.60,2.04,-2.05,-1.92,-1.68,0.55,0.55,0.55
31.30,2.69,2.11,2.70,2.11,-2.12,-1.99,-1.72,0.58,0.58,0.58
31.61,2.79,2.18,2.79,2.19,-2.19,-2.07,-1.76,0.61,0.61,0.61
31.93,2.89,2.26,2.89,2.26,-2.26,-2.14,-1.80,0.63,0.63,0.63
32.24,2.99,2.34,2.99,2.33,-2.33,-2.21,-1.84,0.66,0.66,0.65
32.57,3.08,2.41,3.08,2.40,-2.40,-2.28,-1.88,0.68,0.68,0.68
32.89,3.17,2.47,3.17,2.47,-2.47,-2.35,-1.93,0.70,0.70,0.71
33.22,3.26,2.54,3.27,2.54,-2.54,-2.42,-1.98,0.72,0.72,0.72
33.55,3.35,2.61,3.35,2.61,-2.62,-2.50,-2.02,0.74,0.74,0.74
33.89,3.44,2.69,3.44,2.68,-2.69,-2.57,-2.07,0.75,0.75,0.75
34.23,3.53,2.75,3.54,2.76,-2.76,-2.64,-2.12,0.77,0.77,0.78
34.57,3.62,2.84,3.63,2.84,-2.84,-2.71,-2.17,0.79,0.79,0.79
34.92,3.72,2.93,3.72,2.92,-2.91,-2.79,-2.23,0.81,0.80,0.80
35.27,3.80,2.99,3.80,3.00,-2.99,-2.86,-2.28,0.81,0.81,0.81
35.62,3.88,3.07,3.89,3.07,-3.07,-2.93,-2.34,0.81,0.82,0.81
35.97,3.96,3.14,3.97,3.14,-3.15,-3.01,-2.39,0.82,0.82,0.82
36.33,4.05,3.22,4.05,3.22,-3.23,-3.08,-2.45,0.83,0.82,0.84
36.70,4.14,3.31,4.14,3.31,-3.31,-3.16,-2.52,0.83,0.83,0.84
37.06,4.22,3.39,4.23,3.39,-3.39,-3.23,-2.58,0.84,0.84,0.83
37.43,4.31,3.47,4.31,3.48,-3.47,-3.31,-2.64,0.84,0.84,0.84
37.81,4.39,3.56,4.39,3.56,-3.55,-3.38,-2.71,0.84,0.84,0.84
38.19,4.47,3.64,4.47,3.63,-3.63,-3.46,-2.78,0.84,0.84,0.84
38.57,4.54,3.70,4.55,3.71,-3.71,-3.53,-2.85,0.83,0.84,0.84
38.95,4.62,3.79,4.62,3.79,-3.79,-3.61,-2.93,0.84,0.84,0.84
39.34,4.69,3.87,4.69,3.86,-3.86,-3.69,-3.00,0.83,0.83,0.83
39.74,4.76,3.94,4.76,3.94,-3.94,-3.76,-3.08,0.83,0.83,0.82
40.14,4.82,4.00,4.83,4.01,-4.01,-3.84,-3.16,0.82,0.82,0.82
40.54,4.89,4.08,4.89,4.08,-4.08,-3.91,-3.24,0.81,0.81,0.82
40.94,4.96,4.15,4.96,4.15,-4.15,-3.99,-3.33,0.82,0.81,0.81
41.35,5.02,4.21,5.03,4.22,-4.22,-4.07,-3.42,0.81,0.81,0.81
41.76,5.09,4.29,5.09,4.29,-4.28,-4.15,-3.51,0.81,0.81,0.81
42.18,5.15,4.35,5.15,4.35,-4.35,-4.22,-3.60,0.80,0.80,0.80
42.60,5.21,4.43,5.21,4.42,-4.42,-4.30,-3.70,0.80,0.79,0.79
43.03,5.26,4.47,5.27,4.48,-4.48,-4.38,-3.80,0.78,0.78,0.79
43.46,5.32,4.54,5.32,4.55,-4.55,-4.46,-3.90,0.77,0.77,0.78
43.90,5.38,4.62,5.38,4.61,-4.62,-4.53,-4.00,0.77,0.76,0.77
44.33,5.43,4.68,5.43,4.68,-4.68,-4.61,-4.11,0.75,0.75,0.75
44.78,5.48,4.74,5.49,4.75,-4.74,-4.69,-4.22,0.74,0.74,0.75
45.23,5.54,4.81,5.54,4.81,-4.81,-4.77,-4.34,0.74,0.73,0.73
45.68,5.59,4.87,5.60,4.87,-4.87,-4.85,-4.45,0.73,0.73,0.73
46.13,5.65,4.93,5.65,4.93,-4.93,-4.93,-4.57,0.73,0.72,0.72
46.60,5.70,4.98,5.71,4.99,-4.99,-5.01,-4.69,0.72,0.72,0.72
47.06,5.76,5.05,5.76,5.04,-5.04,-5.09,-4.82,0.72,0.72,0.72
47.53,5.81,5.10,5.81,5.10,-5.10,-5.17,-4.95,0.72,0.71,0.71
48.01,5.86,5.15,5.86,5.15,-5.15,-5.25,-5.08,0.71,0.71,0.72
48.49,5.91,5.20,5.91,5.20,-5.21,-5.33,-5.21,0.70,0.70,0.71
48.97,5.96,5.26,5.96,5.27,-5.27,-5.41,-5.34,0.70,0.70,0.70
49.46,6.01,5.33,6.02,5.33,-5.32,-5.49,-5.48,0.69,0.69,0.68
49.96,6.07,5.40,6.07,5.38,-5.38,-5.57,-5.62,0.69,0.69,0.68
50.46,6.12,5.43,6.13,5.44,-5.44,-5.65,-5.76,0.69,0.69,0.69
50.96,6.18,5.48,6.19,5.49,-5.50,-5.73,-5.91,0.69,0.69,0.70
51.47,6.25,5.56,6.25,5.55,-5.56,-5.81,-6.05,0.70,0.70,0.69
51.99,6.32,5.63,6.32,5.62,-5.62,-5.89,-6.19,0.71,0.70,0.70
52.51,6.38,5.68,6.38,5.68,-5.68,-5.97,-6.34,0.70,0.70,0.71
53.03,6.44,5.74,6.45,5.74,-5.75,-6.05,-6.48,0.70,0.70,0.71
53.56,6.52,5.82,6.52,5.81,-5.82,-6.13,-6.63,0.71,0.70,0.71
54.10,6.59,5.89,6.59,5.89,-5.89,-6.21,-6.77,0.70,0.70,0.71
54.64,6.67,5.98,6.67,5.97,-5.97,-6.29,-6.91,0.71,0.70,0.70
55.18,6.74,6.05,6.74,6.05,-6.05,-6.38,-7.05,0.70,0.70,0.70
55.74,6.82,6.14,6.82,6.13,-6.13,-6.46,-7.19,0.69,0.69,0.69
56.29,6.89,6.21,6.90,6.22,-6.22,-6.54,-7.32,0.68,0.68,0.69
56.86,6.98,6.31,6.98,6.31,-6.31,-6.62,-7.44,0.67,0.68,0.67
57.42,7.07,6.41,7.07,6.41,-6.40,-6.70,-7.57,0.67,0.67,0.66
58.00,7.16,6.50,7.16,6.50,-6.50,-6.78,-7.68,0.67,0.66,0.66
58.58,7.24,6.60,7.25,6.60,-6.60,-6.86,-7.79,0.65,0.65,0.65
59.16,7.33,6.69,7.34,6.70,-6.70,-6.94,-7.89,0.63,0.64,0.64
59.76,7.43,6.80,7.43,6.80,-6.81,-7.03,-7.99,0.62,0.62,0.63
60.35,7.53,6.93,7.53,6.92,-6.92,-7.11,-8.07,0.61,0.61,0.61
60.96,7.62,7.02,7.63,7.04,-7.04,-7.19,-8.15,0.59,0.59,0.60
61.57,7.72,7.16,7.72,7.15,-7.16,-7.27,-8.22,0.57,0.57,0.57
62.18,7.82,7.28,7.83,7.28,-7.27,-7.35,-8.28,0.55,0.55,0.54
62.80,7.93,7.40,7.93,7.40,-7.39,-7.43,-8.33,0.54,0.54,0.54
63.43,8.03,7.53,8.03,7.52,-7.51,-7.51,-8.37,0.52,0.52,0.51
64.07,8.12,7.62,8.13,7.63,-7.63,-7.59,-8.40,0.49,0.50,0.50
64.71,8.23,7.74,8.23,7.74,-7.74,-7.67,-8.42,0.49,0.49,0.49
65.35,8.34,7.86,8.34,7.85,-7.85,-7.75,-8.44,0.49,0.49,0.49
66.01,8.45,7.97,8.45,7.96,-7.96,-7.83,-8.44,0.49,0.49,0.49
66.67,8.55,8.06,8.55,8.07,-8.06,-7.91,-8.44,0.49,0.49,0.49
67.33,8.65,8.17,8.65,8.17,-8.17,-7.98,-8.43,0.49,0.49,0.49
68.01,8.75,8.26,8.75,8.26,-8.27,-8.06,-8.42,0.49,0.49,0.49
68.69,8.85,8.37,8.85,8.36,-8.37,-8.14,-8.40,0.49,0.49,0.49
69.37,8.95,8.46,8.95,8.46,-8.46,-8.22,-8.37,0.49,0.49,0.50
70.07,9.05,8.56,9.06,8.55,-8.55,-8.29,-8.35,0.50,0.50,0.50
70.77,9.15,8.64,9.15,8.65,-8.64,-8.37,-8.32,0.51,0.51,0.51
71.48,9.24,8.73,9.24,8.73,-8.73,-8.44,-8.28,0.51,0.51,0.51
72.19,9.32,8.82,9.33,8.82,-8.81,-8.52,-8.25,0.51,0.51,0.51
72.91,9.40,8.89,9.41,8.90,-8.89,-8.59,-8.22,0.51,0.51,0.51
73.64,9.48,8.98,9.48,8.97,-8.97,-8.66,-8.18,0.51,0.51,0.51
74.38,9.55,9.04,9.55,9.05,-9.05,-8.73,-8.15,0.50,0.51,0.51
75.12,9.62,9.12,9.63,9.12,-9.12,-8.80,-8.12,0.50,0.51,0.51
75.87,9.70,9.19,9.70,9.19,-9.20,-8.87,-8.09,0.51,0.51,0.51
76.63,9.77,9.26,9.77,9.26,-9.26,-8.94,-8.06,0.51,0.51,0.51
77.40,9.83,9.33,9.84,9.33,-9.33,-9.01,-8.04,0.50,0.51,0.50
78.17,9.89,9.40,9.90,9.39,-9.39,-9.07,-8.01,0.50,0.51,0.50
78.95,9.96,9.45,9.96,9.45,-9.45,-9.14,-8.00,0.52,0.51,0.52
79.74,10.01,9.50,10.01,9.50,-9.50,-9.20,-7.98,0.52,0.52,0.52
80.54,10.06,9.55,10.07,9.55,-9.54,-9.26,-7.97,0.52,0.52,0.52
81.35,10.11,9.59,10.11,9.58,-9.58,-9.32,-7.97,0.53,0.53,0.53
82.16,10.15,9.62,10.15,9.61,-9.61,-9.38,-7.97,0.54,0.54,0.54
82.98,10.18,9.63,10.19,9.64,-9.64,-9.44,-7.97,0.55,0.55,0.55
83.81,10.21,9.65,10.22,9.65,-9.65,-9.49,-7.99,0.56,0.56,0.56
84.65,10.24,9.68,10.24,9.67,-9.67,-9.55,-8.00,0.58,0.58,0.57
85.50,10.26,9.67,10.26,9.67,-9.67,-9.60,-8.02,0.59,0.59,0.59
86.35,10.28,9.67,10.28,9.68,-9.67,-9.65,-8.05,0.61,0.61,0.61
87.22,10.29,9.68,10.29,9.67,-9.67,-9.70,-8.08,0.62,0.62,0.62
88.09,10.30,9.67,10.30,9.67,-9.67,-9.74,-8.12,0.64,0.64,0.63
88.97,10.30,9.66,10.31,9.67,-9.66,-9.78,-8.17,0.64,0.64,0.65
89.86,10.31,9.66,10.31,9.66,-9.66,-9.83,-8.22,0.65,0.65,0.65
90.76,10.30,9.66,10.30,9.65,-9.66,-9.86,-8.28,0.65,0.64,0.64
91.66,10.29,9.65,10.30,9.66,-9.66,-9.90,-8.34,0.63,0.64,0.65
92.58,10.29,9.66,10.30,9.66,-9.67,-9.93,-8.41,0.63,0.63,0.63
93.51,10.30,9.67,10.30,9.67,-9.68,-9.96,-8.48,0.63,0.62,0.63
94.44,10.30,9.69,10.30,9.69,-9.69,-9.99,-8.56,0.61,0.61,0.62
95.39,10.30,9.71,10.31,9.71,-9.71,-10.02,-8.65,0.59,0.60,0.60
96.34,10.30,9.73,10.30,9.73,-9.73,-10.04,-8.74,0.58,0.57,0.57
97.30,10.29,9.76,10.29,9.76,-9.75,-10.06,-8.84,0.55,0.55,0.53
98.28,10.27,9.77,10.28,9.78,-9.77,-10.07,-8.94,0.51,0.51,0.50
99.26,10.25,9.79,10.25,9.79,-9.78,-10.09,-9.05,0.47,0.47,0.46
100.25,10.22,9.80,10.22,9.80,-9.80,-10.09,-9.16,0.42,0.42,0.43
101.25,10.19,9.81,10.20,9.81,-9.82,-10.10,-9.28,0.37,0.38,0.39
102.27,10.17,9.83,10.17,9.83,-9.84,-10.11,-9.40,0.33,0.33,0.35
103.29,10.15,9.86,10.15,9.85,-9.85,-10.11,-9.52,0.30,0.30,0.30
104.32,10.13,9.87,10.13,9.87,-9.87,-10.10,-9.65,0.27,0.27,0.27
105.37,10.11,9.90,10.11,9.89,-9.88,-10.10,-9.77,0.24,0.23,0.22
106.42,10.07,9.89,10.08,9.90,-9.89,-10.09,-9.90,0.19,0.19,0.18
107.48,10.03,9.89,10.04,9.90,-9.89,-10.07,-10.03,0.14,0.15,0.14
108.56,9.99,9.89,9.99,9.89,-9.89,-10.05,-10.16,0.11,0.10,0.10
109.64,9.94,9.88,9.95,9.88,-9.89,-10.04,-10.29,0.06,0.06,0.06
110.74,9.90,9.87,9.90,9.87,-9.88,-10.01,-10.41,0.02,0.02,0.03
111.85,9.86,9.86,9.86,9.86,-9.88,-9.98,-10.53,-0.01,-0.02,0.00
112.97,9.81,9.86,9.82,9.85,-9.87,-9.95,-10.64,-0.06,-0.05,-0.05
114.10,9.78,9.85,9.78,9.85,-9.86,-9.92,-10.75,-0.07,-0.08,-0.06
115.24,9.73,9.84,9.75,9.85,-9.84,-9.88,-10.84,-0.10,-0.09,-0.10
116.39,9.71,9.84,9.71,9.83,-9.81,-9.84,-10.93,-0.10,-0.11,-0.13
117.55,9.66,9.81,9.65,9.81,-9.78,-9.79,-11.00,-0.12,-0.13,-0.15
118.73,9.58,9.76,9.58,9.75,-9.74,-9.74,-11.06,-0.16,-0.16,-0.18
119.92,9.50,9.69,9.50,9.69,-9.70,-9.69,-11.09,-0.19,-0.19,-0.18
121.12,9.41,9.61,9.43,9.63,-9.64,-9.63,-11.12,-0.23,-0.21,-0.20
122.33,9.36,9.58,9.36,9.57,-9.58,-9.57,-11.11,-0.22,-0.22,-0.22
123.55,9.30,9.53,9.29,9.51,-9.52,-9.51,-11.10,-0.22,-0.23,-0.22
124.79,9.21,9.45,9.22,9.45,-9.45,-9.44,-11.05,-0.24,-0.24,-0.24
126.03,9.12,9.37,9.14,9.39,-9.39,-9.37,-11.00,-0.26,-0.24,-0.24
127.29,9.07,9.33,9.07,9.33,-9.32,-9.29,-10.91,-0.24,-0.25,-0.26
128.57,9.00,9.28,8.98,9.25,-9.25,-9.22,-10.81,-0.24,-0.26,-0.28
129.85,8.88,9.17,8.89,9.18,-9.17,-9.14,-10.68,-0.29,-0.28,-0.28
131.15,8.77,9.07,8.80,9.10,-9.10,-9.05,-10.54,-0.32,-0.30,-0.30
132.46,8.71,9.03,8.69,9.01,-9.02,-8.96,-10.38,-0.31,-0.33,-0.32
133.79,8.61,8.94,8.61,8.93,-8.94,-8.87,-10.21,-0.33,-0.34,-0.32
135.12,8.49,8.84,8.51,8.85,-8.87,-8.78,-10.01,-0.37,-0.35,-0.34
136.48,8.43,8.79,8.42,8.78,-8.79,-8.68,-9.81,-0.35,-0.37,-0.35
137.84,8.32,8.70,8.34,8.72,-8.71,-8.58,-9.59,-0.38,-0.37,-0.37
139.22,8.25,8.66,8.24,8.64,-8.63,-8.47,-9.37,-0.37,-0.38,-0.40
140.61,8.15,8.58,8.14,8.56,-8.55,-8.36,-9.13,-0.39,-0.41,-0.42
142.02,8.00,8.44,8.03,8.46,-8.46,-8.25,-8.89,-0.46,-0.43,-0.43
143.44,7.92,8.37,7.91,8.37,-8.37,-8.14,-8.65,-0.45,-0.46,-0.45
144.87,7.79,8.27,7.79,8.27,-8.28,-8.02,-8.40,-0.49,-0.49,-0.48
146.32,7.68,8.19,7.68,8.18,-8.19,-7.90,-8.15,-0.50,-0.50,-0.50
147.78,7.55,8.07,7.56,8.08,-8.09,-7.78,-7.89,-0.54,-0.53,-0.52
149.26,7.44,7.99,7.44,7.99,-7.99,-7.65,-7.64,-0.54,-0.55,-0.55
150.75,7.30,7.88,7.31,7.88,-7.88,-7.52,-7.38,-0.58,-0.57,-0.58
152.26,7.18,7.79,7.18,7.78,-7.77,-7.39,-7.13,-0.59,-0.59,-0.60
153.78,7.02,7.65,7.03,7.66,-7.65,-7.26,-6.87,-0.63,-0.62,-0.63
155.32,6.88,7.55,6.88,7.53,-7.52,-7.12,-6.62,-0.64,-0.65,-0.66
156.88,6.68,7.37,6.70,7.39,-7.39,-6.98,-6.37,-0.71,-0.69,-0.68
158.44,6.54,7.27,6.51,7.24,-7.25,-6.83,-6.12,-0.71,-0.74,-0.73
160.03,6.30,7.06,6.34,7.10,-7.10,-6.69,-5.87,-0.80,-0.77,-0.76
161.63,6.15,6.95,6.15,6.95,-6.95,-6.54,-5.63,-0.80,-0.79,-0.80
163.24,5.99,6.82,5.96,6.78,-6.79,-6.39,-5.38,-0.80,-0.83,-0.83
164.88,5.74,6.60,5.77,6.63,-6.62,-6.23,-5.14,-0.88,-0.85,-0.86
166.53,5.55,6.44,5.56,6.45,-6.44,-6.08,-4.91,-0.89,-0.88,-0.89
168.19,5.37,6.29,5.34,6.26,-6.26,-5.92,-4.67,-0.89,-0.92,-0.92
169.87,5.11,6.06,5.14,6.09,-6.08,-5.76,-4.44,-0.96,-0.93,-0.94
171.57,4.91,5.89,4.91,5.89,-5.88,-5.59,-4.21,-0.97,-0.97,-0.97
173.29,4.71,5.71,4.67,5.67,-5.69,-5.43,-3.98,-0.97,-1.01,-1.00
175.02,4.40,5.43,4.44,5.47,-5.48,-5.26,-3.75,-1.08,-1.04,-1.03
176.77,4.19,5.25,4.20,5.25,-5.27,-5.09,-3.53,-1.07,-1.07,-1.05
178.54,3.98,5.06,3.98,5.06,-5.05,-4.91,-3.31,-1.06,-1.06,-1.08
180.32,3.76,4.86,3.76,4.85,-4.82,-4.74,-3.09,-1.06,-1.06,-1.09
182.13,3.54,4.65,3.50,4.61,-4.59,-4.56,-2.87,-1.04,-1.08,-1.11
183.95,3.19,4.32,3.23,4.35,-4.35,-4.38,-2.66,-1.16,-1.12,-1.12
185.79,2.95,4.09,2.96,4.09,-4.11,-4.20,-2.45,-1.16,-1.15,-1.14
187.65,2.70,3.85,2.70,3.84,-3.86,-4.01,-2.24,-1.16,-1.17,-1.15
189.52,2.45,3.61,2.46,3.61,-3.62,-3.83,-2.03,-1.16,-1.16,-1.15
191.42,2.21,3.38,2.21,3.37,-3.37,-3.64,-1.82,-1.15,-1.16,-1.16
193.33,1.95,3.12,1.96,3.12,-3.12,-3.45,-1.62,-1.16,-1.16,-1.17
195.27,1.70,2.87,1.71,2.88,-2.87,-3.26,-1.42,-1.17,-1.17,-1.17
197.22,1.45,2.63,1.45,2.63,-2.63,-3.06,-1.22,-1.18,-1.18,-1.18
199.19,1.20,2.40,1.20,2.39,-2.39,-2.87,-1.02,-1.19,-1.19,-1.20
201.18,0.95,2.15,0.95,2.16,-2.16,-2.67,-0.82,-1.21,-1.21,-1.20
203.19,0.71,1.91,0.72,1.92,-1.93,-2.47,-0.63,-1.21,-1.21,-1.20
205.23,0.48,1.70,0.49,1.69,-1.70,-2.27,-0.44,-1.22,-1.22,-1.21
207.28,0.27,1.48,0.27,1.48,-1.48,-2.07,-0.25,-1.21,-1.22,-1.21
209.35,0.05,1.27,0.06,1.28,-1.28,-1.87,-0.07,-1.22,-1.22,-1.22
211.44,-0.15,1.09,-0.15,1.08,-1.08,-1.66,0.11,-1.22,-1.23,-1.24
213.56,-0.36,0.88,-0.36,0.87,-0.89,-1.46,0.29,-1.24,-1.25,-1.24
215.69,-0.56,0.68,-0.56,0.68,-0.70,-1.25,0.47,-1.26,-1.26,-1.24
217.85,-0.77,0.49,-0.74,0.51,-0.52,-1.05,0.63,-1.28,-1.26,-1.25
220.03,-0.90,0.36,-0.91,0.35,-0.34,-0.84,0.80,-1.24,-1.25,-1.26
222.23,-1.07,0.21,-1.08,0.19,-0.17,-0.63,0.96,-1.23,-1.25,-1.28
224.45,-1.27,0.01,-1.26,0.01,0.00,-0.42,1.12,-1.27,-1.26,-1.28
226.70,-1.46,-0.17,-1.45,-0.17,0.16,-0.21,1.27,-1.29,-1.29,-1.28
228.96,-1.65,-0.36,-1.62,-0.34,0.32,-0.00,1.41,-1.33,-1.31,-1.29
231.25,-1.77,-0.47,-1.79,-0.49,0.47,0.21,1.55,-1.30,-1.32,-1.30
233.57,-1.94,-0.62,-1.94,-0.63,0.62,0.42,1.68,-1.31,-1.32,-1.31
235.90,-2.12,-0.79,-2.09,-0.77,0.77,0.63,1.80,-1.35,-1.32,-1.33
238.26,-2.24,-0.89,-2.25,-0.91,0.92,0.84,1.92,-1.32,-1.34,-1.34
240.64,-2.41,-1.05,-2.40,-1.04,1.06,1.04,2.03,-1.35,-1.34,-1.36
243.05,-2.55,-1.18,-2.55,-1.19,1.20,1.25,2.13,-1.35,-1.36,-1.36
245.48,-2.71,-1.34,-2.72,-1.34,1.34,1.45,2.22,-1.37,-1.38,-1.37
247.93,-2.90,-1.52,-2.87,-1.50,1.48,1.66,2.31,-1.41,-1.39,-1.37
250.41,-3.02,-1.63,-3.03,-1.65,1.63,1.86,2.39,-1.38,-1.39,-1.39
252.92,-3.18,-1.80,-3.17,-1.79,1.79,2.06,2.46,-1.39,-1.38,-1.37
255.45,-3.31,-1.94,-3.31,-1.94,1.95,2.25,2.52,-1.36,-1.36,-1.37
258.00,-3.45,-2.08,-3.46,-2.10,2.12,2.44,2.57,-1.33,-1.34,-1.36
260.58,-3.64,-2.28,-3.62,-2.27,2.29,2.63,2.62,-1.35,-1.34,-1.36
263.19,-3.79,-2.45,-3.80,-2.45,2.46,2.82,2.66,-1.32,-1.33,-1.34
265.82,-3.98,-2.64,-3.97,-2.64,2.64,3.00,2.69,-1.34,-1.33,-1.33
268.48,-4.14,-2.83,-4.13,-2.82,2.82,3.17,2.72,-1.32,-1.32,-1.31
271.16,-4.29,-2.99,-4.30,-3.01,2.99,3.34,2.74,-1.29,-1.31,-1.29
273.87,-4.47,-3.19,-4.45,-3.18,3.16,3.51,2.75,-1.30,-1.29,-1.27
276.61,-4.60,-3.35,-4.60,-3.34,3.33,3.66,2.76,-1.27,-1.27,-1.25
279.38,-4.73,-3.48,-4.73,-3.49,3.49,3.81,2.77,-1.24,-1.24,-1.24
282.17,-4.85,-3.62,-4.85,-3.63,3.63,3.96,2.77,-1.21,-1.22,-1.22
284.99,-4.97,-3.76,-4.97,-3.77,3.77,4.10,2.77,-1.19,-1.20,-1.21
287.84,-5.11,-3.92,-5.09,-3.91,3.91,4.22,2.76,-1.20,-1.19,-1.19
290.72,-5.21,-4.04,-5.21,-4.04,4.04,4.35,2.75,-1.17,-1.18,-1.16
293.63,-5.32,-4.16,-5.32,-4.17,4.16,4.46,2.74,-1.16,-1.16,-1.16
296.57,-5.42,-4.29,-5.41,-4.28,4.28,4.56,2.73,-1.13,-1.13,-1.13
299.53,-5.51,-4.40,-5.51,-4.40,4.40,4.66,2.72,-1.10,-1.11,-1.11
302.53,-5.61,-4.50,-5.60,-4.51,4.52,4.75,2.71,-1.09,-1.08,-1.10
305.55,-5.70,-4.63,-5.70,-4.63,4.64,4.82,2.70,-1.06,-1.06,-1.06
308.61,-5.79,-4.74,-5.79,-4.74,4.75,4.89,2.68,-1.04,-1.04,-1.05
311.69,-5.88,-4.86,-5.87,-4.86,4.86,4.95,2.67,-1.02,-1.01,-1.02
314.81,-5.95,-4.97,-5.95,-4.96,4.97,5.00,2.66,-0.98,-0.98,-0.98
317.96,-6.03,-5.06,-6.03,-5.07,5.07,5.04,2.65,-0.96,-0.96,-0.96
321.14,-6.12,-5.17,-6.11,-5.17,5.16,5.08,2.64,-0.95,-0.95,-0.94
324.35,-6.19,-5.26,-6.18,-5.25,5.25,5.10,2.63,-0.94,-0.93,-0.93
327.59,-6.23,-5.33,-6.23,-5.32,5.31,5.12,2.63,-0.91,-0.91,-0.90
330.87,-6.25,-5.37,-6.25,-5.38,5.37,5.13,2.62,-0.88,-0.88,-0.88
334.18,-6.27,-5.42,-6.26,-5.41,5.41,5.13,2.62,-0.86,-0.85,-0.85
337.52,-6.27,-5.43,-6.26,-5.43,5.43,5.13,2.62,-0.83,-0.83,-0.83
340.90,-6.25,-5.44,-6.25,-5.44,5.44,5.12,2.62,-0.80,-0.81,-0.80
344.30,-6.22,-5.44,-6.22,-5.44,5.44,5.10,2.62,-0.78,-0.78,-0.78
347.75,-6.18,-5.42,-6.17,-5.42,5.42,5.07,2.63,-0.76,-0.76,-0.76
351.23,-6.12,-5.39,-6.12,-5.39,5.38,5.04,2.64,-0.73,-0.73,-0.73
354.74,-6.05,-5.35,-6.04,-5.34,5.34,5.01,2.65,-0.71,-0.71,-0.70
358.28,-5.96,-5.28,-5.96,-5.29,5.28,4.97,2.66,-0.67,-0.68,-0.68
361.87,-5.88,-5.22,-5.87,-5.22,5.22,4.93,2.68,-0.66,-0.65,-0.65
365.49,-5.78,-5.15,-5.78,-5.15,5.15,4.88,2.69,-0.63,-0.63,-0.62
369.14,-5.68,-5.06,-5.68,-5.07,5.08,4.83,2.71,-0.60,-0.60,-0.61
372.83,-5.59,-5.00,-5.58,-4.99,5.00,4.77,2.74,-0.59,-0.58,-0.58
376.56,-5.47,-4.90,-5.47,-4.91,4.92,4.72,2.76,-0.54,-0.55,-0.57
380.33,-5.38,-4.85,-5.38,-4.84,4.84,4.66,2.79,-0.53,-0.53,-0.53
384.13,-5.28,-4.76,-5.28,-4.76,4.76,4.60,2.81,-0.52,-0.52,-0.52
387.97,-5.19,-4.69,-5.18,-4.68,4.68,4.53,2.84,-0.51,-0.50,-0.50
391.85,-5.08,-4.59,-5.08,-4.60,4.59,4.47,2.88,-0.48,-0.48,-0.49
395.77,-4.98,-4.52,-4.98,-4.51,4.51,4.40,2.91,-0.47,-0.47,-0.46
399.73,-4.88,-4.43,-4.88,-4.42,4.42,4.33,2.95,-0.45,-0.45,-0.45
403.72,-4.79,-4.33,-4.78,-4.34,4.34,4.26,2.98,-0.45,-0.45,-0.45
407.76,-4.70,-4.25,-4.69,-4.25,4.25,4.19,3.02,-0.44,-0.44,-0.44
411.84,-4.60,-4.16,-4.60,-4.17,4.17,4.12,3.06,-0.43,-0.43,-0.43
415.96,-4.52,-4.08,-4.51,-4.08,4.09,4.05,3.10,-0.43,-0.43,-0.43
420.12,-4.44,-4.00,-4.43,-4.00,4.01,3.98,3.13,-0.43,-0.43,-0.43
424.32,-4.35,-3.91,-4.36,-3.92,3.93,3.91,3.17,-0.42,-0.43,-0.43
428.56,-4.29,-3.85,-4.28,-3.85,3.85,3.84,3.21,-0.44,-0.44,-0.43
432.85,-4.22,-3.77,-4.21,-3.77,3.77,3.77,3.25,-0.45,-0.44,-0.45
437.18,-4.14,-3.69,-4.14,-3.69,3.69,3.70,3.29,-0.45,-0.45,-0.45
441.55,-4.06,-3.61,-4.06,-3.61,3.60,3.63,3.32,-0.45,-0.46,-0.45
445.96,-3.99,-3.53,-3.98,-3.53,3.52,3.56,3.35,-0.46,-0.46,-0.46
450.42,-3.90,-3.44,-3.90,-3.44,3.44,3.49,3.38,-0.46,-0.46,-0.46
454.93,-3.81,-3.35,-3.81,-3.35,3.35,3.42,3.41,-0.46,-0.46,-0.46
459.48,-3.72,-3.25,-3.72,-3.26,3.26,3.35,3.44,-0.45,-0.46,-0.47
464.07,-3.64,-3.18,-3.64,-3.17,3.17,3.28,3.46,-0.46,-0.46,-0.46
468.71,-3.56,-3.10,-3.54,-3.08,3.08,3.21,3.48,-0.47,-0.46,-0.46
473.40,-3.45,-2.99,-3.45,-3.00,3.00,3.15,3.49,-0.45,-0.46,-0.46
478.13,-3.36,-2.91,-3.37,-2.91,2.91,3.08,3.50,-0.45,-0.46,-0.45
482.91,-3.29,-2.83,-3.28,-2.82,2.82,3.02,3.50,-0.47,-0.46,-0.46
