frequency,raw
20,-4.25
21,-3.88
22,-3.52
23,-3.17
24,-2.84
25,-2.51
26,-2.19
27,-1.89
28,-1.60
29,-1.31
30,-1.04
31,-0.78
32,-0.53
33,-0.30
34,-0.07
35,0.15
36,0.35
37,0.55
38,0.73
39,0.91
40,1.08
41,1.26
42,1.42
43,1.57
44,1.69
45,1.81
46,1.90
47,2.00
48,2.09
49,2.17
50,2.24
51,2.30
52,2.35
53,2.40
54,2.46
55,2.51
56,2.55
57,2.59
58,2.64
59,2.69
60,2.75
61,2.82
62,2.88
63,2.93
64,2.96
65,3.01
66,3.08
67,3.14
68,3.20
69,3.25
70,3.29
71,3.32
72,3.37
73,3.43
74,3.48
75,3.53
76,3.58
77,3.63
78,3.68
79,3.72
80,3.76
81,3.80
82,3.83
83,3.87
84,3.91
85,3.95
86,4.00
87,4.04
88,4.07
89,4.10
90,4.12
91,4.14
92,4.16
93,4.18
94,4.20
95,4.23
96,4.25
97,4.27
98,4.29
99,4.31
100,4.34
101,4.37
102,4.41
104,4.44
105,4.48
106,4.50
107,4.53
108,4.55
109,4.56
110,4.57
111,4.57
112,4.56
113,4.55
114,4.55
115,4.55
117,4.55
118,4.55
119,4.55
120,4.55
121,4.55
123,4.55
124,4.55
125,4.55
126,4.55
128,4.55
129,4.55
130,4.55
131,4.55
133,4.55
134,4.55
135,4.55
137,4.55
138,4.55
140,4.55
141,4.55
142,4.55
144,4.55
145,4.55
147,4.55
148,4.55
150,4.55
151,4.55
153,4.55
154,4.55
156,4.56
157,4.57
159,4.57
160,4.57
162,4.56
164,4.54
165,4.52
167,4.49
169,4.46
170,4.43
172,4.40
174,4.36
175,4.33
177,4.30
179,4.27
181,4.24
183,4.22
184,4.21
186,4.20
188,4.21
190,4.23
192,4.24
194,4.24
196,4.23
198,4.21
200,4.19
202,4.16
204,4.13
206,4.09
208,4.06
210,4.03
212,4.01
214,3.98
216,3.96
218,3.93
221,3.89
223,3.86
225,3.83
227,3.81
229,3.78
232,3.76
234,3.72
236,3.69
239,3.66
241,3.63
244,3.60
246,3.58
248,3.56
251,3.56
253,3.55
256,3.56
259,3.57
261,3.58
264,3.59
266,3.60
269,3.60
272,3.59
274,3.57
277,3.55
280,3.52
283,3.49
286,3.46
288,3.42
291,3.39
294,3.36
297,3.32
300,3.30
303,3.27
306,3.25
309,3.24
312,3.24
316,3.25
319,3.26
322,3.26
325,3.25
328,3.23
332,3.20
335,3.17
338,3.14
342,3.11
345,3.09
349,3.06
352,3.03
356,2.99
359,2.95
363,2.91
366,2.87
370,2.83
374,2.80
377,2.78
381,2.76
385,2.73
389,2.71
393,2.68
397,2.64
401,2.60
405,2.57
409,2.53
413,2.50
417,2.47
421,2.45
425,2.42
430,2.39
434,2.36
438,2.34
443,2.32
447,2.31
451,2.29
456,2.27
460,2.25
465,2.23
470,2.21
474,2.19
479,2.16
484,2.12
489,2.09
494,2.07
499,2.05
504,2.02
509,1.99
514,1.95
519,1.92
524,1.89
529,1.86
535,1.85
540,1.83
545,1.81
551,1.77
556,1.73
562,1.68
568,1.64
573,1.60
579,1.56
585,1.51
591,1.47
596,1.42
602,1.37
608,1.33
615,1.28
621,1.23
627,1.17
633,1.11
639,1.06
646,1.00
652,0.96
659,0.91
665,0.86
672,0.82
679,0.78
686,0.75
692,0.72
699,0.70
706,0.68
713,0.66
721,0.64
728,0.64
735,0.64
742,0.66
750,0.67
757,0.68
765,0.67
773,0.66
780,0.64
788,0.62
796,0.59
804,0.56
812,0.52
820,0.49
828,0.46
837,0.42
845,0.40
853,0.38
862,0.37
871,0.35
879,0.33
888,0.31
897,0.30
906,0.28
915,0.25
924,0.22
933,0.19
943,0.16
952,0.13
962,0.10
971,0.08
981,0.05
991,0.03
1001,-0.00
1011,-0.03
1021,-0.06
1031,-0.07
1041,-0.09
1052,-0.10
1062,-0.14
1073,-0.18
1084,-0.22
1094,-0.27
1105,-0.32
1116,-0.37
1128,-0.40
1139,-0.45
1150,-0.49
1162,-0.53
1173,-0.57
1185,-0.62
1197,-0.66
1209,-0.70
1221,-0.75
1233,-0.81
1246,-0.86
1258,-0.91
1271,-0.95
1283,-0.99
1296,-1.04
1309,-1.10
1322,-1.16
1335,-1.21
1349,-1.25
1362,-1.29
1376,-1.34
1390,-1.40
1404,-1.46
1418,-1.52
1432,-1.56
1446,-1.61
1461,-1.66
1475,-1.73
1490,-1.79
1505,-1.85
1520,-1.92
1535,-1.98
1550,-2.05
1566,-2.11
1582,-2.19
1597,-2.26
1613,-2.33
1629,-2.38
1646,-2.43
1662,-2.47
1679,-2.52
1696,-2.55
1713,-2.59
1730,-2.61
1747,-2.62
1764,-2.62
1782,-2.62
1800,-2.61
1818,-2.58
1836,-2.53
1854,-2.49
1873,-2.45
1892,-2.40
1911,-2.33
1930,-2.26
1949,-2.19
1969,-2.12
1988,-2.03
2008,-1.95
2028,-1.87
2048,-1.79
2069,-1.71
2090,-1.65
2111,-1.57
2132,-1.48
2153,-1.40
2175,-1.32
2196,-1.24
2218,-1.14
2240,-1.05
2263,-0.98
2285,-0.89
2308,-0.79
2331,-0.70
2355,-0.61
2378,-0.53
2402,-0.43
2426,-0.33
2450,-0.24
2475,-0.15
2500,-0.05
2525,0.05
2550,0.14
2575,0.25
2601,0.38
2627,0.51
2653,0.65
2680,0.81
2707,0.98
2734,1.16
2761,1.35
2789,1.56
2817,1.77
2845,1.99
2873,2.22
2902,2.45
2931,2.69
2960,2.94
2990,3.17
3020,3.40
3050,3.63
3080,3.84
3111,4.05
3142,4.25
3174,4.43
3206,4.60
3238,4.77
3270,4.93
3303,5.07
3336,5.19
3369,5.31
3403,5.41
3437,5.50
3471,5.59
3506,5.68
3541,5.76
3576,5.86
3612,5.96
3648,6.05
3685,6.15
3721,6.26
3759,6.35
3796,6.46
3834,6.56
3873,6.66
3911,6.78
3950,6.90
3990,7.00
4030,7.10
4070,7.21
4111,7.32
4152,7.41
4193,7.50
4235,7.60
4278,7.69
4321,7.79
4364,7.88
4407,7.96
4451,8.04
4496,8.13
4541,8.19
4586,8.26
4632,8.33
4679,8.39
4725,8.46
4773,8.52
4820,8.61
4868,8.68
4917,8.77
4966,8.87
5016,8.98
5066,9.10
5117,9.22
5168,9.36
5220,9.52
5272,9.68
5325,9.83
5378,9.98
5432,10.13
5486,10.28
5541,10.40
5596,10.51
5652,10.60
5709,10.65
5766,10.68
5823,10.70
5882,10.70
5940,10.67
6000,10.62
6060,10.55
6120,10.46
6182,10.34
6244,10.21
6306,10.05
6369,9.88
6433,9.69
6497,9.48
6562,9.21
6628,8.90
6694,8.55
6761,8.15
6828,7.71
6897,7.24
6966,6.73
7035,6.21
7106,5.68
7177,5.14
7249,4.61
7321,4.08
7394,3.57
7468,3.07
7543,2.60
7618,2.17
7694,1.77
7771,1.40
7849,1.05
7928,0.71
8007,0.37
8087,0.06
8168,-0.24
8250,-0.53
8332,-0.83
8415,-1.12
8499,-1.40
8584,-1.68
8670,-1.95
8757,-2.22
8845,-2.46
8933,-2.69
9022,-2.90
9113,-3.10
9204,-3.26
9296,-3.40
9389,-3.52
9483,-3.61
9577,-3.65
9673,-3.64
9770,-3.57
9868,-3.45
9966,-3.28
10066,-3.07
10167,-2.80
10268,-2.48
10371,-2.13
10475,-1.76
10579,-1.37
10685,-0.96
10792,-0.55
10900,-0.15
11009,0.22
11119,0.57
11230,0.89
11343,1.18
11456,1.44
11571,1.65
11686,1.82
11803,1.96
11921,2.07
12040,2.14
12161,2.17
12282,2.18
12405,2.15
12529,2.08
12655,1.96
12781,1.80
12909,1.60
13038,1.36
13168,1.08
13300,0.75
13433,0.40
13567,0.01
13703,-0.40
13840,-0.86
13978,-1.35
14118,-1.87
14259,-2.43
14402,-3.01
14546,-3.63
14692,-4.26
14838,-4.89
14987,-5.50
15137,-6.08
15288,-6.62
15441,-7.10
15595,-7.51
15751,-7.84
15909,-8.08
16068,-8.22
16229,-8.28
16391,-8.26
16555,-8.16
16720,-7.99
16888,-7.77
17056,-7.53
17227,-7.28
17399,-7.04
17573,-6.81
17749,-6.62
17926,-6.45
18106,-6.32
18287,-6.23
18470,-6.18
18654,-6.15
18841,-6.14
19029,-6.16
19220,-6.21
19412,-6.28
19606,-6.38
19802,-6.50
20000,-6.65
