frequency,raw,error,smoothed,error_smoothed,equalization,parametric_eq,fixed_band_eq,equalized_raw,equalized_smoothed,target
20.00,-32.23,-29.20,-32.26,-29.23,6.00,5.64,2.75,-26.23,-26.26,-3.03
20.20,-31.99,-29.00,-31.97,-28.98,6.00,5.64,2.83,-25.99,-25.97,-2.99
20.40,-31.75,-28.79,-31.72,-28.76,6.00,5.64,2.90,-25.75,-25.72,-2.96
20.61,-31.51,-28.58,-31.49,-28.56,6.00,5.65,2.99,-25.51,-25.49,-2.93
20.81,-31.27,-28.38,-31.27,-28.37,6.00,5.65,3.07,-25.27,-25.27,-2.89
21.02,-31.05,-28.20,-31.11,-28.24,6.00,5.65,3.16,-25.05,-25.11,-2.85
21.23,-31.03,-28.19,-31.02,-28.18,6.00,5.66,3.25,-25.03,-25.02,-2.84
21.44,-31.01,-28.19,-31.00,-28.18,6.00,5.66,3.34,-25.01,-25.00,-2.82
21.66,-31.00,-28.19,-31.01,-28.21,6.00,5.67,3.43,-25.00,-25.01,-2.81
21.87,-30.98,-28.18,-30.96,-28.16,6.00,5.67,3.53,-24.98,-24.96,-2.80
22.09,-30.86,-28.08,-30.83,-28.04,6.00,5.67,3.63,-24.86,-24.83,-2.78
22.31,-30.60,-27.82,-30.61,-27.84,6.00,5.68,3.74,-24.60,-24.61,-2.78
22.54,-30.34,-27.58,-30.33,-27.57,6.00,5.68,3.84,-24.34,-24.33,-2.77
22.76,-30.07,-27.31,-30.07,-27.30,6.00,5.69,3.95,-24.07,-24.07,-2.76
22.99,-29.81,-27.05,-29.86,-27.10,6.00,5.69,4.06,-23.81,-23.86,-2.76
23.22,-29.71,-26.96,-29.70,-26.95,6.00,5.69,4.17,-23.71,-23.70,-2.75
23.45,-29.62,-26.88,-29.61,-26.86,6.00,5.70,4.29,-23.62,-23.61,-2.74
23.69,-29.53,-26.80,-29.53,-26.80,6.00,5.70,4.41,-23.53,-23.53,-2.73
23.92,-29.44,-26.72,-29.44,-26.72,6.00,5.71,4.53,-23.44,-23.44,-2.72
24.16,-29.34,-26.63,-29.34,-26.62,6.00,5.71,4.65,-23.34,-23.34,-2.71
24.40,-29.23,-26.52,-29.23,-26.52,6.00,5.72,4.77,-23.23,-23.23,-2.70
24.65,-29.12,-26.41,-29.13,-26.42,6.00,5.72,4.90,-23.12,-23.13,-2.71
24.89,-29.02,-26.30,-29.01,-26.30,6.00,5.73,5.03,-23.02,-23.01,-2.72
25.14,-28.89,-26.17,-28.88,-26.17,6.00,5.73,5.16,-22.89,-22.88,-2.72
25.39,-28.74,-26.02,-28.75,-26.03,6.00,5.73,5.29,-22.74,-22.75,-2.72
25.65,-28.59,-25.87,-28.60,-25.87,6.00,5.74,5.42,-22.59,-22.60,-2.72
25.91,-28.44,-25.71,-28.43,-25.71,6.00,5.74,5.56,-22.44,-22.43,-2.73
26.16,-28.26,-25.54,-28.26,-25.53,6.00,5.75,5.69,-22.26,-22.26,-2.72
26.43,-28.06,-25.34,-28.06,-25.33,6.00,5.75,5.82,-22.06,-22.06,-2.72
26.69,-27.86,-25.14,-27.86,-25.13,6.00,5.76,5.95,-21.86,-21.86,-2.72
26.96,-27.66,-24.94,-27.69,-24.96,6.00,5.77,6.08,-21.66,-21.69,-2.72
27.23,-27.54,-24.82,-27.54,-24.82,6.00,5.77,6.21,-21.54,-21.54,-2.73
27.50,-27.44,-24.71,-27.43,-24.70,6.00,5.78,6.34,-21.44,-21.43,-2.73
27.77,-27.33,-24.59,-27.33,-24.60,6.00,5.78,6.46,-21.33,-21.33,-2.74
28.05,-27.23,-24.49,-27.23,-24.49,6.00,5.79,6.58,-21.23,-21.23,-2.74
28.33,-27.13,-24.38,-27.13,-24.38,6.00,5.79,6.69,-21.13,-21.13,-2.75
28.62,-27.02,-24.28,-27.03,-24.28,6.00,5.80,6.80,-21.02,-21.03,-2.74
28.90,-26.92,-24.17,-26.92,-24.17,6.00,5.80,6.90,-20.92,-20.92,-2.74
29.19,-26.80,-24.04,-26.80,-24.05,6.00,5.81,6.99,-20.80,-20.80,-2.76
29.48,-26.67,-23.92,-26.67,-23.92,6.00,5.82,7.07,-20.67,-20.67,-2.75
29.78,-26.54,-23.79,-26.55,-23.79,6.00,5.82,7.15,-20.54,-20.55,-2.75
30.08,-26.43,-23.68,-26.44,-23.69,6.00,5.83,7.22,-20.43,-20.44,-2.75
30.38,-26.35,-23.59,-26.38,-23.62,6.00,5.83,7.28,-20.35,-20.38,-2.76
30.68,-26.27,-23.50,-26.29,-23.52,6.00,5.84,7.33,-20.27,-20.29,-2.77
30.99,-26.19,-23.41,-26.10,-23.32,6.00,5.85,7.37,-20.19,-20.10,-2.78
31.30,-25.78,-23.00,-25.75,-22.97,6.00,5.85,7.39,-19.78,-19.75,-2.78
31.61,-25.33,-22.55,-25.34,-22.55,6.00,5.86,7.41,-19.33,-19.34,-2.78
31.93,-24.90,-22.10,-24.99,-22.19,6.00,5.87,7.42,-18.90,-18.99,-2.79
32.24,-24.79,-21.98,-24.80,-22.00,6.00,5.87,7.42,-18.79,-18.80,-2.81
32.57,-24.80,-21.99,-24.76,-21.95,6.00,5.88,7.40,-18.80,-18.76,-2.81
32.89,-24.80,-21.99,-24.81,-21.99,6.00,5.89,7.38,-18.80,-18.81,-2.81
33.22,-24.86,-22.05,-24.87,-22.06,6.00,5.89,7.35,-18.86,-18.87,-2.81
33.55,-24.94,-22.12,-24.95,-22.13,6.00,5.90,7.31,-18.94,-18.95,-2.82
33.89,-25.03,-22.21,-25.00,-22.18,6.00,5.91,7.26,-19.03,-19.00,-2.82
34.23,-25.02,-22.20,-25.02,-22.19,6.00,5.92,7.21,-19.02,-19.02,-2.82
34.57,-24.97,-22.13,-24.99,-22.15,6.00,5.92,7.15,-18.97,-18.99,-2.84
34.92,-24.91,-22.07,-24.89,-22.05,6.00,5.93,7.09,-18.91,-18.89,-2.84
35.27,-24.76,-21.92,-24.75,-21.90,6.00,5.94,7.02,-18.76,-18.75,-2.84
35.62,-24.58,-21.72,-24.59,-21.73,6.00,5.94,6.95,-18.58,-18.59,-2.86
35.97,-24.40,-21.54,-24.43,-21.57,6.00,5.95,6.88,-18.40,-18.43,-2.86
36.33,-24.31,-21.45,-24.31,-21.45,6.00,5.96,6.81,-18.31,-18.31,-2.86
36.70,-24.22,-21.35,-24.21,-21.34,6.00,5.97,6.73,-18.22,-18.21,-2.87
37.06,-24.12,-21.24,-24.10,-21.22,6.00,5.97,6.65,-18.12,-18.10,-2.88
37.43,-23.95,-21.06,-23.95,-21.06,6.00,5.98,6.58,-17.95,-17.95,-2.89
37.81,-23.78,-20.89,-23.79,-20.90,6.00,5.99,6.50,-17.78,-17.79,-2.89
38.19,-23.64,-20.74,-23.65,-20.75,6.00,6.00,6.42,-17.64,-17.65,-2.91
38.57,-23.54,-20.63,-23.53,-20.62,6.00,6.01,6.35,-17.54,-17.53,-2.91
38.95,-23.43,-20.51,-23.44,-20.52,6.00,6.01,6.28,-17.43,-17.44,-2.91
39.34,-23.36,-20.43,-23.36,-20.43,6.00,6.02,6.21,-17.36,-17.36,-2.93
39.74,-23.29,-20.35,-23.29,-20.35,6.00,6.03,6.14,-17.29,-17.29,-2.94
40.14,-23.21,-20.27,-23.20,-20.26,6.00,6.04,6.08,-17.21,-17.20,-2.94
40.54,-23.12,-20.18,-23.11,-20.17,6.00,6.05,6.02,-17.12,-17.11,-2.95
40.94,-23.02,-20.07,-23.05,-20.10,6.00,6.05,5.96,-17.02,-17.05,-2.95
41.35,-23.01,-20.04,-23.02,-20.05,6.00,6.06,5.91,-17.01,-17.02,-2.97
41.76,-23.01,-20.03,-22.99,-20.01,6.00,6.07,5.86,-17.01,-16.99,-2.98
42.18,-22.97,-19.97,-22.96,-19.96,6.00,6.08,5.82,-16.97,-16.96,-3.00
42.60,-22.87,-19.84,-22.88,-19.86,6.00,6.09,5.78,-16.87,-16.88,-3.03
43.03,-22.77,-19.73,-22.74,-19.69,6.00,6.09,5.74,-16.77,-16.74,-3.04
43.46,-22.57,-19.50,-22.57,-19.49,6.00,6.10,5.71,-16.57,-16.57,-3.07
43.90,-22.38,-19.26,-22.41,-19.30,6.00,6.11,5.68,-16.38,-16.41,-3.12
44.33,-22.25,-19.10,-22.26,-19.11,6.00,6.12,5.65,-16.25,-16.26,-3.15
44.78,-22.15,-18.97,-22.13,-18.95,6.00,6.13,5.64,-16.15,-16.13,-3.18
45.23,-22.00,-18.79,-21.99,-18.77,6.00,6.14,5.62,-16.00,-15.99,-3.21
45.68,-21.80,-18.56,-21.81,-18.57,6.00,6.14,5.61,-15.80,-15.81,-3.24
46.13,-21.60,-18.34,-21.57,-18.31,6.00,6.15,5.60,-15.60,-15.57,-3.26
46.60,-21.38,-18.11,-21.38,-18.11,6.00,6.16,5.60,-15.38,-15.38,-3.27
47.06,-21.20,-17.91,-21.31,-18.02,6.00,6.17,5.60,-15.20,-15.31,-3.29
47.53,-21.28,-17.98,-21.28,-17.98,6.00,6.18,5.60,-15.28,-15.28,-3.30
48.01,-21.35,-18.05,-21.20,-17.90,6.00,6.18,5.61,-15.35,-15.20,-3.30
48.49,-21.05,-17.74,-21.06,-17.75,6.00,6.19,5.62,-15.05,-15.06,-3.31
48.97,-20.75,-17.43,-20.81,-17.49,6.00,6.20,5.64,-14.75,-14.81,-3.32
49.46,-20.62,-17.29,-20.60,-17.27,6.00,6.21,5.66,-14.62,-14.60,-3.33
49.96,-20.51,-17.18,-20.60,-17.27,6.00,6.22,5.68,-14.51,-14.60,-3.33
50.46,-20.64,-17.31,-20.65,-17.33,6.00,6.22,5.70,-14.64,-14.65,-3.33
50.96,-20.79,-17.47,-20.64,-17.32,6.00,6.23,5.73,-14.79,-14.64,-3.32
51.47,-20.55,-17.22,-20.55,-17.22,6.00,6.24,5.76,-14.55,-14.55,-3.33
51.99,-20.28,-16.94,-20.36,-17.02,6.00,6.24,5.79,-14.28,-14.36,-3.35
52.51,-20.16,-16.80,-20.16,-16.79,6.00,6.25,5.82,-14.16,-14.16,-3.36
53.03,-20.04,-16.66,-20.02,-16.63,6.00,6.26,5.86,-14.04,-14.02,-3.38
53.56,-19.92,-16.50,-19.92,-16.50,6.00,6.27,5.89,-13.92,-13.92,-3.42
54.10,-19.82,-16.36,-19.85,-16.39,6.00,6.27,5.93,-13.82,-13.85,-3.46
54.64,-19.82,-16.31,-19.83,-16.32,6.00,6.28,5.97,-13.82,-13.83,-3.51
55.18,-19.82,-16.26,-19.83,-16.27,6.00,6.28,6.00,-13.82,-13.83,-3.56
55.74,-19.82,-16.21,-19.77,-16.16,6.00,6.29,6.04,-13.82,-13.77,-3.61
56.29,-19.68,-16.02,-19.64,-15.98,6.00,6.30,6.07,-13.68,-13.64,-3.66
56.86,-19.43,-15.71,-19.50,-15.77,6.00,6.30,6.11,-13.43,-13.50,-3.72
57.42,-19.36,-15.57,-19.39,-15.60,6.00,6.31,6.14,-13.36,-13.39,-3.79
58.00,-19.36,-15.51,-19.35,-15.50,6.00,6.31,6.16,-13.36,-13.35,-3.85
58.58,-19.36,-15.45,-19.34,-15.43,6.00,6.32,6.19,-13.36,-13.34,-3.91
59.16,-19.32,-15.36,-19.29,-15.32,6.00,6.32,6.21,-13.32,-13.29,-3.96
59.76,-19.19,-15.17,-19.22,-15.20,6.00,6.33,6.23,-13.19,-13.22,-4.02
60.35,-19.14,-15.05,-19.16,-15.08,6.00,6.33,6.24,-13.14,-13.16,-4.09
60.96,-19.14,-15.00,-19.14,-14.99,6.00,6.33,6.25,-13.14,-13.14,-4.14
61.57,-19.14,-14.92,-19.13,-14.91,6.00,6.34,6.26,-13.14,-13.13,-4.22
62.18,-19.10,-14.82,-19.07,-14.79,6.00,6.34,6.26,-13.10,-13.07,-4.28
62.80,-18.95,-14.62,-18.95,-14.62,6.00,6.34,6.26,-12.95,-12.95,-4.33
63.43,-18.81,-14.43,-18.82,-14.44,6.00,6.35,6.25,-12.81,-12.82,-4.38
64.07,-18.68,-14.25,-18.71,-14.28,6.00,6.35,6.24,-12.68,-12.71,-4.43
64.71,-18.64,-14.17,-18.63,-14.16,6.00,6.35,6.22,-12.64,-12.63,-4.47
65.35,-18.57,-14.05,-18.55,-14.03,6.00,6.35,6.20,-12.57,-12.55,-4.52
66.01,-18.45,-13.89,-18.44,-13.88,6.00,6.35,6.17,-12.45,-12.44,-4.56
66.67,-18.30,-13.70,-18.32,-13.72,6.00,6.35,6.14,-12.30,-12.32,-4.60
67.33,-18.19,-13.56,-18.20,-13.58,6.00,6.36,6.11,-12.19,-12.20,-4.63
68.01,-18.13,-13.47,-18.11,-13.45,6.00,6.36,6.08,-12.13,-12.11,-4.66
68.69,-18.04,-13.35,-18.06,-13.37,6.00,6.35,6.04,-12.04,-12.06,-4.69
69.37,-18.00,-13.28,-18.01,-13.29,6.00,6.35,6.00,-12.00,-12.01,-4.72
70.07,-17.98,-13.23,-17.93,-13.18,6.00,6.35,5.96,-11.98,-11.93,-4.75
70.77,-17.82,-13.05,-17.81,-13.04,6.00,6.35,5.92,-11.82,-11.81,-4.77
71.48,-17.66,-12.86,-17.69,-12.89,6.00,6.35,5.87,-11.66,-11.69,-4.80
72.19,-17.54,-12.71,-17.57,-12.74,6.00,6.35,5.83,-11.54,-11.57,-4.83
72.91,-17.54,-12.68,-17.48,-12.62,6.00,6.34,5.78,-11.54,-11.48,-4.86
73.64,-17.39,-12.50,-17.41,-12.52,6.00,6.34,5.74,-11.39,-11.41,-4.89
74.38,-17.31,-12.39,-17.35,-12.43,6.00,6.34,5.70,-11.31,-11.35,-4.92
75.12,-17.30,-12.34,-17.28,-12.33,6.00,6.33,5.66,-11.30,-11.28,-4.96
75.87,-17.26,-12.27,-17.23,-12.24,6.00,6.33,5.62,-11.26,-11.23,-4.99
76.63,-17.14,-12.12,-17.16,-12.15,6.00,6.32,5.58,-11.14,-11.16,-5.02
77.40,-17.06,-12.02,-17.06,-12.02,6.00,6.31,5.54,-11.06,-11.06,-5.04
78.17,-16.99,-11.92,-16.97,-11.91,6.00,6.31,5.51,-10.99,-10.97,-5.07
78.95,-16.87,-11.79,-16.91,-11.83,6.00,6.30,5.48,-10.87,-10.91,-5.08
79.74,-16.86,-11.77,-16.84,-11.74,6.00,6.29,5.45,-10.86,-10.84,-5.09
80.54,-16.78,-11.66,-16.76,-11.64,6.00,6.29,5.43,-10.78,-10.76,-5.12
81.35,-16.68,-11.55,-16.70,-11.57,6.00,6.28,5.41,-10.68,-10.70,-5.13
82.16,-16.63,-11.49,-16.66,-11.52,6.00,6.27,5.39,-10.63,-10.66,-5.14
82.98,-16.63,-11.50,-16.62,-11.48,6.00,6.26,5.37,-10.63,-10.62,-5.14
83.81,-16.63,-11.49,-16.57,-11.43,6.00,6.25,5.36,-10.63,-10.57,-5.14
84.65,-16.48,-11.33,-16.51,-11.37,6.00,6.24,5.36,-10.48,-10.51,-5.15
85.50,-16.40,-11.26,-16.45,-11.31,6.00,6.23,5.35,-10.40,-10.45,-5.14
86.35,-16.40,-11.26,-16.36,-11.22,6.00,6.22,5.35,-10.40,-10.36,-5.14
87.22,-16.35,-11.21,-16.31,-11.18,6.00,6.21,5.36,-10.35,-10.31,-5.14
88.09,-16.17,-11.03,-16.23,-11.10,6.00,6.20,5.37,-10.17,-10.23,-5.14
88.97,-16.17,-11.05,-16.12,-10.99,6.00,6.19,5.38,-10.17,-10.12,-5.12
89.86,-16.02,-10.90,-16.03,-10.91,6.00,6.17,5.40,-10.02,-10.03,-5.12
90.76,-15.95,-10.82,-15.99,-10.86,6.00,6.16,5.42,-9.95,-9.99,-5.13
91.66,-15.94,-10.82,-15.94,-10.80,6.00,6.15,5.44,-9.94,-9.94,-5.13
92.58,-15.94,-10.79,-15.90,-10.76,6.00,6.14,5.47,-9.94,-9.90,-5.15
93.51,-15.84,-10.70,-15.84,-10.69,6.00,6.12,5.50,-9.84,-9.84,-5.14
94.44,-15.74,-10.58,-15.77,-10.61,6.00,6.11,5.54,-9.74,-9.77,-5.16
95.39,-15.72,-10.55,-15.72,-10.55,6.00,6.10,5.58,-9.72,-9.72,-5.17
96.34,-15.72,-10.52,-15.71,-10.51,6.00,6.08,5.63,-9.72,-9.71,-5.21
97.30,-15.72,-10.50,-15.72,-10.50,6.00,6.07,5.67,-9.72,-9.72,-5.22
98.28,-15.72,-10.47,-15.72,-10.47,6.00,6.05,5.72,-9.72,-9.72,-5.25
99.26,-15.72,-10.45,-15.72,-10.45,6.00,6.04,5.77,-9.72,-9.72,-5.27
100.25,-15.72,-10.42,-15.72,-10.42,6.00,6.02,5.83,-9.72,-9.72,-5.30
101.25,-15.72,-10.39,-15.73,-10.39,6.00,6.01,5.89,-9.72,-9.73,-5.33
102.27,-15.72,-10.35,-15.73,-10.36,6.00,6.00,5.95,-9.72,-9.73,-5.37
103.29,-15.72,-10.30,-15.70,-10.29,6.00,5.98,6.01,-9.72,-9.70,-5.42
104.32,-15.67,-10.22,-15.64,-10.19,6.00,5.97,6.07,-9.67,-9.64,-5.45
105.37,-15.55,-10.05,-15.57,-10.07,6.00,5.95,6.14,-9.55,-9.57,-5.50
106.42,-15.49,-9.94,-15.53,-9.97,6.00,5.94,6.20,-9.49,-9.53,-5.55
107.48,-15.49,-9.87,-15.48,-9.86,6.00,5.92,6.26,-9.49,-9.48,-5.62
108.56,-15.49,-9.79,-15.43,-9.74,6.00,5.91,6.33,-9.49,-9.43,-5.70
109.64,-15.34,-9.58,-15.36,-9.60,6.00,5.89,6.39,-9.34,-9.36,-5.76
110.74,-15.26,-9.43,-15.30,-9.47,6.00,5.88,6.45,-9.26,-9.30,-5.83
111.85,-15.26,-9.37,-15.26,-9.36,6.00,5.86,6.51,-9.26,-9.26,-5.89
112.97,-15.26,-9.28,-15.23,-9.25,6.00,5.85,6.56,-9.26,-9.23,-5.98
114.10,-15.21,-9.17,-15.17,-9.12,6.00,5.83,6.61,-9.21,-9.17,-6.05
115.24,-15.03,-8.91,-15.11,-8.99,6.00,5.82,6.66,-9.03,-9.11,-6.12
116.39,-15.03,-8.84,-15.03,-8.84,6.00,5.80,6.70,-9.03,-9.03,-6.19
117.55,-15.02,-8.76,-14.95,-8.69,6.00,5.79,6.74,-9.02,-8.95,-6.26
118.73,-14.86,-8.54,-14.89,-8.58,6.00,5.77,6.77,-8.86,-8.89,-6.32
119.92,-14.80,-8.43,-14.84,-8.46,6.00,5.76,6.80,-8.80,-8.84,-6.37
121.12,-14.80,-8.38,-14.79,-8.38,6.00,5.75,6.82,-8.80,-8.79,-6.42
122.33,-14.80,-8.34,-14.76,-8.30,6.00,5.73,6.82,-8.80,-8.76,-6.46
123.55,-14.70,-8.22,-14.70,-8.21,6.00,5.72,6.83,-8.70,-8.70,-6.48
124.79,-14.59,-8.07,-14.63,-8.11,6.00,5.71,6.82,-8.59,-8.63,-6.52
126.03,-14.58,-8.03,-14.55,-8.00,6.00,5.69,6.81,-8.58,-8.55,-6.55
127.29,-14.50,-7.92,-14.48,-7.89,6.00,5.68,6.79,-8.50,-8.48,-6.58
128.57,-14.40,-7.78,-14.42,-7.80,6.00,5.67,6.77,-8.40,-8.42,-6.62
129.85,-14.35,-7.70,-14.38,-7.72,6.00,5.66,6.73,-8.35,-8.38,-6.65
131.15,-14.35,-7.67,-14.35,-7.66,6.00,5.64,6.69,-8.35,-8.35,-6.68
132.46,-14.35,-7.63,-14.29,-7.58,6.00,5.63,6.64,-8.35,-8.29,-6.72
133.79,-14.21,-7.47,-14.23,-7.48,6.00,5.62,6.59,-8.21,-8.23,-6.74
135.12,-14.12,-7.33,-14.17,-7.39,6.00,5.61,6.53,-8.12,-8.17,-6.79
136.48,-14.12,-7.30,-14.12,-7.30,6.00,5.60,6.46,-8.12,-8.12,-6.82
137.84,-14.10,-7.25,-14.05,-7.19,6.00,5.58,6.39,-8.10,-8.05,-6.85
139.22,-13.92,-7.02,-13.88,-6.98,6.00,5.57,6.32,-7.92,-7.88,-6.90
140.61,-13.65,-6.70,-13.66,-6.72,6.00,5.56,6.24,-7.65,-7.66,-6.95
142.02,-13.44,-6.47,-13.50,-6.52,6.00,5.55,6.16,-7.44,-7.50,-6.97
143.44,-13.45,-6.44,-13.49,-6.48,6.00,5.54,6.08,-7.45,-7.49,-7.01
144.87,-13.62,-6.57,-13.61,-6.56,6.00,5.53,5.99,-7.62,-7.61,-7.05
146.32,-13.81,-6.71,-13.77,-6.67,6.00,5.52,5.91,-7.81,-7.77,-7.10
147.78,-13.89,-6.75,-13.87,-6.73,6.00,5.50,5.82,-7.89,-7.87,-7.14
149.26,-13.89,-6.68,-13.92,-6.71,6.01,5.49,5.74,-7.88,-7.91,-7.21
150.75,-13.89,-6.61,-13.89,-6.62,6.01,5.48,5.65,-7.88,-7.89,-7.28
152.26,-13.88,-6.53,-13.83,-6.48,6.01,5.47,5.57,-7.87,-7.82,-7.35
153.78,-13.74,-6.31,-13.76,-6.33,6.01,5.46,5.49,-7.73,-7.75,-7.43
155.32,-13.67,-6.15,-13.70,-6.18,6.00,5.45,5.41,-7.67,-7.69,-7.52
156.88,-13.66,-6.07,-13.65,-6.06,5.99,5.43,5.33,-7.67,-7.67,-7.59
158.44,-13.66,-5.99,-13.65,-5.98,5.95,5.42,5.25,-7.71,-7.70,-7.67
160.03,-13.66,-5.92,-13.66,-5.92,5.91,5.41,5.17,-7.75,-7.75,-7.74
161.63,-13.66,-5.86,-13.68,-5.88,5.85,5.40,5.10,-7.81,-7.82,-7.80
163.24,-13.66,-5.81,-13.66,-5.81,5.78,5.38,5.03,-7.88,-7.87,-7.85
164.88,-13.66,-5.77,-13.60,-5.71,5.71,5.37,4.97,-7.95,-7.89,-7.89
166.53,-13.49,-5.56,-13.53,-5.60,5.63,5.36,4.90,-7.87,-7.90,-7.93
168.19,-13.44,-5.48,-13.48,-5.52,5.54,5.34,4.85,-7.90,-7.94,-7.96
169.87,-13.44,-5.46,-13.43,-5.45,5.46,5.33,4.79,-7.98,-7.97,-7.98
171.57,-13.44,-5.46,-13.38,-5.40,5.38,5.31,4.74,-8.06,-8.00,-7.98
173.29,-13.30,-5.32,-13.32,-5.34,5.32,5.30,4.68,-7.98,-7.99,-7.98
175.02,-13.21,-5.25,-13.25,-5.27,5.29,5.28,4.64,-7.92,-7.96,-7.96
176.77,-13.21,-5.24,-13.20,-5.23,5.28,5.27,4.60,-7.93,-7.92,-7.97
178.54,-13.21,-5.25,-13.19,-5.23,5.29,5.25,4.56,-7.92,-7.90,-7.96
180.32,-13.21,-5.25,-13.20,-5.25,5.30,5.24,4.52,-7.91,-7.90,-7.96
182.13,-13.21,-5.26,-13.25,-5.29,5.31,5.22,4.49,-7.90,-7.94,-7.95
183.95,-13.30,-5.35,-13.33,-5.38,5.32,5.20,4.46,-7.98,-8.01,-7.95
185.79,-13.43,-5.47,-13.38,-5.42,5.33,5.18,4.44,-8.10,-8.06,-7.96
187.65,-13.44,-5.46,-13.38,-5.40,5.33,5.16,4.41,-8.11,-8.05,-7.98
189.52,-13.26,-5.26,-13.32,-5.31,5.31,5.14,4.39,-7.95,-8.00,-8.00
191.42,-13.21,-5.19,-13.24,-5.21,5.28,5.12,4.38,-7.93,-7.96,-8.02
193.33,-13.21,-5.17,-13.21,-5.17,5.23,5.10,4.36,-7.98,-7.98,-8.04
195.27,-13.21,-5.16,-13.21,-5.15,5.17,5.08,4.35,-8.05,-8.04,-8.05
197.22,-13.21,-5.14,-13.16,-5.09,5.09,5.06,4.35,-8.12,-8.08,-8.07
199.19,-13.07,-4.97,-13.10,-5.00,4.99,5.04,4.34,-8.08,-8.11,-8.10
201.18,-12.98,-4.87,-13.01,-4.90,4.87,5.01,4.34,-8.11,-8.15,-8.11
203.19,-12.94,-4.81,-12.92,-4.78,4.72,4.99,4.34,-8.22,-8.20,-8.13
205.23,-12.81,-4.66,-12.81,-4.67,4.55,4.96,4.34,-8.26,-8.26,-8.15
207.28,-12.67,-4.51,-12.64,-4.48,4.38,4.94,4.34,-8.29,-8.27,-8.16
209.35,-12.45,-4.27,-12.43,-4.24,4.22,4.91,4.35,-8.23,-8.20,-8.18
211.44,-12.19,-3.98,-12.22,-4.02,4.11,4.89,4.35,-8.08,-8.11,-8.21
213.56,-12.08,-3.87,-12.10,-3.89,4.04,4.86,4.36,-8.04,-8.06,-8.21
215.69,-12.07,-3.86,-12.11,-3.88,4.04,4.83,4.36,-8.03,-8.06,-8.21
217.85,-12.28,-4.04,-12.23,-3.99,4.14,4.80,4.37,-8.14,-8.09,-8.24
220.03,-12.44,-4.19,-12.45,-4.20,4.30,4.77,4.38,-8.14,-8.15,-8.25
222.23,-12.72,-4.45,-12.78,-4.51,4.51,4.74,4.38,-8.21,-8.27,-8.27
224.45,-13.16,-4.89,-13.17,-4.90,4.72,4.71,4.39,-8.44,-8.45,-8.27
226.70,-13.54,-5.27,-13.53,-5.25,4.89,4.68,4.39,-8.65,-8.63,-8.27
228.96,-13.82,-5.54,-13.72,-5.44,5.01,4.65,4.40,-8.81,-8.71,-8.28
231.25,-13.67,-5.39,-13.68,-5.39,5.05,4.62,4.40,-8.62,-8.63,-8.28
233.57,-13.45,-5.16,-13.47,-5.17,5.02,4.59,4.40,-8.43,-8.45,-8.29
235.90,-13.18,-4.88,-13.19,-4.89,4.93,4.55,4.39,-8.25,-8.26,-8.30
238.26,-12.92,-4.62,-12.95,-4.64,4.80,4.52,4.39,-8.12,-8.15,-8.30
240.64,-12.77,-4.47,-12.75,-4.45,4.63,4.48,4.38,-8.14,-8.12,-8.30
243.05,-12.60,-4.31,-12.63,-4.34,4.45,4.45,4.37,-8.15,-8.18,-8.29
245.48,-12.53,-4.24,-12.55,-4.26,4.27,4.41,4.35,-8.26,-8.27,-8.29
247.93,-12.53,-4.25,-12.46,-4.18,4.13,4.38,4.33,-8.40,-8.33,-8.28
250.41,-12.34,-4.05,-12.36,-4.08,4.03,4.34,4.31,-8.31,-8.33,-8.29
252.92,-12.25,-3.98,-12.25,-3.98,3.95,4.30,4.28,-8.30,-8.30,-8.27
255.45,-12.10,-3.85,-12.13,-3.87,3.87,4.27,4.25,-8.23,-8.25,-8.25
258.00,-12.07,-3.82,-12.03,-3.78,3.80,4.23,4.22,-8.27,-8.23,-8.25
260.58,-11.93,-3.69,-11.94,-3.70,3.72,4.19,4.18,-8.21,-8.22,-8.24
263.19,-11.85,-3.62,-11.89,-3.65,3.65,4.15,4.14,-8.20,-8.23,-8.23
265.82,-11.84,-3.61,-11.82,-3.59,3.60,4.11,4.10,-8.24,-8.22,-8.23
268.48,-11.79,-3.59,-11.75,-3.55,3.55,4.07,4.06,-8.24,-8.21,-8.20
271.16,-11.66,-3.47,-11.69,-3.50,3.50,4.03,4.01,-8.16,-8.18,-8.19
273.87,-11.61,-3.44,-11.64,-3.48,3.47,3.99,3.96,-8.14,-8.17,-8.18
276.61,-11.61,-3.47,-11.60,-3.45,3.44,3.95,3.90,-8.17,-8.16,-8.14
279.38,-11.61,-3.48,-11.55,-3.43,3.42,3.91,3.85,-8.19,-8.13,-8.13
282.17,-11.45,-3.35,-11.48,-3.38,3.39,3.87,3.79,-8.06,-8.09,-8.10
284.99,-11.39,-3.31,-11.43,-3.35,3.37,3.82,3.74,-8.02,-8.06,-8.08
287.84,-11.39,-3.34,-11.38,-3.34,3.34,3.78,3.68,-8.05,-8.04,-8.05
290.72,-11.39,-3.37,-11.34,-3.33,3.31,3.74,3.62,-8.08,-8.03,-8.02
293.63,-11.28,-3.29,-11.28,-3.29,3.28,3.70,3.56,-8.00,-8.00,-7.99
296.57,-11.17,-3.21,-11.23,-3.26,3.24,3.65,3.50,-7.93,-7.98,-7.96
299.53,-11.16,-3.22,-11.15,-3.21,3.21,3.61,3.45,-7.95,-7.94,-7.94
302.53,-11.15,-3.23,-11.08,-3.16,3.18,3.57,3.39,-7.97,-7.90,-7.92
305.55,-10.96,-3.07,-11.01,-3.12,3.14,3.52,3.33,-7.82,-7.87,-7.89
308.61,-10.93,-3.06,-10.96,-3.09,3.10,3.48,3.28,-7.83,-7.86,-7.87
311.69,-10.93,-3.08,-10.92,-3.07,3.06,3.44,3.22,-7.87,-7.85,-7.85
314.81,-10.93,-3.10,-10.88,-3.04,3.02,3.39,3.17,-7.91,-7.86,-7.83
317.96,-10.79,-2.96,-10.81,-2.98,2.97,3.35,3.11,-7.82,-7.84,-7.83
321.14,-10.70,-2.87,-10.75,-2.92,2.91,3.31,3.06,-7.79,-7.83,-7.83
324.35,-10.70,-2.87,-10.68,-2.85,2.85,3.26,3.01,-7.85,-7.83,-7.83
327.59,-10.67,-2.85,-10.63,-2.81,2.78,3.22,2.97,-7.89,-7.85,-7.82
330.87,-10.52,-2.71,-10.56,-2.74,2.72,3.17,2.92,-7.80,-7.84,-7.81
334.18,-10.47,-2.67,-10.45,-2.64,2.66,3.13,2.88,-7.81,-7.79,-7.80
337.52,-10.34,-2.54,-10.35,-2.56,2.61,3.08,2.84,-7.73,-7.74,-7.80
340.90,-10.27,-2.50,-10.29,-2.51,2.57,3.04,2.80,-7.70,-7.72,-7.77
344.30,-10.25,-2.49,-10.26,-2.50,2.53,2.99,2.76,-7.72,-7.73,-7.76
347.75,-10.25,-2.51,-10.25,-2.51,2.48,2.95,2.73,-7.77,-7.77,-7.74
351.23,-10.25,-2.53,-10.21,-2.49,2.44,2.90,2.69,-7.81,-7.77,-7.72
354.74,-10.15,-2.45,-10.16,-2.47,2.41,2.86,2.66,-7.74,-7.76,-7.70
358.28,-10.04,-2.37,-10.07,-2.40,2.38,2.81,2.63,-7.66,-7.70,-7.67
361.87,-10.02,-2.37,-9.96,-2.31,2.34,2.77,2.61,-7.68,-7.62,-7.65
365.49,-9.85,-2.23,-9.88,-2.25,2.30,2.73,2.58,-7.55,-7.58,-7.62
