frequency,raw,error,smoothed,error_smoothed,equalization,parametric_eq,fixed_band_eq,equalized_raw,equalized_smoothed,target
20.00,-15.75,-16.84,-15.75,-16.84,6.00,6.67,3.00,-9.75,-9.75,1.10
20.20,-15.60,-16.73,-15.59,-16.73,6.00,6.66,3.09,-9.60,-9.59,1.14
20.40,-15.44,-16.61,-15.44,-16.61,6.00,6.65,3.17,-9.44,-9.44,1.18
20.61,-15.29,-16.49,-15.29,-16.50,6.00,6.64,3.26,-9.29,-9.29,1.20
20.81,-15.14,-16.38,-15.13,-16.38,6.00,6.63,3.35,-9.14,-9.13,1.25
21.02,-14.98,-16.26,-14.98,-16.26,6.00,6.62,3.45,-8.98,-8.98,1.28
21.23,-14.83,-16.13,-14.83,-16.13,6.00,6.60,3.55,-8.83,-8.83,1.30
21.44,-14.67,-15.99,-14.67,-16.00,6.00,6.59,3.65,-8.67,-8.67,1.32
21.66,-14.52,-15.86,-14.51,-15.86,6.00,6.58,3.75,-8.52,-8.51,1.34
21.87,-14.35,-15.71,-14.35,-15.71,6.00,6.57,3.86,-8.35,-8.35,1.35
22.09,-14.20,-15.57,-14.20,-15.57,6.00,6.56,3.97,-8.20,-8.20,1.37
22.31,-14.04,-15.42,-14.04,-15.42,6.00,6.54,4.08,-8.04,-8.04,1.38
22.54,-13.89,-15.28,-13.88,-15.28,6.00,6.53,4.20,-7.89,-7.88,1.39
22.76,-13.73,-15.13,-13.73,-15.13,6.00,6.52,4.32,-7.73,-7.73,1.40
22.99,-13.57,-14.97,-13.57,-14.97,6.00,6.50,4.44,-7.57,-7.57,1.40
23.22,-13.40,-14.81,-13.40,-14.81,6.00,6.49,4.56,-7.40,-7.40,1.41
23.45,-13.24,-14.66,-13.24,-14.66,6.00,6.47,4.69,-7.24,-7.24,1.42
23.69,-13.08,-14.51,-13.07,-14.50,6.00,6.46,4.82,-7.08,-7.07,1.43
23.92,-12.91,-14.35,-12.91,-14.35,6.00,6.44,4.95,-6.91,-6.91,1.44
24.16,-12.75,-14.21,-12.74,-14.20,6.00,6.43,5.09,-6.75,-6.74,1.46
24.40,-12.58,-14.05,-12.58,-14.05,6.00,6.41,5.22,-6.58,-6.58,1.48
24.65,-12.42,-13.90,-12.41,-13.90,6.00,6.40,5.36,-6.42,-6.41,1.48
24.89,-12.24,-13.73,-12.25,-13.73,6.00,6.38,5.50,-6.24,-6.25,1.49
25.14,-12.08,-13.57,-12.08,-13.58,6.00,6.36,5.65,-6.08,-6.08,1.50
25.39,-11.91,-13.42,-11.91,-13.42,6.00,6.35,5.79,-5.91,-5.91,1.51
25.65,-11.75,-13.28,-11.75,-13.27,6.00,6.33,5.94,-5.75,-5.75,1.53
25.91,-11.58,-13.11,-11.58,-13.11,6.00,6.31,6.08,-5.58,-5.58,1.53
26.16,-11.40,-12.94,-11.41,-12.94,6.00,6.29,6.23,-5.40,-5.41,1.54
26.43,-11.24,-12.79,-11.24,-12.78,6.00,6.27,6.37,-5.24,-5.24,1.55
26.69,-11.07,-12.62,-11.07,-12.63,6.00,6.25,6.52,-5.07,-5.07,1.55
26.96,-10.90,-12.47,-10.90,-12.47,6.00,6.23,6.66,-4.90,-4.90,1.57
27.23,-10.73,-12.31,-10.73,-12.31,6.00,6.21,6.80,-4.73,-4.73,1.58
27.50,-10.55,-12.14,-10.55,-12.14,6.00,6.19,6.93,-4.55,-4.55,1.59
27.77,-10.38,-11.97,-10.38,-11.98,6.00,6.16,7.06,-4.38,-4.38,1.59
28.05,-10.21,-11.82,-10.21,-11.81,6.00,6.14,7.19,-4.21,-4.21,1.61
28.33,-10.04,-11.65,-10.03,-11.65,6.00,6.12,7.30,-4.04,-4.03,1.61
28.62,-9.86,-11.48,-9.86,-11.48,6.00,6.09,7.41,-3.86,-3.86,1.62
28.90,-9.69,-11.32,-9.69,-11.31,6.00,6.07,7.51,-3.69,-3.69,1.63
29.19,-9.52,-11.14,-9.51,-11.15,6.00,6.04,7.60,-3.52,-3.51,1.63
29.48,-9.34,-10.99,-9.34,-10.99,6.00,6.02,7.68,-3.34,-3.34,1.66
29.78,-9.17,-10.82,-9.17,-10.82,6.00,5.99,7.75,-3.17,-3.17,1.66
30.08,-8.99,-10.66,-8.99,-10.65,6.00,5.96,7.80,-2.99,-2.99,1.66
30.38,-8.80,-10.46,-8.80,-10.47,6.00,5.93,7.84,-2.80,-2.80,1.66
30.68,-8.62,-10.30,-8.62,-10.29,6.00,5.90,7.86,-2.62,-2.62,1.68
30.99,-8.43,-10.11,-8.43,-10.11,6.00,5.87,7.87,-2.43,-2.43,1.68
31.30,-8.25,-9.94,-8.25,-9.94,6.00,5.84,7.86,-2.25,-2.25,1.69
31.61,-8.06,-9.76,-8.06,-9.76,6.00,5.81,7.84,-2.06,-2.06,1.70
31.93,-7.88,-9.59,-7.88,-9.58,6.00,5.78,7.80,-1.88,-1.88,1.71
32.24,-7.70,-9.40,-7.70,-9.41,6.00,5.74,7.75,-1.70,-1.70,1.71
32.57,-7.53,-9.25,-7.52,-9.25,6.00,5.71,7.68,-1.53,-1.52,1.72
32.89,-7.35,-9.08,-7.35,-9.08,6.00,5.67,7.61,-1.35,-1.35,1.73
33.22,-7.18,-8.92,-7.18,-8.92,6.00,5.64,7.51,-1.18,-1.18,1.74
33.55,-7.01,-8.76,-7.01,-8.76,6.00,5.60,7.40,-1.01,-1.01,1.75
33.89,-6.84,-8.60,-6.83,-8.59,6.00,5.56,7.28,-0.84,-0.83,1.76
34.23,-6.66,-8.43,-6.66,-8.43,6.00,5.52,7.16,-0.66,-0.66,1.77
34.57,-6.49,-8.26,-6.49,-8.26,6.00,5.48,7.02,-0.49,-0.49,1.78
34.92,-6.32,-8.09,-6.32,-8.10,6.00,5.44,6.88,-0.32,-0.32,1.77
35.27,-6.16,-7.94,-6.15,-7.94,6.00,5.39,6.72,-0.16,-0.15,1.78
35.62,-5.99,-7.78,-5.99,-7.78,6.00,5.35,6.57,0.01,0.01,1.79
35.97,-5.83,-7.61,-5.83,-7.62,6.00,5.30,6.40,0.17,0.17,1.79
36.33,-5.68,-7.47,-5.67,-7.46,6.00,5.25,6.24,0.32,0.33,1.79
36.70,-5.52,-7.31,-5.52,-7.31,6.00,5.20,6.07,0.48,0.48,1.79
37.06,-5.36,-7.16,-5.36,-7.16,6.00,5.15,5.90,0.64,0.64,1.80
37.43,-5.21,-7.01,-5.21,-7.01,6.00,5.10,5.73,0.79,0.79,1.81
37.81,-5.06,-6.86,-5.06,-6.86,6.01,5.05,5.55,0.95,0.95,1.81
38.19,-4.91,-6.71,-4.91,-6.71,6.02,4.99,5.38,1.11,1.11,1.80
38.57,-4.77,-6.57,-4.77,-6.57,6.03,4.94,5.20,1.26,1.26,1.80
38.95,-4.63,-6.42,-4.63,-6.42,6.02,4.88,5.03,1.40,1.40,1.80
39.34,-4.49,-6.28,-4.49,-6.28,6.00,4.82,4.85,1.52,1.52,1.79
39.74,-4.35,-6.14,-4.35,-6.14,5.96,4.75,4.68,1.62,1.62,1.79
40.14,-4.21,-6.01,-4.21,-6.00,5.90,4.69,4.51,1.70,1.69,1.80
40.54,-4.07,-5.86,-4.07,-5.86,5.82,4.62,4.34,1.75,1.75,1.79
40.94,-3.93,-5.72,-3.92,-5.72,5.72,4.55,4.17,1.79,1.79,1.79
41.35,-3.78,-5.56,-3.78,-5.57,5.59,4.48,4.01,1.82,1.82,1.79
41.76,-3.63,-5.42,-3.63,-5.42,5.45,4.41,3.84,1.83,1.82,1.79
42.18,-3.48,-5.28,-3.48,-5.27,5.29,4.34,3.68,1.82,1.82,1.80
42.60,-3.33,-5.12,-3.32,-5.12,5.13,4.26,3.52,1.80,1.81,1.80
43.03,-3.17,-4.97,-3.17,-4.97,4.96,4.18,3.37,1.79,1.79,1.80
43.46,-3.01,-4.80,-3.01,-4.80,4.80,4.10,3.21,1.79,1.79,1.80
43.90,-2.85,-4.63,-2.84,-4.64,4.63,4.01,3.06,1.79,1.79,1.78
44.33,-2.68,-4.46,-2.68,-4.46,4.47,3.93,2.91,1.79,1.79,1.79
44.78,-2.51,-4.29,-2.51,-4.29,4.29,3.84,2.76,1.79,1.78,1.78
45.23,-2.34,-4.12,-2.34,-4.12,4.12,3.75,2.61,1.78,1.78,1.78
45.68,-2.16,-3.94,-2.16,-3.94,3.94,3.65,2.46,1.78,1.78,1.78
46.13,-1.98,-3.75,-1.98,-3.76,3.76,3.55,2.32,1.79,1.79,1.78
46.60,-1.79,-3.58,-1.79,-3.57,3.58,3.45,2.18,1.79,1.79,1.79
47.06,-1.61,-3.39,-1.61,-3.39,3.39,3.35,2.04,1.78,1.78,1.79
47.53,-1.42,-3.20,-1.42,-3.21,3.19,3.24,1.91,1.78,1.77,1.78
48.01,-1.23,-3.02,-1.22,-3.00,2.99,3.13,1.77,1.76,1.77,1.79
48.49,-1.02,-2.80,-1.02,-2.80,2.79,3.02,1.64,1.77,1.77,1.78
48.97,-0.82,-2.58,-0.82,-2.59,2.59,2.90,1.51,1.77,1.77,1.76
49.46,-0.63,-2.38,-0.63,-2.37,2.39,2.78,1.38,1.76,1.76,1.75
49.96,-0.44,-2.17,-0.44,-2.18,2.18,2.66,1.25,1.75,1.75,1.74
50.46,-0.25,-1.99,-0.25,-1.98,1.99,2.53,1.13,1.74,1.74,1.74
50.96,-0.07,-1.80,-0.07,-1.79,1.80,2.40,1.01,1.73,1.73,1.73
51.47,0.10,-1.60,0.10,-1.61,1.61,2.27,0.89,1.71,1.71,1.70
51.99,0.27,-1.42,0.27,-1.43,1.43,2.14,0.77,1.70,1.70,1.69
52.51,0.42,-1.27,0.43,-1.26,1.26,2.00,0.65,1.68,1.68,1.69
53.03,0.58,-1.09,0.58,-1.10,1.09,1.85,0.54,1.67,1.67,1.68
53.56,0.73,-0.93,0.73,-0.93,0.92,1.71,0.43,1.66,1.66,1.67
54.10,0.88,-0.76,0.88,-0.77,0.77,1.56,0.33,1.65,1.65,1.65
54.64,1.02,-0.61,1.02,-0.61,0.61,1.41,0.22,1.64,1.63,1.64
55.18,1.15,-0.46,1.15,-0.46,0.47,1.26,0.12,1.62,1.62,1.62
55.74,1.27,-0.32,1.28,-0.33,0.33,1.10,0.02,1.61,1.61,1.59
56.29,1.39,-0.20,1.39,-0.20,0.20,0.94,-0.07,1.60,1.59,1.59
56.86,1.49,-0.08,1.49,-0.08,0.08,0.78,-0.16,1.58,1.57,1.57
57.42,1.58,0.03,1.59,0.03,-0.03,0.62,-0.24,1.55,1.56,1.55
58.00,1.67,0.13,1.67,0.14,-0.14,0.45,-0.33,1.54,1.54,1.54
58.58,1.76,0.24,1.76,0.24,-0.24,0.29,-0.40,1.52,1.52,1.52
59.16,1.84,0.33,1.85,0.34,-0.34,0.12,-0.48,1.50,1.51,1.51
59.76,1.93,0.43,1.93,0.43,-0.44,-0.05,-0.54,1.49,1.49,1.50
60.35,2.01,0.54,2.01,0.53,-0.54,-0.21,-0.61,1.47,1.47,1.47
60.96,2.08,0.63,2.08,0.64,-0.64,-0.38,-0.67,1.44,1.44,1.45
61.57,2.15,0.74,2.15,0.74,-0.74,-0.54,-0.72,1.41,1.42,1.41
62.18,2.22,0.84,2.22,0.83,-0.83,-0.70,-0.77,1.39,1.39,1.38
62.80,2.28,0.92,2.28,0.93,-0.93,-0.85,-0.81,1.36,1.36,1.36
63.43,2.34,1.02,2.34,1.02,-1.01,-1.00,-0.85,1.33,1.33,1.33
64.07,2.40,1.10,2.40,1.10,-1.10,-1.15,-0.89,1.30,1.30,1.30
64.71,2.45,1.18,2.45,1.18,-1.18,-1.29,-0.92,1.28,1.28,1.27
65.35,2.49,1.25,2.50,1.25,-1.25,-1.42,-0.95,1.24,1.25,1.24
66.01,2.54,1.33,2.54,1.32,-1.32,-1.54,-0.97,1.22,1.22,1.22
66.67,2.57,1.38,2.58,1.38,-1.39,-1.66,-0.98,1.18,1.19,1.20
67.33,2.61,1.45,2.61,1.45,-1.45,-1.77,-1.00,1.16,1.16,1.17
68.01,2.64,1.51,2.64,1.51,-1.51,-1.86,-1.01,1.14,1.14,1.14
68.69,2.67,1.57,2.67,1.57,-1.56,-1.95,-1.01,1.11,1.11,1.11
69.37,2.69,1.62,2.69,1.62,-1.61,-2.02,-1.02,1.08,1.08,1.07
70.07,2.70,1.66,2.71,1.66,-1.66,-2.08,-1.02,1.05,1.05,1.04
70.77,2.72,1.70,2.72,1.70,-1.70,-2.13,-1.02,1.02,1.01,1.02
71.48,2.72,1.73,2.73,1.73,-1.74,-2.17,-1.01,0.98,0.98,1.00
72.19,2.73,1.77,2.74,1.77,-1.78,-2.19,-1.01,0.95,0.96,0.96
72.91,2.75,1.81,2.75,1.81,-1.81,-2.20,-1.00,0.94,0.93,0.94
73.64,2.76,1.85,2.76,1.85,-1.84,-2.21,-0.99,0.92,0.92,0.91
74.38,2.77,1.87,2.77,1.88,-1.87,-2.20,-0.98,0.90,0.91,0.90
75.12,2.78,1.91,2.77,1.90,-1.89,-2.18,-0.96,0.89,0.88,0.87
75.87,2.76,1.91,2.77,1.91,-1.91,-2.15,-0.95,0.86,0.86,0.86
76.63,2.75,1.91,2.75,1.91,-1.92,-2.12,-0.94,0.84,0.83,0.84
77.40,2.73,1.91,2.74,1.91,-1.92,-2.08,-0.92,0.81,0.81,0.82
78.17,2.72,1.92,2.72,1.92,-1.92,-2.03,-0.91,0.80,0.80,0.80
78.95,2.71,1.92,2.71,1.91,-1.91,-1.97,-0.89,0.80,0.80,0.79
79.74,2.69,1.91,2.69,1.91,-1.90,-1.91,-0.88,0.79,0.79,0.79
80.54,2.66,1.89,2.66,1.89,-1.89,-1.85,-0.86,0.77,0.77,0.77
81.35,2.63,1.87,2.63,1.87,-1.87,-1.78,-0.85,0.76,0.76,0.76
82.16,2.59,1.84,2.60,1.84,-1.84,-1.72,-0.83,0.75,0.75,0.75
82.98,2.56,1.81,2.56,1.81,-1.81,-1.65,-0.82,0.75,0.75,0.75
83.81,2.52,1.78,2.52,1.78,-1.77,-1.57,-0.80,0.75,0.74,0.74
84.65,2.46,1.74,2.47,1.73,-1.73,-1.50,-0.79,0.73,0.74,0.73
85.50,2.41,1.68,2.41,1.68,-1.68,-1.43,-0.78,0.73,0.73,0.73
86.35,2.35,1.62,2.35,1.63,-1.63,-1.36,-0.76,0.73,0.73,0.73
87.22,2.29,1.57,2.29,1.57,-1.57,-1.29,-0.75,0.73,0.73,0.72
88.09,2.23,1.51,2.23,1.51,-1.50,-1.23,-0.74,0.73,0.73,0.72
88.97,2.16,1.44,2.16,1.44,-1.44,-1.16,-0.73,0.72,0.72,0.72
89.86,2.08,1.35,2.08,1.36,-1.37,-1.10,-0.72,0.71,0.71,0.73
90.76,2.01,1.30,2.01,1.30,-1.30,-1.04,-0.71,0.71,0.71,0.71
91.66,1.94,1.23,1.95,1.23,-1.23,-0.98,-0.70,0.71,0.72,0.72
92.58,1.89,1.18,1.89,1.17,-1.16,-0.93,-0.70,0.73,0.72,0.71
93.51,1.82,1.10,1.82,1.10,-1.10,-0.87,-0.69,0.73,0.72,0.72
94.44,1.74,1.03,1.75,1.03,-1.03,-0.83,-0.68,0.71,0.72,0.71
95.39,1.67,0.96,1.67,0.96,-0.96,-0.78,-0.68,0.71,0.71,0.72
96.34,1.59,0.89,1.59,0.89,-0.90,-0.74,-0.67,0.69,0.70,0.70
97.30,1.52,0.83,1.53,0.84,-0.84,-0.70,-0.67,0.69,0.69,0.69
98.28,1.46,0.78,1.46,0.78,-0.78,-0.66,-0.67,0.69,0.68,0.68
99.26,1.40,0.73,1.40,0.72,-0.73,-0.62,-0.67,0.68,0.67,0.67
100.25,1.33,0.67,1.33,0.67,-0.68,-0.59,-0.66,0.65,0.65,0.66
101.25,1.27,0.62,1.28,0.63,-0.64,-0.57,-0.66,0.63,0.64,0.65
102.27,1.22,0.59,1.23,0.60,-0.60,-0.54,-0.66,0.62,0.63,0.63
103.29,1.20,0.59,1.20,0.58,-0.57,-0.52,-0.66,0.64,0.63,0.61
104.32,1.16,0.56,1.15,0.55,-0.54,-0.50,-0.66,0.63,0.62,0.61
105.37,1.10,0.52,1.10,0.52,-0.51,-0.48,-0.66,0.59,0.59,0.59
106.42,1.04,0.49,1.05,0.49,-0.49,-0.47,-0.67,0.55,0.56,0.56
107.48,0.99,0.46,0.99,0.46,-0.47,-0.45,-0.67,0.52,0.52,0.54
108.56,0.95,0.45,0.95,0.45,-0.46,-0.45,-0.67,0.49,0.49,0.50
109.64,0.91,0.44,0.91,0.44,-0.45,-0.44,-0.67,0.46,0.46,0.47
110.74,0.88,0.44,0.88,0.45,-0.45,-0.43,-0.68,0.43,0.43,0.44
111.85,0.85,0.45,0.85,0.45,-0.45,-0.43,-0.68,0.40,0.40,0.40
112.97,0.82,0.47,0.82,0.46,-0.46,-0.43,-0.68,0.36,0.36,0.35
114.10,0.79,0.47,0.79,0.47,-0.47,-0.43,-0.69,0.32,0.32,0.32
115.24,0.75,0.48,0.76,0.48,-0.48,-0.43,-0.69,0.27,0.28,0.28
116.39,0.72,0.50,0.72,0.49,-0.49,-0.44,-0.70,0.23,0.23,0.23
117.55,0.69,0.50,0.69,0.50,-0.50,-0.44,-0.70,0.19,0.19,0.19
118.73,0.66,0.52,0.66,0.51,-0.51,-0.45,-0.71,0.15,0.15,0.14
119.92,0.62,0.51,0.63,0.52,-0.51,-0.46,-0.71,0.11,0.11,0.11
121.12,0.59,0.52,0.60,0.53,-0.52,-0.47,-0.72,0.07,0.07,0.07
122.33,0.57,0.54,0.57,0.53,-0.53,-0.48,-0.72,0.04,0.04,0.03
123.55,0.54,0.54,0.54,0.54,-0.54,-0.49,-0.73,-0.00,-0.00,0.01
124.79,0.51,0.54,0.52,0.54,-0.56,-0.50,-0.74,-0.04,-0.04,-0.03
126.03,0.49,0.56,0.50,0.56,-0.57,-0.52,-0.74,-0.08,-0.07,-0.06
127.29,0.48,0.58,0.48,0.58,-0.58,-0.53,-0.75,-0.10,-0.10,-0.10
128.57,0.47,0.62,0.47,0.60,-0.60,-0.55,-0.75,-0.13,-0.13,-0.14
129.85,0.45,0.62,0.45,0.62,-0.62,-0.57,-0.76,-0.16,-0.16,-0.17
131.15,0.43,0.63,0.44,0.63,-0.63,-0.58,-0.77,-0.20,-0.19,-0.20
132.46,0.42,0.64,0.42,0.64,-0.64,-0.60,-0.77,-0.22,-0.22,-0.22
133.79,0.40,0.65,0.40,0.65,-0.65,-0.62,-0.78,-0.25,-0.25,-0.24
135.12,0.38,0.66,0.38,0.65,-0.65,-0.64,-0.79,-0.27,-0.27,-0.28
136.48,0.36,0.66,0.36,0.65,-0.65,-0.66,-0.80,-0.29,-0.30,-0.30
137.84,0.32,0.65,0.33,0.66,-0.65,-0.67,-0.80,-0.32,-0.32,-0.33
139.22,0.29,0.65,0.29,0.65,-0.64,-0.69,-0.81,-0.34,-0.34,-0.36
140.61,0.26,0.65,0.26,0.63,-0.63,-0.71,-0.82,-0.36,-0.37,-0.39
142.02,0.21,0.61,0.22,0.62,-0.62,-0.73,-0.83,-0.41,-0.40,-0.39
143.44,0.19,0.60,0.19,0.60,-0.61,-0.75,-0.84,-0.42,-0.43,-0.41
144.87,0.15,0.59,0.16,0.60,-0.61,-0.77,-0.85,-0.46,-0.46,-0.44
146.32,0.14,0.61,0.14,0.60,-0.62,-0.79,-0.86,-0.48,-0.48,-0.47
147.78,0.13,0.61,0.13,0.62,-0.63,-0.81,-0.87,-0.50,-0.50,-0.48
149.26,0.13,0.64,0.13,0.65,-0.65,-0.83,-0.88,-0.52,-0.52,-0.51
150.75,0.13,0.69,0.13,0.68,-0.67,-0.85,-0.89,-0.54,-0.54,-0.55
152.26,0.13,0.71,0.13,0.71,-0.70,-0.87,-0.91,-0.56,-0.56,-0.58
153.78,0.12,0.72,0.12,0.73,-0.72,-0.89,-0.92,-0.60,-0.59,-0.60
155.32,0.11,0.76,0.11,0.75,-0.74,-0.91,-0.93,-0.62,-0.63,-0.64
156.88,0.08,0.75,0.09,0.75,-0.75,-0.93,-0.95,-0.67,-0.66,-0.67
158.44,0.06,0.76,0.06,0.76,-0.76,-0.95,-0.96,-0.70,-0.70,-0.70
160.03,0.02,0.76,0.03,0.77,-0.76,-0.97,-0.98,-0.74,-0.74,-0.74
161.63,-0.01,0.77,-0.01,0.77,-0.77,-0.99,-1.00,-0.77,-0.77,-0.78
163.24,-0.04,0.77,-0.04,0.77,-0.77,-1.01,-1.02,-0.81,-0.81,-0.81
164.88,-0.08,0.76,-0.07,0.77,-0.77,-1.02,-1.04,-0.85,-0.84,-0.84
166.53,-0.11,0.77,-0.11,0.77,-0.77,-1.04,-1.05,-0.88,-0.88,-0.88
168.19,-0.14,0.78,-0.14,0.78,-0.78,-1.06,-1.08,-0.92,-0.92,-0.92
169.87,-0.17,0.79,-0.16,0.79,-0.80,-1.07,-1.10,-0.96,-0.96,-0.96
171.57,-0.19,0.81,-0.19,0.81,-0.82,-1.09,-1.12,-1.00,-1.00,-0.99
173.29,-0.20,0.84,-0.20,0.83,-0.84,-1.11,-1.14,-1.04,-1.05,-1.04
175.02,-0.22,0.86,-0.21,0.87,-0.88,-1.12,-1.17,-1.10,-1.09,-1.08
176.77,-0.22,0.92,-0.21,0.92,-0.92,-1.14,-1.19,-1.14,-1.14,-1.13
178.54,-0.21,0.97,-0.21,0.97,-0.97,-1.15,-1.22,-1.18,-1.18,-1.18
180.32,-0.20,1.03,-0.20,1.03,-1.02,-1.17,-1.25,-1.22,-1.22,-1.23
182.13,-0.19,1.08,-0.19,1.08,-1.08,-1.18,-1.28,-1.26,-1.27,-1.27
183.95,-0.19,1.14,-0.19,1.13,-1.13,-1.20,-1.31,-1.32,-1.32,-1.32
185.79,-0.19,1.18,-0.19,1.19,-1.18,-1.21,-1.34,-1.37,-1.37,-1.37
187.65,-0.19,1.24,-0.19,1.24,-1.23,-1.22,-1.37,-1.42,-1.42,-1.43
189.52,-0.19,1.29,-0.19,1.29,-1.28,-1.23,-1.40,-1.47,-1.47,-1.47
191.42,-0.19,1.33,-0.19,1.33,-1.33,-1.25,-1.43,-1.52,-1.52,-1.52
193.33,-0.19,1.37,-0.19,1.37,-1.38,-1.26,-1.47,-1.56,-1.56,-1.56
195.27,-0.19,1.41,-0.19,1.42,-1.42,-1.27,-1.50,-1.61,-1.61,-1.60
197.22,-0.19,1.46,-0.19,1.47,-1.46,-1.28,-1.54,-1.65,-1.65,-1.65
199.19,-0.19,1.52,-0.19,1.51,-1.51,-1.29,-1.57,-1.69,-1.69,-1.70
201.18,-0.19,1.56,-0.19,1.56,-1.55,-1.30,-1.61,-1.74,-1.74,-1.74
203.19,-0.19,1.59,-0.19,1.59,-1.59,-1.31,-1.64,-1.78,-1.78,-1.77
205.23,-0.19,1.64,-0.19,1.63,-1.63,-1.32,-1.68,-1.82,-1.82,-1.82
207.28,-0.19,1.66,-0.19,1.67,-1.67,-1.33,-1.71,-1.86,-1.86,-1.84
209.35,-0.19,1.70,-0.19,1.71,-1.71,-1.34,-1.75,-1.89,-1.89,-1.89
211.44,-0.19,1.75,-0.19,1.74,-1.74,-1.35,-1.79,-1.93,-1.93,-1.94
213.56,-0.19,1.78,-0.19,1.78,-1.78,-1.36,-1.82,-1.97,-1.97,-1.97
215.69,-0.19,1.80,-0.19,1.81,-1.81,-1.36,-1.85,-2.00,-2.00,-1.99
217.85,-0.19,1.84,-0.19,1.84,-1.84,-1.37,-1.89,-2.03,-2.03,-2.03
220.03,-0.19,1.88,-0.19,1.87,-1.87,-1.38,-1.92,-2.06,-2.06,-2.06
222.23,-0.19,1.90,-0.19,1.90,-1.90,-1.39,-1.95,-2.08,-2.08,-2.09
224.45,-0.19,1.92,-0.19,1.92,-1.92,-1.39,-1.98,-2.11,-2.11,-2.11
226.70,-0.19,1.94,-0.19,1.94,-1.94,-1.40,-2.01,-2.13,-2.13,-2.12
228.96,-0.19,1.96,-0.19,1.96,-1.96,-1.41,-2.03,-2.15,-2.15,-2.15
231.25,-0.19,1.97,-0.19,1.97,-1.98,-1.41,-2.06,-2.16,-2.16,-2.16
233.57,-0.19,1.99,-0.19,1.99,-1.99,-1.42,-2.08,-2.18,-2.18,-2.17
235.90,-0.19,2.00,-0.19,2.00,-2.00,-1.42,-2.10,-2.19,-2.19,-2.19
238.26,-0.19,2.01,-0.19,2.01,-2.01,-1.43,-2.11,-2.19,-2.19,-2.20
240.64,-0.19,2.01,-0.19,2.01,-2.01,-1.43,-2.13,-2.20,-2.20,-2.20
243.05,-0.19,2.01,-0.19,2.01,-2.01,-1.43,-2.14,-2.20,-2.20,-2.20
245.48,-0.19,2.01,-0.19,2.01,-2.01,-1.44,-2.14,-2.20,-2.20,-2.20
247.93,-0.19,2.01,-0.19,2.01,-2.01,-1.44,-2.15,-2.20,-2.20,-2.20
250.41,-0.19,2.01,-0.19,2.01,-2.01,-1.45,-2.15,-2.19,-2.19,-2.20
252.92,-0.19,2.00,-0.19,2.00,-2.00,-1.45,-2.15,-2.19,-2.19,-2.19
255.45,-0.19,1.98,-0.19,1.99,-1.99,-1.45,-2.14,-2.18,-2.18,-2.17
258.00,-0.19,1.98,-0.19,1.98,-1.98,-1.45,-2.13,-2.17,-2.17,-2.17
260.58,-0.19,1.97,-0.19,1.97,-1.97,-1.46,-2.12,-2.16,-2.16,-2.16
263.19,-0.19,1.96,-0.19,1.96,-1.95,-1.46,-2.11,-2.14,-2.14,-2.14
265.82,-0.19,1.95,-0.19,1.94,-1.94,-1.46,-2.09,-2.13,-2.13,-2.14
268.48,-0.19,1.92,-0.19,1.93,-1.93,-1.46,-2.07,-2.11,-2.11,-2.11
271.16,-0.19,1.91,-0.19,1.91,-1.91,-1.46,-2.04,-2.10,-2.10,-2.09
273.87,-0.19,1.90,-0.19,1.89,-1.90,-1.46,-2.02,-2.09,-2.09,-2.09
276.61,-0.19,1.87,-0.19,1.88,-1.89,-1.47,-1.99,-2.08,-2.08,-2.06
279.38,-0.19,1.87,-0.18,1.87,-1.88,-1.47,-1.96,-2.06,-2.06,-2.05
282.17,-0.18,1.86,-0.18,1.86,-1.86,-1.47,-1.93,-2.04,-2.04,-2.04
284.99,-0.17,1.85,-0.17,1.85,-1.85,-1.47,-1.90,-2.02,-2.02,-2.02
287.84,-0.17,1.84,-0.17,1.84,-1.83,-1.47,-1.87,-2.00,-2.00,-2.01
290.72,-0.18,1.82,-0.17,1.82,-1.81,-1.47,-1.83,-1.99,-1.98,-2.00
293.63,-0.19,1.79,-0.19,1.79,-1.78,-1.47,-1.80,-1.97,-1.97,-1.98
296.57,-0.21,1.75,-0.21,1.76,-1.75,-1.47,-1.76,-1.96,-1.96,-1.96
299.53,-0.24,1.72,-0.24,1.72,-1.71,-1.46,-1.73,-1.95,-1.95,-1.95
302.53,-0.27,1.68,-0.27,1.67,-1.67,-1.46,-1.69,-1.94,-1.94,-1.94
305.55,-0.30,1.62,-0.30,1.63,-1.63,-1.46,-1.65,-1.92,-1.92,-1.92
308.61,-0.33,1.58,-0.33,1.58,-1.58,-1.46,-1.62,-1.91,-1.91,-1.91
311.69,-0.37,1.53,-0.36,1.53,-1.53,-1.46,-1.58,-1.90,-1.90,-1.90
314.81,-0.40,1.48,-0.40,1.49,-1.49,-1.45,-1.54,-1.88,-1.88,-1.87
317.96,-0.43,1.45,-0.43,1.45,-1.44,-1.45,-1.51,-1.87,-1.87,-1.88
321.14,-0.46,1.41,-0.46,1.41,-1.41,-1.45,-1.47,-1.86,-1.87,-1.87
324.35,-0.49,1.38,-0.49,1.37,-1.38,-1.45,-1.44,-1.86,-1.86,-1.87
327.59,-0.52,1.33,-0.51,1.34,-1.35,-1.44,-1.40,-1.87,-1.86,-1.85
330.87,-0.53,1.32,-0.53,1.32,-1.33,-1.44,-1.37,-1.86,-1.86,-1.85
334.18,-0.54,1.32,-0.54,1.31,-1.32,-1.43,-1.33,-1.86,-1.86,-1.85
337.52,-0.54,1.31,-0.53,1.31,-1.31,-1.43,-1.30,-1.85,-1.85,-1.85
340.90,-0.53,1.31,-0.53,1.31,-1.31,-1.43,-1.27,-1.84,-1.84,-1.84
344.30,-0.52,1.32,-0.52,1.32,-1.31,-1.42,-1.24,-1.83,-1.83,-1.84
347.75,-0.52,1.32,-0.52,1.32,-1.31,-1.41,-1.21,-1.83,-1.83,-1.84
351.23,-0.52,1.32,-0.52,1.32,-1.32,-1.41,-1.18,-1.84,-1.84,-1.84
354.74,-0.52,1.32,-0.52,1.33,-1.32,-1.40,-1.15,-1.84,-1.84,-1.84
358.28,-0.52,1.34,-0.52,1.33,-1.33,-1.39,-1.13,-1.85,-1.85,-1.85
361.87,-0.52,1.34,-0.52,1.34,-1.34,-1.39,-1.10,-1.85,-1.85,-1.85
365.49,-0.52,1.34,-0.52,1.34,-1.34,-1.38,-1.07,-1.86,-1.86,-1.85
369.14,-0.52,1.35,-0.52,1.35,-1.35,-1.37,-1.05,-1.87,-1.87,-1.87
372.83,-0.52,1.35,-0.51,1.36,-1.36,-1.36,-1.02,-1.88,-1.88,-1.87
376.56,-0.51,1.37,-0.51,1.37,-1.37,-1.35,-1.00,-1.88,-1.88,-1.88
380.33,-0.50,1.38,-0.50,1.38,-1.38,-1.34,-0.98,-1.88,-1.88,-1.88
384.13,-0.50,1.39,-0.49,1.40,-1.39,-1.33,-0.96,-1.89,-1.89,-1.89
387.97,-0.49,1.41,-0.49,1.41,-1.40,-1.32,-0.94,-1.89,-1.89,-1.90
391.85,-0.50,1.41,-0.50,1.41,-1.40,-1.31,-0.92,-1.90,-1.90,-1.91
395.77,-0.51,1.39,-0.51,1.40,-1.40,-1.29,-0.90,-1.91,-1.91,-1.90
399.73,-0.52,1.40,-0.52,1.39,-1.39,-1.28,-0.88,-1.91,-1.92,-1.91
403.72,-0.55,1.38,-0.54,1.38,-1.38,-1.26,-0.87,-1.93,-1.93,-1.92
407.76,-0.57,1.37,-0.56,1.36,-1.36,-1.25,-0.85,-1.93,-1.93,-1.93
411.84,-0.59,1.34,-0.59,1.34,-1.34,-1.23,-0.83,-1.93,-1.93,-1.92
415.96,-0.62,1.32,-0.62,1.31,-1.31,-1.21,-0.82,-1.92,-1.93,-1.94
420.12,-0.66,1.28,-0.66,1.28,-1.27,-1.19,-0.80,-1.93,-1.93,-1.94
424.32,-0.71,1.23,-0.71,1.23,-1.23,-1.17,-0.79,-1.94,-1.94,-1.94
428.56,-0.76,1.19,-0.76,1.19,-1.19,-1.14,-0.78,-1.95,-1.95,-1.95
432.85,-0.81,1.14,-0.81,1.14,-1.14,-1.12,-0.77,-1.95,-1.95,-1.95
437.18,-0.86,1.09,-0.86,1.09,-1.10,-1.09,-0.75,-1.95,-1.95,-1.95
441.55,-0.90,1.04,-0.90,1.04,-1.05,-1.06,-0.74,-1.95,-1.95,-1.94
445.96,-0.95,0.99,-0.95,1.00,-1.00,-1.03,-0.73,-1.95,-1.95,-1.94
450.42,-0.99,0.96,-0.99,0.95,-0.95,-0.99,-0.72,-1.94,-1.95,-1.95
454.93,-1.04,0.90,-1.04,0.91,-0.91,-0.95,-0.71,-1.95,-1.94,-1.94
459.48,-1.08,0.86,-1.08,0.86,-0.86,-0.91,-0.71,-1.94,-1.94,-1.94
464.07,-1.12,0.81,-1.12,0.81,-0.81,-0.87,-0.70,-1.93,-1.93,-1.93
