frequency,raw,smoothed,error,error_smoothed,equalization,parametric_eq,fixed_band_eq,equalized_raw,equalized_smoothed,target
20.00,-6.73,-6.73,-7.11,-7.12,6.00,5.71,2.44,-0.73,-0.73,0.38
20.20,-6.69,-6.69,-7.10,-7.10,6.00,5.69,2.51,-0.69,-0.69,0.41
20.40,-6.65,-6.64,-7.09,-7.08,6.00,5.67,2.58,-0.65,-0.64,0.44
20.61,-6.59,-6.59,-7.05,-7.06,6.00,5.65,2.66,-0.59,-0.59,0.46
20.81,-6.53,-6.53,-7.02,-7.03,6.00,5.63,2.74,-0.53,-0.53,0.49
21.02,-6.48,-6.48,-7.00,-7.00,6.00,5.61,2.82,-0.48,-0.48,0.52
21.23,-6.44,-6.43,-6.97,-6.97,6.00,5.59,2.90,-0.44,-0.43,0.53
21.44,-6.39,-6.39,-6.93,-6.93,6.00,5.56,2.98,-0.39,-0.39,0.54
21.66,-6.33,-6.33,-6.88,-6.88,6.00,5.54,3.07,-0.33,-0.33,0.55
21.87,-6.28,-6.28,-6.83,-6.83,6.00,5.52,3.16,-0.28,-0.28,0.55
22.09,-6.23,-6.23,-6.79,-6.78,6.00,5.50,3.25,-0.23,-0.23,0.56
22.31,-6.17,-6.17,-6.73,-6.73,6.00,5.48,3.34,-0.17,-0.17,0.56
22.54,-6.12,-6.12,-6.68,-6.67,6.00,5.46,3.44,-0.12,-0.12,0.56
22.76,-6.06,-6.07,-6.62,-6.62,6.00,5.43,3.54,-0.06,-0.07,0.56
22.99,-6.02,-6.02,-6.57,-6.57,6.00,5.41,3.64,-0.02,-0.02,0.55
23.22,-5.98,-5.97,-6.53,-6.52,6.00,5.39,3.74,0.02,0.03,0.55
23.45,-5.92,-5.93,-6.46,-6.47,6.00,5.37,3.85,0.08,0.07,0.55
23.69,-5.88,-5.88,-6.42,-6.42,6.00,5.34,3.96,0.12,0.12,0.54
23.92,-5.83,-5.83,-6.37,-6.37,6.00,5.32,4.07,0.17,0.17,0.54
24.16,-5.78,-5.78,-6.33,-6.33,6.00,5.30,4.18,0.22,0.22,0.55
24.40,-5.74,-5.74,-6.29,-6.29,6.00,5.27,4.29,0.27,0.27,0.55
24.65,-5.70,-5.69,-6.24,-6.24,6.01,5.25,4.41,0.31,0.32,0.54
24.89,-5.64,-5.65,-6.18,-6.19,6.01,5.23,4.53,0.37,0.36,0.54
25.14,-5.60,-5.60,-6.14,-6.14,6.01,5.20,4.64,0.41,0.41,0.54
25.39,-5.56,-5.55,-6.10,-6.09,6.00,5.18,4.76,0.44,0.44,0.54
25.65,-5.51,-5.51,-6.05,-6.04,5.99,5.15,4.88,0.48,0.48,0.54
25.91,-5.47,-5.47,-6.00,-6.00,5.97,5.13,5.00,0.50,0.50,0.53
26.16,-5.42,-5.42,-5.94,-5.95,5.94,5.10,5.12,0.52,0.52,0.52
26.43,-5.39,-5.38,-5.91,-5.90,5.91,5.08,5.24,0.52,0.53,0.52
26.69,-5.34,-5.34,-5.86,-5.87,5.87,5.05,5.36,0.54,0.53,0.52
26.96,-5.30,-5.30,-5.82,-5.83,5.83,5.03,5.48,0.53,0.53,0.52
27.23,-5.27,-5.26,-5.79,-5.78,5.78,5.00,5.59,0.51,0.52,0.52
27.50,-5.22,-5.22,-5.74,-5.74,5.73,4.97,5.70,0.51,0.51,0.52
27.77,-5.18,-5.18,-5.69,-5.69,5.69,4.95,5.81,0.51,0.51,0.51
28.05,-5.13,-5.13,-5.63,-5.63,5.64,4.92,5.91,0.51,0.51,0.51
28.33,-5.09,-5.09,-5.58,-5.59,5.59,4.90,6.00,0.50,0.50,0.49
28.62,-5.05,-5.05,-5.54,-5.54,5.54,4.87,6.10,0.49,0.50,0.49
28.90,-5.01,-5.01,-5.50,-5.50,5.50,4.84,6.18,0.49,0.49,0.49
29.19,-4.96,-4.97,-5.44,-5.45,5.45,4.81,6.26,0.49,0.48,0.48
29.48,-4.93,-4.92,-5.42,-5.41,5.40,4.79,6.32,0.47,0.48,0.49
29.78,-4.88,-4.88,-5.36,-5.36,5.36,4.76,6.38,0.48,0.48,0.48
30.08,-4.84,-4.84,-5.31,-5.31,5.31,4.73,6.43,0.47,0.47,0.47
30.38,-4.79,-4.79,-5.25,-5.26,5.26,4.70,6.47,0.47,0.47,0.46
30.68,-4.76,-4.75,-5.22,-5.21,5.21,4.68,6.50,0.45,0.46,0.46
30.99,-4.70,-4.71,-5.15,-5.16,5.16,4.65,6.52,0.46,0.45,0.45
31.30,-4.67,-4.66,-5.12,-5.11,5.11,4.62,6.52,0.44,0.44,0.45
31.61,-4.62,-4.62,-5.06,-5.05,5.06,4.59,6.52,0.44,0.44,0.44
31.93,-4.56,-4.57,-4.99,-5.00,5.00,4.56,6.50,0.44,0.43,0.43
32.24,-4.53,-4.52,-4.95,-4.95,4.95,4.53,6.48,0.42,0.43,0.42
32.57,-4.48,-4.48,-4.90,-4.90,4.90,4.50,6.44,0.42,0.42,0.42
32.89,-4.44,-4.44,-4.85,-4.85,4.85,4.47,6.40,0.41,0.41,0.41
33.22,-4.39,-4.39,-4.79,-4.79,4.79,4.44,6.34,0.40,0.40,0.40
33.55,-4.34,-4.34,-4.74,-4.74,4.74,4.41,6.28,0.40,0.39,0.40
33.89,-4.30,-4.29,-4.68,-4.68,4.68,4.38,6.20,0.38,0.39,0.39
34.23,-4.25,-4.25,-4.63,-4.63,4.63,4.35,6.13,0.38,0.38,0.38
34.57,-4.20,-4.20,-4.57,-4.57,4.57,4.32,6.04,0.37,0.37,0.37
34.92,-4.16,-4.16,-4.52,-4.52,4.52,4.29,5.95,0.36,0.36,0.36
35.27,-4.11,-4.11,-4.46,-4.46,4.46,4.26,5.85,0.35,0.35,0.35
35.62,-4.06,-4.06,-4.40,-4.40,4.40,4.23,5.75,0.34,0.34,0.34
35.97,-4.02,-4.01,-4.34,-4.34,4.34,4.19,5.65,0.33,0.33,0.33
36.33,-3.97,-3.97,-4.29,-4.29,4.29,4.16,5.54,0.32,0.32,0.32
36.70,-3.92,-3.93,-4.23,-4.23,4.23,4.13,5.43,0.31,0.31,0.31
37.06,-3.89,-3.88,-4.18,-4.18,4.18,4.10,5.32,0.29,0.30,0.29
37.43,-3.83,-3.83,-4.12,-4.12,4.12,4.06,5.21,0.29,0.29,0.29
37.81,-3.78,-3.79,-4.05,-4.07,4.07,4.03,5.10,0.29,0.28,0.28
38.19,-3.75,-3.75,-4.01,-4.01,4.01,4.00,4.98,0.26,0.27,0.26
38.57,-3.72,-3.71,-3.98,-3.96,3.96,3.96,4.87,0.24,0.25,0.26
38.95,-3.66,-3.67,-3.90,-3.91,3.90,3.93,4.76,0.25,0.24,0.24
39.34,-3.63,-3.62,-3.85,-3.85,3.85,3.89,4.65,0.22,0.23,0.23
39.74,-3.58,-3.58,-3.79,-3.80,3.80,3.86,4.54,0.22,0.22,0.21
40.14,-3.55,-3.55,-3.76,-3.75,3.75,3.82,4.44,0.20,0.20,0.21
40.54,-3.52,-3.51,-3.71,-3.71,3.70,3.78,4.33,0.19,0.19,0.19
40.94,-3.48,-3.47,-3.66,-3.66,3.66,3.75,4.23,0.18,0.18,0.18
41.35,-3.43,-3.44,-3.60,-3.61,3.61,3.71,4.13,0.18,0.17,0.17
41.76,-3.40,-3.40,-3.56,-3.57,3.57,3.67,4.03,0.17,0.16,0.16
42.18,-3.39,-3.37,-3.54,-3.52,3.53,3.63,3.94,0.14,0.15,0.16
42.60,-3.34,-3.35,-3.48,-3.49,3.48,3.59,3.84,0.14,0.14,0.14
43.03,-3.31,-3.31,-3.44,-3.44,3.44,3.56,3.75,0.13,0.12,0.13
43.46,-3.29,-3.28,-3.40,-3.39,3.39,3.52,3.67,0.10,0.11,0.11
43.90,-3.25,-3.26,-3.34,-3.35,3.35,3.47,3.58,0.10,0.09,0.09
44.33,-3.24,-3.23,-3.31,-3.30,3.30,3.43,3.50,0.06,0.07,0.07
44.78,-3.20,-3.21,-3.25,-3.26,3.26,3.39,3.42,0.06,0.05,0.05
45.23,-3.19,-3.18,-3.22,-3.21,3.22,3.35,3.34,0.03,0.03,0.03
45.68,-3.15,-3.15,-3.16,-3.17,3.17,3.31,3.27,0.02,0.02,0.01
46.13,-3.13,-3.13,-3.12,-3.13,3.14,3.26,3.20,0.01,0.00,-0.00
46.60,-3.11,-3.11,-3.10,-3.09,3.10,3.22,3.13,-0.01,-0.01,-0.01
47.06,-3.10,-3.09,-3.07,-3.06,3.06,3.17,3.06,-0.04,-0.04,-0.03
47.53,-3.06,-3.07,-3.01,-3.02,3.01,3.12,3.00,-0.04,-0.05,-0.05
48.01,-3.06,-3.05,-3.00,-2.98,2.97,3.08,2.94,-0.09,-0.08,-0.06
48.49,-3.02,-3.03,-2.92,-2.93,2.93,3.03,2.88,-0.09,-0.10,-0.09
48.97,-3.02,-3.01,-2.89,-2.88,2.88,2.98,2.82,-0.14,-0.13,-0.13
49.46,-2.97,-2.98,-2.81,-2.82,2.83,2.93,2.77,-0.14,-0.15,-0.16
49.96,-2.96,-2.95,-2.77,-2.77,2.78,2.88,2.72,-0.18,-0.18,-0.19
50.46,-2.92,-2.92,-2.72,-2.72,2.72,2.82,2.67,-0.20,-0.20,-0.20
50.96,-2.89,-2.90,-2.67,-2.67,2.67,2.77,2.62,-0.22,-0.23,-0.22
51.47,-2.88,-2.87,-2.62,-2.62,2.62,2.72,2.57,-0.26,-0.25,-0.26
51.99,-2.83,-2.84,-2.55,-2.57,2.56,2.66,2.52,-0.27,-0.28,-0.28
52.51,-2.82,-2.81,-2.53,-2.51,2.51,2.61,2.48,-0.31,-0.30,-0.29
53.03,-2.78,-2.78,-2.46,-2.46,2.46,2.55,2.44,-0.32,-0.32,-0.32
53.56,-2.74,-2.75,-2.40,-2.40,2.40,2.49,2.40,-0.34,-0.35,-0.34
54.10,-2.71,-2.71,-2.34,-2.34,2.34,2.43,2.36,-0.37,-0.37,-0.37
54.64,-2.68,-2.68,-2.28,-2.28,2.28,2.37,2.32,-0.40,-0.40,-0.39
55.18,-2.64,-2.64,-2.22,-2.22,2.22,2.31,2.28,-0.42,-0.42,-0.42
55.74,-2.60,-2.60,-2.15,-2.15,2.16,2.25,2.24,-0.44,-0.44,-0.45
56.29,-2.56,-2.56,-2.09,-2.09,2.10,2.19,2.20,-0.46,-0.47,-0.47
56.86,-2.53,-2.53,-2.04,-2.03,2.04,2.12,2.17,-0.49,-0.49,-0.49
57.42,-2.50,-2.50,-1.98,-1.98,1.98,2.06,2.13,-0.52,-0.52,-0.52
58.00,-2.46,-2.47,-1.92,-1.92,1.92,2.00,2.09,-0.54,-0.54,-0.54
58.58,-2.44,-2.43,-1.88,-1.87,1.87,1.94,2.06,-0.57,-0.56,-0.56
59.16,-2.40,-2.40,-1.82,-1.81,1.81,1.88,2.02,-0.59,-0.59,-0.58
59.76,-2.36,-2.37,-1.76,-1.76,1.76,1.81,1.98,-0.60,-0.61,-0.60
60.35,-2.34,-2.34,-1.70,-1.70,1.70,1.76,1.94,-0.64,-0.63,-0.64
60.96,-2.32,-2.31,-1.66,-1.65,1.65,1.70,1.91,-0.67,-0.66,-0.66
61.57,-2.28,-2.29,-1.58,-1.59,1.59,1.64,1.87,-0.69,-0.70,-0.70
62.18,-2.27,-2.27,-1.53,-1.54,1.54,1.58,1.83,-0.73,-0.73,-0.73
62.80,-2.26,-2.25,-1.50,-1.48,1.49,1.53,1.79,-0.77,-0.76,-0.76
63.43,-2.22,-2.24,-1.42,-1.44,1.44,1.48,1.75,-0.78,-0.79,-0.79
64.07,-2.22,-2.22,-1.40,-1.40,1.40,1.43,1.71,-0.82,-0.82,-0.82
64.71,-2.22,-2.20,-1.37,-1.35,1.36,1.39,1.67,-0.86,-0.85,-0.85
65.35,-2.18,-2.19,-1.30,-1.32,1.32,1.34,1.62,-0.86,-0.87,-0.87
66.01,-2.18,-2.18,-1.28,-1.28,1.28,1.30,1.58,-0.90,-0.90,-0.90
66.67,-2.18,-2.18,-1.25,-1.24,1.25,1.26,1.54,-0.93,-0.93,-0.93
67.33,-2.18,-2.18,-1.22,-1.22,1.22,1.23,1.49,-0.96,-0.96,-0.96
68.01,-2.18,-2.18,-1.19,-1.19,1.19,1.19,1.44,-0.99,-0.99,-0.99
68.69,-2.18,-2.18,-1.16,-1.16,1.15,1.16,1.40,-1.02,-1.02,-1.02
69.37,-2.18,-2.18,-1.12,-1.12,1.12,1.13,1.35,-1.05,-1.05,-1.05
70.07,-2.18,-2.18,-1.09,-1.09,1.09,1.10,1.30,-1.09,-1.09,-1.09
70.77,-2.18,-2.18,-1.07,-1.06,1.06,1.07,1.26,-1.12,-1.12,-1.11
71.48,-2.18,-2.18,-1.03,-1.03,1.03,1.05,1.21,-1.15,-1.15,-1.15
72.19,-2.18,-2.18,-1.00,-1.00,1.00,1.02,1.16,-1.18,-1.18,-1.18
72.91,-2.18,-2.18,-0.96,-0.96,0.96,0.99,1.11,-1.22,-1.22,-1.22
73.64,-2.18,-2.18,-0.93,-0.93,0.93,0.97,1.06,-1.25,-1.25,-1.25
74.38,-2.18,-2.18,-0.90,-0.89,0.90,0.94,1.02,-1.28,-1.28,-1.28
75.12,-2.18,-2.18,-0.86,-0.86,0.86,0.92,0.97,-1.32,-1.32,-1.32
75.87,-2.18,-2.18,-0.83,-0.83,0.83,0.89,0.92,-1.35,-1.35,-1.35
76.63,-2.18,-2.18,-0.80,-0.80,0.80,0.86,0.87,-1.38,-1.38,-1.38
77.40,-2.18,-2.18,-0.77,-0.77,0.76,0.84,0.82,-1.42,-1.42,-1.41
78.17,-2.18,-2.18,-0.73,-0.73,0.73,0.81,0.77,-1.45,-1.45,-1.45
78.95,-2.18,-2.18,-0.70,-0.70,0.70,0.78,0.72,-1.47,-1.47,-1.47
79.74,-2.18,-2.18,-0.67,-0.67,0.68,0.75,0.67,-1.50,-1.50,-1.51
80.54,-2.18,-2.19,-0.64,-0.64,0.65,0.72,0.63,-1.53,-1.54,-1.54
81.35,-2.20,-2.20,-0.62,-0.62,0.62,0.69,0.58,-1.58,-1.58,-1.58
82.16,-2.21,-2.21,-0.60,-0.60,0.59,0.65,0.53,-1.62,-1.62,-1.61
82.98,-2.22,-2.22,-0.58,-0.57,0.56,0.62,0.48,-1.66,-1.66,-1.64
83.81,-2.22,-2.22,-0.53,-0.54,0.53,0.58,0.43,-1.69,-1.69,-1.69
84.65,-2.22,-2.22,-0.50,-0.50,0.50,0.55,0.39,-1.72,-1.72,-1.72
85.50,-2.22,-2.22,-0.47,-0.46,0.46,0.51,0.34,-1.76,-1.76,-1.75
86.35,-2.22,-2.22,-0.43,-0.43,0.43,0.47,0.29,-1.79,-1.79,-1.79
87.22,-2.22,-2.22,-0.39,-0.39,0.40,0.43,0.24,-1.82,-1.82,-1.83
88.09,-2.22,-2.22,-0.35,-0.35,0.36,0.39,0.20,-1.86,-1.86,-1.87
88.97,-2.22,-2.23,-0.32,-0.33,0.33,0.35,0.15,-1.89,-1.90,-1.90
89.86,-2.26,-2.25,-0.31,-0.30,0.29,0.31,0.10,-1.96,-1.95,-1.94
90.76,-2.27,-2.26,-0.27,-0.27,0.26,0.27,0.05,-2.01,-2.00,-2.00
91.66,-2.27,-2.27,-0.24,-0.24,0.23,0.23,0.01,-2.04,-2.05,-2.03
92.58,-2.27,-2.27,-0.19,-0.19,0.19,0.18,-0.04,-2.08,-2.08,-2.08
93.51,-2.27,-2.27,-0.15,-0.15,0.16,0.14,-0.09,-2.11,-2.11,-2.12
94.44,-2.27,-2.27,-0.11,-0.11,0.12,0.10,-0.13,-2.15,-2.15,-2.16
95.39,-2.27,-2.28,-0.06,-0.08,0.08,0.05,-0.18,-2.19,-2.20,-2.20
96.34,-2.31,-2.30,-0.05,-0.04,0.04,0.01,-0.23,-2.27,-2.26,-2.26
97.30,-2.32,-2.31,-0.01,-0.01,0.00,-0.04,-0.27,-2.32,-2.31,-2.30
98.28,-2.32,-2.32,0.03,0.03,-0.04,-0.08,-0.32,-2.36,-2.36,-2.35
99.26,-2.32,-2.32,0.08,0.08,-0.08,-0.13,-0.37,-2.40,-2.40,-2.40
100.25,-2.32,-2.32,0.12,0.12,-0.11,-0.17,-0.41,-2.43,-2.43,-2.44
101.25,-2.32,-2.32,0.17,0.16,-0.15,-0.22,-0.46,-2.47,-2.48,-2.49
102.27,-2.33,-2.34,0.20,0.20,-0.20,-0.26,-0.50,-2.53,-2.53,-2.53
103.29,-2.36,-2.35,0.23,0.23,-0.24,-0.31,-0.55,-2.60,-2.59,-2.59
104.32,-2.36,-2.36,0.27,0.27,-0.28,-0.35,-0.60,-2.64,-2.64,-2.63
105.37,-2.36,-2.36,0.31,0.31,-0.32,-0.40,-0.64,-2.68,-2.68,-2.67
106.42,-2.36,-2.36,0.36,0.36,-0.36,-0.44,-0.68,-2.72,-2.71,-2.72
107.48,-2.36,-2.36,0.41,0.41,-0.40,-0.49,-0.73,-2.75,-2.75,-2.76
108.56,-2.36,-2.37,0.46,0.45,-0.44,-0.53,-0.77,-2.80,-2.81,-2.82
109.64,-2.39,-2.39,0.48,0.48,-0.48,-0.57,-0.82,-2.87,-2.86,-2.87
110.74,-2.41,-2.40,0.50,0.51,-0.52,-0.62,-0.86,-2.93,-2.92,-2.91
111.85,-2.41,-2.41,0.55,0.55,-0.57,-0.66,-0.90,-2.98,-2.98,-2.96
112.97,-2.41,-2.41,0.62,0.61,-0.61,-0.70,-0.94,-3.02,-3.03,-3.02
114.10,-2.41,-2.41,0.66,0.66,-0.66,-0.75,-0.98,-3.07,-3.07,-3.07
115.24,-2.41,-2.41,0.72,0.72,-0.71,-0.79,-1.02,-3.12,-3.12,-3.12
116.39,-2.41,-2.41,0.77,0.77,-0.77,-0.83,-1.06,-3.17,-3.17,-3.18
117.55,-2.41,-2.41,0.82,0.82,-0.82,-0.87,-1.09,-3.23,-3.23,-3.23
118.73,-2.41,-2.41,0.88,0.87,-0.87,-0.92,-1.13,-3.28,-3.28,-3.29
119.92,-2.41,-2.41,0.92,0.93,-0.92,-0.96,-1.16,-3.33,-3.33,-3.33
121.12,-2.41,-2.41,0.97,0.97,-0.97,-1.00,-1.19,-3.38,-3.38,-3.38
122.33,-2.41,-2.41,1.03,1.02,-1.02,-1.04,-1.22,-3.43,-3.43,-3.44
123.55,-2.41,-2.41,1.07,1.07,-1.07,-1.09,-1.26,-3.48,-3.48,-3.48
124.79,-2.41,-2.41,1.12,1.12,-1.12,-1.13,-1.28,-3.53,-3.53,-3.53
126.03,-2.41,-2.41,1.17,1.17,-1.17,-1.17,-1.31,-3.58,-3.58,-3.58
127.29,-2.41,-2.41,1.22,1.22,-1.22,-1.21,-1.34,-3.63,-3.63,-3.63
128.57,-2.41,-2.41,1.28,1.28,-1.27,-1.26,-1.36,-3.68,-3.68,-3.69
129.85,-2.41,-2.41,1.33,1.33,-1.32,-1.30,-1.39,-3.73,-3.73,-3.74
131.15,-2.41,-2.41,1.38,1.37,-1.37,-1.35,-1.41,-3.78,-3.78,-3.78
132.46,-2.41,-2.41,1.42,1.42,-1.42,-1.39,-1.43,-3.83,-3.83,-3.83
133.79,-2.41,-2.41,1.46,1.47,-1.47,-1.43,-1.45,-3.88,-3.88,-3.87
135.12,-2.41,-2.41,1.52,1.51,-1.51,-1.48,-1.47,-3.92,-3.92,-3.92
136.48,-2.41,-2.41,1.55,1.55,-1.56,-1.53,-1.49,-3.97,-3.97,-3.96
137.84,-2.41,-2.41,1.59,1.60,-1.60,-1.57,-1.51,-4.01,-4.01,-4.00
139.22,-2.41,-2.41,1.65,1.64,-1.64,-1.62,-1.53,-4.05,-4.05,-4.06
140.61,-2.41,-2.41,1.69,1.68,-1.68,-1.67,-1.55,-4.09,-4.09,-4.10
142.02,-2.41,-2.41,1.71,1.72,-1.72,-1.71,-1.57,-4.13,-4.13,-4.12
143.44,-2.41,-2.41,1.75,1.76,-1.76,-1.76,-1.59,-4.17,-4.17,-4.16
144.87,-2.41,-2.41,1.79,1.79,-1.79,-1.81,-1.61,-4.20,-4.20,-4.20
146.32,-2.41,-2.41,1.83,1.83,-1.83,-1.85,-1.62,-4.24,-4.24,-4.24
147.78,-2.41,-2.41,1.86,1.86,-1.86,-1.90,-1.64,-4.27,-4.27,-4.27
149.26,-2.43,-2.42,1.88,1.89,-1.89,-1.95,-1.66,-4.32,-4.31,-4.31
150.75,-2.43,-2.43,1.93,1.92,-1.92,-1.99,-1.68,-4.35,-4.35,-4.36
152.26,-2.44,-2.44,1.95,1.95,-1.95,-2.04,-1.70,-4.39,-4.40,-4.39
153.78,-2.46,-2.45,1.97,1.98,-1.98,-2.09,-1.73,-4.44,-4.44,-4.43
155.32,-2.46,-2.46,2.01,2.01,-2.02,-2.13,-1.75,-4.48,-4.48,-4.47
156.88,-2.46,-2.46,2.05,2.05,-2.05,-2.18,-1.77,-4.51,-4.52,-4.51
158.44,-2.46,-2.46,2.09,2.09,-2.09,-2.22,-1.80,-4.55,-4.55,-4.55
160.03,-2.46,-2.46,2.13,2.13,-2.13,-2.26,-1.83,-4.59,-4.59,-4.59
161.63,-2.46,-2.46,2.18,2.17,-2.17,-2.30,-1.85,-4.63,-4.63,-4.63
163.24,-2.46,-2.46,2.22,2.21,-2.21,-2.34,-1.88,-4.67,-4.67,-4.68
164.88,-2.46,-2.46,2.25,2.25,-2.25,-2.38,-1.91,-4.71,-4.71,-4.71
166.53,-2.46,-2.46,2.29,2.29,-2.29,-2.42,-1.95,-4.75,-4.75,-4.74
168.19,-2.46,-2.46,2.32,2.32,-2.32,-2.46,-1.98,-4.78,-4.78,-4.78
169.87,-2.46,-2.46,2.36,2.36,-2.36,-2.50,-2.02,-4.82,-4.82,-4.82
171.57,-2.46,-2.46,2.40,2.40,-2.40,-2.53,-2.05,-4.86,-4.86,-4.86
173.29,-2.46,-2.46,2.43,2.43,-2.44,-2.57,-2.09,-4.90,-4.90,-4.89
175.02,-2.46,-2.46,2.47,2.47,-2.47,-2.60,-2.13,-4.93,-4.93,-4.93
176.77,-2.46,-2.46,2.51,2.51,-2.51,-2.63,-2.17,-4.97,-4.97,-4.97
178.54,-2.46,-2.46,2.56,2.55,-2.55,-2.66,-2.22,-5.01,-5.01,-5.02
180.32,-2.46,-2.46,2.59,2.59,-2.59,-2.69,-2.26,-5.05,-5.05,-5.05
182.13,-2.46,-2.46,2.62,2.63,-2.63,-2.71,-2.31,-5.09,-5.09,-5.08
183.95,-2.46,-2.46,2.67,2.66,-2.66,-2.74,-2.36,-5.12,-5.12,-5.13
185.79,-2.46,-2.46,2.70,2.70,-2.70,-2.77,-2.41,-5.16,-5.16,-5.16
187.65,-2.46,-2.46,2.74,2.74,-2.73,-2.79,-2.46,-5.19,-5.19,-5.20
189.52,-2.46,-2.46,2.77,2.76,-2.77,-2.81,-2.52,-5.23,-5.23,-5.23
191.42,-2.46,-2.46,2.80,2.80,-2.81,-2.83,-2.57,-5.27,-5.26,-5.26
193.33,-2.46,-2.45,2.83,2.84,-2.84,-2.85,-2.63,-5.30,-5.29,-5.29
195.27,-2.43,-2.44,2.88,2.87,-2.88,-2.87,-2.69,-5.31,-5.32,-5.31
197.22,-2.43,-2.43,2.91,2.92,-2.91,-2.89,-2.75,-5.34,-5.34,-5.34
199.19,-2.43,-2.42,2.95,2.95,-2.94,-2.91,-2.81,-5.37,-5.36,-5.38
201.18,-2.41,-2.42,2.99,2.98,-2.97,-2.92,-2.87,-5.38,-5.39,-5.40
203.19,-2.41,-2.41,3.00,3.01,-3.00,-2.94,-2.93,-5.41,-5.41,-5.41
205.23,-2.41,-2.41,3.03,3.02,-3.02,-2.95,-2.99,-5.43,-5.43,-5.44
207.28,-2.41,-2.41,3.03,3.04,-3.04,-2.96,-3.05,-5.45,-5.45,-5.44
209.35,-2.41,-2.41,3.06,3.06,-3.06,-2.97,-3.12,-5.47,-5.47,-5.47
211.44,-2.41,-2.41,3.08,3.07,-3.07,-2.98,-3.18,-5.48,-5.48,-5.49
213.56,-2.41,-2.41,3.09,3.09,-3.09,-2.99,-3.24,-5.49,-5.49,-5.49
215.69,-2.41,-2.41,3.09,3.09,-3.09,-3.00,-3.30,-5.50,-5.50,-5.50
217.85,-2.41,-2.41,3.10,3.10,-3.10,-3.01,-3.36,-5.51,-5.51,-5.51
220.03,-2.41,-2.41,3.11,3.11,-3.11,-3.01,-3.41,-5.52,-5.52,-5.52
222.23,-2.41,-2.41,3.13,3.12,-3.11,-3.02,-3.47,-5.52,-5.52,-5.53
224.45,-2.41,-2.41,3.12,3.12,-3.12,-3.02,-3.52,-5.53,-5.53,-5.53
226.70,-2.41,-2.41,3.12,3.12,-3.13,-3.03,-3.57,-5.54,-5.54,-5.53
228.96,-2.41,-2.40,3.12,3.12,-3.14,-3.03,-3.62,-5.54,-5.54,-5.53
231.25,-2.39,-2.39,3.13,3.14,-3.14,-3.03,-3.66,-5.53,-5.53,-5.52
233.57,-2.36,-2.37,3.16,3.15,-3.14,-3.03,-3.70,-5.50,-5.51,-5.52
235.90,-2.36,-2.36,3.16,3.16,-3.14,-3.03,-3.73,-5.50,-5.50,-5.52
238.26,-2.36,-2.36,3.16,3.16,-3.15,-3.04,-3.77,-5.51,-5.50,-5.52
240.64,-2.36,-2.36,3.15,3.15,-3.15,-3.03,-3.79,-5.51,-5.51,-5.51
243.05,-2.36,-2.36,3.14,3.13,-3.15,-3.03,-3.81,-5.51,-5.51,-5.50
245.48,-2.36,-2.35,3.12,3.13,-3.14,-3.03,-3.83,-5.50,-5.49,-5.48
247.93,-2.35,-2.34,3.12,3.13,-3.13,-3.03,-3.84,-5.48,-5.48,-5.47
250.41,-2.32,-2.33,3.15,3.13,-3.12,-3.03,-3.84,-5.44,-5.45,-5.47
252.92,-2.32,-2.32,3.13,3.13,-3.12,-3.03,-3.84,-5.44,-5.44,-5.45
255.45,-2.32,-2.32,3.11,3.11,-3.11,-3.02,-3.83,-5.43,-5.43,-5.42
258.00,-2.32,-2.32,3.09,3.09,-3.10,-3.02,-3.82,-5.42,-5.42,-5.41
260.58,-2.32,-2.31,3.08,3.09,-3.09,-3.02,-3.81,-5.41,-5.40,-5.40
263.19,-2.28,-2.29,3.10,3.09,-3.09,-3.01,-3.79,-5.37,-5.38,-5.38
265.82,-2.27,-2.28,3.09,3.08,-3.08,-3.01,-3.76,-5.35,-5.36,-5.36
268.48,-2.27,-2.26,3.07,3.07,-3.07,-3.00,-3.73,-5.34,-5.33,-5.34
271.16,-2.27,-2.25,3.04,3.07,-3.07,-3.00,-3.69,-5.34,-5.32,-5.31
273.87,-2.22,-2.24,3.08,3.06,-3.06,-2.99,-3.66,-5.28,-5.30,-5.30
276.61,-2.22,-2.22,3.06,3.06,-3.06,-2.99,-3.61,-5.28,-5.28,-5.27
279.38,-2.22,-2.20,3.04,3.06,-3.05,-2.98,-3.57,-5.27,-5.25,-5.26
282.17,-2.18,-2.20,3.07,3.04,-3.05,-2.98,-3.52,-5.23,-5.25,-5.25
284.99,-2.18,-2.18,3.04,3.04,-3.04,-2.97,-3.47,-5.22,-5.22,-5.22
287.84,-2.18,-2.16,3.03,3.04,-3.04,-2.96,-3.42,-5.22,-5.20,-5.20
290.72,-2.13,-2.15,3.05,3.03,-3.04,-2.96,-3.37,-5.17,-5.19,-5.18
293.63,-2.13,-2.13,3.03,3.03,-3.03,-2.95,-3.31,-5.16,-5.16,-5.16
296.57,-2.13,-2.11,3.01,3.03,-3.03,-2.95,-3.26,-5.15,-5.14,-5.14
299.53,-2.09,-2.10,3.03,3.02,-3.02,-2.94,-3.20,-5.11,-5.12,-5.12
302.53,-2.08,-2.08,3.03,3.02,-3.01,-2.94,-3.15,-5.09,-5.10,-5.11
305.55,-2.08,-2.07,2.99,3.01,-3.01,-2.94,-3.09,-5.09,-5.07,-5.07
308.61,-2.04,-2.05,3.01,3.00,-3.00,-2.93,-3.04,-5.04,-5.05,-5.05
311.69,-2.04,-2.03,2.99,2.99,-3.00,-2.93,-2.98,-5.04,-5.02,-5.03
314.81,-2.00,-2.01,2.99,2.99,-2.99,-2.93,-2.93,-4.99,-5.00,-4.99
317.96,-1.99,-1.99,2.98,2.99,-2.99,-2.92,-2.87,-4.98,-4.98,-4.97
321.14,-1.98,-1.97,2.98,2.98,-2.99,-2.92,-2.82,-4.97,-4.96,-4.96
324.35,-1.94,-1.95,3.00,2.99,-2.99,-2.92,-2.77,-4.92,-4.94,-4.94
327.59,-1.94,-1.93,2.97,2.98,-2.99,-2.92,-2.72,-4.92,-4.92,-4.91
330.87,-1.90,-1.91,3.00,2.99,-2.99,-2.92,-2.67,-4.89,-4.89,-4.90
334.18,-1.90,-1.89,2.98,2.99,-2.99,-2.92,-2.63,-4.89,-4.88,-4.88
337.52,-1.85,-1.86,3.01,3.00,-2.99,-2.93,-2.58,-4.84,-4.85,-4.86
340.90,-1.85,-1.84,2.98,2.99,-3.00,-2.93,-2.54,-4.84,-4.84,-4.83
344.30,-1.82,-1.82,3.00,3.00,-3.00,-2.93,-2.50,-4.82,-4.82,-4.82
347.75,-1.80,-1.80,3.00,3.00,-3.00,-2.94,-2.46,-4.80,-4.81,-4.80
351.23,-1.77,-1.77,3.01,3.01,-3.01,-2.95,-2.42,-4.78,-4.78,-4.78
354.74,-1.76,-1.75,3.00,3.01,-3.01,-2.96,-2.39,-4.77,-4.76,-4.76
358.28,-1.71,-1.72,3.04,3.02,-3.02,-2.97,-2.35,-4.73,-4.74,-4.74
361.87,-1.71,-1.70,3.02,3.03,-3.02,-2.98,-2.32,-4.73,-4.72,-4.73
365.49,-1.68,-1.68,3.03,3.03,-3.03,-2.99,-2.29,-4.71,-4.71,-4.71
369.14,-1.67,-1.67,3.03,3.03,-3.03,-3.00,-2.26,-4.70,-4.70,-4.70
372.83,-1.66,-1.65,3.02,3.03,-3.04,-3.01,-2.23,-4.70,-4.69,-4.68
376.56,-1.62,-1.63,3.06,3.04,-3.04,-3.03,-2.21,-4.66,-4.67,-4.67
380.33,-1.62,-1.60,3.03,3.05,-3.05,-3.04,-2.19,-4.67,-4.65,-4.65
384.13,-1.57,-1.59,3.07,3.05,-3.05,-3.06,-2.16,-4.62,-4.64,-4.64
387.97,-1.57,-1.57,3.06,3.06,-3.06,-3.07,-2.15,-4.62,-4.62,-4.63
391.85,-1.57,-1.55,3.05,3.07,-3.06,-3.08,-2.13,-4.63,-4.61,-4.62
395.77,-1.53,-1.54,3.07,3.06,-3.06,-3.09,-2.11,-4.59,-4.60,-4.60
399.73,-1.53,-1.53,3.06,3.06,-3.06,-3.10,-2.10,-4.59,-4.59,-4.59
403.72,-1.53,-1.53,3.06,3.06,-3.06,-3.11,-2.08,-4.59,-4.59,-4.58
407.76,-1.53,-1.52,3.05,3.05,-3.06,-3.11,-2.07,-4.59,-4.58,-4.58
411.84,-1.51,-1.51,3.05,3.05,-3.06,-3.11,-2.06,-4.57,-4.57,-4.56
415.96,-1.48,-1.49,3.07,3.06,-3.06,-3.10,-2.05,-4.54,-4.55,-4.55
420.12,-1.48,-1.48,3.06,3.06,-3.05,-3.09,-2.04,-4.53,-4.53,-4.54
424.32,-1.48,-1.47,3.05,3.06,-3.05,-3.07,-2.03,-4.52,-4.52,-4.53
428.56,-1.48,-1.48,3.04,3.04,-3.03,-3.05,-2.03,-4.51,-4.51,-4.52
432.85,-1.48,-1.49,3.03,3.02,-3.02,-3.02,-2.02,-4.50,-4.51,-4.51
437.18,-1.52,-1.51,2.98,2.99,-3.00,-2.98,-2.02,-4.52,-4.51,-4.50
441.55,-1.53,-1.52,2.96,2.96,-2.98,-2.94,-2.01,-4.50,-4.50,-4.49
445.96,-1.53,-1.54,2.95,2.94,-2.95,-2.89,-2.01,-4.47,-4.49,-4.48
450.42,-1.56,-1.55,2.91,2.91,-2.91,-2.84,-2.01,-4.47,-4.46,-4.47
