frequency,raw,error,smoothed,error_smoothed,equalization,parametric_eq,fixed_band_eq,equalized_raw,equalized_smoothed,target
20.00,4.41,-2.03,4.41,-2.03,2.03,1.31,0.24,6.44,6.44,6.44
20.20,4.44,-2.00,4.44,-2.00,2.00,1.30,0.25,6.44,6.43,6.44
20.40,4.46,-1.98,4.46,-1.97,1.96,1.29,0.26,6.42,6.43,6.44
20.61,4.50,-1.94,4.50,-1.94,1.93,1.28,0.27,6.43,6.43,6.44
20.81,4.54,-1.89,4.54,-1.90,1.89,1.27,0.28,6.43,6.43,6.43
21.02,4.58,-1.85,4.58,-1.85,1.86,1.26,0.29,6.44,6.44,6.43
21.23,4.63,-1.80,4.63,-1.81,1.82,1.24,0.30,6.45,6.44,6.43
21.44,4.66,-1.77,4.66,-1.77,1.78,1.23,0.31,6.44,6.44,6.43
21.66,4.70,-1.73,4.69,-1.74,1.74,1.22,0.32,6.44,6.44,6.43
21.87,4.72,-1.71,4.72,-1.71,1.70,1.21,0.33,6.42,6.43,6.43
22.09,4.75,-1.68,4.76,-1.67,1.66,1.19,0.34,6.41,6.42,6.43
22.31,4.80,-1.63,4.80,-1.63,1.62,1.18,0.36,6.42,6.42,6.43
22.54,4.85,-1.58,4.84,-1.58,1.58,1.16,0.37,6.43,6.42,6.43
22.76,4.89,-1.54,4.89,-1.53,1.53,1.15,0.38,6.42,6.42,6.43
22.99,4.94,-1.48,4.94,-1.48,1.48,1.14,0.39,6.42,6.42,6.42
23.22,5.00,-1.42,5.00,-1.42,1.42,1.12,0.41,6.42,6.42,6.42
23.45,5.06,-1.36,5.06,-1.37,1.37,1.11,0.42,6.43,6.43,6.42
23.69,5.11,-1.31,5.11,-1.31,1.32,1.09,0.43,6.43,6.43,6.42
23.92,5.15,-1.27,5.15,-1.27,1.28,1.07,0.45,6.43,6.43,6.42
24.16,5.19,-1.23,5.19,-1.23,1.23,1.06,0.46,6.42,6.42,6.42
24.40,5.22,-1.20,5.22,-1.19,1.20,1.04,0.47,6.42,6.42,6.42
24.65,5.26,-1.16,5.25,-1.16,1.16,1.03,0.49,6.42,6.42,6.41
24.89,5.28,-1.13,5.28,-1.13,1.13,1.01,0.50,6.41,6.41,6.41
25.14,5.30,-1.11,5.31,-1.11,1.11,0.99,0.52,6.41,6.41,6.41
25.39,5.34,-1.07,5.33,-1.08,1.08,0.97,0.53,6.42,6.41,6.41
25.65,5.35,-1.06,5.36,-1.05,1.05,0.95,0.54,6.40,6.40,6.41
25.91,5.39,-1.02,5.38,-1.02,1.01,0.94,0.56,6.40,6.40,6.41
26.16,5.41,-0.99,5.41,-0.99,0.98,0.92,0.57,6.39,6.39,6.40
26.43,5.45,-0.95,5.45,-0.95,0.94,0.90,0.58,6.39,6.39,6.40
26.69,5.49,-0.91,5.49,-0.91,0.91,0.88,0.60,6.40,6.40,6.40
26.96,5.54,-0.86,5.54,-0.86,0.87,0.86,0.61,6.41,6.41,6.40
27.23,5.57,-0.83,5.57,-0.82,0.84,0.84,0.62,6.41,6.41,6.40
27.50,5.61,-0.78,5.60,-0.79,0.81,0.82,0.63,6.42,6.41,6.39
27.77,5.62,-0.77,5.63,-0.76,0.78,0.79,0.64,6.40,6.40,6.39
28.05,5.65,-0.74,5.64,-0.75,0.75,0.77,0.65,6.40,6.39,6.39
28.33,5.65,-0.74,5.65,-0.74,0.72,0.75,0.66,6.37,6.37,6.39
28.62,5.66,-0.72,5.68,-0.71,0.69,0.73,0.67,6.35,6.36,6.38
28.90,5.71,-0.67,5.71,-0.67,0.66,0.70,0.67,6.37,6.37,6.38
29.19,5.76,-0.62,5.75,-0.63,0.63,0.68,0.68,6.39,6.37,6.38
29.48,5.79,-0.58,5.79,-0.58,0.59,0.65,0.68,6.38,6.38,6.37
29.78,5.82,-0.55,5.83,-0.54,0.55,0.63,0.68,6.37,6.38,6.37
30.08,5.87,-0.50,5.86,-0.51,0.52,0.60,0.68,6.38,6.37,6.37
30.38,5.88,-0.48,5.89,-0.48,0.48,0.58,0.68,6.36,6.37,6.36
30.68,5.91,-0.45,5.91,-0.45,0.45,0.55,0.67,6.36,6.36,6.36
30.99,5.95,-0.41,5.94,-0.42,0.42,0.52,0.67,6.37,6.36,6.36
31.30,5.95,-0.40,5.97,-0.39,0.39,0.50,0.66,6.34,6.36,6.35
31.61,6.00,-0.35,5.99,-0.36,0.37,0.47,0.65,6.37,6.35,6.35
31.93,6.00,-0.35,6.00,-0.34,0.34,0.44,0.64,6.34,6.34,6.35
32.24,6.02,-0.32,6.03,-0.32,0.31,0.41,0.63,6.33,6.34,6.34
32.57,6.04,-0.30,6.04,-0.29,0.28,0.38,0.61,6.32,6.33,6.34
32.89,6.08,-0.25,6.07,-0.26,0.26,0.35,0.59,6.34,6.33,6.33
33.22,6.09,-0.24,6.10,-0.23,0.23,0.32,0.58,6.32,6.33,6.33
33.55,6.13,-0.19,6.13,-0.20,0.20,0.29,0.56,6.33,6.33,6.32
33.89,6.15,-0.17,6.15,-0.17,0.18,0.26,0.54,6.33,6.32,6.32
34.23,6.17,-0.14,6.17,-0.14,0.15,0.23,0.51,6.32,6.32,6.31
34.57,6.17,-0.14,6.18,-0.13,0.12,0.20,0.49,6.29,6.30,6.31
34.92,6.21,-0.09,6.20,-0.10,0.10,0.17,0.46,6.31,6.30,6.30
35.27,6.21,-0.09,6.22,-0.08,0.07,0.14,0.44,6.28,6.29,6.30
35.62,6.25,-0.04,6.24,-0.05,0.04,0.11,0.41,6.29,6.28,6.29
35.97,6.26,-0.02,6.27,-0.01,0.01,0.08,0.38,6.27,6.28,6.28
36.33,6.30,0.02,6.30,0.03,-0.02,0.05,0.35,6.28,6.29,6.28
36.70,6.34,0.07,6.32,0.05,-0.05,0.02,0.32,6.29,6.27,6.27
37.06,6.34,0.08,6.34,0.08,-0.08,-0.01,0.29,6.26,6.27,6.26
37.43,6.34,0.09,6.36,0.10,-0.10,-0.04,0.26,6.24,6.26,6.26
37.81,6.39,0.14,6.37,0.12,-0.13,-0.07,0.23,6.26,6.24,6.25
38.19,6.39,0.15,6.39,0.15,-0.15,-0.10,0.19,6.24,6.24,6.24
38.57,6.40,0.17,6.41,0.18,-0.17,-0.12,0.16,6.23,6.24,6.23
38.95,6.43,0.21,6.42,0.20,-0.19,-0.15,0.13,6.24,6.23,6.22
39.34,6.43,0.22,6.43,0.21,-0.21,-0.18,0.09,6.22,6.22,6.21
39.74,6.43,0.22,6.43,0.23,-0.23,-0.20,0.06,6.20,6.20,6.21
40.14,6.43,0.23,6.44,0.24,-0.25,-0.23,0.03,6.18,6.19,6.20
40.54,6.47,0.28,6.46,0.27,-0.28,-0.25,-0.01,6.19,6.18,6.19
40.94,6.47,0.29,6.48,0.30,-0.30,-0.28,-0.04,6.17,6.17,6.18
41.35,6.51,0.34,6.50,0.33,-0.33,-0.30,-0.08,6.18,6.17,6.17
41.76,6.51,0.36,6.52,0.36,-0.36,-0.33,-0.11,6.15,6.15,6.16
42.18,6.54,0.40,6.54,0.40,-0.39,-0.35,-0.15,6.15,6.15,6.14
42.60,6.56,0.43,6.56,0.43,-0.42,-0.38,-0.19,6.14,6.14,6.13
43.03,6.58,0.46,6.58,0.46,-0.45,-0.40,-0.22,6.13,6.13,6.12
43.46,6.60,0.49,6.59,0.48,-0.48,-0.43,-0.26,6.12,6.11,6.11
43.90,6.60,0.51,6.60,0.51,-0.51,-0.45,-0.29,6.09,6.10,6.09
44.33,6.60,0.52,6.62,0.53,-0.53,-0.48,-0.33,6.07,6.08,6.08
44.78,6.64,0.57,6.63,0.56,-0.56,-0.51,-0.36,6.08,6.07,6.07
45.23,6.64,0.59,6.63,0.58,-0.59,-0.54,-0.40,6.05,6.05,6.05
45.68,6.64,0.60,6.65,0.61,-0.61,-0.56,-0.44,6.03,6.04,6.04
46.13,6.64,0.62,6.66,0.63,-0.64,-0.59,-0.47,6.00,6.02,6.02
46.60,6.69,0.68,6.67,0.67,-0.66,-0.62,-0.51,6.03,6.01,6.01
47.06,6.69,0.70,6.69,0.69,-0.69,-0.65,-0.55,6.00,5.99,5.99
47.53,6.69,0.72,6.69,0.72,-0.72,-0.68,-0.59,5.97,5.97,5.97
48.01,6.69,0.73,6.70,0.74,-0.75,-0.71,-0.62,5.94,5.95,5.96
48.49,6.71,0.77,6.71,0.77,-0.77,-0.75,-0.66,5.94,5.94,5.94
48.97,6.73,0.81,6.72,0.80,-0.80,-0.78,-0.70,5.93,5.93,5.92
49.46,6.73,0.83,6.73,0.83,-0.82,-0.81,-0.74,5.91,5.91,5.90
49.96,6.73,0.85,6.73,0.85,-0.85,-0.85,-0.77,5.88,5.88,5.88
50.46,6.73,0.87,6.73,0.87,-0.88,-0.88,-0.81,5.85,5.85,5.86
50.96,6.73,0.89,6.74,0.90,-0.92,-0.92,-0.85,5.81,5.83,5.84
51.47,6.77,0.95,6.75,0.94,-0.95,-0.95,-0.89,5.82,5.80,5.81
51.99,6.77,0.98,6.78,0.98,-0.99,-0.99,-0.93,5.78,5.79,5.79
52.51,6.79,1.02,6.80,1.03,-1.02,-1.03,-0.97,5.77,5.78,5.77
53.03,6.82,1.08,6.81,1.06,-1.05,-1.06,-1.01,5.77,5.75,5.74
53.56,6.82,1.10,6.82,1.10,-1.09,-1.10,-1.04,5.73,5.73,5.72
54.10,6.82,1.13,6.82,1.13,-1.12,-1.14,-1.08,5.70,5.70,5.69
54.64,6.82,1.15,6.82,1.15,-1.16,-1.18,-1.12,5.66,5.66,5.67
55.18,6.82,1.18,6.82,1.18,-1.19,-1.22,-1.16,5.63,5.63,5.64
55.74,6.82,1.21,6.82,1.21,-1.22,-1.26,-1.20,5.60,5.60,5.61
56.29,6.82,1.24,6.83,1.25,-1.26,-1.30,-1.24,5.56,5.57,5.58
56.86,6.85,1.30,6.84,1.29,-1.29,-1.35,-1.28,5.56,5.55,5.55
57.42,6.86,1.34,6.86,1.34,-1.33,-1.39,-1.31,5.53,5.53,5.52
58.00,6.86,1.37,6.86,1.38,-1.37,-1.43,-1.35,5.49,5.49,5.49
58.58,6.86,1.41,6.86,1.41,-1.41,-1.48,-1.39,5.45,5.45,5.45
59.16,6.86,1.44,6.86,1.44,-1.44,-1.52,-1.43,5.42,5.42,5.42
59.76,6.86,1.48,6.86,1.48,-1.48,-1.57,-1.46,5.38,5.38,5.38
60.35,6.86,1.51,6.86,1.52,-1.51,-1.61,-1.50,5.35,5.36,5.35
60.96,6.86,1.55,6.86,1.55,-1.54,-1.66,-1.54,5.32,5.32,5.31
61.57,6.86,1.59,6.84,1.57,-1.57,-1.70,-1.57,5.29,5.27,5.27
62.18,6.82,1.59,6.83,1.60,-1.61,-1.75,-1.61,5.21,5.23,5.23
62.80,6.82,1.63,6.83,1.63,-1.65,-1.80,-1.65,5.17,5.18,5.19
63.43,6.84,1.69,6.83,1.68,-1.68,-1.85,-1.68,5.16,5.15,5.15
64.07,6.84,1.73,6.84,1.73,-1.72,-1.90,-1.72,5.12,5.11,5.11
64.71,6.84,1.77,6.84,1.77,-1.77,-1.95,-1.75,5.07,5.07,5.07
65.35,6.84,1.82,6.84,1.82,-1.81,-2.00,-1.79,5.03,5.03,5.02
66.01,6.84,1.86,6.84,1.86,-1.86,-2.05,-1.82,4.98,4.98,4.98
66.67,6.84,1.91,6.84,1.91,-1.91,-2.10,-1.86,4.93,4.92,4.93
67.33,6.84,1.96,6.84,1.96,-1.97,-2.15,-1.90,4.87,4.88,4.88
68.01,6.85,2.02,6.85,2.02,-2.02,-2.20,-1.93,4.83,4.83,4.83
68.69,6.86,2.08,6.86,2.07,-2.07,-2.25,-1.97,4.79,4.78,4.78
69.37,6.86,2.13,6.86,2.13,-2.13,-2.30,-2.01,4.73,4.73,4.73
70.07,6.86,2.18,6.86,2.18,-2.18,-2.36,-2.04,4.68,4.68,4.68
70.77,6.86,2.24,6.86,2.24,-2.23,-2.41,-2.08,4.63,4.63,4.62
71.48,6.86,2.29,6.86,2.29,-2.29,-2.47,-2.12,4.57,4.58,4.57
72.19,6.86,2.35,6.86,2.34,-2.34,-2.52,-2.16,4.52,4.52,4.51
72.91,6.85,2.39,6.84,2.39,-2.39,-2.57,-2.20,4.46,4.45,4.46
73.64,6.82,2.42,6.83,2.43,-2.44,-2.63,-2.25,4.38,4.39,4.40
74.38,6.82,2.48,6.82,2.48,-2.49,-2.69,-2.29,4.33,4.33,4.34
75.12,6.82,2.54,6.82,2.54,-2.54,-2.74,-2.33,4.28,4.28,4.28
75.87,6.82,2.60,6.81,2.60,-2.59,-2.80,-2.38,4.23,4.22,4.22
76.63,6.80,2.65,6.80,2.64,-2.64,-2.86,-2.43,4.16,4.15,4.15
77.40,6.77,2.68,6.78,2.69,-2.70,-2.91,-2.48,4.07,4.08,4.09
78.17,6.77,2.75,6.77,2.75,-2.76,-2.97,-2.53,4.01,4.01,4.02
78.95,6.77,2.81,6.77,2.81,-2.81,-3.03,-2.58,3.96,3.96,3.96
79.74,6.77,2.88,6.77,2.88,-2.87,-3.09,-2.64,3.90,3.90,3.89
80.54,6.77,2.95,6.76,2.94,-2.93,-3.14,-2.70,3.84,3.83,3.82
81.35,6.75,3.00,6.75,3.00,-3.00,-3.20,-2.76,3.75,3.75,3.75
82.16,6.73,3.05,6.74,3.06,-3.06,-3.26,-2.82,3.67,3.67,3.68
82.98,6.73,3.12,6.73,3.12,-3.13,-3.32,-2.88,3.60,3.60,3.61
83.81,6.73,3.19,6.73,3.19,-3.20,-3.38,-2.95,3.53,3.53,3.54
84.65,6.73,3.27,6.73,3.27,-3.26,-3.44,-3.02,3.47,3.47,3.46
85.50,6.73,3.34,6.73,3.34,-3.33,-3.50,-3.09,3.40,3.40,3.39
86.35,6.73,3.42,6.72,3.41,-3.40,-3.56,-3.16,3.33,3.32,3.31
87.22,6.69,3.45,6.71,3.47,-3.46,-3.62,-3.24,3.23,3.24,3.24
88.09,6.69,3.53,6.68,3.52,-3.53,-3.68,-3.32,3.16,3.16,3.16
88.97,6.67,3.59,6.66,3.58,-3.59,-3.74,-3.40,3.08,3.07,3.08
89.86,6.64,3.64,6.65,3.65,-3.65,-3.80,-3.48,2.99,3.00,3.00
90.76,6.64,3.71,6.64,3.71,-3.71,-3.86,-3.57,2.93,2.92,2.92
91.66,6.64,3.79,6.63,3.78,-3.78,-3.93,-3.66,2.86,2.85,2.85
92.58,6.60,3.84,6.61,3.85,-3.84,-3.99,-3.75,2.76,2.77,2.76
93.51,6.60,3.92,6.59,3.90,-3.91,-4.05,-3.84,2.69,2.68,2.68
94.44,6.56,3.96,6.57,3.97,-3.97,-4.11,-3.94,2.59,2.60,2.60
95.39,6.56,4.04,6.56,4.04,-4.04,-4.17,-4.04,2.52,2.52,2.52
96.34,6.56,4.12,6.55,4.11,-4.11,-4.23,-4.14,2.45,2.44,2.44
97.30,6.53,4.18,6.54,4.18,-4.18,-4.29,-4.24,2.35,2.36,2.35
98.28,6.51,4.24,6.52,4.25,-4.25,-4.35,-4.34,2.26,2.27,2.27
99.26,6.51,4.32,6.49,4.31,-4.32,-4.41,-4.45,2.19,2.18,2.19
100.25,6.47,4.37,6.48,4.38,-4.39,-4.47,-4.56,2.08,2.09,2.10
101.25,6.47,4.45,6.48,4.46,-4.46,-4.53,-4.67,2.01,2.02,2.02
102.27,6.47,4.54,6.47,4.53,-4.53,-4.59,-4.78,1.94,1.94,1.93
103.29,6.47,4.62,6.46,4.61,-4.60,-4.65,-4.89,1.87,1.86,1.85
104.32,6.43,4.66,6.44,4.68,-4.66,-4.71,-5.00,1.77,1.78,1.77
105.37,6.42,4.74,6.41,4.73,-4.73,-4.76,-5.11,1.69,1.69,1.68
106.42,6.39,4.79,6.38,4.79,-4.79,-4.82,-5.22,1.60,1.59,1.60
107.48,6.34,4.83,6.36,4.84,-4.85,-4.88,-5.33,1.49,1.50,1.51
108.56,6.34,4.91,6.33,4.90,-4.92,-4.94,-5.43,1.42,1.41,1.43
109.64,6.31,4.97,6.31,4.97,-4.98,-4.99,-5.54,1.33,1.34,1.34
110.74,6.30,5.04,6.30,5.04,-5.04,-5.05,-5.64,1.26,1.26,1.26
111.85,6.29,5.11,6.28,5.11,-5.10,-5.10,-5.74,1.19,1.18,1.18
112.97,6.26,5.17,6.26,5.17,-5.16,-5.16,-5.84,1.10,1.10,1.09
114.10,6.23,5.22,6.23,5.22,-5.22,-5.21,-5.93,1.01,1.01,1.01
115.24,6.21,5.28,6.20,5.28,-5.28,-5.27,-6.01,0.93,0.92,0.93
116.39,6.17,5.33,6.18,5.34,-5.34,-5.32,-6.10,0.83,0.84,0.84
117.55,6.16,5.40,6.15,5.39,-5.39,-5.37,-6.17,0.77,0.76,0.76
118.73,6.13,5.45,6.13,5.45,-5.45,-5.42,-6.24,0.68,0.68,0.68
119.92,6.10,5.50,6.10,5.50,-5.50,-5.47,-6.30,0.60,0.61,0.60
121.12,6.08,5.56,6.07,5.55,-5.55,-5.52,-6.36,0.53,0.52,0.52
122.33,6.04,5.60,6.04,5.60,-5.60,-5.57,-6.40,0.44,0.44,0.44
123.55,6.01,5.65,6.01,5.65,-5.65,-5.62,-6.44,0.36,0.36,0.36
124.79,5.98,5.70,5.98,5.69,-5.70,-5.66,-6.47,0.28,0.28,0.28
126.03,5.95,5.74,5.95,5.74,-5.75,-5.71,-6.49,0.20,0.20,0.21
127.29,5.92,5.79,5.92,5.79,-5.79,-5.75,-6.50,0.13,0.13,0.13
128.57,5.89,5.83,5.89,5.84,-5.83,-5.80,-6.51,0.06,0.06,0.06
129.85,5.86,5.88,5.86,5.88,-5.88,-5.84,-6.50,-0.02,-0.02,-0.02
131.15,5.83,5.92,5.82,5.92,-5.92,-5.88,-6.49,-0.09,-0.09,-0.09
132.46,5.78,5.95,5.79,5.95,-5.96,-5.92,-6.47,-0.18,-0.17,-0.17
133.79,5.75,5.99,5.75,5.99,-5.99,-5.96,-6.45,-0.24,-0.24,-0.24
135.12,5.72,6.03,5.72,6.03,-6.03,-6.00,-6.42,-0.31,-0.31,-0.31
136.48,5.69,6.07,5.69,6.07,-6.06,-6.04,-6.39,-0.37,-0.37,-0.38
137.84,5.65,6.10,5.65,6.10,-6.09,-6.07,-6.35,-0.44,-0.44,-0.45
139.22,5.61,6.13,5.61,6.13,-6.12,-6.10,-6.30,-0.51,-0.51,-0.52
140.61,5.56,6.14,5.56,6.15,-6.15,-6.14,-6.26,-0.59,-0.58,-0.58
142.02,5.53,6.18,5.52,6.17,-6.17,-6.17,-6.21,-0.64,-0.65,-0.65
143.44,5.47,6.18,5.48,6.19,-6.19,-6.20,-6.15,-0.72,-0.71,-0.71
144.87,5.44,6.22,5.43,6.21,-6.21,-6.23,-6.10,-0.77,-0.78,-0.78
146.32,5.39,6.23,5.39,6.23,-6.23,-6.25,-6.04,-0.84,-0.84,-0.84
147.78,5.34,6.24,5.35,6.25,-6.25,-6.28,-5.99,-0.91,-0.90,-0.90
149.26,5.31,6.27,5.30,6.26,-6.26,-6.30,-5.93,-0.95,-0.96,-0.96
150.75,5.26,6.28,5.26,6.28,-6.27,-6.33,-5.88,-1.01,-1.01,-1.02
152.26,5.22,6.29,5.21,6.29,-6.29,-6.35,-5.83,-1.07,-1.07,-1.08
153.78,5.16,6.29,5.16,6.30,-6.30,-6.37,-5.78,-1.14,-1.13,-1.13
155.32,5.11,6.30,5.12,6.30,-6.31,-6.39,-5.73,-1.20,-1.19,-1.19
156.88,5.08,6.32,5.07,6.31,-6.31,-6.40,-5.68,-1.23,-1.25,-1.24
158.44,5.02,6.31,5.02,6.32,-6.32,-6.42,-5.64,-1.30,-1.30,-1.29
160.03,4.98,6.33,4.98,6.33,-6.33,-6.43,-5.59,-1.35,-1.35,-1.35
161.63,4.93,6.34,4.93,6.33,-6.33,-6.44,-5.56,-1.40,-1.40,-1.41
163.24,4.89,6.35,4.88,6.34,-6.34,-6.45,-5.52,-1.45,-1.45,-1.46
164.88,4.83,6.33,4.83,6.34,-6.34,-6.46,-5.49,-1.51,-1.51,-1.50
166.53,4.79,6.34,4.79,6.34,-6.34,-6.47,-5.46,-1.55,-1.55,-1.55
168.19,4.74,6.34,4.74,6.34,-6.34,-6.47,-5.44,-1.61,-1.60,-1.60
169.87,4.71,6.35,4.71,6.35,-6.35,-6.48,-5.41,-1.64,-1.64,-1.64
171.57,4.67,6.36,4.66,6.35,-6.35,-6.48,-5.40,-1.68,-1.69,-1.69
173.29,4.63,6.36,4.63,6.36,-6.36,-6.48,-5.39,-1.73,-1.73,-1.73
175.02,4.57,6.34,4.59,6.36,-6.36,-6.47,-5.38,-1.79,-1.78,-1.77
176.77,4.57,6.38,4.56,6.37,-6.37,-6.47,-5.37,-1.80,-1.81,-1.81
178.54,4.52,6.37,4.53,6.38,-6.37,-6.46,-5.38,-1.85,-1.85,-1.85
180.32,4.51,6.40,4.50,6.39,-6.38,-6.46,-5.38,-1.87,-1.88,-1.89
182.13,4.46,6.39,4.46,6.39,-6.39,-6.45,-5.39,-1.93,-1.92,-1.93
183.95,4.42,6.38,4.42,6.39,-6.39,-6.44,-5.40,-1.97,-1.97,-1.96
185.79,4.39,6.39,4.39,6.39,-6.40,-6.42,-5.42,-2.01,-2.01,-2.00
187.65,4.35,6.38,4.36,6.40,-6.40,-6.41,-5.44,-2.05,-2.04,-2.03
189.52,4.35,6.42,4.34,6.40,-6.40,-6.39,-5.46,-2.05,-2.06,-2.07
191.42,4.31,6.41,4.31,6.41,-6.40,-6.37,-5.49,-2.09,-2.09,-2.10
193.33,4.27,6.40,4.28,6.41,-6.40,-6.35,-5.52,-2.13,-2.12,-2.13
195.27,4.24,6.40,4.23,6.39,-6.39,-6.33,-5.56,-2.15,-2.16,-2.16
197.22,4.19,6.38,4.19,6.38,-6.38,-6.30,-5.59,-2.19,-2.19,-2.19
199.19,4.15,6.37,4.15,6.37,-6.37,-6.28,-5.63,-2.22,-2.22,-2.22
201.18,4.11,6.36,4.11,6.35,-6.36,-6.25,-5.68,-2.25,-2.25,-2.25
203.19,4.06,6.33,4.07,6.34,-6.34,-6.22,-5.72,-2.28,-2.28,-2.27
205.23,4.02,6.32,4.02,6.32,-6.32,-6.18,-5.77,-2.30,-2.30,-2.30
207.28,3.98,6.31,3.97,6.30,-6.29,-6.15,-5.82,-2.31,-2.32,-2.33
209.35,3.92,6.27,3.92,6.27,-6.26,-6.11,-5.86,-2.34,-2.34,-2.35
211.44,3.86,6.23,3.86,6.24,-6.23,-6.07,-5.91,-2.37,-2.37,-2.37
213.56,3.80,6.20,3.80,6.19,-6.19,-6.03,-5.96,-2.39,-2.40,-2.40
215.69,3.73,6.15,3.73,6.15,-6.15,-5.99,-6.01,-2.42,-2.42,-2.42
217.85,3.66,6.10,3.66,6.10,-6.11,-5.95,-6.05,-2.45,-2.45,-2.44
220.03,3.58,6.04,3.59,6.05,-6.06,-5.90,-6.10,-2.48,-2.46,-2.46
222.23,3.53,6.01,3.52,6.00,-6.01,-5.85,-6.13,-2.48,-2.48,-2.48
224.45,3.46,5.96,3.45,5.96,-5.95,-5.80,-6.17,-2.49,-2.50,-2.50
226.70,3.37,5.89,3.38,5.90,-5.90,-5.75,-6.20,-2.53,-2.52,-2.52
228.96,3.31,5.85,3.30,5.84,-5.85,-5.69,-6.23,-2.54,-2.54,-2.54
231.25,3.22,5.78,3.22,5.78,-5.79,-5.64,-6.25,-2.57,-2.56,-2.56
233.57,3.15,5.72,3.15,5.73,-5.73,-5.58,-6.26,-2.58,-2.58,-2.57
235.90,3.07,5.67,3.07,5.67,-5.66,-5.52,-6.27,-2.59,-2.59,-2.60
238.26,2.99,5.61,2.99,5.60,-5.60,-5.46,-6.26,-2.61,-2.61,-2.62
240.64,2.90,5.53,2.90,5.53,-5.53,-5.39,-6.25,-2.63,-2.63,-2.63
243.05,2.81,5.46,2.81,5.46,-5.46,-5.33,-6.23,-2.65,-2.65,-2.65
245.48,2.72,5.38,2.72,5.38,-5.39,-5.26,-6.20,-2.67,-2.67,-2.66
247.93,2.62,5.30,2.63,5.30,-5.31,-5.19,-6.16,-2.69,-2.68,-2.68
250.41,2.54,5.23,2.54,5.23,-5.22,-5.11,-6.10,-2.69,-2.69,-2.69
252.92,2.45,5.15,2.45,5.15,-5.14,-5.04,-6.04,-2.69,-2.69,-2.70
255.45,2.35,5.07,2.35,5.06,-5.06,-4.96,-5.97,-2.71,-2.71,-2.72
258.00,2.24,4.97,2.24,4.97,-4.97,-4.89,-5.88,-2.73,-2.73,-2.73
260.58,2.13,4.87,2.13,4.87,-4.88,-4.81,-5.79,-2.75,-2.75,-2.74
263.19,2.03,4.78,2.03,4.78,-4.79,-4.72,-5.69,-2.76,-2.76,-2.75
265.82,1.94,4.70,1.93,4.70,-4.70,-4.64,-5.57,-2.76,-2.77,-2.76
268.48,1.84,4.61,1.84,4.61,-4.61,-4.55,-5.45,-2.77,-2.77,-2.77
271.16,1.74,4.52,1.75,4.53,-4.52,-4.46,-5.32,-2.78,-2.77,-2.78
273.87,1.65,4.44,1.64,4.43,-4.42,-4.38,-5.18,-2.77,-2.78,-2.79
276.61,1.53,4.33,1.53,4.33,-4.33,-4.28,-5.03,-2.80,-2.80,-2.80
279.38,1.40,4.21,1.41,4.22,-4.22,-4.19,-4.88,-2.83,-2.81,-2.81
282.17,1.30,4.12,1.30,4.12,-4.12,-4.09,-4.72,-2.82,-2.82,-2.82
284.99,1.20,4.02,1.19,4.01,-4.01,-4.00,-4.56,-2.81,-2.82,-2.82
287.84,1.08,3.90,1.08,3.90,-3.90,-3.90,-4.39,-2.82,-2.82,-2.82
290.72,0.97,3.79,0.96,3.79,-3.79,-3.79,-4.22,-2.82,-2.82,-2.82
293.63,0.84,3.67,0.85,3.67,-3.68,-3.69,-4.05,-2.84,-2.83,-2.83
296.57,0.73,3.56,0.73,3.56,-3.56,-3.58,-3.87,-2.83,-2.83,-2.83
299.53,0.62,3.45,0.61,3.44,-3.45,-3.48,-3.69,-2.83,-2.83,-2.83
302.53,0.49,3.32,0.50,3.33,-3.33,-3.37,-3.51,-2.84,-2.83,-2.83
305.55,0.39,3.22,0.38,3.21,-3.21,-3.26,-3.33,-2.82,-2.83,-2.83
308.61,0.26,3.10,0.26,3.10,-3.09,-3.14,-3.15,-2.83,-2.83,-2.84
311.69,0.14,2.97,0.14,2.97,-2.97,-3.03,-2.96,-2.83,-2.83,-2.83
314.81,0.01,2.85,0.01,2.85,-2.85,-2.91,-2.78,-2.84,-2.83,-2.84
317.96,-0.11,2.72,-0.11,2.72,-2.72,-2.79,-2.59,-2.83,-2.83,-2.83
321.14,-0.24,2.60,-0.24,2.59,-2.59,-2.67,-2.41,-2.83,-2.84,-2.84
324.35,-0.38,2.45,-0.37,2.46,-2.46,-2.55,-2.22,-2.84,-2.83,-2.84
327.59,-0.51,2.32,-0.51,2.33,-2.33,-2.43,-2.04,-2.84,-2.84,-2.83
330.87,-0.63,2.21,-0.64,2.19,-2.20,-2.30,-1.85,-2.83,-2.84,-2.84
334.18,-0.78,2.05,-0.77,2.06,-2.06,-2.17,-1.67,-2.84,-2.83,-2.83
337.52,-0.90,1.93,-0.90,1.93,-1.93,-2.04,-1.49,-2.83,-2.83,-2.83
340.90,-1.03,1.80,-1.03,1.79,-1.80,-1.91,-1.30,-2.83,-2.83,-2.83
344.30,-1.17,1.65,-1.16,1.66,-1.66,-1.78,-1.12,-2.83,-2.82,-2.82
347.75,-1.29,1.53,-1.29,1.52,-1.52,-1.64,-0.94,-2.81,-2.81,-2.82
351.23,-1.43,1.39,-1.43,1.38,-1.38,-1.51,-0.75,-2.81,-2.81,-2.82
354.74,-1.57,1.24,-1.57,1.24,-1.24,-1.37,-0.57,-2.81,-2.81,-2.81
358.28,-1.72,1.09,-1.71,1.09,-1.09,-1.23,-0.39,-2.81,-2.81,-2.81
361.87,-1.85,0.95,-1.86,0.95,-0.95,-1.09,-0.21,-2.80,-2.81,-2.80
365.49,-2.00,0.80,-2.00,0.80,-0.81,-0.95,-0.03,-2.81,-2.81,-2.80
369.14,-2.14,0.66,-2.13,0.66,-0.66,-0.80,0.15,-2.80,-2.79,-2.80
372.83,-2.27,0.51,-2.27,0.52,-0.52,-0.66,0.33,-2.79,-2.79,-2.78
376.56,-2.40,0.39,-2.41,0.37,-0.37,-0.51,0.51,-2.77,-2.78,-2.79
380.33,-2.56,0.22,-2.55,0.23,-0.22,-0.36,0.69,-2.78,-2.77,-2.78
384.13,-2.70,0.08,-2.70,0.08,-0.07,-0.22,0.87,-2.77,-2.77,-2.78
387.97,-2.84,-0.07,-2.85,-0.08,0.08,-0.07,1.05,-2.76,-2.77,-2.77
391.85,-3.00,-0.24,-2.99,-0.23,0.23,0.08,1.23,-2.77,-2.76,-2.76
395.77,-3.13,-0.37,-3.14,-0.38,0.38,0.24,1.40,-2.75,-2.76,-2.76
399.73,-3.29,-0.54,-3.29,-0.54,0.53,0.39,1.58,-2.76,-2.76,-2.75
403.72,-3.43,-0.69,-3.43,-0.68,0.68,0.54,1.75,-2.75,-2.75,-2.74
407.76,-3.57,-0.82,-3.57,-0.83,0.83,0.70,1.92,-2.74,-2.74,-2.75
411.84,-3.71,-0.97,-3.71,-0.98,0.98,0.85,2.09,-2.73,-2.73,-2.74
415.96,-3.86,-1.13,-3.86,-1.12,1.13,1.00,2.26,-2.73,-2.73,-2.73
420.12,-4.00,-1.27,-4.00,-1.27,1.28,1.16,2.43,-2.72,-2.72,-2.73
424.32,-4.14,-1.42,-4.15,-1.42,1.42,1.31,2.59,-2.72,-2.72,-2.72
428.56,-4.29,-1.57,-4.29,-1.57,1.57,1.46,2.75,-2.72,-2.72,-2.72
432.85,-4.44,-1.73,-4.43,-1.72,1.71,1.62,2.90,-2.73,-2.72,-2.71
437.18,-4.56,-1.85,-4.57,-1.86,1.85,1.77,3.05,-2.71,-2.71,-2.71
441.55,-4.70,-2.00,-4.69,-1.99,1.99,1.92,3.20,-2.71,-2.70,-2.70
445.96,-4.81,-2.12,-4.82,-2.13,2.13,2.07,3.34,-2.68,-2.68,-2.69
450.42,-4.95,-2.28,-4.94,-2.27,2.27,2.22,3.47,-2.68,-2.67,-2.67
454.93,-5.06,-2.39,-5.07,-2.40,2.40,2.37,3.60,-2.66,-2.66,-2.67
459.48,-5.20,-2.54,-5.20,-2.54,2.54,2.51,3.72,-2.66,-2.66,-2.66
464.07,-5.33,-2.67,-5.33,-2.67,2.67,2.65,3.83,-2.66,-2.66,-2.66
468.71,-5.45,-2.80,-5.45,-2.80,2.80,2.79,3.93,-2.65,-2.65,-2.65
473.40,-5.57,-2.93,-5.57,-2.92,2.93,2.93,4.02,-2.64,-2.64,-2.64
478.13,-5.68,-3.05,-5.68,-3.05,3.05,3.06,4.10,-2.63,-2.63,-2.63
482.91,-5.78,-3.16,-5.79,-3.17,3.17,3.19,4.17,-2.61,-2.62,-2.62
487.74,-5.91,-3.29,-5.91,-3.29,3.29,3.31,4.22,-2.62,-2.62,-2.62
492.62,-6.01,-3.40,-6.01,-3.40,3.40,3.43,4.27,-2.61,-2.61,-2.61
497.55,-6.12,-3.52,-6.11,-3.51,3.50,3.54,4.30,-2.62,-2.60,-2.60
502.52,-6.18,-3.59,-6.19,-3.60,3.60,3.65,4.33,-2.58,-2.59,-2.59
507.55,-6.27,-3.70,-6.27,-3.70,3.70,3.76,4.34,-2.57,-2.57,-2.57
512.62,-6.34,-3.78,-6.34,-3.78,3.79,3.85,4.34,-2.55,-2.56,-2.56
