frequency,raw
20,-8.80
21,-8.37
22,-7.98
23,-7.63
24,-7.22
25,-6.83
26,-6.44
27,-6.09
28,-5.79
29,-5.44
30,-5.11
31,-4.83
32,-4.59
33,-4.33
34,-4.12
35,-3.87
36,-3.70
37,-3.52
38,-3.32
39,-3.14
40,-2.97
41,-2.79
42,-2.63
43,-2.47
44,-2.33
45,-2.17
46,-2.03
47,-1.89
48,-1.74
49,-1.62
50,-1.47
51,-1.33
52,-1.19
53,-1.07
54,-0.96
55,-0.85
56,-0.72
57,-0.60
58,-0.56
59,-0.44
60,-0.31
61,-0.24
62,-0.15
63,-0.04
64,0.05
65,0.11
66,0.19
67,0.29
68,0.34
69,0.39
70,0.47
71,0.50
72,0.54
73,0.59
74,0.62
75,0.69
76,0.72
77,0.76
78,0.81
79,0.84
80,0.88
81,0.91
82,0.95
83,1.02
84,1.05
85,1.08
86,1.12
87,1.14
88,1.18
89,1.21
90,1.27
91,1.27
92,1.28
93,1.32
94,1.34
95,1.36
96,1.34
97,1.40
98,1.40
99,1.40
100,1.45
101,1.45
102,1.50
104,1.54
105,1.57
106,1.57
107,1.58
108,1.62
109,1.60
110,1.62
111,1.66
112,1.66
113,1.67
114,1.71
115,1.70
117,1.77
118,1.77
119,1.75
120,1.78
121,1.79
123,1.80
124,1.83
125,1.84
126,1.82
128,1.87
129,1.88
130,1.86
131,1.85
133,1.90
134,1.89
135,1.86
137,1.91
138,1.89
140,1.90
141,1.91
142,1.91
144,1.90
145,1.88
147,1.94
148,1.92
150,1.90
151,1.90
153,1.93
154,1.92
156,1.90
157,1.89
159,1.92
160,1.90
162,1.87
164,1.86
165,1.86
167,1.88
169,1.85
170,1.82
172,1.80
174,1.77
175,1.74
177,1.72
179,1.73
181,1.71
183,1.69
184,1.66
186,1.63
188,1.61
190,1.58
192,1.56
194,1.53
196,1.50
198,1.47
200,1.44
202,1.41
204,1.38
206,1.34
208,1.30
210,1.25
212,1.22
214,1.19
216,1.17
218,1.14
221,1.12
223,1.10
225,1.04
227,0.99
229,0.97
232,0.94
234,0.92
236,0.89
239,0.87
241,0.85
244,0.81
246,0.78
248,0.75
251,0.74
253,0.73
256,0.72
259,0.71
261,0.71
264,0.70
266,0.69
269,0.65
272,0.63
274,0.59
277,0.57
280,0.55
283,0.54
286,0.54
288,0.53
291,0.48
294,0.44
297,0.43
300,0.42
303,0.41
306,0.40
309,0.39
312,0.35
316,0.30
319,0.29
322,0.27
325,0.26
328,0.25
332,0.23
335,0.24
338,0.22
342,0.13
345,0.10
349,0.10
352,0.10
356,0.09
359,-0.04
363,-0.05
366,-0.05
370,-0.05
374,-0.08
377,-0.14
381,-0.20
385,-0.20
389,-0.20
393,-0.20
397,-0.25
401,-0.32
405,-0.34
409,-0.34
413,-0.34
417,-0.35
421,-0.35
425,-0.39
430,-0.39
434,-0.41
438,-0.40
443,-0.40
447,-0.39
451,-0.39
456,-0.37
460,-0.36
465,-0.34
470,-0.33
474,-0.30
479,-0.28
484,-0.25
489,-0.24
494,-0.22
499,-0.19
504,-0.17
509,-0.16
514,-0.18
519,-0.19
524,-0.22
529,-0.27
535,-0.35
540,-0.44
545,-0.55
551,-0.70
556,-0.81
562,-0.89
568,-0.95
573,-1.02
579,-1.02
585,-0.99
591,-0.96
596,-0.93
602,-0.90
608,-0.85
615,-0.83
621,-0.80
627,-0.78
633,-0.77
639,-0.73
646,-0.71
652,-0.68
659,-0.66
665,-0.62
672,-0.63
679,-0.63
686,-0.61
692,-0.57
699,-0.55
706,-0.56
713,-0.56
721,-0.52
728,-0.49
735,-0.46
742,-0.45
750,-0.46
757,-0.43
765,-0.40
773,-0.37
780,-0.34
788,-0.31
796,-0.35
804,-0.33
812,-0.30
820,-0.28
828,-0.27
837,-0.29
845,-0.29
853,-0.26
862,-0.23
871,-0.21
879,-0.18
888,-0.19
897,-0.17
906,-0.20
915,-0.18
924,-0.16
933,-0.14
943,-0.13
952,-0.10
962,-0.09
971,-0.07
981,-0.05
991,-0.02
1001,-0.00
1011,0.02
1021,0.03
1031,0.06
1041,0.07
1052,0.09
1062,0.08
1073,0.05
1084,0.07
1094,0.09
1105,0.12
1116,0.14
1128,0.16
1139,0.19
1150,0.22
1162,0.25
1173,0.29
1185,0.33
1197,0.38
1209,0.42
1221,0.46
1233,0.51
1246,0.54
1258,0.58
1271,0.68
1283,0.75
1296,0.81
1309,0.86
1322,0.90
1335,0.94
1349,1.00
1362,1.04
1376,1.08
1390,1.12
1404,1.16
1418,1.18
1432,1.19
1446,1.22
1461,1.25
1475,1.29
1490,1.33
1505,1.36
1520,1.40
1535,1.43
1550,1.47
1566,1.50
1582,1.53
1597,1.56
1613,1.60
1629,1.64
1646,1.68
1662,1.72
1679,1.75
1696,1.79
1713,1.83
1730,1.88
1747,1.93
1764,1.98
1782,2.08
1800,2.21
1818,2.32
1836,2.44
1854,2.56
1873,2.73
1892,2.83
1911,2.98
1930,3.16
1949,3.27
1969,3.40
1988,3.55
2008,3.67
2028,3.79
2048,3.96
2069,4.09
2090,4.24
2111,4.41
2132,4.58
2153,4.80
2175,4.98
2196,5.22
2218,5.42
2240,5.67
2263,5.87
2285,6.03
2308,6.20
2331,6.27
2355,6.45
2378,6.58
2402,6.75
2426,6.90
2450,7.11
2475,7.33
2500,7.52
2525,7.71
2550,7.88
2575,8.06
2601,8.22
2627,8.32
2653,8.43
2680,8.54
2707,8.65
2734,8.72
2761,8.79
2789,8.83
2817,8.92
2845,8.98
2873,8.99
2902,9.00
2931,9.06
2960,9.09
2990,9.17
3020,9.25
3050,9.38
3080,9.43
3111,9.52
3142,9.63
3174,9.64
3206,9.72
3238,9.71
3270,9.68
3303,9.71
3336,9.70
3369,9.71
3403,9.69
3437,9.67
3471,9.58
3506,9.57
3541,9.49
3576,9.29
3612,9.17
3648,9.02
3685,8.82
3721,8.65
3759,8.58
3796,8.46
3834,8.42
3873,8.44
3911,8.51
3950,8.56
3990,8.67
4030,8.79
4070,8.90
4111,8.96
4152,8.98
4193,9.02
4235,8.98
4278,8.96
4321,8.83
4364,8.69
4407,8.50
4451,8.23
4496,7.98
4541,7.69
4586,7.32
4632,6.97
4679,6.65
4725,6.30
4773,5.96
4820,5.65
4868,5.37
4917,5.08
4966,4.80
5016,4.67
5066,4.43
5117,4.21
5168,4.16
5220,4.07
5272,4.06
5325,4.06
5378,4.11
5432,4.18
5486,4.30
5541,4.36
5596,4.41
5652,4.52
5709,4.60
5766,4.71
5823,4.82
5882,4.96
5940,5.03
6000,5.01
6060,4.95
6120,4.83
6182,4.64
6244,4.38
6306,4.04
6369,3.64
6433,3.21
6497,2.73
6562,2.29
6628,1.90
6694,1.61
6761,1.35
6828,1.12
6897,0.95
6966,0.86
7035,0.76
7106,0.63
7177,0.45
7249,0.37
7321,0.33
7394,0.28
7468,0.26
7543,0.31
7618,0.40
7694,0.58
7771,0.88
7849,1.31
7928,1.74
8007,2.26
8087,2.78
8168,3.42
8250,4.01
8332,4.58
8415,5.33
8499,5.99
8584,6.69
8670,7.39
8757,8.04
8845,8.61
8933,9.06
9022,9.35
9113,9.33
9204,8.89
9296,8.03
9389,6.97
9483,5.80
9577,4.71
9673,3.63
9770,2.70
9868,1.80
9966,0.97
10066,0.09
10167,-0.82
10268,-1.71
10371,-2.72
10475,-3.98
10579,-4.98
10685,-6.09
10792,-7.23
10900,-8.41
11009,-9.39
11119,-10.25
11230,-10.84
11343,-11.19
11456,-11.32
11571,-11.39
11686,-11.29
11803,-10.73
11921,-9.69
12040,-8.37
12161,-7.17
12282,-6.40
12405,-6.26
12529,-6.41
12655,-6.67
12781,-7.03
12909,-7.26
13038,-7.23
13168,-7.11
13300,-7.06
13433,-6.85
13567,-6.60
13703,-6.66
13840,-6.96
13978,-7.24
14118,-7.51
14259,-7.69
14402,-7.78
14546,-7.85
14692,-7.88
14838,-7.84
14987,-7.86
15137,-7.93
15288,-8.07
15441,-8.35
15595,-8.82
15751,-9.53
15909,-10.39
16068,-11.26
16229,-12.02
16391,-12.44
16555,-12.36
16720,-11.65
16888,-10.59
17056,-8.94
17227,-7.29
17399,-5.69
17573,-4.52
17749,-3.75
17926,-3.33
18106,-3.27
18287,-3.48
18470,-3.79
18654,-4.22
18841,-4.70
19029,-5.10
19220,-5.43
19412,-5.66
19606,-5.82
19802,-6.02
20000,-6.23
