frequency,raw,error,smoothed,error_smoothed,equalization,parametric_eq,equalized_raw,equalized_smoothed,target
20,-9.63,-11.61,-9.68,-11.66,6.00,2.65,-3.63,-3.68,1.98
21,-9.17,-11.15,-9.18,-11.15,6.00,3.05,-3.17,-3.18,1.98
22,-8.71,-10.68,-8.69,-10.66,6.00,3.49,-2.71,-2.69,1.97
23,-8.25,-10.22,-8.22,-10.19,6.00,3.96,-2.25,-2.22,1.97
24,-7.80,-9.77,-7.77,-9.73,6.00,4.46,-1.80,-1.77,1.97
25,-7.36,-9.33,-7.33,-9.29,6.00,4.98,-1.36,-1.33,1.97
26,-6.93,-8.89,-6.90,-8.87,6.00,5.49,-0.93,-0.90,1.96
27,-6.52,-8.48,-6.50,-8.46,6.00,5.97,-0.52,-0.50,1.96
28,-6.11,-8.07,-6.11,-8.06,6.00,6.40,-0.11,-0.11,1.95
29,-5.72,-7.67,-5.73,-7.68,6.00,6.74,0.28,0.27,1.95
30,-5.34,-7.29,-5.37,-7.32,6.00,6.97,0.66,0.63,1.95
31,-4.99,-6.93,-5.03,-6.97,6.00,7.06,1.01,0.97,1.94
32,-4.68,-6.62,-4.71,-6.64,6.00,7.03,1.32,1.29,1.93
33,-4.39,-6.32,-4.40,-6.33,5.94,6.87,1.55,1.54,1.93
34,-4.10,-6.02,-4.11,-6.03,5.82,6.64,1.72,1.71,1.92
35,-3.84,-5.75,-3.84,-5.75,5.64,6.34,1.80,1.80,1.91
36,-3.58,-5.49,-3.58,-5.49,5.44,6.00,1.85,1.85,1.91
37,-3.35,-5.25,-3.34,-5.24,5.22,5.66,1.87,1.88,1.90
38,-3.12,-5.01,-3.11,-5.00,5.00,5.31,1.88,1.89,1.89
39,-2.90,-4.78,-2.90,-4.77,4.77,4.98,1.87,1.88,1.88
40,-2.70,-4.57,-2.69,-4.56,4.56,4.66,1.86,1.87,1.87
41,-2.50,-4.36,-2.50,-4.35,4.35,4.36,1.85,1.86,1.86
42,-2.32,-4.16,-2.32,-4.16,4.16,4.08,1.84,1.84,1.84
43,-2.14,-3.97,-2.14,-3.97,3.97,3.83,1.83,1.83,1.83
44,-1.97,-3.79,-1.98,-3.79,3.79,3.59,1.82,1.82,1.82
45,-1.82,-3.62,-1.82,-3.62,3.62,3.38,1.80,1.80,1.80
46,-1.67,-3.46,-1.67,-3.45,3.45,3.18,1.78,1.79,1.79
47,-1.53,-3.30,-1.52,-3.29,3.29,3.00,1.76,1.77,1.77
48,-1.39,-3.14,-1.39,-3.14,3.14,2.83,1.75,1.75,1.75
49,-1.25,-2.99,-1.25,-2.99,2.99,2.67,1.74,1.73,1.74
50,-1.13,-2.85,-1.13,-2.84,2.84,2.53,1.71,1.72,1.72
51,-1.00,-2.70,-1.01,-2.70,2.70,2.40,1.70,1.70,1.70
52,-0.89,-2.57,-0.89,-2.57,2.57,2.28,1.68,1.68,1.68
53,-0.78,-2.44,-0.78,-2.43,2.43,2.17,1.65,1.65,1.65
54,-0.67,-2.30,-0.67,-2.30,2.30,2.06,1.63,1.63,1.63
55,-0.56,-2.17,-0.56,-2.17,2.17,1.96,1.61,1.61,1.61
56,-0.46,-2.04,-0.46,-2.05,2.05,1.86,1.58,1.58,1.58
57,-0.37,-1.93,-0.36,-1.92,1.92,1.77,1.55,1.56,1.56
58,-0.28,-1.81,-0.26,-1.80,1.80,1.68,1.52,1.53,1.53
59,-0.19,-1.70,-0.17,-1.67,1.67,1.59,1.48,1.50,1.51
60,-0.10,-1.58,-0.08,-1.55,1.55,1.51,1.45,1.48,1.48
61,-0.00,-1.45,0.01,-1.44,1.44,1.42,1.44,1.45,1.45
62,0.09,-1.33,0.10,-1.32,1.32,1.34,1.41,1.42,1.42
63,0.19,-1.20,0.18,-1.21,1.21,1.26,1.40,1.39,1.39
64,0.29,-1.07,0.25,-1.10,1.10,1.17,1.39,1.36,1.36
65,0.36,-0.96,0.33,-1.00,1.00,1.09,1.36,1.32,1.32
66,0.42,-0.87,0.39,-0.90,0.90,1.01,1.32,1.29,1.29
67,0.48,-0.78,0.46,-0.80,0.80,0.93,1.28,1.26,1.26
68,0.52,-0.70,0.52,-0.71,0.71,0.84,1.22,1.22,1.22
69,0.56,-0.63,0.57,-0.62,0.62,0.76,1.17,1.19,1.19
70,0.61,-0.54,0.62,-0.53,0.53,0.68,1.14,1.15,1.15
71,0.65,-0.47,0.67,-0.44,0.44,0.60,1.09,1.11,1.11
72,0.70,-0.38,0.72,-0.36,0.36,0.51,1.06,1.08,1.08
73,0.75,-0.29,0.76,-0.28,0.28,0.43,1.03,1.04,1.04
74,0.81,-0.19,0.80,-0.20,0.20,0.35,1.01,1.00,1.00
75,0.86,-0.10,0.84,-0.12,0.12,0.27,0.98,0.96,0.96
76,0.89,-0.03,0.88,-0.04,0.04,0.19,0.93,0.92,0.92
77,0.92,0.04,0.92,0.04,-0.04,0.11,0.88,0.88,0.88
78,0.95,0.11,0.96,0.12,-0.12,0.03,0.83,0.84,0.84
79,0.99,0.19,0.99,0.19,-0.19,-0.05,0.80,0.80,0.80
80,1.03,0.27,1.03,0.27,-0.27,-0.13,0.76,0.76,0.76
81,1.07,0.35,1.06,0.34,-0.34,-0.21,0.73,0.72,0.72
82,1.10,0.42,1.09,0.41,-0.41,-0.29,0.69,0.68,0.68
83,1.13,0.49,1.12,0.48,-0.48,-0.37,0.65,0.64,0.64
84,1.15,0.55,1.15,0.55,-0.55,-0.45,0.60,0.60,0.60
85,1.18,0.62,1.17,0.62,-0.62,-0.53,0.56,0.56,0.56
86,1.20,0.68,1.20,0.69,-0.69,-0.61,0.51,0.51,0.51
87,1.22,0.75,1.22,0.75,-0.75,-0.69,0.47,0.47,0.47
88,1.24,0.81,1.25,0.82,-0.82,-0.77,0.42,0.43,0.43
89,1.27,0.88,1.27,0.88,-0.88,-0.85,0.39,0.39,0.39
90,1.29,0.94,1.29,0.94,-0.94,-0.93,0.35,0.35,0.35
91,1.31,1.00,1.31,1.01,-1.01,-1.01,0.30,0.31,0.31
92,1.34,1.07,1.34,1.07,-1.07,-1.09,0.27,0.27,0.27
93,1.35,1.12,1.36,1.13,-1.13,-1.17,0.22,0.23,0.22
94,1.38,1.19,1.37,1.19,-1.19,-1.25,0.19,0.19,0.18
95,1.39,1.25,1.39,1.25,-1.25,-1.33,0.14,0.14,0.14
96,1.42,1.32,1.41,1.31,-1.31,-1.41,0.11,0.10,0.10
97,1.45,1.39,1.43,1.37,-1.37,-1.49,0.08,0.06,0.06
98,1.46,1.43,1.45,1.43,-1.43,-1.57,0.03,0.02,0.02
99,1.47,1.48,1.46,1.48,-1.48,-1.65,-0.01,-0.02,-0.01
100,1.49,1.54,1.48,1.54,-1.54,-1.72,-0.05,-0.06,-0.05
101,1.49,1.58,1.50,1.60,-1.60,-1.80,-0.11,-0.10,-0.09
102,1.49,1.62,1.52,1.66,-1.66,-1.88,-0.17,-0.14,-0.13
104,1.52,1.72,1.53,1.72,-1.72,-2.03,-0.20,-0.19,-0.20
105,1.54,1.78,1.55,1.78,-1.78,-2.10,-0.24,-0.23,-0.24
106,1.56,1.83,1.57,1.84,-1.84,-2.17,-0.28,-0.27,-0.28
107,1.59,1.90,1.59,1.90,-1.90,-2.24,-0.31,-0.30,-0.31
108,1.62,1.97,1.61,1.95,-1.95,-2.31,-0.34,-0.34,-0.35
109,1.65,2.03,1.63,2.01,-2.01,-2.37,-0.36,-0.38,-0.38
110,1.67,2.08,1.65,2.07,-2.07,-2.44,-0.40,-0.41,-0.41
111,1.69,2.14,1.67,2.12,-2.12,-2.50,-0.43,-0.45,-0.45
112,1.70,2.18,1.69,2.18,-2.18,-2.56,-0.48,-0.49,-0.48
113,1.72,2.23,1.71,2.23,-2.23,-2.61,-0.51,-0.52,-0.51
114,1.72,2.26,1.72,2.28,-2.28,-2.67,-0.56,-0.55,-0.54
115,1.74,2.31,1.74,2.33,-2.33,-2.72,-0.59,-0.59,-0.58
117,1.75,2.38,1.76,2.38,-2.38,-2.81,-0.63,-0.62,-0.64
118,1.75,2.41,1.77,2.43,-2.43,-2.85,-0.68,-0.66,-0.67
119,1.76,2.45,1.79,2.48,-2.48,-2.89,-0.72,-0.69,-0.69
120,1.78,2.50,1.80,2.53,-2.53,-2.92,-0.75,-0.73,-0.72
121,1.80,2.55,1.81,2.57,-2.57,-2.95,-0.78,-0.76,-0.75
123,1.85,2.65,1.83,2.62,-2.62,-3.01,-0.77,-0.79,-0.80
124,1.87,2.70,1.84,2.66,-2.66,-3.03,-0.79,-0.83,-0.83
125,1.88,2.73,1.84,2.70,-2.70,-3.05,-0.82,-0.86,-0.86
126,1.88,2.76,1.85,2.74,-2.74,-3.06,-0.86,-0.89,-0.88
128,1.87,2.80,1.85,2.77,-2.77,-3.08,-0.90,-0.92,-0.93
129,1.85,2.80,1.86,2.81,-2.81,-3.09,-0.96,-0.95,-0.95
130,1.83,2.81,1.86,2.83,-2.83,-3.09,-1.01,-0.98,-0.98
131,1.83,2.83,1.85,2.86,-2.86,-3.10,-1.03,-1.01,-1.00
133,1.82,2.86,1.85,2.89,-2.89,-3.09,-1.07,-1.04,-1.04
134,1.84,2.90,1.85,2.91,-2.91,-3.09,-1.07,-1.06,-1.06
135,1.85,2.93,1.84,2.93,-2.93,-3.08,-1.08,-1.09,-1.08
137,1.86,2.98,1.83,2.95,-2.95,-3.06,-1.09,-1.12,-1.12
138,1.86,3.00,1.83,2.97,-2.97,-3.05,-1.11,-1.15,-1.14
140,1.83,3.01,1.82,2.99,-2.99,-3.02,-1.16,-1.17,-1.18
141,1.81,3.01,1.81,3.01,-3.01,-3.00,-1.20,-1.20,-1.20
142,1.79,3.00,1.80,3.02,-3.02,-2.99,-1.23,-1.22,-1.22
144,1.77,3.02,1.79,3.04,-3.04,-2.95,-1.27,-1.25,-1.25
145,1.76,3.02,1.78,3.05,-3.05,-2.94,-1.29,-1.27,-1.27
147,1.76,3.06,1.77,3.07,-3.07,-2.90,-1.31,-1.29,-1.30
148,1.77,3.08,1.76,3.08,-3.08,-2.88,-1.31,-1.32,-1.31
150,1.77,3.11,1.75,3.09,-3.09,-2.85,-1.32,-1.34,-1.34
151,1.77,3.12,1.74,3.10,-3.10,-2.83,-1.33,-1.36,-1.36
153,1.76,3.14,1.73,3.11,-3.11,-2.79,-1.35,-1.38,-1.38
154,1.74,3.14,1.73,3.12,-3.12,-2.77,-1.39,-1.40,-1.40
156,1.70,3.12,1.72,3.14,-3.14,-2.74,-1.44,-1.42,-1.42
157,1.69,3.12,1.71,3.15,-3.15,-2.73,-1.46,-1.44,-1.43
159,1.67,3.13,1.70,3.16,-3.16,-2.70,-1.49,-1.46,-1.46
160,1.67,3.14,1.69,3.17,-3.17,-2.68,-1.50,-1.47,-1.47
162,1.67,3.16,1.69,3.18,-3.18,-2.65,-1.51,-1.49,-1.49
164,1.69,3.20,1.68,3.19,-3.19,-2.63,-1.50,-1.51,-1.51
165,1.68,3.20,1.67,3.20,-3.20,-2.62,-1.52,-1.53,-1.52
167,1.69,3.23,1.66,3.20,-3.20,-2.60,-1.51,-1.54,-1.54
169,1.67,3.23,1.65,3.21,-3.21,-2.58,-1.54,-1.56,-1.56
170,1.67,3.24,1.64,3.21,-3.21,-2.58,-1.54,-1.57,-1.57
172,1.64,3.23,1.63,3.21,-3.21,-2.56,-1.58,-1.59,-1.59
174,1.61,3.21,1.61,3.21,-3.21,-2.55,-1.61,-1.60,-1.60
175,1.60,3.21,1.60,3.21,-3.21,-2.55,-1.61,-1.62,-1.61
177,1.57,3.20,1.58,3.21,-3.21,-2.55,-1.64,-1.63,-1.63
179,1.54,3.18,1.56,3.20,-3.20,-2.54,-1.67,-1.64,-1.64
181,1.52,3.18,1.54,3.20,-3.20,-2.54,-1.68,-1.66,-1.66
183,1.50,3.17,1.52,3.19,-3.19,-2.54,-1.69,-1.67,-1.67
184,1.49,3.17,1.50,3.18,-3.18,-2.55,-1.69,-1.68,-1.68
186,1.49,3.18,1.48,3.17,-3.17,-2.55,-1.68,-1.69,-1.69
188,1.48,3.18,1.46,3.16,-3.16,-2.56,-1.68,-1.70,-1.70
190,1.46,3.17,1.43,3.15,-3.15,-2.57,-1.69,-1.71,-1.71
192,1.43,3.15,1.41,3.13,-3.13,-2.58,-1.70,-1.72,-1.72
194,1.40,3.13,1.38,3.11,-3.11,-2.60,-1.71,-1.73,-1.73
196,1.36,3.10,1.35,3.10,-3.10,-2.61,-1.74,-1.74,-1.74
198,1.31,3.06,1.32,3.08,-3.08,-2.63,-1.77,-1.75,-1.75
200,1.28,3.04,1.29,3.06,-3.06,-2.65,-1.78,-1.76,-1.76
202,1.24,3.01,1.26,3.03,-3.03,-2.66,-1.80,-1.77,-1.77
204,1.21,2.99,1.23,3.01,-3.01,-2.68,-1.80,-1.78,-1.78
206,1.19,2.98,1.20,2.99,-2.99,-2.71,-1.80,-1.79,-1.79
208,1.16,2.96,1.17,2.97,-2.97,-2.73,-1.81,-1.80,-1.80
210,1.14,2.94,1.14,2.94,-2.94,-2.75,-1.80,-1.80,-1.80
212,1.11,2.92,1.11,2.92,-2.92,-2.77,-1.81,-1.81,-1.81
214,1.09,2.91,1.07,2.89,-2.89,-2.79,-1.80,-1.82,-1.82
216,1.06,2.88,1.04,2.86,-2.86,-2.81,-1.80,-1.83,-1.82
218,1.04,2.87,1.00,2.83,-2.83,-2.83,-1.80,-1.83,-1.83
221,0.99,2.83,0.97,2.80,-2.80,-2.86,-1.82,-1.84,-1.84
223,0.94,2.78,0.93,2.77,-2.77,-2.88,-1.84,-1.85,-1.85
225,0.89,2.74,0.89,2.74,-2.74,-2.90,-1.85,-1.85,-1.85
227,0.85,2.71,0.86,2.71,-2.71,-2.91,-1.86,-1.86,-1.86
229,0.81,2.67,0.82,2.68,-2.68,-2.93,-1.88,-1.86,-1.86
232,0.76,2.63,0.79,2.66,-2.66,-2.95,-1.90,-1.87,-1.87
234,0.73,2.60,0.76,2.63,-2.63,-2.96,-1.90,-1.87,-1.87
236,0.72,2.60,0.73,2.61,-2.61,-2.97,-1.89,-1.88,-1.88
239,0.70,2.58,0.71,2.59,-2.59,-2.98,-1.89,-1.88,-1.88
241,0.69,2.58,0.69,2.57,-2.57,-2.98,-1.89,-1.89,-1.89
244,0.67,2.56,0.67,2.56,-2.56,-2.99,-1.89,-1.89,-1.89
246,0.66,2.56,0.65,2.55,-2.55,-2.99,-1.89,-1.90,-1.90
248,0.65,2.55,0.64,2.54,-2.54,-2.99,-1.89,-1.90,-1.90
251,0.63,2.53,0.63,2.53,-2.53,-2.98,-1.90,-1.91,-1.91
253,0.62,2.53,0.62,2.53,-2.53,-2.97,-1.91,-1.91,-1.91
256,0.61,2.52,0.61,2.52,-2.52,-2.96,-1.91,-1.91,-1.91
259,0.60,2.52,0.60,2.52,-2.52,-2.94,-1.92,-1.92,-1.92
261,0.59,2.51,0.59,2.51,-2.51,-2.93,-1.92,-1.92,-1.92
264,0.58,2.50,0.58,2.51,-2.51,-2.90,-1.93,-1.92,-1.92
266,0.58,2.51,0.57,2.50,-2.50,-2.89,-1.92,-1.93,-1.93
269,0.57,2.50,0.57,2.50,-2.50,-2.86,-1.93,-1.93,-1.93
272,0.56,2.49,0.56,2.49,-2.49,-2.83,-1.93,-1.93,-1.93
274,0.55,2.49,0.55,2.49,-2.49,-2.80,-1.94,-1.94,-1.94
277,0.54,2.48,0.54,2.48,-2.48,-2.77,-1.94,-1.94,-1.94
280,0.53,2.47,0.53,2.47,-2.47,-2.73,-1.94,-1.94,-1.94
283,0.52,2.46,0.52,2.46,-2.46,-2.70,-1.95,-1.95,-1.95
286,0.51,2.46,0.51,2.46,-2.46,-2.66,-1.95,-1.95,-1.95
288,0.50,2.45,0.50,2.45,-2.45,-2.63,-1.95,-1.95,-1.95
291,0.49,2.44,0.48,2.43,-2.43,-2.60,-1.95,-1.95,-1.95
294,0.47,2.42,0.47,2.42,-2.42,-2.56,-1.95,-1.95,-1.95
297,0.46,2.42,0.45,2.41,-2.41,-2.52,-1.95,-1.96,-1.96
300,0.44,2.40,0.44,2.39,-2.39,-2.48,-1.96,-1.96,-1.96
303,0.42,2.38,0.42,2.38,-2.38,-2.45,-1.96,-1.96,-1.96
306,0.40,2.36,0.40,2.36,-2.36,-2.41,-1.96,-1.96,-1.96
309,0.38,2.34,0.38,2.35,-2.35,-2.37,-1.97,-1.96,-1.96
312,0.36,2.33,0.36,2.33,-2.33,-2.34,-1.97,-1.97,-1.97
316,0.34,2.31,0.34,2.31,-2.31,-2.30,-1.97,-1.97,-1.97
319,0.32,2.29,0.32,2.29,-2.29,-2.26,-1.97,-1.97,-1.97
322,0.30,2.27,0.30,2.27,-2.27,-2.23,-1.97,-1.97,-1.97
325,0.28,2.25,0.28,2.25,-2.25,-2.20,-1.97,-1.97,-1.97
328,0.27,2.24,0.26,2.23,-2.23,-2.18,-1.97,-1.97,-1.97
332,0.24,2.22,0.24,2.21,-2.21,-2.14,-1.98,-1.98,-1.98
335,0.22,2.20,0.22,2.19,-2.19,-2.12,-1.98,-1.98,-1.98
338,0.20,2.18,0.20,2.17,-2.17,-2.10,-1.98,-1.98,-1.98
342,0.18,2.16,0.17,2.15,-2.15,-2.07,-1.98,-1.98,-1.98
345,0.16,2.14,0.15,2.14,-2.14,-2.05,-1.98,-1.98,-1.98
349,0.13,2.11,0.13,2.12,-2.12,-2.02,-1.99,-1.98,-1.98
352,0.11,2.09,0.11,2.10,-2.10,-2.01,-1.99,-1.98,-1.98
356,0.09,2.07,0.09,2.08,-2.08,-1.99,-1.99,-1.99,-1.99
359,0.07,2.06,0.08,2.06,-2.06,-1.97,-1.99,-1.99,-1.99
363,0.06,2.05,0.06,2.05,-2.05,-1.96,-1.99,-1.99,-1.99
366,0.04,2.03,0.04,2.03,-2.03,-1.95,-1.99,-1.99,-1.99
370,0.03,2.02,0.03,2.02,-2.02,-1.93,-1.99,-1.99,-1.99
374,0.01,2.00,0.01,2.01,-2.01,-1.92,-2.00,-1.99,-1.99
377,-0.00,1.99,0.00,1.99,-1.99,-1.92,-2.00,-1.99,-1.99
381,-0.01,1.98,-0.01,1.98,-1.98,-1.91,-2.00,-1.99,-1.99
385,-0.02,1.97,-0.02,1.98,-1.98,-1.90,-2.00,-2.00,-2.00
389,-0.03,1.97,-0.03,1.97,-1.97,-1.90,-2.00,-2.00,-2.00
393,-0.04,1.96,-0.04,1.96,-1.96,-1.89,-2.00,-2.00,-2.00
397,-0.05,1.95,-0.05,1.95,-1.95,-1.89,-2.00,-2.00,-2.00
401,-0.06,1.94,-0.06,1.95,-1.95,-1.89,-2.01,-2.00,-2.00
405,-0.06,1.94,-0.07,1.94,-1.94,-1.89,-2.00,-2.00,-2.00
409,-0.07,1.93,-0.08,1.93,-1.93,-1.89,-2.00,-2.00,-2.00
413,-0.08,1.92,-0.08,1.92,-1.92,-1.89,-2.00,-2.00,-2.00
417,-0.08,1.92,-0.09,1.91,-1.91,-1.89,-1.99,-2.00,-2.00
421,-0.09,1.91,-0.10,1.90,-1.90,-1.89,-1.99,-2.00,-2.00
425,-0.10,1.90,-0.11,1.89,-1.89,-1.90,-1.99,-2.00,-2.00
430,-0.11,1.89,-0.12,1.88,-1.88,-1.90,-1.99,-2.00,-2.00
434,-0.13,1.87,-0.13,1.87,-1.87,-1.90,-2.00,-2.00,-2.00
438,-0.14,1.86,-0.14,1.86,-1.86,-1.90,-2.00,-2.00,-2.00
443,-0.16,1.84,-0.14,1.85,-1.85,-1.90,-2.01,-2.00,-2.00
447,-0.18,1.81,-0.15,1.85,-1.85,-1.91,-2.03,-1.99,-1.99
451,-0.19,1.80,-0.15,1.84,-1.84,-1.91,-2.03,-1.99,-1.99
456,-0.18,1.80,-0.15,1.84,-1.84,-1.90,-2.02,-1.98,-1.98
460,-0.16,1.82,-0.15,1.83,-1.83,-1.90,-1.99,-1.98,-1.98
465,-0.13,1.84,-0.14,1.83,-1.83,-1.90,-1.96,-1.97,-1.97
470,-0.11,1.85,-0.14,1.82,-1.82,-1.89,-1.93,-1.96,-1.96
474,-0.10,1.85,-0.14,1.81,-1.81,-1.89,-1.92,-1.95,-1.95
479,-0.10,1.84,-0.14,1.81,-1.81,-1.88,-1.91,-1.94,-1.94
484,-0.11,1.82,-0.14,1.80,-1.80,-1.87,-1.91,-1.93,-1.93
489,-0.14,1.78,-0.14,1.78,-1.78,-1.86,-1.93,-1.92,-1.92
494,-0.15,1.76,-0.14,1.77,-1.77,-1.84,-1.92,-1.91,-1.91
499,-0.16,1.73,-0.14,1.75,-1.75,-1.83,-1.92,-1.89,-1.89
504,-0.16,1.72,-0.14,1.74,-1.74,-1.81,-1.90,-1.88,-1.88
509,-0.16,1.70,-0.14,1.72,-1.72,-1.79,-1.88,-1.86,-1.86
514,-0.15,1.69,-0.15,1.70,-1.70,-1.77,-1.85,-1.84,-1.84
519,-0.14,1.69,-0.15,1.68,-1.68,-1.74,-1.82,-1.83,-1.83
524,-0.14,1.67,-0.15,1.65,-1.65,-1.72,-1.79,-1.81,-1.81
529,-0.15,1.64,-0.16,1.63,-1.63,-1.69,-1.78,-1.79,-1.79
535,-0.15,1.61,-0.16,1.60,-1.60,-1.65,-1.75,-1.76,-1.76
540,-0.16,1.58,-0.16,1.58,-1.58,-1.62,-1.74,-1.74,-1.74
545,-0.16,1.56,-0.17,1.55,-1.55,-1.59,-1.71,-1.72,-1.72
551,-0.18,1.51,-0.17,1.52,-1.52,-1.55,-1.70,-1.69,-1.69
556,-0.18,1.49,-0.17,1.50,-1.50,-1.52,-1.68,-1.67,-1.67
562,-0.18,1.46,-0.18,1.47,-1.47,-1.48,-1.65,-1.64,-1.64
568,-0.19,1.43,-0.18,1.44,-1.44,-1.43,-1.63,-1.62,-1.62
573,-0.18,1.41,-0.18,1.41,-1.41,-1.40,-1.59,-1.59,-1.59
579,-0.19,1.37,-0.18,1.38,-1.38,-1.36,-1.57,-1.56,-1.56
585,-0.18,1.35,-0.18,1.35,-1.35,-1.31,-1.53,-1.53,-1.53
591,-0.18,1.32,-0.18,1.32,-1.32,-1.27,-1.50,-1.50,-1.50
596,-0.18,1.29,-0.18,1.29,-1.29,-1.23,-1.47,-1.47,-1.47
602,-0.19,1.25,-0.18,1.26,-1.26,-1.19,-1.45,-1.44,-1.44
608,-0.19,1.22,-0.18,1.23,-1.23,-1.14,-1.42,-1.41,-1.41
615,-0.19,1.19,-0.19,1.19,-1.19,-1.09,-1.38,-1.38,-1.38
621,-0.21,1.14,-0.20,1.15,-1.15,-1.05,-1.36,-1.35,-1.35
627,-0.21,1.10,-0.21,1.10,-1.10,-1.01,-1.31,-1.31,-1.31
633,-0.23,1.05,-0.23,1.05,-1.05,-0.97,-1.28,-1.28,-1.28
639,-0.23,1.02,-0.26,0.99,-0.99,-0.93,-1.22,-1.25,-1.25
646,-0.25,0.96,-0.29,0.93,-0.93,-0.88,-1.18,-1.21,-1.21
652,-0.27,0.91,-0.32,0.85,-0.85,-0.84,-1.13,-1.18,-1.18
659,-0.31,0.83,-0.36,0.78,-0.78,-0.79,-1.09,-1.14,-1.14
665,-0.35,0.76,-0.41,0.70,-0.70,-0.75,-1.05,-1.11,-1.11
672,-0.41,0.66,-0.45,0.62,-0.62,-0.71,-1.03,-1.07,-1.07
679,-0.47,0.56,-0.49,0.54,-0.54,-0.67,-1.01,-1.03,-1.03
686,-0.54,0.45,-0.53,0.47,-0.47,-0.62,-1.01,-1.00,-1.00
692,-0.59,0.37,-0.55,0.40,-0.40,-0.59,-1.00,-0.96,-0.96
699,-0.65,0.27,-0.57,0.35,-0.35,-0.55,-1.00,-0.92,-0.92
706,-0.67,0.21,-0.58,0.30,-0.30,-0.51,-0.97,-0.88,-0.88
713,-0.67,0.17,-0.57,0.27,-0.27,-0.47,-0.94,-0.84,-0.85
721,-0.64,0.17,-0.56,0.25,-0.25,-0.42,-0.89,-0.81,-0.81
728,-0.59,0.18,-0.53,0.24,-0.24,-0.38,-0.83,-0.77,-0.77
735,-0.52,0.21,-0.50,0.24,-0.24,-0.35,-0.76,-0.73,-0.73
742,-0.44,0.25,-0.45,0.24,-0.24,-0.31,-0.68,-0.69,-0.69
750,-0.36,0.29,-0.41,0.25,-0.25,-0.27,-0.61,-0.66,-0.66
757,-0.29,0.33,-0.36,0.26,-0.26,-0.24,-0.55,-0.62,-0.62
765,-0.25,0.33,-0.32,0.26,-0.26,-0.20,-0.52,-0.58,-0.58
773,-0.21,0.33,-0.28,0.27,-0.27,-0.16,-0.48,-0.54,-0.54
780,-0.19,0.32,-0.24,0.27,-0.27,-0.12,-0.46,-0.51,-0.51
788,-0.17,0.30,-0.21,0.26,-0.26,-0.09,-0.43,-0.47,-0.47
796,-0.17,0.27,-0.19,0.25,-0.25,-0.05,-0.42,-0.44,-0.44
804,-0.17,0.23,-0.17,0.23,-0.23,-0.01,-0.40,-0.40,-0.40
812,-0.17,0.20,-0.16,0.21,-0.21,0.02,-0.38,-0.37,-0.37
820,-0.17,0.16,-0.15,0.19,-0.19,0.06,-0.36,-0.34,-0.34
828,-0.18,0.12,-0.14,0.16,-0.16,0.09,-0.34,-0.30,-0.30
837,-0.17,0.10,-0.13,0.14,-0.14,0.13,-0.31,-0.27,-0.27
845,-0.16,0.08,-0.13,0.11,-0.11,0.16,-0.28,-0.24,-0.24
853,-0.14,0.07,-0.12,0.09,-0.09,0.19,-0.23,-0.21,-0.21
862,-0.11,0.07,-0.11,0.07,-0.07,0.23,-0.18,-0.18,-0.18
871,-0.08,0.07,-0.09,0.05,-0.05,0.26,-0.14,-0.15,-0.15
879,-0.06,0.06,-0.08,0.04,-0.04,0.29,-0.10,-0.12,-0.12
888,-0.05,0.04,-0.07,0.02,-0.02,0.32,-0.07,-0.09,-0.09
897,-0.05,0.01,-0.06,0.01,-0.01,0.36,-0.06,-0.06,-0.06
906,-0.03,0.00,-0.05,-0.01,0.01,0.39,-0.02,-0.04,-0.04
915,-0.03,-0.02,-0.03,-0.03,0.03,0.42,-0.01,-0.01,-0.01
924,-0.03,-0.05,-0.02,-0.04,0.04,0.45,0.01,0.02,0.02
933,-0.03,-0.08,-0.01,-0.06,0.06,0.48,0.03,0.05,0.05
943,-0.02,-0.09,-0.01,-0.08,0.08,0.51,0.06,0.07,0.07
952,-0.02,-0.12,-0.00,-0.10,0.10,0.54,0.08,0.10,0.10
962,-0.02,-0.15,-0.00,-0.13,0.13,0.57,0.11,0.13,0.13
971,-0.01,-0.16,-0.00,-0.15,0.15,0.60,0.14,0.15,0.15
981,0.01,-0.17,-0.01,-0.19,0.19,0.63,0.20,0.18,0.18
991,0.01,-0.20,-0.02,-0.22,0.22,0.66,0.23,0.21,0.21
1001,-0.00,-0.23,-0.03,-0.26,0.26,0.69,0.26,0.23,0.23
1011,-0.01,-0.27,-0.05,-0.31,0.31,0.71,0.30,0.26,0.26
1021,-0.04,-0.33,-0.07,-0.36,0.36,0.74,0.32,0.29,0.29
1031,-0.08,-0.40,-0.10,-0.41,0.41,0.77,0.33,0.31,0.31
1041,-0.13,-0.47,-0.13,-0.47,0.47,0.79,0.34,0.34,0.34
1052,-0.17,-0.54,-0.16,-0.53,0.53,0.82,0.36,0.37,0.37
1062,-0.21,-0.61,-0.19,-0.59,0.59,0.85,0.38,0.40,0.40
1073,-0.25,-0.68,-0.23,-0.66,0.66,0.87,0.41,0.43,0.43
1084,-0.28,-0.74,-0.27,-0.73,0.73,0.90,0.45,0.46,0.46
1094,-0.31,-0.80,-0.31,-0.79,0.79,0.93,0.48,0.49,0.49
1105,-0.34,-0.86,-0.34,-0.86,0.86,0.95,0.52,0.52,0.52
1116,-0.37,-0.92,-0.38,-0.92,0.92,0.98,0.55,0.55,0.55
1128,-0.41,-0.99,-0.41,-0.99,0.99,1.01,0.58,0.58,0.58
1139,-0.44,-1.05,-0.44,-1.05,1.05,1.04,0.61,0.61,0.61
1150,-0.48,-1.12,-0.47,-1.11,1.11,1.06,0.62,0.64,0.64
1162,-0.51,-1.18,-0.49,-1.16,1.16,1.09,0.65,0.67,0.67
1173,-0.53,-1.23,-0.52,-1.22,1.22,1.12,0.69,0.70,0.70
1185,-0.55,-1.28,-0.54,-1.27,1.27,1.15,0.72,0.73,0.73
1197,-0.57,-1.34,-0.56,-1.32,1.32,1.18,0.75,0.76,0.76
1209,-0.58,-1.38,-0.58,-1.37,1.37,1.21,0.79,0.80,0.80
1221,-0.59,-1.42,-0.59,-1.43,1.43,1.25,0.83,0.83,0.83
1233,-0.61,-1.47,-0.61,-1.48,1.48,1.28,0.87,0.86,0.86
1246,-0.63,-1.53,-0.64,-1.53,1.53,1.32,0.90,0.90,0.90
1258,-0.66,-1.59,-0.66,-1.59,1.59,1.35,0.93,0.93,0.93
1271,-0.68,-1.65,-0.69,-1.65,1.65,1.39,0.97,0.97,0.97
1283,-0.70,-1.70,-0.72,-1.72,1.72,1.42,1.02,1.00,1.00
1296,-0.74,-1.78,-0.75,-1.79,1.79,1.46,1.05,1.03,1.03
1309,-0.78,-1.85,-0.79,-1.87,1.87,1.50,1.08,1.07,1.07
1322,-0.82,-1.93,-0.84,-1.95,1.95,1.55,1.13,1.11,1.11
1335,-0.87,-2.01,-0.89,-2.03,2.03,1.59,1.16,1.14,1.14
1349,-0.93,-2.11,-0.95,-2.12,2.12,1.64,1.19,1.18,1.18
1362,-1.00,-2.22,-1.00,-2.22,2.22,1.68,1.22,1.22,1.22
1376,-1.08,-2.33,-1.07,-2.32,2.32,1.73,1.24,1.25,1.25
1390,-1.15,-2.44,-1.13,-2.42,2.42,1.78,1.27,1.29,1.29
1404,-1.22,-2.55,-1.20,-2.53,2.53,1.83,1.31,1.33,1.33
1418,-1.29,-2.66,-1.27,-2.64,2.64,1.88,1.35,1.37,1.37
1432,-1.34,-2.75,-1.35,-2.75,2.75,1.94,1.41,1.41,1.41
1446,-1.40,-2.85,-1.42,-2.87,2.87,1.99,1.47,1.44,1.44
1461,-1.48,-2.97,-1.50,-2.98,2.98,2.05,1.50,1.48,1.48
1475,-1.54,-3.07,-1.57,-3.10,3.10,2.10,1.56,1.52,1.52
1490,-1.62,-3.19,-1.65,-3.21,3.21,2.16,1.59,1.56,1.56
1505,-1.70,-3.31,-1.72,-3.32,3.32,2.23,1.62,1.61,1.61
1520,-1.78,-3.43,-1.79,-3.43,3.43,2.29,1.65,1.65,1.65
1535,-1.85,-3.54,-1.85,-3.54,3.54,2.35,1.69,1.69,1.69
1550,-1.91,-3.64,-1.90,-3.63,3.63,2.42,1.72,1.73,1.73
1566,-1.97,-3.74,-1.95,-3.72,3.72,2.48,1.75,1.77,1.77
1582,-2.00,-3.82,-1.98,-3.80,3.80,2.55,1.79,1.82,1.82
1597,-2.03,-3.89,-2.00,-3.86,3.86,2.62,1.83,1.86,1.86
1613,-2.04,-3.94,-2.01,-3.91,3.91,2.68,1.87,1.90,1.90
1629,-2.04,-3.99,-2.01,-3.95,3.95,2.75,1.91,1.95,1.95
1646,-2.02,-4.01,-1.99,-3.98,3.98,2.82,1.96,1.99,1.99
1662,-1.98,-4.02,-1.96,-3.99,3.99,2.89,2.01,2.04,2.04
1679,-1.92,-4.00,-1.91,-3.99,3.99,2.96,2.07,2.08,2.08
1696,-1.84,-3.97,-1.85,-3.98,3.98,3.03,2.14,2.13,2.13
1713,-1.77,-3.95,-1.78,-3.96,3.96,3.09,2.19,2.17,2.18
1730,-1.68,-3.90,-1.71,-3.93,3.93,3.16,2.25,2.22,2.22
1747,-1.60,-3.87,-1.62,-3.89,3.89,3.22,2.29,2.27,2.27
1764,-1.51,-3.83,-1.52,-3.84,3.84,3.28,2.33,2.32,2.32
