frequency,raw
20.00,0.05
20.20,0.11
20.40,0.16
20.61,0.22
20.81,0.27
21.02,0.33
21.23,0.39
21.44,0.44
21.66,0.50
21.87,0.55
22.09,0.60
22.31,0.65
22.54,0.70
22.76,0.75
22.99,0.80
23.22,0.85
23.45,0.90
23.69,0.95
23.92,1.00
24.16,1.05
24.40,1.10
24.65,1.15
24.89,1.20
25.14,1.24
25.39,1.29
25.65,1.33
25.91,1.38
26.16,1.42
26.43,1.47
26.69,1.52
26.96,1.56
27.23,1.61
27.50,1.66
27.77,1.70
28.05,1.74
28.33,1.78
28.62,1.82
28.90,1.86
29.19,1.89
29.48,1.93
29.78,1.97
30.08,2.01
30.38,2.05
30.68,2.09
30.99,2.13
31.30,2.17
31.61,2.20
31.93,2.24
32.24,2.28
32.57,2.31
32.89,2.35
33.22,2.38
33.55,2.41
33.89,2.45
34.23,2.48
34.57,2.50
34.92,2.53
35.27,2.56
35.62,2.59
35.97,2.62
36.33,2.65
36.70,2.68
37.06,2.70
37.43,2.73
37.81,2.76
38.19,2.79
38.57,2.82
38.95,2.84
39.34,2.86
39.74,2.88
40.14,2.90
40.54,2.93
40.94,2.95
41.35,2.97
41.76,2.99
42.18,3.01
42.60,3.03
43.03,3.06
43.46,3.09
43.90,3.11
44.33,3.13
44.78,3.14
45.23,3.15
45.68,3.17
46.13,3.18
46.60,3.20
47.06,3.22
47.53,3.23
48.01,3.24
48.49,3.26
48.97,3.27
49.46,3.29
49.96,3.30
50.46,3.31
50.96,3.31
51.47,3.32
51.99,3.33
52.51,3.34
53.03,3.35
53.56,3.36
54.10,3.36
54.64,3.37
55.18,3.38
55.74,3.39
56.29,3.39
56.86,3.40
57.42,3.40
58.00,3.40
58.58,3.41
59.16,3.41
59.76,3.42
60.35,3.42
60.96,3.42
61.57,3.42
62.18,3.42
62.80,3.42
63.43,3.42
64.07,3.42
64.71,3.42
65.35,3.42
66.01,3.42
66.67,3.41
67.33,3.41
68.01,3.40
68.69,3.40
69.37,3.40
70.07,3.39
70.77,3.38
71.48,3.37
72.19,3.37
72.91,3.36
73.64,3.35
74.38,3.34
75.12,3.33
75.87,3.32
76.63,3.31
77.40,3.30
78.17,3.29
78.95,3.28
79.74,3.27
80.54,3.26
81.35,3.25
82.16,3.22
82.98,3.21
83.81,3.20
84.65,3.18
85.50,3.17
86.35,3.15
87.22,3.13
88.09,3.11
88.97,3.10
89.86,3.08
90.76,3.07
91.66,3.05
92.58,3.04
93.51,3.02
94.44,3.00
95.39,2.98
96.34,2.95
97.30,2.94
98.28,2.92
99.26,2.90
100.25,2.87
101.25,2.85
102.27,2.82
103.29,2.79
104.32,2.77
105.37,2.75
106.42,2.73
107.48,2.70
108.56,2.68
109.64,2.65
110.74,2.62
111.85,2.60
112.97,2.57
114.10,2.54
115.24,2.51
116.39,2.49
117.55,2.46
118.73,2.43
119.92,2.40
121.12,2.38
122.33,2.35
123.55,2.32
124.79,2.29
126.03,2.26
127.29,2.23
128.57,2.20
129.85,2.17
131.15,2.13
132.46,2.10
133.79,2.07
135.12,2.04
136.48,2.01
137.84,1.98
139.22,1.94
140.61,1.91
142.02,1.87
143.44,1.84
144.87,1.81
146.32,1.77
147.78,1.74
149.26,1.71
150.75,1.67
152.26,1.64
153.78,1.61
155.32,1.57
156.88,1.54
158.44,1.50
160.03,1.47
161.63,1.43
163.24,1.40
164.88,1.36
166.53,1.33
168.19,1.29
169.87,1.26
171.57,1.22
173.29,1.18
175.02,1.15
176.77,1.12
178.54,1.08
180.32,1.05
182.13,1.01
183.95,0.98
185.79,0.95
187.65,0.91
189.52,0.88
191.42,0.84
193.33,0.81
195.27,0.77
197.22,0.74
199.19,0.70
201.18,0.67
203.19,0.64
205.23,0.60
207.28,0.57
209.35,0.54
211.44,0.50
213.56,0.47
215.69,0.43
217.85,0.40
220.03,0.37
222.23,0.34
224.45,0.31
226.70,0.28
228.96,0.25
231.25,0.22
233.57,0.19
235.90,0.16
238.26,0.13
240.64,0.10
243.05,0.08
245.48,0.04
247.93,0.01
250.41,-0.01
252.92,-0.04
255.45,-0.07
258.00,-0.09
260.58,-0.12
263.19,-0.14
265.82,-0.17
268.48,-0.19
271.16,-0.21
273.87,-0.24
276.61,-0.26
279.38,-0.28
282.17,-0.30
284.99,-0.32
287.84,-0.34
290.72,-0.36
293.63,-0.38
296.57,-0.39
299.53,-0.41
302.53,-0.43
305.55,-0.45
308.61,-0.46
311.69,-0.47
314.81,-0.49
317.96,-0.50
321.14,-0.51
324.35,-0.52
327.59,-0.53
330.87,-0.54
334.18,-0.55
337.52,-0.56
340.90,-0.57
344.30,-0.57
347.75,-0.58
351.23,-0.59
354.74,-0.59
358.28,-0.59
361.87,-0.60
365.49,-0.60
369.14,-0.60
372.83,-0.60
376.56,-0.60
380.33,-0.60
384.13,-0.59
387.97,-0.59
391.85,-0.59
395.77,-0.58
399.73,-0.58
403.72,-0.57
407.76,-0.57
411.84,-0.56
415.96,-0.55
420.12,-0.55
424.32,-0.54
428.56,-0.53
432.85,-0.52
437.18,-0.51
441.55,-0.50
445.96,-0.49
450.42,-0.47
454.93,-0.46
459.48,-0.45
464.07,-0.44
468.71,-0.42
473.40,-0.41
478.13,-0.40
482.91,-0.38
487.74,-0.37
492.62,-0.36
497.55,-0.34
502.52,-0.33
507.55,-0.31
512.62,-0.30
517.75,-0.29
522.93,-0.28
528.16,-0.26
533.44,-0.25
538.77,-0.24
544.16,-0.23
549.60,-0.22
555.10,-0.21
560.65,-0.20
566.25,-0.19
571.92,-0.18
577.64,-0.18
583.41,-0.17
589.25,-0.16
595.14,-0.16
601.09,-0.15
607.10,-0.15
613.17,-0.15
619.30,-0.15
625.50,-0.15
631.75,-0.15
638.07,-0.15
644.45,-0.15
650.89,-0.15
657.40,-0.15
663.98,-0.16
670.62,-0.16
677.32,-0.17
684.10,-0.18
690.94,-0.18
697.85,-0.19
704.83,-0.20
711.87,-0.21
718.99,-0.22
726.18,-0.22
733.44,-0.23
740.78,-0.24
748.19,-0.25
755.67,-0.26
763.23,-0.27
770.86,-0.28
778.57,-0.29
786.35,-0.29
794.22,-0.30
802.16,-0.31
810.18,-0.31
818.28,-0.31
826.46,-0.32
834.73,-0.32
843.08,-0.32
851.51,-0.32
860.02,-0.31
868.62,-0.31
877.31,-0.30
886.08,-0.29
894.94,-0.28
903.89,-0.27
912.93,-0.25
922.06,-0.23
931.28,-0.21
940.59,-0.19
950.00,-0.16
959.50,-0.14
969.09,-0.11
978.78,-0.08
988.57,-0.04
998.46,-0.01
1008.44,0.03
1018.53,0.07
1028.71,0.11
1039.00,0.16
1049.39,0.20
1059.88,0.25
1070.48,0.29
1081.19,0.34
1092.00,0.39
1102.92,0.44
1113.95,0.49
1125.09,0.54
1136.34,0.60
1147.70,0.65
1159.18,0.70
1170.77,0.75
1182.48,0.81
1194.30,0.86
1206.25,0.91
1218.31,0.96
1230.49,1.02
1242.80,1.07
1255.22,1.12
1267.78,1.17
1280.45,1.22
1293.26,1.28
1306.19,1.33
1319.25,1.38
1332.45,1.43
1345.77,1.49
1359.23,1.54
1372.82,1.59
1386.55,1.65
1400.41,1.70
1414.42,1.76
1428.56,1.82
1442.85,1.88
1457.28,1.94
1471.85,2.00
1486.57,2.06
1501.43,2.12
1516.45,2.19
1531.61,2.26
1546.93,2.33
1562.40,2.41
1578.02,2.48
1593.80,2.56
1609.74,2.64
1625.84,2.72
1642.10,2.81
1658.52,2.90
1675.10,2.99
1691.85,3.08
1708.77,3.18
1725.86,3.28
1743.12,3.39
1760.55,3.49
1778.15,3.60
1795.94,3.71
1813.90,3.83
1832.03,3.95
1850.36,4.06
1868.86,4.19
1887.55,4.31
1906.42,4.43
1925.49,4.55
1944.74,4.67
1964.19,4.79
1983.83,4.90
2003.67,5.01
2023.71,5.11
2043.94,5.21
2064.38,5.29
2085.03,5.37
2105.88,5.44
2126.94,5.49
2148.20,5.53
2169.69,5.55
2191.38,5.56
2213.30,5.54
2235.43,5.51
2257.78,5.46
2280.36,5.39
2303.17,5.30
2326.20,5.19
2349.46,5.06
2372.95,4.91
2396.68,4.75
2420.65,4.57
2444.86,4.38
2469.31,4.18
2494.00,3.97
2518.94,3.76
2544.13,3.56
2569.57,3.36
2595.27,3.17
2621.22,2.99
2647.43,2.82
2673.90,2.67
2700.64,2.52
2727.65,2.38
2754.93,2.25
2782.48,2.12
2810.30,1.99
2838.40,1.86
2866.79,1.74
2895.46,1.63
2924.41,1.52
2953.65,1.41
2983.19,1.32
3013.02,1.23
3043.15,1.16
3073.58,1.10
3104.32,1.05
3135.36,1.02
3166.72,1.01
3198.38,1.01
3230.37,1.04
3262.67,1.08
3295.30,1.14
3328.25,1.22
3361.53,1.31
3395.15,1.42
3429.10,1.55
3463.39,1.70
3498.03,1.87
3533.01,2.07
3568.34,2.29
3604.02,2.53
3640.06,2.79
3676.46,3.07
3713.22,3.36
3750.36,3.66
3787.86,3.97
3825.74,4.27
3864.00,4.56
3902.64,4.82
3941.66,5.08
3981.08,5.30
4020.89,5.48
4061.10,5.65
4101.71,5.76
4142.73,5.86
4184.15,5.93
4226.00,5.97
4268.26,6.01
4310.94,6.04
4354.05,6.06
4397.59,6.08
4441.56,6.10
4485.98,6.12
4530.84,6.15
4576.15,6.17
4621.91,6.20
4668.13,6.22
4714.81,6.24
4761.96,6.25
4809.58,6.24
4857.67,6.20
4906.25,6.09
4955.31,5.93
5004.87,5.67
5054.91,5.25
5105.46,4.72
5156.52,4.08
5208.08,3.33
5260.16,2.60
5312.77,1.91
5365.89,1.33
5419.55,0.88
5473.75,0.53
5528.49,0.27
5583.77,0.08
5639.61,-0.09
5696.00,-0.26
5752.96,-0.43
5810.49,-0.59
5868.60,-0.64
5927.28,-0.67
5986.56,-0.67
6046.42,-0.62
6106.89,-0.55
6167.96,-0.48
6229.64,-0.40
6291.93,-0.30
6354.85,-0.18
6418.40,-0.05
6482.58,0.11
6547.41,0.30
6612.88,0.49
6679.01,0.69
6745.80,0.89
6813.26,1.08
6881.39,1.25
6950.21,1.38
7019.71,1.46
7089.91,1.48
7160.81,1.43
7232.41,1.34
7304.74,1.20
7377.79,1.01
7451.56,0.78
7526.08,0.54
7601.34,0.31
7677.35,0.13
7754.13,-0.04
7831.67,-0.15
7909.98,-0.26
7989.08,-0.36
8068.98,-0.47
8149.67,-0.59
8231.16,-0.73
8313.47,-0.88
8396.61,-1.04
8480.57,-1.20
8565.38,-1.37
8651.03,-1.53
8737.54,-1.70
8824.92,-1.89
8913.17,-2.12
9002.30,-2.35
9092.32,-2.64
9183.25,-2.95
9275.08,-3.26
9367.83,-3.56
9461.51,-3.78
9556.12,-3.93
9651.68,-4.01
9748.20,-4.01
9845.68,-3.89
9944.14,-3.69
10043.58,-3.42
10144.02,-3.10
10245.46,-2.76
10347.91,-2.42
10451.39,-2.11
10555.91,-1.90
10661.46,-1.86
10768.08,-1.98
10875.76,-2.39
10984.52,-3.03
11094.36,-3.78
11205.31,-4.66
11317.36,-5.57
11430.53,-6.47
11544.84,-7.31
11660.29,-8.09
11776.89,-8.82
11894.66,-9.37
12013.60,-9.89
12133.74,-10.28
12255.08,-10.52
12377.63,-10.66
12501.41,-10.69
12626.42,-10.55
12752.68,-10.29
12880.21,-9.83
13009.01,-9.27
13139.10,-8.71
13270.49,-7.84
13403.20,-6.87
13537.23,-5.64
13672.60,-4.29
13809.33,-2.83
13947.42,-1.38
14086.90,-0.36
14227.77,0.40
14370.04,0.62
14513.74,0.24
14658.88,-0.63
14805.47,-1.49
14953.52,-2.35
15103.06,-3.03
15254.09,-3.63
15406.63,-3.98
15560.70,-4.26
15716.30,-4.46
15873.47,-4.76
16032.20,-5.18
16192.52,-5.95
16354.45,-6.61
16517.99,-7.06
16683.17,-6.24
16850.01,-5.04
17018.51,-3.61
17188.69,-2.58
17360.58,-1.93
17534.18,-1.55
17709.53,-1.42
17886.62,-1.31
18065.49,-1.16
18246.14,-0.93
18428.60,-0.47
18612.89,0.13
18799.02,0.74
18987.01,1.16
19176.88,0.44
19368.65,-1.25
19562.33,-3.69
19757.96,-6.54
19955.54,-9.21
