frequency,raw
20.00,9.08
20.20,9.09
20.40,9.10
20.61,9.11
20.81,9.12
21.02,9.13
21.23,9.14
21.44,9.16
21.66,9.17
21.87,9.17
22.09,9.18
22.31,9.19
22.54,9.20
22.76,9.21
22.99,9.22
23.22,9.22
23.45,9.23
23.69,9.24
23.92,9.25
24.16,9.25
24.40,9.26
24.65,9.27
24.89,9.28
25.14,9.28
25.39,9.29
25.65,9.30
25.91,9.30
26.16,9.31
26.43,9.32
26.69,9.33
26.96,9.33
27.23,9.34
27.50,9.35
27.77,9.35
28.05,9.36
28.33,9.37
28.62,9.37
28.90,9.38
29.19,9.38
29.48,9.39
29.78,9.39
30.08,9.40
30.38,9.40
30.68,9.40
30.99,9.41
31.30,9.41
31.61,9.42
31.93,9.42
32.24,9.42
32.57,9.43
32.89,9.43
33.22,9.43
33.55,9.43
33.89,9.44
34.23,9.44
34.57,9.44
34.92,9.45
35.27,9.45
35.62,9.45
35.97,9.45
36.33,9.45
36.70,9.46
37.06,9.46
37.43,9.46
37.81,9.46
38.19,9.47
38.57,9.47
38.95,9.47
39.34,9.47
39.74,9.47
40.14,9.47
40.54,9.47
40.94,9.47
41.35,9.47
41.76,9.47
42.18,9.47
42.60,9.47
43.03,9.47
43.46,9.46
43.90,9.46
44.33,9.46
44.78,9.46
45.23,9.46
45.68,9.46
46.13,9.45
46.60,9.45
47.06,9.45
47.53,9.45
48.01,9.44
48.49,9.44
48.97,9.44
49.46,9.43
49.96,9.43
50.46,9.43
50.96,9.42
51.47,9.42
51.99,9.42
52.51,9.41
53.03,9.41
53.56,9.40
54.10,9.40
54.64,9.39
55.18,9.39
55.74,9.38
56.29,9.37
56.86,9.37
57.42,9.36
58.00,9.35
58.58,9.35
59.16,9.34
59.76,9.33
60.35,9.33
60.96,9.32
61.57,9.31
62.18,9.30
62.80,9.29
63.43,9.29
64.07,9.28
64.71,9.27
65.35,9.26
66.01,9.25
66.67,9.24
67.33,9.23
68.01,9.22
68.69,9.21
69.37,9.20
70.07,9.19
70.77,9.18
71.48,9.16
72.19,9.15
72.91,9.14
73.64,9.13
74.38,9.12
75.12,9.10
75.87,9.09
76.63,9.08
77.40,9.06
78.17,9.05
78.95,9.04
79.74,9.02
80.54,9.01
81.35,8.99
82.16,8.98
82.98,8.97
83.81,8.95
84.65,8.93
85.50,8.92
86.35,8.90
87.22,8.89
88.09,8.87
88.97,8.85
89.86,8.84
90.76,8.82
91.66,8.80
92.58,8.78
93.51,8.77
94.44,8.75
95.39,8.73
96.34,8.71
97.30,8.69
98.28,8.67
99.26,8.65
100.25,8.63
101.25,8.61
102.27,8.59
103.29,8.57
104.32,8.54
105.37,8.52
106.42,8.50
107.48,8.48
108.56,8.46
109.64,8.44
110.74,8.41
111.85,8.39
112.97,8.37
114.10,8.34
115.24,8.32
116.39,8.29
117.55,8.27
118.73,8.25
119.92,8.22
121.12,8.20
122.33,8.17
123.55,8.14
124.79,8.12
126.03,8.09
127.29,8.06
128.57,8.04
129.85,8.01
131.15,7.98
132.46,7.95
133.79,7.93
135.12,7.90
136.48,7.87
137.84,7.84
139.22,7.81
140.61,7.78
142.02,7.75
143.44,7.72
144.87,7.69
146.32,7.66
147.78,7.63
149.26,7.60
150.75,7.57
152.26,7.54
153.78,7.50
155.32,7.47
156.88,7.44
158.44,7.41
160.03,7.37
161.63,7.34
163.24,7.31
164.88,7.27
166.53,7.24
168.19,7.21
169.87,7.17
171.57,7.14
173.29,7.10
175.02,7.07
176.77,7.03
178.54,7.00
180.32,6.96
182.13,6.92
183.95,6.88
185.79,6.85
187.65,6.81
189.52,6.77
191.42,6.74
193.33,6.70
195.27,6.66
197.22,6.62
199.19,6.58
201.18,6.54
203.19,6.50
205.23,6.46
207.28,6.42
209.35,6.38
211.44,6.34
213.56,6.30
215.69,6.26
217.85,6.22
220.03,6.18
222.23,6.14
224.45,6.09
226.70,6.05
228.96,6.01
231.25,5.97
233.57,5.92
235.90,5.88
238.26,5.83
240.64,5.79
243.05,5.75
245.48,5.70
247.93,5.66
250.41,5.61
252.92,5.57
255.45,5.52
258.00,5.47
260.58,5.43
263.19,5.38
265.82,5.33
268.48,5.29
271.16,5.24
273.87,5.19
276.61,5.14
279.38,5.10
282.17,5.05
284.99,5.00
287.84,4.95
290.72,4.90
293.63,4.85
296.57,4.80
299.53,4.75
302.53,4.70
305.55,4.65
308.61,4.60
311.69,4.55
314.81,4.50
317.96,4.45
321.14,4.40
324.35,4.34
327.59,4.29
330.87,4.24
334.18,4.19
337.52,4.14
340.90,4.08
344.30,4.03
347.75,3.98
351.23,3.92
354.74,3.87
358.28,3.82
361.87,3.76
365.49,3.71
369.14,3.65
372.83,3.60
376.56,3.54
380.33,3.49
384.13,3.43
387.97,3.38
391.85,3.32
395.77,3.27
399.73,3.21
403.72,3.15
407.76,3.10
411.84,3.04
415.96,2.99
420.12,2.93
424.32,2.87
428.56,2.82
432.85,2.76
437.18,2.70
441.55,2.65
445.96,2.59
450.42,2.53
454.93,2.48
459.48,2.42
464.07,2.36
468.71,2.31
473.40,2.25
478.13,2.19
482.91,2.14
487.74,2.08
492.62,2.02
497.55,1.97
502.52,1.91
507.55,1.85
512.62,1.80
517.75,1.74
522.93,1.68
528.16,1.63
533.44,1.57
538.77,1.52
544.16,1.46
549.60,1.41
555.10,1.35
560.65,1.30
566.25,1.24
571.92,1.19
577.64,1.13
583.41,1.08
589.25,1.03
595.14,0.97
601.09,0.92
607.10,0.87
613.17,0.82
619.30,0.77
625.50,0.72
631.75,0.67
638.07,0.62
644.45,0.57
650.89,0.52
657.40,0.48
663.98,0.43
670.62,0.39
677.32,0.34
684.10,0.30
690.94,0.26
697.85,0.22
704.83,0.18
711.87,0.14
718.99,0.10
726.18,0.06
733.44,0.03
740.78,-0.00
748.19,-0.04
755.67,-0.06
763.23,-0.09
770.86,-0.12
778.57,-0.14
786.35,-0.17
794.22,-0.19
802.16,-0.21
810.18,-0.22
818.28,-0.24
826.46,-0.25
834.73,-0.26
843.08,-0.27
851.51,-0.27
860.02,-0.28
868.62,-0.28
877.31,-0.27
886.08,-0.27
894.94,-0.26
903.89,-0.25
912.93,-0.24
922.06,-0.22
931.28,-0.20
940.59,-0.18
950.00,-0.16
959.50,-0.13
969.09,-0.10
978.78,-0.07
988.57,-0.04
998.46,-0.01
1008.44,0.03
1018.53,0.07
1028.71,0.11
1039.00,0.15
1049.39,0.19
1059.88,0.23
1070.48,0.28
1081.19,0.32
1092.00,0.37
1102.92,0.41
1113.95,0.46
1125.09,0.50
1136.34,0.55
1147.70,0.59
1159.18,0.64
1170.77,0.68
1182.48,0.73
1194.30,0.77
1206.25,0.82
1218.31,0.86
1230.49,0.91
1242.80,0.95
1255.22,0.99
1267.78,1.04
1280.45,1.08
1293.26,1.13
1306.19,1.18
1319.25,1.22
1332.45,1.27
1345.77,1.32
1359.23,1.37
1372.82,1.42
1386.55,1.47
1400.41,1.52
1414.42,1.58
1428.56,1.63
1442.85,1.69
1457.28,1.76
1471.85,1.82
1486.57,1.89
1501.43,1.96
1516.45,2.03
1531.61,2.11
1546.93,2.19
1562.40,2.29
1578.02,2.40
1593.80,2.52
1609.74,2.68
1625.84,2.85
1642.10,3.06
1658.52,3.27
1675.10,3.49
1691.85,3.70
1708.77,3.90
1725.86,4.09
1743.12,4.27
1760.55,4.45
1778.15,4.63
1795.94,4.81
1813.90,5.00
1832.03,5.18
1850.36,5.37
1868.86,5.55
1887.55,5.73
1906.42,5.91
1925.49,6.09
1944.74,6.26
1964.19,6.42
1983.83,6.57
2003.67,6.72
2023.71,6.85
2043.94,6.97
2064.38,7.08
2085.03,7.17
2105.88,7.25
2126.94,7.33
2148.20,7.38
2169.69,7.43
2191.38,7.47
2213.30,7.49
2235.43,7.51
2257.78,7.52
2280.36,7.53
2303.17,7.53
2326.20,7.53
2349.46,7.53
2372.95,7.52
2396.68,7.52
2420.65,7.52
2444.86,7.51
2469.31,7.51
2494.00,7.52
2518.94,7.52
2544.13,7.53
2569.57,7.55
2595.27,7.58
2621.22,7.61
2647.43,7.66
2673.90,7.72
2700.64,7.79
2727.65,7.87
2754.93,7.96
2782.48,8.06
2810.30,8.17
2838.40,8.28
2866.79,8.41
2895.46,8.54
2924.41,8.69
2953.65,8.84
2983.19,9.00
3013.02,9.18
3043.15,9.36
3073.58,9.55
3104.32,9.75
3135.36,9.96
3166.72,10.18
3198.38,10.41
3230.37,10.65
3262.67,10.90
3295.30,11.15
3328.25,11.40
3361.53,11.65
3395.15,11.89
3429.10,12.11
3463.39,12.30
3498.03,12.46
3533.01,12.57
3568.34,12.66
3604.02,12.72
3640.06,12.74
3676.46,12.76
3713.22,12.78
3750.36,12.79
3787.86,12.80
3825.74,12.81
3864.00,12.82
3902.64,12.83
3941.66,12.84
3981.08,12.84
4020.89,12.83
4061.10,12.82
4101.71,12.80
4142.73,12.78
4184.15,12.75
4226.00,12.72
4268.26,12.70
4310.94,12.67
4354.05,12.64
4397.59,12.61
4441.56,12.59
4485.98,12.57
4530.84,12.55
4576.15,12.53
4621.91,12.52
4668.13,12.51
4714.81,12.50
4761.96,12.50
4809.58,12.50
4857.67,12.50
4906.25,12.49
4955.31,12.48
5004.87,12.46
5054.91,12.41
5105.46,12.36
5156.52,12.29
5208.08,12.20
5260.16,12.09
5312.77,11.97
5365.89,11.84
5419.55,11.71
5473.75,11.58
5528.49,11.48
5583.77,11.41
5639.61,11.39
5696.00,11.39
5752.96,11.47
5810.49,11.57
5868.60,11.70
5927.28,11.79
5986.56,11.84
6046.42,11.79
6106.89,11.68
6167.96,11.54
6229.64,11.40
6291.93,11.26
6354.85,11.12
6418.40,10.97
6482.58,10.79
6547.41,10.57
6612.88,10.34
6679.01,10.08
6745.80,9.84
6813.26,9.62
6881.39,9.43
6950.21,9.25
7019.71,9.10
7089.91,8.98
7160.81,8.94
7232.41,8.95
7304.74,9.00
7377.79,9.11
7451.56,9.25
7526.08,9.42
7601.34,9.62
7677.35,9.86
7754.13,10.11
7831.67,10.39
7909.98,10.66
7989.08,10.92
8068.98,11.16
8149.67,11.37
8231.16,11.53
8313.47,11.63
8396.61,11.68
8480.57,11.64
8565.38,11.50
8651.03,11.29
8737.54,10.98
8824.92,10.59
8913.17,10.16
9002.30,9.72
9092.32,9.31
9183.25,8.94
9275.08,8.60
9367.83,8.32
9461.51,8.17
9556.12,8.11
9651.68,8.12
9748.20,8.15
9845.68,8.11
9944.14,7.94
10043.58,7.58
10144.02,7.08
10245.46,6.38
10347.91,5.64
10451.39,4.88
10555.91,4.18
10661.46,3.55
10768.08,3.00
10875.76,2.53
10984.52,2.15
11094.36,1.80
11205.31,1.51
11317.36,1.24
11430.53,0.98
11544.84,0.73
11660.29,0.47
11776.89,0.20
11894.66,-0.10
12013.60,-0.40
12133.74,-0.73
12255.08,-1.08
12377.63,-1.45
12501.41,-1.81
12626.42,-2.18
12752.68,-2.53
12880.21,-2.85
13009.01,-3.14
13139.10,-3.43
13270.49,-3.64
13403.20,-3.83
13537.23,-4.12
13672.60,-4.50
13809.33,-4.94
13947.42,-5.05
14086.90,-5.37
14227.77,-5.83
14370.04,-6.11
14513.74,-6.21
14658.88,-6.08
14805.47,-5.99
14953.52,-5.94
15103.06,-5.92
15254.09,-5.90
15406.63,-5.68
15560.70,-5.34
15716.30,-4.81
15873.47,-4.29
16032.20,-3.87
16192.52,-3.78
16354.45,-4.08
16517.99,-4.65
16683.17,-5.71
16850.01,-6.77
17018.51,-7.80
17188.69,-8.58
17360.58,-9.19
17534.18,-9.69
17709.53,-10.05
17886.62,-10.17
18065.49,-10.11
18246.14,-9.85
18428.60,-9.81
18612.89,-9.89
18799.02,-10.03
18987.01,-10.15
19176.88,-10.37
19368.65,-10.73
19562.33,-11.23
19757.96,-11.81
19955.54,-12.33
