frequency,raw
20.00,16.27
20.20,16.26
20.40,16.25
20.61,16.23
20.81,16.22
21.02,16.21
21.23,16.20
21.44,16.18
21.66,16.17
21.87,16.16
22.09,16.14
22.31,16.13
22.54,16.11
22.76,16.09
22.99,16.08
23.22,16.06
23.45,16.05
23.69,16.03
23.92,16.02
24.16,16.00
24.40,15.98
24.65,15.96
24.89,15.95
25.14,15.93
25.39,15.91
25.65,15.89
25.91,15.87
26.16,15.85
26.43,15.83
26.69,15.81
26.96,15.79
27.23,15.77
27.50,15.75
27.77,15.73
28.05,15.71
28.33,15.69
28.62,15.66
28.90,15.64
29.19,15.62
29.48,15.59
29.78,15.57
30.08,15.55
30.38,15.52
30.68,15.49
30.99,15.47
31.30,15.44
31.61,15.42
31.93,15.39
32.24,15.36
32.57,15.34
32.89,15.31
33.22,15.28
33.55,15.25
33.89,15.23
34.23,15.20
34.57,15.17
34.92,15.14
35.27,15.11
35.62,15.08
35.97,15.04
36.33,15.01
36.70,14.98
37.06,14.95
37.43,14.92
37.81,14.89
38.19,14.85
38.57,14.82
38.95,14.79
39.34,14.75
39.74,14.72
40.14,14.68
40.54,14.65
40.94,14.61
41.35,14.57
41.76,14.54
42.18,14.50
42.60,14.47
43.03,14.43
43.46,14.39
43.90,14.35
44.33,14.31
44.78,14.27
45.23,14.24
45.68,14.20
46.13,14.16
46.60,14.12
47.06,14.07
47.53,14.03
48.01,13.99
48.49,13.95
48.97,13.91
49.46,13.86
49.96,13.82
50.46,13.78
50.96,13.73
51.47,13.69
51.99,13.65
52.51,13.60
53.03,13.56
53.56,13.51
54.10,13.47
54.64,13.42
55.18,13.37
55.74,13.33
56.29,13.28
56.86,13.23
57.42,13.18
58.00,13.13
58.58,13.08
59.16,13.04
59.76,12.99
60.35,12.94
60.96,12.89
61.57,12.84
62.18,12.79
62.80,12.74
63.43,12.68
64.07,12.63
64.71,12.58
65.35,12.53
66.01,12.48
66.67,12.43
67.33,12.37
68.01,12.32
68.69,12.27
69.37,12.21
70.07,12.16
70.77,12.10
71.48,12.05
72.19,12.00
72.91,11.94
73.64,11.88
74.38,11.83
75.12,11.77
75.87,11.72
76.63,11.66
77.40,11.60
78.17,11.54
78.95,11.49
79.74,11.43
80.54,11.37
81.35,11.31
82.16,11.25
82.98,11.20
83.81,11.14
84.65,11.08
85.50,11.02
86.35,10.96
87.22,10.90
88.09,10.84
88.97,10.78
89.86,10.72
90.76,10.66
91.66,10.60
92.58,10.54
93.51,10.48
94.44,10.41
95.39,10.35
96.34,10.29
97.30,10.23
98.28,10.17
99.26,10.11
100.25,10.04
101.25,9.98
102.27,9.92
103.29,9.85
104.32,9.79
105.37,9.73
106.42,9.66
107.48,9.60
108.56,9.54
109.64,9.47
110.74,9.41
111.85,9.34
112.97,9.28
114.10,9.22
115.24,9.15
116.39,9.09
117.55,9.02
118.73,8.95
119.92,8.89
121.12,8.82
122.33,8.76
123.55,8.70
124.79,8.63
126.03,8.56
127.29,8.50
128.57,8.43
129.85,8.37
131.15,8.30
132.46,8.23
133.79,8.17
135.12,8.10
136.48,8.03
137.84,7.97
139.22,7.90
140.61,7.83
142.02,7.77
143.44,7.70
144.87,7.64
146.32,7.57
147.78,7.50
149.26,7.43
150.75,7.37
152.26,7.30
153.78,7.23
155.32,7.17
156.88,7.10
158.44,7.03
160.03,6.96
161.63,6.90
163.24,6.83
164.88,6.76
166.53,6.70
168.19,6.63
169.87,6.56
171.57,6.49
173.29,6.43
175.02,6.36
176.77,6.29
178.54,6.23
180.32,6.16
182.13,6.09
183.95,6.02
185.79,5.96
187.65,5.89
189.52,5.82
191.42,5.76
193.33,5.69
195.27,5.62
197.22,5.55
199.19,5.49
201.18,5.42
203.19,5.35
205.23,5.29
207.28,5.22
209.35,5.16
211.44,5.09
213.56,5.02
215.69,4.96
217.85,4.89
220.03,4.82
222.23,4.76
224.45,4.69
226.70,4.63
228.96,4.56
231.25,4.50
233.57,4.43
235.90,4.36
238.26,4.30
240.64,4.23
243.05,4.17
245.48,4.11
247.93,4.04
250.41,3.98
252.92,3.91
255.45,3.85
258.00,3.78
260.58,3.72
263.19,3.66
265.82,3.59
268.48,3.53
271.16,3.47
273.87,3.40
276.61,3.34
279.38,3.28
282.17,3.22
284.99,3.15
287.84,3.09
290.72,3.03
293.63,2.97
296.57,2.91
299.53,2.85
302.53,2.78
305.55,2.72
308.61,2.66
311.69,2.60
314.81,2.54
317.96,2.48
321.14,2.42
324.35,2.36
327.59,2.31
330.87,2.25
334.18,2.19
337.52,2.13
340.90,2.07
344.30,2.02
347.75,1.96
351.23,1.90
354.74,1.84
358.28,1.79
361.87,1.73
365.49,1.68
369.14,1.62
372.83,1.57
376.56,1.51
380.33,1.46
384.13,1.40
387.97,1.35
391.85,1.30
395.77,1.24
399.73,1.19
403.72,1.14
407.76,1.09
411.84,1.04
415.96,0.98
420.12,0.93
424.32,0.88
428.56,0.83
432.85,0.78
437.18,0.73
441.55,0.69
445.96,0.64
450.42,0.59
454.93,0.54
459.48,0.50
464.07,0.45
468.71,0.40
473.40,0.36
478.13,0.31
482.91,0.27
487.74,0.23
492.62,0.18
497.55,0.14
502.52,0.10
507.55,0.06
512.62,0.01
517.75,-0.03
522.93,-0.07
528.16,-0.11
533.44,-0.15
538.77,-0.19
544.16,-0.22
549.60,-0.26
555.10,-0.30
560.65,-0.34
566.25,-0.37
571.92,-0.41
577.64,-0.44
583.41,-0.48
589.25,-0.51
595.14,-0.54
601.09,-0.58
607.10,-0.61
613.17,-0.64
619.30,-0.67
625.50,-0.70
631.75,-0.73
638.07,-0.76
644.45,-0.79
650.89,-0.81
657.40,-0.84
663.98,-0.86
670.62,-0.89
677.32,-0.91
684.10,-0.93
690.94,-0.94
697.85,-0.96
704.83,-0.96
711.87,-0.97
718.99,-0.97
726.18,-0.96
733.44,-0.96
740.78,-0.94
748.19,-0.93
755.67,-0.91
763.23,-0.90
770.86,-0.88
778.57,-0.86
786.35,-0.85
794.22,-0.83
802.16,-0.81
810.18,-0.80
818.28,-0.78
826.46,-0.76
834.73,-0.74
843.08,-0.71
851.51,-0.69
860.02,-0.66
868.62,-0.63
877.31,-0.60
886.08,-0.57
894.94,-0.54
903.89,-0.50
912.93,-0.46
922.06,-0.42
931.28,-0.37
940.59,-0.33
950.00,-0.28
959.50,-0.23
969.09,-0.18
978.78,-0.12
988.57,-0.07
998.46,-0.01
1008.44,0.05
1018.53,0.11
1028.71,0.17
1039.00,0.24
1049.39,0.31
1059.88,0.37
1070.48,0.44
1081.19,0.51
1092.00,0.58
1102.92,0.65
1113.95,0.73
1125.09,0.80
1136.34,0.87
1147.70,0.95
1159.18,1.02
1170.77,1.10
1182.48,1.17
1194.30,1.25
1206.25,1.32
1218.31,1.40
1230.49,1.48
1242.80,1.56
1255.22,1.64
1267.78,1.72
1280.45,1.80
1293.26,1.89
1306.19,1.98
1319.25,2.06
1332.45,2.15
1345.77,2.25
1359.23,2.34
1372.82,2.45
1386.55,2.55
1400.41,2.66
1414.42,2.77
1428.56,2.89
1442.85,3.01
1457.28,3.14
1471.85,3.27
1486.57,3.41
1501.43,3.55
1516.45,3.70
1531.61,3.85
1546.93,4.01
1562.40,4.17
1578.02,4.34
1593.80,4.50
1609.74,4.67
1625.84,4.84
1642.10,5.00
1658.52,5.17
1675.10,5.34
1691.85,5.50
1708.77,5.67
1725.86,5.83
1743.12,5.99
1760.55,6.15
1778.15,6.31
1795.94,6.47
1813.90,6.63
1832.03,6.79
1850.36,6.96
1868.86,7.12
1887.55,7.29
1906.42,7.46
1925.49,7.63
1944.74,7.81
1964.19,7.98
1983.83,8.16
2003.67,8.34
2023.71,8.52
2043.94,8.71
2064.38,8.89
2085.03,9.08
2105.88,9.27
2126.94,9.46
2148.20,9.66
2169.69,9.85
2191.38,10.04
2213.30,10.22
2235.43,10.41
2257.78,10.59
2280.36,10.76
2303.17,10.93
2326.20,11.09
2349.46,11.25
2372.95,11.39
2396.68,11.52
2420.65,11.64
2444.86,11.74
2469.31,11.83
2494.00,11.91
2518.94,11.96
2544.13,12.00
2569.57,12.02
2595.27,12.02
2621.22,12.01
2647.43,11.98
2673.90,11.94
2700.64,11.88
2727.65,11.82
2754.93,11.74
2782.48,11.64
2810.30,11.54
2838.40,11.44
2866.79,11.33
2895.46,11.22
2924.41,11.14
2953.65,11.06
2983.19,11.01
3013.02,10.97
3043.15,10.93
3073.58,10.90
3104.32,10.86
3135.36,10.81
3166.72,10.76
3198.38,10.71
3230.37,10.66
3262.67,10.61
3295.30,10.57
3328.25,10.53
3361.53,10.51
3395.15,10.50
3429.10,10.50
3463.39,10.51
3498.03,10.53
3533.01,10.56
3568.34,10.61
3604.02,10.66
3640.06,10.72
3676.46,10.79
3713.22,10.87
3750.36,10.96
3787.86,11.06
3825.74,11.17
3864.00,11.31
3902.64,11.49
3941.66,11.67
3981.08,11.88
4020.89,12.11
4061.10,12.34
4101.71,12.58
4142.73,12.82
4184.15,13.04
4226.00,13.24
4268.26,13.41
4310.94,13.56
4354.05,13.63
4397.59,13.65
4441.56,13.64
4485.98,13.56
4530.84,13.44
4576.15,13.26
4621.91,13.05
4668.13,12.74
4714.81,12.36
4761.96,11.93
4809.58,11.41
4857.67,10.82
4906.25,10.19
4955.31,9.53
5004.87,8.86
5054.91,8.18
5105.46,7.50
5156.52,6.83
5208.08,6.18
5260.16,5.55
5312.77,4.94
5365.89,4.35
5419.55,3.79
5473.75,3.25
5528.49,2.73
5583.77,2.24
5639.61,1.77
5696.00,1.32
5752.96,0.90
5810.49,0.49
5868.60,0.11
5927.28,-0.26
5986.56,-0.61
6046.42,-0.93
6106.89,-1.24
6167.96,-1.52
6229.64,-1.79
6291.93,-2.04
6354.85,-2.27
6418.40,-2.49
6482.58,-2.68
6547.41,-2.86
6612.88,-3.02
6679.01,-3.16
6745.80,-3.27
6813.26,-3.36
6881.39,-3.42
6950.21,-3.45
7019.71,-3.46
7089.91,-3.44
7160.81,-3.38
7232.41,-3.29
7304.74,-3.17
7377.79,-3.00
7451.56,-2.79
7526.08,-2.55
7601.34,-2.27
7677.35,-1.93
7754.13,-1.56
7831.67,-1.14
7909.98,-0.70
7989.08,-0.20
8068.98,0.36
8149.67,0.96
8231.16,1.61
8313.47,2.30
8396.61,3.00
8480.57,3.70
8565.38,4.28
8651.03,4.69
8737.54,4.85
8824.92,4.58
8913.17,3.90
9002.30,3.06
9092.32,1.93
9183.25,0.77
9275.08,-0.40
9367.83,-1.54
9461.51,-2.60
9556.12,-3.60
9651.68,-4.54
9748.20,-5.42
9845.68,-6.22
9944.14,-6.96
10043.58,-7.65
10144.02,-8.30
10245.46,-8.87
10347.91,-9.42
10451.39,-9.92
10555.91,-10.37
10661.46,-10.78
10768.08,-11.16
10875.76,-11.48
10984.52,-11.76
11094.36,-12.01
11205.31,-12.21
11317.36,-12.36
11430.53,-12.49
11544.84,-12.56
11660.29,-12.60
11776.89,-12.61
11894.66,-12.53
12013.60,-12.44
12133.74,-12.30
12255.08,-12.08
12377.63,-11.82
12501.41,-11.50
12626.42,-11.07
12752.68,-10.56
12880.21,-9.87
13009.01,-9.09
13139.10,-8.31
13270.49,-7.18
13403.20,-5.92
13537.23,-4.23
13672.60,-2.32
13809.33,-0.25
13947.42,1.48
14086.90,1.83
14227.77,1.35
14370.04,0.00
14513.74,-2.22
14658.88,-4.28
14805.47,-6.11
14953.52,-7.56
15103.06,-8.70
15254.09,-9.70
15406.63,-10.39
15560.70,-10.98
15716.30,-11.42
15873.47,-11.68
16032.20,-11.85
16192.52,-11.84
16354.45,-11.69
16517.99,-11.44
16683.17,-10.98
16850.01,-10.36
17018.51,-9.62
17188.69,-8.69
17360.58,-7.81
17534.18,-7.08
17709.53,-6.87
17886.62,-7.44
18065.49,-8.50
18246.14,-10.03
18428.60,-11.73
18612.89,-13.34
18799.02,-14.83
18987.01,-16.15
19176.88,-17.24
19368.65,-18.18
19562.33,-18.98
19757.96,-19.64
19955.54,-20.14
