frequency,raw
20.00,4.97
20.20,5.01
20.40,5.04
20.61,5.08
20.81,5.11
21.02,5.15
21.23,5.19
21.44,5.23
21.66,5.27
21.87,5.31
22.09,5.34
22.31,5.38
22.54,5.41
22.76,5.45
22.99,5.48
23.22,5.51
23.45,5.54
23.69,5.58
23.92,5.61
24.16,5.64
24.40,5.67
24.65,5.70
24.89,5.74
25.14,5.77
25.39,5.80
25.65,5.83
25.91,5.86
26.16,5.89
26.43,5.91
26.69,5.94
26.96,5.97
27.23,5.99
27.50,6.02
27.77,6.04
28.05,6.07
28.33,6.10
28.62,6.13
28.90,6.15
29.19,6.18
29.48,6.21
29.78,6.23
30.08,6.26
30.38,6.28
30.68,6.31
30.99,6.33
31.30,6.35
31.61,6.37
31.93,6.39
32.24,6.41
32.57,6.43
32.89,6.44
33.22,6.46
33.55,6.48
33.89,6.50
34.23,6.52
34.57,6.54
34.92,6.55
35.27,6.57
35.62,6.59
35.97,6.61
36.33,6.62
36.70,6.64
37.06,6.65
37.43,6.67
37.81,6.68
38.19,6.70
38.57,6.71
38.95,6.73
39.34,6.74
39.74,6.75
40.14,6.76
40.54,6.77
40.94,6.78
41.35,6.79
41.76,6.80
42.18,6.81
42.60,6.82
43.03,6.83
43.46,6.84
43.90,6.85
44.33,6.85
44.78,6.86
45.23,6.86
45.68,6.87
46.13,6.88
46.60,6.89
47.06,6.90
47.53,6.90
48.01,6.90
48.49,6.91
48.97,6.91
49.46,6.91
49.96,6.91
50.46,6.91
50.96,6.91
51.47,6.92
51.99,6.92
52.51,6.92
53.03,6.92
53.56,6.92
54.10,6.92
54.64,6.92
55.18,6.91
55.74,6.91
56.29,6.91
56.86,6.91
57.42,6.90
58.00,6.90
58.58,6.89
59.16,6.89
59.76,6.88
60.35,6.88
60.96,6.87
61.57,6.86
62.18,6.85
62.80,6.84
63.43,6.83
64.07,6.82
64.71,6.82
65.35,6.81
66.01,6.80
66.67,6.79
67.33,6.78
68.01,6.77
68.69,6.75
69.37,6.74
70.07,6.73
70.77,6.72
71.48,6.70
72.19,6.69
72.91,6.67
73.64,6.66
74.38,6.64
75.12,6.63
75.87,6.61
76.63,6.59
77.40,6.58
78.17,6.56
78.95,6.54
79.74,6.52
80.54,6.50
81.35,6.49
82.16,6.47
82.98,6.45
83.81,6.43
84.65,6.41
85.50,6.39
86.35,6.36
87.22,6.34
88.09,6.32
88.97,6.29
89.86,6.27
90.76,6.25
91.66,6.22
92.58,6.20
93.51,6.17
94.44,6.15
95.39,6.12
96.34,6.09
97.30,6.07
98.28,6.04
99.26,6.01
100.25,5.98
101.25,5.96
102.27,5.93
103.29,5.90
104.32,5.87
105.37,5.84
106.42,5.81
107.48,5.78
108.56,5.75
109.64,5.72
110.74,5.69
111.85,5.65
112.97,5.62
114.10,5.59
115.24,5.55
116.39,5.52
117.55,5.49
118.73,5.46
119.92,5.43
121.12,5.39
122.33,5.35
123.55,5.32
124.79,5.28
126.03,5.24
127.29,5.20
128.57,5.16
129.85,5.13
131.15,5.09
132.46,5.05
133.79,5.01
135.12,4.98
136.48,4.94
137.84,4.90
139.22,4.86
140.61,4.82
142.02,4.78
143.44,4.74
144.87,4.70
146.32,4.66
147.78,4.62
149.26,4.58
150.75,4.53
152.26,4.49
153.78,4.45
155.32,4.41
156.88,4.37
158.44,4.32
160.03,4.28
161.63,4.23
163.24,4.19
164.88,4.15
166.53,4.11
168.19,4.07
169.87,4.02
171.57,3.98
173.29,3.94
175.02,3.89
176.77,3.84
178.54,3.80
180.32,3.75
182.13,3.71
183.95,3.67
185.79,3.62
187.65,3.58
189.52,3.53
191.42,3.48
193.33,3.43
195.27,3.38
197.22,3.33
199.19,3.29
201.18,3.24
203.19,3.19
205.23,3.15
207.28,3.10
209.35,3.05
211.44,3.00
213.56,2.96
215.69,2.91
217.85,2.86
220.03,2.82
222.23,2.77
224.45,2.72
226.70,2.67
228.96,2.62
231.25,2.58
233.57,2.53
235.90,2.48
238.26,2.43
240.64,2.38
243.05,2.34
245.48,2.29
247.93,2.24
250.41,2.19
252.92,2.14
255.45,2.10
258.00,2.05
260.58,2.00
263.19,1.95
265.82,1.91
268.48,1.86
271.16,1.81
273.87,1.76
276.61,1.72
279.38,1.67
282.17,1.62
284.99,1.57
287.84,1.53
290.72,1.48
293.63,1.44
296.57,1.39
299.53,1.34
302.53,1.30
305.55,1.25
308.61,1.20
311.69,1.16
314.81,1.11
317.96,1.07
321.14,1.02
324.35,0.98
327.59,0.93
330.87,0.89
334.18,0.84
337.52,0.80
340.90,0.76
344.30,0.71
347.75,0.67
351.23,0.63
354.74,0.58
358.28,0.54
361.87,0.50
365.49,0.46
369.14,0.42
372.83,0.38
376.56,0.33
380.33,0.29
384.13,0.25
387.97,0.21
391.85,0.17
395.77,0.13
399.73,0.10
403.72,0.06
407.76,0.02
411.84,-0.02
415.96,-0.06
420.12,-0.09
424.32,-0.13
428.56,-0.17
432.85,-0.20
437.18,-0.24
441.55,-0.27
445.96,-0.31
450.42,-0.34
454.93,-0.37
459.48,-0.41
464.07,-0.44
468.71,-0.47
473.40,-0.50
478.13,-0.54
482.91,-0.57
487.74,-0.60
492.62,-0.63
497.55,-0.65
502.52,-0.68
507.55,-0.71
512.62,-0.74
517.75,-0.77
522.93,-0.79
528.16,-0.82
533.44,-0.84
538.77,-0.87
544.16,-0.89
549.60,-0.92
555.10,-0.94
560.65,-0.96
566.25,-0.98
571.92,-1.00
577.64,-1.02
583.41,-1.04
589.25,-1.06
595.14,-1.08
601.09,-1.09
607.10,-1.11
613.17,-1.12
619.30,-1.14
625.50,-1.15
631.75,-1.16
638.07,-1.17
644.45,-1.18
650.89,-1.19
657.40,-1.20
663.98,-1.21
670.62,-1.21
677.32,-1.22
684.10,-1.22
690.94,-1.22
697.85,-1.22
704.83,-1.22
711.87,-1.22
718.99,-1.22
726.18,-1.21
733.44,-1.21
740.78,-1.20
748.19,-1.19
755.67,-1.18
763.23,-1.17
770.86,-1.15
778.57,-1.14
786.35,-1.12
794.22,-1.10
802.16,-1.08
810.18,-1.06
818.28,-1.04
826.46,-1.01
834.73,-0.98
843.08,-0.95
851.51,-0.92
860.02,-0.88
868.62,-0.84
877.31,-0.81
886.08,-0.76
894.94,-0.72
903.89,-0.68
912.93,-0.63
922.06,-0.58
931.28,-0.52
940.59,-0.46
950.00,-0.39
959.50,-0.32
969.09,-0.25
978.78,-0.18
988.57,-0.10
998.46,-0.01
1008.44,0.07
1018.53,0.16
1028.71,0.26
1039.00,0.35
1049.39,0.45
1059.88,0.55
1070.48,0.65
1081.19,0.76
1092.00,0.87
1102.92,0.97
1113.95,1.08
1125.09,1.19
1136.34,1.29
1147.70,1.40
1159.18,1.50
1170.77,1.61
1182.48,1.71
1194.30,1.82
1206.25,1.92
1218.31,2.02
1230.49,2.12
1242.80,2.22
1255.22,2.32
1267.78,2.42
1280.45,2.52
1293.26,2.62
1306.19,2.72
1319.25,2.82
1332.45,2.92
1345.77,3.02
1359.23,3.11
1372.82,3.21
1386.55,3.31
1400.41,3.41
1414.42,3.50
1428.56,3.60
1442.85,3.70
1457.28,3.80
1471.85,3.90
1486.57,4.00
1501.43,4.10
1516.45,4.20
1531.61,4.30
1546.93,4.40
1562.40,4.51
1578.02,4.61
1593.80,4.72
1609.74,4.83
1625.84,4.94
1642.10,5.05
1658.52,5.17
1675.10,5.29
1691.85,5.41
1708.77,5.53
1725.86,5.65
1743.12,5.78
1760.55,5.90
1778.15,6.03
1795.94,6.16
1813.90,6.30
1832.03,6.44
1850.36,6.58
1868.86,6.72
1887.55,6.86
1906.42,7.01
1925.49,7.16
1944.74,7.31
1964.19,7.46
1983.83,7.62
2003.67,7.78
2023.71,7.94
2043.94,8.10
2064.38,8.26
2085.03,8.42
2105.88,8.59
2126.94,8.76
2148.20,8.93
2169.69,9.09
2191.38,9.26
2213.30,9.44
2235.43,9.61
2257.78,9.78
2280.36,9.94
2303.17,10.11
2326.20,10.28
2349.46,10.44
2372.95,10.59
2396.68,10.75
2420.65,10.90
2444.86,11.04
2469.31,11.18
2494.00,11.30
2518.94,11.42
2544.13,11.53
2569.57,11.62
2595.27,11.70
2621.22,11.78
2647.43,11.83
2673.90,11.87
2700.64,11.91
2727.65,11.94
2754.93,11.98
2782.48,12.05
2810.30,12.14
2838.40,12.23
2866.79,12.32
2895.46,12.40
2924.41,12.45
2953.65,12.49
2983.19,12.50
3013.02,12.50
3043.15,12.48
3073.58,12.44
3104.32,12.39
3135.36,12.32
3166.72,12.24
3198.38,12.15
3230.37,12.04
3262.67,11.93
3295.30,11.81
3328.25,11.70
3361.53,11.60
3395.15,11.51
3429.10,11.43
3463.39,11.35
3498.03,11.27
3533.01,11.19
3568.34,11.09
3604.02,11.00
3640.06,10.89
3676.46,10.77
3713.22,10.65
3750.36,10.52
3787.86,10.38
3825.74,10.24
3864.00,10.09
3902.64,9.93
3941.66,9.78
3981.08,9.62
4020.89,9.45
4061.10,9.28
4101.71,9.12
4142.73,8.95
4184.15,8.78
4226.00,8.62
4268.26,8.46
4310.94,8.31
4354.05,8.18
4397.59,8.09
4441.56,8.01
4485.98,7.95
4530.84,7.90
4576.15,7.85
4621.91,7.81
4668.13,7.78
4714.81,7.75
4761.96,7.73
4809.58,7.72
4857.67,7.72
4906.25,7.73
4955.31,7.75
5004.87,7.78
5054.91,7.82
5105.46,7.86
5156.52,7.91
5208.08,7.96
5260.16,8.01
5312.77,8.06
5365.89,8.10
5419.55,8.13
5473.75,8.15
5528.49,8.14
5583.77,8.12
5639.61,8.06
5696.00,7.99
5752.96,7.87
5810.49,7.74
5868.60,7.56
5927.28,7.35
5986.56,7.11
6046.42,6.83
6106.89,6.53
6167.96,6.20
6229.64,5.83
6291.93,5.44
6354.85,5.02
6418.40,4.59
6482.58,4.16
6547.41,3.73
6612.88,3.32
6679.01,2.94
6745.80,2.61
6813.26,2.30
6881.39,2.05
6950.21,1.86
7019.71,1.70
7089.91,1.60
7160.81,1.55
7232.41,1.54
7304.74,1.58
7377.79,1.68
7451.56,1.82
7526.08,2.02
7601.34,2.26
7677.35,2.58
7754.13,2.92
7831.67,3.37
7909.98,3.86
7989.08,4.41
8068.98,5.05
8149.67,5.74
8231.16,6.49
8313.47,7.28
8396.61,8.09
8480.57,8.87
8565.38,9.55
8651.03,10.10
8737.54,10.47
8824.92,10.55
8913.17,10.33
9002.30,10.00
9092.32,9.42
9183.25,8.78
9275.08,8.12
9367.83,7.46
9461.51,6.87
9556.12,6.33
9651.68,5.85
9748.20,5.44
9845.68,5.10
9944.14,4.81
10043.58,4.58
10144.02,4.40
10245.46,4.27
10347.91,4.17
10451.39,4.10
10555.91,4.05
10661.46,4.02
10768.08,3.99
10875.76,3.95
10984.52,3.89
11094.36,3.81
11205.31,3.71
11317.36,3.55
11430.53,3.37
11544.84,3.13
11660.29,2.85
11776.89,2.55
11894.66,2.19
12013.60,1.82
12133.74,1.45
12255.08,1.07
12377.63,0.69
12501.41,0.33
12626.42,-0.00
12752.68,-0.30
12880.21,-0.54
13009.01,-0.75
13139.10,-0.96
13270.49,-1.07
13403.20,-1.15
13537.23,-1.15
13672.60,-1.09
13809.33,-0.99
13947.42,-0.78
14086.90,-0.47
14227.77,-0.11
14370.04,0.33
14513.74,0.89
14658.88,1.62
14805.47,2.43
14953.52,3.37
15103.06,4.42
15254.09,5.52
15406.63,6.50
15560.70,7.22
15716.30,7.56
15873.47,7.19
16032.20,6.49
16192.52,5.33
16354.45,4.12
16517.99,2.88
16683.17,1.78
16850.01,0.80
17018.51,-0.08
17188.69,-0.80
17360.58,-1.43
17534.18,-1.98
17709.53,-2.43
17886.62,-2.78
18065.49,-3.05
18246.14,-3.23
18428.60,-3.28
18612.89,-3.23
18799.02,-3.11
18987.01,-2.94
19176.88,-2.86
19368.65,-2.97
19562.33,-3.31
19757.96,-3.93
19955.54,-4.84
