frequency,raw
20.00,8.24
20.20,8.27
20.40,8.30
20.61,8.33
20.81,8.36
21.02,8.38
21.23,8.41
21.44,8.43
21.66,8.46
21.87,8.48
22.09,8.50
22.31,8.52
22.54,8.54
22.76,8.56
22.99,8.57
23.22,8.59
23.45,8.60
23.69,8.61
23.92,8.62
24.16,8.63
24.40,8.63
24.65,8.64
24.89,8.65
25.14,8.65
25.39,8.65
25.65,8.66
25.91,8.66
26.16,8.65
26.43,8.65
26.69,8.64
26.96,8.63
27.23,8.62
27.50,8.62
27.77,8.61
28.05,8.60
28.33,8.59
28.62,8.57
28.90,8.56
29.19,8.54
29.48,8.53
29.78,8.51
30.08,8.50
30.38,8.48
30.68,8.46
30.99,8.44
31.30,8.42
31.61,8.40
31.93,8.38
32.24,8.36
32.57,8.34
32.89,8.31
33.22,8.29
33.55,8.26
33.89,8.23
34.23,8.21
34.57,8.18
34.92,8.15
35.27,8.12
35.62,8.10
35.97,8.07
36.33,8.03
36.70,8.00
37.06,7.97
37.43,7.94
37.81,7.91
38.19,7.87
38.57,7.84
38.95,7.81
39.34,7.78
39.74,7.74
40.14,7.71
40.54,7.67
40.94,7.63
41.35,7.60
41.76,7.56
42.18,7.53
42.60,7.49
43.03,7.45
43.46,7.41
43.90,7.37
44.33,7.34
44.78,7.30
45.23,7.26
45.68,7.22
46.13,7.19
46.60,7.15
47.06,7.10
47.53,7.06
48.01,7.02
48.49,6.98
48.97,6.94
49.46,6.90
49.96,6.86
50.46,6.82
50.96,6.77
51.47,6.73
51.99,6.69
52.51,6.65
53.03,6.61
53.56,6.57
54.10,6.52
54.64,6.48
55.18,6.44
55.74,6.39
56.29,6.35
56.86,6.31
57.42,6.26
58.00,6.22
58.58,6.18
59.16,6.13
59.76,6.09
60.35,6.05
60.96,6.00
61.57,5.95
62.18,5.91
62.80,5.87
63.43,5.82
64.07,5.78
64.71,5.74
65.35,5.69
66.01,5.65
66.67,5.60
67.33,5.56
68.01,5.51
68.69,5.47
69.37,5.42
70.07,5.38
70.77,5.33
71.48,5.29
72.19,5.24
72.91,5.19
73.64,5.15
74.38,5.10
75.12,5.06
75.87,5.01
76.63,4.97
77.40,4.92
78.17,4.88
78.95,4.84
79.74,4.79
80.54,4.74
81.35,4.70
82.16,4.65
82.98,4.61
83.81,4.56
84.65,4.52
85.50,4.47
86.35,4.43
87.22,4.38
88.09,4.34
88.97,4.30
89.86,4.25
90.76,4.21
91.66,4.16
92.58,4.11
93.51,4.07
94.44,4.03
95.39,3.98
96.34,3.94
97.30,3.89
98.28,3.85
99.26,3.81
100.25,3.76
101.25,3.72
102.27,3.67
103.29,3.63
104.32,3.58
105.37,3.54
106.42,3.49
107.48,3.45
108.56,3.41
109.64,3.36
110.74,3.32
111.85,3.27
112.97,3.23
114.10,3.19
115.24,3.14
116.39,3.10
117.55,3.06
118.73,3.01
119.92,2.97
121.12,2.93
122.33,2.89
123.55,2.84
124.79,2.80
126.03,2.76
127.29,2.71
128.57,2.67
129.85,2.63
131.15,2.58
132.46,2.54
133.79,2.50
135.12,2.46
136.48,2.41
137.84,2.37
139.22,2.33
140.61,2.28
142.02,2.24
143.44,2.20
144.87,2.16
146.32,2.12
147.78,2.08
149.26,2.03
150.75,1.99
152.26,1.95
153.78,1.91
155.32,1.87
156.88,1.83
158.44,1.79
160.03,1.75
161.63,1.71
163.24,1.67
164.88,1.63
166.53,1.59
168.19,1.55
169.87,1.51
171.57,1.47
173.29,1.43
175.02,1.39
176.77,1.35
178.54,1.31
180.32,1.28
182.13,1.24
183.95,1.20
185.79,1.16
187.65,1.13
189.52,1.09
191.42,1.05
193.33,1.02
195.27,0.98
197.22,0.94
199.19,0.91
201.18,0.88
203.19,0.84
205.23,0.81
207.28,0.77
209.35,0.74
211.44,0.71
213.56,0.68
215.69,0.65
217.85,0.61
220.03,0.58
222.23,0.55
224.45,0.52
226.70,0.49
228.96,0.46
231.25,0.43
233.57,0.41
235.90,0.38
238.26,0.36
240.64,0.33
243.05,0.31
245.48,0.28
247.93,0.26
250.41,0.23
252.92,0.21
255.45,0.19
258.00,0.17
260.58,0.15
263.19,0.13
265.82,0.11
268.48,0.09
271.16,0.08
273.87,0.06
276.61,0.04
279.38,0.03
282.17,0.02
284.99,0.01
287.84,-0.01
290.72,-0.02
293.63,-0.03
296.57,-0.04
299.53,-0.05
302.53,-0.06
305.55,-0.07
308.61,-0.07
311.69,-0.08
314.81,-0.08
317.96,-0.09
321.14,-0.09
324.35,-0.10
327.59,-0.10
330.87,-0.10
334.18,-0.10
337.52,-0.11
340.90,-0.11
344.30,-0.11
347.75,-0.11
351.23,-0.11
354.74,-0.11
358.28,-0.11
361.87,-0.10
365.49,-0.10
369.14,-0.10
372.83,-0.10
376.56,-0.10
380.33,-0.10
384.13,-0.10
387.97,-0.10
391.85,-0.10
395.77,-0.10
399.73,-0.10
403.72,-0.10
407.76,-0.10
411.84,-0.10
415.96,-0.11
420.12,-0.11
424.32,-0.11
428.56,-0.11
432.85,-0.12
437.18,-0.12
441.55,-0.13
445.96,-0.13
450.42,-0.14
454.93,-0.15
459.48,-0.15
464.07,-0.16
468.71,-0.17
473.40,-0.18
478.13,-0.19
482.91,-0.20
487.74,-0.21
492.62,-0.23
497.55,-0.24
502.52,-0.25
507.55,-0.27
512.62,-0.28
517.75,-0.30
522.93,-0.31
528.16,-0.33
533.44,-0.34
538.77,-0.36
544.16,-0.38
549.60,-0.40
555.10,-0.41
560.65,-0.43
566.25,-0.45
571.92,-0.47
577.64,-0.49
583.41,-0.50
589.25,-0.52
595.14,-0.54
601.09,-0.56
607.10,-0.58
613.17,-0.59
619.30,-0.61
625.50,-0.63
631.75,-0.65
638.07,-0.66
644.45,-0.68
650.89,-0.70
657.40,-0.71
663.98,-0.72
670.62,-0.74
677.32,-0.75
684.10,-0.77
690.94,-0.78
697.85,-0.79
704.83,-0.80
711.87,-0.81
718.99,-0.81
726.18,-0.82
733.44,-0.82
740.78,-0.83
748.19,-0.83
755.67,-0.83
763.23,-0.83
770.86,-0.83
778.57,-0.82
786.35,-0.81
794.22,-0.81
802.16,-0.80
810.18,-0.78
818.28,-0.77
826.46,-0.75
834.73,-0.73
843.08,-0.71
851.51,-0.68
860.02,-0.66
868.62,-0.63
877.31,-0.60
886.08,-0.56
894.94,-0.52
903.89,-0.49
912.93,-0.44
922.06,-0.40
931.28,-0.36
940.59,-0.31
950.00,-0.26
959.50,-0.21
969.09,-0.16
978.78,-0.11
988.57,-0.06
998.46,-0.01
1008.44,0.05
1018.53,0.11
1028.71,0.17
1039.00,0.24
1049.39,0.31
1059.88,0.38
1070.48,0.45
1081.19,0.52
1092.00,0.59
1102.92,0.66
1113.95,0.74
1125.09,0.81
1136.34,0.88
1147.70,0.95
1159.18,1.03
1170.77,1.10
1182.48,1.17
1194.30,1.23
1206.25,1.30
1218.31,1.37
1230.49,1.43
1242.80,1.49
1255.22,1.55
1267.78,1.61
1280.45,1.67
1293.26,1.72
1306.19,1.78
1319.25,1.83
1332.45,1.88
1345.77,1.93
1359.23,1.97
1372.82,2.02
1386.55,2.06
1400.41,2.10
1414.42,2.14
1428.56,2.18
1442.85,2.22
1457.28,2.25
1471.85,2.29
1486.57,2.32
1501.43,2.36
1516.45,2.39
1531.61,2.42
1546.93,2.46
1562.40,2.49
1578.02,2.52
1593.80,2.55
1609.74,2.58
1625.84,2.62
1642.10,2.65
1658.52,2.68
1675.10,2.71
1691.85,2.74
1708.77,2.76
1725.86,2.79
1743.12,2.82
1760.55,2.85
1778.15,2.88
1795.94,2.90
1813.90,2.93
1832.03,2.96
1850.36,2.99
1868.86,3.02
1887.55,3.05
1906.42,3.07
1925.49,3.10
1944.74,3.13
1964.19,3.16
1983.83,3.18
2003.67,3.21
2023.71,3.23
2043.94,3.25
2064.38,3.28
2085.03,3.30
2105.88,3.32
2126.94,3.34
2148.20,3.36
2169.69,3.37
2191.38,3.39
2213.30,3.40
2235.43,3.42
2257.78,3.43
2280.36,3.44
2303.17,3.45
2326.20,3.46
2349.46,3.47
2372.95,3.47
2396.68,3.47
2420.65,3.47
2444.86,3.46
2469.31,3.45
2494.00,3.43
2518.94,3.41
2544.13,3.38
2569.57,3.35
2595.27,3.32
2621.22,3.28
2647.43,3.24
2673.90,3.20
2700.64,3.15
2727.65,3.10
2754.93,3.05
2782.48,2.99
2810.30,2.92
2838.40,2.85
2866.79,2.77
2895.46,2.69
2924.41,2.61
2953.65,2.51
2983.19,2.42
3013.02,2.32
3043.15,2.21
3073.58,2.10
3104.32,1.99
3135.36,1.88
3166.72,1.78
3198.38,1.67
3230.37,1.58
3262.67,1.49
3295.30,1.40
3328.25,1.32
3361.53,1.23
3395.15,1.14
3429.10,1.06
3463.39,0.97
3498.03,0.88
3533.01,0.79
3568.34,0.70
3604.02,0.61
3640.06,0.52
3676.46,0.43
3713.22,0.35
3750.36,0.27
3787.86,0.19
3825.74,0.11
3864.00,0.03
3902.64,-0.05
3941.66,-0.12
3981.08,-0.19
4020.89,-0.26
4061.10,-0.33
4101.71,-0.40
4142.73,-0.46
4184.15,-0.53
4226.00,-0.59
4268.26,-0.65
4310.94,-0.71
4354.05,-0.77
4397.59,-0.82
4441.56,-0.88
4485.98,-0.93
4530.84,-0.99
4576.15,-1.05
4621.91,-1.10
4668.13,-1.16
4714.81,-1.22
4761.96,-1.27
4809.58,-1.32
4857.67,-1.37
4906.25,-1.41
4955.31,-1.46
5004.87,-1.49
5054.91,-1.53
5105.46,-1.57
5156.52,-1.60
5208.08,-1.64
5260.16,-1.66
5312.77,-1.69
5365.89,-1.72
5419.55,-1.74
5473.75,-1.75
5528.49,-1.76
5583.77,-1.76
5639.61,-1.74
5696.00,-1.71
5752.96,-1.65
5810.49,-1.58
5868.60,-1.47
5927.28,-1.33
5986.56,-1.16
6046.42,-0.94
6106.89,-0.68
6167.96,-0.38
6229.64,-0.04
6291.93,0.34
6354.85,0.77
6418.40,1.21
6482.58,1.68
6547.41,2.17
6612.88,2.67
6679.01,3.15
6745.80,3.60
6813.26,4.00
6881.39,4.31
6950.21,4.51
7019.71,4.62
7089.91,4.62
7160.81,4.49
7232.41,4.28
7304.74,4.02
7377.79,3.70
7451.56,3.34
7526.08,2.95
7601.34,2.55
7677.35,2.16
7754.13,1.78
7831.67,1.43
7909.98,1.08
7989.08,0.75
8068.98,0.46
8149.67,0.20
8231.16,-0.03
8313.47,-0.22
8396.61,-0.38
8480.57,-0.51
8565.38,-0.58
8651.03,-0.61
8737.54,-0.59
8824.92,-0.52
8913.17,-0.38
9002.30,-0.22
9092.32,0.04
9183.25,0.34
9275.08,0.67
9367.83,1.03
9461.51,1.35
9556.12,1.61
9651.68,1.89
9748.20,2.23
9845.68,2.57
9944.14,2.84
10043.58,2.98
10144.02,3.01
10245.46,2.85
10347.91,2.60
10451.39,2.26
10555.91,1.81
10661.46,1.32
10768.08,0.80
10875.76,0.26
10984.52,-0.27
11094.36,-0.81
11205.31,-1.34
11317.36,-1.84
11430.53,-2.33
11544.84,-2.79
11660.29,-3.23
11776.89,-3.66
11894.66,-4.04
12013.60,-4.41
12133.74,-4.75
12255.08,-5.05
12377.63,-5.32
12501.41,-5.56
12626.42,-5.72
12752.68,-5.81
12880.21,-5.78
13009.01,-5.69
13139.10,-5.60
13270.49,-5.31
13403.20,-4.96
13537.23,-4.44
13672.60,-3.79
13809.33,-3.01
13947.42,-2.16
14086.90,-1.24
14227.77,-0.29
14370.04,0.65
14513.74,1.55
14658.88,2.20
14805.47,2.61
14953.52,2.64
15103.06,2.37
15254.09,1.95
15406.63,1.34
15560.70,0.74
15716.30,0.15
15873.47,-0.35
16032.20,-0.79
16192.52,-1.06
16354.45,-1.25
16517.99,-1.38
16683.17,-1.40
16850.01,-1.48
17018.51,-1.63
17188.69,-2.04
17360.58,-2.77
17534.18,-3.77
17709.53,-5.13
17886.62,-6.72
18065.49,-8.39
18246.14,-10.09
18428.60,-11.74
18612.89,-13.33
18799.02,-14.86
18987.01,-16.33
19176.88,-17.65
19368.65,-18.93
19562.33,-20.17
19757.96,-21.41
19955.54,-22.27
