frequency,raw
20.00,5.89
20.20,5.93
20.40,5.97
20.61,6.00
20.81,6.04
21.02,6.07
21.23,6.11
21.44,6.14
21.66,6.17
21.87,6.20
22.09,6.23
22.31,6.27
22.54,6.30
22.76,6.33
22.99,6.36
23.22,6.39
23.45,6.42
23.69,6.45
23.92,6.48
24.16,6.50
24.40,6.53
24.65,6.55
24.89,6.57
25.14,6.60
25.39,6.62
25.65,6.65
25.91,6.68
26.16,6.71
26.43,6.74
26.69,6.77
26.96,6.80
27.23,6.82
27.50,6.83
27.77,6.85
28.05,6.86
28.33,6.88
28.62,6.90
28.90,6.92
29.19,6.94
29.48,6.97
29.78,6.99
30.08,7.00
30.38,7.02
30.68,7.03
30.99,7.04
31.30,7.05
31.61,7.07
31.93,7.08
32.24,7.10
32.57,7.12
32.89,7.14
33.22,7.15
33.55,7.16
33.89,7.16
34.23,7.17
34.57,7.18
34.92,7.18
35.27,7.19
35.62,7.20
35.97,7.21
36.33,7.22
36.70,7.23
37.06,7.23
37.43,7.24
37.81,7.24
38.19,7.25
38.57,7.26
38.95,7.27
39.34,7.28
39.74,7.28
40.14,7.28
40.54,7.28
40.94,7.29
41.35,7.29
41.76,7.30
42.18,7.29
42.60,7.29
43.03,7.29
43.46,7.29
43.90,7.29
44.33,7.30
44.78,7.29
45.23,7.29
45.68,7.28
46.13,7.28
46.60,7.28
47.06,7.28
47.53,7.27
48.01,7.26
48.49,7.25
48.97,7.24
49.46,7.24
49.96,7.23
50.46,7.22
50.96,7.21
51.47,7.20
51.99,7.20
52.51,7.20
53.03,7.19
53.56,7.17
54.10,7.16
54.64,7.14
55.18,7.13
55.74,7.12
56.29,7.11
56.86,7.09
57.42,7.08
58.00,7.07
58.58,7.06
59.16,7.04
59.76,7.03
60.35,7.02
60.96,7.00
61.57,6.98
62.18,6.96
62.80,6.94
63.43,6.92
64.07,6.91
64.71,6.90
65.35,6.87
66.01,6.84
66.67,6.82
67.33,6.80
68.01,6.79
68.69,6.78
69.37,6.76
70.07,6.73
70.77,6.70
71.48,6.67
72.19,6.64
72.91,6.62
73.64,6.60
74.38,6.58
75.12,6.56
75.87,6.53
76.63,6.50
77.40,6.46
78.17,6.44
78.95,6.42
79.74,6.40
80.54,6.37
81.35,6.35
82.16,6.32
82.98,6.30
83.81,6.27
84.65,6.23
85.50,6.20
86.35,6.17
87.22,6.14
88.09,6.11
88.97,6.08
89.86,6.05
90.76,6.02
91.66,5.99
92.58,5.95
93.51,5.91
94.44,5.87
95.39,5.83
96.34,5.80
97.30,5.76
98.28,5.73
99.26,5.70
100.25,5.66
101.25,5.62
102.27,5.58
103.29,5.55
104.32,5.51
105.37,5.48
106.42,5.45
107.48,5.42
108.56,5.39
109.64,5.36
110.74,5.32
111.85,5.28
112.97,5.24
114.10,5.21
115.24,5.16
116.39,5.13
117.55,5.09
118.73,5.05
119.92,5.01
121.12,4.98
122.33,4.93
123.55,4.89
124.79,4.85
126.03,4.81
127.29,4.76
128.57,4.72
129.85,4.67
131.15,4.63
132.46,4.59
133.79,4.55
135.12,4.52
136.48,4.48
137.84,4.44
139.22,4.39
140.61,4.35
142.02,4.29
143.44,4.25
144.87,4.21
146.32,4.18
147.78,4.14
149.26,4.10
150.75,4.06
152.26,4.01
153.78,3.98
155.32,3.94
156.88,3.89
158.44,3.83
160.03,3.78
161.63,3.74
163.24,3.70
164.88,3.66
166.53,3.62
168.19,3.58
169.87,3.54
171.57,3.50
173.29,3.46
175.02,3.42
176.77,3.38
178.54,3.33
180.32,3.28
182.13,3.23
183.95,3.17
185.79,3.12
187.65,3.07
189.52,3.04
191.42,3.00
193.33,2.96
195.27,2.91
197.22,2.87
199.19,2.82
201.18,2.77
203.19,2.73
205.23,2.69
207.28,2.64
209.35,2.60
211.44,2.56
213.56,2.52
215.69,2.47
217.85,2.42
220.03,2.38
222.23,2.34
224.45,2.30
226.70,2.26
228.96,2.21
231.25,2.17
233.57,2.14
235.90,2.11
238.26,2.05
240.64,2.00
243.05,1.96
245.48,1.92
247.93,1.87
250.41,1.83
252.92,1.79
255.45,1.76
258.00,1.72
260.58,1.68
263.19,1.63
265.82,1.59
268.48,1.55
271.16,1.51
273.87,1.48
276.61,1.45
279.38,1.42
282.17,1.37
284.99,1.33
287.84,1.29
290.72,1.25
293.63,1.21
296.57,1.18
299.53,1.14
302.53,1.11
305.55,1.06
308.61,1.02
311.69,0.99
314.81,0.96
317.96,0.92
321.14,0.88
324.35,0.84
327.59,0.80
330.87,0.77
334.18,0.74
337.52,0.70
340.90,0.67
344.30,0.63
347.75,0.59
351.23,0.55
354.74,0.51
358.28,0.48
361.87,0.45
365.49,0.41
369.14,0.37
372.83,0.34
376.56,0.31
380.33,0.28
384.13,0.25
387.97,0.22
391.85,0.18
395.77,0.15
399.73,0.11
403.72,0.07
407.76,0.05
411.84,0.03
415.96,0.01
420.12,-0.02
424.32,-0.06
428.56,-0.10
432.85,-0.13
437.18,-0.16
441.55,-0.18
445.96,-0.20
450.42,-0.23
454.93,-0.26
459.48,-0.30
464.07,-0.33
468.71,-0.35
473.40,-0.38
478.13,-0.41
482.91,-0.44
487.74,-0.48
492.62,-0.51
497.55,-0.53
502.52,-0.54
507.55,-0.56
512.62,-0.58
517.75,-0.61
522.93,-0.63
528.16,-0.64
533.44,-0.66
538.77,-0.68
544.16,-0.71
549.60,-0.73
555.10,-0.75
560.65,-0.75
566.25,-0.78
571.92,-0.81
577.64,-0.83
583.41,-0.85
589.25,-0.87
595.14,-0.87
601.09,-0.88
607.10,-0.90
613.17,-0.92
619.30,-0.93
625.50,-0.93
631.75,-0.94
638.07,-0.96
644.45,-0.97
650.89,-0.97
657.40,-0.97
663.98,-0.98
670.62,-0.99
677.32,-1.02
684.10,-1.02
690.94,-1.02
697.85,-1.01
704.83,-1.01
711.87,-1.00
718.99,-0.99
726.18,-1.00
733.44,-1.00
740.78,-0.99
748.19,-0.98
755.67,-0.96
763.23,-0.94
770.86,-0.93
778.57,-0.91
786.35,-0.89
794.22,-0.86
802.16,-0.84
810.18,-0.83
818.28,-0.80
826.46,-0.77
834.73,-0.74
843.08,-0.71
851.51,-0.68
860.02,-0.65
868.62,-0.61
877.31,-0.58
886.08,-0.54
894.94,-0.50
903.89,-0.45
912.93,-0.41
922.06,-0.36
931.28,-0.32
940.59,-0.29
950.00,-0.24
959.50,-0.21
969.09,-0.17
978.78,-0.13
988.57,-0.07
998.46,-0.01
1008.44,0.06
1018.53,0.14
1028.71,0.22
1039.00,0.30
1049.39,0.39
1059.88,0.48
1070.48,0.57
1081.19,0.66
1092.00,0.75
1102.92,0.83
1113.95,0.91
1125.09,0.99
1136.34,1.08
1147.70,1.17
1159.18,1.25
1170.77,1.33
1182.48,1.41
1194.30,1.48
1206.25,1.55
1218.31,1.62
1230.49,1.69
1242.80,1.76
1255.22,1.83
1267.78,1.90
1280.45,1.96
1293.26,2.02
1306.19,2.08
1319.25,2.14
1332.45,2.19
1345.77,2.24
1359.23,2.29
1372.82,2.33
1386.55,2.37
1400.41,2.42
1414.42,2.45
1428.56,2.49
1442.85,2.51
1457.28,2.54
1471.85,2.56
1486.57,2.59
1501.43,2.62
1516.45,2.68
1531.61,2.73
1546.93,2.78
1562.40,2.86
1578.02,2.94
1593.80,3.02
1609.74,3.11
1625.84,3.21
1642.10,3.33
1658.52,3.44
1675.10,3.55
1691.85,3.60
1708.77,3.64
1725.86,3.66
1743.12,3.67
1760.55,3.68
1778.15,3.68
1795.94,3.68
1813.90,3.68
1832.03,3.67
1850.36,3.66
1868.86,3.65
1887.55,3.65
1906.42,3.65
1925.49,3.65
1944.74,3.66
1964.19,3.66
1983.83,3.66
2003.67,3.64
2023.71,3.61
2043.94,3.57
2064.38,3.52
2085.03,3.48
2105.88,3.42
2126.94,3.37
2148.20,3.31
2169.69,3.26
2191.38,3.21
2213.30,3.15
2235.43,3.10
2257.78,3.04
2280.36,2.97
2303.17,2.89
2326.20,2.80
2349.46,2.72
2372.95,2.65
2396.68,2.57
2420.65,2.49
2444.86,2.41
2469.31,2.34
2494.00,2.26
2518.94,2.16
2544.13,2.06
2569.57,1.96
2595.27,1.87
2621.22,1.77
2647.43,1.67
2673.90,1.56
2700.64,1.45
2727.65,1.33
2754.93,1.21
2782.48,1.07
2810.30,0.92
2838.40,0.73
2866.79,0.56
2895.46,0.39
2924.41,0.26
2953.65,0.13
2983.19,0.02
3013.02,-0.09
3043.15,-0.18
3073.58,-0.27
3104.32,-0.36
3135.36,-0.44
3166.72,-0.52
3198.38,-0.59
3230.37,-0.66
3262.67,-0.72
3295.30,-0.78
3328.25,-0.83
3361.53,-0.87
3395.15,-0.89
3429.10,-0.91
3463.39,-0.93
3498.03,-0.96
3533.01,-0.98
3568.34,-1.00
3604.02,-1.03
3640.06,-1.06
3676.46,-1.08
3713.22,-1.10
3750.36,-1.12
3787.86,-1.13
3825.74,-1.14
3864.00,-1.14
3902.64,-1.14
3941.66,-1.14
3981.08,-1.13
4020.89,-1.12
4061.10,-1.09
4101.71,-1.03
4142.73,-0.98
4184.15,-0.92
4226.00,-0.85
4268.26,-0.78
4310.94,-0.71
4354.05,-0.64
4397.59,-0.57
4441.56,-0.48
4485.98,-0.39
4530.84,-0.30
4576.15,-0.21
4621.91,-0.11
4668.13,0.02
4714.81,0.15
4761.96,0.29
4809.58,0.44
4857.67,0.58
4906.25,0.72
4955.31,0.87
5004.87,1.02
5054.91,1.15
5105.46,1.30
5156.52,1.46
5208.08,1.63
5260.16,1.83
5312.77,2.04
5365.89,2.25
5419.55,2.48
5473.75,2.73
5528.49,3.00
5583.77,3.30
5639.61,3.64
5696.00,4.01
5752.96,4.44
5810.49,4.89
5868.60,5.38
5927.28,5.89
5986.56,6.43
6046.42,6.95
6106.89,7.47
6167.96,7.96
6229.64,8.40
6291.93,8.77
6354.85,9.02
6418.40,9.21
6482.58,9.26
6547.41,9.18
6612.88,9.02
6679.01,8.74
6745.80,8.40
6813.26,8.02
6881.39,7.60
6950.21,7.16
7019.71,6.73
7089.91,6.30
7160.81,5.90
7232.41,5.53
7304.74,5.17
7377.79,4.87
7451.56,4.60
7526.08,4.36
7601.34,4.15
7677.35,3.99
7754.13,3.85
7831.67,3.77
7909.98,3.72
7989.08,3.69
8068.98,3.74
8149.67,3.82
8231.16,3.93
8313.47,4.11
8396.61,4.32
8480.57,4.58
8565.38,4.90
8651.03,5.27
8737.54,5.69
8824.92,6.16
8913.17,6.67
9002.30,7.19
9092.32,7.72
9183.25,8.19
9275.08,8.58
9367.83,8.83
9461.51,8.85
9556.12,8.69
9651.68,8.35
9748.20,7.83
9845.68,7.12
9944.14,6.31
10043.58,5.43
10144.02,4.52
10245.46,3.64
10347.91,2.78
10451.39,1.97
10555.91,1.24
10661.46,0.55
10768.08,-0.08
10875.76,-0.64
10984.52,-1.14
11094.36,-1.60
11205.31,-2.00
11317.36,-2.34
11430.53,-2.65
11544.84,-2.88
11660.29,-3.06
11776.89,-3.22
11894.66,-3.28
12013.60,-3.33
12133.74,-3.34
12255.08,-3.29
12377.63,-3.21
12501.41,-3.10
12626.42,-2.96
12752.68,-2.82
12880.21,-2.74
13009.01,-2.68
13139.10,-2.63
13270.49,-2.75
13403.20,-2.93
13537.23,-3.30
13672.60,-3.74
13809.33,-4.26
13947.42,-4.89
14086.90,-5.56
14227.77,-6.24
14370.04,-6.91
14513.74,-7.56
14658.88,-8.15
14805.47,-8.70
14953.52,-9.18
15103.06,-9.61
15254.09,-10.00
15406.63,-10.19
15560.70,-10.29
15716.30,-10.22
15873.47,-10.54
16032.20,-12.01
16192.52,-17.56
16354.45,-27.80
16517.99,-40.95
16683.17,-56.65
16850.01,-65.41
17018.51,-69.08
17188.69,-69.19
17360.58,-69.29
17534.18,-69.36
17709.53,-69.25
17886.62,-69.09
18065.49,-68.96
18246.14,-68.88
18428.60,-68.87
18612.89,-68.75
18799.02,-68.60
18987.01,-68.54
19176.88,-68.52
19368.65,-68.43
19562.33,-68.25
19757.96,-67.96
19955.54,-67.89
