frequency,raw
20.00,1.85
20.20,1.88
20.40,1.91
20.61,1.95
20.81,1.98
21.02,2.01
21.23,2.04
21.44,2.07
21.66,2.10
21.87,2.13
22.09,2.16
22.31,2.18
22.54,2.21
22.76,2.24
22.99,2.27
23.22,2.30
23.45,2.33
23.69,2.36
23.92,2.39
24.16,2.42
24.40,2.45
24.65,2.48
24.89,2.51
25.14,2.54
25.39,2.56
25.65,2.59
25.91,2.62
26.16,2.65
26.43,2.67
26.69,2.69
26.96,2.71
27.23,2.73
27.50,2.76
27.77,2.78
28.05,2.80
28.33,2.82
28.62,2.84
28.90,2.86
29.19,2.88
29.48,2.90
29.78,2.92
30.08,2.93
30.38,2.95
30.68,2.97
30.99,2.98
31.30,3.00
31.61,3.01
31.93,3.02
32.24,3.03
32.57,3.04
32.89,3.06
33.22,3.07
33.55,3.08
33.89,3.09
34.23,3.10
34.57,3.11
34.92,3.12
35.27,3.13
35.62,3.14
35.97,3.14
36.33,3.15
36.70,3.16
37.06,3.16
37.43,3.17
37.81,3.17
38.19,3.18
38.57,3.18
38.95,3.18
39.34,3.18
39.74,3.19
40.14,3.19
40.54,3.19
40.94,3.19
41.35,3.19
41.76,3.19
42.18,3.19
42.60,3.19
43.03,3.19
43.46,3.19
43.90,3.18
44.33,3.18
44.78,3.18
45.23,3.17
45.68,3.17
46.13,3.16
46.60,3.16
47.06,3.15
47.53,3.14
48.01,3.13
48.49,3.12
48.97,3.11
49.46,3.11
49.96,3.10
50.46,3.09
50.96,3.08
51.47,3.06
51.99,3.05
52.51,3.04
53.03,3.03
53.56,3.02
54.10,3.01
54.64,2.99
55.18,2.98
55.74,2.97
56.29,2.95
56.86,2.94
57.42,2.92
58.00,2.90
58.58,2.89
59.16,2.87
59.76,2.85
60.35,2.84
60.96,2.82
61.57,2.80
62.18,2.78
62.80,2.76
63.43,2.74
64.07,2.72
64.71,2.70
65.35,2.68
66.01,2.66
66.67,2.64
67.33,2.62
68.01,2.59
68.69,2.57
69.37,2.55
70.07,2.52
70.77,2.50
71.48,2.48
72.19,2.45
72.91,2.43
73.64,2.40
74.38,2.38
75.12,2.35
75.87,2.33
76.63,2.30
77.40,2.28
78.17,2.25
78.95,2.22
79.74,2.20
80.54,2.17
81.35,2.14
82.16,2.11
82.98,2.08
83.81,2.05
84.65,2.02
85.50,1.99
86.35,1.97
87.22,1.94
88.09,1.91
88.97,1.87
89.86,1.84
90.76,1.81
91.66,1.78
92.58,1.75
93.51,1.72
94.44,1.69
95.39,1.66
96.34,1.63
97.30,1.60
98.28,1.57
99.26,1.54
100.25,1.51
101.25,1.47
102.27,1.44
103.29,1.40
104.32,1.37
105.37,1.34
106.42,1.31
107.48,1.27
108.56,1.24
109.64,1.21
110.74,1.17
111.85,1.14
112.97,1.10
114.10,1.07
115.24,1.04
116.39,1.01
117.55,0.97
118.73,0.94
119.92,0.92
121.12,0.88
122.33,0.84
123.55,0.80
124.79,0.76
126.03,0.73
127.29,0.70
128.57,0.66
129.85,0.63
131.15,0.59
132.46,0.56
133.79,0.52
135.12,0.49
136.48,0.45
137.84,0.42
139.22,0.39
140.61,0.35
142.02,0.32
143.44,0.29
144.87,0.25
146.32,0.22
147.78,0.18
149.26,0.15
150.75,0.12
152.26,0.08
153.78,0.04
155.32,0.01
156.88,-0.02
158.44,-0.06
160.03,-0.09
161.63,-0.13
163.24,-0.16
164.88,-0.19
166.53,-0.23
168.19,-0.26
169.87,-0.29
171.57,-0.32
173.29,-0.36
175.02,-0.39
176.77,-0.43
178.54,-0.46
180.32,-0.49
182.13,-0.53
183.95,-0.56
185.79,-0.59
187.65,-0.62
189.52,-0.66
191.42,-0.69
193.33,-0.72
195.27,-0.75
197.22,-0.78
199.19,-0.81
201.18,-0.85
203.19,-0.88
205.23,-0.91
207.28,-0.94
209.35,-0.97
211.44,-1.01
213.56,-1.04
215.69,-1.07
217.85,-1.10
220.03,-1.13
222.23,-1.16
224.45,-1.18
226.70,-1.21
228.96,-1.24
231.25,-1.27
233.57,-1.30
235.90,-1.33
238.26,-1.37
240.64,-1.40
243.05,-1.43
245.48,-1.46
247.93,-1.48
250.41,-1.51
252.92,-1.54
255.45,-1.57
258.00,-1.59
260.58,-1.62
263.19,-1.64
265.82,-1.67
268.48,-1.70
271.16,-1.73
273.87,-1.75
276.61,-1.78
279.38,-1.81
282.17,-1.83
284.99,-1.86
287.84,-1.88
290.72,-1.90
293.63,-1.92
296.57,-1.94
299.53,-1.97
302.53,-1.99
305.55,-2.01
308.61,-2.04
311.69,-2.06
314.81,-2.08
317.96,-2.10
321.14,-2.11
324.35,-2.13
327.59,-2.15
330.87,-2.16
334.18,-2.18
337.52,-2.19
340.90,-2.21
344.30,-2.23
347.75,-2.24
351.23,-2.25
354.74,-2.26
358.28,-2.27
361.87,-2.28
365.49,-2.29
369.14,-2.30
372.83,-2.30
376.56,-2.31
380.33,-2.31
384.13,-2.32
387.97,-2.32
391.85,-2.32
395.77,-2.32
399.73,-2.32
403.72,-2.31
407.76,-2.31
411.84,-2.31
415.96,-2.30
420.12,-2.29
424.32,-2.28
428.56,-2.27
432.85,-2.25
437.18,-2.24
441.55,-2.22
445.96,-2.21
450.42,-2.19
454.93,-2.17
459.48,-2.15
464.07,-2.13
468.71,-2.10
473.40,-2.08
478.13,-2.05
482.91,-2.02
487.74,-1.99
492.62,-1.97
497.55,-1.93
502.52,-1.90
507.55,-1.87
512.62,-1.83
517.75,-1.79
522.93,-1.76
528.16,-1.72
533.44,-1.69
538.77,-1.65
544.16,-1.62
549.60,-1.58
555.10,-1.54
560.65,-1.49
566.25,-1.45
571.92,-1.41
577.64,-1.37
583.41,-1.33
589.25,-1.29
595.14,-1.25
601.09,-1.21
607.10,-1.16
613.17,-1.11
619.30,-1.06
625.50,-1.02
631.75,-0.99
638.07,-1.00
644.45,-0.98
650.89,-0.93
657.40,-0.87
663.98,-0.83
670.62,-0.81
677.32,-0.80
684.10,-0.75
690.94,-0.69
697.85,-0.73
704.83,-1.03
711.87,-1.34
718.99,-1.32
726.18,-1.18
733.44,-1.15
740.78,-1.25
748.19,-1.19
755.67,-1.10
763.23,-0.99
770.86,-0.93
778.57,-0.89
786.35,-0.85
794.22,-0.81
802.16,-0.78
810.18,-0.75
818.28,-0.72
826.46,-0.70
834.73,-0.67
843.08,-0.65
851.51,-0.62
860.02,-0.59
868.62,-0.57
877.31,-0.54
886.08,-0.50
894.94,-0.46
903.89,-0.43
912.93,-0.39
922.06,-0.36
931.28,-0.32
940.59,-0.28
950.00,-0.24
959.50,-0.19
969.09,-0.14
978.78,-0.10
988.57,-0.06
998.46,-0.01
1008.44,0.05
1018.53,0.10
1028.71,0.16
1039.00,0.21
1049.39,0.26
1059.88,0.31
1070.48,0.36
1081.19,0.43
1092.00,0.49
1102.92,0.56
1113.95,0.61
1125.09,0.65
1136.34,0.70
1147.70,0.76
1159.18,0.82
1170.77,0.89
1182.48,0.94
1194.30,0.98
1206.25,1.02
1218.31,1.07
1230.49,1.13
1242.80,1.19
1255.22,1.23
1267.78,1.27
1280.45,1.31
1293.26,1.35
1306.19,1.40
1319.25,1.44
1332.45,1.48
1345.77,1.52
1359.23,1.56
1372.82,1.60
1386.55,1.64
1400.41,1.68
1414.42,1.72
1428.56,1.75
1442.85,1.80
1457.28,1.85
1471.85,1.89
1486.57,1.94
1501.43,1.97
1516.45,2.01
1531.61,2.06
1546.93,2.11
1562.40,2.17
1578.02,2.22
1593.80,2.27
1609.74,2.33
1625.84,2.38
1642.10,2.44
1658.52,2.51
1675.10,2.58
1691.85,2.65
1708.77,2.73
1725.86,2.81
1743.12,2.90
1760.55,2.98
1778.15,3.06
1795.94,3.14
1813.90,3.23
1832.03,3.32
1850.36,3.41
1868.86,3.50
1887.55,3.58
1906.42,3.68
1925.49,3.78
1944.74,3.88
1964.19,3.98
1983.83,4.07
2003.67,4.16
2023.71,4.26
2043.94,4.37
2064.38,4.47
2085.03,4.56
2105.88,4.65
2126.94,4.72
2148.20,4.79
2169.69,4.85
2191.38,4.91
2213.30,4.96
2235.43,5.01
2257.78,5.04
2280.36,5.06
2303.17,5.08
2326.20,5.09
2349.46,5.09
2372.95,5.08
2396.68,5.06
2420.65,5.03
2444.86,5.01
2469.31,4.98
2494.00,4.95
2518.94,4.91
2544.13,4.86
2569.57,4.81
2595.27,4.77
2621.22,4.74
2647.43,4.73
2673.90,4.72
2700.64,4.70
2727.65,4.68
2754.93,4.65
2782.48,4.63
2810.30,4.60
2838.40,4.57
2866.79,4.54
2895.46,4.50
2924.41,4.46
2953.65,4.42
2983.19,4.37
3013.02,4.32
3043.15,4.26
3073.58,4.20
3104.32,4.14
3135.36,4.08
3166.72,4.02
3198.38,3.97
3230.37,3.92
3262.67,3.88
3295.30,3.84
3328.25,3.80
3361.53,3.78
3395.15,3.76
3429.10,3.74
3463.39,3.72
3498.03,3.70
3533.01,3.69
3568.34,3.68
3604.02,3.66
3640.06,3.65
3676.46,3.64
3713.22,3.61
3750.36,3.59
3787.86,3.58
3825.74,3.56
3864.00,3.55
3902.64,3.52
3941.66,3.50
3981.08,3.49
4020.89,3.48
4061.10,3.46
4101.71,3.47
4142.73,3.47
4184.15,3.48
4226.00,3.48
4268.26,3.48
4310.94,3.49
4354.05,3.50
4397.59,3.50
4441.56,3.49
4485.98,3.49
4530.84,3.48
4576.15,3.45
4621.91,3.40
4668.13,3.34
4714.81,3.29
4761.96,3.23
4809.58,3.17
4857.67,3.10
4906.25,3.00
4955.31,2.91
5004.87,2.84
5054.91,2.78
5105.46,2.71
5156.52,2.63
5208.08,2.53
5260.16,2.44
5312.77,2.35
5365.89,2.27
5419.55,2.19
5473.75,2.09
5528.49,1.98
5583.77,1.88
5639.61,1.76
5696.00,1.65
5752.96,1.53
5810.49,1.40
5868.60,1.27
5927.28,1.14
5986.56,1.00
6046.42,0.85
6106.89,0.71
6167.96,0.57
6229.64,0.43
6291.93,0.28
6354.85,0.11
6418.40,-0.05
6482.58,-0.20
6547.41,-0.35
6612.88,-0.50
6679.01,-0.68
6745.80,-0.85
6813.26,-1.02
6881.39,-1.18
6950.21,-1.35
7019.71,-1.53
7089.91,-1.70
7160.81,-1.86
7232.41,-2.01
7304.74,-2.15
7377.79,-2.28
7451.56,-2.37
7526.08,-2.43
7601.34,-2.46
7677.35,-2.46
7754.13,-2.45
7831.67,-2.32
7909.98,-2.15
7989.08,-1.92
8068.98,-1.63
8149.67,-1.27
8231.16,-0.81
8313.47,-0.26
8396.61,0.30
8480.57,0.81
8565.38,1.30
8651.03,1.70
8737.54,1.99
8824.92,2.00
8913.17,1.74
9002.30,1.40
9092.32,0.88
9183.25,0.38
9275.08,-0.11
9367.83,-0.61
9461.51,-1.20
9556.12,-1.76
9651.68,-2.30
9748.20,-2.81
9845.68,-3.29
9944.14,-3.76
10043.58,-4.21
10144.02,-4.64
10245.46,-5.05
10347.91,-5.47
10451.39,-5.89
10555.91,-6.29
10661.46,-6.72
10768.08,-7.17
10875.76,-7.64
10984.52,-8.16
11094.36,-8.72
11205.31,-9.33
11317.36,-10.00
11430.53,-10.71
11544.84,-11.51
11660.29,-12.35
11776.89,-13.25
11894.66,-14.24
12013.60,-15.26
12133.74,-16.27
12255.08,-17.15
12377.63,-17.88
12501.41,-18.17
12626.42,-17.70
12752.68,-16.67
12880.21,-15.26
13009.01,-13.70
13139.10,-12.14
13270.49,-10.77
13403.20,-9.51
13537.23,-8.60
13672.60,-7.86
13809.33,-7.30
13947.42,-7.03
14086.90,-6.99
14227.77,-7.09
14370.04,-7.30
14513.74,-7.63
14658.88,-7.95
14805.47,-8.26
14953.52,-8.53
15103.06,-8.74
15254.09,-8.90
15406.63,-8.93
15560.70,-8.89
15716.30,-8.77
15873.47,-8.54
16032.20,-8.26
16192.52,-7.85
16354.45,-7.34
16517.99,-6.76
16683.17,-6.09
16850.01,-5.46
17018.51,-4.88
17188.69,-4.55
17360.58,-4.51
17534.18,-4.73
17709.53,-5.31
17886.62,-6.12
18065.49,-7.03
18246.14,-7.98
18428.60,-8.93
18612.89,-9.86
18799.02,-10.74
18987.01,-11.55
19176.88,-12.27
19368.65,-13.00
19562.33,-13.78
19757.96,-14.66
19955.54,-15.62
