frequency,raw
20.00,-15.87
20.20,-15.65
20.40,-15.43
20.61,-15.21
20.81,-14.99
21.02,-14.79
21.23,-14.82
21.44,-14.85
21.66,-14.88
21.87,-14.90
22.09,-14.87
22.31,-14.75
22.54,-14.62
22.76,-14.50
22.99,-14.38
23.22,-14.22
23.45,-14.07
23.69,-13.91
23.92,-13.76
24.16,-13.68
24.40,-13.64
24.65,-13.59
24.89,-13.55
25.14,-13.42
25.39,-13.24
25.65,-13.05
25.91,-12.87
26.16,-12.75
26.43,-12.68
26.69,-12.61
26.96,-12.54
27.23,-12.44
27.50,-12.34
27.77,-12.23
28.05,-12.12
28.33,-11.97
28.62,-11.81
28.90,-11.65
29.19,-11.52
29.48,-11.40
29.78,-11.28
30.08,-11.16
30.38,-11.04
30.68,-10.92
30.99,-10.81
31.30,-10.71
31.61,-10.62
31.93,-10.53
32.24,-10.38
32.57,-10.22
32.89,-10.05
33.22,-9.95
33.55,-9.88
33.89,-9.80
34.23,-9.75
34.57,-9.71
34.92,-9.67
35.27,-9.60
35.62,-9.52
35.97,-9.45
36.33,-9.23
36.70,-9.00
37.06,-8.80
37.43,-8.75
37.81,-8.70
38.19,-8.60
38.57,-8.45
38.95,-8.30
39.34,-8.26
39.74,-8.24
40.14,-8.13
40.54,-7.84
40.94,-7.55
41.35,-7.64
41.76,-7.79
42.18,-7.76
42.60,-7.51
43.03,-7.27
43.46,-7.16
43.90,-7.05
44.33,-6.99
44.78,-6.96
45.23,-6.87
45.68,-6.74
46.13,-6.63
46.60,-6.56
47.06,-6.47
47.53,-6.23
48.01,-5.99
48.49,-6.18
48.97,-6.37
49.46,-6.17
49.96,-5.95
50.46,-5.89
50.96,-5.84
51.47,-5.73
51.99,-5.61
52.51,-5.47
53.03,-5.32
53.56,-5.09
54.10,-4.93
54.64,-5.06
55.18,-5.10
55.74,-4.95
56.29,-4.80
56.86,-4.65
57.42,-4.59
58.00,-4.56
58.58,-4.44
59.16,-4.36
59.76,-4.34
60.35,-4.29
60.96,-4.23
61.57,-4.17
62.18,-4.10
62.80,-3.99
63.43,-3.91
64.07,-3.86
64.71,-3.97
65.35,-3.92
66.01,-3.74
66.67,-3.67
67.33,-3.56
68.01,-3.39
68.69,-3.53
69.37,-3.53
70.07,-3.42
70.77,-3.39
71.48,-3.19
72.19,-2.99
72.91,-2.97
73.64,-3.09
74.38,-3.07
75.12,-2.96
75.87,-2.99
76.63,-3.05
77.40,-2.99
78.17,-2.85
78.95,-2.85
79.74,-2.85
80.54,-2.85
81.35,-2.85
82.16,-2.85
82.98,-2.85
83.81,-2.85
84.65,-2.92
85.50,-2.98
86.35,-3.02
87.22,-3.05
88.09,-3.06
88.97,-3.15
89.86,-3.15
90.76,-3.32
91.66,-3.38
92.58,-3.29
93.51,-3.34
94.44,-3.48
95.39,-3.50
96.34,-3.39
97.30,-3.22
98.28,-3.11
99.26,-2.98
100.25,-2.86
101.25,-2.77
102.27,-2.64
103.29,-2.54
104.32,-2.43
105.37,-2.32
106.42,-2.19
107.48,-2.02
108.56,-1.85
109.64,-1.75
110.74,-1.70
111.85,-1.79
112.97,-1.88
114.10,-1.62
115.24,-1.63
116.39,-1.66
117.55,-1.65
118.73,-1.45
119.92,-1.19
121.12,-1.24
122.33,-1.21
123.55,-1.14
124.79,-1.00
126.03,-0.89
127.29,-0.94
128.57,-0.82
129.85,-0.56
131.15,-0.51
132.46,-0.31
133.79,-0.15
135.12,-0.06
136.48,-0.11
137.84,-0.05
139.22,0.16
140.61,0.22
142.02,0.19
143.44,0.19
144.87,0.19
146.32,0.19
147.78,0.19
149.26,0.23
150.75,0.30
152.26,0.20
153.78,0.10
155.32,0.11
156.88,0.17
158.44,0.12
160.03,-0.13
161.63,-0.11
163.24,-0.10
164.88,-0.20
166.53,-0.16
168.19,-0.10
169.87,0.02
171.57,0.12
173.29,0.22
175.02,0.25
176.77,0.25
178.54,0.25
180.32,0.25
182.13,0.26
183.95,0.27
185.79,0.28
187.65,0.30
189.52,0.35
191.42,0.38
193.33,0.28
195.27,0.15
197.22,0.12
199.19,0.16
201.18,0.22
203.19,0.21
205.23,0.13
207.28,0.09
209.35,0.11
211.44,0.12
213.56,0.02
215.69,-0.02
217.85,-0.03
220.03,-0.02
222.23,-0.01
224.45,-0.08
226.70,-0.13
228.96,-0.13
231.25,-0.12
233.57,-0.15
235.90,-0.20
238.26,-0.18
240.64,-0.16
243.05,-0.19
245.48,-0.21
247.93,-0.26
250.41,-0.28
252.92,-0.27
255.45,-0.26
258.00,-0.27
260.58,-0.37
263.19,-0.43
265.82,-0.45
268.48,-0.45
271.16,-0.55
273.87,-0.66
276.61,-0.66
279.38,-0.66
282.17,-0.66
284.99,-0.71
287.84,-0.74
290.72,-0.73
293.63,-0.72
296.57,-0.64
299.53,-0.55
302.53,-0.49
305.55,-0.47
308.61,-0.46
311.69,-0.46
314.81,-0.45
317.96,-0.50
321.14,-0.54
324.35,-0.55
327.59,-0.55
330.87,-0.55
334.18,-0.56
337.52,-0.56
340.90,-0.63
344.30,-0.66
347.75,-0.66
351.23,-0.66
354.74,-0.66
358.28,-0.70
361.87,-0.75
365.49,-0.82
369.14,-0.83
372.83,-0.89
376.56,-1.01
380.33,-1.01
384.13,-1.01
387.97,-1.05
391.85,-1.11
395.77,-1.18
399.73,-1.20
403.72,-1.24
407.76,-1.29
411.84,-1.31
415.96,-1.31
420.12,-1.25
424.32,-1.21
428.56,-1.19
432.85,-1.18
437.18,-1.15
441.55,-1.12
445.96,-1.07
450.42,-1.02
454.93,-0.96
459.48,-0.90
464.07,-0.89
468.71,-0.88
473.40,-0.82
478.13,-0.77
482.91,-0.72
487.74,-0.68
492.62,-0.64
497.55,-0.65
502.52,-0.67
507.55,-0.67
512.62,-0.66
517.75,-0.65
522.93,-0.65
528.16,-0.66
533.44,-0.67
538.77,-0.72
544.16,-0.85
549.60,-0.90
555.10,-0.94
560.65,-0.99
566.25,-0.94
571.92,-0.95
577.64,-1.01
583.41,-1.04
589.25,-1.06
595.14,-1.07
601.09,-1.07
607.10,-1.13
613.17,-1.18
619.30,-1.14
625.50,-1.10
631.75,-1.08
638.07,-1.04
644.45,-1.01
650.89,-0.96
657.40,-0.92
663.98,-0.87
670.62,-0.81
677.32,-0.76
684.10,-0.72
690.94,-0.68
697.85,-0.64
704.83,-0.67
711.87,-0.65
718.99,-0.56
726.18,-0.54
733.44,-0.57
740.78,-0.59
748.19,-0.62
755.67,-0.65
763.23,-0.71
770.86,-0.73
778.57,-0.64
786.35,-0.50
794.22,-0.47
802.16,-0.50
810.18,-0.52
818.28,-0.54
826.46,-0.48
834.73,-0.42
843.08,-0.42
851.51,-0.42
860.02,-0.34
868.62,-0.24
877.31,-0.20
886.08,-0.22
894.94,-0.24
903.89,-0.26
912.93,-0.24
922.06,-0.17
931.28,-0.15
940.59,-0.15
950.00,-0.15
959.50,-0.10
969.09,-0.03
978.78,-0.02
988.57,-0.01
998.46,-0.00
1008.44,0.01
1018.53,0.04
1028.71,0.06
1039.00,0.09
1049.39,0.12
1059.88,0.19
1070.48,0.29
1081.19,0.36
1092.00,0.41
1102.92,0.40
1113.95,0.42
1125.09,0.49
1136.34,0.57
1147.70,0.65
1159.18,0.74
1170.77,0.83
1182.48,0.85
1194.30,0.93
1206.25,0.93
1218.31,0.95
1230.49,1.10
1242.80,1.14
1255.22,1.15
1267.78,1.28
1280.45,1.34
1293.26,1.37
1306.19,1.43
1319.25,1.56
1332.45,1.68
1345.77,1.67
1359.23,1.66
1372.82,1.77
1386.55,1.83
1400.41,1.84
1414.42,2.02
1428.56,2.16
1442.85,2.10
1457.28,2.18
1471.85,2.23
1486.57,2.29
1501.43,2.38
1516.45,2.47
1531.61,2.55
1546.93,2.63
1562.40,2.77
1578.02,2.90
1593.80,3.02
1609.74,3.15
1625.84,3.25
1642.10,3.39
1658.52,3.56
1675.10,3.64
1691.85,3.74
1708.77,3.91
1725.86,4.09
1743.12,4.17
1760.55,4.26
1778.15,4.36
1795.94,4.46
1813.90,4.53
1832.03,4.60
1850.36,4.64
1868.86,4.70
1887.55,4.71
1906.42,4.86
1925.49,5.08
1944.74,5.15
1964.19,5.17
1983.83,5.31
2003.67,5.43
2023.71,5.59
2043.94,5.79
2064.38,5.90
2085.03,5.97
2105.88,6.06
2126.94,6.14
2148.20,6.28
2169.69,6.40
2191.38,6.44
2213.30,6.56
2235.43,6.67
2257.78,6.74
2280.36,6.80
2303.17,6.87
2326.20,6.95
2349.46,7.02
2372.95,7.10
2396.68,7.15
2420.65,7.04
2444.86,6.94
2469.31,6.91
2494.00,6.82
2518.94,6.77
2544.13,6.77
2569.57,6.79
2595.27,6.75
2621.22,6.76
2647.43,6.79
2673.90,6.78
2700.64,6.73
2727.65,6.76
2754.93,6.77
2782.48,6.70
2810.30,6.64
2838.40,6.61
2866.79,6.52
2895.46,6.42
2924.41,6.35
2953.65,6.32
2983.19,6.50
3013.02,6.72
3043.15,6.97
3073.58,7.25
3104.32,7.44
3135.36,7.51
3166.72,7.59
3198.38,7.65
3230.37,7.73
3262.67,7.83
3295.30,7.81
3328.25,7.85
3361.53,7.90
3395.15,7.91
3429.10,8.03
3463.39,8.11
3498.03,8.14
3533.01,8.15
3568.34,8.20
3604.02,8.14
3640.06,7.87
3676.46,7.60
3713.22,7.36
3750.36,6.95
3787.86,6.63
3825.74,6.33
3864.00,6.11
3902.64,5.83
3941.66,5.49
3981.08,5.27
4020.89,5.08
4061.10,4.75
4101.71,4.47
4142.73,4.22
4184.15,3.93
4226.00,3.66
4268.26,3.46
4310.94,3.34
4354.05,3.17
4397.59,3.06
4441.56,3.02
4485.98,2.88
4530.84,2.58
4576.15,1.98
4621.91,1.61
4668.13,1.47
4714.81,1.23
4761.96,0.87
4809.58,0.38
4857.67,-0.00
4906.25,-0.22
4955.31,-0.32
5004.87,-0.45
5054.91,-0.57
5105.46,-0.65
5156.52,-0.78
5208.08,-0.83
5260.16,-0.80
5312.77,-0.71
5365.89,-0.59
5419.55,-0.41
5473.75,-0.31
5528.49,-0.25
5583.77,-0.49
5639.61,-0.72
5696.00,-0.88
5752.96,-1.08
5810.49,-1.36
5868.60,-1.63
5927.28,-2.34
5986.56,-2.90
6046.42,-3.47
6106.89,-4.45
6167.96,-5.01
6229.64,-4.83
6291.93,-5.11
6354.85,-6.27
6418.40,-7.77
6482.58,-9.07
6547.41,-10.66
6612.88,-12.11
6679.01,-12.88
6745.80,-13.38
6813.26,-13.84
6881.39,-14.44
6950.21,-15.08
7019.71,-14.72
7089.91,-14.15
7160.81,-13.23
7232.41,-12.50
7304.74,-11.37
7377.79,-10.21
7451.56,-9.16
7526.08,-7.82
7601.34,-6.57
7677.35,-5.60
7754.13,-4.41
7831.67,-2.96
7909.98,-1.88
7989.08,-0.75
8068.98,0.73
8149.67,1.59
8231.16,2.57
8313.47,3.28
8396.61,3.80
8480.57,4.40
8565.38,4.44
8651.03,4.25
8737.54,4.04
8824.92,3.74
8913.17,3.23
9002.30,2.88
9092.32,2.42
9183.25,1.65
9275.08,1.34
9367.83,1.70
9461.51,2.09
9556.12,1.86
9651.68,1.16
9748.20,0.17
9845.68,-1.08
9944.14,-1.61
10043.58,-1.90
10144.02,-2.29
10245.46,-2.35
10347.91,-3.09
10451.39,-2.88
10555.91,-2.29
10661.46,-1.66
10768.08,-1.13
10875.76,-0.83
10984.52,-0.55
11094.36,-0.38
11205.31,-0.44
11317.36,-0.60
11430.53,-0.62
11544.84,-0.87
11660.29,-1.10
11776.89,-1.02
11894.66,-0.81
12013.60,-0.52
12133.74,-0.27
12255.08,0.32
12377.63,1.00
12501.41,1.14
12626.42,1.23
12752.68,0.99
12880.21,0.46
13009.01,-0.20
13139.10,-1.14
13270.49,-2.74
13403.20,-4.28
13537.23,-6.04
13672.60,-8.15
13809.33,-9.91
13947.42,-11.47
14086.90,-13.41
14227.77,-14.90
14370.04,-15.40
14513.74,-14.88
14658.88,-14.45
14805.47,-13.84
14953.52,-13.48
15103.06,-13.58
15254.09,-15.83
15406.63,-18.38
15560.70,-21.55
15716.30,-23.67
15873.47,-24.16
16032.20,-23.45
16192.52,-21.29
16354.45,-20.15
16517.99,-18.84
16683.17,-17.79
16850.01,-16.84
17018.51,-15.74
17188.69,-14.71
17360.58,-14.04
17534.18,-13.46
17709.53,-13.33
17886.62,-13.73
18065.49,-14.11
18246.14,-14.46
18428.60,-14.73
18612.89,-14.78
18799.02,-14.82
18987.01,-15.09
19176.88,-15.76
19368.65,-15.73
19562.33,-15.28
19757.96,-14.27
19955.54,-14.17
