frequency,raw,smoothed,error,error_smoothed,equalization,parametric_eq,fixed_band_eq,equalized_raw,equalized_smoothed,target
20.00,-10.75,-10.75,-15.28,-15.28,6.00,6.32,2.82,-4.75,-4.75,4.53
20.20,-10.64,-10.63,-15.22,-15.21,6.00,6.32,2.91,-4.64,-4.63,4.58
20.40,-10.52,-10.52,-15.16,-15.15,6.00,6.31,2.99,-4.52,-4.52,4.63
20.61,-10.41,-10.41,-15.07,-15.08,6.00,6.31,3.07,-4.41,-4.41,4.66
20.81,-10.29,-10.30,-15.00,-15.00,6.00,6.31,3.16,-4.29,-4.30,4.71
21.02,-10.19,-10.19,-14.93,-14.93,6.00,6.31,3.25,-4.19,-4.19,4.75
21.23,-10.09,-10.09,-14.85,-14.86,6.00,6.31,3.34,-4.09,-4.09,4.77
21.44,-9.99,-9.99,-14.78,-14.78,6.00,6.31,3.44,-3.99,-3.99,4.79
21.66,-9.90,-9.90,-14.70,-14.71,6.00,6.31,3.53,-3.90,-3.90,4.81
21.87,-9.80,-9.80,-14.62,-14.62,6.00,6.30,3.63,-3.80,-3.80,4.82
22.09,-9.68,-9.68,-14.52,-14.51,6.00,6.30,3.74,-3.68,-3.68,4.84
22.31,-9.54,-9.55,-14.39,-14.39,6.00,6.30,3.84,-3.54,-3.55,4.85
22.54,-9.41,-9.40,-14.25,-14.25,6.00,6.30,3.95,-3.41,-3.40,4.84
22.76,-9.26,-9.26,-14.11,-14.10,6.00,6.30,4.06,-3.26,-3.26,4.84
22.99,-9.13,-9.15,-13.96,-13.98,6.00,6.30,4.18,-3.13,-3.15,4.83
23.22,-9.07,-9.06,-13.90,-13.89,6.00,6.29,4.29,-3.07,-3.06,4.83
23.45,-9.01,-9.00,-13.84,-13.84,6.00,6.29,4.41,-3.01,-3.00,4.83
23.69,-8.96,-8.95,-13.80,-13.79,6.00,6.29,4.53,-2.96,-2.95,4.84
23.92,-8.91,-8.90,-13.75,-13.75,6.00,6.29,4.66,-2.91,-2.90,4.84
24.16,-8.85,-8.85,-13.69,-13.70,6.00,6.29,4.79,-2.85,-2.85,4.85
24.40,-8.80,-8.80,-13.65,-13.65,6.00,6.28,4.91,-2.80,-2.80,4.86
24.65,-8.75,-8.74,-13.59,-13.60,6.00,6.28,5.05,-2.75,-2.74,4.85
24.89,-8.68,-8.68,-13.53,-13.53,6.00,6.28,5.18,-2.68,-2.68,4.85
25.14,-8.59,-8.59,-13.44,-13.44,6.00,6.28,5.31,-2.59,-2.59,4.85
25.39,-8.48,-8.49,-13.34,-13.34,6.00,6.28,5.45,-2.48,-2.49,4.85
25.65,-8.37,-8.37,-13.22,-13.22,6.00,6.27,5.59,-2.37,-2.37,4.85
25.91,-8.25,-8.25,-13.09,-13.09,6.00,6.27,5.72,-2.25,-2.25,4.84
26.16,-8.12,-8.12,-12.97,-12.96,6.00,6.27,5.86,-2.12,-2.12,4.84
26.43,-8.00,-7.99,-12.84,-12.83,6.00,6.27,6.00,-2.00,-1.99,4.84
26.69,-7.87,-7.87,-12.70,-12.71,6.00,6.26,6.13,-1.87,-1.87,4.84
26.96,-7.74,-7.74,-12.59,-12.59,6.00,6.26,6.27,-1.74,-1.74,4.85
27.23,-7.64,-7.63,-12.48,-12.48,6.00,6.26,6.40,-1.64,-1.63,4.85
27.50,-7.54,-7.53,-12.38,-12.38,6.00,6.25,6.53,-1.54,-1.53,4.85
27.77,-7.44,-7.44,-12.28,-12.28,6.00,6.25,6.66,-1.44,-1.44,4.83
28.05,-7.36,-7.36,-12.19,-12.19,6.00,6.25,6.78,-1.36,-1.36,4.83
28.33,-7.29,-7.28,-12.11,-12.11,6.00,6.25,6.89,-1.29,-1.28,4.82
28.62,-7.22,-7.21,-12.04,-12.03,6.00,6.24,7.01,-1.22,-1.21,4.82
28.90,-7.14,-7.15,-11.96,-11.97,6.00,6.24,7.11,-1.14,-1.15,4.83
29.19,-7.10,-7.10,-11.91,-11.93,6.00,6.24,7.21,-1.10,-1.10,4.82
29.48,-7.08,-7.08,-11.91,-11.90,6.00,6.23,7.29,-1.08,-1.08,4.83
29.78,-7.05,-7.04,-11.87,-11.87,6.00,6.23,7.38,-1.05,-1.04,4.82
30.08,-6.99,-6.97,-11.82,-11.80,6.00,6.22,7.44,-0.99,-0.97,4.83
30.38,-6.86,-6.86,-11.68,-11.68,6.00,6.22,7.50,-0.86,-0.86,4.82
30.68,-6.72,-6.72,-11.53,-11.54,6.00,6.22,7.55,-0.72,-0.72,4.82
30.99,-6.58,-6.58,-11.39,-11.39,6.00,6.21,7.59,-0.58,-0.58,4.81
31.30,-6.44,-6.43,-11.25,-11.25,6.00,6.21,7.62,-0.44,-0.43,4.81
31.61,-6.31,-6.30,-11.12,-11.11,6.00,6.21,7.64,-0.31,-0.30,4.81
31.93,-6.18,-6.19,-10.99,-11.00,6.00,6.20,7.64,-0.18,-0.19,4.81
32.24,-6.11,-6.10,-10.90,-10.91,6.00,6.20,7.64,-0.11,-0.10,4.80
32.57,-6.06,-6.04,-10.86,-10.84,6.00,6.19,7.62,-0.06,-0.04,4.80
32.89,-6.01,-6.02,-10.81,-10.82,6.00,6.19,7.60,-0.01,-0.02,4.80
33.22,-6.02,-6.04,-10.80,-10.83,6.00,6.18,7.56,-0.02,-0.04,4.79
33.55,-6.06,-6.07,-10.84,-10.85,6.00,6.18,7.52,-0.06,-0.07,4.78
33.89,-6.11,-6.05,-10.88,-10.83,6.00,6.17,7.47,-0.11,-0.05,4.77
34.23,-5.97,-5.94,-10.75,-10.71,6.00,6.17,7.41,0.03,0.06,4.78
34.57,-5.75,-5.76,-10.51,-10.52,6.00,6.16,7.35,0.25,0.24,4.77
34.92,-5.52,-5.57,-10.28,-10.33,6.00,6.16,7.28,0.48,0.43,4.76
35.27,-5.45,-5.45,-10.21,-10.21,6.00,6.15,7.21,0.55,0.55,4.76
35.62,-5.41,-5.40,-10.16,-10.15,6.00,6.15,7.13,0.59,0.60,4.76
35.97,-5.37,-5.35,-10.13,-10.11,6.00,6.14,7.05,0.63,0.65,4.75
36.33,-5.27,-5.27,-10.03,-10.02,6.00,6.14,6.97,0.73,0.73,4.76
36.70,-5.16,-5.17,-9.90,-9.91,6.00,6.13,6.89,0.84,0.83,4.74
37.06,-5.05,-5.06,-9.80,-9.81,6.00,6.12,6.81,0.95,0.94,4.74
37.43,-4.97,-4.97,-9.73,-9.72,6.00,6.12,6.73,1.03,1.03,4.76
37.81,-4.91,-4.90,-9.66,-9.66,6.00,6.11,6.65,1.09,1.10,4.75
38.19,-4.85,-4.86,-9.59,-9.61,6.00,6.11,6.57,1.15,1.14,4.75
38.57,-4.82,-4.82,-9.57,-9.57,6.00,6.10,6.49,1.18,1.18,4.75
38.95,-4.78,-4.77,-9.54,-9.53,6.00,6.09,6.41,1.22,1.23,4.76
39.34,-4.70,-4.71,-9.46,-9.47,6.00,6.09,6.34,1.30,1.29,4.75
39.74,-4.63,-4.62,-9.37,-9.37,6.00,6.08,6.27,1.37,1.38,4.75
40.14,-4.51,-4.48,-9.26,-9.23,6.00,6.07,6.20,1.49,1.52,4.75
40.54,-4.35,-4.34,-9.09,-9.09,6.00,6.07,6.14,1.65,1.66,4.75
40.94,-4.18,-4.23,-8.92,-8.97,6.00,6.06,6.08,1.82,1.77,4.74
41.35,-4.16,-4.16,-8.89,-8.90,6.00,6.05,6.02,1.84,1.84,4.73
41.76,-4.16,-4.13,-8.88,-8.86,6.00,6.04,5.97,1.84,1.87,4.73
42.18,-4.12,-4.11,-8.85,-8.83,6.00,6.04,5.92,1.88,1.89,4.73
42.60,-4.03,-4.04,-8.75,-8.76,6.00,6.03,5.87,1.97,1.96,4.72
43.03,-3.95,-3.93,-8.65,-8.64,6.00,6.02,5.83,2.05,2.07,4.71
43.46,-3.84,-3.83,-8.54,-8.52,6.00,6.01,5.80,2.16,2.17,4.70
43.90,-3.74,-3.79,-8.41,-8.46,6.00,6.01,5.77,2.26,2.21,4.67
44.33,-3.77,-3.79,-8.42,-8.45,6.00,6.00,5.74,2.23,2.21,4.66
44.78,-3.84,-3.79,-8.47,-8.43,6.00,5.99,5.72,2.16,2.21,4.64
45.23,-3.78,-3.73,-8.41,-8.35,6.00,5.98,5.70,2.22,2.27,4.63
45.68,-3.57,-3.59,-8.18,-8.20,6.00,5.98,5.68,2.43,2.41,4.61
46.13,-3.38,-3.40,-7.98,-8.00,6.00,5.97,5.67,2.62,2.60,4.59
46.60,-3.29,-3.28,-7.88,-7.86,6.00,5.96,5.67,2.71,2.72,4.59
47.06,-3.21,-3.28,-7.78,-7.86,6.00,5.96,5.67,2.79,2.72,4.57
47.53,-3.33,-3.33,-7.89,-7.89,6.00,5.95,5.67,2.67,2.67,4.56
48.01,-3.44,-3.33,-8.00,-7.89,6.00,5.95,5.68,2.56,2.67,4.56
48.49,-3.25,-3.26,-7.79,-7.80,6.00,5.94,5.69,2.75,2.74,4.54
48.97,-3.05,-3.06,-7.58,-7.58,6.00,5.94,5.70,2.95,2.94,4.52
49.46,-2.87,-2.86,-7.37,-7.36,6.00,5.93,5.72,3.13,3.14,4.50
49.96,-2.71,-2.82,-7.18,-7.31,6.00,5.93,5.74,3.29,3.18,4.48
50.46,-2.84,-2.86,-7.32,-7.33,6.00,5.93,5.76,3.16,3.14,4.48
50.96,-3.02,-2.88,-7.48,-7.34,6.00,5.93,5.78,2.98,3.12,4.46
51.47,-2.87,-2.87,-7.31,-7.31,6.00,5.93,5.81,3.13,3.13,4.44
51.99,-2.70,-2.77,-7.12,-7.20,6.00,5.93,5.84,3.30,3.23,4.43
52.51,-2.67,-2.66,-7.09,-7.08,6.00,5.93,5.86,3.33,3.34,4.42
53.03,-2.63,-2.59,-7.04,-7.01,6.00,5.93,5.89,3.37,3.41,4.42
53.56,-2.53,-2.53,-6.93,-6.93,6.00,5.94,5.92,3.47,3.47,4.40
54.10,-2.44,-2.45,-6.82,-6.84,6.00,5.95,5.95,3.56,3.55,4.39
54.64,-2.39,-2.38,-6.76,-6.75,6.00,5.96,5.98,3.61,3.62,4.37
55.18,-2.35,-2.35,-6.71,-6.71,6.00,5.97,6.01,3.65,3.65,4.37
55.74,-2.35,-2.38,-6.69,-6.74,6.00,5.98,6.03,3.65,3.62,4.35
56.29,-2.40,-2.42,-6.74,-6.76,6.00,5.99,6.06,3.60,3.58,4.34
56.86,-2.49,-2.36,-6.81,-6.67,6.00,6.00,6.08,3.51,3.64,4.32
57.42,-2.28,-2.25,-6.58,-6.55,6.00,6.02,6.09,3.72,3.75,4.29
58.00,-1.99,-2.18,-6.27,-6.46,6.00,6.03,6.10,4.01,3.82,4.28
58.58,-2.16,-2.12,-6.43,-6.40,6.01,6.04,6.11,3.85,3.88,4.27
59.16,-2.24,-2.13,-6.50,-6.39,6.01,6.05,6.11,3.77,3.88,4.25
59.76,-2.12,-2.16,-6.35,-6.38,6.01,6.05,6.11,3.89,3.85,4.23
60.35,-2.06,-2.09,-6.25,-6.29,6.00,6.05,6.10,3.95,3.91,4.19
60.96,-2.05,-2.02,-6.20,-6.18,5.99,6.04,6.08,3.95,3.97,4.16
61.57,-1.99,-1.98,-6.10,-6.09,5.98,6.02,6.05,4.00,4.00,4.12
62.18,-1.93,-1.93,-6.00,-6.00,5.97,5.98,6.02,4.04,4.04,4.07
62.80,-1.87,-1.87,-5.89,-5.90,5.93,5.94,5.98,4.06,4.06,4.03
63.43,-1.85,-1.86,-5.83,-5.84,5.87,5.88,5.93,4.03,4.01,3.98
64.07,-1.86,-1.89,-5.79,-5.83,5.81,5.82,5.88,3.95,3.92,3.94
64.71,-1.95,-1.90,-5.84,-5.80,5.73,5.74,5.82,3.79,3.83,3.89
65.35,-1.89,-1.85,-5.75,-5.70,5.65,5.66,5.75,3.76,3.80,3.85
66.01,-1.75,-1.74,-5.55,-5.54,5.57,5.57,5.67,3.82,3.83,3.80
66.67,-1.59,-1.64,-5.34,-5.40,5.48,5.47,5.59,3.90,3.84,3.76
67.33,-1.57,-1.62,-5.27,-5.33,5.39,5.37,5.50,3.82,3.76,3.71
68.01,-1.70,-1.66,-5.36,-5.32,5.29,5.27,5.41,3.59,3.63,3.67
68.69,-1.71,-1.61,-5.32,-5.23,5.18,5.17,5.31,3.47,3.57,3.61
69.37,-1.55,-1.56,-5.12,-5.12,5.08,5.06,5.20,3.53,3.52,3.56
70.07,-1.32,-1.48,-4.83,-4.99,4.99,4.96,5.10,3.68,3.51,3.51
70.77,-1.52,-1.39,-4.98,-4.85,4.90,4.85,4.99,3.39,3.52,3.47
71.48,-1.40,-1.35,-4.81,-4.75,4.80,4.75,4.87,3.41,3.46,3.41
72.19,-1.23,-1.35,-4.57,-4.70,4.69,4.64,4.76,3.46,3.34,3.35
72.91,-1.32,-1.31,-4.61,-4.60,4.57,4.54,4.64,3.25,3.25,3.29
73.64,-1.36,-1.28,-4.59,-4.51,4.45,4.44,4.52,3.10,3.18,3.23
74.38,-1.24,-1.18,-4.41,-4.36,4.34,4.34,4.39,3.11,3.16,3.18
75.12,-1.00,-1.07,-4.11,-4.19,4.23,4.23,4.27,3.23,3.16,3.12
75.87,-0.92,-1.02,-3.97,-4.08,4.11,4.13,4.15,3.19,3.09,3.06
76.63,-1.08,-0.95,-4.08,-3.95,3.98,4.03,4.03,2.90,3.03,3.01
77.40,-0.99,-0.94,-3.94,-3.89,3.85,3.92,3.90,2.86,2.91,2.96
78.17,-0.73,-0.89,-3.62,-3.79,3.73,3.82,3.78,3.00,2.85,2.89
78.95,-0.86,-0.77,-3.73,-3.62,3.63,3.71,3.66,2.76,2.86,2.86
79.74,-0.71,-0.67,-3.52,-3.48,3.54,3.61,3.54,2.82,2.87,2.81
80.54,-0.57,-0.63,-3.33,-3.39,3.45,3.50,3.42,2.88,2.82,2.76
81.35,-0.55,-0.60,-3.26,-3.31,3.36,3.40,3.30,2.81,2.76,2.71
82.16,-0.65,-0.63,-3.31,-3.29,3.26,3.29,3.19,2.61,2.63,2.66
82.98,-0.72,-0.63,-3.34,-3.25,3.17,3.19,3.07,2.45,2.54,2.63
83.81,-0.55,-0.56,-3.12,-3.14,3.08,3.08,2.96,2.53,2.51,2.57
84.65,-0.42,-0.46,-2.94,-2.99,2.99,2.98,2.85,2.57,2.53,2.52
85.50,-0.37,-0.37,-2.85,-2.85,2.90,2.88,2.74,2.53,2.53,2.48
86.35,-0.35,-0.33,-2.78,-2.76,2.80,2.78,2.63,2.45,2.47,2.43
87.22,-0.32,-0.30,-2.70,-2.68,2.70,2.69,2.52,2.39,2.40,2.39
88.09,-0.24,-0.26,-2.57,-2.60,2.60,2.60,2.42,2.36,2.33,2.33
88.97,-0.23,-0.23,-2.51,-2.51,2.50,2.52,2.31,2.27,2.27,2.28
89.86,-0.21,-0.19,-2.44,-2.42,2.40,2.43,2.21,2.19,2.21,2.23
90.76,-0.15,-0.14,-2.33,-2.32,2.30,2.36,2.11,2.16,2.16,2.18
91.66,-0.08,-0.10,-2.21,-2.23,2.21,2.28,2.01,2.13,2.11,2.14
92.58,-0.04,-0.05,-2.11,-2.13,2.12,2.21,1.92,2.08,2.07,2.07
93.51,-0.03,0.03,-2.06,-2.00,2.03,2.14,1.82,2.01,2.06,2.03
94.44,0.09,0.10,-1.89,-1.89,1.95,2.07,1.73,2.04,2.05,1.99
95.39,0.20,0.10,-1.74,-1.84,1.87,2.01,1.64,2.08,1.97,1.94
96.34,0.07,0.10,-1.81,-1.79,1.80,1.94,1.55,1.87,1.90,1.89
97.30,-0.03,0.08,-1.87,-1.77,1.73,1.88,1.46,1.70,1.80,1.84
98.28,0.13,0.08,-1.66,-1.72,1.65,1.81,1.37,1.79,1.73,1.80
99.26,0.15,0.14,-1.60,-1.62,1.58,1.75,1.29,1.74,1.72,1.75
100.25,0.17,0.20,-1.53,-1.51,1.52,1.68,1.20,1.69,1.72,1.71
101.25,0.22,0.22,-1.44,-1.43,1.45,1.62,1.12,1.68,1.67,1.66
102.27,0.26,0.26,-1.35,-1.36,1.38,1.55,1.04,1.65,1.64,1.61
103.29,0.27,0.27,-1.28,-1.29,1.33,1.48,0.96,1.60,1.60,1.56
104.32,0.26,0.26,-1.26,-1.25,1.28,1.41,0.88,1.54,1.54,1.52
105.37,0.24,0.24,-1.23,-1.23,1.24,1.34,0.81,1.48,1.48,1.47
106.42,0.21,0.22,-1.21,-1.21,1.21,1.27,0.74,1.42,1.43,1.43
107.48,0.19,0.19,-1.18,-1.18,1.18,1.20,0.66,1.37,1.37,1.37
108.56,0.16,0.16,-1.15,-1.16,1.14,1.12,0.59,1.30,1.30,1.32
109.64,0.14,0.15,-1.13,-1.12,1.09,1.05,0.53,1.24,1.24,1.27
110.74,0.12,0.15,-1.09,-1.07,1.03,0.97,0.46,1.16,1.18,1.21
111.85,0.19,0.17,-0.98,-1.00,0.97,0.90,0.40,1.16,1.14,1.18
112.97,0.20,0.22,-0.91,-0.90,0.91,0.82,0.33,1.11,1.12,1.11
114.10,0.26,0.26,-0.80,-0.81,0.85,0.75,0.27,1.11,1.11,1.07
115.24,0.29,0.28,-0.73,-0.74,0.79,0.67,0.22,1.08,1.07,1.02
116.39,0.29,0.30,-0.67,-0.67,0.72,0.60,0.16,1.02,1.03,0.97
117.55,0.29,0.30,-0.64,-0.63,0.65,0.52,0.11,0.94,0.95,0.93
118.73,0.30,0.25,-0.59,-0.64,0.57,0.45,0.06,0.88,0.83,0.89
119.92,0.25,0.25,-0.61,-0.60,0.50,0.38,0.01,0.75,0.75,0.87
121.12,0.20,0.34,-0.62,-0.49,0.43,0.30,-0.03,0.63,0.77,0.82
122.33,0.50,0.45,-0.29,-0.35,0.36,0.23,-0.08,0.87,0.81,0.79
123.55,0.64,0.55,-0.13,-0.21,0.29,0.16,-0.12,0.94,0.84,0.77
124.79,0.56,0.61,-0.17,-0.13,0.23,0.09,-0.16,0.79,0.83,0.74
126.03,0.54,0.57,-0.16,-0.14,0.16,0.02,-0.19,0.71,0.73,0.71
127.29,0.55,0.55,-0.13,-0.13,0.10,-0.05,-0.22,0.66,0.65,0.69
128.57,0.56,0.56,-0.08,-0.09,0.06,-0.11,-0.26,0.63,0.62,0.65
129.85,0.56,0.57,-0.06,-0.05,0.03,-0.18,-0.28,0.60,0.60,0.62
131.15,0.57,0.57,-0.02,-0.02,0.01,-0.24,-0.31,0.58,0.58,0.59
132.46,0.57,0.58,0.01,0.01,-0.01,-0.30,-0.33,0.56,0.56,0.56
133.79,0.58,0.58,0.05,0.04,-0.04,-0.36,-0.36,0.55,0.54,0.54
135.12,0.58,0.58,0.08,0.07,-0.07,-0.42,-0.38,0.52,0.52,0.50
136.48,0.58,0.59,0.10,0.11,-0.09,-0.48,-0.40,0.49,0.50,0.49
137.84,0.59,0.60,0.14,0.15,-0.12,-0.53,-0.41,0.48,0.48,0.45
139.22,0.59,0.57,0.18,0.15,-0.15,-0.58,-0.43,0.45,0.42,0.42
140.61,0.57,0.54,0.19,0.15,-0.19,-0.63,-0.44,0.39,0.36,0.39
142.02,0.47,0.55,0.10,0.18,-0.23,-0.68,-0.46,0.25,0.32,0.37
143.44,0.57,0.58,0.23,0.24,-0.27,-0.72,-0.47,0.30,0.31,0.34
144.87,0.68,0.64,0.38,0.33,-0.33,-0.77,-0.48,0.36,0.31,0.30
146.32,0.69,0.70,0.43,0.43,-0.39,-0.81,-0.49,0.30,0.31,0.26
147.78,0.69,0.70,0.46,0.48,-0.45,-0.85,-0.50,0.24,0.25,0.23
149.26,0.69,0.70,0.51,0.51,-0.52,-0.88,-0.51,0.18,0.18,0.19
150.75,0.69,0.69,0.57,0.57,-0.57,-0.92,-0.52,0.12,0.12,0.12
152.26,0.69,0.70,0.64,0.65,-0.63,-0.95,-0.53,0.07,0.08,0.05
153.78,0.69,0.70,0.71,0.71,-0.68,-0.98,-0.53,0.01,0.01,-0.01
155.32,0.69,0.65,0.78,0.74,-0.74,-1.00,-0.54,-0.05,-0.09,-0.09
156.88,0.59,0.59,0.76,0.75,-0.81,-1.03,-0.55,-0.21,-0.22,-0.16
158.44,0.50,0.56,0.75,0.80,-0.87,-1.05,-0.56,-0.37,-0.31,-0.24
160.03,0.55,0.58,0.88,0.90,-0.93,-1.07,-0.57,-0.37,-0.35,-0.33
161.63,0.65,0.63,1.05,1.02,-0.98,-1.09,-0.58,-0.32,-0.35,-0.40
163.24,0.69,0.64,1.15,1.10,-1.02,-1.11,-0.59,-0.33,-0.38,-0.46
164.88,0.58,0.60,1.09,1.11,-1.06,-1.12,-0.60,-0.48,-0.46,-0.51
166.53,0.50,0.53,1.06,1.09,-1.10,-1.13,-0.61,-0.59,-0.57,-0.56
168.19,0.47,0.48,1.07,1.08,-1.12,-1.14,-0.62,-0.64,-0.64,-0.60
169.87,0.47,0.46,1.11,1.09,-1.12,-1.15,-0.63,-0.65,-0.66,-0.63
171.57,0.46,0.46,1.11,1.11,-1.11,-1.16,-0.64,-0.64,-0.65,-0.65
173.29,0.45,0.47,1.12,1.13,-1.09,-1.16,-0.66,-0.64,-0.63,-0.67
175.02,0.45,0.45,1.13,1.13,-1.09,-1.17,-0.67,-0.63,-0.63,-0.67
176.77,0.45,0.41,1.14,1.09,-1.10,-1.17,-0.69,-0.64,-0.69,-0.69
178.54,0.36,0.38,1.06,1.07,-1.12,-1.17,-0.70,-0.75,-0.74,-0.69
180.32,0.33,0.39,1.02,1.08,-1.14,-1.17,-0.72,-0.81,-0.75,-0.68
182.13,0.46,0.45,1.14,1.13,-1.18,-1.16,-0.73,-0.71,-0.73,-0.68
183.95,0.56,0.52,1.25,1.21,-1.22,-1.16,-0.75,-0.65,-0.70,-0.69
185.79,0.58,0.59,1.27,1.29,-1.26,-1.16,-0.77,-0.67,-0.67,-0.69
187.65,0.59,0.64,1.30,1.34,-1.30,-1.15,-0.79,-0.70,-0.66,-0.71
189.52,0.67,0.65,1.39,1.37,-1.33,-1.14,-0.81,-0.65,-0.68,-0.72
191.42,0.68,0.65,1.42,1.39,-1.35,-1.14,-0.82,-0.67,-0.71,-0.74
193.33,0.59,0.62,1.35,1.38,-1.36,-1.13,-0.84,-0.77,-0.74,-0.76
195.27,0.55,0.58,1.33,1.36,-1.36,-1.12,-0.86,-0.81,-0.78,-0.78
197.22,0.56,0.52,1.36,1.32,-1.36,-1.11,-0.89,-0.80,-0.84,-0.80
199.19,0.50,0.49,1.33,1.30,-1.36,-1.10,-0.91,-0.85,-0.87,-0.82
201.18,0.41,0.49,1.25,1.33,-1.36,-1.08,-0.93,-0.94,-0.87,-0.84
203.19,0.49,0.50,1.35,1.35,-1.35,-1.07,-0.95,-0.86,-0.86,-0.85
205.23,0.57,0.50,1.45,1.37,-1.35,-1.06,-0.97,-0.78,-0.85,-0.88
207.28,0.48,0.50,1.37,1.40,-1.35,-1.04,-0.99,-0.87,-0.85,-0.89
209.35,0.41,0.47,1.32,1.38,-1.35,-1.03,-1.01,-0.93,-0.88,-0.91
211.44,0.45,0.41,1.40,1.34,-1.34,-1.01,-1.03,-0.89,-0.94,-0.94
213.56,0.38,0.36,1.33,1.31,-1.33,-1.00,-1.05,-0.95,-0.97,-0.95
215.69,0.28,0.33,1.25,1.29,-1.31,-0.98,-1.07,-1.03,-0.99,-0.96
217.85,0.27,0.30,1.25,1.27,-1.29,-0.97,-1.09,-1.02,-0.99,-0.97
220.03,0.31,0.27,1.30,1.26,-1.26,-0.95,-1.11,-0.95,-0.99,-0.99
222.23,0.27,0.25,1.28,1.25,-1.24,-0.94,-1.13,-0.96,-0.98,-1.01
224.45,0.18,0.23,1.18,1.24,-1.21,-0.92,-1.14,-1.03,-0.98,-1.00
226.70,0.19,0.19,1.20,1.19,-1.20,-0.90,-1.15,-1.00,-1.00,-1.00
228.96,0.20,0.16,1.20,1.15,-1.17,-0.89,-1.17,-0.97,-1.01,-0.99
231.25,0.10,0.14,1.09,1.12,-1.13,-0.87,-1.18,-1.03,-0.99,-0.98
233.57,0.09,0.12,1.07,1.09,-1.08,-0.85,-1.18,-0.99,-0.96,-0.97
235.90,0.12,0.10,1.09,1.06,-1.03,-0.84,-1.19,-0.91,-0.93,-0.96
238.26,0.10,0.08,1.06,1.03,-0.98,-0.82,-1.19,-0.88,-0.90,-0.95
240.64,0.01,0.03,0.94,0.96,-0.94,-0.80,-1.19,-0.93,-0.91,-0.93
243.05,-0.04,-0.05,0.86,0.85,-0.90,-0.78,-1.19,-0.94,-0.95,-0.90
245.48,-0.10,-0.08,0.78,0.79,-0.87,-0.77,-1.19,-0.96,-0.95,-0.88
247.93,-0.11,-0.06,0.74,0.79,-0.83,-0.75,-1.18,-0.93,-0.89,-0.85
250.41,0.00,-0.02,0.84,0.81,-0.79,-0.73,-1.17,-0.79,-0.81,-0.83
252.92,0.05,0.02,0.86,0.82,-0.76,-0.71,-1.16,-0.71,-0.75,-0.80
255.45,0.01,0.01,0.79,0.79,-0.74,-0.70,-1.15,-0.72,-0.73,-0.78
258.00,-0.06,-0.03,0.70,0.73,-0.72,-0.68,-1.13,-0.78,-0.75,-0.76
260.58,-0.07,-0.06,0.68,0.68,-0.72,-0.66,-1.11,-0.78,-0.77,-0.74
263.19,-0.06,-0.07,0.65,0.64,-0.70,-0.65,-1.09,-0.75,-0.77,-0.71
265.82,-0.05,-0.04,0.65,0.65,-0.67,-0.63,-1.06,-0.72,-0.71,-0.69
268.48,-0.05,-0.01,0.63,0.66,-0.64,-0.61,-1.03,-0.69,-0.65,-0.67
271.16,0.06,-0.00,0.70,0.64,-0.61,-0.59,-1.00,-0.54,-0.61,-0.64
273.87,-0.02,0.00,0.61,0.62,-0.57,-0.58,-0.97,-0.59,-0.57,-0.62
276.61,-0.06,-0.02,0.53,0.57,-0.54,-0.56,-0.94,-0.59,-0.56,-0.59
279.38,-0.04,-0.08,0.53,0.49,-0.50,-0.54,-0.90,-0.53,-0.57,-0.56
282.17,-0.12,-0.10,0.42,0.43,-0.45,-0.53,-0.86,-0.57,-0.56,-0.54
284.99,-0.15,-0.13,0.36,0.38,-0.41,-0.51,-0.82,-0.55,-0.54,-0.50
287.84,-0.14,-0.14,0.35,0.34,-0.37,-0.49,-0.78,-0.50,-0.51,-0.49
290.72,-0.13,-0.13,0.33,0.32,-0.33,-0.48,-0.74,-0.46,-0.46,-0.45
293.63,-0.12,-0.12,0.31,0.31,-0.30,-0.46,-0.69,-0.42,-0.42,-0.43
296.57,-0.11,-0.11,0.29,0.29,-0.29,-0.44,-0.65,-0.39,-0.39,-0.39
299.53,-0.10,-0.09,0.27,0.28,-0.27,-0.42,-0.60,-0.37,-0.37,-0.37
302.53,-0.08,-0.08,0.27,0.26,-0.26,-0.41,-0.56,-0.34,-0.34,-0.35
305.55,-0.07,-0.07,0.24,0.24,-0.25,-0.39,-0.51,-0.31,-0.32,-0.30
308.61,-0.07,-0.05,0.22,0.24,-0.23,-0.37,-0.46,-0.30,-0.28,-0.29
311.69,-0.05,-0.04,0.21,0.22,-0.21,-0.36,-0.41,-0.26,-0.25,-0.26
314.81,-0.01,-0.05,0.23,0.19,-0.18,-0.34,-0.36,-0.19,-0.23,-0.23
317.96,-0.08,-0.08,0.14,0.14,-0.15,-0.32,-0.31,-0.22,-0.22,-0.22
321.14,-0.14,-0.10,0.07,0.10,-0.10,-0.31,-0.26,-0.24,-0.21,-0.21
324.35,-0.15,-0.12,0.05,0.07,-0.05,-0.29,-0.21,-0.20,-0.17,-0.19
327.59,-0.12,-0.15,0.06,0.03,0.00,-0.27,-0.16,-0.11,-0.15,-0.18
330.87,-0.18,-0.22,-0.01,-0.05,0.06,-0.25,-0.11,-0.11,-0.16,-0.17
334.18,-0.34,-0.29,-0.18,-0.14,0.12,-0.24,-0.06,-0.22,-0.17,-0.15
337.52,-0.39,-0.34,-0.24,-0.20,0.17,-0.22,-0.01,-0.21,-0.17,-0.14
340.90,-0.34,-0.37,-0.21,-0.24,0.22,-0.20,0.05,-0.12,-0.15,-0.13
344.30,-0.35,-0.38,-0.23,-0.26,0.25,-0.18,0.10,-0.09,-0.12,-0.12
347.75,-0.43,-0.41,-0.30,-0.29,0.29,-0.17,0.15,-0.14,-0.12,-0.12
351.23,-0.46,-0.44,-0.34,-0.33,0.32,-0.15,0.20,-0.14,-0.13,-0.11
354.74,-0.46,-0.45,-0.34,-0.33,0.34,-0.13,0.26,-0.12,-0.11,-0.12
358.28,-0.44,-0.45,-0.33,-0.34,0.36,-0.11,0.31,-0.08,-0.09,-0.11
361.87,-0.45,-0.46,-0.34,-0.36,0.38,-0.09,0.36,-0.07,-0.08,-0.11
365.49,-0.52,-0.49,-0.41,-0.39,0.40,-0.07,0.41,-0.11,-0.09,-0.10
369.14,-0.54,-0.54,-0.42,-0.43,0.43,-0.05,0.47,-0.11,-0.11,-0.11
372.83,-0.58,-0.59,-0.46,-0.47,0.46,-0.03,0.52,-0.12,-0.13,-0.12
376.56,-0.63,-0.60,-0.51,-0.48,0.48,-0.01,0.57,-0.15,-0.12,-0.12
380.33,-0.62,-0.61,-0.51,-0.50,0.50,0.01,0.63,-0.12,-0.11,-0.11
384.13,-0.59,-0.63,-0.47,-0.51,0.51,0.03,0.68,-0.08,-0.12,-0.11
387.97,-0.66,-0.64,-0.53,-0.52,0.51,0.05,0.73,-0.15,-0.14,-0.12
391.85,-0.69,-0.66,-0.55,-0.53,0.50,0.08,0.79,-0.18,-0.15,-0.13
395.77,-0.65,-0.65,-0.52,-0.52,0.50,0.10,0.84,-0.15,-0.15,-0.13
399.73,-0.61,-0.62,-0.47,-0.48,0.50,0.12,0.89,-0.11,-0.12,-0.14
403.72,-0.60,-0.59,-0.46,-0.45,0.50,0.15,0.95,-0.10,-0.10,-0.14
407.76,-0.60,-0.61,-0.45,-0.46,0.50,0.17,1.00,-0.10,-0.11,-0.15
411.84,-0.64,-0.64,-0.49,-0.49,0.50,0.20,1.05,-0.14,-0.14,-0.15
415.96,-0.70,-0.68,-0.54,-0.52,0.51,0.22,1.10,-0.19,-0.17,-0.15
420.12,-0.71,-0.70,-0.55,-0.55,0.52,0.25,1.15,-0.19,-0.18,-0.15
424.32,-0.70,-0.70,-0.54,-0.55,0.54,0.28,1.20,-0.16,-0.16,-0.15
428.56,-0.69,-0.70,-0.54,-0.55,0.56,0.30,1.25,-0.13,-0.14,-0.15
432.85,-0.70,-0.71,-0.56,-0.57,0.57,0.33,1.30,-0.12,-0.13,-0.14
437.18,-0.73,-0.71,-0.60,-0.59,0.58,0.36,1.34,-0.14,-0.13,-0.13
441.55,-0.72,-0.70,-0.63,-0.61,0.60,0.40,1.39,-0.12,-0.10,-0.09
445.96,-0.67,-0.68,-0.61,-0.62,0.62,0.43,1.43,-0.05,-0.07,-0.06
450.42,-0.65,-0.65,-0.62,-0.63,0.64,0.46,1.47,-0.01,-0.01,-0.03
454.93,-0.65,-0.63,-0.66,-0.64,0.67,0.50,1.51,0.02,0.04,0.02
459.48,-0.60,-0.61,-0.66,-0.68,0.70,0.54,1.55,0.10,0.08,0.07
464.07,-0.61,-0.61,-0.72,-0.73,0.72,0.57,1.58,0.12,0.12,0.12
468.71,-0.61,-0.60,-0.78,-0.77,0.76,0.61,1.62,0.15,0.15,0.18
473.40,-0.61,-0.59,-0.82,-0.81,0.79,0.66,1.65,0.19,0.20,0.22
478.13,-0.57,-0.56,-0.84,-0.83,0.83,0.70,1.67,0.26,0.26,0.28
