frequency,raw,smoothed,error,error_smoothed,equalization,parametric_eq,fixed_band_eq,equalized_raw,equalized_smoothed,target
20.00,14.85,14.85,3.68,3.68,-3.68,-4.33,-2.21,11.17,11.17,11.17
20.20,14.88,14.88,3.72,3.73,-3.73,-4.33,-2.28,11.16,11.16,11.16
20.40,14.92,14.92,3.77,3.77,-3.77,-4.34,-2.34,11.15,11.15,11.15
20.61,14.95,14.95,3.81,3.81,-3.81,-4.34,-2.41,11.14,11.14,11.14
20.81,14.98,14.98,3.86,3.86,-3.85,-4.35,-2.48,11.13,11.13,11.13
21.02,15.01,15.01,3.90,3.90,-3.90,-4.35,-2.55,11.12,11.12,11.12
21.23,15.04,15.04,3.94,3.94,-3.94,-4.36,-2.62,11.10,11.10,11.10
21.44,15.07,15.07,3.98,3.98,-3.98,-4.37,-2.70,11.09,11.09,11.09
21.66,15.10,15.10,4.02,4.02,-4.02,-4.37,-2.78,11.08,11.08,11.08
21.87,15.14,15.14,4.07,4.07,-4.07,-4.38,-2.86,11.07,11.07,11.07
22.09,15.17,15.17,4.11,4.11,-4.11,-4.39,-2.94,11.06,11.06,11.06
22.31,15.21,15.21,4.16,4.16,-4.16,-4.39,-3.03,11.06,11.05,11.05
22.54,15.24,15.24,4.20,4.20,-4.20,-4.40,-3.11,11.04,11.04,11.04
22.76,15.27,15.28,4.24,4.24,-4.24,-4.41,-3.20,11.03,11.03,11.03
22.99,15.31,15.31,4.28,4.29,-4.29,-4.42,-3.29,11.02,11.02,11.03
23.22,15.34,15.34,4.33,4.33,-4.33,-4.43,-3.39,11.01,11.01,11.02
23.45,15.37,15.37,4.37,4.37,-4.37,-4.44,-3.48,11.00,11.00,11.00
23.69,15.40,15.40,4.41,4.41,-4.41,-4.45,-3.58,10.99,10.99,10.99
23.92,15.43,15.43,4.45,4.45,-4.45,-4.46,-3.68,10.99,10.98,10.98
24.16,15.45,15.46,4.48,4.49,-4.48,-4.47,-3.78,10.97,10.98,10.97
24.40,15.48,15.48,4.52,4.52,-4.51,-4.48,-3.89,10.97,10.96,10.96
24.65,15.50,15.50,4.54,4.54,-4.55,-4.49,-3.99,10.96,10.96,10.96
24.89,15.52,15.53,4.57,4.57,-4.58,-4.51,-4.10,10.95,10.95,10.95
25.14,15.55,15.55,4.60,4.60,-4.60,-4.52,-4.20,10.95,10.94,10.95
25.39,15.57,15.57,4.63,4.63,-4.63,-4.53,-4.31,10.94,10.94,10.94
25.65,15.60,15.60,4.66,4.66,-4.66,-4.55,-4.42,10.94,10.94,10.94
25.91,15.62,15.62,4.68,4.68,-4.68,-4.56,-4.53,10.94,10.94,10.94
26.16,15.64,15.65,4.71,4.71,-4.71,-4.58,-4.63,10.93,10.94,10.94
26.43,15.67,15.67,4.74,4.73,-4.73,-4.59,-4.74,10.94,10.94,10.93
26.69,15.69,15.69,4.76,4.76,-4.75,-4.61,-4.85,10.94,10.93,10.93
26.96,15.70,15.70,4.77,4.78,-4.77,-4.62,-4.95,10.93,10.93,10.93
27.23,15.72,15.72,4.79,4.79,-4.79,-4.64,-5.05,10.93,10.93,10.93
27.50,15.73,15.73,4.81,4.81,-4.81,-4.66,-5.15,10.92,10.92,10.92
27.77,15.75,15.75,4.83,4.83,-4.83,-4.68,-5.25,10.92,10.92,10.92
28.05,15.76,15.76,4.85,4.85,-4.85,-4.70,-5.34,10.91,10.91,10.91
28.33,15.77,15.77,4.86,4.87,-4.87,-4.72,-5.43,10.90,10.90,10.91
28.62,15.78,15.78,4.89,4.88,-4.89,-4.73,-5.51,10.90,10.90,10.89
28.90,15.79,15.79,4.90,4.90,-4.90,-4.75,-5.59,10.89,10.89,10.89
29.19,15.80,15.80,4.92,4.92,-4.92,-4.77,-5.66,10.88,10.88,10.88
29.48,15.80,15.80,4.94,4.93,-4.93,-4.79,-5.72,10.87,10.87,10.87
29.78,15.80,15.81,4.94,4.95,-4.95,-4.81,-5.78,10.86,10.86,10.86
30.08,15.81,15.81,4.96,4.96,-4.95,-4.83,-5.82,10.86,10.85,10.85
30.38,15.81,15.81,4.97,4.96,-4.96,-4.84,-5.87,10.85,10.85,10.85
30.68,15.80,15.81,4.96,4.96,-4.96,-4.86,-5.89,10.84,10.84,10.84
30.99,15.80,15.80,4.96,4.96,-4.96,-4.87,-5.92,10.84,10.84,10.84
31.30,15.79,15.79,4.96,4.96,-4.96,-4.89,-5.93,10.84,10.84,10.84
31.61,15.78,15.78,4.95,4.95,-4.95,-4.90,-5.93,10.83,10.84,10.83
31.93,15.77,15.77,4.93,4.94,-4.94,-4.91,-5.93,10.84,10.84,10.84
32.24,15.76,15.76,4.93,4.93,-4.92,-4.91,-5.91,10.84,10.84,10.83
32.57,15.74,15.74,4.91,4.91,-4.91,-4.92,-5.89,10.83,10.83,10.83
32.89,15.72,15.72,4.89,4.89,-4.89,-4.92,-5.86,10.83,10.83,10.83
33.22,15.70,15.70,4.87,4.87,-4.88,-4.92,-5.82,10.82,10.82,10.83
33.55,15.68,15.68,4.86,4.86,-4.86,-4.92,-5.77,10.82,10.82,10.82
33.89,15.66,15.66,4.85,4.85,-4.85,-4.91,-5.72,10.81,10.81,10.81
34.23,15.64,15.64,4.84,4.83,-4.83,-4.91,-5.66,10.81,10.81,10.80
34.57,15.61,15.61,4.81,4.82,-4.82,-4.90,-5.59,10.79,10.80,10.80
34.92,15.58,15.59,4.80,4.80,-4.80,-4.88,-5.53,10.78,10.78,10.78
35.27,15.56,15.56,4.79,4.79,-4.79,-4.87,-5.45,10.77,10.77,10.77
35.62,15.53,15.53,4.78,4.78,-4.78,-4.85,-5.38,10.76,10.75,10.75
35.97,15.49,15.50,4.76,4.76,-4.76,-4.83,-5.29,10.73,10.73,10.73
36.33,15.46,15.46,4.74,4.75,-4.75,-4.80,-5.21,10.71,10.71,10.72
36.70,15.43,15.43,4.74,4.73,-4.74,-4.78,-5.13,10.70,10.69,10.69
37.06,15.39,15.39,4.72,4.72,-4.72,-4.75,-5.04,10.67,10.67,10.67
37.43,15.35,15.36,4.70,4.71,-4.71,-4.73,-4.96,10.65,10.65,10.65
37.81,15.32,15.32,4.69,4.69,-4.69,-4.70,-4.87,10.63,10.63,10.63
38.19,15.28,15.28,4.68,4.67,-4.67,-4.67,-4.79,10.61,10.61,10.60
38.57,15.23,15.24,4.65,4.65,-4.65,-4.63,-4.70,10.58,10.59,10.58
38.95,15.19,15.19,4.63,4.63,-4.63,-4.60,-4.62,10.56,10.56,10.57
39.34,15.15,15.15,4.60,4.60,-4.60,-4.57,-4.53,10.55,10.54,10.55
39.74,15.10,15.11,4.57,4.58,-4.58,-4.53,-4.45,10.53,10.53,10.53
40.14,15.06,15.06,4.55,4.55,-4.55,-4.50,-4.37,10.52,10.51,10.51
40.54,15.01,15.01,4.51,4.51,-4.51,-4.47,-4.29,10.50,10.50,10.50
40.94,14.96,14.96,4.47,4.48,-4.48,-4.43,-4.22,10.48,10.48,10.49
41.35,14.91,14.91,4.44,4.44,-4.44,-4.40,-4.14,10.47,10.47,10.47
41.76,14.86,14.86,4.40,4.40,-4.40,-4.36,-4.07,10.46,10.46,10.46
42.18,14.81,14.81,4.36,4.36,-4.36,-4.32,-4.00,10.45,10.45,10.46
42.60,14.76,14.76,4.32,4.32,-4.31,-4.29,-3.94,10.45,10.45,10.44
43.03,14.70,14.70,4.27,4.27,-4.27,-4.25,-3.88,10.43,10.44,10.43
43.46,14.65,14.65,4.22,4.22,-4.22,-4.22,-3.81,10.43,10.43,10.43
43.90,14.59,14.59,4.17,4.17,-4.17,-4.18,-3.76,10.42,10.42,10.43
44.33,14.54,14.54,4.13,4.12,-4.12,-4.14,-3.70,10.42,10.42,10.41
44.78,14.48,14.48,4.07,4.07,-4.08,-4.11,-3.65,10.41,10.41,10.41
45.23,14.43,14.43,4.03,4.03,-4.03,-4.07,-3.60,10.40,10.40,10.40
45.68,14.37,14.37,3.98,3.98,-3.98,-4.03,-3.55,10.39,10.39,10.39
46.13,14.32,14.32,3.95,3.94,-3.94,-3.99,-3.51,10.38,10.38,10.37
46.60,14.26,14.26,3.89,3.90,-3.90,-3.96,-3.47,10.37,10.37,10.37
47.06,14.20,14.21,3.85,3.85,-3.85,-3.92,-3.43,10.35,10.35,10.35
47.53,14.15,14.15,3.82,3.81,-3.81,-3.88,-3.40,10.34,10.33,10.34
48.01,14.09,14.09,3.77,3.77,-3.77,-3.84,-3.36,10.32,10.32,10.32
48.49,14.03,14.04,3.73,3.74,-3.74,-3.80,-3.33,10.30,10.30,10.30
48.97,13.98,13.98,3.70,3.70,-3.70,-3.76,-3.30,10.28,10.28,10.28
49.46,13.92,13.92,3.66,3.66,-3.66,-3.72,-3.28,10.26,10.26,10.26
49.96,13.86,13.86,3.63,3.63,-3.63,-3.68,-3.26,10.23,10.24,10.23
50.46,13.80,13.80,3.59,3.59,-3.59,-3.64,-3.23,10.21,10.21,10.21
50.96,13.74,13.74,3.56,3.56,-3.56,-3.60,-3.21,10.18,10.18,10.18
51.47,13.68,13.68,3.52,3.52,-3.52,-3.56,-3.20,10.16,10.16,10.16
51.99,13.62,13.62,3.49,3.49,-3.49,-3.52,-3.18,10.13,10.13,10.13
52.51,13.56,13.56,3.45,3.45,-3.45,-3.47,-3.17,10.11,10.11,10.11
53.03,13.50,13.50,3.42,3.42,-3.42,-3.44,-3.16,10.08,10.08,10.09
53.56,13.45,13.45,3.39,3.39,-3.39,-3.40,-3.15,10.06,10.06,10.06
54.10,13.39,13.39,3.36,3.36,-3.36,-3.36,-3.14,10.03,10.03,10.03
54.64,13.33,13.34,3.32,3.33,-3.33,-3.32,-3.13,10.00,10.01,10.01
55.18,13.28,13.28,3.30,3.30,-3.30,-3.29,-3.12,9.98,9.98,9.98
55.74,13.22,13.22,3.27,3.27,-3.27,-3.25,-3.11,9.95,9.95,9.95
56.29,13.16,13.17,3.24,3.24,-3.24,-3.22,-3.11,9.92,9.92,9.92
56.86,13.11,13.11,3.22,3.22,-3.21,-3.19,-3.10,9.90,9.89,9.89
57.42,13.05,13.05,3.19,3.19,-3.19,-3.16,-3.10,9.86,9.86,9.86
58.00,12.99,12.99,3.16,3.16,-3.16,-3.14,-3.09,9.83,9.83,9.83
58.58,12.93,12.93,3.14,3.14,-3.14,-3.12,-3.09,9.80,9.79,9.80
59.16,12.87,12.87,3.11,3.11,-3.11,-3.10,-3.09,9.76,9.76,9.76
59.76,12.81,12.81,3.09,3.09,-3.09,-3.08,-3.08,9.72,9.72,9.73
60.35,12.76,12.76,3.07,3.07,-3.07,-3.07,-3.08,9.69,9.69,9.69
60.96,12.70,12.70,3.05,3.05,-3.05,-3.06,-3.07,9.65,9.65,9.65
61.57,12.64,12.64,3.04,3.04,-3.04,-3.06,-3.07,9.60,9.61,9.61
62.18,12.59,12.59,3.03,3.02,-3.02,-3.05,-3.06,9.57,9.57,9.57
62.80,12.53,12.53,3.01,3.01,-3.01,-3.05,-3.05,9.52,9.52,9.53
63.43,12.48,12.48,3.01,3.00,-3.00,-3.05,-3.05,9.48,9.48,9.47
64.07,12.42,12.42,2.99,2.99,-2.99,-3.05,-3.04,9.43,9.44,9.43
64.71,12.37,12.37,2.98,2.98,-2.98,-3.06,-3.03,9.39,9.39,9.39
65.35,12.31,12.31,2.97,2.97,-2.97,-3.06,-3.03,9.34,9.34,9.34
66.01,12.25,12.26,2.95,2.96,-2.96,-3.07,-3.02,9.29,9.30,9.30
66.67,12.20,12.20,2.95,2.95,-2.95,-3.08,-3.01,9.25,9.25,9.25
67.33,12.14,12.14,2.94,2.94,-2.94,-3.08,-3.00,9.20,9.20,9.20
68.01,12.08,12.08,2.93,2.93,-2.93,-3.09,-3.00,9.15,9.15,9.15
68.69,12.03,12.03,2.93,2.92,-2.92,-3.10,-2.99,9.11,9.11,9.10
69.37,11.97,11.97,2.92,2.92,-2.92,-3.11,-2.98,9.05,9.06,9.05
70.07,11.92,11.92,2.91,2.91,-2.91,-3.12,-2.98,9.01,9.01,9.01
70.77,11.86,11.86,2.91,2.91,-2.91,-3.12,-2.97,8.95,8.95,8.96
71.48,11.81,11.81,2.91,2.91,-2.91,-3.13,-2.96,8.90,8.90,8.90
72.19,11.75,11.75,2.91,2.90,-2.91,-3.13,-2.96,8.85,8.85,8.85
72.91,11.70,11.70,2.90,2.90,-2.90,-3.14,-2.96,8.80,8.79,8.80
73.64,11.64,11.64,2.90,2.91,-2.90,-3.14,-2.95,8.74,8.74,8.74
74.38,11.59,11.59,2.91,2.91,-2.91,-3.14,-2.95,8.69,8.68,8.68
75.12,11.53,11.53,2.91,2.91,-2.91,-3.15,-2.95,8.62,8.62,8.62
75.87,11.47,11.47,2.90,2.91,-2.91,-3.15,-2.95,8.56,8.56,8.57
76.63,11.41,11.41,2.91,2.91,-2.91,-3.15,-2.96,8.50,8.50,8.50
77.40,11.36,11.36,2.92,2.92,-2.92,-3.15,-2.96,8.44,8.44,8.44
78.17,11.30,11.30,2.93,2.92,-2.92,-3.14,-2.97,8.38,8.38,8.37
78.95,11.24,11.25,2.92,2.93,-2.93,-3.14,-2.98,8.31,8.32,8.32
79.74,11.19,11.19,2.94,2.94,-2.94,-3.14,-2.99,8.25,8.25,8.25
80.54,11.13,11.13,2.95,2.94,-2.95,-3.13,-3.00,8.19,8.19,8.18
81.35,11.07,11.08,2.95,2.96,-2.96,-3.13,-3.02,8.12,8.12,8.12
82.16,11.02,11.02,2.97,2.97,-2.97,-3.12,-3.03,8.06,8.05,8.05
82.98,10.96,10.96,2.98,2.98,-2.98,-3.11,-3.05,7.99,7.98,7.98
83.81,10.90,10.90,2.98,2.99,-2.99,-3.11,-3.08,7.92,7.92,7.92
84.65,10.84,10.84,3.00,3.00,-3.00,-3.10,-3.10,7.84,7.85,7.84
85.50,10.79,10.79,3.01,3.01,-3.01,-3.09,-3.13,7.78,7.78,7.78
86.35,10.73,10.73,3.02,3.02,-3.02,-3.08,-3.15,7.71,7.71,7.72
87.22,10.67,10.67,3.03,3.03,-3.03,-3.07,-3.19,7.64,7.64,7.64
88.09,10.61,10.61,3.04,3.04,-3.04,-3.06,-3.22,7.57,7.57,7.57
88.97,10.55,10.55,3.06,3.06,-3.05,-3.05,-3.26,7.50,7.50,7.49
89.86,10.49,10.49,3.07,3.07,-3.07,-3.04,-3.30,7.42,7.42,7.43
90.76,10.43,10.43,3.08,3.08,-3.08,-3.03,-3.34,7.35,7.35,7.35
91.66,10.37,10.37,3.09,3.10,-3.10,-3.02,-3.38,7.27,7.27,7.28
92.58,10.31,10.31,3.11,3.12,-3.12,-3.01,-3.43,7.19,7.19,7.20
93.51,10.26,10.26,3.15,3.14,-3.14,-3.00,-3.47,7.12,7.11,7.12
94.44,10.20,10.20,3.17,3.17,-3.17,-2.99,-3.52,7.03,7.03,7.03
95.39,10.14,10.14,3.19,3.19,-3.19,-2.98,-3.58,6.95,6.95,6.95
96.34,10.09,10.09,3.22,3.22,-3.22,-2.97,-3.63,6.87,6.87,6.87
97.30,10.03,10.03,3.25,3.25,-3.25,-2.96,-3.69,6.78,6.78,6.79
98.28,9.98,9.98,3.29,3.28,-3.28,-2.95,-3.75,6.70,6.70,6.69
99.26,9.92,9.92,3.31,3.31,-3.31,-2.94,-3.80,6.61,6.61,6.61
100.25,9.86,9.86,3.34,3.34,-3.34,-2.93,-3.87,6.52,6.52,6.52
101.25,9.80,9.80,3.37,3.37,-3.37,-2.93,-3.93,6.43,6.43,6.43
102.27,9.74,9.74,3.40,3.39,-3.40,-2.92,-3.99,6.34,6.34,6.35
103.29,9.68,9.68,3.42,3.42,-3.42,-2.91,-4.05,6.26,6.26,6.26
104.32,9.63,9.63,3.45,3.45,-3.45,-2.91,-4.12,6.18,6.18,6.18
105.37,9.57,9.57,3.48,3.48,-3.48,-2.91,-4.18,6.10,6.09,6.09
106.42,9.51,9.51,3.50,3.51,-3.50,-2.91,-4.24,6.01,6.01,6.01
107.48,9.45,9.45,3.53,3.53,-3.52,-2.91,-4.31,5.93,5.93,5.92
108.56,9.39,9.39,3.55,3.55,-3.55,-2.91,-4.37,5.84,5.84,5.84
109.64,9.33,9.33,3.57,3.57,-3.57,-2.91,-4.42,5.76,5.76,5.76
110.74,9.27,9.27,3.59,3.59,-3.59,-2.92,-4.48,5.68,5.68,5.68
111.85,9.21,9.21,3.61,3.61,-3.61,-2.93,-4.54,5.60,5.60,5.60
112.97,9.15,9.15,3.64,3.64,-3.64,-2.94,-4.59,5.51,5.51,5.51
114.10,9.09,9.09,3.66,3.66,-3.66,-2.95,-4.63,5.43,5.43,5.43
115.24,9.03,9.03,3.68,3.69,-3.69,-2.96,-4.67,5.34,5.34,5.35
116.39,8.97,8.97,3.72,3.71,-3.71,-2.98,-4.71,5.26,5.26,5.26
117.55,8.91,8.91,3.74,3.74,-3.74,-3.00,-4.75,5.17,5.17,5.17
118.73,8.85,8.85,3.77,3.77,-3.77,-3.02,-4.78,5.08,5.08,5.08
119.92,8.79,8.79,3.80,3.80,-3.80,-3.04,-4.80,5.00,5.00,4.99
121.12,8.73,8.73,3.83,3.83,-3.82,-3.07,-4.81,4.91,4.90,4.90
122.33,8.66,8.66,3.85,3.85,-3.85,-3.10,-4.82,4.81,4.81,4.81
123.55,8.60,8.60,3.88,3.88,-3.88,-3.13,-4.82,4.72,4.72,4.72
124.79,8.54,8.54,3.91,3.91,-3.91,-3.17,-4.82,4.63,4.63,4.64
126.03,8.48,8.48,3.93,3.94,-3.94,-3.21,-4.81,4.54,4.54,4.55
127.29,8.42,8.42,3.97,3.97,-3.97,-3.25,-4.79,4.46,4.46,4.45
128.57,8.36,8.36,3.99,3.99,-3.99,-3.30,-4.77,4.37,4.37,4.37
129.85,8.30,8.30,4.02,4.02,-4.02,-3.35,-4.73,4.28,4.28,4.28
131.15,8.24,8.24,4.04,4.04,-4.04,-3.41,-4.70,4.20,4.20,4.20
132.46,8.18,8.18,4.07,4.06,-4.06,-3.47,-4.65,4.12,4.12,4.12
133.79,8.12,8.12,4.08,4.08,-4.08,-3.53,-4.61,4.04,4.04,4.04
135.12,8.06,8.06,4.10,4.10,-4.10,-3.60,-4.55,3.97,3.97,3.96
136.48,8.00,8.00,4.11,4.11,-4.11,-3.66,-4.49,3.89,3.89,3.89
137.84,7.94,7.94,4.12,4.12,-4.12,-3.74,-4.43,3.82,3.82,3.82
139.22,7.89,7.89,4.13,4.13,-4.13,-3.81,-4.36,3.76,3.76,3.76
140.61,7.83,7.83,4.14,4.14,-4.14,-3.89,-4.29,3.69,3.69,3.69
142.02,7.78,7.78,4.16,4.15,-4.15,-3.97,-4.21,3.63,3.62,3.62
143.44,7.72,7.72,4.16,4.16,-4.17,-4.06,-4.13,3.56,3.56,3.56
144.87,7.67,7.67,4.18,4.18,-4.18,-4.14,-4.06,3.49,3.50,3.50
146.32,7.62,7.62,4.19,4.19,-4.19,-4.23,-3.97,3.43,3.43,3.43
147.78,7.57,7.57,4.20,4.20,-4.20,-4.32,-3.89,3.37,3.37,3.37
149.26,7.52,7.52,4.21,4.21,-4.21,-4.40,-3.81,3.31,3.32,3.31
150.75,7.48,7.48,4.23,4.22,-4.22,-4.48,-3.73,3.26,3.26,3.25
152.26,7.43,7.43,4.23,4.23,-4.23,-4.56,-3.64,3.20,3.20,3.20
153.78,7.38,7.39,4.24,4.25,-4.24,-4.64,-3.56,3.14,3.14,3.14
155.32,7.34,7.34,4.26,4.26,-4.26,-4.71,-3.48,3.08,3.08,3.08
156.88,7.30,7.30,4.27,4.27,-4.27,-4.78,-3.39,3.03,3.03,3.03
158.44,7.26,7.26,4.28,4.28,-4.29,-4.83,-3.31,2.97,2.97,2.98
160.03,7.22,7.23,4.30,4.30,-4.31,-4.88,-3.23,2.92,2.92,2.93
161.63,7.19,7.19,4.33,4.32,-4.32,-4.91,-3.15,2.87,2.87,2.87
163.24,7.16,7.16,4.36,4.35,-4.34,-4.94,-3.08,2.82,2.81,2.81
164.88,7.12,7.13,4.36,4.37,-4.37,-4.95,-3.00,2.76,2.76,2.76
166.53,7.10,7.10,4.39,4.39,-4.39,-4.95,-2.93,2.71,2.71,2.71
168.19,7.07,7.07,4.41,4.41,-4.41,-4.93,-2.85,2.66,2.66,2.66
169.87,7.05,7.05,4.43,4.43,-4.44,-4.91,-2.78,2.62,2.61,2.62
171.57,7.02,7.02,4.46,4.45,-4.46,-4.86,-2.71,2.56,2.57,2.57
173.29,7.00,7.00,4.48,4.48,-4.48,-4.81,-2.65,2.52,2.52,2.52
175.02,6.98,6.98,4.50,4.50,-4.50,-4.74,-2.58,2.48,2.48,2.48
176.77,6.96,6.96,4.52,4.52,-4.52,-4.66,-2.52,2.44,2.44,2.44
178.54,6.93,6.93,4.53,4.53,-4.53,-4.57,-2.46,2.40,2.40,2.40
180.32,6.90,6.90,4.54,4.54,-4.54,-4.47,-2.40,2.36,2.36,2.36
182.13,6.87,6.87,4.55,4.54,-4.55,-4.36,-2.34,2.33,2.32,2.33
183.95,6.83,6.83,4.54,4.54,-4.54,-4.24,-2.28,2.29,2.29,2.29
185.79,6.78,6.78,4.53,4.53,-4.53,-4.12,-2.23,2.25,2.25,2.25
187.65,6.72,6.73,4.50,4.51,-4.51,-3.99,-2.18,2.21,2.22,2.22
189.52,6.66,6.66,4.48,4.48,-4.48,-3.86,-2.13,2.19,2.18,2.19
191.42,6.58,6.58,4.44,4.43,-4.43,-3.73,-2.08,2.16,2.15,2.14
193.33,6.48,6.48,4.37,4.37,-4.36,-3.60,-2.04,2.12,2.13,2.11
195.27,6.37,6.37,4.29,4.29,-4.27,-3.46,-1.99,2.10,2.10,2.08
197.22,6.23,6.23,4.18,4.18,-4.17,-3.33,-1.95,2.06,2.07,2.05
199.19,6.08,6.08,4.06,4.06,-4.05,-3.19,-1.91,2.03,2.03,2.02
201.18,5.91,5.91,3.92,3.92,-3.91,-3.06,-1.87,2.00,2.00,2.00
203.19,5.73,5.73,3.76,3.76,-3.76,-2.93,-1.83,1.97,1.97,1.97
205.23,5.54,5.54,3.60,3.60,-3.61,-2.81,-1.79,1.93,1.93,1.94
207.28,5.35,5.36,3.44,3.44,-3.45,-2.68,-1.75,1.90,1.90,1.92
209.35,5.17,5.17,3.28,3.28,-3.29,-2.56,-1.72,1.88,1.88,1.89
211.44,4.99,4.99,3.12,3.12,-3.13,-2.44,-1.68,1.86,1.86,1.87
213.56,4.81,4.81,2.98,2.97,-2.97,-2.33,-1.65,1.84,1.84,1.83
215.69,4.63,4.63,2.82,2.82,-2.82,-2.22,-1.61,1.81,1.81,1.81
217.85,4.46,4.46,2.67,2.67,-2.67,-2.11,-1.58,1.79,1.79,1.79
220.03,4.29,4.29,2.52,2.52,-2.52,-2.00,-1.55,1.77,1.77,1.77
222.23,4.13,4.13,2.38,2.38,-2.38,-1.90,-1.52,1.75,1.75,1.75
224.45,3.96,3.96,2.23,2.23,-2.23,-1.81,-1.48,1.73,1.73,1.73
226.70,3.80,3.80,2.09,2.09,-2.09,-1.71,-1.45,1.71,1.71,1.71
228.96,3.64,3.64,1.95,1.95,-1.95,-1.62,-1.42,1.69,1.69,1.69
231.25,3.48,3.48,1.81,1.81,-1.81,-1.53,-1.39,1.67,1.67,1.67
233.57,3.32,3.32,1.66,1.67,-1.67,-1.45,-1.36,1.65,1.65,1.66
235.90,3.16,3.16,1.54,1.53,-1.53,-1.37,-1.32,1.63,1.63,1.62
238.26,3.00,3.00,1.40,1.39,-1.39,-1.29,-1.29,1.61,1.61,1.60
240.64,2.83,2.83,1.24,1.25,-1.24,-1.21,-1.26,1.59,1.60,1.59
243.05,2.67,2.67,1.10,1.09,-1.09,-1.14,-1.22,1.58,1.58,1.57
245.48,2.49,2.49,0.93,0.94,-0.93,-1.07,-1.19,1.56,1.56,1.56
247.93,2.32,2.32,0.78,0.77,-0.77,-1.00,-1.15,1.55,1.55,1.55
250.41,2.14,2.14,0.61,0.61,-0.61,-0.93,-1.12,1.53,1.53,1.53
252.92,1.96,1.96,0.44,0.45,-0.45,-0.87,-1.08,1.52,1.52,1.52
255.45,1.79,1.79,0.29,0.28,-0.28,-0.81,-1.04,1.51,1.50,1.51
258.00,1.61,1.61,0.12,0.12,-0.12,-0.74,-1.00,1.49,1.49,1.49
260.58,1.44,1.44,-0.04,-0.03,0.03,-0.69,-0.96,1.47,1.48,1.48
263.19,1.28,1.28,-0.18,-0.19,0.19,-0.63,-0.92,1.47,1.46,1.46
265.82,1.12,1.12,-0.33,-0.33,0.33,-0.57,-0.88,1.45,1.45,1.45
268.48,0.96,0.96,-0.48,-0.47,0.47,-0.52,-0.84,1.44,1.44,1.44
271.16,0.81,0.81,-0.61,-0.61,0.61,-0.47,-0.79,1.42,1.42,1.42
273.87,0.67,0.67,-0.74,-0.74,0.74,-0.42,-0.75,1.41,1.41,1.41
276.61,0.53,0.54,-0.86,-0.86,0.86,-0.37,-0.70,1.39,1.40,1.39
279.38,0.41,0.41,-0.97,-0.97,0.97,-0.32,-0.66,1.39,1.38,1.38
282.17,0.29,0.29,-1.07,-1.08,1.08,-0.27,-0.61,1.37,1.37,1.36
284.99,0.18,0.18,-1.18,-1.18,1.17,-0.22,-0.56,1.35,1.35,1.36
287.84,0.09,0.09,-1.26,-1.26,1.25,-0.18,-0.51,1.34,1.34,1.36
290.72,0.01,0.01,-1.33,-1.33,1.32,-0.13,-0.47,1.33,1.34,1.34
293.63,-0.05,-0.05,-1.38,-1.38,1.38,-0.09,-0.42,1.33,1.33,1.33
296.57,-0.10,-0.10,-1.42,-1.42,1.43,-0.05,-0.37,1.33,1.33,1.32
299.53,-0.14,-0.14,-1.46,-1.46,1.46,-0.00,-0.32,1.32,1.32,1.33
302.53,-0.17,-0.17,-1.48,-1.48,1.48,0.04,-0.27,1.31,1.31,1.31
305.55,-0.19,-0.19,-1.50,-1.49,1.49,0.08,-0.22,1.30,1.30,1.31
308.61,-0.19,-0.19,-1.48,-1.49,1.49,0.12,-0.16,1.30,1.30,1.30
311.69,-0.19,-0.18,-1.49,-1.48,1.48,0.16,-0.11,1.29,1.29,1.30
314.81,-0.17,-0.17,-1.45,-1.46,1.46,0.20,-0.06,1.29,1.29,1.28
317.96,-0.15,-0.15,-1.44,-1.44,1.44,0.23,-0.01,1.29,1.29,1.29
321.14,-0.13,-0.13,-1.41,-1.41,1.41,0.27,0.05,1.28,1.28,1.28
324.35,-0.10,-0.10,-1.38,-1.38,1.38,0.31,0.10,1.28,1.28,1.28
327.59,-0.07,-0.07,-1.35,-1.35,1.34,0.35,0.15,1.27,1.28,1.28
330.87,-0.03,-0.03,-1.31,-1.31,1.31,0.39,0.21,1.28,1.27,1.28
334.18,0.00,0.00,-1.27,-1.27,1.27,0.42,0.26,1.27,1.27,1.27
337.52,0.04,0.04,-1.23,-1.23,1.23,0.46,0.32,1.27,1.27,1.27
340.90,0.07,0.07,-1.19,-1.19,1.20,0.50,0.37,1.27,1.27,1.26
344.30,0.11,0.11,-1.16,-1.16,1.16,0.53,0.43,1.27,1.27,1.27
347.75,0.14,0.14,-1.13,-1.13,1.13,0.57,0.49,1.27,1.27,1.27
351.23,0.17,0.17,-1.09,-1.10,1.10,0.60,0.55,1.27,1.27,1.26
354.74,0.19,0.20,-1.09,-1.07,1.07,0.64,0.60,1.26,1.27,1.28
358.28,0.22,0.22,-1.04,-1.05,1.05,0.68,0.66,1.27,1.27,1.26
361.87,0.24,0.24,-1.03,-1.03,1.03,0.71,0.72,1.27,1.27,1.27
365.49,0.25,0.26,-1.01,-1.01,1.01,0.75,0.78,1.26,1.27,1.27
369.14,0.27,0.27,-0.99,-1.00,1.00,0.78,0.84,1.27,1.26,1.26
372.83,0.27,0.28,-1.00,-0.99,0.99,0.82,0.90,1.26,1.26,1.27
376.56,0.28,0.28,-0.99,-0.98,0.98,0.86,0.96,1.26,1.26,1.27
380.33,0.29,0.29,-0.97,-0.97,0.97,0.89,1.02,1.26,1.26,1.26
384.13,0.29,0.29,-0.96,-0.97,0.97,0.93,1.08,1.26,1.26,1.25
387.97,0.29,0.29,-0.97,-0.97,0.97,0.96,1.14,1.26,1.26,1.26
391.85,0.28,0.29,-0.98,-0.97,0.98,1.00,1.21,1.26,1.26,1.27
395.77,0.28,0.28,-0.98,-0.98,0.98,1.04,1.27,1.26,1.26,1.26
399.73,0.27,0.27,-0.99,-0.99,0.99,1.07,1.33,1.26,1.26,1.26
403.72,0.25,0.26,-1.01,-1.00,1.00,1.11,1.39,1.25,1.26,1.26
407.76,0.24,0.24,-1.01,-1.02,1.02,1.15,1.45,1.26,1.26,1.26
411.84,0.22,0.22,-1.03,-1.04,1.03,1.19,1.52,1.26,1.25,1.25
415.96,0.20,0.20,-1.06,-1.05,1.05,1.22,1.58,1.25,1.25,1.26
420.12,0.18,0.18,-1.07,-1.07,1.07,1.26,1.64,1.25,1.25,1.25
424.32,0.16,0.16,-1.09,-1.09,1.09,1.30,1.70,1.25,1.25,1.25
428.56,0.13,0.13,-1.11,-1.11,1.11,1.34,1.76,1.24,1.24,1.25
432.85,0.10,0.10,-1.14,-1.14,1.14,1.38,1.82,1.24,1.24,1.24
437.18,0.07,0.07,-1.16,-1.16,1.16,1.42,1.88,1.24,1.24,1.23
441.55,0.04,0.04,-1.19,-1.19,1.19,1.46,1.94,1.23,1.24,1.23
445.96,0.01,0.01,-1.22,-1.22,1.22,1.49,1.99,1.23,1.24,1.23
450.42,-0.02,-0.02,-1.26,-1.26,1.26,1.53,2.04,1.24,1.23,1.24
454.93,-0.06,-0.06,-1.29,-1.29,1.29,1.57,2.10,1.23,1.23,1.24
459.48,-0.10,-0.10,-1.33,-1.33,1.32,1.62,2.15,1.23,1.23,1.23
464.07,-0.14,-0.14,-1.36,-1.36,1.36,1.66,2.19,1.22,1.22,1.22
468.71,-0.18,-0.18,-1.40,-1.40,1.40,1.70,2.24,1.22,1.22,1.22
473.40,-0.22,-0.22,-1.44,-1.44,1.44,1.74,2.28,1.22,1.22,1.22
478.13,-0.26,-0.26,-1.48,-1.48,1.48,1.78,2.32,1.22,1.22,1.22
482.91,-0.30,-0.30,-1.52,-1.52,1.52,1.82,2.36,1.22,1.22,1.22
487.74,-0.34,-0.34,-1.56,-1.56,1.56,1.86,2.39,1.22,1.22,1.23
492.62,-0.39,-0.39,-1.61,-1.61,1.61,1.91,2.42,1.22,1.22,1.23
