frequency,raw
20,-3.16
21,-2.79
22,-2.31
23,-1.95
24,-1.77
25,-1.63
26,-1.36
27,-1.05
28,-0.86
29,-0.68
30,-0.45
31,-0.28
32,-0.09
33,0.03
34,0.17
35,0.33
36,0.49
37,0.63
38,0.78
39,0.87
40,0.96
41,1.10
42,1.24
43,1.42
44,1.56
45,1.63
46,1.68
47,1.68
48,1.68
49,1.75
50,1.81
51,1.91
52,2.03
53,2.17
54,2.30
55,2.40
56,2.48
57,2.55
58,2.61
59,2.61
60,2.64
61,2.69
62,2.76
63,2.82
64,2.86
65,2.92
66,2.98
67,3.02
68,3.08
69,3.12
70,3.12
71,3.17
72,3.22
73,3.23
74,3.26
75,3.31
76,3.36
77,3.38
78,3.41
79,3.45
80,3.50
81,3.52
82,3.54
83,3.59
84,3.60
85,3.64
86,3.66
87,3.68
88,3.73
89,3.76
90,3.78
91,3.82
92,3.84
93,3.87
94,3.89
95,3.92
96,3.94
97,3.96
98,3.98
99,4.01
100,4.01
101,4.01
102,4.01
104,4.06
105,4.08
106,4.10
107,4.11
108,4.15
109,4.15
110,4.19
111,4.20
112,4.20
113,4.24
114,4.24
115,4.24
117,4.27
118,4.29
119,4.29
120,4.29
121,4.30
123,4.34
124,4.34
125,4.38
126,4.38
128,4.43
129,4.43
130,4.43
131,4.43
133,4.43
134,4.43
135,4.43
137,4.48
138,4.48
140,4.48
141,4.48
142,4.52
144,4.52
145,4.52
147,4.52
148,4.52
150,4.56
151,4.57
153,4.57
154,4.57
156,4.57
157,4.57
159,4.57
160,4.57
162,4.57
164,4.55
165,4.52
167,4.52
169,4.52
170,4.52
172,4.48
174,4.48
175,4.48
177,4.43
179,4.43
181,4.39
183,4.38
184,4.37
186,4.34
188,4.30
190,4.27
192,4.24
194,4.20
196,4.19
198,4.15
200,4.12
202,4.10
204,4.10
206,4.10
208,4.07
210,4.06
212,4.10
214,4.13
216,4.17
218,4.23
221,4.31
223,4.36
225,4.43
227,4.49
229,4.55
232,4.64
234,4.69
236,4.71
239,4.76
241,4.80
244,4.85
246,4.85
248,4.85
251,4.90
253,4.90
256,4.90
259,4.94
261,4.94
264,4.94
266,4.94
269,4.94
272,4.91
274,4.90
277,4.90
280,4.90
283,4.85
286,4.85
288,4.85
291,4.80
294,4.80
297,4.76
300,4.76
303,4.76
306,4.74
309,4.73
312,4.73
316,4.73
319,4.71
322,4.71
325,4.71
328,4.71
332,4.66
335,4.66
338,4.65
342,4.62
345,4.61
349,4.57
352,4.57
356,4.54
359,4.52
363,4.52
366,4.52
370,4.51
374,4.50
377,4.50
381,4.48
385,4.48
389,4.48
393,4.48
397,4.48
401,4.47
405,4.43
409,4.38
413,4.35
417,4.32
421,4.29
425,4.24
430,4.20
434,4.18
438,4.13
443,4.09
447,4.04
451,4.01
456,3.95
460,3.90
465,3.84
470,3.77
474,3.72
479,3.64
484,3.58
489,3.50
494,3.43
499,3.36
504,3.29
509,3.24
514,3.19
519,3.10
524,3.06
529,3.01
535,2.96
540,2.90
545,2.84
551,2.78
556,2.73
562,2.68
568,2.63
573,2.58
579,2.50
585,2.45
591,2.37
596,2.31
602,2.26
608,2.21
615,2.12
621,2.07
627,2.01
633,1.96
639,1.90
646,1.84
652,1.80
659,1.75
665,1.70
672,1.64
679,1.61
686,1.55
692,1.51
699,1.45
706,1.42
713,1.36
721,1.33
728,1.30
735,1.26
742,1.22
750,1.20
757,1.17
765,1.12
773,1.11
780,1.07
788,1.03
796,1.02
804,0.98
812,0.93
820,0.90
828,0.87
837,0.82
845,0.78
853,0.73
862,0.68
871,0.64
879,0.59
888,0.54
897,0.49
906,0.43
915,0.35
924,0.30
933,0.23
943,0.18
952,0.13
962,0.08
971,0.05
981,-0.00
991,-0.00
1001,0.00
1011,0.00
1021,0.00
1031,0.05
1041,0.08
1052,0.15
1062,0.19
1073,0.27
1084,0.33
1094,0.42
1105,0.53
1116,0.59
1128,0.71
1139,0.80
1150,0.88
1162,0.98
1173,1.07
1185,1.15
1197,1.24
1209,1.33
1221,1.39
1233,1.49
1246,1.56
1258,1.65
1271,1.73
1283,1.80
1296,1.88
1309,1.94
1322,2.00
1335,2.07
1349,2.13
1362,2.18
1376,2.22
1390,2.27
1404,2.31
1418,2.35
1432,2.38
1446,2.44
1461,2.47
1475,2.52
1490,2.55
1505,2.58
1520,2.62
1535,2.65
1550,2.68
1566,2.73
1582,2.76
1597,2.82
1613,2.85
1629,2.90
1646,2.93
1662,2.99
1679,3.03
1696,3.10
1713,3.16
1730,3.23
1747,3.31
1764,3.36
1782,3.44
1800,3.52
1818,3.60
1836,3.66
1854,3.77
1873,3.83
1892,3.94
1911,4.01
1930,4.11
1949,4.22
1969,4.33
1988,4.43
2008,4.52
2028,4.63
2048,4.74
2069,4.88
2090,5.01
2111,5.12
2132,5.23
2153,5.35
2175,5.47
2196,5.60
2218,5.73
2240,5.84
2263,5.97
2285,6.10
2308,6.24
2331,6.37
2355,6.50
2378,6.63
2402,6.75
2426,6.89
2450,7.01
2475,7.14
2500,7.27
2525,7.39
2550,7.54
2575,7.69
2601,7.83
2627,7.97
2653,8.11
2680,8.27
2707,8.41
2734,8.53
2761,8.69
2789,8.80
2817,8.95
2845,9.07
2873,9.22
2902,9.37
2931,9.48
2960,9.63
2990,9.75
3020,9.88
3050,9.99
3080,10.12
3111,10.23
3142,10.36
3174,10.47
3206,10.57
3238,10.66
3270,10.75
3303,10.81
3336,10.87
3369,10.94
3403,10.96
3437,10.99
3471,11.01
3506,11.01
3541,11.01
3576,10.96
3612,10.93
3648,10.89
3685,10.84
3721,10.79
3759,10.74
3796,10.68
3834,10.67
3873,10.63
3911,10.61
3950,10.56
3990,10.52
4030,10.45
4070,10.38
4111,10.33
4152,10.28
4193,10.22
4235,10.15
4278,10.10
4321,10.05
4364,10.01
4407,9.98
4451,9.93
4496,9.93
4541,9.93
4586,9.93
4632,9.95
4679,10.00
4725,10.05
4773,10.10
4820,10.17
4868,10.23
4917,10.34
4966,10.43
5016,10.54
5066,10.67
5117,10.82
5168,10.96
5220,11.13
5272,11.29
5325,11.48
5378,11.68
5432,11.88
5486,12.06
5541,12.25
5596,12.43
5652,12.60
5709,12.72
5766,12.85
5823,12.96
5882,13.05
5940,13.13
6000,13.15
6060,13.13
6120,13.08
6182,12.98
6244,12.86
6306,12.68
6369,12.46
6433,12.20
6497,11.90
6562,11.60
6628,11.25
6694,10.90
6761,10.57
6828,10.23
6897,9.85
6966,9.51
7035,9.19
7106,8.87
7177,8.59
7249,8.34
7321,8.10
7394,7.89
7468,7.67
7543,7.48
7618,7.29
7694,7.15
7771,6.99
7849,6.87
7928,6.75
8007,6.64
8087,6.55
8168,6.46
8250,6.38
8332,6.29
8415,6.19
8499,6.06
8584,5.91
8670,5.75
8757,5.51
8845,5.26
8933,4.90
9022,4.52
9113,4.13
9204,3.69
9296,3.22
9389,2.69
9483,2.11
9577,1.54
9673,0.91
9770,0.22
9868,-0.35
9966,-0.97
10066,-1.58
10167,-2.10
10268,-2.65
10371,-3.25
10475,-3.75
10579,-4.29
10685,-4.84
10792,-5.33
10900,-5.83
11009,-6.30
11119,-6.73
11230,-7.13
11343,-7.49
11456,-7.82
11571,-8.12
11686,-8.40
11803,-8.65
11921,-8.89
12040,-9.11
12161,-9.27
12282,-9.44
12405,-9.58
12529,-9.72
12655,-9.85
12781,-9.97
12909,-10.06
13038,-10.10
13168,-10.12
13300,-10.04
13433,-9.86
13567,-9.64
13703,-9.34
13840,-9.01
13978,-8.69
14118,-8.30
14259,-7.89
14402,-7.52
14546,-7.22
14692,-6.90
14838,-6.79
14987,-6.85
15137,-7.18
15288,-7.66
15441,-8.23
15595,-8.85
15751,-9.46
15909,-10.05
16068,-10.60
16229,-11.09
16391,-11.61
16555,-12.06
16720,-12.49
16888,-12.85
17056,-13.16
17227,-13.41
17399,-13.62
17573,-13.78
17749,-13.90
17926,-13.95
18106,-13.93
18287,-13.88
18470,-13.79
18654,-13.77
18841,-14.04
19029,-14.43
19220,-15.02
19412,-15.72
19606,-16.56
19802,-17.16
20000,-17.58
