frequency,raw,error,smoothed,error_smoothed,equalization,parametric_eq,fixed_band_eq,equalized_raw,equalized_smoothed,target
20.00,-2.17,-3.66,-2.17,-3.66,3.66,3.01,0.88,1.49,1.49,1.49
20.20,-2.11,-3.64,-2.11,-3.64,3.64,2.99,0.90,1.54,1.53,1.53
20.40,-2.05,-3.63,-2.05,-3.62,3.62,2.98,0.93,1.57,1.57,1.57
20.61,-2.00,-3.60,-1.99,-3.60,3.60,2.96,0.96,1.60,1.61,1.60
20.81,-1.93,-3.58,-1.94,-3.58,3.58,2.94,0.99,1.64,1.64,1.64
21.02,-1.88,-3.56,-1.88,-3.55,3.55,2.93,1.02,1.67,1.67,1.68
21.23,-1.83,-3.52,-1.82,-3.52,3.52,2.91,1.05,1.69,1.70,1.70
21.44,-1.76,-3.48,-1.76,-3.48,3.48,2.89,1.09,1.72,1.72,1.72
21.66,-1.71,-3.44,-1.71,-3.44,3.44,2.87,1.12,1.74,1.74,1.74
21.87,-1.64,-3.39,-1.65,-3.40,3.40,2.86,1.16,1.76,1.75,1.75
22.09,-1.59,-3.36,-1.59,-3.36,3.36,2.84,1.19,1.76,1.77,1.77
22.31,-1.53,-3.31,-1.53,-3.31,3.31,2.82,1.23,1.77,1.77,1.78
22.54,-1.48,-3.26,-1.48,-3.26,3.26,2.80,1.27,1.78,1.78,1.79
22.76,-1.41,-3.21,-1.41,-3.21,3.21,2.78,1.31,1.80,1.80,1.80
22.99,-1.36,-3.15,-1.36,-3.16,3.16,2.76,1.34,1.80,1.80,1.80
23.22,-1.30,-3.10,-1.30,-3.11,3.11,2.74,1.39,1.82,1.81,1.81
23.45,-1.24,-3.06,-1.24,-3.06,3.06,2.72,1.43,1.82,1.82,1.82
23.69,-1.19,-3.01,-1.18,-3.01,3.01,2.69,1.47,1.83,1.83,1.83
23.92,-1.12,-2.96,-1.13,-2.97,2.96,2.67,1.51,1.84,1.84,1.84
24.16,-1.06,-2.92,-1.07,-2.92,2.92,2.65,1.56,1.85,1.85,1.86
24.40,-1.00,-2.88,-1.00,-2.87,2.87,2.63,1.60,1.86,1.86,1.87
24.65,-0.95,-2.82,-0.95,-2.82,2.82,2.60,1.64,1.87,1.87,1.87
24.89,-0.88,-2.77,-0.88,-2.77,2.77,2.58,1.69,1.88,1.88,1.88
25.14,-0.82,-2.72,-0.82,-2.72,2.72,2.55,1.73,1.89,1.90,1.89
25.39,-0.75,-2.66,-0.76,-2.66,2.66,2.53,1.78,1.91,1.91,1.90
25.65,-0.70,-2.62,-0.70,-2.61,2.61,2.50,1.82,1.92,1.92,1.92
25.91,-0.64,-2.56,-0.63,-2.56,2.56,2.48,1.87,1.92,1.93,1.92
26.16,-0.57,-2.51,-0.58,-2.51,2.51,2.45,1.91,1.94,1.93,1.93
26.43,-0.52,-2.46,-0.52,-2.46,2.46,2.42,1.95,1.94,1.94,1.94
26.69,-0.46,-2.41,-0.46,-2.41,2.41,2.39,2.00,1.96,1.95,1.95
26.96,-0.40,-2.37,-0.40,-2.36,2.36,2.37,2.04,1.96,1.96,1.97
27.23,-0.34,-2.31,-0.34,-2.31,2.31,2.34,2.08,1.97,1.97,1.98
27.50,-0.28,-2.26,-0.28,-2.26,2.26,2.31,2.11,1.98,1.98,1.99
27.77,-0.21,-2.20,-0.22,-2.21,2.21,2.28,2.15,1.99,1.99,1.99
28.05,-0.16,-2.16,-0.15,-2.15,2.15,2.25,2.18,2.00,2.00,2.01
28.33,-0.09,-2.10,-0.09,-2.10,2.10,2.22,2.21,2.01,2.01,2.01
28.62,-0.03,-2.04,-0.03,-2.04,2.05,2.18,2.24,2.02,2.02,2.01
28.90,0.03,-1.99,0.03,-1.99,1.99,2.15,2.26,2.03,2.03,2.02
29.19,0.09,-1.93,0.09,-1.94,1.94,2.12,2.29,2.03,2.03,2.02
29.48,0.16,-1.90,0.15,-1.89,1.88,2.08,2.30,2.04,2.04,2.05
29.78,0.21,-1.84,0.22,-1.83,1.83,2.05,2.32,2.04,2.04,2.05
30.08,0.28,-1.78,0.28,-1.78,1.77,2.02,2.32,2.05,2.05,2.06
30.38,0.35,-1.71,0.35,-1.71,1.71,1.98,2.33,2.06,2.06,2.06
30.68,0.42,-1.65,0.42,-1.65,1.65,1.94,2.33,2.08,2.08,2.08
30.99,0.49,-1.58,0.49,-1.59,1.59,1.91,2.32,2.09,2.09,2.08
31.30,0.55,-1.53,0.55,-1.53,1.54,1.87,2.31,2.09,2.09,2.09
31.61,0.61,-1.48,0.62,-1.48,1.48,1.83,2.30,2.10,2.10,2.09
31.93,0.67,-1.43,0.67,-1.43,1.43,1.79,2.28,2.10,2.10,2.10
32.24,0.74,-1.37,0.73,-1.37,1.37,1.75,2.26,2.11,2.11,2.10
32.57,0.79,-1.33,0.79,-1.32,1.32,1.71,2.23,2.11,2.11,2.12
32.89,0.86,-1.27,0.86,-1.27,1.27,1.67,2.19,2.12,2.12,2.13
33.22,0.91,-1.22,0.92,-1.22,1.22,1.62,2.16,2.13,2.13,2.14
33.55,0.99,-1.16,0.98,-1.16,1.16,1.58,2.12,2.15,2.14,2.15
33.89,1.04,-1.11,1.04,-1.11,1.11,1.54,2.07,2.16,2.15,2.15
34.23,1.10,-1.06,1.11,-1.06,1.06,1.49,2.02,2.16,2.16,2.16
34.57,1.16,-1.01,1.16,-1.00,1.00,1.45,1.97,2.17,2.17,2.17
34.92,1.22,-0.94,1.22,-0.95,0.95,1.40,1.91,2.18,2.17,2.17
35.27,1.27,-0.90,1.28,-0.90,0.90,1.35,1.85,2.18,2.18,2.18
35.62,1.32,-0.86,1.33,-0.85,0.85,1.31,1.79,2.18,2.18,2.18
35.97,1.39,-0.80,1.38,-0.80,0.80,1.26,1.73,2.19,2.18,2.18
36.33,1.44,-0.76,1.43,-0.75,0.76,1.21,1.66,2.19,2.19,2.19
36.70,1.48,-0.70,1.49,-0.71,0.71,1.16,1.60,2.19,2.19,2.19
37.06,1.54,-0.66,1.54,-0.66,0.66,1.11,1.53,2.20,2.20,2.20
37.43,1.59,-0.62,1.58,-0.62,0.61,1.06,1.46,2.20,2.20,2.20
37.81,1.63,-0.57,1.63,-0.57,0.57,1.00,1.39,2.20,2.20,2.20
38.19,1.67,-0.52,1.68,-0.52,0.52,0.95,1.31,2.19,2.20,2.20
38.57,1.72,-0.47,1.72,-0.47,0.47,0.90,1.24,2.20,2.19,2.20
38.95,1.77,-0.43,1.77,-0.42,0.43,0.84,1.17,2.19,2.19,2.19
39.34,1.82,-0.37,1.81,-0.38,0.38,0.78,1.09,2.19,2.19,2.19
39.74,1.85,-0.33,1.86,-0.33,0.33,0.73,1.02,2.19,2.19,2.19
40.14,1.90,-0.29,1.90,-0.29,0.29,0.67,0.94,2.19,2.19,2.19
40.54,1.94,-0.25,1.94,-0.24,0.25,0.61,0.87,2.19,2.19,2.19
40.94,1.98,-0.20,1.99,-0.20,0.21,0.55,0.79,2.19,2.19,2.19
41.35,2.02,-0.16,2.02,-0.16,0.17,0.49,0.72,2.19,2.19,2.18
41.76,2.07,-0.12,2.06,-0.13,0.13,0.43,0.64,2.19,2.19,2.19
42.18,2.09,-0.10,2.10,-0.09,0.09,0.37,0.57,2.19,2.19,2.20
42.60,2.13,-0.06,2.13,-0.06,0.06,0.31,0.49,2.19,2.19,2.19
43.03,2.16,-0.03,2.17,-0.03,0.02,0.25,0.42,2.18,2.19,2.20
43.46,2.20,0.01,2.21,0.02,-0.02,0.19,0.34,2.19,2.19,2.19
43.90,2.24,0.07,2.24,0.05,-0.05,0.12,0.27,2.19,2.19,2.18
44.33,2.27,0.09,2.27,0.10,-0.09,0.06,0.19,2.18,2.18,2.18
44.78,2.30,0.13,2.31,0.13,-0.13,-0.00,0.12,2.17,2.18,2.18
45.23,2.34,0.17,2.35,0.17,-0.17,-0.07,0.04,2.18,2.18,2.17
45.68,2.38,0.21,2.38,0.21,-0.20,-0.13,-0.03,2.18,2.18,2.18
46.13,2.42,0.25,2.42,0.24,-0.24,-0.20,-0.11,2.19,2.18,2.17
46.60,2.45,0.27,2.46,0.28,-0.27,-0.26,-0.18,2.18,2.18,2.19
47.06,2.48,0.30,2.49,0.31,-0.31,-0.33,-0.25,2.18,2.18,2.18
47.53,2.52,0.35,2.52,0.34,-0.34,-0.39,-0.33,2.18,2.18,2.17
48.01,2.55,0.37,2.55,0.37,-0.38,-0.46,-0.40,2.18,2.18,2.19
48.49,2.57,0.40,2.58,0.41,-0.41,-0.53,-0.47,2.17,2.17,2.17
48.97,2.60,0.45,2.60,0.44,-0.44,-0.59,-0.54,2.16,2.16,2.15
49.46,2.62,0.48,2.63,0.48,-0.48,-0.66,-0.61,2.15,2.15,2.15
49.96,2.65,0.52,2.65,0.51,-0.51,-0.72,-0.69,2.14,2.14,2.13
50.46,2.67,0.54,2.68,0.55,-0.55,-0.79,-0.76,2.13,2.13,2.13
50.96,2.70,0.58,2.70,0.59,-0.59,-0.85,-0.83,2.12,2.12,2.12
51.47,2.72,0.63,2.73,0.62,-0.62,-0.91,-0.89,2.10,2.11,2.10
51.99,2.75,0.67,2.75,0.66,-0.66,-0.98,-0.96,2.09,2.09,2.09
52.51,2.78,0.69,2.78,0.70,-0.70,-1.04,-1.03,2.09,2.08,2.09
53.03,2.80,0.73,2.81,0.74,-0.74,-1.10,-1.10,2.07,2.07,2.07
53.56,2.83,0.77,2.84,0.77,-0.78,-1.16,-1.16,2.06,2.06,2.06
54.10,2.86,0.82,2.86,0.82,-0.82,-1.22,-1.22,2.04,2.04,2.04
54.64,2.89,0.86,2.90,0.87,-0.86,-1.28,-1.28,2.03,2.03,2.03
55.18,2.92,0.91,2.92,0.91,-0.91,-1.34,-1.34,2.02,2.02,2.01
55.74,2.95,0.96,2.95,0.95,-0.95,-1.39,-1.40,2.00,2.00,1.99
56.29,2.97,0.99,2.98,1.00,-1.00,-1.45,-1.46,1.98,1.98,1.99
56.86,3.00,1.04,3.01,1.04,-1.05,-1.50,-1.51,1.96,1.96,1.97
57.42,3.04,1.10,3.04,1.09,-1.09,-1.55,-1.56,1.95,1.95,1.95
58.00,3.08,1.15,3.08,1.15,-1.14,-1.60,-1.61,1.94,1.94,1.93
58.58,3.11,1.19,3.12,1.20,-1.20,-1.65,-1.65,1.92,1.92,1.92
59.16,3.15,1.25,3.16,1.25,-1.25,-1.70,-1.69,1.90,1.90,1.91
59.76,3.19,1.30,3.19,1.30,-1.31,-1.74,-1.73,1.89,1.89,1.89
60.35,3.23,1.37,3.24,1.36,-1.37,-1.78,-1.77,1.87,1.87,1.87
60.96,3.27,1.43,3.27,1.43,-1.43,-1.82,-1.80,1.85,1.84,1.84
61.57,3.30,1.49,3.30,1.49,-1.49,-1.86,-1.82,1.81,1.81,1.81
62.18,3.33,1.56,3.34,1.56,-1.55,-1.89,-1.85,1.78,1.78,1.77
62.80,3.36,1.61,3.37,1.62,-1.62,-1.92,-1.87,1.75,1.75,1.76
63.43,3.40,1.68,3.40,1.68,-1.68,-1.95,-1.89,1.72,1.72,1.72
64.07,3.43,1.74,3.44,1.74,-1.74,-1.98,-1.90,1.69,1.69,1.69
64.71,3.47,1.81,3.47,1.80,-1.80,-2.00,-1.91,1.67,1.67,1.67
65.35,3.49,1.86,3.50,1.86,-1.86,-2.02,-1.92,1.64,1.64,1.64
66.01,3.52,1.91,3.53,1.91,-1.91,-2.04,-1.92,1.62,1.62,1.61
66.67,3.55,1.96,3.55,1.96,-1.96,-2.06,-1.92,1.60,1.59,1.59
67.33,3.56,2.00,3.57,2.00,-2.00,-2.07,-1.92,1.56,1.56,1.56
68.01,3.57,2.04,3.58,2.04,-2.05,-2.09,-1.91,1.53,1.53,1.53
68.69,3.58,2.08,3.58,2.08,-2.09,-2.09,-1.90,1.50,1.50,1.50
69.37,3.58,2.11,3.59,2.12,-2.12,-2.10,-1.90,1.46,1.47,1.47
70.07,3.59,2.16,3.59,2.15,-2.16,-2.10,-1.88,1.44,1.44,1.44
70.77,3.60,2.19,3.60,2.19,-2.19,-2.11,-1.87,1.42,1.41,1.42
71.48,3.60,2.21,3.61,2.22,-2.22,-2.11,-1.86,1.39,1.39,1.39
72.19,3.61,2.26,3.61,2.25,-2.24,-2.10,-1.84,1.37,1.37,1.36
72.91,3.60,2.27,3.60,2.27,-2.27,-2.10,-1.82,1.34,1.34,1.33
73.64,3.59,2.28,3.60,2.28,-2.28,-2.09,-1.81,1.31,1.31,1.31
74.38,3.58,2.29,3.59,2.29,-2.30,-2.08,-1.79,1.29,1.29,1.29
75.12,3.57,2.31,3.58,2.30,-2.31,-2.07,-1.77,1.27,1.27,1.27
75.87,3.56,2.31,3.56,2.31,-2.31,-2.06,-1.75,1.26,1.25,1.25
76.63,3.54,2.31,3.55,2.31,-2.31,-2.05,-1.73,1.24,1.24,1.24
77.40,3.52,2.31,3.52,2.31,-2.31,-2.03,-1.71,1.22,1.22,1.22
78.17,3.50,2.31,3.50,2.30,-2.30,-2.01,-1.69,1.20,1.20,1.20
78.95,3.47,2.28,3.48,2.29,-2.29,-2.00,-1.68,1.18,1.19,1.19
79.74,3.46,2.28,3.46,2.28,-2.28,-1.98,-1.66,1.18,1.17,1.18
80.54,3.43,2.26,3.44,2.27,-2.27,-1.96,-1.64,1.16,1.17,1.17
81.35,3.41,2.26,3.42,2.26,-2.26,-1.94,-1.63,1.16,1.16,1.16
82.16,3.39,2.25,3.39,2.24,-2.24,-1.91,-1.61,1.16,1.15,1.15
82.98,3.36,2.22,3.36,2.22,-2.22,-1.89,-1.60,1.15,1.15,1.15
83.81,3.33,2.20,3.33,2.20,-2.19,-1.87,-1.59,1.14,1.14,1.13
84.65,3.29,2.17,3.30,2.17,-2.17,-1.84,-1.58,1.13,1.13,1.12
85.50,3.26,2.14,3.26,2.14,-2.14,-1.82,-1.57,1.13,1.12,1.13
86.35,3.22,2.10,3.22,2.10,-2.11,-1.79,-1.56,1.12,1.12,1.12
87.22,3.18,2.07,3.19,2.07,-2.08,-1.77,-1.55,1.11,1.11,1.12
88.09,3.16,2.05,3.16,2.04,-2.05,-1.74,-1.54,1.11,1.11,1.11
88.97,3.13,2.02,3.13,2.02,-2.02,-1.72,-1.54,1.11,1.11,1.12
89.86,3.10,1.98,3.11,1.99,-1.99,-1.69,-1.53,1.11,1.12,1.12
90.76,3.08,1.98,3.08,1.97,-1.96,-1.67,-1.53,1.12,1.12,1.11
91.66,3.04,1.93,3.05,1.94,-1.93,-1.64,-1.53,1.11,1.12,1.11
92.58,3.01,1.91,3.01,1.91,-1.90,-1.62,-1.53,1.12,1.12,1.10
93.51,2.97,1.86,2.98,1.86,-1.86,-1.60,-1.53,1.11,1.12,1.12
94.44,2.93,1.83,2.93,1.82,-1.82,-1.57,-1.53,1.11,1.11,1.11
95.39,2.88,1.77,2.88,1.77,-1.78,-1.55,-1.53,1.11,1.10,1.11
96.34,2.82,1.73,2.83,1.73,-1.73,-1.53,-1.54,1.09,1.09,1.09
97.30,2.76,1.68,2.77,1.68,-1.68,-1.50,-1.54,1.08,1.09,1.08
98.28,2.71,1.64,2.71,1.64,-1.64,-1.48,-1.55,1.08,1.08,1.08
99.26,2.66,1.60,2.66,1.59,-1.59,-1.46,-1.55,1.07,1.07,1.07
100.25,2.60,1.55,2.60,1.54,-1.55,-1.44,-1.56,1.05,1.05,1.06
101.25,2.54,1.50,2.54,1.50,-1.51,-1.42,-1.57,1.04,1.04,1.05
102.27,2.48,1.46,2.49,1.46,-1.47,-1.40,-1.58,1.02,1.03,1.03
103.29,2.44,1.43,2.45,1.43,-1.43,-1.38,-1.59,1.02,1.02,1.01
104.32,2.40,1.40,2.39,1.40,-1.39,-1.36,-1.60,1.02,1.01,1.00
105.37,2.33,1.35,2.34,1.36,-1.35,-1.34,-1.61,0.99,0.99,0.98
106.42,2.26,1.31,2.27,1.31,-1.31,-1.32,-1.62,0.95,0.95,0.95
107.48,2.19,1.26,2.20,1.27,-1.28,-1.30,-1.63,0.92,0.92,0.93
108.56,2.13,1.24,2.14,1.24,-1.24,-1.29,-1.64,0.89,0.90,0.89
109.64,2.07,1.21,2.07,1.21,-1.21,-1.27,-1.64,0.87,0.87,0.86
110.74,2.01,1.18,2.01,1.18,-1.17,-1.26,-1.65,0.84,0.84,0.83
111.85,1.93,1.14,1.94,1.14,-1.14,-1.24,-1.66,0.79,0.80,0.80
112.97,1.86,1.12,1.86,1.11,-1.11,-1.23,-1.67,0.75,0.75,0.75
114.10,1.79,1.08,1.79,1.08,-1.09,-1.22,-1.67,0.70,0.70,0.72
115.24,1.72,1.05,1.74,1.07,-1.07,-1.20,-1.67,0.66,0.67,0.67
116.39,1.68,1.06,1.68,1.05,-1.05,-1.19,-1.68,0.64,0.63,0.62
117.55,1.62,1.04,1.62,1.04,-1.03,-1.18,-1.68,0.59,0.59,0.58
118.73,1.55,1.02,1.56,1.02,-1.02,-1.17,-1.68,0.54,0.54,0.54
119.92,1.50,0.99,1.50,1.00,-1.00,-1.16,-1.67,0.50,0.50,0.51
121.12,1.45,0.99,1.46,0.99,-1.00,-1.15,-1.67,0.46,0.46,0.46
122.33,1.42,1.00,1.42,0.99,-0.99,-1.14,-1.66,0.44,0.43,0.43
123.55,1.38,0.98,1.38,0.98,-0.98,-1.13,-1.65,0.40,0.40,0.40
124.79,1.33,0.97,1.34,0.97,-0.97,-1.12,-1.64,0.36,0.36,0.37
126.03,1.28,0.95,1.30,0.97,-0.97,-1.12,-1.63,0.32,0.33,0.33
127.29,1.26,0.97,1.26,0.97,-0.96,-1.11,-1.61,0.30,0.30,0.30
128.57,1.23,0.98,1.22,0.96,-0.96,-1.10,-1.59,0.28,0.26,0.25
129.85,1.18,0.96,1.19,0.96,-0.95,-1.10,-1.57,0.23,0.23,0.23
131.15,1.13,0.94,1.15,0.95,-0.95,-1.09,-1.55,0.18,0.20,0.20
132.46,1.12,0.95,1.12,0.94,-0.95,-1.09,-1.52,0.18,0.17,0.17
133.79,1.09,0.94,1.09,0.95,-0.95,-1.09,-1.50,0.15,0.15,0.15
135.12,1.06,0.94,1.07,0.94,-0.94,-1.09,-1.47,0.12,0.12,0.12
136.48,1.04,0.95,1.04,0.94,-0.94,-1.08,-1.44,0.10,0.10,0.10
137.84,1.00,0.94,1.01,0.95,-0.94,-1.08,-1.40,0.06,0.07,0.07
139.22,0.99,0.96,0.99,0.95,-0.95,-1.08,-1.37,0.05,0.04,0.04
140.61,0.97,0.96,0.97,0.95,-0.96,-1.09,-1.33,0.02,0.01,0.01
142.02,0.95,0.95,0.96,0.96,-0.97,-1.09,-1.30,-0.02,-0.01,0.00
143.44,0.95,0.97,0.96,0.98,-0.99,-1.09,-1.26,-0.03,-0.03,-0.02
144.87,0.96,1.01,0.96,1.00,-1.01,-1.10,-1.22,-0.04,-0.05,-0.04
146.32,0.96,1.04,0.97,1.03,-1.03,-1.10,-1.18,-0.07,-0.06,-0.07
147.78,0.97,1.06,0.97,1.06,-1.06,-1.11,-1.14,-0.08,-0.09,-0.09
149.26,0.97,1.09,0.97,1.09,-1.09,-1.12,-1.10,-0.11,-0.11,-0.11
150.75,0.97,1.13,0.97,1.12,-1.12,-1.13,-1.06,-0.15,-0.15,-0.16
152.26,0.97,1.16,0.97,1.16,-1.16,-1.15,-1.01,-0.18,-0.18,-0.18
153.78,0.97,1.18,0.98,1.19,-1.20,-1.16,-0.97,-0.22,-0.22,-0.21
155.32,0.98,1.23,0.99,1.23,-1.23,-1.18,-0.93,-0.25,-0.25,-0.25
156.88,0.99,1.27,0.99,1.27,-1.27,-1.20,-0.89,-0.27,-0.27,-0.27
158.44,1.00,1.31,1.00,1.31,-1.30,-1.22,-0.84,-0.30,-0.30,-0.30
160.03,0.99,1.34,1.00,1.34,-1.34,-1.24,-0.80,-0.34,-0.34,-0.34
161.63,0.98,1.37,0.99,1.37,-1.37,-1.26,-0.76,-0.38,-0.38,-0.39
163.24,0.97,1.39,0.98,1.39,-1.39,-1.29,-0.72,-0.42,-0.42,-0.42
164.88,0.96,1.41,0.96,1.41,-1.41,-1.31,-0.67,-0.45,-0.45,-0.45
166.53,0.94,1.43,0.95,1.43,-1.43,-1.34,-0.63,-0.48,-0.48,-0.48
168.19,0.92,1.45,0.92,1.44,-1.44,-1.36,-0.59,-0.51,-0.52,-0.52
169.87,0.87,1.44,0.88,1.44,-1.44,-1.38,-0.55,-0.57,-0.56,-0.56
171.57,0.83,1.43,0.84,1.44,-1.44,-1.40,-0.51,-0.61,-0.60,-0.60
173.29,0.79,1.44,0.79,1.43,-1.44,-1.41,-0.46,-0.64,-0.65,-0.65
175.02,0.72,1.41,0.73,1.42,-1.43,-1.41,-0.42,-0.70,-0.69,-0.68
176.77,0.67,1.41,0.67,1.41,-1.41,-1.42,-0.38,-0.73,-0.73,-0.74
178.54,0.61,1.40,0.62,1.40,-1.39,-1.41,-0.34,-0.77,-0.77,-0.78
180.32,0.54,1.37,0.54,1.38,-1.36,-1.39,-0.30,-0.82,-0.82,-0.83
182.13,0.47,1.35,0.46,1.34,-1.33,-1.37,-0.26,-0.86,-0.87,-0.87
183.95,0.35,1.28,0.37,1.30,-1.30,-1.34,-0.22,-0.95,-0.93,-0.93
185.79,0.27,1.25,0.28,1.26,-1.26,-1.30,-0.18,-0.99,-0.99,-0.97
187.65,0.19,1.23,0.19,1.22,-1.22,-1.26,-0.14,-1.03,-1.04,-1.04
189.52,0.10,1.18,0.11,1.19,-1.18,-1.21,-0.10,-1.08,-1.08,-1.08
191.42,0.02,1.15,0.02,1.14,-1.14,-1.16,-0.06,-1.12,-1.12,-1.12
193.33,-0.07,1.10,-0.07,1.10,-1.10,-1.11,-0.03,-1.17,-1.17,-1.16
195.27,-0.16,1.05,-0.16,1.05,-1.06,-1.05,0.01,-1.21,-1.21,-1.21
197.22,-0.25,1.01,-0.24,1.01,-1.01,-1.00,0.05,-1.26,-1.25,-1.26
199.19,-0.34,0.97,-0.33,0.97,-0.96,-0.94,0.09,-1.30,-1.30,-1.31
201.18,-0.42,0.93,-0.42,0.92,-0.92,-0.89,0.12,-1.33,-1.34,-1.35
203.19,-0.52,0.86,-0.52,0.87,-0.87,-0.84,0.16,-1.38,-1.38,-1.38
205.23,-0.62,0.81,-0.61,0.81,-0.82,-0.78,0.19,-1.43,-1.43,-1.43
207.28,-0.70,0.75,-0.70,0.76,-0.77,-0.73,0.23,-1.47,-1.47,-1.45
209.35,-0.78,0.72,-0.78,0.72,-0.73,-0.68,0.26,-1.50,-1.50,-1.50
211.44,-0.86,0.69,-0.86,0.68,-0.68,-0.64,0.29,-1.54,-1.54,-1.55
213.56,-0.94,0.64,-0.94,0.63,-0.64,-0.59,0.33,-1.57,-1.57,-1.57
215.69,-1.02,0.58,-1.02,0.59,-0.59,-0.54,0.36,-1.61,-1.61,-1.59
217.85,-1.10,0.54,-1.09,0.54,-0.54,-0.50,0.39,-1.64,-1.63,-1.63
220.03,-1.16,0.51,-1.16,0.51,-0.50,-0.45,0.41,-1.65,-1.65,-1.67
222.23,-1.23,0.47,-1.23,0.46,-0.45,-0.41,0.44,-1.67,-1.68,-1.70
224.45,-1.32,0.40,-1.32,0.40,-0.39,-0.36,0.47,-1.71,-1.71,-1.71
226.70,-1.41,0.32,-1.40,0.33,-0.34,-0.32,0.49,-1.75,-1.74,-1.73
228.96,-1.49,0.27,-1.47,0.28,-0.29,-0.27,0.51,-1.77,-1.76,-1.76
231.25,-1.54,0.23,-1.54,0.22,-0.23,-0.23,0.53,-1.76,-1.77,-1.76
233.57,-1.60,0.18,-1.61,0.17,-0.17,-0.18,0.55,-1.76,-1.78,-1.78
235.90,-1.69,0.11,-1.67,0.12,-0.11,-0.14,0.56,-1.79,-1.78,-1.79
238.26,-1.75,0.06,-1.75,0.05,-0.05,-0.09,0.58,-1.79,-1.80,-1.80
240.64,-1.82,-0.01,-1.81,-0.01,0.01,-0.04,0.59,-1.80,-1.80,-1.81
243.05,-1.88,-0.07,-1.88,-0.07,0.07,0.01,0.60,-1.81,-1.81,-1.80
245.48,-1.94,-0.13,-1.94,-0.14,0.13,0.06,0.60,-1.81,-1.81,-1.81
247.93,-2.02,-0.21,-2.00,-0.19,0.19,0.11,0.61,-1.83,-1.81,-1.80
250.41,-2.05,-0.24,-2.05,-0.25,0.25,0.16,0.61,-1.80,-1.80,-1.81
252.92,-2.10,-0.30,-2.10,-0.31,0.31,0.21,0.61,-1.79,-1.79,-1.79
255.45,-2.15,-0.37,-2.14,-0.36,0.37,0.27,0.61,-1.78,-1.77,-1.78
258.00,-2.19,-0.42,-2.19,-0.42,0.43,0.32,0.60,-1.76,-1.76,-1.77
260.58,-2.25,-0.48,-2.24,-0.48,0.49,0.38,0.59,-1.76,-1.76,-1.76
263.19,-2.30,-0.55,-2.29,-0.54,0.55,0.44,0.58,-1.75,-1.75,-1.75
265.82,-2.35,-0.60,-2.34,-0.61,0.61,0.50,0.57,-1.74,-1.73,-1.74
268.48,-2.39,-0.67,-2.39,-0.67,0.67,0.56,0.55,-1.72,-1.72,-1.72
271.16,-2.43,-0.73,-2.43,-0.73,0.72,0.62,0.54,-1.71,-1.71,-1.70
273.87,-2.48,-0.78,-2.47,-0.78,0.77,0.68,0.52,-1.70,-1.69,-1.69
276.61,-2.50,-0.83,-2.50,-0.82,0.82,0.74,0.50,-1.68,-1.68,-1.67
279.38,-2.52,-0.86,-2.52,-0.86,0.86,0.81,0.48,-1.65,-1.65,-1.66
282.17,-2.54,-0.89,-2.54,-0.90,0.90,0.87,0.45,-1.63,-1.63,-1.64
284.99,-2.56,-0.93,-2.56,-0.93,0.94,0.92,0.43,-1.62,-1.62,-1.62
287.84,-2.59,-0.97,-2.58,-0.97,0.97,0.98,0.40,-1.62,-1.61,-1.62
290.72,-2.61,-1.01,-2.60,-1.00,1.00,1.04,0.37,-1.61,-1.61,-1.60
293.63,-2.62,-1.03,-2.61,-1.03,1.02,1.08,0.34,-1.59,-1.59,-1.58
296.57,-2.62,-1.05,-2.62,-1.05,1.05,1.13,0.31,-1.57,-1.57,-1.56
299.53,-2.62,-1.06,-2.62,-1.06,1.07,1.17,0.28,-1.55,-1.55,-1.56
302.53,-2.62,-1.07,-2.62,-1.07,1.08,1.21,0.25,-1.53,-1.53,-1.55
305.55,-2.62,-1.09,-2.62,-1.09,1.09,1.23,0.22,-1.52,-1.52,-1.52
308.61,-2.62,-1.10,-2.61,-1.10,1.10,1.25,0.18,-1.52,-1.51,-1.51
311.69,-2.61,-1.10,-2.61,-1.11,1.10,1.27,0.15,-1.50,-1.51,-1.51
314.81,-2.60,-1.12,-2.60,-1.11,1.10,1.27,0.11,-1.49,-1.50,-1.48
317.96,-2.59,-1.11,-2.58,-1.10,1.09,1.26,0.08,-1.49,-1.48,-1.48
321.14,-2.56,-1.08,-2.55,-1.08,1.08,1.25,0.04,-1.47,-1.47,-1.47
324.35,-2.53,-1.05,-2.53,-1.06,1.07,1.23,0.01,-1.46,-1.46,-1.47
327.59,-2.50,-1.04,-2.50,-1.04,1.05,1.20,-0.03,-1.45,-1.46,-1.45
330.87,-2.49,-1.03,-2.48,-1.02,1.02,1.16,-0.06,-1.46,-1.46,-1.46
334.18,-2.46,-1.00,-2.45,-1.00,0.99,1.11,-0.10,-1.46,-1.46,-1.46
337.52,-2.41,-0.96,-2.41,-0.96,0.96,1.06,-0.14,-1.45,-1.45,-1.45
340.90,-2.37,-0.92,-2.37,-0.92,0.92,1.00,-0.18,-1.44,-1.45,-1.44
344.30,-2.33,-0.88,-2.32,-0.88,0.88,0.94,-0.21,-1.45,-1.44,-1.44
347.75,-2.29,-0.84,-2.28,-0.84,0.84,0.87,-0.25,-1.45,-1.45,-1.44
351.23,-2.23,-0.78,-2.23,-0.79,0.79,0.80,-0.29,-1.44,-1.45,-1.44
354.74,-2.19,-0.74,-2.18,-0.73,0.74,0.72,-0.33,-1.45,-1.44,-1.45
358.28,-2.13,-0.67,-2.13,-0.67,0.68,0.64,-0.36,-1.44,-1.45,-1.46
361.87,-2.08,-0.62,-2.08,-0.62,0.63,0.56,-0.40,-1.45,-1.45,-1.46
365.49,-2.03,-0.57,-2.03,-0.56,0.56,0.48,-0.44,-1.46,-1.46,-1.46
369.14,-1.98,-0.50,-1.98,-0.51,0.50,0.40,-0.48,-1.47,-1.48,-1.47
372.83,-1.93,-0.45,-1.91,-0.44,0.43,0.31,-0.52,-1.49,-1.48,-1.47
376.56,-1.85,-0.36,-1.85,-0.37,0.36,0.23,-0.56,-1.48,-1.48,-1.48
380.33,-1.77,-0.28,-1.77,-0.29,0.29,0.15,-0.60,-1.48,-1.49,-1.48
384.13,-1.71,-0.21,-1.70,-0.20,0.21,0.07,-0.64,-1.49,-1.49,-1.49
387.97,-1.63,-0.12,-1.62,-0.12,0.13,-0.02,-0.68,-1.50,-1.50,-1.51
391.85,-1.55,-0.03,-1.55,-0.04,0.04,-0.10,-0.72,-1.51,-1.51,-1.52
395.77,-1.47,0.04,-1.47,0.05,-0.05,-0.18,-0.76,-1.52,-1.52,-1.51
399.73,-1.39,0.13,-1.38,0.14,-0.15,-0.26,-0.80,-1.53,-1.53,-1.52
403.72,-1.30,0.23,-1.29,0.24,-0.24,-0.34,-0.84,-1.54,-1.53,-1.53
407.76,-1.19,0.35,-1.19,0.34,-0.34,-0.42,-0.88,-1.53,-1.53,-1.54
411.84,-1.10,0.43,-1.09,0.44,-0.44,-0.49,-0.91,-1.53,-1.53,-1.53
415.96,-1.00,0.54,-0.99,0.54,-0.54,-0.57,-0.95,-1.54,-1.53,-1.54
420.12,-0.90,0.65,-0.90,0.64,-0.64,-0.65,-0.99,-1.54,-1.54,-1.54
424.32,-0.80,0.75,-0.80,0.75,-0.74,-0.72,-1.03,-1.54,-1.54,-1.54
428.56,-0.71,0.85,-0.70,0.85,-0.84,-0.80,-1.07,-1.55,-1.55,-1.55
432.85,-0.62,0.94,-0.61,0.94,-0.94,-0.88,-1.10,-1.56,-1.55,-1.55
437.18,-0.52,1.04,-0.52,1.03,-1.04,-0.95,-1.14,-1.56,-1.56,-1.55
441.55,-0.43,1.12,-0.42,1.13,-1.14,-1.03,-1.18,-1.56,-1.56,-1.54
445.96,-0.33,1.22,-0.32,1.23,-1.23,-1.10,-1.21,-1.55,-1.55,-1.54
450.42,-0.22,1.34,-0.23,1.32,-1.32,-1.17,-1.24,-1.53,-1.55,-1.55
454.93,-0.15,1.40,-0.14,1.41,-1.40,-1.24,-1.28,-1.55,-1.54,-1.54
459.48,-0.06,1.49,-0.06,1.49,-1.48,-1.31,-1.31,-1.54,-1.54,-1.55
464.07,0.02,1.56,0.01,1.55,-1.55,-1.38,-1.34,-1.53,-1.54,-1.54
468.71,0.07,1.60,0.09,1.61,-1.62,-1.45,-1.36,-1.54,-1.53,-1.53
473.40,0.14,1.67,0.15,1.67,-1.67,-1.51,-1.39,-1.52,-1.52,-1.53
478.13,0.20,1.72,0.20,1.72,-1.72,-1.58,-1.42,-1.51,-1.52,-1.52
482.91,0.24,1.76,0.24,1.76,-1.75,-1.63,-1.44,-1.51,-1.51,-1.52
487.74,0.27,1.78,0.28,1.79,-1.78,-1.69,-1.46,-1.51,-1.51,-1.51
492.62,0.30,1.80,0.30,1.81,-1.81,-1.74,-1.48,-1.50,-1.50,-1.50
497.55,0.32,1.82,0.33,1.82,-1.82,-1.79,-1.50,-1.50,-1.50,-1.50
502.52,0.34,1.83,0.34,1.83,-1.83,-1.83,-1.51,-1.49,-1.49,-1.49
