frequency,raw,error,smoothed,error_smoothed,equalization,parametric_eq,fixed_band_eq,equalized_raw,equalized_smoothed,target
20.00,-0.73,-1.74,-0.73,-1.74,1.73,0.52,-0.33,1.00,1.00,1.01
20.20,-0.63,-1.69,-0.63,-1.69,1.69,0.49,-0.34,1.06,1.06,1.06
20.40,-0.53,-1.64,-0.53,-1.64,1.64,0.46,-0.35,1.11,1.11,1.11
20.61,-0.43,-1.57,-0.43,-1.58,1.59,0.43,-0.36,1.16,1.16,1.14
20.81,-0.33,-1.52,-0.33,-1.52,1.53,0.40,-0.37,1.20,1.20,1.19
21.02,-0.23,-1.46,-0.23,-1.46,1.47,0.37,-0.38,1.24,1.24,1.23
21.23,-0.15,-1.40,-0.15,-1.40,1.41,0.34,-0.39,1.26,1.26,1.25
21.44,-0.06,-1.33,-0.06,-1.33,1.34,0.31,-0.40,1.28,1.27,1.27
21.66,0.02,-1.27,0.02,-1.27,1.26,0.28,-0.41,1.28,1.28,1.29
21.87,0.11,-1.19,0.11,-1.19,1.18,0.25,-0.42,1.30,1.30,1.30
22.09,0.20,-1.12,0.21,-1.11,1.10,0.22,-0.43,1.30,1.30,1.32
22.31,0.31,-1.02,0.31,-1.02,1.01,0.19,-0.45,1.32,1.31,1.33
22.54,0.41,-0.92,0.41,-0.92,0.92,0.16,-0.46,1.32,1.33,1.33
22.76,0.51,-0.82,0.52,-0.81,0.82,0.12,-0.47,1.33,1.34,1.33
22.99,0.62,-0.70,0.61,-0.71,0.73,0.09,-0.48,1.35,1.34,1.32
23.22,0.70,-0.62,0.70,-0.62,0.63,0.06,-0.50,1.33,1.33,1.32
23.45,0.78,-0.54,0.79,-0.53,0.54,0.03,-0.51,1.32,1.33,1.32
23.69,0.87,-0.46,0.87,-0.46,0.46,-0.01,-0.52,1.33,1.33,1.33
23.92,0.95,-0.38,0.95,-0.38,0.38,-0.04,-0.54,1.33,1.33,1.33
24.16,1.03,-0.31,1.03,-0.31,0.30,-0.07,-0.55,1.33,1.33,1.34
24.40,1.11,-0.24,1.11,-0.23,0.23,-0.10,-0.57,1.34,1.33,1.35
24.65,1.18,-0.16,1.18,-0.16,0.15,-0.14,-0.58,1.33,1.34,1.34
24.89,1.26,-0.07,1.26,-0.08,0.08,-0.17,-0.60,1.34,1.34,1.34
25.14,1.33,-0.00,1.33,-0.01,0.00,-0.21,-0.61,1.33,1.34,1.34
25.39,1.41,0.07,1.41,0.07,-0.07,-0.24,-0.63,1.34,1.34,1.34
25.65,1.48,0.14,1.48,0.14,-0.13,-0.27,-0.64,1.34,1.35,1.34
25.91,1.55,0.21,1.55,0.21,-0.20,-0.31,-0.66,1.35,1.35,1.33
26.16,1.61,0.28,1.61,0.28,-0.26,-0.34,-0.67,1.35,1.35,1.33
26.43,1.67,0.34,1.67,0.33,-0.33,-0.38,-0.69,1.34,1.34,1.33
26.69,1.72,0.39,1.72,0.38,-0.39,-0.42,-0.70,1.33,1.33,1.33
26.96,1.77,0.43,1.78,0.44,-0.46,-0.45,-0.72,1.31,1.32,1.34
27.23,1.85,0.51,1.85,0.51,-0.53,-0.49,-0.74,1.32,1.32,1.34
27.50,1.93,0.59,1.93,0.59,-0.60,-0.53,-0.75,1.33,1.33,1.34
27.77,2.01,0.68,2.01,0.68,-0.67,-0.56,-0.77,1.34,1.34,1.33
28.05,2.08,0.75,2.08,0.75,-0.74,-0.60,-0.78,1.34,1.34,1.33
28.33,2.14,0.82,2.14,0.82,-0.81,-0.64,-0.80,1.33,1.33,1.32
28.62,2.20,0.88,2.20,0.88,-0.88,-0.68,-0.81,1.32,1.32,1.32
28.90,2.26,0.93,2.26,0.94,-0.94,-0.72,-0.83,1.32,1.32,1.33
29.19,2.31,0.99,2.31,0.99,-0.99,-0.76,-0.84,1.32,1.32,1.32
29.48,2.36,1.03,2.36,1.03,-1.03,-0.80,-0.85,1.33,1.34,1.33
29.78,2.40,1.08,2.40,1.08,-1.06,-0.84,-0.87,1.34,1.34,1.32
30.08,2.44,1.11,2.43,1.10,-1.09,-0.89,-0.88,1.35,1.34,1.33
30.38,2.45,1.13,2.44,1.12,-1.12,-0.93,-0.89,1.33,1.32,1.32
30.68,2.45,1.13,2.45,1.13,-1.15,-0.97,-0.90,1.30,1.30,1.32
30.99,2.46,1.14,2.47,1.15,-1.18,-1.02,-0.91,1.28,1.29,1.32
31.30,2.51,1.19,2.51,1.19,-1.21,-1.06,-0.93,1.30,1.30,1.32
31.61,2.57,1.25,2.57,1.25,-1.24,-1.10,-0.94,1.33,1.32,1.32
31.93,2.63,1.31,2.62,1.30,-1.28,-1.15,-0.95,1.35,1.34,1.32
32.24,2.65,1.35,2.65,1.34,-1.31,-1.19,-0.96,1.34,1.33,1.30
32.57,2.66,1.35,2.67,1.36,-1.36,-1.23,-0.96,1.30,1.31,1.31
32.89,2.68,1.37,2.69,1.38,-1.40,-1.27,-0.97,1.28,1.28,1.31
33.22,2.72,1.42,2.72,1.42,-1.45,-1.31,-0.98,1.27,1.27,1.30
33.55,2.77,1.47,2.77,1.47,-1.49,-1.35,-0.99,1.28,1.28,1.30
33.89,2.82,1.53,2.82,1.53,-1.53,-1.39,-1.00,1.29,1.29,1.29
34.23,2.87,1.58,2.87,1.58,-1.57,-1.42,-1.01,1.30,1.30,1.29
34.57,2.91,1.63,2.91,1.63,-1.60,-1.45,-1.01,1.31,1.31,1.28
34.92,2.95,1.67,2.94,1.66,-1.63,-1.48,-1.02,1.32,1.31,1.28
35.27,2.95,1.67,2.95,1.67,-1.65,-1.51,-1.03,1.30,1.30,1.28
35.62,2.94,1.66,2.94,1.67,-1.66,-1.53,-1.04,1.28,1.28,1.28
35.97,2.93,1.66,2.93,1.66,-1.67,-1.55,-1.04,1.26,1.26,1.27
36.33,2.93,1.65,2.93,1.65,-1.68,-1.57,-1.05,1.25,1.25,1.28
36.70,2.93,1.66,2.93,1.66,-1.68,-1.59,-1.06,1.25,1.25,1.27
37.06,2.94,1.67,2.95,1.67,-1.69,-1.60,-1.07,1.25,1.26,1.27
37.43,2.98,1.70,2.98,1.70,-1.70,-1.61,-1.08,1.28,1.28,1.29
37.81,3.02,1.74,3.01,1.73,-1.71,-1.62,-1.09,1.31,1.30,1.28
38.19,3.04,1.76,3.03,1.75,-1.72,-1.63,-1.10,1.32,1.31,1.28
38.57,3.03,1.74,3.04,1.75,-1.73,-1.64,-1.11,1.30,1.30,1.29
38.95,3.03,1.74,3.03,1.74,-1.74,-1.65,-1.12,1.29,1.29,1.29
39.34,3.03,1.74,3.03,1.74,-1.74,-1.66,-1.13,1.29,1.28,1.29
39.74,3.03,1.74,3.03,1.74,-1.74,-1.67,-1.14,1.29,1.29,1.29
40.14,3.03,1.73,3.03,1.74,-1.74,-1.68,-1.16,1.29,1.29,1.30
40.54,3.03,1.74,3.03,1.74,-1.74,-1.69,-1.17,1.29,1.29,1.29
40.94,3.03,1.74,3.03,1.74,-1.74,-1.70,-1.19,1.29,1.29,1.29
41.35,3.03,1.75,3.03,1.74,-1.74,-1.71,-1.20,1.29,1.29,1.28
41.76,3.03,1.75,3.03,1.75,-1.74,-1.72,-1.22,1.29,1.29,1.28
42.18,3.03,1.74,3.03,1.75,-1.75,-1.73,-1.24,1.28,1.28,1.29
42.60,3.03,1.76,3.03,1.75,-1.76,-1.74,-1.26,1.27,1.27,1.27
43.03,3.03,1.76,3.03,1.76,-1.77,-1.75,-1.28,1.26,1.26,1.27
43.46,3.03,1.77,3.03,1.77,-1.78,-1.76,-1.30,1.25,1.25,1.26
43.90,3.03,1.79,3.03,1.79,-1.79,-1.78,-1.32,1.24,1.24,1.24
44.33,3.03,1.80,3.03,1.80,-1.80,-1.79,-1.34,1.23,1.23,1.23
44.78,3.03,1.82,3.03,1.82,-1.81,-1.80,-1.36,1.22,1.22,1.21
45.23,3.03,1.82,3.03,1.83,-1.83,-1.82,-1.39,1.20,1.20,1.21
45.68,3.03,1.84,3.03,1.84,-1.84,-1.83,-1.41,1.19,1.19,1.19
46.13,3.03,1.86,3.03,1.85,-1.85,-1.85,-1.44,1.18,1.18,1.17
46.60,3.03,1.85,3.03,1.86,-1.85,-1.86,-1.47,1.18,1.18,1.18
47.06,3.03,1.87,3.03,1.86,-1.86,-1.88,-1.50,1.17,1.17,1.16
47.53,3.03,1.87,3.03,1.87,-1.88,-1.89,-1.53,1.15,1.15,1.16
48.01,3.03,1.87,3.03,1.88,-1.89,-1.91,-1.56,1.14,1.14,1.16
48.49,3.03,1.89,3.03,1.89,-1.90,-1.92,-1.59,1.13,1.13,1.14
48.97,3.03,1.90,3.03,1.90,-1.91,-1.94,-1.62,1.12,1.12,1.13
49.46,3.03,1.92,3.03,1.92,-1.91,-1.95,-1.65,1.12,1.12,1.11
49.96,3.03,1.94,3.04,1.94,-1.90,-1.97,-1.69,1.13,1.13,1.09
50.46,3.03,1.94,3.03,1.94,-1.90,-1.98,-1.72,1.13,1.13,1.09
50.96,3.03,1.94,3.00,1.91,-1.90,-2.00,-1.76,1.13,1.10,1.09
51.47,2.95,1.88,2.95,1.87,-1.90,-2.02,-1.79,1.05,1.05,1.07
51.99,2.86,1.80,2.90,1.84,-1.89,-2.03,-1.83,0.97,1.01,1.06
52.51,2.90,1.84,2.89,1.83,-1.89,-2.05,-1.86,1.01,1.01,1.06
53.03,2.93,1.87,2.94,1.88,-1.88,-2.07,-1.90,1.05,1.06,1.06
53.56,2.98,1.93,2.97,1.92,-1.86,-2.08,-1.93,1.12,1.11,1.05
54.10,2.99,1.95,2.95,1.91,-1.86,-2.10,-1.97,1.13,1.10,1.04
54.64,2.90,1.87,2.91,1.88,-1.85,-2.11,-2.00,1.05,1.06,1.03
55.18,2.84,1.81,2.87,1.84,-1.85,-2.13,-2.03,0.99,1.01,1.03
55.74,2.84,1.82,2.83,1.81,-1.85,-2.15,-2.07,0.99,0.98,1.02
56.29,2.84,1.82,2.83,1.82,-1.85,-2.16,-2.10,0.99,0.99,1.02
56.86,2.84,1.83,2.84,1.84,-1.84,-2.18,-2.13,1.00,1.00,1.01
57.42,2.84,1.85,2.84,1.84,-1.84,-2.20,-2.16,1.00,1.00,0.99
58.00,2.84,1.86,2.84,1.85,-1.84,-2.21,-2.19,1.00,1.00,0.98
58.58,2.84,1.86,2.84,1.87,-1.84,-2.23,-2.22,1.00,1.00,0.98
59.16,2.84,1.87,2.85,1.88,-1.85,-2.24,-2.24,0.99,1.00,0.97
59.76,2.84,1.88,2.82,1.87,-1.85,-2.26,-2.27,0.99,0.97,0.96
60.35,2.79,1.87,2.78,1.85,-1.86,-2.28,-2.29,0.93,0.92,0.92
60.96,2.71,1.81,2.74,1.84,-1.87,-2.29,-2.31,0.84,0.87,0.90
61.57,2.71,1.85,2.71,1.85,-1.89,-2.31,-2.33,0.82,0.83,0.86
62.18,2.72,1.89,2.72,1.89,-1.91,-2.33,-2.35,0.81,0.81,0.83
62.80,2.74,1.95,2.73,1.94,-1.94,-2.34,-2.36,0.80,0.80,0.79
63.43,2.74,1.99,2.74,1.99,-1.97,-2.36,-2.37,0.77,0.77,0.75
64.07,2.74,2.02,2.74,2.02,-2.01,-2.37,-2.38,0.73,0.73,0.72
64.71,2.74,2.06,2.74,2.06,-2.05,-2.39,-2.39,0.69,0.69,0.68
65.35,2.74,2.09,2.74,2.09,-2.09,-2.41,-2.40,0.65,0.65,0.65
66.01,2.74,2.13,2.74,2.13,-2.13,-2.42,-2.41,0.61,0.61,0.61
66.67,2.74,2.17,2.74,2.16,-2.17,-2.44,-2.41,0.57,0.57,0.57
67.33,2.74,2.21,2.74,2.20,-2.20,-2.46,-2.41,0.54,0.54,0.53
68.01,2.74,2.24,2.74,2.24,-2.24,-2.47,-2.41,0.50,0.50,0.50
68.69,2.74,2.28,2.74,2.28,-2.28,-2.49,-2.41,0.46,0.46,0.46
69.37,2.74,2.32,2.74,2.32,-2.32,-2.51,-2.41,0.42,0.42,0.42
70.07,2.74,2.36,2.74,2.36,-2.36,-2.52,-2.41,0.38,0.38,0.38
70.77,2.74,2.39,2.74,2.40,-2.40,-2.54,-2.41,0.34,0.34,0.35
71.48,2.74,2.44,2.74,2.44,-2.44,-2.55,-2.41,0.30,0.30,0.30
72.19,2.74,2.49,2.74,2.48,-2.49,-2.57,-2.41,0.25,0.25,0.25
72.91,2.74,2.53,2.74,2.53,-2.54,-2.59,-2.40,0.20,0.20,0.21
73.64,2.74,2.58,2.74,2.58,-2.59,-2.60,-2.40,0.15,0.15,0.16
74.38,2.74,2.62,2.74,2.62,-2.64,-2.62,-2.40,0.10,0.10,0.12
75.12,2.74,2.67,2.75,2.68,-2.68,-2.64,-2.40,0.06,0.06,0.07
75.87,2.74,2.72,2.76,2.74,-2.72,-2.66,-2.40,0.02,0.05,0.02
76.63,2.79,2.80,2.76,2.78,-2.75,-2.67,-2.40,0.04,0.02,-0.01
77.40,2.76,2.81,2.74,2.79,-2.76,-2.69,-2.40,-0.00,-0.03,-0.05
78.17,2.67,2.77,2.70,2.79,-2.77,-2.71,-2.40,-0.10,-0.07,-0.10
78.95,2.64,2.76,2.65,2.78,-2.77,-2.72,-2.41,-0.13,-0.12,-0.12
79.74,2.64,2.80,2.61,2.76,-2.78,-2.74,-2.41,-0.14,-0.17,-0.16
80.54,2.57,2.76,2.56,2.75,-2.78,-2.76,-2.42,-0.21,-0.21,-0.19
81.35,2.50,2.73,2.53,2.75,-2.78,-2.77,-2.43,-0.28,-0.25,-0.23
82.16,2.50,2.76,2.51,2.77,-2.80,-2.79,-2.44,-0.30,-0.29,-0.26
82.98,2.55,2.83,2.53,2.82,-2.83,-2.81,-2.45,-0.28,-0.30,-0.28
83.81,2.55,2.87,2.55,2.87,-2.86,-2.82,-2.47,-0.31,-0.32,-0.32
84.65,2.55,2.91,2.55,2.90,-2.90,-2.84,-2.48,-0.35,-0.35,-0.36
85.50,2.55,2.93,2.55,2.94,-2.94,-2.86,-2.50,-0.39,-0.38,-0.38
86.35,2.56,2.97,2.58,3.00,-2.97,-2.88,-2.52,-0.41,-0.39,-0.41
87.22,2.59,3.04,2.58,3.03,-3.00,-2.89,-2.54,-0.41,-0.42,-0.45
88.09,2.62,3.10,2.56,3.05,-3.03,-2.91,-2.57,-0.41,-0.47,-0.48
88.97,2.48,3.00,2.52,3.04,-3.05,-2.93,-2.59,-0.57,-0.53,-0.52
89.86,2.46,3.01,2.48,3.03,-3.06,-2.94,-2.62,-0.60,-0.58,-0.55
90.76,2.46,3.05,2.45,3.04,-3.06,-2.96,-2.65,-0.60,-0.61,-0.59
91.66,2.46,3.08,2.46,3.09,-3.07,-2.97,-2.68,-0.61,-0.60,-0.62
92.58,2.46,3.12,2.45,3.10,-3.07,-2.99,-2.72,-0.61,-0.63,-0.66
93.51,2.42,3.11,2.40,3.09,-3.09,-3.01,-2.75,-0.67,-0.69,-0.69
94.44,2.34,3.06,2.36,3.08,-3.11,-3.02,-2.79,-0.77,-0.75,-0.72
95.39,2.30,3.05,2.33,3.08,-3.13,-3.04,-2.83,-0.83,-0.80,-0.75
96.34,2.34,3.12,2.33,3.11,-3.14,-3.05,-2.87,-0.80,-0.81,-0.78
97.30,2.36,3.17,2.36,3.18,-3.15,-3.07,-2.91,-0.79,-0.79,-0.81
98.28,2.38,3.22,2.38,3.22,-3.16,-3.08,-2.95,-0.78,-0.78,-0.84
99.26,2.38,3.25,2.34,3.21,-3.17,-3.10,-3.00,-0.79,-0.83,-0.87
100.25,2.27,3.17,2.28,3.18,-3.18,-3.11,-3.05,-0.91,-0.90,-0.90
101.25,2.19,3.12,2.22,3.15,-3.18,-3.13,-3.09,-0.99,-0.96,-0.93
102.27,2.18,3.14,2.18,3.14,-3.17,-3.14,-3.14,-0.99,-1.00,-0.96
103.29,2.17,3.17,2.17,3.16,-3.16,-3.16,-3.19,-0.99,-0.99,-1.00
104.32,2.15,3.17,2.14,3.16,-3.14,-3.17,-3.24,-0.99,-1.00,-1.02
105.37,2.10,3.15,2.08,3.13,-3.12,-3.18,-3.29,-1.02,-1.04,-1.05
106.42,1.99,3.07,2.03,3.11,-3.11,-3.19,-3.33,-1.12,-1.08,-1.08
107.48,1.97,3.09,1.98,3.09,-3.10,-3.21,-3.38,-1.13,-1.12,-1.12
108.56,1.97,3.12,1.93,3.08,-3.08,-3.22,-3.43,-1.11,-1.16,-1.15
109.64,1.87,3.05,1.88,3.07,-3.07,-3.23,-3.48,-1.20,-1.19,-1.18
110.74,1.82,3.04,1.84,3.06,-3.06,-3.24,-3.52,-1.24,-1.22,-1.22
111.85,1.80,3.04,1.81,3.06,-3.06,-3.25,-3.56,-1.26,-1.25,-1.24
112.97,1.80,3.09,1.77,3.06,-3.06,-3.26,-3.60,-1.26,-1.29,-1.29
114.10,1.76,3.08,1.73,3.05,-3.07,-3.27,-3.64,-1.31,-1.34,-1.32
115.24,1.64,2.99,1.71,3.06,-3.08,-3.27,-3.67,-1.44,-1.37,-1.35
116.39,1.71,3.10,1.71,3.09,-3.09,-3.28,-3.71,-1.38,-1.38,-1.39
117.55,1.76,3.16,1.71,3.11,-3.09,-3.29,-3.73,-1.33,-1.38,-1.40
118.73,1.71,3.14,1.70,3.13,-3.09,-3.30,-3.76,-1.38,-1.38,-1.43
119.92,1.62,3.06,1.66,3.11,-3.07,-3.30,-3.78,-1.45,-1.41,-1.44
121.12,1.62,3.08,1.62,3.08,-3.07,-3.31,-3.79,-1.45,-1.45,-1.46
122.33,1.61,3.09,1.57,3.05,-3.07,-3.31,-3.80,-1.46,-1.49,-1.48
123.55,1.54,3.03,1.54,3.03,-3.07,-3.32,-3.81,-1.53,-1.53,-1.49
124.79,1.47,2.97,1.51,3.01,-3.08,-3.32,-3.81,-1.61,-1.56,-1.50
126.03,1.53,3.05,1.51,3.02,-3.08,-3.32,-3.81,-1.55,-1.57,-1.52
127.29,1.55,3.07,1.55,3.08,-3.08,-3.32,-3.80,-1.53,-1.53,-1.52
128.57,1.59,3.14,1.61,3.15,-3.08,-3.32,-3.79,-1.49,-1.47,-1.55
129.85,1.64,3.20,1.61,3.17,-3.07,-3.33,-3.77,-1.43,-1.46,-1.56
131.15,1.59,3.16,1.57,3.14,-3.07,-3.33,-3.75,-1.48,-1.50,-1.57
132.46,1.48,3.06,1.47,3.06,-3.06,-3.32,-3.72,-1.58,-1.59,-1.58
133.79,1.35,2.95,1.39,2.99,-3.06,-3.32,-3.69,-1.71,-1.68,-1.60
135.12,1.33,2.95,1.35,2.96,-3.06,-3.32,-3.66,-1.73,-1.71,-1.62
136.48,1.38,3.00,1.35,2.98,-3.05,-3.32,-3.62,-1.67,-1.69,-1.62
137.84,1.40,3.04,1.39,3.03,-3.03,-3.31,-3.58,-1.63,-1.65,-1.64
139.22,1.40,3.06,1.44,3.09,-3.02,-3.31,-3.54,-1.62,-1.58,-1.66
140.61,1.44,3.12,1.45,3.12,-3.01,-3.30,-3.49,-1.57,-1.56,-1.68
142.02,1.48,3.16,1.39,3.07,-3.00,-3.29,-3.44,-1.52,-1.61,-1.68
143.44,1.29,2.98,1.31,3.01,-3.01,-3.29,-3.39,-1.72,-1.70,-1.69
144.87,1.15,2.87,1.22,2.94,-3.01,-3.28,-3.34,-1.86,-1.79,-1.72
146.32,1.18,2.93,1.17,2.91,-3.02,-3.27,-3.29,-1.84,-1.85,-1.75
147.78,1.21,2.97,1.18,2.95,-3.02,-3.26,-3.24,-1.81,-1.84,-1.76
149.26,1.21,3.01,1.21,3.02,-3.03,-3.25,-3.19,-1.82,-1.82,-1.80
150.75,1.21,3.07,1.25,3.10,-3.04,-3.24,-3.13,-1.83,-1.79,-1.86
152.26,1.26,3.17,1.25,3.16,-3.07,-3.23,-3.08,-1.81,-1.82,-1.91
153.78,1.27,3.23,1.19,3.16,-3.10,-3.21,-3.03,-1.83,-1.91,-1.96
155.32,1.07,3.10,1.10,3.13,-3.12,-3.20,-2.98,-2.05,-2.02,-2.03
156.88,0.94,3.03,1.00,3.09,-3.14,-3.19,-2.92,-2.19,-2.13,-2.09
158.44,0.95,3.11,0.93,3.09,-3.15,-3.17,-2.87,-2.20,-2.22,-2.16
160.03,0.93,3.16,0.90,3.13,-3.16,-3.16,-2.83,-2.23,-2.26,-2.23
161.63,0.86,3.15,0.88,3.17,-3.17,-3.14,-2.78,-2.31,-2.30,-2.29
163.24,0.84,3.18,0.84,3.19,-3.20,-3.12,-2.73,-2.36,-2.35,-2.34
164.88,0.82,3.20,0.82,3.20,-3.21,-3.10,-2.69,-2.39,-2.40,-2.38
166.53,0.82,3.24,0.83,3.25,-3.23,-3.09,-2.64,-2.41,-2.40,-2.42
168.19,0.81,3.26,0.83,3.28,-3.23,-3.07,-2.60,-2.42,-2.40,-2.45
169.87,0.84,3.32,0.80,3.28,-3.22,-3.05,-2.56,-2.38,-2.42,-2.48
171.57,0.75,3.24,0.74,3.22,-3.20,-3.02,-2.53,-2.45,-2.47,-2.49
173.29,0.64,3.13,0.66,3.16,-3.18,-3.00,-2.49,-2.54,-2.52,-2.49
175.02,0.58,3.07,0.60,3.10,-3.15,-2.98,-2.46,-2.57,-2.55,-2.49
176.77,0.59,3.09,0.58,3.07,-3.11,-2.96,-2.42,-2.52,-2.53,-2.50
178.54,0.59,3.08,0.58,3.07,-3.07,-2.93,-2.40,-2.48,-2.49,-2.49
180.32,0.59,3.07,0.61,3.09,-3.05,-2.91,-2.37,-2.46,-2.44,-2.48
182.13,0.60,3.06,0.59,3.06,-3.04,-2.88,-2.34,-2.44,-2.45,-2.46
183.95,0.61,3.08,0.54,3.00,-3.04,-2.86,-2.32,-2.43,-2.49,-2.47
185.79,0.45,2.91,0.52,2.98,-3.03,-2.83,-2.29,-2.58,-2.51,-2.46
187.65,0.47,2.94,0.53,3.00,-3.02,-2.81,-2.27,-2.55,-2.50,-2.47
189.52,0.61,3.09,0.56,3.03,-3.01,-2.78,-2.25,-2.40,-2.45,-2.48
191.42,0.61,3.10,0.58,3.07,-3.00,-2.75,-2.24,-2.39,-2.42,-2.49
193.33,0.53,3.03,0.52,3.02,-2.98,-2.72,-2.22,-2.45,-2.46,-2.50
195.27,0.40,2.91,0.43,2.94,-2.97,-2.69,-2.21,-2.57,-2.54,-2.51
197.22,0.34,2.86,0.37,2.90,-2.94,-2.66,-2.19,-2.60,-2.57,-2.52
199.19,0.36,2.91,0.35,2.89,-2.91,-2.63,-2.18,-2.55,-2.57,-2.55
201.18,0.35,2.91,0.33,2.89,-2.88,-2.60,-2.17,-2.53,-2.54,-2.56
203.19,0.29,2.86,0.28,2.85,-2.83,-2.57,-2.16,-2.54,-2.55,-2.57
205.23,0.20,2.79,0.19,2.77,-2.78,-2.53,-2.15,-2.58,-2.59,-2.59
207.28,0.08,2.67,0.12,2.71,-2.72,-2.50,-2.14,-2.64,-2.60,-2.59
209.35,0.04,2.64,0.07,2.68,-2.65,-2.47,-2.14,-2.61,-2.58,-2.60
211.44,0.05,2.68,0.01,2.64,-2.58,-2.43,-2.13,-2.53,-2.57,-2.63
213.56,-0.05,2.58,-0.11,2.53,-2.50,-2.40,-2.12,-2.55,-2.61,-2.63
215.69,-0.27,2.37,-0.26,2.38,-2.42,-2.36,-2.12,-2.69,-2.68,-2.64
217.85,-0.48,2.17,-0.40,2.25,-2.32,-2.33,-2.11,-2.80,-2.72,-2.65
220.03,-0.46,2.20,-0.45,2.21,-2.23,-2.29,-2.11,-2.69,-2.68,-2.66
222.23,-0.43,2.24,-0.48,2.19,-2.13,-2.25,-2.10,-2.56,-2.61,-2.67
224.45,-0.49,2.17,-0.55,2.11,-2.04,-2.22,-2.09,-2.53,-2.59,-2.66
226.70,-0.71,1.95,-0.69,1.97,-1.97,-2.18,-2.08,-2.68,-2.66,-2.66
228.96,-0.87,1.77,-0.80,1.85,-1.91,-2.14,-2.07,-2.78,-2.71,-2.64
231.25,-0.85,1.78,-0.84,1.80,-1.87,-2.10,-2.06,-2.72,-2.70,-2.63
233.57,-0.76,1.86,-0.83,1.79,-1.82,-2.06,-2.05,-2.58,-2.65,-2.62
235.90,-0.80,1.80,-0.80,1.80,-1.78,-2.02,-2.04,-2.58,-2.58,-2.60
238.26,-0.86,1.73,-0.79,1.80,-1.74,-1.98,-2.02,-2.60,-2.53,-2.59
240.64,-0.77,1.79,-0.80,1.76,-1.72,-1.94,-2.01,-2.49,-2.52,-2.56
243.05,-0.77,1.76,-0.82,1.71,-1.71,-1.90,-1.99,-2.48,-2.53,-2.53
245.48,-0.88,1.62,-0.85,1.66,-1.68,-1.85,-1.97,-2.56,-2.53,-2.50
247.93,-0.90,1.57,-0.85,1.62,-1.65,-1.81,-1.95,-2.55,-2.50,-2.47
250.41,-0.83,1.62,-0.84,1.61,-1.61,-1.77,-1.92,-2.44,-2.44,-2.45
252.92,-0.75,1.67,-0.82,1.60,-1.56,-1.72,-1.89,-2.31,-2.38,-2.42
255.45,-0.86,1.53,-0.84,1.56,-1.52,-1.68,-1.86,-2.38,-2.36,-2.39
258.00,-0.92,1.45,-0.89,1.48,-1.49,-1.63,-1.83,-2.41,-2.38,-2.37
260.58,-0.93,1.42,-0.93,1.41,-1.45,-1.59,-1.80,-2.38,-2.39,-2.35
263.19,-0.93,1.39,-0.94,1.39,-1.42,-1.54,-1.76,-2.35,-2.35,-2.32
265.82,-0.93,1.37,-0.93,1.36,-1.37,-1.49,-1.73,-2.30,-2.31,-2.30
268.48,-0.94,1.33,-0.93,1.34,-1.33,-1.45,-1.69,-2.27,-2.26,-2.27
271.16,-0.94,1.30,-0.94,1.31,-1.28,-1.40,-1.64,-2.22,-2.22,-2.24
273.87,-0.94,1.28,-0.95,1.26,-1.23,-1.35,-1.60,-2.17,-2.18,-2.22
276.61,-0.98,1.20,-0.99,1.20,-1.18,-1.30,-1.56,-2.16,-2.16,-2.18
279.38,-1.03,1.13,-1.04,1.12,-1.12,-1.25,-1.51,-2.15,-2.16,-2.16
282.17,-1.11,1.02,-1.09,1.03,-1.05,-1.20,-1.46,-2.16,-2.14,-2.13
284.99,-1.13,0.96,-1.10,0.99,-0.99,-1.15,-1.41,-2.12,-2.09,-2.09
287.84,-1.12,0.96,-1.14,0.93,-0.94,-1.10,-1.36,-2.06,-2.07,-2.07
290.72,-1.11,0.93,-1.19,0.85,-0.89,-1.05,-1.31,-2.00,-2.08,-2.04
293.63,-1.28,0.73,-1.21,0.80,-0.85,-1.00,-1.26,-2.13,-2.06,-2.01
296.57,-1.27,0.70,-1.19,0.78,-0.80,-0.95,-1.21,-2.07,-1.99,-1.97
299.53,-1.10,0.85,-1.18,0.77,-0.75,-0.89,-1.15,-1.85,-1.93,-1.95
302.53,-1.09,0.84,-1.14,0.78,-0.70,-0.84,-1.10,-1.79,-1.84,-1.93
305.55,-1.22,0.66,-1.16,0.73,-0.65,-0.79,-1.04,-1.87,-1.81,-1.88
308.61,-1.23,0.63,-1.25,0.61,-0.61,-0.73,-0.99,-1.84,-1.86,-1.86
311.69,-1.31,0.52,-1.33,0.50,-0.57,-0.68,-0.93,-1.88,-1.90,-1.83
314.81,-1.40,0.41,-1.35,0.46,-0.53,-0.63,-0.88,-1.93,-1.88,-1.81
317.96,-1.36,0.43,-1.36,0.43,-0.48,-0.57,-0.82,-1.84,-1.83,-1.79
321.14,-1.32,0.46,-1.35,0.43,-0.42,-0.52,-0.77,-1.74,-1.77,-1.78
324.35,-1.32,0.44,-1.34,0.42,-0.36,-0.47,-0.71,-1.68,-1.70,-1.76
327.59,-1.40,0.34,-1.38,0.37,-0.31,-0.41,-0.66,-1.71,-1.69,-1.74
330.87,-1.42,0.31,-1.42,0.31,-0.27,-0.36,-0.60,-1.69,-1.69,-1.73
334.18,-1.48,0.24,-1.48,0.24,-0.24,-0.30,-0.55,-1.72,-1.72,-1.72
337.52,-1.52,0.19,-1.57,0.13,-0.19,-0.25,-0.49,-1.71,-1.76,-1.71
340.90,-1.66,0.03,-1.64,0.05,-0.13,-0.20,-0.44,-1.79,-1.78,-1.69
344.30,-1.73,-0.05,-1.63,0.05,-0.07,-0.14,-0.38,-1.80,-1.70,-1.68
347.75,-1.59,0.09,-1.61,0.07,-0.01,-0.09,-0.33,-1.60,-1.62,-1.68
351.23,-1.49,0.18,-1.63,0.05,0.03,-0.04,-0.27,-1.46,-1.60,-1.67
354.74,-1.72,-0.05,-1.70,-0.03,0.06,0.02,-0.22,-1.66,-1.64,-1.67
358.28,-1.91,-0.24,-1.81,-0.14,0.08,0.07,-0.16,-1.82,-1.72,-1.67
361.87,-1.86,-0.19,-1.87,-0.20,0.11,0.12,-0.11,-1.75,-1.76,-1.67
365.49,-1.80,-0.14,-1.83,-0.17,0.13,0.17,-0.05,-1.67,-1.70,-1.66
369.14,-1.78,-0.11,-1.78,-0.12,0.15,0.21,0.00,-1.63,-1.63,-1.67
372.83,-1.78,-0.11,-1.79,-0.12,0.18,0.26,0.06,-1.60,-1.61,-1.67
376.56,-1.83,-0.16,-1.83,-0.16,0.20,0.31,0.11,-1.63,-1.62,-1.67
380.33,-1.87,-0.21,-1.87,-0.21,0.22,0.35,0.16,-1.65,-1.65,-1.66
384.13,-1.93,-0.27,-1.91,-0.24,0.24,0.40,0.22,-1.69,-1.67,-1.66
387.97,-1.94,-0.27,-1.93,-0.26,0.25,0.44,0.27,-1.69,-1.68,-1.67
391.85,-1.94,-0.26,-1.99,-0.31,0.28,0.48,0.32,-1.66,-1.71,-1.68
395.77,-2.03,-0.36,-2.05,-0.37,0.32,0.52,0.37,-1.71,-1.73,-1.67
399.73,-2.15,-0.46,-2.06,-0.38,0.36,0.55,0.43,-1.79,-1.70,-1.69
403.72,-2.07,-0.38,-2.03,-0.34,0.39,0.59,0.48,-1.68,-1.64,-1.69
407.76,-1.92,-0.22,-2.03,-0.33,0.41,0.62,0.53,-1.51,-1.62,-1.70
411.84,-2.02,-0.32,-2.09,-0.40,0.43,0.65,0.58,-1.59,-1.66,-1.70
415.96,-2.31,-0.61,-2.22,-0.52,0.45,0.68,0.63,-1.86,-1.76,-1.70
420.12,-2.35,-0.65,-2.30,-0.60,0.48,0.71,0.67,-1.87,-1.81,-1.70
424.32,-2.25,-0.55,-2.24,-0.54,0.52,0.74,0.72,-1.73,-1.72,-1.70
428.56,-2.12,-0.43,-2.16,-0.47,0.56,0.76,0.77,-1.56,-1.60,-1.69
432.85,-2.08,-0.40,-2.19,-0.51,0.60,0.78,0.81,-1.48,-1.59,-1.68
437.18,-2.33,-0.66,-2.28,-0.62,0.63,0.80,0.86,-1.70,-1.65,-1.67
441.55,-2.45,-0.82,-2.36,-0.72,0.65,0.81,0.90,-1.80,-1.70,-1.63
445.96,-2.34,-0.74,-2.36,-0.75,0.68,0.83,0.94,-1.66,-1.68,-1.60
450.42,-2.24,-0.67,-2.28,-0.71,0.71,0.84,0.97,-1.53,-1.56,-1.57
454.93,-2.20,-0.68,-2.21,-0.68,0.75,0.85,1.01,-1.45,-1.46,-1.52
459.48,-2.20,-0.73,-2.19,-0.72,0.76,0.86,1.04,-1.44,-1.43,-1.47
464.07,-2.19,-0.77,-2.20,-0.78,0.75,0.86,1.07,-1.44,-1.45,-1.42
468.71,-2.18,-0.82,-2.18,-0.81,0.73,0.87,1.10,-1.45,-1.45,-1.36
473.40,-2.13,-0.81,-2.10,-0.78,0.71,0.87,1.12,-1.42,-1.38,-1.32
478.13,-1.99,-0.73,-1.97,-0.70,0.71,0.87,1.15,-1.28,-1.26,-1.26
482.91,-1.80,-0.57,-1.85,-0.63,0.71,0.87,1.16,-1.09,-1.14,-1.23
