frequency,raw,error,smoothed,error_smoothed,equalization,parametric_eq,equalized_raw,equalized_smoothed,target
20,-9.68,-10.20,-9.77,-10.29,6.00,3.60,-3.68,-3.77,0.52
21,-9.22,-9.74,-9.10,-9.62,6.00,4.43,-3.22,-3.10,0.52
22,-8.52,-9.05,-8.46,-8.99,6.00,5.29,-2.52,-2.46,0.52
23,-7.81,-8.33,-7.85,-8.38,6.00,6.08,-1.81,-1.85,0.53
24,-7.17,-7.70,-7.26,-7.79,6.00,6.60,-1.17,-1.26,0.53
25,-6.75,-7.28,-6.71,-7.24,6.00,6.73,-0.75,-0.71,0.53
26,-6.17,-6.70,-6.17,-6.71,5.91,6.51,-0.26,-0.27,0.53
27,-5.64,-6.17,-5.67,-6.20,5.72,6.07,0.09,0.05,0.53
28,-5.13,-5.67,-5.19,-5.72,5.46,5.57,0.32,0.27,0.53
29,-4.89,-5.42,-4.73,-5.26,5.13,5.08,0.24,0.41,0.53
30,-4.23,-4.76,-4.28,-4.82,4.78,4.62,0.55,0.49,0.53
31,-3.82,-4.35,-3.86,-4.39,4.39,4.20,0.57,0.53,0.53
32,-3.52,-4.05,-3.45,-3.99,3.99,3.81,0.46,0.53,0.53
33,-3.09,-3.62,-3.07,-3.60,3.60,3.43,0.51,0.53,0.53
34,-2.61,-3.14,-2.70,-3.23,3.23,3.08,0.62,0.53,0.53
35,-2.45,-2.97,-2.36,-2.88,2.88,2.74,0.43,0.52,0.52
36,-1.94,-2.46,-2.03,-2.55,2.55,2.42,0.62,0.52,0.52
37,-1.70,-2.22,-1.73,-2.25,2.25,2.13,0.55,0.51,0.51
38,-1.42,-1.93,-1.45,-1.96,1.96,1.85,0.53,0.51,0.51
39,-1.24,-1.75,-1.19,-1.69,1.69,1.60,0.44,0.50,0.50
40,-0.99,-1.48,-0.94,-1.44,1.44,1.37,0.45,0.49,0.49
41,-0.79,-1.27,-0.71,-1.20,1.20,1.16,0.41,0.48,0.48
42,-0.39,-0.86,-0.50,-0.97,0.97,0.97,0.59,0.47,0.47
43,-0.33,-0.80,-0.30,-0.76,0.76,0.79,0.43,0.46,0.46
44,-0.10,-0.55,-0.12,-0.57,0.57,0.62,0.46,0.45,0.45
45,0.12,-0.31,0.05,-0.38,0.38,0.47,0.51,0.44,0.44
46,0.19,-0.23,0.21,-0.21,0.21,0.33,0.40,0.42,0.42
47,0.35,-0.05,0.35,-0.05,0.05,0.19,0.41,0.40,0.40
48,0.40,0.01,0.48,0.10,-0.10,0.06,0.30,0.39,0.39
49,0.58,0.21,0.61,0.24,-0.24,-0.06,0.34,0.37,0.37
50,0.81,0.46,0.72,0.38,-0.38,-0.17,0.43,0.35,0.35
51,0.81,0.48,0.83,0.51,-0.51,-0.28,0.30,0.33,0.33
52,0.91,0.60,0.94,0.63,-0.63,-0.39,0.28,0.30,0.30
53,1.03,0.75,1.03,0.75,-0.75,-0.49,0.29,0.28,0.28
54,1.03,0.78,1.10,0.85,-0.85,-0.58,0.19,0.26,0.26
55,1.26,1.03,1.17,0.94,-0.94,-0.68,0.33,0.23,0.23
56,1.26,1.06,1.22,1.01,-1.01,-0.77,0.25,0.21,0.21
57,1.26,1.08,1.25,1.07,-1.07,-0.85,0.19,0.18,0.18
58,1.26,1.11,1.27,1.12,-1.12,-0.93,0.15,0.15,0.15
59,1.26,1.14,1.28,1.15,-1.15,-1.01,0.11,0.12,0.12
60,1.26,1.17,1.28,1.18,-1.18,-1.09,0.08,0.10,0.10
61,1.26,1.19,1.28,1.21,-1.21,-1.16,0.05,0.07,0.07
62,1.26,1.22,1.27,1.23,-1.23,-1.23,0.03,0.04,0.04
63,1.26,1.25,1.27,1.26,-1.26,-1.30,0.01,0.01,0.01
64,1.26,1.28,1.26,1.28,-1.28,-1.36,-0.02,-0.02,-0.02
65,1.26,1.31,1.26,1.31,-1.31,-1.42,-0.05,-0.05,-0.05
66,1.26,1.34,1.26,1.34,-1.34,-1.47,-0.08,-0.08,-0.08
67,1.26,1.37,1.26,1.37,-1.37,-1.52,-0.10,-0.11,-0.11
68,1.26,1.40,1.26,1.40,-1.40,-1.57,-0.14,-0.14,-0.14
69,1.26,1.43,1.26,1.43,-1.43,-1.61,-0.17,-0.17,-0.17
70,1.26,1.46,1.27,1.46,-1.46,-1.65,-0.20,-0.20,-0.20
71,1.26,1.49,1.27,1.49,-1.49,-1.68,-0.23,-0.23,-0.23
72,1.26,1.52,1.27,1.53,-1.53,-1.71,-0.26,-0.26,-0.26
73,1.26,1.55,1.27,1.56,-1.56,-1.74,-0.30,-0.28,-0.29
74,1.26,1.58,1.27,1.59,-1.59,-1.76,-0.32,-0.31,-0.31
75,1.26,1.61,1.27,1.61,-1.61,-1.78,-0.35,-0.34,-0.34
76,1.26,1.64,1.25,1.62,-1.62,-1.79,-0.36,-0.37,-0.37
77,1.26,1.67,1.23,1.63,-1.63,-1.80,-0.37,-0.40,-0.40
78,1.26,1.69,1.20,1.63,-1.63,-1.81,-0.37,-0.43,-0.43
79,1.26,1.72,1.17,1.63,-1.63,-1.81,-0.37,-0.46,-0.46
80,1.03,1.52,1.14,1.63,-1.63,-1.81,-0.59,-0.49,-0.49
81,1.03,1.55,1.11,1.62,-1.62,-1.81,-0.59,-0.52,-0.52
82,1.03,1.58,1.08,1.63,-1.63,-1.80,-0.59,-0.55,-0.55
83,1.03,1.61,1.05,1.63,-1.63,-1.79,-0.60,-0.58,-0.58
84,1.03,1.64,1.03,1.64,-1.64,-1.78,-0.60,-0.60,-0.60
85,1.03,1.67,1.01,1.65,-1.65,-1.77,-0.61,-0.63,-0.63
86,1.03,1.69,0.99,1.65,-1.65,-1.75,-0.62,-0.66,-0.66
87,1.03,1.72,0.97,1.65,-1.65,-1.73,-0.62,-0.69,-0.69
88,0.99,1.70,0.93,1.65,-1.65,-1.71,-0.66,-0.71,-0.71
89,0.81,1.55,0.90,1.64,-1.64,-1.69,-0.83,-0.74,-0.74
90,0.81,1.57,0.86,1.62,-1.62,-1.67,-0.82,-0.77,-0.77
91,0.81,1.60,0.81,1.60,-1.60,-1.64,-0.80,-0.79,-0.79
92,0.81,1.62,0.77,1.58,-1.58,-1.61,-0.78,-0.82,-0.82
93,0.81,1.65,0.72,1.56,-1.56,-1.59,-0.76,-0.84,-0.84
94,0.62,1.48,0.68,1.54,-1.54,-1.56,-0.93,-0.86,-0.86
95,0.58,1.46,0.64,1.53,-1.53,-1.53,-0.95,-0.88,-0.89
96,0.58,1.49,0.60,1.51,-1.51,-1.50,-0.93,-0.91,-0.91
97,0.58,1.51,0.56,1.49,-1.49,-1.47,-0.91,-0.93,-0.93
98,0.58,1.53,0.52,1.47,-1.47,-1.44,-0.89,-0.95,-0.95
99,0.58,1.55,0.48,1.45,-1.45,-1.41,-0.87,-0.97,-0.97
100,0.36,1.34,0.44,1.43,-1.43,-1.38,-1.08,-0.99,-0.99
101,0.35,1.35,0.40,1.41,-1.41,-1.35,-1.06,-1.01,-1.00
102,0.35,1.37,0.35,1.39,-1.39,-1.32,-1.04,-1.04,-1.02
104,0.35,1.43,0.31,1.37,-1.37,-1.26,-1.02,-1.06,-1.07
105,0.35,1.44,0.27,1.35,-1.35,-1.23,-1.00,-1.08,-1.09
106,0.19,1.30,0.23,1.33,-1.33,-1.20,-1.14,-1.10,-1.11
107,0.12,1.25,0.20,1.32,-1.32,-1.17,-1.19,-1.12,-1.12
108,0.12,1.26,0.17,1.31,-1.31,-1.14,-1.18,-1.14,-1.14
109,0.12,1.28,0.14,1.30,-1.30,-1.11,-1.17,-1.15,-1.15
110,0.12,1.29,0.12,1.29,-1.29,-1.08,-1.16,-1.17,-1.17
111,0.12,1.31,0.09,1.28,-1.28,-1.05,-1.15,-1.19,-1.19
112,0.12,1.33,0.06,1.26,-1.26,-1.02,-1.14,-1.21,-1.20
113,0.10,1.32,0.02,1.25,-1.25,-0.99,-1.14,-1.22,-1.22
114,-0.10,1.13,-0.02,1.22,-1.22,-0.96,-1.33,-1.24,-1.24
115,-0.10,1.15,-0.07,1.19,-1.19,-0.94,-1.30,-1.27,-1.26
117,-0.10,1.20,-0.13,1.16,-1.16,-0.88,-1.27,-1.29,-1.30
118,-0.13,1.20,-0.19,1.13,-1.13,-0.86,-1.26,-1.31,-1.32
119,-0.33,1.01,-0.24,1.10,-1.10,-0.83,-1.43,-1.34,-1.34
120,-0.33,1.03,-0.30,1.06,-1.06,-0.81,-1.40,-1.37,-1.36
121,-0.33,1.05,-0.36,1.03,-1.03,-0.78,-1.36,-1.39,-1.38
123,-0.33,1.09,-0.42,1.00,-1.00,-0.73,-1.33,-1.42,-1.43
124,-0.52,0.93,-0.47,0.97,-0.97,-0.71,-1.49,-1.44,-1.45
125,-0.56,0.90,-0.52,0.95,-0.95,-0.68,-1.51,-1.47,-1.47
126,-0.56,0.92,-0.57,0.92,-0.92,-0.66,-1.48,-1.49,-1.48
128,-0.56,0.97,-0.62,0.90,-0.90,-0.61,-1.46,-1.52,-1.53
129,-0.65,0.90,-0.67,0.88,-0.88,-0.59,-1.53,-1.54,-1.55
130,-0.79,0.78,-0.71,0.86,-0.86,-0.57,-1.65,-1.57,-1.57
131,-0.79,0.80,-0.75,0.84,-0.84,-0.55,-1.63,-1.59,-1.58
133,-0.79,0.83,-0.79,0.83,-0.83,-0.51,-1.62,-1.62,-1.62
134,-0.79,0.85,-0.82,0.82,-0.82,-0.49,-1.61,-1.64,-1.64
135,-0.79,0.87,-0.86,0.80,-0.80,-0.47,-1.59,-1.66,-1.66
137,-0.87,0.83,-0.90,0.79,-0.79,-0.43,-1.66,-1.69,-1.69
138,-1.02,0.69,-0.94,0.77,-0.77,-0.41,-1.79,-1.71,-1.71
140,-1.02,0.72,-0.98,0.76,-0.76,-0.37,-1.77,-1.73,-1.74
141,-1.02,0.74,-1.02,0.73,-0.73,-0.35,-1.75,-1.75,-1.75
142,-1.02,0.75,-1.06,0.71,-0.71,-0.33,-1.73,-1.77,-1.77
144,-1.04,0.76,-1.11,0.68,-0.68,-0.30,-1.72,-1.79,-1.80
145,-1.22,0.59,-1.16,0.66,-0.66,-0.28,-1.88,-1.81,-1.81
147,-1.24,0.59,-1.21,0.63,-0.63,-0.24,-1.87,-1.83,-1.84
148,-1.24,0.60,-1.25,0.59,-0.59,-0.23,-1.84,-1.85,-1.85
150,-1.24,0.63,-1.30,0.56,-0.56,-0.19,-1.81,-1.87,-1.87
151,-1.38,0.50,-1.36,0.53,-0.53,-0.18,-1.90,-1.88,-1.88
153,-1.47,0.43,-1.41,0.49,-0.49,-0.14,-1.96,-1.90,-1.90
154,-1.47,0.44,-1.46,0.45,-0.45,-0.13,-1.92,-1.91,-1.91
156,-1.47,0.46,-1.52,0.41,-0.41,-0.10,-1.88,-1.93,-1.93
157,-1.49,0.45,-1.58,0.36,-0.36,-0.08,-1.86,-1.94,-1.94
159,-1.70,0.26,-1.64,0.32,-0.32,-0.05,-2.02,-1.96,-1.96
160,-1.70,0.27,-1.70,0.27,-0.27,-0.03,-1.97,-1.97,-1.97
162,-1.70,0.28,-1.76,0.22,-0.22,-0.00,-1.92,-1.98,-1.98
164,-1.93,0.07,-1.82,0.17,-0.17,0.02,-2.10,-2.00,-2.00
165,-1.93,0.08,-1.88,0.13,-0.13,0.04,-2.06,-2.01,-2.00
167,-1.93,0.09,-1.94,0.08,-0.08,0.07,-2.01,-2.02,-2.02
169,-1.93,0.10,-1.99,0.04,-0.04,0.10,-1.97,-2.03,-2.03
170,-1.99,0.05,-2.05,-0.01,0.01,0.11,-1.98,-2.04,-2.04
172,-2.16,-0.11,-2.10,-0.05,0.05,0.14,-2.10,-2.05,-2.05
174,-2.16,-0.10,-2.16,-0.10,0.10,0.17,-2.05,-2.06,-2.06
175,-2.16,-0.09,-2.22,-0.15,0.15,0.18,-2.01,-2.07,-2.06
177,-2.37,-0.30,-2.27,-0.20,0.20,0.21,-2.17,-2.07,-2.07
179,-2.38,-0.30,-2.33,-0.25,0.25,0.23,-2.13,-2.08,-2.08
181,-2.38,-0.29,-2.39,-0.30,0.30,0.26,-2.08,-2.09,-2.09
183,-2.38,-0.29,-2.46,-0.36,0.36,0.29,-2.02,-2.09,-2.10
184,-2.48,-0.38,-2.52,-0.42,0.42,0.30,-2.06,-2.10,-2.10
186,-2.61,-0.51,-2.59,-0.49,0.49,0.32,-2.13,-2.10,-2.10
188,-2.61,-0.50,-2.67,-0.56,0.56,0.35,-2.06,-2.11,-2.11
190,-2.84,-0.73,-2.74,-0.63,0.63,0.38,-2.21,-2.11,-2.11
192,-2.84,-0.72,-2.82,-0.71,0.71,0.40,-2.13,-2.12,-2.12
194,-2.84,-0.72,-2.90,-0.78,0.78,0.43,-2.06,-2.12,-2.12
196,-3.00,-0.88,-2.98,-0.86,0.86,0.45,-2.14,-2.12,-2.12
198,-3.07,-0.94,-3.06,-0.93,0.93,0.48,-2.13,-2.12,-2.12
200,-3.08,-0.95,-3.13,-1.01,1.01,0.50,-2.07,-2.13,-2.13
202,-3.30,-1.17,-3.21,-1.08,1.08,0.53,-2.21,-2.13,-2.13
204,-3.30,-1.17,-3.28,-1.15,1.15,0.55,-2.14,-2.13,-2.13
206,-3.30,-1.17,-3.36,-1.23,1.23,0.58,-2.07,-2.13,-2.13
208,-3.43,-1.30,-3.43,-1.31,1.31,0.60,-2.12,-2.13,-2.13
210,-3.52,-1.40,-3.51,-1.38,1.38,0.63,-2.14,-2.13,-2.13
212,-3.52,-1.40,-3.59,-1.46,1.46,0.65,-2.06,-2.13,-2.13
214,-3.72,-1.59,-3.67,-1.54,1.54,0.68,-2.18,-2.13,-2.13
216,-3.75,-1.63,-3.75,-1.62,1.62,0.70,-2.13,-2.13,-2.12
218,-3.75,-1.63,-3.82,-1.69,1.69,0.73,-2.06,-2.12,-2.12
221,-3.88,-1.76,-3.88,-1.76,1.76,0.76,-2.13,-2.12,-2.12
223,-3.98,-1.86,-3.93,-1.81,1.81,0.79,-2.17,-2.12,-2.12
225,-3.98,-1.86,-3.97,-1.85,1.85,0.81,-2.13,-2.12,-2.12
227,-3.98,-1.86,-3.98,-1.86,1.86,0.84,-2.12,-2.12,-2.12
229,-3.98,-1.86,-3.97,-1.85,1.85,0.86,-2.13,-2.12,-2.12
232,-3.98,-1.86,-3.94,-1.82,1.82,0.90,-2.16,-2.12,-2.12
234,-3.94,-1.83,-3.88,-1.77,1.77,0.93,-2.17,-2.11,-2.11
236,-3.75,-1.64,-3.81,-1.70,1.70,0.95,-2.05,-2.11,-2.11
239,-3.75,-1.64,-3.72,-1.61,1.61,0.99,-2.14,-2.11,-2.11
241,-3.75,-1.65,-3.62,-1.52,1.52,1.01,-2.23,-2.11,-2.11
244,-3.52,-1.42,-3.53,-1.43,1.43,1.05,-2.10,-2.10,-2.10
246,-3.31,-1.21,-3.44,-1.34,1.34,1.08,-1.96,-2.10,-2.10
248,-3.30,-1.20,-3.37,-1.27,1.27,1.10,-2.02,-2.10,-2.10
251,-3.30,-1.20,-3.32,-1.22,1.22,1.14,-2.07,-2.09,-2.09
253,-3.30,-1.21,-3.29,-1.20,1.20,1.17,-2.10,-2.09,-2.09
256,-3.30,-1.21,-3.28,-1.20,1.20,1.21,-2.10,-2.09,-2.09
259,-3.30,-1.21,-3.30,-1.21,1.21,1.25,-2.08,-2.08,-2.08
261,-3.30,-1.22,-3.33,-1.25,1.25,1.28,-2.05,-2.08,-2.08
264,-3.32,-1.25,-3.37,-1.30,1.30,1.32,-2.02,-2.07,-2.07
266,-3.52,-1.46,-3.42,-1.35,1.35,1.34,-2.17,-2.07,-2.07
269,-3.52,-1.46,-3.48,-1.42,1.42,1.38,-2.11,-2.06,-2.06
272,-3.52,-1.47,-3.54,-1.49,1.49,1.42,-2.04,-2.05,-2.05
274,-3.52,-1.48,-3.60,-1.56,1.56,1.45,-1.97,-2.05,-2.04
277,-3.68,-1.64,-3.67,-1.63,1.63,1.49,-2.05,-2.04,-2.04
280,-3.75,-1.72,-3.73,-1.70,1.70,1.54,-2.05,-2.03,-2.03
283,-3.75,-1.73,-3.79,-1.77,1.77,1.58,-1.98,-2.02,-2.02
286,-3.83,-1.83,-3.84,-1.83,1.83,1.62,-2.00,-2.01,-2.01
288,-3.98,-1.98,-3.89,-1.89,1.89,1.65,-2.09,-1.99,-1.99
291,-3.98,-2.00,-3.93,-1.94,1.94,1.69,-2.04,-1.98,-1.98
294,-3.98,-2.01,-3.96,-2.00,2.00,1.74,-1.98,-1.97,-1.97
297,-3.98,-2.03,-4.00,-2.05,2.05,1.78,-1.93,-1.95,-1.95
300,-3.98,-2.04,-4.04,-2.10,2.10,1.82,-1.88,-1.94,-1.94
303,-3.99,-2.06,-4.09,-2.17,2.17,1.87,-1.82,-1.92,-1.92
306,-4.21,-2.30,-4.14,-2.24,2.24,1.91,-1.97,-1.91,-1.91
309,-4.21,-2.32,-4.21,-2.32,2.32,1.96,-1.89,-1.89,-1.89
312,-4.21,-2.34,-4.28,-2.41,2.41,2.00,-1.80,-1.87,-1.87
316,-4.41,-2.56,-4.35,-2.50,2.50,2.07,-1.91,-1.85,-1.85
319,-4.44,-2.60,-4.42,-2.59,2.59,2.11,-1.84,-1.83,-1.83
322,-4.45,-2.64,-4.49,-2.68,2.68,2.16,-1.77,-1.81,-1.81
325,-4.66,-2.87,-4.56,-2.77,2.77,2.21,-1.89,-1.79,-1.79
328,-4.66,-2.89,-4.63,-2.86,2.86,2.25,-1.81,-1.77,-1.77
332,-4.66,-2.91,-4.69,-2.94,2.94,2.32,-1.73,-1.75,-1.75
335,-4.66,-2.93,-4.75,-3.02,3.02,2.37,-1.65,-1.73,-1.73
338,-4.81,-3.10,-4.81,-3.10,3.10,2.42,-1.72,-1.71,-1.71
342,-4.89,-3.20,-4.87,-3.18,3.18,2.48,-1.72,-1.69,-1.69
345,-4.89,-3.22,-4.92,-3.25,3.25,2.53,-1.64,-1.67,-1.67
349,-4.97,-3.32,-4.98,-3.33,3.33,2.60,-1.64,-1.65,-1.65
352,-5.12,-3.49,-5.04,-3.41,3.41,2.65,-1.71,-1.63,-1.63
356,-5.12,-3.51,-5.10,-3.48,3.48,2.72,-1.64,-1.61,-1.61
359,-5.12,-3.52,-5.15,-3.55,3.55,2.77,-1.56,-1.59,-1.59
363,-5.12,-3.54,-5.20,-3.62,3.62,2.84,-1.50,-1.58,-1.58
366,-5.31,-3.75,-5.25,-3.69,3.69,2.89,-1.62,-1.56,-1.56
370,-5.35,-3.80,-5.30,-3.76,3.76,2.96,-1.59,-1.54,-1.54
374,-5.35,-3.82,-5.36,-3.83,3.83,3.04,-1.52,-1.53,-1.53
377,-5.35,-3.83,-5.41,-3.90,3.90,3.09,-1.45,-1.51,-1.51
381,-5.46,-3.96,-5.47,-3.97,3.97,3.16,-1.49,-1.50,-1.50
385,-5.57,-4.09,-5.53,-4.04,4.04,3.24,-1.53,-1.49,-1.49
389,-5.57,-4.10,-5.59,-4.11,4.11,3.31,-1.46,-1.48,-1.48
393,-5.59,-4.13,-5.65,-4.19,4.19,3.38,-1.41,-1.46,-1.46
397,-5.80,-4.35,-5.71,-4.26,4.26,3.46,-1.55,-1.45,-1.45
401,-5.80,-4.36,-5.77,-4.32,4.32,3.54,-1.48,-1.44,-1.44
405,-5.80,-4.37,-5.82,-4.39,4.39,3.61,-1.41,-1.43,-1.43
409,-5.80,-4.38,-5.88,-4.46,4.46,3.69,-1.34,-1.42,-1.42
413,-5.99,-4.57,-5.94,-4.53,4.53,3.77,-1.46,-1.41,-1.41
417,-6.03,-4.63,-6.01,-4.60,4.60,3.84,-1.43,-1.40,-1.40
421,-6.03,-4.64,-6.07,-4.68,4.68,3.92,-1.35,-1.40,-1.40
425,-6.06,-4.67,-6.14,-4.75,4.75,4.00,-1.30,-1.39,-1.39
430,-6.26,-4.88,-6.21,-4.83,4.83,4.10,-1.43,-1.38,-1.38
434,-6.26,-4.89,-6.28,-4.91,4.91,4.18,-1.35,-1.37,-1.37
438,-6.39,-5.03,-6.34,-4.98,4.98,4.26,-1.41,-1.36,-1.36
443,-6.49,-5.13,-6.40,-5.05,5.05,4.36,-1.44,-1.35,-1.35
447,-6.49,-5.14,-6.45,-5.11,5.11,4.44,-1.38,-1.34,-1.34
451,-6.49,-5.15,-6.51,-5.17,5.17,4.52,-1.31,-1.33,-1.33
456,-6.49,-5.16,-6.56,-5.24,5.24,4.62,-1.25,-1.32,-1.32
460,-6.55,-5.23,-6.62,-5.30,5.30,4.70,-1.24,-1.31,-1.31
465,-6.71,-5.41,-6.68,-5.38,5.38,4.80,-1.34,-1.30,-1.30
470,-6.71,-5.42,-6.75,-5.46,5.46,4.90,-1.26,-1.29,-1.29
474,-6.88,-5.60,-6.82,-5.54,5.54,4.98,-1.33,-1.28,-1.28
479,-6.94,-5.68,-6.90,-5.64,5.64,5.08,-1.31,-1.27,-1.27
484,-6.94,-5.69,-6.98,-5.73,5.73,5.18,-1.21,-1.25,-1.25
489,-7.02,-5.78,-7.06,-5.82,5.81,5.28,-1.20,-1.25,-1.24
494,-7.17,-5.95,-7.14,-5.92,5.88,5.37,-1.29,-1.26,-1.22
499,-7.17,-5.96,-7.21,-6.00,5.93,5.47,-1.24,-1.28,-1.21
504,-7.35,-6.16,-7.28,-6.09,5.97,5.57,-1.39,-1.31,-1.19
509,-7.40,-6.23,-7.34,-6.17,5.99,5.66,-1.41,-1.35,-1.17
514,-7.40,-6.24,-7.40,-6.24,6.00,5.75,-1.40,-1.40,-1.15
519,-7.40,-6.26,-7.45,-6.32,6.00,5.85,-1.40,-1.45,-1.13
524,-7.47,-6.35,-7.51,-6.39,6.00,5.94,-1.47,-1.51,-1.11
529,-7.63,-6.53,-7.57,-6.47,6.00,6.02,-1.63,-1.57,-1.09
535,-7.63,-6.56,-7.63,-6.56,6.00,6.13,-1.63,-1.63,-1.07
540,-7.63,-6.58,-7.70,-6.66,6.00,6.21,-1.63,-1.70,-1.05
545,-7.82,-6.79,-7.78,-6.76,6.00,6.29,-1.82,-1.78,-1.02
551,-7.85,-6.85,-7.87,-6.87,6.00,6.38,-1.85,-1.87,-1.00
556,-7.89,-6.91,-7.96,-6.99,6.00,6.46,-1.89,-1.96,-0.98
562,-8.08,-7.13,-8.06,-7.11,6.00,6.54,-2.08,-2.06,-0.95
568,-8.22,-7.30,-8.15,-7.23,6.00,6.62,-2.22,-2.15,-0.93
573,-8.31,-7.41,-8.24,-7.34,6.00,6.68,-2.31,-2.24,-0.90
579,-8.31,-7.43,-8.33,-7.45,6.00,6.75,-2.31,-2.33,-0.88
585,-8.32,-7.46,-8.41,-7.56,6.00,6.81,-2.32,-2.41,-0.85
591,-8.54,-7.71,-8.48,-7.65,6.00,6.87,-2.54,-2.48,-0.83
596,-8.54,-7.73,-8.55,-7.74,6.00,6.91,-2.54,-2.55,-0.80
602,-8.61,-7.83,-8.61,-7.83,6.00,6.96,-2.61,-2.61,-0.78
608,-8.77,-8.01,-8.67,-7.91,6.00,6.99,-2.77,-2.67,-0.76
615,-8.77,-8.03,-8.72,-7.99,6.00,7.03,-2.77,-2.72,-0.74
621,-8.77,-8.05,-8.79,-8.08,6.00,7.05,-2.77,-2.79,-0.71
627,-8.77,-8.07,-8.86,-8.17,6.00,7.06,-2.77,-2.86,-0.69
633,-8.80,-8.13,-8.95,-8.28,6.00,7.07,-2.80,-2.95,-0.67
639,-9.04,-8.39,-9.05,-8.40,6.00,7.07,-3.04,-3.05,-0.65
646,-9.22,-8.59,-9.16,-8.53,6.00,7.06,-3.22,-3.16,-0.63
652,-9.35,-8.74,-9.27,-8.66,6.00,7.05,-3.35,-3.27,-0.61
659,-9.45,-8.86,-9.39,-8.80,6.00,7.02,-3.45,-3.39,-0.59
665,-9.45,-8.88,-9.50,-8.93,6.00,6.99,-3.45,-3.50,-0.57
672,-9.46,-8.91,-9.61,-9.06,6.00,6.95,-3.46,-3.61,-0.55
679,-9.73,-9.20,-9.71,-9.18,6.00,6.90,-3.73,-3.71,-0.53
686,-9.91,-9.39,-9.79,-9.28,6.00,6.84,-3.91,-3.79,-0.51
692,-9.91,-9.41,-9.85,-9.36,6.00,6.79,-3.91,-3.85,-0.49
699,-9.91,-9.43,-9.90,-9.42,6.00,6.72,-3.91,-3.90,-0.47
706,-9.91,-9.45,-9.92,-9.46,6.00,6.64,-3.91,-3.92,-0.45
713,-9.91,-9.47,-9.92,-9.48,6.00,6.56,-3.91,-3.92,-0.43
721,-9.91,-9.49,-9.90,-9.49,6.00,6.47,-3.91,-3.90,-0.41
728,-9.91,-9.51,-9.86,-9.47,6.00,6.38,-3.91,-3.86,-0.39
735,-9.82,-9.44,-9.82,-9.45,6.00,6.30,-3.82,-3.82,-0.37
742,-9.68,-9.33,-9.77,-9.41,6.00,6.21,-3.68,-3.77,-0.35
750,-9.68,-9.35,-9.70,-9.37,6.00,6.12,-3.68,-3.70,-0.33
757,-9.68,-9.37,-9.63,-9.32,6.00,6.04,-3.68,-3.63,-0.31
765,-9.45,-9.16,-9.55,-9.26,6.00,5.96,-3.45,-3.55,-0.29
773,-9.45,-9.18,-9.46,-9.18,6.00,5.88,-3.45,-3.46,-0.27
780,-9.39,-9.14,-9.34,-9.09,6.00,5.83,-3.39,-3.34,-0.26
788,-9.22,-8.98,-9.20,-8.96,6.00,5.79,-3.22,-3.20,-0.24
796,-9.08,-8.86,-9.03,-8.81,6.00,5.76,-3.08,-3.03,-0.22
804,-8.82,-8.62,-8.82,-8.62,6.00,5.75,-2.82,-2.82,-0.21
812,-8.56,-8.37,-8.58,-8.38,6.00,5.77,-2.56,-2.58,-0.19
820,-8.30,-8.12,-8.29,-8.11,6.00,5.81,-2.30,-2.29,-0.18
828,-7.93,-7.77,-7.96,-7.79,6.00,5.86,-1.93,-1.96,-0.17
837,-7.60,-7.45,-7.58,-7.43,6.00,5.91,-1.60,-1.58,-0.16
845,-7.23,-7.08,-7.17,-7.03,6.00,5.92,-1.23,-1.17,-0.14
853,-6.86,-6.72,-6.72,-6.59,5.92,5.88,-0.94,-0.81,-0.14
862,-6.35,-6.22,-6.25,-6.12,5.71,5.73,-0.63,-0.54,-0.13
871,-5.69,-5.57,-5.77,-5.65,5.40,5.46,-0.29,-0.37,-0.12
879,-5.21,-5.09,-5.28,-5.17,5.06,5.13,-0.15,-0.22,-0.11
888,-4.67,-4.56,-4.80,-4.69,4.66,4.70,-0.02,-0.14,-0.11
897,-4.23,-4.13,-4.33,-4.23,4.23,4.23,0.00,-0.10,-0.10
906,-3.90,-3.81,-3.89,-3.79,3.79,3.76,-0.11,-0.10,-0.10
915,-3.51,-3.42,-3.47,-3.38,3.38,3.31,-0.14,-0.09,-0.09
924,-3.13,-3.04,-3.06,-2.98,2.98,2.88,-0.15,-0.08,-0.08
933,-2.64,-2.56,-2.67,-2.60,2.60,2.48,-0.04,-0.08,-0.08
943,-2.21,-2.14,-2.30,-2.22,2.22,2.06,0.01,-0.07,-0.07
952,-1.87,-1.80,-1.92,-1.86,1.86,1.70,-0.01,-0.06,-0.06
962,-1.59,-1.53,-1.54,-1.49,1.49,1.32,-0.11,-0.06,-0.06
971,-1.28,-1.23,-1.16,-1.11,1.11,0.99,-0.17,-0.05,-0.05
981,-0.88,-0.84,-0.77,-0.73,0.73,0.64,-0.15,-0.04,-0.04
991,-0.37,-0.35,-0.37,-0.34,0.34,0.29,-0.03,-0.03,-0.03
1001,0.04,0.06,0.03,0.04,-0.04,-0.04,0.00,-0.01,-0.01
1011,0.51,0.52,0.42,0.42,-0.42,-0.38,0.10,-0.00,-0.00
1021,0.81,0.80,0.80,0.78,-0.78,-0.71,0.03,0.01,0.01
1031,1.20,1.17,1.16,1.13,-1.13,-1.04,0.07,0.03,0.03
1041,1.51,1.47,1.51,1.46,-1.46,-1.36,0.05,0.05,0.05
1052,1.88,1.82,1.83,1.77,-1.77,-1.71,0.11,0.07,0.06
1062,2.15,2.07,2.15,2.06,-2.06,-2.01,0.09,0.08,0.08
1073,2.42,2.32,2.45,2.34,-2.34,-2.34,0.08,0.11,0.10
1084,2.69,2.57,2.74,2.62,-2.62,-2.64,0.08,0.13,0.13
1094,2.97,2.82,3.03,2.88,-2.88,-2.90,0.09,0.15,0.15
1105,3.31,3.14,3.32,3.15,-3.15,-3.17,0.16,0.17,0.17
1116,3.64,3.45,3.61,3.41,-3.41,-3.41,0.23,0.19,0.19
1128,3.97,3.75,3.89,3.68,-3.68,-3.67,0.29,0.22,0.22
1139,4.22,3.98,4.18,3.94,-3.94,-3.90,0.28,0.24,0.24
1150,4.48,4.21,4.48,4.22,-4.22,-4.13,0.26,0.26,0.26
1162,4.75,4.46,4.79,4.50,-4.50,-4.39,0.25,0.28,0.29
1173,5.00,4.69,5.10,4.79,-4.79,-4.64,0.20,0.31,0.31
1185,5.33,5.00,5.42,5.09,-5.09,-4.94,0.24,0.33,0.33
1197,5.64,5.30,5.74,5.39,-5.39,-5.25,0.25,0.34,0.34
1209,6.11,5.75,6.05,5.69,-5.69,-5.59,0.42,0.36,0.36
1221,6.40,6.02,6.35,5.98,-5.98,-5.93,0.42,0.37,0.37
1233,6.77,6.38,6.63,6.24,-6.24,-6.27,0.52,0.39,0.39
1246,7.04,6.65,6.88,6.49,-6.49,-6.59,0.56,0.40,0.40
1258,7.19,6.78,7.11,6.71,-6.71,-6.83,0.48,0.40,0.40
1271,7.19,6.78,7.31,6.91,-6.91,-7.02,0.28,0.41,0.41
1283,7.36,6.95,7.50,7.09,-7.09,-7.14,0.26,0.41,0.41
1296,7.62,7.21,7.68,7.27,-7.27,-7.23,0.35,0.41,0.41
1309,7.89,7.48,7.85,7.44,-7.44,-7.30,0.44,0.41,0.41
1322,8.10,7.70,8.02,7.62,-7.62,-7.38,0.48,0.40,0.40
1335,8.18,7.78,8.19,7.79,-7.79,-7.47,0.38,0.39,0.39
1349,8.33,7.94,8.36,7.97,-7.97,-7.60,0.36,0.38,0.38
1362,8.47,8.10,8.52,8.15,-8.15,-7.74,0.32,0.37,0.37
1376,8.74,8.38,8.69,8.33,-8.33,-7.92,0.41,0.36,0.36
1390,8.78,8.44,8.85,8.50,-8.50,-8.11,0.28,0.35,0.35
1404,9.01,8.68,8.99,8.66,-8.66,-8.32,0.35,0.33,0.33
1418,9.08,8.76,9.12,8.80,-8.80,-8.54,0.28,0.32,0.32
1432,9.24,8.93,9.23,8.92,-8.92,-8.77,0.32,0.31,0.31
1446,9.37,9.07,9.32,9.03,-9.03,-9.02,0.34,0.29,0.29
1461,9.64,9.36,9.40,9.12,-9.12,-9.28,0.52,0.28,0.28
1475,9.70,9.42,9.47,9.20,-9.20,-9.54,0.50,0.27,0.27
1490,9.47,9.20,9.55,9.29,-9.29,-9.82,0.18,0.27,0.27
1505,9.47,9.21,9.66,9.40,-9.40,-10.10,0.07,0.26,0.26
1520,9.50,9.24,9.80,9.53,-9.53,-10.38,-0.03,0.26,0.26
1535,9.79,9.53,9.97,9.71,-9.71,-10.67,0.08,0.26,0.26
1550,10.17,9.90,10.18,9.91,-9.91,-10.95,0.26,0.27,0.27
1566,10.53,10.25,10.42,10.14,-10.14,-11.25,0.39,0.28,0.28
1582,10.82,10.52,10.68,10.38,-10.38,-11.55,0.44,0.30,0.30
1597,11.07,10.75,10.94,10.62,-10.62,-11.82,0.45,0.32,0.32
1613,11.29,10.95,11.20,10.85,-10.85,-12.11,0.44,0.35,0.34
1629,11.36,10.99,11.45,11.07,-11.07,-12.38,0.30,0.38,0.38
1646,11.64,11.22,11.68,11.27,-11.27,-12.66,0.37,0.42,0.41
1662,11.89,11.43,11.92,11.46,-11.46,-12.91,0.43,0.46,0.46
