frequency,raw
20.00,-0.55
20.20,-0.49
20.40,-0.42
20.61,-0.36
20.81,-0.30
21.02,-0.23
21.23,-0.18
21.44,-0.12
21.66,-0.06
21.87,-0.00
22.09,0.06
22.31,0.12
22.54,0.18
22.76,0.24
22.99,0.30
23.22,0.36
23.45,0.43
23.69,0.49
23.92,0.55
24.16,0.61
24.40,0.66
24.65,0.72
24.89,0.78
25.14,0.84
25.39,0.90
25.65,0.95
25.91,1.01
26.16,1.07
26.43,1.12
26.69,1.17
26.96,1.22
27.23,1.28
27.50,1.32
27.77,1.37
28.05,1.42
28.33,1.47
28.62,1.52
28.90,1.56
29.19,1.61
29.48,1.65
29.78,1.70
30.08,1.74
30.38,1.78
30.68,1.83
30.99,1.87
31.30,1.91
31.61,1.96
31.93,2.00
32.24,2.05
32.57,2.09
32.89,2.13
33.22,2.17
33.55,2.21
33.89,2.25
34.23,2.29
34.57,2.33
34.92,2.37
35.27,2.40
35.62,2.44
35.97,2.47
36.33,2.51
36.70,2.54
37.06,2.58
37.43,2.61
37.81,2.65
38.19,2.67
38.57,2.71
38.95,2.74
39.34,2.77
39.74,2.80
40.14,2.84
40.54,2.86
40.94,2.89
41.35,2.92
41.76,2.95
42.18,2.98
42.60,3.00
43.03,3.03
43.46,3.06
43.90,3.08
44.33,3.10
44.78,3.12
45.23,3.15
45.68,3.17
46.13,3.20
46.60,3.21
47.06,3.24
47.53,3.26
48.01,3.27
48.49,3.29
48.97,3.31
49.46,3.33
49.96,3.35
50.46,3.36
50.96,3.38
51.47,3.40
51.99,3.42
52.51,3.44
53.03,3.45
53.56,3.46
54.10,3.48
54.64,3.49
55.18,3.50
55.74,3.51
56.29,3.53
56.86,3.53
57.42,3.55
58.00,3.56
58.58,3.57
59.16,3.57
59.76,3.58
60.35,3.59
60.96,3.60
61.57,3.61
62.18,3.62
62.80,3.63
63.43,3.63
64.07,3.64
64.71,3.64
65.35,3.64
66.01,3.65
66.67,3.66
67.33,3.65
68.01,3.66
68.69,3.67
69.37,3.67
70.07,3.67
70.77,3.67
71.48,3.67
72.19,3.67
72.91,3.67
73.64,3.67
74.38,3.66
75.12,3.66
75.87,3.66
76.63,3.66
77.40,3.65
78.17,3.65
78.95,3.64
79.74,3.64
80.54,3.63
81.35,3.63
82.16,3.62
82.98,3.61
83.81,3.62
84.65,3.61
85.50,3.60
86.35,3.60
87.22,3.58
88.09,3.58
88.97,3.56
89.86,3.56
90.76,3.55
91.66,3.54
92.58,3.53
93.51,3.52
94.44,3.51
95.39,3.50
96.34,3.48
97.30,3.47
98.28,3.46
99.26,3.44
100.25,3.44
101.25,3.42
102.27,3.40
103.29,3.39
104.32,3.38
105.37,3.36
106.42,3.35
107.48,3.33
108.56,3.32
109.64,3.30
110.74,3.28
111.85,3.27
112.97,3.25
114.10,3.23
115.24,3.21
116.39,3.19
117.55,3.18
118.73,3.16
119.92,3.13
121.12,3.11
122.33,3.10
123.55,3.08
124.79,3.06
126.03,3.03
127.29,3.01
128.57,3.00
129.85,2.97
131.15,2.95
132.46,2.92
133.79,2.90
135.12,2.88
136.48,2.86
137.84,2.84
139.22,2.81
140.61,2.78
142.02,2.77
143.44,2.74
144.87,2.71
146.32,2.69
147.78,2.67
149.26,2.64
150.75,2.61
152.26,2.59
153.78,2.56
155.32,2.54
156.88,2.51
158.44,2.48
160.03,2.46
161.63,2.43
163.24,2.40
164.88,2.38
166.53,2.35
168.19,2.32
169.87,2.29
171.57,2.27
173.29,2.25
175.02,2.21
176.77,2.19
178.54,2.16
180.32,2.14
182.13,2.10
183.95,2.08
185.79,2.05
187.65,2.02
189.52,1.99
191.42,1.96
193.33,1.93
195.27,1.90
197.22,1.87
199.19,1.84
201.18,1.81
203.19,1.78
205.23,1.75
207.28,1.72
209.35,1.69
211.44,1.66
213.56,1.64
215.69,1.61
217.85,1.58
220.03,1.55
222.23,1.52
224.45,1.50
226.70,1.47
228.96,1.44
231.25,1.42
233.57,1.39
235.90,1.37
238.26,1.35
240.64,1.33
243.05,1.32
245.48,1.30
247.93,1.27
250.41,1.26
252.92,1.24
255.45,1.21
258.00,1.19
260.58,1.17
263.19,1.15
265.82,1.13
268.48,1.11
271.16,1.09
273.87,1.06
276.61,1.04
279.38,1.01
282.17,1.00
284.99,0.97
287.84,0.95
290.72,0.94
293.63,0.92
296.57,0.90
299.53,0.87
302.53,0.85
305.55,0.84
308.61,0.81
311.69,0.80
314.81,0.78
317.96,0.75
321.14,0.74
324.35,0.71
327.59,0.69
330.87,0.67
334.18,0.65
337.52,0.62
340.90,0.60
344.30,0.57
347.75,0.55
351.23,0.53
354.74,0.50
358.28,0.47
361.87,0.45
365.49,0.43
369.14,0.40
372.83,0.38
376.56,0.34
380.33,0.32
384.13,0.29
387.97,0.26
391.85,0.24
395.77,0.21
399.73,0.18
403.72,0.16
407.76,0.13
411.84,0.11
415.96,0.08
420.12,0.05
424.32,0.03
428.56,0.00
432.85,-0.02
437.18,-0.05
441.55,-0.07
445.96,-0.10
450.42,-0.13
454.93,-0.16
459.48,-0.19
464.07,-0.22
468.71,-0.24
473.40,-0.27
478.13,-0.30
482.91,-0.32
487.74,-0.34
492.62,-0.38
497.55,-0.40
502.52,-0.43
507.55,-0.46
512.62,-0.48
517.75,-0.50
522.93,-0.54
528.16,-0.56
533.44,-0.58
538.77,-0.61
544.16,-0.64
549.60,-0.67
555.10,-0.69
560.65,-0.71
566.25,-0.74
571.92,-0.77
577.64,-0.79
583.41,-0.81
589.25,-0.83
595.14,-0.86
601.09,-0.88
607.10,-0.90
613.17,-0.92
619.30,-0.94
625.50,-0.96
631.75,-0.97
638.07,-0.99
644.45,-1.01
650.89,-1.02
657.40,-1.04
663.98,-1.06
670.62,-1.07
677.32,-1.08
684.10,-1.09
690.94,-1.10
697.85,-1.11
704.83,-1.12
711.87,-1.12
718.99,-1.13
726.18,-1.14
733.44,-1.13
740.78,-1.13
748.19,-1.13
755.67,-1.13
763.23,-1.12
770.86,-1.11
778.57,-1.10
786.35,-1.09
794.22,-1.07
802.16,-1.06
810.18,-1.05
818.28,-1.03
826.46,-1.01
834.73,-0.98
843.08,-0.96
851.51,-0.93
860.02,-0.90
868.62,-0.86
877.31,-0.83
886.08,-0.79
894.94,-0.75
903.89,-0.70
912.93,-0.64
922.06,-0.58
931.28,-0.52
940.59,-0.46
950.00,-0.39
959.50,-0.32
969.09,-0.24
978.78,-0.18
988.57,-0.10
998.46,-0.01
1008.44,0.07
1018.53,0.15
1028.71,0.24
1039.00,0.32
1049.39,0.41
1059.88,0.50
1070.48,0.59
1081.19,0.69
1092.00,0.78
1102.92,0.87
1113.95,0.97
1125.09,1.06
1136.34,1.15
1147.70,1.24
1159.18,1.33
1170.77,1.41
1182.48,1.50
1194.30,1.58
1206.25,1.66
1218.31,1.73
1230.49,1.80
1242.80,1.87
1255.22,1.94
1267.78,2.00
1280.45,2.06
1293.26,2.11
1306.19,2.15
1319.25,2.20
1332.45,2.23
1345.77,2.27
1359.23,2.29
1372.82,2.32
1386.55,2.34
1400.41,2.37
1414.42,2.39
1428.56,2.42
1442.85,2.46
1457.28,2.50
1471.85,2.55
1486.57,2.60
1501.43,2.66
1516.45,2.71
1531.61,2.77
1546.93,2.82
1562.40,2.87
1578.02,2.91
1593.80,2.94
1609.74,2.98
1625.84,3.00
1642.10,3.02
1658.52,3.05
1675.10,3.06
1691.85,3.08
1708.77,3.09
1725.86,3.12
1743.12,3.13
1760.55,3.15
1778.15,3.17
1795.94,3.19
1813.90,3.21
1832.03,3.22
1850.36,3.25
1868.86,3.27
1887.55,3.29
1906.42,3.31
1925.49,3.34
1944.74,3.36
1964.19,3.39
1983.83,3.41
2003.67,3.44
2023.71,3.47
2043.94,3.50
2064.38,3.52
2085.03,3.56
2105.88,3.59
2126.94,3.61
2148.20,3.64
2169.69,3.67
2191.38,3.70
2213.30,3.73
2235.43,3.77
2257.78,3.80
2280.36,3.83
2303.17,3.86
2326.20,3.90
2349.46,3.93
2372.95,3.96
2396.68,3.99
2420.65,4.02
2444.86,4.06
2469.31,4.09
2494.00,4.13
2518.94,4.15
2544.13,4.19
2569.57,4.22
2595.27,4.25
2621.22,4.28
2647.43,4.31
2673.90,4.35
2700.64,4.38
2727.65,4.40
2754.93,4.43
2782.48,4.47
2810.30,4.49
2838.40,4.52
2866.79,4.55
2895.46,4.58
2924.41,4.60
2953.65,4.62
2983.19,4.66
3013.02,4.67
3043.15,4.70
3073.58,4.73
3104.32,4.75
3135.36,4.76
3166.72,4.78
3198.38,4.79
3230.37,4.81
3262.67,4.83
3295.30,4.84
3328.25,4.85
3361.53,4.86
3395.15,4.87
3429.10,4.88
3463.39,4.89
3498.03,4.90
3533.01,4.90
3568.34,4.91
3604.02,4.91
3640.06,4.91
3676.46,4.92
3713.22,4.92
3750.36,4.93
3787.86,4.94
3825.74,4.95
3864.00,4.96
3902.64,4.98
3941.66,4.99
3981.08,5.01
4020.89,5.02
4061.10,5.04
4101.71,5.07
4142.73,5.10
4184.15,5.13
4226.00,5.16
4268.26,5.21
4310.94,5.26
4354.05,5.31
4397.59,5.37
4441.56,5.43
4485.98,5.50
4530.84,5.57
4576.15,5.65
4621.91,5.74
4668.13,5.85
4714.81,5.95
4761.96,6.07
4809.58,6.19
4857.67,6.31
4906.25,6.45
4955.31,6.59
5004.87,6.73
5054.91,6.88
5105.46,7.03
5156.52,7.19
5208.08,7.33
5260.16,7.50
5312.77,7.65
5365.89,7.79
5419.55,7.94
5473.75,8.06
5528.49,8.18
5583.77,8.27
5639.61,8.31
5696.00,8.33
5752.96,8.31
5810.49,8.22
5868.60,8.10
5927.28,7.92
5986.56,7.69
6046.42,7.40
6106.89,7.10
6167.96,6.75
6229.64,6.38
6291.93,5.99
6354.85,5.59
6418.40,5.18
6482.58,4.77
6547.41,4.37
6612.88,3.96
6679.01,3.57
6745.80,3.21
6813.26,2.89
6881.39,2.63
6950.21,2.44
7019.71,2.33
7089.91,2.31
7160.81,2.35
7232.41,2.45
7304.74,2.60
7377.79,2.77
7451.56,2.94
7526.08,3.09
7601.34,3.21
7677.35,3.30
7754.13,3.33
7831.67,3.33
7909.98,3.32
7989.08,3.28
8068.98,3.23
8149.67,3.18
8231.16,3.15
8313.47,3.13
8396.61,3.10
8480.57,3.09
8565.38,3.09
8651.03,3.08
8737.54,3.08
8824.92,3.08
8913.17,3.11
9002.30,3.15
9092.32,3.26
9183.25,3.42
9275.08,3.65
9367.83,3.95
9461.51,4.36
9556.12,4.81
9651.68,5.36
9748.20,5.99
9845.68,6.67
9944.14,7.40
10043.58,8.16
10144.02,8.89
10245.46,9.60
10347.91,10.18
10451.39,10.65
10555.91,10.98
10661.46,11.11
10768.08,11.07
10875.76,10.91
10984.52,10.61
11094.36,10.23
11205.31,9.85
11317.36,9.46
11430.53,9.16
11544.84,8.92
11660.29,8.75
11776.89,8.71
11894.66,8.71
12013.60,8.74
12133.74,8.76
12255.08,8.70
12377.63,8.55
12501.41,8.21
12626.42,7.68
12752.68,6.99
12880.21,6.10
13009.01,5.02
13139.10,3.86
13270.49,2.63
13403.20,1.36
13537.23,0.13
13672.60,-1.07
13809.33,-2.18
13947.42,-3.21
14086.90,-4.17
14227.77,-5.03
14370.04,-5.81
14513.74,-6.53
14658.88,-7.15
14805.47,-7.70
14953.52,-8.18
15103.06,-8.58
15254.09,-8.89
15406.63,-9.13
15560.70,-9.31
15716.30,-9.35
15873.47,-9.31
16032.20,-9.20
16192.52,-8.97
16354.45,-8.68
16517.99,-8.35
16683.17,-8.01
16850.01,-7.75
17018.51,-7.57
17188.69,-7.55
17360.58,-7.79
17534.18,-8.19
17709.53,-8.81
17886.62,-9.65
18065.49,-10.60
18246.14,-11.65
18428.60,-12.75
18612.89,-13.82
18799.02,-14.84
18987.01,-15.77
19176.88,-16.64
19368.65,-17.47
19562.33,-18.26
19757.96,-19.08
19955.54,-19.95
