frequency,raw,error,smoothed,error_smoothed,equalization,parametric_eq,equalized_raw,equalized_smoothed,target
20.00,5.82,0.87,5.81,0.86,-0.86,-0.77,4.96,4.95,4.95
20.20,5.79,0.84,5.78,0.83,-0.83,-0.80,4.96,4.95,4.95
20.40,5.76,0.81,5.76,0.81,-0.81,-0.83,4.95,4.94,4.95
20.61,5.74,0.79,5.74,0.80,-0.80,-0.85,4.94,4.94,4.95
20.81,5.72,0.78,5.72,0.78,-0.78,-0.88,4.94,4.94,4.94
21.02,5.71,0.77,5.71,0.77,-0.77,-0.91,4.94,4.94,4.94
21.23,5.69,0.75,5.70,0.77,-0.77,-0.94,4.92,4.94,4.94
21.44,5.68,0.74,5.70,0.76,-0.76,-0.97,4.92,4.94,4.94
21.66,5.68,0.74,5.70,0.76,-0.76,-1.00,4.92,4.93,4.94
21.87,5.69,0.75,5.70,0.77,-0.77,-1.03,4.92,4.93,4.94
22.09,5.70,0.76,5.70,0.77,-0.77,-1.06,4.93,4.93,4.94
22.31,5.71,0.78,5.71,0.78,-0.78,-1.09,4.93,4.93,4.93
22.54,5.72,0.79,5.73,0.80,-0.80,-1.13,4.92,4.93,4.93
22.76,5.74,0.81,5.74,0.82,-0.82,-1.16,4.92,4.93,4.93
22.99,5.77,0.84,5.76,0.84,-0.84,-1.20,4.93,4.93,4.93
23.22,5.79,0.86,5.79,0.86,-0.86,-1.23,4.93,4.93,4.93
23.45,5.82,0.90,5.81,0.89,-0.89,-1.27,4.93,4.92,4.93
23.69,5.85,0.93,5.84,0.92,-0.92,-1.31,4.93,4.92,4.92
23.92,5.88,0.96,5.87,0.95,-0.95,-1.35,4.93,4.92,4.92
24.16,5.91,0.99,5.91,0.99,-0.99,-1.39,4.92,4.92,4.92
24.40,5.93,1.01,5.94,1.02,-1.02,-1.43,4.91,4.92,4.92
24.65,5.97,1.05,5.97,1.06,-1.06,-1.47,4.91,4.91,4.91
24.89,6.01,1.10,6.01,1.10,-1.10,-1.51,4.91,4.91,4.91
25.14,6.04,1.13,6.05,1.14,-1.14,-1.55,4.90,4.91,4.91
25.39,6.08,1.17,6.08,1.18,-1.18,-1.59,4.90,4.91,4.91
25.65,6.12,1.21,6.12,1.22,-1.22,-1.63,4.90,4.90,4.91
25.91,6.16,1.26,6.16,1.26,-1.26,-1.68,4.90,4.90,4.90
26.16,6.20,1.30,6.20,1.30,-1.30,-1.72,4.90,4.90,4.90
26.43,6.24,1.34,6.24,1.34,-1.34,-1.76,4.90,4.90,4.90
26.69,6.28,1.38,6.27,1.38,-1.38,-1.80,4.90,4.89,4.90
26.96,6.32,1.43,6.31,1.42,-1.42,-1.84,4.90,4.89,4.89
27.23,6.35,1.46,6.35,1.46,-1.46,-1.88,4.89,4.89,4.89
27.50,6.38,1.49,6.39,1.50,-1.50,-1.91,4.88,4.89,4.89
27.77,6.42,1.54,6.42,1.54,-1.54,-1.95,4.88,4.88,4.88
28.05,6.46,1.58,6.46,1.58,-1.58,-1.98,4.88,4.88,4.88
28.33,6.49,1.61,6.49,1.61,-1.61,-2.02,4.88,4.88,4.88
28.62,6.53,1.66,6.52,1.65,-1.65,-2.05,4.88,4.87,4.87
28.90,6.55,1.68,6.55,1.68,-1.68,-2.07,4.87,4.87,4.87
29.19,6.59,1.72,6.58,1.72,-1.72,-2.10,4.87,4.87,4.87
29.48,6.61,1.75,6.61,1.75,-1.75,-2.12,4.86,4.86,4.86
29.78,6.65,1.79,6.64,1.78,-1.78,-2.14,4.86,4.86,4.86
30.08,6.67,1.81,6.67,1.82,-1.82,-2.16,4.85,4.86,4.86
30.38,6.70,1.85,6.70,1.85,-1.85,-2.17,4.85,4.85,4.85
30.68,6.72,1.87,6.73,1.88,-1.88,-2.18,4.84,4.85,4.85
30.99,6.75,1.90,6.75,1.91,-1.91,-2.19,4.84,4.84,4.84
31.30,6.77,1.93,6.77,1.93,-1.93,-2.19,4.83,4.84,4.84
31.61,6.80,1.96,6.80,1.96,-1.96,-2.19,4.84,4.84,4.84
31.93,6.82,1.99,6.82,1.99,-1.99,-2.19,4.83,4.83,4.83
32.24,6.84,2.01,6.84,2.01,-2.01,-2.18,4.83,4.83,4.83
32.57,6.86,2.04,6.86,2.04,-2.04,-2.17,4.82,4.82,4.82
32.89,6.88,2.06,6.88,2.06,-2.06,-2.16,4.82,4.82,4.82
33.22,6.89,2.08,6.89,2.08,-2.08,-2.14,4.81,4.81,4.81
33.55,6.90,2.09,6.91,2.10,-2.10,-2.12,4.80,4.81,4.81
33.89,6.92,2.12,6.92,2.12,-2.12,-2.10,4.80,4.80,4.80
34.23,6.93,2.13,6.93,2.13,-2.13,-2.08,4.80,4.80,4.80
34.57,6.94,2.15,6.94,2.15,-2.15,-2.05,4.79,4.79,4.79
34.92,6.95,2.16,6.95,2.16,-2.16,-2.03,4.79,4.79,4.79
35.27,6.95,2.17,6.95,2.17,-2.17,-2.00,4.78,4.78,4.78
35.62,6.96,2.19,6.95,2.18,-2.18,-1.97,4.78,4.77,4.77
35.97,6.95,2.18,6.95,2.19,-2.19,-1.93,4.76,4.77,4.77
36.33,6.95,2.19,6.95,2.19,-2.19,-1.90,4.76,4.76,4.76
36.70,6.95,2.20,6.95,2.20,-2.20,-1.87,4.75,4.75,4.75
37.06,6.95,2.20,6.95,2.20,-2.20,-1.83,4.75,4.75,4.75
37.43,6.94,2.20,6.94,2.20,-2.20,-1.80,4.74,4.74,4.74
37.81,6.94,2.21,6.93,2.20,-2.20,-1.76,4.74,4.73,4.73
38.19,6.92,2.19,6.92,2.20,-2.20,-1.72,4.72,4.73,4.73
38.57,6.91,2.19,6.91,2.19,-2.19,-1.69,4.72,4.72,4.72
38.95,6.90,2.19,6.90,2.19,-2.19,-1.65,4.71,4.71,4.71
39.34,6.89,2.19,6.88,2.18,-2.18,-1.62,4.71,4.70,4.70
39.74,6.87,2.18,6.87,2.17,-2.17,-1.58,4.70,4.69,4.69
40.14,6.85,2.16,6.85,2.16,-2.16,-1.55,4.69,4.69,4.69
40.54,6.82,2.14,6.83,2.15,-2.15,-1.52,4.67,4.68,4.68
40.94,6.81,2.14,6.81,2.14,-2.14,-1.48,4.67,4.67,4.67
41.35,6.79,2.13,6.78,2.13,-2.13,-1.45,4.66,4.66,4.66
41.76,6.76,2.11,6.76,2.11,-2.11,-1.42,4.65,4.65,4.65
42.18,6.73,2.09,6.73,2.09,-2.09,-1.39,4.64,4.64,4.64
42.60,6.70,2.07,6.70,2.07,-2.07,-1.36,4.63,4.63,4.63
43.03,6.68,2.06,6.67,2.05,-2.05,-1.33,4.63,4.62,4.62
43.46,6.64,2.03,6.64,2.03,-2.03,-1.30,4.61,4.61,4.61
43.90,6.61,2.01,6.61,2.01,-2.01,-1.28,4.60,4.60,4.60
44.33,6.57,1.98,6.57,1.99,-1.99,-1.25,4.58,4.58,4.58
44.78,6.53,1.96,6.54,1.96,-1.96,-1.23,4.57,4.57,4.57
45.23,6.50,1.94,6.50,1.94,-1.94,-1.21,4.56,4.56,4.56
45.68,6.46,1.91,6.46,1.91,-1.91,-1.18,4.55,4.55,4.55
46.13,6.42,1.88,6.42,1.89,-1.89,-1.16,4.53,4.54,4.54
46.60,6.38,1.86,6.38,1.86,-1.86,-1.14,4.52,4.52,4.52
47.06,6.34,1.83,6.34,1.83,-1.83,-1.12,4.51,4.51,4.51
47.53,6.30,1.80,6.29,1.80,-1.80,-1.10,4.50,4.50,4.50
48.01,6.25,1.77,6.25,1.77,-1.77,-1.09,4.48,4.48,4.48
48.49,6.20,1.73,6.20,1.74,-1.74,-1.07,4.46,4.47,4.47
48.97,6.16,1.71,6.16,1.70,-1.70,-1.05,4.46,4.45,4.45
49.46,6.11,1.67,6.11,1.67,-1.67,-1.04,4.44,4.44,4.44
49.96,6.06,1.64,6.06,1.64,-1.64,-1.02,4.42,4.42,4.42
50.46,6.00,1.60,6.01,1.60,-1.60,-1.01,4.40,4.41,4.40
50.96,5.95,1.56,5.95,1.56,-1.56,-1.00,4.39,4.39,4.39
51.47,5.90,1.53,5.90,1.53,-1.53,-0.98,4.37,4.37,4.37
51.99,5.84,1.49,5.84,1.49,-1.49,-0.97,4.35,4.35,4.35
52.51,5.79,1.45,5.78,1.45,-1.45,-0.96,4.34,4.33,4.34
53.03,5.72,1.40,5.72,1.41,-1.41,-0.95,4.31,4.32,4.32
53.56,5.66,1.36,5.66,1.37,-1.37,-0.94,4.29,4.30,4.30
54.10,5.61,1.33,5.60,1.33,-1.33,-0.93,4.28,4.28,4.28
54.64,5.54,1.28,5.54,1.28,-1.28,-0.92,4.26,4.26,4.26
55.18,5.48,1.24,5.48,1.24,-1.24,-0.90,4.24,4.24,4.24
55.74,5.41,1.19,5.42,1.20,-1.20,-0.89,4.21,4.22,4.22
56.29,5.35,1.15,5.35,1.16,-1.16,-0.88,4.19,4.19,4.20
56.86,5.28,1.11,5.29,1.11,-1.11,-0.87,4.17,4.17,4.17
57.42,5.22,1.07,5.22,1.07,-1.07,-0.86,4.15,4.15,4.15
58.00,5.16,1.03,5.15,1.03,-1.03,-0.85,4.13,4.13,4.13
58.58,5.09,0.99,5.09,0.98,-0.98,-0.84,4.11,4.10,4.10
59.16,5.02,0.94,5.02,0.94,-0.94,-0.82,4.08,4.08,4.08
59.76,4.95,0.90,4.95,0.90,-0.90,-0.81,4.05,4.05,4.05
60.35,4.88,0.85,4.88,0.85,-0.85,-0.80,4.03,4.03,4.03
60.96,4.81,0.81,4.81,0.81,-0.81,-0.78,4.00,4.00,4.00
61.57,4.74,0.76,4.74,0.76,-0.76,-0.77,3.98,3.98,3.98
62.18,4.67,0.72,4.67,0.72,-0.72,-0.75,3.95,3.95,3.95
62.80,4.60,0.68,4.60,0.67,-0.67,-0.74,3.93,3.92,3.92
63.43,4.52,0.63,4.52,0.63,-0.63,-0.72,3.89,3.89,3.89
64.07,4.45,0.59,4.45,0.58,-0.58,-0.70,3.87,3.86,3.86
64.71,4.37,0.54,4.37,0.54,-0.54,-0.68,3.83,3.83,3.83
65.35,4.29,0.49,4.29,0.49,-0.49,-0.66,3.80,3.80,3.80
66.01,4.22,0.45,4.21,0.44,-0.44,-0.64,3.78,3.77,3.77
66.67,4.14,0.40,4.14,0.39,-0.39,-0.62,3.75,3.74,3.74
67.33,4.05,0.34,4.06,0.35,-0.35,-0.59,3.70,3.71,3.71
68.01,3.97,0.29,3.97,0.30,-0.30,-0.57,3.67,3.68,3.68
68.69,3.90,0.26,3.89,0.25,-0.25,-0.55,3.65,3.64,3.64
69.37,3.81,0.20,3.81,0.20,-0.20,-0.52,3.60,3.61,3.61
70.07,3.73,0.16,3.73,0.16,-0.16,-0.50,3.57,3.57,3.57
70.77,3.65,0.11,3.65,0.11,-0.11,-0.47,3.54,3.54,3.54
71.48,3.57,0.07,3.57,0.06,-0.06,-0.44,3.51,3.50,3.50
72.19,3.48,0.01,3.48,0.02,-0.02,-0.42,3.46,3.47,3.47
72.91,3.40,-0.03,3.40,-0.03,0.03,-0.39,3.43,3.43,3.43
73.64,3.32,-0.07,3.32,-0.07,0.07,-0.36,3.39,3.39,3.39
74.38,3.23,-0.12,3.24,-0.11,0.11,-0.33,3.34,3.35,3.35
75.12,3.16,-0.15,3.16,-0.16,0.16,-0.30,3.32,3.31,3.31
75.87,3.08,-0.19,3.08,-0.20,0.20,-0.27,3.28,3.27,3.27
76.63,3.00,-0.23,2.99,-0.24,0.24,-0.24,3.24,3.23,3.23
77.40,2.91,-0.28,2.91,-0.28,0.28,-0.21,3.19,3.19,3.19
78.17,2.84,-0.31,2.83,-0.32,0.32,-0.18,3.16,3.15,3.15
78.95,2.75,-0.36,2.75,-0.36,0.36,-0.15,3.11,3.11,3.11
79.74,2.67,-0.40,2.67,-0.40,0.40,-0.12,3.07,3.07,3.07
80.54,2.59,-0.44,2.59,-0.43,0.43,-0.09,3.02,3.02,3.03
81.35,2.52,-0.46,2.51,-0.47,0.47,-0.06,2.99,2.98,2.98
82.16,2.43,-0.51,2.43,-0.50,0.50,-0.02,2.93,2.94,2.94
82.98,2.35,-0.54,2.36,-0.54,0.54,0.01,2.89,2.89,2.89
83.81,2.28,-0.57,2.28,-0.57,0.57,0.04,2.85,2.85,2.85
84.65,2.21,-0.59,2.20,-0.60,0.60,0.08,2.81,2.80,2.80
85.50,2.12,-0.64,2.13,-0.63,0.63,0.11,2.75,2.76,2.76
86.35,2.06,-0.65,2.05,-0.66,0.66,0.14,2.72,2.71,2.71
87.22,1.98,-0.69,1.98,-0.69,0.69,0.18,2.67,2.67,2.67
88.09,1.91,-0.71,1.91,-0.71,0.71,0.21,2.62,2.62,2.62
88.97,1.83,-0.74,1.84,-0.73,0.73,0.24,2.56,2.57,2.57
89.86,1.77,-0.76,1.77,-0.76,0.76,0.28,2.53,2.52,2.53
90.76,1.70,-0.78,1.70,-0.78,0.78,0.31,2.48,2.48,2.48
91.66,1.63,-0.80,1.63,-0.80,0.80,0.35,2.43,2.43,2.43
92.58,1.56,-0.82,1.57,-0.81,0.81,0.38,2.37,2.38,2.38
93.51,1.50,-0.83,1.50,-0.83,0.83,0.42,2.33,2.33,2.33
94.44,1.44,-0.85,1.44,-0.84,0.84,0.45,2.28,2.28,2.28
95.39,1.38,-0.86,1.38,-0.86,0.86,0.49,2.24,2.24,2.24
96.34,1.32,-0.87,1.32,-0.87,0.87,0.52,2.19,2.19,2.19
97.30,1.26,-0.88,1.26,-0.88,0.88,0.56,2.14,2.14,2.14
98.28,1.21,-0.88,1.21,-0.88,0.88,0.60,2.09,2.09,2.09
99.26,1.15,-0.89,1.15,-0.89,0.89,0.63,2.04,2.04,2.04
100.25,1.10,-0.89,1.09,-0.90,0.90,0.67,2.00,1.99,1.99
101.25,1.04,-0.90,1.04,-0.90,0.90,0.70,1.94,1.94,1.94
102.27,0.99,-0.90,0.99,-0.91,0.91,0.74,1.90,1.89,1.89
103.29,0.94,-0.91,0.94,-0.91,0.91,0.77,1.85,1.85,1.85
104.32,0.89,-0.91,0.89,-0.91,0.91,0.80,1.80,1.80,1.80
105.37,0.84,-0.91,0.84,-0.91,0.91,0.83,1.75,1.75,1.75
106.42,0.79,-0.91,0.79,-0.91,0.91,0.87,1.70,1.70,1.70
107.48,0.74,-0.91,0.74,-0.91,0.91,0.90,1.65,1.65,1.65
108.56,0.70,-0.90,0.70,-0.90,0.90,0.92,1.60,1.60,1.60
109.64,0.65,-0.91,0.65,-0.90,0.90,0.95,1.55,1.55,1.55
110.74,0.61,-0.90,0.61,-0.89,0.89,0.98,1.50,1.51,1.51
111.85,0.57,-0.89,0.57,-0.89,0.89,1.00,1.46,1.46,1.46
112.97,0.53,-0.88,0.53,-0.88,0.88,1.02,1.41,1.41,1.41
114.10,0.50,-0.87,0.50,-0.87,0.87,1.04,1.37,1.37,1.37
115.24,0.45,-0.87,0.46,-0.86,0.86,1.06,1.31,1.32,1.32
116.39,0.43,-0.84,0.43,-0.85,0.85,1.07,1.28,1.27,1.27
117.55,0.40,-0.83,0.39,-0.83,0.83,1.08,1.23,1.23,1.23
118.73,0.37,-0.81,0.36,-0.82,0.82,1.09,1.19,1.18,1.18
119.92,0.33,-0.81,0.34,-0.80,0.80,1.10,1.13,1.14,1.14
121.12,0.31,-0.78,0.31,-0.78,0.78,1.10,1.09,1.09,1.09
122.33,0.28,-0.77,0.28,-0.76,0.76,1.10,1.04,1.05,1.05
123.55,0.26,-0.75,0.26,-0.74,0.74,1.09,1.00,1.01,1.01
124.79,0.24,-0.72,0.24,-0.72,0.72,1.08,0.96,0.96,0.96
126.03,0.22,-0.70,0.22,-0.70,0.70,1.07,0.92,0.92,0.92
127.29,0.20,-0.68,0.20,-0.67,0.67,1.06,0.87,0.88,0.88
128.57,0.19,-0.65,0.19,-0.65,0.65,1.04,0.84,0.84,0.84
129.85,0.17,-0.63,0.17,-0.62,0.62,1.01,0.79,0.79,0.79
131.15,0.16,-0.59,0.16,-0.60,0.60,0.99,0.76,0.75,0.75
132.46,0.15,-0.56,0.15,-0.57,0.57,0.96,0.72,0.71,0.71
133.79,0.14,-0.54,0.14,-0.54,0.54,0.93,0.68,0.67,0.68
135.12,0.13,-0.51,0.13,-0.50,0.50,0.89,0.63,0.64,0.64
136.48,0.12,-0.48,0.13,-0.47,0.47,0.85,0.59,0.60,0.60
137.84,0.12,-0.44,0.12,-0.44,0.44,0.81,0.56,0.56,0.56
139.22,0.12,-0.40,0.12,-0.40,0.40,0.77,0.52,0.52,0.52
140.61,0.11,-0.38,0.12,-0.37,0.37,0.72,0.48,0.49,0.49
142.02,0.12,-0.33,0.12,-0.33,0.33,0.68,0.45,0.45,0.45
143.44,0.13,-0.29,0.12,-0.29,0.29,0.63,0.42,0.42,0.42
144.87,0.13,-0.25,0.13,-0.26,0.26,0.57,0.39,0.38,0.38
146.32,0.13,-0.22,0.13,-0.22,0.22,0.52,0.35,0.35,0.35
147.78,0.14,-0.18,0.14,-0.18,0.18,0.46,0.32,0.32,0.32
149.26,0.15,-0.13,0.14,-0.14,0.14,0.41,0.29,0.28,0.28
150.75,0.15,-0.10,0.15,-0.10,0.10,0.35,0.25,0.25,0.25
152.26,0.16,-0.06,0.16,-0.06,0.06,0.29,0.22,0.22,0.22
153.78,0.17,-0.02,0.17,-0.02,0.02,0.23,0.19,0.19,0.19
155.32,0.18,0.02,0.17,0.02,-0.02,0.17,0.16,0.16,0.16
156.88,0.18,0.05,0.19,0.06,-0.06,0.10,0.12,0.13,0.13
158.44,0.20,0.10,0.20,0.10,-0.10,0.04,0.10,0.10,0.10
160.03,0.21,0.14,0.21,0.14,-0.14,-0.03,0.07,0.07,0.07
161.63,0.22,0.17,0.23,0.18,-0.18,-0.09,0.04,0.04,0.05
163.24,0.24,0.22,0.24,0.23,-0.23,-0.16,0.01,0.02,0.02
164.88,0.26,0.27,0.26,0.27,-0.27,-0.22,-0.01,-0.01,-0.01
166.53,0.28,0.31,0.28,0.32,-0.32,-0.29,-0.04,-0.03,-0.03
168.19,0.30,0.36,0.31,0.37,-0.37,-0.36,-0.07,-0.06,-0.06
169.87,0.33,0.41,0.33,0.41,-0.41,-0.43,-0.08,-0.08,-0.08
171.57,0.36,0.47,0.36,0.46,-0.46,-0.50,-0.10,-0.11,-0.11
173.29,0.39,0.52,0.38,0.51,-0.51,-0.57,-0.12,-0.13,-0.13
175.02,0.41,0.56,0.41,0.57,-0.57,-0.64,-0.16,-0.15,-0.15
176.77,0.45,0.63,0.44,0.62,-0.62,-0.71,-0.17,-0.18,-0.18
178.54,0.47,0.67,0.47,0.67,-0.67,-0.78,-0.20,-0.20,-0.20
180.32,0.51,0.73,0.50,0.72,-0.72,-0.85,-0.21,-0.22,-0.22
182.13,0.53,0.77,0.54,0.78,-0.78,-0.92,-0.25,-0.24,-0.24
183.95,0.56,0.82,0.57,0.83,-0.83,-0.99,-0.27,-0.26,-0.26
185.79,0.60,0.88,0.60,0.88,-0.88,-1.07,-0.28,-0.28,-0.28
187.65,0.64,0.94,0.64,0.94,-0.94,-1.14,-0.30,-0.30,-0.30
189.52,0.67,0.99,0.68,0.99,-0.99,-1.22,-0.32,-0.32,-0.32
191.42,0.71,1.05,0.71,1.05,-1.05,-1.29,-0.34,-0.34,-0.34
193.33,0.75,1.10,0.75,1.10,-1.10,-1.36,-0.36,-0.36,-0.35
195.27,0.79,1.16,0.79,1.16,-1.16,-1.44,-0.37,-0.37,-0.37
197.22,0.83,1.22,0.83,1.22,-1.22,-1.51,-0.39,-0.39,-0.39
199.19,0.87,1.27,0.87,1.27,-1.27,-1.59,-0.40,-0.41,-0.40
201.18,0.90,1.32,0.90,1.32,-1.32,-1.66,-0.42,-0.42,-0.42
203.19,0.95,1.39,0.94,1.38,-1.38,-1.74,-0.43,-0.44,-0.44
205.23,0.98,1.43,0.98,1.43,-1.43,-1.81,-0.45,-0.45,-0.45
207.28,1.02,1.49,1.02,1.48,-1.48,-1.88,-0.46,-0.47,-0.47
209.35,1.05,1.53,1.06,1.54,-1.54,-1.96,-0.49,-0.48,-0.48
211.44,1.09,1.58,1.09,1.59,-1.59,-2.03,-0.50,-0.49,-0.49
213.56,1.13,1.64,1.13,1.63,-1.63,-2.10,-0.50,-0.51,-0.51
215.69,1.16,1.68,1.16,1.68,-1.68,-2.16,-0.52,-0.52,-0.52
217.85,1.20,1.73,1.19,1.73,-1.73,-2.23,-0.53,-0.53,-0.53
220.03,1.23,1.78,1.23,1.77,-1.77,-2.29,-0.54,-0.55,-0.55
222.23,1.26,1.82,1.26,1.82,-1.82,-2.36,-0.56,-0.56,-0.56
224.45,1.29,1.86,1.29,1.86,-1.86,-2.41,-0.57,-0.57,-0.57
226.70,1.32,1.90,1.32,1.90,-1.90,-2.47,-0.58,-0.58,-0.58
228.96,1.35,1.94,1.35,1.94,-1.94,-2.52,-0.59,-0.59,-0.59
231.25,1.38,1.98,1.38,1.98,-1.98,-2.57,-0.60,-0.60,-0.60
233.57,1.40,2.01,1.41,2.02,-2.02,-2.62,-0.62,-0.62,-0.61
235.90,1.43,2.05,1.43,2.06,-2.06,-2.66,-0.63,-0.63,-0.63
238.26,1.46,2.09,1.46,2.10,-2.10,-2.69,-0.64,-0.64,-0.64
240.64,1.48,2.12,1.49,2.13,-2.13,-2.72,-0.65,-0.65,-0.64
243.05,1.51,2.16,1.51,2.17,-2.17,-2.75,-0.66,-0.66,-0.65
245.48,1.54,2.20,1.54,2.20,-2.20,-2.77,-0.66,-0.66,-0.66
247.93,1.56,2.23,1.56,2.24,-2.24,-2.78,-0.68,-0.67,-0.67
250.41,1.59,2.27,1.59,2.27,-2.27,-2.79,-0.68,-0.68,-0.68
252.92,1.61,2.30,1.61,2.30,-2.30,-2.80,-0.69,-0.69,-0.69
255.45,1.63,2.33,1.63,2.33,-2.33,-2.80,-0.70,-0.70,-0.70
258.00,1.65,2.36,1.66,2.36,-2.36,-2.79,-0.71,-0.71,-0.71
260.58,1.68,2.39,1.68,2.39,-2.39,-2.78,-0.71,-0.71,-0.71
263.19,1.70,2.42,1.70,2.42,-2.42,-2.77,-0.72,-0.72,-0.72
265.82,1.72,2.45,1.71,2.44,-2.44,-2.75,-0.72,-0.73,-0.73
268.48,1.73,2.47,1.73,2.47,-2.47,-2.72,-0.74,-0.74,-0.74
271.16,1.75,2.49,1.75,2.49,-2.49,-2.70,-0.74,-0.74,-0.74
273.87,1.76,2.51,1.76,2.51,-2.51,-2.66,-0.75,-0.75,-0.75
276.61,1.77,2.53,1.77,2.52,-2.52,-2.63,-0.75,-0.76,-0.76
279.38,1.77,2.53,1.78,2.54,-2.54,-2.59,-0.77,-0.76,-0.76
282.17,1.79,2.56,1.79,2.55,-2.55,-2.55,-0.76,-0.77,-0.77
284.99,1.79,2.56,1.79,2.57,-2.57,-2.51,-0.78,-0.77,-0.77
287.84,1.79,2.57,1.79,2.57,-2.57,-2.46,-0.78,-0.78,-0.78
290.72,1.80,2.59,1.80,2.58,-2.58,-2.41,-0.78,-0.79,-0.79
293.63,1.80,2.59,1.80,2.59,-2.59,-2.36,-0.79,-0.79,-0.79
296.57,1.80,2.60,1.79,2.59,-2.59,-2.31,-0.79,-0.80,-0.80
299.53,1.79,2.59,1.79,2.59,-2.59,-2.26,-0.80,-0.80,-0.80
302.53,1.78,2.59,1.78,2.59,-2.59,-2.21,-0.81,-0.81,-0.81
305.55,1.78,2.59,1.78,2.59,-2.59,-2.16,-0.81,-0.81,-0.81
308.61,1.76,2.58,1.77,2.58,-2.58,-2.11,-0.82,-0.82,-0.82
311.69,1.76,2.58,1.76,2.58,-2.58,-2.06,-0.82,-0.82,-0.82
314.81,1.75,2.58,1.74,2.57,-2.57,-2.00,-0.82,-0.83,-0.83
317.96,1.73,2.56,1.73,2.56,-2.56,-1.95,-0.83,-0.83,-0.83
321.14,1.71,2.54,1.71,2.54,-2.54,-1.90,-0.83,-0.83,-0.83
324.35,1.69,2.53,1.69,2.53,-2.53,-1.85,-0.84,-0.84,-0.84
327.59,1.67,2.51,1.67,2.51,-2.51,-1.80,-0.84,-0.84,-0.84
330.87,1.65,2.50,1.65,2.50,-2.50,-1.75,-0.85,-0.85,-0.85
334.18,1.63,2.48,1.63,2.48,-2.48,-1.70,-0.85,-0.85,-0.85
337.52,1.60,2.45,1.60,2.46,-2.46,-1.66,-0.86,-0.85,-0.85
340.90,1.58,2.44,1.58,2.43,-2.43,-1.61,-0.85,-0.86,-0.86
344.30,1.55,2.41,1.55,2.41,-2.41,-1.57,-0.86,-0.86,-0.86
347.75,1.52,2.38,1.52,2.39,-2.39,-1.52,-0.87,-0.86,-0.86
351.23,1.50,2.37,1.49,2.36,-2.36,-1.48,-0.86,-0.87,-0.87
354.74,1.46,2.33,1.46,2.33,-2.33,-1.44,-0.87,-0.87,-0.87
358.28,1.43,2.30,1.43,2.31,-2.31,-1.40,-0.88,-0.87,-0.87
361.87,1.40,2.28,1.40,2.28,-2.28,-1.36,-0.88,-0.88,-0.88
365.49,1.37,2.25,1.37,2.25,-2.25,-1.32,-0.88,-0.88,-0.88
369.14,1.33,2.21,1.33,2.22,-2.22,-1.29,-0.89,-0.88,-0.88
372.83,1.30,2.18,1.30,2.18,-2.18,-1.25,-0.88,-0.89,-0.89
376.56,1.26,2.15,1.26,2.15,-2.15,-1.22,-0.89,-0.89,-0.89
380.33,1.23,2.12,1.23,2.12,-2.12,-1.18,-0.89,-0.89,-0.89
384.13,1.19,2.08,1.19,2.08,-2.08,-1.15,-0.89,-0.89,-0.89
387.97,1.15,2.05,1.15,2.05,-2.05,-1.12,-0.90,-0.90,-0.90
391.85,1.11,2.01,1.12,2.01,-2.01,-1.09,-0.90,-0.90,-0.90
395.77,1.08,1.98,1.08,1.98,-1.98,-1.06,-0.90,-0.90,-0.90
399.73,1.04,1.94,1.04,1.94,-1.94,-1.03,-0.90,-0.90,-0.90
403.72,1.00,1.90,1.00,1.91,-1.91,-1.01,-0.91,-0.91,-0.90
407.76,0.96,1.87,0.96,1.87,-1.87,-0.98,-0.91,-0.91,-0.91
411.84,0.92,1.83,0.92,1.83,-1.83,-0.95,-0.91,-0.91,-0.91
415.96,0.88,1.79,0.88,1.79,-1.79,-0.93,-0.91,-0.91,-0.91
420.12,0.83,1.75,0.83,1.75,-1.75,-0.91,-0.92,-0.92,-0.92
424.32,0.79,1.71,0.79,1.71,-1.71,-0.88,-0.92,-0.92,-0.92
428.56,0.75,1.67,0.75,1.67,-1.67,-0.86,-0.92,-0.92,-0.92
432.85,0.70,1.62,0.70,1.62,-1.62,-0.84,-0.92,-0.92,-0.92
437.18,0.65,1.57,0.66,1.58,-1.58,-0.81,-0.93,-0.92,-0.92
441.55,0.62,1.54,0.61,1.53,-1.53,-0.79,-0.91,-0.92,-0.92
445.96,0.57,1.49,0.57,1.49,-1.49,-0.77,-0.92,-0.92,-0.92
450.42,0.52,1.44,0.52,1.44,-1.44,-0.75,-0.92,-0.92,-0.92
454.93,0.48,1.39,0.48,1.39,-1.39,-0.73,-0.91,-0.91,-0.91
459.48,0.43,1.34,0.43,1.34,-1.34,-0.71,-0.91,-0.91,-0.91
464.07,0.38,1.28,0.39,1.29,-1.29,-0.69,-0.91,-0.90,-0.90
468.71,0.34,1.24,0.34,1.24,-1.24,-0.67,-0.90,-0.90,-0.90
473.40,0.30,1.19,0.30,1.18,-1.18,-0.65,-0.88,-0.89,-0.89
478.13,0.25,1.13,0.25,1.13,-1.13,-0.63,-0.88,-0.88,-0.88
482.91,0.21,1.08,0.20,1.07,-1.07,-0.61,-0.86,-0.87,-0.87
487.74,0.16,1.02,0.16,1.02,-1.02,-0.59,-0.86,-0.86,-0.86
492.62,0.11,0.95,0.11,0.96,-0.96,-0.57,-0.85,-0.84,-0.84
497.55,0.07,0.90,0.07,0.90,-0.90,-0.55,-0.83,-0.83,-0.83
502.52,0.02,0.83,0.02,0.83,-0.83,-0.53,-0.81,-0.82,-0.81
507.55,-0.03,0.77,-0.03,0.77,-0.77,-0.51,-0.80,-0.80,-0.80
512.62,-0.08,0.70,-0.08,0.71,-0.71,-0.49,-0.79,-0.78,-0.78
517.75,-0.12,0.65,-0.13,0.64,-0.64,-0.47,-0.76,-0.77,-0.77
522.93,-0.18,0.57,-0.17,0.58,-0.58,-0.44,-0.76,-0.75,-0.75
528.16,-0.22,0.51,-0.23,0.51,-0.51,-0.42,-0.73,-0.73,-0.73
533.44,-0.27,0.44,-0.27,0.44,-0.44,-0.40,-0.71,-0.71,-0.71
538.77,-0.32,0.37,-0.32,0.37,-0.37,-0.38,-0.69,-0.69,-0.69
544.16,-0.38,0.29,-0.37,0.29,-0.29,-0.36,-0.67,-0.67,-0.67
549.60,-0.43,0.22,-0.43,0.22,-0.22,-0.33,-0.65,-0.65,-0.65
555.10,-0.47,0.15,-0.48,0.15,-0.15,-0.31,-0.62,-0.62,-0.62
560.65,-0.53,0.07,-0.53,0.07,-0.07,-0.29,-0.60,-0.60,-0.60
566.25,-0.58,-0.01,-0.58,-0.01,0.01,-0.26,-0.57,-0.57,-0.57
571.92,-0.63,-0.09,-0.63,-0.08,0.08,-0.24,-0.55,-0.54,-0.54
577.64,-0.68,-0.17,-0.68,-0.16,0.16,-0.22,-0.52,-0.52,-0.51
583.41,-0.73,-0.24,-0.73,-0.24,0.24,-0.19,-0.49,-0.49,-0.49
589.25,-0.77,-0.31,-0.78,-0.32,0.32,-0.17,-0.45,-0.46,-0.46
595.14,-0.83,-0.40,-0.83,-0.40,0.40,-0.14,-0.43,-0.43,-0.43
601.09,-0.88,-0.48,-0.88,-0.48,0.48,-0.12,-0.40,-0.40,-0.40
607.10,-0.93,-0.56,-0.93,-0.57,0.57,-0.09,-0.36,-0.37,-0.37
613.17,-0.98,-0.64,-0.98,-0.65,0.65,-0.07,-0.33,-0.34,-0.34
619.30,-1.04,-0.74,-1.04,-0.73,0.73,-0.04,-0.31,-0.31,-0.30
625.50,-1.09,-0.82,-1.09,-0.81,0.81,-0.02,-0.28,-0.27,-0.27
631.75,-1.14,-0.90,-1.14,-0.90,0.90,0.01,-0.24,-0.24,-0.24
638.07,-1.19,-0.98,-1.19,-0.98,0.98,0.03,-0.21,-0.21,-0.21
644.45,-1.24,-1.06,-1.24,-1.07,1.07,0.06,-0.17,-0.18,-0.18
650.89,-1.29,-1.15,-1.29,-1.15,1.15,0.08,-0.14,-0.14,-0.14
657.40,-1.34,-1.23,-1.34,-1.23,1.23,0.11,-0.11,-0.11,-0.11
663.98,-1.39,-1.31,-1.39,-1.32,1.32,0.14,-0.07,-0.07,-0.08
670.62,-1.44,-1.40,-1.44,-1.41,1.41,0.16,-0.03,-0.04,-0.04
677.32,-1.50,-1.49,-1.49,-1.49,1.49,0.19,-0.01,-0.00,-0.01
684.10,-1.54,-1.57,-1.54,-1.58,1.58,0.22,0.04,0.03,0.03
690.94,-1.58,-1.65,-1.59,-1.66,1.66,0.24,0.08,0.07,0.07
697.85,-1.64,-1.75,-1.64,-1.75,1.75,0.27,0.11,0.11,0.11
704.83,-1.68,-1.82,-1.68,-1.83,1.83,0.30,0.15,0.15,0.14
711.87,-1.72,-1.90,-1.73,-1.91,1.91,0.33,0.19,0.18,0.18
718.99,-1.77,-1.99,-1.77,-1.99,1.99,0.36,0.22,0.22,0.22
