frequency,raw,error,smoothed,error_smoothed,equalization,parametric_eq,fixed_band_eq,equalized_raw,equalized_smoothed,target
20.00,1.65,-2.02,1.63,-2.07,2.07,2.11,0.37,3.72,3.70,3.68
20.20,1.69,-2.01,1.68,-2.04,2.04,2.13,0.38,3.74,3.72,3.71
20.40,1.71,-2.02,1.72,-2.02,2.02,2.15,0.39,3.73,3.74,3.74
20.61,1.75,-2.00,1.77,-1.99,1.99,2.16,0.41,3.74,3.76,3.76
20.81,1.80,-1.98,1.82,-1.96,1.96,2.16,0.42,3.76,3.78,3.79
21.02,1.85,-1.96,1.86,-1.93,1.93,2.15,0.44,3.78,3.79,3.82
21.23,1.90,-1.92,1.91,-1.90,1.90,2.14,0.45,3.80,3.81,3.83
21.44,1.94,-1.89,1.95,-1.87,1.87,2.12,0.47,3.81,3.82,3.84
21.66,1.99,-1.85,2.00,-1.83,1.83,2.09,0.48,3.83,3.83,3.85
21.87,2.04,-1.80,2.04,-1.80,1.80,2.06,0.50,3.84,3.84,3.85
22.09,2.08,-1.77,2.09,-1.76,1.76,2.02,0.51,3.85,3.85,3.86
22.31,2.13,-1.72,2.13,-1.73,1.73,1.98,0.53,3.86,3.85,3.86
22.54,2.17,-1.68,2.17,-1.68,1.68,1.94,0.55,3.86,3.86,3.85
22.76,2.22,-1.63,2.22,-1.64,1.64,1.89,0.57,3.86,3.86,3.85
22.99,2.26,-1.58,2.26,-1.59,1.59,1.83,0.59,3.86,3.85,3.84
23.22,2.29,-1.55,2.30,-1.55,1.55,1.78,0.60,3.85,3.85,3.84
23.45,2.34,-1.50,2.34,-1.51,1.51,1.72,0.62,3.85,3.85,3.84
23.69,2.37,-1.47,2.38,-1.47,1.47,1.66,0.64,3.84,3.85,3.84
23.92,2.41,-1.43,2.42,-1.43,1.43,1.61,0.66,3.84,3.85,3.84
24.16,2.46,-1.39,2.46,-1.39,1.39,1.55,0.68,3.85,3.85,3.85
24.40,2.49,-1.36,2.49,-1.35,1.35,1.49,0.70,3.85,3.84,3.85
24.65,2.52,-1.32,2.52,-1.32,1.32,1.43,0.72,3.84,3.84,3.84
24.89,2.55,-1.29,2.55,-1.29,1.29,1.37,0.75,3.84,3.84,3.84
25.14,2.58,-1.26,2.58,-1.26,1.26,1.31,0.77,3.84,3.84,3.84
25.39,2.62,-1.22,2.61,-1.23,1.23,1.26,0.79,3.85,3.84,3.84
25.65,2.65,-1.19,2.64,-1.20,1.20,1.20,0.81,3.85,3.84,3.84
25.91,2.67,-1.16,2.67,-1.17,1.17,1.15,0.83,3.84,3.84,3.83
26.16,2.68,-1.14,2.69,-1.14,1.14,1.10,0.85,3.83,3.83,3.83
26.43,2.71,-1.11,2.71,-1.12,1.12,1.05,0.86,3.83,3.83,3.83
26.69,2.72,-1.10,2.74,-1.09,1.09,1.00,0.88,3.81,3.83,3.83
26.96,2.76,-1.06,2.76,-1.07,1.07,0.95,0.90,3.83,3.82,3.83
27.23,2.76,-1.06,2.78,-1.04,1.04,0.90,0.92,3.81,3.82,3.83
27.50,2.81,-1.01,2.80,-1.02,1.02,0.86,0.93,3.83,3.82,3.82
27.77,2.81,-1.00,2.82,-0.99,0.99,0.82,0.95,3.81,3.82,3.81
28.05,2.85,-0.96,2.84,-0.97,0.97,0.78,0.96,3.83,3.81,3.81
28.33,2.85,-0.95,2.86,-0.95,0.95,0.74,0.97,3.80,3.81,3.80
28.62,2.89,-0.91,2.88,-0.92,0.92,0.70,0.98,3.81,3.80,3.80
28.90,2.90,-0.90,2.91,-0.90,0.90,0.66,0.99,3.80,3.80,3.80
29.19,2.93,-0.86,2.93,-0.87,0.87,0.63,0.99,3.80,3.80,3.79
29.48,2.95,-0.85,2.95,-0.84,0.84,0.59,1.00,3.79,3.79,3.80
29.78,2.97,-0.81,2.98,-0.81,0.81,0.56,1.00,3.78,3.79,3.79
30.08,2.99,-0.79,3.00,-0.78,0.78,0.53,1.00,3.77,3.78,3.79
30.38,3.03,-0.74,3.03,-0.74,0.74,0.50,0.99,3.78,3.78,3.78
30.68,3.06,-0.71,3.06,-0.71,0.71,0.47,0.98,3.77,3.77,3.77
30.99,3.09,-0.67,3.10,-0.67,0.67,0.44,0.98,3.77,3.77,3.76
31.30,3.13,-0.63,3.13,-0.63,0.63,0.41,0.96,3.77,3.76,3.76
31.61,3.16,-0.60,3.17,-0.59,0.59,0.39,0.95,3.75,3.76,3.76
31.93,3.19,-0.56,3.21,-0.54,0.54,0.36,0.93,3.74,3.75,3.75
32.24,3.24,-0.49,3.25,-0.50,0.50,0.33,0.91,3.74,3.75,3.74
32.57,3.28,-0.45,3.29,-0.45,0.45,0.31,0.89,3.73,3.74,3.74
32.89,3.33,-0.40,3.33,-0.40,0.40,0.29,0.86,3.73,3.73,3.74
33.22,3.38,-0.34,3.38,-0.34,0.34,0.26,0.83,3.73,3.73,3.72
33.55,3.44,-0.28,3.43,-0.29,0.29,0.24,0.80,3.73,3.72,3.72
33.89,3.47,-0.24,3.48,-0.23,0.23,0.22,0.77,3.71,3.71,3.71
34.23,3.53,-0.18,3.53,-0.18,0.18,0.20,0.74,3.71,3.70,3.71
34.57,3.58,-0.11,3.58,-0.12,0.12,0.18,0.70,3.70,3.70,3.70
34.92,3.62,-0.06,3.63,-0.06,0.06,0.16,0.66,3.68,3.69,3.69
35.27,3.67,-0.01,3.68,0.00,-0.00,0.14,0.62,3.67,3.68,3.68
35.62,3.72,0.05,3.73,0.06,-0.06,0.12,0.58,3.66,3.67,3.67
35.97,3.79,0.13,3.79,0.12,-0.12,0.10,0.53,3.67,3.66,3.66
36.33,3.85,0.20,3.84,0.18,-0.18,0.08,0.48,3.67,3.65,3.66
36.70,3.88,0.24,3.89,0.25,-0.25,0.06,0.44,3.64,3.65,3.65
37.06,3.94,0.31,3.95,0.31,-0.31,0.04,0.39,3.63,3.64,3.63
37.43,3.99,0.36,4.00,0.38,-0.38,0.02,0.34,3.62,3.63,3.63
37.81,4.05,0.44,4.06,0.44,-0.44,0.00,0.29,3.61,3.62,3.62
38.19,4.09,0.49,4.11,0.50,-0.50,-0.01,0.24,3.59,3.61,3.61
38.57,4.14,0.54,4.16,0.56,-0.56,-0.03,0.19,3.58,3.60,3.60
38.95,4.19,0.60,4.21,0.62,-0.62,-0.05,0.13,3.57,3.59,3.59
39.34,4.25,0.68,4.25,0.68,-0.68,-0.07,0.08,3.58,3.58,3.58
39.74,4.30,0.74,4.29,0.72,-0.72,-0.08,0.03,3.58,3.57,3.56
40.14,4.35,0.79,4.32,0.76,-0.76,-0.10,-0.03,3.59,3.56,3.56
40.54,4.36,0.82,4.35,0.80,-0.80,-0.12,-0.09,3.57,3.55,3.55
40.94,4.39,0.85,4.37,0.82,-0.82,-0.14,-0.14,3.57,3.54,3.54
41.35,4.39,0.86,4.38,0.84,-0.84,-0.16,-0.20,3.55,3.54,3.53
41.76,4.39,0.87,4.38,0.86,-0.86,-0.17,-0.25,3.54,3.52,3.53
42.18,4.39,0.87,4.38,0.86,-0.86,-0.19,-0.31,3.53,3.51,3.52
42.60,4.37,0.87,4.36,0.86,-0.86,-0.21,-0.37,3.52,3.50,3.51
43.03,4.35,0.85,4.34,0.85,-0.85,-0.23,-0.43,3.51,3.49,3.50
43.46,4.30,0.81,4.31,0.83,-0.83,-0.25,-0.49,3.47,3.48,3.49
43.90,4.27,0.81,4.27,0.81,-0.81,-0.26,-0.54,3.47,3.47,3.47
44.33,4.23,0.78,4.23,0.78,-0.78,-0.28,-0.60,3.45,3.46,3.45
44.78,4.19,0.76,4.19,0.75,-0.75,-0.30,-0.66,3.45,3.44,3.44
45.23,4.14,0.72,4.15,0.72,-0.72,-0.32,-0.72,3.43,3.43,3.42
45.68,4.09,0.69,4.10,0.69,-0.69,-0.34,-0.78,3.41,3.41,3.41
46.13,4.05,0.66,4.05,0.66,-0.66,-0.36,-0.85,3.40,3.40,3.39
46.60,4.00,0.62,4.01,0.63,-0.63,-0.38,-0.91,3.38,3.38,3.38
47.06,3.96,0.60,3.97,0.61,-0.61,-0.40,-0.97,3.36,3.36,3.37
47.53,3.93,0.58,3.93,0.58,-0.58,-0.42,-1.03,3.35,3.34,3.35
48.01,3.88,0.54,3.89,0.57,-0.57,-0.45,-1.09,3.32,3.33,3.35
48.49,3.84,0.52,3.87,0.56,-0.56,-0.47,-1.16,3.29,3.31,3.32
48.97,3.83,0.54,3.84,0.55,-0.55,-0.49,-1.22,3.29,3.29,3.29
49.46,3.79,0.53,3.82,0.55,-0.55,-0.52,-1.28,3.25,3.27,3.26
49.96,3.79,0.56,3.80,0.55,-0.55,-0.54,-1.34,3.24,3.25,3.24
50.46,3.79,0.56,3.79,0.56,-0.56,-0.56,-1.41,3.23,3.23,3.23
50.96,3.79,0.58,3.79,0.58,-0.58,-0.59,-1.47,3.22,3.21,3.21
51.47,3.79,0.61,3.79,0.60,-0.60,-0.62,-1.53,3.20,3.19,3.18
51.99,3.79,0.63,3.79,0.62,-0.62,-0.64,-1.60,3.17,3.17,3.17
52.51,3.79,0.64,3.80,0.65,-0.65,-0.67,-1.66,3.14,3.15,3.16
53.03,3.81,0.68,3.82,0.69,-0.69,-0.70,-1.72,3.13,3.13,3.14
53.56,3.83,0.72,3.84,0.72,-0.72,-0.73,-1.78,3.11,3.11,3.12
54.10,3.84,0.75,3.86,0.76,-0.76,-0.76,-1.84,3.08,3.09,3.10
54.64,3.88,0.81,3.88,0.80,-0.80,-0.79,-1.89,3.08,3.08,3.08
55.18,3.90,0.85,3.90,0.84,-0.84,-0.82,-1.95,3.06,3.06,3.06
55.74,3.93,0.90,3.93,0.88,-0.88,-0.86,-2.01,3.05,3.04,3.04
56.29,3.96,0.94,3.95,0.92,-0.92,-0.89,-2.06,3.04,3.03,3.03
56.86,3.97,0.97,3.98,0.97,-0.97,-0.93,-2.11,3.01,3.01,3.00
57.42,4.02,1.04,4.01,1.01,-1.01,-0.97,-2.16,3.01,2.99,2.98
58.00,4.03,1.06,4.03,1.06,-1.06,-1.01,-2.21,2.97,2.97,2.97
58.58,4.07,1.12,4.06,1.11,-1.11,-1.05,-2.25,2.96,2.95,2.96
59.16,4.10,1.16,4.09,1.16,-1.16,-1.09,-2.29,2.95,2.94,2.94
59.76,4.11,1.18,4.13,1.21,-1.21,-1.13,-2.33,2.91,2.92,2.93
60.35,4.16,1.26,4.16,1.26,-1.26,-1.18,-2.37,2.90,2.90,2.91
60.96,4.18,1.29,4.19,1.31,-1.31,-1.23,-2.40,2.87,2.88,2.89
61.57,4.22,1.37,4.23,1.37,-1.37,-1.27,-2.43,2.85,2.86,2.86
62.18,4.25,1.42,4.27,1.43,-1.43,-1.33,-2.46,2.83,2.84,2.83
62.80,4.31,1.50,4.31,1.49,-1.49,-1.38,-2.48,2.82,2.82,2.82
63.43,4.34,1.56,4.35,1.55,-1.55,-1.44,-2.50,2.79,2.80,2.79
64.07,4.39,1.62,4.40,1.62,-1.62,-1.49,-2.52,2.77,2.78,2.77
64.71,4.45,1.70,4.44,1.69,-1.69,-1.55,-2.53,2.77,2.76,2.75
65.35,4.49,1.76,4.49,1.76,-1.76,-1.62,-2.54,2.74,2.74,2.74
66.01,4.55,1.84,4.55,1.83,-1.83,-1.68,-2.55,2.72,2.72,2.72
66.67,4.60,1.90,4.60,1.90,-1.90,-1.75,-2.56,2.70,2.70,2.70
67.33,4.65,1.97,4.65,1.98,-1.98,-1.82,-2.56,2.68,2.68,2.68
68.01,4.72,2.06,4.71,2.06,-2.06,-1.90,-2.57,2.67,2.66,2.66
68.69,4.79,2.16,4.78,2.14,-2.14,-1.98,-2.57,2.66,2.64,2.64
69.37,4.84,2.23,4.84,2.22,-2.22,-2.06,-2.57,2.62,2.62,2.62
70.07,4.90,2.31,4.91,2.32,-2.32,-2.14,-2.56,2.59,2.60,2.60
70.77,4.98,2.40,4.99,2.41,-2.41,-2.23,-2.56,2.57,2.58,2.58
71.48,5.04,2.48,5.07,2.52,-2.52,-2.32,-2.55,2.53,2.56,2.56
72.19,5.14,2.61,5.16,2.62,-2.62,-2.42,-2.55,2.52,2.53,2.54
72.91,5.22,2.71,5.25,2.74,-2.74,-2.51,-2.54,2.49,2.51,2.51
73.64,5.31,2.83,5.35,2.85,-2.85,-2.62,-2.54,2.46,2.49,2.49
74.38,5.42,2.95,5.45,2.97,-2.97,-2.72,-2.53,2.45,2.47,2.47
75.12,5.53,3.09,5.55,3.10,-3.10,-2.83,-2.52,2.44,2.45,2.45
75.87,5.66,3.23,5.65,3.22,-3.22,-2.95,-2.52,2.44,2.43,2.43
76.63,5.77,3.36,5.76,3.34,-3.34,-3.06,-2.52,2.43,2.41,2.41
77.40,5.88,3.49,5.86,3.47,-3.47,-3.18,-2.51,2.42,2.39,2.39
78.17,5.96,3.60,5.96,3.59,-3.59,-3.31,-2.51,2.38,2.37,2.37
78.95,6.07,3.72,6.06,3.70,-3.70,-3.44,-2.51,2.37,2.35,2.36
79.74,6.16,3.83,6.15,3.82,-3.82,-3.57,-2.51,2.35,2.33,2.34
80.54,6.24,3.93,6.23,3.92,-3.92,-3.70,-2.51,2.32,2.31,2.32
81.35,6.33,4.04,6.31,4.02,-4.02,-3.83,-2.51,2.32,2.30,2.30
82.16,6.39,4.12,6.39,4.11,-4.11,-3.96,-2.52,2.28,2.28,2.28
82.98,6.45,4.19,6.45,4.20,-4.20,-4.10,-2.53,2.26,2.26,2.26
83.81,6.51,4.28,6.51,4.28,-4.28,-4.23,-2.53,2.24,2.24,2.23
84.65,6.56,4.36,6.57,4.35,-4.35,-4.36,-2.54,2.21,2.21,2.21
85.50,6.60,4.41,6.61,4.42,-4.42,-4.49,-2.56,2.18,2.19,2.19
86.35,6.63,4.46,6.66,4.49,-4.49,-4.61,-2.57,2.15,2.17,2.17
87.22,6.68,4.54,6.69,4.54,-4.54,-4.73,-2.59,2.14,2.15,2.15
88.09,6.72,4.60,6.72,4.60,-4.60,-4.84,-2.61,2.13,2.12,2.12
88.97,6.72,4.62,6.74,4.64,-4.64,-4.93,-2.63,2.08,2.10,2.11
89.86,6.77,4.69,6.76,4.68,-4.68,-5.02,-2.65,2.09,2.08,2.08
90.76,6.77,4.73,6.76,4.71,-4.71,-5.10,-2.68,2.06,2.05,2.04
91.66,6.77,4.75,6.76,4.74,-4.74,-5.16,-2.70,2.04,2.02,2.03
92.58,6.77,4.78,6.75,4.75,-4.75,-5.21,-2.73,2.02,2.00,1.99
93.51,6.76,4.79,6.73,4.76,-4.76,-5.24,-2.76,2.00,1.97,1.97
94.44,6.72,4.78,6.71,4.77,-4.77,-5.26,-2.80,1.96,1.94,1.95
95.39,6.69,4.78,6.68,4.77,-4.77,-5.26,-2.83,1.93,1.91,1.92
96.34,6.64,4.76,6.64,4.76,-4.76,-5.24,-2.87,1.89,1.88,1.88
97.30,6.61,4.76,6.60,4.75,-4.75,-5.21,-2.90,1.87,1.85,1.85
98.28,6.54,4.72,6.56,4.73,-4.73,-5.16,-2.94,1.81,1.83,1.82
99.26,6.48,4.69,6.51,4.72,-4.72,-5.09,-2.98,1.77,1.80,1.79
100.25,6.42,4.66,6.46,4.70,-4.70,-5.01,-3.02,1.72,1.77,1.77
101.25,6.37,4.64,6.42,4.68,-4.68,-4.92,-3.07,1.69,1.74,1.74
102.27,6.34,4.64,6.37,4.66,-4.66,-4.82,-3.11,1.68,1.71,1.71
103.29,6.30,4.64,6.31,4.64,-4.64,-4.71,-3.15,1.67,1.68,1.67
104.32,6.25,4.61,6.26,4.62,-4.62,-4.59,-3.20,1.64,1.65,1.65
105.37,6.22,4.61,6.21,4.59,-4.59,-4.47,-3.24,1.63,1.62,1.62
106.42,6.16,4.57,6.15,4.57,-4.57,-4.34,-3.28,1.60,1.59,1.59
107.48,6.12,4.56,6.09,4.54,-4.54,-4.20,-3.33,1.58,1.55,1.56
108.56,6.06,4.54,6.03,4.51,-4.51,-4.07,-3.37,1.55,1.52,1.52
109.64,5.98,4.49,5.97,4.48,-4.48,-3.93,-3.41,1.50,1.49,1.49
110.74,5.91,4.45,5.90,4.45,-4.45,-3.79,-3.44,1.47,1.46,1.46
111.85,5.80,4.37,5.83,4.41,-4.41,-3.66,-3.48,1.40,1.42,1.43
112.97,5.74,4.36,5.75,4.36,-4.36,-3.52,-3.51,1.38,1.39,1.38
114.10,5.63,4.28,5.67,4.31,-4.31,-3.39,-3.54,1.32,1.35,1.36
115.24,5.57,4.26,5.58,4.26,-4.26,-3.26,-3.56,1.31,1.32,1.32
116.39,5.46,4.18,5.49,4.20,-4.20,-3.13,-3.59,1.26,1.28,1.28
117.55,5.36,4.12,5.38,4.14,-4.14,-3.01,-3.60,1.23,1.25,1.24
118.73,5.27,4.07,5.28,4.06,-4.06,-2.89,-3.62,1.21,1.21,1.20
119.92,5.16,3.99,5.16,3.98,-3.98,-2.77,-3.62,1.18,1.18,1.18
121.12,5.05,3.91,5.03,3.89,-3.89,-2.66,-3.63,1.16,1.14,1.14
122.33,4.92,3.82,4.89,3.79,-3.79,-2.54,-3.62,1.14,1.11,1.10
123.55,4.78,3.71,4.74,3.67,-3.67,-2.44,-3.61,1.11,1.07,1.08
124.79,4.63,3.59,4.58,3.55,-3.55,-2.33,-3.60,1.09,1.04,1.04
126.03,4.46,3.46,4.41,3.41,-3.41,-2.23,-3.58,1.06,1.00,1.01
127.29,4.29,3.32,4.23,3.26,-3.26,-2.13,-3.55,1.03,0.97,0.97
128.57,4.09,3.16,4.04,3.11,-3.11,-2.04,-3.52,0.98,0.93,0.93
129.85,3.86,2.97,3.86,2.96,-2.96,-1.95,-3.48,0.90,0.90,0.90
131.15,3.66,2.80,3.68,2.81,-2.81,-1.86,-3.44,0.86,0.87,0.86
132.46,3.44,2.61,3.50,2.66,-2.66,-1.77,-3.39,0.78,0.83,0.83
133.79,3.24,2.44,3.32,2.52,-2.52,-1.69,-3.34,0.72,0.80,0.81
135.12,3.08,2.32,3.16,2.39,-2.39,-1.61,-3.28,0.70,0.77,0.77
136.48,2.89,2.15,3.00,2.26,-2.26,-1.53,-3.22,0.64,0.74,0.75
137.84,2.75,2.04,2.85,2.14,-2.14,-1.45,-3.15,0.62,0.71,0.72
139.22,2.64,1.97,2.71,2.02,-2.02,-1.38,-3.08,0.63,0.69,0.68
140.61,2.55,1.91,2.56,1.90,-1.90,-1.30,-3.01,0.65,0.66,0.65
142.02,2.46,1.83,2.43,1.79,-1.79,-1.23,-2.93,0.67,0.63,0.64
143.44,2.36,1.75,2.29,1.68,-1.68,-1.16,-2.85,0.68,0.61,0.61
144.87,2.23,1.65,2.15,1.57,-1.57,-1.09,-2.77,0.66,0.58,0.58
146.32,2.09,1.54,2.01,1.45,-1.45,-1.02,-2.69,0.64,0.56,0.56
147.78,1.94,1.40,1.87,1.34,-1.34,-0.95,-2.60,0.61,0.53,0.54
149.26,1.76,1.25,1.72,1.21,-1.21,-0.88,-2.52,0.55,0.51,0.51
150.75,1.57,1.09,1.56,1.08,-1.08,-0.81,-2.43,0.50,0.48,0.48
152.26,1.38,0.93,1.39,0.94,-0.94,-0.74,-2.34,0.44,0.45,0.46
153.78,1.19,0.76,1.22,0.79,-0.79,-0.67,-2.25,0.40,0.43,0.43
155.32,1.01,0.62,1.04,0.64,-0.64,-0.59,-2.17,0.37,0.40,0.40
156.88,0.84,0.47,0.87,0.49,-0.49,-0.52,-2.08,0.35,0.37,0.38
158.44,0.65,0.31,0.69,0.34,-0.34,-0.44,-1.99,0.31,0.34,0.34
160.03,0.51,0.20,0.51,0.20,-0.20,-0.36,-1.90,0.32,0.32,0.31
161.63,0.35,0.07,0.35,0.06,-0.06,-0.27,-1.81,0.30,0.29,0.28
163.24,0.19,-0.06,0.18,-0.08,0.08,-0.19,-1.72,0.27,0.26,0.25
164.88,0.02,-0.21,0.03,-0.20,0.20,-0.09,-1.63,0.22,0.23,0.23
166.53,-0.12,-0.32,-0.11,-0.31,0.31,0.00,-1.55,0.20,0.20,0.20
168.19,-0.25,-0.42,-0.25,-0.42,0.42,0.10,-1.46,0.17,0.17,0.17
169.87,-0.38,-0.52,-0.37,-0.52,0.52,0.21,-1.37,0.14,0.14,0.15
171.57,-0.49,-0.60,-0.49,-0.60,0.60,0.31,-1.29,0.12,0.11,0.12
173.29,-0.62,-0.71,-0.60,-0.68,0.68,0.43,-1.20,0.06,0.08,0.09
175.02,-0.73,-0.79,-0.69,-0.75,0.75,0.54,-1.12,0.02,0.06,0.06
176.77,-0.79,-0.81,-0.78,-0.81,0.81,0.65,-1.04,0.02,0.03,0.03
178.54,-0.88,-0.87,-0.86,-0.86,0.86,0.76,-0.95,-0.02,-0.00,-0.01
180.32,-0.94,-0.90,-0.93,-0.90,0.90,0.86,-0.87,-0.04,-0.03,-0.03
182.13,-0.99,-0.93,-0.98,-0.92,0.92,0.95,-0.79,-0.06,-0.06,-0.06
183.95,-1.03,-0.93,-1.03,-0.94,0.94,1.03,-0.71,-0.08,-0.09,-0.09
185.79,-1.06,-0.94,-1.07,-0.96,0.96,1.08,-0.63,-0.10,-0.12,-0.12
187.65,-1.11,-0.96,-1.11,-0.96,0.96,1.12,-0.56,-0.14,-0.14,-0.15
189.52,-1.13,-0.95,-1.13,-0.96,0.96,1.13,-0.48,-0.16,-0.17,-0.17
191.42,-1.16,-0.96,-1.15,-0.96,0.96,1.12,-0.40,-0.20,-0.19,-0.19
193.33,-1.16,-0.94,-1.16,-0.94,0.94,1.09,-0.33,-0.21,-0.22,-0.22
195.27,-1.16,-0.92,-1.17,-0.92,0.92,1.05,-0.25,-0.23,-0.24,-0.24
197.22,-1.16,-0.90,-1.16,-0.90,0.90,0.99,-0.18,-0.25,-0.26,-0.26
199.19,-1.16,-0.87,-1.15,-0.88,0.88,0.92,-0.11,-0.28,-0.28,-0.29
201.18,-1.16,-0.86,-1.14,-0.84,0.84,0.85,-0.03,-0.31,-0.30,-0.30
203.19,-1.14,-0.83,-1.12,-0.81,0.81,0.77,0.04,-0.33,-0.31,-0.31
205.23,-1.11,-0.78,-1.09,-0.77,0.77,0.70,0.11,-0.34,-0.33,-0.33
207.28,-1.08,-0.75,-1.06,-0.72,0.72,0.63,0.17,-0.35,-0.34,-0.33
209.35,-1.04,-0.69,-1.03,-0.67,0.67,0.56,0.24,-0.36,-0.35,-0.35
211.44,-0.99,-0.62,-0.99,-0.63,0.63,0.50,0.31,-0.36,-0.36,-0.37
213.56,-0.95,-0.58,-0.95,-0.58,0.58,0.45,0.37,-0.37,-0.37,-0.37
215.69,-0.90,-0.53,-0.90,-0.53,0.53,0.40,0.43,-0.36,-0.37,-0.37
217.85,-0.85,-0.47,-0.86,-0.49,0.49,0.35,0.49,-0.36,-0.38,-0.37
220.03,-0.81,-0.43,-0.82,-0.44,0.44,0.31,0.55,-0.37,-0.38,-0.38
222.23,-0.76,-0.37,-0.77,-0.40,0.40,0.27,0.61,-0.36,-0.38,-0.39
224.45,-0.73,-0.35,-0.73,-0.36,0.36,0.24,0.66,-0.37,-0.38,-0.38
226.70,-0.69,-0.31,-0.69,-0.32,0.32,0.21,0.71,-0.37,-0.37,-0.37
228.96,-0.65,-0.28,-0.65,-0.28,0.28,0.19,0.76,-0.36,-0.37,-0.37
231.25,-0.62,-0.26,-0.62,-0.26,0.26,0.16,0.81,-0.36,-0.36,-0.36
233.57,-0.60,-0.24,-0.59,-0.23,0.23,0.14,0.85,-0.37,-0.36,-0.35
235.90,-0.55,-0.20,-0.56,-0.21,0.21,0.13,0.89,-0.34,-0.35,-0.35
238.26,-0.55,-0.20,-0.53,-0.19,0.19,0.11,0.93,-0.36,-0.34,-0.34
240.64,-0.50,-0.17,-0.50,-0.17,0.17,0.10,0.96,-0.32,-0.33,-0.33
243.05,-0.48,-0.16,-0.48,-0.16,0.16,0.09,1.00,-0.31,-0.31,-0.31
245.48,-0.46,-0.16,-0.45,-0.15,0.15,0.08,1.02,-0.30,-0.30,-0.30
247.93,-0.45,-0.16,-0.43,-0.15,0.15,0.07,1.05,-0.30,-0.29,-0.28
250.41,-0.41,-0.13,-0.41,-0.14,0.14,0.06,1.07,-0.26,-0.27,-0.28
252.92,-0.41,-0.15,-0.40,-0.15,0.15,0.05,1.09,-0.26,-0.25,-0.25
255.45,-0.39,-0.16,-0.38,-0.15,0.15,0.05,1.10,-0.23,-0.23,-0.23
258.00,-0.36,-0.14,-0.37,-0.16,0.16,0.04,1.11,-0.20,-0.21,-0.21
260.58,-0.36,-0.16,-0.37,-0.17,0.17,0.04,1.12,-0.18,-0.19,-0.20
263.19,-0.36,-0.19,-0.36,-0.19,0.19,0.04,1.12,-0.17,-0.17,-0.17
265.82,-0.36,-0.20,-0.36,-0.21,0.21,0.04,1.12,-0.15,-0.15,-0.15
268.48,-0.36,-0.23,-0.36,-0.23,0.23,0.03,1.12,-0.12,-0.13,-0.13
271.16,-0.36,-0.25,-0.37,-0.26,0.26,0.03,1.12,-0.10,-0.11,-0.10
273.87,-0.36,-0.27,-0.37,-0.29,0.29,0.03,1.11,-0.07,-0.09,-0.08
276.61,-0.41,-0.35,-0.38,-0.32,0.32,0.03,1.10,-0.09,-0.06,-0.06
279.38,-0.41,-0.36,-0.39,-0.35,0.35,0.03,1.09,-0.05,-0.04,-0.04
282.17,-0.41,-0.38,-0.41,-0.39,0.39,0.04,1.08,-0.02,-0.02,-0.02
284.99,-0.41,-0.41,-0.42,-0.42,0.42,0.04,1.07,0.02,-0.00,0.00
287.84,-0.44,-0.46,-0.44,-0.46,0.46,0.04,1.05,0.03,0.02,0.02
290.72,-0.46,-0.50,-0.45,-0.50,0.50,0.04,1.03,0.04,0.05,0.05
293.63,-0.46,-0.52,-0.47,-0.53,0.53,0.04,1.01,0.08,0.07,0.06
296.57,-0.46,-0.55,-0.48,-0.57,0.57,0.04,1.00,0.11,0.09,0.09
299.53,-0.50,-0.61,-0.48,-0.60,0.60,0.05,0.98,0.10,0.12,0.11
302.53,-0.50,-0.62,-0.49,-0.63,0.63,0.05,0.95,0.13,0.14,0.13
305.55,-0.50,-0.66,-0.49,-0.65,0.65,0.05,0.93,0.15,0.16,0.17
308.61,-0.50,-0.68,-0.48,-0.67,0.67,0.06,0.91,0.17,0.19,0.18
311.69,-0.50,-0.71,-0.47,-0.68,0.68,0.06,0.89,0.18,0.21,0.21
314.81,-0.47,-0.72,-0.45,-0.69,0.69,0.06,0.87,0.22,0.24,0.25
317.96,-0.46,-0.72,-0.43,-0.69,0.69,0.07,0.85,0.23,0.26,0.27
321.14,-0.41,-0.69,-0.40,-0.69,0.69,0.07,0.82,0.28,0.28,0.29
324.35,-0.39,-0.69,-0.37,-0.68,0.68,0.07,0.80,0.29,0.31,0.30
327.59,-0.34,-0.67,-0.34,-0.67,0.67,0.08,0.78,0.33,0.33,0.33
330.87,-0.29,-0.64,-0.30,-0.65,0.65,0.08,0.76,0.36,0.35,0.35
334.18,-0.26,-0.63,-0.26,-0.63,0.63,0.09,0.74,0.37,0.37,0.37
337.52,-0.20,-0.58,-0.21,-0.61,0.61,0.09,0.72,0.41,0.39,0.39
340.90,-0.16,-0.57,-0.17,-0.58,0.58,0.10,0.70,0.43,0.41,0.42
344.30,-0.12,-0.55,-0.12,-0.56,0.56,0.10,0.68,0.44,0.43,0.43
347.75,-0.09,-0.54,-0.08,-0.53,0.53,0.11,0.66,0.45,0.45,0.45
351.23,-0.03,-0.50,-0.04,-0.51,0.51,0.11,0.64,0.48,0.47,0.47
354.74,0.00,-0.49,0.01,-0.48,0.48,0.12,0.62,0.49,0.49,0.49
358.28,0.05,-0.46,0.05,-0.46,0.46,0.12,0.60,0.51,0.51,0.51
361.87,0.09,-0.43,0.09,-0.44,0.44,0.13,0.59,0.53,0.53,0.53
365.49,0.12,-0.42,0.13,-0.41,0.41,0.14,0.57,0.54,0.54,0.55
369.14,0.17,-0.38,0.17,-0.39,0.39,0.14,0.55,0.56,0.56,0.56
372.83,0.20,-0.37,0.21,-0.37,0.37,0.15,0.54,0.57,0.58,0.58
376.56,0.23,-0.35,0.24,-0.35,0.35,0.16,0.52,0.58,0.59,0.58
380.33,0.29,-0.32,0.28,-0.32,0.32,0.16,0.51,0.62,0.60,0.61
384.13,0.32,-0.30,0.32,-0.30,0.30,0.17,0.50,0.63,0.62,0.62
387.97,0.35,-0.28,0.35,-0.28,0.28,0.18,0.48,0.64,0.63,0.63
391.85,0.38,-0.26,0.38,-0.27,0.27,0.18,0.47,0.65,0.65,0.64
395.77,0.41,-0.25,0.41,-0.25,0.25,0.19,0.46,0.66,0.66,0.66
399.73,0.43,-0.24,0.44,-0.23,0.23,0.20,0.45,0.66,0.67,0.67
403.72,0.47,-0.21,0.47,-0.22,0.22,0.21,0.44,0.69,0.68,0.68
407.76,0.48,-0.20,0.49,-0.20,0.20,0.21,0.43,0.68,0.69,0.69
411.84,0.52,-0.18,0.52,-0.19,0.19,0.22,0.42,0.71,0.70,0.71
415.96,0.52,-0.19,0.54,-0.17,0.17,0.23,0.41,0.70,0.71,0.72
420.12,0.57,-0.15,0.56,-0.16,0.16,0.24,0.40,0.73,0.72,0.73
424.32,0.57,-0.16,0.58,-0.15,0.15,0.25,0.39,0.73,0.73,0.74
428.56,0.61,-0.13,0.60,-0.14,0.14,0.26,0.38,0.76,0.75,0.75
432.85,0.61,-0.14,0.62,-0.13,0.13,0.27,0.38,0.75,0.76,0.75
437.18,0.65,-0.11,0.64,-0.13,0.13,0.28,0.37,0.78,0.77,0.76
441.55,0.66,-0.12,0.66,-0.12,0.12,0.29,0.36,0.78,0.78,0.78
445.96,0.66,-0.13,0.68,-0.11,0.11,0.30,0.36,0.78,0.79,0.79
450.42,0.71,-0.09,0.70,-0.11,0.11,0.31,0.35,0.82,0.81,0.80
454.93,0.71,-0.11,0.72,-0.10,0.10,0.32,0.35,0.81,0.82,0.82
459.48,0.72,-0.11,0.74,-0.09,0.09,0.33,0.35,0.82,0.84,0.83
464.07,0.75,-0.10,0.76,-0.09,0.09,0.34,0.34,0.84,0.85,0.85
468.71,0.75,-0.12,0.78,-0.09,0.09,0.35,0.34,0.84,0.87,0.87
473.40,0.80,-0.08,0.79,-0.09,0.09,0.36,0.34,0.89,0.88,0.88
478.13,0.80,-0.10,0.80,-0.09,0.09,0.38,0.34,0.90,0.90,0.90
482.91,0.80,-0.11,0.81,-0.10,0.10,0.39,0.34,0.90,0.91,0.91
487.74,0.83,-0.10,0.82,-0.11,0.11,0.40,0.34,0.94,0.93,0.93
492.62,0.85,-0.10,0.82,-0.12,0.12,0.42,0.34,0.97,0.94,0.95
497.55,0.85,-0.11,0.82,-0.14,0.14,0.43,0.34,0.99,0.96,0.96
502.52,0.84,-0.13,0.82,-0.16,0.16,0.44,0.35,1.00,0.98,0.98
507.55,0.80,-0.18,0.81,-0.18,0.18,0.46,0.35,0.98,0.99,0.99
512.62,0.80,-0.20,0.80,-0.21,0.21,0.48,0.35,1.01,1.01,1.01
517.75,0.78,-0.24,0.79,-0.24,0.24,0.49,0.36,1.02,1.03,1.03
522.93,0.75,-0.29,0.77,-0.27,0.27,0.51,0.36,1.02,1.05,1.05
528.16,0.75,-0.30,0.75,-0.31,0.31,0.53,0.37,1.06,1.06,1.06
533.44,0.71,-0.36,0.73,-0.34,0.34,0.54,0.38,1.06,1.08,1.08
