frequency,raw,error,smoothed,error_smoothed,equalization,equalized_raw,equalized_smoothed,target
20,-12.770208804669455,-14.418052560138802,-12.732211789195313,-14.380040197997536,5.999999999999999,-6.770208804669456,-6.732211789195314,1.647843755469347
21,-12.367909954094735,-14.015734750112912,-12.384587362318673,-14.032414512487705,6.0,-6.367909954094735,-6.384587362318673,1.6478247960181784
22,-12.029023405443606,-13.67682340392895,-12.051325381138268,-13.699137693543651,6.0,-6.029023405443606,-6.051325381138268,1.6477999984853424
23,-11.695304345378318,-13.34307230202029,-11.7324258456541,-13.380209741165375,5.999999999999999,-5.695304345378319,-5.7324258456541015,1.6477679566419732
24,-11.436642063764243,-13.08436907510309,-11.427888755866153,-13.07563065535286,5.999999999999998,-5.4366420637642445,-5.427888755866155,1.647727011338847
25,-11.046964129286584,-12.694639348346758,-11.138670214709244,-12.786358015358717,6.000000000000001,-5.046964129286583,-5.138670214709243,1.647675219060174
26,-10.876838230788321,-12.52444854896832,-10.863447993744249,-12.511068138246564,6.0,-4.876838230788321,-4.8634479937442485,1.6476103181799977
27,-10.67479732319558,-12.322327016395871,-10.60125032516065,-12.248787687588452,6.0,-4.67479732319558,-4.601250325160651,1.647529693200291
28,-10.413089500202867,-12.060519835714224,-10.351039877006569,-11.998476747785585,6.0,-4.413089500202867,-4.351039877006569,1.6474303355113573
29,-10.11188508626763,-11.759193889192899,-10.111968015068875,-11.75928306485858,6.000000000000001,-4.1118850862676295,-4.111968015068874,1.6473088029252683
30,-9.83679904808599,-11.483960224187737,-9.883912223421211,-11.531080043582095,6.0,-3.8367990480859895,-3.883912223421211,1.6471611761017466
31,-9.639912500936443,-11.286895513534585,-9.667016232393083,-11.314006668207877,5.999999999999999,-3.639912500936444,-3.6670162323930837,1.6469830125981426
32,-9.439929454762467,-11.086698753178949,-9.461432438545259,-11.10821008070512,5.999999999999999,-3.439929454762468,-3.46143243854526,1.6467692984164817
33,-9.22997891961194,-10.876493316672134,-9.266907527241854,-10.913431202009827,6.0,-3.2299789196119395,-3.2669075272418535,1.6465143970601943
34,-9.149519149497,-10.795731145671438,-9.082455556639331,-10.728677712083865,5.999999999999998,-3.149519149497001,-3.0824555566393332,1.6462119961744381
35,-8.912499268809018,-10.558354320525098,-8.9064004746934,-10.55226651747824,6.000000000000001,-2.912499268809017,-2.9064004746934,1.645855051716079
36,-8.742003384301125,-10.387439114112018,-8.736658836748834,-10.382106366337581,5.999999999999998,-2.7420033843011264,-2.736658836748836,1.6454357298108935
37,-8.546070873634932,-10.19101621998509,-8.571230006789982,-10.216187964910201,6.0,-2.546070873634932,-2.571230006789982,1.6449453463501595
38,-8.342225819139308,-9.986600123581773,-8.408699486732274,-10.053087237226755,6.000000000000001,-2.3422258191393075,-2.4086994867322735,1.6443743044424641
39,-8.354833852779533,-9.998545882632815,-8.248547052017281,-9.892273390442513,6.0,-2.3548338527795334,-2.2485470520172814,1.643712029853282
40,-8.137752147781892,-9.78069905237048,-8.091159624617372,-9.734121726308436,5.999999999999999,-2.1377521477818933,-2.091159624617373,1.6429469045885874
41,-7.982264957218325,-9.624331156027857,-7.937536743100203,-9.57961904769267,5.999999999999999,-1.9822649572183257,-1.9375367431002042,1.642066198809533
42,-7.717155553208524,-9.358211554494789,-7.788806718225041,-9.429879747337106,6.000000000000003,-1.7171555532085216,-1.7888067182250387,1.6410560012862638
43,-7.5000938621392015,-9.139995010775715,-7.645743962577361,-9.285663068402215,6.0,-1.5000938621392015,-1.6457439625773613,1.6399011486365138
44,-7.560503766422223,-9.199088920054738,-7.5084681462670835,-9.147072188127778,6.0,-1.5605037664222232,-1.5084681462670835,1.6385851536325138
45,-7.340454338336358,-8.977544471244466,-7.376429994504084,-9.01353994234729,5.999999999999998,-1.34045433833636,-1.376429994504086,1.6370901329081073
46,-7.378872584309515,-9.014269318767719,-7.248666318475161,-8.88408378314157,6.0,-1.3788725843095149,-1.248666318475161,1.6353967344582032
47,-7.113510450082406,-8.74699451548068,-7.124197311361774,-8.757703002026556,6.0,-1.1135104500824058,-1.1241973113617743,1.6334840653982736
48,-7.037450184083452,-8.668779804629867,-7.002388733661622,-8.633740843540371,6.0,-1.0374501840834522,-1.002388733661622,1.6313296205464143
49,-6.836300758763637,-8.46520997127064,-6.883128466039227,-8.51206098793198,5.999999999999999,-0.8363007587636382,-0.8831284660392278,1.6289092125070037
50,-6.739523854394162,-8.36572075846998,-6.766758690729468,-8.392979664735599,5.999999999999999,-0.7395238543941627,-0.7667586907294686,1.626196904075818
51,-6.635151332681673,-8.2583162766343,-6.653815774813295,-8.277005471544054,5.999999999999999,-0.6351513326816738,-0.653815774813296,1.6231649439526268
52,-6.534576619426064,-8.154360326364204,-6.544708229028408,-8.164517272843801,5.999999999999999,-0.5345766194260646,-0.5447082290284087,1.61978370693814
53,-6.47866410224834,-8.09468574225297,-6.439476527913795,-8.055523966166238,6.000000000000002,-0.478664102248338,-0.43947652791379355,1.616021640004631
54,-6.349088843232537,-7.960934059090534,-6.3377272520754495,-7.949598578006277,6.0,-0.3490888432325372,-0.3377272520754495,1.611845215857997
55,-6.232852487785713,-7.840071383630459,-6.2387481969933365,-7.8459933358159315,6.0,-0.23285248778571344,-0.2387481969933365,1.6072188958447455
56,-6.13227778198154,-7.734382886270259,-6.141735168107047,-7.743866437921185,6.000000000000002,-0.1322777819815384,-0.14173516810704534,1.6021051042887193
57,-5.9720842965901975,-7.568548513144943,-6.04602903330025,-7.642519094790541,5.999999999999998,0.027915703409800763,-0.04602903330025221,1.5964642165547454
58,-6.0920479012865805,-7.6823024645994575,-5.951282341652433,-7.541562152996807,6.0,-0.09204790128658047,0.048717658347566584,1.5902545633128775
59,-5.849006793269231,-7.432439246868228,-5.85752825139547,-7.440985047387517,6.0,0.1509932067307691,0.14247174860452994,1.5834324535989968
60,-5.737569795124926,-7.3135220144415065,-5.765176879159171,-7.341152196153968,6.0,0.2624302048750744,0.23482312084082935,1.575952219316581
61,-5.569059257407014,-7.136825541189644,-5.674987061447308,-7.242774832282599,6.000000000000002,0.43094074259298765,0.3250129385526934,1.5677662837826305
62,-5.689748831902374,-7.248574088675705,-5.588045038254185,-7.146889783672221,6.0,0.31025116809762565,0.41195496174581514,1.5588252567733307
63,-5.528829252426085,-7.0779073106878325,-5.505739281080729,-7.054834426266243,6.000000000000001,0.4711707475739155,0.49426071891927226,1.5490780582617476
64,-5.367909796084455,-6.9063818687414145,-5.42968217865031,-6.9681685252275285,6.0,0.6320902039155447,0.5703178213496898,1.5384720726569596
65,-5.488599757640953,-7.01555309249664,-5.361521806720239,-6.8884861916109354,6.0,0.5114002423590467,0.6384781932797612,1.5269533348556874
66,-5.166761281826684,-6.681228030643759,-5.302621738056944,-6.817095911386727,6.000000000000003,0.8332387181733187,0.6973782619430589,1.514466748817075
67,-5.224928287349155,-6.725884626041033,-5.25365161629775,-6.754611370724209,6.0,0.7750717126508446,0.7463483837022498,1.5009563386918772
68,-5.22710795853823,-6.713473490349832,-5.214197012437977,-6.700561594970795,6.000000000000002,0.7728920414617715,0.7858029875620245,1.486365531811602
69,-5.227108539622939,-6.6977460117351715,-5.182530273654035,-6.653162108647265,5.999999999999998,0.7728914603770596,0.8174697263459629,1.4706374721122324
70,-5.04607350851638,-6.499788870394953,-5.155661532710855,-6.60936628320836,5.999999999999999,0.9539264914836192,0.8443384672891439,1.4537153618785736
71,-5.126530666244125,-6.562073495344091,-5.129712598780417,-6.565239593769208,6.000000000000001,0.8734693337558763,0.870287401219584,1.4355428290999663
72,-5.199015137620576,-6.615079454897042,-5.100552396077089,-6.516595450839907,6.0,0.8009848623794236,0.8994476039229111,1.4160643172764655
73,-5.085291618083613,-6.480517112335608,-5.064539909071565,-6.459738558566095,5.999999999999999,0.9147083819163857,0.9354600909284345,1.3952254942519944
74,-5.025930518081847,-6.398904194694511,-5.019176624237438,-6.392117777046791,6.0,0.9740694819181526,0.9808233757625624,1.3729736766126637
75,-4.970899894409525,-6.320158160804327,-4.963494806839114,-6.312714811274116,6.0,1.0291001055904747,1.0365051931608864,1.349258266394802
76,-4.925339366681049,-6.249370563980113,-4.898092978014921,-6.222080084071975,5.999999999999999,1.07466063331895,1.1019070219850784,1.3240311972990644
77,-4.824771484229778,-6.1220188725119105,-4.824843278546902,-6.122040507541691,5.977046187869594,1.152274703639816,1.1522029093226918,1.2972473882821323
78,-4.7242245421785665,-5.993089745427388,-4.746393826332053,-6.015202340762218,5.92816310406246,1.2039385618838931,1.1817692777304067,1.2688652032488212
79,-4.675056814311371,-5.9139037308335585,-4.6656388096333234,-5.904421965457265,5.85437268120984,1.1793158668984693,1.1887338715765168,1.2388469165221871
80,-4.533645590716574,-5.740804775448181,-4.5853151130564695,-5.79240335865768,5.76649552040965,1.2328499296930762,1.1811804073531809,1.2071591847316068
81,-4.5233397037770215,-5.697113230390929,-4.507815820770299,-5.681512359472412,5.672898468441214,1.1495587646641923,1.165082647670915,1.1737735266139078
82,-4.422896744053085,-5.561563556896306,-4.435218291846926,-5.573804963926753,5.573804963926753,1.150908219873668,1.1385866720798266,1.1386668128432222
83,-4.459800074153236,-5.561621842414283,-4.369444094358293,-5.471186473646405,5.471186473646405,1.011386399493169,1.1017423792881118,1.101821768261047
84,-4.304433412269368,-5.367660900915455,-4.312426985826038,-5.375577693878346,5.375577693878346,1.0711442816089773,1.0631507080523077,1.0632274886460862
85,-4.191454702082879,-5.21433467542321,-4.266173993349769,-5.288974257326117,5.288974257326117,1.0975195552432382,1.0228002639763485,1.022879973340331
86,-4.221540741432855,-5.202323414994362,-4.232656874690514,-5.213338544788423,5.2133385447884235,0.9917978033555688,0.9806816700979093,0.980782673561508
87,-4.2209912120333986,-5.15793826608669,-4.213547738325485,-5.1503405721519195,5.150340572151919,0.9293493601185201,0.9367928338264333,0.9369470540532916
88,-4.220132332266841,-5.111525495144022,-4.209885201819091,-5.1010354590194105,5.1010354590194105,0.8809031267525693,0.8911502572003194,0.891393162877181
89,-4.218963818891895,-5.063114019608342,-4.221799058709459,-5.065603246286816,5.065603246286816,0.8466394273949209,0.8438041875773568,0.8441502007164474
90,-4.217549861356348,-5.0128069385449106,-4.248415794022033,-5.043266638917448,5.043266638917449,0.8257167775611007,0.7948508448954161,0.7952570771885625
91,-4.268111937657734,-5.012874875212191,-4.288011153309893,-5.032442636253423,5.032442636253425,0.7643306985956908,0.7444314829435319,0.7447629375544573
92,-4.3647149309022515,-5.05744257003391,-4.338383083508555,-5.031091713249564,5.031091713249564,0.6663767823473128,0.6927086297410092,0.6927276391316588
93,-4.314726361187391,-4.953948514155148,-4.397321088373202,-5.037137650085235,5.037137650085234,0.7224112888978427,0.6398165617120322,0.6392221529677569
94,-4.5515587830735615,-5.135887646314085,-4.462987878223258,-5.0487830312781,5.048783031278102,0.4972242482045406,0.5857951530548444,0.5843288632405232
95,-4.602359446020682,-5.130501180777647,-4.534040343112324,-5.064569731193002,5.064569731193001,0.4622102851723193,0.5305293880806765,0.5281417347569652
96,-4.6054214959911395,-5.076187814133547,-4.609406865372828,-5.083131336824047,5.083131336824047,0.47770984083290724,0.4737244714512183,0.4707663181424082
97,-4.644992263689961,-5.057311826805334,-4.687780191145578,-5.102722908241036,5.102722908241036,0.45773064455107537,0.4149427170954585,0.41231956311537354
98,-4.698813560027976,-5.051742972866057,-4.767025183187798,-5.1207364183729425,5.1207364183729425,0.4219228583449661,0.3537112351851448,0.3529294128380811
99,-4.757620281482631,-5.050354438309158,-4.84377408588672,-5.133456883367074,5.133456883367075,0.3758366018844441,0.2896827974803555,0.29273415682652715
100,-4.909640796514948,-5.141522322812363,-4.9134452994055255,-5.136251271897878,5.136251271897879,0.22661047538293122,0.22280597249235345,0.23188152629741499
101,-5.050449645456913,-5.220977169452787,-4.970778327842847,-5.124224863445545,5.124224863445545,0.07377521798863196,0.15344653560269794,0.17052752399587412
102,-5.100377811115589,-5.209212801346958,-5.010779431869672,-5.093188094271614,5.093188094271613,-0.007189716843975624,0.08240866240194133,0.10883499023136878
104,-5.067395313687349,-5.052402606191997,-5.029800161785577,-5.040632094953223,5.040632094953223,-0.02676321873412668,0.010831933167645857,-0.014992707495351976
105,-5.045893361740847,-4.968957395210866,-5.026397734859384,-4.966378087872063,4.966378087872062,-0.07951527386878432,-0.060019646987321984,-0.07693596652998025
106,-5.020123148270968,-4.881539459982175,-5.001686146573675,-4.872664188929896,4.872664188929895,-0.14745895934107267,-0.1290219576437801,-0.1385836882887923
107,-4.916734957296984,-4.716967709080406,-4.9590590065153455,-4.763627059262202,4.763627059262201,-0.15310789803478286,-0.1954319472531445,-0.19976724821657754
108,-4.917005455154535,-4.656683139380823,-4.903379994584348,-4.644346676968721,4.64434667696872,-0.2726587781858152,-0.25903331761562853,-0.2603223157737129
109,-4.833740154404042,-4.513649007482492,-4.839909533843015,-4.519766082231545,4.519766082231546,-0.3139740721724964,-0.32014345161146895,-0.32009114692155016
110,-4.723056453673344,-4.34413162932827,-4.773303078026194,-4.393821040378674,4.393821040378673,-0.3292354132946711,-0.379482037647521,-0.3789248243450736
111,-4.693738606442153,-4.257053230074476,-4.706959066418231,-4.269014578953155,4.269014578953156,-0.4247240274889972,-0.4379444874650753,-0.43668537636767724
112,-4.619927217656183,-4.126679511100903,-4.642844448979033,-4.1464942354212235,4.146494235421224,-0.473432982234959,-0.4963502135578084,-0.4932477065552807
113,-4.592573146526583,-4.044071876153055,-4.581746650216349,-4.026508106841127,4.026508106841126,-0.5660650396854567,-0.5552385433752232,-0.5485012703735279
114,-4.547589410959147,-3.9452379680795033,-4.523762582939142,-3.9089986455969847,3.908998645596985,-0.6385907653621619,-0.6147639373421567,-0.6023514428796437
115,-4.499261444851845,-3.844540912834938,-4.468785517469054,-3.794079237875987,3.794079237875988,-0.7051822069758567,-0.6747062795930656,-0.6547205320169067
117,-4.397687164373773,-3.637426043115987,-4.416796867053206,-3.682221821480458,3.6822218214804576,-0.7154653428933151,-0.7345750455727482,-0.7602611212577859
118,-4.373824624456253,-3.565443806698434,-4.367882690777758,-3.574121737028655,3.574121737028654,-0.7997028874275989,-0.7937609537491044,-0.8083808177578189
119,-4.2752946101431455,-3.420449201070543,-4.3220237394486904,-3.4703412748674816,3.4703412748674802,-0.8049533352756653,-0.8516824645812102,-0.8548454090726025
120,-4.263117318876404,-3.363463225287334,-4.278802291331058,-3.3709154268453756,3.3709154268453765,-0.8922018920310273,-0.9078868644856812,-0.8996540935890698
121,-4.274154272566238,-3.3313323299990842,-4.237195992741885,-3.2751062411061787,3.275106241106179,-0.9990480314600592,-0.9620897516357059,-0.942821942567154
123,-4.125557777701377,-3.093780797154386,-4.19558439324895,-3.181422686172146,3.181422686172146,-0.9441350915292306,-1.0141617070768039,-1.031776980546991
124,-4.158547332420636,-3.0880885547415855,-4.152002608110906,-3.087915743631998,3.087915743631998,-1.0706315887886384,-1.064086864478908,-1.0704587776790508
125,-4.190771461792558,-3.0831547740831433,-4.104578040455121,-2.992657861719655,2.992657861719655,-1.1981136000729027,-1.111920178735466,-1.1076166877094145
126,-4.1246894953588376,-2.9813704389947744,-4.052016076250322,-2.8942557597871357,2.894255759787135,-1.2304337355717028,-1.157760316463187,-1.1433190563640632
128,-3.9057166234842007,-2.687251718315663,-3.9939801121368994,-2.792239897146179,2.79223989714618,-1.1134767263380208,-1.2017402149907195,-1.218464905168538
129,-3.9296284739091702,-2.679446455234167,-3.9312431891304582,-2.687217861306073,2.687217861306074,-1.2424106126030963,-1.2440253278243842,-1.2501820186750034
130,-3.8838873010424138,-2.603192027152239,-3.865557676944194,-2.5807516999068323,2.580751699906833,-1.3031356011355806,-1.2848059770373608,-1.2806952738901747
131,-3.818177561242237,-2.5080849194432635,-3.799270816289795,-2.4749948355642317,2.474994835564232,-1.343182725678005,-1.3242759807255626,-1.3100926417989736
133,-3.712810901970576,-2.3398976944246805,-3.7347837075776558,-2.372183195340397,2.372183195340398,-1.3406277066301784,-1.362600512237258,-1.3729132075458956
134,-3.6785017192695535,-2.279378332178454,-3.673994273184947,-2.2741090361031615,2.2741090361031624,-1.404392683166391,-1.3998852370817847,-1.3991233870910995
135,-3.604065566941119,-2.1795697653555517,-3.6178722129836434,-2.1817113179752914,2.181711317975292,-1.422354248965827,-1.4361608950083515,-1.424495801585567
137,-3.5086378049150624,-2.0297803266769545,-3.5662826960605205,-2.0948910722696557,2.094891072269655,-1.4137467326454072,-1.4713916237908653,-1.4788574782381079
138,-3.4975773523796416,-1.9959025891455338,-3.518110601220786,-2.0126057455010895,2.01260574550109,-1.4849716068785517,-1.5055048557196962,-1.5016747632341079
140,-3.49558726358592,-1.9451702216896796,-3.4716540952895243,-1.9332233560063037,1.933223356006304,-1.5623639075796163,-1.5384307392832204,-1.5504170418962406
141,-3.4771778768546917,-1.9060926430177796,-3.425176379124988,-1.8550415590159122,1.855041559015912,-1.6221363178387798,-1.570134820109076,-1.5710852338369121
142,-3.408435706818288,-1.8171424386817945,-3.3774516923216993,-1.7768203759974681,1.7768203759974683,-1.6316153308208194,-1.600631316324231,-1.5912932681364933
144,-3.323904594421123,-1.690182517021039,-3.32813748784209,-1.6981638102164114,1.6981638102164112,-1.625740784204712,-1.629973677625679,-1.6337220774000842
145,-3.2922480102778726,-1.6400275558371278,-3.2778577102632926,-1.61962836634724,1.6196283663472402,-1.6726196439306324,-1.6582293439160525,-1.6522204544407448
147,-3.192000779310632,-1.5015718204463737,-3.227978253522083,-1.5425264476060678,1.5425264476060678,-1.6494743317045644,-1.6854518059160153,-1.6904289588642585
148,-3.192361492877596,-1.4849283283514696,-3.18016096065464,-1.4684981913354176,1.4684981913354171,-1.723863301542179,-1.711662769319223,-1.7074331645261265
150,-3.092029490485212,-1.3501734445850748,-3.135857769132116,-1.399006492399192,1.3990064923991923,-1.6930229980860199,-1.7368512767329236,-1.7418560459001373
151,-3.092042123700102,-1.3345612004091096,-3.09592341361682,-1.3349354038965608,1.334935403896561,-1.7571067198035408,-1.7609880097202588,-1.7574809232909923
153,-3.0917718190100243,-1.3033373095719742,-3.0604755405540462,-1.2764295390918328,1.2764295390918328,-1.8153422799181915,-1.7840460014622135,-1.78843450943805
154,-2.9908554576556345,-1.1881648259926743,-3.0290341679555137,-1.2230173809746057,1.2230173809746057,-1.7678380766810289,-1.806016786980908,-1.8026906316629603
156,-2.9865393352923477,-1.1561689540144129,-3.0008674087693405,-1.1739532801738168,1.173953280173817,-1.8125860551185307,-1.8269141285955235,-1.8303703812779348
157,-3.046159924182973,-1.2029893375784018,-2.9753990391078755,-1.1286351667350072,1.128635166735007,-1.9175247574479661,-1.8467638723728685,-1.8431705866045713
159,-2.9963689107105203,-1.128707093741971,-2.952520301242031,-1.086935316994111,1.086935316994111,-1.9094335937164093,-1.8655849842479202,-1.8676618169685493
160,-2.888550307374474,-1.009710182360796,-2.9326926794322596,-1.0493220976777973,1.0493220976777973,-1.8392282096966766,-1.8833705817544624,-1.878840125013678
162,-2.8896133590796182,-0.9894702286752963,-2.916808949872136,-1.016731451256319,1.016731451256319,-1.8728819078232992,-1.900077498615817,-1.900143130404322
