frequency,raw,error,smoothed,error_smoothed,equalization,parametric_eq,equalized_raw,equalized_smoothed,target
20,-14.15,-14.46,-14.08,-14.36,6.00,2.66,-8.15,-8.08,0.31
21,-13.73,-14.03,-13.69,-13.98,6.00,3.04,-7.73,-7.69,0.31
22,-13.33,-13.63,-13.32,-13.60,6.00,3.46,-7.33,-7.32,0.30
23,-12.93,-13.22,-12.95,-13.24,6.00,3.92,-6.93,-6.95,0.30
24,-12.53,-12.82,-12.60,-12.88,6.00,4.40,-6.53,-6.60,0.29
25,-12.25,-12.53,-12.26,-12.54,6.00,4.89,-6.25,-6.26,0.29
26,-11.87,-12.15,-11.93,-12.21,6.00,5.39,-5.87,-5.93,0.28
27,-11.62,-11.89,-11.62,-11.89,6.00,5.86,-5.62,-5.62,0.27
28,-11.27,-11.53,-11.31,-11.58,6.00,6.28,-5.27,-5.31,0.27
29,-11.07,-11.33,-11.02,-11.28,6.00,6.63,-5.07,-5.02,0.26
30,-10.79,-11.04,-10.74,-10.99,6.00,6.89,-4.79,-4.74,0.25
31,-10.43,-10.67,-10.49,-10.72,6.00,7.03,-4.43,-4.49,0.24
32,-10.21,-10.44,-10.23,-10.46,6.00,7.07,-4.21,-4.23,0.23
33,-9.97,-10.19,-9.99,-10.21,6.00,7.02,-3.97,-3.99,0.22
34,-9.81,-10.02,-9.76,-9.97,6.00,6.90,-3.81,-3.76,0.21
35,-9.61,-9.81,-9.55,-9.74,6.00,6.73,-3.61,-3.55,0.20
36,-9.34,-9.53,-9.33,-9.52,6.00,6.54,-3.34,-3.33,0.19
37,-9.11,-9.29,-9.12,-9.30,6.00,6.34,-3.11,-3.12,0.18
38,-8.92,-9.08,-8.93,-9.09,6.00,6.15,-2.92,-2.93,0.17
39,-8.77,-8.92,-8.74,-8.89,6.00,5.97,-2.77,-2.74,0.15
40,-8.51,-8.65,-8.56,-8.70,6.00,5.81,-2.51,-2.56,0.14
41,-8.32,-8.44,-8.40,-8.51,6.00,5.68,-2.32,-2.40,0.13
42,-8.32,-8.43,-8.23,-8.33,6.00,5.57,-2.32,-2.23,0.11
43,-8.10,-8.19,-8.07,-8.16,6.00,5.48,-2.10,-2.07,0.10
44,-7.90,-7.98,-7.90,-7.98,6.00,5.43,-1.90,-1.90,0.08
45,-7.68,-7.74,-7.76,-7.82,6.00,5.39,-1.68,-1.76,0.06
46,-7.69,-7.73,-7.61,-7.65,6.00,5.37,-1.69,-1.61,0.04
47,-7.51,-7.53,-7.48,-7.49,6.00,5.38,-1.51,-1.48,0.03
48,-7.28,-7.28,-7.34,-7.34,6.00,5.40,-1.28,-1.34,0.01
49,-7.29,-7.27,-7.20,-7.18,6.00,5.44,-1.29,-1.20,-0.01
50,-7.11,-7.07,-7.07,-7.03,6.00,5.49,-1.11,-1.07,-0.03
51,-6.87,-6.81,-6.94,-6.88,6.00,5.54,-0.87,-0.94,-0.06
52,-6.81,-6.73,-6.81,-6.73,6.00,5.61,-0.81,-0.81,-0.08
53,-6.68,-6.57,-6.69,-6.58,6.00,5.67,-0.68,-0.69,-0.10
54,-6.65,-6.52,-6.57,-6.44,6.00,5.74,-0.65,-0.57,-0.13
55,-6.37,-6.22,-6.46,-6.30,6.00,5.80,-0.37,-0.46,-0.15
56,-6.41,-6.23,-6.34,-6.17,5.98,5.86,-0.43,-0.37,-0.17
57,-6.22,-6.02,-6.25,-6.04,5.93,5.90,-0.29,-0.32,-0.20
58,-6.17,-5.94,-6.15,-5.91,5.85,5.94,-0.32,-0.30,-0.23
59,-6.02,-5.76,-6.04,-5.79,5.76,5.96,-0.26,-0.28,-0.25
60,-5.99,-5.70,-5.96,-5.67,5.67,5.96,-0.32,-0.29,-0.28
61,-5.89,-5.58,-5.87,-5.57,5.57,5.95,-0.32,-0.31,-0.31
62,-5.75,-5.41,-5.80,-5.46,5.46,5.91,-0.28,-0.34,-0.34
63,-5.79,-5.42,-5.75,-5.37,5.37,5.86,-0.42,-0.38,-0.37
64,-5.69,-5.29,-5.68,-5.28,5.28,5.80,-0.41,-0.40,-0.40
65,-5.59,-5.16,-5.63,-5.20,5.20,5.71,-0.39,-0.43,-0.43
66,-5.59,-5.12,-5.57,-5.12,5.12,5.62,-0.47,-0.46,-0.46
67,-5.43,-4.93,-5.54,-5.04,5.04,5.51,-0.38,-0.50,-0.49
68,-5.49,-4.96,-5.50,-4.97,4.97,5.39,-0.52,-0.53,-0.53
69,-5.49,-4.93,-5.46,-4.90,4.90,5.26,-0.59,-0.57,-0.56
70,-5.49,-4.89,-5.43,-4.83,4.83,5.12,-0.66,-0.60,-0.59
71,-5.54,-4.91,-5.40,-4.76,4.76,4.98,-0.78,-0.64,-0.63
72,-5.29,-4.63,-5.36,-4.68,4.68,4.84,-0.61,-0.68,-0.66
73,-5.22,-4.52,-5.31,-4.60,4.60,4.69,-0.62,-0.71,-0.69
74,-5.28,-4.55,-5.26,-4.52,4.52,4.55,-0.76,-0.74,-0.73
75,-5.35,-4.58,-5.21,-4.43,4.43,4.40,-0.92,-0.78,-0.76
76,-5.19,-4.39,-5.14,-4.33,4.33,4.26,-0.85,-0.81,-0.80
77,-5.08,-4.24,-5.09,-4.24,4.24,4.12,-0.84,-0.85,-0.84
78,-4.98,-4.10,-5.02,-4.14,4.14,3.98,-0.84,-0.88,-0.87
79,-5.02,-4.11,-4.96,-4.04,4.04,3.84,-0.98,-0.92,-0.91
80,-4.78,-3.83,-4.89,-3.93,3.93,3.71,-0.84,-0.96,-0.94
81,-4.74,-3.76,-4.82,-3.83,3.83,3.59,-0.91,-0.99,-0.98
82,-4.77,-3.75,-4.76,-3.72,3.72,3.46,-1.04,-1.04,-1.02
83,-4.68,-3.62,-4.69,-3.61,3.61,3.35,-1.06,-1.08,-1.05
84,-4.61,-3.52,-4.60,-3.50,3.50,3.23,-1.10,-1.10,-1.09
85,-4.58,-3.45,-4.53,-3.39,3.39,3.12,-1.18,-1.13,-1.12
86,-4.60,-3.44,-4.46,-3.28,3.28,3.01,-1.31,-1.18,-1.16
87,-4.41,-3.21,-4.39,-3.17,3.17,2.91,-1.23,-1.22,-1.20
88,-4.36,-3.12,-4.32,-3.07,3.07,2.81,-1.29,-1.25,-1.23
89,-4.15,-2.88,-4.24,-2.96,2.96,2.72,-1.19,-1.28,-1.27
90,-4.16,-2.85,-4.17,-2.86,2.86,2.63,-1.30,-1.32,-1.31
91,-4.19,-2.84,-4.11,-2.75,2.75,2.54,-1.43,-1.36,-1.34
92,-3.93,-2.55,-4.05,-2.65,2.65,2.46,-1.27,-1.39,-1.38
93,-3.94,-2.52,-3.98,-2.56,2.56,2.38,-1.38,-1.42,-1.41
94,-3.94,-2.49,-3.92,-2.47,2.47,2.30,-1.46,-1.45,-1.45
95,-3.87,-2.38,-3.86,-2.39,2.39,2.23,-1.47,-1.47,-1.48
96,-3.84,-2.32,-3.82,-2.32,2.32,2.16,-1.52,-1.51,-1.52
97,-3.78,-2.22,-3.80,-2.24,2.24,2.09,-1.53,-1.56,-1.55
98,-3.79,-2.20,-3.78,-2.18,2.18,2.02,-1.61,-1.60,-1.59
99,-3.83,-2.21,-3.75,-2.12,2.12,1.96,-1.71,-1.63,-1.62
100,-3.82,-2.16,-3.72,-2.06,2.06,1.90,-1.75,-1.66,-1.65
101,-3.59,-1.90,-3.71,-2.01,2.01,1.84,-1.58,-1.70,-1.69
102,-3.61,-1.89,-3.70,-1.96,1.96,1.78,-1.65,-1.75,-1.72
104,-3.67,-1.88,-3.69,-1.90,1.90,1.67,-1.76,-1.78,-1.78
105,-3.71,-1.89,-3.67,-1.85,1.85,1.62,-1.85,-1.82,-1.82
106,-3.76,-1.91,-3.66,-1.80,1.80,1.57,-1.95,-1.85,-1.85
107,-3.70,-1.82,-3.64,-1.75,1.75,1.53,-1.95,-1.88,-1.88
108,-3.53,-1.62,-3.61,-1.70,1.70,1.48,-1.83,-1.91,-1.91
109,-3.56,-1.62,-3.59,-1.65,1.65,1.44,-1.91,-1.94,-1.94
110,-3.64,-1.67,-3.57,-1.60,1.60,1.39,-2.04,-1.97,-1.97
111,-3.65,-1.65,-3.57,-1.55,1.55,1.35,-2.10,-2.02,-2.00
112,-3.54,-1.51,-3.56,-1.50,1.50,1.31,-2.04,-2.06,-2.03
113,-3.50,-1.44,-3.53,-1.45,1.45,1.27,-2.05,-2.08,-2.05
114,-3.41,-1.33,-3.50,-1.40,1.40,1.23,-2.01,-2.10,-2.08
115,-3.42,-1.31,-3.46,-1.35,1.35,1.20,-2.07,-2.11,-2.10
117,-3.45,-1.29,-3.44,-1.29,1.29,1.13,-2.15,-2.14,-2.15
118,-3.45,-1.27,-3.42,-1.24,1.24,1.09,-2.20,-2.17,-2.17
119,-3.48,-1.28,-3.39,-1.19,1.19,1.06,-2.29,-2.20,-2.19
120,-3.47,-1.26,-3.36,-1.14,1.14,1.03,-2.33,-2.22,-2.21
121,-3.37,-1.14,-3.32,-1.08,1.08,1.00,-2.29,-2.24,-2.23
123,-3.18,-0.91,-3.29,-1.02,1.02,0.94,-2.15,-2.26,-2.27
124,-3.17,-0.89,-3.26,-0.97,0.97,0.91,-2.20,-2.29,-2.28
125,-3.20,-0.90,-3.22,-0.91,0.91,0.88,-2.28,-2.31,-2.29
126,-3.21,-0.90,-3.18,-0.86,0.86,0.85,-2.35,-2.32,-2.31
128,-3.23,-0.89,-3.14,-0.80,0.80,0.80,-2.42,-2.34,-2.34
129,-3.09,-0.73,-3.10,-0.75,0.75,0.77,-2.34,-2.35,-2.35
130,-3.08,-0.71,-3.06,-0.70,0.70,0.75,-2.38,-2.37,-2.36
131,-3.07,-0.69,-3.03,-0.65,0.65,0.72,-2.42,-2.38,-2.38
133,-2.93,-0.52,-3.01,-0.60,0.60,0.67,-2.33,-2.41,-2.41
134,-2.93,-0.50,-2.99,-0.55,0.55,0.65,-2.37,-2.44,-2.42
135,-2.96,-0.52,-2.98,-0.51,0.51,0.63,-2.45,-2.47,-2.44
137,-2.95,-0.48,-2.94,-0.46,0.46,0.58,-2.49,-2.48,-2.47
138,-2.98,-0.49,-2.91,-0.42,0.42,0.56,-2.56,-2.50,-2.48
140,-2.95,-0.43,-2.88,-0.37,0.37,0.52,-2.57,-2.51,-2.52
141,-2.85,-0.32,-2.86,-0.33,0.33,0.49,-2.52,-2.53,-2.53
142,-2.85,-0.30,-2.85,-0.29,0.29,0.47,-2.56,-2.56,-2.54
144,-2.85,-0.27,-2.83,-0.25,0.25,0.43,-2.59,-2.58,-2.57
145,-2.85,-0.26,-2.82,-0.21,0.21,0.41,-2.63,-2.61,-2.59
147,-2.78,-0.16,-2.81,-0.18,0.18,0.37,-2.60,-2.63,-2.62
148,-2.71,-0.08,-2.79,-0.14,0.14,0.35,-2.56,-2.64,-2.63
150,-2.74,-0.08,-2.76,-0.11,0.11,0.31,-2.63,-2.66,-2.65
151,-2.75,-0.08,-2.75,-0.07,0.07,0.30,-2.67,-2.67,-2.67
153,-2.75,-0.06,-2.73,-0.04,0.04,0.26,-2.71,-2.69,-2.69
154,-2.75,-0.05,-2.72,-0.01,0.01,0.24,-2.74,-2.70,-2.70
156,-2.79,-0.06,-2.71,0.02,-0.02,0.20,-2.80,-2.72,-2.72
157,-2.75,-0.01,-2.70,0.05,-0.05,0.18,-2.79,-2.74,-2.73
159,-2.64,0.12,-2.69,0.07,-0.07,0.15,-2.71,-2.76,-2.75
160,-2.64,0.13,-2.69,0.10,-0.10,0.13,-2.74,-2.79,-2.76
162,-2.65,0.14,-2.69,0.12,-0.12,0.09,-2.77,-2.81,-2.79
164,-2.65,0.16,-2.68,0.15,-0.15,0.06,-2.80,-2.83,-2.81
165,-2.65,0.18,-2.66,0.18,-0.18,0.04,-2.83,-2.85,-2.82
167,-2.66,0.19,-2.65,0.21,-0.21,0.01,-2.87,-2.86,-2.84
169,-2.66,0.21,-2.63,0.24,-0.24,-0.03,-2.90,-2.88,-2.87
170,-2.67,0.21,-2.62,0.27,-0.27,-0.04,-2.94,-2.89,-2.88
172,-2.68,0.22,-2.60,0.30,-0.30,-0.08,-2.98,-2.90,-2.90
174,-2.62,0.30,-2.59,0.34,-0.34,-0.11,-2.95,-2.92,-2.92
175,-2.59,0.34,-2.58,0.37,-0.37,-0.13,-2.95,-2.95,-2.93
177,-2.51,0.44,-2.56,0.39,-0.39,-0.16,-2.90,-2.96,-2.94
179,-2.49,0.47,-2.54,0.42,-0.42,-0.20,-2.91,-2.97,-2.95
181,-2.49,0.48,-2.52,0.45,-0.45,-0.23,-2.94,-2.97,-2.96
183,-2.48,0.49,-2.49,0.48,-0.48,-0.27,-2.96,-2.97,-2.97
184,-2.47,0.50,-2.46,0.51,-0.51,-0.28,-2.98,-2.97,-2.96
186,-2.46,0.51,-2.43,0.53,-0.53,-0.32,-2.99,-2.97,-2.96
188,-2.44,0.52,-2.41,0.56,-0.56,-0.35,-2.99,-2.96,-2.96
190,-2.45,0.51,-2.38,0.58,-0.58,-0.38,-3.03,-2.96,-2.96
192,-2.43,0.52,-2.36,0.60,-0.60,-0.42,-3.03,-2.96,-2.95
194,-2.30,0.65,-2.34,0.62,-0.62,-0.45,-2.92,-2.96,-2.94
196,-2.28,0.66,-2.32,0.64,-0.64,-0.48,-2.91,-2.96,-2.94
198,-2.27,0.67,-2.30,0.65,-0.65,-0.51,-2.92,-2.95,-2.94
200,-2.26,0.68,-2.28,0.66,-0.66,-0.55,-2.92,-2.95,-2.93
202,-2.25,0.69,-2.26,0.68,-0.68,-0.58,-2.92,-2.94,-2.93
204,-2.25,0.69,-2.25,0.69,-0.69,-0.61,-2.94,-2.94,-2.94
206,-2.25,0.69,-2.24,0.70,-0.70,-0.64,-2.95,-2.94,-2.94
208,-2.25,0.70,-2.24,0.71,-0.71,-0.67,-2.95,-2.95,-2.95
210,-2.25,0.71,-2.24,0.72,-0.72,-0.70,-2.96,-2.96,-2.95
212,-2.25,0.72,-2.25,0.72,-0.72,-0.73,-2.97,-2.97,-2.96
214,-2.25,0.73,-2.26,0.73,-0.73,-0.76,-2.98,-2.99,-2.97
216,-2.26,0.73,-2.26,0.74,-0.74,-0.78,-2.99,-2.99,-2.98
218,-2.26,0.74,-2.25,0.75,-0.75,-0.81,-3.00,-3.00,-2.99
221,-2.27,0.74,-2.25,0.76,-0.76,-0.85,-3.03,-3.01,-3.01
223,-2.27,0.75,-2.24,0.77,-0.77,-0.87,-3.04,-3.01,-3.01
225,-2.27,0.75,-2.23,0.79,-0.79,-0.90,-3.06,-3.02,-3.02
227,-2.27,0.75,-2.22,0.80,-0.80,-0.92,-3.07,-3.02,-3.02
229,-2.17,0.85,-2.20,0.82,-0.82,-0.94,-2.99,-3.02,-3.02
232,-2.16,0.86,-2.18,0.84,-0.84,-0.97,-2.99,-3.02,-3.02
234,-2.15,0.87,-2.16,0.85,-0.85,-0.99,-3.00,-3.01,-3.01
236,-2.13,0.88,-2.14,0.86,-0.86,-1.00,-2.99,-3.00,-3.00
239,-2.12,0.88,-2.12,0.88,-0.88,-1.02,-2.99,-2.99,-2.99
241,-2.10,0.88,-2.09,0.89,-0.89,-1.04,-2.98,-2.98,-2.98
244,-2.08,0.89,-2.07,0.90,-0.90,-1.05,-2.97,-2.97,-2.97
246,-2.06,0.90,-2.05,0.91,-0.91,-1.06,-2.96,-2.95,-2.95
248,-2.04,0.90,-2.03,0.91,-0.91,-1.07,-2.95,-2.94,-2.94
251,-2.02,0.91,-2.02,0.92,-0.92,-1.08,-2.93,-2.93,-2.93
253,-2.00,0.92,-2.01,0.92,-0.92,-1.09,-2.91,-2.93,-2.91
256,-1.99,0.92,-2.00,0.92,-0.92,-1.09,-2.90,-2.92,-2.91
259,-1.98,0.92,-1.99,0.92,-0.92,-1.10,-2.90,-2.91,-2.90
261,-1.98,0.92,-1.98,0.92,-0.92,-1.10,-2.90,-2.90,-2.90
264,-1.98,0.92,-1.98,0.92,-0.92,-1.10,-2.90,-2.90,-2.89
266,-1.98,0.92,-1.98,0.92,-0.92,-1.09,-2.90,-2.90,-2.89
269,-1.98,0.92,-1.98,0.92,-0.92,-1.09,-2.90,-2.90,-2.90
272,-1.99,0.91,-1.98,0.92,-0.92,-1.08,-2.91,-2.90,-2.90
274,-1.99,0.91,-1.98,0.92,-0.92,-1.08,-2.90,-2.90,-2.90
277,-1.99,0.92,-1.98,0.92,-0.92,-1.07,-2.90,-2.90,-2.90
280,-1.99,0.92,-1.98,0.92,-0.92,-1.06,-2.90,-2.90,-2.90
283,-1.99,0.91,-1.97,0.92,-0.92,-1.05,-2.90,-2.89,-2.90
286,-1.98,0.92,-1.97,0.92,-0.92,-1.04,-2.90,-2.89,-2.90
288,-1.97,0.92,-1.96,0.92,-0.92,-1.03,-2.89,-2.89,-2.89
291,-1.96,0.93,-1.96,0.92,-0.92,-1.02,-2.88,-2.88,-2.88
294,-1.95,0.93,-1.95,0.93,-0.93,-1.00,-2.87,-2.88,-2.87
297,-1.94,0.93,-1.94,0.93,-0.93,-0.99,-2.87,-2.87,-2.86
300,-1.93,0.93,-1.92,0.94,-0.94,-0.98,-2.87,-2.86,-2.85
303,-1.91,0.94,-1.90,0.95,-0.95,-0.97,-2.85,-2.85,-2.84
306,-1.90,0.94,-1.89,0.95,-0.95,-0.95,-2.85,-2.84,-2.83
309,-1.90,0.93,-1.87,0.96,-0.96,-0.94,-2.86,-2.83,-2.83
312,-1.89,0.93,-1.86,0.97,-0.97,-0.93,-2.85,-2.83,-2.82
316,-1.88,0.94,-1.85,0.97,-0.97,-0.91,-2.85,-2.83,-2.82
319,-1.86,0.96,-1.85,0.97,-0.97,-0.90,-2.83,-2.82,-2.81
322,-1.78,1.03,-1.85,0.98,-0.98,-0.89,-2.75,-2.82,-2.81
325,-1.78,1.03,-1.84,0.98,-0.98,-0.88,-2.75,-2.82,-2.81
328,-1.78,1.03,-1.85,0.98,-0.98,-0.87,-2.75,-2.82,-2.81
332,-1.89,0.92,-1.85,0.97,-0.97,-0.85,-2.86,-2.82,-2.81
335,-1.89,0.92,-1.85,0.97,-0.97,-0.84,-2.86,-2.82,-2.81
338,-1.89,0.93,-1.85,0.96,-0.96,-0.83,-2.85,-2.82,-2.81
342,-1.89,0.93,-1.86,0.96,-0.96,-0.82,-2.84,-2.81,-2.81
345,-1.89,0.93,-1.87,0.95,-0.95,-0.82,-2.83,-2.81,-2.81
349,-1.89,0.92,-1.88,0.94,-0.94,-0.81,-2.82,-2.81,-2.81
352,-1.89,0.92,-1.89,0.92,-0.92,-0.80,-2.81,-2.81,-2.81
356,-1.89,0.92,-1.90,0.91,-0.91,-0.79,-2.80,-2.81,-2.80
359,-1.88,0.92,-1.91,0.90,-0.90,-0.79,-2.77,-2.81,-2.80
363,-1.88,0.92,-1.91,0.89,-0.89,-0.78,-2.76,-2.80,-2.79
366,-1.87,0.92,-1.91,0.88,-0.88,-0.78,-2.74,-2.78,-2.79
370,-1.96,0.82,-1.92,0.86,-0.86,-0.77,-2.82,-2.78,-2.78
374,-1.96,0.81,-1.93,0.85,-0.85,-0.77,-2.81,-2.78,-2.77
377,-1.95,0.82,-1.93,0.85,-0.85,-0.77,-2.79,-2.78,-2.76
381,-1.94,0.82,-1.93,0.84,-0.84,-0.76,-2.78,-2.77,-2.76
385,-1.93,0.82,-1.93,0.84,-0.84,-0.76,-2.77,-2.77,-2.75
389,-1.93,0.82,-1.92,0.84,-0.84,-0.76,-2.77,-2.77,-2.75
393,-1.93,0.82,-1.92,0.85,-0.85,-0.76,-2.77,-2.77,-2.74
397,-1.92,0.83,-1.91,0.85,-0.85,-0.76,-2.77,-2.76,-2.74
401,-1.93,0.82,-1.89,0.86,-0.86,-0.76,-2.79,-2.76,-2.74
405,-1.91,0.84,-1.88,0.87,-0.87,-0.76,-2.78,-2.75,-2.75
409,-1.83,0.92,-1.87,0.88,-0.88,-0.76,-2.70,-2.75,-2.75
413,-1.83,0.92,-1.87,0.88,-0.88,-0.77,-2.71,-2.75,-2.75
417,-1.84,0.91,-1.86,0.88,-0.88,-0.77,-2.72,-2.74,-2.74
421,-1.83,0.91,-1.86,0.88,-0.88,-0.77,-2.70,-2.74,-2.74
425,-1.83,0.90,-1.85,0.87,-0.87,-0.77,-2.70,-2.72,-2.73
430,-1.82,0.89,-1.84,0.87,-0.87,-0.78,-2.68,-2.70,-2.71
434,-1.82,0.87,-1.82,0.86,-0.86,-0.78,-2.67,-2.68,-2.68
438,-1.87,0.79,-1.80,0.85,-0.85,-0.78,-2.71,-2.64,-2.65
443,-1.84,0.78,-1.78,0.83,-0.83,-0.79,-2.67,-2.61,-2.62
447,-1.79,0.79,-1.75,0.82,-0.82,-0.79,-2.61,-2.58,-2.57
451,-1.74,0.79,-1.72,0.81,-0.81,-0.80,-2.55,-2.53,-2.52
456,-1.68,0.79,-1.67,0.81,-0.81,-0.80,-2.48,-2.48,-2.47
460,-1.62,0.79,-1.62,0.80,-0.80,-0.80,-2.42,-2.42,-2.41
465,-1.55,0.81,-1.56,0.80,-0.80,-0.81,-2.35,-2.36,-2.35
470,-1.49,0.81,-1.49,0.81,-0.81,-0.81,-2.30,-2.30,-2.29
474,-1.44,0.80,-1.43,0.82,-0.82,-0.82,-2.25,-2.24,-2.24
479,-1.38,0.81,-1.36,0.83,-0.83,-0.82,-2.20,-2.19,-2.18
484,-1.34,0.79,-1.30,0.84,-0.84,-0.82,-2.17,-2.13,-2.13
489,-1.22,0.87,-1.24,0.85,-0.85,-0.83,-2.06,-2.09,-2.08
494,-1.14,0.91,-1.19,0.86,-0.86,-0.83,-1.99,-2.05,-2.04
499,-1.13,0.88,-1.15,0.87,-0.87,-0.83,-1.99,-2.02,-2.01
504,-1.11,0.88,-1.12,0.88,-0.88,-0.84,-1.98,-1.99,-1.98
509,-1.09,0.88,-1.09,0.88,-0.88,-0.84,-1.97,-1.98,-1.97
514,-1.08,0.88,-1.08,0.89,-0.89,-0.84,-1.96,-1.97,-1.96
519,-1.07,0.89,-1.07,0.89,-0.89,-0.85,-1.96,-1.96,-1.95
524,-1.08,0.88,-1.08,0.89,-0.89,-0.85,-1.97,-1.97,-1.96
529,-1.09,0.89,-1.10,0.89,-0.89,-0.85,-1.97,-1.99,-1.97
535,-1.11,0.89,-1.13,0.88,-0.88,-0.85,-1.99,-2.01,-2.00
540,-1.14,0.89,-1.17,0.88,-0.88,-0.85,-2.01,-2.04,-2.02
545,-1.18,0.88,-1.20,0.87,-0.87,-0.86,-2.05,-2.07,-2.06
551,-1.23,0.86,-1.23,0.86,-0.86,-0.86,-2.09,-2.10,-2.09
556,-1.28,0.85,-1.27,0.86,-0.86,-0.86,-2.14,-2.13,-2.12
562,-1.33,0.83,-1.30,0.86,-0.86,-0.86,-2.18,-2.16,-2.16
568,-1.38,0.81,-1.33,0.85,-0.85,-0.86,-2.23,-2.19,-2.19
573,-1.42,0.79,-1.36,0.85,-0.85,-0.87,-2.27,-2.21,-2.21
579,-1.46,0.77,-1.38,0.85,-0.85,-0.87,-2.30,-2.22,-2.23
585,-1.39,0.85,-1.39,0.84,-0.84,-0.87,-2.23,-2.24,-2.24
591,-1.35,0.90,-1.40,0.84,-0.84,-0.88,-2.18,-2.24,-2.24
596,-1.37,0.88,-1.40,0.83,-0.83,-0.88,-2.20,-2.23,-2.24
602,-1.40,0.84,-1.40,0.83,-0.83,-0.88,-2.23,-2.23,-2.23
608,-1.38,0.84,-1.39,0.83,-0.83,-0.89,-2.20,-2.21,-2.22
615,-1.37,0.83,-1.38,0.82,-0.82,-0.89,-2.19,-2.20,-2.19
621,-1.35,0.82,-1.36,0.82,-0.82,-0.90,-2.16,-2.17,-2.17
627,-1.32,0.82,-1.32,0.82,-0.82,-0.91,-2.13,-2.14,-2.13
633,-1.29,0.81,-1.28,0.82,-0.82,-0.91,-2.10,-2.10,-2.09
639,-1.26,0.79,-1.23,0.82,-0.82,-0.92,-2.08,-2.05,-2.05
646,-1.22,0.78,-1.18,0.83,-0.83,-0.93,-2.05,-2.01,-2.00
652,-1.19,0.76,-1.13,0.84,-0.84,-0.94,-2.03,-1.97,-1.95
659,-1.17,0.73,-1.06,0.86,-0.86,-0.95,-2.02,-1.92,-1.90
665,-1.04,0.81,-0.99,0.87,-0.87,-0.95,-1.91,-1.86,-1.85
672,-0.92,0.88,-0.92,0.89,-0.89,-0.97,-1.81,-1.81,-1.80
679,-0.74,1.01,-0.85,0.91,-0.91,-0.98,-1.65,-1.76,-1.75
686,-0.71,1.00,-0.79,0.93,-0.93,-0.99,-1.63,-1.72,-1.70
692,-0.69,0.98,-0.74,0.94,-0.94,-1.00,-1.63,-1.68,-1.67
699,-0.67,0.97,-0.70,0.96,-0.96,-1.02,-1.62,-1.65,-1.64
706,-0.69,0.93,-0.66,0.97,-0.97,-1.03,-1.65,-1.63,-1.61
713,-0.65,0.95,-0.64,0.97,-0.97,-1.04,-1.62,-1.61,-1.60
721,-0.56,1.03,-0.61,0.98,-0.98,-1.06,-1.54,-1.59,-1.59
728,-0.57,1.02,-0.60,0.98,-0.98,-1.08,-1.55,-1.58,-1.59
735,-0.60,0.99,-0.60,0.98,-0.98,-1.10,-1.58,-1.58,-1.59
742,-0.63,0.96,-0.61,0.98,-0.98,-1.11,-1.61,-1.59,-1.59
750,-0.67,0.92,-0.61,0.98,-0.98,-1.13,-1.64,-1.59,-1.59
757,-0.70,0.89,-0.61,0.98,-0.98,-1.15,-1.68,-1.59,-1.59
765,-0.60,0.99,-0.60,0.98,-0.98,-1.17,-1.58,-1.58,-1.58
773,-0.56,1.02,-0.58,0.99,-0.99,-1.20,-1.55,-1.57,-1.58
780,-0.51,1.06,-0.56,1.01,-1.01,-1.22,-1.51,-1.57,-1.57
788,-0.53,1.03,-0.54,1.02,-1.02,-1.24,-1.55,-1.56,-1.56
796,-0.55,1.00,-0.51,1.04,-1.04,-1.26,-1.59,-1.55,-1.54
804,-0.55,0.98,-0.46,1.07,-1.07,-1.29,-1.62,-1.53,-1.53
812,-0.46,1.05,-0.42,1.10,-1.10,-1.31,-1.56,-1.52,-1.51
820,-0.32,1.18,-0.37,1.14,-1.14,-1.33,-1.45,-1.51,-1.49
828,-0.32,1.16,-0.31,1.18,-1.18,-1.36,-1.49,-1.49,-1.48
837,-0.22,1.25,-0.26,1.22,-1.22,-1.39,-1.44,-1.48,-1.46
845,-0.22,1.23,-0.21,1.26,-1.26,-1.41,-1.48,-1.47,-1.45
853,-0.22,1.22,-0.15,1.30,-1.30,-1.43,-1.52,-1.45,-1.44
862,-0.04,1.39,-0.09,1.34,-1.34,-1.46,-1.38,-1.44,-1.43
871,-0.03,1.40,-0.04,1.38,-1.38,-1.49,-1.41,-1.42,-1.42
879,-0.04,1.38,-0.00,1.41,-1.41,-1.51,-1.45,-1.41,-1.42
888,0.01,1.43,0.03,1.43,-1.43,-1.53,-1.42,-1.40,-1.41
897,0.09,1.50,0.05,1.45,-1.45,-1.56,-1.36,-1.40,-1.41
906,0.14,1.55,0.07,1.46,-1.46,-1.58,-1.32,-1.39,-1.40
915,0.13,1.53,0.08,1.47,-1.47,-1.61,-1.33,-1.39,-1.40
924,0.13,1.52,0.07,1.46,-1.46,-1.63,-1.33,-1.39,-1.39
933,0.06,1.45,0.07,1.45,-1.45,-1.65,-1.39,-1.38,-1.38
943,0.01,1.39,0.06,1.44,-1.44,-1.67,-1.42,-1.38,-1.38
952,0.03,1.40,0.05,1.42,-1.42,-1.69,-1.39,-1.37,-1.37
962,0.03,1.39,0.05,1.41,-1.41,-1.71,-1.38,-1.36,-1.36
971,0.06,1.41,0.05,1.40,-1.40,-1.73,-1.33,-1.35,-1.34
981,0.06,1.40,0.05,1.39,-1.39,-1.74,-1.33,-1.34,-1.33
991,-0.04,1.28,0.05,1.39,-1.39,-1.76,-1.42,-1.34,-1.32
1001,0.00,1.30,0.07,1.39,-1.39,-1.77,-1.39,-1.32,-1.30
1011,0.07,1.35,0.11,1.41,-1.41,-1.79,-1.34,-1.30,-1.28
1021,0.19,1.45,0.16,1.43,-1.43,-1.80,-1.24,-1.27,-1.25
1031,0.25,1.48,0.22,1.47,-1.47,-1.81,-1.21,-1.24,-1.23
1041,0.28,1.49,0.29,1.51,-1.51,-1.82,-1.22,-1.21,-1.20
1052,0.31,1.49,0.37,1.55,-1.55,-1.83,-1.24,-1.19,-1.18
1062,0.44,1.59,0.45,1.60,-1.60,-1.83,-1.16,-1.16,-1.15
1073,0.50,1.62,0.53,1.66,-1.66,-1.84,-1.15,-1.12,-1.12
1084,0.63,1.72,0.63,1.72,-1.72,-1.85,-1.08,-1.09,-1.09
1094,0.76,1.82,0.73,1.78,-1.78,-1.85,-1.01,-1.05,-1.06
1105,0.86,1.89,0.81,1.84,-1.84,-1.86,-0.97,-1.02,-1.03
1116,0.92,1.92,0.90,1.89,-1.89,-1.86,-0.97,-0.99,-0.99
1128,0.99,1.95,0.99,1.95,-1.95,-1.87,-0.96,-0.96,-0.96
1139,1.07,2.00,1.08,2.00,-2.00,-1.88,-0.93,-0.93,-0.93
1150,1.15,2.04,1.17,2.05,-2.05,-1.88,-0.90,-0.88,-0.89
1162,1.24,2.10,1.26,2.10,-2.10,-1.89,-0.85,-0.84,-0.85
1173,1.33,2.15,1.33,2.14,-2.14,-1.89,-0.80,-0.80,-0.82
1185,1.39,2.18,1.41,2.18,-2.18,-1.90,-0.78,-0.76,-0.78
1197,1.43,2.18,1.48,2.21,-2.21,-1.91,-0.78,-0.73,-0.74
1209,1.55,2.26,1.54,2.25,-2.25,-1.91,-0.70,-0.71,-0.71
1221,1.64,2.32,1.60,2.28,-2.28,-1.92,-0.64,-0.68,-0.67
1233,1.69,2.33,1.66,2.32,-2.32,-1.93,-0.62,-0.66,-0.64
1246,1.75,2.36,1.72,2.35,-2.35,-1.94,-0.60,-0.63,-0.61
1258,1.83,2.42,1.78,2.39,-2.39,-1.95,-0.55,-0.61,-0.58
1271,1.82,2.39,1.83,2.42,-2.42,-1.97,-0.60,-0.59,-0.57
1283,1.83,2.39,1.88,2.46,-2.46,-1.98,-0.62,-0.57,-0.55
1296,1.89,2.44,1.93,2.50,-2.50,-2.00,-0.60,-0.57,-0.55
1309,1.89,2.44,1.97,2.53,-2.53,-2.02,-0.64,-0.57,-0.55
1322,1.95,2.51,2.00,2.57,-2.57,-2.04,-0.62,-0.57,-0.56
1335,2.04,2.61,2.03,2.61,-2.61,-2.06,-0.57,-0.58,-0.57
1349,2.11,2.70,2.06,2.65,-2.65,-2.08,-0.53,-0.59,-0.58
1362,2.16,2.77,2.08,2.68,-2.68,-2.10,-0.52,-0.60,-0.60
1376,2.16,2.79,2.09,2.71,-2.71,-2.13,-0.55,-0.62,-0.62
1390,2.11,2.76,2.10,2.74,-2.74,-2.16,-0.63,-0.64,-0.64
1404,2.11,2.78,2.12,2.77,-2.77,-2.19,-0.65,-0.65,-0.66
1418,2.11,2.79,2.13,2.79,-2.79,-2.22,-0.68,-0.66,-0.68
1432,2.13,2.83,2.14,2.82,-2.82,-2.25,-0.68,-0.68,-0.69
1446,2.12,2.83,2.15,2.84,-2.84,-2.29,-0.72,-0.69,-0.70
1461,2.18,2.89,2.15,2.86,-2.86,-2.32,-0.68,-0.71,-0.70
1475,2.10,2.81,2.17,2.89,-2.89,-2.36,-0.79,-0.72,-0.70
1490,2.15,2.85,2.20,2.92,-2.92,-2.40,-0.77,-0.72,-0.70
1505,2.20,2.90,2.23,2.95,-2.95,-2.44,-0.75,-0.72,-0.69
1520,2.26,2.95,2.28,2.99,-2.99,-2.49,-0.73,-0.71,-0.68
1535,2.34,3.02,2.34,3.03,-3.03,-2.53,-0.69,-0.69,-0.67
1550,2.41,3.07,2.40,3.07,-3.07,-2.58,-0.66,-0.67,-0.66
1566,2.39,3.03,2.47,3.12,-3.12,-2.62,-0.72,-0.65,-0.64
