frequency,raw,smoothed,error,error_smoothed,equalization,parametric_eq,fixed_band_eq,equalized_raw,equalized_smoothed,target
20.00,5.06,5.06,2.46,2.46,-2.47,-1.45,-0.88,2.59,2.59,2.60
20.20,5.06,5.07,2.46,2.47,-2.47,-1.45,-0.91,2.59,2.60,2.60
20.40,5.07,5.07,2.47,2.47,-2.47,-1.45,-0.94,2.60,2.60,2.60
20.61,5.07,5.07,2.47,2.47,-2.47,-1.45,-0.97,2.60,2.60,2.60
20.81,5.07,5.07,2.47,2.48,-2.46,-1.45,-1.00,2.61,2.61,2.60
21.02,5.07,5.07,2.47,2.47,-2.46,-1.45,-1.03,2.61,2.61,2.60
21.23,5.06,5.06,2.46,2.46,-2.45,-1.44,-1.06,2.61,2.61,2.60
21.44,5.05,5.05,2.44,2.44,-2.44,-1.44,-1.09,2.62,2.61,2.61
21.66,5.02,5.03,2.42,2.42,-2.42,-1.44,-1.12,2.61,2.61,2.61
21.87,5.00,5.00,2.40,2.40,-2.40,-1.44,-1.16,2.61,2.61,2.61
22.09,4.98,4.98,2.38,2.37,-2.38,-1.44,-1.19,2.61,2.60,2.61
22.31,4.95,4.95,2.35,2.35,-2.36,-1.44,-1.23,2.60,2.60,2.60
22.54,4.93,4.93,2.33,2.33,-2.34,-1.44,-1.26,2.59,2.59,2.60
22.76,4.92,4.92,2.32,2.32,-2.33,-1.44,-1.30,2.59,2.59,2.60
22.99,4.91,4.91,2.31,2.31,-2.32,-1.44,-1.34,2.59,2.60,2.60
23.22,4.91,4.91,2.31,2.31,-2.31,-1.44,-1.38,2.60,2.60,2.60
23.45,4.91,4.91,2.31,2.31,-2.30,-1.44,-1.42,2.61,2.60,2.60
23.69,4.90,4.90,2.30,2.30,-2.29,-1.44,-1.46,2.61,2.61,2.60
23.92,4.89,4.89,2.29,2.29,-2.28,-1.43,-1.50,2.61,2.61,2.60
24.16,4.88,4.88,2.28,2.28,-2.27,-1.43,-1.54,2.62,2.61,2.60
24.40,4.85,4.85,2.25,2.25,-2.25,-1.43,-1.58,2.60,2.60,2.60
24.65,4.82,4.82,2.23,2.23,-2.23,-1.43,-1.63,2.60,2.60,2.60
24.89,4.79,4.79,2.20,2.20,-2.21,-1.43,-1.67,2.58,2.59,2.60
25.14,4.77,4.77,2.18,2.18,-2.19,-1.43,-1.72,2.58,2.58,2.59
25.39,4.75,4.75,2.16,2.16,-2.17,-1.43,-1.76,2.58,2.58,2.59
25.65,4.74,4.75,2.15,2.15,-2.16,-1.43,-1.80,2.58,2.58,2.59
25.91,4.74,4.74,2.15,2.15,-2.15,-1.43,-1.85,2.59,2.59,2.59
26.16,4.74,4.74,2.15,2.15,-2.14,-1.42,-1.89,2.60,2.59,2.59
26.43,4.73,4.73,2.14,2.15,-2.14,-1.42,-1.94,2.60,2.60,2.59
26.69,4.72,4.72,2.13,2.14,-2.13,-1.42,-1.98,2.60,2.60,2.59
26.96,4.71,4.71,2.13,2.12,-2.11,-1.42,-2.02,2.60,2.59,2.59
27.23,4.68,4.69,2.10,2.10,-2.10,-1.42,-2.06,2.58,2.59,2.58
27.50,4.66,4.66,2.08,2.08,-2.08,-1.42,-2.10,2.58,2.58,2.58
27.77,4.64,4.64,2.06,2.06,-2.07,-1.42,-2.14,2.57,2.57,2.58
28.05,4.62,4.62,2.04,2.04,-2.05,-1.41,-2.17,2.57,2.57,2.58
28.33,4.60,4.60,2.02,2.03,-2.03,-1.41,-2.21,2.58,2.58,2.58
28.62,4.58,4.59,2.01,2.01,-2.00,-1.41,-2.24,2.58,2.58,2.58
28.90,4.57,4.57,2.00,1.99,-1.98,-1.41,-2.27,2.59,2.58,2.57
29.19,4.54,4.54,1.97,1.97,-1.96,-1.41,-2.29,2.58,2.58,2.57
29.48,4.51,4.51,1.94,1.94,-1.94,-1.41,-2.32,2.57,2.57,2.57
29.78,4.48,4.48,1.91,1.91,-1.92,-1.40,-2.34,2.56,2.56,2.57
30.08,4.45,4.45,1.89,1.89,-1.90,-1.40,-2.35,2.55,2.56,2.57
30.38,4.43,4.43,1.87,1.87,-1.88,-1.40,-2.37,2.55,2.55,2.56
30.68,4.42,4.42,1.86,1.86,-1.86,-1.40,-2.38,2.56,2.56,2.56
30.99,4.41,4.41,1.84,1.85,-1.85,-1.40,-2.39,2.57,2.57,2.57
31.30,4.41,4.41,1.84,1.84,-1.83,-1.39,-2.39,2.58,2.58,2.57
31.61,4.39,4.39,1.83,1.83,-1.81,-1.39,-2.39,2.58,2.58,2.57
31.93,4.37,4.37,1.81,1.80,-1.79,-1.39,-2.38,2.58,2.58,2.56
32.24,4.33,4.33,1.77,1.77,-1.77,-1.39,-2.37,2.56,2.56,2.56
32.57,4.30,4.30,1.74,1.74,-1.76,-1.38,-2.36,2.54,2.54,2.56
32.89,4.27,4.27,1.72,1.72,-1.75,-1.38,-2.35,2.53,2.53,2.55
33.22,4.26,4.26,1.71,1.71,-1.74,-1.38,-2.33,2.53,2.53,2.55
33.55,4.25,4.26,1.71,1.72,-1.73,-1.38,-2.31,2.53,2.53,2.54
33.89,4.26,4.26,1.73,1.73,-1.72,-1.37,-2.28,2.55,2.55,2.54
34.23,4.26,4.26,1.73,1.73,-1.71,-1.37,-2.26,2.56,2.55,2.53
34.57,4.25,4.25,1.72,1.72,-1.70,-1.37,-2.23,2.56,2.55,2.53
34.92,4.22,4.22,1.70,1.70,-1.68,-1.36,-2.19,2.54,2.54,2.53
35.27,4.18,4.19,1.66,1.66,-1.67,-1.36,-2.16,2.52,2.52,2.52
35.62,4.15,4.15,1.63,1.63,-1.65,-1.36,-2.13,2.50,2.50,2.52
35.97,4.12,4.13,1.61,1.61,-1.63,-1.35,-2.09,2.50,2.50,2.51
36.33,4.11,4.11,1.60,1.60,-1.61,-1.35,-2.05,2.51,2.50,2.51
36.70,4.09,4.09,1.59,1.59,-1.59,-1.35,-2.01,2.51,2.50,2.51
37.06,4.07,4.07,1.57,1.57,-1.57,-1.34,-1.97,2.50,2.50,2.50
37.43,4.05,4.05,1.56,1.56,-1.55,-1.34,-1.93,2.50,2.50,2.50
37.81,4.03,4.03,1.54,1.54,-1.54,-1.33,-1.89,2.49,2.49,2.49
38.19,4.01,4.01,1.53,1.53,-1.53,-1.33,-1.85,2.49,2.49,2.49
38.57,3.99,3.99,1.51,1.51,-1.51,-1.33,-1.81,2.48,2.48,2.48
38.95,3.97,3.97,1.50,1.49,-1.49,-1.32,-1.77,2.48,2.48,2.48
39.34,3.94,3.94,1.47,1.47,-1.47,-1.32,-1.73,2.47,2.48,2.47
39.74,3.91,3.91,1.45,1.45,-1.45,-1.31,-1.69,2.47,2.47,2.47
40.14,3.88,3.88,1.42,1.42,-1.42,-1.31,-1.65,2.46,2.46,2.46
40.54,3.84,3.85,1.39,1.40,-1.40,-1.30,-1.61,2.44,2.45,2.45
40.94,3.82,3.82,1.38,1.37,-1.38,-1.30,-1.57,2.44,2.44,2.45
41.35,3.79,3.79,1.35,1.35,-1.35,-1.29,-1.53,2.44,2.44,2.44
41.76,3.77,3.77,1.34,1.33,-1.33,-1.28,-1.50,2.44,2.44,2.43
42.18,3.73,3.74,1.31,1.31,-1.30,-1.28,-1.46,2.43,2.43,2.43
42.60,3.70,3.70,1.28,1.28,-1.28,-1.27,-1.43,2.42,2.42,2.42
43.03,3.67,3.67,1.26,1.26,-1.26,-1.26,-1.39,2.42,2.41,2.41
43.46,3.63,3.64,1.23,1.23,-1.23,-1.26,-1.36,2.40,2.40,2.40
43.90,3.60,3.60,1.21,1.21,-1.21,-1.25,-1.33,2.39,2.39,2.39
44.33,3.57,3.57,1.19,1.18,-1.19,-1.24,-1.30,2.38,2.38,2.39
44.78,3.54,3.55,1.16,1.17,-1.17,-1.24,-1.27,2.37,2.37,2.38
45.23,3.52,3.53,1.15,1.16,-1.15,-1.23,-1.24,2.37,2.37,2.37
45.68,3.51,3.51,1.15,1.15,-1.14,-1.22,-1.21,2.38,2.37,2.36
46.13,3.49,3.49,1.14,1.14,-1.12,-1.21,-1.18,2.37,2.36,2.35
46.60,3.45,3.45,1.11,1.12,-1.11,-1.20,-1.16,2.34,2.34,2.34
47.06,3.42,3.42,1.09,1.09,-1.11,-1.19,-1.13,2.31,2.31,2.33
47.53,3.39,3.40,1.07,1.08,-1.11,-1.18,-1.11,2.28,2.29,2.32
48.01,3.38,3.39,1.08,1.08,-1.10,-1.18,-1.09,2.28,2.28,2.31
48.49,3.39,3.39,1.10,1.10,-1.10,-1.17,-1.07,2.30,2.29,2.29
48.97,3.39,3.39,1.12,1.12,-1.09,-1.15,-1.04,2.30,2.30,2.27
49.46,3.38,3.37,1.12,1.11,-1.08,-1.14,-1.02,2.30,2.29,2.26
49.96,3.33,3.33,1.08,1.08,-1.07,-1.13,-1.00,2.27,2.26,2.25
50.46,3.27,3.28,1.04,1.04,-1.05,-1.12,-0.99,2.22,2.23,2.23
50.96,3.22,3.23,1.00,1.01,-1.03,-1.11,-0.97,2.19,2.20,2.22
51.47,3.19,3.19,0.99,0.99,-1.00,-1.10,-0.95,2.19,2.19,2.21
51.99,3.17,3.16,0.98,0.97,-0.98,-1.08,-0.94,2.20,2.19,2.19
52.51,3.13,3.13,0.96,0.96,-0.95,-1.07,-0.92,2.18,2.18,2.18
53.03,3.09,3.09,0.93,0.93,-0.93,-1.06,-0.91,2.16,2.17,2.16
53.56,3.05,3.06,0.91,0.91,-0.91,-1.04,-0.89,2.14,2.15,2.14
54.10,3.02,3.02,0.90,0.90,-0.90,-1.03,-0.88,2.13,2.13,2.13
54.64,2.99,2.99,0.88,0.88,-0.88,-1.01,-0.87,2.11,2.10,2.11
55.18,2.95,2.95,0.86,0.86,-0.87,-1.00,-0.85,2.08,2.08,2.09
55.74,2.91,2.92,0.84,0.85,-0.86,-0.98,-0.84,2.06,2.07,2.07
56.29,2.89,2.90,0.84,0.85,-0.84,-0.97,-0.83,2.05,2.06,2.05
56.86,2.89,2.88,0.86,0.84,-0.83,-0.95,-0.82,2.06,2.05,2.03
57.42,2.85,2.85,0.84,0.83,-0.82,-0.94,-0.81,2.03,2.03,2.01
58.00,2.80,2.80,0.81,0.81,-0.81,-0.92,-0.80,1.99,2.00,1.99
58.58,2.75,2.75,0.78,0.78,-0.80,-0.90,-0.79,1.96,1.96,1.97
59.16,2.71,2.72,0.76,0.77,-0.79,-0.88,-0.78,1.93,1.93,1.95
59.76,2.69,2.69,0.77,0.77,-0.77,-0.87,-0.77,1.92,1.92,1.93
60.35,2.67,2.67,0.77,0.76,-0.76,-0.85,-0.76,1.91,1.91,1.90
60.96,2.64,2.64,0.76,0.76,-0.75,-0.83,-0.75,1.89,1.89,1.88
61.57,2.60,2.60,0.74,0.74,-0.74,-0.81,-0.74,1.87,1.87,1.86
62.18,2.56,2.56,0.73,0.73,-0.72,-0.80,-0.73,1.84,1.84,1.84
62.80,2.52,2.52,0.71,0.71,-0.71,-0.78,-0.72,1.81,1.81,1.81
63.43,2.48,2.48,0.70,0.70,-0.70,-0.76,-0.71,1.79,1.78,1.78
64.07,2.43,2.44,0.68,0.68,-0.68,-0.74,-0.71,1.75,1.76,1.75
64.71,2.39,2.39,0.67,0.67,-0.67,-0.73,-0.70,1.73,1.73,1.73
65.35,2.35,2.35,0.65,0.65,-0.65,-0.71,-0.69,1.70,1.70,1.70
66.01,2.31,2.31,0.64,0.64,-0.64,-0.70,-0.68,1.67,1.67,1.68
66.67,2.27,2.27,0.63,0.63,-0.64,-0.68,-0.67,1.63,1.64,1.64
67.33,2.24,2.24,0.63,0.63,-0.63,-0.67,-0.67,1.61,1.61,1.61
68.01,2.21,2.21,0.63,0.63,-0.63,-0.65,-0.66,1.58,1.58,1.58
68.69,2.18,2.18,0.63,0.63,-0.63,-0.64,-0.65,1.55,1.55,1.55
69.37,2.15,2.15,0.63,0.63,-0.63,-0.63,-0.65,1.52,1.53,1.52
70.07,2.12,2.12,0.64,0.63,-0.63,-0.62,-0.64,1.50,1.49,1.48
70.77,2.08,2.08,0.63,0.63,-0.62,-0.61,-0.63,1.46,1.46,1.46
71.48,2.03,2.04,0.61,0.62,-0.62,-0.60,-0.63,1.41,1.42,1.42
72.19,2.00,2.00,0.62,0.61,-0.62,-0.59,-0.62,1.39,1.38,1.38
72.91,1.96,1.96,0.61,0.61,-0.61,-0.59,-0.61,1.35,1.35,1.35
73.64,1.92,1.92,0.60,0.60,-0.60,-0.58,-0.61,1.32,1.32,1.32
74.38,1.87,1.88,0.59,0.59,-0.60,-0.57,-0.60,1.28,1.28,1.28
75.12,1.83,1.83,0.59,0.59,-0.59,-0.57,-0.60,1.24,1.24,1.24
75.87,1.79,1.79,0.59,0.59,-0.58,-0.57,-0.59,1.21,1.21,1.20
76.63,1.75,1.75,0.58,0.58,-0.58,-0.56,-0.59,1.17,1.17,1.17
77.40,1.70,1.70,0.57,0.57,-0.57,-0.56,-0.59,1.13,1.13,1.13
78.17,1.65,1.66,0.56,0.57,-0.56,-0.56,-0.58,1.09,1.09,1.09
78.95,1.61,1.61,0.56,0.56,-0.56,-0.56,-0.58,1.05,1.05,1.05
79.74,1.56,1.57,0.55,0.55,-0.55,-0.56,-0.58,1.01,1.01,1.01
80.54,1.52,1.52,0.55,0.55,-0.55,-0.56,-0.57,0.97,0.97,0.97
81.35,1.48,1.48,0.55,0.54,-0.55,-0.56,-0.57,0.93,0.92,0.94
82.16,1.43,1.44,0.54,0.54,-0.55,-0.55,-0.57,0.88,0.88,0.89
82.98,1.39,1.40,0.54,0.55,-0.56,-0.55,-0.57,0.84,0.84,0.85
83.81,1.37,1.37,0.57,0.56,-0.56,-0.55,-0.57,0.82,0.81,0.81
84.65,1.33,1.33,0.56,0.57,-0.55,-0.55,-0.57,0.78,0.78,0.77
85.50,1.29,1.29,0.57,0.57,-0.55,-0.55,-0.57,0.74,0.74,0.73
86.35,1.24,1.23,0.56,0.55,-0.54,-0.55,-0.57,0.70,0.69,0.68
87.22,1.16,1.17,0.53,0.53,-0.53,-0.55,-0.57,0.63,0.64,0.63
88.09,1.10,1.10,0.51,0.51,-0.52,-0.55,-0.58,0.58,0.59,0.59
88.97,1.04,1.04,0.49,0.50,-0.50,-0.55,-0.58,0.54,0.54,0.55
89.86,0.99,0.99,0.49,0.49,-0.49,-0.55,-0.58,0.50,0.50,0.50
90.76,0.93,0.93,0.48,0.47,-0.48,-0.55,-0.58,0.46,0.45,0.46
91.66,0.87,0.88,0.46,0.46,-0.47,-0.54,-0.59,0.40,0.41,0.41
92.58,0.82,0.82,0.45,0.46,-0.46,-0.54,-0.59,0.36,0.36,0.37
93.51,0.78,0.78,0.46,0.46,-0.46,-0.54,-0.60,0.32,0.32,0.32
94.44,0.73,0.73,0.46,0.46,-0.46,-0.53,-0.60,0.27,0.28,0.27
95.39,0.69,0.69,0.46,0.46,-0.46,-0.53,-0.61,0.23,0.23,0.23
96.34,0.64,0.64,0.46,0.46,-0.46,-0.53,-0.61,0.18,0.18,0.18
97.30,0.60,0.60,0.47,0.47,-0.46,-0.52,-0.62,0.14,0.14,0.13
98.28,0.55,0.55,0.46,0.46,-0.47,-0.52,-0.62,0.09,0.09,0.09
99.26,0.50,0.50,0.46,0.46,-0.47,-0.51,-0.63,0.03,0.04,0.04
100.25,0.45,0.45,0.46,0.46,-0.47,-0.51,-0.64,-0.02,-0.01,-0.01
101.25,0.41,0.41,0.47,0.47,-0.47,-0.50,-0.64,-0.06,-0.06,-0.06
102.27,0.36,0.37,0.47,0.47,-0.47,-0.50,-0.65,-0.10,-0.10,-0.10
103.29,0.32,0.32,0.47,0.47,-0.46,-0.49,-0.66,-0.14,-0.14,-0.15
104.32,0.26,0.26,0.46,0.46,-0.45,-0.49,-0.66,-0.19,-0.19,-0.20
105.37,0.20,0.20,0.45,0.45,-0.44,-0.48,-0.67,-0.24,-0.24,-0.24
106.42,0.14,0.14,0.43,0.43,-0.43,-0.48,-0.68,-0.29,-0.29,-0.29
107.48,0.08,0.08,0.42,0.42,-0.42,-0.47,-0.68,-0.34,-0.34,-0.34
108.56,0.01,0.01,0.40,0.40,-0.40,-0.47,-0.69,-0.39,-0.39,-0.38
109.64,-0.05,-0.05,0.38,0.38,-0.39,-0.46,-0.70,-0.44,-0.44,-0.43
110.74,-0.11,-0.11,0.37,0.37,-0.38,-0.46,-0.70,-0.49,-0.49,-0.48
111.85,-0.16,-0.16,0.37,0.37,-0.37,-0.45,-0.71,-0.53,-0.53,-0.53
112.97,-0.21,-0.21,0.36,0.36,-0.36,-0.44,-0.71,-0.57,-0.57,-0.57
114.10,-0.26,-0.26,0.36,0.36,-0.35,-0.44,-0.72,-0.61,-0.61,-0.61
115.24,-0.32,-0.32,0.35,0.35,-0.34,-0.43,-0.72,-0.66,-0.66,-0.66
116.39,-0.38,-0.37,0.33,0.34,-0.33,-0.43,-0.72,-0.71,-0.71,-0.71
117.55,-0.43,-0.43,0.33,0.33,-0.33,-0.43,-0.72,-0.75,-0.76,-0.76
118.73,-0.49,-0.49,0.31,0.32,-0.32,-0.42,-0.72,-0.81,-0.81,-0.80
119.92,-0.54,-0.53,0.31,0.31,-0.32,-0.42,-0.72,-0.85,-0.85,-0.85
121.12,-0.58,-0.58,0.31,0.31,-0.31,-0.42,-0.72,-0.89,-0.89,-0.89
122.33,-0.62,-0.62,0.32,0.32,-0.32,-0.41,-0.72,-0.94,-0.94,-0.94
123.55,-0.66,-0.66,0.32,0.32,-0.33,-0.41,-0.72,-0.98,-0.98,-0.98
124.79,-0.69,-0.69,0.34,0.34,-0.34,-0.41,-0.71,-1.03,-1.02,-1.02
126.03,-0.71,-0.71,0.36,0.35,-0.36,-0.41,-0.71,-1.06,-1.07,-1.06
127.29,-0.73,-0.73,0.38,0.38,-0.38,-0.41,-0.70,-1.11,-1.11,-1.11
128.57,-0.75,-0.75,0.40,0.40,-0.40,-0.41,-0.69,-1.15,-1.15,-1.15
129.85,-0.76,-0.76,0.43,0.43,-0.43,-0.41,-0.68,-1.19,-1.19,-1.19
131.15,-0.77,-0.77,0.46,0.47,-0.46,-0.41,-0.68,-1.23,-1.23,-1.23
132.46,-0.78,-0.78,0.50,0.50,-0.50,-0.42,-0.66,-1.27,-1.27,-1.28
133.79,-0.78,-0.78,0.53,0.53,-0.53,-0.42,-0.65,-1.31,-1.31,-1.31
135.12,-0.79,-0.79,0.56,0.56,-0.56,-0.43,-0.64,-1.35,-1.35,-1.35
136.48,-0.79,-0.79,0.60,0.60,-0.60,-0.43,-0.63,-1.38,-1.39,-1.39
137.84,-0.80,-0.80,0.63,0.63,-0.63,-0.44,-0.61,-1.43,-1.43,-1.43
139.22,-0.81,-0.81,0.66,0.66,-0.66,-0.45,-0.60,-1.47,-1.47,-1.47
140.61,-0.82,-0.81,0.69,0.69,-0.69,-0.46,-0.58,-1.51,-1.50,-1.51
142.02,-0.82,-0.82,0.72,0.72,-0.72,-0.47,-0.57,-1.54,-1.54,-1.54
143.44,-0.83,-0.83,0.75,0.75,-0.75,-0.48,-0.55,-1.58,-1.58,-1.58
144.87,-0.84,-0.83,0.78,0.78,-0.78,-0.49,-0.53,-1.62,-1.61,-1.61
146.32,-0.84,-0.84,0.81,0.80,-0.81,-0.51,-0.51,-1.65,-1.65,-1.65
147.78,-0.85,-0.85,0.83,0.83,-0.84,-0.52,-0.50,-1.69,-1.68,-1.68
149.26,-0.85,-0.85,0.86,0.86,-0.87,-0.54,-0.48,-1.72,-1.72,-1.71
150.75,-0.85,-0.85,0.90,0.90,-0.90,-0.56,-0.46,-1.75,-1.75,-1.75
152.26,-0.85,-0.84,0.93,0.93,-0.94,-0.58,-0.44,-1.78,-1.78,-1.78
153.78,-0.84,-0.84,0.97,0.97,-0.97,-0.60,-0.42,-1.81,-1.81,-1.81
155.32,-0.84,-0.84,1.00,1.00,-1.00,-0.62,-0.40,-1.84,-1.84,-1.83
156.88,-0.84,-0.84,1.03,1.02,-1.03,-0.64,-0.39,-1.86,-1.87,-1.86
158.44,-0.85,-0.85,1.05,1.05,-1.05,-0.66,-0.37,-1.90,-1.89,-1.89
160.03,-0.86,-0.86,1.07,1.07,-1.06,-0.68,-0.35,-1.92,-1.92,-1.92
161.63,-0.87,-0.87,1.08,1.08,-1.07,-0.71,-0.33,-1.94,-1.94,-1.95
163.24,-0.90,-0.90,1.08,1.08,-1.07,-0.73,-0.31,-1.97,-1.97,-1.98
164.88,-0.94,-0.94,1.07,1.07,-1.06,-0.75,-0.29,-2.00,-2.00,-2.00
166.53,-0.98,-0.98,1.05,1.05,-1.04,-0.76,-0.28,-2.02,-2.02,-2.03
168.19,-1.03,-1.03,1.02,1.03,-1.02,-0.78,-0.26,-2.05,-2.05,-2.05
169.87,-1.08,-1.08,1.00,1.00,-1.00,-0.79,-0.24,-2.08,-2.08,-2.08
171.57,-1.14,-1.14,0.96,0.96,-0.97,-0.80,-0.22,-2.11,-2.11,-2.10
173.29,-1.19,-1.19,0.93,0.93,-0.94,-0.81,-0.21,-2.13,-2.13,-2.12
175.02,-1.24,-1.24,0.90,0.91,-0.92,-0.81,-0.19,-2.15,-2.15,-2.14
176.77,-1.28,-1.28,0.88,0.88,-0.89,-0.81,-0.17,-2.17,-2.17,-2.16
178.54,-1.32,-1.32,0.87,0.86,-0.86,-0.80,-0.16,-2.18,-2.18,-2.18
180.32,-1.37,-1.37,0.84,0.84,-0.83,-0.79,-0.14,-2.20,-2.20,-2.21
182.13,-1.42,-1.42,0.81,0.81,-0.80,-0.77,-0.12,-2.22,-2.22,-2.23
183.95,-1.48,-1.47,0.76,0.77,-0.76,-0.75,-0.11,-2.24,-2.24,-2.24
185.79,-1.53,-1.53,0.73,0.73,-0.73,-0.72,-0.09,-2.26,-2.26,-2.26
187.65,-1.59,-1.59,0.69,0.69,-0.69,-0.68,-0.07,-2.28,-2.28,-2.27
189.52,-1.65,-1.64,0.64,0.64,-0.65,-0.64,-0.06,-2.29,-2.29,-2.29
191.42,-1.70,-1.70,0.60,0.60,-0.60,-0.60,-0.04,-2.30,-2.30,-2.30
193.33,-1.76,-1.76,0.56,0.56,-0.56,-0.56,-0.03,-2.32,-2.32,-2.32
195.27,-1.82,-1.82,0.52,0.52,-0.52,-0.51,-0.01,-2.33,-2.33,-2.34
197.22,-1.88,-1.88,0.47,0.47,-0.47,-0.46,0.01,-2.35,-2.35,-2.35
199.19,-1.93,-1.93,0.43,0.43,-0.43,-0.40,0.02,-2.36,-2.36,-2.36
201.18,-1.99,-1.99,0.38,0.38,-0.38,-0.35,0.04,-2.37,-2.37,-2.37
203.19,-2.04,-2.04,0.34,0.34,-0.34,-0.29,0.05,-2.38,-2.38,-2.38
205.23,-2.10,-2.10,0.29,0.29,-0.29,-0.23,0.07,-2.39,-2.39,-2.39
207.28,-2.16,-2.16,0.24,0.24,-0.25,-0.18,0.08,-2.40,-2.40,-2.40
209.35,-2.22,-2.21,0.19,0.20,-0.20,-0.12,0.10,-2.42,-2.41,-2.41
211.44,-2.27,-2.27,0.16,0.15,-0.15,-0.06,0.12,-2.42,-2.42,-2.43
213.56,-2.33,-2.33,0.11,0.11,-0.10,-0.00,0.13,-2.43,-2.43,-2.43
215.69,-2.39,-2.38,0.05,0.06,-0.06,0.05,0.15,-2.44,-2.44,-2.44
217.85,-2.44,-2.44,0.01,0.01,-0.01,0.11,0.17,-2.45,-2.45,-2.45
220.03,-2.50,-2.50,-0.05,-0.04,0.04,0.17,0.18,-2.46,-2.45,-2.45
222.23,-2.55,-2.55,-0.09,-0.09,0.09,0.22,0.20,-2.46,-2.46,-2.46
224.45,-2.61,-2.60,-0.14,-0.14,0.14,0.27,0.22,-2.47,-2.46,-2.47
226.70,-2.66,-2.66,-0.19,-0.19,0.19,0.33,0.24,-2.47,-2.47,-2.47
228.96,-2.71,-2.71,-0.24,-0.24,0.24,0.38,0.26,-2.47,-2.47,-2.47
231.25,-2.77,-2.76,-0.30,-0.29,0.29,0.43,0.28,-2.48,-2.47,-2.47
233.57,-2.82,-2.82,-0.34,-0.34,0.34,0.48,0.29,-2.48,-2.48,-2.47
235.90,-2.87,-2.87,-0.38,-0.39,0.39,0.52,0.32,-2.48,-2.48,-2.49
238.26,-2.92,-2.92,-0.43,-0.44,0.44,0.57,0.34,-2.48,-2.48,-2.48
240.64,-2.98,-2.97,-0.49,-0.49,0.49,0.62,0.36,-2.49,-2.48,-2.48
243.05,-3.02,-3.02,-0.53,-0.54,0.53,0.66,0.38,-2.48,-2.49,-2.48
245.48,-3.07,-3.07,-0.58,-0.58,0.58,0.71,0.40,-2.49,-2.49,-2.49
247.93,-3.12,-3.11,-0.63,-0.63,0.63,0.75,0.42,-2.49,-2.49,-2.49
250.41,-3.16,-3.16,-0.67,-0.67,0.67,0.80,0.45,-2.49,-2.49,-2.49
252.92,-3.20,-3.20,-0.71,-0.71,0.71,0.84,0.47,-2.49,-2.49,-2.49
255.45,-3.24,-3.24,-0.75,-0.75,0.75,0.88,0.50,-2.49,-2.49,-2.48
258.00,-3.28,-3.28,-0.79,-0.79,0.79,0.93,0.53,-2.49,-2.49,-2.49
260.58,-3.32,-3.31,-0.83,-0.83,0.83,0.97,0.55,-2.49,-2.48,-2.49
263.19,-3.35,-3.35,-0.86,-0.87,0.87,1.01,0.58,-2.48,-2.48,-2.49
265.82,-3.39,-3.39,-0.90,-0.91,0.91,1.05,0.61,-2.48,-2.48,-2.48
268.48,-3.43,-3.42,-0.95,-0.95,0.95,1.09,0.64,-2.48,-2.48,-2.48
271.16,-3.46,-3.46,-0.98,-0.99,0.99,1.13,0.67,-2.47,-2.48,-2.47
273.87,-3.50,-3.50,-1.03,-1.03,1.02,1.17,0.70,-2.47,-2.47,-2.47
276.61,-3.53,-3.53,-1.07,-1.06,1.06,1.21,0.73,-2.47,-2.47,-2.46
279.38,-3.56,-3.56,-1.10,-1.10,1.10,1.25,0.77,-2.46,-2.46,-2.46
282.17,-3.59,-3.59,-1.13,-1.13,1.13,1.29,0.80,-2.45,-2.45,-2.46
284.99,-3.62,-3.62,-1.17,-1.17,1.17,1.33,0.84,-2.45,-2.45,-2.45
287.84,-3.65,-3.65,-1.20,-1.20,1.20,1.37,0.88,-2.44,-2.45,-2.45
290.72,-3.69,-3.68,-1.24,-1.24,1.24,1.41,0.91,-2.45,-2.44,-2.45
293.63,-3.72,-3.72,-1.28,-1.28,1.28,1.45,0.95,-2.44,-2.44,-2.44
296.57,-3.75,-3.75,-1.32,-1.31,1.32,1.49,0.99,-2.43,-2.43,-2.43
299.53,-3.78,-3.78,-1.35,-1.35,1.36,1.53,1.03,-2.42,-2.42,-2.43
302.53,-3.81,-3.81,-1.39,-1.40,1.40,1.56,1.07,-2.41,-2.41,-2.42
305.55,-3.85,-3.85,-1.44,-1.44,1.44,1.60,1.12,-2.41,-2.41,-2.41
308.61,-3.89,-3.88,-1.49,-1.49,1.48,1.64,1.16,-2.40,-2.40,-2.40
311.69,-3.92,-3.92,-1.53,-1.53,1.53,1.68,1.21,-2.39,-2.39,-2.39
314.81,-3.96,-3.96,-1.57,-1.57,1.58,1.72,1.25,-2.38,-2.38,-2.38
317.96,-4.00,-4.00,-1.62,-1.62,1.63,1.76,1.30,-2.37,-2.37,-2.38
321.14,-4.04,-4.04,-1.67,-1.67,1.68,1.80,1.35,-2.36,-2.36,-2.37
324.35,-4.09,-4.09,-1.73,-1.73,1.73,1.84,1.40,-2.36,-2.36,-2.36
327.59,-4.13,-4.13,-1.78,-1.78,1.78,1.88,1.46,-2.35,-2.35,-2.35
330.87,-4.18,-4.17,-1.84,-1.84,1.84,1.92,1.51,-2.34,-2.34,-2.34
334.18,-4.22,-4.22,-1.89,-1.89,1.89,1.96,1.56,-2.33,-2.33,-2.33
337.52,-4.26,-4.26,-1.94,-1.95,1.95,2.00,1.62,-2.31,-2.32,-2.32
340.90,-4.31,-4.30,-2.00,-2.00,2.00,2.04,1.68,-2.31,-2.30,-2.31
344.30,-4.35,-4.35,-2.05,-2.05,2.05,2.08,1.74,-2.29,-2.29,-2.29
347.75,-4.39,-4.39,-2.10,-2.11,2.11,2.12,1.80,-2.28,-2.28,-2.28
351.23,-4.43,-4.43,-2.16,-2.16,2.16,2.16,1.86,-2.27,-2.27,-2.27
354.74,-4.47,-4.47,-2.21,-2.21,2.21,2.20,1.93,-2.26,-2.26,-2.26
358.28,-4.51,-4.51,-2.26,-2.26,2.25,2.24,1.99,-2.25,-2.25,-2.25
361.87,-4.54,-4.54,-2.30,-2.31,2.30,2.28,2.06,-2.23,-2.24,-2.24
365.49,-4.58,-4.57,-2.35,-2.35,2.35,2.32,2.13,-2.23,-2.22,-2.22
369.14,-4.61,-4.61,-2.40,-2.40,2.40,2.36,2.20,-2.21,-2.21,-2.21
372.83,-4.64,-4.64,-2.44,-2.44,2.45,2.40,2.27,-2.19,-2.19,-2.20
376.56,-4.68,-4.68,-2.49,-2.49,2.50,2.44,2.34,-2.18,-2.18,-2.18
380.33,-4.72,-4.72,-2.55,-2.55,2.55,2.48,2.42,-2.17,-2.17,-2.17
384.13,-4.76,-4.75,-2.60,-2.60,2.60,2.52,2.49,-2.16,-2.16,-2.16
387.97,-4.79,-4.79,-2.64,-2.65,2.65,2.56,2.57,-2.14,-2.14,-2.14
391.85,-4.83,-4.83,-2.70,-2.70,2.70,2.60,2.65,-2.13,-2.13,-2.13
395.77,-4.87,-4.87,-2.75,-2.75,2.75,2.64,2.72,-2.12,-2.12,-2.12
399.73,-4.90,-4.90,-2.80,-2.80,2.80,2.68,2.80,-2.10,-2.11,-2.10
403.72,-4.94,-4.93,-2.85,-2.85,2.85,2.71,2.88,-2.09,-2.09,-2.08
407.76,-4.96,-4.95,-2.89,-2.89,2.89,2.75,2.96,-2.07,-2.06,-2.07
411.84,-4.97,-4.98,-2.92,-2.93,2.94,2.79,3.04,-2.03,-2.04,-2.05
415.96,-5.01,-5.01,-2.97,-2.97,2.98,2.83,3.12,-2.03,-2.03,-2.03
420.12,-5.04,-5.03,-3.02,-3.02,3.01,2.86,3.20,-2.02,-2.02,-2.02
424.32,-5.06,-5.06,-3.06,-3.06,3.05,2.90,3.27,-2.01,-2.01,-1.99
428.56,-5.07,-5.07,-3.09,-3.09,3.08,2.93,3.35,-1.98,-1.98,-1.98
432.85,-5.08,-5.08,-3.11,-3.11,3.12,2.96,3.42,-1.96,-1.96,-1.96
437.18,-5.08,-5.08,-3.14,-3.14,3.15,3.00,3.49,-1.93,-1.93,-1.94
441.55,-5.09,-5.09,-3.17,-3.17,3.18,3.03,3.56,-1.91,-1.91,-1.92
445.96,-5.10,-5.10,-3.20,-3.20,3.20,3.06,3.63,-1.90,-1.90,-1.90
450.42,-5.11,-5.11,-3.22,-3.23,3.22,3.09,3.69,-1.88,-1.89,-1.88
454.93,-5.12,-5.11,-3.26,-3.25,3.24,3.12,3.75,-1.88,-1.87,-1.86
459.48,-5.11,-5.11,-3.27,-3.27,3.26,3.14,3.80,-1.85,-1.85,-1.84
464.07,-5.09,-5.09,-3.27,-3.27,3.27,3.17,3.85,-1.82,-1.82,-1.82
468.71,-5.07,-5.07,-3.27,-3.28,3.28,3.19,3.89,-1.79,-1.79,-1.80
473.40,-5.06,-5.06,-3.29,-3.29,3.29,3.22,3.93,-1.77,-1.77,-1.77
478.13,-5.05,-5.04,-3.30,-3.29,3.29,3.24,3.96,-1.75,-1.75,-1.75
482.91,-5.03,-5.02,-3.30,-3.30,3.30,3.26,3.99,-1.73,-1.73,-1.73
487.74,-5.00,-5.00,-3.29,-3.30,3.30,3.28,4.00,-1.70,-1.70,-1.71
