frequency,raw,smoothed,error,error_smoothed,equalization,parametric_eq,fixed_band_eq,equalized_raw,equalized_smoothed,target
20.00,2.73,2.72,-5.95,-5.95,5.94,0.93,0.26,8.67,8.66,8.68
20.20,2.94,2.94,-5.77,-5.77,5.76,0.92,0.26,8.70,8.70,8.71
20.40,3.14,3.15,-5.60,-5.59,5.59,0.92,0.27,8.73,8.74,8.74
20.61,3.34,3.35,-5.41,-5.41,5.42,0.91,0.28,8.76,8.77,8.75
20.81,3.55,3.55,-5.24,-5.24,5.25,0.91,0.29,8.80,8.80,8.78
21.02,3.76,3.74,-5.06,-5.06,5.08,0.90,0.30,8.84,8.82,8.81
21.23,3.92,3.92,-4.91,-4.90,4.91,0.89,0.31,8.83,8.83,8.82
21.44,4.09,4.09,-4.74,-4.74,4.74,0.89,0.32,8.83,8.83,8.83
21.66,4.25,4.25,-4.59,-4.59,4.58,0.88,0.33,8.84,8.83,8.84
21.87,4.42,4.42,-4.42,-4.42,4.42,0.87,0.34,8.84,8.84,8.84
22.09,4.59,4.59,-4.26,-4.26,4.26,0.86,0.35,8.85,8.84,8.85
22.31,4.76,4.75,-4.09,-4.10,4.09,0.86,0.36,8.85,8.85,8.85
22.54,4.91,4.92,-3.94,-3.93,3.93,0.85,0.37,8.84,8.85,8.85
22.76,5.09,5.08,-3.76,-3.76,3.76,0.84,0.38,8.85,8.85,8.85
22.99,5.25,5.25,-3.59,-3.59,3.60,0.83,0.39,8.84,8.84,8.84
23.22,5.42,5.42,-3.42,-3.42,3.43,0.82,0.41,8.84,8.84,8.84
23.45,5.59,5.58,-3.25,-3.25,3.25,0.81,0.42,8.84,8.84,8.84
23.69,5.75,5.76,-3.08,-3.08,3.08,0.80,0.43,8.83,8.83,8.84
23.92,5.93,5.93,-2.91,-2.91,2.90,0.78,0.44,8.83,8.83,8.84
24.16,6.12,6.11,-2.73,-2.73,2.72,0.77,0.46,8.83,8.83,8.84
24.40,6.30,6.30,-2.54,-2.54,2.53,0.76,0.47,8.83,8.83,8.84
24.65,6.49,6.49,-2.35,-2.35,2.35,0.74,0.48,8.83,8.84,8.83
24.89,6.68,6.67,-2.15,-2.16,2.17,0.73,0.50,8.85,8.84,8.83
25.14,6.86,6.85,-1.97,-1.98,1.99,0.71,0.51,8.85,8.84,8.83
25.39,7.02,7.02,-1.81,-1.81,1.81,0.69,0.52,8.83,8.84,8.83
25.65,7.19,7.19,-1.64,-1.64,1.64,0.67,0.54,8.83,8.83,8.83
25.91,7.35,7.35,-1.46,-1.47,1.48,0.65,0.55,8.83,8.83,8.82
26.16,7.52,7.51,-1.30,-1.30,1.31,0.63,0.56,8.83,8.83,8.82
26.43,7.66,7.66,-1.15,-1.15,1.14,0.61,0.58,8.81,8.81,8.82
26.69,7.82,7.82,-1.00,-1.00,0.97,0.59,0.59,8.79,8.79,8.81
26.96,7.97,7.98,-0.84,-0.83,0.80,0.56,0.60,8.77,8.78,8.81
27.23,8.16,8.16,-0.65,-0.65,0.62,0.53,0.61,8.79,8.79,8.81
27.50,8.36,8.36,-0.45,-0.45,0.45,0.50,0.62,8.81,8.82,8.81
27.77,8.56,8.55,-0.24,-0.25,0.29,0.47,0.63,8.85,8.84,8.80
28.05,8.74,8.72,-0.06,-0.07,0.12,0.43,0.64,8.85,8.84,8.80
28.33,8.86,8.86,0.07,0.07,-0.06,0.39,0.65,8.80,8.80,8.79
28.62,8.98,8.98,0.20,0.20,-0.23,0.35,0.66,8.75,8.75,8.78
28.90,9.11,9.12,0.32,0.34,-0.40,0.30,0.67,8.71,8.72,8.78
29.19,9.27,9.28,0.50,0.50,-0.55,0.25,0.68,8.71,8.72,8.77
29.48,9.46,9.47,0.68,0.69,-0.69,0.20,0.68,8.77,8.77,8.78
29.78,9.65,9.64,0.88,0.87,-0.82,0.14,0.69,8.83,8.82,8.77
30.08,9.79,9.76,1.03,0.99,-0.93,0.07,0.69,8.87,8.83,8.77
30.38,9.82,9.83,1.06,1.07,-1.02,0.01,0.69,8.80,8.81,8.75
30.68,9.84,9.85,1.08,1.10,-1.09,-0.07,0.70,8.74,8.76,8.75
30.99,9.87,9.86,1.13,1.12,-1.15,-0.15,0.70,8.72,8.72,8.74
31.30,9.89,9.89,1.15,1.15,-1.17,-0.23,0.69,8.71,8.71,8.74
31.61,9.91,9.91,1.17,1.18,-1.19,-0.32,0.69,8.72,8.72,8.74
31.93,9.93,9.92,1.20,1.20,-1.20,-0.41,0.69,8.73,8.72,8.72
32.24,9.93,9.92,1.22,1.21,-1.21,-0.51,0.68,8.71,8.71,8.71
32.57,9.92,9.92,1.21,1.21,-1.23,-0.61,0.68,8.69,8.69,8.71
32.89,9.92,9.92,1.21,1.22,-1.24,-0.71,0.67,8.68,8.68,8.71
33.22,9.93,9.93,1.23,1.24,-1.24,-0.80,0.66,8.68,8.69,8.69
33.55,9.95,9.95,1.26,1.26,-1.24,-0.89,0.65,8.71,8.71,8.69
33.89,9.97,9.95,1.29,1.27,-1.23,-0.97,0.64,8.74,8.72,8.68
34.23,9.93,9.91,1.25,1.24,-1.22,-1.04,0.63,8.71,8.70,8.67
34.57,9.85,9.85,1.19,1.19,-1.20,-1.08,0.62,8.64,8.65,8.66
34.92,9.78,9.79,1.13,1.14,-1.18,-1.12,0.61,8.59,8.61,8.65
35.27,9.75,9.75,1.10,1.11,-1.16,-1.13,0.59,8.59,8.60,8.64
35.62,9.74,9.73,1.11,1.10,-1.12,-1.12,0.58,8.62,8.62,8.63
35.97,9.73,9.71,1.11,1.09,-1.06,-1.09,0.56,8.66,8.65,8.62
36.33,9.67,9.68,1.05,1.07,-1.00,-1.05,0.55,8.66,8.67,8.61
36.70,9.61,9.61,1.01,1.01,-0.95,-0.98,0.53,8.66,8.66,8.60
37.06,9.54,9.51,0.95,0.92,-0.90,-0.91,0.51,8.63,8.61,8.59
37.43,9.39,9.39,0.81,0.81,-0.86,-0.82,0.50,8.54,8.53,8.58
37.81,9.26,9.28,0.69,0.72,-0.81,-0.74,0.48,8.45,8.47,8.57
38.19,9.21,9.24,0.65,0.69,-0.76,-0.65,0.46,8.44,8.48,8.55
38.57,9.26,9.25,0.71,0.70,-0.71,-0.56,0.45,8.54,8.53,8.55
38.95,9.30,9.25,0.76,0.72,-0.66,-0.47,0.43,8.63,8.59,8.53
39.34,9.22,9.22,0.70,0.70,-0.61,-0.39,0.41,8.60,8.60,8.52
39.74,9.12,9.13,0.61,0.62,-0.56,-0.31,0.40,8.55,8.57,8.50
40.14,9.02,9.02,0.52,0.53,-0.51,-0.24,0.38,8.51,8.51,8.50
40.54,8.93,8.92,0.45,0.44,-0.45,-0.17,0.36,8.47,8.47,8.48
40.94,8.83,8.83,0.35,0.36,-0.40,-0.11,0.34,8.43,8.43,8.48
41.35,8.76,8.75,0.30,0.29,-0.35,-0.05,0.33,8.41,8.40,8.46
41.76,8.70,8.70,0.24,0.25,-0.31,0.00,0.31,8.39,8.39,8.45
42.18,8.67,8.69,0.22,0.25,-0.27,0.05,0.29,8.39,8.42,8.45
42.60,8.70,8.69,0.27,0.26,-0.24,0.09,0.28,8.46,8.45,8.43
43.03,8.72,8.70,0.29,0.27,-0.21,0.13,0.26,8.51,8.49,8.42
43.46,8.66,8.67,0.25,0.26,-0.17,0.17,0.25,8.49,8.50,8.41
43.90,8.60,8.58,0.22,0.19,-0.14,0.20,0.23,8.46,8.44,8.38
44.33,8.47,8.45,0.10,0.09,-0.11,0.23,0.22,8.35,8.34,8.36
44.78,8.32,8.35,-0.03,0.00,-0.08,0.25,0.20,8.24,8.27,8.34
45.23,8.26,8.28,-0.07,-0.04,-0.04,0.28,0.19,8.22,8.24,8.32
45.68,8.29,8.27,-0.02,-0.03,-0.01,0.30,0.17,8.28,8.27,8.31
46.13,8.31,8.30,0.02,0.01,0.02,0.31,0.16,8.33,8.32,8.29
46.60,8.30,8.30,0.02,0.03,0.03,0.33,0.14,8.33,8.33,8.28
47.06,8.28,8.25,0.02,-0.01,0.04,0.34,0.13,8.31,8.29,8.26
47.53,8.19,8.19,-0.05,-0.06,0.04,0.35,0.11,8.23,8.23,8.24
48.01,8.10,8.15,-0.13,-0.07,0.06,0.36,0.10,8.15,8.21,8.23
48.49,8.13,8.13,-0.07,-0.07,0.08,0.37,0.09,8.20,8.21,8.20
48.97,8.16,8.09,-0.01,-0.08,0.10,0.38,0.07,8.26,8.19,8.17
49.46,8.03,8.02,-0.11,-0.12,0.13,0.39,0.06,8.16,8.15,8.13
49.96,7.88,7.94,-0.23,-0.17,0.15,0.39,0.05,8.03,8.09,8.10
50.46,7.89,7.89,-0.20,-0.20,0.16,0.39,0.03,8.05,8.05,8.09
50.96,7.91,7.86,-0.16,-0.20,0.17,0.40,0.02,8.07,8.03,8.07
51.47,7.86,7.85,-0.18,-0.19,0.18,0.40,0.01,8.04,8.04,8.04
51.99,7.80,7.84,-0.21,-0.18,0.20,0.40,-0.00,8.00,8.04,8.01
52.51,7.82,7.82,-0.18,-0.18,0.21,0.40,-0.02,8.03,8.03,8.00
53.03,7.83,7.78,-0.15,-0.19,0.22,0.40,-0.03,8.05,8.00,7.97
53.56,7.73,7.73,-0.22,-0.22,0.23,0.39,-0.04,7.96,7.96,7.95
54.10,7.64,7.66,-0.29,-0.26,0.24,0.39,-0.05,7.88,7.90,7.92
54.64,7.61,7.61,-0.29,-0.29,0.25,0.39,-0.06,7.86,7.86,7.90
55.18,7.59,7.59,-0.28,-0.28,0.26,0.38,-0.07,7.85,7.86,7.87
55.74,7.60,7.58,-0.25,-0.27,0.27,0.38,-0.08,7.86,7.85,7.84
56.29,7.57,7.55,-0.26,-0.27,0.27,0.37,-0.10,7.83,7.82,7.83
56.86,7.51,7.53,-0.29,-0.27,0.27,0.37,-0.11,7.78,7.80,7.80
57.42,7.50,7.51,-0.27,-0.27,0.27,0.36,-0.12,7.77,7.77,7.77
58.00,7.51,7.50,-0.24,-0.25,0.27,0.35,-0.13,7.78,7.77,7.75
58.58,7.49,7.48,-0.24,-0.25,0.28,0.34,-0.14,7.76,7.76,7.73
59.16,7.46,7.44,-0.25,-0.26,0.28,0.33,-0.15,7.74,7.73,7.71
59.76,7.38,7.38,-0.31,-0.30,0.29,0.33,-0.16,7.67,7.67,7.69
60.35,7.33,7.33,-0.33,-0.33,0.30,0.32,-0.17,7.63,7.63,7.66
60.96,7.28,7.30,-0.36,-0.33,0.31,0.31,-0.18,7.58,7.61,7.63
61.57,7.30,7.28,-0.29,-0.31,0.31,0.30,-0.19,7.60,7.59,7.59
62.18,7.29,7.26,-0.27,-0.30,0.30,0.28,-0.20,7.59,7.56,7.56
62.80,7.22,7.24,-0.32,-0.29,0.29,0.27,-0.21,7.51,7.53,7.53
63.43,7.20,7.21,-0.30,-0.29,0.29,0.26,-0.22,7.48,7.49,7.50
64.07,7.20,7.19,-0.27,-0.28,0.28,0.25,-0.23,7.48,7.47,7.47
64.71,7.20,7.20,-0.25,-0.25,0.28,0.23,-0.23,7.47,7.47,7.44
65.35,7.18,7.17,-0.24,-0.25,0.28,0.22,-0.24,7.46,7.45,7.42
66.01,7.14,7.11,-0.25,-0.27,0.28,0.21,-0.25,7.42,7.40,7.39
66.67,7.04,7.05,-0.32,-0.31,0.29,0.19,-0.26,7.32,7.34,7.36
67.33,6.99,7.01,-0.34,-0.32,0.29,0.18,-0.27,7.28,7.30,7.33
68.01,7.00,6.99,-0.30,-0.31,0.29,0.16,-0.28,7.29,7.28,7.30
68.69,7.00,6.98,-0.27,-0.29,0.29,0.15,-0.29,7.29,7.27,7.27
69.37,6.96,6.95,-0.28,-0.29,0.29,0.13,-0.29,7.25,7.24,7.24
70.07,6.90,6.92,-0.31,-0.29,0.29,0.11,-0.30,7.18,7.21,7.20
70.77,6.90,6.90,-0.28,-0.28,0.28,0.09,-0.31,7.18,7.18,7.18
71.48,6.90,6.89,-0.25,-0.26,0.28,0.08,-0.32,7.18,7.17,7.15
72.19,6.88,6.86,-0.23,-0.25,0.28,0.06,-0.33,7.16,7.14,7.11
72.91,6.81,6.81,-0.27,-0.27,0.28,0.04,-0.34,7.08,7.08,7.07
73.64,6.74,6.75,-0.30,-0.29,0.27,0.02,-0.35,7.01,7.02,7.04
74.38,6.70,6.71,-0.31,-0.30,0.26,0.00,-0.36,6.96,6.97,7.01
75.12,6.70,6.69,-0.28,-0.28,0.25,-0.02,-0.37,6.94,6.94,6.97
75.87,6.70,6.69,-0.25,-0.25,0.24,-0.04,-0.38,6.93,6.93,6.94
76.63,6.70,6.70,-0.22,-0.21,0.23,-0.06,-0.38,6.93,6.93,6.91
77.40,6.70,6.70,-0.18,-0.17,0.22,-0.08,-0.39,6.92,6.93,6.88
78.17,6.69,6.68,-0.15,-0.17,0.21,-0.10,-0.40,6.90,6.90,6.84
78.95,6.67,6.63,-0.15,-0.19,0.20,-0.13,-0.41,6.87,6.83,6.82
79.74,6.54,6.57,-0.25,-0.22,0.20,-0.15,-0.42,6.73,6.76,6.78
80.54,6.50,6.51,-0.25,-0.24,0.19,-0.17,-0.44,6.69,6.70,6.75
81.35,6.50,6.49,-0.22,-0.23,0.18,-0.20,-0.45,6.68,6.67,6.71
82.16,6.50,6.49,-0.18,-0.19,0.18,-0.22,-0.46,6.67,6.67,6.68
82.98,6.50,6.50,-0.16,-0.14,0.16,-0.25,-0.47,6.66,6.66,6.65
83.81,6.50,6.49,-0.11,-0.12,0.15,-0.27,-0.48,6.64,6.64,6.61
84.65,6.48,6.46,-0.09,-0.11,0.13,-0.30,-0.49,6.60,6.59,6.57
85.50,6.43,6.43,-0.11,-0.10,0.11,-0.32,-0.50,6.54,6.54,6.54
86.35,6.39,6.41,-0.11,-0.09,0.09,-0.35,-0.52,6.48,6.50,6.50
87.22,6.40,6.38,-0.06,-0.08,0.08,-0.38,-0.53,6.48,6.46,6.46
88.09,6.38,6.35,-0.04,-0.07,0.07,-0.40,-0.54,6.44,6.42,6.42
88.97,6.30,6.33,-0.09,-0.06,0.05,-0.43,-0.56,6.35,6.37,6.39
89.86,6.30,6.30,-0.05,-0.05,0.02,-0.46,-0.57,6.32,6.32,6.35
90.76,6.30,6.29,0.00,-0.01,-0.01,-0.49,-0.58,6.29,6.28,6.30
91.66,6.30,6.30,0.03,0.04,-0.04,-0.52,-0.60,6.25,6.25,6.26
92.58,6.30,6.30,0.09,0.08,-0.08,-0.55,-0.61,6.22,6.22,6.21
93.51,6.30,6.30,0.12,0.12,-0.11,-0.58,-0.63,6.18,6.19,6.18
94.44,6.30,6.30,0.17,0.17,-0.15,-0.61,-0.65,6.15,6.16,6.13
95.39,6.30,6.28,0.21,0.20,-0.18,-0.64,-0.66,6.12,6.11,6.09
96.34,6.27,6.25,0.23,0.21,-0.21,-0.67,-0.68,6.06,6.04,6.03
97.30,6.19,6.21,0.20,0.22,-0.23,-0.70,-0.70,5.95,5.98,5.99
98.28,6.18,6.18,0.23,0.24,-0.26,-0.74,-0.71,5.92,5.92,5.94
99.26,6.17,6.16,0.27,0.26,-0.28,-0.77,-0.73,5.88,5.87,5.90
100.25,6.15,6.15,0.30,0.30,-0.31,-0.80,-0.75,5.84,5.84,5.85
101.25,6.13,6.13,0.32,0.33,-0.33,-0.83,-0.77,5.80,5.80,5.80
102.27,6.12,6.12,0.36,0.36,-0.35,-0.87,-0.79,5.77,5.77,5.76
103.29,6.11,6.11,0.40,0.40,-0.36,-0.90,-0.81,5.74,5.74,5.70
104.32,6.09,6.07,0.42,0.41,-0.38,-0.94,-0.83,5.71,5.69,5.67
105.37,6.03,6.02,0.41,0.40,-0.39,-0.97,-0.85,5.64,5.63,5.62
106.42,5.94,5.96,0.36,0.39,-0.40,-1.01,-0.87,5.54,5.56,5.57
107.48,5.91,5.91,0.38,0.39,-0.41,-1.04,-0.89,5.50,5.50,5.53
108.56,5.89,5.88,0.42,0.41,-0.42,-1.08,-0.92,5.46,5.46,5.47
109.64,5.87,5.86,0.44,0.44,-0.44,-1.11,-0.94,5.43,5.43,5.42
110.74,5.85,5.85,0.47,0.47,-0.46,-1.15,-0.96,5.39,5.38,5.38
111.85,5.83,5.83,0.49,0.50,-0.50,-1.19,-0.99,5.33,5.33,5.33
112.97,5.82,5.82,0.55,0.54,-0.55,-1.22,-1.01,5.27,5.27,5.27
114.10,5.82,5.81,0.59,0.59,-0.60,-1.26,-1.03,5.22,5.21,5.22
115.24,5.82,5.81,0.65,0.64,-0.66,-1.30,-1.06,5.16,5.15,5.17
116.39,5.82,5.83,0.70,0.72,-0.72,-1.34,-1.09,5.10,5.11,5.11
117.55,5.85,5.86,0.79,0.80,-0.79,-1.37,-1.11,5.06,5.07,5.06
118.73,5.92,5.89,0.91,0.89,-0.87,-1.41,-1.14,5.05,5.03,5.01
119.92,5.93,5.92,0.96,0.96,-0.96,-1.45,-1.17,4.97,4.96,4.96
121.12,5.94,5.93,1.03,1.03,-1.05,-1.49,-1.19,4.89,4.89,4.91
122.33,5.95,5.97,1.09,1.11,-1.14,-1.53,-1.22,4.81,4.83,4.86
123.55,6.02,6.03,1.20,1.22,-1.23,-1.57,-1.25,4.79,4.81,4.82
124.79,6.14,6.10,1.37,1.34,-1.32,-1.61,-1.28,4.82,4.79,4.76
126.03,6.17,6.16,1.45,1.45,-1.41,-1.65,-1.31,4.76,4.75,4.71
127.29,6.18,6.17,1.51,1.51,-1.51,-1.69,-1.34,4.67,4.66,4.66
128.57,6.18,6.18,1.57,1.58,-1.61,-1.73,-1.38,4.57,4.57,4.60
129.85,6.19,6.22,1.63,1.67,-1.70,-1.77,-1.41,4.48,4.52,4.56
131.15,6.31,6.29,1.80,1.78,-1.79,-1.81,-1.44,4.52,4.50,4.51
132.46,6.37,6.36,1.91,1.89,-1.86,-1.85,-1.48,4.51,4.49,4.46
133.79,6.41,6.40,1.98,1.98,-1.93,-1.90,-1.51,4.47,4.47,4.42
135.12,6.41,6.41,2.04,2.03,-2.01,-1.94,-1.55,4.40,4.40,4.37
136.48,6.41,6.41,2.07,2.08,-2.09,-1.98,-1.58,4.32,4.32,4.33
137.84,6.41,6.40,2.12,2.12,-2.17,-2.02,-1.62,4.24,4.23,4.29
139.22,6.42,6.43,2.18,2.19,-2.24,-2.06,-1.66,4.18,4.19,4.23
140.61,6.46,6.49,2.27,2.29,-2.31,-2.11,-1.70,4.15,4.18,4.19
142.02,6.59,6.55,2.42,2.39,-2.37,-2.15,-1.74,4.22,4.18,4.17
143.44,6.61,6.60,2.48,2.47,-2.43,-2.19,-1.79,4.17,4.17,4.13
144.87,6.62,6.62,2.53,2.53,-2.49,-2.24,-1.83,4.12,4.13,4.09
146.32,6.62,6.62,2.57,2.57,-2.55,-2.28,-1.88,4.06,4.07,4.05
147.78,6.62,6.62,2.60,2.60,-2.61,-2.32,-1.92,4.01,4.01,4.02
149.26,6.62,6.61,2.64,2.64,-2.66,-2.37,-1.97,3.96,3.96,3.98
150.75,6.62,6.61,2.68,2.67,-2.70,-2.41,-2.02,3.92,3.91,3.93
152.26,6.62,6.62,2.72,2.72,-2.75,-2.46,-2.08,3.87,3.87,3.90
153.78,6.64,6.65,2.77,2.79,-2.80,-2.50,-2.13,3.83,3.85,3.86
155.32,6.69,6.68,2.87,2.86,-2.86,-2.55,-2.19,3.83,3.82,3.82
156.88,6.72,6.71,2.93,2.92,-2.91,-2.59,-2.24,3.80,3.79,3.78
158.44,6.72,6.72,2.98,2.98,-2.96,-2.64,-2.30,3.75,3.76,3.74
160.03,6.72,6.72,3.02,3.02,-3.01,-2.68,-2.36,3.71,3.72,3.70
161.63,6.72,6.72,3.06,3.06,-3.04,-2.73,-2.43,3.68,3.68,3.66
163.24,6.72,6.71,3.10,3.09,-3.06,-2.77,-2.49,3.66,3.65,3.62
164.88,6.69,6.68,3.10,3.09,-3.08,-2.82,-2.56,3.61,3.60,3.59
166.53,6.63,6.64,3.08,3.09,-3.10,-2.86,-2.63,3.53,3.54,3.55
168.19,6.60,6.60,3.09,3.09,-3.12,-2.91,-2.71,3.48,3.48,3.51
169.87,6.60,6.59,3.13,3.12,-3.16,-2.96,-2.78,3.44,3.43,3.47
171.57,6.59,6.60,3.15,3.16,-3.20,-3.00,-2.86,3.39,3.40,3.43
173.29,6.64,6.64,3.24,3.24,-3.25,-3.05,-2.93,3.38,3.38,3.40
175.02,6.68,6.69,3.31,3.33,-3.32,-3.10,-3.02,3.36,3.37,3.36
176.77,6.76,6.73,3.44,3.42,-3.39,-3.14,-3.10,3.36,3.34,3.32
178.54,6.78,6.77,3.50,3.49,-3.47,-3.19,-3.19,3.31,3.30,3.27
180.32,6.78,6.81,3.54,3.57,-3.55,-3.24,-3.28,3.23,3.25,3.24
182.13,6.84,6.84,3.63,3.63,-3.63,-3.29,-3.37,3.21,3.21,3.21
183.95,6.90,6.87,3.73,3.70,-3.71,-3.33,-3.46,3.19,3.16,3.17
185.79,6.91,6.91,3.77,3.77,-3.78,-3.38,-3.56,3.13,3.12,3.14
187.65,6.92,6.94,3.82,3.84,-3.85,-3.43,-3.65,3.07,3.09,3.09
189.52,6.97,6.97,3.90,3.91,-3.91,-3.48,-3.76,3.05,3.06,3.06
191.42,7.04,7.02,4.00,3.99,-3.98,-3.52,-3.86,3.06,3.05,3.03
193.33,7.07,7.06,4.06,4.05,-4.04,-3.57,-3.96,3.03,3.02,3.01
195.27,7.08,7.08,4.10,4.11,-4.10,-3.62,-4.07,2.98,2.99,2.98
197.22,7.09,7.09,4.14,4.14,-4.15,-3.67,-4.18,2.93,2.94,2.95
199.19,7.11,7.10,4.19,4.18,-4.20,-3.72,-4.28,2.90,2.90,2.91
201.18,7.12,7.14,4.22,4.24,-4.25,-3.76,-4.39,2.86,2.88,2.90
203.19,7.18,7.17,4.30,4.30,-4.29,-3.81,-4.50,2.88,2.88,2.88
205.23,7.22,7.20,4.36,4.34,-4.33,-3.86,-4.62,2.89,2.87,2.85
207.28,7.22,7.22,4.37,4.38,-4.36,-3.91,-4.73,2.86,2.86,2.85
209.35,7.22,7.22,4.39,4.40,-4.38,-3.96,-4.84,2.84,2.84,2.82
211.44,7.22,7.21,4.42,4.40,-4.40,-4.00,-4.95,2.82,2.81,2.80
213.56,7.21,7.21,4.41,4.41,-4.41,-4.05,-5.06,2.79,2.80,2.80
215.69,7.21,7.21,4.41,4.42,-4.43,-4.10,-5.16,2.78,2.78,2.79
217.85,7.21,7.20,4.43,4.42,-4.44,-4.14,-5.27,2.77,2.76,2.78
220.03,7.20,7.20,4.43,4.43,-4.45,-4.19,-5.37,2.75,2.75,2.77
222.23,7.20,7.22,4.44,4.46,-4.46,-4.24,-5.46,2.74,2.76,2.76
224.45,7.26,7.25,4.49,4.49,-4.48,-4.28,-5.56,2.78,2.77,2.77
226.70,7.30,7.28,4.53,4.52,-4.50,-4.33,-5.64,2.80,2.78,2.76
228.96,7.30,7.30,4.53,4.54,-4.52,-4.38,-5.72,2.78,2.78,2.76
231.25,7.31,7.30,4.53,4.53,-4.55,-4.42,-5.79,2.76,2.76,2.77
233.57,7.32,7.32,4.54,4.54,-4.57,-4.46,-5.86,2.74,2.74,2.77
235.90,7.33,7.36,4.55,4.58,-4.60,-4.51,-5.92,2.73,2.76,2.77
238.26,7.42,7.40,4.64,4.63,-4.63,-4.55,-5.97,2.79,2.78,2.77
240.64,7.47,7.45,4.68,4.66,-4.65,-4.59,-6.00,2.82,2.80,2.79
243.05,7.48,7.49,4.68,4.69,-4.67,-4.64,-6.03,2.81,2.81,2.80
245.48,7.50,7.50,4.69,4.70,-4.69,-4.68,-6.05,2.81,2.82,2.81
247.93,7.53,7.52,4.71,4.71,-4.70,-4.72,-6.06,2.82,2.82,2.82
250.41,7.55,7.54,4.72,4.72,-4.71,-4.75,-6.05,2.84,2.84,2.82
252.92,7.56,7.56,4.71,4.72,-4.71,-4.79,-6.04,2.85,2.85,2.84
255.45,7.58,7.57,4.71,4.71,-4.71,-4.83,-6.01,2.86,2.86,2.87
258.00,7.58,7.57,4.70,4.69,-4.71,-4.87,-5.98,2.87,2.86,2.88
260.58,7.59,7.59,4.69,4.69,-4.71,-4.90,-5.93,2.88,2.88,2.89
263.19,7.59,7.61,4.67,4.70,-4.71,-4.93,-5.88,2.88,2.90,2.92
265.82,7.66,7.64,4.73,4.71,-4.70,-4.96,-5.81,2.95,2.94,2.93
268.48,7.69,7.67,4.73,4.72,-4.70,-4.99,-5.73,2.99,2.97,2.95
271.16,7.68,7.69,4.70,4.71,-4.68,-5.02,-5.65,2.99,3.00,2.98
273.87,7.68,7.68,4.68,4.68,-4.67,-5.05,-5.56,3.01,3.01,2.99
276.61,7.68,7.67,4.66,4.66,-4.65,-5.07,-5.46,3.02,3.02,3.02
279.38,7.68,7.68,4.64,4.65,-4.65,-5.09,-5.36,3.03,3.03,3.03
282.17,7.68,7.68,4.63,4.63,-4.64,-5.11,-5.25,3.03,3.03,3.05
284.99,7.69,7.67,4.61,4.60,-4.65,-5.13,-5.13,3.04,3.02,3.07
287.84,7.69,7.71,4.60,4.62,-4.66,-5.15,-5.02,3.03,3.05,3.09
290.72,7.74,7.77,4.62,4.66,-4.67,-5.16,-4.89,3.06,3.10,3.11
293.63,7.90,7.85,4.77,4.72,-4.69,-5.17,-4.77,3.20,3.16,3.13
296.57,7.93,7.92,4.77,4.77,-4.71,-5.18,-4.65,3.21,3.20,3.15
299.53,7.94,7.95,4.77,4.78,-4.74,-5.18,-4.52,3.20,3.21,3.17
302.53,7.96,7.95,4.77,4.76,-4.77,-5.18,-4.39,3.19,3.19,3.19
305.55,7.97,7.97,4.74,4.76,-4.79,-5.18,-4.26,3.18,3.18,3.22
308.61,8.00,8.01,4.76,4.77,-4.81,-5.18,-4.13,3.19,3.21,3.24
311.69,8.07,8.07,4.80,4.80,-4.82,-5.17,-4.01,3.25,3.25,3.26
314.81,8.14,8.13,4.84,4.83,-4.82,-5.16,-3.88,3.32,3.31,3.30
317.96,8.18,8.17,4.86,4.85,-4.82,-5.14,-3.75,3.35,3.35,3.32
321.14,8.19,8.19,4.85,4.85,-4.83,-5.12,-3.63,3.36,3.36,3.34
324.35,8.19,8.19,4.83,4.84,-4.82,-5.10,-3.50,3.36,3.37,3.35
327.59,8.19,8.19,4.81,4.81,-4.81,-5.07,-3.38,3.37,3.37,3.38
330.87,8.19,8.18,4.79,4.79,-4.79,-5.04,-3.26,3.39,3.39,3.40
334.18,8.18,8.18,4.76,4.77,-4.77,-5.00,-3.14,3.41,3.41,3.41
337.52,8.18,8.18,4.75,4.74,-4.75,-4.96,-3.02,3.43,3.43,3.43
340.90,8.18,8.18,4.72,4.72,-4.73,-4.92,-2.91,3.45,3.44,3.46
344.30,8.18,8.17,4.70,4.70,-4.72,-4.87,-2.79,3.46,3.45,3.48
347.75,8.18,8.17,4.68,4.68,-4.71,-4.82,-2.68,3.47,3.46,3.49
351.23,8.18,8.20,4.67,4.68,-4.69,-4.76,-2.57,3.48,3.50,3.51
354.74,8.22,8.23,4.69,4.70,-4.67,-4.69,-2.47,3.54,3.56,3.53
358.28,8.28,8.25,4.73,4.70,-4.65,-4.63,-2.36,3.62,3.59,3.55
361.87,8.25,8.23,4.68,4.67,-4.63,-4.55,-2.26,3.62,3.60,3.56
365.49,8.17,8.18,4.59,4.61,-4.61,-4.48,-2.15,3.56,3.58,3.57
369.14,8.12,8.13,4.54,4.55,-4.58,-4.39,-2.05,3.54,3.55,3.58
372.83,8.11,8.11,4.51,4.51,-4.55,-4.31,-1.96,3.56,3.56,3.60
376.56,8.12,8.12,4.51,4.50,-4.52,-4.22,-1.86,3.60,3.60,3.61
380.33,8.13,8.12,4.49,4.49,-4.49,-4.12,-1.77,3.64,3.63,3.64
384.13,8.14,8.12,4.49,4.48,-4.46,-4.02,-1.67,3.67,3.65,3.64
387.97,8.08,8.11,4.42,4.45,-4.44,-3.91,-1.58,3.63,3.66,3.65
391.85,8.10,8.08,4.44,4.42,-4.42,-3.80,-1.49,3.67,3.66,3.66
395.77,8.07,8.07,4.39,4.39,-4.40,-3.69,-1.40,3.67,3.67,3.68
399.73,8.04,8.05,4.35,4.36,-4.36,-3.57,-1.32,3.68,3.69,3.69
403.72,8.03,8.01,4.33,4.32,-4.31,-3.45,-1.23,3.72,3.70,3.70
407.76,7.97,7.98,4.26,4.27,-4.26,-3.32,-1.15,3.71,3.72,3.71
411.84,7.94,7.93,4.21,4.21,-4.20,-3.19,-1.06,3.73,3.73,3.72
415.96,7.87,7.85,4.13,4.12,-4.14,-3.05,-0.98,3.73,3.71,3.73
420.12,7.77,7.77,4.02,4.03,-4.06,-2.92,-0.90,3.71,3.71,3.74
424.32,7.66,7.68,3.91,3.93,-3.96,-2.77,-0.82,3.70,3.73,3.75
428.56,7.61,7.61,3.85,3.85,-3.83,-2.63,-0.75,3.77,3.78,3.76
432.85,7.53,7.51,3.76,3.74,-3.69,-2.48,-0.67,3.84,3.82,3.77
437.18,7.39,7.35,3.61,3.57,-3.51,-2.32,-0.59,3.87,3.84,3.78
441.55,7.12,7.15,3.32,3.36,-3.32,-2.17,-0.52,3.80,3.83,3.80
445.96,6.90,6.90,3.09,3.09,-3.10,-2.01,-0.45,3.80,3.80,3.81
450.42,6.68,6.65,2.86,2.83,-2.86,-1.84,-0.37,3.81,3.78,3.81
454.93,6.37,6.42,2.53,2.59,-2.61,-1.68,-0.30,3.76,3.81,3.83
459.48,6.17,6.15,2.32,2.30,-2.35,-1.51,-0.23,3.82,3.80,3.84
464.07,5.92,5.86,2.05,2.00,-2.08,-1.34,-0.16,3.84,3.78,3.86
468.71,5.52,5.59,1.64,1.71,-1.82,-1.17,-0.09,3.70,3.77,3.88
473.40,5.25,5.26,1.36,1.37,-1.56,-0.99,-0.02,3.69,3.71,3.89
478.13,4.96,4.87,1.05,0.96,-1.30,-0.81,0.05,3.66,3.57,3.91
482.91,4.43,4.43,0.51,0.51,-1.04,-0.64,0.12,3.39,3.39,3.92
487.74,3.87,3.95,-0.07,0.01,-0.78,-0.45,0.19,3.09,3.17,3.94
492.62,3.41,3.37,-0.55,-0.59,-0.52,-0.27,0.26,2.88,2.85,3.96
497.55,2.91,2.78,-1.06,-1.19,-0.26,-0.09,0.32,2.64,2.51,3.97
502.52,2.13,2.32,-1.86,-1.67,-0.00,0.10,0.39,2.12,2.31,3.99
507.55,1.75,1.84,-2.25,-2.16,0.25,0.29,0.46,2.00,2.10,4.00
512.62,1.61,1.31,-2.41,-2.71,0.51,0.48,0.52,2.12,1.82,4.02
517.75,0.74,0.79,-3.30,-3.25,0.77,0.67,0.59,1.51,1.56,4.04
522.93,0.03,0.19,-4.03,-3.86,1.03,0.86,0.66,1.06,1.22,4.05
528.16,-0.36,-0.42,-4.43,-4.48,1.29,1.05,0.72,0.92,0.87,4.06
533.44,-0.82,-0.86,-4.91,-4.94,1.55,1.24,0.79,0.72,0.68,4.08
538.77,-1.35,-1.33,-5.46,-5.43,1.80,1.44,0.86,0.45,0.47,4.10
544.16,-1.82,-1.87,-5.95,-5.99,2.06,1.63,0.92,0.24,0.19,4.12
549.60,-2.42,-2.38,-6.57,-6.51,2.32,1.82,0.99,-0.10,-0.05,4.14
555.10,-2.91,-2.92,-7.06,-7.08,2.58,2.02,1.06,-0.33,-0.34,4.15
