frequency,raw
20,3.11
21,3.11
22,3.10
23,3.10
24,3.15
25,3.17
26,3.32
27,3.42
28,3.44
29,3.42
30,3.39
31,3.27
32,3.19
33,2.97
34,2.73
35,2.52
36,2.27
37,2.06
38,1.82
39,1.60
40,1.40
41,1.34
42,1.30
43,1.18
44,1.11
45,1.18
46,1.23
47,1.25
48,1.33
49,1.37
50,1.48
51,1.52
52,1.62
53,1.70
54,1.77
55,1.79
56,1.87
57,1.89
58,1.93
59,2.00
60,2.02
61,2.03
62,2.09
63,2.13
64,2.13
65,2.13
66,2.13
67,2.18
68,2.17
69,2.15
70,2.13
71,2.10
72,2.12
73,2.15
74,2.14
75,2.12
76,2.09
77,2.07
78,2.06
79,2.02
80,1.99
81,1.99
82,1.97
83,1.94
84,1.92
85,1.89
86,1.88
87,1.87
88,1.86
89,1.84
90,1.81
91,1.77
92,1.74
93,1.74
94,1.69
95,1.65
96,1.64
97,1.62
98,1.59
99,1.55
100,1.52
101,1.48
102,1.45
104,1.41
105,1.37
106,1.34
107,1.34
108,1.31
109,1.31
110,1.28
111,1.26
112,1.23
113,1.20
114,1.17
115,1.14
117,1.10
118,1.08
119,1.04
120,1.00
121,0.97
123,0.96
124,0.93
125,0.89
126,0.85
128,0.85
129,0.83
130,0.79
131,0.76
133,0.73
134,0.69
135,0.66
137,0.62
138,0.58
140,0.56
141,0.52
142,0.49
144,0.46
145,0.45
147,0.41
148,0.39
150,0.38
151,0.34
153,0.30
154,0.27
156,0.23
157,0.19
159,0.15
160,0.11
162,0.07
164,0.03
165,0.00
167,-0.04
169,-0.08
170,-0.11
172,-0.15
174,-0.23
175,-0.26
177,-0.30
179,-0.33
181,-0.37
183,-0.40
184,-0.43
186,-0.47
188,-0.49
190,-0.52
192,-0.55
194,-0.58
196,-0.63
198,-0.68
200,-0.72
202,-0.75
204,-0.81
206,-0.84
208,-0.93
210,-0.96
212,-0.97
214,-1.02
216,-1.07
218,-1.13
221,-1.16
223,-1.17
225,-1.19
227,-1.21
229,-1.22
232,-1.28
234,-1.30
236,-1.35
239,-1.37
241,-1.39
244,-1.42
246,-1.44
248,-1.46
251,-1.48
253,-1.51
256,-1.52
259,-1.50
261,-1.50
264,-1.50
266,-1.50
269,-1.51
272,-1.53
274,-1.55
277,-1.56
280,-1.58
283,-1.60
286,-1.62
288,-1.62
291,-1.62
294,-1.63
297,-1.67
300,-1.70
303,-1.71
306,-1.73
309,-1.76
312,-1.79
316,-1.82
319,-1.85
322,-1.88
325,-1.90
328,-1.91
332,-1.94
335,-1.93
338,-1.96
342,-2.00
345,-2.00
349,-2.08
352,-2.08
356,-2.10
359,-2.16
363,-2.21
366,-2.27
370,-2.33
374,-2.37
377,-2.40
381,-2.46
385,-2.46
389,-2.44
393,-2.38
397,-2.30
401,-2.25
405,-2.21
409,-2.11
413,-2.03
417,-1.96
421,-1.86
425,-1.80
430,-1.72
434,-1.68
438,-1.58
443,-1.58
447,-1.58
451,-1.58
456,-1.52
460,-1.46
465,-1.45
470,-1.42
474,-1.38
479,-1.37
484,-1.35
489,-1.34
494,-1.33
499,-1.31
504,-1.30
509,-1.26
514,-1.23
519,-1.18
524,-1.15
529,-1.13
535,-1.11
540,-1.08
545,-1.06
551,-1.04
556,-1.02
562,-0.95
568,-0.90
573,-0.86
579,-0.78
585,-0.72
591,-0.69
596,-0.64
602,-0.60
608,-0.59
615,-0.56
621,-0.56
627,-0.54
633,-0.52
639,-0.48
646,-0.45
652,-0.39
659,-0.34
665,-0.28
672,-0.26
679,-0.15
686,-0.12
692,-0.11
699,-0.04
706,-0.01
713,0.04
721,0.14
728,0.22
735,0.25
742,0.28
750,0.36
757,0.41
765,0.41
773,0.41
780,0.40
788,0.42
796,0.41
804,0.39
812,0.38
820,0.40
828,0.34
837,0.38
845,0.42
853,0.46
862,0.49
871,0.61
879,0.63
888,0.65
897,0.65
906,0.56
915,0.49
924,0.40
933,0.33
943,0.27
952,0.27
962,0.19
971,0.15
981,0.09
991,0.05
1001,-0.01
1011,-0.04
1021,-0.09
1031,-0.14
1041,-0.13
1052,-0.17
1062,-0.21
1073,-0.20
1084,-0.21
1094,-0.22
1105,-0.22
1116,-0.22
1128,-0.19
1139,-0.15
1150,-0.12
1162,-0.09
1173,-0.06
1185,-0.02
1197,0.05
1209,0.12
1221,0.21
1233,0.29
1246,0.34
1258,0.41
1271,0.46
1283,0.49
1296,0.53
1309,0.56
1322,0.60
1335,0.66
1349,0.78
1362,0.86
1376,0.90
1390,0.99
1404,1.09
1418,1.12
1432,1.16
1446,1.20
1461,1.22
1475,1.21
1490,1.23
1505,1.23
1520,1.25
1535,1.29
1550,1.38
1566,1.50
1582,1.66
1597,1.93
1613,2.28
1629,2.68
1646,3.09
1662,3.46
1679,3.85
1696,4.16
1713,4.45
1730,4.76
1747,5.02
1764,5.26
1782,5.47
1800,5.72
1818,5.86
1836,5.95
1854,6.02
1873,6.14
1892,6.26
1911,6.35
1930,6.43
1949,6.50
1969,6.58
1988,6.70
2008,6.88
2028,7.00
2048,7.09
2069,7.19
2090,7.33
2111,7.51
2132,7.66
2153,7.78
2175,7.86
2196,8.00
2218,8.12
2240,8.17
2263,8.31
2285,8.37
2308,8.50
2331,8.62
2355,8.78
2378,8.93
2402,9.09
2426,9.32
2450,9.53
2475,9.75
2500,9.94
2525,10.13
2550,10.36
2575,10.52
2601,10.57
2627,10.69
2653,10.74
2680,10.73
2707,10.80
2734,10.84
2761,10.94
2789,10.98
2817,11.09
2845,11.20
2873,11.24
2902,11.27
2931,11.28
2960,11.21
2990,11.10
3020,10.96
3050,10.83
3080,10.64
3111,10.40
3142,10.08
3174,9.73
3206,9.36
3238,8.95
3270,8.50
3303,8.04
3336,7.58
3369,7.09
3403,6.61
3437,6.07
3471,5.41
3506,4.72
3541,4.00
3576,3.24
3612,2.58
3648,2.06
3685,1.61
3721,1.33
3759,1.19
3796,1.24
3834,1.39
3873,1.66
3911,2.01
3950,2.39
3990,2.93
4030,3.30
4070,3.60
4111,3.87
4152,4.13
4193,4.29
4235,4.43
4278,4.51
4321,4.49
4364,4.41
4407,4.34
4451,4.24
4496,4.12
4541,4.05
4586,4.01
4632,3.93
4679,3.86
4725,3.84
4773,3.77
4820,3.76
4868,3.73
4917,3.77
4966,3.78
5016,3.87
5066,3.99
5117,4.10
5168,4.25
5220,4.52
5272,4.77
5325,4.99
5378,5.22
5432,5.55
5486,6.03
5541,6.45
5596,6.71
5652,6.95
5709,7.15
5766,7.38
5823,7.58
5882,7.79
5940,8.00
6000,8.11
6060,8.22
6120,8.30
6182,8.26
6244,8.19
6306,8.12
6369,8.05
6433,7.91
6497,7.76
6562,7.64
6628,7.53
6694,7.37
6761,7.17
6828,6.93
6897,6.68
6966,6.49
7035,6.36
7106,6.30
7177,6.26
7249,6.28
7321,6.25
7394,6.09
7468,5.83
7543,5.61
7618,5.39
7694,5.03
7771,4.62
7849,3.97
7928,3.50
8007,3.23
8087,2.92
8168,2.63
8250,2.25
8332,1.90
8415,1.66
8499,1.50
8584,1.41
8670,1.46
8757,1.47
8845,1.50
8933,1.62
9022,1.79
9113,1.83
9204,1.67
9296,1.32
9389,0.91
9483,0.34
9577,-0.34
9673,-1.06
9770,-1.94
9868,-3.33
9966,-4.94
10066,-6.45
10167,-7.82
10268,-9.00
10371,-9.65
10475,-9.86
10579,-9.49
10685,-8.92
10792,-8.11
10900,-7.15
11009,-6.10
11119,-5.11
11230,-4.14
11343,-3.24
11456,-2.64
11571,-2.44
11686,-2.07
11803,-1.46
11921,-0.76
12040,0.29
12161,1.26
12282,2.08
12405,2.96
12529,3.55
12655,3.92
12781,3.98
12909,3.78
13038,3.34
13168,2.72
13300,2.08
13433,1.44
13567,0.84
13703,0.30
13840,-0.09
13978,-0.29
14118,-0.28
14259,-0.09
14402,0.29
14546,0.76
14692,1.21
14838,1.56
14987,1.78
15137,1.74
15288,1.28
15441,0.54
15595,-0.37
15751,-1.41
15909,-2.44
16068,-3.42
16229,-4.94
16391,-5.96
16555,-7.06
16720,-7.80
16888,-8.22
17056,-8.55
17227,-8.84
17399,-9.14
17573,-9.58
17749,-10.13
17926,-10.77
18106,-11.48
18287,-12.25
18470,-13.14
18654,-14.14
18841,-15.19
19029,-16.24
19220,-17.31
19412,-18.19
19606,-18.86
19802,-19.44
20000,-20.00
