frequency,raw,error,smoothed,error_smoothed,equalization,equalized_raw,equalized_smoothed,target
20,-28.958457174391107,-33.07907792499902,-28.916161740123737,-33.03680073530202,5.999999999999999,-22.958457174391107,-22.916161740123737,4.120620750607913
21,-28.2693308849748,-32.42156602968413,-28.299958725610114,-32.452183246123745,6.0,-22.2693308849748,-22.299958725610114,4.152235144709332
22,-27.677398492977826,-31.857846973001323,-27.70175525937753,-31.882181677738657,6.0,-21.677398492977826,-21.70175525937753,4.180448480023496
23,-27.10587639787096,-31.3111357481925,-27.121551341425995,-31.326796030146774,5.999999999999999,-21.10587639787096,-21.121551341425995,4.205259350321538
24,-26.557951708295608,-30.784617804749843,-26.559346971755467,-30.786026303348045,5.999999999999998,-20.55795170829561,-20.559346971755467,4.2266660964542355
25,-25.95450343243353,-30.19917020733933,-26.016520660132905,-30.261259360867275,6.000000000000001,-19.95450343243353,-20.016520660132905,4.244666774905798
26,-25.518520600819038,-29.777779724869298,-25.491374287766803,-29.75079269400826,6.0,-19.518520600819038,-19.491374287766803,4.259259124050261
27,-24.993367237939673,-29.263876711650212,-24.98243038256581,-29.253140480295286,6.0,-18.993367237939673,-18.98243038256581,4.270509473710542
28,-24.495400458405147,-28.773762098991096,-24.487760008281597,-28.76635430947055,6.0,-18.495400458405147,-18.487760008281597,4.278361640585948
29,-24.02045692755199,-28.3032436190637,-24.005284454323196,-28.288320475214565,6.000000000000001,-18.02045692755199,-18.005284454323196,4.282786691511712
30,-23.569179815464892,-27.852917504125685,-23.53360948509355,-27.817592939731313,6.0,-17.569179815464892,-17.53360948509355,4.2837376886607945
31,-23.038722923119458,-27.319869789994335,-23.071809539104372,-27.353174565944293,5.999999999999999,-17.038722923119458,-17.071809539104372,4.281146866874879
32,-22.628876913575834,-26.903801195102297,-22.619495881936466,-26.894585414903077,5.999999999999999,-16.628876913575834,-16.619495881936466,4.274924281526465
33,-22.137259065086088,-26.402217685494282,-22.176614163588297,-26.441662131973338,6.0,-16.137259065086088,-16.176614163588297,4.264958620408194
34,-21.763895985328272,-26.01502804126331,-21.743137702855755,-25.994255007223824,5.999999999999998,-15.763895985328274,-15.743137702855757,4.251132055935038
35,-21.328066650824326,-25.561381212082463,-21.318927516967605,-25.552094296775216,6.000000000000001,-15.328066650824326,-15.318927516967605,4.233314561258136
36,-20.92055088562845,-25.131926003131774,-20.90366759209254,-25.114733932268784,5.999999999999998,-14.920550885628453,-14.90366759209254,4.211375117503325
37,-20.488622557394198,-24.67381476233102,-20.49695378237243,-24.681651134735482,6.0,-14.488622557394198,-14.49695378237243,4.185192204936822
38,-20.048284591591173,-24.202951042730618,-20.098469606494824,-24.252435079260586,6.000000000000001,-14.048284591591173,-14.098469606494824,4.154666451139444
39,-19.72694439131812,-23.846679481163886,-19.708139856966845,-23.8269552536512,6.0,-13.72694439131812,-13.708139856966845,4.119735089845765
40,-19.40385947324168,-23.484247235161146,-19.32619401579389,-23.405441147392818,5.999999999999999,-13.403859473241681,-13.326194015793892,4.0803877619194635
41,-18.965656290432754,-23.00234120247382,-18.95308401598287,-22.988417216211896,5.999999999999999,-12.965656290432754,-12.95308401598287,4.036684912041063
42,-18.50190518292196,-22.490680610875547,-18.589271951298876,-22.57650795395339,6.000000000000003,-12.501905182921956,-12.589271951298873,3.9887754279535863
43,-18.2050897565594,-22.142003641938786,-18.234961173808614,-22.17018557429322,6.0,-12.2050897565594,-12.234961173808614,3.9369138853793864
44,-17.90852642093418,-21.79000252375154,-17.889871484470234,-21.76955994124818,6.0,-11.90852642093418,-11.889871484470234,3.881476102817359
45,-17.616771909997638,-21.43974375049671,-17.55315326877312,-21.374304475401388,5.999999999999998,-11.61677190999764,-11.553153268773121,3.8229718404990702
46,-17.153475842025884,-20.915529277150252,-17.223485679089773,-20.983762017809042,6.0,-11.153475842025884,-11.223485679089773,3.762053435124368
47,-16.890456589654768,-20.589975778381774,-16.899334972844283,-20.59720571998973,6.0,-10.890456589654768,-10.899334972844283,3.699519188727006
48,-16.585863922569434,-20.22217465587308,-16.579288602047747,-20.214169666859917,6.0,-10.585863922569434,-10.579288602047747,3.6363107333036453
49,-16.339913176516784,-19.91341671768341,-16.26235236296547,-19.834735872989704,5.999999999999999,-10.339913176516784,-10.26235236296547,3.573503541166627
50,-15.999505784791355,-19.511795939200436,-15.948114477232508,-19.459681137619313,5.999999999999999,-9.999505784791356,-9.948114477232508,3.5122901544090803
51,-15.557520798809376,-19.01147683741284,-15.636734590154889,-19.090441691562173,5.999999999999999,-9.557520798809378,-9.63673459015489,3.453956038603463
52,-15.293583890868335,-18.693432242346784,-15.328783170760996,-18.728921436522576,5.999999999999999,-9.293583890868337,-9.328783170760996,3.3998483514784477
53,-15.036521948403252,-18.387860264038558,-15.025007725208662,-18.377220889168946,6.000000000000002,-9.03652194840325,-9.02500772520866,3.351338315635306
54,-14.72145891139515,-18.03123717937922,-14.726116034811772,-18.037378121123275,6.0,-8.72145891139515,-8.726116034811772,3.309778267984073
55,-14.468909231169233,-17.74536407803182,-14.432641429549733,-17.711188136202843,6.0,-8.468909231169233,-8.432641429549733,3.2764548468625856
56,-14.154704927385687,-17.407245013999216,-14.144907192075493,-17.400119509759996,6.000000000000002,-8.154704927385685,-8.144907192075491,3.2525400866135277
57,-13.833530987429477,-17.07257342125243,-13.86306070209616,-17.10530085721058,5.999999999999999,-7.833530987429477,-7.863060702096161,3.239042433822953
58,-13.597686547735881,-16.83444639835821,-13.587124067728524,-16.82752597350093,6.0,-7.597686547735881,-7.587124067728524,3.2367598506223283
59,-13.300542800343688,-16.546780016122312,-13.317015696791774,-16.567234227140208,6.000000000000002,-7.3005428003436865,-7.317015696791772,3.2462372157786232
60,-13.045834657797275,-16.313564822649315,-13.052527549583152,-16.32445300665328,6.000000000000001,-7.045834657797275,-7.052527549583151,3.26773016485204
61,-12.778019827745178,-16.079197150596045,-12.793276537373957,-16.09872255455733,6.000000000000002,-6.778019827745176,-6.793276537373956,3.301177322850865
62,-12.571865708172126,-15.918048293868829,-12.53866778729483,-15.889042489230446,6.0,-6.571865708172126,-6.5386677872948304,3.346182585696703
63,-12.30802988094771,-15.710038590830877,-12.287904148194766,-15.69387558391075,6.0,-6.308029880947711,-6.287904148194766,3.4020087098831655
64,-12.004956934304733,-15.472539926470027,-12.04005503457629,-15.511222633499695,5.999999999999999,-6.004956934304734,-6.04005503457629,3.4675829921652936
65,-11.75687056288869,-15.29838584962738,-11.794171415386808,-15.338755435011795,5.999999999999999,-5.7568705628886905,-5.794171415386809,3.541515286738689
66,-11.567973815286644,-15.19010185941476,-11.549417217038993,-15.173977829449441,6.000000000000002,-5.567973815286642,-5.549417217038991,3.6221280441281154
67,-11.372987326066653,-15.080484820289861,-11.30518837404502,-15.014385178131185,5.999999999999999,-5.372987326066654,-5.305188374045021,3.707497494223208
68,-11.08969140989026,-14.885195976024853,-11.061204351240901,-14.857605728865853,6.000000000000001,-5.08969140989026,-5.0612043512409,3.7955045661345936
69,-10.758454539882123,-14.642348209308407,-10.817570971015876,-14.701520888270277,5.999999999999999,-4.758454539882124,-4.8175709710158765,3.8838936694262842
70,-10.531833841000006,-14.502170921977678,-10.574816480875308,-14.544364155966333,6.0,-4.531833841000006,-4.574816480875308,3.970337080977672
71,-10.362424664137697,-14.41492707472585,-10.333891996230463,-14.384787418705839,6.0,-4.362424664137697,-4.333891996230463,4.052502410588154
72,-10.1405465714547,-14.268667043023004,-10.096110976004665,-14.221866683816003,5.999999999999999,-4.1405465714547,-4.096110976004666,4.128120471568305
73,-9.875088914191881,-14.070139782090664,-9.862995789359651,-14.05501271055589,6.0,-3.875088914191881,-3.862995789359651,4.195050867898782
74,-9.613240541499813,-13.864583268858892,-9.63601718464658,-13.88376985729683,6.000000000000001,-3.6132405414998123,-3.6360171846465787,4.251342727359079
75,-9.382417055993953,-13.677705308919323,-9.416256214302084,-13.707530432415517,5.999999999999998,-3.3824170559939546,-3.416256214302086,4.295288252925371
76,-9.20057534207432,-13.526042460252338,-9.204071292762348,-13.525245304783208,6.000000000000003,-3.200575342074317,-3.204071292762346,4.325467118178018
77,-8.999300721507026,-13.340080897248678,-8.998887852956429,-13.33524677688146,6.000000000000001,-2.9993007215070255,-2.998887852956428,4.340780175741651
78,-8.753613072087886,-13.094084527488885,-8.799219229453376,-13.135291423438623,5.999999999999999,-2.7536130720878864,-2.799219229453377,4.3404714554009995
79,-8.580802674721348,-12.904940646568642,-8.602966335644211,-12.922870066463057,6.000000000000002,-2.5808026747213457,-2.6029663356442097,4.3241379718472945
80,-8.454642210998871,-12.746369622057028,-8.40794615650644,-12.695734930676512,6.0,-2.4546422109988715,-2.4079461565064406,4.291727411058156
81,-8.276404405136098,-12.519928694851465,-8.212502115667409,-12.452497336466951,6.0,-2.2764044051360983,-2.2125021156674087,4.243524289715368
82,-8.040401420049612,-12.220527076848706,-8.01599670085218,-12.19309685804045,6.0,-2.040401420049612,-2.0159967008521793,4.180125656799094
83,-7.853661516210148,-11.956069323705067,-7.8190072379279485,-11.918963770616928,6.000000000000002,-1.8536615162101464,-1.8190072379279467,4.102407807494919
84,-7.570524481629062,-11.582010270599685,-7.623138439158,-11.632790118782449,6.0,-1.5705244816290618,-1.6231384391579997,4.011485788970623
85,-7.363655123679596,-11.272322807378133,-7.4304988911818555,-11.337959500088388,6.000000000000001,-1.363655123679595,-1.4304988911818546,3.908667683698537
86,-7.244711148221987,-11.040116901882204,-7.243012741812162,-11.037811022337507,5.999999999999999,-1.2447111482219881,-1.243012741812163,3.795405753660216
87,-7.099049054734483,-10.772295574116608,-7.061803040073597,-10.734978492626922,6.0,-1.0990490547344827,-1.0618030400735972,3.673246519382126
88,-6.86544612694829,-10.409227865803494,-6.886861038708786,-10.431022302770534,5.999999999999999,-0.8654461269482905,-0.886861038708787,3.543781738855204
89,-6.693239712145577,-10.101841767984483,-6.717112106683111,-10.126464199078956,6.0,-0.6932397121455773,-0.7171121066831114,3.4086020558389056
90,-6.546427140240628,-9.815681962115452,-6.550842221824235,-9.821183642115164,6.0,-0.5464271402406284,-0.5508422218242348,3.2692548218748225
91,-6.382551012640259,-9.509758294046355,-6.386315060787379,-9.514996736922761,5.999999999999999,-0.3825510126402598,-0.3863150607873802,3.1272072814060956
92,-6.271429703440185,-9.25524566940982,-6.2223403742464605,-9.208169649375247,5.999999999999999,-0.2714297034401856,-0.22234037424646136,2.9838159659696353
93,-6.112775488653147,-8.953078281335374,-6.05857808197949,-8.901648547507934,6.000000000000002,-0.11277548865314557,-0.058578081979487884,2.8403027926822273
94,-5.906960544479125,-8.604698568420869,-5.895471784397869,-8.596909130801151,6.000000000000001,0.09303945552087622,0.10452821560213188,2.697738023941744
95,-5.704703665398296,-8.261733601995719,-5.733857489127281,-8.29549375928525,6.000000000000001,0.295296334601705,0.26614251087271956,2.5570299365974236
96,-5.506457086707195,-7.925377870231134,-5.574426797211963,-7.9984450260313515,5.999999999999998,0.49354291329280287,0.42557320278803523,2.4189207835239386
97,-5.362933637643282,-7.646922055868422,-5.417283769546886,-7.705900624620615,5.999999999999999,0.637066362356717,0.582716230453113,2.2839884182251398
98,-5.2744805699411,-7.427133369091244,-5.261795578971713,-7.417057925837038,6.000000000000001,0.7255194300589007,0.7382044210282883,2.152652799150144
99,-5.157809837266236,-7.182996333212753,-5.1068137684468375,-7.130566647666644,6.000000000000001,0.8421901627337647,0.8931862315531633,2.0251864959465165
100,-4.98063082250728,-6.882359104659155,-4.95118606623916,-6.845224790977894,6.000000000000001,1.0193691774927212,1.048813933760841,1.9017282821518755
101,-4.835069626149791,-6.617368537973132,-4.794353561528178,-6.560713773815556,5.97613890784092,1.141069281691129,1.1817853463127426,1.7822989118233408
102,-4.668511489748341,-6.335329722582631,-4.636786152955578,-6.278073344279383,5.925087363988864,1.2565758742405233,1.2883012110332865,1.6668182328342898
104,-4.429285777769745,-5.92244402956149,-4.480066106015544,-5.9997013613874,5.742855096895622,1.313569319125877,1.262788990880078,1.493158251791745
105,-4.312104614251319,-5.697042984479841,-4.326560101551722,-5.728834344799988,5.603397611613328,1.2912929973620093,1.2768375100616058,1.3849383702285227
106,-4.151688125996158,-5.431807885602561,-4.178771099886631,-5.46865418787945,5.42921680943965,1.2775286834434914,1.250445709553019,1.2801197596064027
107,-4.0226613149081585,-5.201050949560829,-4.038574667910575,-5.221301657109704,5.221301657109704,1.1986403422015455,1.1827269891991286,1.1783896346526697
108,-3.906767558831569,-4.986184012144786,-3.9065814234018297,-4.987110329479815,4.987110329479815,1.0803427706482465,1.0805289060779857,1.0794164533132178
109,-3.7824757419964503,-4.765338904011626,-3.7818215599822915,-4.764299905049294,4.764299905049294,0.9818241630528433,0.982478345067002,0.9828631620151764
110,-3.625741886035154,-4.514140717535154,-3.66184311787402,-4.549219904829017,4.549219904829015,0.9234780187938614,0.8873767869549951,0.8883988315000004
111,-3.517804551420669,-4.313513188022806,-3.543193222966914,-4.3370697461450725,4.337069746145073,0.8192651947244043,0.7938765231781595,0.7957086366021369
112,-3.458268015648305,-4.162770196852624,-3.4221498757844513,-4.122892631252688,4.122892631252687,0.6646246156043816,0.7007427554682355,0.7045021812043191
113,-3.3453812048993345,-3.9599014061529783,-3.2955162804321008,-3.9025824243847467,3.9025824243847462,0.5572012194854117,0.6070661439526455,0.6145202012536437
114,-3.215618331925316,-3.7411580292441964,-3.161287151840708,-3.6736612828414925,3.673661282841492,0.45804295091617586,0.5123741310007839,0.5255396973188802
115,-3.032964310691741,-3.470341868276198,-3.0190389993316424,-3.435664290877753,3.4356642908777535,0.4026999801860125,0.41662529154611105,0.43737755758445696
117,-2.815770348153331,-3.1109503685559785,-2.8699684202926923,-3.1900763673756862,3.190076367375686,0.3743060192223546,0.3201079470829935,0.2951800204026471
118,-2.7170838811367712,-2.926482832246201,-2.7165854167035732,-2.9398749151555412,2.939874915155542,0.22279103401877087,0.22328949845196888,0.20939895110942963
119,-2.5935732043316384,-2.7177612062587873,-2.5621458320257267,-2.6888150311784074,2.688815031178407,0.09524182684676852,0.12666919915268027,0.12418800192714885
120,-2.4057976718471927,-2.4453227589291315,-2.409963783025081,-2.44063852474153,2.44063852474153,0.03484085289433736,0.030674741716449017,0.0395250870819388
121,-2.2681912815156235,-2.223617424081664,-2.2627693126862853,-2.198388291881266,2.198388291881266,-0.06980298963435771,-0.0643810208050195,-0.04457385743395981
123,-2.04200348557631,-1.8665464305054353,-2.1222614538750433,-1.9639696222381473,1.9639696222381475,-0.07803386333816253,-0.15829183163689575,-0.17545705507087472
124,-1.954389793061127,-1.6974480854518654,-1.9889539949645765,-1.7380312185815074,1.7380312185815074,-0.21635857447961948,-0.25092277638306903,-0.2569417076092615
125,-1.8819157627370147,-1.544296409109331,-1.8623328931414787,-1.5201583078000205,1.5201583078000205,-0.3617574549369942,-0.34217458534145817,-0.3376193536276837
126,-1.7981775251303607,-1.380804696838297,-1.7412615475246316,-1.3092973928442952,1.3092973928442952,-0.4888801322860654,-0.43196415468033633,-0.4173728282920637
128,-1.6315269451895527,-1.0946309028637562,-1.6245056025397804,-1.1042825502854976,1.1042825502854978,-0.5272443949040548,-0.5202230522542826,-0.5368960423257965
129,-1.5087729046726186,-0.8956726979388647,-1.5112220806598615,-0.9043183465100976,0.9043183465100977,-0.6044545581625209,-0.6069037341497638,-0.6131002067337539
130,-1.388727348297212,-0.7007373094966585,-1.4012765750099319,-0.7092969741419335,0.7092969741419336,-0.6794303741552784,-0.6919796008679983,-0.6879900388005535
131,-1.349857325475028,-0.5884202374383141,-1.2953093022622664,-0.5198785193004243,0.5198785193004244,-0.8299788061746035,-0.775430782961842,-0.7614370880367138
133,-1.1489817507330915,-0.28120748676790375,-1.1945464668827621,-0.33732810580757433,0.3373281058075744,-0.8116536449255172,-0.8572183610751878,-0.8677742639651878
134,-1.0725664619761923,-0.13578894255124885,-1.1004246824960002,-0.16316582853454842,0.16316582853454842,-0.9094006334416439,-0.9372588539614518,-0.9367775194249435
135,-1.0474783580435945,-0.043429378656768325,-1.0141447505454182,0.0012682298959103507,-0.001268229895910352,-1.0487465879395048,-1.0154129804413285,-1.0040489793868261
137,-0.8980500382301793,0.20121803721880194,-0.9362862774885465,0.15521061257021548,-0.15521061257021546,-1.0532606508003948,-1.091496890058762,-1.0992680754489812
138,-0.8735223310848584,0.28825570085316266,-0.8665940343207972,0.29871962287787435,-0.29871962287787435,-1.172241953962733,-1.1653136571986715,-1.161778031938021
140,-0.7689623511201428,0.4799874793606228,-0.8039987424900668,0.43269428004114463,-0.43269428004114463,-1.2016566311612875,-1.2366930225312114,-1.2489498304807656
141,-0.7823559337636109,0.5243537880824299,-0.7468720357920946,0.5586511771654739,-0.5586511771654739,-1.3410071109290849,-1.3055232129575685,-1.3067097218460408
142,-0.7225944415006654,0.6400242128440133,-0.6934512997567757,0.6783110324316104,-0.6783110324316107,-1.4009054739322762,-1.3717623321883865,-1.3626186543446788
144,-0.6042141119948848,0.8351092630325129,-0.642319369532294,0.7931068490381203,-0.7931068490381202,-1.397320961033005,-1.4354262185704143,-1.4393233750273977
145,-0.5795464003014089,0.9111074042882336,-0.5928019961656323,0.9037579349127238,-0.9037579349127237,-1.4833043352141326,-1.4965599310783562,-1.4906538045896425
147,-0.6061804645460033,0.954062689844846,-0.5451633488061168,1.0100428849479763,-1.0100428849479763,-1.6162233494939797,-1.555206233754093,-1.5602431543908493
148,-0.6065411781129676,1.0006361863105098,-0.5005354869636791,1.110848667564177,-1.1108486675641769,-1.7173898456771446,-1.611384154527856,-1.6071773644234773
150,-0.36540457801943693,1.3046793592750898,-0.4605961690881681,1.204488567788416,-1.2044885677884163,-1.5698931458078533,-1.6650847368765844,-1.6700839372945269
151,-0.3669278060245954,1.34582403151772,-0.4270869478279077,1.2891954969158874,-1.2891954969158874,-1.656123302940483,-1.7162824447437952,-1.7127518375423154
153,-0.3852618490729814,1.3840503565658466,-0.4013137040351764,1.3636399449697387,-1.3636399449697385,-1.7489017940427198,-1.764953649004915,-1.769312205638828
154,-0.38473020369835853,1.4230104091580418,-0.38377512477481923,1.4273162434230282,-1.4273162434230284,-1.812046447121387,-1.8110913681978476,-1.8077406128564002
156,-0.3840412380454915,1.474115459230319,-0.3740193811834358,1.480689105453817,-1.4806891054538172,-1.8647303434993088,-1.854708486637253,-1.8581566972758106
157,-0.38337972450831226,1.5088733731912627,-0.3707541808314638,1.525073845411237,-1.5250738454112371,-1.9084535699195495,-1.895828026242701,-1.8922530976995748
159,-0.3829979323874083,1.553596912289568,-0.3721594262043587,1.562306049735596,-1.562306049735596,-1.9453039821230043,-1.9344654759399549,-1.9365948446769763
160,-0.3831897627247901,1.5829835403343067,-0.37630027070760236,1.594311617197483,-1.5943116171974825,-1.9775013799222725,-1.970611887905085,-1.9661733030590969
