frequency,raw
20,-2.95
21,-2.63
22,-2.32
23,-2.03
24,-1.75
25,-1.49
26,-1.25
27,-1.02
28,-0.80
29,-0.60
30,-0.42
31,-0.31
32,-0.19
33,-0.08
34,0.04
35,0.15
36,0.25
37,0.37
38,0.46
39,0.56
40,0.64
41,0.72
42,0.75
43,0.78
44,0.77
45,0.77
46,0.75
47,0.72
48,0.67
49,0.63
50,0.59
51,0.54
52,0.47
53,0.42
54,0.35
55,0.28
56,0.20
57,0.11
58,0.02
59,-0.07
60,-0.16
61,-0.26
62,-0.38
63,-0.50
64,-0.61
65,-0.70
66,-0.80
67,-0.90
68,-1.00
69,-1.09
70,-1.17
71,-1.25
72,-1.31
73,-1.36
74,-1.41
75,-1.44
76,-1.46
77,-1.48
78,-1.50
79,-1.52
80,-1.55
81,-1.59
82,-1.62
83,-1.63
84,-1.65
85,-1.67
86,-1.71
87,-1.75
88,-1.80
89,-1.85
90,-1.89
91,-1.94
92,-1.99
93,-2.03
94,-2.07
95,-2.11
96,-2.17
97,-2.23
98,-2.30
99,-2.37
100,-2.44
101,-2.51
102,-2.59
104,-2.67
105,-2.75
106,-2.84
107,-2.92
108,-3.01
109,-3.11
110,-3.20
111,-3.28
112,-3.39
113,-3.49
114,-3.58
115,-3.69
117,-3.80
118,-3.92
119,-4.05
120,-4.16
121,-4.29
123,-4.43
124,-4.56
125,-4.71
126,-4.86
128,-5.03
129,-5.20
130,-5.37
131,-5.55
133,-5.72
134,-5.90
135,-6.08
137,-6.27
138,-6.46
140,-6.66
141,-6.85
142,-7.05
144,-7.25
145,-7.45
147,-7.62
148,-7.81
150,-7.99
151,-8.16
153,-8.34
154,-8.51
156,-8.69
157,-8.83
159,-8.96
160,-9.08
162,-9.18
164,-9.29
165,-9.39
167,-9.49
169,-9.59
170,-9.67
172,-9.73
174,-9.79
175,-9.84
177,-9.89
179,-9.92
181,-9.96
183,-9.99
184,-9.99
186,-10.00
188,-9.99
190,-9.99
192,-9.97
194,-9.93
196,-9.90
198,-9.86
200,-9.83
202,-9.78
204,-9.72
206,-9.64
208,-9.54
210,-9.43
212,-9.30
214,-9.16
216,-9.00
218,-8.83
221,-8.65
223,-8.45
225,-8.22
227,-7.99
229,-7.76
232,-7.54
234,-7.30
236,-7.07
239,-6.84
241,-6.62
244,-6.40
246,-6.17
248,-5.94
251,-5.71
253,-5.48
256,-5.25
259,-5.02
261,-4.80
264,-4.58
266,-4.36
269,-4.16
272,-3.96
274,-3.76
277,-3.59
280,-3.42
283,-3.26
286,-3.12
288,-2.98
291,-2.84
294,-2.71
297,-2.59
300,-2.48
303,-2.37
306,-2.27
309,-2.16
312,-2.07
316,-1.98
319,-1.90
322,-1.82
325,-1.75
328,-1.70
332,-1.65
335,-1.61
338,-1.58
342,-1.56
345,-1.54
349,-1.53
352,-1.51
356,-1.49
359,-1.50
363,-1.52
366,-1.55
370,-1.57
374,-1.60
377,-1.63
381,-1.67
385,-1.70
389,-1.73
393,-1.77
397,-1.80
401,-1.83
405,-1.85
409,-1.87
413,-1.88
417,-1.89
421,-1.89
425,-1.88
430,-1.87
434,-1.87
438,-1.87
443,-1.88
447,-1.89
451,-1.89
456,-1.87
460,-1.86
465,-1.83
470,-1.81
474,-1.78
479,-1.74
484,-1.71
489,-1.68
494,-1.64
499,-1.61
504,-1.58
509,-1.56
514,-1.54
519,-1.52
524,-1.52
529,-1.53
535,-1.55
540,-1.56
545,-1.56
551,-1.55
556,-1.53
562,-1.50
568,-1.47
573,-1.44
579,-1.41
585,-1.38
591,-1.34
596,-1.31
602,-1.29
608,-1.27
615,-1.25
621,-1.23
627,-1.20
633,-1.18
639,-1.16
646,-1.14
652,-1.12
659,-1.09
665,-1.05
672,-1.02
679,-0.99
686,-0.97
692,-0.95
699,-0.93
706,-0.90
713,-0.88
721,-0.86
728,-0.84
735,-0.82
742,-0.79
750,-0.76
757,-0.73
765,-0.70
773,-0.68
780,-0.65
788,-0.62
796,-0.59
804,-0.56
812,-0.53
820,-0.50
828,-0.47
837,-0.45
845,-0.42
853,-0.39
862,-0.35
871,-0.32
879,-0.30
888,-0.28
897,-0.27
906,-0.25
915,-0.24
924,-0.23
933,-0.21
943,-0.20
952,-0.18
962,-0.15
971,-0.11
981,-0.08
991,-0.04
1001,0.00
1011,0.04
1021,0.07
1031,0.08
1041,0.09
1052,0.08
1062,0.05
1073,0.02
1084,-0.01
1094,-0.04
1105,-0.08
1116,-0.11
1128,-0.16
1139,-0.20
1150,-0.25
1162,-0.29
1173,-0.32
1185,-0.37
1197,-0.41
1209,-0.45
1221,-0.49
1233,-0.53
1246,-0.58
1258,-0.64
1271,-0.70
1283,-0.76
1296,-0.82
1309,-0.86
1322,-0.91
1335,-0.96
1349,-1.03
1362,-1.09
1376,-1.15
1390,-1.21
1404,-1.26
1418,-1.31
1432,-1.36
1446,-1.43
1461,-1.51
1475,-1.57
1490,-1.63
1505,-1.70
1520,-1.78
1535,-1.86
1550,-1.94
1566,-2.02
1582,-2.09
1597,-2.17
1613,-2.27
1629,-2.36
1646,-2.45
1662,-2.54
1679,-2.63
1696,-2.72
1713,-2.82
1730,-2.91
1747,-3.00
1764,-3.11
1782,-3.22
1800,-3.32
1818,-3.42
1836,-3.53
1854,-3.64
1873,-3.75
1892,-3.85
1911,-3.96
1930,-4.08
1949,-4.19
1969,-4.30
1988,-4.40
2008,-4.52
2028,-4.64
2048,-4.75
2069,-4.88
2090,-5.01
2111,-5.13
2132,-5.26
2153,-5.39
2175,-5.52
2196,-5.65
2218,-5.79
2240,-5.91
2263,-6.04
2285,-6.17
2308,-6.28
2331,-6.40
2355,-6.50
2378,-6.58
2402,-6.67
2426,-6.77
2450,-6.86
2475,-6.95
2500,-7.03
2525,-7.10
2550,-7.16
2575,-7.21
2601,-7.26
2627,-7.30
2653,-7.33
2680,-7.36
2707,-7.38
2734,-7.39
2761,-7.42
2789,-7.43
2817,-7.42
2845,-7.40
2873,-7.37
2902,-7.35
2931,-7.33
2960,-7.31
2990,-7.28
3020,-7.24
3050,-7.20
3080,-7.15
3111,-7.10
3142,-7.04
3174,-6.98
3206,-6.92
3238,-6.85
3270,-6.79
3303,-6.73
3336,-6.66
3369,-6.59
3403,-6.49
3437,-6.39
3471,-6.30
3506,-6.19
3541,-6.09
3576,-5.99
3612,-5.88
3648,-5.75
3685,-5.63
3721,-5.51
3759,-5.40
3796,-5.29
3834,-5.19
3873,-5.09
3911,-4.99
3950,-4.89
3990,-4.81
4030,-4.74
4070,-4.67
4111,-4.62
4152,-4.57
4193,-4.53
4235,-4.50
4278,-4.46
4321,-4.44
4364,-4.44
4407,-4.44
4451,-4.46
4496,-4.49
4541,-4.54
4586,-4.59
4632,-4.63
4679,-4.65
4725,-4.66
4773,-4.65
4820,-4.61
4868,-4.55
4917,-4.46
4966,-4.34
5016,-4.20
5066,-4.04
5117,-3.86
5168,-3.66
5220,-3.45
5272,-3.25
5325,-3.04
5378,-2.83
5432,-2.62
5486,-2.42
5541,-2.22
5596,-2.01
5652,-1.81
5709,-1.62
5766,-1.43
5823,-1.25
5882,-1.08
5940,-0.93
6000,-0.80
6060,-0.70
6120,-0.63
6182,-0.59
6244,-0.56
6306,-0.56
6369,-0.58
6433,-0.60
6497,-0.63
6562,-0.67
6628,-0.74
6694,-0.83
6761,-0.93
6828,-1.06
6897,-1.20
6966,-1.35
7035,-1.53
7106,-1.73
7177,-1.94
7249,-2.17
7321,-2.41
7394,-2.68
7468,-2.96
7543,-3.25
7618,-3.54
7694,-3.84
7771,-4.16
7849,-4.46
7928,-4.79
8007,-5.15
8087,-5.54
8168,-5.95
8250,-6.38
8332,-6.84
8415,-7.33
8499,-7.86
8584,-8.43
8670,-9.03
8757,-9.65
8845,-10.28
8933,-10.92
9022,-11.56
9113,-12.18
9204,-12.78
9296,-13.33
9389,-13.83
9483,-14.27
9577,-14.61
9673,-14.87
9770,-15.04
9868,-15.10
9966,-15.07
10066,-14.95
10167,-14.75
10268,-14.48
10371,-14.15
10475,-13.77
10579,-13.34
10685,-12.89
10792,-12.42
10900,-11.96
11009,-11.50
11119,-11.08
11230,-10.67
11343,-10.29
11456,-9.94
11571,-9.61
11686,-9.32
11803,-9.08
11921,-8.87
12040,-8.70
12161,-8.57
12282,-8.49
12405,-8.45
12529,-8.45
12655,-8.48
12781,-8.55
12909,-8.65
13038,-8.78
13168,-8.94
13300,-9.14
13433,-9.36
13567,-9.60
13703,-9.85
13840,-10.13
13978,-10.41
14118,-10.73
14259,-11.07
14402,-11.41
14546,-11.74
14692,-12.06
14838,-12.36
14987,-12.64
15137,-12.89
15288,-13.10
15441,-13.28
15595,-13.41
15751,-13.51
15909,-13.56
16068,-13.58
16229,-13.57
16391,-13.56
16555,-13.56
16720,-13.58
16888,-13.62
17056,-13.69
17227,-13.79
17399,-13.91
17573,-14.02
17749,-14.13
17926,-14.21
18106,-14.26
18287,-14.24
18470,-14.19
18654,-14.11
18841,-14.01
19029,-13.88
19220,-13.73
19412,-13.55
19606,-13.34
19802,-13.11
20000,-12.85
