frequency,raw
20.00,4.43
20.20,4.45
20.40,4.48
20.61,4.50
20.81,4.53
21.02,4.55
21.23,4.57
21.44,4.59
21.66,4.62
21.87,4.64
22.09,4.66
22.31,4.68
22.54,4.70
22.76,4.72
22.99,4.74
23.22,4.76
23.45,4.78
23.69,4.80
23.92,4.82
24.16,4.84
24.40,4.85
24.65,4.86
24.89,4.87
25.14,4.89
25.39,4.91
25.65,4.93
25.91,4.95
26.16,4.97
26.43,4.99
26.69,5.00
26.96,5.02
27.23,5.03
27.50,5.05
27.77,5.06
28.05,5.07
28.33,5.08
28.62,5.08
28.90,5.09
29.19,5.09
29.48,5.09
29.78,5.09
30.08,5.09
30.38,5.09
30.68,5.09
30.99,5.09
31.30,5.09
31.61,5.09
31.93,5.09
32.24,5.09
32.57,5.09
32.89,5.09
33.22,5.09
33.55,5.10
33.89,5.11
34.23,5.11
34.57,5.11
34.92,5.11
35.27,5.10
35.62,5.10
35.97,5.09
36.33,5.10
36.70,5.10
37.06,5.11
37.43,5.13
37.81,5.15
38.19,5.16
38.57,5.16
38.95,5.16
39.34,5.17
39.74,5.17
40.14,5.18
40.54,5.18
40.94,5.18
41.35,5.18
41.76,5.18
42.18,5.18
42.60,5.18
43.03,5.18
43.46,5.18
43.90,5.18
44.33,5.18
44.78,5.18
45.23,5.18
45.68,5.18
46.13,5.18
46.60,5.17
47.06,5.16
47.53,5.16
48.01,5.16
48.49,5.14
48.97,5.11
49.46,5.09
49.96,5.07
50.46,5.07
50.96,5.07
51.47,5.05
51.99,5.02
52.51,5.02
53.03,5.02
53.56,5.01
54.10,5.00
54.64,4.99
55.18,4.99
55.74,4.98
56.29,4.97
56.86,4.96
57.42,4.95
58.00,4.93
58.58,4.90
59.16,4.88
59.76,4.88
60.35,4.86
60.96,4.83
61.57,4.83
62.18,4.83
62.80,4.83
63.43,4.83
64.07,4.83
64.71,4.83
65.35,4.83
66.01,4.83
66.67,4.82
67.33,4.81
68.01,4.81
68.69,4.80
69.37,4.77
70.07,4.74
70.77,4.74
71.48,4.72
72.19,4.69
72.91,4.67
73.64,4.66
74.38,4.63
75.12,4.60
75.87,4.60
76.63,4.57
77.40,4.55
78.17,4.55
78.95,4.55
79.74,4.52
80.54,4.51
81.35,4.49
82.16,4.45
82.98,4.42
83.81,4.39
84.65,4.37
85.50,4.34
86.35,4.31
87.22,4.28
88.09,4.27
88.97,4.27
89.86,4.24
90.76,4.21
91.66,4.19
92.58,4.16
93.51,4.14
94.44,4.11
95.39,4.09
96.34,4.07
97.30,4.04
98.28,4.03
99.26,3.99
100.25,3.97
101.25,3.94
102.27,3.89
103.29,3.86
104.32,3.83
105.37,3.80
106.42,3.77
107.48,3.73
108.56,3.71
109.64,3.68
110.74,3.67
111.85,3.63
112.97,3.62
114.10,3.57
115.24,3.57
116.39,3.54
117.55,3.53
118.73,3.51
119.92,3.47
121.12,3.43
122.33,3.38
123.55,3.35
124.79,3.32
126.03,3.29
127.29,3.26
128.57,3.24
129.85,3.21
131.15,3.20
132.46,3.16
133.79,3.12
135.12,3.11
136.48,3.07
137.84,3.04
139.22,3.00
140.61,2.97
142.02,2.95
143.44,2.93
144.87,2.89
146.32,2.86
147.78,2.83
149.26,2.80
150.75,2.78
152.26,2.75
153.78,2.70
155.32,2.68
156.88,2.64
158.44,2.60
160.03,2.58
161.63,2.54
163.24,2.51
164.88,2.45
166.53,2.44
168.19,2.41
169.87,2.36
171.57,2.33
173.29,2.29
175.02,2.27
176.77,2.23
178.54,2.18
180.32,2.14
182.13,2.11
183.95,2.07
185.79,2.03
187.65,2.01
189.52,1.95
191.42,1.93
193.33,1.89
195.27,1.85
197.22,1.82
199.19,1.77
201.18,1.73
203.19,1.69
205.23,1.65
207.28,1.62
209.35,1.58
211.44,1.55
213.56,1.51
215.69,1.47
217.85,1.44
220.03,1.41
222.23,1.37
224.45,1.33
226.70,1.28
228.96,1.24
231.25,1.21
233.57,1.16
235.90,1.12
238.26,1.09
240.64,1.06
243.05,1.02
245.48,0.98
247.93,0.95
250.41,0.91
252.92,0.88
255.45,0.85
258.00,0.80
260.58,0.76
263.19,0.71
265.82,0.66
268.48,0.63
271.16,0.59
273.87,0.54
276.61,0.53
279.38,0.48
282.17,0.44
284.99,0.41
287.84,0.36
290.72,0.33
293.63,0.29
296.57,0.25
299.53,0.21
302.53,0.18
305.55,0.13
308.61,0.09
311.69,0.06
314.81,0.03
317.96,-0.01
321.14,-0.03
324.35,-0.06
327.59,-0.10
330.87,-0.15
334.18,-0.16
337.52,-0.19
340.90,-0.24
344.30,-0.25
347.75,-0.28
351.23,-0.31
354.74,-0.33
358.28,-0.37
361.87,-0.41
365.49,-0.44
369.14,-0.46
372.83,-0.50
376.56,-0.53
380.33,-0.57
384.13,-0.61
387.97,-0.64
391.85,-0.66
395.77,-0.70
399.73,-0.73
403.72,-0.75
407.76,-0.78
411.84,-0.80
415.96,-0.84
420.12,-0.86
424.32,-0.89
428.56,-0.90
432.85,-0.94
437.18,-0.95
441.55,-0.98
445.96,-1.00
450.42,-1.00
454.93,-1.03
459.48,-1.04
464.07,-1.08
468.71,-1.10
473.40,-1.14
478.13,-1.16
482.91,-1.18
487.74,-1.22
492.62,-1.24
497.55,-1.27
502.52,-1.28
507.55,-1.31
512.62,-1.32
517.75,-1.32
522.93,-1.32
528.16,-1.36
533.44,-1.37
538.77,-1.38
544.16,-1.41
549.60,-1.42
555.10,-1.42
560.65,-1.42
566.25,-1.42
571.92,-1.42
577.64,-1.42
583.41,-1.42
589.25,-1.45
595.14,-1.46
601.09,-1.46
607.10,-1.46
613.17,-1.46
619.30,-1.46
625.50,-1.46
631.75,-1.46
638.07,-1.46
644.45,-1.46
650.89,-1.46
657.40,-1.46
663.98,-1.46
670.62,-1.46
677.32,-1.46
684.10,-1.46
690.94,-1.46
697.85,-1.44
704.83,-1.42
711.87,-1.42
718.99,-1.42
726.18,-1.42
733.44,-1.42
740.78,-1.42
748.19,-1.40
755.67,-1.38
763.23,-1.37
770.86,-1.35
778.57,-1.32
786.35,-1.32
794.22,-1.30
802.16,-1.28
810.18,-1.24
818.28,-1.21
826.46,-1.18
834.73,-1.15
843.08,-1.12
851.51,-1.09
860.02,-1.05
868.62,-1.00
877.31,-0.97
886.08,-0.91
894.94,-0.87
903.89,-0.81
912.93,-0.75
922.06,-0.69
931.28,-0.62
940.59,-0.55
950.00,-0.45
959.50,-0.37
969.09,-0.29
978.78,-0.21
988.57,-0.11
998.46,-0.02
1008.44,0.09
1018.53,0.20
1028.71,0.33
1039.00,0.46
1049.39,0.60
1059.88,0.74
1070.48,0.89
1081.19,1.05
1092.00,1.19
1102.92,1.35
1113.95,1.50
1125.09,1.66
1136.34,1.82
1147.70,1.99
1159.18,2.18
1170.77,2.36
1182.48,2.53
1194.30,2.72
1206.25,2.90
1218.31,3.07
1230.49,3.24
1242.80,3.40
1255.22,3.56
1267.78,3.73
1280.45,3.90
1293.26,4.07
1306.19,4.24
1319.25,4.41
1332.45,4.58
1345.77,4.73
1359.23,4.89
1372.82,5.04
1386.55,5.20
1400.41,5.34
1414.42,5.49
1428.56,5.63
1442.85,5.78
1457.28,5.93
1471.85,6.09
1486.57,6.25
1501.43,6.41
1516.45,6.56
1531.61,6.69
1546.93,6.84
1562.40,6.98
1578.02,7.11
1593.80,7.26
1609.74,7.40
1625.84,7.53
1642.10,7.68
1658.52,7.81
1675.10,7.95
1691.85,8.06
1708.77,8.19
1725.86,8.29
1743.12,8.39
1760.55,8.47
1778.15,8.54
1795.94,8.61
1813.90,8.67
1832.03,8.72
1850.36,8.75
1868.86,8.79
1887.55,8.80
1906.42,8.80
1925.49,8.76
1944.74,8.71
1964.19,8.65
1983.83,8.59
2003.67,8.51
2023.71,8.42
2043.94,8.30
2064.38,8.19
2085.03,8.05
2105.88,7.90
2126.94,7.75
2148.20,7.59
2169.69,7.41
2191.38,7.22
2213.30,7.01
2235.43,6.84
2257.78,6.63
2280.36,6.41
2303.17,6.19
2326.20,5.97
2349.46,5.74
2372.95,5.52
2396.68,5.30
2420.65,5.08
2444.86,4.86
2469.31,4.61
2494.00,4.38
2518.94,4.18
2544.13,3.97
2569.57,3.75
2595.27,3.57
2621.22,3.37
2647.43,3.18
2673.90,2.98
2700.64,2.79
2727.65,2.60
2754.93,2.41
2782.48,2.23
2810.30,2.04
2838.40,1.87
2866.79,1.71
2895.46,1.54
2924.41,1.37
2953.65,1.20
2983.19,1.03
3013.02,0.87
3043.15,0.71
3073.58,0.55
3104.32,0.41
3135.36,0.26
3166.72,0.11
3198.38,-0.00
3230.37,-0.13
3262.67,-0.27
3295.30,-0.38
3328.25,-0.51
3361.53,-0.64
3395.15,-0.77
3429.10,-0.88
3463.39,-1.00
3498.03,-1.11
3533.01,-1.20
3568.34,-1.30
3604.02,-1.38
3640.06,-1.46
3676.46,-1.52
3713.22,-1.59
3750.36,-1.66
3787.86,-1.71
3825.74,-1.76
3864.00,-1.82
3902.64,-1.85
3941.66,-1.90
3981.08,-1.94
4020.89,-1.97
4061.10,-2.00
4101.71,-2.05
4142.73,-2.07
4184.15,-2.11
4226.00,-2.12
4268.26,-2.15
4310.94,-2.16
4354.05,-2.16
4397.59,-2.16
4441.56,-2.16
4485.98,-2.16
4530.84,-2.14
4576.15,-2.12
4621.91,-2.10
4668.13,-2.06
4714.81,-2.03
4761.96,-1.97
4809.58,-1.94
4857.67,-1.89
4906.25,-1.83
4955.31,-1.76
5004.87,-1.69
5054.91,-1.61
5105.46,-1.53
5156.52,-1.44
5208.08,-1.36
5260.16,-1.25
5312.77,-1.16
5365.89,-1.05
5419.55,-0.93
5473.75,-0.79
5528.49,-0.67
5583.77,-0.52
5639.61,-0.37
5696.00,-0.22
5752.96,-0.06
5810.49,0.10
5868.60,0.26
5927.28,0.46
5986.56,0.63
6046.42,0.81
6106.89,1.00
6167.96,1.19
6229.64,1.37
6291.93,1.56
6354.85,1.77
6418.40,1.97
6482.58,2.18
6547.41,2.43
6612.88,2.66
6679.01,2.90
6745.80,3.14
6813.26,3.38
6881.39,3.64
6950.21,3.90
7019.71,4.17
7089.91,4.45
7160.81,4.76
7232.41,5.08
7304.74,5.42
7377.79,5.78
7451.56,6.16
7526.08,6.56
7601.34,7.01
7677.35,7.49
7754.13,7.97
7831.67,8.46
7909.98,8.97
7989.08,9.48
8068.98,9.96
8149.67,10.43
8231.16,10.86
8313.47,11.20
8396.61,11.46
8480.57,11.61
8565.38,11.58
8651.03,11.38
8737.54,11.08
8824.92,10.65
8913.17,10.11
9002.30,9.54
9092.32,8.90
9183.25,8.26
9275.08,7.61
9367.83,7.00
9461.51,6.37
9556.12,5.78
9651.68,5.18
9748.20,4.58
9845.68,3.99
9944.14,3.32
10043.58,2.55
10144.02,1.77
10245.46,0.90
10347.91,-0.05
10451.39,-1.03
10555.91,-2.04
10661.46,-3.10
10768.08,-4.16
10875.76,-5.25
10984.52,-6.34
11094.36,-7.43
11205.31,-8.47
11317.36,-9.45
11430.53,-10.37
11544.84,-11.23
11660.29,-12.01
11776.89,-12.71
11894.66,-13.31
12013.60,-13.85
12133.74,-14.26
12255.08,-14.58
12377.63,-14.80
12501.41,-14.93
12626.42,-14.86
12752.68,-14.69
12880.21,-14.39
13009.01,-13.99
13139.10,-13.51
13270.49,-12.93
13403.20,-12.31
13537.23,-11.66
13672.60,-10.97
13809.33,-10.35
13947.42,-9.75
14086.90,-9.19
14227.77,-8.73
14370.04,-8.33
14513.74,-7.99
14658.88,-7.69
14805.47,-7.43
14953.52,-7.18
15103.06,-6.93
15254.09,-6.66
15406.63,-6.41
15560.70,-6.11
15716.30,-5.79
15873.47,-5.46
16032.20,-5.10
16192.52,-4.73
16354.45,-4.35
16517.99,-3.93
16683.17,-3.51
16850.01,-3.08
17018.51,-2.66
17188.69,-2.24
17360.58,-1.89
17534.18,-1.63
17709.53,-1.44
17886.62,-1.38
18065.49,-1.49
18246.14,-1.71
18428.60,-2.00
18612.89,-2.30
18799.02,-2.59
18987.01,-2.84
19176.88,-3.06
19368.65,-3.19
19562.33,-3.26
19757.96,-3.28
19955.54,-3.28
