frequency,raw,error,smoothed,error_smoothed,equalization,parametric_eq,fixed_band_eq,equalized_raw,equalized_smoothed,target
20.00,-13.48,-18.89,-13.48,-18.89,6.00,5.16,2.76,-7.48,-7.48,5.41
20.20,-13.38,-18.78,-13.38,-18.78,6.00,5.20,2.83,-7.38,-7.38,5.40
20.40,-13.27,-18.66,-13.27,-18.66,6.00,5.24,2.91,-7.27,-7.27,5.39
20.61,-13.17,-18.55,-13.17,-18.54,6.00,5.28,2.99,-7.17,-7.17,5.38
20.81,-13.06,-18.42,-13.06,-18.43,6.00,5.31,3.08,-7.06,-7.06,5.36
21.02,-12.96,-18.31,-12.96,-18.31,6.00,5.35,3.17,-6.96,-6.96,5.35
21.23,-12.85,-18.19,-12.85,-18.19,6.00,5.38,3.25,-6.85,-6.85,5.34
21.44,-12.75,-18.10,-12.74,-18.08,6.00,5.42,3.35,-6.75,-6.74,5.35
21.66,-12.64,-17.97,-12.64,-17.96,6.00,5.46,3.44,-6.64,-6.64,5.33
21.87,-12.53,-17.85,-12.53,-17.85,6.00,5.49,3.54,-6.53,-6.53,5.33
22.09,-12.42,-17.72,-12.42,-17.73,6.00,5.53,3.64,-6.42,-6.42,5.31
22.31,-12.32,-17.62,-12.32,-17.62,6.00,5.56,3.74,-6.32,-6.32,5.31
22.54,-12.21,-17.51,-12.21,-17.51,6.00,5.59,3.84,-6.21,-6.21,5.29
22.76,-12.10,-17.39,-12.10,-17.39,6.00,5.63,3.95,-6.10,-6.10,5.29
22.99,-11.99,-17.27,-11.99,-17.28,6.00,5.66,4.06,-5.99,-5.99,5.28
23.22,-11.89,-17.16,-11.89,-17.17,6.00,5.69,4.17,-5.89,-5.89,5.27
23.45,-11.78,-17.06,-11.78,-17.05,6.00,5.73,4.28,-5.78,-5.78,5.28
23.69,-11.67,-16.94,-11.67,-16.94,6.00,5.76,4.40,-5.67,-5.67,5.27
23.92,-11.56,-16.82,-11.56,-16.83,6.00,5.79,4.52,-5.56,-5.56,5.26
24.16,-11.45,-16.72,-11.45,-16.72,6.00,5.82,4.64,-5.45,-5.45,5.27
24.40,-11.34,-16.61,-11.34,-16.60,6.00,5.85,4.76,-5.34,-5.34,5.27
24.65,-11.23,-16.50,-11.23,-16.49,6.00,5.88,4.89,-5.23,-5.23,5.27
24.89,-11.12,-16.39,-11.12,-16.38,6.00,5.91,5.02,-5.12,-5.12,5.27
25.14,-11.01,-16.27,-11.01,-16.27,6.00,5.94,5.14,-5.01,-5.01,5.26
25.39,-10.89,-16.14,-10.90,-16.16,6.00,5.97,5.27,-4.89,-4.90,5.26
25.65,-10.78,-16.04,-10.78,-16.04,6.00,5.99,5.40,-4.78,-4.78,5.26
25.91,-10.67,-15.93,-10.67,-15.93,6.00,6.02,5.53,-4.67,-4.67,5.26
26.16,-10.56,-15.82,-10.56,-15.82,6.00,6.05,5.66,-4.56,-4.56,5.26
26.43,-10.45,-15.72,-10.45,-15.71,6.00,6.07,5.79,-4.45,-4.45,5.26
26.69,-10.34,-15.60,-10.34,-15.60,6.00,6.10,5.92,-4.34,-4.34,5.26
26.96,-10.23,-15.49,-10.23,-15.49,6.00,6.12,6.04,-4.23,-4.23,5.26
27.23,-10.12,-15.38,-10.11,-15.38,6.00,6.15,6.17,-4.12,-4.11,5.26
27.50,-10.00,-15.26,-10.00,-15.27,6.00,6.17,6.29,-4.00,-4.00,5.26
27.77,-9.89,-15.16,-9.89,-15.16,6.00,6.19,6.41,-3.89,-3.89,5.27
28.05,-9.78,-15.05,-9.78,-15.05,6.00,6.21,6.52,-3.78,-3.78,5.27
28.33,-9.67,-14.94,-9.67,-14.94,6.00,6.24,6.63,-3.67,-3.67,5.28
28.62,-9.55,-14.83,-9.55,-14.83,6.00,6.26,6.73,-3.55,-3.55,5.27
28.90,-9.44,-14.72,-9.44,-14.72,6.00,6.28,6.83,-3.44,-3.44,5.28
29.19,-9.33,-14.61,-9.33,-14.61,6.00,6.29,6.91,-3.33,-3.33,5.28
29.48,-9.22,-14.50,-9.22,-14.50,6.00,6.31,7.00,-3.22,-3.22,5.28
29.78,-9.10,-14.38,-9.11,-14.38,6.00,6.33,7.07,-3.10,-3.11,5.28
30.08,-8.99,-14.27,-9.00,-14.27,6.00,6.35,7.13,-2.99,-3.00,5.28
30.38,-8.89,-14.16,-8.89,-14.16,6.00,6.36,7.19,-2.89,-2.89,5.27
30.68,-8.78,-14.04,-8.78,-14.05,6.00,6.38,7.23,-2.78,-2.78,5.26
30.99,-8.67,-13.93,-8.67,-13.93,6.00,6.39,7.27,-2.67,-2.67,5.26
31.30,-8.57,-13.83,-8.56,-13.82,6.00,6.41,7.29,-2.57,-2.56,5.26
31.61,-8.46,-13.72,-8.45,-13.71,6.00,6.42,7.30,-2.46,-2.45,5.26
31.93,-8.35,-13.59,-8.35,-13.59,6.00,6.43,7.31,-2.35,-2.35,5.24
32.24,-8.24,-13.48,-8.24,-13.48,6.00,6.44,7.30,-2.24,-2.24,5.24
32.57,-8.13,-13.36,-8.13,-13.37,6.00,6.45,7.29,-2.13,-2.13,5.23
32.89,-8.02,-13.25,-8.03,-13.26,6.00,6.46,7.27,-2.02,-2.03,5.23
33.22,-7.92,-13.15,-7.92,-13.14,6.00,6.47,7.24,-1.92,-1.92,5.23
33.55,-7.81,-13.03,-7.81,-13.03,6.00,6.48,7.20,-1.81,-1.81,5.22
33.89,-7.70,-12.91,-7.70,-12.92,6.00,6.48,7.15,-1.70,-1.70,5.21
34.23,-7.60,-12.80,-7.60,-12.81,6.00,6.49,7.10,-1.60,-1.60,5.20
34.57,-7.49,-12.69,-7.49,-12.69,6.00,6.49,7.04,-1.49,-1.49,5.20
34.92,-7.39,-12.57,-7.38,-12.57,6.00,6.50,6.98,-1.39,-1.38,5.18
35.27,-7.28,-12.48,-7.28,-12.46,6.00,6.50,6.91,-1.28,-1.28,5.20
35.62,-7.17,-12.35,-7.17,-12.34,6.00,6.50,6.84,-1.17,-1.17,5.18
35.97,-7.06,-12.23,-7.06,-12.23,6.00,6.50,6.77,-1.06,-1.06,5.17
36.33,-6.96,-12.12,-6.96,-12.11,6.00,6.50,6.70,-0.96,-0.96,5.16
36.70,-6.85,-11.99,-6.85,-11.99,6.00,6.50,6.62,-0.85,-0.85,5.14
37.06,-6.75,-11.87,-6.75,-11.87,6.00,6.50,6.55,-0.75,-0.75,5.12
37.43,-6.64,-11.75,-6.64,-11.75,6.00,6.49,6.47,-0.64,-0.64,5.11
37.81,-6.53,-11.63,-6.54,-11.63,6.00,6.49,6.40,-0.53,-0.54,5.10
38.19,-6.43,-11.50,-6.43,-11.51,6.00,6.48,6.32,-0.43,-0.43,5.07
38.57,-6.33,-11.39,-6.33,-11.39,6.00,6.48,6.25,-0.33,-0.33,5.06
38.95,-6.23,-11.27,-6.23,-11.27,6.00,6.47,6.18,-0.23,-0.23,5.04
39.34,-6.13,-11.15,-6.13,-11.15,6.00,6.46,6.12,-0.13,-0.13,5.02
39.74,-6.03,-11.02,-6.03,-11.03,6.00,6.45,6.05,-0.03,-0.03,4.99
40.14,-5.94,-10.92,-5.93,-10.91,6.00,6.44,5.99,0.06,0.07,4.98
40.54,-5.84,-10.80,-5.84,-10.80,6.00,6.43,5.93,0.16,0.16,4.96
40.94,-5.74,-10.68,-5.74,-10.68,6.00,6.41,5.88,0.26,0.26,4.94
41.35,-5.65,-10.57,-5.65,-10.57,6.00,6.40,5.83,0.35,0.35,4.92
41.76,-5.56,-10.45,-5.56,-10.46,6.00,6.38,5.78,0.44,0.44,4.90
42.18,-5.47,-10.36,-5.47,-10.35,6.00,6.37,5.73,0.53,0.53,4.89
42.60,-5.38,-10.24,-5.38,-10.25,6.00,6.35,5.70,0.62,0.62,4.86
43.03,-5.29,-10.14,-5.30,-10.14,6.00,6.33,5.66,0.71,0.70,4.85
43.46,-5.21,-10.03,-5.22,-10.04,6.00,6.31,5.63,0.79,0.78,4.82
43.90,-5.13,-9.93,-5.14,-9.94,6.00,6.29,5.60,0.87,0.86,4.80
44.33,-5.05,-9.82,-5.06,-9.84,6.00,6.26,5.58,0.95,0.94,4.78
44.78,-4.98,-9.74,-4.98,-9.74,6.00,6.24,5.56,1.02,1.02,4.76
45.23,-4.91,-9.65,-4.91,-9.64,6.00,6.22,5.55,1.09,1.09,4.74
45.68,-4.84,-9.54,-4.84,-9.54,6.00,6.19,5.54,1.16,1.16,4.70
46.13,-4.77,-9.44,-4.77,-9.44,6.00,6.16,5.53,1.23,1.23,4.67
46.60,-4.69,-9.34,-4.70,-9.34,6.00,6.13,5.53,1.31,1.30,4.64
47.06,-4.62,-9.24,-4.63,-9.24,6.00,6.10,5.53,1.38,1.37,4.62
47.53,-4.56,-9.15,-4.56,-9.14,6.00,6.07,5.53,1.44,1.44,4.59
48.01,-4.49,-9.03,-4.49,-9.03,6.00,6.04,5.54,1.51,1.51,4.54
48.49,-4.43,-8.94,-4.43,-8.93,6.00,6.01,5.56,1.57,1.57,4.51
48.97,-4.36,-8.82,-4.36,-8.83,6.00,5.97,5.57,1.64,1.64,4.47
49.46,-4.29,-8.72,-4.29,-8.72,6.00,5.94,5.59,1.71,1.71,4.43
49.96,-4.23,-8.61,-4.22,-8.62,6.00,5.90,5.61,1.77,1.78,4.38
50.46,-4.15,-8.51,-4.15,-8.51,6.00,5.86,5.64,1.85,1.85,4.36
50.96,-4.08,-8.41,-4.07,-8.40,6.00,5.82,5.66,1.92,1.93,4.33
51.47,-4.00,-8.30,-4.00,-8.29,6.00,5.78,5.69,2.00,2.00,4.30
51.99,-3.92,-8.17,-3.92,-8.18,6.00,5.74,5.72,2.08,2.08,4.25
52.51,-3.84,-8.07,-3.84,-8.07,6.00,5.70,5.75,2.16,2.16,4.23
53.03,-3.77,-7.98,-3.76,-7.95,6.00,5.65,5.78,2.23,2.24,4.21
53.56,-3.68,-7.85,-3.68,-7.84,6.00,5.61,5.81,2.32,2.32,4.17
54.10,-3.59,-7.72,-3.59,-7.72,6.00,5.56,5.84,2.41,2.41,4.13
54.64,-3.51,-7.61,-3.51,-7.61,6.00,5.51,5.87,2.49,2.49,4.10
55.18,-3.42,-7.48,-3.42,-7.49,6.00,5.47,5.89,2.58,2.58,4.06
55.74,-3.32,-7.35,-3.33,-7.37,6.00,5.41,5.92,2.68,2.67,4.03
56.29,-3.23,-7.24,-3.24,-7.25,6.00,5.36,5.94,2.77,2.76,4.01
56.86,-3.14,-7.12,-3.14,-7.13,6.00,5.31,5.96,2.86,2.86,3.98
57.42,-3.05,-6.99,-3.05,-7.00,6.00,5.26,5.97,2.95,2.95,3.94
58.00,-2.96,-6.88,-2.95,-6.87,6.00,5.20,5.98,3.04,3.05,3.92
58.58,-2.86,-6.76,-2.85,-6.74,6.00,5.14,5.98,3.14,3.15,3.90
59.16,-2.76,-6.63,-2.76,-6.61,6.00,5.09,5.98,3.24,3.24,3.88
59.76,-2.66,-6.51,-2.66,-6.48,6.00,5.03,5.96,3.34,3.34,3.84
60.35,-2.56,-6.36,-2.56,-6.34,5.98,4.97,5.95,3.42,3.42,3.80
60.96,-2.46,-6.22,-2.46,-6.21,5.95,4.91,5.92,3.49,3.49,3.76
61.57,-2.35,-6.06,-2.36,-6.07,5.89,4.84,5.89,3.54,3.53,3.71
62.18,-2.25,-5.91,-2.26,-5.93,5.81,4.78,5.85,3.56,3.55,3.66
62.80,-2.16,-5.78,-2.16,-5.79,5.72,4.72,5.80,3.56,3.56,3.62
63.43,-2.06,-5.63,-2.06,-5.65,5.62,4.65,5.74,3.56,3.56,3.57
64.07,-1.96,-5.50,-1.96,-5.51,5.50,4.58,5.67,3.54,3.54,3.54
64.71,-1.86,-5.36,-1.86,-5.37,5.37,4.51,5.60,3.51,3.51,3.50
65.35,-1.77,-5.23,-1.76,-5.23,5.23,4.45,5.52,3.46,3.47,3.47
66.01,-1.67,-5.10,-1.67,-5.09,5.09,4.37,5.43,3.42,3.43,3.43
66.67,-1.56,-4.96,-1.57,-4.96,4.96,4.30,5.33,3.40,3.39,3.40
67.33,-1.47,-4.82,-1.47,-4.82,4.82,4.23,5.22,3.35,3.35,3.35
68.01,-1.38,-4.70,-1.38,-4.69,4.69,4.16,5.11,3.31,3.31,3.32
68.69,-1.28,-4.56,-1.28,-4.56,4.56,4.08,5.00,3.28,3.27,3.28
69.37,-1.19,-4.43,-1.19,-4.42,4.42,4.01,4.88,3.23,3.23,3.24
70.07,-1.10,-4.30,-1.09,-4.29,4.29,3.93,4.75,3.19,3.20,3.20
70.77,-1.00,-4.16,-1.00,-4.16,4.16,3.85,4.62,3.16,3.16,3.16
71.48,-0.91,-4.03,-0.91,-4.03,4.03,3.77,4.49,3.11,3.12,3.12
72.19,-0.82,-3.90,-0.82,-3.90,3.90,3.69,4.35,3.08,3.08,3.08
72.91,-0.73,-3.76,-0.73,-3.77,3.77,3.61,4.21,3.04,3.04,3.03
73.64,-0.64,-3.63,-0.64,-3.64,3.64,3.53,4.07,3.00,3.00,2.99
74.38,-0.54,-3.50,-0.55,-3.52,3.52,3.44,3.92,2.98,2.97,2.96
75.12,-0.46,-3.39,-0.47,-3.40,3.40,3.36,3.78,2.94,2.93,2.93
75.87,-0.38,-3.28,-0.38,-3.28,3.28,3.27,3.63,2.90,2.90,2.90
76.63,-0.30,-3.16,-0.30,-3.16,3.16,3.19,3.49,2.86,2.86,2.86
77.40,-0.22,-3.05,-0.22,-3.05,3.05,3.10,3.34,2.83,2.83,2.83
78.17,-0.14,-2.93,-0.14,-2.94,2.94,3.01,3.19,2.80,2.80,2.79
78.95,-0.05,-2.83,-0.06,-2.83,2.83,2.92,3.05,2.78,2.77,2.78
79.74,0.02,-2.72,0.02,-2.72,2.72,2.83,2.90,2.74,2.74,2.74
80.54,0.10,-2.62,0.10,-2.61,2.61,2.74,2.75,2.71,2.71,2.72
81.35,0.18,-2.50,0.18,-2.50,2.50,2.65,2.61,2.68,2.69,2.68
82.16,0.26,-2.41,0.26,-2.39,2.39,2.56,2.47,2.65,2.66,2.67
82.98,0.34,-2.29,0.34,-2.28,2.28,2.46,2.32,2.62,2.63,2.63
83.81,0.43,-2.17,0.43,-2.17,2.17,2.37,2.18,2.60,2.60,2.60
84.65,0.51,-2.05,0.51,-2.06,2.06,2.27,2.04,2.57,2.57,2.56
85.50,0.58,-1.95,0.59,-1.94,1.94,2.18,1.90,2.52,2.54,2.53
86.35,0.67,-1.83,0.68,-1.83,1.83,2.08,1.76,2.50,2.51,2.50
87.22,0.75,-1.72,0.76,-1.72,1.72,1.98,1.62,2.47,2.47,2.47
88.09,0.84,-1.60,0.84,-1.60,1.60,1.89,1.48,2.44,2.44,2.44
88.97,0.93,-1.48,0.92,-1.49,1.49,1.79,1.35,2.42,2.41,2.41
89.86,1.02,-1.36,1.01,-1.37,1.37,1.69,1.21,2.39,2.38,2.38
90.76,1.10,-1.24,1.09,-1.25,1.25,1.59,1.08,2.35,2.34,2.34
91.66,1.17,-1.13,1.17,-1.14,1.14,1.49,0.94,2.31,2.30,2.30
92.58,1.25,-1.02,1.25,-1.02,1.02,1.38,0.81,2.27,2.27,2.27
93.51,1.33,-0.91,1.33,-0.90,0.90,1.28,0.68,2.23,2.23,2.24
94.44,1.40,-0.80,1.41,-0.79,0.79,1.18,0.55,2.19,2.20,2.20
95.39,1.47,-0.69,1.48,-0.67,0.67,1.08,0.42,2.14,2.16,2.16
96.34,1.55,-0.57,1.56,-0.56,0.56,0.97,0.29,2.11,2.12,2.12
97.30,1.63,-0.46,1.63,-0.46,0.46,0.87,0.17,2.09,2.08,2.09
98.28,1.71,-0.33,1.70,-0.35,0.35,0.77,0.04,2.06,2.05,2.04
99.26,1.78,-0.22,1.76,-0.25,0.25,0.66,-0.08,2.03,2.01,2.00
100.25,1.85,-0.11,1.83,-0.15,0.15,0.56,-0.21,2.00,1.98,1.96
101.25,1.92,-0.02,1.90,-0.04,0.04,0.45,-0.33,1.97,1.94,1.94
102.27,1.98,0.07,1.96,0.06,-0.06,0.35,-0.45,1.92,1.91,1.91
103.29,2.02,0.15,2.03,0.15,-0.15,0.24,-0.57,1.87,1.88,1.87
104.32,2.07,0.23,2.10,0.25,-0.25,0.13,-0.69,1.82,1.84,1.84
105.37,2.14,0.32,2.17,0.36,-0.36,0.03,-0.80,1.78,1.81,1.82
106.42,2.21,0.42,2.24,0.45,-0.45,-0.08,-0.92,1.76,1.78,1.79
107.48,2.29,0.54,2.30,0.55,-0.55,-0.19,-1.03,1.74,1.75,1.75
108.56,2.37,0.65,2.37,0.65,-0.65,-0.29,-1.14,1.72,1.72,1.72
109.64,2.45,0.76,2.44,0.75,-0.75,-0.40,-1.25,1.70,1.69,1.70
110.74,2.51,0.85,2.51,0.86,-0.86,-0.50,-1.35,1.65,1.65,1.66
111.85,2.58,0.96,2.58,0.96,-0.96,-0.61,-1.45,1.62,1.62,1.62
112.97,2.66,1.07,2.65,1.06,-1.06,-0.72,-1.55,1.60,1.58,1.59
114.10,2.74,1.18,2.72,1.17,-1.17,-0.82,-1.65,1.57,1.55,1.56
115.24,2.81,1.30,2.79,1.27,-1.27,-0.93,-1.74,1.54,1.52,1.51
116.39,2.84,1.37,2.85,1.37,-1.37,-1.03,-1.83,1.47,1.48,1.47
117.55,2.89,1.45,2.92,1.47,-1.47,-1.14,-1.91,1.42,1.45,1.44
118.73,2.97,1.57,2.98,1.56,-1.56,-1.24,-1.99,1.41,1.42,1.40
119.92,3.04,1.66,3.04,1.65,-1.65,-1.35,-2.07,1.39,1.39,1.38
121.12,3.11,1.75,3.10,1.74,-1.74,-1.45,-2.14,1.37,1.35,1.36
122.33,3.16,1.84,3.15,1.83,-1.83,-1.55,-2.21,1.33,1.32,1.32
123.55,3.21,1.91,3.21,1.92,-1.92,-1.65,-2.27,1.29,1.29,1.30
124.79,3.28,2.01,3.27,2.01,-2.01,-1.76,-2.33,1.27,1.26,1.27
126.03,3.33,2.10,3.32,2.09,-2.09,-1.86,-2.39,1.24,1.23,1.23
127.29,3.36,2.16,3.37,2.18,-2.18,-1.96,-2.44,1.18,1.20,1.20
128.57,3.40,2.24,3.42,2.26,-2.26,-2.06,-2.48,1.14,1.16,1.16
129.85,3.46,2.33,3.47,2.34,-2.34,-2.15,-2.52,1.12,1.13,1.13
131.15,3.52,2.43,3.52,2.42,-2.42,-2.25,-2.56,1.10,1.10,1.09
132.46,3.56,2.49,3.56,2.49,-2.49,-2.35,-2.60,1.07,1.07,1.07
133.79,3.61,2.58,3.60,2.56,-2.56,-2.44,-2.63,1.05,1.03,1.03
135.12,3.66,2.66,3.64,2.64,-2.64,-2.54,-2.66,1.02,1.00,1.00
136.48,3.69,2.71,3.68,2.71,-2.71,-2.63,-2.68,0.98,0.97,0.98
137.84,3.73,2.79,3.72,2.78,-2.78,-2.72,-2.70,0.95,0.94,0.94
139.22,3.75,2.84,3.76,2.85,-2.85,-2.81,-2.72,0.90,0.91,0.91
140.61,3.78,2.90,3.80,2.91,-2.91,-2.90,-2.74,0.87,0.88,0.88
142.02,3.82,2.97,3.84,2.98,-2.98,-2.98,-2.76,0.84,0.86,0.85
143.44,3.86,3.03,3.87,3.04,-3.04,-3.07,-2.77,0.82,0.83,0.83
144.87,3.90,3.09,3.91,3.11,-3.11,-3.15,-2.79,0.79,0.81,0.81
146.32,3.94,3.16,3.95,3.17,-3.17,-3.23,-2.80,0.77,0.78,0.78
147.78,3.99,3.23,3.98,3.23,-3.23,-3.31,-2.81,0.76,0.76,0.76
149.26,4.03,3.30,4.02,3.29,-3.29,-3.39,-2.83,0.74,0.73,0.73
150.75,4.06,3.36,4.05,3.35,-3.35,-3.47,-2.84,0.71,0.71,0.70
152.26,4.08,3.39,4.09,3.40,-3.40,-3.54,-2.85,0.68,0.68,0.69
153.78,4.11,3.45,4.12,3.46,-3.46,-3.61,-2.87,0.65,0.66,0.66
155.32,4.14,3.51,4.14,3.51,-3.51,-3.68,-2.88,0.63,0.63,0.63
156.88,4.18,3.57,4.17,3.56,-3.56,-3.75,-2.90,0.62,0.61,0.61
158.44,4.19,3.61,4.19,3.61,-3.61,-3.81,-2.92,0.58,0.58,0.58
160.03,4.22,3.66,4.20,3.65,-3.65,-3.88,-2.94,0.57,0.55,0.56
161.63,4.23,3.71,4.21,3.69,-3.69,-3.94,-2.96,0.54,0.52,0.52
163.24,4.24,3.75,4.22,3.73,-3.73,-4.00,-2.99,0.51,0.49,0.49
164.88,4.24,3.78,4.23,3.77,-3.77,-4.05,-3.01,0.47,0.46,0.46
166.53,4.23,3.81,4.23,3.80,-3.80,-4.11,-3.04,0.43,0.43,0.42
168.19,4.22,3.81,4.23,3.83,-3.83,-4.16,-3.07,0.39,0.40,0.41
169.87,4.22,3.85,4.23,3.87,-3.87,-4.21,-3.11,0.35,0.37,0.37
171.57,4.22,3.89,4.23,3.90,-3.90,-4.25,-3.14,0.32,0.33,0.33
173.29,4.22,3.92,4.23,3.93,-3.93,-4.30,-3.18,0.29,0.30,0.30
175.02,4.22,3.95,4.23,3.96,-3.96,-4.34,-3.22,0.26,0.27,0.27
176.77,4.22,3.98,4.22,3.99,-3.99,-4.38,-3.26,0.23,0.23,0.24
178.54,4.22,4.02,4.22,4.02,-4.02,-4.41,-3.31,0.20,0.20,0.20
180.32,4.22,4.06,4.22,4.05,-4.05,-4.45,-3.36,0.17,0.17,0.16
182.13,4.22,4.08,4.22,4.09,-4.09,-4.48,-3.41,0.13,0.13,0.14
183.95,4.22,4.12,4.22,4.12,-4.12,-4.51,-3.46,0.10,0.10,0.10
185.79,4.22,4.16,4.22,4.15,-4.15,-4.53,-3.52,0.07,0.07,0.06
187.65,4.22,4.19,4.22,4.19,-4.19,-4.56,-3.58,0.03,0.03,0.03
189.52,4.22,4.22,4.22,4.22,-4.22,-4.58,-3.64,0.00,0.00,0.00
191.42,4.22,4.25,4.22,4.25,-4.25,-4.60,-3.70,-0.03,-0.03,-0.03
193.33,4.22,4.28,4.22,4.28,-4.28,-4.61,-3.77,-0.06,-0.06,-0.06
195.27,4.22,4.31,4.22,4.31,-4.31,-4.63,-3.84,-0.09,-0.09,-0.09
197.22,4.22,4.35,4.22,4.34,-4.34,-4.64,-3.91,-0.12,-0.12,-0.13
199.19,4.22,4.37,4.22,4.36,-4.36,-4.65,-3.98,-0.14,-0.14,-0.15
201.18,4.22,4.40,4.22,4.39,-4.39,-4.66,-4.05,-0.17,-0.17,-0.18
203.19,4.22,4.42,4.22,4.42,-4.42,-4.66,-4.13,-0.20,-0.20,-0.20
205.23,4.22,4.43,4.22,4.44,-4.44,-4.66,-4.20,-0.22,-0.22,-0.21
207.28,4.22,4.46,4.22,4.46,-4.46,-4.66,-4.28,-0.24,-0.24,-0.24
209.35,4.22,4.48,4.22,4.49,-4.49,-4.66,-4.35,-0.27,-0.27,-0.26
211.44,4.22,4.51,4.22,4.51,-4.51,-4.66,-4.43,-0.29,-0.29,-0.29
213.56,4.22,4.52,4.22,4.53,-4.53,-4.65,-4.50,-0.31,-0.31,-0.30
215.69,4.22,4.54,4.22,4.55,-4.55,-4.65,-4.58,-0.33,-0.33,-0.32
217.85,4.22,4.57,4.22,4.57,-4.57,-4.64,-4.65,-0.35,-0.35,-0.35
220.03,4.22,4.59,4.22,4.58,-4.58,-4.63,-4.72,-0.36,-0.36,-0.37
222.23,4.22,4.61,4.22,4.60,-4.60,-4.61,-4.79,-0.38,-0.38,-0.39
224.45,4.22,4.62,4.22,4.62,-4.62,-4.60,-4.85,-0.40,-0.40,-0.40
226.70,4.22,4.64,4.23,4.64,-4.64,-4.58,-4.91,-0.42,-0.41,-0.42
228.96,4.22,4.64,4.23,4.66,-4.66,-4.56,-4.97,-0.44,-0.43,-0.42
231.25,4.22,4.66,4.23,4.67,-4.67,-4.54,-5.02,-0.45,-0.44,-0.44
233.57,4.22,4.67,4.23,4.68,-4.68,-4.52,-5.07,-0.46,-0.45,-0.45
235.90,4.23,4.69,4.23,4.69,-4.69,-4.50,-5.11,-0.46,-0.46,-0.46
238.26,4.23,4.71,4.23,4.70,-4.70,-4.48,-5.14,-0.47,-0.47,-0.48
240.64,4.24,4.71,4.23,4.70,-4.70,-4.45,-5.17,-0.46,-0.47,-0.47
243.05,4.24,4.72,4.22,4.70,-4.70,-4.42,-5.19,-0.46,-0.48,-0.48
245.48,4.23,4.71,4.21,4.69,-4.69,-4.40,-5.20,-0.46,-0.48,-0.48
247.93,4.21,4.70,4.20,4.68,-4.68,-4.37,-5.20,-0.47,-0.48,-0.49
250.41,4.19,4.67,4.18,4.66,-4.66,-4.34,-5.20,-0.47,-0.48,-0.48
252.92,4.15,4.63,4.16,4.64,-4.64,-4.31,-5.19,-0.49,-0.48,-0.48
255.45,4.13,4.61,4.13,4.62,-4.62,-4.27,-5.17,-0.49,-0.48,-0.48
258.00,4.11,4.59,4.10,4.59,-4.59,-4.24,-5.14,-0.48,-0.48,-0.48
260.58,4.08,4.56,4.07,4.55,-4.55,-4.21,-5.11,-0.47,-0.48,-0.48
263.19,4.05,4.52,4.04,4.52,-4.52,-4.17,-5.07,-0.47,-0.48,-0.47
265.82,4.00,4.48,4.00,4.48,-4.48,-4.13,-5.02,-0.48,-0.48,-0.48
268.48,3.97,4.44,3.96,4.44,-4.44,-4.10,-4.97,-0.47,-0.48,-0.47
271.16,3.92,4.39,3.92,4.40,-4.40,-4.06,-4.91,-0.48,-0.48,-0.47
273.87,3.86,4.33,3.89,4.36,-4.36,-4.02,-4.84,-0.50,-0.47,-0.47
276.61,3.83,4.30,3.85,4.32,-4.32,-3.98,-4.77,-0.49,-0.47,-0.47
279.38,3.79,4.27,3.81,4.28,-4.28,-3.94,-4.70,-0.49,-0.47,-0.48
282.17,3.76,4.24,3.77,4.24,-4.24,-3.90,-4.62,-0.48,-0.47,-0.48
284.99,3.74,4.20,3.73,4.20,-4.20,-3.86,-4.54,-0.46,-0.46,-0.46
287.84,3.70,4.16,3.70,4.16,-4.16,-3.82,-4.45,-0.46,-0.46,-0.46
290.72,3.67,4.13,3.66,4.11,-4.11,-3.78,-4.37,-0.44,-0.45,-0.46
293.63,3.63,4.08,3.62,4.07,-4.07,-3.74,-4.28,-0.44,-0.45,-0.45
296.57,3.59,4.03,3.59,4.03,-4.03,-3.69,-4.19,-0.44,-0.44,-0.44
299.53,3.55,3.98,3.55,3.98,-3.98,-3.65,-4.10,-0.43,-0.43,-0.43
302.53,3.51,3.93,3.51,3.94,-3.94,-3.61,-4.01,-0.43,-0.43,-0.42
305.55,3.47,3.89,3.47,3.89,-3.89,-3.56,-3.92,-0.42,-0.42,-0.42
308.61,3.43,3.83,3.43,3.84,-3.84,-3.52,-3.83,-0.41,-0.41,-0.40
311.69,3.38,3.78,3.38,3.78,-3.78,-3.47,-3.74,-0.40,-0.40,-0.40
314.81,3.34,3.73,3.34,3.72,-3.72,-3.43,-3.65,-0.38,-0.39,-0.39
317.96,3.30,3.68,3.29,3.67,-3.67,-3.38,-3.57,-0.37,-0.38,-0.38
321.14,3.25,3.62,3.24,3.61,-3.61,-3.34,-3.48,-0.36,-0.37,-0.37
324.35,3.20,3.57,3.20,3.56,-3.56,-3.29,-3.39,-0.36,-0.36,-0.37
327.59,3.15,3.49,3.15,3.50,-3.50,-3.25,-3.31,-0.35,-0.35,-0.34
330.87,3.10,3.44,3.10,3.44,-3.44,-3.20,-3.23,-0.34,-0.34,-0.34
334.18,3.04,3.38,3.05,3.38,-3.38,-3.15,-3.15,-0.34,-0.33,-0.34
337.52,2.99,3.32,3.00,3.33,-3.33,-3.11,-3.07,-0.34,-0.32,-0.33
340.90,2.94,3.25,2.96,3.27,-3.27,-3.06,-3.00,-0.33,-0.31,-0.31
344.30,2.90,3.20,2.91,3.21,-3.21,-3.02,-2.93,-0.31,-0.31,-0.30
347.75,2.87,3.16,2.86,3.16,-3.16,-2.97,-2.85,-0.29,-0.30,-0.29
351.23,2.82,3.12,2.81,3.10,-3.10,-2.92,-2.79,-0.28,-0.29,-0.30
354.74,2.77,3.04,2.76,3.04,-3.04,-2.88,-2.72,-0.27,-0.28,-0.27
358.28,2.71,2.98,2.72,2.99,-2.99,-2.83,-2.65,-0.28,-0.27,-0.27
361.87,2.66,2.92,2.67,2.93,-2.93,-2.78,-2.59,-0.27,-0.26,-0.26
365.49,2.63,2.88,2.62,2.87,-2.87,-2.74,-2.53,-0.24,-0.25,-0.25
369.14,2.59,2.83,2.57,2.81,-2.81,-2.69,-2.47,-0.22,-0.24,-0.24
372.83,2.54,2.77,2.52,2.76,-2.76,-2.64,-2.42,-0.22,-0.23,-0.23
376.56,2.48,2.71,2.48,2.70,-2.70,-2.59,-2.36,-0.22,-0.22,-0.23
380.33,2.42,2.64,2.42,2.64,-2.64,-2.55,-2.31,-0.22,-0.21,-0.22
384.13,2.36,2.56,2.37,2.58,-2.58,-2.50,-2.26,-0.22,-0.20,-0.20
387.97,2.31,2.50,2.32,2.52,-2.52,-2.45,-2.21,-0.21,-0.19,-0.19
391.85,2.27,2.45,2.27,2.46,-2.46,-2.41,-2.16,-0.19,-0.18,-0.18
395.77,2.23,2.41,2.23,2.40,-2.40,-2.36,-2.12,-0.17,-0.17,-0.18
399.73,2.18,2.35,2.18,2.34,-2.34,-2.31,-2.07,-0.16,-0.16,-0.17
403.72,2.14,2.28,2.13,2.28,-2.28,-2.27,-2.03,-0.14,-0.15,-0.14
407.76,2.09,2.23,2.09,2.22,-2.22,-2.22,-1.99,-0.13,-0.14,-0.14
411.84,2.03,2.16,2.04,2.17,-2.17,-2.17,-1.95,-0.14,-0.13,-0.13
415.96,1.99,2.10,2.00,2.12,-2.12,-2.12,-1.91,-0.13,-0.12,-0.11
420.12,1.95,2.06,1.96,2.07,-2.07,-2.08,-1.88,-0.12,-0.11,-0.11
424.32,1.91,2.01,1.91,2.01,-2.01,-2.03,-1.84,-0.10,-0.10,-0.10
428.56,1.87,1.95,1.87,1.96,-1.96,-1.98,-1.81,-0.09,-0.09,-0.08
432.85,1.83,1.90,1.83,1.91,-1.91,-1.94,-1.77,-0.08,-0.08,-0.07
437.18,1.79,1.87,1.78,1.85,-1.85,-1.89,-1.74,-0.06,-0.07,-0.08
441.55,1.75,1.82,1.74,1.80,-1.80,-1.84,-1.70,-0.05,-0.06,-0.07
445.96,1.71,1.77,1.70,1.75,-1.75,-1.80,-1.67,-0.04,-0.05,-0.06
450.42,1.67,1.72,1.66,1.70,-1.70,-1.75,-1.64,-0.03,-0.04,-0.05
454.93,1.61,1.65,1.62,1.65,-1.65,-1.70,-1.61,-0.04,-0.03,-0.04
459.48,1.56,1.59,1.57,1.60,-1.60,-1.65,-1.58,-0.04,-0.02,-0.03
464.07,1.52,1.53,1.53,1.55,-1.55,-1.61,-1.54,-0.03,-0.02,-0.01
468.71,1.48,1.48,1.49,1.49,-1.49,-1.56,-1.51,-0.01,-0.00,-0.00
473.40,1.44,1.43,1.45,1.44,-1.44,-1.51,-1.48,-0.00,0.01,0.01
478.13,1.41,1.39,1.40,1.39,-1.39,-1.46,-1.45,0.02,0.02,0.02
482.91,1.37,1.34,1.37,1.34,-1.34,-1.42,-1.42,0.03,0.03,0.03
