frequency,raw
10,-26.1987655726183
11,-27.974248731642128
12,-25.85217878191342
13,-24.829488974535597
14,-23.100564698127165
15,-20.995235080397705
16,-19.21772874162156
17,-17.452153715731164
18,-15.438431481695176
19,-13.83161270625963
20,-11.977852985156389
21,-10.106325468097431
22,-8.017513445194846
23,-6.496330970321548
24,-4.71640802404013
25,-3.4325194789116926
26,-2.213230341629993
27,-1.4893429764528812
28,-1.132073554182334
29,-0.939776417676816
30,-1.0286032369202163
31,-1.393983977799523
32,-1.699621004674009
33,-1.9508351889723754
34,-2.231854187431983
35,-2.5470557350387883
36,-2.827223044199238
37,-3.1287880450079673
38,-3.295895505718095
39,-3.5214582110932615
40,-3.54335358058902
41,-3.7103085553135102
42,-3.7791418571807283
43,-3.8464390261260784
44,-3.975761842769588
45,-3.9831862095818256
46,-4.112738509413562
47,-4.090096469836678
48,-4.170819598777429
49,-4.19074202141073
50,-4.175539951304928
51,-4.166158205919067
52,-4.140311715748821
53,-4.104656683144823
54,-4.116614389199555
55,-4.117092092251711
56,-4.1257192148300845
57,-4.141674522700915
58,-3.9852472677744117
59,-3.9263160554671437
60,-3.9588444883159504
61,-3.962868641607623
62,-3.9648478622334555
63,-3.804967837392206
64,-3.8663884485872146
65,-3.9281358981586623
66,-3.768333455752032
67,-3.76796838524867
68,-3.6041553142041374
69,-3.658917120237478
70,-3.651659233954943
71,-3.6953663073446625
72,-3.6037496574586183
73,-3.4647799696804786
74,-3.389954985251711
75,-3.446967944145157
76,-3.457085767523478
77,-3.46946878387071
78,-3.482631462991649
79,-3.3939569189076426
80,-3.331060620177139
81,-3.3044519243033514
82,-3.3009598453123905
83,-3.292003062515405
84,-3.2794425086459915
85,-3.1646438896358626
86,-3.149980515897562
87,-3.0348139989997023
88,-2.986836981776486
89,-2.908569119948739
90,-2.708535614563025
91,-2.631489357959347
92,-2.7894388583519607
93,-2.7553737562379066
94,-2.605302268244319
95,-2.5457037019878452
96,-2.5109726708604576
97,-2.4033337757638593
98,-2.323566770871044
99,-2.2889083176467997
100,-2.1803906833583184
101,-2.0382339767861026
102,-2.099654079289987
104,-1.8959579087259637
105,-1.8733947020087334
106,-1.950181493177761
107,-1.9301807969473788
108,-1.82275191969057
109,-1.7684667597541825
110,-1.5462916012817776
111,-1.5155627190054175
112,-1.6938878089037062
113,-1.6510929298368273
114,-1.3236060646556633
115,-1.372913848259047
117,-1.3835965684145324
118,-1.3532837592365368
119,-1.2823497202034748
120,-1.253754656628024
121,-1.1737029238119554
123,-1.0654123000457822
124,-1.0377101739066967
125,-0.9613020580791454
126,-0.9358314442695468
128,-0.8337500563881353
129,-0.7069706946195131
130,-0.7686499225575787
131,-0.7986465044755615
133,-0.4548948117385052
134,-0.42396750780588377
135,-0.5337342656489144
137,-0.3373609929275423
138,-0.24756801319671862
140,-0.16454116908917982
141,-0.2355387762083856
142,-0.24983419833128107
144,-0.31802743707666714
145,-0.18362574705095014
147,-0.1154363660633182
148,-0.11865548194918851
150,-0.12312180004396112
151,-0.1258348820510804
153,-0.12391480365101515
154,-0.11546080152146487
156,-0.10034283580236103
157,-0.08068881414336193
159,-0.06063603052950395
160,-0.0450849210575619
162,-0.20104111243661205
164,-0.20350183019288437
165,-0.08267175552330741
167,-0.09923489252892992
169,-0.1535101470222875
170,-0.09667122133228201
172,0.06682632924024912
174,0.11151332808210501
175,0.14093436062533105
177,0.3956999132666059
179,0.47071260538367055
181,0.3420459506980995
183,0.5392285973022473
184,0.5452883461198716
186,0.747326333157134
188,0.7005401191709302
190,0.5444968727010657
192,0.5436396321255952
194,0.746820268510354
196,0.7537802350385174
198,0.7661993446286823
200,0.7826726883918402
202,0.8004457859278293
204,0.8166746408862338
206,0.9964245477450016
208,1.0212879191429893
210,0.9473976335422938
212,0.9544419962876542
214,0.961997206197907
216,0.969956155753958
218,0.9771470132196507
221,0.9818421382965425
223,0.9314062306738835
225,0.8778230259243394
227,0.989897508462934
229,1.060933418065054
232,1.052407319812195
234,1.0485888614883887
236,1.051634158126597
239,1.2627843421070422
241,1.2776465658799045
244,1.1933382061801785
246,1.2075735052886873
248,1.2175903233928356
251,1.2229001293101236
253,1.224281526259908
256,1.2229045517280257
259,1.2196552494273742
261,1.2150481061769645
264,1.2096238210363923
266,1.204383385582756
269,1.2008293248737516
272,1.2005044634667357
274,1.2042856047653752
277,1.211867840090532
280,1.2217855459848375
283,1.175242637641266
286,1.0197146685798026
288,1.0672338826344232
291,1.1537664752740557
294,1.1603377524134837
297,1.1682315500645117
300,1.1771662955550184
303,1.1857288149230412
306,1.1923369893981768
309,1.1964599559744826
312,1.1992165242241448
316,1.202844055401112
319,1.2093094577860084
322,1.1968309384188585
325,1.1296022162802757
328,1.139618492791035
332,1.0456082195808918
335,1.0482903932857042
338,1.0487738060009715
342,1.0114852243384131
345,0.9540580889614816
349,0.9276032126950176
352,0.9628406558429363
356,0.9356709061793342
359,0.7911989719659003
363,0.6636389318958824
366,0.6369376059328076
370,0.5576859764924671
374,0.5169939571244746
377,0.47339745853452975
381,0.31878108737495436
385,0.4121552947586711
389,0.6857041500427181
393,0.7751797551026351
397,0.7262088142697181
401,0.6857958541306277
405,0.6446615641217406
409,0.8368438891172838
413,1.0492517495268485
417,0.6193263031725462
421,0.3204428546438045
425,0.5241625944505519
430,0.6324027508036396
434,0.5365159179896803
438,0.19950079493846573
443,0.4887157905476167
447,0.8855361889710132
451,0.35618916221227037
456,0.16676330089624347
460,0.39311319729881333
465,0.33620442544880014
470,0.557697266075297
474,0.5167672385448832
479,0.4180841265496227
484,0.7990616329491749
489,0.4911929876997627
494,0.6935638852020034
499,0.7863922133162347
504,0.4822376085310607
509,0.5125095377527424
514,0.4956103890866954
519,0.453887558186298
524,0.38776846089402905
529,0.41432452875863746
535,0.6447813948509178
540,0.4794120187937194
545,0.1552506586708562
551,0.2796152158478682
556,0.14597844129005288
562,-0.04022965697701597
568,0.17015250994028364
573,0.21017551633274278
579,0.07605635003818323
585,0.002937797693407518
591,-0.0073437708872576835
596,-0.050892159413642
602,-0.1792731934370584
608,-0.23711431035070363
615,-0.29441080243620865
621,-0.4240781253355077
627,-0.47361315086262734
633,-0.49878116582078036
639,-0.5903574780892449
646,-0.697591531600321
652,-0.7850647721307826
659,-0.879003368771502
665,-0.9783716521101271
672,-1.1320045144477857
679,-1.2438126353548127
686,-1.356648808915071
692,-1.3529781454237255
699,-1.457424918211305
706,-1.561645848364133
713,-1.5954635682137661
721,-1.6961055010144055
728,-1.6543781919083993
735,-1.5477876925184495
742,-1.6947563651642283
750,-1.7891889946202737
757,-1.6854597093762622
765,-1.716262407360279
773,-1.7451321233403545
780,-1.764578423454639
788,-1.7714573357760892
796,-1.821064826022304
804,-1.8787512472927126
812,-1.828179427930657
820,-1.6334029461016686
828,-1.4477794031842925
837,-1.3348217309450747
845,-1.304865793774528
853,-1.3030906276344452
862,-1.0586190114885652
871,-1.1171383853962285
879,-1.2172891816469005
888,-1.0784977899933141
897,-0.9533355481798973
906,-0.9714389159726953
915,-1.051811754101476
924,-1.0096615994020117
933,-0.7440708046381483
943,-0.7334214238961794
952,-0.7046410618952781
962,-0.4529438107647106
971,-0.25731195056098866
981,-0.4119126984838226
991,-0.3223860081508063
1001,0.035641413946108313
1011,0.21318662305387237
1021,0.14412005058871635
1031,0.35217901173811117
1041,0.3948888523479973
1052,0.5088159007333996
1062,0.7376080694236153
1073,0.7969868701493736
1084,0.9267218202570527
1094,1.0569600412191598
1105,1.1584384992440413
1116,1.2520076594765386
1128,1.3365441464371048
1139,1.4590528726906409
1150,1.672609767445546
1162,1.9293385113283164
1173,1.9589177213649072
1185,2.0832064574489855
1197,2.364396927859359
1209,2.5007169126519067
1221,2.6724224575881386
1233,2.9569231468848587
1246,3.0310539447459166
1258,2.9625816541983947
1271,3.1345891154555914
1283,3.2848733501916625
1296,3.4376489141556825
1309,3.5889288347968247
1322,3.7357217384282486
1335,3.8775086309721383
1349,4.016405187051365
1362,4.155768138089128
1376,4.29793307804843
1390,4.196134960215458
1404,4.0582641141267
1418,4.1987636225207705
1432,4.425358375364098
1446,4.313208995518116
1461,4.093963004656559
1475,3.916395018247188
1490,3.7400991387246103
1505,3.7168249054344407
1520,4.073356074331309
1535,4.2872208937211775
1550,4.185258875944926
1566,4.150140956165476
1582,4.124858445303651
1597,4.0413504195186585
1613,3.6419422748270396
1629,3.304961107343199
1646,3.3173665202081235
1662,3.5390978341483486
1679,3.5466245020545832
1696,3.13322178820434
1713,2.5652890239322526
1730,2.1507603976325194
1747,2.1694836356577283
1764,2.1688033089443453
1782,2.1388850425462373
1800,2.0189461890042115
1818,2.1461250189407464
1836,2.080030750006626
1854,1.7227753895999038
1873,1.721554889622103
1892,1.656507583791266
1911,1.1947418781914534
1930,0.8235785711268528
1949,0.6882147601511623
1969,0.7199247495948518
1988,0.7591263224022438
2008,0.5847886241994642
2028,0.5127467063828322
2048,0.3631997422949018
2069,0.243247203776237
2090,0.10579306187482285
2111,0.01859811419915225
2132,-0.09813293369370601
2153,-0.023702675564788223
2175,-0.0033924681392560885
2196,-0.1819490772851715
2218,-0.28425668579900076
2240,-0.1919845289798383
2263,-0.17798634029996574
2285,-0.3393134062103158
2308,-0.20978216223559532
2331,0.15148647795616998
2355,0.08328913576590313
2378,0.3845172589371568
2402,0.6829347000509634
2426,0.7433200785403367
2450,1.0560335249721975
2475,1.2460367209611887
2500,1.439072532564957
2525,1.99657284114899
2550,2.5830179562551905
2575,2.9977554392466432
2601,3.408977971183936
2627,3.9657059812191795
2653,4.334752000210296
2680,4.869130227711405
2707,5.5607117810298
2734,6.074044570679264
2761,6.446581086205126
2789,7.473605943648416
2817,8.337097180705587
2845,9.632970540779231
2873,10.719198807081842
2902,11.18719757141614
2931,11.755056357418994
2960,12.572838965074594
2990,13.051004468115586
3020,13.483101360074043
3050,13.791438977737686
3080,14.721198602407977
3111,15.092324859755973
3142,15.681435028657127
3174,16.104685056295665
3206,16.135451856236585
3238,15.960811047656751
3270,15.648682523916058
3303,15.252252314808947
3336,15.0539664082792
3369,14.755611813792587
3403,14.3961410440227
3437,14.240946859982895
3471,13.991386425586143
3506,13.65016561940786
3541,13.29818966359165
3576,13.048707715941228
3612,12.853372030996823
3648,12.732467147775022
3685,12.519332716426893
3721,12.19888449380075
3759,11.962481883138977
3796,11.737030790040635
3834,11.376821137207491
3873,10.887066558440566
3911,10.519867203848804
3950,10.243914776240105
3990,10.07198420116231
4030,9.890578603084393
4070,9.54276123329915
4111,9.228001138654651
4152,9.209496750495065
4193,8.964053641680184
4235,8.530703708972592
4278,8.556281304546127
4321,8.472907455193528
4364,8.295502470749462
4407,8.02728944662974
4451,7.738858388475082
4496,7.424334367345623
4541,7.159859760218336
4586,6.851601499312874
4632,6.58966631706784
4679,6.427349274594523
4725,6.207031778455618
4773,6.068997050782359
4820,5.944197437229911
4868,5.846893948399021
4917,5.9441519196118335
4966,6.029209639244286
5016,5.957923329492215
5066,6.014473150724409
5117,6.210358982030829
5168,6.20580513569608
5220,5.635299674486947
5272,4.543477427850449
5325,3.9464056345944973
5378,3.464624107913802
5432,3.1241350371494043
5486,2.842147605372597
5541,2.70785074960937
5596,2.6189652137961916
5652,2.3692687060302395
5709,2.223660260101883
5766,2.177460399144157
5823,2.1079018804090817
5882,1.9662894011602594
5940,1.855179146156888
6000,1.7447741961957561
6060,1.4387827964911057
6120,1.128205395507809
6182,0.7474522403669415
6244,0.4936912695353515
6306,0.29720339943956464
6369,0.025905487727383658
6433,-0.042130198764318116
6497,0.024217082563805725
6562,0.26947660679687147
6628,0.263333147391295
6694,0.17335405864334685
6761,-0.04813773464964122
6828,-0.33281154434690574
6897,-0.46643071260250313
6966,-0.5544007598084466
7035,-0.5125078159970378
7106,-0.3956680702751756
7177,-0.3664970451652265
7249,-0.26799379424654957
7321,-0.24682373445376626
7394,-0.235905464816748
7468,-0.2978277236818698
7543,-0.12568518958808328
7618,0.33881937053465405
7694,0.7575989130633047
7771,1.144442984906398
7849,1.4293430443914827
7928,1.4858647087199408
8007,1.8371424077847784
8087,2.3555520270838657
8168,2.765101073871963
8250,3.3657358523494443
8332,4.474679614695101
8415,5.144891315713729
8499,6.0473527086292975
8584,7.192844386068169
8670,7.943966269440076
8757,8.759722424592702
8845,9.363967038549443
8933,9.06355347914704
9022,9.067551938344874
9113,9.573528233133182
9204,9.998102424176764
9296,9.853958122742188
9389,9.38415743358848
9483,8.687584738964016
9577,7.937499793210733
9673,7.175712594916713
9770,6.343507251733429
9868,5.851346194156115
9966,5.981496260641687
10066,6.240545869471404
10167,7.2944968630848095
10268,7.5907587591987165
10371,7.401871847527736
10475,7.109186606867527
10579,6.157073737407172
10685,6.3234927121608475
10792,6.64159090188289
10900,5.823016121628897
11009,5.14395670664278
11119,4.381525383897377
11230,3.355629491329117
11343,2.7037289895407683
11456,1.890139314039431
11571,0.9308586415563176
11686,0.394579677383915
11803,0.1908664866815113
11921,-0.5289049815063125
12040,-1.9189403507082932
12161,-2.350932843547036
12282,-2.59917001674614
12405,-3.1798637523928623
12529,-3.3359328687698637
12655,-3.95765520455294
12781,-4.46553878065976
12909,-4.8978544406813525
13038,-6.055416759058924
13168,-7.5163297824264985
13300,-9.036725053460646
13433,-8.850534727060758
13567,-7.7940340043894665
13703,-4.255247285626477
13840,-3.868458804616938
13978,-4.072424927766298
14118,-4.272352807068243
14259,-4.581707392643618
14402,-4.56781959206673
14546,-4.14876229464614
14692,-3.6729938691036566
14838,-3.101081738944955
14987,-2.376422810091731
15137,-1.5953844801143555
15288,-1.4122634464622212
15441,-0.989750700260009
15595,-1.1004981471236563
15751,-2.9913433597881127
15909,-4.785434563163745
16068,-7.54833775921096
16229,-9.441811999929095
16391,-8.53769322383799
16555,-8.606973683734932
16720,-9.0015290114548
16888,-8.034686425871318
17056,-8.021422674126118
17227,-10.648424193000938
17399,-12.4851195864398
17573,-13.65090516432478
17749,-13.76134519355568
17926,-11.455738538879078
18106,-8.803641154094723
18287,-5.938437810887664
18470,-4.3057012787635385
18654,-3.5673232529742958
18841,-3.125206813353575
19029,-3.8338738941905284
19220,-5.41428779377715
19412,-6.818097376510723
19606,-8.260206717971641
19802,-9.658324127398451
20000,-10.353033501562244
20200,-11.090119248252847
20402,-11.451389443545807
20606,-11.877570702734362
20812,-12.727631435954287
21020,-13.600809136024456
21230,-14.513911142985163
21443,-14.612767955718656
21657,-13.619435762868317
21874,-12.65659366555772
22092,-11.80138075807734
22313,-10.372983874520006
22537,-8.123164176311949
22762,-7.297381266276925
22989,-9.37702313406458
23219,-10.920954249076836
23452,-12.690665761540565
23686,-12.567008303709198
23923,-11.882295851541514
24162,-11.69679356876383
24404,-11.512085647409009
24648,-11.328164819274836
24894,-11.144834625502781
25143,-10.9617646015333
25395,-10.778762059501776
25649,-10.59579380605569
25905,-10.41277149181026
26164,-10.229552306975298
26426,-10.046145915901763
26690,-9.862694973368411
26957,-9.679141590546413
27227,-9.495535866742166
27499,-9.312017872230431
27774,-9.128503867355002
28052,-8.944999222915062
28332,-8.761599174729774
28615,-8.57819021015339
28902,-8.394678293349582
29191,-8.21126100810599
29482,-8.02793996720903
29777,-7.844525814883611
