frequency,raw,error,smoothed,error_smoothed,equalization,parametric_eq,equalized_raw,equalized_smoothed,target
20,4.74,2.55,4.71,2.52,-2.52,-2.60,2.22,2.19,2.19
21,4.86,2.71,4.88,2.73,-2.73,-2.78,2.13,2.15,2.15
22,5.01,2.90,5.03,2.93,-2.93,-2.97,2.08,2.11,2.11
23,5.19,3.12,5.19,3.12,-3.12,-3.15,2.07,2.07,2.07
24,5.33,3.30,5.33,3.30,-3.30,-3.32,2.02,2.03,2.03
25,5.45,3.46,5.47,3.48,-3.48,-3.48,1.96,1.99,1.99
26,5.60,3.64,5.61,3.66,-3.66,-3.63,1.94,1.95,1.95
27,5.73,3.81,5.73,3.82,-3.82,-3.78,1.91,1.91,1.91
28,5.87,3.99,5.85,3.97,-3.97,-3.91,1.90,1.88,1.88
29,5.94,4.10,5.94,4.10,-4.10,-4.03,1.83,1.84,1.84
30,6.09,4.28,6.03,4.22,-4.22,-4.15,1.86,1.80,1.80
31,6.12,4.35,6.09,4.33,-4.33,-4.25,1.79,1.77,1.77
32,6.15,4.42,6.14,4.41,-4.41,-4.34,1.74,1.73,1.73
33,6.15,4.45,6.18,4.48,-4.48,-4.42,1.67,1.69,1.69
34,6.18,4.52,6.20,4.54,-4.54,-4.50,1.64,1.66,1.66
35,6.22,4.59,6.21,4.58,-4.58,-4.56,1.63,1.62,1.62
36,6.21,4.62,6.21,4.62,-4.62,-4.62,1.59,1.59,1.59
37,6.21,4.65,6.20,4.65,-4.65,-4.67,1.56,1.55,1.55
38,6.21,4.69,6.19,4.68,-4.68,-4.71,1.53,1.52,1.52
39,6.17,4.68,6.18,4.70,-4.70,-4.75,1.47,1.48,1.48
40,6.17,4.72,6.17,4.72,-4.72,-4.78,1.45,1.45,1.45
41,6.14,4.72,6.15,4.74,-4.74,-4.80,1.40,1.42,1.42
42,6.14,4.75,6.14,4.75,-4.75,-4.82,1.38,1.38,1.38
43,6.13,4.77,6.12,4.77,-4.77,-4.84,1.36,1.35,1.35
44,6.13,4.81,6.11,4.79,-4.79,-4.85,1.34,1.32,1.32
45,6.09,4.80,6.09,4.80,-4.80,-4.86,1.28,1.29,1.29
46,6.06,4.80,6.08,4.82,-4.82,-4.87,1.24,1.26,1.26
47,6.06,4.83,6.06,4.83,-4.83,-4.88,1.23,1.23,1.23
48,6.06,4.85,6.05,4.84,-4.84,-4.88,1.21,1.20,1.20
49,6.06,4.88,6.03,4.85,-4.85,-4.88,1.20,1.18,1.18
50,6.02,4.87,6.01,4.86,-4.86,-4.88,1.15,1.15,1.15
51,5.97,4.84,6.00,4.87,-4.87,-4.88,1.09,1.13,1.13
52,5.97,4.86,5.98,4.88,-4.88,-4.87,1.09,1.10,1.10
53,5.97,4.89,5.97,4.89,-4.89,-4.87,1.08,1.08,1.08
54,5.97,4.91,5.95,4.89,-4.89,-4.86,1.07,1.06,1.06
55,5.97,4.93,5.94,4.90,-4.90,-4.85,1.07,1.04,1.04
56,5.93,4.91,5.92,4.90,-4.90,-4.85,1.03,1.02,1.02
57,5.90,4.89,5.90,4.90,-4.90,-4.84,1.00,1.00,1.00
58,5.87,4.88,5.88,4.90,-4.90,-4.83,0.97,0.99,0.99
59,5.87,4.89,5.87,4.89,-4.89,-4.82,0.97,0.97,0.97
60,5.85,4.89,5.85,4.89,-4.89,-4.81,0.95,0.96,0.96
61,5.83,4.88,5.84,4.89,-4.89,-4.80,0.93,0.95,0.95
62,5.83,4.89,5.83,4.89,-4.89,-4.79,0.93,0.94,0.94
63,5.82,4.89,5.82,4.89,-4.89,-4.78,0.92,0.92,0.92
64,5.82,4.90,5.81,4.89,-4.89,-4.77,0.92,0.91,0.91
65,5.81,4.90,5.80,4.89,-4.89,-4.76,0.92,0.91,0.91
66,5.79,4.89,5.78,4.89,-4.89,-4.74,0.90,0.90,0.90
67,5.77,4.88,5.76,4.88,-4.88,-4.73,0.89,0.89,0.89
68,5.75,4.87,5.74,4.86,-4.86,-4.72,0.88,0.88,0.88
69,5.72,4.85,5.72,4.85,-4.85,-4.71,0.87,0.87,0.87
70,5.69,4.82,5.69,4.82,-4.82,-4.69,0.86,0.86,0.86
71,5.65,4.79,5.65,4.80,-4.80,-4.68,0.85,0.85,0.85
72,5.62,4.77,5.62,4.77,-4.77,-4.67,0.84,0.84,0.84
73,5.58,4.74,5.58,4.74,-4.74,-4.65,0.83,0.84,0.84
74,5.55,4.72,5.54,4.71,-4.71,-4.64,0.83,0.82,0.83
75,5.51,4.69,5.50,4.68,-4.68,-4.62,0.82,0.81,0.81
76,5.45,4.64,5.45,4.65,-4.65,-4.61,0.79,0.80,0.80
77,5.40,4.61,5.41,4.62,-4.62,-4.59,0.77,0.79,0.79
78,5.37,4.59,5.37,4.59,-4.59,-4.58,0.77,0.77,0.78
79,5.33,4.57,5.33,4.57,-4.57,-4.56,0.76,0.76,0.76
80,5.29,4.54,5.29,4.54,-4.54,-4.55,0.74,0.74,0.74
81,5.25,4.52,5.24,4.52,-4.52,-4.53,0.73,0.73,0.73
82,5.21,4.50,5.20,4.50,-4.50,-4.52,0.71,0.71,0.71
83,5.17,4.48,5.16,4.48,-4.48,-4.50,0.69,0.69,0.69
84,5.13,4.46,5.12,4.46,-4.46,-4.49,0.67,0.66,0.66
85,5.07,4.43,5.08,4.44,-4.44,-4.47,0.63,0.64,0.64
86,5.04,4.42,5.04,4.43,-4.43,-4.45,0.61,0.62,0.62
87,5.00,4.41,5.01,4.41,-4.41,-4.44,0.58,0.59,0.59
88,4.97,4.40,4.97,4.40,-4.40,-4.42,0.56,0.56,0.56
89,4.93,4.39,4.93,4.39,-4.39,-4.40,0.53,0.54,0.54
90,4.90,4.39,4.89,4.38,-4.38,-4.38,0.51,0.51,0.51
91,4.86,4.38,4.85,4.37,-4.37,-4.37,0.49,0.48,0.48
92,4.82,4.37,4.80,4.35,-4.35,-4.35,0.46,0.45,0.45
93,4.76,4.34,4.75,4.34,-4.34,-4.33,0.42,0.42,0.42
94,4.69,4.30,4.70,4.31,-4.31,-4.31,0.37,0.38,0.38
95,4.65,4.30,4.64,4.29,-4.29,-4.29,0.36,0.35,0.35
96,4.61,4.29,4.59,4.27,-4.27,-4.28,0.34,0.32,0.32
97,4.51,4.22,4.53,4.25,-4.25,-4.26,0.26,0.28,0.28
98,4.47,4.22,4.47,4.23,-4.23,-4.24,0.24,0.25,0.25
99,4.40,4.18,4.42,4.21,-4.21,-4.22,0.19,0.21,0.21
100,4.36,4.18,4.37,4.20,-4.20,-4.20,0.16,0.17,0.18
101,4.32,4.17,4.32,4.18,-4.18,-4.18,0.13,0.14,0.15
102,4.29,4.18,4.27,4.17,-4.17,-4.16,0.11,0.10,0.11
104,4.25,4.21,4.22,4.16,-4.16,-4.12,0.09,0.06,0.04
105,4.19,4.18,4.17,4.15,-4.15,-4.10,0.04,0.02,0.01
106,4.12,4.14,4.11,4.13,-4.13,-4.08,-0.01,-0.02,-0.02
107,4.05,4.10,4.06,4.11,-4.11,-4.06,-0.06,-0.05,-0.06
108,3.98,4.07,4.00,4.09,-4.09,-4.03,-0.11,-0.09,-0.09
109,3.92,4.04,3.95,4.07,-4.07,-4.01,-0.15,-0.12,-0.12
110,3.89,4.04,3.90,4.05,-4.05,-3.99,-0.16,-0.15,-0.15
111,3.86,4.04,3.85,4.03,-4.03,-3.97,-0.17,-0.18,-0.18
112,3.83,4.04,3.79,4.01,-4.01,-3.95,-0.18,-0.21,-0.21
113,3.78,4.02,3.74,3.98,-3.98,-3.93,-0.21,-0.24,-0.24
114,3.68,3.95,3.68,3.96,-3.96,-3.90,-0.28,-0.28,-0.27
115,3.59,3.88,3.63,3.93,-3.93,-3.88,-0.35,-0.31,-0.30
117,3.55,3.90,3.56,3.91,-3.91,-3.83,-0.36,-0.34,-0.36
118,3.52,3.90,3.50,3.88,-3.88,-3.81,-0.36,-0.38,-0.38
119,3.48,3.89,3.44,3.85,-3.85,-3.79,-0.37,-0.41,-0.41
120,3.37,3.80,3.37,3.81,-3.81,-3.76,-0.44,-0.44,-0.44
121,3.27,3.73,3.30,3.78,-3.78,-3.74,-0.51,-0.47,-0.46
123,3.22,3.73,3.23,3.74,-3.74,-3.69,-0.52,-0.51,-0.52
124,3.19,3.73,3.16,3.70,-3.70,-3.67,-0.51,-0.54,-0.54
125,3.14,3.70,3.09,3.66,-3.66,-3.64,-0.52,-0.57,-0.57
126,2.98,3.57,3.02,3.62,-3.62,-3.62,-0.64,-0.60,-0.59
128,2.93,3.56,2.95,3.58,-3.58,-3.57,-0.65,-0.63,-0.64
129,2.89,3.55,2.88,3.53,-3.53,-3.54,-0.65,-0.66,-0.66
130,2.83,3.51,2.80,3.49,-3.49,-3.51,-0.66,-0.68,-0.68
131,2.74,3.44,2.73,3.44,-3.44,-3.49,-0.70,-0.71,-0.70
133,2.63,3.37,2.65,3.39,-3.39,-3.44,-0.76,-0.74,-0.74
134,2.59,3.35,2.58,3.34,-3.34,-3.41,-0.76,-0.76,-0.76
135,2.55,3.33,2.50,3.29,-3.29,-3.38,-0.75,-0.79,-0.78
137,2.39,3.21,2.43,3.24,-3.24,-3.33,-0.85,-0.81,-0.82
138,2.32,3.15,2.35,3.19,-3.19,-3.30,-0.87,-0.84,-0.83
140,2.29,3.15,2.28,3.14,-3.14,-3.25,-0.85,-0.86,-0.87
141,2.25,3.13,2.21,3.09,-3.09,-3.22,-0.84,-0.88,-0.88
142,2.16,3.05,2.13,3.03,-3.03,-3.19,-0.88,-0.90,-0.89
144,2.02,2.94,2.06,2.98,-2.98,-3.14,-0.96,-0.92,-0.92
145,1.98,2.91,1.99,2.93,-2.93,-3.11,-0.95,-0.94,-0.93
147,1.94,2.89,1.92,2.88,-2.88,-3.05,-0.94,-0.95,-0.96
148,1.90,2.86,1.85,2.82,-2.82,-3.02,-0.93,-0.97,-0.97
150,1.76,2.74,1.79,2.77,-2.77,-2.96,-1.01,-0.98,-0.99
151,1.69,2.68,1.72,2.72,-2.72,-2.93,-1.03,-1.00,-0.99
153,1.65,2.66,1.65,2.67,-2.67,-2.87,-1.02,-1.01,-1.02
154,1.62,2.64,1.59,2.61,-2.61,-2.84,-1.00,-1.02,-1.02
156,1.55,2.59,1.52,2.56,-2.56,-2.78,-1.01,-1.04,-1.04
157,1.47,2.51,1.46,2.51,-2.51,-2.75,-1.04,-1.05,-1.05
159,1.36,2.42,1.39,2.45,-2.45,-2.69,-1.10,-1.06,-1.07
160,1.32,2.39,1.32,2.40,-2.40,-2.66,-1.08,-1.08,-1.07
162,1.28,2.37,1.26,2.35,-2.35,-2.60,-1.07,-1.09,-1.09
164,1.17,2.28,1.19,2.30,-2.30,-2.53,-1.13,-1.10,-1.11
165,1.14,2.25,1.13,2.25,-2.25,-2.50,-1.11,-1.12,-1.12
167,1.06,2.19,1.06,2.20,-2.20,-2.44,-1.14,-1.14,-1.14
169,1.01,2.16,1.00,2.15,-2.15,-2.37,-1.14,-1.15,-1.15
170,0.96,2.12,0.94,2.10,-2.10,-2.34,-1.15,-1.17,-1.16
172,0.84,2.02,0.87,2.06,-2.06,-2.28,-1.22,-1.18,-1.18
174,0.80,2.00,0.81,2.01,-2.01,-2.21,-1.21,-1.20,-1.20
175,0.77,1.98,0.74,1.96,-1.96,-2.18,-1.20,-1.22,-1.22
177,0.71,1.94,0.68,1.92,-1.92,-2.11,-1.21,-1.24,-1.24
179,0.61,1.86,0.62,1.87,-1.87,-2.04,-1.27,-1.26,-1.26
181,0.53,1.80,0.55,1.83,-1.83,-1.98,-1.30,-1.28,-1.28
183,0.49,1.78,0.49,1.78,-1.78,-1.91,-1.30,-1.29,-1.30
184,0.43,1.74,0.42,1.74,-1.74,-1.87,-1.31,-1.31,-1.31
186,0.36,1.69,0.36,1.70,-1.70,-1.81,-1.34,-1.33,-1.33
188,0.31,1.66,0.30,1.65,-1.65,-1.74,-1.34,-1.35,-1.35
190,0.24,1.61,0.23,1.61,-1.61,-1.67,-1.37,-1.37,-1.37
192,0.15,1.54,0.17,1.56,-1.56,-1.60,-1.41,-1.39,-1.39
194,0.11,1.52,0.10,1.51,-1.51,-1.53,-1.40,-1.41,-1.41
196,0.07,1.50,0.03,1.46,-1.46,-1.46,-1.39,-1.43,-1.43
198,-0.06,1.38,-0.05,1.40,-1.40,-1.38,-1.46,-1.45,-1.45
200,-0.12,1.34,-0.12,1.34,-1.34,-1.31,-1.47,-1.46,-1.46
202,-0.18,1.30,-0.20,1.28,-1.28,-1.24,-1.47,-1.48,-1.48
204,-0.28,1.21,-0.27,1.22,-1.22,-1.17,-1.51,-1.50,-1.50
206,-0.36,1.15,-0.35,1.16,-1.16,-1.09,-1.53,-1.51,-1.51
208,-0.43,1.09,-0.42,1.11,-1.11,-1.02,-1.54,-1.53,-1.53
210,-0.48,1.06,-0.49,1.05,-1.05,-0.95,-1.53,-1.54,-1.54
212,-0.57,0.98,-0.56,0.99,-0.99,-0.87,-1.57,-1.55,-1.55
214,-0.64,0.92,-0.63,0.94,-0.94,-0.80,-1.58,-1.57,-1.56
216,-0.67,0.90,-0.70,0.88,-0.88,-0.73,-1.55,-1.58,-1.58
218,-0.76,0.82,-0.76,0.82,-0.82,-0.65,-1.58,-1.59,-1.58
221,-0.82,0.77,-0.83,0.76,-0.76,-0.54,-1.58,-1.59,-1.60
223,-0.90,0.70,-0.90,0.70,-0.70,-0.46,-1.60,-1.60,-1.60
225,-0.99,0.61,-0.98,0.63,-0.63,-0.39,-1.62,-1.61,-1.61
227,-1.07,0.54,-1.05,0.56,-0.56,-0.31,-1.63,-1.61,-1.61
229,-1.09,0.52,-1.13,0.48,-0.48,-0.24,-1.57,-1.61,-1.61
232,-1.25,0.36,-1.22,0.40,-0.40,-0.12,-1.65,-1.62,-1.62
234,-1.27,0.34,-1.30,0.31,-0.31,-0.05,-1.59,-1.62,-1.62
236,-1.35,0.26,-1.39,0.23,-0.23,0.03,-1.58,-1.61,-1.61
239,-1.47,0.14,-1.47,0.14,-0.14,0.14,-1.61,-1.61,-1.61
241,-1.57,0.04,-1.56,0.05,-0.05,0.22,-1.62,-1.61,-1.61
244,-1.66,-0.06,-1.65,-0.04,0.04,0.33,-1.62,-1.60,-1.60
246,-1.75,-0.16,-1.73,-0.13,0.13,0.41,-1.63,-1.60,-1.60
248,-1.82,-0.23,-1.80,-0.21,0.21,0.49,-1.61,-1.59,-1.59
251,-1.89,-0.31,-1.88,-0.29,0.29,0.60,-1.60,-1.58,-1.58
253,-1.93,-0.36,-1.95,-0.37,0.37,0.68,-1.56,-1.57,-1.57
256,-2.00,-0.44,-2.02,-0.46,0.46,0.79,-1.55,-1.56,-1.56
259,-2.07,-0.52,-2.10,-0.54,0.54,0.91,-1.53,-1.55,-1.55
261,-2.17,-0.63,-2.18,-0.64,0.64,0.98,-1.54,-1.54,-1.54
264,-2.26,-0.73,-2.27,-0.73,0.73,1.10,-1.53,-1.53,-1.53
266,-2.33,-0.81,-2.36,-0.84,0.84,1.17,-1.50,-1.52,-1.52
269,-2.46,-0.96,-2.45,-0.95,0.95,1.28,-1.52,-1.51,-1.51
272,-2.58,-1.09,-2.55,-1.06,1.06,1.40,-1.53,-1.50,-1.50
274,-2.63,-1.15,-2.65,-1.17,1.17,1.47,-1.46,-1.48,-1.48
277,-2.75,-1.28,-2.75,-1.28,1.28,1.58,-1.47,-1.47,-1.47
280,-2.86,-1.40,-2.85,-1.39,1.39,1.69,-1.47,-1.46,-1.46
283,-2.96,-1.52,-2.95,-1.50,1.50,1.80,-1.46,-1.45,-1.45
286,-3.07,-1.64,-3.05,-1.61,1.61,1.91,-1.46,-1.43,-1.43
288,-3.14,-1.72,-3.15,-1.73,1.73,1.98,-1.42,-1.42,-1.42
291,-3.23,-1.82,-3.25,-1.84,1.84,2.09,-1.39,-1.41,-1.41
294,-3.33,-1.94,-3.36,-1.96,1.96,2.19,-1.37,-1.40,-1.40
297,-3.43,-2.05,-3.48,-2.09,2.09,2.29,-1.34,-1.38,-1.38
300,-3.59,-2.22,-3.60,-2.22,2.22,2.40,-1.37,-1.37,-1.37
303,-3.73,-2.37,-3.72,-2.36,2.36,2.50,-1.37,-1.36,-1.36
306,-3.87,-2.52,-3.85,-2.50,2.50,2.60,-1.37,-1.35,-1.35
309,-3.99,-2.65,-3.98,-2.64,2.64,2.69,-1.36,-1.34,-1.34
312,-4.10,-2.77,-4.11,-2.78,2.78,2.79,-1.33,-1.33,-1.33
316,-4.25,-2.93,-4.23,-2.91,2.91,2.91,-1.34,-1.32,-1.32
319,-4.36,-3.05,-4.36,-3.05,3.05,3.00,-1.31,-1.31,-1.31
322,-4.46,-3.16,-4.48,-3.18,3.18,3.09,-1.28,-1.30,-1.30
325,-4.58,-3.29,-4.61,-3.31,3.31,3.18,-1.27,-1.29,-1.29
328,-4.71,-3.43,-4.73,-3.44,3.44,3.26,-1.27,-1.28,-1.28
332,-4.88,-3.61,-4.85,-3.57,3.57,3.37,-1.31,-1.27,-1.27
335,-4.97,-3.71,-4.96,-3.70,3.70,3.45,-1.27,-1.26,-1.26
338,-5.07,-3.82,-5.08,-3.82,3.82,3.53,-1.25,-1.26,-1.26
342,-5.20,-3.95,-5.20,-3.95,3.95,3.63,-1.26,-1.25,-1.25
345,-5.32,-4.08,-5.31,-4.07,4.07,3.70,-1.25,-1.24,-1.24
349,-5.40,-4.17,-5.43,-4.19,4.19,3.79,-1.21,-1.23,-1.23
352,-5.49,-4.27,-5.54,-4.31,4.31,3.85,-1.18,-1.23,-1.23
356,-5.63,-4.41,-5.65,-4.43,4.43,3.93,-1.20,-1.22,-1.22
359,-5.76,-4.55,-5.76,-4.55,4.55,3.99,-1.22,-1.22,-1.22
363,-5.89,-4.68,-5.86,-4.65,4.65,4.06,-1.24,-1.21,-1.21
366,-5.98,-4.78,-5.96,-4.75,4.75,4.11,-1.23,-1.21,-1.20
370,-6.03,-4.83,-6.04,-4.84,4.84,4.18,-1.19,-1.20,-1.20
374,-6.13,-4.94,-6.11,-4.91,4.91,4.24,-1.22,-1.20,-1.20
377,-6.14,-4.95,-6.16,-4.97,4.97,4.28,-1.18,-1.19,-1.19
381,-6.21,-5.02,-6.20,-5.01,5.01,4.33,-1.21,-1.19,-1.19
385,-6.22,-5.04,-6.22,-5.03,5.03,4.37,-1.19,-1.19,-1.19
389,-6.20,-5.02,-6.22,-5.04,5.04,4.41,-1.16,-1.18,-1.18
393,-6.22,-5.04,-6.22,-5.03,5.03,4.44,-1.19,-1.18,-1.18
397,-6.21,-5.03,-6.20,-5.02,5.02,4.47,-1.20,-1.18,-1.18
401,-6.17,-5.00,-6.16,-4.99,4.99,4.50,-1.19,-1.18,-1.18
405,-6.10,-4.93,-6.12,-4.95,4.95,4.52,-1.15,-1.18,-1.18
409,-6.09,-4.92,-6.07,-4.90,4.90,4.53,-1.19,-1.17,-1.17
413,-5.99,-4.82,-6.02,-4.85,4.85,4.54,-1.14,-1.17,-1.17
417,-5.93,-4.77,-5.95,-4.79,4.79,4.55,-1.14,-1.16,-1.16
421,-5.89,-4.73,-5.88,-4.72,4.72,4.55,-1.17,-1.16,-1.16
425,-5.82,-4.67,-5.81,-4.66,4.66,4.55,-1.17,-1.15,-1.15
430,-5.75,-4.61,-5.73,-4.58,4.58,4.55,-1.17,-1.14,-1.14
434,-5.62,-4.49,-5.64,-4.51,4.51,4.54,-1.12,-1.14,-1.14
438,-5.55,-4.43,-5.55,-4.43,4.43,4.53,-1.12,-1.12,-1.13
443,-5.46,-4.35,-5.46,-4.35,4.35,4.51,-1.11,-1.11,-1.11
447,-5.35,-4.25,-5.37,-4.27,4.27,4.49,-1.08,-1.10,-1.10
451,-5.27,-4.19,-5.28,-4.19,4.19,4.46,-1.08,-1.09,-1.09
456,-5.19,-4.12,-5.19,-4.12,4.12,4.43,-1.08,-1.07,-1.07
460,-5.09,-4.04,-5.09,-4.04,4.04,4.41,-1.05,-1.05,-1.05
465,-5.02,-3.99,-5.00,-3.97,3.97,4.37,-1.05,-1.04,-1.04
470,-4.90,-3.88,-4.92,-3.90,3.90,4.33,-1.00,-1.02,-1.02
474,-4.83,-3.83,-4.83,-3.83,3.83,4.30,-1.00,-1.00,-1.00
479,-4.74,-3.76,-4.75,-3.77,3.77,4.25,-0.97,-0.98,-0.98
484,-4.66,-3.70,-4.67,-3.71,3.71,4.20,-0.96,-0.96,-0.96
489,-4.59,-3.65,-4.60,-3.65,3.65,4.16,-0.94,-0.95,-0.94
494,-4.52,-3.60,-4.52,-3.60,3.60,4.11,-0.93,-0.93,-0.93
499,-4.44,-3.53,-4.45,-3.54,3.54,4.05,-0.90,-0.91,-0.91
504,-4.40,-3.51,-4.39,-3.49,3.49,4.00,-0.91,-0.89,-0.89
509,-4.31,-3.44,-4.32,-3.44,3.44,3.94,-0.87,-0.88,-0.88
514,-4.26,-3.40,-4.25,-3.39,3.39,3.89,-0.87,-0.86,-0.86
519,-4.19,-3.34,-4.19,-3.34,3.34,3.83,-0.85,-0.85,-0.85
524,-4.12,-3.29,-4.13,-3.29,3.29,3.78,-0.83,-0.84,-0.84
529,-4.07,-3.25,-4.06,-3.24,3.24,3.72,-0.83,-0.82,-0.82
535,-3.99,-3.18,-4.00,-3.19,3.19,3.65,-0.80,-0.81,-0.81
540,-3.92,-3.13,-3.94,-3.14,3.14,3.59,-0.78,-0.80,-0.80
545,-3.89,-3.11,-3.88,-3.10,3.10,3.53,-0.80,-0.78,-0.78
551,-3.84,-3.07,-3.82,-3.05,3.05,3.46,-0.79,-0.77,-0.77
556,-3.75,-3.00,-3.76,-3.01,3.01,3.40,-0.75,-0.76,-0.76
562,-3.68,-2.94,-3.70,-2.96,2.96,3.33,-0.72,-0.74,-0.74
568,-3.64,-2.92,-3.64,-2.92,2.92,3.26,-0.73,-0.73,-0.73
573,-3.59,-2.88,-3.58,-2.87,2.87,3.20,-0.72,-0.71,-0.71
579,-3.53,-2.84,-3.52,-2.83,2.83,3.14,-0.70,-0.69,-0.69
585,-3.48,-2.81,-3.46,-2.79,2.79,3.07,-0.69,-0.67,-0.67
591,-3.39,-2.74,-3.40,-2.75,2.75,3.00,-0.64,-0.65,-0.65
596,-3.31,-2.69,-3.34,-2.71,2.71,2.94,-0.60,-0.62,-0.62
602,-3.26,-2.66,-3.27,-2.68,2.68,2.88,-0.59,-0.60,-0.60
608,-3.21,-2.64,-3.22,-2.64,2.64,2.81,-0.57,-0.57,-0.57
615,-3.15,-2.61,-3.16,-2.61,2.61,2.73,-0.54,-0.55,-0.55
621,-3.10,-2.58,-3.10,-2.58,2.58,2.67,-0.52,-0.52,-0.52
627,-3.05,-2.56,-3.05,-2.56,2.56,2.61,-0.50,-0.49,-0.49
633,-3.01,-2.55,-2.99,-2.53,2.53,2.54,-0.48,-0.46,-0.46
639,-2.94,-2.51,-2.94,-2.50,2.50,2.48,-0.44,-0.43,-0.43
646,-2.87,-2.47,-2.88,-2.48,2.48,2.41,-0.40,-0.41,-0.41
652,-2.81,-2.43,-2.83,-2.45,2.45,2.35,-0.37,-0.38,-0.38
659,-2.76,-2.41,-2.77,-2.42,2.42,2.28,-0.35,-0.36,-0.36
665,-2.71,-2.38,-2.72,-2.39,2.39,2.22,-0.33,-0.33,-0.33
672,-2.66,-2.35,-2.67,-2.35,2.35,2.15,-0.31,-0.31,-0.31
679,-2.62,-2.33,-2.61,-2.32,2.32,2.09,-0.31,-0.29,-0.29
686,-2.59,-2.32,-2.55,-2.28,2.28,2.02,-0.32,-0.28,-0.28
692,-2.51,-2.25,-2.50,-2.23,2.23,1.96,-0.28,-0.26,-0.26
699,-2.40,-2.15,-2.44,-2.18,2.18,1.90,-0.22,-0.25,-0.25
706,-2.34,-2.10,-2.38,-2.13,2.13,1.84,-0.21,-0.24,-0.24
713,-2.30,-2.07,-2.32,-2.08,2.08,1.78,-0.22,-0.24,-0.24
721,-2.26,-2.03,-2.25,-2.02,2.02,1.71,-0.24,-0.23,-0.23
728,-2.22,-1.99,-2.19,-1.96,1.96,1.65,-0.26,-0.23,-0.23
735,-2.16,-1.94,-2.13,-1.90,1.90,1.59,-0.26,-0.23,-0.23
742,-2.04,-1.81,-2.06,-1.83,1.83,1.53,-0.21,-0.23,-0.23
750,-1.96,-1.73,-2.00,-1.77,1.77,1.47,-0.20,-0.23,-0.23
757,-1.92,-1.69,-1.93,-1.70,1.70,1.41,-0.23,-0.23,-0.23
765,-1.88,-1.64,-1.87,-1.63,1.63,1.35,-0.25,-0.24,-0.24
773,-1.84,-1.60,-1.80,-1.56,1.56,1.28,-0.28,-0.24,-0.24
780,-1.74,-1.50,-1.74,-1.49,1.49,1.23,-0.25,-0.25,-0.25
788,-1.62,-1.37,-1.67,-1.42,1.42,1.17,-0.20,-0.25,-0.25
796,-1.58,-1.33,-1.61,-1.36,1.36,1.11,-0.22,-0.25,-0.25
804,-1.55,-1.30,-1.55,-1.30,1.30,1.05,-0.26,-0.26,-0.26
812,-1.52,-1.26,-1.49,-1.23,1.23,0.99,-0.29,-0.26,-0.26
820,-1.45,-1.19,-1.43,-1.17,1.17,0.93,-0.28,-0.26,-0.26
828,-1.37,-1.11,-1.37,-1.11,1.11,0.88,-0.26,-0.26,-0.26
837,-1.29,-1.03,-1.31,-1.05,1.05,0.81,-0.24,-0.26,-0.26
845,-1.24,-0.99,-1.25,-0.99,0.99,0.76,-0.25,-0.26,-0.26
853,-1.20,-0.95,-1.18,-0.93,0.93,0.70,-0.27,-0.25,-0.25
862,-1.13,-0.88,-1.12,-0.87,0.87,0.64,-0.26,-0.25,-0.25
871,-1.04,-0.80,-1.05,-0.81,0.81,0.58,-0.24,-0.24,-0.24
879,-0.96,-0.73,-0.98,-0.74,0.74,0.53,-0.22,-0.23,-0.23
888,-0.92,-0.70,-0.91,-0.68,0.68,0.47,-0.24,-0.23,-0.22
897,-0.83,-0.62,-0.83,-0.62,0.62,0.41,-0.21,-0.21,-0.21
906,-0.73,-0.53,-0.76,-0.56,0.56,0.35,-0.17,-0.20,-0.20
915,-0.70,-0.51,-0.69,-0.51,0.51,0.30,-0.20,-0.19,-0.19
924,-0.64,-0.47,-0.62,-0.45,0.45,0.24,-0.19,-0.17,-0.17
933,-0.51,-0.36,-0.55,-0.40,0.40,0.18,-0.11,-0.16,-0.16
943,-0.48,-0.35,-0.48,-0.35,0.35,0.12,-0.14,-0.14,-0.14
952,-0.41,-0.30,-0.41,-0.29,0.29,0.06,-0.12,-0.12,-0.12
962,-0.35,-0.26,-0.33,-0.24,0.24,-0.00,-0.11,-0.09,-0.09
971,-0.28,-0.21,-0.25,-0.18,0.18,-0.06,-0.10,-0.07,-0.07
981,-0.17,-0.13,-0.16,-0.12,0.12,-0.12,-0.05,-0.04,-0.04
991,-0.06,-0.05,-0.07,-0.06,0.06,-0.18,-0.00,-0.01,-0.01
1001,0.01,-0.01,0.02,0.00,-0.00,-0.24,0.00,0.02,0.02
1011,0.14,0.09,0.12,0.07,-0.07,-0.30,0.07,0.05,0.05
1021,0.22,0.13,0.21,0.13,-0.13,-0.36,0.09,0.08,0.08
1031,0.32,0.20,0.30,0.18,-0.18,-0.42,0.13,0.12,0.12
1041,0.42,0.26,0.40,0.24,-0.24,-0.48,0.18,0.16,0.16
1052,0.46,0.26,0.49,0.29,-0.29,-0.55,0.17,0.20,0.20
1062,0.62,0.37,0.58,0.34,-0.34,-0.61,0.28,0.24,0.24
1073,0.66,0.37,0.67,0.38,-0.38,-0.68,0.27,0.29,0.29
1084,0.76,0.43,0.77,0.43,-0.43,-0.75,0.32,0.33,0.33
1094,0.84,0.46,0.86,0.48,-0.48,-0.81,0.35,0.38,0.38
1105,0.96,0.53,0.96,0.54,-0.54,-0.87,0.42,0.42,0.42
1116,1.07,0.60,1.07,0.59,-0.59,-0.94,0.47,0.47,0.47
1128,1.19,0.67,1.17,0.65,-0.65,-1.01,0.53,0.52,0.52
1139,1.30,0.73,1.28,0.72,-0.72,-1.08,0.58,0.57,0.57
1150,1.40,0.78,1.39,0.78,-0.78,-1.15,0.62,0.61,0.61
1162,1.51,0.85,1.51,0.85,-0.85,-1.23,0.66,0.66,0.66
1173,1.61,0.90,1.62,0.92,-0.92,-1.29,0.69,0.70,0.70
1185,1.74,0.99,1.74,0.99,-0.99,-1.37,0.75,0.75,0.75
1197,1.87,1.08,1.86,1.07,-1.07,-1.45,0.80,0.79,0.79
1209,1.96,1.13,1.98,1.16,-1.16,-1.52,0.80,0.82,0.82
1221,2.12,1.26,2.11,1.25,-1.25,-1.60,0.87,0.86,0.86
1233,2.24,1.34,2.23,1.34,-1.34,-1.68,0.89,0.89,0.89
1246,2.36,1.44,2.37,1.45,-1.45,-1.76,0.91,0.92,0.92
1258,2.52,1.57,2.50,1.56,-1.56,-1.84,0.96,0.95,0.95
1271,2.62,1.65,2.64,1.67,-1.67,-1.92,0.95,0.97,0.97
1283,2.79,1.80,2.78,1.79,-1.79,-2.00,1.00,0.99,0.99
1296,2.94,1.93,2.92,1.91,-1.91,-2.09,1.02,1.00,1.00
1309,3.05,2.03,3.06,2.04,-2.04,-2.18,1.00,1.01,1.02
1322,3.21,2.18,3.20,2.18,-2.18,-2.27,1.03,1.02,1.02
1335,3.34,2.31,3.35,2.32,-2.32,-2.36,1.02,1.03,1.03
1349,3.49,2.45,3.50,2.47,-2.47,-2.46,1.02,1.03,1.03
1362,3.66,2.62,3.65,2.62,-2.62,-2.55,1.04,1.03,1.03
1376,3.82,2.78,3.80,2.77,-2.77,-2.65,1.05,1.03,1.03
1390,3.95,2.92,3.96,2.93,-2.93,-2.75,1.02,1.03,1.03
1404,4.12,3.09,4.12,3.09,-3.09,-2.85,1.03,1.03,1.03
1418,4.27,3.24,4.28,3.25,-3.25,-2.95,1.01,1.03,1.03
1432,4.46,3.43,4.44,3.42,-3.42,-3.05,1.04,1.02,1.02
1446,4.61,3.58,4.60,3.58,-3.58,-3.15,1.03,1.02,1.02
1461,4.77,3.74,4.77,3.74,-3.74,-3.27,1.02,1.02,1.02
1475,4.93,3.90,4.93,3.91,-3.91,-3.37,1.02,1.03,1.03
1490,5.11,4.08,5.09,4.06,-4.06,-3.49,1.04,1.03,1.03
1505,5.26,4.22,5.26,4.22,-4.22,-3.60,1.04,1.04,1.04
1520,5.40,4.34,5.42,4.37,-4.37,-3.72,1.03,1.05,1.05
1535,5.59,4.52,5.58,4.51,-4.51,-3.83,1.08,1.07,1.07
1550,5.76,4.66,5.74,4.65,-4.65,-3.95,1.11,1.09,1.09
1566,5.92,4.80,5.91,4.79,-4.79,-4.08,1.13,1.12,1.12
1582,6.07,4.91,6.07,4.92,-4.92,-4.20,1.15,1.16,1.15
1597,6.22,5.02,6.23,5.04,-5.04,-4.32,1.18,1.19,1.19
1613,6.42,5.18,6.40,5.16,-5.16,-4.45,1.26,1.24,1.24
1629,6.55,5.26,6.57,5.28,-5.28,-4.57,1.27,1.29,1.29
1646,6.73,5.38,6.74,5.39,-5.39,-4.71,1.34,1.35,1.35
1662,6.93,5.51,6.91,5.49,-5.49,-4.84,1.43,1.41,1.41
1679,7.09,5.60,7.08,5.60,-5.60,-4.97,1.49,1.48,1.48
1696,7.25,5.69,7.25,5.69,-5.69,-5.10,1.55,1.56,1.56
1713,7.41,5.77,7.43,5.79,-5.79,-5.23,1.62,1.64,1.64
1730,7.61,5.88,7.60,5.88,-5.88,-5.36,1.73,1.73,1.73
1747,7.78,5.96,7.78,5.96,-5.96,-5.49,1.82,1.82,1.82
1764,7.96,6.04,7.95,6.04,-6.04,-5.62,1.92,1.91,1.91
1782,8.12,6.11,8.12,6.11,-6.11,-5.74,2.01,2.01,2.01
