frequency,raw
20.00,-10.53
20.20,-10.44
20.40,-10.36
20.61,-10.27
20.81,-10.19
21.02,-10.11
21.23,-10.03
21.44,-9.95
21.66,-9.88
21.87,-9.80
22.09,-9.73
22.31,-9.66
22.54,-9.59
22.76,-9.52
22.99,-9.46
23.22,-9.39
23.45,-9.33
23.69,-9.27
23.92,-9.21
24.16,-9.15
24.40,-9.10
24.65,-9.04
24.89,-8.99
25.14,-8.93
25.39,-8.88
25.65,-8.82
25.91,-8.76
26.16,-8.70
26.43,-8.65
26.69,-8.59
26.96,-8.53
27.23,-8.47
27.50,-8.42
27.77,-8.36
28.05,-8.29
28.33,-8.22
28.62,-8.15
28.90,-8.08
29.19,-8.00
29.48,-7.92
29.78,-7.83
30.08,-7.74
30.38,-7.65
30.68,-7.55
30.99,-7.44
31.30,-7.33
31.61,-7.22
31.93,-7.10
32.24,-6.98
32.57,-6.85
32.89,-6.73
33.22,-6.61
33.55,-6.49
33.89,-6.38
34.23,-6.26
34.57,-6.14
34.92,-6.01
35.27,-5.87
35.62,-5.72
35.97,-5.56
36.33,-5.42
36.70,-5.28
37.06,-5.16
37.43,-5.04
37.81,-4.92
38.19,-4.79
38.57,-4.66
38.95,-4.54
39.34,-4.42
39.74,-4.31
40.14,-4.20
40.54,-4.10
40.94,-4.01
41.35,-3.91
41.76,-3.82
42.18,-3.73
42.60,-3.64
43.03,-3.55
43.46,-3.46
43.90,-3.37
44.33,-3.28
44.78,-3.20
45.23,-3.11
45.68,-3.02
46.13,-2.94
46.60,-2.85
47.06,-2.76
47.53,-2.67
48.01,-2.58
48.49,-2.50
48.97,-2.42
49.46,-2.33
49.96,-2.24
50.46,-2.16
50.96,-2.07
51.47,-1.99
51.99,-1.91
52.51,-1.82
53.03,-1.74
53.56,-1.66
54.10,-1.58
54.64,-1.50
55.18,-1.43
55.74,-1.35
56.29,-1.28
56.86,-1.21
57.42,-1.15
58.00,-1.08
58.58,-1.02
59.16,-0.95
59.76,-0.89
60.35,-0.83
60.96,-0.77
61.57,-0.72
62.18,-0.67
62.80,-0.61
63.43,-0.56
64.07,-0.50
64.71,-0.45
65.35,-0.39
66.01,-0.33
66.67,-0.28
67.33,-0.22
68.01,-0.17
68.69,-0.11
69.37,-0.05
70.07,0.01
70.77,0.07
71.48,0.12
72.19,0.18
72.91,0.23
73.64,0.28
74.38,0.33
75.12,0.37
75.87,0.42
76.63,0.46
77.40,0.50
78.17,0.54
78.95,0.58
79.74,0.62
80.54,0.65
81.35,0.68
82.16,0.70
82.98,0.71
83.81,0.72
84.65,0.73
85.50,0.74
86.35,0.74
87.22,0.74
88.09,0.73
88.97,0.72
89.86,0.70
90.76,0.68
91.66,0.65
92.58,0.62
93.51,0.58
94.44,0.54
95.39,0.50
96.34,0.45
97.30,0.40
98.28,0.35
99.26,0.30
100.25,0.26
101.25,0.21
102.27,0.17
103.29,0.13
104.32,0.10
105.37,0.06
106.42,0.03
107.48,-0.00
108.56,-0.03
109.64,-0.05
110.74,-0.07
111.85,-0.10
112.97,-0.13
114.10,-0.16
115.24,-0.19
116.39,-0.23
117.55,-0.26
118.73,-0.31
119.92,-0.36
121.12,-0.42
122.33,-0.48
123.55,-0.55
124.79,-0.62
126.03,-0.70
127.29,-0.78
128.57,-0.87
129.85,-0.96
131.15,-1.05
132.46,-1.15
133.79,-1.25
135.12,-1.36
136.48,-1.47
137.84,-1.58
139.22,-1.70
140.61,-1.81
142.02,-1.92
143.44,-2.03
144.87,-2.14
146.32,-2.25
147.78,-2.35
149.26,-2.45
150.75,-2.54
152.26,-2.63
153.78,-2.70
155.32,-2.77
156.88,-2.83
158.44,-2.88
160.03,-2.92
161.63,-2.95
163.24,-2.97
164.88,-2.99
166.53,-2.99
168.19,-2.99
169.87,-2.98
171.57,-2.96
173.29,-2.94
175.02,-2.91
176.77,-2.88
178.54,-2.84
180.32,-2.79
182.13,-2.75
183.95,-2.70
185.79,-2.66
187.65,-2.62
189.52,-2.57
191.42,-2.52
193.33,-2.47
195.27,-2.41
197.22,-2.36
199.19,-2.31
201.18,-2.26
203.19,-2.21
205.23,-2.15
207.28,-2.09
209.35,-2.02
211.44,-1.96
213.56,-1.89
215.69,-1.82
217.85,-1.75
220.03,-1.68
222.23,-1.62
224.45,-1.56
226.70,-1.50
228.96,-1.45
231.25,-1.40
233.57,-1.36
235.90,-1.32
238.26,-1.29
240.64,-1.26
243.05,-1.24
245.48,-1.22
247.93,-1.20
250.41,-1.19
252.92,-1.17
255.45,-1.16
258.00,-1.14
260.58,-1.11
263.19,-1.08
265.82,-1.04
268.48,-0.98
271.16,-0.92
273.87,-0.85
276.61,-0.78
279.38,-0.72
282.17,-0.65
284.99,-0.58
287.84,-0.50
290.72,-0.42
293.63,-0.32
296.57,-0.23
299.53,-0.12
302.53,-0.01
305.55,0.11
308.61,0.23
311.69,0.35
314.81,0.47
317.96,0.59
321.14,0.71
324.35,0.83
327.59,0.96
330.87,1.10
334.18,1.24
337.52,1.38
340.90,1.51
344.30,1.64
347.75,1.77
351.23,1.89
354.74,2.01
358.28,2.12
361.87,2.23
365.49,2.33
369.14,2.42
372.83,2.50
376.56,2.57
380.33,2.64
384.13,2.70
387.97,2.76
391.85,2.81
395.77,2.87
399.73,2.91
403.72,2.96
407.76,3.00
411.84,3.04
415.96,3.08
420.12,3.10
424.32,3.12
428.56,3.13
432.85,3.14
437.18,3.15
441.55,3.16
445.96,3.17
450.42,3.18
454.93,3.20
459.48,3.22
464.07,3.24
468.71,3.26
473.40,3.28
478.13,3.29
482.91,3.29
487.74,3.29
492.62,3.29
497.55,3.28
502.52,3.27
507.55,3.27
512.62,3.25
517.75,3.24
522.93,3.22
528.16,3.20
533.44,3.18
538.77,3.16
544.16,3.14
549.60,3.12
555.10,3.10
560.65,3.09
566.25,3.08
571.92,3.07
577.64,3.06
583.41,3.05
589.25,3.04
595.14,3.04
601.09,3.03
607.10,3.03
613.17,3.04
619.30,3.06
625.50,3.07
631.75,3.09
638.07,3.10
644.45,3.10
650.89,3.09
657.40,3.09
663.98,3.09
670.62,3.09
677.32,3.07
684.10,3.04
690.94,3.00
697.85,2.95
704.83,2.89
711.87,2.84
718.99,2.79
726.18,2.74
733.44,2.68
740.78,2.62
748.19,2.55
755.67,2.48
763.23,2.41
770.86,2.33
778.57,2.26
786.35,2.18
794.22,2.10
802.16,2.01
810.18,1.92
818.28,1.83
826.46,1.74
834.73,1.65
843.08,1.56
851.51,1.46
860.02,1.37
868.62,1.27
877.31,1.17
886.08,1.07
894.94,0.98
903.89,0.88
912.93,0.78
922.06,0.69
931.28,0.60
940.59,0.51
950.00,0.42
959.50,0.34
969.09,0.25
978.78,0.17
988.57,0.09
998.46,0.01
1008.44,-0.06
1018.53,-0.12
1028.71,-0.18
1039.00,-0.23
1049.39,-0.28
1059.88,-0.32
1070.48,-0.35
1081.19,-0.37
1092.00,-0.39
1102.92,-0.38
1113.95,-0.37
1125.09,-0.35
1136.34,-0.32
1147.70,-0.28
1159.18,-0.23
1170.77,-0.18
1182.48,-0.11
1194.30,-0.04
1206.25,0.03
1218.31,0.11
1230.49,0.19
1242.80,0.26
1255.22,0.34
1267.78,0.42
1280.45,0.49
1293.26,0.57
1306.19,0.65
1319.25,0.73
1332.45,0.81
1345.77,0.89
1359.23,0.97
1372.82,1.05
1386.55,1.13
1400.41,1.21
1414.42,1.29
1428.56,1.37
1442.85,1.45
1457.28,1.52
1471.85,1.60
1486.57,1.66
1501.43,1.72
1516.45,1.80
1531.61,1.89
1546.93,2.01
1562.40,2.15
1578.02,2.30
1593.80,2.45
1609.74,2.58
1625.84,2.71
1642.10,2.83
1658.52,2.94
1675.10,3.04
1691.85,3.16
1708.77,3.30
1725.86,3.45
1743.12,3.61
1760.55,3.79
1778.15,3.96
1795.94,4.14
1813.90,4.32
1832.03,4.50
1850.36,4.68
1868.86,4.87
1887.55,5.06
1906.42,5.26
1925.49,5.46
1944.74,5.67
1964.19,5.89
1983.83,6.11
2003.67,6.34
2023.71,6.58
2043.94,6.83
2064.38,7.08
2085.03,7.33
2105.88,7.57
2126.94,7.80
2148.20,8.01
2169.69,8.22
2191.38,8.43
2213.30,8.63
2235.43,8.83
2257.78,9.01
2280.36,9.18
2303.17,9.35
2326.20,9.51
2349.46,9.69
2372.95,9.89
2396.68,10.11
2420.65,10.31
2444.86,10.49
2469.31,10.65
2494.00,10.82
2518.94,11.00
2544.13,11.17
2569.57,11.34
2595.27,11.49
2621.22,11.63
2647.43,11.76
2673.90,11.87
2700.64,11.97
2727.65,12.04
2754.93,12.10
2782.48,12.13
2810.30,12.16
2838.40,12.17
2866.79,12.17
2895.46,12.16
2924.41,12.11
2953.65,12.06
2983.19,12.00
3013.02,11.92
3043.15,11.83
3073.58,11.69
3104.32,11.53
3135.36,11.37
3166.72,11.25
3198.38,11.15
3230.37,11.11
3262.67,11.07
3295.30,11.03
3328.25,11.00
3361.53,10.95
3395.15,10.89
3429.10,10.78
3463.39,10.64
3498.03,10.46
3533.01,10.24
3568.34,10.01
3604.02,9.77
3640.06,9.52
3676.46,9.23
3713.22,8.94
3750.36,8.62
3787.86,8.33
3825.74,8.05
3864.00,7.80
3902.64,7.54
3941.66,7.27
3981.08,6.97
4020.89,6.65
4061.10,6.31
4101.71,5.97
4142.73,5.64
4184.15,5.31
4226.00,5.00
4268.26,4.69
4310.94,4.39
4354.05,4.08
4397.59,3.77
4441.56,3.45
4485.98,3.13
4530.84,2.81
4576.15,2.51
4621.91,2.22
4668.13,1.97
4714.81,1.72
4761.96,1.49
4809.58,1.27
4857.67,1.08
4906.25,0.96
4955.31,0.86
5004.87,0.81
5054.91,0.83
5105.46,0.90
5156.52,1.04
5208.08,1.31
5260.16,1.71
5312.77,2.17
5365.89,2.70
5419.55,3.18
5473.75,3.57
5528.49,3.86
5583.77,4.06
5639.61,4.19
5696.00,4.31
5752.96,4.40
5810.49,4.49
5868.60,4.60
5927.28,4.74
5986.56,4.92
6046.42,5.15
6106.89,5.42
6167.96,5.72
6229.64,6.05
6291.93,6.39
6354.85,6.72
6418.40,7.04
6482.58,7.33
6547.41,7.60
6612.88,7.84
6679.01,8.03
6745.80,8.16
6813.26,8.23
6881.39,8.19
6950.21,8.05
7019.71,7.82
7089.91,7.49
7160.81,7.06
7232.41,6.59
7304.74,6.10
7377.79,5.68
7451.56,5.37
7526.08,5.18
7601.34,5.09
7677.35,5.07
7754.13,5.08
7831.67,5.11
7909.98,5.17
7989.08,5.30
8068.98,5.58
8149.67,5.93
8231.16,6.38
8313.47,6.78
8396.61,7.10
8480.57,7.10
8565.38,6.62
8651.03,5.73
8737.54,4.40
8824.92,2.70
8913.17,0.91
9002.30,-0.88
9092.32,-2.40
9183.25,-3.56
9275.08,-4.38
9367.83,-4.69
9461.51,-4.76
9556.12,-4.76
9651.68,-4.70
9748.20,-4.53
9845.68,-3.87
9944.14,-2.78
10043.58,-1.32
10144.02,0.31
10245.46,1.84
10347.91,3.10
10451.39,3.97
10555.91,4.12
10661.46,3.85
10768.08,3.23
10875.76,2.39
10984.52,1.65
11094.36,1.04
11205.31,0.64
11317.36,0.66
11430.53,0.94
11544.84,1.83
11660.29,3.12
11776.89,4.43
11894.66,5.10
12013.60,5.61
12133.74,5.38
12255.08,4.41
12377.63,3.09
12501.41,1.68
12626.42,0.39
12752.68,-0.66
12880.21,-1.35
13009.01,-1.87
13139.10,-2.38
13270.49,-2.61
13403.20,-2.78
13537.23,-2.83
13672.60,-2.78
13809.33,-2.61
13947.42,-2.19
14086.90,-1.74
14227.77,-1.28
14370.04,-1.06
14513.74,-1.18
14658.88,-1.97
14805.47,-2.89
14953.52,-4.03
15103.06,-4.79
15254.09,-5.36
15406.63,-5.22
15560.70,-5.00
15716.30,-4.64
15873.47,-4.11
16032.20,-3.49
16192.52,-2.72
16354.45,-2.18
16517.99,-1.87
16683.17,-2.51
16850.01,-3.86
17018.51,-5.70
17188.69,-7.67
17360.58,-8.58
17534.18,-8.63
17709.53,-7.57
17886.62,-6.15
18065.49,-4.77
18246.14,-3.61
18428.60,-3.03
18612.89,-2.70
18799.02,-2.54
18987.01,-2.44
19176.88,-2.45
19368.65,-2.68
19562.33,-3.19
19757.96,-3.99
19955.54,-4.79
