frequency,raw
20.00,4.24
20.20,4.22
20.40,4.21
20.61,4.19
20.81,4.17
21.02,4.15
21.23,4.13
21.44,4.12
21.66,4.10
21.87,4.08
22.09,4.07
22.31,4.05
22.54,4.04
22.76,4.03
22.99,4.02
23.22,4.01
23.45,4.01
23.69,4.00
23.92,4.00
24.16,4.00
24.40,4.00
24.65,4.00
24.89,4.01
25.14,4.01
25.39,4.02
25.65,4.03
25.91,4.04
26.16,4.05
26.43,4.06
26.69,4.06
26.96,4.07
27.23,4.07
27.50,4.08
27.77,4.09
28.05,4.09
28.33,4.10
28.62,4.10
28.90,4.11
29.19,4.11
29.48,4.12
29.78,4.12
30.08,4.13
30.38,4.13
30.68,4.14
30.99,4.15
31.30,4.15
31.61,4.16
31.93,4.17
32.24,4.17
32.57,4.17
32.89,4.18
33.22,4.19
33.55,4.19
33.89,4.20
34.23,4.21
34.57,4.21
34.92,4.22
35.27,4.22
35.62,4.22
35.97,4.21
36.33,4.21
36.70,4.20
37.06,4.19
37.43,4.18
37.81,4.17
38.19,4.16
38.57,4.15
38.95,4.13
39.34,4.11
39.74,4.09
40.14,4.08
40.54,4.06
40.94,4.05
41.35,4.03
41.76,4.02
42.18,4.01
42.60,4.00
43.03,4.00
43.46,4.00
43.90,4.00
44.33,4.00
44.78,4.00
45.23,4.00
45.68,4.00
46.13,3.99
46.60,3.98
47.06,3.96
47.53,3.95
48.01,3.93
48.49,3.91
48.97,3.89
49.46,3.88
49.96,3.87
50.46,3.86
50.96,3.85
51.47,3.85
51.99,3.85
52.51,3.84
53.03,3.84
53.56,3.84
54.10,3.84
54.64,3.84
55.18,3.84
55.74,3.83
56.29,3.82
56.86,3.82
57.42,3.81
58.00,3.81
58.58,3.81
59.16,3.80
59.76,3.79
60.35,3.78
60.96,3.77
61.57,3.76
62.18,3.73
62.80,3.72
63.43,3.70
64.07,3.68
64.71,3.67
65.35,3.66
66.01,3.65
66.67,3.63
67.33,3.62
68.01,3.61
68.69,3.61
69.37,3.62
70.07,3.62
70.77,3.63
71.48,3.65
72.19,3.67
72.91,3.70
73.64,3.73
74.38,3.77
75.12,3.82
75.87,3.87
76.63,3.92
77.40,3.98
78.17,4.04
78.95,4.10
79.74,4.16
80.54,4.22
81.35,4.29
82.16,4.36
82.98,4.42
83.81,4.49
84.65,4.56
85.50,4.63
86.35,4.71
87.22,4.78
88.09,4.86
88.97,4.94
89.86,5.02
90.76,5.09
91.66,5.14
92.58,5.19
93.51,5.22
94.44,5.24
95.39,5.27
96.34,5.29
97.30,5.30
98.28,5.31
99.26,5.31
100.25,5.31
101.25,5.31
102.27,5.29
103.29,5.26
104.32,5.23
105.37,5.18
106.42,5.12
107.48,5.06
108.56,4.98
109.64,4.90
110.74,4.80
111.85,4.69
112.97,4.57
114.10,4.44
115.24,4.30
116.39,4.15
117.55,4.00
118.73,3.84
119.92,3.67
121.12,3.51
122.33,3.34
123.55,3.16
124.79,2.99
126.03,2.81
127.29,2.64
128.57,2.46
129.85,2.28
131.15,2.10
132.46,1.91
133.79,1.73
135.12,1.54
136.48,1.36
137.84,1.17
139.22,0.99
140.61,0.81
142.02,0.64
143.44,0.47
144.87,0.31
146.32,0.16
147.78,0.01
149.26,-0.12
150.75,-0.25
152.26,-0.37
153.78,-0.48
155.32,-0.58
156.88,-0.67
158.44,-0.76
160.03,-0.85
161.63,-0.93
163.24,-1.00
164.88,-1.06
166.53,-1.10
168.19,-1.14
169.87,-1.18
171.57,-1.21
173.29,-1.23
175.02,-1.26
176.77,-1.27
178.54,-1.29
180.32,-1.30
182.13,-1.30
183.95,-1.30
185.79,-1.29
187.65,-1.28
189.52,-1.27
191.42,-1.26
193.33,-1.24
195.27,-1.23
197.22,-1.21
199.19,-1.19
201.18,-1.17
203.19,-1.16
205.23,-1.14
207.28,-1.12
209.35,-1.11
211.44,-1.09
213.56,-1.08
215.69,-1.07
217.85,-1.06
220.03,-1.05
222.23,-1.03
224.45,-1.02
226.70,-1.02
228.96,-1.02
231.25,-1.02
233.57,-1.02
235.90,-1.03
238.26,-1.02
240.64,-1.01
243.05,-1.00
245.48,-0.97
247.93,-0.94
250.41,-0.92
252.92,-0.89
255.45,-0.87
258.00,-0.85
260.58,-0.83
263.19,-0.81
265.82,-0.79
268.48,-0.78
271.16,-0.76
273.87,-0.75
276.61,-0.74
279.38,-0.71
282.17,-0.69
284.99,-0.67
287.84,-0.65
290.72,-0.64
293.63,-0.62
296.57,-0.60
299.53,-0.58
302.53,-0.57
305.55,-0.55
308.61,-0.53
311.69,-0.51
314.81,-0.49
317.96,-0.47
321.14,-0.45
324.35,-0.43
327.59,-0.42
330.87,-0.41
334.18,-0.40
337.52,-0.40
340.90,-0.40
344.30,-0.41
347.75,-0.42
351.23,-0.43
354.74,-0.42
358.28,-0.41
361.87,-0.39
365.49,-0.37
369.14,-0.35
372.83,-0.34
376.56,-0.33
380.33,-0.32
384.13,-0.31
387.97,-0.30
391.85,-0.29
395.77,-0.27
399.73,-0.27
403.72,-0.27
407.76,-0.26
411.84,-0.25
415.96,-0.24
420.12,-0.24
424.32,-0.24
428.56,-0.24
432.85,-0.23
437.18,-0.22
441.55,-0.21
445.96,-0.20
450.42,-0.19
454.93,-0.18
459.48,-0.17
464.07,-0.15
468.71,-0.14
473.40,-0.12
478.13,-0.11
482.91,-0.10
487.74,-0.10
492.62,-0.09
497.55,-0.09
502.52,-0.08
507.55,-0.07
512.62,-0.06
517.75,-0.05
522.93,-0.05
528.16,-0.04
533.44,-0.03
538.77,-0.01
544.16,0.00
549.60,0.02
555.10,0.03
560.65,0.04
566.25,0.05
571.92,0.06
577.64,0.07
583.41,0.07
589.25,0.07
595.14,0.07
601.09,0.07
607.10,0.06
613.17,0.05
619.30,0.04
625.50,0.03
631.75,0.02
638.07,0.01
644.45,-0.01
650.89,-0.02
657.40,-0.03
663.98,-0.04
670.62,-0.04
677.32,-0.05
684.10,-0.05
690.94,-0.05
697.85,-0.05
704.83,-0.05
711.87,-0.06
718.99,-0.06
726.18,-0.07
733.44,-0.08
740.78,-0.09
748.19,-0.10
755.67,-0.11
763.23,-0.12
770.86,-0.13
778.57,-0.14
786.35,-0.15
794.22,-0.15
802.16,-0.15
810.18,-0.14
818.28,-0.13
826.46,-0.11
834.73,-0.09
843.08,-0.07
851.51,-0.05
860.02,-0.03
868.62,-0.00
877.31,0.02
886.08,0.04
894.94,0.05
903.89,0.06
912.93,0.07
922.06,0.06
931.28,0.05
940.59,0.04
950.00,0.03
959.50,0.02
969.09,0.01
978.78,0.00
988.57,-0.00
998.46,-0.00
1008.44,0.01
1018.53,0.02
1028.71,0.04
1039.00,0.06
1049.39,0.07
1059.88,0.09
1070.48,0.10
1081.19,0.12
1092.00,0.14
1102.92,0.17
1113.95,0.19
1125.09,0.22
1136.34,0.25
1147.70,0.28
1159.18,0.31
1170.77,0.34
1182.48,0.37
1194.30,0.40
1206.25,0.43
1218.31,0.47
1230.49,0.51
1242.80,0.54
1255.22,0.58
1267.78,0.62
1280.45,0.66
1293.26,0.69
1306.19,0.73
1319.25,0.76
1332.45,0.78
1345.77,0.80
1359.23,0.82
1372.82,0.84
1386.55,0.88
1400.41,0.92
1414.42,0.97
1428.56,1.03
1442.85,1.09
1457.28,1.15
1471.85,1.22
1486.57,1.29
1501.43,1.36
1516.45,1.42
1531.61,1.50
1546.93,1.57
1562.40,1.65
1578.02,1.73
1593.80,1.83
1609.74,1.92
1625.84,2.01
1642.10,2.11
1658.52,2.22
1675.10,2.33
1691.85,2.47
1708.77,2.61
1725.86,2.75
1743.12,2.90
1760.55,3.05
1778.15,3.20
1795.94,3.36
1813.90,3.52
1832.03,3.69
1850.36,3.86
1868.86,4.03
1887.55,4.20
1906.42,4.36
1925.49,4.52
1944.74,4.68
1964.19,4.85
1983.83,5.04
2003.67,5.26
2023.71,5.50
2043.94,5.76
2064.38,6.02
2085.03,6.26
2105.88,6.48
2126.94,6.68
2148.20,6.86
2169.69,7.04
2191.38,7.23
2213.30,7.43
2235.43,7.64
2257.78,7.86
2280.36,8.07
2303.17,8.29
2326.20,8.48
2349.46,8.68
2372.95,8.88
2396.68,9.09
2420.65,9.32
2444.86,9.54
2469.31,9.75
2494.00,9.94
2518.94,10.11
2544.13,10.25
2569.57,10.36
2595.27,10.46
2621.22,10.54
2647.43,10.61
2673.90,10.65
2700.64,10.65
2727.65,10.60
2754.93,10.48
2782.48,10.33
2810.30,10.16
2838.40,10.01
2866.79,9.86
2895.46,9.73
2924.41,9.61
2953.65,9.50
2983.19,9.39
3013.02,9.30
3043.15,9.21
3073.58,9.12
3104.32,9.05
3135.36,8.97
3166.72,8.89
3198.38,8.82
3230.37,8.73
3262.67,8.65
3295.30,8.57
3328.25,8.48
3361.53,8.40
3395.15,8.30
3429.10,8.19
3463.39,8.08
3498.03,7.96
3533.01,7.84
3568.34,7.70
3604.02,7.55
3640.06,7.39
3676.46,7.24
3713.22,7.10
3750.36,6.99
3787.86,6.90
3825.74,6.82
3864.00,6.74
3902.64,6.69
3941.66,6.64
3981.08,6.58
4020.89,6.49
4061.10,6.39
4101.71,6.26
4142.73,6.13
4184.15,6.00
4226.00,5.90
4268.26,5.80
4310.94,5.71
4354.05,5.62
4397.59,5.53
4441.56,5.43
4485.98,5.30
4530.84,5.16
4576.15,5.00
4621.91,4.84
4668.13,4.68
4714.81,4.53
4761.96,4.39
4809.58,4.26
4857.67,4.15
4906.25,4.04
4955.31,3.95
5004.87,3.87
5054.91,3.81
5105.46,3.77
5156.52,3.74
5208.08,3.75
5260.16,3.77
5312.77,3.81
5365.89,3.87
5419.55,3.96
5473.75,4.08
5528.49,4.23
5583.77,4.42
5639.61,4.63
5696.00,4.85
5752.96,5.07
5810.49,5.28
5868.60,5.48
5927.28,5.66
5986.56,5.84
6046.42,6.01
6106.89,6.17
6167.96,6.32
6229.64,6.47
6291.93,6.63
6354.85,6.79
6418.40,6.96
6482.58,7.15
6547.41,7.36
6612.88,7.57
6679.01,7.80
6745.80,8.03
6813.26,8.26
6881.39,8.47
6950.21,8.66
7019.71,8.82
7089.91,8.96
7160.81,9.06
7232.41,9.15
7304.74,9.23
7377.79,9.32
7451.56,9.42
7526.08,9.53
7601.34,9.66
7677.35,9.83
7754.13,10.01
7831.67,10.19
7909.98,10.39
7989.08,10.60
8068.98,10.84
8149.67,11.06
8231.16,11.27
8313.47,11.32
8396.61,11.24
8480.57,10.80
8565.38,9.86
8651.03,8.53
8737.54,6.80
8824.92,4.73
8913.17,2.54
9002.30,0.32
9092.32,-1.76
9183.25,-3.68
9275.08,-5.37
9367.83,-6.65
9461.51,-6.93
9556.12,-6.58
9651.68,-5.88
9748.20,-5.09
9845.68,-4.41
9944.14,-3.80
10043.58,-3.24
10144.02,-2.70
10245.46,-2.15
10347.91,-1.61
10451.39,-1.10
10555.91,-0.66
10661.46,-0.25
10768.08,0.13
10875.76,0.52
10984.52,0.90
11094.36,1.25
11205.31,1.54
11317.36,1.68
11430.53,1.77
11544.84,1.74
11660.29,1.65
11776.89,1.50
11894.66,1.13
12013.60,0.73
12133.74,0.12
12255.08,-0.77
12377.63,-1.82
12501.41,-3.01
12626.42,-4.30
12752.68,-5.54
12880.21,-6.51
13009.01,-7.34
13139.10,-8.16
13270.49,-8.49
13403.20,-8.67
13537.23,-8.57
13672.60,-8.41
13809.33,-8.21
13947.42,-8.13
14086.90,-8.20
14227.77,-8.36
14370.04,-8.57
14513.74,-8.80
14658.88,-8.94
14805.47,-9.02
14953.52,-9.00
15103.06,-8.77
15254.09,-8.42
15406.63,-7.50
15560.70,-6.32
15716.30,-4.74
15873.47,-2.93
16032.20,-1.12
16192.52,0.45
16354.45,1.46
16517.99,2.03
16683.17,1.60
16850.01,0.71
17018.51,-0.49
17188.69,-1.70
17360.58,-2.49
17534.18,-2.87
17709.53,-2.58
17886.62,-1.87
18065.49,-1.03
18246.14,-0.17
18428.60,0.25
18612.89,0.20
18799.02,-0.32
18987.01,-1.35
19176.88,-2.76
19368.65,-4.34
19562.33,-6.02
19757.96,-7.74
19955.54,-9.45
