frequency,raw
20.00,6.32
20.20,6.41
20.40,6.51
20.61,6.60
20.81,6.69
21.02,6.80
21.23,6.90
21.44,7.02
21.66,7.14
21.87,7.27
22.09,7.40
22.31,7.53
22.54,7.66
22.76,7.79
22.99,7.92
23.22,8.04
23.45,8.16
23.69,8.27
23.92,8.38
24.16,8.49
24.40,8.59
24.65,8.70
24.89,8.80
25.14,8.90
25.39,9.00
25.65,9.09
25.91,9.18
26.16,9.27
26.43,9.36
26.69,9.44
26.96,9.52
27.23,9.59
27.50,9.66
27.77,9.73
28.05,9.79
28.33,9.86
28.62,9.92
28.90,9.98
29.19,10.04
29.48,10.09
29.78,10.15
30.08,10.20
30.38,10.25
30.68,10.29
30.99,10.34
31.30,10.38
31.61,10.42
31.93,10.46
32.24,10.50
32.57,10.53
32.89,10.56
33.22,10.59
33.55,10.62
33.89,10.64
34.23,10.66
34.57,10.67
34.92,10.68
35.27,10.68
35.62,10.69
35.97,10.69
36.33,10.70
36.70,10.71
37.06,10.72
37.43,10.73
37.81,10.75
38.19,10.76
38.57,10.78
38.95,10.80
39.34,10.81
39.74,10.82
40.14,10.83
40.54,10.83
40.94,10.83
41.35,10.83
41.76,10.83
42.18,10.81
42.60,10.79
43.03,10.76
43.46,10.72
43.90,10.66
44.33,10.60
44.78,10.54
45.23,10.49
45.68,10.45
46.13,10.41
46.60,10.38
47.06,10.35
47.53,10.32
48.01,10.27
48.49,10.22
48.97,10.14
49.46,10.05
49.96,9.97
50.46,9.89
50.96,9.82
51.47,9.76
51.99,9.72
52.51,9.74
53.03,9.79
53.56,9.91
54.10,10.04
54.64,10.17
55.18,10.31
55.74,10.43
56.29,10.54
56.86,10.65
57.42,10.73
58.00,10.81
58.58,10.88
59.16,10.95
59.76,11.02
60.35,11.08
60.96,11.14
61.57,11.20
62.18,11.26
62.80,11.31
63.43,11.36
64.07,11.41
64.71,11.44
65.35,11.47
66.01,11.49
66.67,11.50
67.33,11.50
68.01,11.49
68.69,11.47
69.37,11.44
70.07,11.40
70.77,11.35
71.48,11.29
72.19,11.22
72.91,11.14
73.64,11.04
74.38,10.93
75.12,10.81
75.87,10.69
76.63,10.56
77.40,10.44
78.17,10.34
78.95,10.24
79.74,10.16
80.54,10.09
81.35,10.02
82.16,9.96
82.98,9.90
83.81,9.84
84.65,9.80
85.50,9.76
86.35,9.73
87.22,9.71
88.09,9.70
88.97,9.69
89.86,9.69
90.76,9.71
91.66,9.72
92.58,9.74
93.51,9.77
94.44,9.80
95.39,9.83
96.34,9.86
97.30,9.89
98.28,9.92
99.26,9.95
100.25,9.98
101.25,10.00
102.27,10.03
103.29,10.05
104.32,10.06
105.37,10.07
106.42,10.09
107.48,10.10
108.56,10.12
109.64,10.14
110.74,10.17
111.85,10.19
112.97,10.22
114.10,10.25
115.24,10.27
116.39,10.29
117.55,10.32
118.73,10.33
119.92,10.34
121.12,10.35
122.33,10.36
123.55,10.36
124.79,10.35
126.03,10.33
127.29,10.31
128.57,10.28
129.85,10.26
131.15,10.23
132.46,10.22
133.79,10.21
135.12,10.22
136.48,10.22
137.84,10.21
139.22,10.19
140.61,10.16
142.02,10.13
143.44,10.09
144.87,10.06
146.32,10.03
147.78,10.01
149.26,9.99
150.75,9.96
152.26,9.94
153.78,9.92
155.32,9.89
156.88,9.86
158.44,9.82
160.03,9.78
161.63,9.72
163.24,9.66
164.88,9.60
166.53,9.54
168.19,9.48
169.87,9.42
171.57,9.37
173.29,9.33
175.02,9.30
176.77,9.29
178.54,9.28
180.32,9.29
182.13,9.31
183.95,9.34
185.79,9.36
187.65,9.39
189.52,9.41
191.42,9.43
193.33,9.45
195.27,9.46
197.22,9.47
199.19,9.48
201.18,9.47
203.19,9.45
205.23,9.41
207.28,9.36
209.35,9.30
211.44,9.22
213.56,9.13
215.69,9.03
217.85,8.92
220.03,8.80
222.23,8.67
224.45,8.55
226.70,8.42
228.96,8.29
231.25,8.18
233.57,8.09
235.90,8.04
238.26,8.06
240.64,8.10
243.05,8.20
245.48,8.35
247.93,8.53
250.41,8.76
252.92,9.04
255.45,9.35
258.00,9.69
260.58,10.04
263.19,10.39
265.82,10.72
268.48,11.03
271.16,11.30
273.87,11.53
276.61,11.72
279.38,11.87
282.17,11.98
284.99,12.08
287.84,12.13
290.72,12.18
293.63,12.20
296.57,12.21
299.53,12.22
302.53,12.21
305.55,12.19
308.61,12.17
311.69,12.14
314.81,12.10
317.96,12.06
321.14,12.00
324.35,11.94
327.59,11.87
330.87,11.79
334.18,11.70
337.52,11.59
340.90,11.48
344.30,11.36
347.75,11.25
351.23,11.14
354.74,11.04
358.28,10.95
361.87,10.85
365.49,10.75
369.14,10.64
372.83,10.51
376.56,10.37
380.33,10.21
384.13,10.05
387.97,9.88
391.85,9.70
395.77,9.52
399.73,9.33
403.72,9.14
407.76,8.95
411.84,8.76
415.96,8.57
420.12,8.37
424.32,8.17
428.56,7.96
432.85,7.75
437.18,7.53
441.55,7.28
445.96,7.01
450.42,6.72
454.93,6.39
459.48,6.03
464.07,5.64
468.71,5.23
473.40,4.80
478.13,4.41
482.91,4.05
487.74,3.80
492.62,3.68
497.55,3.65
502.52,3.70
507.55,3.77
512.62,3.87
517.75,3.96
522.93,4.04
528.16,4.09
533.44,4.12
538.77,4.13
544.16,4.12
549.60,4.10
555.10,4.07
560.65,4.04
566.25,4.00
571.92,3.96
577.64,3.91
583.41,3.86
589.25,3.81
595.14,3.74
601.09,3.68
607.10,3.60
613.17,3.52
619.30,3.43
625.50,3.33
631.75,3.22
638.07,3.11
644.45,2.99
650.89,2.86
657.40,2.74
663.98,2.64
670.62,2.54
677.32,2.46
684.10,2.38
690.94,2.32
697.85,2.25
704.83,2.19
711.87,2.13
718.99,2.06
726.18,2.00
733.44,1.93
740.78,1.87
748.19,1.80
755.67,1.74
763.23,1.68
770.86,1.64
778.57,1.59
786.35,1.55
794.22,1.50
802.16,1.44
810.18,1.37
818.28,1.30
826.46,1.23
834.73,1.18
843.08,1.15
851.51,1.12
860.02,1.12
868.62,1.12
877.31,1.14
886.08,1.17
894.94,1.20
903.89,1.23
912.93,1.23
922.06,1.19
931.28,1.11
940.59,1.01
950.00,0.87
959.50,0.71
969.09,0.55
978.78,0.38
988.57,0.20
998.46,0.03
1008.44,-0.15
1018.53,-0.32
1028.71,-0.49
1039.00,-0.67
1049.39,-0.84
1059.88,-1.01
1070.48,-1.17
1081.19,-1.32
1092.00,-1.47
1102.92,-1.60
1113.95,-1.71
1125.09,-1.82
1136.34,-1.92
1147.70,-2.00
1159.18,-2.08
1170.77,-2.15
1182.48,-2.21
1194.30,-2.25
1206.25,-2.29
1218.31,-2.32
1230.49,-2.33
1242.80,-2.34
1255.22,-2.36
1267.78,-2.38
1280.45,-2.40
1293.26,-2.42
1306.19,-2.44
1319.25,-2.45
1332.45,-2.45
1345.77,-2.45
1359.23,-2.45
1372.82,-2.43
1386.55,-2.42
1400.41,-2.39
1414.42,-2.35
1428.56,-2.32
1442.85,-2.27
1457.28,-2.22
1471.85,-2.15
1486.57,-2.07
1501.43,-1.98
1516.45,-1.88
1531.61,-1.77
1546.93,-1.66
1562.40,-1.53
1578.02,-1.41
1593.80,-1.27
1609.74,-1.13
1625.84,-1.00
1642.10,-0.87
1658.52,-0.73
1675.10,-0.59
1691.85,-0.37
1708.77,-0.17
1725.86,0.03
1743.12,0.17
1760.55,0.30
1778.15,0.41
1795.94,0.51
1813.90,0.63
1832.03,0.79
1850.36,1.01
1868.86,1.31
1887.55,1.62
1906.42,1.94
1925.49,2.24
1944.74,2.48
1964.19,2.67
1983.83,2.82
2003.67,2.97
2023.71,3.20
2043.94,3.49
2064.38,3.81
2085.03,4.10
2105.88,4.37
2126.94,4.63
2148.20,4.90
2169.69,5.18
2191.38,5.46
2213.30,5.72
2235.43,5.96
2257.78,6.13
2280.36,6.24
2303.17,6.27
2326.20,6.22
2349.46,6.21
2372.95,6.28
2396.68,6.40
2420.65,6.58
2444.86,6.81
2469.31,7.07
2494.00,7.38
2518.94,7.65
2544.13,7.91
2569.57,8.11
2595.27,8.30
2621.22,8.47
2647.43,8.65
2673.90,8.85
2700.64,9.06
2727.65,9.27
2754.93,9.48
2782.48,9.67
2810.30,9.83
2838.40,9.96
2866.79,10.07
2895.46,10.15
2924.41,10.18
2953.65,10.20
2983.19,10.15
3013.02,10.07
3043.15,9.96
3073.58,9.84
3104.32,9.71
3135.36,9.55
3166.72,9.36
3198.38,9.14
3230.37,8.84
3262.67,8.51
3295.30,8.16
3328.25,7.78
3361.53,7.35
3395.15,6.87
3429.10,6.27
3463.39,5.63
3498.03,4.95
3533.01,4.39
3568.34,3.96
3604.02,3.66
3640.06,3.48
3676.46,3.23
3713.22,2.86
3750.36,2.30
3787.86,1.43
3825.74,0.59
3864.00,-0.12
3902.64,-0.21
3941.66,-0.20
3981.08,0.17
4020.89,0.68
4061.10,1.24
4101.71,1.72
4142.73,2.02
4184.15,2.16
4226.00,1.99
4268.26,1.76
4310.94,1.43
4354.05,1.19
4397.59,1.17
4441.56,1.29
4485.98,1.78
4530.84,2.47
4576.15,3.39
4621.91,4.39
4668.13,5.45
4714.81,6.50
4761.96,7.60
4809.58,8.80
4857.67,10.15
4906.25,11.60
4955.31,13.05
5004.87,14.47
5054.91,15.71
5105.46,16.76
5156.52,17.59
5208.08,18.11
5260.16,18.44
5312.77,18.66
5365.89,18.73
5419.55,18.69
5473.75,18.57
5528.49,18.38
5583.77,18.12
5639.61,17.85
5696.00,17.57
5752.96,17.17
5810.49,16.73
5868.60,16.11
5927.28,15.40
5986.56,14.61
6046.42,13.73
6106.89,12.82
6167.96,11.89
6229.64,10.96
6291.93,10.03
6354.85,9.17
6418.40,8.36
6482.58,7.69
6547.41,7.20
6612.88,6.85
6679.01,6.76
6745.80,6.93
6813.26,7.29
6881.39,7.89
6950.21,8.58
7019.71,9.28
7089.91,9.92
7160.81,10.42
7232.41,10.85
7304.74,11.22
7377.79,11.55
7451.56,11.92
7526.08,12.35
7601.34,12.87
7677.35,13.52
7754.13,14.22
7831.67,14.92
7909.98,15.56
7989.08,16.07
8068.98,16.33
8149.67,16.42
8231.16,16.28
8313.47,15.82
8396.61,15.21
8480.57,14.33
8565.38,13.46
8651.03,12.66
8737.54,11.99
8824.92,11.48
8913.17,11.06
9002.30,10.68
9092.32,10.34
9183.25,10.06
9275.08,9.82
9367.83,9.65
9461.51,9.61
9556.12,9.64
9651.68,9.65
9748.20,9.56
9845.68,9.08
9944.14,8.45
10043.58,7.82
10144.02,7.31
10245.46,7.23
10347.91,7.31
10451.39,7.56
10555.91,7.96
10661.46,8.48
10768.08,9.07
10875.76,9.67
10984.52,10.08
11094.36,10.31
11205.31,10.22
11317.36,9.52
11430.53,8.55
11544.84,7.07
11660.29,5.35
11776.89,3.58
11894.66,2.00
12013.60,0.46
12133.74,-0.71
12255.08,-1.54
12377.63,-2.23
12501.41,-2.77
12626.42,-3.00
12752.68,-3.06
12880.21,-3.07
13009.01,-3.07
13139.10,-3.07
13270.49,-3.35
13403.20,-3.75
13537.23,-4.46
13672.60,-5.26
13809.33,-6.11
13947.42,-6.68
14086.90,-6.76
14227.77,-6.54
14370.04,-6.24
14513.74,-5.86
14658.88,-5.56
14805.47,-5.08
14953.52,-4.29
15103.06,-3.31
15254.09,-2.23
15406.63,-1.08
15560.70,0.10
15716.30,1.35
15873.47,2.44
16032.20,3.36
16192.52,3.74
16354.45,3.51
16517.99,2.85
16683.17,1.48
16850.01,-0.18
17018.51,-2.03
17188.69,-3.93
17360.58,-4.92
17534.18,-5.07
17709.53,-3.91
17886.62,-2.71
18065.49,-1.73
18246.14,-1.17
18428.60,-1.34
18612.89,-1.82
18799.02,-2.53
18987.01,-3.41
19176.88,-4.57
19368.65,-6.05
19562.33,-7.83
19757.96,-9.87
19955.54,-11.92
