frequency,raw
20.00,10.56
20.20,10.61
20.40,10.66
20.61,10.70
20.81,10.73
21.02,10.77
21.23,10.80
21.44,10.83
21.66,10.86
21.87,10.89
22.09,10.92
22.31,10.94
22.54,10.97
22.76,11.00
22.99,11.02
23.22,11.04
23.45,11.07
23.69,11.09
23.92,11.11
24.16,11.13
24.40,11.15
24.65,11.17
24.89,11.19
25.14,11.21
25.39,11.23
25.65,11.26
25.91,11.28
26.16,11.30
26.43,11.32
26.69,11.33
26.96,11.34
27.23,11.35
27.50,11.36
27.77,11.37
28.05,11.37
28.33,11.38
28.62,11.38
28.90,11.39
29.19,11.39
29.48,11.40
29.78,11.40
30.08,11.40
30.38,11.40
30.68,11.40
30.99,11.40
31.30,11.40
31.61,11.40
31.93,11.39
32.24,11.39
32.57,11.39
32.89,11.38
33.22,11.37
33.55,11.36
33.89,11.35
34.23,11.34
34.57,11.33
34.92,11.32
35.27,11.30
35.62,11.29
35.97,11.27
36.33,11.25
36.70,11.23
37.06,11.20
37.43,11.18
37.81,11.15
38.19,11.12
38.57,11.08
38.95,11.05
39.34,11.01
39.74,10.97
40.14,10.92
40.54,10.88
40.94,10.83
41.35,10.78
41.76,10.73
42.18,10.69
42.60,10.64
43.03,10.60
43.46,10.55
43.90,10.52
44.33,10.48
44.78,10.45
45.23,10.43
45.68,10.42
46.13,10.42
46.60,10.42
47.06,10.42
47.53,10.43
48.01,10.45
48.49,10.47
48.97,10.50
49.46,10.52
49.96,10.56
50.46,10.60
50.96,10.64
51.47,10.69
51.99,10.75
52.51,10.83
53.03,10.90
53.56,10.98
54.10,11.06
54.64,11.14
55.18,11.21
55.74,11.27
56.29,11.32
56.86,11.37
57.42,11.42
58.00,11.46
58.58,11.50
59.16,11.53
59.76,11.56
60.35,11.58
60.96,11.61
61.57,11.63
62.18,11.65
62.80,11.67
63.43,11.70
64.07,11.72
64.71,11.76
65.35,11.80
66.01,11.85
66.67,11.91
67.33,11.98
68.01,12.04
68.69,12.11
69.37,12.19
70.07,12.26
70.77,12.36
71.48,12.46
72.19,12.58
72.91,12.71
73.64,12.84
74.38,12.97
75.12,13.11
75.87,13.24
76.63,13.37
77.40,13.49
78.17,13.59
78.95,13.68
79.74,13.74
80.54,13.79
81.35,13.81
82.16,13.80
82.98,13.77
83.81,13.72
84.65,13.64
85.50,13.53
86.35,13.40
87.22,13.25
88.09,13.10
88.97,12.93
89.86,12.77
90.76,12.60
91.66,12.45
92.58,12.29
93.51,12.16
94.44,12.04
95.39,11.94
96.34,11.87
97.30,11.81
98.28,11.76
99.26,11.72
100.25,11.68
101.25,11.64
102.27,11.60
103.29,11.57
104.32,11.54
105.37,11.52
106.42,11.50
107.48,11.48
108.56,11.45
109.64,11.41
110.74,11.36
111.85,11.30
112.97,11.22
114.10,11.14
115.24,11.06
116.39,10.96
117.55,10.87
118.73,10.77
119.92,10.67
121.12,10.58
122.33,10.49
123.55,10.40
124.79,10.32
126.03,10.25
127.29,10.19
128.57,10.14
129.85,10.10
131.15,10.06
132.46,10.03
133.79,10.01
135.12,9.99
136.48,9.97
137.84,9.97
139.22,9.96
140.61,9.96
142.02,9.96
143.44,9.95
144.87,9.95
146.32,9.94
147.78,9.93
149.26,9.92
150.75,9.90
152.26,9.88
153.78,9.85
155.32,9.82
156.88,9.78
158.44,9.74
160.03,9.69
161.63,9.64
163.24,9.58
164.88,9.52
166.53,9.45
168.19,9.38
169.87,9.30
171.57,9.22
173.29,9.13
175.02,9.04
176.77,8.94
178.54,8.83
180.32,8.73
182.13,8.62
183.95,8.50
185.79,8.39
187.65,8.27
189.52,8.15
191.42,8.04
193.33,7.92
195.27,7.82
197.22,7.71
199.19,7.61
201.18,7.50
203.19,7.38
205.23,7.26
207.28,7.12
209.35,6.98
211.44,6.84
213.56,6.68
215.69,6.52
217.85,6.36
220.03,6.21
222.23,6.07
224.45,5.93
226.70,5.79
228.96,5.66
231.25,5.51
233.57,5.35
235.90,5.19
238.26,5.01
240.64,4.83
243.05,4.64
245.48,4.45
247.93,4.25
250.41,4.04
252.92,3.83
255.45,3.62
258.00,3.40
260.58,3.18
263.19,2.95
265.82,2.73
268.48,2.50
271.16,2.27
273.87,2.03
276.61,1.80
279.38,1.56
282.17,1.32
284.99,1.08
287.84,0.86
290.72,0.64
293.63,0.44
296.57,0.26
299.53,0.09
302.53,-0.05
305.55,-0.19
308.61,-0.32
311.69,-0.47
314.81,-0.63
317.96,-0.82
321.14,-1.02
324.35,-1.23
327.59,-1.44
330.87,-1.66
334.18,-1.87
337.52,-2.08
340.90,-2.29
344.30,-2.49
347.75,-2.68
351.23,-2.86
354.74,-3.03
358.28,-3.19
361.87,-3.33
365.49,-3.47
369.14,-3.59
372.83,-3.70
376.56,-3.79
380.33,-3.87
384.13,-3.95
387.97,-4.01
391.85,-4.05
395.77,-4.08
399.73,-4.09
403.72,-4.09
407.76,-4.07
411.84,-4.04
415.96,-4.00
420.12,-3.95
424.32,-3.89
428.56,-3.82
432.85,-3.74
437.18,-3.65
441.55,-3.55
445.96,-3.45
450.42,-3.34
454.93,-3.22
459.48,-3.10
464.07,-2.97
468.71,-2.84
473.40,-2.71
478.13,-2.58
482.91,-2.44
487.74,-2.30
492.62,-2.17
497.55,-2.03
502.52,-1.89
507.55,-1.75
512.62,-1.62
517.75,-1.49
522.93,-1.37
528.16,-1.25
533.44,-1.14
538.77,-1.03
544.16,-0.93
549.60,-0.84
555.10,-0.76
560.65,-0.68
566.25,-0.60
571.92,-0.53
577.64,-0.47
583.41,-0.41
589.25,-0.36
595.14,-0.32
601.09,-0.28
607.10,-0.26
613.17,-0.24
619.30,-0.24
625.50,-0.25
631.75,-0.27
638.07,-0.31
644.45,-0.36
650.89,-0.42
657.40,-0.49
663.98,-0.53
670.62,-0.55
677.32,-0.50
684.10,-0.40
690.94,-0.28
697.85,-0.14
704.83,-0.02
711.87,0.08
718.99,0.15
726.18,0.19
733.44,0.21
740.78,0.23
748.19,0.23
755.67,0.22
763.23,0.21
770.86,0.20
778.57,0.18
786.35,0.15
794.22,0.13
802.16,0.10
810.18,0.08
818.28,0.05
826.46,0.03
834.73,-0.00
843.08,-0.03
851.51,-0.06
860.02,-0.09
868.62,-0.12
877.31,-0.16
886.08,-0.19
894.94,-0.22
903.89,-0.23
912.93,-0.24
922.06,-0.25
931.28,-0.24
940.59,-0.24
950.00,-0.23
959.50,-0.21
969.09,-0.17
978.78,-0.12
988.57,-0.07
998.46,-0.01
1008.44,0.06
1018.53,0.14
1028.71,0.25
1039.00,0.39
1049.39,0.56
1059.88,0.73
1070.48,0.92
1081.19,1.11
1092.00,1.32
1102.92,1.55
1113.95,1.79
1125.09,2.04
1136.34,2.31
1147.70,2.59
1159.18,2.88
1170.77,3.17
1182.48,3.47
1194.30,3.76
1206.25,4.06
1218.31,4.34
1230.49,4.61
1242.80,4.87
1255.22,5.14
1267.78,5.41
1280.45,5.70
1293.26,6.00
1306.19,6.31
1319.25,6.62
1332.45,6.94
1345.77,7.27
1359.23,7.59
1372.82,7.91
1386.55,8.23
1400.41,8.54
1414.42,8.82
1428.56,9.10
1442.85,9.35
1457.28,9.60
1471.85,9.83
1486.57,10.07
1501.43,10.30
1516.45,10.55
1531.61,10.80
1546.93,11.06
1562.40,11.30
1578.02,11.55
1593.80,11.78
1609.74,12.00
1625.84,12.20
1642.10,12.39
1658.52,12.56
1675.10,12.72
1691.85,12.86
1708.77,12.98
1725.86,13.09
1743.12,13.18
1760.55,13.26
1778.15,13.33
1795.94,13.37
1813.90,13.40
1832.03,13.42
1850.36,13.43
1868.86,13.43
1887.55,13.42
1906.42,13.43
1925.49,13.45
1944.74,13.50
1964.19,13.58
1983.83,13.70
2003.67,13.85
2023.71,14.02
2043.94,14.20
2064.38,14.37
2085.03,14.51
2105.88,14.60
2126.94,14.69
2148.20,14.76
2169.69,14.85
2191.38,14.98
2213.30,15.17
2235.43,15.38
2257.78,15.59
2280.36,15.81
2303.17,16.02
2326.20,16.22
2349.46,16.36
2372.95,16.43
2396.68,16.47
2420.65,16.46
2444.86,16.41
2469.31,16.36
2494.00,16.28
2518.94,16.21
2544.13,16.12
2569.57,16.03
2595.27,15.92
2621.22,15.81
2647.43,15.70
2673.90,15.58
2700.64,15.45
2727.65,15.32
2754.93,15.19
2782.48,15.04
2810.30,14.89
2838.40,14.73
2866.79,14.57
2895.46,14.40
2924.41,14.20
2953.65,14.01
2983.19,13.80
3013.02,13.60
3043.15,13.40
3073.58,13.17
3104.32,12.93
3135.36,12.68
3166.72,12.43
3198.38,12.17
3230.37,11.90
3262.67,11.63
3295.30,11.35
3328.25,11.06
3361.53,10.76
3395.15,10.46
3429.10,10.15
3463.39,9.85
3498.03,9.58
3533.01,9.33
3568.34,9.07
3604.02,8.84
3640.06,8.66
3676.46,8.56
3713.22,8.53
3750.36,8.58
3787.86,8.78
3825.74,8.99
3864.00,9.29
3902.64,9.61
3941.66,9.94
3981.08,10.23
4020.89,10.48
4061.10,10.69
4101.71,10.78
4142.73,10.81
4184.15,10.76
4226.00,10.59
4268.26,10.39
4310.94,10.13
4354.05,9.84
4397.59,9.54
4441.56,9.25
4485.98,8.98
4530.84,8.72
4576.15,8.48
4621.91,8.26
4668.13,8.07
4714.81,7.90
4761.96,7.76
4809.58,7.63
4857.67,7.53
4906.25,7.43
4955.31,7.36
5004.87,7.29
5054.91,7.26
5105.46,7.23
5156.52,7.24
5208.08,7.27
5260.16,7.33
5312.77,7.41
5365.89,7.53
5419.55,7.68
5473.75,7.85
5528.49,8.04
5583.77,8.26
5639.61,8.49
5696.00,8.72
5752.96,8.95
5810.49,9.18
5868.60,9.38
5927.28,9.55
5986.56,9.69
6046.42,9.80
6106.89,9.88
6167.96,9.91
6229.64,9.90
6291.93,9.87
6354.85,9.84
6418.40,9.83
6482.58,9.83
6547.41,9.87
6612.88,9.94
6679.01,10.07
6745.80,10.26
6813.26,10.49
6881.39,10.78
6950.21,11.07
7019.71,11.36
7089.91,11.60
7160.81,11.75
7232.41,11.83
7304.74,11.85
7377.79,11.79
7451.56,11.71
7526.08,11.62
7601.34,11.56
7677.35,11.58
7754.13,11.64
7831.67,11.85
7909.98,12.12
7989.08,12.49
8068.98,12.89
8149.67,13.20
8231.16,13.35
8313.47,13.08
8396.61,12.55
8480.57,11.51
8565.38,10.09
8651.03,8.53
8737.54,6.92
8824.92,5.64
8913.17,4.97
9002.30,4.53
9092.32,4.86
9183.25,5.59
9275.08,6.58
9367.83,7.85
9461.51,9.08
9556.12,10.00
9651.68,10.49
9748.20,10.51
9845.68,9.87
9944.14,8.95
10043.58,7.83
10144.02,6.63
10245.46,5.50
10347.91,4.45
10451.39,3.48
10555.91,2.62
10661.46,1.81
10768.08,1.06
10875.76,0.43
10984.52,0.06
11094.36,-0.16
11205.31,-0.26
11317.36,-0.47
11430.53,-0.77
11544.84,-1.30
11660.29,-2.01
11776.89,-2.86
11894.66,-4.09
12013.60,-5.36
12133.74,-6.56
12255.08,-7.13
12377.63,-6.99
12501.41,-6.19
12626.42,-5.16
12752.68,-4.36
12880.21,-3.85
13009.01,-3.47
13139.10,-3.09
13270.49,-3.08
13403.20,-3.21
13537.23,-3.65
13672.60,-4.14
13809.33,-4.69
13947.42,-5.16
14086.90,-5.69
14227.77,-6.25
14370.04,-7.09
14513.74,-8.24
14658.88,-9.86
14805.47,-11.30
14953.52,-12.45
15103.06,-12.57
15254.09,-12.20
15406.63,-11.04
15560.70,-9.82
15716.30,-8.51
15873.47,-7.47
16032.20,-6.59
16192.52,-6.03
16354.45,-5.61
16517.99,-5.30
16683.17,-5.42
16850.01,-6.18
17018.51,-7.45
17188.69,-9.49
17360.58,-11.13
17534.18,-12.22
17709.53,-11.98
17886.62,-11.29
18065.49,-10.55
18246.14,-9.95
18428.60,-9.64
18612.89,-9.44
18799.02,-9.33
18987.01,-9.29
19176.88,-9.60
19368.65,-10.36
19562.33,-11.58
19757.96,-13.24
19955.54,-14.91
