frequency,raw
20.00,-3.70
20.20,-3.64
20.40,-3.57
20.61,-3.51
20.81,-3.38
21.02,-3.26
21.23,-3.14
21.44,-3.03
21.66,-2.92
21.87,-2.81
22.09,-2.70
22.31,-2.59
22.54,-2.48
22.76,-2.37
22.99,-2.27
23.22,-2.16
23.45,-2.06
23.69,-1.96
23.92,-1.85
24.16,-1.75
24.40,-1.65
24.65,-1.55
24.89,-1.46
25.14,-1.36
25.39,-1.27
25.65,-1.18
25.91,-1.08
26.16,-0.99
26.43,-0.90
26.69,-0.82
26.96,-0.73
27.23,-0.65
27.50,-0.57
27.77,-0.49
28.05,-0.42
28.33,-0.34
28.62,-0.27
28.90,-0.19
29.19,-0.12
29.48,-0.05
29.78,0.03
30.08,0.10
30.38,0.17
30.68,0.24
30.99,0.31
31.30,0.38
31.61,0.45
31.93,0.52
32.24,0.58
32.57,0.65
32.89,0.71
33.22,0.77
33.55,0.83
33.89,0.89
34.23,0.95
34.57,1.01
34.92,1.06
35.27,1.12
35.62,1.17
35.97,1.22
36.33,1.27
36.70,1.32
37.06,1.36
37.43,1.41
37.81,1.45
38.19,1.49
38.57,1.53
38.95,1.57
39.34,1.60
39.74,1.64
40.14,1.67
40.54,1.70
40.94,1.73
41.35,1.77
41.76,1.80
42.18,1.83
42.60,1.86
43.03,1.90
43.46,1.93
43.90,1.97
44.33,2.00
44.78,2.04
45.23,2.08
45.68,2.13
46.13,2.17
46.60,2.22
47.06,2.26
47.53,2.31
48.01,2.36
48.49,2.40
48.97,2.45
49.46,2.49
49.96,2.53
50.46,2.57
50.96,2.61
51.47,2.64
51.99,2.66
52.51,2.69
53.03,2.71
53.56,2.72
54.10,2.73
54.64,2.74
55.18,2.75
55.74,2.75
56.29,2.76
56.86,2.76
57.42,2.77
58.00,2.77
58.58,2.78
59.16,2.78
59.76,2.79
60.35,2.80
60.96,2.81
61.57,2.83
62.18,2.84
62.80,2.86
63.43,2.87
64.07,2.89
64.71,2.90
65.35,2.92
66.01,2.93
66.67,2.94
67.33,2.95
68.01,2.96
68.69,2.97
69.37,2.98
70.07,2.99
70.77,3.00
71.48,3.00
72.19,3.01
72.91,3.02
73.64,3.02
74.38,3.03
75.12,3.03
75.87,3.03
76.63,3.04
77.40,3.04
78.17,3.04
78.95,3.04
79.74,3.05
80.54,3.05
81.35,3.05
82.16,3.05
82.98,3.04
83.81,3.04
84.65,3.03
85.50,3.01
86.35,2.98
87.22,2.95
88.09,2.89
88.97,2.83
89.86,2.75
90.76,2.69
91.66,2.66
92.58,2.66
93.51,2.69
94.44,2.70
95.39,2.68
96.34,2.63
97.30,2.57
98.28,2.52
99.26,2.46
100.25,2.41
101.25,2.37
102.27,2.32
103.29,2.27
104.32,2.23
105.37,2.18
106.42,2.13
107.48,2.09
108.56,2.04
109.64,1.99
110.74,1.94
111.85,1.89
112.97,1.84
114.10,1.79
115.24,1.74
116.39,1.69
117.55,1.63
118.73,1.59
119.92,1.54
121.12,1.50
122.33,1.47
123.55,1.45
124.79,1.43
126.03,1.42
127.29,1.43
128.57,1.44
129.85,1.45
131.15,1.47
132.46,1.49
133.79,1.51
135.12,1.54
136.48,1.56
137.84,1.58
139.22,1.60
140.61,1.62
142.02,1.63
143.44,1.64
144.87,1.65
146.32,1.65
147.78,1.65
149.26,1.65
150.75,1.64
152.26,1.63
153.78,1.62
155.32,1.61
156.88,1.59
158.44,1.57
160.03,1.55
161.63,1.52
163.24,1.49
164.88,1.45
166.53,1.40
168.19,1.36
169.87,1.31
171.57,1.26
173.29,1.20
175.02,1.14
176.77,1.07
178.54,0.99
180.32,0.90
182.13,0.81
183.95,0.70
185.79,0.59
187.65,0.47
189.52,0.34
191.42,0.20
193.33,0.05
195.27,-0.11
197.22,-0.28
199.19,-0.45
201.18,-0.64
203.19,-0.83
205.23,-1.05
207.28,-1.29
209.35,-1.53
211.44,-1.79
213.56,-2.04
215.69,-2.25
217.85,-2.45
220.03,-2.63
222.23,-2.82
224.45,-3.02
226.70,-3.24
228.96,-3.47
231.25,-3.68
233.57,-3.89
235.90,-4.08
238.26,-4.27
240.64,-4.44
243.05,-4.61
245.48,-4.76
247.93,-4.90
250.41,-5.03
252.92,-5.14
255.45,-5.23
258.00,-5.29
260.58,-5.29
263.19,-5.27
265.82,-5.22
268.48,-5.16
271.16,-5.12
273.87,-5.10
276.61,-5.08
279.38,-5.07
282.17,-5.07
284.99,-5.07
287.84,-5.07
290.72,-5.07
293.63,-5.07
296.57,-5.07
299.53,-5.06
302.53,-5.05
305.55,-5.04
308.61,-5.03
311.69,-5.02
314.81,-5.02
317.96,-5.02
321.14,-5.02
324.35,-5.02
327.59,-5.02
330.87,-5.03
334.18,-5.04
337.52,-5.06
340.90,-5.09
344.30,-5.12
347.75,-5.16
351.23,-5.20
354.74,-5.24
358.28,-5.27
361.87,-5.28
365.49,-5.29
369.14,-5.28
372.83,-5.26
376.56,-5.22
380.33,-5.18
384.13,-5.14
387.97,-5.08
391.85,-5.02
395.77,-4.96
399.73,-4.88
403.72,-4.80
407.76,-4.71
411.84,-4.62
415.96,-4.53
420.12,-4.44
424.32,-4.35
428.56,-4.27
432.85,-4.19
437.18,-4.11
441.55,-4.03
445.96,-3.96
450.42,-3.88
454.93,-3.80
459.48,-3.73
464.07,-3.66
468.71,-3.58
473.40,-3.50
478.13,-3.43
482.91,-3.36
487.74,-3.28
492.62,-3.22
497.55,-3.15
502.52,-3.09
507.55,-3.04
512.62,-2.99
517.75,-2.94
522.93,-2.90
528.16,-2.86
533.44,-2.83
538.77,-2.79
544.16,-2.76
549.60,-2.74
555.10,-2.71
560.65,-2.68
566.25,-2.66
571.92,-2.64
577.64,-2.61
583.41,-2.59
589.25,-2.57
595.14,-2.54
601.09,-2.52
607.10,-2.48
613.17,-2.45
619.30,-2.41
625.50,-2.38
631.75,-2.34
638.07,-2.30
644.45,-2.26
650.89,-2.21
657.40,-2.17
663.98,-2.12
670.62,-2.08
677.32,-2.03
684.10,-1.99
690.94,-1.94
697.85,-1.90
704.83,-1.85
711.87,-1.80
718.99,-1.75
726.18,-1.70
733.44,-1.65
740.78,-1.60
748.19,-1.54
755.67,-1.49
763.23,-1.44
770.86,-1.39
778.57,-1.33
786.35,-1.28
794.22,-1.23
802.16,-1.18
810.18,-1.12
818.28,-1.07
826.46,-1.01
834.73,-0.95
843.08,-0.89
851.51,-0.83
860.02,-0.77
868.62,-0.71
877.31,-0.65
886.08,-0.59
894.94,-0.54
903.89,-0.48
912.93,-0.43
922.06,-0.38
931.28,-0.32
940.59,-0.27
950.00,-0.22
959.50,-0.17
969.09,-0.13
978.78,-0.08
988.57,-0.04
998.46,-0.01
1008.44,0.03
1018.53,0.06
1028.71,0.09
1039.00,0.12
1049.39,0.15
1059.88,0.18
1070.48,0.21
1081.19,0.24
1092.00,0.28
1102.92,0.33
1113.95,0.40
1125.09,0.49
1136.34,0.59
1147.70,0.70
1159.18,0.82
1170.77,0.94
1182.48,1.05
1194.30,1.17
1206.25,1.28
1218.31,1.40
1230.49,1.51
1242.80,1.63
1255.22,1.75
1267.78,1.87
1280.45,2.00
1293.26,2.13
1306.19,2.25
1319.25,2.38
1332.45,2.50
1345.77,2.61
1359.23,2.71
1372.82,2.82
1386.55,2.93
1400.41,3.04
1414.42,3.17
1428.56,3.29
1442.85,3.42
1457.28,3.56
1471.85,3.71
1486.57,3.87
1501.43,4.04
1516.45,4.21
1531.61,4.38
1546.93,4.54
1562.40,4.69
1578.02,4.83
1593.80,4.98
1609.74,5.12
1625.84,5.27
1642.10,5.42
1658.52,5.58
1675.10,5.74
1691.85,5.90
1708.77,6.07
1725.86,6.23
1743.12,6.40
1760.55,6.57
1778.15,6.74
1795.94,6.91
1813.90,7.08
1832.03,7.25
1850.36,7.41
1868.86,7.57
1887.55,7.74
1906.42,7.89
1925.49,8.05
1944.74,8.21
1964.19,8.37
1983.83,8.55
2003.67,8.73
2023.71,8.94
2043.94,9.16
2064.38,9.39
2085.03,9.62
2105.88,9.85
2126.94,10.07
2148.20,10.28
2169.69,10.48
2191.38,10.68
2213.30,10.88
2235.43,11.07
2257.78,11.25
2280.36,11.42
2303.17,11.59
2326.20,11.74
2349.46,11.88
2372.95,12.00
2396.68,12.12
2420.65,12.20
2444.86,12.27
2469.31,12.31
2494.00,12.33
2518.94,12.33
2544.13,12.33
2569.57,12.30
2595.27,12.25
2621.22,12.18
2647.43,12.08
2673.90,11.98
2700.64,11.90
2727.65,11.85
2754.93,11.83
2782.48,11.81
2810.30,11.78
2838.40,11.74
2866.79,11.67
2895.46,11.60
2924.41,11.55
2953.65,11.52
2983.19,11.53
3013.02,11.55
3043.15,11.59
3073.58,11.64
3104.32,11.68
3135.36,11.69
3166.72,11.69
3198.38,11.66
3230.37,11.58
3262.67,11.48
3295.30,11.35
3328.25,11.17
3361.53,10.98
3395.15,10.75
3429.10,10.47
3463.39,10.15
3498.03,9.78
3533.01,9.31
3568.34,8.81
3604.02,8.27
3640.06,7.75
3676.46,7.31
3713.22,6.96
3750.36,6.70
3787.86,6.47
3825.74,6.24
3864.00,5.95
3902.64,5.62
3941.66,5.28
3981.08,4.92
4020.89,4.57
4061.10,4.22
4101.71,3.87
4142.73,3.52
4184.15,3.15
4226.00,2.74
4268.26,2.32
4310.94,1.88
4354.05,1.47
4397.59,1.14
4441.56,0.86
4485.98,0.79
4530.84,0.81
4576.15,0.90
4621.91,1.01
4668.13,1.14
4714.81,1.23
4761.96,1.32
4809.58,1.40
4857.67,1.48
4906.25,1.53
4955.31,1.51
5004.87,1.33
5054.91,0.90
5105.46,0.41
5156.52,-0.09
5208.08,-0.34
5260.16,-0.25
5312.77,-0.00
5365.89,0.41
5419.55,0.87
5473.75,1.35
5528.49,1.82
5583.77,2.25
5639.61,2.60
5696.00,2.91
5752.96,3.09
5810.49,3.25
5868.60,3.35
5927.28,3.48
5986.56,3.62
6046.42,3.80
6106.89,3.97
6167.96,4.11
6229.64,4.23
6291.93,4.31
6354.85,4.37
6418.40,4.42
6482.58,4.46
6547.41,4.52
6612.88,4.62
6679.01,4.82
6745.80,5.13
6813.26,5.52
6881.39,6.05
6950.21,6.67
7019.71,7.33
7089.91,8.03
7160.81,8.70
7232.41,9.31
7304.74,9.84
7377.79,10.20
7451.56,10.43
7526.08,10.54
7601.34,10.54
7677.35,10.43
7754.13,10.27
7831.67,10.04
7909.98,9.80
7989.08,9.56
8068.98,9.32
8149.67,9.08
8231.16,8.83
8313.47,8.56
8396.61,8.29
8480.57,7.97
8565.38,7.55
8651.03,7.03
8737.54,6.39
8824.92,5.60
8913.17,4.68
9002.30,3.71
9092.32,2.70
9183.25,1.74
9275.08,0.86
9367.83,0.10
9461.51,-0.41
9556.12,-0.73
9651.68,-0.96
9748.20,-1.20
9845.68,-1.57
9944.14,-2.03
10043.58,-2.58
10144.02,-3.17
10245.46,-3.66
10347.91,-4.08
10451.39,-4.40
10555.91,-4.57
10661.46,-4.69
10768.08,-4.76
10875.76,-4.82
10984.52,-4.78
11094.36,-4.65
11205.31,-4.41
11317.36,-4.01
11430.53,-3.57
11544.84,-3.25
11660.29,-3.18
11776.89,-3.42
11894.66,-4.37
12013.60,-5.42
12133.74,-6.63
12255.08,-8.08
12377.63,-9.71
12501.41,-11.41
12626.42,-12.70
12752.68,-13.43
12880.21,-13.62
13009.01,-13.58
13139.10,-13.53
13270.49,-12.28
13403.20,-10.70
13537.23,-9.06
13672.60,-7.45
13809.33,-5.87
13947.42,-4.43
14086.90,-3.33
14227.77,-2.44
14370.04,-1.87
14513.74,-1.67
14658.88,-1.87
14805.47,-2.19
14953.52,-2.66
15103.06,-3.15
15254.09,-3.64
15406.63,-3.96
15560.70,-4.16
15716.30,-4.19
15873.47,-4.09
16032.20,-3.97
16192.52,-3.87
16354.45,-4.06
16517.99,-4.52
16683.17,-5.84
16850.01,-7.71
17018.51,-10.00
17188.69,-12.65
17360.58,-14.81
17534.18,-16.13
17709.53,-15.11
17886.62,-13.08
18065.49,-10.99
18246.14,-9.32
18428.60,-8.35
18612.89,-7.58
18799.02,-6.97
18987.01,-6.45
19176.88,-6.36
19368.65,-6.81
19562.33,-7.78
19757.96,-9.21
19955.54,-10.63
