frequency,raw,error,smoothed,error_smoothed,equalization,parametric_eq,fixed_band_eq,equalized_raw,equalized_smoothed,target
20.00,3.87,-2.36,3.87,-2.36,2.36,2.22,0.95,6.23,6.23,6.22
20.20,3.87,-2.35,3.87,-2.35,2.35,2.22,0.98,6.21,6.21,6.21
20.40,3.87,-2.34,3.87,-2.33,2.33,2.23,1.01,6.20,6.20,6.20
20.61,3.87,-2.33,3.87,-2.32,2.32,2.23,1.04,6.19,6.19,6.19
20.81,3.87,-2.31,3.87,-2.31,2.31,2.24,1.07,6.18,6.18,6.17
21.02,3.87,-2.30,3.87,-2.30,2.30,2.24,1.10,6.17,6.17,6.16
21.23,3.87,-2.29,3.87,-2.29,2.29,2.24,1.13,6.16,6.16,6.15
21.44,3.87,-2.29,3.87,-2.28,2.28,2.24,1.16,6.15,6.15,6.16
21.66,3.87,-2.27,3.87,-2.27,2.27,2.24,1.20,6.14,6.14,6.14
21.87,3.87,-2.27,3.87,-2.27,2.27,2.24,1.23,6.13,6.13,6.14
22.09,3.87,-2.25,3.87,-2.26,2.26,2.24,1.27,6.12,6.12,6.12
22.31,3.87,-2.25,3.87,-2.25,2.25,2.24,1.30,6.12,6.12,6.12
22.54,3.87,-2.24,3.86,-2.25,2.25,2.24,1.34,6.11,6.11,6.11
22.76,3.87,-2.24,3.86,-2.25,2.25,2.24,1.38,6.11,6.11,6.11
22.99,3.87,-2.23,3.86,-2.24,2.24,2.24,1.42,6.11,6.10,6.10
23.22,3.87,-2.22,3.85,-2.24,2.24,2.24,1.46,6.11,6.10,6.09
23.45,3.87,-2.23,3.85,-2.24,2.24,2.23,1.50,6.11,6.09,6.10
23.69,3.86,-2.23,3.85,-2.24,2.24,2.23,1.54,6.09,6.09,6.09
23.92,3.86,-2.22,3.85,-2.23,2.23,2.23,1.58,6.09,6.08,6.08
24.16,3.85,-2.24,3.86,-2.22,2.22,2.22,1.63,6.07,6.08,6.09
24.40,3.85,-2.24,3.86,-2.22,2.22,2.21,1.67,6.06,6.08,6.08
24.65,3.86,-2.23,3.87,-2.21,2.21,2.21,1.72,6.06,6.08,6.08
24.89,3.87,-2.22,3.89,-2.19,2.19,2.20,1.76,6.06,6.08,6.08
25.14,3.89,-2.19,3.90,-2.17,2.17,2.20,1.81,6.06,6.08,6.07
25.39,3.91,-2.16,3.92,-2.15,2.15,2.19,1.85,6.06,6.07,6.07
25.65,3.94,-2.13,3.94,-2.13,2.13,2.18,1.90,6.07,6.07,6.07
25.91,3.97,-2.10,3.97,-2.11,2.11,2.17,1.94,6.07,6.07,6.07
26.16,4.00,-2.08,4.00,-2.08,2.08,2.16,1.99,6.07,6.07,6.08
26.43,4.03,-2.05,4.03,-2.05,2.05,2.15,2.03,6.07,6.07,6.08
26.69,4.06,-2.02,4.06,-2.02,2.02,2.14,2.07,6.08,6.08,6.08
26.96,4.09,-1.99,4.09,-1.99,1.99,2.13,2.12,6.08,6.08,6.08
27.23,4.12,-1.96,4.11,-1.97,1.97,2.12,2.16,6.08,6.08,6.07
27.50,4.15,-1.93,4.13,-1.95,1.95,2.11,2.20,6.09,6.08,6.07
27.77,4.17,-1.92,4.16,-1.93,1.93,2.10,2.23,6.10,6.08,6.08
28.05,4.19,-1.89,4.17,-1.91,1.91,2.09,2.27,6.10,6.09,6.08
28.33,4.21,-1.88,4.19,-1.90,1.90,2.07,2.30,6.11,6.09,6.09
28.62,4.21,-1.88,4.20,-1.89,1.89,2.06,2.34,6.10,6.09,6.09
28.90,4.22,-1.88,4.20,-1.89,1.89,2.04,2.36,6.10,6.09,6.10
29.19,4.21,-1.89,4.21,-1.88,1.88,2.03,2.39,6.09,6.09,6.10
29.48,4.21,-1.89,4.21,-1.88,1.88,2.02,2.41,6.09,6.09,6.09
29.78,4.20,-1.90,4.21,-1.88,1.88,2.00,2.43,6.08,6.09,6.09
30.08,4.20,-1.89,4.21,-1.88,1.88,1.99,2.44,6.07,6.09,6.09
30.38,4.20,-1.88,4.21,-1.88,1.88,1.97,2.46,6.07,6.08,6.08
30.68,4.20,-1.88,4.20,-1.88,1.88,1.95,2.46,6.07,6.08,6.08
30.99,4.20,-1.88,4.20,-1.88,1.88,1.94,2.47,6.07,6.08,6.08
31.30,4.20,-1.88,4.20,-1.88,1.88,1.92,2.47,6.07,6.07,6.07
31.61,4.20,-1.88,4.19,-1.88,1.88,1.90,2.46,6.07,6.07,6.07
31.93,4.20,-1.85,4.19,-1.87,1.87,1.88,2.45,6.07,6.06,6.05
32.24,4.20,-1.86,4.18,-1.87,1.87,1.87,2.44,6.07,6.06,6.06
32.57,4.20,-1.85,4.18,-1.87,1.87,1.85,2.42,6.07,6.05,6.05
32.89,4.19,-1.86,4.18,-1.87,1.87,1.83,2.40,6.05,6.05,6.04
33.22,4.19,-1.85,4.18,-1.86,1.86,1.81,2.38,6.05,6.04,6.04
33.55,4.18,-1.86,4.18,-1.86,1.86,1.79,2.35,6.03,6.03,6.04
33.89,4.17,-1.86,4.18,-1.85,1.85,1.77,2.32,6.01,6.03,6.03
34.23,4.18,-1.84,4.19,-1.83,1.83,1.75,2.29,6.01,6.02,6.01
34.57,4.18,-1.83,4.20,-1.82,1.82,1.73,2.25,5.99,6.02,6.01
34.92,4.20,-1.80,4.21,-1.79,1.79,1.71,2.22,5.99,6.01,6.00
35.27,4.22,-1.80,4.23,-1.76,1.76,1.69,2.18,5.98,6.00,6.01
35.62,4.24,-1.75,4.26,-1.73,1.73,1.67,2.13,5.97,5.99,5.99
35.97,4.27,-1.72,4.28,-1.70,1.70,1.65,2.09,5.96,5.98,5.99
36.33,4.30,-1.68,4.31,-1.66,1.66,1.63,2.05,5.95,5.97,5.97
36.70,4.33,-1.62,4.34,-1.61,1.61,1.61,2.00,5.94,5.95,5.95
37.06,4.37,-1.57,4.37,-1.57,1.57,1.58,1.95,5.94,5.94,5.94
37.43,4.41,-1.52,4.40,-1.53,1.53,1.56,1.91,5.94,5.92,5.92
37.81,4.44,-1.47,4.42,-1.49,1.49,1.54,1.86,5.93,5.91,5.91
38.19,4.46,-1.43,4.44,-1.45,1.45,1.52,1.81,5.91,5.89,5.89
38.57,4.48,-1.39,4.45,-1.42,1.42,1.49,1.76,5.90,5.87,5.87
38.95,4.48,-1.38,4.45,-1.40,1.40,1.47,1.72,5.88,5.85,5.86
39.34,4.48,-1.36,4.45,-1.38,1.38,1.45,1.67,5.86,5.83,5.83
39.74,4.47,-1.34,4.44,-1.38,1.38,1.43,1.62,5.84,5.81,5.81
40.14,4.45,-1.35,4.42,-1.37,1.37,1.40,1.58,5.82,5.79,5.79
40.54,4.42,-1.36,4.40,-1.37,1.37,1.38,1.53,5.79,5.78,5.78
40.94,4.38,-1.38,4.38,-1.38,1.38,1.36,1.49,5.76,5.76,5.75
41.35,4.34,-1.40,4.35,-1.39,1.39,1.33,1.44,5.73,5.74,5.74
41.76,4.31,-1.40,4.32,-1.40,1.40,1.31,1.40,5.71,5.72,5.71
42.18,4.27,-1.44,4.29,-1.41,1.41,1.29,1.36,5.68,5.70,5.70
42.60,4.25,-1.43,4.26,-1.42,1.42,1.26,1.32,5.66,5.68,5.68
43.03,4.22,-1.44,4.24,-1.42,1.42,1.24,1.28,5.64,5.66,5.66
43.46,4.20,-1.44,4.22,-1.42,1.42,1.21,1.24,5.62,5.64,5.63
43.90,4.19,-1.43,4.20,-1.41,1.41,1.19,1.20,5.60,5.62,5.62
44.33,4.18,-1.41,4.19,-1.40,1.40,1.17,1.16,5.58,5.59,5.59
44.78,4.17,-1.41,4.18,-1.39,1.39,1.14,1.12,5.55,5.57,5.57
45.23,4.18,-1.38,4.18,-1.36,1.36,1.12,1.09,5.54,5.54,5.55
45.68,4.19,-1.33,4.18,-1.34,1.34,1.09,1.05,5.52,5.52,5.52
46.13,4.19,-1.30,4.18,-1.31,1.31,1.07,1.02,5.49,5.49,5.49
46.60,4.20,-1.26,4.18,-1.27,1.27,1.05,0.99,5.47,5.46,5.46
47.06,4.20,-1.23,4.19,-1.24,1.24,1.02,0.96,5.43,5.42,5.43
47.53,4.20,-1.20,4.19,-1.20,1.20,1.00,0.93,5.40,5.39,5.40
48.01,4.20,-1.15,4.19,-1.16,1.16,0.97,0.90,5.36,5.35,5.35
48.49,4.20,-1.12,4.19,-1.13,1.13,0.95,0.87,5.32,5.32,5.32
48.97,4.20,-1.08,4.20,-1.09,1.09,0.92,0.84,5.29,5.29,5.28
49.46,4.20,-1.05,4.20,-1.05,1.05,0.90,0.81,5.25,5.25,5.25
49.96,4.20,-1.00,4.20,-1.02,1.02,0.88,0.79,5.21,5.21,5.20
50.46,4.20,-0.98,4.20,-0.98,0.98,0.85,0.76,5.18,5.18,5.18
50.96,4.20,-0.95,4.20,-0.95,0.95,0.83,0.74,5.14,5.14,5.14
51.47,4.20,-0.91,4.20,-0.91,0.91,0.80,0.71,5.11,5.11,5.11
51.99,4.20,-0.87,4.20,-0.88,0.88,0.78,0.69,5.08,5.08,5.07
52.51,4.20,-0.85,4.20,-0.84,0.84,0.75,0.67,5.04,5.04,5.04
53.03,4.20,-0.82,4.20,-0.81,0.81,0.73,0.64,5.01,5.01,5.02
53.56,4.20,-0.79,4.20,-0.78,0.78,0.70,0.62,4.98,4.98,4.99
54.10,4.20,-0.74,4.20,-0.75,0.75,0.68,0.60,4.95,4.95,4.94
54.64,4.20,-0.72,4.20,-0.72,0.72,0.66,0.58,4.92,4.92,4.92
55.18,4.20,-0.68,4.20,-0.69,0.69,0.63,0.56,4.89,4.89,4.88
55.74,4.20,-0.65,4.20,-0.66,0.66,0.61,0.54,4.86,4.86,4.84
56.29,4.20,-0.63,4.20,-0.63,0.63,0.58,0.52,4.83,4.83,4.83
56.86,4.20,-0.60,4.20,-0.60,0.60,0.56,0.50,4.80,4.80,4.80
57.42,4.20,-0.56,4.20,-0.57,0.57,0.53,0.48,4.77,4.77,4.76
58.00,4.20,-0.53,4.20,-0.54,0.54,0.51,0.46,4.74,4.74,4.73
58.58,4.20,-0.51,4.20,-0.51,0.51,0.48,0.44,4.70,4.70,4.71
59.16,4.20,-0.49,4.20,-0.47,0.47,0.46,0.42,4.67,4.67,4.69
59.76,4.20,-0.46,4.20,-0.44,0.44,0.43,0.40,4.64,4.64,4.66
60.35,4.20,-0.42,4.20,-0.40,0.40,0.41,0.38,4.60,4.60,4.62
60.96,4.20,-0.38,4.20,-0.37,0.37,0.39,0.36,4.56,4.56,4.58
61.57,4.20,-0.33,4.20,-0.33,0.33,0.36,0.34,4.53,4.52,4.52
62.18,4.20,-0.28,4.20,-0.29,0.29,0.34,0.32,4.49,4.49,4.48
62.80,4.20,-0.24,4.20,-0.25,0.25,0.31,0.30,4.45,4.45,4.43
63.43,4.20,-0.19,4.20,-0.21,0.21,0.29,0.28,4.41,4.41,4.39
64.07,4.20,-0.16,4.20,-0.17,0.17,0.26,0.25,4.37,4.37,4.35
64.71,4.20,-0.12,4.20,-0.13,0.13,0.24,0.23,4.32,4.32,4.32
65.35,4.20,-0.08,4.20,-0.08,0.08,0.21,0.21,4.28,4.28,4.28
66.01,4.20,-0.04,4.20,-0.04,0.04,0.19,0.19,4.24,4.24,4.24
66.67,4.20,-0.02,4.21,0.00,-0.00,0.17,0.17,4.19,4.20,4.21
67.33,4.20,0.03,4.21,0.04,-0.04,0.14,0.15,4.15,4.17,4.16
68.01,4.20,0.06,4.21,0.08,-0.08,0.12,0.12,4.11,4.13,4.13
68.69,4.21,0.12,4.21,0.12,-0.12,0.09,0.10,4.08,4.09,4.09
69.37,4.21,0.15,4.21,0.16,-0.16,0.07,0.08,4.05,4.05,4.06
70.07,4.22,0.20,4.20,0.19,-0.19,0.04,0.06,4.02,4.01,4.02
70.77,4.22,0.24,4.20,0.23,-0.23,0.02,0.03,3.99,3.97,3.97
71.48,4.21,0.27,4.19,0.25,-0.25,-0.01,0.01,3.95,3.93,3.94
72.19,4.19,0.29,4.17,0.28,-0.28,-0.03,-0.02,3.91,3.89,3.89
72.91,4.17,0.32,4.16,0.30,-0.30,-0.06,-0.04,3.87,3.85,3.85
73.64,4.15,0.34,4.14,0.32,-0.32,-0.08,-0.07,3.83,3.82,3.81
74.38,4.12,0.35,4.11,0.33,-0.33,-0.11,-0.09,3.78,3.78,3.77
75.12,4.09,0.35,4.09,0.34,-0.34,-0.13,-0.12,3.75,3.75,3.74
75.87,4.06,0.35,4.06,0.35,-0.35,-0.15,-0.14,3.71,3.71,3.71
76.63,4.03,0.36,4.03,0.35,-0.35,-0.18,-0.17,3.68,3.68,3.67
77.40,4.00,0.35,4.00,0.35,-0.35,-0.20,-0.20,3.65,3.65,3.65
78.17,3.97,0.36,3.97,0.35,-0.35,-0.23,-0.22,3.61,3.62,3.61
78.95,3.94,0.34,3.94,0.36,-0.36,-0.25,-0.25,3.58,3.59,3.59
79.74,3.92,0.36,3.92,0.36,-0.36,-0.28,-0.28,3.55,3.56,3.56
80.54,3.89,0.35,3.90,0.37,-0.37,-0.30,-0.31,3.52,3.53,3.53
81.35,3.88,0.38,3.89,0.38,-0.38,-0.33,-0.33,3.49,3.50,3.50
82.16,3.86,0.37,3.87,0.40,-0.40,-0.35,-0.36,3.46,3.47,3.48
82.98,3.85,0.40,3.87,0.42,-0.42,-0.38,-0.39,3.42,3.44,3.45
83.81,3.85,0.43,3.86,0.45,-0.45,-0.40,-0.42,3.40,3.41,3.42
84.65,3.86,0.48,3.86,0.48,-0.48,-0.43,-0.45,3.38,3.38,3.38
85.50,3.86,0.51,3.86,0.51,-0.51,-0.45,-0.48,3.34,3.35,3.35
86.35,3.87,0.55,3.87,0.55,-0.55,-0.48,-0.51,3.32,3.32,3.32
87.22,3.87,0.58,3.87,0.58,-0.58,-0.50,-0.55,3.28,3.29,3.29
88.09,3.88,0.62,3.87,0.62,-0.62,-0.53,-0.58,3.26,3.26,3.26
88.97,3.89,0.66,3.88,0.65,-0.65,-0.55,-0.61,3.23,3.22,3.22
89.86,3.90,0.71,3.88,0.69,-0.69,-0.58,-0.64,3.21,3.19,3.19
90.76,3.89,0.73,3.87,0.72,-0.72,-0.61,-0.68,3.17,3.15,3.16
91.66,3.89,0.77,3.87,0.75,-0.75,-0.63,-0.71,3.14,3.12,3.11
92.58,3.87,0.78,3.86,0.77,-0.77,-0.66,-0.74,3.09,3.08,3.09
93.51,3.86,0.80,3.84,0.79,-0.79,-0.68,-0.78,3.06,3.05,3.05
94.44,3.83,0.81,3.82,0.81,-0.81,-0.71,-0.81,3.01,3.01,3.02
95.39,3.81,0.83,3.80,0.83,-0.83,-0.73,-0.85,2.98,2.97,2.97
96.34,3.78,0.84,3.77,0.84,-0.84,-0.76,-0.89,2.94,2.94,2.94
97.30,3.75,0.85,3.74,0.85,-0.85,-0.78,-0.92,2.90,2.90,2.90
98.28,3.72,0.86,3.71,0.85,-0.85,-0.81,-0.96,2.86,2.86,2.85
99.26,3.69,0.87,3.68,0.86,-0.86,-0.84,-1.00,2.83,2.83,2.82
100.25,3.65,0.87,3.65,0.86,-0.86,-0.86,-1.03,2.78,2.79,2.78
101.25,3.63,0.87,3.63,0.87,-0.87,-0.89,-1.07,2.76,2.76,2.75
102.27,3.60,0.87,3.60,0.88,-0.88,-0.91,-1.11,2.72,2.72,2.72
103.29,3.57,0.88,3.58,0.89,-0.89,-0.94,-1.14,2.67,2.69,2.69
104.32,3.55,0.89,3.57,0.91,-0.91,-0.96,-1.18,2.64,2.66,2.66
105.37,3.54,0.91,3.55,0.92,-0.92,-0.99,-1.22,2.61,2.63,2.63
106.42,3.53,0.92,3.54,0.95,-0.95,-1.02,-1.25,2.58,2.60,2.60
107.48,3.52,0.95,3.54,0.97,-0.97,-1.04,-1.29,2.55,2.56,2.56
108.56,3.53,0.99,3.53,1.00,-1.00,-1.07,-1.33,2.53,2.53,2.54
109.64,3.54,1.03,3.53,1.03,-1.03,-1.09,-1.36,2.51,2.50,2.51
110.74,3.54,1.06,3.53,1.06,-1.06,-1.12,-1.39,2.47,2.47,2.47
111.85,3.55,1.11,3.53,1.10,-1.10,-1.14,-1.43,2.45,2.43,2.43
112.97,3.55,1.14,3.53,1.14,-1.14,-1.17,-1.46,2.41,2.40,2.41
114.10,3.55,1.18,3.54,1.17,-1.17,-1.19,-1.49,2.37,2.36,2.37
115.24,3.55,1.22,3.54,1.21,-1.21,-1.22,-1.52,2.34,2.33,2.33
116.39,3.55,1.26,3.54,1.25,-1.25,-1.25,-1.55,2.30,2.30,2.29
117.55,3.55,1.29,3.55,1.28,-1.28,-1.27,-1.57,2.27,2.27,2.25
118.73,3.55,1.33,3.55,1.31,-1.31,-1.30,-1.60,2.23,2.23,2.22
119.92,3.55,1.35,3.55,1.35,-1.35,-1.32,-1.62,2.20,2.20,2.19
121.12,3.55,1.38,3.55,1.38,-1.38,-1.35,-1.64,2.17,2.17,2.17
122.33,3.55,1.41,3.55,1.41,-1.41,-1.37,-1.66,2.13,2.14,2.14
123.55,3.55,1.43,3.55,1.45,-1.45,-1.40,-1.67,2.10,2.10,2.11
124.79,3.55,1.47,3.55,1.48,-1.48,-1.42,-1.69,2.07,2.07,2.08
126.03,3.55,1.50,3.56,1.52,-1.52,-1.45,-1.70,2.03,2.04,2.05
127.29,3.55,1.53,3.56,1.55,-1.55,-1.47,-1.71,2.00,2.01,2.02
128.57,3.55,1.57,3.56,1.58,-1.58,-1.50,-1.72,1.96,1.98,1.98
129.85,3.56,1.61,3.56,1.62,-1.62,-1.52,-1.73,1.94,1.95,1.95
131.15,3.57,1.66,3.56,1.65,-1.65,-1.54,-1.73,1.92,1.91,1.91
132.46,3.57,1.69,3.56,1.68,-1.68,-1.57,-1.73,1.89,1.88,1.88
133.79,3.57,1.72,3.55,1.70,-1.70,-1.59,-1.74,1.87,1.85,1.84
135.12,3.56,1.74,3.54,1.72,-1.72,-1.61,-1.74,1.83,1.82,1.82
136.48,3.55,1.76,3.53,1.74,-1.74,-1.64,-1.73,1.80,1.79,1.79
137.84,3.53,1.77,3.51,1.76,-1.76,-1.66,-1.73,1.77,1.76,1.76
139.22,3.51,1.79,3.49,1.77,-1.77,-1.68,-1.73,1.74,1.73,1.72
140.61,3.48,1.78,3.47,1.77,-1.77,-1.71,-1.72,1.70,1.70,1.70
142.02,3.45,1.78,3.45,1.77,-1.77,-1.73,-1.72,1.67,1.67,1.66
143.44,3.42,1.77,3.42,1.77,-1.77,-1.75,-1.71,1.65,1.65,1.64
144.87,3.39,1.76,3.39,1.77,-1.77,-1.77,-1.71,1.62,1.62,1.62
146.32,3.36,1.76,3.35,1.76,-1.76,-1.79,-1.70,1.60,1.60,1.59
147.78,3.33,1.75,3.33,1.76,-1.76,-1.81,-1.69,1.57,1.57,1.57
149.26,3.30,1.75,3.30,1.76,-1.76,-1.83,-1.69,1.54,1.55,1.54
150.75,3.27,1.75,3.28,1.76,-1.76,-1.85,-1.68,1.51,1.52,1.52
152.26,3.25,1.75,3.26,1.77,-1.77,-1.87,-1.68,1.48,1.50,1.50
153.78,3.23,1.75,3.25,1.78,-1.78,-1.89,-1.67,1.45,1.47,1.47
155.32,3.21,1.76,3.24,1.79,-1.79,-1.91,-1.67,1.41,1.45,1.45
156.88,3.20,1.77,3.23,1.81,-1.81,-1.93,-1.67,1.38,1.42,1.43
158.44,3.21,1.81,3.23,1.83,-1.83,-1.94,-1.66,1.37,1.39,1.39
160.03,3.22,1.85,3.22,1.86,-1.86,-1.96,-1.66,1.36,1.36,1.37
161.63,3.24,1.90,3.22,1.88,-1.88,-1.98,-1.66,1.36,1.34,1.34
163.24,3.24,1.93,3.21,1.90,-1.90,-1.99,-1.66,1.33,1.31,1.31
164.88,3.24,1.96,3.21,1.93,-1.93,-2.01,-1.66,1.31,1.28,1.28
166.53,3.23,1.99,3.20,1.95,-1.95,-2.02,-1.67,1.28,1.25,1.24
168.19,3.21,1.99,3.18,1.97,-1.97,-2.04,-1.67,1.24,1.21,1.22
169.87,3.19,2.00,3.17,1.99,-1.99,-2.05,-1.67,1.20,1.18,1.18
171.57,3.16,2.01,3.15,2.00,-2.00,-2.06,-1.68,1.15,1.15,1.15
173.29,3.14,2.02,3.13,2.02,-2.02,-2.07,-1.69,1.12,1.11,1.12
175.02,3.11,2.02,3.11,2.03,-2.03,-2.09,-1.70,1.08,1.08,1.08
176.77,3.07,2.02,3.08,2.03,-2.03,-2.10,-1.71,1.03,1.05,1.05
178.54,3.04,2.02,3.05,2.04,-2.04,-2.10,-1.72,1.00,1.01,1.02
180.32,3.02,2.04,3.03,2.04,-2.04,-2.11,-1.74,0.97,0.98,0.97
182.13,2.99,2.04,3.00,2.05,-2.05,-2.12,-1.75,0.94,0.95,0.95
183.95,2.97,2.05,2.97,2.06,-2.06,-2.13,-1.77,0.91,0.91,0.92
185.79,2.95,2.07,2.95,2.07,-2.07,-2.13,-1.78,0.88,0.88,0.88
187.65,2.93,2.08,2.92,2.08,-2.08,-2.14,-1.80,0.85,0.85,0.85
189.52,2.90,2.08,2.90,2.08,-2.08,-2.14,-1.82,0.81,0.82,0.82
191.42,2.88,2.09,2.88,2.09,-2.09,-2.15,-1.85,0.79,0.78,0.79
193.33,2.85,2.09,2.85,2.10,-2.10,-2.15,-1.87,0.75,0.75,0.76
195.27,2.83,2.11,2.83,2.10,-2.10,-2.15,-1.89,0.72,0.72,0.72
197.22,2.82,2.13,2.81,2.11,-2.11,-2.15,-1.92,0.71,0.70,0.68
199.19,2.80,2.13,2.78,2.11,-2.11,-2.15,-1.94,0.68,0.67,0.67
201.18,2.77,2.14,2.76,2.12,-2.12,-2.15,-1.97,0.65,0.64,0.63
203.19,2.74,2.12,2.74,2.12,-2.12,-2.15,-1.99,0.62,0.62,0.62
205.23,2.71,2.11,2.71,2.12,-2.12,-2.15,-2.02,0.59,0.59,0.60
207.28,2.68,2.10,2.69,2.12,-2.12,-2.14,-2.05,0.56,0.57,0.58
209.35,2.66,2.11,2.67,2.12,-2.12,-2.14,-2.07,0.54,0.55,0.55
211.44,2.64,2.11,2.64,2.12,-2.12,-2.13,-2.10,0.52,0.53,0.53
213.56,2.62,2.10,2.62,2.11,-2.11,-2.13,-2.12,0.50,0.51,0.51
215.69,2.60,2.11,2.60,2.11,-2.11,-2.12,-2.15,0.49,0.49,0.49
217.85,2.58,2.11,2.57,2.11,-2.11,-2.11,-2.17,0.47,0.47,0.47
220.03,2.55,2.10,2.55,2.10,-2.10,-2.10,-2.20,0.45,0.45,0.45
222.23,2.53,2.10,2.52,2.09,-2.09,-2.09,-2.22,0.44,0.43,0.43
224.45,2.51,2.09,2.50,2.08,-2.08,-2.07,-2.24,0.42,0.42,0.41
226.70,2.49,2.09,2.47,2.07,-2.07,-2.06,-2.26,0.41,0.40,0.39
228.96,2.46,2.06,2.45,2.06,-2.06,-2.05,-2.28,0.39,0.39,0.39
231.25,2.44,2.06,2.42,2.05,-2.05,-2.03,-2.29,0.39,0.37,0.37
233.57,2.41,2.04,2.40,2.04,-2.04,-2.02,-2.30,0.37,0.36,0.36
235.90,2.38,2.02,2.38,2.02,-2.02,-2.00,-2.31,0.36,0.35,0.35
238.26,2.35,2.01,2.35,2.01,-2.01,-1.98,-2.32,0.34,0.35,0.34
240.64,2.32,1.97,2.33,1.99,-1.99,-1.96,-2.32,0.33,0.34,0.35
243.05,2.29,1.95,2.31,1.98,-1.98,-1.94,-2.32,0.31,0.34,0.34
245.48,2.28,1.95,2.30,1.96,-1.96,-1.92,-2.31,0.32,0.34,0.33
247.93,2.27,1.94,2.28,1.95,-1.95,-1.90,-2.30,0.32,0.33,0.32
250.41,2.26,1.92,2.26,1.93,-1.93,-1.87,-2.29,0.33,0.33,0.34
252.92,2.25,1.91,2.24,1.91,-1.91,-1.85,-2.28,0.34,0.33,0.34
255.45,2.24,1.91,2.23,1.89,-1.89,-1.82,-2.26,0.34,0.33,0.33
258.00,2.23,1.89,2.21,1.88,-1.88,-1.80,-2.24,0.35,0.33,0.34
260.58,2.21,1.87,2.19,1.86,-1.86,-1.77,-2.21,0.35,0.33,0.34
263.19,2.20,1.85,2.17,1.84,-1.84,-1.74,-2.18,0.36,0.34,0.34
265.82,2.17,1.83,2.16,1.82,-1.82,-1.72,-2.15,0.35,0.34,0.34
268.48,2.14,1.80,2.13,1.80,-1.80,-1.69,-2.11,0.34,0.34,0.34
271.16,2.11,1.76,2.11,1.77,-1.77,-1.66,-2.07,0.33,0.34,0.35
273.87,2.08,1.74,2.09,1.75,-1.75,-1.63,-2.03,0.33,0.34,0.34
276.61,2.05,1.70,2.06,1.72,-1.72,-1.59,-1.99,0.33,0.34,0.35
279.38,2.03,1.70,2.03,1.69,-1.69,-1.56,-1.94,0.34,0.34,0.33
282.17,2.01,1.67,2.01,1.66,-1.66,-1.53,-1.89,0.35,0.35,0.34
284.99,1.99,1.64,1.98,1.63,-1.63,-1.50,-1.84,0.36,0.35,0.35
287.84,1.96,1.60,1.95,1.60,-1.60,-1.46,-1.79,0.36,0.36,0.36
290.72,1.93,1.57,1.93,1.57,-1.57,-1.43,-1.73,0.36,0.36,0.35
293.63,1.90,1.53,1.90,1.54,-1.54,-1.39,-1.68,0.36,0.37,0.37
296.57,1.87,1.49,1.88,1.51,-1.51,-1.36,-1.62,0.36,0.37,0.37
299.53,1.85,1.47,1.86,1.48,-1.48,-1.32,-1.57,0.37,0.38,0.38
302.53,1.83,1.43,1.83,1.44,-1.44,-1.28,-1.51,0.38,0.39,0.40
305.55,1.81,1.41,1.81,1.41,-1.41,-1.24,-1.45,0.40,0.40,0.39
308.61,1.79,1.38,1.78,1.37,-1.37,-1.21,-1.39,0.41,0.41,0.41
311.69,1.76,1.34,1.75,1.34,-1.34,-1.17,-1.33,0.42,0.42,0.42
314.81,1.74,1.31,1.72,1.30,-1.30,-1.13,-1.27,0.44,0.43,0.42
317.96,1.72,1.29,1.70,1.26,-1.26,-1.09,-1.21,0.45,0.43,0.43
321.14,1.69,1.24,1.67,1.23,-1.23,-1.05,-1.16,0.46,0.44,0.45
324.35,1.65,1.20,1.64,1.19,-1.19,-1.01,-1.10,0.46,0.45,0.45
327.59,1.62,1.14,1.62,1.16,-1.16,-0.97,-1.04,0.46,0.46,0.47
330.87,1.58,1.11,1.59,1.12,-1.12,-0.93,-0.98,0.46,0.47,0.47
334.18,1.55,1.07,1.56,1.08,-1.08,-0.89,-0.92,0.46,0.48,0.48
337.52,1.51,1.02,1.53,1.04,-1.04,-0.85,-0.87,0.46,0.49,0.49
340.90,1.49,0.98,1.51,1.01,-1.01,-0.81,-0.81,0.48,0.50,0.50
344.30,1.47,0.96,1.47,0.97,-0.97,-0.77,-0.75,0.50,0.51,0.51
347.75,1.46,0.94,1.44,0.92,-0.92,-0.73,-0.70,0.53,0.52,0.52
351.23,1.44,0.92,1.41,0.88,-0.88,-0.68,-0.64,0.55,0.53,0.52
354.74,1.41,0.86,1.38,0.84,-0.84,-0.64,-0.59,0.56,0.54,0.55
358.28,1.37,0.82,1.35,0.80,-0.80,-0.60,-0.53,0.56,0.55,0.54
361.87,1.33,0.77,1.32,0.76,-0.76,-0.56,-0.48,0.56,0.55,0.55
365.49,1.29,0.73,1.29,0.73,-0.73,-0.52,-0.42,0.56,0.56,0.56
369.14,1.25,0.67,1.26,0.69,-0.69,-0.48,-0.37,0.56,0.57,0.58
372.83,1.21,0.62,1.23,0.65,-0.65,-0.44,-0.32,0.56,0.58,0.59
376.56,1.17,0.58,1.20,0.60,-0.60,-0.40,-0.27,0.56,0.59,0.59
380.33,1.14,0.54,1.16,0.56,-0.56,-0.35,-0.22,0.58,0.60,0.59
384.13,1.12,0.50,1.12,0.51,-0.51,-0.31,-0.16,0.60,0.61,0.61
387.97,1.11,0.49,1.09,0.47,-0.47,-0.27,-0.11,0.64,0.62,0.62
391.85,1.08,0.45,1.05,0.42,-0.42,-0.23,-0.06,0.66,0.63,0.63
395.77,1.05,0.41,1.02,0.38,-0.38,-0.19,-0.01,0.67,0.64,0.64
399.73,1.01,0.36,0.99,0.34,-0.34,-0.15,0.03,0.67,0.65,0.65
403.72,0.97,0.29,0.96,0.30,-0.30,-0.11,0.08,0.67,0.66,0.68
407.76,0.93,0.25,0.93,0.26,-0.26,-0.07,0.13,0.67,0.68,0.68
411.84,0.89,0.20,0.90,0.22,-0.22,-0.03,0.18,0.67,0.69,0.68
415.96,0.85,0.14,0.87,0.18,-0.18,0.01,0.22,0.67,0.70,0.70
420.12,0.82,0.11,0.84,0.13,-0.13,0.05,0.27,0.68,0.71,0.70
424.32,0.80,0.09,0.81,0.09,-0.09,0.09,0.31,0.71,0.71,0.71
428.56,0.78,0.05,0.77,0.05,-0.05,0.13,0.36,0.73,0.72,0.73
432.85,0.76,0.02,0.73,0.00,-0.00,0.17,0.40,0.76,0.73,0.74
437.18,0.73,-0.01,0.70,-0.04,0.04,0.20,0.44,0.77,0.74,0.74
441.55,0.69,-0.06,0.67,-0.08,0.08,0.24,0.48,0.77,0.75,0.75
445.96,0.65,-0.11,0.64,-0.12,0.12,0.28,0.52,0.77,0.76,0.76
450.42,0.61,-0.16,0.61,-0.16,0.16,0.32,0.56,0.77,0.77,0.77
454.93,0.57,-0.21,0.58,-0.20,0.20,0.35,0.60,0.77,0.78,0.78
459.48,0.53,-0.26,0.55,-0.24,0.24,0.39,0.63,0.77,0.79,0.79
464.07,0.49,-0.32,0.52,-0.28,0.28,0.43,0.67,0.77,0.80,0.81
468.71,0.47,-0.35,0.48,-0.33,0.33,0.46,0.70,0.79,0.81,0.81
473.40,0.45,-0.38,0.45,-0.37,0.37,0.50,0.73,0.82,0.82,0.82
478.13,0.44,-0.40,0.42,-0.41,0.41,0.53,0.76,0.85,0.83,0.83
482.91,0.41,-0.44,0.38,-0.46,0.46,0.57,0.78,0.86,0.84,0.84
487.74,0.38,-0.48,0.35,-0.50,0.50,0.60,0.81,0.88,0.85,0.85
492.62,0.34,-0.52,0.32,-0.54,0.54,0.63,0.83,0.88,0.86,0.86
497.55,0.30,-0.57,0.29,-0.59,0.59,0.67,0.85,0.88,0.88,0.87
502.52,0.26,-0.62,0.26,-0.63,0.63,0.70,0.87,0.88,0.89,0.88
507.55,0.22,-0.68,0.23,-0.67,0.67,0.73,0.89,0.89,0.90,0.90
512.62,0.19,-0.72,0.20,-0.71,0.71,0.76,0.91,0.90,0.91,0.91
517.75,0.16,-0.77,0.17,-0.75,0.75,0.80,0.92,0.91,0.92,0.93
522.93,0.14,-0.80,0.14,-0.80,0.80,0.83,0.93,0.93,0.94,0.94
528.16,0.12,-0.83,0.11,-0.84,0.84,0.86,0.94,0.95,0.95,0.95
533.44,0.09,-0.87,0.09,-0.87,0.87,0.89,0.95,0.96,0.96,0.96
538.77,0.06,-0.91,0.07,-0.91,0.91,0.92,0.96,0.96,0.97,0.97
544.16,0.04,-0.95,0.05,-0.94,0.94,0.95,0.97,0.97,0.98,0.99
549.60,0.03,-0.97,0.03,-0.96,0.96,0.97,0.97,0.99,0.99,1.00
555.10,0.01,-1.01,0.01,-0.99,0.99,1.00,0.98,1.00,1.01,1.02
560.65,-0.00,-1.03,-0.00,-1.02,1.02,1.03,0.98,1.02,1.02,1.03
