frequency,raw
20,-13.95
21,-13.23
22,-12.71
23,-12.32
24,-11.89
25,-11.26
26,-10.82
27,-10.40
28,-9.98
29,-9.73
30,-9.41
31,-9.16
32,-8.96
33,-8.76
34,-8.44
35,-8.11
36,-7.96
37,-7.78
38,-7.46
39,-7.22
40,-7.09
41,-6.81
42,-6.81
43,-6.49
44,-6.49
45,-6.41
46,-6.16
47,-6.16
48,-6.01
49,-5.84
50,-5.84
51,-5.51
52,-5.51
53,-5.51
54,-5.19
55,-5.19
56,-4.96
57,-4.86
58,-4.68
59,-4.54
60,-4.46
61,-4.27
62,-4.22
63,-4.22
64,-4.06
65,-3.89
66,-3.89
67,-3.89
68,-3.86
69,-3.69
70,-3.57
71,-3.57
72,-3.57
73,-3.57
74,-3.57
75,-3.56
76,-3.41
77,-3.26
78,-3.24
79,-3.24
80,-3.24
81,-3.18
82,-3.04
83,-2.92
84,-2.92
85,-2.92
86,-2.92
87,-2.92
88,-2.92
89,-2.92
90,-2.68
91,-2.59
92,-2.59
93,-2.59
94,-2.59
95,-2.59
96,-2.59
97,-2.59
98,-2.59
99,-2.53
100,-2.43
101,-2.43
102,-2.36
104,-2.27
105,-2.27
106,-2.27
107,-2.27
108,-2.27
109,-2.27
110,-2.27
111,-2.27
112,-2.27
113,-2.08
114,-1.95
115,-1.95
117,-1.95
118,-1.95
119,-1.95
120,-1.95
121,-1.89
123,-1.71
124,-1.62
125,-1.62
126,-1.62
128,-1.58
129,-1.49
130,-1.40
131,-1.32
133,-1.30
134,-1.30
135,-1.30
137,-1.30
138,-1.30
140,-1.30
141,-1.30
142,-1.30
144,-1.30
145,-1.30
147,-1.30
148,-1.30
150,-1.30
151,-1.30
153,-1.30
154,-1.28
156,-1.13
157,-1.06
159,-0.97
160,-0.97
162,-0.97
164,-0.97
165,-0.97
167,-0.97
169,-0.87
170,-0.81
172,-0.68
174,-0.65
175,-0.65
177,-0.65
179,-0.65
181,-0.65
183,-0.65
184,-0.65
186,-0.65
188,-0.65
190,-0.65
192,-0.65
194,-0.65
196,-0.65
198,-0.65
200,-0.65
202,-0.65
204,-0.65
206,-0.65
208,-0.65
210,-0.65
212,-0.65
214,-0.65
216,-0.65
218,-0.65
221,-0.65
223,-0.65
225,-0.65
227,-0.65
229,-0.65
232,-0.65
234,-0.65
236,-0.65
239,-0.65
241,-0.65
244,-0.65
246,-0.65
248,-0.65
251,-0.65
253,-0.65
256,-0.65
259,-0.65
261,-0.65
264,-0.65
266,-0.65
269,-0.65
272,-0.65
274,-0.65
277,-0.65
280,-0.65
283,-0.65
286,-0.65
288,-0.65
291,-0.65
294,-0.65
297,-0.65
300,-0.65
303,-0.65
306,-0.65
309,-0.65
312,-0.65
316,-0.65
319,-0.65
322,-0.65
325,-0.65
328,-0.65
332,-0.65
335,-0.65
338,-0.65
342,-0.65
345,-0.65
349,-0.65
352,-0.65
356,-0.65
359,-0.65
363,-0.65
366,-0.65
370,-0.65
374,-0.65
377,-0.65
381,-0.65
385,-0.65
389,-0.65
393,-0.65
397,-0.66
401,-0.77
405,-0.81
409,-0.83
413,-0.94
417,-0.97
421,-0.97
425,-0.97
430,-0.97
434,-0.93
438,-0.82
443,-0.70
447,-0.65
451,-0.65
456,-0.65
460,-0.65
465,-0.65
470,-0.65
474,-0.65
479,-0.65
484,-0.65
489,-0.65
494,-0.70
499,-0.81
504,-0.70
509,-0.65
514,-0.65
519,-0.65
524,-0.65
529,-0.65
535,-0.65
540,-0.65
545,-0.65
551,-0.65
556,-0.65
562,-0.65
568,-0.65
573,-0.65
579,-0.65
585,-0.65
591,-0.65
596,-0.65
602,-0.65
608,-0.65
615,-0.65
621,-0.65
627,-0.65
633,-0.65
639,-0.65
646,-0.65
652,-0.65
659,-0.65
665,-0.65
672,-0.65
679,-0.65
686,-0.65
692,-0.65
699,-0.65
706,-0.65
713,-0.65
721,-0.65
728,-0.65
735,-0.65
742,-0.65
750,-0.65
757,-0.65
765,-0.65
773,-0.65
780,-0.63
788,-0.52
796,-0.40
804,-0.32
812,-0.32
820,-0.32
828,-0.32
837,-0.32
845,-0.32
853,-0.32
862,-0.32
871,-0.32
879,-0.32
888,-0.32
897,-0.32
906,-0.24
915,-0.16
924,-0.16
933,-0.07
943,0.00
952,0.00
962,-0.00
971,0.00
981,-0.00
991,-0.00
1001,0.00
1011,0.03
1021,0.14
1031,0.25
1041,0.32
1052,0.32
1062,0.32
1073,0.32
1084,0.33
1094,0.43
1105,0.54
1116,0.65
1128,0.65
1139,0.65
1150,0.65
1162,0.65
1173,0.81
1185,0.97
1197,0.97
1209,0.97
1221,0.97
1233,0.97
1246,1.09
1258,1.20
1271,1.30
1283,1.30
1296,1.30
1309,1.32
1322,1.43
1335,1.54
1349,1.62
1362,1.62
1376,1.72
1390,1.84
1404,1.95
1418,1.95
1432,2.01
1446,2.12
1461,2.24
1475,2.27
1490,2.33
1505,2.55
1520,2.59
1535,2.59
1550,2.59
1566,2.80
1582,2.92
1597,2.92
1613,3.03
1629,3.14
1646,3.24
1662,3.24
1679,3.32
1696,3.44
1713,3.55
1730,3.66
1747,3.77
1764,3.88
1782,3.89
1800,4.00
1818,4.22
1836,4.22
1854,4.34
1873,4.56
1892,4.67
1911,4.78
1930,4.93
1949,5.15
1969,5.28
1988,5.39
2008,5.50
2028,5.72
2048,5.89
2069,6.00
2090,6.12
2111,6.30
2132,6.51
2153,6.62
2175,6.81
2196,7.00
2218,7.11
2240,7.32
2263,7.50
2285,7.61
2308,7.83
2331,8.00
2355,8.12
2378,8.34
2402,8.50
2426,8.61
2450,8.72
2475,8.92
2500,9.11
2525,9.23
2550,9.34
2575,9.49
2601,9.72
2627,9.73
2653,9.84
2680,10.05
2707,10.05
2734,10.12
2761,10.24
2789,10.35
2817,10.38
2845,10.38
2873,10.38
2902,10.38
2931,10.38
2960,10.38
2990,10.27
3020,10.16
3050,10.05
3080,9.94
3111,9.82
3142,9.69
3174,9.46
3206,9.32
3238,9.17
3270,8.95
3303,8.72
3336,8.50
3369,8.28
3403,7.94
3437,7.60
3471,7.28
3506,7.05
3541,6.76
3576,6.42
3612,6.08
3648,5.75
3685,5.41
3721,5.08
3759,4.83
3796,4.61
3834,4.38
3873,4.05
3911,3.71
3950,3.39
3990,3.16
4030,2.93
4070,2.71
4111,2.49
4152,2.26
4193,2.04
4235,1.81
4278,1.59
4321,1.36
4364,1.14
4407,1.03
4451,0.85
4496,0.65
4541,0.65
4586,0.50
4632,0.32
4679,0.32
4725,0.41
4773,0.52
4820,0.64
4868,0.85
4917,1.07
4966,1.30
5016,1.63
5066,1.91
5117,2.16
5168,2.61
5220,2.91
5272,3.18
5325,3.64
5378,3.99
5432,4.33
5486,4.67
5541,4.90
5596,5.23
5652,5.68
5709,5.79
5766,5.97
5823,6.19
5882,6.42
5940,6.56
6000,6.68
6060,6.79
6120,6.81
6182,6.81
6244,6.81
6306,6.81
6369,6.81
6433,6.81
6497,6.70
6562,6.58
6628,6.47
6694,6.36
6761,6.25
6828,6.11
6897,5.88
6966,5.57
7035,5.19
7106,4.74
7177,4.29
7249,3.89
7321,3.56
7394,3.22
7468,2.88
7543,2.55
7618,2.21
7694,1.80
7771,1.40
7849,1.18
7928,0.77
8007,0.36
8087,0.02
8168,-0.42
8250,-0.81
8332,-1.15
8415,-1.60
8499,-1.92
8584,-2.16
8670,-2.50
8757,-2.83
8845,-3.11
8933,-3.22
9022,-3.34
9113,-3.45
9204,-3.56
9296,-3.46
9389,-3.29
9483,-3.07
9577,-2.85
9673,-2.62
9770,-2.40
9868,-2.17
9966,-1.95
10066,-1.69
10167,-1.35
10268,-1.02
10371,-0.72
10475,-0.50
10579,-0.27
10685,-0.05
10792,0.18
10900,0.40
11009,0.63
11119,0.85
11230,1.07
11343,1.38
11456,1.69
11571,1.91
11686,2.14
11803,2.32
11921,2.43
12040,2.54
12161,2.71
12282,2.92
12405,2.92
12529,2.92
12655,2.92
12781,2.92
12909,2.92
13038,2.92
13168,2.92
13300,2.73
13433,2.50
13567,2.28
13703,2.05
13840,1.83
13978,1.60
14118,1.26
14259,0.99
14402,0.74
14546,0.41
14692,0.07
14838,-0.23
14987,-0.46
15137,-0.88
15288,-1.23
15441,-1.45
15595,-1.90
15751,-2.23
15909,-2.44
16068,-2.56
16229,-2.59
16391,-2.59
16555,-2.59
16720,-2.59
16888,-2.59
17056,-2.59
17227,-2.50
17399,-2.48
17573,-2.59
17749,-2.59
17926,-2.72
18106,-2.94
18287,-3.17
18470,-3.47
18654,-3.78
18841,-4.00
19029,-4.40
19220,-4.78
19412,-5.00
19606,-5.43
19802,-5.87
20000,-6.32
