frequency,raw,error,smoothed,error_smoothed,equalization,parametric_eq,fixed_band_eq,equalized_raw,equalized_smoothed,target
20.00,-1.04,-6.20,-1.04,-6.20,6.11,4.35,1.27,5.06,5.07,5.16
20.20,-0.88,-6.04,-0.89,-6.05,5.97,4.32,1.31,5.09,5.08,5.16
20.40,-0.74,-5.90,-0.74,-5.90,5.83,4.29,1.35,5.09,5.09,5.16
20.61,-0.60,-5.75,-0.59,-5.74,5.70,4.26,1.39,5.10,5.11,5.16
20.81,-0.44,-5.59,-0.44,-5.59,5.56,4.22,1.43,5.12,5.12,5.15
21.02,-0.29,-5.44,-0.29,-5.44,5.43,4.19,1.48,5.14,5.14,5.15
21.23,-0.14,-5.29,-0.14,-5.29,5.30,4.16,1.52,5.15,5.15,5.15
21.44,-0.00,-5.16,-0.00,-5.15,5.16,4.12,1.57,5.16,5.16,5.16
21.66,0.14,-5.01,0.14,-5.01,5.01,4.09,1.62,5.15,5.15,5.15
21.87,0.27,-4.87,0.27,-4.87,4.87,4.05,1.67,5.14,5.15,5.14
22.09,0.40,-4.74,0.40,-4.74,4.75,4.02,1.72,5.15,5.14,5.13
22.31,0.52,-4.61,0.51,-4.62,4.62,3.98,1.78,5.14,5.14,5.13
22.54,0.62,-4.51,0.62,-4.50,4.51,3.94,1.83,5.12,5.13,5.12
22.76,0.73,-4.39,0.73,-4.40,4.40,3.91,1.89,5.12,5.12,5.12
22.99,0.83,-4.29,0.82,-4.29,4.29,3.87,1.94,5.12,5.11,5.12
23.22,0.92,-4.19,0.92,-4.19,4.19,3.83,2.00,5.10,5.11,5.11
23.45,1.02,-4.09,1.01,-4.09,4.09,3.79,2.06,5.11,5.10,5.11
23.69,1.11,-3.99,1.11,-3.99,3.99,3.75,2.12,5.10,5.10,5.10
23.92,1.20,-3.89,1.20,-3.89,3.90,3.71,2.19,5.10,5.10,5.09
24.16,1.29,-3.80,1.28,-3.80,3.80,3.67,2.25,5.09,5.09,5.09
24.40,1.37,-3.72,1.37,-3.71,3.71,3.63,2.31,5.08,5.09,5.09
24.65,1.46,-3.63,1.46,-3.63,3.62,3.58,2.38,5.08,5.08,5.09
24.89,1.55,-3.54,1.55,-3.54,3.54,3.54,2.44,5.09,5.08,5.09
25.14,1.63,-3.46,1.63,-3.45,3.46,3.50,2.51,5.08,5.08,5.09
25.39,1.71,-3.37,1.71,-3.37,3.38,3.45,2.57,5.09,5.08,5.08
25.65,1.78,-3.30,1.78,-3.29,3.30,3.41,2.64,5.08,5.08,5.07
25.91,1.86,-3.22,1.85,-3.22,3.22,3.36,2.70,5.08,5.08,5.07
26.16,1.93,-3.15,1.93,-3.15,3.15,3.32,2.76,5.08,5.08,5.08
26.43,2.00,-3.09,2.00,-3.08,3.08,3.27,2.83,5.08,5.08,5.08
26.69,2.07,-3.01,2.07,-3.01,3.01,3.22,2.89,5.08,5.08,5.08
26.96,2.14,-2.94,2.14,-2.94,2.94,3.17,2.95,5.08,5.08,5.08
27.23,2.21,-2.87,2.20,-2.88,2.87,3.13,3.00,5.08,5.08,5.08
27.50,2.27,-2.81,2.27,-2.81,2.80,3.08,3.06,5.07,5.08,5.08
27.77,2.35,-2.74,2.34,-2.74,2.73,3.03,3.11,5.08,5.08,5.09
28.05,2.42,-2.66,2.42,-2.66,2.66,2.97,3.16,5.08,5.08,5.08
28.33,2.49,-2.59,2.49,-2.58,2.58,2.92,3.20,5.07,5.07,5.07
28.62,2.57,-2.50,2.56,-2.51,2.51,2.87,3.24,5.07,5.07,5.06
28.90,2.63,-2.44,2.63,-2.43,2.43,2.82,3.27,5.06,5.06,5.07
29.19,2.70,-2.36,2.70,-2.36,2.36,2.76,3.31,5.06,5.06,5.06
29.48,2.77,-2.28,2.77,-2.29,2.29,2.71,3.33,5.05,5.05,5.05
29.78,2.84,-2.21,2.83,-2.21,2.22,2.65,3.35,5.05,5.05,5.05
30.08,2.90,-2.15,2.89,-2.15,2.15,2.60,3.35,5.04,5.04,5.05
30.38,2.95,-2.09,2.96,-2.08,2.08,2.54,3.36,5.03,5.04,5.03
30.68,3.02,-2.01,3.01,-2.02,2.02,2.48,3.35,5.04,5.03,5.03
30.99,3.08,-1.95,3.07,-1.96,1.96,2.42,3.35,5.04,5.03,5.03
31.30,3.13,-1.90,3.13,-1.90,1.90,2.36,3.33,5.03,5.03,5.03
31.61,3.19,-1.84,3.18,-1.84,1.84,2.30,3.30,5.03,5.03,5.03
31.93,3.24,-1.79,3.24,-1.79,1.79,2.24,3.27,5.03,5.03,5.02
32.24,3.29,-1.74,3.29,-1.73,1.73,2.18,3.23,5.02,5.02,5.03
32.57,3.35,-1.67,3.34,-1.68,1.68,2.12,3.18,5.03,5.02,5.02
32.89,3.40,-1.63,3.40,-1.63,1.62,2.05,3.13,5.02,5.02,5.03
33.22,3.46,-1.57,3.46,-1.57,1.57,1.99,3.07,5.03,5.02,5.03
33.55,3.51,-1.51,3.51,-1.51,1.51,1.93,3.00,5.02,5.02,5.02
33.89,3.56,-1.45,3.56,-1.45,1.45,1.86,2.93,5.01,5.01,5.01
34.23,3.61,-1.39,3.61,-1.39,1.39,1.79,2.85,5.00,5.00,5.00
34.57,3.66,-1.34,3.66,-1.33,1.34,1.73,2.77,4.99,4.99,4.99
34.92,3.71,-1.26,3.70,-1.27,1.27,1.66,2.68,4.98,4.98,4.97
35.27,3.75,-1.22,3.75,-1.21,1.21,1.59,2.59,4.96,4.96,4.97
35.62,3.80,-1.14,3.80,-1.15,1.14,1.52,2.49,4.94,4.94,4.94
35.97,3.84,-1.08,3.84,-1.08,1.08,1.45,2.39,4.91,4.91,4.92
36.33,3.89,-1.01,3.89,-1.01,1.01,1.38,2.29,4.89,4.89,4.90
36.70,3.93,-0.94,3.93,-0.94,0.93,1.31,2.18,4.86,4.87,4.87
37.06,3.99,-0.85,3.98,-0.86,0.86,1.23,2.07,4.85,4.84,4.84
37.43,4.03,-0.78,4.03,-0.78,0.78,1.16,1.96,4.81,4.81,4.81
37.81,4.08,-0.71,4.08,-0.70,0.71,1.09,1.85,4.78,4.78,4.78
38.19,4.13,-0.62,4.12,-0.63,0.63,1.01,1.74,4.76,4.75,4.75
38.57,4.17,-0.56,4.17,-0.55,0.56,0.93,1.62,4.72,4.73,4.73
38.95,4.22,-0.48,4.21,-0.48,0.48,0.86,1.50,4.70,4.70,4.70
39.34,4.26,-0.41,4.26,-0.41,0.41,0.78,1.39,4.67,4.67,4.67
39.74,4.30,-0.34,4.30,-0.34,0.34,0.70,1.27,4.64,4.64,4.64
40.14,4.35,-0.27,4.34,-0.27,0.27,0.62,1.15,4.62,4.62,4.62
40.54,4.39,-0.21,4.39,-0.21,0.21,0.54,1.03,4.59,4.59,4.60
40.94,4.44,-0.14,4.44,-0.14,0.14,0.46,0.91,4.58,4.57,4.58
41.35,4.48,-0.07,4.48,-0.07,0.07,0.38,0.79,4.55,4.55,4.55
41.76,4.53,0.00,4.53,-0.01,0.01,0.30,0.67,4.54,4.53,4.52
42.18,4.57,0.05,4.57,0.06,-0.06,0.22,0.56,4.51,4.51,4.52
42.60,4.61,0.12,4.61,0.12,-0.12,0.14,0.44,4.49,4.49,4.49
43.03,4.65,0.18,4.65,0.18,-0.18,0.06,0.32,4.47,4.47,4.47
43.46,4.69,0.24,4.69,0.24,-0.24,-0.03,0.20,4.45,4.45,4.45
43.90,4.74,0.31,4.73,0.31,-0.30,-0.11,0.08,4.43,4.43,4.43
44.33,4.78,0.37,4.78,0.37,-0.36,-0.20,-0.04,4.41,4.41,4.40
44.78,4.81,0.42,4.81,0.42,-0.43,-0.28,-0.16,4.38,4.39,4.39
45.23,4.86,0.48,4.85,0.48,-0.49,-0.37,-0.28,4.37,4.36,4.38
45.68,4.89,0.55,4.89,0.55,-0.55,-0.45,-0.40,4.33,4.34,4.34
46.13,4.93,0.63,4.93,0.62,-0.62,-0.54,-0.52,4.31,4.31,4.30
46.60,4.97,0.68,4.97,0.69,-0.69,-0.63,-0.64,4.28,4.28,4.28
47.06,5.01,0.75,5.01,0.76,-0.75,-0.71,-0.76,4.25,4.25,4.25
47.53,5.05,0.82,5.05,0.83,-0.83,-0.80,-0.88,4.22,4.22,4.22
48.01,5.08,0.90,5.08,0.90,-0.90,-0.89,-1.00,4.18,4.18,4.17
48.49,5.12,0.97,5.11,0.97,-0.97,-0.98,-1.11,4.14,4.14,4.14
48.97,5.15,1.04,5.15,1.04,-1.05,-1.06,-1.23,4.10,4.10,4.10
49.46,5.18,1.11,5.18,1.12,-1.12,-1.15,-1.35,4.06,4.06,4.07
49.96,5.22,1.21,5.22,1.20,-1.20,-1.24,-1.47,4.02,4.02,4.01
50.46,5.26,1.28,5.25,1.28,-1.27,-1.33,-1.58,3.99,3.98,3.98
50.96,5.29,1.35,5.29,1.35,-1.34,-1.41,-1.70,3.95,3.95,3.94
51.47,5.32,1.41,5.32,1.42,-1.41,-1.50,-1.81,3.90,3.90,3.90
51.99,5.35,1.49,5.35,1.48,-1.49,-1.59,-1.93,3.86,3.86,3.86
52.51,5.39,1.56,5.38,1.55,-1.56,-1.67,-2.04,3.83,3.82,3.83
53.03,5.42,1.61,5.42,1.63,-1.63,-1.76,-2.15,3.79,3.79,3.80
53.56,5.46,1.70,5.46,1.70,-1.70,-1.85,-2.26,3.76,3.76,3.76
54.10,5.50,1.78,5.49,1.77,-1.77,-1.93,-2.36,3.73,3.72,3.71
54.64,5.52,1.84,5.52,1.85,-1.84,-2.01,-2.47,3.68,3.68,3.68
55.18,5.55,1.92,5.55,1.91,-1.91,-2.10,-2.57,3.64,3.64,3.63
55.74,5.58,1.98,5.58,1.98,-1.98,-2.18,-2.67,3.60,3.60,3.60
56.29,5.61,2.04,5.61,2.04,-2.04,-2.26,-2.76,3.57,3.57,3.57
56.86,5.64,2.10,5.64,2.11,-2.10,-2.34,-2.85,3.53,3.54,3.54
57.42,5.67,2.18,5.67,2.17,-2.16,-2.42,-2.94,3.51,3.51,3.49
58.00,5.70,2.23,5.70,2.23,-2.22,-2.50,-3.02,3.48,3.48,3.46
58.58,5.72,2.27,5.72,2.28,-2.28,-2.58,-3.09,3.44,3.44,3.44
59.16,5.75,2.33,5.75,2.33,-2.34,-2.65,-3.16,3.41,3.41,3.41
59.76,5.77,2.38,5.77,2.39,-2.40,-2.72,-3.23,3.36,3.37,3.38
60.35,5.80,2.47,5.79,2.46,-2.47,-2.80,-3.29,3.33,3.32,3.33
60.96,5.81,2.52,5.81,2.53,-2.54,-2.87,-3.34,3.27,3.27,3.29
61.57,5.84,2.61,5.84,2.61,-2.61,-2.94,-3.39,3.23,3.23,3.23
62.18,5.86,2.68,5.86,2.68,-2.68,-3.00,-3.44,3.18,3.18,3.17
62.80,5.89,2.76,5.88,2.76,-2.75,-3.07,-3.47,3.14,3.14,3.13
63.43,5.90,2.82,5.90,2.82,-2.81,-3.13,-3.50,3.09,3.09,3.07
64.07,5.92,2.88,5.92,2.88,-2.88,-3.19,-3.53,3.04,3.04,3.04
64.71,5.94,2.94,5.93,2.94,-2.94,-3.25,-3.54,3.00,3.00,3.00
65.35,5.95,2.98,5.95,2.99,-2.99,-3.30,-3.56,2.96,2.96,2.96
66.01,5.97,3.04,5.97,3.04,-3.05,-3.36,-3.57,2.92,2.92,2.93
66.67,5.99,3.09,5.98,3.09,-3.10,-3.41,-3.57,2.89,2.89,2.90
67.33,6.00,3.15,6.00,3.15,-3.15,-3.46,-3.57,2.85,2.85,2.85
68.01,6.01,3.20,6.01,3.20,-3.20,-3.50,-3.56,2.81,2.81,2.81
68.69,6.03,3.26,6.02,3.25,-3.25,-3.55,-3.55,2.78,2.77,2.77
69.37,6.03,3.29,6.03,3.30,-3.30,-3.59,-3.54,2.72,2.73,2.73
70.07,6.05,3.35,6.05,3.35,-3.35,-3.63,-3.52,2.69,2.69,2.70
70.77,6.06,3.40,6.06,3.40,-3.40,-3.66,-3.50,2.65,2.65,2.66
71.48,6.07,3.46,6.07,3.45,-3.45,-3.69,-3.48,2.61,2.61,2.61
72.19,6.07,3.50,6.07,3.50,-3.50,-3.73,-3.46,2.57,2.57,2.57
72.91,6.08,3.55,6.07,3.55,-3.55,-3.75,-3.43,2.53,2.53,2.53
73.64,6.08,3.60,6.08,3.60,-3.59,-3.78,-3.41,2.49,2.49,2.48
74.38,6.08,3.63,6.08,3.64,-3.63,-3.80,-3.38,2.44,2.45,2.44
75.12,6.09,3.68,6.09,3.68,-3.67,-3.82,-3.36,2.41,2.41,2.41
75.87,6.09,3.70,6.09,3.71,-3.71,-3.84,-3.33,2.38,2.38,2.39
76.63,6.09,3.74,6.09,3.74,-3.74,-3.86,-3.30,2.35,2.34,2.34
77.40,6.08,3.76,6.08,3.77,-3.77,-3.87,-3.28,2.31,2.31,2.31
78.17,6.08,3.81,6.08,3.80,-3.80,-3.88,-3.25,2.28,2.28,2.27
78.95,6.08,3.82,6.07,3.82,-3.82,-3.89,-3.23,2.25,2.25,2.26
79.74,6.07,3.84,6.07,3.85,-3.85,-3.90,-3.21,2.22,2.22,2.22
80.54,6.06,3.87,6.06,3.87,-3.87,-3.91,-3.19,2.19,2.19,2.19
81.35,6.06,3.90,6.06,3.89,-3.89,-3.91,-3.17,2.16,2.16,2.16
82.16,6.05,3.91,6.05,3.91,-3.91,-3.91,-3.15,2.13,2.13,2.14
82.98,6.04,3.94,6.03,3.93,-3.93,-3.91,-3.14,2.11,2.10,2.10
83.81,6.02,3.95,6.02,3.95,-3.95,-3.91,-3.13,2.07,2.07,2.07
84.65,6.00,3.97,6.00,3.97,-3.96,-3.90,-3.11,2.03,2.04,2.03
85.50,5.99,3.99,5.98,3.98,-3.98,-3.90,-3.11,2.01,2.01,2.00
86.35,5.97,3.99,5.97,3.99,-3.99,-3.89,-3.10,1.98,1.98,1.98
87.22,5.95,4.00,5.95,4.00,-4.00,-3.88,-3.10,1.95,1.95,1.95
88.09,5.93,4.01,5.93,4.01,-4.01,-3.88,-3.10,1.92,1.92,1.92
88.97,5.91,4.02,5.91,4.02,-4.02,-3.86,-3.10,1.89,1.89,1.89
89.86,5.88,4.02,5.88,4.03,-4.02,-3.85,-3.10,1.85,1.86,1.85
90.76,5.86,4.04,5.86,4.03,-4.03,-3.84,-3.11,1.83,1.83,1.82
91.66,5.83,4.04,5.83,4.04,-4.04,-3.83,-3.12,1.79,1.79,1.79
92.58,5.80,4.04,5.80,4.04,-4.04,-3.81,-3.13,1.76,1.75,1.75
93.51,5.76,4.04,5.76,4.05,-4.05,-3.80,-3.14,1.71,1.72,1.72
94.44,5.74,4.05,5.73,4.05,-4.06,-3.78,-3.16,1.68,1.68,1.68
95.39,5.70,4.06,5.70,4.06,-4.06,-3.77,-3.18,1.63,1.63,1.64
96.34,5.66,4.07,5.66,4.07,-4.07,-3.75,-3.20,1.59,1.59,1.59
97.30,5.62,4.06,5.62,4.07,-4.08,-3.73,-3.22,1.54,1.54,1.55
98.28,5.59,4.09,5.59,4.09,-4.08,-3.71,-3.24,1.50,1.50,1.50
99.26,5.55,4.10,5.55,4.09,-4.09,-3.69,-3.27,1.46,1.46,1.45
100.25,5.51,4.09,5.51,4.09,-4.09,-3.67,-3.29,1.42,1.42,1.41
101.25,5.46,4.08,5.46,4.09,-4.08,-3.65,-3.32,1.37,1.38,1.38
102.27,5.42,4.08,5.42,4.08,-4.08,-3.63,-3.35,1.34,1.34,1.34
103.29,5.37,4.07,5.37,4.07,-4.06,-3.61,-3.38,1.30,1.30,1.30
104.32,5.32,4.05,5.32,4.05,-4.05,-3.59,-3.41,1.27,1.27,1.27
105.37,5.27,4.03,5.26,4.03,-4.03,-3.57,-3.45,1.23,1.23,1.23
106.42,5.21,4.00,5.21,4.01,-4.01,-3.55,-3.48,1.19,1.20,1.21
107.48,5.16,4.00,5.16,3.99,-3.99,-3.53,-3.51,1.16,1.17,1.16
108.56,5.11,3.98,5.11,3.97,-3.97,-3.51,-3.54,1.13,1.13,1.13
109.64,5.06,3.95,5.05,3.96,-3.95,-3.49,-3.57,1.11,1.10,1.10
110.74,5.00,3.93,5.00,3.93,-3.93,-3.47,-3.60,1.07,1.07,1.07
111.85,4.94,3.91,4.94,3.91,-3.91,-3.44,-3.63,1.03,1.03,1.03
112.97,4.88,3.89,4.88,3.88,-3.89,-3.42,-3.65,0.99,0.99,0.99
114.10,4.81,3.85,4.81,3.86,-3.87,-3.40,-3.68,0.94,0.95,0.96
115.24,4.76,3.85,4.75,3.84,-3.85,-3.38,-3.70,0.91,0.90,0.91
116.39,4.69,3.83,4.69,3.83,-3.83,-3.35,-3.71,0.86,0.86,0.85
117.55,4.62,3.80,4.62,3.81,-3.81,-3.33,-3.73,0.81,0.82,0.82
118.73,4.56,3.80,4.55,3.79,-3.78,-3.31,-3.74,0.77,0.77,0.76
119.92,4.49,3.77,4.49,3.77,-3.76,-3.29,-3.75,0.73,0.73,0.72
121.12,4.42,3.73,4.42,3.74,-3.74,-3.26,-3.75,0.68,0.68,0.68
122.33,4.35,3.72,4.35,3.71,-3.72,-3.24,-3.75,0.63,0.63,0.63
123.55,4.28,3.69,4.27,3.68,-3.69,-3.22,-3.74,0.59,0.58,0.59
124.79,4.20,3.65,4.20,3.66,-3.67,-3.19,-3.73,0.53,0.53,0.54
126.03,4.13,3.63,4.13,3.64,-3.64,-3.17,-3.72,0.48,0.48,0.49
127.29,4.06,3.63,4.05,3.62,-3.62,-3.14,-3.70,0.44,0.43,0.43
128.57,3.98,3.60,3.98,3.60,-3.60,-3.12,-3.68,0.38,0.39,0.38
129.85,3.91,3.58,3.91,3.58,-3.57,-3.10,-3.65,0.34,0.34,0.33
131.15,3.83,3.54,3.83,3.54,-3.54,-3.07,-3.62,0.29,0.29,0.28
132.46,3.75,3.51,3.75,3.51,-3.51,-3.05,-3.58,0.24,0.24,0.23
133.79,3.67,3.47,3.67,3.47,-3.47,-3.02,-3.54,0.20,0.20,0.20
135.12,3.59,3.44,3.59,3.43,-3.43,-3.00,-3.50,0.15,0.16,0.15
136.48,3.51,3.38,3.51,3.39,-3.39,-2.97,-3.45,0.12,0.12,0.12
137.84,3.43,3.34,3.43,3.34,-3.34,-2.94,-3.40,0.08,0.08,0.09
139.22,3.35,3.30,3.35,3.30,-3.30,-2.92,-3.35,0.05,0.05,0.04
140.61,3.27,3.25,3.27,3.25,-3.25,-2.89,-3.30,0.02,0.02,0.02
142.02,3.19,3.20,3.19,3.20,-3.20,-2.87,-3.24,-0.01,-0.01,-0.01
143.44,3.11,3.15,3.11,3.15,-3.15,-2.84,-3.18,-0.04,-0.04,-0.04
144.87,3.03,3.09,3.03,3.09,-3.10,-2.81,-3.12,-0.07,-0.07,-0.06
146.32,2.95,3.04,2.95,3.04,-3.04,-2.78,-3.06,-0.09,-0.10,-0.09
147.78,2.86,2.98,2.86,2.99,-2.99,-2.76,-3.00,-0.13,-0.12,-0.12
149.26,2.79,2.94,2.78,2.94,-2.93,-2.73,-2.94,-0.15,-0.15,-0.15
150.75,2.70,2.89,2.70,2.88,-2.88,-2.70,-2.88,-0.18,-0.18,-0.19
152.26,2.62,2.82,2.62,2.83,-2.82,-2.67,-2.81,-0.21,-0.21,-0.21
153.78,2.53,2.77,2.53,2.77,-2.77,-2.64,-2.75,-0.24,-0.24,-0.24
155.32,2.45,2.71,2.45,2.72,-2.72,-2.61,-2.69,-0.27,-0.27,-0.27
156.88,2.37,2.67,2.36,2.67,-2.67,-2.58,-2.63,-0.30,-0.30,-0.30
158.44,2.28,2.61,2.28,2.61,-2.61,-2.55,-2.57,-0.34,-0.33,-0.33
160.03,2.20,2.56,2.19,2.56,-2.57,-2.52,-2.50,-0.37,-0.37,-0.37
161.63,2.11,2.51,2.11,2.51,-2.52,-2.49,-2.45,-0.41,-0.41,-0.40
163.24,2.03,2.48,2.03,2.47,-2.47,-2.45,-2.39,-0.44,-0.44,-0.45
164.88,1.95,2.43,1.95,2.43,-2.42,-2.42,-2.33,-0.48,-0.48,-0.48
166.53,1.87,2.39,1.87,2.38,-2.38,-2.39,-2.27,-0.51,-0.51,-0.52
168.19,1.79,2.33,1.78,2.33,-2.33,-2.36,-2.22,-0.55,-0.55,-0.55
169.87,1.70,2.28,1.70,2.29,-2.29,-2.32,-2.17,-0.59,-0.59,-0.58
171.57,1.62,2.25,1.62,2.24,-2.25,-2.29,-2.12,-0.63,-0.63,-0.63
173.29,1.54,2.20,1.54,2.20,-2.20,-2.25,-2.07,-0.66,-0.67,-0.67
175.02,1.46,2.16,1.46,2.16,-2.16,-2.22,-2.02,-0.70,-0.70,-0.70
176.77,1.38,2.11,1.38,2.11,-2.11,-2.18,-1.97,-0.74,-0.74,-0.74
178.54,1.30,2.07,1.30,2.07,-2.07,-2.15,-1.92,-0.77,-0.77,-0.77
180.32,1.22,2.03,1.22,2.03,-2.03,-2.11,-1.88,-0.81,-0.81,-0.81
182.13,1.14,1.98,1.14,1.98,-1.98,-2.07,-1.84,-0.85,-0.85,-0.85
183.95,1.06,1.94,1.06,1.94,-1.94,-2.04,-1.80,-0.88,-0.88,-0.88
185.79,0.99,1.91,0.98,1.90,-1.90,-2.00,-1.76,-0.91,-0.92,-0.92
187.65,0.91,1.86,0.91,1.86,-1.86,-1.96,-1.72,-0.95,-0.95,-0.95
189.52,0.83,1.82,0.83,1.82,-1.82,-1.93,-1.68,-0.99,-0.99,-0.99
191.42,0.76,1.79,0.75,1.78,-1.78,-1.89,-1.64,-1.03,-1.03,-1.03
193.33,0.68,1.74,0.68,1.75,-1.75,-1.85,-1.61,-1.07,-1.07,-1.07
195.27,0.61,1.71,0.60,1.71,-1.71,-1.81,-1.58,-1.10,-1.10,-1.10
197.22,0.53,1.67,0.53,1.67,-1.67,-1.77,-1.55,-1.14,-1.14,-1.14
199.19,0.46,1.63,0.46,1.63,-1.63,-1.74,-1.52,-1.17,-1.17,-1.17
201.18,0.40,1.60,0.39,1.59,-1.59,-1.70,-1.49,-1.19,-1.20,-1.21
203.19,0.32,1.55,0.32,1.55,-1.55,-1.66,-1.46,-1.23,-1.23,-1.23
205.23,0.25,1.50,0.25,1.51,-1.51,-1.63,-1.44,-1.27,-1.26,-1.26
207.28,0.20,1.48,0.19,1.47,-1.48,-1.59,-1.41,-1.28,-1.29,-1.28
209.35,0.13,1.44,0.13,1.44,-1.44,-1.56,-1.39,-1.31,-1.31,-1.31
211.44,0.07,1.41,0.07,1.41,-1.41,-1.53,-1.36,-1.34,-1.34,-1.34
213.56,0.01,1.38,0.01,1.38,-1.38,-1.50,-1.34,-1.37,-1.37,-1.37
215.69,-0.04,1.35,-0.05,1.35,-1.35,-1.47,-1.32,-1.39,-1.40,-1.39
217.85,-0.10,1.31,-0.10,1.32,-1.32,-1.45,-1.31,-1.43,-1.42,-1.42
220.03,-0.14,1.31,-0.14,1.30,-1.30,-1.42,-1.29,-1.44,-1.44,-1.45
222.23,-0.19,1.28,-0.19,1.28,-1.27,-1.40,-1.27,-1.47,-1.47,-1.47
224.45,-0.23,1.26,-0.24,1.26,-1.25,-1.38,-1.26,-1.48,-1.49,-1.49
226.70,-0.28,1.23,-0.28,1.23,-1.23,-1.36,-1.24,-1.51,-1.51,-1.51
228.96,-0.32,1.20,-0.32,1.20,-1.21,-1.34,-1.23,-1.53,-1.53,-1.52
231.25,-0.36,1.18,-0.36,1.18,-1.19,-1.33,-1.22,-1.55,-1.55,-1.54
233.57,-0.39,1.17,-0.39,1.17,-1.17,-1.32,-1.21,-1.56,-1.57,-1.56
235.90,-0.43,1.16,-0.43,1.16,-1.16,-1.31,-1.20,-1.59,-1.58,-1.59
238.26,-0.45,1.16,-0.46,1.15,-1.14,-1.30,-1.19,-1.59,-1.60,-1.61
240.64,-0.49,1.12,-0.49,1.13,-1.13,-1.29,-1.19,-1.62,-1.62,-1.61
243.05,-0.51,1.11,-0.52,1.11,-1.12,-1.28,-1.18,-1.63,-1.63,-1.63
245.48,-0.54,1.10,-0.54,1.10,-1.10,-1.28,-1.18,-1.65,-1.65,-1.65
247.93,-0.56,1.10,-0.56,1.10,-1.09,-1.28,-1.18,-1.66,-1.65,-1.66
250.41,-0.57,1.09,-0.58,1.09,-1.09,-1.27,-1.17,-1.66,-1.66,-1.66
252.92,-0.59,1.08,-0.59,1.08,-1.08,-1.27,-1.17,-1.67,-1.67,-1.67
255.45,-0.61,1.07,-0.61,1.07,-1.07,-1.27,-1.17,-1.68,-1.68,-1.68
258.00,-0.62,1.07,-0.62,1.07,-1.07,-1.27,-1.18,-1.69,-1.69,-1.69
260.58,-0.63,1.06,-0.63,1.07,-1.07,-1.27,-1.18,-1.70,-1.70,-1.70
263.19,-0.64,1.07,-0.64,1.07,-1.07,-1.27,-1.18,-1.71,-1.71,-1.71
265.82,-0.64,1.08,-0.64,1.07,-1.07,-1.27,-1.19,-1.72,-1.72,-1.72
268.48,-0.65,1.07,-0.65,1.08,-1.08,-1.27,-1.19,-1.73,-1.73,-1.73
271.16,-0.64,1.10,-0.65,1.09,-1.09,-1.27,-1.20,-1.73,-1.74,-1.74
273.87,-0.65,1.09,-0.65,1.10,-1.10,-1.27,-1.21,-1.75,-1.75,-1.75
276.61,-0.64,1.12,-0.64,1.12,-1.12,-1.27,-1.22,-1.76,-1.76,-1.76
279.38,-0.63,1.14,-0.64,1.13,-1.13,-1.27,-1.23,-1.76,-1.77,-1.78
282.17,-0.63,1.15,-0.63,1.15,-1.14,-1.28,-1.24,-1.78,-1.77,-1.78
284.99,-0.62,1.15,-0.62,1.16,-1.16,-1.28,-1.26,-1.78,-1.78,-1.78
287.84,-0.61,1.17,-0.61,1.18,-1.18,-1.28,-1.27,-1.79,-1.79,-1.78
290.72,-0.59,1.21,-0.60,1.20,-1.19,-1.28,-1.29,-1.79,-1.79,-1.80
293.63,-0.58,1.22,-0.58,1.22,-1.21,-1.28,-1.31,-1.80,-1.80,-1.80
296.57,-0.56,1.24,-0.56,1.24,-1.24,-1.29,-1.32,-1.80,-1.80,-1.80
299.53,-0.54,1.26,-0.54,1.26,-1.27,-1.29,-1.34,-1.81,-1.81,-1.81
302.53,-0.51,1.30,-0.51,1.30,-1.30,-1.29,-1.37,-1.81,-1.81,-1.81
305.55,-0.48,1.33,-0.48,1.34,-1.34,-1.30,-1.39,-1.83,-1.82,-1.81
308.61,-0.42,1.39,-0.43,1.39,-1.39,-1.30,-1.41,-1.81,-1.82,-1.82
311.69,-0.38,1.44,-0.38,1.44,-1.44,-1.31,-1.44,-1.83,-1.82,-1.82
314.81,-0.32,1.50,-0.32,1.50,-1.50,-1.31,-1.46,-1.82,-1.82,-1.82
317.96,-0.26,1.56,-0.26,1.56,-1.57,-1.32,-1.49,-1.83,-1.83,-1.82
321.14,-0.19,1.63,-0.19,1.63,-1.63,-1.33,-1.52,-1.82,-1.82,-1.82
324.35,-0.12,1.71,-0.12,1.70,-1.70,-1.34,-1.55,-1.82,-1.82,-1.83
327.59,-0.05,1.76,-0.05,1.77,-1.76,-1.35,-1.58,-1.82,-1.82,-1.81
330.87,0.01,1.82,0.01,1.83,-1.83,-1.36,-1.61,-1.82,-1.82,-1.82
334.18,0.07,1.90,0.07,1.89,-1.88,-1.37,-1.65,-1.81,-1.81,-1.83
337.52,0.12,1.94,0.12,1.94,-1.93,-1.38,-1.68,-1.81,-1.81,-1.82
340.90,0.17,1.99,0.16,1.98,-1.97,-1.39,-1.72,-1.81,-1.81,-1.82
344.30,0.20,2.01,0.20,2.01,-2.01,-1.41,-1.76,-1.81,-1.81,-1.81
347.75,0.22,2.02,0.22,2.04,-2.03,-1.42,-1.80,-1.82,-1.81,-1.81
351.23,0.25,2.07,0.24,2.05,-2.05,-1.44,-1.84,-1.80,-1.81,-1.82
354.74,0.26,2.06,0.26,2.07,-2.06,-1.46,-1.89,-1.81,-1.81,-1.80
358.28,0.27,2.08,0.27,2.08,-2.07,-1.48,-1.93,-1.80,-1.80,-1.81
361.87,0.28,2.08,0.27,2.08,-2.08,-1.50,-1.98,-1.80,-1.81,-1.80
365.49,0.28,2.08,0.28,2.08,-2.09,-1.53,-2.03,-1.81,-1.81,-1.81
369.14,0.29,2.08,0.29,2.09,-2.10,-1.55,-2.07,-1.81,-1.81,-1.80
372.83,0.30,2.10,0.30,2.10,-2.11,-1.58,-2.12,-1.81,-1.81,-1.80
376.56,0.33,2.13,0.32,2.12,-2.12,-1.61,-2.18,-1.80,-1.80,-1.80
380.33,0.34,2.14,0.34,2.15,-2.15,-1.65,-2.23,-1.81,-1.80,-1.80
384.13,0.38,2.18,0.37,2.17,-2.17,-1.68,-2.28,-1.79,-1.80,-1.80
387.97,0.40,2.19,0.40,2.20,-2.20,-1.72,-2.34,-1.81,-1.80,-1.79
391.85,0.44,2.23,0.44,2.24,-2.24,-1.76,-2.39,-1.80,-1.80,-1.80
395.77,0.48,2.27,0.48,2.28,-2.28,-1.80,-2.45,-1.80,-1.80,-1.80
399.73,0.54,2.34,0.53,2.32,-2.32,-1.85,-2.50,-1.78,-1.79,-1.80
403.72,0.58,2.37,0.58,2.37,-2.37,-1.90,-2.56,-1.79,-1.79,-1.79
407.76,0.62,2.41,0.62,2.41,-2.41,-1.95,-2.62,-1.80,-1.79,-1.79
411.84,0.67,2.46,0.67,2.46,-2.46,-2.01,-2.68,-1.79,-1.79,-1.79
415.96,0.73,2.51,0.72,2.51,-2.51,-2.07,-2.73,-1.78,-1.79,-1.78
420.12,0.77,2.56,0.77,2.56,-2.56,-2.13,-2.79,-1.79,-1.79,-1.79
424.32,0.82,2.61,0.82,2.60,-2.60,-2.19,-2.85,-1.79,-1.79,-1.79
428.56,0.86,2.64,0.86,2.65,-2.65,-2.26,-2.90,-1.79,-1.79,-1.79
432.85,0.90,2.68,0.90,2.69,-2.69,-2.34,-2.95,-1.80,-1.79,-1.79
437.18,0.95,2.74,0.94,2.74,-2.74,-2.41,-3.00,-1.79,-1.79,-1.80
441.55,0.99,2.79,0.98,2.78,-2.78,-2.49,-3.05,-1.79,-1.79,-1.80
445.96,1.02,2.82,1.02,2.82,-2.82,-2.57,-3.10,-1.80,-1.80,-1.80
450.42,1.06,2.86,1.06,2.86,-2.85,-2.66,-3.14,-1.80,-1.80,-1.80
454.93,1.09,2.89,1.09,2.89,-2.89,-2.74,-3.18,-1.80,-1.80,-1.80
459.48,1.13,2.93,1.13,2.92,-2.92,-2.83,-3.22,-1.79,-1.80,-1.80
464.07,1.16,2.95,1.16,2.95,-2.95,-2.92,-3.25,-1.80,-1.80,-1.79
468.71,1.19,2.98,1.19,2.98,-2.98,-3.00,-3.28,-1.80,-1.79,-1.79
473.40,1.22,3.01,1.22,3.01,-3.01,-3.09,-3.30,-1.79,-1.79,-1.79
478.13,1.25,3.04,1.24,3.04,-3.04,-3.17,-3.32,-1.79,-1.79,-1.79
482.91,1.27,3.06,1.27,3.06,-3.06,-3.25,-3.34,-1.80,-1.79,-1.79
487.74,1.30,3.08,1.30,3.09,-3.09,-3.32,-3.34,-1.79,-1.79,-1.78
492.62,1.33,3.11,1.32,3.11,-3.11,-3.39,-3.34,-1.78,-1.78,-1.78
497.55,1.35,3.13,1.35,3.13,-3.12,-3.44,-3.34,-1.78,-1.78,-1.78
502.52,1.36,3.14,1.36,3.15,-3.14,-3.49,-3.33,-1.78,-1.78,-1.79
507.55,1.38,3.15,1.38,3.15,-3.15,-3.52,-3.31,-1.77,-1.78,-1.78
512.62,1.39,3.16,1.39,3.16,-3.16,-3.55,-3.29,-1.78,-1.77,-1.78
