frequency,raw,error,smoothed,error_smoothed,equalization,equalized_raw,equalized_smoothed,target
20,-1.5716782705048957,-3.2195220259742428,-1.511603408363294,-3.159431817165521,3.1594318171655207,1.587753546660625,1.6478284088022266,1.647843755469347
21,-1.1107632190141004,-2.758588015032279,-1.1428792714047546,-2.790706421573792,2.7907064215737916,1.6799432025596912,1.647827150169037,1.6478247960181784
22,-0.7143835810622852,-2.3621835795476276,-0.7986130804132795,-2.446425392818667,2.4464253928186666,1.7320418117563814,1.647812312405387,1.6477999984853424
23,-0.46902617065181024,-2.1167941272937836,-0.4788048353888683,-2.1265887309001466,2.1265887309001474,1.6575625602483373,1.6477838955112791,1.6477679566419732
24,-0.25256515034934424,-1.9002921616881912,-0.18345453633152065,-1.8311964358182293,1.8311964358182293,1.578631285468885,1.6477418994867086,1.647727011338847
25,0.1510793530808191,-1.496595865979355,0.08758044309590926,-1.5601073575535658,1.5601073575535662,1.7111867106343852,1.6476878006494755,1.647675219060174
26,0.3227144293264539,-1.3248958888535438,0.3342748274239214,-1.3133453170783986,1.313345317078399,1.636059746404853,1.6476201445023204,1.6476103181799977
27,0.5212978784338604,-1.1262318147664305,0.5563596653603454,-1.0911776970674611,1.0911776970674607,1.6124755755013211,1.6475373624278062,1.647529693200291
28,0.7441015276400502,-0.9033288078713071,0.7532058377993542,-0.8942310329796654,0.8942310329796654,1.6383325606197157,1.6474368707790197,1.6474303355113573
29,0.9437116715373098,-0.7035971313879584,0.9238955845604443,-0.7234194652292618,0.7234194652292621,1.667131136766572,1.6473150497897064,1.6473088029252683
30,1.0551953191020884,-0.5919658569996582,1.0675594179489323,-0.5796084022119534,0.5796084022119535,1.634803721314042,1.647167820160886,1.6471611761017466
31,1.2454358094683478,-0.40154720312979486,1.18407968516688,-0.46291075064791487,0.46291075064791487,1.7083465601162626,1.6469904358147949,1.6469830125981426
32,1.2454358094683482,-0.4013334889481335,1.2748733571576318,-0.3719042850022256,0.3719042850022255,1.6173400944705736,1.6467776421598574,1.6467692984164817
33,1.4465852347557033,-0.19992916230449098,1.3435553931478843,-0.30296828162008566,0.3029682816200856,1.749553516375789,1.64652367476797,1.6465143970601943
34,1.4465852347557033,-0.1996267614187348,1.3961829813375495,-0.25003917410698145,0.2500391741069814,1.6966244088626847,1.6462221554445309,1.6462119961744381
35,1.4465852347557033,-0.1992698169603757,1.44085528972554,-0.20501075305929822,0.20501075305929825,1.6515959878150015,1.6458660427848382,1.645855051716079
36,1.4465852347557029,-0.1988504950551906,1.4867018927262756,-0.15874563686246962,0.15874563686246965,1.6053308716181725,1.6454475295887452,1.6454357298108935
37,1.4465852347557029,-0.19836011159445666,1.5424568992305148,-0.10250105888970541,0.10250105888970538,1.5490862936454082,1.64495795812022,1.6449453463501595
38,1.5646670446390771,-0.079707259803387,1.614996631758582,-0.02939111873589706,0.02939111873589706,1.5940581633749742,1.644387750494479,1.6443743044424641
39,1.6735322349775694,0.029820205124287513,1.7082558962448544,0.0645295578196226,-0.06452955781962258,1.6090026771579469,1.6437263384252319,1.643712029853282
40,1.7625514077359599,0.11960450314737248,1.8228167737188423,0.17985467202777988,-0.17985467202777988,1.58269673570818,1.6429621016910625,1.6429469045885874
41,1.9296127230981959,0.2875465242886628,1.956259194681213,0.31417689008874716,-0.31417689008874705,1.6154358330094487,1.6420823045924657,1.642066198809533
42,2.1613952858498444,0.5203392845635806,2.1041205589250196,0.46304752981295433,-0.4630475298129545,1.69834775603689,1.6410730291120652,1.6410560012862638
43,2.371872591079017,0.7319714424425032,2.2611388137959354,0.6212197079710826,-0.6212197079710827,1.7506528831079344,1.6399191058248528,1.6399011486365138
44,2.42199415575573,0.7834090021232161,2.422405917737425,0.7838018758767318,-0.7838018758767316,1.6381922798789983,1.6386040418606935,1.6385851536325138
45,2.540374160459792,0.9032840275516847,2.584138970142679,0.9470290222994724,-0.9470290222994723,1.5933451381603199,1.6371099478432067,1.6370901329081073
46,2.7041392598394864,1.0687425253812832,2.7439455278094163,1.1085280631430086,-1.1085280631430083,1.595611196696478,1.635417464666408,1.6353967344582032
47,2.9552059243569104,1.3217218589586368,2.9006413574381735,1.2671356667733922,-1.2671356667733922,1.6880702575835183,1.6335056906647814,1.6334840653982736
48,3.05578063695086,1.4244510164044457,3.053804792271427,1.4224526823926775,-1.4224526823926775,1.6333279545581825,1.6313521098787496,1.6313296205464143
49,3.1563553496269967,1.527446137119993,3.203287431166082,1.574354909273329,-1.5743549092733287,1.582000440353668,1.6289325218927533,1.6289092125070037
50,3.4039943229619913,1.7777974188861734,3.348852705186961,1.7226317311808304,-1.72263173118083,1.6813625917811614,1.6262209740061313,1.626196904075818
51,3.4580794883526385,1.8349145444000117,3.490019925613532,1.8668302288827727,-1.8668302288827727,1.5912492594698657,1.623189696730759,1.6231649439526268
52,3.659228914251925,2.039445207313785,3.6260971384404517,2.0062880946250568,-2.0062880946250568,1.6529408196268682,1.619809043815395,1.61978370693814
53,3.726391753185227,2.110370113180596,3.756326962803705,2.1402795245512625,-2.140279524551263,1.5861122286339642,1.616047438252442,1.616021640004631
54,3.860378337740512,2.248533121882515,3.8800565597189784,2.26818523378815,-2.2681852337881496,1.5921931039523622,1.6118713259308288,1.611845215857997
55,4.061527758535951,2.4543088626912057,3.9968647775849795,2.389619638762383,-2.389619638762383,1.6719081197735681,1.6072451388225963,1.6072188958447455
56,4.061527751696449,2.4594226474077296,4.106615430779227,2.50448416096509,-2.5044841609650903,1.5570435907313587,1.6021312698141368,1.6021051042887193
57,4.262868236423111,2.666404019868366,4.209438056588961,2.6129479950986707,-2.61294799509867,1.6499202413244416,1.5964900614902908,1.5964642165547454
58,4.262677172621297,2.6724226093084194,4.305658085268367,2.715378273923993,-2.7153782739239936,1.5472988986973033,1.5902798113443732,1.5902545633128775
59,4.408467124775648,2.8250346711766516,4.3957064526483975,2.812249656656351,-2.812249656656351,1.5962174681192973,1.5834567959920465,1.5834324535989968
60,4.4638266631164765,2.8878744437998956,4.4800370949208945,2.9040617779260964,-2.9040617779260964,1.55976488519038,1.575975316994798,1.575952219316581
61,4.564401448684769,2.996635164902138,4.5590741308253,2.991286359990009,-2.991286359990009,1.5731150886947596,1.5677877708352908,1.5677662837826305
62,4.664976242005502,3.1061509852321714,4.6331996372612405,3.0743548918432024,-3.074354891843202,1.5906213501623,1.5588447454180385,1.5588252567733307
63,4.664976281251907,3.1158982229901597,4.702778278607602,3.153683133422086,-3.1536831334220867,1.5112931478298206,1.5490951451855155,1.5490780582617476
64,4.765550910007328,3.2270788373503687,4.768199707302811,3.22971336072559,-3.22971336072559,1.5358375492817382,1.538486346577221,1.5384720726569596
65,4.86612531626692,3.339171981411232,4.829910030469637,3.30294564557894,-3.3029456455789394,1.5631796706879801,1.526964384890698,1.5269533348556874
66,4.8661247116214215,3.3516579628043464,4.888405911759337,3.3739317384295537,-3.3739317384295546,1.4921929731918668,1.5144741733297824,1.514466748817075
67,4.963067361222129,3.462111022530252,4.944180775367057,3.443221020940598,-3.443221020940598,1.5198463402815312,1.500959754426459,1.5009563386918772
68,4.966697575139759,3.480332043328157,4.997637021147797,3.5112724386149807,-3.511272438614981,1.4554251365247777,1.4863645825328162,1.486365531811602
69,5.067271706698731,3.596634234586499,5.04900094475677,3.5783691097635395,-3.5783691097635395,1.488902596935192,1.4706318349932306,1.4706374721122324
70,5.0672722550466665,3.613556893168093,5.0982846998749825,3.644579949377478,-3.644579949377478,1.4226923056691883,1.4537047504975043,1.4537153618785736
71,5.1678495800775455,3.732306750977579,5.145324852944237,3.7097978579554463,-3.7097978579554467,1.4580517221220988,1.4355269949887899,1.4355428290999663
72,5.167855111898022,3.7517907946215563,5.1898933648824945,3.7738503101196748,-3.7738503101196748,1.394004801778347,1.4160430547628198,1.4160643172764655
73,5.268438587789866,3.873213093537872,5.231838985470548,3.836640335976015,-3.836640335976015,1.4317982518138512,1.3951986494945325,1.3952254942519944
74,5.268449728239824,3.8954760516271607,5.27119460642435,3.8982534536149953,-3.8982534536149958,1.3701962746248286,1.3729411528093545,1.3729736766126637
75,5.295970461769985,3.9467121953751834,5.308194250865622,3.9589742464306186,-3.9589742464306172,1.3369962153393682,1.3492200044350047,1.349258266394802
76,5.369040879640617,4.0450096823415524,5.343183275449519,4.019196169392463,-4.019196169392464,1.3498447102481537,1.3239871060570554,1.3240311972990644
77,5.369034049448211,4.071786661166079,5.376461135143163,4.079263906148373,-4.079263906148373,1.2897701432998376,1.29719722899479,1.2972473882821323
78,5.369006278855746,4.100141075606925,5.408139465605984,4.139330951175819,-4.139330951175818,1.229675327679928,1.268808514430166,1.2688652032488212
79,5.4438492108586845,4.205002294336497,5.438103666441508,4.199320510617565,-4.199320510617567,1.2445287002411174,1.238783155823941,1.2388469165221871
80,5.469434961937483,4.262275777205876,5.46612414280801,4.259035897206801,-4.259035897206803,1.2103990647306802,1.2070882456012066,1.2071591847316068
81,5.469316404613616,4.295542877999708,5.492088529965675,4.318391991263562,-4.318391991263564,1.1509244133500518,1.173696538702111,1.1737735266139078
82,5.569759364337549,4.431092551494327,5.516252821752852,4.377666149673027,-4.377666149673028,1.1920932146645207,1.138586672079824,1.1386668128432222
83,5.569645938083337,4.46782416982229,5.539376290364649,4.437633911076539,-4.4376339110765395,1.1320120270067973,1.1017423792881091,1.101821768261047
84,5.569599275707162,4.5063717870610756,5.5626354431280705,4.499484735075763,-4.499484735075764,1.0701145406313985,1.0631507080523068,1.0632274886460862
85,5.569682423135017,4.546802449794686,5.587299600508901,4.564499336532553,-4.564499336532553,1.0051830866024645,1.0228002639763485,1.022879973340331
86,5.569965941670425,4.589183268108917,5.614259436464661,4.633577766366752,-4.633577766366751,0.9363881753036738,0.9806816700979102,0.980782673561508
87,5.570515471069882,4.6335684170165905,5.6435811223254255,4.706788288498989,-4.70678828849899,0.8637271825708925,0.936792833826436,0.9369470540532916
88,5.671949063480114,4.780555900602933,5.67427308187124,4.7831228246709205,-4.783122824670921,0.8888262388091928,0.8911502572003185,0.891393162877181
89,5.738283884870665,4.894133684154218,5.704388875238042,4.860584687660683,-4.860584687660683,0.8776991972099815,0.8438041875773585,0.8441502007164474
90,5.775106247034286,4.979849169845724,5.731471431064525,4.9366205861691075,-4.9366205861691075,0.838485660865179,0.7948508448954179,0.7952570771885625
91,5.776618509834366,5.031855572279909,5.753217543888686,5.008786060945156,-5.008786060945155,0.7678324488892105,0.744431482943531,0.7447629375544573
92,5.777987414139338,5.08525977500768,5.768156526343125,5.0754478966021175,-5.075447896602117,0.7025395175372218,0.6927086297410083,0.6927276391316588
93,5.77887571892004,5.139653565952283,5.776124457729386,5.136307896017355,-5.136307896017355,0.6425678229026852,0.6398165617120313,0.6392221529677569
94,5.778862608041821,5.194533744801298,5.77837782014999,5.192582667095149,-5.19258266709515,0.586279940946671,0.58579515305484,0.5843288632405232
95,5.77746954759516,5.249327812838195,5.777302673043229,5.246773284962552,-5.2467732849625515,0.5306962626326088,0.5305293880806774,0.5281417347569652
96,5.774198686035001,5.303432367892594,5.77579865928432,5.3020741878331,-5.3020741878330995,0.47212449820190194,0.4737244714512201,0.4707663181424082
97,5.76858035237046,5.356260789255087,5.776512413047098,5.3615696959516415,-5.3615696959516415,0.4070106564188185,0.4149427170954567,0.41231956311537354
98,5.760224456780915,5.407295043942835,5.78113596620479,5.427424731019644,-5.427424731019646,0.33279972576126937,0.3537112351851439,0.3529294128380811
99,5.7488695807726815,5.456135423946154,5.7899639702087935,5.500281172728437,-5.500281172728437,0.24858840804424442,0.2896827974803564,0.29273415682652715
100,5.764312068200043,5.532430541902628,5.801827927848685,5.579021955356334,-5.579021955356335,0.1852901128437079,0.2228059724923499,0.23188152629741499
101,5.817564307054133,5.647036783058259,5.814418714224848,5.660972178622149,-5.660972178622151,0.15659212843198222,0.15344653560269705,0.17052752399587412
102,5.867025438507392,5.758190448276023,5.824900673542758,5.742492011140817,-5.742492011140816,0.12453342736657635,0.08240866240194222,0.10883499023136878
104,5.875734615106447,5.8907273226017995,5.8306420622914885,5.819810129123844,-5.8198101291238435,0.05592448598260358,0.01083193316764497,-0.014992707495351976
105,5.851935160442891,5.928871126972871,5.829860622707065,5.889880269694385,-5.889880269694384,-0.03794510925149286,-0.06001964698731932,-0.07693596652998025
106,5.827418017590932,5.966001705879725,5.822017178588828,5.951039136232607,-5.951039136232606,-0.12362111864167424,-0.12902195764377833,-0.1385836882887923
107,5.803041996415124,6.002809244631702,5.807872545041731,6.003304492294872,-6.003304492294873,-0.2002624958797492,-0.19543194725314272,-0.19976724821657754
108,5.779673641741848,6.039995957515561,5.789225683487448,6.048259001103076,-6.048259001103076,-0.26858535936122774,-0.25903331761562765,-0.2603223157737129
109,5.758127028757423,6.078218175678973,5.768439530148791,6.088582981760261,-6.088582981760261,-0.33045595300283814,-0.32014345161146984,-0.32009114692155016
110,5.739108615742523,6.118033440087596,5.747907474553744,6.127389512201264,-6.127389512201264,-0.388280896458741,-0.3794820376475192,-0.3789248243450736
111,5.723171577783575,6.159856954151253,5.72960737625637,6.167551863721446,-6.167551863721448,-0.44438028593787227,-0.43794448746507797,-0.43668537636767724
112,5.710683106939478,6.203930813494759,5.714840537370824,6.211190750928633,-6.211190750928634,-0.500507643989156,-0.49635021355781017,-0.4932477065552807
113,5.701807099795087,6.250308370168615,5.704183540746248,6.25942208412147,-6.259422084121469,-0.5576149843263813,-0.5552385433752205,-0.5485012703735279
114,5.696503479040683,6.298854921920327,5.697617091136307,6.312381028478464,-6.312381028478465,-0.6158775494377817,-0.6147639373421585,-0.6023514428796437
115,5.694544088826147,6.349264620843053,5.694755625924551,6.3694619055176185,-6.36946190551762,-0.6749178166914733,-0.6747062795930692,-0.6547205320169067
117,5.69554365666054,6.455804777918326,5.695089657995945,6.429664703568694,-6.429664703568691,-0.7341210469081512,-0.734575045572746,-0.7602611212577859
118,5.699002787321276,6.507383605079095,5.698164630668076,6.491925584417182,-6.49192558441718,-0.7929227970959039,-0.7937609537491035,-0.8083808177578189
119,5.704358525283659,6.559203934356262,5.703646835377549,6.5553292999587605,-6.555329299958759,-0.8509707746750994,-0.8516824645812093,-0.8548454090726025
120,5.711036951803756,6.610691045392826,5.711261924213627,6.6191487886993094,-6.619148788699309,-0.9081118368955527,-0.9078868644856817,-0.8996540935890698
121,5.718501835824394,6.661323778391548,5.720630478065411,6.682720229701118,-6.682720229701118,-0.9642183938767239,-0.9620897516357072,-0.942821942567154
123,5.726293732988111,6.758070713535102,5.73106269370285,6.745224400779655,-6.745224400779656,-1.0189306677915448,-1.0141617070768056,-1.031776980546991
124,5.734055195967178,6.804513973646229,5.741400804064781,6.805487668543689,-6.80548766854369,-1.0714324725765119,-1.0640868644789094,-1.0704587776790508
125,5.741539819011869,6.849156506721284,5.750000270763818,6.861920449499284,-6.861920449499283,-1.1203806304874133,-1.1119201787354651,-1.1076166877094145
126,5.74860538123249,6.891924437596554,5.754909102338557,6.912669418801743,-6.912669418801742,-1.1640640375692515,-1.1577603164631851,-1.1433190563640632
128,5.7551939059077215,6.973658811076259,5.754240232512266,6.955980447502987,-6.9559804475029905,-1.200786541595269,-1.2017402149907248,-1.218464905168538
129,5.761303496550433,7.011485515225436,5.746652865041845,6.990678192866231,-6.990678192866234,-1.2293746963158014,-1.2440253278243887,-1.2501820186750034
130,5.766957904999827,7.047653178890002,5.731796573235194,7.016602550272555,-7.016602550272558,-1.2496446452727312,-1.2848059770373643,-1.2806952738901747
131,5.7721796965736845,7.082272338372658,5.710558142913484,7.0348341236390475,-7.034834123639049,-1.2626544270653648,-1.3242759807255648,-1.3100926417989736
133,5.710321786347906,7.083234993893802,5.68500031158705,7.047600823824309,-7.04760082382431,-1.3372790374764039,-1.3626005122372602,-1.3729132075458956
134,5.600474941454206,6.999598328545305,5.657981145145127,7.057866382226914,-7.057866382226914,-1.4573914407727075,-1.3998852370817865,-1.3991233870910995
135,5.58399284030009,7.008488641885657,5.6325555147172395,7.068716409725592,-7.068716409725593,-1.484723569425503,-1.4361608950083538,-1.424495801585567
137,5.587260661480603,7.066118139718711,5.611338962439165,7.082730586230031,-7.082730586230032,-1.495469924749429,-1.4713916237908675,-1.4788574782381079
138,5.58990634221789,7.091581105451997,5.596023730458224,7.101528586177922,-7.101528586177923,-1.5116222439600335,-1.5055048557196988,-1.5016747632341079
140,5.591896431011612,7.142313472907853,5.587171629886983,7.125602369170205,-7.125602369170205,-1.533705938158593,-1.5384307392832222,-1.5504170418962406
141,5.593235530370897,7.16432076420781,5.584297637978031,7.154432458087108,-7.154432458087109,-1.5611969277162112,-1.570134820109078,-1.5710852338369121
142,5.593974803600126,7.185268071736619,5.586151179630834,7.186782495955067,-7.186782495955068,-1.592807692354942,-1.6006313163242343,-1.5912932681364933
144,5.594212479236921,7.227934556637005,5.59104558749865,7.221019265124331,-7.22101926512433,-1.6268067858874087,-1.6299736776256797,-1.6337220774000842
145,5.5940862590322995,7.246306713473045,5.597102311002692,7.255331654918745,-7.255331654918746,-1.6612453958864464,-1.6582293439160543,-1.6522204544407448
147,5.593758777355863,7.284187736220121,5.6023529799732446,7.287804785889261,-7.28780478588926,-1.6940460085333973,-1.6854518059160153,-1.6904289588642585
148,5.5933980637889,7.300831228315026,5.604739058249056,7.316401827568279,-7.316401827568278,-1.7230037637793778,-1.7116627693192221,-1.7074331645261265
150,5.593155353537606,7.335011399437743,5.602116271733182,7.3389675484661065,-7.338967548466107,-1.7458121949285017,-1.7368512767329252,-1.7418560459001373
151,5.593142720322716,7.350623643613709,5.592375805330584,7.353363815050843,-7.353363815050844,-1.7602210947281272,-1.7609880097202595,-1.7574809232909923
153,5.5934130250127945,7.381847534450845,5.5737340323520534,7.357780033814267,-7.357780033814267,-1.7643670088014725,-1.7840460014622135,-1.78843450943805
154,5.593944670387417,7.3966353020503774,5.545146191631169,7.351162978612077,-7.351162978612077,-1.75721830822466,-1.8060167869809085,-1.8026906316629603
156,5.509951535601045,7.34032191687898,5.506712888545531,7.333627017141054,-7.3336270171410565,-1.8236754815400111,-1.8269141285955257,-1.8303703812779348
157,5.494720436933786,7.337891023538358,5.459913909198221,7.306677781571088,-7.306677781571086,-1.8119573446372996,-1.8467638723728648,-1.8431705866045713
159,5.394527516411014,7.262189333379563,5.4075415500362976,7.273126534284218,-7.273126534284219,-1.8785990178732055,-1.8655849842479215,-1.8676618169685493
160,5.367760411368032,7.24660053638171,5.35330299219858,7.236673573953043,-7.236673573953041,-1.8689131625850095,-1.8833705817544608,-1.878840125013678
162,5.292697921724809,7.192841052129131,5.3011784573473815,7.201255955963198,-7.201255955963198,-1.9085580342383892,-1.9000774986158167,-1.900143130404322
