frequency,raw
20,-10.02
21,-9.57
22,-9.13
23,-8.71
24,-8.30
25,-7.91
26,-7.53
27,-7.17
28,-6.82
29,-6.49
30,-6.17
31,-5.87
32,-5.59
33,-5.30
34,-5.02
35,-4.77
36,-4.52
37,-4.31
38,-4.14
39,-3.97
40,-3.83
41,-3.68
42,-3.53
43,-3.38
44,-3.24
45,-3.11
46,-2.97
47,-2.83
48,-2.69
49,-2.55
50,-2.43
51,-2.31
52,-2.19
53,-2.09
54,-1.99
55,-1.90
56,-1.80
57,-1.71
58,-1.63
59,-1.55
60,-1.48
61,-1.40
62,-1.32
63,-1.25
64,-1.18
65,-1.12
66,-1.05
67,-0.98
68,-0.92
69,-0.86
70,-0.80
71,-0.74
72,-0.69
73,-0.66
74,-0.62
75,-0.56
76,-0.51
77,-0.46
78,-0.41
79,-0.36
80,-0.32
81,-0.28
82,-0.24
83,-0.19
84,-0.15
85,-0.11
86,-0.07
87,-0.01
88,0.03
89,0.06
90,0.09
91,0.12
92,0.15
93,0.19
94,0.24
95,0.29
96,0.33
97,0.36
98,0.39
99,0.42
100,0.45
101,0.50
102,0.55
104,0.60
105,0.65
106,0.70
107,0.74
108,0.78
109,0.80
110,0.81
111,0.83
112,0.85
113,0.88
114,0.91
115,0.94
117,0.97
118,0.99
119,1.01
120,1.04
121,1.07
123,1.10
124,1.12
125,1.16
126,1.19
128,1.23
129,1.27
130,1.30
131,1.33
133,1.36
134,1.38
135,1.41
137,1.44
138,1.46
140,1.48
141,1.51
142,1.54
144,1.57
145,1.59
147,1.62
148,1.64
150,1.67
151,1.70
153,1.73
154,1.77
156,1.80
157,1.83
159,1.85
160,1.87
162,1.88
164,1.89
165,1.89
167,1.88
169,1.87
170,1.87
172,1.86
174,1.85
175,1.84
177,1.84
179,1.85
181,1.87
183,1.89
184,1.92
186,1.95
188,1.98
190,2.02
192,2.05
194,2.08
196,2.12
198,2.15
200,2.17
202,2.19
204,2.21
206,2.21
208,2.21
210,2.20
212,2.20
214,2.19
216,2.19
218,2.19
221,2.19
223,2.19
225,2.19
227,2.19
229,2.19
232,2.19
234,2.19
236,2.19
239,2.19
241,2.19
244,2.19
246,2.19
248,2.19
251,2.19
253,2.19
256,2.19
259,2.19
261,2.19
264,2.19
266,2.19
269,2.19
272,2.19
274,2.19
277,2.19
280,2.19
283,2.19
286,2.19
288,2.19
291,2.19
294,2.19
297,2.19
300,2.19
303,2.19
306,2.19
309,2.19
312,2.19
316,2.19
319,2.19
322,2.19
325,2.19
328,2.19
332,2.19
335,2.19
338,2.19
342,2.19
345,2.19
349,2.19
352,2.19
356,2.19
359,2.20
363,2.21
366,2.21
370,2.21
374,2.20
377,2.18
381,2.15
385,2.12
389,2.09
393,2.06
397,2.03
401,1.99
405,1.96
409,1.93
413,1.90
417,1.88
421,1.86
425,1.85
430,1.84
434,1.85
438,1.86
443,1.86
447,1.87
451,1.87
456,1.87
460,1.87
465,1.87
470,1.87
474,1.87
479,1.87
484,1.87
489,1.87
494,1.87
499,1.87
504,1.87
509,1.87
514,1.87
519,1.87
524,1.87
529,1.87
535,1.87
540,1.87
545,1.87
551,1.87
556,1.87
562,1.87
568,1.87
573,1.87
579,1.88
585,1.88
591,1.89
596,1.88
602,1.88
608,1.86
615,1.84
621,1.81
627,1.78
633,1.75
639,1.72
646,1.68
652,1.65
659,1.62
665,1.59
672,1.57
679,1.56
686,1.55
692,1.55
699,1.54
706,1.53
713,1.51
721,1.49
728,1.46
735,1.43
742,1.41
750,1.39
757,1.35
765,1.32
773,1.27
780,1.23
788,1.19
796,1.15
804,1.12
812,1.09
820,1.05
828,1.01
837,0.97
845,0.92
853,0.87
862,0.81
871,0.74
879,0.68
888,0.63
897,0.58
906,0.54
915,0.48
924,0.42
933,0.35
943,0.29
952,0.23
962,0.19
971,0.15
981,0.10
991,0.04
1001,-0.00
1011,-0.05
1021,-0.09
1031,-0.15
1041,-0.20
1052,-0.26
1062,-0.32
1073,-0.38
1084,-0.44
1094,-0.50
1105,-0.59
1116,-0.68
1128,-0.76
1139,-0.84
1150,-0.92
1162,-0.99
1173,-1.07
1185,-1.16
1197,-1.25
1209,-1.33
1221,-1.42
1233,-1.51
1246,-1.60
1258,-1.69
1271,-1.78
1283,-1.87
1296,-1.96
1309,-2.06
1322,-2.16
1335,-2.26
1349,-2.36
1362,-2.46
1376,-2.54
1390,-2.63
1404,-2.73
1418,-2.81
1432,-2.90
1446,-3.00
1461,-3.10
1475,-3.19
1490,-3.30
1505,-3.40
1520,-3.50
1535,-3.60
1550,-3.71
1566,-3.81
1582,-3.92
1597,-4.03
1613,-4.14
1629,-4.23
1646,-4.33
1662,-4.44
1679,-4.53
1696,-4.62
1713,-4.72
1730,-4.81
1747,-4.91
1764,-5.01
1782,-5.09
1800,-5.17
1818,-5.26
1836,-5.35
1854,-5.43
1873,-5.51
1892,-5.59
1911,-5.65
1930,-5.70
1949,-5.76
1969,-5.80
1988,-5.84
2008,-5.87
2028,-5.90
2048,-5.91
2069,-5.92
2090,-5.93
2111,-5.94
2132,-5.95
2153,-5.95
2175,-5.94
2196,-5.94
2218,-5.94
2240,-5.94
2263,-5.93
2285,-5.89
2308,-5.85
2331,-5.80
2355,-5.74
2378,-5.66
2402,-5.55
2426,-5.44
2450,-5.31
2475,-5.17
2500,-5.03
2525,-4.88
2550,-4.73
2575,-4.59
2601,-4.44
2627,-4.30
2653,-4.16
2680,-4.02
2707,-3.90
2734,-3.77
2761,-3.64
2789,-3.52
2817,-3.41
2845,-3.30
2873,-3.18
2902,-3.06
2931,-2.95
2960,-2.86
2990,-2.76
3020,-2.67
3050,-2.59
3080,-2.51
3111,-2.43
3142,-2.35
3174,-2.28
3206,-2.21
3238,-2.15
3270,-2.08
3303,-2.01
3336,-1.94
3369,-1.87
3403,-1.82
3437,-1.75
3471,-1.68
3506,-1.62
3541,-1.56
3576,-1.50
3612,-1.43
3648,-1.35
3685,-1.27
3721,-1.19
3759,-1.11
3796,-1.01
3834,-0.90
3873,-0.79
3911,-0.66
3950,-0.52
3990,-0.35
4030,-0.16
4070,0.04
4111,0.26
4152,0.49
4193,0.73
4235,0.99
4278,1.26
4321,1.52
4364,1.79
4407,2.05
4451,2.29
4496,2.51
4541,2.72
4586,2.92
4632,3.09
4679,3.24
4725,3.37
4773,3.48
4820,3.57
4868,3.66
4917,3.73
4966,3.78
5016,3.82
5066,3.84
5117,3.84
5168,3.84
5220,3.81
5272,3.76
5325,3.70
5378,3.62
5432,3.53
5486,3.44
5541,3.35
5596,3.24
5652,3.12
5709,2.99
5766,2.86
5823,2.72
5882,2.59
5940,2.47
6000,2.36
6060,2.25
6120,2.15
6182,2.05
6244,1.97
6306,1.92
6369,1.89
6433,1.89
6497,1.91
6562,1.94
6628,1.98
6694,2.01
6761,2.02
6828,2.02
6897,2.01
6966,1.97
7035,1.91
7106,1.82
7177,1.72
7249,1.58
7321,1.42
7394,1.24
7468,1.05
7543,0.84
7618,0.63
7694,0.41
7771,0.18
7849,-0.06
7928,-0.32
8007,-0.59
8087,-0.89
8168,-1.19
8250,-1.45
8332,-1.68
8415,-1.87
8499,-2.02
8584,-2.11
8670,-2.14
8757,-2.11
8845,-2.01
8933,-1.86
9022,-1.65
9113,-1.40
9204,-1.11
9296,-0.81
9389,-0.49
9483,-0.18
9577,0.12
9673,0.39
9770,0.63
9868,0.84
9966,1.02
10066,1.19
10167,1.33
10268,1.43
10371,1.50
10475,1.56
10579,1.59
10685,1.58
10792,1.53
10900,1.46
11009,1.37
11119,1.27
11230,1.16
11343,1.03
11456,0.88
11571,0.71
11686,0.52
11803,0.32
11921,0.11
12040,-0.12
12161,-0.35
12282,-0.60
12405,-0.85
12529,-1.10
12655,-1.37
12781,-1.65
12909,-1.95
13038,-2.26
13168,-2.58
13300,-2.89
13433,-3.21
13567,-3.53
13703,-3.87
13840,-4.24
13978,-4.62
14118,-5.03
14259,-5.44
14402,-5.87
14546,-6.33
14692,-6.80
14838,-7.29
14987,-7.78
15137,-8.29
15288,-8.81
15441,-9.34
15595,-9.88
15751,-10.40
15909,-10.92
16068,-11.43
16229,-11.95
16391,-12.46
16555,-12.98
16720,-13.51
16888,-14.06
17056,-14.63
17227,-15.20
17399,-15.77
17573,-16.37
17749,-16.97
17926,-17.56
18106,-18.12
18287,-18.53
18470,-18.91
18654,-19.24
18841,-19.54
19029,-19.80
19220,-20.03
19412,-20.21
19606,-20.36
19802,-20.47
20000,-20.55
