frequency,raw,error,smoothed,error_smoothed,equalization,parametric_eq,fixed_band_eq,equalized_raw,equalized_smoothed,target
20.00,8.92,3.19,8.92,3.19,-3.19,-3.00,-1.74,5.73,5.73,5.73
20.20,8.94,3.22,8.94,3.22,-3.22,-3.03,-1.79,5.72,5.72,5.72
20.40,8.96,3.26,8.96,3.26,-3.26,-3.06,-1.84,5.71,5.71,5.71
20.61,8.98,3.29,8.98,3.29,-3.29,-3.09,-1.89,5.70,5.70,5.70
20.81,8.99,3.32,9.00,3.32,-3.32,-3.12,-1.94,5.68,5.68,5.68
21.02,9.01,3.35,9.02,3.34,-3.34,-3.14,-2.00,5.67,5.67,5.67
21.23,9.03,3.38,9.04,3.37,-3.37,-3.17,-2.05,5.66,5.66,5.66
21.44,9.05,3.39,9.06,3.40,-3.40,-3.20,-2.11,5.65,5.65,5.67
21.66,9.07,3.43,9.07,3.43,-3.43,-3.23,-2.17,5.65,5.65,5.65
21.87,9.09,3.45,9.09,3.46,-3.46,-3.26,-2.23,5.64,5.64,5.65
22.09,9.11,3.49,9.11,3.48,-3.48,-3.28,-2.30,5.63,5.63,5.63
22.31,9.13,3.51,9.13,3.51,-3.51,-3.31,-2.36,5.63,5.62,5.63
22.54,9.14,3.53,9.15,3.53,-3.53,-3.34,-2.43,5.61,5.62,5.62
22.76,9.16,3.55,9.17,3.56,-3.56,-3.37,-2.50,5.61,5.61,5.61
22.99,9.18,3.58,9.19,3.58,-3.58,-3.40,-2.57,5.61,5.61,5.60
23.22,9.20,3.61,9.20,3.60,-3.60,-3.42,-2.64,5.60,5.60,5.59
23.45,9.22,3.62,9.22,3.62,-3.62,-3.45,-2.71,5.60,5.60,5.60
23.69,9.24,3.65,9.24,3.65,-3.65,-3.48,-2.78,5.60,5.59,5.59
23.92,9.25,3.67,9.26,3.67,-3.67,-3.51,-2.86,5.59,5.59,5.58
24.16,9.27,3.68,9.28,3.69,-3.69,-3.53,-2.94,5.59,5.59,5.59
24.40,9.29,3.70,9.29,3.71,-3.71,-3.56,-3.01,5.59,5.59,5.59
24.65,9.31,3.72,9.31,3.73,-3.73,-3.59,-3.09,5.59,5.58,5.59
24.89,9.32,3.74,9.33,3.75,-3.75,-3.62,-3.17,5.58,5.58,5.59
25.14,9.34,3.77,9.35,3.76,-3.76,-3.64,-3.26,5.58,5.58,5.58
25.39,9.37,3.79,9.36,3.78,-3.78,-3.67,-3.34,5.58,5.58,5.58
25.65,9.38,3.81,9.38,3.80,-3.80,-3.70,-3.42,5.58,5.58,5.58
25.91,9.39,3.82,9.40,3.82,-3.82,-3.72,-3.50,5.58,5.58,5.58
26.16,9.41,3.83,9.41,3.83,-3.83,-3.75,-3.58,5.58,5.58,5.58
26.43,9.43,3.85,9.43,3.85,-3.85,-3.78,-3.66,5.58,5.58,5.58
26.69,9.44,3.86,9.45,3.87,-3.87,-3.80,-3.75,5.58,5.58,5.58
26.96,9.46,3.88,9.46,3.88,-3.88,-3.83,-3.83,5.58,5.58,5.58
27.23,9.47,3.89,9.48,3.89,-3.89,-3.85,-3.90,5.58,5.59,5.58
27.50,9.49,3.91,9.50,3.91,-3.91,-3.88,-3.98,5.59,5.59,5.58
27.77,9.51,3.93,9.51,3.92,-3.92,-3.90,-4.06,5.59,5.59,5.59
28.05,9.52,3.94,9.53,3.93,-3.93,-3.93,-4.13,5.59,5.59,5.59
28.33,9.54,3.95,9.54,3.95,-3.95,-3.96,-4.20,5.60,5.59,5.60
28.62,9.55,3.96,9.56,3.96,-3.96,-3.98,-4.27,5.59,5.60,5.59
28.90,9.57,3.97,9.57,3.97,-3.97,-4.01,-4.33,5.60,5.60,5.60
29.19,9.58,3.98,9.58,3.99,-3.99,-4.03,-4.39,5.60,5.60,5.60
29.48,9.59,3.99,9.60,4.00,-4.00,-4.05,-4.44,5.59,5.60,5.60
29.78,9.61,4.02,9.61,4.02,-4.02,-4.08,-4.49,5.60,5.59,5.60
30.08,9.62,4.03,9.62,4.03,-4.03,-4.10,-4.54,5.59,5.59,5.60
30.38,9.63,4.05,9.63,4.04,-4.04,-4.13,-4.58,5.59,5.59,5.59
30.68,9.64,4.06,9.65,4.06,-4.06,-4.15,-4.62,5.59,5.59,5.58
30.99,9.65,4.07,9.66,4.07,-4.07,-4.18,-4.65,5.58,5.58,5.58
31.30,9.66,4.08,9.67,4.09,-4.09,-4.20,-4.67,5.58,5.58,5.58
31.61,9.67,4.10,9.68,4.10,-4.10,-4.22,-4.69,5.57,5.57,5.58
31.93,9.68,4.13,9.68,4.12,-4.12,-4.25,-4.71,5.57,5.57,5.56
32.24,9.69,4.13,9.69,4.13,-4.13,-4.27,-4.72,5.56,5.56,5.56
32.57,9.70,4.15,9.70,4.14,-4.14,-4.29,-4.72,5.56,5.56,5.55
32.89,9.71,4.16,9.71,4.16,-4.16,-4.31,-4.72,5.56,5.55,5.55
33.22,9.71,4.17,9.72,4.17,-4.17,-4.34,-4.72,5.54,5.55,5.55
33.55,9.72,4.18,9.72,4.18,-4.18,-4.36,-4.71,5.54,5.54,5.54
33.89,9.73,4.20,9.73,4.20,-4.20,-4.38,-4.70,5.54,5.53,5.53
34.23,9.73,4.22,9.74,4.21,-4.21,-4.40,-4.69,5.52,5.53,5.52
34.57,9.74,4.23,9.75,4.23,-4.23,-4.43,-4.67,5.52,5.52,5.52
34.92,9.75,4.25,9.76,4.25,-4.25,-4.45,-4.65,5.51,5.51,5.50
35.27,9.76,4.24,9.77,4.26,-4.26,-4.47,-4.63,5.50,5.50,5.52
35.62,9.77,4.28,9.78,4.28,-4.28,-4.49,-4.61,5.49,5.50,5.50
35.97,9.78,4.29,9.79,4.30,-4.30,-4.51,-4.58,5.48,5.48,5.49
36.33,9.79,4.31,9.79,4.32,-4.32,-4.53,-4.56,5.47,5.47,5.48
36.70,9.80,4.35,9.80,4.34,-4.34,-4.55,-4.53,5.46,5.46,5.46
37.06,9.81,4.37,9.81,4.37,-4.37,-4.57,-4.51,5.45,5.44,5.44
37.43,9.82,4.39,9.82,4.39,-4.39,-4.59,-4.48,5.43,5.43,5.43
37.81,9.83,4.42,9.83,4.41,-4.41,-4.61,-4.46,5.42,5.41,5.42
38.19,9.83,4.44,9.83,4.44,-4.44,-4.63,-4.43,5.40,5.40,5.39
38.57,9.84,4.47,9.84,4.46,-4.46,-4.65,-4.41,5.38,5.38,5.38
38.95,9.84,4.48,9.84,4.49,-4.49,-4.67,-4.39,5.36,5.36,5.36
39.34,9.84,4.51,9.85,4.51,-4.51,-4.69,-4.37,5.34,5.34,5.34
39.74,9.85,4.54,9.85,4.53,-4.53,-4.71,-4.36,5.32,5.32,5.31
40.14,9.85,4.56,9.85,4.55,-4.55,-4.73,-4.34,5.30,5.30,5.30
40.54,9.85,4.57,9.86,4.57,-4.57,-4.75,-4.33,5.28,5.28,5.28
40.94,9.85,4.60,9.86,4.59,-4.59,-4.77,-4.33,5.26,5.26,5.26
41.35,9.85,4.61,9.86,4.61,-4.61,-4.78,-4.32,5.24,5.24,5.24
41.76,9.85,4.64,9.86,4.63,-4.63,-4.80,-4.32,5.22,5.22,5.22
42.18,9.85,4.64,9.86,4.65,-4.65,-4.82,-4.32,5.20,5.21,5.21
42.60,9.85,4.67,9.86,4.67,-4.67,-4.84,-4.32,5.18,5.19,5.18
43.03,9.85,4.69,9.86,4.69,-4.69,-4.85,-4.33,5.16,5.17,5.17
43.46,9.85,4.71,9.85,4.71,-4.71,-4.87,-4.34,5.14,5.14,5.14
43.90,9.85,4.73,9.85,4.73,-4.73,-4.89,-4.35,5.13,5.12,5.12
44.33,9.85,4.76,9.85,4.75,-4.75,-4.91,-4.37,5.11,5.10,5.10
44.78,9.84,4.77,9.84,4.77,-4.77,-4.92,-4.39,5.08,5.08,5.08
45.23,9.84,4.78,9.84,4.79,-4.79,-4.94,-4.41,5.05,5.05,5.06
45.68,9.83,4.81,9.83,4.81,-4.81,-4.96,-4.44,5.02,5.02,5.02
46.13,9.82,4.83,9.83,4.83,-4.83,-4.97,-4.47,4.99,4.99,4.99
46.60,9.81,4.85,9.82,4.86,-4.86,-4.99,-4.50,4.96,4.96,4.97
47.06,9.80,4.87,9.81,4.88,-4.88,-5.00,-4.54,4.93,4.93,4.94
47.53,9.79,4.89,9.80,4.90,-4.90,-5.02,-4.58,4.89,4.90,4.91
48.01,9.78,4.93,9.78,4.92,-4.92,-5.04,-4.62,4.86,4.86,4.86
48.49,9.77,4.95,9.77,4.94,-4.94,-5.05,-4.66,4.83,4.83,4.83
48.97,9.75,4.97,9.75,4.96,-4.96,-5.07,-4.71,4.79,4.79,4.79
49.46,9.74,4.99,9.74,4.98,-4.98,-5.08,-4.76,4.76,4.76,4.75
49.96,9.72,5.02,9.72,5.00,-5.00,-5.10,-4.81,4.72,4.72,4.70
50.46,9.70,5.02,9.71,5.02,-5.02,-5.11,-4.87,4.68,4.68,4.68
50.96,9.68,5.04,9.69,5.04,-5.04,-5.13,-4.92,4.65,4.65,4.65
51.47,9.67,5.06,9.67,5.06,-5.06,-5.14,-4.98,4.62,4.62,4.62
51.99,9.65,5.08,9.65,5.07,-5.07,-5.16,-5.04,4.58,4.58,4.57
52.51,9.63,5.08,9.63,5.09,-5.09,-5.17,-5.10,4.55,4.55,4.55
53.03,9.61,5.09,9.61,5.10,-5.10,-5.18,-5.16,4.52,4.51,4.53
53.56,9.59,5.10,9.60,5.11,-5.11,-5.20,-5.23,4.48,4.48,4.49
54.10,9.58,5.14,9.58,5.13,-5.13,-5.21,-5.29,4.46,4.45,4.45
54.64,9.56,5.14,9.56,5.14,-5.14,-5.23,-5.35,4.42,4.42,4.42
55.18,9.54,5.16,9.55,5.16,-5.16,-5.24,-5.41,4.39,4.39,4.38
55.74,9.53,5.19,9.54,5.17,-5.17,-5.25,-5.47,4.36,4.36,4.35
56.29,9.51,5.18,9.53,5.19,-5.19,-5.27,-5.53,4.32,4.34,4.33
56.86,9.50,5.20,9.52,5.21,-5.21,-5.28,-5.58,4.29,4.31,4.30
57.42,9.50,5.24,9.51,5.24,-5.24,-5.29,-5.63,4.27,4.28,4.26
58.00,9.49,5.26,9.51,5.27,-5.27,-5.31,-5.68,4.23,4.24,4.24
58.58,9.50,5.29,9.51,5.30,-5.30,-5.32,-5.73,4.21,4.21,4.22
59.16,9.50,5.31,9.50,5.33,-5.33,-5.33,-5.77,4.18,4.18,4.20
59.76,9.50,5.34,9.50,5.36,-5.36,-5.35,-5.81,4.14,4.14,4.17
60.35,9.50,5.38,9.50,5.39,-5.39,-5.36,-5.84,4.11,4.11,4.12
60.96,9.50,5.42,9.50,5.43,-5.43,-5.37,-5.87,4.08,4.07,4.08
61.57,9.50,5.48,9.49,5.46,-5.46,-5.38,-5.89,4.04,4.03,4.03
62.18,9.50,5.52,9.49,5.50,-5.50,-5.40,-5.91,4.01,3.99,3.98
62.80,9.48,5.54,9.48,5.53,-5.53,-5.41,-5.92,3.96,3.95,3.94
63.43,9.47,5.58,9.47,5.56,-5.56,-5.42,-5.93,3.92,3.91,3.90
64.07,9.46,5.60,9.45,5.58,-5.58,-5.43,-5.93,3.88,3.87,3.86
64.71,9.44,5.62,9.44,5.61,-5.61,-5.45,-5.93,3.84,3.83,3.82
65.35,9.42,5.64,9.42,5.63,-5.63,-5.46,-5.92,3.79,3.79,3.79
66.01,9.40,5.66,9.40,5.66,-5.66,-5.47,-5.91,3.75,3.75,3.75
66.67,9.37,5.66,9.38,5.67,-5.67,-5.48,-5.89,3.70,3.71,3.72
67.33,9.35,5.69,9.36,5.69,-5.69,-5.50,-5.87,3.66,3.67,3.67
68.01,9.33,5.70,9.34,5.71,-5.71,-5.51,-5.85,3.62,3.63,3.64
68.69,9.31,5.72,9.32,5.73,-5.73,-5.52,-5.82,3.59,3.59,3.60
69.37,9.29,5.73,9.30,5.75,-5.75,-5.53,-5.80,3.55,3.55,3.57
70.07,9.28,5.76,9.28,5.76,-5.76,-5.55,-5.76,3.52,3.52,3.52
70.77,9.26,5.79,9.26,5.78,-5.78,-5.56,-5.73,3.49,3.48,3.48
71.48,9.24,5.80,9.23,5.80,-5.80,-5.57,-5.70,3.45,3.44,3.44
72.19,9.21,5.82,9.22,5.82,-5.82,-5.58,-5.66,3.40,3.40,3.40
72.91,9.19,5.84,9.20,5.84,-5.84,-5.59,-5.63,3.36,3.36,3.35
73.64,9.17,5.86,9.18,5.86,-5.86,-5.61,-5.59,3.32,3.32,3.31
74.38,9.15,5.88,9.16,5.87,-5.87,-5.62,-5.56,3.28,3.29,3.28
75.12,9.13,5.89,9.14,5.89,-5.89,-5.63,-5.53,3.24,3.25,3.25
75.87,9.10,5.89,9.12,5.91,-5.91,-5.64,-5.50,3.20,3.22,3.22
76.63,9.08,5.91,9.10,5.92,-5.92,-5.66,-5.47,3.17,3.18,3.18
77.40,9.07,5.92,9.08,5.93,-5.93,-5.67,-5.44,3.15,3.15,3.16
78.17,9.06,5.95,9.06,5.93,-5.93,-5.68,-5.41,3.13,3.12,3.11
78.95,9.05,5.95,9.03,5.94,-5.94,-5.69,-5.39,3.11,3.09,3.10
79.74,9.02,5.96,9.01,5.94,-5.94,-5.71,-5.37,3.08,3.06,3.07
80.54,8.99,5.95,8.98,5.94,-5.94,-5.72,-5.36,3.05,3.04,3.04
81.35,8.96,5.96,8.95,5.94,-5.94,-5.73,-5.34,3.03,3.01,3.00
82.16,8.92,5.94,8.91,5.93,-5.93,-5.74,-5.33,2.99,2.98,2.99
82.98,8.88,5.93,8.88,5.93,-5.93,-5.76,-5.32,2.96,2.95,2.95
83.81,8.84,5.92,8.84,5.93,-5.93,-5.77,-5.32,2.92,2.92,2.92
84.65,8.80,5.92,8.81,5.92,-5.92,-5.78,-5.32,2.88,2.89,2.88
85.50,8.76,5.91,8.77,5.92,-5.92,-5.80,-5.33,2.85,2.86,2.85
86.35,8.72,5.90,8.74,5.91,-5.91,-5.81,-5.34,2.81,2.83,2.82
87.22,8.68,5.89,8.71,5.91,-5.91,-5.82,-5.35,2.77,2.80,2.79
88.09,8.65,5.89,8.67,5.91,-5.91,-5.84,-5.36,2.74,2.76,2.76
88.97,8.63,5.90,8.65,5.92,-5.92,-5.85,-5.38,2.72,2.73,2.73
89.86,8.61,5.92,8.62,5.93,-5.93,-5.86,-5.41,2.69,2.70,2.70
90.76,8.59,5.93,8.60,5.94,-5.94,-5.88,-5.44,2.66,2.66,2.66
91.66,8.58,5.96,8.58,5.96,-5.96,-5.89,-5.47,2.63,2.62,2.62
92.58,8.56,5.97,8.56,5.97,-5.97,-5.90,-5.51,2.59,2.59,2.60
93.51,8.54,5.98,8.54,5.99,-5.99,-5.92,-5.55,2.56,2.55,2.56
94.44,8.52,6.00,8.52,6.01,-6.01,-5.93,-5.59,2.52,2.52,2.53
95.39,8.51,6.04,8.51,6.03,-6.03,-5.95,-5.64,2.49,2.48,2.48
96.34,8.49,6.05,8.49,6.05,-6.05,-5.96,-5.69,2.45,2.44,2.44
97.30,8.47,6.07,8.47,6.06,-6.06,-5.98,-5.75,2.41,2.40,2.41
98.28,8.45,6.10,8.45,6.08,-6.08,-5.99,-5.80,2.38,2.37,2.36
99.26,8.43,6.11,8.42,6.09,-6.09,-6.00,-5.86,2.35,2.33,2.32
100.25,8.40,6.12,8.39,6.10,-6.10,-6.02,-5.93,2.31,2.30,2.29
101.25,8.36,6.11,8.37,6.10,-6.10,-6.03,-5.99,2.26,2.26,2.26
102.27,8.34,6.11,8.34,6.11,-6.11,-6.05,-6.06,2.23,2.23,2.23
103.29,8.32,6.13,8.32,6.12,-6.12,-6.06,-6.13,2.21,2.20,2.19
104.32,8.30,6.14,8.29,6.13,-6.13,-6.08,-6.20,2.18,2.17,2.16
105.37,8.26,6.13,8.27,6.13,-6.13,-6.09,-6.28,2.13,2.13,2.14
106.42,8.23,6.13,8.25,6.15,-6.15,-6.11,-6.35,2.09,2.10,2.11
107.48,8.21,6.14,8.23,6.16,-6.16,-6.12,-6.42,2.05,2.07,2.07
108.56,8.19,6.15,8.22,6.18,-6.18,-6.14,-6.49,2.01,2.04,2.04
109.64,8.18,6.17,8.21,6.21,-6.21,-6.15,-6.57,1.98,2.01,2.02
110.74,8.18,6.21,8.21,6.24,-6.24,-6.17,-6.64,1.95,1.97,1.98
111.85,8.19,6.25,8.21,6.27,-6.27,-6.19,-6.70,1.93,1.94,1.94
112.97,8.19,6.28,8.21,6.30,-6.30,-6.20,-6.77,1.89,1.90,1.91
114.10,8.20,6.33,8.20,6.33,-6.33,-6.22,-6.83,1.87,1.87,1.88
115.24,8.21,6.38,8.20,6.37,-6.37,-6.23,-6.89,1.85,1.84,1.83
116.39,8.22,6.43,8.20,6.40,-6.40,-6.25,-6.94,1.83,1.80,1.80
117.55,8.22,6.46,8.21,6.43,-6.43,-6.26,-6.99,1.79,1.77,1.76
118.73,8.22,6.50,8.20,6.46,-6.46,-6.28,-7.03,1.76,1.74,1.72
119.92,8.20,6.50,8.20,6.49,-6.49,-6.29,-7.06,1.72,1.71,1.70
121.12,8.19,6.52,8.19,6.51,-6.51,-6.31,-7.09,1.68,1.67,1.68
122.33,8.17,6.53,8.17,6.53,-6.53,-6.32,-7.12,1.65,1.64,1.64
123.55,8.14,6.53,8.15,6.54,-6.54,-6.34,-7.13,1.61,1.61,1.62
124.79,8.11,6.53,8.12,6.54,-6.54,-6.35,-7.14,1.57,1.58,1.59
126.03,8.08,6.53,8.09,6.54,-6.54,-6.37,-7.14,1.54,1.55,1.56
127.29,8.07,6.55,8.06,6.54,-6.54,-6.38,-7.13,1.53,1.52,1.52
128.57,8.04,6.56,8.02,6.53,-6.53,-6.40,-7.11,1.51,1.48,1.48
129.85,7.99,6.54,7.98,6.53,-6.53,-6.41,-7.09,1.46,1.45,1.45
131.15,7.93,6.52,7.94,6.52,-6.52,-6.43,-7.06,1.41,1.42,1.41
132.46,7.90,6.52,7.91,6.52,-6.52,-6.44,-7.03,1.39,1.39,1.39
133.79,7.85,6.51,7.87,6.51,-6.51,-6.45,-6.99,1.34,1.36,1.35
135.12,7.79,6.47,7.83,6.50,-6.50,-6.47,-6.94,1.29,1.32,1.32
136.48,7.76,6.47,7.79,6.49,-6.49,-6.48,-6.89,1.27,1.29,1.30
137.84,7.72,6.46,7.74,6.48,-6.48,-6.49,-6.83,1.24,1.26,1.26
139.22,7.71,6.49,7.70,6.47,-6.47,-6.50,-6.77,1.24,1.23,1.23
140.61,7.68,6.48,7.66,6.46,-6.46,-6.52,-6.71,1.22,1.20,1.20
142.02,7.64,6.47,7.63,6.45,-6.45,-6.53,-6.64,1.20,1.18,1.17
143.44,7.60,6.46,7.59,6.44,-6.44,-6.54,-6.58,1.17,1.15,1.15
144.87,7.55,6.43,7.56,6.43,-6.43,-6.55,-6.51,1.12,1.13,1.13
146.32,7.51,6.42,7.52,6.42,-6.42,-6.56,-6.44,1.10,1.10,1.10
147.78,7.46,6.39,7.48,6.41,-6.41,-6.57,-6.37,1.06,1.08,1.08
149.26,7.42,6.37,7.45,6.39,-6.39,-6.58,-6.30,1.03,1.05,1.05
150.75,7.39,6.37,7.41,6.38,-6.38,-6.58,-6.24,1.01,1.03,1.02
152.26,7.38,6.38,7.37,6.36,-6.36,-6.59,-6.17,1.02,1.00,1.01
153.78,7.35,6.37,7.33,6.35,-6.35,-6.60,-6.11,1.01,0.98,0.98
155.32,7.31,6.36,7.29,6.34,-6.34,-6.60,-6.04,0.98,0.95,0.96
156.88,7.26,6.33,7.25,6.33,-6.33,-6.61,-5.99,0.94,0.93,0.93
158.44,7.21,6.32,7.22,6.32,-6.32,-6.61,-5.93,0.90,0.90,0.90
160.03,7.15,6.28,7.18,6.31,-6.31,-6.61,-5.87,0.84,0.87,0.88
161.63,7.12,6.28,7.15,6.30,-6.30,-6.62,-5.82,0.82,0.84,0.84
163.24,7.09,6.28,7.11,6.30,-6.30,-6.62,-5.78,0.80,0.81,0.81
164.88,7.05,6.27,7.07,6.29,-6.29,-6.62,-5.73,0.76,0.78,0.78
166.53,7.03,6.29,7.04,6.29,-6.29,-6.62,-5.69,0.75,0.75,0.74
168.19,7.02,6.30,7.00,6.28,-6.28,-6.62,-5.66,0.74,0.72,0.73
169.87,6.98,6.30,6.97,6.28,-6.28,-6.61,-5.63,0.70,0.69,0.69
171.57,6.95,6.30,6.94,6.28,-6.28,-6.61,-5.60,0.67,0.65,0.65
173.29,6.91,6.29,6.91,6.29,-6.29,-6.60,-5.58,0.63,0.62,0.63
175.02,6.86,6.27,6.88,6.29,-6.29,-6.60,-5.56,0.58,0.59,0.59
176.77,6.82,6.27,6.85,6.29,-6.29,-6.59,-5.54,0.53,0.56,0.56
178.54,6.79,6.27,6.82,6.29,-6.29,-6.58,-5.53,0.50,0.52,0.52
180.32,6.77,6.30,6.78,6.29,-6.29,-6.57,-5.52,0.48,0.49,0.48
182.13,6.75,6.30,6.75,6.29,-6.29,-6.56,-5.52,0.46,0.45,0.46
183.95,6.73,6.31,6.71,6.29,-6.29,-6.54,-5.52,0.44,0.42,0.42
185.79,6.69,6.31,6.68,6.29,-6.29,-6.53,-5.53,0.40,0.39,0.38
187.65,6.66,6.31,6.65,6.29,-6.29,-6.52,-5.54,0.37,0.35,0.35
189.52,6.62,6.30,6.62,6.29,-6.29,-6.50,-5.55,0.33,0.32,0.32
191.42,6.57,6.28,6.58,6.29,-6.29,-6.48,-5.57,0.28,0.29,0.29
193.33,6.53,6.27,6.55,6.29,-6.29,-6.46,-5.59,0.24,0.26,0.27
195.27,6.49,6.27,6.52,6.29,-6.29,-6.44,-5.61,0.21,0.23,0.23
197.22,6.46,6.27,6.48,6.28,-6.28,-6.42,-5.64,0.19,0.20,0.19
199.19,6.44,6.27,6.44,6.27,-6.27,-6.39,-5.67,0.18,0.18,0.17
201.18,6.41,6.28,6.41,6.26,-6.26,-6.37,-5.70,0.16,0.15,0.14
203.19,6.38,6.26,6.37,6.24,-6.24,-6.34,-5.74,0.14,0.12,0.12
205.23,6.34,6.24,6.33,6.23,-6.23,-6.31,-5.77,0.12,0.10,0.11
207.28,6.29,6.21,6.29,6.21,-6.21,-6.28,-5.81,0.08,0.08,0.08
209.35,6.24,6.19,6.25,6.19,-6.19,-6.25,-5.85,0.05,0.05,0.06
211.44,6.20,6.17,6.21,6.18,-6.18,-6.22,-5.89,0.03,0.03,0.03
213.56,6.16,6.14,6.17,6.15,-6.15,-6.19,-5.93,0.01,0.01,0.02
215.69,6.11,6.12,6.12,6.13,-6.13,-6.15,-5.98,-0.01,-0.01,-0.00
217.85,6.06,6.09,6.07,6.10,-6.10,-6.12,-6.02,-0.04,-0.03,-0.02
220.03,6.03,6.08,6.03,6.07,-6.07,-6.08,-6.06,-0.03,-0.04,-0.05
222.23,5.99,6.06,5.98,6.04,-6.04,-6.04,-6.09,-0.04,-0.06,-0.07
224.45,5.93,6.01,5.93,6.01,-6.01,-6.00,-6.13,-0.07,-0.08,-0.08
226.70,5.88,5.98,5.88,5.97,-5.97,-5.96,-6.16,-0.09,-0.09,-0.10
228.96,5.82,5.92,5.83,5.94,-5.94,-5.92,-6.19,-0.11,-0.11,-0.10
231.25,5.78,5.90,5.78,5.90,-5.90,-5.87,-6.21,-0.12,-0.12,-0.12
233.57,5.73,5.86,5.74,5.87,-5.87,-5.83,-6.24,-0.13,-0.13,-0.13
235.90,5.66,5.80,5.69,5.83,-5.83,-5.78,-6.25,-0.16,-0.14,-0.14
238.26,5.63,5.79,5.64,5.79,-5.79,-5.74,-6.26,-0.15,-0.15,-0.16
240.64,5.59,5.74,5.60,5.75,-5.75,-5.69,-6.26,-0.15,-0.15,-0.15
243.05,5.55,5.71,5.55,5.71,-5.71,-5.64,-6.26,-0.15,-0.16,-0.15
245.48,5.51,5.68,5.51,5.66,-5.66,-5.59,-6.25,-0.15,-0.16,-0.16
247.93,5.45,5.63,5.46,5.62,-5.62,-5.54,-6.23,-0.17,-0.16,-0.17
250.41,5.41,5.57,5.41,5.58,-5.58,-5.49,-6.21,-0.16,-0.16,-0.16
252.92,5.36,5.52,5.37,5.53,-5.53,-5.44,-6.18,-0.17,-0.16,-0.16
255.45,5.33,5.50,5.33,5.49,-5.49,-5.38,-6.14,-0.15,-0.16,-0.16
258.00,5.29,5.45,5.28,5.44,-5.44,-5.33,-6.10,-0.15,-0.16,-0.16
260.58,5.24,5.40,5.24,5.40,-5.40,-5.28,-6.05,-0.15,-0.16,-0.16
263.19,5.19,5.35,5.19,5.35,-5.35,-5.22,-5.99,-0.16,-0.16,-0.15
265.82,5.13,5.29,5.14,5.30,-5.30,-5.17,-5.92,-0.17,-0.16,-0.16
268.48,5.08,5.24,5.09,5.25,-5.25,-5.11,-5.85,-0.17,-0.16,-0.15
271.16,5.03,5.18,5.04,5.20,-5.20,-5.05,-5.78,-0.17,-0.16,-0.15
273.87,4.98,5.14,4.99,5.15,-5.15,-5.00,-5.70,-0.16,-0.15,-0.15
276.61,4.95,5.10,4.94,5.10,-5.10,-4.94,-5.61,-0.14,-0.15,-0.15
279.38,4.91,5.08,4.89,5.04,-5.04,-4.88,-5.52,-0.13,-0.15,-0.16
282.17,4.86,5.02,4.84,4.99,-4.99,-4.83,-5.43,-0.13,-0.15,-0.16
284.99,4.80,4.95,4.79,4.93,-4.93,-4.77,-5.34,-0.13,-0.14,-0.14
287.84,4.72,4.86,4.74,4.88,-4.88,-4.71,-5.24,-0.16,-0.14,-0.14
290.72,4.67,4.82,4.69,4.83,-4.83,-4.65,-5.14,-0.15,-0.13,-0.14
293.63,4.63,4.76,4.65,4.78,-4.78,-4.59,-5.04,-0.14,-0.13,-0.13
296.57,4.59,4.71,4.60,4.72,-4.72,-4.53,-4.94,-0.13,-0.12,-0.12
299.53,4.55,4.67,4.56,4.67,-4.67,-4.47,-4.84,-0.11,-0.11,-0.11
302.53,4.50,4.60,4.51,4.61,-4.61,-4.42,-4.74,-0.11,-0.10,-0.10
305.55,4.46,4.56,4.46,4.56,-4.56,-4.36,-4.64,-0.09,-0.10,-0.10
308.61,4.41,4.50,4.42,4.50,-4.50,-4.30,-4.54,-0.09,-0.09,-0.08
311.69,4.36,4.44,4.37,4.45,-4.45,-4.24,-4.45,-0.08,-0.08,-0.08
314.81,4.33,4.40,4.33,4.40,-4.40,-4.18,-4.35,-0.06,-0.07,-0.07
317.96,4.30,4.37,4.29,4.35,-4.35,-4.12,-4.25,-0.04,-0.06,-0.06
321.14,4.25,4.30,4.25,4.30,-4.30,-4.06,-4.16,-0.04,-0.05,-0.05
324.35,4.20,4.25,4.20,4.24,-4.24,-4.01,-4.07,-0.04,-0.04,-0.05
327.59,4.14,4.17,4.15,4.18,-4.18,-3.95,-3.98,-0.04,-0.03,-0.02
330.87,4.09,4.12,4.10,4.13,-4.13,-3.89,-3.89,-0.03,-0.02,-0.02
334.18,4.05,4.07,4.05,4.07,-4.07,-3.83,-3.81,-0.01,-0.01,-0.02
337.52,4.01,4.02,4.00,4.01,-4.01,-3.77,-3.73,0.01,-0.00,-0.01
340.90,3.96,3.95,3.95,3.95,-3.95,-3.72,-3.65,0.02,0.01,0.01
344.30,3.90,3.89,3.90,3.89,-3.89,-3.66,-3.57,0.02,0.01,0.02
347.75,3.86,3.84,3.85,3.83,-3.83,-3.60,-3.49,0.04,0.02,0.03
351.23,3.80,3.78,3.80,3.77,-3.77,-3.55,-3.42,0.04,0.03,0.02
354.74,3.74,3.69,3.75,3.71,-3.71,-3.49,-3.35,0.03,0.04,0.05
358.28,3.68,3.63,3.71,3.65,-3.65,-3.44,-3.28,0.03,0.05,0.05
361.87,3.63,3.58,3.66,3.60,-3.60,-3.38,-3.22,0.04,0.06,0.06
365.49,3.60,3.54,3.61,3.54,-3.54,-3.33,-3.16,0.06,0.07,0.07
369.14,3.56,3.48,3.56,3.49,-3.49,-3.27,-3.10,0.08,0.08,0.08
372.83,3.52,3.43,3.52,3.43,-3.43,-3.22,-3.04,0.09,0.09,0.09
376.56,3.48,3.39,3.47,3.38,-3.38,-3.16,-2.98,0.11,0.10,0.09
380.33,3.44,3.34,3.43,3.32,-3.32,-3.11,-2.93,0.12,0.11,0.10
384.13,3.40,3.29,3.39,3.27,-3.27,-3.06,-2.88,0.13,0.12,0.12
387.97,3.35,3.23,3.35,3.22,-3.22,-3.00,-2.83,0.13,0.13,0.13
391.85,3.30,3.17,3.31,3.17,-3.17,-2.95,-2.79,0.13,0.14,0.14
395.77,3.26,3.12,3.27,3.12,-3.12,-2.90,-2.74,0.14,0.15,0.15
399.73,3.21,3.06,3.23,3.07,-3.07,-2.85,-2.70,0.14,0.16,0.15
403.72,3.18,3.00,3.20,3.02,-3.02,-2.80,-2.66,0.16,0.17,0.18
407.76,3.15,2.97,3.16,2.98,-2.98,-2.75,-2.62,0.18,0.18,0.18
411.84,3.13,2.94,3.12,2.93,-2.93,-2.70,-2.58,0.20,0.19,0.19
415.96,3.09,2.88,3.09,2.89,-2.89,-2.65,-2.55,0.21,0.20,0.21
420.12,3.05,2.85,3.05,2.84,-2.84,-2.60,-2.51,0.21,0.21,0.21
424.32,3.01,2.80,3.02,2.80,-2.80,-2.55,-2.48,0.22,0.22,0.22
428.56,2.97,2.74,2.98,2.75,-2.75,-2.50,-2.45,0.22,0.23,0.24
432.85,2.93,2.69,2.95,2.71,-2.71,-2.45,-2.41,0.23,0.24,0.25
437.18,2.90,2.66,2.91,2.66,-2.66,-2.41,-2.38,0.25,0.25,0.25
441.55,2.88,2.63,2.87,2.61,-2.61,-2.36,-2.35,0.27,0.26,0.25
445.96,2.85,2.59,2.83,2.56,-2.56,-2.31,-2.32,0.29,0.27,0.26
450.42,2.81,2.54,2.79,2.51,-2.51,-2.27,-2.29,0.30,0.28,0.27
454.93,2.76,2.48,2.75,2.46,-2.46,-2.22,-2.26,0.30,0.29,0.28
459.48,2.70,2.41,2.71,2.41,-2.41,-2.18,-2.24,0.29,0.30,0.29
464.07,2.65,2.34,2.67,2.36,-2.36,-2.13,-2.21,0.29,0.31,0.31
468.71,2.60,2.28,2.62,2.31,-2.31,-2.09,-2.18,0.30,0.32,0.32
473.40,2.56,2.23,2.58,2.26,-2.26,-2.04,-2.15,0.31,0.33,0.33
478.13,2.53,2.20,2.54,2.21,-2.21,-2.00,-2.12,0.33,0.34,0.34
482.91,2.49,2.15,2.50,2.15,-2.15,-1.96,-2.08,0.34,0.35,0.35
487.74,2.46,2.11,2.46,2.10,-2.10,-1.91,-2.05,0.36,0.36,0.36
492.62,2.42,2.06,2.42,2.05,-2.05,-1.87,-2.02,0.38,0.37,0.37
497.55,2.38,2.01,2.38,2.00,-2.00,-1.83,-1.98,0.39,0.38,0.38
502.52,2.33,1.95,2.34,1.95,-1.95,-1.79,-1.95,0.39,0.39,0.39
507.55,2.29,1.89,2.30,1.89,-1.89,-1.75,-1.91,0.40,0.41,0.41
512.62,2.26,1.85,2.26,1.84,-1.84,-1.70,-1.88,0.42,0.42,0.42
517.75,2.22,1.79,2.22,1.79,-1.79,-1.66,-1.84,0.43,0.43,0.44
522.93,2.19,1.75,2.18,1.74,-1.74,-1.62,-1.80,0.46,0.44,0.45
528.16,2.15,1.70,2.14,1.68,-1.68,-1.58,-1.76,0.47,0.46,0.45
533.44,2.10,1.64,2.10,1.63,-1.63,-1.54,-1.72,0.48,0.47,0.46
