frequency,raw,error,smoothed,error_smoothed,equalization,parametric_eq,equalized_raw,equalized_smoothed,target
20.00,4.66,-2.26,4.53,-2.38,2.38,0.30,7.04,6.91,6.92
20.20,4.70,-2.22,4.67,-2.23,2.23,0.31,6.93,6.90,6.92
20.40,4.75,-2.17,4.80,-2.09,2.09,0.32,6.84,6.89,6.92
20.61,4.79,-2.13,4.92,-1.96,1.96,0.33,6.75,6.88,6.92
20.81,4.84,-2.07,5.03,-1.84,1.84,0.34,6.68,6.88,6.92
21.02,4.90,-2.01,5.14,-1.73,1.73,0.35,6.63,6.87,6.91
21.23,5.12,-1.79,5.23,-1.63,1.63,0.36,6.75,6.86,6.91
21.44,5.34,-1.57,5.32,-1.54,1.54,0.37,6.88,6.86,6.91
21.66,5.56,-1.35,5.39,-1.46,1.46,0.39,7.01,6.85,6.91
21.87,5.78,-1.13,5.46,-1.38,1.38,0.40,7.17,6.85,6.91
22.09,5.88,-1.03,5.52,-1.32,1.32,0.41,7.20,6.84,6.91
22.31,5.81,-1.10,5.57,-1.27,1.27,0.42,7.07,6.84,6.90
22.54,5.74,-1.16,5.60,-1.24,1.24,0.44,6.98,6.84,6.90
22.76,5.66,-1.24,5.63,-1.21,1.21,0.45,6.87,6.84,6.90
22.99,5.59,-1.31,5.65,-1.20,1.20,0.46,6.79,6.85,6.90
23.22,5.55,-1.35,5.66,-1.19,1.19,0.48,6.74,6.85,6.90
23.45,5.50,-1.40,5.66,-1.18,1.18,0.49,6.68,6.84,6.90
23.69,5.45,-1.44,5.66,-1.17,1.17,0.51,6.62,6.82,6.89
23.92,5.41,-1.48,5.65,-1.16,1.16,0.52,6.57,6.82,6.89
24.16,5.48,-1.41,5.65,-1.16,1.16,0.54,6.64,6.81,6.89
24.40,5.62,-1.27,5.67,-1.14,1.14,0.55,6.76,6.81,6.89
24.65,5.76,-1.13,5.69,-1.12,1.12,0.57,6.88,6.81,6.89
24.89,5.90,-0.98,5.74,-1.09,1.09,0.59,6.99,6.83,6.88
25.14,5.96,-0.92,5.78,-1.06,1.06,0.60,7.02,6.84,6.88
25.39,5.95,-0.93,5.83,-1.02,1.02,0.62,6.97,6.85,6.88
25.65,5.95,-0.93,5.88,-0.98,0.98,0.63,6.93,6.87,6.88
25.91,5.94,-0.93,5.93,-0.95,0.95,0.65,6.89,6.88,6.87
26.16,5.95,-0.92,5.97,-0.91,0.91,0.66,6.86,6.88,6.87
26.43,5.96,-0.91,6.00,-0.87,0.87,0.68,6.83,6.88,6.87
26.69,5.97,-0.90,6.02,-0.84,0.84,0.69,6.81,6.86,6.87
26.96,5.99,-0.87,6.03,-0.80,0.80,0.71,6.79,6.83,6.86
27.23,6.04,-0.82,6.05,-0.76,0.76,0.72,6.80,6.81,6.86
27.50,6.09,-0.77,6.09,-0.72,0.72,0.73,6.81,6.81,6.86
27.77,6.15,-0.70,6.14,-0.67,0.67,0.74,6.82,6.81,6.85
28.05,6.19,-0.66,6.20,-0.62,0.62,0.76,6.81,6.82,6.85
28.33,6.19,-0.66,6.25,-0.58,0.58,0.77,6.77,6.83,6.85
28.62,6.19,-0.65,6.31,-0.53,0.53,0.77,6.72,6.84,6.84
28.90,6.19,-0.65,6.35,-0.49,0.49,0.78,6.68,6.84,6.84
29.19,6.31,-0.53,6.39,-0.44,0.44,0.79,6.75,6.83,6.84
29.48,6.48,-0.35,6.41,-0.40,0.40,0.79,6.88,6.81,6.83
29.78,6.66,-0.17,6.42,-0.37,0.37,0.79,7.03,6.80,6.83
30.08,6.76,-0.07,6.43,-0.35,0.35,0.79,7.10,6.77,6.83
30.38,6.64,-0.18,6.42,-0.32,0.32,0.79,6.97,6.75,6.82
30.68,6.52,-0.30,6.43,-0.30,0.30,0.79,6.82,6.73,6.82
30.99,6.40,-0.41,6.45,-0.28,0.28,0.79,6.68,6.73,6.81
31.30,6.35,-0.46,6.48,-0.25,0.25,0.78,6.60,6.73,6.81
31.61,6.31,-0.50,6.51,-0.23,0.23,0.77,6.54,6.74,6.81
31.93,6.27,-0.53,6.54,-0.21,0.21,0.76,6.48,6.75,6.80
32.24,6.32,-0.48,6.56,-0.19,0.19,0.75,6.52,6.76,6.80
32.57,6.39,-0.40,6.56,-0.18,0.18,0.74,6.57,6.74,6.79
32.89,6.47,-0.32,6.55,-0.17,0.17,0.72,6.64,6.72,6.79
33.22,6.60,-0.18,6.53,-0.16,0.16,0.71,6.76,6.69,6.78
33.55,6.77,-0.01,6.54,-0.14,0.14,0.69,6.91,6.68,6.78
33.89,6.94,0.17,6.56,-0.13,0.13,0.67,7.07,6.69,6.77
34.23,6.91,0.14,6.58,-0.12,0.12,0.65,7.03,6.69,6.77
34.57,6.76,-0.00,6.59,-0.11,0.11,0.62,6.87,6.70,6.76
34.92,6.62,-0.13,6.60,-0.10,0.10,0.60,6.72,6.70,6.76
35.27,6.49,-0.26,6.60,-0.09,0.09,0.58,6.58,6.70,6.75
35.62,6.35,-0.39,6.61,-0.08,0.08,0.55,6.43,6.69,6.74
35.97,6.22,-0.52,6.61,-0.07,0.07,0.52,6.30,6.68,6.74
36.33,6.37,-0.36,6.61,-0.07,0.07,0.49,6.44,6.68,6.73
36.70,6.55,-0.18,6.62,-0.06,0.06,0.47,6.61,6.68,6.72
37.06,6.69,-0.03,6.61,-0.05,0.05,0.44,6.74,6.66,6.72
37.43,6.69,-0.02,6.60,-0.04,0.04,0.41,6.73,6.64,6.71
37.81,6.69,-0.01,6.59,-0.03,0.03,0.37,6.72,6.62,6.70
38.19,6.71,0.01,6.61,-0.01,0.01,0.34,6.72,6.62,6.70
38.57,6.76,0.07,6.64,0.01,-0.01,0.31,6.75,6.62,6.69
38.95,6.80,0.12,6.67,0.04,-0.04,0.28,6.76,6.64,6.68
39.34,6.80,0.13,6.70,0.06,-0.06,0.25,6.74,6.65,6.67
39.74,6.80,0.14,6.73,0.08,-0.08,0.22,6.72,6.65,6.66
40.14,6.74,0.08,6.74,0.10,-0.10,0.18,6.64,6.64,6.66
40.54,6.57,-0.08,6.74,0.13,-0.13,0.15,6.45,6.62,6.65
40.94,6.41,-0.23,6.74,0.15,-0.15,0.12,6.26,6.60,6.64
41.35,6.57,-0.06,6.75,0.17,-0.17,0.08,6.40,6.58,6.63
41.76,6.78,0.16,6.77,0.19,-0.19,0.05,6.59,6.58,6.62
42.18,6.90,0.29,6.78,0.21,-0.21,0.02,6.69,6.57,6.61
42.60,6.90,0.30,6.80,0.24,-0.24,-0.02,6.66,6.56,6.60
43.03,6.90,0.31,6.82,0.26,-0.26,-0.05,6.64,6.55,6.59
43.46,6.90,0.32,6.85,0.29,-0.29,-0.08,6.61,6.55,6.58
43.90,6.90,0.33,6.88,0.32,-0.32,-0.12,6.58,6.57,6.57
44.33,6.90,0.34,6.90,0.34,-0.34,-0.15,6.56,6.57,6.56
44.78,6.90,0.36,6.91,0.35,-0.35,-0.19,6.55,6.55,6.54
45.23,6.90,0.37,6.91,0.37,-0.37,-0.22,6.53,6.54,6.53
45.68,6.90,0.38,6.90,0.38,-0.38,-0.25,6.52,6.52,6.52
46.13,6.90,0.39,6.87,0.39,-0.39,-0.29,6.51,6.49,6.51
46.60,6.90,0.41,6.85,0.39,-0.39,-0.32,6.51,6.46,6.49
47.06,6.90,0.42,6.84,0.40,-0.40,-0.36,6.50,6.44,6.48
47.53,6.90,0.43,6.84,0.41,-0.41,-0.39,6.49,6.43,6.47
48.01,6.90,0.45,6.85,0.42,-0.42,-0.42,6.48,6.42,6.45
48.49,6.71,0.27,6.85,0.44,-0.44,-0.46,6.27,6.41,6.44
48.97,6.52,0.10,6.86,0.46,-0.46,-0.49,6.06,6.40,6.42
49.46,6.73,0.32,6.87,0.49,-0.49,-0.53,6.24,6.38,6.41
49.96,6.96,0.57,6.88,0.52,-0.52,-0.56,6.44,6.36,6.39
50.46,6.99,0.61,6.90,0.55,-0.55,-0.60,6.44,6.35,6.38
50.96,7.00,0.64,6.91,0.58,-0.58,-0.63,6.42,6.33,6.36
51.47,7.00,0.66,6.93,0.61,-0.61,-0.67,6.39,6.32,6.34
51.99,7.00,0.68,6.95,0.65,-0.65,-0.70,6.35,6.30,6.32
52.51,7.00,0.69,6.97,0.68,-0.68,-0.73,6.32,6.28,6.31
53.03,7.00,0.71,6.99,0.71,-0.71,-0.77,6.29,6.27,6.29
53.56,7.00,0.73,7.01,0.74,-0.74,-0.80,6.26,6.27,6.27
54.10,7.00,0.75,7.03,0.77,-0.77,-0.83,6.23,6.26,6.25
54.64,7.00,0.77,7.03,0.79,-0.79,-0.87,6.21,6.24,6.23
55.18,7.00,0.79,7.02,0.81,-0.81,-0.90,6.19,6.20,6.21
55.74,7.00,0.81,7.00,0.83,-0.83,-0.93,6.17,6.17,6.19
56.29,7.00,0.83,7.00,0.85,-0.85,-0.96,6.15,6.15,6.17
56.86,7.00,0.86,7.00,0.87,-0.87,-0.99,6.13,6.13,6.14
57.42,7.00,0.88,7.00,0.88,-0.88,-1.02,6.12,6.12,6.12
58.00,7.00,0.90,7.00,0.90,-0.90,-1.05,6.10,6.10,6.10
58.58,7.00,0.93,7.00,0.93,-0.93,-1.08,6.07,6.07,6.07
59.16,7.00,0.95,7.00,0.95,-0.95,-1.11,6.05,6.05,6.05
59.76,7.00,0.98,7.00,0.98,-0.98,-1.14,6.02,6.02,6.02
60.35,7.00,1.00,7.00,1.00,-1.00,-1.17,6.00,6.00,6.00
60.96,7.00,1.03,7.00,1.03,-1.03,-1.19,5.97,5.97,5.97
61.57,7.00,1.05,7.00,1.06,-1.06,-1.22,5.94,5.94,5.95
62.18,7.00,1.08,7.00,1.09,-1.09,-1.24,5.91,5.91,5.92
62.80,7.00,1.11,7.00,1.12,-1.12,-1.26,5.88,5.88,5.89
63.43,7.00,1.14,7.02,1.14,-1.14,-1.28,5.86,5.87,5.86
64.07,7.00,1.17,7.02,1.17,-1.17,-1.31,5.83,5.85,5.83
64.71,7.00,1.20,7.01,1.20,-1.20,-1.33,5.80,5.81,5.80
65.35,7.00,1.23,6.99,1.22,-1.22,-1.35,5.78,5.77,5.77
66.01,7.00,1.26,6.98,1.25,-1.25,-1.37,5.75,5.73,5.74
66.67,7.00,1.29,6.97,1.27,-1.27,-1.38,5.73,5.69,5.71
67.33,7.00,1.32,6.96,1.30,-1.30,-1.40,5.70,5.66,5.68
68.01,7.00,1.35,6.96,1.33,-1.33,-1.42,5.67,5.63,5.65
68.69,7.00,1.39,6.95,1.36,-1.36,-1.44,5.64,5.59,5.61
69.37,7.00,1.42,6.95,1.41,-1.41,-1.46,5.59,5.54,5.58
70.07,6.97,1.43,6.95,1.45,-1.45,-1.47,5.52,5.50,5.54
70.77,6.71,1.20,6.97,1.50,-1.50,-1.49,5.21,5.47,5.51
71.48,6.79,1.32,7.00,1.55,-1.55,-1.51,5.24,5.45,5.47
72.19,7.00,1.56,7.02,1.61,-1.61,-1.53,5.39,5.41,5.44
72.91,7.09,1.69,7.04,1.66,-1.66,-1.54,5.43,5.38,5.40
73.64,7.10,1.74,7.06,1.72,-1.72,-1.56,5.38,5.34,5.36
74.38,7.10,1.78,7.07,1.77,-1.77,-1.58,5.33,5.30,5.32
75.12,7.10,1.82,7.09,1.83,-1.83,-1.60,5.27,5.26,5.28
75.87,7.10,1.86,7.10,1.88,-1.88,-1.62,5.22,5.22,5.24
76.63,7.17,1.97,7.11,1.93,-1.93,-1.65,5.24,5.18,5.20
77.40,7.30,2.14,7.12,1.98,-1.98,-1.67,5.32,5.14,5.16
78.17,7.36,2.24,7.12,2.02,-2.02,-1.69,5.34,5.11,5.12
78.95,7.02,1.94,7.13,2.05,-2.05,-1.72,4.97,5.08,5.08
79.74,7.00,1.96,7.12,2.08,-2.08,-1.74,4.92,5.04,5.04
80.54,7.00,2.00,7.08,2.11,-2.11,-1.77,4.89,4.97,5.00
81.35,7.00,2.05,7.06,2.13,-2.13,-1.80,4.87,4.92,4.95
82.16,7.00,2.09,7.04,2.16,-2.16,-1.83,4.84,4.88,4.91
82.98,7.00,2.14,7.02,2.18,-2.18,-1.86,4.82,4.85,4.86
83.81,7.00,2.18,7.00,2.20,-2.20,-1.89,4.80,4.81,4.82
84.65,7.00,2.23,6.98,2.22,-2.22,-1.93,4.78,4.76,4.77
85.50,7.00,2.27,6.95,2.25,-2.25,-1.96,4.75,4.71,4.73
86.35,7.00,2.32,6.93,2.27,-2.27,-2.00,4.73,4.66,4.68
87.22,6.99,2.35,6.92,2.30,-2.30,-2.04,4.69,4.62,4.64
88.09,6.93,2.34,6.93,2.33,-2.33,-2.08,4.60,4.60,4.59
88.97,6.62,2.08,6.91,2.36,-2.36,-2.12,4.26,4.55,4.54
89.86,7.06,2.56,6.89,2.39,-2.39,-2.17,4.66,4.50,4.50
90.76,6.96,2.51,6.87,2.43,-2.43,-2.21,4.53,4.44,4.45
91.66,6.84,2.44,6.84,2.47,-2.47,-2.26,4.37,4.38,4.40
92.58,6.80,2.45,6.84,2.51,-2.51,-2.31,4.29,4.33,4.35
93.51,6.80,2.50,6.84,2.55,-2.55,-2.36,4.25,4.29,4.30
94.44,6.80,2.54,6.83,2.59,-2.59,-2.41,4.21,4.24,4.26
95.39,6.80,2.59,6.83,2.63,-2.63,-2.47,4.17,4.20,4.21
96.34,6.80,2.64,6.83,2.68,-2.68,-2.52,4.12,4.15,4.16
97.30,6.79,2.68,6.82,2.72,-2.72,-2.58,4.07,4.10,4.11
98.28,6.78,2.72,6.81,2.76,-2.76,-2.63,4.02,4.06,4.06
99.26,6.77,2.76,6.80,2.79,-2.79,-2.69,3.98,4.00,4.01
100.25,6.78,2.82,6.75,2.83,-2.83,-2.75,3.95,3.92,3.96
101.25,6.88,2.97,6.73,2.86,-2.86,-2.81,4.02,3.87,3.91
102.27,6.98,3.12,6.73,2.89,-2.89,-2.87,4.09,3.84,3.86
103.29,6.76,2.94,6.71,2.91,-2.91,-2.93,3.85,3.80,3.82
104.32,6.59,2.82,6.69,2.94,-2.94,-2.99,3.65,3.75,3.77
105.37,6.56,2.84,6.66,2.96,-2.96,-3.05,3.60,3.71,3.72
106.42,6.54,2.87,6.63,2.97,-2.97,-3.11,3.57,3.66,3.67
107.48,6.51,2.89,6.59,2.99,-2.99,-3.17,3.52,3.60,3.62
108.56,6.49,2.92,6.55,3.01,-3.01,-3.23,3.48,3.54,3.57
109.64,6.47,2.95,6.51,3.02,-3.02,-3.29,3.45,3.49,3.52
110.74,6.52,3.05,6.48,3.04,-3.04,-3.34,3.48,3.44,3.47
111.85,6.70,3.27,6.47,3.06,-3.06,-3.40,3.64,3.41,3.43
112.97,6.55,3.17,6.45,3.08,-3.08,-3.45,3.47,3.38,3.38
114.10,6.32,2.98,6.43,3.10,-3.10,-3.50,3.22,3.34,3.34
115.24,6.32,3.02,6.41,3.11,-3.11,-3.54,3.21,3.30,3.30
116.39,6.32,3.07,6.38,3.13,-3.13,-3.58,3.19,3.25,3.25
117.55,6.32,3.11,6.36,3.15,-3.15,-3.62,3.17,3.21,3.21
118.73,6.33,3.15,6.34,3.17,-3.17,-3.66,3.16,3.17,3.18
119.92,6.33,3.19,6.32,3.18,-3.18,-3.69,3.15,3.14,3.14
121.12,6.50,3.40,6.30,3.20,-3.20,-3.71,3.30,3.10,3.10
122.33,6.44,3.37,6.28,3.21,-3.21,-3.73,3.23,3.06,3.07
123.55,6.32,3.29,6.25,3.23,-3.23,-3.75,3.09,3.02,3.03
124.79,6.05,3.05,6.22,3.25,-3.25,-3.76,2.80,2.98,3.00
126.03,5.89,2.92,6.21,3.26,-3.26,-3.77,2.63,2.95,2.97
127.29,6.08,3.15,6.21,3.29,-3.29,-3.77,2.80,2.92,2.94
128.57,6.29,3.39,6.20,3.31,-3.31,-3.77,2.98,2.89,2.90
129.85,6.46,3.59,6.19,3.33,-3.33,-3.76,3.13,2.86,2.87
131.15,6.23,3.39,6.19,3.36,-3.36,-3.75,2.87,2.83,2.84
132.46,6.14,3.33,6.18,3.39,-3.39,-3.74,2.75,2.79,2.81
133.79,6.10,3.33,6.18,3.42,-3.42,-3.72,2.68,2.76,2.77
135.12,6.10,3.36,6.17,3.45,-3.45,-3.70,2.65,2.72,2.74
136.48,6.11,3.40,6.17,3.47,-3.47,-3.67,2.64,2.70,2.71
137.84,6.11,3.44,6.18,3.50,-3.50,-3.64,2.62,2.68,2.67
139.22,6.20,3.56,6.16,3.52,-3.52,-3.61,2.68,2.65,2.64
140.61,6.33,3.72,6.13,3.53,-3.53,-3.58,2.80,2.59,2.61
142.02,6.26,3.68,6.09,3.54,-3.54,-3.54,2.72,2.54,2.58
143.44,6.08,3.54,6.06,3.55,-3.55,-3.51,2.53,2.51,2.54
144.87,6.01,3.50,6.04,3.56,-3.56,-3.47,2.45,2.48,2.51
146.32,6.00,3.52,6.03,3.56,-3.56,-3.43,2.44,2.46,2.48
147.78,5.95,3.50,6.00,3.57,-3.57,-3.39,2.38,2.43,2.45
149.26,5.88,3.46,5.96,3.57,-3.57,-3.35,2.31,2.39,2.42
150.75,5.82,3.43,5.94,3.57,-3.57,-3.31,2.25,2.37,2.39
152.26,5.81,3.45,5.93,3.57,-3.57,-3.27,2.24,2.36,2.36
153.78,5.81,3.48,5.89,3.57,-3.57,-3.23,2.24,2.32,2.33
155.32,5.95,3.64,5.84,3.57,-3.57,-3.19,2.38,2.27,2.31
156.88,6.06,3.78,5.80,3.57,-3.57,-3.16,2.49,2.23,2.28
158.44,5.81,3.55,5.79,3.57,-3.57,-3.12,2.24,2.22,2.26
160.03,5.71,3.48,5.77,3.57,-3.57,-3.09,2.14,2.21,2.23
161.63,5.71,3.51,5.74,3.57,-3.57,-3.06,2.14,2.17,2.20
163.24,5.71,3.54,5.71,3.57,-3.57,-3.03,2.14,2.15,2.17
164.88,5.75,3.60,5.70,3.56,-3.56,-3.00,2.19,2.14,2.15
166.53,5.88,3.76,5.68,3.55,-3.55,-2.97,2.33,2.13,2.12
168.19,5.53,3.44,5.64,3.54,-3.54,-2.95,1.99,2.10,2.09
169.87,5.27,3.21,5.59,3.53,-3.53,-2.93,1.74,2.06,2.06
171.57,5.47,3.43,5.53,3.52,-3.52,-2.91,1.95,2.01,2.04
173.29,5.64,3.63,5.48,3.50,-3.50,-2.89,2.14,1.98,2.01
175.02,5.59,3.60,5.45,3.48,-3.48,-2.87,2.11,1.96,1.99
176.77,5.40,3.43,5.43,3.46,-3.46,-2.86,1.94,1.97,1.97
178.54,5.37,3.42,5.40,3.44,-3.44,-2.85,1.93,1.95,1.95
180.32,5.50,3.56,5.36,3.43,-3.43,-2.84,2.07,1.94,1.94
182.13,5.45,3.52,5.33,3.41,-3.41,-2.83,2.04,1.92,1.93
183.95,5.09,3.17,5.30,3.39,-3.39,-2.83,1.70,1.91,1.92
185.79,5.03,3.12,5.27,3.38,-3.38,-2.83,1.65,1.90,1.91
187.65,5.18,3.27,5.27,3.36,-3.36,-2.83,1.82,1.91,1.91
189.52,5.34,3.43,5.25,3.35,-3.35,-2.83,1.99,1.91,1.91
191.42,5.39,3.49,5.22,3.33,-3.33,-2.83,2.06,1.89,1.90
193.33,5.24,3.34,5.20,3.31,-3.31,-2.84,1.93,1.88,1.90
195.27,5.17,3.27,5.18,3.29,-3.29,-2.85,1.88,1.89,1.90
197.22,5.16,3.26,5.17,3.27,-3.27,-2.86,1.89,1.89,1.90
199.19,5.11,3.21,5.14,3.25,-3.25,-2.87,1.86,1.89,1.90
201.18,5.09,3.20,5.10,3.23,-3.23,-2.88,1.86,1.87,1.89
203.19,5.04,3.16,5.08,3.20,-3.20,-2.89,1.84,1.87,1.88
205.23,5.06,3.18,5.07,3.18,-3.18,-2.91,1.88,1.89,1.88
207.28,5.16,3.29,5.02,3.15,-3.15,-2.92,2.01,1.87,1.87
209.35,5.04,3.19,4.95,3.12,-3.12,-2.94,1.92,1.83,1.85
211.44,4.90,3.06,4.90,3.08,-3.08,-2.95,1.82,1.81,1.84
213.56,4.82,2.99,4.86,3.05,-3.05,-2.97,1.77,1.80,1.83
215.69,4.75,2.94,4.82,3.02,-3.02,-2.98,1.73,1.80,1.81
217.85,4.69,2.89,4.78,2.98,-2.98,-2.99,1.71,1.79,1.80
220.03,4.68,2.90,4.73,2.95,-2.95,-3.01,1.73,1.78,1.78
222.23,4.69,2.92,4.69,2.92,-2.92,-3.02,1.77,1.77,1.77
224.45,4.79,3.03,4.64,2.88,-2.88,-3.03,1.91,1.75,1.76
226.70,4.63,2.88,4.59,2.85,-2.85,-3.04,1.78,1.74,1.75
228.96,4.33,2.58,4.55,2.82,-2.82,-3.04,1.51,1.73,1.75
231.25,4.56,2.81,4.52,2.79,-2.79,-3.05,1.77,1.73,1.75
233.57,4.63,2.88,4.50,2.76,-2.76,-3.05,1.87,1.74,1.75
235.90,4.44,2.69,4.48,2.73,-2.73,-3.04,1.71,1.75,1.75
238.26,4.43,2.67,4.45,2.70,-2.70,-3.04,1.73,1.76,1.76
240.64,4.41,2.64,4.43,2.66,-2.66,-3.02,1.75,1.77,1.77
243.05,4.37,2.59,4.41,2.63,-2.63,-3.01,1.74,1.78,1.78
245.48,4.31,2.52,4.38,2.59,-2.59,-2.99,1.72,1.79,1.79
247.93,4.34,2.55,4.34,2.56,-2.56,-2.97,1.78,1.78,1.80
250.41,4.44,2.64,4.29,2.52,-2.52,-2.94,1.92,1.78,1.80
252.92,4.35,2.54,4.28,2.47,-2.47,-2.91,1.88,1.80,1.81
255.45,4.25,2.43,4.25,2.43,-2.43,-2.88,1.82,1.82,1.82
258.00,4.18,2.36,4.18,2.38,-2.38,-2.83,1.80,1.80,1.82
260.58,4.12,2.29,4.13,2.34,-2.34,-2.79,1.78,1.79,1.82
263.19,4.10,2.28,4.09,2.29,-2.29,-2.74,1.81,1.80,1.82
265.82,4.17,2.35,4.05,2.25,-2.25,-2.69,1.92,1.80,1.82
268.48,3.92,2.10,4.01,2.20,-2.20,-2.63,1.72,1.81,1.82
271.16,3.81,1.99,3.97,2.16,-2.16,-2.57,1.65,1.81,1.82
273.87,3.85,2.04,3.92,2.11,-2.11,-2.51,1.74,1.80,1.81
276.61,3.94,2.13,3.87,2.07,-2.07,-2.44,1.87,1.80,1.81
279.38,3.92,2.11,3.82,2.02,-2.02,-2.38,1.90,1.80,1.81
282.17,3.66,1.85,3.78,1.98,-1.98,-2.30,1.68,1.80,1.81
284.99,3.62,1.81,3.73,1.93,-1.93,-2.23,1.69,1.80,1.81
287.84,3.78,1.97,3.69,1.89,-1.89,-2.15,1.89,1.81,1.81
290.72,3.80,1.98,3.66,1.84,-1.84,-2.08,1.96,1.82,1.82
293.63,3.67,1.85,3.61,1.79,-1.79,-2.00,1.88,1.82,1.82
296.57,3.62,1.79,3.56,1.73,-1.73,-1.92,1.89,1.83,1.83
299.53,3.37,1.53,3.52,1.68,-1.68,-1.83,1.69,1.85,1.84
302.53,3.43,1.58,3.47,1.62,-1.62,-1.75,1.81,1.85,1.85
305.55,3.47,1.62,3.41,1.56,-1.56,-1.67,1.91,1.85,1.85
308.61,3.26,1.40,3.35,1.50,-1.50,-1.58,1.76,1.85,1.86
311.69,3.27,1.41,3.29,1.44,-1.44,-1.50,1.83,1.85,1.86
314.81,3.30,1.43,3.24,1.38,-1.38,-1.41,1.92,1.86,1.87
317.96,3.28,1.41,3.17,1.31,-1.31,-1.33,1.97,1.86,1.87
321.14,3.14,1.27,3.10,1.25,-1.25,-1.25,1.89,1.85,1.87
324.35,2.93,1.06,3.04,1.19,-1.19,-1.16,1.74,1.85,1.87
327.59,2.97,1.10,2.99,1.14,-1.14,-1.08,1.83,1.85,1.87
330.87,2.94,1.07,2.94,1.08,-1.08,-0.99,1.86,1.86,1.87
334.18,2.87,1.00,2.89,1.02,-1.02,-0.91,1.85,1.87,1.87
337.52,2.79,0.93,2.82,0.96,-0.96,-0.82,1.83,1.86,1.86
340.90,2.76,0.90,2.76,0.90,-0.90,-0.74,1.86,1.86,1.86
344.30,2.70,0.84,2.71,0.85,-0.85,-0.66,1.85,1.87,1.86
347.75,2.70,0.84,2.64,0.79,-0.79,-0.57,1.91,1.86,1.86
351.23,2.60,0.74,2.58,0.73,-0.73,-0.49,1.87,1.85,1.86
354.74,2.48,0.62,2.52,0.67,-0.67,-0.41,1.81,1.86,1.86
358.28,2.49,0.62,2.47,0.61,-0.61,-0.33,1.88,1.87,1.87
361.87,2.47,0.60,2.42,0.55,-0.55,-0.25,1.92,1.87,1.87
365.49,2.42,0.54,2.36,0.49,-0.49,-0.16,1.93,1.87,1.88
369.14,2.25,0.36,2.30,0.42,-0.42,-0.08,1.83,1.88,1.89
372.83,2.17,0.28,2.25,0.36,-0.36,-0.00,1.81,1.88,1.89
376.56,2.20,0.30,2.19,0.30,-0.30,0.08,1.90,1.89,1.90
380.33,2.11,0.21,2.12,0.24,-0.24,0.16,1.87,1.89,1.90
384.13,2.00,0.09,2.06,0.17,-0.17,0.24,1.83,1.89,1.91
387.97,2.01,0.10,2.00,0.11,-0.11,0.32,1.90,1.90,1.91
391.85,1.97,0.06,1.94,0.04,-0.04,0.40,1.93,1.90,1.91
395.77,1.91,-0.00,1.87,-0.03,0.03,0.47,1.94,1.90,1.91
399.73,1.84,-0.07,1.80,-0.10,0.10,0.55,1.94,1.90,1.91
403.72,1.77,-0.14,1.73,-0.16,0.16,0.63,1.93,1.89,1.91
407.76,1.72,-0.19,1.66,-0.24,0.24,0.70,1.96,1.89,1.91
411.84,1.59,-0.32,1.60,-0.31,0.31,0.78,1.90,1.90,1.91
415.96,1.50,-0.41,1.53,-0.38,0.38,0.86,1.88,1.91,1.91
420.12,1.47,-0.45,1.46,-0.45,0.45,0.93,1.92,1.91,1.92
424.32,1.41,-0.52,1.41,-0.52,0.52,1.00,1.93,1.93,1.93
428.56,1.31,-0.63,1.36,-0.59,0.59,1.07,1.90,1.95,1.94
432.85,1.24,-0.73,1.31,-0.66,0.66,1.15,1.90,1.97,1.97
437.18,1.25,-0.75,1.27,-0.72,0.72,1.21,1.97,2.00,2.00
441.55,1.22,-0.81,1.25,-0.79,0.79,1.28,2.01,2.03,2.03
445.96,1.16,-0.91,1.23,-0.85,0.85,1.35,2.01,2.07,2.07
450.42,1.19,-0.93,1.21,-0.91,0.91,1.41,2.10,2.12,2.12
454.93,1.24,-0.93,1.20,-0.97,0.97,1.47,2.21,2.17,2.17
459.48,1.23,-1.00,1.20,-1.02,1.02,1.53,2.25,2.22,2.23
464.07,1.24,-1.04,1.20,-1.08,1.08,1.59,2.32,2.28,2.28
468.71,1.21,-1.13,1.20,-1.13,1.13,1.65,2.34,2.34,2.34
473.40,1.22,-1.18,1.21,-1.19,1.19,1.70,2.41,2.40,2.40
478.13,1.18,-1.27,1.20,-1.25,1.25,1.75,2.43,2.45,2.45
482.91,1.19,-1.31,1.19,-1.30,1.30,1.79,2.49,2.50,2.50
487.74,1.20,-1.35,1.18,-1.36,1.36,1.84,2.56,2.54,2.55
492.62,1.17,-1.42,1.16,-1.42,1.42,1.88,2.59,2.58,2.59
497.55,1.11,-1.51,1.13,-1.48,1.48,1.92,2.59,2.61,2.62
502.52,1.10,-1.55,1.09,-1.54,1.54,1.95,2.64,2.63,2.65
507.55,1.09,-1.58,1.04,-1.61,1.61,1.99,2.70,2.65,2.67
512.62,1.01,-1.67,0.99,-1.67,1.67,2.01,2.68,2.66,2.68
517.75,0.96,-1.72,0.93,-1.74,1.74,2.04,2.70,2.66,2.68
522.93,0.86,-1.82,0.86,-1.80,1.80,2.07,2.66,2.66,2.68
528.16,0.75,-1.91,0.79,-1.86,1.86,2.09,2.61,2.65,2.66
533.44,0.72,-1.92,0.70,-1.93,1.93,2.11,2.65,2.63,2.64
538.77,0.64,-1.98,0.62,-2.00,2.00,2.12,2.64,2.61,2.62
544.16,0.55,-2.04,0.52,-2.06,2.06,2.14,2.61,2.58,2.59
549.60,0.42,-2.14,0.43,-2.13,2.13,2.15,2.55,2.56,2.56
555.10,0.32,-2.21,0.33,-2.19,2.19,2.17,2.51,2.53,2.53
560.65,0.21,-2.29,0.24,-2.26,2.26,2.18,2.47,2.50,2.50
566.25,0.15,-2.32,0.14,-2.33,2.33,2.19,2.48,2.47,2.47
571.92,0.11,-2.33,0.06,-2.40,2.40,2.20,2.51,2.45,2.44
577.64,-0.07,-2.49,-0.03,-2.46,2.46,2.21,2.39,2.44,2.42
583.41,-0.15,-2.56,-0.11,-2.53,2.53,2.21,2.38,2.42,2.41
589.25,-0.19,-2.59,-0.19,-2.60,2.60,2.22,2.41,2.41,2.40
595.14,-0.27,-2.67,-0.26,-2.67,2.67,2.23,2.40,2.41,2.40
601.09,-0.32,-2.72,-0.32,-2.73,2.73,2.24,2.41,2.42,2.40
607.10,-0.36,-2.78,-0.37,-2.79,2.79,2.25,2.43,2.43,2.42
613.17,-0.43,-2.87,-0.41,-2.86,2.86,2.26,2.43,2.45,2.44
619.30,-0.44,-2.91,-0.45,-2.91,2.91,2.27,2.47,2.47,2.47
625.50,-0.45,-2.95,-0.47,-2.97,2.97,2.28,2.52,2.50,2.50
631.75,-0.54,-3.08,-0.49,-3.02,3.02,2.30,2.48,2.53,2.54
638.07,-0.55,-3.13,-0.50,-3.07,3.07,2.31,2.52,2.58,2.58
644.45,-0.52,-3.15,-0.49,-3.12,3.12,2.33,2.60,2.63,2.63
650.89,-0.47,-3.15,-0.49,-3.17,3.17,2.35,2.70,2.68,2.68
657.40,-0.48,-3.21,-0.48,-3.21,3.21,2.36,2.73,2.72,2.73
663.98,-0.47,-3.25,-0.48,-3.25,3.25,2.39,2.78,2.77,2.78
670.62,-0.51,-3.34,-0.47,-3.29,3.29,2.41,2.78,2.82,2.83
677.32,-0.48,-3.35,-0.47,-3.33,3.33,2.43,2.85,2.86,2.87
684.10,-0.43,-3.35,-0.46,-3.36,3.36,2.46,2.93,2.90,2.92
690.94,-0.39,-3.34,-0.47,-3.40,3.40,2.49,3.01,2.93,2.95
697.85,-0.39,-3.37,-0.47,-3.43,3.43,2.52,3.04,2.96,2.98
704.83,-0.43,-3.44,-0.48,-3.47,3.47,2.56,3.04,2.99,3.01
711.87,-0.50,-3.52,-0.50,-3.51,3.51,2.59,3.01,3.01,3.02
718.99,-0.53,-3.57,-0.52,-3.54,3.54,2.63,3.01,3.03,3.04
726.18,-0.55,-3.59,-0.54,-3.58,3.58,2.67,3.03,3.04,3.04
733.44,-0.58,-3.63,-0.57,-3.61,3.61,2.71,3.03,3.05,3.05
740.78,-0.61,-3.66,-0.59,-3.65,3.65,2.75,3.04,3.05,3.05
748.19,-0.63,-3.68,-0.62,-3.68,3.68,2.80,3.05,3.05,3.05
755.67,-0.66,-3.71,-0.65,-3.71,3.71,2.85,3.05,3.05,3.05
763.23,-0.69,-3.74,-0.68,-3.73,3.73,2.90,3.04,3.05,3.05
770.86,-0.70,-3.76,-0.70,-3.76,3.76,2.95,3.06,3.06,3.06
778.57,-0.72,-3.78,-0.71,-3.78,3.78,3.00,3.06,3.06,3.06
786.35,-0.73,-3.80,-0.72,-3.79,3.79,3.05,3.06,3.08,3.07
