frequency,raw,error,smoothed,error_smoothed,equalization,parametric_eq,fixed_band_eq,equalized_raw,equalized_smoothed,target
20.00,-26.85,-24.37,-26.85,-24.37,6.00,5.83,2.67,-20.85,-20.85,-2.48
20.20,-26.71,-24.32,-26.71,-24.31,6.00,5.83,2.74,-20.71,-20.71,-2.39
20.40,-26.56,-24.25,-26.56,-24.25,6.00,5.83,2.82,-20.56,-20.56,-2.31
20.61,-26.42,-24.18,-26.42,-24.19,6.00,5.83,2.90,-20.42,-20.42,-2.24
20.81,-26.27,-24.12,-26.27,-24.12,6.00,5.84,2.98,-20.27,-20.27,-2.15
21.02,-26.13,-24.06,-26.13,-24.05,6.00,5.84,3.07,-20.13,-20.13,-2.07
21.23,-25.98,-23.97,-25.98,-23.97,6.00,5.84,3.15,-19.98,-19.98,-2.01
21.44,-25.84,-23.89,-25.84,-23.88,6.00,5.84,3.25,-19.84,-19.84,-1.95
21.66,-25.69,-23.79,-25.69,-23.79,6.00,5.84,3.34,-19.69,-19.69,-1.90
21.87,-25.54,-23.69,-25.54,-23.69,6.00,5.85,3.43,-19.54,-19.54,-1.85
22.09,-25.40,-23.60,-25.40,-23.59,6.00,5.85,3.53,-19.40,-19.40,-1.80
22.31,-25.25,-23.49,-25.25,-23.49,6.00,5.85,3.63,-19.25,-19.25,-1.75
22.54,-25.10,-23.39,-25.10,-23.39,6.00,5.85,3.73,-19.10,-19.10,-1.72
22.76,-24.95,-23.27,-24.95,-23.28,6.00,5.85,3.84,-18.95,-18.95,-1.68
22.99,-24.81,-23.17,-24.81,-23.17,6.00,5.86,3.94,-18.81,-18.81,-1.65
23.22,-24.66,-23.06,-24.66,-23.05,6.00,5.86,4.06,-18.66,-18.66,-1.61
23.45,-24.51,-22.94,-24.51,-22.94,6.00,5.86,4.17,-18.51,-18.51,-1.57
23.69,-24.36,-22.84,-24.36,-22.84,6.00,5.86,4.28,-18.36,-18.36,-1.53
23.92,-24.21,-22.72,-24.21,-22.73,6.00,5.87,4.40,-18.21,-18.21,-1.49
24.16,-24.06,-22.62,-24.06,-22.62,6.00,5.87,4.52,-18.06,-18.06,-1.44
24.40,-23.91,-22.50,-23.91,-22.50,6.00,5.87,4.64,-17.91,-17.91,-1.41
24.65,-23.77,-22.39,-23.77,-22.39,6.00,5.87,4.76,-17.77,-17.77,-1.38
24.89,-23.62,-22.27,-23.62,-22.27,6.00,5.88,4.89,-17.62,-17.62,-1.35
25.14,-23.47,-22.16,-23.47,-22.16,6.00,5.88,5.02,-17.47,-17.47,-1.31
25.39,-23.32,-22.04,-23.32,-22.04,6.00,5.88,5.14,-17.32,-17.32,-1.28
25.65,-23.17,-21.93,-23.17,-21.92,6.00,5.89,5.27,-17.17,-17.17,-1.24
25.91,-23.02,-21.80,-23.02,-21.81,6.00,5.89,5.40,-17.02,-17.02,-1.22
26.16,-22.88,-21.69,-22.88,-21.69,6.00,5.89,5.53,-16.88,-16.88,-1.19
26.43,-22.73,-21.58,-22.73,-21.57,6.00,5.89,5.66,-16.73,-16.73,-1.15
26.69,-22.58,-21.46,-22.58,-21.46,6.00,5.90,5.79,-16.58,-16.58,-1.12
26.96,-22.43,-21.34,-22.44,-21.35,6.00,5.90,5.91,-16.43,-16.44,-1.09
27.23,-22.29,-21.24,-22.29,-21.23,6.00,5.90,6.04,-16.29,-16.29,-1.05
27.50,-22.14,-21.12,-22.14,-21.11,6.00,5.91,6.16,-16.14,-16.14,-1.03
27.77,-21.99,-20.98,-21.99,-20.99,6.00,5.91,6.28,-15.99,-15.99,-1.01
28.05,-21.84,-20.87,-21.84,-20.87,6.00,5.91,6.39,-15.84,-15.84,-0.97
28.33,-21.70,-20.75,-21.70,-20.75,6.00,5.91,6.50,-15.70,-15.70,-0.95
28.62,-21.55,-20.63,-21.55,-20.64,6.00,5.92,6.61,-15.55,-15.55,-0.92
28.90,-21.41,-20.53,-21.41,-20.53,6.00,5.92,6.71,-15.41,-15.41,-0.88
29.19,-21.27,-20.41,-21.27,-20.42,6.00,5.92,6.80,-15.27,-15.27,-0.86
29.48,-21.13,-20.32,-21.13,-20.31,6.00,5.93,6.88,-15.13,-15.13,-0.81
29.78,-20.99,-20.20,-20.99,-20.20,6.00,5.93,6.96,-14.99,-14.99,-0.79
30.08,-20.84,-20.08,-20.85,-20.09,6.00,5.93,7.03,-14.84,-14.85,-0.76
30.38,-20.70,-19.97,-20.70,-19.97,6.00,5.94,7.09,-14.70,-14.70,-0.73
30.68,-20.56,-19.86,-20.56,-19.85,6.00,5.94,7.13,-14.56,-14.56,-0.71
30.99,-20.42,-19.74,-20.42,-19.74,6.00,5.95,7.18,-14.42,-14.42,-0.69
31.30,-20.29,-19.63,-20.29,-19.64,6.00,5.95,7.20,-14.29,-14.29,-0.66
31.61,-20.16,-19.53,-20.16,-19.53,6.00,5.95,7.23,-14.16,-14.16,-0.63
31.93,-20.03,-19.42,-20.03,-19.42,6.00,5.96,7.23,-14.03,-14.03,-0.61
32.24,-19.90,-19.31,-19.90,-19.32,6.00,5.96,7.24,-13.90,-13.90,-0.59
32.57,-19.78,-19.22,-19.78,-19.22,6.00,5.96,7.23,-13.78,-13.78,-0.56
32.89,-19.65,-19.12,-19.65,-19.12,6.00,5.97,7.21,-13.65,-13.65,-0.53
33.22,-19.53,-19.01,-19.53,-19.01,6.00,5.97,7.19,-13.53,-13.53,-0.52
33.55,-19.40,-18.90,-19.40,-18.91,6.00,5.98,7.15,-13.40,-13.40,-0.50
33.89,-19.28,-18.79,-19.28,-18.80,6.00,5.98,7.11,-13.28,-13.28,-0.49
34.23,-19.16,-18.70,-19.16,-18.69,6.00,5.98,7.07,-13.16,-13.16,-0.46
34.57,-19.03,-18.58,-19.03,-18.58,6.00,5.99,7.02,-13.03,-13.03,-0.45
34.92,-18.91,-18.47,-18.91,-18.47,6.00,5.99,6.96,-12.91,-12.91,-0.44
35.27,-18.79,-18.37,-18.79,-18.36,6.00,6.00,6.90,-12.79,-12.79,-0.43
35.62,-18.67,-18.24,-18.67,-18.25,6.00,6.00,6.84,-12.67,-12.67,-0.43
35.97,-18.55,-18.13,-18.55,-18.14,6.00,6.00,6.78,-12.55,-12.55,-0.42
36.33,-18.43,-18.03,-18.43,-18.02,6.00,6.01,6.71,-12.43,-12.43,-0.40
36.70,-18.30,-17.90,-18.30,-17.90,6.00,6.01,6.64,-12.30,-12.30,-0.40
37.06,-18.18,-17.77,-18.18,-17.78,6.00,6.02,6.57,-12.18,-12.18,-0.41
37.43,-18.06,-17.66,-18.06,-17.66,6.00,6.02,6.51,-12.06,-12.06,-0.40
37.81,-17.94,-17.54,-17.94,-17.54,6.00,6.02,6.44,-11.94,-11.94,-0.40
38.19,-17.82,-17.42,-17.82,-17.42,6.00,6.03,6.37,-11.82,-11.82,-0.40
38.57,-17.70,-17.30,-17.70,-17.30,6.00,6.03,6.31,-11.70,-11.70,-0.40
38.95,-17.58,-17.18,-17.58,-17.18,6.00,6.04,6.25,-11.58,-11.58,-0.40
39.34,-17.46,-17.05,-17.46,-17.05,6.00,6.04,6.19,-11.46,-11.46,-0.41
39.74,-17.34,-16.92,-17.34,-16.92,6.00,6.05,6.13,-11.34,-11.34,-0.42
40.14,-17.22,-16.80,-17.22,-16.80,6.00,6.05,6.08,-11.22,-11.22,-0.42
40.54,-17.10,-16.68,-17.11,-16.68,6.00,6.05,6.03,-11.10,-11.11,-0.42
40.94,-16.99,-16.56,-16.99,-16.56,6.00,6.06,5.98,-10.99,-10.99,-0.43
41.35,-16.87,-16.44,-16.87,-16.44,6.00,6.06,5.94,-10.87,-10.87,-0.43
41.76,-16.75,-16.32,-16.75,-16.32,6.00,6.07,5.90,-10.75,-10.75,-0.43
42.18,-16.63,-16.19,-16.63,-16.19,6.00,6.07,5.87,-10.63,-10.63,-0.44
42.60,-16.51,-16.06,-16.51,-16.06,6.00,6.08,5.84,-10.51,-10.51,-0.45
43.03,-16.39,-15.94,-16.39,-15.94,6.00,6.08,5.81,-10.39,-10.39,-0.45
43.46,-16.27,-15.81,-16.27,-15.81,6.00,6.09,5.79,-10.27,-10.27,-0.46
43.90,-16.16,-15.69,-16.16,-15.69,6.00,6.09,5.77,-10.16,-10.16,-0.47
44.33,-16.04,-15.55,-16.04,-15.56,6.00,6.09,5.75,-10.04,-10.04,-0.49
44.78,-15.93,-15.44,-15.93,-15.43,6.00,6.10,5.75,-9.93,-9.93,-0.49
45.23,-15.81,-15.30,-15.81,-15.30,6.00,6.10,5.74,-9.81,-9.81,-0.51
45.68,-15.69,-15.18,-15.70,-15.18,6.00,6.11,5.74,-9.69,-9.70,-0.51
46.13,-15.58,-15.06,-15.58,-15.06,6.00,6.11,5.74,-9.58,-9.58,-0.52
46.60,-15.47,-14.96,-15.47,-14.95,6.00,6.12,5.75,-9.47,-9.47,-0.52
47.06,-15.35,-14.83,-15.35,-14.83,6.00,6.12,5.76,-9.35,-9.35,-0.52
47.53,-15.24,-14.71,-15.24,-14.71,6.00,6.12,5.78,-9.24,-9.24,-0.53
48.01,-15.12,-14.60,-15.12,-14.60,6.00,6.13,5.80,-9.12,-9.12,-0.52
48.49,-15.01,-14.48,-15.01,-14.48,6.00,6.13,5.82,-9.01,-9.01,-0.53
48.97,-14.91,-14.37,-14.91,-14.36,6.00,6.14,5.85,-8.91,-8.91,-0.54
49.46,-14.80,-14.25,-14.80,-14.25,6.00,6.14,5.88,-8.80,-8.80,-0.56
49.96,-14.69,-14.13,-14.69,-14.14,6.00,6.14,5.91,-8.69,-8.69,-0.56
50.46,-14.58,-14.03,-14.58,-14.03,6.00,6.15,5.95,-8.58,-8.58,-0.55
50.96,-14.47,-13.93,-14.47,-13.93,6.00,6.15,5.99,-8.47,-8.47,-0.54
51.47,-14.37,-13.82,-14.37,-13.83,6.00,6.15,6.03,-8.37,-8.37,-0.55
51.99,-14.26,-13.72,-14.26,-13.72,6.00,6.16,6.07,-8.26,-8.26,-0.54
52.51,-14.15,-13.62,-14.15,-13.62,6.00,6.16,6.11,-8.15,-8.15,-0.53
53.03,-14.04,-13.51,-14.04,-13.51,6.00,6.16,6.16,-8.04,-8.04,-0.53
53.56,-13.94,-13.41,-13.94,-13.41,6.00,6.17,6.21,-7.94,-7.94,-0.53
54.10,-13.83,-13.30,-13.83,-13.30,6.00,6.17,6.25,-7.83,-7.83,-0.53
54.64,-13.73,-13.19,-13.73,-13.19,6.00,6.17,6.30,-7.73,-7.73,-0.54
55.18,-13.63,-13.09,-13.63,-13.09,6.00,6.18,6.34,-7.63,-7.63,-0.54
55.74,-13.53,-12.98,-13.53,-12.98,6.00,6.18,6.39,-7.53,-7.53,-0.55
56.29,-13.43,-12.88,-13.43,-12.87,6.00,6.18,6.43,-7.43,-7.43,-0.55
56.86,-13.33,-12.77,-13.33,-12.77,6.00,6.18,6.47,-7.33,-7.33,-0.57
57.42,-13.24,-12.66,-13.24,-12.66,6.00,6.19,6.51,-7.24,-7.24,-0.58
58.00,-13.14,-12.56,-13.14,-12.56,6.00,6.19,6.54,-7.14,-7.14,-0.58
58.58,-13.04,-12.45,-13.04,-12.46,6.00,6.19,6.57,-7.04,-7.04,-0.59
59.16,-12.95,-12.35,-12.95,-12.35,6.00,6.19,6.60,-6.95,-6.95,-0.60
59.76,-12.87,-12.26,-12.87,-12.26,6.00,6.19,6.62,-6.87,-6.87,-0.61
60.35,-12.79,-12.16,-12.79,-12.17,6.00,6.19,6.64,-6.79,-6.79,-0.63
60.96,-12.72,-12.08,-12.72,-12.07,6.00,6.20,6.65,-6.72,-6.72,-0.64
61.57,-12.64,-11.97,-12.64,-11.97,6.00,6.20,6.66,-6.64,-6.64,-0.67
62.18,-12.56,-11.86,-12.57,-11.87,6.00,6.20,6.66,-6.56,-6.57,-0.70
62.80,-12.49,-11.79,-12.49,-11.78,6.00,6.20,6.65,-6.49,-6.49,-0.70
63.43,-12.43,-11.70,-12.43,-11.70,6.00,6.20,6.64,-6.43,-6.43,-0.73
64.07,-12.36,-11.62,-12.36,-11.62,6.00,6.20,6.62,-6.36,-6.36,-0.74
64.71,-12.30,-11.56,-12.30,-11.55,6.00,6.20,6.60,-6.30,-6.30,-0.75
65.35,-12.24,-11.49,-12.24,-11.49,6.00,6.20,6.57,-6.24,-6.24,-0.75
66.01,-12.19,-11.44,-12.19,-11.43,6.00,6.20,6.54,-6.19,-6.19,-0.75
66.67,-12.13,-11.38,-12.13,-11.38,6.00,6.20,6.50,-6.13,-6.13,-0.75
67.33,-12.08,-11.33,-12.08,-11.33,6.00,6.20,6.46,-6.08,-6.08,-0.75
68.01,-12.03,-11.28,-12.03,-11.28,6.00,6.19,6.41,-6.03,-6.03,-0.75
68.69,-11.99,-11.24,-11.99,-11.24,6.00,6.19,6.36,-5.99,-5.99,-0.75
69.37,-11.95,-11.21,-11.95,-11.20,6.00,6.19,6.31,-5.95,-5.95,-0.74
70.07,-11.91,-11.17,-11.91,-11.17,6.00,6.19,6.25,-5.91,-5.91,-0.74
70.77,-11.86,-11.13,-11.86,-11.13,6.00,6.19,6.20,-5.86,-5.86,-0.73
71.48,-11.82,-11.09,-11.82,-11.09,6.00,6.18,6.14,-5.82,-5.82,-0.73
72.19,-11.78,-11.05,-11.78,-11.05,6.00,6.18,6.08,-5.78,-5.78,-0.73
72.91,-11.74,-11.01,-11.74,-11.00,6.00,6.18,6.02,-5.74,-5.74,-0.73
73.64,-11.68,-10.95,-11.69,-10.96,6.00,6.17,5.96,-5.68,-5.69,-0.73
74.38,-11.64,-10.91,-11.64,-10.91,6.00,6.17,5.90,-5.64,-5.64,-0.73
75.12,-11.59,-10.86,-11.59,-10.86,6.00,6.17,5.85,-5.59,-5.59,-0.73
75.87,-11.53,-10.80,-11.53,-10.80,6.00,6.16,5.79,-5.53,-5.53,-0.73
76.63,-11.47,-10.74,-11.47,-10.74,6.00,6.16,5.74,-5.47,-5.47,-0.73
77.40,-11.41,-10.68,-11.41,-10.67,6.00,6.15,5.68,-5.41,-5.41,-0.74
78.17,-11.34,-10.60,-11.34,-10.61,6.00,6.15,5.63,-5.34,-5.34,-0.74
78.95,-11.27,-10.55,-11.28,-10.55,6.00,6.14,5.59,-5.27,-5.28,-0.72
79.74,-11.21,-10.49,-11.21,-10.48,6.00,6.14,5.54,-5.21,-5.21,-0.72
80.54,-11.14,-10.42,-11.13,-10.42,6.00,6.13,5.50,-5.14,-5.13,-0.72
81.35,-11.05,-10.34,-11.05,-10.34,6.00,6.12,5.46,-5.05,-5.05,-0.71
82.16,-10.96,-10.26,-10.96,-10.26,6.00,6.12,5.43,-4.96,-4.96,-0.70
82.98,-10.87,-10.18,-10.87,-10.18,6.00,6.11,5.39,-4.87,-4.87,-0.69
83.81,-10.78,-10.10,-10.78,-10.10,6.00,6.10,5.37,-4.78,-4.78,-0.68
84.65,-10.68,-10.01,-10.68,-10.02,6.00,6.09,5.34,-4.68,-4.68,-0.67
85.50,-10.58,-9.94,-10.58,-9.93,6.00,6.09,5.32,-4.58,-4.58,-0.65
86.35,-10.46,-9.83,-10.46,-9.83,6.00,6.08,5.30,-4.46,-4.46,-0.63
87.22,-10.34,-9.72,-10.34,-9.73,6.00,6.07,5.29,-4.34,-4.34,-0.62
88.09,-10.23,-9.62,-10.23,-9.62,6.00,6.06,5.28,-4.23,-4.23,-0.61
88.97,-10.11,-9.52,-10.12,-9.52,6.00,6.05,5.28,-4.11,-4.12,-0.59
89.86,-10.01,-9.42,-10.01,-9.42,6.00,6.04,5.28,-4.01,-4.01,-0.59
90.76,-9.90,-9.31,-9.90,-9.31,6.00,6.03,5.28,-3.90,-3.90,-0.60
91.66,-9.79,-9.20,-9.79,-9.20,6.00,6.02,5.29,-3.79,-3.79,-0.59
92.58,-9.69,-9.08,-9.69,-9.08,6.00,6.01,5.30,-3.69,-3.69,-0.61
93.51,-9.58,-8.97,-9.58,-8.97,6.00,6.00,5.32,-3.58,-3.58,-0.61
94.44,-9.48,-8.86,-9.48,-8.86,6.00,5.98,5.34,-3.48,-3.48,-0.62
95.39,-9.38,-8.74,-9.38,-8.74,6.00,5.97,5.36,-3.38,-3.38,-0.64
96.34,-9.29,-8.62,-9.29,-8.62,6.00,5.96,5.38,-3.29,-3.29,-0.67
97.30,-9.19,-8.48,-9.19,-8.49,6.00,5.95,5.41,-3.19,-3.19,-0.71
98.28,-9.09,-8.35,-9.09,-8.35,6.00,5.93,5.44,-3.09,-3.09,-0.74
99.26,-8.99,-8.22,-8.99,-8.22,6.00,5.92,5.48,-2.99,-2.99,-0.78
100.25,-8.90,-8.09,-8.90,-8.09,6.00,5.90,5.52,-2.90,-2.90,-0.81
101.25,-8.82,-7.97,-8.82,-7.96,6.00,5.89,5.55,-2.82,-2.82,-0.85
102.27,-8.74,-7.85,-8.75,-7.86,6.00,5.87,5.60,-2.74,-2.75,-0.89
103.29,-8.69,-7.75,-8.69,-7.75,6.00,5.85,5.64,-2.69,-2.69,-0.94
104.32,-8.63,-7.66,-8.62,-7.64,6.00,5.83,5.68,-2.63,-2.62,-0.97
105.37,-8.53,-7.51,-8.54,-7.52,6.00,5.81,5.73,-2.53,-2.54,-1.02
106.42,-8.46,-7.40,-8.45,-7.39,6.00,5.79,5.77,-2.46,-2.45,-1.06
107.48,-8.36,-7.26,-8.36,-7.26,6.00,5.77,5.82,-2.36,-2.36,-1.10
108.56,-8.27,-7.13,-8.27,-7.13,6.00,5.75,5.86,-2.27,-2.27,-1.14
109.64,-8.18,-7.00,-8.18,-7.01,6.00,5.73,5.91,-2.18,-2.18,-1.18
110.74,-8.10,-6.89,-8.10,-6.89,6.00,5.71,5.95,-2.10,-2.10,-1.21
111.85,-8.02,-6.78,-8.02,-6.78,6.00,5.68,5.99,-2.02,-2.02,-1.24
112.97,-7.95,-6.67,-7.94,-6.66,6.00,5.66,6.02,-1.95,-1.94,-1.29
114.10,-7.86,-6.56,-7.87,-6.56,6.00,5.63,6.06,-1.86,-1.86,-1.30
115.24,-7.79,-6.45,-7.81,-6.47,6.01,5.60,6.08,-1.78,-1.80,-1.34
116.39,-7.76,-6.39,-7.75,-6.38,6.01,5.57,6.11,-1.75,-1.74,-1.37
117.55,-7.71,-6.32,-7.70,-6.30,6.01,5.54,6.13,-1.70,-1.68,-1.39
118.73,-7.62,-6.21,-7.62,-6.21,6.01,5.51,6.14,-1.61,-1.61,-1.42
119.92,-7.54,-6.12,-7.54,-6.12,5.99,5.48,6.15,-1.55,-1.55,-1.42
121.12,-7.46,-6.02,-7.48,-6.04,5.97,5.45,6.15,-1.49,-1.51,-1.44
122.33,-7.43,-5.98,-7.42,-5.97,5.93,5.41,6.14,-1.50,-1.49,-1.46
123.55,-7.38,-5.92,-7.36,-5.90,5.89,5.37,6.13,-1.50,-1.48,-1.46
124.79,-7.29,-5.81,-7.29,-5.82,5.82,5.33,6.11,-1.47,-1.47,-1.48
126.03,-7.20,-5.72,-7.22,-5.74,5.75,5.29,6.08,-1.45,-1.47,-1.48
127.29,-7.16,-5.66,-7.16,-5.66,5.67,5.25,6.04,-1.49,-1.49,-1.50
128.57,-7.11,-5.59,-7.09,-5.58,5.58,5.21,6.00,-1.53,-1.51,-1.52
129.85,-7.02,-5.50,-7.02,-5.49,5.49,5.16,5.95,-1.53,-1.53,-1.52
131.15,-6.92,-5.38,-6.94,-5.40,5.40,5.12,5.89,-1.52,-1.54,-1.54
132.46,-6.87,-5.31,-6.86,-5.31,5.32,5.07,5.83,-1.56,-1.54,-1.56
133.79,-6.79,-5.23,-6.79,-5.22,5.23,5.02,5.76,-1.56,-1.56,-1.56
135.12,-6.72,-5.14,-6.73,-5.15,5.15,4.97,5.68,-1.57,-1.58,-1.58
136.48,-6.67,-5.08,-6.66,-5.07,5.07,4.92,5.60,-1.60,-1.60,-1.59
137.84,-6.60,-4.99,-6.61,-4.99,4.99,4.86,5.51,-1.61,-1.62,-1.61
139.22,-6.55,-4.91,-6.55,-4.91,4.91,4.81,5.42,-1.64,-1.64,-1.64
140.61,-6.50,-4.84,-6.49,-4.84,4.84,4.75,5.33,-1.66,-1.66,-1.66
142.02,-6.43,-4.76,-6.44,-4.76,4.77,4.69,5.23,-1.66,-1.67,-1.67
143.44,-6.39,-4.70,-6.38,-4.69,4.70,4.63,5.13,-1.70,-1.69,-1.69
144.87,-6.33,-4.61,-6.33,-4.62,4.62,4.57,5.03,-1.71,-1.71,-1.72
146.32,-6.29,-4.55,-6.29,-4.56,4.55,4.51,4.93,-1.74,-1.74,-1.74
147.78,-6.25,-4.49,-6.25,-4.48,4.48,4.44,4.82,-1.77,-1.77,-1.76
149.26,-6.21,-4.43,-6.20,-4.41,4.41,4.38,4.72,-1.80,-1.80,-1.79
150.75,-6.14,-4.32,-6.15,-4.33,4.33,4.31,4.61,-1.81,-1.82,-1.82
152.26,-6.10,-4.26,-6.09,-4.25,4.26,4.24,4.51,-1.84,-1.84,-1.84
153.78,-6.03,-4.16,-6.04,-4.17,4.18,4.18,4.40,-1.86,-1.87,-1.87
155.32,-6.00,-4.10,-6.00,-4.10,4.09,4.10,4.30,-1.91,-1.91,-1.90
156.88,-5.95,-4.03,-5.95,-4.02,4.01,4.03,4.19,-1.94,-1.94,-1.92
158.44,-5.90,-3.93,-5.90,-3.93,3.93,3.96,4.09,-1.98,-1.97,-1.97
160.03,-5.83,-3.83,-5.84,-3.84,3.84,3.89,3.99,-1.99,-2.00,-2.00
161.63,-5.78,-3.74,-5.78,-3.75,3.76,3.81,3.89,-2.02,-2.02,-2.04
163.24,-5.74,-3.67,-5.73,-3.66,3.68,3.74,3.79,-2.06,-2.06,-2.07
164.88,-5.68,-3.58,-5.69,-3.59,3.59,3.66,3.70,-2.09,-2.10,-2.10
166.53,-5.64,-3.51,-5.64,-3.52,3.50,3.58,3.60,-2.14,-2.14,-2.13
168.19,-5.60,-3.44,-5.59,-3.43,3.42,3.51,3.51,-2.18,-2.17,-2.16
169.87,-5.53,-3.35,-5.53,-3.35,3.34,3.43,3.42,-2.19,-2.20,-2.18
171.57,-5.46,-3.25,-5.47,-3.26,3.26,3.35,3.34,-2.20,-2.21,-2.21
173.29,-5.41,-3.17,-5.40,-3.16,3.18,3.27,3.25,-2.23,-2.23,-2.24
175.02,-5.34,-3.07,-5.35,-3.08,3.10,3.19,3.17,-2.25,-2.25,-2.27
176.77,-5.30,-3.01,-5.30,-3.01,3.01,3.12,3.09,-2.29,-2.29,-2.29
178.54,-5.26,-2.94,-5.26,-2.94,2.93,3.04,3.01,-2.33,-2.32,-2.32
180.32,-5.21,-2.88,-5.21,-2.87,2.86,2.96,2.94,-2.35,-2.35,-2.33
182.13,-5.15,-2.80,-5.14,-2.79,2.78,2.89,2.86,-2.37,-2.36,-2.35
183.95,-5.06,-2.70,-5.07,-2.71,2.71,2.82,2.79,-2.35,-2.36,-2.36
185.79,-5.01,-2.64,-5.01,-2.64,2.65,2.75,2.72,-2.36,-2.36,-2.38
187.65,-4.96,-2.57,-4.96,-2.57,2.59,2.68,2.66,-2.38,-2.37,-2.39
189.52,-4.92,-2.53,-4.92,-2.52,2.53,2.62,2.59,-2.39,-2.39,-2.39
191.42,-4.87,-2.47,-4.87,-2.47,2.47,2.55,2.53,-2.40,-2.40,-2.40
193.33,-4.83,-2.42,-4.83,-2.43,2.43,2.50,2.47,-2.40,-2.40,-2.41
195.27,-4.80,-2.39,-4.80,-2.39,2.39,2.44,2.41,-2.41,-2.41,-2.41
197.22,-4.77,-2.35,-4.77,-2.35,2.35,2.39,2.35,-2.42,-2.42,-2.42
199.19,-4.75,-2.31,-4.75,-2.32,2.31,2.34,2.30,-2.44,-2.44,-2.44
201.18,-4.72,-2.28,-4.72,-2.28,2.27,2.30,2.25,-2.45,-2.45,-2.44
203.19,-4.69,-2.25,-4.69,-2.24,2.23,2.26,2.20,-2.46,-2.45,-2.44
205.23,-4.65,-2.20,-4.65,-2.20,2.19,2.22,2.15,-2.46,-2.45,-2.45
207.28,-4.60,-2.15,-4.61,-2.15,2.16,2.18,2.10,-2.45,-2.45,-2.45
209.35,-4.57,-2.11,-4.57,-2.11,2.11,2.15,2.05,-2.46,-2.46,-2.46
211.44,-4.54,-2.06,-4.54,-2.07,2.07,2.12,2.01,-2.47,-2.46,-2.48
213.56,-4.51,-2.03,-4.51,-2.03,2.03,2.09,1.97,-2.48,-2.48,-2.48
215.69,-4.48,-2.01,-4.48,-2.00,1.99,2.05,1.92,-2.49,-2.49,-2.48
217.85,-4.45,-1.96,-4.45,-1.96,1.96,2.02,1.89,-2.49,-2.50,-2.49
220.03,-4.43,-1.93,-4.43,-1.93,1.92,1.99,1.85,-2.51,-2.51,-2.50
222.23,-4.40,-1.88,-4.40,-1.89,1.89,1.96,1.81,-2.51,-2.51,-2.52
224.45,-4.38,-1.87,-4.38,-1.86,1.86,1.93,1.77,-2.52,-2.51,-2.52
226.70,-4.35,-1.83,-4.35,-1.83,1.84,1.91,1.74,-2.51,-2.52,-2.52
228.96,-4.34,-1.81,-4.34,-1.81,1.82,1.88,1.70,-2.53,-2.53,-2.53
231.25,-4.33,-1.80,-4.33,-1.80,1.80,1.85,1.67,-2.53,-2.54,-2.54
233.57,-4.34,-1.79,-4.34,-1.79,1.78,1.82,1.64,-2.56,-2.56,-2.55
235.90,-4.34,-1.77,-4.34,-1.78,1.77,1.79,1.61,-2.57,-2.57,-2.57
238.26,-4.35,-1.77,-4.35,-1.76,1.76,1.77,1.58,-2.59,-2.58,-2.58
240.64,-4.35,-1.75,-4.35,-1.75,1.76,1.74,1.55,-2.59,-2.59,-2.60
243.05,-4.35,-1.75,-4.36,-1.75,1.76,1.71,1.52,-2.59,-2.60,-2.60
245.48,-4.36,-1.75,-4.37,-1.75,1.76,1.69,1.49,-2.61,-2.61,-2.61
247.93,-4.38,-1.77,-4.37,-1.76,1.75,1.66,1.46,-2.63,-2.62,-2.61
250.41,-4.38,-1.75,-4.38,-1.76,1.75,1.63,1.43,-2.63,-2.62,-2.63
252.92,-4.37,-1.76,-4.37,-1.76,1.75,1.61,1.41,-2.62,-2.62,-2.61
255.45,-4.36,-1.75,-4.36,-1.75,1.75,1.58,1.38,-2.61,-2.61,-2.61
258.00,-4.35,-1.75,-4.35,-1.75,1.75,1.56,1.36,-2.60,-2.60,-2.60
260.58,-4.33,-1.73,-4.34,-1.74,1.74,1.54,1.33,-2.59,-2.60,-2.60
263.19,-4.32,-1.74,-4.31,-1.73,1.72,1.51,1.31,-2.60,-2.59,-2.58
265.82,-4.28,-1.71,-4.28,-1.71,1.71,1.49,1.29,-2.57,-2.58,-2.57
268.48,-4.24,-1.69,-4.24,-1.69,1.69,1.47,1.26,-2.55,-2.55,-2.55
271.16,-4.19,-1.66,-4.19,-1.66,1.66,1.45,1.24,-2.53,-2.53,-2.53
273.87,-4.13,-1.62,-4.14,-1.63,1.63,1.43,1.22,-2.50,-2.51,-2.51
276.61,-4.09,-1.60,-4.09,-1.59,1.59,1.41,1.20,-2.50,-2.50,-2.49
279.38,-4.04,-1.56,-4.04,-1.56,1.56,1.39,1.18,-2.48,-2.49,-2.48
282.17,-3.99,-1.53,-3.99,-1.52,1.52,1.37,1.16,-2.47,-2.47,-2.46
284.99,-3.93,-1.48,-3.92,-1.48,1.48,1.35,1.14,-2.45,-2.44,-2.45
287.84,-3.85,-1.42,-3.86,-1.43,1.44,1.33,1.12,-2.41,-2.42,-2.43
290.72,-3.80,-1.40,-3.80,-1.39,1.41,1.31,1.10,-2.40,-2.40,-2.40
293.63,-3.75,-1.36,-3.75,-1.36,1.37,1.30,1.08,-2.38,-2.39,-2.40
296.57,-3.71,-1.34,-3.71,-1.34,1.33,1.28,1.07,-2.38,-2.38,-2.37
299.53,-3.66,-1.31,-3.66,-1.30,1.29,1.27,1.05,-2.37,-2.36,-2.35
302.53,-3.60,-1.26,-3.60,-1.27,1.26,1.25,1.03,-2.34,-2.34,-2.34
305.55,-3.53,-1.23,-3.53,-1.22,1.22,1.24,1.02,-2.31,-2.31,-2.30
308.61,-3.47,-1.18,-3.47,-1.18,1.19,1.22,1.01,-2.28,-2.28,-2.29
311.69,-3.40,-1.14,-3.41,-1.15,1.16,1.21,0.99,-2.24,-2.25,-2.26
314.81,-3.35,-1.13,-3.35,-1.13,1.12,1.20,0.98,-2.23,-2.23,-2.22
317.96,-3.31,-1.11,-3.30,-1.10,1.09,1.19,0.97,-2.22,-2.21,-2.20
321.14,-3.25,-1.07,-3.25,-1.07,1.07,1.17,0.95,-2.18,-2.18,-2.18
324.35,-3.20,-1.03,-3.20,-1.04,1.05,1.16,0.94,-2.15,-2.16,-2.17
327.59,-3.16,-1.02,-3.16,-1.02,1.03,1.15,0.93,-2.13,-2.13,-2.14
330.87,-3.13,-1.01,-3.13,-1.01,1.02,1.14,0.92,-2.11,-2.11,-2.12
334.18,-3.10,-1.01,-3.10,-1.00,1.00,1.13,0.91,-2.10,-2.09,-2.09
337.52,-3.06,-0.99,-3.07,-1.00,0.99,1.12,0.91,-2.07,-2.07,-2.07
340.90,-3.04,-1.00,-3.04,-0.99,0.99,1.11,0.90,-2.05,-2.05,-2.04
344.30,-3.01,-1.00,-3.01,-0.99,0.98,1.10,0.89,-2.03,-2.02,-2.02
347.75,-2.97,-0.97,-2.98,-0.98,0.98,1.09,0.88,-1.99,-1.99,-2.00
351.23,-2.94,-0.97,-2.94,-0.98,0.98,1.08,0.88,-1.96,-1.96,-1.97
354.74,-2.92,-0.98,-2.92,-0.97,0.98,1.07,0.87,-1.94,-1.94,-1.94
358.28,-2.89,-0.97,-2.89,-0.98,0.98,1.05,0.87,-1.91,-1.92,-1.92
361.87,-2.87,-0.98,-2.87,-0.98,0.97,1.04,0.87,-1.90,-1.90,-1.89
365.49,-2.84,-0.98,-2.84,-0.98,0.97,1.03,0.86,-1.87,-1.87,-1.86
369.14,-2.82,-0.97,-2.82,-0.97,0.97,1.02,0.86,-1.85,-1.85,-1.85
372.83,-2.79,-0.97,-2.79,-0.96,0.96,1.00,0.86,-1.83,-1.82,-1.82
376.56,-2.75,-0.95,-2.76,-0.96,0.96,0.99,0.86,-1.79,-1.80,-1.81
380.33,-2.73,-0.96,-2.73,-0.95,0.95,0.98,0.86,-1.78,-1.78,-1.77
384.13,-2.70,-0.94,-2.70,-0.94,0.94,0.96,0.86,-1.76,-1.75,-1.76
387.97,-2.67,-0.93,-2.67,-0.93,0.93,0.94,0.86,-1.74,-1.74,-1.74
391.85,-2.64,-0.91,-2.64,-0.92,0.92,0.93,0.86,-1.72,-1.72,-1.73
395.77,-2.62,-0.92,-2.62,-0.91,0.91,0.91,0.86,-1.71,-1.71,-1.70
