frequency,raw,error,smoothed,error_smoothed,equalization,equalized_raw,equalized_smoothed,target
20,-9.698690748403038,-13.81931149901095,-9.691031978751058,-13.811670973929319,5.999999999999999,-3.698690748403039,-3.6910319787510586,4.120620750607913
21,-9.164313081460422,-13.316548226169754,-9.13129424414991,-13.283518764663523,6.0,-3.1643130814604223,-3.1312942441499096,4.152235144709332
22,-8.599916303674869,-12.780364783698364,-8.597075570976376,-12.777501989337495,5.999999999999999,-2.5999163036748696,-2.5970755709763766,4.180448480023496
23,-8.008010460547151,-12.213269810868688,-8.088375959230456,-12.293620647951233,6.0,-2.008010460547151,-2.088375959230456,4.205259350321538
24,-7.5742942301830976,-11.800960326637334,-7.605195408912143,-11.831874740504723,5.999999999999997,-1.5742942301831002,-1.605195408912146,4.2266660964542355
25,-7.0714206669646975,-11.316087441870495,-7.15003611544205,-11.394774816176422,6.0,-1.0714206669646975,-1.1500361154420498,4.244666774905798
26,-6.773513408004639,-11.0327725320549,-6.719767124756414,-10.979185530997874,6.000000000000001,-0.7735134080046384,-0.7197671247564132,4.259259124050261
27,-6.311433897758195,-10.581943371468736,-6.311693319979669,-10.582403417709148,5.999999999999999,-0.31143389775819585,-0.3116933199796703,4.270509473710542
28,-5.988948110330749,-10.267309750916697,-5.922368353335248,-10.200962654524204,6.000000000000001,0.01105188966925219,0.07763164666475308,4.278361640585948
29,-5.576230250532608,-9.85901694204432,-5.548210803137749,-9.831246824029119,6.000000000000002,0.423769749467394,0.4517891968622525,4.282786691511712
30,-5.1451714032457625,-9.428909091906558,-5.18709185632755,-9.471075310965317,6.0,0.8548285967542375,0.8129081436724501,4.2837376886607945
31,-4.871472418542785,-9.152619285417664,-4.8379809387945905,-9.119345965634508,5.999999999999999,1.128527581457214,1.1620190612054087,4.281146866874879
32,-4.4892429228776125,-8.764167204404078,-4.501059517820453,-8.776149050787065,6.0,1.5107570771223875,1.4989404821795471,4.274924281526465
33,-4.167792108707917,-8.432750729116112,-4.1772661549861505,-8.442314123371187,6.0,1.8322078912920832,1.8227338450138495,4.264958620408194
34,-3.886560346296215,-8.137692402231252,-3.8675731379494973,-8.118690442317565,5.999999999999998,2.113439653703783,2.132426862050501,4.251132055935038
35,-3.5513057244359474,-7.784620285694084,-3.572510208485112,-7.805676988292719,6.000000000000001,2.4486942755640535,2.4274897915148888,4.233314561258136
36,-3.2495815865049167,-7.460956704008241,-3.29181668770595,-7.502883027882188,5.999999999999998,2.7504184134950815,2.7081833122940484,4.211375117503325
37,-2.980721608755366,-7.165913813692188,-3.0244296804388515,-7.209127032801899,6.0,3.019278391244634,2.9755703195611485,4.185192204936822
38,-2.8403734143118435,-6.995039865451288,-2.768753598610674,-6.922719071376435,6.000000000000001,3.1596265856881574,3.2312464013893267,4.154666451139444
39,-2.5536317407918085,-6.6733668306375735,-2.5230602013370262,-6.641875598021382,6.000000000000001,3.4463682592081923,3.4769397986629746,4.119735089845765
40,-2.294121816390002,-6.374509578309466,-2.2859023095057753,-6.365149441104702,5.948367288089694,3.6542454716996917,3.6624649785839183,4.0803877619194635
41,-2.043232728148317,-6.079917640189381,-2.0563941999296804,-6.0917274001587085,5.840379984506567,3.7971472563582505,3.783985784576887,4.036684912041063
42,-1.8314660956140392,-5.820241523567626,-1.8342909238951304,-5.8215269265496445,5.680274613499097,3.8488085178850575,3.8459836896039663,3.9887754279535863
43,-1.5900988278827493,-5.527012713262136,-1.6198737405023895,-5.555098140987004,5.48675230063004,3.896653472747291,3.8668785601276507,3.9369138853793864
44,-1.4392367589136192,-5.3207128617309785,-1.4137037075432815,-5.293392164321231,5.271983584112923,3.8327468251993038,3.8582798765696413,3.881476102817359
45,-1.248056960620755,-5.071028801119825,-1.2163432894645114,-5.037494496092783,5.037494496092783,3.7894375354720284,3.8211512066282722,3.8229718404990702
46,-0.9862804349843459,-4.748333870108714,-1.0281371634187815,-4.788413502138056,4.788413502138056,3.8021330671537097,3.760276338719274,3.762053435124368
47,-0.8296271306597597,-4.529146319386766,-0.8491063921113733,-4.546977139256823,4.546977139256824,3.717350008597064,3.6978707471454504,3.699519188727006
48,-0.6773307971419579,-4.3136415304456035,-0.678961505808225,-4.313842570620395,4.313842570620394,3.636511773478436,3.634881064812169,3.6363107333036453
49,-0.5340643451968367,-4.107567886363464,-0.517198750036273,-4.0895822600605065,4.089582260060506,3.555517914863669,3.5723835100242325,3.573503541166627
50,-0.3851011802420583,-3.8973913346511386,-0.36322690986850875,-3.874793570255317,3.874793570255317,3.489692390013259,3.5115666603868085,3.5122901544090803
51,-0.232340206471198,-3.686296245074661,-0.21648043154562724,-3.6701875329529114,3.6701875329529114,3.4378473264817133,3.453707101407284,3.453956038603463
52,-0.03119078057190793,-3.4310391320503557,-0.07649903872597226,-3.476637304487557,3.4766373044875576,3.4454465239156495,3.4001382657615853,3.3998483514784477
53,0.03597205836138907,-3.315366257273917,0.05702186436900328,-3.295191299591282,3.295191299591281,3.3311633579526703,3.3522131639602843,3.351338315635306
54,0.1699586429166744,-3.1398196250673984,0.18419708860722545,-3.1270649977042786,3.1270649977042786,3.297023640620953,3.311262086311504,3.309778267984073
55,0.3711080637121187,-2.905346783150467,0.304930384652863,-2.9736163220002476,2.973616322000247,3.344724385712366,3.27854670665311,3.2764548468625856
56,0.3711080568726161,-2.8814320297409117,0.41891998757108384,-2.836292330113423,2.836292330113424,3.20740038698604,3.255212317684508,3.2525400866135277
57,0.473402352752007,-2.7656400810709463,0.5257133767591577,-2.716526778355261,2.7165267783552602,3.189929131107267,3.242240155114418,3.239042433822953
58,0.6728321904411362,-2.563927660181192,0.6248212397213142,-2.615580666051092,2.615580666051092,3.2884128564922284,3.2404019057724063,3.2367598506223283
59,0.6728322097233148,-2.5734050060553084,0.7158685922931718,-2.5343499380552608,2.5343499380552608,3.2071821477785756,3.2502185303484326,3.2462372157786232
60,0.8663907563729082,-2.4013394084791315,0.7987252549311148,-2.4732002021390125,2.4732002021390125,3.339590958511921,3.271925457070127,3.26773016485204
61,0.8739817538609346,-2.4271955689899305,0.8735436150260993,-2.4319024021572733,2.4319024021572733,3.305884156018208,3.305446017183373,3.301177322850865
62,0.974556547181665,-2.371626038515038,0.9406567989215214,-2.4097179030140943,2.4097179030140947,3.38427445019576,3.3503747019356163,3.346182585696703
63,0.9745565864280706,-2.4274521234550948,1.0003518853865967,-2.405619550329385,2.405619550329385,3.3801761367574557,3.4059714357159816,3.4020087098831655
64,0.974556502539813,-2.4930264896254806,1.0526052418486507,-2.4185623570747516,2.418562357074752,3.393118859614565,3.4711675989234028,3.4675829921652936
65,1.0751309087994056,-2.4663843779392836,1.0969123733494794,-2.447671646275504,2.4476716462755035,3.522802555074909,3.544584019624983,3.541515286738689
66,1.175705016797584,-2.4464230273305314,1.1323325535395898,-2.492228058870853,2.492228058870854,3.667933075668438,3.624560612410444,3.6221280441281154
67,1.1757041319463049,-2.531793362276903,1.157792938284051,-2.5514038658021105,2.5514038658021096,3.7271079977484147,3.7091968040861607,3.707497494223208
68,1.2247948636022319,-2.570709702532362,1.172584247932087,-2.62381712969286,2.6238171296928603,3.8486119932950924,3.7964013776249472,3.7955045661345936
69,1.1675810652820076,-2.7163126041442767,1.17688095509159,-2.707068962162808,2.7070689621628077,3.8746500274448152,3.8839499172543976,3.8838936694262842
70,1.1757031349354723,-2.7946339460421994,1.1720822138700928,-2.79746546122093,2.797465461220931,3.9731685961564036,3.969547675091024,3.970337080977672
71,1.1757057473226729,-2.8767966632654813,1.1608185661876183,-2.890076856287755,2.890076856287755,4.065782603610428,4.0508954224753735,4.052502410588154
72,1.1757112791431488,-2.9524091924251565,1.1465882014699407,-2.9791675063413976,2.979167506341397,4.154878785484546,4.125755707811338,4.128120471568305
73,1.1442753932241634,-3.050775474674619,1.1331261209744787,-3.0588908002217603,3.0588908002217603,4.203166193445924,4.192016921196239,4.195050867898782
74,1.0148116426113891,-3.23653108474769,1.1237099751419533,-3.1240426975082976,3.124042697508298,4.138854340119687,4.247752672650251,4.251342727359079
75,1.0751673135856008,-3.22012093933977,1.1206242072725403,-3.170650010840892,3.170650010840891,4.245817324426492,4.291274218113431,4.295288252925371
76,1.0829141266152953,-3.242552991562723,1.1249341398148562,-3.196239872206004,3.196239872206004,4.279153998821299,4.32117401202086,4.325467118178018
77,1.2562005615209288,-3.084579614220722,1.1365984514940202,-3.199760472431015,3.1997604724310156,4.455961033951945,4.336358923925036,4.340780175741651
78,1.1757130208135185,-3.164758434587481,1.1548271622464465,-3.1812450317387997,3.181245031738799,4.356958052552317,4.336072193985245,4.3404714554009995
79,1.175656444308521,-3.148481527538774,1.1785219957687545,-3.14138173505009,3.141381735050092,4.317038179358613,4.319903730818846,4.3241379718472945
80,1.1755669912515754,-3.116160419806581,1.2066378734630003,-3.081150900707067,3.0811509007070677,4.256717891958643,4.2877887741700675,4.291727411058156
81,1.1891955810382704,-3.0543287086770974,1.238365678885341,-3.001629541914199,3.001629541914199,4.19082512295247,4.23999522079954,4.243524289715368
82,1.2758913936516452,-2.9042342631474485,1.2731209568082202,-2.903979200380048,2.903979200380048,4.179870594031693,4.177100157188269,4.180125656799094
83,1.3733666286640456,-2.7290411788308737,1.3103920182337383,-2.7895645144552406,2.7895645144552406,4.162931143119286,4.099956532688979,4.102407807494919
84,1.2958462475499903,-2.7156395414206322,1.3495321168623071,-2.6601195627621403,2.660119562762141,3.955965810312131,4.009651679624448,4.011485788970623
85,1.3858552040803125,-2.5228124796182243,1.389575628285535,-2.517884980620999,2.517884980620999,3.9037401847013116,3.907460608906534,3.908667683698537
86,1.4772473962718746,-2.3181583573883415,1.429134143982004,-2.36566413654334,2.36566413654334,3.8429115328152146,3.794798280525344,3.795405753660216
87,1.477796925671332,-2.1954495937107943,1.4664028152045365,-2.2067726373487866,2.2067726373487875,3.684569563020119,3.6731754525533242,3.673246519382126
88,1.4183109778516814,-2.125470761003523,1.4992876850572159,-2.044873579004533,2.044873579004533,3.4631845568562145,3.5441612640617493,3.543781738855204
89,1.5213850237430542,-1.8872170320958515,1.5256483138406853,-1.8837037785551587,1.8837037785551587,3.405088802298213,3.409352092395844,3.4086020558389056
90,1.5818129889920585,-1.687441832882764,1.543628877343161,-1.726712542947768,1.7267125429477679,3.3085255319398263,3.270341420290929,3.2692548218748225
91,1.5833252517921383,-1.5438820296139573,1.5520232882179559,-1.5766583879174236,1.5766583879174234,3.1599836397095618,3.128681676135379,3.1272072814060956
92,1.5846941560971117,-1.3991218098725235,1.5505944165879209,-1.435234858540864,1.4352348585408636,3.0199290146379756,2.9858292751287845,2.9838159659696353
93,1.585582460877813,-1.2547203318044142,1.5402594112877197,-1.3028110542407219,1.3028110542407223,2.888393515118535,2.843070465528442,2.8403027926822273
94,1.522321267852653,-1.175416756089091,1.5230733970741381,-1.1783639493291411,1.1783639493291411,2.7006852171817943,2.7014373464032793,2.697738023941744
95,1.4232567493230488,-1.1337731872743748,1.5019906898155484,-1.0596455803424196,1.0596455803424198,2.4829023296654684,2.561636270157968,2.5570299365974236
96,1.4718496379022517,-0.9470711456216869,1.4804410262606265,-0.9435772025587619,0.9435772025587618,2.4154268404610133,2.424018228819388,2.4189207835239386
97,1.4747123816845544,-0.8092760365405853,1.4618076391643071,-0.8268092159094222,0.8268092159094221,2.3015215975939767,2.2886168550737294,2.2839884182251398
98,1.4663564860950098,-0.6862963130551343,1.4489175672682686,-0.7063447795970567,0.7063447795970568,2.1727012656920666,2.1552623468653254,2.152652799150144
99,1.4550016100867755,-0.5701848858597409,1.4436480692872458,-0.5801048099325594,0.5801048099325593,2.0351064200193347,2.023752879219805,2.0251864959465165
100,1.417308821827284,-0.4844194603245915,1.4467228238940482,-0.4473159008446854,0.4473159008446854,1.8646247226719694,1.8940387247387336,1.9017282821518755
101,1.3627767961383457,-0.4195221156849951,1.4577296686838106,-0.3086305436035688,0.3086305436035689,1.6714073397419145,1.7663602122873794,1.7822989118233408
102,1.4519160983748494,-0.2149021344594404,1.475347713226089,-0.16593947809771556,0.1659394780977156,1.6178555764725648,1.6412871913238045,1.6668182328342898
104,1.6422114720067478,0.14905322021500278,1.4977304828089215,-0.02190477256293377,0.02190477256293375,1.6641162445696815,1.5196352553718553,1.493158251791745
105,1.5410133897199711,0.15607501949144842,1.522956538047165,0.1206822947988998,-0.12068229479889979,1.4203310949210715,1.4022742432482653,1.3849383702285227
106,1.4732052193188203,0.19308545971241764,1.5494367663889892,0.2595536783961713,-0.2595536783961713,1.213651540922649,1.289883087992818,1.2801197596064027
107,1.5358355965625776,0.35744596190990796,1.5761699513198182,0.39344296212068963,-0.3934429621206897,1.142392634441888,1.1827269891991286,1.1783896346526697
108,1.637983102234874,0.5585666489216563,1.6027762025161865,0.522247296438201,-0.522247296438201,1.115735805796673,1.0805289060779855,1.0794164533132178
109,1.7257533109450798,0.7428901489299033,1.6293089122149973,0.6468305671479945,-0.6468305671479947,1.0789227437970852,0.9824783450670026,0.9828631620151764
110,1.6755555315745858,0.7871567000745854,1.6559298247556247,0.7685530378006282,-0.7685530378006281,0.9070024937739577,0.8873767869549966,0.8883988315000004
111,1.5701082047988189,0.774399568196682,1.682593260313989,0.8887167371358298,-0.8887167371358298,0.6813914676629891,0.7938765231781593,0.7957086366021369
112,1.6581558103946212,0.9536536291903022,1.7088894677951627,1.0081467123269257,-1.008146712326926,0.6500090980676951,0.7007427554682366,0.7045021812043191
113,1.7096632670402143,1.0951430657865706,1.7341301971067784,1.127064053154133,-1.1270640531541327,0.5825992138860816,0.6070661439526457,0.6145202012536437
114,1.8395494388549132,1.314009741536033,1.7576437686715347,1.24526963767075,-1.2452696376707502,0.594279801184163,0.5123741310007845,0.5255396973188802
115,1.8561542324542335,1.4187766748697765,1.7791347152769834,1.3625094237308728,-1.362509423730873,0.4936448087233605,0.4166252915461104,0.43737755758445696
117,1.803974536549348,1.508794516146701,1.7989137337564354,1.4788057866734414,-1.478805786673441,0.32516874987590705,0.3201079470829944,0.2951800204026471
118,1.8074336672100837,1.598034716100654,1.8178499021496657,1.5945604036976984,-1.5945604036976977,0.212873263512386,0.223289498451968,0.20939895110942963
119,1.8127894051724671,1.6886014032453183,1.8370257853569818,1.7103565862043018,-1.7103565862043018,0.10243281896816536,0.12666919915268005,0.12418800192714885
120,1.819467831692564,1.7799427446106253,1.8572279916045846,1.826553249888137,-1.826553249888137,-0.007085418195572846,0.030674741716447684,0.0395250870819388
121,1.826932715713204,1.8715065731471638,1.878503457061141,1.9428844778661618,-1.942884477866162,-0.115951762152958,-0.06438102080502106,-0.04457385743395981
123,1.8347246128769183,2.0101816679477933,1.9000007207985936,2.05829255243549,-2.05829255243549,-0.22356793955857168,-0.15829183163689642,-0.17545705507087472
124,1.9792437284707245,2.236185436079986,1.920194759133135,2.1711175355162045,-2.171117535516204,-0.19187380704547952,-0.25092277638306903,-0.2569417076092615
125,2.0310051816592973,2.368624535286981,1.9374192533608676,2.279593838702326,-2.2795938387023256,-0.24858865704302824,-0.34217458534145795,-0.3376193536276837
126,1.9984774600407482,2.4158502883328117,1.9504868015942363,2.382450956274573,-2.382450956274572,-0.3839734962338237,-0.43196415468033567,-0.4173728282920637
128,1.9551988362538133,2.4920948785796098,1.9591359723404782,2.479359024594761,-2.479359024594762,-0.5241601883409486,-0.5202230522542837,-0.5368960423257965
129,1.948399467190856,2.56149967392461,1.9641242205225,2.571027954672264,-2.5710279546722643,-0.6226284874814083,-0.6069037341497643,-0.6131002067337539
130,1.895503727417368,2.583493766217922,1.9669452127252556,2.6589248135932535,-2.658924813593254,-0.7634210861758859,-0.6919796008679984,-0.6879900388005535
131,1.9441449802236968,2.7055820682604104,1.9693079185899198,2.7447387015517615,-2.744738701551762,-0.8005937213280652,-0.7754307829618421,-0.7614370880367138
133,1.9859772357341536,2.8537514996993414,1.972598627105873,2.8298169881810606,-2.829816988181061,-0.8438397524469075,-0.857218361075188,-0.8677742639651878
134,1.9903145106936937,2.9270920301186374,1.977524386809596,2.9147832407710474,-2.9147832407710474,-0.9244687300773538,-0.9372588539614515,-0.9367775194249435
135,1.9941478581199337,2.99819683750676,1.9840306585193808,2.9994436389607095,-2.9994436389607104,-1.0052957808407768,-1.0154129804413297,-1.0040489793868261
137,1.997415679300448,3.0966837547494293,1.991459355379145,3.0829562454379067,-3.0829562454379063,-1.0855405661374582,-1.0914968900587612,-1.0992680754489812
138,2.0000613600377326,3.1618393919757537,1.9988296794158538,3.164143336614525,-3.1641433366145253,-1.1640819765767927,-1.1653136571986715,-1.161778031938021
140,2.002051448831456,3.2510012793122214,2.0051142116784093,3.241807234209621,-3.241807234209621,-1.2397557853781653,-1.2366930225312118,-1.2489498304807656
141,2.003390548190738,3.310100270036779,2.009431508063934,3.3149547210215022,-3.314954721021503,-1.311564172830765,-1.3055232129575693,-1.3067097218460408
142,2.00412982141997,3.366748475764649,2.0111402068877826,3.3829025390761687,-3.3829025390761696,-1.3787727176561995,-1.371762332188387,-1.3626186543446788
144,2.0043674970567644,3.4436908720841624,2.009857401390172,3.4452836199605876,-3.4452836199605876,-1.4409161229038232,-1.4354262185704156,-1.4393233750273977
145,2.0042412768521443,3.4948950814417867,2.0054223357167675,3.5019822667951237,-3.5019822667951237,-1.4977409899429794,-1.4965599310783562,-1.4906538045896425
147,2.003913795175708,3.564156949566557,1.99780397372721,3.5530102074813033,-3.553010207481302,-1.5490964123055941,-1.555206233754092,-1.5602431543908493
148,2.0035530816087435,3.6107304460322207,1.9869434789748948,3.5983276335027514,-3.5983276335027505,-1.594774551894007,-1.6113841545278558,-1.6071773644234773
150,2.0033103713574505,3.6733943086519774,1.9725534245109175,3.6376381613875015,-3.637638161387502,-1.6343277900300515,-1.6650847368765844,-1.6700839372945269
151,2.0032977381425603,3.7160495756848757,1.9539533835151803,3.6702358282589755,-3.670235828258976,-1.6669380901164157,-1.7162824447437957,-1.7127518375423154
153,1.8054242001652467,3.5747364058040745,1.9300638994677608,3.695017548472676,-3.695017548472676,-1.8895933483074294,-1.7649536490049154,-1.769312205638828
154,1.811356580898421,3.619097193754821,1.8996618178941773,3.710753186092025,-3.7107531860920253,-1.8993966051936042,-1.811091368197848,-1.8077406128564002
156,1.9042139412164512,3.7623706384922615,1.861903802156525,3.716612288793778,-3.716612288793779,-1.812398347577328,-1.854708486637254,-1.8581566972758106
157,1.9605994849763408,3.852852582675916,1.8169827345463938,3.712810760789094,-3.7128107607890932,-1.7522112758127524,-1.8958280262426994,-1.8922530976995748
159,1.8691205770473898,3.805715421724366,1.7666620659144225,3.701127541854377,-3.701127541854377,-1.8320069648069872,-1.9344654759399544,-1.9365948446769763
160,1.6981896050710703,3.664362908130167,1.7144102062169773,3.685022094122062,-3.6850220941220613,-1.986832489050991,-1.970611887905084,-1.9661733030590969
