frequency,raw,error,smoothed,error_smoothed,equalization,parametric_eq,fixed_band_eq,equalized_raw,equalized_smoothed,target
20.00,7.20,7.62,7.21,7.61,-7.61,-7.04,-3.60,-0.41,-0.40,-0.42
20.20,7.23,7.61,7.23,7.60,-7.60,-7.08,-3.69,-0.37,-0.37,-0.38
20.40,7.26,7.60,7.26,7.59,-7.59,-7.12,-3.80,-0.33,-0.34,-0.34
20.61,7.28,7.59,7.28,7.59,-7.59,-7.16,-3.90,-0.31,-0.31,-0.31
20.81,7.31,7.58,7.30,7.59,-7.59,-7.20,-4.01,-0.28,-0.28,-0.27
21.02,7.33,7.56,7.33,7.58,-7.58,-7.24,-4.12,-0.26,-0.26,-0.23
21.23,7.36,7.57,7.35,7.58,-7.58,-7.28,-4.24,-0.23,-0.23,-0.21
21.44,7.38,7.57,7.37,7.59,-7.59,-7.31,-4.36,-0.21,-0.21,-0.19
21.66,7.40,7.57,7.40,7.59,-7.59,-7.35,-4.48,-0.19,-0.19,-0.17
21.87,7.43,7.59,7.42,7.59,-7.59,-7.39,-4.60,-0.16,-0.17,-0.16
22.09,7.45,7.59,7.45,7.60,-7.60,-7.42,-4.73,-0.15,-0.15,-0.14
22.31,7.47,7.60,7.47,7.61,-7.61,-7.46,-4.86,-0.14,-0.14,-0.13
22.54,7.49,7.61,7.49,7.62,-7.62,-7.50,-5.00,-0.13,-0.12,-0.13
22.76,7.51,7.62,7.52,7.63,-7.63,-7.53,-5.14,-0.12,-0.11,-0.12
22.99,7.54,7.65,7.54,7.65,-7.65,-7.57,-5.28,-0.11,-0.11,-0.12
23.22,7.56,7.66,7.56,7.66,-7.66,-7.60,-5.43,-0.10,-0.10,-0.11
23.45,7.59,7.69,7.59,7.68,-7.68,-7.63,-5.58,-0.09,-0.09,-0.10
23.69,7.62,7.71,7.61,7.69,-7.69,-7.67,-5.73,-0.08,-0.08,-0.09
23.92,7.65,7.73,7.64,7.71,-7.71,-7.70,-5.89,-0.06,-0.07,-0.08
24.16,7.67,7.73,7.67,7.73,-7.73,-7.73,-6.05,-0.06,-0.06,-0.06
24.40,7.69,7.73,7.69,7.74,-7.74,-7.76,-6.22,-0.05,-0.05,-0.04
24.65,7.71,7.75,7.72,7.76,-7.76,-7.79,-6.38,-0.05,-0.04,-0.04
24.89,7.74,7.77,7.75,7.78,-7.78,-7.82,-6.55,-0.04,-0.03,-0.03
25.14,7.77,7.79,7.77,7.79,-7.79,-7.85,-6.73,-0.02,-0.02,-0.02
25.39,7.80,7.81,7.80,7.80,-7.80,-7.88,-6.90,-0.01,-0.01,-0.01
25.65,7.83,7.82,7.82,7.82,-7.82,-7.90,-7.08,0.01,0.00,0.01
25.91,7.85,7.84,7.84,7.83,-7.83,-7.93,-7.26,0.02,0.01,0.01
26.16,7.87,7.85,7.86,7.84,-7.84,-7.96,-7.44,0.03,0.02,0.02
26.43,7.89,7.86,7.88,7.85,-7.85,-7.98,-7.62,0.04,0.03,0.03
26.69,7.91,7.87,7.90,7.86,-7.86,-8.01,-7.80,0.05,0.04,0.04
26.96,7.92,7.86,7.92,7.87,-7.87,-8.03,-7.98,0.05,0.05,0.06
27.23,7.94,7.87,7.93,7.87,-7.87,-8.06,-8.15,0.06,0.06,0.07
27.50,7.95,7.87,7.95,7.88,-7.88,-8.08,-8.33,0.06,0.07,0.07
27.77,7.97,7.89,7.97,7.89,-7.89,-8.10,-8.50,0.07,0.08,0.07
28.05,7.98,7.89,7.99,7.91,-7.91,-8.12,-8.67,0.07,0.09,0.09
28.33,8.00,7.91,8.02,7.92,-7.92,-8.14,-8.83,0.08,0.10,0.09
28.62,8.02,7.92,8.04,7.94,-7.94,-8.16,-8.98,0.08,0.10,0.10
28.90,8.05,7.94,8.07,7.95,-7.95,-8.18,-9.13,0.10,0.11,0.11
29.19,8.08,7.97,8.09,7.97,-7.97,-8.20,-9.26,0.11,0.12,0.11
29.48,8.12,7.98,8.12,7.99,-7.99,-8.22,-9.39,0.13,0.13,0.14
29.78,8.15,8.01,8.15,8.01,-8.01,-8.24,-9.50,0.14,0.14,0.14
30.08,8.18,8.03,8.17,8.03,-8.03,-8.25,-9.60,0.15,0.14,0.15
30.38,8.20,8.05,8.19,8.04,-8.04,-8.27,-9.69,0.16,0.15,0.15
30.68,8.23,8.06,8.21,8.05,-8.05,-8.28,-9.77,0.18,0.16,0.16
30.99,8.25,8.08,8.23,8.06,-8.06,-8.30,-9.83,0.19,0.17,0.16
31.30,8.26,8.09,8.24,8.06,-8.06,-8.31,-9.87,0.19,0.17,0.17
31.61,8.27,8.09,8.25,8.06,-8.06,-8.32,-9.90,0.21,0.18,0.18
31.93,8.28,8.09,8.25,8.06,-8.06,-8.33,-9.91,0.22,0.19,0.19
32.24,8.27,8.08,8.25,8.05,-8.05,-8.34,-9.91,0.22,0.20,0.19
32.57,8.26,8.05,8.25,8.04,-8.04,-8.35,-9.90,0.21,0.21,0.21
32.89,8.25,8.03,8.25,8.04,-8.04,-8.36,-9.87,0.21,0.21,0.22
33.22,8.23,8.00,8.25,8.03,-8.03,-8.37,-9.83,0.20,0.22,0.22
33.55,8.23,8.00,8.26,8.02,-8.02,-8.38,-9.78,0.20,0.23,0.23
33.89,8.24,8.00,8.26,8.02,-8.02,-8.39,-9.72,0.22,0.24,0.24
34.23,8.25,8.00,8.27,8.02,-8.02,-8.39,-9.65,0.23,0.25,0.25
34.57,8.26,8.00,8.28,8.03,-8.03,-8.40,-9.57,0.23,0.25,0.26
34.92,8.28,8.02,8.30,8.04,-8.04,-8.41,-9.48,0.24,0.26,0.26
35.27,8.31,8.04,8.32,8.05,-8.05,-8.41,-9.39,0.26,0.26,0.26
35.62,8.34,8.07,8.34,8.07,-8.07,-8.41,-9.30,0.27,0.27,0.27
35.97,8.37,8.10,8.37,8.09,-8.09,-8.42,-9.20,0.28,0.27,0.27
36.33,8.40,8.12,8.40,8.12,-8.12,-8.42,-9.11,0.28,0.28,0.28
36.70,8.43,8.15,8.43,8.15,-8.15,-8.42,-9.01,0.28,0.28,0.28
37.06,8.46,8.18,8.46,8.18,-8.18,-8.42,-8.91,0.28,0.28,0.28
37.43,8.49,8.20,8.49,8.20,-8.20,-8.42,-8.81,0.29,0.28,0.29
37.81,8.52,8.23,8.51,8.23,-8.23,-8.42,-8.72,0.29,0.28,0.29
38.19,8.54,8.25,8.53,8.25,-8.25,-8.42,-8.62,0.29,0.28,0.29
38.57,8.57,8.29,8.55,8.27,-8.27,-8.42,-8.53,0.30,0.28,0.28
38.95,8.58,8.30,8.57,8.28,-8.28,-8.42,-8.44,0.29,0.28,0.28
39.34,8.60,8.32,8.58,8.30,-8.30,-8.42,-8.36,0.30,0.28,0.28
39.74,8.60,8.33,8.58,8.30,-8.30,-8.41,-8.28,0.29,0.28,0.27
40.14,8.60,8.32,8.59,8.31,-8.31,-8.41,-8.21,0.29,0.28,0.28
40.54,8.59,8.31,8.59,8.31,-8.31,-8.40,-8.14,0.28,0.28,0.28
40.94,8.59,8.32,8.59,8.31,-8.31,-8.40,-8.07,0.27,0.28,0.27
41.35,8.58,8.31,8.59,8.32,-8.32,-8.39,-8.01,0.26,0.28,0.27
41.76,8.58,8.30,8.59,8.32,-8.32,-8.39,-7.96,0.26,0.28,0.28
42.18,8.58,8.30,8.59,8.32,-8.32,-8.38,-7.91,0.26,0.27,0.28
42.60,8.58,8.30,8.59,8.32,-8.32,-8.37,-7.87,0.26,0.27,0.28
43.03,8.58,8.29,8.59,8.32,-8.32,-8.37,-7.83,0.26,0.27,0.28
43.46,8.58,8.30,8.59,8.32,-8.32,-8.36,-7.80,0.26,0.27,0.28
43.90,8.58,8.31,8.59,8.32,-8.32,-8.35,-7.77,0.26,0.27,0.26
44.33,8.59,8.32,8.59,8.32,-8.32,-8.34,-7.76,0.27,0.27,0.27
44.78,8.60,8.33,8.59,8.32,-8.32,-8.33,-7.74,0.28,0.27,0.27
45.23,8.60,8.34,8.59,8.32,-8.32,-8.32,-7.73,0.28,0.27,0.26
45.68,8.60,8.33,8.58,8.31,-8.31,-8.31,-7.73,0.29,0.27,0.26
46.13,8.59,8.33,8.57,8.30,-8.30,-8.30,-7.74,0.29,0.27,0.26
46.60,8.58,8.30,8.56,8.29,-8.29,-8.29,-7.74,0.29,0.27,0.27
47.06,8.56,8.29,8.54,8.28,-8.28,-8.28,-7.76,0.28,0.26,0.27
47.53,8.53,8.27,8.52,8.26,-8.26,-8.27,-7.78,0.27,0.26,0.26
48.01,8.51,8.23,8.50,8.24,-8.24,-8.26,-7.80,0.26,0.25,0.28
48.49,8.48,8.22,8.47,8.22,-8.22,-8.25,-7.83,0.26,0.25,0.26
48.97,8.45,8.21,8.44,8.20,-8.20,-8.24,-7.87,0.25,0.24,0.24
49.46,8.41,8.17,8.41,8.18,-8.18,-8.22,-7.91,0.23,0.24,0.23
49.96,8.38,8.16,8.38,8.15,-8.15,-8.21,-7.95,0.23,0.23,0.22
50.46,8.35,8.13,8.35,8.13,-8.13,-8.20,-8.00,0.21,0.22,0.22
50.96,8.32,8.11,8.33,8.12,-8.12,-8.19,-8.05,0.20,0.21,0.21
51.47,8.30,8.11,8.31,8.11,-8.11,-8.18,-8.10,0.19,0.20,0.18
51.99,8.27,8.09,8.29,8.11,-8.11,-8.16,-8.16,0.16,0.18,0.18
52.51,8.26,8.08,8.27,8.11,-8.11,-8.15,-8.22,0.15,0.17,0.18
53.03,8.24,8.08,8.26,8.11,-8.11,-8.14,-8.28,0.13,0.16,0.16
53.56,8.23,8.08,8.26,8.12,-8.12,-8.13,-8.34,0.11,0.14,0.15
54.10,8.23,8.10,8.25,8.13,-8.13,-8.12,-8.41,0.10,0.13,0.13
54.64,8.24,8.12,8.25,8.14,-8.14,-8.10,-8.47,0.10,0.12,0.12
55.18,8.26,8.16,8.25,8.15,-8.15,-8.09,-8.53,0.11,0.10,0.10
55.74,8.27,8.19,8.25,8.16,-8.16,-8.08,-8.59,0.11,0.09,0.08
56.29,8.28,8.20,8.25,8.17,-8.17,-8.07,-8.65,0.11,0.07,0.08
56.86,8.27,8.21,8.24,8.18,-8.18,-8.06,-8.71,0.09,0.06,0.05
57.42,8.26,8.23,8.23,8.19,-8.19,-8.05,-8.76,0.07,0.04,0.03
58.00,8.24,8.22,8.22,8.20,-8.20,-8.04,-8.81,0.04,0.02,0.02
58.58,8.22,8.21,8.21,8.20,-8.20,-8.03,-8.85,0.02,0.01,0.01
59.16,8.20,8.20,8.19,8.20,-8.20,-8.02,-8.89,-0.00,-0.01,-0.01
59.76,8.17,8.19,8.16,8.20,-8.20,-8.01,-8.92,-0.03,-0.04,-0.02
60.35,8.14,8.18,8.14,8.19,-8.19,-8.00,-8.94,-0.06,-0.06,-0.04
60.96,8.11,8.18,8.11,8.19,-8.19,-7.99,-8.96,-0.08,-0.08,-0.07
61.57,8.08,8.18,8.08,8.18,-8.18,-7.98,-8.97,-0.11,-0.10,-0.10
62.18,8.05,8.19,8.05,8.18,-8.18,-7.97,-8.97,-0.13,-0.13,-0.14
62.80,8.02,8.17,8.03,8.18,-8.18,-7.97,-8.97,-0.17,-0.16,-0.15
63.43,7.99,8.18,8.01,8.19,-8.19,-7.96,-8.96,-0.20,-0.18,-0.19
64.07,7.96,8.18,7.99,8.20,-8.20,-7.95,-8.94,-0.24,-0.21,-0.22
64.71,7.95,8.19,7.97,8.21,-8.21,-7.95,-8.91,-0.26,-0.24,-0.25
65.35,7.94,8.21,7.96,8.23,-8.23,-7.94,-8.87,-0.29,-0.27,-0.27
66.01,7.93,8.23,7.95,8.24,-8.24,-7.94,-8.83,-0.32,-0.30,-0.30
66.67,7.93,8.25,7.93,8.26,-8.26,-7.94,-8.78,-0.33,-0.33,-0.32
67.33,7.93,8.28,7.92,8.28,-8.28,-7.94,-8.73,-0.35,-0.36,-0.35
68.01,7.93,8.31,7.91,8.29,-8.29,-7.93,-8.67,-0.37,-0.39,-0.38
68.69,7.92,8.33,7.89,8.31,-8.31,-7.93,-8.61,-0.39,-0.41,-0.41
69.37,7.91,8.35,7.88,8.32,-8.32,-7.93,-8.54,-0.41,-0.44,-0.44
70.07,7.88,8.35,7.86,8.33,-8.33,-7.94,-8.47,-0.45,-0.47,-0.47
70.77,7.86,8.36,7.84,8.34,-8.34,-7.94,-8.40,-0.48,-0.50,-0.50
71.48,7.83,8.35,7.82,8.34,-8.34,-7.94,-8.33,-0.51,-0.52,-0.52
72.19,7.80,8.35,7.79,8.34,-8.34,-7.95,-8.26,-0.54,-0.55,-0.55
72.91,7.76,8.34,7.76,8.34,-8.34,-7.95,-8.19,-0.58,-0.57,-0.58
73.64,7.73,8.33,7.73,8.33,-8.33,-7.96,-8.11,-0.60,-0.60,-0.60
74.38,7.70,8.32,7.71,8.33,-8.33,-7.97,-8.04,-0.63,-0.62,-0.62
75.12,7.67,8.31,7.68,8.32,-8.32,-7.98,-7.97,-0.65,-0.64,-0.64
75.87,7.65,8.31,7.66,8.32,-8.32,-7.99,-7.91,-0.67,-0.66,-0.66
76.63,7.63,8.31,7.64,8.31,-8.31,-8.00,-7.84,-0.68,-0.68,-0.68
77.40,7.61,8.30,7.62,8.31,-8.31,-8.01,-7.78,-0.70,-0.69,-0.70
78.17,7.59,8.30,7.61,8.32,-8.32,-8.03,-7.72,-0.73,-0.71,-0.71
78.95,7.58,8.30,7.60,8.32,-8.32,-8.04,-7.67,-0.74,-0.72,-0.72
79.74,7.58,8.31,7.60,8.33,-8.33,-8.06,-7.62,-0.75,-0.73,-0.73
80.54,7.59,8.33,7.60,8.34,-8.34,-8.07,-7.57,-0.75,-0.75,-0.74
81.35,7.60,8.35,7.60,8.35,-8.35,-8.09,-7.53,-0.75,-0.75,-0.75
82.16,7.60,8.36,7.60,8.36,-8.36,-8.11,-7.50,-0.77,-0.76,-0.76
82.98,7.61,8.37,7.61,8.38,-8.38,-8.13,-7.47,-0.77,-0.77,-0.77
83.81,7.61,8.39,7.61,8.39,-8.39,-8.16,-7.44,-0.78,-0.78,-0.78
84.65,7.62,8.41,7.61,8.40,-8.40,-8.18,-7.42,-0.78,-0.78,-0.79
85.50,7.63,8.41,7.62,8.40,-8.40,-8.20,-7.40,-0.77,-0.79,-0.79
86.35,7.63,8.42,7.61,8.40,-8.40,-8.23,-7.39,-0.78,-0.79,-0.79
87.22,7.63,8.42,7.61,8.40,-8.40,-8.25,-7.39,-0.77,-0.79,-0.79
88.09,7.62,8.42,7.60,8.39,-8.39,-8.28,-7.39,-0.78,-0.79,-0.80
88.97,7.60,8.39,7.59,8.38,-8.38,-8.31,-7.39,-0.78,-0.80,-0.79
89.86,7.58,8.37,7.57,8.37,-8.37,-8.34,-7.41,-0.79,-0.80,-0.79
90.76,7.56,8.36,7.55,8.35,-8.35,-8.37,-7.42,-0.79,-0.80,-0.81
91.66,7.53,8.33,7.52,8.32,-8.32,-8.39,-7.45,-0.80,-0.80,-0.80
92.58,7.50,8.31,7.50,8.30,-8.30,-8.42,-7.47,-0.80,-0.80,-0.81
93.51,7.47,8.27,7.47,8.28,-8.28,-8.45,-7.51,-0.81,-0.80,-0.80
94.44,7.44,8.24,7.44,8.25,-8.25,-8.48,-7.54,-0.81,-0.81,-0.80
95.39,7.41,8.21,7.42,8.23,-8.23,-8.51,-7.59,-0.82,-0.81,-0.80
96.34,7.38,8.20,7.39,8.21,-8.21,-8.54,-7.63,-0.83,-0.82,-0.82
97.30,7.35,8.18,7.37,8.19,-8.19,-8.57,-7.69,-0.84,-0.82,-0.83
98.28,7.33,8.17,7.35,8.18,-8.18,-8.59,-7.74,-0.85,-0.83,-0.84
99.26,7.31,8.15,7.33,8.17,-8.17,-8.62,-7.80,-0.86,-0.84,-0.85
100.25,7.30,8.15,7.31,8.16,-8.16,-8.64,-7.87,-0.87,-0.85,-0.86
101.25,7.29,8.15,7.30,8.16,-8.16,-8.66,-7.94,-0.87,-0.87,-0.86
102.27,7.28,8.16,7.28,8.16,-8.16,-8.68,-8.01,-0.88,-0.88,-0.88
103.29,7.27,8.17,7.27,8.17,-8.17,-8.70,-8.08,-0.90,-0.90,-0.90
104.32,7.26,8.17,7.25,8.17,-8.17,-8.71,-8.16,-0.91,-0.92,-0.91
105.37,7.25,8.18,7.24,8.18,-8.18,-8.72,-8.23,-0.93,-0.94,-0.93
106.42,7.23,8.19,7.22,8.19,-8.19,-8.73,-8.31,-0.96,-0.96,-0.96
107.48,7.22,8.20,7.21,8.20,-8.20,-8.74,-8.39,-0.98,-0.99,-0.98
108.56,7.20,8.22,7.18,8.20,-8.20,-8.74,-8.47,-1.01,-1.02,-1.02
109.64,7.17,8.22,7.16,8.21,-8.21,-8.73,-8.54,-1.04,-1.05,-1.05
110.74,7.13,8.21,7.13,8.21,-8.21,-8.72,-8.62,-1.09,-1.09,-1.08
111.85,7.10,8.22,7.09,8.22,-8.22,-8.71,-8.69,-1.12,-1.12,-1.12
112.97,7.06,8.22,7.06,8.22,-8.22,-8.69,-8.75,-1.16,-1.16,-1.17
114.10,7.02,8.21,7.02,8.22,-8.22,-8.67,-8.81,-1.20,-1.20,-1.19
115.24,6.97,8.21,6.97,8.21,-8.21,-8.64,-8.86,-1.25,-1.24,-1.24
116.39,6.92,8.21,6.93,8.21,-8.21,-8.61,-8.91,-1.29,-1.28,-1.29
117.55,6.88,8.21,6.88,8.20,-8.20,-8.57,-8.95,-1.32,-1.32,-1.33
118.73,6.82,8.19,6.82,8.19,-8.19,-8.53,-8.98,-1.37,-1.36,-1.38
119.92,6.76,8.16,6.77,8.17,-8.17,-8.48,-9.00,-1.41,-1.40,-1.40
121.12,6.70,8.15,6.71,8.15,-8.15,-8.43,-9.00,-1.45,-1.44,-1.45
122.33,6.65,8.13,6.65,8.13,-8.13,-8.37,-9.00,-1.48,-1.48,-1.49
123.55,6.59,8.10,6.58,8.10,-8.10,-8.30,-8.98,-1.51,-1.52,-1.51
124.79,6.52,8.07,6.51,8.06,-8.06,-8.23,-8.95,-1.55,-1.55,-1.55
126.03,6.45,8.03,6.44,8.03,-8.03,-8.16,-8.91,-1.58,-1.59,-1.58
127.29,6.37,7.98,6.37,7.99,-7.99,-8.08,-8.86,-1.62,-1.62,-1.62
128.57,6.29,7.95,6.29,7.94,-7.94,-8.00,-8.79,-1.65,-1.65,-1.66
129.85,6.21,7.89,6.21,7.89,-7.89,-7.91,-8.72,-1.68,-1.68,-1.68
131.15,6.12,7.84,6.13,7.84,-7.84,-7.82,-8.63,-1.72,-1.71,-1.72
132.46,6.03,7.77,6.04,7.78,-7.78,-7.72,-8.53,-1.75,-1.74,-1.74
133.79,5.96,7.72,5.95,7.72,-7.72,-7.63,-8.42,-1.76,-1.77,-1.76
135.12,5.86,7.65,5.86,7.65,-7.65,-7.53,-8.30,-1.79,-1.79,-1.79
136.48,5.75,7.56,5.76,7.58,-7.58,-7.42,-8.17,-1.83,-1.82,-1.81
137.84,5.66,7.50,5.66,7.50,-7.50,-7.32,-8.03,-1.85,-1.84,-1.84
139.22,5.57,7.44,5.56,7.42,-7.42,-7.21,-7.89,-1.86,-1.87,-1.87
140.61,5.47,7.37,5.45,7.34,-7.34,-7.10,-7.75,-1.87,-1.89,-1.90
142.02,5.35,7.26,5.34,7.26,-7.26,-6.99,-7.60,-1.91,-1.91,-1.91
143.44,5.24,7.17,5.23,7.17,-7.17,-6.88,-7.44,-1.93,-1.94,-1.93
144.87,5.12,7.08,5.11,7.07,-7.07,-6.77,-7.28,-1.96,-1.96,-1.96
146.32,5.00,6.98,5.00,6.98,-6.98,-6.66,-7.12,-1.98,-1.98,-1.98
147.78,4.87,6.87,4.87,6.88,-6.88,-6.55,-6.96,-2.02,-2.01,-2.00
149.26,4.75,6.77,4.75,6.78,-6.78,-6.43,-6.80,-2.04,-2.04,-2.03
150.75,4.62,6.69,4.62,6.69,-6.69,-6.32,-6.64,-2.07,-2.07,-2.07
152.26,4.49,6.58,4.49,6.58,-6.58,-6.21,-6.47,-2.10,-2.09,-2.09
153.78,4.36,6.48,4.36,6.48,-6.48,-6.10,-6.31,-2.12,-2.12,-2.12
155.32,4.23,6.39,4.23,6.38,-6.38,-5.98,-6.15,-2.15,-2.15,-2.16
156.88,4.09,6.27,4.09,6.28,-6.28,-5.87,-5.99,-2.19,-2.19,-2.18
158.44,3.95,6.16,3.96,6.18,-6.18,-5.76,-5.84,-2.23,-2.22,-2.22
160.03,3.82,6.08,3.83,6.08,-6.08,-5.66,-5.68,-2.26,-2.25,-2.26
161.63,3.70,6.00,3.69,5.98,-5.98,-5.55,-5.53,-2.28,-2.29,-2.30
163.24,3.55,5.88,3.56,5.88,-5.88,-5.44,-5.38,-2.33,-2.32,-2.33
164.88,3.42,5.78,3.42,5.78,-5.78,-5.34,-5.24,-2.36,-2.36,-2.36
166.53,3.29,5.69,3.29,5.68,-5.68,-5.23,-5.09,-2.40,-2.40,-2.40
168.19,3.15,5.59,3.15,5.59,-5.59,-5.13,-4.95,-2.44,-2.44,-2.44
169.87,3.02,5.49,3.01,5.49,-5.49,-5.03,-4.82,-2.47,-2.48,-2.47
171.57,2.88,5.39,2.88,5.39,-5.39,-4.93,-4.68,-2.52,-2.52,-2.51
173.29,2.75,5.31,2.74,5.30,-5.30,-4.83,-4.55,-2.55,-2.56,-2.56
175.02,2.60,5.19,2.60,5.21,-5.21,-4.74,-4.42,-2.61,-2.61,-2.60
176.77,2.45,5.10,2.46,5.11,-5.11,-4.64,-4.30,-2.66,-2.65,-2.65
178.54,2.31,5.01,2.32,5.01,-5.01,-4.55,-4.18,-2.70,-2.70,-2.70
180.32,2.17,4.91,2.17,4.91,-4.91,-4.46,-4.06,-2.75,-2.74,-2.74
182.13,2.03,4.82,2.03,4.82,-4.82,-4.37,-3.94,-2.79,-2.79,-2.79
183.95,1.90,4.74,1.88,4.72,-4.72,-4.28,-3.83,-2.82,-2.84,-2.84
185.79,1.75,4.63,1.73,4.62,-4.62,-4.20,-3.72,-2.88,-2.89,-2.89
187.65,1.60,4.55,1.59,4.53,-4.53,-4.11,-3.61,-2.93,-2.94,-2.95
189.52,1.44,4.43,1.44,4.43,-4.43,-4.03,-3.51,-2.99,-2.98,-2.99
191.42,1.29,4.32,1.29,4.33,-4.33,-3.95,-3.41,-3.04,-3.03,-3.03
193.33,1.13,4.20,1.15,4.23,-4.23,-3.87,-3.31,-3.10,-3.08,-3.08
195.27,0.99,4.11,1.00,4.12,-4.12,-3.79,-3.21,-3.14,-3.13,-3.12
197.22,0.85,4.02,0.85,4.02,-4.02,-3.71,-3.12,-3.17,-3.17,-3.17
199.19,0.71,3.93,0.70,3.92,-3.92,-3.64,-3.03,-3.21,-3.21,-3.22
201.18,0.56,3.82,0.56,3.81,-3.81,-3.57,-2.94,-3.25,-3.26,-3.26
203.19,0.41,3.70,0.41,3.71,-3.71,-3.49,-2.85,-3.30,-3.30,-3.29
205.23,0.27,3.61,0.26,3.60,-3.60,-3.42,-2.77,-3.33,-3.34,-3.34
207.28,0.13,3.49,0.12,3.50,-3.50,-3.35,-2.69,-3.37,-3.38,-3.36
209.35,-0.01,3.40,-0.02,3.39,-3.39,-3.29,-2.61,-3.40,-3.41,-3.41
211.44,-0.16,3.30,-0.16,3.28,-3.28,-3.22,-2.53,-3.45,-3.45,-3.46
213.56,-0.31,3.18,-0.31,3.18,-3.18,-3.16,-2.46,-3.49,-3.48,-3.49
215.69,-0.45,3.05,-0.45,3.07,-3.07,-3.09,-2.39,-3.52,-3.52,-3.51
217.85,-0.59,2.95,-0.58,2.96,-2.96,-3.03,-2.32,-3.55,-3.55,-3.54
220.03,-0.72,2.86,-0.72,2.85,-2.85,-2.97,-2.25,-3.57,-3.57,-3.58
222.23,-0.86,2.75,-0.86,2.74,-2.74,-2.91,-2.18,-3.60,-3.60,-3.61
224.45,-0.99,2.63,-0.99,2.63,-2.63,-2.85,-2.11,-3.63,-3.62,-3.63
226.70,-1.11,2.53,-1.12,2.53,-2.53,-2.79,-2.05,-3.64,-3.65,-3.64
228.96,-1.24,2.43,-1.25,2.42,-2.42,-2.74,-1.99,-3.66,-3.66,-3.67
231.25,-1.37,2.30,-1.37,2.31,-2.31,-2.68,-1.93,-3.68,-3.68,-3.68
233.57,-1.49,2.20,-1.49,2.20,-2.20,-2.63,-1.87,-3.69,-3.69,-3.69
235.90,-1.61,2.10,-1.61,2.09,-2.09,-2.58,-1.81,-3.71,-3.70,-3.71
238.26,-1.73,1.98,-1.72,1.99,-1.99,-2.53,-1.76,-3.72,-3.71,-3.71
240.64,-1.83,1.89,-1.83,1.88,-1.88,-2.48,-1.71,-3.72,-3.72,-3.72
243.05,-1.94,1.77,-1.94,1.78,-1.78,-2.43,-1.65,-3.72,-3.72,-3.71
245.48,-2.04,1.68,-2.04,1.68,-1.68,-2.38,-1.60,-3.72,-3.72,-3.72
247.93,-2.14,1.57,-2.13,1.58,-1.58,-2.33,-1.55,-3.72,-3.72,-3.71
250.41,-2.23,1.49,-2.23,1.48,-1.48,-2.29,-1.51,-3.72,-3.71,-3.72
252.92,-2.31,1.39,-2.32,1.39,-1.39,-2.24,-1.46,-3.70,-3.70,-3.70
255.45,-2.40,1.29,-2.40,1.30,-1.30,-2.20,-1.41,-3.70,-3.70,-3.69
258.00,-2.48,1.20,-2.48,1.20,-1.20,-2.16,-1.37,-3.69,-3.68,-3.68
260.58,-2.56,1.12,-2.56,1.12,-1.12,-2.12,-1.33,-3.68,-3.67,-3.68
263.19,-2.63,1.03,-2.63,1.03,-1.03,-2.07,-1.28,-3.66,-3.66,-3.66
265.82,-2.69,0.96,-2.70,0.95,-0.95,-2.03,-1.24,-3.64,-3.65,-3.65
268.48,-2.76,0.87,-2.76,0.87,-0.87,-2.00,-1.20,-3.63,-3.63,-3.63
271.16,-2.82,0.79,-2.83,0.79,-0.79,-1.96,-1.17,-3.61,-3.62,-3.61
273.87,-2.89,0.71,-2.89,0.72,-0.72,-1.92,-1.13,-3.61,-3.60,-3.61
276.61,-2.95,0.63,-2.94,0.64,-0.64,-1.88,-1.09,-3.60,-3.59,-3.58
279.38,-3.01,0.56,-3.00,0.57,-0.57,-1.85,-1.05,-3.58,-3.57,-3.57
282.17,-3.06,0.49,-3.06,0.50,-0.50,-1.81,-1.02,-3.56,-3.56,-3.55
284.99,-3.10,0.44,-3.11,0.43,-0.43,-1.78,-0.98,-3.53,-3.54,-3.54
287.84,-3.15,0.38,-3.16,0.36,-0.36,-1.74,-0.95,-3.51,-3.53,-3.53
290.72,-3.20,0.31,-3.22,0.29,-0.29,-1.71,-0.92,-3.50,-3.51,-3.51
293.63,-3.25,0.24,-3.27,0.23,-0.23,-1.68,-0.89,-3.48,-3.49,-3.50
296.57,-3.30,0.18,-3.32,0.16,-0.16,-1.65,-0.85,-3.46,-3.48,-3.48
299.53,-3.36,0.11,-3.37,0.10,-0.10,-1.62,-0.82,-3.46,-3.47,-3.47
302.53,-3.42,0.04,-3.42,0.04,-0.04,-1.59,-0.79,-3.46,-3.45,-3.46
305.55,-3.47,-0.04,-3.46,-0.02,0.02,-1.56,-0.76,-3.45,-3.44,-3.43
308.61,-3.51,-0.08,-3.51,-0.08,0.08,-1.53,-0.73,-3.43,-3.43,-3.43
311.69,-3.55,-0.13,-3.55,-0.13,0.13,-1.50,-0.70,-3.42,-3.42,-3.42
314.81,-3.59,-0.20,-3.59,-0.18,0.18,-1.47,-0.67,-3.41,-3.41,-3.39
317.96,-3.63,-0.24,-3.63,-0.23,0.23,-1.45,-0.64,-3.40,-3.40,-3.39
321.14,-3.67,-0.29,-3.66,-0.27,0.27,-1.42,-0.61,-3.40,-3.39,-3.38
324.35,-3.69,-0.31,-3.69,-0.31,0.31,-1.40,-0.58,-3.38,-3.38,-3.39
327.59,-3.71,-0.34,-3.71,-0.34,0.34,-1.37,-0.56,-3.38,-3.37,-3.37
330.87,-3.72,-0.35,-3.73,-0.36,0.36,-1.35,-0.53,-3.36,-3.37,-3.37
334.18,-3.74,-0.37,-3.74,-0.38,0.38,-1.32,-0.50,-3.36,-3.36,-3.37
337.52,-3.76,-0.40,-3.75,-0.39,0.39,-1.30,-0.47,-3.37,-3.36,-3.36
340.90,-3.77,-0.42,-3.76,-0.40,0.40,-1.28,-0.44,-3.37,-3.36,-3.35
344.30,-3.77,-0.42,-3.76,-0.40,0.40,-1.26,-0.42,-3.37,-3.36,-3.36
347.75,-3.77,-0.41,-3.77,-0.41,0.41,-1.23,-0.39,-3.37,-3.36,-3.36
351.23,-3.76,-0.40,-3.77,-0.40,0.40,-1.21,-0.36,-3.36,-3.36,-3.36
354.74,-3.75,-0.39,-3.76,-0.40,0.40,-1.19,-0.33,-3.35,-3.36,-3.36
358.28,-3.75,-0.38,-3.76,-0.40,0.40,-1.17,-0.31,-3.36,-3.37,-3.37
361.87,-3.75,-0.38,-3.76,-0.39,0.39,-1.15,-0.28,-3.36,-3.37,-3.37
365.49,-3.75,-0.38,-3.76,-0.38,0.38,-1.13,-0.25,-3.37,-3.38,-3.37
369.14,-3.75,-0.37,-3.76,-0.38,0.38,-1.12,-0.22,-3.38,-3.38,-3.38
372.83,-3.75,-0.37,-3.75,-0.37,0.37,-1.10,-0.20,-3.39,-3.39,-3.38
376.56,-3.75,-0.36,-3.75,-0.36,0.36,-1.08,-0.17,-3.39,-3.39,-3.40
380.33,-3.75,-0.36,-3.75,-0.35,0.35,-1.06,-0.14,-3.40,-3.40,-3.40
384.13,-3.75,-0.34,-3.75,-0.34,0.34,-1.05,-0.12,-3.41,-3.41,-3.41
387.97,-3.75,-0.33,-3.75,-0.34,0.34,-1.03,-0.09,-3.42,-3.41,-3.42
391.85,-3.75,-0.32,-3.75,-0.33,0.33,-1.01,-0.06,-3.42,-3.42,-3.43
395.77,-3.75,-0.33,-3.75,-0.32,0.32,-1.00,-0.04,-3.43,-3.43,-3.42
399.73,-3.75,-0.32,-3.75,-0.32,0.32,-0.98,-0.01,-3.43,-3.43,-3.43
403.72,-3.75,-0.31,-3.75,-0.31,0.31,-0.97,0.01,-3.44,-3.44,-3.44
407.76,-3.75,-0.30,-3.76,-0.31,0.31,-0.96,0.04,-3.44,-3.44,-3.45
411.84,-3.75,-0.31,-3.76,-0.31,0.31,-0.94,0.06,-3.44,-3.45,-3.44
415.96,-3.75,-0.30,-3.76,-0.31,0.31,-0.93,0.08,-3.44,-3.45,-3.45
420.12,-3.75,-0.30,-3.76,-0.31,0.31,-0.92,0.11,-3.45,-3.46,-3.45
424.32,-3.75,-0.30,-3.76,-0.30,0.30,-0.91,0.13,-3.45,-3.46,-3.45
428.56,-3.76,-0.30,-3.76,-0.30,0.30,-0.89,0.15,-3.46,-3.46,-3.47
432.85,-3.76,-0.30,-3.76,-0.30,0.30,-0.88,0.17,-3.46,-3.46,-3.47
437.18,-3.77,-0.31,-3.76,-0.30,0.30,-0.87,0.19,-3.47,-3.46,-3.47
441.55,-3.77,-0.31,-3.75,-0.29,0.29,-0.86,0.21,-3.48,-3.46,-3.46
445.96,-3.76,-0.30,-3.75,-0.29,0.29,-0.85,0.22,-3.47,-3.46,-3.46
450.42,-3.74,-0.27,-3.74,-0.28,0.28,-0.84,0.24,-3.46,-3.46,-3.47
454.93,-3.72,-0.26,-3.72,-0.27,0.27,-0.83,0.25,-3.45,-3.46,-3.46
459.48,-3.70,-0.24,-3.71,-0.25,0.25,-0.82,0.26,-3.45,-3.45,-3.46
464.07,-3.68,-0.23,-3.68,-0.24,0.24,-0.82,0.27,-3.45,-3.45,-3.45
468.71,-3.66,-0.22,-3.66,-0.22,0.22,-0.81,0.28,-3.45,-3.44,-3.44
