frequency,raw,error,smoothed,error_smoothed,equalization,parametric_eq,fixed_band_eq,equalized_raw,equalized_smoothed,target
20.00,-6.95,-10.17,-6.96,-10.17,6.00,5.75,2.16,-0.95,-0.96,3.22
20.20,-6.86,-10.11,-6.86,-10.10,6.00,5.73,2.22,-0.86,-0.86,3.25
20.40,-6.76,-10.03,-6.74,-10.02,6.00,5.71,2.29,-0.76,-0.74,3.28
20.61,-6.61,-9.91,-6.62,-9.92,6.00,5.70,2.36,-0.61,-0.62,3.29
20.81,-6.46,-9.78,-6.47,-9.79,6.00,5.68,2.42,-0.46,-0.47,3.32
21.02,-6.32,-9.67,-6.31,-9.66,6.00,5.66,2.50,-0.32,-0.31,3.35
21.23,-6.15,-9.51,-6.15,-9.52,6.00,5.64,2.57,-0.15,-0.15,3.36
21.44,-5.99,-9.36,-5.99,-9.36,6.00,5.62,2.65,0.01,0.01,3.37
21.66,-5.83,-9.21,-5.83,-9.21,6.00,5.60,2.72,0.17,0.17,3.38
21.87,-5.66,-9.04,-5.67,-9.05,6.00,5.57,2.80,0.34,0.33,3.38
22.09,-5.52,-8.91,-5.51,-8.90,6.00,5.55,2.89,0.48,0.49,3.39
22.31,-5.35,-8.74,-5.35,-8.75,6.00,5.53,2.97,0.65,0.65,3.39
22.54,-5.20,-8.59,-5.20,-8.59,6.00,5.51,3.06,0.80,0.80,3.39
22.76,-5.06,-8.45,-5.05,-8.44,6.00,5.49,3.15,0.94,0.95,3.39
22.99,-4.90,-8.28,-4.90,-8.28,6.00,5.46,3.24,1.10,1.10,3.38
23.22,-4.75,-8.13,-4.75,-8.13,6.00,5.44,3.33,1.25,1.25,3.38
23.45,-4.59,-7.97,-4.59,-7.97,6.00,5.41,3.43,1.41,1.41,3.38
23.69,-4.44,-7.82,-4.44,-7.82,6.00,5.39,3.53,1.56,1.56,3.38
23.92,-4.28,-7.65,-4.29,-7.67,6.00,5.36,3.62,1.72,1.71,3.38
24.16,-4.15,-7.53,-4.14,-7.52,6.00,5.34,3.73,1.85,1.86,3.38
24.40,-3.99,-7.37,-3.99,-7.37,6.00,5.31,3.83,2.01,2.01,3.38
24.65,-3.84,-7.21,-3.85,-7.23,6.00,5.28,3.93,2.16,2.15,3.37
24.89,-3.73,-7.10,-3.71,-7.08,6.00,5.25,4.04,2.27,2.29,3.37
25.14,-3.57,-6.94,-3.58,-6.95,6.00,5.23,4.14,2.43,2.42,3.37
25.39,-3.45,-6.82,-3.45,-6.82,6.01,5.20,4.25,2.56,2.56,3.37
25.65,-3.31,-6.68,-3.31,-6.68,6.02,5.17,4.36,2.71,2.71,3.37
25.91,-3.18,-6.54,-3.18,-6.54,6.03,5.14,4.46,2.84,2.85,3.36
26.16,-3.04,-6.39,-3.04,-6.40,6.02,5.11,4.57,2.98,2.98,3.36
26.43,-2.89,-6.25,-2.90,-6.26,6.00,5.07,4.67,3.10,3.10,3.36
26.69,-2.78,-6.13,-2.77,-6.12,5.95,5.04,4.78,3.18,3.19,3.35
26.96,-2.62,-5.97,-2.63,-5.99,5.90,5.01,4.88,3.27,3.26,3.35
27.23,-2.51,-5.86,-2.50,-5.85,5.82,4.98,4.98,3.31,3.32,3.35
27.50,-2.36,-5.71,-2.36,-5.71,5.72,4.94,5.07,3.36,3.36,3.35
27.77,-2.23,-5.57,-2.24,-5.58,5.61,4.91,5.17,3.38,3.37,3.34
28.05,-2.12,-5.46,-2.12,-5.45,5.49,4.87,5.25,3.37,3.37,3.34
28.33,-2.01,-5.34,-2.01,-5.34,5.36,4.83,5.33,3.35,3.35,3.33
28.62,-1.90,-5.23,-1.90,-5.22,5.23,4.80,5.41,3.32,3.33,3.32
28.90,-1.79,-5.11,-1.79,-5.11,5.10,4.76,5.48,3.31,3.31,3.32
29.19,-1.67,-4.98,-1.67,-4.99,4.98,4.72,5.54,3.31,3.31,3.31
29.48,-1.55,-4.87,-1.55,-4.86,4.86,4.68,5.59,3.31,3.31,3.32
29.78,-1.44,-4.75,-1.43,-4.74,4.75,4.64,5.64,3.31,3.31,3.31
30.08,-1.31,-4.62,-1.32,-4.63,4.63,4.60,5.67,3.32,3.31,3.31
30.38,-1.22,-4.52,-1.22,-4.51,4.52,4.56,5.70,3.30,3.30,3.29
30.68,-1.11,-4.40,-1.11,-4.40,4.41,4.51,5.71,3.30,3.29,3.29
30.99,-1.02,-4.30,-1.02,-4.30,4.30,4.47,5.72,3.28,3.28,3.28
31.30,-0.92,-4.20,-0.92,-4.20,4.20,4.43,5.71,3.28,3.28,3.28
31.61,-0.83,-4.11,-0.83,-4.10,4.10,4.38,5.70,3.27,3.27,3.28
31.93,-0.73,-3.99,-0.74,-4.00,4.00,4.33,5.67,3.27,3.26,3.26
32.24,-0.66,-3.91,-0.65,-3.90,3.90,4.29,5.64,3.24,3.25,3.25
32.57,-0.55,-3.80,-0.56,-3.81,3.81,4.24,5.59,3.26,3.25,3.25
32.89,-0.48,-3.72,-0.47,-3.72,3.72,4.19,5.53,3.24,3.24,3.25
33.22,-0.38,-3.61,-0.39,-3.62,3.62,4.14,5.46,3.25,3.24,3.23
33.55,-0.32,-3.55,-0.31,-3.53,3.54,4.09,5.39,3.22,3.23,3.23
33.89,-0.22,-3.44,-0.23,-3.45,3.45,4.03,5.30,3.23,3.22,3.22
34.23,-0.15,-3.36,-0.16,-3.37,3.37,3.98,5.22,3.22,3.21,3.21
34.57,-0.09,-3.29,-0.08,-3.28,3.28,3.93,5.12,3.19,3.20,3.20
34.92,-0.01,-3.20,-0.01,-3.21,3.20,3.87,5.01,3.19,3.19,3.19
35.27,0.06,-3.13,0.06,-3.12,3.12,3.81,4.90,3.18,3.18,3.18
35.62,0.12,-3.05,0.13,-3.04,3.04,3.76,4.79,3.16,3.17,3.17
35.97,0.20,-2.96,0.19,-2.97,2.97,3.70,4.67,3.17,3.16,3.16
36.33,0.26,-2.89,0.26,-2.89,2.89,3.64,4.55,3.15,3.15,3.15
36.70,0.31,-2.83,0.32,-2.81,2.82,3.57,4.43,3.13,3.14,3.14
37.06,0.40,-2.73,0.38,-2.75,2.74,3.51,4.30,3.14,3.13,3.13
37.43,0.44,-2.68,0.44,-2.67,2.67,3.45,4.18,3.11,3.12,3.12
37.81,0.50,-2.61,0.51,-2.60,2.60,3.38,4.05,3.10,3.11,3.11
38.19,0.56,-2.53,0.56,-2.54,2.54,3.32,3.92,3.10,3.10,3.09
38.57,0.62,-2.47,0.62,-2.47,2.47,3.25,3.79,3.09,3.09,3.09
38.95,0.66,-2.41,0.66,-2.41,2.41,3.18,3.66,3.07,3.07,3.07
39.34,0.71,-2.35,0.71,-2.35,2.35,3.11,3.53,3.06,3.06,3.06
39.74,0.74,-2.30,0.75,-2.30,2.30,3.04,3.40,3.04,3.04,3.04
40.14,0.80,-2.24,0.79,-2.24,2.24,2.97,3.27,3.04,3.04,3.04
40.54,0.83,-2.19,0.83,-2.19,2.19,2.90,3.14,3.02,3.03,3.02
40.94,0.88,-2.14,0.88,-2.14,2.14,2.82,3.02,3.02,3.02,3.02
41.35,0.91,-2.09,0.91,-2.10,2.09,2.75,2.89,3.00,3.00,3.00
41.76,0.94,-2.05,0.95,-2.05,2.04,2.67,2.77,2.99,2.99,2.99
42.18,0.98,-2.01,0.98,-2.00,2.00,2.59,2.64,2.98,2.98,2.99
42.60,1.03,-1.94,1.02,-1.95,1.95,2.51,2.52,2.98,2.97,2.97
43.03,1.06,-1.90,1.06,-1.90,1.90,2.43,2.40,2.96,2.96,2.96
43.46,1.10,-1.85,1.10,-1.85,1.85,2.35,2.28,2.95,2.94,2.95
43.90,1.12,-1.80,1.13,-1.79,1.79,2.27,2.17,2.91,2.92,2.92
44.33,1.17,-1.73,1.16,-1.74,1.74,2.19,2.05,2.91,2.90,2.90
44.78,1.19,-1.69,1.19,-1.69,1.69,2.10,1.94,2.88,2.89,2.88
45.23,1.22,-1.64,1.23,-1.64,1.64,2.02,1.83,2.86,2.87,2.86
45.68,1.26,-1.59,1.25,-1.60,1.60,1.93,1.72,2.86,2.85,2.85
46.13,1.28,-1.55,1.28,-1.55,1.55,1.84,1.61,2.83,2.83,2.83
46.60,1.31,-1.51,1.31,-1.50,1.50,1.75,1.50,2.81,2.82,2.82
47.06,1.35,-1.45,1.34,-1.46,1.45,1.66,1.39,2.80,2.79,2.80
47.53,1.37,-1.41,1.37,-1.41,1.40,1.57,1.29,2.77,2.78,2.78
48.01,1.40,-1.37,1.41,-1.35,1.35,1.48,1.19,2.75,2.76,2.77
48.49,1.45,-1.29,1.44,-1.30,1.29,1.39,1.09,2.74,2.73,2.74
48.97,1.47,-1.24,1.47,-1.23,1.23,1.30,0.99,2.70,2.71,2.71
49.46,1.50,-1.17,1.51,-1.17,1.17,1.21,0.89,2.68,2.68,2.67
49.96,1.54,-1.10,1.54,-1.11,1.11,1.11,0.79,2.65,2.65,2.64
50.46,1.58,-1.05,1.58,-1.05,1.05,1.02,0.70,2.63,2.63,2.63
50.96,1.61,-1.00,1.61,-0.99,0.99,0.92,0.60,2.60,2.60,2.61
51.47,1.65,-0.92,1.65,-0.93,0.93,0.83,0.51,2.58,2.58,2.57
51.99,1.68,-0.87,1.69,-0.87,0.87,0.74,0.42,2.55,2.56,2.55
52.51,1.73,-0.81,1.72,-0.81,0.81,0.64,0.34,2.54,2.54,2.54
53.03,1.76,-0.75,1.76,-0.76,0.75,0.55,0.25,2.51,2.51,2.51
53.56,1.79,-0.70,1.79,-0.70,0.69,0.45,0.17,2.48,2.48,2.49
54.10,1.82,-0.64,1.83,-0.64,0.63,0.36,0.08,2.45,2.46,2.46
54.64,1.87,-0.57,1.87,-0.57,0.57,0.27,0.00,2.44,2.43,2.44
55.18,1.91,-0.50,1.90,-0.51,0.51,0.18,-0.07,2.42,2.41,2.41
55.74,1.94,-0.44,1.94,-0.44,0.44,0.09,-0.15,2.38,2.39,2.38
56.29,1.97,-0.40,1.98,-0.38,0.38,-0.00,-0.22,2.35,2.36,2.37
56.86,2.03,-0.31,2.02,-0.32,0.32,-0.09,-0.29,2.35,2.34,2.34
57.42,2.06,-0.25,2.06,-0.25,0.26,-0.18,-0.36,2.32,2.32,2.31
58.00,2.09,-0.20,2.09,-0.20,0.20,-0.26,-0.42,2.29,2.30,2.29
58.58,2.12,-0.15,2.12,-0.15,0.15,-0.35,-0.48,2.27,2.26,2.27
59.16,2.15,-0.10,2.16,-0.09,0.09,-0.43,-0.54,2.24,2.24,2.25
59.76,2.19,-0.04,2.19,-0.04,0.03,-0.51,-0.59,2.22,2.22,2.23
60.35,2.24,0.04,2.22,0.02,-0.03,-0.59,-0.64,2.21,2.19,2.20
60.96,2.24,0.07,2.26,0.09,-0.09,-0.66,-0.69,2.15,2.17,2.17
61.57,2.29,0.16,2.29,0.15,-0.15,-0.73,-0.73,2.14,2.14,2.13
62.18,2.33,0.23,2.32,0.21,-0.21,-0.80,-0.77,2.12,2.11,2.10
62.80,2.33,0.26,2.35,0.28,-0.27,-0.87,-0.81,2.07,2.08,2.07
63.43,2.37,0.33,2.36,0.32,-0.32,-0.93,-0.85,2.05,2.04,2.04
64.07,2.38,0.37,2.38,0.37,-0.37,-0.99,-0.88,2.01,2.01,2.01
64.71,2.39,0.41,2.40,0.42,-0.42,-1.05,-0.90,1.97,1.98,1.98
65.35,2.43,0.47,2.42,0.46,-0.47,-1.10,-0.93,1.96,1.95,1.96
66.01,2.43,0.50,2.44,0.51,-0.51,-1.15,-0.95,1.92,1.93,1.93
66.67,2.47,0.57,2.46,0.56,-0.56,-1.20,-0.97,1.91,1.90,1.90
67.33,2.47,0.60,2.47,0.60,-0.60,-1.24,-0.98,1.87,1.87,1.87
68.01,2.47,0.63,2.49,0.65,-0.65,-1.28,-1.00,1.82,1.84,1.84
68.69,2.52,0.71,2.50,0.70,-0.69,-1.32,-1.01,1.83,1.81,1.81
69.37,2.52,0.74,2.52,0.74,-0.73,-1.35,-1.02,1.79,1.79,1.78
70.07,2.52,0.78,2.52,0.78,-0.77,-1.38,-1.02,1.75,1.76,1.74
70.77,2.52,0.80,2.52,0.80,-0.81,-1.41,-1.03,1.71,1.71,1.72
71.48,2.52,0.83,2.52,0.83,-0.84,-1.43,-1.03,1.68,1.68,1.69
72.19,2.52,0.87,2.52,0.87,-0.87,-1.46,-1.04,1.65,1.65,1.65
72.91,2.52,0.91,2.52,0.90,-0.91,-1.47,-1.04,1.61,1.61,1.61
73.64,2.52,0.94,2.52,0.94,-0.94,-1.49,-1.04,1.58,1.58,1.58
74.38,2.52,0.97,2.52,0.97,-0.97,-1.50,-1.04,1.55,1.55,1.55
75.12,2.52,1.01,2.52,1.01,-1.00,-1.51,-1.04,1.52,1.52,1.51
75.87,2.52,1.04,2.52,1.04,-1.04,-1.52,-1.04,1.48,1.48,1.48
76.63,2.52,1.07,2.52,1.07,-1.07,-1.52,-1.04,1.45,1.45,1.45
77.40,2.52,1.10,2.52,1.10,-1.10,-1.53,-1.04,1.42,1.42,1.42
78.17,2.52,1.14,2.52,1.13,-1.13,-1.53,-1.04,1.39,1.39,1.38
78.95,2.52,1.16,2.52,1.17,-1.17,-1.53,-1.04,1.35,1.35,1.36
79.74,2.52,1.20,2.52,1.20,-1.20,-1.53,-1.03,1.32,1.31,1.32
80.54,2.52,1.23,2.52,1.23,-1.24,-1.53,-1.03,1.28,1.28,1.29
81.35,2.52,1.27,2.53,1.28,-1.28,-1.53,-1.04,1.24,1.25,1.25
82.16,2.55,1.33,2.55,1.33,-1.33,-1.53,-1.04,1.22,1.22,1.22
82.98,2.57,1.38,2.56,1.38,-1.37,-1.52,-1.04,1.20,1.19,1.19
83.81,2.57,1.42,2.57,1.42,-1.41,-1.52,-1.04,1.16,1.16,1.15
84.65,2.57,1.46,2.57,1.46,-1.46,-1.52,-1.04,1.11,1.12,1.11
85.50,2.57,1.49,2.57,1.49,-1.50,-1.52,-1.05,1.07,1.07,1.08
86.35,2.57,1.53,2.57,1.53,-1.54,-1.52,-1.05,1.03,1.03,1.04
87.22,2.57,1.57,2.58,1.57,-1.58,-1.52,-1.06,0.99,1.00,1.00
88.09,2.59,1.63,2.58,1.61,-1.62,-1.52,-1.07,0.97,0.96,0.96
88.97,2.57,1.64,2.58,1.66,-1.65,-1.53,-1.08,0.92,0.93,0.93
89.86,2.57,1.68,2.57,1.69,-1.68,-1.53,-1.08,0.89,0.89,0.89
90.76,2.57,1.74,2.55,1.71,-1.71,-1.54,-1.09,0.86,0.84,0.83
91.66,2.52,1.72,2.54,1.74,-1.74,-1.55,-1.10,0.78,0.80,0.80
92.58,2.52,1.77,2.52,1.76,-1.76,-1.56,-1.12,0.76,0.76,0.75
93.51,2.49,1.77,2.49,1.77,-1.78,-1.57,-1.13,0.71,0.71,0.72
94.44,2.47,1.80,2.47,1.80,-1.80,-1.59,-1.14,0.67,0.67,0.67
95.39,2.43,1.80,2.43,1.81,-1.81,-1.60,-1.16,0.62,0.62,0.63
96.34,2.40,1.83,2.40,1.82,-1.83,-1.62,-1.17,0.57,0.57,0.57
97.30,2.36,1.83,2.36,1.83,-1.84,-1.63,-1.19,0.52,0.53,0.53
98.28,2.32,1.84,2.32,1.84,-1.84,-1.65,-1.20,0.48,0.48,0.48
99.26,2.29,1.85,2.29,1.85,-1.85,-1.66,-1.22,0.44,0.44,0.44
100.25,2.24,1.85,2.24,1.85,-1.85,-1.67,-1.24,0.39,0.40,0.39
101.25,2.20,1.86,2.19,1.85,-1.84,-1.67,-1.26,0.36,0.35,0.34
102.27,2.12,1.82,2.13,1.84,-1.83,-1.67,-1.28,0.29,0.30,0.30
103.29,2.07,1.83,2.07,1.82,-1.82,-1.67,-1.29,0.25,0.25,0.24
104.32,2.01,1.80,2.01,1.80,-1.81,-1.66,-1.31,0.20,0.20,0.21
105.37,1.94,1.78,1.95,1.79,-1.79,-1.64,-1.33,0.15,0.16,0.16
106.42,1.89,1.78,1.88,1.77,-1.77,-1.62,-1.35,0.12,0.11,0.11
107.48,1.81,1.74,1.81,1.75,-1.74,-1.59,-1.37,0.06,0.06,0.07
108.56,1.73,1.72,1.73,1.72,-1.72,-1.56,-1.38,0.01,0.01,0.01
109.64,1.65,1.69,1.65,1.69,-1.70,-1.52,-1.40,-0.05,-0.04,-0.04
110.74,1.58,1.66,1.58,1.67,-1.67,-1.48,-1.41,-0.09,-0.09,-0.08
111.85,1.51,1.64,1.51,1.64,-1.64,-1.44,-1.43,-0.13,-0.13,-0.13
112.97,1.44,1.63,1.43,1.61,-1.61,-1.40,-1.44,-0.17,-0.18,-0.19
114.10,1.33,1.57,1.34,1.58,-1.57,-1.36,-1.45,-0.24,-0.24,-0.24
115.24,1.24,1.53,1.24,1.53,-1.54,-1.31,-1.46,-0.30,-0.30,-0.29
116.39,1.14,1.49,1.14,1.49,-1.50,-1.27,-1.47,-0.36,-0.36,-0.35
117.55,1.05,1.45,1.05,1.45,-1.45,-1.23,-1.48,-0.40,-0.40,-0.40
118.73,0.95,1.41,0.95,1.41,-1.40,-1.19,-1.48,-0.45,-0.45,-0.46
119.92,0.86,1.36,0.85,1.36,-1.34,-1.15,-1.48,-0.48,-0.49,-0.50
121.12,0.74,1.29,0.74,1.29,-1.28,-1.11,-1.49,-0.54,-0.54,-0.55
122.33,0.62,1.22,0.62,1.22,-1.22,-1.08,-1.48,-0.60,-0.60,-0.60
123.55,0.49,1.14,0.50,1.14,-1.16,-1.05,-1.48,-0.67,-0.66,-0.65
124.79,0.38,1.08,0.37,1.07,-1.09,-1.02,-1.47,-0.71,-0.71,-0.70
126.03,0.25,1.00,0.25,1.00,-1.01,-0.99,-1.46,-0.76,-0.76,-0.75
127.29,0.13,0.93,0.13,0.93,-0.93,-0.97,-1.45,-0.80,-0.80,-0.80
128.57,0.00,0.86,0.01,0.86,-0.84,-0.94,-1.43,-0.84,-0.83,-0.86
129.85,-0.13,0.77,-0.13,0.78,-0.74,-0.92,-1.41,-0.87,-0.87,-0.90
131.15,-0.26,0.69,-0.28,0.67,-0.64,-0.90,-1.39,-0.90,-0.92,-0.95
132.46,-0.45,0.55,-0.45,0.55,-0.54,-0.88,-1.37,-0.99,-0.99,-1.00
133.79,-0.63,0.41,-0.62,0.42,-0.44,-0.87,-1.34,-1.07,-1.06,-1.04
135.12,-0.78,0.31,-0.78,0.30,-0.34,-0.85,-1.32,-1.12,-1.12,-1.09
136.48,-0.92,0.21,-0.91,0.22,-0.24,-0.84,-1.29,-1.16,-1.16,-1.13
137.84,-1.02,0.15,-1.02,0.16,-0.16,-0.82,-1.25,-1.18,-1.18,-1.17
139.22,-1.12,0.11,-1.12,0.10,-0.09,-0.81,-1.22,-1.21,-1.21,-1.23
140.61,-1.21,0.06,-1.22,0.04,-0.04,-0.80,-1.19,-1.25,-1.25,-1.27
142.02,-1.30,-0.01,-1.30,0.00,-0.00,-0.79,-1.15,-1.30,-1.30,-1.29
143.44,-1.38,-0.05,-1.37,-0.03,0.02,-0.78,-1.11,-1.36,-1.34,-1.33
144.87,-1.40,-0.03,-1.41,-0.04,0.03,-0.77,-1.08,-1.37,-1.38,-1.37
146.32,-1.45,-0.04,-1.44,-0.03,0.04,-0.76,-1.04,-1.41,-1.40,-1.41
147.78,-1.45,-0.01,-1.46,-0.02,0.02,-0.75,-0.99,-1.43,-1.44,-1.44
149.26,-1.48,-0.00,-1.48,0.00,-0.00,-0.75,-0.95,-1.48,-1.48,-1.48
150.75,-1.49,0.04,-1.49,0.03,-0.04,-0.74,-0.91,-1.53,-1.53,-1.53
152.26,-1.49,0.07,-1.48,0.08,-0.09,-0.74,-0.87,-1.58,-1.58,-1.56
153.78,-1.46,0.14,-1.46,0.14,-0.15,-0.73,-0.83,-1.61,-1.61,-1.60
155.32,-1.42,0.22,-1.42,0.22,-0.22,-0.73,-0.78,-1.64,-1.64,-1.64
156.88,-1.38,0.30,-1.38,0.30,-0.29,-0.72,-0.74,-1.67,-1.68,-1.68
158.44,-1.34,0.38,-1.34,0.38,-0.37,-0.72,-0.70,-1.71,-1.71,-1.72
160.03,-1.31,0.45,-1.31,0.46,-0.44,-0.72,-0.65,-1.75,-1.75,-1.76
161.63,-1.26,0.54,-1.27,0.53,-0.52,-0.72,-0.61,-1.78,-1.79,-1.80
163.24,-1.26,0.58,-1.25,0.59,-0.59,-0.71,-0.56,-1.85,-1.84,-1.84
164.88,-1.22,0.65,-1.22,0.65,-0.65,-0.71,-0.52,-1.87,-1.88,-1.87
166.53,-1.21,0.70,-1.20,0.71,-0.71,-0.71,-0.48,-1.92,-1.91,-1.91
168.19,-1.18,0.77,-1.18,0.77,-0.76,-0.72,-0.43,-1.94,-1.94,-1.95
169.87,-1.17,0.82,-1.17,0.81,-0.81,-0.72,-0.39,-1.98,-1.98,-1.99
171.57,-1.17,0.86,-1.17,0.86,-0.86,-0.72,-0.35,-2.03,-2.02,-2.03
173.29,-1.17,0.89,-1.17,0.89,-0.90,-0.72,-0.30,-2.07,-2.07,-2.06
175.02,-1.17,0.93,-1.17,0.93,-0.94,-0.73,-0.26,-2.11,-2.11,-2.10
176.77,-1.17,0.97,-1.17,0.97,-0.98,-0.73,-0.22,-2.15,-2.15,-2.14
178.54,-1.17,1.02,-1.17,1.01,-1.01,-0.74,-0.17,-2.18,-2.18,-2.19
180.32,-1.17,1.05,-1.17,1.05,-1.04,-0.75,-0.13,-2.21,-2.21,-2.22
182.13,-1.17,1.08,-1.18,1.07,-1.07,-0.76,-0.09,-2.24,-2.25,-2.25
183.95,-1.21,1.08,-1.20,1.09,-1.09,-0.76,-0.05,-2.30,-2.29,-2.29
185.79,-1.23,1.09,-1.23,1.10,-1.10,-0.77,-0.01,-2.33,-2.33,-2.32
187.65,-1.26,1.11,-1.26,1.10,-1.11,-0.78,0.04,-2.37,-2.37,-2.37
189.52,-1.29,1.11,-1.29,1.10,-1.10,-0.79,0.08,-2.39,-2.39,-2.40
191.42,-1.33,1.10,-1.33,1.10,-1.09,-0.80,0.12,-2.42,-2.42,-2.43
193.33,-1.38,1.07,-1.38,1.07,-1.07,-0.80,0.16,-2.45,-2.45,-2.45
195.27,-1.43,1.05,-1.44,1.05,-1.05,-0.81,0.20,-2.48,-2.48,-2.48
197.22,-1.51,1.00,-1.50,1.01,-1.01,-0.81,0.24,-2.52,-2.52,-2.51
199.19,-1.57,0.98,-1.57,0.97,-0.98,-0.81,0.28,-2.55,-2.54,-2.55
201.18,-1.63,0.93,-1.64,0.93,-0.93,-0.80,0.32,-2.56,-2.57,-2.56
203.19,-1.70,0.88,-1.70,0.89,-0.88,-0.79,0.36,-2.58,-2.58,-2.58
205.23,-1.78,0.83,-1.78,0.82,-0.82,-0.77,0.40,-2.60,-2.60,-2.61
207.28,-1.84,0.77,-1.85,0.77,-0.76,-0.75,0.43,-2.60,-2.61,-2.61
209.35,-1.95,0.69,-1.94,0.70,-0.70,-0.71,0.47,-2.65,-2.63,-2.64
211.44,-2.01,0.65,-2.02,0.63,-0.63,-0.68,0.51,-2.64,-2.65,-2.66
213.56,-2.12,0.54,-2.11,0.55,-0.56,-0.63,0.54,-2.68,-2.67,-2.66
215.69,-2.19,0.48,-2.19,0.48,-0.49,-0.58,0.58,-2.68,-2.68,-2.67
217.85,-2.27,0.41,-2.27,0.41,-0.42,-0.52,0.61,-2.69,-2.69,-2.68
220.03,-2.34,0.35,-2.34,0.35,-0.35,-0.45,0.65,-2.69,-2.69,-2.69
222.23,-2.42,0.28,-2.41,0.28,-0.28,-0.38,0.68,-2.70,-2.69,-2.70
224.45,-2.48,0.21,-2.48,0.22,-0.21,-0.30,0.71,-2.69,-2.69,-2.69
226.70,-2.55,0.15,-2.55,0.14,-0.14,-0.22,0.74,-2.69,-2.69,-2.70
228.96,-2.63,0.07,-2.62,0.07,-0.07,-0.14,0.76,-2.70,-2.69,-2.70
231.25,-2.69,-0.00,-2.69,-0.00,0.00,-0.05,0.79,-2.69,-2.69,-2.69
233.57,-2.76,-0.07,-2.77,-0.08,0.08,0.04,0.81,-2.68,-2.69,-2.69
235.90,-2.84,-0.15,-2.84,-0.15,0.15,0.13,0.84,-2.69,-2.69,-2.69
238.26,-2.92,-0.23,-2.91,-0.23,0.23,0.22,0.86,-2.69,-2.68,-2.69
240.64,-2.97,-0.29,-2.98,-0.30,0.30,0.32,0.88,-2.67,-2.68,-2.68
243.05,-3.05,-0.39,-3.04,-0.38,0.38,0.41,0.89,-2.67,-2.66,-2.66
245.48,-3.11,-0.46,-3.11,-0.46,0.46,0.50,0.91,-2.65,-2.65,-2.65
247.93,-3.18,-0.54,-3.18,-0.54,0.54,0.60,0.92,-2.64,-2.64,-2.64
250.41,-3.26,-0.62,-3.25,-0.62,0.62,0.69,0.93,-2.64,-2.63,-2.64
252.92,-3.32,-0.70,-3.32,-0.71,0.71,0.78,0.94,-2.61,-2.62,-2.62
255.45,-3.39,-0.80,-3.39,-0.80,0.79,0.87,0.95,-2.60,-2.60,-2.59
258.00,-3.47,-0.89,-3.46,-0.88,0.88,0.96,0.95,-2.59,-2.58,-2.58
260.58,-3.53,-0.96,-3.53,-0.97,0.97,1.05,0.95,-2.56,-2.56,-2.57
263.19,-3.60,-1.06,-3.60,-1.06,1.07,1.14,0.96,-2.53,-2.54,-2.54
265.82,-3.68,-1.15,-3.68,-1.15,1.16,1.22,0.95,-2.52,-2.52,-2.53
268.48,-3.76,-1.25,-3.76,-1.25,1.25,1.30,0.95,-2.51,-2.51,-2.51
271.16,-3.84,-1.36,-3.83,-1.35,1.34,1.38,0.95,-2.50,-2.49,-2.48
273.87,-3.89,-1.42,-3.90,-1.44,1.43,1.45,0.94,-2.46,-2.47,-2.47
276.61,-3.97,-1.53,-3.97,-1.52,1.52,1.52,0.94,-2.45,-2.44,-2.44
279.38,-4.03,-1.60,-4.02,-1.60,1.61,1.59,0.93,-2.42,-2.42,-2.43
282.17,-4.08,-1.67,-4.09,-1.68,1.69,1.64,0.92,-2.39,-2.40,-2.41
284.99,-4.14,-1.75,-4.14,-1.75,1.76,1.70,0.91,-2.38,-2.38,-2.39
287.84,-4.20,-1.83,-4.20,-1.83,1.82,1.75,0.90,-2.38,-2.38,-2.37
290.72,-4.24,-1.89,-4.24,-1.89,1.87,1.79,0.89,-2.37,-2.37,-2.35
293.63,-4.27,-1.94,-4.26,-1.93,1.91,1.82,0.87,-2.36,-2.35,-2.33
296.57,-4.24,-1.93,-4.25,-1.94,1.94,1.85,0.86,-2.30,-2.31,-2.31
299.53,-4.24,-1.95,-4.24,-1.95,1.96,1.87,0.85,-2.28,-2.28,-2.29
302.53,-4.20,-1.93,-4.21,-1.94,1.96,1.88,0.84,-2.24,-2.25,-2.27
305.55,-4.20,-1.96,-4.19,-1.95,1.95,1.88,0.82,-2.25,-2.24,-2.24
308.61,-4.15,-1.93,-4.16,-1.94,1.93,1.88,0.81,-2.22,-2.23,-2.22
311.69,-4.12,-1.92,-4.11,-1.92,1.89,1.87,0.80,-2.23,-2.22,-2.20
314.81,-4.03,-1.87,-4.04,-1.87,1.85,1.86,0.78,-2.18,-2.19,-2.16
317.96,-3.96,-1.82,-3.95,-1.81,1.80,1.84,0.77,-2.16,-2.15,-2.14
321.14,-3.86,-1.73,-3.86,-1.74,1.75,1.81,0.76,-2.11,-2.11,-2.13
324.35,-3.78,-1.67,-3.78,-1.68,1.70,1.78,0.74,-2.08,-2.08,-2.11
327.59,-3.71,-1.63,-3.71,-1.63,1.65,1.75,0.73,-2.06,-2.06,-2.08
330.87,-3.65,-1.59,-3.65,-1.59,1.60,1.71,0.72,-2.05,-2.05,-2.06
334.18,-3.60,-1.55,-3.60,-1.55,1.56,1.67,0.71,-2.04,-2.04,-2.05
337.52,-3.55,-1.52,-3.55,-1.53,1.53,1.62,0.70,-2.02,-2.03,-2.03
340.90,-3.51,-1.51,-3.51,-1.51,1.50,1.58,0.69,-2.01,-2.01,-2.00
344.30,-3.47,-1.49,-3.47,-1.48,1.48,1.53,0.68,-1.99,-1.99,-1.98
347.75,-3.43,-1.46,-3.43,-1.46,1.46,1.48,0.67,-1.97,-1.97,-1.97
351.23,-3.38,-1.43,-3.38,-1.44,1.43,1.43,0.66,-1.95,-1.95,-1.95
354.74,-3.34,-1.41,-3.34,-1.41,1.41,1.38,0.65,-1.93,-1.93,-1.93
358.28,-3.31,-1.40,-3.30,-1.39,1.38,1.33,0.64,-1.93,-1.92,-1.91
361.87,-3.26,-1.36,-3.26,-1.37,1.36,1.28,0.64,-1.90,-1.90,-1.90
365.49,-3.23,-1.35,-3.22,-1.34,1.34,1.23,0.63,-1.89,-1.88,-1.88
369.14,-3.17,-1.30,-3.18,-1.31,1.33,1.18,0.62,-1.84,-1.85,-1.87
372.83,-3.14,-1.29,-3.15,-1.30,1.31,1.14,0.62,-1.83,-1.84,-1.85
376.56,-3.13,-1.29,-3.13,-1.29,1.30,1.09,0.61,-1.83,-1.83,-1.84
380.33,-3.13,-1.32,-3.12,-1.30,1.29,1.05,0.61,-1.84,-1.83,-1.81
384.13,-3.08,-1.27,-3.09,-1.29,1.28,1.00,0.60,-1.80,-1.82,-1.81
387.97,-3.08,-1.28,-3.07,-1.27,1.27,0.96,0.60,-1.81,-1.80,-1.80
391.85,-3.03,-1.24,-3.04,-1.25,1.26,0.92,0.60,-1.77,-1.78,-1.79
395.77,-3.02,-1.25,-3.02,-1.24,1.25,0.88,0.59,-1.77,-1.77,-1.77
399.73,-2.99,-1.23,-2.99,-1.22,1.23,0.84,0.59,-1.76,-1.76,-1.76
403.72,-2.96,-1.21,-2.96,-1.21,1.21,0.81,0.59,-1.75,-1.75,-1.75
407.76,-2.93,-1.19,-2.93,-1.19,1.19,0.77,0.59,-1.74,-1.74,-1.74
411.84,-2.89,-1.16,-2.89,-1.16,1.16,0.74,0.59,-1.73,-1.73,-1.73
415.96,-2.85,-1.13,-2.85,-1.13,1.13,0.71,0.58,-1.72,-1.73,-1.72
420.12,-2.81,-1.10,-2.80,-1.09,1.09,0.68,0.58,-1.72,-1.71,-1.71
424.32,-2.74,-1.04,-2.75,-1.05,1.04,0.65,0.58,-1.70,-1.70,-1.70
428.56,-2.68,-0.99,-2.68,-0.99,0.99,0.62,0.58,-1.69,-1.69,-1.69
432.85,-2.62,-0.94,-2.61,-0.93,0.94,0.60,0.58,-1.68,-1.67,-1.68
437.18,-2.55,-0.88,-2.55,-0.88,0.88,0.57,0.58,-1.67,-1.66,-1.67
441.55,-2.47,-0.82,-2.48,-0.82,0.82,0.55,0.57,-1.65,-1.66,-1.65
445.96,-2.41,-0.77,-2.40,-0.76,0.76,0.52,0.57,-1.65,-1.64,-1.64
450.42,-2.34,-0.70,-2.33,-0.70,0.70,0.50,0.57,-1.64,-1.63,-1.64
454.93,-2.24,-0.62,-2.25,-0.63,0.63,0.48,0.56,-1.61,-1.62,-1.62
459.48,-2.18,-0.57,-2.17,-0.57,0.57,0.46,0.56,-1.61,-1.60,-1.61
464.07,-2.08,-0.49,-2.08,-0.50,0.50,0.44,0.56,-1.58,-1.59,-1.59
468.71,-2.00,-0.43,-2.00,-0.43,0.43,0.42,0.55,-1.57,-1.58,-1.57
473.40,-1.91,-0.35,-1.91,-0.35,0.35,0.40,0.55,-1.56,-1.56,-1.56
478.13,-1.83,-0.29,-1.83,-0.28,0.28,0.39,0.54,-1.55,-1.55,-1.54
482.91,-1.73,-0.20,-1.74,-0.21,0.21,0.37,0.53,-1.52,-1.53,-1.53
487.74,-1.66,-0.15,-1.65,-0.14,0.14,0.36,0.52,-1.52,-1.51,-1.51
