frequency,raw,error,smoothed,error_smoothed,equalization,parametric_eq,fixed_band_eq,equalized_raw,equalized_smoothed,target
20.00,8.96,1.75,8.96,1.75,-1.75,-1.51,-0.69,7.21,7.21,7.21
20.20,8.94,1.74,8.95,1.75,-1.75,-1.51,-0.71,7.20,7.20,7.20
20.40,8.93,1.74,8.93,1.74,-1.74,-1.52,-0.73,7.19,7.19,7.19
20.61,8.91,1.74,8.91,1.74,-1.74,-1.52,-0.75,7.17,7.17,7.18
20.81,8.89,1.74,8.89,1.74,-1.73,-1.52,-0.77,7.16,7.16,7.16
21.02,8.87,1.73,8.87,1.72,-1.72,-1.53,-0.79,7.15,7.15,7.15
21.23,8.85,1.72,8.85,1.71,-1.72,-1.53,-0.82,7.14,7.14,7.14
21.44,8.83,1.69,8.84,1.70,-1.70,-1.53,-0.84,7.13,7.13,7.15
21.66,8.82,1.70,8.82,1.69,-1.69,-1.53,-0.86,7.13,7.13,7.13
21.87,8.80,1.68,8.80,1.68,-1.68,-1.54,-0.89,7.13,7.12,7.13
22.09,8.77,1.67,8.78,1.67,-1.66,-1.54,-0.91,7.11,7.12,7.11
22.31,8.75,1.65,8.75,1.65,-1.64,-1.54,-0.94,7.11,7.11,7.10
22.54,8.72,1.63,8.72,1.63,-1.62,-1.55,-0.97,7.10,7.10,7.09
22.76,8.69,1.60,8.69,1.60,-1.60,-1.55,-1.00,7.09,7.09,7.09
22.99,8.66,1.58,8.66,1.58,-1.58,-1.56,-1.02,7.08,7.08,7.08
23.22,8.63,1.56,8.64,1.56,-1.56,-1.56,-1.05,7.07,7.08,7.07
23.45,8.61,1.53,8.61,1.54,-1.54,-1.56,-1.08,7.07,7.07,7.08
23.69,8.59,1.52,8.59,1.52,-1.52,-1.57,-1.11,7.07,7.07,7.07
23.92,8.57,1.51,8.58,1.51,-1.51,-1.57,-1.14,7.06,7.07,7.06
24.16,8.56,1.49,8.56,1.49,-1.50,-1.57,-1.18,7.06,7.06,7.07
24.40,8.55,1.48,8.55,1.49,-1.50,-1.58,-1.21,7.06,7.06,7.07
24.65,8.55,1.48,8.56,1.49,-1.50,-1.58,-1.24,7.06,7.06,7.07
24.89,8.56,1.50,8.56,1.50,-1.50,-1.59,-1.27,7.06,7.06,7.07
25.14,8.57,1.52,8.57,1.51,-1.50,-1.59,-1.30,7.07,7.07,7.06
25.39,8.57,1.52,8.57,1.52,-1.51,-1.59,-1.34,7.07,7.07,7.06
25.65,8.57,1.52,8.57,1.52,-1.51,-1.60,-1.37,7.06,7.06,7.06
25.91,8.57,1.52,8.57,1.52,-1.51,-1.60,-1.40,7.06,7.06,7.05
26.16,8.57,1.51,8.57,1.51,-1.52,-1.61,-1.44,7.06,7.06,7.06
26.43,8.57,1.51,8.57,1.51,-1.52,-1.61,-1.47,7.06,7.06,7.06
26.69,8.57,1.51,8.57,1.51,-1.51,-1.62,-1.50,7.06,7.06,7.06
26.96,8.57,1.51,8.57,1.51,-1.51,-1.62,-1.54,7.06,7.06,7.06
27.23,8.57,1.51,8.57,1.51,-1.51,-1.63,-1.57,7.06,7.06,7.06
27.50,8.57,1.51,8.57,1.51,-1.51,-1.63,-1.60,7.06,7.06,7.06
27.77,8.57,1.51,8.57,1.51,-1.51,-1.64,-1.63,7.07,7.07,7.07
28.05,8.57,1.51,8.57,1.51,-1.50,-1.64,-1.66,7.07,7.07,7.07
28.33,8.57,1.50,8.57,1.50,-1.50,-1.65,-1.69,7.07,7.07,7.07
28.62,8.57,1.50,8.57,1.50,-1.50,-1.65,-1.71,7.08,7.08,7.07
28.90,8.57,1.49,8.57,1.49,-1.50,-1.66,-1.74,7.08,7.08,7.08
29.19,8.57,1.49,8.57,1.49,-1.49,-1.66,-1.76,7.08,7.08,7.08
29.48,8.57,1.49,8.57,1.49,-1.50,-1.67,-1.79,7.08,7.08,7.08
29.78,8.57,1.50,8.57,1.50,-1.50,-1.67,-1.81,7.08,7.08,7.08
30.08,8.57,1.50,8.57,1.50,-1.50,-1.68,-1.83,7.07,7.07,7.08
30.38,8.57,1.51,8.57,1.51,-1.50,-1.68,-1.84,7.07,7.07,7.06
30.68,8.57,1.51,8.57,1.51,-1.51,-1.69,-1.86,7.07,7.07,7.06
30.99,8.57,1.51,8.57,1.51,-1.51,-1.70,-1.87,7.06,7.06,7.06
31.30,8.57,1.51,8.57,1.52,-1.52,-1.70,-1.88,7.06,7.06,7.06
31.61,8.57,1.52,8.57,1.52,-1.52,-1.71,-1.89,7.05,7.05,7.06
31.93,8.57,1.54,8.57,1.53,-1.53,-1.71,-1.90,7.05,7.05,7.04
32.24,8.57,1.53,8.57,1.54,-1.53,-1.72,-1.90,7.04,7.04,7.04
32.57,8.57,1.54,8.57,1.54,-1.54,-1.73,-1.91,7.03,7.03,7.03
32.89,8.57,1.54,8.57,1.54,-1.54,-1.73,-1.91,7.03,7.03,7.03
33.22,8.57,1.55,8.57,1.55,-1.55,-1.74,-1.91,7.02,7.02,7.03
33.55,8.57,1.55,8.57,1.55,-1.56,-1.75,-1.91,7.02,7.02,7.02
33.89,8.57,1.56,8.57,1.56,-1.56,-1.75,-1.90,7.01,7.01,7.01
34.23,8.57,1.57,8.57,1.57,-1.57,-1.76,-1.90,7.01,7.01,7.00
34.57,8.57,1.58,8.57,1.58,-1.57,-1.77,-1.89,7.00,7.00,7.00
34.92,8.57,1.59,8.57,1.58,-1.58,-1.78,-1.88,6.99,6.99,6.98
35.27,8.57,1.57,8.57,1.58,-1.59,-1.78,-1.88,6.98,6.98,7.00
35.62,8.57,1.60,8.58,1.59,-1.61,-1.79,-1.87,6.97,6.97,6.98
35.97,8.58,1.61,8.58,1.61,-1.62,-1.80,-1.86,6.96,6.96,6.97
36.33,8.59,1.63,8.59,1.64,-1.64,-1.81,-1.85,6.96,6.96,6.96
36.70,8.60,1.67,8.60,1.66,-1.65,-1.81,-1.84,6.95,6.95,6.94
37.06,8.60,1.68,8.60,1.68,-1.67,-1.82,-1.83,6.94,6.93,6.92
37.43,8.59,1.68,8.60,1.69,-1.68,-1.83,-1.82,6.91,6.91,6.91
37.81,8.58,1.69,8.59,1.69,-1.69,-1.84,-1.81,6.89,6.90,6.89
38.19,8.57,1.70,8.57,1.69,-1.70,-1.85,-1.80,6.88,6.87,6.87
38.57,8.55,1.70,8.55,1.69,-1.70,-1.86,-1.79,6.86,6.86,6.86
38.95,8.52,1.68,8.53,1.69,-1.69,-1.86,-1.79,6.83,6.84,6.84
39.34,8.50,1.69,8.50,1.68,-1.68,-1.87,-1.78,6.82,6.82,6.82
39.74,8.47,1.68,8.47,1.68,-1.67,-1.88,-1.77,6.80,6.80,6.79
40.14,8.44,1.67,8.44,1.66,-1.66,-1.89,-1.77,6.78,6.78,6.78
40.54,8.40,1.64,8.41,1.65,-1.65,-1.90,-1.76,6.76,6.76,6.76
40.94,8.37,1.64,8.37,1.63,-1.64,-1.91,-1.76,6.74,6.74,6.74
41.35,8.34,1.62,8.34,1.62,-1.62,-1.92,-1.76,6.72,6.72,6.72
41.76,8.31,1.62,8.32,1.62,-1.62,-1.93,-1.76,6.70,6.70,6.70
42.18,8.29,1.60,8.29,1.61,-1.61,-1.94,-1.76,6.68,6.68,6.69
42.60,8.27,1.61,8.27,1.61,-1.61,-1.95,-1.76,6.67,6.66,6.66
43.03,8.25,1.61,8.25,1.61,-1.61,-1.96,-1.76,6.64,6.64,6.65
43.46,8.23,1.61,8.24,1.62,-1.62,-1.97,-1.77,6.61,6.62,6.62
43.90,8.23,1.63,8.23,1.63,-1.64,-1.98,-1.77,6.60,6.59,6.60
44.33,8.23,1.66,8.23,1.65,-1.66,-1.99,-1.78,6.58,6.57,6.58
44.78,8.23,1.68,8.24,1.68,-1.68,-2.00,-1.79,6.55,6.56,6.56
45.23,8.24,1.70,8.24,1.71,-1.71,-2.01,-1.80,6.53,6.53,6.54
45.68,8.25,1.75,8.25,1.74,-1.74,-2.02,-1.81,6.51,6.51,6.50
46.13,8.25,1.78,8.25,1.78,-1.77,-2.03,-1.82,6.48,6.48,6.47
46.60,8.25,1.81,8.25,1.81,-1.81,-2.04,-1.83,6.45,6.45,6.44
47.06,8.25,1.84,8.25,1.84,-1.84,-2.06,-1.85,6.41,6.41,6.41
47.53,8.25,1.87,8.25,1.87,-1.88,-2.07,-1.86,6.38,6.38,6.39
48.01,8.25,1.92,8.25,1.91,-1.91,-2.08,-1.88,6.34,6.34,6.34
48.49,8.25,1.95,8.25,1.95,-1.95,-2.09,-1.90,6.30,6.30,6.31
48.97,8.25,1.99,8.25,1.99,-1.99,-2.10,-1.92,6.27,6.27,6.26
49.46,8.25,2.02,8.25,2.03,-2.02,-2.11,-1.94,6.23,6.23,6.23
49.96,8.25,2.07,8.25,2.06,-2.06,-2.13,-1.96,6.20,6.20,6.18
50.46,8.25,2.09,8.25,2.09,-2.09,-2.14,-1.98,6.16,6.16,6.16
50.96,8.25,2.12,8.25,2.13,-2.13,-2.15,-2.00,6.13,6.13,6.13
51.47,8.25,2.16,8.25,2.16,-2.16,-2.16,-2.03,6.09,6.09,6.10
51.99,8.25,2.20,8.25,2.19,-2.20,-2.18,-2.05,6.06,6.06,6.05
52.51,8.25,2.22,8.25,2.22,-2.23,-2.19,-2.08,6.02,6.02,6.03
53.03,8.25,2.25,8.26,2.26,-2.27,-2.20,-2.10,5.99,5.99,6.00
53.56,8.26,2.29,8.26,2.29,-2.30,-2.22,-2.13,5.96,5.96,5.97
54.10,8.27,2.35,8.27,2.34,-2.34,-2.23,-2.15,5.94,5.93,5.93
54.64,8.27,2.37,8.27,2.38,-2.37,-2.24,-2.18,5.90,5.91,5.90
55.18,8.27,2.41,8.27,2.41,-2.40,-2.26,-2.20,5.88,5.87,5.86
55.74,8.26,2.44,8.26,2.43,-2.42,-2.27,-2.23,5.84,5.84,5.83
56.29,8.24,2.43,8.25,2.44,-2.44,-2.28,-2.25,5.81,5.81,5.81
56.86,8.22,2.44,8.22,2.45,-2.44,-2.30,-2.28,5.78,5.78,5.78
57.42,8.20,2.46,8.20,2.45,-2.45,-2.31,-2.30,5.75,5.75,5.74
58.00,8.17,2.46,8.17,2.45,-2.45,-2.33,-2.32,5.72,5.72,5.71
58.58,8.14,2.45,8.14,2.45,-2.45,-2.34,-2.34,5.69,5.70,5.70
59.16,8.11,2.44,8.11,2.44,-2.45,-2.35,-2.36,5.66,5.66,5.67
59.76,8.08,2.44,8.08,2.44,-2.45,-2.37,-2.38,5.63,5.63,5.64
60.35,8.05,2.45,8.05,2.45,-2.46,-2.38,-2.39,5.60,5.60,5.60
60.96,8.02,2.46,8.02,2.46,-2.47,-2.40,-2.41,5.56,5.56,5.56
61.57,7.99,2.49,7.99,2.48,-2.48,-2.41,-2.42,5.51,5.51,5.51
62.18,7.96,2.50,7.97,2.50,-2.50,-2.43,-2.44,5.47,5.47,5.46
62.80,7.94,2.52,7.94,2.52,-2.52,-2.45,-2.45,5.42,5.42,5.42
63.43,7.92,2.55,7.92,2.55,-2.55,-2.46,-2.45,5.38,5.38,5.37
64.07,7.91,2.57,7.91,2.57,-2.58,-2.48,-2.46,5.34,5.34,5.34
64.71,7.90,2.60,7.90,2.60,-2.61,-2.49,-2.47,5.29,5.29,5.30
65.35,7.90,2.64,7.90,2.64,-2.65,-2.51,-2.47,5.25,5.25,5.26
66.01,7.91,2.69,7.91,2.68,-2.69,-2.52,-2.47,5.22,5.22,5.23
66.67,7.92,2.73,7.93,2.73,-2.74,-2.54,-2.48,5.19,5.19,5.20
67.33,7.94,2.80,7.94,2.79,-2.78,-2.56,-2.48,5.16,5.16,5.15
68.01,7.95,2.84,7.95,2.83,-2.83,-2.57,-2.48,5.13,5.12,5.12
68.69,7.95,2.88,7.96,2.88,-2.87,-2.59,-2.47,5.09,5.09,5.08
69.37,7.95,2.91,7.95,2.91,-2.91,-2.61,-2.47,5.05,5.05,5.04
70.07,7.94,2.94,7.94,2.94,-2.94,-2.62,-2.47,5.00,5.00,5.00
70.77,7.92,2.97,7.93,2.96,-2.97,-2.64,-2.47,4.96,4.96,4.96
71.48,7.90,2.98,7.90,2.99,-2.99,-2.66,-2.46,4.92,4.92,4.92
72.19,7.88,3.01,7.88,3.00,-3.00,-2.67,-2.46,4.88,4.88,4.88
72.91,7.85,3.02,7.85,3.02,-3.02,-2.69,-2.46,4.84,4.84,4.83
73.64,7.82,3.03,7.82,3.03,-3.03,-2.71,-2.46,4.80,4.80,4.79
74.38,7.79,3.04,7.79,3.04,-3.03,-2.72,-2.46,4.76,4.76,4.75
75.12,7.76,3.04,7.76,3.04,-3.04,-2.74,-2.45,4.73,4.73,4.73
75.87,7.73,3.04,7.73,3.04,-3.04,-2.76,-2.45,4.69,4.69,4.70
76.63,7.70,3.05,7.70,3.04,-3.04,-2.78,-2.46,4.66,4.66,4.66
77.40,7.67,3.04,7.67,3.04,-3.04,-2.79,-2.46,4.63,4.63,4.63
78.17,7.64,3.05,7.64,3.05,-3.05,-2.81,-2.46,4.60,4.60,4.59
78.95,7.62,3.04,7.62,3.05,-3.06,-2.83,-2.47,4.57,4.57,4.58
79.74,7.60,3.06,7.60,3.06,-3.07,-2.85,-2.47,4.53,4.53,4.54
80.54,7.59,3.07,7.59,3.08,-3.09,-2.87,-2.48,4.50,4.50,4.52
81.35,7.59,3.11,7.60,3.11,-3.12,-2.88,-2.49,4.48,4.48,4.48
82.16,7.60,3.14,7.60,3.14,-3.14,-2.90,-2.50,4.46,4.46,4.47
82.98,7.61,3.18,7.61,3.18,-3.17,-2.92,-2.51,4.44,4.44,4.43
83.81,7.61,3.21,7.61,3.21,-3.20,-2.94,-2.53,4.41,4.41,4.40
84.65,7.61,3.25,7.61,3.24,-3.23,-2.96,-2.54,4.38,4.38,4.36
85.50,7.59,3.26,7.60,3.26,-3.25,-2.98,-2.56,4.34,4.34,4.33
86.35,7.57,3.27,7.58,3.27,-3.27,-2.99,-2.58,4.31,4.31,4.30
87.22,7.55,3.28,7.55,3.28,-3.28,-3.01,-2.60,4.28,4.27,4.27
88.09,7.52,3.28,7.52,3.28,-3.28,-3.03,-2.63,4.24,4.24,4.24
88.97,7.49,3.28,7.49,3.28,-3.29,-3.05,-2.65,4.21,4.21,4.21
89.86,7.46,3.29,7.46,3.28,-3.29,-3.07,-2.68,4.18,4.17,4.18
90.76,7.42,3.28,7.43,3.29,-3.29,-3.09,-2.71,4.13,4.14,4.14
91.66,7.39,3.29,7.40,3.29,-3.30,-3.11,-2.74,4.10,4.10,4.10
92.58,7.37,3.30,7.37,3.30,-3.31,-3.13,-2.78,4.07,4.07,4.07
93.51,7.35,3.31,7.35,3.31,-3.32,-3.15,-2.81,4.04,4.03,4.04
94.44,7.33,3.33,7.33,3.33,-3.33,-3.17,-2.85,4.00,4.00,4.00
95.39,7.31,3.36,7.31,3.35,-3.35,-3.19,-2.89,3.96,3.96,3.96
96.34,7.29,3.37,7.29,3.37,-3.37,-3.21,-2.93,3.92,3.92,3.92
97.30,7.27,3.39,7.27,3.39,-3.39,-3.23,-2.97,3.88,3.88,3.89
98.28,7.25,3.41,7.25,3.41,-3.41,-3.25,-3.02,3.84,3.84,3.84
99.26,7.23,3.43,7.24,3.44,-3.43,-3.27,-3.06,3.80,3.80,3.80
100.25,7.22,3.46,7.22,3.45,-3.45,-3.29,-3.11,3.78,3.77,3.76
101.25,7.20,3.47,7.20,3.47,-3.46,-3.31,-3.16,3.74,3.74,3.74
102.27,7.18,3.47,7.18,3.48,-3.47,-3.33,-3.21,3.72,3.71,3.71
103.29,7.15,3.48,7.15,3.48,-3.47,-3.35,-3.25,3.68,3.68,3.67
104.32,7.11,3.47,7.12,3.47,-3.47,-3.37,-3.31,3.64,3.64,3.64
105.37,7.08,3.47,7.08,3.47,-3.47,-3.39,-3.36,3.61,3.61,3.62
106.42,7.05,3.47,7.05,3.47,-3.47,-3.41,-3.41,3.58,3.58,3.59
107.48,7.02,3.47,7.03,3.47,-3.47,-3.43,-3.46,3.55,3.55,3.55
108.56,7.00,3.48,7.00,3.48,-3.48,-3.45,-3.51,3.53,3.52,3.52
109.64,6.97,3.48,6.97,3.49,-3.49,-3.47,-3.56,3.49,3.49,3.49
110.74,6.95,3.50,6.96,3.50,-3.50,-3.50,-3.60,3.45,3.45,3.46
111.85,6.94,3.52,6.94,3.52,-3.53,-3.52,-3.65,3.42,3.42,3.42
112.97,6.93,3.54,6.93,3.55,-3.55,-3.54,-3.70,3.38,3.38,3.39
114.10,6.93,3.58,6.93,3.58,-3.59,-3.56,-3.74,3.35,3.34,3.36
115.24,6.93,3.62,6.94,3.62,-3.62,-3.58,-3.78,3.31,3.31,3.31
116.39,6.94,3.67,6.94,3.67,-3.66,-3.60,-3.82,3.28,3.28,3.27
117.55,6.95,3.71,6.95,3.71,-3.70,-3.63,-3.86,3.26,3.25,3.24
118.73,6.95,3.75,6.95,3.75,-3.73,-3.65,-3.89,3.22,3.22,3.20
119.92,6.95,3.77,6.95,3.78,-3.77,-3.67,-3.92,3.18,3.18,3.18
121.12,6.95,3.80,6.95,3.80,-3.81,-3.69,-3.95,3.15,3.15,3.15
122.33,6.95,3.83,6.96,3.83,-3.84,-3.71,-3.97,3.11,3.11,3.12
123.55,6.96,3.86,6.96,3.86,-3.87,-3.74,-3.99,3.09,3.08,3.10
124.79,6.96,3.90,6.97,3.90,-3.91,-3.76,-4.01,3.06,3.06,3.07
126.03,6.97,3.94,6.97,3.94,-3.94,-3.78,-4.02,3.03,3.03,3.03
127.29,6.98,3.98,6.98,3.98,-3.97,-3.80,-4.03,3.01,3.00,3.00
128.57,6.97,4.01,6.98,4.01,-4.00,-3.83,-4.03,2.97,2.97,2.96
129.85,6.96,4.03,6.97,4.04,-4.03,-3.85,-4.03,2.94,2.94,2.93
131.15,6.95,4.06,6.95,4.05,-4.05,-3.87,-4.03,2.90,2.90,2.89
132.46,6.93,4.07,6.93,4.07,-4.07,-3.89,-4.03,2.87,2.86,2.87
133.79,6.90,4.08,6.91,4.08,-4.08,-3.91,-4.02,2.82,2.83,2.83
135.12,6.88,4.08,6.88,4.08,-4.09,-3.93,-4.01,2.79,2.79,2.80
136.48,6.86,4.09,6.86,4.09,-4.10,-3.96,-4.00,2.77,2.77,2.78
137.84,6.84,4.10,6.84,4.10,-4.10,-3.98,-3.99,2.75,2.74,2.74
139.22,6.81,4.11,6.81,4.10,-4.09,-4.00,-3.97,2.72,2.72,2.71
140.61,6.77,4.09,6.78,4.10,-4.09,-4.02,-3.95,2.69,2.69,2.68
142.02,6.73,4.08,6.73,4.08,-4.07,-4.04,-3.93,2.66,2.66,2.65
143.44,6.69,4.07,6.69,4.06,-4.06,-4.06,-3.91,2.64,2.63,2.63
144.87,6.64,4.04,6.64,4.04,-4.04,-4.08,-3.90,2.60,2.60,2.61
146.32,6.59,4.02,6.59,4.01,-4.02,-4.10,-3.88,2.57,2.57,2.58
147.78,6.54,3.99,6.54,3.99,-4.00,-4.12,-3.86,2.54,2.54,2.56
149.26,6.50,3.97,6.50,3.98,-3.99,-4.14,-3.84,2.51,2.52,2.53
150.75,6.47,3.97,6.48,3.97,-3.98,-4.16,-3.82,2.49,2.50,2.50
152.26,6.45,3.97,6.45,3.97,-3.97,-4.18,-3.80,2.48,2.48,2.49
153.78,6.43,3.97,6.43,3.97,-3.96,-4.19,-3.79,2.47,2.47,2.46
155.32,6.40,3.97,6.40,3.97,-3.96,-4.21,-3.77,2.45,2.45,2.43
156.88,6.37,3.96,6.37,3.96,-3.95,-4.23,-3.76,2.42,2.42,2.41
158.44,6.33,3.96,6.33,3.95,-3.94,-4.24,-3.75,2.39,2.39,2.38
160.03,6.29,3.94,6.29,3.94,-3.94,-4.26,-3.74,2.36,2.35,2.35
161.63,6.24,3.92,6.25,3.92,-3.93,-4.28,-3.74,2.31,2.32,2.32
163.24,6.20,3.91,6.21,3.91,-3.92,-4.29,-3.73,2.28,2.28,2.29
164.88,6.17,3.91,6.17,3.91,-3.92,-4.30,-3.73,2.25,2.25,2.26
166.53,6.14,3.92,6.14,3.91,-3.92,-4.32,-3.73,2.23,2.23,2.22
168.19,6.12,3.92,6.12,3.92,-3.92,-4.33,-3.74,2.21,2.20,2.20
169.87,6.09,3.93,6.10,3.93,-3.92,-4.34,-3.74,2.17,2.17,2.17
171.57,6.07,3.94,6.07,3.93,-3.93,-4.35,-3.75,2.14,2.14,2.13
173.29,6.04,3.94,6.04,3.94,-3.94,-4.37,-3.76,2.11,2.10,2.10
175.02,6.01,3.94,6.02,3.95,-3.95,-4.38,-3.78,2.06,2.07,2.07
176.77,5.99,3.96,5.99,3.96,-3.97,-4.39,-3.80,2.03,2.03,2.03
178.54,5.98,3.98,5.98,3.98,-3.99,-4.39,-3.82,2.00,1.99,2.00
180.32,5.96,4.01,5.97,4.00,-4.01,-4.40,-3.84,1.95,1.96,1.96
182.13,5.96,4.03,5.96,4.03,-4.04,-4.41,-3.87,1.93,1.93,1.94
183.95,5.96,4.06,5.96,4.07,-4.07,-4.41,-3.90,1.90,1.90,1.90
185.79,5.97,4.11,5.97,4.10,-4.10,-4.42,-3.94,1.87,1.87,1.86
187.65,5.97,4.14,5.98,4.14,-4.14,-4.42,-3.97,1.84,1.84,1.83
189.52,5.98,4.18,5.98,4.18,-4.17,-4.43,-4.01,1.81,1.81,1.80
191.42,5.98,4.21,5.98,4.21,-4.21,-4.43,-4.05,1.77,1.77,1.77
193.33,5.98,4.24,5.98,4.24,-4.24,-4.43,-4.09,1.74,1.74,1.74
195.27,5.98,4.28,5.98,4.28,-4.28,-4.43,-4.14,1.71,1.71,1.71
197.22,5.98,4.31,5.98,4.31,-4.30,-4.43,-4.19,1.68,1.68,1.67
199.19,5.98,4.33,5.98,4.34,-4.33,-4.43,-4.23,1.65,1.65,1.65
201.18,5.98,4.37,5.98,4.36,-4.36,-4.43,-4.29,1.63,1.63,1.62
203.19,5.98,4.38,5.98,4.38,-4.38,-4.43,-4.34,1.60,1.60,1.60
205.23,5.98,4.40,5.98,4.40,-4.41,-4.42,-4.39,1.58,1.57,1.58
207.28,5.98,4.42,5.98,4.42,-4.43,-4.42,-4.45,1.55,1.55,1.56
209.35,5.98,4.45,5.99,4.45,-4.46,-4.41,-4.50,1.53,1.53,1.54
211.44,5.99,4.48,5.99,4.48,-4.48,-4.40,-4.56,1.51,1.51,1.51
213.56,6.00,4.50,6.00,4.50,-4.51,-4.40,-4.61,1.50,1.49,1.50
215.69,6.00,4.53,6.01,4.53,-4.53,-4.39,-4.66,1.48,1.48,1.48
217.85,6.00,4.55,6.01,4.55,-4.54,-4.38,-4.72,1.46,1.46,1.45
220.03,6.00,4.57,6.00,4.56,-4.56,-4.37,-4.77,1.45,1.44,1.43
222.23,5.98,4.57,5.98,4.57,-4.56,-4.35,-4.82,1.42,1.42,1.41
224.45,5.96,4.56,5.97,4.57,-4.56,-4.34,-4.86,1.40,1.40,1.40
226.70,5.94,4.56,5.94,4.56,-4.56,-4.33,-4.91,1.38,1.38,1.38
228.96,5.92,4.54,5.92,4.55,-4.55,-4.31,-4.95,1.37,1.37,1.38
231.25,5.89,4.53,5.89,4.53,-4.54,-4.30,-4.98,1.35,1.36,1.36
233.57,5.86,4.51,5.87,4.52,-4.52,-4.28,-5.01,1.34,1.34,1.35
235.90,5.84,4.50,5.84,4.50,-4.50,-4.27,-5.04,1.34,1.34,1.34
238.26,5.81,4.49,5.81,4.48,-4.48,-4.25,-5.06,1.33,1.33,1.32
240.64,5.78,4.45,5.78,4.46,-4.46,-4.23,-5.07,1.33,1.33,1.33
243.05,5.75,4.43,5.75,4.43,-4.43,-4.21,-5.08,1.33,1.33,1.32
245.48,5.72,4.41,5.72,4.40,-4.40,-4.19,-5.08,1.33,1.32,1.32
247.93,5.68,4.37,5.68,4.37,-4.36,-4.17,-5.08,1.32,1.32,1.31
250.41,5.64,4.32,5.64,4.33,-4.33,-4.15,-5.06,1.32,1.32,1.32
252.92,5.60,4.28,5.60,4.29,-4.29,-4.13,-5.05,1.31,1.31,1.32
255.45,5.57,4.26,5.57,4.25,-4.26,-4.10,-5.02,1.32,1.31,1.32
258.00,5.53,4.21,5.54,4.22,-4.23,-4.08,-4.99,1.31,1.31,1.32
260.58,5.51,4.19,5.51,4.19,-4.20,-4.06,-4.95,1.32,1.32,1.32
263.19,5.49,4.17,5.49,4.17,-4.17,-4.03,-4.90,1.32,1.32,1.33
265.82,5.47,4.15,5.47,4.15,-4.15,-4.01,-4.85,1.33,1.33,1.32
268.48,5.45,4.13,5.45,4.13,-4.12,-3.98,-4.80,1.33,1.33,1.33
271.16,5.43,4.10,5.43,4.10,-4.10,-3.95,-4.73,1.33,1.33,1.33
273.87,5.40,4.08,5.40,4.08,-4.07,-3.93,-4.67,1.33,1.33,1.33
276.61,5.37,4.04,5.37,4.05,-4.05,-3.90,-4.60,1.33,1.33,1.33
279.38,5.34,4.03,5.34,4.02,-4.02,-3.87,-4.52,1.33,1.33,1.32
282.17,5.31,3.99,5.31,3.99,-3.99,-3.85,-4.45,1.33,1.33,1.32
284.99,5.28,3.95,5.28,3.95,-3.95,-3.82,-4.37,1.33,1.33,1.34
287.84,5.25,3.91,5.26,3.92,-3.92,-3.79,-4.28,1.33,1.33,1.34
290.72,5.23,3.90,5.23,3.88,-3.89,-3.76,-4.20,1.34,1.34,1.34
293.63,5.20,3.85,5.21,3.86,-3.86,-3.73,-4.11,1.34,1.35,1.35
296.57,5.18,3.82,5.18,3.82,-3.83,-3.71,-4.02,1.36,1.36,1.36
299.53,5.16,3.80,5.16,3.79,-3.79,-3.68,-3.94,1.37,1.37,1.37
302.53,5.14,3.76,5.14,3.76,-3.76,-3.65,-3.85,1.38,1.38,1.38
305.55,5.11,3.73,5.11,3.73,-3.72,-3.62,-3.76,1.39,1.39,1.38
308.61,5.08,3.69,5.08,3.69,-3.68,-3.60,-3.67,1.40,1.40,1.40
311.69,5.05,3.65,5.05,3.65,-3.64,-3.57,-3.58,1.41,1.41,1.40
314.81,5.01,3.60,5.02,3.60,-3.60,-3.54,-3.50,1.41,1.41,1.41
317.96,4.98,3.57,4.98,3.56,-3.56,-3.52,-3.41,1.42,1.42,1.42
321.14,4.94,3.51,4.94,3.51,-3.53,-3.49,-3.33,1.42,1.42,1.43
324.35,4.91,3.48,4.91,3.47,-3.49,-3.46,-3.25,1.42,1.42,1.43
327.59,4.88,3.42,4.89,3.44,-3.45,-3.44,-3.16,1.43,1.44,1.46
330.87,4.87,3.42,4.87,3.42,-3.42,-3.41,-3.09,1.46,1.46,1.46
334.18,4.86,3.40,4.86,3.39,-3.38,-3.39,-3.01,1.48,1.47,1.46
337.52,4.83,3.36,4.83,3.36,-3.34,-3.36,-2.93,1.49,1.49,1.47
340.90,4.80,3.31,4.80,3.32,-3.30,-3.33,-2.86,1.50,1.50,1.49
344.30,4.76,3.27,4.76,3.27,-3.26,-3.31,-2.79,1.50,1.50,1.50
347.75,4.72,3.22,4.72,3.22,-3.22,-3.28,-2.72,1.50,1.50,1.50
351.23,4.68,3.18,4.68,3.17,-3.18,-3.25,-2.65,1.51,1.51,1.50
354.74,4.64,3.11,4.64,3.12,-3.13,-3.22,-2.58,1.51,1.51,1.53
358.28,4.60,3.07,4.61,3.08,-3.09,-3.19,-2.52,1.51,1.52,1.53
361.87,4.57,3.04,4.58,3.04,-3.05,-3.16,-2.46,1.53,1.53,1.54
365.49,4.55,3.01,4.55,3.00,-3.01,-3.12,-2.40,1.55,1.55,1.55
369.14,4.53,2.97,4.53,2.97,-2.96,-3.08,-2.34,1.57,1.57,1.56
372.83,4.50,2.93,4.50,2.93,-2.92,-3.04,-2.28,1.58,1.58,1.57
376.56,4.46,2.89,4.46,2.89,-2.88,-3.00,-2.23,1.59,1.59,1.57
380.33,4.42,2.84,4.42,2.84,-2.83,-2.95,-2.18,1.59,1.59,1.58
384.13,4.37,2.78,4.38,2.78,-2.78,-2.90,-2.13,1.59,1.59,1.60
387.97,4.33,2.73,4.33,2.73,-2.73,-2.85,-2.08,1.60,1.60,1.61
391.85,4.29,2.68,4.29,2.68,-2.68,-2.80,-2.03,1.61,1.61,1.62
395.77,4.25,2.63,4.26,2.63,-2.63,-2.74,-1.98,1.62,1.62,1.62
399.73,4.22,2.59,4.22,2.58,-2.58,-2.68,-1.94,1.64,1.64,1.63
403.72,4.18,2.52,4.19,2.54,-2.54,-2.62,-1.90,1.65,1.65,1.66
407.76,4.15,2.49,4.15,2.49,-2.49,-2.56,-1.86,1.66,1.66,1.66
411.84,4.12,2.45,4.12,2.44,-2.44,-2.50,-1.82,1.68,1.68,1.67
415.96,4.08,2.39,4.08,2.40,-2.40,-2.44,-1.78,1.69,1.69,1.69
420.12,4.04,2.36,4.04,2.35,-2.35,-2.38,-1.74,1.69,1.69,1.69
424.32,4.00,2.31,4.00,2.30,-2.30,-2.31,-1.70,1.70,1.70,1.70
428.56,3.96,2.25,3.96,2.25,-2.25,-2.25,-1.67,1.71,1.71,1.72
432.85,3.92,2.20,3.92,2.20,-2.20,-2.19,-1.63,1.72,1.72,1.72
437.18,3.88,2.16,3.88,2.15,-2.15,-2.13,-1.60,1.73,1.73,1.72
441.55,3.83,2.10,3.84,2.10,-2.10,-2.07,-1.56,1.73,1.73,1.73
445.96,3.79,2.05,3.79,2.05,-2.05,-2.00,-1.53,1.74,1.74,1.74
450.42,3.75,2.00,3.75,2.00,-2.00,-1.94,-1.50,1.75,1.75,1.75
454.93,3.71,1.95,3.71,1.95,-1.95,-1.88,-1.46,1.77,1.77,1.76
459.48,3.67,1.90,3.67,1.90,-1.89,-1.82,-1.43,1.78,1.78,1.77
464.07,3.63,1.84,3.63,1.84,-1.84,-1.77,-1.39,1.79,1.79,1.79
468.71,3.58,1.78,3.58,1.78,-1.78,-1.71,-1.36,1.80,1.80,1.80
473.40,3.53,1.72,3.53,1.72,-1.73,-1.65,-1.33,1.80,1.80,1.81
478.13,3.48,1.66,3.49,1.67,-1.68,-1.59,-1.29,1.80,1.81,1.82
482.91,3.44,1.62,3.45,1.62,-1.63,-1.54,-1.26,1.82,1.82,1.83
487.74,3.41,1.58,3.41,1.57,-1.57,-1.48,-1.22,1.84,1.84,1.84
492.62,3.37,1.53,3.37,1.53,-1.52,-1.42,-1.19,1.86,1.86,1.85
497.55,3.33,1.48,3.33,1.47,-1.46,-1.37,-1.15,1.87,1.87,1.86
502.52,3.28,1.42,3.28,1.42,-1.41,-1.31,-1.11,1.88,1.88,1.87
507.55,3.23,1.35,3.23,1.35,-1.35,-1.26,-1.07,1.88,1.88,1.89
512.62,3.18,1.29,3.18,1.29,-1.30,-1.20,-1.04,1.88,1.88,1.89
517.75,3.13,1.22,3.14,1.23,-1.24,-1.15,-1.00,1.89,1.90,1.91
522.93,3.10,1.18,3.10,1.18,-1.18,-1.09,-0.96,1.92,1.92,1.92
528.16,3.06,1.13,3.06,1.13,-1.12,-1.03,-0.91,1.94,1.94,1.93
533.44,3.02,1.08,3.02,1.07,-1.06,-0.98,-0.87,1.97,1.96,1.94
538.77,2.96,1.01,2.96,1.01,-1.00,-0.92,-0.83,1.97,1.96,1.95
544.16,2.90,0.93,2.90,0.94,-0.94,-0.87,-0.78,1.97,1.97,1.97
