frequency,raw,error,smoothed,error_smoothed,equalization,parametric_eq,equalized_raw,equalized_smoothed,target
20,-20.29,-19.58,-20.13,-19.39,6.00,2.99,-14.29,-14.13,-0.71
21,-19.26,-18.55,-19.29,-18.55,6.00,3.42,-13.26,-13.29,-0.71
22,-18.47,-17.76,-18.46,-17.73,6.00,3.90,-12.47,-12.46,-0.71
23,-17.58,-16.87,-17.66,-16.93,6.00,4.42,-11.58,-11.66,-0.71
24,-16.83,-16.12,-16.88,-16.15,6.00,4.97,-10.83,-10.88,-0.71
25,-16.07,-15.36,-16.12,-15.40,6.00,5.53,-10.07,-10.12,-0.71
26,-15.34,-14.63,-15.38,-14.67,6.00,6.10,-9.34,-9.38,-0.71
27,-14.64,-13.93,-14.67,-13.96,6.00,6.64,-8.64,-8.67,-0.71
28,-13.99,-13.28,-13.98,-13.27,6.00,7.12,-7.99,-7.98,-0.71
29,-13.34,-12.63,-13.31,-12.60,6.00,7.50,-7.34,-7.31,-0.71
30,-12.64,-11.93,-12.66,-11.96,6.00,7.74,-6.64,-6.66,-0.71
31,-12.02,-11.31,-12.05,-11.34,6.00,7.83,-6.02,-6.05,-0.71
32,-11.46,-10.75,-11.46,-10.75,6.00,7.77,-5.46,-5.46,-0.71
33,-10.93,-10.22,-10.89,-10.18,6.00,7.58,-4.93,-4.89,-0.71
34,-10.41,-9.70,-10.34,-9.63,6.00,7.28,-4.41,-4.34,-0.71
35,-9.76,-9.05,-9.80,-9.09,6.00,6.91,-3.76,-3.80,-0.71
36,-9.29,-8.58,-9.29,-8.57,6.00,6.51,-3.29,-3.29,-0.71
37,-8.81,-8.10,-8.78,-8.06,6.00,6.09,-2.81,-2.78,-0.71
38,-8.23,-7.52,-8.30,-7.58,6.00,5.67,-2.23,-2.30,-0.71
39,-7.81,-7.10,-7.82,-7.10,6.00,5.27,-1.81,-1.82,-0.71
40,-7.40,-6.69,-7.37,-6.63,5.92,4.89,-1.48,-1.45,-0.71
41,-7.00,-6.29,-6.91,-6.18,5.75,4.52,-1.25,-1.17,-0.71
42,-6.46,-5.75,-6.47,-5.74,5.50,4.18,-0.96,-0.97,-0.71
43,-6.09,-5.38,-6.04,-5.31,5.20,3.87,-0.89,-0.84,-0.71
44,-5.72,-5.01,-5.63,-4.91,4.87,3.57,-0.85,-0.76,-0.71
45,-5.22,-4.51,-5.24,-4.51,4.51,3.30,-0.70,-0.73,-0.71
46,-4.89,-4.18,-4.87,-4.14,4.14,3.04,-0.75,-0.73,-0.71
47,-4.48,-3.77,-4.51,-3.79,3.79,2.81,-0.69,-0.73,-0.71
48,-4.09,-3.38,-4.18,-3.46,3.46,2.58,-0.63,-0.72,-0.71
49,-3.85,-3.14,-3.86,-3.15,3.15,2.38,-0.70,-0.72,-0.71
50,-3.49,-2.78,-3.57,-2.86,2.86,2.18,-0.63,-0.71,-0.71
51,-3.24,-2.53,-3.30,-2.60,2.60,2.00,-0.64,-0.70,-0.71
52,-3.11,-2.40,-3.06,-2.35,2.35,1.83,-0.75,-0.71,-0.71
53,-2.83,-2.12,-2.84,-2.13,2.13,1.67,-0.69,-0.71,-0.71
54,-2.73,-2.02,-2.64,-1.93,1.93,1.52,-0.79,-0.71,-0.71
55,-2.46,-1.75,-2.46,-1.75,1.75,1.38,-0.71,-0.72,-0.71
56,-2.23,-1.52,-2.29,-1.58,1.58,1.25,-0.65,-0.72,-0.71
57,-2.13,-1.42,-2.14,-1.42,1.42,1.12,-0.70,-0.72,-0.71
58,-2.09,-1.38,-2.00,-1.28,1.28,1.00,-0.81,-0.72,-0.71
59,-1.81,-1.10,-1.85,-1.14,1.14,0.89,-0.67,-0.72,-0.71
60,-1.81,-1.10,-1.72,-1.00,1.00,0.79,-0.80,-0.72,-0.71
61,-1.60,-0.89,-1.59,-0.87,0.87,0.69,-0.72,-0.72,-0.71
62,-1.48,-0.77,-1.46,-0.75,0.75,0.60,-0.73,-0.71,-0.71
63,-1.34,-0.63,-1.34,-0.62,0.62,0.51,-0.71,-0.72,-0.71
64,-1.16,-0.45,-1.22,-0.50,0.50,0.42,-0.65,-0.72,-0.71
65,-1.15,-0.44,-1.11,-0.38,0.38,0.34,-0.76,-0.73,-0.71
66,-0.98,-0.27,-0.99,-0.27,0.27,0.27,-0.71,-0.73,-0.71
67,-0.84,-0.13,-0.87,-0.15,0.15,0.20,-0.69,-0.72,-0.71
68,-0.80,-0.09,-0.75,-0.03,0.03,0.13,-0.77,-0.72,-0.71
69,-0.64,0.07,-0.63,0.09,-0.09,0.06,-0.72,-0.72,-0.71
70,-0.51,0.20,-0.51,0.21,-0.21,-0.01,-0.71,-0.71,-0.71
71,-0.48,0.23,-0.40,0.33,-0.33,-0.07,-0.80,-0.72,-0.71
72,-0.32,0.39,-0.28,0.44,-0.44,-0.13,-0.76,-0.72,-0.71
73,-0.16,0.55,-0.16,0.56,-0.56,-0.19,-0.72,-0.72,-0.71
74,-0.01,0.70,-0.04,0.67,-0.67,-0.25,-0.68,-0.72,-0.71
75,0.14,0.85,0.08,0.78,-0.78,-0.31,-0.64,-0.71,-0.71
76,0.14,0.85,0.18,0.89,-0.89,-0.37,-0.75,-0.71,-0.71
77,0.28,0.99,0.28,1.00,-1.00,-0.43,-0.71,-0.71,-0.71
78,0.42,1.13,0.39,1.09,-1.09,-0.48,-0.67,-0.71,-0.71
79,0.46,1.17,0.49,1.19,-1.19,-0.54,-0.73,-0.70,-0.71
80,0.55,1.26,0.58,1.28,-1.28,-0.60,-0.73,-0.70,-0.71
81,0.69,1.40,0.66,1.37,-1.37,-0.66,-0.67,-0.71,-0.71
82,0.79,1.50,0.73,1.45,-1.45,-0.72,-0.65,-0.72,-0.71
83,0.79,1.50,0.80,1.52,-1.52,-0.78,-0.73,-0.72,-0.71
84,0.79,1.50,0.87,1.60,-1.60,-0.83,-0.80,-0.72,-0.71
85,0.91,1.62,0.95,1.67,-1.67,-0.89,-0.75,-0.72,-0.71
86,1.04,1.75,1.02,1.73,-1.73,-0.96,-0.69,-0.71,-0.71
87,1.11,1.82,1.09,1.80,-1.80,-1.02,-0.68,-0.71,-0.71
88,1.11,1.82,1.14,1.86,-1.86,-1.08,-0.74,-0.71,-0.71
89,1.11,1.82,1.20,1.91,-1.91,-1.14,-0.80,-0.72,-0.71
90,1.23,1.94,1.24,1.97,-1.97,-1.20,-0.73,-0.72,-0.71
91,1.35,2.06,1.29,2.02,-2.02,-1.27,-0.66,-0.73,-0.71
92,1.43,2.14,1.33,2.06,-2.06,-1.33,-0.63,-0.73,-0.71
93,1.43,2.14,1.38,2.11,-2.11,-1.39,-0.67,-0.73,-0.71
94,1.43,2.14,1.42,2.15,-2.15,-1.46,-0.71,-0.72,-0.71
95,1.43,2.14,1.46,2.19,-2.19,-1.52,-0.76,-0.73,-0.71
96,1.43,2.14,1.50,2.23,-2.23,-1.59,-0.80,-0.73,-0.71
97,1.43,2.14,1.54,2.27,-2.27,-1.65,-0.83,-0.73,-0.71
98,1.54,2.25,1.58,2.30,-2.30,-1.72,-0.76,-0.72,-0.71
99,1.60,2.31,1.61,2.34,-2.34,-1.78,-0.73,-0.72,-0.71
100,1.61,2.32,1.64,2.37,-2.37,-1.85,-0.75,-0.73,-0.71
101,1.72,2.43,1.66,2.40,-2.40,-1.91,-0.67,-0.73,-0.71
102,1.76,2.47,1.69,2.42,-2.42,-1.98,-0.66,-0.73,-0.71
104,1.76,2.47,1.72,2.44,-2.44,-2.10,-0.68,-0.72,-0.71
105,1.76,2.47,1.74,2.46,-2.46,-2.16,-0.70,-0.72,-0.71
106,1.76,2.47,1.76,2.48,-2.48,-2.22,-0.71,-0.71,-0.71
107,1.76,2.47,1.78,2.48,-2.48,-2.28,-0.72,-0.71,-0.71
108,1.76,2.47,1.78,2.49,-2.49,-2.34,-0.73,-0.71,-0.71
109,1.76,2.47,1.78,2.49,-2.49,-2.40,-0.73,-0.71,-0.71
110,1.76,2.47,1.78,2.49,-2.49,-2.45,-0.73,-0.72,-0.71
111,1.76,2.47,1.77,2.49,-2.49,-2.50,-0.73,-0.72,-0.71
112,1.76,2.47,1.77,2.48,-2.48,-2.55,-0.72,-0.72,-0.71
113,1.76,2.47,1.76,2.48,-2.48,-2.60,-0.72,-0.72,-0.71
114,1.76,2.47,1.76,2.48,-2.48,-2.64,-0.71,-0.71,-0.71
115,1.76,2.47,1.76,2.48,-2.48,-2.69,-0.71,-0.71,-0.71
117,1.76,2.47,1.76,2.47,-2.47,-2.76,-0.71,-0.71,-0.71
118,1.76,2.47,1.76,2.47,-2.47,-2.80,-0.71,-0.71,-0.71
119,1.76,2.47,1.76,2.47,-2.47,-2.83,-0.71,-0.71,-0.71
120,1.76,2.47,1.76,2.47,-2.47,-2.85,-0.71,-0.71,-0.71
121,1.76,2.47,1.76,2.47,-2.47,-2.88,-0.71,-0.71,-0.71
123,1.76,2.47,1.76,2.47,-2.47,-2.92,-0.71,-0.71,-0.71
124,1.76,2.47,1.76,2.47,-2.47,-2.93,-0.71,-0.71,-0.71
125,1.76,2.47,1.76,2.47,-2.47,-2.94,-0.71,-0.71,-0.71
126,1.76,2.47,1.76,2.47,-2.47,-2.95,-0.71,-0.71,-0.71
128,1.76,2.47,1.76,2.47,-2.47,-2.96,-0.71,-0.71,-0.71
129,1.76,2.47,1.76,2.47,-2.47,-2.97,-0.71,-0.71,-0.71
130,1.76,2.47,1.76,2.47,-2.47,-2.96,-0.71,-0.71,-0.71
131,1.76,2.47,1.76,2.47,-2.47,-2.96,-0.71,-0.71,-0.71
133,1.76,2.47,1.76,2.47,-2.47,-2.95,-0.71,-0.71,-0.71
134,1.76,2.47,1.76,2.47,-2.47,-2.94,-0.71,-0.71,-0.71
135,1.76,2.47,1.76,2.47,-2.47,-2.92,-0.71,-0.71,-0.71
137,1.76,2.47,1.76,2.47,-2.47,-2.90,-0.71,-0.71,-0.71
138,1.76,2.47,1.76,2.47,-2.47,-2.88,-0.71,-0.71,-0.71
140,1.76,2.47,1.76,2.47,-2.47,-2.84,-0.71,-0.71,-0.71
141,1.76,2.47,1.76,2.47,-2.47,-2.82,-0.71,-0.71,-0.71
142,1.76,2.47,1.76,2.47,-2.47,-2.80,-0.71,-0.71,-0.71
144,1.76,2.47,1.76,2.47,-2.47,-2.76,-0.71,-0.71,-0.71
145,1.76,2.47,1.76,2.47,-2.47,-2.74,-0.71,-0.71,-0.71
147,1.76,2.47,1.76,2.47,-2.47,-2.69,-0.71,-0.71,-0.71
148,1.76,2.47,1.76,2.47,-2.47,-2.67,-0.71,-0.71,-0.71
150,1.76,2.47,1.76,2.47,-2.47,-2.63,-0.71,-0.71,-0.71
151,1.76,2.47,1.76,2.47,-2.47,-2.60,-0.71,-0.71,-0.71
153,1.76,2.47,1.76,2.47,-2.47,-2.56,-0.71,-0.71,-0.71
154,1.76,2.47,1.76,2.47,-2.47,-2.54,-0.71,-0.71,-0.71
156,1.76,2.47,1.76,2.47,-2.47,-2.50,-0.71,-0.71,-0.71
157,1.76,2.47,1.76,2.47,-2.47,-2.48,-0.71,-0.71,-0.71
159,1.76,2.47,1.76,2.47,-2.47,-2.44,-0.71,-0.71,-0.71
160,1.76,2.47,1.76,2.47,-2.47,-2.42,-0.71,-0.71,-0.71
162,1.76,2.47,1.76,2.47,-2.47,-2.38,-0.71,-0.71,-0.71
164,1.76,2.47,1.76,2.47,-2.47,-2.35,-0.71,-0.71,-0.71
165,1.76,2.47,1.76,2.47,-2.47,-2.33,-0.71,-0.71,-0.71
167,1.76,2.47,1.76,2.47,-2.47,-2.30,-0.71,-0.71,-0.71
169,1.76,2.47,1.76,2.47,-2.47,-2.28,-0.71,-0.71,-0.71
170,1.76,2.47,1.76,2.47,-2.47,-2.26,-0.71,-0.71,-0.71
172,1.76,2.47,1.76,2.47,-2.47,-2.24,-0.71,-0.71,-0.71
174,1.76,2.47,1.76,2.48,-2.48,-2.22,-0.71,-0.71,-0.71
175,1.76,2.47,1.76,2.48,-2.48,-2.21,-0.71,-0.71,-0.71
177,1.76,2.47,1.76,2.48,-2.48,-2.19,-0.71,-0.71,-0.71
179,1.76,2.47,1.77,2.48,-2.48,-2.18,-0.72,-0.71,-0.71
181,1.76,2.47,1.77,2.48,-2.48,-2.17,-0.72,-0.71,-0.71
183,1.76,2.47,1.77,2.48,-2.48,-2.16,-0.72,-0.71,-0.71
184,1.76,2.47,1.77,2.48,-2.48,-2.15,-0.72,-0.71,-0.71
186,1.76,2.47,1.77,2.48,-2.48,-2.15,-0.71,-0.71,-0.71
188,1.76,2.47,1.76,2.47,-2.47,-2.14,-0.71,-0.71,-0.71
190,1.76,2.47,1.76,2.47,-2.47,-2.14,-0.70,-0.71,-0.71
192,1.76,2.47,1.75,2.46,-2.46,-2.14,-0.70,-0.71,-0.71
194,1.76,2.47,1.74,2.45,-2.45,-2.14,-0.69,-0.72,-0.71
196,1.76,2.47,1.73,2.44,-2.44,-2.14,-0.68,-0.71,-0.71
198,1.66,2.37,1.72,2.43,-2.43,-2.15,-0.76,-0.71,-0.71
200,1.65,2.36,1.70,2.41,-2.41,-2.15,-0.76,-0.71,-0.71
202,1.75,2.46,1.68,2.39,-2.39,-2.16,-0.64,-0.71,-0.71
204,1.64,2.35,1.66,2.37,-2.37,-2.16,-0.73,-0.71,-0.71
206,1.60,2.31,1.63,2.35,-2.35,-2.17,-0.74,-0.71,-0.71
208,1.60,2.31,1.61,2.32,-2.32,-2.18,-0.72,-0.72,-0.71
210,1.60,2.31,1.58,2.30,-2.30,-2.19,-0.70,-0.72,-0.71
212,1.60,2.31,1.56,2.28,-2.28,-2.20,-0.67,-0.72,-0.71
214,1.59,2.30,1.53,2.25,-2.25,-2.21,-0.66,-0.72,-0.71
216,1.48,2.19,1.51,2.23,-2.23,-2.22,-0.75,-0.72,-0.71
218,1.43,2.14,1.49,2.21,-2.21,-2.23,-0.78,-0.72,-0.71
221,1.43,2.14,1.47,2.19,-2.19,-2.25,-0.76,-0.72,-0.71
223,1.43,2.14,1.45,2.18,-2.18,-2.26,-0.74,-0.72,-0.71
225,1.43,2.14,1.45,2.16,-2.16,-2.26,-0.73,-0.72,-0.71
227,1.43,2.14,1.44,2.15,-2.15,-2.27,-0.72,-0.72,-0.71
229,1.43,2.14,1.43,2.15,-2.15,-2.28,-0.71,-0.72,-0.71
232,1.43,2.14,1.42,2.14,-2.14,-2.29,-0.71,-0.72,-0.71
234,1.43,2.14,1.42,2.14,-2.14,-2.30,-0.71,-0.72,-0.71
236,1.43,2.14,1.42,2.14,-2.14,-2.31,-0.70,-0.71,-0.71
239,1.43,2.14,1.43,2.14,-2.14,-2.31,-0.70,-0.71,-0.71
241,1.43,2.14,1.43,2.14,-2.14,-2.32,-0.71,-0.71,-0.71
244,1.43,2.14,1.43,2.14,-2.14,-2.32,-0.71,-0.71,-0.71
246,1.43,2.14,1.43,2.14,-2.14,-2.32,-0.71,-0.71,-0.71
248,1.43,2.14,1.43,2.14,-2.14,-2.32,-0.71,-0.71,-0.71
251,1.43,2.14,1.43,2.14,-2.14,-2.32,-0.71,-0.71,-0.71
253,1.43,2.14,1.43,2.14,-2.14,-2.31,-0.71,-0.71,-0.71
256,1.43,2.14,1.43,2.14,-2.14,-2.31,-0.71,-0.71,-0.71
259,1.43,2.14,1.43,2.14,-2.14,-2.30,-0.71,-0.71,-0.71
261,1.43,2.14,1.43,2.14,-2.14,-2.29,-0.71,-0.71,-0.71
264,1.43,2.14,1.43,2.14,-2.14,-2.28,-0.71,-0.71,-0.71
266,1.43,2.14,1.43,2.14,-2.14,-2.27,-0.71,-0.71,-0.71
269,1.43,2.14,1.43,2.14,-2.14,-2.26,-0.71,-0.71,-0.71
272,1.43,2.14,1.43,2.14,-2.14,-2.24,-0.71,-0.71,-0.71
274,1.43,2.14,1.43,2.14,-2.14,-2.23,-0.71,-0.71,-0.71
277,1.43,2.14,1.43,2.14,-2.14,-2.22,-0.71,-0.71,-0.71
280,1.43,2.14,1.43,2.14,-2.14,-2.20,-0.71,-0.71,-0.71
283,1.43,2.14,1.43,2.14,-2.14,-2.18,-0.71,-0.71,-0.71
286,1.43,2.14,1.43,2.14,-2.14,-2.17,-0.71,-0.71,-0.71
288,1.43,2.14,1.43,2.14,-2.14,-2.16,-0.71,-0.71,-0.71
291,1.43,2.14,1.43,2.14,-2.14,-2.14,-0.71,-0.71,-0.71
294,1.43,2.14,1.43,2.14,-2.14,-2.12,-0.71,-0.71,-0.71
297,1.43,2.14,1.43,2.14,-2.14,-2.10,-0.71,-0.71,-0.71
300,1.43,2.14,1.43,2.14,-2.14,-2.09,-0.71,-0.71,-0.71
303,1.43,2.14,1.43,2.14,-2.14,-2.07,-0.71,-0.71,-0.71
306,1.43,2.14,1.43,2.14,-2.14,-2.06,-0.71,-0.71,-0.71
309,1.43,2.14,1.43,2.14,-2.14,-2.05,-0.71,-0.71,-0.71
312,1.43,2.14,1.43,2.14,-2.14,-2.03,-0.71,-0.71,-0.71
316,1.43,2.14,1.43,2.14,-2.14,-2.02,-0.71,-0.71,-0.71
319,1.43,2.14,1.43,2.14,-2.14,-2.01,-0.71,-0.71,-0.71
322,1.43,2.14,1.43,2.14,-2.14,-2.00,-0.71,-0.71,-0.71
325,1.43,2.14,1.43,2.14,-2.14,-1.99,-0.71,-0.71,-0.71
328,1.43,2.14,1.43,2.14,-2.14,-1.99,-0.71,-0.71,-0.71
332,1.43,2.14,1.43,2.14,-2.14,-1.98,-0.71,-0.71,-0.71
335,1.43,2.14,1.43,2.14,-2.14,-1.98,-0.71,-0.71,-0.71
338,1.43,2.14,1.43,2.14,-2.14,-1.97,-0.71,-0.71,-0.71
342,1.43,2.14,1.43,2.14,-2.14,-1.97,-0.71,-0.71,-0.71
345,1.43,2.14,1.43,2.14,-2.14,-1.97,-0.71,-0.71,-0.71
349,1.43,2.14,1.43,2.14,-2.14,-1.97,-0.71,-0.71,-0.71
352,1.43,2.14,1.43,2.14,-2.14,-1.98,-0.71,-0.71,-0.71
356,1.43,2.14,1.43,2.14,-2.14,-1.98,-0.71,-0.71,-0.71
359,1.43,2.14,1.43,2.14,-2.14,-1.99,-0.71,-0.71,-0.71
363,1.43,2.14,1.43,2.14,-2.14,-2.00,-0.71,-0.71,-0.71
366,1.43,2.14,1.43,2.14,-2.14,-2.00,-0.71,-0.71,-0.71
370,1.43,2.14,1.43,2.14,-2.14,-2.02,-0.71,-0.71,-0.71
374,1.43,2.14,1.43,2.14,-2.14,-2.03,-0.71,-0.71,-0.71
377,1.43,2.14,1.43,2.14,-2.14,-2.04,-0.71,-0.71,-0.71
381,1.43,2.14,1.43,2.14,-2.14,-2.06,-0.71,-0.71,-0.71
385,1.43,2.14,1.43,2.14,-2.14,-2.07,-0.71,-0.71,-0.71
389,1.43,2.14,1.43,2.14,-2.14,-2.09,-0.71,-0.71,-0.71
393,1.43,2.14,1.43,2.14,-2.14,-2.11,-0.71,-0.71,-0.71
397,1.43,2.14,1.43,2.14,-2.14,-2.13,-0.71,-0.71,-0.71
401,1.43,2.14,1.43,2.14,-2.14,-2.15,-0.71,-0.71,-0.71
405,1.43,2.14,1.43,2.14,-2.14,-2.17,-0.71,-0.71,-0.71
409,1.43,2.14,1.43,2.14,-2.14,-2.19,-0.71,-0.71,-0.71
413,1.43,2.14,1.43,2.14,-2.14,-2.22,-0.71,-0.71,-0.71
417,1.43,2.14,1.43,2.14,-2.14,-2.24,-0.71,-0.71,-0.71
421,1.43,2.14,1.43,2.14,-2.14,-2.26,-0.71,-0.71,-0.71
425,1.43,2.14,1.43,2.14,-2.14,-2.28,-0.71,-0.71,-0.71
430,1.43,2.14,1.43,2.14,-2.14,-2.31,-0.71,-0.71,-0.71
434,1.43,2.14,1.43,2.14,-2.14,-2.33,-0.71,-0.71,-0.71
438,1.43,2.14,1.43,2.14,-2.14,-2.35,-0.71,-0.71,-0.71
443,1.43,2.14,1.43,2.14,-2.14,-2.38,-0.71,-0.71,-0.71
447,1.43,2.14,1.43,2.14,-2.14,-2.39,-0.71,-0.71,-0.71
451,1.43,2.14,1.43,2.14,-2.14,-2.41,-0.71,-0.71,-0.71
456,1.43,2.14,1.43,2.14,-2.14,-2.43,-0.71,-0.71,-0.71
460,1.43,2.14,1.43,2.14,-2.14,-2.44,-0.71,-0.71,-0.71
465,1.43,2.14,1.43,2.14,-2.14,-2.46,-0.71,-0.71,-0.71
470,1.43,2.14,1.43,2.14,-2.14,-2.47,-0.71,-0.71,-0.71
474,1.43,2.14,1.43,2.14,-2.14,-2.48,-0.71,-0.71,-0.71
479,1.43,2.14,1.43,2.14,-2.14,-2.49,-0.71,-0.71,-0.71
484,1.43,2.14,1.43,2.14,-2.14,-2.50,-0.71,-0.71,-0.71
489,1.43,2.14,1.43,2.14,-2.14,-2.50,-0.71,-0.71,-0.71
494,1.43,2.14,1.43,2.14,-2.14,-2.50,-0.71,-0.71,-0.71
499,1.43,2.14,1.43,2.14,-2.14,-2.50,-0.71,-0.71,-0.71
504,1.43,2.14,1.43,2.14,-2.14,-2.49,-0.71,-0.71,-0.71
509,1.43,2.14,1.43,2.14,-2.14,-2.48,-0.71,-0.71,-0.71
514,1.43,2.14,1.43,2.14,-2.14,-2.47,-0.71,-0.71,-0.71
519,1.43,2.14,1.43,2.14,-2.14,-2.46,-0.71,-0.71,-0.71
524,1.43,2.14,1.43,2.14,-2.14,-2.44,-0.71,-0.71,-0.71
529,1.43,2.14,1.43,2.14,-2.14,-2.43,-0.71,-0.71,-0.71
535,1.43,2.14,1.43,2.14,-2.14,-2.40,-0.71,-0.71,-0.71
540,1.43,2.14,1.43,2.14,-2.14,-2.38,-0.71,-0.71,-0.71
545,1.43,2.14,1.43,2.14,-2.14,-2.36,-0.71,-0.71,-0.71
551,1.43,2.14,1.43,2.14,-2.14,-2.33,-0.71,-0.71,-0.71
556,1.43,2.14,1.43,2.14,-2.14,-2.30,-0.71,-0.71,-0.71
562,1.43,2.14,1.43,2.14,-2.14,-2.27,-0.71,-0.71,-0.71
568,1.43,2.14,1.43,2.14,-2.14,-2.24,-0.71,-0.71,-0.71
573,1.43,2.14,1.43,2.14,-2.14,-2.21,-0.71,-0.71,-0.71
579,1.43,2.14,1.43,2.14,-2.14,-2.17,-0.71,-0.71,-0.71
585,1.43,2.14,1.43,2.14,-2.14,-2.14,-0.71,-0.71,-0.71
591,1.43,2.14,1.43,2.14,-2.14,-2.10,-0.71,-0.71,-0.71
596,1.43,2.14,1.43,2.14,-2.14,-2.07,-0.71,-0.71,-0.71
602,1.43,2.14,1.43,2.14,-2.14,-2.04,-0.71,-0.71,-0.71
608,1.43,2.14,1.43,2.14,-2.14,-2.01,-0.71,-0.71,-0.71
615,1.43,2.14,1.43,2.14,-2.14,-1.97,-0.71,-0.71,-0.71
621,1.43,2.14,1.43,2.14,-2.14,-1.93,-0.71,-0.71,-0.71
627,1.43,2.14,1.43,2.14,-2.14,-1.90,-0.71,-0.71,-0.71
633,1.43,2.14,1.43,2.14,-2.14,-1.87,-0.71,-0.71,-0.71
639,1.43,2.14,1.42,2.14,-2.14,-1.84,-0.71,-0.72,-0.71
646,1.43,2.14,1.42,2.15,-2.15,-1.81,-0.71,-0.73,-0.71
652,1.43,2.14,1.43,2.15,-2.15,-1.78,-0.72,-0.72,-0.71
659,1.43,2.14,1.44,2.16,-2.16,-1.75,-0.73,-0.72,-0.71
665,1.43,2.14,1.45,2.17,-2.17,-1.72,-0.73,-0.71,-0.71
672,1.43,2.14,1.46,2.18,-2.18,-1.70,-0.74,-0.71,-0.71
679,1.43,2.14,1.47,2.18,-2.18,-1.67,-0.75,-0.71,-0.71
686,1.43,2.14,1.48,2.19,-2.19,-1.64,-0.76,-0.71,-0.71
692,1.43,2.14,1.48,2.20,-2.20,-1.62,-0.76,-0.72,-0.71
699,1.51,2.22,1.48,2.21,-2.21,-1.60,-0.69,-0.72,-0.71
706,1.60,2.31,1.49,2.21,-2.21,-1.58,-0.61,-0.72,-0.71
713,1.60,2.31,1.49,2.21,-2.21,-1.56,-0.61,-0.73,-0.71
721,1.50,2.21,1.49,2.21,-2.21,-1.54,-0.71,-0.72,-0.71
728,1.43,2.14,1.49,2.21,-2.21,-1.52,-0.78,-0.72,-0.71
735,1.43,2.14,1.49,2.20,-2.20,-1.51,-0.77,-0.72,-0.71
742,1.43,2.14,1.48,2.20,-2.20,-1.49,-0.76,-0.71,-0.71
750,1.43,2.14,1.48,2.18,-2.18,-1.48,-0.75,-0.71,-0.71
757,1.43,2.14,1.46,2.17,-2.17,-1.47,-0.73,-0.71,-0.71
765,1.43,2.14,1.43,2.15,-2.15,-1.45,-0.72,-0.72,-0.71
773,1.43,2.14,1.40,2.13,-2.13,-1.44,-0.69,-0.73,-0.71
780,1.43,2.14,1.37,2.10,-2.10,-1.44,-0.67,-0.74,-0.71
788,1.43,2.14,1.34,2.08,-2.08,-1.43,-0.65,-0.74,-0.71
796,1.35,2.06,1.33,2.05,-2.05,-1.42,-0.70,-0.73,-0.71
804,1.27,1.98,1.31,2.02,-2.02,-1.41,-0.75,-0.71,-0.71
812,1.27,1.98,1.28,1.99,-1.99,-1.41,-0.72,-0.71,-0.71
820,1.18,1.89,1.24,1.96,-1.96,-1.40,-0.77,-0.71,-0.71
828,1.11,1.82,1.20,1.92,-1.92,-1.40,-0.81,-0.72,-0.71
837,1.11,1.82,1.17,1.88,-1.88,-1.40,-0.77,-0.72,-0.71
845,1.11,1.82,1.13,1.84,-1.84,-1.40,-0.73,-0.72,-0.71
853,1.11,1.82,1.08,1.80,-1.80,-1.39,-0.69,-0.72,-0.71
862,1.11,1.82,1.03,1.76,-1.76,-1.39,-0.64,-0.72,-0.71
871,1.11,1.82,0.98,1.71,-1.71,-1.39,-0.60,-0.73,-0.71
879,0.97,1.68,0.94,1.66,-1.66,-1.39,-0.69,-0.72,-0.71
888,0.79,1.50,0.90,1.61,-1.61,-1.39,-0.82,-0.71,-0.71
897,0.79,1.50,0.84,1.56,-1.56,-1.39,-0.76,-0.71,-0.71
906,0.79,1.50,0.79,1.50,-1.50,-1.39,-0.71,-0.71,-0.71
915,0.75,1.46,0.74,1.44,-1.44,-1.39,-0.69,-0.70,-0.71
924,0.64,1.35,0.66,1.38,-1.38,-1.39,-0.73,-0.71,-0.71
933,0.53,1.24,0.59,1.31,-1.31,-1.39,-0.77,-0.71,-0.71
943,0.46,1.17,0.52,1.23,-1.23,-1.39,-0.77,-0.71,-0.71
952,0.46,1.17,0.44,1.16,-1.16,-1.39,-0.69,-0.72,-0.71
962,0.46,1.17,0.35,1.07,-1.07,-1.39,-0.61,-0.72,-0.71
971,0.35,1.06,0.27,0.99,-0.99,-1.39,-0.63,-0.71,-0.71
981,0.14,0.85,0.19,0.89,-0.89,-1.39,-0.75,-0.70,-0.71
991,0.14,0.85,0.09,0.80,-0.80,-1.39,-0.65,-0.71,-0.71
1001,-0.02,0.69,-0.01,0.70,-0.70,-1.39,-0.71,-0.71,-0.71
1011,-0.19,0.52,-0.11,0.59,-0.59,-1.38,-0.78,-0.70,-0.71
1021,-0.19,0.52,-0.21,0.48,-0.48,-1.38,-0.67,-0.70,-0.71
1031,-0.36,0.35,-0.33,0.38,-0.38,-1.38,-0.73,-0.70,-0.71
1041,-0.51,0.20,-0.44,0.27,-0.27,-1.37,-0.77,-0.71,-0.71
1052,-0.51,0.20,-0.56,0.16,-0.16,-1.37,-0.67,-0.72,-0.71
1062,-0.61,0.10,-0.67,0.06,-0.06,-1.37,-0.66,-0.73,-0.71
1073,-0.72,-0.01,-0.76,-0.04,0.04,-1.36,-0.67,-0.72,-0.71
1084,-0.84,-0.13,-0.85,-0.14,0.14,-1.36,-0.70,-0.71,-0.71
1094,-0.94,-0.23,-0.94,-0.22,0.22,-1.35,-0.72,-0.72,-0.71
1105,-1.05,-0.34,-1.02,-0.29,0.29,-1.35,-0.75,-0.72,-0.71
1116,-1.16,-0.45,-1.08,-0.36,0.36,-1.35,-0.80,-0.73,-0.71
1128,-1.16,-0.45,-1.14,-0.40,0.40,-1.34,-0.75,-0.73,-0.71
1139,-1.16,-0.45,-1.17,-0.43,0.43,-1.34,-0.72,-0.73,-0.71
1150,-1.16,-0.45,-1.19,-0.44,0.44,-1.33,-0.71,-0.74,-0.71
1162,-1.16,-0.45,-1.19,-0.43,0.43,-1.33,-0.72,-0.76,-0.71
1173,-1.16,-0.45,-1.17,-0.40,0.40,-1.33,-0.76,-0.77,-0.71
1185,-1.16,-0.45,-1.12,-0.35,0.35,-1.33,-0.81,-0.78,-0.71
1197,-1.16,-0.45,-1.05,-0.27,0.27,-1.32,-0.89,-0.78,-0.71
1209,-0.96,-0.25,-0.94,-0.16,0.16,-1.32,-0.79,-0.77,-0.71
1221,-0.79,-0.08,-0.81,-0.04,0.04,-1.32,-0.75,-0.77,-0.71
1233,-0.68,0.03,-0.65,0.11,-0.11,-1.33,-0.78,-0.76,-0.71
1246,-0.56,0.15,-0.49,0.28,-0.28,-1.33,-0.83,-0.76,-0.71
1258,-0.39,0.32,-0.30,0.46,-0.46,-1.33,-0.85,-0.76,-0.71
1271,-0.14,0.57,-0.09,0.66,-0.66,-1.33,-0.80,-0.75,-0.71
1283,0.18,0.89,0.14,0.88,-0.88,-1.34,-0.69,-0.74,-0.71
1296,0.45,1.16,0.37,1.10,-1.10,-1.34,-0.65,-0.73,-0.71
1309,0.67,1.38,0.62,1.34,-1.34,-1.35,-0.66,-0.72,-0.71
1322,0.90,1.61,0.86,1.57,-1.57,-1.36,-0.67,-0.71,-0.71
1335,1.12,1.83,1.10,1.81,-1.81,-1.37,-0.69,-0.71,-0.71
1349,1.35,2.06,1.34,2.05,-2.05,-1.38,-0.70,-0.71,-0.71
1362,1.57,2.28,1.59,2.29,-2.29,-1.39,-0.72,-0.71,-0.71
1376,1.80,2.51,1.83,2.53,-2.53,-1.41,-0.73,-0.70,-0.71
1390,2.03,2.74,2.07,2.76,-2.76,-1.42,-0.73,-0.70,-0.71
1404,2.26,2.97,2.29,2.99,-2.99,-1.44,-0.73,-0.71,-0.71
1418,2.48,3.19,2.50,3.21,-3.21,-1.45,-0.73,-0.71,-0.71
1432,2.70,3.41,2.71,3.42,-3.42,-1.47,-0.72,-0.71,-0.71
1446,2.92,3.63,2.92,3.62,-3.62,-1.49,-0.70,-0.70,-0.71
1461,3.15,3.86,3.11,3.81,-3.81,-1.51,-0.65,-0.70,-0.71
1475,3.29,4.00,3.28,3.98,-3.98,-1.53,-0.69,-0.71,-0.71
1490,3.44,4.15,3.43,4.15,-4.15,-1.56,-0.70,-0.71,-0.71
1505,3.66,4.37,3.58,4.29,-4.29,-1.58,-0.63,-0.71,-0.71
1520,3.71,4.42,3.72,4.43,-4.43,-1.61,-0.71,-0.70,-0.71
1535,3.78,4.49,3.84,4.54,-4.54,-1.63,-0.76,-0.70,-0.71
1550,4.00,4.71,3.94,4.64,-4.64,-1.66,-0.64,-0.70,-0.71
1566,4.03,4.74,4.02,4.73,-4.73,-1.69,-0.69,-0.71,-0.71
1582,4.03,4.74,4.09,4.80,-4.80,-1.71,-0.76,-0.71,-0.71
1597,4.03,4.74,4.14,4.85,-4.85,-1.74,-0.81,-0.71,-0.71
1613,4.14,4.85,4.17,4.88,-4.88,-1.77,-0.74,-0.71,-0.71
1629,4.25,4.96,4.19,4.90,-4.90,-1.80,-0.65,-0.71,-0.71
1646,4.34,5.05,4.20,4.90,-4.90,-1.83,-0.56,-0.70,-0.71
1662,4.23,4.94,4.18,4.89,-4.89,-1.86,-0.65,-0.71,-0.71
1679,4.11,4.82,4.15,4.86,-4.86,-1.88,-0.75,-0.71,-0.71
