frequency,raw
20,-15.57
21,-14.69
22,-14.00
23,-13.50
24,-13.02
25,-12.47
26,-12.00
27,-11.53
28,-11.21
29,-10.72
30,-10.34
31,-9.97
32,-9.49
33,-9.26
34,-8.77
35,-8.44
36,-8.13
37,-7.84
38,-7.56
39,-7.22
40,-7.05
41,-6.81
42,-6.49
43,-6.16
44,-5.87
45,-5.76
46,-5.51
47,-5.27
48,-5.19
49,-4.96
50,-4.73
51,-4.54
52,-4.45
53,-4.24
54,-4.16
55,-3.89
56,-3.67
57,-3.57
58,-3.38
59,-3.24
60,-3.08
61,-2.92
62,-2.92
63,-2.63
64,-2.59
65,-2.57
66,-2.27
67,-2.24
68,-2.07
69,-1.95
70,-1.91
71,-1.75
72,-1.62
73,-1.62
74,-1.59
75,-1.30
76,-1.30
77,-1.30
78,-1.30
79,-1.19
80,-1.05
81,-0.97
82,-0.97
83,-0.97
84,-0.97
85,-0.85
86,-0.81
87,-0.81
88,-0.81
89,-0.81
90,-0.81
91,-0.81
92,-0.85
93,-0.97
94,-0.97
95,-0.97
96,-0.97
97,-0.97
98,-1.08
99,-1.19
100,-1.30
101,-1.30
102,-1.30
104,-1.56
105,-1.62
106,-1.64
107,-1.75
108,-1.85
109,-1.95
110,-1.95
111,-2.00
112,-2.10
113,-2.20
114,-2.30
115,-2.40
117,-2.59
118,-2.59
119,-2.62
120,-2.72
121,-2.81
123,-2.92
124,-2.93
125,-3.12
126,-3.24
128,-3.29
129,-3.37
130,-3.46
131,-3.55
133,-3.87
134,-3.96
135,-4.05
137,-4.21
138,-4.30
140,-4.46
141,-4.54
142,-4.70
144,-4.86
145,-4.86
147,-5.16
148,-5.25
150,-5.40
151,-5.48
153,-5.73
154,-5.84
156,-5.85
157,-5.99
159,-6.16
160,-6.16
162,-6.38
164,-6.49
165,-6.49
167,-6.61
169,-6.75
170,-6.81
172,-6.81
174,-6.81
175,-6.81
177,-6.81
179,-6.91
181,-7.04
183,-7.14
184,-7.14
186,-7.14
188,-7.14
190,-7.14
192,-7.14
194,-7.17
196,-7.29
198,-7.30
200,-7.30
202,-7.30
204,-7.30
206,-7.30
208,-7.31
210,-7.42
212,-7.46
214,-7.46
216,-7.46
218,-7.41
221,-7.30
223,-7.30
225,-7.21
227,-7.14
229,-7.14
232,-7.14
234,-7.14
236,-7.14
239,-7.02
241,-6.92
244,-6.78
246,-6.69
248,-6.60
251,-6.44
253,-6.26
256,-6.08
259,-5.89
261,-5.72
264,-5.46
266,-5.32
269,-5.19
272,-4.95
274,-4.78
277,-4.54
280,-4.29
283,-4.13
286,-3.98
288,-3.82
291,-3.66
294,-3.52
297,-3.29
300,-3.15
303,-3.04
306,-2.93
309,-2.72
312,-2.59
316,-2.53
319,-2.32
322,-2.19
325,-2.09
328,-1.98
332,-1.95
335,-1.86
338,-1.66
342,-1.62
345,-1.57
349,-1.44
352,-1.35
356,-1.30
359,-1.28
363,-1.02
366,-0.97
370,-0.95
374,-0.82
377,-0.73
381,-0.65
385,-0.65
389,-0.54
393,-0.49
397,-0.47
401,-0.36
405,-0.32
409,-0.32
413,-0.32
417,-0.32
421,-0.32
425,-0.32
430,-0.32
434,-0.37
438,-0.47
443,-0.60
447,-0.65
451,-0.65
456,-0.65
460,-0.65
465,-0.66
470,-0.78
474,-0.88
479,-0.97
484,-0.97
489,-0.97
494,-0.97
499,-0.97
504,-0.97
509,-0.91
514,-0.80
519,-0.69
524,-0.65
529,-0.65
535,-0.65
540,-0.57
545,-0.46
551,-0.34
556,-0.32
562,-0.32
568,-0.32
573,-0.22
579,-0.11
585,0.00
591,-0.00
596,0.00
602,-0.00
608,-0.00
615,-0.00
621,-0.00
627,-0.00
633,0.00
639,0.04
646,0.16
652,0.26
659,0.32
665,0.32
672,0.32
679,0.32
686,0.32
692,0.32
699,0.25
706,0.19
713,0.30
721,0.32
728,0.32
735,0.32
742,0.32
750,0.32
757,0.32
765,0.32
773,0.32
780,0.32
788,0.32
796,0.24
804,0.20
812,0.31
820,0.32
828,0.32
837,0.32
845,0.32
853,0.32
862,0.32
871,0.32
879,0.32
888,0.30
897,0.19
906,0.16
915,0.13
924,0.02
933,-0.00
943,-0.00
952,0.00
962,-0.00
971,0.00
981,-0.00
991,-0.00
1001,0.00
1011,-0.00
1021,-0.00
1031,0.00
1041,-0.00
1052,-0.00
1062,-0.00
1073,0.05
1084,0.17
1094,0.27
1105,0.32
1116,0.32
1128,0.32
1139,0.40
1150,0.51
1162,0.63
1173,0.65
1185,0.68
1197,0.80
1209,0.91
1221,0.97
1233,0.97
1246,1.09
1258,1.20
1271,1.30
1283,1.30
1296,1.30
1309,1.32
1322,1.43
1335,1.54
1349,1.62
1362,1.62
1376,1.62
1390,1.62
1404,1.62
1418,1.62
1432,1.62
1446,1.63
1461,1.75
1475,1.78
1490,1.81
1505,1.92
1520,1.95
1535,1.95
1550,1.95
1566,1.95
1582,1.95
1597,1.95
1613,2.06
1629,2.17
1646,2.27
1662,2.27
1679,2.27
1696,2.27
1713,2.27
1730,2.27
1747,2.31
1764,2.42
1782,2.53
1800,2.59
1818,2.59
1836,2.59
1854,2.59
1873,2.59
1892,2.59
1911,2.59
1930,2.59
1949,2.59
1969,2.59
1988,2.59
2008,2.59
2028,2.59
2048,2.59
2069,2.59
2090,2.59
2111,2.59
2132,2.59
2153,2.59
2175,2.59
2196,2.59
2218,2.59
2240,2.59
2263,2.59
2285,2.59
2308,2.59
2331,2.59
2355,2.59
2378,2.59
2402,2.59
2426,2.63
2450,2.85
2475,2.92
2500,2.92
2525,2.92
2550,3.01
2575,3.12
2601,3.24
2627,3.24
2653,3.24
2680,3.24
2707,3.24
2734,3.24
2761,3.24
2789,3.24
2817,3.24
2845,3.24
2873,3.24
2902,3.05
2931,2.87
2960,2.76
2990,2.54
3020,2.31
3050,2.08
3080,1.75
3111,1.41
3142,1.10
3174,0.87
3206,0.47
3238,0.09
3270,-0.13
3303,-0.45
3336,-0.65
3369,-0.65
3403,-0.65
3437,-0.59
3471,-0.47
3506,-0.24
3541,0.05
3576,0.41
3612,0.86
3648,1.31
3685,1.76
3721,2.20
3759,2.86
3796,3.43
3834,3.88
3873,4.23
3911,4.62
3950,5.06
3990,5.52
4030,5.82
4070,6.05
4111,6.27
4152,6.41
4193,6.56
4235,6.78
4278,6.81
4321,6.81
4364,6.81
4407,6.81
4451,6.81
4496,6.79
4541,6.56
4586,6.49
4632,6.42
4679,6.07
4725,5.83
4773,5.60
4820,5.38
4868,4.96
4917,4.55
4966,4.22
5016,3.77
5066,3.20
5117,2.54
5168,2.09
5220,1.49
5272,0.87
5325,0.42
5378,-0.12
5432,-0.60
5486,-0.94
5541,-1.18
5596,-1.30
5652,-1.30
5709,-1.30
5766,-1.17
5823,-0.95
5882,-0.72
5940,-0.42
6000,-0.11
6060,0.12
6120,0.43
6182,0.77
6244,1.11
6306,1.34
6369,1.51
6433,1.63
6497,1.85
6562,2.08
6628,2.27
6694,2.27
6761,2.27
6828,2.30
6897,2.41
6966,2.43
7035,2.39
7106,2.28
7177,2.27
7249,2.27
7321,2.27
7394,2.15
7468,2.04
7543,1.91
7618,1.69
7694,1.54
7771,1.37
7849,1.04
7928,0.79
8007,0.52
8087,0.19
8168,-0.15
8250,-0.49
8332,-0.83
8415,-1.28
8499,-1.73
8584,-2.19
8670,-2.75
8757,-3.16
8845,-3.53
8933,-3.97
9022,-4.24
9113,-4.42
9204,-4.53
9296,-4.22
9389,-3.89
9483,-3.54
9577,-2.98
9673,-2.35
9770,-1.67
9868,-1.00
9966,-0.33
10066,0.35
10167,1.03
10268,1.70
10371,2.33
10475,2.89
10579,3.34
10685,3.85
10792,4.41
10900,4.86
11009,5.30
11119,5.71
11230,5.94
11343,6.17
11456,6.45
11571,6.91
11686,7.16
11803,7.34
11921,7.45
12040,7.67
12161,7.90
12282,8.11
12405,8.11
12529,8.11
12655,8.09
12781,7.98
12909,7.86
13038,7.72
13168,7.49
13300,7.27
13433,7.04
13567,6.82
13703,6.59
13840,6.31
13978,5.98
14118,5.76
14259,5.53
14402,5.31
14546,5.08
14692,4.77
14838,4.47
14987,4.25
15137,4.02
15288,3.75
15441,3.41
15595,3.19
15751,2.84
15909,2.40
16068,2.06
16229,1.65
16391,1.20
16555,0.75
16720,0.31
16888,-0.14
17056,-0.59
17227,-1.04
17399,-1.49
17573,-1.94
17749,-2.50
17926,-2.94
18106,-3.29
18287,-3.74
18470,-4.19
18654,-4.61
18841,-4.95
19029,-5.37
19220,-5.75
19412,-5.97
19606,-6.40
19802,-6.85
20000,-7.30
