frequency,raw,error,smoothed,error_smoothed,equalization,parametric_eq,equalized_raw,equalized_smoothed,target
20.00,5.75,6.44,5.75,6.44,-6.44,-4.12,-0.69,-0.69,-0.69
20.20,5.86,6.51,5.86,6.51,-6.51,-4.23,-0.65,-0.65,-0.65
20.40,5.98,6.58,5.98,6.59,-6.59,-4.34,-0.61,-0.61,-0.61
20.61,6.09,6.66,6.09,6.66,-6.66,-4.45,-0.57,-0.57,-0.57
20.81,6.21,6.73,6.20,6.73,-6.73,-4.57,-0.52,-0.53,-0.53
21.02,6.31,6.80,6.32,6.80,-6.80,-4.69,-0.49,-0.49,-0.49
21.23,6.42,6.87,6.43,6.87,-6.87,-4.81,-0.45,-0.45,-0.45
21.44,6.54,6.94,6.54,6.95,-6.95,-4.94,-0.41,-0.41,-0.41
21.66,6.64,7.01,6.65,7.02,-7.02,-5.07,-0.38,-0.37,-0.37
21.87,6.77,7.09,6.76,7.09,-7.09,-5.20,-0.32,-0.33,-0.33
22.09,6.88,7.16,6.87,7.16,-7.16,-5.34,-0.29,-0.29,-0.29
22.31,6.99,7.23,6.98,7.23,-7.23,-5.48,-0.25,-0.25,-0.25
22.54,7.09,7.30,7.09,7.30,-7.30,-5.63,-0.21,-0.21,-0.21
22.76,7.20,7.37,7.20,7.37,-7.37,-5.78,-0.17,-0.17,-0.17
22.99,7.31,7.44,7.31,7.44,-7.44,-5.93,-0.13,-0.13,-0.13
23.22,7.42,7.51,7.42,7.51,-7.51,-6.09,-0.09,-0.09,-0.09
23.45,7.53,7.59,7.53,7.58,-7.58,-6.25,-0.05,-0.05,-0.05
23.69,7.64,7.65,7.64,7.65,-7.65,-6.41,-0.01,-0.01,-0.01
23.92,7.76,7.73,7.75,7.72,-7.72,-6.57,0.03,0.03,0.03
24.16,7.85,7.79,7.86,7.79,-7.79,-6.74,0.06,0.07,0.07
24.40,7.97,7.86,7.97,7.86,-7.86,-6.92,0.10,0.10,0.10
24.65,8.07,7.93,8.07,7.93,-7.93,-7.09,0.14,0.14,0.14
24.89,8.18,8.00,8.18,8.00,-8.00,-7.27,0.18,0.18,0.18
25.14,8.29,8.07,8.28,8.06,-8.06,-7.45,0.22,0.22,0.22
25.39,8.39,8.13,8.39,8.13,-8.13,-7.64,0.25,0.25,0.26
25.65,8.49,8.20,8.49,8.20,-8.20,-7.82,0.29,0.29,0.29
25.91,8.59,8.26,8.59,8.26,-8.26,-8.01,0.33,0.33,0.33
26.16,8.70,8.33,8.69,8.33,-8.33,-8.20,0.36,0.36,0.37
26.43,8.79,8.39,8.80,8.40,-8.40,-8.38,0.40,0.40,0.40
26.69,8.89,8.46,8.90,8.46,-8.46,-8.57,0.43,0.43,0.44
26.96,8.99,8.52,9.00,8.53,-8.53,-8.76,0.47,0.47,0.47
27.23,9.09,8.59,9.10,8.59,-8.59,-8.94,0.50,0.50,0.51
27.50,9.19,8.65,9.19,8.66,-8.66,-9.12,0.54,0.54,0.54
27.77,9.29,8.71,9.29,8.72,-8.72,-9.30,0.57,0.57,0.57
28.05,9.38,8.78,9.39,8.78,-8.78,-9.47,0.60,0.60,0.60
28.33,9.47,8.84,9.48,8.84,-8.84,-9.63,0.63,0.64,0.64
28.62,9.56,8.89,9.57,8.90,-8.90,-9.79,0.66,0.67,0.67
28.90,9.66,8.96,9.66,8.96,-8.96,-9.94,0.71,0.70,0.70
29.19,9.75,9.02,9.74,9.01,-9.01,-10.09,0.74,0.73,0.73
29.48,9.83,9.07,9.83,9.07,-9.07,-10.22,0.77,0.76,0.76
29.78,9.92,9.13,9.91,9.12,-9.12,-10.34,0.81,0.79,0.79
30.08,10.00,9.18,9.99,9.17,-9.17,-10.44,0.84,0.82,0.82
30.38,10.06,9.21,10.06,9.21,-9.21,-10.54,0.85,0.85,0.85
30.68,10.13,9.26,10.13,9.26,-9.26,-10.62,0.88,0.88,0.88
30.99,10.20,9.30,10.21,9.30,-9.30,-10.69,0.90,0.90,0.91
31.30,10.26,9.33,10.27,9.34,-9.34,-10.74,0.92,0.93,0.93
31.61,10.33,9.38,10.34,9.39,-9.39,-10.78,0.95,0.95,0.96
31.93,10.39,9.41,10.40,9.43,-9.43,-10.81,0.97,0.98,0.98
32.24,10.46,9.46,10.47,9.47,-9.47,-10.82,1.00,1.00,1.00
32.57,10.52,9.50,10.53,9.51,-9.51,-10.82,1.02,1.02,1.02
32.89,10.59,9.55,10.59,9.55,-9.55,-10.80,1.05,1.04,1.05
33.22,10.65,9.59,10.65,9.58,-9.58,-10.78,1.07,1.06,1.06
33.55,10.70,9.62,10.71,9.62,-9.62,-10.75,1.08,1.08,1.08
33.89,10.76,9.66,10.76,9.66,-9.66,-10.70,1.10,1.10,1.10
34.23,10.82,9.70,10.82,9.70,-9.70,-10.65,1.12,1.12,1.12
34.57,10.87,9.74,10.88,9.74,-9.74,-10.60,1.13,1.14,1.14
34.92,10.93,9.78,10.93,9.78,-9.78,-10.53,1.15,1.15,1.15
35.27,10.98,9.82,10.99,9.82,-9.82,-10.47,1.16,1.17,1.16
35.62,11.03,9.86,11.04,9.86,-9.86,-10.40,1.17,1.18,1.18
35.97,11.09,9.90,11.09,9.90,-9.90,-10.33,1.19,1.19,1.19
36.33,11.14,9.94,11.14,9.94,-9.94,-10.26,1.20,1.20,1.20
36.70,11.19,9.98,11.19,9.98,-9.98,-10.19,1.21,1.21,1.21
37.06,11.24,10.02,11.24,10.02,-10.02,-10.12,1.22,1.22,1.22
37.43,11.28,10.06,11.29,10.06,-10.06,-10.05,1.22,1.23,1.23
37.81,11.33,10.10,11.33,10.10,-10.10,-9.98,1.23,1.23,1.23
38.19,11.37,10.13,11.38,10.15,-10.15,-9.92,1.23,1.24,1.24
38.57,11.42,10.18,11.43,10.19,-10.19,-9.86,1.23,1.24,1.24
38.95,11.47,10.23,11.48,10.23,-10.23,-9.81,1.24,1.24,1.25
39.34,11.52,10.27,11.53,10.28,-10.28,-9.75,1.25,1.25,1.25
39.74,11.57,10.32,11.57,10.32,-10.32,-9.71,1.25,1.25,1.25
40.14,11.62,10.37,11.62,10.37,-10.37,-9.67,1.25,1.25,1.25
40.54,11.66,10.41,11.67,10.42,-10.42,-9.63,1.25,1.25,1.25
40.94,11.71,10.46,11.72,10.46,-10.46,-9.60,1.25,1.25,1.26
41.35,11.76,10.51,11.77,10.51,-10.51,-9.58,1.25,1.25,1.26
41.76,11.81,10.56,11.81,10.56,-10.56,-9.57,1.26,1.26,1.26
42.18,11.86,10.61,11.86,10.61,-10.61,-9.55,1.26,1.26,1.26
42.60,11.91,10.66,11.91,10.65,-10.65,-9.55,1.26,1.26,1.25
43.03,11.95,10.70,11.95,10.70,-10.70,-9.55,1.26,1.25,1.25
43.46,12.00,10.75,12.00,10.74,-10.74,-9.56,1.26,1.25,1.25
43.90,12.04,10.79,12.04,10.79,-10.79,-9.58,1.26,1.25,1.25
44.33,12.08,10.83,12.09,10.83,-10.83,-9.60,1.25,1.25,1.25
44.78,12.12,10.87,12.13,10.87,-10.87,-9.63,1.25,1.25,1.25
45.23,12.16,10.91,12.17,10.92,-10.92,-9.67,1.25,1.25,1.25
45.68,12.21,10.96,12.21,10.96,-10.96,-9.71,1.26,1.25,1.25
46.13,12.25,11.00,12.25,11.00,-11.00,-9.76,1.26,1.26,1.26
46.60,12.29,11.04,12.29,11.04,-11.04,-9.82,1.26,1.26,1.26
47.06,12.33,11.07,12.33,11.07,-11.07,-9.88,1.26,1.26,1.26
47.53,12.37,11.11,12.37,11.11,-11.11,-9.95,1.26,1.26,1.26
48.01,12.41,11.15,12.41,11.15,-11.15,-10.02,1.27,1.27,1.27
48.49,12.44,11.17,12.45,11.18,-11.18,-10.10,1.26,1.27,1.27
48.97,12.48,11.21,12.49,11.21,-11.21,-10.19,1.27,1.27,1.27
49.46,12.52,11.25,12.52,11.24,-11.24,-10.28,1.28,1.28,1.28
49.96,12.56,11.28,12.56,11.27,-11.27,-10.38,1.29,1.28,1.28
50.46,12.59,11.31,12.59,11.30,-11.30,-10.49,1.29,1.29,1.29
50.96,12.62,11.33,12.62,11.33,-11.33,-10.59,1.30,1.29,1.29
51.47,12.64,11.35,12.65,11.35,-11.35,-10.70,1.29,1.30,1.30
51.99,12.67,11.37,12.68,11.37,-11.37,-10.82,1.30,1.30,1.30
52.51,12.70,11.40,12.70,11.39,-11.39,-10.94,1.31,1.31,1.31
53.03,12.72,11.41,12.72,11.41,-11.41,-11.06,1.31,1.31,1.31
53.56,12.74,11.43,12.75,11.43,-11.43,-11.18,1.31,1.31,1.31
54.10,12.76,11.45,12.77,11.45,-11.45,-11.30,1.31,1.31,1.32
54.64,12.78,11.47,12.78,11.47,-11.47,-11.43,1.31,1.31,1.32
55.18,12.80,11.49,12.80,11.49,-11.49,-11.55,1.32,1.31,1.32
55.74,12.81,11.50,12.81,11.50,-11.50,-11.67,1.31,1.31,1.32
56.29,12.83,11.52,12.83,11.52,-11.52,-11.79,1.31,1.31,1.31
56.86,12.84,11.54,12.84,11.54,-11.54,-11.90,1.31,1.30,1.31
57.42,12.84,11.54,12.85,11.55,-11.55,-12.01,1.29,1.30,1.30
58.00,12.85,11.56,12.86,11.57,-11.57,-12.11,1.29,1.29,1.30
58.58,12.86,11.57,12.87,11.58,-11.58,-12.20,1.28,1.29,1.29
59.16,12.87,11.59,12.87,11.59,-11.59,-12.29,1.28,1.28,1.28
59.76,12.88,11.61,12.88,11.61,-11.61,-12.37,1.28,1.27,1.27
60.35,12.88,11.62,12.88,11.62,-11.62,-12.43,1.27,1.26,1.26
60.96,12.89,11.64,12.88,11.63,-11.63,-12.49,1.27,1.25,1.25
61.57,12.88,11.64,12.88,11.64,-11.64,-12.53,1.25,1.24,1.24
62.18,12.88,11.65,12.88,11.65,-11.65,-12.57,1.24,1.23,1.23
62.80,12.87,11.65,12.88,11.65,-11.65,-12.58,1.22,1.22,1.22
63.43,12.87,11.66,12.88,11.66,-11.66,-12.59,1.21,1.21,1.21
64.07,12.86,11.66,12.87,11.67,-11.67,-12.59,1.20,1.21,1.21
64.71,12.86,11.67,12.87,11.67,-11.67,-12.57,1.19,1.20,1.20
65.35,12.86,11.67,12.87,11.68,-11.68,-12.55,1.19,1.19,1.19
66.01,12.86,11.68,12.87,11.68,-11.68,-12.51,1.18,1.18,1.18
66.67,12.86,11.69,12.86,11.69,-11.69,-12.46,1.18,1.18,1.18
67.33,12.86,11.69,12.86,11.69,-11.69,-12.41,1.17,1.17,1.17
68.01,12.86,11.70,12.86,11.70,-11.70,-12.35,1.17,1.17,1.17
68.69,12.86,11.70,12.86,11.70,-11.70,-12.28,1.17,1.17,1.17
69.37,12.86,11.70,12.86,11.70,-11.70,-12.21,1.16,1.16,1.16
70.07,12.86,11.70,12.86,11.70,-11.70,-12.13,1.16,1.16,1.16
70.77,12.86,11.71,12.86,11.71,-11.71,-12.05,1.16,1.16,1.16
71.48,12.86,11.71,12.86,11.71,-11.71,-11.97,1.16,1.15,1.15
72.19,12.86,11.71,12.86,11.71,-11.71,-11.89,1.15,1.15,1.15
72.91,12.86,11.72,12.86,11.71,-11.71,-11.81,1.15,1.14,1.15
73.64,12.86,11.72,12.85,11.71,-11.71,-11.73,1.15,1.14,1.14
74.38,12.86,11.72,12.85,11.71,-11.71,-11.65,1.15,1.14,1.14
75.12,12.85,11.72,12.85,11.72,-11.72,-11.57,1.14,1.13,1.14
75.87,12.84,11.71,12.85,11.72,-11.72,-11.50,1.12,1.13,1.13
76.63,12.84,11.72,12.85,11.73,-11.73,-11.43,1.12,1.12,1.13
77.40,12.84,11.72,12.85,11.73,-11.73,-11.37,1.11,1.12,1.12
78.17,12.84,11.72,12.86,11.74,-11.74,-11.31,1.10,1.12,1.12
78.95,12.85,11.74,12.86,11.75,-11.75,-11.25,1.10,1.11,1.12
79.74,12.86,11.75,12.88,11.76,-11.76,-11.20,1.10,1.11,1.11
80.54,12.88,11.77,12.89,11.78,-11.78,-11.16,1.10,1.11,1.11
81.35,12.90,11.79,12.91,11.80,-11.80,-11.13,1.11,1.11,1.11
82.16,12.91,11.80,12.93,11.82,-11.82,-11.10,1.10,1.11,1.11
82.98,12.94,11.83,12.95,11.84,-11.84,-11.07,1.10,1.11,1.11
83.81,12.97,11.86,12.98,11.86,-11.86,-11.06,1.11,1.11,1.11
84.65,13.00,11.89,13.01,11.89,-11.89,-11.05,1.12,1.12,1.11
85.50,13.03,11.92,13.03,11.91,-11.91,-11.05,1.12,1.12,1.12
86.35,13.06,11.94,13.06,11.94,-11.94,-11.05,1.13,1.12,1.12
87.22,13.09,11.97,13.09,11.96,-11.96,-11.06,1.13,1.13,1.12
88.09,13.11,11.99,13.12,11.99,-11.99,-11.09,1.12,1.13,1.12
88.97,13.14,12.02,13.14,12.01,-12.01,-11.11,1.13,1.12,1.12
89.86,13.17,12.05,13.16,12.04,-12.04,-11.15,1.14,1.12,1.12
90.76,13.19,12.08,13.17,12.06,-12.06,-11.19,1.13,1.11,1.12
91.66,13.20,12.09,13.19,12.09,-12.09,-11.24,1.12,1.10,1.11
92.58,13.21,12.12,13.20,12.11,-12.11,-11.30,1.10,1.09,1.10
93.51,13.21,12.13,13.20,12.13,-12.13,-11.37,1.08,1.07,1.08
94.44,13.21,12.16,13.21,12.16,-12.16,-11.45,1.05,1.05,1.06
95.39,13.20,12.17,13.21,12.19,-12.19,-11.53,1.02,1.02,1.03
96.34,13.19,12.19,13.21,12.22,-12.22,-11.62,0.98,0.99,1.01
97.30,13.19,12.22,13.21,12.25,-12.25,-11.71,0.94,0.96,0.97
98.28,13.19,12.25,13.21,12.28,-12.28,-11.82,0.91,0.92,0.94
99.26,13.19,12.29,13.21,12.32,-12.32,-11.93,0.87,0.88,0.90
100.25,13.19,12.33,13.21,12.36,-12.36,-12.05,0.83,0.84,0.86
101.25,13.19,12.38,13.21,12.40,-12.40,-12.17,0.79,0.80,0.82
102.27,13.19,12.42,13.21,12.45,-12.45,-12.30,0.75,0.76,0.77
103.29,13.20,12.48,13.21,12.49,-12.49,-12.44,0.71,0.72,0.73
104.32,13.20,12.52,13.21,12.53,-12.53,-12.58,0.67,0.68,0.68
105.37,13.21,12.58,13.20,12.57,-12.57,-12.73,0.65,0.64,0.64
106.42,13.21,12.62,13.20,12.60,-12.60,-12.87,0.61,0.59,0.59
107.48,13.20,12.65,13.19,12.63,-12.63,-13.03,0.57,0.56,0.55
108.56,13.18,12.67,13.18,12.66,-12.66,-13.18,0.53,0.52,0.51
109.64,13.16,12.69,13.16,12.68,-12.68,-13.33,0.49,0.48,0.47
110.74,13.15,12.71,13.13,12.69,-12.69,-13.48,0.47,0.44,0.44
111.85,13.11,12.71,13.10,12.69,-12.69,-13.63,0.42,0.41,0.41
112.97,13.06,12.69,13.07,12.69,-12.69,-13.77,0.38,0.38,0.38
114.10,13.01,12.66,13.03,12.68,-12.68,-13.90,0.34,0.35,0.35
115.24,12.96,12.64,12.98,12.66,-12.66,-14.03,0.31,0.33,0.33
116.39,12.94,12.64,12.94,12.63,-12.63,-14.14,0.32,0.31,0.30
117.55,12.89,12.61,12.88,12.59,-12.59,-14.23,0.30,0.29,0.29
118.73,12.82,12.55,12.82,12.55,-12.55,-14.31,0.27,0.27,0.27
119.92,12.75,12.50,12.76,12.50,-12.50,-14.36,0.25,0.26,0.26
121.12,12.67,12.43,12.70,12.44,-12.44,-14.39,0.23,0.25,0.25
122.33,12.62,12.39,12.62,12.38,-12.38,-14.40,0.24,0.24,0.24
123.55,12.56,12.33,12.55,12.32,-12.32,-14.38,0.25,0.23,0.23
124.79,12.47,12.25,12.47,12.24,-12.24,-14.33,0.23,0.22,0.23
126.03,12.37,12.15,12.38,12.16,-12.16,-14.25,0.21,0.22,0.22
127.29,12.31,12.10,12.30,12.08,-12.08,-14.15,0.23,0.21,0.21
128.57,12.22,12.02,12.20,12.00,-12.00,-14.01,0.23,0.21,0.21
129.85,12.10,11.90,12.10,11.91,-11.91,-13.85,0.20,0.20,0.20
131.15,11.97,11.78,12.00,11.81,-11.81,-13.66,0.16,0.19,0.20
132.46,11.91,11.72,11.90,11.72,-11.72,-13.45,0.19,0.18,0.19
133.79,11.80,11.62,11.79,11.62,-11.62,-13.23,0.18,0.17,0.18
135.12,11.65,11.48,11.69,11.52,-11.52,-12.98,0.13,0.16,0.17
136.48,11.57,11.42,11.57,11.43,-11.43,-12.72,0.15,0.15,0.16
137.84,11.45,11.31,11.46,11.33,-11.33,-12.44,0.13,0.13,0.14
139.22,11.36,11.24,11.35,11.23,-11.23,-12.16,0.14,0.12,0.13
140.61,11.24,11.13,11.23,11.13,-11.13,-11.87,0.11,0.10,0.11
142.02,11.08,10.99,11.12,11.03,-11.03,-11.57,0.05,0.09,0.09
143.44,10.99,10.92,11.00,10.93,-10.93,-11.27,0.06,0.07,0.08
144.87,10.86,10.81,10.88,10.83,-10.83,-10.97,0.03,0.05,0.06
146.32,10.75,10.72,10.76,10.73,-10.73,-10.66,0.03,0.03,0.04
147.78,10.62,10.61,10.63,10.62,-10.62,-10.36,-0.00,0.01,0.01
149.26,10.52,10.53,10.51,10.52,-10.52,-10.05,0.01,-0.01,-0.01
150.75,10.37,10.40,10.37,10.41,-10.41,-9.75,-0.04,-0.03,-0.03
152.26,10.26,10.32,10.24,10.30,-10.30,-9.45,-0.03,-0.06,-0.05
153.78,10.12,10.20,10.10,10.18,-10.18,-9.15,-0.06,-0.08,-0.08
155.32,9.98,10.08,9.96,10.06,-10.06,-8.86,-0.08,-0.11,-0.10
156.88,9.80,9.93,9.82,9.94,-9.94,-8.57,-0.14,-0.12,-0.12
158.44,9.66,9.81,9.67,9.81,-9.81,-8.28,-0.15,-0.14,-0.15
160.03,9.46,9.63,9.51,9.68,-9.68,-7.99,-0.22,-0.17,-0.17
161.63,9.34,9.54,9.35,9.54,-9.54,-7.71,-0.20,-0.19,-0.19
163.24,9.21,9.43,9.18,9.40,-9.40,-7.44,-0.19,-0.22,-0.21
164.88,9.00,9.24,9.01,9.25,-9.25,-7.16,-0.25,-0.24,-0.23
166.53,8.84,9.10,8.84,9.10,-9.10,-6.90,-0.25,-0.26,-0.25
168.19,8.70,8.98,8.66,8.94,-8.94,-6.63,-0.23,-0.27,-0.27
169.87,8.46,8.75,8.48,8.77,-8.77,-6.37,-0.31,-0.29,-0.29
171.57,8.29,8.60,8.30,8.60,-8.60,-6.11,-0.30,-0.30,-0.31
173.29,8.13,8.45,8.10,8.42,-8.42,-5.86,-0.28,-0.31,-0.32
175.02,7.86,8.19,7.91,8.23,-8.23,-5.61,-0.37,-0.32,-0.33
176.77,7.68,8.02,7.71,8.04,-8.04,-5.36,-0.36,-0.33,-0.34
178.54,7.51,7.86,7.51,7.84,-7.84,-5.11,-0.33,-0.34,-0.34
180.32,7.33,7.68,7.30,7.64,-7.64,-4.87,-0.31,-0.35,-0.35
182.13,7.14,7.49,7.08,7.43,-7.43,-4.63,-0.29,-0.35,-0.35
183.95,6.84,7.19,6.87,7.22,-7.22,-4.40,-0.38,-0.35,-0.35
185.79,6.63,6.98,6.66,7.01,-7.01,-4.17,-0.37,-0.35,-0.34
187.65,6.42,6.76,6.44,6.79,-6.79,-3.94,-0.36,-0.35,-0.34
189.52,6.20,6.54,6.22,6.56,-6.56,-3.71,-0.36,-0.34,-0.34
191.42,5.97,6.31,6.00,6.33,-6.33,-3.49,-0.36,-0.34,-0.33
193.33,5.75,6.08,5.77,6.10,-6.10,-3.27,-0.35,-0.33,-0.33
195.27,5.52,5.85,5.54,5.87,-5.87,-3.05,-0.34,-0.33,-0.32
197.22,5.29,5.61,5.30,5.63,-5.63,-2.84,-0.33,-0.33,-0.32
199.19,5.06,5.38,5.05,5.38,-5.38,-2.62,-0.32,-0.33,-0.32
201.18,4.83,5.15,4.80,5.14,-5.14,-2.42,-0.30,-0.33,-0.32
203.19,4.58,4.90,4.55,4.88,-4.88,-2.21,-0.30,-0.33,-0.32
205.23,4.32,4.65,4.30,4.63,-4.63,-2.01,-0.30,-0.32,-0.32
207.28,4.05,4.38,4.04,4.37,-4.37,-1.81,-0.31,-0.33,-0.33
209.35,3.77,4.11,3.77,4.10,-4.10,-1.62,-0.33,-0.33,-0.33
211.44,3.49,3.83,3.49,3.83,-3.83,-1.43,-0.34,-0.34,-0.34
213.56,3.19,3.54,3.21,3.56,-3.56,-1.24,-0.36,-0.35,-0.35
215.69,2.89,3.25,2.92,3.28,-3.28,-1.06,-0.39,-0.36,-0.36
217.85,2.58,2.96,2.62,3.00,-3.00,-0.88,-0.42,-0.38,-0.37
220.03,2.36,2.75,2.32,2.72,-2.72,-0.71,-0.35,-0.39,-0.39
222.23,2.09,2.50,2.03,2.43,-2.43,-0.55,-0.34,-0.40,-0.40
224.45,1.75,2.17,1.72,2.14,-2.14,-0.39,-0.39,-0.42,-0.42
226.70,1.41,1.85,1.42,1.86,-1.86,-0.24,-0.44,-0.43,-0.43
228.96,1.07,1.53,1.12,1.57,-1.57,-0.10,-0.50,-0.45,-0.45
231.25,0.83,1.30,0.81,1.28,-1.28,0.04,-0.45,-0.47,-0.47
233.57,0.51,1.00,0.51,1.00,-1.00,0.17,-0.49,-0.49,-0.49
235.90,0.17,0.68,0.22,0.72,-0.72,0.28,-0.55,-0.50,-0.50
238.26,-0.06,0.46,-0.07,0.44,-0.44,0.39,-0.50,-0.52,-0.52
240.64,-0.36,0.18,-0.36,0.17,-0.17,0.49,-0.53,-0.54,-0.54
243.05,-0.60,-0.05,-0.64,-0.09,0.09,0.59,-0.51,-0.55,-0.55
245.48,-0.89,-0.32,-0.91,-0.35,0.35,0.67,-0.54,-0.57,-0.56
247.93,-1.22,-0.64,-1.17,-0.59,0.59,0.74,-0.62,-0.58,-0.57
250.41,-1.44,-0.85,-1.42,-0.83,0.83,0.80,-0.61,-0.58,-0.58
252.92,-1.71,-1.12,-1.65,-1.06,1.06,0.85,-0.65,-0.59,-0.59
255.45,-1.89,-1.29,-1.87,-1.27,1.27,0.89,-0.61,-0.60,-0.59
258.00,-2.06,-1.46,-2.08,-1.47,1.47,0.92,-0.58,-0.61,-0.60
260.58,-2.28,-1.68,-2.27,-1.66,1.66,0.95,-0.61,-0.61,-0.60
263.19,-2.44,-1.84,-2.44,-1.84,1.84,0.96,-0.60,-0.61,-0.60
265.82,-2.63,-2.03,-2.61,-2.00,2.00,0.96,-0.63,-0.61,-0.60
268.48,-2.76,-2.16,-2.75,-2.14,2.14,0.96,-0.61,-0.60,-0.59
271.16,-2.87,-2.28,-2.87,-2.28,2.28,0.95,-0.59,-0.60,-0.59
273.87,-3.02,-2.44,-2.98,-2.39,2.39,0.93,-0.62,-0.59,-0.58
276.61,-3.10,-2.53,-3.07,-2.50,2.50,0.90,-0.60,-0.57,-0.57
279.38,-3.17,-2.61,-3.15,-2.59,2.59,0.87,-0.58,-0.56,-0.56
282.17,-3.23,-2.68,-3.22,-2.67,2.67,0.83,-0.56,-0.55,-0.54
284.99,-3.27,-2.74,-3.27,-2.74,2.74,0.78,-0.53,-0.54,-0.53
287.84,-3.32,-2.80,-3.32,-2.79,2.79,0.73,-0.52,-0.52,-0.51
290.72,-3.34,-2.84,-3.35,-2.84,2.84,0.68,-0.50,-0.50,-0.50
293.63,-3.36,-2.88,-3.37,-2.88,2.88,0.62,-0.48,-0.49,-0.48
296.57,-3.38,-2.91,-3.38,-2.91,2.91,0.56,-0.46,-0.47,-0.47
299.53,-3.38,-2.93,-3.39,-2.94,2.94,0.50,-0.44,-0.45,-0.45
302.53,-3.39,-2.95,-3.40,-2.96,2.96,0.43,-0.42,-0.43,-0.43
305.55,-3.40,-2.98,-3.40,-2.98,2.98,0.36,-0.41,-0.41,-0.42
308.61,-3.39,-2.99,-3.40,-3.00,3.00,0.29,-0.39,-0.40,-0.40
311.69,-3.37,-2.98,-3.39,-3.02,3.02,0.21,-0.35,-0.38,-0.39
314.81,-3.36,-2.99,-3.39,-3.03,3.03,0.14,-0.33,-0.36,-0.37
317.96,-3.35,-2.99,-3.38,-3.04,3.04,0.06,-0.31,-0.34,-0.35
321.14,-3.34,-3.00,-3.37,-3.04,3.04,-0.02,-0.29,-0.32,-0.33
324.35,-3.33,-3.01,-3.35,-3.04,3.04,-0.10,-0.28,-0.30,-0.31
327.59,-3.31,-3.01,-3.33,-3.04,3.04,-0.18,-0.27,-0.29,-0.29
330.87,-3.28,-3.00,-3.29,-3.02,3.02,-0.26,-0.26,-0.27,-0.27
334.18,-3.24,-2.99,-3.24,-2.99,2.99,-0.34,-0.25,-0.25,-0.25
337.52,-3.19,-2.96,-3.18,-2.94,2.94,-0.42,-0.24,-0.24,-0.23
340.90,-3.11,-2.90,-3.10,-2.88,2.88,-0.50,-0.23,-0.22,-0.20
344.30,-3.01,-2.83,-3.00,-2.79,2.79,-0.58,-0.21,-0.21,-0.18
347.75,-2.91,-2.76,-2.87,-2.68,2.68,-0.67,-0.22,-0.19,-0.15
351.23,-2.76,-2.63,-2.71,-2.55,2.55,-0.75,-0.21,-0.17,-0.12
354.74,-2.60,-2.50,-2.53,-2.38,2.38,-0.83,-0.21,-0.14,-0.10
358.28,-2.38,-2.30,-2.31,-2.19,2.19,-0.92,-0.19,-0.12,-0.07
361.87,-2.15,-2.09,-2.06,-1.97,1.97,-1.00,-0.18,-0.10,-0.05
365.49,-1.84,-1.81,-1.78,-1.71,1.71,-1.08,-0.12,-0.07,-0.03
369.14,-1.54,-1.53,-1.48,-1.43,1.43,-1.17,-0.10,-0.05,-0.01
372.83,-1.22,-1.23,-1.15,-1.13,1.13,-1.25,-0.09,-0.02,0.02
376.56,-0.80,-0.83,-0.80,-0.80,0.80,-1.34,0.01,0.00,0.03
380.33,-0.42,-0.47,-0.43,-0.46,0.46,-1.42,0.04,0.03,0.05
384.13,-0.04,-0.10,-0.05,-0.10,0.10,-1.50,0.07,0.05,0.07
387.97,0.33,0.25,0.33,0.26,-0.26,-1.59,0.07,0.07,0.08
391.85,0.72,0.63,0.72,0.63,-0.63,-1.67,0.10,0.09,0.09
395.77,1.11,1.01,1.10,0.99,-0.99,-1.76,0.12,0.11,0.10
399.73,1.49,1.38,1.47,1.35,-1.35,-1.84,0.14,0.12,0.11
403.72,1.86,1.75,1.82,1.70,-1.70,-1.92,0.16,0.12,0.12
407.76,2.20,2.09,2.16,2.04,-2.04,-2.00,0.17,0.12,0.12
411.84,2.52,2.41,2.47,2.35,-2.35,-2.08,0.17,0.12,0.12
415.96,2.82,2.71,2.77,2.65,-2.65,-2.16,0.17,0.12,0.11
420.12,3.08,2.98,3.03,2.92,-2.92,-2.24,0.16,0.11,0.10
424.32,3.31,3.22,3.28,3.18,-3.18,-2.32,0.14,0.10,0.10
428.56,3.49,3.40,3.50,3.40,-3.40,-2.39,0.09,0.10,0.09
432.85,3.67,3.59,3.69,3.60,-3.60,-2.47,0.07,0.09,0.08
437.18,3.85,3.78,3.86,3.78,-3.78,-2.54,0.07,0.08,0.07
441.55,3.99,3.93,4.00,3.93,-3.93,-2.60,0.06,0.07,0.06
445.96,4.12,4.07,4.12,4.06,-4.06,-2.67,0.06,0.06,0.05
450.42,4.24,4.20,4.22,4.16,-4.16,-2.73,0.08,0.05,0.05
454.93,4.30,4.26,4.29,4.24,-4.24,-2.79,0.06,0.05,0.04
459.48,4.34,4.31,4.35,4.30,-4.30,-2.84,0.04,0.04,0.04
464.07,4.38,4.35,4.38,4.34,-4.34,-2.89,0.04,0.04,0.04
468.71,4.40,4.37,4.40,4.36,-4.36,-2.93,0.04,0.03,0.03
473.40,4.39,4.36,4.39,4.36,-4.36,-2.97,0.03,0.03,0.03
478.13,4.38,4.35,4.37,4.34,-4.34,-3.00,0.04,0.03,0.03
482.91,4.36,4.33,4.34,4.31,-4.31,-3.03,0.06,0.03,0.03
487.74,4.30,4.27,4.29,4.26,-4.26,-3.05,0.04,0.03,0.03
492.62,4.23,4.20,4.22,4.20,-4.20,-3.07,0.04,0.03,0.03
497.55,4.15,4.12,4.15,4.12,-4.12,-3.08,0.03,0.03,0.03
502.52,4.07,4.04,4.07,4.04,-4.04,-3.08,0.03,0.03,0.03
507.55,3.97,3.94,3.98,3.95,-3.95,-3.08,0.02,0.03,0.04
512.62,3.87,3.83,3.89,3.85,-3.85,-3.08,0.02,0.04,0.04
517.75,3.77,3.73,3.80,3.75,-3.75,-3.06,0.02,0.05,0.05
522.93,3.69,3.63,3.71,3.65,-3.65,-3.04,0.05,0.06,0.06
528.16,3.59,3.52,3.61,3.54,-3.54,-3.02,0.05,0.07,0.07
533.44,3.50,3.42,3.52,3.44,-3.44,-2.99,0.06,0.08,0.09
538.77,3.42,3.32,3.43,3.34,-3.34,-2.95,0.09,0.10,0.10
544.16,3.33,3.21,3.35,3.24,-3.24,-2.92,0.10,0.11,0.12
549.60,3.25,3.12,3.27,3.14,-3.14,-2.87,0.12,0.13,0.14
555.10,3.17,3.02,3.19,3.05,-3.05,-2.83,0.13,0.14,0.16
560.65,3.11,2.94,3.12,2.96,-2.96,-2.78,0.16,0.16,0.17
566.25,3.06,2.87,3.05,2.87,-2.87,-2.72,0.19,0.18,0.19
571.92,2.99,2.79,2.99,2.79,-2.79,-2.67,0.20,0.19,0.21
577.64,2.92,2.70,2.93,2.72,-2.72,-2.61,0.20,0.20,0.22
583.41,2.87,2.64,2.87,2.65,-2.65,-2.55,0.22,0.22,0.23
589.25,2.81,2.57,2.82,2.59,-2.59,-2.48,0.23,0.23,0.24
595.14,2.74,2.49,2.77,2.53,-2.53,-2.42,0.22,0.24,0.25
601.09,2.70,2.45,2.72,2.47,-2.47,-2.36,0.23,0.25,0.26
607.10,2.66,2.40,2.67,2.41,-2.41,-2.29,0.25,0.26,0.26
613.17,2.63,2.37,2.63,2.36,-2.36,-2.22,0.27,0.27,0.27
619.30,2.59,2.32,2.59,2.31,-2.31,-2.16,0.28,0.28,0.27
