frequency,raw,smoothed,error,error_smoothed,equalization,parametric_eq,fixed_band_eq,equalized_raw,equalized_smoothed,target
20.00,5.38,5.38,-2.30,-2.30,2.32,1.96,0.44,7.70,7.70,7.68
20.20,5.40,5.39,-2.28,-2.28,2.29,1.94,0.45,7.68,7.68,7.68
20.40,5.42,5.41,-2.26,-2.26,2.25,1.91,0.47,7.67,7.67,7.68
20.61,5.43,5.44,-2.25,-2.24,2.22,1.89,0.48,7.65,7.66,7.67
20.81,5.48,5.47,-2.20,-2.20,2.18,1.86,0.50,7.66,7.66,7.67
21.02,5.52,5.52,-2.16,-2.15,2.14,1.84,0.51,7.66,7.66,7.67
21.23,5.57,5.57,-2.10,-2.10,2.10,1.81,0.53,7.67,7.67,7.67
21.44,5.62,5.61,-2.05,-2.06,2.06,1.79,0.54,7.68,7.68,7.67
21.66,5.66,5.66,-2.01,-2.01,2.02,1.76,0.56,7.67,7.68,7.67
21.87,5.71,5.70,-1.96,-1.97,1.97,1.74,0.58,7.68,7.67,7.67
22.09,5.75,5.75,-1.92,-1.92,1.92,1.71,0.60,7.67,7.67,7.67
22.31,5.79,5.79,-1.88,-1.88,1.88,1.69,0.62,7.66,7.67,7.67
22.54,5.84,5.83,-1.83,-1.83,1.83,1.66,0.64,7.67,7.66,7.67
22.76,5.88,5.88,-1.79,-1.79,1.79,1.64,0.66,7.66,7.66,7.67
22.99,5.92,5.92,-1.75,-1.74,1.74,1.61,0.68,7.66,7.66,7.67
23.22,5.97,5.97,-1.70,-1.70,1.70,1.59,0.70,7.67,7.67,7.66
23.45,6.01,6.01,-1.66,-1.66,1.66,1.56,0.72,7.67,7.67,7.66
23.69,6.05,6.05,-1.62,-1.62,1.62,1.54,0.74,7.67,7.67,7.66
23.92,6.08,6.08,-1.58,-1.58,1.58,1.51,0.76,7.66,7.66,7.66
24.16,6.12,6.12,-1.54,-1.54,1.55,1.49,0.78,7.66,7.66,7.66
24.40,6.15,6.15,-1.51,-1.51,1.51,1.46,0.81,7.66,7.66,7.66
24.65,6.18,6.18,-1.48,-1.48,1.48,1.44,0.83,7.66,7.66,7.66
24.89,6.21,6.21,-1.45,-1.45,1.45,1.41,0.85,7.66,7.66,7.66
25.14,6.24,6.24,-1.42,-1.42,1.42,1.39,0.87,7.65,7.65,7.65
25.39,6.27,6.27,-1.39,-1.39,1.38,1.36,0.90,7.65,7.65,7.65
25.65,6.30,6.30,-1.35,-1.36,1.35,1.34,0.92,7.65,7.65,7.65
25.91,6.33,6.33,-1.32,-1.32,1.32,1.31,0.94,7.65,7.65,7.65
26.16,6.36,6.36,-1.29,-1.29,1.29,1.29,0.96,7.65,7.65,7.65
26.43,6.40,6.39,-1.25,-1.25,1.26,1.26,0.99,7.65,7.65,7.65
26.69,6.43,6.42,-1.22,-1.22,1.23,1.24,1.01,7.65,7.65,7.65
26.96,6.45,6.45,-1.20,-1.19,1.19,1.21,1.03,7.64,7.65,7.64
27.23,6.48,6.48,-1.16,-1.17,1.16,1.19,1.05,7.64,7.64,7.64
27.50,6.51,6.51,-1.13,-1.13,1.13,1.16,1.07,7.64,7.64,7.64
27.77,6.54,6.54,-1.10,-1.10,1.10,1.14,1.09,7.63,7.64,7.64
28.05,6.58,6.57,-1.06,-1.06,1.06,1.11,1.10,7.64,7.64,7.64
28.33,6.61,6.61,-1.03,-1.03,1.03,1.09,1.12,7.64,7.63,7.63
28.62,6.64,6.64,-0.99,-0.99,0.99,1.06,1.13,7.63,7.63,7.63
28.90,6.67,6.67,-0.96,-0.96,0.96,1.04,1.15,7.63,7.63,7.63
29.19,6.71,6.70,-0.92,-0.93,0.93,1.01,1.16,7.63,7.63,7.63
29.48,6.73,6.73,-0.90,-0.89,0.90,0.99,1.17,7.62,7.63,7.62
29.78,6.76,6.76,-0.87,-0.86,0.86,0.96,1.18,7.62,7.62,7.62
30.08,6.79,6.78,-0.83,-0.84,0.84,0.94,1.18,7.62,7.62,7.62
30.38,6.81,6.81,-0.81,-0.81,0.81,0.91,1.18,7.62,7.62,7.62
30.68,6.84,6.83,-0.78,-0.78,0.78,0.89,1.18,7.62,7.62,7.61
30.99,6.86,6.86,-0.75,-0.76,0.75,0.87,1.18,7.61,7.61,7.61
31.30,6.88,6.88,-0.73,-0.73,0.73,0.84,1.18,7.60,7.61,7.61
31.61,6.90,6.90,-0.71,-0.70,0.70,0.82,1.17,7.60,7.60,7.61
31.93,6.93,6.92,-0.67,-0.68,0.68,0.79,1.17,7.60,7.60,7.60
32.24,6.95,6.95,-0.65,-0.65,0.65,0.77,1.16,7.60,7.60,7.60
32.57,6.97,6.97,-0.63,-0.63,0.63,0.75,1.14,7.60,7.60,7.60
32.89,6.99,6.99,-0.60,-0.60,0.61,0.72,1.13,7.59,7.59,7.59
33.22,7.01,7.00,-0.58,-0.58,0.58,0.70,1.11,7.59,7.59,7.59
33.55,7.02,7.02,-0.57,-0.56,0.56,0.68,1.10,7.58,7.58,7.58
33.89,7.04,7.04,-0.54,-0.54,0.54,0.65,1.07,7.58,7.58,7.58
34.23,7.06,7.06,-0.52,-0.52,0.52,0.63,1.05,7.57,7.57,7.58
34.57,7.08,7.08,-0.49,-0.49,0.49,0.61,1.03,7.57,7.57,7.57
34.92,7.10,7.10,-0.47,-0.47,0.47,0.58,1.00,7.57,7.57,7.57
35.27,7.12,7.11,-0.44,-0.45,0.45,0.56,0.98,7.57,7.56,7.56
35.62,7.13,7.13,-0.43,-0.42,0.43,0.54,0.95,7.55,7.56,7.56
35.97,7.15,7.15,-0.40,-0.40,0.40,0.52,0.92,7.55,7.55,7.55
36.33,7.17,7.16,-0.38,-0.38,0.38,0.49,0.89,7.55,7.55,7.55
36.70,7.18,7.18,-0.36,-0.36,0.36,0.47,0.86,7.54,7.54,7.54
37.06,7.20,7.19,-0.34,-0.34,0.34,0.45,0.83,7.54,7.54,7.54
37.43,7.21,7.21,-0.32,-0.32,0.32,0.43,0.80,7.53,7.53,7.53
37.81,7.22,7.22,-0.31,-0.30,0.30,0.40,0.77,7.52,7.52,7.52
38.19,7.24,7.23,-0.28,-0.28,0.28,0.38,0.74,7.52,7.52,7.52
38.57,7.25,7.25,-0.26,-0.26,0.26,0.36,0.70,7.51,7.51,7.51
38.95,7.26,7.26,-0.25,-0.24,0.24,0.34,0.67,7.50,7.50,7.50
39.34,7.27,7.27,-0.23,-0.23,0.22,0.31,0.64,7.49,7.50,7.50
39.74,7.29,7.28,-0.20,-0.21,0.21,0.29,0.60,7.49,7.49,7.49
40.14,7.30,7.30,-0.18,-0.18,0.19,0.27,0.57,7.48,7.49,7.48
40.54,7.31,7.31,-0.17,-0.17,0.17,0.25,0.54,7.48,7.48,7.47
40.94,7.32,7.31,-0.15,-0.15,0.15,0.23,0.50,7.47,7.47,7.47
41.35,7.32,7.32,-0.14,-0.14,0.14,0.21,0.47,7.45,7.46,7.46
41.76,7.33,7.33,-0.12,-0.12,0.12,0.18,0.44,7.45,7.45,7.45
42.18,7.34,7.34,-0.10,-0.10,0.10,0.16,0.41,7.44,7.44,7.44
42.60,7.35,7.34,-0.08,-0.09,0.08,0.14,0.38,7.43,7.43,7.43
43.03,7.35,7.35,-0.07,-0.07,0.07,0.12,0.34,7.42,7.42,7.42
43.46,7.36,7.36,-0.05,-0.05,0.05,0.10,0.31,7.41,7.41,7.41
43.90,7.37,7.37,-0.03,-0.03,0.03,0.08,0.28,7.40,7.40,7.40
44.33,7.38,7.38,-0.01,-0.01,0.02,0.06,0.25,7.39,7.39,7.39
44.78,7.38,7.38,-0.00,0.00,-0.00,0.03,0.22,7.38,7.38,7.38
45.23,7.39,7.39,0.02,0.02,-0.02,0.01,0.19,7.37,7.37,7.37
45.68,7.39,7.39,0.03,0.03,-0.03,-0.01,0.16,7.36,7.35,7.35
46.13,7.39,7.39,0.05,0.05,-0.05,-0.03,0.13,7.34,7.34,7.34
46.60,7.39,7.39,0.06,0.06,-0.06,-0.05,0.10,7.32,7.33,7.33
47.06,7.40,7.39,0.08,0.08,-0.08,-0.07,0.07,7.32,7.31,7.32
47.53,7.40,7.40,0.10,0.10,-0.10,-0.09,0.04,7.30,7.30,7.30
48.01,7.40,7.40,0.11,0.11,-0.11,-0.11,0.01,7.28,7.29,7.29
48.49,7.41,7.40,0.13,0.13,-0.13,-0.13,-0.02,7.28,7.27,7.27
48.97,7.41,7.41,0.15,0.15,-0.15,-0.16,-0.05,7.26,7.26,7.26
49.46,7.41,7.41,0.17,0.17,-0.17,-0.18,-0.08,7.24,7.24,7.24
49.96,7.41,7.41,0.18,0.18,-0.18,-0.20,-0.11,7.22,7.22,7.23
50.46,7.41,7.41,0.20,0.20,-0.20,-0.22,-0.13,7.21,7.21,7.21
50.96,7.41,7.41,0.22,0.22,-0.22,-0.24,-0.16,7.19,7.19,7.19
51.47,7.41,7.41,0.23,0.23,-0.23,-0.26,-0.19,7.17,7.17,7.17
51.99,7.41,7.41,0.25,0.25,-0.25,-0.28,-0.22,7.16,7.16,7.15
52.51,7.40,7.40,0.26,0.27,-0.26,-0.31,-0.25,7.13,7.14,7.13
53.03,7.40,7.40,0.28,0.28,-0.28,-0.33,-0.27,7.12,7.12,7.11
53.56,7.39,7.39,0.29,0.30,-0.30,-0.35,-0.30,7.09,7.09,7.09
54.10,7.39,7.39,0.31,0.31,-0.31,-0.37,-0.33,7.07,7.07,7.07
54.64,7.38,7.38,0.33,0.33,-0.33,-0.39,-0.35,7.05,7.05,7.05
55.18,7.38,7.37,0.35,0.35,-0.35,-0.42,-0.38,7.03,7.03,7.03
55.74,7.37,7.37,0.36,0.37,-0.37,-0.44,-0.41,7.00,7.00,7.00
56.29,7.37,7.37,0.39,0.39,-0.39,-0.46,-0.43,6.98,6.98,6.98
56.86,7.37,7.36,0.41,0.41,-0.41,-0.48,-0.46,6.96,6.96,6.96
57.42,7.36,7.36,0.43,0.43,-0.43,-0.51,-0.48,6.93,6.93,6.93
58.00,7.35,7.35,0.44,0.45,-0.45,-0.53,-0.51,6.90,6.90,6.90
58.58,7.35,7.34,0.47,0.47,-0.47,-0.55,-0.53,6.88,6.88,6.88
59.16,7.34,7.34,0.49,0.49,-0.49,-0.57,-0.56,6.85,6.85,6.85
59.76,7.33,7.33,0.51,0.51,-0.51,-0.60,-0.58,6.82,6.82,6.82
60.35,7.32,7.32,0.53,0.53,-0.53,-0.62,-0.60,6.79,6.79,6.79
60.96,7.31,7.31,0.55,0.55,-0.55,-0.65,-0.63,6.76,6.76,6.76
61.57,7.30,7.30,0.57,0.57,-0.57,-0.67,-0.65,6.73,6.72,6.73
62.18,7.29,7.29,0.59,0.59,-0.60,-0.69,-0.67,6.69,6.69,6.70
62.80,7.28,7.28,0.62,0.62,-0.62,-0.72,-0.70,6.66,6.66,6.66
63.43,7.28,7.28,0.65,0.65,-0.64,-0.74,-0.72,6.63,6.63,6.63
64.07,7.27,7.27,0.67,0.67,-0.67,-0.77,-0.74,6.60,6.60,6.59
64.71,7.26,7.26,0.70,0.70,-0.70,-0.79,-0.76,6.56,6.56,6.56
65.35,7.24,7.24,0.72,0.72,-0.72,-0.82,-0.78,6.51,6.52,6.52
66.01,7.23,7.23,0.75,0.75,-0.75,-0.85,-0.81,6.48,6.48,6.48
66.67,7.22,7.22,0.78,0.77,-0.78,-0.87,-0.83,6.44,6.44,6.44
67.33,7.21,7.21,0.80,0.80,-0.80,-0.90,-0.85,6.41,6.40,6.40
68.01,7.19,7.19,0.83,0.83,-0.83,-0.93,-0.87,6.36,6.36,6.36
68.69,7.18,7.18,0.86,0.86,-0.86,-0.95,-0.89,6.32,6.32,6.32
69.37,7.16,7.16,0.88,0.88,-0.88,-0.98,-0.92,6.27,6.28,6.28
70.07,7.15,7.14,0.92,0.91,-0.91,-1.01,-0.94,6.23,6.23,6.23
70.77,7.13,7.13,0.94,0.94,-0.94,-1.04,-0.96,6.19,6.19,6.19
71.48,7.11,7.11,0.97,0.97,-0.97,-1.07,-0.99,6.14,6.14,6.14
72.19,7.10,7.09,1.00,1.00,-1.00,-1.09,-1.01,6.10,6.09,6.09
72.91,7.08,7.08,1.03,1.03,-1.03,-1.12,-1.03,6.05,6.05,6.05
73.64,7.06,7.06,1.06,1.06,-1.06,-1.15,-1.06,6.00,6.00,6.00
74.38,7.04,7.04,1.09,1.09,-1.09,-1.18,-1.08,5.95,5.95,5.95
75.12,7.02,7.02,1.12,1.12,-1.12,-1.21,-1.11,5.89,5.89,5.89
75.87,7.00,7.00,1.15,1.16,-1.16,-1.25,-1.14,5.84,5.84,5.84
76.63,6.98,6.98,1.19,1.19,-1.19,-1.28,-1.16,5.79,5.79,5.79
77.40,6.96,6.96,1.22,1.22,-1.22,-1.31,-1.19,5.73,5.73,5.73
78.17,6.94,6.94,1.26,1.26,-1.26,-1.34,-1.22,5.68,5.68,5.68
78.95,6.92,6.92,1.29,1.29,-1.29,-1.37,-1.25,5.63,5.62,5.62
79.74,6.90,6.89,1.33,1.33,-1.33,-1.40,-1.28,5.57,5.57,5.57
80.54,6.87,6.87,1.36,1.36,-1.36,-1.44,-1.31,5.50,5.51,5.51
81.35,6.85,6.85,1.40,1.40,-1.40,-1.47,-1.35,5.45,5.45,5.45
82.16,6.83,6.83,1.44,1.44,-1.44,-1.50,-1.38,5.39,5.39,5.39
82.98,6.81,6.81,1.48,1.48,-1.48,-1.54,-1.42,5.33,5.33,5.33
83.81,6.78,6.78,1.51,1.51,-1.51,-1.57,-1.46,5.26,5.27,5.27
84.65,6.76,6.76,1.55,1.55,-1.55,-1.61,-1.49,5.21,5.20,5.20
85.50,6.73,6.73,1.59,1.59,-1.59,-1.64,-1.53,5.14,5.14,5.14
86.35,6.71,6.71,1.63,1.63,-1.63,-1.67,-1.57,5.08,5.08,5.07
87.22,6.68,6.68,1.67,1.67,-1.67,-1.71,-1.61,5.01,5.01,5.01
88.09,6.65,6.65,1.70,1.71,-1.71,-1.74,-1.66,4.94,4.94,4.94
88.97,6.62,6.62,1.74,1.74,-1.75,-1.78,-1.70,4.87,4.87,4.88
89.86,6.60,6.59,1.79,1.78,-1.79,-1.82,-1.75,4.81,4.81,4.81
90.76,6.57,6.57,1.83,1.83,-1.83,-1.85,-1.80,4.74,4.74,4.74
91.66,6.54,6.54,1.86,1.87,-1.86,-1.89,-1.84,4.67,4.67,4.67
92.58,6.51,6.51,1.90,1.90,-1.90,-1.92,-1.89,4.60,4.60,4.60
93.51,6.48,6.48,1.94,1.94,-1.94,-1.96,-1.94,4.53,4.53,4.53
94.44,6.45,6.44,1.98,1.98,-1.98,-2.00,-2.00,4.47,4.46,4.46
95.39,6.41,6.41,2.01,2.02,-2.02,-2.03,-2.05,4.39,4.39,4.39
96.34,6.38,6.38,2.06,2.06,-2.06,-2.07,-2.10,4.32,4.32,4.32
97.30,6.35,6.34,2.10,2.09,-2.09,-2.10,-2.16,4.25,4.25,4.25
98.28,6.31,6.31,2.13,2.13,-2.13,-2.14,-2.21,4.18,4.18,4.18
99.26,6.27,6.27,2.16,2.17,-2.17,-2.18,-2.27,4.10,4.11,4.11
100.25,6.24,6.23,2.20,2.20,-2.20,-2.21,-2.33,4.04,4.03,4.03
101.25,6.20,6.20,2.24,2.24,-2.24,-2.25,-2.39,3.96,3.96,3.96
102.27,6.16,6.16,2.27,2.27,-2.27,-2.28,-2.44,3.89,3.89,3.89
103.29,6.12,6.12,2.30,2.30,-2.30,-2.32,-2.50,3.81,3.82,3.82
104.32,6.08,6.08,2.34,2.34,-2.33,-2.35,-2.56,3.74,3.74,3.74
105.37,6.04,6.04,2.37,2.37,-2.36,-2.39,-2.62,3.67,3.67,3.67
106.42,5.99,5.99,2.39,2.40,-2.39,-2.42,-2.68,3.60,3.60,3.60
107.48,5.95,5.94,2.42,2.42,-2.42,-2.46,-2.73,3.53,3.52,3.52
108.56,5.90,5.90,2.45,2.45,-2.45,-2.49,-2.79,3.45,3.45,3.45
109.64,5.85,5.85,2.47,2.47,-2.48,-2.53,-2.84,3.37,3.38,3.38
110.74,5.81,5.81,2.50,2.50,-2.51,-2.56,-2.90,3.30,3.30,3.30
111.85,5.77,5.77,2.54,2.53,-2.54,-2.59,-2.95,3.23,3.23,3.23
112.97,5.73,5.73,2.57,2.57,-2.57,-2.63,-3.00,3.16,3.16,3.16
114.10,5.70,5.69,2.61,2.61,-2.61,-2.66,-3.05,3.09,3.09,3.09
115.24,5.66,5.66,2.64,2.64,-2.65,-2.69,-3.09,3.01,3.01,3.02
116.39,5.64,5.64,2.69,2.69,-2.69,-2.72,-3.13,2.95,2.94,2.95
117.55,5.61,5.61,2.73,2.73,-2.73,-2.75,-3.17,2.87,2.87,2.88
118.73,5.59,5.59,2.78,2.78,-2.78,-2.78,-3.20,2.81,2.81,2.81
119.92,5.56,5.56,2.82,2.82,-2.82,-2.81,-3.23,2.74,2.74,2.74
121.12,5.54,5.54,2.87,2.87,-2.86,-2.84,-3.26,2.68,2.67,2.67
122.33,5.51,5.51,2.91,2.91,-2.90,-2.86,-3.28,2.61,2.61,2.60
123.55,5.48,5.48,2.95,2.95,-2.94,-2.89,-3.30,2.54,2.54,2.53
124.79,5.45,5.45,2.98,2.98,-2.98,-2.92,-3.31,2.47,2.46,2.47
126.03,5.42,5.42,3.02,3.02,-3.02,-2.94,-3.33,2.39,2.39,2.40
127.29,5.39,5.39,3.05,3.06,-3.06,-2.97,-3.33,2.32,2.33,2.33
128.57,5.37,5.37,3.10,3.10,-3.11,-2.99,-3.34,2.26,2.26,2.27
129.85,5.36,5.35,3.15,3.15,-3.15,-3.02,-3.33,2.20,2.20,2.21
131.15,5.34,5.34,3.20,3.20,-3.20,-3.04,-3.33,2.14,2.14,2.14
132.46,5.33,5.33,3.25,3.25,-3.24,-3.06,-3.32,2.08,2.08,2.08
133.79,5.31,5.31,3.29,3.29,-3.29,-3.08,-3.31,2.02,2.02,2.02
135.12,5.29,5.29,3.33,3.33,-3.33,-3.10,-3.29,1.96,1.96,1.96
136.48,5.27,5.26,3.37,3.37,-3.36,-3.12,-3.27,1.91,1.90,1.90
137.84,5.24,5.24,3.40,3.40,-3.39,-3.14,-3.25,1.85,1.84,1.84
139.22,5.20,5.20,3.41,3.42,-3.42,-3.15,-3.23,1.78,1.79,1.78
140.61,5.17,5.16,3.44,3.44,-3.44,-3.17,-3.20,1.73,1.73,1.73
142.02,5.13,5.12,3.46,3.45,-3.45,-3.19,-3.17,1.67,1.67,1.67
143.44,5.08,5.08,3.46,3.47,-3.47,-3.20,-3.15,1.61,1.62,1.62
144.87,5.04,5.04,3.48,3.47,-3.48,-3.21,-3.12,1.56,1.56,1.56
146.32,4.99,4.99,3.48,3.48,-3.48,-3.23,-3.09,1.51,1.51,1.51
147.78,4.95,4.95,3.49,3.49,-3.49,-3.24,-3.06,1.46,1.46,1.46
149.26,4.90,4.90,3.49,3.49,-3.49,-3.25,-3.03,1.41,1.41,1.41
150.75,4.85,4.85,3.49,3.49,-3.49,-3.26,-3.00,1.36,1.36,1.36
152.26,4.80,4.80,3.49,3.49,-3.49,-3.27,-2.97,1.31,1.31,1.31
153.78,4.76,4.75,3.50,3.49,-3.49,-3.27,-2.94,1.27,1.26,1.26
155.32,4.71,4.71,3.49,3.49,-3.49,-3.28,-2.91,1.22,1.22,1.22
156.88,4.66,4.66,3.49,3.49,-3.49,-3.29,-2.88,1.17,1.17,1.17
158.44,4.61,4.61,3.48,3.48,-3.48,-3.29,-2.85,1.12,1.12,1.13
160.03,4.56,4.56,3.48,3.48,-3.48,-3.30,-2.83,1.08,1.08,1.08
161.63,4.51,4.51,3.48,3.47,-3.47,-3.30,-2.81,1.03,1.03,1.03
163.24,4.46,4.46,3.47,3.47,-3.47,-3.30,-2.78,0.99,0.99,0.99
164.88,4.41,4.41,3.46,3.46,-3.46,-3.30,-2.77,0.95,0.95,0.95
166.53,4.36,4.36,3.45,3.45,-3.45,-3.30,-2.75,0.91,0.91,0.91
168.19,4.31,4.31,3.44,3.44,-3.44,-3.30,-2.73,0.87,0.87,0.87
169.87,4.26,4.26,3.42,3.42,-3.42,-3.30,-2.72,0.83,0.83,0.83
171.57,4.21,4.21,3.41,3.41,-3.41,-3.30,-2.71,0.80,0.80,0.80
173.29,4.16,4.16,3.40,3.40,-3.40,-3.29,-2.69,0.76,0.76,0.76
175.02,4.11,4.11,3.38,3.38,-3.38,-3.29,-2.69,0.73,0.73,0.73
176.77,4.06,4.06,3.36,3.36,-3.36,-3.28,-2.68,0.69,0.69,0.69
178.54,4.01,4.01,3.35,3.35,-3.35,-3.27,-2.68,0.66,0.66,0.66
180.32,3.96,3.96,3.33,3.33,-3.33,-3.27,-2.68,0.63,0.63,0.63
182.13,3.91,3.91,3.31,3.31,-3.31,-3.26,-2.68,0.60,0.60,0.60
183.95,3.86,3.86,3.29,3.29,-3.29,-3.25,-2.68,0.56,0.57,0.57
185.79,3.82,3.81,3.28,3.27,-3.28,-3.24,-2.68,0.54,0.54,0.54
187.65,3.77,3.77,3.26,3.26,-3.26,-3.23,-2.69,0.51,0.51,0.51
189.52,3.73,3.73,3.24,3.24,-3.25,-3.22,-2.70,0.48,0.48,0.48
191.42,3.69,3.69,3.23,3.23,-3.23,-3.20,-2.71,0.46,0.46,0.46
193.33,3.65,3.65,3.22,3.22,-3.22,-3.19,-2.72,0.43,0.43,0.43
195.27,3.61,3.61,3.20,3.20,-3.20,-3.17,-2.74,0.41,0.41,0.41
197.22,3.57,3.56,3.19,3.18,-3.18,-3.16,-2.75,0.39,0.38,0.38
199.19,3.52,3.52,3.16,3.16,-3.16,-3.14,-2.77,0.35,0.36,0.36
201.18,3.48,3.48,3.14,3.14,-3.14,-3.13,-2.78,0.33,0.33,0.33
203.19,3.44,3.43,3.12,3.12,-3.12,-3.11,-2.80,0.32,0.31,0.31
205.23,3.39,3.39,3.10,3.10,-3.10,-3.09,-2.82,0.29,0.29,0.29
207.28,3.35,3.35,3.08,3.07,-3.07,-3.07,-2.84,0.27,0.27,0.27
209.35,3.30,3.30,3.05,3.05,-3.05,-3.05,-2.86,0.25,0.25,0.25
211.44,3.25,3.25,3.02,3.02,-3.02,-3.03,-2.88,0.23,0.23,0.23
213.56,3.20,3.20,2.99,2.99,-2.99,-3.00,-2.90,0.21,0.21,0.21
215.69,3.15,3.15,2.95,2.95,-2.96,-2.98,-2.92,0.19,0.19,0.19
217.85,3.10,3.10,2.92,2.92,-2.92,-2.96,-2.94,0.18,0.18,0.18
220.03,3.05,3.05,2.89,2.89,-2.89,-2.93,-2.96,0.16,0.16,0.16
222.23,3.00,3.00,2.86,2.86,-2.85,-2.91,-2.98,0.14,0.14,0.14
224.45,2.95,2.95,2.82,2.82,-2.82,-2.88,-2.99,0.13,0.13,0.13
226.70,2.90,2.90,2.79,2.79,-2.79,-2.85,-3.01,0.11,0.11,0.11
228.96,2.85,2.85,2.75,2.75,-2.75,-2.83,-3.02,0.09,0.09,0.10
231.25,2.80,2.80,2.72,2.72,-2.72,-2.80,-3.03,0.08,0.08,0.08
233.57,2.75,2.75,2.68,2.69,-2.69,-2.77,-3.03,0.06,0.06,0.07
235.90,2.71,2.70,2.66,2.66,-2.66,-2.74,-3.03,0.05,0.05,0.04
238.26,2.66,2.66,2.63,2.63,-2.62,-2.71,-3.03,0.04,0.04,0.03
240.64,2.61,2.61,2.59,2.59,-2.59,-2.67,-3.03,0.02,0.02,0.02
243.05,2.56,2.56,2.55,2.55,-2.55,-2.64,-3.02,0.01,0.01,0.01
245.48,2.51,2.51,2.51,2.51,-2.51,-2.61,-3.01,-0.01,-0.01,-0.01
247.93,2.46,2.46,2.47,2.47,-2.48,-2.57,-2.99,-0.02,-0.02,-0.02
250.41,2.41,2.41,2.44,2.44,-2.44,-2.54,-2.97,-0.03,-0.03,-0.03
252.92,2.36,2.36,2.40,2.40,-2.40,-2.50,-2.94,-0.04,-0.04,-0.04
255.45,2.31,2.31,2.36,2.36,-2.36,-2.47,-2.91,-0.05,-0.05,-0.05
258.00,2.26,2.26,2.32,2.32,-2.32,-2.43,-2.88,-0.06,-0.06,-0.06
260.58,2.21,2.21,2.28,2.28,-2.27,-2.39,-2.84,-0.07,-0.07,-0.07
263.19,2.16,2.16,2.23,2.23,-2.24,-2.36,-2.80,-0.08,-0.08,-0.08
265.82,2.11,2.11,2.19,2.19,-2.20,-2.32,-2.76,-0.09,-0.09,-0.09
268.48,2.06,2.06,2.15,2.15,-2.16,-2.28,-2.71,-0.10,-0.10,-0.09
271.16,2.01,2.01,2.11,2.11,-2.12,-2.24,-2.66,-0.11,-0.10,-0.10
273.87,1.97,1.96,2.08,2.07,-2.07,-2.20,-2.60,-0.11,-0.11,-0.11
276.61,1.92,1.92,2.04,2.04,-2.03,-2.15,-2.54,-0.11,-0.11,-0.12
279.38,1.87,1.87,1.99,1.99,-1.99,-2.11,-2.48,-0.12,-0.12,-0.13
282.17,1.82,1.82,1.95,1.95,-1.94,-2.07,-2.42,-0.13,-0.13,-0.13
284.99,1.77,1.77,1.90,1.90,-1.90,-2.03,-2.35,-0.13,-0.13,-0.13
287.84,1.72,1.72,1.84,1.85,-1.85,-1.98,-2.28,-0.13,-0.13,-0.13
290.72,1.67,1.67,1.80,1.80,-1.80,-1.94,-2.21,-0.13,-0.13,-0.13
293.63,1.62,1.62,1.76,1.75,-1.75,-1.89,-2.14,-0.13,-0.13,-0.14
296.57,1.57,1.57,1.70,1.70,-1.70,-1.85,-2.07,-0.13,-0.13,-0.13
299.53,1.52,1.52,1.65,1.65,-1.65,-1.80,-2.00,-0.13,-0.13,-0.13
302.53,1.47,1.47,1.60,1.60,-1.60,-1.75,-1.93,-0.13,-0.13,-0.14
305.55,1.42,1.42,1.55,1.55,-1.55,-1.71,-1.85,-0.14,-0.14,-0.13
308.61,1.37,1.37,1.50,1.50,-1.50,-1.66,-1.78,-0.14,-0.14,-0.14
311.69,1.32,1.32,1.45,1.45,-1.45,-1.61,-1.70,-0.14,-0.13,-0.13
314.81,1.28,1.27,1.41,1.41,-1.41,-1.56,-1.63,-0.13,-0.13,-0.14
317.96,1.23,1.23,1.36,1.36,-1.36,-1.51,-1.55,-0.13,-0.13,-0.13
321.14,1.18,1.18,1.31,1.31,-1.31,-1.46,-1.48,-0.13,-0.13,-0.14
324.35,1.13,1.13,1.26,1.26,-1.26,-1.41,-1.40,-0.13,-0.13,-0.13
327.59,1.09,1.08,1.21,1.21,-1.21,-1.36,-1.33,-0.13,-0.13,-0.12
330.87,1.04,1.04,1.17,1.17,-1.17,-1.31,-1.26,-0.13,-0.12,-0.13
334.18,1.00,0.99,1.12,1.12,-1.12,-1.26,-1.18,-0.12,-0.12,-0.12
337.52,0.95,0.95,1.07,1.07,-1.07,-1.20,-1.11,-0.12,-0.12,-0.13
340.90,0.90,0.90,1.02,1.02,-1.02,-1.15,-1.04,-0.12,-0.12,-0.12
344.30,0.86,0.85,0.97,0.97,-0.97,-1.10,-0.97,-0.11,-0.11,-0.11
347.75,0.81,0.81,0.91,0.92,-0.92,-1.04,-0.90,-0.11,-0.11,-0.11
351.23,0.77,0.76,0.88,0.87,-0.87,-0.99,-0.83,-0.10,-0.10,-0.11
354.74,0.72,0.72,0.81,0.82,-0.82,-0.94,-0.76,-0.10,-0.10,-0.09
358.28,0.68,0.68,0.77,0.77,-0.77,-0.88,-0.69,-0.09,-0.09,-0.09
361.87,0.64,0.63,0.73,0.72,-0.72,-0.83,-0.62,-0.08,-0.09,-0.09
365.49,0.59,0.59,0.67,0.67,-0.67,-0.77,-0.55,-0.09,-0.08,-0.08
369.14,0.55,0.55,0.63,0.62,-0.62,-0.72,-0.48,-0.08,-0.08,-0.08
372.83,0.51,0.50,0.57,0.57,-0.58,-0.66,-0.42,-0.07,-0.07,-0.07
376.56,0.46,0.46,0.53,0.53,-0.53,-0.61,-0.35,-0.07,-0.07,-0.07
380.33,0.42,0.42,0.48,0.48,-0.48,-0.55,-0.28,-0.06,-0.06,-0.06
384.13,0.38,0.37,0.44,0.43,-0.43,-0.50,-0.22,-0.05,-0.06,-0.06
387.97,0.33,0.33,0.38,0.38,-0.38,-0.44,-0.15,-0.05,-0.05,-0.05
391.85,0.29,0.29,0.32,0.33,-0.33,-0.39,-0.09,-0.05,-0.05,-0.04
395.77,0.25,0.25,0.29,0.28,-0.29,-0.33,-0.03,-0.04,-0.04,-0.04
399.73,0.21,0.21,0.24,0.24,-0.24,-0.28,0.04,-0.03,-0.03,-0.03
403.72,0.17,0.17,0.19,0.19,-0.19,-0.22,0.10,-0.03,-0.03,-0.02
407.76,0.13,0.13,0.15,0.15,-0.15,-0.16,0.16,-0.02,-0.02,-0.02
411.84,0.09,0.09,0.10,0.10,-0.10,-0.11,0.22,-0.01,-0.01,-0.02
415.96,0.05,0.05,0.06,0.06,-0.06,-0.05,0.28,-0.01,-0.01,-0.01
420.12,0.01,0.01,0.02,0.01,-0.02,0.00,0.34,-0.01,-0.01,-0.01
424.32,-0.03,-0.03,-0.03,-0.03,0.03,0.06,0.39,-0.01,-0.00,-0.00
428.56,-0.06,-0.07,-0.07,-0.07,0.07,0.11,0.45,0.01,0.00,0.01
432.85,-0.10,-0.10,-0.12,-0.11,0.12,0.16,0.50,0.01,0.01,0.02
437.18,-0.14,-0.14,-0.16,-0.15,0.16,0.22,0.56,0.02,0.02,0.01
441.55,-0.17,-0.18,-0.20,-0.20,0.21,0.27,0.61,0.03,0.03,0.02
445.96,-0.21,-0.21,-0.24,-0.25,0.25,0.32,0.66,0.04,0.04,0.03
450.42,-0.25,-0.25,-0.30,-0.30,0.29,0.38,0.71,0.04,0.04,0.05
454.93,-0.28,-0.29,-0.34,-0.34,0.34,0.43,0.75,0.05,0.05,0.06
459.48,-0.32,-0.32,-0.39,-0.38,0.38,0.48,0.80,0.06,0.06,0.07
464.07,-0.35,-0.35,-0.42,-0.42,0.42,0.53,0.84,0.07,0.07,0.07
468.71,-0.38,-0.39,-0.46,-0.46,0.47,0.58,0.88,0.08,0.08,0.08
473.40,-0.42,-0.42,-0.51,-0.50,0.51,0.63,0.92,0.08,0.09,0.08
478.13,-0.45,-0.45,-0.55,-0.55,0.55,0.68,0.95,0.09,0.09,0.09
482.91,-0.48,-0.48,-0.59,-0.59,0.58,0.73,0.99,0.10,0.10,0.10
487.74,-0.51,-0.51,-0.62,-0.62,0.62,0.78,1.02,0.11,0.11,0.11
492.62,-0.54,-0.54,-0.66,-0.66,0.67,0.82,1.05,0.12,0.12,0.12
497.55,-0.57,-0.57,-0.70,-0.70,0.71,0.87,1.07,0.13,0.13,0.13
502.52,-0.60,-0.60,-0.74,-0.74,0.75,0.92,1.10,0.14,0.14,0.14
507.55,-0.63,-0.63,-0.79,-0.78,0.78,0.96,1.12,0.15,0.16,0.16
512.62,-0.65,-0.66,-0.82,-0.82,0.82,1.00,1.13,0.17,0.16,0.17
517.75,-0.68,-0.68,-0.86,-0.86,0.86,1.05,1.15,0.17,0.17,0.18
522.93,-0.71,-0.71,-0.90,-0.90,0.89,1.09,1.16,0.18,0.18,0.19
528.16,-0.73,-0.73,-0.93,-0.93,0.92,1.13,1.18,0.19,0.19,0.20
533.44,-0.75,-0.75,-0.96,-0.96,0.95,1.17,1.19,0.20,0.20,0.20
538.77,-0.77,-0.77,-0.98,-0.98,0.98,1.21,1.19,0.21,0.21,0.20
