frequency,raw,error,smoothed,error_smoothed,equalization,parametric_eq,fixed_band_eq,equalized_raw,equalized_smoothed,target
20.00,8.89,3.60,8.83,3.54,-3.54,-3.18,-1.73,5.35,5.28,5.29
20.20,8.89,3.61,8.86,3.58,-3.58,-3.21,-1.78,5.31,5.28,5.28
20.40,8.89,3.61,8.89,3.62,-3.62,-3.24,-1.83,5.28,5.27,5.28
20.61,8.89,3.61,8.92,3.65,-3.65,-3.27,-1.89,5.24,5.27,5.28
20.81,8.89,3.64,8.95,3.68,-3.68,-3.29,-1.94,5.21,5.27,5.26
21.02,8.89,3.64,8.97,3.71,-3.71,-3.32,-2.00,5.19,5.26,5.26
21.23,8.94,3.69,8.99,3.73,-3.73,-3.35,-2.06,5.21,5.26,5.26
21.44,8.99,3.73,9.02,3.76,-3.76,-3.38,-2.12,5.24,5.26,5.27
21.66,9.04,3.79,9.04,3.78,-3.78,-3.40,-2.18,5.26,5.26,5.26
21.87,9.09,3.83,9.05,3.80,-3.80,-3.43,-2.24,5.30,5.26,5.26
22.09,9.12,3.87,9.07,3.81,-3.81,-3.46,-2.31,5.31,5.26,5.25
22.31,9.12,3.86,9.08,3.83,-3.83,-3.48,-2.38,5.30,5.26,5.26
22.54,9.12,3.87,9.10,3.84,-3.84,-3.51,-2.45,5.28,5.26,5.25
22.76,9.12,3.86,9.12,3.85,-3.85,-3.54,-2.52,5.27,5.26,5.26
22.99,9.12,3.86,9.13,3.86,-3.86,-3.56,-2.59,5.26,5.26,5.26
23.22,9.12,3.86,9.13,3.87,-3.87,-3.59,-2.67,5.26,5.27,5.26
23.45,9.12,3.85,9.14,3.87,-3.87,-3.61,-2.74,5.26,5.27,5.27
23.69,9.12,3.85,9.13,3.86,-3.86,-3.64,-2.82,5.26,5.27,5.27
23.92,9.12,3.85,9.13,3.86,-3.86,-3.67,-2.90,5.27,5.28,5.27
24.16,9.12,3.84,9.13,3.85,-3.85,-3.69,-2.98,5.27,5.28,5.28
24.40,9.12,3.83,9.12,3.84,-3.84,-3.72,-3.06,5.28,5.28,5.29
24.65,9.12,3.83,9.11,3.83,-3.83,-3.74,-3.14,5.29,5.28,5.29
24.89,9.12,3.83,9.11,3.82,-3.82,-3.77,-3.23,5.30,5.29,5.29
25.14,9.12,3.84,9.11,3.82,-3.82,-3.79,-3.31,5.30,5.29,5.29
25.39,9.12,3.83,9.11,3.82,-3.82,-3.81,-3.40,5.30,5.29,5.30
25.65,9.12,3.83,9.11,3.82,-3.82,-3.84,-3.49,5.30,5.29,5.29
25.91,9.12,3.84,9.12,3.83,-3.83,-3.86,-3.57,5.29,5.29,5.28
26.16,9.12,3.83,9.14,3.85,-3.85,-3.89,-3.66,5.27,5.29,5.29
26.43,9.12,3.83,9.15,3.86,-3.86,-3.91,-3.74,5.26,5.29,5.29
26.69,9.12,3.83,9.17,3.88,-3.88,-3.93,-3.83,5.24,5.29,5.29
26.96,9.12,3.84,9.19,3.91,-3.91,-3.96,-3.91,5.21,5.29,5.28
27.23,9.17,3.89,9.22,3.93,-3.93,-3.98,-4.00,5.24,5.28,5.28
27.50,9.24,3.96,9.24,3.96,-3.96,-4.00,-4.08,5.29,5.28,5.28
27.77,9.30,4.02,9.26,3.98,-3.98,-4.02,-4.16,5.32,5.28,5.29
28.05,9.35,4.08,9.28,4.00,-4.00,-4.05,-4.23,5.35,5.28,5.28
28.33,9.35,4.08,9.30,4.03,-4.03,-4.07,-4.31,5.32,5.27,5.27
28.62,9.35,4.09,9.32,4.05,-4.05,-4.09,-4.38,5.30,5.27,5.26
28.90,9.35,4.08,9.34,4.07,-4.07,-4.11,-4.44,5.28,5.26,5.27
29.19,9.35,4.09,9.35,4.09,-4.09,-4.13,-4.51,5.26,5.26,5.26
29.48,9.35,4.10,9.36,4.11,-4.11,-4.15,-4.56,5.24,5.25,5.25
29.78,9.35,4.10,9.37,4.12,-4.12,-4.17,-4.62,5.23,5.24,5.25
30.08,9.35,4.11,9.37,4.13,-4.13,-4.19,-4.67,5.22,5.24,5.25
30.38,9.35,4.13,9.36,4.14,-4.14,-4.21,-4.71,5.21,5.23,5.22
30.68,9.35,4.13,9.36,4.14,-4.14,-4.23,-4.75,5.21,5.22,5.22
30.99,9.35,4.14,9.35,4.14,-4.14,-4.25,-4.78,5.21,5.21,5.21
31.30,9.35,4.15,9.35,4.15,-4.15,-4.27,-4.80,5.20,5.20,5.20
31.61,9.35,4.16,9.35,4.16,-4.16,-4.29,-4.82,5.19,5.19,5.20
31.93,9.35,4.18,9.35,4.16,-4.16,-4.31,-4.84,5.19,5.19,5.17
32.24,9.35,4.17,9.35,4.17,-4.17,-4.33,-4.85,5.18,5.18,5.18
32.57,9.35,4.18,9.35,4.17,-4.17,-4.34,-4.85,5.18,5.18,5.17
32.89,9.35,4.18,9.35,4.18,-4.18,-4.36,-4.85,5.17,5.17,5.17
33.22,9.35,4.19,9.35,4.18,-4.18,-4.38,-4.85,5.17,5.17,5.17
33.55,9.35,4.19,9.35,4.18,-4.18,-4.40,-4.83,5.17,5.17,5.16
33.89,9.35,4.18,9.35,4.18,-4.18,-4.41,-4.82,5.17,5.17,5.17
34.23,9.35,4.19,9.35,4.19,-4.19,-4.43,-4.80,5.16,5.16,5.16
34.57,9.35,4.19,9.36,4.20,-4.20,-4.44,-4.78,5.15,5.16,5.17
34.92,9.35,4.19,9.37,4.21,-4.21,-4.46,-4.76,5.14,5.16,5.16
35.27,9.35,4.18,9.37,4.22,-4.22,-4.48,-4.73,5.14,5.15,5.17
35.62,9.35,4.21,9.37,4.22,-4.22,-4.49,-4.70,5.13,5.15,5.15
35.97,9.35,4.21,9.36,4.22,-4.22,-4.51,-4.67,5.13,5.14,5.14
36.33,9.35,4.21,9.35,4.22,-4.22,-4.52,-4.64,5.13,5.13,5.14
36.70,9.35,4.24,9.33,4.22,-4.22,-4.53,-4.61,5.13,5.12,5.12
37.06,9.35,4.25,9.32,4.22,-4.22,-4.55,-4.58,5.14,5.10,5.10
37.43,9.35,4.26,9.30,4.21,-4.21,-4.56,-4.55,5.14,5.08,5.09
37.81,9.35,4.29,9.28,4.21,-4.21,-4.57,-4.51,5.14,5.06,5.06
38.19,9.31,4.26,9.26,4.21,-4.21,-4.59,-4.48,5.10,5.04,5.05
38.57,9.22,4.20,9.23,4.22,-4.22,-4.60,-4.45,5.01,5.02,5.03
38.95,9.13,4.13,9.21,4.22,-4.22,-4.61,-4.43,4.91,4.99,5.00
39.34,9.12,4.17,9.19,4.22,-4.22,-4.62,-4.40,4.90,4.97,4.96
39.74,9.12,4.19,9.17,4.23,-4.23,-4.63,-4.38,4.89,4.94,4.93
40.14,9.12,4.22,9.15,4.24,-4.24,-4.65,-4.35,4.89,4.91,4.91
40.54,9.12,4.24,9.13,4.25,-4.25,-4.66,-4.34,4.87,4.89,4.88
40.94,9.12,4.28,9.12,4.26,-4.26,-4.67,-4.32,4.86,4.86,4.85
41.35,9.12,4.29,9.11,4.28,-4.28,-4.68,-4.30,4.85,4.83,4.83
41.76,9.12,4.32,9.11,4.30,-4.30,-4.69,-4.29,4.83,4.81,4.80
42.18,9.12,4.33,9.11,4.32,-4.32,-4.70,-4.28,4.80,4.78,4.79
42.60,9.12,4.36,9.11,4.35,-4.35,-4.71,-4.28,4.77,4.76,4.76
43.03,9.12,4.39,9.12,4.38,-4.38,-4.72,-4.28,4.74,4.74,4.74
43.46,9.12,4.41,9.13,4.42,-4.42,-4.72,-4.28,4.71,4.71,4.71
43.90,9.12,4.43,9.14,4.45,-4.45,-4.73,-4.28,4.68,4.69,4.69
44.33,9.12,4.46,9.14,4.47,-4.47,-4.74,-4.29,4.65,4.67,4.66
44.78,9.12,4.49,9.13,4.49,-4.49,-4.75,-4.30,4.63,4.64,4.64
45.23,9.12,4.49,9.13,4.51,-4.51,-4.76,-4.31,4.61,4.61,4.63
45.68,9.12,4.53,9.11,4.53,-4.53,-4.76,-4.33,4.59,4.59,4.59
46.13,9.12,4.57,9.10,4.54,-4.54,-4.77,-4.35,4.58,4.56,4.55
46.60,9.12,4.60,9.08,4.56,-4.56,-4.78,-4.37,4.57,4.53,4.52
47.06,9.12,4.62,9.06,4.57,-4.57,-4.78,-4.39,4.55,4.49,4.50
47.53,9.09,4.62,9.04,4.58,-4.58,-4.79,-4.42,4.51,4.46,4.47
48.01,9.07,4.65,9.02,4.59,-4.59,-4.79,-4.45,4.48,4.43,4.43
48.49,8.98,4.59,9.00,4.60,-4.60,-4.80,-4.49,4.38,4.39,4.39
48.97,8.89,4.54,8.98,4.62,-4.62,-4.80,-4.52,4.27,4.36,4.35
49.46,8.89,4.57,8.97,4.64,-4.64,-4.81,-4.56,4.25,4.33,4.32
49.96,8.89,4.62,8.95,4.66,-4.66,-4.81,-4.61,4.23,4.29,4.27
50.46,8.89,4.65,8.93,4.68,-4.68,-4.82,-4.65,4.21,4.25,4.24
50.96,8.89,4.67,8.91,4.69,-4.69,-4.82,-4.69,4.20,4.21,4.22
51.47,8.89,4.71,8.89,4.71,-4.71,-4.83,-4.74,4.18,4.18,4.19
51.99,8.89,4.75,8.86,4.72,-4.72,-4.83,-4.79,4.17,4.14,4.14
52.51,8.89,4.78,8.84,4.74,-4.74,-4.83,-4.84,4.15,4.10,4.11
53.03,8.89,4.81,8.82,4.76,-4.76,-4.84,-4.89,4.13,4.06,4.08
53.56,8.89,4.86,8.81,4.79,-4.79,-4.84,-4.94,4.10,4.02,4.03
54.10,8.87,4.89,8.81,4.82,-4.82,-4.84,-4.99,4.06,3.99,3.99
54.64,8.74,4.79,8.79,4.84,-4.84,-4.84,-5.04,3.91,3.95,3.95
55.18,8.66,4.76,8.76,4.84,-4.84,-4.84,-5.09,3.82,3.92,3.90
55.74,8.66,4.80,8.73,4.85,-4.85,-4.85,-5.13,3.81,3.88,3.87
56.29,8.66,4.83,8.70,4.85,-4.85,-4.85,-5.18,3.81,3.85,3.83
56.86,8.66,4.85,8.67,4.86,-4.86,-4.85,-5.22,3.81,3.81,3.81
57.42,8.66,4.90,8.64,4.86,-4.86,-4.85,-5.26,3.80,3.78,3.76
58.00,8.66,4.93,8.61,4.87,-4.87,-4.85,-5.30,3.80,3.74,3.73
58.58,8.66,4.95,8.58,4.88,-4.88,-4.85,-5.34,3.78,3.70,3.71
59.16,8.62,4.93,8.56,4.90,-4.90,-4.85,-5.37,3.72,3.67,3.69
59.76,8.49,4.84,8.54,4.91,-4.91,-4.86,-5.39,3.58,3.63,3.65
60.35,8.44,4.84,8.52,4.93,-4.93,-4.86,-5.42,3.51,3.59,3.60
60.96,8.44,4.88,8.50,4.95,-4.95,-4.86,-5.43,3.49,3.55,3.56
61.57,8.44,4.94,8.48,4.97,-4.97,-4.86,-5.45,3.47,3.51,3.51
62.18,8.44,4.99,8.45,4.98,-4.98,-4.86,-5.45,3.46,3.47,3.45
62.80,8.44,5.03,8.42,4.99,-4.99,-4.86,-5.46,3.45,3.42,3.41
63.43,8.44,5.08,8.39,5.02,-5.02,-4.86,-5.45,3.43,3.38,3.36
64.07,8.44,5.11,8.37,5.04,-5.04,-4.86,-5.45,3.40,3.33,3.33
64.71,8.40,5.11,8.35,5.06,-5.06,-4.86,-5.44,3.34,3.29,3.29
65.35,8.33,5.09,8.32,5.08,-5.08,-4.86,-5.42,3.25,3.24,3.24
66.01,8.21,5.02,8.30,5.10,-5.10,-4.86,-5.40,3.11,3.20,3.20
66.67,8.21,5.06,8.28,5.12,-5.12,-4.86,-5.37,3.09,3.15,3.16
67.33,8.21,5.10,8.25,5.14,-5.14,-4.86,-5.35,3.07,3.11,3.11
68.01,8.21,5.15,8.22,5.16,-5.16,-4.85,-5.31,3.05,3.06,3.07
68.69,8.21,5.20,8.18,5.17,-5.17,-4.85,-5.28,3.04,3.02,3.02
69.37,8.21,5.23,8.15,5.18,-5.18,-4.85,-5.24,3.04,2.97,2.98
70.07,8.19,5.26,8.11,5.18,-5.18,-4.85,-5.20,3.01,2.92,2.93
70.77,8.03,5.15,8.07,5.19,-5.19,-4.85,-5.16,2.84,2.88,2.89
71.48,7.98,5.15,8.04,5.20,-5.20,-4.85,-5.12,2.78,2.83,2.83
72.19,7.98,5.20,8.01,5.22,-5.22,-4.85,-5.08,2.76,2.79,2.79
72.91,7.98,5.24,7.98,5.23,-5.23,-4.85,-5.03,2.75,2.74,2.74
73.64,7.98,5.30,7.94,5.24,-5.24,-4.85,-4.99,2.74,2.70,2.68
74.38,7.92,5.28,7.90,5.24,-5.24,-4.85,-4.95,2.69,2.66,2.64
75.12,7.80,5.20,7.85,5.23,-5.23,-4.85,-4.90,2.57,2.62,2.61
75.87,7.76,5.18,7.81,5.23,-5.23,-4.85,-4.86,2.54,2.58,2.59
76.63,7.75,5.21,7.77,5.22,-5.22,-4.85,-4.82,2.53,2.55,2.54
77.40,7.75,5.24,7.74,5.22,-5.22,-4.85,-4.79,2.53,2.52,2.51
78.17,7.75,5.27,7.70,5.22,-5.22,-4.85,-4.75,2.54,2.49,2.48
78.95,7.75,5.29,7.67,5.21,-5.21,-4.85,-4.72,2.54,2.45,2.46
79.74,7.58,5.16,7.63,5.20,-5.20,-4.85,-4.68,2.38,2.42,2.42
80.54,7.52,5.12,7.59,5.20,-5.20,-4.85,-4.66,2.33,2.39,2.40
81.35,7.52,5.16,7.55,5.19,-5.19,-4.85,-4.63,2.33,2.36,2.36
82.16,7.52,5.18,7.52,5.19,-5.19,-4.85,-4.61,2.34,2.33,2.35
82.98,7.52,5.21,7.48,5.19,-5.19,-4.85,-4.59,2.34,2.30,2.31
83.81,7.52,5.25,7.45,5.18,-5.18,-4.86,-4.57,2.34,2.26,2.27
84.65,7.38,5.15,7.40,5.18,-5.18,-4.86,-4.56,2.20,2.23,2.23
85.50,7.30,5.12,7.36,5.17,-5.17,-4.86,-4.54,2.13,2.19,2.18
86.35,7.30,5.15,7.33,5.18,-5.18,-4.86,-4.54,2.12,2.15,2.15
87.22,7.30,5.19,7.29,5.18,-5.18,-4.86,-4.53,2.12,2.11,2.11
88.09,7.30,5.23,7.26,5.19,-5.19,-4.87,-4.53,2.12,2.07,2.07
88.97,7.30,5.27,7.23,5.20,-5.20,-4.87,-4.54,2.11,2.03,2.03
89.86,7.14,5.16,7.20,5.21,-5.21,-4.87,-4.54,1.94,1.99,1.99
90.76,7.08,5.14,7.16,5.21,-5.21,-4.88,-4.55,1.87,1.95,1.94
91.66,7.07,5.17,7.11,5.21,-5.21,-4.88,-4.57,1.86,1.90,1.90
92.58,7.07,5.21,7.07,5.21,-5.21,-4.88,-4.58,1.86,1.86,1.86
93.51,7.07,5.25,7.02,5.21,-5.21,-4.89,-4.60,1.86,1.81,1.82
94.44,7.07,5.29,6.99,5.22,-5.22,-4.89,-4.63,1.85,1.77,1.78
95.39,6.97,5.25,6.95,5.23,-5.23,-4.90,-4.65,1.75,1.72,1.73
96.34,6.84,5.17,6.90,5.22,-5.22,-4.90,-4.68,1.62,1.68,1.67
97.30,6.84,5.21,6.85,5.22,-5.22,-4.91,-4.72,1.63,1.63,1.63
98.28,6.84,5.26,6.80,5.21,-5.21,-4.91,-4.75,1.63,1.59,1.58
99.26,6.78,5.25,6.76,5.22,-5.22,-4.92,-4.79,1.57,1.54,1.53
100.25,6.62,5.13,6.72,5.22,-5.22,-4.92,-4.83,1.41,1.50,1.49
101.25,6.61,5.16,6.67,5.20,-5.20,-4.93,-4.87,1.41,1.46,1.46
102.27,6.61,5.19,6.61,5.19,-5.19,-4.94,-4.91,1.42,1.42,1.42
103.29,6.61,5.23,6.56,5.18,-5.18,-4.94,-4.96,1.43,1.39,1.38
104.32,6.56,5.21,6.51,5.16,-5.16,-4.95,-5.00,1.40,1.35,1.35
105.37,6.44,5.13,6.46,5.15,-5.15,-4.96,-5.05,1.30,1.32,1.31
106.42,6.38,5.10,6.41,5.13,-5.13,-4.96,-5.10,1.25,1.28,1.29
107.48,6.38,5.14,6.36,5.11,-5.11,-4.97,-5.14,1.27,1.25,1.24
108.56,6.38,5.16,6.32,5.10,-5.10,-4.98,-5.19,1.28,1.22,1.22
109.64,6.24,5.06,6.27,5.08,-5.08,-4.99,-5.24,1.16,1.18,1.18
110.74,6.16,5.01,6.22,5.07,-5.07,-4.99,-5.28,1.09,1.15,1.16
111.85,6.16,5.04,6.17,5.06,-5.06,-5.00,-5.33,1.11,1.12,1.12
112.97,6.16,5.07,6.12,5.04,-5.04,-5.01,-5.37,1.12,1.08,1.09
114.10,6.11,5.06,6.07,5.03,-5.03,-5.02,-5.40,1.09,1.04,1.06
115.24,5.93,4.92,6.02,5.01,-5.01,-5.02,-5.44,0.92,1.01,1.01
116.39,5.93,4.97,5.97,5.00,-5.00,-5.03,-5.47,0.93,0.97,0.96
117.55,5.93,5.00,5.93,5.00,-5.00,-5.04,-5.50,0.94,0.93,0.93
118.73,5.93,5.05,5.88,4.99,-4.99,-5.05,-5.52,0.94,0.89,0.88
119.92,5.92,5.08,5.83,4.98,-4.98,-5.05,-5.54,0.94,0.85,0.84
121.12,5.70,4.89,5.78,4.97,-4.97,-5.06,-5.55,0.73,0.81,0.81
122.33,5.70,4.94,5.74,4.97,-4.97,-5.07,-5.56,0.73,0.76,0.76
123.55,5.70,4.97,5.69,4.97,-4.97,-5.07,-5.56,0.73,0.72,0.73
124.79,5.70,5.02,5.64,4.96,-4.96,-5.08,-5.56,0.74,0.68,0.69
126.03,5.55,4.91,5.59,4.95,-4.95,-5.08,-5.55,0.60,0.63,0.64
127.29,5.50,4.91,5.53,4.94,-4.94,-5.09,-5.53,0.56,0.59,0.59
128.57,5.47,4.92,5.48,4.93,-4.93,-5.09,-5.51,0.54,0.55,0.55
129.85,5.47,4.97,5.43,4.92,-4.92,-5.10,-5.48,0.55,0.51,0.50
131.15,5.42,4.96,5.37,4.91,-4.91,-5.10,-5.45,0.51,0.46,0.46
132.46,5.29,4.88,5.32,4.90,-4.90,-5.10,-5.41,0.40,0.42,0.41
133.79,5.24,4.86,5.27,4.89,-4.89,-5.10,-5.37,0.36,0.38,0.38
135.12,5.24,4.91,5.22,4.88,-4.88,-5.10,-5.33,0.36,0.34,0.33
136.48,5.19,4.89,5.17,4.87,-4.87,-5.10,-5.28,0.32,0.30,0.30
137.84,5.04,4.77,5.12,4.85,-4.85,-5.09,-5.22,0.19,0.27,0.27
139.22,5.02,4.80,5.07,4.84,-4.84,-5.09,-5.17,0.18,0.23,0.23
140.61,5.02,4.83,5.03,4.84,-4.84,-5.09,-5.11,0.18,0.20,0.19
142.02,5.02,4.86,4.98,4.82,-4.82,-5.08,-5.04,0.20,0.16,0.16
143.44,5.00,4.87,4.93,4.80,-4.80,-5.07,-4.98,0.20,0.13,0.13
144.87,4.83,4.73,4.87,4.77,-4.77,-5.06,-4.92,0.06,0.10,0.11
146.32,4.80,4.73,4.83,4.76,-4.76,-5.05,-4.85,0.05,0.07,0.08
147.78,4.79,4.76,4.78,4.74,-4.74,-5.04,-4.79,0.05,0.04,0.04
149.26,4.79,4.78,4.72,4.71,-4.71,-5.02,-4.72,0.08,0.01,0.01
150.75,4.69,4.72,4.66,4.69,-4.69,-5.01,-4.66,0.01,-0.02,-0.03
152.26,4.60,4.65,4.61,4.66,-4.66,-4.99,-4.60,-0.06,-0.05,-0.05
153.78,4.56,4.64,4.56,4.64,-4.64,-4.97,-4.53,-0.08,-0.08,-0.08
155.32,4.51,4.62,4.50,4.61,-4.61,-4.95,-4.47,-0.10,-0.11,-0.11
156.88,4.35,4.49,4.44,4.58,-4.58,-4.93,-4.41,-0.23,-0.14,-0.14
158.44,4.33,4.51,4.37,4.55,-4.55,-4.90,-4.35,-0.21,-0.17,-0.17
160.03,4.33,4.54,4.32,4.53,-4.53,-4.87,-4.30,-0.20,-0.21,-0.21
161.63,4.33,4.57,4.27,4.51,-4.51,-4.85,-4.24,-0.18,-0.24,-0.24
163.24,4.19,4.47,4.22,4.49,-4.49,-4.82,-4.19,-0.29,-0.27,-0.28
164.88,4.10,4.41,4.16,4.46,-4.46,-4.78,-4.15,-0.36,-0.30,-0.31
166.53,4.10,4.45,4.11,4.45,-4.45,-4.75,-4.10,-0.35,-0.34,-0.35
168.19,4.10,4.47,4.06,4.43,-4.43,-4.71,-4.06,-0.33,-0.37,-0.37
169.87,4.05,4.46,4.01,4.42,-4.42,-4.68,-4.02,-0.36,-0.41,-0.40
171.57,3.91,4.35,3.95,4.40,-4.40,-4.64,-3.98,-0.49,-0.44,-0.44
173.29,3.88,4.36,3.90,4.39,-4.39,-4.60,-3.94,-0.50,-0.48,-0.48
175.02,3.88,4.39,3.85,4.37,-4.37,-4.56,-3.91,-0.49,-0.52,-0.51
176.77,3.88,4.44,3.79,4.35,-4.35,-4.51,-3.88,-0.47,-0.56,-0.56
178.54,3.70,4.29,3.73,4.32,-4.32,-4.47,-3.86,-0.62,-0.59,-0.59
180.32,3.65,4.29,3.67,4.31,-4.31,-4.42,-3.84,-0.65,-0.63,-0.63
182.13,3.65,4.33,3.63,4.30,-4.30,-4.38,-3.82,-0.64,-0.67,-0.68
183.95,3.56,4.27,3.57,4.28,-4.28,-4.33,-3.80,-0.72,-0.71,-0.71
185.79,3.43,4.19,3.51,4.26,-4.26,-4.28,-3.79,-0.82,-0.75,-0.76
187.65,3.42,4.21,3.45,4.24,-4.24,-4.23,-3.77,-0.82,-0.79,-0.79
189.52,3.42,4.25,3.40,4.22,-4.22,-4.18,-3.77,-0.80,-0.83,-0.83
191.42,3.37,4.23,3.34,4.20,-4.20,-4.13,-3.76,-0.83,-0.86,-0.86
193.33,3.24,4.14,3.27,4.17,-4.17,-4.07,-3.76,-0.93,-0.90,-0.90
195.27,3.19,4.13,3.22,4.15,-4.15,-4.02,-3.76,-0.96,-0.93,-0.93
197.22,3.19,4.16,3.16,4.13,-4.13,-3.97,-3.76,-0.94,-0.96,-0.97
199.19,3.18,4.18,3.11,4.11,-4.11,-3.91,-3.76,-0.92,-0.99,-1.00
201.18,3.05,4.09,3.05,4.07,-4.07,-3.86,-3.76,-1.02,-1.02,-1.03
203.19,2.96,4.02,2.99,4.04,-4.04,-3.80,-3.77,-1.08,-1.05,-1.06
205.23,2.96,4.04,2.94,4.02,-4.02,-3.75,-3.78,-1.06,-1.08,-1.08
207.28,2.88,3.98,2.89,3.99,-3.99,-3.69,-3.79,-1.11,-1.11,-1.10
209.35,2.77,3.91,2.83,3.96,-3.96,-3.63,-3.80,-1.19,-1.14,-1.13
211.44,2.74,3.90,2.78,3.94,-3.94,-3.58,-3.81,-1.20,-1.16,-1.16
213.56,2.74,3.92,2.73,3.92,-3.92,-3.52,-3.82,-1.17,-1.19,-1.18
215.69,2.74,3.95,2.68,3.89,-3.89,-3.46,-3.83,-1.15,-1.21,-1.20
217.85,2.53,3.76,2.62,3.85,-3.85,-3.41,-3.84,-1.32,-1.24,-1.23
220.03,2.51,3.77,2.56,3.82,-3.82,-3.35,-3.85,-1.31,-1.26,-1.26
222.23,2.51,3.80,2.51,3.79,-3.79,-3.30,-3.86,-1.28,-1.28,-1.29
224.45,2.51,3.82,2.46,3.76,-3.76,-3.24,-3.87,-1.25,-1.31,-1.31
226.70,2.51,3.84,2.40,3.73,-3.73,-3.18,-3.87,-1.21,-1.33,-1.33
228.96,2.35,3.70,2.33,3.68,-3.68,-3.13,-3.87,-1.33,-1.35,-1.35
231.25,2.30,3.67,2.28,3.65,-3.65,-3.07,-3.87,-1.35,-1.37,-1.37
233.57,2.25,3.64,2.23,3.62,-3.62,-3.02,-3.87,-1.37,-1.39,-1.39
235.90,2.06,3.47,2.17,3.58,-3.58,-2.96,-3.87,-1.52,-1.41,-1.41
238.26,2.05,3.49,2.11,3.54,-3.54,-2.91,-3.86,-1.48,-1.43,-1.44
240.64,2.05,3.49,2.05,3.50,-3.50,-2.86,-3.85,-1.44,-1.45,-1.44
243.05,2.05,3.51,2.01,3.47,-3.47,-2.80,-3.83,-1.41,-1.46,-1.46
245.48,1.89,3.37,1.95,3.42,-3.42,-2.75,-3.81,-1.53,-1.47,-1.47
247.93,1.83,3.32,1.89,3.38,-3.38,-2.70,-3.78,-1.54,-1.49,-1.49
250.41,1.83,3.32,1.83,3.33,-3.33,-2.65,-3.76,-1.50,-1.50,-1.49
252.92,1.83,3.34,1.79,3.30,-3.30,-2.60,-3.72,-1.46,-1.51,-1.51
255.45,1.83,3.36,1.75,3.27,-3.27,-2.54,-3.68,-1.44,-1.52,-1.52
258.00,1.69,3.22,1.70,3.23,-3.23,-2.50,-3.64,-1.54,-1.53,-1.53
260.58,1.60,3.14,1.65,3.19,-3.19,-2.45,-3.60,-1.59,-1.54,-1.54
263.19,1.60,3.15,1.61,3.15,-3.15,-2.40,-3.54,-1.55,-1.54,-1.54
265.82,1.60,3.15,1.56,3.11,-3.11,-2.35,-3.49,-1.51,-1.55,-1.55
268.48,1.54,3.10,1.51,3.06,-3.06,-2.30,-3.43,-1.52,-1.55,-1.55
271.16,1.41,2.96,1.45,3.01,-3.01,-2.25,-3.37,-1.60,-1.56,-1.55
273.87,1.37,2.93,1.40,2.96,-2.96,-2.21,-3.31,-1.59,-1.56,-1.56
276.61,1.37,2.93,1.35,2.91,-2.91,-2.16,-3.24,-1.54,-1.56,-1.56
279.38,1.37,2.95,1.30,2.86,-2.86,-2.12,-3.17,-1.49,-1.56,-1.58
282.17,1.20,2.77,1.24,2.81,-2.81,-2.07,-3.09,-1.60,-1.56,-1.57
284.99,1.14,2.71,1.19,2.75,-2.75,-2.03,-3.02,-1.61,-1.56,-1.56
287.84,1.14,2.70,1.14,2.70,-2.70,-1.98,-2.94,-1.56,-1.56,-1.56
290.72,1.14,2.71,1.10,2.66,-2.66,-1.94,-2.86,-1.51,-1.56,-1.56
293.63,1.03,2.59,1.05,2.60,-2.60,-1.90,-2.78,-1.57,-1.56,-1.56
296.57,0.93,2.48,1.00,2.55,-2.55,-1.86,-2.70,-1.62,-1.56,-1.55
299.53,0.91,2.47,0.95,2.50,-2.50,-1.82,-2.62,-1.59,-1.55,-1.55
302.53,0.91,2.45,0.90,2.45,-2.45,-1.78,-2.54,-1.54,-1.55,-1.54
305.55,0.91,2.45,0.86,2.40,-2.40,-1.74,-2.46,-1.49,-1.55,-1.54
308.61,0.86,2.40,0.81,2.35,-2.35,-1.70,-2.38,-1.49,-1.54,-1.54
311.69,0.71,2.25,0.76,2.29,-2.29,-1.66,-2.30,-1.58,-1.54,-1.54
314.81,0.69,2.22,0.71,2.24,-2.24,-1.62,-2.21,-1.55,-1.53,-1.53
317.96,0.69,2.23,0.66,2.19,-2.19,-1.58,-2.13,-1.50,-1.53,-1.53
321.14,0.68,2.21,0.61,2.13,-2.13,-1.54,-2.05,-1.45,-1.52,-1.53
324.35,0.51,2.04,0.56,2.08,-2.08,-1.51,-1.97,-1.57,-1.52,-1.53
327.59,0.46,1.96,0.51,2.03,-2.03,-1.47,-1.89,-1.56,-1.51,-1.50
330.87,0.46,1.97,0.46,1.97,-1.97,-1.44,-1.81,-1.50,-1.51,-1.50
334.18,0.46,1.97,0.41,1.91,-1.91,-1.40,-1.73,-1.45,-1.50,-1.51
337.52,0.33,1.83,0.36,1.85,-1.85,-1.36,-1.66,-1.52,-1.49,-1.50
340.90,0.25,1.73,0.31,1.79,-1.79,-1.33,-1.58,-1.54,-1.48,-1.48
344.30,0.23,1.71,0.26,1.73,-1.73,-1.30,-1.51,-1.50,-1.48,-1.47
347.75,0.23,1.70,0.22,1.68,-1.68,-1.26,-1.43,-1.45,-1.47,-1.47
351.23,0.23,1.70,0.17,1.63,-1.63,-1.23,-1.36,-1.39,-1.46,-1.47
354.74,0.13,1.57,0.12,1.56,-1.56,-1.19,-1.29,-1.43,-1.45,-1.44
358.28,0.02,1.46,0.06,1.51,-1.51,-1.16,-1.21,-1.48,-1.44,-1.44
361.87,0.00,1.44,0.02,1.45,-1.45,-1.13,-1.14,-1.45,-1.43,-1.43
365.49,0.00,1.43,-0.04,1.39,-1.39,-1.10,-1.07,-1.39,-1.43,-1.43
369.14,-0.02,1.40,-0.09,1.33,-1.33,-1.07,-1.01,-1.35,-1.42,-1.42
372.83,-0.17,1.24,-0.13,1.28,-1.28,-1.03,-0.94,-1.45,-1.41,-1.41
376.56,-0.23,1.18,-0.18,1.23,-1.23,-1.00,-0.87,-1.46,-1.41,-1.41
380.33,-0.23,1.17,-0.23,1.18,-1.18,-0.97,-0.81,-1.40,-1.40,-1.40
384.13,-0.23,1.16,-0.28,1.12,-1.12,-0.94,-0.74,-1.35,-1.40,-1.39
387.97,-0.38,1.02,-0.33,1.06,-1.06,-0.91,-0.68,-1.44,-1.39,-1.39
391.85,-0.44,0.95,-0.37,1.02,-1.02,-0.88,-0.61,-1.46,-1.39,-1.39
395.77,-0.45,0.95,-0.41,0.98,-0.98,-0.85,-0.55,-1.42,-1.38,-1.40
399.73,-0.45,0.94,-0.45,0.93,-0.93,-0.82,-0.49,-1.37,-1.38,-1.39
403.72,-0.45,0.92,-0.50,0.87,-0.87,-0.79,-0.43,-1.32,-1.37,-1.37
407.76,-0.45,0.92,-0.55,0.82,-0.82,-0.76,-0.37,-1.26,-1.36,-1.37
411.84,-0.59,0.76,-0.59,0.77,-0.77,-0.73,-0.31,-1.36,-1.35,-1.35
415.96,-0.67,0.67,-0.62,0.73,-0.73,-0.70,-0.26,-1.40,-1.35,-1.34
420.12,-0.68,0.67,-0.65,0.68,-0.68,-0.67,-0.20,-1.36,-1.34,-1.34
424.32,-0.68,0.65,-0.70,0.63,-0.63,-0.64,-0.14,-1.31,-1.32,-1.32
428.56,-0.68,0.63,-0.74,0.58,-0.58,-0.61,-0.09,-1.25,-1.31,-1.30
432.85,-0.77,0.53,-0.77,0.52,-0.52,-0.58,-0.04,-1.29,-1.30,-1.30
437.18,-0.89,0.40,-0.82,0.47,-0.47,-0.55,0.01,-1.36,-1.29,-1.29
441.55,-0.91,0.37,-0.86,0.42,-0.42,-0.52,0.06,-1.32,-1.27,-1.28
445.96,-0.91,0.35,-0.90,0.36,-0.36,-0.49,0.11,-1.27,-1.26,-1.26
450.42,-0.91,0.34,-0.94,0.31,-0.31,-0.45,0.16,-1.22,-1.25,-1.25
454.93,-0.91,0.32,-0.97,0.26,-0.26,-0.42,0.20,-1.16,-1.23,-1.23
459.48,-0.96,0.26,-1.01,0.21,-0.21,-0.39,0.24,-1.16,-1.22,-1.22
464.07,-1.11,0.09,-1.05,0.15,-0.15,-0.36,0.29,-1.26,-1.20,-1.20
468.71,-1.14,0.04,-1.09,0.09,-0.09,-0.33,0.33,-1.23,-1.19,-1.18
473.40,-1.14,0.03,-1.13,0.05,-0.05,-0.30,0.36,-1.18,-1.17,-1.17
478.13,-1.14,0.01,-1.16,-0.00,0.00,-0.26,0.40,-1.14,-1.16,-1.15
482.91,-1.14,0.01,-1.19,-0.05,0.05,-0.23,0.43,-1.09,-1.14,-1.14
487.74,-1.19,-0.06,-1.23,-0.10,0.10,-0.20,0.46,-1.08,-1.12,-1.12
492.62,-1.33,-0.22,-1.27,-0.16,0.16,-0.16,0.49,-1.16,-1.10,-1.10
497.55,-1.37,-0.27,-1.31,-0.22,0.22,-0.13,0.52,-1.14,-1.09,-1.09
502.52,-1.37,-0.29,-1.35,-0.28,0.28,-0.09,0.55,-1.09,-1.07,-1.07
507.55,-1.37,-0.32,-1.39,-0.34,0.34,-0.05,0.57,-1.03,-1.05,-1.05
