frequency,raw,error,smoothed,error_smoothed,equalization,parametric_eq,fixed_band_eq,equalized_raw,equalized_smoothed,target
20.00,8.89,3.60,8.90,3.61,-3.57,-4.04,-1.89,5.32,5.33,5.29
20.20,8.89,3.61,8.89,3.61,-3.59,-4.05,-1.94,5.30,5.30,5.28
20.40,8.89,3.61,8.89,3.61,-3.62,-4.05,-2.00,5.27,5.27,5.28
20.61,8.89,3.61,8.89,3.62,-3.64,-4.05,-2.06,5.25,5.25,5.28
20.81,8.89,3.64,8.89,3.63,-3.67,-4.05,-2.12,5.23,5.22,5.26
21.02,8.89,3.64,8.91,3.65,-3.69,-4.06,-2.18,5.20,5.22,5.26
21.23,8.94,3.69,8.94,3.68,-3.71,-4.06,-2.24,5.23,5.23,5.26
21.44,8.99,3.73,8.99,3.73,-3.74,-4.06,-2.30,5.26,5.25,5.27
21.66,9.04,3.79,9.05,3.79,-3.77,-4.06,-2.37,5.27,5.27,5.26
21.87,9.09,3.83,9.09,3.83,-3.80,-4.07,-2.44,5.29,5.28,5.26
22.09,9.12,3.87,9.11,3.86,-3.83,-4.07,-2.51,5.29,5.28,5.25
22.31,9.12,3.86,9.13,3.87,-3.85,-4.07,-2.58,5.27,5.27,5.26
22.54,9.12,3.87,9.13,3.87,-3.86,-4.08,-2.65,5.26,5.26,5.25
22.76,9.12,3.86,9.12,3.86,-3.87,-4.08,-2.73,5.25,5.25,5.26
22.99,9.12,3.86,9.12,3.86,-3.87,-4.08,-2.81,5.25,5.25,5.26
23.22,9.12,3.86,9.12,3.86,-3.86,-4.08,-2.89,5.26,5.26,5.26
23.45,9.12,3.85,9.12,3.86,-3.86,-4.09,-2.97,5.27,5.27,5.27
23.69,9.12,3.85,9.12,3.85,-3.85,-4.09,-3.05,5.27,5.27,5.27
23.92,9.12,3.85,9.12,3.85,-3.85,-4.09,-3.13,5.28,5.28,5.27
24.16,9.12,3.84,9.12,3.84,-3.84,-4.10,-3.22,5.28,5.28,5.28
24.40,9.12,3.83,9.12,3.84,-3.84,-4.10,-3.31,5.28,5.28,5.29
24.65,9.12,3.83,9.12,3.83,-3.84,-4.10,-3.40,5.29,5.29,5.29
24.89,9.12,3.83,9.12,3.83,-3.83,-4.11,-3.49,5.29,5.29,5.29
25.14,9.12,3.84,9.12,3.83,-3.83,-4.11,-3.58,5.29,5.29,5.29
25.39,9.12,3.83,9.12,3.83,-3.83,-4.11,-3.67,5.30,5.30,5.30
25.65,9.12,3.83,9.12,3.83,-3.82,-4.12,-3.76,5.30,5.30,5.29
25.91,9.12,3.84,9.12,3.83,-3.82,-4.12,-3.85,5.30,5.30,5.28
26.16,9.12,3.83,9.12,3.83,-3.82,-4.12,-3.94,5.30,5.30,5.29
26.43,9.12,3.83,9.12,3.83,-3.84,-4.13,-4.03,5.29,5.28,5.29
26.69,9.12,3.83,9.12,3.83,-3.86,-4.13,-4.12,5.26,5.26,5.29
26.96,9.12,3.84,9.14,3.85,-3.89,-4.13,-4.21,5.23,5.25,5.28
27.23,9.17,3.89,9.18,3.90,-3.92,-4.14,-4.30,5.25,5.26,5.28
27.50,9.24,3.96,9.24,3.96,-3.96,-4.14,-4.39,5.29,5.28,5.28
27.77,9.30,4.02,9.30,4.02,-3.99,-4.15,-4.47,5.31,5.31,5.29
28.05,9.35,4.08,9.34,4.06,-4.03,-4.15,-4.55,5.33,5.31,5.28
28.33,9.35,4.08,9.36,4.08,-4.06,-4.15,-4.63,5.30,5.30,5.27
28.62,9.35,4.09,9.36,4.09,-4.08,-4.16,-4.70,5.27,5.28,5.26
28.90,9.35,4.08,9.35,4.09,-4.10,-4.16,-4.77,5.26,5.26,5.27
29.19,9.35,4.09,9.35,4.09,-4.10,-4.17,-4.84,5.25,5.25,5.26
29.48,9.35,4.10,9.35,4.10,-4.11,-4.17,-4.90,5.24,5.24,5.25
29.78,9.35,4.10,9.35,4.11,-4.11,-4.18,-4.95,5.24,5.24,5.25
30.08,9.35,4.11,9.35,4.11,-4.12,-4.18,-5.00,5.24,5.24,5.25
30.38,9.35,4.13,9.35,4.12,-4.12,-4.19,-5.05,5.23,5.23,5.22
30.68,9.35,4.13,9.35,4.13,-4.13,-4.19,-5.08,5.22,5.22,5.22
30.99,9.35,4.14,9.35,4.14,-4.14,-4.19,-5.11,5.21,5.21,5.21
31.30,9.35,4.15,9.35,4.15,-4.15,-4.20,-5.14,5.20,5.20,5.20
31.61,9.35,4.16,9.35,4.16,-4.16,-4.20,-5.16,5.19,5.19,5.20
31.93,9.35,4.18,9.35,4.17,-4.17,-4.21,-5.17,5.18,5.18,5.17
32.24,9.35,4.17,9.35,4.18,-4.17,-4.21,-5.18,5.18,5.18,5.18
32.57,9.35,4.18,9.35,4.18,-4.18,-4.22,-5.17,5.17,5.17,5.17
32.89,9.35,4.18,9.35,4.18,-4.18,-4.22,-5.17,5.17,5.17,5.17
33.22,9.35,4.19,9.35,4.19,-4.19,-4.23,-5.16,5.17,5.17,5.17
33.55,9.35,4.19,9.35,4.19,-4.19,-4.24,-5.14,5.17,5.17,5.16
33.89,9.35,4.18,9.35,4.19,-4.19,-4.24,-5.12,5.17,5.17,5.17
34.23,9.35,4.19,9.35,4.19,-4.19,-4.25,-5.10,5.16,5.16,5.16
34.57,9.35,4.19,9.35,4.19,-4.19,-4.25,-5.07,5.16,5.16,5.17
34.92,9.35,4.19,9.35,4.19,-4.19,-4.26,-5.04,5.16,5.16,5.16
35.27,9.35,4.18,9.35,4.19,-4.20,-4.26,-5.00,5.16,5.16,5.17
35.62,9.35,4.21,9.35,4.20,-4.21,-4.27,-4.97,5.15,5.15,5.15
35.97,9.35,4.21,9.35,4.21,-4.22,-4.27,-4.93,5.13,5.13,5.14
36.33,9.35,4.21,9.35,4.22,-4.23,-4.28,-4.89,5.12,5.12,5.14
36.70,9.35,4.24,9.35,4.23,-4.24,-4.29,-4.85,5.11,5.11,5.12
37.06,9.35,4.25,9.36,4.25,-4.24,-4.29,-4.81,5.11,5.11,5.10
37.43,9.35,4.26,9.36,4.27,-4.24,-4.30,-4.77,5.11,5.12,5.09
37.81,9.35,4.29,9.34,4.28,-4.23,-4.31,-4.73,5.12,5.11,5.06
38.19,9.31,4.26,9.29,4.24,-4.22,-4.31,-4.69,5.09,5.07,5.05
38.57,9.22,4.20,9.22,4.20,-4.21,-4.32,-4.66,5.01,5.01,5.03
38.95,9.13,4.13,9.16,4.16,-4.20,-4.32,-4.62,4.93,4.95,5.00
39.34,9.12,4.17,9.12,4.16,-4.20,-4.33,-4.59,4.92,4.92,4.96
39.74,9.12,4.19,9.11,4.18,-4.20,-4.34,-4.55,4.92,4.91,4.93
40.14,9.12,4.22,9.12,4.22,-4.21,-4.34,-4.53,4.91,4.91,4.91
40.54,9.12,4.24,9.12,4.24,-4.23,-4.35,-4.50,4.89,4.89,4.88
40.94,9.12,4.28,9.12,4.27,-4.25,-4.36,-4.47,4.87,4.87,4.85
41.35,9.12,4.29,9.12,4.29,-4.28,-4.37,-4.45,4.84,4.84,4.83
41.76,9.12,4.32,9.12,4.32,-4.31,-4.37,-4.43,4.81,4.81,4.80
42.18,9.12,4.33,9.12,4.34,-4.34,-4.38,-4.42,4.78,4.78,4.79
42.60,9.12,4.36,9.12,4.36,-4.36,-4.39,-4.41,4.76,4.76,4.76
43.03,9.12,4.39,9.12,4.39,-4.38,-4.39,-4.40,4.74,4.74,4.74
43.46,9.12,4.41,9.12,4.41,-4.41,-4.40,-4.39,4.71,4.71,4.71
43.90,9.12,4.43,9.12,4.44,-4.43,-4.41,-4.39,4.69,4.69,4.69
44.33,9.12,4.46,9.12,4.46,-4.46,-4.42,-4.39,4.66,4.66,4.66
44.78,9.12,4.49,9.12,4.48,-4.49,-4.42,-4.39,4.64,4.64,4.64
45.23,9.12,4.49,9.12,4.50,-4.52,-4.43,-4.40,4.60,4.60,4.63
45.68,9.12,4.53,9.12,4.53,-4.54,-4.44,-4.41,4.58,4.58,4.59
46.13,9.12,4.57,9.13,4.57,-4.57,-4.45,-4.42,4.56,4.56,4.55
46.60,9.12,4.60,9.12,4.59,-4.58,-4.46,-4.44,4.54,4.54,4.52
47.06,9.12,4.62,9.12,4.62,-4.59,-4.46,-4.46,4.53,4.53,4.50
47.53,9.09,4.62,9.10,4.63,-4.59,-4.47,-4.49,4.50,4.51,4.47
48.01,9.07,4.65,9.05,4.61,-4.60,-4.48,-4.51,4.47,4.45,4.43
48.49,8.98,4.59,8.98,4.59,-4.60,-4.49,-4.54,4.38,4.38,4.39
48.97,8.89,4.54,8.92,4.57,-4.60,-4.50,-4.57,4.29,4.32,4.35
49.46,8.89,4.57,8.89,4.57,-4.61,-4.50,-4.61,4.28,4.28,4.32
49.96,8.89,4.62,8.88,4.61,-4.62,-4.51,-4.64,4.27,4.26,4.27
50.46,8.89,4.65,8.89,4.65,-4.64,-4.52,-4.68,4.25,4.25,4.24
50.96,8.89,4.67,8.89,4.68,-4.68,-4.53,-4.72,4.22,4.22,4.22
51.47,8.89,4.71,8.89,4.71,-4.72,-4.54,-4.77,4.18,4.18,4.19
51.99,8.89,4.75,8.89,4.74,-4.75,-4.55,-4.81,4.14,4.14,4.14
52.51,8.89,4.78,8.89,4.78,-4.78,-4.55,-4.86,4.11,4.11,4.11
53.03,8.89,4.81,8.90,4.83,-4.80,-4.56,-4.90,4.10,4.11,4.08
53.56,8.89,4.86,8.89,4.85,-4.81,-4.57,-4.95,4.09,4.08,4.03
54.10,8.87,4.89,8.83,4.84,-4.81,-4.58,-4.99,4.06,4.02,3.99
54.64,8.74,4.79,8.76,4.82,-4.82,-4.59,-5.04,3.92,3.94,3.95
55.18,8.66,4.76,8.69,4.79,-4.83,-4.60,-5.09,3.83,3.86,3.90
55.74,8.66,4.80,8.65,4.78,-4.84,-4.61,-5.13,3.82,3.81,3.87
56.29,8.66,4.83,8.65,4.82,-4.85,-4.61,-5.17,3.81,3.80,3.83
56.86,8.66,4.85,8.66,4.86,-4.86,-4.62,-5.21,3.80,3.80,3.81
57.42,8.66,4.90,8.67,4.90,-4.87,-4.63,-5.25,3.80,3.80,3.76
58.00,8.66,4.93,8.67,4.93,-4.87,-4.64,-5.29,3.79,3.80,3.73
58.58,8.66,4.95,8.65,4.93,-4.88,-4.65,-5.32,3.78,3.77,3.71
59.16,8.62,4.93,8.59,4.90,-4.89,-4.66,-5.35,3.73,3.70,3.69
59.76,8.49,4.84,8.52,4.87,-4.90,-4.67,-5.38,3.59,3.62,3.65
60.35,8.44,4.84,8.46,4.85,-4.91,-4.68,-5.40,3.53,3.55,3.60
60.96,8.44,4.88,8.43,4.88,-4.93,-4.68,-5.41,3.51,3.50,3.56
61.57,8.44,4.94,8.44,4.93,-4.95,-4.69,-5.43,3.49,3.48,3.51
62.18,8.44,4.99,8.44,4.99,-4.98,-4.70,-5.43,3.46,3.46,3.45
62.80,8.44,5.03,8.45,5.04,-5.01,-4.71,-5.44,3.43,3.44,3.41
63.43,8.44,5.08,8.45,5.08,-5.03,-4.72,-5.44,3.41,3.41,3.36
64.07,8.44,5.11,8.44,5.11,-5.05,-4.73,-5.43,3.39,3.38,3.33
64.71,8.40,5.11,8.39,5.10,-5.07,-4.74,-5.42,3.33,3.31,3.29
65.35,8.33,5.09,8.32,5.07,-5.09,-4.75,-5.41,3.24,3.23,3.24
66.01,8.21,5.02,8.25,5.05,-5.10,-4.75,-5.39,3.11,3.15,3.20
66.67,8.21,5.06,8.21,5.06,-5.12,-4.76,-5.37,3.10,3.09,3.16
67.33,8.21,5.10,8.20,5.09,-5.13,-4.77,-5.34,3.08,3.07,3.11
68.01,8.21,5.15,8.21,5.15,-5.14,-4.78,-5.31,3.08,3.08,3.07
68.69,8.21,5.20,8.23,5.21,-5.15,-4.79,-5.28,3.06,3.08,3.02
69.37,8.21,5.23,8.20,5.22,-5.17,-4.80,-5.25,3.04,3.03,2.98
70.07,8.19,5.26,8.14,5.21,-5.19,-4.81,-5.22,3.00,2.95,2.93
70.77,8.03,5.15,8.07,5.19,-5.22,-4.81,-5.18,2.82,2.85,2.89
71.48,7.98,5.15,8.00,5.17,-5.23,-4.82,-5.14,2.76,2.78,2.83
72.19,7.98,5.20,7.98,5.19,-5.23,-4.83,-5.10,2.76,2.75,2.79
72.91,7.98,5.24,7.99,5.25,-5.22,-4.84,-5.06,2.76,2.77,2.74
73.64,7.98,5.30,7.96,5.27,-5.22,-4.85,-5.03,2.76,2.74,2.68
74.38,7.92,5.28,7.90,5.26,-5.23,-4.86,-4.99,2.69,2.67,2.64
75.12,7.80,5.20,7.83,5.22,-5.24,-4.86,-4.95,2.56,2.59,2.61
75.87,7.76,5.18,7.77,5.19,-5.24,-4.87,-4.92,2.52,2.53,2.59
76.63,7.75,5.21,7.75,5.20,-5.24,-4.88,-4.88,2.51,2.51,2.54
77.40,7.75,5.24,7.76,5.25,-5.22,-4.89,-4.85,2.53,2.54,2.51
78.17,7.75,5.27,7.75,5.27,-5.21,-4.90,-4.82,2.54,2.54,2.48
78.95,7.75,5.29,7.69,5.24,-5.20,-4.91,-4.79,2.55,2.49,2.46
79.74,7.58,5.16,7.62,5.19,-5.20,-4.91,-4.76,2.38,2.42,2.42
80.54,7.52,5.12,7.55,5.15,-5.20,-4.92,-4.74,2.32,2.35,2.40
81.35,7.52,5.16,7.51,5.14,-5.19,-4.93,-4.72,2.33,2.32,2.36
82.16,7.52,5.18,7.53,5.19,-5.18,-4.94,-4.71,2.34,2.35,2.35
82.98,7.52,5.21,7.52,5.21,-5.17,-4.95,-4.69,2.35,2.36,2.31
83.81,7.52,5.25,7.47,5.20,-5.17,-4.95,-4.68,2.35,2.30,2.27
84.65,7.38,5.15,7.40,5.17,-5.18,-4.96,-4.67,2.20,2.22,2.23
85.50,7.30,5.12,7.34,5.15,-5.19,-4.97,-4.67,2.12,2.15,2.18
86.35,7.30,5.15,7.29,5.14,-5.19,-4.98,-4.67,2.11,2.11,2.15
87.22,7.30,5.19,7.31,5.20,-5.18,-4.99,-4.67,2.12,2.13,2.11
88.09,7.30,5.23,7.30,5.23,-5.18,-5.00,-4.68,2.12,2.12,2.07
88.97,7.30,5.27,7.25,5.22,-5.18,-5.01,-4.69,2.12,2.06,2.03
89.86,7.14,5.16,7.18,5.19,-5.20,-5.01,-4.70,1.95,1.98,1.99
90.76,7.08,5.14,7.11,5.16,-5.21,-5.02,-4.72,1.88,1.90,1.94
91.66,7.07,5.17,7.06,5.16,-5.21,-5.03,-4.74,1.86,1.85,1.90
92.58,7.07,5.21,7.08,5.21,-5.22,-5.04,-4.76,1.85,1.86,1.86
93.51,7.07,5.25,7.08,5.26,-5.22,-5.05,-4.79,1.85,1.86,1.82
94.44,7.07,5.29,7.03,5.26,-5.22,-5.06,-4.82,1.85,1.81,1.78
95.39,6.97,5.25,6.96,5.23,-5.23,-5.07,-4.86,1.75,1.74,1.73
96.34,6.84,5.17,6.90,5.22,-5.23,-5.07,-4.89,1.61,1.67,1.67
97.30,6.84,5.21,6.85,5.22,-5.23,-5.08,-4.93,1.62,1.63,1.63
98.28,6.84,5.26,6.80,5.22,-5.22,-5.09,-4.98,1.62,1.58,1.58
99.26,6.78,5.25,6.75,5.21,-5.21,-5.10,-5.02,1.57,1.54,1.53
100.25,6.62,5.13,6.68,5.18,-5.20,-5.11,-5.07,1.42,1.47,1.49
101.25,6.61,5.16,6.62,5.17,-5.19,-5.12,-5.12,1.42,1.43,1.46
102.27,6.61,5.19,6.61,5.19,-5.19,-5.13,-5.17,1.42,1.42,1.42
103.29,6.61,5.23,6.59,5.21,-5.18,-5.14,-5.22,1.43,1.41,1.38
104.32,6.56,5.21,6.54,5.19,-5.17,-5.15,-5.28,1.39,1.37,1.35
105.37,6.44,5.13,6.46,5.15,-5.15,-5.15,-5.33,1.29,1.31,1.31
106.42,6.38,5.10,6.42,5.13,-5.14,-5.16,-5.38,1.24,1.28,1.29
107.48,6.38,5.14,6.37,5.13,-5.13,-5.17,-5.44,1.26,1.25,1.24
108.56,6.38,5.16,6.33,5.11,-5.11,-5.18,-5.49,1.28,1.22,1.22
109.64,6.24,5.06,6.26,5.08,-5.08,-5.19,-5.55,1.16,1.18,1.18
110.74,6.16,5.01,6.20,5.04,-5.05,-5.20,-5.60,1.11,1.15,1.16
111.85,6.16,5.04,6.17,5.04,-5.04,-5.20,-5.65,1.12,1.13,1.12
112.97,6.16,5.07,6.13,5.04,-5.03,-5.21,-5.69,1.13,1.10,1.09
114.10,6.11,5.06,6.07,5.02,-5.02,-5.22,-5.74,1.09,1.05,1.06
115.24,5.93,4.92,5.99,4.98,-5.01,-5.23,-5.78,0.92,0.98,1.01
116.39,5.93,4.97,5.94,4.97,-5.00,-5.23,-5.81,0.93,0.93,0.96
117.55,5.93,5.00,5.94,5.01,-5.00,-5.24,-5.84,0.93,0.94,0.93
118.73,5.93,5.05,5.92,5.03,-4.99,-5.24,-5.87,0.94,0.92,0.88
119.92,5.92,5.08,5.85,5.01,-4.99,-5.25,-5.89,0.94,0.87,0.84
121.12,5.70,4.89,5.78,4.97,-4.98,-5.25,-5.90,0.72,0.80,0.81
122.33,5.70,4.94,5.73,4.96,-4.97,-5.26,-5.91,0.73,0.75,0.76
123.55,5.70,4.97,5.68,4.95,-4.97,-5.26,-5.91,0.73,0.71,0.73
124.79,5.70,5.02,5.65,4.97,-4.96,-5.26,-5.91,0.74,0.69,0.69
126.03,5.55,4.91,5.58,4.94,-4.95,-5.26,-5.90,0.60,0.64,0.64
127.29,5.50,4.91,5.52,4.93,-4.94,-5.26,-5.88,0.56,0.58,0.59
128.57,5.47,4.92,5.48,4.93,-4.94,-5.26,-5.85,0.54,0.54,0.55
129.85,5.47,4.97,5.45,4.95,-4.93,-5.26,-5.82,0.54,0.52,0.50
131.15,5.42,4.96,5.39,4.93,-4.92,-5.26,-5.79,0.51,0.47,0.46
132.46,5.29,4.88,5.33,4.91,-4.90,-5.26,-5.74,0.39,0.43,0.41
133.79,5.24,4.86,5.27,4.90,-4.89,-5.25,-5.70,0.36,0.39,0.38
135.12,5.24,4.91,5.21,4.87,-4.88,-5.24,-5.64,0.37,0.33,0.33
136.48,5.19,4.89,5.15,4.85,-4.86,-5.24,-5.58,0.33,0.29,0.30
137.84,5.04,4.77,5.09,4.82,-4.85,-5.23,-5.52,0.19,0.24,0.27
139.22,5.02,4.80,5.03,4.80,-4.83,-5.22,-5.46,0.19,0.20,0.23
140.61,5.02,4.83,5.02,4.83,-4.82,-5.21,-5.39,0.20,0.20,0.19
142.02,5.02,4.86,5.01,4.85,-4.81,-5.20,-5.32,0.21,0.20,0.16
143.44,5.00,4.87,4.95,4.82,-4.80,-5.18,-5.24,0.20,0.15,0.13
144.87,4.83,4.73,4.88,4.78,-4.79,-5.17,-5.17,0.04,0.09,0.11
146.32,4.80,4.73,4.82,4.75,-4.78,-5.15,-5.10,0.02,0.05,0.08
147.78,4.79,4.76,4.78,4.74,-4.76,-5.13,-5.02,0.04,0.03,0.04
149.26,4.79,4.78,4.76,4.75,-4.73,-5.11,-4.94,0.07,0.03,0.01
150.75,4.69,4.72,4.70,4.72,-4.69,-5.09,-4.87,0.00,0.01,-0.03
152.26,4.60,4.65,4.64,4.69,-4.66,-5.07,-4.79,-0.06,-0.02,-0.05
153.78,4.56,4.64,4.55,4.63,-4.63,-5.04,-4.72,-0.07,-0.08,-0.08
155.32,4.51,4.62,4.47,4.58,-4.60,-5.02,-4.65,-0.09,-0.14,-0.11
156.88,4.35,4.49,4.40,4.54,-4.57,-4.99,-4.58,-0.22,-0.17,-0.14
158.44,4.33,4.51,4.36,4.53,-4.54,-4.96,-4.51,-0.21,-0.19,-0.17
160.03,4.33,4.54,4.32,4.53,-4.52,-4.93,-4.44,-0.18,-0.20,-0.21
161.63,4.33,4.57,4.28,4.52,-4.50,-4.90,-4.37,-0.16,-0.22,-0.24
163.24,4.19,4.47,4.21,4.49,-4.48,-4.86,-4.31,-0.29,-0.27,-0.28
164.88,4.10,4.41,4.14,4.45,-4.46,-4.83,-4.25,-0.36,-0.32,-0.31
166.53,4.10,4.45,4.10,4.45,-4.45,-4.80,-4.19,-0.35,-0.35,-0.35
168.19,4.10,4.47,4.07,4.44,-4.44,-4.76,-4.14,-0.34,-0.36,-0.37
169.87,4.05,4.46,4.02,4.43,-4.42,-4.72,-4.09,-0.37,-0.40,-0.40
171.57,3.91,4.35,3.95,4.39,-4.41,-4.68,-4.04,-0.49,-0.46,-0.44
173.29,3.88,4.36,3.91,4.39,-4.39,-4.64,-3.99,-0.51,-0.48,-0.48
175.02,3.88,4.39,3.87,4.38,-4.37,-4.60,-3.95,-0.49,-0.51,-0.51
176.77,3.88,4.44,3.82,4.37,-4.35,-4.56,-3.91,-0.47,-0.54,-0.56
178.54,3.70,4.29,3.75,4.35,-4.33,-4.52,-3.87,-0.63,-0.58,-0.59
180.32,3.65,4.29,3.69,4.32,-4.31,-4.48,-3.84,-0.66,-0.63,-0.63
182.13,3.65,4.33,3.60,4.27,-4.29,-4.43,-3.81,-0.64,-0.69,-0.68
183.95,3.56,4.27,3.54,4.26,-4.27,-4.39,-3.78,-0.71,-0.73,-0.71
185.79,3.43,4.19,3.48,4.23,-4.25,-4.35,-3.75,-0.81,-0.77,-0.76
187.65,3.42,4.21,3.43,4.22,-4.23,-4.30,-3.73,-0.80,-0.79,-0.79
189.52,3.42,4.25,3.39,4.22,-4.21,-4.26,-3.71,-0.79,-0.82,-0.83
191.42,3.37,4.23,3.34,4.20,-4.20,-4.21,-3.69,-0.82,-0.85,-0.86
193.33,3.24,4.14,3.27,4.17,-4.18,-4.17,-3.68,-0.94,-0.91,-0.90
195.27,3.19,4.13,3.22,4.16,-4.17,-4.12,-3.67,-0.97,-0.94,-0.93
197.22,3.19,4.16,3.18,4.15,-4.14,-4.08,-3.66,-0.95,-0.96,-0.97
199.19,3.18,4.18,3.13,4.14,-4.11,-4.04,-3.65,-0.93,-0.98,-1.00
201.18,3.05,4.09,3.07,4.11,-4.08,-3.99,-3.64,-1.03,-1.01,-1.03
203.19,2.96,4.02,3.00,4.06,-4.05,-3.95,-3.64,-1.09,-1.05,-1.06
205.23,2.96,4.04,2.93,4.01,-4.02,-3.91,-3.63,-1.06,-1.10,-1.08
207.28,2.88,3.98,2.86,3.97,-3.99,-3.86,-3.63,-1.11,-1.13,-1.10
209.35,2.77,3.91,2.80,3.93,-3.95,-3.82,-3.63,-1.18,-1.15,-1.13
211.44,2.74,3.90,2.77,3.93,-3.91,-3.78,-3.63,-1.17,-1.14,-1.16
213.56,2.74,3.92,2.72,3.91,-3.89,-3.74,-3.63,-1.14,-1.16,-1.18
215.69,2.74,3.95,2.67,3.87,-3.87,-3.70,-3.63,-1.12,-1.20,-1.20
217.85,2.53,3.76,2.60,3.83,-3.85,-3.66,-3.63,-1.32,-1.26,-1.23
220.03,2.51,3.77,2.53,3.79,-3.84,-3.62,-3.63,-1.32,-1.31,-1.26
222.23,2.51,3.80,2.51,3.79,-3.81,-3.59,-3.63,-1.30,-1.30,-1.29
224.45,2.51,3.82,2.51,3.82,-3.78,-3.55,-3.63,-1.27,-1.27,-1.31
226.70,2.51,3.84,2.46,3.79,-3.74,-3.51,-3.63,-1.23,-1.28,-1.33
228.96,2.35,3.70,2.40,3.76,-3.71,-3.48,-3.63,-1.35,-1.30,-1.35
231.25,2.30,3.67,2.30,3.67,-3.67,-3.45,-3.62,-1.37,-1.37,-1.37
233.57,2.25,3.64,2.19,3.59,-3.62,-3.42,-3.61,-1.37,-1.43,-1.39
235.90,2.06,3.47,2.12,3.53,-3.57,-3.39,-3.60,-1.51,-1.45,-1.41
238.26,2.05,3.49,2.08,3.50,-3.52,-3.36,-3.59,-1.47,-1.44,-1.44
240.64,2.05,3.49,2.03,3.48,-3.47,-3.33,-3.57,-1.42,-1.44,-1.44
243.05,2.05,3.51,2.00,3.46,-3.43,-3.30,-3.55,-1.38,-1.44,-1.46
245.48,1.89,3.37,1.93,3.40,-3.40,-3.27,-3.53,-1.51,-1.48,-1.47
247.93,1.83,3.32,1.86,3.35,-3.37,-3.25,-3.50,-1.54,-1.51,-1.49
250.41,1.83,3.32,1.83,3.33,-3.34,-3.22,-3.47,-1.51,-1.51,-1.49
252.92,1.83,3.34,1.83,3.34,-3.31,-3.20,-3.44,-1.48,-1.48,-1.51
255.45,1.83,3.36,1.78,3.30,-3.27,-3.18,-3.40,-1.44,-1.49,-1.52
258.00,1.69,3.22,1.71,3.24,-3.24,-3.15,-3.36,-1.54,-1.53,-1.53
260.58,1.60,3.14,1.64,3.18,-3.19,-3.13,-3.31,-1.59,-1.55,-1.54
263.19,1.60,3.15,1.60,3.15,-3.16,-3.11,-3.26,-1.55,-1.55,-1.54
265.82,1.60,3.15,1.57,3.12,-3.11,-3.08,-3.21,-1.51,-1.54,-1.55
268.48,1.54,3.10,1.52,3.07,-3.06,-3.06,-3.16,-1.52,-1.55,-1.55
271.16,1.41,2.96,1.45,3.00,-3.01,-3.04,-3.10,-1.60,-1.57,-1.55
273.87,1.37,2.93,1.40,2.96,-2.96,-3.01,-3.04,-1.59,-1.56,-1.56
276.61,1.37,2.93,1.36,2.92,-2.92,-2.98,-2.98,-1.54,-1.56,-1.56
279.38,1.37,2.95,1.31,2.88,-2.87,-2.96,-2.92,-1.49,-1.56,-1.58
282.17,1.20,2.77,1.24,2.81,-2.81,-2.93,-2.85,-1.61,-1.57,-1.57
284.99,1.14,2.71,1.18,2.75,-2.75,-2.90,-2.78,-1.61,-1.57,-1.56
287.84,1.14,2.70,1.13,2.70,-2.70,-2.86,-2.71,-1.55,-1.56,-1.56
290.72,1.14,2.71,1.10,2.66,-2.65,-2.83,-2.64,-1.50,-1.55,-1.56
293.63,1.03,2.59,1.03,2.59,-2.59,-2.79,-2.57,-1.56,-1.56,-1.56
296.57,0.93,2.48,0.96,2.52,-2.54,-2.75,-2.50,-1.61,-1.58,-1.55
299.53,0.91,2.47,0.92,2.47,-2.49,-2.71,-2.43,-1.58,-1.58,-1.55
302.53,0.91,2.45,0.92,2.46,-2.45,-2.66,-2.35,-1.54,-1.53,-1.54
305.55,0.91,2.45,0.89,2.43,-2.40,-2.61,-2.28,-1.49,-1.51,-1.54
308.61,0.86,2.40,0.83,2.36,-2.35,-2.56,-2.21,-1.49,-1.53,-1.54
311.69,0.71,2.25,0.76,2.30,-2.30,-2.50,-2.13,-1.59,-1.54,-1.54
314.81,0.69,2.22,0.72,2.25,-2.25,-2.45,-2.06,-1.56,-1.54,-1.53
317.96,0.69,2.23,0.67,2.21,-2.20,-2.39,-1.99,-1.51,-1.53,-1.53
321.14,0.68,2.21,0.62,2.15,-2.14,-2.33,-1.92,-1.46,-1.52,-1.53
324.35,0.51,2.04,0.55,2.07,-2.08,-2.26,-1.84,-1.57,-1.53,-1.53
327.59,0.46,1.96,0.50,2.01,-2.02,-2.20,-1.77,-1.55,-1.52,-1.50
330.87,0.46,1.97,0.45,1.96,-1.96,-2.13,-1.70,-1.50,-1.51,-1.50
334.18,0.46,1.97,0.41,1.91,-1.90,-2.06,-1.64,-1.44,-1.49,-1.51
337.52,0.33,1.83,0.35,1.84,-1.85,-1.99,-1.57,-1.51,-1.50,-1.50
340.90,0.25,1.73,0.28,1.76,-1.79,-1.92,-1.50,-1.54,-1.51,-1.48
344.30,0.23,1.71,0.24,1.72,-1.73,-1.85,-1.43,-1.50,-1.49,-1.47
347.75,0.23,1.70,0.23,1.70,-1.68,-1.78,-1.37,-1.45,-1.45,-1.47
351.23,0.23,1.70,0.19,1.65,-1.63,-1.71,-1.30,-1.39,-1.43,-1.47
354.74,0.13,1.57,0.13,1.58,-1.57,-1.64,-1.24,-1.44,-1.44,-1.44
358.28,0.02,1.46,0.06,1.50,-1.51,-1.57,-1.18,-1.49,-1.46,-1.44
361.87,0.00,1.44,0.02,1.45,-1.46,-1.50,-1.11,-1.46,-1.44,-1.43
365.49,0.00,1.43,-0.02,1.41,-1.40,-1.43,-1.05,-1.40,-1.42,-1.43
369.14,-0.02,1.40,-0.07,1.35,-1.34,-1.36,-0.99,-1.36,-1.41,-1.42
372.83,-0.17,1.24,-0.14,1.27,-1.27,-1.29,-0.93,-1.44,-1.41,-1.41
376.56,-0.23,1.18,-0.19,1.22,-1.21,-1.22,-0.88,-1.44,-1.40,-1.41
380.33,-0.23,1.17,-0.24,1.16,-1.16,-1.15,-0.82,-1.38,-1.40,-1.40
384.13,-0.23,1.16,-0.29,1.11,-1.11,-1.08,-0.76,-1.34,-1.39,-1.39
387.97,-0.38,1.02,-0.35,1.04,-1.06,-1.02,-0.71,-1.44,-1.41,-1.39
391.85,-0.44,0.95,-0.41,0.98,-1.01,-0.95,-0.65,-1.45,-1.43,-1.39
395.77,-0.45,0.95,-0.46,0.93,-0.97,-0.89,-0.60,-1.41,-1.42,-1.40
399.73,-0.45,0.94,-0.44,0.95,-0.92,-0.83,-0.54,-1.37,-1.36,-1.39
403.72,-0.45,0.92,-0.45,0.93,-0.88,-0.77,-0.49,-1.33,-1.33,-1.37
407.76,-0.45,0.92,-0.50,0.87,-0.84,-0.70,-0.44,-1.28,-1.33,-1.37
411.84,-0.59,0.76,-0.57,0.79,-0.79,-0.65,-0.39,-1.38,-1.36,-1.35
415.96,-0.67,0.67,-0.64,0.71,-0.74,-0.59,-0.34,-1.41,-1.38,-1.34
420.12,-0.68,0.67,-0.68,0.66,-0.68,-0.53,-0.29,-1.36,-1.36,-1.34
424.32,-0.68,0.65,-0.68,0.65,-0.62,-0.47,-0.25,-1.30,-1.30,-1.32
428.56,-0.68,0.63,-0.71,0.60,-0.56,-0.42,-0.20,-1.24,-1.28,-1.30
432.85,-0.77,0.53,-0.78,0.52,-0.51,-0.36,-0.15,-1.28,-1.29,-1.30
437.18,-0.89,0.40,-0.85,0.43,-0.47,-0.31,-0.11,-1.35,-1.32,-1.29
441.55,-0.91,0.37,-0.90,0.37,-0.42,-0.25,-0.07,-1.33,-1.32,-1.28
445.96,-0.91,0.35,-0.91,0.35,-0.36,-0.20,-0.02,-1.27,-1.28,-1.26
450.42,-0.91,0.34,-0.90,0.35,-0.31,-0.15,0.02,-1.21,-1.20,-1.25
454.93,-0.91,0.32,-0.93,0.30,-0.25,-0.10,0.06,-1.16,-1.18,-1.23
459.48,-0.96,0.26,-0.99,0.22,-0.21,-0.05,0.09,-1.16,-1.20,-1.22
464.07,-1.11,0.09,-1.07,0.14,-0.16,-0.00,0.13,-1.27,-1.23,-1.20
468.71,-1.14,0.04,-1.13,0.06,-0.11,0.05,0.17,-1.25,-1.24,-1.18
473.40,-1.14,0.03,-1.15,0.02,-0.05,0.10,0.20,-1.19,-1.20,-1.17
478.13,-1.14,0.01,-1.13,0.03,0.01,0.14,0.23,-1.13,-1.12,-1.15
482.91,-1.14,0.01,-1.16,-0.02,0.07,0.19,0.26,-1.07,-1.09,-1.14
487.74,-1.19,-0.06,-1.22,-0.10,0.12,0.24,0.29,-1.07,-1.10,-1.12
492.62,-1.33,-0.22,-1.29,-0.18,0.16,0.28,0.32,-1.16,-1.13,-1.10
497.55,-1.37,-0.27,-1.35,-0.26,0.21,0.33,0.34,-1.16,-1.14,-1.09
502.52,-1.37,-0.29,-1.38,-0.31,0.26,0.37,0.37,-1.11,-1.12,-1.07
507.55,-1.37,-0.32,-1.37,-0.32,0.32,0.41,0.39,-1.05,-1.04,-1.05
