frequency,raw
20,8.19
21,8.37
22,8.54
23,8.70
24,8.87
25,9.01
26,9.11
27,9.20
28,9.29
29,9.37
30,9.45
31,9.52
32,9.58
33,9.64
34,9.70
35,9.75
36,9.79
37,9.83
38,9.86
39,9.89
40,9.92
41,9.94
42,9.97
43,9.98
44,10.00
45,10.01
46,10.02
47,10.03
48,10.04
49,10.05
50,10.08
51,10.08
52,10.03
53,9.96
54,9.95
55,9.98
56,10.00
57,9.97
58,9.93
59,9.89
60,9.90
61,9.91
62,9.91
63,9.90
64,9.89
65,9.87
66,9.85
67,9.83
68,9.80
69,9.78
70,9.77
71,9.75
72,9.74
73,9.74
74,9.71
75,9.66
76,9.62
77,9.57
78,9.54
79,9.51
80,9.51
81,9.49
82,9.47
83,9.44
84,9.42
85,9.40
86,9.35
87,9.32
88,9.29
89,9.26
90,9.24
91,9.21
92,9.19
93,9.17
94,9.14
95,9.12
96,9.09
97,9.04
98,9.00
99,8.96
100,8.91
101,8.87
102,8.84
104,8.80
105,8.78
106,8.76
107,8.72
108,8.69
109,8.65
110,8.60
111,8.57
112,8.53
113,8.51
114,8.48
115,8.46
117,8.40
118,8.38
119,8.34
120,8.31
121,8.27
123,8.20
124,8.17
125,8.13
126,8.10
128,8.06
129,8.03
130,8.01
131,7.98
133,7.92
134,7.88
135,7.83
137,7.75
138,7.71
140,7.64
141,7.60
142,7.57
144,7.50
145,7.48
147,7.42
148,7.38
150,7.32
151,7.29
153,7.24
154,7.21
156,7.14
157,7.10
159,7.04
160,7.02
162,6.95
164,6.89
165,6.87
167,6.81
169,6.76
170,6.73
172,6.68
174,6.63
175,6.60
177,6.54
179,6.48
181,6.41
183,6.33
184,6.29
186,6.23
188,6.17
190,6.12
192,6.08
194,6.03
196,5.99
198,5.94
200,5.89
202,5.84
204,5.78
206,5.73
208,5.68
210,5.64
212,5.59
214,5.54
216,5.49
218,5.42
221,5.33
223,5.27
225,5.21
227,5.17
229,5.13
232,5.08
234,5.05
236,5.01
239,4.96
241,4.92
244,4.86
246,4.83
248,4.79
251,4.73
253,4.69
256,4.64
259,4.58
261,4.54
264,4.48
266,4.44
269,4.37
272,4.31
274,4.27
277,4.21
280,4.15
283,4.09
286,4.03
288,3.99
291,3.92
294,3.86
297,3.81
300,3.75
303,3.69
306,3.63
309,3.57
312,3.51
316,3.44
319,3.38
322,3.33
325,3.27
328,3.22
332,3.15
335,3.09
338,3.04
342,2.97
345,2.92
349,2.85
352,2.80
356,2.73
359,2.68
363,2.61
366,2.56
370,2.50
374,2.43
377,2.38
381,2.32
385,2.26
389,2.19
393,2.13
397,2.07
401,2.01
405,1.94
409,1.88
413,1.82
417,1.75
421,1.69
425,1.63
430,1.54
434,1.48
438,1.41
443,1.34
447,1.29
451,1.23
456,1.16
460,1.10
465,1.04
470,0.98
474,0.92
479,0.86
484,0.80
489,0.74
494,0.68
499,0.62
504,0.54
509,0.47
514,0.40
519,0.32
524,0.24
529,0.17
535,0.11
540,0.05
545,0.01
551,-0.03
556,-0.08
562,-0.13
568,-0.18
573,-0.22
579,-0.28
585,-0.33
591,-0.37
596,-0.40
602,-0.44
608,-0.48
615,-0.52
621,-0.57
627,-0.62
633,-0.67
639,-0.72
646,-0.76
652,-0.78
659,-0.80
665,-0.81
672,-0.83
679,-0.86
686,-0.90
692,-0.93
699,-0.96
706,-0.98
713,-1.00
721,-1.01
728,-1.01
735,-1.02
742,-1.02
750,-1.04
757,-1.05
765,-1.07
773,-1.07
780,-1.05
788,-1.03
796,-1.00
804,-0.96
812,-0.92
820,-0.88
828,-0.84
837,-0.79
845,-0.75
853,-0.71
862,-0.66
871,-0.62
879,-0.58
888,-0.53
897,-0.50
906,-0.45
915,-0.41
924,-0.38
933,-0.34
943,-0.29
952,-0.24
962,-0.19
971,-0.14
981,-0.08
991,-0.04
1001,0.00
1011,0.04
1021,0.10
1031,0.14
1041,0.21
1052,0.30
1062,0.38
1073,0.48
1084,0.59
1094,0.68
1105,0.79
1116,0.91
1128,1.03
1139,1.12
1150,1.21
1162,1.29
1173,1.37
1185,1.45
1197,1.53
1209,1.61
1221,1.68
1233,1.74
1246,1.83
1258,1.92
1271,2.02
1283,2.11
1296,2.19
1309,2.26
1322,2.32
1335,2.36
1349,2.40
1362,2.44
1376,2.49
1390,2.55
1404,2.61
1418,2.67
1432,2.72
1446,2.76
1461,2.80
1475,2.83
1490,2.87
1505,2.92
1520,2.98
1535,3.05
1550,3.12
1566,3.19
1582,3.25
1597,3.31
1613,3.36
1629,3.43
1646,3.49
1662,3.54
1679,3.61
1696,3.67
1713,3.74
1730,3.80
1747,3.87
1764,3.93
1782,4.00
1800,4.06
1818,4.12
1836,4.17
1854,4.22
1873,4.29
1892,4.35
1911,4.42
1930,4.50
1949,4.58
1969,4.66
1988,4.74
2008,4.84
2028,4.95
2048,5.08
2069,5.21
2090,5.35
2111,5.48
2132,5.61
2153,5.74
2175,5.88
2196,6.00
2218,6.15
2240,6.28
2263,6.44
2285,6.61
2308,6.77
2331,6.94
2355,7.09
2378,7.23
2402,7.39
2426,7.55
2450,7.71
2475,7.91
2500,8.11
2525,8.33
2550,8.56
2575,8.78
2601,9.00
2627,9.21
2653,9.40
2680,9.58
2707,9.75
2734,9.90
2761,10.05
2789,10.20
2817,10.36
2845,10.53
2873,10.70
2902,10.90
2931,11.07
2960,11.24
2990,11.40
3020,11.53
3050,11.65
3080,11.75
3111,11.83
3142,11.89
3174,11.94
3206,11.94
3238,11.93
3270,11.89
3303,11.84
3336,11.78
3369,11.70
3403,11.61
3437,11.50
3471,11.39
3506,11.27
3541,11.12
3576,10.96
3612,10.77
3648,10.57
3685,10.37
3721,10.18
3759,9.97
3796,9.77
3834,9.58
3873,9.39
3911,9.21
3950,9.03
3990,8.85
4030,8.64
4070,8.45
4111,8.26
4152,8.06
4193,7.87
4235,7.69
4278,7.51
4321,7.34
4364,7.18
4407,7.05
4451,6.93
4496,6.84
4541,6.74
4586,6.66
4632,6.58
4679,6.49
4725,6.42
4773,6.34
4820,6.24
4868,6.14
4917,6.04
4966,5.93
5016,5.83
5066,5.75
5117,5.68
5168,5.67
5220,5.66
5272,5.66
5325,5.68
5378,5.71
5432,5.75
5486,5.79
5541,5.83
5596,5.88
5652,5.94
5709,6.02
5766,6.09
5823,6.16
5882,6.26
5940,6.36
6000,6.46
6060,6.61
6120,6.76
6182,6.93
6244,7.13
6306,7.34
6369,7.54
6433,7.76
6497,8.00
6562,8.26
6628,8.54
6694,8.80
6761,9.06
6828,9.32
6897,9.54
6966,9.76
7035,9.95
7106,10.10
7177,10.25
7249,10.37
7321,10.44
7394,10.44
7468,10.39
7543,10.29
7618,10.17
7694,10.02
7771,9.87
7849,9.69
7928,9.49
8007,9.26
8087,9.01
8168,8.75
8250,8.50
8332,8.29
8415,8.10
8499,7.91
8584,7.65
8670,7.34
8757,6.99
8845,6.69
8933,6.55
9022,6.31
9113,6.31
9204,6.44
9296,6.55
9389,6.62
9483,6.70
9577,6.78
9673,6.88
9770,7.02
9868,7.17
9966,7.30
10066,7.38
10167,7.41
10268,7.40
10371,7.28
10475,7.03
10579,6.77
10685,6.49
10792,6.08
10900,5.59
11009,5.04
11119,4.40
11230,3.72
11343,3.10
11456,2.70
11571,1.66
11686,0.22
11803,-0.45
11921,-1.32
12040,-2.17
12161,-2.70
12282,-3.55
12405,-4.39
12529,-5.12
12655,-5.83
12781,-6.46
12909,-7.10
13038,-7.68
13168,-8.28
13300,-8.82
13433,-9.21
13567,-9.58
13703,-9.95
13840,-10.38
13978,-10.74
14118,-11.09
14259,-11.40
14402,-11.68
14546,-11.92
14692,-12.15
14838,-12.33
14987,-12.49
15137,-12.61
15288,-12.69
15441,-12.73
15595,-12.75
15751,-12.72
15909,-12.65
16068,-12.53
16229,-12.37
16391,-12.14
16555,-11.88
16720,-11.57
16888,-11.15
17056,-10.68
17227,-10.15
17399,-9.50
17573,-8.82
17749,-8.11
17926,-7.43
18106,-6.83
18287,-6.31
18470,-5.96
18654,-5.82
18841,-5.81
19029,-6.02
19220,-6.51
19412,-7.13
19606,-7.90
19802,-8.86
20000,-9.89
