frequency,raw,error,smoothed,error_smoothed,equalization,parametric_eq,equalized_raw,equalized_smoothed,target
20.00,-12.38,-18.52,-12.38,-18.52,6.00,2.97,-6.38,-6.38,6.15
20.20,-12.26,-18.41,-12.26,-18.42,6.00,3.06,-6.26,-6.26,6.16
20.40,-12.14,-18.30,-12.14,-18.31,6.00,3.14,-6.14,-6.14,6.17
20.61,-12.03,-18.21,-12.02,-18.20,6.00,3.23,-6.03,-6.02,6.18
20.81,-11.91,-18.09,-11.90,-18.09,6.00,3.32,-5.91,-5.90,6.19
21.02,-11.79,-17.98,-11.78,-17.98,6.00,3.42,-5.79,-5.78,6.20
21.23,-11.67,-17.87,-11.66,-17.87,6.00,3.51,-5.67,-5.66,6.21
21.44,-11.53,-17.75,-11.54,-17.76,6.00,3.61,-5.53,-5.54,6.22
21.66,-11.42,-17.65,-11.42,-17.65,6.00,3.72,-5.42,-5.42,6.23
21.87,-11.29,-17.53,-11.30,-17.54,6.00,3.82,-5.29,-5.30,6.24
22.09,-11.17,-17.43,-11.17,-17.42,6.00,3.93,-5.17,-5.17,6.25
22.31,-11.04,-17.31,-11.05,-17.31,6.00,4.04,-5.04,-5.05,6.26
22.54,-10.93,-17.20,-10.92,-17.20,6.00,4.16,-4.93,-4.92,6.27
22.76,-10.80,-17.08,-10.80,-17.08,6.00,4.27,-4.80,-4.80,6.28
22.99,-10.68,-16.97,-10.67,-16.97,6.00,4.39,-4.68,-4.67,6.29
23.22,-10.55,-16.85,-10.54,-16.85,6.00,4.52,-4.55,-4.54,6.31
23.45,-10.42,-16.73,-10.42,-16.73,6.00,4.64,-4.42,-4.42,6.32
23.69,-10.29,-16.62,-10.29,-16.61,6.00,4.77,-4.29,-4.29,6.33
23.92,-10.15,-16.50,-10.16,-16.50,6.00,4.90,-4.15,-4.16,6.34
24.16,-10.03,-16.38,-10.03,-16.38,6.00,5.03,-4.03,-4.03,6.35
24.40,-9.89,-16.26,-9.90,-16.26,6.00,5.17,-3.89,-3.90,6.36
24.65,-9.77,-16.14,-9.77,-16.14,6.00,5.31,-3.77,-3.77,6.37
24.89,-9.63,-16.02,-9.63,-16.02,6.00,5.45,-3.63,-3.63,6.38
25.14,-9.49,-15.89,-9.50,-15.90,6.00,5.59,-3.49,-3.50,6.39
25.39,-9.36,-15.77,-9.37,-15.77,6.00,5.73,-3.36,-3.37,6.41
25.65,-9.24,-15.65,-9.24,-15.65,6.00,5.88,-3.24,-3.24,6.42
25.91,-9.11,-15.53,-9.10,-15.53,6.00,6.02,-3.11,-3.10,6.43
26.16,-8.96,-15.40,-8.97,-15.40,6.00,6.17,-2.96,-2.97,6.44
26.43,-8.84,-15.28,-8.83,-15.28,6.00,6.31,-2.84,-2.83,6.45
26.69,-8.70,-15.15,-8.70,-15.15,6.00,6.46,-2.70,-2.70,6.46
26.96,-8.56,-15.03,-8.56,-15.02,6.00,6.60,-2.56,-2.56,6.47
27.23,-8.43,-14.91,-8.42,-14.90,6.00,6.74,-2.43,-2.42,6.48
27.50,-8.29,-14.78,-8.28,-14.77,6.00,6.87,-2.29,-2.28,6.49
27.77,-8.14,-14.64,-8.14,-14.64,6.00,7.00,-2.14,-2.14,6.50
28.05,-8.01,-14.51,-8.00,-14.51,6.00,7.13,-2.01,-2.00,6.51
28.33,-7.87,-14.38,-7.87,-14.38,6.00,7.25,-1.87,-1.87,6.52
28.62,-7.73,-14.26,-7.73,-14.26,6.00,7.36,-1.73,-1.73,6.53
28.90,-7.59,-14.13,-7.59,-14.13,6.00,7.46,-1.59,-1.59,6.54
29.19,-7.45,-14.00,-7.45,-14.00,6.00,7.56,-1.45,-1.45,6.55
29.48,-7.31,-13.87,-7.31,-13.87,6.00,7.64,-1.31,-1.31,6.56
29.78,-7.17,-13.74,-7.18,-13.75,6.00,7.71,-1.17,-1.18,6.57
30.08,-7.03,-13.61,-7.04,-13.62,6.00,7.77,-1.03,-1.04,6.58
30.38,-6.90,-13.49,-6.90,-13.49,6.00,7.82,-0.90,-0.90,6.59
30.68,-6.77,-13.37,-6.77,-13.37,6.00,7.86,-0.77,-0.77,6.60
30.99,-6.64,-13.25,-6.63,-13.24,6.00,7.88,-0.64,-0.63,6.61
31.30,-6.50,-13.12,-6.49,-13.11,6.00,7.89,-0.50,-0.49,6.62
31.61,-6.36,-12.99,-6.35,-12.98,6.00,7.88,-0.36,-0.35,6.63
31.93,-6.22,-12.86,-6.21,-12.85,6.00,7.86,-0.22,-0.21,6.64
32.24,-6.07,-12.73,-6.07,-12.72,6.00,7.83,-0.07,-0.07,6.65
32.57,-5.93,-12.59,-5.92,-12.58,6.00,7.78,0.07,0.08,6.66
32.89,-5.78,-12.46,-5.78,-12.44,6.00,7.72,0.22,0.22,6.67
33.22,-5.64,-12.31,-5.63,-12.30,6.00,7.65,0.36,0.37,6.68
33.55,-5.47,-12.16,-5.48,-12.16,6.00,7.57,0.53,0.52,6.69
33.89,-5.33,-12.02,-5.33,-12.02,6.00,7.48,0.67,0.67,6.70
34.23,-5.18,-11.88,-5.18,-11.88,6.00,7.38,0.82,0.82,6.70
34.57,-5.02,-11.73,-5.02,-11.73,6.00,7.27,0.98,0.98,6.71
34.92,-4.87,-11.59,-4.87,-11.59,6.00,7.15,1.13,1.13,6.72
35.27,-4.71,-11.44,-4.71,-11.44,6.00,7.03,1.29,1.29,6.73
35.62,-4.56,-11.29,-4.56,-11.29,6.00,6.91,1.44,1.44,6.74
35.97,-4.39,-11.14,-4.40,-11.15,6.00,6.78,1.61,1.60,6.74
36.33,-4.24,-11.00,-4.25,-11.00,6.00,6.64,1.76,1.75,6.75
36.70,-4.10,-10.86,-4.09,-10.85,6.00,6.51,1.90,1.91,6.76
37.06,-3.93,-10.70,-3.94,-10.70,6.00,6.37,2.07,2.06,6.76
37.43,-3.78,-10.56,-3.78,-10.55,6.00,6.24,2.22,2.22,6.77
37.81,-3.63,-10.40,-3.63,-10.41,6.00,6.10,2.37,2.37,6.78
38.19,-3.47,-10.25,-3.47,-10.26,6.00,5.97,2.53,2.53,6.78
38.57,-3.32,-10.11,-3.32,-10.11,6.00,5.83,2.68,2.68,6.79
38.95,-3.16,-9.96,-3.16,-9.96,6.00,5.70,2.84,2.84,6.80
39.34,-3.00,-9.81,-3.01,-9.81,6.00,5.56,3.00,2.99,6.80
39.74,-2.86,-9.66,-2.85,-9.65,6.00,5.43,3.14,3.15,6.81
40.14,-2.71,-9.52,-2.69,-9.50,6.00,5.31,3.29,3.31,6.81
40.54,-2.54,-9.35,-2.53,-9.35,6.00,5.18,3.46,3.47,6.82
40.94,-2.38,-9.20,-2.37,-9.19,6.00,5.06,3.62,3.63,6.82
41.35,-2.22,-9.04,-2.22,-9.04,6.00,4.94,3.78,3.78,6.82
41.76,-2.05,-8.88,-2.05,-8.88,6.00,4.82,3.95,3.95,6.83
42.18,-1.90,-8.73,-1.89,-8.73,6.00,4.71,4.10,4.11,6.83
42.60,-1.72,-8.56,-1.73,-8.57,6.00,4.60,4.28,4.27,6.84
43.03,-1.57,-8.41,-1.57,-8.41,6.00,4.49,4.43,4.43,6.84
43.46,-1.41,-8.25,-1.41,-8.26,6.00,4.39,4.59,4.59,6.85
43.90,-1.26,-8.11,-1.25,-8.10,6.00,4.29,4.74,4.75,6.85
44.33,-1.09,-7.95,-1.09,-7.95,6.00,4.19,4.91,4.91,6.86
44.78,-0.93,-7.79,-0.93,-7.79,6.00,4.10,5.07,5.07,6.86
45.23,-0.77,-7.63,-0.77,-7.63,6.00,4.00,5.23,5.23,6.86
45.68,-0.61,-7.48,-0.61,-7.48,6.00,3.92,5.39,5.39,6.87
46.13,-0.44,-7.32,-0.45,-7.32,6.00,3.83,5.56,5.55,6.87
46.60,-0.30,-7.17,-0.29,-7.17,6.00,3.75,5.70,5.71,6.88
47.06,-0.14,-7.02,-0.13,-7.01,6.00,3.67,5.86,5.87,6.88
47.53,0.02,-6.86,0.03,-6.86,6.00,3.60,6.02,6.03,6.88
48.01,0.18,-6.70,0.18,-6.70,6.00,3.52,6.18,6.18,6.89
48.49,0.34,-6.55,0.34,-6.55,6.00,3.45,6.34,6.34,6.89
48.97,0.50,-6.39,0.50,-6.39,5.98,3.38,6.49,6.48,6.89
49.46,0.65,-6.24,0.66,-6.23,5.94,3.32,6.59,6.60,6.89
49.96,0.81,-6.08,0.81,-6.08,5.88,3.26,6.69,6.69,6.89
50.46,0.97,-5.92,0.97,-5.92,5.79,3.19,6.76,6.76,6.89
50.96,1.13,-5.76,1.13,-5.76,5.69,3.14,6.82,6.81,6.89
51.47,1.28,-5.60,1.28,-5.60,5.57,3.08,6.85,6.85,6.89
51.99,1.44,-5.44,1.44,-5.44,5.43,3.02,6.87,6.87,6.88
52.51,1.59,-5.29,1.60,-5.28,5.28,2.97,6.87,6.88,6.88
53.03,1.74,-5.13,1.75,-5.12,5.12,2.92,6.86,6.87,6.87
53.56,1.90,-4.96,1.91,-4.96,4.96,2.87,6.86,6.87,6.87
54.10,2.07,-4.79,2.07,-4.79,4.79,2.82,6.86,6.86,6.86
54.64,2.23,-4.62,2.23,-4.62,4.62,2.77,6.86,6.85,6.85
55.18,2.38,-4.46,2.39,-4.46,4.46,2.72,6.84,6.84,6.84
55.74,2.54,-4.29,2.55,-4.29,4.29,2.67,6.83,6.83,6.83
56.29,2.70,-4.12,2.71,-4.11,4.11,2.62,6.82,6.82,6.82
56.86,2.86,-3.94,2.87,-3.94,3.94,2.58,6.80,6.81,6.81
57.42,3.03,-3.77,3.03,-3.76,3.76,2.53,6.79,6.79,6.79
58.00,3.19,-3.58,3.19,-3.59,3.59,2.48,6.78,6.78,6.78
58.58,3.35,-3.41,3.35,-3.41,3.41,2.43,6.76,6.76,6.76
59.16,3.51,-3.23,3.51,-3.23,3.23,2.38,6.74,6.74,6.74
59.76,3.67,-3.05,3.68,-3.04,3.04,2.33,6.72,6.72,6.72
60.35,3.84,-2.86,3.84,-2.86,2.86,2.28,6.71,6.70,6.70
60.96,4.00,-2.68,4.00,-2.67,2.67,2.23,6.68,6.68,6.68
61.57,4.16,-2.50,4.17,-2.49,2.49,2.18,6.65,6.66,6.66
62.18,4.33,-2.30,4.34,-2.30,2.30,2.12,6.63,6.63,6.64
62.80,4.49,-2.12,4.50,-2.11,2.11,2.07,6.60,6.61,6.61
63.43,4.66,-1.92,4.67,-1.92,1.92,2.01,6.58,6.58,6.59
64.07,4.83,-1.73,4.83,-1.73,1.73,1.95,6.56,6.56,6.56
64.71,4.99,-1.54,5.00,-1.53,1.53,1.89,6.53,6.53,6.53
65.35,5.16,-1.34,5.16,-1.34,1.34,1.83,6.51,6.50,6.50
66.01,5.32,-1.15,5.33,-1.15,1.15,1.77,6.47,6.47,6.48
66.67,5.48,-0.96,5.49,-0.96,0.96,1.70,6.44,6.45,6.45
67.33,5.64,-0.77,5.65,-0.77,0.77,1.64,6.41,6.42,6.42
68.01,5.81,-0.57,5.81,-0.58,0.58,1.57,6.39,6.39,6.39
68.69,5.96,-0.39,5.96,-0.39,0.39,1.50,6.36,6.36,6.36
69.37,6.12,-0.20,6.12,-0.21,0.21,1.43,6.33,6.33,6.33
70.07,6.27,-0.02,6.27,-0.03,0.03,1.36,6.30,6.30,6.30
70.77,6.42,0.16,6.42,0.15,-0.15,1.29,6.27,6.27,6.27
71.48,6.56,0.33,6.56,0.33,-0.33,1.22,6.24,6.24,6.24
72.19,6.70,0.50,6.71,0.50,-0.50,1.14,6.21,6.21,6.21
72.91,6.83,0.66,6.84,0.67,-0.67,1.07,6.17,6.18,6.18
73.64,6.98,0.83,6.98,0.83,-0.83,0.99,6.16,6.15,6.15
74.38,7.11,0.99,7.11,0.99,-0.99,0.91,6.13,6.12,6.12
75.12,7.24,1.15,7.24,1.14,-1.14,0.84,6.10,6.10,6.10
75.87,7.35,1.28,7.36,1.29,-1.29,0.76,6.07,6.07,6.07
76.63,7.47,1.43,7.48,1.43,-1.43,0.68,6.04,6.05,6.05
77.40,7.58,1.56,7.59,1.57,-1.57,0.60,6.01,6.02,6.02
78.17,7.69,1.70,7.70,1.70,-1.70,0.52,5.99,6.00,6.00
78.95,7.79,1.82,7.80,1.83,-1.83,0.44,5.97,5.98,5.98
79.74,7.90,1.95,7.90,1.94,-1.94,0.36,5.96,5.96,5.95
80.54,8.00,2.07,7.99,2.06,-2.06,0.28,5.95,5.93,5.93
81.35,8.08,2.17,8.07,2.16,-2.16,0.20,5.92,5.91,5.92
82.16,8.16,2.27,8.15,2.26,-2.26,0.11,5.90,5.89,5.90
82.98,8.24,2.36,8.23,2.35,-2.35,0.03,5.89,5.88,5.88
83.81,8.31,2.45,8.30,2.44,-2.44,-0.05,5.87,5.86,5.86
84.65,8.36,2.51,8.37,2.52,-2.52,-0.14,5.84,5.85,5.85
85.50,8.41,2.58,8.43,2.59,-2.59,-0.22,5.82,5.83,5.83
86.35,8.47,2.65,8.48,2.66,-2.66,-0.31,5.81,5.82,5.82
87.22,8.51,2.70,8.53,2.73,-2.73,-0.39,5.79,5.81,5.81
88.09,8.56,2.76,8.58,2.78,-2.78,-0.48,5.78,5.80,5.80
88.97,8.61,2.82,8.62,2.84,-2.84,-0.56,5.78,5.79,5.79
89.86,8.66,2.88,8.66,2.88,-2.88,-0.65,5.78,5.78,5.78
90.76,8.70,2.93,8.69,2.92,-2.92,-0.74,5.78,5.77,5.77
91.66,8.72,2.96,8.72,2.96,-2.96,-0.83,5.77,5.77,5.77
92.58,8.75,3.00,8.75,2.99,-2.99,-0.92,5.77,5.76,5.76
93.51,8.77,3.02,8.76,3.01,-3.01,-1.01,5.76,5.75,5.75
94.44,8.77,3.03,8.77,3.03,-3.03,-1.10,5.74,5.74,5.75
95.39,8.77,3.04,8.78,3.04,-3.04,-1.19,5.73,5.74,5.74
96.34,8.78,3.06,8.78,3.05,-3.05,-1.28,5.73,5.73,5.73
97.30,8.78,3.07,8.77,3.05,-3.05,-1.37,5.73,5.72,5.72
98.28,8.76,3.06,8.75,3.05,-3.05,-1.46,5.72,5.70,5.71
99.26,8.73,3.04,8.73,3.04,-3.04,-1.55,5.69,5.69,5.69
100.25,8.70,3.03,8.70,3.03,-3.03,-1.64,5.68,5.67,5.68
101.25,8.66,3.00,8.67,3.01,-3.01,-1.73,5.65,5.66,5.66
102.27,8.61,2.97,8.63,2.99,-2.99,-1.82,5.62,5.64,5.64
103.29,8.58,2.96,8.59,2.97,-2.97,-1.91,5.62,5.62,5.62
104.32,8.54,2.95,8.54,2.94,-2.94,-1.99,5.60,5.59,5.60
105.37,8.47,2.90,8.48,2.91,-2.91,-2.08,5.56,5.57,5.57
106.42,8.41,2.87,8.42,2.88,-2.88,-2.16,5.53,5.54,5.55
107.48,8.36,2.85,8.36,2.85,-2.85,-2.24,5.51,5.51,5.52
108.56,8.30,2.82,8.30,2.82,-2.82,-2.32,5.48,5.48,5.49
109.64,8.24,2.79,8.24,2.79,-2.79,-2.40,5.46,5.45,5.45
110.74,8.18,2.76,8.17,2.75,-2.75,-2.47,5.43,5.41,5.42
111.85,8.10,2.72,8.10,2.72,-2.72,-2.54,5.39,5.38,5.39
112.97,8.01,2.66,8.03,2.68,-2.68,-2.61,5.33,5.35,5.35
114.10,7.93,2.62,7.96,2.64,-2.64,-2.67,5.29,5.31,5.31
115.24,7.85,2.58,7.88,2.61,-2.61,-2.73,5.25,5.27,5.28
116.39,7.80,2.56,7.80,2.56,-2.56,-2.78,5.24,5.24,5.24
117.55,7.74,2.54,7.73,2.52,-2.52,-2.82,5.22,5.21,5.21
118.73,7.65,2.48,7.64,2.47,-2.47,-2.86,5.18,5.17,5.17
119.92,7.55,2.42,7.56,2.43,-2.43,-2.89,5.13,5.14,5.13
121.12,7.45,2.35,7.48,2.37,-2.37,-2.92,5.08,5.10,5.10
122.33,7.40,2.34,7.39,2.32,-2.32,-2.94,5.09,5.07,5.07
123.55,7.32,2.29,7.30,2.26,-2.26,-2.95,5.07,5.04,5.04
124.79,7.21,2.21,7.20,2.20,-2.20,-2.95,5.02,5.01,5.01
126.03,7.09,2.11,7.11,2.13,-2.13,-2.95,4.96,4.98,4.98
127.29,7.03,2.08,7.01,2.06,-2.06,-2.94,4.97,4.96,4.95
128.57,6.93,2.01,6.91,1.99,-1.99,-2.92,4.95,4.93,4.93
129.85,6.80,1.90,6.81,1.91,-1.91,-2.90,4.89,4.90,4.90
131.15,6.68,1.80,6.71,1.83,-1.83,-2.87,4.85,4.88,4.88
132.46,6.61,1.76,6.61,1.75,-1.75,-2.83,4.86,4.86,4.86
133.79,6.50,1.67,6.51,1.67,-1.67,-2.79,4.83,4.83,4.84
135.12,6.37,1.56,6.40,1.59,-1.59,-2.74,4.78,4.81,4.81
136.48,6.30,1.51,6.30,1.51,-1.51,-2.68,4.79,4.79,4.79
137.84,6.19,1.42,6.20,1.43,-1.43,-2.62,4.76,4.77,4.77
139.22,6.12,1.37,6.10,1.35,-1.35,-2.56,4.77,4.75,4.75
140.61,6.01,1.28,6.00,1.27,-1.27,-2.49,4.75,4.73,4.73
142.02,5.86,1.15,5.89,1.19,-1.19,-2.42,4.68,4.71,4.71
143.44,5.80,1.12,5.80,1.11,-1.11,-2.34,4.69,4.69,4.69
144.87,5.68,1.02,5.70,1.03,-1.03,-2.26,4.65,4.67,4.67
146.32,5.60,0.96,5.60,0.95,-0.95,-2.18,4.65,4.64,4.64
147.78,5.49,0.87,5.50,0.88,-0.88,-2.09,4.62,4.62,4.62
149.26,5.41,0.81,5.40,0.80,-0.80,-2.01,4.61,4.60,4.60
150.75,5.30,0.73,5.30,0.73,-0.73,-1.92,4.58,4.57,4.58
152.26,5.22,0.67,5.20,0.66,-0.66,-1.83,4.57,4.55,4.55
153.78,5.10,0.57,5.11,0.58,-0.58,-1.74,4.52,4.53,4.53
155.32,5.02,0.52,5.02,0.52,-0.52,-1.65,4.51,4.50,4.51
156.88,4.91,0.43,4.93,0.45,-0.45,-1.56,4.47,4.48,4.48
158.44,4.83,0.38,4.84,0.38,-0.38,-1.46,4.45,4.46,4.46
160.03,4.71,0.28,4.75,0.32,-0.32,-1.37,4.40,4.43,4.43
161.63,4.64,0.23,4.66,0.26,-0.26,-1.28,4.39,4.41,4.41
163.24,4.58,0.20,4.57,0.20,-0.20,-1.19,4.39,4.38,4.38
164.88,4.48,0.12,4.49,0.14,-0.14,-1.09,4.35,4.36,4.36
166.53,4.41,0.08,4.41,0.08,-0.08,-1.00,4.34,4.33,4.33
168.19,4.35,0.05,4.32,0.02,-0.02,-0.91,4.33,4.30,4.31
169.87,4.24,-0.04,4.24,-0.04,0.04,-0.82,4.28,4.28,4.28
171.57,4.16,-0.09,4.16,-0.09,0.09,-0.73,4.26,4.25,4.25
173.29,4.08,-0.14,4.07,-0.15,0.15,-0.64,4.23,4.22,4.22
175.02,3.98,-0.21,3.99,-0.20,0.20,-0.55,4.19,4.19,4.19
176.77,3.90,-0.25,3.90,-0.26,0.26,-0.46,4.16,4.16,4.16
178.54,3.82,-0.30,3.82,-0.31,0.31,-0.37,4.13,4.13,4.13
180.32,3.75,-0.34,3.73,-0.36,0.36,-0.28,4.11,4.09,4.09
182.13,3.66,-0.40,3.65,-0.41,0.41,-0.19,4.07,4.06,4.06
183.95,3.53,-0.49,3.57,-0.46,0.46,-0.10,3.99,4.02,4.03
185.79,3.46,-0.53,3.49,-0.50,0.50,-0.01,3.96,3.99,4.00
187.65,3.39,-0.57,3.41,-0.54,0.54,0.07,3.93,3.95,3.96
189.52,3.33,-0.59,3.34,-0.58,0.58,0.16,3.91,3.92,3.93
191.42,3.26,-0.63,3.28,-0.61,0.61,0.25,3.88,3.89,3.89
193.33,3.19,-0.67,3.21,-0.64,0.64,0.33,3.84,3.85,3.86
195.27,3.14,-0.68,3.15,-0.67,0.67,0.42,3.81,3.82,3.83
197.22,3.09,-0.70,3.09,-0.69,0.69,0.50,3.79,3.79,3.79
199.19,3.04,-0.71,3.03,-0.72,0.72,0.58,3.76,3.75,3.76
201.18,2.98,-0.74,2.98,-0.74,0.74,0.67,3.72,3.71,3.72
203.19,2.93,-0.75,2.92,-0.76,0.76,0.75,3.69,3.68,3.69
205.23,2.88,-0.77,2.87,-0.78,0.78,0.83,3.66,3.65,3.65
207.28,2.82,-0.79,2.81,-0.80,0.80,0.91,3.62,3.61,3.62
209.35,2.76,-0.81,2.76,-0.82,0.82,0.99,3.58,3.58,3.58
211.44,2.70,-0.84,2.70,-0.84,0.84,1.07,3.55,3.54,3.54
213.56,2.64,-0.86,2.64,-0.87,0.87,1.15,3.51,3.50,3.50
215.69,2.57,-0.89,2.57,-0.89,0.89,1.22,3.47,3.47,3.47
217.85,2.50,-0.93,2.51,-0.92,0.92,1.30,3.42,3.43,3.43
220.03,2.45,-0.94,2.45,-0.95,0.95,1.37,3.40,3.40,3.39
222.23,2.39,-0.97,2.38,-0.98,0.98,1.44,3.37,3.36,3.36
224.45,2.33,-1.00,2.32,-1.01,1.01,1.51,3.35,3.33,3.33
226.70,2.25,-1.05,2.26,-1.05,1.05,1.58,3.30,3.31,3.30
228.96,2.17,-1.11,2.20,-1.08,1.08,1.64,3.26,3.28,3.28
231.25,2.12,-1.13,2.14,-1.12,1.12,1.70,3.24,3.26,3.26
233.57,2.07,-1.16,2.08,-1.16,1.16,1.76,3.23,3.24,3.24
235.90,2.01,-1.21,2.03,-1.19,1.19,1.82,3.21,3.22,3.22
238.26,1.98,-1.23,1.98,-1.23,1.23,1.87,3.22,3.21,3.21
240.64,1.92,-1.28,1.92,-1.27,1.27,1.92,3.20,3.20,3.20
243.05,1.88,-1.31,1.87,-1.31,1.31,1.97,3.20,3.19,3.19
245.48,1.82,-1.36,1.83,-1.36,1.36,2.02,3.18,3.18,3.19
247.93,1.77,-1.41,1.78,-1.40,1.40,2.06,3.17,3.18,3.18
250.41,1.74,-1.44,1.73,-1.44,1.44,2.10,3.19,3.18,3.18
252.92,1.68,-1.50,1.69,-1.49,1.49,2.13,3.18,3.18,3.18
255.45,1.63,-1.55,1.64,-1.54,1.54,2.16,3.17,3.18,3.18
258.00,1.59,-1.59,1.59,-1.59,1.59,2.19,3.19,3.18,3.18
260.58,1.53,-1.65,1.53,-1.64,1.64,2.22,3.18,3.18,3.18
263.19,1.49,-1.69,1.48,-1.70,1.70,2.24,3.19,3.18,3.18
265.82,1.43,-1.75,1.42,-1.76,1.76,2.27,3.19,3.18,3.18
268.48,1.39,-1.79,1.37,-1.82,1.82,2.29,3.21,3.19,3.19
271.16,1.33,-1.86,1.32,-1.88,1.88,2.30,3.21,3.19,3.19
273.87,1.24,-1.95,1.26,-1.94,1.94,2.32,3.18,3.20,3.20
276.61,1.19,-2.01,1.21,-2.00,2.00,2.33,3.19,3.21,3.20
279.38,1.13,-2.08,1.15,-2.06,2.06,2.35,3.20,3.21,3.21
282.17,1.08,-2.14,1.10,-2.13,2.13,2.36,3.21,3.22,3.22
284.99,1.04,-2.19,1.05,-2.19,2.19,2.37,3.23,3.23,3.23
287.84,0.99,-2.25,0.99,-2.25,2.25,2.38,3.24,3.24,3.25
290.72,0.94,-2.32,0.95,-2.31,2.31,2.39,3.25,3.25,3.26
293.63,0.90,-2.37,0.90,-2.36,2.36,2.40,3.27,3.26,3.27
296.57,0.85,-2.43,0.85,-2.42,2.42,2.41,3.27,3.27,3.28
299.53,0.80,-2.49,0.81,-2.47,2.47,2.42,3.28,3.28,3.29
302.53,0.76,-2.54,0.77,-2.52,2.52,2.43,3.29,3.29,3.30
305.55,0.72,-2.58,0.73,-2.57,2.57,2.44,3.30,3.30,3.31
308.61,0.68,-2.63,0.68,-2.62,2.62,2.45,3.31,3.31,3.31
311.69,0.64,-2.67,0.64,-2.67,2.67,2.46,3.31,3.31,3.32
314.81,0.61,-2.71,0.60,-2.72,2.72,2.48,3.33,3.32,3.32
317.96,0.57,-2.75,0.56,-2.76,2.76,2.49,3.34,3.32,3.32
321.14,0.53,-2.79,0.52,-2.81,2.81,2.51,3.34,3.33,3.33
324.35,0.48,-2.84,0.48,-2.85,2.85,2.53,3.33,3.33,3.33
327.59,0.43,-2.90,0.44,-2.89,2.89,2.55,3.32,3.33,3.33
330.87,0.38,-2.95,0.40,-2.93,2.93,2.57,3.32,3.33,3.33
334.18,0.35,-2.98,0.36,-2.97,2.97,2.59,3.33,3.33,3.33
337.52,0.31,-3.02,0.32,-3.01,3.01,2.62,3.33,3.34,3.33
340.90,0.28,-3.05,0.28,-3.05,3.05,2.65,3.33,3.34,3.34
344.30,0.25,-3.08,0.25,-3.09,3.09,2.68,3.34,3.34,3.34
347.75,0.22,-3.11,0.21,-3.13,3.13,2.71,3.35,3.34,3.34
351.23,0.17,-3.16,0.17,-3.16,3.16,2.74,3.34,3.33,3.34
354.74,0.13,-3.20,0.14,-3.20,3.20,2.78,3.33,3.33,3.34
358.28,0.08,-3.25,0.10,-3.23,3.23,2.82,3.32,3.33,3.33
361.87,0.05,-3.27,0.06,-3.27,3.27,2.86,3.32,3.32,3.33
365.49,0.02,-3.30,0.02,-3.30,3.30,2.90,3.32,3.32,3.32
369.14,-0.01,-3.32,-0.02,-3.33,3.33,2.94,3.32,3.31,3.31
372.83,-0.05,-3.35,-0.06,-3.36,3.36,2.99,3.32,3.30,3.31
376.56,-0.09,-3.38,-0.10,-3.39,3.39,3.04,3.31,3.29,3.30
380.33,-0.13,-3.41,-0.14,-3.42,3.42,3.09,3.30,3.28,3.29
384.13,-0.19,-3.46,-0.18,-3.45,3.45,3.14,3.27,3.27,3.28
387.97,-0.24,-3.50,-0.22,-3.48,3.48,3.20,3.25,3.26,3.27
391.85,-0.28,-3.53,-0.26,-3.51,3.51,3.25,3.23,3.25,3.26
395.77,-0.32,-3.56,-0.30,-3.54,3.54,3.31,3.22,3.24,3.25
399.73,-0.35,-3.58,-0.33,-3.57,3.57,3.37,3.22,3.23,3.23
403.72,-0.37,-3.59,-0.37,-3.60,3.60,3.43,3.23,3.22,3.22
407.76,-0.40,-3.61,-0.42,-3.63,3.63,3.49,3.23,3.21,3.21
411.84,-0.44,-3.64,-0.46,-3.66,3.66,3.55,3.22,3.20,3.20
415.96,-0.48,-3.66,-0.50,-3.69,3.69,3.61,3.21,3.19,3.19
420.12,-0.53,-3.70,-0.54,-3.72,3.72,3.68,3.19,3.18,3.18
424.32,-0.57,-3.74,-0.58,-3.75,3.75,3.74,3.18,3.17,3.17
428.56,-0.61,-3.77,-0.61,-3.78,3.78,3.80,3.17,3.16,3.16
432.85,-0.65,-3.80,-0.65,-3.80,3.80,3.86,3.16,3.15,3.15
437.18,-0.68,-3.82,-0.68,-3.83,3.83,3.92,3.15,3.15,3.15
441.55,-0.71,-3.85,-0.72,-3.85,3.85,3.98,3.15,3.14,3.14
445.96,-0.75,-3.89,-0.74,-3.87,3.87,4.03,3.13,3.13,3.14
450.42,-0.79,-3.92,-0.76,-3.89,3.89,4.08,3.10,3.13,3.14
454.93,-0.80,-3.94,-0.77,-3.90,3.90,4.13,3.10,3.13,3.14
459.48,-0.81,-3.95,-0.78,-3.90,3.90,4.18,3.10,3.13,3.14
464.07,-0.81,-3.95,-0.77,-3.90,3.90,4.22,3.10,3.13,3.15
468.71,-0.80,-3.95,-0.76,-3.89,3.89,4.26,3.10,3.13,3.15
473.40,-0.76,-3.91,-0.74,-3.88,3.88,4.30,3.12,3.14,3.16
478.13,-0.74,-3.90,-0.72,-3.86,3.86,4.33,3.13,3.14,3.16
482.91,-0.70,-3.86,-0.69,-3.84,3.84,4.35,3.14,3.15,3.16
487.74,-0.65,-3.81,-0.66,-3.82,3.82,4.37,3.17,3.15,3.16
492.62,-0.62,-3.78,-0.63,-3.79,3.79,4.39,3.18,3.16,3.17
497.55,-0.58,-3.74,-0.60,-3.77,3.77,4.39,3.19,3.17,3.17
502.52,-0.56,-3.73,-0.57,-3.75,3.75,4.40,3.19,3.17,3.17
507.55,-0.53,-3.70,-0.55,-3.72,3.72,4.39,3.20,3.18,3.17
512.62,-0.51,-3.68,-0.53,-3.71,3.71,4.39,3.20,3.18,3.17
517.75,-0.49,-3.66,-0.51,-3.69,3.69,4.37,3.21,3.18,3.18
522.93,-0.48,-3.66,-0.50,-3.68,3.68,4.35,3.21,3.19,3.18
528.16,-0.48,-3.66,-0.49,-3.68,3.68,4.33,3.20,3.19,3.18
533.44,-0.49,-3.67,-0.49,-3.68,3.68,4.30,3.19,3.19,3.19
538.77,-0.50,-3.69,-0.49,-3.68,3.68,4.27,3.18,3.19,3.19
544.16,-0.51,-3.70,-0.49,-3.68,3.68,4.23,3.17,3.19,3.20
549.60,-0.51,-3.71,-0.49,-3.69,3.69,4.19,3.18,3.19,3.20
555.10,-0.51,-3.71,-0.49,-3.69,3.69,4.15,3.19,3.20,3.20
560.65,-0.51,-3.71,-0.50,-3.70,3.70,4.10,3.19,3.20,3.21
566.25,-0.51,-3.72,-0.50,-3.71,3.71,4.05,3.20,3.20,3.21
571.92,-0.51,-3.72,-0.50,-3.71,3.71,4.00,3.21,3.21,3.22
577.64,-0.51,-3.72,-0.51,-3.72,3.72,3.94,3.21,3.21,3.22
583.41,-0.51,-3.73,-0.51,-3.72,3.72,3.89,3.21,3.21,3.22
589.25,-0.51,-3.73,-0.51,-3.72,3.72,3.84,3.22,3.22,3.22
595.14,-0.51,-3.73,-0.51,-3.73,3.73,3.78,3.22,3.22,3.22
601.09,-0.51,-3.73,-0.51,-3.73,3.73,3.72,3.23,3.22,3.23
607.10,-0.51,-3.73,-0.51,-3.73,3.73,3.67,3.23,3.23,3.23
613.17,-0.51,-3.73,-0.51,-3.74,3.74,3.61,3.23,3.23,3.23
619.30,-0.51,-3.74,-0.51,-3.74,3.74,3.56,3.24,3.24,3.23
625.50,-0.51,-3.74,-0.51,-3.75,3.75,3.51,3.24,3.24,3.23
631.75,-0.51,-3.74,-0.51,-3.75,3.75,3.45,3.25,3.25,3.24
638.07,-0.51,-3.75,-0.51,-3.76,3.76,3.40,3.25,3.25,3.25
644.45,-0.51,-3.76,-0.51,-3.77,3.77,3.35,3.26,3.26,3.25
650.89,-0.51,-3.77,-0.51,-3.77,3.77,3.31,3.27,3.27,3.26
657.40,-0.51,-3.78,-0.50,-3.78,3.78,3.26,3.28,3.28,3.27
663.98,-0.51,-3.79,-0.50,-3.79,3.79,3.22,3.28,3.29,3.28
670.62,-0.51,-3.80,-0.51,-3.80,3.80,3.18,3.29,3.29,3.29
677.32,-0.51,-3.81,-0.51,-3.81,3.81,3.14,3.30,3.30,3.30
684.10,-0.51,-3.81,-0.51,-3.81,3.81,3.10,3.31,3.30,3.31
690.94,-0.51,-3.82,-0.51,-3.82,3.82,3.07,3.31,3.31,3.31
697.85,-0.51,-3.82,-0.51,-3.82,3.82,3.03,3.32,3.31,3.32
704.83,-0.51,-3.82,-0.52,-3.83,3.83,3.00,3.32,3.31,3.31
711.87,-0.51,-3.82,-0.52,-3.82,3.82,2.98,3.32,3.30,3.31
