frequency,raw,smoothed,error,error_smoothed,equalization,parametric_eq,fixed_band_eq,equalized_raw,equalized_smoothed,target
20.00,5.88,5.88,-1.63,-1.62,1.61,0.73,0.89,7.49,7.50,7.51
20.20,5.96,5.96,-1.53,-1.54,1.54,0.71,0.92,7.50,7.49,7.49
20.40,6.02,6.02,-1.46,-1.46,1.46,0.69,0.95,7.48,7.49,7.48
20.61,6.09,6.09,-1.38,-1.38,1.39,0.67,0.99,7.48,7.48,7.47
20.81,6.15,6.15,-1.31,-1.32,1.32,0.66,1.02,7.47,7.47,7.46
21.02,6.20,6.20,-1.25,-1.25,1.26,0.64,1.06,7.46,7.46,7.45
21.23,6.25,6.25,-1.19,-1.19,1.19,0.62,1.09,7.44,7.45,7.44
21.44,6.30,6.30,-1.13,-1.13,1.13,0.60,1.13,7.43,7.43,7.43
21.66,6.34,6.34,-1.08,-1.08,1.08,0.59,1.17,7.42,7.42,7.42
21.87,6.38,6.38,-1.03,-1.03,1.03,0.57,1.21,7.41,7.41,7.41
22.09,6.42,6.42,-0.98,-0.98,0.98,0.55,1.26,7.40,7.40,7.40
22.31,6.45,6.45,-0.93,-0.93,0.93,0.54,1.30,7.38,7.38,7.39
22.54,6.49,6.49,-0.89,-0.88,0.88,0.52,1.34,7.37,7.37,7.37
22.76,6.54,6.53,-0.82,-0.83,0.83,0.51,1.39,7.37,7.36,7.36
22.99,6.58,6.58,-0.78,-0.78,0.77,0.49,1.44,7.35,7.35,7.36
23.22,6.63,6.63,-0.72,-0.72,0.71,0.48,1.48,7.34,7.34,7.35
23.45,6.68,6.68,-0.66,-0.66,0.65,0.47,1.53,7.33,7.33,7.34
23.69,6.74,6.74,-0.59,-0.59,0.59,0.45,1.58,7.32,7.33,7.33
23.92,6.80,6.80,-0.52,-0.52,0.52,0.44,1.63,7.32,7.32,7.32
24.16,6.86,6.86,-0.44,-0.44,0.45,0.43,1.68,7.31,7.31,7.31
24.40,6.92,6.92,-0.37,-0.38,0.38,0.42,1.74,7.30,7.30,7.29
24.65,6.98,6.98,-0.31,-0.31,0.31,0.41,1.79,7.29,7.29,7.29
24.89,7.04,7.04,-0.25,-0.25,0.25,0.41,1.84,7.29,7.29,7.29
25.14,7.10,7.10,-0.19,-0.18,0.18,0.40,1.89,7.28,7.28,7.29
25.39,7.16,7.16,-0.12,-0.12,0.12,0.40,1.94,7.28,7.28,7.28
25.65,7.22,7.22,-0.06,-0.06,0.06,0.39,1.99,7.28,7.28,7.28
25.91,7.27,7.27,-0.00,0.00,0.00,0.39,2.04,7.27,7.27,7.27
26.16,7.33,7.32,0.06,0.05,-0.05,0.39,2.09,7.28,7.27,7.27
26.43,7.37,7.37,0.10,0.10,-0.10,0.39,2.14,7.27,7.27,7.27
26.69,7.42,7.42,0.15,0.15,-0.15,0.40,2.18,7.27,7.27,7.27
26.96,7.46,7.46,0.19,0.19,-0.19,0.41,2.23,7.27,7.26,7.27
27.23,7.49,7.49,0.23,0.23,-0.23,0.42,2.26,7.26,7.26,7.26
27.50,7.52,7.52,0.26,0.26,-0.26,0.43,2.30,7.26,7.26,7.26
27.77,7.54,7.54,0.28,0.28,-0.29,0.45,2.33,7.25,7.25,7.26
28.05,7.55,7.55,0.30,0.31,-0.30,0.46,2.36,7.25,7.25,7.25
28.33,7.56,7.56,0.32,0.31,-0.31,0.49,2.39,7.25,7.24,7.24
28.62,7.55,7.55,0.32,0.31,-0.31,0.51,2.41,7.24,7.23,7.23
28.90,7.52,7.53,0.29,0.30,-0.30,0.55,2.42,7.22,7.22,7.23
29.19,7.49,7.49,0.28,0.28,-0.28,0.58,2.42,7.21,7.21,7.21
29.48,7.45,7.44,0.25,0.24,-0.24,0.62,2.42,7.21,7.20,7.20
29.78,7.38,7.38,0.18,0.19,-0.18,0.67,2.42,7.20,7.20,7.20
30.08,7.30,7.30,0.12,0.12,-0.12,0.72,2.40,7.19,7.19,7.19
30.38,7.21,7.21,0.03,0.03,-0.03,0.78,2.38,7.18,7.18,7.18
30.68,7.10,7.10,-0.08,-0.08,0.08,0.84,2.34,7.18,7.18,7.18
30.99,6.97,6.97,-0.20,-0.20,0.20,0.91,2.31,7.17,7.18,7.17
31.30,6.83,6.83,-0.34,-0.34,0.35,0.99,2.26,7.18,7.18,7.17
31.61,6.66,6.66,-0.51,-0.51,0.52,1.08,2.20,7.18,7.18,7.17
31.93,6.47,6.47,-0.70,-0.70,0.72,1.18,2.13,7.19,7.19,7.17
32.24,6.26,6.26,-0.91,-0.91,0.93,1.28,2.06,7.18,7.18,7.17
32.57,6.02,6.02,-1.14,-1.15,1.16,1.39,1.98,7.18,7.18,7.16
32.89,5.75,5.75,-1.42,-1.41,1.40,1.51,1.89,7.15,7.15,7.17
33.22,5.47,5.46,-1.70,-1.70,1.65,1.64,1.79,7.12,7.12,7.17
33.55,5.15,5.15,-2.01,-2.01,1.91,1.78,1.69,7.06,7.06,7.16
33.89,4.81,4.81,-2.33,-2.34,2.17,1.93,1.57,6.98,6.98,7.15
34.23,4.44,4.44,-2.70,-2.70,2.44,2.08,1.46,6.88,6.88,7.14
34.57,4.04,4.04,-3.10,-3.09,2.71,2.24,1.33,6.75,6.75,7.13
34.92,3.61,3.62,-3.50,-3.50,3.01,2.40,1.20,6.62,6.62,7.12
35.27,3.17,3.16,-3.94,-3.94,3.30,2.57,1.06,6.47,6.47,7.10
35.62,2.69,2.69,-4.39,-4.40,3.57,2.73,0.92,6.26,6.26,7.09
35.97,2.19,2.20,-4.88,-4.87,3.79,2.88,0.77,5.99,5.99,7.07
36.33,1.71,1.71,-5.34,-5.34,3.96,3.02,0.62,5.67,5.67,7.05
36.70,1.24,1.24,-5.78,-5.79,4.05,3.14,0.46,5.29,5.29,7.03
37.06,0.81,0.81,-6.20,-6.20,4.06,3.24,0.30,4.87,4.87,7.01
37.43,0.43,0.42,-6.56,-6.56,4.00,3.31,0.13,4.42,4.42,6.98
37.81,0.11,0.12,-6.85,-6.84,3.86,3.34,-0.03,3.97,3.98,6.97
38.19,-0.09,-0.08,-7.03,-7.02,3.66,3.32,-0.20,3.57,3.57,6.94
38.57,-0.16,-0.17,-7.08,-7.08,3.40,3.27,-0.37,3.24,3.24,6.92
38.95,-0.12,-0.11,-7.02,-7.01,3.12,3.15,-0.55,3.00,3.01,6.90
39.34,0.06,0.07,-6.82,-6.81,2.82,3.01,-0.73,2.88,2.89,6.88
39.74,0.39,0.38,-6.47,-6.48,2.53,2.80,-0.91,2.92,2.91,6.86
40.14,0.80,0.80,-6.05,-6.05,2.28,2.56,-1.09,3.07,3.08,6.84
40.54,1.31,1.31,-5.53,-5.52,2.02,2.27,-1.27,3.32,3.33,6.83
40.94,1.90,1.89,-4.92,-4.93,1.76,1.97,-1.46,3.66,3.65,6.82
41.35,2.51,2.52,-4.29,-4.29,1.50,1.63,-1.64,4.01,4.02,6.80
41.76,3.17,3.16,-3.63,-3.64,1.24,1.28,-1.83,4.41,4.40,6.79
42.18,3.80,3.81,-2.99,-2.98,1.00,0.92,-2.02,4.80,4.81,6.79
42.60,4.45,4.45,-2.33,-2.33,0.76,0.55,-2.22,5.21,5.21,6.78
43.03,5.07,5.06,-1.70,-1.71,0.51,0.18,-2.41,5.58,5.57,6.77
43.46,5.66,5.66,-1.10,-1.10,0.24,-0.19,-2.61,5.90,5.90,6.77
43.90,6.23,6.24,-0.53,-0.52,-0.06,-0.56,-2.80,6.17,6.18,6.76
44.33,6.79,6.79,0.05,0.04,-0.39,-0.92,-3.01,6.41,6.40,6.75
44.78,7.32,7.31,0.57,0.57,-0.75,-1.28,-3.21,6.57,6.57,6.74
45.23,7.80,7.81,1.06,1.08,-1.13,-1.63,-3.41,6.67,6.68,6.74
45.68,8.29,8.29,1.56,1.56,-1.54,-1.97,-3.62,6.75,6.75,6.73
46.13,8.74,8.73,2.03,2.02,-1.96,-2.31,-3.83,6.78,6.77,6.71
46.60,9.16,9.16,2.45,2.46,-2.40,-2.63,-4.04,6.76,6.77,6.70
47.06,9.56,9.56,2.87,2.88,-2.83,-2.95,-4.25,6.73,6.73,6.69
47.53,9.95,9.94,3.28,3.27,-3.25,-3.26,-4.46,6.70,6.69,6.67
48.01,10.30,10.30,3.64,3.65,-3.65,-3.57,-4.68,6.65,6.65,6.65
48.49,10.64,10.64,4.00,4.01,-4.01,-3.86,-4.90,6.63,6.63,6.64
48.97,10.97,10.97,4.36,4.35,-4.36,-4.15,-5.12,6.61,6.61,6.62
49.46,11.28,11.28,4.68,4.68,-4.69,-4.44,-5.34,6.59,6.59,6.60
49.96,11.57,11.58,5.00,5.01,-5.01,-4.72,-5.56,6.56,6.57,6.57
50.46,11.86,11.86,5.31,5.31,-5.31,-4.99,-5.79,6.54,6.54,6.55
50.96,12.13,12.13,5.62,5.61,-5.61,-5.26,-6.01,6.52,6.52,6.51
51.47,12.38,12.38,5.89,5.89,-5.89,-5.53,-6.24,6.49,6.50,6.49
51.99,12.63,12.63,6.16,6.16,-6.15,-5.79,-6.46,6.47,6.47,6.47
52.51,12.86,12.86,6.41,6.41,-6.41,-6.04,-6.69,6.45,6.45,6.45
53.03,13.07,13.07,6.65,6.65,-6.65,-6.29,-6.91,6.42,6.42,6.42
53.56,13.28,13.28,6.88,6.88,-6.88,-6.54,-7.13,6.40,6.40,6.40
54.10,13.47,13.47,7.10,7.10,-7.10,-6.78,-7.35,6.37,6.37,6.37
54.64,13.66,13.66,7.32,7.31,-7.31,-7.02,-7.57,6.34,6.34,6.34
55.18,13.83,13.83,7.52,7.52,-7.52,-7.26,-7.78,6.31,6.31,6.32
55.74,14.00,14.00,7.71,7.71,-7.71,-7.49,-7.98,6.29,6.29,6.29
56.29,14.16,14.16,7.90,7.90,-7.90,-7.71,-8.18,6.26,6.26,6.26
56.86,14.31,14.31,8.08,8.08,-8.08,-7.93,-8.37,6.22,6.23,6.23
57.42,14.46,14.46,8.26,8.26,-8.26,-8.14,-8.54,6.20,6.20,6.20
58.00,14.59,14.59,8.43,8.43,-8.43,-8.35,-8.71,6.16,6.16,6.16
58.58,14.73,14.73,8.60,8.59,-8.60,-8.55,-8.87,6.13,6.13,6.13
59.16,14.85,14.85,8.75,8.75,-8.76,-8.75,-9.01,6.09,6.10,6.10
59.76,14.97,14.97,8.91,8.91,-8.91,-8.93,-9.14,6.06,6.06,6.06
60.35,15.09,15.08,9.06,9.06,-9.06,-9.11,-9.25,6.03,6.02,6.03
60.96,15.19,15.19,9.20,9.21,-9.21,-9.28,-9.34,5.98,5.98,5.99
61.57,15.29,15.29,9.35,9.35,-9.35,-9.44,-9.42,5.94,5.94,5.94
62.18,15.39,15.39,9.49,9.48,-9.49,-9.59,-9.47,5.90,5.90,5.90
62.80,15.47,15.47,9.61,9.62,-9.62,-9.72,-9.51,5.85,5.86,5.86
63.43,15.55,15.55,9.74,9.74,-9.74,-9.85,-9.53,5.81,5.81,5.81
64.07,15.62,15.62,9.85,9.85,-9.85,-9.96,-9.53,5.77,5.77,5.77
64.71,15.68,15.68,9.96,9.96,-9.96,-10.06,-9.51,5.72,5.72,5.72
65.35,15.73,15.73,10.05,10.05,-10.05,-10.14,-9.48,5.68,5.68,5.68
66.01,15.76,15.76,10.13,10.13,-10.12,-10.21,-9.42,5.64,5.64,5.63
66.67,15.78,15.78,10.19,10.19,-10.19,-10.27,-9.36,5.59,5.59,5.59
67.33,15.78,15.78,10.24,10.24,-10.24,-10.31,-9.28,5.54,5.54,5.54
68.01,15.76,15.76,10.27,10.27,-10.27,-10.34,-9.19,5.49,5.49,5.49
68.69,15.73,15.73,10.29,10.29,-10.29,-10.35,-9.09,5.44,5.44,5.44
69.37,15.68,15.68,10.29,10.29,-10.29,-10.35,-8.98,5.39,5.39,5.39
70.07,15.62,15.62,10.27,10.27,-10.27,-10.33,-8.86,5.35,5.34,5.35
70.77,15.53,15.54,10.24,10.24,-10.24,-10.30,-8.74,5.29,5.29,5.29
71.48,15.44,15.44,10.20,10.20,-10.20,-10.26,-8.61,5.24,5.24,5.24
72.19,15.33,15.33,10.15,10.14,-10.14,-10.21,-8.48,5.19,5.19,5.18
72.91,15.20,15.20,10.07,10.07,-10.07,-10.14,-8.34,5.13,5.13,5.13
73.64,15.07,15.07,9.99,10.00,-10.00,-10.07,-8.21,5.07,5.07,5.08
74.38,14.93,14.93,9.91,9.91,-9.91,-9.99,-8.07,5.02,5.01,5.02
75.12,14.78,14.78,9.82,9.82,-9.83,-9.90,-7.93,4.95,4.96,4.95
75.87,14.63,14.63,9.73,9.73,-9.73,-9.80,-7.80,4.90,4.90,4.90
76.63,14.47,14.47,9.63,9.63,-9.63,-9.70,-7.66,4.84,4.84,4.84
77.40,14.31,14.31,9.53,9.53,-9.53,-9.58,-7.53,4.78,4.78,4.78
78.17,14.14,14.14,9.43,9.43,-9.43,-9.47,-7.40,4.71,4.71,4.71
78.95,13.98,13.97,9.32,9.32,-9.32,-9.35,-7.27,4.65,4.65,4.65
79.74,13.80,13.80,9.21,9.22,-9.22,-9.23,-7.15,4.58,4.59,4.59
80.54,13.63,13.63,9.11,9.11,-9.11,-9.10,-7.03,4.52,4.52,4.52
81.35,13.45,13.45,8.99,9.00,-9.00,-8.98,-6.91,4.45,4.45,4.46
82.16,13.27,13.27,8.88,8.88,-8.89,-8.85,-6.80,4.38,4.39,4.39
82.98,13.09,13.09,8.77,8.77,-8.77,-8.72,-6.69,4.32,4.32,4.32
83.81,12.91,12.91,8.66,8.66,-8.65,-8.59,-6.59,4.25,4.25,4.25
84.65,12.72,12.72,8.54,8.54,-8.54,-8.46,-6.49,4.18,4.19,4.18
85.50,12.54,12.54,8.42,8.42,-8.42,-8.33,-6.40,4.12,4.12,4.12
86.35,12.34,12.34,8.29,8.30,-8.30,-8.20,-6.31,4.04,4.05,4.05
87.22,12.15,12.15,8.18,8.17,-8.17,-8.07,-6.22,3.98,3.98,3.97
88.09,11.95,11.95,8.04,8.04,-8.05,-7.94,-6.14,3.90,3.90,3.91
88.97,11.75,11.75,7.92,7.92,-7.92,-7.82,-6.07,3.83,3.83,3.83
89.86,11.55,11.55,7.79,7.79,-7.79,-7.69,-5.99,3.76,3.76,3.76
90.76,11.35,11.35,7.67,7.66,-7.66,-7.57,-5.93,3.69,3.69,3.68
91.66,11.14,11.14,7.53,7.53,-7.53,-7.45,-5.86,3.61,3.61,3.61
92.58,10.93,10.93,7.40,7.40,-7.40,-7.33,-5.80,3.53,3.53,3.53
93.51,10.73,10.73,7.28,7.27,-7.27,-7.21,-5.75,3.46,3.45,3.45
94.44,10.52,10.52,7.15,7.15,-7.15,-7.10,-5.70,3.37,3.37,3.37
95.39,10.31,10.31,7.02,7.03,-7.02,-6.98,-5.65,3.29,3.29,3.29
96.34,10.11,10.11,6.91,6.90,-6.91,-6.87,-5.61,3.20,3.20,3.20
97.30,9.91,9.91,6.79,6.79,-6.79,-6.76,-5.57,3.12,3.12,3.12
98.28,9.71,9.71,6.68,6.68,-6.68,-6.66,-5.53,3.03,3.03,3.03
99.26,9.52,9.52,6.58,6.58,-6.58,-6.55,-5.50,2.94,2.94,2.94
100.25,9.34,9.34,6.48,6.48,-6.48,-6.45,-5.47,2.86,2.86,2.86
101.25,9.16,9.16,6.39,6.39,-6.39,-6.35,-5.45,2.77,2.77,2.77
102.27,8.99,8.99,6.31,6.31,-6.31,-6.26,-5.42,2.68,2.68,2.68
103.29,8.83,8.83,6.23,6.23,-6.24,-6.16,-5.40,2.59,2.59,2.60
104.32,8.68,8.68,6.17,6.17,-6.17,-6.07,-5.38,2.50,2.51,2.51
105.37,8.54,8.54,6.11,6.11,-6.12,-5.98,-5.37,2.42,2.42,2.43
106.42,8.41,8.41,6.07,6.07,-6.07,-5.89,-5.35,2.34,2.34,2.34
107.48,8.28,8.28,6.02,6.02,-6.02,-5.80,-5.34,2.26,2.26,2.26
108.56,8.16,8.16,5.99,5.98,-5.98,-5.72,-5.32,2.18,2.18,2.17
109.64,8.04,8.04,5.94,5.94,-5.94,-5.64,-5.31,2.10,2.10,2.10
110.74,7.92,7.92,5.90,5.90,-5.90,-5.56,-5.30,2.02,2.02,2.02
111.85,7.79,7.79,5.86,5.86,-5.85,-5.48,-5.29,1.94,1.94,1.93
112.97,7.66,7.66,5.81,5.81,-5.81,-5.41,-5.27,1.85,1.85,1.85
114.10,7.53,7.53,5.76,5.77,-5.77,-5.33,-5.26,1.77,1.77,1.77
115.24,7.40,7.40,5.72,5.72,-5.72,-5.26,-5.24,1.68,1.68,1.68
116.39,7.26,7.26,5.67,5.67,-5.67,-5.19,-5.23,1.59,1.59,1.59
117.55,7.12,7.12,5.61,5.61,-5.62,-5.12,-5.21,1.50,1.50,1.51
118.73,6.98,6.98,5.56,5.56,-5.57,-5.05,-5.19,1.41,1.42,1.42
119.92,6.84,6.84,5.51,5.51,-5.51,-4.98,-5.16,1.33,1.33,1.33
121.12,6.69,6.69,5.45,5.45,-5.44,-4.92,-5.14,1.25,1.24,1.24
122.33,6.53,6.53,5.38,5.38,-5.38,-4.86,-5.11,1.15,1.15,1.15
123.55,6.36,6.36,5.30,5.30,-5.30,-4.80,-5.08,1.06,1.06,1.06
124.79,6.19,6.19,5.22,5.22,-5.22,-4.74,-5.04,0.97,0.97,0.97
126.03,6.01,6.01,5.13,5.13,-5.13,-4.68,-5.01,0.88,0.88,0.88
127.29,5.83,5.83,5.04,5.04,-5.04,-4.62,-4.97,0.79,0.79,0.79
128.57,5.64,5.64,4.94,4.94,-4.94,-4.56,-4.92,0.70,0.70,0.70
129.85,5.45,5.45,4.83,4.83,-4.83,-4.51,-4.87,0.62,0.62,0.62
131.15,5.25,5.25,4.72,4.72,-4.71,-4.46,-4.83,0.54,0.54,0.53
132.46,5.05,5.05,4.60,4.59,-4.59,-4.40,-4.77,0.46,0.46,0.45
133.79,4.84,4.84,4.46,4.47,-4.46,-4.35,-4.72,0.38,0.38,0.38
135.12,4.64,4.64,4.34,4.34,-4.33,-4.30,-4.66,0.31,0.31,0.30
136.48,4.43,4.43,4.20,4.20,-4.20,-4.25,-4.60,0.23,0.23,0.23
137.84,4.22,4.22,4.06,4.06,-4.06,-4.21,-4.54,0.16,0.16,0.16
139.22,4.01,4.01,3.92,3.92,-3.92,-4.16,-4.48,0.09,0.09,0.09
140.61,3.81,3.81,3.78,3.79,-3.79,-4.11,-4.41,0.02,0.02,0.03
142.02,3.62,3.62,3.66,3.66,-3.66,-4.07,-4.35,-0.04,-0.04,-0.04
143.44,3.43,3.43,3.53,3.54,-3.54,-4.02,-4.28,-0.11,-0.11,-0.10
144.87,3.25,3.25,3.42,3.42,-3.42,-3.98,-4.21,-0.17,-0.17,-0.17
146.32,3.09,3.09,3.32,3.32,-3.32,-3.94,-4.15,-0.23,-0.23,-0.23
147.78,2.93,2.93,3.22,3.22,-3.22,-3.89,-4.08,-0.29,-0.30,-0.29
149.26,2.78,2.78,3.13,3.13,-3.14,-3.85,-4.01,-0.36,-0.36,-0.35
150.75,2.65,2.65,3.06,3.06,-3.07,-3.81,-3.95,-0.42,-0.42,-0.41
152.26,2.54,2.54,3.01,3.01,-3.01,-3.77,-3.88,-0.47,-0.47,-0.47
153.78,2.44,2.44,2.96,2.96,-2.96,-3.73,-3.82,-0.52,-0.52,-0.52
155.32,2.34,2.35,2.92,2.92,-2.92,-3.70,-3.76,-0.58,-0.58,-0.58
156.88,2.26,2.26,2.89,2.89,-2.89,-3.66,-3.70,-0.63,-0.63,-0.63
158.44,2.19,2.18,2.88,2.87,-2.87,-3.62,-3.64,-0.68,-0.69,-0.69
160.03,2.11,2.11,2.85,2.86,-2.86,-3.59,-3.58,-0.75,-0.74,-0.74
161.63,2.05,2.05,2.85,2.85,-2.85,-3.55,-3.52,-0.80,-0.80,-0.80
163.24,1.99,1.99,2.85,2.85,-2.84,-3.52,-3.47,-0.85,-0.85,-0.86
164.88,1.94,1.94,2.85,2.85,-2.84,-3.48,-3.42,-0.90,-0.90,-0.91
166.53,1.89,1.89,2.84,2.84,-2.84,-3.45,-3.37,-0.95,-0.95,-0.95
168.19,1.84,1.84,2.84,2.84,-2.84,-3.41,-3.32,-1.00,-1.00,-1.00
169.87,1.79,1.79,2.83,2.84,-2.84,-3.38,-3.27,-1.05,-1.05,-1.05
171.57,1.74,1.74,2.84,2.84,-2.84,-3.35,-3.23,-1.10,-1.09,-1.10
173.29,1.70,1.70,2.84,2.84,-2.83,-3.32,-3.19,-1.13,-1.14,-1.14
175.02,1.65,1.65,2.83,2.83,-2.83,-3.28,-3.15,-1.18,-1.18,-1.18
176.77,1.60,1.60,2.82,2.83,-2.82,-3.25,-3.11,-1.22,-1.22,-1.22
178.54,1.55,1.55,2.81,2.82,-2.82,-3.22,-3.08,-1.27,-1.26,-1.26
180.32,1.51,1.51,2.81,2.81,-2.81,-3.19,-3.05,-1.30,-1.30,-1.30
182.13,1.46,1.46,2.80,2.80,-2.80,-3.16,-3.02,-1.34,-1.34,-1.34
183.95,1.42,1.42,2.80,2.80,-2.80,-3.13,-2.99,-1.38,-1.38,-1.38
185.79,1.38,1.38,2.79,2.79,-2.79,-3.11,-2.97,-1.41,-1.41,-1.41
187.65,1.34,1.34,2.78,2.79,-2.79,-3.08,-2.94,-1.45,-1.45,-1.45
189.52,1.30,1.30,2.78,2.78,-2.78,-3.05,-2.92,-1.48,-1.48,-1.48
191.42,1.26,1.26,2.78,2.78,-2.77,-3.02,-2.90,-1.51,-1.51,-1.52
193.33,1.22,1.22,2.77,2.77,-2.76,-2.99,-2.89,-1.55,-1.55,-1.55
195.27,1.17,1.17,2.75,2.76,-2.75,-2.97,-2.87,-1.58,-1.58,-1.58
197.22,1.13,1.13,2.74,2.74,-2.74,-2.94,-2.86,-1.61,-1.61,-1.61
199.19,1.08,1.08,2.72,2.72,-2.72,-2.91,-2.84,-1.64,-1.64,-1.64
201.18,1.03,1.03,2.70,2.70,-2.70,-2.89,-2.83,-1.67,-1.67,-1.67
203.19,0.98,0.98,2.68,2.68,-2.68,-2.86,-2.82,-1.70,-1.70,-1.70
205.23,0.93,0.93,2.65,2.65,-2.65,-2.84,-2.82,-1.72,-1.72,-1.72
207.28,0.88,0.88,2.63,2.63,-2.63,-2.81,-2.81,-1.75,-1.75,-1.75
209.35,0.83,0.83,2.60,2.60,-2.60,-2.79,-2.80,-1.77,-1.77,-1.77
211.44,0.77,0.77,2.57,2.57,-2.57,-2.76,-2.80,-1.80,-1.80,-1.80
213.56,0.72,0.72,2.55,2.55,-2.55,-2.74,-2.79,-1.83,-1.83,-1.83
215.69,0.67,0.67,2.52,2.52,-2.52,-2.71,-2.79,-1.85,-1.85,-1.85
217.85,0.62,0.62,2.49,2.49,-2.49,-2.69,-2.79,-1.87,-1.87,-1.87
220.03,0.57,0.57,2.46,2.47,-2.47,-2.67,-2.78,-1.90,-1.89,-1.89
222.23,0.53,0.53,2.44,2.44,-2.44,-2.64,-2.78,-1.91,-1.92,-1.92
224.45,0.49,0.49,2.42,2.42,-2.42,-2.62,-2.78,-1.93,-1.93,-1.93
226.70,0.44,0.45,2.39,2.40,-2.40,-2.60,-2.77,-1.96,-1.95,-1.95
228.96,0.41,0.41,2.38,2.38,-2.38,-2.58,-2.77,-1.97,-1.98,-1.97
231.25,0.37,0.37,2.36,2.36,-2.36,-2.55,-2.76,-1.99,-2.00,-1.99
233.57,0.33,0.33,2.34,2.35,-2.35,-2.53,-2.76,-2.02,-2.02,-2.01
235.90,0.30,0.30,2.34,2.34,-2.34,-2.51,-2.75,-2.04,-2.04,-2.04
238.26,0.27,0.27,2.33,2.33,-2.32,-2.49,-2.74,-2.05,-2.05,-2.06
240.64,0.24,0.24,2.32,2.32,-2.31,-2.47,-2.73,-2.07,-2.07,-2.08
243.05,0.21,0.21,2.30,2.30,-2.30,-2.44,-2.72,-2.09,-2.09,-2.09
245.48,0.19,0.19,2.29,2.29,-2.29,-2.42,-2.70,-2.10,-2.11,-2.10
247.93,0.16,0.16,2.28,2.28,-2.28,-2.40,-2.69,-2.12,-2.12,-2.12
250.41,0.14,0.14,2.27,2.27,-2.27,-2.38,-2.67,-2.14,-2.13,-2.13
252.92,0.12,0.12,2.27,2.27,-2.27,-2.36,-2.65,-2.15,-2.15,-2.15
255.45,0.11,0.11,2.27,2.26,-2.26,-2.34,-2.63,-2.15,-2.16,-2.16
258.00,0.09,0.09,2.26,2.26,-2.26,-2.32,-2.61,-2.17,-2.17,-2.17
260.58,0.08,0.08,2.26,2.26,-2.26,-2.30,-2.58,-2.18,-2.18,-2.18
263.19,0.06,0.06,2.26,2.26,-2.26,-2.28,-2.55,-2.20,-2.20,-2.20
265.82,0.05,0.05,2.26,2.27,-2.27,-2.26,-2.53,-2.22,-2.22,-2.21
268.48,0.04,0.04,2.26,2.27,-2.27,-2.24,-2.50,-2.23,-2.23,-2.22
271.16,0.04,0.04,2.28,2.28,-2.28,-2.22,-2.47,-2.24,-2.24,-2.25
273.87,0.03,0.03,2.28,2.29,-2.29,-2.20,-2.43,-2.26,-2.26,-2.25
276.61,0.02,0.02,2.29,2.30,-2.29,-2.18,-2.40,-2.27,-2.27,-2.27
279.38,0.02,0.02,2.30,2.30,-2.30,-2.17,-2.37,-2.28,-2.28,-2.28
282.17,0.02,0.02,2.32,2.31,-2.31,-2.15,-2.33,-2.29,-2.29,-2.30
284.99,0.01,0.01,2.31,2.32,-2.32,-2.13,-2.30,-2.31,-2.31,-2.30
287.84,0.01,0.01,2.32,2.32,-2.33,-2.11,-2.26,-2.32,-2.32,-2.31
290.72,0.01,0.01,2.34,2.34,-2.34,-2.09,-2.22,-2.33,-2.32,-2.33
293.63,0.02,0.02,2.35,2.35,-2.35,-2.07,-2.19,-2.33,-2.33,-2.33
296.57,0.02,0.02,2.36,2.36,-2.36,-2.05,-2.15,-2.34,-2.34,-2.34
299.53,0.02,0.02,2.36,2.37,-2.37,-2.04,-2.12,-2.35,-2.34,-2.34
302.53,0.03,0.03,2.39,2.38,-2.38,-2.02,-2.08,-2.35,-2.35,-2.36
305.55,0.04,0.04,2.39,2.39,-2.40,-2.00,-2.05,-2.36,-2.36,-2.35
308.61,0.04,0.05,2.41,2.41,-2.41,-1.98,-2.01,-2.37,-2.36,-2.37
311.69,0.06,0.06,2.43,2.43,-2.43,-1.96,-1.98,-2.37,-2.37,-2.37
314.81,0.07,0.07,2.45,2.44,-2.44,-1.95,-1.94,-2.37,-2.37,-2.38
317.96,0.08,0.08,2.46,2.46,-2.46,-1.93,-1.91,-2.38,-2.38,-2.38
321.14,0.10,0.10,2.48,2.48,-2.48,-1.91,-1.88,-2.38,-2.38,-2.38
324.35,0.11,0.11,2.50,2.50,-2.50,-1.89,-1.85,-2.39,-2.39,-2.39
327.59,0.13,0.13,2.51,2.52,-2.52,-1.87,-1.82,-2.39,-2.39,-2.38
330.87,0.15,0.15,2.54,2.54,-2.54,-1.86,-1.79,-2.39,-2.39,-2.39
334.18,0.17,0.17,2.56,2.57,-2.57,-1.84,-1.76,-2.40,-2.39,-2.39
337.52,0.20,0.20,2.60,2.59,-2.59,-1.82,-1.74,-2.39,-2.39,-2.40
340.90,0.22,0.22,2.62,2.62,-2.62,-1.81,-1.71,-2.40,-2.40,-2.40
344.30,0.24,0.24,2.64,2.64,-2.64,-1.79,-1.69,-2.40,-2.40,-2.40
347.75,0.27,0.27,2.66,2.66,-2.67,-1.77,-1.66,-2.40,-2.40,-2.39
351.23,0.29,0.29,2.69,2.69,-2.69,-1.75,-1.64,-2.40,-2.40,-2.40
354.74,0.31,0.31,2.70,2.71,-2.71,-1.74,-1.62,-2.40,-2.40,-2.39
358.28,0.33,0.33,2.73,2.72,-2.72,-1.72,-1.60,-2.39,-2.40,-2.40
361.87,0.34,0.34,2.73,2.74,-2.74,-1.70,-1.58,-2.40,-2.40,-2.39
365.49,0.35,0.35,2.75,2.75,-2.75,-1.68,-1.57,-2.40,-2.40,-2.40
369.14,0.35,0.35,2.75,2.75,-2.75,-1.67,-1.55,-2.40,-2.40,-2.40
372.83,0.35,0.35,2.74,2.75,-2.75,-1.65,-1.53,-2.40,-2.40,-2.39
376.56,0.34,0.34,2.74,2.74,-2.74,-1.63,-1.52,-2.40,-2.40,-2.40
380.33,0.32,0.32,2.72,2.72,-2.72,-1.62,-1.51,-2.40,-2.40,-2.40
384.13,0.29,0.29,2.70,2.70,-2.69,-1.60,-1.50,-2.40,-2.40,-2.41
387.97,0.26,0.26,2.67,2.66,-2.66,-1.58,-1.49,-2.40,-2.40,-2.41
391.85,0.22,0.22,2.62,2.62,-2.62,-1.56,-1.48,-2.40,-2.40,-2.40
395.77,0.16,0.17,2.56,2.57,-2.57,-1.55,-1.47,-2.41,-2.40,-2.40
399.73,0.11,0.11,2.51,2.51,-2.51,-1.53,-1.46,-2.40,-2.40,-2.40
403.72,0.05,0.05,2.46,2.45,-2.45,-1.51,-1.45,-2.40,-2.41,-2.41
407.76,-0.02,-0.02,2.39,2.39,-2.39,-1.49,-1.45,-2.41,-2.41,-2.41
411.84,-0.09,-0.09,2.32,2.32,-2.32,-1.48,-1.44,-2.41,-2.41,-2.41
415.96,-0.16,-0.16,2.24,2.25,-2.25,-1.46,-1.43,-2.41,-2.41,-2.40
420.12,-0.23,-0.23,2.18,2.18,-2.18,-1.44,-1.43,-2.41,-2.41,-2.42
424.32,-0.31,-0.31,2.11,2.11,-2.11,-1.42,-1.42,-2.42,-2.42,-2.42
428.56,-0.38,-0.38,2.04,2.04,-2.04,-1.40,-1.42,-2.42,-2.42,-2.42
432.85,-0.46,-0.46,1.96,1.97,-1.97,-1.39,-1.41,-2.43,-2.42,-2.42
437.18,-0.53,-0.53,1.90,1.90,-1.89,-1.37,-1.41,-2.42,-2.43,-2.43
441.55,-0.61,-0.61,1.82,1.82,-1.82,-1.35,-1.40,-2.43,-2.43,-2.43
445.96,-0.68,-0.68,1.76,1.75,-1.75,-1.33,-1.40,-2.43,-2.43,-2.44
450.42,-0.75,-0.75,1.68,1.68,-1.69,-1.31,-1.39,-2.44,-2.44,-2.43
454.93,-0.81,-0.81,1.62,1.62,-1.62,-1.29,-1.39,-2.43,-2.44,-2.43
459.48,-0.88,-0.88,1.55,1.56,-1.56,-1.28,-1.38,-2.44,-2.44,-2.43
464.07,-0.94,-0.94,1.50,1.50,-1.50,-1.26,-1.37,-2.44,-2.44,-2.44
468.71,-1.00,-1.00,1.44,1.44,-1.44,-1.24,-1.37,-2.44,-2.44,-2.44
473.40,-1.06,-1.06,1.38,1.39,-1.38,-1.22,-1.36,-2.44,-2.44,-2.44
478.13,-1.12,-1.12,1.33,1.33,-1.33,-1.20,-1.35,-2.45,-2.44,-2.45
482.91,-1.17,-1.17,1.28,1.27,-1.27,-1.18,-1.34,-2.44,-2.44,-2.45
487.74,-1.23,-1.23,1.21,1.21,-1.22,-1.16,-1.33,-2.45,-2.44,-2.44
492.62,-1.28,-1.28,1.16,1.16,-1.16,-1.14,-1.31,-2.44,-2.44,-2.44
497.55,-1.33,-1.33,1.11,1.11,-1.11,-1.12,-1.30,-2.44,-2.44,-2.44
