frequency,raw,error,smoothed,error_smoothed,equalization,parametric_eq,equalized_raw,equalized_smoothed,target
20,-3.36,-3.97,-3.26,-3.84,3.84,0.90,0.48,0.58,0.61
21,-3.03,-3.63,-3.03,-3.61,3.61,1.04,0.58,0.58,0.60
22,-2.76,-3.36,-2.80,-3.39,3.39,1.19,0.63,0.58,0.60
23,-2.55,-3.14,-2.59,-3.17,3.17,1.36,0.62,0.58,0.59
24,-2.36,-2.95,-2.39,-2.97,2.97,1.53,0.61,0.58,0.59
25,-2.17,-2.75,-2.20,-2.78,2.78,1.70,0.61,0.58,0.58
26,-1.97,-2.55,-2.02,-2.60,2.60,1.87,0.63,0.57,0.58
27,-1.88,-2.45,-1.86,-2.43,2.43,2.03,0.54,0.57,0.57
28,-1.68,-2.24,-1.70,-2.26,2.26,2.17,0.58,0.56,0.56
29,-1.59,-2.15,-1.55,-2.11,2.11,2.27,0.52,0.56,0.56
30,-1.39,-1.94,-1.42,-1.97,1.97,2.33,0.58,0.55,0.55
31,-1.30,-1.84,-1.31,-1.84,1.84,2.35,0.54,0.54,0.54
32,-1.21,-1.74,-1.20,-1.73,1.73,2.34,0.52,0.53,0.53
33,-1.10,-1.62,-1.11,-1.63,1.63,2.29,0.52,0.52,0.52
34,-1.01,-1.52,-1.03,-1.53,1.53,2.21,0.52,0.50,0.51
35,-0.91,-1.41,-0.95,-1.44,1.44,2.11,0.53,0.49,0.50
36,-0.91,-1.40,-0.87,-1.35,1.35,1.99,0.44,0.48,0.49
37,-0.82,-1.30,-0.80,-1.28,1.28,1.87,0.46,0.47,0.48
38,-0.73,-1.19,-0.75,-1.21,1.21,1.75,0.47,0.46,0.46
39,-0.72,-1.17,-0.69,-1.14,1.14,1.62,0.42,0.45,0.45
40,-0.62,-1.06,-0.65,-1.08,1.08,1.50,0.46,0.43,0.44
41,-0.62,-1.04,-0.60,-1.02,1.02,1.39,0.40,0.42,0.42
42,-0.62,-1.03,-0.56,-0.97,0.97,1.28,0.34,0.40,0.41
43,-0.53,-0.92,-0.53,-0.91,0.91,1.18,0.38,0.38,0.39
44,-0.43,-0.81,-0.50,-0.86,0.86,1.09,0.43,0.37,0.38
45,-0.43,-0.79,-0.47,-0.82,0.82,1.00,0.39,0.35,0.36
46,-0.43,-0.77,-0.44,-0.77,0.77,0.91,0.34,0.34,0.34
47,-0.43,-0.75,-0.41,-0.73,0.73,0.84,0.30,0.32,0.32
48,-0.43,-0.73,-0.39,-0.69,0.69,0.76,0.26,0.30,0.30
49,-0.43,-0.71,-0.38,-0.66,0.66,0.70,0.23,0.28,0.28
50,-0.33,-0.59,-0.36,-0.62,0.62,0.63,0.29,0.26,0.26
51,-0.33,-0.57,-0.35,-0.59,0.59,0.58,0.26,0.24,0.24
52,-0.33,-0.55,-0.34,-0.56,0.56,0.52,0.23,0.22,0.22
53,-0.33,-0.53,-0.34,-0.53,0.53,0.47,0.20,0.19,0.19
54,-0.33,-0.50,-0.34,-0.50,0.50,0.42,0.17,0.16,0.17
55,-0.33,-0.48,-0.33,-0.47,0.47,0.38,0.14,0.14,0.15
56,-0.33,-0.45,-0.33,-0.44,0.44,0.33,0.11,0.12,0.12
57,-0.33,-0.43,-0.32,-0.42,0.42,0.29,0.09,0.10,0.10
58,-0.33,-0.40,-0.32,-0.39,0.39,0.26,0.06,0.07,0.07
59,-0.33,-0.37,-0.33,-0.37,0.37,0.22,0.04,0.04,0.04
60,-0.33,-0.35,-0.33,-0.34,0.34,0.19,0.01,0.01,0.01
61,-0.33,-0.32,-0.33,-0.31,0.31,0.16,-0.02,-0.02,-0.01
62,-0.33,-0.29,-0.33,-0.29,0.29,0.13,-0.05,-0.05,-0.04
63,-0.33,-0.26,-0.33,-0.26,0.26,0.10,-0.07,-0.07,-0.07
64,-0.33,-0.23,-0.33,-0.23,0.23,0.08,-0.10,-0.10,-0.10
65,-0.33,-0.20,-0.33,-0.20,0.20,0.06,-0.13,-0.13,-0.13
66,-0.33,-0.17,-0.33,-0.17,0.17,0.04,-0.17,-0.17,-0.17
67,-0.33,-0.13,-0.33,-0.13,0.13,0.02,-0.20,-0.20,-0.20
68,-0.33,-0.10,-0.33,-0.10,0.10,-0.00,-0.23,-0.23,-0.23
69,-0.33,-0.07,-0.33,-0.06,0.06,-0.02,-0.27,-0.27,-0.26
70,-0.33,-0.03,-0.33,-0.03,0.03,-0.04,-0.30,-0.30,-0.30
71,-0.33,-0.00,-0.33,0.01,-0.01,-0.06,-0.34,-0.33,-0.33
72,-0.33,0.03,-0.32,0.04,-0.04,-0.07,-0.37,-0.37,-0.36
73,-0.33,0.07,-0.32,0.08,-0.08,-0.09,-0.41,-0.40,-0.40
74,-0.33,0.10,-0.32,0.11,-0.11,-0.10,-0.44,-0.44,-0.43
75,-0.33,0.14,-0.32,0.14,-0.14,-0.12,-0.48,-0.47,-0.47
76,-0.33,0.17,-0.33,0.17,-0.17,-0.13,-0.50,-0.50,-0.50
77,-0.33,0.21,-0.34,0.20,-0.20,-0.15,-0.53,-0.54,-0.54
78,-0.33,0.24,-0.35,0.23,-0.23,-0.16,-0.56,-0.58,-0.57
79,-0.33,0.28,-0.37,0.25,-0.25,-0.18,-0.58,-0.62,-0.61
80,-0.33,0.32,-0.39,0.27,-0.27,-0.19,-0.60,-0.65,-0.65
81,-0.42,0.26,-0.41,0.29,-0.29,-0.21,-0.71,-0.69,-0.68
82,-0.45,0.27,-0.43,0.30,-0.30,-0.23,-0.75,-0.73,-0.72
83,-0.41,0.34,-0.45,0.32,-0.32,-0.24,-0.73,-0.77,-0.76
84,-0.48,0.31,-0.46,0.34,-0.34,-0.26,-0.82,-0.81,-0.79
85,-0.53,0.30,-0.48,0.36,-0.36,-0.27,-0.89,-0.85,-0.83
86,-0.53,0.33,-0.49,0.39,-0.39,-0.29,-0.92,-0.88,-0.86
87,-0.53,0.37,-0.50,0.41,-0.41,-0.30,-0.94,-0.92,-0.90
88,-0.53,0.41,-0.51,0.44,-0.44,-0.32,-0.97,-0.95,-0.94
89,-0.52,0.45,-0.52,0.47,-0.47,-0.34,-0.99,-0.98,-0.97
90,-0.52,0.49,-0.52,0.49,-0.49,-0.35,-1.02,-1.02,-1.01
91,-0.52,0.52,-0.53,0.52,-0.52,-0.37,-1.04,-1.05,-1.04
92,-0.52,0.56,-0.54,0.55,-0.55,-0.39,-1.07,-1.09,-1.08
93,-0.52,0.60,-0.56,0.57,-0.57,-0.41,-1.09,-1.13,-1.12
94,-0.52,0.63,-0.57,0.59,-0.59,-0.42,-1.11,-1.16,-1.15
95,-0.52,0.67,-0.59,0.61,-0.61,-0.44,-1.13,-1.19,-1.19
96,-0.63,0.59,-0.61,0.62,-0.62,-0.46,-1.25,-1.23,-1.22
97,-0.63,0.62,-0.63,0.63,-0.63,-0.48,-1.26,-1.26,-1.26
98,-0.70,0.59,-0.66,0.64,-0.64,-0.49,-1.34,-1.30,-1.29
99,-0.74,0.58,-0.69,0.65,-0.65,-0.51,-1.39,-1.34,-1.32
100,-0.76,0.60,-0.73,0.65,-0.65,-0.53,-1.41,-1.38,-1.36
101,-0.77,0.62,-0.76,0.65,-0.65,-0.55,-1.42,-1.41,-1.39
102,-0.79,0.63,-0.80,0.65,-0.65,-0.56,-1.44,-1.45,-1.42
104,-0.82,0.67,-0.84,0.65,-0.65,-0.60,-1.47,-1.48,-1.49
105,-0.84,0.68,-0.88,0.65,-0.65,-0.61,-1.49,-1.52,-1.52
106,-0.86,0.69,-0.91,0.64,-0.64,-0.63,-1.50,-1.55,-1.55
107,-0.92,0.66,-0.94,0.64,-0.64,-0.64,-1.56,-1.58,-1.58
108,-1.03,0.58,-0.98,0.63,-0.63,-0.66,-1.67,-1.61,-1.61
109,-1.05,0.59,-1.02,0.63,-0.63,-0.67,-1.68,-1.65,-1.64
110,-1.03,0.64,-1.06,0.62,-0.62,-0.69,-1.66,-1.68,-1.67
111,-1.06,0.64,-1.09,0.62,-0.62,-0.70,-1.68,-1.71,-1.70
112,-1.17,0.56,-1.13,0.62,-0.62,-0.71,-1.79,-1.74,-1.73
113,-1.18,0.58,-1.16,0.61,-0.61,-0.72,-1.80,-1.77,-1.76
114,-1.19,0.59,-1.19,0.61,-0.61,-0.73,-1.80,-1.80,-1.78
115,-1.19,0.62,-1.21,0.62,-0.62,-0.74,-1.81,-1.83,-1.81
117,-1.25,0.61,-1.23,0.62,-0.62,-0.76,-1.87,-1.85,-1.86
118,-1.30,0.58,-1.25,0.62,-0.62,-0.77,-1.92,-1.87,-1.88
119,-1.29,0.61,-1.27,0.63,-0.63,-0.77,-1.92,-1.89,-1.90
120,-1.25,0.66,-1.29,0.63,-0.63,-0.78,-1.88,-1.92,-1.91
121,-1.25,0.68,-1.32,0.63,-0.63,-0.78,-1.88,-1.95,-1.93
123,-1.35,0.62,-1.34,0.63,-0.63,-0.78,-1.98,-1.97,-1.97
124,-1.34,0.64,-1.35,0.63,-0.63,-0.78,-1.98,-1.99,-1.98
125,-1.34,0.66,-1.37,0.64,-0.64,-0.78,-1.98,-2.01,-2.00
126,-1.36,0.65,-1.39,0.64,-0.64,-0.78,-2.00,-2.03,-2.01
128,-1.44,0.60,-1.41,0.63,-0.63,-0.78,-2.07,-2.05,-2.04
129,-1.50,0.56,-1.43,0.63,-0.63,-0.77,-2.13,-2.06,-2.06
130,-1.50,0.57,-1.45,0.62,-0.62,-0.77,-2.12,-2.08,-2.07
131,-1.50,0.58,-1.48,0.62,-0.62,-0.76,-2.12,-2.10,-2.08
133,-1.49,0.62,-1.52,0.61,-0.61,-0.74,-2.10,-2.12,-2.11
134,-1.49,0.64,-1.54,0.60,-0.60,-0.74,-2.09,-2.14,-2.13
135,-1.51,0.63,-1.57,0.59,-0.59,-0.73,-2.10,-2.16,-2.14
137,-1.58,0.59,-1.60,0.58,-0.58,-0.71,-2.16,-2.18,-2.17
138,-1.60,0.59,-1.63,0.58,-0.58,-0.70,-2.18,-2.20,-2.19
140,-1.67,0.55,-1.65,0.57,-0.57,-0.67,-2.24,-2.22,-2.22
141,-1.68,0.55,-1.67,0.57,-0.57,-0.66,-2.25,-2.24,-2.23
142,-1.74,0.51,-1.70,0.56,-0.56,-0.65,-2.30,-2.26,-2.25
144,-1.76,0.52,-1.72,0.56,-0.56,-0.62,-2.32,-2.28,-2.28
145,-1.76,0.53,-1.74,0.57,-0.57,-0.61,-2.33,-2.31,-2.29
147,-1.76,0.56,-1.76,0.57,-0.57,-0.58,-2.33,-2.33,-2.32
148,-1.76,0.57,-1.77,0.58,-0.58,-0.57,-2.34,-2.35,-2.33
150,-1.77,0.59,-1.77,0.60,-0.60,-0.54,-2.37,-2.36,-2.36
151,-1.77,0.60,-1.76,0.61,-0.61,-0.53,-2.38,-2.38,-2.37
153,-1.76,0.63,-1.76,0.63,-0.63,-0.50,-2.39,-2.40,-2.39
154,-1.76,0.64,-1.76,0.65,-0.65,-0.49,-2.41,-2.41,-2.40
156,-1.76,0.67,-1.75,0.67,-0.67,-0.46,-2.43,-2.43,-2.43
157,-1.76,0.68,-1.75,0.69,-0.69,-0.45,-2.45,-2.44,-2.44
159,-1.76,0.70,-1.75,0.70,-0.70,-0.42,-2.46,-2.46,-2.46
160,-1.76,0.71,-1.77,0.71,-0.71,-0.41,-2.47,-2.47,-2.47
162,-1.76,0.73,-1.79,0.70,-0.70,-0.38,-2.46,-2.49,-2.49
164,-1.81,0.70,-1.82,0.69,-0.69,-0.35,-2.50,-2.51,-2.51
165,-1.87,0.65,-1.86,0.66,-0.66,-0.34,-2.53,-2.53,-2.52
167,-1.87,0.68,-1.92,0.63,-0.63,-0.31,-2.50,-2.55,-2.55
169,-1.90,0.67,-1.99,0.59,-0.59,-0.29,-2.49,-2.57,-2.57
170,-1.98,0.60,-2.06,0.54,-0.54,-0.28,-2.52,-2.59,-2.58
172,-2.11,0.49,-2.13,0.48,-0.48,-0.25,-2.59,-2.61,-2.60
174,-2.22,0.40,-2.21,0.42,-0.42,-0.23,-2.64,-2.63,-2.62
175,-2.32,0.31,-2.29,0.36,-0.36,-0.22,-2.68,-2.65,-2.63
177,-2.43,0.21,-2.37,0.30,-0.30,-0.19,-2.73,-2.67,-2.65
179,-2.48,0.18,-2.44,0.25,-0.25,-0.17,-2.73,-2.68,-2.66
181,-2.58,0.09,-2.49,0.20,-0.20,-0.15,-2.78,-2.69,-2.67
183,-2.57,0.10,-2.54,0.15,-0.15,-0.13,-2.73,-2.69,-2.67
184,-2.56,0.11,-2.57,0.12,-0.12,-0.12,-2.68,-2.69,-2.67
186,-2.64,0.03,-2.59,0.09,-0.09,-0.09,-2.73,-2.69,-2.67
188,-2.63,0.03,-2.61,0.07,-0.07,-0.07,-2.70,-2.68,-2.66
190,-2.62,0.04,-2.62,0.06,-0.06,-0.05,-2.68,-2.67,-2.66
192,-2.60,0.05,-2.62,0.04,-0.04,-0.03,-2.65,-2.67,-2.65
194,-2.58,0.07,-2.63,0.03,-0.03,-0.01,-2.61,-2.66,-2.65
196,-2.57,0.07,-2.63,0.02,-0.02,0.01,-2.59,-2.65,-2.64
198,-2.56,0.08,-2.63,0.01,-0.01,0.02,-2.57,-2.64,-2.64
200,-2.61,0.03,-2.64,0.00,-0.00,0.04,-2.61,-2.64,-2.64
202,-2.64,-0.00,-2.65,-0.01,0.01,0.06,-2.63,-2.65,-2.64
204,-2.73,-0.09,-2.67,-0.02,0.02,0.08,-2.71,-2.65,-2.64
206,-2.73,-0.09,-2.69,-0.04,0.04,0.10,-2.70,-2.65,-2.64
208,-2.73,-0.08,-2.71,-0.05,0.05,0.11,-2.68,-2.66,-2.65
210,-2.73,-0.07,-2.74,-0.06,0.06,0.13,-2.67,-2.67,-2.66
212,-2.73,-0.06,-2.76,-0.08,0.08,0.14,-2.66,-2.69,-2.67
214,-2.74,-0.06,-2.78,-0.08,0.08,0.16,-2.66,-2.70,-2.68
216,-2.81,-0.12,-2.79,-0.09,0.09,0.18,-2.72,-2.70,-2.69
218,-2.84,-0.14,-2.80,-0.10,0.10,0.19,-2.74,-2.70,-2.70
221,-2.84,-0.13,-2.81,-0.10,0.10,0.21,-2.74,-2.71,-2.71
223,-2.84,-0.12,-2.82,-0.11,0.11,0.23,-2.73,-2.72,-2.72
225,-2.85,-0.13,-2.84,-0.12,0.12,0.24,-2.74,-2.72,-2.72
227,-2.84,-0.12,-2.85,-0.13,0.13,0.25,-2.72,-2.72,-2.72
229,-2.84,-0.12,-2.86,-0.14,0.14,0.26,-2.70,-2.72,-2.72
232,-2.83,-0.11,-2.88,-0.15,0.15,0.28,-2.68,-2.73,-2.72
234,-2.82,-0.11,-2.89,-0.17,0.17,0.29,-2.66,-2.72,-2.72
236,-2.83,-0.12,-2.89,-0.19,0.19,0.30,-2.65,-2.71,-2.71
239,-3.00,-0.30,-2.90,-0.21,0.21,0.32,-2.79,-2.70,-2.70
241,-2.99,-0.31,-2.92,-0.23,0.23,0.33,-2.76,-2.69,-2.68
244,-2.95,-0.28,-2.94,-0.26,0.26,0.34,-2.69,-2.68,-2.67
246,-2.93,-0.27,-2.95,-0.28,0.28,0.35,-2.65,-2.66,-2.66
248,-2.91,-0.27,-2.96,-0.31,0.31,0.36,-2.60,-2.65,-2.64
251,-3.03,-0.40,-2.98,-0.34,0.34,0.37,-2.69,-2.64,-2.63
253,-3.01,-0.39,-3.00,-0.37,0.37,0.38,-2.64,-2.63,-2.62
256,-2.96,-0.35,-3.02,-0.40,0.40,0.39,-2.56,-2.63,-2.61
259,-3.00,-0.40,-3.04,-0.42,0.42,0.40,-2.58,-2.62,-2.60
261,-3.10,-0.50,-3.06,-0.44,0.44,0.41,-2.66,-2.61,-2.60
264,-3.07,-0.47,-3.07,-0.46,0.46,0.41,-2.61,-2.60,-2.60
266,-3.04,-0.44,-3.10,-0.48,0.48,0.42,-2.56,-2.61,-2.60
269,-3.05,-0.45,-3.11,-0.50,0.50,0.43,-2.55,-2.62,-2.60
272,-3.19,-0.59,-3.12,-0.51,0.51,0.43,-2.68,-2.61,-2.60
274,-3.23,-0.63,-3.13,-0.52,0.52,0.44,-2.71,-2.61,-2.60
277,-3.15,-0.55,-3.13,-0.52,0.52,0.45,-2.63,-2.61,-2.61
280,-3.15,-0.55,-3.14,-0.53,0.53,0.45,-2.62,-2.62,-2.61
283,-3.15,-0.55,-3.14,-0.53,0.53,0.46,-2.62,-2.61,-2.60
286,-3.14,-0.54,-3.14,-0.53,0.53,0.46,-2.61,-2.60,-2.60
288,-3.13,-0.54,-3.13,-0.54,0.54,0.47,-2.59,-2.59,-2.59
291,-3.12,-0.54,-3.14,-0.54,0.54,0.47,-2.58,-2.59,-2.59
294,-3.04,-0.46,-3.14,-0.55,0.55,0.48,-2.49,-2.59,-2.58
297,-3.09,-0.52,-3.14,-0.56,0.56,0.49,-2.53,-2.58,-2.57
300,-3.18,-0.62,-3.13,-0.57,0.57,0.49,-2.61,-2.56,-2.56
303,-3.17,-0.62,-3.13,-0.59,0.59,0.50,-2.58,-2.55,-2.55
306,-3.12,-0.58,-3.14,-0.60,0.60,0.51,-2.52,-2.54,-2.54
309,-3.10,-0.57,-3.16,-0.62,0.62,0.51,-2.48,-2.54,-2.53
312,-3.23,-0.71,-3.18,-0.65,0.65,0.52,-2.59,-2.54,-2.52
316,-3.24,-0.72,-3.20,-0.67,0.67,0.53,-2.57,-2.53,-2.52
319,-3.23,-0.72,-3.22,-0.70,0.70,0.54,-2.54,-2.52,-2.52
322,-3.22,-0.71,-3.24,-0.72,0.72,0.54,-2.50,-2.53,-2.51
325,-3.20,-0.69,-3.27,-0.74,0.74,0.55,-2.46,-2.53,-2.51
328,-3.26,-0.75,-3.28,-0.77,0.77,0.56,-2.50,-2.52,-2.51
332,-3.32,-0.81,-3.30,-0.79,0.79,0.57,-2.53,-2.51,-2.51
335,-3.38,-0.87,-3.32,-0.81,0.81,0.58,-2.57,-2.51,-2.51
338,-3.41,-0.90,-3.35,-0.84,0.84,0.59,-2.58,-2.52,-2.52
342,-3.34,-0.82,-3.38,-0.86,0.86,0.61,-2.48,-2.52,-2.52
345,-3.35,-0.84,-3.39,-0.88,0.88,0.62,-2.47,-2.51,-2.52
349,-3.44,-0.93,-3.42,-0.90,0.90,0.63,-2.54,-2.52,-2.51
352,-3.43,-0.92,-3.44,-0.93,0.93,0.64,-2.51,-2.52,-2.51
356,-3.43,-0.92,-3.46,-0.94,0.94,0.66,-2.49,-2.52,-2.51
359,-3.43,-0.93,-3.48,-0.96,0.96,0.67,-2.47,-2.51,-2.50
363,-3.50,-1.00,-3.48,-0.98,0.98,0.69,-2.52,-2.50,-2.50
366,-3.52,-1.03,-3.49,-1.00,1.00,0.70,-2.52,-2.49,-2.49
370,-3.60,-1.12,-3.49,-1.01,1.01,0.71,-2.59,-2.48,-2.48
374,-3.50,-1.03,-3.50,-1.02,1.02,0.73,-2.48,-2.48,-2.47
377,-3.49,-1.02,-3.51,-1.03,1.03,0.75,-2.46,-2.48,-2.47
381,-3.48,-1.02,-3.51,-1.03,1.03,0.76,-2.45,-2.48,-2.46
385,-3.48,-1.03,-3.51,-1.03,1.03,0.78,-2.45,-2.47,-2.45
389,-3.47,-1.02,-3.50,-1.03,1.03,0.80,-2.44,-2.47,-2.45
393,-3.47,-1.02,-3.49,-1.02,1.02,0.82,-2.45,-2.47,-2.45
397,-3.47,-1.02,-3.47,-1.01,1.01,0.84,-2.46,-2.46,-2.45
401,-3.47,-1.02,-3.45,-1.00,1.00,0.86,-2.48,-2.46,-2.45
405,-3.47,-1.02,-3.44,-0.98,0.98,0.88,-2.49,-2.46,-2.45
409,-3.45,-1.00,-3.42,-0.96,0.96,0.89,-2.49,-2.46,-2.45
413,-3.38,-0.93,-3.40,-0.94,0.94,0.91,-2.44,-2.46,-2.45
417,-3.38,-0.93,-3.38,-0.92,0.92,0.93,-2.46,-2.45,-2.45
421,-3.31,-0.87,-3.35,-0.90,0.90,0.95,-2.41,-2.44,-2.44
425,-3.28,-0.85,-3.31,-0.88,0.88,0.97,-2.40,-2.43,-2.43
430,-3.27,-0.86,-3.27,-0.86,0.86,0.99,-2.41,-2.41,-2.41
434,-3.25,-0.86,-3.22,-0.84,0.84,1.00,-2.41,-2.38,-2.39
438,-3.22,-0.86,-3.17,-0.82,0.82,1.02,-2.40,-2.35,-2.36
443,-3.17,-0.85,-3.12,-0.81,0.81,1.03,-2.36,-2.31,-2.32
447,-3.04,-0.77,-3.06,-0.79,0.79,1.05,-2.25,-2.27,-2.28
451,-2.99,-0.76,-3.00,-0.78,0.78,1.06,-2.21,-2.22,-2.23
456,-2.93,-0.76,-2.93,-0.77,0.77,1.07,-2.16,-2.17,-2.17
460,-2.87,-0.76,-2.87,-0.76,0.76,1.08,-2.11,-2.11,-2.11
465,-2.81,-0.75,-2.81,-0.76,0.76,1.09,-2.05,-2.06,-2.06
470,-2.75,-0.75,-2.76,-0.76,0.76,1.10,-1.99,-2.00,-2.00
474,-2.69,-0.75,-2.70,-0.76,0.76,1.10,-1.93,-1.94,-1.94
479,-2.64,-0.76,-2.65,-0.77,0.77,1.11,-1.87,-1.89,-1.89
484,-2.59,-0.76,-2.61,-0.78,0.78,1.11,-1.82,-1.84,-1.83
489,-2.55,-0.76,-2.58,-0.79,0.79,1.11,-1.76,-1.80,-1.79
494,-2.51,-0.76,-2.56,-0.80,0.80,1.10,-1.71,-1.76,-1.75
499,-2.54,-0.83,-2.54,-0.81,0.81,1.10,-1.73,-1.73,-1.71
504,-2.58,-0.89,-2.53,-0.82,0.82,1.09,-1.76,-1.71,-1.69
509,-2.55,-0.88,-2.53,-0.83,0.83,1.08,-1.72,-1.69,-1.67
514,-2.53,-0.87,-2.52,-0.84,0.84,1.07,-1.69,-1.68,-1.66
519,-2.52,-0.86,-2.53,-0.84,0.84,1.06,-1.68,-1.68,-1.66
524,-2.53,-0.87,-2.53,-0.85,0.85,1.04,-1.68,-1.69,-1.66
529,-2.54,-0.86,-2.55,-0.85,0.85,1.03,-1.69,-1.70,-1.68
535,-2.56,-0.86,-2.56,-0.85,0.85,1.00,-1.71,-1.71,-1.70
540,-2.59,-0.86,-2.59,-0.85,0.85,0.98,-1.74,-1.74,-1.73
545,-2.63,-0.87,-2.62,-0.85,0.85,0.96,-1.78,-1.77,-1.76
551,-2.60,-0.81,-2.64,-0.85,0.85,0.93,-1.76,-1.80,-1.79
556,-2.59,-0.76,-2.66,-0.84,0.84,0.91,-1.75,-1.82,-1.83
562,-2.67,-0.81,-2.69,-0.84,0.84,0.88,-1.83,-1.84,-1.86
568,-2.73,-0.84,-2.72,-0.85,0.85,0.85,-1.89,-1.88,-1.89
573,-2.77,-0.86,-2.76,-0.85,0.85,0.82,-1.92,-1.91,-1.91
579,-2.81,-0.88,-2.78,-0.85,0.85,0.79,-1.97,-1.93,-1.93
585,-2.83,-0.89,-2.78,-0.84,0.84,0.76,-1.99,-1.94,-1.94
591,-2.85,-0.90,-2.79,-0.84,0.84,0.73,-2.01,-1.95,-1.95
596,-2.74,-0.79,-2.78,-0.83,0.83,0.70,-1.91,-1.94,-1.95
602,-2.70,-0.76,-2.76,-0.82,0.82,0.66,-1.88,-1.94,-1.94
608,-2.74,-0.82,-2.74,-0.81,0.81,0.63,-1.93,-1.93,-1.92
615,-2.77,-0.87,-2.70,-0.79,0.79,0.59,-1.98,-1.91,-1.90
621,-2.76,-0.89,-2.64,-0.77,0.77,0.56,-1.99,-1.87,-1.87
627,-2.60,-0.77,-2.57,-0.74,0.74,0.52,-1.86,-1.83,-1.84
633,-2.40,-0.61,-2.50,-0.71,0.71,0.49,-1.69,-1.79,-1.80
639,-2.37,-0.62,-2.43,-0.68,0.68,0.46,-1.69,-1.75,-1.75
646,-2.39,-0.69,-2.35,-0.65,0.65,0.42,-1.75,-1.71,-1.70
652,-2.25,-0.60,-2.27,-0.61,0.61,0.38,-1.64,-1.66,-1.65
659,-2.20,-0.60,-2.18,-0.57,0.57,0.35,-1.63,-1.61,-1.60
665,-2.09,-0.54,-2.09,-0.53,0.53,0.31,-1.57,-1.56,-1.55
672,-2.00,-0.50,-1.99,-0.48,0.48,0.28,-1.52,-1.51,-1.50
679,-1.86,-0.41,-1.90,-0.44,0.44,0.24,-1.42,-1.46,-1.45
686,-1.82,-0.41,-1.81,-0.40,0.40,0.21,-1.42,-1.42,-1.41
692,-1.84,-0.47,-1.76,-0.36,0.36,0.18,-1.48,-1.40,-1.37
699,-1.65,-0.31,-1.69,-0.32,0.32,0.14,-1.34,-1.37,-1.34
706,-1.53,-0.21,-1.61,-0.27,0.27,0.11,-1.26,-1.34,-1.32
713,-1.53,-0.23,-1.54,-0.23,0.23,0.07,-1.30,-1.31,-1.30
721,-1.44,-0.15,-1.50,-0.19,0.19,0.03,-1.25,-1.30,-1.29
728,-1.45,-0.16,-1.46,-0.16,0.16,0.00,-1.29,-1.30,-1.29
735,-1.39,-0.10,-1.41,-0.12,0.12,-0.03,-1.27,-1.29,-1.29
742,-1.38,-0.09,-1.38,-0.09,0.09,-0.06,-1.29,-1.29,-1.29
750,-1.40,-0.11,-1.34,-0.05,0.05,-0.10,-1.35,-1.29,-1.29
757,-1.36,-0.07,-1.30,-0.02,0.02,-0.13,-1.34,-1.28,-1.29
765,-1.15,0.14,-1.25,0.02,-0.02,-0.17,-1.17,-1.27,-1.29
773,-1.21,0.07,-1.22,0.05,-0.05,-0.20,-1.26,-1.28,-1.28
780,-1.29,-0.02,-1.19,0.08,-0.08,-0.23,-1.38,-1.27,-1.27
788,-1.26,0.00,-1.15,0.12,-0.12,-0.26,-1.38,-1.26,-1.26
796,-1.07,0.18,-1.10,0.16,-0.16,-0.30,-1.23,-1.25,-1.25
804,-0.96,0.27,-1.04,0.19,-0.19,-0.33,-1.15,-1.24,-1.23
812,-0.98,0.23,-0.99,0.23,-0.23,-0.36,-1.21,-1.22,-1.21
820,-0.91,0.29,-0.94,0.27,-0.27,-0.40,-1.18,-1.20,-1.20
828,-0.84,0.34,-0.88,0.30,-0.30,-0.43,-1.15,-1.19,-1.18
837,-0.85,0.32,-0.83,0.34,-0.34,-0.46,-1.19,-1.17,-1.17
845,-0.86,0.29,-0.78,0.38,-0.38,-0.50,-1.24,-1.16,-1.15
853,-0.74,0.40,-0.72,0.42,-0.42,-0.53,-1.16,-1.14,-1.14
862,-0.65,0.48,-0.67,0.46,-0.46,-0.56,-1.11,-1.13,-1.13
871,-0.57,0.56,-0.63,0.50,-0.50,-0.59,-1.07,-1.14,-1.13
879,-0.57,0.55,-0.60,0.54,-0.54,-0.62,-1.11,-1.14,-1.12
888,-0.55,0.57,-0.56,0.58,-0.58,-0.66,-1.14,-1.14,-1.12
897,-0.52,0.59,-0.51,0.63,-0.63,-0.69,-1.15,-1.13,-1.11
906,-0.44,0.67,-0.45,0.68,-0.68,-0.72,-1.12,-1.13,-1.11
915,-0.41,0.69,-0.39,0.72,-0.72,-0.75,-1.14,-1.12,-1.10
924,-0.41,0.68,-0.33,0.77,-0.77,-0.79,-1.18,-1.10,-1.09
933,-0.38,0.71,-0.27,0.81,-0.81,-0.82,-1.19,-1.08,-1.09
943,-0.24,0.84,-0.23,0.85,-0.85,-0.85,-1.09,-1.08,-1.08
952,-0.20,0.87,-0.19,0.87,-0.87,-0.88,-1.08,-1.07,-1.07
962,-0.12,0.94,-0.16,0.90,-0.90,-0.91,-1.02,-1.06,-1.06
971,-0.06,0.99,-0.13,0.91,-0.91,-0.94,-0.97,-1.04,-1.05
981,-0.00,1.03,-0.11,0.91,-0.91,-0.97,-0.91,-1.02,-1.04
991,0.01,1.03,-0.10,0.91,-0.91,-1.01,-0.90,-1.01,-1.02
1001,-0.00,1.00,-0.11,0.90,-0.90,-1.04,-0.90,-1.00,-1.00
1011,-0.07,0.91,-0.10,0.88,-0.88,-1.07,-0.95,-0.98,-0.98
1021,-0.18,0.78,-0.11,0.86,-0.86,-1.10,-1.04,-0.97,-0.96
1031,-0.19,0.74,-0.11,0.84,-0.84,-1.13,-1.03,-0.95,-0.93
1041,-0.16,0.75,-0.11,0.83,-0.83,-1.16,-0.99,-0.94,-0.91
1052,-0.13,0.75,-0.10,0.82,-0.82,-1.19,-0.95,-0.91,-0.88
1062,-0.11,0.74,-0.08,0.82,-0.82,-1.22,-0.93,-0.89,-0.85
1073,-0.14,0.68,-0.04,0.82,-0.82,-1.26,-0.96,-0.86,-0.82
1084,-0.04,0.75,0.01,0.85,-0.85,-1.29,-0.89,-0.83,-0.79
1094,0.10,0.86,0.08,0.88,-0.88,-1.32,-0.78,-0.80,-0.76
1105,0.20,0.93,0.17,0.93,-0.93,-1.35,-0.73,-0.75,-0.73
1116,0.28,0.98,0.27,0.98,-0.98,-1.38,-0.70,-0.71,-0.70
1128,0.42,1.08,0.38,1.04,-1.04,-1.42,-0.62,-0.66,-0.66
1139,0.52,1.15,0.49,1.11,-1.11,-1.46,-0.59,-0.62,-0.63
1150,0.60,1.19,0.60,1.19,-1.19,-1.49,-0.59,-0.59,-0.59
1162,0.73,1.29,0.72,1.27,-1.27,-1.53,-0.54,-0.55,-0.56
1173,0.87,1.39,0.84,1.36,-1.36,-1.56,-0.49,-0.51,-0.52
1185,0.97,1.45,0.97,1.44,-1.44,-1.60,-0.47,-0.47,-0.49
1197,1.08,1.53,1.08,1.53,-1.53,-1.64,-0.45,-0.45,-0.45
1209,1.19,1.60,1.20,1.62,-1.62,-1.69,-0.43,-0.42,-0.41
1221,1.31,1.68,1.33,1.72,-1.72,-1.73,-0.41,-0.39,-0.37
1233,1.44,1.78,1.46,1.81,-1.81,-1.77,-0.37,-0.36,-0.34
1246,1.57,1.88,1.58,1.91,-1.91,-1.82,-0.34,-0.33,-0.31
1258,1.70,1.99,1.70,2.01,-2.01,-1.86,-0.32,-0.31,-0.29
1271,1.85,2.12,1.83,2.12,-2.12,-1.91,-0.27,-0.29,-0.27
1283,1.99,2.25,1.95,2.23,-2.23,-1.96,-0.24,-0.28,-0.26
1296,2.05,2.30,2.07,2.34,-2.34,-2.01,-0.29,-0.27,-0.25
1309,2.19,2.44,2.19,2.46,-2.46,-2.07,-0.27,-0.27,-0.25
1322,2.34,2.60,2.31,2.58,-2.58,-2.12,-0.24,-0.27,-0.26
1335,2.46,2.73,2.42,2.70,-2.70,-2.18,-0.24,-0.28,-0.27
1349,2.49,2.78,2.52,2.82,-2.82,-2.24,-0.33,-0.30,-0.29
1362,2.60,2.90,2.63,2.94,-2.94,-2.30,-0.34,-0.31,-0.31
1376,2.75,3.08,2.74,3.07,-3.07,-2.36,-0.32,-0.33,-0.33
1390,2.86,3.21,2.85,3.19,-3.19,-2.43,-0.33,-0.34,-0.35
1404,2.94,3.31,2.95,3.30,-3.30,-2.50,-0.36,-0.35,-0.37
1418,3.05,3.43,3.05,3.42,-3.42,-2.57,-0.37,-0.37,-0.38
1432,3.10,3.50,3.14,3.53,-3.53,-2.64,-0.43,-0.38,-0.40
1446,3.24,3.64,3.24,3.63,-3.63,-2.71,-0.39,-0.39,-0.41
1461,3.33,3.74,3.33,3.73,-3.73,-2.79,-0.40,-0.40,-0.41
1475,3.46,3.87,3.43,3.83,-3.83,-2.86,-0.37,-0.40,-0.41
1490,3.58,3.98,3.52,3.92,-3.92,-2.94,-0.34,-0.40,-0.40
1505,3.66,4.06,3.61,4.00,-4.00,-3.02,-0.34,-0.39,-0.40
1520,3.72,4.11,3.69,4.08,-4.08,-3.11,-0.37,-0.39,-0.39
1535,3.68,4.06,3.77,4.16,-4.16,-3.19,-0.48,-0.39,-0.38
1550,3.81,4.17,3.86,4.24,-4.24,-3.27,-0.43,-0.38,-0.36
1566,3.96,4.30,3.96,4.32,-4.32,-3.36,-0.36,-0.36,-0.34
1582,4.09,4.41,4.06,4.39,-4.39,-3.45,-0.30,-0.33,-0.32
1597,4.18,4.48,4.16,4.46,-4.46,-3.54,-0.28,-0.30,-0.30
