frequency,raw,smoothed,error,error_smoothed,equalization,parametric_eq,fixed_band_eq,equalized_raw,equalized_smoothed,target
20.00,7.74,7.74,3.39,3.39,-3.38,-4.43,-2.07,4.36,4.36,4.35
20.20,7.78,7.78,3.40,3.40,-3.39,-4.43,-2.13,4.39,4.39,4.38
20.40,7.82,7.82,3.41,3.41,-3.41,-4.44,-2.19,4.41,4.41,4.41
20.61,7.86,7.86,3.43,3.42,-3.42,-4.44,-2.25,4.44,4.44,4.43
20.81,7.90,7.90,3.44,3.44,-3.44,-4.44,-2.31,4.46,4.46,4.46
21.02,7.94,7.94,3.45,3.45,-3.46,-4.45,-2.38,4.48,4.48,4.49
21.23,7.98,7.98,3.48,3.48,-3.48,-4.45,-2.45,4.50,4.50,4.50
21.44,8.02,8.02,3.51,3.51,-3.51,-4.46,-2.52,4.51,4.51,4.51
21.66,8.06,8.06,3.54,3.54,-3.54,-4.46,-2.59,4.52,4.52,4.52
21.87,8.10,8.10,3.58,3.58,-3.57,-4.47,-2.66,4.53,4.53,4.52
22.09,8.14,8.14,3.61,3.61,-3.61,-4.47,-2.74,4.53,4.53,4.53
22.31,8.17,8.17,3.64,3.65,-3.65,-4.47,-2.82,4.52,4.53,4.53
22.54,8.21,8.21,3.68,3.68,-3.69,-4.48,-2.90,4.52,4.52,4.53
22.76,8.25,8.24,3.72,3.72,-3.72,-4.48,-2.98,4.53,4.52,4.53
22.99,8.28,8.28,3.76,3.76,-3.76,-4.49,-3.06,4.52,4.52,4.52
23.22,8.32,8.32,3.80,3.80,-3.80,-4.49,-3.15,4.52,4.52,4.52
23.45,8.36,8.36,3.84,3.84,-3.84,-4.50,-3.24,4.52,4.52,4.51
23.69,8.39,8.39,3.87,3.88,-3.87,-4.50,-3.33,4.52,4.52,4.51
23.92,8.43,8.43,3.92,3.91,-3.91,-4.51,-3.42,4.52,4.52,4.51
24.16,8.46,8.46,3.94,3.94,-3.95,-4.52,-3.51,4.51,4.51,4.52
24.40,8.49,8.49,3.97,3.98,-3.98,-4.52,-3.61,4.51,4.51,4.52
24.65,8.53,8.53,4.02,4.01,-4.02,-4.53,-3.71,4.51,4.51,4.51
24.89,8.56,8.56,4.05,4.05,-4.05,-4.53,-3.80,4.51,4.51,4.51
25.14,8.60,8.60,4.09,4.09,-4.09,-4.54,-3.90,4.51,4.51,4.51
25.39,8.63,8.63,4.12,4.12,-4.12,-4.55,-4.00,4.51,4.51,4.51
25.65,8.66,8.66,4.15,4.16,-4.16,-4.55,-4.10,4.50,4.50,4.51
25.91,8.69,8.69,4.19,4.19,-4.19,-4.56,-4.20,4.50,4.50,4.50
26.16,8.72,8.72,4.23,4.22,-4.22,-4.57,-4.30,4.50,4.50,4.49
26.43,8.75,8.75,4.26,4.26,-4.25,-4.57,-4.40,4.50,4.49,4.49
26.69,8.78,8.78,4.29,4.28,-4.28,-4.58,-4.50,4.50,4.49,4.49
26.96,8.80,8.80,4.31,4.31,-4.31,-4.59,-4.60,4.49,4.49,4.49
27.23,8.83,8.83,4.34,4.34,-4.34,-4.59,-4.69,4.49,4.49,4.49
27.50,8.85,8.85,4.36,4.36,-4.37,-4.60,-4.79,4.48,4.48,4.49
27.77,8.87,8.87,4.39,4.39,-4.39,-4.61,-4.88,4.48,4.48,4.48
28.05,8.89,8.89,4.41,4.42,-4.41,-4.62,-4.97,4.48,4.47,4.48
28.33,8.91,8.91,4.45,4.44,-4.44,-4.63,-5.05,4.47,4.47,4.46
28.62,8.92,8.92,4.46,4.46,-4.46,-4.63,-5.13,4.46,4.46,4.46
28.90,8.94,8.94,4.48,4.48,-4.48,-4.64,-5.21,4.46,4.46,4.46
29.19,8.96,8.96,4.51,4.50,-4.50,-4.65,-5.28,4.46,4.45,4.45
29.48,8.97,8.97,4.51,4.52,-4.52,-4.66,-5.34,4.45,4.45,4.46
29.78,8.99,8.99,4.54,4.54,-4.54,-4.67,-5.40,4.44,4.44,4.45
30.08,9.01,9.01,4.57,4.56,-4.57,-4.68,-5.45,4.44,4.44,4.44
30.38,9.02,9.02,4.59,4.59,-4.59,-4.69,-5.50,4.43,4.44,4.43
30.68,9.04,9.04,4.61,4.61,-4.61,-4.70,-5.54,4.43,4.43,4.43
30.99,9.05,9.05,4.63,4.63,-4.63,-4.71,-5.58,4.42,4.42,4.42
31.30,9.07,9.07,4.65,4.65,-4.65,-4.72,-5.60,4.42,4.42,4.42
31.61,9.08,9.08,4.67,4.67,-4.67,-4.73,-5.62,4.41,4.41,4.41
31.93,9.09,9.09,4.69,4.69,-4.69,-4.74,-5.63,4.40,4.40,4.40
32.24,9.11,9.11,4.72,4.71,-4.71,-4.76,-5.64,4.40,4.40,4.39
32.57,9.12,9.12,4.73,4.73,-4.73,-4.77,-5.63,4.39,4.39,4.39
32.89,9.13,9.13,4.75,4.75,-4.75,-4.78,-5.63,4.38,4.38,4.38
33.22,9.14,9.14,4.77,4.77,-4.77,-4.79,-5.61,4.37,4.37,4.37
33.55,9.16,9.16,4.79,4.79,-4.79,-4.81,-5.60,4.37,4.36,4.37
33.89,9.17,9.17,4.81,4.81,-4.82,-4.82,-5.57,4.35,4.36,4.36
34.23,9.19,9.19,4.84,4.84,-4.84,-4.83,-5.54,4.35,4.35,4.35
34.57,9.21,9.21,4.87,4.87,-4.87,-4.85,-5.51,4.34,4.34,4.34
34.92,9.23,9.23,4.90,4.90,-4.90,-4.86,-5.47,4.33,4.33,4.33
35.27,9.25,9.25,4.93,4.93,-4.93,-4.88,-5.43,4.32,4.32,4.32
35.62,9.27,9.27,4.96,4.96,-4.97,-4.89,-5.39,4.30,4.30,4.31
35.97,9.30,9.30,5.00,5.00,-5.01,-4.91,-5.35,4.29,4.29,4.30
36.33,9.33,9.33,5.04,5.04,-5.04,-4.93,-5.31,4.29,4.29,4.29
36.70,9.36,9.36,5.08,5.08,-5.08,-4.94,-5.26,4.28,4.28,4.28
37.06,9.39,9.39,5.13,5.12,-5.12,-4.96,-5.21,4.27,4.27,4.26
37.43,9.42,9.41,5.16,5.16,-5.15,-4.98,-5.17,4.27,4.26,4.26
37.81,9.43,9.43,5.18,5.19,-5.18,-5.00,-5.12,4.24,4.25,4.25
38.19,9.45,9.45,5.22,5.21,-5.22,-5.02,-5.08,4.23,4.23,4.23
38.57,9.46,9.46,5.23,5.24,-5.24,-5.04,-5.04,4.21,4.21,4.23
38.95,9.47,9.47,5.26,5.27,-5.27,-5.06,-5.00,4.20,4.21,4.21
39.34,9.49,9.49,5.29,5.29,-5.29,-5.08,-4.96,4.20,4.20,4.20
39.74,9.50,9.50,5.32,5.31,-5.31,-5.10,-4.92,4.19,4.19,4.18
40.14,9.50,9.50,5.32,5.33,-5.32,-5.12,-4.88,4.18,4.18,4.18
40.54,9.50,9.50,5.34,5.34,-5.33,-5.15,-4.85,4.17,4.17,4.16
40.94,9.49,9.49,5.34,5.34,-5.34,-5.17,-4.82,4.15,4.15,4.15
41.35,9.48,9.48,5.34,5.34,-5.34,-5.19,-4.80,4.14,4.14,4.14
41.76,9.47,9.47,5.34,5.34,-5.35,-5.21,-4.77,4.12,4.13,4.13
42.18,9.47,9.47,5.34,5.34,-5.35,-5.24,-4.75,4.12,4.12,4.13
42.60,9.46,9.46,5.35,5.35,-5.36,-5.26,-4.74,4.10,4.11,4.11
43.03,9.46,9.46,5.36,5.36,-5.37,-5.28,-4.72,4.09,4.09,4.10
43.46,9.46,9.46,5.38,5.38,-5.38,-5.30,-4.71,4.08,4.08,4.08
43.90,9.46,9.46,5.40,5.39,-5.39,-5.32,-4.71,4.07,4.06,4.06
44.33,9.45,9.45,5.41,5.41,-5.41,-5.35,-4.70,4.04,4.04,4.04
44.78,9.45,9.45,5.43,5.43,-5.43,-5.37,-4.71,4.02,4.02,4.02
45.23,9.45,9.45,5.45,5.45,-5.45,-5.38,-4.71,4.00,4.00,4.00
45.68,9.45,9.45,5.47,5.47,-5.46,-5.40,-4.72,3.98,3.99,3.98
46.13,9.46,9.45,5.49,5.48,-5.48,-5.42,-4.73,3.98,3.97,3.96
46.60,9.45,9.45,5.49,5.50,-5.50,-5.43,-4.74,3.95,3.96,3.96
47.06,9.45,9.45,5.51,5.51,-5.51,-5.45,-4.76,3.94,3.94,3.94
47.53,9.45,9.45,5.53,5.52,-5.53,-5.46,-4.78,3.92,3.92,3.92
48.01,9.44,9.44,5.53,5.54,-5.55,-5.47,-4.81,3.89,3.89,3.91
48.49,9.43,9.43,5.55,5.56,-5.56,-5.48,-4.84,3.87,3.87,3.88
48.97,9.42,9.42,5.58,5.58,-5.58,-5.49,-4.87,3.84,3.84,3.84
49.46,9.41,9.41,5.60,5.60,-5.59,-5.50,-4.90,3.82,3.82,3.81
49.96,9.40,9.40,5.62,5.61,-5.60,-5.50,-4.94,3.80,3.79,3.78
50.46,9.38,9.38,5.61,5.62,-5.62,-5.51,-4.97,3.76,3.77,3.77
50.96,9.37,9.37,5.62,5.63,-5.63,-5.51,-5.02,3.74,3.74,3.75
51.47,9.35,9.35,5.64,5.63,-5.63,-5.51,-5.06,3.72,3.72,3.71
51.99,9.33,9.33,5.64,5.64,-5.64,-5.51,-5.10,3.69,3.69,3.69
52.51,9.32,9.32,5.64,5.64,-5.64,-5.51,-5.15,3.67,3.67,3.68
53.03,9.30,9.30,5.65,5.64,-5.65,-5.51,-5.19,3.65,3.65,3.65
53.56,9.27,9.27,5.64,5.65,-5.65,-5.51,-5.24,3.62,3.62,3.63
54.10,9.25,9.25,5.65,5.65,-5.65,-5.52,-5.29,3.60,3.60,3.60
54.64,9.23,9.23,5.65,5.65,-5.65,-5.52,-5.34,3.58,3.58,3.57
55.18,9.20,9.20,5.65,5.65,-5.65,-5.52,-5.38,3.55,3.55,3.55
55.74,9.17,9.17,5.65,5.65,-5.64,-5.52,-5.43,3.53,3.53,3.52
56.29,9.14,9.14,5.64,5.64,-5.64,-5.52,-5.48,3.50,3.50,3.50
56.86,9.10,9.10,5.62,5.63,-5.63,-5.52,-5.52,3.47,3.48,3.48
57.42,9.07,9.07,5.62,5.62,-5.62,-5.52,-5.56,3.45,3.45,3.45
58.00,9.04,9.04,5.61,5.61,-5.61,-5.52,-5.60,3.43,3.43,3.43
58.58,9.00,9.00,5.59,5.60,-5.60,-5.52,-5.64,3.40,3.41,3.41
59.16,8.97,8.97,5.58,5.58,-5.59,-5.53,-5.67,3.38,3.38,3.39
59.76,8.94,8.94,5.57,5.57,-5.58,-5.53,-5.70,3.36,3.36,3.37
60.35,8.90,8.90,5.56,5.57,-5.57,-5.53,-5.73,3.33,3.33,3.33
60.96,8.87,8.87,5.56,5.56,-5.56,-5.54,-5.75,3.31,3.30,3.31
61.57,8.83,8.83,5.56,5.56,-5.55,-5.54,-5.77,3.27,3.27,3.27
62.18,8.79,8.79,5.55,5.55,-5.55,-5.55,-5.79,3.24,3.24,3.24
62.80,8.75,8.75,5.54,5.54,-5.54,-5.55,-5.80,3.21,3.21,3.21
63.43,8.71,8.71,5.53,5.53,-5.53,-5.56,-5.81,3.18,3.18,3.18
64.07,8.66,8.66,5.51,5.51,-5.51,-5.56,-5.81,3.15,3.15,3.15
64.71,8.62,8.62,5.50,5.50,-5.50,-5.57,-5.81,3.12,3.12,3.12
65.35,8.58,8.58,5.48,5.48,-5.48,-5.58,-5.80,3.10,3.09,3.10
66.01,8.53,8.53,5.46,5.46,-5.47,-5.59,-5.79,3.06,3.06,3.07
66.67,8.49,8.49,5.45,5.45,-5.45,-5.60,-5.78,3.04,3.04,3.04
67.33,8.44,8.44,5.43,5.43,-5.44,-5.60,-5.77,3.00,3.01,3.01
68.01,8.40,8.40,5.42,5.42,-5.42,-5.61,-5.75,2.98,2.98,2.98
68.69,8.35,8.35,5.40,5.41,-5.40,-5.62,-5.73,2.95,2.95,2.95
69.37,8.31,8.31,5.39,5.39,-5.39,-5.63,-5.71,2.92,2.92,2.91
70.07,8.26,8.26,5.38,5.37,-5.37,-5.64,-5.69,2.89,2.89,2.88
70.77,8.21,8.21,5.35,5.35,-5.35,-5.65,-5.67,2.86,2.86,2.86
71.48,8.16,8.16,5.34,5.34,-5.34,-5.66,-5.64,2.82,2.82,2.82
72.19,8.11,8.11,5.32,5.32,-5.32,-5.67,-5.62,2.79,2.79,2.79
72.91,8.07,8.07,5.32,5.31,-5.31,-5.69,-5.60,2.76,2.75,2.75
73.64,8.02,8.02,5.30,5.30,-5.30,-5.70,-5.57,2.72,2.72,2.72
74.38,7.98,7.98,5.29,5.30,-5.29,-5.71,-5.55,2.69,2.69,2.69
75.12,7.94,7.94,5.29,5.29,-5.29,-5.72,-5.53,2.65,2.65,2.65
75.87,7.92,7.91,5.30,5.29,-5.29,-5.73,-5.51,2.62,2.62,2.62
76.63,7.89,7.89,5.30,5.30,-5.30,-5.75,-5.49,2.59,2.59,2.59
77.40,7.87,7.87,5.31,5.32,-5.32,-5.76,-5.48,2.55,2.55,2.56
78.17,7.86,7.86,5.34,5.34,-5.34,-5.78,-5.47,2.52,2.52,2.52
78.95,7.86,7.86,5.36,5.37,-5.37,-5.79,-5.46,2.49,2.49,2.49
79.74,7.86,7.86,5.40,5.40,-5.41,-5.80,-5.45,2.45,2.45,2.46
80.54,7.87,7.87,5.44,5.44,-5.45,-5.82,-5.45,2.42,2.42,2.43
81.35,7.88,7.88,5.49,5.49,-5.49,-5.83,-5.45,2.39,2.39,2.39
82.16,7.90,7.90,5.54,5.54,-5.53,-5.85,-5.46,2.37,2.36,2.36
82.98,7.91,7.91,5.58,5.59,-5.58,-5.87,-5.46,2.33,2.33,2.33
83.81,7.92,7.92,5.64,5.63,-5.62,-5.88,-5.48,2.30,2.30,2.28
84.65,7.92,7.92,5.67,5.67,-5.67,-5.90,-5.49,2.25,2.25,2.25
85.50,7.92,7.92,5.70,5.71,-5.71,-5.92,-5.51,2.21,2.21,2.22
86.35,7.92,7.92,5.74,5.74,-5.75,-5.93,-5.53,2.17,2.17,2.18
87.22,7.92,7.92,5.78,5.78,-5.79,-5.95,-5.56,2.13,2.13,2.14
88.09,7.93,7.93,5.83,5.82,-5.83,-5.97,-5.59,2.10,2.10,2.10
88.97,7.93,7.93,5.86,5.87,-5.87,-5.99,-5.63,2.06,2.06,2.07
89.86,7.93,7.93,5.90,5.90,-5.90,-6.01,-5.67,2.02,2.02,2.03
90.76,7.92,7.92,5.95,5.94,-5.94,-6.03,-5.72,1.98,1.98,1.97
91.66,7.91,7.91,5.97,5.98,-5.97,-6.05,-5.77,1.94,1.94,1.94
92.58,7.90,7.90,6.01,6.00,-6.00,-6.07,-5.82,1.90,1.90,1.89
93.51,7.88,7.88,6.03,6.03,-6.02,-6.09,-5.88,1.86,1.86,1.85
94.44,7.85,7.85,6.04,6.04,-6.04,-6.11,-5.94,1.81,1.81,1.81
95.39,7.82,7.82,6.05,6.05,-6.05,-6.14,-6.00,1.77,1.76,1.77
96.34,7.78,7.78,6.07,6.07,-6.07,-6.16,-6.07,1.71,1.71,1.71
97.30,7.74,7.74,6.07,6.08,-6.08,-6.18,-6.14,1.66,1.67,1.67
98.28,7.71,7.71,6.09,6.09,-6.09,-6.21,-6.22,1.62,1.62,1.62
99.26,7.67,7.67,6.09,6.10,-6.10,-6.23,-6.30,1.57,1.57,1.57
100.25,7.64,7.64,6.11,6.11,-6.11,-6.26,-6.38,1.53,1.53,1.53
101.25,7.61,7.61,6.13,6.13,-6.13,-6.29,-6.46,1.48,1.48,1.48
102.27,7.58,7.58,6.14,6.15,-6.14,-6.32,-6.55,1.44,1.44,1.44
103.29,7.56,7.56,6.18,6.17,-6.17,-6.34,-6.64,1.39,1.39,1.38
104.32,7.54,7.54,6.20,6.20,-6.20,-6.37,-6.73,1.34,1.34,1.34
105.37,7.53,7.53,6.23,6.23,-6.23,-6.40,-6.82,1.30,1.29,1.30
106.42,7.52,7.52,6.27,6.27,-6.28,-6.43,-6.91,1.24,1.24,1.25
107.48,7.52,7.52,6.31,6.32,-6.34,-6.46,-7.00,1.18,1.18,1.20
108.56,7.54,7.54,6.39,6.39,-6.41,-6.50,-7.08,1.13,1.13,1.15
109.64,7.57,7.57,6.47,6.47,-6.48,-6.53,-7.17,1.09,1.09,1.10
110.74,7.61,7.61,6.55,6.55,-6.56,-6.56,-7.25,1.05,1.05,1.06
111.85,7.65,7.65,6.64,6.64,-6.64,-6.59,-7.34,1.01,1.01,1.01
112.97,7.68,7.68,6.73,6.73,-6.72,-6.63,-7.41,0.96,0.97,0.95
114.10,7.71,7.70,6.81,6.80,-6.78,-6.66,-7.49,0.93,0.92,0.90
115.24,7.71,7.70,6.86,6.86,-6.84,-6.70,-7.55,0.87,0.87,0.85
116.39,7.68,7.69,6.89,6.90,-6.88,-6.73,-7.62,0.80,0.81,0.79
117.55,7.66,7.65,6.92,6.92,-6.91,-6.77,-7.67,0.75,0.75,0.74
118.73,7.61,7.61,6.93,6.92,-6.92,-6.81,-7.72,0.69,0.69,0.68
119.92,7.56,7.56,6.92,6.92,-6.92,-6.84,-7.75,0.63,0.63,0.64
121.12,7.50,7.50,6.91,6.91,-6.92,-6.88,-7.79,0.58,0.58,0.59
122.33,7.44,7.44,6.90,6.90,-6.91,-6.92,-7.80,0.53,0.53,0.53
123.55,7.39,7.39,6.90,6.90,-6.90,-6.96,-7.82,0.49,0.49,0.49
124.79,7.33,7.33,6.89,6.89,-6.89,-7.00,-7.81,0.44,0.44,0.44
126.03,7.27,7.27,6.88,6.88,-6.88,-7.03,-7.81,0.39,0.39,0.39
127.29,7.21,7.21,6.87,6.87,-6.87,-7.07,-7.78,0.34,0.34,0.34
128.57,7.16,7.16,6.88,6.87,-6.87,-7.11,-7.76,0.29,0.29,0.28
129.85,7.11,7.11,6.88,6.87,-6.87,-7.14,-7.71,0.24,0.24,0.23
131.15,7.06,7.06,6.87,6.88,-6.87,-7.18,-7.67,0.19,0.19,0.19
132.46,7.02,7.02,6.88,6.88,-6.88,-7.22,-7.61,0.14,0.14,0.14
133.79,6.99,6.99,6.89,6.89,-6.90,-7.25,-7.55,0.09,0.09,0.10
135.12,6.97,6.97,6.92,6.92,-6.92,-7.29,-7.47,0.05,0.05,0.05
136.48,6.96,6.96,6.95,6.95,-6.96,-7.32,-7.39,0.00,-0.00,0.01
137.84,6.96,6.96,6.99,7.00,-7.00,-7.35,-7.31,-0.05,-0.05,-0.03
139.22,6.97,6.98,7.06,7.06,-7.07,-7.38,-7.22,-0.10,-0.09,-0.09
140.61,7.01,7.01,7.14,7.13,-7.14,-7.41,-7.12,-0.13,-0.13,-0.13
142.02,7.06,7.05,7.21,7.21,-7.23,-7.44,-7.03,-0.17,-0.17,-0.15
143.44,7.11,7.11,7.30,7.31,-7.32,-7.46,-6.93,-0.21,-0.21,-0.19
144.87,7.18,7.18,7.41,7.41,-7.43,-7.49,-6.82,-0.25,-0.24,-0.23
146.32,7.26,7.26,7.53,7.53,-7.53,-7.51,-6.72,-0.27,-0.28,-0.27
147.78,7.33,7.33,7.63,7.63,-7.64,-7.53,-6.62,-0.31,-0.31,-0.30
149.26,7.39,7.39,7.73,7.73,-7.73,-7.54,-6.51,-0.34,-0.34,-0.34
150.75,7.43,7.43,7.82,7.81,-7.81,-7.55,-6.41,-0.38,-0.37,-0.39
152.26,7.46,7.46,7.88,7.88,-7.86,-7.56,-6.30,-0.40,-0.41,-0.42
153.78,7.45,7.45,7.91,7.91,-7.89,-7.57,-6.20,-0.44,-0.44,-0.46
155.32,7.42,7.41,7.92,7.91,-7.89,-7.57,-6.10,-0.47,-0.47,-0.50
156.88,7.34,7.34,7.88,7.88,-7.85,-7.58,-6.00,-0.51,-0.51,-0.54
158.44,7.23,7.23,7.81,7.81,-7.78,-7.57,-5.91,-0.55,-0.55,-0.58
160.03,7.10,7.09,7.72,7.72,-7.69,-7.57,-5.82,-0.59,-0.60,-0.62
161.63,6.93,6.93,7.59,7.59,-7.58,-7.55,-5.73,-0.65,-0.65,-0.66
163.24,6.76,6.76,7.46,7.46,-7.46,-7.54,-5.64,-0.71,-0.71,-0.71
164.88,6.58,6.58,7.32,7.32,-7.35,-7.52,-5.56,-0.77,-0.77,-0.74
166.53,6.43,6.43,7.20,7.20,-7.24,-7.50,-5.48,-0.82,-0.82,-0.77
168.19,6.30,6.30,7.11,7.12,-7.16,-7.47,-5.41,-0.86,-0.85,-0.81
169.87,6.21,6.21,7.06,7.06,-7.09,-7.44,-5.33,-0.88,-0.88,-0.85
171.57,6.15,6.15,7.04,7.03,-7.05,-7.41,-5.27,-0.90,-0.90,-0.89
173.29,6.10,6.10,7.02,7.02,-7.03,-7.37,-5.20,-0.93,-0.93,-0.92
175.02,6.07,6.07,7.03,7.03,-7.03,-7.32,-5.14,-0.96,-0.96,-0.96
176.77,6.04,6.04,7.04,7.04,-7.04,-7.28,-5.08,-1.00,-1.00,-1.00
178.54,6.01,6.01,7.06,7.06,-7.05,-7.23,-5.03,-1.04,-1.04,-1.05
180.32,5.99,5.99,7.07,7.07,-7.06,-7.17,-4.98,-1.07,-1.07,-1.08
182.13,5.96,5.96,7.07,7.07,-7.06,-7.11,-4.94,-1.10,-1.11,-1.11
183.95,5.92,5.92,7.07,7.07,-7.06,-7.05,-4.90,-1.14,-1.14,-1.16
185.79,5.86,5.86,7.05,7.05,-7.04,-6.98,-4.86,-1.18,-1.18,-1.19
187.65,5.80,5.80,7.03,7.02,-7.02,-6.91,-4.82,-1.22,-1.22,-1.23
189.52,5.72,5.72,6.98,6.98,-6.98,-6.84,-4.80,-1.26,-1.25,-1.26
191.42,5.64,5.64,6.93,6.92,-6.92,-6.76,-4.77,-1.28,-1.29,-1.29
193.33,5.54,5.54,6.86,6.86,-6.86,-6.68,-4.74,-1.32,-1.32,-1.32
195.27,5.44,5.44,6.78,6.78,-6.79,-6.60,-4.72,-1.35,-1.35,-1.34
197.22,5.33,5.33,6.70,6.70,-6.70,-6.51,-4.71,-1.37,-1.37,-1.37
199.19,5.21,5.21,6.62,6.61,-6.61,-6.42,-4.69,-1.40,-1.40,-1.41
201.18,5.09,5.09,6.51,6.51,-6.51,-6.33,-4.68,-1.42,-1.42,-1.43
203.19,4.96,4.96,6.40,6.41,-6.41,-6.23,-4.66,-1.45,-1.45,-1.44
205.23,4.83,4.83,6.30,6.29,-6.30,-6.13,-4.66,-1.47,-1.47,-1.47
207.28,4.70,4.70,6.17,6.18,-6.18,-6.03,-4.65,-1.48,-1.48,-1.47
209.35,4.57,4.57,6.07,6.07,-6.07,-5.93,-4.64,-1.50,-1.50,-1.50
211.44,4.43,4.43,5.95,5.95,-5.94,-5.83,-4.63,-1.52,-1.51,-1.52
213.56,4.30,4.30,5.82,5.82,-5.82,-5.72,-4.63,-1.52,-1.53,-1.52
215.69,4.16,4.16,5.69,5.69,-5.69,-5.61,-4.62,-1.54,-1.54,-1.53
217.85,4.02,4.02,5.56,5.57,-5.56,-5.50,-4.62,-1.55,-1.54,-1.54
220.03,3.89,3.89,5.44,5.44,-5.43,-5.39,-4.61,-1.54,-1.55,-1.55
222.23,3.75,3.75,5.31,5.31,-5.30,-5.28,-4.60,-1.55,-1.55,-1.57
224.45,3.61,3.61,5.17,5.17,-5.16,-5.17,-4.59,-1.56,-1.56,-1.56
226.70,3.47,3.47,5.03,5.03,-5.03,-5.05,-4.58,-1.56,-1.56,-1.56
228.96,3.33,3.33,4.89,4.89,-4.90,-4.94,-4.56,-1.57,-1.57,-1.56
231.25,3.21,3.21,4.76,4.76,-4.78,-4.82,-4.54,-1.57,-1.57,-1.55
233.57,3.09,3.09,4.64,4.64,-4.65,-4.70,-4.52,-1.56,-1.56,-1.55
235.90,2.98,2.98,4.53,4.52,-4.52,-4.58,-4.50,-1.55,-1.55,-1.55
238.26,2.86,2.86,4.41,4.41,-4.40,-4.46,-4.47,-1.54,-1.54,-1.55
240.64,2.75,2.75,4.29,4.28,-4.27,-4.34,-4.43,-1.52,-1.53,-1.54
243.05,2.63,2.63,4.16,4.15,-4.15,-4.22,-4.39,-1.52,-1.52,-1.53
245.48,2.50,2.50,4.01,4.02,-4.01,-4.09,-4.35,-1.51,-1.51,-1.51
247.93,2.37,2.37,3.87,3.88,-3.87,-3.97,-4.30,-1.51,-1.50,-1.50
250.41,2.24,2.24,3.74,3.73,-3.73,-3.85,-4.24,-1.49,-1.49,-1.50
252.92,2.11,2.11,3.59,3.58,-3.58,-3.72,-4.18,-1.47,-1.48,-1.48
255.45,1.97,1.97,3.42,3.43,-3.43,-3.59,-4.11,-1.46,-1.46,-1.46
258.00,1.84,1.84,3.28,3.28,-3.28,-3.47,-4.04,-1.44,-1.44,-1.44
260.58,1.70,1.70,3.13,3.12,-3.13,-3.34,-3.96,-1.43,-1.43,-1.43
263.19,1.56,1.56,2.96,2.97,-2.97,-3.21,-3.88,-1.41,-1.41,-1.41
265.82,1.43,1.43,2.82,2.81,-2.81,-3.09,-3.79,-1.39,-1.39,-1.39
268.48,1.29,1.29,2.66,2.66,-2.66,-2.96,-3.70,-1.37,-1.37,-1.37
271.16,1.16,1.16,2.50,2.51,-2.51,-2.83,-3.60,-1.35,-1.35,-1.34
273.87,1.03,1.03,2.36,2.35,-2.36,-2.70,-3.50,-1.33,-1.33,-1.33
276.61,0.90,0.90,2.20,2.21,-2.21,-2.57,-3.39,-1.31,-1.31,-1.30
279.38,0.77,0.77,2.06,2.06,-2.06,-2.43,-3.28,-1.29,-1.29,-1.29
282.17,0.65,0.65,1.92,1.92,-1.92,-2.30,-3.16,-1.27,-1.27,-1.28
284.99,0.52,0.52,1.77,1.78,-1.78,-2.17,-3.05,-1.26,-1.25,-1.25
287.84,0.41,0.40,1.64,1.64,-1.64,-2.03,-2.93,-1.23,-1.23,-1.23
290.72,0.29,0.29,1.50,1.50,-1.50,-1.90,-2.81,-1.22,-1.21,-1.21
293.63,0.18,0.18,1.37,1.37,-1.37,-1.76,-2.68,-1.20,-1.19,-1.19
296.57,0.08,0.07,1.25,1.25,-1.25,-1.63,-2.56,-1.17,-1.18,-1.17
299.53,-0.03,-0.03,1.12,1.13,-1.13,-1.49,-2.43,-1.16,-1.16,-1.15
302.53,-0.12,-0.12,1.02,1.01,-1.01,-1.35,-2.30,-1.13,-1.13,-1.14
305.55,-0.21,-0.21,0.89,0.90,-0.90,-1.21,-2.17,-1.11,-1.11,-1.10
308.61,-0.29,-0.29,0.79,0.79,-0.79,-1.07,-2.04,-1.08,-1.08,-1.08
311.69,-0.37,-0.37,0.69,0.68,-0.68,-0.93,-1.91,-1.06,-1.05,-1.06
314.81,-0.45,-0.45,0.57,0.58,-0.57,-0.79,-1.77,-1.03,-1.02,-1.02
317.96,-0.53,-0.54,0.47,0.47,-0.46,-0.64,-1.64,-0.99,-1.00,-1.00
321.14,-0.63,-0.63,0.36,0.36,-0.35,-0.50,-1.51,-0.98,-0.98,-0.99
324.35,-0.73,-0.73,0.24,0.24,-0.23,-0.35,-1.38,-0.96,-0.96,-0.97
327.59,-0.84,-0.84,0.10,0.11,-0.10,-0.21,-1.24,-0.94,-0.94,-0.94
330.87,-0.95,-0.95,-0.02,-0.03,0.03,-0.06,-1.11,-0.92,-0.92,-0.93
334.18,-1.07,-1.07,-0.16,-0.16,0.16,0.09,-0.98,-0.91,-0.91,-0.91
337.52,-1.19,-1.19,-0.30,-0.30,0.30,0.23,-0.85,-0.89,-0.89,-0.89
340.90,-1.31,-1.31,-0.45,-0.44,0.44,0.38,-0.71,-0.87,-0.87,-0.86
344.30,-1.43,-1.43,-0.58,-0.58,0.58,0.53,-0.58,-0.85,-0.85,-0.85
347.75,-1.55,-1.55,-0.72,-0.72,0.72,0.68,-0.45,-0.83,-0.83,-0.83
351.23,-1.67,-1.67,-0.86,-0.86,0.86,0.82,-0.31,-0.81,-0.81,-0.81
354.74,-1.79,-1.79,-1.00,-0.99,0.99,0.97,-0.18,-0.80,-0.79,-0.79
358.28,-1.90,-1.90,-1.13,-1.13,1.13,1.12,-0.05,-0.77,-0.78,-0.78
361.87,-2.01,-2.01,-1.25,-1.26,1.26,1.26,0.08,-0.75,-0.76,-0.76
365.49,-2.13,-2.12,-1.39,-1.38,1.38,1.41,0.22,-0.75,-0.74,-0.74
369.14,-2.23,-2.23,-1.50,-1.50,1.51,1.55,0.35,-0.72,-0.73,-0.73
372.83,-2.34,-2.34,-1.63,-1.63,1.63,1.69,0.48,-0.71,-0.71,-0.71
376.56,-2.44,-2.44,-1.74,-1.74,1.75,1.83,0.61,-0.70,-0.69,-0.70
380.33,-2.54,-2.54,-1.86,-1.86,1.86,1.96,0.74,-0.68,-0.68,-0.68
384.13,-2.63,-2.63,-1.96,-1.97,1.97,2.09,0.87,-0.67,-0.67,-0.67
387.97,-2.73,-2.73,-2.07,-2.07,2.07,2.22,1.01,-0.66,-0.66,-0.66
391.85,-2.81,-2.81,-2.16,-2.16,2.16,2.34,1.14,-0.65,-0.65,-0.65
395.77,-2.89,-2.89,-2.26,-2.26,2.25,2.46,1.27,-0.64,-0.64,-0.63
399.73,-2.96,-2.96,-2.34,-2.33,2.33,2.57,1.39,-0.63,-0.63,-0.62
403.72,-3.02,-3.02,-2.41,-2.41,2.40,2.67,1.52,-0.62,-0.62,-0.62
407.76,-3.07,-3.07,-2.46,-2.47,2.47,2.77,1.65,-0.60,-0.60,-0.61
411.84,-3.12,-3.12,-2.53,-2.53,2.54,2.86,1.78,-0.59,-0.59,-0.59
415.96,-3.17,-3.17,-2.59,-2.59,2.60,2.95,1.90,-0.57,-0.57,-0.58
420.12,-3.22,-3.22,-2.65,-2.65,2.66,3.02,2.02,-0.56,-0.56,-0.57
424.32,-3.27,-3.27,-2.71,-2.71,2.71,3.09,2.14,-0.56,-0.56,-0.56
428.56,-3.32,-3.32,-2.77,-2.77,2.77,3.14,2.26,-0.55,-0.55,-0.55
432.85,-3.37,-3.37,-2.83,-2.82,2.83,3.19,2.37,-0.54,-0.54,-0.54
437.18,-3.41,-3.41,-2.88,-2.88,2.88,3.23,2.49,-0.53,-0.53,-0.53
441.55,-3.45,-3.45,-2.94,-2.93,2.93,3.26,2.59,-0.52,-0.52,-0.52
445.96,-3.49,-3.49,-2.98,-2.98,2.98,3.29,2.70,-0.51,-0.51,-0.51
450.42,-3.52,-3.52,-3.02,-3.02,3.02,3.30,2.80,-0.50,-0.50,-0.50
454.93,-3.54,-3.54,-3.06,-3.06,3.06,3.30,2.89,-0.48,-0.48,-0.48
459.48,-3.56,-3.56,-3.09,-3.10,3.10,3.30,2.98,-0.46,-0.46,-0.47
464.07,-3.58,-3.58,-3.13,-3.13,3.13,3.29,3.06,-0.45,-0.45,-0.45
468.71,-3.59,-3.59,-3.16,-3.16,3.16,3.27,3.14,-0.43,-0.43,-0.43
473.40,-3.60,-3.60,-3.18,-3.18,3.18,3.25,3.21,-0.42,-0.42,-0.42
478.13,-3.60,-3.60,-3.20,-3.20,3.20,3.21,3.27,-0.40,-0.41,-0.40
482.91,-3.60,-3.60,-3.21,-3.21,3.21,3.18,3.32,-0.39,-0.39,-0.39
487.74,-3.59,-3.59,-3.22,-3.22,3.22,3.14,3.37,-0.37,-0.37,-0.37
492.62,-3.57,-3.57,-3.22,-3.22,3.22,3.09,3.41,-0.35,-0.36,-0.35
497.55,-3.56,-3.56,-3.22,-3.22,3.21,3.04,3.44,-0.35,-0.34,-0.34
502.52,-3.53,-3.53,-3.21,-3.21,3.21,2.99,3.46,-0.32,-0.33,-0.33
507.55,-3.51,-3.51,-3.19,-3.19,3.19,2.93,3.48,-0.32,-0.31,-0.32
