frequency,raw,error,smoothed,error_smoothed,equalization,parametric_eq,equalized_raw,equalized_smoothed,target
20,-25.04,-25.83,-25.05,-25.84,6.00,2.79,-19.04,-19.05,0.79
21,-24.45,-25.24,-24.37,-25.16,6.00,3.20,-18.45,-18.37,0.79
22,-23.59,-24.38,-23.70,-24.49,6.00,3.65,-17.59,-17.70,0.79
23,-23.11,-23.89,-23.04,-23.83,6.00,4.13,-17.11,-17.04,0.79
24,-22.33,-23.11,-22.40,-23.18,6.00,4.64,-16.33,-16.40,0.78
25,-21.87,-22.65,-21.76,-22.54,6.00,5.17,-15.87,-15.76,0.78
26,-21.09,-21.86,-21.13,-21.91,6.00,5.70,-15.09,-15.13,0.78
27,-20.56,-21.33,-20.51,-21.29,6.00,6.21,-14.56,-14.51,0.77
28,-19.87,-20.64,-19.92,-20.69,6.00,6.67,-13.87,-13.92,0.77
29,-19.38,-20.14,-19.34,-20.10,6.00,7.04,-13.38,-13.34,0.76
30,-18.73,-19.49,-18.77,-19.53,6.00,7.31,-12.73,-12.77,0.76
31,-18.09,-18.84,-18.23,-18.99,6.00,7.46,-12.09,-12.23,0.75
32,-17.69,-18.44,-17.71,-18.46,6.00,7.49,-11.69,-11.71,0.75
33,-17.30,-18.04,-17.20,-17.94,6.00,7.41,-11.30,-11.20,0.74
34,-16.72,-17.45,-16.70,-17.43,6.00,7.25,-10.72,-10.70,0.74
35,-16.37,-17.10,-16.21,-16.94,6.00,7.03,-10.37,-10.21,0.73
36,-15.60,-16.32,-15.72,-16.44,6.00,6.79,-9.60,-9.72,0.72
37,-15.30,-16.01,-15.24,-15.95,6.00,6.53,-9.30,-9.24,0.71
38,-14.65,-15.35,-14.77,-15.47,6.00,6.29,-8.65,-8.77,0.70
39,-14.28,-14.97,-14.30,-14.99,6.00,6.05,-8.28,-8.30,0.69
40,-13.96,-14.64,-13.83,-14.51,6.00,5.84,-7.96,-7.83,0.68
41,-13.29,-13.96,-13.38,-14.05,6.00,5.65,-7.29,-7.38,0.67
42,-13.08,-13.74,-12.93,-13.59,6.00,5.49,-7.08,-6.93,0.66
43,-12.39,-13.03,-12.49,-13.14,6.00,5.36,-6.39,-6.49,0.64
44,-12.06,-12.69,-12.07,-12.70,6.00,5.25,-6.06,-6.07,0.63
45,-11.75,-12.36,-11.66,-12.28,6.00,5.16,-5.75,-5.66,0.62
46,-11.09,-11.69,-11.26,-11.86,6.00,5.09,-5.09,-5.26,0.60
47,-10.86,-11.44,-10.87,-11.45,6.00,5.05,-4.86,-4.87,0.58
48,-10.50,-11.07,-10.49,-11.06,6.00,5.02,-4.50,-4.49,0.57
49,-10.29,-10.84,-10.12,-10.67,6.00,5.01,-4.29,-4.12,0.55
50,-9.67,-10.20,-9.75,-10.28,6.00,5.00,-3.67,-3.75,0.53
51,-9.41,-9.92,-9.39,-9.90,6.00,5.01,-3.41,-3.39,0.51
52,-9.04,-9.53,-9.03,-9.52,6.00,5.02,-3.04,-3.03,0.49
53,-8.67,-9.14,-8.67,-9.14,6.00,5.04,-2.67,-2.67,0.47
54,-8.31,-8.75,-8.33,-8.77,6.00,5.06,-2.31,-2.33,0.45
55,-7.96,-8.38,-7.98,-8.41,6.00,5.07,-1.96,-1.98,0.42
56,-7.61,-8.01,-7.65,-8.05,6.00,5.08,-1.61,-1.65,0.40
57,-7.34,-7.71,-7.32,-7.70,6.00,5.08,-1.34,-1.32,0.37
58,-7.03,-7.37,-7.00,-7.35,6.00,5.07,-1.03,-1.00,0.35
59,-6.70,-7.02,-6.68,-7.00,6.00,5.05,-0.70,-0.68,0.32
60,-6.40,-6.69,-6.36,-6.65,5.95,5.01,-0.45,-0.41,0.29
61,-6.04,-6.30,-6.05,-6.31,5.85,4.96,-0.19,-0.20,0.26
62,-5.75,-5.98,-5.74,-5.97,5.70,4.89,-0.05,-0.04,0.23
63,-5.39,-5.59,-5.43,-5.63,5.50,4.81,0.11,0.07,0.20
64,-5.12,-5.29,-5.13,-5.30,5.26,4.71,0.14,0.13,0.17
65,-4.86,-5.00,-4.83,-4.97,4.97,4.60,0.12,0.14,0.14
66,-4.52,-4.62,-4.55,-4.66,4.66,4.48,0.14,0.11,0.11
67,-4.28,-4.35,-4.28,-4.35,4.35,4.34,0.07,0.07,0.07
68,-4.03,-4.06,-4.02,-4.06,4.06,4.20,0.03,0.04,0.04
69,-3.91,-3.91,-3.77,-3.78,3.78,4.04,-0.13,0.00,0.00
70,-3.47,-3.43,-3.54,-3.51,3.51,3.88,0.04,-0.03,-0.03
71,-3.15,-3.08,-3.32,-3.25,3.25,3.72,0.10,-0.07,-0.07
72,-3.12,-3.01,-3.11,-3.01,3.01,3.55,-0.11,-0.11,-0.11
73,-2.90,-2.75,-2.91,-2.77,2.77,3.38,-0.13,-0.15,-0.15
74,-2.77,-2.58,-2.72,-2.53,2.53,3.21,-0.24,-0.18,-0.18
75,-2.69,-2.46,-2.52,-2.29,2.29,3.04,-0.39,-0.22,-0.22
76,-2.38,-2.12,-2.32,-2.06,2.06,2.86,-0.32,-0.26,-0.26
77,-2.04,-1.74,-2.12,-1.82,1.82,2.69,-0.22,-0.30,-0.30
78,-1.91,-1.57,-1.93,-1.59,1.59,2.53,-0.32,-0.34,-0.34
79,-1.73,-1.35,-1.75,-1.36,1.36,2.36,-0.36,-0.38,-0.38
80,-1.59,-1.16,-1.57,-1.15,1.15,2.19,-0.44,-0.42,-0.42
81,-1.40,-0.93,-1.42,-0.96,0.96,2.03,-0.44,-0.46,-0.46
82,-1.23,-0.72,-1.28,-0.78,0.78,1.87,-0.45,-0.51,-0.51
83,-0.99,-0.44,-1.15,-0.61,0.61,1.72,-0.38,-0.55,-0.55
84,-1.01,-0.42,-1.04,-0.45,0.45,1.56,-0.56,-0.59,-0.59
85,-1.22,-0.59,-0.93,-0.30,0.30,1.41,-0.92,-0.63,-0.63
86,-0.90,-0.23,-0.82,-0.15,0.15,1.26,-0.75,-0.67,-0.67
87,-0.68,0.03,-0.71,0.00,-0.00,1.11,-0.68,-0.71,-0.71
88,-0.59,0.17,-0.61,0.15,-0.15,0.97,-0.74,-0.75,-0.75
89,-0.43,0.37,-0.51,0.29,-0.29,0.83,-0.72,-0.80,-0.80
90,-0.42,0.42,-0.42,0.42,-0.42,0.69,-0.84,-0.84,-0.84
91,-0.31,0.57,-0.34,0.53,-0.53,0.55,-0.84,-0.88,-0.88
92,-0.22,0.70,-0.28,0.64,-0.64,0.42,-0.86,-0.92,-0.92
93,-0.19,0.77,-0.23,0.74,-0.74,0.28,-0.92,-0.96,-0.96
94,-0.17,0.83,-0.18,0.82,-0.82,0.15,-0.99,-1.00,-1.00
95,-0.30,0.75,-0.13,0.91,-0.91,0.02,-1.21,-1.04,-1.04
96,-0.20,0.89,-0.09,0.99,-0.99,-0.10,-1.19,-1.08,-1.08
97,-0.03,1.10,-0.05,1.07,-1.07,-0.23,-1.10,-1.12,-1.12
98,-0.04,1.13,-0.01,1.16,-1.16,-0.35,-1.19,-1.16,-1.16
99,0.14,1.35,0.03,1.23,-1.23,-0.47,-1.09,-1.21,-1.20
100,0.21,1.45,0.05,1.30,-1.30,-0.58,-1.09,-1.25,-1.24
101,0.02,1.30,0.06,1.35,-1.35,-0.70,-1.33,-1.29,-1.28
102,0.00,1.32,0.06,1.39,-1.39,-0.81,-1.39,-1.33,-1.32
104,-0.02,1.38,0.04,1.42,-1.42,-1.03,-1.44,-1.38,-1.39
105,-0.04,1.39,0.01,1.43,-1.43,-1.13,-1.47,-1.42,-1.43
106,-0.03,1.44,-0.03,1.43,-1.43,-1.24,-1.46,-1.46,-1.47
107,0.09,1.59,-0.08,1.42,-1.42,-1.33,-1.33,-1.50,-1.50
108,-0.05,1.49,-0.13,1.40,-1.40,-1.43,-1.45,-1.53,-1.53
109,-0.24,1.33,-0.19,1.38,-1.38,-1.52,-1.62,-1.57,-1.57
110,-0.26,1.34,-0.24,1.36,-1.36,-1.61,-1.62,-1.60,-1.60
111,-0.30,1.33,-0.28,1.36,-1.36,-1.70,-1.65,-1.63,-1.63
112,-0.45,1.21,-0.30,1.36,-1.36,-1.78,-1.81,-1.66,-1.66
113,-0.46,1.23,-0.30,1.39,-1.39,-1.85,-1.85,-1.69,-1.69
114,-0.20,1.52,-0.29,1.43,-1.43,-1.93,-1.63,-1.72,-1.72
115,-0.20,1.55,-0.27,1.48,-1.48,-2.00,-1.68,-1.75,-1.74
117,-0.20,1.60,-0.25,1.54,-1.54,-2.12,-1.74,-1.78,-1.80
118,-0.20,1.62,-0.22,1.60,-1.60,-2.18,-1.79,-1.81,-1.82
119,-0.19,1.66,-0.20,1.65,-1.65,-2.23,-1.84,-1.84,-1.85
120,-0.18,1.69,-0.17,1.70,-1.70,-2.28,-1.88,-1.87,-1.87
121,-0.18,1.71,-0.16,1.74,-1.74,-2.32,-1.92,-1.90,-1.89
123,-0.17,1.77,-0.15,1.78,-1.78,-2.40,-1.94,-1.93,-1.94
124,-0.16,1.80,-0.14,1.81,-1.81,-2.43,-1.96,-1.95,-1.95
125,-0.15,1.82,-0.14,1.83,-1.83,-2.45,-1.98,-1.97,-1.97
126,-0.15,1.84,-0.15,1.85,-1.85,-2.47,-2.00,-2.00,-1.99
128,-0.14,1.89,-0.16,1.86,-1.86,-2.50,-2.00,-2.02,-2.03
129,-0.13,1.92,-0.17,1.87,-1.87,-2.51,-2.00,-2.04,-2.05
130,-0.13,1.93,-0.19,1.87,-1.87,-2.52,-2.00,-2.06,-2.06
131,-0.12,1.96,-0.20,1.88,-1.88,-2.52,-2.00,-2.08,-2.08
133,-0.36,1.75,-0.21,1.89,-1.89,-2.52,-2.25,-2.11,-2.11
134,-0.36,1.77,-0.22,1.91,-1.91,-2.51,-2.27,-2.13,-2.13
135,-0.24,1.90,-0.21,1.94,-1.94,-2.50,-2.18,-2.15,-2.14
137,-0.21,1.97,-0.20,1.97,-1.97,-2.48,-2.18,-2.17,-2.17
138,-0.21,1.98,-0.19,2.00,-2.00,-2.46,-2.21,-2.19,-2.19
140,-0.07,2.15,-0.19,2.03,-2.03,-2.42,-2.09,-2.21,-2.22
141,-0.04,2.19,-0.19,2.04,-2.04,-2.40,-2.08,-2.23,-2.23
142,-0.21,2.04,-0.21,2.04,-2.04,-2.38,-2.25,-2.25,-2.25
144,-0.30,1.98,-0.24,2.04,-2.04,-2.33,-2.33,-2.27,-2.28
145,-0.30,1.99,-0.27,2.02,-2.02,-2.31,-2.32,-2.29,-2.29
147,-0.30,2.02,-0.31,2.00,-2.00,-2.26,-2.30,-2.31,-2.32
148,-0.30,2.03,-0.35,1.98,-1.98,-2.23,-2.28,-2.33,-2.33
150,-0.42,1.94,-0.38,1.98,-1.98,-2.17,-2.40,-2.35,-2.36
151,-0.56,1.81,-0.39,1.98,-1.98,-2.15,-2.54,-2.37,-2.37
153,-0.44,1.96,-0.40,1.99,-1.99,-2.09,-2.43,-2.39,-2.40
154,-0.40,2.01,-0.40,2.01,-2.01,-2.06,-2.41,-2.41,-2.41
156,-0.37,2.07,-0.40,2.03,-2.03,-2.01,-2.39,-2.43,-2.43
157,-0.27,2.18,-0.41,2.04,-2.04,-1.98,-2.31,-2.45,-2.45
159,-0.36,2.11,-0.42,2.05,-2.05,-1.93,-2.40,-2.47,-2.47
160,-0.50,1.98,-0.44,2.04,-2.04,-1.90,-2.54,-2.48,-2.48
162,-0.50,2.00,-0.47,2.03,-2.03,-1.85,-2.53,-2.50,-2.50
164,-0.50,2.02,-0.51,2.01,-2.01,-1.80,-2.51,-2.52,-2.52
165,-0.66,1.87,-0.55,1.98,-1.98,-1.78,-2.64,-2.53,-2.53
167,-0.62,1.93,-0.60,1.94,-1.94,-1.73,-2.56,-2.55,-2.55
169,-0.54,2.03,-0.66,1.90,-1.90,-1.68,-2.44,-2.56,-2.56
170,-0.70,1.87,-0.72,1.85,-1.85,-1.66,-2.55,-2.57,-2.57
172,-0.79,1.80,-0.78,1.80,-1.80,-1.62,-2.59,-2.58,-2.58
174,-0.86,1.74,-0.85,1.75,-1.75,-1.58,-2.60,-2.59,-2.60
175,-0.92,1.68,-0.91,1.69,-1.69,-1.56,-2.61,-2.60,-2.60
177,-0.98,1.63,-0.98,1.63,-1.63,-1.53,-2.61,-2.61,-2.61
179,-1.05,1.57,-1.03,1.58,-1.58,-1.49,-2.63,-2.62,-2.62
181,-1.14,1.49,-1.08,1.54,-1.54,-1.46,-2.68,-2.62,-2.63
183,-1.14,1.49,-1.13,1.50,-1.50,-1.43,-2.64,-2.63,-2.63
184,-1.13,1.50,-1.16,1.48,-1.48,-1.42,-2.60,-2.63,-2.63
186,-1.12,1.52,-1.17,1.46,-1.46,-1.39,-2.58,-2.63,-2.63
188,-1.11,1.53,-1.18,1.45,-1.45,-1.36,-2.56,-2.64,-2.64
190,-1.35,1.29,-1.18,1.46,-1.46,-1.34,-2.80,-2.64,-2.64
192,-1.34,1.30,-1.18,1.46,-1.46,-1.32,-2.80,-2.64,-2.64
194,-1.15,1.49,-1.17,1.47,-1.47,-1.30,-2.62,-2.64,-2.64
196,-0.98,1.67,-1.17,1.47,-1.47,-1.28,-2.45,-2.64,-2.64
198,-1.10,1.55,-1.18,1.47,-1.47,-1.26,-2.57,-2.64,-2.64
200,-1.22,1.43,-1.19,1.45,-1.45,-1.24,-2.67,-2.65,-2.65
202,-1.22,1.43,-1.21,1.44,-1.44,-1.22,-2.65,-2.65,-2.65
204,-1.21,1.44,-1.23,1.41,-1.41,-1.21,-2.62,-2.65,-2.65
206,-1.21,1.44,-1.26,1.39,-1.39,-1.20,-2.60,-2.65,-2.65
208,-1.41,1.24,-1.28,1.37,-1.37,-1.18,-2.78,-2.65,-2.65
210,-1.45,1.20,-1.30,1.35,-1.35,-1.17,-2.80,-2.65,-2.65
212,-1.31,1.34,-1.31,1.34,-1.34,-1.16,-2.65,-2.65,-2.65
214,-1.32,1.33,-1.32,1.32,-1.32,-1.15,-2.64,-2.65,-2.65
216,-1.25,1.40,-1.34,1.31,-1.31,-1.14,-2.55,-2.65,-2.65
218,-1.17,1.48,-1.37,1.28,-1.28,-1.13,-2.45,-2.65,-2.65
221,-1.43,1.22,-1.40,1.25,-1.25,-1.12,-2.67,-2.65,-2.65
223,-1.43,1.22,-1.44,1.21,-1.21,-1.11,-2.63,-2.65,-2.65
225,-1.51,1.14,-1.48,1.16,-1.16,-1.10,-2.67,-2.65,-2.65
227,-1.69,0.96,-1.52,1.13,-1.13,-1.10,-2.81,-2.64,-2.64
229,-1.63,1.01,-1.55,1.09,-1.09,-1.09,-2.72,-2.64,-2.64
232,-1.52,1.12,-1.57,1.07,-1.07,-1.08,-2.58,-2.64,-2.64
234,-1.51,1.13,-1.58,1.05,-1.05,-1.07,-2.56,-2.63,-2.63
236,-1.50,1.13,-1.59,1.04,-1.04,-1.06,-2.54,-2.63,-2.63
239,-1.75,0.88,-1.59,1.04,-1.04,-1.05,-2.79,-2.62,-2.62
241,-1.53,1.09,-1.58,1.04,-1.04,-1.05,-2.57,-2.62,-2.62
244,-1.51,1.11,-1.57,1.04,-1.04,-1.04,-2.55,-2.61,-2.61
246,-1.63,0.98,-1.56,1.04,-1.04,-1.03,-2.67,-2.61,-2.61
248,-1.61,0.99,-1.55,1.04,-1.04,-1.03,-2.65,-2.60,-2.60
251,-1.59,1.00,-1.55,1.04,-1.04,-1.01,-2.63,-2.59,-2.59
253,-1.48,1.10,-1.55,1.03,-1.03,-1.01,-2.51,-2.58,-2.58
256,-1.43,1.15,-1.56,1.02,-1.02,-1.00,-2.44,-2.58,-2.58
259,-1.65,0.92,-1.58,0.99,-0.99,-0.99,-2.64,-2.57,-2.57
261,-1.65,0.91,-1.61,0.95,-0.95,-0.98,-2.60,-2.56,-2.56
264,-1.62,0.94,-1.65,0.91,-0.91,-0.97,-2.52,-2.55,-2.55
266,-1.58,0.97,-1.69,0.86,-0.86,-0.96,-2.43,-2.55,-2.54
269,-1.75,0.79,-1.73,0.80,-0.80,-0.95,-2.55,-2.54,-2.54
272,-1.86,0.67,-1.77,0.76,-0.76,-0.94,-2.61,-2.53,-2.53
274,-1.86,0.67,-1.81,0.71,-0.71,-0.93,-2.57,-2.52,-2.52
277,-1.86,0.66,-1.84,0.68,-0.68,-0.92,-2.54,-2.52,-2.52
280,-1.86,0.65,-1.86,0.65,-0.65,-0.91,-2.51,-2.51,-2.51
283,-1.86,0.65,-1.87,0.64,-0.64,-0.90,-2.49,-2.50,-2.50
286,-1.85,0.65,-1.87,0.63,-0.63,-0.89,-2.47,-2.50,-2.50
288,-1.84,0.65,-1.87,0.62,-0.62,-0.89,-2.46,-2.49,-2.49
291,-1.83,0.66,-1.86,0.63,-0.63,-0.88,-2.45,-2.49,-2.49
294,-1.82,0.66,-1.84,0.64,-0.64,-0.87,-2.46,-2.48,-2.48
297,-1.81,0.67,-1.82,0.66,-0.66,-0.86,-2.47,-2.47,-2.47
300,-1.89,0.58,-1.78,0.69,-0.69,-0.85,-2.58,-2.47,-2.47
303,-1.92,0.55,-1.73,0.74,-0.74,-0.84,-2.66,-2.46,-2.46
306,-1.62,0.84,-1.67,0.79,-0.79,-0.83,-2.41,-2.46,-2.46
309,-1.44,1.01,-1.60,0.85,-0.85,-0.83,-2.29,-2.45,-2.45
312,-1.56,0.89,-1.54,0.90,-0.90,-0.82,-2.46,-2.45,-2.45
316,-1.55,0.89,-1.50,0.95,-0.95,-0.81,-2.49,-2.44,-2.44
319,-1.55,0.89,-1.46,0.97,-0.97,-0.80,-2.52,-2.44,-2.44
322,-1.38,1.05,-1.46,0.98,-0.98,-0.80,-2.35,-2.43,-2.43
325,-1.29,1.14,-1.47,0.96,-0.96,-0.79,-2.24,-2.43,-2.43
328,-1.29,1.13,-1.51,0.92,-0.92,-0.79,-2.20,-2.42,-2.42
332,-1.70,0.72,-1.56,0.86,-0.86,-0.78,-2.56,-2.42,-2.42
335,-1.82,0.60,-1.62,0.80,-0.80,-0.78,-2.61,-2.41,-2.41
338,-1.70,0.71,-1.68,0.73,-0.73,-0.78,-2.43,-2.41,-2.41
342,-1.66,0.75,-1.73,0.68,-0.68,-0.77,-2.34,-2.41,-2.41
345,-1.73,0.68,-1.77,0.64,-0.64,-0.77,-2.36,-2.40,-2.40
349,-1.94,0.46,-1.79,0.61,-0.61,-0.77,-2.55,-2.40,-2.40
352,-1.83,0.57,-1.80,0.59,-0.59,-0.77,-2.42,-2.40,-2.40
356,-1.76,0.64,-1.80,0.59,-0.59,-0.77,-2.35,-2.40,-2.40
359,-1.75,0.65,-1.79,0.60,-0.60,-0.77,-2.35,-2.39,-2.39
363,-1.75,0.64,-1.77,0.62,-0.62,-0.77,-2.37,-2.39,-2.39
366,-1.74,0.65,-1.75,0.65,-0.65,-0.77,-2.38,-2.39,-2.39
370,-1.73,0.66,-1.72,0.67,-0.67,-0.77,-2.40,-2.39,-2.39
374,-1.72,0.67,-1.68,0.70,-0.70,-0.77,-2.42,-2.39,-2.39
377,-1.72,0.67,-1.65,0.73,-0.73,-0.78,-2.45,-2.39,-2.39
381,-1.71,0.67,-1.63,0.76,-0.76,-0.78,-2.47,-2.38,-2.38
385,-1.48,0.90,-1.60,0.78,-0.78,-0.78,-2.25,-2.38,-2.38
389,-1.43,0.95,-1.59,0.79,-0.79,-0.79,-2.22,-2.38,-2.37
393,-1.59,0.78,-1.58,0.79,-0.79,-0.79,-2.38,-2.37,-2.37
397,-1.59,0.77,-1.57,0.79,-0.79,-0.80,-2.38,-2.36,-2.36
401,-1.59,0.76,-1.57,0.79,-0.79,-0.80,-2.37,-2.35,-2.35
405,-1.59,0.75,-1.56,0.78,-0.78,-0.81,-2.37,-2.34,-2.34
409,-1.60,0.73,-1.55,0.78,-0.78,-0.82,-2.38,-2.33,-2.33
413,-1.60,0.71,-1.53,0.78,-0.78,-0.82,-2.38,-2.31,-2.31
417,-1.60,0.69,-1.50,0.79,-0.79,-0.83,-2.39,-2.29,-2.29
421,-1.28,0.99,-1.47,0.80,-0.80,-0.84,-2.08,-2.27,-2.27
425,-1.27,0.98,-1.43,0.81,-0.81,-0.84,-2.08,-2.24,-2.24
430,-1.48,0.74,-1.39,0.82,-0.82,-0.85,-2.30,-2.21,-2.22
434,-1.46,0.73,-1.34,0.84,-0.84,-0.86,-2.30,-2.18,-2.18
438,-1.41,0.74,-1.29,0.86,-0.86,-0.87,-2.26,-2.15,-2.15
443,-1.06,1.06,-1.24,0.88,-0.88,-0.88,-1.93,-2.11,-2.11
447,-1.12,0.96,-1.17,0.90,-0.90,-0.89,-2.02,-2.08,-2.08
451,-1.20,0.84,-1.11,0.93,-0.93,-0.89,-2.13,-2.04,-2.04
456,-1.14,0.86,-1.04,0.96,-0.96,-0.90,-2.10,-2.00,-2.00
460,-1.08,0.88,-0.97,0.99,-0.99,-0.91,-2.07,-1.95,-1.95
465,-0.79,1.13,-0.90,1.01,-1.01,-0.92,-1.80,-1.91,-1.91
470,-0.60,1.27,-0.85,1.03,-1.03,-0.93,-1.62,-1.87,-1.87
474,-0.80,1.04,-0.80,1.03,-1.03,-0.94,-1.83,-1.83,-1.83
479,-0.96,0.84,-0.77,1.03,-1.03,-0.95,-1.98,-1.80,-1.80
484,-0.67,1.10,-0.75,1.02,-1.02,-0.96,-1.68,-1.76,-1.76
489,-0.68,1.05,-0.73,1.01,-1.01,-0.97,-1.68,-1.73,-1.73
494,-0.73,0.98,-0.70,1.00,-1.00,-0.98,-1.73,-1.71,-1.70
499,-0.70,0.98,-0.67,1.01,-1.01,-0.99,-1.71,-1.68,-1.68
504,-0.68,0.98,-0.63,1.03,-1.03,-0.99,-1.71,-1.66,-1.66
509,-0.66,0.99,-0.58,1.07,-1.07,-1.00,-1.73,-1.65,-1.65
514,-0.55,1.09,-0.51,1.12,-1.12,-1.01,-1.67,-1.64,-1.64
519,-0.54,1.09,-0.45,1.18,-1.18,-1.02,-1.72,-1.63,-1.63
524,-0.44,1.19,-0.39,1.24,-1.24,-1.03,-1.68,-1.63,-1.63
529,-0.09,1.54,-0.35,1.28,-1.28,-1.04,-1.37,-1.63,-1.63
535,-0.11,1.53,-0.32,1.31,-1.31,-1.05,-1.42,-1.64,-1.64
540,-0.40,1.25,-0.32,1.33,-1.33,-1.05,-1.72,-1.64,-1.64
545,-0.44,1.21,-0.33,1.32,-1.32,-1.06,-1.76,-1.65,-1.65
551,-0.46,1.21,-0.36,1.30,-1.30,-1.07,-1.76,-1.66,-1.66
556,-0.18,1.50,-0.40,1.28,-1.28,-1.08,-1.45,-1.67,-1.67
562,-0.32,1.37,-0.43,1.25,-1.25,-1.09,-1.57,-1.69,-1.69
568,-0.82,0.88,-0.47,1.23,-1.23,-1.10,-2.05,-1.70,-1.70
573,-0.75,0.96,-0.49,1.22,-1.22,-1.11,-1.96,-1.70,-1.70
579,-0.20,1.51,-0.50,1.21,-1.21,-1.12,-1.41,-1.71,-1.71
585,-0.24,1.48,-0.49,1.22,-1.22,-1.13,-1.46,-1.71,-1.71
591,-0.46,1.26,-0.47,1.24,-1.24,-1.14,-1.70,-1.71,-1.71
596,-0.65,1.06,-0.43,1.28,-1.28,-1.15,-1.92,-1.71,-1.71
602,-0.72,0.99,-0.39,1.31,-1.31,-1.17,-2.03,-1.70,-1.70
608,-0.35,1.34,-0.34,1.35,-1.35,-1.18,-1.69,-1.69,-1.69
615,-0.09,1.59,-0.30,1.38,-1.38,-1.20,-1.47,-1.68,-1.68
621,0.07,1.73,-0.25,1.41,-1.41,-1.21,-1.33,-1.66,-1.66
627,-0.17,1.47,-0.21,1.42,-1.42,-1.23,-1.59,-1.63,-1.64
633,-0.27,1.34,-0.17,1.44,-1.44,-1.24,-1.71,-1.61,-1.61
639,-0.40,1.18,-0.13,1.45,-1.45,-1.26,-1.85,-1.58,-1.58
646,-0.06,1.49,-0.08,1.47,-1.47,-1.28,-1.52,-1.55,-1.55
652,0.06,1.58,-0.03,1.49,-1.49,-1.30,-1.42,-1.52,-1.52
659,0.11,1.60,0.03,1.51,-1.51,-1.32,-1.40,-1.48,-1.48
665,-0.10,1.35,0.10,1.55,-1.55,-1.34,-1.65,-1.45,-1.45
672,-0.05,1.37,0.17,1.58,-1.58,-1.36,-1.63,-1.42,-1.42
679,0.38,1.76,0.24,1.62,-1.62,-1.39,-1.24,-1.38,-1.38
686,0.65,2.00,0.30,1.65,-1.65,-1.41,-0.99,-1.35,-1.35
692,0.37,1.69,0.35,1.66,-1.66,-1.43,-1.29,-1.32,-1.32
699,0.15,1.44,0.38,1.67,-1.67,-1.46,-1.52,-1.29,-1.29
706,0.37,1.63,0.40,1.66,-1.66,-1.49,-1.29,-1.26,-1.26
713,0.49,1.72,0.42,1.65,-1.65,-1.52,-1.16,-1.23,-1.23
721,0.48,1.69,0.42,1.63,-1.63,-1.55,-1.14,-1.21,-1.21
728,0.30,1.49,0.42,1.60,-1.60,-1.58,-1.30,-1.19,-1.18
735,0.29,1.46,0.41,1.58,-1.58,-1.61,-1.29,-1.17,-1.16
742,0.63,1.78,0.41,1.56,-1.56,-1.64,-0.92,-1.15,-1.15
750,0.52,1.65,0.40,1.54,-1.54,-1.68,-1.01,-1.13,-1.13
757,0.19,1.31,0.40,1.52,-1.52,-1.71,-1.33,-1.12,-1.12
765,0.43,1.54,0.40,1.51,-1.51,-1.75,-1.08,-1.10,-1.10
773,0.33,1.43,0.41,1.50,-1.50,-1.79,-1.17,-1.09,-1.09
780,0.32,1.41,0.42,1.50,-1.50,-1.83,-1.18,-1.08,-1.08
788,0.59,1.67,0.43,1.50,-1.50,-1.87,-0.91,-1.07,-1.07
796,0.44,1.51,0.44,1.51,-1.51,-1.91,-1.06,-1.07,-1.07
804,0.40,1.46,0.45,1.50,-1.50,-1.95,-1.10,-1.06,-1.06
812,0.41,1.46,0.44,1.49,-1.49,-1.99,-1.08,-1.05,-1.05
820,0.42,1.47,0.42,1.47,-1.47,-2.03,-1.05,-1.04,-1.04
828,0.47,1.51,0.39,1.43,-1.43,-2.07,-0.96,-1.04,-1.04
837,0.40,1.43,0.34,1.37,-1.37,-2.12,-0.97,-1.03,-1.03
845,0.29,1.32,0.27,1.29,-1.29,-2.16,-1.00,-1.02,-1.02
853,0.17,1.19,0.19,1.20,-1.20,-2.20,-1.03,-1.02,-1.02
862,0.06,1.07,0.10,1.11,-1.11,-2.25,-1.04,-1.01,-1.01
871,0.00,1.00,-0.00,1.00,-1.00,-2.29,-1.00,-1.00,-1.00
879,-0.06,0.94,-0.10,0.90,-0.90,-2.33,-0.96,-0.99,-0.99
888,-0.20,0.79,-0.18,0.80,-0.80,-2.37,-1.00,-0.99,-0.99
897,-0.33,0.65,-0.26,0.72,-0.72,-2.42,-1.04,-0.98,-0.98
906,-0.33,0.64,-0.32,0.64,-0.64,-2.46,-0.97,-0.97,-0.97
915,-0.34,0.62,-0.37,0.59,-0.59,-2.50,-0.93,-0.96,-0.96
924,-0.40,0.55,-0.39,0.56,-0.56,-2.54,-0.96,-0.95,-0.95
933,-0.45,0.49,-0.40,0.54,-0.54,-2.57,-0.99,-0.94,-0.94
943,-0.40,0.53,-0.38,0.55,-0.55,-2.61,-0.94,-0.93,-0.93
952,-0.35,0.57,-0.35,0.56,-0.56,-2.65,-0.91,-0.91,-0.91
962,-0.29,0.61,-0.30,0.60,-0.60,-2.68,-0.89,-0.90,-0.90
971,-0.23,0.66,-0.24,0.65,-0.65,-2.71,-0.87,-0.89,-0.89
981,-0.14,0.73,-0.17,0.70,-0.70,-2.74,-0.84,-0.87,-0.87
991,-0.11,0.75,-0.09,0.77,-0.77,-2.77,-0.88,-0.85,-0.85
1001,0.01,0.85,0.01,0.84,-0.84,-2.80,-0.83,-0.83,-0.83
1011,0.15,0.97,0.11,0.92,-0.92,-2.83,-0.77,-0.81,-0.81
1021,0.22,1.01,0.22,1.01,-1.01,-2.85,-0.79,-0.79,-0.79
1031,0.30,1.07,0.35,1.12,-1.12,-2.87,-0.81,-0.77,-0.77
1041,0.46,1.21,0.49,1.23,-1.23,-2.89,-0.77,-0.74,-0.74
1052,0.65,1.37,0.64,1.35,-1.35,-2.91,-0.70,-0.72,-0.72
1062,0.83,1.52,0.81,1.49,-1.49,-2.93,-0.66,-0.69,-0.69
1073,0.97,1.63,0.99,1.64,-1.64,-2.94,-0.67,-0.66,-0.66
1084,1.17,1.80,1.18,1.81,-1.81,-2.96,-0.63,-0.63,-0.63
1094,1.36,1.96,1.39,1.98,-1.98,-2.98,-0.62,-0.59,-0.59
1105,1.59,2.15,1.60,2.16,-2.16,-2.99,-0.57,-0.56,-0.56
1116,1.83,2.36,1.82,2.35,-2.35,-3.00,-0.52,-0.53,-0.53
1128,2.05,2.54,2.05,2.54,-2.54,-3.02,-0.49,-0.49,-0.49
1139,2.32,2.78,2.29,2.74,-2.74,-3.03,-0.42,-0.46,-0.46
1150,2.54,2.97,2.52,2.95,-2.95,-3.05,-0.40,-0.42,-0.42
1162,2.78,3.17,2.76,3.15,-3.15,-3.06,-0.37,-0.39,-0.39
1173,2.96,3.32,3.00,3.36,-3.36,-3.08,-0.40,-0.36,-0.36
1185,3.21,3.54,3.25,3.58,-3.58,-3.10,-0.36,-0.33,-0.33
1197,3.51,3.81,3.49,3.79,-3.79,-3.12,-0.28,-0.30,-0.30
1209,3.76,4.04,3.74,4.02,-4.02,-3.14,-0.25,-0.27,-0.27
1221,3.97,4.22,3.99,4.24,-4.24,-3.16,-0.27,-0.25,-0.25
1233,4.23,4.46,4.25,4.48,-4.48,-3.18,-0.24,-0.23,-0.23
1246,4.57,4.78,4.50,4.71,-4.71,-3.21,-0.14,-0.21,-0.21
1258,4.81,5.01,4.76,4.96,-4.96,-3.23,-0.15,-0.19,-0.19
1271,4.96,5.14,5.03,5.21,-5.21,-3.26,-0.25,-0.18,-0.18
1283,5.25,5.42,5.30,5.47,-5.47,-3.29,-0.22,-0.17,-0.17
1296,5.54,5.71,5.57,5.74,-5.74,-3.33,-0.20,-0.17,-0.17
1309,5.84,6.00,5.85,6.02,-6.02,-3.36,-0.17,-0.16,-0.16
1322,6.13,6.29,6.14,6.30,-6.30,-3.40,-0.17,-0.16,-0.16
1335,6.40,6.56,6.42,6.58,-6.58,-3.44,-0.18,-0.16,-0.16
1349,6.68,6.85,6.69,6.86,-6.86,-3.49,-0.18,-0.17,-0.17
1362,6.93,7.10,6.95,7.12,-7.12,-3.54,-0.19,-0.17,-0.17
1376,7.15,7.33,7.17,7.35,-7.35,-3.59,-0.20,-0.18,-0.18
1390,7.34,7.53,7.36,7.55,-7.55,-3.64,-0.21,-0.19,-0.19
1404,7.55,7.75,7.50,7.70,-7.70,-3.70,-0.15,-0.20,-0.20
1418,7.77,7.98,7.59,7.79,-7.79,-3.76,-0.02,-0.21,-0.21
1432,7.81,8.03,7.62,7.83,-7.83,-3.82,-0.02,-0.22,-0.21
1446,7.48,7.70,7.60,7.82,-7.82,-3.89,-0.34,-0.22,-0.22
1461,7.49,7.72,7.53,7.76,-7.76,-3.96,-0.26,-0.23,-0.23
1475,7.48,7.71,7.43,7.66,-7.66,-4.03,-0.18,-0.23,-0.23
1490,7.33,7.56,7.31,7.54,-7.54,-4.10,-0.21,-0.23,-0.23
1505,7.27,7.50,7.20,7.43,-7.43,-4.18,-0.15,-0.23,-0.23
1520,7.06,7.29,7.10,7.32,-7.32,-4.26,-0.26,-0.22,-0.22
1535,6.94,7.16,7.04,7.25,-7.25,-4.34,-0.31,-0.21,-0.21
1550,6.90,7.10,7.02,7.22,-7.22,-4.43,-0.32,-0.20,-0.20
1566,6.92,7.10,7.06,7.24,-7.24,-4.52,-0.32,-0.18,-0.18
