frequency,raw,error,smoothed,error_smoothed,equalization,parametric_eq,equalized_raw,equalized_smoothed,target
20,-16.64,-18.29,-16.64,-18.29,6.00,5.65,-10.64,-10.64,1.65
21,-15.98,-17.63,-16.03,-17.68,6.00,5.79,-9.98,-10.03,1.65
22,-15.51,-17.16,-15.43,-17.08,6.00,5.92,-9.51,-9.43,1.65
23,-14.80,-16.45,-14.85,-16.50,6.00,6.02,-8.80,-8.85,1.65
24,-14.37,-16.01,-14.29,-15.94,6.00,6.12,-8.37,-8.29,1.65
25,-13.75,-15.40,-13.74,-15.39,6.00,6.19,-7.75,-7.74,1.65
26,-13.17,-14.82,-13.21,-14.86,6.00,6.26,-7.17,-7.21,1.65
27,-12.64,-14.29,-12.70,-14.35,6.00,6.31,-6.64,-6.70,1.65
28,-12.15,-13.79,-12.20,-13.85,6.00,6.35,-6.15,-6.20,1.65
29,-11.90,-13.54,-11.72,-13.37,6.00,6.37,-5.90,-5.72,1.65
30,-11.24,-12.89,-11.26,-12.91,6.00,6.39,-5.24,-5.26,1.65
31,-10.84,-12.49,-10.82,-12.46,6.00,6.39,-4.84,-4.82,1.65
32,-10.32,-11.97,-10.39,-12.04,6.00,6.39,-4.32,-4.39,1.65
33,-9.89,-11.54,-9.99,-11.63,6.00,6.38,-3.89,-3.99,1.65
34,-9.66,-11.30,-9.60,-11.24,6.00,6.36,-3.66,-3.60,1.65
35,-9.28,-10.92,-9.23,-10.87,6.00,6.33,-3.28,-3.23,1.65
36,-8.77,-10.42,-8.87,-10.52,6.00,6.30,-2.77,-2.87,1.65
37,-8.52,-10.16,-8.52,-10.17,6.00,6.25,-2.52,-2.52,1.64
38,-8.28,-9.92,-8.19,-9.83,6.00,6.21,-2.28,-2.19,1.64
39,-7.87,-9.52,-7.86,-9.50,6.00,6.15,-1.87,-1.86,1.64
40,-7.62,-9.26,-7.53,-9.18,6.00,6.09,-1.62,-1.53,1.64
41,-7.20,-8.84,-7.22,-8.86,6.00,6.03,-1.20,-1.22,1.64
42,-6.79,-8.43,-6.91,-8.55,6.00,5.96,-0.79,-0.91,1.64
43,-6.73,-8.37,-6.61,-8.25,6.00,5.89,-0.73,-0.61,1.64
44,-6.27,-7.91,-6.33,-7.97,6.00,5.81,-0.27,-0.33,1.64
45,-6.04,-7.67,-6.07,-7.70,6.00,5.73,-0.04,-0.07,1.64
46,-5.80,-7.44,-5.82,-7.45,6.00,5.65,0.20,0.18,1.64
47,-5.57,-7.21,-5.58,-7.22,6.00,5.56,0.43,0.42,1.63
48,-5.34,-6.97,-5.36,-6.99,6.00,5.47,0.66,0.64,1.63
49,-5.21,-6.84,-5.15,-6.78,6.00,5.38,0.79,0.85,1.63
50,-4.88,-6.51,-4.94,-6.56,6.00,5.28,1.12,1.06,1.63
51,-4.84,-6.46,-4.73,-6.36,5.97,5.19,1.13,1.23,1.62
52,-4.56,-6.18,-4.53,-6.15,5.90,5.09,1.35,1.37,1.62
53,-4.20,-5.82,-4.33,-5.95,5.80,4.99,1.60,1.47,1.62
54,-4.20,-5.82,-4.13,-5.75,5.67,4.88,1.47,1.54,1.61
55,-3.98,-5.58,-3.94,-5.55,5.53,4.78,1.55,1.59,1.61
56,-3.75,-5.35,-3.75,-5.35,5.35,4.67,1.60,1.60,1.60
57,-3.52,-5.12,-3.57,-5.17,5.17,4.56,1.64,1.60,1.60
58,-3.29,-4.88,-3.39,-4.98,4.98,4.46,1.69,1.59,1.59
59,-3.29,-4.88,-3.22,-4.81,4.81,4.35,1.51,1.58,1.58
60,-3.07,-4.65,-3.05,-4.63,4.63,4.24,1.56,1.58,1.58
61,-2.84,-4.41,-2.89,-4.45,4.45,4.12,1.62,1.57,1.57
62,-2.84,-4.40,-2.72,-4.28,4.28,4.01,1.44,1.56,1.56
63,-2.61,-4.16,-2.55,-4.10,4.10,3.90,1.49,1.55,1.55
64,-2.28,-3.82,-2.39,-3.93,3.93,3.79,1.64,1.54,1.54
65,-2.15,-3.68,-2.22,-3.75,3.75,3.67,1.60,1.53,1.53
66,-2.15,-3.66,-2.06,-3.58,3.58,3.56,1.43,1.51,1.51
67,-1.92,-3.42,-1.91,-3.41,3.41,3.45,1.49,1.50,1.50
68,-1.69,-3.18,-1.76,-3.24,3.24,3.33,1.55,1.49,1.49
69,-1.67,-3.14,-1.61,-3.08,3.08,3.22,1.41,1.47,1.47
70,-1.48,-2.94,-1.48,-2.93,2.93,3.10,1.45,1.45,1.45
71,-1.27,-2.70,-1.35,-2.79,2.79,2.99,1.52,1.44,1.44
72,-1.28,-2.69,-1.24,-2.65,2.65,2.88,1.38,1.42,1.42
73,-1.07,-2.47,-1.13,-2.52,2.52,2.76,1.45,1.40,1.40
74,-1.08,-2.46,-1.02,-2.40,2.40,2.65,1.31,1.37,1.37
75,-0.93,-2.27,-0.93,-2.28,2.28,2.54,1.35,1.35,1.35
76,-0.87,-2.20,-0.84,-2.16,2.16,2.43,1.29,1.32,1.32
77,-0.70,-2.00,-0.75,-2.05,2.05,2.32,1.35,1.30,1.30
78,-0.65,-1.92,-0.67,-1.94,1.94,2.21,1.29,1.27,1.27
79,-0.66,-1.90,-0.59,-1.83,1.83,2.10,1.17,1.24,1.24
80,-0.44,-1.65,-0.52,-1.72,1.72,1.99,1.28,1.21,1.21
81,-0.45,-1.63,-0.44,-1.62,1.62,1.88,1.16,1.17,1.17
82,-0.46,-1.60,-0.37,-1.51,1.51,1.78,1.05,1.14,1.14
83,-0.27,-1.37,-0.30,-1.41,1.41,1.67,1.14,1.10,1.10
84,-0.29,-1.35,-0.24,-1.30,1.30,1.57,1.01,1.06,1.06
85,-0.08,-1.10,-0.18,-1.20,1.20,1.47,1.12,1.02,1.02
86,-0.10,-1.08,-0.12,-1.10,1.10,1.37,1.00,0.98,0.98
87,-0.11,-1.05,-0.07,-1.00,1.00,1.27,0.89,0.94,0.94
88,-0.07,-0.96,-0.01,-0.91,0.91,1.17,0.83,0.89,0.89
89,0.10,-0.75,0.03,-0.81,0.81,1.07,0.91,0.84,0.84
90,0.09,-0.70,0.08,-0.72,0.72,0.98,0.81,0.79,0.80
91,0.08,-0.66,0.12,-0.63,0.63,0.88,0.71,0.74,0.74
92,0.07,-0.62,0.15,-0.54,0.54,0.79,0.62,0.69,0.69
93,0.19,-0.45,0.17,-0.47,0.47,0.70,0.66,0.64,0.64
94,0.27,-0.31,0.19,-0.39,0.39,0.61,0.66,0.59,0.58
95,0.25,-0.28,0.20,-0.33,0.33,0.53,0.58,0.53,0.53
96,0.23,-0.24,0.21,-0.26,0.26,0.44,0.49,0.47,0.47
97,0.21,-0.20,0.21,-0.20,0.20,0.36,0.41,0.41,0.41
98,0.19,-0.17,0.21,-0.14,0.14,0.28,0.33,0.35,0.35
99,0.17,-0.13,0.22,-0.07,0.07,0.20,0.24,0.29,0.29
100,0.15,-0.08,0.23,0.00,-0.00,0.12,0.14,0.22,0.23
101,0.16,-0.01,0.24,0.09,-0.09,0.05,0.08,0.15,0.17
102,0.34,0.23,0.25,0.17,-0.17,-0.03,0.17,0.08,0.11
104,0.32,0.34,0.26,0.25,-0.25,-0.17,0.07,0.01,-0.01
105,0.30,0.38,0.26,0.32,-0.32,-0.23,-0.02,-0.06,-0.08
106,0.27,0.41,0.26,0.39,-0.39,-0.30,-0.11,-0.13,-0.14
107,0.24,0.44,0.24,0.44,-0.44,-0.36,-0.20,-0.20,-0.20
108,0.22,0.48,0.22,0.48,-0.48,-0.42,-0.27,-0.26,-0.26
109,0.19,0.51,0.20,0.52,-0.52,-0.48,-0.33,-0.32,-0.32
110,0.16,0.54,0.18,0.55,-0.55,-0.54,-0.39,-0.38,-0.38
111,0.14,0.58,0.15,0.59,-0.59,-0.59,-0.45,-0.44,-0.44
112,0.13,0.62,0.13,0.63,-0.63,-0.64,-0.50,-0.50,-0.49
113,0.11,0.66,0.12,0.68,-0.68,-0.69,-0.56,-0.56,-0.55
114,0.10,0.70,0.11,0.73,-0.73,-0.74,-0.62,-0.61,-0.60
115,0.10,0.75,0.11,0.78,-0.78,-0.79,-0.69,-0.67,-0.65
117,0.09,0.85,0.10,0.84,-0.84,-0.87,-0.75,-0.73,-0.76
118,0.09,0.90,0.10,0.89,-0.89,-0.91,-0.80,-0.79,-0.81
119,0.10,0.95,0.09,0.94,-0.94,-0.95,-0.84,-0.85,-0.85
120,0.10,1.00,0.07,0.98,-0.98,-0.99,-0.88,-0.91,-0.90
121,0.11,1.05,0.05,1.01,-1.01,-1.02,-0.90,-0.96,-0.94
123,0.11,1.15,0.02,1.04,-1.04,-1.08,-0.92,-1.01,-1.03
124,-0.07,1.00,-0.00,1.06,-1.06,-1.11,-1.13,-1.06,-1.07
125,-0.10,1.01,-0.03,1.08,-1.08,-1.14,-1.18,-1.11,-1.11
126,-0.10,1.05,-0.05,1.11,-1.11,-1.16,-1.20,-1.16,-1.14
128,-0.09,1.13,-0.07,1.14,-1.14,-1.21,-1.23,-1.20,-1.22
129,-0.09,1.16,-0.08,1.17,-1.17,-1.23,-1.25,-1.24,-1.25
130,-0.08,1.20,-0.09,1.20,-1.20,-1.24,-1.28,-1.28,-1.28
131,-0.08,1.23,-0.10,1.23,-1.23,-1.26,-1.31,-1.32,-1.31
133,-0.08,1.29,-0.12,1.25,-1.25,-1.29,-1.33,-1.36,-1.37
134,-0.08,1.32,-0.14,1.26,-1.26,-1.30,-1.34,-1.40,-1.40
135,-0.08,1.34,-0.18,1.26,-1.26,-1.31,-1.34,-1.44,-1.42
137,-0.31,1.17,-0.22,1.25,-1.25,-1.33,-1.56,-1.47,-1.48
138,-0.31,1.19,-0.27,1.23,-1.23,-1.34,-1.55,-1.51,-1.50
140,-0.32,1.23,-0.33,1.21,-1.21,-1.35,-1.52,-1.54,-1.55
141,-0.32,1.25,-0.38,1.19,-1.19,-1.35,-1.50,-1.57,-1.57
142,-0.43,1.16,-0.43,1.17,-1.17,-1.35,-1.60,-1.60,-1.59
144,-0.55,1.09,-0.47,1.16,-1.16,-1.35,-1.70,-1.63,-1.63
145,-0.55,1.11,-0.50,1.16,-1.16,-1.35,-1.70,-1.66,-1.65
147,-0.54,1.15,-0.52,1.16,-1.16,-1.35,-1.71,-1.69,-1.69
148,-0.54,1.16,-0.54,1.18,-1.18,-1.35,-1.72,-1.71,-1.71
150,-0.54,1.20,-0.55,1.19,-1.19,-1.34,-1.74,-1.74,-1.74
151,-0.55,1.21,-0.56,1.20,-1.20,-1.33,-1.75,-1.76,-1.76
153,-0.55,1.24,-0.57,1.21,-1.21,-1.32,-1.76,-1.78,-1.79
154,-0.55,1.25,-0.59,1.21,-1.21,-1.31,-1.76,-1.81,-1.80
156,-0.56,1.27,-0.62,1.20,-1.20,-1.29,-1.76,-1.83,-1.83
157,-0.58,1.27,-0.66,1.19,-1.19,-1.28,-1.76,-1.85,-1.84
159,-0.79,1.08,-0.70,1.17,-1.17,-1.26,-1.96,-1.87,-1.87
160,-0.80,1.08,-0.74,1.15,-1.15,-1.25,-1.94,-1.88,-1.88
162,-0.80,1.10,-0.77,1.13,-1.13,-1.23,-1.93,-1.90,-1.90
164,-0.81,1.11,-0.79,1.12,-1.12,-1.21,-1.93,-1.92,-1.92
165,-0.82,1.11,-0.81,1.12,-1.12,-1.20,-1.94,-1.93,-1.93
167,-0.83,1.11,-0.83,1.11,-1.11,-1.17,-1.94,-1.94,-1.94
169,-0.84,1.12,-0.84,1.11,-1.11,-1.14,-1.95,-1.95,-1.96
170,-0.84,1.12,-0.86,1.10,-1.10,-1.13,-1.95,-1.96,-1.96
172,-0.85,1.12,-0.89,1.09,-1.09,-1.10,-1.94,-1.97,-1.97
174,-0.85,1.13,-0.91,1.07,-1.07,-1.07,-1.92,-1.98,-1.98
175,-0.85,1.13,-0.95,1.04,-1.04,-1.06,-1.89,-1.99,-1.98
177,-1.07,0.92,-0.98,1.01,-1.01,-1.03,-2.08,-1.99,-1.99
179,-1.08,0.91,-1.01,0.99,-0.99,-1.00,-2.07,-1.99,-1.99
181,-1.08,0.92,-1.03,0.97,-0.97,-0.97,-2.04,-2.00,-2.00
183,-1.07,0.93,-1.04,0.95,-0.95,-0.94,-2.02,-2.00,-2.00
184,-1.06,0.93,-1.05,0.94,-0.94,-0.92,-2.01,-2.00,-2.00
186,-1.05,0.94,-1.06,0.94,-0.94,-0.89,-1.99,-2.00,-2.00
188,-1.04,0.95,-1.06,0.93,-0.93,-0.86,-1.98,-1.99,-1.99
190,-1.03,0.96,-1.07,0.92,-0.92,-0.83,-1.95,-1.99,-1.99
192,-1.03,0.96,-1.09,0.90,-0.90,-0.80,-1.93,-1.99,-1.99
194,-1.02,0.97,-1.11,0.88,-0.88,-0.77,-1.90,-1.99,-1.99
196,-1.18,0.81,-1.14,0.85,-0.85,-0.74,-2.03,-1.98,-1.98
198,-1.24,0.74,-1.16,0.82,-0.82,-0.71,-2.06,-1.98,-1.98
200,-1.24,0.73,-1.19,0.79,-0.79,-0.68,-2.03,-1.98,-1.98
202,-1.24,0.73,-1.22,0.76,-0.76,-0.65,-2.00,-1.97,-1.97
204,-1.25,0.72,-1.24,0.73,-0.73,-0.62,-1.98,-1.97,-1.97
206,-1.25,0.71,-1.27,0.70,-0.70,-0.59,-1.95,-1.97,-1.97
208,-1.25,0.71,-1.29,0.67,-0.67,-0.57,-1.92,-1.96,-1.96
210,-1.26,0.70,-1.32,0.64,-0.64,-0.54,-1.89,-1.96,-1.96
212,-1.26,0.70,-1.36,0.60,-0.60,-0.51,-1.86,-1.95,-1.95
214,-1.46,0.50,-1.39,0.56,-0.56,-0.49,-2.02,-1.95,-1.95
216,-1.49,0.46,-1.42,0.52,-0.52,-0.46,-2.01,-1.95,-1.95
218,-1.50,0.45,-1.45,0.49,-0.49,-0.43,-1.99,-1.94,-1.94
221,-1.50,0.43,-1.48,0.46,-0.46,-0.40,-1.96,-1.94,-1.94
223,-1.51,0.42,-1.51,0.43,-0.43,-0.37,-1.94,-1.93,-1.93
225,-1.52,0.41,-1.53,0.40,-0.40,-0.35,-1.92,-1.93,-1.93
227,-1.53,0.40,-1.55,0.37,-0.37,-0.33,-1.90,-1.92,-1.92
229,-1.53,0.39,-1.58,0.34,-0.34,-0.30,-1.87,-1.92,-1.92
232,-1.53,0.38,-1.60,0.30,-0.30,-0.27,-1.84,-1.91,-1.91
234,-1.57,0.33,-1.63,0.27,-0.27,-0.25,-1.84,-1.90,-1.90
236,-1.76,0.14,-1.66,0.23,-0.23,-0.23,-1.99,-1.89,-1.89
239,-1.75,0.13,-1.68,0.20,-0.20,-0.20,-1.95,-1.88,-1.89
241,-1.74,0.13,-1.70,0.18,-0.18,-0.18,-1.92,-1.88,-1.88
244,-1.73,0.13,-1.71,0.16,-0.16,-0.15,-1.89,-1.87,-1.87
246,-1.72,0.14,-1.71,0.14,-0.14,-0.13,-1.86,-1.86,-1.86
248,-1.70,0.14,-1.71,0.13,-0.13,-0.12,-1.83,-1.85,-1.85
251,-1.68,0.15,-1.72,0.12,-0.12,-0.09,-1.80,-1.84,-1.84
253,-1.67,0.15,-1.73,0.10,-0.10,-0.08,-1.77,-1.83,-1.83
256,-1.66,0.15,-1.75,0.06,-0.06,-0.06,-1.73,-1.81,-1.81
259,-1.86,-0.06,-1.78,0.02,-0.02,-0.03,-1.88,-1.80,-1.80
261,-1.88,-0.09,-1.83,-0.04,0.04,-0.02,-1.85,-1.79,-1.79
264,-1.89,-0.11,-1.89,-0.11,0.11,-0.00,-1.78,-1.78,-1.78
266,-1.90,-0.12,-1.96,-0.18,0.18,0.01,-1.71,-1.77,-1.77
269,-1.97,-0.21,-2.03,-0.27,0.27,0.02,-1.70,-1.76,-1.76
272,-2.14,-0.39,-2.11,-0.35,0.35,0.04,-1.79,-1.75,-1.75
274,-2.15,-0.40,-2.19,-0.44,0.44,0.05,-1.70,-1.75,-1.74
277,-2.30,-0.56,-2.26,-0.52,0.52,0.06,-1.78,-1.74,-1.74
280,-2.38,-0.65,-2.33,-0.60,0.60,0.07,-1.78,-1.73,-1.73
283,-2.38,-0.66,-2.38,-0.66,0.66,0.08,-1.72,-1.72,-1.72
286,-2.39,-0.68,-2.41,-0.70,0.70,0.09,-1.68,-1.71,-1.71
288,-2.39,-0.69,-2.43,-0.72,0.72,0.09,-1.67,-1.70,-1.70
291,-2.40,-0.70,-2.41,-0.72,0.72,0.10,-1.68,-1.69,-1.69
294,-2.40,-0.71,-2.37,-0.68,0.68,0.10,-1.72,-1.69,-1.69
297,-2.41,-0.73,-2.30,-0.62,0.62,0.10,-1.79,-1.68,-1.68
300,-2.21,-0.54,-2.19,-0.52,0.52,0.10,-1.70,-1.67,-1.67
303,-2.19,-0.52,-2.06,-0.40,0.40,0.10,-1.79,-1.66,-1.66
306,-1.94,-0.28,-1.91,-0.25,0.25,0.09,-1.68,-1.66,-1.66
309,-1.69,-0.04,-1.76,-0.11,0.11,0.09,-1.58,-1.65,-1.65
312,-1.54,0.10,-1.61,0.04,-0.04,0.08,-1.58,-1.64,-1.64
316,-1.35,0.29,-1.47,0.17,-0.17,0.06,-1.52,-1.64,-1.64
319,-1.33,0.30,-1.35,0.28,-0.28,0.05,-1.61,-1.63,-1.63
322,-1.33,0.29,-1.27,0.36,-0.36,0.03,-1.69,-1.62,-1.62
325,-1.14,0.48,-1.21,0.41,-0.41,0.01,-1.55,-1.62,-1.62
328,-1.16,0.45,-1.18,0.43,-0.43,-0.01,-1.59,-1.61,-1.61
332,-1.18,0.42,-1.17,0.43,-0.43,-0.04,-1.62,-1.61,-1.61
335,-1.21,0.39,-1.19,0.41,-0.41,-0.06,-1.62,-1.60,-1.60
338,-1.23,0.36,-1.23,0.37,-0.37,-0.08,-1.60,-1.60,-1.60
342,-1.26,0.34,-1.28,0.32,-0.32,-0.11,-1.57,-1.59,-1.59
345,-1.27,0.31,-1.33,0.26,-0.26,-0.13,-1.53,-1.59,-1.59
349,-1.37,0.21,-1.39,0.19,-0.19,-0.15,-1.56,-1.58,-1.58
352,-1.53,0.05,-1.44,0.14,-0.14,-0.17,-1.67,-1.58,-1.58
356,-1.54,0.03,-1.49,0.08,-0.08,-0.18,-1.63,-1.58,-1.58
359,-1.55,0.02,-1.53,0.04,-0.04,-0.18,-1.60,-1.57,-1.57
363,-1.57,0.00,-1.56,0.01,-0.01,-0.18,-1.57,-1.57,-1.57
366,-1.58,-0.01,-1.58,-0.01,0.01,-0.17,-1.56,-1.57,-1.57
370,-1.59,-0.02,-1.59,-0.03,0.03,-0.15,-1.56,-1.57,-1.57
374,-1.59,-0.03,-1.60,-0.04,0.04,-0.12,-1.56,-1.56,-1.56
377,-1.60,-0.04,-1.60,-0.04,0.04,-0.09,-1.55,-1.56,-1.56
381,-1.60,-0.04,-1.61,-0.05,0.05,-0.06,-1.55,-1.56,-1.56
385,-1.60,-0.05,-1.61,-0.06,0.06,-0.02,-1.55,-1.55,-1.55
389,-1.61,-0.06,-1.61,-0.07,0.07,0.02,-1.54,-1.55,-1.55
393,-1.62,-0.08,-1.62,-0.08,0.08,0.07,-1.54,-1.54,-1.54
397,-1.63,-0.09,-1.63,-0.10,0.10,0.11,-1.53,-1.53,-1.53
401,-1.64,-0.12,-1.64,-0.12,0.12,0.14,-1.52,-1.52,-1.52
405,-1.65,-0.14,-1.65,-0.14,0.14,0.18,-1.51,-1.51,-1.51
409,-1.66,-0.17,-1.66,-0.17,0.17,0.22,-1.49,-1.49,-1.50
413,-1.67,-0.19,-1.67,-0.20,0.20,0.25,-1.48,-1.48,-1.48
417,-1.68,-0.22,-1.68,-0.22,0.22,0.28,-1.46,-1.46,-1.46
421,-1.68,-0.25,-1.68,-0.25,0.25,0.30,-1.44,-1.43,-1.44
425,-1.68,-0.27,-1.68,-0.27,0.27,0.33,-1.41,-1.41,-1.41
430,-1.67,-0.29,-1.67,-0.29,0.29,0.35,-1.39,-1.38,-1.38
434,-1.66,-0.31,-1.65,-0.30,0.30,0.37,-1.36,-1.35,-1.35
438,-1.63,-0.32,-1.62,-0.31,0.31,0.39,-1.32,-1.31,-1.32
443,-1.60,-0.32,-1.59,-0.32,0.32,0.41,-1.28,-1.28,-1.28
447,-1.56,-0.32,-1.56,-0.32,0.32,0.43,-1.24,-1.24,-1.24
451,-1.51,-0.31,-1.51,-0.31,0.31,0.44,-1.20,-1.20,-1.20
456,-1.47,-0.31,-1.47,-0.31,0.31,0.45,-1.16,-1.16,-1.16
460,-1.42,-0.30,-1.42,-0.30,0.30,0.46,-1.12,-1.12,-1.12
465,-1.37,-0.29,-1.37,-0.29,0.29,0.48,-1.08,-1.08,-1.08
470,-1.32,-0.29,-1.32,-0.29,0.29,0.49,-1.03,-1.04,-1.03
474,-1.27,-0.28,-1.28,-0.28,0.28,0.49,-0.99,-1.00,-1.00
479,-1.23,-0.27,-1.24,-0.28,0.28,0.50,-0.96,-0.96,-0.96
484,-1.19,-0.27,-1.20,-0.27,0.27,0.51,-0.92,-0.92,-0.92
489,-1.16,-0.27,-1.17,-0.27,0.27,0.51,-0.89,-0.89,-0.89
494,-1.14,-0.28,-1.14,-0.28,0.28,0.52,-0.86,-0.87,-0.86
499,-1.12,-0.28,-1.12,-0.28,0.28,0.52,-0.84,-0.84,-0.84
504,-1.12,-0.29,-1.11,-0.29,0.29,0.53,-0.83,-0.82,-0.82
509,-1.11,-0.31,-1.11,-0.30,0.30,0.53,-0.81,-0.81,-0.81
514,-1.12,-0.32,-1.12,-0.32,0.32,0.53,-0.80,-0.80,-0.80
519,-1.13,-0.34,-1.13,-0.34,0.34,0.53,-0.78,-0.79,-0.79
524,-1.15,-0.36,-1.16,-0.37,0.37,0.54,-0.77,-0.79,-0.79
529,-1.18,-0.39,-1.20,-0.41,0.41,0.54,-0.77,-0.79,-0.79
535,-1.22,-0.42,-1.24,-0.44,0.44,0.54,-0.77,-0.79,-0.79
540,-1.27,-0.47,-1.28,-0.48,0.48,0.54,-0.79,-0.80,-0.80
545,-1.32,-0.51,-1.33,-0.51,0.51,0.54,-0.81,-0.81,-0.81
551,-1.39,-0.57,-1.37,-0.55,0.55,0.54,-0.84,-0.82,-0.82
556,-1.46,-0.62,-1.40,-0.57,0.57,0.54,-0.88,-0.83,-0.83
562,-1.52,-0.68,-1.43,-0.59,0.59,0.54,-0.93,-0.84,-0.84
568,-1.44,-0.59,-1.46,-0.60,0.60,0.54,-0.84,-0.85,-0.85
573,-1.41,-0.55,-1.47,-0.61,0.61,0.54,-0.79,-0.86,-0.86
579,-1.45,-0.59,-1.49,-0.62,0.62,0.54,-0.83,-0.87,-0.87
585,-1.49,-0.62,-1.51,-0.64,0.64,0.54,-0.86,-0.87,-0.87
591,-1.52,-0.65,-1.52,-0.65,0.65,0.54,-0.87,-0.87,-0.87
596,-1.55,-0.68,-1.53,-0.67,0.67,0.54,-0.88,-0.87,-0.87
602,-1.56,-0.70,-1.55,-0.69,0.69,0.54,-0.87,-0.86,-0.86
608,-1.56,-0.72,-1.56,-0.71,0.71,0.54,-0.85,-0.85,-0.85
615,-1.56,-0.73,-1.57,-0.74,0.74,0.54,-0.83,-0.83,-0.83
621,-1.56,-0.74,-1.57,-0.76,0.76,0.54,-0.80,-0.81,-0.81
627,-1.55,-0.75,-1.56,-0.77,0.77,0.54,-0.78,-0.79,-0.79
633,-1.53,-0.77,-1.54,-0.77,0.77,0.55,-0.76,-0.76,-0.76
639,-1.51,-0.77,-1.50,-0.76,0.76,0.55,-0.75,-0.74,-0.74
646,-1.49,-0.78,-1.45,-0.75,0.75,0.55,-0.74,-0.71,-0.71
652,-1.46,-0.78,-1.39,-0.72,0.72,0.55,-0.74,-0.67,-0.67
659,-1.42,-0.78,-1.32,-0.68,0.68,0.56,-0.74,-0.64,-0.64
665,-1.19,-0.58,-1.24,-0.64,0.64,0.56,-0.55,-0.61,-0.60
672,-1.10,-0.53,-1.17,-0.60,0.60,0.57,-0.50,-0.57,-0.57
679,-1.06,-0.52,-1.10,-0.57,0.57,0.57,-0.49,-0.54,-0.54
686,-1.01,-0.51,-1.05,-0.54,0.54,0.58,-0.47,-0.50,-0.50
692,-0.98,-0.51,-1.00,-0.53,0.53,0.59,-0.45,-0.47,-0.47
699,-0.96,-0.52,-0.97,-0.53,0.53,0.59,-0.43,-0.44,-0.44
706,-0.95,-0.54,-0.95,-0.54,0.54,0.60,-0.41,-0.41,-0.41
713,-0.96,-0.57,-0.94,-0.55,0.55,0.61,-0.40,-0.39,-0.39
721,-0.97,-0.61,-0.93,-0.57,0.57,0.62,-0.40,-0.36,-0.36
728,-1.00,-0.66,-0.93,-0.59,0.59,0.63,-0.41,-0.34,-0.34
735,-0.94,-0.62,-0.92,-0.60,0.60,0.64,-0.34,-0.32,-0.32
742,-0.84,-0.54,-0.92,-0.62,0.62,0.65,-0.22,-0.30,-0.30
750,-0.87,-0.59,-0.93,-0.64,0.64,0.66,-0.23,-0.29,-0.28
757,-0.91,-0.64,-0.93,-0.66,0.66,0.67,-0.25,-0.27,-0.27
765,-0.94,-0.68,-0.94,-0.68,0.68,0.68,-0.25,-0.26,-0.26
773,-0.96,-0.71,-0.95,-0.70,0.70,0.68,-0.26,-0.25,-0.25
780,-0.97,-0.74,-0.95,-0.71,0.71,0.68,-0.26,-0.24,-0.24
788,-0.98,-0.75,-0.94,-0.71,0.71,0.68,-0.27,-0.23,-0.23
796,-0.98,-0.76,-0.92,-0.70,0.70,0.68,-0.28,-0.22,-0.22
804,-0.98,-0.77,-0.90,-0.68,0.68,0.67,-0.30,-0.21,-0.21
812,-0.77,-0.57,-0.86,-0.66,0.66,0.65,-0.12,-0.20,-0.20
820,-0.75,-0.55,-0.82,-0.62,0.62,0.64,-0.13,-0.20,-0.20
828,-0.74,-0.55,-0.77,-0.58,0.58,0.61,-0.16,-0.19,-0.19
837,-0.73,-0.55,-0.71,-0.53,0.53,0.59,-0.20,-0.18,-0.18
845,-0.72,-0.54,-0.66,-0.49,0.49,0.56,-0.23,-0.18,-0.18
853,-0.71,-0.54,-0.62,-0.45,0.45,0.53,-0.26,-0.17,-0.17
862,-0.52,-0.35,-0.57,-0.41,0.41,0.49,-0.11,-0.16,-0.16
871,-0.46,-0.31,-0.53,-0.38,0.38,0.45,-0.08,-0.15,-0.15
879,-0.45,-0.31,-0.50,-0.35,0.35,0.41,-0.10,-0.15,-0.15
888,-0.45,-0.31,-0.47,-0.33,0.33,0.37,-0.12,-0.14,-0.14
897,-0.45,-0.32,-0.44,-0.31,0.31,0.33,-0.13,-0.13,-0.13
906,-0.45,-0.32,-0.42,-0.30,0.30,0.29,-0.15,-0.12,-0.12
915,-0.45,-0.34,-0.39,-0.28,0.28,0.25,-0.17,-0.11,-0.11
924,-0.45,-0.35,-0.35,-0.25,0.25,0.21,-0.20,-0.10,-0.10
933,-0.24,-0.15,-0.31,-0.22,0.22,0.17,-0.02,-0.09,-0.09
943,-0.23,-0.15,-0.27,-0.19,0.19,0.12,-0.04,-0.08,-0.08
952,-0.23,-0.16,-0.22,-0.16,0.16,0.09,-0.08,-0.07,-0.07
962,-0.23,-0.18,-0.17,-0.12,0.12,0.04,-0.11,-0.05,-0.05
971,-0.11,-0.07,-0.13,-0.09,0.09,0.01,-0.02,-0.04,-0.04
981,-0.01,0.02,-0.08,-0.06,0.06,-0.03,0.05,-0.02,-0.02
991,-0.01,0.00,-0.04,-0.03,0.03,-0.07,0.03,-0.01,-0.01
1001,0.00,-0.01,0.01,-0.01,0.01,-0.11,0.01,0.01,0.01
1011,0.01,-0.02,0.05,0.02,-0.02,-0.15,-0.01,0.03,0.03
1021,0.02,-0.03,0.10,0.04,-0.04,-0.18,-0.02,0.06,0.05
1031,0.15,0.07,0.15,0.07,-0.07,-0.22,0.08,0.08,0.08
1041,0.28,0.18,0.21,0.10,-0.10,-0.25,0.18,0.10,0.10
1052,0.29,0.16,0.27,0.14,-0.14,-0.29,0.15,0.13,0.13
1062,0.30,0.14,0.34,0.18,-0.18,-0.33,0.13,0.16,0.16
1073,0.33,0.14,0.41,0.22,-0.22,-0.37,0.12,0.19,0.19
1084,0.55,0.32,0.48,0.26,-0.26,-0.40,0.29,0.22,0.22
1094,0.56,0.30,0.55,0.30,-0.30,-0.44,0.26,0.25,0.25
1105,0.57,0.28,0.63,0.34,-0.34,-0.48,0.23,0.29,0.29
1116,0.73,0.41,0.70,0.38,-0.38,-0.51,0.35,0.32,0.32
1128,0.83,0.48,0.77,0.42,-0.42,-0.56,0.42,0.36,0.36
1139,0.85,0.46,0.84,0.45,-0.45,-0.60,0.40,0.39,0.39
1150,0.87,0.44,0.91,0.49,-0.49,-0.63,0.38,0.42,0.42
1162,0.95,0.49,0.98,0.52,-0.52,-0.68,0.42,0.46,0.46
1173,1.11,0.63,1.05,0.56,-0.56,-0.72,0.55,0.49,0.49
1185,1.12,0.60,1.12,0.60,-0.60,-0.76,0.51,0.52,0.52
1197,1.12,0.57,1.20,0.65,-0.65,-0.80,0.47,0.55,0.55
1209,1.32,0.75,1.27,0.70,-0.70,-0.85,0.62,0.57,0.57
1221,1.35,0.75,1.35,0.75,-0.75,-0.90,0.60,0.60,0.60
1233,1.39,0.77,1.43,0.81,-0.81,-0.94,0.58,0.62,0.62
1246,1.60,0.96,1.51,0.87,-0.87,-0.99,0.72,0.64,0.64
1258,1.61,0.95,1.60,0.94,-0.94,-1.04,0.67,0.65,0.65
1271,1.62,0.95,1.68,1.02,-1.02,-1.10,0.60,0.67,0.67
1283,1.80,1.12,1.77,1.10,-1.10,-1.15,0.70,0.68,0.68
1296,1.87,1.18,1.87,1.19,-1.19,-1.20,0.68,0.68,0.68
1309,1.89,1.20,1.97,1.29,-1.29,-1.26,0.60,0.69,0.69
1322,2.12,1.43,2.08,1.40,-1.40,-1.32,0.72,0.69,0.69
1335,2.20,1.52,2.20,1.51,-1.51,-1.38,0.69,0.68,0.68
1349,2.37,1.69,2.31,1.63,-1.63,-1.44,0.74,0.68,0.68
1362,2.38,1.71,2.43,1.76,-1.76,-1.50,0.62,0.67,0.67
1376,2.57,1.91,2.55,1.88,-1.88,-1.57,0.69,0.67,0.67
1390,2.62,1.96,2.67,2.01,-2.01,-1.64,0.60,0.66,0.66
1404,2.84,2.19,2.79,2.14,-2.14,-1.72,0.71,0.65,0.65
1418,2.91,2.27,2.90,2.26,-2.26,-1.79,0.65,0.64,0.64
1432,3.07,2.43,3.01,2.38,-2.38,-1.87,0.68,0.63,0.63
1446,3.06,2.44,3.13,2.50,-2.50,-1.95,0.56,0.63,0.63
1461,3.23,2.62,3.24,2.62,-2.62,-2.04,0.62,0.62,0.62
1475,3.29,2.68,3.35,2.73,-2.73,-2.12,0.56,0.62,0.62
1490,3.52,2.91,3.45,2.84,-2.84,-2.21,0.68,0.62,0.61
1505,3.56,2.94,3.56,2.95,-2.95,-2.31,0.61,0.62,0.62
1520,3.75,3.12,3.67,3.05,-3.05,-2.40,0.70,0.62,0.62
1535,3.75,3.11,3.79,3.16,-3.16,-2.50,0.59,0.63,0.63
1550,3.88,3.23,3.91,3.26,-3.26,-2.61,0.62,0.65,0.65
1566,3.99,3.32,4.04,3.37,-3.37,-2.72,0.62,0.67,0.67
1582,4.22,3.53,4.17,3.48,-3.48,-2.84,0.74,0.69,0.69
1597,4.26,3.54,4.31,3.59,-3.59,-2.95,0.67,0.72,0.72
1613,4.50,3.75,4.47,3.71,-3.71,-3.07,0.79,0.76,0.75
1629,4.60,3.80,4.63,3.83,-3.83,-3.19,0.77,0.80,0.79
1646,4.77,3.93,4.79,3.95,-3.95,-3.33,0.82,0.84,0.84
1662,4.93,4.04,4.96,4.06,-4.06,-3.46,0.87,0.89,0.89
