frequency,raw,error,smoothed,error_smoothed,equalization,parametric_eq,equalized_raw,equalized_smoothed,target
20,-0.64,-2.77,-0.67,-2.79,2.79,-0.51,2.15,2.12,2.13
21,-0.18,-2.31,-0.19,-2.31,2.31,-0.57,2.13,2.12,2.13
22,0.27,-1.86,0.27,-1.85,1.85,-0.64,2.12,2.12,2.13
23,0.69,-1.43,0.71,-1.41,1.41,-0.72,2.10,2.12,2.13
24,1.10,-1.02,1.13,-0.99,0.99,-0.80,2.09,2.12,2.12
25,1.51,-0.61,1.53,-0.59,0.59,-0.88,2.10,2.12,2.12
26,1.90,-0.21,1.91,-0.20,0.20,-0.97,2.11,2.11,2.12
27,2.26,0.15,2.27,0.16,-0.16,-1.05,2.10,2.11,2.11
28,2.60,0.49,2.61,0.50,-0.50,-1.13,2.10,2.11,2.11
29,2.93,0.83,2.93,0.83,-0.83,-1.21,2.10,2.10,2.10
30,3.24,1.14,3.23,1.14,-1.14,-1.28,2.10,2.10,2.10
31,3.54,1.45,3.52,1.42,-1.42,-1.35,2.12,2.09,2.09
32,3.80,1.71,3.78,1.69,-1.69,-1.41,2.11,2.09,2.09
33,4.03,1.95,4.02,1.94,-1.94,-1.47,2.09,2.08,2.08
34,4.25,2.18,4.24,2.17,-2.17,-1.52,2.09,2.08,2.08
35,4.44,2.37,4.44,2.37,-2.37,-1.58,2.07,2.07,2.07
36,4.63,2.57,4.62,2.57,-2.57,-1.64,2.07,2.06,2.06
37,4.79,2.74,4.79,2.74,-2.74,-1.70,2.05,2.05,2.05
38,4.93,2.89,4.94,2.90,-2.90,-1.77,2.03,2.04,2.04
39,5.06,3.03,5.07,3.04,-3.04,-1.84,2.02,2.03,2.03
40,5.18,3.16,5.19,3.17,-3.17,-1.93,2.01,2.02,2.02
41,5.29,3.28,5.29,3.29,-3.29,-2.02,2.00,2.01,2.01
42,5.38,3.38,5.39,3.39,-3.39,-2.11,1.99,1.99,2.00
43,5.46,3.48,5.47,3.49,-3.49,-2.22,1.97,1.98,1.98
44,5.54,3.57,5.54,3.58,-3.58,-2.33,1.97,1.97,1.97
45,5.60,3.65,5.61,3.65,-3.65,-2.45,1.95,1.95,1.96
46,5.66,3.72,5.66,3.72,-3.72,-2.57,1.94,1.94,1.94
47,5.70,3.78,5.71,3.78,-3.78,-2.70,1.92,1.92,1.92
48,5.74,3.83,5.74,3.84,-3.84,-2.84,1.91,1.91,1.91
49,5.77,3.88,5.77,3.88,-3.88,-2.98,1.89,1.89,1.89
50,5.79,3.92,5.79,3.92,-3.92,-3.12,1.87,1.87,1.87
51,5.80,3.95,5.80,3.95,-3.95,-3.26,1.85,1.85,1.85
52,5.81,3.98,5.81,3.98,-3.98,-3.40,1.83,1.83,1.83
53,5.81,4.00,5.81,4.00,-4.00,-3.54,1.81,1.81,1.81
54,5.80,4.02,5.80,4.02,-4.02,-3.67,1.79,1.78,1.79
55,5.79,4.03,5.78,4.03,-4.03,-3.80,1.76,1.76,1.76
56,5.76,4.02,5.77,4.04,-4.04,-3.91,1.72,1.73,1.74
57,5.74,4.03,5.75,4.04,-4.04,-4.02,1.70,1.70,1.71
58,5.71,4.03,5.72,4.05,-4.05,-4.12,1.67,1.68,1.69
59,5.68,4.02,5.70,4.05,-4.05,-4.20,1.64,1.65,1.66
60,5.64,4.01,5.67,4.04,-4.04,-4.27,1.60,1.63,1.63
61,5.61,4.01,5.63,4.03,-4.03,-4.32,1.58,1.60,1.60
62,5.57,4.00,5.58,4.02,-4.02,-4.36,1.56,1.57,1.57
63,5.54,4.00,5.53,4.00,-4.00,-4.39,1.55,1.54,1.54
64,5.51,4.00,5.48,3.97,-3.97,-4.40,1.54,1.50,1.51
65,5.46,3.98,5.41,3.94,-3.94,-4.40,1.52,1.47,1.48
66,5.39,3.95,5.35,3.91,-3.91,-4.39,1.48,1.44,1.45
67,5.30,3.89,5.28,3.87,-3.87,-4.36,1.43,1.40,1.41
68,5.21,3.84,5.20,3.83,-3.83,-4.33,1.38,1.37,1.38
69,5.11,3.77,5.13,3.79,-3.79,-4.30,1.32,1.33,1.34
70,5.02,3.72,5.05,3.75,-3.75,-4.26,1.27,1.30,1.31
71,4.93,3.66,4.97,3.71,-3.71,-4.21,1.22,1.26,1.27
72,4.86,3.63,4.89,3.67,-3.67,-4.16,1.19,1.22,1.23
73,4.79,3.60,4.81,3.63,-3.63,-4.12,1.16,1.18,1.19
74,4.74,3.59,4.74,3.60,-3.60,-4.07,1.14,1.14,1.16
75,4.69,3.58,4.68,3.58,-3.58,-4.02,1.11,1.10,1.12
76,4.63,3.55,4.63,3.56,-3.56,-3.97,1.07,1.07,1.08
77,4.57,3.53,4.58,3.55,-3.55,-3.93,1.02,1.03,1.04
78,4.53,3.53,4.54,3.55,-3.55,-3.89,0.99,0.99,1.00
79,4.49,3.53,4.50,3.55,-3.55,-3.85,0.95,0.96,0.96
80,4.46,3.55,4.47,3.55,-3.55,-3.81,0.91,0.92,0.92
81,4.44,3.57,4.44,3.56,-3.56,-3.78,0.88,0.88,0.88
82,4.42,3.59,4.41,3.57,-3.57,-3.76,0.85,0.84,0.83
83,4.39,3.60,4.38,3.59,-3.59,-3.73,0.80,0.79,0.79
84,4.37,3.62,4.36,3.61,-3.61,-3.71,0.76,0.75,0.75
85,4.34,3.63,4.34,3.63,-3.63,-3.70,0.71,0.71,0.71
86,4.32,3.65,4.32,3.66,-3.66,-3.69,0.67,0.67,0.67
87,4.30,3.67,4.31,3.68,-3.68,-3.68,0.62,0.63,0.63
88,4.28,3.70,4.29,3.71,-3.71,-3.68,0.57,0.58,0.59
89,4.28,3.74,4.28,3.74,-3.74,-3.68,0.55,0.54,0.54
90,4.26,3.76,4.27,3.77,-3.77,-3.68,0.50,0.50,0.50
91,4.25,3.79,4.26,3.80,-3.80,-3.69,0.45,0.46,0.46
92,4.24,3.82,4.25,3.83,-3.83,-3.70,0.41,0.42,0.42
93,4.23,3.85,4.24,3.86,-3.86,-3.71,0.37,0.38,0.38
94,4.23,3.89,4.23,3.89,-3.89,-3.73,0.34,0.34,0.34
95,4.21,3.91,4.22,3.92,-3.92,-3.75,0.29,0.30,0.30
96,4.21,3.95,4.21,3.95,-3.95,-3.77,0.26,0.26,0.26
97,4.21,3.99,4.20,3.98,-3.98,-3.79,0.23,0.22,0.22
98,4.20,4.02,4.18,4.01,-4.01,-3.82,0.20,0.17,0.18
99,4.18,4.04,4.16,4.03,-4.03,-3.85,0.15,0.13,0.14
100,4.16,4.06,4.14,4.06,-4.06,-3.88,0.10,0.09,0.10
101,4.13,4.07,4.13,4.08,-4.08,-3.91,0.05,0.04,0.06
102,4.10,4.08,4.11,4.10,-4.10,-3.94,-0.00,0.00,0.03
104,4.05,4.10,4.09,4.13,-4.13,-4.01,-0.08,-0.04,-0.05
105,4.04,4.13,4.07,4.15,-4.15,-4.05,-0.11,-0.08,-0.09
106,4.02,4.14,4.05,4.17,-4.17,-4.08,-0.14,-0.12,-0.12
107,4.01,4.17,4.03,4.18,-4.18,-4.11,-0.17,-0.15,-0.16
108,4.00,4.19,4.01,4.20,-4.20,-4.15,-0.19,-0.19,-0.19
109,3.99,4.22,3.98,4.21,-4.21,-4.18,-0.22,-0.23,-0.23
110,3.96,4.22,3.95,4.21,-4.21,-4.21,-0.25,-0.27,-0.26
111,3.94,4.24,3.92,4.22,-4.22,-4.24,-0.28,-0.30,-0.29
112,3.90,4.23,3.88,4.22,-4.22,-4.27,-0.31,-0.33,-0.33
113,3.87,4.23,3.84,4.21,-4.21,-4.30,-0.34,-0.37,-0.36
114,3.82,4.21,3.80,4.20,-4.20,-4.32,-0.38,-0.40,-0.39
115,3.78,4.20,3.75,4.19,-4.19,-4.34,-0.41,-0.44,-0.42
117,3.67,4.15,3.70,4.17,-4.17,-4.38,-0.50,-0.47,-0.48
118,3.61,4.12,3.64,4.15,-4.15,-4.39,-0.54,-0.51,-0.51
119,3.55,4.09,3.59,4.13,-4.13,-4.41,-0.58,-0.54,-0.54
120,3.51,4.08,3.53,4.10,-4.10,-4.41,-0.59,-0.58,-0.57
121,3.47,4.07,3.47,4.08,-4.08,-4.42,-0.61,-0.61,-0.60
123,3.39,4.04,3.40,4.05,-4.05,-4.42,-0.66,-0.65,-0.65
124,3.36,4.04,3.34,4.03,-4.03,-4.41,-0.66,-0.68,-0.68
125,3.31,4.01,3.28,4.00,-4.00,-4.41,-0.69,-0.72,-0.70
126,3.27,4.00,3.23,3.98,-3.98,-4.39,-0.71,-0.75,-0.73
128,3.17,3.95,3.18,3.96,-3.96,-4.36,-0.79,-0.78,-0.78
129,3.11,3.91,3.13,3.94,-3.94,-4.34,-0.83,-0.80,-0.80
130,3.05,3.87,3.09,3.92,-3.92,-4.32,-0.87,-0.83,-0.82
131,3.02,3.87,3.04,3.90,-3.90,-4.29,-0.88,-0.86,-0.84
133,2.95,3.84,3.00,3.89,-3.89,-4.24,-0.94,-0.89,-0.89
134,2.94,3.85,2.95,3.87,-3.87,-4.20,-0.93,-0.92,-0.91
135,2.94,3.87,2.91,3.86,-3.86,-4.17,-0.92,-0.95,-0.93
137,2.90,3.87,2.87,3.85,-3.85,-4.10,-0.95,-0.98,-0.97
138,2.87,3.86,2.84,3.84,-3.84,-4.06,-0.97,-1.00,-0.99
140,2.81,3.84,2.80,3.83,-3.83,-3.98,-1.02,-1.03,-1.03
141,2.77,3.82,2.77,3.82,-3.82,-3.94,-1.05,-1.05,-1.04
142,2.73,3.79,2.74,3.82,-3.82,-3.90,-1.08,-1.07,-1.06
144,2.68,3.78,2.71,3.80,-3.80,-3.81,-1.12,-1.09,-1.09
145,2.65,3.76,2.68,3.79,-3.79,-3.77,-1.14,-1.12,-1.11
147,2.61,3.75,2.64,3.78,-3.78,-3.68,-1.17,-1.14,-1.14
148,2.60,3.76,2.60,3.76,-3.76,-3.64,-1.16,-1.17,-1.16
150,2.57,3.76,2.55,3.74,-3.74,-3.55,-1.17,-1.19,-1.19
151,2.55,3.75,2.51,3.72,-3.72,-3.51,-1.17,-1.21,-1.20
153,2.49,3.72,2.47,3.70,-3.70,-3.42,-1.21,-1.23,-1.23
154,2.44,3.68,2.42,3.67,-3.67,-3.38,-1.23,-1.25,-1.24
156,2.36,3.63,2.38,3.65,-3.65,-3.30,-1.28,-1.27,-1.27
157,2.32,3.60,2.33,3.62,-3.62,-3.26,-1.29,-1.29,-1.28
159,2.24,3.55,2.28,3.58,-3.58,-3.18,-1.34,-1.31,-1.30
160,2.21,3.53,2.22,3.55,-3.55,-3.15,-1.34,-1.32,-1.32
162,2.15,3.49,2.17,3.51,-3.51,-3.07,-1.36,-1.34,-1.34
164,2.10,3.46,2.11,3.47,-3.47,-3.01,-1.37,-1.36,-1.36
165,2.07,3.44,2.05,3.43,-3.43,-2.97,-1.36,-1.37,-1.37
167,2.01,3.40,1.99,3.38,-3.38,-2.91,-1.37,-1.39,-1.39
169,1.93,3.34,1.93,3.34,-3.34,-2.85,-1.41,-1.41,-1.41
170,1.90,3.32,1.87,3.30,-3.30,-2.82,-1.39,-1.42,-1.42
172,1.81,3.25,1.81,3.25,-3.25,-2.77,-1.44,-1.44,-1.43
174,1.74,3.19,1.75,3.20,-3.20,-2.72,-1.46,-1.45,-1.45
175,1.71,3.17,1.69,3.16,-3.16,-2.69,-1.44,-1.47,-1.46
177,1.63,3.11,1.63,3.11,-3.11,-2.65,-1.48,-1.48,-1.47
179,1.55,3.04,1.57,3.06,-3.06,-2.60,-1.51,-1.50,-1.49
181,1.47,2.97,1.51,3.02,-3.02,-2.56,-1.55,-1.51,-1.50
183,1.41,2.93,1.45,2.97,-2.97,-2.52,-1.56,-1.52,-1.52
184,1.38,2.90,1.40,2.93,-2.93,-2.51,-1.55,-1.53,-1.52
186,1.34,2.88,1.34,2.89,-2.89,-2.47,-1.54,-1.54,-1.54
188,1.31,2.86,1.29,2.84,-2.84,-2.44,-1.53,-1.56,-1.55
190,1.26,2.82,1.24,2.80,-2.80,-2.42,-1.54,-1.57,-1.56
192,1.20,2.77,1.18,2.76,-2.76,-2.39,-1.56,-1.58,-1.57
194,1.15,2.73,1.13,2.72,-2.72,-2.37,-1.56,-1.59,-1.58
196,1.09,2.68,1.08,2.67,-2.67,-2.34,-1.58,-1.60,-1.59
198,1.02,2.62,1.03,2.63,-2.63,-2.32,-1.61,-1.60,-1.60
200,0.96,2.57,0.98,2.59,-2.59,-2.31,-1.63,-1.61,-1.61
202,0.91,2.53,0.93,2.55,-2.55,-2.29,-1.64,-1.62,-1.62
204,0.86,2.49,0.88,2.51,-2.51,-2.27,-1.65,-1.63,-1.63
206,0.82,2.46,0.83,2.47,-2.47,-2.26,-1.65,-1.64,-1.63
208,0.76,2.40,0.78,2.43,-2.43,-2.25,-1.66,-1.65,-1.64
210,0.73,2.38,0.73,2.38,-2.38,-2.23,-1.65,-1.65,-1.65
212,0.69,2.35,0.68,2.34,-2.34,-2.22,-1.65,-1.66,-1.66
214,0.65,2.32,0.64,2.30,-2.30,-2.21,-1.65,-1.66,-1.66
216,0.61,2.28,0.59,2.26,-2.26,-2.20,-1.65,-1.67,-1.67
218,0.58,2.26,0.55,2.23,-2.23,-2.19,-1.64,-1.68,-1.68
221,0.52,2.21,0.50,2.19,-2.19,-2.17,-1.67,-1.69,-1.69
223,0.47,2.16,0.46,2.16,-2.16,-2.16,-1.69,-1.70,-1.69
225,0.42,2.12,0.42,2.13,-2.13,-2.15,-1.71,-1.71,-1.70
227,0.38,2.08,0.39,2.11,-2.11,-2.14,-1.73,-1.72,-1.70
229,0.34,2.05,0.37,2.10,-2.10,-2.12,-1.76,-1.73,-1.71
232,0.31,2.03,0.35,2.09,-2.09,-2.10,-1.78,-1.74,-1.71
234,0.30,2.02,0.35,2.09,-2.09,-2.09,-1.79,-1.74,-1.72
236,0.30,2.03,0.35,2.10,-2.10,-2.07,-1.79,-1.75,-1.72
239,0.33,2.06,0.36,2.11,-2.11,-2.05,-1.78,-1.75,-1.73
241,0.35,2.09,0.38,2.13,-2.13,-2.03,-1.78,-1.75,-1.73
244,0.40,2.14,0.40,2.15,-2.15,-2.00,-1.75,-1.75,-1.74
246,0.43,2.17,0.42,2.17,-2.17,-1.98,-1.74,-1.75,-1.74
248,0.45,2.20,0.43,2.19,-2.19,-1.96,-1.74,-1.76,-1.75
251,0.48,2.23,0.45,2.20,-2.20,-1.93,-1.72,-1.76,-1.75
253,0.49,2.25,0.46,2.21,-2.21,-1.90,-1.72,-1.76,-1.75
256,0.48,2.24,0.46,2.21,-2.21,-1.87,-1.73,-1.76,-1.76
259,0.46,2.23,0.44,2.20,-2.20,-1.82,-1.74,-1.76,-1.76
261,0.43,2.20,0.42,2.18,-2.18,-1.80,-1.75,-1.76,-1.77
264,0.37,2.14,0.38,2.15,-2.15,-1.75,-1.78,-1.77,-1.77
266,0.33,2.10,0.33,2.10,-2.10,-1.72,-1.77,-1.77,-1.77
269,0.26,2.04,0.27,2.04,-2.04,-1.67,-1.78,-1.77,-1.78
272,0.19,1.97,0.20,1.97,-1.97,-1.62,-1.78,-1.78,-1.78
274,0.13,1.91,0.11,1.89,-1.89,-1.59,-1.76,-1.78,-1.78
277,0.04,1.83,0.02,1.80,-1.80,-1.54,-1.76,-1.78,-1.78
280,-0.07,1.72,-0.09,1.70,-1.70,-1.49,-1.77,-1.79,-1.79
283,-0.19,1.60,-0.20,1.60,-1.60,-1.43,-1.79,-1.79,-1.79
286,-0.32,1.48,-0.31,1.49,-1.49,-1.38,-1.81,-1.80,-1.79
288,-0.41,1.39,-0.43,1.38,-1.38,-1.34,-1.78,-1.80,-1.80
291,-0.55,1.25,-0.55,1.26,-1.26,-1.29,-1.81,-1.81,-1.80
294,-0.68,1.12,-0.66,1.15,-1.15,-1.23,-1.82,-1.81,-1.80
297,-0.81,0.99,-0.78,1.03,-1.03,-1.18,-1.84,-1.81,-1.80
300,-0.92,0.89,-0.89,0.92,-0.92,-1.12,-1.84,-1.82,-1.80
303,-1.03,0.78,-1.00,0.82,-0.82,-1.07,-1.85,-1.82,-1.81
306,-1.13,0.68,-1.11,0.72,-0.72,-1.02,-1.84,-1.82,-1.81
309,-1.21,0.60,-1.20,0.62,-0.62,-0.96,-1.83,-1.82,-1.81
312,-1.29,0.52,-1.29,0.53,-0.53,-0.91,-1.82,-1.82,-1.81
316,-1.39,0.43,-1.38,0.45,-0.45,-0.83,-1.83,-1.82,-1.81
319,-1.46,0.36,-1.46,0.37,-0.37,-0.78,-1.82,-1.82,-1.82
322,-1.53,0.29,-1.53,0.29,-0.29,-0.73,-1.82,-1.82,-1.82
325,-1.60,0.22,-1.60,0.22,-0.22,-0.68,-1.81,-1.82,-1.82
328,-1.67,0.15,-1.67,0.15,-0.15,-0.62,-1.81,-1.82,-1.82
332,-1.75,0.07,-1.74,0.08,-0.08,-0.56,-1.82,-1.82,-1.82
335,-1.82,0.01,-1.81,0.01,-0.01,-0.50,-1.83,-1.82,-1.82
338,-1.88,-0.05,-1.88,-0.06,0.06,-0.45,-1.82,-1.82,-1.82
342,-1.96,-0.13,-1.96,-0.13,0.13,-0.39,-1.83,-1.82,-1.83
345,-2.03,-0.20,-2.03,-0.20,0.20,-0.34,-1.82,-1.83,-1.83
349,-2.11,-0.28,-2.11,-0.28,0.28,-0.27,-1.83,-1.83,-1.83
352,-2.16,-0.33,-2.19,-0.36,0.36,-0.23,-1.80,-1.83,-1.83
356,-2.26,-0.43,-2.27,-0.44,0.44,-0.16,-1.82,-1.83,-1.83
359,-2.34,-0.51,-2.35,-0.52,0.52,-0.12,-1.82,-1.83,-1.83
363,-2.44,-0.60,-2.44,-0.60,0.60,-0.06,-1.84,-1.83,-1.83
366,-2.52,-0.68,-2.52,-0.69,0.69,-0.01,-1.83,-1.83,-1.83
370,-2.62,-0.78,-2.61,-0.78,0.78,0.05,-1.84,-1.84,-1.84
374,-2.72,-0.88,-2.70,-0.86,0.86,0.11,-1.85,-1.84,-1.84
377,-2.79,-0.95,-2.79,-0.95,0.95,0.15,-1.84,-1.84,-1.84
381,-2.88,-1.04,-2.88,-1.04,1.04,0.21,-1.84,-1.84,-1.84
385,-2.97,-1.13,-2.97,-1.12,1.12,0.27,-1.84,-1.84,-1.84
389,-3.06,-1.22,-3.05,-1.21,1.21,0.33,-1.85,-1.84,-1.84
393,-3.14,-1.30,-3.13,-1.29,1.29,0.38,-1.85,-1.84,-1.84
397,-3.22,-1.38,-3.22,-1.37,1.37,0.44,-1.85,-1.84,-1.84
401,-3.30,-1.46,-3.29,-1.45,1.45,0.49,-1.84,-1.84,-1.84
405,-3.37,-1.53,-3.37,-1.53,1.53,0.54,-1.83,-1.84,-1.84
409,-3.45,-1.61,-3.45,-1.61,1.61,0.59,-1.83,-1.84,-1.84
413,-3.52,-1.67,-3.53,-1.69,1.69,0.64,-1.83,-1.84,-1.84
417,-3.59,-1.74,-3.61,-1.76,1.76,0.69,-1.82,-1.84,-1.84
421,-3.66,-1.81,-3.69,-1.83,1.83,0.74,-1.83,-1.85,-1.85
425,-3.72,-1.87,-3.76,-1.90,1.90,0.79,-1.82,-1.86,-1.85
430,-3.79,-1.94,-3.82,-1.95,1.95,0.84,-1.83,-1.86,-1.85
434,-3.86,-2.01,-3.87,-2.00,2.00,0.89,-1.86,-1.87,-1.85
438,-3.91,-2.06,-3.91,-2.04,2.04,0.93,-1.87,-1.87,-1.85
443,-3.98,-2.13,-3.93,-2.06,2.06,0.98,-1.92,-1.87,-1.85
447,-4.02,-2.17,-3.94,-2.07,2.07,1.01,-1.95,-1.87,-1.85
451,-4.01,-2.17,-3.93,-2.07,2.07,1.05,-1.94,-1.86,-1.84
456,-3.97,-2.13,-3.91,-2.05,2.05,1.09,-1.92,-1.86,-1.84
460,-3.92,-2.09,-3.87,-2.02,2.02,1.12,-1.90,-1.85,-1.83
465,-3.82,-2.00,-3.82,-1.98,1.98,1.16,-1.84,-1.84,-1.82
470,-3.72,-1.90,-3.76,-1.92,1.92,1.19,-1.79,-1.83,-1.81
474,-3.64,-1.83,-3.68,-1.86,1.86,1.21,-1.78,-1.82,-1.80
479,-3.54,-1.75,-3.59,-1.79,1.79,1.24,-1.75,-1.80,-1.79
484,-3.45,-1.67,-3.49,-1.70,1.70,1.26,-1.74,-1.79,-1.78
489,-3.38,-1.61,-3.39,-1.62,1.62,1.28,-1.76,-1.77,-1.77
494,-3.29,-1.54,-3.28,-1.53,1.53,1.30,-1.76,-1.75,-1.75
499,-3.19,-1.45,-3.17,-1.43,1.43,1.31,-1.76,-1.74,-1.74
504,-3.09,-1.37,-3.06,-1.33,1.33,1.32,-1.76,-1.73,-1.72
509,-2.97,-1.26,-2.94,-1.23,1.23,1.32,-1.74,-1.71,-1.71
514,-2.84,-1.15,-2.83,-1.13,1.13,1.33,-1.71,-1.70,-1.69
519,-2.71,-1.04,-2.71,-1.02,1.02,1.32,-1.68,-1.68,-1.67
524,-2.58,-0.92,-2.58,-0.92,0.92,1.32,-1.66,-1.66,-1.65
529,-2.46,-0.82,-2.46,-0.82,0.82,1.32,-1.64,-1.64,-1.63
535,-2.31,-0.69,-2.33,-0.71,0.71,1.31,-1.59,-1.62,-1.61
540,-2.20,-0.61,-2.21,-0.61,0.61,1.30,-1.58,-1.59,-1.59
545,-2.09,-0.52,-2.08,-0.52,0.52,1.28,-1.57,-1.57,-1.57
551,-1.97,-0.42,-1.97,-0.43,0.43,1.26,-1.54,-1.54,-1.55
556,-1.86,-0.34,-1.86,-0.34,0.34,1.25,-1.52,-1.51,-1.52
562,-1.74,-0.25,-1.75,-0.26,0.26,1.23,-1.47,-1.49,-1.49
568,-1.64,-0.17,-1.65,-0.19,0.19,1.20,-1.44,-1.46,-1.46
573,-1.56,-0.12,-1.56,-0.13,0.13,1.18,-1.43,-1.43,-1.44
579,-1.47,-0.06,-1.48,-0.08,0.08,1.16,-1.39,-1.40,-1.41
585,-1.39,-0.01,-1.40,-0.03,0.03,1.13,-1.36,-1.38,-1.38
591,-1.33,0.02,-1.34,0.01,-0.01,1.10,-1.34,-1.35,-1.35
596,-1.27,0.05,-1.27,0.04,-0.04,1.08,-1.31,-1.32,-1.32
602,-1.22,0.07,-1.21,0.07,-0.07,1.05,-1.29,-1.29,-1.28
608,-1.17,0.08,-1.16,0.10,-0.10,1.02,-1.26,-1.26,-1.25
615,-1.11,0.11,-1.11,0.12,-0.12,0.99,-1.22,-1.23,-1.22
621,-1.07,0.12,-1.06,0.13,-0.13,0.96,-1.20,-1.20,-1.19
627,-1.03,0.13,-1.02,0.14,-0.14,0.94,-1.17,-1.16,-1.16
633,-0.99,0.14,-0.98,0.15,-0.15,0.91,-1.14,-1.13,-1.13
639,-0.94,0.16,-0.93,0.16,-0.16,0.88,-1.10,-1.10,-1.09
646,-0.90,0.16,-0.89,0.17,-0.17,0.85,-1.07,-1.06,-1.06
652,-0.85,0.18,-0.85,0.18,-0.18,0.82,-1.02,-1.03,-1.03
659,-0.81,0.18,-0.81,0.18,-0.18,0.79,-0.99,-0.99,-0.99
665,-0.78,0.18,-0.77,0.19,-0.19,0.77,-0.96,-0.96,-0.96
672,-0.73,0.19,-0.73,0.19,-0.19,0.74,-0.92,-0.92,-0.92
679,-0.69,0.20,-0.70,0.19,-0.19,0.71,-0.88,-0.89,-0.88
686,-0.65,0.20,-0.66,0.19,-0.19,0.68,-0.84,-0.85,-0.85
692,-0.62,0.19,-0.62,0.20,-0.20,0.66,-0.81,-0.82,-0.81
699,-0.59,0.18,-0.58,0.20,-0.20,0.63,-0.79,-0.78,-0.77
706,-0.55,0.18,-0.54,0.20,-0.20,0.60,-0.75,-0.74,-0.73
713,-0.52,0.18,-0.50,0.20,-0.20,0.58,-0.72,-0.70,-0.69
721,-0.49,0.17,-0.46,0.20,-0.20,0.55,-0.69,-0.66,-0.66
728,-0.44,0.18,-0.42,0.19,-0.19,0.53,-0.63,-0.62,-0.62
735,-0.40,0.18,-0.39,0.19,-0.19,0.51,-0.58,-0.58,-0.58
742,-0.35,0.19,-0.36,0.18,-0.18,0.49,-0.52,-0.54,-0.54
750,-0.31,0.19,-0.33,0.16,-0.16,0.46,-0.47,-0.50,-0.50
757,-0.28,0.18,-0.31,0.14,-0.14,0.44,-0.42,-0.46,-0.46
765,-0.26,0.16,-0.30,0.12,-0.12,0.42,-0.38,-0.42,-0.42
773,-0.26,0.12,-0.29,0.10,-0.10,0.40,-0.36,-0.38,-0.38
780,-0.27,0.08,-0.28,0.07,-0.07,0.38,-0.34,-0.35,-0.35
788,-0.27,0.04,-0.27,0.04,-0.04,0.36,-0.31,-0.32,-0.31
796,-0.28,-0.00,-0.27,0.02,-0.02,0.34,-0.30,-0.29,-0.28
804,-0.29,-0.05,-0.26,-0.01,0.01,0.32,-0.28,-0.26,-0.24
812,-0.28,-0.07,-0.26,-0.03,0.03,0.30,-0.25,-0.23,-0.21
820,-0.28,-0.10,-0.25,-0.05,0.05,0.28,-0.23,-0.20,-0.18
828,-0.27,-0.12,-0.23,-0.07,0.07,0.27,-0.20,-0.16,-0.15
837,-0.24,-0.12,-0.21,-0.08,0.08,0.25,-0.16,-0.13,-0.11
845,-0.20,-0.12,-0.18,-0.09,0.09,0.23,-0.11,-0.10,-0.08
853,-0.17,-0.12,-0.15,-0.09,0.09,0.22,-0.08,-0.06,-0.05
862,-0.12,-0.10,-0.12,-0.10,0.10,0.20,-0.02,-0.02,-0.02
871,-0.08,-0.09,-0.10,-0.11,0.11,0.19,0.03,0.01,0.01
879,-0.05,-0.08,-0.07,-0.11,0.11,0.17,0.07,0.04,0.04
888,-0.02,-0.08,-0.05,-0.12,0.12,0.16,0.11,0.07,0.07
897,-0.01,-0.10,-0.04,-0.14,0.14,0.15,0.13,0.10,0.09
906,0.01,-0.11,-0.03,-0.16,0.16,0.13,0.17,0.12,0.12
915,0.00,-0.15,-0.03,-0.18,0.18,0.12,0.18,0.15,0.15
924,-0.01,-0.18,-0.03,-0.20,0.20,0.11,0.19,0.17,0.17
933,-0.04,-0.24,-0.03,-0.23,0.23,0.10,0.19,0.20,0.20
943,-0.06,-0.28,-0.03,-0.25,0.25,0.09,0.19,0.22,0.23
952,-0.07,-0.32,-0.04,-0.28,0.28,0.08,0.21,0.24,0.25
962,-0.08,-0.36,-0.04,-0.30,0.30,0.07,0.23,0.27,0.28
971,-0.07,-0.37,-0.03,-0.33,0.33,0.06,0.26,0.29,0.31
981,-0.04,-0.37,-0.03,-0.35,0.35,0.06,0.31,0.32,0.33
991,-0.02,-0.38,-0.02,-0.36,0.36,0.05,0.34,0.35,0.36
1001,0.00,-0.38,0.00,-0.37,0.37,0.04,0.38,0.37,0.39
1011,0.04,-0.37,0.02,-0.38,0.38,0.04,0.42,0.41,0.41
1021,0.06,-0.38,0.05,-0.39,0.39,0.03,0.45,0.44,0.44
1031,0.08,-0.38,0.08,-0.39,0.39,0.03,0.47,0.47,0.47
1041,0.11,-0.38,0.11,-0.39,0.39,0.02,0.50,0.50,0.49
1052,0.14,-0.38,0.14,-0.38,0.38,0.02,0.53,0.52,0.52
1062,0.18,-0.37,0.17,-0.38,0.38,0.02,0.56,0.55,0.55
1073,0.21,-0.37,0.21,-0.37,0.37,0.02,0.58,0.58,0.58
1084,0.24,-0.37,0.24,-0.36,0.36,0.01,0.60,0.61,0.61
1094,0.27,-0.37,0.28,-0.35,0.35,0.01,0.62,0.63,0.64
1105,0.30,-0.37,0.32,-0.34,0.34,0.01,0.64,0.66,0.67
1116,0.34,-0.36,0.37,-0.33,0.33,0.01,0.67,0.69,0.70
1128,0.39,-0.34,0.41,-0.31,0.31,0.01,0.71,0.73,0.73
1139,0.44,-0.32,0.46,-0.30,0.30,0.01,0.75,0.76,0.76
1150,0.49,-0.30,0.50,-0.29,0.29,0.01,0.79,0.79,0.79
1162,0.54,-0.28,0.53,-0.29,0.29,0.01,0.83,0.83,0.83
1173,0.58,-0.28,0.57,-0.29,0.29,0.01,0.87,0.86,0.86
1185,0.61,-0.28,0.60,-0.30,0.30,0.01,0.91,0.90,0.89
1197,0.63,-0.29,0.61,-0.32,0.32,0.02,0.95,0.94,0.92
1209,0.65,-0.30,0.62,-0.35,0.35,0.02,1.00,0.97,0.95
1221,0.65,-0.33,0.62,-0.39,0.39,0.02,1.04,1.01,0.99
1233,0.63,-0.39,0.61,-0.44,0.44,0.02,1.07,1.04,1.02
1246,0.61,-0.44,0.58,-0.49,0.49,0.02,1.11,1.07,1.05
1258,0.57,-0.51,0.54,-0.56,0.56,0.03,1.13,1.10,1.08
1271,0.53,-0.58,0.50,-0.62,0.62,0.03,1.15,1.12,1.12
1283,0.49,-0.66,0.46,-0.69,0.69,0.03,1.18,1.14,1.15
1296,0.43,-0.76,0.41,-0.75,0.75,0.03,1.18,1.16,1.19
1309,0.38,-0.84,0.38,-0.80,0.80,0.04,1.18,1.18,1.22
1322,0.34,-0.92,0.36,-0.84,0.84,0.04,1.19,1.21,1.26
1335,0.30,-0.99,0.36,-0.87,0.87,0.04,1.17,1.23,1.30
1349,0.31,-1.02,0.38,-0.88,0.88,0.04,1.20,1.26,1.33
1362,0.33,-1.04,0.42,-0.88,0.88,0.05,1.21,1.30,1.37
1376,0.40,-1.01,0.49,-0.85,0.85,0.05,1.25,1.33,1.41
1390,0.51,-0.93,0.58,-0.80,0.80,0.05,1.31,1.38,1.45
1404,0.63,-0.85,0.68,-0.74,0.74,0.06,1.37,1.42,1.48
1418,0.79,-0.73,0.81,-0.66,0.66,0.06,1.45,1.47,1.52
1432,0.96,-0.60,0.95,-0.57,0.57,0.06,1.53,1.52,1.56
1446,1.13,-0.47,1.10,-0.47,0.47,0.06,1.61,1.58,1.60
1461,1.30,-0.34,1.26,-0.37,0.37,0.07,1.68,1.63,1.64
1475,1.46,-0.22,1.41,-0.28,0.28,0.07,1.74,1.69,1.68
1490,1.61,-0.11,1.56,-0.18,0.18,0.07,1.80,1.74,1.72
1505,1.73,-0.03,1.69,-0.10,0.10,0.08,1.83,1.79,1.76
1520,1.85,0.05,1.81,-0.02,0.02,0.08,1.88,1.84,1.80
1535,1.94,0.10,1.92,0.04,-0.04,0.08,1.90,1.88,1.84
1550,2.03,0.15,2.01,0.10,-0.10,0.08,1.94,1.91,1.88
1566,2.11,0.18,2.08,0.14,-0.14,0.09,1.97,1.94,1.93
1582,2.17,0.20,2.15,0.18,-0.18,0.09,2.00,1.98,1.97
1597,2.23,0.22,2.21,0.20,-0.20,0.09,2.03,2.01,2.02
1613,2.27,0.21,2.27,0.23,-0.23,0.10,2.04,2.04,2.06
1629,2.31,0.20,2.33,0.25,-0.25,0.10,2.06,2.08,2.11
1646,2.36,0.21,2.39,0.28,-0.28,0.10,2.08,2.11,2.15
1662,2.42,0.22,2.46,0.31,-0.31,0.11,2.12,2.16,2.20
1679,2.49,0.25,2.54,0.34,-0.34,0.11,2.15,2.20,2.25
1696,2.58,0.29,2.62,0.38,-0.38,0.12,2.20,2.24,2.29
1713,2.68,0.34,2.71,0.42,-0.42,0.12,2.26,2.29,2.34
1730,2.80,0.41,2.82,0.47,-0.47,0.12,2.33,2.34,2.39
1747,2.92,0.49,2.93,0.53,-0.53,0.13,2.39,2.40,2.44
1764,3.04,0.56,3.04,0.59,-0.59,0.13,2.45,2.45,2.49
1782,3.18,0.65,3.17,0.66,-0.66,0.14,2.53,2.51,2.54
1800,3.31,0.72,3.29,0.72,-0.72,0.14,2.59,2.57,2.59
1818,3.44,0.80,3.42,0.79,-0.79,0.15,2.66,2.63,2.64
1836,3.55,0.85,3.54,0.85,-0.85,0.16,2.70,2.70,2.70
