frequency,raw,error,smoothed,error_smoothed,equalization,parametric_eq,fixed_band_eq,equalized_raw,equalized_smoothed,target
20.00,-7.73,-7.71,-7.74,-7.72,6.00,6.75,2.68,-1.73,-1.74,-0.02
20.20,-7.69,-7.70,-7.69,-7.70,6.00,6.73,2.76,-1.69,-1.69,0.01
20.40,-7.66,-7.70,-7.64,-7.68,6.00,6.70,2.84,-1.66,-1.64,0.04
20.61,-7.59,-7.65,-7.59,-7.65,6.00,6.67,2.92,-1.59,-1.59,0.06
20.81,-7.51,-7.60,-7.52,-7.62,6.00,6.64,3.00,-1.51,-1.52,0.09
21.02,-7.46,-7.58,-7.47,-7.58,6.00,6.61,3.09,-1.46,-1.47,0.12
21.23,-7.42,-7.55,-7.41,-7.55,6.00,6.58,3.18,-1.42,-1.41,0.13
21.44,-7.37,-7.51,-7.36,-7.50,6.00,6.55,3.27,-1.37,-1.36,0.14
21.66,-7.28,-7.43,-7.30,-7.45,6.00,6.52,3.37,-1.28,-1.30,0.15
21.87,-7.23,-7.38,-7.23,-7.39,6.00,6.49,3.46,-1.23,-1.23,0.15
22.09,-7.18,-7.34,-7.17,-7.33,6.00,6.46,3.56,-1.18,-1.17,0.16
22.31,-7.12,-7.28,-7.12,-7.28,6.00,6.43,3.67,-1.12,-1.12,0.16
22.54,-7.06,-7.22,-7.06,-7.22,6.00,6.40,3.77,-1.06,-1.06,0.16
22.76,-7.00,-7.16,-7.00,-7.15,6.00,6.37,3.88,-1.00,-1.00,0.16
22.99,-6.93,-7.08,-6.93,-7.09,6.00,6.34,3.99,-0.93,-0.93,0.15
23.22,-6.87,-7.02,-6.87,-7.02,6.00,6.30,4.10,-0.87,-0.87,0.15
23.45,-6.81,-6.96,-6.81,-6.96,6.00,6.27,4.21,-0.81,-0.81,0.15
23.69,-6.76,-6.91,-6.76,-6.91,6.00,6.24,4.33,-0.76,-0.76,0.15
23.92,-6.72,-6.87,-6.72,-6.87,6.00,6.20,4.45,-0.72,-0.72,0.15
24.16,-6.67,-6.83,-6.67,-6.82,6.00,6.17,4.58,-0.67,-0.67,0.16
24.40,-6.61,-6.77,-6.61,-6.76,6.00,6.14,4.70,-0.61,-0.61,0.16
24.65,-6.54,-6.69,-6.55,-6.70,6.00,6.10,4.83,-0.54,-0.55,0.15
24.89,-6.48,-6.63,-6.49,-6.64,6.00,6.07,4.95,-0.48,-0.49,0.15
25.14,-6.45,-6.60,-6.44,-6.59,6.00,6.03,5.08,-0.45,-0.44,0.15
25.39,-6.40,-6.55,-6.39,-6.54,6.00,6.00,5.21,-0.40,-0.39,0.15
25.65,-6.34,-6.49,-6.35,-6.49,6.00,5.96,5.34,-0.34,-0.35,0.14
25.91,-6.30,-6.44,-6.30,-6.44,6.00,5.92,5.47,-0.30,-0.30,0.13
26.16,-6.26,-6.39,-6.25,-6.39,6.00,5.89,5.61,-0.26,-0.25,0.13
26.43,-6.20,-6.33,-6.21,-6.34,6.00,5.85,5.74,-0.20,-0.21,0.13
26.69,-6.16,-6.29,-6.16,-6.29,6.00,5.81,5.86,-0.16,-0.16,0.13
26.96,-6.12,-6.25,-6.12,-6.25,6.01,5.78,5.99,-0.11,-0.11,0.13
27.23,-6.07,-6.20,-6.07,-6.20,6.01,5.74,6.12,-0.06,-0.06,0.13
27.50,-6.03,-6.16,-6.03,-6.16,6.01,5.70,6.24,-0.02,-0.02,0.13
27.77,-5.98,-6.10,-5.98,-6.11,6.00,5.66,6.35,0.02,0.02,0.12
28.05,-5.95,-6.07,-5.94,-6.06,5.99,5.63,6.47,0.04,0.05,0.12
28.33,-5.89,-6.00,-5.90,-6.01,5.97,5.59,6.57,0.08,0.08,0.11
28.62,-5.86,-5.97,-5.86,-5.96,5.95,5.55,6.67,0.09,0.09,0.11
28.90,-5.81,-5.92,-5.81,-5.92,5.92,5.51,6.76,0.11,0.10,0.11
29.19,-5.78,-5.88,-5.77,-5.87,5.88,5.47,6.85,0.10,0.11,0.10
29.48,-5.72,-5.83,-5.73,-5.83,5.84,5.43,6.92,0.12,0.11,0.10
29.78,-5.69,-5.78,-5.69,-5.78,5.79,5.39,6.99,0.10,0.10,0.09
30.08,-5.65,-5.74,-5.65,-5.74,5.74,5.35,7.04,0.09,0.10,0.09
30.38,-5.60,-5.68,-5.61,-5.69,5.69,5.31,7.08,0.09,0.09,0.08
30.68,-5.57,-5.65,-5.57,-5.65,5.65,5.27,7.11,0.08,0.08,0.08
30.99,-5.53,-5.60,-5.53,-5.60,5.61,5.23,7.13,0.08,0.08,0.07
31.30,-5.49,-5.56,-5.50,-5.57,5.56,5.18,7.13,0.07,0.07,0.07
31.61,-5.46,-5.53,-5.46,-5.52,5.52,5.14,7.13,0.06,0.06,0.07
31.93,-5.43,-5.49,-5.43,-5.48,5.48,5.10,7.10,0.05,0.05,0.06
32.24,-5.39,-5.43,-5.39,-5.44,5.44,5.06,7.07,0.05,0.05,0.04
32.57,-5.34,-5.38,-5.35,-5.39,5.39,5.02,7.03,0.05,0.04,0.04
32.89,-5.31,-5.35,-5.31,-5.35,5.35,4.97,6.98,0.04,0.04,0.04
33.22,-5.27,-5.30,-5.27,-5.30,5.30,4.93,6.91,0.03,0.03,0.03
33.55,-5.23,-5.26,-5.23,-5.26,5.26,4.89,6.84,0.02,0.03,0.03
33.89,-5.19,-5.21,-5.19,-5.21,5.21,4.85,6.75,0.01,0.02,0.02
34.23,-5.14,-5.16,-5.15,-5.16,5.15,4.80,6.66,0.01,0.01,0.01
34.57,-5.11,-5.11,-5.10,-5.11,5.10,4.76,6.56,-0.01,-0.00,0.00
34.92,-5.05,-5.04,-5.05,-5.05,5.05,4.72,6.45,-0.00,-0.00,-0.01
35.27,-5.00,-4.99,-5.00,-4.99,4.99,4.67,6.34,-0.01,-0.01,-0.01
35.62,-4.95,-4.93,-4.95,-4.93,4.94,4.63,6.22,-0.02,-0.02,-0.02
35.97,-4.91,-4.88,-4.91,-4.88,4.88,4.58,6.10,-0.03,-0.03,-0.03
36.33,-4.86,-4.82,-4.86,-4.82,4.82,4.54,5.98,-0.04,-0.04,-0.04
36.70,-4.81,-4.76,-4.81,-4.76,4.76,4.50,5.85,-0.05,-0.05,-0.05
37.06,-4.76,-4.70,-4.76,-4.71,4.70,4.45,5.73,-0.06,-0.06,-0.06
37.43,-4.72,-4.66,-4.71,-4.65,4.65,4.41,5.60,-0.07,-0.07,-0.06
37.81,-4.66,-4.58,-4.66,-4.59,4.59,4.36,5.47,-0.07,-0.08,-0.08
38.19,-4.61,-4.52,-4.61,-4.53,4.53,4.32,5.34,-0.08,-0.09,-0.09
38.57,-4.56,-4.47,-4.56,-4.47,4.47,4.27,5.21,-0.10,-0.10,-0.09
38.95,-4.52,-4.41,-4.51,-4.41,4.40,4.23,5.09,-0.12,-0.11,-0.11
39.34,-4.46,-4.34,-4.46,-4.34,4.34,4.18,4.96,-0.12,-0.12,-0.12
39.74,-4.40,-4.27,-4.41,-4.28,4.28,4.14,4.83,-0.12,-0.13,-0.13
40.14,-4.36,-4.23,-4.36,-4.22,4.22,4.09,4.71,-0.14,-0.14,-0.13
40.54,-4.31,-4.16,-4.30,-4.16,4.16,4.05,4.59,-0.15,-0.14,-0.15
40.94,-4.25,-4.10,-4.25,-4.10,4.11,4.00,4.47,-0.14,-0.15,-0.15
41.35,-4.20,-4.04,-4.21,-4.05,4.05,3.96,4.35,-0.15,-0.15,-0.16
41.76,-4.17,-4.00,-4.17,-4.00,4.00,3.91,4.24,-0.17,-0.16,-0.17
42.18,-4.13,-3.96,-4.13,-3.95,3.95,3.86,4.13,-0.18,-0.18,-0.17
42.60,-4.09,-3.90,-4.09,-3.91,3.90,3.82,4.02,-0.19,-0.19,-0.19
43.03,-4.05,-3.86,-4.05,-3.86,3.86,3.77,3.91,-0.19,-0.20,-0.19
43.46,-4.02,-3.82,-4.02,-3.81,3.81,3.73,3.81,-0.21,-0.21,-0.20
43.90,-3.99,-3.76,-3.99,-3.76,3.76,3.68,3.71,-0.23,-0.23,-0.23
44.33,-3.95,-3.71,-3.96,-3.72,3.71,3.64,3.61,-0.24,-0.25,-0.24
44.78,-3.93,-3.67,-3.93,-3.67,3.67,3.59,3.51,-0.26,-0.26,-0.26
45.23,-3.90,-3.63,-3.89,-3.62,3.62,3.55,3.42,-0.28,-0.27,-0.27
45.68,-3.85,-3.56,-3.86,-3.57,3.58,3.50,3.33,-0.27,-0.28,-0.29
46.13,-3.83,-3.53,-3.83,-3.53,3.54,3.46,3.24,-0.30,-0.29,-0.30
46.60,-3.81,-3.50,-3.80,-3.49,3.49,3.41,3.16,-0.32,-0.31,-0.31
47.06,-3.77,-3.44,-3.78,-3.45,3.45,3.36,3.08,-0.32,-0.33,-0.33
47.53,-3.76,-3.42,-3.75,-3.41,3.41,3.32,3.00,-0.36,-0.34,-0.34
48.01,-3.71,-3.36,-3.72,-3.36,3.36,3.27,2.92,-0.35,-0.36,-0.35
48.49,-3.68,-3.31,-3.69,-3.31,3.31,3.23,2.85,-0.37,-0.38,-0.38
48.97,-3.67,-3.27,-3.66,-3.25,3.26,3.18,2.77,-0.41,-0.40,-0.40
49.46,-3.62,-3.19,-3.63,-3.20,3.20,3.14,2.70,-0.42,-0.43,-0.43
49.96,-3.59,-3.13,-3.59,-3.14,3.14,3.09,2.63,-0.45,-0.45,-0.46
50.46,-3.55,-3.09,-3.54,-3.07,3.07,3.05,2.57,-0.48,-0.47,-0.46
50.96,-3.49,-3.01,-3.49,-3.00,3.00,3.00,2.51,-0.49,-0.49,-0.48
51.47,-3.43,-2.92,-3.43,-2.93,2.93,2.96,2.44,-0.50,-0.50,-0.51
51.99,-3.37,-2.84,-3.37,-2.85,2.85,2.92,2.38,-0.52,-0.52,-0.53
52.51,-3.31,-2.77,-3.31,-2.77,2.77,2.87,2.33,-0.54,-0.54,-0.54
53.03,-3.25,-2.69,-3.25,-2.69,2.68,2.83,2.27,-0.57,-0.56,-0.56
53.56,-3.18,-2.60,-3.18,-2.60,2.60,2.78,2.21,-0.58,-0.58,-0.58
54.10,-3.10,-2.51,-3.11,-2.52,2.51,2.74,2.16,-0.59,-0.60,-0.60
54.64,-3.05,-2.43,-3.04,-2.42,2.43,2.69,2.11,-0.62,-0.61,-0.62
55.18,-2.97,-2.33,-2.97,-2.34,2.34,2.65,2.06,-0.63,-0.63,-0.64
55.74,-2.90,-2.24,-2.91,-2.26,2.26,2.61,2.01,-0.64,-0.65,-0.66
56.29,-2.85,-2.18,-2.85,-2.17,2.18,2.56,1.96,-0.68,-0.67,-0.67
56.86,-2.79,-2.10,-2.79,-2.10,2.10,2.52,1.92,-0.69,-0.69,-0.69
57.42,-2.73,-2.02,-2.73,-2.03,2.03,2.48,1.87,-0.70,-0.71,-0.71
58.00,-2.68,-1.96,-2.68,-1.95,1.96,2.43,1.83,-0.72,-0.72,-0.72
58.58,-2.62,-1.88,-2.62,-1.88,1.89,2.39,1.78,-0.73,-0.73,-0.74
59.16,-2.57,-1.82,-2.58,-1.83,1.83,2.34,1.74,-0.74,-0.75,-0.75
59.76,-2.54,-1.78,-2.54,-1.77,1.77,2.30,1.70,-0.78,-0.77,-0.76
60.35,-2.51,-1.72,-2.50,-1.71,1.71,2.26,1.66,-0.80,-0.79,-0.79
60.96,-2.46,-1.66,-2.47,-1.66,1.65,2.22,1.62,-0.81,-0.82,-0.80
61.57,-2.42,-1.58,-2.43,-1.59,1.60,2.17,1.58,-0.83,-0.83,-0.84
62.18,-2.41,-1.55,-2.40,-1.54,1.55,2.13,1.54,-0.86,-0.85,-0.86
62.80,-2.36,-1.48,-2.37,-1.49,1.50,2.09,1.50,-0.86,-0.87,-0.88
63.43,-2.36,-1.45,-2.35,-1.45,1.45,2.04,1.47,-0.91,-0.89,-0.91
64.07,-2.32,-1.40,-2.33,-1.41,1.41,2.00,1.43,-0.91,-0.92,-0.92
64.71,-2.32,-1.38,-2.32,-1.38,1.37,1.96,1.39,-0.95,-0.95,-0.94
65.35,-2.32,-1.36,-2.30,-1.35,1.34,1.92,1.36,-0.98,-0.97,-0.96
66.01,-2.27,-1.29,-2.29,-1.31,1.30,1.87,1.32,-0.97,-0.99,-0.98
66.67,-2.27,-1.28,-2.26,-1.27,1.27,1.83,1.28,-1.01,-1.00,-1.00
67.33,-2.24,-1.23,-2.24,-1.23,1.23,1.79,1.25,-1.01,-1.01,-1.02
68.01,-2.22,-1.19,-2.23,-1.19,1.20,1.74,1.21,-1.02,-1.03,-1.04
68.69,-2.22,-1.16,-2.21,-1.15,1.16,1.70,1.18,-1.06,-1.05,-1.06
69.37,-2.20,-1.12,-2.20,-1.12,1.13,1.66,1.15,-1.07,-1.07,-1.08
70.07,-2.18,-1.08,-2.19,-1.09,1.09,1.62,1.11,-1.09,-1.10,-1.10
70.77,-2.18,-1.07,-2.18,-1.07,1.06,1.57,1.08,-1.12,-1.12,-1.11
71.48,-2.18,-1.05,-2.17,-1.04,1.03,1.53,1.05,-1.15,-1.14,-1.13
72.19,-2.16,-1.00,-2.16,-1.00,1.00,1.49,1.01,-1.17,-1.16,-1.16
72.91,-2.13,-0.95,-2.14,-0.96,0.97,1.45,0.98,-1.16,-1.18,-1.18
73.64,-2.13,-0.92,-2.13,-0.93,0.94,1.40,0.95,-1.19,-1.19,-1.21
74.38,-2.13,-0.91,-2.13,-0.90,0.91,1.36,0.92,-1.22,-1.22,-1.22
75.12,-2.13,-0.88,-2.13,-0.89,0.89,1.32,0.89,-1.24,-1.25,-1.25
75.87,-2.13,-0.87,-2.13,-0.87,0.86,1.28,0.86,-1.27,-1.27,-1.27
76.63,-2.13,-0.85,-2.13,-0.84,0.84,1.24,0.83,-1.30,-1.29,-1.28
77.40,-2.12,-0.82,-2.12,-0.82,0.81,1.19,0.80,-1.31,-1.31,-1.30
78.17,-2.11,-0.78,-2.11,-0.79,0.79,1.15,0.77,-1.32,-1.33,-1.33
78.95,-2.11,-0.77,-2.10,-0.76,0.76,1.11,0.74,-1.35,-1.34,-1.34
79.74,-2.08,-0.72,-2.09,-0.73,0.74,1.07,0.71,-1.34,-1.35,-1.36
80.54,-2.08,-0.70,-2.08,-0.70,0.71,1.02,0.68,-1.37,-1.37,-1.38
81.35,-2.08,-0.68,-2.08,-0.68,0.68,0.98,0.66,-1.40,-1.39,-1.40
82.16,-2.08,-0.66,-2.08,-0.66,0.66,0.94,0.63,-1.42,-1.42,-1.42
82.98,-2.08,-0.65,-2.08,-0.64,0.64,0.90,0.60,-1.44,-1.44,-1.43
83.81,-2.08,-0.62,-2.08,-0.62,0.62,0.86,0.58,-1.46,-1.46,-1.46
84.65,-2.08,-0.59,-2.08,-0.60,0.61,0.82,0.55,-1.48,-1.48,-1.49
85.50,-2.08,-0.58,-2.09,-0.59,0.59,0.77,0.52,-1.49,-1.50,-1.50
86.35,-2.11,-0.59,-2.10,-0.58,0.57,0.73,0.50,-1.54,-1.53,-1.52
87.22,-2.11,-0.56,-2.11,-0.56,0.56,0.69,0.47,-1.55,-1.55,-1.55
88.09,-2.11,-0.54,-2.11,-0.55,0.54,0.65,0.45,-1.57,-1.57,-1.57
88.97,-2.11,-0.52,-2.12,-0.52,0.52,0.61,0.42,-1.59,-1.59,-1.59
89.86,-2.13,-0.52,-2.12,-0.51,0.51,0.57,0.40,-1.63,-1.62,-1.61
90.76,-2.13,-0.48,-2.13,-0.49,0.48,0.53,0.37,-1.65,-1.65,-1.65
91.66,-2.13,-0.46,-2.13,-0.46,0.46,0.49,0.35,-1.67,-1.67,-1.67
92.58,-2.13,-0.43,-2.13,-0.43,0.43,0.45,0.33,-1.70,-1.70,-1.70
93.51,-2.13,-0.41,-2.13,-0.41,0.41,0.41,0.30,-1.72,-1.72,-1.72
94.44,-2.13,-0.38,-2.13,-0.38,0.38,0.37,0.28,-1.75,-1.75,-1.75
95.39,-2.13,-0.35,-2.13,-0.35,0.35,0.33,0.25,-1.78,-1.78,-1.78
96.34,-2.13,-0.32,-2.13,-0.32,0.32,0.30,0.23,-1.81,-1.81,-1.81
97.30,-2.13,-0.29,-2.13,-0.29,0.29,0.26,0.21,-1.84,-1.84,-1.84
98.28,-2.13,-0.26,-2.13,-0.26,0.27,0.22,0.19,-1.86,-1.86,-1.87
99.26,-2.13,-0.23,-2.13,-0.23,0.24,0.19,0.16,-1.89,-1.89,-1.90
100.25,-2.13,-0.20,-2.14,-0.21,0.22,0.15,0.14,-1.91,-1.92,-1.93
101.25,-2.16,-0.20,-2.16,-0.20,0.19,0.12,0.12,-1.97,-1.96,-1.96
102.27,-2.18,-0.19,-2.17,-0.18,0.17,0.08,0.10,-2.01,-2.00,-1.99
103.29,-2.18,-0.15,-2.18,-0.16,0.15,0.05,0.07,-2.03,-2.03,-2.03
104.32,-2.18,-0.13,-2.18,-0.13,0.13,0.02,0.05,-2.05,-2.05,-2.05
105.37,-2.18,-0.10,-2.18,-0.10,0.11,-0.01,0.03,-2.07,-2.07,-2.08
106.42,-2.18,-0.08,-2.18,-0.07,0.08,-0.05,0.01,-2.10,-2.10,-2.11
107.48,-2.18,-0.05,-2.19,-0.05,0.06,-0.08,-0.01,-2.12,-2.13,-2.13
108.56,-2.20,-0.03,-2.20,-0.03,0.03,-0.11,-0.03,-2.17,-2.17,-2.17
109.64,-2.22,-0.02,-2.21,-0.01,0.01,-0.14,-0.05,-2.21,-2.21,-2.20
110.74,-2.22,0.01,-2.22,0.01,-0.02,-0.16,-0.08,-2.24,-2.24,-2.23
111.85,-2.22,0.04,-2.22,0.04,-0.05,-0.19,-0.10,-2.27,-2.28,-2.26
112.97,-2.22,0.09,-2.22,0.08,-0.09,-0.22,-0.12,-2.31,-2.31,-2.31
114.10,-2.22,0.12,-2.22,0.12,-0.12,-0.24,-0.14,-2.34,-2.34,-2.34
115.24,-2.22,0.16,-2.22,0.16,-0.16,-0.27,-0.16,-2.38,-2.38,-2.38
116.39,-2.22,0.19,-2.22,0.19,-0.19,-0.29,-0.18,-2.41,-2.41,-2.41
117.55,-2.22,0.23,-2.22,0.23,-0.23,-0.32,-0.20,-2.45,-2.45,-2.45
118.73,-2.22,0.27,-2.22,0.27,-0.26,-0.34,-0.22,-2.48,-2.48,-2.49
119.92,-2.22,0.30,-2.22,0.30,-0.29,-0.36,-0.23,-2.51,-2.51,-2.52
121.12,-2.23,0.32,-2.23,0.32,-0.31,-0.39,-0.25,-2.54,-2.55,-2.55
122.33,-2.25,0.34,-2.25,0.34,-0.34,-0.41,-0.27,-2.59,-2.59,-2.59
123.55,-2.27,0.35,-2.26,0.36,-0.37,-0.43,-0.29,-2.64,-2.63,-2.62
124.79,-2.27,0.38,-2.27,0.38,-0.39,-0.45,-0.31,-2.66,-2.67,-2.65
126.03,-2.27,0.42,-2.27,0.41,-0.42,-0.47,-0.33,-2.69,-2.70,-2.69
127.29,-2.27,0.45,-2.27,0.45,-0.45,-0.50,-0.34,-2.72,-2.72,-2.72
128.57,-2.27,0.49,-2.27,0.49,-0.49,-0.52,-0.36,-2.76,-2.76,-2.76
129.85,-2.27,0.53,-2.27,0.53,-0.52,-0.54,-0.38,-2.79,-2.79,-2.80
131.15,-2.27,0.56,-2.27,0.56,-0.56,-0.57,-0.40,-2.83,-2.83,-2.83
132.46,-2.27,0.59,-2.27,0.59,-0.59,-0.59,-0.41,-2.86,-2.86,-2.86
133.79,-2.27,0.62,-2.27,0.62,-0.62,-0.61,-0.43,-2.89,-2.89,-2.89
135.12,-2.27,0.66,-2.27,0.65,-0.65,-0.64,-0.45,-2.92,-2.92,-2.93
136.48,-2.27,0.68,-2.27,0.68,-0.68,-0.67,-0.47,-2.95,-2.95,-2.95
137.84,-2.27,0.71,-2.27,0.71,-0.71,-0.69,-0.48,-2.98,-2.98,-2.98
139.22,-2.27,0.75,-2.27,0.74,-0.74,-0.72,-0.50,-3.01,-3.01,-3.02
140.61,-2.27,0.78,-2.27,0.77,-0.77,-0.75,-0.52,-3.04,-3.04,-3.05
142.02,-2.27,0.79,-2.27,0.79,-0.79,-0.78,-0.54,-3.06,-3.06,-3.06
143.44,-2.27,0.81,-2.27,0.82,-0.82,-0.81,-0.55,-3.09,-3.09,-3.08
144.87,-2.27,0.84,-2.27,0.84,-0.84,-0.84,-0.57,-3.11,-3.11,-3.11
146.32,-2.27,0.87,-2.27,0.86,-0.87,-0.87,-0.59,-3.14,-3.14,-3.14
147.78,-2.27,0.88,-2.27,0.89,-0.89,-0.90,-0.61,-3.16,-3.16,-3.15
149.26,-2.27,0.91,-2.27,0.91,-0.91,-0.93,-0.63,-3.18,-3.18,-3.18
150.75,-2.27,0.94,-2.27,0.93,-0.93,-0.96,-0.65,-3.20,-3.20,-3.21
152.26,-2.29,0.95,-2.29,0.95,-0.95,-0.99,-0.67,-3.24,-3.23,-3.24
153.78,-2.29,0.97,-2.30,0.97,-0.97,-1.02,-0.69,-3.26,-3.27,-3.26
155.32,-2.32,0.98,-2.31,0.98,-0.99,-1.05,-0.71,-3.31,-3.30,-3.30
156.88,-2.32,1.00,-2.32,1.00,-1.01,-1.08,-0.73,-3.33,-3.33,-3.32
158.44,-2.32,1.03,-2.32,1.03,-1.03,-1.11,-0.76,-3.36,-3.36,-3.35
160.03,-2.32,1.06,-2.32,1.06,-1.06,-1.14,-0.78,-3.38,-3.38,-3.38
161.63,-2.32,1.09,-2.32,1.09,-1.09,-1.17,-0.81,-3.41,-3.41,-3.41
163.24,-2.32,1.12,-2.32,1.12,-1.11,-1.20,-0.83,-3.43,-3.43,-3.44
164.88,-2.32,1.14,-2.32,1.15,-1.14,-1.22,-0.86,-3.46,-3.46,-3.46
166.53,-2.32,1.17,-2.32,1.17,-1.17,-1.25,-0.88,-3.49,-3.49,-3.49
168.19,-2.32,1.20,-2.32,1.20,-1.20,-1.28,-0.91,-3.52,-3.52,-3.52
169.87,-2.32,1.23,-2.32,1.23,-1.23,-1.30,-0.94,-3.55,-3.55,-3.55
171.57,-2.32,1.26,-2.32,1.26,-1.26,-1.32,-0.97,-3.58,-3.58,-3.58
173.29,-2.32,1.28,-2.32,1.28,-1.29,-1.35,-1.00,-3.61,-3.61,-3.60
175.02,-2.32,1.31,-2.32,1.31,-1.32,-1.37,-1.03,-3.64,-3.64,-3.63
176.77,-2.32,1.35,-2.32,1.35,-1.35,-1.39,-1.06,-3.67,-3.67,-3.67
178.54,-2.32,1.38,-2.32,1.38,-1.38,-1.41,-1.09,-3.70,-3.70,-3.70
180.32,-2.32,1.41,-2.32,1.41,-1.41,-1.43,-1.13,-3.73,-3.73,-3.73
182.13,-2.32,1.43,-2.32,1.43,-1.44,-1.45,-1.16,-3.76,-3.76,-3.75
183.95,-2.32,1.47,-2.32,1.46,-1.46,-1.47,-1.20,-3.78,-3.78,-3.79
185.79,-2.32,1.49,-2.32,1.49,-1.49,-1.49,-1.23,-3.81,-3.81,-3.81
187.65,-2.32,1.52,-2.32,1.52,-1.52,-1.50,-1.27,-3.84,-3.84,-3.84
189.52,-2.32,1.55,-2.32,1.55,-1.54,-1.52,-1.31,-3.86,-3.86,-3.87
191.42,-2.32,1.57,-2.32,1.57,-1.57,-1.54,-1.35,-3.89,-3.89,-3.89
193.33,-2.32,1.59,-2.32,1.59,-1.59,-1.55,-1.38,-3.91,-3.91,-3.91
195.27,-2.32,1.61,-2.32,1.61,-1.62,-1.57,-1.42,-3.94,-3.94,-3.93
197.22,-2.32,1.63,-2.32,1.64,-1.64,-1.58,-1.46,-3.96,-3.96,-3.95
199.19,-2.32,1.66,-2.32,1.66,-1.65,-1.60,-1.50,-3.97,-3.97,-3.98
201.18,-2.32,1.67,-2.32,1.68,-1.67,-1.61,-1.54,-3.99,-3.99,-4.00
203.19,-2.32,1.68,-2.32,1.69,-1.69,-1.62,-1.59,-4.01,-4.01,-4.01
205.23,-2.32,1.70,-2.32,1.70,-1.70,-1.64,-1.63,-4.02,-4.02,-4.03
207.28,-2.32,1.70,-2.32,1.71,-1.71,-1.65,-1.67,-4.03,-4.03,-4.02
209.35,-2.32,1.72,-2.32,1.73,-1.72,-1.66,-1.71,-4.04,-4.04,-4.04
211.44,-2.32,1.74,-2.32,1.73,-1.73,-1.67,-1.75,-4.05,-4.05,-4.06
213.56,-2.32,1.74,-2.32,1.74,-1.74,-1.68,-1.79,-4.06,-4.06,-4.06
215.69,-2.32,1.74,-2.32,1.74,-1.75,-1.70,-1.83,-4.07,-4.07,-4.06
217.85,-2.32,1.75,-2.32,1.75,-1.76,-1.71,-1.86,-4.08,-4.08,-4.07
220.03,-2.32,1.75,-2.31,1.76,-1.77,-1.72,-1.90,-4.09,-4.08,-4.08
222.23,-2.30,1.78,-2.30,1.78,-1.77,-1.73,-1.93,-4.07,-4.07,-4.08
224.45,-2.27,1.80,-2.28,1.79,-1.78,-1.74,-1.97,-4.05,-4.06,-4.07
226.70,-2.27,1.80,-2.27,1.80,-1.78,-1.75,-2.00,-4.05,-4.05,-4.07
228.96,-2.27,1.79,-2.27,1.79,-1.79,-1.76,-2.03,-4.06,-4.06,-4.06
231.25,-2.27,1.78,-2.27,1.78,-1.79,-1.77,-2.05,-4.06,-4.07,-4.05
233.57,-2.27,1.78,-2.27,1.78,-1.79,-1.78,-2.08,-4.06,-4.06,-4.05
235.90,-2.27,1.77,-2.26,1.78,-1.79,-1.79,-2.10,-4.06,-4.05,-4.04
238.26,-2.24,1.80,-2.24,1.79,-1.79,-1.80,-2.12,-4.03,-4.03,-4.04
240.64,-2.22,1.80,-2.23,1.80,-1.78,-1.80,-2.13,-4.00,-4.01,-4.02
243.05,-2.22,1.79,-2.22,1.79,-1.78,-1.81,-2.14,-4.00,-3.99,-4.01
245.48,-2.22,1.77,-2.22,1.78,-1.77,-1.82,-2.15,-3.99,-3.99,-3.99
247.93,-2.22,1.76,-2.22,1.76,-1.76,-1.82,-2.16,-3.98,-3.98,-3.98
250.41,-2.22,1.75,-2.22,1.74,-1.75,-1.83,-2.16,-3.97,-3.97,-3.97
252.92,-2.22,1.73,-2.22,1.73,-1.74,-1.83,-2.16,-3.96,-3.96,-3.95
255.45,-2.21,1.71,-2.21,1.72,-1.73,-1.84,-2.15,-3.94,-3.94,-3.92
258.00,-2.18,1.73,-2.19,1.72,-1.72,-1.84,-2.14,-3.90,-3.91,-3.91
260.58,-2.18,1.71,-2.17,1.72,-1.72,-1.84,-2.13,-3.90,-3.89,-3.89
263.19,-2.14,1.72,-2.15,1.72,-1.72,-1.84,-2.12,-3.86,-3.86,-3.87
265.82,-2.13,1.72,-2.13,1.72,-1.72,-1.83,-2.10,-3.85,-3.85,-3.85
268.48,-2.10,1.72,-2.10,1.72,-1.72,-1.83,-2.08,-3.82,-3.82,-3.82
271.16,-2.08,1.72,-2.08,1.72,-1.73,-1.82,-2.05,-3.81,-3.80,-3.80
273.87,-2.04,1.74,-2.05,1.73,-1.73,-1.82,-2.03,-3.77,-3.78,-3.78
276.61,-2.03,1.72,-2.02,1.73,-1.73,-1.81,-2.00,-3.76,-3.75,-3.75
279.38,-1.99,1.75,-1.99,1.74,-1.74,-1.80,-1.97,-3.73,-3.73,-3.74
282.17,-1.97,1.75,-1.98,1.74,-1.74,-1.78,-1.93,-3.71,-3.71,-3.72
284.99,-1.95,1.74,-1.95,1.74,-1.74,-1.77,-1.90,-3.69,-3.69,-3.69
287.84,-1.95,1.72,-1.94,1.74,-1.74,-1.75,-1.86,-3.69,-3.68,-3.67
290.72,-1.90,1.75,-1.91,1.73,-1.74,-1.74,-1.83,-3.64,-3.65,-3.65
293.63,-1.90,1.73,-1.89,1.74,-1.74,-1.72,-1.79,-3.64,-3.63,-3.63
296.57,-1.86,1.74,-1.87,1.74,-1.73,-1.70,-1.75,-3.59,-3.60,-3.60
299.53,-1.85,1.73,-1.85,1.73,-1.73,-1.68,-1.71,-3.58,-3.58,-3.58
302.53,-1.85,1.72,-1.84,1.72,-1.72,-1.66,-1.67,-3.57,-3.56,-3.57
305.55,-1.81,1.72,-1.82,1.71,-1.72,-1.63,-1.63,-3.53,-3.54,-3.53
308.61,-1.81,1.70,-1.80,1.70,-1.71,-1.61,-1.59,-3.52,-3.51,-3.51
311.69,-1.79,1.69,-1.78,1.69,-1.69,-1.58,-1.55,-3.48,-3.48,-3.48
314.81,-1.76,1.68,-1.77,1.68,-1.68,-1.56,-1.51,-3.44,-3.45,-3.45
317.96,-1.76,1.67,-1.76,1.67,-1.66,-1.53,-1.47,-3.42,-3.42,-3.43
321.14,-1.76,1.65,-1.76,1.65,-1.65,-1.51,-1.43,-3.41,-3.41,-3.41
324.35,-1.76,1.63,-1.76,1.63,-1.63,-1.48,-1.39,-3.39,-3.39,-3.39
327.59,-1.76,1.60,-1.76,1.60,-1.61,-1.46,-1.35,-3.37,-3.37,-3.36
330.87,-1.76,1.58,-1.76,1.58,-1.59,-1.43,-1.32,-3.35,-3.35,-3.34
334.18,-1.76,1.56,-1.76,1.56,-1.56,-1.40,-1.28,-3.33,-3.33,-3.33
337.52,-1.76,1.55,-1.76,1.55,-1.54,-1.38,-1.24,-3.30,-3.29,-3.31
340.90,-1.76,1.52,-1.76,1.52,-1.51,-1.35,-1.21,-3.27,-3.27,-3.28
344.30,-1.76,1.50,-1.78,1.48,-1.48,-1.33,-1.17,-3.24,-3.25,-3.26
347.75,-1.81,1.43,-1.79,1.45,-1.45,-1.30,-1.14,-3.26,-3.24,-3.24
351.23,-1.81,1.41,-1.81,1.41,-1.41,-1.28,-1.10,-3.23,-3.22,-3.22
354.74,-1.81,1.39,-1.82,1.38,-1.39,-1.25,-1.07,-3.20,-3.21,-3.20
358.28,-1.83,1.35,-1.83,1.35,-1.36,-1.23,-1.04,-3.19,-3.20,-3.18
361.87,-1.85,1.32,-1.84,1.33,-1.34,-1.20,-1.01,-3.19,-3.18,-3.17
365.49,-1.85,1.30,-1.84,1.31,-1.32,-1.18,-0.98,-3.17,-3.16,-3.15
369.14,-1.81,1.33,-1.83,1.31,-1.31,-1.16,-0.95,-3.12,-3.13,-3.14
372.83,-1.81,1.31,-1.81,1.31,-1.30,-1.14,-0.92,-3.11,-3.11,-3.12
376.56,-1.81,1.30,-1.81,1.30,-1.29,-1.12,-0.90,-3.10,-3.10,-3.11
380.33,-1.81,1.27,-1.81,1.28,-1.28,-1.10,-0.87,-3.09,-3.09,-3.08
384.13,-1.81,1.26,-1.81,1.26,-1.27,-1.08,-0.85,-3.08,-3.08,-3.07
387.97,-1.81,1.25,-1.81,1.25,-1.26,-1.06,-0.82,-3.07,-3.06,-3.06
391.85,-1.81,1.24,-1.81,1.24,-1.23,-1.04,-0.80,-3.04,-3.04,-3.05
395.77,-1.82,1.21,-1.83,1.21,-1.20,-1.02,-0.77,-3.02,-3.03,-3.03
399.73,-1.85,1.17,-1.85,1.17,-1.16,-1.00,-0.75,-3.01,-3.01,-3.02
403.72,-1.90,1.11,-1.89,1.12,-1.11,-0.98,-0.73,-3.01,-3.00,-3.02
407.76,-1.94,1.07,-1.95,1.06,-1.05,-0.97,-0.71,-2.99,-3.00,-3.01
411.84,-2.00,0.99,-2.00,0.99,-0.99,-0.95,-0.69,-2.99,-2.99,-2.99
415.96,-2.06,0.92,-2.06,0.92,-0.92,-0.94,-0.67,-2.98,-2.98,-2.98
420.12,-2.12,0.85,-2.13,0.84,-0.84,-0.92,-0.66,-2.97,-2.97,-2.97
424.32,-2.19,0.77,-2.19,0.77,-0.77,-0.91,-0.64,-2.97,-2.96,-2.96
428.56,-2.25,0.70,-2.25,0.70,-0.71,-0.89,-0.62,-2.96,-2.96,-2.95
432.85,-2.29,0.65,-2.30,0.64,-0.66,-0.88,-0.61,-2.95,-2.95,-2.94
437.18,-2.33,0.60,-2.33,0.60,-0.61,-0.87,-0.59,-2.94,-2.94,-2.93
441.55,-2.36,0.55,-2.35,0.56,-0.57,-0.86,-0.58,-2.93,-2.92,-2.91
