frequency,raw,error,smoothed,error_smoothed,equalization,parametric_eq,fixed_band_eq,equalized_raw,equalized_smoothed,target
20.00,13.19,6.06,13.19,6.06,-6.06,-5.33,-2.71,7.12,7.13,7.13
20.20,13.15,6.02,13.14,6.02,-6.02,-5.35,-2.78,7.13,7.13,7.13
20.40,13.10,5.97,13.10,5.97,-5.97,-5.38,-2.86,7.12,7.13,7.13
20.61,13.06,5.93,13.06,5.94,-5.93,-5.40,-2.94,7.13,7.13,7.13
20.81,13.02,5.90,13.02,5.90,-5.89,-5.43,-3.02,7.12,7.13,7.12
21.02,12.99,5.87,12.98,5.86,-5.86,-5.45,-3.11,7.13,7.12,7.12
21.23,12.94,5.82,12.94,5.82,-5.82,-5.47,-3.19,7.11,7.12,7.12
21.44,12.91,5.78,12.91,5.79,-5.79,-5.50,-3.28,7.11,7.11,7.13
21.66,12.88,5.76,12.88,5.76,-5.77,-5.52,-3.37,7.11,7.11,7.12
21.87,12.86,5.74,12.85,5.74,-5.74,-5.54,-3.47,7.12,7.11,7.12
22.09,12.83,5.72,12.83,5.72,-5.72,-5.57,-3.57,7.11,7.11,7.11
22.31,12.81,5.70,12.81,5.71,-5.70,-5.59,-3.67,7.11,7.11,7.10
22.54,12.79,5.69,12.79,5.69,-5.69,-5.61,-3.77,7.10,7.10,7.09
22.76,12.77,5.67,12.77,5.67,-5.67,-5.63,-3.87,7.09,7.09,7.09
22.99,12.75,5.65,12.75,5.66,-5.66,-5.65,-3.98,7.08,7.09,7.09
23.22,12.74,5.66,12.74,5.65,-5.66,-5.67,-4.09,7.08,7.08,7.08
23.45,12.73,5.65,12.73,5.65,-5.65,-5.69,-4.20,7.08,7.08,7.08
23.69,12.72,5.65,12.72,5.65,-5.64,-5.71,-4.32,7.08,7.08,7.07
23.92,12.71,5.65,12.71,5.64,-5.64,-5.73,-4.43,7.07,7.07,7.06
24.16,12.71,5.65,12.70,5.64,-5.64,-5.75,-4.55,7.07,7.06,7.06
24.40,12.69,5.63,12.70,5.64,-5.64,-5.77,-4.67,7.05,7.06,7.06
24.65,12.70,5.64,12.69,5.63,-5.64,-5.79,-4.79,7.06,7.05,7.06
24.89,12.70,5.64,12.69,5.64,-5.64,-5.81,-4.92,7.05,7.05,7.06
25.14,12.70,5.64,12.70,5.65,-5.65,-5.82,-5.04,7.05,7.05,7.06
25.39,12.71,5.66,12.71,5.66,-5.66,-5.84,-5.17,7.05,7.05,7.05
25.65,12.72,5.67,12.72,5.67,-5.67,-5.86,-5.30,7.05,7.05,7.05
25.91,12.73,5.68,12.73,5.68,-5.68,-5.87,-5.43,7.05,7.05,7.04
26.16,12.75,5.69,12.74,5.69,-5.69,-5.89,-5.56,7.06,7.05,7.05
26.43,12.76,5.70,12.76,5.71,-5.70,-5.90,-5.68,7.05,7.05,7.05
26.69,12.77,5.72,12.77,5.72,-5.72,-5.92,-5.81,7.05,7.05,7.05
26.96,12.79,5.74,12.78,5.73,-5.73,-5.93,-5.93,7.06,7.05,7.05
27.23,12.80,5.75,12.80,5.75,-5.75,-5.94,-6.06,7.05,7.05,7.05
27.50,12.81,5.76,12.81,5.76,-5.76,-5.96,-6.18,7.04,7.05,7.05
27.77,12.83,5.77,12.83,5.78,-5.78,-5.97,-6.29,7.05,7.05,7.06
28.05,12.85,5.80,12.85,5.80,-5.80,-5.98,-6.41,7.05,7.05,7.05
28.33,12.87,5.82,12.87,5.82,-5.82,-5.99,-6.51,7.05,7.05,7.04
28.62,12.89,5.85,12.89,5.85,-5.84,-6.00,-6.62,7.04,7.04,7.03
28.90,12.90,5.86,12.90,5.87,-5.86,-6.02,-6.71,7.03,7.04,7.04
29.19,12.92,5.89,12.92,5.89,-5.88,-6.03,-6.80,7.03,7.03,7.03
29.48,12.93,5.91,12.93,5.90,-5.90,-6.04,-6.88,7.02,7.02,7.02
29.78,12.94,5.92,12.94,5.92,-5.92,-6.04,-6.95,7.02,7.02,7.02
30.08,12.95,5.93,12.95,5.94,-5.94,-6.05,-7.02,7.01,7.01,7.02
30.38,12.96,5.95,12.96,5.95,-5.95,-6.06,-7.07,7.01,7.01,7.00
30.68,12.97,5.96,12.97,5.96,-5.96,-6.07,-7.12,7.01,7.01,7.00
30.99,12.97,5.97,12.97,5.97,-5.97,-6.08,-7.15,7.00,7.00,7.00
31.30,12.98,5.98,12.97,5.98,-5.98,-6.08,-7.18,7.00,7.00,7.00
31.61,12.98,5.98,12.98,5.98,-5.98,-6.09,-7.19,7.00,7.00,7.00
31.93,12.98,5.98,12.98,5.99,-5.98,-6.10,-7.20,6.99,7.00,7.00
32.24,12.99,5.98,12.98,5.99,-5.99,-6.10,-7.19,7.00,7.00,7.00
32.57,12.99,6.00,12.98,5.99,-5.99,-6.11,-7.18,7.00,7.00,6.99
32.89,12.98,5.98,12.98,5.98,-5.98,-6.11,-7.16,6.99,7.00,7.00
33.22,12.98,5.98,12.98,5.98,-5.98,-6.12,-7.13,7.00,6.99,7.00
33.55,12.97,5.97,12.97,5.98,-5.98,-6.12,-7.09,6.99,6.99,6.99
33.89,12.96,5.98,12.96,5.98,-5.98,-6.12,-7.04,6.98,6.98,6.98
34.23,12.95,5.98,12.95,5.98,-5.97,-6.13,-6.99,6.97,6.97,6.97
34.57,12.94,5.97,12.93,5.97,-5.97,-6.13,-6.93,6.97,6.96,6.97
34.92,12.92,5.97,12.92,5.97,-5.97,-6.13,-6.87,6.95,6.95,6.94
35.27,12.90,5.96,12.90,5.97,-5.97,-6.13,-6.81,6.93,6.93,6.94
35.62,12.89,5.98,12.88,5.97,-5.97,-6.13,-6.74,6.92,6.91,6.91
35.97,12.86,5.96,12.86,5.97,-5.97,-6.13,-6.67,6.89,6.89,6.89
36.33,12.84,5.97,12.84,5.97,-5.97,-6.13,-6.59,6.86,6.87,6.87
36.70,12.82,5.98,12.81,5.97,-5.98,-6.13,-6.52,6.84,6.84,6.84
37.06,12.79,5.97,12.79,5.98,-5.98,-6.13,-6.45,6.81,6.81,6.81
37.43,12.76,5.98,12.76,5.98,-5.98,-6.13,-6.37,6.78,6.78,6.78
37.81,12.74,5.98,12.73,5.98,-5.98,-6.13,-6.30,6.75,6.75,6.75
38.19,12.71,5.99,12.71,5.98,-5.98,-6.12,-6.23,6.72,6.72,6.72
38.57,12.68,5.98,12.68,5.98,-5.98,-6.12,-6.16,6.70,6.70,6.70
38.95,12.65,5.98,12.65,5.98,-5.98,-6.12,-6.09,6.67,6.67,6.67
39.34,12.62,5.98,12.62,5.98,-5.97,-6.11,-6.03,6.64,6.64,6.64
39.74,12.58,5.97,12.58,5.97,-5.96,-6.11,-5.96,6.61,6.62,6.61
40.14,12.55,5.96,12.54,5.95,-5.95,-6.10,-5.90,6.60,6.59,6.59
40.54,12.50,5.93,12.50,5.94,-5.94,-6.10,-5.85,6.56,6.57,6.57
40.94,12.47,5.92,12.47,5.92,-5.92,-6.09,-5.79,6.55,6.54,6.55
41.35,12.43,5.91,12.43,5.90,-5.90,-6.09,-5.75,6.52,6.52,6.52
41.76,12.39,5.89,12.39,5.88,-5.89,-6.08,-5.70,6.50,6.50,6.50
42.18,12.35,5.86,12.35,5.86,-5.86,-6.07,-5.66,6.48,6.48,6.49
42.60,12.30,5.83,12.30,5.84,-5.84,-6.07,-5.62,6.45,6.46,6.46
43.03,12.27,5.83,12.26,5.82,-5.82,-6.06,-5.59,6.45,6.44,6.44
43.46,12.22,5.80,12.22,5.80,-5.80,-6.05,-5.56,6.42,6.42,6.42
43.90,12.18,5.78,12.18,5.78,-5.77,-6.04,-5.54,6.41,6.40,6.40
44.33,12.13,5.75,12.13,5.75,-5.75,-6.03,-5.52,6.38,6.38,6.38
44.78,12.08,5.72,12.08,5.72,-5.73,-6.02,-5.50,6.35,6.35,6.36
45.23,12.04,5.69,12.04,5.70,-5.71,-6.01,-5.49,6.33,6.33,6.35
45.68,12.00,5.69,12.00,5.68,-5.69,-6.00,-5.48,6.31,6.31,6.31
46.13,11.96,5.68,11.96,5.67,-5.67,-5.99,-5.48,6.29,6.29,6.27
46.60,11.91,5.65,11.91,5.66,-5.65,-5.98,-5.48,6.25,6.26,6.25
47.06,11.87,5.64,11.86,5.64,-5.64,-5.97,-5.48,6.23,6.22,6.22
47.53,11.82,5.62,11.82,5.63,-5.63,-5.95,-5.49,6.19,6.19,6.20
48.01,11.77,5.62,11.77,5.62,-5.62,-5.94,-5.50,6.15,6.15,6.15
48.49,11.73,5.61,11.72,5.61,-5.61,-5.93,-5.52,6.12,6.11,6.12
48.97,11.68,5.60,11.68,5.60,-5.60,-5.91,-5.54,6.07,6.07,6.07
49.46,11.63,5.58,11.63,5.60,-5.60,-5.90,-5.56,6.03,6.03,6.04
49.96,11.59,5.61,11.58,5.59,-5.59,-5.89,-5.58,6.00,5.99,5.98
50.46,11.54,5.59,11.54,5.59,-5.59,-5.87,-5.61,5.95,5.95,5.95
50.96,11.49,5.58,11.49,5.58,-5.58,-5.86,-5.64,5.91,5.91,5.91
51.47,11.45,5.57,11.45,5.58,-5.57,-5.84,-5.67,5.87,5.88,5.88
51.99,11.41,5.58,11.41,5.57,-5.57,-5.83,-5.71,5.84,5.84,5.83
52.51,11.37,5.57,11.36,5.56,-5.56,-5.81,-5.74,5.81,5.80,5.80
53.03,11.32,5.54,11.32,5.55,-5.56,-5.79,-5.78,5.76,5.76,5.78
53.56,11.27,5.54,11.27,5.54,-5.55,-5.78,-5.82,5.72,5.72,5.73
54.10,11.24,5.55,11.23,5.54,-5.55,-5.76,-5.85,5.69,5.69,5.69
54.64,11.19,5.54,11.19,5.54,-5.54,-5.74,-5.89,5.65,5.65,5.65
55.18,11.15,5.54,11.15,5.54,-5.53,-5.73,-5.93,5.61,5.61,5.60
55.74,11.10,5.53,11.10,5.53,-5.53,-5.71,-5.96,5.57,5.57,5.57
56.29,11.06,5.52,11.06,5.52,-5.52,-5.69,-5.99,5.54,5.54,5.54
56.86,11.01,5.50,11.01,5.51,-5.50,-5.67,-6.02,5.51,5.51,5.51
57.42,10.97,5.50,10.97,5.50,-5.49,-5.66,-6.05,5.48,5.48,5.46
58.00,10.92,5.48,10.92,5.48,-5.47,-5.64,-6.07,5.45,5.45,5.43
58.58,10.88,5.46,10.87,5.46,-5.46,-5.62,-6.09,5.42,5.41,5.42
59.16,10.82,5.43,10.82,5.44,-5.45,-5.60,-6.11,5.37,5.37,5.38
59.76,10.78,5.42,10.78,5.42,-5.44,-5.58,-6.12,5.34,5.33,5.35
60.35,10.73,5.42,10.73,5.42,-5.44,-5.56,-6.12,5.29,5.29,5.30
60.96,10.69,5.43,10.69,5.43,-5.44,-5.54,-6.12,5.25,5.25,5.26
61.57,10.65,5.45,10.64,5.44,-5.44,-5.52,-6.11,5.21,5.20,5.20
62.18,10.60,5.45,10.60,5.45,-5.44,-5.50,-6.10,5.15,5.16,5.14
62.80,10.56,5.46,10.55,5.46,-5.45,-5.48,-6.08,5.11,5.11,5.10
63.43,10.51,5.46,10.51,5.46,-5.45,-5.46,-6.05,5.06,5.06,5.04
64.07,10.46,5.45,10.46,5.45,-5.45,-5.44,-6.02,5.01,5.01,5.01
64.71,10.42,5.45,10.41,5.44,-5.45,-5.42,-5.99,4.97,4.97,4.97
65.35,10.37,5.43,10.37,5.44,-5.44,-5.40,-5.94,4.93,4.93,4.93
66.01,10.33,5.43,10.33,5.43,-5.43,-5.38,-5.89,4.90,4.90,4.90
66.67,10.29,5.42,10.28,5.42,-5.42,-5.36,-5.84,4.87,4.86,4.87
67.33,10.23,5.41,10.23,5.41,-5.41,-5.35,-5.78,4.81,4.82,4.82
68.01,10.19,5.41,10.18,5.41,-5.40,-5.33,-5.72,4.78,4.78,4.78
68.69,10.14,5.40,10.14,5.40,-5.40,-5.31,-5.65,4.74,4.74,4.74
69.37,10.09,5.38,10.09,5.39,-5.39,-5.29,-5.58,4.70,4.70,4.70
70.07,10.05,5.38,10.05,5.38,-5.38,-5.27,-5.51,4.67,4.66,4.67
70.77,10.00,5.37,10.00,5.37,-5.37,-5.25,-5.43,4.62,4.62,4.63
71.48,9.95,5.37,9.95,5.36,-5.36,-5.23,-5.36,4.58,4.58,4.58
72.19,9.89,5.35,9.89,5.35,-5.35,-5.21,-5.28,4.53,4.54,4.54
72.91,9.85,5.35,9.84,5.34,-5.34,-5.19,-5.20,4.50,4.50,4.50
73.64,9.79,5.33,9.79,5.34,-5.33,-5.18,-5.12,4.45,4.46,4.45
74.38,9.74,5.32,9.74,5.32,-5.32,-5.16,-5.04,4.42,4.42,4.41
75.12,9.69,5.31,9.69,5.31,-5.30,-5.14,-4.96,4.38,4.38,4.38
75.87,9.64,5.28,9.63,5.28,-5.29,-5.13,-4.88,4.35,4.35,4.36
76.63,9.58,5.26,9.58,5.27,-5.27,-5.11,-4.80,4.31,4.32,4.32
77.40,9.53,5.24,9.53,5.24,-5.24,-5.09,-4.72,4.29,4.28,4.28
78.17,9.48,5.24,9.47,5.22,-5.22,-5.08,-4.64,4.26,4.25,4.24
78.95,9.41,5.18,9.41,5.19,-5.19,-5.06,-4.57,4.21,4.22,4.23
79.74,9.36,5.16,9.36,5.16,-5.17,-5.05,-4.50,4.19,4.19,4.19
80.54,9.30,5.14,9.30,5.13,-5.14,-5.03,-4.43,4.16,4.16,4.16
81.35,9.25,5.11,9.25,5.11,-5.11,-5.01,-4.36,4.13,4.13,4.13
82.16,9.19,5.08,9.19,5.08,-5.08,-5.00,-4.30,4.10,4.10,4.11
82.98,9.13,5.06,9.13,5.06,-5.06,-4.98,-4.24,4.07,4.07,4.07
83.81,9.07,5.03,9.07,5.03,-5.02,-4.97,-4.18,4.04,4.04,4.04
84.65,9.01,5.00,9.01,5.00,-4.99,-4.95,-4.12,4.01,4.01,4.00
85.50,8.94,4.96,8.94,4.96,-4.96,-4.94,-4.07,3.98,3.98,3.97
86.35,8.88,4.92,8.88,4.93,-4.93,-4.92,-4.02,3.95,3.95,3.95
87.22,8.81,4.89,8.81,4.89,-4.89,-4.90,-3.97,3.91,3.92,3.92
88.09,8.75,4.86,8.75,4.85,-4.86,-4.89,-3.92,3.89,3.89,3.89
88.97,8.68,4.82,8.68,4.82,-4.82,-4.87,-3.88,3.86,3.86,3.86
89.86,8.62,4.79,8.61,4.79,-4.78,-4.85,-3.84,3.83,3.83,3.83
90.76,8.55,4.76,8.54,4.75,-4.75,-4.82,-3.81,3.80,3.80,3.79
91.66,8.47,4.71,8.47,4.71,-4.71,-4.80,-3.77,3.75,3.76,3.76
92.58,8.40,4.67,8.40,4.67,-4.68,-4.77,-3.74,3.72,3.72,3.72
93.51,8.33,4.64,8.33,4.64,-4.64,-4.74,-3.72,3.68,3.68,3.69
94.44,8.26,4.60,8.26,4.61,-4.61,-4.71,-3.69,3.65,3.65,3.65
95.39,8.19,4.58,8.18,4.57,-4.58,-4.68,-3.67,3.61,3.61,3.61
96.34,8.11,4.55,8.11,4.54,-4.55,-4.64,-3.65,3.56,3.56,3.56
97.30,8.03,4.50,8.03,4.51,-4.51,-4.61,-3.63,3.51,3.52,3.53
98.28,7.96,4.49,7.95,4.48,-4.48,-4.56,-3.62,3.48,3.47,3.47
99.26,7.87,4.45,7.87,4.45,-4.44,-4.52,-3.61,3.43,3.43,3.42
100.25,7.80,4.41,7.79,4.41,-4.40,-4.47,-3.59,3.40,3.39,3.38
101.25,7.71,4.36,7.71,4.36,-4.36,-4.42,-3.59,3.35,3.35,3.35
102.27,7.62,4.31,7.62,4.31,-4.31,-4.37,-3.58,3.31,3.31,3.31
103.29,7.54,4.27,7.53,4.26,-4.26,-4.32,-3.57,3.27,3.27,3.27
104.32,7.45,4.20,7.45,4.21,-4.21,-4.26,-3.57,3.24,3.24,3.24
105.37,7.36,4.15,7.36,4.16,-4.16,-4.20,-3.56,3.20,3.20,3.21
106.42,7.28,4.10,7.28,4.10,-4.10,-4.14,-3.56,3.18,3.17,3.18
107.48,7.19,4.06,7.19,4.05,-4.05,-4.08,-3.56,3.14,3.14,3.13
108.56,7.10,4.00,7.10,3.99,-3.99,-4.01,-3.56,3.11,3.11,3.10
109.64,7.00,3.92,7.00,3.93,-3.93,-3.95,-3.56,3.07,3.07,3.07
110.74,6.91,3.87,6.91,3.87,-3.87,-3.88,-3.55,3.03,3.03,3.04
111.85,6.82,3.82,6.82,3.81,-3.82,-3.82,-3.55,3.00,3.00,3.00
112.97,6.72,3.76,6.72,3.76,-3.76,-3.75,-3.55,2.96,2.96,2.96
114.10,6.63,3.70,6.62,3.70,-3.70,-3.68,-3.54,2.93,2.92,2.93
115.24,6.52,3.64,6.52,3.64,-3.64,-3.61,-3.53,2.87,2.88,2.88
116.39,6.42,3.59,6.42,3.59,-3.59,-3.55,-3.53,2.83,2.83,2.82
117.55,6.32,3.53,6.32,3.53,-3.53,-3.48,-3.52,2.79,2.78,2.79
118.73,6.22,3.48,6.21,3.48,-3.47,-3.41,-3.50,2.74,2.74,2.73
119.92,6.11,3.42,6.11,3.42,-3.42,-3.34,-3.49,2.69,2.70,2.69
121.12,6.01,3.35,6.01,3.36,-3.36,-3.27,-3.47,2.65,2.65,2.65
122.33,5.91,3.31,5.91,3.30,-3.30,-3.21,-3.45,2.61,2.60,2.60
123.55,5.80,3.24,5.80,3.24,-3.24,-3.14,-3.43,2.55,2.56,2.56
124.79,5.70,3.18,5.69,3.18,-3.19,-3.07,-3.40,2.51,2.51,2.52
126.03,5.58,3.11,5.58,3.12,-3.13,-3.01,-3.37,2.45,2.46,2.46
127.29,5.48,3.07,5.48,3.07,-3.07,-2.94,-3.34,2.41,2.41,2.40
128.57,5.37,3.02,5.37,3.01,-3.01,-2.87,-3.30,2.36,2.35,2.35
129.85,5.26,2.95,5.26,2.96,-2.95,-2.81,-3.27,2.31,2.31,2.30
131.15,5.15,2.89,5.15,2.89,-2.89,-2.74,-3.22,2.26,2.26,2.25
132.46,5.04,2.83,5.04,2.83,-2.83,-2.68,-3.18,2.21,2.21,2.21
133.79,4.93,2.76,4.93,2.76,-2.76,-2.61,-3.13,2.17,2.17,2.17
135.12,4.82,2.70,4.82,2.69,-2.69,-2.55,-3.08,2.13,2.13,2.12
136.48,4.71,2.61,4.71,2.62,-2.62,-2.49,-3.03,2.09,2.09,2.10
137.84,4.60,2.54,4.60,2.54,-2.54,-2.42,-2.98,2.05,2.05,2.06
139.22,4.49,2.47,4.49,2.46,-2.47,-2.36,-2.92,2.02,2.02,2.02
140.61,4.38,2.39,4.38,2.39,-2.39,-2.30,-2.87,1.99,1.99,1.99
142.02,4.28,2.32,4.27,2.31,-2.31,-2.24,-2.81,1.97,1.96,1.96
143.44,4.17,2.24,4.17,2.24,-2.23,-2.17,-2.75,1.93,1.93,1.93
144.87,4.06,2.15,4.06,2.16,-2.16,-2.11,-2.69,1.90,1.90,1.91
146.32,3.96,2.08,3.95,2.08,-2.08,-2.05,-2.63,1.88,1.88,1.88
147.78,3.85,2.00,3.85,2.00,-2.00,-1.99,-2.56,1.84,1.85,1.85
149.26,3.75,1.93,3.74,1.93,-1.93,-1.93,-2.50,1.82,1.82,1.82
150.75,3.64,1.86,3.64,1.85,-1.85,-1.87,-2.44,1.79,1.79,1.78
152.26,3.54,1.77,3.54,1.78,-1.78,-1.81,-2.38,1.76,1.76,1.77
153.78,3.44,1.71,3.44,1.70,-1.71,-1.75,-2.32,1.73,1.73,1.73
155.32,3.34,1.63,3.34,1.64,-1.64,-1.69,-2.25,1.70,1.70,1.70
156.88,3.24,1.57,3.24,1.57,-1.57,-1.63,-2.19,1.67,1.67,1.67
158.44,3.15,1.51,3.14,1.50,-1.51,-1.58,-2.13,1.64,1.64,1.64
160.03,3.05,1.44,3.05,1.45,-1.45,-1.52,-2.07,1.60,1.60,1.60
161.63,2.96,1.38,2.96,1.39,-1.39,-1.46,-2.01,1.57,1.57,1.57
163.24,2.87,1.35,2.87,1.34,-1.34,-1.41,-1.95,1.53,1.53,1.52
164.88,2.78,1.29,2.78,1.29,-1.29,-1.36,-1.90,1.49,1.49,1.49
166.53,2.70,1.24,2.69,1.24,-1.24,-1.30,-1.84,1.46,1.46,1.45
168.19,2.61,1.18,2.61,1.19,-1.19,-1.25,-1.78,1.42,1.42,1.42
169.87,2.53,1.14,2.53,1.14,-1.15,-1.20,-1.73,1.38,1.38,1.39
171.57,2.45,1.11,2.45,1.10,-1.10,-1.15,-1.68,1.35,1.34,1.34
173.29,2.37,1.06,2.37,1.06,-1.06,-1.11,-1.62,1.31,1.31,1.30
175.02,2.29,1.02,2.29,1.02,-1.02,-1.06,-1.57,1.27,1.27,1.27
176.77,2.22,0.98,2.22,0.98,-0.98,-1.02,-1.52,1.23,1.24,1.23
178.54,2.15,0.95,2.15,0.95,-0.95,-0.97,-1.47,1.20,1.20,1.20
180.32,2.08,0.92,2.07,0.91,-0.91,-0.93,-1.42,1.17,1.16,1.16
182.13,2.00,0.87,2.00,0.88,-0.88,-0.89,-1.38,1.12,1.13,1.13
183.95,1.94,0.84,1.94,0.85,-0.85,-0.86,-1.33,1.09,1.09,1.09
185.79,1.88,0.83,1.87,0.82,-0.82,-0.82,-1.29,1.06,1.05,1.05
187.65,1.81,0.79,1.81,0.79,-0.79,-0.79,-1.24,1.01,1.02,1.02
189.52,1.75,0.77,1.75,0.77,-0.77,-0.76,-1.20,0.98,0.98,0.98
191.42,1.69,0.74,1.69,0.74,-0.75,-0.73,-1.16,0.94,0.94,0.94
193.33,1.64,0.73,1.64,0.73,-0.73,-0.70,-1.12,0.91,0.90,0.90
195.27,1.58,0.71,1.58,0.72,-0.71,-0.68,-1.08,0.86,0.87,0.87
197.22,1.54,0.71,1.53,0.70,-0.70,-0.66,-1.04,0.84,0.83,0.83
199.19,1.48,0.68,1.48,0.68,-0.68,-0.64,-1.00,0.80,0.80,0.80
201.18,1.44,0.67,1.44,0.67,-0.67,-0.62,-0.97,0.77,0.77,0.77
203.19,1.40,0.66,1.39,0.65,-0.65,-0.61,-0.93,0.75,0.74,0.74
205.23,1.35,0.63,1.35,0.64,-0.64,-0.59,-0.90,0.71,0.71,0.72
207.28,1.31,0.62,1.31,0.62,-0.62,-0.58,-0.86,0.68,0.68,0.69
209.35,1.27,0.61,1.27,0.61,-0.61,-0.57,-0.83,0.66,0.65,0.66
211.44,1.23,0.60,1.23,0.60,-0.60,-0.57,-0.80,0.62,0.63,0.63
213.56,1.20,0.60,1.20,0.59,-0.60,-0.56,-0.77,0.60,0.60,0.60
215.69,1.17,0.59,1.17,0.59,-0.59,-0.56,-0.74,0.58,0.58,0.58
217.85,1.14,0.58,1.14,0.59,-0.58,-0.56,-0.71,0.55,0.55,0.55
220.03,1.11,0.59,1.11,0.59,-0.58,-0.56,-0.69,0.53,0.53,0.52
222.23,1.09,0.59,1.08,0.58,-0.58,-0.56,-0.66,0.51,0.50,0.50
224.45,1.06,0.58,1.06,0.58,-0.58,-0.56,-0.64,0.48,0.48,0.48
226.70,1.03,0.57,1.03,0.57,-0.57,-0.56,-0.61,0.45,0.46,0.46
228.96,1.02,0.57,1.01,0.57,-0.57,-0.57,-0.59,0.44,0.44,0.45
231.25,1.00,0.57,1.00,0.57,-0.58,-0.57,-0.57,0.42,0.42,0.43
233.57,0.98,0.57,0.98,0.58,-0.58,-0.58,-0.55,0.40,0.40,0.41
235.90,0.97,0.59,0.97,0.58,-0.58,-0.59,-0.53,0.39,0.39,0.38
238.26,0.96,0.60,0.96,0.59,-0.58,-0.60,-0.52,0.37,0.37,0.36
240.64,0.95,0.59,0.95,0.59,-0.59,-0.60,-0.50,0.36,0.36,0.36
243.05,0.94,0.59,0.94,0.60,-0.59,-0.61,-0.49,0.34,0.34,0.34
245.48,0.93,0.60,0.93,0.60,-0.60,-0.62,-0.48,0.33,0.33,0.33
247.93,0.92,0.61,0.92,0.61,-0.60,-0.63,-0.46,0.31,0.32,0.31
250.41,0.92,0.61,0.92,0.61,-0.61,-0.65,-0.45,0.31,0.31,0.31
252.92,0.92,0.61,0.91,0.61,-0.62,-0.66,-0.45,0.30,0.30,0.30
255.45,0.91,0.62,0.91,0.62,-0.62,-0.67,-0.44,0.29,0.29,0.29
258.00,0.91,0.63,0.91,0.63,-0.63,-0.68,-0.44,0.28,0.28,0.28
260.58,0.91,0.63,0.91,0.64,-0.64,-0.69,-0.43,0.27,0.27,0.27
263.19,0.92,0.66,0.91,0.65,-0.65,-0.70,-0.43,0.27,0.26,0.26
265.82,0.92,0.67,0.92,0.67,-0.66,-0.71,-0.43,0.25,0.25,0.25
268.48,0.92,0.67,0.92,0.68,-0.68,-0.73,-0.43,0.24,0.24,0.25
271.16,0.93,0.70,0.92,0.69,-0.69,-0.74,-0.43,0.23,0.23,0.23
273.87,0.93,0.70,0.93,0.71,-0.71,-0.75,-0.43,0.22,0.22,0.23
276.61,0.94,0.73,0.94,0.73,-0.73,-0.76,-0.43,0.21,0.21,0.21
279.38,0.94,0.74,0.94,0.74,-0.74,-0.77,-0.44,0.19,0.20,0.20
282.17,0.96,0.77,0.95,0.76,-0.76,-0.79,-0.45,0.20,0.19,0.19
284.99,0.97,0.77,0.97,0.78,-0.78,-0.80,-0.45,0.19,0.19,0.20
287.84,0.98,0.79,0.98,0.80,-0.80,-0.81,-0.46,0.18,0.19,0.19
290.72,1.00,0.83,0.99,0.82,-0.81,-0.82,-0.47,0.18,0.18,0.17
293.63,1.01,0.83,1.01,0.84,-0.83,-0.83,-0.48,0.18,0.18,0.17
296.57,1.02,0.85,1.02,0.85,-0.85,-0.84,-0.49,0.17,0.17,0.17
299.53,1.03,0.86,1.03,0.86,-0.86,-0.86,-0.50,0.16,0.17,0.17
302.53,1.04,0.88,1.04,0.88,-0.88,-0.87,-0.51,0.16,0.16,0.16
305.55,1.06,0.90,1.05,0.89,-0.90,-0.88,-0.53,0.16,0.15,0.16
308.61,1.06,0.90,1.06,0.91,-0.91,-0.89,-0.54,0.15,0.15,0.16
311.69,1.08,0.93,1.08,0.93,-0.93,-0.90,-0.56,0.15,0.15,0.15
314.81,1.10,0.95,1.09,0.94,-0.94,-0.91,-0.57,0.16,0.15,0.15
317.96,1.11,0.96,1.11,0.96,-0.95,-0.92,-0.59,0.15,0.15,0.15
321.14,1.12,0.96,1.12,0.97,-0.97,-0.93,-0.60,0.15,0.15,0.15
324.35,1.13,0.99,1.13,0.98,-0.98,-0.94,-0.62,0.15,0.15,0.14
327.59,1.14,0.98,1.14,0.99,-0.99,-0.96,-0.64,0.15,0.15,0.16
330.87,1.15,0.99,1.15,1.00,-1.00,-0.97,-0.66,0.14,0.15,0.16
334.18,1.17,1.02,1.16,1.01,-1.01,-0.98,-0.68,0.15,0.15,0.14
337.52,1.18,1.03,1.18,1.03,-1.02,-0.99,-0.70,0.15,0.15,0.15
340.90,1.19,1.04,1.19,1.04,-1.03,-1.00,-0.72,0.15,0.15,0.15
344.30,1.20,1.04,1.20,1.04,-1.04,-1.01,-0.74,0.15,0.16,0.16
347.75,1.21,1.04,1.21,1.05,-1.05,-1.02,-0.76,0.15,0.16,0.16
351.23,1.23,1.08,1.22,1.06,-1.06,-1.03,-0.79,0.17,0.16,0.15
354.74,1.23,1.06,1.23,1.07,-1.07,-1.04,-0.81,0.16,0.16,0.17
358.28,1.24,1.08,1.24,1.08,-1.08,-1.05,-0.84,0.16,0.17,0.16
361.87,1.26,1.09,1.25,1.08,-1.08,-1.06,-0.86,0.17,0.17,0.17
365.49,1.26,1.09,1.26,1.09,-1.09,-1.07,-0.89,0.17,0.17,0.17
369.14,1.27,1.09,1.27,1.10,-1.10,-1.08,-0.91,0.17,0.17,0.17
372.83,1.28,1.11,1.27,1.10,-1.11,-1.09,-0.94,0.17,0.17,0.17
376.56,1.28,1.11,1.28,1.11,-1.11,-1.10,-0.96,0.17,0.17,0.17
380.33,1.29,1.12,1.29,1.12,-1.12,-1.11,-0.99,0.17,0.17,0.17
384.13,1.30,1.13,1.30,1.13,-1.12,-1.12,-1.02,0.17,0.17,0.17
387.97,1.31,1.13,1.30,1.13,-1.13,-1.12,-1.05,0.18,0.17,0.18
391.85,1.31,1.13,1.31,1.14,-1.14,-1.13,-1.08,0.17,0.18,0.18
395.77,1.32,1.14,1.32,1.14,-1.14,-1.14,-1.10,0.17,0.17,0.17
399.73,1.33,1.15,1.32,1.15,-1.15,-1.15,-1.13,0.18,0.18,0.17
403.72,1.33,1.15,1.33,1.15,-1.15,-1.16,-1.16,0.18,0.18,0.18
407.76,1.34,1.16,1.34,1.16,-1.16,-1.17,-1.19,0.18,0.18,0.18
411.84,1.35,1.17,1.34,1.16,-1.16,-1.17,-1.22,0.19,0.18,0.18
415.96,1.35,1.16,1.35,1.17,-1.17,-1.18,-1.24,0.18,0.18,0.19
420.12,1.35,1.17,1.35,1.17,-1.17,-1.19,-1.27,0.18,0.18,0.18
424.32,1.36,1.18,1.35,1.17,-1.18,-1.19,-1.30,0.18,0.18,0.18
428.56,1.36,1.17,1.36,1.18,-1.18,-1.20,-1.32,0.18,0.18,0.19
432.85,1.37,1.18,1.37,1.18,-1.18,-1.20,-1.35,0.18,0.18,0.18
437.18,1.37,1.19,1.37,1.19,-1.19,-1.21,-1.37,0.18,0.18,0.17
441.55,1.37,1.19,1.37,1.19,-1.19,-1.21,-1.39,0.18,0.18,0.17
445.96,1.37,1.19,1.37,1.20,-1.19,-1.22,-1.41,0.17,0.17,0.17
450.42,1.37,1.20,1.37,1.20,-1.19,-1.22,-1.43,0.17,0.17,0.17
454.93,1.37,1.20,1.37,1.20,-1.19,-1.22,-1.44,0.17,0.17,0.17
459.48,1.37,1.20,1.37,1.19,-1.19,-1.23,-1.45,0.17,0.17,0.17
464.07,1.37,1.19,1.37,1.19,-1.19,-1.23,-1.46,0.17,0.17,0.18
468.71,1.37,1.19,1.37,1.19,-1.19,-1.23,-1.47,0.17,0.17,0.18
473.40,1.38,1.20,1.37,1.19,-1.19,-1.23,-1.47,0.18,0.18,0.18
478.13,1.37,1.19,1.38,1.20,-1.20,-1.23,-1.48,0.17,0.18,0.18
482.91,1.39,1.21,1.38,1.20,-1.20,-1.23,-1.47,0.19,0.18,0.18
487.74,1.39,1.20,1.39,1.20,-1.20,-1.22,-1.47,0.18,0.18,0.19
492.62,1.39,1.20,1.39,1.21,-1.21,-1.22,-1.46,0.18,0.19,0.19
497.55,1.40,1.21,1.40,1.21,-1.21,-1.22,-1.45,0.18,0.18,0.19
502.52,1.41,1.22,1.40,1.22,-1.22,-1.21,-1.43,0.19,0.18,0.19
507.55,1.41,1.21,1.42,1.22,-1.23,-1.21,-1.41,0.18,0.19,0.20
512.62,1.43,1.23,1.43,1.22,-1.23,-1.20,-1.38,0.20,0.19,0.19
517.75,1.44,1.22,1.43,1.23,-1.23,-1.19,-1.36,0.21,0.20,0.21
522.93,1.44,1.22,1.44,1.23,-1.23,-1.18,-1.33,0.21,0.22,0.21
