frequency,raw,error,smoothed,error_smoothed,equalization,parametric_eq,equalized_raw,equalized_smoothed,target
20,-5.98,-4.66,-5.91,-4.57,4.57,0.32,-1.41,-1.34,-1.32
21,-5.44,-4.12,-5.40,-4.06,4.06,0.37,-1.38,-1.35,-1.32
22,-4.89,-3.56,-4.92,-3.57,3.57,0.43,-1.32,-1.35,-1.33
23,-4.43,-3.10,-4.47,-3.11,3.11,0.49,-1.32,-1.36,-1.33
24,-3.98,-2.64,-4.04,-2.67,2.67,0.55,-1.31,-1.37,-1.34
25,-3.49,-2.15,-3.64,-2.27,2.27,0.62,-1.22,-1.37,-1.34
26,-3.15,-1.80,-3.27,-1.89,1.89,0.68,-1.26,-1.38,-1.35
27,-2.93,-1.58,-2.93,-1.54,1.54,0.74,-1.39,-1.39,-1.36
28,-2.75,-1.39,-2.61,-1.21,1.21,0.79,-1.54,-1.40,-1.36
29,-2.59,-1.22,-2.32,-0.92,0.92,0.82,-1.67,-1.40,-1.37
30,-2.20,-0.82,-2.06,-0.65,0.65,0.84,-1.55,-1.41,-1.38
31,-1.83,-0.44,-1.83,-0.41,0.41,0.85,-1.42,-1.42,-1.39
32,-1.51,-0.12,-1.63,-0.20,0.20,0.83,-1.31,-1.43,-1.40
33,-1.32,0.08,-1.45,-0.02,0.02,0.80,-1.30,-1.43,-1.40
34,-1.18,0.23,-1.30,0.14,-0.14,0.76,-1.32,-1.44,-1.41
35,-1.14,0.28,-1.18,0.26,-0.26,0.71,-1.41,-1.44,-1.43
36,-1.05,0.39,-1.08,0.37,-0.37,0.65,-1.42,-1.45,-1.44
37,-1.00,0.45,-1.00,0.44,-0.44,0.59,-1.44,-1.45,-1.45
38,-0.95,0.51,-0.96,0.49,-0.49,0.53,-1.44,-1.45,-1.46
39,-0.93,0.54,-0.95,0.52,-0.52,0.47,-1.45,-1.47,-1.47
40,-0.95,0.54,-0.96,0.53,-0.53,0.41,-1.49,-1.50,-1.49
41,-1.00,0.50,-0.99,0.53,-0.53,0.35,-1.53,-1.53,-1.50
42,-1.02,0.50,-1.03,0.52,-0.52,0.29,-1.54,-1.55,-1.52
43,-1.11,0.42,-1.06,0.50,-0.50,0.23,-1.61,-1.56,-1.53
44,-1.18,0.37,-1.09,0.48,-0.48,0.18,-1.67,-1.57,-1.55
45,-1.18,0.39,-1.12,0.47,-0.47,0.12,-1.65,-1.59,-1.57
46,-1.18,0.40,-1.15,0.46,-0.46,0.07,-1.64,-1.60,-1.58
47,-1.18,0.42,-1.17,0.45,-0.45,0.02,-1.63,-1.62,-1.60
48,-1.18,0.44,-1.20,0.45,-0.45,-0.03,-1.63,-1.64,-1.62
49,-1.18,0.46,-1.21,0.45,-0.45,-0.07,-1.63,-1.66,-1.64
50,-1.23,0.43,-1.23,0.45,-0.45,-0.12,-1.68,-1.68,-1.66
51,-1.23,0.45,-1.24,0.47,-0.47,-0.16,-1.70,-1.70,-1.68
52,-1.23,0.48,-1.24,0.48,-0.48,-0.20,-1.71,-1.72,-1.71
53,-1.23,0.50,-1.24,0.50,-0.50,-0.24,-1.73,-1.74,-1.73
54,-1.23,0.52,-1.24,0.52,-0.52,-0.28,-1.75,-1.76,-1.75
55,-1.28,0.50,-1.25,0.54,-0.54,-0.31,-1.82,-1.79,-1.78
56,-1.28,0.52,-1.25,0.57,-0.57,-0.35,-1.85,-1.82,-1.80
57,-1.28,0.55,-1.25,0.59,-0.59,-0.38,-1.88,-1.85,-1.83
58,-1.28,0.57,-1.25,0.61,-0.61,-0.40,-1.90,-1.87,-1.86
59,-1.28,0.60,-1.26,0.63,-0.63,-0.43,-1.91,-1.89,-1.88
60,-1.28,0.63,-1.28,0.63,-0.63,-0.45,-1.91,-1.91,-1.91
61,-1.28,0.66,-1.31,0.62,-0.62,-0.47,-1.90,-1.94,-1.94
62,-1.32,0.65,-1.36,0.61,-0.61,-0.48,-1.93,-1.97,-1.97
63,-1.37,0.63,-1.43,0.58,-0.58,-0.50,-1.95,-2.01,-2.00
64,-1.41,0.62,-1.50,0.54,-0.54,-0.51,-1.95,-2.04,-2.03
65,-1.47,0.59,-1.58,0.50,-0.50,-0.52,-1.97,-2.08,-2.06
66,-1.60,0.49,-1.67,0.45,-0.45,-0.52,-2.05,-2.12,-2.09
67,-1.74,0.38,-1.76,0.39,-0.39,-0.53,-2.13,-2.15,-2.12
68,-1.90,0.25,-1.86,0.34,-0.34,-0.53,-2.24,-2.19,-2.15
69,-2.04,0.15,-1.94,0.28,-0.28,-0.53,-2.32,-2.23,-2.19
70,-2.14,0.08,-2.03,0.24,-0.24,-0.53,-2.38,-2.26,-2.22
71,-2.21,0.04,-2.10,0.20,-0.20,-0.53,-2.41,-2.30,-2.25
72,-2.21,0.08,-2.16,0.17,-0.17,-0.53,-2.38,-2.33,-2.29
73,-2.26,0.06,-2.22,0.14,-0.14,-0.53,-2.40,-2.36,-2.32
74,-2.26,0.10,-2.26,0.13,-0.13,-0.53,-2.39,-2.39,-2.36
75,-2.26,0.13,-2.29,0.13,-0.13,-0.52,-2.39,-2.43,-2.39
76,-2.26,0.17,-2.32,0.14,-0.14,-0.52,-2.40,-2.45,-2.43
77,-2.26,0.20,-2.33,0.15,-0.15,-0.52,-2.41,-2.48,-2.46
78,-2.30,0.20,-2.35,0.16,-0.16,-0.52,-2.46,-2.51,-2.50
79,-2.35,0.18,-2.36,0.17,-0.17,-0.52,-2.52,-2.53,-2.54
80,-2.37,0.20,-2.38,0.19,-0.19,-0.52,-2.56,-2.57,-2.57
81,-2.42,0.19,-2.40,0.20,-0.20,-0.52,-2.62,-2.61,-2.61
82,-2.44,0.20,-2.43,0.22,-0.22,-0.52,-2.66,-2.65,-2.64
83,-2.49,0.19,-2.45,0.23,-0.23,-0.52,-2.72,-2.69,-2.68
84,-2.49,0.23,-2.48,0.24,-0.24,-0.52,-2.73,-2.72,-2.72
85,-2.52,0.23,-2.51,0.25,-0.25,-0.52,-2.77,-2.76,-2.75
86,-2.54,0.25,-2.54,0.25,-0.25,-0.52,-2.80,-2.80,-2.79
87,-2.58,0.24,-2.57,0.26,-0.26,-0.52,-2.84,-2.83,-2.83
88,-2.58,0.28,-2.60,0.27,-0.27,-0.53,-2.85,-2.87,-2.86
89,-2.61,0.29,-2.63,0.28,-0.28,-0.53,-2.89,-2.91,-2.90
90,-2.63,0.30,-2.66,0.28,-0.28,-0.53,-2.91,-2.94,-2.93
91,-2.66,0.31,-2.69,0.29,-0.29,-0.54,-2.95,-2.98,-2.97
92,-2.70,0.30,-2.71,0.30,-0.30,-0.54,-3.00,-3.01,-3.01
93,-2.76,0.28,-2.74,0.30,-0.30,-0.55,-3.06,-3.04,-3.04
94,-2.79,0.28,-2.77,0.31,-0.31,-0.55,-3.10,-3.08,-3.08
95,-2.83,0.28,-2.80,0.32,-0.32,-0.56,-3.15,-3.12,-3.11
96,-2.86,0.28,-2.83,0.33,-0.33,-0.57,-3.19,-3.15,-3.15
97,-2.86,0.32,-2.85,0.33,-0.33,-0.57,-3.20,-3.19,-3.18
98,-2.86,0.35,-2.88,0.35,-0.35,-0.58,-3.21,-3.22,-3.21
99,-2.89,0.36,-2.90,0.36,-0.36,-0.59,-3.25,-3.26,-3.25
100,-2.91,0.37,-2.92,0.37,-0.37,-0.59,-3.28,-3.29,-3.28
101,-2.93,0.38,-2.95,0.38,-0.38,-0.60,-3.31,-3.33,-3.31
102,-2.96,0.39,-2.97,0.40,-0.40,-0.61,-3.36,-3.36,-3.35
104,-3.00,0.41,-2.99,0.41,-0.41,-0.62,-3.41,-3.40,-3.41
105,-3.00,0.44,-3.01,0.42,-0.42,-0.63,-3.42,-3.43,-3.44
106,-3.05,0.42,-3.04,0.43,-0.43,-0.64,-3.48,-3.47,-3.48
107,-3.05,0.46,-3.06,0.44,-0.44,-0.65,-3.49,-3.50,-3.51
108,-3.08,0.46,-3.09,0.45,-0.45,-0.65,-3.53,-3.54,-3.54
109,-3.11,0.46,-3.12,0.45,-0.45,-0.66,-3.56,-3.57,-3.57
110,-3.14,0.46,-3.14,0.46,-0.46,-0.67,-3.60,-3.60,-3.60
111,-3.19,0.43,-3.17,0.47,-0.47,-0.67,-3.66,-3.63,-3.63
112,-3.19,0.46,-3.19,0.47,-0.47,-0.68,-3.66,-3.66,-3.65
113,-3.24,0.44,-3.21,0.48,-0.48,-0.68,-3.72,-3.69,-3.68
114,-3.24,0.47,-3.24,0.49,-0.49,-0.68,-3.73,-3.73,-3.71
115,-3.24,0.50,-3.26,0.50,-0.50,-0.69,-3.74,-3.76,-3.74
117,-3.28,0.51,-3.28,0.51,-0.51,-0.69,-3.79,-3.79,-3.79
118,-3.28,0.54,-3.30,0.52,-0.52,-0.69,-3.80,-3.82,-3.82
119,-3.33,0.51,-3.32,0.53,-0.53,-0.70,-3.86,-3.85,-3.85
120,-3.33,0.54,-3.34,0.54,-0.54,-0.70,-3.87,-3.88,-3.87
121,-3.36,0.53,-3.36,0.55,-0.55,-0.69,-3.91,-3.90,-3.90
123,-3.38,0.56,-3.38,0.56,-0.56,-0.69,-3.94,-3.93,-3.94
124,-3.42,0.55,-3.40,0.57,-0.57,-0.69,-3.99,-3.96,-3.97
125,-3.42,0.57,-3.42,0.57,-0.57,-0.68,-4.00,-4.00,-3.99
126,-3.42,0.59,-3.44,0.58,-0.58,-0.68,-4.00,-4.03,-4.01
128,-3.47,0.59,-3.46,0.59,-0.59,-0.67,-4.06,-4.05,-4.06
129,-3.47,0.61,-3.48,0.60,-0.60,-0.66,-4.07,-4.08,-4.08
130,-3.49,0.61,-3.51,0.60,-0.60,-0.65,-4.09,-4.11,-4.10
131,-3.52,0.60,-3.53,0.61,-0.61,-0.65,-4.13,-4.13,-4.12
133,-3.56,0.60,-3.55,0.61,-0.61,-0.63,-4.17,-4.16,-4.16
134,-3.59,0.59,-3.57,0.62,-0.62,-0.62,-4.21,-4.19,-4.18
135,-3.61,0.59,-3.59,0.62,-0.62,-0.61,-4.23,-4.21,-4.20
137,-3.61,0.63,-3.61,0.63,-0.63,-0.59,-4.24,-4.24,-4.24
138,-3.61,0.65,-3.63,0.63,-0.63,-0.58,-4.24,-4.26,-4.26
140,-3.66,0.63,-3.65,0.63,-0.63,-0.55,-4.30,-4.29,-4.29
141,-3.68,0.63,-3.67,0.64,-0.64,-0.54,-4.32,-4.31,-4.31
142,-3.70,0.63,-3.70,0.64,-0.64,-0.53,-4.34,-4.34,-4.33
144,-3.70,0.66,-3.72,0.64,-0.64,-0.50,-4.34,-4.36,-4.36
145,-3.74,0.64,-3.74,0.64,-0.64,-0.49,-4.38,-4.38,-4.38
147,-3.75,0.66,-3.77,0.64,-0.64,-0.46,-4.39,-4.40,-4.41
148,-3.78,0.64,-3.79,0.63,-0.63,-0.45,-4.42,-4.43,-4.42
150,-3.83,0.62,-3.82,0.63,-0.63,-0.42,-4.46,-4.45,-4.45
151,-3.84,0.62,-3.85,0.63,-0.63,-0.41,-4.47,-4.47,-4.47
153,-3.89,0.60,-3.87,0.62,-0.62,-0.38,-4.51,-4.49,-4.49
154,-3.89,0.62,-3.90,0.61,-0.61,-0.37,-4.51,-4.51,-4.51
156,-3.94,0.59,-3.92,0.61,-0.61,-0.34,-4.55,-4.53,-4.53
157,-3.94,0.60,-3.95,0.60,-0.60,-0.33,-4.54,-4.55,-4.54
159,-3.98,0.59,-3.97,0.60,-0.60,-0.30,-4.58,-4.57,-4.57
160,-3.98,0.60,-4.00,0.59,-0.59,-0.29,-4.57,-4.59,-4.58
162,-4.03,0.57,-4.02,0.58,-0.58,-0.26,-4.61,-4.61,-4.60
164,-4.04,0.58,-4.05,0.58,-0.58,-0.24,-4.62,-4.62,-4.62
165,-4.07,0.56,-4.07,0.57,-0.57,-0.23,-4.64,-4.64,-4.64
167,-4.08,0.57,-4.09,0.57,-0.57,-0.20,-4.65,-4.66,-4.66
169,-4.12,0.55,-4.11,0.56,-0.56,-0.18,-4.68,-4.67,-4.68
170,-4.12,0.56,-4.13,0.55,-0.55,-0.16,-4.68,-4.69,-4.69
172,-4.16,0.54,-4.16,0.55,-0.55,-0.14,-4.71,-4.70,-4.70
174,-4.18,0.54,-4.18,0.54,-0.54,-0.11,-4.72,-4.72,-4.72
175,-4.21,0.52,-4.20,0.54,-0.54,-0.10,-4.75,-4.74,-4.73
177,-4.22,0.53,-4.22,0.53,-0.53,-0.08,-4.75,-4.75,-4.75
179,-4.24,0.52,-4.24,0.52,-0.52,-0.06,-4.76,-4.76,-4.76
181,-4.26,0.52,-4.27,0.51,-0.51,-0.03,-4.77,-4.78,-4.78
183,-4.31,0.48,-4.29,0.50,-0.50,-0.01,-4.81,-4.79,-4.79
184,-4.31,0.49,-4.32,0.48,-0.48,0.00,-4.80,-4.80,-4.80
186,-4.33,0.48,-4.34,0.47,-0.47,0.02,-4.80,-4.82,-4.81
188,-4.36,0.47,-4.37,0.46,-0.46,0.05,-4.82,-4.83,-4.83
190,-4.40,0.44,-4.40,0.44,-0.44,0.07,-4.84,-4.85,-4.84
192,-4.43,0.42,-4.43,0.43,-0.43,0.09,-4.86,-4.86,-4.85
194,-4.45,0.42,-4.46,0.41,-0.41,0.11,-4.86,-4.87,-4.87
196,-4.50,0.38,-4.49,0.40,-0.40,0.13,-4.90,-4.88,-4.88
198,-4.52,0.37,-4.51,0.38,-0.38,0.15,-4.90,-4.89,-4.89
200,-4.54,0.36,-4.54,0.37,-0.37,0.17,-4.91,-4.90,-4.90
202,-4.59,0.32,-4.56,0.35,-0.35,0.19,-4.94,-4.91,-4.91
204,-4.59,0.33,-4.59,0.33,-0.33,0.21,-4.92,-4.92,-4.92
206,-4.64,0.29,-4.62,0.32,-0.32,0.23,-4.96,-4.94,-4.93
208,-4.64,0.30,-4.65,0.30,-0.30,0.25,-4.94,-4.95,-4.94
210,-4.64,0.31,-4.68,0.28,-0.28,0.26,-4.92,-4.96,-4.95
212,-4.68,0.28,-4.71,0.26,-0.26,0.28,-4.94,-4.97,-4.96
214,-4.71,0.26,-4.73,0.24,-0.24,0.30,-4.95,-4.98,-4.97
216,-4.76,0.22,-4.76,0.22,-0.22,0.32,-4.98,-4.98,-4.98
218,-4.80,0.18,-4.79,0.20,-0.20,0.33,-5.00,-4.99,-4.98
221,-4.86,0.13,-4.83,0.17,-0.17,0.36,-5.03,-5.00,-5.00
223,-4.88,0.12,-4.86,0.14,-0.14,0.37,-5.02,-5.00,-5.00
225,-4.91,0.09,-4.90,0.11,-0.11,0.39,-5.02,-5.00,-5.01
227,-4.93,0.08,-4.94,0.07,-0.07,0.40,-5.00,-5.01,-5.01
229,-4.96,0.05,-4.98,0.03,-0.03,0.41,-4.99,-5.01,-5.01
232,-5.01,0.00,-5.02,-0.01,0.01,0.43,-5.00,-5.01,-5.01
234,-5.03,-0.02,-5.06,-0.05,0.05,0.45,-4.98,-5.01,-5.01
236,-5.08,-0.08,-5.11,-0.10,0.10,0.46,-4.98,-5.01,-5.01
239,-5.15,-0.15,-5.15,-0.14,0.14,0.47,-5.01,-5.01,-5.00
241,-5.17,-0.18,-5.19,-0.19,0.19,0.48,-4.98,-5.00,-4.99
244,-5.26,-0.27,-5.23,-0.24,0.24,0.50,-5.02,-4.99,-4.99
246,-5.30,-0.32,-5.27,-0.29,0.29,0.51,-5.02,-4.99,-4.98
248,-5.33,-0.36,-5.31,-0.33,0.33,0.51,-5.00,-4.98,-4.97
251,-5.37,-0.41,-5.35,-0.37,0.37,0.53,-5.00,-4.97,-4.96
253,-5.39,-0.44,-5.38,-0.42,0.42,0.53,-4.98,-4.96,-4.95
256,-5.43,-0.49,-5.41,-0.45,0.45,0.54,-4.98,-4.95,-4.94
259,-5.43,-0.50,-5.44,-0.49,0.49,0.55,-4.94,-4.94,-4.93
261,-5.43,-0.51,-5.46,-0.52,0.52,0.55,-4.91,-4.93,-4.92
264,-5.46,-0.55,-5.48,-0.56,0.56,0.56,-4.91,-4.92,-4.91
266,-5.47,-0.57,-5.50,-0.59,0.59,0.56,-4.88,-4.91,-4.90
269,-5.51,-0.62,-5.51,-0.62,0.62,0.57,-4.89,-4.90,-4.90
272,-5.52,-0.64,-5.53,-0.65,0.65,0.57,-4.88,-4.88,-4.89
274,-5.57,-0.70,-5.54,-0.67,0.67,0.58,-4.90,-4.87,-4.87
277,-5.57,-0.71,-5.56,-0.70,0.70,0.58,-4.87,-4.86,-4.86
280,-5.59,-0.75,-5.58,-0.73,0.73,0.58,-4.86,-4.84,-4.85
283,-5.61,-0.78,-5.59,-0.77,0.77,0.58,-4.85,-4.83,-4.83
286,-5.61,-0.80,-5.61,-0.80,0.80,0.59,-4.81,-4.81,-4.81
288,-5.61,-0.82,-5.62,-0.83,0.83,0.59,-4.78,-4.79,-4.79
291,-5.61,-0.84,-5.64,-0.87,0.87,0.59,-4.75,-4.77,-4.77
294,-5.64,-0.89,-5.65,-0.90,0.90,0.59,-4.74,-4.75,-4.75
297,-5.66,-0.93,-5.67,-0.94,0.94,0.60,-4.73,-4.73,-4.73
300,-5.69,-0.98,-5.68,-0.97,0.97,0.60,-4.72,-4.71,-4.71
303,-5.71,-1.02,-5.70,-1.01,1.01,0.60,-4.70,-4.69,-4.69
306,-5.71,-1.04,-5.72,-1.04,1.04,0.61,-4.67,-4.68,-4.67
309,-5.75,-1.10,-5.74,-1.08,1.08,0.61,-4.67,-4.66,-4.65
312,-5.75,-1.12,-5.76,-1.12,1.12,0.61,-4.63,-4.64,-4.64
316,-5.77,-1.15,-5.78,-1.16,1.16,0.62,-4.62,-4.62,-4.62
319,-5.80,-1.20,-5.80,-1.19,1.19,0.62,-4.61,-4.61,-4.60
322,-5.82,-1.23,-5.82,-1.23,1.23,0.63,-4.59,-4.59,-4.59
325,-5.85,-1.28,-5.83,-1.27,1.27,0.63,-4.59,-4.57,-4.57
328,-5.85,-1.30,-5.85,-1.30,1.30,0.64,-4.55,-4.55,-4.55
332,-5.89,-1.36,-5.87,-1.34,1.34,0.65,-4.55,-4.53,-4.53
335,-5.89,-1.38,-5.89,-1.38,1.38,0.65,-4.51,-4.51,-4.51
338,-5.89,-1.40,-5.91,-1.42,1.42,0.66,-4.47,-4.49,-4.49
342,-5.90,-1.44,-5.93,-1.46,1.46,0.67,-4.44,-4.46,-4.47
345,-5.94,-1.50,-5.95,-1.51,1.51,0.68,-4.43,-4.44,-4.44
349,-5.96,-1.54,-5.98,-1.55,1.55,0.69,-4.41,-4.43,-4.42
352,-5.99,-1.59,-6.00,-1.59,1.59,0.70,-4.40,-4.41,-4.40
356,-6.03,-1.65,-6.02,-1.63,1.63,0.71,-4.40,-4.39,-4.39
359,-6.05,-1.68,-6.05,-1.67,1.67,0.72,-4.38,-4.37,-4.37
363,-6.08,-1.73,-6.07,-1.71,1.71,0.74,-4.37,-4.36,-4.35
366,-6.08,-1.74,-6.09,-1.75,1.75,0.75,-4.33,-4.35,-4.34
370,-6.10,-1.77,-6.11,-1.78,1.78,0.76,-4.32,-4.33,-4.33
374,-6.13,-1.82,-6.13,-1.81,1.81,0.78,-4.33,-4.32,-4.31
377,-6.17,-1.87,-6.13,-1.83,1.83,0.79,-4.35,-4.31,-4.30
381,-6.17,-1.88,-6.14,-1.84,1.84,0.80,-4.33,-4.29,-4.29
385,-6.13,-1.85,-6.14,-1.85,1.85,0.82,-4.28,-4.28,-4.28
389,-6.13,-1.86,-6.13,-1.86,1.86,0.84,-4.28,-4.27,-4.27
393,-6.13,-1.87,-6.12,-1.86,1.86,0.85,-4.28,-4.26,-4.26
397,-6.10,-1.85,-6.11,-1.85,1.85,0.87,-4.25,-4.26,-4.25
401,-6.08,-1.84,-6.09,-1.84,1.84,0.89,-4.24,-4.25,-4.24
405,-6.05,-1.81,-6.08,-1.83,1.83,0.90,-4.22,-4.25,-4.24
409,-6.03,-1.80,-6.05,-1.81,1.81,0.92,-4.22,-4.24,-4.23
413,-6.03,-1.80,-6.03,-1.79,1.79,0.93,-4.24,-4.23,-4.23
417,-5.99,-1.76,-6.00,-1.77,1.77,0.95,-4.22,-4.23,-4.23
421,-5.99,-1.77,-5.97,-1.75,1.75,0.96,-4.24,-4.22,-4.22
425,-5.94,-1.72,-5.94,-1.72,1.72,0.98,-4.22,-4.22,-4.22
430,-5.92,-1.71,-5.91,-1.70,1.70,0.99,-4.22,-4.21,-4.22
434,-5.90,-1.69,-5.88,-1.67,1.67,1.00,-4.23,-4.21,-4.21
438,-5.85,-1.65,-5.84,-1.64,1.64,1.01,-4.21,-4.20,-4.20
443,-5.79,-1.59,-5.80,-1.61,1.61,1.02,-4.18,-4.20,-4.20
447,-5.73,-1.54,-5.76,-1.57,1.57,1.03,-4.16,-4.19,-4.19
451,-5.71,-1.54,-5.72,-1.54,1.54,1.04,-4.17,-4.18,-4.18
456,-5.65,-1.49,-5.67,-1.50,1.50,1.04,-4.15,-4.16,-4.16
460,-5.62,-1.47,-5.62,-1.46,1.46,1.04,-4.16,-4.15,-4.15
465,-5.56,-1.43,-5.56,-1.42,1.42,1.04,-4.14,-4.14,-4.14
470,-5.51,-1.39,-5.50,-1.37,1.37,1.04,-4.14,-4.13,-4.12
474,-5.46,-1.35,-5.44,-1.33,1.33,1.04,-4.14,-4.12,-4.11
479,-5.38,-1.29,-5.38,-1.27,1.27,1.03,-4.11,-4.10,-4.09
484,-5.31,-1.23,-5.31,-1.22,1.22,1.02,-4.09,-4.09,-4.08
489,-5.24,-1.17,-5.24,-1.16,1.16,1.00,-4.08,-4.08,-4.07
494,-5.16,-1.10,-5.16,-1.10,1.10,0.99,-4.06,-4.06,-4.06
499,-5.09,-1.05,-5.08,-1.03,1.03,0.96,-4.06,-4.05,-4.04
504,-5.01,-0.98,-5.00,-0.96,0.96,0.94,-4.05,-4.03,-4.03
509,-4.90,-0.88,-4.91,-0.90,0.90,0.91,-4.01,-4.02,-4.02
514,-4.79,-0.79,-4.82,-0.83,0.83,0.88,-3.97,-4.00,-4.00
519,-4.73,-0.75,-4.73,-0.75,0.75,0.85,-3.98,-3.98,-3.98
524,-4.63,-0.67,-4.64,-0.68,0.68,0.82,-3.95,-3.96,-3.96
529,-4.56,-0.62,-4.55,-0.61,0.61,0.78,-3.95,-3.94,-3.94
535,-4.45,-0.53,-4.46,-0.54,0.54,0.73,-3.91,-3.92,-3.92
540,-4.37,-0.47,-4.36,-0.46,0.46,0.69,-3.91,-3.90,-3.90
545,-4.27,-0.39,-4.27,-0.39,0.39,0.64,-3.88,-3.88,-3.88
551,-4.15,-0.30,-4.17,-0.32,0.32,0.58,-3.84,-3.86,-3.85
556,-4.07,-0.24,-4.07,-0.24,0.24,0.53,-3.83,-3.83,-3.83
562,-3.95,-0.14,-3.97,-0.16,0.16,0.47,-3.79,-3.81,-3.81
568,-3.88,-0.10,-3.87,-0.08,0.08,0.41,-3.80,-3.79,-3.78
573,-3.79,-0.03,-3.76,0.01,-0.01,0.36,-3.80,-3.77,-3.76
579,-3.67,0.07,-3.65,0.09,-0.09,0.29,-3.77,-3.75,-3.74
585,-3.56,0.16,-3.54,0.19,-0.19,0.22,-3.75,-3.73,-3.72
591,-3.40,0.31,-3.43,0.28,-0.28,0.16,-3.68,-3.71,-3.71
596,-3.30,0.39,-3.31,0.38,-0.38,0.10,-3.68,-3.70,-3.69
602,-3.18,0.50,-3.20,0.49,-0.49,0.03,-3.67,-3.68,-3.68
608,-3.07,0.59,-3.07,0.60,-0.60,-0.04,-3.67,-3.67,-3.66
615,-2.94,0.71,-2.94,0.71,-0.71,-0.13,-3.65,-3.65,-3.65
621,-2.81,0.83,-2.81,0.83,-0.83,-0.20,-3.64,-3.64,-3.64
627,-2.70,0.92,-2.68,0.95,-0.95,-0.27,-3.65,-3.63,-3.63
633,-2.54,1.07,-2.53,1.08,-1.08,-0.34,-3.62,-3.61,-3.61
639,-2.41,1.19,-2.39,1.21,-1.21,-0.42,-3.62,-3.60,-3.60
646,-2.23,1.35,-2.24,1.35,-1.35,-0.50,-3.58,-3.59,-3.58
652,-2.09,1.48,-2.09,1.49,-1.49,-0.58,-3.58,-3.58,-3.57
659,-1.93,1.62,-1.93,1.64,-1.64,-0.66,-3.57,-3.56,-3.55
665,-1.78,1.76,-1.76,1.79,-1.79,-0.74,-3.57,-3.55,-3.54
672,-1.60,1.92,-1.59,1.94,-1.94,-0.82,-3.55,-3.53,-3.53
679,-1.42,2.09,-1.42,2.10,-2.10,-0.91,-3.52,-3.52,-3.51
686,-1.24,2.26,-1.25,2.26,-2.26,-1.00,-3.50,-3.51,-3.50
692,-1.08,2.41,-1.09,2.41,-2.41,-1.07,-3.49,-3.50,-3.49
699,-0.94,2.54,-0.93,2.56,-2.56,-1.16,-3.50,-3.49,-3.49
706,-0.77,2.71,-0.77,2.71,-2.71,-1.25,-3.48,-3.48,-3.48
713,-0.60,2.87,-0.62,2.86,-2.86,-1.33,-3.46,-3.48,-3.48
721,-0.43,3.04,-0.47,3.00,-3.00,-1.43,-3.43,-3.47,-3.47
728,-0.30,3.17,-0.34,3.13,-3.13,-1.52,-3.43,-3.47,-3.47
735,-0.20,3.26,-0.20,3.26,-3.26,-1.61,-3.46,-3.47,-3.46
742,-0.10,3.36,-0.08,3.39,-3.39,-1.70,-3.49,-3.46,-3.46
750,0.02,3.47,0.04,3.50,-3.50,-1.80,-3.48,-3.46,-3.45
757,0.12,3.56,0.15,3.61,-3.61,-1.88,-3.49,-3.46,-3.45
765,0.24,3.68,0.26,3.71,-3.71,-1.98,-3.47,-3.45,-3.44
773,0.33,3.76,0.36,3.80,-3.80,-2.08,-3.47,-3.44,-3.43
780,0.43,3.85,0.45,3.88,-3.88,-2.17,-3.45,-3.43,-3.42
788,0.49,3.90,0.53,3.94,-3.94,-2.27,-3.45,-3.41,-3.41
796,0.57,3.97,0.59,3.98,-3.98,-2.37,-3.41,-3.40,-3.40
804,0.64,4.03,0.62,4.00,-4.00,-2.46,-3.36,-3.38,-3.39
812,0.68,4.06,0.63,3.99,-3.99,-2.56,-3.31,-3.36,-3.38
820,0.68,4.06,0.61,3.96,-3.96,-2.66,-3.28,-3.35,-3.38
828,0.67,4.04,0.56,3.91,-3.91,-2.75,-3.24,-3.35,-3.37
837,0.59,3.96,0.48,3.83,-3.83,-2.85,-3.24,-3.35,-3.37
845,0.49,3.86,0.37,3.73,-3.73,-2.94,-3.24,-3.36,-3.37
853,0.34,3.71,0.24,3.61,-3.61,-3.03,-3.27,-3.37,-3.37
862,0.14,3.51,0.10,3.49,-3.49,-3.13,-3.35,-3.39,-3.37
871,-0.08,3.29,-0.04,3.36,-3.36,-3.22,-3.44,-3.40,-3.37
879,-0.25,3.12,-0.19,3.23,-3.23,-3.30,-3.48,-3.42,-3.37
888,-0.41,2.96,-0.32,3.11,-3.11,-3.39,-3.52,-3.43,-3.38
897,-0.54,2.83,-0.43,3.01,-3.01,-3.47,-3.55,-3.44,-3.37
906,-0.61,2.76,-0.52,2.92,-2.92,-3.55,-3.54,-3.44,-3.37
915,-0.69,2.68,-0.58,2.87,-2.87,-3.62,-3.56,-3.44,-3.37
924,-0.71,2.65,-0.60,2.83,-2.83,-3.69,-3.54,-3.43,-3.37
933,-0.66,2.70,-0.59,2.83,-2.83,-3.75,-3.49,-3.42,-3.36
943,-0.57,2.78,-0.56,2.84,-2.84,-3.82,-3.41,-3.40,-3.35
952,-0.49,2.85,-0.49,2.88,-2.88,-3.87,-3.37,-3.37,-3.34
962,-0.38,2.95,-0.41,2.93,-2.93,-3.92,-3.31,-3.34,-3.33
971,-0.28,3.03,-0.32,2.99,-2.99,-3.96,-3.27,-3.32,-3.31
981,-0.19,3.11,-0.23,3.06,-3.06,-4.00,-3.25,-3.29,-3.30
991,-0.08,3.20,-0.13,3.13,-3.13,-4.03,-3.21,-3.26,-3.28
1001,0.01,3.26,-0.03,3.20,-3.20,-4.05,-3.19,-3.24,-3.26
1011,0.09,3.32,0.06,3.27,-3.27,-4.07,-3.18,-3.21,-3.23
1021,0.16,3.36,0.14,3.33,-3.33,-4.08,-3.17,-3.19,-3.21
1031,0.22,3.40,0.21,3.38,-3.38,-4.08,-3.16,-3.17,-3.18
1041,0.25,3.40,0.27,3.41,-3.41,-4.08,-3.16,-3.14,-3.15
1052,0.32,3.45,0.32,3.44,-3.44,-4.07,-3.12,-3.12,-3.13
1062,0.36,3.46,0.36,3.45,-3.45,-4.06,-3.09,-3.10,-3.10
1073,0.40,3.47,0.39,3.46,-3.46,-4.04,-3.06,-3.07,-3.07
1084,0.44,3.48,0.41,3.45,-3.45,-4.02,-3.01,-3.04,-3.04
1094,0.45,3.46,0.43,3.44,-3.44,-4.00,-2.99,-3.01,-3.01
1105,0.45,3.43,0.44,3.42,-3.42,-3.97,-2.97,-2.98,-2.98
1116,0.45,3.40,0.45,3.40,-3.40,-3.93,-2.95,-2.95,-2.95
1128,0.45,3.37,0.45,3.37,-3.37,-3.89,-2.92,-2.92,-2.92
1139,0.45,3.34,0.45,3.34,-3.34,-3.85,-2.89,-2.89,-2.89
1150,0.45,3.30,0.45,3.30,-3.30,-3.81,-2.85,-2.85,-2.85
1162,0.45,3.26,0.45,3.27,-3.27,-3.77,-2.82,-2.82,-2.81
1173,0.45,3.22,0.45,3.23,-3.23,-3.73,-2.79,-2.78,-2.78
1185,0.45,3.18,0.46,3.20,-3.20,-3.68,-2.75,-2.74,-2.73
1197,0.45,3.14,0.47,3.17,-3.17,-3.64,-2.73,-2.70,-2.69
1209,0.46,3.10,0.49,3.15,-3.15,-3.59,-2.69,-2.66,-2.65
1221,0.51,3.11,0.52,3.13,-3.13,-3.55,-2.62,-2.61,-2.60
1233,0.54,3.09,0.56,3.11,-3.11,-3.50,-2.57,-2.56,-2.55
1246,0.59,3.08,0.60,3.10,-3.10,-3.46,-2.51,-2.50,-2.50
1258,0.63,3.07,0.64,3.08,-3.08,-3.42,-2.45,-2.44,-2.44
1271,0.71,3.09,0.69,3.07,-3.07,-3.38,-2.37,-2.39,-2.39
1283,0.75,3.08,0.74,3.07,-3.07,-3.34,-2.32,-2.33,-2.33
1296,0.80,3.07,0.80,3.06,-3.06,-3.30,-2.26,-2.26,-2.27
1309,0.85,3.05,0.85,3.05,-3.05,-3.27,-2.20,-2.20,-2.20
1322,0.94,3.08,0.91,3.05,-3.05,-3.23,-2.11,-2.14,-2.14
1335,0.99,3.06,0.97,3.04,-3.04,-3.20,-2.05,-2.07,-2.07
1349,1.04,3.04,1.03,3.04,-3.04,-3.17,-2.00,-2.01,-2.00
1362,1.09,3.02,1.09,3.03,-3.03,-3.15,-1.94,-1.94,-1.93
1376,1.13,2.99,1.15,3.03,-3.03,-3.12,-1.90,-1.87,-1.87
1390,1.20,2.99,1.22,3.02,-3.02,-3.10,-1.82,-1.80,-1.80
1404,1.28,3.00,1.28,3.02,-3.02,-3.08,-1.74,-1.74,-1.72
1418,1.33,2.98,1.35,3.01,-3.01,-3.07,-1.69,-1.66,-1.65
1432,1.41,2.99,1.42,3.01,-3.01,-3.06,-1.60,-1.59,-1.58
1446,1.50,3.01,1.49,3.01,-3.01,-3.05,-1.51,-1.52,-1.51
1461,1.57,3.00,1.56,3.01,-3.01,-3.04,-1.44,-1.45,-1.44
1475,1.66,3.02,1.64,3.01,-3.01,-3.03,-1.35,-1.37,-1.36
1490,1.72,3.01,1.71,3.00,-3.00,-3.03,-1.28,-1.29,-1.29
1505,1.80,3.01,1.79,3.00,-3.00,-3.03,-1.20,-1.21,-1.21
1520,1.87,3.00,1.87,3.00,-3.00,-3.03,-1.13,-1.13,-1.14
1535,1.94,3.00,1.94,2.99,-2.99,-3.03,-1.05,-1.04,-1.06
1550,2.01,2.98,2.02,2.98,-2.98,-3.04,-0.97,-0.96,-0.97
1566,2.09,2.98,2.09,2.97,-2.97,-3.05,-0.88,-0.88,-0.89
1582,2.16,2.96,2.16,2.96,-2.96,-3.05,-0.80,-0.80,-0.80
