frequency,raw,error,smoothed,error_smoothed,equalization,equalized_raw,equalized_smoothed,target
20,2.9517150720811873,1.3038713166118403,2.9920283653206106,1.3441999565183813,-1.344199956518381,1.6075151155628062,1.6478284088022295,1.647843755469347
21,3.4871133523061406,1.8392885562879622,3.3759331516666684,1.7281060014976293,-1.7281060014976288,1.7590073508085118,1.6478271501690396,1.6478247960181784
22,3.7040166530122445,2.056216654526902,3.739991913505893,2.0921796011005043,-2.092179601100504,1.6118370519117406,1.6478123124053892,1.6477999984853424
23,4.0224650402693625,2.3746970836273893,4.084204650838286,2.4364207553270063,-2.4364207553270063,1.5860442849423562,1.6477838955112798,1.6477679566419732
24,4.362917731281695,2.715190719942848,4.4085713636638415,2.760829464177132,-2.7608294641771316,1.6020882671045635,1.64774189948671,1.647727011338847
25,4.781817537077462,3.134142318017288,4.711853497436871,3.064165696787396,-3.064165696787396,1.717651840290066,1.647687800649475,1.647675219060174
26,5.0952463625969004,3.4476360444169027,4.9955518241883965,3.3479316796860754,-3.3479316796860754,1.747314682910825,1.647620144502321,1.6476103181799977
27,5.21334113261437,3.565811439414079,5.261003272186703,3.6134659097588955,-3.6134659097588955,1.5998752228554745,1.6475373624278076,1.647529693200291
28,5.470778851752264,3.823348516240907,5.509987636612676,3.8625507658336553,-3.862550765833655,1.6082280859186096,1.6474368707790212,1.6474303355113573
29,5.707096156136272,4.059787353211004,5.7444613912747915,4.097146341485083,-4.097146341485084,1.6099498146511877,1.6473150497897073,1.6473088029252683
30,5.983022068501664,4.335860892399918,5.965811698546855,4.318643878385967,-4.318643878385968,1.6643781901156958,1.6471678201608864,1.6471611761017466
31,6.165029025706383,4.518046013108241,6.175023558051351,4.528033122236556,-4.528033122236555,1.6369959034698285,1.6469904358147964,1.6469830125981426
32,6.385725816820843,4.738956518404361,6.372617547615663,4.725839905455805,-4.725839905455803,1.6598859113650395,1.6467776421598597,1.6467692984164817
33,6.548120374725548,4.901605977665354,6.558840910316734,4.912317235548764,-4.912317235548764,1.635803139176784,1.6465236747679697,1.6465143970601943
34,6.77671083472999,5.130498838555551,6.733957419851383,5.087735264406852,-5.0877352644068505,1.688975570323139,1.6462221554445327,1.6462119961744381
35,6.8772855473736705,5.231430495657591,6.898384088085505,5.252518045300666,-5.252518045300667,1.624767502073004,1.6458660427848386,1.645855051716079
36,7.078434972661022,5.432999242850128,7.052732996653467,5.407285467064721,-5.407285467064721,1.6711495055963006,1.645447529588746,1.6454357298108935
37,7.179009685304702,5.534064338954542,7.197695914145485,5.552737956025263,-5.552737956025263,1.6262717292794386,1.644957958120222,1.6449453463501595
38,7.324780700322738,5.680406395880274,7.333851711684295,5.689463961189814,-5.689463961189815,1.6353167391329233,1.64438775049448,1.6443743044424641
39,7.4012662173566595,5.757554187503377,7.461520182446769,5.817793844021537,-5.817793844021538,1.5834723733351215,1.643726338425231,1.643712029853282
40,7.5813085358793835,5.938361631290796,7.580741774657351,5.937779672966288,-5.937779672966285,1.6435288629130982,1.642962101691066,1.6429469045885874
41,7.78081488106458,6.138748682255047,7.691423351025907,6.04934104643344,-6.049341046433439,1.7314738346311405,1.642082304592468,1.642066198809533
42,7.782457961166638,6.141401959880374,7.793601995618064,6.152528966505999,-6.152528966506002,1.6299289946606361,1.6410730291120625,1.6410560012862638
43,7.883032673811924,6.24313152517541,7.887716878837175,6.247797773012321,-6.24779777301232,1.6352349007996034,1.6399191058248546,1.6399011486365138
44,7.9836073864592185,6.345022232826705,7.974767828597088,6.336163786736394,-6.3361637867363925,1.647443599722826,1.6386040418606953,1.6385851536325138
45,8.064242845113286,6.427152712205179,8.056277156432028,6.419167208588822,-6.41916720858882,1.6450756365244663,1.637109947843208,1.6370901329081073
46,8.084552216135613,6.44915548167741,8.134049941496023,6.498632476829616,-6.4986324768296155,1.5859197393059974,1.635417464666408,1.6353967344582032
47,8.241205520460204,6.60772145506193,8.209809799232659,6.576304108567879,-6.5763041085678795,1.6649014118923242,1.6335056906647791,1.6334840653982736
48,8.28533152428147,6.654001903735055,8.284838308013907,6.653486198135157,-6.653486198135156,1.6318453261463128,1.6313521098787502,1.6313296205464143
49,8.285331524313928,6.656422311806924,8.359744814426925,6.730812292534171,-6.730812292534169,1.5545192317797598,1.6289325218927564,1.6289092125070037
50,8.484582045590544,6.858385141514726,8.43443902512447,6.8082180511183426,-6.8082180511183426,1.6763639944722017,1.6262209740061282,1.626196904075818
51,8.486480950395888,6.863316006443261,8.508296042193372,6.885106345462615,-6.885106345462615,1.601374604933273,1.6231896967307566,1.6231649439526268
52,8.587055663651501,6.967271956713361,8.580428844622611,6.960619800807217,-6.960619800807216,1.6264358628442848,1.619809043815395,1.61978370693814
53,8.642968180829227,7.026946540824596,8.64994978979429,7.033902351541849,-7.033902351541853,1.609065829287374,1.616047438252437,1.616021640004631
54,8.772543439845029,7.160698223987032,8.716125258277456,7.104253932346628,-7.10425393234663,1.6682895074983985,1.6118713259308262,1.611845215857997
55,8.788205082648169,7.180986186803423,8.77839440365001,7.171149264827413,-7.171149264827414,1.6170558178207548,1.607245138822596,1.6072188958447455
56,8.788205075808667,7.186099971519948,8.836300286024173,7.234169016210036,-7.234169016210037,1.55403605959863,1.6021312698141355,1.6021051042887193
57,8.8887797824171,7.292315565862355,8.889428185346727,7.292938123856439,-7.292938123856438,1.5958416585606612,1.5964900614902886,1.5964642165547454
58,8.888779784089834,7.298525220776957,8.93743570170589,7.347155890361517,-7.347155890361517,1.5416238937283175,1.5902798113443737,1.5902545633128775
59,8.989354516015691,7.405922062416694,8.980195732276636,7.3967389362845894,-7.3967389362845894,1.5926155797311017,1.5834567959920465,1.5834324535989968
60,9.089929274585016,7.513977055268435,9.017989349652279,7.442014032657481,-7.442014032657481,1.6479152419275351,1.575975316994798,1.575952219316581
61,9.089929347509633,7.522163063727003,9.051628241080952,7.483840470245657,-7.483840470245659,1.606088877263974,1.5677877708352925,1.5677662837826305
62,9.089929428186684,7.531104171413354,9.082392475434524,7.523547730016485,-7.523547730016485,1.5663816981701988,1.558844745418039,1.5588252567733307
63,9.089929467433091,7.540851409171344,9.111743823383332,7.562648678197812,-7.562648678197814,1.5272807892352773,1.5490951451855182,1.5490780582617476
64,9.089929383544833,7.551457310887873,9.140885041028284,7.602398694451063,-7.602398694451064,1.4875306890937692,1.53848634657722,1.5384720726569596
65,9.089929077160749,7.562975742305062,9.170326523712061,7.643362138821363,-7.643362138821363,1.4465669383393855,1.5269643848906984,1.5269533348556874
66,9.190503185158926,7.676036436341851,9.199645472571758,7.685171299241976,-7.685171299241978,1.5053318859169478,1.5144741733297797,1.514466748817075
67,9.289261423855477,7.7883050851636,9.227561777357124,7.726602022930665,-7.726602022930663,1.5626594009248134,1.5009597544264608,1.5009563386918772
68,9.291076048677263,7.804710516865661,9.25233225314726,7.765967670614443,-7.765967670614444,1.5251083780628196,1.4863645825328167,1.486365531811602
69,9.291075467592556,7.820437995480324,9.272334010954058,7.801702175960827,-7.801702175960825,1.4893732916317308,1.4706318349932328,1.4706374721122324
70,9.291076015940492,7.837360654061918,9.286626175323665,7.832921424826157,-7.832921424826159,1.458154591114333,1.453704750497506,1.4537153618785736
71,9.291078628327694,7.855535799227728,9.295281460813978,7.859754465825187,-7.859754465825189,1.4313241625025057,1.4355269949887894,1.4355428290999663
72,9.29108416014817,7.875019842871705,9.299362197210879,7.88331914244806,-7.883319142448059,1.407765017700111,1.4160430547628202,1.4160643172764655
73,9.291092923396333,7.895867429144339,9.300544467242187,7.905345817747655,-7.905345817747654,1.3857471056486785,1.3951986494945325,1.3952254942519944
74,9.291104063846293,7.918130387233629,9.300520398450601,7.9275792456412475,-7.927579245641248,1.3635248182050441,1.3729411528093527,1.3729736766126637
75,9.291114907234297,7.941856640839495,9.300388102950805,7.951168098515805,-7.951168098515804,1.3399468087184925,1.3492200044350007,1.349258266394802
76,9.291120502603409,7.967089305304345,9.300246396908936,7.97625929085188,-7.976259290851881,1.314861211751528,1.3239871060570545,1.3240311972990644
77,9.291113672411004,7.993866284128872,9.29914741183015,8.001950182835362,-8.001950182835364,1.2891634895756408,1.2971972289947864,1.2972473882821323
78,9.291085901818537,8.022220698569715,9.295445617489815,8.026637103059649,-8.026637103059649,1.2644487987588882,1.268808514430166,1.2688652032488212
79,9.29102932531354,8.052182408791353,9.28745032316481,8.048667167340868,-8.04866716734087,1.2423621579726696,1.2387831558239402,1.2388469165221871
80,9.290939872256596,8.083780687524989,9.274178724749085,8.067090479147877,-8.067090479147879,1.2238493931087167,1.2070882456012058,1.2071591847316068
81,9.290821314932725,8.117047788318818,9.255955145532576,8.082258606830464,-8.082258606830466,1.2085627081022583,1.17369653870211,1.1737735266139078
82,9.290689562012982,8.15202274916976,9.234633206526706,8.09604653444688,-8.09604653444688,1.1946430275661015,1.1385866720798248,1.1386668128432222
83,9.29057613575877,8.188754367497722,9.213329297414521,8.111586918126415,-8.111586918126415,1.1789892176323544,1.1017423792881065,1.101821768261047
84,9.089380048095242,8.026152559449155,9.195716424941732,8.132565716889427,-8.132565716889427,0.9568143312058144,1.063150708052305,1.0632274886460862
85,9.089463195523095,8.066583222182764,9.185083749153367,8.162283485177023,-8.162283485177023,0.9271797103460724,1.022800263976345,1.022879973340331
86,9.16364331235202,8.182860638790512,9.183460127539488,8.202778457441582,-8.20277845744158,0.9608648549104402,0.9806816700979084,0.980782673561508
87,9.190870956101637,8.253923902048346,9.191089282504194,8.25429644867776,-8.254296448677758,0.9365745074238792,0.936792833826436,0.9369470540532916
88,9.191729835868193,8.300336672991012,9.206427987694589,8.315277730494271,-8.315277730494271,0.8764521053739216,0.8911502572003176,0.891393162877181
89,9.258064657258744,8.413914456542297,9.226659842460869,8.382855654883512,-8.382855654883512,0.8752090023752324,0.8438041875773568,0.8441502007164474
90,9.294887019422363,8.4996299422338,9.248544165828761,8.453693320933343,-8.453693320933343,0.84119369848902,0.7948508448954179,0.7952570771885625
91,9.296399282222444,8.551636344667987,9.269316043457048,8.524884560513518,-8.524884560513517,0.7715147217089271,0.744431482943531,0.7447629375544573
92,9.297768186527415,8.605040547395756,9.287353943062634,8.594645313321625,-8.594645313321623,0.7031228732057926,0.692708629741011,0.6927276391316588
93,9.298656491308119,8.659434338340361,9.302428698020783,8.662612136308748,-8.66261213630875,0.6360443549993686,0.639816561712033,0.6392221529677569
94,9.2986433804299,8.714314517189376,9.315498823455723,8.72970367040088,-8.729703670400882,0.5689397100290172,0.5857951530548409,0.5843288632405232
95,9.297250319983238,8.769108585226274,9.328163730308155,8.797634342227475,-8.797634342227473,0.4996159777557647,0.5305293880806818,0.5281417347569652
96,9.33336257231326,8.862596254170851,9.341980569606424,8.868256098155202,-8.8682560981552,0.46510647415805906,0.47372447145122365,0.4707663181424082
97,9.388935837402217,8.976616274286844,9.357871088816772,8.942928371721312,-8.94292837172131,0.446007465680907,0.41494271709546204,0.41231956311537354
98,9.38057994181267,9.027650528974588,9.375796380952407,9.02208514576726,-9.02208514576726,0.35849479604540946,0.3537112351851466,0.3529294128380811
99,9.369225065804436,9.07649090897791,9.39478150384079,9.105098706360433,-9.105098706360431,0.2641263594440044,0.2896827974803582,0.29273415682652715
100,9.354778960657944,9.122897434360528,9.413259657644403,9.19045368515205,-9.190453685152052,0.1643252755058917,0.2228059724923508,0.23188152629741499
101,9.437919792085893,9.267392268090019,9.42960856013741,9.27616202453471,-9.276162024534711,0.16175776755118143,0.15344653560269883,0.17052752399587412
102,9.518380908743588,9.409545918512219,9.44269517048465,9.360286508082707,-9.360286508082707,0.15809440066088065,0.08240866240194222,0.10883499023136878
104,9.496090100138202,9.511082807633555,9.45224486097549,9.441412927807844,-9.441412927807844,0.05467717233035785,0.010831933167645857,-0.014992707495351976
105,9.472290645474649,9.54922661200463,9.458910419361949,9.518930066349267,-9.518930066349267,-0.0466394208746177,-0.06001964698731754,-0.07693596652998025
106,9.44777350262269,9.586357190911482,9.46402013837783,9.593042096021607,-9.593042096021605,-0.1452685933989155,-0.12902195764377566,-0.1385836882887923
107,9.423397481446882,9.62316472966346,9.469098864461152,9.664530811714293,-9.664530811714297,-0.2411333302674148,-0.1954319472531445,-0.19976724821657754
108,9.416154976315873,9.676477292089587,9.475338390883863,9.734371708499491,-9.734371708499491,-0.31821673218361823,-0.25903331761562853,-0.2603223157737129
109,9.479057226432856,9.799148373354406,9.483210609217418,9.803354060828887,-9.803354060828887,-0.32429683439603174,-0.32014345161146984,-0.32009114692155016
110,9.501864792675457,9.88078961702053,9.492359674769515,9.871841712417037,-9.871841712417035,-0.3699769197415783,-0.3794820376475201,-0.3789248243450736
111,9.544676488102688,9.981361864470365,9.501799821121011,9.939744308586093,-9.939744308586093,-0.39506782048340483,-0.4379444874650815,-0.43668537636767724
112,9.532188017258589,10.02543572381387,9.510328527039572,10.006678740597387,-10.006678740597389,-0.4744907233387998,-0.4963502135578164,-0.4932477065552807
113,9.523312010114198,10.071813280487726,9.516989277797865,10.072227821173088,-10.072227821173087,-0.5489158110588885,-0.5552385433752214,-0.5485012703735279
114,9.518008389359798,10.12035983223944,9.521413286624004,10.136177223966165,-10.136177223966166,-0.6181688346063687,-0.614763937342163,-0.6023514428796437
115,9.51604899914526,10.170769531162167,9.523931154817431,10.1986374344105,-10.198637434410502,-0.6825884352652416,-0.674706279593071,-0.6547205320169067
117,9.51704856697965,10.277309688237436,9.525440742324786,10.260015787897537,-10.260015787897533,-0.7429672209178833,-0.7345750455727469,-0.7602611212577859
118,9.520507697640387,10.328888515398205,9.527103567304607,10.32086452105371,-10.320864521053709,-0.8003568234133223,-0.7937609537491017,-0.8083808177578189
119,9.52586343560277,10.380708844675372,9.52998638103108,10.381668845612289,-10.381668845612285,-0.8558054100095163,-0.8516824645812058,-0.8548454090726025
120,9.532541862122867,10.432195955711936,9.534758610337214,10.442645474822895,-10.442645474822893,-0.9101036127000253,-0.907886864485679,-0.8996540935890698
121,9.540006746143506,10.48282868871066,9.541515470344162,10.50360522197987,-10.503605221979868,-0.9635984758363616,-0.9620897516357054,-0.942821942567154
123,9.547798643307221,10.579575623854211,9.549747260311912,10.56390896738872,-10.563908967388718,-1.016110324081497,-1.0141617070768056,-1.031776980546991
124,9.555560106286293,10.626018883965344,9.558439030852693,10.622525895331604,-10.622525895331602,-1.0669657890453088,-1.0640868644789094,-1.0704587776790508
125,9.563044729330981,10.670661417040396,9.566267950328871,10.678188129064342,-10.678188129064342,-1.1151433997333609,-1.1119201787354704,-1.1076166877094145
126,9.570110291551602,10.713429347915666,9.571861407844832,10.729621724308021,-10.72962172430802,-1.1595114327564175,-1.1577603164631878,-1.1433190563640632
128,9.576698816226832,10.79516372139537,9.574076131226892,10.775816346217614,-10.775816346217617,-1.1991175299907848,-1.2017402149907248,-1.218464905168538
129,9.582808406869542,10.832990425544546,9.572251998263884,10.81627732608827,-10.816277326088274,-1.2334689192187316,-1.2440253278243905,-1.2501820186750034
130,9.588462815318938,10.869158089209112,9.566388143867279,10.851194120904644,-10.851194120904646,-1.2627313055857083,-1.284805977037367,-1.2806952738901747
131,9.593684606892797,10.903777248691771,9.557193333402434,10.881469314127997,-10.881469314128,-1.2877847072352022,-1.3242759807255648,-1.3100926417989736
133,9.540007946932981,10.912921154478877,9.54598418807825,10.908584700315512,-10.908584700315512,-1.3685767533825306,-1.362600512237261,-1.3729132075458956
134,9.502239115836641,10.901362502927741,9.534441048612152,10.934326285693938,-10.93432628569394,-1.432087169857299,-1.3998852370817882,-1.3991233870910995
135,9.500589346774456,10.925085148360022,9.524270108834827,10.96043100384318,-10.96043100384318,-1.4598416570687238,-1.4361608950083529,-1.424495801585567
137,9.509340284443397,10.988197762681505,9.51684728654831,10.988238910339177,-10.988238910339177,-1.4788986258957806,-1.4713916237908666,-1.4788574782381079
138,9.51198596518068,11.013660728414788,9.512924352719775,11.018429208439471,-11.018429208439475,-1.5064432432587953,-1.5055048557196997,-1.5016747632341079
140,9.513976053974405,11.064393095870646,9.512461215388695,11.050891954671918,-11.050891954671922,-1.536915900697517,-1.5384307392832266,-1.5504170418962406
141,9.515315153333685,11.086400387170597,9.514618008414196,11.084752828523273,-11.084752828523273,-1.5694376751895884,-1.570134820109077,-1.5710852338369121
142,9.516054426562915,11.107347694699408,9.517906300909232,11.11853761723346,-11.118537617233462,-1.6024831906705472,-1.6006313163242307,-1.5912932681364933
144,9.516292102199714,11.150014179599797,9.520466292957783,11.150439970583463,-11.150439970583461,-1.6341478683837476,-1.629973677625678,-1.6337220774000842
145,9.516165881995091,11.168386336435836,9.520408907983962,11.178638251900015,-11.178638251900015,-1.6624723699049238,-1.6582293439160534,-1.6522204544407448
147,9.515838400318655,11.206267359182913,9.516141491634265,11.201593297550282,-11.201593297550284,-1.6857548972316287,-1.6854518059160188,-1.6904289588642585
148,9.515477686751689,11.222910851277815,9.506591178227662,11.218253947546884,-11.218253947546883,-1.7027762607951935,-1.7116627693192203,-1.7074331645261265
150,9.515234976500398,11.257091022400536,9.491260738845144,11.228112015578068,-11.228112015578072,-1.7128770390776733,-1.7368512767329278,-1.7418560459001373
151,9.515222343285508,11.2727032665765,9.470103111206633,11.23109112092689,-11.23109112092689,-1.7158687776413828,-1.7609880097202577,-1.7574809232909923
153,9.416509126130716,11.204943635568766,9.443273403594887,11.227319405057099,-11.227319405057095,-1.810810278926379,-1.7840460014622082,-1.78843450943805
154,9.404641457591293,11.207332089254253,9.410882934168754,11.216899721149659,-11.216899721149659,-1.8122582635583662,-1.806016786980905,-1.8026906316629603
156,9.31556383371572,11.145934214993655,9.372901576044121,11.199815704639644,-11.199815704639644,-1.884251870923924,-1.8269141285955222,-1.8303703812779348
157,9.316225347252905,11.159395933857477,9.329306373596005,11.176070245968873,-11.176070245968873,-1.8598448987159681,-1.8467638723728683,-1.8431705866045713
159,9.316607139373804,11.184268956342354,9.280461410831624,11.146046395079544,-11.146046395079544,-1.82943925570574,-1.8655849842479206,-1.8676618169685493
160,9.289840034330824,11.168680159344502,9.227579744197854,11.110950325952317,-11.110950325952315,-1.8211102916214905,-1.8833705817544608,-1.878840125013678
162,9.214777544687596,11.114920675091918,9.173028604453808,11.073106103069627,-11.073106103069627,-1.8583285583820306,-1.9000774986158184,-1.900143130404322
164,9.112014568887123,11.031425609195727,9.12025165603375,11.035880548880645,-11.035880548880648,-1.9238659799935256,-1.9156288928468985,-1.9194110403086042
