frequency,raw,error,smoothed,error_smoothed,equalization,equalized_raw,equalized_smoothed,target
20,-6.835805919313112,-7.621692120158981,-6.8170419060247385,-7.602912759644481,6.000000000000001,-0.8358059193131115,-0.8170419060247376,0.785886200845868
21,-6.297541698862329,-7.08340894747061,-6.299356534158876,-7.0852261370187755,6.0,-0.29754169886232873,-0.29935653415887575,0.7858672486082812
22,-5.755896663187195,-6.541739119823628,-5.8037335332733475,-6.589588304314644,5.897758710344152,0.14186204715695716,0.09402517707080449,0.7858424566364333
23,-5.37189024680007,-6.157700665501528,-5.330172903368155,-6.115999261532089,5.7068142961406725,0.3349240493406027,0.37664139277251785,0.7858104187014585
24,-4.837599303792331,-5.623368779446464,-4.878674644443288,-5.664459008671104,5.439322840627737,0.6017235368354061,0.5606481961844487,0.7857694756541327
25,-4.435300453217621,-5.221018137196287,-4.45028501471024,-5.236015280277889,5.130312426243762,0.6950119730261415,0.6800274115335219,0.7857176839786661
26,-4.0330016026429,-4.818654384692008,-4.0438002868128216,-4.829462894430353,4.79738050642356,0.7643789037806608,0.7535802196107388,0.7856527820491079
27,-3.675313684011112,-4.460885838048652,-3.6580882537933213,-4.443668075521545,4.443668075521547,0.7683543915104352,0.7855798217282257,0.7855721540375402
28,-3.3282089734420945,-4.1136817648708055,-3.2915407444889224,-4.07702006876449,4.077020068764489,0.7488110953223948,0.7854793242755669,0.785472791428711
29,-2.903552798910781,-3.6889040510122335,-2.9422437917846294,-3.7276012874212423,3.7276012874212423,0.8240484885104613,0.785357495636613,0.7853512521014525
30,-2.6534251121110373,-3.4386287290560493,-2.60857643149168,-3.3937866883571437,3.393786688357144,0.7403615762461069,0.7852102568654642,0.7852036169450121
31,-2.22354293240929,-3.008568376396109,-2.289124021926943,-3.074156884441737,3.074156884441737,0.8506139520324472,0.785032862514794,0.785025443986819
32,-2.014846348153017,-2.799658068171603,-1.9828163779319097,-2.767636436904345,2.7676364369043447,0.7527900887513277,0.784820058972435,0.784811720018586
33,-1.696936890233536,-2.481493699953317,-1.6888767892016499,-2.4734428723845334,2.473442872384534,0.7765059821509979,0.784566083182884,0.7845568097197813
34,-1.4515895578364886,-2.235843960128302,-1.4066680157176354,-2.1909325744390085,2.1909325744390085,0.7393430166025199,0.784264558721373,0.7842544022918139
35,-1.1163349359762207,-1.900232391609301,-1.1356091878689565,-1.9195176341703264,1.9195176341703264,0.8031826981941057,0.7839084463013699,0.7838974556330802
36,-0.8146107980451855,-1.5980889361498183,-0.8751127590688048,-1.6586027001358994,1.6586027001358996,0.8439919020907141,0.7834899410670948,0.7834781381046327
37,-0.6463255329393182,-1.4293133008983818,-0.6246151324733384,-1.4076155201194693,1.4076155201194696,0.7612899871801514,0.7830003876461311,0.7829877679590638
38,-0.3620245911486339,-1.1444413416803099,-0.38367701233126517,-1.16610722256751,1.16610722256751,0.804082631418876,0.7824302102362448,0.7824167505316759
39,-0.21923566497575997,-1.0009901782992183,-0.15208795187969676,-0.933856793838729,0.9338567938387291,0.7146211288629691,0.7817688419590323,0.7817545133234582
40,0.053561896778847026,-0.7274275423615894,0.07008020751612311,-0.7109244553363034,0.7109244553363033,0.7644863521151504,0.7810046628524264,0.7809894391404364
41,0.2911633476677312,-0.4889454498261382,0.28252594369424777,-0.49759899210676006,0.49759899210675995,0.7887623397744912,0.7801249358010077,0.7801087974938694
42,0.49286046632249775,-0.28623820818869566,0.4848799461709714,-0.2942357929907443,0.29423579299074437,0.7870962593132421,0.7791157391617158,0.7790986745111934
43,0.7442972479332998,-0.03364665372562248,0.6769263560682297,-0.10103554112697355,0.10103554112697358,0.8453327890602733,0.7779618971952033,0.7779439016589222
44,0.8702596763681124,0.0936316927317139,0.8587989147215205,0.0821520070356786,-0.0821520070356786,0.7881076693324338,0.7766469076858419,0.7766279836363985
45,0.9957340295467288,0.22060100368288815,1.0310634116196065,0.25591054285001774,-0.25591054285001774,0.739823486696711,0.7751528687695888,0.7751330258638407
46,1.1469662155443439,0.3735265534845007,1.1946373843222258,0.42117697838774804,-0.42117697838774804,0.7257892371565958,0.7734604059344777,0.7734396620598432
47,1.3980328800617674,0.626505897578961,1.3505639812141568,0.5790153813619863,-0.5790153813619863,0.8190174986997811,0.7715485998521705,0.7715269824828064
48,1.498607592655717,0.7292351291578976,1.4997211905097467,0.7303262746769865,-0.7303262746769864,0.7682813179787306,0.7693949158327603,0.7693724634978194
49,1.599182305331854,0.8322304061063424,1.6425814964636098,0.875606361020494,-0.8756063610204937,0.7235759443113602,0.7669751354431161,0.7669518992255115
50,1.7984328266084741,1.0341934904762935,1.7791229170739062,1.014859626005483,-1.014859626005483,0.7835732006029912,0.7642632910684233,0.7642393361321806
51,1.9009064440574963,1.1396994325265883,1.9089346361812494,1.1477030318118042,-1.147703031811804,0.7532034122456923,0.7612316043694454,0.761207011530908
52,2.024966966509404,1.267141669428538,2.0314814547095703,1.2736310249927616,-1.2736310249927616,0.7513359415166425,0.7578504297168087,0.7578252970808661
53,2.15796838713451,1.4039057386387412,2.1464245663025263,1.3923363624537626,-1.392336362453763,0.7656320246807471,0.7540882038487633,0.7540626484957689
54,2.2875436461503122,1.5376580833490294,2.2538715817303254,1.5039601786223182,-1.503960178622318,0.7835834675279942,0.7499114031080074,0.7498855628012828
55,2.403780001597132,1.6585214569835065,2.354456961917858,1.6091724521800286,-1.6091724521800286,0.7946075494171034,0.7452845097378296,0.7452585446136255
56,2.4037799947576284,1.6636359117122583,2.4492224950745163,1.7090525062230224,-1.7090525062230228,0.6947274885346055,0.7401699888514934,0.74014408304537
57,2.50435470136606,1.7698520603889145,2.5393470773244466,1.8048187995062632,-1.8048187995062626,0.6995359018597975,0.7345282778181841,0.7345026409771456
58,2.604929415682475,1.8766367571203606,2.6258326452010166,1.8975148552599956,-1.897514855259996,0.7074145604224789,0.7283177899410205,0.7282926585621143
59,2.7055041476083312,1.984033574658329,2.709265208570505,1.987770274146508,-1.9877702741465084,0.7177338734618228,0.7214949344239967,0.7214705729500022
60,2.8060789061776554,2.0920880498532903,2.789732676107906,2.075718521376543,-2.075718521376543,0.7303603848011124,0.714014154731363,0.7139908563243651
61,2.906653691745947,2.2008476173105933,2.8669132634362935,2.1610852759050756,-2.1610852759050765,0.7455684158408706,0.705827987531217,0.7058060744353538
62,2.9066537724229997,2.209786804548649,2.9402809752490673,2.243393830771174,-2.2433938307711734,0.6632599416518263,0.6968871444778939,0.6968669678743509
63,3.007228524313083,2.3201059659434287,3.009335782993898,2.32219516387713,-2.3221951638771308,0.6850333604359524,0.687140619116767,0.6871225583696545
64,3.1078031530685064,2.431282870692236,3.073769487400756,2.397233666181025,-2.397233666181025,0.7105694868874814,0.6765358212197312,0.6765202823762704
65,3.107802846684422,2.442796692504614,3.133518671525245,2.4684999308869804,-2.4684999308869804,0.6393029157974417,0.6650187406382648,0.665006154179808
66,3.2083769546826004,2.5558519940567317,3.1887124237514417,2.5361782807808586,-2.5361782807808595,0.6721986739017409,0.6525341429705822,0.6525249606258687
67,3.208376069831321,2.569355580417835,3.239567840700777,2.6005420414741915,-2.600542041474191,0.60783402835713,0.639025799226586,0.6390204894134861
68,3.2988283949127237,2.674392602267259,3.2863011516867244,2.661864401055337,-2.6618644010553365,0.6369639938573872,0.6244367506313879,0.6244357926454649
69,3.3089492371162303,2.70023575011443,3.3291036160054333,2.7203940070248604,-2.720394007024861,0.5885552300913695,0.6087096089805724,0.6087134870018005
70,3.409524498107844,2.8177284066204042,3.3681911315441018,2.776404237475508,-2.7764042374755085,0.6331202606323356,0.5917868940685933,0.5917960914874398
71,3.409527110495044,2.8359007072982307,3.4038943180845944,2.830282906477594,-2.8302829064775943,0.5792442040174497,0.5736114116070001,0.5736264031968132
72,3.40953264231552,2.8553847313845684,3.4367312984569836,2.8826046243678283,-2.8826046243678283,0.5269280179476916,0.5541266740891553,0.5541479109309515
73,3.478695551385821,2.9453903055880555,3.4674091415333326,2.9341317818850206,-2.9341317818850206,0.5445637695008005,0.533277359648312,0.5333052457977656
74,3.5101272586573256,2.999082591533028,3.496729304033374,2.985719506018759,-2.9857195060187594,0.5244077526385662,0.5110097980146144,0.5110446671242976
75,3.51013810204533,3.022823520927347,3.525413869936346,3.038141401984503,-3.038141401984503,0.47199670006082695,0.487272467951843,0.4873145811179831
76,3.5142419891171035,3.052175900374066,3.5539056223615733,3.0918891251670564,-3.091889125167057,0.4223528639500467,0.46201649719451643,0.46206608874303745
77,3.610711579865713,3.1754580216215107,3.582212123470061,3.1470159332785848,-3.1470159332785848,0.46369564658712825,0.43519619019147626,0.4352535582442023
78,3.6106838092732483,3.203848592598441,3.6098551235219967,3.2030854638382955,-3.2030854638382946,0.40759834543495366,0.40676965968370205,0.4068352166748075
79,3.61062723276825,3.2338534790714206,3.635954196272335,3.259254551206185,-3.259254551206187,0.35137268156206325,0.3766996450661484,0.3767737536968294
80,3.655612913901431,3.31057598405144,3.65942943754786,3.3144749465508765,-3.3144749465508765,0.34113796735055457,0.3449544909969835,0.3450369298499911
81,3.710993935031112,3.39939575455823,3.679268316442227,3.3677592879515412,-3.367759287951542,0.34323464707956974,0.31150902849068496,0.311598180472882
82,3.710862182111371,3.434424976567954,3.694780089665653,3.418435203830165,-3.418435203830165,0.2924269782812061,0.276344885835488,0.276437205543417
83,3.7107487558571575,3.4712082209236703,3.705765033598331,3.466315277720761,-3.466315277720762,0.24443347813639527,0.239449755877569,0.23954053493348715
84,3.710702093480984,3.509800035491706,3.712554202100466,3.511738587310867,-3.5117385873108673,0.1989635061701165,0.20081561478959875,0.20090205798927796
85,3.7107852409088378,3.550261734909547,3.71591856276551,3.555481659425192,-3.555481659425193,0.15530358148364476,0.16043690334031702,0.16052350599929088
86,3.7110687594442457,3.59265388340606,3.716887710284313,3.5985768604867934,-3.5985768604867925,0.11249189895745326,0.11831084979752049,0.11841487603818557
87,3.7116182888437033,3.6370235039322094,3.7165418948383837,3.6420993768972627,-3.6420993768972627,0.06951891194644055,0.074442517941121,0.07459478491149385
88,3.712477168610259,3.68338642610929,3.715838444071236,3.6869826325296025,-3.6869826325296025,0.025494536080656438,0.028855811541633525,0.02909074250096877
89,3.7136456819852057,3.7317063472470355,3.71550694024905,3.7338987080581507,-3.733898708058151,-0.020253026072945435,-0.01839176780910101,-0.01806066526182981
90,3.715059639520752,3.7818733318039017,3.7160089513342447,3.7832063198601813,-3.7832063198601817,-0.06814668033942972,-0.06719736852593705,-0.0668136922831497
91,3.716571902320832,3.833685356241241,3.7175262587676974,3.834940533410121,-3.834940533410121,-0.11836863108928908,-0.1174142746424236,-0.11711345392040906
92,3.7179408066258057,3.8868368658744874,3.7199332637095432,3.8888095315864604,-3.8888095315864595,-0.17086872496065375,-0.16887626787691623,-0.16889605924868167
93,3.718829111406506,3.9409179681102304,3.7227306333623296,3.9441784229228816,-3.9441784229228816,-0.22534931151637538,-0.221447789560552,-0.22208885670372425
94,3.718816000528285,3.995426793943966,3.724959001112001,4.000049735064911,-4.000049735064912,-0.2812337345366269,-0.27509073395291095,-0.27661079341568096
95,3.7174229400816254,4.049795826088738,3.7251526298257103,4.055078183642317,-4.055078183642317,-0.3376552435606919,-0.32992555381660704,-0.33237288600711246
96,3.714152078521468,4.103430876564069,3.7214096098263267,4.10766631878567,-4.107666318785669,-0.3935142402642011,-0.3862567089593423,-0.38927879804260135
97,3.7085337448569256,4.155759261633003,3.7116319776768103,4.156168218874011,-4.156168218874011,-0.4476344740170859,-0.44453624119720114,-0.447225516776077
98,3.7001778492673814,4.206281968707193,3.69392837438507,4.199184795452816,-4.199184795452816,-0.49900694618543495,-0.5052564210677462,-0.5061041194398124
99,3.688822973259146,4.254623590405718,3.6670959065145374,4.235884959726968,-4.235884959726968,-0.5470619864678214,-0.5687890532124302,-0.5658006171465715
100,3.674376868112653,4.300573730729246,3.631040696721663,4.266256017566245,-4.266256017566246,-0.5918791494535927,-0.6352153208445825,-0.6261968626165926
101,3.6318833433750517,4.319054849839652,3.5869881104261094,4.291192253123006,-4.291192253123007,-0.659308909747955,-0.7042041426968972,-0.6871715064646011
102,3.5362546782672597,4.284855664011003,3.5373848626588735,4.312375383871702,-4.312375383871701,-0.7761207056044412,-0.7749905212128274,-0.7486009857437428
104,3.4586905636282586,4.3310157166685475,3.485491607747183,4.33196945880978,-4.33196945880978,-0.8732788951815218,-0.8464778510625974,-0.8723251530402893
105,3.3895897023546446,4.323960360783465,3.4347702759318453,4.352218267363575,-4.352218267363575,-0.9626285650089308,-0.9174479914317302,-0.9343706584288203
106,3.3650725595026847,4.3614471282733005,3.3882427627720206,4.3750672295894475,-4.375067229589447,-1.009994670086762,-0.986824466817426,-0.9963745687706158
107,3.3406965383268776,4.398913576951864,3.348006382981729,4.40191875486709,-4.40191875486709,-1.0612222165402123,-1.0539123718853611,-1.0582170386249867
108,3.317328183653601,4.437109877345248,3.3150329644831404,4.433575611407216,-4.433575611407216,-1.1162474277536147,-1.1185426469240753,-1.1197816936916474
109,3.2957815706691767,4.4767379708765365,3.289276352943239,4.470353869420174,-4.470353869420175,-1.1745722987509986,-1.181077516476936,-1.1809564002073594
110,3.276763157654275,4.518397111254948,3.270007844476094,4.5122854452996854,-4.512285445299685,-1.2355222876454097,-1.2422776008235905,-1.2416339536006729
111,3.2608261196953285,4.562538799464543,3.256230488102848,4.559304345186511,-4.559304345186513,-1.2984782254911846,-1.3030738570836653,-1.301712679769215
112,3.2483376488512308,4.609434593421485,3.247014430177277,4.611328907393569,-4.6113289073935695,-1.3629912585423387,-1.3643144772162925,-1.3610969445702543
113,3.2394616417068414,4.659159211003857,3.2416445788090202,4.668204157627098,-4.668204157627097,-1.428742515920256,-1.4265595788180772,-1.419697569297016
114,3.2341580209524388,4.711590172934686,3.239555386316636,4.729530795324694,-4.729530795324694,-1.495372774372255,-1.4899754090080575,-1.4774321519822475
115,3.2321986307379014,4.76642392700918,3.240112343428051,4.794456218577258,-4.794456218577259,-1.5622575878393574,-1.5543438751492076,-1.5342252962712783
117,3.233198198572293,4.877919665980027,3.242356577125991,4.86152281762518,-4.861522817625179,-1.628324619052886,-1.619166240499188,-1.644721467407734
118,3.2366573292330285,4.934966903096031,3.244841261549352,4.9286558747289675,-4.928655874728967,-1.691998545495938,-1.6838146131796146,-1.698309573863003
119,3.2420130671954124,4.9927393525461214,3.2456558928109964,4.993334491636088,-4.993334491636087,-1.751321424440675,-1.747678598825091,-1.750726285350709
120,3.2486914937155094,5.050623238754495,3.242670175958218,5.052937023629331,-5.0529370236293305,-1.8042455299138211,-1.8102668476711123,-1.8019317450389858
121,3.256156377736149,5.108049189828684,3.2339541208878755,5.105201413228265,-5.105201413228264,-1.8490450354921153,-1.8712472923403887,-1.8518928120925344
123,3.2535870333460806,5.201568219981004,3.2182664195138324,5.148701246628848,-5.148701246628849,-1.8951142132827683,-1.9304348271150165,-1.947981186634924
124,3.1834341447196652,5.177507410196811,3.1954676070140042,5.1832187064417505,-5.18321870644175,-1.9997845617220844,-1.9877510994277454,-1.9940732654771458
125,3.1786196482799425,5.21746945788804,3.16671971615124,5.209902880299493,-5.209902880299494,-2.0312832320195517,-2.043183164148254,-2.038849809608097
126,3.185685210500562,5.267991901902442,3.1343822600972073,5.23114013037609,-5.231140130376089,-2.045454919875527,-2.096757870278882,-2.0823066914018797
128,3.0916990225321164,5.256967191934713,3.101595355451792,5.250129328262489,-5.250129328262489,-2.158430305730372,-2.1485339728106965,-2.1652681694025966
129,3.031451519622445,5.2362380842972485,3.0716335796092435,5.27023551640754,-5.270235516407542,-2.238783996785097,-2.1986019367982985,-2.204786564674803
130,3.0028883089805456,5.2459004389120985,3.047191244428298,5.294269053454592,-5.294269053454591,-2.2913807444740453,-2.247077809026293,-2.2430121299315524
131,3.0081101005544024,5.288070603293809,3.0297939183915332,5.323877206937829,-5.323877206937829,-2.3157671063834266,-2.294083288546296,-2.279960502739406
133,3.0129020471823864,5.3630041086780444,3.019504910164253,5.35921983586571,-5.359219835865713,-2.3463177886833266,-2.3397149257014602,-2.3501020614956585
134,3.0172393221419265,5.400578667750317,3.0150113747418317,5.399025853614601,-5.399025853614601,-2.3817865314726747,-2.3840144788727695,-2.38333934560839
135,3.021072669568166,5.43645966547512,3.014056953629793,5.441011543481283,-5.441011543481283,-2.4199388739131167,-2.4269545898514897,-2.4153869959069536
137,3.0243404907486804,5.500361379402735,3.014076333198913,5.482524409782403,-5.482524409782402,-2.458183919033722,-2.4684480765834893,-2.476020888654055
138,3.0269861714859645,5.5316500323294235,3.0128232771405408,5.521201960299873,-5.521201960299874,-2.4942157888139094,-2.508378683159333,-2.5046638608434595
140,3.028976260279688,5.587726398875025,3.0087949948573383,5.5554362471353365,-5.5554362471353365,-2.5264599868556483,-2.546641252277998,-2.558750138595337
141,3.0303153596389705,5.614569813660124,3.001341793257124,5.584516860934768,-5.584516860934768,-2.5542015012957973,-2.5831750676776437,-2.5842544540211527
142,2.9962688050109265,5.605042875583048,2.9904793991865763,5.608457111685669,-5.608457111685669,-2.6121883066747427,-2.617977712499093,-2.6087740705721214
144,2.9307175958613194,5.585700860488581,2.9765387689212366,5.6276349069156595,-5.6276349069156595,-2.69691731105434,-2.651096137994423,-2.6549832646272615
145,2.9305913756566992,5.607325982679136,2.959843213896022,5.642445069244929,-5.642445069244929,-2.71185369358823,-2.6826018553489073,-2.6767346070224365
147,2.9302638939802628,5.6479471147903135,2.940569074821332,5.653132414877976,-5.653132414877976,-2.722868520897713,-2.712563340056644,-2.7176832208100508
148,2.9299031804132984,5.6668434638665985,2.91883770477276,5.6598661317282195,-5.659866131728219,-2.72996295131492,-2.7410284269554586,-2.7369402834532996
150,2.929660470162005,5.702826007587787,2.894953362612097,5.662976879450513,-5.662976879450514,-2.7333164092885087,-2.768023516838417,-2.773165537425782
151,2.9296478369471157,5.719838022595556,2.869610284936922,5.663178060604785,-5.663178060604785,-2.733530223657669,-2.7935677756678627,-2.79019018564844
153,2.8309346197923184,5.65313428437851,2.843892713903277,5.661586224675725,-5.661586224675726,-2.8306516048834074,-2.817693510772449,-2.8221996645861918
154,2.8190669512528963,5.656303768831085,2.8189902803763345,5.659451984518382,-5.659451984518383,-2.8403850332654867,-2.8404617041420486,-2.837236817578189
156,2.7299893273773255,5.595490499302587,2.7957041702219048,5.657668968115168,-5.657668968115168,-2.9276796407378423,-2.861964797893263,-2.8655011719252608
157,2.730650840914505,5.609427017908647,2.7739521013181587,5.656267355920085,-5.656267355920084,-2.9256165150055793,-2.8823152546019255,-2.878776176994142
159,2.7310326330354084,5.6347582194812205,2.752521869529284,5.654146792430501,-5.654146792430501,-2.9231141593950922,-2.9016249229012168,-2.9037255864458116
160,2.730840802698027,5.646283990440777,2.7292443913072386,5.649228416843069,-5.649228416843069,-2.9183876141450424,-2.9199840255358307,-2.9154431877427496
