frequency,raw,error,smoothed,error_smoothed,equalization,parametric_eq,fixed_band_eq,equalized_raw,equalized_smoothed,target
20.00,-2.58,-1.60,-2.58,-1.60,1.60,0.27,0.23,-0.98,-0.98,-0.98
20.20,-2.49,-1.60,-2.49,-1.60,1.60,0.27,0.24,-0.89,-0.89,-0.89
20.40,-2.40,-1.59,-2.40,-1.59,1.59,0.27,0.24,-0.81,-0.81,-0.81
20.61,-2.31,-1.57,-2.31,-1.58,1.58,0.27,0.25,-0.73,-0.73,-0.74
20.81,-2.22,-1.57,-2.22,-1.57,1.57,0.27,0.26,-0.65,-0.65,-0.65
21.02,-2.13,-1.56,-2.13,-1.55,1.55,0.26,0.27,-0.58,-0.58,-0.57
21.23,-2.04,-1.53,-2.04,-1.54,1.53,0.26,0.27,-0.51,-0.52,-0.51
21.44,-1.96,-1.51,-1.96,-1.51,1.50,0.26,0.28,-0.46,-0.46,-0.45
21.66,-1.87,-1.47,-1.87,-1.47,1.47,0.26,0.29,-0.40,-0.40,-0.40
21.87,-1.78,-1.43,-1.78,-1.43,1.43,0.26,0.30,-0.34,-0.35,-0.35
22.09,-1.69,-1.39,-1.69,-1.39,1.39,0.26,0.31,-0.29,-0.30,-0.30
22.31,-1.61,-1.36,-1.61,-1.35,1.35,0.26,0.32,-0.26,-0.25,-0.25
22.54,-1.52,-1.31,-1.52,-1.31,1.31,0.26,0.33,-0.21,-0.21,-0.21
22.76,-1.44,-1.27,-1.44,-1.26,1.26,0.25,0.34,-0.18,-0.18,-0.17
22.99,-1.35,-1.21,-1.35,-1.21,1.22,0.25,0.35,-0.13,-0.14,-0.14
23.22,-1.27,-1.17,-1.27,-1.17,1.17,0.25,0.36,-0.10,-0.10,-0.10
23.45,-1.19,-1.13,-1.19,-1.12,1.13,0.25,0.37,-0.06,-0.06,-0.06
23.69,-1.10,-1.08,-1.10,-1.08,1.08,0.25,0.38,-0.02,-0.02,-0.02
23.92,-1.02,-1.04,-1.02,-1.04,1.04,0.25,0.39,0.02,0.02,0.02
24.16,-0.94,-1.01,-0.94,-1.00,0.99,0.24,0.40,0.05,0.05,0.07
24.40,-0.86,-0.95,-0.85,-0.95,0.95,0.24,0.42,0.09,0.09,0.10
24.65,-0.77,-0.90,-0.77,-0.90,0.90,0.24,0.43,0.13,0.13,0.12
24.89,-0.69,-0.84,-0.69,-0.85,0.86,0.24,0.44,0.17,0.16,0.16
25.14,-0.62,-0.81,-0.61,-0.81,0.81,0.24,0.45,0.19,0.20,0.19
25.39,-0.54,-0.76,-0.54,-0.77,0.76,0.24,0.46,0.22,0.22,0.22
25.65,-0.46,-0.72,-0.46,-0.72,0.72,0.23,0.47,0.26,0.25,0.26
25.91,-0.39,-0.67,-0.39,-0.67,0.67,0.23,0.49,0.28,0.29,0.28
26.16,-0.31,-0.62,-0.31,-0.63,0.63,0.23,0.50,0.32,0.32,0.31
26.43,-0.24,-0.59,-0.24,-0.59,0.59,0.23,0.51,0.35,0.35,0.35
26.69,-0.17,-0.55,-0.17,-0.55,0.55,0.22,0.52,0.38,0.38,0.38
26.96,-0.09,-0.50,-0.09,-0.51,0.51,0.22,0.53,0.42,0.41,0.41
27.23,-0.02,-0.47,-0.02,-0.47,0.47,0.22,0.54,0.44,0.44,0.45
27.50,0.05,-0.43,0.05,-0.43,0.43,0.22,0.55,0.48,0.47,0.48
27.77,0.11,-0.39,0.11,-0.39,0.39,0.21,0.56,0.50,0.50,0.50
28.05,0.18,-0.36,0.18,-0.35,0.35,0.21,0.57,0.53,0.53,0.54
28.33,0.25,-0.31,0.25,-0.31,0.31,0.21,0.58,0.56,0.56,0.56
28.62,0.31,-0.28,0.31,-0.27,0.28,0.20,0.59,0.59,0.59,0.58
28.90,0.38,-0.24,0.38,-0.24,0.25,0.20,0.59,0.63,0.62,0.62
29.19,0.44,-0.20,0.44,-0.22,0.22,0.20,0.60,0.66,0.65,0.64
29.48,0.49,-0.20,0.49,-0.19,0.19,0.19,0.60,0.68,0.68,0.69
29.78,0.55,-0.16,0.55,-0.17,0.16,0.19,0.61,0.71,0.71,0.71
30.08,0.60,-0.14,0.60,-0.14,0.14,0.18,0.61,0.74,0.74,0.74
30.38,0.65,-0.12,0.65,-0.12,0.12,0.18,0.61,0.77,0.77,0.77
30.68,0.70,-0.10,0.70,-0.09,0.10,0.17,0.61,0.80,0.80,0.80
30.99,0.75,-0.07,0.75,-0.08,0.08,0.17,0.61,0.83,0.82,0.82
31.30,0.79,-0.06,0.79,-0.06,0.06,0.16,0.61,0.85,0.85,0.85
31.61,0.82,-0.05,0.82,-0.05,0.05,0.16,0.61,0.87,0.87,0.87
31.93,0.86,-0.03,0.86,-0.03,0.03,0.15,0.61,0.89,0.89,0.89
32.24,0.90,-0.01,0.90,-0.02,0.02,0.15,0.60,0.92,0.92,0.91
32.57,0.93,-0.01,0.93,-0.01,0.01,0.14,0.60,0.94,0.94,0.94
32.89,0.97,0.00,0.97,0.00,-0.00,0.14,0.59,0.97,0.97,0.97
33.22,1.00,0.01,1.00,0.01,-0.01,0.13,0.58,0.99,0.99,0.99
33.55,1.02,0.01,1.02,0.02,-0.02,0.12,0.58,1.00,1.01,1.01
33.89,1.05,0.04,1.05,0.03,-0.03,0.11,0.57,1.02,1.02,1.01
34.23,1.07,0.03,1.07,0.03,-0.04,0.11,0.56,1.03,1.04,1.04
34.57,1.09,0.04,1.09,0.04,-0.04,0.10,0.55,1.05,1.05,1.05
34.92,1.12,0.06,1.11,0.05,-0.05,0.09,0.53,1.07,1.06,1.06
35.27,1.13,0.05,1.13,0.06,-0.06,0.08,0.52,1.07,1.07,1.08
35.62,1.15,0.07,1.15,0.07,-0.07,0.07,0.51,1.08,1.08,1.08
35.97,1.17,0.09,1.17,0.08,-0.08,0.06,0.50,1.09,1.09,1.08
36.33,1.18,0.08,1.18,0.09,-0.09,0.06,0.48,1.09,1.09,1.10
36.70,1.20,0.10,1.20,0.10,-0.10,0.04,0.47,1.10,1.10,1.10
37.06,1.21,0.11,1.21,0.11,-0.11,0.03,0.45,1.10,1.10,1.10
37.43,1.23,0.13,1.23,0.13,-0.13,0.02,0.44,1.10,1.10,1.10
37.81,1.24,0.14,1.24,0.14,-0.14,0.01,0.42,1.10,1.10,1.10
38.19,1.26,0.16,1.26,0.15,-0.15,0.00,0.41,1.11,1.11,1.10
38.57,1.27,0.16,1.27,0.17,-0.17,-0.01,0.39,1.10,1.10,1.11
38.95,1.28,0.18,1.28,0.18,-0.18,-0.02,0.38,1.10,1.10,1.10
39.34,1.28,0.19,1.28,0.19,-0.19,-0.03,0.36,1.09,1.09,1.09
39.74,1.29,0.20,1.29,0.20,-0.20,-0.05,0.35,1.09,1.09,1.09
40.14,1.29,0.21,1.29,0.21,-0.21,-0.06,0.33,1.08,1.09,1.08
40.54,1.30,0.22,1.30,0.22,-0.21,-0.07,0.32,1.09,1.08,1.08
40.94,1.30,0.22,1.30,0.22,-0.22,-0.08,0.30,1.08,1.08,1.08
41.35,1.30,0.23,1.30,0.22,-0.22,-0.10,0.29,1.08,1.07,1.07
41.76,1.29,0.22,1.29,0.23,-0.23,-0.11,0.27,1.06,1.07,1.07
42.18,1.29,0.22,1.29,0.23,-0.23,-0.12,0.26,1.06,1.06,1.07
42.60,1.29,0.24,1.29,0.23,-0.23,-0.13,0.24,1.06,1.05,1.05
43.03,1.29,0.23,1.29,0.24,-0.24,-0.14,0.23,1.05,1.05,1.06
43.46,1.28,0.24,1.28,0.24,-0.24,-0.15,0.21,1.04,1.04,1.04
43.90,1.27,0.24,1.27,0.24,-0.24,-0.16,0.20,1.03,1.03,1.03
44.33,1.26,0.25,1.26,0.24,-0.24,-0.17,0.19,1.02,1.02,1.01
44.78,1.25,0.24,1.25,0.24,-0.24,-0.17,0.17,1.01,1.01,1.01
45.23,1.23,0.24,1.23,0.24,-0.23,-0.18,0.16,1.00,1.00,0.99
45.68,1.21,0.22,1.21,0.22,-0.22,-0.18,0.14,0.99,0.99,0.99
46.13,1.19,0.21,1.19,0.20,-0.20,-0.18,0.13,0.99,0.99,0.98
46.60,1.17,0.18,1.17,0.19,-0.19,-0.19,0.12,0.98,0.98,0.99
47.06,1.15,0.17,1.15,0.17,-0.17,-0.19,0.11,0.98,0.98,0.98
47.53,1.13,0.15,1.13,0.15,-0.16,-0.18,0.09,0.97,0.97,0.98
48.01,1.11,0.13,1.11,0.14,-0.14,-0.18,0.08,0.97,0.97,0.98
48.49,1.10,0.13,1.10,0.13,-0.13,-0.18,0.07,0.97,0.97,0.97
48.97,1.08,0.11,1.08,0.12,-0.11,-0.17,0.05,0.97,0.96,0.97
49.46,1.06,0.11,1.06,0.11,-0.10,-0.17,0.04,0.96,0.96,0.95
49.96,1.04,0.10,1.04,0.09,-0.09,-0.16,0.03,0.95,0.96,0.94
50.46,1.03,0.08,1.03,0.07,-0.07,-0.15,0.02,0.96,0.95,0.95
50.96,1.01,0.04,1.01,0.06,-0.06,-0.14,0.01,0.95,0.96,0.97
51.47,1.00,0.04,1.00,0.04,-0.04,-0.13,-0.01,0.96,0.96,0.96
51.99,0.99,0.03,0.99,0.03,-0.03,-0.12,-0.02,0.96,0.96,0.96
52.51,0.98,0.01,0.98,0.01,-0.01,-0.11,-0.03,0.97,0.97,0.97
53.03,0.97,-0.00,0.97,-0.00,0.00,-0.10,-0.04,0.97,0.97,0.97
53.56,0.96,-0.01,0.96,-0.01,0.01,-0.09,-0.05,0.97,0.97,0.97
54.10,0.95,-0.02,0.95,-0.02,0.01,-0.08,-0.06,0.96,0.96,0.97
54.64,0.95,-0.01,0.95,-0.02,0.01,-0.07,-0.07,0.96,0.96,0.96
55.18,0.95,-0.01,0.95,-0.01,0.01,-0.06,-0.08,0.96,0.96,0.96
55.74,0.95,-0.00,0.95,-0.00,0.00,-0.05,-0.09,0.95,0.95,0.95
56.29,0.95,0.00,0.95,0.01,-0.01,-0.04,-0.10,0.94,0.95,0.95
56.86,0.96,0.02,0.96,0.02,-0.02,-0.03,-0.11,0.94,0.94,0.94
57.42,0.96,0.03,0.96,0.03,-0.03,-0.03,-0.12,0.93,0.93,0.93
58.00,0.97,0.05,0.97,0.05,-0.04,-0.02,-0.12,0.93,0.93,0.92
58.58,0.97,0.06,0.97,0.06,-0.05,-0.01,-0.13,0.92,0.92,0.91
59.16,0.97,0.06,0.97,0.07,-0.07,-0.00,-0.14,0.90,0.90,0.91
59.76,0.97,0.08,0.97,0.08,-0.08,0.01,-0.15,0.89,0.89,0.89
60.35,0.97,0.10,0.97,0.09,-0.10,0.01,-0.15,0.87,0.87,0.87
60.96,0.97,0.10,0.97,0.12,-0.12,0.02,-0.16,0.85,0.85,0.87
61.57,0.97,0.14,0.97,0.14,-0.14,0.02,-0.16,0.83,0.83,0.83
62.18,0.97,0.17,0.97,0.16,-0.16,0.03,-0.17,0.81,0.81,0.80
62.80,0.97,0.17,0.97,0.18,-0.18,0.04,-0.17,0.79,0.79,0.80
63.43,0.97,0.20,0.97,0.20,-0.20,0.04,-0.18,0.77,0.77,0.77
64.07,0.98,0.21,0.98,0.22,-0.22,0.04,-0.18,0.76,0.76,0.77
64.71,0.99,0.23,0.99,0.23,-0.23,0.05,-0.19,0.76,0.76,0.76
65.35,1.00,0.25,1.00,0.24,-0.24,0.05,-0.19,0.76,0.76,0.75
66.01,1.00,0.25,1.00,0.25,-0.24,0.06,-0.19,0.76,0.76,0.75
66.67,0.99,0.24,0.99,0.24,-0.24,0.06,-0.20,0.75,0.75,0.75
67.33,0.99,0.24,0.99,0.24,-0.24,0.06,-0.20,0.75,0.75,0.75
68.01,0.98,0.23,0.98,0.23,-0.23,0.06,-0.20,0.75,0.75,0.75
68.69,0.97,0.22,0.97,0.22,-0.21,0.07,-0.20,0.76,0.76,0.75
69.37,0.95,0.19,0.95,0.20,-0.19,0.07,-0.20,0.76,0.76,0.76
70.07,0.94,0.18,0.94,0.17,-0.17,0.07,-0.20,0.77,0.77,0.76
70.77,0.92,0.14,0.92,0.15,-0.15,0.07,-0.20,0.77,0.77,0.78
71.48,0.89,0.12,0.89,0.12,-0.12,0.07,-0.20,0.77,0.77,0.77
72.19,0.86,0.09,0.86,0.09,-0.10,0.07,-0.20,0.76,0.77,0.77
72.91,0.84,0.06,0.84,0.07,-0.07,0.07,-0.20,0.77,0.77,0.78
73.64,0.82,0.05,0.82,0.04,-0.04,0.07,-0.20,0.78,0.77,0.77
74.38,0.79,0.01,0.79,0.02,-0.02,0.07,-0.20,0.77,0.77,0.78
75.12,0.77,0.00,0.77,-0.01,0.01,0.07,-0.21,0.77,0.77,0.77
75.87,0.74,-0.03,0.74,-0.03,0.03,0.07,-0.21,0.77,0.77,0.77
76.63,0.72,-0.06,0.72,-0.05,0.05,0.07,-0.21,0.77,0.77,0.78
77.40,0.70,-0.07,0.70,-0.07,0.07,0.07,-0.21,0.77,0.77,0.77
78.17,0.68,-0.08,0.68,-0.09,0.09,0.07,-0.21,0.77,0.77,0.76
78.95,0.66,-0.12,0.66,-0.11,0.11,0.06,-0.21,0.77,0.77,0.78
79.74,0.65,-0.13,0.65,-0.13,0.13,0.06,-0.21,0.78,0.77,0.78
80.54,0.63,-0.15,0.63,-0.15,0.14,0.06,-0.21,0.77,0.78,0.78
81.35,0.63,-0.16,0.63,-0.16,0.15,0.06,-0.21,0.78,0.78,0.79
82.16,0.63,-0.17,0.63,-0.17,0.16,0.06,-0.21,0.79,0.80,0.80
82.98,0.64,-0.18,0.64,-0.17,0.17,0.05,-0.21,0.81,0.81,0.82
83.81,0.65,-0.17,0.65,-0.18,0.19,0.05,-0.21,0.84,0.83,0.82
84.65,0.65,-0.18,0.65,-0.19,0.20,0.05,-0.21,0.85,0.85,0.83
85.50,0.65,-0.21,0.65,-0.21,0.22,0.04,-0.21,0.87,0.86,0.86
86.35,0.64,-0.23,0.64,-0.23,0.23,0.04,-0.21,0.87,0.88,0.87
87.22,0.63,-0.25,0.63,-0.25,0.26,0.04,-0.21,0.89,0.89,0.88
88.09,0.62,-0.28,0.62,-0.28,0.28,0.03,-0.22,0.90,0.89,0.90
88.97,0.60,-0.31,0.60,-0.31,0.30,0.03,-0.22,0.90,0.90,0.91
89.86,0.58,-0.33,0.58,-0.33,0.32,0.02,-0.22,0.90,0.91,0.91
90.76,0.57,-0.34,0.57,-0.34,0.34,0.02,-0.22,0.91,0.91,0.91
91.66,0.56,-0.35,0.56,-0.35,0.36,0.02,-0.22,0.92,0.91,0.91
92.58,0.54,-0.35,0.54,-0.36,0.36,0.01,-0.23,0.90,0.90,0.89
93.51,0.52,-0.38,0.52,-0.37,0.37,0.01,-0.23,0.89,0.89,0.90
94.44,0.51,-0.37,0.51,-0.37,0.36,0.00,-0.23,0.87,0.87,0.88
95.39,0.50,-0.36,0.50,-0.36,0.35,-0.00,-0.24,0.86,0.85,0.86
96.34,0.49,-0.34,0.49,-0.34,0.34,-0.01,-0.24,0.83,0.83,0.83
97.30,0.48,-0.32,0.48,-0.32,0.32,-0.02,-0.24,0.80,0.80,0.80
98.28,0.48,-0.29,0.48,-0.29,0.29,-0.02,-0.25,0.77,0.76,0.77
99.26,0.47,-0.26,0.47,-0.25,0.25,-0.03,-0.25,0.72,0.73,0.73
100.25,0.48,-0.21,0.48,-0.21,0.21,-0.03,-0.25,0.69,0.69,0.69
101.25,0.48,-0.17,0.48,-0.17,0.17,-0.04,-0.26,0.65,0.65,0.65
102.27,0.49,-0.12,0.49,-0.12,0.12,-0.05,-0.26,0.61,0.61,0.61
103.29,0.49,-0.07,0.49,-0.08,0.08,-0.05,-0.27,0.57,0.57,0.56
104.32,0.49,-0.04,0.49,-0.03,0.03,-0.06,-0.27,0.52,0.52,0.53
105.37,0.49,0.01,0.49,0.01,-0.01,-0.07,-0.27,0.48,0.48,0.48
106.42,0.50,0.06,0.50,0.05,-0.05,-0.07,-0.28,0.45,0.44,0.44
107.48,0.50,0.10,0.50,0.10,-0.09,-0.08,-0.28,0.41,0.41,0.40
108.56,0.49,0.13,0.50,0.13,-0.12,-0.09,-0.29,0.37,0.37,0.36
109.64,0.49,0.17,0.49,0.16,-0.15,-0.10,-0.29,0.34,0.33,0.32
110.74,0.48,0.18,0.48,0.18,-0.18,-0.10,-0.30,0.30,0.30,0.30
111.85,0.46,0.19,0.46,0.20,-0.21,-0.11,-0.30,0.25,0.26,0.27
112.97,0.45,0.23,0.45,0.22,-0.22,-0.12,-0.31,0.23,0.22,0.22
114.10,0.43,0.23,0.43,0.24,-0.24,-0.13,-0.31,0.19,0.19,0.20
115.24,0.41,0.25,0.41,0.25,-0.25,-0.14,-0.31,0.16,0.16,0.16
116.39,0.40,0.27,0.40,0.26,-0.26,-0.15,-0.32,0.14,0.14,0.13
117.55,0.39,0.27,0.39,0.28,-0.27,-0.16,-0.32,0.12,0.12,0.12
118.73,0.37,0.28,0.37,0.28,-0.27,-0.17,-0.33,0.10,0.10,0.09
119.92,0.35,0.27,0.35,0.27,-0.27,-0.18,-0.33,0.08,0.08,0.08
121.12,0.33,0.27,0.33,0.27,-0.27,-0.19,-0.33,0.06,0.06,0.06
122.33,0.32,0.27,0.32,0.27,-0.28,-0.20,-0.34,0.04,0.05,0.05
123.55,0.32,0.28,0.31,0.28,-0.28,-0.21,-0.34,0.04,0.03,0.04
124.79,0.31,0.28,0.31,0.28,-0.29,-0.22,-0.35,0.02,0.02,0.03
126.03,0.31,0.29,0.31,0.30,-0.31,-0.23,-0.35,0.00,0.01,0.02
127.29,0.32,0.31,0.32,0.31,-0.32,-0.24,-0.35,-0.00,-0.00,0.01
128.57,0.33,0.35,0.33,0.34,-0.34,-0.25,-0.35,-0.01,-0.01,-0.02
129.85,0.34,0.36,0.34,0.37,-0.36,-0.26,-0.36,-0.02,-0.02,-0.02
131.15,0.35,0.38,0.35,0.39,-0.37,-0.27,-0.36,-0.02,-0.03,-0.03
132.46,0.35,0.41,0.35,0.40,-0.39,-0.29,-0.36,-0.04,-0.04,-0.06
133.79,0.34,0.40,0.34,0.40,-0.40,-0.30,-0.37,-0.06,-0.06,-0.06
135.12,0.32,0.40,0.32,0.40,-0.40,-0.31,-0.37,-0.08,-0.08,-0.08
136.48,0.31,0.40,0.31,0.40,-0.40,-0.33,-0.37,-0.09,-0.10,-0.09
137.84,0.28,0.39,0.29,0.40,-0.40,-0.34,-0.37,-0.12,-0.11,-0.11
139.22,0.26,0.40,0.26,0.39,-0.39,-0.35,-0.38,-0.13,-0.13,-0.14
140.61,0.23,0.39,0.22,0.38,-0.37,-0.37,-0.38,-0.14,-0.15,-0.16
142.02,0.18,0.35,0.19,0.36,-0.36,-0.38,-0.38,-0.18,-0.17,-0.17
143.44,0.16,0.35,0.15,0.34,-0.35,-0.40,-0.38,-0.19,-0.19,-0.19
144.87,0.12,0.33,0.12,0.33,-0.34,-0.41,-0.39,-0.22,-0.21,-0.21
146.32,0.09,0.33,0.09,0.33,-0.33,-0.43,-0.39,-0.24,-0.23,-0.24
147.78,0.06,0.32,0.06,0.32,-0.32,-0.44,-0.39,-0.26,-0.26,-0.26
149.26,0.03,0.31,0.03,0.31,-0.32,-0.46,-0.40,-0.29,-0.29,-0.28
150.75,-0.00,0.32,0.00,0.32,-0.32,-0.48,-0.40,-0.32,-0.32,-0.32
152.26,-0.01,0.33,-0.01,0.33,-0.34,-0.49,-0.40,-0.35,-0.35,-0.34
153.78,-0.02,0.34,-0.02,0.35,-0.36,-0.51,-0.41,-0.38,-0.38,-0.36
155.32,-0.02,0.38,-0.02,0.37,-0.38,-0.53,-0.41,-0.40,-0.40,-0.40
156.88,-0.02,0.40,-0.02,0.41,-0.41,-0.54,-0.42,-0.43,-0.43,-0.42
158.44,-0.01,0.45,-0.01,0.45,-0.45,-0.56,-0.42,-0.46,-0.46,-0.46
160.03,-0.00,0.49,-0.00,0.49,-0.49,-0.58,-0.43,-0.49,-0.49,-0.49
161.63,0.00,0.54,0.00,0.53,-0.52,-0.60,-0.43,-0.52,-0.52,-0.54
163.24,0.00,0.57,0.00,0.57,-0.56,-0.62,-0.44,-0.56,-0.56,-0.57
164.88,0.00,0.60,0.00,0.60,-0.59,-0.64,-0.44,-0.59,-0.59,-0.60
166.53,0.00,0.62,0.00,0.62,-0.63,-0.65,-0.45,-0.63,-0.63,-0.62
168.19,0.00,0.65,0.00,0.65,-0.66,-0.67,-0.46,-0.66,-0.66,-0.65
169.87,0.00,0.68,0.00,0.68,-0.68,-0.69,-0.46,-0.68,-0.68,-0.68
171.57,0.00,0.71,0.00,0.71,-0.71,-0.71,-0.47,-0.71,-0.71,-0.71
173.29,0.00,0.74,0.00,0.74,-0.74,-0.73,-0.48,-0.74,-0.74,-0.74
175.02,0.00,0.76,0.00,0.76,-0.76,-0.75,-0.49,-0.76,-0.76,-0.76
176.77,0.00,0.79,0.00,0.79,-0.79,-0.77,-0.50,-0.79,-0.79,-0.79
178.54,0.00,0.81,-0.00,0.81,-0.81,-0.79,-0.51,-0.81,-0.81,-0.81
180.32,0.00,0.83,-0.00,0.83,-0.83,-0.80,-0.52,-0.83,-0.83,-0.83
182.13,0.00,0.84,-0.00,0.85,-0.84,-0.82,-0.53,-0.84,-0.84,-0.84
183.95,0.00,0.86,-0.00,0.86,-0.86,-0.84,-0.54,-0.86,-0.86,-0.86
185.79,0.00,0.87,-0.00,0.87,-0.87,-0.85,-0.55,-0.87,-0.87,-0.87
187.65,0.00,0.89,-0.00,0.88,-0.88,-0.87,-0.56,-0.88,-0.88,-0.89
189.52,0.00,0.89,-0.00,0.89,-0.89,-0.88,-0.57,-0.89,-0.89,-0.89
191.42,0.00,0.90,-0.00,0.90,-0.90,-0.90,-0.59,-0.90,-0.91,-0.90
193.33,0.00,0.90,0.00,0.91,-0.91,-0.91,-0.60,-0.91,-0.91,-0.90
195.27,0.01,0.91,0.01,0.92,-0.92,-0.92,-0.61,-0.91,-0.91,-0.90
197.22,0.02,0.94,0.01,0.93,-0.93,-0.93,-0.62,-0.91,-0.92,-0.92
199.19,0.01,0.95,0.02,0.94,-0.93,-0.94,-0.64,-0.92,-0.92,-0.94
201.18,0.01,0.95,0.01,0.95,-0.94,-0.95,-0.65,-0.93,-0.93,-0.94
203.19,-0.00,0.94,-0.00,0.94,-0.93,-0.96,-0.66,-0.93,-0.94,-0.94
205.23,-0.02,0.93,-0.02,0.93,-0.93,-0.96,-0.67,-0.95,-0.95,-0.95
207.28,-0.03,0.92,-0.03,0.92,-0.92,-0.97,-0.69,-0.95,-0.95,-0.95
209.35,-0.05,0.91,-0.05,0.91,-0.91,-0.97,-0.70,-0.96,-0.96,-0.96
211.44,-0.06,0.91,-0.07,0.90,-0.90,-0.97,-0.71,-0.96,-0.97,-0.97
213.56,-0.09,0.88,-0.08,0.89,-0.90,-0.97,-0.73,-0.99,-0.98,-0.97
215.69,-0.10,0.87,-0.10,0.88,-0.89,-0.97,-0.74,-0.99,-0.98,-0.97
217.85,-0.11,0.88,-0.11,0.88,-0.88,-0.96,-0.75,-0.99,-0.99,-0.99
220.03,-0.12,0.88,-0.12,0.88,-0.87,-0.96,-0.76,-0.99,-0.99,-1.00
222.23,-0.14,0.87,-0.14,0.87,-0.86,-0.95,-0.77,-1.00,-1.00,-1.01
224.45,-0.16,0.85,-0.16,0.86,-0.85,-0.94,-0.78,-1.01,-1.01,-1.01
226.70,-0.18,0.84,-0.18,0.84,-0.84,-0.93,-0.79,-1.02,-1.02,-1.02
228.96,-0.20,0.83,-0.20,0.82,-0.84,-0.92,-0.80,-1.04,-1.04,-1.03
231.25,-0.22,0.81,-0.22,0.82,-0.83,-0.91,-0.80,-1.05,-1.05,-1.03
233.57,-0.23,0.82,-0.23,0.82,-0.83,-0.90,-0.81,-1.06,-1.06,-1.05
235.90,-0.24,0.82,-0.24,0.83,-0.83,-0.88,-0.81,-1.07,-1.06,-1.06
238.26,-0.24,0.84,-0.25,0.83,-0.82,-0.87,-0.82,-1.06,-1.07,-1.08
240.64,-0.26,0.84,-0.26,0.84,-0.82,-0.85,-0.82,-1.08,-1.08,-1.10
243.05,-0.27,0.83,-0.27,0.83,-0.82,-0.83,-0.82,-1.09,-1.09,-1.10
245.48,-0.29,0.82,-0.29,0.82,-0.81,-0.82,-0.82,-1.10,-1.11,-1.11
247.93,-0.31,0.80,-0.31,0.81,-0.81,-0.80,-0.81,-1.12,-1.11,-1.11
250.41,-0.32,0.81,-0.32,0.79,-0.80,-0.78,-0.81,-1.12,-1.12,-1.13
252.92,-0.33,0.78,-0.33,0.78,-0.79,-0.76,-0.80,-1.12,-1.12,-1.11
255.45,-0.34,0.76,-0.34,0.77,-0.78,-0.74,-0.79,-1.12,-1.11,-1.10
258.00,-0.34,0.76,-0.34,0.76,-0.77,-0.72,-0.79,-1.11,-1.11,-1.10
260.58,-0.33,0.76,-0.33,0.76,-0.76,-0.70,-0.77,-1.09,-1.09,-1.09
263.19,-0.33,0.75,-0.33,0.75,-0.75,-0.68,-0.76,-1.08,-1.07,-1.08
265.82,-0.32,0.75,-0.32,0.74,-0.73,-0.66,-0.75,-1.05,-1.06,-1.07
268.48,-0.32,0.72,-0.32,0.73,-0.72,-0.64,-0.73,-1.04,-1.04,-1.04
271.16,-0.32,0.71,-0.32,0.71,-0.71,-0.62,-0.72,-1.03,-1.03,-1.03
273.87,-0.32,0.69,-0.32,0.69,-0.69,-0.60,-0.70,-1.01,-1.01,-1.01
276.61,-0.32,0.66,-0.32,0.67,-0.68,-0.58,-0.68,-1.00,-1.00,-0.98
279.38,-0.32,0.66,-0.32,0.65,-0.66,-0.56,-0.66,-0.98,-0.98,-0.98
282.17,-0.32,0.64,-0.32,0.64,-0.64,-0.55,-0.64,-0.96,-0.96,-0.96
284.99,-0.32,0.62,-0.32,0.62,-0.62,-0.53,-0.62,-0.94,-0.94,-0.94
287.84,-0.32,0.61,-0.32,0.60,-0.60,-0.51,-0.60,-0.92,-0.92,-0.93
290.72,-0.32,0.58,-0.32,0.59,-0.59,-0.49,-0.58,-0.91,-0.91,-0.90
293.63,-0.32,0.57,-0.32,0.56,-0.57,-0.47,-0.55,-0.89,-0.89,-0.89
296.57,-0.32,0.54,-0.32,0.55,-0.55,-0.45,-0.53,-0.87,-0.87,-0.86
299.53,-0.32,0.53,-0.32,0.53,-0.53,-0.44,-0.51,-0.85,-0.85,-0.85
302.53,-0.32,0.52,-0.32,0.51,-0.51,-0.42,-0.48,-0.83,-0.83,-0.84
305.55,-0.32,0.48,-0.32,0.49,-0.48,-0.40,-0.46,-0.80,-0.80,-0.80
308.61,-0.32,0.46,-0.32,0.46,-0.46,-0.39,-0.43,-0.78,-0.78,-0.78
311.69,-0.32,0.44,-0.32,0.43,-0.43,-0.37,-0.40,-0.75,-0.75,-0.76
314.81,-0.32,0.40,-0.32,0.40,-0.41,-0.35,-0.38,-0.73,-0.73,-0.72
317.96,-0.32,0.38,-0.32,0.38,-0.39,-0.34,-0.35,-0.71,-0.71,-0.70
321.14,-0.32,0.36,-0.32,0.36,-0.36,-0.32,-0.33,-0.68,-0.68,-0.68
324.35,-0.32,0.34,-0.32,0.34,-0.34,-0.31,-0.30,-0.66,-0.66,-0.66
327.59,-0.32,0.31,-0.32,0.32,-0.31,-0.29,-0.27,-0.63,-0.63,-0.63
330.87,-0.32,0.30,-0.32,0.30,-0.29,-0.28,-0.25,-0.61,-0.61,-0.62
334.18,-0.32,0.27,-0.32,0.27,-0.26,-0.27,-0.22,-0.58,-0.58,-0.59
337.52,-0.32,0.25,-0.32,0.24,-0.24,-0.25,-0.19,-0.56,-0.56,-0.57
340.90,-0.33,0.21,-0.33,0.21,-0.21,-0.24,-0.17,-0.54,-0.54,-0.54
344.30,-0.34,0.17,-0.34,0.18,-0.18,-0.23,-0.14,-0.52,-0.52,-0.51
347.75,-0.34,0.15,-0.34,0.15,-0.16,-0.21,-0.12,-0.50,-0.50,-0.49
351.23,-0.33,0.13,-0.33,0.13,-0.13,-0.20,-0.09,-0.46,-0.47,-0.46
354.74,-0.33,0.11,-0.33,0.11,-0.11,-0.19,-0.06,-0.44,-0.44,-0.44
358.28,-0.32,0.10,-0.32,0.09,-0.10,-0.18,-0.04,-0.42,-0.42,-0.42
361.87,-0.31,0.08,-0.31,0.08,-0.08,-0.17,-0.01,-0.39,-0.39,-0.39
365.49,-0.29,0.07,-0.29,0.07,-0.07,-0.15,0.01,-0.36,-0.36,-0.36
369.14,-0.28,0.07,-0.28,0.06,-0.06,-0.14,0.04,-0.34,-0.34,-0.35
372.83,-0.27,0.05,-0.27,0.05,-0.05,-0.13,0.07,-0.32,-0.32,-0.32
376.56,-0.25,0.05,-0.25,0.04,-0.04,-0.12,0.09,-0.29,-0.29,-0.30
380.33,-0.24,0.02,-0.24,0.03,-0.04,-0.11,0.12,-0.28,-0.27,-0.26
384.13,-0.22,0.03,-0.22,0.03,-0.03,-0.10,0.14,-0.25,-0.25,-0.25
387.97,-0.21,0.02,-0.21,0.03,-0.03,-0.09,0.17,-0.24,-0.24,-0.23
391.85,-0.19,0.04,-0.19,0.03,-0.03,-0.08,0.19,-0.22,-0.22,-0.23
395.77,-0.17,0.03,-0.17,0.03,-0.03,-0.07,0.22,-0.20,-0.20,-0.20
399.73,-0.15,0.04,-0.15,0.04,-0.04,-0.06,0.24,-0.19,-0.19,-0.19
403.72,-0.13,0.06,-0.13,0.05,-0.06,-0.05,0.26,-0.19,-0.19,-0.19
407.76,-0.11,0.07,-0.11,0.07,-0.07,-0.04,0.29,-0.18,-0.18,-0.18
411.84,-0.09,0.08,-0.09,0.08,-0.09,-0.03,0.31,-0.18,-0.18,-0.17
415.96,-0.07,0.10,-0.06,0.10,-0.11,-0.02,0.34,-0.18,-0.17,-0.17
420.12,-0.04,0.13,-0.04,0.13,-0.12,-0.01,0.36,-0.16,-0.17,-0.17
424.32,-0.02,0.15,-0.03,0.15,-0.14,-0.01,0.38,-0.16,-0.16,-0.17
428.56,-0.02,0.15,-0.02,0.16,-0.15,0.00,0.40,-0.17,-0.17,-0.17
432.85,-0.02,0.16,-0.02,0.16,-0.15,0.01,0.42,-0.17,-0.17,-0.18
437.18,-0.03,0.15,-0.03,0.16,-0.15,0.02,0.44,-0.18,-0.18,-0.18
441.55,-0.04,0.14,-0.04,0.14,-0.14,0.03,0.46,-0.18,-0.18,-0.18
445.96,-0.06,0.13,-0.06,0.13,-0.12,0.04,0.48,-0.18,-0.19,-0.19
450.42,-0.10,0.09,-0.09,0.10,-0.10,0.05,0.50,-0.20,-0.19,-0.19
454.93,-0.12,0.07,-0.13,0.07,-0.07,0.05,0.51,-0.19,-0.19,-0.19
459.48,-0.17,0.03,-0.16,0.03,-0.03,0.06,0.53,-0.20,-0.20,-0.20
464.07,-0.20,-0.00,-0.20,-0.00,0.00,0.07,0.54,-0.20,-0.20,-0.20
468.71,-0.24,-0.04,-0.24,-0.05,0.04,0.08,0.55,-0.20,-0.20,-0.20
473.40,-0.28,-0.08,-0.27,-0.08,0.07,0.09,0.56,-0.21,-0.20,-0.20
478.13,-0.30,-0.11,-0.30,-0.11,0.10,0.09,0.57,-0.20,-0.20,-0.19
482.91,-0.32,-0.12,-0.32,-0.13,0.13,0.10,0.58,-0.19,-0.20,-0.20
487.74,-0.33,-0.14,-0.34,-0.15,0.14,0.11,0.58,-0.19,-0.19,-0.19
492.62,-0.35,-0.17,-0.35,-0.16,0.15,0.12,0.59,-0.20,-0.19,-0.18
497.55,-0.35,-0.16,-0.35,-0.17,0.16,0.12,0.59,-0.19,-0.19,-0.19
