frequency,raw,smoothed,error,error_smoothed,equalization,parametric_eq,fixed_band_eq,equalized_raw,equalized_smoothed,target
20.00,12.75,12.75,8.70,8.70,-8.70,-3.67,-2.52,4.05,4.05,4.05
20.20,12.67,12.68,8.59,8.59,-8.59,-3.67,-2.59,4.08,4.08,4.08
20.40,12.60,12.60,8.49,8.49,-8.49,-3.66,-2.67,4.11,4.11,4.11
20.61,12.52,12.52,8.39,8.39,-8.38,-3.66,-2.75,4.14,4.14,4.13
20.81,12.44,12.44,8.28,8.28,-8.28,-3.66,-2.83,4.16,4.16,4.16
21.02,12.36,12.36,8.17,8.18,-8.18,-3.66,-2.91,4.18,4.18,4.19
21.23,12.27,12.27,8.07,8.07,-8.08,-3.65,-2.99,4.19,4.19,4.20
21.44,12.19,12.19,7.98,7.98,-7.98,-3.65,-3.08,4.21,4.21,4.21
21.66,12.10,12.10,7.88,7.89,-7.89,-3.65,-3.17,4.22,4.22,4.22
21.87,12.02,12.02,7.80,7.80,-7.79,-3.64,-3.26,4.23,4.22,4.22
22.09,11.93,11.93,7.70,7.71,-7.70,-3.64,-3.35,4.23,4.23,4.23
22.31,11.84,11.84,7.61,7.61,-7.62,-3.64,-3.45,4.22,4.23,4.23
22.54,11.75,11.75,7.53,7.52,-7.53,-3.63,-3.55,4.22,4.22,4.23
22.76,11.66,11.66,7.44,7.44,-7.44,-3.63,-3.65,4.22,4.22,4.23
22.99,11.57,11.57,7.36,7.35,-7.35,-3.63,-3.76,4.22,4.22,4.21
23.22,11.48,11.48,7.27,7.27,-7.26,-3.62,-3.86,4.22,4.22,4.21
23.45,11.39,11.39,7.18,7.18,-7.17,-3.62,-3.97,4.22,4.22,4.21
23.69,11.30,11.30,7.09,7.09,-7.08,-3.62,-4.08,4.22,4.22,4.21
23.92,11.20,11.20,6.99,6.99,-6.99,-3.61,-4.20,4.21,4.21,4.21
24.16,11.11,11.11,6.89,6.89,-6.90,-3.61,-4.31,4.21,4.21,4.22
24.40,11.02,11.02,6.80,6.80,-6.81,-3.61,-4.43,4.21,4.21,4.22
24.65,10.92,10.92,6.71,6.71,-6.71,-3.60,-4.55,4.21,4.21,4.21
24.89,10.83,10.83,6.62,6.62,-6.62,-3.60,-4.67,4.21,4.21,4.21
25.14,10.74,10.74,6.53,6.53,-6.53,-3.59,-4.79,4.21,4.21,4.21
25.39,10.64,10.64,6.43,6.44,-6.44,-3.59,-4.92,4.20,4.21,4.21
25.65,10.55,10.55,6.35,6.35,-6.35,-3.58,-5.04,4.20,4.20,4.20
25.91,10.46,10.46,6.27,6.26,-6.26,-3.58,-5.16,4.20,4.20,4.19
26.16,10.36,10.37,6.17,6.17,-6.17,-3.57,-5.29,4.19,4.20,4.19
26.43,10.27,10.27,6.08,6.08,-6.08,-3.57,-5.41,4.19,4.19,4.19
26.69,10.18,10.18,5.99,5.99,-5.99,-3.56,-5.53,4.19,4.19,4.19
26.96,10.09,10.09,5.90,5.90,-5.90,-3.56,-5.65,4.19,4.19,4.19
27.23,9.99,10.00,5.80,5.81,-5.81,-3.55,-5.77,4.18,4.18,4.19
27.50,9.90,9.90,5.72,5.72,-5.72,-3.55,-5.88,4.18,4.18,4.19
27.77,9.81,9.81,5.63,5.63,-5.63,-3.54,-5.99,4.18,4.17,4.18
28.05,9.72,9.72,5.55,5.55,-5.55,-3.54,-6.09,4.17,4.17,4.17
28.33,9.63,9.63,5.47,5.46,-5.46,-3.53,-6.19,4.17,4.17,4.16
28.62,9.54,9.54,5.38,5.38,-5.38,-3.52,-6.29,4.16,4.16,4.16
28.90,9.45,9.45,5.29,5.30,-5.30,-3.52,-6.37,4.15,4.16,4.16
29.19,9.37,9.37,5.22,5.21,-5.21,-3.51,-6.45,4.16,4.15,4.15
29.48,9.28,9.28,5.12,5.13,-5.13,-3.51,-6.51,4.15,4.15,4.16
29.78,9.19,9.20,5.05,5.05,-5.05,-3.50,-6.57,4.14,4.14,4.14
30.08,9.11,9.11,4.97,4.97,-4.97,-3.49,-6.62,4.14,4.14,4.14
30.38,9.02,9.03,4.89,4.89,-4.89,-3.48,-6.66,4.13,4.13,4.13
30.68,8.94,8.94,4.81,4.81,-4.81,-3.48,-6.68,4.13,4.13,4.13
30.99,8.85,8.85,4.74,4.73,-4.73,-3.47,-6.70,4.12,4.12,4.12
31.30,8.76,8.76,4.65,4.65,-4.65,-3.46,-6.70,4.11,4.12,4.11
31.61,8.67,8.67,4.56,4.56,-4.57,-3.45,-6.69,4.11,4.11,4.11
31.93,8.58,8.58,4.48,4.48,-4.48,-3.45,-6.67,4.10,4.10,4.10
32.24,8.49,8.49,4.40,4.40,-4.40,-3.44,-6.64,4.09,4.09,4.09
32.57,8.41,8.41,4.33,4.32,-4.32,-3.43,-6.59,4.09,4.08,4.08
32.89,8.32,8.32,4.24,4.24,-4.24,-3.42,-6.54,4.08,4.08,4.08
33.22,8.23,8.23,4.16,4.16,-4.16,-3.41,-6.47,4.07,4.07,4.07
33.55,8.15,8.15,4.08,4.09,-4.09,-3.40,-6.40,4.06,4.06,4.07
33.89,8.07,8.07,4.02,4.01,-4.01,-3.39,-6.31,4.06,4.06,4.05
34.23,7.99,7.99,3.94,3.94,-3.94,-3.38,-6.23,4.05,4.05,4.05
34.57,7.90,7.91,3.86,3.87,-3.87,-3.37,-6.13,4.03,4.04,4.04
34.92,7.82,7.82,3.80,3.80,-3.80,-3.36,-6.02,4.02,4.03,4.02
35.27,7.75,7.75,3.73,3.73,-3.73,-3.35,-5.91,4.02,4.02,4.02
35.62,7.67,7.67,3.66,3.67,-3.66,-3.34,-5.80,4.01,4.01,4.01
35.97,7.60,7.60,3.61,3.60,-3.60,-3.33,-5.68,4.00,4.00,3.99
36.33,7.52,7.52,3.53,3.54,-3.53,-3.32,-5.56,3.99,3.99,3.99
36.70,7.45,7.45,3.48,3.47,-3.47,-3.30,-5.43,3.98,3.98,3.98
37.06,7.37,7.37,3.41,3.41,-3.41,-3.29,-5.31,3.96,3.96,3.96
37.43,7.30,7.30,3.34,3.35,-3.35,-3.28,-5.18,3.95,3.95,3.96
37.81,7.23,7.23,3.29,3.29,-3.29,-3.27,-5.05,3.94,3.94,3.94
38.19,7.16,7.16,3.23,3.23,-3.23,-3.25,-4.93,3.93,3.93,3.93
38.57,7.09,7.09,3.17,3.17,-3.17,-3.24,-4.80,3.92,3.92,3.92
38.95,7.03,7.03,3.12,3.12,-3.12,-3.22,-4.67,3.91,3.91,3.91
39.34,6.96,6.96,3.07,3.07,-3.06,-3.21,-4.54,3.90,3.90,3.89
39.74,6.89,6.89,3.01,3.01,-3.01,-3.19,-4.42,3.88,3.88,3.88
40.14,6.83,6.83,2.96,2.96,-2.96,-3.18,-4.30,3.88,3.87,3.87
40.54,6.76,6.76,2.90,2.90,-2.90,-3.16,-4.17,3.86,3.86,3.86
40.94,6.70,6.70,2.85,2.85,-2.85,-3.15,-4.05,3.85,3.85,3.85
41.35,6.63,6.63,2.79,2.79,-2.79,-3.13,-3.94,3.84,3.84,3.84
41.76,6.57,6.57,2.74,2.74,-2.74,-3.11,-3.82,3.83,3.83,3.83
42.18,6.51,6.51,2.69,2.69,-2.69,-3.09,-3.71,3.82,3.82,3.82
42.60,6.45,6.45,2.64,2.64,-2.64,-3.07,-3.60,3.81,3.81,3.81
43.03,6.39,6.39,2.59,2.59,-2.60,-3.05,-3.49,3.79,3.79,3.80
43.46,6.33,6.33,2.55,2.55,-2.55,-3.03,-3.38,3.78,3.78,3.78
43.90,6.27,6.27,2.52,2.51,-2.51,-3.01,-3.28,3.76,3.76,3.76
44.33,6.21,6.21,2.47,2.47,-2.47,-2.99,-3.18,3.74,3.74,3.74
44.78,6.15,6.15,2.43,2.43,-2.43,-2.97,-3.08,3.72,3.72,3.72
45.23,6.09,6.09,2.39,2.39,-2.39,-2.95,-2.98,3.70,3.70,3.70
45.68,6.04,6.04,2.36,2.35,-2.35,-2.92,-2.89,3.69,3.69,3.68
46.13,5.98,5.98,2.32,2.31,-2.31,-2.90,-2.79,3.67,3.67,3.66
46.60,5.92,5.92,2.27,2.27,-2.27,-2.87,-2.70,3.65,3.65,3.65
47.06,5.87,5.87,2.24,2.23,-2.24,-2.85,-2.62,3.64,3.63,3.63
47.53,5.81,5.81,2.20,2.20,-2.20,-2.82,-2.53,3.61,3.61,3.61
48.01,5.76,5.76,2.16,2.16,-2.17,-2.79,-2.45,3.60,3.59,3.60
48.49,5.70,5.70,2.13,2.13,-2.13,-2.77,-2.37,3.57,3.57,3.57
48.97,5.64,5.65,2.10,2.10,-2.10,-2.74,-2.29,3.54,3.54,3.54
49.46,5.59,5.59,2.08,2.08,-2.08,-2.71,-2.21,3.52,3.52,3.51
49.96,5.54,5.54,2.06,2.05,-2.05,-2.68,-2.14,3.49,3.49,3.48
50.46,5.48,5.48,2.01,2.02,-2.02,-2.64,-2.06,3.46,3.47,3.47
50.96,5.43,5.43,1.99,1.99,-1.99,-2.61,-1.99,3.44,3.44,3.44
51.47,5.37,5.37,1.96,1.96,-1.96,-2.58,-1.93,3.41,3.42,3.41
51.99,5.32,5.32,1.93,1.93,-1.93,-2.54,-1.86,3.40,3.39,3.39
52.51,5.26,5.26,1.89,1.89,-1.89,-2.51,-1.79,3.37,3.37,3.37
53.03,5.20,5.20,1.85,1.86,-1.86,-2.47,-1.73,3.34,3.34,3.35
53.56,5.15,5.15,1.83,1.82,-1.83,-2.43,-1.67,3.32,3.32,3.32
54.10,5.09,5.09,1.79,1.80,-1.80,-2.39,-1.61,3.30,3.30,3.30
54.64,5.04,5.04,1.77,1.77,-1.76,-2.35,-1.55,3.28,3.28,3.27
55.18,4.98,4.98,1.73,1.73,-1.73,-2.31,-1.49,3.25,3.25,3.25
55.74,4.92,4.92,1.70,1.70,-1.70,-2.27,-1.44,3.22,3.22,3.22
56.29,4.86,4.86,1.66,1.67,-1.67,-2.22,-1.38,3.19,3.20,3.20
56.86,4.81,4.81,1.64,1.63,-1.63,-2.18,-1.33,3.18,3.18,3.17
57.42,4.75,4.75,1.61,1.60,-1.60,-2.13,-1.28,3.15,3.15,3.15
58.00,4.69,4.69,1.57,1.57,-1.56,-2.08,-1.23,3.13,3.13,3.13
58.58,4.63,4.63,1.53,1.53,-1.53,-2.03,-1.18,3.10,3.10,3.11
59.16,4.57,4.57,1.49,1.49,-1.49,-1.98,-1.14,3.08,3.08,3.09
59.76,4.52,4.52,1.46,1.46,-1.46,-1.93,-1.09,3.06,3.06,3.06
60.35,4.46,4.46,1.43,1.42,-1.43,-1.88,-1.05,3.03,3.03,3.03
60.96,4.40,4.40,1.39,1.40,-1.40,-1.82,-1.00,3.01,3.00,3.01
61.57,4.33,4.33,1.36,1.36,-1.36,-1.77,-0.96,2.97,2.97,2.97
62.18,4.27,4.27,1.34,1.34,-1.33,-1.71,-0.92,2.94,2.94,2.93
62.80,4.21,4.21,1.30,1.31,-1.30,-1.66,-0.88,2.91,2.91,2.91
63.43,4.15,4.15,1.28,1.27,-1.27,-1.60,-0.84,2.88,2.88,2.87
64.07,4.08,4.08,1.23,1.24,-1.23,-1.54,-0.81,2.85,2.85,2.85
64.71,4.02,4.02,1.20,1.20,-1.20,-1.47,-0.77,2.82,2.82,2.82
65.35,3.95,3.95,1.16,1.16,-1.16,-1.41,-0.73,2.79,2.79,2.79
66.01,3.89,3.89,1.13,1.13,-1.13,-1.35,-0.70,2.76,2.76,2.77
66.67,3.83,3.83,1.09,1.09,-1.09,-1.29,-0.67,2.74,2.73,2.74
67.33,3.76,3.76,1.05,1.06,-1.06,-1.22,-0.63,2.71,2.71,2.71
68.01,3.69,3.70,1.01,1.02,-1.02,-1.16,-0.60,2.67,2.68,2.68
68.69,3.63,3.63,0.99,0.98,-0.98,-1.09,-0.57,2.65,2.65,2.65
69.37,3.56,3.56,0.95,0.95,-0.94,-1.03,-0.54,2.62,2.62,2.61
70.07,3.49,3.49,0.91,0.91,-0.91,-0.96,-0.51,2.58,2.58,2.58
70.77,3.42,3.42,0.86,0.87,-0.87,-0.90,-0.48,2.55,2.55,2.56
71.48,3.35,3.35,0.83,0.83,-0.83,-0.83,-0.45,2.52,2.52,2.52
72.19,3.28,3.28,0.79,0.79,-0.80,-0.77,-0.43,2.48,2.48,2.49
72.91,3.21,3.21,0.76,0.76,-0.76,-0.70,-0.40,2.45,2.45,2.45
73.64,3.14,3.14,0.73,0.72,-0.72,-0.64,-0.37,2.42,2.42,2.41
74.38,3.07,3.07,0.68,0.69,-0.69,-0.58,-0.34,2.38,2.38,2.39
75.12,3.00,3.00,0.65,0.65,-0.65,-0.51,-0.32,2.35,2.35,2.35
75.87,2.93,2.93,0.61,0.61,-0.61,-0.46,-0.29,2.32,2.32,2.32
76.63,2.86,2.86,0.57,0.57,-0.57,-0.40,-0.26,2.29,2.29,2.29
77.40,2.79,2.79,0.53,0.53,-0.53,-0.34,-0.24,2.26,2.25,2.26
78.17,2.71,2.71,0.50,0.49,-0.49,-0.29,-0.21,2.22,2.22,2.22
78.95,2.64,2.64,0.45,0.45,-0.45,-0.24,-0.19,2.19,2.19,2.19
79.74,2.57,2.57,0.41,0.41,-0.41,-0.19,-0.16,2.16,2.16,2.16
80.54,2.50,2.50,0.38,0.37,-0.37,-0.14,-0.14,2.13,2.13,2.13
81.35,2.42,2.43,0.33,0.33,-0.33,-0.10,-0.11,2.09,2.09,2.09
82.16,2.35,2.35,0.30,0.29,-0.29,-0.06,-0.08,2.06,2.06,2.06
82.98,2.28,2.28,0.25,0.26,-0.26,-0.02,-0.06,2.02,2.02,2.03
83.81,2.20,2.20,0.22,0.22,-0.22,0.02,-0.03,1.98,1.98,1.98
84.65,2.13,2.13,0.19,0.18,-0.18,0.05,-0.01,1.95,1.95,1.94
85.50,2.06,2.06,0.15,0.15,-0.15,0.08,0.02,1.91,1.91,1.92
86.35,1.99,1.99,0.11,0.11,-0.11,0.11,0.04,1.88,1.88,1.88
87.22,1.91,1.91,0.08,0.08,-0.08,0.13,0.07,1.83,1.84,1.84
88.09,1.84,1.84,0.05,0.04,-0.04,0.15,0.10,1.80,1.80,1.80
88.97,1.77,1.77,0.01,0.01,-0.01,0.17,0.12,1.76,1.76,1.76
89.86,1.70,1.70,-0.02,-0.02,0.02,0.19,0.15,1.72,1.72,1.72
90.76,1.62,1.62,-0.05,-0.05,0.05,0.20,0.18,1.67,1.68,1.67
91.66,1.55,1.55,-0.09,-0.08,0.08,0.22,0.20,1.63,1.63,1.64
92.58,1.48,1.48,-0.10,-0.11,0.11,0.23,0.23,1.59,1.59,1.59
93.51,1.41,1.41,-0.14,-0.14,0.14,0.24,0.26,1.55,1.55,1.55
94.44,1.34,1.34,-0.17,-0.16,0.16,0.24,0.28,1.50,1.50,1.51
95.39,1.27,1.27,-0.19,-0.19,0.19,0.25,0.31,1.46,1.46,1.46
96.34,1.20,1.20,-0.21,-0.21,0.21,0.25,0.34,1.41,1.41,1.41
97.30,1.13,1.13,-0.23,-0.23,0.24,0.26,0.37,1.37,1.37,1.36
98.28,1.06,1.06,-0.26,-0.26,0.26,0.26,0.39,1.32,1.32,1.32
99.26,0.99,0.99,-0.28,-0.28,0.28,0.27,0.42,1.27,1.27,1.27
100.25,0.92,0.92,-0.31,-0.31,0.30,0.27,0.45,1.22,1.22,1.23
101.25,0.85,0.85,-0.33,-0.32,0.32,0.27,0.48,1.18,1.18,1.18
102.27,0.79,0.79,-0.34,-0.34,0.35,0.27,0.51,1.14,1.13,1.13
103.29,0.72,0.72,-0.36,-0.37,0.37,0.27,0.53,1.09,1.09,1.08
104.32,0.65,0.65,-0.39,-0.39,0.39,0.27,0.56,1.04,1.04,1.04
105.37,0.58,0.58,-0.41,-0.41,0.41,0.28,0.59,0.99,0.99,1.00
106.42,0.52,0.52,-0.43,-0.43,0.43,0.28,0.61,0.95,0.95,0.95
107.48,0.45,0.45,-0.45,-0.45,0.45,0.28,0.64,0.90,0.90,0.90
108.56,0.39,0.39,-0.46,-0.46,0.46,0.28,0.67,0.85,0.85,0.85
109.64,0.32,0.32,-0.48,-0.48,0.48,0.29,0.69,0.80,0.80,0.80
110.74,0.26,0.26,-0.49,-0.49,0.49,0.29,0.72,0.75,0.75,0.75
111.85,0.20,0.20,-0.51,-0.51,0.50,0.29,0.74,0.71,0.70,0.71
112.97,0.13,0.13,-0.51,-0.52,0.51,0.30,0.76,0.65,0.65,0.64
114.10,0.07,0.07,-0.53,-0.52,0.52,0.30,0.78,0.60,0.60,0.60
115.24,0.01,0.01,-0.53,-0.53,0.53,0.31,0.80,0.55,0.54,0.54
116.39,-0.05,-0.05,-0.54,-0.54,0.54,0.32,0.82,0.49,0.49,0.49
117.55,-0.12,-0.11,-0.55,-0.55,0.55,0.32,0.84,0.43,0.44,0.43
118.73,-0.18,-0.17,-0.56,-0.56,0.56,0.33,0.86,0.38,0.39,0.38
119.92,-0.23,-0.23,-0.57,-0.57,0.57,0.34,0.87,0.34,0.34,0.34
121.12,-0.29,-0.29,-0.57,-0.58,0.58,0.34,0.89,0.29,0.29,0.29
122.33,-0.35,-0.35,-0.58,-0.58,0.59,0.35,0.90,0.24,0.24,0.23
123.55,-0.41,-0.41,-0.60,-0.59,0.59,0.36,0.91,0.18,0.19,0.19
124.79,-0.46,-0.46,-0.60,-0.60,0.60,0.37,0.92,0.14,0.14,0.14
126.03,-0.52,-0.52,-0.61,-0.61,0.60,0.38,0.93,0.08,0.09,0.09
127.29,-0.57,-0.57,-0.61,-0.61,0.61,0.39,0.94,0.04,0.03,0.04
128.57,-0.63,-0.63,-0.61,-0.61,0.61,0.40,0.94,-0.02,-0.02,-0.02
129.85,-0.68,-0.68,-0.61,-0.61,0.61,0.41,0.94,-0.07,-0.06,-0.07
131.15,-0.73,-0.73,-0.61,-0.61,0.62,0.42,0.95,-0.11,-0.11,-0.12
132.46,-0.78,-0.78,-0.61,-0.62,0.62,0.43,0.95,-0.16,-0.16,-0.16
133.79,-0.83,-0.83,-0.63,-0.62,0.62,0.44,0.95,-0.21,-0.21,-0.20
135.12,-0.88,-0.88,-0.62,-0.63,0.63,0.45,0.95,-0.25,-0.25,-0.26
136.48,-0.93,-0.93,-0.64,-0.63,0.63,0.46,0.94,-0.30,-0.30,-0.29
137.84,-0.98,-0.98,-0.64,-0.63,0.64,0.47,0.94,-0.34,-0.34,-0.34
139.22,-1.02,-1.02,-0.63,-0.64,0.64,0.48,0.93,-0.38,-0.38,-0.39
140.61,-1.07,-1.07,-0.64,-0.64,0.65,0.50,0.93,-0.42,-0.42,-0.43
142.02,-1.11,-1.11,-0.65,-0.65,0.65,0.51,0.92,-0.46,-0.46,-0.45
143.44,-1.16,-1.16,-0.66,-0.66,0.66,0.52,0.91,-0.50,-0.50,-0.50
144.87,-1.20,-1.20,-0.66,-0.66,0.66,0.53,0.91,-0.54,-0.54,-0.54
146.32,-1.24,-1.24,-0.66,-0.67,0.67,0.54,0.90,-0.57,-0.57,-0.58
147.78,-1.28,-1.28,-0.67,-0.67,0.67,0.55,0.89,-0.61,-0.61,-0.60
149.26,-1.32,-1.32,-0.68,-0.67,0.67,0.56,0.88,-0.65,-0.65,-0.64
150.75,-1.36,-1.36,-0.67,-0.68,0.67,0.57,0.87,-0.68,-0.69,-0.69
152.26,-1.40,-1.40,-0.67,-0.67,0.67,0.57,0.87,-0.73,-0.73,-0.73
153.78,-1.44,-1.44,-0.68,-0.67,0.67,0.58,0.86,-0.77,-0.77,-0.76
155.32,-1.47,-1.47,-0.66,-0.67,0.67,0.59,0.85,-0.80,-0.80,-0.81
156.88,-1.51,-1.51,-0.67,-0.66,0.66,0.60,0.84,-0.85,-0.84,-0.84
158.44,-1.54,-1.54,-0.66,-0.66,0.66,0.61,0.83,-0.88,-0.88,-0.88
160.03,-1.58,-1.58,-0.65,-0.65,0.65,0.61,0.82,-0.93,-0.92,-0.93
161.63,-1.61,-1.61,-0.64,-0.65,0.65,0.62,0.82,-0.96,-0.96,-0.97
163.24,-1.65,-1.65,-0.64,-0.64,0.64,0.63,0.81,-1.01,-1.00,-1.01
164.88,-1.68,-1.68,-0.64,-0.64,0.64,0.63,0.80,-1.04,-1.04,-1.04
166.53,-1.71,-1.71,-0.63,-0.64,0.64,0.64,0.80,-1.07,-1.08,-1.08
168.19,-1.75,-1.75,-0.63,-0.63,0.63,0.65,0.79,-1.12,-1.11,-1.11
169.87,-1.78,-1.78,-0.63,-0.63,0.63,0.65,0.79,-1.15,-1.15,-1.15
171.57,-1.82,-1.82,-0.63,-0.63,0.62,0.65,0.78,-1.19,-1.19,-1.19
173.29,-1.85,-1.85,-0.62,-0.62,0.62,0.66,0.78,-1.23,-1.23,-1.23
175.02,-1.88,-1.88,-0.62,-0.62,0.62,0.66,0.77,-1.26,-1.27,-1.26
176.77,-1.92,-1.92,-0.61,-0.61,0.61,0.67,0.77,-1.31,-1.30,-1.31
178.54,-1.95,-1.95,-0.60,-0.61,0.61,0.67,0.77,-1.34,-1.34,-1.35
180.32,-1.99,-1.99,-0.61,-0.60,0.60,0.67,0.77,-1.38,-1.38,-1.38
182.13,-2.02,-2.02,-0.60,-0.60,0.60,0.68,0.77,-1.42,-1.42,-1.42
183.95,-2.06,-2.06,-0.60,-0.60,0.60,0.68,0.76,-1.46,-1.46,-1.46
185.79,-2.09,-2.09,-0.60,-0.60,0.60,0.68,0.76,-1.49,-1.49,-1.49
187.65,-2.12,-2.12,-0.59,-0.60,0.60,0.69,0.77,-1.52,-1.53,-1.53
189.52,-2.16,-2.15,-0.60,-0.60,0.60,0.69,0.77,-1.56,-1.56,-1.56
191.42,-2.19,-2.19,-0.60,-0.60,0.60,0.69,0.77,-1.59,-1.59,-1.59
193.33,-2.22,-2.22,-0.60,-0.61,0.60,0.70,0.77,-1.62,-1.62,-1.62
195.27,-2.26,-2.25,-0.61,-0.61,0.61,0.70,0.77,-1.65,-1.65,-1.65
197.22,-2.29,-2.29,-0.61,-0.61,0.61,0.71,0.78,-1.68,-1.68,-1.67
199.19,-2.32,-2.32,-0.61,-0.62,0.62,0.71,0.78,-1.70,-1.70,-1.71
201.18,-2.36,-2.36,-0.63,-0.63,0.63,0.72,0.79,-1.73,-1.72,-1.73
203.19,-2.39,-2.39,-0.65,-0.64,0.65,0.72,0.79,-1.74,-1.75,-1.74
205.23,-2.43,-2.43,-0.66,-0.66,0.66,0.73,0.80,-1.77,-1.77,-1.77
207.28,-2.46,-2.46,-0.68,-0.68,0.68,0.74,0.81,-1.78,-1.78,-1.77
209.35,-2.50,-2.50,-0.70,-0.69,0.70,0.75,0.81,-1.80,-1.80,-1.80
211.44,-2.53,-2.53,-0.71,-0.71,0.72,0.76,0.82,-1.81,-1.81,-1.82
213.56,-2.56,-2.56,-0.73,-0.74,0.74,0.77,0.83,-1.82,-1.83,-1.83
215.69,-2.60,-2.60,-0.77,-0.76,0.76,0.78,0.84,-1.84,-1.84,-1.83
217.85,-2.63,-2.63,-0.79,-0.78,0.78,0.80,0.85,-1.85,-1.85,-1.84
220.03,-2.66,-2.66,-0.80,-0.81,0.81,0.82,0.86,-1.85,-1.85,-1.85
222.23,-2.69,-2.69,-0.82,-0.83,0.83,0.83,0.87,-1.86,-1.86,-1.87
224.45,-2.72,-2.72,-0.86,-0.86,0.86,0.85,0.88,-1.86,-1.86,-1.86
226.70,-2.75,-2.75,-0.89,-0.89,0.89,0.87,0.90,-1.86,-1.86,-1.86
228.96,-2.78,-2.78,-0.92,-0.92,0.92,0.89,0.91,-1.86,-1.86,-1.86
231.25,-2.80,-2.80,-0.95,-0.95,0.94,0.92,0.92,-1.85,-1.86,-1.85
233.57,-2.83,-2.83,-0.98,-0.97,0.97,0.94,0.94,-1.86,-1.85,-1.85
235.90,-2.85,-2.85,-1.00,-1.00,1.00,0.97,0.95,-1.85,-1.85,-1.85
238.26,-2.88,-2.88,-1.03,-1.03,1.03,0.99,0.97,-1.85,-1.84,-1.85
240.64,-2.90,-2.90,-1.06,-1.06,1.06,1.02,0.99,-1.84,-1.84,-1.84
243.05,-2.92,-2.92,-1.09,-1.09,1.09,1.05,1.00,-1.83,-1.83,-1.83
245.48,-2.94,-2.94,-1.12,-1.12,1.12,1.08,1.02,-1.82,-1.82,-1.82
247.93,-2.96,-2.96,-1.15,-1.15,1.15,1.11,1.04,-1.81,-1.81,-1.80
250.41,-2.97,-2.97,-1.17,-1.18,1.18,1.15,1.06,-1.79,-1.80,-1.80
252.92,-2.99,-2.99,-1.21,-1.21,1.21,1.18,1.08,-1.78,-1.78,-1.78
255.45,-3.00,-3.00,-1.24,-1.23,1.24,1.21,1.10,-1.76,-1.76,-1.76
258.00,-3.01,-3.01,-1.26,-1.27,1.27,1.25,1.12,-1.74,-1.74,-1.74
260.58,-3.02,-3.02,-1.29,-1.29,1.30,1.28,1.14,-1.72,-1.73,-1.73
263.19,-3.04,-3.04,-1.33,-1.32,1.33,1.32,1.17,-1.71,-1.71,-1.71
265.82,-3.05,-3.05,-1.36,-1.36,1.36,1.35,1.19,-1.69,-1.69,-1.69
268.48,-3.06,-3.06,-1.39,-1.39,1.39,1.39,1.22,-1.67,-1.67,-1.67
271.16,-3.07,-3.07,-1.42,-1.42,1.42,1.42,1.24,-1.65,-1.65,-1.65
273.87,-3.08,-3.08,-1.45,-1.45,1.45,1.46,1.27,-1.63,-1.63,-1.63
276.61,-3.09,-3.09,-1.48,-1.48,1.48,1.50,1.30,-1.61,-1.61,-1.61
279.38,-3.10,-3.10,-1.51,-1.51,1.51,1.53,1.33,-1.59,-1.59,-1.59
282.17,-3.12,-3.12,-1.54,-1.54,1.54,1.57,1.36,-1.57,-1.57,-1.58
284.99,-3.13,-3.13,-1.58,-1.58,1.58,1.60,1.39,-1.55,-1.55,-1.55
287.84,-3.15,-3.15,-1.61,-1.61,1.61,1.64,1.42,-1.54,-1.53,-1.54
290.72,-3.16,-3.16,-1.65,-1.65,1.65,1.68,1.45,-1.51,-1.52,-1.51
293.63,-3.18,-3.18,-1.68,-1.69,1.68,1.71,1.49,-1.50,-1.50,-1.50
296.57,-3.20,-3.19,-1.73,-1.72,1.72,1.75,1.53,-1.48,-1.47,-1.47
299.53,-3.21,-3.21,-1.75,-1.76,1.76,1.78,1.56,-1.45,-1.45,-1.45
302.53,-3.23,-3.23,-1.79,-1.80,1.80,1.82,1.60,-1.43,-1.43,-1.44
305.55,-3.25,-3.25,-1.85,-1.84,1.84,1.85,1.64,-1.41,-1.41,-1.40
308.61,-3.27,-3.27,-1.88,-1.89,1.88,1.89,1.68,-1.38,-1.38,-1.39
311.69,-3.29,-3.29,-1.93,-1.93,1.93,1.92,1.73,-1.36,-1.36,-1.36
314.81,-3.30,-3.30,-1.98,-1.97,1.97,1.95,1.77,-1.33,-1.33,-1.32
317.96,-3.32,-3.32,-2.01,-2.01,2.01,1.99,1.82,-1.31,-1.31,-1.31
321.14,-3.34,-3.34,-2.05,-2.05,2.05,2.02,1.87,-1.29,-1.29,-1.29
324.35,-3.36,-3.36,-2.09,-2.09,2.09,2.06,1.92,-1.27,-1.27,-1.27
327.59,-3.38,-3.38,-2.13,-2.13,2.13,2.09,1.97,-1.25,-1.25,-1.24
330.87,-3.40,-3.40,-2.17,-2.17,2.17,2.12,2.02,-1.23,-1.23,-1.23
334.18,-3.42,-3.42,-2.21,-2.21,2.21,2.15,2.08,-1.21,-1.21,-1.21
337.52,-3.44,-3.44,-2.25,-2.25,2.25,2.19,2.14,-1.19,-1.19,-1.19
340.90,-3.47,-3.47,-2.30,-2.30,2.30,2.22,2.20,-1.17,-1.17,-1.17
344.30,-3.49,-3.49,-2.34,-2.34,2.34,2.25,2.26,-1.15,-1.15,-1.15
347.75,-3.51,-3.51,-2.38,-2.38,2.38,2.28,2.32,-1.13,-1.13,-1.13
351.23,-3.53,-3.53,-2.42,-2.42,2.42,2.31,2.38,-1.11,-1.11,-1.11
354.74,-3.56,-3.56,-2.46,-2.46,2.46,2.35,2.45,-1.10,-1.09,-1.09
358.28,-3.58,-3.58,-2.50,-2.51,2.50,2.38,2.52,-1.08,-1.08,-1.08
361.87,-3.61,-3.61,-2.55,-2.54,2.54,2.41,2.59,-1.07,-1.07,-1.06
365.49,-3.63,-3.63,-2.58,-2.58,2.58,2.44,2.66,-1.05,-1.05,-1.05
369.14,-3.65,-3.65,-2.61,-2.61,2.61,2.47,2.74,-1.04,-1.04,-1.04
372.83,-3.67,-3.67,-2.64,-2.64,2.65,2.50,2.81,-1.02,-1.02,-1.02
376.56,-3.69,-3.69,-2.67,-2.68,2.68,2.53,2.89,-1.01,-1.01,-1.02
380.33,-3.71,-3.71,-2.72,-2.71,2.71,2.56,2.97,-1.00,-1.00,-0.99
384.13,-3.72,-3.72,-2.74,-2.74,2.74,2.59,3.05,-0.98,-0.98,-0.98
387.97,-3.74,-3.74,-2.77,-2.77,2.77,2.62,3.13,-0.97,-0.97,-0.97
391.85,-3.75,-3.75,-2.79,-2.79,2.79,2.65,3.22,-0.96,-0.96,-0.96
395.77,-3.76,-3.76,-2.81,-2.81,2.81,2.68,3.30,-0.94,-0.95,-0.94
399.73,-3.77,-3.77,-2.83,-2.83,2.83,2.71,3.39,-0.93,-0.93,-0.94
403.72,-3.78,-3.78,-2.85,-2.85,2.85,2.74,3.47,-0.93,-0.93,-0.93
407.76,-3.79,-3.79,-2.87,-2.87,2.87,2.77,3.56,-0.92,-0.92,-0.92
411.84,-3.79,-3.79,-2.89,-2.89,2.88,2.80,3.65,-0.90,-0.91,-0.90
415.96,-3.79,-3.79,-2.90,-2.90,2.90,2.83,3.74,-0.89,-0.89,-0.89
420.12,-3.79,-3.79,-2.91,-2.91,2.91,2.85,3.82,-0.88,-0.88,-0.88
424.32,-3.79,-3.79,-2.92,-2.92,2.92,2.88,3.91,-0.87,-0.87,-0.87
428.56,-3.79,-3.79,-2.92,-2.92,2.92,2.91,3.99,-0.87,-0.87,-0.86
432.85,-3.79,-3.79,-2.93,-2.93,2.93,2.94,4.07,-0.86,-0.86,-0.86
437.18,-3.78,-3.78,-2.93,-2.94,2.94,2.96,4.15,-0.84,-0.84,-0.85
441.55,-3.78,-3.77,-2.95,-2.94,2.95,2.99,4.23,-0.83,-0.83,-0.83
445.96,-3.77,-3.77,-2.95,-2.95,2.96,3.02,4.30,-0.81,-0.81,-0.82
450.42,-3.77,-3.77,-2.96,-2.97,2.97,3.04,4.37,-0.80,-0.80,-0.81
454.93,-3.78,-3.78,-2.99,-2.98,2.99,3.07,4.44,-0.79,-0.79,-0.79
459.48,-3.79,-3.79,-3.01,-3.01,3.01,3.09,4.50,-0.78,-0.78,-0.78
464.07,-3.79,-3.79,-3.03,-3.03,3.03,3.12,4.56,-0.76,-0.77,-0.76
468.71,-3.80,-3.80,-3.06,-3.05,3.05,3.14,4.61,-0.75,-0.75,-0.74
473.40,-3.80,-3.80,-3.07,-3.07,3.07,3.16,4.65,-0.73,-0.73,-0.73
478.13,-3.81,-3.81,-3.10,-3.09,3.09,3.18,4.68,-0.72,-0.72,-0.71
482.91,-3.82,-3.81,-3.11,-3.11,3.11,3.21,4.71,-0.70,-0.70,-0.70
487.74,-3.82,-3.82,-3.13,-3.14,3.14,3.23,4.73,-0.68,-0.69,-0.69
492.62,-3.83,-3.83,-3.16,-3.16,3.16,3.25,4.75,-0.67,-0.67,-0.67
497.55,-3.84,-3.83,-3.18,-3.18,3.18,3.27,4.75,-0.66,-0.65,-0.66
