frequency,raw,error,smoothed,error_smoothed,equalization,parametric_eq,equalized_raw,equalized_smoothed,target
20,4.92,0.54,4.89,0.51,-0.51,-0.45,4.41,4.38,4.38
21,4.98,0.60,4.96,0.58,-0.58,-0.52,4.40,4.38,4.38
22,5.01,0.63,5.03,0.65,-0.65,-0.60,4.36,4.38,4.38
23,5.06,0.69,5.09,0.71,-0.71,-0.68,4.35,4.38,4.38
24,5.11,0.74,5.15,0.77,-0.77,-0.77,4.34,4.37,4.37
25,5.17,0.80,5.20,0.83,-0.83,-0.86,4.34,4.37,4.37
26,5.23,0.86,5.25,0.88,-0.88,-0.95,4.35,4.37,4.37
27,5.27,0.91,5.29,0.93,-0.93,-1.04,4.34,4.36,4.36
28,5.32,0.96,5.34,0.98,-0.98,-1.11,4.34,4.36,4.36
29,5.37,1.02,5.37,1.02,-1.02,-1.17,4.35,4.35,4.35
30,5.43,1.08,5.41,1.06,-1.06,-1.22,4.37,4.35,4.35
31,5.48,1.14,5.43,1.09,-1.09,-1.25,4.39,4.34,4.34
32,5.50,1.16,5.46,1.12,-1.12,-1.26,4.38,4.34,4.34
33,5.50,1.17,5.47,1.14,-1.14,-1.25,4.36,4.33,4.33
34,5.50,1.18,5.49,1.16,-1.16,-1.24,4.34,4.33,4.33
35,5.50,1.18,5.49,1.17,-1.17,-1.22,4.33,4.32,4.32
36,5.49,1.18,5.50,1.19,-1.19,-1.19,4.31,4.31,4.31
37,5.49,1.19,5.50,1.20,-1.20,-1.16,4.30,4.30,4.30
38,5.48,1.19,5.49,1.20,-1.20,-1.13,4.28,4.29,4.29
39,5.46,1.18,5.49,1.21,-1.21,-1.10,4.25,4.28,4.28
40,5.45,1.18,5.49,1.22,-1.22,-1.08,4.23,4.27,4.27
41,5.45,1.19,5.49,1.23,-1.23,-1.06,4.22,4.26,4.26
42,5.46,1.21,5.48,1.24,-1.24,-1.05,4.22,4.25,4.25
43,5.47,1.24,5.48,1.25,-1.25,-1.03,4.22,4.23,4.23
44,5.48,1.26,5.48,1.26,-1.26,-1.03,4.22,4.22,4.22
45,5.49,1.28,5.47,1.27,-1.27,-1.03,4.22,4.21,4.21
46,5.49,1.30,5.47,1.28,-1.28,-1.03,4.21,4.19,4.19
47,5.48,1.31,5.46,1.28,-1.28,-1.04,4.20,4.17,4.17
48,5.47,1.31,5.44,1.29,-1.29,-1.04,4.18,4.16,4.16
49,5.45,1.31,5.43,1.29,-1.29,-1.06,4.16,4.14,4.14
50,5.42,1.30,5.41,1.29,-1.29,-1.07,4.13,4.12,4.12
51,5.39,1.29,5.39,1.29,-1.29,-1.09,4.11,4.10,4.10
52,5.36,1.28,5.36,1.28,-1.28,-1.11,4.08,4.08,4.08
53,5.33,1.27,5.33,1.28,-1.28,-1.12,4.06,4.06,4.06
54,5.30,1.27,5.31,1.27,-1.27,-1.14,4.03,4.04,4.04
55,5.27,1.26,5.28,1.27,-1.27,-1.16,4.00,4.01,4.01
56,5.24,1.25,5.25,1.26,-1.26,-1.18,3.98,3.99,3.99
57,5.21,1.25,5.23,1.27,-1.27,-1.20,3.95,3.96,3.96
58,5.18,1.24,5.20,1.27,-1.27,-1.21,3.91,3.94,3.94
59,5.15,1.24,5.18,1.27,-1.27,-1.23,3.88,3.91,3.91
60,5.13,1.25,5.16,1.28,-1.28,-1.24,3.85,3.88,3.88
61,5.12,1.27,5.14,1.29,-1.29,-1.25,3.83,3.85,3.85
62,5.11,1.29,5.12,1.30,-1.30,-1.26,3.81,3.82,3.82
63,5.11,1.32,5.10,1.31,-1.31,-1.26,3.80,3.79,3.79
64,5.11,1.35,5.07,1.31,-1.31,-1.27,3.80,3.76,3.76
65,5.09,1.36,5.05,1.32,-1.32,-1.27,3.77,3.73,3.73
66,5.05,1.36,5.02,1.32,-1.32,-1.27,3.73,3.69,3.70
67,5.01,1.35,4.98,1.32,-1.32,-1.27,3.69,3.66,3.66
68,4.96,1.33,4.94,1.32,-1.32,-1.27,3.64,3.63,3.63
69,4.90,1.31,4.90,1.31,-1.31,-1.26,3.59,3.59,3.59
70,4.84,1.29,4.86,1.30,-1.30,-1.26,3.54,3.56,3.56
71,4.79,1.27,4.81,1.29,-1.29,-1.26,3.50,3.52,3.52
72,4.74,1.26,4.76,1.28,-1.28,-1.25,3.47,3.48,3.48
73,4.69,1.25,4.70,1.26,-1.26,-1.25,3.43,3.44,3.44
74,4.65,1.25,4.65,1.25,-1.25,-1.25,3.40,3.41,3.41
75,4.61,1.24,4.60,1.23,-1.23,-1.25,3.38,3.37,3.37
76,4.55,1.22,4.55,1.22,-1.22,-1.24,3.33,3.33,3.33
77,4.49,1.20,4.50,1.21,-1.21,-1.24,3.28,3.29,3.29
78,4.44,1.19,4.45,1.20,-1.20,-1.24,3.24,3.25,3.25
79,4.39,1.18,4.40,1.19,-1.19,-1.25,3.20,3.21,3.21
80,4.35,1.18,4.35,1.19,-1.19,-1.25,3.16,3.17,3.17
81,4.31,1.19,4.31,1.18,-1.18,-1.25,3.13,3.13,3.13
82,4.27,1.19,4.26,1.18,-1.18,-1.26,3.09,3.08,3.08
83,4.22,1.18,4.22,1.18,-1.18,-1.26,3.05,3.04,3.04
84,4.18,1.18,4.18,1.17,-1.17,-1.27,3.01,3.00,3.00
85,4.14,1.18,4.13,1.17,-1.17,-1.28,2.97,2.96,2.96
86,4.09,1.17,4.09,1.17,-1.17,-1.29,2.92,2.92,2.92
87,4.05,1.17,4.05,1.18,-1.18,-1.30,2.87,2.88,2.88
88,4.01,1.18,4.02,1.18,-1.18,-1.32,2.83,2.84,2.84
89,3.98,1.19,3.98,1.19,-1.19,-1.33,2.79,2.79,2.79
90,3.94,1.19,3.95,1.19,-1.19,-1.35,2.75,2.75,2.75
91,3.90,1.19,3.91,1.20,-1.20,-1.36,2.70,2.71,2.71
92,3.88,1.21,3.88,1.21,-1.21,-1.38,2.67,2.67,2.67
93,3.84,1.21,3.85,1.22,-1.22,-1.40,2.62,2.63,2.63
94,3.82,1.23,3.82,1.23,-1.23,-1.42,2.59,2.59,2.59
95,3.79,1.24,3.80,1.25,-1.25,-1.44,2.54,2.55,2.55
96,3.77,1.26,3.77,1.26,-1.26,-1.46,2.51,2.51,2.51
97,3.76,1.29,3.74,1.27,-1.27,-1.48,2.49,2.47,2.47
98,3.73,1.30,3.71,1.29,-1.29,-1.50,2.44,2.43,2.43
99,3.71,1.32,3.69,1.30,-1.30,-1.52,2.41,2.38,2.39
100,3.68,1.33,3.66,1.32,-1.32,-1.55,2.36,2.34,2.35
101,3.64,1.33,3.64,1.34,-1.34,-1.57,2.30,2.30,2.31
102,3.61,1.34,3.61,1.35,-1.35,-1.59,2.26,2.26,2.27
104,3.55,1.35,3.59,1.37,-1.37,-1.64,2.18,2.22,2.20
105,3.54,1.38,3.57,1.39,-1.39,-1.66,2.15,2.18,2.16
106,3.53,1.40,3.55,1.41,-1.41,-1.69,2.12,2.14,2.13
107,3.52,1.43,3.53,1.43,-1.43,-1.71,2.09,2.10,2.09
108,3.52,1.46,3.52,1.45,-1.45,-1.73,2.07,2.06,2.06
109,3.51,1.49,3.50,1.47,-1.47,-1.75,2.04,2.03,2.02
110,3.50,1.51,3.48,1.50,-1.50,-1.77,2.01,1.99,1.99
111,3.49,1.53,3.47,1.52,-1.52,-1.79,1.97,1.95,1.96
112,3.47,1.55,3.46,1.54,-1.54,-1.81,1.93,1.92,1.92
113,3.46,1.57,3.44,1.56,-1.56,-1.83,1.90,1.88,1.89
114,3.43,1.57,3.43,1.58,-1.58,-1.85,1.85,1.85,1.86
115,3.42,1.59,3.42,1.60,-1.60,-1.86,1.82,1.81,1.83
117,3.38,1.61,3.40,1.62,-1.62,-1.89,1.76,1.78,1.77
118,3.36,1.62,3.39,1.65,-1.65,-1.90,1.72,1.75,1.74
119,3.35,1.64,3.38,1.67,-1.67,-1.91,1.68,1.71,1.71
120,3.35,1.67,3.37,1.69,-1.69,-1.92,1.66,1.68,1.68
121,3.35,1.70,3.35,1.71,-1.71,-1.93,1.64,1.64,1.65
123,3.35,1.75,3.34,1.73,-1.73,-1.94,1.62,1.61,1.60
124,3.36,1.79,3.33,1.75,-1.75,-1.94,1.61,1.58,1.57
125,3.35,1.80,3.32,1.77,-1.77,-1.94,1.58,1.55,1.55
126,3.34,1.82,3.30,1.79,-1.79,-1.94,1.55,1.52,1.52
128,3.30,1.83,3.29,1.80,-1.80,-1.94,1.50,1.48,1.47
129,3.26,1.81,3.27,1.82,-1.82,-1.93,1.44,1.45,1.45
130,3.23,1.80,3.26,1.83,-1.83,-1.93,1.40,1.43,1.43
131,3.22,1.82,3.24,1.84,-1.84,-1.92,1.38,1.40,1.41
133,3.19,1.83,3.23,1.86,-1.86,-1.91,1.33,1.37,1.36
134,3.20,1.86,3.21,1.87,-1.87,-1.90,1.33,1.34,1.34
135,3.21,1.89,3.20,1.88,-1.88,-1.89,1.33,1.31,1.32
137,3.20,1.92,3.18,1.90,-1.90,-1.86,1.30,1.29,1.28
138,3.19,1.93,3.17,1.91,-1.91,-1.85,1.28,1.26,1.26
140,3.16,1.94,3.16,1.93,-1.93,-1.83,1.23,1.23,1.22
141,3.14,1.93,3.15,1.94,-1.94,-1.81,1.20,1.21,1.21
142,3.13,1.94,3.14,1.96,-1.96,-1.80,1.17,1.18,1.19
144,3.11,1.96,3.13,1.97,-1.97,-1.77,1.14,1.16,1.15
145,3.10,1.96,3.12,1.99,-1.99,-1.75,1.11,1.13,1.14
147,3.10,1.99,3.11,2.00,-2.00,-1.73,1.10,1.11,1.11
148,3.11,2.02,3.10,2.01,-2.01,-1.71,1.10,1.09,1.09
150,3.11,2.05,3.09,2.02,-2.02,-1.68,1.09,1.07,1.06
151,3.11,2.06,3.08,2.03,-2.03,-1.67,1.08,1.05,1.05
153,3.09,2.07,3.06,2.04,-2.04,-1.64,1.05,1.02,1.02
154,3.06,2.05,3.05,2.04,-2.04,-1.62,1.02,1.00,1.01
156,3.02,2.04,3.03,2.05,-2.05,-1.60,0.97,0.99,0.98
157,3.00,2.03,3.02,2.05,-2.05,-1.59,0.95,0.97,0.97
159,2.96,2.01,3.00,2.05,-2.05,-1.56,0.91,0.95,0.95
160,2.95,2.02,2.98,2.05,-2.05,-1.55,0.90,0.93,0.93
162,2.94,2.03,2.96,2.04,-2.04,-1.53,0.90,0.91,0.91
164,2.94,2.05,2.93,2.04,-2.04,-1.51,0.90,0.90,0.89
165,2.92,2.04,2.91,2.03,-2.03,-1.50,0.89,0.88,0.88
167,2.91,2.05,2.88,2.02,-2.02,-1.48,0.89,0.86,0.86
169,2.87,2.03,2.85,2.01,-2.01,-1.46,0.86,0.85,0.84
170,2.85,2.02,2.82,1.99,-1.99,-1.45,0.86,0.83,0.83
172,2.80,1.98,2.79,1.98,-1.98,-1.44,0.83,0.82,0.82
174,2.75,1.95,2.76,1.96,-1.96,-1.43,0.79,0.80,0.80
175,2.73,1.94,2.73,1.94,-1.94,-1.42,0.79,0.79,0.79
177,2.68,1.90,2.69,1.92,-1.92,-1.41,0.76,0.77,0.78
179,2.63,1.87,2.66,1.89,-1.89,-1.40,0.74,0.76,0.76
181,2.59,1.84,2.62,1.87,-1.87,-1.40,0.72,0.75,0.75
183,2.55,1.82,2.58,1.85,-1.85,-1.39,0.70,0.74,0.73
184,2.53,1.80,2.55,1.82,-1.82,-1.39,0.71,0.72,0.73
186,2.52,1.81,2.51,1.80,-1.80,-1.39,0.73,0.71,0.71
188,2.50,1.80,2.47,1.77,-1.77,-1.38,0.73,0.70,0.70
190,2.46,1.77,2.43,1.74,-1.74,-1.38,0.72,0.69,0.69
192,2.42,1.74,2.39,1.71,-1.71,-1.38,0.71,0.68,0.68
194,2.37,1.70,2.34,1.67,-1.67,-1.38,0.70,0.67,0.67
196,2.31,1.65,2.30,1.64,-1.64,-1.39,0.67,0.66,0.66
198,2.25,1.60,2.26,1.61,-1.61,-1.39,0.64,0.65,0.65
200,2.20,1.56,2.21,1.57,-1.57,-1.39,0.63,0.64,0.64
202,2.15,1.52,2.17,1.54,-1.54,-1.40,0.61,0.63,0.63
204,2.10,1.48,2.13,1.51,-1.51,-1.40,0.59,0.62,0.62
206,2.07,1.46,2.09,1.48,-1.48,-1.40,0.59,0.62,0.61
208,2.03,1.42,2.06,1.45,-1.45,-1.41,0.58,0.61,0.61
210,2.01,1.41,2.02,1.42,-1.42,-1.41,0.59,0.60,0.60
212,1.98,1.39,1.99,1.40,-1.40,-1.42,0.58,0.59,0.59
214,1.96,1.38,1.96,1.37,-1.37,-1.43,0.59,0.59,0.59
216,1.94,1.36,1.93,1.35,-1.35,-1.43,0.59,0.58,0.58
218,1.93,1.36,1.90,1.33,-1.33,-1.44,0.60,0.57,0.57
221,1.90,1.34,1.88,1.31,-1.31,-1.44,0.59,0.57,0.56
223,1.87,1.31,1.85,1.29,-1.29,-1.45,0.58,0.56,0.56
225,1.84,1.29,1.83,1.27,-1.27,-1.45,0.57,0.55,0.55
227,1.80,1.25,1.80,1.26,-1.26,-1.45,0.55,0.55,0.55
229,1.77,1.23,1.78,1.24,-1.24,-1.45,0.53,0.54,0.54
232,1.74,1.21,1.76,1.22,-1.22,-1.45,0.52,0.54,0.54
234,1.72,1.19,1.74,1.20,-1.20,-1.45,0.52,0.53,0.53
236,1.71,1.18,1.72,1.19,-1.19,-1.45,0.52,0.53,0.53
239,1.69,1.17,1.70,1.18,-1.18,-1.45,0.51,0.52,0.52
241,1.68,1.16,1.68,1.17,-1.17,-1.44,0.52,0.52,0.52
244,1.66,1.15,1.67,1.16,-1.16,-1.44,0.50,0.51,0.51
246,1.66,1.15,1.66,1.15,-1.15,-1.43,0.51,0.51,0.51
248,1.65,1.15,1.65,1.14,-1.14,-1.42,0.51,0.50,0.50
251,1.64,1.14,1.64,1.14,-1.14,-1.41,0.50,0.50,0.50
253,1.63,1.14,1.63,1.14,-1.14,-1.40,0.49,0.49,0.50
256,1.63,1.14,1.63,1.14,-1.14,-1.38,0.49,0.49,0.49
259,1.62,1.13,1.63,1.14,-1.14,-1.36,0.48,0.49,0.49
261,1.62,1.14,1.62,1.14,-1.14,-1.34,0.48,0.48,0.48
264,1.62,1.14,1.62,1.14,-1.14,-1.32,0.48,0.48,0.48
266,1.62,1.14,1.62,1.14,-1.14,-1.30,0.48,0.48,0.48
269,1.62,1.15,1.62,1.15,-1.15,-1.28,0.47,0.47,0.47
272,1.62,1.15,1.62,1.15,-1.15,-1.25,0.47,0.47,0.47
274,1.62,1.15,1.62,1.15,-1.15,-1.23,0.47,0.47,0.47
277,1.61,1.15,1.62,1.15,-1.15,-1.20,0.46,0.46,0.46
280,1.61,1.15,1.62,1.15,-1.15,-1.17,0.46,0.46,0.46
283,1.61,1.15,1.61,1.15,-1.15,-1.14,0.46,0.46,0.46
286,1.61,1.15,1.61,1.15,-1.15,-1.10,0.46,0.46,0.46
288,1.60,1.15,1.61,1.15,-1.15,-1.08,0.45,0.45,0.45
291,1.60,1.15,1.60,1.15,-1.15,-1.05,0.45,0.45,0.45
294,1.59,1.14,1.59,1.14,-1.14,-1.02,0.45,0.45,0.45
297,1.58,1.13,1.58,1.13,-1.13,-0.98,0.45,0.45,0.45
300,1.57,1.13,1.57,1.12,-1.12,-0.95,0.45,0.45,0.45
303,1.55,1.11,1.55,1.11,-1.11,-0.92,0.44,0.44,0.44
306,1.53,1.09,1.53,1.09,-1.09,-0.88,0.44,0.44,0.44
309,1.51,1.07,1.51,1.07,-1.07,-0.85,0.44,0.44,0.44
312,1.48,1.04,1.48,1.04,-1.04,-0.82,0.44,0.44,0.44
316,1.44,1.01,1.45,1.01,-1.01,-0.77,0.43,0.44,0.44
319,1.41,0.98,1.41,0.98,-0.98,-0.74,0.43,0.43,0.43
322,1.38,0.95,1.37,0.94,-0.94,-0.71,0.44,0.43,0.43
325,1.34,0.91,1.33,0.90,-0.90,-0.68,0.44,0.43,0.43
328,1.30,0.87,1.28,0.85,-0.85,-0.65,0.45,0.43,0.43
332,1.23,0.80,1.23,0.80,-0.80,-0.61,0.43,0.43,0.43
335,1.18,0.75,1.18,0.75,-0.75,-0.58,0.43,0.43,0.43
338,1.13,0.71,1.12,0.69,-0.69,-0.55,0.44,0.43,0.43
342,1.06,0.64,1.06,0.63,-0.63,-0.51,0.43,0.42,0.42
345,1.00,0.58,1.00,0.57,-0.57,-0.49,0.43,0.42,0.42
349,0.92,0.50,0.93,0.51,-0.51,-0.45,0.41,0.42,0.42
352,0.86,0.44,0.86,0.44,-0.44,-0.42,0.42,0.42,0.42
356,0.78,0.36,0.80,0.38,-0.38,-0.39,0.40,0.42,0.42
359,0.72,0.30,0.73,0.31,-0.31,-0.36,0.41,0.42,0.42
363,0.65,0.23,0.66,0.24,-0.24,-0.33,0.41,0.42,0.42
366,0.59,0.18,0.59,0.17,-0.17,-0.31,0.42,0.42,0.42
370,0.52,0.11,0.52,0.11,-0.11,-0.27,0.42,0.41,0.41
374,0.45,0.04,0.45,0.04,-0.04,-0.24,0.41,0.41,0.41
377,0.40,-0.01,0.38,-0.03,0.03,-0.22,0.43,0.41,0.41
381,0.33,-0.08,0.32,-0.09,0.09,-0.19,0.42,0.41,0.41
385,0.26,-0.15,0.25,-0.15,0.15,-0.16,0.41,0.41,0.41
389,0.19,-0.22,0.19,-0.21,0.21,-0.13,0.40,0.41,0.41
393,0.12,-0.28,0.13,-0.27,0.27,-0.10,0.39,0.41,0.41
397,0.06,-0.34,0.08,-0.33,0.33,-0.08,0.39,0.40,0.40
401,0.00,-0.40,0.02,-0.38,0.38,-0.05,0.38,0.40,0.40
405,-0.05,-0.45,-0.03,-0.43,0.43,-0.02,0.38,0.40,0.40
409,-0.09,-0.49,-0.08,-0.48,0.48,0.00,0.39,0.40,0.40
413,-0.13,-0.53,-0.13,-0.53,0.53,0.03,0.40,0.40,0.40
417,-0.16,-0.56,-0.17,-0.57,0.57,0.05,0.42,0.40,0.40
421,-0.19,-0.59,-0.22,-0.62,0.62,0.08,0.43,0.40,0.40
425,-0.22,-0.62,-0.25,-0.65,0.65,0.10,0.43,0.40,0.40
430,-0.26,-0.66,-0.29,-0.69,0.69,0.13,0.43,0.40,0.40
434,-0.30,-0.70,-0.32,-0.72,0.72,0.16,0.42,0.40,0.40
438,-0.33,-0.73,-0.34,-0.74,0.74,0.18,0.41,0.40,0.40
443,-0.39,-0.80,-0.36,-0.76,0.76,0.21,0.37,0.41,0.41
447,-0.43,-0.84,-0.37,-0.78,0.78,0.23,0.35,0.41,0.41
451,-0.43,-0.84,-0.37,-0.79,0.79,0.25,0.36,0.42,0.41
456,-0.41,-0.83,-0.37,-0.79,0.79,0.28,0.38,0.42,0.42
460,-0.39,-0.82,-0.36,-0.78,0.78,0.30,0.39,0.43,0.43
465,-0.34,-0.77,-0.34,-0.78,0.78,0.32,0.44,0.43,0.43
470,-0.29,-0.73,-0.32,-0.76,0.76,0.35,0.47,0.44,0.44
474,-0.27,-0.72,-0.30,-0.75,0.75,0.37,0.48,0.45,0.45
479,-0.23,-0.69,-0.27,-0.73,0.73,0.39,0.50,0.46,0.46
484,-0.21,-0.68,-0.24,-0.71,0.71,0.41,0.50,0.47,0.47
489,-0.21,-0.69,-0.21,-0.69,0.69,0.43,0.48,0.48,0.48
494,-0.19,-0.69,-0.18,-0.67,0.67,0.46,0.48,0.50,0.50
499,-0.16,-0.67,-0.15,-0.66,0.66,0.48,0.50,0.51,0.51
504,-0.13,-0.65,-0.12,-0.64,0.64,0.50,0.51,0.53,0.53
509,-0.10,-0.64,-0.09,-0.63,0.63,0.52,0.53,0.54,0.54
514,-0.06,-0.62,-0.06,-0.62,0.62,0.54,0.56,0.56,0.56
519,-0.02,-0.60,-0.04,-0.62,0.62,0.56,0.60,0.58,0.58
524,0.00,-0.60,-0.02,-0.62,0.62,0.58,0.62,0.60,0.60
529,0.02,-0.60,0.00,-0.62,0.62,0.60,0.64,0.62,0.62
535,0.05,-0.59,0.02,-0.62,0.62,0.62,0.67,0.64,0.64
540,0.06,-0.60,0.03,-0.63,0.63,0.64,0.69,0.66,0.66
545,0.07,-0.61,0.05,-0.64,0.64,0.66,0.71,0.69,0.69
551,0.07,-0.64,0.07,-0.64,0.64,0.68,0.71,0.71,0.71
556,0.08,-0.65,0.09,-0.65,0.65,0.70,0.73,0.73,0.73
562,0.09,-0.67,0.11,-0.65,0.65,0.73,0.74,0.76,0.76
568,0.11,-0.68,0.14,-0.64,0.64,0.75,0.75,0.79,0.79
573,0.14,-0.67,0.18,-0.63,0.63,0.77,0.77,0.81,0.81
579,0.17,-0.67,0.22,-0.62,0.62,0.79,0.79,0.84,0.84
585,0.22,-0.65,0.27,-0.60,0.60,0.81,0.82,0.87,0.87
591,0.27,-0.63,0.33,-0.57,0.57,0.84,0.84,0.90,0.90
596,0.33,-0.60,0.38,-0.55,0.55,0.86,0.88,0.93,0.93
602,0.39,-0.57,0.44,-0.52,0.52,0.88,0.91,0.96,0.96
608,0.47,-0.52,0.49,-0.50,0.50,0.91,0.97,0.99,0.99
615,0.56,-0.46,0.54,-0.49,0.49,0.94,1.05,1.02,1.02
621,0.63,-0.43,0.57,-0.49,0.49,0.96,1.12,1.06,1.06
627,0.69,-0.40,0.59,-0.50,0.50,0.99,1.19,1.09,1.09
633,0.72,-0.40,0.60,-0.53,0.53,1.01,1.25,1.12,1.12
639,0.72,-0.44,0.59,-0.57,0.57,1.04,1.29,1.16,1.16
646,0.67,-0.52,0.56,-0.63,0.63,1.07,1.30,1.19,1.19
652,0.61,-0.62,0.52,-0.71,0.71,1.10,1.32,1.23,1.23
659,0.50,-0.76,0.47,-0.79,0.79,1.14,1.29,1.26,1.26
665,0.41,-0.89,0.42,-0.88,0.88,1.17,1.29,1.30,1.30
672,0.31,-1.02,0.36,-0.97,0.97,1.20,1.28,1.33,1.33
679,0.23,-1.14,0.31,-1.06,1.06,1.24,1.29,1.37,1.37
686,0.19,-1.22,0.27,-1.14,1.14,1.27,1.33,1.41,1.41
692,0.17,-1.27,0.24,-1.20,1.20,1.31,1.37,1.45,1.45
699,0.16,-1.32,0.23,-1.25,1.25,1.34,1.41,1.48,1.48
706,0.18,-1.34,0.24,-1.28,1.28,1.38,1.46,1.52,1.52
713,0.20,-1.36,0.27,-1.29,1.29,1.42,1.49,1.56,1.56
721,0.25,-1.35,0.31,-1.28,1.28,1.47,1.53,1.60,1.60
728,0.32,-1.31,0.38,-1.26,1.26,1.51,1.58,1.64,1.64
735,0.41,-1.26,0.46,-1.22,1.22,1.55,1.63,1.67,1.67
742,0.52,-1.19,0.55,-1.16,1.16,1.59,1.68,1.71,1.71
750,0.65,-1.10,0.64,-1.11,1.11,1.64,1.76,1.75,1.75
757,0.77,-1.02,0.74,-1.04,1.04,1.69,1.81,1.79,1.79
765,0.89,-0.93,0.84,-0.98,0.98,1.74,1.88,1.82,1.82
773,1.01,-0.85,0.93,-0.93,0.93,1.79,1.94,1.86,1.86
780,1.08,-0.81,1.01,-0.88,0.88,1.83,1.96,1.90,1.90
788,1.15,-0.78,1.09,-0.84,0.84,1.88,2.00,1.93,1.93
796,1.19,-0.78,1.15,-0.82,0.82,1.93,2.01,1.97,1.97
804,1.21,-0.79,1.20,-0.81,0.81,1.99,2.02,2.00,2.00
812,1.23,-0.80,1.23,-0.80,0.80,2.04,2.04,2.03,2.04
820,1.23,-0.84,1.25,-0.82,0.82,2.09,2.05,2.07,2.07
828,1.22,-0.88,1.26,-0.84,0.84,2.14,2.06,2.10,2.10
837,1.21,-0.92,1.25,-0.88,0.88,2.19,2.09,2.13,2.13
845,1.19,-0.97,1.23,-0.94,0.94,2.24,2.13,2.16,2.16
853,1.17,-1.02,1.19,-1.00,1.00,2.29,2.17,2.19,2.20
862,1.15,-1.07,1.14,-1.09,1.09,2.34,2.24,2.23,2.23
871,1.11,-1.14,1.07,-1.19,1.19,2.39,2.30,2.25,2.26
879,1.06,-1.22,0.98,-1.30,1.30,2.43,2.36,2.28,2.28
888,0.98,-1.33,0.88,-1.43,1.43,2.48,2.41,2.31,2.31
897,0.88,-1.46,0.77,-1.57,1.57,2.52,2.45,2.34,2.34
906,0.77,-1.60,0.65,-1.72,1.72,2.56,2.49,2.37,2.37
915,0.62,-1.78,0.53,-1.87,1.87,2.60,2.49,2.40,2.40
924,0.47,-1.95,0.41,-2.02,2.02,2.63,2.49,2.42,2.42
933,0.30,-2.15,0.29,-2.16,2.16,2.67,2.46,2.45,2.45
943,0.13,-2.35,0.20,-2.28,2.28,2.70,2.41,2.48,2.48
952,0.01,-2.49,0.12,-2.38,2.38,2.72,2.39,2.50,2.50
962,-0.11,-2.64,0.07,-2.46,2.46,2.75,2.35,2.53,2.53
971,-0.17,-2.73,0.05,-2.51,2.51,2.76,2.34,2.56,2.56
981,-0.15,-2.73,0.06,-2.52,2.52,2.78,2.37,2.58,2.58
991,-0.10,-2.71,0.10,-2.51,2.51,2.79,2.41,2.61,2.61
1001,0.01,-2.63,0.17,-2.47,2.47,2.79,2.48,2.64,2.64
1011,0.19,-2.47,0.25,-2.41,2.41,2.79,2.60,2.66,2.66
1021,0.36,-2.33,0.35,-2.34,2.34,2.79,2.70,2.69,2.69
1031,0.54,-2.18,0.45,-2.27,2.27,2.79,2.81,2.72,2.72
1041,0.69,-2.06,0.55,-2.20,2.20,2.78,2.89,2.75,2.75
1052,0.82,-1.95,0.64,-2.14,2.14,2.76,2.96,2.77,2.77
1062,0.90,-1.90,0.70,-2.10,2.10,2.74,3.00,2.80,2.80
1073,0.92,-1.91,0.75,-2.09,2.09,2.72,3.01,2.83,2.83
1084,0.89,-1.97,0.76,-2.10,2.10,2.70,2.99,2.86,2.86
1094,0.84,-2.05,0.76,-2.13,2.13,2.67,2.97,2.89,2.89
1105,0.75,-2.17,0.72,-2.20,2.20,2.64,2.95,2.92,2.92
1116,0.65,-2.30,0.67,-2.28,2.28,2.61,2.93,2.95,2.95
1128,0.54,-2.44,0.60,-2.38,2.38,2.57,2.92,2.98,2.98
1139,0.44,-2.57,0.51,-2.50,2.50,2.54,2.94,3.01,3.01
1150,0.34,-2.70,0.42,-2.62,2.62,2.50,2.96,3.04,3.04
1162,0.25,-2.82,0.32,-2.75,2.75,2.46,3.00,3.07,3.07
1173,0.17,-2.93,0.22,-2.88,2.88,2.42,3.06,3.10,3.10
1185,0.09,-3.05,0.12,-3.02,3.02,2.38,3.11,3.14,3.14
1197,0.02,-3.15,0.02,-3.15,3.15,2.34,3.17,3.17,3.17
1209,-0.05,-3.25,-0.08,-3.28,3.28,2.30,3.23,3.20,3.20
1221,-0.13,-3.36,-0.17,-3.41,3.41,2.26,3.28,3.23,3.23
1233,-0.21,-3.48,-0.26,-3.53,3.53,2.22,3.32,3.27,3.27
1246,-0.31,-3.61,-0.35,-3.65,3.65,2.17,3.34,3.30,3.30
1258,-0.41,-3.74,-0.43,-3.76,3.76,2.14,3.35,3.34,3.34
1271,-0.50,-3.87,-0.50,-3.87,3.87,2.09,3.37,3.37,3.37
1283,-0.57,-3.97,-0.56,-3.96,3.96,2.06,3.39,3.40,3.40
1296,-0.64,-4.08,-0.61,-4.04,4.04,2.02,3.41,3.44,3.44
1309,-0.68,-4.15,-0.64,-4.12,4.12,1.98,3.44,3.47,3.47
1322,-0.71,-4.22,-0.66,-4.17,4.17,1.95,3.46,3.51,3.51
1335,-0.72,-4.27,-0.67,-4.21,4.21,1.91,3.49,3.55,3.55
1349,-0.70,-4.28,-0.66,-4.24,4.24,1.88,3.54,3.58,3.58
1362,-0.67,-4.29,-0.63,-4.25,4.25,1.85,3.58,3.62,3.62
1376,-0.62,-4.28,-0.59,-4.25,4.25,1.82,3.63,3.66,3.66
1390,-0.54,-4.23,-0.54,-4.23,4.23,1.79,3.69,3.69,3.69
1404,-0.46,-4.19,-0.47,-4.20,4.20,1.76,3.74,3.73,3.73
1418,-0.36,-4.13,-0.39,-4.16,4.16,1.73,3.80,3.77,3.77
1432,-0.25,-4.06,-0.31,-4.12,4.12,1.71,3.87,3.81,3.81
1446,-0.15,-4.00,-0.21,-4.06,4.06,1.69,3.91,3.85,3.85
1461,-0.05,-3.94,-0.11,-3.99,3.99,1.66,3.94,3.89,3.89
1475,0.05,-3.88,0.01,-3.92,3.92,1.64,3.97,3.93,3.93
1490,0.15,-3.82,0.13,-3.84,3.84,1.62,3.99,3.97,3.97
1505,0.26,-3.75,0.27,-3.74,3.74,1.61,4.00,4.01,4.01
1520,0.38,-3.67,0.41,-3.64,3.64,1.59,4.02,4.05,4.05
1535,0.53,-3.56,0.58,-3.52,3.52,1.57,4.05,4.09,4.09
1550,0.69,-3.44,0.75,-3.38,3.38,1.56,4.07,4.13,4.13
1566,0.89,-3.29,0.95,-3.23,3.23,1.55,4.12,4.18,4.18
1582,1.12,-3.10,1.16,-3.06,3.06,1.53,4.18,4.22,4.22
1597,1.34,-2.92,1.38,-2.88,2.88,1.52,4.22,4.26,4.26
1613,1.58,-2.73,1.62,-2.68,2.68,1.51,4.26,4.31,4.31
1629,1.84,-2.51,1.88,-2.47,2.47,1.50,4.32,4.35,4.35
1646,2.13,-2.26,2.14,-2.26,2.26,1.50,4.39,4.39,4.40
1662,2.40,-2.04,2.41,-2.03,2.03,1.49,4.43,4.44,4.44
1679,2.69,-1.80,2.68,-1.80,1.80,1.48,4.49,4.48,4.49
1696,2.98,-1.55,2.96,-1.57,1.57,1.47,4.56,4.53,4.53
1713,3.25,-1.33,3.23,-1.35,1.35,1.47,4.60,4.58,4.58
1730,3.51,-1.12,3.49,-1.14,1.14,1.46,4.65,4.63,4.63
1747,3.76,-0.91,3.74,-0.94,0.94,1.45,4.70,4.67,4.68
1764,4.00,-0.72,3.98,-0.75,0.75,1.45,4.75,4.72,4.72
1782,4.24,-0.53,4.20,-0.57,0.57,1.44,4.82,4.77,4.78
1800,4.46,-0.37,4.40,-0.42,0.42,1.44,4.88,4.83,4.83
1818,4.65,-0.23,4.59,-0.29,0.29,1.43,4.94,4.88,4.88
1836,4.82,-0.12,4.77,-0.17,0.17,1.42,4.99,4.93,4.94
1854,4.95,-0.04,4.92,-0.07,0.07,1.41,5.02,4.99,4.99
1873,5.09,0.04,5.07,0.01,-0.01,1.40,5.08,5.05,5.05
1892,5.21,0.09,5.20,0.08,-0.08,1.39,5.13,5.12,5.12
1911,5.31,0.13,5.32,0.13,-0.13,1.38,5.18,5.18,5.18
1930,5.41,0.16,5.43,0.17,-0.17,1.37,5.24,5.25,5.26
1949,5.50,0.17,5.54,0.21,-0.21,1.36,5.29,5.33,5.33
1969,5.59,0.18,5.64,0.23,-0.23,1.34,5.36,5.41,5.41
1988,5.70,0.21,5.75,0.25,-0.25,1.33,5.45,5.50,5.50
2008,5.82,0.23,5.85,0.26,-0.26,1.31,5.56,5.59,5.59
2028,5.95,0.27,5.95,0.27,-0.27,1.29,5.69,5.69,5.69
2048,6.07,0.28,6.06,0.27,-0.27,1.27,5.80,5.79,5.79
2069,6.21,0.31,6.18,0.27,-0.27,1.25,5.94,5.91,5.90
2090,6.32,0.30,6.29,0.26,-0.26,1.23,6.06,6.03,6.02
2111,6.42,0.27,6.41,0.26,-0.26,1.20,6.16,6.16,6.15
2132,6.53,0.25,6.54,0.25,-0.25,1.18,6.28,6.29,6.28
