frequency,raw,error,smoothed,error_smoothed,equalization,equalized_raw,equalized_smoothed,target
20,-4.579442168408799,-6.227285923878146,-4.545978610221867,-6.1938070190240895,6.207069284841822,1.6276271164330227,1.6610906746199552,1.647843755469347
21,-4.1274971015145026,-5.775321897532681,-4.186435022386188,-5.8342621725552215,5.838837600616401,1.7113404991018983,1.6524025782302125,1.6478247960181784
22,-3.885718137565709,-5.533518136051051,-3.839652387082295,-5.487464699487679,5.4879340592118515,1.6022159216461427,1.6482816721295563,1.6477999984853424
23,-3.4507496888734734,-5.098517645515447,-3.5056307043101866,-5.1534145998214616,5.152809115782343,1.7020594269088698,1.6471784114721566,1.6477679566419732
24,-3.226136749118553,-4.8738637604574,-3.184369974069857,-4.832111873556563,4.8321118735565625,1.6059751244380096,1.6477418994867055,1.647727011338847
25,-2.8088131353048613,-4.456488354365035,-2.876969741465248,-4.524657542114722,4.524657542114722,1.715844406809861,1.6476878006494742,1.647675219060174
26,-2.5471260325117995,-4.194736350691797,-2.5817528448195035,-4.229372989321823,4.229372989321822,1.682246956810023,1.6476201445023189,1.6476103181799977
27,-2.320585442661157,-3.968115135861448,-2.297613340326482,-3.9451507027542885,3.945150702754289,1.624565260093132,1.6475373624278071,1.647529693200291
28,-2.09425037626666,-3.7416807117780175,-2.0236152577406483,-3.671052128519668,3.671052128519668,1.5768017522530076,1.6474368707790195,1.6474303355113573
29,-1.8691370690536377,-3.516445871978906,-1.7594094340202822,-3.406724483809988,3.406724483809988,1.5375874147563504,1.647315049789706,1.6473088029252683
30,-1.4400236589478692,-3.087184835049616,-1.50593061066697,-3.1530984308278556,3.1530984308278556,1.7130747718799864,1.6471678201608855,1.6471611761017466
31,-1.2672341311891604,-2.914217143787303,-1.264745671082823,-2.9117361068976173,2.9117361068976173,1.644501975708457,1.6469904358147942,1.6469830125981426
32,-0.9771169364323884,-2.62388623484887,-1.0375846039667158,-2.6843622461265726,2.6843622461265726,1.7072453096941842,1.6467776421598568,1.6467692984164817
33,-0.7779569182559403,-2.4244713153161346,-0.8256279054131028,-2.4721515801810723,2.472151580181072,1.6941946619251316,1.646523674767969,1.6465143970601943
34,-0.5394905751517978,-2.185702571326236,-0.6289066209575161,-2.2751287764020467,2.275128776402047,1.7356382012502494,1.6462221554445309,1.6462119961744381
35,-0.5489193756743174,-2.1947744273903966,-0.4462089299448373,-2.0920749727296752,2.0920749727296757,1.5431555970553583,1.6458660427848384,1.645855051716079
36,-0.3304898823919595,-1.975925612202853,-0.27534296126921026,-1.9207904908579554,1.9207904908579552,1.5903006084659956,1.645447529588745,1.6454357298108935
37,-0.111700550110789,-1.7566458964609486,-0.11371905657107556,-1.7586770146912956,1.7586770146912958,1.6469764645805067,1.6449579581202203,1.6449453463501595
38,0.10831880500069163,-1.5360554994417726,0.04099347450532319,-1.6033942759891557,1.603394275989156,1.7117130809898475,1.644387750494479,1.6443743044424641
39,0.1027291032795537,-1.5409829265737283,0.19038892603825003,-1.4533374123869818,1.4533374123869818,1.5560665156665354,1.6437263384252319,1.643712029853282
40,0.3281835989237341,-1.3147633056648533,0.3351418680912396,-1.307820233599823,1.307820233599823,1.636003832523557,1.6429621016910625,1.6429469045885874
41,0.5538708890306674,-1.0881953097788657,0.47514076108396747,-1.1669415435084987,1.1669415435084982,1.7208124325391656,1.6420823045924657,1.642066198809533
42,0.5602469059958246,-1.0808090952904392,0.6098354294251713,-1.0312375996868943,1.0312375996868948,1.5914845056827194,1.641073029112066,1.6410560012862638
43,0.792922304790451,-0.8469788438460628,0.7386411934572394,-0.9012779123676136,0.9012779123676135,1.6942002171580643,1.6399191058248528,1.6399011486365138
44,0.7978546324105162,-0.8407305212219975,0.8612614773417699,-0.7773425645189238,0.7773425645189237,1.57519719692944,1.6386040418606935,1.6385851536325138
45,1.0300680381462577,-0.6070220947618497,0.9778457181025872,-0.6592642297406196,0.6592642297406196,1.6893322678868774,1.6371099478432067,1.6370901329081073
46,1.0334701612708348,-0.6019265731873684,1.0889732981895892,-0.5464441664768189,0.5464441664768189,1.5799143277476537,1.6354174646664081,1.6353967344582032
47,1.2640690253914384,-0.3694150400068352,1.195508205799055,-0.43799748486572665,0.43799748486572665,1.702066510257165,1.6335056906647816,1.6334840653982736
48,1.266289820430344,-0.3650398001160702,1.2983929026513963,-0.3329592072273534,0.33295920722735345,1.5992490276576976,1.6313521098787498,1.6313296205464143
49,1.3995733396937142,-0.2293358728132895,1.3984486295458636,-0.23048389234688957,0.23048389234688954,1.6300572320406037,1.628932521892753,1.6289092125070037
50,1.4973442846844687,-0.1288526193913493,1.4962305588381999,-0.12999041516793086,0.12999041516793083,1.6273346998523994,1.6262209740061306,1.626196904075818
51,1.5428835370586302,-0.08028140689399654,1.5919612424023573,-0.03122845432840192,0.03122845432840192,1.574111991387032,1.623189696730759,1.6231649439526268
52,1.725214049804709,0.10543034286656905,1.6855430807788467,0.06573403696345179,-0.06573403696345176,1.6594800128412572,1.619809043815395,1.61978370693814
53,1.723956558971401,0.10793491896676999,1.7766341304235547,0.16058669217111232,-0.16058669217111238,1.5633698668002887,1.6160474382524423,1.616021640004631
54,1.9503606340390447,0.3385154181810477,1.864761396821761,0.25289007089093285,-0.25289007089093285,1.6974705631481117,1.611871325930828,1.611845215857997
55,1.949123595008138,0.3419046991633925,1.9494425330528402,0.3421973942302437,-0.34219739423024376,1.6069262007778944,1.6072451388225963,1.6072188958447455
56,1.9487438215671116,0.34663871727839224,2.030292495367778,0.4281612255536405,-0.42816122555364056,1.5205825960134711,1.6021312698141377,1.6021051042887193
57,2.1761966255062073,0.5797324089514619,2.107103122791918,0.5106130613016279,-0.5106130613016278,1.6655835642045795,1.5964900614902902,1.5964642165547454
58,2.1761225773204744,0.5858680140075969,2.1798931381206095,0.589613326776236,-0.589613326776236,1.5865092505442384,1.5902798113443735,1.5902545633128775
59,2.1757997262924125,0.5923672726934157,2.2489268402290645,0.6654700442370183,-0.6654700442370183,1.5103296820553942,1.5834567959920463,1.5834324535989968
60,2.3964448192697443,0.8204925999531634,2.3146922706872965,0.7387169536924989,-0.7387169536924989,1.6577278655772454,1.5759753169947976,1.575952219316581
61,2.4025529100885565,0.834786626305926,2.377821196275444,0.8100334254401529,-0.810033425440153,1.5925194846484034,1.5677877708352908,1.5677662837826305
62,2.4026750285403615,0.8438497717670308,2.438934066362705,0.880089320944668,-0.8800893209446681,1.5225857075956934,1.5588447454180367,1.5588252567733307
63,2.4039378118109997,0.8548597535492521,2.4984136185743697,0.949318473388854,-0.949318473388854,1.4546193384221457,1.5490951451855157,1.5490780582617476
64,2.634246264075272,1.0957741914183123,2.556152173623593,1.0176658270463728,-1.017665827046373,1.616580437028899,1.5384863465772198,1.5384720726569596
65,2.6371130310086732,1.1101596961529858,2.611362985977133,1.084398601086436,-1.0843986010864355,1.5527144299222377,1.5269643848906975,1.5269533348556874
66,2.6393100966720255,1.1248433478549504,2.6625666939007346,1.1480925205709513,-1.1480925205709516,1.491217576101074,1.514474173329783,1.514466748817075
67,2.6395163965336312,1.138560057841754,2.707835403697908,1.2068756492714487,-1.206875649271449,1.4326407472621823,1.5009597544264592,1.5009563386918772
68,2.734322723081383,1.2479571912697809,2.7452955751833548,1.2589309926505365,-1.2589309926505363,1.4753917304308466,1.4863645825328184,1.486365531811602
69,2.857875399689237,1.3872379275770048,2.773779409158596,1.3031475741653642,-1.3031475741653642,1.554727825523873,1.470631834993232,1.4706374721122324
70,2.847472990445551,1.3937576285669775,2.79341769009893,1.339712939601424,-1.3397129396014242,1.507760050844127,1.4537047504975056,1.4537153618785736
71,2.8339979655274448,1.3984551364274784,2.805936315725398,1.3704093207366075,-1.370409320736608,1.4635886447908368,1.4355269949887899,1.4355428290999663
72,2.8187295604968963,1.4026652432204307,2.8144843018927235,1.3984412471299044,-1.3984412471299046,1.4202883133669917,1.4160430547628189,1.4160643172764655
73,2.8033588547091473,1.4081333604571529,2.8229700210961637,1.4277713716016316,-1.4277713716016314,1.3755874831075159,1.3951986494945323,1.3952254942519944
74,2.789645853549239,1.4166721769365753,2.8350608728520124,1.4621197200426594,-1.4621197200426597,1.3275261335065793,1.3729411528093527,1.3729736766126637
75,2.778951648862326,1.4296933824675238,2.8531368584447288,1.5039168540097267,-1.5039168540097265,1.2750347948525993,1.3492200044350022,1.349258266394802
76,2.771762705960673,1.4477315086616085,2.877521056150588,1.5535339500935332,-1.5535339500935335,1.2182287558671394,1.3239871060570545,1.3240311972990644
77,2.946690057155994,1.6494426688738617,2.906220728853936,1.6090234998591482,-1.6090234998591484,1.3376665572968456,1.2971972289947877,1.2972473882821323
78,2.9919566851430677,1.7230914818942464,2.9352357939688702,1.6664272795387052,-1.6664272795387047,1.325529405604363,1.2688085144301655,1.2688652032488212
79,2.987156490078094,1.7483095735559067,2.9593006653196063,1.7205175094956657,-1.7205175094956662,1.2666389805824276,1.2387831558239402,1.2388469165221871
80,2.9785887864270313,1.7714296016954245,2.9727997409681657,1.7657114953669575,-1.7657114953669577,1.2128772910600736,1.207088245601208,1.2071591847316068
81,2.9648961728251555,1.7911226462112477,2.9705826454919944,1.7968861067898814,-1.7968861067898816,1.168010066035274,1.1736965387021128,1.1737735266139078
82,2.9462344308932575,1.8075676180500353,2.948499280975703,1.8099126088958775,-1.8099126088958775,1.13632182199738,1.1385866720798257,1.1386668128432222
83,2.924274836658377,1.82245306839733,2.903627302762983,1.801884923474872,-1.8018849234748717,1.1223899131835051,1.1017423792881111,1.101821768261047
84,2.901624829655779,1.838397341009693,2.8343028116062317,1.771152103553924,-1.7711521035539244,1.1304727261018548,1.0631507080523073,1.0632274886460862
85,2.6529793004334015,1.6300993270930704,2.7401272031608674,1.7173269391845194,-1.7173269391845194,0.9356523612488821,1.022800263976348,1.022879973340331
86,2.6359282439099654,1.6551455703484574,2.622086475515368,1.6414048054174593,-1.641404805417459,0.9945234384925064,0.9806816700979089,0.980782673561508
87,2.6229848742319155,1.686037820178624,2.482807323268325,1.5460144894418901,-1.5460144894418901,1.0769703847900254,0.9367928338264351,0.9369470540532916
88,2.3373099377440383,1.4459167748668573,2.32684309033696,1.4356928331366423,-1.4356928331366425,0.9016171046073957,0.8911502572003174,0.891393162877181
89,2.149768238458309,1.3056180377418616,2.1607953824545154,1.3169911948771573,-1.316991194877157,0.8327770435811519,0.8438041875773583,0.8441502007164474
90,1.9582861819128126,1.16302910472425,1.993078691540573,1.1982278466451572,-1.1982278466451572,0.7600583352676553,0.7948508448954157,0.7952570771885625
91,1.8866580638746742,1.1418951263202168,1.8332327483952984,1.0888012654517687,-1.0888012654517687,0.7978567984229055,0.7444314829435297,0.7447629375544573
92,1.6670565868137763,0.9743289476821175,1.6908448241296052,0.9981361943885967,-0.9981361943885965,0.6689203924251799,0.6927086297410088,0.6927276391316588
93,1.5180811045900973,0.8788589516223404,1.5743000891648729,0.9344835274528405,-0.9344835274528406,0.5835975771372567,0.6398165617120323,0.6392221529677569
94,1.4093587130509848,0.8250298498104616,1.4896677740053867,0.9038726209505459,-0.9038726209505459,0.5054860921004389,0.5857951530548409,0.5843288632405232
95,1.3902908508720104,0.8621491161150452,1.4400127770425528,0.9094833889618762,-0.9094833889618762,0.48080746191013424,0.5305293880806766,0.5281417347569652
96,1.3692986526737012,0.898532334531293,1.425296875935043,0.951572404483825,-0.9515724044838246,0.4177262481898766,0.47372447145121843,0.4707663181424082
97,1.4522533445810462,1.0399337814656726,1.4428458363023726,1.027903119206916,-1.027903119206916,0.42435022537413025,0.4149427170954567,0.41231956311537354
98,1.5544037634746566,1.2014743506365755,1.4881819177887277,1.1344706826035824,-1.1344706826035824,0.41993308087107417,0.35371123518514525,0.3529294128380811
99,1.5347387171689453,1.2420045603424181,1.555926486866631,1.2662436893862754,-1.2662436893862756,0.26849502778266965,0.2896827974803553,0.29273415682652715
100,1.7394039799285879,1.5075224536311729,1.640501302939854,1.4176953304475024,-1.4176953304475024,0.32170864948108546,0.22280597249235168,0.23188152629741499
101,1.7270788178622203,1.5565512938663462,1.7364867102040158,1.5830401746013165,-1.583040174601317,0.14403864326090332,0.15344653560269883,0.17052752399587412
102,1.7089841727168498,1.600149182485481,1.8386702003108224,1.7562615379088797,-1.7562615379088795,-0.04727736519202974,0.08240866240194289,0.10883499023136878
104,1.9167433910366842,1.9317360985320362,1.9419600093570568,1.9311280761894114,-1.931128076189411,-0.014384685152726728,0.010831933167645857,-0.014992707495351976
105,2.0334642608951814,2.1104002274251616,2.0413834972215605,2.1014031442088816,-2.1014031442088816,-0.06793888331370024,-0.060019646987321096,-0.07693596652998025
106,2.256993205441935,2.3955768937307274,2.132322965855062,2.261344923498841,-2.2613449234988408,-0.004351718056905707,-0.12902195764377877,-0.1385836882887923
107,2.2954474417219735,2.495214689938551,2.210998481602072,2.4064304288552147,-2.406430428855214,-0.1109829871332404,-0.19543194725314184,-0.19976724821657754
108,2.267010022171235,2.527332337944948,2.2750585229283584,2.5340918405439865,-2.5340918405439865,-0.26708181837275147,-0.2590333176156281,-0.2603223157737129
109,2.2398466244996387,2.559937771421189,2.3240548704950252,2.6441983221064955,-2.644198322106496,-0.4043516976068573,-0.32014345161147073,-0.32009114692155016
110,2.4403123740786854,2.819237198423759,2.3595952604858175,2.7390772981333393,-2.7390772981333393,-0.29876492405465394,-0.37948203764752186,-0.3789248243450736
111,2.4221662975300142,2.8588516738976915,2.3850732689262584,2.8230177563913346,-2.8230177563913346,-0.40085145886132034,-0.4379444874650762,-0.43668537636767724
112,2.404769536203686,2.8980172427589665,2.4050193405995035,2.901369554157314,-2.901369554157315,-0.4966000179536292,-0.4963502135578115,-0.4932477065552807
113,2.3910248526799545,2.9395261230534824,2.424237570801613,2.979476114176835,-2.9794761141768342,-0.5884512614968798,-0.5552385433752214,-0.5485012703735279
114,2.3808813591530136,2.9832328020326573,2.4469448049141542,3.061708742256312,-3.061708742256312,-0.6808273831032983,-0.6147639373421576,-0.6023514428796437
115,2.374368439585438,3.0290889716023446,2.476101811128623,3.1508080907216893,-3.1508080907216898,-0.7764396511362519,-0.674706279593067,-0.6547205320169067
117,2.5994019380181954,3.3596630592759813,2.5130459748819787,3.2476210204547256,-3.247621020454724,-0.6482190824365284,-0.7345750455727451,-0.7602611212577859
118,2.5999006986854667,3.4082815164432856,2.557443421702512,3.3512043754516165,-3.3512043754516156,-0.751303676766149,-0.7937609537491035,-0.8083808177578189
119,2.603200947424456,3.4580463564970585,2.607510728429286,3.459193193010496,-3.4591931930104955,-0.8559922455860396,-0.8516824645812093,-0.8548454090726025
120,2.608462700710882,3.508116794299952,2.6604253899110284,3.56831225439671,-3.5683122543967105,-0.9598495536858285,-0.9078868644856821,-0.8996540935890698
121,2.61481379854508,3.557635741112234,2.712842611175837,3.6749323628115427,-3.674932362811543,-1.060118564266463,-0.9620897516357063,-0.942821942567154
123,2.8494739061384693,3.8812508866854603,2.7614447926806776,3.7756064997574827,-3.775606499757483,-0.9261325936190139,-1.0141617070768056,-1.031776980546991
124,2.8561331641053815,3.9265919417844324,2.803453553083729,3.8675404175626378,-3.8675404175626378,-1.0114072534572562,-1.064086864478909,-1.0704587776790508
125,2.862390565475847,3.9700072531852615,2.8370301399568203,3.9489503186922876,-3.9489503186922885,-1.0865597532164415,-1.1119201787354682,-1.1076166877094145
126,2.8679562740763944,4.011275330440458,2.861491352269452,4.019251668732639,-4.019251668732638,-1.1512953946562434,-1.157760316463186,-1.1433190563640632
128,2.872535276225372,4.09100018139391,2.8772909712044226,4.079031186195143,-4.079031186195144,-1.2064959099697723,-1.2017402149907217,-1.218464905168538
129,2.8758989134869264,4.12608093216193,2.88576660123693,4.129791929061316,-4.129791929061316,-1.2538930155743895,-1.244025327824386,-1.2501820186750034
130,2.8779950708665174,4.1586903447566925,2.888717983683259,4.173523960720621,-4.173523960720621,-1.2955288898541033,-1.2848059770373617,-1.2806952738901747
131,2.8789945921815954,4.189087233980569,2.8879419833125786,4.212217964038142,-4.2122179640381425,-1.3332233718565472,-1.324275980725564,-1.3100926417989736
133,2.8792211225732465,4.2521343301191425,2.8848739840689728,4.247474496306232,-4.247474496306232,-1.3682533737329856,-1.3626005122372593,-1.3729132075458956
134,2.878998422577116,4.278121809668216,2.8804569613259083,4.280342198407695,-4.280342198407696,-1.4013437758305796,-1.3998852370817874,-1.3991233870910995
135,2.878510616365833,4.3030064179514,2.8752800036139137,4.311440898622266,-4.311440898622266,-1.4329302822564327,-1.436160895008352,-1.424495801585567
137,2.8777699241392543,4.356627402377362,2.869922995676803,4.341314619467667,-4.341314619467665,-1.463544695328411,-1.4713916237908622,-1.4788574782381079
138,2.8767209706077526,4.37839573384186,2.8653527587560843,4.370857614475781,-4.370857614475782,-1.4941366438680297,-1.505504855719698,-1.5016747632341079
140,2.8754142854338074,4.425831327330048,2.863175157857654,4.401605897140874,-4.4016058971408745,-1.526191611707067,-1.5384307392832204,-1.5504170418962406
141,2.874116263429841,4.445201497266753,2.865579118397752,4.435713938506828,-4.4357139385068285,-1.5615976750769875,-1.5701348201090766,-1.5710852338369121
142,2.8732440012402067,4.4645372693767005,2.8749092609815605,4.475540577305791,-4.475540577305792,-1.6022965760655854,-1.6006313163242316,-1.5912932681364933
144,2.8731267203253275,4.506848797725412,2.892943494707613,4.52291717233329,-4.522917172333289,-1.6497904520079612,-1.6299736776256757,-1.6337220774000842
145,2.8737374364833608,4.525957890924106,2.920080621204853,4.578309965120905,-4.578309965120905,-1.7045725286375442,-1.658229343916052,-1.6522204544407448
147,2.874598172612233,4.565027131476492,2.9547110371630456,4.640162843079062,-4.640162843079061,-1.7655646704668277,-1.6854518059160153,-1.6904289588642585
148,2.935001234744045,4.642434399270171,2.9930208148712443,4.704683584190466,-4.704683584190465,-1.7696823494464202,-1.7116627693192208,-1.7074331645261265
150,3.1021567343334966,4.8440127802336335,3.029366831032286,4.7662181077652095,-4.7662181077652095,-1.664061373431713,-1.7368512767329234,-1.7418560459001373
151,3.1001673107928296,4.857648234083822,3.057191614447829,4.8181796241680885,-4.818179624168089,-1.7180123133752598,-1.7609880097202604,-1.7574809232909923
153,3.097279821022116,4.885714330460166,3.070277439120872,4.854323440583085,-4.854323440583084,-1.7570436195609678,-1.7840460014622117,-1.78843450943805
154,3.0940736142312666,4.896764245894227,3.0640296884154785,4.870046475396386,-4.870046475396386,-1.775972861165119,-1.8060167869809072,-1.8026906316629603
156,3.0909058720528035,4.921276253330738,3.0364676939828747,4.863381822578397,-4.863381822578398,-1.7724759505255943,-1.826914128595523,-1.8303703812779348
157,3.0688083958845964,4.911978982489168,2.9886876293118982,4.835451501684766,-4.835451501684765,-1.7666431058001684,-1.8467638723728665,-1.8431705866045713
159,2.855643290608277,4.723305107576826,2.924712710794655,4.790297695042575,-4.790297695042575,-1.9346544044342981,-1.8655849842479202,-1.8676618169685493
