frequency,raw,smoothed,error,error_smoothed,equalization,parametric_eq,fixed_band_eq,equalized_raw,equalized_smoothed,target
20.00,-3.35,-3.36,-3.10,-3.11,3.11,2.43,0.99,-0.24,-0.25,-0.25
20.20,-3.34,-3.33,-3.12,-3.11,3.11,2.43,1.02,-0.23,-0.22,-0.22
20.40,-3.30,-3.30,-3.11,-3.11,3.11,2.43,1.05,-0.19,-0.19,-0.19
20.61,-3.27,-3.27,-3.09,-3.10,3.10,2.43,1.08,-0.16,-0.17,-0.17
20.81,-3.23,-3.23,-3.09,-3.09,3.09,2.43,1.11,-0.14,-0.14,-0.14
21.02,-3.20,-3.20,-3.09,-3.08,3.08,2.43,1.14,-0.13,-0.13,-0.11
21.23,-3.17,-3.17,-3.07,-3.07,3.06,2.42,1.18,-0.11,-0.11,-0.10
21.44,-3.14,-3.14,-3.05,-3.05,3.04,2.42,1.21,-0.10,-0.10,-0.09
21.66,-3.11,-3.11,-3.02,-3.02,3.02,2.42,1.25,-0.09,-0.09,-0.09
21.87,-3.07,-3.07,-2.99,-2.99,2.99,2.42,1.28,-0.09,-0.08,-0.09
22.09,-3.02,-3.03,-2.95,-2.95,2.96,2.42,1.32,-0.07,-0.07,-0.08
22.31,-2.99,-3.00,-2.92,-2.92,2.92,2.42,1.36,-0.07,-0.08,-0.08
22.54,-2.97,-2.96,-2.89,-2.88,2.88,2.42,1.40,-0.08,-0.08,-0.08
22.76,-2.93,-2.93,-2.86,-2.85,2.85,2.42,1.44,-0.09,-0.08,-0.08
22.99,-2.89,-2.90,-2.81,-2.81,2.81,2.42,1.48,-0.08,-0.09,-0.09
23.22,-2.86,-2.86,-2.77,-2.77,2.78,2.42,1.52,-0.09,-0.09,-0.09
23.45,-2.83,-2.83,-2.74,-2.74,2.74,2.42,1.57,-0.09,-0.09,-0.09
23.69,-2.80,-2.80,-2.70,-2.71,2.71,2.42,1.61,-0.08,-0.09,-0.09
23.92,-2.77,-2.77,-2.68,-2.68,2.68,2.41,1.66,-0.09,-0.09,-0.09
24.16,-2.74,-2.74,-2.66,-2.66,2.66,2.41,1.70,-0.09,-0.09,-0.08
24.40,-2.71,-2.72,-2.63,-2.63,2.63,2.41,1.75,-0.08,-0.09,-0.08
24.65,-2.69,-2.69,-2.60,-2.60,2.61,2.41,1.80,-0.09,-0.09,-0.09
24.89,-2.67,-2.68,-2.58,-2.58,2.58,2.41,1.84,-0.09,-0.10,-0.10
25.14,-2.65,-2.66,-2.56,-2.56,2.56,2.41,1.89,-0.10,-0.10,-0.10
25.39,-2.65,-2.64,-2.56,-2.54,2.54,2.41,1.94,-0.12,-0.10,-0.10
25.65,-2.60,-2.62,-2.51,-2.52,2.51,2.41,1.99,-0.09,-0.11,-0.10
25.91,-2.60,-2.60,-2.49,-2.49,2.49,2.41,2.04,-0.11,-0.10,-0.11
26.16,-2.57,-2.58,-2.46,-2.47,2.47,2.41,2.09,-0.10,-0.11,-0.11
26.43,-2.55,-2.56,-2.44,-2.45,2.45,2.40,2.14,-0.10,-0.11,-0.11
26.69,-2.55,-2.54,-2.44,-2.43,2.43,2.40,2.18,-0.12,-0.11,-0.11
26.96,-2.52,-2.53,-2.40,-2.42,2.41,2.40,2.23,-0.10,-0.12,-0.11
27.23,-2.51,-2.51,-2.40,-2.40,2.39,2.40,2.28,-0.12,-0.12,-0.12
27.50,-2.51,-2.49,-2.40,-2.37,2.37,2.40,2.33,-0.14,-0.12,-0.12
27.77,-2.46,-2.48,-2.34,-2.36,2.36,2.40,2.37,-0.11,-0.12,-0.13
28.05,-2.46,-2.47,-2.33,-2.34,2.34,2.40,2.41,-0.12,-0.13,-0.13
28.33,-2.46,-2.46,-2.32,-2.32,2.32,2.40,2.45,-0.14,-0.14,-0.14
28.62,-2.46,-2.46,-2.32,-2.31,2.31,2.39,2.49,-0.16,-0.15,-0.14
28.90,-2.44,-2.44,-2.30,-2.29,2.29,2.39,2.53,-0.15,-0.15,-0.14
29.19,-2.41,-2.43,-2.26,-2.28,2.28,2.39,2.57,-0.13,-0.15,-0.16
29.48,-2.41,-2.41,-2.27,-2.26,2.27,2.39,2.60,-0.15,-0.15,-0.15
29.78,-2.41,-2.42,-2.25,-2.26,2.25,2.39,2.63,-0.16,-0.16,-0.16
30.08,-2.41,-2.41,-2.25,-2.25,2.24,2.39,2.66,-0.18,-0.17,-0.16
30.38,-2.41,-2.40,-2.24,-2.23,2.22,2.39,2.68,-0.19,-0.18,-0.17
30.68,-2.37,-2.39,-2.20,-2.21,2.21,2.38,2.70,-0.16,-0.18,-0.18
30.99,-2.37,-2.38,-2.19,-2.19,2.20,2.38,2.72,-0.17,-0.18,-0.19
31.30,-2.37,-2.37,-2.18,-2.18,2.19,2.38,2.74,-0.19,-0.18,-0.19
31.61,-2.37,-2.37,-2.18,-2.18,2.18,2.38,2.75,-0.20,-0.20,-0.19
31.93,-2.37,-2.37,-2.17,-2.17,2.17,2.38,2.76,-0.21,-0.21,-0.20
32.24,-2.37,-2.37,-2.16,-2.16,2.16,2.38,2.77,-0.21,-0.21,-0.22
32.57,-2.37,-2.37,-2.16,-2.15,2.15,2.38,2.77,-0.22,-0.22,-0.22
32.89,-2.37,-2.37,-2.15,-2.15,2.15,2.37,2.77,-0.23,-0.23,-0.22
33.22,-2.37,-2.37,-2.14,-2.14,2.14,2.37,2.77,-0.23,-0.23,-0.23
33.55,-2.37,-2.37,-2.14,-2.14,2.13,2.37,2.76,-0.24,-0.24,-0.24
33.89,-2.37,-2.37,-2.12,-2.13,2.12,2.37,2.76,-0.25,-0.25,-0.25
34.23,-2.37,-2.37,-2.12,-2.12,2.12,2.37,2.75,-0.26,-0.26,-0.25
34.57,-2.37,-2.37,-2.11,-2.11,2.11,2.37,2.74,-0.27,-0.27,-0.27
34.92,-2.37,-2.37,-2.09,-2.10,2.10,2.36,2.73,-0.28,-0.28,-0.28
35.27,-2.37,-2.37,-2.09,-2.09,2.09,2.36,2.72,-0.29,-0.29,-0.28
35.62,-2.37,-2.37,-2.08,-2.07,2.08,2.36,2.70,-0.29,-0.29,-0.30
35.97,-2.37,-2.38,-2.06,-2.07,2.07,2.36,2.69,-0.30,-0.30,-0.31
36.33,-2.38,-2.39,-2.06,-2.07,2.07,2.36,2.67,-0.30,-0.32,-0.31
36.70,-2.41,-2.40,-2.09,-2.07,2.07,2.36,2.66,-0.34,-0.32,-0.33
37.06,-2.41,-2.42,-2.07,-2.08,2.08,2.35,2.64,-0.34,-0.34,-0.34
37.43,-2.42,-2.43,-2.07,-2.08,2.08,2.35,2.63,-0.34,-0.35,-0.35
37.81,-2.46,-2.45,-2.10,-2.09,2.09,2.35,2.61,-0.38,-0.36,-0.36
38.19,-2.46,-2.47,-2.09,-2.10,2.09,2.35,2.60,-0.37,-0.38,-0.38
38.57,-2.48,-2.49,-2.10,-2.11,2.10,2.35,2.59,-0.38,-0.39,-0.38
38.95,-2.51,-2.51,-2.12,-2.11,2.11,2.35,2.57,-0.40,-0.39,-0.39
39.34,-2.52,-2.53,-2.12,-2.12,2.13,2.34,2.56,-0.40,-0.41,-0.41
39.74,-2.55,-2.55,-2.13,-2.13,2.14,2.34,2.55,-0.42,-0.42,-0.42
40.14,-2.58,-2.58,-2.15,-2.15,2.16,2.34,2.55,-0.43,-0.43,-0.43
40.54,-2.61,-2.62,-2.17,-2.17,2.17,2.34,2.54,-0.44,-0.44,-0.45
40.94,-2.65,-2.65,-2.20,-2.19,2.19,2.34,2.53,-0.46,-0.45,-0.45
41.35,-2.67,-2.68,-2.21,-2.21,2.21,2.33,2.53,-0.46,-0.47,-0.47
41.76,-2.70,-2.70,-2.22,-2.23,2.23,2.33,2.53,-0.47,-0.47,-0.47
42.18,-2.74,-2.73,-2.26,-2.25,2.25,2.33,2.53,-0.50,-0.49,-0.48
42.60,-2.75,-2.76,-2.25,-2.26,2.26,2.33,2.53,-0.49,-0.50,-0.50
43.03,-2.79,-2.78,-2.29,-2.28,2.27,2.33,2.54,-0.52,-0.51,-0.50
43.46,-2.79,-2.80,-2.27,-2.28,2.28,2.33,2.54,-0.52,-0.52,-0.52
43.90,-2.83,-2.83,-2.29,-2.28,2.28,2.33,2.55,-0.55,-0.54,-0.55
44.33,-2.84,-2.85,-2.27,-2.28,2.28,2.32,2.56,-0.55,-0.56,-0.57
44.78,-2.88,-2.87,-2.30,-2.28,2.28,2.32,2.58,-0.60,-0.59,-0.58
45.23,-2.88,-2.88,-2.28,-2.28,2.28,2.32,2.59,-0.61,-0.61,-0.60
45.68,-2.88,-2.90,-2.26,-2.27,2.27,2.32,2.61,-0.61,-0.62,-0.62
46.13,-2.90,-2.90,-2.26,-2.26,2.26,2.32,2.62,-0.64,-0.64,-0.64
46.60,-2.90,-2.90,-2.25,-2.25,2.25,2.32,2.64,-0.65,-0.65,-0.65
47.06,-2.90,-2.91,-2.23,-2.24,2.24,2.32,2.67,-0.67,-0.67,-0.67
47.53,-2.90,-2.91,-2.22,-2.22,2.22,2.32,2.69,-0.68,-0.69,-0.69
48.01,-2.91,-2.92,-2.21,-2.21,2.20,2.32,2.72,-0.71,-0.72,-0.70
48.49,-2.93,-2.93,-2.20,-2.20,2.18,2.32,2.74,-0.75,-0.74,-0.73
48.97,-2.93,-2.93,-2.17,-2.17,2.17,2.32,2.77,-0.77,-0.77,-0.76
49.46,-2.93,-2.94,-2.14,-2.15,2.15,2.32,2.80,-0.78,-0.78,-0.79
49.96,-2.94,-2.95,-2.12,-2.13,2.15,2.32,2.83,-0.80,-0.80,-0.82
50.46,-2.97,-2.97,-2.14,-2.13,2.14,2.32,2.87,-0.83,-0.83,-0.84
50.96,-3.00,-3.00,-2.15,-2.14,2.14,2.32,2.90,-0.86,-0.86,-0.86
51.47,-3.03,-3.04,-2.14,-2.15,2.15,2.32,2.93,-0.88,-0.89,-0.89
51.99,-3.09,-3.08,-2.18,-2.17,2.17,2.33,2.97,-0.92,-0.91,-0.92
52.51,-3.12,-3.13,-2.19,-2.19,2.19,2.33,3.00,-0.93,-0.93,-0.93
53.03,-3.17,-3.18,-2.22,-2.22,2.22,2.33,3.03,-0.95,-0.95,-0.95
53.56,-3.23,-3.23,-2.26,-2.25,2.25,2.34,3.07,-0.98,-0.98,-0.98
54.10,-3.28,-3.29,-2.28,-2.29,2.28,2.34,3.10,-1.00,-1.01,-1.00
54.64,-3.35,-3.35,-2.32,-2.32,2.31,2.34,3.13,-1.04,-1.04,-1.03
55.18,-3.41,-3.41,-2.36,-2.35,2.34,2.35,3.16,-1.07,-1.07,-1.06
55.74,-3.46,-3.46,-2.38,-2.38,2.37,2.36,3.19,-1.09,-1.09,-1.08
56.29,-3.51,-3.51,-2.41,-2.41,2.41,2.36,3.21,-1.11,-1.11,-1.10
56.86,-3.55,-3.56,-2.42,-2.43,2.44,2.37,3.24,-1.11,-1.12,-1.13
57.42,-3.62,-3.62,-2.46,-2.46,2.47,2.38,3.26,-1.14,-1.14,-1.16
58.00,-3.67,-3.68,-2.50,-2.50,2.51,2.39,3.28,-1.16,-1.17,-1.18
58.58,-3.74,-3.74,-2.55,-2.54,2.54,2.40,3.29,-1.20,-1.20,-1.20
59.16,-3.81,-3.81,-2.59,-2.59,2.58,2.41,3.30,-1.23,-1.23,-1.22
59.76,-3.86,-3.87,-2.62,-2.63,2.61,2.43,3.31,-1.25,-1.25,-1.24
60.35,-3.92,-3.92,-2.65,-2.65,2.64,2.44,3.31,-1.28,-1.28,-1.27
60.96,-3.97,-3.97,-2.68,-2.67,2.67,2.46,3.31,-1.31,-1.31,-1.29
61.57,-4.02,-4.03,-2.69,-2.69,2.69,2.47,3.30,-1.33,-1.33,-1.34
62.18,-4.07,-4.07,-2.70,-2.71,2.71,2.49,3.29,-1.36,-1.36,-1.37
62.80,-4.12,-4.12,-2.73,-2.72,2.73,2.51,3.27,-1.40,-1.39,-1.40
63.43,-4.16,-4.17,-2.73,-2.74,2.75,2.53,3.25,-1.42,-1.42,-1.43
64.07,-4.21,-4.22,-2.76,-2.76,2.76,2.56,3.22,-1.45,-1.45,-1.46
64.71,-4.26,-4.26,-2.78,-2.78,2.78,2.58,3.19,-1.49,-1.48,-1.48
65.35,-4.30,-4.31,-2.79,-2.80,2.79,2.61,3.15,-1.51,-1.51,-1.51
66.01,-4.34,-4.35,-2.81,-2.81,2.81,2.64,3.11,-1.54,-1.54,-1.54
66.67,-4.39,-4.39,-2.83,-2.82,2.82,2.67,3.07,-1.57,-1.57,-1.57
67.33,-4.43,-4.43,-2.84,-2.83,2.83,2.71,3.02,-1.60,-1.60,-1.60
68.01,-4.46,-4.47,-2.84,-2.85,2.84,2.74,2.97,-1.62,-1.63,-1.63
68.69,-4.51,-4.51,-2.86,-2.85,2.85,2.78,2.91,-1.66,-1.66,-1.66
69.37,-4.55,-4.55,-2.86,-2.86,2.86,2.82,2.85,-1.69,-1.69,-1.69
70.07,-4.58,-4.59,-2.86,-2.87,2.87,2.86,2.79,-1.71,-1.72,-1.72
70.77,-4.63,-4.63,-2.89,-2.88,2.88,2.89,2.72,-1.76,-1.75,-1.75
71.48,-4.66,-4.67,-2.88,-2.89,2.89,2.93,2.66,-1.77,-1.78,-1.78
72.19,-4.72,-4.72,-2.91,-2.90,2.90,2.97,2.59,-1.82,-1.82,-1.82
72.91,-4.77,-4.77,-2.92,-2.92,2.92,3.01,2.52,-1.86,-1.85,-1.85
73.64,-4.81,-4.82,-2.92,-2.93,2.93,3.05,2.44,-1.88,-1.88,-1.89
74.38,-4.86,-4.87,-2.95,-2.95,2.95,3.08,2.37,-1.91,-1.91,-1.92
75.12,-4.92,-4.92,-2.97,-2.97,2.98,3.10,2.30,-1.95,-1.94,-1.96
75.87,-4.98,-4.98,-3.00,-3.00,3.01,3.13,2.22,-1.98,-1.98,-1.99
76.63,-5.04,-5.05,-3.03,-3.03,3.03,3.14,2.15,-2.01,-2.01,-2.02
77.40,-5.10,-5.11,-3.06,-3.06,3.06,3.15,2.07,-2.05,-2.05,-2.05
78.17,-5.17,-5.17,-3.09,-3.09,3.08,3.15,2.00,-2.09,-2.09,-2.09
78.95,-5.23,-5.22,-3.12,-3.11,3.11,3.14,1.92,-2.13,-2.12,-2.11
79.74,-5.26,-5.27,-3.12,-3.13,3.12,3.12,1.85,-2.14,-2.15,-2.14
80.54,-5.30,-5.31,-3.13,-3.13,3.13,3.09,1.77,-2.17,-2.18,-2.18
81.35,-5.35,-5.34,-3.14,-3.13,3.13,3.06,1.70,-2.22,-2.21,-2.21
82.16,-5.36,-5.37,-3.12,-3.13,3.12,3.01,1.62,-2.24,-2.25,-2.25
82.98,-5.39,-5.39,-3.12,-3.11,3.10,2.95,1.55,-2.29,-2.29,-2.28
83.81,-5.39,-5.40,-3.07,-3.08,3.07,2.88,1.48,-2.32,-2.32,-2.32
84.65,-5.39,-5.40,-3.03,-3.04,3.04,2.81,1.41,-2.36,-2.36,-2.36
85.50,-5.38,-5.38,-3.00,-2.99,2.99,2.73,1.34,-2.40,-2.39,-2.39
86.35,-5.35,-5.36,-2.93,-2.93,2.93,2.64,1.27,-2.43,-2.43,-2.43
87.22,-5.32,-5.33,-2.86,-2.86,2.86,2.55,1.20,-2.47,-2.47,-2.47
88.09,-5.29,-5.28,-2.79,-2.78,2.78,2.46,1.13,-2.51,-2.50,-2.51
88.97,-5.23,-5.24,-2.70,-2.70,2.70,2.36,1.07,-2.54,-2.54,-2.54
89.86,-5.18,-5.19,-2.60,-2.61,2.61,2.26,1.00,-2.57,-2.58,-2.58
90.76,-5.14,-5.14,-2.51,-2.51,2.52,2.16,0.94,-2.63,-2.62,-2.63
91.66,-5.09,-5.09,-2.43,-2.42,2.42,2.06,0.87,-2.67,-2.67,-2.67
92.58,-5.03,-5.04,-2.32,-2.32,2.32,1.96,0.81,-2.71,-2.71,-2.72
93.51,-4.97,-4.97,-2.22,-2.22,2.22,1.86,0.75,-2.76,-2.75,-2.75
94.44,-4.90,-4.91,-2.11,-2.11,2.11,1.76,0.68,-2.79,-2.79,-2.80
95.39,-4.84,-4.85,-2.00,-2.01,2.00,1.66,0.62,-2.84,-2.84,-2.84
96.34,-4.78,-4.78,-1.89,-1.89,1.89,1.57,0.56,-2.89,-2.89,-2.90
97.30,-4.72,-4.72,-1.78,-1.78,1.77,1.48,0.50,-2.95,-2.94,-2.94
98.28,-4.63,-4.64,-1.65,-1.65,1.65,1.38,0.45,-2.98,-2.99,-2.99
99.26,-4.56,-4.56,-1.53,-1.53,1.53,1.29,0.39,-3.04,-3.03,-3.03
100.25,-4.46,-4.48,-1.39,-1.40,1.40,1.21,0.33,-3.07,-3.08,-3.08
101.25,-4.40,-4.39,-1.28,-1.27,1.27,1.12,0.28,-3.14,-3.13,-3.12
102.27,-4.29,-4.30,-1.13,-1.13,1.13,1.04,0.22,-3.17,-3.18,-3.17
103.29,-4.21,-4.21,-0.99,-0.99,0.98,0.96,0.17,-3.23,-3.22,-3.23
104.32,-4.10,-4.11,-0.84,-0.84,0.84,0.88,0.11,-3.27,-3.27,-3.26
105.37,-4.01,-4.00,-0.70,-0.70,0.69,0.80,0.06,-3.31,-3.31,-3.31
106.42,-3.90,-3.90,-0.55,-0.55,0.55,0.73,0.01,-3.36,-3.35,-3.35
107.48,-3.79,-3.81,-0.39,-0.40,0.40,0.65,-0.04,-3.39,-3.40,-3.40
108.56,-3.71,-3.71,-0.26,-0.25,0.26,0.58,-0.09,-3.45,-3.45,-3.46
109.64,-3.62,-3.62,-0.12,-0.12,0.12,0.51,-0.14,-3.50,-3.49,-3.50
110.74,-3.52,-3.54,0.02,0.01,-0.01,0.44,-0.18,-3.53,-3.55,-3.55
111.85,-3.47,-3.47,0.12,0.13,-0.13,0.37,-0.23,-3.61,-3.60,-3.59
112.97,-3.41,-3.40,0.25,0.25,-0.25,0.31,-0.28,-3.67,-3.66,-3.66
114.10,-3.34,-3.35,0.36,0.36,-0.36,0.24,-0.32,-3.70,-3.71,-3.71
115.24,-3.28,-3.29,0.48,0.47,-0.46,0.18,-0.36,-3.74,-3.75,-3.76
116.39,-3.25,-3.26,0.56,0.56,-0.55,0.11,-0.41,-3.81,-3.81,-3.81
117.55,-3.22,-3.22,0.64,0.64,-0.64,0.05,-0.45,-3.86,-3.86,-3.87
118.73,-3.21,-3.20,0.71,0.72,-0.72,-0.01,-0.49,-3.93,-3.92,-3.92
119.92,-3.16,-3.18,0.80,0.79,-0.79,-0.07,-0.52,-3.96,-3.98,-3.97
121.12,-3.16,-3.16,0.85,0.86,-0.86,-0.13,-0.56,-4.03,-4.03,-4.02
122.33,-3.16,-3.14,0.91,0.92,-0.93,-0.19,-0.60,-4.09,-4.07,-4.07
123.55,-3.11,-3.13,1.00,0.98,-0.99,-0.24,-0.63,-4.10,-4.12,-4.11
124.79,-3.11,-3.12,1.05,1.05,-1.05,-0.30,-0.66,-4.16,-4.16,-4.16
126.03,-3.11,-3.11,1.10,1.10,-1.10,-0.36,-0.69,-4.21,-4.21,-4.21
127.29,-3.11,-3.11,1.15,1.16,-1.15,-0.41,-0.72,-4.26,-4.26,-4.26
128.57,-3.11,-3.12,1.21,1.20,-1.19,-0.47,-0.75,-4.31,-4.31,-4.32
129.85,-3.11,-3.13,1.26,1.24,-1.24,-0.52,-0.78,-4.35,-4.37,-4.37
131.15,-3.16,-3.15,1.26,1.27,-1.28,-0.57,-0.81,-4.44,-4.42,-4.42
132.46,-3.16,-3.16,1.30,1.30,-1.32,-0.62,-0.83,-4.48,-4.48,-4.47
133.79,-3.16,-3.17,1.34,1.34,-1.35,-0.68,-0.86,-4.52,-4.52,-4.50
135.12,-3.16,-3.16,1.40,1.39,-1.40,-0.73,-0.88,-4.56,-4.56,-4.56
136.48,-3.16,-3.16,1.43,1.43,-1.44,-0.78,-0.91,-4.60,-4.60,-4.60
137.84,-3.16,-3.16,1.48,1.48,-1.48,-0.83,-0.93,-4.64,-4.64,-4.64
139.22,-3.16,-3.16,1.53,1.52,-1.52,-0.88,-0.95,-4.68,-4.68,-4.69
140.61,-3.16,-3.16,1.57,1.56,-1.56,-0.93,-0.97,-4.73,-4.73,-4.74
142.02,-3.16,-3.16,1.59,1.60,-1.60,-0.97,-0.99,-4.76,-4.76,-4.76
143.44,-3.16,-3.16,1.63,1.64,-1.63,-1.02,-1.02,-4.80,-4.79,-4.80
144.87,-3.16,-3.17,1.68,1.66,-1.66,-1.07,-1.04,-4.83,-4.83,-4.84
146.32,-3.18,-3.19,1.69,1.69,-1.69,-1.12,-1.06,-4.87,-4.88,-4.88
147.78,-3.21,-3.20,1.69,1.71,-1.72,-1.16,-1.08,-4.93,-4.92,-4.91
149.26,-3.21,-3.22,1.73,1.73,-1.74,-1.21,-1.10,-4.95,-4.96,-4.95
150.75,-3.21,-3.23,1.78,1.76,-1.76,-1.25,-1.12,-4.98,-4.99,-4.99
152.26,-3.25,-3.24,1.78,1.79,-1.78,-1.30,-1.15,-5.04,-5.02,-5.03
153.78,-3.25,-3.26,1.81,1.81,-1.81,-1.34,-1.17,-5.06,-5.07,-5.07
155.32,-3.27,-3.28,1.84,1.83,-1.83,-1.39,-1.19,-5.10,-5.11,-5.11
156.88,-3.30,-3.30,1.84,1.85,-1.85,-1.43,-1.22,-5.15,-5.15,-5.14
158.44,-3.31,-3.32,1.87,1.87,-1.87,-1.47,-1.24,-5.18,-5.19,-5.19
160.03,-3.35,-3.34,1.87,1.89,-1.89,-1.51,-1.27,-5.24,-5.23,-5.23
161.63,-3.35,-3.37,1.92,1.90,-1.90,-1.56,-1.29,-5.26,-5.27,-5.27
163.24,-3.39,-3.39,1.92,1.92,-1.91,-1.60,-1.32,-5.31,-5.30,-5.31
164.88,-3.41,-3.41,1.93,1.93,-1.93,-1.64,-1.35,-5.34,-5.34,-5.34
166.53,-3.44,-3.45,1.94,1.93,-1.94,-1.68,-1.38,-5.38,-5.38,-5.38
168.19,-3.47,-3.47,1.94,1.94,-1.94,-1.72,-1.41,-5.42,-5.42,-5.42
169.87,-3.50,-3.51,1.95,1.95,-1.95,-1.76,-1.44,-5.46,-5.46,-5.46
171.57,-3.53,-3.54,1.96,1.95,-1.96,-1.80,-1.47,-5.49,-5.50,-5.49
173.29,-3.57,-3.57,1.95,1.96,-1.96,-1.84,-1.51,-5.54,-5.53,-5.53
175.02,-3.60,-3.60,1.96,1.97,-1.97,-1.88,-1.54,-5.58,-5.57,-5.56
176.77,-3.62,-3.63,1.98,1.98,-1.98,-1.92,-1.58,-5.60,-5.61,-5.61
178.54,-3.66,-3.66,1.99,1.99,-1.99,-1.96,-1.62,-5.65,-5.65,-5.65
180.32,-3.69,-3.69,1.99,1.99,-1.99,-2.00,-1.66,-5.69,-5.68,-5.69
182.13,-3.72,-3.73,1.99,2.00,-2.00,-2.04,-1.70,-5.72,-5.72,-5.72
183.95,-3.75,-3.75,2.01,2.01,-2.00,-2.07,-1.74,-5.76,-5.75,-5.76
185.79,-3.78,-3.79,2.01,2.01,-2.00,-2.11,-1.78,-5.79,-5.79,-5.79
187.65,-3.81,-3.82,2.02,2.01,-2.01,-2.15,-1.83,-5.82,-5.83,-5.83
189.52,-3.86,-3.85,2.00,2.01,-2.01,-2.18,-1.87,-5.87,-5.86,-5.86
191.42,-3.88,-3.88,2.01,2.01,-2.01,-2.22,-1.92,-5.90,-5.90,-5.89
193.33,-3.90,-3.91,2.02,2.01,-2.02,-2.26,-1.96,-5.92,-5.93,-5.92
195.27,-3.93,-3.93,2.02,2.02,-2.02,-2.29,-2.01,-5.96,-5.95,-5.95
197.22,-3.95,-3.95,2.02,2.04,-2.03,-2.33,-2.06,-5.98,-5.97,-5.98
199.19,-3.95,-3.96,2.06,2.05,-2.04,-2.36,-2.11,-5.99,-6.00,-6.01
201.18,-3.96,-3.98,2.07,2.05,-2.05,-2.40,-2.16,-6.02,-6.03,-6.03
203.19,-4.00,-3.99,2.04,2.07,-2.07,-2.43,-2.21,-6.08,-6.06,-6.05
205.23,-3.99,-3.99,2.08,2.08,-2.09,-2.47,-2.26,-6.09,-6.08,-6.07
207.28,-3.95,-3.97,2.12,2.11,-2.12,-2.50,-2.32,-6.08,-6.09,-6.08
209.35,-3.95,-3.95,2.15,2.16,-2.15,-2.54,-2.37,-6.11,-6.10,-6.10
211.44,-3.92,-3.93,2.20,2.19,-2.19,-2.57,-2.42,-6.11,-6.11,-6.13
213.56,-3.90,-3.90,2.23,2.23,-2.23,-2.60,-2.47,-6.13,-6.13,-6.13
215.69,-3.86,-3.87,2.27,2.27,-2.27,-2.64,-2.52,-6.14,-6.14,-6.13
217.85,-3.83,-3.83,2.31,2.31,-2.32,-2.67,-2.57,-6.15,-6.15,-6.15
220.03,-3.80,-3.79,2.35,2.36,-2.36,-2.70,-2.62,-6.17,-6.15,-6.16
222.23,-3.74,-3.76,2.43,2.41,-2.40,-2.73,-2.67,-6.15,-6.16,-6.17
224.45,-3.71,-3.72,2.45,2.45,-2.44,-2.77,-2.72,-6.16,-6.16,-6.16
226.70,-3.68,-3.68,2.48,2.49,-2.48,-2.80,-2.76,-6.17,-6.16,-6.16
228.96,-3.63,-3.64,2.53,2.52,-2.52,-2.83,-2.81,-6.16,-6.17,-6.16
231.25,-3.60,-3.60,2.55,2.55,-2.56,-2.86,-2.85,-6.16,-6.16,-6.15
233.57,-3.57,-3.56,2.58,2.59,-2.59,-2.89,-2.89,-6.17,-6.16,-6.15
235.90,-3.51,-3.52,2.64,2.63,-2.63,-2.92,-2.93,-6.14,-6.15,-6.15
238.26,-3.48,-3.49,2.67,2.66,-2.66,-2.95,-2.96,-6.14,-6.15,-6.15
240.64,-3.45,-3.45,2.69,2.69,-2.69,-2.98,-2.99,-6.15,-6.14,-6.14
243.05,-3.42,-3.42,2.71,2.72,-2.72,-3.01,-3.02,-6.15,-6.14,-6.13
245.48,-3.36,-3.37,2.76,2.75,-2.75,-3.04,-3.05,-6.12,-6.12,-6.12
247.93,-3.33,-3.33,2.77,2.78,-2.78,-3.07,-3.07,-6.11,-6.11,-6.11
250.41,-3.28,-3.29,2.82,2.81,-2.81,-3.10,-3.09,-6.09,-6.10,-6.11
252.92,-3.25,-3.25,2.83,2.83,-2.83,-3.13,-3.11,-6.09,-6.08,-6.08
255.45,-3.21,-3.21,2.85,2.86,-2.86,-3.16,-3.13,-6.07,-6.07,-6.06
258.00,-3.16,-3.17,2.88,2.88,-2.88,-3.19,-3.14,-6.05,-6.05,-6.05
260.58,-3.13,-3.13,2.90,2.90,-2.90,-3.21,-3.15,-6.04,-6.03,-6.03
263.19,-3.08,-3.09,2.93,2.93,-2.92,-3.24,-3.15,-6.01,-6.01,-6.01
265.82,-3.05,-3.05,2.94,2.94,-2.94,-3.27,-3.16,-5.99,-5.99,-6.00
268.48,-3.01,-3.01,2.96,2.96,-2.96,-3.29,-3.16,-5.97,-5.97,-5.97
271.16,-2.97,-2.98,2.97,2.97,-2.97,-3.32,-3.16,-5.95,-5.95,-5.95
273.87,-2.95,-2.95,2.98,2.98,-2.98,-3.35,-3.16,-5.94,-5.93,-5.94
276.61,-2.92,-2.92,2.99,2.99,-2.99,-3.37,-3.15,-5.92,-5.91,-5.91
279.38,-2.88,-2.89,3.01,3.00,-3.00,-3.40,-3.15,-5.89,-5.89,-5.90
282.17,-2.86,-2.86,3.02,3.02,-3.01,-3.43,-3.14,-5.88,-5.87,-5.88
284.99,-2.83,-2.84,3.02,3.02,-3.02,-3.45,-3.13,-5.86,-5.86,-5.86
287.84,-2.80,-2.81,3.04,3.03,-3.04,-3.48,-3.13,-5.84,-5.84,-5.84
290.72,-2.77,-2.77,3.04,3.05,-3.05,-3.50,-3.12,-5.83,-5.82,-5.82
293.63,-2.72,-2.73,3.08,3.07,-3.08,-3.52,-3.11,-5.80,-5.80,-5.80
296.57,-2.67,-2.68,3.10,3.10,-3.10,-3.55,-3.10,-5.78,-5.78,-5.77
299.53,-2.62,-2.62,3.13,3.13,-3.14,-3.57,-3.10,-5.76,-5.76,-5.76
302.53,-2.57,-2.57,3.17,3.17,-3.18,-3.59,-3.09,-5.75,-5.74,-5.74
305.55,-2.48,-2.49,3.22,3.22,-3.22,-3.62,-3.09,-5.71,-5.72,-5.71
308.61,-2.42,-2.42,3.26,3.27,-3.27,-3.64,-3.08,-5.70,-5.69,-5.69
311.69,-2.32,-2.33,3.34,3.33,-3.33,-3.66,-3.08,-5.65,-5.66,-5.66
314.81,-2.25,-2.25,3.37,3.38,-3.39,-3.68,-3.08,-5.64,-5.64,-5.63
317.96,-2.16,-2.16,3.44,3.45,-3.44,-3.71,-3.08,-5.61,-5.61,-5.61
321.14,-2.08,-2.08,3.51,3.51,-3.50,-3.73,-3.08,-5.59,-5.59,-5.59
324.35,-2.00,-2.01,3.57,3.57,-3.56,-3.75,-3.08,-5.56,-5.57,-5.58
327.59,-1.93,-1.94,3.61,3.62,-3.61,-3.77,-3.09,-5.55,-5.55,-5.55
330.87,-1.87,-1.87,3.66,3.66,-3.66,-3.79,-3.10,-5.53,-5.53,-5.53
334.18,-1.80,-1.81,3.71,3.71,-3.70,-3.81,-3.11,-5.51,-5.51,-5.51
337.52,-1.74,-1.75,3.75,3.75,-3.74,-3.83,-3.12,-5.49,-5.49,-5.50
340.90,-1.69,-1.69,3.77,3.78,-3.77,-3.85,-3.14,-5.47,-5.47,-5.47
344.30,-1.65,-1.65,3.80,3.80,-3.80,-3.87,-3.15,-5.46,-5.45,-5.45
347.75,-1.60,-1.61,3.83,3.82,-3.83,-3.88,-3.17,-5.43,-5.44,-5.43
351.23,-1.57,-1.57,3.84,3.85,-3.85,-3.90,-3.19,-5.42,-5.42,-5.42
354.74,-1.53,-1.53,3.86,3.87,-3.87,-3.92,-3.22,-5.41,-5.40,-5.40
358.28,-1.48,-1.49,3.90,3.89,-3.89,-3.94,-3.25,-5.37,-5.38,-5.38
361.87,-1.45,-1.45,3.91,3.91,-3.91,-3.95,-3.28,-5.36,-5.36,-5.36
365.49,-1.42,-1.42,3.92,3.92,-3.92,-3.97,-3.31,-5.35,-5.35,-5.34
369.14,-1.39,-1.39,3.94,3.94,-3.94,-3.99,-3.34,-5.33,-5.33,-5.34
372.83,-1.36,-1.36,3.95,3.96,-3.95,-4.00,-3.38,-5.32,-5.32,-5.32
376.56,-1.33,-1.33,3.98,3.97,-3.97,-4.02,-3.42,-5.31,-5.30,-5.31
380.33,-1.30,-1.31,3.98,3.98,-3.99,-4.03,-3.46,-5.29,-5.29,-5.28
384.13,-1.27,-1.28,4.00,4.00,-4.00,-4.05,-3.50,-5.28,-5.28,-5.27
387.97,-1.25,-1.24,4.01,4.02,-4.02,-4.06,-3.55,-5.28,-5.26,-5.27
391.85,-1.20,-1.21,4.05,4.04,-4.04,-4.08,-3.60,-5.24,-5.25,-5.26
395.77,-1.17,-1.18,4.06,4.06,-4.06,-4.09,-3.65,-5.23,-5.24,-5.24
399.73,-1.16,-1.15,4.06,4.08,-4.08,-4.10,-3.70,-5.24,-5.23,-5.23
403.72,-1.11,-1.13,4.11,4.09,-4.10,-4.11,-3.75,-5.21,-5.22,-5.22
407.76,-1.10,-1.09,4.11,4.11,-4.11,-4.13,-3.80,-5.22,-5.21,-5.21
411.84,-1.06,-1.06,4.13,4.13,-4.13,-4.14,-3.86,-5.20,-5.19,-5.19
415.96,-1.02,-1.04,4.16,4.15,-4.15,-4.15,-3.91,-5.17,-5.18,-5.18
420.12,-1.02,-1.01,4.15,4.16,-4.16,-4.16,-3.97,-5.18,-5.17,-5.18
424.32,-0.99,-1.00,4.17,4.17,-4.17,-4.17,-4.03,-5.17,-5.17,-5.17
428.56,-0.97,-0.98,4.18,4.18,-4.18,-4.18,-4.08,-5.16,-5.16,-5.16
432.85,-0.97,-0.96,4.17,4.19,-4.19,-4.19,-4.14,-5.16,-5.15,-5.15
