frequency,raw,smoothed,error,error_smoothed,equalization,parametric_eq,fixed_band_eq,equalized_raw,equalized_smoothed,target
20.00,5.79,5.79,-0.50,-0.50,0.50,0.82,0.44,6.29,6.29,6.29
20.20,5.78,5.79,-0.51,-0.51,0.50,0.83,0.46,6.29,6.29,6.29
20.40,5.77,5.78,-0.52,-0.51,0.51,0.83,0.47,6.29,6.29,6.29
20.61,5.77,5.77,-0.52,-0.52,0.52,0.83,0.48,6.29,6.29,6.29
20.81,5.76,5.76,-0.52,-0.53,0.53,0.83,0.50,6.29,6.29,6.29
21.02,5.75,5.76,-0.53,-0.53,0.54,0.84,0.51,6.29,6.29,6.29
21.23,5.74,5.74,-0.54,-0.54,0.54,0.84,0.52,6.29,6.29,6.29
21.44,5.73,5.73,-0.55,-0.55,0.55,0.84,0.54,6.29,6.29,6.29
21.66,5.72,5.72,-0.56,-0.56,0.56,0.84,0.55,6.29,6.29,6.29
21.87,5.71,5.71,-0.57,-0.57,0.57,0.85,0.57,6.28,6.28,6.29
22.09,5.70,5.70,-0.58,-0.58,0.58,0.85,0.59,6.28,6.28,6.28
22.31,5.69,5.69,-0.59,-0.59,0.59,0.85,0.60,6.28,6.28,6.28
22.54,5.68,5.68,-0.60,-0.60,0.60,0.85,0.62,6.28,6.28,6.28
22.76,5.67,5.67,-0.61,-0.61,0.61,0.86,0.64,6.28,6.28,6.28
22.99,5.66,5.66,-0.62,-0.62,0.62,0.86,0.65,6.28,6.28,6.28
23.22,5.65,5.65,-0.63,-0.63,0.62,0.86,0.67,6.28,6.28,6.28
23.45,5.64,5.64,-0.63,-0.63,0.63,0.87,0.69,6.28,6.28,6.28
23.69,5.63,5.64,-0.64,-0.64,0.64,0.87,0.71,6.28,6.28,6.28
23.92,5.62,5.62,-0.65,-0.65,0.65,0.87,0.73,6.28,6.28,6.28
24.16,5.61,5.61,-0.66,-0.66,0.66,0.88,0.75,6.28,6.28,6.28
24.40,5.59,5.60,-0.68,-0.68,0.68,0.88,0.77,6.27,6.27,6.27
24.65,5.58,5.59,-0.69,-0.69,0.69,0.88,0.79,6.27,6.27,6.27
24.89,5.57,5.57,-0.70,-0.70,0.70,0.89,0.81,6.27,6.27,6.27
25.14,5.56,5.56,-0.71,-0.71,0.71,0.89,0.83,6.27,6.27,6.27
25.39,5.54,5.55,-0.72,-0.72,0.72,0.90,0.85,6.27,6.27,6.27
25.65,5.53,5.53,-0.73,-0.73,0.73,0.90,0.88,6.27,6.27,6.27
25.91,5.52,5.52,-0.74,-0.74,0.74,0.90,0.90,6.27,6.27,6.27
26.16,5.50,5.51,-0.76,-0.76,0.76,0.91,0.92,6.26,6.26,6.26
26.43,5.49,5.49,-0.77,-0.77,0.77,0.91,0.94,6.27,6.26,6.26
26.69,5.47,5.48,-0.79,-0.78,0.78,0.92,0.96,6.26,6.26,6.26
26.96,5.46,5.46,-0.79,-0.80,0.80,0.92,0.98,6.26,6.26,6.26
27.23,5.44,5.44,-0.81,-0.81,0.81,0.93,1.01,6.26,6.26,6.26
27.50,5.42,5.43,-0.83,-0.83,0.83,0.93,1.03,6.25,6.25,6.26
27.77,5.41,5.41,-0.84,-0.84,0.84,0.94,1.05,6.25,6.25,6.25
28.05,5.39,5.40,-0.86,-0.85,0.86,0.94,1.07,6.25,6.25,6.25
28.33,5.38,5.38,-0.87,-0.87,0.87,0.95,1.09,6.25,6.25,6.25
28.62,5.36,5.36,-0.88,-0.88,0.88,0.95,1.11,6.25,6.25,6.25
28.90,5.34,5.35,-0.90,-0.90,0.90,0.96,1.13,6.24,6.24,6.24
29.19,5.32,5.33,-0.92,-0.91,0.91,0.96,1.15,6.24,6.24,6.24
29.48,5.31,5.31,-0.93,-0.93,0.93,0.97,1.16,6.24,6.24,6.24
29.78,5.29,5.29,-0.94,-0.94,0.94,0.98,1.18,6.24,6.24,6.24
30.08,5.27,5.28,-0.96,-0.96,0.96,0.98,1.20,6.24,6.24,6.24
30.38,5.25,5.25,-0.98,-0.98,0.98,0.99,1.21,6.23,6.23,6.23
30.68,5.23,5.23,-1.00,-0.99,0.99,1.00,1.23,6.23,6.23,6.23
30.99,5.21,5.21,-1.01,-1.01,1.01,1.00,1.24,6.23,6.23,6.23
31.30,5.19,5.19,-1.03,-1.03,1.03,1.01,1.25,6.22,6.22,6.22
31.61,5.17,5.17,-1.05,-1.05,1.04,1.02,1.26,6.22,6.22,6.22
31.93,5.15,5.15,-1.06,-1.06,1.06,1.03,1.28,6.22,6.22,6.22
32.24,5.13,5.14,-1.08,-1.08,1.08,1.03,1.29,6.21,6.22,6.21
32.57,5.11,5.11,-1.10,-1.10,1.10,1.04,1.29,6.21,6.21,6.21
32.89,5.09,5.09,-1.11,-1.12,1.12,1.05,1.30,6.21,6.21,6.21
33.22,5.06,5.07,-1.14,-1.13,1.13,1.06,1.31,6.20,6.20,6.20
33.55,5.04,5.04,-1.15,-1.15,1.15,1.07,1.32,6.20,6.20,6.20
33.89,5.02,5.02,-1.17,-1.17,1.17,1.08,1.33,6.20,6.19,6.19
34.23,4.99,5.00,-1.20,-1.19,1.19,1.09,1.33,6.19,6.19,6.19
34.57,4.97,4.97,-1.21,-1.21,1.21,1.10,1.34,6.19,6.19,6.19
34.92,4.95,4.95,-1.23,-1.23,1.23,1.11,1.35,6.18,6.18,6.18
35.27,4.92,4.93,-1.25,-1.25,1.25,1.12,1.35,6.17,6.18,6.18
35.62,4.90,4.90,-1.27,-1.27,1.27,1.13,1.36,6.17,6.17,6.17
35.97,4.88,4.88,-1.28,-1.29,1.29,1.14,1.37,6.17,6.17,6.17
36.33,4.85,4.86,-1.31,-1.30,1.31,1.15,1.37,6.16,6.16,6.16
36.70,4.83,4.83,-1.32,-1.32,1.32,1.16,1.38,6.16,6.16,6.16
37.06,4.80,4.81,-1.35,-1.34,1.34,1.18,1.39,6.15,6.15,6.15
37.43,4.78,4.78,-1.36,-1.36,1.36,1.19,1.39,6.15,6.14,6.14
37.81,4.75,4.75,-1.38,-1.38,1.38,1.20,1.40,6.14,6.14,6.14
38.19,4.72,4.73,-1.41,-1.40,1.40,1.22,1.41,6.13,6.13,6.13
38.57,4.70,4.70,-1.42,-1.43,1.42,1.23,1.42,6.13,6.12,6.13
38.95,4.67,4.67,-1.44,-1.44,1.44,1.25,1.43,6.12,6.12,6.12
39.34,4.64,4.65,-1.47,-1.46,1.46,1.26,1.44,6.11,6.11,6.11
39.74,4.62,4.62,-1.48,-1.48,1.48,1.28,1.45,6.11,6.11,6.10
40.14,4.59,4.59,-1.50,-1.50,1.51,1.29,1.47,6.10,6.10,6.10
40.54,4.56,4.57,-1.52,-1.52,1.53,1.31,1.48,6.09,6.09,6.09
40.94,4.53,4.53,-1.55,-1.55,1.55,1.33,1.50,6.08,6.08,6.08
41.35,4.50,4.50,-1.57,-1.57,1.57,1.35,1.51,6.07,6.07,6.07
41.76,4.47,4.47,-1.59,-1.59,1.59,1.36,1.53,6.06,6.06,6.06
42.18,4.44,4.45,-1.61,-1.61,1.61,1.38,1.55,6.05,6.05,6.05
42.60,4.42,4.42,-1.62,-1.62,1.63,1.40,1.57,6.05,6.05,6.05
43.03,4.39,4.39,-1.64,-1.64,1.65,1.42,1.59,6.04,6.04,6.04
43.46,4.36,4.36,-1.66,-1.66,1.66,1.44,1.62,6.03,6.03,6.03
43.90,4.33,4.33,-1.68,-1.68,1.68,1.46,1.64,6.02,6.02,6.02
44.33,4.29,4.30,-1.71,-1.71,1.70,1.49,1.67,6.00,6.00,6.00
44.78,4.26,4.27,-1.73,-1.73,1.73,1.51,1.69,5.99,5.99,5.99
45.23,4.23,4.23,-1.75,-1.75,1.75,1.53,1.72,5.98,5.98,5.98
45.68,4.20,4.20,-1.76,-1.77,1.77,1.56,1.75,5.97,5.97,5.97
46.13,4.17,4.17,-1.78,-1.79,1.79,1.58,1.78,5.96,5.96,5.96
46.60,4.13,4.14,-1.81,-1.81,1.81,1.61,1.81,5.94,5.94,5.94
47.06,4.10,4.10,-1.83,-1.83,1.82,1.63,1.84,5.93,5.93,5.93
47.53,4.07,4.07,-1.84,-1.84,1.84,1.66,1.88,5.92,5.92,5.92
48.01,4.04,4.04,-1.86,-1.86,1.86,1.69,1.91,5.91,5.90,5.90
48.49,4.01,4.01,-1.87,-1.88,1.88,1.71,1.95,5.89,5.89,5.89
48.97,3.97,3.98,-1.90,-1.90,1.90,1.74,1.99,5.87,5.87,5.87
49.46,3.94,3.94,-1.91,-1.92,1.91,1.77,2.03,5.86,5.86,5.86
49.96,3.90,3.91,-1.94,-1.93,1.93,1.80,2.06,5.84,5.84,5.84
50.46,3.87,3.87,-1.95,-1.95,1.95,1.83,2.10,5.82,5.82,5.82
50.96,3.84,3.84,-1.96,-1.96,1.97,1.86,2.14,5.81,5.81,5.81
51.47,3.80,3.81,-1.98,-1.98,1.98,1.89,2.18,5.79,5.79,5.79
51.99,3.77,3.77,-1.99,-2.00,2.00,1.92,2.22,5.77,5.77,5.77
52.51,3.73,3.74,-2.02,-2.01,2.01,1.95,2.26,5.75,5.75,5.75
53.03,3.70,3.70,-2.03,-2.03,2.03,1.98,2.30,5.73,5.73,5.73
53.56,3.66,3.67,-2.04,-2.04,2.04,2.01,2.34,5.70,5.71,5.71
54.10,3.63,3.63,-2.05,-2.05,2.05,2.04,2.37,5.69,5.69,5.69
54.64,3.60,3.60,-2.06,-2.06,2.07,2.07,2.41,5.67,5.67,5.67
55.18,3.56,3.57,-2.08,-2.08,2.08,2.10,2.45,5.64,5.64,5.64
55.74,3.53,3.53,-2.09,-2.09,2.09,2.13,2.48,5.62,5.62,5.62
56.29,3.49,3.50,-2.10,-2.10,2.10,2.16,2.51,5.59,5.60,5.60
56.86,3.46,3.46,-2.11,-2.11,2.11,2.18,2.54,5.57,5.57,5.57
57.42,3.42,3.43,-2.12,-2.12,2.12,2.21,2.57,5.54,5.55,5.55
58.00,3.39,3.39,-2.12,-2.13,2.13,2.23,2.59,5.52,5.52,5.52
58.58,3.35,3.35,-2.14,-2.14,2.14,2.26,2.61,5.49,5.49,5.49
59.16,3.31,3.32,-2.15,-2.15,2.14,2.28,2.63,5.46,5.46,5.46
59.76,3.28,3.28,-2.15,-2.15,2.15,2.30,2.65,5.44,5.43,5.43
60.35,3.24,3.25,-2.16,-2.16,2.16,2.32,2.66,5.40,5.41,5.41
60.96,3.21,3.21,-2.16,-2.16,2.16,2.33,2.67,5.38,5.38,5.37
61.57,3.17,3.17,-2.17,-2.17,2.17,2.34,2.67,5.34,5.34,5.34
62.18,3.13,3.14,-2.18,-2.17,2.17,2.36,2.67,5.31,5.31,5.31
62.80,3.09,3.10,-2.18,-2.18,2.18,2.36,2.67,5.27,5.28,5.28
63.43,3.06,3.06,-2.18,-2.18,2.18,2.37,2.66,5.25,5.24,5.24
64.07,3.02,3.02,-2.18,-2.18,2.18,2.37,2.65,5.21,5.21,5.21
64.71,2.98,2.98,-2.19,-2.19,2.19,2.37,2.63,5.17,5.17,5.17
65.35,2.94,2.95,-2.19,-2.19,2.19,2.37,2.61,5.13,5.13,5.13
66.01,2.90,2.91,-2.19,-2.19,2.19,2.36,2.59,5.09,5.10,5.10
66.67,2.87,2.87,-2.18,-2.19,2.19,2.36,2.56,5.06,5.06,5.06
67.33,2.83,2.83,-2.18,-2.18,2.18,2.34,2.53,5.02,5.02,5.02
68.01,2.79,2.80,-2.18,-2.18,2.18,2.33,2.50,4.98,4.98,4.98
68.69,2.75,2.75,-2.18,-2.18,2.18,2.31,2.47,4.93,4.93,4.93
69.37,2.71,2.71,-2.18,-2.18,2.18,2.30,2.43,4.89,4.89,4.89
70.07,2.67,2.68,-2.17,-2.17,2.17,2.27,2.39,4.85,4.85,4.85
70.77,2.63,2.63,-2.17,-2.17,2.17,2.25,2.35,4.80,4.80,4.80
71.48,2.59,2.59,-2.16,-2.17,2.17,2.23,2.30,4.76,4.76,4.76
72.19,2.54,2.55,-2.16,-2.16,2.16,2.20,2.26,4.70,4.71,4.71
72.91,2.50,2.50,-2.16,-2.16,2.15,2.17,2.21,4.66,4.66,4.66
73.64,2.46,2.46,-2.15,-2.15,2.15,2.14,2.16,4.61,4.61,4.61
74.38,2.42,2.43,-2.14,-2.14,2.14,2.11,2.12,4.56,4.56,4.56
75.12,2.38,2.38,-2.13,-2.13,2.13,2.07,2.07,4.51,4.51,4.51
75.87,2.34,2.34,-2.11,-2.12,2.12,2.04,2.02,4.46,4.46,4.46
76.63,2.29,2.30,-2.11,-2.11,2.11,2.00,1.97,4.40,4.40,4.40
77.40,2.25,2.25,-2.10,-2.10,2.09,1.97,1.92,4.35,4.35,4.35
78.17,2.21,2.21,-2.08,-2.08,2.08,1.93,1.87,4.29,4.29,4.29
78.95,2.17,2.17,-2.06,-2.07,2.06,1.90,1.82,4.24,4.24,4.24
79.74,2.13,2.13,-2.05,-2.05,2.04,1.86,1.77,4.18,4.18,4.18
80.54,2.09,2.10,-2.03,-2.03,2.02,1.82,1.73,4.12,4.12,4.12
81.35,2.06,2.06,-2.00,-2.00,2.00,1.78,1.68,4.07,4.07,4.06
82.16,2.02,2.02,-1.98,-1.98,1.98,1.75,1.63,4.01,4.01,4.00
82.98,1.98,1.99,-1.96,-1.96,1.96,1.71,1.59,3.94,3.94,3.94
83.81,1.94,1.94,-1.94,-1.94,1.94,1.67,1.54,3.88,3.88,3.88
84.65,1.90,1.90,-1.91,-1.91,1.91,1.63,1.50,3.82,3.82,3.82
85.50,1.86,1.86,-1.89,-1.89,1.89,1.60,1.46,3.75,3.75,3.75
86.35,1.82,1.82,-1.87,-1.87,1.87,1.56,1.41,3.69,3.69,3.69
87.22,1.78,1.78,-1.84,-1.84,1.84,1.53,1.37,3.63,3.63,3.62
88.09,1.74,1.74,-1.81,-1.81,1.82,1.49,1.33,3.56,3.56,3.56
88.97,1.70,1.70,-1.79,-1.79,1.79,1.46,1.30,3.49,3.49,3.49
89.86,1.66,1.67,-1.76,-1.76,1.76,1.42,1.26,3.42,3.42,3.42
90.76,1.62,1.63,-1.73,-1.73,1.73,1.39,1.22,3.35,3.35,3.36
91.66,1.59,1.59,-1.69,-1.70,1.69,1.36,1.19,3.29,3.29,3.29
92.58,1.55,1.56,-1.66,-1.66,1.66,1.32,1.15,3.21,3.22,3.22
93.51,1.52,1.52,-1.62,-1.62,1.63,1.29,1.12,3.15,3.15,3.15
94.44,1.49,1.49,-1.58,-1.59,1.59,1.26,1.09,3.08,3.08,3.08
95.39,1.45,1.46,-1.55,-1.55,1.55,1.23,1.05,3.01,3.01,3.01
96.34,1.42,1.42,-1.51,-1.51,1.52,1.20,1.02,2.94,2.94,2.94
97.30,1.38,1.39,-1.48,-1.48,1.48,1.17,0.99,2.86,2.87,2.87
98.28,1.35,1.35,-1.44,-1.44,1.44,1.14,0.96,2.80,2.79,2.79
99.26,1.31,1.31,-1.41,-1.41,1.41,1.12,0.94,2.72,2.72,2.72
100.25,1.27,1.28,-1.37,-1.37,1.37,1.09,0.91,2.64,2.65,2.65
101.25,1.24,1.24,-1.33,-1.34,1.33,1.06,0.88,2.58,2.57,2.58
102.27,1.20,1.21,-1.30,-1.30,1.30,1.04,0.86,2.50,2.50,2.50
103.29,1.17,1.17,-1.26,-1.26,1.26,1.01,0.83,2.43,2.43,2.43
104.32,1.14,1.14,-1.21,-1.22,1.22,0.99,0.81,2.36,2.36,2.36
105.37,1.10,1.11,-1.18,-1.18,1.18,0.96,0.78,2.28,2.28,2.28
106.42,1.07,1.07,-1.14,-1.14,1.13,0.94,0.76,2.21,2.21,2.21
107.48,1.04,1.05,-1.09,-1.09,1.09,0.92,0.74,2.13,2.13,2.14
108.56,1.02,1.02,-1.04,-1.04,1.04,0.89,0.72,2.06,2.06,2.07
109.64,1.00,1.00,-0.99,-0.99,0.99,0.87,0.70,1.99,1.99,1.99
110.74,0.98,0.98,-0.94,-0.94,0.94,0.85,0.68,1.92,1.92,1.92
111.85,0.95,0.96,-0.89,-0.89,0.89,0.83,0.66,1.85,1.85,1.85
112.97,0.93,0.94,-0.84,-0.84,0.84,0.81,0.64,1.78,1.78,1.78
114.10,0.91,0.91,-0.79,-0.80,0.80,0.79,0.62,1.71,1.71,1.70
115.24,0.87,0.88,-0.76,-0.75,0.76,0.77,0.60,1.63,1.64,1.63
116.39,0.84,0.85,-0.72,-0.72,0.72,0.75,0.58,1.56,1.56,1.56
117.55,0.81,0.81,-0.68,-0.68,0.68,0.73,0.56,1.50,1.49,1.49
118.73,0.77,0.77,-0.65,-0.65,0.65,0.71,0.54,1.42,1.42,1.42
119.92,0.73,0.74,-0.62,-0.62,0.61,0.69,0.52,1.35,1.35,1.35
121.12,0.69,0.70,-0.59,-0.59,0.58,0.68,0.51,1.28,1.28,1.28
122.33,0.66,0.66,-0.55,-0.55,0.55,0.66,0.49,1.22,1.22,1.22
123.55,0.62,0.63,-0.52,-0.52,0.53,0.64,0.47,1.15,1.15,1.15
124.79,0.58,0.58,-0.50,-0.50,0.50,0.63,0.45,1.09,1.09,1.08
126.03,0.54,0.54,-0.47,-0.47,0.48,0.61,0.44,1.02,1.02,1.01
127.29,0.49,0.50,-0.45,-0.45,0.45,0.60,0.42,0.95,0.95,0.95
128.57,0.45,0.45,-0.43,-0.43,0.43,0.58,0.40,0.88,0.88,0.88
129.85,0.41,0.41,-0.41,-0.41,0.40,0.57,0.39,0.82,0.81,0.82
131.15,0.37,0.38,-0.38,-0.38,0.37,0.55,0.37,0.75,0.75,0.76
132.46,0.35,0.35,-0.34,-0.34,0.34,0.54,0.35,0.69,0.69,0.70
133.79,0.33,0.33,-0.30,-0.30,0.30,0.53,0.34,0.63,0.63,0.63
135.12,0.31,0.32,-0.26,-0.26,0.25,0.51,0.32,0.57,0.57,0.57
136.48,0.30,0.31,-0.21,-0.21,0.20,0.50,0.30,0.51,0.51,0.51
137.84,0.30,0.30,-0.15,-0.16,0.15,0.49,0.29,0.46,0.45,0.46
139.22,0.29,0.29,-0.10,-0.10,0.10,0.48,0.27,0.40,0.40,0.40
140.61,0.28,0.29,-0.06,-0.05,0.05,0.47,0.25,0.34,0.34,0.34
142.02,0.28,0.28,-0.00,-0.00,0.01,0.45,0.24,0.29,0.29,0.29
143.44,0.27,0.27,0.04,0.04,-0.03,0.44,0.22,0.24,0.24,0.23
144.87,0.25,0.25,0.08,0.08,-0.07,0.43,0.20,0.19,0.19,0.18
146.32,0.22,0.23,0.10,0.10,-0.10,0.42,0.19,0.12,0.13,0.12
147.78,0.20,0.20,0.13,0.13,-0.13,0.41,0.17,0.08,0.07,0.07
149.26,0.16,0.17,0.14,0.14,-0.15,0.40,0.15,0.02,0.02,0.02
150.75,0.13,0.14,0.16,0.16,-0.17,0.39,0.14,-0.03,-0.03,-0.03
152.26,0.10,0.10,0.18,0.18,-0.18,0.38,0.12,-0.08,-0.08,-0.08
153.78,0.07,0.07,0.20,0.20,-0.20,0.38,0.10,-0.12,-0.12,-0.12
155.32,0.04,0.04,0.21,0.21,-0.21,0.37,0.08,-0.16,-0.17,-0.17
156.88,0.00,0.00,0.22,0.22,-0.22,0.36,0.07,-0.21,-0.21,-0.21
158.44,-0.04,-0.03,0.22,0.22,-0.22,0.35,0.05,-0.26,-0.26,-0.26
160.03,-0.08,-0.08,0.23,0.23,-0.23,0.34,0.03,-0.31,-0.31,-0.30
161.63,-0.12,-0.12,0.24,0.24,-0.24,0.34,0.01,-0.35,-0.35,-0.35
163.24,-0.16,-0.16,0.24,0.24,-0.24,0.33,-0.00,-0.40,-0.40,-0.40
164.88,-0.20,-0.20,0.24,0.24,-0.24,0.32,-0.02,-0.44,-0.44,-0.44
166.53,-0.24,-0.23,0.24,0.24,-0.25,0.31,-0.04,-0.48,-0.48,-0.48
168.19,-0.27,-0.27,0.25,0.25,-0.25,0.31,-0.06,-0.52,-0.52,-0.51
169.87,-0.30,-0.30,0.26,0.26,-0.25,0.30,-0.08,-0.55,-0.55,-0.55
171.57,-0.33,-0.33,0.26,0.26,-0.26,0.30,-0.09,-0.58,-0.58,-0.59
173.29,-0.36,-0.36,0.27,0.26,-0.26,0.29,-0.11,-0.62,-0.62,-0.62
175.02,-0.40,-0.39,0.26,0.27,-0.27,0.28,-0.13,-0.66,-0.66,-0.66
176.77,-0.43,-0.43,0.27,0.27,-0.27,0.28,-0.15,-0.69,-0.69,-0.69
178.54,-0.46,-0.46,0.27,0.27,-0.27,0.27,-0.17,-0.73,-0.73,-0.72
180.32,-0.49,-0.49,0.27,0.27,-0.27,0.27,-0.19,-0.76,-0.76,-0.76
182.13,-0.52,-0.52,0.27,0.27,-0.27,0.26,-0.21,-0.79,-0.79,-0.79
183.95,-0.55,-0.55,0.27,0.27,-0.27,0.26,-0.23,-0.82,-0.82,-0.82
185.79,-0.58,-0.58,0.27,0.27,-0.27,0.25,-0.25,-0.85,-0.85,-0.85
187.65,-0.61,-0.61,0.27,0.27,-0.27,0.25,-0.27,-0.87,-0.87,-0.87
189.52,-0.64,-0.64,0.27,0.27,-0.27,0.25,-0.29,-0.90,-0.90,-0.90
191.42,-0.67,-0.67,0.26,0.26,-0.26,0.24,-0.31,-0.93,-0.93,-0.93
193.33,-0.70,-0.70,0.26,0.26,-0.26,0.24,-0.33,-0.95,-0.95,-0.95
195.27,-0.73,-0.73,0.25,0.25,-0.25,0.23,-0.35,-0.98,-0.98,-0.98
197.22,-0.76,-0.76,0.25,0.25,-0.25,0.23,-0.37,-1.00,-1.00,-1.00
199.19,-0.79,-0.79,0.24,0.24,-0.24,0.23,-0.39,-1.03,-1.03,-1.03
201.18,-0.82,-0.82,0.23,0.23,-0.24,0.22,-0.41,-1.05,-1.05,-1.05
203.19,-0.85,-0.85,0.23,0.23,-0.23,0.22,-0.43,-1.07,-1.07,-1.07
205.23,-0.88,-0.87,0.22,0.22,-0.22,0.22,-0.45,-1.10,-1.09,-1.09
207.28,-0.90,-0.90,0.22,0.22,-0.21,0.22,-0.47,-1.11,-1.11,-1.11
209.35,-0.93,-0.93,0.21,0.21,-0.20,0.21,-0.49,-1.13,-1.13,-1.13
211.44,-0.96,-0.95,0.20,0.20,-0.20,0.21,-0.50,-1.15,-1.15,-1.15
213.56,-0.99,-0.99,0.19,0.19,-0.19,0.21,-0.52,-1.17,-1.17,-1.17
215.69,-1.02,-1.02,0.18,0.18,-0.18,0.21,-0.54,-1.19,-1.19,-1.19
217.85,-1.05,-1.04,0.16,0.17,-0.17,0.21,-0.55,-1.21,-1.21,-1.21
220.03,-1.07,-1.07,0.16,0.16,-0.16,0.20,-0.57,-1.23,-1.23,-1.23
222.23,-1.09,-1.09,0.16,0.16,-0.15,0.20,-0.58,-1.24,-1.24,-1.24
224.45,-1.11,-1.11,0.15,0.15,-0.15,0.20,-0.60,-1.26,-1.26,-1.26
226.70,-1.13,-1.13,0.15,0.15,-0.15,0.20,-0.61,-1.27,-1.27,-1.27
228.96,-1.15,-1.14,0.14,0.15,-0.15,0.20,-0.62,-1.29,-1.29,-1.29
231.25,-1.16,-1.16,0.15,0.15,-0.15,0.20,-0.63,-1.31,-1.31,-1.30
233.57,-1.17,-1.17,0.15,0.15,-0.15,0.20,-0.64,-1.32,-1.32,-1.32
235.90,-1.18,-1.18,0.17,0.16,-0.16,0.20,-0.64,-1.33,-1.33,-1.34
238.26,-1.19,-1.19,0.17,0.17,-0.16,0.20,-0.65,-1.35,-1.35,-1.35
240.64,-1.20,-1.19,0.17,0.17,-0.17,0.20,-0.65,-1.37,-1.36,-1.37
243.05,-1.20,-1.20,0.18,0.18,-0.18,0.20,-0.65,-1.38,-1.38,-1.38
245.48,-1.21,-1.20,0.18,0.19,-0.19,0.20,-0.65,-1.40,-1.40,-1.39
247.93,-1.21,-1.20,0.20,0.20,-0.20,0.20,-0.65,-1.41,-1.41,-1.40
250.41,-1.21,-1.20,0.21,0.21,-0.21,0.20,-0.64,-1.42,-1.42,-1.41
252.92,-1.20,-1.20,0.23,0.23,-0.22,0.20,-0.64,-1.42,-1.42,-1.42
255.45,-1.20,-1.20,0.24,0.24,-0.23,0.20,-0.63,-1.43,-1.43,-1.43
258.00,-1.20,-1.20,0.25,0.25,-0.24,0.20,-0.62,-1.44,-1.44,-1.44
260.58,-1.21,-1.20,0.25,0.25,-0.25,0.20,-0.60,-1.45,-1.45,-1.45
263.19,-1.21,-1.21,0.26,0.25,-0.25,0.20,-0.59,-1.45,-1.46,-1.46
265.82,-1.23,-1.23,0.25,0.25,-0.25,0.20,-0.57,-1.47,-1.47,-1.47
268.48,-1.25,-1.24,0.23,0.24,-0.24,0.20,-0.56,-1.49,-1.48,-1.48
271.16,-1.26,-1.26,0.23,0.23,-0.23,0.21,-0.54,-1.49,-1.49,-1.49
273.87,-1.28,-1.28,0.22,0.22,-0.22,0.21,-0.51,-1.50,-1.50,-1.50
276.61,-1.30,-1.29,0.21,0.21,-0.21,0.21,-0.49,-1.50,-1.50,-1.50
279.38,-1.32,-1.32,0.19,0.20,-0.19,0.21,-0.47,-1.51,-1.51,-1.51
282.17,-1.34,-1.34,0.18,0.18,-0.18,0.21,-0.44,-1.51,-1.51,-1.52
284.99,-1.36,-1.36,0.16,0.16,-0.16,0.22,-0.41,-1.52,-1.52,-1.51
287.84,-1.38,-1.38,0.14,0.14,-0.14,0.22,-0.38,-1.52,-1.52,-1.51
290.72,-1.40,-1.39,0.12,0.12,-0.13,0.22,-0.36,-1.52,-1.52,-1.52
293.63,-1.41,-1.41,0.12,0.11,-0.11,0.22,-0.33,-1.52,-1.52,-1.52
296.57,-1.43,-1.42,0.09,0.10,-0.09,0.23,-0.29,-1.52,-1.52,-1.52
299.53,-1.44,-1.44,0.08,0.08,-0.08,0.23,-0.26,-1.51,-1.52,-1.52
302.53,-1.46,-1.46,0.07,0.06,-0.06,0.23,-0.23,-1.52,-1.52,-1.52
305.55,-1.48,-1.47,0.04,0.05,-0.05,0.24,-0.20,-1.52,-1.52,-1.52
308.61,-1.49,-1.49,0.04,0.03,-0.03,0.24,-0.16,-1.52,-1.52,-1.52
311.69,-1.50,-1.50,0.02,0.02,-0.02,0.24,-0.13,-1.52,-1.52,-1.52
314.81,-1.52,-1.51,0.01,0.01,-0.00,0.25,-0.09,-1.52,-1.52,-1.52
317.96,-1.53,-1.53,-0.01,-0.01,0.01,0.25,-0.06,-1.52,-1.52,-1.52
321.14,-1.54,-1.54,-0.02,-0.02,0.02,0.26,-0.02,-1.51,-1.52,-1.52
324.35,-1.56,-1.55,-0.04,-0.04,0.04,0.26,0.02,-1.52,-1.52,-1.51
327.59,-1.57,-1.56,-0.06,-0.05,0.05,0.27,0.05,-1.51,-1.51,-1.51
330.87,-1.58,-1.58,-0.06,-0.07,0.07,0.27,0.09,-1.51,-1.51,-1.51
334.18,-1.59,-1.59,-0.08,-0.08,0.08,0.28,0.13,-1.50,-1.51,-1.51
337.52,-1.61,-1.60,-0.10,-0.09,0.10,0.28,0.16,-1.51,-1.51,-1.51
340.90,-1.62,-1.62,-0.11,-0.11,0.11,0.29,0.20,-1.50,-1.50,-1.50
344.30,-1.63,-1.63,-0.13,-0.13,0.13,0.30,0.24,-1.50,-1.50,-1.50
347.75,-1.64,-1.64,-0.15,-0.14,0.14,0.30,0.28,-1.49,-1.49,-1.49
351.23,-1.65,-1.64,-0.15,-0.16,0.16,0.31,0.32,-1.49,-1.49,-1.49
354.74,-1.66,-1.66,-0.18,-0.17,0.18,0.32,0.36,-1.48,-1.48,-1.48
358.28,-1.67,-1.67,-0.19,-0.19,0.19,0.33,0.40,-1.47,-1.48,-1.48
361.87,-1.69,-1.68,-0.21,-0.21,0.21,0.33,0.44,-1.48,-1.47,-1.47
365.49,-1.70,-1.70,-0.23,-0.23,0.23,0.34,0.48,-1.47,-1.47,-1.46
369.14,-1.71,-1.71,-0.24,-0.25,0.24,0.35,0.52,-1.46,-1.46,-1.47
372.83,-1.73,-1.72,-0.28,-0.27,0.26,0.36,0.56,-1.46,-1.46,-1.45
376.56,-1.74,-1.74,-0.28,-0.28,0.28,0.37,0.60,-1.45,-1.45,-1.45
380.33,-1.75,-1.75,-0.30,-0.30,0.30,0.38,0.64,-1.44,-1.45,-1.44
384.13,-1.77,-1.76,-0.32,-0.32,0.32,0.39,0.68,-1.44,-1.44,-1.45
387.97,-1.78,-1.78,-0.34,-0.34,0.35,0.40,0.72,-1.43,-1.43,-1.44
391.85,-1.80,-1.80,-0.37,-0.37,0.37,0.41,0.76,-1.43,-1.43,-1.42
395.77,-1.82,-1.81,-0.39,-0.39,0.39,0.42,0.80,-1.42,-1.42,-1.42
399.73,-1.84,-1.84,-0.42,-0.42,0.42,0.44,0.84,-1.42,-1.42,-1.42
403.72,-1.86,-1.85,-0.45,-0.44,0.44,0.45,0.88,-1.41,-1.41,-1.41
407.76,-1.88,-1.88,-0.47,-0.47,0.47,0.46,0.92,-1.40,-1.40,-1.41
411.84,-1.90,-1.90,-0.49,-0.50,0.50,0.47,0.96,-1.40,-1.40,-1.40
415.96,-1.93,-1.93,-0.53,-0.53,0.53,0.49,1.00,-1.39,-1.39,-1.39
420.12,-1.96,-1.95,-0.56,-0.56,0.56,0.50,1.04,-1.39,-1.39,-1.39
424.32,-1.99,-1.98,-0.60,-0.60,0.60,0.52,1.08,-1.39,-1.39,-1.39
428.56,-2.02,-2.02,-0.64,-0.64,0.64,0.54,1.12,-1.38,-1.38,-1.38
432.85,-2.05,-2.05,-0.68,-0.68,0.68,0.55,1.15,-1.37,-1.37,-1.37
437.18,-2.09,-2.08,-0.72,-0.72,0.72,0.57,1.19,-1.36,-1.36,-1.37
441.55,-2.13,-2.12,-0.76,-0.76,0.77,0.59,1.22,-1.36,-1.35,-1.36
445.96,-2.16,-2.16,-0.80,-0.81,0.81,0.61,1.25,-1.34,-1.35,-1.35
450.42,-2.20,-2.20,-0.86,-0.86,0.86,0.62,1.28,-1.34,-1.34,-1.33
454.93,-2.24,-2.23,-0.91,-0.91,0.90,0.64,1.31,-1.34,-1.33,-1.33
459.48,-2.27,-2.27,-0.95,-0.95,0.94,0.67,1.34,-1.32,-1.33,-1.32
464.07,-2.30,-2.30,-0.98,-0.98,0.98,0.69,1.36,-1.32,-1.32,-1.32
468.71,-2.33,-2.32,-1.02,-1.01,1.01,0.71,1.39,-1.31,-1.31,-1.31
473.40,-2.35,-2.35,-1.05,-1.05,1.05,0.73,1.41,-1.30,-1.30,-1.30
478.13,-2.37,-2.37,-1.07,-1.08,1.07,0.76,1.42,-1.29,-1.29,-1.29
482.91,-2.39,-2.38,-1.10,-1.10,1.10,0.78,1.44,-1.29,-1.28,-1.28
487.74,-2.40,-2.40,-1.12,-1.12,1.12,0.80,1.45,-1.27,-1.27,-1.27
492.62,-2.41,-2.41,-1.14,-1.14,1.15,0.83,1.46,-1.26,-1.26,-1.26
497.55,-2.42,-2.42,-1.16,-1.16,1.17,0.86,1.46,-1.25,-1.25,-1.25
502.52,-2.43,-2.43,-1.18,-1.18,1.19,0.88,1.46,-1.24,-1.24,-1.25
507.55,-2.44,-2.43,-1.21,-1.20,1.20,0.91,1.46,-1.23,-1.23,-1.23
512.62,-2.44,-2.44,-1.22,-1.22,1.22,0.94,1.46,-1.22,-1.22,-1.22
517.75,-2.45,-2.44,-1.24,-1.24,1.23,0.97,1.45,-1.21,-1.21,-1.21
522.93,-2.45,-2.45,-1.25,-1.25,1.24,1.00,1.45,-1.20,-1.20,-1.20
