frequency,raw,error,smoothed,error_smoothed,equalization,parametric_eq,fixed_band_eq,equalized_raw,equalized_smoothed,target
20.00,-4.83,-4.87,-4.84,-4.88,4.89,4.77,1.60,0.06,0.05,0.04
20.20,-4.83,-4.90,-4.81,-4.88,4.88,4.75,1.65,0.05,0.07,0.07
20.40,-4.77,-4.87,-4.77,-4.87,4.87,4.73,1.70,0.10,0.10,0.10
20.61,-4.72,-4.84,-4.73,-4.86,4.85,4.71,1.75,0.13,0.12,0.12
20.81,-4.69,-4.84,-4.68,-4.83,4.83,4.69,1.80,0.14,0.15,0.15
21.02,-4.63,-4.81,-4.64,-4.81,4.81,4.67,1.86,0.18,0.17,0.18
21.23,-4.59,-4.78,-4.59,-4.78,4.78,4.65,1.91,0.19,0.19,0.19
21.44,-4.55,-4.75,-4.54,-4.75,4.75,4.63,1.97,0.20,0.20,0.20
21.66,-4.49,-4.70,-4.50,-4.71,4.71,4.60,2.03,0.22,0.21,0.21
21.87,-4.46,-4.67,-4.46,-4.67,4.67,4.58,2.09,0.21,0.21,0.21
22.09,-4.41,-4.63,-4.41,-4.63,4.63,4.55,2.15,0.22,0.21,0.22
22.31,-4.38,-4.60,-4.37,-4.59,4.59,4.53,2.21,0.21,0.21,0.22
22.54,-4.32,-4.54,-4.33,-4.54,4.54,4.50,2.27,0.22,0.21,0.22
22.76,-4.27,-4.49,-4.28,-4.49,4.49,4.47,2.34,0.22,0.22,0.22
22.99,-4.24,-4.45,-4.23,-4.44,4.45,4.44,2.41,0.21,0.22,0.21
23.22,-4.18,-4.39,-4.19,-4.40,4.40,4.42,2.48,0.22,0.21,0.21
23.45,-4.15,-4.36,-4.15,-4.35,4.36,4.39,2.55,0.21,0.21,0.21
23.69,-4.10,-4.31,-4.10,-4.31,4.31,4.36,2.62,0.21,0.21,0.21
23.92,-4.06,-4.27,-4.06,-4.27,4.27,4.33,2.69,0.21,0.21,0.21
24.16,-4.01,-4.23,-4.01,-4.22,4.22,4.30,2.77,0.21,0.21,0.22
24.40,-3.97,-4.19,-3.97,-4.18,4.18,4.27,2.84,0.21,0.21,0.22
24.65,-3.93,-4.14,-3.93,-4.14,4.14,4.23,2.92,0.21,0.21,0.21
24.89,-3.90,-4.10,-3.89,-4.10,4.10,4.20,2.99,0.20,0.21,0.20
25.14,-3.85,-4.05,-3.85,-4.06,4.06,4.17,3.07,0.21,0.20,0.20
25.39,-3.81,-4.01,-3.81,-4.02,4.01,4.14,3.15,0.20,0.20,0.20
25.65,-3.78,-3.98,-3.77,-3.97,3.97,4.10,3.22,0.19,0.20,0.20
25.91,-3.73,-3.92,-3.73,-3.93,3.93,4.07,3.30,0.20,0.20,0.19
26.16,-3.69,-3.88,-3.69,-3.89,3.89,4.03,3.38,0.20,0.20,0.19
26.43,-3.66,-3.85,-3.66,-3.85,3.86,4.00,3.45,0.19,0.20,0.19
26.69,-3.62,-3.81,-3.63,-3.82,3.82,3.96,3.53,0.20,0.19,0.19
26.96,-3.60,-3.79,-3.60,-3.79,3.79,3.93,3.60,0.18,0.19,0.19
27.23,-3.57,-3.76,-3.57,-3.76,3.75,3.89,3.67,0.18,0.18,0.19
27.50,-3.53,-3.72,-3.54,-3.73,3.72,3.86,3.74,0.19,0.18,0.19
27.77,-3.53,-3.71,-3.52,-3.70,3.70,3.82,3.81,0.17,0.18,0.18
28.05,-3.48,-3.66,-3.49,-3.67,3.67,3.79,3.87,0.19,0.18,0.18
28.33,-3.48,-3.65,-3.47,-3.64,3.64,3.75,3.93,0.16,0.17,0.17
28.62,-3.44,-3.61,-3.45,-3.61,3.62,3.71,3.98,0.18,0.17,0.17
28.90,-3.43,-3.60,-3.43,-3.59,3.59,3.68,4.03,0.16,0.17,0.16
29.19,-3.41,-3.56,-3.41,-3.57,3.57,3.64,4.08,0.16,0.16,0.15
29.48,-3.39,-3.55,-3.39,-3.55,3.55,3.60,4.12,0.16,0.15,0.16
29.78,-3.38,-3.53,-3.37,-3.53,3.52,3.56,4.15,0.14,0.15,0.15
30.08,-3.34,-3.49,-3.35,-3.50,3.50,3.53,4.18,0.16,0.15,0.15
30.38,-3.34,-3.48,-3.33,-3.47,3.47,3.49,4.20,0.13,0.14,0.14
30.68,-3.29,-3.43,-3.30,-3.44,3.44,3.45,4.22,0.15,0.14,0.14
30.99,-3.28,-3.41,-3.28,-3.41,3.41,3.41,4.23,0.13,0.13,0.13
31.30,-3.25,-3.38,-3.25,-3.38,3.38,3.38,4.23,0.13,0.13,0.13
31.61,-3.22,-3.35,-3.23,-3.35,3.34,3.34,4.22,0.12,0.12,0.13
31.93,-3.20,-3.32,-3.19,-3.31,3.31,3.30,4.21,0.11,0.11,0.11
32.24,-3.16,-3.26,-3.16,-3.27,3.27,3.26,4.19,0.11,0.11,0.10
32.57,-3.13,-3.23,-3.13,-3.23,3.23,3.22,4.17,0.10,0.10,0.10
32.89,-3.10,-3.20,-3.10,-3.19,3.19,3.19,4.14,0.09,0.10,0.10
33.22,-3.06,-3.15,-3.06,-3.15,3.16,3.15,4.11,0.09,0.09,0.09
33.55,-3.03,-3.12,-3.03,-3.12,3.12,3.11,4.06,0.09,0.09,0.09
33.89,-3.00,-3.08,-3.00,-3.08,3.08,3.07,4.02,0.08,0.08,0.07
34.23,-2.97,-3.04,-2.97,-3.04,3.04,3.03,3.97,0.07,0.07,0.07
34.57,-2.94,-3.00,-2.94,-3.00,3.00,3.00,3.91,0.06,0.06,0.06
34.92,-2.92,-2.97,-2.92,-2.97,2.97,2.96,3.85,0.05,0.05,0.05
35.27,-2.88,-2.93,-2.89,-2.93,2.93,2.92,3.79,0.05,0.05,0.05
35.62,-2.87,-2.91,-2.87,-2.90,2.90,2.88,3.73,0.03,0.03,0.04
35.97,-2.83,-2.85,-2.84,-2.87,2.87,2.85,3.66,0.04,0.03,0.02
36.33,-2.83,-2.85,-2.82,-2.84,2.83,2.81,3.59,0.00,0.02,0.02
36.70,-2.78,-2.79,-2.79,-2.80,2.80,2.77,3.52,0.02,0.01,0.01
37.06,-2.78,-2.78,-2.77,-2.77,2.77,2.73,3.45,-0.01,0.00,-0.00
37.43,-2.74,-2.73,-2.75,-2.74,2.74,2.70,3.37,0.00,-0.01,-0.01
37.81,-2.73,-2.71,-2.73,-2.71,2.71,2.66,3.30,-0.02,-0.02,-0.02
38.19,-2.71,-2.68,-2.71,-2.68,2.68,2.62,3.22,-0.03,-0.03,-0.03
38.57,-2.69,-2.66,-2.69,-2.65,2.64,2.59,3.15,-0.05,-0.05,-0.03
38.95,-2.66,-2.61,-2.66,-2.61,2.61,2.55,3.07,-0.05,-0.05,-0.05
39.34,-2.64,-2.58,-2.64,-2.58,2.58,2.51,3.00,-0.06,-0.06,-0.06
39.74,-2.60,-2.53,-2.61,-2.54,2.55,2.48,2.93,-0.06,-0.06,-0.07
40.14,-2.59,-2.52,-2.59,-2.51,2.51,2.44,2.86,-0.08,-0.07,-0.08
40.54,-2.56,-2.47,-2.56,-2.48,2.48,2.40,2.78,-0.08,-0.09,-0.09
40.94,-2.55,-2.46,-2.55,-2.45,2.45,2.37,2.72,-0.10,-0.10,-0.09
41.35,-2.52,-2.41,-2.52,-2.42,2.42,2.33,2.65,-0.10,-0.10,-0.11
41.76,-2.50,-2.39,-2.49,-2.38,2.39,2.30,2.58,-0.11,-0.11,-0.11
42.18,-2.46,-2.35,-2.47,-2.35,2.36,2.26,2.51,-0.10,-0.11,-0.11
42.60,-2.45,-2.32,-2.45,-2.33,2.33,2.23,2.45,-0.12,-0.12,-0.13
43.03,-2.44,-2.31,-2.43,-2.30,2.29,2.19,2.39,-0.15,-0.14,-0.13
43.46,-2.41,-2.26,-2.42,-2.26,2.26,2.16,2.33,-0.15,-0.16,-0.15
43.90,-2.40,-2.23,-2.40,-2.23,2.22,2.12,2.27,-0.18,-0.17,-0.17
44.33,-2.36,-2.17,-2.37,-2.18,2.19,2.09,2.21,-0.18,-0.18,-0.19
44.78,-2.36,-2.16,-2.35,-2.15,2.15,2.05,2.15,-0.21,-0.20,-0.20
45.23,-2.31,-2.10,-2.32,-2.11,2.11,2.02,2.10,-0.20,-0.21,-0.22
45.68,-2.31,-2.08,-2.30,-2.07,2.08,1.99,2.05,-0.23,-0.22,-0.23
46.13,-2.27,-2.02,-2.28,-2.04,2.05,1.95,2.00,-0.23,-0.24,-0.25
46.60,-2.27,-2.02,-2.27,-2.01,2.01,1.92,1.95,-0.26,-0.26,-0.25
47.06,-2.26,-1.99,-2.25,-1.98,1.98,1.89,1.90,-0.28,-0.27,-0.27
47.53,-2.22,-1.94,-2.23,-1.95,1.95,1.85,1.85,-0.28,-0.29,-0.28
48.01,-2.22,-1.93,-2.21,-1.91,1.91,1.82,1.81,-0.31,-0.30,-0.29
48.49,-2.19,-1.87,-2.20,-1.88,1.87,1.79,1.77,-0.32,-0.32,-0.32
48.97,-2.18,-1.84,-2.18,-1.84,1.84,1.76,1.72,-0.34,-0.35,-0.34
49.46,-2.18,-1.81,-2.16,-1.79,1.80,1.73,1.68,-0.38,-0.37,-0.37
49.96,-2.13,-1.73,-2.15,-1.76,1.76,1.69,1.65,-0.37,-0.39,-0.40
50.46,-2.13,-1.72,-2.13,-1.72,1.72,1.66,1.61,-0.41,-0.41,-0.41
50.96,-2.12,-1.70,-2.11,-1.68,1.68,1.63,1.57,-0.44,-0.42,-0.42
51.47,-2.08,-1.63,-2.10,-1.65,1.65,1.60,1.54,-0.43,-0.45,-0.45
51.99,-2.08,-1.61,-2.08,-1.61,1.62,1.57,1.50,-0.46,-0.46,-0.47
52.51,-2.08,-1.60,-2.06,-1.58,1.58,1.54,1.47,-0.50,-0.48,-0.48
53.03,-2.04,-1.54,-2.06,-1.56,1.55,1.51,1.44,-0.49,-0.51,-0.50
53.56,-2.04,-1.52,-2.04,-1.52,1.52,1.48,1.41,-0.52,-0.52,-0.52
54.10,-2.04,-1.50,-2.02,-1.48,1.48,1.45,1.38,-0.56,-0.54,-0.54
54.64,-1.99,-1.43,-2.01,-1.45,1.45,1.42,1.35,-0.54,-0.56,-0.56
55.18,-1.99,-1.41,-1.99,-1.41,1.41,1.39,1.32,-0.58,-0.58,-0.58
55.74,-1.98,-1.38,-1.97,-1.37,1.38,1.36,1.29,-0.60,-0.59,-0.60
56.29,-1.94,-1.33,-1.96,-1.34,1.34,1.33,1.26,-0.60,-0.61,-0.61
56.86,-1.94,-1.31,-1.94,-1.30,1.31,1.30,1.23,-0.63,-0.63,-0.63
57.42,-1.93,-1.28,-1.92,-1.27,1.28,1.27,1.21,-0.65,-0.65,-0.65
58.00,-1.90,-1.23,-1.91,-1.24,1.24,1.25,1.18,-0.66,-0.67,-0.67
58.58,-1.90,-1.22,-1.89,-1.21,1.21,1.22,1.15,-0.69,-0.68,-0.68
59.16,-1.87,-1.18,-1.88,-1.18,1.18,1.19,1.13,-0.69,-0.70,-0.69
59.76,-1.85,-1.15,-1.86,-1.15,1.14,1.16,1.10,-0.71,-0.72,-0.71
60.35,-1.85,-1.12,-1.83,-1.11,1.10,1.13,1.07,-0.75,-0.73,-0.73
60.96,-1.80,-1.06,-1.82,-1.07,1.07,1.11,1.05,-0.73,-0.75,-0.74
61.57,-1.80,-1.02,-1.80,-1.03,1.03,1.08,1.02,-0.77,-0.77,-0.78
62.18,-1.80,-1.00,-1.79,-0.98,0.99,1.05,0.99,-0.81,-0.79,-0.80
62.80,-1.77,-0.95,-1.78,-0.95,0.96,1.02,0.96,-0.81,-0.82,-0.82
63.43,-1.76,-0.91,-1.77,-0.92,0.92,1.00,0.94,-0.84,-0.84,-0.85
64.07,-1.76,-0.90,-1.76,-0.90,0.89,0.97,0.91,-0.87,-0.87,-0.86
64.71,-1.76,-0.88,-1.75,-0.87,0.86,0.94,0.88,-0.90,-0.89,-0.88
65.35,-1.74,-0.84,-1.74,-0.84,0.84,0.92,0.85,-0.90,-0.90,-0.90
66.01,-1.71,-0.79,-1.72,-0.80,0.81,0.89,0.82,-0.90,-0.91,-0.92
66.67,-1.71,-0.77,-1.71,-0.77,0.78,0.86,0.80,-0.93,-0.93,-0.94
67.33,-1.71,-0.75,-1.71,-0.75,0.75,0.84,0.77,-0.96,-0.96,-0.96
68.01,-1.71,-0.73,-1.71,-0.73,0.72,0.81,0.74,-0.99,-0.99,-0.98
68.69,-1.70,-0.70,-1.69,-0.69,0.69,0.78,0.71,-1.01,-1.00,-1.00
69.37,-1.66,-0.64,-1.67,-0.66,0.66,0.76,0.68,-1.00,-1.01,-1.02
70.07,-1.66,-0.62,-1.66,-0.62,0.63,0.73,0.65,-1.03,-1.03,-1.04
70.77,-1.66,-0.61,-1.66,-0.60,0.60,0.71,0.62,-1.06,-1.06,-1.05
71.48,-1.66,-0.58,-1.66,-0.58,0.57,0.68,0.58,-1.09,-1.09,-1.08
72.19,-1.66,-0.56,-1.65,-0.55,0.54,0.66,0.55,-1.12,-1.11,-1.10
72.91,-1.64,-0.52,-1.64,-0.52,0.52,0.63,0.52,-1.13,-1.13,-1.12
73.64,-1.62,-0.47,-1.63,-0.48,0.49,0.61,0.49,-1.13,-1.14,-1.15
74.38,-1.62,-0.46,-1.62,-0.45,0.47,0.58,0.46,-1.16,-1.15,-1.16
75.12,-1.62,-0.43,-1.62,-0.43,0.44,0.55,0.43,-1.18,-1.18,-1.19
75.87,-1.62,-0.41,-1.62,-0.42,0.41,0.53,0.40,-1.21,-1.21,-1.21
76.63,-1.62,-0.40,-1.62,-0.40,0.39,0.50,0.37,-1.23,-1.24,-1.22
77.40,-1.62,-0.38,-1.62,-0.38,0.36,0.48,0.33,-1.26,-1.26,-1.24
78.17,-1.62,-0.35,-1.61,-0.35,0.34,0.45,0.30,-1.28,-1.27,-1.27
78.95,-1.59,-0.31,-1.59,-0.31,0.32,0.43,0.27,-1.28,-1.28,-1.28
79.74,-1.57,-0.27,-1.58,-0.28,0.29,0.40,0.24,-1.28,-1.29,-1.30
80.54,-1.57,-0.25,-1.57,-0.25,0.26,0.38,0.21,-1.31,-1.31,-1.32
81.35,-1.57,-0.23,-1.57,-0.23,0.23,0.35,0.17,-1.34,-1.34,-1.34
82.16,-1.57,-0.21,-1.58,-0.22,0.20,0.33,0.14,-1.37,-1.37,-1.36
82.98,-1.57,-0.20,-1.57,-0.19,0.17,0.30,0.11,-1.40,-1.39,-1.37
83.81,-1.57,-0.17,-1.55,-0.15,0.15,0.28,0.08,-1.43,-1.41,-1.40
84.65,-1.52,-0.09,-1.54,-0.11,0.12,0.25,0.05,-1.40,-1.42,-1.43
85.50,-1.52,-0.08,-1.52,-0.08,0.09,0.23,0.01,-1.43,-1.43,-1.44
86.35,-1.52,-0.06,-1.52,-0.05,0.06,0.20,-0.02,-1.46,-1.45,-1.47
87.22,-1.52,-0.03,-1.52,-0.03,0.03,0.18,-0.05,-1.49,-1.49,-1.49
88.09,-1.52,-0.01,-1.52,-0.01,0.01,0.15,-0.09,-1.51,-1.51,-1.51
88.97,-1.52,0.01,-1.52,0.01,-0.02,0.12,-0.12,-1.54,-1.54,-1.53
89.86,-1.52,0.03,-1.52,0.04,-0.04,0.10,-0.15,-1.56,-1.56,-1.56
90.76,-1.52,0.07,-1.52,0.06,-0.07,0.07,-0.18,-1.59,-1.59,-1.59
91.66,-1.52,0.09,-1.52,0.09,-0.09,0.05,-0.22,-1.61,-1.61,-1.61
92.58,-1.52,0.12,-1.52,0.12,-0.12,0.02,-0.25,-1.64,-1.64,-1.65
93.51,-1.52,0.14,-1.52,0.14,-0.15,-0.01,-0.28,-1.67,-1.67,-1.66
94.44,-1.52,0.17,-1.52,0.17,-0.17,-0.03,-0.32,-1.69,-1.69,-1.69
95.39,-1.52,0.20,-1.52,0.20,-0.20,-0.06,-0.35,-1.72,-1.72,-1.72
96.34,-1.52,0.24,-1.52,0.23,-0.23,-0.09,-0.39,-1.75,-1.75,-1.76
97.30,-1.52,0.26,-1.52,0.26,-0.26,-0.11,-0.42,-1.78,-1.78,-1.78
98.28,-1.52,0.29,-1.52,0.29,-0.29,-0.14,-0.45,-1.81,-1.81,-1.81
99.26,-1.52,0.32,-1.52,0.32,-0.32,-0.17,-0.49,-1.84,-1.84,-1.84
100.25,-1.52,0.35,-1.52,0.35,-0.35,-0.19,-0.52,-1.87,-1.87,-1.87
101.25,-1.52,0.38,-1.52,0.38,-0.38,-0.22,-0.55,-1.90,-1.90,-1.90
102.27,-1.52,0.41,-1.52,0.41,-0.41,-0.25,-0.59,-1.93,-1.93,-1.93
103.29,-1.52,0.45,-1.52,0.44,-0.44,-0.28,-0.62,-1.96,-1.96,-1.97
104.32,-1.52,0.47,-1.52,0.47,-0.46,-0.31,-0.65,-1.99,-1.98,-1.99
105.37,-1.52,0.50,-1.52,0.50,-0.49,-0.33,-0.69,-2.01,-2.01,-2.02
106.42,-1.52,0.53,-1.53,0.52,-0.51,-0.36,-0.72,-2.03,-2.04,-2.05
107.48,-1.55,0.53,-1.54,0.54,-0.53,-0.39,-0.75,-2.09,-2.08,-2.08
108.56,-1.56,0.56,-1.56,0.55,-0.56,-0.42,-0.78,-2.12,-2.12,-2.12
109.64,-1.57,0.57,-1.57,0.57,-0.58,-0.45,-0.81,-2.15,-2.15,-2.15
110.74,-1.57,0.60,-1.57,0.60,-0.61,-0.48,-0.84,-2.18,-2.18,-2.17
111.85,-1.57,0.63,-1.57,0.64,-0.64,-0.51,-0.87,-2.21,-2.21,-2.20
112.97,-1.57,0.68,-1.57,0.67,-0.68,-0.54,-0.90,-2.25,-2.25,-2.25
114.10,-1.57,0.71,-1.57,0.71,-0.71,-0.57,-0.93,-2.28,-2.28,-2.28
115.24,-1.57,0.75,-1.57,0.75,-0.74,-0.60,-0.95,-2.32,-2.31,-2.32
116.39,-1.57,0.79,-1.57,0.78,-0.78,-0.63,-0.98,-2.35,-2.35,-2.36
117.55,-1.57,0.82,-1.57,0.82,-0.81,-0.66,-1.00,-2.38,-2.38,-2.39
118.73,-1.59,0.84,-1.59,0.84,-0.84,-0.70,-1.02,-2.43,-2.42,-2.43
119.92,-1.59,0.87,-1.60,0.86,-0.86,-0.73,-1.05,-2.45,-2.46,-2.46
121.12,-1.62,0.87,-1.61,0.88,-0.89,-0.76,-1.06,-2.51,-2.50,-2.50
122.33,-1.62,0.91,-1.62,0.91,-0.92,-0.79,-1.08,-2.54,-2.54,-2.53
123.55,-1.62,0.94,-1.62,0.94,-0.95,-0.82,-1.10,-2.57,-2.57,-2.56
124.79,-1.62,0.97,-1.62,0.97,-0.98,-0.85,-1.11,-2.60,-2.60,-2.59
126.03,-1.62,1.01,-1.62,1.01,-1.01,-0.89,-1.13,-2.63,-2.62,-2.63
127.29,-1.62,1.04,-1.62,1.04,-1.04,-0.92,-1.14,-2.66,-2.66,-2.66
128.57,-1.62,1.09,-1.63,1.07,-1.06,-0.95,-1.15,-2.68,-2.70,-2.71
129.85,-1.66,1.08,-1.65,1.09,-1.09,-0.99,-1.16,-2.75,-2.74,-2.74
131.15,-1.66,1.11,-1.66,1.12,-1.12,-1.02,-1.16,-2.78,-2.77,-2.77
132.46,-1.66,1.14,-1.66,1.14,-1.14,-1.05,-1.17,-2.80,-2.80,-2.81
133.79,-1.66,1.17,-1.67,1.16,-1.16,-1.08,-1.17,-2.82,-2.83,-2.83
135.12,-1.69,1.18,-1.69,1.17,-1.18,-1.12,-1.18,-2.87,-2.87,-2.87
136.48,-1.71,1.18,-1.70,1.19,-1.20,-1.15,-1.18,-2.91,-2.90,-2.89
137.84,-1.71,1.21,-1.71,1.22,-1.22,-1.18,-1.18,-2.93,-2.93,-2.92
139.22,-1.71,1.25,-1.71,1.24,-1.24,-1.21,-1.18,-2.95,-2.95,-2.96
140.61,-1.71,1.28,-1.72,1.26,-1.25,-1.25,-1.18,-2.96,-2.97,-2.99
142.02,-1.73,1.27,-1.73,1.27,-1.27,-1.28,-1.18,-3.00,-3.00,-3.00
143.44,-1.76,1.26,-1.75,1.28,-1.28,-1.31,-1.18,-3.04,-3.03,-3.03
144.87,-1.76,1.29,-1.76,1.29,-1.30,-1.34,-1.18,-3.06,-3.06,-3.05
146.32,-1.76,1.32,-1.77,1.31,-1.31,-1.37,-1.18,-3.07,-3.08,-3.08
147.78,-1.76,1.33,-1.77,1.33,-1.32,-1.40,-1.18,-3.09,-3.10,-3.10
149.26,-1.80,1.32,-1.79,1.34,-1.34,-1.43,-1.18,-3.14,-3.12,-3.12
150.75,-1.80,1.36,-1.80,1.35,-1.35,-1.46,-1.18,-3.15,-3.15,-3.16
152.26,-1.80,1.38,-1.81,1.37,-1.37,-1.49,-1.18,-3.17,-3.18,-3.18
153.78,-1.82,1.38,-1.82,1.38,-1.39,-1.51,-1.18,-3.21,-3.21,-3.20
155.32,-1.85,1.39,-1.84,1.39,-1.40,-1.54,-1.18,-3.25,-3.24,-3.24
156.88,-1.85,1.41,-1.85,1.42,-1.42,-1.56,-1.18,-3.27,-3.26,-3.26
158.44,-1.85,1.44,-1.86,1.44,-1.43,-1.59,-1.18,-3.29,-3.29,-3.29
160.03,-1.85,1.47,-1.87,1.46,-1.45,-1.61,-1.18,-3.30,-3.32,-3.32
161.63,-1.90,1.45,-1.88,1.47,-1.47,-1.63,-1.18,-3.37,-3.35,-3.35
163.24,-1.90,1.48,-1.89,1.49,-1.49,-1.65,-1.18,-3.39,-3.38,-3.39
164.88,-1.90,1.50,-1.91,1.50,-1.50,-1.67,-1.19,-3.40,-3.41,-3.40
166.53,-1.90,1.53,-1.91,1.52,-1.52,-1.69,-1.19,-3.42,-3.43,-3.43
168.19,-1.94,1.52,-1.93,1.54,-1.54,-1.71,-1.20,-3.48,-3.46,-3.46
169.87,-1.94,1.55,-1.94,1.55,-1.55,-1.73,-1.21,-3.49,-3.49,-3.49
171.57,-1.94,1.58,-1.95,1.56,-1.57,-1.74,-1.21,-3.51,-3.52,-3.52
173.29,-1.96,1.58,-1.96,1.58,-1.58,-1.75,-1.22,-3.54,-3.55,-3.55
175.02,-1.99,1.58,-1.98,1.60,-1.60,-1.76,-1.23,-3.59,-3.57,-3.57
176.77,-1.99,1.62,-1.99,1.61,-1.61,-1.77,-1.24,-3.61,-3.61,-3.61
178.54,-1.99,1.65,-2.01,1.63,-1.63,-1.78,-1.26,-3.62,-3.64,-3.64
180.32,-2.04,1.63,-2.02,1.65,-1.65,-1.79,-1.27,-3.69,-3.67,-3.67
182.13,-2.04,1.65,-2.03,1.66,-1.66,-1.79,-1.28,-3.70,-3.70,-3.69
183.95,-2.04,1.69,-2.05,1.68,-1.68,-1.79,-1.30,-3.72,-3.73,-3.73
185.79,-2.04,1.71,-2.05,1.70,-1.70,-1.80,-1.31,-3.74,-3.75,-3.75
187.65,-2.08,1.70,-2.07,1.72,-1.72,-1.79,-1.33,-3.80,-3.78,-3.79
189.52,-2.08,1.73,-2.08,1.73,-1.73,-1.79,-1.35,-3.81,-3.81,-3.81
191.42,-2.08,1.75,-2.08,1.75,-1.75,-1.79,-1.37,-3.83,-3.83,-3.83
193.33,-2.08,1.77,-2.09,1.77,-1.76,-1.78,-1.39,-3.84,-3.85,-3.85
195.27,-2.09,1.78,-2.10,1.77,-1.77,-1.78,-1.41,-3.87,-3.88,-3.87
197.22,-2.13,1.76,-2.12,1.78,-1.78,-1.77,-1.43,-3.91,-3.90,-3.90
199.19,-2.13,1.80,-2.13,1.79,-1.79,-1.76,-1.45,-3.92,-3.92,-3.93
201.18,-2.13,1.81,-2.14,1.80,-1.80,-1.75,-1.47,-3.93,-3.93,-3.94
203.19,-2.13,1.82,-2.15,1.80,-1.80,-1.74,-1.49,-3.93,-3.95,-3.95
205.23,-2.18,1.79,-2.16,1.80,-1.80,-1.72,-1.52,-3.98,-3.97,-3.97
207.28,-2.18,1.79,-2.17,1.80,-1.80,-1.71,-1.54,-3.98,-3.98,-3.97
209.35,-2.18,1.80,-2.19,1.80,-1.80,-1.69,-1.56,-3.98,-3.99,-3.99
211.44,-2.18,1.82,-2.19,1.80,-1.80,-1.68,-1.58,-3.98,-3.99,-4.00
213.56,-2.22,1.78,-2.21,1.80,-1.80,-1.66,-1.60,-4.02,-4.00,-4.00
215.69,-2.22,1.78,-2.22,1.79,-1.79,-1.64,-1.63,-4.01,-4.01,-4.00
217.85,-2.22,1.79,-2.23,1.79,-1.78,-1.62,-1.65,-4.01,-4.01,-4.01
220.03,-2.22,1.80,-2.23,1.78,-1.78,-1.60,-1.67,-4.00,-4.01,-4.02
222.23,-2.26,1.76,-2.25,1.77,-1.77,-1.58,-1.69,-4.03,-4.02,-4.02
224.45,-2.27,1.74,-2.26,1.75,-1.75,-1.56,-1.70,-4.03,-4.02,-4.01
226.70,-2.27,1.74,-2.27,1.74,-1.74,-1.54,-1.72,-4.01,-4.01,-4.01
228.96,-2.27,1.73,-2.28,1.72,-1.73,-1.51,-1.73,-4.00,-4.00,-4.01
231.25,-2.28,1.71,-2.29,1.71,-1.71,-1.49,-1.75,-3.99,-4.00,-3.99
233.57,-2.31,1.68,-2.30,1.69,-1.69,-1.47,-1.76,-4.00,-3.99,-3.99
235.90,-2.31,1.67,-2.31,1.67,-1.67,-1.44,-1.77,-3.98,-3.98,-3.98
238.26,-2.31,1.67,-2.32,1.65,-1.65,-1.42,-1.77,-3.96,-3.98,-3.98
240.64,-2.34,1.62,-2.34,1.63,-1.63,-1.40,-1.78,-3.97,-3.97,-3.97
243.05,-2.36,1.59,-2.35,1.60,-1.60,-1.37,-1.78,-3.96,-3.96,-3.95
245.48,-2.36,1.57,-2.36,1.58,-1.58,-1.35,-1.78,-3.94,-3.94,-3.94
247.93,-2.36,1.56,-2.37,1.56,-1.55,-1.32,-1.78,-3.91,-3.92,-3.92
250.41,-2.36,1.55,-2.38,1.53,-1.53,-1.30,-1.77,-3.89,-3.90,-3.92
252.92,-2.41,1.48,-2.39,1.50,-1.50,-1.28,-1.76,-3.91,-3.89,-3.89
255.45,-2.41,1.45,-2.41,1.46,-1.47,-1.25,-1.75,-3.88,-3.88,-3.86
258.00,-2.41,1.44,-2.41,1.43,-1.44,-1.23,-1.73,-3.85,-3.86,-3.85
260.58,-2.41,1.42,-2.41,1.42,-1.41,-1.20,-1.72,-3.82,-3.82,-3.83
263.19,-2.41,1.40,-2.42,1.39,-1.38,-1.18,-1.70,-3.79,-3.80,-3.81
265.82,-2.43,1.36,-2.43,1.36,-1.36,-1.16,-1.67,-3.79,-3.79,-3.79
268.48,-2.45,1.31,-2.44,1.32,-1.33,-1.13,-1.65,-3.78,-3.77,-3.76
271.16,-2.45,1.29,-2.45,1.29,-1.30,-1.11,-1.62,-3.75,-3.75,-3.74
273.87,-2.45,1.27,-2.45,1.27,-1.27,-1.09,-1.59,-3.72,-3.71,-3.72
276.61,-2.45,1.24,-2.45,1.24,-1.24,-1.06,-1.56,-3.69,-3.69,-3.69
279.38,-2.45,1.23,-2.47,1.21,-1.21,-1.04,-1.53,-3.66,-3.67,-3.68
282.17,-2.50,1.16,-2.48,1.17,-1.18,-1.02,-1.50,-3.68,-3.66,-3.66
284.99,-2.50,1.13,-2.50,1.14,-1.15,-1.00,-1.46,-3.65,-3.65,-3.63
287.84,-2.50,1.12,-2.50,1.11,-1.12,-0.98,-1.43,-3.62,-3.62,-3.62
290.72,-2.50,1.09,-2.50,1.09,-1.09,-0.96,-1.39,-3.59,-3.58,-3.59
293.63,-2.50,1.07,-2.51,1.06,-1.05,-0.94,-1.35,-3.56,-3.56,-3.57
296.57,-2.51,1.03,-2.52,1.03,-1.02,-0.92,-1.31,-3.53,-3.54,-3.54
299.53,-2.55,0.98,-2.54,0.99,-0.99,-0.90,-1.27,-3.54,-3.53,-3.53
302.53,-2.55,0.96,-2.55,0.95,-0.96,-0.88,-1.23,-3.51,-3.51,-3.51
305.55,-2.55,0.92,-2.55,0.93,-0.92,-0.86,-1.19,-3.47,-3.47,-3.47
308.61,-2.55,0.90,-2.55,0.90,-0.89,-0.84,-1.15,-3.44,-3.44,-3.45
311.69,-2.55,0.87,-2.56,0.86,-0.85,-0.82,-1.11,-3.40,-3.42,-3.42
314.81,-2.59,0.80,-2.58,0.82,-0.82,-0.80,-1.07,-3.41,-3.40,-3.39
317.96,-2.59,0.78,-2.59,0.78,-0.79,-0.78,-1.02,-3.38,-3.38,-3.37
321.14,-2.59,0.76,-2.59,0.75,-0.77,-0.77,-0.98,-3.36,-3.36,-3.35
324.35,-2.59,0.74,-2.59,0.74,-0.74,-0.75,-0.94,-3.33,-3.33,-3.33
327.59,-2.59,0.71,-2.59,0.72,-0.71,-0.73,-0.90,-3.30,-3.30,-3.30
330.87,-2.59,0.69,-2.59,0.70,-0.69,-0.72,-0.86,-3.28,-3.27,-3.29
334.18,-2.59,0.68,-2.59,0.68,-0.66,-0.70,-0.82,-3.25,-3.25,-3.27
337.52,-2.59,0.66,-2.60,0.64,-0.63,-0.68,-0.78,-3.22,-3.24,-3.25
340.90,-2.62,0.60,-2.62,0.61,-0.61,-0.67,-0.74,-3.23,-3.22,-3.22
344.30,-2.64,0.56,-2.63,0.57,-0.58,-0.65,-0.70,-3.22,-3.21,-3.20
347.75,-2.64,0.54,-2.64,0.54,-0.55,-0.64,-0.66,-3.19,-3.19,-3.18
351.23,-2.64,0.52,-2.64,0.52,-0.53,-0.62,-0.62,-3.17,-3.17,-3.16
354.74,-2.64,0.50,-2.64,0.50,-0.50,-0.61,-0.59,-3.14,-3.14,-3.15
358.28,-2.64,0.49,-2.64,0.48,-0.48,-0.59,-0.55,-3.12,-3.12,-3.13
361.87,-2.64,0.47,-2.64,0.47,-0.47,-0.58,-0.51,-3.11,-3.11,-3.11
365.49,-2.64,0.45,-2.64,0.45,-0.45,-0.56,-0.48,-3.09,-3.09,-3.09
369.14,-2.64,0.44,-2.64,0.44,-0.43,-0.55,-0.44,-3.08,-3.08,-3.08
372.83,-2.64,0.42,-2.64,0.42,-0.42,-0.54,-0.40,-3.06,-3.06,-3.06
376.56,-2.64,0.41,-2.64,0.40,-0.40,-0.52,-0.37,-3.04,-3.04,-3.05
380.33,-2.64,0.38,-2.64,0.39,-0.39,-0.51,-0.33,-3.03,-3.03,-3.02
384.13,-2.64,0.37,-2.64,0.37,-0.38,-0.49,-0.30,-3.02,-3.02,-3.01
387.97,-2.64,0.36,-2.64,0.36,-0.36,-0.48,-0.27,-3.00,-3.00,-3.00
391.85,-2.64,0.35,-2.64,0.35,-0.35,-0.47,-0.23,-2.99,-2.99,-3.00
395.77,-2.64,0.34,-2.64,0.34,-0.34,-0.45,-0.20,-2.98,-2.98,-2.98
399.73,-2.64,0.33,-2.64,0.33,-0.33,-0.44,-0.17,-2.97,-2.97,-2.97
403.72,-2.64,0.32,-2.64,0.32,-0.31,-0.43,-0.14,-2.95,-2.95,-2.96
407.76,-2.64,0.31,-2.64,0.30,-0.30,-0.41,-0.11,-2.94,-2.94,-2.95
411.84,-2.64,0.29,-2.64,0.29,-0.29,-0.40,-0.08,-2.93,-2.93,-2.93
415.96,-2.64,0.28,-2.64,0.28,-0.28,-0.39,-0.05,-2.92,-2.92,-2.92
420.12,-2.64,0.27,-2.64,0.27,-0.27,-0.37,-0.02,-2.91,-2.91,-2.91
424.32,-2.64,0.26,-2.64,0.26,-0.26,-0.36,0.00,-2.90,-2.91,-2.90
428.56,-2.64,0.25,-2.64,0.25,-0.26,-0.34,0.03,-2.90,-2.90,-2.89
432.85,-2.64,0.24,-2.63,0.25,-0.26,-0.33,0.05,-2.90,-2.89,-2.88
437.18,-2.62,0.25,-2.62,0.25,-0.25,-0.31,0.08,-2.87,-2.87,-2.87
441.55,-2.59,0.26,-2.60,0.26,-0.25,-0.30,0.10,-2.84,-2.85,-2.85
445.96,-2.59,0.25,-2.59,0.25,-0.24,-0.28,0.12,-2.83,-2.83,-2.84
