frequency,raw,error,smoothed,error_smoothed,equalization,parametric_eq,equalized_raw,equalized_smoothed,target
20,-10.95,-12.60,-10.94,-12.59,6.00,5.07,-4.95,-4.94,1.65
21,-10.16,-11.81,-10.19,-11.84,6.00,5.62,-4.16,-4.19,1.65
22,-9.47,-11.12,-9.47,-11.11,6.00,6.11,-3.47,-3.47,1.65
23,-8.79,-10.43,-8.77,-10.42,6.00,6.48,-2.79,-2.77,1.65
24,-8.12,-9.77,-8.11,-9.75,6.00,6.72,-2.12,-2.11,1.65
25,-7.45,-9.09,-7.47,-9.12,6.00,6.79,-1.45,-1.47,1.65
26,-6.87,-8.52,-6.86,-8.51,6.00,6.70,-0.87,-0.86,1.65
27,-6.28,-7.93,-6.28,-7.93,6.00,6.48,-0.28,-0.28,1.65
28,-5.69,-7.33,-5.73,-7.38,6.00,6.18,0.31,0.27,1.65
29,-5.21,-6.86,-5.20,-6.85,5.93,5.82,0.71,0.72,1.65
30,-4.66,-6.31,-4.70,-6.35,5.77,5.44,1.11,1.07,1.65
31,-4.23,-5.88,-4.23,-5.88,5.55,5.06,1.32,1.32,1.65
32,-3.82,-5.47,-3.78,-5.42,5.27,4.69,1.45,1.49,1.65
33,-3.43,-5.08,-3.34,-4.99,4.94,4.34,1.51,1.60,1.65
34,-2.95,-4.60,-2.93,-4.58,4.58,4.02,1.62,1.65,1.65
35,-2.52,-4.16,-2.54,-4.19,4.19,3.72,1.67,1.65,1.65
36,-2.12,-3.76,-2.18,-3.82,3.82,3.45,1.71,1.65,1.65
37,-1.78,-3.42,-1.83,-3.48,3.48,3.19,1.70,1.64,1.64
38,-1.43,-3.07,-1.51,-3.16,3.16,2.97,1.73,1.64,1.64
39,-1.36,-3.01,-1.21,-2.86,2.86,2.76,1.49,1.64,1.64
40,-1.00,-2.64,-0.94,-2.58,2.58,2.56,1.58,1.64,1.64
41,-0.63,-2.27,-0.68,-2.33,2.33,2.39,1.70,1.64,1.64
42,-0.43,-2.07,-0.45,-2.09,2.09,2.23,1.67,1.64,1.64
43,-0.28,-1.92,-0.24,-1.88,1.88,2.08,1.60,1.64,1.64
44,0.04,-1.60,-0.04,-1.68,1.68,1.95,1.72,1.64,1.64
45,0.22,-1.41,0.13,-1.51,1.51,1.82,1.73,1.64,1.64
46,0.12,-1.52,0.29,-1.35,1.35,1.71,1.46,1.64,1.64
47,0.36,-1.27,0.43,-1.20,1.20,1.60,1.56,1.63,1.63
48,0.68,-0.95,0.56,-1.07,1.07,1.50,1.75,1.63,1.63
49,0.70,-0.93,0.67,-0.95,0.95,1.41,1.65,1.63,1.63
50,0.80,-0.82,0.78,-0.85,0.85,1.33,1.65,1.63,1.63
51,0.72,-0.90,0.87,-0.76,0.76,1.25,1.48,1.62,1.62
52,1.07,-0.55,0.94,-0.68,0.68,1.17,1.74,1.62,1.62
53,1.00,-0.61,1.01,-0.60,0.60,1.10,1.61,1.62,1.62
54,1.00,-0.61,1.07,-0.54,0.54,1.04,1.54,1.61,1.61
55,1.10,-0.51,1.11,-0.49,0.49,0.97,1.59,1.61,1.61
56,1.20,-0.40,1.15,-0.45,0.45,0.92,1.65,1.60,1.60
57,1.20,-0.39,1.18,-0.42,0.42,0.86,1.62,1.60,1.60
58,1.20,-0.39,1.20,-0.39,0.39,0.81,1.60,1.59,1.59
59,1.20,-0.38,1.21,-0.38,0.38,0.76,1.58,1.58,1.58
60,1.20,-0.37,1.21,-0.36,0.36,0.71,1.57,1.58,1.58
61,1.20,-0.37,1.21,-0.35,0.35,0.66,1.56,1.57,1.57
62,1.20,-0.36,1.21,-0.34,0.34,0.62,1.55,1.56,1.56
63,1.20,-0.35,1.21,-0.34,0.34,0.58,1.54,1.55,1.55
64,1.20,-0.34,1.21,-0.33,0.33,0.54,1.53,1.54,1.54
65,1.20,-0.32,1.21,-0.32,0.32,0.50,1.52,1.53,1.53
66,1.20,-0.31,1.20,-0.31,0.31,0.47,1.51,1.51,1.51
67,1.20,-0.30,1.19,-0.31,0.31,0.43,1.51,1.50,1.50
68,1.20,-0.28,1.18,-0.31,0.31,0.40,1.51,1.49,1.49
69,1.20,-0.27,1.16,-0.31,0.31,0.36,1.51,1.47,1.47
70,1.20,-0.25,1.15,-0.31,0.31,0.33,1.51,1.45,1.45
71,1.09,-0.34,1.13,-0.30,0.30,0.30,1.39,1.44,1.44
72,1.03,-0.39,1.12,-0.29,0.29,0.27,1.32,1.42,1.42
73,1.10,-0.29,1.11,-0.28,0.28,0.24,1.38,1.40,1.40
74,1.10,-0.27,1.11,-0.26,0.26,0.22,1.36,1.37,1.37
75,1.10,-0.25,1.11,-0.24,0.24,0.19,1.34,1.35,1.35
76,1.10,-0.22,1.11,-0.22,0.22,0.16,1.32,1.32,1.32
77,1.10,-0.20,1.10,-0.20,0.20,0.14,1.30,1.30,1.30
78,1.17,-0.10,1.08,-0.19,0.19,0.11,1.35,1.27,1.27
79,1.16,-0.08,1.06,-0.18,0.18,0.09,1.34,1.24,1.24
80,1.00,-0.21,1.03,-0.18,0.18,0.06,1.18,1.21,1.21
81,1.00,-0.17,1.00,-0.18,0.18,0.04,1.18,1.17,1.17
82,0.94,-0.20,0.96,-0.17,0.17,0.01,1.11,1.14,1.14
83,0.80,-0.30,0.94,-0.17,0.17,-0.01,0.97,1.10,1.10
84,0.90,-0.16,0.91,-0.15,0.15,-0.03,1.05,1.06,1.06
85,0.90,-0.12,0.90,-0.13,0.13,-0.05,1.03,1.02,1.02
86,0.90,-0.08,0.88,-0.10,0.10,-0.07,1.00,0.98,0.98
87,0.90,-0.04,0.87,-0.07,0.07,-0.09,0.97,0.94,0.94
88,0.90,0.01,0.85,-0.04,0.04,-0.12,0.94,0.89,0.89
89,0.89,0.04,0.83,-0.01,0.01,-0.14,0.90,0.84,0.84
90,0.80,0.01,0.81,0.01,-0.01,-0.16,0.79,0.79,0.80
91,0.73,-0.02,0.78,0.04,-0.04,-0.18,0.69,0.74,0.74
92,0.71,0.01,0.76,0.06,-0.06,-0.20,0.64,0.69,0.69
93,0.71,0.07,0.73,0.09,-0.09,-0.22,0.62,0.64,0.64
94,0.71,0.12,0.71,0.12,-0.12,-0.24,0.59,0.59,0.58
95,0.71,0.18,0.68,0.15,-0.15,-0.26,0.56,0.53,0.53
96,0.70,0.23,0.65,0.18,-0.18,-0.27,0.52,0.47,0.47
97,0.61,0.19,0.62,0.21,-0.21,-0.29,0.40,0.41,0.41
98,0.47,0.11,0.59,0.23,-0.23,-0.31,0.23,0.35,0.35
99,0.60,0.31,0.54,0.25,-0.25,-0.33,0.35,0.29,0.29
100,0.68,0.45,0.49,0.27,-0.27,-0.35,0.41,0.22,0.23
101,0.44,0.27,0.43,0.28,-0.28,-0.37,0.17,0.15,0.17
102,0.20,0.09,0.37,0.29,-0.29,-0.39,-0.09,0.08,0.11
104,0.30,0.32,0.31,0.30,-0.30,-0.42,0.00,0.01,-0.01
105,0.28,0.35,0.25,0.31,-0.31,-0.44,-0.03,-0.06,-0.08
106,0.17,0.30,0.18,0.31,-0.31,-0.46,-0.15,-0.13,-0.14
107,0.10,0.30,0.12,0.32,-0.32,-0.48,-0.22,-0.20,-0.20
108,0.00,0.26,0.06,0.32,-0.32,-0.49,-0.32,-0.26,-0.26
109,0.06,0.38,0.00,0.32,-0.32,-0.51,-0.26,-0.32,-0.32
110,0.08,0.46,-0.06,0.32,-0.32,-0.53,-0.24,-0.38,-0.38
111,-0.10,0.33,-0.12,0.32,-0.32,-0.55,-0.42,-0.44,-0.44
112,-0.20,0.29,-0.18,0.32,-0.32,-0.57,-0.52,-0.50,-0.49
113,-0.39,0.15,-0.23,0.32,-0.32,-0.58,-0.72,-0.56,-0.55
114,-0.37,0.23,-0.28,0.34,-0.34,-0.60,-0.71,-0.61,-0.60
115,-0.19,0.46,-0.32,0.36,-0.36,-0.62,-0.55,-0.67,-0.65
117,-0.34,0.42,-0.35,0.38,-0.38,-0.66,-0.72,-0.73,-0.76
118,-0.38,0.43,-0.38,0.41,-0.41,-0.67,-0.79,-0.79,-0.81
119,-0.37,0.48,-0.40,0.45,-0.45,-0.69,-0.82,-0.85,-0.85
120,-0.37,0.53,-0.42,0.49,-0.49,-0.71,-0.85,-0.91,-0.90
121,-0.48,0.46,-0.43,0.53,-0.53,-0.73,-1.01,-0.96,-0.94
123,-0.51,0.52,-0.44,0.57,-0.57,-0.77,-1.08,-1.01,-1.03
124,-0.44,0.63,-0.45,0.62,-0.62,-0.79,-1.06,-1.06,-1.07
125,-0.44,0.67,-0.45,0.67,-0.67,-0.80,-1.10,-1.11,-1.11
126,-0.43,0.71,-0.44,0.72,-0.72,-0.82,-1.15,-1.16,-1.14
128,-0.42,0.80,-0.43,0.77,-0.77,-0.86,-1.19,-1.20,-1.22
129,-0.42,0.83,-0.42,0.82,-0.82,-0.88,-1.24,-1.24,-1.25
130,-0.41,0.87,-0.41,0.87,-0.87,-0.90,-1.28,-1.28,-1.28
131,-0.41,0.90,-0.41,0.92,-0.92,-0.92,-1.32,-1.32,-1.31
133,-0.40,0.97,-0.40,0.96,-0.96,-0.97,-1.36,-1.36,-1.37
134,-0.40,1.00,-0.40,1.00,-1.00,-0.99,-1.39,-1.40,-1.40
135,-0.39,1.03,-0.40,1.03,-1.03,-1.01,-1.42,-1.44,-1.42
137,-0.39,1.09,-0.41,1.06,-1.06,-1.05,-1.45,-1.47,-1.48
138,-0.39,1.11,-0.41,1.10,-1.10,-1.08,-1.48,-1.51,-1.50
140,-0.38,1.17,-0.40,1.14,-1.14,-1.12,-1.52,-1.54,-1.55
141,-0.41,1.16,-0.39,1.18,-1.18,-1.15,-1.59,-1.57,-1.57
142,-0.49,1.10,-0.36,1.24,-1.24,-1.17,-1.72,-1.60,-1.59
144,-0.36,1.28,-0.33,1.30,-1.30,-1.22,-1.65,-1.63,-1.63
145,-0.28,1.37,-0.30,1.36,-1.36,-1.25,-1.64,-1.66,-1.65
147,-0.28,1.41,-0.26,1.43,-1.43,-1.30,-1.71,-1.69,-1.69
148,-0.28,1.42,-0.23,1.48,-1.48,-1.33,-1.76,-1.71,-1.71
150,-0.06,1.68,-0.21,1.52,-1.52,-1.38,-1.59,-1.74,-1.74
151,-0.08,1.67,-0.21,1.55,-1.55,-1.41,-1.64,-1.76,-1.76
153,-0.18,1.61,-0.22,1.57,-1.57,-1.46,-1.75,-1.78,-1.79
154,-0.18,1.62,-0.23,1.57,-1.57,-1.48,-1.76,-1.81,-1.80
156,-0.39,1.44,-0.25,1.57,-1.57,-1.53,-1.96,-1.83,-1.83
157,-0.42,1.42,-0.27,1.57,-1.57,-1.55,-2.00,-1.85,-1.84
159,-0.28,1.59,-0.28,1.58,-1.58,-1.60,-1.86,-1.87,-1.87
160,-0.28,1.60,-0.29,1.59,-1.59,-1.62,-1.87,-1.88,-1.88
162,-0.28,1.62,-0.29,1.61,-1.61,-1.65,-1.89,-1.90,-1.90
164,-0.28,1.64,-0.29,1.63,-1.63,-1.68,-1.91,-1.92,-1.92
165,-0.29,1.64,-0.29,1.64,-1.64,-1.69,-1.93,-1.93,-1.93
167,-0.29,1.65,-0.30,1.65,-1.65,-1.71,-1.94,-1.94,-1.94
169,-0.16,1.80,-0.31,1.65,-1.65,-1.72,-1.80,-1.95,-1.96
170,-0.17,1.79,-0.32,1.64,-1.64,-1.72,-1.81,-1.96,-1.96
172,-0.53,1.44,-0.34,1.63,-1.63,-1.73,-2.17,-1.97,-1.97
174,-0.44,1.55,-0.35,1.63,-1.63,-1.73,-2.06,-1.98,-1.98
175,-0.51,1.47,-0.36,1.63,-1.63,-1.73,-2.14,-1.99,-1.98
177,-0.29,1.70,-0.36,1.63,-1.63,-1.73,-1.92,-1.99,-1.99
179,-0.24,1.75,-0.35,1.64,-1.64,-1.73,-1.89,-1.99,-1.99
181,-0.32,1.67,-0.34,1.66,-1.66,-1.73,-1.98,-2.00,-2.00
183,-0.32,1.68,-0.32,1.67,-1.67,-1.72,-1.99,-2.00,-2.00
184,-0.31,1.69,-0.31,1.69,-1.69,-1.72,-2.00,-2.00,-2.00
186,-0.30,1.70,-0.29,1.70,-1.70,-1.72,-2.00,-2.00,-2.00
188,-0.28,1.71,-0.28,1.72,-1.72,-1.72,-2.00,-1.99,-1.99
190,-0.27,1.73,-0.26,1.73,-1.73,-1.72,-2.00,-1.99,-1.99
192,-0.25,1.74,-0.24,1.74,-1.74,-1.73,-1.99,-1.99,-1.99
194,-0.23,1.75,-0.23,1.76,-1.76,-1.73,-2.00,-1.99,-1.99
196,-0.22,1.76,-0.20,1.78,-1.78,-1.73,-2.00,-1.98,-1.98
198,-0.21,1.77,-0.18,1.80,-1.80,-1.74,-2.01,-1.98,-1.98
200,-0.20,1.78,-0.16,1.82,-1.82,-1.75,-2.02,-1.98,-1.98
202,-0.04,1.94,-0.13,1.84,-1.84,-1.75,-1.88,-1.97,-1.97
204,0.07,2.04,-0.11,1.86,-1.86,-1.76,-1.79,-1.97,-1.97
206,-0.23,1.73,-0.09,1.88,-1.88,-1.77,-2.11,-1.97,-1.97
208,-0.25,1.72,-0.07,1.89,-1.89,-1.78,-2.14,-1.96,-1.96
210,0.01,1.97,-0.05,1.91,-1.91,-1.79,-1.89,-1.96,-1.96
212,0.01,1.97,-0.04,1.92,-1.92,-1.80,-1.91,-1.95,-1.95
214,0.01,1.96,-0.02,1.93,-1.93,-1.81,-1.92,-1.95,-1.95
216,0.00,1.95,-0.02,1.93,-1.93,-1.82,-1.93,-1.95,-1.95
218,0.00,1.94,-0.01,1.93,-1.93,-1.83,-1.93,-1.94,-1.94
221,-0.00,1.94,-0.01,1.93,-1.93,-1.85,-1.93,-1.94,-1.94
223,-0.00,1.93,-0.00,1.93,-1.93,-1.86,-1.94,-1.93,-1.93
225,-0.01,1.92,0.01,1.94,-1.94,-1.87,-1.94,-1.93,-1.93
227,-0.00,1.92,0.03,1.95,-1.95,-1.88,-1.95,-1.92,-1.92
229,-0.00,1.92,0.05,1.97,-1.97,-1.89,-1.97,-1.92,-1.92
232,0.01,1.92,0.08,1.99,-1.99,-1.91,-1.98,-1.91,-1.91
234,0.09,1.99,0.11,2.01,-2.01,-1.92,-1.93,-1.90,-1.90
236,0.29,2.18,0.14,2.03,-2.03,-1.93,-1.74,-1.89,-1.89
239,0.26,2.14,0.17,2.05,-2.05,-1.95,-1.80,-1.88,-1.89
241,0.16,2.04,0.19,2.06,-2.06,-1.96,-1.90,-1.88,-1.88
244,0.18,2.05,0.21,2.07,-2.07,-1.98,-1.89,-1.87,-1.87
246,0.20,2.06,0.22,2.08,-2.08,-1.99,-1.87,-1.86,-1.86
248,0.22,2.07,0.24,2.08,-2.08,-2.00,-1.86,-1.85,-1.85
251,0.24,2.08,0.26,2.09,-2.09,-2.01,-1.85,-1.84,-1.84
253,0.26,2.08,0.28,2.10,-2.10,-2.02,-1.85,-1.83,-1.83
256,0.27,2.09,0.31,2.12,-2.12,-2.04,-1.85,-1.81,-1.81
259,0.28,2.08,0.34,2.14,-2.14,-2.05,-1.86,-1.80,-1.80
261,0.31,2.10,0.37,2.16,-2.16,-2.06,-1.85,-1.79,-1.79
264,0.57,2.35,0.39,2.17,-2.17,-2.07,-1.60,-1.78,-1.78
266,0.51,2.28,0.40,2.18,-2.18,-2.08,-1.67,-1.77,-1.77
269,0.38,2.15,0.41,2.17,-2.17,-2.09,-1.79,-1.76,-1.76
272,0.38,2.13,0.41,2.16,-2.16,-2.10,-1.79,-1.75,-1.75
274,0.37,2.12,0.41,2.15,-2.15,-2.11,-1.78,-1.75,-1.74
277,0.37,2.11,0.40,2.14,-2.14,-2.12,-1.76,-1.74,-1.74
280,0.37,2.10,0.40,2.13,-2.13,-2.12,-1.75,-1.73,-1.73
283,0.38,2.10,0.40,2.12,-2.12,-2.13,-1.74,-1.72,-1.72
286,0.38,2.09,0.40,2.12,-2.12,-2.14,-1.73,-1.71,-1.71
288,0.39,2.09,0.41,2.11,-2.11,-2.14,-1.72,-1.70,-1.70
291,0.56,2.25,0.42,2.11,-2.11,-2.15,-1.55,-1.69,-1.69
294,0.56,2.25,0.42,2.11,-2.11,-2.15,-1.55,-1.69,-1.69
297,0.22,1.90,0.43,2.11,-2.11,-2.15,-1.89,-1.68,-1.68
300,0.41,2.09,0.44,2.11,-2.11,-2.15,-1.70,-1.67,-1.67
303,0.45,2.11,0.45,2.11,-2.11,-2.15,-1.66,-1.66,-1.66
306,0.46,2.12,0.46,2.12,-2.12,-2.15,-1.65,-1.66,-1.66
309,0.47,2.12,0.47,2.12,-2.12,-2.14,-1.65,-1.65,-1.65
312,0.48,2.12,0.48,2.12,-2.12,-2.14,-1.64,-1.64,-1.64
316,0.48,2.12,0.48,2.12,-2.12,-2.13,-1.64,-1.64,-1.64
319,0.48,2.11,0.47,2.10,-2.10,-2.12,-1.62,-1.63,-1.63
322,0.48,2.11,0.46,2.08,-2.08,-2.11,-1.60,-1.62,-1.62
325,0.48,2.10,0.43,2.05,-2.05,-2.09,-1.56,-1.62,-1.62
328,0.48,2.09,0.40,2.01,-2.01,-2.08,-1.53,-1.61,-1.61
332,0.44,2.05,0.36,1.97,-1.97,-2.05,-1.53,-1.61,-1.61
335,0.15,1.75,0.33,1.93,-1.93,-2.04,-1.79,-1.60,-1.60
338,0.20,1.79,0.31,1.90,-1.90,-2.01,-1.71,-1.60,-1.60
342,0.37,1.96,0.30,1.89,-1.89,-1.99,-1.52,-1.59,-1.59
345,0.18,1.76,0.30,1.88,-1.88,-1.96,-1.71,-1.59,-1.59
349,0.25,1.83,0.31,1.89,-1.89,-1.93,-1.64,-1.58,-1.58
352,0.47,2.05,0.32,1.90,-1.90,-1.91,-1.42,-1.58,-1.58
356,0.48,2.05,0.33,1.90,-1.90,-1.88,-1.43,-1.58,-1.58
359,0.27,1.84,0.33,1.90,-1.90,-1.86,-1.63,-1.57,-1.57
363,0.17,1.74,0.32,1.90,-1.90,-1.84,-1.72,-1.57,-1.57
366,0.37,1.94,0.31,1.88,-1.88,-1.82,-1.50,-1.57,-1.57
370,0.40,1.96,0.29,1.86,-1.86,-1.81,-1.46,-1.57,-1.57
374,0.41,1.97,0.27,1.83,-1.83,-1.81,-1.43,-1.56,-1.56
377,0.31,1.87,0.26,1.82,-1.82,-1.81,-1.51,-1.56,-1.56
381,0.06,1.62,0.27,1.83,-1.83,-1.83,-1.77,-1.56,-1.56
385,0.18,1.73,0.30,1.85,-1.85,-1.85,-1.67,-1.55,-1.55
389,0.07,1.62,0.34,1.89,-1.89,-1.88,-1.82,-1.55,-1.55
393,0.34,1.88,0.40,1.94,-1.94,-1.91,-1.61,-1.54,-1.54
397,0.80,2.33,0.47,2.00,-2.00,-1.95,-1.20,-1.53,-1.53
401,0.80,2.32,0.53,2.05,-2.05,-1.99,-1.25,-1.52,-1.52
405,0.54,2.05,0.59,2.10,-2.10,-2.04,-1.56,-1.51,-1.51
409,0.52,2.01,0.64,2.13,-2.13,-2.09,-1.62,-1.49,-1.50
413,0.63,2.10,0.68,2.16,-2.16,-2.13,-1.53,-1.48,-1.48
417,0.77,2.23,0.71,2.17,-2.17,-2.18,-1.40,-1.46,-1.46
421,0.82,2.26,0.75,2.18,-2.18,-2.22,-1.36,-1.43,-1.44
425,0.74,2.15,0.79,2.19,-2.19,-2.26,-1.46,-1.41,-1.41
430,0.75,2.13,0.83,2.21,-2.21,-2.31,-1.46,-1.38,-1.38
434,0.77,2.12,0.88,2.23,-2.23,-2.35,-1.46,-1.35,-1.35
438,0.88,2.20,0.94,2.25,-2.25,-2.38,-1.37,-1.31,-1.32
443,1.21,2.49,1.00,2.28,-2.28,-2.42,-1.06,-1.28,-1.28
447,1.23,2.47,1.06,2.30,-2.30,-2.45,-1.08,-1.24,-1.24
451,1.03,2.23,1.13,2.33,-2.33,-2.47,-1.30,-1.20,-1.20
456,1.09,2.25,1.20,2.35,-2.35,-2.50,-1.27,-1.16,-1.16
460,1.28,2.40,1.27,2.39,-2.39,-2.53,-1.11,-1.12,-1.12
465,1.61,2.69,1.35,2.43,-2.43,-2.55,-0.81,-1.08,-1.08
470,1.12,2.15,1.44,2.48,-2.48,-2.57,-1.36,-1.04,-1.03
474,1.20,2.20,1.54,2.54,-2.54,-2.59,-1.34,-1.00,-1.00
479,1.99,2.94,1.64,2.60,-2.60,-2.61,-0.62,-0.96,-0.96
484,1.85,2.77,1.74,2.67,-2.67,-2.63,-0.82,-0.92,-0.92
489,1.77,2.66,1.84,2.73,-2.73,-2.64,-0.96,-0.89,-0.89
494,1.86,2.73,1.92,2.78,-2.78,-2.65,-0.92,-0.87,-0.86
499,2.26,3.10,1.99,2.83,-2.83,-2.67,-0.57,-0.84,-0.84
504,2.13,2.95,2.05,2.87,-2.87,-2.68,-0.74,-0.82,-0.82
509,1.98,2.78,2.10,2.90,-2.90,-2.69,-0.93,-0.81,-0.81
514,1.69,2.49,2.14,2.93,-2.93,-2.69,-1.24,-0.80,-0.80
519,2.10,2.89,2.16,2.96,-2.96,-2.70,-0.85,-0.79,-0.79
524,2.51,3.30,2.18,2.97,-2.97,-2.71,-0.46,-0.79,-0.79
529,2.39,3.18,2.19,2.98,-2.98,-2.71,-0.59,-0.79,-0.79
535,2.16,2.95,2.18,2.97,-2.97,-2.72,-0.81,-0.79,-0.79
540,2.13,2.93,2.16,2.96,-2.96,-2.72,-0.83,-0.80,-0.80
545,2.09,2.90,2.12,2.94,-2.94,-2.72,-0.85,-0.81,-0.81
551,2.04,2.86,2.09,2.91,-2.91,-2.73,-0.86,-0.82,-0.82
556,1.99,2.82,2.04,2.88,-2.88,-2.73,-0.88,-0.83,-0.83
562,1.94,2.78,2.00,2.84,-2.84,-2.73,-0.90,-0.84,-0.84
568,1.89,2.74,1.96,2.81,-2.81,-2.73,-0.92,-0.85,-0.85
573,1.85,2.71,1.91,2.77,-2.77,-2.73,-0.93,-0.86,-0.86
579,2.14,3.00,1.87,2.73,-2.73,-2.73,-0.60,-0.87,-0.87
585,2.11,2.98,1.82,2.69,-2.69,-2.72,-0.58,-0.87,-0.87
591,1.67,2.54,1.77,2.64,-2.64,-2.72,-0.97,-0.87,-0.87
596,1.39,2.26,1.73,2.60,-2.60,-2.72,-1.20,-0.87,-0.87
602,1.67,2.53,1.70,2.56,-2.56,-2.71,-0.89,-0.86,-0.86
608,1.89,2.73,1.68,2.53,-2.53,-2.71,-0.64,-0.85,-0.85
615,1.46,2.30,1.68,2.51,-2.51,-2.70,-1.05,-0.83,-0.83
621,1.72,2.53,1.70,2.51,-2.51,-2.70,-0.79,-0.81,-0.81
627,1.91,2.70,1.73,2.52,-2.52,-2.69,-0.61,-0.79,-0.79
633,1.62,2.39,1.77,2.53,-2.53,-2.68,-0.91,-0.76,-0.76
639,1.76,2.50,1.81,2.55,-2.55,-2.68,-0.79,-0.74,-0.74
646,2.02,2.72,1.86,2.56,-2.56,-2.67,-0.55,-0.71,-0.71
652,2.01,2.68,1.90,2.58,-2.58,-2.66,-0.57,-0.67,-0.67
659,1.81,2.45,1.95,2.58,-2.58,-2.65,-0.77,-0.64,-0.64
665,1.85,2.45,1.98,2.59,-2.59,-2.64,-0.74,-0.61,-0.60
672,2.18,2.75,2.02,2.59,-2.59,-2.63,-0.41,-0.57,-0.57
679,2.09,2.63,2.05,2.59,-2.59,-2.61,-0.50,-0.54,-0.54
686,2.00,2.50,2.08,2.59,-2.59,-2.60,-0.59,-0.50,-0.50
692,2.03,2.50,2.11,2.58,-2.58,-2.59,-0.55,-0.47,-0.47
699,2.22,2.66,2.13,2.57,-2.57,-2.57,-0.35,-0.44,-0.44
706,2.22,2.63,2.15,2.56,-2.56,-2.55,-0.33,-0.41,-0.41
713,2.15,2.53,2.15,2.54,-2.54,-2.53,-0.39,-0.39,-0.39
721,2.11,2.47,2.16,2.52,-2.52,-2.51,-0.41,-0.36,-0.36
728,2.12,2.45,2.16,2.50,-2.50,-2.49,-0.38,-0.34,-0.34
735,2.13,2.45,2.15,2.47,-2.47,-2.47,-0.34,-0.32,-0.32
742,2.14,2.44,2.13,2.44,-2.44,-2.45,-0.30,-0.30,-0.30
750,2.17,2.45,2.11,2.40,-2.40,-2.42,-0.23,-0.29,-0.28
757,2.14,2.41,2.09,2.36,-2.36,-2.39,-0.22,-0.27,-0.27
765,2.06,2.32,2.06,2.32,-2.32,-2.36,-0.26,-0.26,-0.26
773,2.05,2.29,2.03,2.28,-2.28,-2.32,-0.24,-0.25,-0.25
780,1.95,2.19,2.01,2.24,-2.24,-2.29,-0.29,-0.24,-0.24
788,1.93,2.16,1.98,2.21,-2.21,-2.24,-0.28,-0.23,-0.23
796,1.93,2.15,1.96,2.18,-2.18,-2.20,-0.25,-0.22,-0.22
804,1.93,2.14,1.94,2.15,-2.15,-2.15,-0.22,-0.21,-0.21
812,1.94,2.14,1.92,2.12,-2.12,-2.10,-0.19,-0.20,-0.20
820,1.94,2.14,1.90,2.09,-2.09,-2.05,-0.15,-0.20,-0.20
828,1.94,2.13,1.87,2.06,-2.06,-1.99,-0.12,-0.19,-0.19
837,1.79,1.97,1.84,2.02,-2.02,-1.92,-0.23,-0.18,-0.18
845,1.74,1.92,1.80,1.97,-1.97,-1.85,-0.23,-0.18,-0.18
853,1.74,1.91,1.74,1.91,-1.91,-1.78,-0.17,-0.17,-0.17
862,1.69,1.86,1.67,1.84,-1.84,-1.69,-0.14,-0.16,-0.16
871,1.59,1.74,1.59,1.75,-1.75,-1.60,-0.16,-0.15,-0.15
879,1.54,1.69,1.49,1.64,-1.64,-1.51,-0.10,-0.15,-0.15
888,1.41,1.54,1.37,1.51,-1.51,-1.41,-0.11,-0.14,-0.14
897,1.25,1.38,1.24,1.37,-1.37,-1.31,-0.12,-0.13,-0.13
906,1.11,1.23,1.09,1.21,-1.21,-1.20,-0.10,-0.12,-0.12
915,0.90,1.02,0.93,1.05,-1.05,-1.08,-0.14,-0.11,-0.11
924,0.81,0.91,0.77,0.87,-0.87,-0.97,-0.06,-0.10,-0.10
933,0.66,0.75,0.61,0.70,-0.70,-0.85,-0.04,-0.09,-0.09
943,0.45,0.53,0.47,0.55,-0.55,-0.71,-0.09,-0.08,-0.08
952,0.26,0.33,0.34,0.41,-0.41,-0.59,-0.14,-0.07,-0.07
962,0.11,0.17,0.23,0.29,-0.29,-0.45,-0.17,-0.05,-0.05
971,0.07,0.11,0.15,0.19,-0.19,-0.33,-0.12,-0.04,-0.04
981,0.12,0.15,0.08,0.11,-0.11,-0.20,0.01,-0.02,-0.02
991,0.02,0.03,0.03,0.04,-0.04,-0.07,-0.01,-0.01,-0.01
1001,-0.00,-0.01,-0.02,-0.03,0.03,0.05,0.03,0.01,0.01
1011,0.03,0.00,-0.06,-0.10,0.10,0.17,0.13,0.03,0.03
1021,-0.07,-0.12,-0.12,-0.17,0.17,0.28,0.11,0.06,0.05
1031,-0.10,-0.18,-0.18,-0.26,0.26,0.38,0.15,0.08,0.08
1041,-0.26,-0.36,-0.25,-0.36,0.36,0.47,0.10,0.10,0.10
1052,-0.38,-0.51,-0.32,-0.46,0.46,0.57,0.07,0.13,0.13
1062,-0.42,-0.58,-0.40,-0.56,0.56,0.65,0.14,0.16,0.16
1073,-0.52,-0.71,-0.46,-0.65,0.65,0.73,0.13,0.19,0.19
1084,-0.54,-0.76,-0.52,-0.74,0.74,0.80,0.20,0.22,0.22
1094,-0.57,-0.83,-0.57,-0.83,0.83,0.86,0.25,0.25,0.25
1105,-0.63,-0.91,-0.62,-0.91,0.91,0.92,0.28,0.29,0.29
1116,-0.65,-0.97,-0.66,-0.99,0.99,0.98,0.34,0.32,0.32
1128,-0.69,-1.05,-0.71,-1.07,1.07,1.04,0.38,0.36,0.36
1139,-0.70,-1.09,-0.77,-1.16,1.16,1.10,0.46,0.39,0.39
1150,-0.83,-1.26,-0.83,-1.26,1.26,1.15,0.42,0.42,0.42
1162,-0.88,-1.34,-0.90,-1.36,1.36,1.21,0.48,0.46,0.46
1173,-0.89,-1.38,-0.97,-1.45,1.45,1.27,0.57,0.49,0.49
1185,-0.96,-1.48,-1.01,-1.53,1.53,1.33,0.57,0.52,0.52
1197,-1.07,-1.61,-1.04,-1.59,1.59,1.40,0.52,0.55,0.55
1209,-1.21,-1.79,-1.03,-1.61,1.61,1.46,0.40,0.57,0.57
1221,-1.22,-1.82,-1.00,-1.60,1.60,1.53,0.38,0.60,0.60
1233,-1.18,-1.80,-0.95,-1.57,1.57,1.60,0.39,0.62,0.62
1246,-0.95,-1.58,-0.89,-1.53,1.53,1.68,0.59,0.64,0.64
1258,-0.69,-1.34,-0.86,-1.51,1.51,1.75,0.82,0.65,0.65
1271,-0.68,-1.35,-0.86,-1.53,1.53,1.83,0.85,0.67,0.67
1283,-0.59,-1.26,-0.92,-1.60,1.60,1.90,1.01,0.68,0.68
1296,-0.73,-1.42,-1.04,-1.72,1.72,1.98,0.98,0.68,0.68
1309,-1.19,-1.87,-1.20,-1.89,1.89,2.06,0.70,0.69,0.69
1322,-1.58,-2.26,-1.41,-2.10,2.10,2.14,0.52,0.69,0.69
1335,-1.83,-2.51,-1.63,-2.31,2.31,2.23,0.49,0.68,0.68
1349,-1.90,-2.58,-1.84,-2.52,2.52,2.31,0.63,0.68,0.68
1362,-2.14,-2.81,-2.03,-2.70,2.70,2.40,0.56,0.67,0.67
1376,-2.17,-2.84,-2.17,-2.84,2.84,2.48,0.66,0.67,0.67
1390,-2.31,-2.97,-2.27,-2.93,2.93,2.57,0.62,0.66,0.66
1404,-2.44,-3.09,-2.33,-2.98,2.98,2.65,0.54,0.65,0.65
1418,-2.36,-3.00,-2.36,-3.00,3.00,2.74,0.64,0.64,0.64
1432,-2.35,-2.98,-2.37,-3.00,3.00,2.82,0.65,0.63,0.63
1446,-2.31,-2.93,-2.38,-3.00,3.00,2.90,0.70,0.63,0.63
1461,-2.33,-2.95,-2.39,-3.01,3.01,2.99,0.69,0.62,0.62
1475,-2.30,-2.91,-2.42,-3.03,3.03,3.06,0.74,0.62,0.62
1490,-2.34,-2.96,-2.45,-3.07,3.07,3.14,0.72,0.62,0.61
1505,-2.53,-3.14,-2.50,-3.12,3.12,3.22,0.59,0.62,0.62
1520,-2.63,-3.25,-2.54,-3.17,3.17,3.30,0.54,0.62,0.62
1535,-2.70,-3.33,-2.59,-3.22,3.22,3.37,0.53,0.63,0.63
1550,-2.77,-3.41,-2.63,-3.28,3.28,3.44,0.51,0.65,0.65
1566,-2.67,-3.33,-2.66,-3.33,3.33,3.51,0.66,0.67,0.67
1582,-2.50,-3.19,-2.68,-3.37,3.37,3.57,0.87,0.69,0.69
1597,-2.60,-3.32,-2.70,-3.42,3.42,3.63,0.82,0.72,0.72
1613,-2.68,-3.43,-2.71,-3.46,3.46,3.69,0.79,0.76,0.75
1629,-2.80,-3.60,-2.72,-3.51,3.51,3.75,0.71,0.80,0.79
1646,-2.86,-3.70,-2.72,-3.56,3.56,3.80,0.70,0.84,0.84
1662,-2.79,-3.68,-2.72,-3.61,3.61,3.85,0.83,0.89,0.89
1679,-2.59,-3.54,-2.72,-3.67,3.67,3.90,1.07,0.95,0.95
1696,-2.59,-3.60,-2.71,-3.72,3.72,3.94,1.14,1.01,1.01
1713,-2.70,-3.78,-2.70,-3.78,3.78,3.98,1.08,1.08,1.08
1730,-2.72,-3.87,-2.68,-3.83,3.83,4.02,1.11,1.15,1.15
1747,-2.73,-3.95,-2.66,-3.88,3.88,4.05,1.16,1.23,1.23
1764,-2.67,-3.98,-2.62,-3.93,3.93,4.08,1.26,1.31,1.31
1782,-2.64,-4.03,-2.58,-3.97,3.97,4.11,1.34,1.39,1.39
