frequency,raw
20,2.84
21,3.25
22,3.74
23,4.10
24,4.45
25,4.86
26,5.11
27,5.43
28,5.73
29,6.06
30,6.23
31,6.50
32,6.70
33,6.90
34,7.14
35,7.37
36,7.54
37,7.77
38,7.86
39,7.97
40,8.17
41,8.24
42,8.37
43,8.50
44,8.62
45,8.67
46,8.77
47,8.87
48,8.87
49,8.97
50,9.08
51,9.18
52,9.18
53,9.28
54,9.28
55,9.38
56,9.38
57,9.38
58,9.38
59,9.48
60,9.48
61,9.48
62,9.58
63,9.58
64,9.58
65,9.58
66,9.58
67,9.58
68,9.58
69,9.58
70,9.58
71,9.58
72,9.58
73,9.58
74,9.58
75,9.58
76,9.58
77,9.58
78,9.58
79,9.58
80,9.58
81,9.58
82,9.58
83,9.58
84,9.58
85,9.58
86,9.58
87,9.58
88,9.58
89,9.58
90,9.58
91,9.58
92,9.58
93,9.59
94,9.59
95,9.58
96,9.58
97,9.58
98,9.57
99,9.56
100,9.54
101,9.52
102,9.40
104,9.28
105,9.26
106,9.23
107,9.21
108,9.18
109,9.16
110,9.14
111,9.13
112,9.11
113,9.11
114,9.10
115,9.10
117,9.09
118,8.96
119,8.91
120,8.91
121,8.92
123,8.93
124,8.94
125,8.94
126,8.95
128,8.96
129,8.96
130,8.97
131,8.98
133,8.78
134,8.78
135,8.79
137,8.79
138,8.79
140,8.80
141,8.80
142,8.80
144,8.64
145,8.60
147,8.60
148,8.60
150,8.60
151,8.60
153,8.60
154,8.60
156,8.50
157,8.50
159,8.40
160,8.40
162,8.31
164,8.24
165,8.19
167,8.18
169,8.18
170,8.17
172,8.11
174,8.06
175,8.05
177,8.05
179,7.96
181,7.95
183,7.91
184,7.87
186,7.88
188,7.89
190,7.90
192,7.82
194,7.74
196,7.75
198,7.76
200,7.72
202,7.68
204,7.56
206,7.48
208,7.49
210,7.42
212,7.37
214,7.28
216,7.24
218,7.15
221,6.94
223,6.95
225,6.97
227,6.98
229,6.87
232,6.94
234,6.93
236,6.90
239,6.91
241,6.84
244,6.85
246,6.87
248,6.82
251,6.71
253,6.72
256,6.74
259,6.79
261,6.85
264,6.91
266,6.95
269,7.04
272,7.18
274,7.27
277,7.41
280,7.44
283,7.44
286,7.45
288,7.46
291,7.47
294,7.44
297,7.39
300,7.32
303,7.32
306,7.33
309,7.27
312,7.24
316,7.25
319,7.25
322,7.22
325,7.05
328,7.05
332,7.04
335,7.04
338,7.04
342,7.04
345,7.04
349,7.04
352,6.96
356,6.84
359,6.84
363,6.79
366,6.76
370,6.76
374,6.73
377,6.61
381,6.59
385,6.59
389,6.60
393,6.60
397,6.60
401,6.60
405,6.60
409,6.60
413,6.59
417,6.59
421,6.69
425,6.70
430,6.71
434,6.71
438,6.66
443,6.63
447,6.64
451,6.69
456,6.75
460,6.81
465,6.81
470,6.83
474,6.87
479,6.77
484,6.74
489,6.66
494,6.56
499,6.48
504,6.36
509,6.23
514,6.16
519,6.03
524,5.84
529,5.64
535,5.41
540,5.20
545,4.93
551,4.62
556,4.40
562,3.99
568,3.63
573,3.34
579,2.92
585,2.47
591,2.10
596,1.91
602,1.57
608,1.16
615,0.93
621,0.63
627,0.23
633,0.07
639,-0.11
646,-0.43
652,-0.59
659,-0.77
665,-0.97
672,-1.12
679,-1.27
686,-1.37
692,-1.46
699,-1.62
706,-1.84
713,-1.98
721,-2.12
728,-2.23
735,-2.33
742,-2.41
750,-2.49
757,-2.51
765,-2.54
773,-2.50
780,-2.48
788,-2.43
796,-2.37
804,-2.37
812,-2.32
820,-2.19
828,-2.08
837,-1.89
845,-1.85
853,-1.80
862,-1.66
871,-1.56
879,-1.44
888,-1.30
897,-1.19
906,-1.07
915,-0.93
924,-0.80
933,-0.70
943,-0.55
952,-0.50
962,-0.45
971,-0.36
981,-0.16
991,-0.08
1001,0.01
1011,0.17
1021,0.33
1031,0.43
1041,0.46
1052,0.69
1062,0.73
1073,0.78
1084,0.83
1094,0.91
1105,1.04
1116,1.10
1128,1.17
1139,1.18
1150,1.23
1162,1.31
1173,1.36
1185,1.37
1197,1.28
1209,1.25
1221,1.28
1233,1.27
1246,1.20
1258,1.08
1271,1.01
1283,0.86
1296,0.79
1309,0.70
1322,0.58
1335,0.57
1349,0.45
1362,0.35
1376,0.50
1390,0.39
1404,0.22
1418,0.38
1432,0.49
1446,0.57
1461,0.80
1475,0.73
1490,0.85
1505,1.06
1520,1.37
1535,1.85
1550,1.92
1566,1.98
1582,2.54
1597,2.70
1613,2.79
1629,2.89
1646,3.01
1662,3.19
1679,3.45
1696,3.61
1713,3.77
1730,3.95
1747,4.05
1764,4.23
1782,4.33
1800,4.44
1818,4.65
1836,4.77
1854,4.89
1873,5.02
1892,5.18
1911,5.40
1930,5.50
1949,5.50
1969,5.65
1988,5.84
2008,5.77
2028,5.82
2048,5.98
2069,5.97
2090,6.03
2111,6.07
2132,6.04
2153,6.17
2175,6.22
2196,6.11
2218,6.25
2240,6.44
2263,6.51
2285,6.65
2308,6.73
2331,6.87
2355,6.88
2378,6.88
2402,6.91
2426,6.90
2450,6.98
2475,7.08
2500,7.03
2525,6.93
2550,7.03
2575,7.08
2601,7.07
2627,7.11
2653,7.15
2680,7.18
2707,7.32
2734,7.41
2761,7.37
2789,7.47
2817,7.62
2845,7.69
2873,7.79
2902,7.85
2931,7.81
2960,7.74
2990,7.91
3020,7.97
3050,7.98
3080,8.13
3111,8.44
3142,8.58
3174,8.62
3206,8.59
3238,8.73
3270,8.90
3303,8.93
3336,8.99
3369,9.06
3403,9.06
3437,9.19
3471,9.47
3506,9.52
3541,9.57
3576,9.73
3612,9.67
3648,9.53
3685,9.31
3721,8.97
3759,8.56
3796,8.38
3834,8.26
3873,8.36
3911,8.48
3950,8.61
3990,8.78
4030,8.72
4070,8.46
4111,8.15
4152,7.60
4193,7.20
4235,6.77
4278,6.22
4321,5.73
4364,5.35
4407,4.93
4451,4.34
4496,3.92
4541,3.54
4586,3.08
4632,2.72
4679,2.45
4725,1.89
4773,1.41
4820,1.13
4868,0.67
4917,0.56
4966,0.70
5016,0.65
5066,0.55
5117,0.51
5168,-0.07
5220,-0.84
5272,-0.64
5325,-0.21
5378,0.37
5432,0.93
5486,1.42
5541,1.78
5596,1.90
5652,1.91
5709,2.03
5766,2.05
5823,1.72
5882,1.07
5940,0.47
6000,0.11
6060,-0.49
6120,-1.30
6182,-1.98
6244,-2.73
6306,-3.49
6369,-4.22
6433,-3.39
6497,-2.96
6562,-1.75
6628,-0.62
6694,0.12
6761,1.21
6828,2.01
6897,2.36
6966,3.36
7035,4.17
7106,4.40
7177,3.94
7249,3.62
7321,2.93
7394,2.21
7468,1.21
7543,0.02
7618,-0.91
7694,-1.60
7771,-2.47
7849,-3.46
7928,-4.04
8007,-4.61
8087,-5.21
8168,-5.46
8250,-5.68
8332,-6.02
8415,-6.44
8499,-7.38
8584,-8.31
8670,-8.79
8757,-9.47
8845,-8.99
8933,-9.30
9022,-9.37
9113,-8.86
9204,-7.77
9296,-6.52
9389,-5.34
9483,-4.21
9577,-3.21
9673,-2.41
9770,-2.18
9868,-2.04
9966,-1.56
10066,-0.53
10167,-0.70
10268,-0.52
10371,-0.40
10475,-1.28
10579,0.09
10685,0.60
10792,1.05
10900,0.68
11009,0.15
11119,-0.71
11230,-1.59
11343,-1.95
11456,-2.52
11571,-3.35
11686,-3.90
11803,-4.52
11921,-5.17
12040,-5.54
12161,-5.81
12282,-5.92
12405,-6.31
12529,-6.75
12655,-7.50
12781,-8.09
12909,-7.26
13038,-7.33
13168,-7.11
13300,-6.51
13433,-6.37
13567,-6.08
13703,-5.56
13840,-5.71
13978,-5.90
14118,-6.01
14259,-6.19
14402,-6.99
14546,-6.88
14692,-5.59
14838,-4.83
14987,-4.14
15137,-5.04
15288,-7.30
15441,-8.42
15595,-10.79
15751,-12.59
15909,-13.11
16068,-11.76
16229,-12.82
16391,-14.33
16555,-14.81
16720,-10.17
16888,-8.17
17056,-9.53
17227,-11.43
17399,-12.03
17573,-13.05
17749,-14.03
17926,-16.00
18106,-17.66
18287,-17.21
18470,-15.73
18654,-14.83
18841,-13.96
19029,-13.32
19220,-13.70
19412,-13.53
19606,-12.84
19802,-12.42
20000,-12.37
