frequency,raw,smoothed,error,error_smoothed,equalization,parametric_eq,fixed_band_eq,equalized_raw,equalized_smoothed,target
20.00,4.53,4.53,-2.72,-2.72,2.72,1.49,0.90,7.25,7.25,7.25
20.20,4.55,4.55,-2.70,-2.70,2.70,1.49,0.93,7.25,7.25,7.25
20.40,4.57,4.57,-2.68,-2.68,2.68,1.48,0.96,7.25,7.25,7.25
20.61,4.58,4.59,-2.67,-2.66,2.66,1.48,0.99,7.24,7.25,7.25
20.81,4.61,4.61,-2.64,-2.64,2.64,1.48,1.02,7.25,7.25,7.25
21.02,4.63,4.63,-2.62,-2.62,2.62,1.48,1.05,7.25,7.25,7.25
21.23,4.65,4.65,-2.60,-2.60,2.60,1.48,1.08,7.25,7.25,7.25
21.44,4.67,4.67,-2.58,-2.58,2.58,1.48,1.11,7.25,7.25,7.24
21.66,4.69,4.69,-2.56,-2.56,2.56,1.48,1.15,7.24,7.24,7.24
21.87,4.71,4.71,-2.53,-2.53,2.53,1.48,1.18,7.24,7.24,7.24
22.09,4.73,4.73,-2.51,-2.51,2.51,1.48,1.22,7.24,7.24,7.24
22.31,4.75,4.75,-2.49,-2.49,2.49,1.48,1.25,7.24,7.24,7.24
22.54,4.77,4.77,-2.47,-2.47,2.47,1.48,1.29,7.24,7.24,7.24
22.76,4.79,4.79,-2.45,-2.45,2.45,1.48,1.33,7.23,7.24,7.24
22.99,4.82,4.82,-2.42,-2.42,2.42,1.48,1.37,7.24,7.24,7.24
23.22,4.84,4.84,-2.40,-2.40,2.40,1.48,1.41,7.24,7.24,7.24
23.45,4.86,4.86,-2.38,-2.38,2.38,1.48,1.45,7.24,7.24,7.24
23.69,4.88,4.88,-2.36,-2.36,2.36,1.47,1.49,7.24,7.24,7.24
23.92,4.90,4.90,-2.34,-2.34,2.34,1.47,1.53,7.24,7.24,7.23
24.16,4.91,4.91,-2.32,-2.32,2.32,1.47,1.58,7.23,7.24,7.23
24.40,4.93,4.93,-2.30,-2.31,2.31,1.47,1.62,7.24,7.24,7.23
24.65,4.94,4.93,-2.29,-2.30,2.30,1.47,1.66,7.24,7.23,7.23
24.89,4.94,4.94,-2.29,-2.29,2.29,1.47,1.71,7.23,7.23,7.23
25.14,4.95,4.95,-2.28,-2.28,2.28,1.47,1.75,7.22,7.22,7.23
25.39,4.96,4.96,-2.27,-2.27,2.26,1.47,1.80,7.22,7.22,7.23
25.65,4.97,4.97,-2.26,-2.25,2.25,1.47,1.84,7.22,7.22,7.23
25.91,4.99,4.99,-2.24,-2.24,2.23,1.47,1.89,7.22,7.22,7.22
26.16,5.01,5.01,-2.21,-2.21,2.21,1.47,1.93,7.22,7.22,7.22
26.43,5.03,5.03,-2.19,-2.19,2.19,1.46,1.98,7.22,7.22,7.22
26.69,5.05,5.05,-2.17,-2.17,2.17,1.46,2.02,7.22,7.22,7.22
26.96,5.07,5.07,-2.15,-2.15,2.15,1.46,2.07,7.22,7.22,7.22
27.23,5.09,5.09,-2.13,-2.13,2.13,1.46,2.11,7.22,7.22,7.22
27.50,5.11,5.11,-2.10,-2.11,2.11,1.46,2.15,7.22,7.21,7.21
27.77,5.13,5.13,-2.08,-2.09,2.09,1.46,2.19,7.22,7.21,7.21
28.05,5.14,5.14,-2.07,-2.07,2.07,1.46,2.22,7.21,7.21,7.21
28.33,5.16,5.16,-2.05,-2.05,2.05,1.46,2.26,7.21,7.21,7.21
28.62,5.17,5.17,-2.04,-2.03,2.03,1.46,2.29,7.20,7.21,7.21
28.90,5.19,5.19,-2.01,-2.02,2.02,1.45,2.32,7.21,7.20,7.20
29.19,5.20,5.20,-2.00,-2.00,2.00,1.45,2.35,7.20,7.20,7.20
29.48,5.21,5.21,-1.99,-1.99,1.98,1.45,2.37,7.19,7.20,7.20
29.78,5.23,5.22,-1.97,-1.97,1.97,1.45,2.40,7.20,7.19,7.20
30.08,5.24,5.24,-1.95,-1.95,1.95,1.45,2.41,7.19,7.19,7.19
30.38,5.26,5.26,-1.93,-1.93,1.93,1.45,2.43,7.19,7.19,7.19
30.68,5.28,5.27,-1.91,-1.91,1.91,1.45,2.44,7.19,7.19,7.19
30.99,5.29,5.29,-1.90,-1.90,1.90,1.44,2.45,7.19,7.19,7.18
31.30,5.30,5.30,-1.88,-1.88,1.88,1.44,2.45,7.18,7.18,7.18
31.61,5.32,5.32,-1.86,-1.86,1.86,1.44,2.45,7.18,7.18,7.18
31.93,5.33,5.33,-1.85,-1.85,1.85,1.44,2.45,7.17,7.17,7.17
32.24,5.34,5.34,-1.83,-1.83,1.83,1.44,2.44,7.17,7.17,7.17
32.57,5.35,5.35,-1.82,-1.82,1.81,1.44,2.43,7.16,7.17,7.17
32.89,5.37,5.37,-1.80,-1.80,1.80,1.43,2.42,7.17,7.16,7.16
33.22,5.38,5.38,-1.78,-1.78,1.78,1.43,2.40,7.16,7.16,7.16
33.55,5.39,5.39,-1.77,-1.77,1.77,1.43,2.38,7.16,7.16,7.16
33.89,5.40,5.40,-1.75,-1.75,1.75,1.43,2.35,7.15,7.15,7.15
34.23,5.41,5.41,-1.74,-1.74,1.74,1.42,2.33,7.15,7.15,7.15
34.57,5.42,5.42,-1.73,-1.73,1.72,1.42,2.30,7.14,7.14,7.14
34.92,5.43,5.43,-1.71,-1.71,1.71,1.42,2.27,7.14,7.14,7.14
35.27,5.44,5.44,-1.70,-1.69,1.69,1.42,2.24,7.13,7.13,7.13
35.62,5.46,5.46,-1.67,-1.67,1.68,1.42,2.20,7.13,7.13,7.13
35.97,5.47,5.47,-1.66,-1.66,1.66,1.41,2.17,7.13,7.13,7.12
36.33,5.48,5.48,-1.64,-1.64,1.64,1.41,2.13,7.12,7.12,7.12
36.70,5.49,5.49,-1.63,-1.63,1.63,1.41,2.09,7.12,7.12,7.11
37.06,5.50,5.50,-1.61,-1.61,1.61,1.41,2.06,7.11,7.11,7.11
37.43,5.50,5.50,-1.60,-1.60,1.60,1.40,2.02,7.10,7.10,7.10
37.81,5.51,5.51,-1.59,-1.59,1.58,1.40,1.98,7.09,7.09,7.10
38.19,5.52,5.52,-1.57,-1.57,1.57,1.40,1.94,7.09,7.09,7.09
38.57,5.53,5.53,-1.56,-1.56,1.56,1.39,1.90,7.09,7.09,7.08
38.95,5.53,5.53,-1.55,-1.55,1.55,1.39,1.86,7.08,7.08,7.08
39.34,5.54,5.54,-1.53,-1.53,1.53,1.39,1.82,7.07,7.07,7.07
39.74,5.54,5.54,-1.52,-1.52,1.52,1.38,1.79,7.06,7.06,7.06
40.14,5.55,5.55,-1.51,-1.51,1.51,1.38,1.75,7.06,7.05,7.05
40.54,5.55,5.55,-1.50,-1.50,1.50,1.38,1.71,7.05,7.05,7.05
40.94,5.55,5.55,-1.49,-1.49,1.48,1.37,1.68,7.03,7.04,7.04
41.35,5.56,5.56,-1.47,-1.47,1.47,1.37,1.64,7.03,7.03,7.03
41.76,5.56,5.56,-1.46,-1.46,1.46,1.37,1.61,7.02,7.02,7.02
42.18,5.57,5.57,-1.44,-1.45,1.45,1.36,1.58,7.02,7.01,7.01
42.60,5.57,5.57,-1.43,-1.44,1.44,1.36,1.54,7.01,7.01,7.00
43.03,5.57,5.57,-1.42,-1.42,1.43,1.35,1.51,7.00,7.00,6.99
43.46,5.57,5.57,-1.41,-1.42,1.42,1.35,1.48,6.99,6.99,6.98
43.90,5.57,5.57,-1.40,-1.41,1.41,1.34,1.45,6.98,6.97,6.97
44.33,5.56,5.56,-1.40,-1.40,1.40,1.34,1.43,6.96,6.96,6.96
44.78,5.56,5.56,-1.39,-1.39,1.39,1.33,1.40,6.95,6.94,6.95
45.23,5.56,5.56,-1.38,-1.38,1.37,1.33,1.37,6.93,6.93,6.94
45.68,5.56,5.56,-1.37,-1.37,1.36,1.32,1.35,6.92,6.92,6.93
46.13,5.57,5.57,-1.35,-1.35,1.35,1.32,1.33,6.92,6.91,6.91
46.60,5.57,5.57,-1.33,-1.33,1.34,1.31,1.31,6.91,6.91,6.90
47.06,5.57,5.57,-1.32,-1.32,1.33,1.31,1.28,6.89,6.90,6.89
47.53,5.57,5.57,-1.31,-1.31,1.32,1.30,1.27,6.88,6.88,6.87
48.01,5.56,5.56,-1.30,-1.30,1.31,1.30,1.25,6.86,6.86,6.86
48.49,5.55,5.55,-1.30,-1.30,1.30,1.29,1.23,6.84,6.84,6.85
48.97,5.54,5.54,-1.29,-1.29,1.29,1.28,1.21,6.83,6.82,6.83
49.46,5.53,5.53,-1.29,-1.28,1.28,1.28,1.20,6.80,6.81,6.81
49.96,5.53,5.53,-1.27,-1.27,1.26,1.27,1.18,6.79,6.79,6.80
50.46,5.53,5.53,-1.25,-1.25,1.25,1.26,1.17,6.78,6.78,6.78
50.96,5.53,5.53,-1.24,-1.24,1.24,1.26,1.15,6.76,6.76,6.76
51.47,5.53,5.53,-1.22,-1.22,1.22,1.25,1.14,6.75,6.75,6.75
51.99,5.53,5.53,-1.20,-1.20,1.20,1.24,1.13,6.73,6.73,6.73
52.51,5.53,5.53,-1.18,-1.18,1.19,1.23,1.12,6.72,6.71,6.71
53.03,5.52,5.52,-1.17,-1.17,1.17,1.22,1.10,6.69,6.69,6.69
53.56,5.51,5.51,-1.16,-1.16,1.16,1.22,1.09,6.67,6.67,6.67
54.10,5.50,5.50,-1.15,-1.15,1.15,1.21,1.08,6.64,6.64,6.65
54.64,5.49,5.49,-1.14,-1.14,1.13,1.20,1.07,6.62,6.62,6.62
55.18,5.48,5.48,-1.12,-1.12,1.12,1.19,1.06,6.60,6.60,6.60
55.74,5.47,5.47,-1.11,-1.11,1.11,1.18,1.05,6.58,6.58,6.58
56.29,5.46,5.46,-1.10,-1.10,1.09,1.17,1.04,6.55,6.55,6.55
56.86,5.45,5.45,-1.08,-1.08,1.08,1.16,1.03,6.53,6.53,6.53
57.42,5.44,5.44,-1.06,-1.06,1.06,1.15,1.02,6.50,6.50,6.50
58.00,5.43,5.43,-1.05,-1.05,1.05,1.14,1.01,6.48,6.48,6.48
58.58,5.42,5.42,-1.03,-1.03,1.03,1.13,1.00,6.45,6.45,6.45
59.16,5.41,5.41,-1.01,-1.02,1.02,1.11,0.99,6.43,6.42,6.42
59.76,5.39,5.39,-1.00,-1.00,1.00,1.10,0.98,6.39,6.39,6.39
60.35,5.38,5.38,-0.98,-0.98,0.98,1.09,0.97,6.36,6.36,6.36
60.96,5.37,5.37,-0.96,-0.97,0.97,1.08,0.96,6.33,6.33,6.33
61.57,5.35,5.35,-0.95,-0.95,0.95,1.06,0.94,6.30,6.30,6.30
62.18,5.34,5.34,-0.93,-0.93,0.93,1.05,0.93,6.27,6.27,6.27
62.80,5.32,5.32,-0.92,-0.91,0.91,1.04,0.92,6.23,6.24,6.24
63.43,5.31,5.31,-0.89,-0.89,0.90,1.02,0.90,6.21,6.20,6.20
64.07,5.29,5.29,-0.88,-0.88,0.88,1.01,0.89,6.17,6.17,6.17
64.71,5.27,5.27,-0.86,-0.86,0.86,0.99,0.87,6.13,6.13,6.13
65.35,5.24,5.24,-0.85,-0.85,0.85,0.98,0.85,6.09,6.09,6.09
66.01,5.22,5.22,-0.84,-0.83,0.83,0.96,0.84,6.05,6.05,6.05
66.67,5.20,5.20,-0.82,-0.82,0.82,0.94,0.82,6.02,6.01,6.02
67.33,5.18,5.18,-0.80,-0.80,0.80,0.92,0.80,5.98,5.98,5.98
68.01,5.15,5.15,-0.79,-0.78,0.78,0.91,0.78,5.93,5.93,5.93
68.69,5.13,5.13,-0.76,-0.77,0.77,0.89,0.76,5.89,5.89,5.89
69.37,5.10,5.10,-0.75,-0.75,0.75,0.87,0.74,5.85,5.85,5.85
70.07,5.08,5.08,-0.73,-0.73,0.73,0.85,0.72,5.81,5.80,5.81
70.77,5.05,5.05,-0.71,-0.71,0.71,0.83,0.70,5.76,5.76,5.76
71.48,5.03,5.03,-0.69,-0.69,0.69,0.81,0.68,5.72,5.72,5.71
72.19,5.00,5.00,-0.67,-0.67,0.67,0.79,0.66,5.67,5.67,5.67
72.91,4.97,4.97,-0.65,-0.65,0.65,0.77,0.64,5.62,5.62,5.62
73.64,4.94,4.94,-0.63,-0.63,0.63,0.75,0.62,5.57,5.57,5.57
74.38,4.91,4.91,-0.61,-0.61,0.61,0.72,0.60,5.52,5.52,5.52
75.12,4.88,4.88,-0.59,-0.59,0.59,0.70,0.58,5.47,5.47,5.47
75.87,4.84,4.84,-0.58,-0.57,0.57,0.68,0.55,5.41,5.41,5.42
76.63,4.81,4.81,-0.55,-0.55,0.55,0.65,0.53,5.36,5.36,5.36
77.40,4.78,4.78,-0.53,-0.53,0.53,0.63,0.51,5.31,5.31,5.31
78.17,4.74,4.74,-0.51,-0.51,0.51,0.61,0.49,5.25,5.25,5.25
78.95,4.71,4.71,-0.49,-0.49,0.49,0.58,0.47,5.20,5.20,5.20
79.74,4.67,4.67,-0.47,-0.47,0.47,0.55,0.45,5.14,5.14,5.14
80.54,4.63,4.63,-0.45,-0.45,0.45,0.53,0.42,5.08,5.08,5.08
81.35,4.59,4.59,-0.43,-0.43,0.43,0.50,0.40,5.02,5.02,5.02
82.16,4.55,4.55,-0.41,-0.41,0.41,0.47,0.38,4.96,4.96,4.96
82.98,4.51,4.51,-0.39,-0.39,0.39,0.45,0.36,4.89,4.90,4.90
83.81,4.48,4.48,-0.36,-0.36,0.36,0.42,0.34,4.84,4.84,4.84
84.65,4.44,4.44,-0.34,-0.34,0.34,0.39,0.32,4.78,4.78,4.78
85.50,4.40,4.40,-0.31,-0.31,0.31,0.36,0.30,4.71,4.71,4.71
86.35,4.36,4.36,-0.29,-0.29,0.29,0.33,0.28,4.65,4.65,4.65
87.22,4.32,4.32,-0.26,-0.26,0.27,0.31,0.26,4.58,4.58,4.58
88.09,4.28,4.28,-0.24,-0.24,0.24,0.28,0.24,4.52,4.52,4.52
88.97,4.23,4.23,-0.22,-0.22,0.22,0.25,0.22,4.45,4.45,4.45
89.86,4.19,4.19,-0.19,-0.20,0.20,0.22,0.20,4.38,4.38,4.38
90.76,4.14,4.14,-0.18,-0.17,0.17,0.19,0.18,4.31,4.31,4.31
91.66,4.10,4.10,-0.15,-0.15,0.15,0.16,0.16,4.25,4.24,4.25
92.58,4.05,4.05,-0.13,-0.13,0.13,0.13,0.14,4.17,4.17,4.18
93.51,4.00,4.00,-0.11,-0.10,0.10,0.11,0.12,4.10,4.11,4.11
94.44,3.96,3.96,-0.08,-0.08,0.08,0.08,0.10,4.04,4.04,4.04
95.39,3.91,3.91,-0.06,-0.06,0.06,0.05,0.08,3.97,3.97,3.97
96.34,3.86,3.86,-0.04,-0.04,0.04,0.03,0.06,3.90,3.90,3.89
97.30,3.81,3.81,-0.01,-0.02,0.02,0.00,0.04,3.83,3.82,3.82
98.28,3.75,3.75,-0.00,0.00,-0.00,-0.02,0.02,3.75,3.75,3.75
99.26,3.70,3.70,0.02,0.02,-0.02,-0.05,0.00,3.68,3.68,3.68
100.25,3.65,3.65,0.04,0.04,-0.04,-0.07,-0.01,3.61,3.60,3.61
101.25,3.60,3.60,0.06,0.06,-0.06,-0.09,-0.03,3.54,3.54,3.53
102.27,3.54,3.54,0.08,0.08,-0.08,-0.11,-0.05,3.46,3.46,3.46
103.29,3.49,3.49,0.10,0.10,-0.10,-0.13,-0.07,3.39,3.39,3.39
104.32,3.43,3.43,0.11,0.11,-0.11,-0.15,-0.08,3.32,3.32,3.32
105.37,3.37,3.37,0.13,0.13,-0.13,-0.17,-0.10,3.24,3.24,3.24
106.42,3.31,3.31,0.14,0.14,-0.14,-0.18,-0.12,3.16,3.17,3.17
107.48,3.25,3.25,0.15,0.16,-0.16,-0.20,-0.13,3.09,3.09,3.10
108.56,3.20,3.20,0.18,0.17,-0.17,-0.21,-0.15,3.03,3.02,3.02
109.64,3.14,3.14,0.19,0.19,-0.18,-0.22,-0.16,2.95,2.95,2.95
110.74,3.08,3.08,0.20,0.20,-0.20,-0.23,-0.17,2.88,2.88,2.88
111.85,3.01,3.01,0.20,0.21,-0.21,-0.24,-0.19,2.80,2.80,2.81
112.97,2.95,2.95,0.22,0.22,-0.22,-0.24,-0.20,2.73,2.73,2.73
114.10,2.89,2.89,0.23,0.23,-0.23,-0.25,-0.21,2.66,2.66,2.66
115.24,2.83,2.83,0.24,0.24,-0.23,-0.25,-0.22,2.59,2.59,2.59
116.39,2.76,2.76,0.24,0.24,-0.24,-0.26,-0.23,2.52,2.52,2.52
117.55,2.70,2.70,0.25,0.25,-0.25,-0.26,-0.23,2.45,2.45,2.45
118.73,2.63,2.63,0.25,0.25,-0.25,-0.26,-0.24,2.38,2.38,2.38
119.92,2.56,2.56,0.25,0.25,-0.25,-0.26,-0.25,2.31,2.31,2.31
121.12,2.50,2.49,0.26,0.25,-0.26,-0.25,-0.25,2.24,2.24,2.24
122.33,2.43,2.43,0.26,0.26,-0.26,-0.25,-0.26,2.17,2.17,2.17
123.55,2.36,2.36,0.25,0.26,-0.26,-0.24,-0.26,2.10,2.11,2.11
124.79,2.30,2.30,0.26,0.26,-0.26,-0.24,-0.26,2.04,2.04,2.04
126.03,2.23,2.23,0.26,0.26,-0.25,-0.23,-0.26,1.97,1.97,1.97
127.29,2.16,2.16,0.25,0.25,-0.25,-0.22,-0.26,1.91,1.91,1.91
128.57,2.09,2.09,0.25,0.25,-0.25,-0.22,-0.25,1.84,1.84,1.84
129.85,2.02,2.02,0.24,0.24,-0.24,-0.21,-0.25,1.78,1.78,1.78
131.15,1.95,1.95,0.23,0.23,-0.23,-0.20,-0.24,1.72,1.72,1.72
132.46,1.88,1.88,0.23,0.22,-0.22,-0.18,-0.24,1.65,1.65,1.65
133.79,1.81,1.81,0.22,0.21,-0.21,-0.17,-0.23,1.60,1.59,1.59
135.12,1.73,1.73,0.20,0.20,-0.20,-0.16,-0.22,1.53,1.53,1.53
136.48,1.66,1.66,0.19,0.19,-0.19,-0.15,-0.21,1.47,1.47,1.47
137.84,1.59,1.59,0.17,0.17,-0.18,-0.13,-0.20,1.41,1.41,1.41
139.22,1.52,1.52,0.16,0.16,-0.16,-0.12,-0.19,1.36,1.36,1.36
140.61,1.45,1.45,0.15,0.15,-0.15,-0.11,-0.18,1.30,1.30,1.30
142.02,1.37,1.37,0.12,0.13,-0.13,-0.09,-0.16,1.24,1.24,1.24
143.44,1.30,1.30,0.11,0.11,-0.11,-0.08,-0.15,1.19,1.19,1.19
144.87,1.23,1.23,0.09,0.09,-0.09,-0.06,-0.14,1.13,1.13,1.14
146.32,1.16,1.16,0.08,0.08,-0.07,-0.04,-0.12,1.08,1.09,1.08
147.78,1.09,1.09,0.06,0.06,-0.05,-0.03,-0.10,1.03,1.03,1.03
149.26,1.02,1.02,0.04,0.03,-0.03,-0.01,-0.09,0.99,0.98,0.98
150.75,0.94,0.94,0.01,0.01,-0.01,0.01,-0.07,0.93,0.93,0.93
152.26,0.87,0.87,-0.01,-0.01,0.01,0.02,-0.05,0.88,0.88,0.88
153.78,0.80,0.80,-0.04,-0.04,0.03,0.04,-0.04,0.83,0.83,0.83
155.32,0.73,0.73,-0.06,-0.06,0.06,0.06,-0.02,0.78,0.79,0.79
156.88,0.67,0.66,-0.07,-0.08,0.08,0.08,-0.00,0.75,0.74,0.74
158.44,0.60,0.60,-0.10,-0.10,0.10,0.10,0.02,0.70,0.70,0.70
160.03,0.53,0.53,-0.13,-0.12,0.12,0.12,0.04,0.65,0.65,0.66
161.63,0.47,0.46,-0.13,-0.14,0.14,0.14,0.06,0.61,0.61,0.60
163.24,0.40,0.40,-0.16,-0.16,0.16,0.16,0.08,0.56,0.57,0.56
164.88,0.34,0.34,-0.18,-0.18,0.19,0.18,0.09,0.52,0.52,0.52
166.53,0.28,0.27,-0.20,-0.21,0.21,0.20,0.11,0.49,0.48,0.48
168.19,0.21,0.21,-0.24,-0.23,0.23,0.22,0.13,0.44,0.44,0.44
169.87,0.15,0.15,-0.26,-0.26,0.25,0.24,0.15,0.40,0.40,0.41
171.57,0.09,0.09,-0.28,-0.28,0.28,0.26,0.17,0.36,0.37,0.37
173.29,0.04,0.04,-0.30,-0.30,0.30,0.28,0.20,0.34,0.33,0.33
175.02,-0.02,-0.02,-0.32,-0.32,0.32,0.30,0.22,0.30,0.30,0.30
176.77,-0.07,-0.07,-0.34,-0.34,0.34,0.33,0.24,0.27,0.27,0.27
178.54,-0.13,-0.13,-0.37,-0.36,0.36,0.35,0.26,0.23,0.24,0.23
180.32,-0.18,-0.18,-0.38,-0.38,0.39,0.37,0.28,0.20,0.20,0.20
182.13,-0.23,-0.24,-0.40,-0.41,0.41,0.39,0.30,0.18,0.17,0.17
183.95,-0.29,-0.29,-0.43,-0.43,0.43,0.42,0.32,0.14,0.14,0.14
185.79,-0.34,-0.34,-0.45,-0.45,0.45,0.44,0.34,0.11,0.11,0.11
187.65,-0.39,-0.39,-0.48,-0.47,0.47,0.46,0.36,0.08,0.08,0.08
189.52,-0.43,-0.44,-0.49,-0.49,0.49,0.48,0.39,0.06,0.05,0.06
191.42,-0.48,-0.48,-0.51,-0.51,0.51,0.50,0.41,0.03,0.03,0.03
193.33,-0.52,-0.52,-0.53,-0.52,0.53,0.53,0.43,0.00,0.00,0.00
195.27,-0.56,-0.56,-0.54,-0.54,0.54,0.55,0.45,-0.02,-0.02,-0.02
197.22,-0.60,-0.60,-0.56,-0.56,0.56,0.57,0.47,-0.04,-0.04,-0.05
199.19,-0.64,-0.64,-0.57,-0.57,0.57,0.59,0.49,-0.07,-0.07,-0.07
201.18,-0.68,-0.68,-0.59,-0.59,0.59,0.61,0.52,-0.09,-0.09,-0.09
203.19,-0.72,-0.72,-0.61,-0.61,0.61,0.62,0.54,-0.12,-0.11,-0.11
205.23,-0.76,-0.76,-0.63,-0.62,0.62,0.64,0.56,-0.14,-0.14,-0.14
207.28,-0.79,-0.80,-0.63,-0.64,0.64,0.66,0.58,-0.15,-0.16,-0.16
209.35,-0.83,-0.83,-0.65,-0.65,0.65,0.67,0.60,-0.18,-0.18,-0.18
211.44,-0.86,-0.86,-0.67,-0.66,0.67,0.69,0.62,-0.20,-0.20,-0.20
213.56,-0.89,-0.89,-0.68,-0.68,0.68,0.70,0.64,-0.21,-0.21,-0.22
215.69,-0.92,-0.92,-0.69,-0.69,0.69,0.71,0.67,-0.23,-0.23,-0.23
217.85,-0.95,-0.95,-0.70,-0.70,0.70,0.72,0.69,-0.25,-0.25,-0.25
220.03,-0.98,-0.98,-0.71,-0.71,0.71,0.73,0.70,-0.27,-0.27,-0.27
222.23,-1.00,-1.01,-0.72,-0.72,0.72,0.74,0.72,-0.28,-0.29,-0.28
224.45,-1.03,-1.03,-0.73,-0.73,0.73,0.74,0.74,-0.30,-0.30,-0.30
226.70,-1.05,-1.05,-0.74,-0.73,0.74,0.75,0.76,-0.32,-0.32,-0.32
228.96,-1.07,-1.07,-0.74,-0.74,0.74,0.75,0.78,-0.33,-0.33,-0.33
231.25,-1.09,-1.09,-0.75,-0.75,0.74,0.75,0.79,-0.35,-0.35,-0.35
233.57,-1.11,-1.11,-0.75,-0.75,0.75,0.75,0.81,-0.36,-0.36,-0.36
235.90,-1.13,-1.13,-0.75,-0.75,0.75,0.75,0.82,-0.38,-0.38,-0.38
238.26,-1.14,-1.15,-0.75,-0.75,0.75,0.75,0.83,-0.39,-0.39,-0.40
240.64,-1.16,-1.16,-0.75,-0.75,0.75,0.75,0.85,-0.41,-0.41,-0.41
243.05,-1.17,-1.17,-0.75,-0.75,0.75,0.74,0.86,-0.42,-0.42,-0.42
245.48,-1.18,-1.18,-0.75,-0.75,0.75,0.74,0.87,-0.43,-0.43,-0.43
247.93,-1.19,-1.19,-0.75,-0.75,0.75,0.73,0.87,-0.44,-0.44,-0.44
250.41,-1.20,-1.20,-0.75,-0.75,0.75,0.73,0.88,-0.45,-0.45,-0.45
252.92,-1.21,-1.21,-0.75,-0.75,0.75,0.72,0.89,-0.46,-0.47,-0.47
255.45,-1.22,-1.22,-0.75,-0.75,0.74,0.72,0.89,-0.48,-0.48,-0.48
258.00,-1.23,-1.23,-0.75,-0.74,0.74,0.71,0.90,-0.49,-0.49,-0.49
260.58,-1.23,-1.24,-0.74,-0.74,0.74,0.70,0.90,-0.49,-0.50,-0.49
263.19,-1.24,-1.24,-0.74,-0.73,0.73,0.70,0.90,-0.51,-0.50,-0.50
265.82,-1.24,-1.24,-0.73,-0.73,0.73,0.69,0.90,-0.51,-0.51,-0.51
268.48,-1.24,-1.25,-0.72,-0.72,0.72,0.69,0.90,-0.52,-0.52,-0.52
271.16,-1.25,-1.25,-0.72,-0.72,0.72,0.68,0.90,-0.53,-0.53,-0.53
273.87,-1.25,-1.25,-0.71,-0.71,0.71,0.67,0.90,-0.54,-0.54,-0.54
276.61,-1.25,-1.25,-0.71,-0.71,0.71,0.67,0.89,-0.55,-0.55,-0.55
279.38,-1.25,-1.25,-0.70,-0.70,0.70,0.66,0.89,-0.55,-0.55,-0.55
282.17,-1.25,-1.25,-0.69,-0.69,0.69,0.66,0.89,-0.56,-0.55,-0.56
284.99,-1.24,-1.24,-0.68,-0.69,0.69,0.65,0.88,-0.55,-0.56,-0.56
287.84,-1.24,-1.24,-0.69,-0.68,0.68,0.65,0.88,-0.56,-0.56,-0.55
290.72,-1.24,-1.24,-0.68,-0.68,0.68,0.64,0.87,-0.56,-0.56,-0.56
293.63,-1.24,-1.24,-0.68,-0.68,0.68,0.64,0.87,-0.56,-0.56,-0.57
296.57,-1.23,-1.23,-0.67,-0.67,0.67,0.64,0.86,-0.56,-0.56,-0.56
299.53,-1.23,-1.23,-0.67,-0.67,0.67,0.63,0.86,-0.56,-0.56,-0.56
302.53,-1.23,-1.23,-0.67,-0.67,0.67,0.63,0.85,-0.56,-0.56,-0.56
305.55,-1.23,-1.23,-0.67,-0.67,0.67,0.63,0.85,-0.57,-0.56,-0.56
308.61,-1.22,-1.22,-0.66,-0.66,0.66,0.63,0.84,-0.56,-0.56,-0.56
311.69,-1.22,-1.22,-0.66,-0.66,0.66,0.63,0.84,-0.56,-0.56,-0.56
314.81,-1.21,-1.21,-0.65,-0.65,0.65,0.63,0.83,-0.56,-0.56,-0.56
317.96,-1.21,-1.21,-0.65,-0.65,0.65,0.63,0.83,-0.56,-0.56,-0.56
321.14,-1.20,-1.20,-0.64,-0.64,0.65,0.63,0.82,-0.56,-0.56,-0.56
324.35,-1.20,-1.20,-0.65,-0.64,0.64,0.63,0.82,-0.56,-0.56,-0.56
327.59,-1.19,-1.19,-0.64,-0.64,0.64,0.63,0.82,-0.55,-0.55,-0.55
330.87,-1.19,-1.19,-0.64,-0.64,0.64,0.63,0.82,-0.56,-0.55,-0.55
334.18,-1.18,-1.18,-0.63,-0.63,0.63,0.63,0.82,-0.55,-0.55,-0.55
337.52,-1.18,-1.18,-0.63,-0.63,0.63,0.64,0.81,-0.55,-0.55,-0.55
340.90,-1.17,-1.17,-0.63,-0.63,0.63,0.64,0.81,-0.54,-0.54,-0.55
344.30,-1.17,-1.17,-0.63,-0.63,0.63,0.64,0.81,-0.54,-0.54,-0.54
347.75,-1.16,-1.16,-0.63,-0.63,0.63,0.65,0.81,-0.53,-0.54,-0.53
351.23,-1.16,-1.16,-0.63,-0.63,0.63,0.65,0.82,-0.53,-0.53,-0.54
354.74,-1.15,-1.15,-0.63,-0.63,0.63,0.66,0.82,-0.52,-0.52,-0.52
358.28,-1.15,-1.15,-0.63,-0.63,0.63,0.66,0.82,-0.52,-0.52,-0.52
361.87,-1.14,-1.14,-0.63,-0.63,0.63,0.67,0.82,-0.51,-0.51,-0.51
365.49,-1.14,-1.14,-0.63,-0.63,0.63,0.67,0.83,-0.51,-0.51,-0.51
369.14,-1.14,-1.14,-0.63,-0.63,0.63,0.68,0.83,-0.51,-0.50,-0.51
372.83,-1.13,-1.14,-0.64,-0.64,0.63,0.69,0.84,-0.50,-0.50,-0.49
376.56,-1.13,-1.13,-0.64,-0.64,0.64,0.69,0.84,-0.49,-0.49,-0.49
380.33,-1.13,-1.13,-0.64,-0.64,0.64,0.70,0.85,-0.49,-0.49,-0.49
384.13,-1.12,-1.12,-0.63,-0.64,0.64,0.71,0.86,-0.48,-0.48,-0.49
387.97,-1.12,-1.12,-0.64,-0.64,0.65,0.72,0.87,-0.48,-0.48,-0.48
391.85,-1.12,-1.12,-0.66,-0.65,0.65,0.72,0.87,-0.47,-0.47,-0.46
395.77,-1.12,-1.12,-0.66,-0.66,0.65,0.73,0.88,-0.47,-0.47,-0.47
399.73,-1.11,-1.11,-0.65,-0.66,0.66,0.74,0.89,-0.46,-0.46,-0.46
403.72,-1.11,-1.11,-0.66,-0.66,0.66,0.75,0.90,-0.45,-0.45,-0.45
407.76,-1.11,-1.11,-0.66,-0.66,0.66,0.76,0.91,-0.45,-0.45,-0.45
411.84,-1.11,-1.11,-0.67,-0.67,0.67,0.77,0.92,-0.44,-0.44,-0.44
415.96,-1.11,-1.11,-0.68,-0.67,0.67,0.78,0.93,-0.44,-0.44,-0.43
420.12,-1.11,-1.11,-0.67,-0.68,0.68,0.79,0.94,-0.43,-0.43,-0.44
424.32,-1.11,-1.11,-0.68,-0.68,0.68,0.80,0.95,-0.43,-0.43,-0.43
428.56,-1.11,-1.11,-0.69,-0.69,0.69,0.81,0.96,-0.42,-0.42,-0.42
432.85,-1.11,-1.11,-0.70,-0.70,0.70,0.82,0.97,-0.42,-0.42,-0.41
437.18,-1.11,-1.11,-0.70,-0.70,0.70,0.83,0.98,-0.41,-0.41,-0.41
441.55,-1.11,-1.11,-0.71,-0.71,0.71,0.85,0.99,-0.40,-0.40,-0.40
445.96,-1.11,-1.11,-0.72,-0.72,0.72,0.86,1.00,-0.39,-0.39,-0.40
450.42,-1.11,-1.11,-0.74,-0.73,0.73,0.87,1.01,-0.38,-0.38,-0.38
454.93,-1.11,-1.11,-0.74,-0.74,0.74,0.88,1.02,-0.37,-0.37,-0.37
459.48,-1.11,-1.11,-0.75,-0.75,0.75,0.89,1.03,-0.36,-0.36,-0.36
464.07,-1.12,-1.12,-0.76,-0.76,0.76,0.91,1.03,-0.36,-0.36,-0.36
468.71,-1.12,-1.12,-0.77,-0.77,0.77,0.92,1.04,-0.35,-0.35,-0.35
473.40,-1.12,-1.13,-0.78,-0.78,0.78,0.93,1.05,-0.34,-0.34,-0.34
478.13,-1.13,-1.13,-0.80,-0.80,0.79,0.94,1.05,-0.34,-0.33,-0.33
482.91,-1.13,-1.13,-0.81,-0.81,0.81,0.95,1.06,-0.33,-0.32,-0.32
487.74,-1.13,-1.13,-0.82,-0.82,0.82,0.97,1.06,-0.31,-0.32,-0.32
492.62,-1.13,-1.13,-0.83,-0.83,0.83,0.98,1.06,-0.30,-0.30,-0.31
497.55,-1.14,-1.14,-0.84,-0.84,0.85,0.99,1.06,-0.30,-0.29,-0.30
502.52,-1.14,-1.14,-0.85,-0.86,0.86,1.00,1.06,-0.28,-0.28,-0.29
507.55,-1.15,-1.15,-0.88,-0.88,0.87,1.02,1.06,-0.28,-0.27,-0.27
512.62,-1.15,-1.15,-0.89,-0.89,0.89,1.03,1.06,-0.26,-0.26,-0.26
517.75,-1.15,-1.16,-0.90,-0.91,0.90,1.04,1.06,-0.25,-0.25,-0.25
522.93,-1.16,-1.16,-0.92,-0.92,0.92,1.05,1.05,-0.25,-0.24,-0.24
