frequency,raw,smoothed,error,error_smoothed,equalization,parametric_eq,fixed_band_eq,equalized_raw,equalized_smoothed,target
20.00,0.81,0.81,-0.84,-0.83,0.85,1.37,0.50,1.66,1.67,1.65
20.20,0.83,0.83,-0.85,-0.85,0.86,1.36,0.51,1.69,1.69,1.68
20.40,0.84,0.84,-0.87,-0.87,0.87,1.36,0.53,1.71,1.70,1.71
20.61,0.85,0.85,-0.88,-0.88,0.87,1.35,0.54,1.72,1.72,1.73
20.81,0.86,0.86,-0.90,-0.90,0.88,1.35,0.56,1.74,1.74,1.76
21.02,0.87,0.87,-0.92,-0.91,0.89,1.34,0.58,1.76,1.76,1.79
21.23,0.89,0.89,-0.91,-0.91,0.90,1.34,0.59,1.79,1.79,1.80
21.44,0.90,0.90,-0.91,-0.91,0.91,1.33,0.61,1.81,1.81,1.81
21.66,0.91,0.91,-0.90,-0.90,0.91,1.33,0.63,1.82,1.82,1.82
21.87,0.91,0.91,-0.90,-0.91,0.92,1.32,0.65,1.83,1.83,1.82
22.09,0.90,0.90,-0.92,-0.92,0.93,1.32,0.67,1.83,1.83,1.82
22.31,0.89,0.89,-0.93,-0.94,0.94,1.31,0.69,1.83,1.83,1.82
22.54,0.86,0.87,-0.96,-0.96,0.96,1.31,0.71,1.82,1.82,1.82
22.76,0.84,0.84,-0.98,-0.98,0.98,1.30,0.73,1.82,1.82,1.82
22.99,0.81,0.81,-1.00,-1.01,1.01,1.30,0.75,1.82,1.82,1.81
23.22,0.77,0.78,-1.04,-1.04,1.04,1.29,0.77,1.81,1.82,1.81
23.45,0.74,0.74,-1.07,-1.07,1.07,1.29,0.79,1.81,1.81,1.81
23.69,0.71,0.71,-1.10,-1.10,1.10,1.28,0.81,1.81,1.81,1.81
23.92,0.67,0.68,-1.14,-1.14,1.13,1.28,0.84,1.80,1.81,1.81
24.16,0.65,0.65,-1.17,-1.17,1.16,1.27,0.86,1.81,1.81,1.82
24.40,0.62,0.62,-1.20,-1.19,1.19,1.27,0.88,1.81,1.81,1.82
24.65,0.60,0.60,-1.21,-1.21,1.21,1.26,0.91,1.81,1.81,1.81
24.89,0.58,0.58,-1.22,-1.22,1.22,1.26,0.93,1.80,1.80,1.81
25.14,0.57,0.57,-1.23,-1.23,1.23,1.25,0.96,1.80,1.80,1.80
25.39,0.56,0.56,-1.24,-1.24,1.24,1.24,0.98,1.80,1.80,1.80
25.65,0.56,0.56,-1.24,-1.24,1.24,1.24,1.01,1.80,1.80,1.80
25.91,0.56,0.56,-1.23,-1.24,1.24,1.23,1.03,1.80,1.79,1.79
26.16,0.56,0.56,-1.23,-1.23,1.23,1.23,1.06,1.79,1.79,1.79
26.43,0.57,0.57,-1.22,-1.22,1.22,1.22,1.08,1.79,1.79,1.79
26.69,0.59,0.59,-1.20,-1.20,1.20,1.22,1.11,1.79,1.79,1.79
26.96,0.60,0.60,-1.19,-1.18,1.18,1.21,1.13,1.78,1.78,1.79
27.23,0.62,0.62,-1.16,-1.16,1.16,1.20,1.15,1.78,1.78,1.79
27.50,0.64,0.64,-1.14,-1.14,1.14,1.20,1.18,1.78,1.78,1.78
27.77,0.66,0.66,-1.11,-1.12,1.11,1.19,1.20,1.78,1.78,1.77
28.05,0.68,0.68,-1.09,-1.09,1.09,1.19,1.22,1.77,1.77,1.77
28.33,0.69,0.69,-1.07,-1.07,1.07,1.18,1.24,1.76,1.76,1.76
28.62,0.71,0.71,-1.05,-1.05,1.05,1.17,1.27,1.76,1.76,1.76
28.90,0.72,0.72,-1.04,-1.03,1.03,1.17,1.28,1.75,1.75,1.76
29.19,0.73,0.73,-1.01,-1.02,1.02,1.16,1.30,1.75,1.75,1.74
29.48,0.73,0.73,-1.02,-1.02,1.02,1.16,1.32,1.75,1.75,1.75
29.78,0.73,0.73,-1.01,-1.01,1.02,1.15,1.34,1.75,1.75,1.74
30.08,0.72,0.72,-1.02,-1.02,1.02,1.14,1.35,1.74,1.74,1.74
30.38,0.70,0.70,-1.03,-1.03,1.04,1.14,1.37,1.74,1.74,1.73
30.68,0.68,0.68,-1.04,-1.05,1.05,1.13,1.38,1.73,1.73,1.73
30.99,0.64,0.64,-1.07,-1.07,1.07,1.13,1.39,1.71,1.72,1.71
31.30,0.61,0.61,-1.10,-1.10,1.09,1.12,1.40,1.70,1.71,1.71
31.61,0.58,0.58,-1.13,-1.12,1.12,1.12,1.41,1.70,1.70,1.71
31.93,0.55,0.55,-1.15,-1.15,1.14,1.11,1.41,1.69,1.69,1.70
32.24,0.52,0.52,-1.16,-1.17,1.17,1.10,1.42,1.69,1.69,1.68
32.57,0.49,0.49,-1.19,-1.19,1.19,1.10,1.42,1.68,1.68,1.68
32.89,0.47,0.47,-1.21,-1.21,1.21,1.09,1.42,1.68,1.68,1.68
33.22,0.44,0.44,-1.23,-1.23,1.23,1.09,1.42,1.67,1.67,1.67
33.55,0.41,0.41,-1.25,-1.25,1.25,1.08,1.42,1.66,1.66,1.66
33.89,0.38,0.38,-1.27,-1.27,1.27,1.08,1.42,1.65,1.65,1.65
34.23,0.35,0.36,-1.30,-1.29,1.28,1.07,1.42,1.63,1.64,1.65
34.57,0.34,0.34,-1.29,-1.30,1.29,1.07,1.42,1.63,1.63,1.63
34.92,0.32,0.33,-1.30,-1.30,1.30,1.06,1.42,1.62,1.62,1.62
35.27,0.32,0.32,-1.30,-1.30,1.30,1.06,1.41,1.62,1.61,1.62
35.62,0.31,0.31,-1.29,-1.30,1.30,1.05,1.41,1.61,1.60,1.60
35.97,0.30,0.31,-1.29,-1.29,1.29,1.05,1.41,1.59,1.60,1.59
36.33,0.30,0.30,-1.29,-1.28,1.28,1.04,1.40,1.58,1.58,1.59
36.70,0.30,0.30,-1.27,-1.28,1.28,1.04,1.40,1.58,1.57,1.57
37.06,0.29,0.29,-1.27,-1.27,1.27,1.04,1.39,1.56,1.56,1.56
37.43,0.29,0.29,-1.26,-1.26,1.27,1.03,1.39,1.56,1.56,1.55
37.81,0.28,0.28,-1.26,-1.26,1.26,1.03,1.38,1.54,1.54,1.54
38.19,0.27,0.27,-1.26,-1.26,1.26,1.03,1.38,1.53,1.53,1.53
38.57,0.25,0.25,-1.27,-1.27,1.26,1.02,1.38,1.52,1.52,1.52
38.95,0.23,0.23,-1.28,-1.27,1.27,1.02,1.38,1.50,1.50,1.51
39.34,0.21,0.21,-1.28,-1.28,1.28,1.02,1.38,1.49,1.49,1.49
39.74,0.19,0.19,-1.29,-1.29,1.29,1.02,1.38,1.48,1.48,1.48
40.14,0.17,0.17,-1.30,-1.30,1.31,1.01,1.38,1.48,1.48,1.47
40.54,0.14,0.14,-1.31,-1.32,1.33,1.01,1.38,1.47,1.47,1.46
40.94,0.10,0.10,-1.35,-1.34,1.35,1.01,1.38,1.45,1.45,1.45
41.35,0.06,0.06,-1.37,-1.37,1.37,1.01,1.38,1.43,1.43,1.43
41.76,0.03,0.03,-1.40,-1.40,1.39,1.01,1.39,1.42,1.42,1.43
42.18,0.00,-0.00,-1.42,-1.42,1.41,1.01,1.39,1.41,1.41,1.42
42.60,-0.03,-0.03,-1.43,-1.44,1.43,1.01,1.40,1.40,1.40,1.40
43.03,-0.05,-0.05,-1.45,-1.44,1.44,1.01,1.41,1.39,1.39,1.40
43.46,-0.07,-0.07,-1.45,-1.45,1.45,1.01,1.41,1.38,1.38,1.38
43.90,-0.09,-0.09,-1.44,-1.45,1.45,1.02,1.42,1.36,1.36,1.35
44.33,-0.12,-0.11,-1.45,-1.45,1.46,1.02,1.44,1.34,1.34,1.33
44.78,-0.14,-0.14,-1.46,-1.45,1.46,1.02,1.45,1.32,1.32,1.32
45.23,-0.16,-0.16,-1.46,-1.46,1.46,1.02,1.46,1.30,1.30,1.30
45.68,-0.19,-0.18,-1.47,-1.46,1.47,1.03,1.48,1.28,1.28,1.28
46.13,-0.21,-0.21,-1.47,-1.47,1.47,1.03,1.49,1.26,1.26,1.26
46.60,-0.23,-0.23,-1.48,-1.48,1.48,1.04,1.51,1.25,1.25,1.25
47.06,-0.26,-0.26,-1.49,-1.49,1.49,1.05,1.53,1.23,1.24,1.23
47.53,-0.28,-0.28,-1.49,-1.50,1.50,1.05,1.54,1.22,1.22,1.21
48.01,-0.31,-0.31,-1.51,-1.51,1.51,1.06,1.56,1.20,1.20,1.20
48.49,-0.34,-0.34,-1.51,-1.51,1.51,1.07,1.58,1.17,1.17,1.17
48.97,-0.38,-0.38,-1.52,-1.52,1.51,1.08,1.61,1.13,1.13,1.14
49.46,-0.41,-0.41,-1.52,-1.51,1.51,1.09,1.63,1.10,1.10,1.11
49.96,-0.43,-0.43,-1.51,-1.51,1.50,1.10,1.65,1.07,1.08,1.08
50.46,-0.44,-0.44,-1.50,-1.50,1.50,1.11,1.67,1.06,1.06,1.06
50.96,-0.45,-0.45,-1.49,-1.49,1.49,1.13,1.70,1.04,1.04,1.04
51.47,-0.46,-0.46,-1.47,-1.47,1.48,1.14,1.72,1.02,1.02,1.01
51.99,-0.47,-0.47,-1.45,-1.46,1.47,1.15,1.74,1.00,1.00,0.99
52.51,-0.49,-0.49,-1.46,-1.46,1.46,1.17,1.77,0.97,0.97,0.97
53.03,-0.51,-0.51,-1.46,-1.45,1.45,1.19,1.79,0.94,0.94,0.95
53.56,-0.53,-0.53,-1.45,-1.45,1.44,1.21,1.81,0.91,0.91,0.92
54.10,-0.54,-0.54,-1.44,-1.44,1.43,1.23,1.83,0.89,0.89,0.90
54.64,-0.56,-0.56,-1.43,-1.43,1.43,1.25,1.85,0.87,0.87,0.87
55.18,-0.57,-0.57,-1.41,-1.42,1.42,1.27,1.87,0.85,0.85,0.84
55.74,-0.59,-0.59,-1.41,-1.41,1.42,1.29,1.89,0.83,0.83,0.82
56.29,-0.61,-0.61,-1.41,-1.41,1.41,1.31,1.90,0.80,0.80,0.80
56.86,-0.64,-0.64,-1.41,-1.41,1.41,1.34,1.92,0.77,0.77,0.77
57.42,-0.66,-0.66,-1.40,-1.40,1.40,1.36,1.93,0.74,0.74,0.74
58.00,-0.68,-0.68,-1.40,-1.40,1.40,1.39,1.94,0.72,0.72,0.72
58.58,-0.69,-0.69,-1.39,-1.40,1.39,1.41,1.94,0.71,0.70,0.70
59.16,-0.71,-0.71,-1.39,-1.39,1.39,1.44,1.95,0.68,0.68,0.68
59.76,-0.73,-0.73,-1.39,-1.39,1.38,1.47,1.95,0.65,0.65,0.66
60.35,-0.75,-0.75,-1.38,-1.38,1.38,1.49,1.95,0.63,0.63,0.63
60.96,-0.78,-0.77,-1.39,-1.38,1.37,1.52,1.94,0.60,0.60,0.61
61.57,-0.80,-0.80,-1.36,-1.37,1.38,1.55,1.93,0.58,0.58,0.56
62.18,-0.83,-0.83,-1.36,-1.37,1.38,1.58,1.92,0.55,0.55,0.53
62.80,-0.87,-0.87,-1.38,-1.37,1.39,1.60,1.90,0.52,0.52,0.51
63.43,-0.92,-0.92,-1.39,-1.39,1.40,1.63,1.88,0.48,0.48,0.47
64.07,-0.97,-0.97,-1.41,-1.42,1.41,1.66,1.86,0.44,0.44,0.45
64.71,-1.02,-1.02,-1.44,-1.43,1.42,1.68,1.83,0.40,0.41,0.42
65.35,-1.06,-1.06,-1.45,-1.45,1.44,1.70,1.81,0.38,0.38,0.39
66.01,-1.09,-1.09,-1.45,-1.46,1.46,1.72,1.77,0.37,0.36,0.36
66.67,-1.13,-1.13,-1.46,-1.47,1.47,1.74,1.74,0.34,0.34,0.33
67.33,-1.18,-1.18,-1.48,-1.48,1.48,1.75,1.70,0.30,0.30,0.30
68.01,-1.22,-1.22,-1.49,-1.49,1.49,1.77,1.65,0.27,0.27,0.27
68.69,-1.26,-1.26,-1.50,-1.50,1.50,1.77,1.61,0.24,0.24,0.24
69.37,-1.29,-1.29,-1.50,-1.50,1.50,1.78,1.56,0.21,0.21,0.21
70.07,-1.32,-1.32,-1.50,-1.50,1.51,1.78,1.51,0.19,0.18,0.18
70.77,-1.36,-1.36,-1.51,-1.51,1.51,1.78,1.46,0.15,0.15,0.15
71.48,-1.40,-1.40,-1.52,-1.52,1.52,1.77,1.40,0.12,0.12,0.12
72.19,-1.44,-1.44,-1.52,-1.52,1.52,1.76,1.35,0.08,0.08,0.08
72.91,-1.47,-1.47,-1.52,-1.52,1.52,1.74,1.29,0.05,0.05,0.05
73.64,-1.50,-1.50,-1.51,-1.52,1.52,1.72,1.23,0.02,0.02,0.01
74.38,-1.54,-1.54,-1.52,-1.52,1.52,1.69,1.17,-0.02,-0.02,-0.02
75.12,-1.57,-1.57,-1.51,-1.52,1.51,1.65,1.11,-0.05,-0.05,-0.05
75.87,-1.60,-1.60,-1.52,-1.51,1.51,1.62,1.05,-0.09,-0.09,-0.08
76.63,-1.62,-1.62,-1.51,-1.50,1.50,1.57,0.99,-0.12,-0.12,-0.11
77.40,-1.64,-1.64,-1.49,-1.49,1.50,1.53,0.93,-0.14,-0.15,-0.15
78.17,-1.66,-1.66,-1.47,-1.48,1.49,1.48,0.86,-0.17,-0.17,-0.19
78.95,-1.68,-1.68,-1.47,-1.47,1.47,1.42,0.80,-0.21,-0.21,-0.21
79.74,-1.70,-1.70,-1.46,-1.46,1.46,1.36,0.73,-0.24,-0.24,-0.24
80.54,-1.72,-1.72,-1.44,-1.44,1.44,1.30,0.67,-0.28,-0.28,-0.28
81.35,-1.73,-1.73,-1.42,-1.42,1.41,1.23,0.61,-0.32,-0.32,-0.31
82.16,-1.74,-1.73,-1.39,-1.39,1.38,1.16,0.54,-0.35,-0.35,-0.35
82.98,-1.73,-1.73,-1.36,-1.35,1.35,1.09,0.48,-0.38,-0.38,-0.37
83.81,-1.73,-1.73,-1.31,-1.31,1.32,1.02,0.41,-0.41,-0.41,-0.42
84.65,-1.73,-1.73,-1.27,-1.27,1.28,0.94,0.35,-0.45,-0.45,-0.46
85.50,-1.72,-1.72,-1.23,-1.23,1.23,0.87,0.28,-0.49,-0.49,-0.49
86.35,-1.71,-1.71,-1.18,-1.18,1.18,0.79,0.22,-0.53,-0.53,-0.53
87.22,-1.69,-1.69,-1.12,-1.13,1.12,0.71,0.15,-0.57,-0.57,-0.57
88.09,-1.67,-1.67,-1.06,-1.07,1.07,0.63,0.09,-0.60,-0.61,-0.61
88.97,-1.65,-1.65,-1.01,-1.00,1.00,0.55,0.03,-0.65,-0.65,-0.64
89.86,-1.62,-1.62,-0.94,-0.94,0.93,0.47,-0.04,-0.69,-0.69,-0.68
90.76,-1.59,-1.59,-0.86,-0.86,0.86,0.40,-0.10,-0.73,-0.73,-0.73
91.66,-1.55,-1.55,-0.79,-0.78,0.79,0.32,-0.17,-0.76,-0.77,-0.76
92.58,-1.52,-1.52,-0.70,-0.70,0.71,0.24,-0.23,-0.81,-0.81,-0.82
93.51,-1.48,-1.48,-0.63,-0.63,0.63,0.16,-0.29,-0.85,-0.85,-0.85
94.44,-1.44,-1.44,-0.54,-0.54,0.54,0.08,-0.36,-0.90,-0.90,-0.89
95.39,-1.40,-1.40,-0.46,-0.46,0.46,0.01,-0.42,-0.94,-0.94,-0.94
96.34,-1.37,-1.37,-0.38,-0.37,0.38,-0.07,-0.49,-0.99,-0.99,-0.99
97.30,-1.33,-1.33,-0.29,-0.29,0.30,-0.14,-0.55,-1.03,-1.04,-1.04
98.28,-1.30,-1.30,-0.21,-0.21,0.21,-0.21,-0.61,-1.09,-1.09,-1.08
99.26,-1.27,-1.26,-0.14,-0.13,0.13,-0.29,-0.67,-1.14,-1.13,-1.13
100.25,-1.22,-1.23,-0.04,-0.05,0.05,-0.36,-0.74,-1.17,-1.17,-1.18
101.25,-1.19,-1.19,0.03,0.03,-0.03,-0.43,-0.80,-1.22,-1.22,-1.22
102.27,-1.16,-1.16,0.11,0.11,-0.11,-0.49,-0.86,-1.27,-1.27,-1.27
103.29,-1.14,-1.13,0.19,0.19,-0.19,-0.56,-0.92,-1.33,-1.32,-1.32
104.32,-1.10,-1.10,0.26,0.27,-0.27,-0.63,-0.98,-1.36,-1.36,-1.36
105.37,-1.06,-1.07,0.35,0.34,-0.34,-0.69,-1.04,-1.40,-1.41,-1.41
106.42,-1.03,-1.03,0.42,0.42,-0.42,-0.76,-1.10,-1.45,-1.45,-1.45
107.48,-1.01,-1.00,0.49,0.50,-0.50,-0.82,-1.16,-1.51,-1.50,-1.50
108.56,-0.97,-0.97,0.59,0.58,-0.58,-0.88,-1.21,-1.55,-1.55,-1.56
109.64,-0.94,-0.94,0.66,0.66,-0.66,-0.94,-1.27,-1.60,-1.60,-1.60
110.74,-0.91,-0.91,0.74,0.74,-0.74,-1.00,-1.32,-1.65,-1.65,-1.65
111.85,-0.88,-0.88,0.81,0.82,-0.82,-1.06,-1.38,-1.70,-1.70,-1.69
112.97,-0.85,-0.85,0.91,0.90,-0.90,-1.12,-1.43,-1.75,-1.75,-1.76
114.10,-0.83,-0.83,0.97,0.98,-0.98,-1.18,-1.48,-1.81,-1.81,-1.80
115.24,-0.80,-0.80,1.06,1.06,-1.06,-1.24,-1.52,-1.86,-1.86,-1.86
116.39,-0.77,-0.77,1.14,1.14,-1.14,-1.29,-1.57,-1.91,-1.91,-1.91
117.55,-0.74,-0.74,1.23,1.23,-1.22,-1.35,-1.61,-1.96,-1.96,-1.97
118.73,-0.72,-0.71,1.30,1.30,-1.30,-1.40,-1.65,-2.02,-2.01,-2.02
119.92,-0.69,-0.69,1.38,1.38,-1.37,-1.45,-1.69,-2.06,-2.07,-2.06
121.12,-0.67,-0.67,1.45,1.45,-1.44,-1.51,-1.73,-2.11,-2.12,-2.12
122.33,-0.66,-0.65,1.51,1.51,-1.51,-1.56,-1.76,-2.17,-2.17,-2.17
123.55,-0.63,-0.63,1.58,1.58,-1.58,-1.61,-1.79,-2.21,-2.22,-2.21
124.79,-0.62,-0.62,1.64,1.65,-1.65,-1.66,-1.82,-2.27,-2.26,-2.26
126.03,-0.60,-0.60,1.71,1.71,-1.71,-1.71,-1.84,-2.31,-2.31,-2.31
127.29,-0.59,-0.59,1.77,1.78,-1.78,-1.76,-1.86,-2.37,-2.37,-2.36
128.57,-0.58,-0.58,1.84,1.84,-1.84,-1.81,-1.88,-2.42,-2.42,-2.42
129.85,-0.57,-0.57,1.90,1.91,-1.91,-1.86,-1.90,-2.47,-2.47,-2.47
131.15,-0.55,-0.55,1.97,1.97,-1.97,-1.90,-1.92,-2.52,-2.52,-2.52
132.46,-0.53,-0.53,2.04,2.03,-2.03,-1.95,-1.93,-2.56,-2.57,-2.57
133.79,-0.52,-0.52,2.08,2.09,-2.10,-2.00,-1.94,-2.62,-2.61,-2.60
135.12,-0.50,-0.50,2.16,2.15,-2.16,-2.05,-1.95,-2.66,-2.65,-2.66
136.48,-0.48,-0.48,2.21,2.21,-2.21,-2.09,-1.96,-2.69,-2.70,-2.69
137.84,-0.47,-0.47,2.27,2.28,-2.27,-2.14,-1.97,-2.74,-2.74,-2.74
139.22,-0.46,-0.46,2.33,2.33,-2.32,-2.19,-1.97,-2.78,-2.78,-2.79
140.61,-0.45,-0.45,2.39,2.38,-2.37,-2.23,-1.97,-2.82,-2.82,-2.83
142.02,-0.45,-0.45,2.41,2.42,-2.42,-2.28,-1.98,-2.87,-2.87,-2.86
143.44,-0.44,-0.44,2.46,2.46,-2.47,-2.33,-1.98,-2.91,-2.91,-2.90
144.87,-0.43,-0.43,2.51,2.51,-2.51,-2.37,-1.98,-2.94,-2.94,-2.94
146.32,-0.42,-0.42,2.56,2.55,-2.56,-2.42,-1.98,-2.98,-2.98,-2.98
147.78,-0.41,-0.41,2.60,2.60,-2.60,-2.46,-1.99,-3.01,-3.01,-3.01
149.26,-0.41,-0.41,2.64,2.64,-2.64,-2.51,-1.99,-3.05,-3.05,-3.04
150.75,-0.40,-0.40,2.69,2.69,-2.68,-2.56,-1.99,-3.08,-3.09,-3.09
152.26,-0.40,-0.40,2.73,2.73,-2.73,-2.60,-1.99,-3.13,-3.13,-3.13
153.78,-0.40,-0.40,2.76,2.77,-2.77,-2.65,-1.99,-3.17,-3.17,-3.16
155.32,-0.40,-0.40,2.81,2.81,-2.81,-2.69,-2.00,-3.21,-3.21,-3.21
156.88,-0.40,-0.40,2.84,2.85,-2.85,-2.74,-2.00,-3.25,-3.25,-3.24
158.44,-0.40,-0.40,2.89,2.88,-2.88,-2.78,-2.01,-3.28,-3.29,-3.29
160.03,-0.41,-0.41,2.92,2.92,-2.92,-2.83,-2.01,-3.33,-3.33,-3.33
161.63,-0.41,-0.41,2.96,2.96,-2.95,-2.88,-2.02,-3.36,-3.37,-3.37
163.24,-0.42,-0.42,2.99,2.99,-2.99,-2.92,-2.03,-3.41,-3.41,-3.41
164.88,-0.42,-0.42,3.02,3.02,-3.02,-2.96,-2.04,-3.44,-3.44,-3.44
166.53,-0.43,-0.43,3.05,3.05,-3.05,-3.01,-2.05,-3.48,-3.48,-3.48
168.19,-0.43,-0.43,3.09,3.09,-3.09,-3.05,-2.07,-3.52,-3.52,-3.52
169.87,-0.44,-0.44,3.12,3.12,-3.12,-3.09,-2.08,-3.56,-3.56,-3.56
171.57,-0.44,-0.44,3.15,3.15,-3.15,-3.13,-2.10,-3.59,-3.59,-3.59
173.29,-0.45,-0.45,3.18,3.18,-3.18,-3.17,-2.12,-3.63,-3.63,-3.63
175.02,-0.45,-0.45,3.21,3.21,-3.22,-3.21,-2.14,-3.67,-3.67,-3.66
176.77,-0.46,-0.46,3.25,3.25,-3.25,-3.24,-2.16,-3.71,-3.71,-3.71
178.54,-0.47,-0.47,3.28,3.28,-3.28,-3.28,-2.18,-3.75,-3.74,-3.75
180.32,-0.47,-0.48,3.32,3.31,-3.31,-3.31,-2.21,-3.78,-3.78,-3.79
182.13,-0.49,-0.49,3.33,3.33,-3.33,-3.33,-2.23,-3.82,-3.82,-3.82
183.95,-0.50,-0.50,3.36,3.36,-3.36,-3.36,-2.26,-3.86,-3.86,-3.86
185.79,-0.52,-0.52,3.37,3.38,-3.38,-3.38,-2.29,-3.90,-3.89,-3.89
187.65,-0.53,-0.53,3.40,3.40,-3.40,-3.40,-2.32,-3.93,-3.93,-3.93
189.52,-0.55,-0.55,3.41,3.41,-3.41,-3.42,-2.36,-3.96,-3.96,-3.96
191.42,-0.57,-0.57,3.42,3.42,-3.43,-3.43,-2.39,-4.00,-4.00,-3.99
193.33,-0.59,-0.59,3.43,3.43,-3.44,-3.44,-2.43,-4.03,-4.03,-4.02
195.27,-0.61,-0.61,3.44,3.44,-3.45,-3.44,-2.46,-4.06,-4.05,-4.05
197.22,-0.63,-0.63,3.45,3.45,-3.45,-3.44,-2.50,-4.08,-4.08,-4.08
199.19,-0.65,-0.65,3.46,3.45,-3.44,-3.44,-2.54,-4.09,-4.10,-4.11
201.18,-0.68,-0.68,3.45,3.45,-3.44,-3.44,-2.58,-4.11,-4.12,-4.13
203.19,-0.72,-0.72,3.43,3.43,-3.42,-3.43,-2.62,-4.14,-4.14,-4.15
205.23,-0.76,-0.76,3.41,3.40,-3.41,-3.42,-2.67,-4.16,-4.17,-4.17
207.28,-0.81,-0.81,3.37,3.38,-3.38,-3.41,-2.71,-4.19,-4.19,-4.18
209.35,-0.85,-0.85,3.35,3.36,-3.36,-3.39,-2.75,-4.21,-4.21,-4.20
211.44,-0.88,-0.88,3.35,3.34,-3.34,-3.37,-2.79,-4.22,-4.22,-4.23
213.56,-0.91,-0.91,3.32,3.32,-3.32,-3.35,-2.83,-4.23,-4.24,-4.23
215.69,-0.94,-0.94,3.29,3.30,-3.31,-3.33,-2.88,-4.25,-4.25,-4.23
217.85,-0.97,-0.96,3.28,3.28,-3.29,-3.31,-2.92,-4.26,-4.26,-4.25
220.03,-0.98,-0.98,3.28,3.28,-3.28,-3.29,-2.96,-4.26,-4.26,-4.26
222.23,-0.99,-0.99,3.28,3.27,-3.26,-3.26,-2.99,-4.25,-4.25,-4.27
224.45,-1.01,-1.01,3.25,3.26,-3.24,-3.24,-3.03,-4.25,-4.25,-4.26
226.70,-1.03,-1.03,3.23,3.23,-3.22,-3.21,-3.07,-4.25,-4.25,-4.26
228.96,-1.06,-1.06,3.20,3.20,-3.19,-3.18,-3.10,-4.25,-4.25,-4.26
231.25,-1.09,-1.09,3.16,3.17,-3.17,-3.16,-3.13,-4.26,-4.25,-4.25
233.57,-1.12,-1.12,3.13,3.13,-3.14,-3.13,-3.15,-4.26,-4.26,-4.25
235.90,-1.15,-1.15,3.10,3.10,-3.11,-3.10,-3.18,-4.26,-4.26,-4.25
238.26,-1.18,-1.18,3.07,3.07,-3.08,-3.07,-3.20,-4.26,-4.26,-4.25
240.64,-1.20,-1.19,3.04,3.05,-3.06,-3.05,-3.21,-4.26,-4.25,-4.24
243.05,-1.20,-1.20,3.03,3.03,-3.04,-3.02,-3.23,-4.24,-4.24,-4.23
245.48,-1.20,-1.20,3.02,3.02,-3.02,-2.99,-3.24,-4.22,-4.22,-4.22
247.93,-1.20,-1.20,3.01,3.01,-3.00,-2.96,-3.24,-4.20,-4.20,-4.21
250.41,-1.20,-1.20,3.01,3.00,-2.99,-2.94,-3.24,-4.19,-4.19,-4.20
252.92,-1.21,-1.21,2.97,2.98,-2.97,-2.91,-3.24,-4.18,-4.18,-4.18
255.45,-1.21,-1.21,2.95,2.95,-2.96,-2.88,-3.23,-4.16,-4.17,-4.16
258.00,-1.22,-1.22,2.93,2.93,-2.93,-2.85,-3.22,-4.15,-4.15,-4.15
260.58,-1.22,-1.22,2.91,2.91,-2.90,-2.82,-3.21,-4.12,-4.12,-4.13
263.19,-1.23,-1.23,2.88,2.88,-2.87,-2.80,-3.19,-4.10,-4.11,-4.11
265.82,-1.25,-1.25,2.85,2.84,-2.84,-2.77,-3.17,-4.08,-4.09,-4.10
268.48,-1.28,-1.28,2.79,2.80,-2.80,-2.74,-3.14,-4.08,-4.07,-4.07
271.16,-1.30,-1.30,2.75,2.75,-2.75,-2.71,-3.12,-4.05,-4.06,-4.05
273.87,-1.33,-1.33,2.70,2.70,-2.71,-2.68,-3.09,-4.04,-4.04,-4.03
276.61,-1.35,-1.35,2.66,2.66,-2.66,-2.65,-3.05,-4.01,-4.01,-4.01
279.38,-1.38,-1.38,2.62,2.61,-2.61,-2.62,-3.02,-3.99,-3.99,-3.99
282.17,-1.41,-1.41,2.57,2.57,-2.57,-2.59,-2.98,-3.97,-3.97,-3.98
284.99,-1.44,-1.44,2.52,2.52,-2.52,-2.56,-2.94,-3.96,-3.95,-3.95
287.84,-1.46,-1.46,2.48,2.47,-2.47,-2.53,-2.90,-3.93,-3.94,-3.94
290.72,-1.49,-1.49,2.42,2.42,-2.43,-2.49,-2.86,-3.92,-3.92,-3.91
293.63,-1.52,-1.52,2.38,2.38,-2.39,-2.46,-2.82,-3.91,-3.90,-3.90
296.57,-1.54,-1.54,2.33,2.34,-2.34,-2.43,-2.77,-3.88,-3.88,-3.87
299.53,-1.55,-1.55,2.31,2.31,-2.30,-2.39,-2.73,-3.85,-3.86,-3.86
302.53,-1.56,-1.56,2.28,2.27,-2.26,-2.36,-2.69,-3.82,-3.83,-3.84
305.55,-1.58,-1.58,2.23,2.24,-2.23,-2.32,-2.64,-3.81,-3.80,-3.80
308.61,-1.59,-1.59,2.20,2.20,-2.19,-2.29,-2.60,-3.78,-3.78,-3.79
311.69,-1.60,-1.60,2.16,2.16,-2.16,-2.25,-2.56,-3.76,-3.76,-3.76
314.81,-1.61,-1.61,2.12,2.13,-2.13,-2.21,-2.52,-3.74,-3.74,-3.73
317.96,-1.61,-1.61,2.10,2.10,-2.10,-2.18,-2.48,-3.71,-3.72,-3.71
321.14,-1.62,-1.62,2.07,2.07,-2.08,-2.14,-2.44,-3.70,-3.69,-3.69
324.35,-1.62,-1.62,2.06,2.05,-2.05,-2.11,-2.40,-3.67,-3.67,-3.67
327.59,-1.62,-1.62,2.03,2.03,-2.03,-2.07,-2.36,-3.65,-3.65,-3.65
330.87,-1.61,-1.61,2.02,2.02,-2.01,-2.04,-2.33,-3.62,-3.63,-3.63
334.18,-1.62,-1.61,1.99,2.00,-1.99,-2.00,-2.30,-3.61,-3.61,-3.61
337.52,-1.61,-1.61,1.99,1.98,-1.97,-1.97,-2.26,-3.58,-3.59,-3.60
340.90,-1.62,-1.62,1.95,1.95,-1.95,-1.94,-2.23,-3.57,-3.57,-3.57
344.30,-1.62,-1.62,1.93,1.93,-1.94,-1.91,-2.20,-3.55,-3.55,-3.55
347.75,-1.62,-1.62,1.91,1.91,-1.92,-1.88,-2.17,-3.54,-3.54,-3.53
351.23,-1.62,-1.62,1.90,1.90,-1.90,-1.86,-2.15,-3.52,-3.52,-3.52
354.74,-1.61,-1.61,1.89,1.88,-1.89,-1.83,-2.12,-3.50,-3.50,-3.50
358.28,-1.61,-1.61,1.87,1.87,-1.87,-1.82,-2.10,-3.48,-3.48,-3.48
361.87,-1.61,-1.61,1.85,1.86,-1.86,-1.80,-2.08,-3.47,-3.46,-3.46
365.49,-1.60,-1.60,1.84,1.84,-1.85,-1.79,-2.06,-3.45,-3.45,-3.44
369.14,-1.60,-1.60,1.84,1.83,-1.83,-1.78,-2.04,-3.43,-3.43,-3.44
372.83,-1.60,-1.60,1.82,1.82,-1.81,-1.78,-2.03,-3.41,-3.41,-3.42
376.56,-1.60,-1.60,1.81,1.80,-1.79,-1.77,-2.01,-3.39,-3.39,-3.41
380.33,-1.61,-1.61,1.77,1.77,-1.76,-1.78,-2.00,-3.37,-3.37,-3.38
384.13,-1.63,-1.63,1.74,1.75,-1.73,-1.78,-1.99,-3.36,-3.36,-3.37
387.97,-1.65,-1.65,1.71,1.71,-1.71,-1.79,-1.98,-3.36,-3.36,-3.36
391.85,-1.67,-1.67,1.69,1.68,-1.69,-1.80,-1.97,-3.36,-3.36,-3.36
395.77,-1.68,-1.68,1.66,1.66,-1.68,-1.82,-1.96,-3.36,-3.36,-3.34
399.73,-1.67,-1.67,1.66,1.66,-1.68,-1.83,-1.95,-3.35,-3.35,-3.33
403.72,-1.65,-1.65,1.67,1.67,-1.70,-1.85,-1.95,-3.35,-3.35,-3.32
407.76,-1.60,-1.60,1.71,1.71,-1.73,-1.87,-1.94,-3.33,-3.33,-3.31
411.84,-1.54,-1.53,1.75,1.76,-1.77,-1.89,-1.94,-3.31,-3.31,-3.29
415.96,-1.45,-1.45,1.83,1.83,-1.82,-1.92,-1.94,-3.27,-3.28,-3.28
420.12,-1.38,-1.38,1.90,1.89,-1.87,-1.94,-1.94,-3.25,-3.25,-3.27
424.32,-1.31,-1.32,1.96,1.95,-1.92,-1.96,-1.94,-3.23,-3.24,-3.27
428.56,-1.27,-1.27,1.99,1.99,-1.97,-1.99,-1.94,-3.24,-3.24,-3.26
432.85,-1.24,-1.23,2.01,2.01,-2.01,-2.01,-1.94,-3.25,-3.24,-3.25
437.18,-1.20,-1.20,2.04,2.03,-2.04,-2.03,-1.94,-3.24,-3.24,-3.24
441.55,-1.17,-1.17,2.05,2.05,-2.06,-2.05,-1.95,-3.23,-3.23,-3.22
445.96,-1.14,-1.14,2.07,2.07,-2.07,-2.08,-1.95,-3.21,-3.21,-3.21
450.42,-1.12,-1.12,2.08,2.08,-2.08,-2.10,-1.95,-3.20,-3.20,-3.20
454.93,-1.09,-1.09,2.09,2.10,-2.09,-2.12,-1.95,-3.18,-3.19,-3.18
459.48,-1.07,-1.07,2.10,2.10,-2.10,-2.14,-1.96,-3.17,-3.17,-3.17
464.07,-1.04,-1.04,2.11,2.11,-2.11,-2.16,-1.96,-3.15,-3.15,-3.15
468.71,-1.02,-1.02,2.12,2.12,-2.12,-2.18,-1.96,-3.14,-3.14,-3.13
