frequency,raw,error,smoothed,error_smoothed,equalization,parametric_eq,fixed_band_eq,equalized_raw,equalized_smoothed,target
20.00,-1.61,-4.00,-1.61,-4.00,4.01,0.83,0.18,2.40,2.40,2.40
20.20,-1.47,-3.86,-1.47,-3.87,3.87,0.83,0.18,2.40,2.40,2.40
20.40,-1.34,-3.73,-1.33,-3.73,3.73,0.82,0.19,2.39,2.40,2.40
20.61,-1.20,-3.60,-1.20,-3.60,3.59,0.82,0.19,2.39,2.39,2.40
20.81,-1.06,-3.45,-1.06,-3.46,3.45,0.81,0.20,2.39,2.39,2.40
21.02,-0.93,-3.32,-0.92,-3.31,3.31,0.81,0.21,2.38,2.39,2.40
21.23,-0.79,-3.16,-0.79,-3.17,3.17,0.80,0.21,2.38,2.38,2.38
21.44,-0.67,-3.03,-0.66,-3.03,3.03,0.80,0.22,2.36,2.36,2.37
21.66,-0.54,-2.88,-0.54,-2.88,2.89,0.79,0.22,2.35,2.35,2.35
21.87,-0.41,-2.74,-0.41,-2.74,2.74,0.79,0.23,2.33,2.33,2.33
22.09,-0.29,-2.60,-0.29,-2.60,2.60,0.78,0.24,2.31,2.31,2.31
22.31,-0.18,-2.46,-0.17,-2.46,2.46,0.77,0.25,2.28,2.28,2.28
22.54,-0.06,-2.32,-0.05,-2.32,2.32,0.77,0.25,2.26,2.26,2.26
22.76,0.06,-2.18,0.06,-2.18,2.18,0.76,0.26,2.24,2.24,2.24
22.99,0.17,-2.04,0.17,-2.04,2.05,0.75,0.27,2.22,2.22,2.21
23.22,0.27,-1.91,0.28,-1.91,1.92,0.75,0.28,2.19,2.19,2.18
23.45,0.38,-1.78,0.38,-1.79,1.79,0.74,0.28,2.18,2.17,2.16
23.69,0.47,-1.68,0.48,-1.67,1.67,0.73,0.29,2.14,2.15,2.15
23.92,0.57,-1.56,0.58,-1.56,1.56,0.72,0.30,2.13,2.13,2.13
24.16,0.67,-1.45,0.67,-1.45,1.45,0.71,0.31,2.12,2.12,2.12
24.40,0.75,-1.35,0.75,-1.35,1.35,0.71,0.32,2.10,2.10,2.10
24.65,0.83,-1.25,0.84,-1.25,1.25,0.70,0.33,2.08,2.08,2.08
24.89,0.91,-1.15,0.91,-1.15,1.15,0.69,0.34,2.06,2.06,2.06
25.14,0.99,-1.06,0.99,-1.06,1.05,0.68,0.35,2.05,2.05,2.05
25.39,1.06,-0.96,1.06,-0.97,0.96,0.67,0.35,2.03,2.03,2.03
25.65,1.13,-0.89,1.13,-0.88,0.88,0.66,0.36,2.01,2.01,2.02
25.91,1.20,-0.79,1.20,-0.80,0.79,0.64,0.37,2.00,1.99,1.99
26.16,1.26,-0.71,1.26,-0.71,0.72,0.63,0.38,1.98,1.98,1.98
26.43,1.32,-0.65,1.32,-0.64,0.64,0.62,0.39,1.96,1.97,1.97
26.69,1.38,-0.56,1.38,-0.57,0.57,0.61,0.40,1.95,1.95,1.95
26.96,1.43,-0.50,1.43,-0.50,0.50,0.59,0.41,1.94,1.94,1.94
27.23,1.48,-0.44,1.48,-0.44,0.44,0.58,0.42,1.92,1.92,1.93
27.50,1.52,-0.39,1.52,-0.39,0.38,0.57,0.43,1.90,1.91,1.91
27.77,1.56,-0.33,1.57,-0.33,0.33,0.55,0.43,1.89,1.89,1.89
28.05,1.61,-0.27,1.61,-0.27,0.27,0.53,0.44,1.89,1.88,1.88
28.33,1.64,-0.22,1.64,-0.22,0.23,0.52,0.45,1.87,1.87,1.86
28.62,1.67,-0.18,1.67,-0.18,0.18,0.50,0.45,1.85,1.86,1.85
28.90,1.70,-0.14,1.70,-0.14,0.14,0.48,0.46,1.84,1.84,1.84
29.19,1.72,-0.10,1.73,-0.10,0.10,0.46,0.47,1.82,1.83,1.82
29.48,1.75,-0.07,1.75,-0.07,0.07,0.44,0.47,1.82,1.81,1.82
29.78,1.76,-0.04,1.77,-0.04,0.03,0.42,0.48,1.80,1.80,1.81
30.08,1.78,-0.01,1.78,-0.01,0.01,0.40,0.48,1.79,1.79,1.80
30.38,1.79,0.02,1.80,0.02,-0.02,0.38,0.48,1.77,1.78,1.78
30.68,1.81,0.05,1.81,0.05,-0.04,0.35,0.49,1.77,1.77,1.76
30.99,1.82,0.08,1.82,0.07,-0.06,0.33,0.49,1.76,1.75,1.74
31.30,1.81,0.08,1.82,0.08,-0.08,0.30,0.49,1.73,1.74,1.73
31.61,1.81,0.09,1.81,0.09,-0.10,0.28,0.49,1.72,1.71,1.72
31.93,1.80,0.10,1.80,0.11,-0.11,0.25,0.49,1.69,1.69,1.70
32.24,1.79,0.12,1.80,0.12,-0.12,0.22,0.49,1.67,1.67,1.67
32.57,1.79,0.14,1.79,0.13,-0.13,0.19,0.49,1.66,1.66,1.66
32.89,1.77,0.13,1.78,0.14,-0.14,0.17,0.49,1.63,1.64,1.65
33.22,1.77,0.16,1.77,0.15,-0.15,0.14,0.49,1.63,1.62,1.61
33.55,1.75,0.15,1.75,0.15,-0.15,0.11,0.48,1.60,1.60,1.60
33.89,1.73,0.15,1.74,0.16,-0.16,0.09,0.48,1.58,1.58,1.58
34.23,1.71,0.15,1.72,0.16,-0.16,0.06,0.47,1.55,1.56,1.56
34.57,1.70,0.17,1.70,0.16,-0.16,0.03,0.47,1.54,1.54,1.54
34.92,1.68,0.17,1.68,0.16,-0.16,0.01,0.47,1.52,1.52,1.52
35.27,1.66,0.16,1.66,0.16,-0.16,-0.01,0.46,1.50,1.50,1.50
35.62,1.64,0.16,1.64,0.16,-0.16,-0.03,0.46,1.48,1.48,1.48
35.97,1.61,0.15,1.62,0.16,-0.16,-0.05,0.45,1.45,1.46,1.46
36.33,1.60,0.16,1.60,0.15,-0.16,-0.06,0.44,1.45,1.44,1.45
36.70,1.57,0.15,1.58,0.15,-0.15,-0.07,0.44,1.42,1.42,1.42
37.06,1.55,0.15,1.55,0.15,-0.15,-0.08,0.43,1.41,1.41,1.40
37.43,1.53,0.14,1.53,0.14,-0.14,-0.09,0.43,1.39,1.39,1.39
37.81,1.50,0.14,1.51,0.14,-0.14,-0.09,0.42,1.36,1.37,1.37
38.19,1.48,0.14,1.48,0.13,-0.13,-0.09,0.41,1.35,1.35,1.34
38.57,1.45,0.12,1.45,0.13,-0.13,-0.08,0.41,1.32,1.33,1.33
38.95,1.43,0.12,1.43,0.12,-0.12,-0.08,0.40,1.31,1.31,1.31
39.34,1.40,0.12,1.41,0.12,-0.12,-0.07,0.40,1.29,1.29,1.29
39.74,1.38,0.12,1.38,0.11,-0.11,-0.06,0.39,1.27,1.27,1.26
40.14,1.35,0.09,1.35,0.10,-0.10,-0.05,0.39,1.25,1.25,1.26
40.54,1.32,0.09,1.33,0.09,-0.09,-0.04,0.38,1.23,1.24,1.24
40.94,1.30,0.08,1.30,0.08,-0.08,-0.02,0.38,1.22,1.22,1.22
41.35,1.27,0.07,1.28,0.07,-0.07,-0.01,0.37,1.21,1.21,1.20
41.76,1.25,0.06,1.25,0.06,-0.06,0.01,0.37,1.20,1.20,1.20
42.18,1.22,0.04,1.22,0.04,-0.04,0.02,0.37,1.18,1.18,1.18
42.60,1.19,0.04,1.19,0.03,-0.03,0.04,0.36,1.16,1.16,1.16
43.03,1.16,0.01,1.16,0.02,-0.02,0.05,0.36,1.14,1.14,1.15
43.46,1.13,0.00,1.14,0.01,-0.01,0.07,0.36,1.12,1.13,1.13
43.90,1.11,0.01,1.11,-0.00,-0.00,0.08,0.35,1.11,1.11,1.10
44.33,1.08,-0.01,1.08,-0.01,0.01,0.09,0.35,1.09,1.09,1.09
44.78,1.05,-0.02,1.06,-0.01,0.02,0.11,0.35,1.07,1.07,1.07
45.23,1.03,-0.02,1.03,-0.02,0.03,0.12,0.35,1.06,1.06,1.05
45.68,1.00,-0.03,1.00,-0.03,0.04,0.13,0.34,1.04,1.04,1.03
46.13,0.98,-0.04,0.98,-0.04,0.05,0.14,0.34,1.03,1.03,1.02
46.60,0.95,-0.06,0.95,-0.05,0.06,0.15,0.34,1.01,1.01,1.01
47.06,0.93,-0.06,0.93,-0.07,0.06,0.15,0.34,1.00,1.00,1.00
47.53,0.90,-0.08,0.90,-0.08,0.07,0.16,0.34,0.98,0.98,0.98
48.01,0.88,-0.09,0.88,-0.09,0.08,0.17,0.34,0.96,0.96,0.97
48.49,0.85,-0.10,0.85,-0.09,0.09,0.17,0.34,0.94,0.94,0.95
48.97,0.83,-0.09,0.83,-0.09,0.09,0.18,0.34,0.93,0.92,0.92
49.46,0.80,-0.09,0.81,-0.09,0.10,0.18,0.34,0.90,0.90,0.89
49.96,0.78,-0.08,0.78,-0.09,0.10,0.18,0.34,0.88,0.88,0.87
50.46,0.76,-0.11,0.76,-0.10,0.10,0.18,0.34,0.87,0.86,0.87
50.96,0.73,-0.12,0.74,-0.11,0.11,0.18,0.34,0.84,0.85,0.85
51.47,0.71,-0.11,0.71,-0.12,0.11,0.18,0.34,0.83,0.83,0.82
51.99,0.69,-0.11,0.69,-0.12,0.12,0.18,0.35,0.81,0.81,0.80
52.51,0.66,-0.13,0.67,-0.13,0.12,0.18,0.35,0.79,0.79,0.80
53.03,0.64,-0.13,0.64,-0.13,0.13,0.18,0.35,0.77,0.77,0.78
53.56,0.62,-0.13,0.62,-0.13,0.13,0.17,0.35,0.75,0.76,0.76
54.10,0.61,-0.12,0.61,-0.13,0.13,0.17,0.35,0.75,0.74,0.74
54.64,0.58,-0.13,0.59,-0.13,0.14,0.16,0.35,0.72,0.72,0.72
55.18,0.56,-0.13,0.56,-0.13,0.14,0.16,0.35,0.70,0.70,0.70
55.74,0.54,-0.13,0.54,-0.14,0.14,0.15,0.34,0.68,0.68,0.68
56.29,0.52,-0.14,0.52,-0.14,0.14,0.15,0.34,0.66,0.66,0.67
56.86,0.50,-0.14,0.51,-0.14,0.14,0.14,0.34,0.64,0.64,0.64
57.42,0.49,-0.13,0.49,-0.14,0.14,0.13,0.34,0.63,0.63,0.62
58.00,0.47,-0.14,0.47,-0.13,0.14,0.12,0.34,0.61,0.61,0.61
58.58,0.45,-0.13,0.46,-0.13,0.14,0.11,0.33,0.59,0.59,0.59
59.16,0.44,-0.13,0.44,-0.14,0.14,0.11,0.33,0.58,0.57,0.57
59.76,0.41,-0.15,0.42,-0.14,0.14,0.10,0.32,0.55,0.55,0.56
60.35,0.40,-0.13,0.40,-0.14,0.13,0.09,0.31,0.53,0.53,0.54
60.96,0.38,-0.15,0.39,-0.14,0.13,0.07,0.31,0.51,0.51,0.53
61.57,0.37,-0.12,0.37,-0.13,0.12,0.06,0.30,0.50,0.50,0.50
62.18,0.36,-0.11,0.36,-0.12,0.12,0.05,0.29,0.48,0.48,0.47
62.80,0.34,-0.11,0.35,-0.10,0.11,0.04,0.28,0.46,0.46,0.45
63.43,0.33,-0.10,0.33,-0.10,0.11,0.03,0.27,0.44,0.44,0.43
64.07,0.31,-0.10,0.32,-0.10,0.10,0.01,0.26,0.42,0.42,0.41
64.71,0.30,-0.10,0.30,-0.10,0.10,0.00,0.24,0.40,0.40,0.40
65.35,0.28,-0.10,0.28,-0.11,0.10,-0.01,0.23,0.38,0.38,0.39
66.01,0.26,-0.11,0.27,-0.10,0.10,-0.03,0.22,0.36,0.37,0.38
66.67,0.26,-0.10,0.26,-0.10,0.10,-0.04,0.20,0.36,0.36,0.36
67.33,0.25,-0.10,0.25,-0.10,0.10,-0.06,0.18,0.35,0.35,0.35
68.01,0.23,-0.10,0.24,-0.09,0.10,-0.07,0.17,0.33,0.33,0.33
68.69,0.22,-0.09,0.22,-0.09,0.09,-0.09,0.15,0.32,0.32,0.32
69.37,0.21,-0.08,0.21,-0.09,0.09,-0.11,0.13,0.30,0.30,0.30
70.07,0.20,-0.08,0.20,-0.08,0.08,-0.12,0.11,0.29,0.29,0.28
70.77,0.19,-0.08,0.19,-0.08,0.08,-0.14,0.09,0.27,0.27,0.27
71.48,0.18,-0.07,0.18,-0.07,0.07,-0.16,0.07,0.25,0.25,0.25
72.19,0.16,-0.07,0.17,-0.06,0.06,-0.18,0.05,0.22,0.23,0.24
72.91,0.16,-0.05,0.16,-0.06,0.05,-0.19,0.03,0.22,0.21,0.21
73.64,0.14,-0.04,0.15,-0.04,0.04,-0.21,0.00,0.18,0.19,0.19
74.38,0.13,-0.04,0.14,-0.03,0.03,-0.23,-0.02,0.16,0.17,0.17
75.12,0.13,-0.00,0.13,-0.01,0.02,-0.25,-0.04,0.15,0.15,0.14
75.87,0.12,0.00,0.12,-0.00,0.00,-0.27,-0.07,0.13,0.12,0.12
76.63,0.10,0.00,0.11,0.01,-0.01,-0.29,-0.09,0.09,0.10,0.10
77.40,0.09,0.02,0.10,0.02,-0.03,-0.31,-0.12,0.07,0.07,0.07
78.17,0.09,0.06,0.09,0.04,-0.04,-0.33,-0.14,0.05,0.04,0.04
78.95,0.08,0.06,0.08,0.06,-0.06,-0.36,-0.17,0.02,0.02,0.03
79.74,0.07,0.08,0.07,0.08,-0.08,-0.38,-0.20,-0.01,-0.01,-0.00
80.54,0.06,0.10,0.07,0.10,-0.10,-0.40,-0.22,-0.04,-0.03,-0.03
81.35,0.06,0.13,0.06,0.12,-0.12,-0.42,-0.25,-0.06,-0.06,-0.06
82.16,0.05,0.15,0.05,0.15,-0.14,-0.45,-0.28,-0.09,-0.09,-0.10
82.98,0.04,0.16,0.05,0.17,-0.17,-0.47,-0.31,-0.13,-0.12,-0.12
83.81,0.04,0.20,0.04,0.19,-0.19,-0.49,-0.33,-0.15,-0.15,-0.16
84.65,0.02,0.22,0.03,0.22,-0.22,-0.52,-0.36,-0.19,-0.19,-0.19
85.50,0.02,0.24,0.02,0.24,-0.24,-0.54,-0.39,-0.22,-0.22,-0.22
86.35,0.01,0.26,0.01,0.26,-0.26,-0.57,-0.42,-0.25,-0.25,-0.25
87.22,0.00,0.29,0.01,0.29,-0.29,-0.59,-0.45,-0.29,-0.28,-0.28
88.09,0.00,0.32,-0.00,0.31,-0.31,-0.62,-0.48,-0.31,-0.31,-0.32
88.97,-0.01,0.34,-0.01,0.34,-0.34,-0.64,-0.51,-0.35,-0.35,-0.34
89.86,-0.02,0.36,-0.02,0.37,-0.37,-0.67,-0.54,-0.38,-0.38,-0.38
90.76,-0.03,0.40,-0.03,0.39,-0.39,-0.69,-0.57,-0.42,-0.42,-0.43
91.66,-0.04,0.42,-0.04,0.42,-0.42,-0.72,-0.60,-0.46,-0.46,-0.45
92.58,-0.05,0.45,-0.04,0.45,-0.45,-0.74,-0.63,-0.49,-0.49,-0.50
93.51,-0.05,0.47,-0.05,0.47,-0.48,-0.77,-0.67,-0.52,-0.52,-0.52
94.44,-0.05,0.51,-0.05,0.51,-0.51,-0.80,-0.70,-0.55,-0.56,-0.55
95.39,-0.06,0.54,-0.06,0.54,-0.54,-0.83,-0.73,-0.60,-0.60,-0.59
96.34,-0.07,0.57,-0.06,0.57,-0.57,-0.85,-0.77,-0.64,-0.64,-0.64
97.30,-0.07,0.61,-0.07,0.61,-0.61,-0.88,-0.80,-0.68,-0.68,-0.68
98.28,-0.08,0.64,-0.08,0.65,-0.65,-0.91,-0.83,-0.72,-0.72,-0.72
99.26,-0.08,0.69,-0.08,0.68,-0.68,-0.94,-0.87,-0.76,-0.76,-0.77
100.25,-0.09,0.72,-0.09,0.72,-0.72,-0.96,-0.90,-0.81,-0.81,-0.81
101.25,-0.09,0.76,-0.09,0.76,-0.76,-0.99,-0.93,-0.85,-0.85,-0.84
102.27,-0.10,0.80,-0.10,0.80,-0.80,-1.02,-0.97,-0.89,-0.89,-0.89
103.29,-0.10,0.85,-0.10,0.84,-0.84,-1.05,-1.00,-0.93,-0.93,-0.94
104.32,-0.11,0.88,-0.11,0.88,-0.88,-1.08,-1.04,-0.98,-0.98,-0.98
105.37,-0.11,0.92,-0.11,0.91,-0.92,-1.11,-1.07,-1.02,-1.03,-1.02
106.42,-0.13,0.94,-0.12,0.95,-0.96,-1.14,-1.10,-1.08,-1.08,-1.07
107.48,-0.13,0.99,-0.13,1.00,-1.00,-1.17,-1.14,-1.12,-1.12,-1.12
108.56,-0.13,1.04,-0.13,1.04,-1.04,-1.19,-1.17,-1.17,-1.17,-1.17
109.64,-0.13,1.09,-0.13,1.08,-1.08,-1.22,-1.20,-1.21,-1.21,-1.22
110.74,-0.14,1.12,-0.13,1.13,-1.13,-1.25,-1.24,-1.27,-1.26,-1.26
111.85,-0.14,1.17,-0.14,1.17,-1.18,-1.28,-1.27,-1.31,-1.32,-1.31
112.97,-0.15,1.23,-0.15,1.22,-1.22,-1.31,-1.30,-1.37,-1.37,-1.38
114.10,-0.16,1.26,-0.15,1.27,-1.27,-1.34,-1.33,-1.43,-1.42,-1.41
115.24,-0.15,1.32,-0.15,1.32,-1.31,-1.37,-1.36,-1.46,-1.47,-1.46
116.39,-0.16,1.36,-0.16,1.36,-1.36,-1.40,-1.39,-1.52,-1.52,-1.52
117.55,-0.16,1.41,-0.16,1.41,-1.40,-1.43,-1.41,-1.56,-1.56,-1.57
118.73,-0.17,1.45,-0.17,1.45,-1.45,-1.46,-1.44,-1.61,-1.61,-1.62
119.92,-0.17,1.49,-0.17,1.49,-1.49,-1.48,-1.46,-1.65,-1.66,-1.65
121.12,-0.18,1.52,-0.17,1.53,-1.53,-1.51,-1.49,-1.70,-1.70,-1.70
122.33,-0.18,1.57,-0.18,1.57,-1.57,-1.54,-1.51,-1.74,-1.74,-1.75
123.55,-0.18,1.60,-0.18,1.60,-1.61,-1.57,-1.53,-1.78,-1.79,-1.78
124.79,-0.19,1.64,-0.18,1.64,-1.65,-1.60,-1.55,-1.83,-1.83,-1.83
126.03,-0.19,1.68,-0.19,1.68,-1.68,-1.63,-1.57,-1.87,-1.87,-1.86
127.29,-0.19,1.72,-0.19,1.72,-1.72,-1.66,-1.58,-1.91,-1.91,-1.91
128.57,-0.20,1.76,-0.19,1.76,-1.76,-1.68,-1.60,-1.96,-1.95,-1.96
129.85,-0.19,1.81,-0.19,1.80,-1.80,-1.71,-1.61,-1.98,-1.99,-1.99
131.15,-0.20,1.83,-0.20,1.84,-1.83,-1.74,-1.63,-2.03,-2.03,-2.03
132.46,-0.20,1.87,-0.20,1.87,-1.86,-1.77,-1.64,-2.06,-2.06,-2.07
133.79,-0.21,1.89,-0.21,1.89,-1.89,-1.79,-1.65,-2.10,-2.10,-2.09
135.12,-0.21,1.93,-0.21,1.92,-1.92,-1.82,-1.66,-2.13,-2.13,-2.13
136.48,-0.22,1.94,-0.21,1.94,-1.95,-1.85,-1.67,-2.16,-2.16,-2.15
137.84,-0.22,1.96,-0.22,1.97,-1.97,-1.87,-1.68,-2.18,-2.19,-2.17
139.22,-0.22,2.00,-0.22,1.99,-1.99,-1.90,-1.69,-2.21,-2.21,-2.21
140.61,-0.23,2.02,-0.22,2.01,-2.01,-1.92,-1.70,-2.23,-2.23,-2.24
142.02,-0.22,2.03,-0.22,2.03,-2.02,-1.95,-1.71,-2.24,-2.25,-2.24
143.44,-0.23,2.03,-0.22,2.04,-2.04,-1.98,-1.71,-2.27,-2.27,-2.26
144.87,-0.23,2.06,-0.23,2.06,-2.06,-2.00,-1.72,-2.28,-2.28,-2.29
146.32,-0.23,2.08,-0.23,2.07,-2.07,-2.02,-1.73,-2.30,-2.30,-2.30
147.78,-0.24,2.07,-0.23,2.08,-2.08,-2.05,-1.74,-2.32,-2.32,-2.31
149.26,-0.24,2.09,-0.24,2.09,-2.09,-2.07,-1.75,-2.33,-2.33,-2.33
150.75,-0.25,2.10,-0.24,2.10,-2.10,-2.10,-1.76,-2.35,-2.35,-2.35
152.26,-0.25,2.12,-0.25,2.12,-2.12,-2.12,-1.77,-2.36,-2.36,-2.37
153.78,-0.25,2.13,-0.25,2.13,-2.13,-2.14,-1.78,-2.37,-2.38,-2.38
155.32,-0.26,2.14,-0.25,2.14,-2.14,-2.16,-1.80,-2.40,-2.39,-2.39
156.88,-0.26,2.15,-0.26,2.15,-2.15,-2.19,-1.81,-2.41,-2.41,-2.40
158.44,-0.27,2.16,-0.27,2.16,-2.16,-2.21,-1.82,-2.43,-2.43,-2.43
160.03,-0.27,2.18,-0.27,2.18,-2.18,-2.23,-1.84,-2.44,-2.44,-2.45
161.63,-0.28,2.19,-0.28,2.19,-2.19,-2.25,-1.86,-2.46,-2.46,-2.47
163.24,-0.28,2.20,-0.28,2.20,-2.20,-2.27,-1.88,-2.48,-2.48,-2.48
164.88,-0.29,2.20,-0.28,2.21,-2.21,-2.29,-1.90,-2.50,-2.49,-2.49
166.53,-0.29,2.22,-0.29,2.22,-2.22,-2.31,-1.92,-2.51,-2.51,-2.51
168.19,-0.30,2.24,-0.30,2.24,-2.24,-2.32,-1.94,-2.53,-2.53,-2.54
169.87,-0.31,2.25,-0.30,2.25,-2.25,-2.34,-1.97,-2.56,-2.55,-2.56
171.57,-0.31,2.27,-0.31,2.26,-2.27,-2.36,-2.00,-2.57,-2.57,-2.57
173.29,-0.32,2.27,-0.32,2.28,-2.28,-2.38,-2.02,-2.60,-2.60,-2.59
175.02,-0.32,2.30,-0.32,2.30,-2.30,-2.39,-2.06,-2.62,-2.62,-2.62
176.77,-0.34,2.32,-0.33,2.32,-2.32,-2.41,-2.09,-2.65,-2.65,-2.65
178.54,-0.34,2.34,-0.34,2.34,-2.34,-2.42,-2.12,-2.67,-2.67,-2.68
180.32,-0.35,2.36,-0.35,2.35,-2.36,-2.44,-2.16,-2.70,-2.71,-2.70
182.13,-0.36,2.37,-0.36,2.37,-2.37,-2.45,-2.19,-2.73,-2.73,-2.73
183.95,-0.38,2.39,-0.37,2.39,-2.39,-2.47,-2.23,-2.77,-2.76,-2.76
185.79,-0.38,2.41,-0.38,2.41,-2.41,-2.48,-2.27,-2.78,-2.79,-2.79
187.65,-0.39,2.43,-0.39,2.43,-2.42,-2.49,-2.31,-2.81,-2.81,-2.82
189.52,-0.41,2.44,-0.40,2.44,-2.43,-2.50,-2.36,-2.84,-2.83,-2.84
191.42,-0.41,2.46,-0.41,2.45,-2.45,-2.51,-2.40,-2.86,-2.86,-2.86
193.33,-0.43,2.45,-0.43,2.45,-2.46,-2.52,-2.45,-2.89,-2.89,-2.88
195.27,-0.44,2.46,-0.44,2.46,-2.47,-2.53,-2.49,-2.91,-2.91,-2.90
197.22,-0.46,2.46,-0.45,2.48,-2.48,-2.54,-2.54,-2.93,-2.93,-2.92
199.19,-0.46,2.50,-0.46,2.49,-2.49,-2.55,-2.59,-2.94,-2.95,-2.96
201.18,-0.47,2.50,-0.47,2.50,-2.49,-2.55,-2.64,-2.96,-2.96,-2.97
203.19,-0.49,2.49,-0.48,2.50,-2.50,-2.56,-2.69,-2.99,-2.98,-2.98
205.23,-0.50,2.50,-0.50,2.50,-2.50,-2.56,-2.74,-3.00,-3.00,-3.00
207.28,-0.51,2.49,-0.51,2.50,-2.51,-2.57,-2.79,-3.02,-3.02,-3.00
209.35,-0.52,2.51,-0.52,2.51,-2.51,-2.57,-2.83,-3.03,-3.03,-3.03
211.44,-0.53,2.52,-0.53,2.52,-2.51,-2.57,-2.88,-3.04,-3.04,-3.05
213.56,-0.54,2.52,-0.54,2.52,-2.52,-2.58,-2.93,-3.05,-3.05,-3.06
215.69,-0.55,2.51,-0.55,2.51,-2.52,-2.58,-2.98,-3.07,-3.07,-3.06
217.85,-0.56,2.51,-0.55,2.52,-2.52,-2.58,-3.02,-3.08,-3.07,-3.06
220.03,-0.56,2.52,-0.56,2.52,-2.52,-2.58,-3.06,-3.08,-3.08,-3.08
222.23,-0.56,2.53,-0.56,2.52,-2.52,-2.57,-3.10,-3.07,-3.08,-3.09
224.45,-0.57,2.51,-0.57,2.52,-2.51,-2.57,-3.14,-3.08,-3.08,-3.08
226.70,-0.58,2.51,-0.57,2.51,-2.50,-2.57,-3.17,-3.08,-3.08,-3.08
228.96,-0.58,2.50,-0.58,2.49,-2.50,-2.56,-3.20,-3.07,-3.08,-3.08
231.25,-0.59,2.48,-0.59,2.48,-2.49,-2.55,-3.22,-3.08,-3.07,-3.07
233.57,-0.59,2.47,-0.59,2.47,-2.48,-2.55,-3.24,-3.06,-3.06,-3.05
235.90,-0.59,2.46,-0.58,2.46,-2.47,-2.54,-3.26,-3.05,-3.05,-3.05
238.26,-0.58,2.47,-0.58,2.46,-2.45,-2.53,-3.27,-3.03,-3.03,-3.04
240.64,-0.58,2.44,-0.58,2.44,-2.44,-2.52,-3.27,-3.02,-3.02,-3.02
243.05,-0.58,2.43,-0.58,2.43,-2.43,-2.51,-3.27,-3.00,-3.00,-3.00
245.48,-0.58,2.40,-0.57,2.41,-2.41,-2.50,-3.26,-2.99,-2.98,-2.98
247.93,-0.57,2.40,-0.57,2.40,-2.40,-2.48,-3.24,-2.96,-2.96,-2.97
250.41,-0.56,2.39,-0.56,2.38,-2.38,-2.47,-3.22,-2.94,-2.94,-2.95
252.92,-0.56,2.36,-0.56,2.36,-2.36,-2.45,-3.19,-2.92,-2.92,-2.91
255.45,-0.56,2.33,-0.55,2.34,-2.34,-2.43,-3.16,-2.90,-2.90,-2.89
258.00,-0.55,2.32,-0.54,2.32,-2.33,-2.41,-3.12,-2.87,-2.87,-2.86
260.58,-0.53,2.32,-0.53,2.31,-2.31,-2.39,-3.07,-2.84,-2.84,-2.85
263.19,-0.53,2.29,-0.52,2.30,-2.29,-2.37,-3.01,-2.82,-2.82,-2.82
265.82,-0.52,2.28,-0.51,2.28,-2.27,-2.35,-2.95,-2.79,-2.79,-2.79
268.48,-0.51,2.26,-0.51,2.26,-2.26,-2.33,-2.89,-2.76,-2.77,-2.77
271.16,-0.50,2.24,-0.50,2.24,-2.24,-2.30,-2.82,-2.74,-2.74,-2.73
273.87,-0.50,2.22,-0.49,2.22,-2.22,-2.27,-2.74,-2.72,-2.71,-2.72
276.61,-0.49,2.19,-0.49,2.20,-2.20,-2.25,-2.66,-2.69,-2.69,-2.68
279.38,-0.48,2.18,-0.48,2.18,-2.18,-2.22,-2.58,-2.66,-2.66,-2.66
282.17,-0.48,2.16,-0.48,2.16,-2.16,-2.18,-2.49,-2.63,-2.63,-2.63
284.99,-0.48,2.13,-0.47,2.13,-2.13,-2.15,-2.40,-2.61,-2.61,-2.61
287.84,-0.48,2.10,-0.47,2.10,-2.11,-2.12,-2.30,-2.58,-2.58,-2.58
290.72,-0.47,2.08,-0.47,2.08,-2.08,-2.08,-2.20,-2.54,-2.55,-2.54
293.63,-0.48,2.05,-0.47,2.05,-2.04,-2.05,-2.10,-2.52,-2.52,-2.53
296.57,-0.48,2.01,-0.48,2.01,-2.01,-2.01,-2.00,-2.48,-2.48,-2.49
299.53,-0.49,1.97,-0.49,1.97,-1.97,-1.97,-1.89,-2.45,-2.45,-2.46
302.53,-0.50,1.94,-0.50,1.93,-1.92,-1.92,-1.79,-2.42,-2.42,-2.43
305.55,-0.52,1.87,-0.51,1.88,-1.88,-1.88,-1.68,-2.40,-2.39,-2.39
308.61,-0.52,1.84,-0.52,1.84,-1.84,-1.84,-1.57,-2.36,-2.36,-2.36
311.69,-0.53,1.79,-0.53,1.79,-1.80,-1.79,-1.46,-2.33,-2.33,-2.32
314.81,-0.53,1.75,-0.53,1.75,-1.76,-1.74,-1.35,-2.29,-2.29,-2.28
317.96,-0.54,1.72,-0.53,1.72,-1.73,-1.69,-1.24,-2.27,-2.26,-2.25
321.14,-0.53,1.70,-0.53,1.70,-1.70,-1.64,-1.13,-2.23,-2.23,-2.23
324.35,-0.52,1.68,-0.52,1.67,-1.68,-1.58,-1.02,-2.20,-2.20,-2.20
327.59,-0.51,1.65,-0.51,1.65,-1.66,-1.53,-0.90,-2.17,-2.17,-2.16
330.87,-0.50,1.63,-0.49,1.64,-1.65,-1.47,-0.79,-2.14,-2.14,-2.13
334.18,-0.49,1.62,-0.48,1.62,-1.63,-1.41,-0.68,-2.12,-2.11,-2.11
337.52,-0.47,1.62,-0.47,1.61,-1.61,-1.35,-0.56,-2.08,-2.08,-2.08
340.90,-0.48,1.58,-0.48,1.58,-1.58,-1.29,-0.45,-2.05,-2.06,-2.05
344.30,-0.50,1.54,-0.49,1.54,-1.53,-1.22,-0.34,-2.03,-2.03,-2.04
347.75,-0.53,1.48,-0.52,1.49,-1.47,-1.16,-0.22,-2.00,-1.99,-2.01
351.23,-0.56,1.43,-0.56,1.43,-1.39,-1.09,-0.11,-1.95,-1.96,-1.99
354.74,-0.62,1.35,-0.64,1.33,-1.30,-1.02,0.00,-1.92,-1.94,-1.97
358.28,-0.75,1.20,-0.74,1.21,-1.19,-0.95,0.12,-1.94,-1.93,-1.95
361.87,-0.87,1.07,-0.86,1.07,-1.08,-0.87,0.23,-1.94,-1.94,-1.93
365.49,-0.98,0.93,-0.98,0.93,-0.96,-0.80,0.34,-1.93,-1.93,-1.90
369.14,-1.08,0.82,-1.08,0.82,-0.84,-0.72,0.46,-1.92,-1.92,-1.89
372.83,-1.17,0.71,-1.17,0.71,-0.72,-0.64,0.57,-1.89,-1.89,-1.88
376.56,-1.25,0.61,-1.25,0.61,-0.62,-0.56,0.68,-1.86,-1.86,-1.86
380.33,-1.32,0.51,-1.31,0.52,-0.52,-0.47,0.80,-1.84,-1.84,-1.83
384.13,-1.37,0.44,-1.37,0.44,-0.44,-0.39,0.91,-1.81,-1.82,-1.81
387.97,-1.43,0.36,-1.42,0.36,-0.37,-0.30,1.02,-1.80,-1.79,-1.79
391.85,-1.47,0.30,-1.47,0.30,-0.30,-0.21,1.13,-1.77,-1.77,-1.77
395.77,-1.51,0.23,-1.51,0.24,-0.23,-0.12,1.24,-1.74,-1.74,-1.74
399.73,-1.55,0.17,-1.55,0.17,-0.17,-0.02,1.35,-1.72,-1.72,-1.72
403.72,-1.60,0.10,-1.60,0.10,-0.10,0.07,1.46,-1.70,-1.70,-1.70
407.76,-1.65,0.04,-1.65,0.03,-0.02,0.17,1.57,-1.67,-1.67,-1.68
411.84,-1.72,-0.06,-1.71,-0.05,0.06,0.27,1.68,-1.66,-1.65,-1.65
415.96,-1.78,-0.14,-1.78,-0.15,0.15,0.37,1.79,-1.63,-1.63,-1.63
420.12,-1.86,-0.24,-1.86,-0.25,0.25,0.47,1.89,-1.60,-1.60,-1.61
424.32,-1.95,-0.36,-1.95,-0.36,0.37,0.57,2.00,-1.58,-1.58,-1.58
428.56,-2.05,-0.48,-2.05,-0.48,0.49,0.68,2.10,-1.55,-1.56,-1.57
432.85,-2.16,-0.61,-2.16,-0.62,0.62,0.78,2.19,-1.53,-1.53,-1.55
437.18,-2.28,-0.76,-2.28,-0.76,0.76,0.89,2.29,-1.52,-1.52,-1.52
441.55,-2.40,-0.91,-2.40,-0.91,0.90,1.00,2.38,-1.50,-1.50,-1.49
445.96,-2.53,-1.06,-2.52,-1.05,1.04,1.11,2.47,-1.49,-1.48,-1.47
450.42,-2.63,-1.18,-2.63,-1.19,1.18,1.22,2.55,-1.45,-1.45,-1.45
454.93,-2.74,-1.33,-2.74,-1.32,1.32,1.33,2.63,-1.42,-1.42,-1.41
459.48,-2.84,-1.45,-2.84,-1.45,1.46,1.45,2.71,-1.38,-1.38,-1.39
464.07,-2.95,-1.59,-2.95,-1.59,1.60,1.56,2.78,-1.35,-1.35,-1.36
468.71,-3.06,-1.74,-3.06,-1.73,1.73,1.68,2.84,-1.32,-1.32,-1.32
473.40,-3.17,-1.87,-3.17,-1.87,1.87,1.79,2.90,-1.29,-1.30,-1.30
478.13,-3.28,-2.01,-3.28,-2.01,2.01,1.91,2.95,-1.27,-1.27,-1.27
482.91,-3.40,-2.16,-3.39,-2.15,2.15,2.02,3.00,-1.25,-1.24,-1.24
