frequency,raw,error,smoothed,error_smoothed,equalization,equalized_raw,equalized_smoothed,target
20,-8.226165815132452,-9.01205201597832,-8.338666165092267,-9.124537018712015,5.999999999999999,-2.226165815132453,-2.3386661650922678,0.785886200845868
21,-7.774220748238153,-8.560087996846434,-7.727832448057612,-8.51370205091752,6.0,-1.774220748238153,-1.7278324480576117,0.7858672486082812
22,-7.30452155636913,-8.090364013005562,-7.150523688424365,-7.93637845946567,5.999999999999998,-1.3045215563691315,-1.150523688424367,0.7858424566364333
23,-6.593428262788082,-7.379238681489541,-6.6067398861925275,-7.3925662443564715,6.0,-0.5934282627880823,-0.6067398861925275,0.7858104187014585
24,-6.189099712081514,-6.9748691877356475,-6.096481041362091,-6.882265405589908,5.938647825807986,-0.2504518862735283,-0.15783321555410534,0.7857694756541327
25,-5.543855870347601,-6.329573554326267,-5.622126299840864,-6.407856565408513,5.813532488750173,0.2696766184025723,0.19140618890930927,0.7857176839786661
26,-4.982865139063923,-5.768517921113031,-5.180946551382191,-5.966609158999723,5.632201569388705,0.6493364303247819,0.45125501800651424,0.7856527820491079
27,-4.827707949783666,-5.613280103821206,-4.770325191209674,-5.555905012937896,5.400988347029344,0.5732803972456777,0.6306631558196703,0.7855721540375402
28,-4.388491937273957,-5.173964728702668,-4.386533869714221,-5.1720131939897875,5.125458387851676,0.7369664505777189,0.7389245181374555,0.785472791428711
29,-4.1483393482559165,-4.9336906003573695,-4.025183300887699,-4.810540796524311,4.81054079652431,0.6622014482683936,0.7853574956366112,0.7853512521014525
30,-3.7192259381501573,-4.50442955509517,-3.682684871499655,-4.467895128365118,4.467895128365119,0.7486691902149616,0.7852102568654638,0.7852036169450121
31,-3.318516182471215,-4.103541626458034,-3.356233179555413,-4.141266042070207,4.141266042070207,0.8227498595989919,0.785032862514794,0.785025443986819
32,-3.0283989877144393,-3.8132107077330253,-3.0442340111622466,-3.8290540701346814,3.8290540701346805,0.8006550824202412,0.7848200589724339,0.784811720018586
33,-2.8094298928204564,-3.5939867025402377,-2.7462131917687693,-3.5307792749516524,3.530779274951653,0.7213493821311965,0.7845660831828836,0.7845568097197813
34,-2.3628523985136263,-3.14710680080544,-2.462355324303063,-3.2466198830244366,3.2466198830244375,0.8837674845108112,0.7842645587213743,0.7842544022918139
35,-2.2104790846940747,-2.994376540327155,-2.1930466822180055,-2.976955128519376,2.9769551285193767,0.766476043825302,0.7839084463013712,0.7838974556330802
36,-1.9341370620644394,-2.717615200169072,-1.9383742607944383,-2.7218642018615338,2.7218642018615338,0.7877271397970944,0.7834899410670955,0.7834781381046327
37,-1.707142145552388,-2.490129913511452,-1.6978211163375576,-2.480821503983689,2.480821503983689,0.7736793584313011,0.7830003876461316,0.7829877679590638
38,-1.4871227904409077,-2.2695395409725836,-1.4702148406484774,-2.252645050884723,2.2526450508847224,0.7655222604438148,0.782430210236245,0.7824167505316759
39,-1.264792264241816,-2.046546777565274,-1.2538983977329448,-2.0356672396919775,2.035667239691978,0.770874975450162,0.7817688419590332,0.7817545133234582
40,-1.0393377685976357,-1.820327207738072,-1.0470776138533213,-1.8280822767057479,1.8280822767057474,0.7887445081081117,0.7810046628524261,0.7809894391404364
41,-0.8136504784907095,-1.593759275984579,-0.848235742535141,-1.6283606783361486,1.6283606783361484,0.8147101998454389,0.7801249358010074,0.7801087974938694
42,-0.6316975481783931,-1.4107962226895865,-0.6565110253709807,-1.435626764532696,1.4356267645326968,0.8039292163543037,0.7791157391617161,0.7790986745111934
43,-0.5745990627309188,-1.352542964389841,-0.4719450680528684,-1.2499069652480714,1.2499069652480714,0.6753079025171527,0.777961897195203,0.7779439016589222
44,-0.3417465071906241,-1.1183744908270226,-0.29552913775428186,-1.0721760454401235,1.0721760454401232,0.7304295382494992,0.7766469076858413,0.7766279836363985
45,-0.10953310145488254,-0.8846661273187233,-0.12901374974765478,-0.9041666185172433,0.9041666185172434,0.7946335170623609,0.7751528687695887,0.7751330258638407
46,0.12178924958992393,-0.6516504124699192,0.025505870084940804,-0.7479545358495365,0.7479545358495364,0.8697437854394603,0.7734604059344772,0.7734396620598432
47,0.12446788579029805,-0.6470590966925083,0.16615644287289677,-0.6053921569792735,0.6053921569792736,0.7298600427695716,0.7715485998521704,0.7715269824828064
48,0.35460890874942613,-0.41476355474839327,0.29187849826507184,-0.477516417567688,0.4775164175676881,0.8321253263171142,0.76939491583276,0.7693724634978194
49,0.35645324500782555,-0.410498654217686,0.40289017432820323,-0.36408496111491234,0.3640849611149123,0.7205382061227379,0.7669751354431156,0.7669518992255115
50,0.5856633730035508,-0.1785759631286299,0.5008870614869891,-0.2633762295814338,0.2633762295814338,0.8490396025849846,0.764263291068423,0.7642393361321806
51,0.5861178158374116,-0.17508919569349635,0.5889027499732804,-0.17232885439616413,0.17232885439616408,0.7584466702335757,0.7612316043694445,0.761207011530908
52,0.5856129102035685,-0.17221238687729756,0.6708424683296976,-0.08700796138711059,0.08700796138711057,0.6726208715906791,0.7578504297168082,0.7578252970808661
53,0.81227564729049,0.05821299879472108,0.7507879756393476,-0.003300228209415324,0.003300228209415326,0.8155758754999053,0.754088203848763,0.7540626484957689
54,0.8107594944379044,0.06087393163662158,0.8322276363722598,0.08231623326425327,-0.08231623326425325,0.7284432611736511,0.7499114031080065,0.7498855628012828
55,0.8095224554069975,0.06426391079337201,0.9173736611684935,0.17208915143066453,-0.17208915143066453,0.637433303976333,0.745284509737829,0.7452585446136255
56,1.0367785421591342,0.2966344591137642,1.0066945788694333,0.2665245900179404,-0.2665245900179405,0.7702539521411937,0.7401699888514928,0.74014408304537
57,1.036595485905067,0.30209284492792143,1.098736785542413,0.3642085077242302,-0.36420850772423013,0.6723869781808369,0.734528277818183,0.7345026409771456
58,1.2769173869116917,0.5486247283495773,1.1902554143663435,0.4619376244253228,-0.46193762442532293,0.8149797624863687,0.7283177899410206,0.7282926585621143
59,1.2641188146114946,0.5426482416614924,1.2766340655087935,0.5551391310847966,-0.5551391310847965,0.708979683526698,0.721494934423997,0.7214705729500022
60,1.2635004133724985,0.5495095570481334,1.3525467077042315,0.6385325529728694,-0.6385325529728694,0.6249678603996291,0.7140141547313621,0.7139908563243651
61,1.4908719984076386,0.7850659239722848,1.412792589090421,0.7069646015592035,-0.7069646015592035,0.7839073968484351,0.7058279875312174,0.7058060744353538
62,1.4909941168594436,0.7941271489850927,1.4532057535298732,0.7563186090519809,-0.7563186090519809,0.7346755078074627,0.6968871444778924,0.6968669678743509
63,1.4922569001300818,0.8051343417604273,1.47150174672993,0.7843611276131628,-0.7843611276131629,0.7078957725169189,0.6871406191167672,0.6871225583696545
64,1.4946451244741243,0.818124842097854,1.4678924472809431,0.7913566260612133,-0.7913566260612134,0.703288498412911,0.6765358212197298,0.6765202823762704
65,1.4975118914075256,0.8325057372277176,1.4453030190055693,0.7802842783673061,-0.7802842783673061,0.7172276130402195,0.6650187406382633,0.665006154179808
66,1.4997089570708781,0.8471839964450094,1.409081675059758,0.7565475320891767,-0.7565475320891768,0.7431614249817013,0.6525341429705811,0.6525249606258687
67,1.2719950290122541,0.632974539598768,1.366203664736926,0.7271778655103411,-0.727177865510341,0.5448171635019131,0.639025799226585,0.6390204894134861
68,1.2690888637195512,0.6446530710740863,1.3241108860820014,0.6996741354506144,-0.6996741354506144,0.5694147282689368,0.624436750631387,0.6244357926454649
69,1.2624338042476384,0.6537203172458379,1.2894492923763057,0.6807396833957329,-0.6807396833957329,0.5816941208519055,0.6087096089805728,0.6087134870018005
70,1.2520313950039519,0.660235303516512,1.267016493094062,0.6752295990254676,-0.6752295990254676,0.5768017959784842,0.5917868940685943,0.5917960914874398
71,1.2385563700858455,0.6649299668890323,1.25917909759744,0.6855676859904389,-0.685567685990439,0.5529886840954065,0.5736114116070009,0.5736264031968132
72,1.2232879650552975,0.669140054124346,1.265874672321041,0.7117479982318851,-0.7117479982318851,0.5115399668234124,0.554126674089156,0.5541479109309515
73,1.2079172592675478,0.6746120134697822,1.2851277138706378,0.7518503542223257,-0.7518503542223256,0.4560669050452222,0.5332773596483122,0.5333052457977656
74,1.4221244860278697,0.911079818903572,1.313852677443573,0.8028428794289582,-0.8028428794289583,0.6192816065989114,0.5110097980146148,0.5110446671242976
75,1.4114302813409565,0.9241157002229734,1.348652232084547,0.8613797641327043,-0.8613797641327042,0.5500505172082523,0.48727246795184287,0.4873145811179831
76,1.4042413384393029,0.9421752496962654,1.3863710789035784,0.9243545817090614,-0.9243545817090615,0.4798867567302414,0.4620164971945169,0.46206608874303745
77,1.3998716192420382,0.9646180609978359,1.4243079910303877,0.9891118008389115,-0.9891118008389115,0.4107598184031267,0.43519619019147626,0.4352535582442023
78,1.3965150897014684,0.9896798730266609,1.4601548768198598,1.0533852171361584,-1.0533852171361582,0.34312987256531025,0.4067696596837016,0.4068352166748075
79,1.3917148946364946,1.0149411409396651,1.4918445799964184,1.1151449349302682,-1.1151449349302687,0.2765699597062259,0.3766996450661497,0.3767737536968294
80,1.6110674189056613,1.2660304890556702,1.5175010722002729,1.1725465812032896,-1.1725465812032896,0.4385208377023717,0.3449544909969833,0.3450369298499911
81,1.5973748053037857,1.2857766248309037,1.5355965606755868,1.2240875321849005,-1.224087532184901,0.37328727311888477,0.31150902849068585,0.311598180472882
82,1.578713063371888,1.302275857828471,1.5452765983875854,1.2689317125520974,-1.2689317125520971,0.30978135081979086,0.2763448858354882,0.276437205543417
83,1.556753469137007,1.31721293420352,1.5466893488512707,1.3072395929737006,-1.3072395929737006,0.24951387616330645,0.23944975587757011,0.23954053493348715
84,1.5341034621344094,1.3332014041451314,1.5411118242219013,1.3402962094323025,-1.3402962094323023,0.19380725270210708,0.20081561478959897,0.20090205798927796
85,1.5133781608322612,1.3528546548329703,1.5307273824227168,1.3702904790823993,-1.3702904790823995,0.14308768174986164,0.16043690334031724,0.16052350599929088
86,1.496327104308825,1.3779122282706395,1.5180499145432695,1.3997390647457506,-1.3997390647457506,0.09658803956307449,0.11831084979751894,0.11841487603818557
87,1.4833837346307752,1.4087889497192814,1.5051487852426035,1.430706267301483,-1.4307062673014834,0.052677467329291794,0.07444251794112011,0.07459478491149385
88,1.4737712811778023,1.4446805386768335,1.4929358155594086,1.4640800040177755,-1.4640800040177755,0.009691277160026823,0.02885581154163308,0.02909074250096877
89,1.4660075546976206,1.4840682199594504,1.4807831827958995,1.4991749506050005,-1.4991749506050005,-0.03316739590737994,-0.01839176780910101,-0.01806066526182981
90,1.4584849596004088,1.5252986518835585,1.466642055527044,1.5338394240529807,-1.533839424052981,-0.0753544644525721,-0.06719736852593683,-0.0668136922831497
91,1.4498529212354996,1.5669663751559086,1.4476624265011933,1.5650767011436173,-1.5650767011436169,-0.11522377990811727,-0.1174142746424236,-0.11711345392040906
92,1.4391363588935469,1.6080324181422285,1.4211378332932556,1.5900141011701723,-1.590014101170172,-0.1508777422766252,-0.16887626787691645,-0.16889605924868167
93,1.4257186661683419,1.647807522872066,1.3854793050465695,1.6069270946071215,-1.6069270946071215,-0.1812084284387796,-0.221447789560552,-0.22208885670372425
94,1.4093587130509848,1.6859695064666658,1.340903800429724,1.6159945343826345,-1.6159945343826347,-0.20663582133164993,-0.2750907339529107,-0.27661079341568096
95,1.378309676614357,1.7106825626214694,1.2896086318215123,1.6195341856381198,-1.6195341856381198,-0.2412245090237628,-0.3299255538166075,-0.33237288600711246
96,1.1413784247534715,1.5306572227960729,1.2353632251241478,1.6216199340834914,-1.6216199340834911,-0.48024150933001963,-0.3862567089593434,-0.38927879804260135
97,1.119679684433941,1.566905201210018,1.1826271693279686,1.6271634105251698,-1.6271634105251696,-0.5074837260912286,-0.4445362411972009,-0.447225516776077
98,1.0985633076341976,1.60466742707401,1.1354418175345127,1.6406982386022586,-1.6406982386022586,-0.542134930968061,-0.5052564210677459,-0.5061041194398124
99,1.0788982613284863,1.6446988784750578,1.0964023879793676,1.665191441191798,-1.6651914411917976,-0.5862931798633113,-0.56878905321243,-0.5658006171465715
100,1.060751179344816,1.6869480419614087,1.065987514634414,1.7012028354789956,-1.7012028354789959,-0.6404516561341798,-0.6352153208445819,-0.6261968626165926
101,1.043318134101532,1.7304896405661332,1.0424211059563302,1.7466252486532272,-1.7466252486532277,-0.7033071145516956,-0.7042041426968975,-0.6871715064646011
102,1.0252234889561613,1.7738244746999041,1.022101738297714,1.7970922595105423,-1.797092259510542,-0.7718687705543807,-0.7749905212128281,-0.7486009857437428
104,1.0050624793557663,1.8773876323960557,1.000494658256327,1.8469725093189253,-1.846972509318925,-0.8419100299631588,-0.8464778510625981,-0.8723251530402893
105,0.9819616181081643,1.9163322765369846,0.9732707510083212,1.8907187424400518,-1.8907187424400516,-0.9087571243318873,-0.9174479914317304,-0.9343706584288203
106,0.9559374339644182,1.952312002735034,0.9374149916453822,1.9242394584628102,-1.92423945846281,-0.9683020244983918,-0.9868244668174277,-0.9963745687706158
107,0.9279260742006044,1.986143112825591,0.8920263159153323,1.9459386878006932,-1.9459386878006928,-1.0180126136000884,-1.0539123718853605,-1.0582170386249867
108,0.8994886546498657,2.019270348341513,0.8385953398947312,1.9571379868188066,-1.9571379868188064,-1.0576493321689406,-1.1185426469240751,-1.1197816936916474
109,0.8723252569782689,2.0532816571856283,0.7806691666146497,1.961746683091584,-1.961746683091584,-1.089421426113315,-1.1810775164769343,-1.1809564002073594
110,0.6228237040338012,1.864457657634474,0.7229720919746916,1.9652496927982823,-1.9652496927982819,-1.3424259887644807,-1.2422776008235903,-1.2416339536006729
111,0.5988044741681855,1.9005171539374004,0.6702079961797739,1.9732818532634382,-1.9732818532634386,-1.3744773790952531,-1.3030738570836649,-1.301712679769215
112,0.5814077128418571,1.9425046574121114,0.6258748534098231,1.9901893306261145,-1.9901893306261147,-1.4087816177842576,-1.3643144772162916,-1.3610969445702543
113,0.5676630293181257,1.9873605986151417,0.5914310883955571,2.0179906672136347,-2.0179906672136347,-1.450327637895509,-1.4265595788180776,-1.419697569297016
114,0.5575195357911849,2.0349516877734324,0.5660523294020257,2.0560277384100827,-2.0560277384100827,-1.4985082026188978,-1.489975409008057,-1.4774321519822475
115,0.5510066162236089,2.085231912494887,0.5470325430701749,2.101376418219381,-2.1013764182193815,-1.5503698019957726,-1.5543438751492067,-1.5342252962712783
117,0.5481198867361374,2.192841354143871,0.5306768031525114,2.1498430436517006,-2.1498430436516998,-1.6017231569155623,-1.6191662404991884,-1.644721467407734
118,0.5486186474034085,2.2469282212664115,0.5133788176959542,2.1971934308755703,-2.1971934308755694,-1.648574783472161,-1.6838146131796152,-1.698309573863003
119,0.5519188961423978,2.302645181493107,0.49253167389359226,2.2402102727186843,-2.240210272718684,-1.6882913765762861,-1.7476785988250916,-1.750726285350709
120,0.5485137336006563,2.3504454786396423,0.46699960216037084,2.277266449831485,-2.2772664498314845,-1.7287527162308283,-1.8102668476711137,-1.8019317450389858
121,0.33637678948282673,2.188269601575361,0.4370482206488767,2.3082955129892673,-2.3082955129892673,-1.9719187235064406,-1.8712472923403904,-1.8518928120925344
123,0.3423513990159586,2.2903325856508827,0.4038231926602389,2.3342580197752554,-2.3342580197752545,-1.991906620759296,-1.9304348271150156,-1.947981186634924
124,0.34901065698287187,2.3430839224600177,0.36861148635347707,2.3563625857812243,-2.3563625857812243,-2.0073519287983523,-1.9877510994277472,-1.9940732654771458
125,0.3552680583533369,2.394117867961434,0.33216970003911694,2.37535286418737,-2.37535286418737,-2.020084805834033,-2.043183164148253,-2.038849809608097
126,0.3608337669538844,2.443140458355764,0.29435165018870735,2.39110952046759,-2.39110952046759,-2.0302757535137057,-2.096757870278883,-2.0823066914018797
128,0.25303933920137295,2.4183075086039696,0.2541415265861984,2.402675499396895,-2.402675499396895,-2.149636160195522,-2.1485339728106965,-2.1652681694025966
129,0.1408561784441874,2.34564274311899,0.21004899170524835,2.408650928503544,-2.408650928503545,-2.2677947500593576,-2.1986019367982967,-2.204786564674803
130,0.14295233582377792,2.3859644657553303,0.1607011637241556,2.4077789727504495,-2.40777897275045,-2.264826636926672,-2.2470778090262944,-2.2430121299315524
131,0.14395185713885583,2.423912359878262,0.10541104491633028,2.3994943334626258,-2.3994943334626258,-2.25554247632377,-2.2940832885462954,-2.279960502739406
133,0.1441783875305067,2.4942804490261654,0.0445248440201432,2.3842397697216002,-2.384239769721601,-2.2400613821910946,-2.339714925701458,-2.3501020614956585
134,-0.034874398534307544,2.348464947074082,-0.02056055630014403,2.363453922572625,-2.363453922572625,-2.398328321106933,-2.384014478872769,-2.38333934560839
135,-0.08445234659713599,2.3309346493098175,-0.08769647897772528,2.3392581108737645,-2.3392581108737653,-2.4237104574709014,-2.4269545898514906,-2.4153869959069536
137,-0.16318642999419652,2.312834458659858,-0.1544728493997406,2.31397522718375,-2.3139752271837497,-2.4771616571779465,-2.46844807658349,-2.476020888654055
138,-0.3141622202754459,2.1905016405680136,-0.21871528193764145,2.2896634012216914,-2.289663401221692,-2.603825621497138,-2.508378683159333,-2.5046638608434595
140,-0.3154689054493914,2.2432812331459453,-0.2788181629342945,2.267823089343705,-2.267823089343705,-2.5832919947930963,-2.5466412522779995,-2.558750138595337
141,-0.31676692745335755,2.267487526567795,-0.3338235266328521,2.2493515410447924,-2.249351541044792,-2.5661184684981495,-2.583175067677644,-2.5842544540211527
142,-0.317639189642992,2.291134880929129,-0.38326767253846283,2.2347100399606306,-2.2347100399606306,-2.5523492296036228,-2.6179777124990933,-2.6087740705721214
144,-0.34019818539114993,2.3147850792361115,-0.4269133914317058,2.224182746562719,-2.224182746562719,-2.564380931953869,-2.6510961379944247,-2.6549832646272615
145,-0.5217865213511124,2.1549480856713243,-0.4645231472295934,2.2180787081193145,-2.2180787081193145,-2.7398652294704267,-2.682601855348908,-2.6767346070224365
147,-0.5442052461911879,2.173477974618863,-0.49579213094804503,2.2167712091085994,-2.2167712091085985,-2.7609764552997866,-2.7125633400566436,-2.7176832208100508
148,-0.5438340359099371,2.1931062475433625,-0.5204692023448942,2.2205592246105663,-2.220559224610566,-2.764393260520503,-2.7410284269554603,-2.7369402834532996
150,-0.5445669123901469,2.2285986250356355,-0.5385929301506487,2.2294305866877684,-2.229430586687769,-2.7739974990779155,-2.7680235168384177,-2.773165537425782
151,-0.5465563359308139,2.243633849717626,-0.5507079866057542,2.2428597890621083,-2.2428597890621083,-2.789416124992922,-2.7935677756678623,-2.79019018564844
153,-0.5494438257015273,2.2727558388846645,-0.5579317152520843,2.259761795520363,-2.259761795520363,-2.8092056212218903,-2.8176935107724472,-2.8221996645861918
154,-0.5526500324923769,2.2845867850858124,-0.5618085973650357,2.2786531067770106,-2.27865310677701,-2.8313031392693873,-2.840461704142046,-2.837236817578189
156,-0.5558177746708397,2.309683397254421,-0.5639896164819294,2.2979751814113323,-2.297975181411333,-2.853792956082173,-2.8619647978932625,-2.8655011719252608
157,-0.5591103669295209,2.319665810064621,-0.565858086469814,2.3164571681321124,-2.316457168132112,-2.875567535061633,-2.882315254601926,-2.878776176994142
