frequency,raw,error,smoothed,error_smoothed,equalization,parametric_eq,fixed_band_eq,equalized_raw,equalized_smoothed,target
20.00,-0.36,-0.69,-0.34,-0.70,0.70,0.09,-0.02,0.33,0.36,0.33
20.20,-0.32,-0.70,-0.31,-0.70,0.70,0.10,-0.02,0.38,0.39,0.38
20.40,-0.28,-0.71,-0.27,-0.70,0.70,0.10,-0.02,0.42,0.43,0.43
20.61,-0.24,-0.70,-0.24,-0.70,0.70,0.10,-0.02,0.46,0.46,0.45
20.81,-0.21,-0.72,-0.21,-0.70,0.70,0.10,-0.02,0.49,0.49,0.51
21.02,-0.17,-0.72,-0.18,-0.70,0.70,0.10,-0.02,0.52,0.52,0.54
21.23,-0.13,-0.70,-0.15,-0.69,0.69,0.11,-0.03,0.56,0.54,0.56
21.44,-0.09,-0.68,-0.12,-0.68,0.68,0.11,-0.03,0.59,0.57,0.58
21.66,-0.05,-0.66,-0.08,-0.67,0.67,0.11,-0.03,0.62,0.59,0.60
21.87,-0.01,-0.63,-0.05,-0.66,0.66,0.11,-0.03,0.65,0.60,0.61
22.09,0.01,-0.62,-0.03,-0.64,0.64,0.12,-0.03,0.65,0.62,0.63
22.31,0.02,-0.62,0.00,-0.63,0.63,0.12,-0.03,0.65,0.63,0.64
22.54,0.02,-0.62,0.03,-0.61,0.61,0.12,-0.03,0.63,0.64,0.64
22.76,0.03,-0.61,0.06,-0.59,0.59,0.12,-0.03,0.61,0.64,0.64
22.99,0.03,-0.60,0.08,-0.56,0.56,0.13,-0.03,0.59,0.65,0.63
23.22,0.07,-0.56,0.11,-0.54,0.54,0.13,-0.03,0.61,0.65,0.63
23.45,0.12,-0.51,0.14,-0.51,0.51,0.13,-0.04,0.63,0.65,0.63
23.69,0.16,-0.48,0.16,-0.49,0.49,0.13,-0.04,0.64,0.65,0.64
23.92,0.21,-0.43,0.19,-0.46,0.46,0.14,-0.04,0.67,0.65,0.64
24.16,0.24,-0.41,0.22,-0.43,0.43,0.14,-0.04,0.67,0.65,0.65
24.40,0.26,-0.40,0.25,-0.40,0.40,0.14,-0.04,0.66,0.65,0.66
24.65,0.29,-0.36,0.27,-0.37,0.37,0.15,-0.04,0.66,0.65,0.65
24.89,0.31,-0.34,0.30,-0.35,0.35,0.15,-0.04,0.66,0.65,0.65
25.14,0.33,-0.32,0.33,-0.32,0.32,0.15,-0.04,0.65,0.65,0.65
25.39,0.36,-0.30,0.35,-0.30,0.30,0.16,-0.04,0.66,0.65,0.66
25.65,0.38,-0.28,0.37,-0.28,0.28,0.16,-0.04,0.66,0.65,0.66
25.91,0.40,-0.25,0.39,-0.27,0.27,0.16,-0.04,0.67,0.65,0.65
26.16,0.41,-0.24,0.40,-0.25,0.25,0.17,-0.04,0.66,0.65,0.65
26.43,0.41,-0.24,0.41,-0.24,0.24,0.17,-0.04,0.65,0.65,0.65
26.69,0.41,-0.24,0.42,-0.23,0.23,0.17,-0.04,0.63,0.65,0.64
26.96,0.41,-0.25,0.44,-0.21,0.21,0.18,-0.04,0.62,0.65,0.65
27.23,0.43,-0.23,0.45,-0.20,0.20,0.18,-0.03,0.63,0.64,0.65
27.50,0.46,-0.19,0.46,-0.18,0.18,0.19,-0.03,0.64,0.64,0.65
27.77,0.49,-0.15,0.48,-0.17,0.17,0.19,-0.03,0.66,0.64,0.64
28.05,0.51,-0.13,0.49,-0.15,0.15,0.19,-0.02,0.66,0.64,0.64
28.33,0.51,-0.12,0.50,-0.14,0.14,0.20,-0.02,0.65,0.64,0.63
28.62,0.51,-0.12,0.52,-0.12,0.12,0.20,-0.02,0.63,0.64,0.63
28.90,0.51,-0.13,0.53,-0.11,0.11,0.21,-0.01,0.62,0.64,0.64
29.19,0.53,-0.10,0.55,-0.09,0.09,0.21,-0.00,0.62,0.64,0.63
29.48,0.56,-0.09,0.56,-0.07,0.07,0.22,0.00,0.63,0.64,0.65
29.78,0.59,-0.05,0.57,-0.06,0.06,0.22,0.01,0.65,0.64,0.64
30.08,0.61,-0.04,0.58,-0.05,0.05,0.23,0.02,0.66,0.63,0.64
30.38,0.61,-0.03,0.59,-0.04,0.04,0.23,0.03,0.65,0.63,0.63
30.68,0.61,-0.02,0.60,-0.04,0.04,0.24,0.04,0.64,0.63,0.63
30.99,0.61,-0.02,0.60,-0.03,0.03,0.24,0.05,0.64,0.63,0.63
31.30,0.61,-0.02,0.61,-0.02,0.02,0.25,0.06,0.63,0.63,0.63
31.61,0.61,-0.02,0.61,-0.02,0.02,0.26,0.07,0.63,0.63,0.63
31.93,0.61,-0.02,0.61,-0.01,0.01,0.26,0.09,0.62,0.63,0.63
32.24,0.61,-0.01,0.62,-0.01,0.01,0.27,0.10,0.62,0.62,0.62
32.57,0.61,-0.02,0.61,-0.01,0.01,0.27,0.12,0.61,0.62,0.62
32.89,0.61,-0.02,0.61,-0.00,0.00,0.28,0.13,0.61,0.62,0.62
33.22,0.61,-0.00,0.61,-0.00,0.00,0.29,0.15,0.61,0.61,0.61
33.55,0.61,-0.00,0.61,0.00,-0.00,0.29,0.17,0.61,0.61,0.61
33.89,0.61,0.01,0.61,0.01,-0.01,0.30,0.19,0.60,0.61,0.60
34.23,0.61,0.00,0.62,0.01,-0.01,0.31,0.21,0.59,0.60,0.61
34.57,0.61,0.01,0.62,0.02,-0.02,0.32,0.23,0.59,0.60,0.60
34.92,0.61,0.01,0.61,0.02,-0.02,0.32,0.25,0.59,0.60,0.59
35.27,0.61,0.02,0.61,0.02,-0.02,0.33,0.27,0.59,0.59,0.59
35.62,0.61,0.02,0.61,0.02,-0.02,0.34,0.29,0.59,0.59,0.59
35.97,0.61,0.02,0.60,0.01,-0.01,0.35,0.32,0.60,0.59,0.59
36.33,0.61,0.01,0.60,0.01,-0.01,0.36,0.34,0.60,0.59,0.60
36.70,0.61,0.03,0.58,-0.01,0.01,0.37,0.37,0.61,0.59,0.58
37.06,0.60,0.02,0.57,-0.02,0.02,0.38,0.39,0.62,0.59,0.58
37.43,0.57,-0.03,0.56,-0.04,0.04,0.38,0.42,0.60,0.59,0.60
37.81,0.53,-0.07,0.54,-0.05,0.05,0.39,0.45,0.58,0.60,0.60
38.19,0.51,-0.08,0.53,-0.07,0.07,0.40,0.47,0.58,0.60,0.59
38.57,0.51,-0.09,0.51,-0.09,0.09,0.41,0.50,0.60,0.60,0.60
38.95,0.51,-0.10,0.50,-0.10,0.10,0.42,0.53,0.61,0.60,0.61
39.34,0.48,-0.13,0.48,-0.12,0.12,0.44,0.56,0.60,0.60,0.60
39.74,0.44,-0.16,0.47,-0.14,0.14,0.45,0.59,0.58,0.60,0.60
40.14,0.41,-0.20,0.45,-0.16,0.16,0.46,0.62,0.57,0.61,0.61
40.54,0.41,-0.20,0.43,-0.18,0.18,0.47,0.65,0.58,0.60,0.60
40.94,0.41,-0.19,0.41,-0.19,0.19,0.48,0.68,0.60,0.60,0.60
41.35,0.41,-0.19,0.40,-0.20,0.20,0.49,0.72,0.61,0.60,0.60
41.76,0.41,-0.19,0.38,-0.21,0.21,0.51,0.75,0.62,0.59,0.59
42.18,0.40,-0.20,0.36,-0.23,0.23,0.52,0.78,0.63,0.59,0.60
42.60,0.37,-0.22,0.34,-0.24,0.24,0.53,0.82,0.61,0.58,0.59
43.03,0.34,-0.24,0.32,-0.25,0.25,0.55,0.85,0.59,0.57,0.58
43.46,0.28,-0.30,0.30,-0.27,0.27,0.56,0.89,0.55,0.56,0.58
43.90,0.23,-0.32,0.27,-0.29,0.29,0.58,0.93,0.51,0.55,0.55
44.33,0.22,-0.32,0.24,-0.30,0.30,0.59,0.97,0.52,0.54,0.54
44.78,0.22,-0.30,0.21,-0.32,0.32,0.61,1.00,0.54,0.53,0.52
45.23,0.20,-0.32,0.18,-0.34,0.34,0.62,1.04,0.54,0.52,0.52
45.68,0.15,-0.35,0.15,-0.37,0.37,0.64,1.08,0.51,0.51,0.50
46.13,0.11,-0.38,0.11,-0.39,0.39,0.66,1.12,0.50,0.50,0.49
46.60,0.08,-0.41,0.07,-0.42,0.42,0.68,1.16,0.50,0.49,0.49
47.06,0.04,-0.44,0.04,-0.44,0.44,0.70,1.21,0.48,0.48,0.48
47.53,-0.01,-0.48,-0.00,-0.47,0.47,0.71,1.25,0.45,0.47,0.47
48.01,-0.07,-0.54,-0.04,-0.49,0.49,0.73,1.29,0.42,0.46,0.47
48.49,-0.07,-0.53,-0.07,-0.52,0.52,0.76,1.34,0.45,0.45,0.46
48.97,-0.07,-0.51,-0.12,-0.56,0.56,0.78,1.38,0.48,0.44,0.44
49.46,-0.16,-0.58,-0.17,-0.60,0.60,0.80,1.42,0.44,0.43,0.42
49.96,-0.25,-0.66,-0.22,-0.64,0.64,0.82,1.47,0.39,0.42,0.41
50.46,-0.28,-0.69,-0.27,-0.68,0.68,0.84,1.51,0.40,0.41,0.41
50.96,-0.30,-0.70,-0.33,-0.73,0.73,0.87,1.56,0.43,0.40,0.40
51.47,-0.36,-0.74,-0.38,-0.77,0.77,0.89,1.60,0.41,0.39,0.38
51.99,-0.42,-0.79,-0.43,-0.82,0.82,0.92,1.65,0.40,0.38,0.37
52.51,-0.48,-0.86,-0.49,-0.86,0.86,0.94,1.70,0.38,0.38,0.37
53.03,-0.55,-0.93,-0.54,-0.91,0.91,0.97,1.74,0.36,0.37,0.38
53.56,-0.64,-1.01,-0.60,-0.96,0.96,1.00,1.78,0.32,0.36,0.37
54.10,-0.71,-1.07,-0.66,-1.02,1.02,1.03,1.83,0.31,0.36,0.36
54.64,-0.73,-1.08,-0.72,-1.07,1.07,1.06,1.87,0.34,0.35,0.35
55.18,-0.77,-1.12,-0.78,-1.12,1.12,1.09,1.91,0.35,0.35,0.35
55.74,-0.84,-1.18,-0.83,-1.17,1.17,1.12,1.95,0.33,0.34,0.33
56.29,-0.89,-1.23,-0.90,-1.23,1.23,1.15,1.99,0.34,0.33,0.33
56.86,-0.92,-1.24,-0.96,-1.28,1.28,1.19,2.03,0.36,0.32,0.32
57.42,-1.00,-1.30,-1.03,-1.34,1.34,1.22,2.06,0.34,0.31,0.30
58.00,-1.10,-1.40,-1.10,-1.40,1.40,1.26,2.10,0.30,0.30,0.30
58.58,-1.16,-1.46,-1.17,-1.45,1.45,1.30,2.13,0.29,0.29,0.29
59.16,-1.22,-1.50,-1.24,-1.51,1.51,1.34,2.16,0.29,0.27,0.28
59.76,-1.31,-1.58,-1.31,-1.56,1.56,1.38,2.18,0.25,0.25,0.27
60.35,-1.39,-1.63,-1.39,-1.62,1.62,1.42,2.21,0.22,0.22,0.23
60.96,-1.45,-1.66,-1.48,-1.68,1.68,1.46,2.23,0.22,0.20,0.21
61.57,-1.57,-1.75,-1.57,-1.74,1.74,1.51,2.25,0.17,0.17,0.17
62.18,-1.68,-1.82,-1.65,-1.80,1.80,1.55,2.27,0.11,0.14,0.14
62.80,-1.76,-1.87,-1.74,-1.85,1.85,1.60,2.28,0.09,0.11,0.10
63.43,-1.85,-1.92,-1.83,-1.91,1.91,1.65,2.29,0.05,0.07,0.07
64.07,-1.94,-1.97,-1.92,-1.95,1.95,1.70,2.30,0.01,0.04,0.03
64.71,-1.98,-1.97,-2.00,-2.00,2.00,1.75,2.30,0.02,0.00,-0.01
65.35,-2.05,-2.02,-2.09,-2.05,2.05,1.80,2.31,0.00,-0.04,-0.04
66.01,-2.14,-2.07,-2.17,-2.10,2.10,1.86,2.31,-0.04,-0.07,-0.07
66.67,-2.30,-2.19,-2.26,-2.15,2.15,1.91,2.31,-0.15,-0.11,-0.11
67.33,-2.41,-2.26,-2.35,-2.20,2.20,1.97,2.30,-0.21,-0.15,-0.15
68.01,-2.46,-2.28,-2.44,-2.25,2.25,2.03,2.30,-0.21,-0.19,-0.18
68.69,-2.50,-2.28,-2.53,-2.30,2.30,2.09,2.29,-0.20,-0.23,-0.22
69.37,-2.57,-2.31,-2.61,-2.35,2.35,2.15,2.28,-0.22,-0.27,-0.27
70.07,-2.66,-2.35,-2.70,-2.40,2.40,2.22,2.27,-0.27,-0.31,-0.31
70.77,-2.80,-2.46,-2.79,-2.44,2.44,2.28,2.26,-0.36,-0.35,-0.34
71.48,-2.90,-2.52,-2.89,-2.49,2.49,2.35,2.25,-0.41,-0.39,-0.38
72.19,-2.99,-2.56,-2.98,-2.55,2.55,2.42,2.24,-0.45,-0.44,-0.44
72.91,-3.09,-2.61,-3.08,-2.60,2.60,2.49,2.22,-0.49,-0.48,-0.48
73.64,-3.20,-2.68,-3.18,-2.66,2.66,2.56,2.21,-0.55,-0.52,-0.53
74.38,-3.29,-2.72,-3.28,-2.71,2.71,2.64,2.20,-0.58,-0.57,-0.57
75.12,-3.36,-2.75,-3.38,-2.77,2.77,2.71,2.19,-0.59,-0.61,-0.62
75.87,-3.43,-2.77,-3.49,-2.84,2.84,2.79,2.18,-0.60,-0.65,-0.66
76.63,-3.55,-2.85,-3.59,-2.90,2.90,2.86,2.16,-0.65,-0.69,-0.70
77.40,-3.68,-2.94,-3.69,-2.96,2.96,2.94,2.15,-0.72,-0.73,-0.74
78.17,-3.81,-3.03,-3.79,-3.01,3.01,3.02,2.14,-0.80,-0.77,-0.79
78.95,-3.92,-3.12,-3.88,-3.07,3.07,3.09,2.13,-0.85,-0.81,-0.81
79.74,-4.05,-3.21,-3.99,-3.15,3.15,3.17,2.13,-0.91,-0.84,-0.84
80.54,-4.11,-3.24,-4.09,-3.21,3.21,3.25,2.12,-0.90,-0.88,-0.87
81.35,-4.17,-3.26,-4.19,-3.28,3.28,3.32,2.12,-0.90,-0.91,-0.92
82.16,-4.27,-3.32,-4.29,-3.34,3.34,3.40,2.11,-0.93,-0.94,-0.95
82.98,-4.36,-3.39,-4.39,-3.41,3.41,3.47,2.11,-0.95,-0.98,-0.97
83.81,-4.45,-3.44,-4.48,-3.47,3.47,3.55,2.11,-0.98,-1.01,-1.01
84.65,-4.52,-3.48,-4.57,-3.53,3.53,3.62,2.11,-0.99,-1.04,-1.04
85.50,-4.62,-3.55,-4.65,-3.58,3.58,3.68,2.11,-1.04,-1.07,-1.07
86.35,-4.78,-3.68,-4.73,-3.62,3.62,3.75,2.12,-1.16,-1.11,-1.10
87.22,-4.91,-3.78,-4.80,-3.66,3.66,3.81,2.13,-1.25,-1.14,-1.14
88.09,-4.93,-3.76,-4.88,-3.71,3.71,3.87,2.13,-1.22,-1.17,-1.17
88.97,-4.90,-3.70,-4.97,-3.76,3.76,3.92,2.14,-1.14,-1.21,-1.21
89.86,-5.02,-3.78,-5.05,-3.81,3.81,3.97,2.15,-1.21,-1.24,-1.24
90.76,-5.16,-3.88,-5.13,-3.85,3.85,4.01,2.17,-1.31,-1.27,-1.28
91.66,-5.16,-3.86,-5.20,-3.89,3.89,4.04,2.18,-1.27,-1.31,-1.30
92.58,-5.21,-3.86,-5.26,-3.92,3.92,4.07,2.20,-1.29,-1.34,-1.35
93.51,-5.29,-3.91,-5.32,-3.95,3.95,4.10,2.22,-1.34,-1.37,-1.38
94.44,-5.34,-3.94,-5.39,-3.98,3.98,4.11,2.24,-1.36,-1.41,-1.41
95.39,-5.42,-3.99,-5.45,-4.01,4.01,4.12,2.26,-1.41,-1.44,-1.43
96.34,-5.55,-4.08,-5.49,-4.02,4.02,4.12,2.28,-1.53,-1.47,-1.47
97.30,-5.63,-4.13,-5.54,-4.04,4.04,4.11,2.30,-1.59,-1.50,-1.50
98.28,-5.60,-4.07,-5.58,-4.05,4.05,4.10,2.33,-1.55,-1.53,-1.53
99.26,-5.59,-4.03,-5.60,-4.05,4.05,4.08,2.36,-1.55,-1.56,-1.56
100.25,-5.61,-4.02,-5.62,-4.04,4.04,4.04,2.38,-1.58,-1.59,-1.59
101.25,-5.63,-4.02,-5.64,-4.02,4.02,4.01,2.41,-1.61,-1.62,-1.62
102.27,-5.65,-4.01,-5.65,-4.00,4.00,3.96,2.44,-1.65,-1.65,-1.65
103.29,-5.70,-4.02,-5.64,-3.96,3.96,3.91,2.46,-1.74,-1.68,-1.68
104.32,-5.71,-4.01,-5.63,-3.92,3.92,3.85,2.49,-1.79,-1.71,-1.70
105.37,-5.57,-3.84,-5.62,-3.88,3.88,3.78,2.52,-1.69,-1.74,-1.73
106.42,-5.47,-3.71,-5.60,-3.83,3.83,3.71,2.55,-1.65,-1.77,-1.76
107.48,-5.53,-3.73,-5.56,-3.76,3.76,3.63,2.57,-1.77,-1.81,-1.80
108.56,-5.49,-3.65,-5.53,-3.69,3.69,3.55,2.60,-1.80,-1.84,-1.84
109.64,-5.50,-3.63,-5.49,-3.62,3.62,3.46,2.62,-1.88,-1.87,-1.87
110.74,-5.52,-3.61,-5.44,-3.53,3.53,3.37,2.64,-1.99,-1.91,-1.91
111.85,-5.37,-3.44,-5.38,-3.44,3.44,3.27,2.66,-1.93,-1.94,-1.93
112.97,-5.24,-3.26,-5.31,-3.34,3.34,3.17,2.67,-1.90,-1.97,-1.98
114.10,-5.32,-3.31,-5.24,-3.24,3.24,3.07,2.69,-2.08,-2.00,-2.01
115.24,-5.30,-3.27,-5.16,-3.13,3.13,2.97,2.69,-2.17,-2.03,-2.03
116.39,-5.10,-3.03,-5.07,-3.01,3.01,2.86,2.70,-2.09,-2.06,-2.07
117.55,-4.89,-2.80,-4.97,-2.89,2.89,2.76,2.70,-2.00,-2.08,-2.09
118.73,-4.82,-2.70,-4.86,-2.76,2.76,2.65,2.70,-2.07,-2.11,-2.12
119.92,-4.77,-2.65,-4.73,-2.61,2.61,2.54,2.69,-2.16,-2.13,-2.12
121.12,-4.58,-2.43,-4.59,-2.45,2.45,2.43,2.68,-2.13,-2.15,-2.15
122.33,-4.47,-2.30,-4.45,-2.29,2.29,2.32,2.66,-2.18,-2.16,-2.17
123.55,-4.38,-2.21,-4.31,-2.13,2.13,2.21,2.64,-2.25,-2.18,-2.17
124.79,-4.24,-2.05,-4.18,-1.98,1.98,2.10,2.61,-2.26,-2.19,-2.19
126.03,-4.05,-1.85,-4.04,-1.84,1.84,1.99,2.58,-2.21,-2.21,-2.20
127.29,-3.86,-1.65,-3.90,-1.68,1.68,1.88,2.54,-2.18,-2.22,-2.21
128.57,-3.66,-1.43,-3.77,-1.53,1.53,1.77,2.49,-2.13,-2.23,-2.23
129.85,-3.62,-1.38,-3.65,-1.40,1.40,1.66,2.44,-2.22,-2.25,-2.25
131.15,-3.52,-1.26,-3.54,-1.28,1.28,1.55,2.39,-2.24,-2.26,-2.26
132.46,-3.35,-1.08,-3.44,-1.17,1.17,1.44,2.33,-2.18,-2.27,-2.27
133.79,-3.26,-0.98,-3.33,-1.05,1.05,1.33,2.26,-2.21,-2.28,-2.28
135.12,-3.30,-1.00,-3.25,-0.95,0.95,1.23,2.19,-2.35,-2.29,-2.31
136.48,-3.20,-0.90,-3.17,-0.87,0.87,1.12,2.12,-2.34,-2.31,-2.31
137.84,-3.14,-0.82,-3.10,-0.79,0.79,1.02,2.04,-2.36,-2.32,-2.33
139.22,-3.05,-0.71,-3.04,-0.70,0.70,0.92,1.96,-2.35,-2.33,-2.35
140.61,-2.90,-0.54,-2.97,-0.62,0.62,0.81,1.87,-2.28,-2.35,-2.37
142.02,-2.88,-0.52,-2.91,-0.54,0.54,0.71,1.78,-2.34,-2.37,-2.36
143.44,-3.00,-0.62,-2.85,-0.47,0.47,0.61,1.69,-2.54,-2.39,-2.38
144.87,-2.94,-0.53,-2.80,-0.39,0.39,0.51,1.59,-2.56,-2.41,-2.41
146.32,-2.75,-0.32,-2.77,-0.32,0.32,0.41,1.50,-2.43,-2.44,-2.44
147.78,-2.66,-0.21,-2.75,-0.27,0.27,0.31,1.40,-2.39,-2.48,-2.45
149.26,-2.78,-0.29,-2.74,-0.22,0.22,0.21,1.30,-2.56,-2.52,-2.49
150.75,-2.69,-0.15,-2.72,-0.16,0.16,0.11,1.19,-2.53,-2.56,-2.54
152.26,-2.53,0.07,-2.73,-0.11,0.11,0.02,1.09,-2.42,-2.62,-2.60
153.78,-2.49,0.16,-2.74,-0.07,0.07,-0.08,0.98,-2.42,-2.67,-2.65
155.32,-2.66,0.05,-2.76,-0.03,0.03,-0.18,0.88,-2.63,-2.73,-2.71
156.88,-2.77,0.01,-2.78,0.01,-0.01,-0.27,0.77,-2.78,-2.79,-2.78
158.44,-2.79,0.06,-2.79,0.06,-0.06,-0.37,0.66,-2.85,-2.84,-2.85
160.03,-2.92,-0.00,-2.79,0.11,-0.11,-0.47,0.55,-3.04,-2.90,-2.92
161.63,-2.97,0.01,-2.79,0.17,-0.17,-0.56,0.44,-3.14,-2.96,-2.98
163.24,-2.88,0.15,-2.77,0.24,-0.24,-0.66,0.33,-3.12,-3.01,-3.03
164.88,-2.70,0.37,-2.72,0.34,-0.34,-0.76,0.21,-3.04,-3.05,-3.07
166.53,-2.71,0.40,-2.65,0.44,-0.44,-0.85,0.10,-3.15,-3.09,-3.11
168.19,-2.67,0.47,-2.57,0.55,-0.55,-0.95,-0.01,-3.22,-3.12,-3.14
169.87,-2.55,0.62,-2.47,0.68,-0.68,-1.04,-0.13,-3.23,-3.14,-3.17
171.57,-2.41,0.76,-2.33,0.83,-0.83,-1.14,-0.24,-3.24,-3.16,-3.17
173.29,-2.24,0.94,-2.17,1.00,-1.00,-1.24,-0.36,-3.24,-3.17,-3.18
175.02,-2.00,1.18,-2.00,1.18,-1.18,-1.33,-0.47,-3.18,-3.18,-3.18
176.77,-1.73,1.45,-1.83,1.35,-1.35,-1.43,-0.59,-3.08,-3.18,-3.18
178.54,-1.55,1.63,-1.66,1.52,-1.52,-1.53,-0.70,-3.07,-3.18,-3.18
180.32,-1.40,1.76,-1.49,1.68,-1.68,-1.62,-0.82,-3.08,-3.17,-3.17
182.13,-1.29,1.86,-1.35,1.83,-1.83,-1.72,-0.94,-3.12,-3.17,-3.15
183.95,-1.19,1.96,-1.20,1.97,-1.97,-1.81,-1.05,-3.16,-3.17,-3.15
185.79,-1.01,2.14,-1.05,2.12,-2.12,-1.91,-1.17,-3.14,-3.17,-3.15
187.65,-0.90,2.26,-0.92,2.25,-2.25,-2.01,-1.29,-3.16,-3.17,-3.16
189.52,-0.76,2.40,-0.81,2.36,-2.36,-2.10,-1.41,-3.13,-3.17,-3.16
191.42,-0.71,2.46,-0.72,2.46,-2.46,-2.19,-1.53,-3.17,-3.18,-3.18
193.33,-0.64,2.55,-0.64,2.55,-2.55,-2.29,-1.64,-3.19,-3.19,-3.19
195.27,-0.58,2.62,-0.56,2.64,-2.64,-2.38,-1.76,-3.22,-3.20,-3.20
197.22,-0.49,2.72,-0.50,2.71,-2.71,-2.47,-1.88,-3.20,-3.21,-3.21
199.19,-0.46,2.77,-0.44,2.78,-2.78,-2.56,-2.00,-3.24,-3.22,-3.23
201.18,-0.45,2.79,-0.39,2.85,-2.85,-2.64,-2.12,-3.30,-3.24,-3.24
203.19,-0.23,3.02,-0.34,2.92,-2.92,-2.73,-2.24,-3.15,-3.26,-3.25
205.23,-0.26,3.01,-0.29,2.98,-2.98,-2.81,-2.35,-3.24,-3.27,-3.27
207.28,-0.39,2.88,-0.25,3.04,-3.04,-2.89,-2.47,-3.43,-3.29,-3.27
209.35,-0.23,3.06,-0.21,3.09,-3.09,-2.97,-2.58,-3.32,-3.30,-3.29
211.44,-0.15,3.17,-0.18,3.13,-3.13,-3.04,-2.69,-3.28,-3.31,-3.32
213.56,-0.07,3.25,-0.15,3.17,-3.17,-3.11,-2.81,-3.24,-3.32,-3.32
215.69,-0.08,3.25,-0.12,3.21,-3.21,-3.17,-2.91,-3.29,-3.33,-3.33
217.85,-0.19,3.14,-0.08,3.26,-3.26,-3.24,-3.02,-3.45,-3.34,-3.34
220.03,-0.04,3.30,-0.04,3.30,-3.30,-3.29,-3.12,-3.34,-3.34,-3.34
222.23,0.02,3.38,-0.02,3.32,-3.32,-3.34,-3.22,-3.31,-3.34,-3.36
224.45,0.02,3.37,0.00,3.34,-3.34,-3.39,-3.32,-3.33,-3.34,-3.35
226.70,0.02,3.36,0.02,3.36,-3.36,-3.43,-3.41,-3.34,-3.34,-3.34
228.96,0.03,3.36,0.05,3.38,-3.38,-3.47,-3.49,-3.35,-3.33,-3.33
231.25,0.03,3.35,0.08,3.40,-3.40,-3.50,-3.57,-3.37,-3.32,-3.32
233.57,0.05,3.35,0.10,3.41,-3.41,-3.52,-3.65,-3.36,-3.30,-3.30
235.90,0.25,3.54,0.13,3.42,-3.42,-3.54,-3.72,-3.17,-3.29,-3.29
238.26,0.26,3.53,0.16,3.43,-3.43,-3.55,-3.78,-3.17,-3.27,-3.28
240.64,0.20,3.45,0.20,3.44,-3.44,-3.56,-3.84,-3.24,-3.24,-3.25
243.05,0.11,3.33,0.23,3.45,-3.45,-3.57,-3.88,-3.34,-3.22,-3.22
245.48,0.09,3.28,0.25,3.45,-3.45,-3.56,-3.93,-3.36,-3.19,-3.19
247.93,0.30,3.46,0.28,3.45,-3.45,-3.56,-3.96,-3.15,-3.17,-3.16
250.41,0.35,3.49,0.31,3.45,-3.45,-3.55,-3.99,-3.10,-3.14,-3.14
252.92,0.38,3.48,0.33,3.44,-3.44,-3.53,-4.00,-3.06,-3.12,-3.11
255.45,0.39,3.47,0.34,3.43,-3.43,-3.52,-4.02,-3.04,-3.09,-3.08
258.00,0.40,3.45,0.36,3.42,-3.42,-3.49,-4.02,-3.02,-3.06,-3.05
260.58,0.40,3.44,0.38,3.41,-3.41,-3.47,-4.02,-3.02,-3.03,-3.04
263.19,0.41,3.41,0.39,3.40,-3.40,-3.44,-4.01,-2.99,-3.01,-3.00
265.82,0.40,3.39,0.41,3.39,-3.39,-3.41,-3.99,-2.99,-2.98,-2.99
268.48,0.40,3.36,0.42,3.38,-3.38,-3.38,-3.97,-2.98,-2.95,-2.96
271.16,0.40,3.32,0.43,3.36,-3.36,-3.35,-3.94,-2.96,-2.93,-2.92
273.87,0.39,3.30,0.43,3.33,-3.33,-3.31,-3.91,-2.94,-2.90,-2.91
276.61,0.39,3.26,0.41,3.28,-3.28,-3.27,-3.87,-2.89,-2.87,-2.87
279.38,0.39,3.23,0.40,3.24,-3.24,-3.24,-3.83,-2.86,-2.84,-2.84
282.17,0.45,3.27,0.39,3.21,-3.21,-3.20,-3.78,-2.76,-2.81,-2.82
284.99,0.52,3.30,0.39,3.18,-3.18,-3.16,-3.73,-2.66,-2.78,-2.78
287.84,0.43,3.19,0.40,3.15,-3.15,-3.12,-3.68,-2.72,-2.75,-2.76
290.72,0.33,3.05,0.40,3.12,-3.12,-3.08,-3.63,-2.79,-2.72,-2.72
293.63,0.34,3.04,0.40,3.09,-3.09,-3.05,-3.57,-2.75,-2.69,-2.70
296.57,0.35,3.01,0.40,3.06,-3.06,-3.01,-3.51,-2.71,-2.66,-2.66
299.53,0.36,2.99,0.40,3.03,-3.03,-2.97,-3.46,-2.67,-2.63,-2.63
302.53,0.37,2.98,0.39,2.99,-2.99,-2.93,-3.40,-2.62,-2.60,-2.61
305.55,0.38,2.95,0.39,2.97,-2.97,-2.90,-3.34,-2.59,-2.58,-2.57
308.61,0.39,2.94,0.39,2.94,-2.94,-2.86,-3.28,-2.56,-2.55,-2.55
311.69,0.45,2.97,0.39,2.92,-2.92,-2.83,-3.22,-2.47,-2.53,-2.52
314.81,0.49,2.98,0.38,2.88,-2.88,-2.79,-3.17,-2.39,-2.50,-2.49
317.96,0.38,2.85,0.36,2.84,-2.84,-2.76,-3.11,-2.47,-2.48,-2.47
321.14,0.31,2.78,0.35,2.81,-2.81,-2.73,-3.05,-2.50,-2.46,-2.47
324.35,0.31,2.76,0.34,2.79,-2.79,-2.69,-3.00,-2.48,-2.44,-2.45
327.59,0.31,2.74,0.33,2.76,-2.76,-2.66,-2.95,-2.45,-2.43,-2.43
330.87,0.31,2.73,0.31,2.73,-2.73,-2.64,-2.90,-2.42,-2.41,-2.42
334.18,0.30,2.70,0.28,2.69,-2.69,-2.61,-2.85,-2.39,-2.40,-2.40
337.52,0.37,2.76,0.25,2.64,-2.64,-2.58,-2.80,-2.27,-2.39,-2.39
340.90,0.23,2.60,0.22,2.60,-2.60,-2.55,-2.75,-2.37,-2.38,-2.38
344.30,0.06,2.43,0.19,2.56,-2.56,-2.53,-2.71,-2.50,-2.38,-2.37
347.75,0.08,2.45,0.15,2.52,-2.52,-2.50,-2.67,-2.44,-2.37,-2.37
351.23,0.11,2.47,0.12,2.48,-2.48,-2.48,-2.63,-2.37,-2.36,-2.36
354.74,0.15,2.51,0.09,2.45,-2.45,-2.46,-2.59,-2.30,-2.36,-2.36
358.28,0.20,2.55,0.06,2.42,-2.42,-2.44,-2.56,-2.22,-2.35,-2.35
361.87,0.07,2.42,0.02,2.38,-2.38,-2.42,-2.52,-2.31,-2.35,-2.35
365.49,-0.13,2.21,-0.01,2.34,-2.34,-2.40,-2.49,-2.47,-2.35,-2.34
369.14,-0.12,2.23,-0.05,2.30,-2.30,-2.38,-2.46,-2.42,-2.35,-2.36
372.83,-0.07,2.29,-0.09,2.26,-2.26,-2.36,-2.43,-2.34,-2.35,-2.36
376.56,-0.04,2.32,-0.12,2.24,-2.24,-2.34,-2.41,-2.28,-2.35,-2.36
380.33,-0.11,2.24,-0.14,2.22,-2.22,-2.32,-2.38,-2.33,-2.36,-2.35
384.13,-0.22,2.13,-0.15,2.21,-2.21,-2.31,-2.36,-2.43,-2.36,-2.35
387.97,-0.22,2.14,-0.17,2.19,-2.19,-2.29,-2.34,-2.41,-2.36,-2.36
391.85,-0.15,2.22,-0.20,2.16,-2.16,-2.28,-2.32,-2.32,-2.37,-2.37
395.77,-0.20,2.16,-0.23,2.14,-2.14,-2.26,-2.31,-2.34,-2.37,-2.36
399.73,-0.32,2.05,-0.24,2.14,-2.14,-2.25,-2.29,-2.46,-2.38,-2.37
403.72,-0.27,2.10,-0.24,2.14,-2.14,-2.24,-2.28,-2.42,-2.38,-2.37
407.76,-0.23,2.15,-0.25,2.14,-2.14,-2.22,-2.27,-2.37,-2.39,-2.38
411.84,-0.22,2.16,-0.27,2.12,-2.12,-2.21,-2.26,-2.34,-2.39,-2.38
415.96,-0.22,2.16,-0.29,2.10,-2.10,-2.20,-2.25,-2.32,-2.39,-2.39
420.12,-0.22,2.16,-0.29,2.09,-2.09,-2.19,-2.24,-2.31,-2.39,-2.39
424.32,-0.22,2.17,-0.29,2.09,-2.09,-2.18,-2.23,-2.31,-2.38,-2.39
428.56,-0.36,2.02,-0.28,2.09,-2.09,-2.17,-2.23,-2.45,-2.37,-2.38
432.85,-0.41,1.96,-0.27,2.08,-2.08,-2.16,-2.22,-2.50,-2.35,-2.37
437.18,-0.21,2.15,-0.25,2.08,-2.08,-2.15,-2.22,-2.29,-2.33,-2.36
441.55,-0.11,2.21,-0.22,2.09,-2.09,-2.14,-2.21,-2.20,-2.31,-2.32
445.96,-0.30,1.99,-0.18,2.09,-2.09,-2.13,-2.21,-2.40,-2.28,-2.29
450.42,-0.35,1.91,-0.15,2.09,-2.09,-2.12,-2.20,-2.44,-2.24,-2.26
454.93,-0.12,2.09,-0.10,2.10,-2.10,-2.12,-2.20,-2.22,-2.20,-2.21
459.48,-0.01,2.15,-0.05,2.10,-2.10,-2.11,-2.19,-2.11,-2.15,-2.16
464.07,0.05,2.16,0.01,2.11,-2.11,-2.10,-2.19,-2.06,-2.11,-2.11
468.71,0.10,2.15,0.07,2.12,-2.12,-2.09,-2.18,-2.03,-2.06,-2.05
473.40,0.17,2.18,0.13,2.14,-2.14,-2.09,-2.17,-1.97,-2.01,-2.01
478.13,0.22,2.17,0.19,2.15,-2.15,-2.08,-2.17,-1.93,-1.96,-1.95
