frequency,raw
20,-9.17
21,-8.30
22,-7.67
23,-7.11
24,-6.63
25,-6.08
26,-5.73
27,-5.28
28,-4.82
29,-4.49
30,-4.11
31,-3.74
32,-3.43
33,-3.20
34,-2.86
35,-2.69
36,-2.38
37,-2.09
38,-1.93
39,-1.71
40,-1.67
41,-1.39
42,-1.39
43,-1.18
44,-1.07
45,-1.07
46,-1.07
47,-0.90
48,-0.75
49,-0.74
50,-0.74
51,-0.74
52,-0.83
53,-0.76
54,-0.93
55,-1.07
56,-1.07
57,-1.07
58,-1.09
59,-1.23
60,-1.31
61,-1.39
62,-1.39
63,-1.39
64,-1.39
65,-1.39
66,-1.39
67,-1.39
68,-1.39
69,-1.35
70,-1.23
71,-1.19
72,-1.07
73,-1.07
74,-1.07
75,-1.06
76,-0.91
77,-0.76
78,-0.74
79,-0.74
80,-0.74
81,-0.74
82,-0.70
83,-0.56
84,-0.43
85,-0.42
86,-0.42
87,-0.42
88,-0.42
89,-0.42
90,-0.42
91,-0.42
92,-0.42
93,-0.42
94,-0.29
95,-0.18
96,-0.09
97,-0.09
98,-0.09
99,-0.09
100,-0.09
101,-0.09
102,-0.09
104,-0.09
105,-0.09
106,-0.09
107,-0.09
108,-0.09
109,-0.09
110,-0.09
111,-0.09
112,-0.09
113,-0.09
114,-0.09
115,-0.09
117,-0.09
118,-0.19
119,-0.26
120,-0.26
121,-0.31
123,-0.42
124,-0.42
125,-0.42
126,-0.42
128,-0.42
129,-0.42
130,-0.47
131,-0.56
133,-0.73
134,-0.74
135,-0.74
137,-0.74
138,-0.90
140,-1.07
141,-1.07
142,-1.07
144,-1.07
145,-1.07
147,-1.36
148,-1.39
150,-1.39
151,-1.39
153,-1.50
154,-1.57
156,-1.71
157,-1.71
159,-1.71
160,-1.71
162,-1.82
164,-1.96
165,-2.03
167,-2.04
169,-2.04
170,-2.04
172,-2.17
174,-2.30
175,-2.36
177,-2.36
179,-2.46
181,-2.59
183,-2.69
184,-2.69
186,-2.73
188,-2.85
190,-2.97
192,-3.01
194,-3.01
196,-3.01
198,-3.01
200,-3.07
202,-3.18
204,-3.29
206,-3.34
208,-3.34
210,-3.34
212,-3.34
214,-3.34
216,-3.34
218,-3.34
221,-3.34
223,-3.34
225,-3.34
227,-3.31
229,-3.21
232,-3.07
234,-3.01
236,-3.01
239,-3.01
241,-3.01
244,-3.01
246,-3.01
248,-3.01
251,-3.01
253,-3.01
256,-3.01
259,-3.01
261,-3.01
264,-3.01
266,-3.01
269,-3.01
272,-3.01
274,-3.01
277,-3.01
280,-3.01
283,-3.01
286,-3.01
288,-3.01
291,-3.01
294,-3.04
297,-3.15
300,-3.08
303,-3.01
306,-3.01
309,-3.01
312,-3.01
316,-3.01
319,-3.01
322,-3.01
325,-3.01
328,-3.01
332,-3.01
335,-2.93
338,-2.73
342,-2.69
345,-2.69
349,-2.67
352,-2.57
356,-2.45
359,-2.36
363,-2.36
366,-2.23
370,-2.04
374,-2.04
377,-1.89
381,-1.71
385,-1.71
389,-1.61
393,-1.49
397,-1.38
401,-1.27
405,-1.15
409,-1.07
413,-1.07
417,-0.99
421,-0.88
425,-0.77
430,-0.74
434,-0.74
438,-0.74
443,-0.51
447,-0.42
451,-0.42
456,-0.42
460,-0.42
465,-0.42
470,-0.42
474,-0.35
479,-0.23
484,-0.11
489,-0.09
494,-0.09
499,-0.09
504,-0.09
509,-0.09
514,-0.09
519,-0.09
524,-0.03
529,0.08
535,0.21
540,0.23
545,0.23
551,0.23
556,0.23
562,0.23
568,0.23
573,0.23
579,0.23
585,0.23
591,0.23
596,0.23
602,0.23
608,0.23
615,0.23
621,0.23
627,0.23
633,0.23
639,0.23
646,0.23
652,0.23
659,0.23
665,0.23
672,0.23
679,0.23
686,0.23
692,0.23
699,0.23
706,0.23
713,0.23
721,0.23
728,0.23
735,0.23
742,0.23
750,0.23
757,0.23
765,0.23
773,0.23
780,0.23
788,0.23
796,0.23
804,0.23
812,0.23
820,0.23
828,0.23
837,0.23
845,0.23
853,0.23
862,0.23
871,0.23
879,0.23
888,0.23
897,0.23
906,0.23
915,0.23
924,0.23
933,0.23
943,0.23
952,0.23
962,0.23
971,0.17
981,0.07
991,0.07
1001,-0.01
1011,-0.09
1021,-0.09
1031,-0.09
1041,-0.09
1052,-0.09
1062,-0.09
1073,-0.09
1084,-0.09
1094,-0.09
1105,-0.09
1116,-0.09
1128,-0.09
1139,-0.09
1150,-0.09
1162,-0.09
1173,-0.09
1185,-0.09
1197,-0.09
1209,-0.09
1221,-0.09
1233,-0.09
1246,-0.09
1258,-0.09
1271,-0.09
1283,-0.09
1296,-0.09
1309,-0.07
1322,0.04
1335,0.15
1349,0.23
1362,0.23
1376,0.23
1390,0.23
1404,0.23
1418,0.23
1432,0.30
1446,0.41
1461,0.52
1475,0.56
1490,0.56
1505,0.56
1520,0.56
1535,0.59
1550,0.70
1566,0.82
1582,0.88
1597,0.88
1613,0.88
1629,0.88
1646,0.90
1662,1.01
1679,1.12
1696,1.20
1713,1.20
1730,1.20
1747,1.20
1764,1.20
1782,1.20
1800,1.26
1818,1.37
1836,1.48
1854,1.53
1873,1.53
1892,1.53
1911,1.53
1930,1.56
1949,1.67
1969,1.78
1988,1.85
2008,1.85
2028,1.85
2048,1.96
2069,2.18
2090,2.18
2111,2.18
2132,2.20
2153,2.31
2175,2.42
2196,2.50
2218,2.50
2240,2.50
2263,2.50
2285,2.50
2308,2.61
2331,2.72
2355,2.83
2378,2.83
2402,2.83
2426,2.83
2450,2.83
2475,2.83
2500,2.83
2525,2.83
2550,2.83
2575,2.87
2601,2.98
2627,2.99
2653,3.04
2680,3.14
2707,3.03
2734,3.06
2761,3.15
2789,3.15
2817,3.15
2845,3.15
2873,3.15
2902,3.05
2931,2.99
2960,2.99
2990,2.88
3020,2.83
3050,2.83
3080,2.83
3111,2.83
3142,2.83
3174,2.83
3206,2.83
3238,2.83
3270,2.83
3303,2.83
3336,2.83
3369,2.83
3403,2.83
3437,2.89
3471,3.00
3506,3.11
3541,3.15
3576,3.17
3612,3.28
3648,3.40
3685,3.55
3721,3.77
3759,3.99
3796,4.22
3834,4.44
3873,4.56
3911,4.73
3950,4.96
3990,5.30
4030,5.57
4070,5.79
4111,6.02
4152,6.15
4193,6.30
4235,6.53
4278,6.65
4321,6.77
4364,6.88
4407,6.99
4451,7.04
4496,7.04
4541,7.04
4586,7.04
4632,7.04
4679,7.04
4725,7.04
4773,6.97
4820,6.74
4868,6.72
4917,6.62
4966,6.39
5016,6.17
5066,5.94
5117,5.72
5168,5.49
5220,5.19
5272,4.88
5325,4.66
5378,4.43
5432,4.21
5486,3.98
5541,3.66
5596,3.37
5652,3.15
5709,3.04
5766,2.92
5823,2.81
5882,2.70
5940,2.59
6000,2.53
6060,2.64
6120,2.75
6182,2.83
6244,2.83
6306,3.03
6369,3.20
6433,3.32
6497,3.54
6562,3.77
6628,3.99
6694,4.22
6761,4.44
6828,4.66
6897,4.89
6966,5.02
7035,5.18
7106,5.40
7177,5.52
7249,5.64
7321,5.75
7394,5.86
7468,5.97
7543,6.07
7618,6.07
7694,6.07
7771,6.10
7849,6.21
7928,6.32
8007,6.39
8087,6.39
8168,6.39
8250,6.50
8332,6.72
8415,6.72
8499,6.72
8584,6.73
8670,6.85
8757,6.96
8845,7.04
8933,7.04
9022,7.13
9113,7.25
9204,7.36
9296,7.58
9389,7.80
9483,8.03
9577,8.25
9673,8.34
9770,8.38
9868,8.60
9966,8.66
10066,8.66
10167,8.66
10268,8.66
10371,8.66
10475,8.66
10579,8.45
10685,8.28
10792,8.17
10900,8.06
11009,7.88
11119,7.65
11230,7.43
11343,7.12
11456,6.81
11571,6.59
11686,6.18
11803,5.68
11921,5.12
12040,4.56
12161,3.94
12282,3.26
12405,2.47
12529,1.54
12655,0.55
12781,-0.35
12909,-1.25
13038,-2.08
13168,-2.75
13300,-3.52
13433,-4.12
13567,-4.46
13703,-4.80
13840,-5.02
13978,-5.13
14118,-5.24
14259,-5.28
14402,-5.33
14546,-5.55
14692,-5.69
14838,-5.84
14987,-6.06
15137,-6.29
15288,-6.56
15441,-6.90
15595,-7.12
15751,-7.35
15909,-7.56
16068,-7.68
16229,-7.86
16391,-8.09
16555,-8.31
16720,-8.71
16888,-9.08
17056,-9.31
17227,-9.73
17399,-10.13
17573,-10.47
17749,-10.81
17926,-11.20
18106,-11.63
18287,-11.86
18470,-12.08
18654,-12.30
18841,-12.53
19029,-12.75
19220,-12.98
19412,-13.20
19606,-13.43
19802,-13.65
20000,-13.88
