frequency,raw,smoothed,error,error_smoothed,equalization,parametric_eq,fixed_band_eq,equalized_raw,equalized_smoothed,target
20.00,-2.46,-2.46,-6.25,-6.25,5.97,4.97,2.23,3.52,3.51,3.79
20.20,-2.42,-2.41,-6.24,-6.24,5.99,4.97,2.30,3.58,3.58,3.82
20.40,-2.37,-2.37,-6.22,-6.22,6.01,4.96,2.36,3.64,3.64,3.85
20.61,-2.33,-2.32,-6.20,-6.20,6.02,4.96,2.43,3.69,3.70,3.87
20.81,-2.28,-2.28,-6.18,-6.18,6.02,4.95,2.50,3.75,3.75,3.90
21.02,-2.24,-2.23,-6.17,-6.16,6.02,4.95,2.58,3.79,3.79,3.93
21.23,-2.19,-2.18,-6.13,-6.13,6.02,4.94,2.65,3.83,3.83,3.94
21.44,-2.13,-2.14,-6.09,-6.09,6.00,4.94,2.73,3.87,3.87,3.95
21.66,-2.09,-2.09,-6.05,-6.04,5.99,4.93,2.81,3.90,3.90,3.96
21.87,-2.03,-2.03,-5.99,-6.00,5.97,4.93,2.89,3.93,3.93,3.96
22.09,-1.98,-1.99,-5.95,-5.95,5.94,4.92,2.97,3.95,3.95,3.97
22.31,-1.93,-1.93,-5.90,-5.90,5.90,4.92,3.06,3.96,3.96,3.97
22.54,-1.89,-1.88,-5.85,-5.85,5.85,4.91,3.15,3.96,3.97,3.97
22.76,-1.83,-1.83,-5.79,-5.79,5.79,4.91,3.24,3.97,3.96,3.97
22.99,-1.78,-1.78,-5.73,-5.74,5.74,4.90,3.33,3.96,3.96,3.96
23.22,-1.73,-1.72,-5.68,-5.68,5.68,4.89,3.43,3.95,3.96,3.96
23.45,-1.67,-1.67,-5.62,-5.62,5.63,4.89,3.52,3.96,3.96,3.96
23.69,-1.62,-1.61,-5.57,-5.57,5.59,4.88,3.62,3.97,3.98,3.95
23.92,-1.57,-1.57,-5.52,-5.53,5.56,4.88,3.72,3.99,3.99,3.95
24.16,-1.55,-1.55,-5.51,-5.51,5.53,4.87,3.82,3.99,3.98,3.96
24.40,-1.55,-1.54,-5.51,-5.50,5.51,4.86,3.93,3.96,3.96,3.96
24.65,-1.55,-1.55,-5.50,-5.50,5.48,4.86,4.03,3.93,3.93,3.95
24.89,-1.54,-1.54,-5.50,-5.49,5.45,4.85,4.14,3.90,3.91,3.95
25.14,-1.51,-1.51,-5.46,-5.46,5.42,4.84,4.25,3.90,3.91,3.95
25.39,-1.45,-1.46,-5.40,-5.40,5.39,4.84,4.36,3.94,3.93,3.95
25.65,-1.40,-1.39,-5.34,-5.34,5.36,4.83,4.47,3.96,3.97,3.95
25.91,-1.34,-1.35,-5.27,-5.29,5.33,4.82,4.58,3.99,3.98,3.94
26.16,-1.32,-1.32,-5.25,-5.26,5.30,4.82,4.69,3.98,3.98,3.93
26.43,-1.32,-1.32,-5.25,-5.25,5.26,4.81,4.80,3.94,3.94,3.93
26.69,-1.32,-1.32,-5.25,-5.25,5.22,4.80,4.90,3.91,3.91,3.93
26.96,-1.32,-1.30,-5.25,-5.23,5.19,4.80,5.01,3.87,3.89,3.93
27.23,-1.27,-1.26,-5.20,-5.19,5.16,4.79,5.11,3.89,3.89,3.93
27.50,-1.21,-1.21,-5.13,-5.13,5.13,4.78,5.22,3.92,3.93,3.93
27.77,-1.14,-1.15,-5.06,-5.07,5.10,4.77,5.31,3.96,3.96,3.92
28.05,-1.10,-1.11,-5.01,-5.02,5.07,4.77,5.41,3.97,3.96,3.92
28.33,-1.10,-1.10,-5.00,-5.00,5.03,4.76,5.50,3.93,3.93,3.90
28.62,-1.10,-1.10,-5.00,-5.00,4.98,4.75,5.58,3.89,3.89,3.90
28.90,-1.10,-1.09,-5.00,-4.98,4.94,4.74,5.66,3.85,3.86,3.90
29.19,-1.06,-1.05,-4.94,-4.94,4.91,4.74,5.74,3.85,3.86,3.89
29.48,-0.98,-0.99,-4.88,-4.88,4.88,4.73,5.80,3.89,3.89,3.90
29.78,-0.92,-0.92,-4.80,-4.81,4.84,4.72,5.86,3.93,3.92,3.89
30.08,-0.87,-0.88,-4.75,-4.76,4.80,4.71,5.91,3.94,3.93,3.88
30.38,-0.87,-0.87,-4.74,-4.74,4.76,4.70,5.95,3.89,3.89,3.87
30.68,-0.87,-0.86,-4.74,-4.73,4.71,4.70,5.98,3.84,3.84,3.87
30.99,-0.87,-0.85,-4.72,-4.71,4.66,4.69,6.01,3.79,3.81,3.86
31.30,-0.80,-0.79,-4.65,-4.65,4.62,4.68,6.02,3.82,3.82,3.86
31.61,-0.73,-0.73,-4.58,-4.58,4.58,4.67,6.03,3.85,3.85,3.85
31.93,-0.66,-0.67,-4.50,-4.51,4.54,4.66,6.03,3.89,3.87,3.84
32.24,-0.64,-0.64,-4.46,-4.47,4.51,4.65,6.02,3.87,3.87,3.83
32.57,-0.64,-0.63,-4.46,-4.46,4.48,4.64,6.00,3.84,3.85,3.83
32.89,-0.64,-0.63,-4.46,-4.45,4.45,4.64,5.97,3.82,3.82,3.82
33.22,-0.64,-0.64,-4.45,-4.45,4.44,4.63,5.94,3.80,3.80,3.81
33.55,-0.64,-0.64,-4.44,-4.44,4.43,4.62,5.90,3.79,3.79,3.81
33.89,-0.64,-0.64,-4.43,-4.43,4.43,4.61,5.85,3.79,3.79,3.80
34.23,-0.64,-0.64,-4.43,-4.42,4.42,4.60,5.79,3.79,3.79,3.79
34.57,-0.64,-0.64,-4.41,-4.41,4.42,4.59,5.73,3.78,3.78,3.78
34.92,-0.64,-0.64,-4.40,-4.41,4.41,4.58,5.67,3.78,3.78,3.77
35.27,-0.64,-0.64,-4.40,-4.40,4.41,4.57,5.60,3.77,3.77,3.76
35.62,-0.64,-0.64,-4.38,-4.39,4.39,4.56,5.53,3.76,3.76,3.75
35.97,-0.64,-0.63,-4.37,-4.37,4.37,4.55,5.45,3.73,3.73,3.74
36.33,-0.63,-0.63,-4.36,-4.36,4.33,4.54,5.38,3.71,3.70,3.73
36.70,-0.62,-0.62,-4.33,-4.33,4.29,4.53,5.30,3.68,3.68,3.72
37.06,-0.59,-0.57,-4.30,-4.28,4.24,4.51,5.22,3.65,3.67,3.70
37.43,-0.51,-0.52,-4.21,-4.21,4.20,4.50,5.14,3.68,3.68,3.70
37.81,-0.45,-0.46,-4.13,-4.14,4.16,4.49,5.06,3.72,3.71,3.69
38.19,-0.41,-0.41,-4.08,-4.08,4.14,4.48,4.98,3.73,3.73,3.67
38.57,-0.41,-0.40,-4.07,-4.06,4.13,4.47,4.91,3.72,3.73,3.67
38.95,-0.41,-0.43,-4.06,-4.08,4.13,4.46,4.83,3.72,3.70,3.65
39.34,-0.49,-0.49,-4.12,-4.13,4.14,4.44,4.75,3.65,3.64,3.64
39.74,-0.58,-0.56,-4.20,-4.19,4.15,4.43,4.68,3.58,3.59,3.62
40.14,-0.63,-0.62,-4.25,-4.23,4.18,4.42,4.61,3.54,3.56,3.62
40.54,-0.64,-0.64,-4.24,-4.24,4.20,4.41,4.54,3.57,3.56,3.60
40.94,-0.64,-0.64,-4.23,-4.23,4.22,4.39,4.47,3.58,3.58,3.59
41.35,-0.64,-0.64,-4.21,-4.22,4.23,4.38,4.41,3.59,3.59,3.58
41.76,-0.64,-0.64,-4.21,-4.21,4.22,4.36,4.35,3.59,3.59,3.57
42.18,-0.64,-0.64,-4.20,-4.20,4.21,4.35,4.29,3.57,3.57,3.57
42.60,-0.64,-0.64,-4.18,-4.19,4.19,4.33,4.24,3.55,3.55,3.55
43.03,-0.64,-0.64,-4.18,-4.17,4.17,4.32,4.18,3.54,3.54,3.54
43.46,-0.64,-0.64,-4.16,-4.16,4.15,4.30,4.13,3.52,3.52,3.52
43.90,-0.64,-0.64,-4.13,-4.14,4.14,4.29,4.09,3.50,3.50,3.50
44.33,-0.64,-0.64,-4.11,-4.12,4.12,4.27,4.05,3.48,3.48,3.48
44.78,-0.64,-0.64,-4.10,-4.10,4.10,4.25,4.01,3.46,3.46,3.46
45.23,-0.64,-0.64,-4.08,-4.08,4.08,4.23,3.97,3.44,3.44,3.44
45.68,-0.64,-0.64,-4.06,-4.06,4.05,4.22,3.94,3.42,3.42,3.42
46.13,-0.64,-0.64,-4.04,-4.04,4.04,4.20,3.90,3.40,3.40,3.41
46.60,-0.64,-0.64,-4.03,-4.03,4.02,4.18,3.88,3.39,3.39,3.40
47.06,-0.64,-0.63,-4.01,-4.01,4.02,4.16,3.85,3.38,3.39,3.38
47.53,-0.64,-0.63,-3.99,-3.99,4.02,4.14,3.83,3.38,3.39,3.36
48.01,-0.64,-0.65,-3.98,-3.99,4.02,4.11,3.81,3.39,3.37,3.35
48.49,-0.70,-0.70,-4.01,-4.01,4.03,4.09,3.80,3.34,3.33,3.32
48.97,-0.77,-0.76,-4.05,-4.04,4.04,4.07,3.78,3.27,3.28,3.28
49.46,-0.82,-0.82,-4.07,-4.07,4.05,4.04,3.77,3.23,3.23,3.25
49.96,-0.87,-0.85,-4.09,-4.08,4.05,4.02,3.76,3.19,3.20,3.22
50.46,-0.87,-0.87,-4.07,-4.07,4.05,3.99,3.75,3.19,3.18,3.21
50.96,-0.87,-0.87,-4.05,-4.05,4.05,3.96,3.75,3.18,3.18,3.19
51.47,-0.87,-0.87,-4.02,-4.02,4.04,3.93,3.74,3.17,3.17,3.15
51.99,-0.87,-0.87,-4.00,-4.00,4.02,3.90,3.74,3.16,3.16,3.13
52.51,-0.87,-0.87,-3.98,-3.98,4.00,3.87,3.74,3.13,3.13,3.12
53.03,-0.87,-0.87,-3.96,-3.96,3.97,3.83,3.74,3.10,3.10,3.09
53.56,-0.87,-0.87,-3.93,-3.94,3.92,3.80,3.74,3.06,3.05,3.07
54.10,-0.87,-0.88,-3.91,-3.92,3.88,3.76,3.74,3.01,3.00,3.04
54.64,-0.87,-0.85,-3.88,-3.87,3.83,3.72,3.74,2.96,2.98,3.02
55.18,-0.82,-0.79,-3.81,-3.78,3.78,3.68,3.74,2.95,2.98,2.99
55.74,-0.70,-0.72,-3.66,-3.69,3.71,3.63,3.74,3.02,2.99,2.96
56.29,-0.64,-0.66,-3.58,-3.60,3.64,3.59,3.74,3.01,2.99,2.94
56.86,-0.64,-0.64,-3.55,-3.55,3.57,3.54,3.74,2.93,2.93,2.92
57.42,-0.64,-0.63,-3.52,-3.52,3.49,3.49,3.74,2.86,2.86,2.89
58.00,-0.64,-0.59,-3.50,-3.46,3.42,3.44,3.73,2.78,2.83,2.87
58.58,-0.51,-0.52,-3.35,-3.36,3.35,3.39,3.73,2.85,2.84,2.85
59.16,-0.41,-0.45,-3.23,-3.27,3.30,3.34,3.72,2.89,2.85,2.83
59.76,-0.41,-0.40,-3.21,-3.20,3.24,3.29,3.71,2.84,2.85,2.81
60.35,-0.41,-0.40,-3.18,-3.17,3.20,3.24,3.69,2.79,2.80,2.77
60.96,-0.41,-0.41,-3.16,-3.15,3.15,3.20,3.67,2.74,2.74,2.75
61.57,-0.41,-0.41,-3.11,-3.12,3.10,3.16,3.66,2.70,2.70,2.71
62.18,-0.41,-0.41,-3.08,-3.08,3.06,3.12,3.63,2.66,2.66,2.68
62.80,-0.41,-0.41,-3.06,-3.05,3.03,3.08,3.61,2.63,2.63,2.65
63.43,-0.41,-0.41,-3.02,-3.02,3.01,3.05,3.58,2.61,2.61,2.62
64.07,-0.41,-0.41,-3.00,-3.00,3.00,3.03,3.55,2.59,2.59,2.59
64.71,-0.41,-0.39,-2.97,-2.95,2.99,3.01,3.51,2.59,2.60,2.56
65.35,-0.41,-0.40,-2.94,-2.94,2.99,3.00,3.47,2.59,2.59,2.54
66.01,-0.41,-0.46,-2.91,-2.97,3.00,2.99,3.43,2.59,2.54,2.51
66.67,-0.55,-0.53,-3.03,-3.01,3.00,2.98,3.39,2.45,2.47,2.48
67.33,-0.64,-0.60,-3.08,-3.05,3.01,2.97,3.34,2.37,2.41,2.45
68.01,-0.64,-0.65,-3.05,-3.06,3.01,2.97,3.29,2.37,2.36,2.42
68.69,-0.64,-0.64,-3.02,-3.03,3.01,2.97,3.24,2.37,2.36,2.39
69.37,-0.64,-0.64,-2.99,-2.99,3.00,2.96,3.19,2.36,2.36,2.36
70.07,-0.64,-0.64,-2.96,-2.96,2.98,2.96,3.14,2.34,2.34,2.32
70.77,-0.64,-0.64,-2.93,-2.93,2.94,2.95,3.08,2.30,2.30,2.30
71.48,-0.64,-0.64,-2.90,-2.90,2.90,2.94,3.03,2.26,2.26,2.26
72.19,-0.64,-0.64,-2.86,-2.86,2.85,2.94,2.97,2.22,2.22,2.23
72.91,-0.64,-0.64,-2.83,-2.83,2.82,2.92,2.91,2.18,2.18,2.19
73.64,-0.64,-0.64,-2.79,-2.79,2.79,2.91,2.85,2.16,2.16,2.16
74.38,-0.64,-0.63,-2.76,-2.75,2.78,2.89,2.79,2.15,2.16,2.13
75.12,-0.64,-0.63,-2.73,-2.72,2.77,2.88,2.73,2.14,2.14,2.09
75.87,-0.64,-0.67,-2.70,-2.74,2.77,2.86,2.68,2.14,2.10,2.06
76.63,-0.75,-0.74,-2.78,-2.77,2.77,2.83,2.62,2.03,2.03,2.03
77.40,-0.84,-0.81,-2.83,-2.81,2.78,2.81,2.56,1.94,1.97,2.00
78.17,-0.87,-0.86,-2.82,-2.83,2.78,2.78,2.50,1.91,1.92,1.96
78.95,-0.87,-0.87,-2.80,-2.81,2.77,2.76,2.45,1.91,1.90,1.94
79.74,-0.87,-0.87,-2.77,-2.77,2.76,2.73,2.39,1.90,1.89,1.90
80.54,-0.87,-0.87,-2.73,-2.73,2.74,2.70,2.34,1.88,1.88,1.87
81.35,-0.87,-0.87,-2.70,-2.70,2.72,2.66,2.28,1.85,1.85,1.83
82.16,-0.87,-0.87,-2.66,-2.67,2.69,2.63,2.23,1.82,1.82,1.80
82.98,-0.87,-0.87,-2.64,-2.63,2.65,2.60,2.18,1.78,1.78,1.77
83.81,-0.87,-0.87,-2.59,-2.59,2.60,2.56,2.13,1.73,1.73,1.72
84.65,-0.87,-0.87,-2.55,-2.56,2.54,2.52,2.08,1.68,1.67,1.69
85.50,-0.87,-0.88,-2.52,-2.53,2.48,2.48,2.04,1.62,1.60,1.66
86.35,-0.87,-0.84,-2.48,-2.46,2.41,2.44,1.99,1.54,1.57,1.62
87.22,-0.82,-0.77,-2.39,-2.35,2.33,2.40,1.95,1.52,1.56,1.58
88.09,-0.64,-0.70,-2.17,-2.24,2.25,2.36,1.90,1.62,1.55,1.54
88.97,-0.64,-0.64,-2.14,-2.14,2.18,2.32,1.86,1.55,1.54,1.51
89.86,-0.64,-0.62,-2.10,-2.08,2.12,2.27,1.82,1.49,1.50,1.47
90.76,-0.64,-0.63,-2.05,-2.05,2.08,2.23,1.79,1.44,1.45,1.41
91.66,-0.64,-0.63,-2.02,-2.00,2.05,2.19,1.75,1.41,1.42,1.38
92.58,-0.64,-0.67,-1.96,-2.00,2.03,2.14,1.71,1.40,1.36,1.33
93.51,-0.74,-0.74,-2.03,-2.03,2.02,2.09,1.68,1.29,1.28,1.29
94.44,-0.85,-0.81,-2.10,-2.06,2.02,2.05,1.65,1.17,1.21,1.25
95.39,-0.87,-0.86,-2.07,-2.07,2.01,2.00,1.62,1.15,1.15,1.21
96.34,-0.87,-0.88,-2.02,-2.03,2.00,1.95,1.59,1.13,1.12,1.15
97.30,-0.87,-0.87,-1.97,-1.97,1.97,1.90,1.56,1.11,1.10,1.11
98.28,-0.87,-0.87,-1.93,-1.92,1.94,1.86,1.53,1.07,1.07,1.06
99.26,-0.87,-0.87,-1.88,-1.88,1.89,1.81,1.50,1.03,1.03,1.01
100.25,-0.87,-0.87,-1.83,-1.84,1.84,1.76,1.47,0.98,0.98,0.97
101.25,-0.87,-0.87,-1.79,-1.79,1.79,1.71,1.45,0.93,0.93,0.92
102.27,-0.87,-0.87,-1.74,-1.74,1.74,1.66,1.43,0.88,0.88,0.88
103.29,-0.87,-0.87,-1.69,-1.69,1.69,1.61,1.40,0.83,0.83,0.82
104.32,-0.87,-0.87,-1.65,-1.65,1.65,1.56,1.38,0.78,0.78,0.78
105.37,-0.87,-0.87,-1.60,-1.60,1.60,1.51,1.36,0.73,0.73,0.74
106.42,-0.87,-0.87,-1.56,-1.56,1.55,1.46,1.34,0.68,0.68,0.69
107.48,-0.87,-0.87,-1.51,-1.51,1.49,1.41,1.32,0.63,0.63,0.65
108.56,-0.87,-0.87,-1.45,-1.46,1.44,1.36,1.30,0.58,0.58,0.59
109.64,-0.87,-0.87,-1.41,-1.41,1.40,1.31,1.27,0.54,0.54,0.54
110.74,-0.87,-0.86,-1.36,-1.36,1.37,1.26,1.25,0.51,0.51,0.50
111.85,-0.87,-0.85,-1.32,-1.29,1.35,1.21,1.23,0.48,0.50,0.45
112.97,-0.87,-0.89,-1.25,-1.28,1.33,1.16,1.22,0.46,0.44,0.39
114.10,-0.91,-0.96,-1.25,-1.29,1.31,1.11,1.20,0.40,0.35,0.34
115.24,-1.09,-1.03,-1.38,-1.31,1.29,1.06,1.18,0.19,0.26,0.29
116.39,-1.10,-1.09,-1.33,-1.32,1.27,1.01,1.15,0.17,0.18,0.23
117.55,-1.10,-1.11,-1.27,-1.29,1.25,0.97,1.13,0.15,0.13,0.18
118.73,-1.10,-1.10,-1.22,-1.22,1.22,0.92,1.11,0.12,0.12,0.12
119.92,-1.10,-1.10,-1.18,-1.17,1.18,0.87,1.09,0.09,0.09,0.08
121.12,-1.10,-1.10,-1.12,-1.12,1.14,0.82,1.07,0.04,0.04,0.03
122.33,-1.10,-1.10,-1.07,-1.07,1.09,0.78,1.05,-0.01,-0.01,-0.02
123.55,-1.10,-1.10,-1.03,-1.03,1.03,0.73,1.02,-0.07,-0.07,-0.07
124.79,-1.10,-1.10,-0.98,-0.98,0.97,0.68,1.00,-0.12,-0.12,-0.12
126.03,-1.10,-1.10,-0.93,-0.93,0.92,0.64,0.98,-0.17,-0.17,-0.17
127.29,-1.10,-1.10,-0.88,-0.87,0.87,0.59,0.95,-0.22,-0.22,-0.22
128.57,-1.10,-1.10,-0.82,-0.82,0.82,0.55,0.92,-0.27,-0.27,-0.28
129.85,-1.10,-1.10,-0.77,-0.77,0.77,0.51,0.90,-0.32,-0.32,-0.33
131.15,-1.10,-1.10,-0.72,-0.72,0.72,0.46,0.87,-0.37,-0.37,-0.37
132.46,-1.10,-1.10,-0.67,-0.68,0.68,0.42,0.84,-0.42,-0.42,-0.42
133.79,-1.10,-1.10,-0.64,-0.63,0.63,0.38,0.81,-0.47,-0.47,-0.46
135.12,-1.10,-1.10,-0.58,-0.59,0.58,0.34,0.78,-0.52,-0.52,-0.51
136.48,-1.10,-1.10,-0.55,-0.54,0.53,0.30,0.75,-0.57,-0.57,-0.55
137.84,-1.10,-1.10,-0.50,-0.50,0.48,0.26,0.72,-0.61,-0.61,-0.59
139.22,-1.10,-1.10,-0.45,-0.45,0.45,0.22,0.69,-0.65,-0.65,-0.65
140.61,-1.10,-1.10,-0.41,-0.41,0.42,0.18,0.66,-0.68,-0.68,-0.69
142.02,-1.10,-1.08,-0.38,-0.36,0.40,0.15,0.63,-0.69,-0.68,-0.71
143.44,-1.10,-1.10,-0.34,-0.34,0.39,0.11,0.59,-0.71,-0.71,-0.75
144.87,-1.10,-1.15,-0.30,-0.36,0.39,0.07,0.56,-0.71,-0.76,-0.79
146.32,-1.25,-1.22,-0.41,-0.39,0.39,0.04,0.52,-0.86,-0.83,-0.83
147.78,-1.32,-1.29,-0.45,-0.42,0.39,0.01,0.49,-0.93,-0.90,-0.86
149.26,-1.32,-1.33,-0.42,-0.42,0.38,-0.03,0.46,-0.93,-0.94,-0.90
150.75,-1.32,-1.32,-0.37,-0.38,0.37,-0.06,0.42,-0.95,-0.95,-0.95
152.26,-1.32,-1.32,-0.33,-0.33,0.33,-0.09,0.39,-0.98,-0.98,-0.98
153.78,-1.32,-1.33,-0.30,-0.31,0.28,-0.12,0.35,-1.04,-1.05,-1.02
155.32,-1.32,-1.31,-0.25,-0.25,0.20,-0.15,0.31,-1.11,-1.11,-1.06
156.88,-1.31,-1.26,-0.21,-0.16,0.12,-0.18,0.28,-1.18,-1.14,-1.10
158.44,-1.16,-1.19,-0.01,-0.04,0.05,-0.21,0.24,-1.11,-1.14,-1.14
160.03,-1.10,-1.12,0.09,0.06,-0.01,-0.24,0.21,-1.11,-1.14,-1.18
161.63,-1.10,-1.07,0.13,0.16,-0.06,-0.27,0.17,-1.16,-1.13,-1.22
163.24,-1.10,-1.09,0.17,0.17,-0.10,-0.30,0.13,-1.19,-1.19,-1.27
164.88,-1.10,-1.15,0.20,0.14,-0.12,-0.32,0.10,-1.22,-1.28,-1.29
166.53,-1.27,-1.23,0.07,0.11,-0.13,-0.35,0.06,-1.40,-1.36,-1.33
168.19,-1.32,-1.29,0.06,0.08,-0.13,-0.37,0.02,-1.45,-1.42,-1.37
169.87,-1.32,-1.33,0.09,0.08,-0.13,-0.39,-0.02,-1.44,-1.46,-1.41
171.57,-1.32,-1.32,0.13,0.13,-0.13,-0.42,-0.05,-1.45,-1.45,-1.45
173.29,-1.32,-1.32,0.17,0.17,-0.16,-0.44,-0.09,-1.48,-1.48,-1.48
175.02,-1.32,-1.32,0.20,0.20,-0.22,-0.46,-0.13,-1.53,-1.54,-1.52
176.77,-1.32,-1.32,0.25,0.24,-0.28,-0.48,-0.17,-1.60,-1.61,-1.56
178.54,-1.32,-1.29,0.29,0.31,-0.35,-0.50,-0.21,-1.67,-1.65,-1.61
180.32,-1.25,-1.23,0.40,0.41,-0.42,-0.52,-0.24,-1.66,-1.65,-1.64
182.13,-1.15,-1.15,0.53,0.53,-0.47,-0.54,-0.28,-1.61,-1.62,-1.67
183.95,-1.10,-1.11,0.62,0.60,-0.51,-0.56,-0.32,-1.60,-1.62,-1.72
185.79,-1.10,-1.14,0.65,0.60,-0.54,-0.58,-0.36,-1.63,-1.68,-1.75
187.65,-1.26,-1.22,0.53,0.57,-0.56,-0.60,-0.40,-1.82,-1.78,-1.79
189.52,-1.32,-1.29,0.50,0.53,-0.58,-0.61,-0.44,-1.89,-1.87,-1.82
191.42,-1.32,-1.33,0.53,0.52,-0.59,-0.63,-0.48,-1.90,-1.91,-1.85
193.33,-1.32,-1.32,0.56,0.55,-0.59,-0.65,-0.52,-1.90,-1.91,-1.88
195.27,-1.32,-1.32,0.59,0.59,-0.59,-0.66,-0.56,-1.91,-1.91,-1.90
197.22,-1.32,-1.32,0.62,0.62,-0.61,-0.68,-0.60,-1.92,-1.92,-1.93
199.19,-1.32,-1.32,0.65,0.65,-0.63,-0.69,-0.64,-1.95,-1.95,-1.97
201.18,-1.32,-1.32,0.67,0.67,-0.66,-0.70,-0.68,-1.97,-1.97,-1.99
203.19,-1.32,-1.32,0.69,0.69,-0.68,-0.72,-0.72,-2.00,-2.00,-2.00
205.23,-1.32,-1.32,0.71,0.70,-0.70,-0.73,-0.76,-2.02,-2.02,-2.03
207.28,-1.32,-1.32,0.72,0.72,-0.71,-0.74,-0.79,-2.03,-2.03,-2.03
209.35,-1.32,-1.32,0.74,0.74,-0.73,-0.75,-0.83,-2.04,-2.04,-2.06
211.44,-1.32,-1.32,0.77,0.76,-0.75,-0.76,-0.87,-2.07,-2.07,-2.08
213.56,-1.32,-1.32,0.77,0.76,-0.78,-0.77,-0.91,-2.10,-2.11,-2.08
215.69,-1.32,-1.32,0.77,0.77,-0.82,-0.79,-0.94,-2.14,-2.14,-2.09
217.85,-1.32,-1.28,0.79,0.82,-0.86,-0.79,-0.98,-2.17,-2.14,-2.10
220.03,-1.23,-1.22,0.89,0.89,-0.90,-0.80,-1.01,-2.12,-2.12,-2.11
222.23,-1.13,-1.15,1.00,0.97,-0.93,-0.81,-1.04,-2.06,-2.09,-2.12
224.45,-1.10,-1.10,1.02,1.02,-0.97,-0.82,-1.07,-2.06,-2.07,-2.12
226.70,-1.10,-1.09,1.02,1.03,-1.00,-0.83,-1.10,-2.09,-2.09,-2.12
228.96,-1.10,-1.09,1.02,1.02,-1.02,-0.84,-1.13,-2.11,-2.11,-2.12
231.25,-1.10,-1.10,1.01,1.02,-1.02,-0.85,-1.16,-2.12,-2.12,-2.11
233.57,-1.10,-1.10,1.01,1.01,-1.02,-0.85,-1.18,-2.11,-2.11,-2.11
235.90,-1.10,-1.10,1.01,1.01,-1.01,-0.86,-1.20,-2.10,-2.10,-2.11
238.26,-1.10,-1.10,1.01,1.01,-1.00,-0.87,-1.22,-2.10,-2.10,-2.11
240.64,-1.10,-1.10,1.00,1.00,-1.00,-0.87,-1.24,-2.10,-2.10,-2.10
243.05,-1.10,-1.11,0.99,0.97,-1.02,-0.88,-1.26,-2.12,-2.13,-2.09
245.48,-1.10,-1.09,0.98,0.99,-1.04,-0.88,-1.27,-2.14,-2.13,-2.07
247.93,-1.10,-1.03,0.97,1.04,-1.06,-0.89,-1.28,-2.15,-2.09,-2.06
250.41,-0.91,-0.96,1.15,1.10,-1.07,-0.89,-1.29,-1.98,-2.03,-2.06
252.92,-0.87,-0.89,1.17,1.15,-1.09,-0.90,-1.30,-1.96,-1.98,-2.04
255.45,-0.87,-0.85,1.15,1.17,-1.11,-0.90,-1.30,-1.98,-1.96,-2.01
258.00,-0.87,-0.86,1.14,1.14,-1.13,-0.91,-1.30,-2.00,-1.99,-2.00
260.58,-0.87,-0.87,1.12,1.11,-1.15,-0.91,-1.30,-2.02,-2.02,-1.99
263.19,-0.87,-0.88,1.10,1.09,-1.16,-0.92,-1.29,-2.02,-2.03,-1.97
265.82,-0.87,-0.84,1.09,1.11,-1.15,-0.92,-1.29,-2.01,-1.98,-1.95
268.48,-0.81,-0.77,1.12,1.16,-1.13,-0.92,-1.28,-1.93,-1.90,-1.93
271.16,-0.68,-0.74,1.23,1.17,-1.11,-0.92,-1.27,-1.78,-1.85,-1.90
273.87,-0.72,-0.75,1.17,1.14,-1.08,-0.93,-1.26,-1.80,-1.83,-1.89
276.61,-0.85,-0.79,1.02,1.07,-1.06,-0.93,-1.24,-1.91,-1.86,-1.86
279.38,-0.87,-0.86,0.98,0.99,-1.03,-0.93,-1.23,-1.90,-1.89,-1.85
282.17,-0.87,-0.88,0.97,0.95,-1.00,-0.93,-1.21,-1.87,-1.88,-1.83
284.99,-0.87,-0.87,0.94,0.95,-0.96,-0.94,-1.20,-1.83,-1.83,-1.81
287.84,-0.87,-0.87,0.93,0.93,-0.93,-0.94,-1.18,-1.79,-1.79,-1.79
290.72,-0.87,-0.87,0.90,0.91,-0.90,-0.94,-1.16,-1.76,-1.76,-1.77
293.63,-0.87,-0.87,0.89,0.89,-0.88,-0.94,-1.14,-1.74,-1.74,-1.75
296.57,-0.87,-0.87,0.86,0.87,-0.86,-0.94,-1.12,-1.73,-1.73,-1.73
299.53,-0.87,-0.87,0.85,0.85,-0.84,-0.94,-1.10,-1.71,-1.71,-1.71
302.53,-0.87,-0.87,0.83,0.82,-0.82,-0.94,-1.08,-1.69,-1.69,-1.70
305.55,-0.87,-0.87,0.79,0.80,-0.80,-0.94,-1.05,-1.66,-1.66,-1.66
308.61,-0.87,-0.87,0.78,0.77,-0.77,-0.94,-1.03,-1.64,-1.64,-1.64
311.69,-0.87,-0.87,0.75,0.75,-0.74,-0.94,-1.01,-1.61,-1.61,-1.62
314.81,-0.87,-0.87,0.71,0.72,-0.71,-0.94,-0.99,-1.58,-1.58,-1.58
317.96,-0.87,-0.87,0.70,0.70,-0.69,-0.94,-0.97,-1.56,-1.56,-1.56
321.14,-0.87,-0.87,0.68,0.68,-0.68,-0.94,-0.95,-1.54,-1.54,-1.55
324.35,-0.87,-0.88,0.66,0.65,-0.68,-0.94,-0.93,-1.54,-1.55,-1.53
327.59,-0.87,-0.87,0.64,0.63,-0.68,-0.94,-0.91,-1.55,-1.56,-1.50
330.87,-0.87,-0.83,0.62,0.66,-0.69,-0.94,-0.89,-1.56,-1.52,-1.49
334.18,-0.77,-0.76,0.70,0.71,-0.70,-0.94,-0.87,-1.47,-1.46,-1.47
337.52,-0.65,-0.69,0.81,0.76,-0.71,-0.94,-0.85,-1.36,-1.40,-1.45
340.90,-0.64,-0.64,0.79,0.79,-0.73,-0.93,-0.83,-1.36,-1.36,-1.42
344.30,-0.64,-0.62,0.77,0.78,-0.74,-0.93,-0.82,-1.38,-1.37,-1.41
347.75,-0.64,-0.65,0.75,0.74,-0.77,-0.93,-0.80,-1.40,-1.41,-1.39
351.23,-0.64,-0.64,0.73,0.73,-0.79,-0.93,-0.78,-1.43,-1.43,-1.37
354.74,-0.64,-0.60,0.72,0.75,-0.82,-0.93,-0.77,-1.45,-1.41,-1.35
358.28,-0.53,-0.53,0.81,0.80,-0.84,-0.92,-0.75,-1.36,-1.37,-1.33
361.87,-0.44,-0.46,0.88,0.86,-0.85,-0.92,-0.74,-1.28,-1.31,-1.32
365.49,-0.41,-0.41,0.90,0.90,-0.85,-0.92,-0.73,-1.26,-1.26,-1.31
369.14,-0.41,-0.39,0.90,0.91,-0.85,-0.92,-0.71,-1.25,-1.24,-1.30
372.83,-0.41,-0.40,0.88,0.89,-0.83,-0.91,-0.70,-1.24,-1.23,-1.28
376.56,-0.41,-0.44,0.87,0.83,-0.81,-0.91,-0.69,-1.21,-1.25,-1.27
380.33,-0.50,-0.50,0.75,0.75,-0.77,-0.91,-0.68,-1.26,-1.27,-1.25
384.13,-0.61,-0.57,0.63,0.66,-0.71,-0.90,-0.67,-1.31,-1.28,-1.24
387.97,-0.64,-0.63,0.59,0.60,-0.64,-0.90,-0.66,-1.28,-1.27,-1.23
391.85,-0.64,-0.64,0.59,0.58,-0.58,-0.90,-0.65,-1.22,-1.22,-1.22
395.77,-0.64,-0.63,0.57,0.57,-0.53,-0.89,-0.64,-1.17,-1.16,-1.20
399.73,-0.64,-0.68,0.56,0.51,-0.49,-0.89,-0.63,-1.13,-1.17,-1.19
403.72,-0.73,-0.74,0.46,0.45,-0.47,-0.88,-0.63,-1.19,-1.20,-1.18
407.76,-0.84,-0.76,0.34,0.41,-0.45,-0.88,-0.62,-1.29,-1.21,-1.18
411.84,-0.74,-0.74,0.42,0.42,-0.45,-0.88,-0.61,-1.19,-1.19,-1.16
415.96,-0.65,-0.69,0.50,0.46,-0.46,-0.87,-0.61,-1.10,-1.15,-1.15
420.12,-0.64,-0.64,0.50,0.50,-0.47,-0.87,-0.60,-1.11,-1.12,-1.14
424.32,-0.64,-0.63,0.50,0.50,-0.50,-0.86,-0.59,-1.13,-1.13,-1.13
428.56,-0.64,-0.60,0.49,0.52,-0.53,-0.86,-0.59,-1.17,-1.13,-1.12
432.85,-0.55,-0.53,0.57,0.58,-0.57,-0.85,-0.58,-1.11,-1.10,-1.11
437.18,-0.43,-0.46,0.68,0.64,-0.61,-0.85,-0.58,-1.03,-1.07,-1.10
441.55,-0.41,-0.43,0.68,0.66,-0.65,-0.84,-0.58,-1.06,-1.08,-1.08
445.96,-0.41,-0.39,0.67,0.68,-0.70,-0.83,-0.57,-1.10,-1.09,-1.08
450.42,-0.41,-0.35,0.66,0.71,-0.76,-0.83,-0.57,-1.16,-1.11,-1.07
454.93,-0.24,-0.28,0.81,0.77,-0.83,-0.82,-0.56,-1.06,-1.11,-1.05
459.48,-0.19,-0.18,0.85,0.86,-0.89,-0.82,-0.56,-1.08,-1.06,-1.04
464.07,-0.09,-0.07,0.93,0.95,-0.94,-0.81,-0.55,-1.03,-1.01,-1.02
468.71,0.01,-0.01,1.01,0.99,-0.97,-0.80,-0.55,-0.96,-0.98,-1.00
473.40,0.04,0.04,1.04,1.03,-0.98,-0.80,-0.55,-0.94,-0.94,-0.99
