frequency,raw,smoothed,error,error_smoothed,equalization,parametric_eq,fixed_band_eq,equalized_raw,equalized_smoothed,target
20.00,-2.46,-2.46,-5.82,-5.82,5.82,4.96,2.11,3.36,3.36,3.36
20.20,-2.42,-2.41,-5.82,-5.81,5.81,4.95,2.17,3.40,3.40,3.40
20.40,-2.37,-2.37,-5.79,-5.80,5.80,4.94,2.24,3.44,3.43,3.43
20.61,-2.33,-2.32,-5.78,-5.79,5.79,4.93,2.30,3.46,3.47,3.46
20.81,-2.28,-2.28,-5.77,-5.78,5.77,4.93,2.37,3.50,3.50,3.50
21.02,-2.24,-2.23,-5.77,-5.76,5.75,4.92,2.44,3.52,3.52,3.54
21.23,-2.19,-2.18,-5.73,-5.74,5.73,4.91,2.51,3.55,3.55,3.55
21.44,-2.13,-2.14,-5.70,-5.71,5.70,4.90,2.58,3.57,3.57,3.57
21.66,-2.09,-2.09,-5.67,-5.67,5.67,4.89,2.66,3.59,3.59,3.59
21.87,-2.03,-2.03,-5.63,-5.63,5.63,4.88,2.73,3.60,3.60,3.60
22.09,-1.98,-1.99,-5.60,-5.60,5.59,4.87,2.81,3.61,3.61,3.62
22.31,-1.93,-1.93,-5.55,-5.55,5.55,4.86,2.90,3.62,3.62,3.61
22.54,-1.89,-1.88,-5.51,-5.51,5.50,4.85,2.98,3.62,3.62,3.62
22.76,-1.83,-1.83,-5.46,-5.46,5.45,4.84,3.07,3.63,3.62,3.63
22.99,-1.78,-1.78,-5.41,-5.41,5.41,4.83,3.15,3.63,3.63,3.63
23.22,-1.73,-1.72,-5.37,-5.36,5.36,4.82,3.24,3.64,3.64,3.64
23.45,-1.67,-1.67,-5.32,-5.32,5.32,4.81,3.33,3.66,3.66,3.65
23.69,-1.62,-1.61,-5.28,-5.27,5.29,4.80,3.43,3.68,3.68,3.66
23.92,-1.57,-1.57,-5.23,-5.24,5.27,4.79,3.52,3.71,3.70,3.67
24.16,-1.55,-1.55,-5.22,-5.23,5.25,4.78,3.62,3.70,3.70,3.68
24.40,-1.55,-1.54,-5.23,-5.23,5.23,4.77,3.72,3.68,3.68,3.69
24.65,-1.55,-1.55,-5.22,-5.23,5.20,4.76,3.82,3.66,3.65,3.68
24.89,-1.54,-1.54,-5.22,-5.22,5.17,4.75,3.92,3.63,3.64,3.68
25.14,-1.51,-1.51,-5.19,-5.18,5.15,4.74,4.03,3.63,3.64,3.67
25.39,-1.45,-1.46,-5.13,-5.13,5.12,4.72,4.13,3.66,3.66,3.67
25.65,-1.40,-1.39,-5.07,-5.06,5.09,4.71,4.23,3.69,3.70,3.67
25.91,-1.34,-1.35,-5.00,-5.01,5.06,4.70,4.34,3.72,3.71,3.66
26.16,-1.32,-1.32,-4.99,-4.99,5.03,4.69,4.44,3.71,3.71,3.67
26.43,-1.32,-1.32,-4.99,-4.98,4.99,4.68,4.54,3.68,3.68,3.67
26.69,-1.32,-1.32,-4.98,-4.99,4.96,4.67,4.64,3.64,3.64,3.67
26.96,-1.32,-1.30,-4.98,-4.97,4.92,4.66,4.75,3.61,3.62,3.67
27.23,-1.27,-1.26,-4.93,-4.93,4.89,4.65,4.84,3.63,3.63,3.67
27.50,-1.21,-1.21,-4.87,-4.87,4.87,4.64,4.94,3.66,3.66,3.66
27.77,-1.14,-1.15,-4.80,-4.80,4.84,4.62,5.03,3.69,3.69,3.65
28.05,-1.10,-1.11,-4.75,-4.76,4.81,4.61,5.12,3.71,3.70,3.65
28.33,-1.10,-1.10,-4.74,-4.74,4.77,4.60,5.20,3.67,3.67,3.64
28.62,-1.10,-1.10,-4.74,-4.74,4.72,4.59,5.28,3.63,3.63,3.65
28.90,-1.10,-1.09,-4.74,-4.73,4.69,4.58,5.36,3.59,3.60,3.65
29.19,-1.06,-1.05,-4.69,-4.69,4.65,4.57,5.43,3.60,3.61,3.64
29.48,-0.98,-0.99,-4.63,-4.63,4.63,4.55,5.48,3.64,3.64,3.64
29.78,-0.92,-0.92,-4.56,-4.56,4.60,4.54,5.54,3.68,3.67,3.64
30.08,-0.87,-0.88,-4.51,-4.52,4.56,4.53,5.58,3.69,3.68,3.64
30.38,-0.87,-0.87,-4.49,-4.50,4.51,4.52,5.62,3.65,3.64,3.63
30.68,-0.87,-0.86,-4.49,-4.49,4.46,4.51,5.65,3.60,3.60,3.63
30.99,-0.87,-0.85,-4.48,-4.46,4.42,4.49,5.68,3.55,3.57,3.61
31.30,-0.80,-0.79,-4.41,-4.41,4.37,4.48,5.69,3.58,3.58,3.61
31.61,-0.73,-0.73,-4.34,-4.33,4.33,4.47,5.69,3.61,3.61,3.61
31.93,-0.66,-0.67,-4.25,-4.27,4.30,4.46,5.69,3.64,3.63,3.60
32.24,-0.64,-0.64,-4.22,-4.23,4.27,4.44,5.68,3.63,3.63,3.58
32.57,-0.64,-0.63,-4.22,-4.21,4.24,4.43,5.65,3.60,3.61,3.58
32.89,-0.64,-0.63,-4.22,-4.21,4.21,4.42,5.63,3.58,3.58,3.58
33.22,-0.64,-0.64,-4.21,-4.21,4.20,4.40,5.59,3.57,3.57,3.58
33.55,-0.64,-0.64,-4.21,-4.21,4.20,4.39,5.55,3.56,3.56,3.57
33.89,-0.64,-0.64,-4.21,-4.21,4.20,4.38,5.50,3.56,3.56,3.57
34.23,-0.64,-0.64,-4.20,-4.20,4.20,4.36,5.44,3.56,3.56,3.57
34.57,-0.64,-0.64,-4.19,-4.19,4.20,4.35,5.38,3.56,3.56,3.56
34.92,-0.64,-0.64,-4.19,-4.19,4.20,4.34,5.32,3.56,3.56,3.55
35.27,-0.64,-0.64,-4.18,-4.18,4.19,4.32,5.25,3.56,3.56,3.55
35.62,-0.64,-0.64,-4.17,-4.17,4.18,4.31,5.18,3.55,3.55,3.54
35.97,-0.64,-0.63,-4.17,-4.17,4.16,4.30,5.10,3.53,3.53,3.53
36.33,-0.63,-0.63,-4.15,-4.16,4.13,4.28,5.02,3.51,3.50,3.53
36.70,-0.62,-0.62,-4.14,-4.14,4.09,4.27,4.94,3.48,3.48,3.52
37.06,-0.59,-0.57,-4.10,-4.09,4.05,4.25,4.87,3.45,3.47,3.51
37.43,-0.51,-0.52,-4.02,-4.02,4.01,4.24,4.78,3.49,3.49,3.51
37.81,-0.45,-0.46,-3.95,-3.95,3.98,4.23,4.70,3.53,3.52,3.50
38.19,-0.41,-0.41,-3.89,-3.90,3.95,4.21,4.62,3.55,3.55,3.49
38.57,-0.41,-0.40,-3.89,-3.88,3.95,4.20,4.55,3.54,3.55,3.48
38.95,-0.41,-0.43,-3.88,-3.90,3.95,4.18,4.47,3.54,3.52,3.48
39.34,-0.49,-0.49,-3.95,-3.95,3.96,4.17,4.39,3.48,3.47,3.46
39.74,-0.58,-0.56,-4.02,-4.02,3.99,4.15,4.31,3.41,3.43,3.45
40.14,-0.63,-0.62,-4.09,-4.07,4.02,4.14,4.24,3.38,3.40,3.45
40.54,-0.64,-0.64,-4.08,-4.09,4.04,4.12,4.17,3.41,3.40,3.45
40.94,-0.64,-0.64,-4.08,-4.08,4.06,4.10,4.10,3.42,3.42,3.44
41.35,-0.64,-0.64,-4.06,-4.06,4.07,4.09,4.03,3.43,3.43,3.42
41.76,-0.64,-0.64,-4.04,-4.04,4.06,4.07,3.97,3.42,3.42,3.41
42.18,-0.64,-0.64,-4.03,-4.02,4.04,4.05,3.90,3.40,3.40,3.39
42.60,-0.64,-0.64,-4.00,-4.01,4.01,4.04,3.84,3.37,3.37,3.36
43.03,-0.64,-0.64,-3.98,-3.98,3.98,4.02,3.79,3.34,3.34,3.35
43.46,-0.64,-0.64,-3.96,-3.95,3.94,4.00,3.73,3.31,3.31,3.32
43.90,-0.64,-0.64,-3.91,-3.92,3.91,3.98,3.68,3.28,3.28,3.27
44.33,-0.64,-0.64,-3.88,-3.88,3.88,3.96,3.63,3.24,3.24,3.24
44.78,-0.64,-0.64,-3.84,-3.84,3.85,3.95,3.59,3.21,3.21,3.21
45.23,-0.64,-0.64,-3.81,-3.81,3.82,3.93,3.55,3.18,3.18,3.18
45.68,-0.64,-0.64,-3.79,-3.79,3.78,3.91,3.51,3.15,3.15,3.15
46.13,-0.64,-0.64,-3.77,-3.77,3.76,3.89,3.47,3.13,3.13,3.13
46.60,-0.64,-0.64,-3.76,-3.75,3.75,3.87,3.43,3.11,3.11,3.12
47.06,-0.64,-0.63,-3.74,-3.73,3.74,3.84,3.40,3.11,3.11,3.10
47.53,-0.64,-0.63,-3.73,-3.73,3.75,3.82,3.37,3.12,3.12,3.09
48.01,-0.64,-0.65,-3.73,-3.74,3.77,3.80,3.35,3.14,3.12,3.09
48.49,-0.70,-0.70,-3.78,-3.78,3.80,3.78,3.32,3.10,3.10,3.08
48.97,-0.77,-0.76,-3.84,-3.83,3.83,3.75,3.30,3.06,3.07,3.07
49.46,-0.82,-0.82,-3.87,-3.88,3.86,3.73,3.28,3.04,3.04,3.06
49.96,-0.87,-0.85,-3.92,-3.91,3.89,3.70,3.26,3.02,3.03,3.06
50.46,-0.87,-0.87,-3.93,-3.93,3.91,3.68,3.24,3.05,3.04,3.06
50.96,-0.87,-0.87,-3.94,-3.94,3.93,3.65,3.23,3.06,3.06,3.07
51.47,-0.87,-0.87,-3.92,-3.93,3.93,3.62,3.22,3.07,3.07,3.06
51.99,-0.87,-0.87,-3.91,-3.91,3.93,3.59,3.21,3.07,3.07,3.05
52.51,-0.87,-0.87,-3.90,-3.90,3.91,3.56,3.20,3.05,3.05,3.03
53.03,-0.87,-0.87,-3.87,-3.87,3.88,3.53,3.19,3.01,3.01,3.01
53.56,-0.87,-0.87,-3.84,-3.84,3.83,3.49,3.18,2.96,2.96,2.97
54.10,-0.87,-0.88,-3.79,-3.81,3.77,3.46,3.17,2.90,2.89,2.93
54.64,-0.87,-0.85,-3.75,-3.73,3.70,3.42,3.16,2.83,2.85,2.88
55.18,-0.82,-0.79,-3.66,-3.62,3.62,3.38,3.16,2.80,2.83,2.83
55.74,-0.70,-0.72,-3.47,-3.50,3.53,3.34,3.15,2.83,2.81,2.78
56.29,-0.64,-0.66,-3.37,-3.39,3.43,3.30,3.14,2.79,2.77,2.73
56.86,-0.64,-0.64,-3.31,-3.31,3.32,3.25,3.13,2.68,2.68,2.67
57.42,-0.64,-0.63,-3.24,-3.24,3.21,3.20,3.12,2.57,2.57,2.60
58.00,-0.64,-0.59,-3.18,-3.13,3.10,3.15,3.11,2.46,2.51,2.54
58.58,-0.51,-0.52,-2.99,-3.00,2.99,3.10,3.10,2.49,2.48,2.48
59.16,-0.41,-0.45,-2.84,-2.87,2.90,3.04,3.09,2.49,2.45,2.43
59.76,-0.41,-0.40,-2.78,-2.77,2.81,2.98,3.08,2.40,2.41,2.37
60.35,-0.41,-0.40,-2.71,-2.70,2.73,2.92,3.06,2.32,2.33,2.30
60.96,-0.41,-0.41,-2.65,-2.65,2.64,2.86,3.04,2.24,2.24,2.25
61.57,-0.41,-0.41,-2.58,-2.58,2.57,2.79,3.02,2.16,2.16,2.18
62.18,-0.41,-0.41,-2.52,-2.52,2.50,2.72,3.00,2.10,2.10,2.11
62.80,-0.41,-0.41,-2.47,-2.47,2.45,2.65,2.98,2.04,2.04,2.07
63.43,-0.41,-0.41,-2.42,-2.42,2.40,2.58,2.95,2.00,2.00,2.01
64.07,-0.41,-0.41,-2.37,-2.37,2.37,2.51,2.92,1.97,1.97,1.97
64.71,-0.41,-0.39,-2.32,-2.31,2.35,2.45,2.89,1.94,1.96,1.92
65.35,-0.41,-0.40,-2.28,-2.28,2.33,2.39,2.86,1.93,1.93,1.87
66.01,-0.41,-0.46,-2.24,-2.29,2.33,2.33,2.83,1.92,1.87,1.83
66.67,-0.55,-0.53,-2.35,-2.33,2.32,2.28,2.79,1.77,1.79,1.79
67.33,-0.64,-0.60,-2.40,-2.37,2.32,2.24,2.75,1.69,1.72,1.76
68.01,-0.64,-0.65,-2.37,-2.38,2.32,2.20,2.71,1.69,1.68,1.73
68.69,-0.64,-0.64,-2.34,-2.34,2.32,2.18,2.67,1.68,1.68,1.70
69.37,-0.64,-0.64,-2.31,-2.31,2.31,2.16,2.63,1.68,1.68,1.67
70.07,-0.64,-0.64,-2.27,-2.28,2.29,2.16,2.59,1.66,1.66,1.64
70.77,-0.64,-0.64,-2.26,-2.25,2.26,2.16,2.55,1.63,1.63,1.62
71.48,-0.64,-0.64,-2.23,-2.23,2.22,2.16,2.50,1.59,1.59,1.59
72.19,-0.64,-0.64,-2.20,-2.20,2.18,2.17,2.46,1.55,1.55,1.57
72.91,-0.64,-0.64,-2.16,-2.17,2.15,2.19,2.41,1.52,1.52,1.53
73.64,-0.64,-0.64,-2.14,-2.14,2.13,2.20,2.36,1.50,1.50,1.50
74.38,-0.64,-0.63,-2.11,-2.10,2.12,2.22,2.32,1.49,1.50,1.47
75.12,-0.64,-0.63,-2.07,-2.07,2.12,2.23,2.27,1.48,1.49,1.44
75.87,-0.64,-0.67,-2.04,-2.08,2.12,2.24,2.23,1.48,1.45,1.41
76.63,-0.75,-0.74,-2.12,-2.12,2.13,2.26,2.18,1.38,1.39,1.38
77.40,-0.84,-0.81,-2.19,-2.16,2.13,2.26,2.14,1.30,1.32,1.36
78.17,-0.87,-0.86,-2.19,-2.19,2.14,2.27,2.10,1.28,1.28,1.32
78.95,-0.87,-0.87,-2.18,-2.18,2.15,2.27,2.05,1.28,1.28,1.31
79.74,-0.87,-0.87,-2.16,-2.16,2.15,2.27,2.01,1.29,1.28,1.30
80.54,-0.87,-0.87,-2.14,-2.14,2.15,2.27,1.97,1.29,1.29,1.27
81.35,-0.87,-0.87,-2.12,-2.13,2.15,2.26,1.93,1.29,1.29,1.26
82.16,-0.87,-0.87,-2.12,-2.12,2.15,2.26,1.89,1.28,1.28,1.25
82.98,-0.87,-0.87,-2.12,-2.12,2.14,2.25,1.85,1.27,1.27,1.26
83.81,-0.87,-0.87,-2.12,-2.11,2.12,2.23,1.82,1.26,1.26,1.25
84.65,-0.87,-0.87,-2.11,-2.12,2.10,2.22,1.78,1.24,1.23,1.24
85.50,-0.87,-0.88,-2.12,-2.13,2.08,2.20,1.75,1.21,1.20,1.25
86.35,-0.87,-0.84,-2.12,-2.09,2.05,2.19,1.71,1.18,1.21,1.25
87.22,-0.82,-0.77,-2.07,-2.03,2.01,2.17,1.68,1.19,1.24,1.25
88.09,-0.64,-0.70,-1.89,-1.96,1.97,2.15,1.65,1.34,1.27,1.25
88.97,-0.64,-0.64,-1.91,-1.90,1.94,2.12,1.62,1.31,1.30,1.27
89.86,-0.64,-0.62,-1.91,-1.89,1.93,2.10,1.60,1.29,1.31,1.27
90.76,-0.64,-0.63,-1.89,-1.89,1.92,2.08,1.57,1.29,1.29,1.26
91.66,-0.64,-0.63,-1.90,-1.89,1.93,2.05,1.54,1.29,1.30,1.27
92.58,-0.64,-0.67,-1.88,-1.92,1.95,2.03,1.52,1.31,1.28,1.24
93.51,-0.74,-0.74,-1.98,-1.99,1.98,2.00,1.49,1.24,1.24,1.25
94.44,-0.85,-0.81,-2.08,-2.04,2.00,1.97,1.47,1.16,1.19,1.24
95.39,-0.87,-0.86,-2.09,-2.08,2.03,1.95,1.45,1.16,1.16,1.22
96.34,-0.87,-0.88,-2.05,-2.07,2.04,1.92,1.43,1.17,1.16,1.19
97.30,-0.87,-0.87,-2.04,-2.04,2.04,1.89,1.41,1.17,1.17,1.17
98.28,-0.87,-0.87,-2.01,-2.01,2.03,1.86,1.39,1.16,1.16,1.15
99.26,-0.87,-0.87,-1.99,-1.99,2.00,1.83,1.38,1.14,1.14,1.12
100.25,-0.87,-0.87,-1.96,-1.96,1.97,1.80,1.36,1.10,1.10,1.09
101.25,-0.87,-0.87,-1.92,-1.92,1.93,1.77,1.34,1.06,1.06,1.06
102.27,-0.87,-0.87,-1.89,-1.89,1.89,1.74,1.33,1.02,1.02,1.02
103.29,-0.87,-0.87,-1.84,-1.85,1.85,1.71,1.32,0.98,0.98,0.98
104.32,-0.87,-0.87,-1.81,-1.80,1.80,1.68,1.30,0.94,0.94,0.94
105.37,-0.87,-0.87,-1.76,-1.76,1.75,1.64,1.29,0.88,0.88,0.89
106.42,-0.87,-0.87,-1.70,-1.70,1.69,1.61,1.28,0.82,0.82,0.84
107.48,-0.87,-0.87,-1.64,-1.63,1.62,1.58,1.26,0.75,0.75,0.77
108.56,-0.87,-0.87,-1.56,-1.56,1.55,1.55,1.25,0.69,0.69,0.69
109.64,-0.87,-0.87,-1.49,-1.50,1.49,1.51,1.24,0.63,0.63,0.63
110.74,-0.87,-0.86,-1.43,-1.42,1.44,1.48,1.23,0.57,0.58,0.56
111.85,-0.87,-0.85,-1.36,-1.34,1.39,1.44,1.21,0.53,0.54,0.50
112.97,-0.87,-0.89,-1.28,-1.31,1.35,1.41,1.20,0.48,0.46,0.41
114.10,-0.91,-0.96,-1.25,-1.30,1.31,1.37,1.19,0.40,0.35,0.35
115.24,-1.09,-1.03,-1.37,-1.30,1.27,1.33,1.18,0.18,0.24,0.27
116.39,-1.10,-1.09,-1.29,-1.29,1.24,1.29,1.16,0.14,0.15,0.20
117.55,-1.10,-1.11,-1.23,-1.25,1.20,1.26,1.15,0.11,0.09,0.13
118.73,-1.10,-1.10,-1.16,-1.17,1.17,1.22,1.13,0.08,0.08,0.07
119.92,-1.10,-1.10,-1.12,-1.12,1.13,1.18,1.12,0.04,0.04,0.03
121.12,-1.10,-1.10,-1.07,-1.07,1.09,1.14,1.10,-0.00,-0.00,-0.03
122.33,-1.10,-1.10,-1.03,-1.03,1.05,1.09,1.08,-0.05,-0.05,-0.07
123.55,-1.10,-1.10,-1.00,-1.00,1.00,1.05,1.07,-0.09,-0.09,-0.09
124.79,-1.10,-1.10,-0.96,-0.97,0.96,1.01,1.05,-0.13,-0.13,-0.13
126.03,-1.10,-1.10,-0.93,-0.93,0.93,0.96,1.03,-0.17,-0.17,-0.16
127.29,-1.10,-1.10,-0.90,-0.90,0.90,0.92,1.01,-0.20,-0.20,-0.19
128.57,-1.10,-1.10,-0.86,-0.87,0.87,0.88,0.99,-0.23,-0.23,-0.23
129.85,-1.10,-1.10,-0.83,-0.83,0.84,0.83,0.96,-0.26,-0.26,-0.26
131.15,-1.10,-1.10,-0.81,-0.80,0.80,0.79,0.94,-0.29,-0.29,-0.29
132.46,-1.10,-1.10,-0.77,-0.77,0.77,0.74,0.91,-0.32,-0.32,-0.33
133.79,-1.10,-1.10,-0.74,-0.74,0.74,0.70,0.89,-0.36,-0.36,-0.35
135.12,-1.10,-1.10,-0.70,-0.71,0.70,0.65,0.86,-0.40,-0.40,-0.40
136.48,-1.10,-1.10,-0.67,-0.67,0.66,0.61,0.84,-0.44,-0.44,-0.42
137.84,-1.10,-1.10,-0.64,-0.63,0.62,0.56,0.81,-0.48,-0.48,-0.46
139.22,-1.10,-1.10,-0.58,-0.59,0.58,0.52,0.78,-0.51,-0.51,-0.51
140.61,-1.10,-1.10,-0.54,-0.55,0.56,0.47,0.75,-0.54,-0.54,-0.55
142.02,-1.10,-1.08,-0.52,-0.50,0.54,0.43,0.72,-0.55,-0.54,-0.58
143.44,-1.10,-1.10,-0.48,-0.48,0.53,0.39,0.69,-0.57,-0.57,-0.62
144.87,-1.10,-1.15,-0.44,-0.49,0.52,0.34,0.66,-0.58,-0.63,-0.66
146.32,-1.25,-1.22,-0.54,-0.52,0.51,0.30,0.63,-0.74,-0.71,-0.71
147.78,-1.32,-1.29,-0.57,-0.53,0.49,0.26,0.60,-0.82,-0.79,-0.75
149.26,-1.32,-1.33,-0.50,-0.51,0.46,0.22,0.57,-0.85,-0.86,-0.81
150.75,-1.32,-1.32,-0.42,-0.44,0.42,0.18,0.53,-0.90,-0.90,-0.89
152.26,-1.32,-1.32,-0.36,-0.36,0.35,0.15,0.50,-0.96,-0.97,-0.96
153.78,-1.32,-1.33,-0.28,-0.29,0.26,0.11,0.47,-1.06,-1.07,-1.03
155.32,-1.32,-1.31,-0.19,-0.19,0.14,0.07,0.44,-1.17,-1.17,-1.13
156.88,-1.31,-1.26,-0.10,-0.05,0.03,0.04,0.40,-1.28,-1.23,-1.20
158.44,-1.16,-1.19,0.12,0.09,-0.08,0.01,0.37,-1.24,-1.27,-1.27
160.03,-1.10,-1.12,0.25,0.22,-0.17,-0.03,0.34,-1.27,-1.30,-1.35
161.63,-1.10,-1.07,0.31,0.34,-0.24,-0.06,0.30,-1.34,-1.31,-1.41
163.24,-1.10,-1.09,0.36,0.37,-0.29,-0.09,0.27,-1.39,-1.39,-1.46
164.88,-1.10,-1.15,0.40,0.35,-0.32,-0.12,0.24,-1.42,-1.48,-1.50
166.53,-1.27,-1.23,0.27,0.31,-0.33,-0.15,0.20,-1.60,-1.56,-1.54
168.19,-1.32,-1.29,0.25,0.28,-0.32,-0.17,0.17,-1.63,-1.61,-1.57
169.87,-1.32,-1.33,0.27,0.26,-0.29,-0.20,0.14,-1.61,-1.62,-1.58
171.57,-1.32,-1.32,0.28,0.27,-0.27,-0.23,0.10,-1.59,-1.59,-1.59
173.29,-1.32,-1.32,0.27,0.27,-0.26,-0.25,0.07,-1.58,-1.58,-1.59
175.02,-1.32,-1.32,0.26,0.26,-0.27,-0.27,0.04,-1.59,-1.60,-1.57
176.77,-1.32,-1.32,0.26,0.25,-0.30,-0.30,0.00,-1.61,-1.62,-1.58
178.54,-1.32,-1.29,0.26,0.28,-0.32,-0.32,-0.03,-1.64,-1.62,-1.57
180.32,-1.25,-1.23,0.32,0.33,-0.34,-0.34,-0.07,-1.59,-1.58,-1.56
182.13,-1.15,-1.15,0.41,0.41,-0.36,-0.36,-0.10,-1.50,-1.51,-1.56
183.95,-1.10,-1.11,0.46,0.45,-0.36,-0.38,-0.13,-1.46,-1.48,-1.56
185.79,-1.10,-1.14,0.48,0.43,-0.37,-0.40,-0.17,-1.46,-1.51,-1.57
187.65,-1.26,-1.22,0.34,0.37,-0.37,-0.41,-0.20,-1.63,-1.59,-1.59
189.52,-1.32,-1.29,0.30,0.32,-0.37,-0.43,-0.24,-1.68,-1.66,-1.61
191.42,-1.32,-1.33,0.32,0.30,-0.36,-0.45,-0.27,-1.68,-1.69,-1.63
193.33,-1.32,-1.32,0.33,0.32,-0.35,-0.46,-0.30,-1.67,-1.67,-1.65
195.27,-1.32,-1.32,0.34,0.35,-0.35,-0.48,-0.34,-1.66,-1.66,-1.66
197.22,-1.32,-1.32,0.36,0.37,-0.36,-0.49,-0.37,-1.67,-1.67,-1.68
199.19,-1.32,-1.32,0.40,0.39,-0.37,-0.51,-0.40,-1.69,-1.69,-1.71
201.18,-1.32,-1.32,0.40,0.41,-0.40,-0.52,-0.44,-1.71,-1.71,-1.72
203.19,-1.32,-1.32,0.42,0.42,-0.42,-0.53,-0.47,-1.73,-1.73,-1.74
205.23,-1.32,-1.32,0.45,0.44,-0.43,-0.55,-0.50,-1.75,-1.75,-1.76
207.28,-1.32,-1.32,0.45,0.46,-0.45,-0.56,-0.54,-1.76,-1.76,-1.77
209.35,-1.32,-1.32,0.48,0.48,-0.46,-0.57,-0.57,-1.78,-1.78,-1.79
211.44,-1.32,-1.32,0.50,0.49,-0.49,-0.58,-0.60,-1.80,-1.80,-1.82
213.56,-1.32,-1.32,0.50,0.50,-0.52,-0.60,-0.63,-1.84,-1.84,-1.82
215.69,-1.32,-1.32,0.51,0.51,-0.56,-0.61,-0.66,-1.87,-1.88,-1.82
217.85,-1.32,-1.28,0.53,0.56,-0.60,-0.62,-0.69,-1.92,-1.88,-1.84
220.03,-1.23,-1.22,0.63,0.64,-0.64,-0.63,-0.72,-1.87,-1.87,-1.86
222.23,-1.13,-1.15,0.75,0.72,-0.69,-0.64,-0.75,-1.81,-1.84,-1.88
224.45,-1.10,-1.10,0.78,0.78,-0.73,-0.66,-0.77,-1.82,-1.83,-1.88
226.70,-1.10,-1.09,0.79,0.80,-0.77,-0.67,-0.80,-1.86,-1.85,-1.88
228.96,-1.10,-1.09,0.80,0.80,-0.79,-0.68,-0.82,-1.89,-1.89,-1.89
231.25,-1.10,-1.10,0.80,0.80,-0.81,-0.70,-0.84,-1.90,-1.90,-1.89
233.57,-1.10,-1.10,0.81,0.81,-0.81,-0.71,-0.87,-1.91,-1.91,-1.90
235.90,-1.10,-1.10,0.82,0.81,-0.81,-0.73,-0.88,-1.90,-1.90,-1.91
238.26,-1.10,-1.10,0.82,0.82,-0.80,-0.74,-0.90,-1.90,-1.90,-1.91
240.64,-1.10,-1.10,0.82,0.81,-0.82,-0.76,-0.92,-1.91,-1.91,-1.91
243.05,-1.10,-1.11,0.80,0.79,-0.84,-0.78,-0.93,-1.93,-1.95,-1.90
245.48,-1.10,-1.09,0.80,0.81,-0.86,-0.80,-0.94,-1.96,-1.95,-1.90
247.93,-1.10,-1.03,0.79,0.86,-0.89,-0.82,-0.95,-1.98,-1.92,-1.89
250.41,-0.91,-0.96,0.99,0.93,-0.91,-0.84,-0.96,-1.81,-1.86,-1.89
252.92,-0.87,-0.89,1.02,0.99,-0.93,-0.86,-0.97,-1.80,-1.82,-1.88
255.45,-0.87,-0.85,0.99,1.02,-0.96,-0.87,-0.97,-1.83,-1.81,-1.86
258.00,-0.87,-0.86,0.99,0.99,-0.99,-0.89,-0.97,-1.86,-1.85,-1.86
260.58,-0.87,-0.87,0.99,0.98,-1.02,-0.90,-0.98,-1.88,-1.89,-1.85
263.19,-0.87,-0.88,0.97,0.97,-1.03,-0.91,-0.97,-1.90,-1.91,-1.84
265.82,-0.87,-0.84,0.97,0.99,-1.03,-0.92,-0.97,-1.89,-1.86,-1.84
268.48,-0.81,-0.77,1.01,1.04,-1.01,-0.92,-0.97,-1.82,-1.79,-1.81
271.16,-0.68,-0.74,1.12,1.06,-0.99,-0.92,-0.96,-1.67,-1.73,-1.80
273.87,-0.72,-0.75,1.07,1.03,-0.97,-0.91,-0.95,-1.69,-1.72,-1.78
276.61,-0.85,-0.79,0.90,0.96,-0.95,-0.90,-0.94,-1.79,-1.74,-1.75
279.38,-0.87,-0.86,0.87,0.88,-0.92,-0.88,-0.94,-1.78,-1.77,-1.73
282.17,-0.87,-0.88,0.84,0.83,-0.88,-0.86,-0.92,-1.74,-1.75,-1.71
284.99,-0.87,-0.87,0.82,0.82,-0.83,-0.84,-0.91,-1.70,-1.70,-1.68
287.84,-0.87,-0.87,0.79,0.79,-0.79,-0.82,-0.90,-1.66,-1.66,-1.66
290.72,-0.87,-0.87,0.76,0.76,-0.75,-0.80,-0.89,-1.62,-1.62,-1.62
293.63,-0.87,-0.87,0.73,0.73,-0.72,-0.77,-0.87,-1.59,-1.59,-1.60
296.57,-0.87,-0.87,0.71,0.71,-0.70,-0.75,-0.86,-1.57,-1.57,-1.57
299.53,-0.87,-0.87,0.68,0.68,-0.68,-0.73,-0.84,-1.55,-1.55,-1.55
302.53,-0.87,-0.87,0.66,0.66,-0.66,-0.71,-0.83,-1.52,-1.52,-1.53
305.55,-0.87,-0.87,0.63,0.64,-0.63,-0.69,-0.82,-1.50,-1.50,-1.49
308.61,-0.87,-0.87,0.61,0.61,-0.61,-0.67,-0.80,-1.48,-1.48,-1.48
311.69,-0.87,-0.87,0.60,0.59,-0.59,-0.65,-0.79,-1.46,-1.46,-1.46
314.81,-0.87,-0.87,0.57,0.58,-0.57,-0.63,-0.77,-1.44,-1.44,-1.43
317.96,-0.87,-0.87,0.57,0.57,-0.56,-0.61,-0.76,-1.43,-1.43,-1.44
321.14,-0.87,-0.87,0.58,0.57,-0.57,-0.60,-0.74,-1.43,-1.43,-1.44
324.35,-0.87,-0.88,0.57,0.56,-0.58,-0.59,-0.73,-1.45,-1.46,-1.43
327.59,-0.87,-0.87,0.56,0.56,-0.60,-0.57,-0.71,-1.47,-1.48,-1.43
330.87,-0.87,-0.83,0.55,0.59,-0.63,-0.56,-0.70,-1.49,-1.45,-1.42
334.18,-0.77,-0.76,0.65,0.65,-0.65,-0.55,-0.69,-1.41,-1.40,-1.41
337.52,-0.65,-0.69,0.76,0.71,-0.66,-0.54,-0.68,-1.31,-1.35,-1.41
340.90,-0.64,-0.64,0.74,0.75,-0.68,-0.52,-0.66,-1.32,-1.32,-1.38
344.30,-0.64,-0.62,0.73,0.74,-0.70,-0.51,-0.65,-1.34,-1.33,-1.37
347.75,-0.64,-0.65,0.72,0.70,-0.73,-0.50,-0.64,-1.36,-1.37,-1.35
351.23,-0.64,-0.64,0.69,0.69,-0.75,-0.49,-0.63,-1.39,-1.39,-1.32
354.74,-0.64,-0.60,0.67,0.71,-0.77,-0.48,-0.62,-1.40,-1.37,-1.31
358.28,-0.53,-0.53,0.75,0.75,-0.78,-0.48,-0.61,-1.31,-1.31,-1.28
361.87,-0.44,-0.46,0.83,0.80,-0.78,-0.47,-0.60,-1.22,-1.25,-1.26
365.49,-0.41,-0.41,0.83,0.83,-0.78,-0.46,-0.59,-1.18,-1.19,-1.23
369.14,-0.41,-0.39,0.81,0.82,-0.76,-0.45,-0.59,-1.17,-1.15,-1.21
372.83,-0.41,-0.40,0.78,0.79,-0.74,-0.44,-0.58,-1.15,-1.14,-1.19
376.56,-0.41,-0.44,0.76,0.73,-0.71,-0.43,-0.57,-1.11,-1.14,-1.17
380.33,-0.50,-0.50,0.64,0.64,-0.66,-0.43,-0.57,-1.15,-1.16,-1.14
384.13,-0.61,-0.57,0.52,0.55,-0.60,-0.42,-0.56,-1.20,-1.17,-1.12
387.97,-0.64,-0.63,0.48,0.48,-0.53,-0.41,-0.56,-1.17,-1.16,-1.11
391.85,-0.64,-0.64,0.47,0.47,-0.47,-0.40,-0.55,-1.10,-1.10,-1.10
395.77,-0.64,-0.63,0.46,0.46,-0.42,-0.40,-0.55,-1.05,-1.05,-1.10
399.73,-0.64,-0.68,0.45,0.41,-0.38,-0.39,-0.54,-1.02,-1.06,-1.09
403.72,-0.73,-0.74,0.35,0.34,-0.36,-0.38,-0.54,-1.09,-1.10,-1.08
407.76,-0.84,-0.76,0.23,0.31,-0.35,-0.38,-0.54,-1.19,-1.11,-1.07
411.84,-0.74,-0.74,0.33,0.32,-0.35,-0.37,-0.53,-1.09,-1.10,-1.06
415.96,-0.65,-0.69,0.41,0.37,-0.37,-0.36,-0.53,-1.01,-1.06,-1.05
420.12,-0.64,-0.64,0.42,0.41,-0.39,-0.36,-0.53,-1.03,-1.03,-1.05
424.32,-0.64,-0.63,0.42,0.42,-0.42,-0.35,-0.52,-1.06,-1.06,-1.06
428.56,-0.64,-0.60,0.42,0.46,-0.46,-0.34,-0.52,-1.10,-1.06,-1.06
432.85,-0.55,-0.53,0.51,0.52,-0.51,-0.34,-0.52,-1.05,-1.04,-1.06
437.18,-0.43,-0.46,0.62,0.59,-0.55,-0.33,-0.52,-0.98,-1.02,-1.05
441.55,-0.41,-0.43,0.63,0.62,-0.61,-0.32,-0.52,-1.01,-1.03,-1.04
445.96,-0.41,-0.39,0.63,0.65,-0.66,-0.32,-0.52,-1.07,-1.05,-1.04
450.42,-0.41,-0.35,0.63,0.68,-0.73,-0.31,-0.51,-1.13,-1.08,-1.03
454.93,-0.24,-0.28,0.79,0.74,-0.80,-0.31,-0.51,-1.03,-1.08,-1.02
459.48,-0.19,-0.18,0.83,0.83,-0.86,-0.30,-0.51,-1.05,-1.04,-1.01
464.07,-0.09,-0.07,0.91,0.93,-0.92,-0.29,-0.51,-1.00,-0.99,-0.99
468.71,0.01,-0.01,0.99,0.97,-0.95,-0.29,-0.51,-0.93,-0.95,-0.97
473.40,0.04,0.04,1.01,1.00,-0.95,-0.28,-0.50,-0.90,-0.90,-0.97
478.13,0.04,0.07,0.98,1.01,-0.92,-0.28,-0.50,-0.87,-0.85,-0.94
