frequency,raw
20,5.70
21,5.98
22,6.26
23,6.53
24,6.79
25,7.03
26,7.27
27,7.50
28,7.72
29,7.92
30,8.12
31,8.31
32,8.46
33,8.63
34,8.80
35,8.95
36,9.09
37,9.24
38,9.37
39,9.49
40,9.61
41,9.73
42,9.84
43,9.94
44,10.03
45,10.15
46,10.25
47,10.33
48,10.42
49,10.48
50,10.56
51,10.63
52,10.71
53,10.78
54,10.83
55,10.88
56,10.95
57,11.02
58,11.08
59,11.13
60,11.19
61,11.25
62,11.31
63,11.37
64,11.44
65,11.51
66,11.58
67,11.62
68,11.66
69,11.70
70,11.75
71,11.80
72,11.84
73,11.88
74,11.92
75,11.97
76,12.01
77,12.05
78,12.07
79,12.08
80,12.10
81,12.13
82,12.17
83,12.20
84,12.24
85,12.27
86,12.30
87,12.32
88,12.34
89,12.37
90,12.41
91,12.44
92,12.47
93,12.48
94,12.49
95,12.51
96,12.52
97,12.54
98,12.56
99,12.58
100,12.60
101,12.63
102,12.67
104,12.70
105,12.74
106,12.77
107,12.80
108,12.82
109,12.84
110,12.84
111,12.84
112,12.85
113,12.85
114,12.85
115,12.87
117,12.89
118,12.92
119,12.96
120,12.99
121,13.03
123,13.06
124,13.09
125,13.12
126,13.14
128,13.15
129,13.16
130,13.17
131,13.18
133,13.19
134,13.20
135,13.22
137,13.25
138,13.28
140,13.32
141,13.35
142,13.38
144,13.42
145,13.44
147,13.47
148,13.48
150,13.49
151,13.49
153,13.48
154,13.48
156,13.49
157,13.51
159,13.53
160,13.56
162,13.59
164,13.62
165,13.66
167,13.69
169,13.72
170,13.75
172,13.78
174,13.80
175,13.81
177,13.81
179,13.81
181,13.82
183,13.82
184,13.84
186,13.86
188,13.89
190,13.92
192,13.95
194,13.99
196,14.02
198,14.05
200,14.08
202,14.11
204,14.12
206,14.13
208,14.14
210,14.15
212,14.15
214,14.16
216,14.18
218,14.21
221,14.24
223,14.27
225,14.30
227,14.34
229,14.37
232,14.40
234,14.43
236,14.45
239,14.46
241,14.46
244,14.46
246,14.46
248,14.46
251,14.47
253,14.49
256,14.51
259,14.54
261,14.57
264,14.61
266,14.64
269,14.67
272,14.71
274,14.74
277,14.76
280,14.78
283,14.80
286,14.81
288,14.82
291,14.81
294,14.81
297,14.81
300,14.80
303,14.79
306,14.77
309,14.75
312,14.72
316,14.69
319,14.67
322,14.64
325,14.62
328,14.58
332,14.54
335,14.50
338,14.47
342,14.43
345,14.39
349,14.34
352,14.31
356,14.27
359,14.22
363,14.16
366,14.10
370,14.02
374,13.95
377,13.87
381,13.78
385,13.69
389,13.60
393,13.51
397,13.41
401,13.31
405,13.20
409,13.09
413,12.98
417,12.85
421,12.73
425,12.61
430,12.49
434,12.34
438,12.20
443,12.06
447,11.91
451,11.76
456,11.61
460,11.44
465,11.27
470,11.10
474,10.91
479,10.73
484,10.54
489,10.35
494,10.13
499,9.92
504,9.71
509,9.50
514,9.29
519,9.06
524,8.82
529,8.59
535,8.37
540,8.14
545,7.93
551,7.70
556,7.48
562,7.26
568,7.03
573,6.79
579,6.54
585,6.29
591,6.04
596,5.78
602,5.52
608,5.27
615,5.01
621,4.76
627,4.50
633,4.25
639,4.01
646,3.77
652,3.54
659,3.31
665,3.09
672,2.87
679,2.64
686,2.41
692,2.18
699,1.96
706,1.74
713,1.52
721,1.31
728,1.11
735,0.91
742,0.72
750,0.54
757,0.38
765,0.22
773,0.07
780,-0.07
788,-0.19
796,-0.30
804,-0.40
812,-0.49
820,-0.57
828,-0.64
837,-0.70
845,-0.75
853,-0.78
862,-0.81
871,-0.82
879,-0.82
888,-0.81
897,-0.79
906,-0.76
915,-0.72
924,-0.67
933,-0.62
943,-0.55
952,-0.47
962,-0.39
971,-0.31
981,-0.22
991,-0.10
1001,0.01
1011,0.13
1021,0.24
1031,0.35
1041,0.49
1052,0.63
1062,0.77
1073,0.90
1084,1.03
1094,1.18
1105,1.33
1116,1.49
1128,1.67
1139,1.83
1150,1.99
1162,2.16
1173,2.32
1185,2.49
1197,2.66
1209,2.85
1221,3.04
1233,3.22
1246,3.41
1258,3.62
1271,3.82
1283,4.02
1296,4.23
1309,4.44
1322,4.66
1335,4.89
1349,5.12
1362,5.36
1376,5.58
1390,5.81
1404,6.04
1418,6.26
1432,6.49
1446,6.71
1461,6.95
1475,7.18
1490,7.41
1505,7.64
1520,7.86
1535,8.07
1550,8.27
1566,8.47
1582,8.66
1597,8.83
1613,8.99
1629,9.13
1646,9.25
1662,9.35
1679,9.44
1696,9.51
1713,9.56
1730,9.60
1747,9.63
1764,9.64
1782,9.64
1800,9.61
1818,9.56
1836,9.51
1854,9.43
1873,9.35
1892,9.26
1911,9.15
1930,9.01
1949,8.85
1969,8.67
1988,8.46
2008,8.24
2028,8.00
2048,7.76
2069,7.50
2090,7.21
2111,6.93
2132,6.63
2153,6.32
2175,6.00
2196,5.68
2218,5.37
2240,5.05
2263,4.74
2285,4.43
2308,4.12
2331,3.81
2355,3.49
2378,3.18
2402,2.87
2426,2.55
2450,2.24
2475,1.95
2500,1.66
2525,1.38
2550,1.10
2575,0.84
2601,0.58
2627,0.32
2653,0.08
2680,-0.16
2707,-0.39
2734,-0.62
2761,-0.84
2789,-1.06
2817,-1.27
2845,-1.50
2873,-1.74
2902,-1.97
2931,-2.19
2960,-2.41
2990,-2.63
3020,-2.84
3050,-3.05
3080,-3.23
3111,-3.42
3142,-3.61
3174,-3.78
3206,-3.94
3238,-4.11
3270,-4.27
3303,-4.41
3336,-4.55
3369,-4.68
3403,-4.81
3437,-4.93
3471,-5.05
3506,-5.16
3541,-5.25
3576,-5.34
3612,-5.43
3648,-5.51
3685,-5.59
3721,-5.65
3759,-5.71
3796,-5.76
3834,-5.82
3873,-5.85
3911,-5.89
3950,-5.93
3990,-5.96
4030,-5.97
4070,-5.98
4111,-5.99
4152,-5.99
4193,-5.99
4235,-5.98
4278,-5.98
4321,-5.98
4364,-5.99
4407,-5.99
4451,-5.98
4496,-5.97
4541,-5.96
4586,-5.95
4632,-5.92
4679,-5.90
4725,-5.87
4773,-5.83
4820,-5.76
4868,-5.69
4917,-5.61
4966,-5.51
5016,-5.41
5066,-5.29
5117,-5.17
5168,-5.04
5220,-4.91
5272,-4.77
5325,-4.64
5378,-4.51
5432,-4.39
5486,-4.29
5541,-4.21
5596,-4.13
5652,-4.08
5709,-4.05
5766,-4.02
5823,-4.01
5882,-3.99
5940,-3.99
6000,-4.00
6060,-4.02
6120,-4.04
6182,-4.05
6244,-4.06
6306,-4.05
6369,-4.03
6433,-3.99
6497,-3.94
6562,-3.87
6628,-3.82
6694,-3.77
6761,-3.72
6828,-3.67
6897,-3.61
6966,-3.55
7035,-3.49
7106,-3.45
7177,-3.42
7249,-3.40
7321,-3.39
7394,-3.41
7468,-3.43
7543,-3.47
7618,-3.52
7694,-3.58
7771,-3.66
7849,-3.77
7928,-3.91
8007,-4.11
8087,-4.34
8168,-4.61
8250,-4.93
8332,-5.28
8415,-5.67
8499,-6.09
8584,-6.54
8670,-7.02
8757,-7.50
8845,-7.98
8933,-8.47
9022,-8.94
9113,-9.40
9204,-9.84
9296,-10.26
9389,-10.65
9483,-11.02
9577,-11.36
9673,-11.68
9770,-11.97
9868,-12.23
9966,-12.46
10066,-12.67
10167,-12.84
10268,-12.96
10371,-13.02
10475,-13.02
10579,-12.96
10685,-12.83
10792,-12.64
10900,-12.39
11009,-12.10
11119,-11.77
11230,-11.43
11343,-11.08
11456,-10.75
11571,-10.45
11686,-10.18
11803,-9.94
11921,-9.75
12040,-9.59
12161,-9.48
12282,-9.42
12405,-9.39
12529,-9.39
12655,-9.43
12781,-9.48
12909,-9.55
13038,-9.65
13168,-9.80
13300,-9.98
13433,-10.23
13567,-10.55
13703,-10.96
13840,-11.47
13978,-12.07
14118,-12.76
14259,-13.54
14402,-14.38
14546,-15.29
14692,-16.24
14838,-17.21
14987,-18.19
15137,-19.14
15288,-20.06
15441,-20.90
15595,-21.65
15751,-22.32
15909,-22.89
16068,-23.35
16229,-23.69
16391,-23.92
16555,-24.03
16720,-24.06
16888,-23.99
17056,-23.85
17227,-23.63
17399,-23.36
17573,-23.08
17749,-22.76
17926,-22.43
18106,-22.10
18287,-21.89
18470,-21.67
18654,-21.47
18841,-21.26
19029,-21.07
19220,-20.88
19412,-20.70
19606,-20.53
19802,-20.36
20000,-20.19
