frequency,raw,error,smoothed,error_smoothed,equalization,parametric_eq,equalized_raw,equalized_smoothed,target
20,-15.66,-14.37,-15.67,-14.38,6.00,2.71,-9.66,-9.67,-1.29
21,-15.05,-13.76,-14.99,-13.70,6.00,3.13,-9.05,-8.99,-1.29
22,-14.32,-13.03,-14.32,-13.03,6.00,3.58,-8.32,-8.32,-1.29
23,-13.60,-12.31,-13.65,-12.36,6.00,4.06,-7.60,-7.65,-1.29
24,-12.95,-11.66,-12.99,-11.70,6.00,4.58,-6.95,-6.99,-1.29
25,-12.33,-11.04,-12.33,-11.04,6.00,5.11,-6.33,-6.33,-1.29
26,-11.73,-10.44,-11.68,-10.39,6.00,5.63,-5.73,-5.68,-1.29
27,-11.14,-9.85,-11.03,-9.74,6.00,6.13,-5.14,-5.03,-1.29
28,-10.49,-9.20,-10.38,-9.09,6.00,6.55,-4.49,-4.38,-1.29
29,-9.86,-8.57,-9.74,-8.45,6.00,6.88,-3.86,-3.74,-1.29
30,-9.26,-7.97,-9.11,-7.82,6.00,7.06,-3.26,-3.11,-1.29
31,-8.52,-7.23,-8.50,-7.21,6.00,7.09,-2.52,-2.50,-1.29
32,-7.92,-6.63,-7.91,-6.62,5.89,6.95,-2.03,-2.03,-1.29
33,-7.27,-5.98,-7.36,-6.06,5.66,6.67,-1.61,-1.70,-1.29
34,-6.60,-5.31,-6.83,-5.54,5.32,6.29,-1.27,-1.50,-1.29
35,-6.10,-4.81,-6.34,-5.04,4.94,5.83,-1.15,-1.39,-1.29
36,-5.62,-4.33,-5.87,-4.58,4.55,5.33,-1.06,-1.32,-1.29
37,-5.17,-3.88,-5.45,-4.15,4.15,4.80,-1.01,-1.29,-1.29
38,-4.90,-3.61,-5.04,-3.75,3.75,4.27,-1.15,-1.29,-1.29
39,-4.71,-3.42,-4.66,-3.37,3.37,3.74,-1.34,-1.29,-1.29
40,-4.43,-3.14,-4.30,-3.00,3.00,3.23,-1.42,-1.29,-1.29
41,-4.15,-2.86,-3.93,-2.64,2.64,2.73,-1.50,-1.29,-1.29
42,-3.82,-2.53,-3.58,-2.28,2.28,2.25,-1.53,-1.29,-1.29
43,-3.40,-2.11,-3.21,-1.92,1.92,1.78,-1.48,-1.29,-1.29
44,-3.03,-1.74,-2.84,-1.55,1.55,1.33,-1.48,-1.29,-1.29
45,-2.54,-1.25,-2.46,-1.17,1.17,0.90,-1.37,-1.29,-1.29
46,-2.20,-0.91,-2.07,-0.78,0.78,0.47,-1.42,-1.29,-1.29
47,-1.72,-0.43,-1.68,-0.39,0.39,0.06,-1.33,-1.29,-1.29
48,-1.24,0.05,-1.29,-0.00,0.00,-0.34,-1.24,-1.29,-1.29
49,-0.78,0.51,-0.91,0.38,-0.38,-0.72,-1.16,-1.29,-1.29
50,-0.45,0.84,-0.53,0.76,-0.76,-1.10,-1.20,-1.29,-1.29
51,-0.06,1.23,-0.18,1.11,-1.11,-1.46,-1.17,-1.29,-1.29
52,0.24,1.53,0.15,1.45,-1.45,-1.80,-1.20,-1.29,-1.29
53,0.53,1.82,0.46,1.76,-1.76,-2.13,-1.22,-1.29,-1.29
54,0.77,2.06,0.75,2.04,-2.04,-2.44,-1.27,-1.29,-1.29
55,1.04,2.33,1.00,2.29,-2.29,-2.74,-1.25,-1.29,-1.29
56,1.27,2.56,1.23,2.52,-2.52,-3.01,-1.25,-1.29,-1.29
57,1.37,2.66,1.43,2.72,-2.72,-3.25,-1.35,-1.29,-1.29
58,1.69,2.98,1.61,2.90,-2.90,-3.47,-1.21,-1.29,-1.29
59,1.69,2.98,1.77,3.06,-3.06,-3.66,-1.37,-1.29,-1.29
60,1.85,3.14,1.91,3.20,-3.20,-3.83,-1.35,-1.29,-1.29
61,2.01,3.30,2.04,3.33,-3.33,-3.96,-1.32,-1.29,-1.29
62,2.14,3.43,2.15,3.44,-3.44,-4.06,-1.30,-1.29,-1.29
63,2.32,3.61,2.24,3.54,-3.54,-4.14,-1.21,-1.29,-1.29
64,2.34,3.63,2.33,3.62,-3.62,-4.19,-1.28,-1.29,-1.29
65,2.34,3.63,2.41,3.70,-3.70,-4.21,-1.36,-1.29,-1.29
66,2.36,3.65,2.47,3.76,-3.76,-4.21,-1.40,-1.29,-1.29
67,2.53,3.82,2.53,3.82,-3.82,-4.19,-1.29,-1.29,-1.29
68,2.66,3.95,2.57,3.86,-3.86,-4.16,-1.20,-1.29,-1.29
69,2.66,3.95,2.61,3.90,-3.90,-4.11,-1.24,-1.29,-1.29
70,2.66,3.95,2.64,3.93,-3.93,-4.05,-1.27,-1.29,-1.29
71,2.66,3.95,2.66,3.96,-3.96,-3.98,-1.29,-1.29,-1.29
72,2.66,3.95,2.68,3.97,-3.97,-3.90,-1.31,-1.29,-1.29
73,2.66,3.95,2.69,3.98,-3.98,-3.82,-1.32,-1.29,-1.29
74,2.66,3.95,2.70,3.99,-3.99,-3.73,-1.33,-1.29,-1.29
75,2.66,3.95,2.70,3.99,-3.99,-3.64,-1.33,-1.29,-1.29
76,2.66,3.95,2.70,3.99,-3.99,-3.56,-1.32,-1.29,-1.29
77,2.66,3.95,2.69,3.98,-3.98,-3.47,-1.31,-1.29,-1.29
78,2.66,3.95,2.67,3.96,-3.96,-3.38,-1.30,-1.29,-1.29
79,2.66,3.95,2.65,3.94,-3.94,-3.30,-1.28,-1.29,-1.29
80,2.66,3.95,2.62,3.91,-3.91,-3.22,-1.25,-1.29,-1.29
81,2.66,3.95,2.58,3.88,-3.88,-3.14,-1.21,-1.29,-1.29
82,2.62,3.91,2.54,3.83,-3.83,-3.06,-1.21,-1.29,-1.29
83,2.49,3.78,2.49,3.78,-3.78,-2.99,-1.29,-1.29,-1.29
84,2.35,3.64,2.43,3.73,-3.73,-2.92,-1.37,-1.29,-1.29
85,2.34,3.63,2.37,3.66,-3.66,-2.86,-1.32,-1.29,-1.29
86,2.34,3.63,2.30,3.60,-3.60,-2.79,-1.25,-1.29,-1.29
87,2.28,3.57,2.23,3.52,-3.52,-2.74,-1.24,-1.29,-1.29
88,2.15,3.44,2.16,3.45,-3.45,-2.68,-1.30,-1.29,-1.29
89,2.02,3.31,2.08,3.37,-3.37,-2.63,-1.35,-1.29,-1.29
90,2.01,3.30,2.00,3.29,-3.29,-2.58,-1.28,-1.29,-1.29
91,1.93,3.22,1.92,3.21,-3.21,-2.54,-1.28,-1.29,-1.29
92,1.81,3.10,1.84,3.14,-3.14,-2.50,-1.32,-1.29,-1.29
93,1.69,2.98,1.77,3.06,-3.06,-2.46,-1.37,-1.29,-1.29
94,1.69,2.98,1.69,2.98,-2.98,-2.42,-1.29,-1.29,-1.29
95,1.69,2.98,1.62,2.91,-2.91,-2.39,-1.22,-1.29,-1.29
96,1.62,2.91,1.55,2.84,-2.84,-2.36,-1.22,-1.29,-1.29
97,1.38,2.67,1.48,2.77,-2.77,-2.33,-1.39,-1.29,-1.29
98,1.37,2.66,1.41,2.71,-2.71,-2.30,-1.33,-1.29,-1.29
99,1.37,2.66,1.35,2.64,-2.64,-2.28,-1.27,-1.29,-1.29
100,1.36,2.65,1.29,2.58,-2.58,-2.26,-1.22,-1.29,-1.29
101,1.24,2.53,1.23,2.52,-2.52,-2.24,-1.28,-1.29,-1.29
102,1.13,2.42,1.17,2.46,-2.46,-2.22,-1.33,-1.29,-1.29
104,1.04,2.33,1.11,2.40,-2.40,-2.19,-1.36,-1.29,-1.29
105,1.04,2.33,1.06,2.35,-2.35,-2.17,-1.31,-1.29,-1.29
106,1.04,2.33,1.01,2.30,-2.30,-2.16,-1.26,-1.29,-1.29
107,1.04,2.33,0.96,2.25,-2.25,-2.15,-1.21,-1.29,-1.29
108,0.97,2.26,0.92,2.21,-2.21,-2.14,-1.24,-1.29,-1.29
109,0.87,2.16,0.88,2.17,-2.17,-2.13,-1.30,-1.29,-1.29
110,0.77,2.06,0.84,2.13,-2.13,-2.12,-1.36,-1.29,-1.29
111,0.72,2.01,0.81,2.10,-2.10,-2.11,-1.38,-1.29,-1.29
112,0.72,2.01,0.78,2.07,-2.07,-2.10,-1.35,-1.29,-1.29
113,0.72,2.01,0.75,2.04,-2.04,-2.09,-1.31,-1.29,-1.29
114,0.72,2.01,0.72,2.01,-2.01,-2.08,-1.28,-1.29,-1.29
115,0.72,2.01,0.68,1.98,-1.98,-2.07,-1.25,-1.29,-1.29
117,0.72,2.01,0.65,1.94,-1.94,-2.05,-1.22,-1.29,-1.29
118,0.72,2.01,0.62,1.91,-1.91,-2.04,-1.19,-1.29,-1.29
119,0.69,1.98,0.59,1.88,-1.88,-2.03,-1.19,-1.29,-1.29
120,0.59,1.88,0.56,1.85,-1.85,-2.02,-1.26,-1.29,-1.29
121,0.50,1.79,0.53,1.82,-1.82,-2.01,-1.32,-1.29,-1.29
123,0.39,1.68,0.50,1.79,-1.79,-1.98,-1.40,-1.29,-1.29
124,0.39,1.68,0.47,1.76,-1.76,-1.97,-1.37,-1.29,-1.29
125,0.39,1.68,0.45,1.74,-1.74,-1.96,-1.35,-1.29,-1.29
126,0.39,1.68,0.43,1.72,-1.72,-1.94,-1.33,-1.29,-1.29
128,0.39,1.68,0.42,1.71,-1.71,-1.91,-1.31,-1.29,-1.29
129,0.39,1.68,0.40,1.69,-1.69,-1.90,-1.30,-1.29,-1.29
130,0.39,1.68,0.39,1.68,-1.68,-1.88,-1.29,-1.29,-1.29
131,0.39,1.68,0.38,1.67,-1.67,-1.87,-1.27,-1.29,-1.29
133,0.39,1.68,0.36,1.65,-1.65,-1.83,-1.26,-1.29,-1.29
134,0.39,1.68,0.34,1.64,-1.64,-1.82,-1.24,-1.29,-1.29
135,0.39,1.68,0.32,1.62,-1.62,-1.80,-1.22,-1.29,-1.29
137,0.39,1.68,0.30,1.59,-1.59,-1.76,-1.20,-1.29,-1.29
138,0.31,1.60,0.27,1.57,-1.57,-1.75,-1.25,-1.29,-1.29
140,0.23,1.52,0.25,1.54,-1.54,-1.71,-1.31,-1.29,-1.29
141,0.23,1.52,0.22,1.51,-1.51,-1.69,-1.28,-1.29,-1.29
142,0.15,1.44,0.19,1.48,-1.48,-1.67,-1.33,-1.29,-1.29
144,0.07,1.36,0.16,1.46,-1.46,-1.64,-1.38,-1.29,-1.29
145,0.07,1.36,0.14,1.43,-1.43,-1.62,-1.36,-1.29,-1.29
147,0.07,1.36,0.12,1.41,-1.41,-1.59,-1.34,-1.29,-1.29
148,0.07,1.36,0.10,1.40,-1.40,-1.57,-1.32,-1.29,-1.29
150,0.07,1.36,0.09,1.38,-1.38,-1.53,-1.31,-1.29,-1.29
151,0.07,1.36,0.08,1.37,-1.37,-1.52,-1.30,-1.29,-1.29
153,0.07,1.36,0.06,1.35,-1.35,-1.49,-1.28,-1.29,-1.29
154,0.07,1.36,0.05,1.34,-1.34,-1.47,-1.27,-1.29,-1.29
156,0.07,1.36,0.03,1.32,-1.32,-1.44,-1.25,-1.29,-1.29
157,0.07,1.36,0.01,1.30,-1.30,-1.42,-1.23,-1.29,-1.29
159,0.07,1.36,-0.02,1.27,-1.27,-1.40,-1.20,-1.29,-1.29
160,0.07,1.36,-0.05,1.24,-1.24,-1.38,-1.17,-1.29,-1.29
162,-0.04,1.25,-0.08,1.21,-1.21,-1.36,-1.25,-1.29,-1.29
164,-0.18,1.11,-0.11,1.18,-1.18,-1.33,-1.36,-1.29,-1.29
165,-0.25,1.04,-0.15,1.14,-1.14,-1.32,-1.39,-1.29,-1.29
167,-0.26,1.03,-0.18,1.11,-1.11,-1.30,-1.37,-1.29,-1.29
169,-0.26,1.03,-0.20,1.09,-1.09,-1.28,-1.34,-1.29,-1.29
170,-0.26,1.03,-0.23,1.06,-1.06,-1.27,-1.32,-1.29,-1.29
172,-0.26,1.03,-0.25,1.05,-1.05,-1.25,-1.30,-1.29,-1.29
174,-0.26,1.03,-0.26,1.03,-1.03,-1.24,-1.29,-1.29,-1.29
175,-0.26,1.03,-0.27,1.03,-1.03,-1.23,-1.28,-1.29,-1.29
177,-0.26,1.03,-0.27,1.02,-1.02,-1.21,-1.28,-1.29,-1.29
179,-0.26,1.03,-0.27,1.02,-1.02,-1.20,-1.28,-1.29,-1.29
181,-0.26,1.03,-0.27,1.02,-1.02,-1.19,-1.28,-1.29,-1.29
183,-0.26,1.03,-0.27,1.02,-1.02,-1.18,-1.28,-1.29,-1.29
184,-0.26,1.03,-0.27,1.02,-1.02,-1.17,-1.28,-1.29,-1.29
186,-0.26,1.03,-0.27,1.02,-1.02,-1.17,-1.28,-1.29,-1.29
188,-0.26,1.03,-0.27,1.02,-1.02,-1.16,-1.28,-1.29,-1.29
190,-0.26,1.03,-0.27,1.02,-1.02,-1.15,-1.28,-1.29,-1.29
192,-0.26,1.03,-0.27,1.02,-1.02,-1.15,-1.28,-1.29,-1.29
194,-0.26,1.03,-0.28,1.02,-1.02,-1.14,-1.27,-1.29,-1.29
196,-0.26,1.03,-0.28,1.01,-1.01,-1.14,-1.27,-1.29,-1.29
198,-0.36,0.93,-0.28,1.01,-1.01,-1.13,-1.37,-1.29,-1.29
200,-0.36,0.93,-0.28,1.01,-1.01,-1.13,-1.37,-1.29,-1.29
202,-0.26,1.03,-0.28,1.01,-1.01,-1.13,-1.27,-1.29,-1.29
204,-0.26,1.03,-0.28,1.02,-1.02,-1.13,-1.27,-1.29,-1.29
206,-0.26,1.03,-0.27,1.02,-1.02,-1.13,-1.28,-1.29,-1.29
208,-0.26,1.03,-0.27,1.02,-1.02,-1.13,-1.28,-1.29,-1.29
210,-0.26,1.03,-0.27,1.02,-1.02,-1.13,-1.28,-1.29,-1.29
212,-0.26,1.03,-0.26,1.03,-1.03,-1.13,-1.28,-1.29,-1.29
214,-0.26,1.03,-0.26,1.03,-1.03,-1.13,-1.29,-1.29,-1.29
216,-0.26,1.03,-0.26,1.03,-1.03,-1.13,-1.29,-1.29,-1.29
218,-0.26,1.03,-0.26,1.03,-1.03,-1.13,-1.29,-1.29,-1.29
221,-0.26,1.03,-0.26,1.03,-1.03,-1.13,-1.29,-1.29,-1.29
223,-0.26,1.03,-0.26,1.04,-1.04,-1.13,-1.29,-1.29,-1.29
225,-0.26,1.03,-0.26,1.04,-1.04,-1.13,-1.29,-1.29,-1.29
227,-0.26,1.03,-0.26,1.04,-1.04,-1.13,-1.29,-1.29,-1.29
229,-0.26,1.03,-0.26,1.03,-1.03,-1.13,-1.29,-1.29,-1.29
232,-0.26,1.03,-0.26,1.03,-1.03,-1.12,-1.29,-1.29,-1.29
234,-0.26,1.03,-0.26,1.03,-1.03,-1.12,-1.29,-1.29,-1.29
236,-0.26,1.03,-0.26,1.03,-1.03,-1.12,-1.29,-1.29,-1.29
239,-0.26,1.03,-0.26,1.03,-1.03,-1.11,-1.29,-1.29,-1.29
241,-0.26,1.03,-0.26,1.03,-1.03,-1.11,-1.29,-1.29,-1.29
244,-0.26,1.03,-0.26,1.03,-1.03,-1.10,-1.29,-1.29,-1.29
246,-0.26,1.03,-0.26,1.03,-1.03,-1.10,-1.29,-1.29,-1.29
248,-0.26,1.03,-0.26,1.03,-1.03,-1.09,-1.29,-1.29,-1.29
251,-0.26,1.03,-0.26,1.03,-1.03,-1.08,-1.29,-1.29,-1.29
253,-0.26,1.03,-0.26,1.03,-1.03,-1.08,-1.29,-1.29,-1.29
256,-0.26,1.03,-0.26,1.03,-1.03,-1.06,-1.29,-1.29,-1.29
259,-0.26,1.03,-0.26,1.03,-1.03,-1.05,-1.29,-1.29,-1.29
261,-0.26,1.03,-0.26,1.03,-1.03,-1.04,-1.29,-1.29,-1.29
264,-0.26,1.03,-0.26,1.03,-1.03,-1.03,-1.29,-1.29,-1.29
266,-0.26,1.03,-0.26,1.03,-1.03,-1.01,-1.29,-1.29,-1.29
269,-0.26,1.03,-0.26,1.04,-1.04,-1.00,-1.29,-1.29,-1.29
272,-0.26,1.03,-0.25,1.04,-1.04,-0.98,-1.30,-1.29,-1.29
274,-0.26,1.03,-0.25,1.04,-1.04,-0.97,-1.30,-1.29,-1.29
277,-0.26,1.03,-0.25,1.04,-1.04,-0.95,-1.30,-1.29,-1.29
280,-0.26,1.03,-0.24,1.05,-1.05,-0.93,-1.31,-1.29,-1.29
283,-0.26,1.03,-0.24,1.05,-1.05,-0.91,-1.31,-1.29,-1.29
286,-0.26,1.03,-0.24,1.05,-1.05,-0.89,-1.31,-1.29,-1.29
288,-0.26,1.03,-0.25,1.04,-1.04,-0.88,-1.30,-1.29,-1.29
291,-0.26,1.03,-0.26,1.04,-1.04,-0.86,-1.29,-1.29,-1.29
294,-0.26,1.03,-0.27,1.02,-1.02,-0.84,-1.28,-1.29,-1.29
297,-0.26,1.03,-0.29,1.01,-1.01,-0.82,-1.26,-1.29,-1.29
300,-0.26,1.03,-0.31,0.98,-0.98,-0.80,-1.24,-1.29,-1.29
303,-0.26,1.03,-0.34,0.96,-0.96,-0.78,-1.21,-1.29,-1.29
306,-0.26,1.03,-0.37,0.92,-0.92,-0.76,-1.18,-1.29,-1.29
309,-0.36,0.93,-0.40,0.89,-0.89,-0.74,-1.25,-1.29,-1.29
312,-0.47,0.82,-0.43,0.86,-0.86,-0.72,-1.33,-1.29,-1.29
316,-0.58,0.71,-0.47,0.82,-0.82,-0.70,-1.40,-1.29,-1.29
319,-0.58,0.71,-0.50,0.79,-0.79,-0.68,-1.37,-1.29,-1.29
322,-0.58,0.71,-0.53,0.77,-0.77,-0.66,-1.34,-1.29,-1.29
325,-0.58,0.71,-0.55,0.74,-0.74,-0.65,-1.32,-1.29,-1.29
328,-0.58,0.71,-0.57,0.72,-0.72,-0.63,-1.30,-1.29,-1.29
332,-0.58,0.71,-0.58,0.71,-0.71,-0.61,-1.29,-1.29,-1.29
335,-0.58,0.71,-0.59,0.70,-0.70,-0.59,-1.28,-1.29,-1.29
338,-0.58,0.71,-0.59,0.70,-0.70,-0.58,-1.28,-1.29,-1.29
342,-0.58,0.71,-0.59,0.70,-0.70,-0.56,-1.28,-1.29,-1.29
345,-0.58,0.71,-0.59,0.70,-0.70,-0.54,-1.28,-1.29,-1.29
349,-0.58,0.71,-0.59,0.70,-0.70,-0.52,-1.28,-1.29,-1.29
352,-0.58,0.71,-0.59,0.70,-0.70,-0.51,-1.28,-1.29,-1.29
356,-0.58,0.71,-0.58,0.71,-0.71,-0.49,-1.29,-1.29,-1.29
359,-0.58,0.71,-0.58,0.71,-0.71,-0.48,-1.29,-1.29,-1.29
363,-0.58,0.71,-0.58,0.71,-0.71,-0.46,-1.29,-1.29,-1.29
366,-0.58,0.71,-0.57,0.72,-0.72,-0.45,-1.30,-1.29,-1.29
370,-0.58,0.71,-0.57,0.72,-0.72,-0.43,-1.30,-1.29,-1.29
374,-0.58,0.71,-0.57,0.72,-0.72,-0.42,-1.30,-1.29,-1.29
377,-0.58,0.71,-0.56,0.73,-0.73,-0.41,-1.30,-1.29,-1.29
381,-0.58,0.71,-0.56,0.73,-0.73,-0.39,-1.31,-1.29,-1.29
385,-0.58,0.71,-0.56,0.73,-0.73,-0.38,-1.31,-1.29,-1.29
389,-0.58,0.71,-0.57,0.73,-0.73,-0.37,-1.30,-1.29,-1.29
393,-0.58,0.71,-0.57,0.72,-0.72,-0.36,-1.30,-1.29,-1.29
397,-0.58,0.71,-0.58,0.71,-0.71,-0.34,-1.29,-1.29,-1.29
401,-0.58,0.71,-0.59,0.70,-0.70,-0.33,-1.28,-1.29,-1.29
405,-0.58,0.71,-0.61,0.68,-0.68,-0.32,-1.26,-1.29,-1.29
409,-0.58,0.71,-0.64,0.65,-0.65,-0.31,-1.23,-1.29,-1.29
413,-0.58,0.71,-0.67,0.63,-0.63,-0.30,-1.20,-1.29,-1.29
417,-0.66,0.63,-0.70,0.59,-0.59,-0.29,-1.25,-1.29,-1.29
421,-0.77,0.52,-0.74,0.55,-0.55,-0.28,-1.32,-1.29,-1.29
425,-0.87,0.42,-0.78,0.51,-0.51,-0.27,-1.38,-1.29,-1.29
430,-0.90,0.39,-0.82,0.47,-0.47,-0.26,-1.37,-1.29,-1.29
434,-0.90,0.39,-0.87,0.42,-0.42,-0.25,-1.32,-1.29,-1.29
438,-0.90,0.39,-0.92,0.37,-0.37,-0.25,-1.27,-1.29,-1.29
443,-0.90,0.39,-0.96,0.33,-0.33,-0.24,-1.23,-1.29,-1.29
447,-0.96,0.33,-1.01,0.28,-0.28,-0.23,-1.24,-1.29,-1.29
451,-1.06,0.23,-1.06,0.23,-0.23,-0.22,-1.29,-1.29,-1.29
456,-1.18,0.11,-1.10,0.19,-0.19,-0.22,-1.37,-1.29,-1.29
460,-1.23,0.06,-1.15,0.14,-0.14,-0.21,-1.37,-1.29,-1.29
465,-1.23,0.06,-1.20,0.10,-0.10,-0.20,-1.32,-1.29,-1.29
470,-1.23,0.06,-1.24,0.05,-0.05,-0.20,-1.28,-1.29,-1.29
474,-1.23,0.06,-1.29,-0.00,0.00,-0.19,-1.23,-1.29,-1.29
479,-1.25,0.04,-1.34,-0.05,0.05,-0.19,-1.20,-1.29,-1.29
484,-1.37,-0.08,-1.40,-0.10,0.10,-0.18,-1.26,-1.29,-1.29
489,-1.49,-0.20,-1.45,-0.16,0.16,-0.18,-1.33,-1.29,-1.29
494,-1.55,-0.26,-1.50,-0.21,0.21,-0.17,-1.33,-1.29,-1.29
499,-1.55,-0.26,-1.56,-0.27,0.27,-0.17,-1.28,-1.29,-1.29
504,-1.55,-0.26,-1.62,-0.32,0.32,-0.17,-1.22,-1.29,-1.29
509,-1.61,-0.32,-1.67,-0.38,0.38,-0.17,-1.23,-1.29,-1.29
514,-1.72,-0.43,-1.72,-0.43,0.43,-0.16,-1.29,-1.29,-1.29
519,-1.83,-0.54,-1.77,-0.48,0.48,-0.16,-1.35,-1.29,-1.29
524,-1.88,-0.59,-1.81,-0.52,0.52,-0.16,-1.36,-1.29,-1.29
529,-1.88,-0.59,-1.84,-0.55,0.55,-0.16,-1.33,-1.29,-1.29
535,-1.88,-0.59,-1.87,-0.58,0.58,-0.16,-1.30,-1.29,-1.29
540,-1.88,-0.59,-1.89,-0.60,0.60,-0.16,-1.28,-1.29,-1.29
545,-1.88,-0.59,-1.90,-0.61,0.61,-0.16,-1.27,-1.29,-1.29
551,-1.88,-0.59,-1.90,-0.61,0.61,-0.16,-1.27,-1.29,-1.29
556,-1.88,-0.59,-1.89,-0.60,0.60,-0.16,-1.28,-1.29,-1.29
562,-1.88,-0.59,-1.87,-0.58,0.58,-0.16,-1.30,-1.29,-1.29
568,-1.88,-0.59,-1.84,-0.55,0.55,-0.16,-1.33,-1.29,-1.29
573,-1.88,-0.59,-1.80,-0.51,0.51,-0.16,-1.37,-1.29,-1.29
579,-1.82,-0.53,-1.75,-0.46,0.46,-0.17,-1.36,-1.29,-1.29
585,-1.70,-0.41,-1.70,-0.41,0.41,-0.17,-1.29,-1.29,-1.29
591,-1.59,-0.30,-1.64,-0.35,0.35,-0.17,-1.24,-1.29,-1.29
596,-1.55,-0.26,-1.58,-0.28,0.28,-0.17,-1.26,-1.29,-1.29
602,-1.54,-0.25,-1.51,-0.22,0.22,-0.17,-1.32,-1.29,-1.29
608,-1.43,-0.14,-1.44,-0.15,0.15,-0.18,-1.28,-1.29,-1.29
615,-1.30,-0.01,-1.37,-0.07,0.07,-0.18,-1.22,-1.29,-1.29
621,-1.23,0.06,-1.29,-0.00,0.00,-0.19,-1.23,-1.29,-1.29
627,-1.23,0.06,-1.22,0.07,-0.07,-0.19,-1.30,-1.29,-1.29
633,-1.23,0.06,-1.15,0.14,-0.14,-0.19,-1.37,-1.29,-1.29
639,-1.16,0.13,-1.08,0.21,-0.21,-0.20,-1.37,-1.29,-1.29
646,-0.91,0.38,-1.02,0.27,-0.27,-0.20,-1.18,-1.29,-1.29
652,-0.90,0.39,-0.95,0.34,-0.34,-0.20,-1.24,-1.29,-1.29
659,-0.90,0.39,-0.89,0.40,-0.40,-0.21,-1.30,-1.29,-1.29
665,-0.90,0.39,-0.83,0.46,-0.46,-0.21,-1.36,-1.29,-1.29
672,-0.79,0.50,-0.77,0.52,-0.52,-0.22,-1.31,-1.29,-1.29
679,-0.67,0.62,-0.71,0.58,-0.58,-0.22,-1.25,-1.29,-1.29
686,-0.58,0.71,-0.65,0.64,-0.64,-0.23,-1.22,-1.29,-1.29
692,-0.58,0.71,-0.59,0.70,-0.70,-0.23,-1.28,-1.29,-1.29
699,-0.58,0.71,-0.53,0.76,-0.76,-0.24,-1.34,-1.29,-1.29
706,-0.55,0.74,-0.47,0.82,-0.82,-0.25,-1.37,-1.29,-1.29
713,-0.44,0.85,-0.41,0.88,-0.88,-0.25,-1.32,-1.29,-1.29
721,-0.32,0.97,-0.36,0.93,-0.93,-0.26,-1.25,-1.29,-1.29
728,-0.26,1.03,-0.30,0.99,-0.99,-0.26,-1.25,-1.29,-1.29
735,-0.26,1.03,-0.25,1.04,-1.04,-0.27,-1.30,-1.29,-1.29
742,-0.26,1.03,-0.20,1.10,-1.10,-0.28,-1.35,-1.29,-1.29
750,-0.20,1.09,-0.15,1.14,-1.14,-0.28,-1.34,-1.29,-1.29
757,-0.09,1.20,-0.10,1.19,-1.19,-0.29,-1.28,-1.29,-1.29
765,0.03,1.32,-0.06,1.23,-1.23,-0.30,-1.20,-1.29,-1.29
773,0.07,1.36,-0.02,1.27,-1.27,-0.30,-1.20,-1.29,-1.29
780,0.07,1.36,0.02,1.31,-1.31,-0.31,-1.24,-1.29,-1.29
788,0.07,1.36,0.05,1.34,-1.34,-0.32,-1.27,-1.29,-1.29
796,0.07,1.36,0.08,1.37,-1.37,-0.33,-1.30,-1.29,-1.29
804,0.07,1.36,0.12,1.41,-1.41,-0.33,-1.34,-1.29,-1.29
812,0.07,1.36,0.15,1.44,-1.44,-0.34,-1.37,-1.29,-1.29
820,0.07,1.36,0.18,1.47,-1.47,-0.35,-1.40,-1.29,-1.29
828,0.11,1.40,0.22,1.51,-1.51,-0.36,-1.40,-1.29,-1.29
837,0.23,1.52,0.25,1.54,-1.54,-0.37,-1.31,-1.29,-1.29
845,0.34,1.63,0.28,1.58,-1.58,-0.37,-1.23,-1.29,-1.29
853,0.39,1.68,0.32,1.61,-1.61,-0.38,-1.22,-1.29,-1.29
862,0.39,1.68,0.35,1.64,-1.64,-0.39,-1.24,-1.29,-1.29
871,0.39,1.68,0.37,1.66,-1.66,-0.40,-1.27,-1.29,-1.29
879,0.39,1.68,0.39,1.68,-1.68,-0.40,-1.29,-1.29,-1.29
888,0.39,1.68,0.40,1.69,-1.69,-0.41,-1.30,-1.29,-1.29
897,0.39,1.68,0.40,1.69,-1.69,-0.42,-1.30,-1.29,-1.29
906,0.39,1.68,0.40,1.69,-1.69,-0.43,-1.30,-1.29,-1.29
915,0.39,1.68,0.39,1.68,-1.68,-0.44,-1.29,-1.29,-1.29
924,0.39,1.68,0.37,1.66,-1.66,-0.44,-1.27,-1.29,-1.29
933,0.39,1.68,0.34,1.63,-1.63,-0.45,-1.24,-1.29,-1.29
943,0.34,1.63,0.30,1.59,-1.59,-0.46,-1.25,-1.29,-1.29
952,0.23,1.52,0.26,1.55,-1.55,-0.46,-1.32,-1.29,-1.29
962,0.12,1.41,0.20,1.50,-1.50,-0.47,-1.37,-1.29,-1.29
971,0.07,1.36,0.15,1.44,-1.44,-0.47,-1.37,-1.29,-1.29
981,0.07,1.36,0.08,1.37,-1.37,-0.48,-1.30,-1.29,-1.29
991,0.07,1.36,0.01,1.30,-1.30,-0.49,-1.23,-1.29,-1.29
1001,-0.01,1.28,-0.07,1.22,-1.22,-0.49,-1.23,-1.29,-1.29
1011,-0.12,1.17,-0.15,1.14,-1.14,-0.50,-1.26,-1.29,-1.29
1021,-0.23,1.06,-0.24,1.05,-1.05,-0.50,-1.28,-1.29,-1.29
1031,-0.34,0.95,-0.34,0.95,-0.95,-0.51,-1.29,-1.29,-1.29
1041,-0.45,0.84,-0.44,0.85,-0.85,-0.51,-1.30,-1.29,-1.29
1052,-0.57,0.72,-0.54,0.75,-0.75,-0.51,-1.32,-1.29,-1.29
1062,-0.68,0.61,-0.65,0.64,-0.64,-0.52,-1.32,-1.29,-1.29
1073,-0.79,0.50,-0.76,0.53,-0.53,-0.52,-1.32,-1.29,-1.29
1084,-0.90,0.39,-0.88,0.41,-0.41,-0.53,-1.31,-1.29,-1.29
1094,-0.90,0.39,-0.99,0.30,-0.30,-0.53,-1.20,-1.29,-1.29
1105,-1.02,0.27,-1.11,0.18,-0.18,-0.53,-1.20,-1.29,-1.29
1116,-1.24,0.05,-1.22,0.07,-0.07,-0.54,-1.31,-1.29,-1.29
1128,-1.36,-0.07,-1.34,-0.04,0.04,-0.54,-1.31,-1.29,-1.29
1139,-1.47,-0.18,-1.44,-0.15,0.15,-0.54,-1.32,-1.29,-1.29
1150,-1.57,-0.28,-1.55,-0.25,0.25,-0.55,-1.31,-1.29,-1.29
1162,-1.69,-0.40,-1.64,-0.35,0.35,-0.55,-1.34,-1.29,-1.29
1173,-1.80,-0.51,-1.73,-0.44,0.44,-0.56,-1.36,-1.29,-1.29
1185,-1.88,-0.59,-1.81,-0.52,0.52,-0.56,-1.35,-1.29,-1.29
1197,-1.88,-0.59,-1.89,-0.60,0.60,-0.56,-1.28,-1.29,-1.29
1209,-1.88,-0.59,-1.95,-0.66,0.66,-0.57,-1.21,-1.29,-1.29
1221,-1.93,-0.64,-2.01,-0.72,0.72,-0.57,-1.21,-1.29,-1.29
1233,-2.04,-0.75,-2.06,-0.77,0.77,-0.58,-1.27,-1.29,-1.29
1246,-2.16,-0.87,-2.10,-0.81,0.81,-0.59,-1.35,-1.29,-1.29
1258,-2.20,-0.91,-2.13,-0.84,0.84,-0.59,-1.36,-1.29,-1.29
1271,-2.20,-0.91,-2.16,-0.87,0.87,-0.60,-1.33,-1.29,-1.29
1283,-2.20,-0.91,-2.17,-0.88,0.88,-0.61,-1.31,-1.29,-1.29
1296,-2.20,-0.91,-2.19,-0.90,0.90,-0.61,-1.30,-1.29,-1.29
1309,-2.20,-0.91,-2.19,-0.90,0.90,-0.62,-1.30,-1.29,-1.29
1322,-2.20,-0.91,-2.20,-0.91,0.91,-0.63,-1.29,-1.29,-1.29
1335,-2.20,-0.91,-2.20,-0.91,0.91,-0.64,-1.29,-1.29,-1.29
1349,-2.20,-0.91,-2.21,-0.91,0.91,-0.65,-1.28,-1.29,-1.29
1362,-2.20,-0.91,-2.21,-0.92,0.92,-0.66,-1.28,-1.29,-1.29
1376,-2.20,-0.91,-2.22,-0.93,0.93,-0.67,-1.27,-1.29,-1.29
1390,-2.20,-0.91,-2.23,-0.94,0.94,-0.68,-1.26,-1.29,-1.29
1404,-2.20,-0.91,-2.25,-0.96,0.96,-0.69,-1.24,-1.29,-1.29
1418,-2.20,-0.91,-2.27,-0.98,0.98,-0.71,-1.22,-1.29,-1.29
1432,-2.20,-0.91,-2.29,-1.00,1.00,-0.72,-1.20,-1.29,-1.29
1446,-2.21,-0.92,-2.31,-1.02,1.02,-0.73,-1.19,-1.29,-1.29
1461,-2.33,-1.04,-2.33,-1.04,1.04,-0.75,-1.29,-1.29,-1.29
1475,-2.44,-1.15,-2.35,-1.06,1.06,-0.76,-1.38,-1.29,-1.29
1490,-2.53,-1.24,-2.36,-1.07,1.07,-0.78,-1.46,-1.29,-1.29
1505,-2.53,-1.24,-2.37,-1.08,1.08,-0.79,-1.45,-1.29,-1.29
1520,-2.44,-1.15,-2.37,-1.07,1.07,-0.81,-1.36,-1.29,-1.29
1535,-2.32,-1.03,-2.35,-1.06,1.06,-0.82,-1.26,-1.29,-1.29
1550,-2.21,-0.92,-2.33,-1.04,1.04,-0.84,-1.17,-1.29,-1.29
1566,-2.20,-0.91,-2.30,-1.01,1.01,-0.86,-1.19,-1.29,-1.29
1582,-2.20,-0.91,-2.26,-0.97,0.97,-0.88,-1.23,-1.29,-1.29
