frequency,raw,error,smoothed,error_smoothed,equalization,parametric_eq,equalized_raw,equalized_smoothed,target
20,-2.32,-5.21,-2.35,-5.24,5.24,0.57,2.92,2.89,2.89
21,-1.93,-4.82,-1.90,-4.79,4.79,0.67,2.86,2.89,2.89
22,-1.49,-4.38,-1.47,-4.35,4.35,0.78,2.86,2.89,2.89
23,-1.06,-3.95,-1.05,-3.94,3.94,0.89,2.88,2.89,2.89
24,-0.65,-3.53,-0.65,-3.54,3.54,1.01,2.89,2.88,2.88
25,-0.27,-3.15,-0.27,-3.15,3.15,1.14,2.88,2.88,2.88
26,0.09,-2.79,0.09,-2.79,2.79,1.26,2.88,2.88,2.88
27,0.44,-2.43,0.43,-2.44,2.44,1.36,2.88,2.87,2.87
28,0.75,-2.12,0.76,-2.11,2.11,1.46,2.86,2.87,2.87
29,1.07,-1.79,1.06,-1.80,1.80,1.53,2.87,2.86,2.86
30,1.34,-1.52,1.35,-1.51,1.51,1.57,2.85,2.86,2.86
31,1.63,-1.22,1.62,-1.24,1.24,1.58,2.87,2.85,2.85
32,1.87,-0.98,1.87,-0.98,0.98,1.57,2.85,2.85,2.85
33,2.10,-0.74,2.10,-0.74,0.74,1.53,2.84,2.84,2.84
34,2.31,-0.53,2.31,-0.52,0.52,1.47,2.83,2.84,2.84
35,2.51,-0.32,2.51,-0.32,0.32,1.39,2.83,2.83,2.83
36,2.68,-0.14,2.69,-0.13,0.13,1.31,2.81,2.82,2.82
37,2.84,0.03,2.85,0.04,-0.04,1.22,2.80,2.81,2.81
38,3.00,0.20,3.00,0.20,-0.20,1.12,2.80,2.80,2.80
39,3.13,0.34,3.13,0.34,-0.34,1.03,2.79,2.79,2.79
40,3.24,0.46,3.24,0.46,-0.46,0.94,2.78,2.78,2.78
41,3.35,0.58,3.34,0.57,-0.57,0.85,2.78,2.77,2.77
42,3.42,0.66,3.41,0.66,-0.66,0.77,2.76,2.76,2.76
43,3.49,0.75,3.47,0.73,-0.73,0.69,2.76,2.74,2.74
44,3.51,0.78,3.51,0.78,-0.78,0.61,2.73,2.73,2.73
45,3.55,0.83,3.54,0.82,-0.82,0.54,2.73,2.72,2.72
46,3.55,0.85,3.55,0.85,-0.85,0.47,2.70,2.70,2.70
47,3.55,0.87,3.55,0.87,-0.87,0.41,2.68,2.68,2.68
48,3.55,0.88,3.54,0.88,-0.88,0.35,2.67,2.67,2.67
49,3.51,0.86,3.53,0.88,-0.88,0.29,2.63,2.65,2.65
50,3.51,0.88,3.51,0.88,-0.88,0.24,2.63,2.63,2.63
51,3.47,0.86,3.49,0.88,-0.88,0.19,2.59,2.61,2.61
52,3.47,0.88,3.47,0.88,-0.88,0.14,2.59,2.59,2.59
53,3.42,0.85,3.44,0.88,-0.88,0.09,2.54,2.57,2.57
54,3.42,0.87,3.41,0.87,-0.87,0.04,2.55,2.55,2.55
55,3.38,0.86,3.37,0.85,-0.85,0.00,2.53,2.52,2.52
56,3.34,0.84,3.32,0.82,-0.82,-0.04,2.52,2.50,2.50
57,3.29,0.82,3.26,0.79,-0.79,-0.08,2.50,2.47,2.47
58,3.22,0.77,3.19,0.75,-0.75,-0.11,2.47,2.45,2.45
59,3.14,0.72,3.12,0.70,-0.70,-0.15,2.44,2.42,2.42
60,3.03,0.64,3.04,0.64,-0.64,-0.18,2.39,2.39,2.39
61,2.95,0.59,2.96,0.59,-0.59,-0.21,2.36,2.36,2.36
62,2.85,0.52,2.88,0.55,-0.55,-0.24,2.30,2.33,2.33
63,2.79,0.49,2.82,0.51,-0.51,-0.27,2.28,2.30,2.30
64,2.73,0.46,2.76,0.49,-0.49,-0.29,2.24,2.27,2.27
65,2.69,0.45,2.72,0.48,-0.48,-0.32,2.21,2.24,2.24
66,2.66,0.46,2.69,0.49,-0.49,-0.34,2.17,2.20,2.20
67,2.64,0.47,2.66,0.49,-0.49,-0.37,2.15,2.17,2.17
68,2.64,0.50,2.64,0.50,-0.50,-0.39,2.14,2.14,2.14
69,2.64,0.54,2.60,0.50,-0.50,-0.41,2.14,2.10,2.10
70,2.59,0.52,2.55,0.49,-0.49,-0.43,2.10,2.07,2.07
71,2.53,0.50,2.49,0.46,-0.46,-0.45,2.07,2.03,2.03
72,2.43,0.44,2.39,0.40,-0.40,-0.48,2.03,1.99,1.99
73,2.32,0.37,2.28,0.33,-0.33,-0.50,1.99,1.95,1.95
74,2.16,0.24,2.15,0.23,-0.23,-0.52,1.93,1.92,1.92
75,2.00,0.12,2.00,0.13,-0.13,-0.54,1.87,1.88,1.88
76,1.86,0.02,1.85,0.01,-0.01,-0.56,1.85,1.84,1.84
77,1.68,-0.12,1.70,-0.10,0.10,-0.59,1.78,1.80,1.80
78,1.52,-0.24,1.56,-0.20,0.20,-0.61,1.72,1.76,1.76
79,1.40,-0.32,1.43,-0.29,0.29,-0.64,1.69,1.72,1.72
80,1.29,-0.39,1.32,-0.36,0.36,-0.66,1.65,1.68,1.68
81,1.21,-0.43,1.23,-0.41,0.41,-0.69,1.62,1.64,1.64
82,1.14,-0.45,1.16,-0.44,0.44,-0.71,1.58,1.59,1.59
83,1.10,-0.45,1.10,-0.45,0.45,-0.74,1.55,1.55,1.55
84,1.08,-0.43,1.06,-0.45,0.45,-0.77,1.53,1.51,1.51
85,1.04,-0.43,1.03,-0.44,0.44,-0.80,1.48,1.47,1.47
86,1.00,-0.43,1.00,-0.43,0.43,-0.83,1.43,1.43,1.43
87,1.00,-0.39,0.97,-0.41,0.41,-0.86,1.41,1.39,1.39
88,0.95,-0.39,0.95,-0.39,0.39,-0.89,1.34,1.34,1.34
89,0.95,-0.35,0.93,-0.37,0.37,-0.92,1.32,1.30,1.30
90,0.91,-0.35,0.91,-0.35,0.35,-0.96,1.26,1.26,1.26
91,0.91,-0.31,0.90,-0.32,0.32,-0.99,1.23,1.22,1.22
92,0.89,-0.29,0.89,-0.29,0.29,-1.02,1.18,1.18,1.18
93,0.89,-0.25,0.89,-0.25,0.25,-1.06,1.14,1.14,1.14
94,0.91,-0.19,0.91,-0.19,0.19,-1.09,1.10,1.10,1.10
95,0.92,-0.14,0.93,-0.12,0.12,-1.13,1.04,1.06,1.06
96,0.97,-0.05,0.98,-0.04,0.04,-1.16,1.01,1.02,1.02
97,1.03,0.05,1.04,0.06,-0.06,-1.20,0.97,0.98,0.98
98,1.08,0.14,1.12,0.18,-0.18,-1.23,0.90,0.94,0.94
99,1.19,0.29,1.21,0.31,-0.31,-1.27,0.88,0.90,0.90
100,1.31,0.45,1.32,0.46,-0.46,-1.30,0.85,0.86,0.86
101,1.41,0.59,1.43,0.62,-0.62,-1.34,0.79,0.81,0.82
102,1.52,0.74,1.55,0.78,-0.78,-1.37,0.74,0.77,0.78
104,1.71,1.00,1.66,0.93,-0.93,-1.44,0.78,0.73,0.71
105,1.79,1.12,1.76,1.08,-1.08,-1.47,0.71,0.68,0.67
106,1.87,1.23,1.84,1.20,-1.20,-1.50,0.67,0.64,0.64
107,1.92,1.32,1.91,1.30,-1.30,-1.53,0.62,0.61,0.60
108,1.95,1.38,1.94,1.37,-1.37,-1.56,0.58,0.57,0.57
109,1.95,1.42,1.95,1.42,-1.42,-1.58,0.53,0.53,0.53
110,1.94,1.44,1.93,1.43,-1.43,-1.61,0.51,0.50,0.50
111,1.90,1.43,1.88,1.42,-1.42,-1.63,0.48,0.47,0.47
112,1.83,1.40,1.81,1.38,-1.38,-1.65,0.45,0.43,0.43
113,1.76,1.36,1.72,1.32,-1.32,-1.67,0.44,0.40,0.40
114,1.64,1.27,1.61,1.25,-1.25,-1.68,0.39,0.36,0.37
115,1.55,1.21,1.49,1.17,-1.17,-1.69,0.38,0.33,0.34
117,1.33,1.05,1.38,1.09,-1.09,-1.71,0.24,0.29,0.28
118,1.22,0.97,1.27,1.02,-1.02,-1.72,0.20,0.26,0.25
119,1.14,0.92,1.18,0.96,-0.96,-1.72,0.18,0.22,0.22
120,1.08,0.89,1.12,0.93,-0.93,-1.72,0.15,0.19,0.19
121,1.04,0.88,1.08,0.93,-0.93,-1.71,0.11,0.15,0.16
123,1.05,0.94,1.07,0.95,-0.95,-1.70,0.10,0.12,0.11
124,1.07,0.99,1.08,1.00,-1.00,-1.69,0.07,0.09,0.08
125,1.11,1.05,1.12,1.06,-1.06,-1.67,0.05,0.06,0.06
126,1.15,1.12,1.16,1.14,-1.14,-1.65,0.01,0.02,0.03
128,1.25,1.27,1.21,1.22,-1.22,-1.61,0.03,-0.01,-0.02
129,1.29,1.33,1.26,1.30,-1.30,-1.58,-0.01,-0.04,-0.04
130,1.32,1.38,1.31,1.37,-1.37,-1.55,-0.05,-0.06,-0.06
131,1.34,1.42,1.34,1.44,-1.44,-1.52,-0.10,-0.09,-0.08
133,1.39,1.52,1.37,1.49,-1.49,-1.45,-0.10,-0.12,-0.13
134,1.39,1.54,1.38,1.53,-1.53,-1.41,-0.14,-0.15,-0.15
135,1.39,1.56,1.38,1.56,-1.56,-1.37,-0.17,-0.18,-0.17
137,1.36,1.57,1.37,1.57,-1.57,-1.28,-0.21,-0.20,-0.21
138,1.34,1.57,1.35,1.58,-1.58,-1.24,-0.24,-0.23,-0.23
140,1.30,1.57,1.32,1.58,-1.58,-1.14,-0.28,-0.26,-0.27
141,1.28,1.56,1.28,1.57,-1.57,-1.09,-0.29,-0.28,-0.28
142,1.26,1.56,1.24,1.55,-1.55,-1.04,-0.29,-0.31,-0.30
144,1.19,1.53,1.19,1.53,-1.53,-0.94,-0.34,-0.33,-0.34
145,1.16,1.51,1.15,1.50,-1.50,-0.88,-0.34,-0.36,-0.35
147,1.07,1.45,1.09,1.47,-1.47,-0.78,-0.40,-0.38,-0.38
148,1.04,1.44,1.04,1.44,-1.44,-0.72,-0.40,-0.40,-0.40
150,0.97,1.40,0.98,1.40,-1.40,-0.61,-0.43,-0.42,-0.43
151,0.93,1.37,0.92,1.37,-1.37,-0.55,-0.44,-0.44,-0.44
153,0.86,1.33,0.86,1.33,-1.33,-0.44,-0.47,-0.47,-0.47
154,0.80,1.28,0.80,1.29,-1.29,-0.38,-0.49,-0.49,-0.48
156,0.73,1.24,0.74,1.25,-1.25,-0.27,-0.52,-0.50,-0.51
157,0.69,1.21,0.68,1.20,-1.20,-0.21,-0.51,-0.52,-0.52
159,0.61,1.15,0.61,1.15,-1.15,-0.09,-0.54,-0.54,-0.54
160,0.56,1.12,0.54,1.10,-1.10,-0.04,-0.54,-0.56,-0.56
162,0.47,1.05,0.47,1.05,-1.05,0.08,-0.58,-0.58,-0.58
164,0.39,0.99,0.39,0.99,-0.99,0.20,-0.60,-0.59,-0.60
165,0.32,0.93,0.31,0.92,-0.92,0.25,-0.60,-0.61,-0.61
167,0.21,0.84,0.22,0.85,-0.85,0.37,-0.64,-0.63,-0.63
169,0.12,0.77,0.14,0.78,-0.78,0.48,-0.66,-0.64,-0.65
170,0.06,0.72,0.04,0.70,-0.70,0.54,-0.64,-0.66,-0.66
172,-0.05,0.62,-0.05,0.62,-0.62,0.65,-0.67,-0.67,-0.67
174,-0.16,0.53,-0.15,0.54,-0.54,0.77,-0.70,-0.69,-0.69
175,-0.22,0.48,-0.25,0.45,-0.45,0.83,-0.67,-0.70,-0.70
177,-0.34,0.37,-0.35,0.37,-0.37,0.94,-0.71,-0.71,-0.71
179,-0.45,0.28,-0.45,0.28,-0.28,1.05,-0.73,-0.73,-0.73
181,-0.57,0.17,-0.55,0.20,-0.20,1.16,-0.77,-0.74,-0.74
183,-0.68,0.08,-0.64,0.11,-0.11,1.28,-0.79,-0.75,-0.76
184,-0.72,0.04,-0.74,0.02,-0.02,1.33,-0.74,-0.77,-0.76
186,-0.83,-0.05,-0.84,-0.06,0.06,1.44,-0.77,-0.78,-0.78
188,-0.94,-0.15,-0.94,-0.15,0.15,1.56,-0.79,-0.79,-0.79
190,-1.05,-0.25,-1.04,-0.24,0.24,1.67,-0.81,-0.80,-0.80
192,-1.14,-0.33,-1.15,-0.34,0.34,1.78,-0.80,-0.81,-0.81
194,-1.25,-0.43,-1.25,-0.43,0.43,1.88,-0.82,-0.82,-0.82
196,-1.35,-0.52,-1.36,-0.53,0.53,1.99,-0.82,-0.83,-0.83
198,-1.48,-0.63,-1.47,-0.63,0.63,2.10,-0.85,-0.84,-0.85
200,-1.60,-0.75,-1.59,-0.73,0.73,2.21,-0.87,-0.85,-0.85
202,-1.71,-0.85,-1.70,-0.84,0.84,2.31,-0.87,-0.86,-0.86
204,-1.82,-0.95,-1.81,-0.94,0.94,2.41,-0.88,-0.87,-0.87
206,-1.93,-1.05,-1.93,-1.05,1.05,2.51,-0.88,-0.88,-0.88
208,-2.05,-1.16,-2.05,-1.16,1.16,2.61,-0.89,-0.89,-0.89
210,-2.17,-1.27,-2.18,-1.28,1.28,2.71,-0.89,-0.90,-0.90
212,-2.30,-1.40,-2.30,-1.40,1.40,2.81,-0.90,-0.90,-0.90
214,-2.43,-1.52,-2.44,-1.53,1.53,2.90,-0.90,-0.91,-0.91
216,-2.55,-1.64,-2.58,-1.66,1.66,2.99,-0.89,-0.91,-0.91
218,-2.70,-1.78,-2.72,-1.80,1.80,3.08,-0.90,-0.92,-0.92
221,-2.90,-1.98,-2.87,-1.95,1.95,3.20,-0.95,-0.92,-0.92
223,-3.04,-2.11,-3.02,-2.09,2.09,3.28,-0.95,-0.92,-0.93
225,-3.17,-2.24,-3.17,-2.24,2.24,3.35,-0.93,-0.93,-0.93
227,-3.31,-2.38,-3.32,-2.39,2.39,3.42,-0.92,-0.93,-0.93
229,-3.44,-2.51,-3.47,-2.54,2.54,3.49,-0.90,-0.93,-0.93
232,-3.64,-2.71,-3.62,-2.69,2.69,3.58,-0.95,-0.93,-0.93
234,-3.77,-2.85,-3.77,-2.84,2.84,3.64,-0.93,-0.92,-0.92
236,-3.89,-2.97,-3.91,-2.99,2.99,3.69,-0.90,-0.92,-0.92
239,-4.08,-3.16,-4.06,-3.14,3.14,3.75,-0.94,-0.92,-0.92
241,-4.19,-3.28,-4.20,-3.29,3.29,3.79,-0.90,-0.91,-0.91
244,-4.36,-3.45,-4.34,-3.43,3.43,3.84,-0.93,-0.91,-0.91
246,-4.47,-3.57,-4.47,-3.58,3.58,3.87,-0.89,-0.90,-0.90
248,-4.59,-3.70,-4.61,-3.72,3.72,3.89,-0.87,-0.89,-0.89
251,-4.73,-3.85,-4.73,-3.85,3.85,3.91,-0.88,-0.88,-0.88
253,-4.84,-3.97,-4.86,-3.99,3.99,3.92,-0.85,-0.87,-0.87
256,-4.98,-4.12,-4.97,-4.11,4.11,3.92,-0.87,-0.86,-0.86
259,-5.11,-4.26,-5.08,-4.23,4.23,3.92,-0.88,-0.85,-0.85
261,-5.18,-4.34,-5.18,-4.35,4.35,3.91,-0.83,-0.84,-0.84
264,-5.28,-4.46,-5.28,-4.45,4.45,3.89,-0.83,-0.82,-0.82
266,-5.36,-4.55,-5.36,-4.55,4.55,3.87,-0.81,-0.81,-0.81
269,-5.43,-4.63,-5.44,-4.64,4.64,3.84,-0.79,-0.80,-0.80
272,-5.50,-4.72,-5.50,-4.72,4.72,3.81,-0.78,-0.78,-0.78
274,-5.56,-4.79,-5.56,-4.79,4.79,3.78,-0.77,-0.77,-0.77
277,-5.60,-4.85,-5.60,-4.85,4.85,3.73,-0.75,-0.75,-0.75
280,-5.63,-4.90,-5.64,-4.91,4.91,3.68,-0.72,-0.73,-0.73
283,-5.68,-4.96,-5.67,-4.95,4.95,3.63,-0.73,-0.72,-0.72
286,-5.68,-4.98,-5.68,-4.99,4.99,3.57,-0.69,-0.70,-0.70
288,-5.68,-5.00,-5.69,-5.01,5.01,3.53,-0.67,-0.68,-0.68
291,-5.68,-5.02,-5.68,-5.02,5.02,3.47,-0.66,-0.66,-0.66
294,-5.66,-5.02,-5.66,-5.01,5.01,3.41,-0.65,-0.64,-0.64
297,-5.63,-5.01,-5.62,-4.99,4.99,3.35,-0.64,-0.62,-0.62
300,-5.57,-4.97,-5.56,-4.96,4.96,3.29,-0.61,-0.60,-0.60
303,-5.51,-4.93,-5.49,-4.91,4.91,3.23,-0.60,-0.58,-0.58
306,-5.41,-4.85,-5.40,-4.84,4.84,3.17,-0.57,-0.56,-0.56
309,-5.33,-4.79,-5.31,-4.76,4.76,3.11,-0.57,-0.54,-0.54
312,-5.23,-4.71,-5.20,-4.68,4.68,3.05,-0.55,-0.52,-0.52
316,-5.07,-4.57,-5.09,-4.59,4.59,2.97,-0.48,-0.50,-0.50
319,-4.95,-4.47,-4.98,-4.50,4.50,2.91,-0.45,-0.48,-0.48
322,-4.86,-4.40,-4.88,-4.42,4.42,2.86,-0.44,-0.46,-0.46
325,-4.76,-4.32,-4.78,-4.34,4.34,2.80,-0.42,-0.44,-0.44
328,-4.68,-4.26,-4.69,-4.27,4.27,2.75,-0.41,-0.42,-0.42
332,-4.58,-4.18,-4.61,-4.21,4.21,2.68,-0.37,-0.40,-0.40
335,-4.53,-4.15,-4.53,-4.15,4.15,2.63,-0.38,-0.38,-0.38
338,-4.46,-4.10,-4.45,-4.10,4.10,2.59,-0.36,-0.36,-0.36
342,-4.38,-4.04,-4.38,-4.04,4.04,2.53,-0.34,-0.34,-0.34
345,-4.33,-4.01,-4.30,-3.98,3.98,2.49,-0.35,-0.32,-0.32
349,-4.22,-3.92,-4.21,-3.91,3.91,2.43,-0.31,-0.30,-0.30
352,-4.15,-3.87,-4.12,-3.84,3.84,2.39,-0.31,-0.28,-0.28
356,-4.02,-3.76,-4.02,-3.75,3.75,2.35,-0.27,-0.26,-0.26
359,-3.92,-3.67,-3.91,-3.66,3.66,2.31,-0.26,-0.25,-0.25
363,-3.78,-3.55,-3.80,-3.56,3.56,2.27,-0.22,-0.23,-0.23
366,-3.68,-3.46,-3.68,-3.46,3.46,2.24,-0.22,-0.22,-0.22
370,-3.55,-3.35,-3.55,-3.35,3.35,2.20,-0.20,-0.20,-0.20
374,-3.41,-3.22,-3.43,-3.24,3.24,2.16,-0.17,-0.19,-0.19
377,-3.33,-3.15,-3.31,-3.13,3.13,2.14,-0.20,-0.18,-0.18
381,-3.18,-3.02,-3.19,-3.02,3.02,2.11,-0.16,-0.16,-0.16
385,-3.07,-2.92,-3.07,-2.92,2.92,2.08,-0.15,-0.15,-0.15
389,-2.94,-2.80,-2.95,-2.81,2.81,2.05,-0.13,-0.14,-0.14
393,-2.83,-2.70,-2.84,-2.71,2.71,2.02,-0.12,-0.13,-0.13
397,-2.73,-2.61,-2.73,-2.61,2.61,2.00,-0.12,-0.12,-0.12
401,-2.63,-2.52,-2.62,-2.51,2.51,1.98,-0.12,-0.11,-0.11
405,-2.52,-2.41,-2.52,-2.41,2.41,1.96,-0.11,-0.11,-0.11
409,-2.42,-2.32,-2.42,-2.32,2.32,1.94,-0.10,-0.10,-0.10
413,-2.32,-2.23,-2.32,-2.23,2.23,1.92,-0.09,-0.09,-0.09
417,-2.23,-2.15,-2.23,-2.15,2.15,1.91,-0.08,-0.08,-0.08
421,-2.14,-2.06,-2.14,-2.06,2.06,1.89,-0.08,-0.08,-0.08
425,-2.04,-1.97,-2.05,-1.98,1.98,1.88,-0.06,-0.07,-0.07
430,-1.97,-1.91,-1.96,-1.90,1.90,1.86,-0.07,-0.06,-0.06
434,-1.87,-1.82,-1.88,-1.83,1.83,1.85,-0.04,-0.05,-0.05
438,-1.82,-1.77,-1.80,-1.76,1.76,1.83,-0.06,-0.05,-0.05
443,-1.72,-1.68,-1.73,-1.69,1.69,1.82,-0.03,-0.04,-0.04
447,-1.65,-1.62,-1.66,-1.63,1.63,1.81,-0.02,-0.03,-0.03
451,-1.60,-1.58,-1.59,-1.57,1.57,1.80,-0.03,-0.02,-0.02
456,-1.52,-1.51,-1.53,-1.52,1.52,1.79,-0.00,-0.01,-0.01
460,-1.46,-1.46,-1.46,-1.46,1.46,1.78,0.00,0.00,0.00
465,-1.40,-1.41,-1.40,-1.41,1.41,1.76,0.01,0.01,0.01
470,-1.33,-1.36,-1.33,-1.36,1.36,1.75,0.03,0.03,0.03
474,-1.28,-1.32,-1.27,-1.30,1.30,1.74,0.02,0.04,0.04
479,-1.22,-1.27,-1.20,-1.25,1.25,1.73,0.03,0.05,0.05
484,-1.13,-1.20,-1.14,-1.20,1.20,1.71,0.07,0.07,0.07
489,-1.08,-1.16,-1.07,-1.15,1.15,1.70,0.07,0.08,0.08
494,-1.00,-1.10,-1.01,-1.11,1.11,1.68,0.11,0.10,0.10
499,-0.93,-1.04,-0.95,-1.06,1.06,1.67,0.13,0.11,0.11
504,-0.89,-1.02,-0.90,-1.03,1.03,1.65,0.14,0.13,0.13
509,-0.85,-1.00,-0.85,-1.00,1.00,1.64,0.15,0.15,0.15
514,-0.80,-0.97,-0.80,-0.97,0.97,1.62,0.17,0.17,0.17
519,-0.77,-0.95,-0.76,-0.95,0.95,1.60,0.18,0.18,0.18
524,-0.74,-0.94,-0.73,-0.93,0.93,1.58,0.19,0.20,0.20
529,-0.69,-0.91,-0.70,-0.92,0.92,1.57,0.23,0.22,0.22
535,-0.65,-0.89,-0.67,-0.91,0.91,1.54,0.26,0.24,0.24
540,-0.65,-0.91,-0.64,-0.90,0.90,1.53,0.25,0.26,0.26
545,-0.61,-0.89,-0.61,-0.89,0.89,1.51,0.28,0.28,0.28
551,-0.59,-0.89,-0.58,-0.89,0.89,1.48,0.30,0.30,0.30
556,-0.56,-0.88,-0.56,-0.88,0.88,1.47,0.32,0.32,0.32
562,-0.53,-0.87,-0.53,-0.88,0.88,1.44,0.35,0.34,0.34
568,-0.52,-0.88,-0.51,-0.88,0.88,1.42,0.36,0.36,0.36
573,-0.48,-0.86,-0.49,-0.87,0.87,1.40,0.39,0.38,0.38
579,-0.48,-0.88,-0.47,-0.87,0.87,1.38,0.39,0.40,0.40
585,-0.43,-0.85,-0.45,-0.87,0.87,1.36,0.44,0.42,0.42
591,-0.43,-0.87,-0.43,-0.87,0.87,1.34,0.44,0.44,0.44
596,-0.43,-0.89,-0.42,-0.88,0.88,1.32,0.45,0.46,0.46
602,-0.39,-0.87,-0.40,-0.88,0.88,1.30,0.49,0.48,0.48
608,-0.39,-0.89,-0.39,-0.88,0.88,1.28,0.49,0.50,0.50
615,-0.39,-0.90,-0.38,-0.89,0.89,1.26,0.50,0.51,0.51
621,-0.35,-0.88,-0.36,-0.89,0.89,1.24,0.54,0.53,0.53
627,-0.35,-0.89,-0.35,-0.90,0.90,1.22,0.55,0.54,0.54
633,-0.35,-0.91,-0.34,-0.90,0.90,1.20,0.55,0.56,0.56
639,-0.35,-0.92,-0.33,-0.90,0.90,1.19,0.55,0.57,0.57
646,-0.30,-0.89,-0.32,-0.90,0.90,1.17,0.60,0.59,0.59
652,-0.30,-0.90,-0.31,-0.90,0.90,1.15,0.60,0.60,0.60
659,-0.30,-0.91,-0.30,-0.91,0.91,1.14,0.61,0.61,0.61
665,-0.30,-0.92,-0.29,-0.91,0.91,1.13,0.61,0.62,0.62
672,-0.26,-0.89,-0.28,-0.91,0.91,1.11,0.65,0.63,0.63
679,-0.26,-0.90,-0.27,-0.91,0.91,1.10,0.65,0.64,0.64
686,-0.26,-0.91,-0.26,-0.92,0.92,1.09,0.66,0.65,0.65
692,-0.26,-0.92,-0.26,-0.92,0.92,1.08,0.66,0.66,0.66
699,-0.26,-0.93,-0.25,-0.92,0.92,1.07,0.66,0.67,0.67
706,-0.26,-0.94,-0.24,-0.93,0.93,1.06,0.67,0.68,0.68
713,-0.23,-0.92,-0.24,-0.93,0.93,1.05,0.70,0.69,0.69
721,-0.22,-0.92,-0.23,-0.93,0.93,1.04,0.71,0.70,0.70
728,-0.22,-0.93,-0.23,-0.93,0.93,1.03,0.71,0.71,0.71
735,-0.22,-0.94,-0.22,-0.94,0.94,1.03,0.72,0.72,0.72
742,-0.22,-0.94,-0.22,-0.94,0.94,1.02,0.72,0.72,0.72
750,-0.22,-0.95,-0.22,-0.95,0.95,1.02,0.73,0.73,0.73
757,-0.22,-0.96,-0.22,-0.96,0.96,1.02,0.74,0.74,0.74
765,-0.22,-0.96,-0.22,-0.96,0.96,1.01,0.74,0.74,0.74
773,-0.22,-0.97,-0.22,-0.97,0.97,1.01,0.75,0.75,0.75
780,-0.22,-0.97,-0.22,-0.97,0.97,1.01,0.75,0.75,0.75
788,-0.22,-0.98,-0.22,-0.98,0.98,1.01,0.76,0.76,0.76
796,-0.22,-0.98,-0.22,-0.98,0.98,1.01,0.76,0.76,0.76
804,-0.22,-0.99,-0.21,-0.98,0.98,1.01,0.76,0.77,0.77
812,-0.22,-0.99,-0.21,-0.98,0.98,1.01,0.76,0.77,0.77
820,-0.19,-0.96,-0.20,-0.97,0.97,1.01,0.78,0.77,0.77
828,-0.19,-0.97,-0.19,-0.97,0.97,1.01,0.78,0.78,0.78
837,-0.18,-0.96,-0.18,-0.96,0.96,1.01,0.78,0.78,0.78
845,-0.17,-0.95,-0.18,-0.96,0.96,1.01,0.79,0.78,0.78
853,-0.17,-0.96,-0.17,-0.95,0.95,1.01,0.78,0.79,0.79
862,-0.17,-0.96,-0.16,-0.95,0.95,1.01,0.78,0.79,0.79
871,-0.13,-0.92,-0.15,-0.94,0.94,1.01,0.81,0.79,0.79
879,-0.13,-0.93,-0.14,-0.93,0.93,1.01,0.80,0.80,0.80
888,-0.13,-0.93,-0.13,-0.93,0.93,1.01,0.80,0.80,0.80
897,-0.13,-0.93,-0.11,-0.92,0.92,1.01,0.79,0.80,0.80
906,-0.09,-0.90,-0.10,-0.91,0.91,1.01,0.82,0.81,0.81
915,-0.09,-0.91,-0.08,-0.90,0.90,1.01,0.81,0.82,0.82
924,-0.09,-0.91,-0.07,-0.89,0.89,1.00,0.80,0.82,0.82
933,-0.04,-0.87,-0.05,-0.88,0.88,1.00,0.84,0.83,0.83
943,-0.04,-0.88,-0.04,-0.88,0.88,1.00,0.84,0.84,0.84
952,-0.01,-0.86,-0.02,-0.88,0.88,0.99,0.87,0.85,0.85
962,0.00,-0.86,-0.01,-0.88,0.88,0.98,0.88,0.86,0.86
971,0.00,-0.88,-0.01,-0.88,0.88,0.98,0.88,0.88,0.88
981,0.00,-0.89,-0.00,-0.89,0.89,0.97,0.89,0.89,0.89
991,0.00,-0.91,0.00,-0.91,0.91,0.96,0.91,0.91,0.91
1001,0.00,-0.93,0.00,-0.92,0.92,0.94,0.92,0.93,0.93
1011,0.00,-0.94,0.00,-0.94,0.94,0.93,0.94,0.94,0.94
1021,0.00,-0.97,0.00,-0.96,0.96,0.92,0.96,0.97,0.97
1031,0.02,-0.97,0.01,-0.98,0.98,0.90,1.00,0.99,0.99
1041,0.02,-0.99,0.01,-1.00,1.00,0.88,1.02,1.01,1.01
1052,0.04,-1.00,0.02,-1.01,1.01,0.86,1.05,1.04,1.04
1062,0.04,-1.02,0.04,-1.02,1.02,0.84,1.06,1.06,1.06
1073,0.05,-1.04,0.07,-1.02,1.02,0.82,1.07,1.09,1.09
1084,0.10,-1.02,0.12,-1.00,1.00,0.80,1.10,1.12,1.12
1094,0.15,-1.00,0.17,-0.98,0.98,0.78,1.13,1.15,1.15
1105,0.22,-0.96,0.24,-0.94,0.94,0.75,1.16,1.18,1.18
1116,0.31,-0.91,0.32,-0.90,0.90,0.73,1.21,1.22,1.22
1128,0.42,-0.83,0.41,-0.84,0.84,0.70,1.26,1.25,1.25
1139,0.52,-0.77,0.51,-0.78,0.78,0.67,1.30,1.29,1.29
1150,0.62,-0.71,0.61,-0.72,0.72,0.65,1.34,1.33,1.33
1162,0.73,-0.64,0.71,-0.65,0.65,0.62,1.38,1.37,1.37
1173,0.82,-0.59,0.81,-0.59,0.59,0.59,1.41,1.41,1.41
1185,0.91,-0.54,0.92,-0.54,0.54,0.56,1.45,1.45,1.45
1197,1.02,-0.48,1.01,-0.48,0.48,0.53,1.50,1.50,1.50
1209,1.10,-0.44,1.11,-0.43,0.43,0.50,1.53,1.54,1.54
1221,1.20,-0.39,1.21,-0.39,0.39,0.47,1.59,1.59,1.59
1233,1.29,-0.35,1.30,-0.34,0.34,0.44,1.63,1.64,1.64
1246,1.39,-0.30,1.38,-0.31,0.31,0.40,1.70,1.69,1.69
1258,1.48,-0.27,1.47,-0.28,0.28,0.37,1.76,1.75,1.75
1271,1.55,-0.25,1.55,-0.26,0.26,0.34,1.81,1.80,1.80
1283,1.63,-0.23,1.62,-0.24,0.24,0.31,1.87,1.86,1.86
1296,1.69,-0.23,1.69,-0.23,0.23,0.28,1.92,1.92,1.92
1309,1.75,-0.23,1.75,-0.23,0.23,0.25,1.98,1.98,1.98
1322,1.81,-0.23,1.81,-0.23,0.23,0.22,2.04,2.04,2.04
1335,1.88,-0.22,1.87,-0.23,0.23,0.18,2.11,2.10,2.10
1349,1.93,-0.24,1.93,-0.24,0.24,0.15,2.17,2.17,2.17
1362,2.00,-0.23,2.00,-0.24,0.24,0.12,2.24,2.23,2.23
1376,2.06,-0.24,2.07,-0.23,0.23,0.09,2.29,2.30,2.30
1390,2.13,-0.24,2.14,-0.22,0.22,0.06,2.35,2.37,2.37
1404,2.19,-0.25,2.23,-0.21,0.21,0.02,2.40,2.44,2.44
1418,2.30,-0.21,2.32,-0.19,0.19,-0.01,2.49,2.51,2.51
1432,2.40,-0.18,2.42,-0.16,0.16,-0.04,2.56,2.58,2.58
1446,2.52,-0.13,2.52,-0.14,0.14,-0.07,2.66,2.65,2.65
1461,2.63,-0.10,2.61,-0.11,0.11,-0.10,2.74,2.73,2.73
1475,2.75,-0.05,2.71,-0.10,0.10,-0.13,2.85,2.80,2.80
1490,2.83,-0.05,2.79,-0.09,0.09,-0.17,2.92,2.88,2.88
1505,2.88,-0.08,2.87,-0.09,0.09,-0.20,2.97,2.96,2.96
1520,2.95,-0.09,2.94,-0.09,0.09,-0.23,3.04,3.04,3.04
1535,3.01,-0.11,3.01,-0.11,0.11,-0.26,3.12,3.12,3.12
1550,3.07,-0.13,3.08,-0.12,0.12,-0.29,3.19,3.20,3.20
1566,3.15,-0.14,3.16,-0.13,0.13,-0.32,3.28,3.29,3.29
1582,3.21,-0.17,3.23,-0.14,0.14,-0.36,3.35,3.38,3.38
1597,3.31,-0.16,3.32,-0.15,0.15,-0.39,3.46,3.47,3.47
1613,3.42,-0.14,3.42,-0.15,0.15,-0.42,3.57,3.56,3.56
1629,3.50,-0.16,3.52,-0.14,0.14,-0.45,3.64,3.66,3.66
1646,3.63,-0.12,3.63,-0.12,0.12,-0.48,3.75,3.76,3.75
1662,3.75,-0.11,3.75,-0.11,0.11,-0.51,3.86,3.86,3.86
1679,3.87,-0.09,3.87,-0.09,0.09,-0.54,3.96,3.96,3.96
1696,4.00,-0.07,3.99,-0.08,0.08,-0.57,4.08,4.07,4.07
1713,4.13,-0.04,4.11,-0.06,0.06,-0.60,4.19,4.17,4.17
1730,4.24,-0.04,4.24,-0.05,0.05,-0.63,4.29,4.29,4.28
1747,4.37,-0.03,4.36,-0.04,0.04,-0.66,4.41,4.40,4.40
1764,4.48,-0.03,4.48,-0.03,0.03,-0.69,4.51,4.51,4.51
1782,4.61,-0.02,4.61,-0.02,0.02,-0.72,4.63,4.63,4.63
1800,4.73,-0.02,4.74,-0.01,0.01,-0.74,4.74,4.75,4.75
1818,4.88,0.01,4.88,0.01,-0.01,-0.77,4.87,4.87,4.87
1836,5.03,0.03,5.02,0.03,-0.03,-0.79,5.00,5.00,5.00
1854,5.16,0.04,5.17,0.06,-0.06,-0.82,5.10,5.12,5.12
1873,5.32,0.08,5.33,0.09,-0.09,-0.84,5.23,5.24,5.24
