frequency,raw
20.00,-1.03
20.20,-0.96
20.40,-0.88
20.61,-0.81
20.81,-0.74
21.02,-0.66
21.23,-0.59
21.44,-0.52
21.66,-0.44
21.87,-0.37
22.09,-0.30
22.31,-0.22
22.54,-0.15
22.76,-0.07
22.99,0.01
23.22,0.08
23.45,0.16
23.69,0.23
23.92,0.31
24.16,0.38
24.40,0.46
24.65,0.54
24.89,0.62
25.14,0.69
25.39,0.77
25.65,0.85
25.91,0.92
26.16,1.00
26.43,1.07
26.69,1.15
26.96,1.23
27.23,1.30
27.50,1.38
27.77,1.46
28.05,1.53
28.33,1.61
28.62,1.69
28.90,1.76
29.19,1.84
29.48,1.92
29.78,1.99
30.08,2.07
30.38,2.15
30.68,2.23
30.99,2.31
31.30,2.38
31.61,2.46
31.93,2.53
32.24,2.60
32.57,2.68
32.89,2.75
33.22,2.81
33.55,2.88
33.89,2.95
34.23,3.02
34.57,3.08
34.92,3.15
35.27,3.22
35.62,3.29
35.97,3.36
36.33,3.42
36.70,3.48
37.06,3.54
37.43,3.61
37.81,3.68
38.19,3.75
38.57,3.82
38.95,3.88
39.34,3.95
39.74,4.01
40.14,4.07
40.54,4.14
40.94,4.20
41.35,4.26
41.76,4.32
42.18,4.37
42.60,4.43
43.03,4.48
43.46,4.54
43.90,4.61
44.33,4.66
44.78,4.72
45.23,4.78
45.68,4.82
46.13,4.88
46.60,4.93
47.06,4.99
47.53,5.05
48.01,5.11
48.49,5.16
48.97,5.22
49.46,5.27
49.96,5.33
50.46,5.38
50.96,5.43
51.47,5.48
51.99,5.54
52.51,5.59
53.03,5.64
53.56,5.70
54.10,5.75
54.64,5.80
55.18,5.84
55.74,5.88
56.29,5.92
56.86,5.96
57.42,6.00
58.00,6.05
58.58,6.09
59.16,6.13
59.76,6.17
60.35,6.21
60.96,6.26
61.57,6.29
62.18,6.33
62.80,6.37
63.43,6.40
64.07,6.42
64.71,6.44
65.35,6.47
66.01,6.50
66.67,6.53
67.33,6.56
68.01,6.59
68.69,6.62
69.37,6.65
70.07,6.67
70.77,6.70
71.48,6.73
72.19,6.76
72.91,6.79
73.64,6.81
74.38,6.83
75.12,6.84
75.87,6.87
76.63,6.88
77.40,6.90
78.17,6.91
78.95,6.93
79.74,6.94
80.54,6.96
81.35,6.98
82.16,6.99
82.98,7.01
83.81,7.03
84.65,7.04
85.50,7.06
86.35,7.09
87.22,7.13
88.09,7.15
88.97,7.18
89.86,7.21
90.76,7.23
91.66,7.26
92.58,7.28
93.51,7.30
94.44,7.30
95.39,7.30
96.34,7.30
97.30,7.30
98.28,7.29
99.26,7.28
100.25,7.28
101.25,7.28
102.27,7.28
103.29,7.28
104.32,7.28
105.37,7.28
106.42,7.28
107.48,7.28
108.56,7.28
109.64,7.28
110.74,7.28
111.85,7.28
112.97,7.28
114.10,7.28
115.24,7.28
116.39,7.28
117.55,7.28
118.73,7.28
119.92,7.28
121.12,7.29
122.33,7.29
123.55,7.30
124.79,7.31
126.03,7.30
127.29,7.29
128.57,7.28
129.85,7.24
131.15,7.21
132.46,7.19
133.79,7.16
135.12,7.11
136.48,7.09
137.84,7.05
139.22,7.03
140.61,7.00
142.02,6.97
143.44,6.96
144.87,6.94
146.32,6.93
147.78,6.94
149.26,6.95
150.75,6.96
152.26,6.96
153.78,6.96
155.32,6.97
156.88,6.98
158.44,6.98
160.03,6.98
161.63,6.97
163.24,6.96
164.88,6.93
166.53,6.91
168.19,6.88
169.87,6.84
171.57,6.82
173.29,6.78
175.02,6.74
176.77,6.71
178.54,6.69
180.32,6.68
182.13,6.66
183.95,6.63
185.79,6.60
187.65,6.58
189.52,6.56
191.42,6.55
193.33,6.52
195.27,6.49
197.22,6.47
199.19,6.44
201.18,6.41
203.19,6.38
205.23,6.34
207.28,6.30
209.35,6.27
211.44,6.24
213.56,6.21
215.69,6.17
217.85,6.12
220.03,6.10
222.23,6.05
224.45,5.99
226.70,5.93
228.96,5.85
231.25,5.80
233.57,5.71
235.90,5.61
238.26,5.56
240.64,5.47
243.05,5.41
245.48,5.32
247.93,5.22
250.41,5.16
252.92,5.09
255.45,5.05
258.00,5.01
260.58,4.98
263.19,4.97
265.82,4.98
268.48,5.01
271.16,5.06
273.87,5.14
276.61,5.22
279.38,5.29
282.17,5.38
284.99,5.48
287.84,5.64
290.72,5.77
293.63,5.89
296.57,6.01
299.53,6.13
302.53,6.25
305.55,6.37
308.61,6.48
311.69,6.56
314.81,6.62
317.96,6.68
321.14,6.74
324.35,6.77
327.59,6.80
330.87,6.79
334.18,6.77
337.52,6.73
340.90,6.69
344.30,6.62
347.75,6.55
351.23,6.47
354.74,6.38
358.28,6.26
361.87,6.15
365.49,6.03
369.14,5.92
372.83,5.81
376.56,5.66
380.33,5.51
384.13,5.36
387.97,5.23
391.85,5.09
395.77,4.92
399.73,4.77
403.72,4.60
407.76,4.44
411.84,4.28
415.96,4.11
420.12,3.94
424.32,3.77
428.56,3.63
432.85,3.47
437.18,3.28
441.55,3.14
445.96,2.98
450.42,2.81
454.93,2.66
459.48,2.48
464.07,2.32
468.71,2.18
473.40,2.01
478.13,1.86
482.91,1.70
487.74,1.57
492.62,1.45
497.55,1.34
502.52,1.23
507.55,1.12
512.62,1.02
517.75,0.92
522.93,0.84
528.16,0.76
533.44,0.71
538.77,0.65
544.16,0.61
549.60,0.57
555.10,0.54
560.65,0.51
566.25,0.50
571.92,0.48
577.64,0.46
583.41,0.45
589.25,0.45
595.14,0.46
601.09,0.46
607.10,0.48
613.17,0.49
619.30,0.50
625.50,0.49
631.75,0.49
638.07,0.47
644.45,0.46
650.89,0.44
657.40,0.42
663.98,0.39
670.62,0.34
677.32,0.29
684.10,0.24
690.94,0.17
697.85,0.10
704.83,0.03
711.87,-0.02
718.99,-0.06
726.18,-0.09
733.44,-0.12
740.78,-0.12
748.19,-0.11
755.67,-0.09
763.23,-0.06
770.86,-0.02
778.57,0.04
786.35,0.11
794.22,0.18
802.16,0.26
810.18,0.34
818.28,0.42
826.46,0.49
834.73,0.55
843.08,0.62
851.51,0.67
860.02,0.71
868.62,0.74
877.31,0.77
886.08,0.78
894.94,0.76
903.89,0.75
912.93,0.73
922.06,0.69
931.28,0.63
940.59,0.57
950.00,0.50
959.50,0.42
969.09,0.33
978.78,0.23
988.57,0.13
998.46,0.02
1008.44,-0.11
1018.53,-0.23
1028.71,-0.36
1039.00,-0.50
1049.39,-0.64
1059.88,-0.79
1070.48,-0.94
1081.19,-1.09
1092.00,-1.27
1102.92,-1.44
1113.95,-1.60
1125.09,-1.76
1136.34,-1.92
1147.70,-2.09
1159.18,-2.28
1170.77,-2.47
1182.48,-2.66
1194.30,-2.84
1206.25,-3.02
1218.31,-3.20
1230.49,-3.40
1242.80,-3.57
1255.22,-3.75
1267.78,-3.93
1280.45,-4.10
1293.26,-4.27
1306.19,-4.45
1319.25,-4.62
1332.45,-4.77
1345.77,-4.92
1359.23,-5.04
1372.82,-5.17
1386.55,-5.29
1400.41,-5.42
1414.42,-5.55
1428.56,-5.67
1442.85,-5.79
1457.28,-5.89
1471.85,-6.01
1486.57,-6.11
1501.43,-6.23
1516.45,-6.34
1531.61,-6.46
1546.93,-6.57
1562.40,-6.68
1578.02,-6.80
1593.80,-6.92
1609.74,-7.05
1625.84,-7.17
1642.10,-7.30
1658.52,-7.42
1675.10,-7.55
1691.85,-7.67
1708.77,-7.79
1725.86,-7.91
1743.12,-8.02
1760.55,-8.14
1778.15,-8.25
1795.94,-8.33
1813.90,-8.40
1832.03,-8.45
1850.36,-8.48
1868.86,-8.50
1887.55,-8.51
1906.42,-8.51
1925.49,-8.50
1944.74,-8.48
1964.19,-8.46
1983.83,-8.41
2003.67,-8.36
2023.71,-8.30
2043.94,-8.23
2064.38,-8.18
2085.03,-8.13
2105.88,-8.09
2126.94,-8.06
2148.20,-8.03
2169.69,-8.00
2191.38,-7.98
2213.30,-7.96
2235.43,-7.95
2257.78,-7.94
2280.36,-7.94
2303.17,-7.95
2326.20,-7.95
2349.46,-7.96
2372.95,-7.96
2396.68,-7.96
2420.65,-7.96
2444.86,-7.95
2469.31,-7.94
2494.00,-7.94
2518.94,-7.94
2544.13,-7.95
2569.57,-7.96
2595.27,-7.98
2621.22,-8.01
2647.43,-8.05
2673.90,-8.09
2700.64,-8.12
2727.65,-8.15
2754.93,-8.19
2782.48,-8.21
2810.30,-8.22
2838.40,-8.22
2866.79,-8.20
2895.46,-8.17
2924.41,-8.12
2953.65,-8.06
2983.19,-7.97
3013.02,-7.87
3043.15,-7.76
3073.58,-7.64
3104.32,-7.52
3135.36,-7.39
3166.72,-7.26
3198.38,-7.12
3230.37,-6.96
3262.67,-6.79
3295.30,-6.62
3328.25,-6.45
3361.53,-6.28
3395.15,-6.09
3429.10,-5.93
3463.39,-5.77
3498.03,-5.61
3533.01,-5.48
3568.34,-5.36
3604.02,-5.26
3640.06,-5.17
3676.46,-5.09
3713.22,-5.04
3750.36,-5.01
3787.86,-5.01
3825.74,-5.03
3864.00,-5.06
3902.64,-5.09
3941.66,-5.12
3981.08,-5.17
4020.89,-5.20
4061.10,-5.23
4101.71,-5.23
4142.73,-5.23
4184.15,-5.21
4226.00,-5.19
4268.26,-5.15
4310.94,-5.11
4354.05,-5.05
4397.59,-4.97
4441.56,-4.86
4485.98,-4.75
4530.84,-4.64
4576.15,-4.53
4621.91,-4.41
4668.13,-4.30
4714.81,-4.18
4761.96,-4.06
4809.58,-3.93
4857.67,-3.80
4906.25,-3.66
4955.31,-3.53
5004.87,-3.41
5054.91,-3.29
5105.46,-3.17
5156.52,-3.06
5208.08,-2.98
5260.16,-2.90
5312.77,-2.81
5365.89,-2.71
5419.55,-2.63
5473.75,-2.55
5528.49,-2.47
5583.77,-2.40
5639.61,-2.33
5696.00,-2.26
5752.96,-2.21
5810.49,-2.17
5868.60,-2.13
5927.28,-2.11
5986.56,-2.13
6046.42,-2.16
6106.89,-2.20
6167.96,-2.26
6229.64,-2.34
6291.93,-2.45
6354.85,-2.58
6418.40,-2.71
6482.58,-2.86
6547.41,-3.02
6612.88,-3.20
6679.01,-3.39
6745.80,-3.58
6813.26,-3.78
6881.39,-3.96
6950.21,-4.14
7019.71,-4.30
7089.91,-4.42
7160.81,-4.50
7232.41,-4.56
7304.74,-4.58
7377.79,-4.53
7451.56,-4.45
7526.08,-4.33
7601.34,-4.18
7677.35,-3.99
7754.13,-3.79
7831.67,-3.56
7909.98,-3.35
7989.08,-3.15
8068.98,-2.95
8149.67,-2.78
8231.16,-2.64
8313.47,-2.53
8396.61,-2.46
8480.57,-2.43
8565.38,-2.43
8651.03,-2.46
8737.54,-2.52
8824.92,-2.62
8913.17,-2.76
9002.30,-2.91
9092.32,-3.10
9183.25,-3.32
9275.08,-3.56
9367.83,-3.82
9461.51,-4.09
9556.12,-4.37
9651.68,-4.65
9748.20,-4.92
9845.68,-5.17
9944.14,-5.42
10043.58,-5.63
10144.02,-5.82
10245.46,-5.98
10347.91,-6.10
10451.39,-6.20
10555.91,-6.25
10661.46,-6.28
10768.08,-6.27
10875.76,-6.23
10984.52,-6.18
11094.36,-6.12
11205.31,-6.05
11317.36,-5.98
11430.53,-5.90
11544.84,-5.82
11660.29,-5.75
11776.89,-5.70
11894.66,-5.67
12013.60,-5.66
12133.74,-5.68
12255.08,-5.72
12377.63,-5.78
12501.41,-5.88
12626.42,-6.01
12752.68,-6.17
12880.21,-6.35
13009.01,-6.55
13139.10,-6.77
13270.49,-7.01
13403.20,-7.28
13537.23,-7.57
13672.60,-7.87
13809.33,-8.19
13947.42,-8.54
14086.90,-8.92
14227.77,-9.35
14370.04,-9.81
14513.74,-10.32
14658.88,-10.87
14805.47,-11.46
14953.52,-12.06
15103.06,-12.66
15254.09,-13.27
15406.63,-13.88
15560.70,-14.46
15716.30,-15.02
15873.47,-15.53
16032.20,-15.99
16192.52,-16.39
16354.45,-16.71
16517.99,-16.94
16683.17,-17.10
16850.01,-17.18
17018.51,-17.19
17188.69,-17.16
17360.58,-17.10
17534.18,-17.03
17709.53,-16.94
17886.62,-16.85
18065.49,-16.76
18246.14,-16.72
18428.60,-16.69
18612.89,-16.67
18799.02,-16.66
18987.01,-16.65
19176.88,-16.64
19368.65,-16.64
19562.33,-16.64
19757.96,-16.65
19955.54,-16.66
