frequency,raw,error,smoothed,error_smoothed,equalization,parametric_eq,fixed_band_eq,equalized_raw,equalized_smoothed,target
20.00,-2.56,-5.86,-2.57,-5.87,5.89,5.43,1.13,3.33,3.32,3.30
20.20,-2.53,-5.86,-2.51,-5.84,5.84,5.37,1.17,3.31,3.33,3.33
20.40,-2.45,-5.81,-2.44,-5.79,5.78,5.30,1.21,3.33,3.34,3.36
20.61,-2.34,-5.72,-2.36,-5.74,5.72,5.24,1.25,3.38,3.36,3.38
20.81,-2.26,-5.67,-2.25,-5.66,5.65,5.17,1.29,3.39,3.40,3.41
21.02,-2.16,-5.60,-2.16,-5.59,5.58,5.11,1.33,3.42,3.42,3.44
21.23,-2.06,-5.51,-2.06,-5.51,5.51,5.04,1.37,3.45,3.44,3.45
21.44,-1.97,-5.42,-1.97,-5.42,5.43,4.98,1.41,3.46,3.46,3.46
21.66,-1.87,-5.34,-1.87,-5.33,5.34,4.91,1.46,3.47,3.47,3.47
21.87,-1.77,-5.23,-1.77,-5.24,5.24,4.84,1.51,3.48,3.47,3.47
22.09,-1.68,-5.15,-1.68,-5.15,5.15,4.78,1.55,3.47,3.47,3.48
22.31,-1.58,-5.05,-1.58,-5.05,5.05,4.71,1.60,3.48,3.48,3.47
22.54,-1.48,-4.96,-1.49,-4.96,4.96,4.64,1.65,3.48,3.47,3.47
22.76,-1.39,-4.86,-1.39,-4.86,4.86,4.57,1.71,3.47,3.47,3.47
22.99,-1.30,-4.76,-1.29,-4.76,4.76,4.50,1.76,3.46,3.47,3.46
23.22,-1.19,-4.65,-1.20,-4.67,4.67,4.43,1.81,3.48,3.46,3.46
23.45,-1.11,-4.57,-1.10,-4.56,4.57,4.36,1.87,3.46,3.47,3.46
23.69,-1.01,-4.47,-1.01,-4.47,4.47,4.28,1.92,3.46,3.47,3.46
23.92,-0.90,-4.36,-0.91,-4.38,4.38,4.21,1.98,3.48,3.47,3.46
24.16,-0.82,-4.29,-0.81,-4.28,4.28,4.14,2.04,3.46,3.47,3.47
24.40,-0.72,-4.19,-0.72,-4.19,4.18,4.06,2.10,3.47,3.47,3.47
24.65,-0.62,-4.08,-0.63,-4.09,4.09,3.99,2.16,3.47,3.46,3.46
24.89,-0.54,-4.00,-0.53,-3.99,3.99,3.91,2.21,3.45,3.46,3.46
25.14,-0.43,-3.89,-0.43,-3.89,3.89,3.83,2.27,3.46,3.46,3.46
25.39,-0.33,-3.79,-0.34,-3.80,3.79,3.76,2.33,3.47,3.46,3.46
25.65,-0.25,-3.71,-0.24,-3.69,3.70,3.68,2.39,3.45,3.46,3.46
25.91,-0.14,-3.59,-0.14,-3.60,3.60,3.60,2.45,3.46,3.45,3.45
26.16,-0.04,-3.49,-0.05,-3.50,3.50,3.52,2.51,3.46,3.45,3.45
26.43,0.04,-3.41,0.05,-3.40,3.40,3.44,2.57,3.44,3.45,3.45
26.69,0.14,-3.31,0.14,-3.31,3.30,3.36,2.62,3.44,3.45,3.45
26.96,0.24,-3.21,0.23,-3.21,3.21,3.28,2.67,3.45,3.44,3.45
27.23,0.33,-3.12,0.33,-3.11,3.11,3.20,2.72,3.44,3.44,3.45
27.50,0.43,-3.02,0.43,-3.01,3.01,3.12,2.77,3.44,3.44,3.44
27.77,0.53,-2.90,0.53,-2.91,2.91,3.03,2.82,3.44,3.44,3.43
28.05,0.62,-2.81,0.62,-2.81,2.81,2.95,2.86,3.43,3.43,3.43
28.33,0.72,-2.70,0.71,-2.71,2.71,2.87,2.89,3.43,3.43,3.42
28.62,0.80,-2.62,0.81,-2.61,2.61,2.78,2.93,3.41,3.42,3.42
28.90,0.90,-2.52,0.90,-2.51,2.51,2.69,2.95,3.41,3.42,3.42
29.19,1.01,-2.40,1.00,-2.41,2.41,2.61,2.98,3.42,3.42,3.41
29.48,1.10,-2.32,1.10,-2.31,2.31,2.52,2.99,3.42,3.42,3.42
29.78,1.19,-2.22,1.19,-2.22,2.22,2.43,3.00,3.40,3.41,3.41
30.08,1.29,-2.12,1.29,-2.12,2.12,2.34,3.00,3.40,3.40,3.41
30.38,1.38,-2.02,1.38,-2.01,2.02,2.25,3.00,3.39,3.40,3.40
30.68,1.48,-1.91,1.48,-1.91,1.92,2.16,2.99,3.39,3.39,3.39
30.99,1.58,-1.80,1.57,-1.81,1.81,2.07,2.97,3.39,3.39,3.38
31.30,1.66,-1.72,1.67,-1.71,1.71,1.98,2.94,3.37,3.38,3.38
31.61,1.77,-1.61,1.76,-1.61,1.61,1.89,2.91,3.38,3.37,3.38
31.93,1.86,-1.51,1.86,-1.51,1.51,1.80,2.87,3.37,3.37,3.37
32.24,1.95,-1.41,1.95,-1.41,1.41,1.70,2.83,3.36,3.36,3.36
32.57,2.05,-1.31,2.05,-1.31,1.31,1.61,2.77,3.36,3.36,3.36
32.89,2.14,-1.21,2.14,-1.21,1.21,1.51,2.71,3.35,3.35,3.36
33.22,2.24,-1.10,2.24,-1.11,1.11,1.42,2.64,3.35,3.35,3.34
33.55,2.33,-1.01,2.33,-1.01,1.01,1.32,2.57,3.34,3.34,3.34
33.89,2.42,-0.91,2.42,-0.92,0.91,1.22,2.48,3.33,3.33,3.33
34.23,2.50,-0.83,2.51,-0.81,0.81,1.13,2.40,3.31,3.32,3.33
34.57,2.61,-0.71,2.61,-0.71,0.71,1.03,2.31,3.32,3.32,3.32
34.92,2.71,-0.60,2.70,-0.61,0.61,0.93,2.21,3.32,3.31,3.31
35.27,2.79,-0.51,2.79,-0.51,0.51,0.83,2.11,3.30,3.30,3.30
35.62,2.87,-0.42,2.88,-0.41,0.41,0.73,2.00,3.28,3.29,3.29
35.97,2.98,-0.30,2.97,-0.31,0.31,0.63,1.89,3.29,3.28,3.28
36.33,3.07,-0.21,3.06,-0.21,0.21,0.52,1.78,3.28,3.27,3.28
36.70,3.14,-0.13,3.15,-0.11,0.11,0.42,1.66,3.25,3.27,3.26
37.06,3.24,-0.01,3.24,-0.02,0.02,0.32,1.54,3.26,3.25,3.25
37.43,3.33,0.08,3.33,0.08,-0.08,0.22,1.42,3.25,3.25,3.25
37.81,3.41,0.17,3.42,0.18,-0.18,0.11,1.30,3.23,3.24,3.24
38.19,3.51,0.28,3.50,0.27,-0.28,0.01,1.17,3.23,3.23,3.22
38.57,3.59,0.37,3.59,0.37,-0.37,-0.10,1.04,3.22,3.21,3.22
38.95,3.67,0.46,3.68,0.47,-0.47,-0.20,0.91,3.20,3.21,3.21
39.34,3.77,0.57,3.77,0.57,-0.57,-0.31,0.78,3.20,3.20,3.20
39.74,3.86,0.68,3.86,0.67,-0.67,-0.42,0.65,3.19,3.19,3.18
40.14,3.94,0.76,3.94,0.77,-0.76,-0.52,0.52,3.18,3.18,3.18
40.54,4.04,0.87,4.03,0.86,-0.86,-0.63,0.39,3.18,3.17,3.17
40.94,4.10,0.94,4.11,0.95,-0.95,-0.74,0.25,3.15,3.16,3.16
41.35,4.20,1.05,4.20,1.05,-1.05,-0.85,0.12,3.15,3.15,3.15
41.76,4.29,1.15,4.29,1.14,-1.14,-0.95,-0.02,3.15,3.15,3.15
42.18,4.37,1.23,4.38,1.24,-1.23,-1.06,-0.16,3.14,3.15,3.14
42.60,4.46,1.33,4.45,1.32,-1.32,-1.17,-0.29,3.14,3.13,3.13
43.03,4.53,1.41,4.53,1.41,-1.41,-1.28,-0.43,3.12,3.12,3.12
43.46,4.60,1.49,4.61,1.50,-1.51,-1.39,-0.57,3.09,3.10,3.11
43.90,4.69,1.60,4.68,1.59,-1.60,-1.49,-0.71,3.09,3.08,3.08
44.33,4.75,1.68,4.76,1.69,-1.69,-1.60,-0.85,3.06,3.07,3.07
44.78,4.84,1.78,4.84,1.78,-1.78,-1.71,-0.99,3.06,3.06,3.06
45.23,4.92,1.88,4.91,1.87,-1.87,-1.82,-1.13,3.05,3.04,3.04
45.68,4.98,1.95,4.99,1.96,-1.96,-1.92,-1.27,3.02,3.03,3.02
46.13,5.06,2.05,5.06,2.05,-2.04,-2.03,-1.41,3.02,3.02,3.01
46.60,5.14,2.14,5.13,2.13,-2.13,-2.13,-1.55,3.01,3.00,3.00
47.06,5.20,2.21,5.21,2.22,-2.22,-2.24,-1.69,2.98,2.99,2.99
47.53,5.28,2.31,5.27,2.30,-2.31,-2.34,-1.84,2.98,2.97,2.97
48.01,5.34,2.37,5.34,2.38,-2.39,-2.45,-1.98,2.95,2.95,2.97
48.49,5.41,2.47,5.41,2.47,-2.48,-2.55,-2.12,2.93,2.93,2.94
48.97,5.48,2.57,5.48,2.57,-2.57,-2.65,-2.27,2.91,2.91,2.91
49.46,5.55,2.67,5.55,2.66,-2.66,-2.75,-2.41,2.89,2.89,2.88
49.96,5.61,2.75,5.61,2.75,-2.74,-2.85,-2.55,2.87,2.87,2.86
50.46,5.68,2.83,5.68,2.83,-2.83,-2.94,-2.70,2.85,2.85,2.85
50.96,5.74,2.91,5.74,2.91,-2.91,-3.04,-2.84,2.83,2.83,2.83
51.47,5.80,3.00,5.80,2.99,-2.99,-3.13,-2.98,2.81,2.81,2.80
51.99,5.85,3.06,5.86,3.07,-3.07,-3.22,-3.12,2.78,2.79,2.79
52.51,5.92,3.14,5.92,3.14,-3.14,-3.31,-3.26,2.78,2.78,2.78
53.03,5.98,3.22,5.97,3.21,-3.21,-3.40,-3.40,2.77,2.76,2.76
53.56,6.01,3.27,6.02,3.28,-3.28,-3.48,-3.53,2.73,2.74,2.74
54.10,6.06,3.34,6.06,3.34,-3.35,-3.56,-3.66,2.71,2.71,2.72
54.64,6.11,3.41,6.10,3.41,-3.41,-3.64,-3.79,2.70,2.69,2.70
55.18,6.15,3.47,6.16,3.48,-3.48,-3.71,-3.92,2.67,2.68,2.68
55.74,6.20,3.54,6.20,3.54,-3.54,-3.79,-4.04,2.66,2.66,2.66
56.29,6.25,3.60,6.24,3.60,-3.60,-3.86,-4.16,2.65,2.64,2.65
56.86,6.28,3.66,6.29,3.66,-3.66,-3.92,-4.27,2.62,2.63,2.62
57.42,6.33,3.73,6.32,3.72,-3.71,-3.98,-4.37,2.62,2.61,2.60
58.00,6.36,3.77,6.36,3.77,-3.77,-4.04,-4.47,2.59,2.59,2.59
58.58,6.39,3.81,6.40,3.82,-3.82,-4.10,-4.57,2.57,2.58,2.58
59.16,6.43,3.87,6.43,3.87,-3.87,-4.15,-4.65,2.56,2.56,2.56
59.76,6.47,3.92,6.46,3.91,-3.92,-4.20,-4.73,2.55,2.54,2.55
60.35,6.48,3.95,6.49,3.96,-3.97,-4.24,-4.80,2.51,2.53,2.53
60.96,6.52,4.01,6.52,4.01,-4.01,-4.28,-4.86,2.50,2.50,2.51
61.57,6.55,4.07,6.54,4.06,-4.06,-4.32,-4.91,2.49,2.48,2.48
62.18,6.56,4.11,6.57,4.11,-4.11,-4.35,-4.95,2.45,2.46,2.45
62.80,6.58,4.15,6.58,4.15,-4.15,-4.38,-4.99,2.43,2.43,2.43
63.43,6.61,4.20,6.60,4.19,-4.19,-4.41,-5.02,2.42,2.41,2.41
64.07,6.61,4.22,6.62,4.23,-4.23,-4.43,-5.03,2.38,2.40,2.39
64.71,6.65,4.28,6.64,4.27,-4.26,-4.45,-5.04,2.39,2.38,2.37
65.35,6.65,4.29,6.65,4.29,-4.29,-4.46,-5.04,2.36,2.36,2.36
66.01,6.65,4.31,6.65,4.32,-4.31,-4.47,-5.04,2.34,2.34,2.34
66.67,6.65,4.33,6.65,4.33,-4.34,-4.48,-5.02,2.31,2.31,2.32
67.33,6.65,4.35,6.65,4.35,-4.36,-4.48,-5.00,2.29,2.29,2.30
68.01,6.65,4.37,6.65,4.37,-4.38,-4.48,-4.97,2.27,2.27,2.28
68.69,6.65,4.39,6.65,4.39,-4.40,-4.48,-4.94,2.25,2.25,2.26
69.37,6.65,4.41,6.65,4.41,-4.41,-4.48,-4.90,2.24,2.24,2.24
70.07,6.65,4.44,6.65,4.44,-4.43,-4.47,-4.86,2.22,2.22,2.21
70.77,6.65,4.45,6.65,4.45,-4.45,-4.46,-4.81,2.20,2.20,2.20
71.48,6.65,4.47,6.64,4.46,-4.46,-4.44,-4.76,2.19,2.18,2.18
72.19,6.61,4.45,6.63,4.47,-4.47,-4.43,-4.71,2.14,2.16,2.16
72.91,6.61,4.48,6.61,4.48,-4.48,-4.41,-4.66,2.13,2.13,2.13
73.64,6.61,4.50,6.59,4.48,-4.48,-4.39,-4.60,2.13,2.11,2.11
74.38,6.56,4.47,6.57,4.49,-4.49,-4.37,-4.55,2.07,2.09,2.09
75.12,6.56,4.49,6.55,4.48,-4.48,-4.34,-4.49,2.08,2.07,2.07
75.87,6.52,4.47,6.53,4.48,-4.48,-4.32,-4.43,2.04,2.05,2.05
76.63,6.52,4.49,6.51,4.48,-4.48,-4.29,-4.38,2.04,2.03,2.03
77.40,6.48,4.47,6.48,4.47,-4.47,-4.26,-4.32,2.01,2.01,2.01
78.17,6.44,4.45,6.45,4.46,-4.46,-4.23,-4.27,1.98,1.99,1.99
78.95,6.43,4.45,6.42,4.44,-4.45,-4.20,-4.21,1.98,1.97,1.98
79.74,6.38,4.42,6.39,4.43,-4.43,-4.17,-4.16,1.95,1.95,1.96
80.54,6.35,4.41,6.35,4.41,-4.42,-4.14,-4.11,1.93,1.94,1.94
81.35,6.32,4.40,6.31,4.40,-4.40,-4.10,-4.07,1.92,1.92,1.92
82.16,6.27,4.37,6.28,4.38,-4.38,-4.07,-4.02,1.89,1.90,1.90
82.98,6.24,4.36,6.23,4.36,-4.36,-4.04,-3.98,1.88,1.88,1.88
83.81,6.19,4.34,6.19,4.33,-4.33,-4.00,-3.94,1.86,1.85,1.85
84.65,6.13,4.30,6.14,4.31,-4.31,-3.97,-3.90,1.82,1.83,1.83
85.50,6.10,4.29,6.09,4.28,-4.28,-3.94,-3.87,1.82,1.81,1.81
86.35,6.04,4.25,6.04,4.25,-4.25,-3.90,-3.83,1.79,1.79,1.79
87.22,5.98,4.21,5.99,4.22,-4.22,-3.87,-3.81,1.76,1.77,1.77
88.09,5.94,4.20,5.93,4.19,-4.19,-3.84,-3.78,1.75,1.75,1.74
88.97,5.88,4.15,5.88,4.16,-4.15,-3.80,-3.76,1.73,1.72,1.73
89.86,5.81,4.11,5.81,4.12,-4.12,-3.77,-3.74,1.69,1.70,1.70
90.76,5.75,4.09,5.75,4.08,-4.08,-3.74,-3.72,1.67,1.67,1.66
91.66,5.68,4.03,5.69,4.04,-4.04,-3.71,-3.71,1.64,1.64,1.65
92.58,5.63,4.02,5.62,4.00,-4.00,-3.67,-3.70,1.63,1.62,1.61
93.51,5.55,3.96,5.55,3.96,-3.96,-3.64,-3.69,1.59,1.59,1.59
94.44,5.48,3.91,5.48,3.92,-3.92,-3.61,-3.68,1.56,1.56,1.57
95.39,5.41,3.87,5.41,3.87,-3.88,-3.58,-3.68,1.53,1.53,1.54
96.34,5.33,3.83,5.34,3.83,-3.83,-3.55,-3.68,1.50,1.50,1.50
97.30,5.26,3.79,5.26,3.79,-3.79,-3.52,-3.68,1.47,1.47,1.47
98.28,5.19,3.75,5.18,3.74,-3.74,-3.49,-3.68,1.45,1.45,1.44
99.26,5.09,3.68,5.10,3.69,-3.69,-3.47,-3.69,1.40,1.42,1.41
100.25,5.03,3.65,5.02,3.63,-3.63,-3.44,-3.70,1.40,1.38,1.38
101.25,4.93,3.57,4.94,3.58,-3.58,-3.41,-3.71,1.35,1.36,1.36
102.27,4.85,3.52,4.85,3.53,-3.52,-3.38,-3.72,1.33,1.33,1.33
103.29,4.77,3.48,4.76,3.47,-3.46,-3.36,-3.73,1.31,1.30,1.29
104.32,4.66,3.39,4.67,3.41,-3.41,-3.33,-3.75,1.25,1.27,1.27
105.37,4.59,3.35,4.58,3.35,-3.35,-3.31,-3.76,1.24,1.23,1.24
106.42,4.50,3.29,4.50,3.29,-3.30,-3.28,-3.78,1.20,1.20,1.21
107.48,4.42,3.24,4.42,3.25,-3.25,-3.26,-3.79,1.17,1.17,1.18
108.56,4.34,3.20,4.34,3.20,-3.20,-3.24,-3.81,1.14,1.14,1.14
109.64,4.27,3.16,4.27,3.16,-3.16,-3.21,-3.82,1.11,1.11,1.11
110.74,4.20,3.12,4.20,3.12,-3.13,-3.19,-3.84,1.07,1.08,1.08
111.85,4.14,3.09,4.14,3.09,-3.10,-3.17,-3.85,1.04,1.04,1.05
112.97,4.08,3.08,4.08,3.07,-3.07,-3.14,-3.86,1.01,1.01,1.00
114.10,4.02,3.04,4.02,3.05,-3.05,-3.12,-3.87,0.97,0.97,0.98
115.24,3.96,3.02,3.96,3.03,-3.02,-3.10,-3.87,0.94,0.94,0.94
116.39,3.90,3.00,3.90,3.00,-3.00,-3.08,-3.88,0.90,0.91,0.90
117.55,3.85,2.99,3.84,2.98,-2.97,-3.06,-3.88,0.88,0.87,0.86
118.73,3.77,2.95,3.78,2.95,-2.93,-3.04,-3.88,0.84,0.84,0.82
119.92,3.70,2.90,3.70,2.91,-2.90,-3.02,-3.87,0.80,0.80,0.80
121.12,3.63,2.87,3.62,2.86,-2.86,-2.99,-3.86,0.77,0.76,0.76
122.33,3.53,2.81,3.54,2.81,-2.82,-2.97,-3.84,0.71,0.72,0.72
123.55,3.47,2.77,3.47,2.77,-2.78,-2.95,-3.83,0.69,0.69,0.70
124.79,3.39,2.73,3.39,2.73,-2.74,-2.93,-3.80,0.65,0.65,0.66
126.03,3.33,2.70,3.33,2.70,-2.71,-2.91,-3.78,0.62,0.62,0.63
127.29,3.26,2.67,3.26,2.67,-2.67,-2.89,-3.74,0.59,0.59,0.59
128.57,3.21,2.66,3.21,2.65,-2.65,-2.87,-3.71,0.56,0.56,0.55
129.85,3.15,2.63,3.15,2.63,-2.62,-2.85,-3.67,0.53,0.52,0.52
131.15,3.09,2.61,3.09,2.61,-2.61,-2.82,-3.62,0.48,0.48,0.48
132.46,3.03,2.58,3.03,2.58,-2.59,-2.80,-3.58,0.44,0.45,0.45
133.79,2.99,2.56,2.99,2.57,-2.58,-2.78,-3.52,0.41,0.41,0.43
135.12,2.95,2.56,2.95,2.56,-2.56,-2.76,-3.47,0.39,0.39,0.39
136.48,2.92,2.55,2.92,2.55,-2.55,-2.74,-3.41,0.37,0.36,0.37
137.84,2.88,2.54,2.88,2.55,-2.54,-2.71,-3.35,0.34,0.34,0.34
139.22,2.84,2.54,2.84,2.54,-2.53,-2.69,-3.29,0.31,0.31,0.30
140.61,2.81,2.54,2.81,2.53,-2.53,-2.67,-3.22,0.28,0.28,0.27
142.02,2.77,2.51,2.77,2.52,-2.52,-2.64,-3.15,0.25,0.25,0.26
143.44,2.73,2.50,2.73,2.51,-2.51,-2.62,-3.08,0.22,0.23,0.23
144.87,2.70,2.50,2.70,2.49,-2.49,-2.60,-3.01,0.21,0.20,0.20
146.32,2.66,2.48,2.66,2.48,-2.48,-2.57,-2.93,0.18,0.18,0.18
147.78,2.62,2.46,2.63,2.47,-2.47,-2.54,-2.86,0.15,0.16,0.16
149.26,2.59,2.46,2.59,2.46,-2.46,-2.52,-2.78,0.13,0.13,0.13
150.75,2.56,2.46,2.55,2.45,-2.45,-2.49,-2.71,0.11,0.10,0.10
152.26,2.51,2.43,2.52,2.44,-2.44,-2.47,-2.63,0.07,0.08,0.07
153.78,2.48,2.43,2.48,2.43,-2.43,-2.44,-2.56,0.05,0.05,0.05
155.32,2.45,2.43,2.44,2.42,-2.43,-2.41,-2.48,0.02,0.02,0.02
156.88,2.40,2.40,2.41,2.41,-2.42,-2.38,-2.41,-0.02,-0.01,-0.00
158.44,2.37,2.41,2.37,2.41,-2.41,-2.36,-2.34,-0.04,-0.04,-0.04
160.03,2.34,2.41,2.33,2.40,-2.40,-2.33,-2.26,-0.06,-0.07,-0.07
161.63,2.30,2.40,2.30,2.40,-2.39,-2.30,-2.19,-0.09,-0.09,-0.10
163.24,2.25,2.38,2.26,2.38,-2.38,-2.27,-2.12,-0.13,-0.12,-0.13
164.88,2.21,2.36,2.21,2.36,-2.36,-2.24,-2.05,-0.15,-0.15,-0.15
166.53,2.17,2.35,2.17,2.35,-2.34,-2.21,-1.98,-0.17,-0.18,-0.18
168.19,2.12,2.33,2.12,2.32,-2.32,-2.18,-1.91,-0.20,-0.20,-0.21
169.87,2.06,2.29,2.06,2.30,-2.30,-2.15,-1.84,-0.24,-0.24,-0.24
171.57,2.00,2.26,2.00,2.26,-2.27,-2.11,-1.77,-0.27,-0.27,-0.26
173.29,1.94,2.23,1.94,2.23,-2.24,-2.08,-1.71,-0.30,-0.30,-0.29
175.02,1.88,2.20,1.88,2.20,-2.20,-2.05,-1.64,-0.32,-0.32,-0.32
176.77,1.82,2.17,1.82,2.17,-2.16,-2.02,-1.58,-0.34,-0.35,-0.35
178.54,1.74,2.13,1.75,2.13,-2.12,-1.98,-1.52,-0.38,-0.37,-0.39
180.32,1.67,2.08,1.66,2.08,-2.07,-1.95,-1.46,-0.40,-0.41,-0.41
182.13,1.58,2.02,1.57,2.02,-2.01,-1.92,-1.40,-0.43,-0.44,-0.44
183.95,1.47,1.94,1.48,1.95,-1.95,-1.88,-1.34,-0.48,-0.47,-0.47
185.79,1.39,1.89,1.38,1.88,-1.88,-1.85,-1.28,-0.49,-0.50,-0.50
187.65,1.29,1.82,1.28,1.81,-1.81,-1.81,-1.23,-0.52,-0.53,-0.53
189.52,1.18,1.73,1.19,1.74,-1.74,-1.78,-1.17,-0.56,-0.55,-0.55
191.42,1.08,1.65,1.08,1.66,-1.66,-1.74,-1.12,-0.58,-0.58,-0.57
193.33,0.98,1.58,0.98,1.57,-1.58,-1.71,-1.07,-0.60,-0.60,-0.60
195.27,0.88,1.50,0.87,1.49,-1.50,-1.67,-1.01,-0.62,-0.62,-0.62
197.22,0.77,1.41,0.78,1.42,-1.42,-1.63,-0.96,-0.65,-0.64,-0.64
199.19,0.67,1.34,0.68,1.34,-1.34,-1.60,-0.91,-0.67,-0.66,-0.67
201.18,0.59,1.27,0.58,1.26,-1.26,-1.56,-0.87,-0.67,-0.68,-0.68
203.19,0.48,1.17,0.48,1.18,-1.18,-1.52,-0.82,-0.70,-0.70,-0.69
205.23,0.38,1.09,0.39,1.10,-1.10,-1.49,-0.77,-0.72,-0.71,-0.71
207.28,0.32,1.03,0.31,1.03,-1.03,-1.45,-0.73,-0.71,-0.72,-0.71
209.35,0.22,0.95,0.23,0.96,-0.96,-1.41,-0.68,-0.74,-0.73,-0.73
211.44,0.16,0.91,0.15,0.89,-0.89,-1.38,-0.64,-0.73,-0.74,-0.75
213.56,0.06,0.81,0.07,0.82,-0.82,-1.34,-0.60,-0.76,-0.75,-0.75
215.69,-0.00,0.75,0.00,0.75,-0.75,-1.30,-0.56,-0.75,-0.75,-0.75
217.85,-0.06,0.69,-0.07,0.68,-0.69,-1.26,-0.52,-0.75,-0.76,-0.75
220.03,-0.14,0.62,-0.14,0.62,-0.62,-1.23,-0.48,-0.76,-0.76,-0.76
222.23,-0.21,0.56,-0.20,0.56,-0.55,-1.19,-0.44,-0.76,-0.76,-0.77
224.45,-0.26,0.50,-0.27,0.50,-0.49,-1.15,-0.41,-0.75,-0.75,-0.76
226.70,-0.32,0.43,-0.32,0.43,-0.43,-1.11,-0.37,-0.75,-0.75,-0.75
228.96,-0.38,0.37,-0.38,0.37,-0.37,-1.07,-0.34,-0.75,-0.75,-0.75
231.25,-0.43,0.31,-0.43,0.31,-0.31,-1.04,-0.31,-0.74,-0.74,-0.74
233.57,-0.47,0.26,-0.47,0.26,-0.26,-1.00,-0.27,-0.73,-0.74,-0.73
235.90,-0.50,0.23,-0.51,0.22,-0.22,-0.96,-0.24,-0.72,-0.73,-0.73
238.26,-0.54,0.18,-0.53,0.19,-0.19,-0.92,-0.21,-0.73,-0.72,-0.72
240.64,-0.54,0.17,-0.54,0.17,-0.17,-0.89,-0.19,-0.71,-0.72,-0.71
243.05,-0.54,0.15,-0.54,0.15,-0.17,-0.85,-0.16,-0.71,-0.71,-0.69
245.48,-0.52,0.16,-0.52,0.16,-0.17,-0.81,-0.13,-0.69,-0.69,-0.68
247.93,-0.50,0.16,-0.49,0.18,-0.18,-0.78,-0.11,-0.68,-0.67,-0.66
250.41,-0.45,0.21,-0.45,0.20,-0.20,-0.74,-0.09,-0.65,-0.65,-0.66
252.92,-0.40,0.23,-0.40,0.23,-0.23,-0.70,-0.07,-0.63,-0.63,-0.63
255.45,-0.35,0.26,-0.35,0.26,-0.26,-0.67,-0.05,-0.61,-0.61,-0.61
258.00,-0.30,0.29,-0.30,0.29,-0.29,-0.63,-0.03,-0.59,-0.59,-0.59
260.58,-0.26,0.32,-0.25,0.32,-0.31,-0.59,-0.01,-0.57,-0.57,-0.58
263.19,-0.21,0.34,-0.21,0.35,-0.34,-0.56,0.01,-0.55,-0.55,-0.55
265.82,-0.16,0.37,-0.17,0.36,-0.36,-0.52,0.03,-0.52,-0.53,-0.53
268.48,-0.13,0.38,-0.13,0.38,-0.38,-0.49,0.04,-0.51,-0.51,-0.51
271.16,-0.10,0.38,-0.09,0.39,-0.39,-0.45,0.05,-0.49,-0.49,-0.48
273.87,-0.06,0.41,-0.06,0.40,-0.40,-0.42,0.07,-0.46,-0.46,-0.47
276.61,-0.02,0.42,-0.03,0.41,-0.41,-0.38,0.08,-0.43,-0.44,-0.44
279.38,-0.02,0.40,-0.01,0.41,-0.41,-0.35,0.09,-0.43,-0.42,-0.42
282.17,0.00,0.40,0.00,0.41,-0.40,-0.31,0.10,-0.40,-0.40,-0.40
284.99,0.02,0.40,0.01,0.39,-0.39,-0.28,0.12,-0.37,-0.38,-0.38
287.84,0.02,0.38,0.02,0.38,-0.38,-0.24,0.13,-0.36,-0.36,-0.36
290.72,0.02,0.35,0.02,0.36,-0.36,-0.21,0.14,-0.34,-0.34,-0.33
293.63,0.02,0.34,0.02,0.33,-0.34,-0.18,0.15,-0.32,-0.32,-0.32
296.57,0.02,0.31,0.02,0.31,-0.32,-0.15,0.15,-0.30,-0.30,-0.29
299.53,0.02,0.29,0.02,0.29,-0.29,-0.11,0.16,-0.27,-0.26,-0.27
302.53,0.02,0.27,0.02,0.26,-0.26,-0.08,0.17,-0.24,-0.24,-0.25
305.55,0.02,0.23,0.01,0.23,-0.22,-0.05,0.18,-0.20,-0.21,-0.22
308.61,-0.02,0.18,-0.01,0.19,-0.18,-0.02,0.19,-0.20,-0.19,-0.20
311.69,-0.02,0.15,-0.02,0.14,-0.14,0.01,0.20,-0.16,-0.17,-0.17
314.81,-0.04,0.09,-0.04,0.10,-0.10,0.04,0.21,-0.14,-0.14,-0.13
317.96,-0.06,0.05,-0.06,0.05,-0.05,0.08,0.21,-0.11,-0.11,-0.11
321.14,-0.08,0.01,-0.08,0.01,-0.01,0.11,0.22,-0.09,-0.09,-0.09
324.35,-0.11,-0.03,-0.10,-0.03,0.03,0.14,0.23,-0.08,-0.07,-0.08
327.59,-0.11,-0.06,-0.12,-0.07,0.07,0.16,0.24,-0.04,-0.05,-0.05
330.87,-0.15,-0.12,-0.14,-0.11,0.11,0.19,0.25,-0.04,-0.03,-0.03
334.18,-0.15,-0.14,-0.15,-0.14,0.13,0.22,0.26,-0.02,-0.02,-0.01
337.52,-0.15,-0.16,-0.15,-0.16,0.15,0.25,0.27,0.00,-0.00,0.01
340.90,-0.15,-0.19,-0.14,-0.17,0.16,0.28,0.28,0.01,0.02,0.04
344.30,-0.11,-0.16,-0.12,-0.18,0.17,0.31,0.29,0.06,0.05,0.05
347.75,-0.11,-0.18,-0.10,-0.17,0.17,0.33,0.30,0.06,0.07,0.07
351.23,-0.06,-0.15,-0.07,-0.16,0.17,0.36,0.31,0.11,0.10,0.09
354.74,-0.05,-0.16,-0.05,-0.16,0.16,0.39,0.32,0.11,0.11,0.11
358.28,-0.02,-0.15,-0.02,-0.15,0.15,0.41,0.33,0.13,0.14,0.13
361.87,0.01,-0.14,-0.00,-0.15,0.15,0.44,0.34,0.16,0.14,0.15
365.49,0.02,-0.15,0.02,-0.14,0.14,0.46,0.35,0.16,0.16,0.17
369.14,0.02,-0.16,0.04,-0.14,0.15,0.49,0.36,0.17,0.18,0.18
372.83,0.06,-0.14,0.05,-0.14,0.15,0.51,0.37,0.21,0.20,0.20
376.56,0.06,-0.14,0.06,-0.15,0.16,0.54,0.39,0.22,0.22,0.20
380.33,0.06,-0.17,0.05,-0.17,0.18,0.56,0.40,0.24,0.23,0.23
384.13,0.03,-0.21,0.04,-0.20,0.20,0.59,0.41,0.23,0.23,0.24
387.97,0.02,-0.23,0.02,-0.23,0.22,0.61,0.42,0.24,0.24,0.25
391.85,0.02,-0.24,0.02,-0.24,0.24,0.63,0.44,0.26,0.26,0.26
395.77,0.02,-0.26,0.02,-0.26,0.26,0.65,0.45,0.28,0.28,0.28
399.73,0.02,-0.27,0.01,-0.28,0.28,0.68,0.46,0.30,0.29,0.29
403.72,-0.02,-0.32,-0.01,-0.31,0.30,0.70,0.48,0.28,0.30,0.30
407.76,-0.02,-0.33,-0.02,-0.33,0.32,0.72,0.49,0.30,0.30,0.31
411.84,-0.02,-0.35,-0.02,-0.35,0.34,0.74,0.51,0.32,0.32,0.33
415.96,-0.02,-0.36,-0.02,-0.36,0.36,0.76,0.52,0.34,0.34,0.34
420.12,-0.02,-0.37,-0.02,-0.37,0.37,0.78,0.54,0.35,0.35,0.35
424.32,-0.03,-0.39,-0.03,-0.38,0.39,0.80,0.55,0.36,0.36,0.36
428.56,-0.04,-0.40,-0.04,-0.40,0.41,0.82,0.57,0.37,0.37,0.36
432.85,-0.05,-0.42,-0.05,-0.43,0.43,0.83,0.58,0.38,0.37,0.37
437.18,-0.06,-0.44,-0.06,-0.44,0.44,0.85,0.60,0.38,0.38,0.38
441.55,-0.06,-0.46,-0.06,-0.46,0.46,0.87,0.61,0.40,0.40,0.40
445.96,-0.06,-0.47,-0.06,-0.48,0.47,0.89,0.62,0.41,0.41,0.41
450.42,-0.06,-0.48,-0.06,-0.48,0.48,0.90,0.64,0.42,0.42,0.42
454.93,-0.06,-0.50,-0.06,-0.49,0.49,0.92,0.65,0.43,0.44,0.44
459.48,-0.04,-0.49,-0.05,-0.50,0.50,0.94,0.67,0.46,0.45,0.45
464.07,-0.04,-0.51,-0.03,-0.51,0.51,0.95,0.68,0.47,0.47,0.47
468.71,-0.02,-0.51,-0.02,-0.51,0.52,0.97,0.69,0.50,0.49,0.49
473.40,-0.02,-0.52,-0.02,-0.52,0.53,0.98,0.71,0.51,0.50,0.50
478.13,-0.02,-0.54,-0.02,-0.54,0.54,1.00,0.72,0.52,0.52,0.52
482.91,-0.02,-0.55,-0.02,-0.55,0.55,1.01,0.73,0.53,0.53,0.53
487.74,-0.02,-0.57,-0.02,-0.57,0.56,1.02,0.74,0.54,0.54,0.55
492.62,-0.02,-0.59,-0.02,-0.58,0.58,1.03,0.76,0.56,0.56,0.57
497.55,-0.02,-0.60,-0.03,-0.61,0.60,1.05,0.77,0.58,0.57,0.58
502.52,-0.04,-0.64,-0.04,-0.63,0.63,1.06,0.78,0.59,0.59,0.60
507.55,-0.06,-0.67,-0.06,-0.67,0.66,1.07,0.79,0.60,0.61,0.61
512.62,-0.08,-0.71,-0.09,-0.71,0.72,1.08,0.80,0.64,0.63,0.63
517.75,-0.13,-0.78,-0.12,-0.77,0.78,1.09,0.81,0.65,0.66,0.65
522.93,-0.18,-0.85,-0.18,-0.85,0.87,1.10,0.81,0.69,0.69,0.67
