frequency,raw,smoothed,error,error_smoothed,equalization,parametric_eq,fixed_band_eq,equalized_raw,equalized_smoothed,target
20.00,2.97,2.97,-1.50,-1.50,1.50,3.29,1.32,4.47,4.47,4.47
20.20,2.94,2.93,-1.56,-1.57,1.57,3.29,1.36,4.50,4.50,4.50
20.40,2.90,2.90,-1.63,-1.63,1.63,3.29,1.39,4.53,4.53,4.53
20.61,2.87,2.87,-1.68,-1.69,1.69,3.29,1.44,4.56,4.55,4.55
20.81,2.83,2.83,-1.75,-1.75,1.75,3.29,1.48,4.57,4.58,4.58
21.02,2.80,2.79,-1.81,-1.81,1.80,3.29,1.52,4.60,4.60,4.61
21.23,2.76,2.76,-1.86,-1.86,1.86,3.29,1.57,4.62,4.61,4.62
21.44,2.72,2.72,-1.91,-1.91,1.91,3.28,1.61,4.63,4.63,4.63
21.66,2.68,2.68,-1.96,-1.96,1.96,3.28,1.66,4.64,4.64,4.64
21.87,2.64,2.64,-2.00,-2.00,2.01,3.28,1.71,4.64,4.64,4.64
22.09,2.60,2.59,-2.05,-2.05,2.05,3.28,1.76,4.65,4.65,4.64
22.31,2.55,2.55,-2.10,-2.09,2.09,3.28,1.81,4.64,4.64,4.64
22.54,2.51,2.51,-2.14,-2.14,2.13,3.28,1.87,4.64,4.64,4.64
22.76,2.47,2.47,-2.18,-2.17,2.17,3.28,1.92,4.64,4.63,4.64
22.99,2.43,2.43,-2.21,-2.21,2.20,3.27,1.98,4.63,4.63,4.63
23.22,2.40,2.40,-2.23,-2.24,2.23,3.27,2.03,4.63,4.63,4.63
23.45,2.37,2.37,-2.26,-2.26,2.26,3.27,2.09,4.63,4.63,4.63
23.69,2.35,2.34,-2.28,-2.29,2.29,3.27,2.15,4.64,4.63,4.63
23.92,2.32,2.32,-2.31,-2.31,2.31,3.27,2.21,4.63,4.63,4.63
24.16,2.30,2.29,-2.34,-2.34,2.34,3.27,2.27,4.64,4.63,4.64
24.40,2.27,2.27,-2.37,-2.37,2.37,3.27,2.34,4.63,4.63,4.64
24.65,2.24,2.24,-2.39,-2.39,2.39,3.26,2.40,4.63,4.63,4.63
24.89,2.21,2.21,-2.42,-2.42,2.42,3.26,2.46,4.63,4.63,4.63
25.14,2.18,2.17,-2.45,-2.45,2.45,3.26,2.53,4.63,4.63,4.62
25.39,2.14,2.14,-2.49,-2.48,2.48,3.26,2.59,4.62,4.62,4.62
25.65,2.11,2.10,-2.52,-2.51,2.52,3.26,2.66,4.62,4.62,4.62
25.91,2.07,2.07,-2.54,-2.55,2.55,3.26,2.73,4.62,4.61,4.61
26.16,2.03,2.03,-2.58,-2.58,2.58,3.25,2.79,4.61,4.61,4.61
26.43,1.99,1.99,-2.62,-2.62,2.62,3.25,2.86,4.61,4.61,4.61
26.69,1.96,1.95,-2.65,-2.65,2.66,3.25,2.92,4.61,4.61,4.61
26.96,1.92,1.92,-2.69,-2.69,2.69,3.25,2.98,4.61,4.61,4.61
27.23,1.88,1.88,-2.73,-2.73,2.73,3.25,3.04,4.60,4.60,4.61
27.50,1.84,1.84,-2.77,-2.76,2.76,3.25,3.11,4.60,4.60,4.60
27.77,1.80,1.80,-2.80,-2.80,2.80,3.24,3.16,4.59,4.59,4.59
28.05,1.76,1.76,-2.83,-2.83,2.83,3.24,3.22,4.59,4.59,4.59
28.33,1.72,1.72,-2.86,-2.87,2.87,3.24,3.27,4.58,4.58,4.58
28.62,1.68,1.68,-2.90,-2.90,2.90,3.24,3.32,4.58,4.58,4.58
28.90,1.65,1.64,-2.93,-2.93,2.93,3.24,3.37,4.58,4.58,4.58
29.19,1.61,1.61,-2.96,-2.96,2.97,3.24,3.42,4.57,4.57,4.57
29.48,1.57,1.57,-3.01,-3.00,3.00,3.24,3.46,4.57,4.57,4.57
29.78,1.53,1.53,-3.03,-3.04,3.04,3.24,3.49,4.56,4.56,4.56
30.08,1.49,1.49,-3.07,-3.07,3.07,3.23,3.52,4.56,4.56,4.56
30.38,1.45,1.45,-3.10,-3.10,3.11,3.23,3.55,4.55,4.55,4.55
30.68,1.41,1.41,-3.14,-3.14,3.14,3.23,3.58,4.54,4.54,4.55
30.99,1.37,1.37,-3.17,-3.17,3.17,3.23,3.59,4.54,4.54,4.53
31.30,1.33,1.33,-3.20,-3.20,3.20,3.23,3.61,4.53,4.53,4.53
31.61,1.30,1.30,-3.23,-3.23,3.22,3.23,3.62,4.52,4.52,4.53
31.93,1.27,1.27,-3.25,-3.25,3.25,3.23,3.62,4.52,4.52,4.52
32.24,1.24,1.24,-3.27,-3.27,3.27,3.23,3.62,4.51,4.51,4.50
32.57,1.22,1.21,-3.28,-3.29,3.29,3.23,3.62,4.51,4.50,4.50
32.89,1.19,1.19,-3.31,-3.31,3.31,3.23,3.61,4.49,4.50,4.50
33.22,1.17,1.17,-3.32,-3.32,3.32,3.23,3.59,4.49,4.49,4.49
33.55,1.15,1.15,-3.34,-3.34,3.34,3.23,3.58,4.48,4.48,4.48
33.89,1.13,1.13,-3.34,-3.35,3.35,3.23,3.56,4.47,4.47,4.47
34.23,1.11,1.11,-3.36,-3.36,3.36,3.23,3.53,4.46,4.46,4.47
34.57,1.09,1.09,-3.37,-3.37,3.37,3.23,3.51,4.45,4.45,4.45
34.92,1.07,1.07,-3.37,-3.38,3.38,3.23,3.48,4.44,4.45,4.44
35.27,1.06,1.05,-3.38,-3.38,3.38,3.23,3.45,4.44,4.43,4.44
35.62,1.04,1.04,-3.39,-3.39,3.39,3.23,3.42,4.43,4.43,4.42
35.97,1.02,1.02,-3.39,-3.39,3.39,3.24,3.38,4.41,4.42,4.41
36.33,1.01,1.00,-3.40,-3.40,3.40,3.24,3.35,4.41,4.40,4.41
36.70,0.99,0.99,-3.41,-3.41,3.41,3.24,3.31,4.39,4.39,4.39
37.06,0.97,0.97,-3.41,-3.41,3.41,3.24,3.27,4.38,4.38,4.38
37.43,0.96,0.95,-3.42,-3.42,3.42,3.25,3.24,4.38,4.37,4.38
37.81,0.94,0.94,-3.42,-3.42,3.43,3.25,3.20,4.36,4.36,4.36
38.19,0.92,0.92,-3.43,-3.43,3.43,3.25,3.17,4.35,4.35,4.35
38.57,0.90,0.90,-3.44,-3.44,3.44,3.26,3.13,4.34,4.33,4.34
38.95,0.88,0.88,-3.45,-3.45,3.44,3.26,3.10,4.32,4.32,4.33
39.34,0.86,0.86,-3.45,-3.45,3.45,3.27,3.06,4.31,4.31,4.31
39.74,0.85,0.84,-3.45,-3.46,3.46,3.27,3.03,4.30,4.30,4.30
40.14,0.83,0.83,-3.46,-3.46,3.47,3.28,3.00,4.29,4.29,4.29
40.54,0.81,0.81,-3.47,-3.47,3.47,3.28,2.97,4.28,4.28,4.28
40.94,0.79,0.79,-3.48,-3.48,3.48,3.29,2.95,4.27,4.27,4.27
41.35,0.77,0.77,-3.49,-3.49,3.49,3.29,2.92,4.26,4.26,4.25
41.76,0.75,0.75,-3.50,-3.50,3.50,3.30,2.90,4.25,4.25,4.25
42.18,0.73,0.73,-3.51,-3.51,3.51,3.31,2.88,4.24,4.24,4.24
42.60,0.71,0.71,-3.52,-3.52,3.52,3.31,2.86,4.22,4.22,4.22
43.03,0.69,0.69,-3.53,-3.53,3.52,3.32,2.84,4.21,4.21,4.22
43.46,0.67,0.67,-3.53,-3.53,3.52,3.32,2.83,4.19,4.19,4.20
43.90,0.66,0.65,-3.52,-3.52,3.52,3.33,2.82,4.18,4.18,4.17
44.33,0.64,0.64,-3.52,-3.52,3.52,3.33,2.81,4.16,4.16,4.15
44.78,0.62,0.62,-3.52,-3.51,3.52,3.33,2.80,4.14,4.14,4.14
45.23,0.61,0.61,-3.51,-3.51,3.51,3.33,2.79,4.12,4.12,4.12
45.68,0.60,0.59,-3.50,-3.51,3.51,3.33,2.79,4.11,4.10,4.10
46.13,0.58,0.58,-3.50,-3.50,3.51,3.33,2.79,4.08,4.09,4.08
46.60,0.57,0.57,-3.50,-3.50,3.50,3.33,2.79,4.07,4.07,4.07
47.06,0.56,0.56,-3.50,-3.50,3.49,3.32,2.79,4.05,4.05,4.05
47.53,0.55,0.55,-3.49,-3.49,3.48,3.32,2.80,4.03,4.03,4.03
48.01,0.54,0.54,-3.48,-3.48,3.47,3.31,2.81,4.01,4.01,4.02
48.49,0.53,0.53,-3.46,-3.46,3.46,3.29,2.81,3.99,3.99,3.99
48.97,0.52,0.52,-3.44,-3.44,3.44,3.28,2.82,3.96,3.96,3.96
49.46,0.51,0.51,-3.42,-3.42,3.43,3.26,2.84,3.93,3.93,3.93
49.96,0.50,0.50,-3.40,-3.40,3.41,3.24,2.85,3.90,3.91,3.90
50.46,0.50,0.49,-3.39,-3.39,3.39,3.22,2.86,3.88,3.88,3.88
50.96,0.49,0.49,-3.38,-3.37,3.37,3.19,2.88,3.85,3.86,3.86
51.47,0.49,0.49,-3.34,-3.35,3.35,3.17,2.89,3.83,3.83,3.83
51.99,0.49,0.49,-3.32,-3.32,3.33,3.14,2.91,3.81,3.81,3.81
52.51,0.49,0.49,-3.30,-3.30,3.30,3.10,2.93,3.79,3.79,3.79
53.03,0.49,0.49,-3.28,-3.28,3.28,3.07,2.94,3.77,3.77,3.77
53.56,0.49,0.49,-3.26,-3.26,3.25,3.03,2.96,3.74,3.74,3.74
54.10,0.49,0.49,-3.23,-3.23,3.22,2.99,2.98,3.71,3.71,3.72
54.64,0.50,0.50,-3.19,-3.19,3.19,2.95,2.99,3.69,3.69,3.69
55.18,0.51,0.51,-3.16,-3.16,3.16,2.91,3.00,3.66,3.66,3.66
55.74,0.53,0.52,-3.11,-3.12,3.12,2.87,3.02,3.65,3.64,3.64
56.29,0.54,0.54,-3.08,-3.08,3.08,2.83,3.02,3.61,3.62,3.62
56.86,0.56,0.56,-3.03,-3.03,3.03,2.78,3.03,3.59,3.59,3.59
57.42,0.58,0.58,-2.99,-2.99,2.99,2.74,3.04,3.57,3.57,3.56
58.00,0.61,0.61,-2.94,-2.94,2.94,2.69,3.04,3.55,3.55,3.54
58.58,0.64,0.64,-2.89,-2.89,2.89,2.65,3.04,3.53,3.53,3.52
59.16,0.67,0.67,-2.84,-2.84,2.84,2.60,3.03,3.50,3.50,3.50
59.76,0.70,0.70,-2.79,-2.78,2.78,2.56,3.02,3.47,3.47,3.48
60.35,0.73,0.73,-2.72,-2.72,2.72,2.51,3.01,3.44,3.45,3.45
60.96,0.77,0.77,-2.66,-2.66,2.65,2.46,2.99,3.42,3.42,3.43
61.57,0.81,0.80,-2.58,-2.59,2.59,2.42,2.97,3.39,3.39,3.38
62.18,0.84,0.84,-2.51,-2.51,2.52,2.37,2.94,3.35,3.36,3.35
62.80,0.88,0.88,-2.45,-2.44,2.45,2.32,2.91,3.32,3.33,3.33
63.43,0.93,0.92,-2.36,-2.37,2.37,2.28,2.88,3.30,3.30,3.29
64.07,0.97,0.97,-2.30,-2.30,2.30,2.23,2.84,3.27,3.27,3.27
64.71,1.01,1.01,-2.23,-2.23,2.23,2.18,2.79,3.24,3.24,3.24
65.35,1.05,1.05,-2.16,-2.16,2.16,2.13,2.74,3.21,3.21,3.21
66.01,1.10,1.09,-2.09,-2.09,2.09,2.08,2.69,3.18,3.18,3.18
66.67,1.14,1.14,-2.02,-2.01,2.01,2.04,2.63,3.15,3.15,3.15
67.33,1.19,1.18,-1.94,-1.94,1.94,1.99,2.57,3.13,3.12,3.12
68.01,1.23,1.23,-1.87,-1.87,1.87,1.94,2.50,3.09,3.09,3.09
68.69,1.27,1.27,-1.80,-1.79,1.79,1.89,2.43,3.06,3.06,3.06
69.37,1.32,1.32,-1.71,-1.72,1.72,1.84,2.36,3.03,3.03,3.03
70.07,1.37,1.36,-1.63,-1.64,1.64,1.79,2.28,3.00,3.00,3.00
70.77,1.41,1.41,-1.57,-1.56,1.56,1.74,2.20,2.97,2.97,2.97
71.48,1.46,1.46,-1.48,-1.48,1.48,1.69,2.12,2.94,2.94,2.94
72.19,1.51,1.50,-1.40,-1.40,1.40,1.64,2.04,2.91,2.90,2.90
72.91,1.55,1.55,-1.32,-1.32,1.32,1.58,1.95,2.87,2.87,2.87
73.64,1.60,1.60,-1.23,-1.24,1.24,1.53,1.86,2.84,2.84,2.83
74.38,1.65,1.64,-1.16,-1.16,1.16,1.48,1.78,2.81,2.80,2.80
75.12,1.69,1.69,-1.08,-1.08,1.08,1.43,1.69,2.77,2.77,2.77
75.87,1.74,1.73,-1.00,-1.00,1.00,1.37,1.59,2.74,2.74,2.74
76.63,1.78,1.78,-0.93,-0.93,0.93,1.32,1.50,2.71,2.70,2.71
77.40,1.82,1.82,-0.86,-0.85,0.85,1.26,1.41,2.67,2.67,2.68
78.17,1.86,1.86,-0.78,-0.78,0.78,1.21,1.32,2.64,2.64,2.63
78.95,1.90,1.90,-0.71,-0.71,0.71,1.15,1.22,2.61,2.61,2.61
79.74,1.94,1.94,-0.64,-0.64,0.64,1.09,1.13,2.58,2.58,2.58
80.54,1.98,1.98,-0.57,-0.57,0.57,1.03,1.03,2.54,2.54,2.54
81.35,2.02,2.01,-0.49,-0.50,0.49,0.98,0.94,2.51,2.51,2.51
82.16,2.05,2.05,-0.43,-0.43,0.42,0.92,0.84,2.47,2.47,2.47
82.98,2.09,2.09,-0.36,-0.35,0.35,0.86,0.75,2.44,2.44,2.45
83.81,2.12,2.12,-0.28,-0.28,0.28,0.80,0.65,2.40,2.40,2.40
84.65,2.16,2.15,-0.20,-0.21,0.21,0.74,0.56,2.37,2.37,2.36
85.50,2.19,2.19,-0.15,-0.14,0.14,0.67,0.46,2.33,2.33,2.33
86.35,2.22,2.22,-0.08,-0.07,0.08,0.61,0.37,2.29,2.29,2.29
87.22,2.25,2.25,-0.01,-0.01,0.01,0.55,0.28,2.25,2.25,2.25
88.09,2.28,2.28,0.06,0.06,-0.06,0.48,0.18,2.21,2.21,2.21
88.97,2.31,2.31,0.12,0.13,-0.13,0.42,0.09,2.18,2.18,2.18
89.86,2.34,2.34,0.20,0.20,-0.20,0.36,-0.01,2.14,2.14,2.14
90.76,2.37,2.36,0.28,0.27,-0.27,0.29,-0.10,2.10,2.10,2.09
91.66,2.39,2.39,0.33,0.34,-0.33,0.22,-0.20,2.05,2.05,2.06
92.58,2.41,2.41,0.40,0.40,-0.40,0.16,-0.29,2.01,2.01,2.00
93.51,2.44,2.43,0.47,0.47,-0.47,0.09,-0.38,1.97,1.97,1.97
94.44,2.46,2.46,0.53,0.53,-0.53,0.02,-0.48,1.92,1.92,1.93
95.39,2.48,2.48,0.60,0.60,-0.60,-0.05,-0.57,1.88,1.88,1.88
96.34,2.50,2.49,0.67,0.66,-0.66,-0.12,-0.66,1.83,1.83,1.83
97.30,2.51,2.51,0.73,0.73,-0.73,-0.18,-0.76,1.78,1.78,1.78
98.28,2.53,2.53,0.79,0.79,-0.79,-0.25,-0.85,1.73,1.73,1.74
99.26,2.55,2.55,0.86,0.86,-0.86,-0.32,-0.94,1.69,1.69,1.69
100.25,2.57,2.56,0.92,0.92,-0.92,-0.40,-1.03,1.65,1.64,1.64
101.25,2.58,2.58,0.98,0.98,-0.98,-0.47,-1.12,1.60,1.60,1.60
102.27,2.60,2.59,1.04,1.05,-1.04,-0.54,-1.21,1.55,1.55,1.55
103.29,2.61,2.61,1.11,1.10,-1.10,-0.61,-1.30,1.50,1.50,1.50
104.32,2.62,2.62,1.16,1.16,-1.16,-0.68,-1.39,1.46,1.46,1.46
105.37,2.63,2.63,1.21,1.22,-1.22,-0.75,-1.48,1.41,1.41,1.41
106.42,2.64,2.64,1.27,1.27,-1.27,-0.82,-1.56,1.37,1.37,1.37
107.48,2.65,2.64,1.33,1.33,-1.32,-0.89,-1.65,1.32,1.32,1.32
108.56,2.65,2.65,1.38,1.38,-1.38,-0.97,-1.73,1.27,1.27,1.26
109.64,2.65,2.65,1.43,1.43,-1.43,-1.04,-1.81,1.22,1.22,1.22
110.74,2.65,2.65,1.47,1.48,-1.48,-1.11,-1.89,1.17,1.17,1.17
111.85,2.65,2.65,1.52,1.53,-1.53,-1.18,-1.96,1.12,1.12,1.13
112.97,2.65,2.64,1.59,1.58,-1.58,-1.25,-2.04,1.07,1.07,1.06
114.10,2.64,2.64,1.62,1.63,-1.62,-1.33,-2.11,1.01,1.02,1.02
115.24,2.64,2.63,1.68,1.67,-1.67,-1.40,-2.17,0.97,0.96,0.96
116.39,2.63,2.63,1.72,1.72,-1.72,-1.47,-2.23,0.91,0.91,0.91
117.55,2.62,2.62,1.76,1.77,-1.76,-1.54,-2.29,0.85,0.86,0.85
118.73,2.62,2.61,1.82,1.81,-1.81,-1.61,-2.35,0.81,0.80,0.80
119.92,2.61,2.61,1.85,1.86,-1.86,-1.68,-2.40,0.75,0.75,0.76
121.12,2.61,2.61,1.90,1.90,-1.90,-1.75,-2.44,0.70,0.70,0.70
122.33,2.61,2.60,1.96,1.95,-1.95,-1.81,-2.48,0.65,0.65,0.65
123.55,2.61,2.61,2.00,2.00,-2.01,-1.88,-2.52,0.60,0.60,0.61
124.79,2.61,2.61,2.05,2.05,-2.06,-1.95,-2.55,0.55,0.55,0.56
126.03,2.62,2.62,2.11,2.11,-2.12,-2.02,-2.58,0.50,0.50,0.51
127.29,2.63,2.62,2.17,2.17,-2.17,-2.08,-2.61,0.45,0.45,0.46
128.57,2.63,2.63,2.23,2.23,-2.23,-2.15,-2.63,0.40,0.40,0.40
129.85,2.64,2.64,2.29,2.29,-2.28,-2.21,-2.64,0.35,0.35,0.35
131.15,2.65,2.64,2.35,2.34,-2.34,-2.27,-2.65,0.31,0.31,0.30
132.46,2.65,2.65,2.39,2.39,-2.39,-2.33,-2.66,0.26,0.26,0.25
133.79,2.65,2.65,2.43,2.44,-2.43,-2.39,-2.66,0.22,0.22,0.22
135.12,2.64,2.64,2.48,2.47,-2.47,-2.45,-2.66,0.17,0.17,0.16
136.48,2.63,2.62,2.50,2.50,-2.50,-2.51,-2.66,0.13,0.13,0.13
137.84,2.61,2.61,2.53,2.53,-2.53,-2.57,-2.65,0.08,0.08,0.08
139.22,2.59,2.59,2.56,2.55,-2.55,-2.62,-2.65,0.04,0.04,0.03
140.61,2.57,2.57,2.58,2.57,-2.57,-2.68,-2.63,-0.00,-0.00,-0.01
142.02,2.55,2.55,2.58,2.59,-2.59,-2.73,-2.62,-0.04,-0.05,-0.04
143.44,2.53,2.53,2.60,2.61,-2.61,-2.78,-2.61,-0.09,-0.09,-0.08
144.87,2.52,2.52,2.64,2.63,-2.64,-2.83,-2.59,-0.12,-0.13,-0.12
146.32,2.51,2.51,2.66,2.66,-2.67,-2.87,-2.58,-0.16,-0.16,-0.16
147.78,2.51,2.51,2.69,2.70,-2.71,-2.92,-2.56,-0.20,-0.20,-0.19
149.26,2.52,2.51,2.74,2.74,-2.74,-2.96,-2.54,-0.23,-0.23,-0.22
150.75,2.52,2.52,2.79,2.79,-2.79,-3.01,-2.53,-0.27,-0.27,-0.27
152.26,2.53,2.53,2.83,2.84,-2.83,-3.04,-2.51,-0.30,-0.30,-0.31
153.78,2.54,2.53,2.88,2.88,-2.88,-3.08,-2.49,-0.34,-0.34,-0.34
155.32,2.54,2.54,2.93,2.92,-2.92,-3.12,-2.48,-0.38,-0.38,-0.39
156.88,2.54,2.54,2.96,2.96,-2.96,-3.15,-2.46,-0.43,-0.43,-0.42
158.44,2.54,2.54,3.00,3.00,-3.00,-3.18,-2.45,-0.47,-0.47,-0.47
160.03,2.54,2.54,3.04,3.04,-3.04,-3.21,-2.43,-0.51,-0.51,-0.51
161.63,2.54,2.53,3.09,3.08,-3.08,-3.24,-2.42,-0.54,-0.55,-0.55
163.24,2.53,2.53,3.12,3.12,-3.11,-3.26,-2.41,-0.59,-0.58,-0.59
164.88,2.53,2.52,3.15,3.15,-3.15,-3.28,-2.40,-0.62,-0.62,-0.62
166.53,2.52,2.52,3.18,3.18,-3.18,-3.30,-2.39,-0.66,-0.66,-0.66
168.19,2.51,2.51,3.20,3.21,-3.21,-3.32,-2.39,-0.70,-0.70,-0.70
169.87,2.51,2.50,3.24,3.24,-3.24,-3.34,-2.38,-0.73,-0.73,-0.73
171.57,2.50,2.49,3.27,3.26,-3.27,-3.35,-2.38,-0.77,-0.77,-0.77
173.29,2.48,2.48,3.28,3.29,-3.29,-3.36,-2.38,-0.81,-0.81,-0.81
175.02,2.47,2.47,3.31,3.31,-3.32,-3.37,-2.39,-0.85,-0.85,-0.84
176.77,2.46,2.45,3.34,3.34,-3.34,-3.37,-2.39,-0.88,-0.89,-0.89
178.54,2.44,2.44,3.37,3.37,-3.36,-3.37,-2.40,-0.92,-0.92,-0.93
180.32,2.42,2.42,3.38,3.38,-3.38,-3.37,-2.40,-0.96,-0.96,-0.97
182.13,2.40,2.39,3.39,3.40,-3.40,-3.37,-2.41,-1.00,-1.00,-1.00
183.95,2.37,2.37,3.41,3.41,-3.41,-3.37,-2.42,-1.04,-1.04,-1.04
185.79,2.35,2.34,3.42,3.42,-3.42,-3.36,-2.44,-1.07,-1.07,-1.07
187.65,2.32,2.32,3.43,3.43,-3.42,-3.35,-2.45,-1.11,-1.11,-1.11
189.52,2.29,2.29,3.43,3.43,-3.43,-3.34,-2.47,-1.14,-1.14,-1.14
191.42,2.26,2.26,3.43,3.43,-3.43,-3.33,-2.49,-1.17,-1.17,-1.17
193.33,2.23,2.23,3.43,3.43,-3.43,-3.31,-2.51,-1.20,-1.20,-1.20
195.27,2.20,2.20,3.43,3.43,-3.43,-3.29,-2.53,-1.23,-1.23,-1.23
197.22,2.17,2.16,3.42,3.42,-3.42,-3.27,-2.55,-1.26,-1.26,-1.26
199.19,2.13,2.13,3.42,3.42,-3.42,-3.25,-2.58,-1.29,-1.28,-1.29
201.18,2.10,2.10,3.41,3.41,-3.41,-3.22,-2.60,-1.31,-1.31,-1.31
203.19,2.07,2.06,3.39,3.39,-3.40,-3.19,-2.63,-1.33,-1.34,-1.33
205.23,2.03,2.03,3.38,3.38,-3.39,-3.16,-2.66,-1.36,-1.36,-1.35
207.28,2.00,2.00,3.35,3.36,-3.37,-3.13,-2.68,-1.37,-1.37,-1.36
209.35,1.97,1.97,3.35,3.35,-3.35,-3.10,-2.71,-1.38,-1.38,-1.38
211.44,1.93,1.93,3.33,3.33,-3.32,-3.06,-2.74,-1.39,-1.39,-1.41
213.56,1.89,1.88,3.30,3.29,-3.28,-3.03,-2.76,-1.39,-1.40,-1.41
215.69,1.83,1.83,3.24,3.24,-3.23,-2.99,-2.79,-1.41,-1.41,-1.41
217.85,1.76,1.76,3.18,3.18,-3.17,-2.95,-2.81,-1.42,-1.42,-1.42
220.03,1.68,1.68,3.11,3.11,-3.10,-2.90,-2.84,-1.42,-1.43,-1.44
222.23,1.59,1.59,3.04,3.03,-3.02,-2.86,-2.86,-1.43,-1.43,-1.45
224.45,1.50,1.49,2.94,2.94,-2.93,-2.82,-2.88,-1.44,-1.44,-1.44
226.70,1.40,1.40,2.84,2.84,-2.85,-2.77,-2.89,-1.45,-1.45,-1.44
228.96,1.31,1.31,2.75,2.75,-2.76,-2.72,-2.91,-1.45,-1.45,-1.44
231.25,1.23,1.22,2.66,2.66,-2.68,-2.67,-2.92,-1.45,-1.45,-1.43
233.57,1.15,1.15,2.58,2.58,-2.60,-2.62,-2.93,-1.45,-1.45,-1.43
235.90,1.09,1.09,2.52,2.52,-2.53,-2.57,-2.93,-1.44,-1.44,-1.43
238.26,1.04,1.04,2.47,2.47,-2.47,-2.51,-2.93,-1.44,-1.44,-1.43
240.64,1.00,1.00,2.42,2.42,-2.42,-2.46,-2.92,-1.42,-1.42,-1.42
243.05,0.97,0.97,2.38,2.38,-2.38,-2.41,-2.92,-1.41,-1.41,-1.41
245.48,0.94,0.94,2.34,2.34,-2.33,-2.35,-2.90,-1.40,-1.40,-1.40
247.93,0.91,0.91,2.29,2.30,-2.29,-2.29,-2.88,-1.38,-1.38,-1.39
250.41,0.88,0.88,2.26,2.25,-2.25,-2.23,-2.86,-1.37,-1.37,-1.38
252.92,0.85,0.84,2.21,2.21,-2.20,-2.17,-2.83,-1.35,-1.36,-1.36
255.45,0.81,0.81,2.15,2.16,-2.15,-2.11,-2.80,-1.35,-1.34,-1.34
258.00,0.78,0.77,2.10,2.10,-2.10,-2.05,-2.76,-1.32,-1.33,-1.33
260.58,0.74,0.74,2.05,2.05,-2.05,-1.99,-2.71,-1.31,-1.31,-1.31
263.19,0.70,0.70,1.99,1.99,-1.99,-1.93,-2.67,-1.29,-1.29,-1.29
265.82,0.66,0.66,1.93,1.93,-1.93,-1.87,-2.61,-1.27,-1.27,-1.28
268.48,0.62,0.61,1.87,1.87,-1.87,-1.80,-2.56,-1.25,-1.25,-1.25
271.16,0.57,0.57,1.79,1.80,-1.80,-1.74,-2.50,-1.24,-1.23,-1.23
273.87,0.53,0.53,1.74,1.74,-1.74,-1.68,-2.43,-1.21,-1.21,-1.21
276.61,0.49,0.48,1.68,1.68,-1.68,-1.61,-2.36,-1.19,-1.19,-1.19
279.38,0.44,0.44,1.61,1.62,-1.61,-1.55,-2.29,-1.18,-1.17,-1.17
282.17,0.40,0.39,1.56,1.55,-1.55,-1.48,-2.22,-1.15,-1.16,-1.16
284.99,0.35,0.35,1.48,1.48,-1.48,-1.41,-2.14,-1.14,-1.14,-1.13
287.84,0.30,0.30,1.42,1.42,-1.42,-1.35,-2.06,-1.12,-1.12,-1.12
290.72,0.26,0.25,1.35,1.35,-1.35,-1.28,-1.98,-1.09,-1.10,-1.09
293.63,0.21,0.21,1.28,1.28,-1.28,-1.22,-1.90,-1.07,-1.07,-1.08
296.57,0.16,0.15,1.21,1.21,-1.21,-1.15,-1.81,-1.05,-1.05,-1.05
299.53,0.10,0.10,1.13,1.14,-1.14,-1.08,-1.72,-1.04,-1.04,-1.04
302.53,0.05,0.05,1.07,1.06,-1.06,-1.01,-1.64,-1.01,-1.01,-1.02
305.55,-0.00,-0.00,0.98,0.99,-0.98,-0.95,-1.55,-0.99,-0.99,-0.98
308.61,-0.05,-0.06,0.91,0.91,-0.91,-0.88,-1.46,-0.96,-0.96,-0.97
311.69,-0.11,-0.11,0.83,0.83,-0.83,-0.81,-1.37,-0.94,-0.94,-0.94
314.81,-0.16,-0.16,0.74,0.75,-0.75,-0.74,-1.28,-0.92,-0.91,-0.90
317.96,-0.21,-0.22,0.67,0.67,-0.68,-0.68,-1.19,-0.89,-0.89,-0.89
321.14,-0.27,-0.27,0.60,0.60,-0.60,-0.61,-1.09,-0.87,-0.87,-0.87
324.35,-0.33,-0.33,0.52,0.52,-0.52,-0.54,-1.00,-0.85,-0.85,-0.85
327.59,-0.38,-0.39,0.44,0.44,-0.44,-0.47,-0.91,-0.82,-0.83,-0.83
330.87,-0.44,-0.44,0.37,0.37,-0.36,-0.41,-0.82,-0.81,-0.81,-0.81
334.18,-0.50,-0.50,0.29,0.29,-0.29,-0.34,-0.73,-0.79,-0.79,-0.79
337.52,-0.56,-0.56,0.21,0.21,-0.21,-0.27,-0.64,-0.77,-0.77,-0.78
340.90,-0.62,-0.62,0.12,0.13,-0.13,-0.21,-0.54,-0.75,-0.75,-0.75
344.30,-0.68,-0.68,0.05,0.05,-0.05,-0.14,-0.45,-0.73,-0.73,-0.73
347.75,-0.73,-0.74,-0.02,-0.03,0.02,-0.07,-0.36,-0.71,-0.71,-0.71
351.23,-0.79,-0.79,-0.10,-0.10,0.10,-0.01,-0.27,-0.70,-0.70,-0.69
354.74,-0.84,-0.84,-0.17,-0.17,0.16,0.06,-0.18,-0.68,-0.68,-0.68
358.28,-0.89,-0.89,-0.23,-0.24,0.23,0.12,-0.09,-0.66,-0.67,-0.66
361.87,-0.94,-0.94,-0.30,-0.30,0.29,0.19,0.00,-0.65,-0.65,-0.64
365.49,-0.98,-0.98,-0.35,-0.35,0.35,0.25,0.09,-0.63,-0.63,-0.63
369.14,-1.02,-1.02,-0.40,-0.40,0.41,0.32,0.18,-0.62,-0.62,-0.63
372.83,-1.06,-1.06,-0.46,-0.45,0.46,0.38,0.27,-0.60,-0.60,-0.61
376.56,-1.10,-1.10,-0.50,-0.51,0.51,0.44,0.36,-0.59,-0.59,-0.60
380.33,-1.14,-1.14,-0.57,-0.56,0.56,0.51,0.45,-0.58,-0.58,-0.57
384.13,-1.17,-1.18,-0.61,-0.61,0.61,0.57,0.54,-0.56,-0.57,-0.56
387.97,-1.21,-1.21,-0.66,-0.66,0.66,0.63,0.63,-0.56,-0.55,-0.55
391.85,-1.24,-1.24,-0.70,-0.70,0.70,0.69,0.72,-0.54,-0.54,-0.55
395.77,-1.27,-1.28,-0.75,-0.75,0.74,0.75,0.81,-0.53,-0.53,-0.53
399.73,-1.30,-1.30,-0.79,-0.78,0.79,0.81,0.89,-0.52,-0.52,-0.52
403.72,-1.33,-1.33,-0.82,-0.82,0.82,0.87,0.98,-0.51,-0.51,-0.51
407.76,-1.35,-1.35,-0.85,-0.86,0.86,0.93,1.07,-0.50,-0.50,-0.50
411.84,-1.37,-1.38,-0.89,-0.89,0.89,0.98,1.15,-0.48,-0.49,-0.48
415.96,-1.40,-1.40,-0.93,-0.93,0.92,1.04,1.23,-0.48,-0.48,-0.47
420.12,-1.42,-1.42,-0.96,-0.96,0.95,1.09,1.32,-0.47,-0.47,-0.46
424.32,-1.43,-1.44,-0.98,-0.98,0.98,1.15,1.40,-0.45,-0.46,-0.46
428.56,-1.45,-1.45,-1.01,-1.01,1.01,1.20,1.48,-0.45,-0.45,-0.45
432.85,-1.47,-1.47,-1.04,-1.04,1.03,1.25,1.55,-0.44,-0.44,-0.44
437.18,-1.49,-1.49,-1.06,-1.06,1.06,1.30,1.63,-0.43,-0.42,-0.43
441.55,-1.50,-1.50,-1.09,-1.09,1.10,1.35,1.70,-0.41,-0.41,-0.41
445.96,-1.51,-1.52,-1.11,-1.12,1.13,1.40,1.77,-0.38,-0.39,-0.40
450.42,-1.55,-1.55,-1.16,-1.16,1.17,1.45,1.84,-0.38,-0.38,-0.39
454.93,-1.59,-1.59,-1.22,-1.21,1.22,1.49,1.90,-0.38,-0.37,-0.37
459.48,-1.63,-1.63,-1.27,-1.27,1.27,1.54,1.96,-0.37,-0.36,-0.36
464.07,-1.66,-1.67,-1.32,-1.32,1.32,1.58,2.02,-0.35,-0.35,-0.34
468.71,-1.70,-1.70,-1.38,-1.38,1.37,1.62,2.07,-0.33,-0.33,-0.32
473.40,-1.74,-1.74,-1.43,-1.43,1.43,1.66,2.12,-0.31,-0.31,-0.32
478.13,-1.78,-1.78,-1.49,-1.48,1.48,1.70,2.16,-0.30,-0.30,-0.30
482.91,-1.82,-1.82,-1.54,-1.54,1.54,1.73,2.20,-0.28,-0.28,-0.29
487.74,-1.86,-1.86,-1.60,-1.60,1.60,1.77,2.23,-0.27,-0.27,-0.27
492.62,-1.90,-1.90,-1.66,-1.65,1.65,1.80,2.26,-0.25,-0.25,-0.25
497.55,-1.94,-1.94,-1.70,-1.71,1.71,1.83,2.29,-0.24,-0.24,-0.24
502.52,-1.98,-1.98,-1.76,-1.76,1.76,1.86,2.31,-0.22,-0.22,-0.22
507.55,-2.02,-2.02,-1.81,-1.82,1.82,1.89,2.32,-0.21,-0.21,-0.21
512.62,-2.06,-2.06,-1.87,-1.87,1.87,1.92,2.33,-0.19,-0.19,-0.19
517.75,-2.09,-2.10,-1.92,-1.92,1.93,1.94,2.34,-0.17,-0.17,-0.17
