frequency,raw,smoothed,error,error_smoothed,equalization,parametric_eq,fixed_band_eq,equalized_raw,equalized_smoothed,target
20.00,11.89,11.89,5.84,5.84,-5.86,-5.71,-2.39,6.03,6.03,6.05
20.20,11.89,11.90,5.84,5.85,-5.85,-5.70,-2.46,6.04,6.05,6.05
20.40,11.89,11.89,5.85,5.85,-5.84,-5.69,-2.53,6.06,6.06,6.05
20.61,11.88,11.89,5.84,5.84,-5.82,-5.68,-2.60,6.06,6.06,6.05
20.81,11.87,11.87,5.83,5.82,-5.81,-5.67,-2.67,6.06,6.06,6.05
21.02,11.85,11.85,5.81,5.81,-5.79,-5.66,-2.75,6.06,6.06,6.05
21.23,11.82,11.83,5.78,5.78,-5.78,-5.65,-2.83,6.05,6.05,6.05
21.44,11.80,11.80,5.76,5.76,-5.76,-5.64,-2.91,6.05,6.04,6.05
21.66,11.77,11.77,5.73,5.73,-5.73,-5.63,-3.00,6.04,6.04,6.04
21.87,11.74,11.75,5.70,5.70,-5.71,-5.62,-3.08,6.03,6.04,6.04
22.09,11.72,11.72,5.68,5.68,-5.69,-5.61,-3.17,6.04,6.04,6.04
22.31,11.70,11.70,5.66,5.66,-5.67,-5.60,-3.26,6.04,6.04,6.04
22.54,11.68,11.69,5.64,5.65,-5.65,-5.59,-3.36,6.04,6.04,6.04
22.76,11.67,11.67,5.63,5.63,-5.63,-5.58,-3.46,6.04,6.04,6.04
22.99,11.65,11.65,5.61,5.61,-5.61,-5.56,-3.55,6.04,6.04,6.04
23.22,11.63,11.63,5.60,5.60,-5.59,-5.55,-3.65,6.04,6.04,6.04
23.45,11.61,11.61,5.58,5.58,-5.58,-5.54,-3.76,6.04,6.04,6.04
23.69,11.59,11.59,5.56,5.56,-5.56,-5.53,-3.86,6.04,6.04,6.04
23.92,11.57,11.57,5.54,5.54,-5.53,-5.51,-3.97,6.04,6.04,6.03
24.16,11.54,11.54,5.51,5.51,-5.51,-5.50,-4.08,6.03,6.03,6.03
24.40,11.51,11.52,5.48,5.49,-5.48,-5.49,-4.19,6.03,6.03,6.03
24.65,11.49,11.49,5.46,5.46,-5.46,-5.47,-4.30,6.04,6.03,6.03
24.89,11.46,11.46,5.43,5.43,-5.43,-5.46,-4.42,6.03,6.03,6.03
25.14,11.43,11.43,5.40,5.40,-5.40,-5.44,-4.53,6.03,6.03,6.03
25.39,11.39,11.40,5.37,5.37,-5.38,-5.43,-4.65,6.02,6.02,6.03
25.65,11.37,11.37,5.35,5.34,-5.35,-5.41,-4.76,6.02,6.02,6.03
25.91,11.34,11.34,5.32,5.32,-5.33,-5.40,-4.88,6.01,6.01,6.02
26.16,11.32,11.32,5.30,5.30,-5.31,-5.38,-5.00,6.01,6.01,6.02
26.43,11.30,11.31,5.28,5.29,-5.29,-5.37,-5.11,6.01,6.01,6.02
26.69,11.29,11.29,5.27,5.27,-5.27,-5.35,-5.23,6.02,6.02,6.02
26.96,11.27,11.28,5.26,5.26,-5.25,-5.33,-5.34,6.02,6.03,6.02
27.23,11.25,11.25,5.24,5.23,-5.22,-5.32,-5.45,6.04,6.03,6.02
27.50,11.21,11.21,5.20,5.20,-5.18,-5.30,-5.56,6.04,6.04,6.01
27.77,11.16,11.16,5.15,5.15,-5.13,-5.28,-5.66,6.03,6.03,6.01
28.05,11.10,11.10,5.09,5.09,-5.08,-5.26,-5.76,6.03,6.02,6.01
28.33,11.03,11.03,5.03,5.02,-5.02,-5.24,-5.86,6.01,6.01,6.01
28.62,10.96,10.96,4.96,4.96,-4.97,-5.22,-5.95,5.99,5.99,6.01
28.90,10.90,10.91,4.90,4.90,-4.93,-5.20,-6.03,5.97,5.97,6.00
29.19,10.86,10.87,4.86,4.87,-4.90,-5.18,-6.10,5.97,5.97,6.00
29.48,10.84,10.85,4.85,4.85,-4.87,-5.16,-6.17,5.97,5.97,6.00
29.78,10.85,10.85,4.86,4.85,-4.86,-5.14,-6.23,5.99,5.99,6.00
30.08,10.85,10.86,4.86,4.86,-4.85,-5.12,-6.28,6.00,6.00,5.99
30.38,10.86,10.86,4.87,4.87,-4.85,-5.10,-6.32,6.02,6.01,5.99
30.68,10.86,10.86,4.88,4.87,-4.85,-5.08,-6.35,6.02,6.01,5.99
30.99,10.84,10.85,4.86,4.86,-4.84,-5.06,-6.37,6.00,6.00,5.98
31.30,10.82,10.82,4.84,4.84,-4.84,-5.03,-6.38,5.98,5.98,5.98
31.61,10.80,10.80,4.83,4.82,-4.84,-5.01,-6.39,5.97,5.97,5.98
31.93,10.78,10.79,4.81,4.81,-4.83,-4.99,-6.37,5.95,5.96,5.98
32.24,10.78,10.78,4.81,4.81,-4.83,-4.96,-6.36,5.96,5.96,5.97
32.57,10.78,10.78,4.82,4.82,-4.82,-4.94,-6.32,5.96,5.96,5.97
32.89,10.79,10.79,4.83,4.82,-4.82,-4.91,-6.29,5.97,5.97,5.96
33.22,10.78,10.79,4.82,4.83,-4.82,-4.88,-6.24,5.97,5.97,5.96
33.55,10.78,10.78,4.83,4.82,-4.81,-4.86,-6.19,5.97,5.97,5.96
33.89,10.76,10.76,4.81,4.81,-4.80,-4.83,-6.12,5.96,5.96,5.95
34.23,10.74,10.74,4.79,4.79,-4.79,-4.80,-6.05,5.95,5.95,5.95
34.57,10.71,10.72,4.77,4.77,-4.78,-4.78,-5.98,5.94,5.94,5.94
34.92,10.69,10.69,4.75,4.75,-4.76,-4.75,-5.90,5.94,5.94,5.94
35.27,10.66,10.67,4.73,4.73,-4.73,-4.72,-5.81,5.93,5.93,5.94
35.62,10.64,10.64,4.71,4.71,-4.71,-4.69,-5.72,5.94,5.93,5.93
35.97,10.60,10.61,4.68,4.68,-4.68,-4.66,-5.63,5.92,5.93,5.93
36.33,10.57,10.57,4.65,4.65,-4.65,-4.63,-5.53,5.92,5.92,5.92
36.70,10.53,10.53,4.62,4.62,-4.62,-4.60,-5.44,5.91,5.91,5.91
37.06,10.49,10.49,4.58,4.59,-4.58,-4.57,-5.34,5.91,5.91,5.91
37.43,10.45,10.45,4.55,4.55,-4.54,-4.53,-5.24,5.91,5.91,5.90
37.81,10.40,10.40,4.51,4.51,-4.50,-4.50,-5.14,5.90,5.90,5.90
38.19,10.35,10.35,4.46,4.46,-4.46,-4.47,-5.04,5.90,5.90,5.89
38.57,10.29,10.30,4.41,4.41,-4.41,-4.43,-4.94,5.88,5.89,5.88
38.95,10.24,10.24,4.37,4.36,-4.37,-4.40,-4.84,5.88,5.88,5.88
39.34,10.18,10.18,4.31,4.31,-4.32,-4.37,-4.74,5.86,5.86,5.87
39.74,10.13,10.13,4.27,4.27,-4.28,-4.33,-4.65,5.86,5.86,5.86
40.14,10.08,10.09,4.23,4.23,-4.24,-4.29,-4.56,5.85,5.85,5.86
40.54,10.04,10.04,4.20,4.20,-4.20,-4.26,-4.46,5.85,5.84,5.85
40.94,10.00,10.00,4.16,4.16,-4.17,-4.22,-4.37,5.84,5.84,5.84
41.35,9.96,9.96,4.13,4.13,-4.13,-4.18,-4.29,5.83,5.83,5.83
41.76,9.92,9.93,4.10,4.10,-4.10,-4.15,-4.20,5.82,5.82,5.82
42.18,9.89,9.89,4.08,4.08,-4.08,-4.11,-4.12,5.82,5.81,5.81
42.60,9.85,9.85,4.05,4.05,-4.05,-4.07,-4.04,5.81,5.81,5.80
43.03,9.81,9.81,4.02,4.02,-4.02,-4.03,-3.97,5.80,5.80,5.79
43.46,9.77,9.77,3.99,3.99,-3.99,-3.99,-3.89,5.79,5.78,5.78
43.90,9.72,9.73,3.95,3.95,-3.95,-3.95,-3.82,5.77,5.77,5.77
44.33,9.68,9.68,3.92,3.92,-3.92,-3.91,-3.76,5.76,5.76,5.76
44.78,9.63,9.64,3.88,3.89,-3.88,-3.87,-3.69,5.75,5.75,5.75
45.23,9.59,9.59,3.85,3.85,-3.85,-3.83,-3.63,5.75,5.74,5.74
45.68,9.53,9.54,3.81,3.81,-3.81,-3.79,-3.57,5.73,5.73,5.73
46.13,9.48,9.48,3.77,3.77,-3.77,-3.74,-3.51,5.72,5.72,5.72
46.60,9.42,9.42,3.72,3.72,-3.72,-3.70,-3.46,5.70,5.70,5.70
47.06,9.36,9.37,3.67,3.68,-3.68,-3.66,-3.41,5.68,5.69,5.69
47.53,9.31,9.31,3.64,3.64,-3.63,-3.62,-3.36,5.68,5.68,5.68
48.01,9.25,9.25,3.59,3.59,-3.59,-3.58,-3.32,5.66,5.66,5.66
48.49,9.19,9.19,3.55,3.55,-3.55,-3.53,-3.27,5.65,5.65,5.65
48.97,9.13,9.13,3.50,3.50,-3.50,-3.49,-3.23,5.63,5.63,5.63
49.46,9.07,9.08,3.46,3.46,-3.46,-3.45,-3.19,5.61,5.61,5.62
49.96,9.02,9.02,3.43,3.42,-3.43,-3.40,-3.16,5.60,5.59,5.60
50.46,8.96,8.97,3.38,3.39,-3.39,-3.36,-3.12,5.57,5.58,5.58
50.96,8.91,8.92,3.35,3.35,-3.36,-3.32,-3.09,5.55,5.56,5.56
51.47,8.87,8.87,3.33,3.32,-3.33,-3.28,-3.06,5.55,5.54,5.55
51.99,8.82,8.83,3.30,3.30,-3.30,-3.23,-3.03,5.53,5.53,5.53
52.51,8.78,8.78,3.28,3.27,-3.27,-3.19,-3.01,5.52,5.51,5.51
53.03,8.73,8.73,3.25,3.24,-3.23,-3.15,-2.98,5.50,5.50,5.49
53.56,8.67,8.68,3.21,3.21,-3.20,-3.11,-2.96,5.47,5.48,5.47
54.10,8.61,8.62,3.17,3.17,-3.16,-3.07,-2.93,5.45,5.45,5.45
54.64,8.55,8.55,3.13,3.13,-3.12,-3.03,-2.91,5.43,5.43,5.42
55.18,8.48,8.48,3.08,3.08,-3.08,-2.99,-2.89,5.40,5.40,5.40
55.74,8.41,8.42,3.04,3.04,-3.05,-2.95,-2.87,5.37,5.37,5.38
56.29,8.35,8.35,3.00,3.00,-3.01,-2.91,-2.85,5.34,5.34,5.35
56.86,8.29,8.30,2.96,2.97,-2.98,-2.87,-2.83,5.32,5.32,5.33
57.42,8.24,8.24,2.94,2.94,-2.94,-2.83,-2.81,5.30,5.30,5.30
58.00,8.19,8.19,2.92,2.91,-2.91,-2.80,-2.79,5.28,5.28,5.28
58.58,8.13,8.14,2.88,2.89,-2.88,-2.76,-2.77,5.25,5.26,5.25
59.16,8.08,8.08,2.86,2.86,-2.85,-2.73,-2.75,5.24,5.23,5.22
59.76,8.01,8.01,2.82,2.82,-2.81,-2.69,-2.73,5.20,5.20,5.19
60.35,7.94,7.95,2.78,2.78,-2.78,-2.66,-2.71,5.16,5.17,5.16
60.96,7.87,7.87,2.74,2.74,-2.74,-2.63,-2.69,5.13,5.13,5.13
61.57,7.80,7.80,2.70,2.70,-2.71,-2.59,-2.67,5.10,5.09,5.10
62.18,7.73,7.74,2.66,2.67,-2.67,-2.56,-2.65,5.06,5.06,5.07
62.80,7.67,7.67,2.64,2.64,-2.64,-2.53,-2.63,5.03,5.03,5.04
63.43,7.61,7.61,2.61,2.61,-2.61,-2.51,-2.61,5.01,5.00,5.00
64.07,7.54,7.55,2.58,2.58,-2.58,-2.48,-2.58,4.97,4.97,4.97
64.71,7.48,7.48,2.55,2.55,-2.55,-2.45,-2.56,4.94,4.93,4.93
65.35,7.41,7.41,2.52,2.52,-2.52,-2.43,-2.53,4.89,4.89,4.89
66.01,7.34,7.35,2.49,2.49,-2.49,-2.41,-2.51,4.85,4.85,4.86
66.67,7.28,7.28,2.47,2.46,-2.47,-2.38,-2.48,4.82,4.81,4.82
67.33,7.21,7.22,2.44,2.44,-2.44,-2.36,-2.45,4.77,4.78,4.78
68.01,7.15,7.15,2.42,2.42,-2.42,-2.34,-2.43,4.74,4.73,4.74
68.69,7.08,7.08,2.39,2.39,-2.39,-2.32,-2.40,4.69,4.69,4.69
69.37,7.01,7.02,2.36,2.37,-2.37,-2.31,-2.37,4.65,4.65,4.65
70.07,6.94,6.95,2.34,2.34,-2.34,-2.29,-2.34,4.60,4.61,4.61
70.77,6.88,6.88,2.32,2.32,-2.31,-2.27,-2.31,4.57,4.56,4.56
71.48,6.80,6.80,2.29,2.29,-2.28,-2.26,-2.29,4.52,4.52,4.51
72.19,6.72,6.73,2.26,2.26,-2.25,-2.24,-2.26,4.47,4.47,4.47
72.91,6.64,6.64,2.22,2.22,-2.22,-2.23,-2.23,4.42,4.42,4.42
73.64,6.56,6.56,2.19,2.19,-2.19,-2.22,-2.20,4.37,4.37,4.37
74.38,6.47,6.48,2.15,2.16,-2.16,-2.21,-2.18,4.31,4.32,4.32
75.12,6.39,6.40,2.13,2.13,-2.13,-2.20,-2.15,4.26,4.27,4.27
75.87,6.32,6.31,2.11,2.10,-2.10,-2.19,-2.13,4.22,4.21,4.22
76.63,6.23,6.24,2.07,2.07,-2.08,-2.18,-2.10,4.16,4.16,4.16
77.40,6.15,6.16,2.05,2.05,-2.05,-2.17,-2.08,4.10,4.11,4.11
78.17,6.08,6.08,2.03,2.03,-2.03,-2.17,-2.06,4.06,4.05,4.05
78.95,6.00,6.00,2.01,2.01,-2.00,-2.16,-2.04,4.00,4.00,4.00
79.74,5.92,5.93,1.98,1.99,-1.98,-2.15,-2.01,3.95,3.95,3.94
80.54,5.84,5.84,1.96,1.96,-1.95,-2.15,-2.00,3.89,3.89,3.88
81.35,5.76,5.76,1.94,1.94,-1.93,-2.14,-1.98,3.84,3.83,3.82
82.16,5.67,5.67,1.91,1.91,-1.91,-2.14,-1.96,3.77,3.77,3.76
82.98,5.59,5.59,1.89,1.89,-1.89,-2.14,-1.95,3.70,3.70,3.70
83.81,5.50,5.51,1.86,1.87,-1.89,-2.13,-1.93,3.62,3.62,3.64
84.65,5.44,5.44,1.87,1.87,-1.89,-2.13,-1.92,3.55,3.55,3.58
85.50,5.39,5.40,1.88,1.88,-1.91,-2.12,-1.91,3.49,3.49,3.51
86.35,5.36,5.37,1.92,1.92,-1.93,-2.12,-1.90,3.44,3.44,3.45
87.22,5.34,5.34,1.96,1.96,-1.96,-2.12,-1.89,3.39,3.38,3.38
88.09,5.32,5.32,2.01,2.00,-1.99,-2.11,-1.88,3.33,3.33,3.32
88.97,5.29,5.29,2.04,2.04,-2.03,-2.11,-1.87,3.26,3.26,3.25
89.86,5.26,5.26,2.08,2.08,-2.07,-2.11,-1.87,3.20,3.19,3.18
90.76,5.21,5.22,2.10,2.10,-2.10,-2.11,-1.86,3.12,3.12,3.12
91.66,5.17,5.17,2.13,2.12,-2.12,-2.10,-1.86,3.05,3.05,3.05
92.58,5.11,5.11,2.14,2.14,-2.14,-2.10,-1.86,2.98,2.98,2.98
93.51,5.05,5.05,2.15,2.15,-2.14,-2.10,-1.86,2.91,2.91,2.91
94.44,4.98,4.99,2.15,2.15,-2.14,-2.09,-1.86,2.84,2.84,2.84
95.39,4.91,4.91,2.15,2.14,-2.14,-2.09,-1.86,2.78,2.77,2.77
96.34,4.82,4.82,2.13,2.13,-2.13,-2.09,-1.87,2.69,2.70,2.70
97.30,4.73,4.74,2.11,2.12,-2.12,-2.09,-1.87,2.62,2.62,2.62
98.28,4.65,4.65,2.10,2.10,-2.11,-2.08,-1.88,2.55,2.55,2.55
99.26,4.57,4.57,2.09,2.09,-2.09,-2.08,-1.89,2.48,2.48,2.48
100.25,4.48,4.49,2.08,2.08,-2.08,-2.08,-1.90,2.40,2.40,2.41
101.25,4.40,4.40,2.07,2.07,-2.07,-2.07,-1.90,2.33,2.33,2.33
102.27,4.32,4.33,2.06,2.06,-2.07,-2.07,-1.91,2.26,2.26,2.26
103.29,4.25,4.25,2.07,2.06,-2.06,-2.07,-1.92,2.19,2.19,2.19
104.32,4.17,4.17,2.06,2.06,-2.06,-2.06,-1.94,2.12,2.12,2.12
105.37,4.09,4.10,2.05,2.06,-2.06,-2.06,-1.95,2.04,2.04,2.04
106.42,4.02,4.02,2.05,2.05,-2.05,-2.06,-1.96,1.97,1.97,1.97
107.48,3.95,3.95,2.06,2.06,-2.05,-2.05,-1.97,1.90,1.90,1.90
108.56,3.88,3.88,2.06,2.06,-2.05,-2.05,-1.99,1.83,1.83,1.82
109.64,3.80,3.81,2.05,2.06,-2.05,-2.05,-2.00,1.75,1.75,1.75
110.74,3.73,3.73,2.06,2.06,-2.06,-2.04,-2.01,1.68,1.68,1.68
111.85,3.66,3.66,2.06,2.06,-2.06,-2.04,-2.03,1.60,1.60,1.61
112.97,3.59,3.59,2.06,2.06,-2.06,-2.04,-2.04,1.53,1.53,1.53
114.10,3.52,3.53,2.06,2.06,-2.07,-2.04,-2.05,1.46,1.46,1.46
115.24,3.46,3.46,2.07,2.07,-2.07,-2.04,-2.06,1.39,1.39,1.39
116.39,3.40,3.40,2.08,2.08,-2.08,-2.03,-2.08,1.32,1.32,1.32
117.55,3.34,3.34,2.09,2.09,-2.09,-2.03,-2.09,1.26,1.25,1.25
118.73,3.27,3.28,2.09,2.10,-2.10,-2.03,-2.10,1.18,1.18,1.18
119.92,3.21,3.22,2.10,2.10,-2.10,-2.03,-2.11,1.11,1.11,1.11
121.12,3.15,3.15,2.11,2.11,-2.11,-2.03,-2.12,1.05,1.04,1.04
122.33,3.09,3.09,2.12,2.12,-2.12,-2.03,-2.12,0.98,0.97,0.97
123.55,3.02,3.03,2.12,2.12,-2.12,-2.03,-2.13,0.90,0.90,0.91
124.79,2.96,2.97,2.13,2.13,-2.13,-2.03,-2.14,0.83,0.83,0.84
126.03,2.91,2.91,2.14,2.14,-2.14,-2.04,-2.14,0.77,0.77,0.77
127.29,2.85,2.86,2.15,2.15,-2.15,-2.04,-2.15,0.70,0.71,0.71
128.57,2.80,2.81,2.16,2.16,-2.16,-2.04,-2.15,0.64,0.64,0.64
129.85,2.75,2.75,2.17,2.17,-2.17,-2.04,-2.15,0.58,0.58,0.58
131.15,2.70,2.70,2.19,2.18,-2.18,-2.05,-2.16,0.52,0.52,0.52
132.46,2.64,2.65,2.19,2.19,-2.19,-2.05,-2.16,0.45,0.45,0.45
133.79,2.59,2.59,2.20,2.20,-2.20,-2.06,-2.16,0.39,0.39,0.39
135.12,2.54,2.54,2.21,2.21,-2.21,-2.06,-2.16,0.33,0.33,0.33
136.48,2.49,2.49,2.22,2.22,-2.22,-2.07,-2.16,0.27,0.27,0.27
137.84,2.44,2.44,2.23,2.23,-2.23,-2.08,-2.16,0.22,0.22,0.21
139.22,2.39,2.39,2.24,2.24,-2.24,-2.08,-2.16,0.16,0.16,0.16
140.61,2.34,2.34,2.24,2.24,-2.24,-2.09,-2.16,0.10,0.10,0.10
142.02,2.29,2.29,2.25,2.25,-2.25,-2.10,-2.16,0.04,0.04,0.04
143.44,2.24,2.25,2.25,2.26,-2.26,-2.11,-2.16,-0.01,-0.01,-0.01
144.87,2.20,2.20,2.27,2.27,-2.26,-2.12,-2.16,-0.06,-0.06,-0.06
146.32,2.15,2.16,2.27,2.27,-2.27,-2.13,-2.16,-0.12,-0.12,-0.12
147.78,2.11,2.11,2.28,2.28,-2.28,-2.15,-2.16,-0.16,-0.17,-0.17
149.26,2.06,2.07,2.28,2.28,-2.29,-2.16,-2.16,-0.22,-0.22,-0.22
150.75,2.02,2.02,2.29,2.29,-2.29,-2.17,-2.17,-0.27,-0.27,-0.27
152.26,1.98,1.98,2.30,2.30,-2.30,-2.19,-2.17,-0.32,-0.32,-0.32
153.78,1.94,1.95,2.31,2.31,-2.31,-2.20,-2.17,-0.37,-0.37,-0.36
155.32,1.91,1.91,2.32,2.32,-2.32,-2.22,-2.18,-0.41,-0.41,-0.41
156.88,1.87,1.88,2.33,2.33,-2.33,-2.24,-2.19,-0.46,-0.46,-0.46
158.44,1.84,1.84,2.34,2.34,-2.34,-2.25,-2.20,-0.50,-0.50,-0.50
160.03,1.80,1.81,2.35,2.35,-2.35,-2.27,-2.21,-0.55,-0.55,-0.54
161.63,1.77,1.77,2.37,2.37,-2.36,-2.29,-2.22,-0.59,-0.59,-0.60
163.24,1.74,1.74,2.38,2.38,-2.37,-2.31,-2.23,-0.63,-0.63,-0.64
164.88,1.70,1.71,2.38,2.39,-2.38,-2.33,-2.25,-0.68,-0.68,-0.68
166.53,1.67,1.67,2.39,2.39,-2.39,-2.35,-2.26,-0.72,-0.72,-0.72
168.19,1.64,1.65,2.40,2.40,-2.40,-2.37,-2.28,-0.76,-0.76,-0.76
169.87,1.62,1.62,2.42,2.41,-2.41,-2.39,-2.30,-0.79,-0.79,-0.79
171.57,1.59,1.59,2.42,2.42,-2.42,-2.42,-2.32,-0.83,-0.83,-0.83
173.29,1.56,1.57,2.43,2.43,-2.43,-2.44,-2.35,-0.87,-0.87,-0.86
175.02,1.54,1.54,2.44,2.44,-2.44,-2.46,-2.37,-0.90,-0.90,-0.90
176.77,1.52,1.52,2.46,2.46,-2.46,-2.49,-2.40,-0.93,-0.93,-0.93
178.54,1.50,1.50,2.47,2.47,-2.47,-2.51,-2.43,-0.96,-0.96,-0.97
180.32,1.48,1.48,2.48,2.48,-2.48,-2.54,-2.46,-0.99,-0.99,-1.00
182.13,1.46,1.46,2.49,2.49,-2.49,-2.56,-2.49,-1.03,-1.03,-1.03
183.95,1.44,1.44,2.50,2.50,-2.50,-2.59,-2.52,-1.06,-1.06,-1.06
185.79,1.42,1.43,2.51,2.51,-2.52,-2.61,-2.56,-1.09,-1.09,-1.09
187.65,1.41,1.41,2.53,2.53,-2.53,-2.64,-2.60,-1.12,-1.12,-1.12
189.52,1.40,1.40,2.55,2.55,-2.55,-2.67,-2.64,-1.14,-1.14,-1.14
191.42,1.39,1.39,2.56,2.56,-2.56,-2.69,-2.68,-1.17,-1.17,-1.17
193.33,1.38,1.39,2.58,2.58,-2.58,-2.72,-2.72,-1.20,-1.20,-1.20
195.27,1.38,1.38,2.60,2.60,-2.60,-2.75,-2.76,-1.22,-1.22,-1.22
197.22,1.38,1.38,2.63,2.63,-2.63,-2.78,-2.81,-1.25,-1.25,-1.25
199.19,1.38,1.39,2.65,2.66,-2.66,-2.80,-2.85,-1.27,-1.27,-1.27
201.18,1.39,1.39,2.69,2.68,-2.69,-2.83,-2.90,-1.29,-1.29,-1.29
203.19,1.40,1.40,2.72,2.72,-2.72,-2.86,-2.95,-1.31,-1.31,-1.31
205.23,1.41,1.42,2.75,2.75,-2.75,-2.89,-3.00,-1.34,-1.33,-1.34
207.28,1.43,1.43,2.79,2.79,-2.79,-2.91,-3.05,-1.35,-1.35,-1.36
209.35,1.44,1.45,2.82,2.82,-2.82,-2.94,-3.09,-1.38,-1.38,-1.38
211.44,1.46,1.46,2.86,2.86,-2.86,-2.97,-3.14,-1.39,-1.40,-1.40
213.56,1.47,1.48,2.89,2.89,-2.89,-3.00,-3.19,-1.42,-1.41,-1.41
215.69,1.49,1.49,2.93,2.93,-2.93,-3.02,-3.24,-1.43,-1.43,-1.43
217.85,1.51,1.51,2.96,2.96,-2.96,-3.05,-3.29,-1.45,-1.45,-1.45
220.03,1.52,1.53,2.99,3.00,-2.99,-3.08,-3.33,-1.47,-1.46,-1.47
222.23,1.54,1.54,3.03,3.02,-3.02,-3.10,-3.38,-1.48,-1.48,-1.48
224.45,1.55,1.55,3.05,3.05,-3.05,-3.13,-3.42,-1.50,-1.50,-1.50
226.70,1.56,1.57,3.08,3.08,-3.08,-3.15,-3.46,-1.52,-1.51,-1.52
228.96,1.58,1.58,3.11,3.11,-3.11,-3.18,-3.50,-1.53,-1.53,-1.53
231.25,1.59,1.59,3.14,3.14,-3.14,-3.20,-3.53,-1.55,-1.55,-1.54
233.57,1.60,1.61,3.16,3.17,-3.17,-3.22,-3.56,-1.57,-1.57,-1.56
235.90,1.62,1.62,3.21,3.20,-3.21,-3.24,-3.59,-1.58,-1.58,-1.58
238.26,1.64,1.64,3.24,3.24,-3.24,-3.27,-3.61,-1.60,-1.60,-1.60
240.64,1.66,1.67,3.27,3.28,-3.28,-3.29,-3.63,-1.61,-1.61,-1.61
243.05,1.69,1.69,3.31,3.31,-3.31,-3.31,-3.65,-1.62,-1.62,-1.62
245.48,1.71,1.72,3.35,3.35,-3.35,-3.32,-3.66,-1.64,-1.63,-1.63
247.93,1.74,1.74,3.39,3.38,-3.38,-3.34,-3.67,-1.64,-1.64,-1.64
250.41,1.76,1.76,3.42,3.42,-3.42,-3.36,-3.67,-1.65,-1.65,-1.65
252.92,1.78,1.79,3.45,3.45,-3.45,-3.38,-3.67,-1.66,-1.66,-1.66
255.45,1.80,1.80,3.48,3.48,-3.47,-3.39,-3.67,-1.67,-1.67,-1.67
258.00,1.81,1.81,3.50,3.50,-3.49,-3.40,-3.66,-1.68,-1.68,-1.68
260.58,1.81,1.82,3.51,3.51,-3.51,-3.42,-3.64,-1.70,-1.69,-1.69
263.19,1.82,1.82,3.53,3.52,-3.53,-3.43,-3.63,-1.70,-1.70,-1.70
265.82,1.82,1.82,3.54,3.53,-3.53,-3.44,-3.60,-1.71,-1.71,-1.71
268.48,1.81,1.82,3.53,3.54,-3.54,-3.45,-3.58,-1.73,-1.72,-1.72
271.16,1.81,1.81,3.54,3.54,-3.54,-3.46,-3.55,-1.73,-1.73,-1.73
273.87,1.80,1.80,3.54,3.54,-3.54,-3.46,-3.52,-1.73,-1.74,-1.74
276.61,1.78,1.79,3.53,3.53,-3.53,-3.47,-3.49,-1.75,-1.74,-1.74
279.38,1.77,1.77,3.53,3.53,-3.52,-3.47,-3.45,-1.75,-1.75,-1.75
282.17,1.76,1.76,3.52,3.52,-3.52,-3.48,-3.41,-1.75,-1.75,-1.76
284.99,1.74,1.75,3.50,3.50,-3.50,-3.48,-3.37,-1.76,-1.76,-1.76
287.84,1.73,1.73,3.49,3.49,-3.49,-3.48,-3.33,-1.76,-1.76,-1.75
290.72,1.71,1.72,3.47,3.48,-3.48,-3.48,-3.29,-1.76,-1.76,-1.76
293.63,1.70,1.70,3.47,3.46,-3.47,-3.48,-3.25,-1.76,-1.76,-1.77
296.57,1.69,1.69,3.45,3.45,-3.45,-3.47,-3.20,-1.76,-1.76,-1.76
299.53,1.67,1.68,3.43,3.44,-3.44,-3.47,-3.16,-1.76,-1.76,-1.76
302.53,1.66,1.66,3.43,3.42,-3.42,-3.46,-3.11,-1.76,-1.76,-1.76
305.55,1.65,1.65,3.41,3.41,-3.41,-3.45,-3.07,-1.76,-1.76,-1.76
308.61,1.63,1.64,3.40,3.40,-3.40,-3.45,-3.03,-1.76,-1.76,-1.76
311.69,1.62,1.62,3.38,3.38,-3.38,-3.44,-2.99,-1.76,-1.76,-1.76
314.81,1.60,1.61,3.37,3.37,-3.37,-3.42,-2.95,-1.76,-1.76,-1.76
317.96,1.59,1.59,3.35,3.35,-3.35,-3.41,-2.91,-1.76,-1.76,-1.76
321.14,1.58,1.58,3.35,3.34,-3.34,-3.40,-2.87,-1.76,-1.76,-1.76
324.35,1.56,1.57,3.32,3.32,-3.33,-3.38,-2.83,-1.76,-1.76,-1.76
327.59,1.55,1.56,3.30,3.31,-3.31,-3.37,-2.80,-1.76,-1.76,-1.75
330.87,1.54,1.54,3.30,3.29,-3.29,-3.35,-2.76,-1.75,-1.75,-1.75
334.18,1.53,1.53,3.28,3.28,-3.28,-3.33,-2.73,-1.74,-1.75,-1.75
337.52,1.51,1.52,3.27,3.27,-3.26,-3.31,-2.70,-1.75,-1.74,-1.75
340.90,1.50,1.50,3.25,3.24,-3.24,-3.29,-2.67,-1.74,-1.74,-1.75
344.30,1.48,1.48,3.22,3.22,-3.22,-3.27,-2.65,-1.74,-1.74,-1.74
347.75,1.46,1.47,3.20,3.20,-3.21,-3.25,-2.62,-1.74,-1.74,-1.73
351.23,1.45,1.45,3.19,3.18,-3.19,-3.23,-2.60,-1.73,-1.73,-1.73
354.74,1.44,1.44,3.16,3.16,-3.16,-3.20,-2.58,-1.72,-1.72,-1.72
358.28,1.42,1.43,3.14,3.14,-3.14,-3.18,-2.56,-1.72,-1.72,-1.72
361.87,1.41,1.41,3.13,3.13,-3.12,-3.15,-2.55,-1.71,-1.71,-1.71
365.49,1.39,1.40,3.10,3.11,-3.11,-3.13,-2.53,-1.71,-1.71,-1.71
369.14,1.38,1.38,3.09,3.08,-3.09,-3.10,-2.52,-1.70,-1.70,-1.71
372.83,1.36,1.37,3.06,3.06,-3.07,-3.07,-2.51,-1.70,-1.70,-1.69
376.56,1.35,1.35,3.05,3.04,-3.04,-3.04,-2.50,-1.69,-1.69,-1.69
380.33,1.33,1.33,3.02,3.02,-3.02,-3.01,-2.50,-1.69,-1.69,-1.69
384.13,1.31,1.32,3.00,3.00,-3.00,-2.98,-2.49,-1.69,-1.68,-1.69
387.97,1.30,1.30,2.98,2.98,-2.98,-2.95,-2.49,-1.67,-1.68,-1.68
391.85,1.28,1.28,2.95,2.95,-2.95,-2.92,-2.49,-1.67,-1.67,-1.66
395.77,1.26,1.27,2.93,2.93,-2.93,-2.89,-2.49,-1.67,-1.67,-1.67
399.73,1.24,1.25,2.90,2.90,-2.91,-2.86,-2.49,-1.66,-1.66,-1.66
403.72,1.23,1.23,2.88,2.88,-2.88,-2.83,-2.49,-1.65,-1.65,-1.65
407.76,1.21,1.21,2.86,2.86,-2.86,-2.79,-2.49,-1.64,-1.65,-1.65
411.84,1.19,1.20,2.84,2.84,-2.83,-2.76,-2.50,-1.64,-1.64,-1.64
415.96,1.17,1.17,2.81,2.81,-2.81,-2.73,-2.50,-1.63,-1.63,-1.63
420.12,1.15,1.15,2.79,2.78,-2.78,-2.69,-2.51,-1.63,-1.63,-1.64
424.32,1.12,1.13,2.75,2.75,-2.76,-2.66,-2.51,-1.63,-1.63,-1.63
428.56,1.10,1.10,2.72,2.72,-2.73,-2.63,-2.52,-1.63,-1.62,-1.62
432.85,1.08,1.08,2.69,2.70,-2.70,-2.59,-2.53,-1.62,-1.62,-1.61
437.18,1.06,1.06,2.68,2.67,-2.67,-2.56,-2.53,-1.61,-1.61,-1.61
441.55,1.04,1.04,2.65,2.65,-2.64,-2.52,-2.54,-1.60,-1.60,-1.60
445.96,1.02,1.02,2.62,2.62,-2.61,-2.49,-2.54,-1.59,-1.59,-1.59
450.42,1.00,1.00,2.58,2.58,-2.58,-2.45,-2.55,-1.58,-1.58,-1.58
454.93,0.98,0.98,2.55,2.55,-2.55,-2.42,-2.55,-1.57,-1.57,-1.57
459.48,0.95,0.96,2.51,2.52,-2.52,-2.38,-2.55,-1.57,-1.57,-1.56
464.07,0.93,0.94,2.49,2.49,-2.49,-2.35,-2.55,-1.56,-1.56,-1.56
468.71,0.91,0.91,2.46,2.46,-2.46,-2.31,-2.55,-1.55,-1.55,-1.55
473.40,0.89,0.89,2.44,2.43,-2.43,-2.28,-2.55,-1.54,-1.54,-1.54
478.13,0.86,0.87,2.40,2.40,-2.40,-2.24,-2.54,-1.53,-1.53,-1.53
482.91,0.84,0.84,2.37,2.37,-2.37,-2.21,-2.53,-1.52,-1.52,-1.52
487.74,0.81,0.82,2.33,2.33,-2.33,-2.17,-2.52,-1.52,-1.52,-1.51
492.62,0.79,0.79,2.30,2.30,-2.30,-2.14,-2.51,-1.50,-1.51,-1.51
497.55,0.76,0.77,2.26,2.26,-2.26,-2.10,-2.49,-1.50,-1.49,-1.50
502.52,0.74,0.74,2.23,2.23,-2.23,-2.07,-2.47,-1.48,-1.48,-1.49
