frequency,raw,smoothed,error,error_smoothed,equalization,parametric_eq,fixed_band_eq,equalized_raw,equalized_smoothed,target
20.00,-17.24,-17.24,-19.26,-19.25,6.00,6.02,2.62,-11.24,-11.24,2.01
20.20,-17.18,-17.19,-19.23,-19.23,6.00,6.02,2.70,-11.18,-11.19,2.04
20.40,-17.12,-17.13,-19.20,-19.20,6.00,6.02,2.78,-11.12,-11.13,2.07
20.61,-17.06,-17.06,-19.16,-19.16,6.00,6.02,2.85,-11.06,-11.06,2.09
20.81,-17.00,-17.00,-19.13,-19.13,6.00,6.03,2.93,-11.00,-11.00,2.12
21.02,-16.93,-16.93,-19.09,-19.08,6.00,6.03,3.02,-10.93,-10.93,2.15
21.23,-16.85,-16.85,-19.01,-19.02,6.00,6.03,3.10,-10.85,-10.85,2.16
21.44,-16.76,-16.76,-18.93,-18.94,6.00,6.03,3.19,-10.76,-10.76,2.17
21.66,-16.67,-16.67,-18.85,-18.85,6.00,6.03,3.28,-10.67,-10.67,2.18
21.87,-16.57,-16.57,-18.75,-18.76,6.00,6.03,3.38,-10.57,-10.57,2.18
22.09,-16.47,-16.47,-18.66,-18.66,6.00,6.03,3.47,-10.47,-10.47,2.19
22.31,-16.36,-16.36,-18.55,-18.55,6.00,6.03,3.57,-10.36,-10.36,2.19
22.54,-16.25,-16.26,-18.44,-18.44,6.00,6.03,3.67,-10.25,-10.26,2.19
22.76,-16.15,-16.15,-18.34,-18.34,6.00,6.03,3.78,-10.15,-10.15,2.19
22.99,-16.06,-16.06,-18.24,-18.24,6.00,6.03,3.88,-10.06,-10.06,2.18
23.22,-15.97,-15.97,-18.15,-18.15,6.00,6.03,3.99,-9.97,-9.97,2.18
23.45,-15.89,-15.90,-18.07,-18.07,6.00,6.03,4.10,-9.89,-9.90,2.18
23.69,-15.82,-15.82,-18.00,-18.00,6.00,6.03,4.22,-9.82,-9.82,2.17
23.92,-15.75,-15.75,-17.93,-17.93,6.00,6.03,4.33,-9.75,-9.75,2.17
24.16,-15.68,-15.68,-17.87,-17.86,6.00,6.03,4.45,-9.68,-9.68,2.18
24.40,-15.60,-15.60,-17.78,-17.78,6.00,6.03,4.57,-9.60,-9.60,2.18
24.65,-15.52,-15.52,-17.69,-17.70,6.00,6.03,4.69,-9.52,-9.52,2.17
24.89,-15.43,-15.44,-17.60,-17.61,6.00,6.03,4.81,-9.43,-9.44,2.17
25.14,-15.35,-15.35,-17.52,-17.52,6.00,6.02,4.94,-9.35,-9.35,2.17
25.39,-15.25,-15.26,-17.42,-17.42,6.00,6.02,5.07,-9.25,-9.26,2.17
25.65,-15.16,-15.17,-17.33,-17.33,6.00,6.02,5.19,-9.16,-9.17,2.17
25.91,-15.07,-15.07,-17.23,-17.23,6.00,6.02,5.32,-9.07,-9.07,2.16
26.16,-14.98,-14.98,-17.14,-17.14,6.00,6.02,5.45,-8.98,-8.98,2.15
26.43,-14.88,-14.88,-17.04,-17.04,6.00,6.02,5.57,-8.88,-8.88,2.15
26.69,-14.78,-14.78,-16.94,-16.93,6.00,6.02,5.70,-8.78,-8.78,2.15
26.96,-14.67,-14.68,-16.83,-16.83,6.00,6.02,5.83,-8.67,-8.68,2.15
27.23,-14.57,-14.57,-16.72,-16.72,6.00,6.02,5.95,-8.57,-8.57,2.15
27.50,-14.46,-14.46,-16.61,-16.61,6.00,6.02,6.07,-8.46,-8.46,2.15
27.77,-14.36,-14.36,-16.50,-16.50,6.00,6.02,6.18,-8.36,-8.36,2.14
28.05,-14.26,-14.27,-16.40,-16.40,6.00,6.02,6.30,-8.26,-8.27,2.14
28.33,-14.18,-14.18,-16.31,-16.31,6.00,6.02,6.41,-8.18,-8.18,2.12
28.62,-14.10,-14.10,-16.23,-16.23,6.00,6.02,6.51,-8.10,-8.10,2.12
28.90,-14.03,-14.03,-16.15,-16.15,6.00,6.02,6.61,-8.03,-8.03,2.12
29.19,-13.96,-13.96,-16.07,-16.08,6.00,6.02,6.70,-7.96,-7.96,2.11
29.48,-13.89,-13.89,-16.01,-16.01,6.00,6.02,6.78,-7.89,-7.89,2.12
29.78,-13.82,-13.82,-15.93,-15.93,6.00,6.02,6.86,-7.82,-7.82,2.11
30.08,-13.75,-13.75,-15.86,-15.85,6.00,6.02,6.92,-7.75,-7.75,2.10
30.38,-13.67,-13.67,-15.77,-15.77,6.00,6.02,6.99,-7.67,-7.67,2.09
30.68,-13.59,-13.59,-15.68,-15.68,6.00,6.02,7.03,-7.59,-7.59,2.09
30.99,-13.51,-13.52,-15.59,-15.60,6.00,6.02,7.08,-7.51,-7.52,2.08
31.30,-13.44,-13.44,-15.52,-15.52,6.00,6.02,7.10,-7.44,-7.44,2.08
31.61,-13.37,-13.37,-15.45,-15.44,6.00,6.02,7.13,-7.37,-7.37,2.07
31.93,-13.30,-13.30,-15.37,-15.36,6.00,6.02,7.14,-7.30,-7.30,2.06
32.24,-13.22,-13.22,-15.27,-15.28,6.00,6.02,7.14,-7.22,-7.22,2.05
32.57,-13.14,-13.14,-15.19,-15.19,6.00,6.02,7.13,-7.14,-7.14,2.05
32.89,-13.05,-13.05,-15.10,-15.09,6.00,6.01,7.12,-7.05,-7.05,2.04
33.22,-12.96,-12.97,-14.99,-15.00,6.00,6.01,7.10,-6.96,-6.97,2.03
33.55,-12.88,-12.88,-14.91,-14.91,6.00,6.01,7.07,-6.88,-6.88,2.03
33.89,-12.79,-12.79,-14.81,-14.81,6.00,6.01,7.03,-6.79,-6.79,2.02
34.23,-12.71,-12.71,-14.73,-14.72,6.00,6.01,6.99,-6.71,-6.71,2.01
34.57,-12.62,-12.63,-14.62,-14.63,6.00,6.01,6.94,-6.62,-6.63,2.00
34.92,-12.54,-12.54,-14.53,-14.53,6.00,6.01,6.89,-6.54,-6.54,1.99
35.27,-12.46,-12.46,-14.45,-14.44,6.00,6.01,6.84,-6.46,-6.46,1.98
35.62,-12.37,-12.38,-14.34,-14.35,6.00,6.01,6.78,-6.37,-6.38,1.97
35.97,-12.29,-12.29,-14.25,-14.25,6.00,6.01,6.72,-6.29,-6.29,1.96
36.33,-12.20,-12.20,-14.15,-14.15,6.00,6.00,6.65,-6.20,-6.20,1.95
36.70,-12.11,-12.11,-14.05,-14.05,6.00,6.00,6.59,-6.11,-6.11,1.94
37.06,-12.02,-12.02,-13.95,-13.95,6.00,6.00,6.53,-6.02,-6.02,1.92
37.43,-11.93,-11.93,-13.85,-13.85,6.00,6.00,6.46,-5.93,-5.93,1.92
37.81,-11.85,-11.85,-13.76,-13.76,6.00,6.00,6.40,-5.85,-5.85,1.91
38.19,-11.77,-11.77,-13.66,-13.67,6.00,6.00,6.34,-5.77,-5.77,1.89
38.57,-11.70,-11.70,-13.59,-13.58,6.00,6.00,6.28,-5.70,-5.70,1.89
38.95,-11.62,-11.63,-13.49,-13.49,6.00,5.99,6.22,-5.62,-5.63,1.87
39.34,-11.55,-11.55,-13.41,-13.41,6.00,5.99,6.17,-5.55,-5.55,1.86
39.74,-11.48,-11.48,-13.32,-13.33,6.00,5.99,6.12,-5.48,-5.48,1.84
40.14,-11.41,-11.41,-13.25,-13.25,6.00,5.99,6.07,-5.41,-5.41,1.84
40.54,-11.34,-11.34,-13.16,-13.16,6.00,5.99,6.02,-5.34,-5.34,1.82
40.94,-11.26,-11.26,-13.08,-13.08,6.00,5.98,5.98,-5.26,-5.26,1.81
41.35,-11.18,-11.19,-12.98,-12.99,6.00,5.98,5.95,-5.18,-5.19,1.80
41.76,-11.11,-11.11,-12.90,-12.90,6.00,5.98,5.91,-5.11,-5.11,1.79
42.18,-11.03,-11.03,-12.82,-12.81,6.00,5.98,5.88,-5.03,-5.03,1.79
42.60,-10.95,-10.96,-12.72,-12.73,6.00,5.98,5.86,-4.95,-4.96,1.77
43.03,-10.88,-10.88,-12.64,-12.64,6.00,5.97,5.83,-4.88,-4.88,1.76
43.46,-10.80,-10.81,-12.55,-12.55,6.00,5.97,5.82,-4.80,-4.81,1.74
43.90,-10.73,-10.73,-12.45,-12.45,6.00,5.97,5.80,-4.73,-4.73,1.72
44.33,-10.66,-10.66,-12.36,-12.36,6.00,5.97,5.80,-4.66,-4.66,1.70
44.78,-10.58,-10.59,-12.26,-12.27,6.00,5.96,5.79,-4.58,-4.59,1.68
45.23,-10.51,-10.51,-12.18,-12.18,6.00,5.96,5.79,-4.51,-4.51,1.66
45.68,-10.44,-10.44,-12.09,-12.08,6.00,5.96,5.80,-4.44,-4.44,1.64
46.13,-10.36,-10.37,-11.99,-11.99,6.00,5.95,5.81,-4.36,-4.37,1.63
46.60,-10.29,-10.29,-11.91,-11.90,6.00,5.95,5.82,-4.29,-4.29,1.62
47.06,-10.21,-10.22,-11.81,-11.81,6.00,5.95,5.84,-4.21,-4.22,1.60
47.53,-10.14,-10.14,-11.72,-11.72,6.00,5.94,5.86,-4.14,-4.14,1.58
48.01,-10.07,-10.07,-11.64,-11.63,6.00,5.94,5.89,-4.07,-4.07,1.57
48.49,-9.99,-10.00,-11.53,-11.53,6.00,5.94,5.91,-3.99,-4.00,1.54
48.97,-9.92,-9.92,-11.43,-11.43,6.00,5.93,5.95,-3.92,-3.92,1.50
49.46,-9.85,-9.85,-11.33,-11.32,6.00,5.93,5.98,-3.85,-3.85,1.47
49.96,-9.77,-9.78,-11.21,-11.23,6.00,5.93,6.02,-3.77,-3.78,1.44
50.46,-9.71,-9.71,-11.14,-11.14,6.00,5.92,6.06,-3.71,-3.71,1.43
50.96,-9.65,-9.65,-11.06,-11.05,6.00,5.92,6.11,-3.65,-3.65,1.41
51.47,-9.59,-9.59,-10.97,-10.97,6.00,5.92,6.15,-3.59,-3.59,1.37
51.99,-9.53,-9.53,-10.88,-10.89,6.00,5.91,6.20,-3.53,-3.53,1.35
52.51,-9.47,-9.47,-10.81,-10.80,6.00,5.91,6.25,-3.47,-3.47,1.34
53.03,-9.41,-9.41,-10.72,-10.72,6.00,5.90,6.30,-3.41,-3.41,1.31
53.56,-9.35,-9.35,-10.64,-10.64,6.00,5.90,6.35,-3.35,-3.35,1.29
54.10,-9.29,-9.29,-10.55,-10.55,6.00,5.90,6.40,-3.29,-3.29,1.26
54.64,-9.23,-9.23,-10.47,-10.47,6.00,5.89,6.45,-3.23,-3.23,1.24
55.18,-9.17,-9.17,-10.38,-10.38,6.00,5.89,6.50,-3.17,-3.17,1.21
55.74,-9.11,-9.11,-10.30,-10.29,6.00,5.88,6.55,-3.11,-3.11,1.18
56.29,-9.04,-9.05,-10.21,-10.21,6.00,5.88,6.59,-3.04,-3.05,1.16
56.86,-8.98,-8.98,-10.12,-10.12,6.00,5.88,6.63,-2.98,-2.98,1.14
57.42,-8.92,-8.92,-10.03,-10.03,6.00,5.87,6.67,-2.92,-2.92,1.11
58.00,-8.85,-8.86,-9.94,-9.94,6.00,5.87,6.70,-2.85,-2.86,1.09
58.58,-8.79,-8.79,-9.86,-9.86,6.00,5.87,6.73,-2.79,-2.79,1.07
59.16,-8.72,-8.72,-9.77,-9.77,6.00,5.87,6.76,-2.72,-2.72,1.05
59.76,-8.65,-8.65,-9.68,-9.68,6.00,5.86,6.77,-2.65,-2.65,1.03
60.35,-8.57,-8.58,-9.57,-9.57,6.00,5.86,6.78,-2.57,-2.58,0.99
60.96,-8.50,-8.50,-9.48,-9.47,6.00,5.86,6.79,-2.50,-2.50,0.97
61.57,-8.43,-8.43,-9.36,-9.36,6.00,5.86,6.78,-2.43,-2.43,0.93
62.18,-8.36,-8.36,-9.26,-9.26,6.00,5.86,6.77,-2.36,-2.36,0.90
62.80,-8.28,-8.29,-9.15,-9.15,6.00,5.86,6.76,-2.28,-2.29,0.87
63.43,-8.21,-8.21,-9.05,-9.05,6.00,5.86,6.73,-2.21,-2.21,0.84
64.07,-8.14,-8.14,-8.95,-8.95,6.00,5.86,6.70,-2.14,-2.14,0.81
64.71,-8.07,-8.07,-8.86,-8.85,6.00,5.86,6.66,-2.07,-2.07,0.78
65.35,-8.00,-8.00,-8.76,-8.76,6.00,5.86,6.61,-2.00,-2.00,0.76
66.01,-7.93,-7.94,-8.66,-8.66,6.00,5.86,6.56,-1.93,-1.94,0.73
66.67,-7.87,-7.87,-8.57,-8.57,6.00,5.87,6.50,-1.87,-1.87,0.70
67.33,-7.80,-7.80,-8.47,-8.47,6.00,5.87,6.43,-1.80,-1.80,0.67
68.01,-7.73,-7.74,-8.37,-8.38,6.00,5.88,6.37,-1.73,-1.74,0.64
68.69,-7.67,-7.67,-8.28,-8.28,6.00,5.88,6.29,-1.67,-1.67,0.61
69.37,-7.60,-7.60,-8.18,-8.18,6.00,5.89,6.21,-1.60,-1.60,0.58
70.07,-7.53,-7.54,-8.08,-8.08,6.00,5.90,6.13,-1.53,-1.54,0.54
70.77,-7.47,-7.47,-7.99,-7.99,6.00,5.91,6.05,-1.47,-1.47,0.52
71.48,-7.41,-7.41,-7.90,-7.89,6.00,5.92,5.96,-1.41,-1.41,0.48
72.19,-7.34,-7.35,-7.79,-7.80,6.00,5.93,5.87,-1.34,-1.35,0.45
72.91,-7.29,-7.29,-7.71,-7.70,6.00,5.94,5.78,-1.29,-1.29,0.41
73.64,-7.23,-7.23,-7.61,-7.61,6.00,5.95,5.69,-1.23,-1.23,0.38
74.38,-7.17,-7.18,-7.52,-7.52,6.00,5.97,5.60,-1.17,-1.18,0.35
75.12,-7.12,-7.12,-7.43,-7.43,6.00,5.98,5.51,-1.12,-1.12,0.31
75.87,-7.06,-7.07,-7.34,-7.35,6.00,6.00,5.42,-1.06,-1.07,0.28
76.63,-7.01,-7.01,-7.26,-7.26,6.00,6.01,5.33,-1.01,-1.01,0.25
77.40,-6.96,-6.96,-7.18,-7.18,6.00,6.03,5.24,-0.96,-0.96,0.22
78.17,-6.91,-6.91,-7.09,-7.10,6.00,6.04,5.16,-0.91,-0.91,0.18
78.95,-6.86,-6.86,-7.02,-7.02,6.00,6.06,5.07,-0.86,-0.86,0.16
79.74,-6.81,-6.82,-6.93,-6.94,6.00,6.07,4.99,-0.81,-0.82,0.12
80.54,-6.77,-6.77,-6.86,-6.86,6.00,6.08,4.91,-0.77,-0.77,0.09
81.35,-6.72,-6.73,-6.78,-6.78,6.00,6.09,4.83,-0.72,-0.73,0.05
82.16,-6.68,-6.68,-6.70,-6.70,6.00,6.09,4.76,-0.68,-0.68,0.02
82.98,-6.64,-6.64,-6.63,-6.63,6.00,6.09,4.69,-0.64,-0.64,-0.01
83.81,-6.60,-6.60,-6.55,-6.55,6.01,6.09,4.62,-0.60,-0.59,-0.06
84.65,-6.55,-6.55,-6.46,-6.46,6.01,6.08,4.56,-0.54,-0.54,-0.09
85.50,-6.50,-6.50,-6.38,-6.38,6.02,6.07,4.50,-0.48,-0.48,-0.12
86.35,-6.45,-6.45,-6.29,-6.29,6.02,6.05,4.44,-0.44,-0.44,-0.16
87.22,-6.40,-6.40,-6.20,-6.20,6.00,6.01,4.38,-0.40,-0.40,-0.20
88.09,-6.35,-6.35,-6.11,-6.11,5.98,5.98,4.33,-0.38,-0.37,-0.24
88.97,-6.29,-6.29,-6.02,-6.02,5.94,5.93,4.28,-0.36,-0.36,-0.27
89.86,-6.23,-6.23,-5.92,-5.92,5.88,5.88,4.24,-0.35,-0.35,-0.31
90.76,-6.17,-6.17,-5.81,-5.81,5.81,5.82,4.19,-0.36,-0.36,-0.37
91.66,-6.11,-6.12,-5.71,-5.71,5.73,5.75,4.15,-0.38,-0.38,-0.40
92.58,-6.06,-6.06,-5.61,-5.62,5.64,5.67,4.12,-0.42,-0.42,-0.45
93.51,-6.01,-6.01,-5.53,-5.53,5.54,5.59,4.09,-0.48,-0.47,-0.49
94.44,-5.96,-5.96,-5.43,-5.43,5.43,5.50,4.06,-0.53,-0.53,-0.53
95.39,-5.91,-5.91,-5.34,-5.34,5.33,5.41,4.03,-0.58,-0.58,-0.57
96.34,-5.86,-5.86,-5.23,-5.24,5.24,5.31,4.01,-0.63,-0.63,-0.63
97.30,-5.81,-5.82,-5.14,-5.14,5.14,5.20,3.98,-0.67,-0.67,-0.67
98.28,-5.77,-5.77,-5.05,-5.05,5.05,5.09,3.97,-0.72,-0.72,-0.72
99.26,-5.72,-5.73,-4.96,-4.96,4.96,4.98,3.95,-0.76,-0.76,-0.77
100.25,-5.68,-5.68,-4.87,-4.87,4.87,4.87,3.93,-0.81,-0.81,-0.81
101.25,-5.64,-5.64,-4.79,-4.78,4.78,4.75,3.92,-0.86,-0.86,-0.86
102.27,-5.60,-5.60,-4.70,-4.70,4.70,4.64,3.91,-0.91,-0.91,-0.90
103.29,-5.56,-5.56,-4.60,-4.61,4.61,4.52,3.90,-0.95,-0.95,-0.96
104.32,-5.52,-5.52,-4.53,-4.52,4.52,4.41,3.89,-1.00,-1.00,-1.00
105.37,-5.48,-5.48,-4.44,-4.44,4.44,4.29,3.89,-1.04,-1.04,-1.04
106.42,-5.44,-5.44,-4.35,-4.35,4.35,4.18,3.88,-1.09,-1.09,-1.09
107.48,-5.40,-5.40,-4.27,-4.26,4.27,4.07,3.87,-1.14,-1.14,-1.13
108.56,-5.36,-5.36,-4.17,-4.18,4.18,3.96,3.87,-1.19,-1.19,-1.19
109.64,-5.32,-5.32,-4.09,-4.09,4.09,3.85,3.86,-1.24,-1.24,-1.24
110.74,-5.28,-5.28,-4.00,-4.00,4.00,3.74,3.86,-1.29,-1.29,-1.28
111.85,-5.24,-5.24,-3.91,-3.91,3.90,3.64,3.85,-1.34,-1.34,-1.33
112.97,-5.20,-5.20,-3.81,-3.81,3.81,3.54,3.84,-1.39,-1.39,-1.39
114.10,-5.15,-5.16,-3.71,-3.72,3.72,3.43,3.83,-1.44,-1.44,-1.44
115.24,-5.11,-5.11,-3.62,-3.62,3.62,3.34,3.82,-1.49,-1.49,-1.49
116.39,-5.07,-5.07,-3.52,-3.52,3.53,3.24,3.81,-1.55,-1.55,-1.55
117.55,-5.03,-5.03,-3.43,-3.43,3.43,3.14,3.79,-1.60,-1.60,-1.60
118.73,-4.99,-4.99,-3.34,-3.34,3.34,3.05,3.77,-1.65,-1.65,-1.66
119.92,-4.95,-4.95,-3.25,-3.25,3.25,2.96,3.75,-1.70,-1.70,-1.70
121.12,-4.91,-4.91,-3.16,-3.16,3.16,2.87,3.72,-1.75,-1.75,-1.75
122.33,-4.87,-4.87,-3.07,-3.07,3.07,2.79,3.69,-1.80,-1.80,-1.81
123.55,-4.83,-4.83,-2.99,-2.98,2.98,2.70,3.66,-1.85,-1.85,-1.85
124.79,-4.79,-4.79,-2.90,-2.90,2.89,2.62,3.63,-1.90,-1.90,-1.90
126.03,-4.75,-4.76,-2.80,-2.81,2.81,2.54,3.59,-1.95,-1.95,-1.95
127.29,-4.72,-4.72,-2.72,-2.72,2.72,2.46,3.54,-2.00,-2.00,-2.00
128.57,-4.69,-4.69,-2.64,-2.63,2.64,2.38,3.50,-2.06,-2.05,-2.06
129.85,-4.65,-4.66,-2.55,-2.55,2.55,2.31,3.45,-2.10,-2.10,-2.11
131.15,-4.62,-4.62,-2.47,-2.47,2.47,2.23,3.39,-2.15,-2.15,-2.15
132.46,-4.59,-4.59,-2.39,-2.39,2.39,2.16,3.34,-2.20,-2.20,-2.20
133.79,-4.56,-4.56,-2.32,-2.32,2.32,2.09,3.28,-2.25,-2.25,-2.24
135.12,-4.53,-4.53,-2.24,-2.25,2.24,2.02,3.21,-2.29,-2.29,-2.29
136.48,-4.50,-4.50,-2.17,-2.17,2.17,1.95,3.15,-2.34,-2.34,-2.33
137.84,-4.47,-4.47,-2.10,-2.09,2.09,1.89,3.08,-2.38,-2.38,-2.37
139.22,-4.44,-4.44,-2.02,-2.02,2.02,1.82,3.01,-2.42,-2.42,-2.43
140.61,-4.41,-4.41,-1.94,-1.95,1.95,1.76,2.93,-2.46,-2.46,-2.47
142.02,-4.38,-4.38,-1.89,-1.88,1.88,1.70,2.86,-2.50,-2.50,-2.49
143.44,-4.35,-4.35,-1.82,-1.82,1.82,1.64,2.78,-2.54,-2.54,-2.53
144.87,-4.32,-4.32,-1.75,-1.75,1.75,1.58,2.70,-2.57,-2.57,-2.57
146.32,-4.29,-4.29,-1.68,-1.68,1.68,1.52,2.62,-2.61,-2.61,-2.61
147.78,-4.26,-4.27,-1.62,-1.62,1.62,1.46,2.54,-2.64,-2.65,-2.64
149.26,-4.24,-4.24,-1.56,-1.55,1.55,1.41,2.46,-2.69,-2.69,-2.68
150.75,-4.21,-4.21,-1.49,-1.49,1.49,1.35,2.38,-2.72,-2.72,-2.73
152.26,-4.18,-4.19,-1.42,-1.42,1.42,1.30,2.29,-2.76,-2.76,-2.76
153.78,-4.16,-4.16,-1.36,-1.36,1.36,1.24,2.21,-2.80,-2.80,-2.80
155.32,-4.13,-4.14,-1.29,-1.30,1.30,1.19,2.13,-2.84,-2.84,-2.84
156.88,-4.11,-4.11,-1.24,-1.23,1.23,1.14,2.05,-2.88,-2.88,-2.88
158.44,-4.09,-4.09,-1.17,-1.17,1.17,1.09,1.97,-2.92,-2.92,-2.92
160.03,-4.07,-4.07,-1.11,-1.11,1.11,1.04,1.88,-2.97,-2.97,-2.96
161.63,-4.05,-4.05,-1.05,-1.05,1.05,0.99,1.80,-3.01,-3.00,-3.00
163.24,-4.02,-4.03,-0.98,-0.98,0.99,0.94,1.72,-3.04,-3.04,-3.05
164.88,-4.00,-4.00,-0.93,-0.93,0.93,0.90,1.64,-3.07,-3.07,-3.08
166.53,-3.98,-3.99,-0.87,-0.87,0.87,0.85,1.56,-3.11,-3.11,-3.11
168.19,-3.97,-3.97,-0.82,-0.82,0.82,0.81,1.49,-3.16,-3.15,-3.15
169.87,-3.95,-3.95,-0.76,-0.76,0.76,0.76,1.41,-3.19,-3.19,-3.19
171.57,-3.93,-3.94,-0.71,-0.71,0.71,0.72,1.33,-3.22,-3.23,-3.23
173.29,-3.92,-3.92,-0.66,-0.66,0.66,0.67,1.25,-3.27,-3.26,-3.26
175.02,-3.90,-3.91,-0.60,-0.60,0.60,0.63,1.18,-3.30,-3.30,-3.30
176.77,-3.89,-3.89,-0.55,-0.55,0.55,0.58,1.10,-3.34,-3.34,-3.34
178.54,-3.88,-3.88,-0.50,-0.50,0.50,0.54,1.03,-3.39,-3.38,-3.39
180.32,-3.86,-3.87,-0.44,-0.44,0.45,0.50,0.96,-3.42,-3.42,-3.42
182.13,-3.85,-3.85,-0.40,-0.39,0.39,0.46,0.88,-3.46,-3.46,-3.45
183.95,-3.83,-3.84,-0.34,-0.34,0.34,0.41,0.81,-3.49,-3.49,-3.50
185.79,-3.82,-3.82,-0.30,-0.29,0.29,0.37,0.74,-3.53,-3.53,-3.53
187.65,-3.80,-3.81,-0.24,-0.24,0.24,0.33,0.67,-3.56,-3.56,-3.57
189.52,-3.79,-3.79,-0.20,-0.19,0.19,0.29,0.60,-3.60,-3.60,-3.60
191.42,-3.77,-3.77,-0.15,-0.14,0.14,0.25,0.53,-3.63,-3.63,-3.63
193.33,-3.75,-3.75,-0.10,-0.10,0.09,0.21,0.46,-3.66,-3.66,-3.66
195.27,-3.73,-3.73,-0.05,-0.05,0.05,0.17,0.40,-3.69,-3.68,-3.68
197.22,-3.71,-3.71,-0.00,0.00,0.00,0.13,0.33,-3.71,-3.71,-3.71
199.19,-3.69,-3.70,0.06,0.05,-0.04,0.09,0.26,-3.73,-3.74,-3.75
201.18,-3.68,-3.68,0.08,0.09,-0.08,0.05,0.20,-3.77,-3.76,-3.77
203.19,-3.66,-3.66,0.12,0.12,-0.12,0.01,0.14,-3.79,-3.79,-3.78
205.23,-3.64,-3.64,0.16,0.16,-0.16,-0.03,0.07,-3.81,-3.81,-3.81
207.28,-3.62,-3.62,0.19,0.20,-0.20,-0.07,0.01,-3.82,-3.82,-3.81
209.35,-3.60,-3.60,0.23,0.24,-0.23,-0.11,-0.05,-3.84,-3.84,-3.84
211.44,-3.58,-3.58,0.28,0.27,-0.27,-0.15,-0.11,-3.85,-3.85,-3.86
213.56,-3.56,-3.56,0.30,0.30,-0.30,-0.18,-0.16,-3.86,-3.86,-3.86
215.69,-3.54,-3.54,0.32,0.33,-0.33,-0.21,-0.22,-3.87,-3.87,-3.87
217.85,-3.52,-3.52,0.36,0.36,-0.36,-0.25,-0.27,-3.88,-3.88,-3.88
220.03,-3.50,-3.51,0.39,0.39,-0.38,-0.28,-0.33,-3.89,-3.89,-3.89
222.23,-3.49,-3.49,0.41,0.41,-0.41,-0.31,-0.38,-3.90,-3.89,-3.90
224.45,-3.47,-3.47,0.42,0.43,-0.42,-0.34,-0.43,-3.90,-3.90,-3.90
226.70,-3.45,-3.46,0.44,0.44,-0.44,-0.36,-0.47,-3.89,-3.90,-3.90
228.96,-3.44,-3.44,0.46,0.45,-0.45,-0.38,-0.52,-3.90,-3.90,-3.90
231.25,-3.43,-3.43,0.46,0.46,-0.47,-0.40,-0.56,-3.90,-3.90,-3.89
233.57,-3.41,-3.42,0.48,0.47,-0.48,-0.42,-0.60,-3.89,-3.89,-3.89
235.90,-3.40,-3.40,0.49,0.48,-0.49,-0.44,-0.64,-3.89,-3.89,-3.89
238.26,-3.39,-3.39,0.49,0.49,-0.49,-0.45,-0.67,-3.89,-3.88,-3.89
240.64,-3.38,-3.38,0.49,0.50,-0.50,-0.46,-0.70,-3.88,-3.88,-3.88
243.05,-3.36,-3.37,0.50,0.50,-0.50,-0.47,-0.73,-3.86,-3.86,-3.87
245.48,-3.35,-3.35,0.50,0.50,-0.50,-0.47,-0.76,-3.85,-3.85,-3.85
247.93,-3.34,-3.34,0.50,0.50,-0.49,-0.48,-0.78,-3.84,-3.84,-3.84
250.41,-3.34,-3.34,0.50,0.49,-0.49,-0.48,-0.80,-3.83,-3.83,-3.84
252.92,-3.33,-3.34,0.48,0.48,-0.48,-0.48,-0.82,-3.81,-3.82,-3.82
255.45,-3.33,-3.33,0.46,0.47,-0.47,-0.47,-0.83,-3.81,-3.80,-3.79
258.00,-3.32,-3.32,0.46,0.46,-0.46,-0.47,-0.85,-3.79,-3.79,-3.78
260.58,-3.31,-3.31,0.46,0.45,-0.45,-0.46,-0.85,-3.77,-3.77,-3.77
263.19,-3.30,-3.30,0.44,0.45,-0.44,-0.46,-0.86,-3.75,-3.75,-3.75
265.82,-3.29,-3.29,0.44,0.44,-0.44,-0.45,-0.86,-3.73,-3.73,-3.73
268.48,-3.27,-3.28,0.43,0.43,-0.43,-0.44,-0.87,-3.70,-3.71,-3.71
271.16,-3.26,-3.26,0.42,0.43,-0.43,-0.43,-0.86,-3.69,-3.69,-3.68
273.87,-3.24,-3.24,0.43,0.42,-0.42,-0.42,-0.86,-3.67,-3.67,-3.67
276.61,-3.22,-3.23,0.42,0.42,-0.42,-0.41,-0.86,-3.65,-3.65,-3.64
279.38,-3.21,-3.21,0.42,0.42,-0.42,-0.40,-0.85,-3.63,-3.63,-3.63
282.17,-3.19,-3.19,0.42,0.42,-0.42,-0.39,-0.84,-3.61,-3.61,-3.62
284.99,-3.17,-3.17,0.42,0.42,-0.42,-0.38,-0.83,-3.59,-3.59,-3.59
287.84,-3.15,-3.15,0.42,0.42,-0.42,-0.37,-0.82,-3.57,-3.57,-3.57
290.72,-3.13,-3.14,0.42,0.41,-0.42,-0.36,-0.81,-3.55,-3.55,-3.55
293.63,-3.12,-3.12,0.41,0.41,-0.41,-0.36,-0.80,-3.54,-3.53,-3.53
296.57,-3.10,-3.10,0.40,0.41,-0.41,-0.35,-0.78,-3.51,-3.51,-3.51
299.53,-3.08,-3.09,0.41,0.41,-0.40,-0.34,-0.77,-3.49,-3.49,-3.49
302.53,-3.07,-3.07,0.40,0.40,-0.40,-0.33,-0.75,-3.47,-3.47,-3.48
305.55,-3.05,-3.05,0.39,0.39,-0.39,-0.33,-0.73,-3.44,-3.44,-3.44
308.61,-3.04,-3.04,0.38,0.38,-0.38,-0.32,-0.72,-3.42,-3.42,-3.42
311.69,-3.02,-3.02,0.37,0.37,-0.37,-0.31,-0.70,-3.39,-3.40,-3.40
314.81,-3.01,-3.01,0.35,0.36,-0.36,-0.31,-0.69,-3.37,-3.37,-3.36
317.96,-2.99,-2.99,0.35,0.35,-0.35,-0.30,-0.67,-3.35,-3.35,-3.34
321.14,-2.98,-2.98,0.34,0.34,-0.35,-0.30,-0.65,-3.33,-3.33,-3.33
324.35,-2.96,-2.97,0.35,0.34,-0.34,-0.29,-0.64,-3.30,-3.30,-3.31
327.59,-2.95,-2.95,0.33,0.33,-0.33,-0.29,-0.62,-3.29,-3.29,-3.28
330.87,-2.94,-2.94,0.32,0.33,-0.33,-0.29,-0.60,-3.27,-3.27,-3.27
334.18,-2.92,-2.93,0.33,0.32,-0.32,-0.28,-0.59,-3.24,-3.25,-3.25
337.52,-2.91,-2.91,0.32,0.32,-0.32,-0.28,-0.57,-3.23,-3.23,-3.23
340.90,-2.89,-2.90,0.31,0.31,-0.31,-0.28,-0.56,-3.20,-3.20,-3.20
344.30,-2.88,-2.88,0.30,0.30,-0.30,-0.28,-0.54,-3.19,-3.19,-3.19
347.75,-2.87,-2.87,0.30,0.30,-0.30,-0.28,-0.53,-3.17,-3.17,-3.17
351.23,-2.86,-2.86,0.29,0.29,-0.29,-0.28,-0.51,-3.15,-3.15,-3.15
354.74,-2.85,-2.85,0.28,0.28,-0.28,-0.27,-0.50,-3.13,-3.13,-3.13
358.28,-2.84,-2.84,0.27,0.27,-0.27,-0.27,-0.48,-3.11,-3.11,-3.11
361.87,-2.83,-2.83,0.26,0.26,-0.26,-0.27,-0.47,-3.10,-3.10,-3.10
365.49,-2.82,-2.83,0.26,0.25,-0.25,-0.27,-0.46,-3.08,-3.08,-3.08
369.14,-2.82,-2.82,0.25,0.25,-0.25,-0.28,-0.45,-3.07,-3.07,-3.07
372.83,-2.81,-2.81,0.24,0.24,-0.24,-0.28,-0.44,-3.06,-3.06,-3.05
376.56,-2.80,-2.80,0.24,0.24,-0.24,-0.28,-0.43,-3.04,-3.04,-3.04
380.33,-2.78,-2.79,0.23,0.24,-0.24,-0.28,-0.42,-3.02,-3.03,-3.02
384.13,-2.77,-2.77,0.23,0.24,-0.24,-0.28,-0.41,-3.01,-3.01,-3.01
387.97,-2.75,-2.76,0.25,0.24,-0.24,-0.28,-0.40,-3.00,-3.00,-3.00
391.85,-2.74,-2.74,0.25,0.25,-0.25,-0.29,-0.39,-2.99,-2.99,-2.99
395.77,-2.72,-2.72,0.25,0.25,-0.25,-0.29,-0.38,-2.97,-2.97,-2.97
399.73,-2.70,-2.71,0.26,0.26,-0.25,-0.29,-0.37,-2.96,-2.96,-2.96
403.72,-2.69,-2.69,0.26,0.26,-0.26,-0.30,-0.36,-2.95,-2.95,-2.95
407.76,-2.67,-2.68,0.27,0.27,-0.27,-0.30,-0.36,-2.94,-2.94,-2.95
411.84,-2.66,-2.66,0.26,0.27,-0.27,-0.30,-0.35,-2.94,-2.93,-2.93
415.96,-2.64,-2.64,0.28,0.28,-0.28,-0.31,-0.34,-2.92,-2.92,-2.92
420.12,-2.62,-2.62,0.29,0.28,-0.29,-0.31,-0.34,-2.91,-2.91,-2.91
