frequency,raw,error,smoothed,error_smoothed,equalization,parametric_eq,fixed_band_eq,equalized_raw,equalized_smoothed,target
20.00,0.32,-3.06,0.32,-3.06,3.06,3.06,0.26,3.38,3.38,3.38
20.20,0.38,-3.00,0.38,-3.00,3.00,3.01,0.27,3.38,3.38,3.38
20.40,0.44,-2.94,0.44,-2.94,2.94,2.96,0.28,3.38,3.38,3.38
20.61,0.50,-2.88,0.50,-2.88,2.88,2.91,0.29,3.38,3.38,3.38
20.81,0.56,-2.82,0.56,-2.82,2.81,2.86,0.30,3.37,3.37,3.38
21.02,0.62,-2.76,0.62,-2.75,2.75,2.81,0.31,3.37,3.37,3.38
21.23,0.68,-2.68,0.68,-2.68,2.68,2.75,0.32,3.36,3.36,3.36
21.44,0.74,-2.61,0.74,-2.61,2.61,2.70,0.33,3.35,3.35,3.35
21.66,0.79,-2.54,0.79,-2.54,2.54,2.64,0.34,3.33,3.33,3.33
21.87,0.84,-2.46,0.85,-2.46,2.47,2.58,0.36,3.31,3.31,3.31
22.09,0.90,-2.39,0.90,-2.39,2.39,2.52,0.37,3.29,3.29,3.30
22.31,0.95,-2.31,0.95,-2.32,2.31,2.45,0.38,3.27,3.27,3.27
22.54,1.00,-2.25,1.01,-2.24,2.24,2.39,0.40,3.24,3.24,3.25
22.76,1.06,-2.16,1.06,-2.16,2.16,2.32,0.41,3.22,3.22,3.23
22.99,1.11,-2.08,1.11,-2.08,2.08,2.26,0.43,3.20,3.20,3.20
23.22,1.16,-2.00,1.17,-2.00,2.01,2.19,0.44,3.17,3.18,3.16
23.45,1.22,-1.92,1.22,-1.93,1.94,2.12,0.46,3.16,3.15,3.14
23.69,1.27,-1.86,1.27,-1.86,1.87,2.05,0.47,3.14,3.14,3.13
23.92,1.32,-1.79,1.32,-1.79,1.80,1.98,0.49,3.12,3.12,3.11
24.16,1.37,-1.73,1.37,-1.73,1.73,1.91,0.50,3.10,3.10,3.10
24.40,1.41,-1.67,1.41,-1.67,1.66,1.83,0.52,3.07,3.08,3.08
24.65,1.46,-1.60,1.46,-1.60,1.60,1.76,0.53,3.06,3.06,3.06
24.89,1.51,-1.53,1.51,-1.53,1.53,1.69,0.55,3.04,3.04,3.04
25.14,1.56,-1.47,1.56,-1.47,1.47,1.61,0.56,3.03,3.03,3.03
25.39,1.61,-1.40,1.61,-1.40,1.40,1.54,0.58,3.01,3.01,3.01
25.65,1.66,-1.34,1.66,-1.33,1.34,1.46,0.59,3.00,3.00,3.00
25.91,1.71,-1.26,1.71,-1.27,1.27,1.38,0.61,2.98,2.98,2.97
26.16,1.75,-1.21,1.75,-1.21,1.21,1.31,0.62,2.96,2.96,2.96
26.43,1.80,-1.15,1.80,-1.14,1.14,1.23,0.63,2.94,2.95,2.95
26.69,1.85,-1.08,1.85,-1.08,1.08,1.15,0.64,2.93,2.93,2.93
26.96,1.90,-1.02,1.90,-1.02,1.02,1.08,0.65,2.92,2.92,2.92
27.23,1.95,-0.96,1.95,-0.96,0.96,1.00,0.66,2.91,2.90,2.91
27.50,1.99,-0.91,2.00,-0.90,0.89,0.92,0.67,2.88,2.89,2.90
27.77,2.04,-0.83,2.04,-0.83,0.83,0.84,0.68,2.87,2.87,2.87
28.05,2.10,-0.76,2.09,-0.77,0.77,0.77,0.68,2.87,2.86,2.86
28.33,2.14,-0.70,2.15,-0.70,0.70,0.69,0.68,2.84,2.85,2.84
28.62,2.20,-0.63,2.20,-0.63,0.64,0.61,0.68,2.84,2.83,2.83
28.90,2.25,-0.57,2.25,-0.57,0.57,0.53,0.68,2.82,2.82,2.82
29.19,2.30,-0.50,2.31,-0.50,0.51,0.46,0.68,2.81,2.81,2.80
29.48,2.36,-0.44,2.36,-0.44,0.44,0.38,0.67,2.80,2.80,2.80
29.78,2.41,-0.38,2.41,-0.38,0.38,0.30,0.66,2.79,2.78,2.79
30.08,2.46,-0.32,2.46,-0.31,0.31,0.22,0.65,2.77,2.77,2.78
30.38,2.51,-0.25,2.51,-0.25,0.24,0.15,0.63,2.76,2.76,2.76
30.68,2.57,-0.17,2.57,-0.18,0.18,0.07,0.62,2.75,2.74,2.75
30.99,2.62,-0.10,2.62,-0.11,0.11,-0.00,0.60,2.73,2.73,2.72
31.30,2.67,-0.04,2.67,-0.04,0.04,-0.08,0.57,2.71,2.71,2.71
31.61,2.73,0.03,2.73,0.03,-0.03,-0.16,0.54,2.70,2.70,2.70
31.93,2.78,0.10,2.78,0.10,-0.10,-0.23,0.51,2.68,2.68,2.68
32.24,2.83,0.18,2.83,0.18,-0.18,-0.31,0.48,2.66,2.66,2.65
32.57,2.89,0.25,2.89,0.25,-0.25,-0.38,0.44,2.64,2.64,2.64
32.89,2.94,0.31,2.94,0.33,-0.32,-0.45,0.40,2.62,2.62,2.63
33.22,3.00,0.41,3.00,0.40,-0.40,-0.53,0.36,2.60,2.60,2.60
33.55,3.06,0.48,3.06,0.48,-0.48,-0.60,0.31,2.58,2.58,2.58
33.89,3.11,0.55,3.11,0.55,-0.55,-0.67,0.26,2.56,2.56,2.56
34.23,3.17,0.63,3.17,0.63,-0.63,-0.75,0.21,2.54,2.54,2.54
34.57,3.23,0.71,3.23,0.71,-0.71,-0.82,0.16,2.52,2.52,2.52
34.92,3.29,0.79,3.29,0.79,-0.79,-0.89,0.10,2.50,2.50,2.50
35.27,3.35,0.87,3.35,0.87,-0.87,-0.96,0.04,2.48,2.48,2.48
35.62,3.41,0.95,3.41,0.95,-0.95,-1.03,-0.02,2.46,2.46,2.46
35.97,3.46,1.02,3.47,1.02,-1.02,-1.10,-0.08,2.44,2.44,2.44
36.33,3.53,1.10,3.53,1.10,-1.10,-1.17,-0.15,2.43,2.42,2.43
36.70,3.58,1.17,3.59,1.18,-1.18,-1.24,-0.22,2.40,2.41,2.41
37.06,3.65,1.27,3.65,1.26,-1.26,-1.31,-0.29,2.39,2.39,2.38
37.43,3.71,1.34,3.71,1.34,-1.34,-1.38,-0.36,2.37,2.37,2.37
37.81,3.76,1.41,3.77,1.42,-1.42,-1.45,-0.43,2.34,2.35,2.35
38.19,3.83,1.50,3.83,1.50,-1.50,-1.52,-0.50,2.33,2.33,2.33
38.57,3.88,1.57,3.89,1.58,-1.58,-1.58,-0.58,2.30,2.31,2.31
38.95,3.95,1.66,3.95,1.66,-1.66,-1.65,-0.65,2.30,2.29,2.29
39.34,4.00,1.73,4.00,1.73,-1.73,-1.71,-0.73,2.27,2.27,2.27
39.74,4.06,1.82,4.06,1.81,-1.81,-1.78,-0.81,2.25,2.25,2.24
40.14,4.12,1.88,4.12,1.88,-1.89,-1.85,-0.89,2.23,2.23,2.24
40.54,4.17,1.95,4.18,1.96,-1.96,-1.91,-0.97,2.21,2.22,2.22
40.94,4.24,2.04,4.24,2.03,-2.03,-1.97,-1.05,2.21,2.20,2.20
41.35,4.29,2.11,4.29,2.11,-2.10,-2.04,-1.14,2.19,2.19,2.18
41.76,4.35,2.17,4.35,2.18,-2.17,-2.10,-1.22,2.18,2.18,2.18
42.18,4.40,2.24,4.40,2.24,-2.24,-2.16,-1.31,2.16,2.16,2.16
42.60,4.45,2.31,4.45,2.30,-2.31,-2.22,-1.40,2.14,2.14,2.14
43.03,4.50,2.37,4.50,2.37,-2.38,-2.28,-1.49,2.12,2.12,2.13
43.46,4.55,2.44,4.55,2.44,-2.45,-2.35,-1.58,2.10,2.11,2.11
43.90,4.61,2.52,4.60,2.51,-2.51,-2.41,-1.67,2.10,2.09,2.09
44.33,4.65,2.58,4.65,2.58,-2.58,-2.47,-1.76,2.07,2.07,2.07
44.78,4.70,2.64,4.70,2.65,-2.65,-2.52,-1.85,2.05,2.05,2.06
45.23,4.75,2.72,4.75,2.71,-2.71,-2.58,-1.95,2.04,2.03,2.03
45.68,4.79,2.77,4.80,2.78,-2.78,-2.64,-2.04,2.01,2.02,2.02
46.13,4.85,2.85,4.85,2.84,-2.84,-2.70,-2.14,2.01,2.01,2.00
46.60,4.90,2.91,4.90,2.91,-2.90,-2.75,-2.24,2.00,1.99,1.99
47.06,4.94,2.96,4.94,2.97,-2.97,-2.81,-2.34,1.97,1.98,1.98
47.53,4.99,3.03,4.99,3.02,-3.03,-2.87,-2.44,1.96,1.96,1.96
48.01,5.03,3.07,5.03,3.08,-3.09,-2.92,-2.54,1.94,1.94,1.96
48.49,5.08,3.15,5.08,3.15,-3.15,-2.98,-2.65,1.93,1.92,1.93
48.97,5.12,3.22,5.12,3.22,-3.22,-3.03,-2.75,1.90,1.90,1.90
49.46,5.16,3.29,5.16,3.29,-3.28,-3.08,-2.85,1.88,1.88,1.88
49.96,5.20,3.35,5.20,3.34,-3.34,-3.14,-2.96,1.86,1.86,1.85
50.46,5.25,3.40,5.24,3.40,-3.40,-3.19,-3.06,1.85,1.84,1.85
50.96,5.28,3.45,5.28,3.46,-3.46,-3.24,-3.17,1.82,1.83,1.83
51.47,5.32,3.52,5.32,3.51,-3.51,-3.29,-3.27,1.81,1.81,1.80
51.99,5.36,3.57,5.36,3.57,-3.57,-3.34,-3.38,1.79,1.79,1.79
52.51,5.39,3.61,5.39,3.62,-3.62,-3.39,-3.48,1.77,1.77,1.78
53.03,5.43,3.67,5.43,3.67,-3.67,-3.44,-3.58,1.76,1.76,1.76
53.56,5.46,3.72,5.46,3.72,-3.72,-3.49,-3.69,1.74,1.74,1.74
54.10,5.50,3.78,5.50,3.78,-3.78,-3.54,-3.79,1.73,1.72,1.72
54.64,5.52,3.82,5.52,3.83,-3.82,-3.58,-3.89,1.70,1.70,1.70
55.18,5.55,3.87,5.55,3.87,-3.87,-3.63,-3.98,1.68,1.68,1.68
55.74,5.58,3.92,5.58,3.92,-3.92,-3.68,-4.07,1.66,1.66,1.66
56.29,5.60,3.95,5.60,3.96,-3.96,-3.72,-4.16,1.64,1.64,1.65
56.86,5.63,4.01,5.63,4.00,-4.00,-3.77,-4.25,1.63,1.62,1.63
57.42,5.65,4.05,5.65,4.04,-4.04,-3.81,-4.33,1.61,1.61,1.60
58.00,5.67,4.08,5.67,4.09,-4.08,-3.85,-4.41,1.59,1.59,1.59
58.58,5.69,4.12,5.69,4.12,-4.12,-3.90,-4.48,1.58,1.58,1.57
59.16,5.71,4.16,5.71,4.15,-4.15,-3.94,-4.55,1.56,1.56,1.55
59.76,5.72,4.18,5.72,4.18,-4.18,-3.98,-4.61,1.54,1.54,1.54
60.35,5.73,4.21,5.73,4.21,-4.22,-4.02,-4.67,1.51,1.51,1.52
60.96,5.74,4.23,5.74,4.24,-4.25,-4.06,-4.72,1.49,1.49,1.51
61.57,5.75,4.27,5.75,4.27,-4.28,-4.10,-4.76,1.47,1.47,1.48
62.18,5.77,4.32,5.77,4.31,-4.31,-4.14,-4.80,1.46,1.46,1.45
62.80,5.77,4.33,5.77,4.34,-4.33,-4.18,-4.83,1.44,1.44,1.44
63.43,5.78,4.37,5.78,4.37,-4.36,-4.21,-4.85,1.42,1.42,1.41
64.07,5.77,4.38,5.78,4.38,-4.38,-4.25,-4.87,1.39,1.40,1.39
64.71,5.78,4.40,5.78,4.39,-4.40,-4.28,-4.88,1.39,1.38,1.39
65.35,5.77,4.40,5.77,4.40,-4.41,-4.32,-4.89,1.36,1.36,1.37
66.01,5.77,4.41,5.77,4.42,-4.42,-4.35,-4.89,1.35,1.35,1.36
66.67,5.77,4.43,5.77,4.43,-4.43,-4.39,-4.88,1.34,1.34,1.34
67.33,5.77,4.44,5.76,4.44,-4.44,-4.42,-4.88,1.34,1.33,1.33
68.01,5.75,4.44,5.75,4.44,-4.44,-4.45,-4.86,1.31,1.31,1.31
68.69,5.74,4.44,5.74,4.45,-4.45,-4.48,-4.84,1.29,1.30,1.30
69.37,5.73,4.45,5.73,4.45,-4.45,-4.51,-4.82,1.28,1.28,1.28
70.07,5.72,4.45,5.72,4.45,-4.45,-4.54,-4.80,1.27,1.27,1.27
70.77,5.70,4.45,5.70,4.45,-4.45,-4.57,-4.77,1.25,1.25,1.25
71.48,5.69,4.46,5.69,4.45,-4.46,-4.60,-4.74,1.24,1.23,1.23
72.19,5.67,4.45,5.67,4.46,-4.46,-4.63,-4.71,1.21,1.21,1.22
72.91,5.65,4.46,5.65,4.46,-4.46,-4.65,-4.68,1.19,1.19,1.19
73.64,5.63,4.46,5.63,4.46,-4.46,-4.68,-4.65,1.17,1.17,1.17
74.38,5.60,4.45,5.61,4.46,-4.46,-4.70,-4.62,1.14,1.15,1.15
75.12,5.59,4.47,5.59,4.46,-4.46,-4.73,-4.59,1.13,1.13,1.12
75.87,5.56,4.46,5.56,4.46,-4.46,-4.75,-4.56,1.10,1.10,1.10
76.63,5.54,4.46,5.54,4.46,-4.46,-4.77,-4.53,1.08,1.08,1.08
77.40,5.51,4.46,5.51,4.46,-4.46,-4.79,-4.50,1.05,1.05,1.06
78.17,5.48,4.46,5.49,4.46,-4.46,-4.81,-4.48,1.02,1.03,1.02
78.95,5.46,4.45,5.46,4.45,-4.46,-4.83,-4.46,1.00,1.00,1.01
79.74,5.43,4.45,5.43,4.45,-4.46,-4.85,-4.43,0.97,0.97,0.98
80.54,5.40,4.45,5.41,4.46,-4.46,-4.87,-4.41,0.94,0.95,0.95
81.35,5.38,4.46,5.38,4.46,-4.46,-4.89,-4.40,0.92,0.92,0.92
82.16,5.35,4.46,5.35,4.46,-4.46,-4.90,-4.39,0.89,0.89,0.89
82.98,5.32,4.46,5.32,4.46,-4.46,-4.92,-4.37,0.86,0.86,0.86
83.81,5.29,4.47,5.29,4.46,-4.46,-4.93,-4.37,0.83,0.83,0.82
84.65,5.25,4.46,5.26,4.46,-4.46,-4.95,-4.36,0.79,0.79,0.79
85.50,5.23,4.47,5.23,4.47,-4.47,-4.96,-4.36,0.77,0.76,0.77
86.35,5.20,4.47,5.20,4.47,-4.47,-4.97,-4.36,0.73,0.73,0.73
87.22,5.16,4.46,5.17,4.47,-4.47,-4.98,-4.37,0.69,0.70,0.70
88.09,5.14,4.48,5.13,4.47,-4.47,-4.99,-4.38,0.67,0.66,0.66
88.97,5.10,4.46,5.10,4.47,-4.47,-5.00,-4.39,0.63,0.63,0.64
89.86,5.07,4.47,5.07,4.47,-4.48,-5.01,-4.41,0.60,0.60,0.60
90.76,5.04,4.49,5.04,4.48,-4.48,-5.01,-4.43,0.56,0.56,0.56
91.66,5.01,4.48,5.01,4.49,-4.48,-5.02,-4.45,0.53,0.53,0.53
92.58,4.98,4.50,4.98,4.49,-4.49,-5.02,-4.48,0.49,0.49,0.48
93.51,4.95,4.49,4.95,4.49,-4.49,-5.03,-4.51,0.46,0.46,0.46
94.44,4.93,4.50,4.92,4.50,-4.50,-5.03,-4.54,0.43,0.42,0.43
95.39,4.89,4.50,4.89,4.51,-4.51,-5.03,-4.57,0.38,0.38,0.39
96.34,4.86,4.52,4.86,4.52,-4.52,-5.03,-4.61,0.34,0.34,0.34
97.30,4.83,4.53,4.83,4.53,-4.53,-5.03,-4.65,0.30,0.30,0.30
98.28,4.80,4.54,4.80,4.54,-4.54,-5.03,-4.70,0.26,0.26,0.26
99.26,4.77,4.56,4.77,4.56,-4.56,-5.03,-4.74,0.21,0.22,0.21
100.25,4.75,4.57,4.75,4.57,-4.57,-5.03,-4.79,0.18,0.18,0.18
101.25,4.72,4.58,4.72,4.59,-4.59,-5.02,-4.84,0.13,0.13,0.14
102.27,4.69,4.60,4.69,4.60,-4.60,-5.02,-4.90,0.09,0.09,0.09
103.29,4.66,4.62,4.66,4.62,-4.62,-5.01,-4.95,0.05,0.05,0.04
104.32,4.63,4.63,4.63,4.63,-4.63,-5.00,-5.00,0.00,0.00,-0.00
105.37,4.60,4.64,4.60,4.64,-4.64,-5.00,-5.06,-0.04,-0.05,-0.04
106.42,4.56,4.65,4.56,4.65,-4.66,-4.99,-5.11,-0.10,-0.10,-0.09
107.48,4.53,4.67,4.53,4.67,-4.67,-4.98,-5.16,-0.14,-0.14,-0.14
108.56,4.50,4.69,4.50,4.69,-4.69,-4.97,-5.22,-0.19,-0.19,-0.19
109.64,4.47,4.71,4.47,4.70,-4.70,-4.95,-5.27,-0.23,-0.23,-0.24
110.74,4.44,4.72,4.44,4.72,-4.72,-4.94,-5.32,-0.28,-0.28,-0.28
111.85,4.40,4.73,4.40,4.73,-4.73,-4.92,-5.36,-0.33,-0.33,-0.33
112.97,4.36,4.76,4.36,4.75,-4.75,-4.91,-5.40,-0.39,-0.39,-0.39
114.10,4.32,4.75,4.32,4.76,-4.76,-4.89,-5.44,-0.44,-0.44,-0.43
115.24,4.29,4.77,4.29,4.77,-4.78,-4.87,-5.48,-0.48,-0.49,-0.48
116.39,4.25,4.79,4.25,4.79,-4.79,-4.86,-5.50,-0.53,-0.53,-0.54
117.55,4.21,4.80,4.21,4.80,-4.79,-4.84,-5.53,-0.58,-0.58,-0.59
118.73,4.17,4.81,4.17,4.80,-4.80,-4.81,-5.54,-0.63,-0.63,-0.63
119.92,4.13,4.80,4.13,4.80,-4.80,-4.79,-5.55,-0.67,-0.67,-0.67
121.12,4.08,4.80,4.08,4.80,-4.80,-4.77,-5.56,-0.72,-0.72,-0.72
122.33,4.04,4.81,4.04,4.80,-4.80,-4.74,-5.55,-0.76,-0.76,-0.76
123.55,3.99,4.79,3.99,4.80,-4.80,-4.72,-5.54,-0.81,-0.81,-0.80
124.79,3.95,4.80,3.95,4.79,-4.80,-4.69,-5.52,-0.84,-0.85,-0.85
126.03,3.90,4.78,3.90,4.78,-4.79,-4.66,-5.49,-0.89,-0.89,-0.88
127.29,3.85,4.78,3.85,4.78,-4.78,-4.64,-5.45,-0.93,-0.93,-0.93
128.57,3.80,4.78,3.80,4.77,-4.78,-4.61,-5.41,-0.98,-0.97,-0.98
129.85,3.76,4.77,3.76,4.77,-4.77,-4.57,-5.36,-1.00,-1.01,-1.01
131.15,3.70,4.75,3.71,4.76,-4.75,-4.54,-5.30,-1.05,-1.04,-1.05
132.46,3.66,4.75,3.66,4.74,-4.74,-4.51,-5.23,-1.08,-1.08,-1.09
133.79,3.60,4.71,3.60,4.72,-4.72,-4.47,-5.15,-1.12,-1.12,-1.11
135.12,3.54,4.69,3.55,4.69,-4.69,-4.44,-5.07,-1.15,-1.15,-1.15
136.48,3.49,4.66,3.49,4.66,-4.66,-4.40,-4.99,-1.17,-1.18,-1.17
137.84,3.43,4.62,3.43,4.63,-4.63,-4.36,-4.90,-1.20,-1.20,-1.19
139.22,3.37,4.60,3.37,4.60,-4.60,-4.32,-4.80,-1.23,-1.23,-1.23
140.61,3.31,4.57,3.31,4.56,-4.56,-4.28,-4.70,-1.25,-1.25,-1.26
142.02,3.26,4.52,3.25,4.52,-4.52,-4.24,-4.60,-1.26,-1.27,-1.26
143.44,3.19,4.47,3.20,4.48,-4.48,-4.20,-4.49,-1.29,-1.28,-1.28
144.87,3.13,4.44,3.14,4.44,-4.44,-4.16,-4.38,-1.31,-1.30,-1.31
146.32,3.08,4.40,3.07,4.39,-4.39,-4.11,-4.27,-1.31,-1.32,-1.32
147.78,3.01,4.34,3.01,4.35,-4.35,-4.06,-4.16,-1.34,-1.33,-1.33
149.26,2.95,4.30,2.95,4.30,-4.30,-4.02,-4.04,-1.35,-1.35,-1.34
150.75,2.89,4.26,2.89,4.25,-4.26,-3.97,-3.93,-1.37,-1.37,-1.37
152.26,2.83,4.21,2.83,4.21,-4.21,-3.92,-3.81,-1.38,-1.38,-1.38
153.78,2.77,4.17,2.77,4.17,-4.17,-3.87,-3.69,-1.40,-1.40,-1.40
155.32,2.71,4.12,2.71,4.12,-4.12,-3.82,-3.58,-1.41,-1.41,-1.41
156.88,2.65,4.07,2.65,4.07,-4.08,-3.76,-3.46,-1.43,-1.43,-1.42
158.44,2.58,4.03,2.58,4.03,-4.03,-3.71,-3.35,-1.45,-1.45,-1.45
160.03,2.52,3.99,2.52,3.98,-3.99,-3.65,-3.24,-1.47,-1.47,-1.47
161.63,2.45,3.94,2.45,3.94,-3.94,-3.59,-3.12,-1.49,-1.49,-1.49
163.24,2.39,3.89,2.39,3.89,-3.89,-3.54,-3.01,-1.50,-1.50,-1.50
164.88,2.33,3.84,2.33,3.84,-3.84,-3.48,-2.90,-1.51,-1.51,-1.51
166.53,2.26,3.79,2.26,3.79,-3.79,-3.42,-2.79,-1.53,-1.53,-1.53
168.19,2.18,3.74,2.18,3.74,-3.73,-3.36,-2.69,-1.55,-1.55,-1.56
169.87,2.10,3.67,2.10,3.67,-3.67,-3.29,-2.58,-1.57,-1.57,-1.57
171.57,2.02,3.61,2.02,3.61,-3.61,-3.23,-2.48,-1.58,-1.59,-1.59
173.29,1.92,3.53,1.93,3.54,-3.53,-3.16,-2.38,-1.61,-1.61,-1.61
175.02,1.83,3.47,1.83,3.46,-3.46,-3.10,-2.28,-1.63,-1.63,-1.64
176.77,1.72,3.39,1.72,3.39,-3.38,-3.03,-2.18,-1.66,-1.66,-1.67
178.54,1.60,3.30,1.61,3.30,-3.29,-2.96,-2.08,-1.69,-1.69,-1.70
180.32,1.49,3.21,1.49,3.21,-3.21,-2.89,-1.98,-1.72,-1.73,-1.72
182.13,1.37,3.12,1.37,3.12,-3.13,-2.82,-1.89,-1.76,-1.76,-1.75
183.95,1.26,3.04,1.27,3.04,-3.06,-2.74,-1.80,-1.79,-1.79,-1.78
185.79,1.17,2.98,1.17,2.97,-2.98,-2.67,-1.71,-1.81,-1.82,-1.80
187.65,1.08,2.92,1.08,2.92,-2.92,-2.59,-1.62,-1.84,-1.84,-1.84
189.52,1.00,2.86,1.00,2.86,-2.87,-2.52,-1.53,-1.87,-1.86,-1.86
191.42,0.94,2.82,0.94,2.82,-2.82,-2.44,-1.45,-1.88,-1.89,-1.88
193.33,0.87,2.77,0.87,2.77,-2.78,-2.36,-1.36,-1.91,-1.91,-1.90
195.27,0.82,2.74,0.82,2.74,-2.74,-2.28,-1.28,-1.92,-1.93,-1.92
197.22,0.76,2.70,0.76,2.71,-2.71,-2.20,-1.20,-1.95,-1.94,-1.94
199.19,0.71,2.69,0.71,2.68,-2.67,-2.12,-1.12,-1.96,-1.96,-1.98
201.18,0.66,2.65,0.65,2.65,-2.63,-2.03,-1.04,-1.97,-1.98,-1.99
203.19,0.59,2.59,0.59,2.60,-2.59,-1.95,-0.96,-2.00,-2.00,-2.00
205.23,0.52,2.54,0.52,2.54,-2.54,-1.86,-0.89,-2.02,-2.02,-2.02
207.28,0.45,2.47,0.45,2.48,-2.48,-1.77,-0.81,-2.03,-2.03,-2.02
209.35,0.37,2.42,0.37,2.42,-2.41,-1.68,-0.74,-2.04,-2.04,-2.05
211.44,0.28,2.35,0.28,2.34,-2.33,-1.59,-0.67,-2.05,-2.05,-2.07
213.56,0.18,2.26,0.18,2.25,-2.24,-1.50,-0.59,-2.06,-2.06,-2.08
215.69,0.06,2.14,0.06,2.14,-2.14,-1.41,-0.52,-2.08,-2.08,-2.07
217.85,-0.07,2.01,-0.06,2.03,-2.02,-1.31,-0.45,-2.09,-2.09,-2.08
220.03,-0.19,1.91,-0.19,1.90,-1.90,-1.22,-0.39,-2.09,-2.09,-2.10
222.23,-0.33,1.78,-0.33,1.77,-1.77,-1.12,-0.32,-2.10,-2.10,-2.11
224.45,-0.47,1.63,-0.47,1.64,-1.63,-1.02,-0.25,-2.10,-2.10,-2.09
226.70,-0.61,1.49,-0.61,1.49,-1.49,-0.92,-0.19,-2.10,-2.10,-2.10
228.96,-0.75,1.35,-0.75,1.34,-1.35,-0.82,-0.13,-2.10,-2.10,-2.10
231.25,-0.89,1.20,-0.89,1.20,-1.21,-0.72,-0.06,-2.10,-2.10,-2.08
233.57,-1.01,1.06,-1.01,1.07,-1.08,-0.62,-0.00,-2.09,-2.09,-2.07
235.90,-1.13,0.94,-1.13,0.94,-0.95,-0.51,0.06,-2.08,-2.08,-2.07
238.26,-1.23,0.83,-1.23,0.82,-0.83,-0.41,0.12,-2.05,-2.06,-2.06
240.64,-1.34,0.70,-1.34,0.70,-0.70,-0.30,0.18,-2.04,-2.04,-2.04
243.05,-1.44,0.58,-1.44,0.58,-0.58,-0.19,0.23,-2.02,-2.02,-2.02
245.48,-1.55,0.45,-1.54,0.46,-0.46,-0.08,0.29,-2.01,-2.00,-2.00
247.93,-1.65,0.33,-1.65,0.34,-0.33,0.03,0.35,-1.98,-1.98,-1.98
250.41,-1.75,0.22,-1.76,0.20,-0.20,0.14,0.40,-1.95,-1.95,-1.97
252.92,-1.87,0.06,-1.87,0.07,-0.06,0.25,0.45,-1.93,-1.93,-1.93
255.45,-2.00,-0.09,-1.99,-0.08,0.09,0.37,0.51,-1.91,-1.91,-1.91
258.00,-2.12,-0.24,-2.12,-0.24,0.24,0.48,0.56,-1.88,-1.88,-1.88
260.58,-2.25,-0.38,-2.25,-0.39,0.39,0.60,0.61,-1.86,-1.86,-1.87
263.19,-2.39,-0.55,-2.39,-0.55,0.55,0.72,0.66,-1.84,-1.84,-1.84
265.82,-2.53,-0.72,-2.53,-0.71,0.71,0.83,0.72,-1.81,-1.81,-1.81
268.48,-2.67,-0.88,-2.67,-0.88,0.88,0.95,0.77,-1.79,-1.79,-1.79
271.16,-2.80,-1.05,-2.80,-1.05,1.04,1.07,0.82,-1.76,-1.76,-1.75
273.87,-2.94,-1.21,-2.94,-1.21,1.21,1.19,0.87,-1.73,-1.73,-1.73
276.61,-3.08,-1.38,-3.08,-1.37,1.37,1.32,0.92,-1.71,-1.71,-1.70
279.38,-3.21,-1.53,-3.21,-1.53,1.53,1.44,0.97,-1.68,-1.68,-1.68
282.17,-3.35,-1.70,-3.35,-1.69,1.69,1.56,1.02,-1.66,-1.65,-1.65
284.99,-3.48,-1.85,-3.48,-1.86,1.86,1.69,1.07,-1.62,-1.63,-1.63
287.84,-3.62,-2.02,-3.62,-2.02,2.02,1.81,1.12,-1.60,-1.60,-1.60
290.72,-3.75,-2.19,-3.75,-2.18,2.18,1.94,1.17,-1.56,-1.57,-1.56
293.63,-3.89,-2.34,-3.89,-2.35,2.35,2.06,1.23,-1.54,-1.54,-1.54
296.57,-4.03,-2.52,-4.03,-2.52,2.53,2.19,1.28,-1.50,-1.50,-1.51
299.53,-4.17,-2.69,-4.17,-2.69,2.70,2.31,1.33,-1.47,-1.47,-1.48
302.53,-4.32,-2.87,-4.32,-2.87,2.88,2.44,1.39,-1.44,-1.44,-1.45
305.55,-4.47,-3.07,-4.47,-3.05,3.05,2.56,1.44,-1.41,-1.41,-1.40
308.61,-4.61,-3.23,-4.61,-3.24,3.23,2.69,1.50,-1.38,-1.38,-1.38
311.69,-4.75,-3.41,-4.75,-3.42,3.41,2.81,1.56,-1.34,-1.34,-1.34
314.81,-4.89,-3.59,-4.89,-3.58,3.59,2.94,1.62,-1.30,-1.30,-1.30
317.96,-5.03,-3.76,-5.03,-3.76,3.76,3.06,1.68,-1.27,-1.27,-1.27
321.14,-5.16,-3.92,-5.16,-3.92,3.92,3.19,1.74,-1.24,-1.24,-1.24
324.35,-5.30,-4.08,-5.29,-4.08,4.08,3.31,1.81,-1.22,-1.21,-1.22
327.59,-5.42,-4.24,-5.42,-4.24,4.23,3.43,1.87,-1.19,-1.19,-1.18
330.87,-5.54,-4.39,-5.54,-4.39,4.38,3.55,1.94,-1.16,-1.16,-1.15
334.18,-5.65,-4.52,-5.65,-4.52,4.52,3.67,2.01,-1.13,-1.12,-1.13
337.52,-5.75,-4.65,-5.75,-4.65,4.66,3.79,2.08,-1.09,-1.09,-1.10
340.90,-5.86,-4.79,-5.86,-4.78,4.79,3.90,2.15,-1.07,-1.07,-1.07
344.30,-5.96,-4.90,-5.96,-4.91,4.91,4.01,2.23,-1.05,-1.05,-1.05
347.75,-6.06,-5.03,-6.06,-5.03,5.03,4.12,2.30,-1.03,-1.03,-1.03
351.23,-6.14,-5.13,-6.15,-5.14,5.14,4.23,2.38,-1.00,-1.01,-1.01
354.74,-6.23,-5.24,-6.23,-5.24,5.23,4.33,2.46,-0.99,-0.99,-0.99
358.28,-6.30,-5.33,-6.29,-5.33,5.32,4.44,2.54,-0.98,-0.97,-0.97
361.87,-6.35,-5.40,-6.35,-5.40,5.39,4.53,2.63,-0.95,-0.96,-0.95
365.49,-6.39,-5.47,-6.39,-5.46,5.45,4.63,2.72,-0.93,-0.94,-0.92
369.14,-6.42,-5.51,-6.41,-5.50,5.50,4.72,2.80,-0.92,-0.91,-0.91
372.83,-6.43,-5.54,-6.43,-5.53,5.54,4.80,2.89,-0.89,-0.89,-0.89
376.56,-6.42,-5.54,-6.43,-5.55,5.56,4.88,2.99,-0.86,-0.87,-0.87
380.33,-6.42,-5.57,-6.42,-5.57,5.57,4.96,3.08,-0.85,-0.85,-0.85
384.13,-6.40,-5.57,-6.40,-5.57,5.57,5.03,3.17,-0.83,-0.83,-0.83
387.97,-6.37,-5.56,-6.37,-5.56,5.56,5.09,3.27,-0.81,-0.81,-0.81
391.85,-6.33,-5.54,-6.33,-5.54,5.54,5.15,3.37,-0.79,-0.79,-0.79
395.77,-6.28,-5.52,-6.28,-5.52,5.52,5.21,3.47,-0.76,-0.76,-0.76
399.73,-6.22,-5.48,-6.22,-5.48,5.48,5.25,3.57,-0.74,-0.74,-0.74
403.72,-6.16,-5.44,-6.16,-5.44,5.44,5.30,3.67,-0.72,-0.72,-0.72
407.76,-6.09,-5.39,-6.09,-5.39,5.39,5.33,3.77,-0.70,-0.70,-0.70
411.84,-6.02,-5.35,-6.01,-5.34,5.34,5.36,3.87,-0.68,-0.68,-0.67
415.96,-5.93,-5.28,-5.93,-5.28,5.28,5.38,3.97,-0.65,-0.65,-0.65
420.12,-5.84,-5.21,-5.84,-5.22,5.21,5.40,4.07,-0.63,-0.63,-0.63
424.32,-5.76,-5.16,-5.75,-5.15,5.14,5.41,4.17,-0.62,-0.61,-0.60
428.56,-5.66,-5.07,-5.66,-5.08,5.07,5.42,4.27,-0.59,-0.59,-0.58
432.85,-5.57,-5.00,-5.57,-5.01,5.00,5.41,4.37,-0.57,-0.56,-0.56
437.18,-5.47,-4.93,-5.47,-4.93,4.94,5.41,4.46,-0.53,-0.53,-0.54
441.55,-5.37,-4.86,-5.37,-4.86,4.88,5.39,4.55,-0.49,-0.49,-0.51
445.96,-5.28,-4.79,-5.29,-4.80,4.82,5.37,4.64,-0.46,-0.47,-0.49
450.42,-5.21,-4.74,-5.21,-4.75,4.77,5.35,4.72,-0.44,-0.45,-0.47
454.93,-5.16,-4.73,-5.15,-4.72,4.72,5.31,4.80,-0.44,-0.43,-0.43
459.48,-5.09,-4.68,-5.09,-4.68,4.68,5.28,4.87,-0.41,-0.41,-0.41
464.07,-5.02,-4.64,-5.02,-4.64,4.63,5.24,4.93,-0.39,-0.39,-0.38
468.71,-4.94,-4.60,-4.94,-4.59,4.59,5.19,4.99,-0.35,-0.35,-0.34
473.40,-4.86,-4.54,-4.86,-4.55,4.54,5.14,5.04,-0.32,-0.32,-0.32
478.13,-4.78,-4.49,-4.78,-4.49,4.49,5.08,5.09,-0.29,-0.29,-0.29
482.91,-4.70,-4.44,-4.69,-4.43,4.43,5.02,5.12,-0.27,-0.26,-0.26
487.74,-4.60,-4.37,-4.60,-4.37,4.37,4.96,5.15,-0.23,-0.23,-0.23
492.62,-4.51,-4.31,-4.51,-4.31,4.31,4.89,5.16,-0.20,-0.20,-0.20
497.55,-4.41,-4.23,-4.41,-4.24,4.24,4.82,5.17,-0.17,-0.17,-0.18
502.52,-4.32,-4.18,-4.32,-4.17,4.18,4.75,5.17,-0.14,-0.14,-0.14
