frequency,raw,smoothed,error,error_smoothed,equalization,parametric_eq,fixed_band_eq,equalized_raw,equalized_smoothed,target
20.00,-9.69,-9.68,-14.68,-14.67,6.00,5.63,2.79,-3.69,-3.68,4.99
20.20,-9.60,-9.60,-14.62,-14.62,6.00,5.65,2.88,-3.60,-3.60,5.02
20.40,-9.50,-9.51,-14.55,-14.56,6.00,5.67,2.96,-3.50,-3.51,5.05
20.61,-9.41,-9.41,-14.48,-14.49,6.00,5.69,3.04,-3.41,-3.41,5.07
20.81,-9.31,-9.32,-14.41,-14.42,6.00,5.71,3.13,-3.31,-3.32,5.10
21.02,-9.22,-9.20,-14.35,-14.32,6.00,5.73,3.22,-3.22,-3.20,5.13
21.23,-9.07,-9.07,-14.21,-14.21,6.00,5.75,3.31,-3.07,-3.07,5.14
21.44,-8.92,-8.93,-14.06,-14.07,6.00,5.77,3.40,-2.92,-2.93,5.15
21.66,-8.77,-8.77,-13.93,-13.92,6.00,5.79,3.50,-2.77,-2.77,5.16
21.87,-8.62,-8.61,-13.77,-13.77,6.00,5.81,3.60,-2.62,-2.61,5.16
22.09,-8.46,-8.46,-13.62,-13.62,6.00,5.83,3.70,-2.46,-2.46,5.17
22.31,-8.30,-8.30,-13.46,-13.47,6.00,5.85,3.81,-2.30,-2.30,5.16
22.54,-8.15,-8.15,-13.32,-13.31,6.00,5.87,3.92,-2.15,-2.15,5.16
22.76,-7.99,-7.99,-13.15,-13.15,6.00,5.89,4.03,-1.99,-1.99,5.16
22.99,-7.83,-7.83,-12.98,-12.99,6.00,5.91,4.14,-1.83,-1.83,5.15
23.22,-7.68,-7.68,-12.83,-12.83,6.00,5.93,4.26,-1.68,-1.68,5.15
23.45,-7.53,-7.53,-12.68,-12.68,6.00,5.95,4.38,-1.53,-1.53,5.15
23.69,-7.38,-7.38,-12.53,-12.53,6.00,5.97,4.50,-1.38,-1.38,5.15
23.92,-7.23,-7.24,-12.38,-12.39,6.00,5.99,4.62,-1.23,-1.24,5.15
24.16,-7.11,-7.11,-12.27,-12.27,6.00,6.00,4.75,-1.11,-1.11,5.16
24.40,-7.01,-7.01,-12.17,-12.16,6.00,6.02,4.88,-1.01,-1.01,5.16
24.65,-6.91,-6.91,-12.06,-12.06,6.00,6.04,5.01,-0.91,-0.91,5.15
24.89,-6.80,-6.80,-11.94,-11.94,6.00,6.06,5.14,-0.80,-0.80,5.15
25.14,-6.68,-6.67,-11.82,-11.82,6.00,6.07,5.27,-0.68,-0.67,5.15
25.39,-6.53,-6.53,-11.67,-11.67,6.00,6.09,5.41,-0.53,-0.53,5.14
25.65,-6.38,-6.38,-11.52,-11.52,6.00,6.11,5.54,-0.38,-0.38,5.14
25.91,-6.23,-6.23,-11.36,-11.37,6.00,6.12,5.68,-0.23,-0.23,5.13
26.16,-6.09,-6.09,-11.22,-11.22,6.00,6.14,5.81,-0.09,-0.09,5.13
26.43,-5.95,-5.95,-11.08,-11.08,6.00,6.15,5.95,0.05,0.05,5.13
26.69,-5.81,-5.81,-10.94,-10.94,6.00,6.16,6.08,0.19,0.19,5.13
26.96,-5.67,-5.67,-10.80,-10.80,6.00,6.17,6.22,0.33,0.33,5.13
27.23,-5.53,-5.53,-10.66,-10.65,6.00,6.18,6.35,0.47,0.47,5.13
27.50,-5.39,-5.38,-10.51,-10.51,6.00,6.19,6.47,0.61,0.62,5.12
27.77,-5.25,-5.25,-10.36,-10.37,6.00,6.20,6.59,0.75,0.75,5.11
28.05,-5.13,-5.14,-10.24,-10.25,6.00,6.21,6.71,0.87,0.86,5.11
28.33,-5.06,-5.06,-10.16,-10.17,6.00,6.22,6.82,0.94,0.94,5.10
28.62,-4.99,-4.99,-10.09,-10.09,6.00,6.22,6.93,1.01,1.01,5.10
28.90,-4.92,-4.90,-10.02,-9.99,6.00,6.22,7.02,1.08,1.10,5.10
29.19,-4.77,-4.76,-9.85,-9.85,6.00,6.23,7.12,1.23,1.24,5.09
29.48,-4.58,-4.58,-9.67,-9.67,6.00,6.23,7.19,1.42,1.42,5.09
29.78,-4.39,-4.39,-9.47,-9.48,6.00,6.23,7.27,1.61,1.61,5.08
30.08,-4.21,-4.22,-9.29,-9.30,6.00,6.22,7.32,1.79,1.78,5.08
30.38,-4.08,-4.08,-9.15,-9.15,6.00,6.22,7.37,1.92,1.92,5.07
30.68,-3.96,-3.95,-9.03,-9.02,6.00,6.21,7.40,2.04,2.05,5.07
30.99,-3.84,-3.85,-8.90,-8.90,6.00,6.21,7.43,2.16,2.15,5.05
31.30,-3.74,-3.75,-8.79,-8.80,6.00,6.20,7.44,2.26,2.25,5.05
31.61,-3.65,-3.65,-8.70,-8.69,6.00,6.19,7.44,2.35,2.35,5.05
31.93,-3.55,-3.54,-8.59,-8.58,6.00,6.17,7.42,2.45,2.46,5.04
32.24,-3.42,-3.42,-8.44,-8.45,6.00,6.16,7.40,2.58,2.58,5.02
32.57,-3.28,-3.29,-8.30,-8.31,6.00,6.14,7.36,2.72,2.71,5.02
32.89,-3.15,-3.14,-8.17,-8.16,6.00,6.12,7.31,2.85,2.86,5.02
33.22,-2.99,-2.98,-8.00,-7.99,6.00,6.10,7.25,3.01,3.02,5.01
33.55,-2.83,-2.82,-7.83,-7.83,6.00,6.08,7.18,3.17,3.18,5.00
33.89,-2.67,-2.69,-7.66,-7.68,6.00,6.06,7.10,3.33,3.31,4.99
34.23,-2.58,-2.60,-7.57,-7.58,6.00,6.03,7.02,3.42,3.40,4.99
34.57,-2.53,-2.53,-7.50,-7.50,6.00,6.00,6.92,3.47,3.47,4.98
34.92,-2.47,-2.44,-7.43,-7.41,6.00,5.97,6.83,3.53,3.56,4.96
35.27,-2.32,-2.31,-7.28,-7.26,6.00,5.94,6.72,3.68,3.69,4.96
35.62,-2.14,-2.15,-7.09,-7.09,6.00,5.91,6.61,3.86,3.85,4.95
35.97,-1.96,-1.99,-6.89,-6.92,6.00,5.87,6.50,4.04,4.01,4.93
36.33,-1.87,-1.87,-6.80,-6.79,6.00,5.83,6.38,4.13,4.13,4.93
36.70,-1.78,-1.77,-6.69,-6.69,6.00,5.79,6.26,4.22,4.23,4.91
37.06,-1.69,-1.68,-6.59,-6.59,6.01,5.75,6.14,4.32,4.32,4.90
37.43,-1.59,-1.58,-6.48,-6.48,6.02,5.71,6.02,4.43,4.43,4.90
37.81,-1.48,-1.49,-6.36,-6.37,6.02,5.66,5.90,4.54,4.53,4.88
38.19,-1.40,-1.41,-6.27,-6.28,6.02,5.62,5.78,4.62,4.61,4.87
38.57,-1.33,-1.33,-6.19,-6.19,6.00,5.57,5.66,4.67,4.68,4.86
38.95,-1.26,-1.25,-6.11,-6.09,5.98,5.52,5.54,4.72,4.73,4.85
39.34,-1.16,-1.16,-5.99,-5.99,5.93,5.47,5.43,4.77,4.77,4.83
39.74,-1.06,-1.07,-5.88,-5.88,5.86,5.41,5.31,4.80,4.80,4.82
40.14,-0.97,-0.98,-5.78,-5.79,5.77,5.36,5.20,4.80,4.80,4.81
40.54,-0.89,-0.89,-5.69,-5.69,5.67,5.30,5.09,4.78,4.78,4.80
40.94,-0.81,-0.78,-5.60,-5.57,5.56,5.24,4.98,4.76,4.78,4.79
41.35,-0.66,-0.65,-5.43,-5.42,5.45,5.19,4.87,4.79,4.80,4.77
41.76,-0.49,-0.51,-5.26,-5.28,5.33,5.13,4.77,4.85,4.82,4.77
42.18,-0.39,-0.41,-5.15,-5.17,5.22,5.07,4.67,4.83,4.80,4.76
42.60,-0.36,-0.35,-5.10,-5.10,5.11,5.00,4.58,4.75,4.76,4.74
43.03,-0.33,-0.30,-5.07,-5.04,5.00,4.94,4.48,4.67,4.70,4.74
43.46,-0.23,-0.23,-4.95,-4.95,4.90,4.88,4.39,4.67,4.67,4.72
43.90,-0.13,-0.14,-4.82,-4.83,4.81,4.81,4.31,4.68,4.67,4.69
44.33,-0.04,-0.03,-4.71,-4.71,4.72,4.74,4.22,4.68,4.69,4.68
44.78,0.06,0.05,-4.60,-4.60,4.63,4.68,4.14,4.69,4.69,4.66
45.23,0.13,0.12,-4.51,-4.52,4.55,4.61,4.07,4.68,4.66,4.64
45.68,0.16,0.17,-4.46,-4.45,4.47,4.54,3.99,4.63,4.64,4.62
46.13,0.20,0.22,-4.40,-4.39,4.39,4.47,3.92,4.59,4.61,4.60
46.60,0.28,0.27,-4.31,-4.31,4.32,4.40,3.85,4.60,4.59,4.59
47.06,0.34,0.32,-4.23,-4.25,4.25,4.33,3.79,4.59,4.57,4.57
47.53,0.37,0.37,-4.18,-4.19,4.17,4.26,3.72,4.54,4.53,4.55
48.01,0.39,0.41,-4.15,-4.12,4.08,4.19,3.67,4.47,4.49,4.54
48.49,0.48,0.48,-4.03,-4.03,3.99,4.12,3.61,4.47,4.47,4.51
48.97,0.57,0.58,-3.91,-3.90,3.90,4.05,3.55,4.47,4.48,4.48
49.46,0.68,0.69,-3.77,-3.76,3.81,3.98,3.50,4.49,4.49,4.45
49.96,0.79,0.76,-3.63,-3.67,3.72,3.91,3.45,4.51,4.47,4.42
50.46,0.80,0.80,-3.60,-3.60,3.63,3.83,3.41,4.43,4.43,4.41
50.96,0.80,0.82,-3.58,-3.55,3.55,3.76,3.36,4.35,4.38,4.38
51.47,0.85,0.85,-3.50,-3.51,3.48,3.69,3.32,4.33,4.33,4.35
51.99,0.90,0.90,-3.43,-3.43,3.41,3.62,3.28,4.31,4.32,4.33
52.51,0.96,0.96,-3.35,-3.35,3.35,3.55,3.24,4.31,4.31,4.31
53.03,1.02,0.99,-3.27,-3.30,3.28,3.48,3.21,4.30,4.27,4.29
53.56,1.02,1.03,-3.24,-3.24,3.21,3.41,3.17,4.23,4.23,4.26
54.10,1.04,1.09,-3.20,-3.15,3.13,3.35,3.14,4.17,4.22,4.24
54.64,1.17,1.15,-3.04,-3.06,3.06,3.28,3.10,4.23,4.21,4.21
55.18,1.25,1.22,-2.93,-2.97,3.00,3.21,3.07,4.25,4.22,4.18
55.74,1.25,1.26,-2.91,-2.90,2.94,3.15,3.04,4.19,4.20,4.16
56.29,1.25,1.26,-2.89,-2.88,2.90,3.08,3.01,4.15,4.15,4.14
56.86,1.25,1.25,-2.86,-2.86,2.86,3.02,2.98,4.11,4.11,4.11
57.42,1.25,1.25,-2.83,-2.84,2.83,2.96,2.95,4.08,4.08,4.08
58.00,1.25,1.25,-2.81,-2.81,2.80,2.90,2.93,4.05,4.05,4.06
58.58,1.25,1.25,-2.79,-2.79,2.79,2.84,2.90,4.04,4.04,4.04
59.16,1.25,1.25,-2.77,-2.77,2.77,2.78,2.87,4.02,4.02,4.02
59.76,1.25,1.25,-2.75,-2.75,2.74,2.73,2.84,4.00,4.00,4.00
60.35,1.25,1.25,-2.72,-2.72,2.72,2.68,2.81,3.97,3.97,3.97
60.96,1.25,1.25,-2.70,-2.69,2.69,2.62,2.78,3.94,3.94,3.95
61.57,1.25,1.25,-2.66,-2.66,2.66,2.57,2.75,3.91,3.91,3.91
62.18,1.25,1.25,-2.62,-2.62,2.63,2.53,2.73,3.88,3.88,3.87
62.80,1.25,1.25,-2.60,-2.59,2.60,2.48,2.70,3.85,3.85,3.85
63.43,1.25,1.25,-2.56,-2.56,2.57,2.44,2.66,3.82,3.82,3.81
64.07,1.25,1.25,-2.54,-2.54,2.54,2.40,2.63,3.79,3.79,3.79
64.71,1.25,1.25,-2.51,-2.51,2.51,2.36,2.60,3.76,3.76,3.76
65.35,1.25,1.25,-2.48,-2.48,2.48,2.32,2.57,3.73,3.73,3.73
66.01,1.25,1.25,-2.45,-2.45,2.45,2.29,2.54,3.70,3.70,3.70
66.67,1.25,1.25,-2.42,-2.42,2.42,2.25,2.50,3.67,3.67,3.67
67.33,1.25,1.25,-2.39,-2.39,2.39,2.22,2.47,3.64,3.64,3.65
68.01,1.25,1.25,-2.36,-2.36,2.36,2.19,2.44,3.61,3.61,3.61
68.69,1.25,1.25,-2.33,-2.33,2.33,2.17,2.40,3.58,3.58,3.58
69.37,1.25,1.25,-2.30,-2.30,2.30,2.14,2.37,3.55,3.55,3.55
70.07,1.25,1.25,-2.27,-2.27,2.27,2.12,2.33,3.52,3.52,3.52
70.77,1.25,1.25,-2.24,-2.24,2.24,2.10,2.30,3.49,3.49,3.49
71.48,1.25,1.25,-2.21,-2.21,2.21,2.08,2.27,3.46,3.46,3.46
72.19,1.25,1.25,-2.17,-2.17,2.17,2.06,2.23,3.42,3.42,3.43
72.91,1.25,1.25,-2.14,-2.14,2.14,2.05,2.20,3.39,3.39,3.39
73.64,1.25,1.25,-2.10,-2.10,2.10,2.03,2.17,3.35,3.35,3.35
74.38,1.25,1.25,-2.07,-2.07,2.06,2.02,2.13,3.31,3.31,3.32
75.12,1.25,1.25,-2.04,-2.04,2.02,2.01,2.10,3.27,3.27,3.29
75.87,1.25,1.25,-2.01,-2.01,1.99,2.00,2.07,3.25,3.25,3.26
76.63,1.25,1.25,-1.98,-1.97,1.98,1.99,2.04,3.23,3.23,3.23
77.40,1.25,1.27,-1.95,-1.93,1.97,1.98,2.01,3.22,3.24,3.20
78.17,1.25,1.25,-1.90,-1.91,1.97,1.97,1.98,3.22,3.21,3.15
78.95,1.25,1.19,-1.88,-1.94,1.97,1.97,1.96,3.22,3.16,3.13
79.74,1.08,1.12,-2.02,-1.98,1.97,1.96,1.93,3.05,3.09,3.10
80.54,1.02,1.05,-2.04,-2.02,1.97,1.96,1.90,2.99,3.02,3.06
81.35,1.02,1.01,-2.01,-2.02,1.97,1.95,1.88,2.99,2.97,3.03
82.16,1.02,1.01,-1.97,-1.98,1.95,1.95,1.85,2.97,2.97,2.99
82.98,1.02,1.02,-1.95,-1.94,1.93,1.94,1.83,2.95,2.95,2.97
83.81,1.02,1.02,-1.90,-1.90,1.91,1.94,1.81,2.93,2.93,2.92
84.65,1.02,1.02,-1.86,-1.87,1.88,1.94,1.79,2.90,2.90,2.88
85.50,1.02,1.02,-1.83,-1.82,1.85,1.93,1.77,2.87,2.88,2.85
86.35,1.02,1.03,-1.79,-1.78,1.83,1.93,1.75,2.85,2.86,2.81
87.22,1.01,0.99,-1.76,-1.79,1.82,1.93,1.74,2.83,2.81,2.77
88.09,0.96,0.93,-1.77,-1.81,1.80,1.92,1.72,2.76,2.73,2.73
88.97,0.81,0.86,-1.89,-1.84,1.80,1.92,1.71,2.61,2.66,2.70
89.86,0.80,0.81,-1.86,-1.85,1.80,1.92,1.69,2.60,2.61,2.66
90.76,0.80,0.80,-1.81,-1.82,1.81,1.91,1.68,2.61,2.60,2.61
91.66,0.80,0.81,-1.78,-1.77,1.81,1.91,1.67,2.61,2.62,2.58
92.58,0.80,0.76,-1.72,-1.77,1.81,1.90,1.66,2.61,2.57,2.52
93.51,0.70,0.70,-1.79,-1.79,1.80,1.90,1.65,2.50,2.49,2.49
94.44,0.59,0.63,-1.86,-1.82,1.78,1.89,1.65,2.37,2.41,2.45
95.39,0.57,0.57,-1.83,-1.83,1.77,1.89,1.64,2.34,2.34,2.40
96.34,0.57,0.57,-1.78,-1.78,1.77,1.88,1.63,2.34,2.34,2.35
97.30,0.57,0.58,-1.73,-1.72,1.77,1.88,1.63,2.34,2.35,2.30
98.28,0.57,0.54,-1.69,-1.71,1.76,1.87,1.63,2.33,2.31,2.26
99.26,0.51,0.48,-1.70,-1.73,1.75,1.87,1.62,2.26,2.22,2.21
100.25,0.35,0.40,-1.81,-1.76,1.73,1.86,1.62,2.08,2.13,2.16
101.25,0.34,0.35,-1.78,-1.77,1.72,1.85,1.62,2.06,2.06,2.12
102.27,0.34,0.33,-1.73,-1.74,1.71,1.84,1.62,2.05,2.05,2.07
103.29,0.34,0.35,-1.68,-1.67,1.72,1.84,1.62,2.06,2.07,2.02
104.32,0.34,0.32,-1.64,-1.66,1.72,1.83,1.62,2.06,2.03,1.98
105.37,0.28,0.26,-1.65,-1.68,1.70,1.82,1.63,1.98,1.96,1.93
106.42,0.15,0.18,-1.74,-1.70,1.68,1.81,1.63,1.83,1.86,1.89
107.48,0.11,0.12,-1.73,-1.71,1.66,1.80,1.63,1.77,1.78,1.84
108.56,0.11,0.10,-1.67,-1.69,1.64,1.79,1.63,1.75,1.74,1.78
109.64,0.11,0.11,-1.63,-1.63,1.63,1.78,1.64,1.74,1.73,1.74
110.74,0.11,0.13,-1.58,-1.56,1.61,1.77,1.64,1.72,1.74,1.69
111.85,0.11,0.09,-1.54,-1.55,1.59,1.77,1.65,1.70,1.69,1.65
112.97,0.09,0.03,-1.49,-1.56,1.58,1.76,1.65,1.67,1.61,1.58
114.10,-0.11,-0.04,-1.65,-1.57,1.56,1.75,1.66,1.45,1.52,1.54
115.24,-0.11,-0.09,-1.59,-1.57,1.55,1.74,1.66,1.45,1.47,1.48
116.39,-0.11,-0.14,-1.54,-1.57,1.55,1.73,1.66,1.44,1.42,1.43
117.55,-0.13,-0.18,-1.50,-1.55,1.56,1.72,1.67,1.43,1.38,1.37
118.73,-0.29,-0.25,-1.61,-1.57,1.57,1.71,1.67,1.28,1.32,1.32
119.92,-0.34,-0.31,-1.62,-1.58,1.57,1.70,1.68,1.23,1.26,1.28
121.12,-0.34,-0.35,-1.56,-1.57,1.57,1.69,1.68,1.23,1.22,1.22
122.33,-0.34,-0.38,-1.51,-1.56,1.57,1.68,1.68,1.23,1.19,1.17
123.55,-0.44,-0.45,-1.57,-1.57,1.58,1.68,1.69,1.14,1.13,1.13
124.79,-0.56,-0.51,-1.64,-1.59,1.58,1.67,1.69,1.03,1.07,1.08
126.03,-0.57,-0.56,-1.60,-1.59,1.59,1.66,1.69,1.02,1.03,1.03
127.29,-0.57,-0.60,-1.55,-1.58,1.59,1.65,1.69,1.02,0.98,0.98
128.57,-0.62,-0.66,-1.54,-1.58,1.58,1.65,1.69,0.96,0.92,0.92
129.85,-0.78,-0.73,-1.65,-1.60,1.58,1.64,1.69,0.80,0.85,0.87
131.15,-0.80,-0.79,-1.62,-1.61,1.58,1.63,1.70,0.78,0.79,0.82
132.46,-0.80,-0.81,-1.57,-1.59,1.57,1.63,1.70,0.77,0.76,0.77
133.79,-0.80,-0.79,-1.54,-1.52,1.56,1.62,1.70,0.76,0.77,0.74
135.12,-0.81,-0.83,-1.49,-1.52,1.55,1.62,1.70,0.74,0.73,0.68
136.48,-0.86,-0.89,-1.51,-1.54,1.55,1.61,1.70,0.69,0.65,0.65
137.84,-1.01,-0.96,-1.61,-1.56,1.54,1.61,1.70,0.53,0.57,0.60
139.22,-1.03,-1.02,-1.58,-1.57,1.54,1.60,1.70,0.51,0.52,0.55
140.61,-1.03,-1.03,-1.54,-1.54,1.54,1.60,1.70,0.51,0.51,0.51
142.02,-1.03,-1.04,-1.51,-1.52,1.54,1.60,1.70,0.51,0.50,0.48
143.44,-1.04,-1.09,-1.48,-1.53,1.56,1.60,1.70,0.52,0.46,0.44
144.87,-1.21,-1.16,-1.61,-1.57,1.56,1.60,1.70,0.35,0.40,0.40
146.32,-1.24,-1.22,-1.60,-1.58,1.57,1.60,1.70,0.33,0.36,0.36
147.78,-1.25,-1.26,-1.58,-1.59,1.58,1.60,1.70,0.33,0.32,0.33
149.26,-1.25,-1.29,-1.55,-1.58,1.59,1.60,1.71,0.34,0.30,0.30
150.75,-1.36,-1.36,-1.61,-1.61,1.60,1.60,1.71,0.24,0.25,0.25
152.26,-1.45,-1.42,-1.66,-1.64,1.62,1.60,1.71,0.17,0.19,0.21
153.78,-1.48,-1.46,-1.66,-1.64,1.63,1.60,1.72,0.15,0.16,0.18
155.32,-1.48,-1.49,-1.61,-1.63,1.64,1.61,1.72,0.16,0.15,0.13
156.88,-1.50,-1.55,-1.60,-1.64,1.66,1.61,1.73,0.16,0.12,0.10
158.44,-1.65,-1.61,-1.71,-1.66,1.69,1.62,1.74,0.04,0.08,0.06
160.03,-1.71,-1.68,-1.72,-1.70,1.71,1.62,1.75,-0.00,0.03,0.01
161.63,-1.71,-1.77,-1.68,-1.74,1.73,1.63,1.76,0.02,-0.05,-0.03
163.24,-1.85,-1.84,-1.78,-1.77,1.74,1.64,1.77,-0.11,-0.09,-0.07
164.88,-1.94,-1.90,-1.84,-1.80,1.77,1.64,1.78,-0.17,-0.13,-0.10
166.53,-1.94,-1.94,-1.80,-1.80,1.79,1.65,1.79,-0.15,-0.15,-0.14
168.19,-1.94,-1.97,-1.76,-1.79,1.81,1.66,1.81,-0.13,-0.15,-0.18
169.87,-1.99,-2.02,-1.78,-1.81,1.84,1.67,1.83,-0.15,-0.18,-0.21
171.57,-2.13,-2.08,-1.88,-1.83,1.86,1.68,1.84,-0.27,-0.22,-0.25
173.29,-2.17,-2.16,-1.88,-1.87,1.87,1.69,1.86,-0.30,-0.29,-0.29
175.02,-2.17,-2.25,-1.85,-1.92,1.89,1.70,1.88,-0.28,-0.36,-0.32
176.77,-2.36,-2.31,-1.99,-1.94,1.91,1.72,1.90,-0.45,-0.40,-0.37
178.54,-2.39,-2.36,-1.98,-1.96,1.93,1.73,1.93,-0.46,-0.43,-0.41
180.32,-2.39,-2.40,-1.95,-1.95,1.95,1.74,1.95,-0.44,-0.44,-0.44
182.13,-2.39,-2.43,-1.91,-1.95,1.98,1.76,1.97,-0.41,-0.45,-0.48
183.95,-2.48,-2.48,-1.96,-1.96,2.01,1.77,2.00,-0.47,-0.47,-0.52
185.79,-2.61,-2.57,-2.06,-2.02,2.04,1.79,2.03,-0.57,-0.53,-0.55
187.65,-2.62,-2.68,-2.03,-2.09,2.07,1.80,2.06,-0.55,-0.61,-0.59
189.52,-2.80,-2.76,-2.18,-2.14,2.11,1.82,2.09,-0.69,-0.65,-0.62
191.42,-2.85,-2.82,-2.20,-2.17,2.16,1.84,2.12,-0.69,-0.67,-0.65
193.33,-2.85,-2.90,-2.17,-2.22,2.21,1.86,2.15,-0.64,-0.69,-0.68
195.27,-2.95,-2.94,-2.24,-2.23,2.26,1.88,2.19,-0.69,-0.68,-0.71
197.22,-3.05,-3.02,-2.31,-2.28,2.31,1.90,2.22,-0.74,-0.72,-0.74
199.19,-3.09,-3.13,-2.32,-2.36,2.35,1.92,2.26,-0.74,-0.78,-0.77
201.18,-3.22,-3.21,-2.43,-2.42,2.40,1.94,2.30,-0.82,-0.81,-0.79
203.19,-3.31,-3.27,-2.50,-2.46,2.45,1.96,2.33,-0.86,-0.82,-0.81
205.23,-3.31,-3.35,-2.48,-2.52,2.51,1.99,2.37,-0.80,-0.83,-0.83
207.28,-3.39,-3.39,-2.55,-2.55,2.57,2.01,2.41,-0.82,-0.82,-0.84
209.35,-3.50,-3.47,-2.64,-2.61,2.64,2.03,2.45,-0.86,-0.83,-0.86
211.44,-3.53,-3.58,-2.65,-2.70,2.70,2.06,2.49,-0.83,-0.88,-0.88
213.56,-3.69,-3.66,-2.80,-2.77,2.76,2.08,2.53,-0.93,-0.90,-0.89
215.69,-3.76,-3.73,-2.87,-2.83,2.83,2.11,2.58,-0.93,-0.89,-0.89
217.85,-3.76,-3.80,-2.86,-2.90,2.90,2.14,2.62,-0.86,-0.90,-0.90
220.03,-3.85,-3.86,-2.93,-2.95,2.96,2.17,2.66,-0.89,-0.90,-0.92
222.23,-3.95,-3.93,-3.02,-3.00,3.01,2.20,2.70,-0.94,-0.92,-0.93
224.45,-3.99,-3.98,-3.07,-3.06,3.04,2.22,2.74,-0.95,-0.94,-0.92
226.70,-3.99,-4.00,-3.07,-3.08,3.06,2.25,2.78,-0.93,-0.94,-0.92
228.96,-3.99,-4.01,-3.07,-3.09,3.06,2.29,2.82,-0.93,-0.95,-0.92
231.25,-3.99,-3.97,-3.08,-3.06,3.04,2.32,2.86,-0.95,-0.93,-0.91
233.57,-3.96,-3.91,-3.05,-2.99,2.99,2.35,2.90,-0.97,-0.91,-0.91
235.90,-3.77,-3.85,-2.86,-2.93,2.92,2.38,2.94,-0.84,-0.92,-0.91
238.26,-3.76,-3.78,-2.85,-2.87,2.84,2.42,2.97,-0.92,-0.94,-0.91
240.64,-3.76,-3.68,-2.86,-2.78,2.75,2.45,3.01,-1.01,-0.93,-0.90
243.05,-3.60,-3.57,-2.71,-2.68,2.67,2.49,3.04,-0.93,-0.90,-0.89
245.48,-3.37,-3.43,-2.49,-2.55,2.59,2.52,3.08,-0.78,-0.84,-0.88
247.93,-3.31,-3.33,-2.44,-2.46,2.53,2.56,3.11,-0.78,-0.80,-0.87
250.41,-3.31,-3.29,-2.45,-2.43,2.48,2.60,3.14,-0.83,-0.81,-0.86
252.92,-3.31,-3.30,-2.47,-2.46,2.46,2.64,3.17,-0.85,-0.84,-0.84
255.45,-3.31,-3.31,-2.49,-2.48,2.47,2.68,3.19,-0.84,-0.84,-0.82
258.00,-3.31,-3.29,-2.50,-2.49,2.50,2.72,3.22,-0.81,-0.80,-0.81
260.58,-3.31,-3.32,-2.52,-2.53,2.55,2.76,3.25,-0.76,-0.78,-0.79
263.19,-3.32,-3.38,-2.55,-2.61,2.61,2.81,3.27,-0.71,-0.77,-0.77
265.82,-3.51,-3.45,-2.75,-2.70,2.68,2.85,3.30,-0.83,-0.78,-0.76
268.48,-3.53,-3.50,-2.80,-2.77,2.75,2.90,3.32,-0.78,-0.76,-0.73
271.16,-3.53,-3.55,-2.82,-2.84,2.82,2.94,3.34,-0.71,-0.73,-0.71
273.87,-3.53,-3.58,-2.84,-2.89,2.90,2.99,3.36,-0.63,-0.68,-0.69
276.61,-3.67,-3.65,-3.00,-2.97,3.00,3.04,3.39,-0.67,-0.65,-0.67
279.38,-3.75,-3.71,-3.10,-3.05,3.08,3.09,3.41,-0.67,-0.63,-0.65
282.17,-3.76,-3.79,-3.12,-3.15,3.16,3.14,3.43,-0.60,-0.63,-0.64
284.99,-3.81,-3.86,-3.20,-3.24,3.22,3.20,3.45,-0.59,-0.63,-0.61
287.84,-3.98,-3.93,-3.38,-3.33,3.29,3.25,3.48,-0.69,-0.64,-0.60
290.72,-3.99,-3.98,-3.42,-3.41,3.35,3.31,3.50,-0.64,-0.63,-0.57
293.63,-3.99,-4.00,-3.43,-3.45,3.41,3.37,3.53,-0.57,-0.59,-0.56
296.57,-3.99,-3.97,-3.46,-3.44,3.47,3.43,3.56,-0.52,-0.50,-0.53
299.53,-3.99,-4.00,-3.47,-3.48,3.53,3.50,3.58,-0.46,-0.47,-0.52
302.53,-4.00,-4.06,-3.50,-3.57,3.60,3.56,3.61,-0.40,-0.46,-0.50
305.55,-4.19,-4.12,-3.73,-3.65,3.67,3.63,3.65,-0.52,-0.45,-0.46
308.61,-4.22,-4.20,-3.77,-3.76,3.76,3.70,3.68,-0.46,-0.44,-0.45
311.69,-4.22,-4.29,-3.80,-3.87,3.85,3.77,3.72,-0.37,-0.44,-0.42
314.81,-4.36,-4.33,-3.98,-3.94,3.95,3.85,3.76,-0.41,-0.38,-0.38
317.96,-4.44,-4.42,-4.07,-4.05,4.05,3.93,3.80,-0.39,-0.37,-0.37
321.14,-4.46,-4.52,-4.11,-4.17,4.14,4.01,3.84,-0.32,-0.38,-0.35
324.35,-4.62,-4.59,-4.29,-4.26,4.23,4.09,3.89,-0.39,-0.36,-0.33
327.59,-4.67,-4.63,-4.36,-4.32,4.31,4.18,3.94,-0.36,-0.32,-0.31
330.87,-4.67,-4.68,-4.38,-4.39,4.39,4.27,3.99,-0.28,-0.29,-0.29
334.18,-4.67,-4.72,-4.40,-4.45,4.47,4.36,4.05,-0.20,-0.25,-0.27
337.52,-4.80,-4.78,-4.54,-4.53,4.56,4.45,4.10,-0.24,-0.22,-0.25
340.90,-4.88,-4.84,-4.65,-4.61,4.63,4.55,4.17,-0.25,-0.21,-0.23
344.30,-4.90,-4.92,-4.69,-4.71,4.70,4.64,4.23,-0.19,-0.22,-0.21
347.75,-4.96,-4.99,-4.77,-4.80,4.78,4.73,4.30,-0.18,-0.21,-0.19
351.23,-5.09,-5.06,-4.92,-4.88,4.86,4.83,4.37,-0.23,-0.20,-0.17
354.74,-5.13,-5.10,-4.97,-4.94,4.94,4.91,4.45,-0.19,-0.16,-0.16
358.28,-5.13,-5.14,-4.99,-5.00,5.01,5.00,4.52,-0.12,-0.13,-0.14
361.87,-5.13,-5.19,-5.01,-5.06,5.08,5.08,4.61,-0.05,-0.11,-0.12
365.49,-5.29,-5.26,-5.18,-5.14,5.14,5.15,4.69,-0.15,-0.11,-0.11
369.14,-5.35,-5.32,-5.25,-5.21,5.20,5.22,4.78,-0.15,-0.11,-0.10
372.83,-5.36,-5.36,-5.27,-5.27,5.27,5.28,4.87,-0.09,-0.09,-0.09
376.56,-5.36,-5.40,-5.28,-5.33,5.34,5.33,4.97,-0.02,-0.06,-0.08
380.33,-5.45,-5.46,-5.40,-5.40,5.41,5.37,5.06,-0.04,-0.05,-0.05
384.13,-5.56,-5.51,-5.52,-5.47,5.48,5.41,5.16,-0.08,-0.03,-0.04
387.97,-5.58,-5.58,-5.55,-5.55,5.55,5.44,5.27,-0.03,-0.03,-0.03
391.85,-5.59,-5.65,-5.57,-5.63,5.63,5.46,5.37,0.04,-0.02,-0.02
395.77,-5.75,-5.72,-5.74,-5.71,5.70,5.49,5.48,-0.05,-0.01,-0.01
399.73,-5.81,-5.77,-5.81,-5.77,5.78,5.51,5.59,-0.03,0.01,0.00
403.72,-5.81,-5.82,-5.82,-5.83,5.84,5.52,5.71,0.03,0.02,0.01
407.76,-5.81,-5.86,-5.83,-5.89,5.89,5.54,5.82,0.08,0.03,0.02
411.84,-5.95,-5.93,-5.99,-5.96,5.94,5.56,5.94,-0.01,0.01,0.04
415.96,-6.03,-5.99,-6.08,-6.03,5.97,5.58,6.05,-0.06,-0.02,0.05
420.12,-6.04,-6.05,-6.10,-6.11,5.99,5.60,6.17,-0.05,-0.06,0.06
424.32,-6.06,-6.10,-6.12,-6.17,6.00,5.62,6.28,-0.06,-0.10,0.07
428.56,-6.21,-6.17,-6.28,-6.25,6.01,5.64,6.40,-0.20,-0.16,0.07
432.85,-6.27,-6.28,-6.35,-6.36,6.01,5.67,6.51,-0.26,-0.27,0.08
437.18,-6.37,-6.38,-6.46,-6.48,6.01,5.70,6.62,-0.36,-0.37,0.09
441.55,-6.47,-6.45,-6.58,-6.55,6.00,5.73,6.73,-0.47,-0.44,0.11
445.96,-6.50,-6.49,-6.62,-6.61,6.00,5.77,6.83,-0.50,-0.49,0.12
450.42,-6.50,-6.50,-6.63,-6.63,6.00,5.80,6.93,-0.50,-0.50,0.13
454.93,-6.50,-6.52,-6.65,-6.67,6.00,5.84,7.02,-0.50,-0.52,0.15
459.48,-6.55,-6.57,-6.71,-6.73,6.00,5.88,7.11,-0.55,-0.57,0.16
464.07,-6.69,-6.65,-6.87,-6.83,6.00,5.92,7.19,-0.69,-0.65,0.18
468.71,-6.72,-6.76,-6.92,-6.95,6.00,5.97,7.26,-0.72,-0.76,0.20
473.40,-6.86,-6.85,-7.06,-7.05,6.00,6.01,7.32,-0.86,-0.85,0.21
478.13,-6.94,-6.90,-7.16,-7.12,6.00,6.06,7.37,-0.94,-0.90,0.22
482.91,-6.95,-6.98,-7.18,-7.22,6.00,6.11,7.41,-0.95,-0.98,0.23
487.74,-7.01,-7.03,-7.26,-7.28,6.00,6.15,7.43,-1.01,-1.03,0.25
492.62,-7.14,-7.11,-7.41,-7.37,6.00,6.20,7.45,-1.14,-1.11,0.27
497.55,-7.18,-7.21,-7.46,-7.50,6.00,6.25,7.45,-1.18,-1.21,0.28
