frequency,raw,error,smoothed,error_smoothed,equalization,parametric_eq,fixed_band_eq,equalized_raw,equalized_smoothed,target
20.00,15.34,2.94,15.34,2.94,-2.94,-3.70,-1.81,12.39,12.39,12.39
20.20,15.38,2.99,15.38,2.99,-2.99,-3.71,-1.86,12.38,12.38,12.38
20.40,15.42,3.04,15.41,3.04,-3.04,-3.72,-1.92,12.37,12.37,12.37
20.61,15.46,3.09,15.45,3.09,-3.09,-3.74,-1.97,12.36,12.36,12.36
20.81,15.49,3.14,15.49,3.15,-3.14,-3.75,-2.03,12.34,12.35,12.34
21.02,15.53,3.19,15.53,3.19,-3.19,-3.76,-2.08,12.34,12.34,12.33
21.23,15.57,3.24,15.57,3.24,-3.24,-3.78,-2.14,12.33,12.33,12.32
21.44,15.61,3.28,15.61,3.28,-3.29,-3.79,-2.20,12.32,12.32,12.33
21.66,15.65,3.33,15.65,3.33,-3.33,-3.80,-2.26,12.31,12.31,12.31
21.87,15.69,3.38,15.69,3.38,-3.38,-3.82,-2.33,12.31,12.31,12.31
22.09,15.73,3.44,15.72,3.43,-3.43,-3.83,-2.39,12.30,12.30,12.29
22.31,15.76,3.47,15.76,3.47,-3.47,-3.85,-2.46,12.28,12.29,12.29
22.54,15.80,3.52,15.80,3.52,-3.52,-3.86,-2.53,12.28,12.28,12.28
22.76,15.84,3.56,15.84,3.56,-3.56,-3.88,-2.60,12.27,12.27,12.28
22.99,15.88,3.61,15.88,3.61,-3.61,-3.89,-2.67,12.27,12.27,12.27
23.22,15.92,3.66,15.91,3.65,-3.65,-3.91,-2.75,12.27,12.26,12.26
23.45,15.95,3.68,15.95,3.69,-3.69,-3.93,-2.82,12.26,12.26,12.27
23.69,15.99,3.73,15.99,3.73,-3.73,-3.94,-2.90,12.26,12.26,12.26
23.92,16.03,3.78,16.02,3.77,-3.77,-3.96,-2.98,12.26,12.25,12.25
24.16,16.06,3.80,16.06,3.81,-3.81,-3.97,-3.06,12.25,12.25,12.26
24.40,16.10,3.84,16.10,3.84,-3.85,-3.99,-3.14,12.25,12.25,12.25
24.65,16.14,3.88,16.13,3.88,-3.89,-4.01,-3.23,12.25,12.25,12.25
24.89,16.17,3.91,16.17,3.92,-3.92,-4.03,-3.31,12.24,12.25,12.25
25.14,16.21,3.96,16.21,3.96,-3.96,-4.04,-3.40,12.25,12.25,12.24
25.39,16.25,4.01,16.24,4.00,-4.00,-4.06,-3.48,12.25,12.25,12.24
25.65,16.28,4.04,16.28,4.04,-4.03,-4.08,-3.57,12.24,12.25,12.24
25.91,16.32,4.08,16.31,4.07,-4.07,-4.10,-3.66,12.25,12.24,12.24
26.16,16.35,4.10,16.35,4.10,-4.11,-4.12,-3.74,12.24,12.24,12.25
26.43,16.39,4.14,16.38,4.14,-4.14,-4.13,-3.83,12.25,12.24,12.25
26.69,16.42,4.17,16.42,4.17,-4.17,-4.15,-3.92,12.24,12.24,12.25
26.96,16.45,4.20,16.45,4.21,-4.20,-4.17,-4.00,12.24,12.25,12.25
27.23,16.49,4.24,16.48,4.24,-4.24,-4.19,-4.09,12.25,12.25,12.24
27.50,16.52,4.27,16.52,4.27,-4.27,-4.21,-4.17,12.25,12.25,12.24
27.77,16.55,4.29,16.55,4.30,-4.29,-4.23,-4.25,12.25,12.25,12.25
28.05,16.58,4.33,16.58,4.32,-4.32,-4.25,-4.33,12.25,12.25,12.25
28.33,16.61,4.35,16.61,4.35,-4.35,-4.27,-4.41,12.26,12.26,12.26
28.62,16.64,4.38,16.64,4.38,-4.38,-4.29,-4.48,12.26,12.26,12.26
28.90,16.67,4.40,16.67,4.40,-4.40,-4.31,-4.55,12.26,12.26,12.27
29.19,16.70,4.43,16.69,4.43,-4.43,-4.34,-4.62,12.27,12.26,12.27
29.48,16.72,4.45,16.72,4.45,-4.46,-4.36,-4.68,12.26,12.26,12.26
29.78,16.75,4.48,16.75,4.48,-4.48,-4.38,-4.74,12.26,12.26,12.26
30.08,16.78,4.51,16.77,4.51,-4.51,-4.40,-4.80,12.26,12.26,12.26
30.38,16.80,4.55,16.80,4.54,-4.54,-4.42,-4.85,12.26,12.26,12.25
30.68,16.82,4.57,16.82,4.57,-4.57,-4.45,-4.90,12.25,12.25,12.25
30.99,16.84,4.59,16.84,4.59,-4.59,-4.47,-4.94,12.24,12.24,12.25
31.30,16.86,4.61,16.86,4.61,-4.62,-4.49,-4.97,12.24,12.24,12.24
31.61,16.88,4.63,16.88,4.64,-4.64,-4.52,-5.00,12.24,12.23,12.24
31.93,16.90,4.68,16.89,4.66,-4.66,-4.54,-5.03,12.23,12.23,12.22
32.24,16.91,4.68,16.91,4.69,-4.69,-4.56,-5.05,12.22,12.22,12.23
32.57,16.93,4.71,16.93,4.71,-4.71,-4.59,-5.07,12.22,12.22,12.22
32.89,16.95,4.73,16.95,4.73,-4.73,-4.61,-5.08,12.21,12.21,12.21
33.22,16.97,4.76,16.96,4.75,-4.75,-4.64,-5.09,12.21,12.21,12.21
33.55,16.98,4.77,16.98,4.77,-4.77,-4.66,-5.10,12.20,12.20,12.21
33.89,16.99,4.79,16.99,4.79,-4.79,-4.69,-5.10,12.20,12.20,12.20
34.23,17.00,4.81,17.00,4.81,-4.81,-4.71,-5.10,12.19,12.19,12.18
34.57,17.01,4.83,17.01,4.83,-4.82,-4.74,-5.10,12.19,12.19,12.18
34.92,17.02,4.85,17.02,4.84,-4.84,-4.76,-5.09,12.18,12.18,12.17
35.27,17.03,4.84,17.02,4.85,-4.85,-4.79,-5.08,12.17,12.17,12.18
35.62,17.03,4.86,17.03,4.86,-4.87,-4.81,-5.08,12.16,12.16,12.16
35.97,17.04,4.88,17.04,4.88,-4.89,-4.84,-5.07,12.15,12.15,12.16
36.33,17.05,4.90,17.05,4.91,-4.91,-4.87,-5.06,12.14,12.14,12.14
36.70,17.06,4.93,17.06,4.93,-4.93,-4.89,-5.05,12.13,12.13,12.12
37.06,17.07,4.96,17.07,4.96,-4.95,-4.92,-5.04,12.11,12.11,12.11
37.43,17.08,4.98,17.08,4.98,-4.98,-4.95,-5.03,12.10,12.10,12.09
37.81,17.09,5.01,17.09,5.01,-5.01,-4.98,-5.03,12.08,12.08,12.08
38.19,17.10,5.04,17.10,5.04,-5.04,-5.00,-5.02,12.06,12.06,12.06
38.57,17.11,5.06,17.11,5.06,-5.07,-5.03,-5.02,12.04,12.04,12.04
38.95,17.12,5.09,17.12,5.10,-5.10,-5.06,-5.02,12.01,12.02,12.03
39.34,17.14,5.13,17.14,5.13,-5.14,-5.09,-5.02,12.00,12.00,12.00
39.74,17.16,5.18,17.15,5.17,-5.17,-5.12,-5.02,11.99,11.98,11.98
40.14,17.18,5.21,17.17,5.21,-5.21,-5.15,-5.03,11.97,11.97,11.96
40.54,17.19,5.24,17.19,5.25,-5.24,-5.17,-5.04,11.94,11.95,11.95
40.94,17.21,5.28,17.20,5.28,-5.28,-5.20,-5.05,11.93,11.93,11.92
41.35,17.22,5.31,17.22,5.31,-5.31,-5.23,-5.07,11.90,11.90,11.91
41.76,17.23,5.35,17.23,5.34,-5.35,-5.26,-5.09,11.88,11.88,11.88
42.18,17.25,5.37,17.24,5.37,-5.38,-5.29,-5.11,11.87,11.87,11.87
42.60,17.26,5.41,17.26,5.41,-5.41,-5.32,-5.14,11.85,11.85,11.85
43.03,17.28,5.44,17.27,5.44,-5.44,-5.35,-5.17,11.83,11.83,11.83
43.46,17.29,5.48,17.29,5.48,-5.47,-5.38,-5.21,11.81,11.81,11.80
43.90,17.30,5.51,17.30,5.51,-5.51,-5.41,-5.25,11.79,11.79,11.79
44.33,17.31,5.55,17.31,5.54,-5.54,-5.44,-5.29,11.77,11.77,11.76
44.78,17.32,5.57,17.32,5.57,-5.58,-5.47,-5.33,11.74,11.74,11.74
45.23,17.33,5.60,17.33,5.61,-5.61,-5.50,-5.38,11.71,11.71,11.72
45.68,17.34,5.65,17.34,5.65,-5.65,-5.53,-5.44,11.68,11.69,11.69
46.13,17.36,5.70,17.35,5.69,-5.70,-5.56,-5.50,11.66,11.66,11.66
46.60,17.37,5.74,17.37,5.74,-5.74,-5.60,-5.56,11.63,11.63,11.63
47.06,17.39,5.79,17.39,5.79,-5.79,-5.63,-5.63,11.60,11.60,11.60
47.53,17.41,5.84,17.40,5.84,-5.84,-5.66,-5.70,11.57,11.56,11.57
48.01,17.42,5.90,17.42,5.89,-5.89,-5.69,-5.77,11.53,11.53,11.52
48.49,17.43,5.94,17.43,5.94,-5.94,-5.72,-5.85,11.48,11.49,11.49
48.97,17.45,6.00,17.44,5.99,-5.99,-5.75,-5.93,11.45,11.45,11.45
49.46,17.46,6.04,17.46,6.05,-6.05,-5.78,-6.01,11.41,11.41,11.42
49.96,17.48,6.11,17.48,6.10,-6.10,-5.81,-6.09,11.38,11.38,11.37
50.46,17.49,6.14,17.49,6.14,-6.14,-5.84,-6.18,11.34,11.34,11.35
50.96,17.51,6.19,17.50,6.19,-6.19,-5.87,-6.27,11.32,11.31,11.31
51.47,17.51,6.23,17.51,6.23,-6.23,-5.91,-6.37,11.28,11.28,11.28
51.99,17.52,6.28,17.52,6.27,-6.27,-5.94,-6.46,11.25,11.25,11.24
52.51,17.52,6.30,17.52,6.30,-6.30,-5.97,-6.55,11.22,11.22,11.21
53.03,17.52,6.33,17.52,6.33,-6.33,-6.00,-6.65,11.19,11.19,11.19
53.56,17.51,6.35,17.51,6.35,-6.35,-6.03,-6.74,11.15,11.15,11.16
54.10,17.50,6.39,17.49,6.38,-6.38,-6.06,-6.84,11.12,11.12,11.11
54.64,17.48,6.39,17.48,6.40,-6.39,-6.09,-6.93,11.08,11.08,11.08
55.18,17.46,6.41,17.46,6.41,-6.41,-6.12,-7.02,11.04,11.05,11.05
55.74,17.45,6.43,17.44,6.42,-6.43,-6.15,-7.11,11.02,11.02,11.01
56.29,17.43,6.43,17.43,6.44,-6.44,-6.18,-7.20,10.99,10.99,10.99
56.86,17.41,6.44,17.41,6.45,-6.45,-6.21,-7.28,10.96,10.96,10.97
57.42,17.40,6.47,17.39,6.46,-6.46,-6.24,-7.36,10.94,10.94,10.93
58.00,17.38,6.48,17.38,6.47,-6.46,-6.27,-7.43,10.91,10.91,10.90
58.58,17.36,6.48,17.36,6.48,-6.47,-6.30,-7.50,10.88,10.88,10.88
59.16,17.34,6.48,17.34,6.48,-6.49,-6.33,-7.56,10.85,10.85,10.86
59.76,17.32,6.49,17.32,6.49,-6.50,-6.36,-7.61,10.82,10.82,10.83
60.35,17.30,6.51,17.30,6.51,-6.52,-6.39,-7.66,10.78,10.78,10.79
60.96,17.28,6.53,17.27,6.53,-6.53,-6.42,-7.70,10.74,10.74,10.75
61.57,17.26,6.56,17.25,6.56,-6.56,-6.45,-7.73,10.70,10.70,10.69
62.18,17.23,6.58,17.23,6.58,-6.58,-6.47,-7.75,10.65,10.65,10.65
62.80,17.22,6.61,17.21,6.61,-6.61,-6.50,-7.76,10.61,10.61,10.60
63.43,17.20,6.64,17.20,6.63,-6.64,-6.53,-7.76,10.56,10.56,10.56
64.07,17.19,6.66,17.19,6.66,-6.66,-6.56,-7.76,10.52,10.52,10.52
64.71,17.18,6.69,17.18,6.69,-6.69,-6.58,-7.75,10.48,10.49,10.49
65.35,17.18,6.73,17.17,6.72,-6.72,-6.61,-7.73,10.46,10.45,10.45
66.01,17.17,6.75,17.17,6.75,-6.75,-6.64,-7.70,10.42,10.42,10.41
66.67,17.16,6.77,17.16,6.78,-6.78,-6.66,-7.66,10.38,10.38,10.38
67.33,17.15,6.81,17.15,6.81,-6.81,-6.69,-7.62,10.34,10.34,10.33
68.01,17.14,6.83,17.14,6.84,-6.84,-6.71,-7.57,10.30,10.30,10.30
68.69,17.13,6.87,17.13,6.87,-6.87,-6.74,-7.52,10.26,10.26,10.26
69.37,17.13,6.90,17.12,6.90,-6.90,-6.76,-7.47,10.23,10.22,10.23
70.07,17.12,6.93,17.11,6.93,-6.93,-6.78,-7.40,10.19,10.19,10.19
70.77,17.10,6.95,17.10,6.95,-6.95,-6.81,-7.34,10.14,10.15,10.14
71.48,17.09,6.98,17.08,6.98,-6.98,-6.83,-7.28,10.11,10.11,10.11
72.19,17.06,6.99,17.06,7.00,-7.00,-6.85,-7.21,10.06,10.06,10.06
72.91,17.04,7.02,17.03,7.02,-7.01,-6.87,-7.14,10.02,10.02,10.02
73.64,17.01,7.03,17.01,7.03,-7.03,-6.89,-7.07,9.98,9.98,9.98
74.38,16.99,7.05,16.99,7.04,-7.04,-6.91,-7.01,9.95,9.95,9.94
75.12,16.97,7.06,16.96,7.05,-7.05,-6.93,-6.94,9.91,9.91,9.91
75.87,16.94,7.05,16.94,7.06,-7.06,-6.95,-6.88,9.87,9.87,9.88
76.63,16.91,7.07,16.91,7.06,-7.07,-6.97,-6.81,9.83,9.84,9.84
77.40,16.89,7.07,16.89,7.07,-7.08,-6.99,-6.75,9.80,9.81,9.82
78.17,16.88,7.10,16.88,7.09,-7.09,-7.01,-6.69,9.79,9.79,9.78
78.95,16.87,7.10,16.87,7.11,-7.10,-7.03,-6.64,9.77,9.76,9.76
79.74,16.86,7.13,16.85,7.12,-7.11,-7.04,-6.58,9.74,9.74,9.73
80.54,16.83,7.12,16.83,7.13,-7.13,-7.06,-6.54,9.70,9.70,9.70
81.35,16.81,7.14,16.81,7.14,-7.14,-7.07,-6.49,9.67,9.67,9.67
82.16,16.80,7.14,16.79,7.14,-7.15,-7.09,-6.45,9.64,9.64,9.65
82.98,16.78,7.16,16.78,7.16,-7.17,-7.10,-6.41,9.61,9.61,9.61
83.81,16.77,7.18,16.77,7.18,-7.18,-7.11,-6.38,9.58,9.59,9.59
84.65,16.76,7.21,16.75,7.20,-7.19,-7.13,-6.35,9.56,9.56,9.55
85.50,16.74,7.22,16.73,7.21,-7.21,-7.14,-6.33,9.53,9.53,9.52
86.35,16.71,7.22,16.71,7.22,-7.22,-7.15,-6.31,9.49,9.49,9.49
87.22,16.69,7.23,16.69,7.23,-7.23,-7.16,-6.30,9.45,9.46,9.46
88.09,16.67,7.24,16.66,7.24,-7.24,-7.17,-6.29,9.43,9.42,9.43
88.97,16.64,7.24,16.64,7.24,-7.24,-7.18,-6.28,9.39,9.39,9.39
89.86,16.61,7.25,16.61,7.25,-7.25,-7.19,-6.28,9.36,9.36,9.36
90.76,16.59,7.26,16.58,7.26,-7.25,-7.19,-6.29,9.34,9.33,9.33
91.66,16.55,7.26,16.55,7.26,-7.25,-7.20,-6.29,9.30,9.30,9.28
92.58,16.51,7.25,16.51,7.25,-7.25,-7.21,-6.31,9.26,9.26,9.26
93.51,16.47,7.24,16.46,7.24,-7.25,-7.21,-6.33,9.21,9.21,9.22
94.44,16.43,7.24,16.43,7.24,-7.26,-7.22,-6.35,9.16,9.17,9.19
95.39,16.40,7.25,16.40,7.25,-7.27,-7.22,-6.38,9.13,9.13,9.14
96.34,16.38,7.27,16.38,7.27,-7.27,-7.23,-6.41,9.10,9.10,9.11
97.30,16.36,7.29,16.36,7.29,-7.28,-7.23,-6.44,9.08,9.08,9.07
98.28,16.34,7.31,16.33,7.31,-7.29,-7.23,-6.48,9.05,9.05,9.02
99.26,16.30,7.31,16.29,7.31,-7.29,-7.23,-6.52,9.01,9.00,8.99
100.25,16.25,7.30,16.25,7.29,-7.29,-7.23,-6.57,8.95,8.95,8.95
101.25,16.20,7.27,16.20,7.28,-7.29,-7.23,-6.62,8.90,8.91,8.92
102.27,16.16,7.26,16.16,7.27,-7.29,-7.23,-6.67,8.87,8.88,8.89
103.29,16.14,7.28,16.13,7.27,-7.28,-7.23,-6.72,8.86,8.86,8.86
104.32,16.11,7.28,16.10,7.27,-7.26,-7.23,-6.78,8.84,8.84,8.83
105.37,16.06,7.26,16.06,7.26,-7.25,-7.22,-6.83,8.81,8.81,8.80
106.42,16.01,7.23,16.01,7.24,-7.23,-7.22,-6.89,8.77,8.77,8.77
107.48,15.96,7.22,15.96,7.22,-7.22,-7.21,-6.95,8.74,8.74,8.73
108.56,15.91,7.20,15.91,7.20,-7.20,-7.21,-7.01,8.71,8.71,8.71
109.64,15.86,7.18,15.86,7.18,-7.18,-7.20,-7.07,8.68,8.68,8.68
110.74,15.81,7.16,15.81,7.16,-7.16,-7.19,-7.12,8.64,8.65,8.64
111.85,15.76,7.15,15.75,7.14,-7.15,-7.18,-7.18,8.61,8.61,8.60
112.97,15.70,7.12,15.69,7.12,-7.13,-7.17,-7.23,8.56,8.56,8.58
114.10,15.64,7.10,15.64,7.11,-7.12,-7.16,-7.28,8.51,8.52,8.54
115.24,15.60,7.10,15.60,7.10,-7.11,-7.15,-7.33,8.49,8.49,8.49
116.39,15.57,7.11,15.57,7.11,-7.10,-7.13,-7.37,8.47,8.47,8.46
117.55,15.54,7.11,15.53,7.10,-7.09,-7.12,-7.41,8.45,8.44,8.42
118.73,15.48,7.09,15.48,7.08,-7.07,-7.10,-7.44,8.40,8.40,8.39
119.92,15.42,7.05,15.42,7.06,-7.05,-7.08,-7.46,8.36,8.37,8.36
121.12,15.36,7.02,15.36,7.03,-7.03,-7.06,-7.49,8.32,8.33,8.34
122.33,15.32,7.01,15.31,7.00,-7.01,-7.03,-7.50,8.31,8.31,8.31
123.55,15.26,6.97,15.25,6.97,-6.97,-7.01,-7.51,8.28,8.28,8.28
124.79,15.19,6.94,15.19,6.94,-6.94,-6.98,-7.51,8.25,8.25,8.25
126.03,15.11,6.89,15.12,6.90,-6.90,-6.95,-7.50,8.21,8.22,8.22
127.29,15.06,6.87,15.05,6.86,-6.86,-6.91,-7.49,8.20,8.19,8.19
128.57,14.98,6.83,14.96,6.81,-6.81,-6.88,-7.47,8.16,8.15,8.15
129.85,14.88,6.76,14.88,6.76,-6.77,-6.84,-7.44,8.11,8.11,8.12
131.15,14.78,6.70,14.80,6.72,-6.72,-6.79,-7.41,8.05,8.08,8.08
132.46,14.73,6.68,14.71,6.67,-6.67,-6.74,-7.37,8.06,8.04,8.05
133.79,14.65,6.63,14.64,6.62,-6.62,-6.69,-7.33,8.03,8.02,8.01
135.12,14.54,6.55,14.55,6.56,-6.56,-6.63,-7.28,7.98,7.99,7.99
136.48,14.47,6.51,14.45,6.50,-6.49,-6.57,-7.23,7.97,7.96,7.96
137.84,14.35,6.42,14.36,6.43,-6.42,-6.50,-7.17,7.92,7.94,7.93
139.22,14.27,6.38,14.26,6.36,-6.36,-6.43,-7.11,7.91,7.90,7.89
140.61,14.17,6.30,14.15,6.29,-6.29,-6.36,-7.05,7.88,7.87,7.87
142.02,14.03,6.19,14.05,6.21,-6.22,-6.29,-6.98,7.81,7.83,7.83
143.44,13.97,6.15,13.95,6.14,-6.15,-6.22,-6.92,7.82,7.80,7.81
144.87,13.86,6.06,13.86,6.08,-6.08,-6.14,-6.85,7.77,7.78,7.79
146.32,13.80,6.03,13.80,6.03,-6.03,-6.08,-6.78,7.77,7.77,7.76
147.78,13.73,5.98,13.72,5.98,-5.98,-6.02,-6.72,7.75,7.74,7.74
149.26,13.67,5.95,13.66,5.95,-5.94,-5.99,-6.65,7.73,7.72,7.71
150.75,13.60,5.91,13.60,5.91,-5.91,-5.95,-6.59,7.68,7.69,7.69
152.26,13.56,5.89,13.56,5.89,-5.90,-5.95,-6.52,7.66,7.66,7.67
153.78,13.53,5.88,13.53,5.89,-5.90,-5.95,-6.46,7.63,7.63,7.64
155.32,13.53,5.91,13.52,5.90,-5.91,-5.99,-6.41,7.62,7.61,7.62
156.88,13.53,5.93,13.53,5.93,-5.94,-6.03,-6.35,7.59,7.59,7.60
158.44,13.54,5.97,13.54,5.98,-5.97,-6.09,-6.30,7.56,7.57,7.56
160.03,13.58,6.04,13.57,6.03,-6.03,-6.16,-6.25,7.55,7.54,7.54
161.63,13.61,6.10,13.60,6.09,-6.09,-6.24,-6.20,7.52,7.51,7.51
163.24,13.64,6.16,13.65,6.17,-6.17,-6.33,-6.16,7.47,7.48,7.48
164.88,13.70,6.25,13.69,6.25,-6.25,-6.41,-6.12,7.44,7.44,7.45
166.53,13.76,6.35,13.75,6.34,-6.35,-6.50,-6.09,7.41,7.41,7.41
168.19,13.82,6.43,13.83,6.45,-6.45,-6.59,-6.06,7.36,7.38,7.39
169.87,13.92,6.56,13.90,6.55,-6.56,-6.68,-6.03,7.35,7.34,7.35
171.57,14.00,6.68,14.00,6.68,-6.68,-6.76,-6.01,7.31,7.31,7.32
173.29,14.08,6.79,14.09,6.81,-6.80,-6.85,-6.00,7.27,7.29,7.29
175.02,14.20,6.94,14.18,6.93,-6.93,-6.93,-5.99,7.27,7.25,7.25
176.77,14.27,7.05,14.27,7.05,-7.05,-7.00,-5.98,7.22,7.22,7.22
178.54,14.35,7.16,14.35,7.17,-7.16,-7.07,-5.98,7.19,7.19,7.19
180.32,14.42,7.27,14.42,7.27,-7.26,-7.15,-5.98,7.16,7.16,7.14
182.13,14.48,7.36,14.48,7.36,-7.35,-7.21,-5.98,7.12,7.12,7.12
183.95,14.53,7.44,14.52,7.44,-7.43,-7.28,-5.99,7.10,7.09,7.09
185.79,14.55,7.50,14.55,7.50,-7.49,-7.33,-6.01,7.06,7.06,7.05
187.65,14.56,7.54,14.56,7.54,-7.54,-7.39,-6.03,7.02,7.02,7.02
189.52,14.56,7.57,14.56,7.57,-7.57,-7.43,-6.05,6.99,6.99,6.99
191.42,14.55,7.59,14.54,7.59,-7.58,-7.48,-6.08,6.96,6.96,6.96
193.33,14.52,7.59,14.52,7.59,-7.59,-7.51,-6.11,6.93,6.93,6.93
195.27,14.48,7.58,14.47,7.58,-7.58,-7.54,-6.14,6.90,6.89,6.89
197.22,14.42,7.56,14.42,7.56,-7.56,-7.55,-6.18,6.85,6.86,6.85
199.19,14.37,7.53,14.37,7.54,-7.54,-7.56,-6.22,6.83,6.83,6.84
201.18,14.32,7.52,14.31,7.51,-7.51,-7.55,-6.27,6.81,6.80,6.80
203.19,14.26,7.47,14.26,7.47,-7.47,-7.54,-6.31,6.78,6.79,6.79
205.23,14.20,7.43,14.20,7.43,-7.43,-7.51,-6.36,6.76,6.77,6.77
207.28,14.14,7.39,14.13,7.39,-7.39,-7.47,-6.41,6.75,6.74,6.75
209.35,14.07,7.35,14.07,7.34,-7.35,-7.42,-6.46,6.72,6.72,6.72
211.44,14.00,7.30,14.00,7.30,-7.30,-7.37,-6.52,6.69,6.70,6.70
213.56,13.93,7.24,13.92,7.24,-7.25,-7.31,-6.57,6.67,6.67,6.68
215.69,13.86,7.19,13.86,7.20,-7.20,-7.24,-6.62,6.65,6.65,6.66
217.85,13.79,7.15,13.79,7.16,-7.15,-7.17,-6.67,6.63,6.64,6.64
220.03,13.74,7.12,13.73,7.11,-7.10,-7.09,-6.72,6.64,6.63,6.62
222.23,13.66,7.06,13.65,7.05,-7.04,-7.01,-6.76,6.62,6.61,6.60
224.45,13.57,6.98,13.57,6.98,-6.98,-6.93,-6.81,6.59,6.59,6.58
226.70,13.48,6.91,13.48,6.91,-6.92,-6.85,-6.84,6.56,6.56,6.56
228.96,13.40,6.83,13.40,6.85,-6.85,-6.77,-6.88,6.54,6.55,6.56
231.25,13.34,6.79,13.33,6.78,-6.79,-6.69,-6.91,6.55,6.54,6.54
233.57,13.26,6.72,13.25,6.72,-6.72,-6.61,-6.93,6.54,6.53,6.53
235.90,13.16,6.63,13.17,6.65,-6.65,-6.53,-6.94,6.51,6.52,6.52
238.26,13.10,6.59,13.09,6.58,-6.58,-6.45,-6.95,6.52,6.51,6.51
240.64,13.02,6.50,13.02,6.51,-6.51,-6.37,-6.95,6.51,6.51,6.52
243.05,12.96,6.45,12.95,6.44,-6.44,-6.30,-6.94,6.52,6.51,6.51
245.48,12.88,6.38,12.87,6.37,-6.36,-6.22,-6.92,6.51,6.51,6.50
247.93,12.78,6.28,12.79,6.29,-6.28,-6.15,-6.90,6.49,6.50,6.49
250.41,12.71,6.20,12.70,6.20,-6.20,-6.07,-6.86,6.50,6.50,6.51
252.92,12.62,6.11,12.62,6.12,-6.12,-6.00,-6.81,6.50,6.50,6.51
255.45,12.55,6.04,12.54,6.04,-6.04,-5.93,-6.75,6.51,6.51,6.50
258.00,12.47,5.96,12.46,5.95,-5.95,-5.86,-6.69,6.52,6.51,6.51
260.58,12.37,5.86,12.37,5.87,-5.86,-5.78,-6.61,6.50,6.51,6.51
263.19,12.29,5.77,12.28,5.77,-5.78,-5.71,-6.53,6.51,6.51,6.51
265.82,12.20,5.69,12.20,5.69,-5.69,-5.64,-6.43,6.50,6.51,6.51
268.48,12.12,5.61,12.12,5.60,-5.61,-5.57,-6.33,6.51,6.51,6.51
271.16,12.04,5.52,12.03,5.52,-5.53,-5.50,-6.22,6.51,6.51,6.52
273.87,11.95,5.44,11.95,5.44,-5.44,-5.43,-6.11,6.50,6.51,6.51
276.61,11.88,5.36,11.87,5.36,-5.36,-5.36,-5.99,6.52,6.51,6.52
279.38,11.79,5.29,11.79,5.28,-5.27,-5.29,-5.86,6.51,6.51,6.50
282.17,11.70,5.19,11.70,5.19,-5.19,-5.22,-5.73,6.51,6.51,6.51
284.99,11.63,5.10,11.62,5.10,-5.11,-5.14,-5.60,6.52,6.51,6.52
287.84,11.54,5.01,11.54,5.01,-5.02,-5.07,-5.46,6.52,6.52,6.53
290.72,11.45,4.92,11.45,4.92,-4.92,-5.00,-5.32,6.52,6.53,6.52
293.63,11.38,4.84,11.37,4.84,-4.83,-4.93,-5.18,6.55,6.54,6.54
296.57,11.29,4.74,11.29,4.74,-4.73,-4.85,-5.03,6.55,6.55,6.54
299.53,11.20,4.65,11.19,4.64,-4.64,-4.78,-4.89,6.56,6.56,6.55
302.53,11.10,4.53,11.10,4.54,-4.54,-4.70,-4.74,6.56,6.56,6.57
305.55,11.00,4.43,11.00,4.43,-4.44,-4.63,-4.60,6.55,6.56,6.56
308.61,10.92,4.34,10.91,4.33,-4.34,-4.55,-4.45,6.57,6.57,6.58
311.69,10.82,4.23,10.82,4.24,-4.24,-4.48,-4.31,6.58,6.58,6.59
314.81,10.75,4.15,10.74,4.15,-4.14,-4.40,-4.16,6.61,6.60,6.59
317.96,10.66,4.05,10.65,4.05,-4.04,-4.32,-4.02,6.61,6.61,6.60
321.14,10.57,3.95,10.56,3.95,-3.94,-4.24,-3.88,6.63,6.62,6.62
324.35,10.46,3.84,10.46,3.84,-3.84,-4.16,-3.73,6.62,6.62,6.62
327.59,10.36,3.71,10.37,3.73,-3.74,-4.08,-3.60,6.62,6.63,6.64
330.87,10.29,3.65,10.28,3.64,-3.63,-4.00,-3.46,6.65,6.64,6.64
334.18,10.20,3.55,10.19,3.54,-3.53,-3.91,-3.32,6.67,6.66,6.65
337.52,10.09,3.43,10.09,3.43,-3.43,-3.83,-3.19,6.66,6.66,6.66
340.90,10.00,3.32,9.99,3.32,-3.33,-3.75,-3.06,6.66,6.66,6.67
344.30,9.90,3.21,9.91,3.23,-3.24,-3.66,-2.93,6.66,6.67,6.68
347.75,9.84,3.15,9.83,3.14,-3.15,-3.57,-2.80,6.69,6.68,6.69
351.23,9.76,3.07,9.76,3.06,-3.06,-3.49,-2.67,6.70,6.70,6.69
354.74,9.69,2.97,9.69,2.98,-2.97,-3.40,-2.55,6.71,6.71,6.72
358.28,9.62,2.90,9.61,2.90,-2.89,-3.31,-2.43,6.72,6.72,6.71
361.87,9.55,2.82,9.54,2.81,-2.81,-3.22,-2.31,6.73,6.73,6.72
365.49,9.46,2.73,9.46,2.73,-2.73,-3.13,-2.19,6.72,6.73,6.73
369.14,9.39,2.64,9.39,2.65,-2.65,-3.03,-2.07,6.73,6.74,6.75
372.83,9.33,2.57,9.32,2.57,-2.57,-2.94,-1.96,6.76,6.75,6.76
376.56,9.25,2.49,9.25,2.49,-2.49,-2.85,-1.84,6.76,6.76,6.76
380.33,9.18,2.41,9.18,2.41,-2.40,-2.75,-1.73,6.77,6.77,6.76
384.13,9.11,2.32,9.10,2.32,-2.32,-2.65,-1.62,6.78,6.78,6.78
387.97,9.03,2.23,9.02,2.23,-2.24,-2.56,-1.52,6.79,6.79,6.79
391.85,8.95,2.15,8.95,2.15,-2.15,-2.46,-1.41,6.79,6.80,6.80
395.77,8.87,2.06,8.87,2.06,-2.06,-2.36,-1.30,6.80,6.81,6.81
399.73,8.81,1.99,8.80,1.98,-1.97,-2.26,-1.20,6.84,6.83,6.82
403.72,8.73,1.88,8.72,1.89,-1.88,-2.15,-1.10,6.85,6.85,6.85
407.76,8.64,1.79,8.63,1.78,-1.78,-2.05,-1.00,6.86,6.85,6.85
411.84,8.54,1.68,8.54,1.68,-1.69,-1.95,-0.90,6.85,6.86,6.85
415.96,8.45,1.57,8.45,1.58,-1.59,-1.84,-0.81,6.86,6.86,6.87
420.12,8.37,1.49,8.36,1.49,-1.49,-1.73,-0.71,6.87,6.87,6.87
424.32,8.28,1.39,8.28,1.39,-1.40,-1.63,-0.62,6.88,6.88,6.88
428.56,8.20,1.30,8.20,1.30,-1.30,-1.52,-0.52,6.89,6.89,6.90
432.85,8.12,1.21,8.11,1.21,-1.21,-1.41,-0.43,6.91,6.91,6.91
437.18,8.03,1.12,8.03,1.12,-1.11,-1.30,-0.34,6.91,6.92,6.91
441.55,7.95,1.03,7.94,1.02,-1.01,-1.18,-0.25,6.93,6.93,6.92
445.96,7.85,0.92,7.84,0.92,-0.91,-1.07,-0.17,6.93,6.93,6.93
450.42,7.74,0.80,7.75,0.81,-0.81,-0.96,-0.08,6.93,6.94,6.94
454.93,7.66,0.71,7.65,0.70,-0.70,-0.84,0.00,6.96,6.95,6.95
459.48,7.55,0.59,7.55,0.59,-0.59,-0.72,0.08,6.95,6.96,6.96
464.07,7.45,0.47,7.45,0.48,-0.48,-0.61,0.16,6.96,6.97,6.97
