frequency,raw
20,-16.84
21,-16.28
22,-15.77
23,-15.28
24,-14.78
25,-14.31
26,-13.85
27,-13.40
28,-12.96
29,-12.53
30,-12.13
31,-11.74
32,-11.35
33,-10.97
34,-10.61
35,-10.26
36,-9.91
37,-9.57
38,-9.24
39,-8.92
40,-8.60
41,-8.29
42,-7.98
43,-7.68
44,-7.39
45,-7.11
46,-6.84
47,-6.58
48,-6.32
49,-6.05
50,-5.78
51,-5.55
52,-5.37
53,-5.22
54,-5.02
55,-4.79
56,-4.58
57,-4.43
58,-4.31
59,-4.17
60,-3.98
61,-3.80
62,-3.63
63,-3.46
64,-3.30
65,-3.13
66,-2.98
67,-2.84
68,-2.70
69,-2.57
70,-2.43
71,-2.30
72,-2.17
73,-2.03
74,-1.92
75,-1.83
76,-1.74
77,-1.66
78,-1.56
79,-1.46
80,-1.34
81,-1.24
82,-1.16
83,-1.07
84,-0.99
85,-0.90
86,-0.85
87,-0.78
88,-0.72
89,-0.66
90,-0.60
91,-0.54
92,-0.48
93,-0.43
94,-0.39
95,-0.34
96,-0.30
97,-0.28
98,-0.26
99,-0.25
100,-0.24
101,-0.23
102,-0.21
104,-0.15
105,-0.13
106,-0.11
107,-0.10
108,-0.10
109,-0.11
110,-0.11
111,-0.11
112,-0.11
113,-0.11
114,-0.10
115,-0.10
117,-0.10
118,-0.10
119,-0.12
120,-0.12
121,-0.14
123,-0.17
124,-0.19
125,-0.20
126,-0.22
128,-0.23
129,-0.24
130,-0.25
131,-0.26
133,-0.30
134,-0.33
135,-0.36
137,-0.42
138,-0.44
140,-0.48
141,-0.51
142,-0.54
144,-0.57
145,-0.59
147,-0.62
148,-0.64
150,-0.68
151,-0.69
153,-0.72
154,-0.74
156,-0.77
157,-0.79
159,-0.82
160,-0.83
162,-0.86
164,-0.88
165,-0.90
167,-0.92
169,-0.93
170,-0.95
172,-0.96
174,-0.98
175,-1.00
177,-1.02
179,-1.05
181,-1.09
183,-1.14
184,-1.15
186,-1.18
188,-1.21
190,-1.23
192,-1.23
194,-1.25
196,-1.26
198,-1.28
200,-1.30
202,-1.32
204,-1.34
206,-1.35
208,-1.36
210,-1.37
212,-1.37
214,-1.38
216,-1.39
218,-1.42
221,-1.44
223,-1.46
225,-1.47
227,-1.47
229,-1.46
232,-1.44
234,-1.44
236,-1.43
239,-1.41
241,-1.41
244,-1.39
246,-1.38
248,-1.38
251,-1.37
253,-1.36
256,-1.33
259,-1.32
261,-1.31
264,-1.29
266,-1.28
269,-1.27
272,-1.25
274,-1.24
277,-1.22
280,-1.21
283,-1.19
286,-1.18
288,-1.17
291,-1.15
294,-1.14
297,-1.12
300,-1.11
303,-1.09
306,-1.08
309,-1.07
312,-1.06
316,-1.05
319,-1.04
322,-1.03
325,-1.02
328,-1.02
332,-1.01
335,-1.00
338,-1.00
342,-0.99
345,-0.99
349,-0.98
352,-0.97
356,-0.97
359,-0.96
363,-0.97
366,-0.99
370,-1.03
374,-1.15
377,-1.28
381,-1.50
385,-1.80
389,-2.10
393,-2.39
397,-2.61
401,-2.71
405,-2.74
409,-2.71
413,-2.62
417,-2.53
421,-2.44
425,-2.38
430,-2.32
434,-2.28
438,-2.26
443,-2.24
447,-2.23
451,-2.22
456,-2.22
460,-2.22
465,-2.20
470,-2.19
474,-2.18
479,-2.16
484,-2.13
489,-2.10
494,-2.06
499,-2.03
504,-2.00
509,-1.98
514,-1.96
519,-1.95
524,-1.95
529,-1.95
535,-1.93
540,-1.92
545,-1.90
551,-1.88
556,-1.88
562,-1.87
568,-1.88
573,-1.88
579,-1.89
585,-1.90
591,-1.89
596,-1.89
602,-1.88
608,-1.87
615,-1.85
621,-1.84
627,-1.83
633,-1.81
639,-1.79
646,-1.73
652,-1.67
659,-1.59
665,-1.51
672,-1.42
679,-1.35
686,-1.28
692,-1.23
699,-1.16
706,-1.09
713,-1.03
721,-0.95
728,-0.88
735,-0.83
742,-0.77
750,-0.74
757,-0.72
765,-0.70
773,-0.67
780,-0.64
788,-0.61
796,-0.58
804,-0.54
812,-0.51
820,-0.48
828,-0.46
837,-0.43
845,-0.41
853,-0.39
862,-0.36
871,-0.34
879,-0.33
888,-0.30
897,-0.28
906,-0.25
915,-0.23
924,-0.21
933,-0.19
943,-0.16
952,-0.14
962,-0.10
971,-0.07
981,-0.04
991,-0.02
1001,0.00
1011,0.01
1021,0.03
1031,0.04
1041,0.08
1052,0.12
1062,0.15
1073,0.21
1084,0.26
1094,0.31
1105,0.36
1116,0.42
1128,0.48
1139,0.52
1150,0.55
1162,0.59
1173,0.62
1185,0.65
1197,0.68
1209,0.71
1221,0.75
1233,0.78
1246,0.84
1258,0.90
1271,0.97
1283,1.04
1296,1.11
1309,1.16
1322,1.21
1335,1.25
1349,1.28
1362,1.33
1376,1.39
1390,1.46
1404,1.53
1418,1.60
1432,1.66
1446,1.71
1461,1.75
1475,1.78
1490,1.82
1505,1.87
1520,1.93
1535,2.00
1550,2.06
1566,2.12
1582,2.17
1597,2.22
1613,2.26
1629,2.30
1646,2.34
1662,2.37
1679,2.40
1696,2.43
1713,2.46
1730,2.48
1747,2.51
1764,2.54
1782,2.55
1800,2.57
1818,2.58
1836,2.58
1854,2.57
1873,2.57
1892,2.56
1911,2.55
1930,2.53
1949,2.51
1969,2.47
1988,2.44
2008,2.42
2028,2.39
2048,2.38
2069,2.36
2090,2.35
2111,2.32
2132,2.29
2153,2.26
2175,2.22
2196,2.17
2218,2.15
2240,2.10
2263,2.07
2285,2.05
2308,2.02
2331,1.99
2355,1.94
2378,1.89
2402,1.85
2426,1.81
2450,1.77
2475,1.78
2500,1.78
2525,1.80
2550,1.84
2575,1.88
2601,1.91
2627,1.94
2653,1.95
2680,1.95
2707,1.94
2734,1.93
2761,1.91
2789,1.89
2817,1.90
2845,1.91
2873,1.94
2902,2.01
2931,2.07
2960,2.14
2990,2.21
3020,2.26
3050,2.33
3080,2.38
3111,2.44
3142,2.48
3174,2.53
3206,2.56
3238,2.59
3270,2.61
3303,2.64
3336,2.67
3369,2.70
3403,2.74
3437,2.78
3471,2.83
3506,2.88
3541,2.91
3576,2.93
3612,2.94
3648,2.94
3685,2.94
3721,2.95
3759,2.95
3796,2.96
3834,2.97
3873,3.00
3911,3.02
3950,3.05
3990,3.07
4030,3.07
4070,3.07
4111,3.08
4152,3.08
4193,3.08
4235,3.10
4278,3.12
4321,3.15
4364,3.18
4407,3.24
4451,3.32
4496,3.42
4541,3.53
4586,3.65
4632,3.77
4679,3.88
4725,4.00
4773,4.13
4820,4.22
4868,4.31
4917,4.40
4966,4.48
5016,4.57
5066,4.66
5117,4.76
5168,4.89
5220,5.00
5272,5.11
5325,5.21
5378,5.29
5432,5.35
5486,5.38
5541,5.37
5596,5.34
5652,5.28
5709,5.18
5766,5.02
5823,4.81
5882,4.55
5940,4.28
6000,3.97
6060,3.65
6120,3.31
6182,2.97
6244,2.63
6306,2.28
6369,1.92
6433,1.57
6497,1.24
6562,0.93
6628,0.64
6694,0.35
6761,0.08
6828,-0.18
6897,-0.45
6966,-0.69
7035,-0.92
7106,-1.15
7177,-1.34
7249,-1.51
7321,-1.69
7394,-1.88
7468,-2.09
7543,-2.31
7618,-2.52
7694,-2.73
7771,-2.93
7849,-3.14
7928,-3.37
8007,-3.63
8087,-3.91
8168,-4.19
8250,-4.46
8332,-4.65
8415,-4.81
8499,-4.95
8584,-5.14
8670,-5.36
8757,-5.60
8845,-5.76
8933,-5.71
9022,-5.73
9113,-5.48
9204,-5.06
9296,-4.68
9389,-4.35
9483,-4.13
9577,-3.99
9673,-3.93
9770,-3.96
9868,-4.08
9966,-4.26
10066,-4.55
10167,-4.89
10268,-5.22
10371,-5.63
10475,-6.07
10579,-6.43
10685,-6.74
10792,-7.03
10900,-7.31
11009,-7.57
11119,-7.79
11230,-7.99
11343,-8.07
11456,-7.86
11571,-8.27
11686,-9.05
11803,-9.04
11921,-9.24
12040,-9.41
12161,-9.26
12282,-9.49
12405,-9.73
12529,-9.94
12655,-10.28
12781,-10.68
12909,-11.20
13038,-11.89
13168,-12.69
13300,-13.52
13433,-14.26
13567,-14.96
13703,-15.61
13840,-16.24
13978,-16.69
14118,-17.04
14259,-17.26
14402,-17.30
14546,-17.24
14692,-17.08
14838,-16.80
14987,-16.48
15137,-16.13
15288,-15.79
15441,-15.48
15595,-15.20
15751,-14.94
15909,-14.71
16068,-14.48
16229,-14.28
16391,-14.11
16555,-13.98
16720,-13.89
16888,-13.85
17056,-13.83
17227,-13.85
17399,-13.90
17573,-13.96
17749,-14.03
17926,-14.11
18106,-14.19
18287,-14.29
18470,-14.44
18654,-14.67
18841,-14.96
19029,-15.35
19220,-15.85
19412,-16.39
19606,-16.98
19802,-17.62
20000,-18.26
