frequency,raw,error,smoothed,error_smoothed,equalization,parametric_eq,equalized_raw,equalized_smoothed,target
20,4.47,-3.98,4.74,-3.59,3.59,0.14,8.06,8.33,8.45
21,5.11,-3.33,5.28,-3.06,3.06,0.16,8.17,8.34,8.45
22,5.79,-2.64,5.78,-2.57,2.57,0.18,8.36,8.35,8.44
23,6.35,-2.07,6.25,-2.11,2.11,0.21,8.46,8.36,8.43
24,6.85,-1.56,6.67,-1.69,1.69,0.23,8.54,8.37,8.41
25,7.25,-1.15,7.06,-1.31,1.31,0.26,8.56,8.37,8.40
26,7.60,-0.79,7.41,-0.96,0.96,0.29,8.56,8.37,8.39
27,7.86,-0.51,7.72,-0.64,0.64,0.31,8.51,8.36,8.37
28,8.09,-0.27,7.99,-0.37,0.37,0.33,8.46,8.36,8.36
29,8.26,-0.08,8.22,-0.13,0.13,0.34,8.39,8.35,8.34
30,8.39,0.07,8.41,0.08,-0.08,0.35,8.31,8.33,8.33
31,8.50,0.20,8.52,0.21,-0.21,0.35,8.29,8.30,8.31
32,8.55,0.27,8.58,0.31,-0.31,0.34,8.24,8.27,8.29
33,8.59,0.33,8.62,0.38,-0.38,0.32,8.22,8.25,8.27
34,8.63,0.39,8.64,0.42,-0.42,0.30,8.22,8.22,8.24
35,8.63,0.41,8.64,0.44,-0.44,0.28,8.19,8.20,8.22
36,8.60,0.41,8.62,0.45,-0.45,0.25,8.15,8.18,8.20
37,8.59,0.42,8.60,0.44,-0.44,0.23,8.15,8.15,8.17
38,8.54,0.40,8.56,0.43,-0.43,0.20,8.11,8.13,8.14
39,8.50,0.39,8.51,0.41,-0.41,0.17,8.09,8.10,8.11
40,8.46,0.38,8.46,0.39,-0.39,0.14,8.08,8.08,8.09
41,8.38,0.33,8.40,0.36,-0.36,0.11,8.03,8.05,8.06
42,8.33,0.31,8.34,0.32,-0.32,0.08,8.01,8.02,8.02
43,8.27,0.28,8.27,0.29,-0.29,0.06,7.98,7.98,7.99
44,8.20,0.25,8.21,0.26,-0.26,0.03,7.95,7.95,7.96
45,8.14,0.22,8.14,0.22,-0.22,0.01,7.92,7.92,7.92
46,8.07,0.19,8.07,0.19,-0.19,-0.02,7.88,7.88,7.88
47,7.98,0.13,8.00,0.15,-0.15,-0.04,7.83,7.84,7.85
48,7.93,0.12,7.93,0.12,-0.12,-0.06,7.81,7.81,7.81
49,7.85,0.08,7.86,0.09,-0.09,-0.09,7.76,7.77,7.77
50,7.79,0.06,7.79,0.07,-0.07,-0.11,7.73,7.73,7.73
51,7.72,0.04,7.73,0.04,-0.04,-0.13,7.68,7.69,7.69
52,7.67,0.03,7.66,0.02,-0.02,-0.15,7.65,7.64,7.64
53,7.59,-0.01,7.60,0.00,-0.00,-0.17,7.59,7.60,7.60
54,7.54,-0.01,7.54,-0.01,0.01,-0.19,7.55,7.55,7.56
55,7.49,-0.02,7.48,-0.02,0.02,-0.21,7.52,7.51,7.51
56,7.42,-0.04,7.43,-0.03,0.03,-0.23,7.45,7.46,7.46
57,7.37,-0.05,7.38,-0.04,0.04,-0.25,7.41,7.42,7.42
58,7.33,-0.04,7.33,-0.04,0.04,-0.27,7.37,7.37,7.37
59,7.29,-0.03,7.29,-0.03,0.03,-0.29,7.33,7.32,7.32
60,7.24,-0.03,7.24,-0.03,0.03,-0.31,7.27,7.27,7.27
61,7.20,-0.02,7.20,-0.01,0.01,-0.32,7.22,7.22,7.22
62,7.16,-0.01,7.17,-0.00,0.00,-0.34,7.16,7.17,7.17
63,7.13,0.01,7.14,0.02,-0.02,-0.36,7.11,7.12,7.12
64,7.11,0.04,7.11,0.04,-0.04,-0.38,7.07,7.07,7.07
65,7.07,0.06,7.08,0.06,-0.06,-0.39,7.01,7.01,7.02
66,7.06,0.10,7.06,0.09,-0.09,-0.41,6.97,6.96,6.96
67,7.03,0.12,7.03,0.12,-0.12,-0.42,6.91,6.91,6.91
68,7.03,0.18,7.01,0.16,-0.16,-0.44,6.87,6.86,6.86
69,6.98,0.18,7.00,0.20,-0.20,-0.46,6.79,6.80,6.80
70,6.98,0.23,6.98,0.24,-0.24,-0.47,6.75,6.75,6.75
71,6.98,0.29,6.97,0.28,-0.28,-0.49,6.70,6.69,6.70
72,6.96,0.32,6.96,0.32,-0.32,-0.51,6.64,6.64,6.64
73,6.94,0.35,6.95,0.37,-0.37,-0.53,6.57,6.59,6.59
74,6.94,0.41,6.95,0.42,-0.42,-0.55,6.53,6.53,6.53
75,6.94,0.46,6.94,0.47,-0.47,-0.56,6.48,6.48,6.48
76,6.94,0.52,6.94,0.52,-0.52,-0.58,6.42,6.42,6.42
77,6.94,0.57,6.94,0.57,-0.57,-0.60,6.37,6.37,6.37
78,6.94,0.63,6.94,0.62,-0.62,-0.62,6.32,6.31,6.32
79,6.94,0.68,6.94,0.68,-0.68,-0.64,6.26,6.26,6.26
80,6.94,0.73,6.94,0.73,-0.73,-0.67,6.21,6.21,6.21
81,6.94,0.79,6.94,0.79,-0.79,-0.69,6.16,6.15,6.15
82,6.94,0.84,6.94,0.84,-0.84,-0.71,6.10,6.10,6.10
83,6.94,0.89,6.94,0.90,-0.90,-0.73,6.05,6.05,6.05
84,6.94,0.95,6.94,0.95,-0.95,-0.76,5.99,6.00,6.00
85,6.94,1.00,6.95,1.00,-1.00,-0.78,5.94,5.94,5.94
86,6.94,1.05,6.94,1.06,-1.06,-0.81,5.89,5.89,5.89
87,6.94,1.10,6.94,1.11,-1.11,-0.83,5.84,5.84,5.84
88,6.94,1.15,6.94,1.16,-1.16,-0.86,5.79,5.79,5.79
89,6.94,1.21,6.94,1.21,-1.21,-0.89,5.74,5.74,5.74
90,6.94,1.26,6.94,1.25,-1.25,-0.91,5.69,5.68,5.69
91,6.94,1.31,6.93,1.30,-1.30,-0.94,5.64,5.64,5.64
92,6.94,1.36,6.93,1.34,-1.34,-0.97,5.60,5.59,5.59
93,6.91,1.38,6.92,1.39,-1.39,-1.00,5.53,5.54,5.54
94,6.90,1.41,6.92,1.43,-1.43,-1.03,5.47,5.49,5.49
95,6.90,1.46,6.91,1.47,-1.47,-1.06,5.44,5.44,5.44
96,6.90,1.51,6.90,1.51,-1.51,-1.09,5.40,5.39,5.39
97,6.90,1.56,6.89,1.54,-1.54,-1.12,5.36,5.34,5.35
98,6.85,1.55,6.87,1.58,-1.58,-1.15,5.28,5.29,5.30
99,6.85,1.60,6.85,1.61,-1.61,-1.18,5.24,5.25,5.25
100,6.85,1.64,6.83,1.64,-1.64,-1.21,5.21,5.20,5.21
101,6.81,1.65,6.81,1.67,-1.67,-1.24,5.15,5.15,5.16
102,6.81,1.69,6.79,1.69,-1.69,-1.27,5.12,5.10,5.12
104,6.77,1.74,6.77,1.72,-1.72,-1.33,5.06,5.05,5.03
105,6.72,1.73,6.74,1.74,-1.74,-1.36,4.98,5.00,4.99
106,6.71,1.76,6.71,1.76,-1.76,-1.39,4.96,4.96,4.95
107,6.68,1.77,6.69,1.77,-1.77,-1.42,4.91,4.91,4.91
108,6.64,1.78,6.65,1.78,-1.78,-1.45,4.86,4.87,4.87
109,6.61,1.79,6.62,1.79,-1.79,-1.47,4.82,4.83,4.83
110,6.58,1.79,6.58,1.80,-1.80,-1.50,4.78,4.78,4.79
111,6.55,1.80,6.55,1.81,-1.81,-1.52,4.75,4.74,4.75
112,6.51,1.80,6.51,1.81,-1.81,-1.55,4.70,4.70,4.71
113,6.49,1.82,6.47,1.81,-1.81,-1.57,4.69,4.66,4.67
114,6.44,1.81,6.43,1.80,-1.80,-1.59,4.64,4.62,4.64
115,6.40,1.80,6.38,1.80,-1.80,-1.61,4.60,4.59,4.60
117,6.31,1.78,6.34,1.79,-1.79,-1.64,4.52,4.54,4.53
118,6.27,1.78,6.29,1.78,-1.78,-1.66,4.49,4.50,4.50
119,6.23,1.77,6.23,1.77,-1.77,-1.67,4.46,4.46,4.46
120,6.18,1.75,6.18,1.76,-1.76,-1.68,4.43,4.42,4.43
121,6.14,1.75,6.12,1.74,-1.74,-1.69,4.40,4.38,4.40
123,6.04,1.71,6.06,1.72,-1.72,-1.71,4.32,4.34,4.33
124,6.00,1.70,6.01,1.70,-1.70,-1.71,4.30,4.31,4.30
125,5.96,1.69,5.95,1.68,-1.68,-1.71,4.28,4.27,4.27
126,5.90,1.66,5.89,1.66,-1.66,-1.72,4.25,4.23,4.24
128,5.80,1.62,5.83,1.63,-1.63,-1.71,4.17,4.20,4.18
129,5.76,1.61,5.76,1.61,-1.61,-1.71,4.16,4.16,4.15
130,5.70,1.58,5.70,1.58,-1.58,-1.71,4.12,4.12,4.13
131,5.65,1.55,5.63,1.55,-1.55,-1.70,4.10,4.09,4.10
133,5.56,1.52,5.57,1.52,-1.52,-1.69,4.04,4.05,4.05
134,5.50,1.48,5.50,1.49,-1.49,-1.68,4.02,4.02,4.02
135,5.46,1.47,5.44,1.45,-1.45,-1.67,4.01,3.99,3.99
137,5.36,1.42,5.37,1.42,-1.42,-1.64,3.94,3.95,3.95
138,5.30,1.38,5.30,1.39,-1.39,-1.63,3.92,3.92,3.92
140,5.22,1.35,5.24,1.35,-1.35,-1.60,3.87,3.89,3.88
141,5.17,1.32,5.17,1.32,-1.32,-1.59,3.85,3.85,3.85
142,5.12,1.29,5.10,1.28,-1.28,-1.57,3.84,3.82,3.83
144,5.04,1.25,5.04,1.25,-1.25,-1.54,3.79,3.79,3.79
145,4.99,1.23,4.98,1.22,-1.22,-1.53,3.77,3.76,3.77
147,4.89,1.17,4.91,1.19,-1.19,-1.50,3.71,3.73,3.73
148,4.86,1.16,4.85,1.15,-1.15,-1.48,3.71,3.70,3.71
150,4.78,1.11,4.79,1.12,-1.12,-1.45,3.66,3.67,3.67
151,4.74,1.09,4.74,1.10,-1.10,-1.43,3.65,3.64,3.65
153,4.67,1.06,4.68,1.07,-1.07,-1.40,3.60,3.62,3.61
154,4.62,1.03,4.63,1.04,-1.04,-1.38,3.58,3.59,3.59
156,4.58,1.02,4.58,1.02,-1.02,-1.35,3.56,3.56,3.56
157,4.54,1.00,4.53,0.99,-0.99,-1.34,3.55,3.54,3.54
159,4.48,0.97,4.48,0.97,-0.97,-1.31,3.51,3.51,3.51
160,4.45,0.96,4.44,0.95,-0.95,-1.29,3.50,3.49,3.50
162,4.40,0.94,4.40,0.93,-0.93,-1.27,3.47,3.46,3.46
164,4.34,0.91,4.35,0.91,-0.91,-1.24,3.43,3.44,3.44
165,4.31,0.89,4.31,0.90,-0.90,-1.23,3.42,3.42,3.42
167,4.27,0.88,4.27,0.88,-0.88,-1.20,3.39,3.39,3.39
169,4.23,0.87,4.24,0.87,-0.87,-1.18,3.37,3.37,3.37
170,4.20,0.85,4.20,0.85,-0.85,-1.17,3.35,3.35,3.35
172,4.17,0.84,4.17,0.84,-0.84,-1.15,3.33,3.33,3.33
174,4.12,0.82,4.13,0.83,-0.83,-1.13,3.29,3.31,3.30
175,4.11,0.82,4.10,0.82,-0.82,-1.12,3.29,3.28,3.29
177,4.08,0.81,4.08,0.81,-0.81,-1.10,3.27,3.26,3.27
179,4.04,0.80,4.05,0.81,-0.81,-1.09,3.24,3.25,3.25
181,4.04,0.82,4.03,0.80,-0.80,-1.07,3.24,3.23,3.22
183,3.99,0.79,4.00,0.80,-0.80,-1.06,3.19,3.21,3.20
184,3.99,0.80,3.98,0.79,-0.79,-1.05,3.20,3.19,3.19
186,3.95,0.78,3.97,0.79,-0.79,-1.04,3.16,3.17,3.17
188,3.95,0.80,3.95,0.79,-0.79,-1.03,3.16,3.15,3.16
190,3.92,0.78,3.93,0.79,-0.79,-1.02,3.13,3.14,3.14
192,3.91,0.79,3.91,0.80,-0.80,-1.01,3.12,3.12,3.12
194,3.91,0.81,3.90,0.80,-0.80,-1.01,3.11,3.10,3.10
196,3.88,0.80,3.89,0.80,-0.80,-1.00,3.08,3.09,3.09
198,3.87,0.80,3.87,0.80,-0.80,-0.99,3.07,3.07,3.07
200,3.87,0.82,3.86,0.81,-0.81,-0.99,3.07,3.05,3.06
202,3.85,0.81,3.85,0.81,-0.81,-0.98,3.04,3.04,3.04
204,3.82,0.80,3.84,0.81,-0.81,-0.98,3.01,3.03,3.03
206,3.82,0.81,3.83,0.81,-0.81,-0.98,3.01,3.01,3.01
208,3.82,0.82,3.82,0.82,-0.82,-0.97,3.00,3.00,3.00
210,3.81,0.83,3.81,0.82,-0.82,-0.97,2.99,2.99,2.99
212,3.78,0.81,3.80,0.82,-0.82,-0.97,2.96,2.97,2.97
214,3.78,0.82,3.79,0.83,-0.83,-0.97,2.96,2.96,2.96
216,3.78,0.83,3.78,0.83,-0.83,-0.97,2.95,2.95,2.95
218,3.78,0.84,3.77,0.83,-0.83,-0.96,2.95,2.94,2.94
221,3.74,0.82,3.76,0.83,-0.83,-0.96,2.91,2.92,2.92
223,3.74,0.83,3.74,0.83,-0.83,-0.96,2.91,2.91,2.91
225,3.74,0.84,3.73,0.83,-0.83,-0.96,2.91,2.90,2.90
227,3.74,0.85,3.72,0.83,-0.83,-0.95,2.91,2.89,2.89
229,3.69,0.81,3.70,0.83,-0.83,-0.95,2.87,2.88,2.88
232,3.69,0.82,3.69,0.82,-0.82,-0.95,2.87,2.87,2.87
234,3.69,0.83,3.68,0.82,-0.82,-0.95,2.87,2.86,2.86
236,3.65,0.80,3.67,0.82,-0.82,-0.94,2.83,2.85,2.85
239,3.65,0.81,3.65,0.82,-0.82,-0.94,2.84,2.84,2.84
241,3.65,0.82,3.64,0.81,-0.81,-0.93,2.84,2.83,2.83
244,3.61,0.79,3.63,0.81,-0.81,-0.93,2.80,2.82,2.82
246,3.61,0.80,3.62,0.81,-0.81,-0.92,2.80,2.81,2.81
248,3.61,0.81,3.61,0.80,-0.80,-0.91,2.81,2.80,2.81
251,3.61,0.82,3.60,0.80,-0.80,-0.90,2.81,2.80,2.80
253,3.61,0.82,3.59,0.80,-0.80,-0.90,2.81,2.79,2.79
256,3.56,0.78,3.58,0.80,-0.80,-0.89,2.76,2.78,2.78
259,3.56,0.79,3.57,0.80,-0.80,-0.88,2.76,2.77,2.77
261,3.56,0.80,3.57,0.80,-0.80,-0.87,2.76,2.77,2.77
264,3.56,0.80,3.56,0.80,-0.80,-0.85,2.76,2.76,2.76
266,3.56,0.81,3.55,0.80,-0.80,-0.84,2.76,2.75,2.75
269,3.55,0.81,3.54,0.80,-0.80,-0.83,2.75,2.74,2.74
272,3.52,0.78,3.53,0.80,-0.80,-0.82,2.72,2.74,2.74
274,3.52,0.79,3.53,0.80,-0.80,-0.81,2.72,2.73,2.73
277,3.52,0.80,3.52,0.80,-0.80,-0.79,2.72,2.72,2.73
280,3.52,0.80,3.52,0.80,-0.80,-0.77,2.72,2.72,2.72
283,3.52,0.81,3.51,0.80,-0.80,-0.76,2.72,2.71,2.71
286,3.50,0.80,3.50,0.80,-0.80,-0.74,2.71,2.71,2.71
288,3.48,0.78,3.50,0.80,-0.80,-0.73,2.69,2.70,2.70
291,3.48,0.79,3.49,0.79,-0.79,-0.72,2.69,2.69,2.70
294,3.48,0.79,3.48,0.79,-0.79,-0.70,2.69,2.69,2.69
297,3.48,0.80,3.47,0.79,-0.79,-0.68,2.69,2.68,2.69
300,3.48,0.80,3.47,0.79,-0.79,-0.67,2.69,2.68,2.68
303,3.48,0.81,3.46,0.79,-0.79,-0.65,2.69,2.67,2.68
306,3.45,0.78,3.46,0.79,-0.79,-0.64,2.66,2.67,2.67
309,3.43,0.77,3.45,0.79,-0.79,-0.62,2.64,2.66,2.67
312,3.43,0.77,3.45,0.79,-0.79,-0.61,2.65,2.66,2.66
316,3.43,0.78,3.44,0.79,-0.79,-0.59,2.65,2.66,2.66
319,3.43,0.78,3.44,0.78,-0.78,-0.57,2.65,2.65,2.65
322,3.43,0.78,3.43,0.78,-0.78,-0.56,2.65,2.65,2.65
325,3.43,0.79,3.42,0.78,-0.78,-0.55,2.65,2.64,2.64
328,3.43,0.79,3.42,0.78,-0.78,-0.54,2.65,2.64,2.64
332,3.43,0.80,3.41,0.78,-0.78,-0.52,2.65,2.63,2.64
335,3.41,0.78,3.41,0.78,-0.78,-0.51,2.63,2.63,2.63
338,3.39,0.76,3.40,0.78,-0.78,-0.50,2.61,2.63,2.63
342,3.39,0.77,3.40,0.78,-0.78,-0.48,2.61,2.62,2.63
345,3.39,0.77,3.40,0.78,-0.78,-0.47,2.61,2.62,2.62
349,3.39,0.77,3.40,0.78,-0.78,-0.46,2.61,2.62,2.62
352,3.39,0.78,3.40,0.78,-0.78,-0.45,2.61,2.61,2.62
356,3.39,0.78,3.40,0.79,-0.79,-0.44,2.61,2.61,2.61
359,3.39,0.78,3.40,0.79,-0.79,-0.43,2.60,2.61,2.61
363,3.39,0.79,3.40,0.80,-0.80,-0.42,2.59,2.60,2.61
366,3.41,0.81,3.41,0.81,-0.81,-0.41,2.61,2.60,2.60
370,3.43,0.83,3.41,0.81,-0.81,-0.40,2.62,2.60,2.60
374,3.43,0.83,3.42,0.82,-0.82,-0.39,2.61,2.60,2.60
377,3.43,0.84,3.43,0.83,-0.83,-0.39,2.60,2.60,2.60
381,3.43,0.84,3.44,0.85,-0.85,-0.38,2.59,2.59,2.59
385,3.43,0.84,3.45,0.86,-0.86,-0.37,2.57,2.59,2.59
389,3.45,0.86,3.46,0.87,-0.87,-0.36,2.58,2.59,2.59
393,3.48,0.90,3.47,0.88,-0.88,-0.35,2.60,2.59,2.59
397,3.48,0.90,3.48,0.89,-0.89,-0.35,2.59,2.58,2.58
401,3.48,0.90,3.48,0.90,-0.90,-0.34,2.58,2.58,2.58
405,3.48,0.90,3.49,0.92,-0.92,-0.33,2.57,2.58,2.58
409,3.51,0.93,3.50,0.93,-0.93,-0.32,2.58,2.57,2.58
413,3.52,0.95,3.51,0.94,-0.94,-0.32,2.58,2.57,2.58
417,3.52,0.95,3.52,0.95,-0.95,-0.31,2.57,2.57,2.57
421,3.52,0.95,3.53,0.96,-0.96,-0.30,2.56,2.57,2.57
425,3.52,0.95,3.54,0.97,-0.97,-0.29,2.55,2.57,2.57
430,3.53,0.96,3.55,0.98,-0.98,-0.28,2.55,2.56,2.57
434,3.56,1.00,3.55,0.99,-0.99,-0.27,2.57,2.56,2.57
438,3.56,1.00,3.56,1.00,-1.00,-0.27,2.57,2.56,2.56
443,3.56,1.00,3.56,1.00,-1.00,-0.25,2.56,2.56,2.56
447,3.56,1.00,3.56,1.00,-1.00,-0.24,2.56,2.56,2.56
451,3.56,1.00,3.55,1.00,-1.00,-0.23,2.56,2.56,2.56
456,3.55,0.99,3.55,0.99,-0.99,-0.22,2.56,2.56,2.56
460,3.52,0.97,3.54,0.98,-0.98,-0.21,2.54,2.56,2.56
465,3.52,0.97,3.53,0.97,-0.97,-0.19,2.56,2.56,2.56
470,3.50,0.94,3.50,0.95,-0.95,-0.17,2.56,2.56,2.56
474,3.48,0.92,3.48,0.92,-0.92,-0.16,2.56,2.56,2.56
479,3.44,0.88,3.44,0.88,-0.88,-0.14,2.56,2.56,2.56
484,3.41,0.85,3.41,0.84,-0.84,-0.11,2.57,2.57,2.56
489,3.37,0.80,3.36,0.79,-0.79,-0.09,2.58,2.57,2.57
494,3.32,0.75,3.31,0.73,-0.73,-0.07,2.59,2.57,2.57
499,3.25,0.67,3.25,0.67,-0.67,-0.04,2.58,2.58,2.58
504,3.18,0.60,3.18,0.60,-0.60,-0.01,2.59,2.58,2.58
509,3.09,0.50,3.10,0.51,-0.51,0.02,2.58,2.59,2.59
514,3.03,0.44,3.02,0.42,-0.42,0.05,2.61,2.60,2.59
519,2.93,0.33,2.93,0.32,-0.32,0.08,2.61,2.60,2.60
524,2.83,0.23,2.82,0.22,-0.22,0.11,2.61,2.61,2.61
529,2.73,0.12,2.72,0.10,-0.10,0.14,2.63,2.61,2.61
535,2.59,-0.03,2.60,-0.02,0.02,0.19,2.61,2.62,2.62
540,2.47,-0.15,2.48,-0.15,0.15,0.22,2.62,2.62,2.62
545,2.37,-0.26,2.35,-0.28,0.28,0.26,2.65,2.63,2.63
551,2.22,-0.41,2.22,-0.41,0.41,0.31,2.64,2.64,2.63
556,2.11,-0.53,2.09,-0.55,0.55,0.35,2.67,2.64,2.64
562,1.94,-0.71,1.95,-0.70,0.70,0.39,2.64,2.65,2.65
568,1.79,-0.86,1.81,-0.84,0.84,0.44,2.63,2.65,2.66
573,1.68,-0.98,1.68,-0.98,0.98,0.49,2.66,2.66,2.66
579,1.54,-1.13,1.54,-1.12,1.12,0.54,2.66,2.66,2.67
585,1.39,-1.28,1.41,-1.26,1.26,0.59,2.65,2.67,2.68
591,1.28,-1.40,1.28,-1.39,1.39,0.65,2.68,2.68,2.68
596,1.16,-1.53,1.16,-1.52,1.52,0.69,2.69,2.68,2.69
602,1.04,-1.65,1.04,-1.65,1.65,0.75,2.69,2.69,2.70
608,0.92,-1.78,0.93,-1.77,1.77,0.80,2.69,2.69,2.70
615,0.80,-1.91,0.82,-1.88,1.88,0.87,2.68,2.70,2.71
621,0.72,-1.99,0.73,-1.99,1.99,0.93,2.71,2.71,2.72
627,0.62,-2.10,0.64,-2.09,2.09,0.99,2.71,2.72,2.73
633,0.55,-2.18,0.55,-2.18,2.18,1.05,2.73,2.73,2.74
639,0.48,-2.27,0.48,-2.27,2.27,1.11,2.75,2.75,2.75
646,0.40,-2.36,0.41,-2.35,2.35,1.18,2.75,2.76,2.76
652,0.33,-2.45,0.35,-2.43,2.43,1.24,2.76,2.78,2.78
659,0.29,-2.50,0.30,-2.50,2.50,1.31,2.79,2.79,2.80
665,0.25,-2.56,0.25,-2.57,2.57,1.38,2.82,2.81,2.81
672,0.20,-2.63,0.20,-2.63,2.63,1.45,2.83,2.84,2.84
679,0.16,-2.70,0.16,-2.70,2.70,1.53,2.86,2.86,2.86
686,0.12,-2.76,0.13,-2.76,2.76,1.60,2.88,2.88,2.88
692,0.09,-2.82,0.09,-2.82,2.82,1.67,2.91,2.91,2.91
699,0.06,-2.87,0.05,-2.88,2.88,1.75,2.94,2.93,2.93
706,0.01,-2.95,0.01,-2.94,2.94,1.82,2.96,2.96,2.96
713,-0.03,-3.02,-0.02,-3.01,3.01,1.90,2.98,2.99,2.99
721,-0.06,-3.07,-0.07,-3.08,3.08,1.99,3.02,3.01,3.01
728,-0.11,-3.15,-0.11,-3.15,3.15,2.07,3.04,3.04,3.04
735,-0.14,-3.20,-0.16,-3.23,3.23,2.16,3.09,3.07,3.06
742,-0.19,-3.28,-0.22,-3.31,3.31,2.24,3.12,3.09,3.09
750,-0.27,-3.38,-0.27,-3.39,3.39,2.33,3.13,3.12,3.12
757,-0.34,-3.48,-0.33,-3.48,3.48,2.41,3.14,3.15,3.14
765,-0.40,-3.57,-0.40,-3.58,3.58,2.51,3.18,3.17,3.17
773,-0.47,-3.66,-0.47,-3.67,3.67,2.60,3.20,3.20,3.20
780,-0.53,-3.75,-0.54,-3.77,3.77,2.68,3.24,3.23,3.22
788,-0.61,-3.86,-0.61,-3.87,3.87,2.78,3.26,3.25,3.25
796,-0.68,-3.96,-0.69,-3.96,3.96,2.87,3.29,3.28,3.28
804,-0.76,-4.06,-0.76,-4.06,4.06,2.96,3.30,3.30,3.31
812,-0.82,-4.15,-0.82,-4.15,4.15,3.06,3.33,3.33,3.34
820,-0.88,-4.24,-0.88,-4.24,4.24,3.15,3.36,3.36,3.36
828,-0.94,-4.33,-0.93,-4.32,4.32,3.24,3.38,3.39,3.39
837,-1.01,-4.43,-0.98,-4.39,4.39,3.33,3.38,3.41,3.42
845,-1.03,-4.47,-1.02,-4.46,4.46,3.42,3.43,3.44,3.45
853,-1.06,-4.53,-1.05,-4.51,4.51,3.50,3.45,3.46,3.47
862,-1.07,-4.57,-1.06,-4.55,4.55,3.59,3.49,3.49,3.50
871,-1.07,-4.60,-1.07,-4.59,4.59,3.68,3.52,3.52,3.53
879,-1.07,-4.62,-1.06,-4.61,4.61,3.75,3.54,3.54,3.56
888,-1.05,-4.63,-1.04,-4.61,4.61,3.83,3.57,3.57,3.58
897,-1.02,-4.63,-1.01,-4.61,4.61,3.90,3.59,3.60,3.61
906,-0.97,-4.61,-0.97,-4.59,4.59,3.96,3.62,3.63,3.64
915,-0.92,-4.58,-0.91,-4.56,4.56,4.02,3.65,3.65,3.66
924,-0.85,-4.54,-0.84,-4.52,4.52,4.08,3.68,3.68,3.69
933,-0.78,-4.49,-0.77,-4.47,4.47,4.12,3.70,3.71,3.72
943,-0.67,-4.41,-0.68,-4.41,4.41,4.16,3.75,3.73,3.74
952,-0.59,-4.35,-0.58,-4.34,4.34,4.19,3.76,3.76,3.77
962,-0.48,-4.27,-0.48,-4.27,4.27,4.21,3.79,3.79,3.79
971,-0.36,-4.18,-0.36,-4.18,4.18,4.23,3.82,3.82,3.82
981,-0.26,-4.10,-0.24,-4.09,4.09,4.23,3.83,3.84,3.84
991,-0.11,-3.98,-0.12,-3.99,3.99,4.22,3.88,3.87,3.87
1001,0.01,-3.89,0.01,-3.88,3.88,4.21,3.89,3.90,3.90
1011,0.14,-3.78,0.15,-3.77,3.77,4.18,3.92,3.92,3.92
1021,0.30,-3.65,0.29,-3.66,3.66,4.15,3.96,3.95,3.95
1031,0.43,-3.54,0.43,-3.55,3.55,4.10,3.98,3.98,3.98
1041,0.58,-3.42,0.58,-3.43,3.43,4.05,4.01,4.00,4.00
1052,0.73,-3.30,0.72,-3.31,3.31,3.98,4.04,4.03,4.03
1062,0.87,-3.18,0.87,-3.19,3.19,3.91,4.06,4.06,4.06
1073,1.01,-3.07,1.02,-3.06,3.06,3.83,4.07,4.08,4.08
1084,1.18,-2.93,1.17,-2.94,2.94,3.74,4.12,4.11,4.11
1094,1.33,-2.81,1.32,-2.82,2.82,3.65,4.15,4.14,4.14
1105,1.45,-2.71,1.47,-2.69,2.69,3.55,4.15,4.16,4.16
1116,1.61,-2.58,1.62,-2.57,2.57,3.44,4.18,4.19,4.19
1128,1.78,-2.44,1.77,-2.45,2.45,3.32,4.23,4.22,4.22
1139,1.92,-2.32,1.92,-2.33,2.33,3.20,4.25,4.25,4.25
1150,2.06,-2.21,2.06,-2.21,2.21,3.08,4.27,4.28,4.27
1162,2.21,-2.09,2.21,-2.10,2.10,2.95,4.31,4.31,4.30
1173,2.35,-1.98,2.35,-1.98,1.98,2.83,4.33,4.34,4.33
1185,2.50,-1.86,2.50,-1.87,1.87,2.69,4.37,4.37,4.37
1197,2.64,-1.76,2.64,-1.76,1.76,2.55,4.40,4.40,4.40
1209,2.77,-1.66,2.78,-1.66,1.66,2.41,4.43,4.44,4.43
1221,2.92,-1.55,2.92,-1.55,1.55,2.27,4.48,4.47,4.47
1233,3.05,-1.45,3.05,-1.46,1.46,2.13,4.51,4.51,4.50
1246,3.18,-1.36,3.18,-1.36,1.36,1.98,4.54,4.55,4.54
1258,3.32,-1.25,3.31,-1.27,1.27,1.84,4.59,4.58,4.58
1271,3.46,-1.15,3.44,-1.19,1.19,1.69,4.65,4.62,4.61
1283,3.57,-1.08,3.55,-1.10,1.10,1.56,4.67,4.66,4.65
1296,3.70,-0.98,3.67,-1.02,1.02,1.41,4.72,4.69,4.68
1309,3.82,-0.90,3.78,-0.93,0.93,1.26,4.75,4.71,4.72
1322,3.94,-0.82,3.90,-0.84,0.84,1.12,4.78,4.74,4.76
1335,4.06,-0.74,4.02,-0.74,0.74,0.97,4.80,4.76,4.80
1349,4.19,-0.65,4.16,-0.63,0.63,0.82,4.82,4.78,4.84
1362,4.31,-0.58,4.31,-0.50,0.50,0.68,4.81,4.81,4.89
1376,4.44,-0.50,4.48,-0.36,0.36,0.53,4.80,4.85,4.94
1390,4.62,-0.37,4.69,-0.20,0.20,0.38,4.82,4.89,4.99
1404,4.83,-0.22,4.92,-0.02,0.02,0.23,4.85,4.94,5.05
1418,5.06,-0.05,5.18,0.18,-0.18,0.08,4.88,5.00,5.11
1432,5.36,0.18,5.48,0.41,-0.41,-0.06,4.95,5.07,5.18
1446,5.70,0.46,5.80,0.66,-0.66,-0.20,5.05,5.14,5.25
1461,6.10,0.78,6.14,0.92,-0.92,-0.35,5.18,5.22,5.32
1475,6.50,1.11,6.51,1.20,-1.20,-0.49,5.30,5.31,5.39
1490,6.92,1.46,6.89,1.49,-1.49,-0.64,5.43,5.40,5.46
1505,7.35,1.82,7.28,1.78,-1.78,-0.79,5.57,5.49,5.53
1520,7.74,2.14,7.67,2.08,-2.08,-0.93,5.66,5.59,5.61
1535,8.13,2.45,8.05,2.37,-2.37,-1.08,5.76,5.68,5.68
1550,8.46,2.71,8.42,2.65,-2.65,-1.22,5.81,5.77,5.76
1566,8.83,3.00,8.79,2.93,-2.93,-1.37,5.91,5.86,5.83
1582,9.15,3.23,9.13,3.18,-3.18,-1.51,5.97,5.95,5.92
1597,9.45,3.44,9.46,3.42,-3.42,-1.65,6.03,6.04,6.01
1613,9.73,3.63,9.77,3.64,-3.64,-1.79,6.09,6.12,6.10
1629,10.02,3.82,10.06,3.84,-3.84,-1.93,6.18,6.22,6.20
1646,10.31,4.01,10.33,4.02,-4.02,-2.08,6.29,6.31,6.30
1662,10.56,4.15,10.59,4.17,-4.17,-2.21,6.39,6.42,6.41
1679,10.82,4.30,10.83,4.30,-4.30,-2.35,6.52,6.53,6.52
1696,11.06,4.43,11.04,4.40,-4.40,-2.49,6.66,6.64,6.64
1713,11.27,4.52,11.24,4.48,-4.48,-2.62,6.79,6.77,6.75
1730,11.45,4.58,11.42,4.53,-4.53,-2.75,6.92,6.88,6.88
1747,11.60,4.60,11.57,4.56,-4.56,-2.87,7.04,7.01,7.00
1764,11.72,4.60,11.70,4.57,-4.57,-2.99,7.15,7.13,7.12
1782,11.82,4.58,11.80,4.55,-4.55,-3.10,7.27,7.25,7.24
1800,11.90,4.54,11.87,4.51,-4.51,-3.22,7.39,7.37,7.36
1818,11.93,4.46,11.93,4.45,-4.45,-3.32,7.48,7.48,7.47
1836,11.97,4.39,11.96,4.37,-4.37,-3.42,7.61,7.59,7.59
1854,11.97,4.28,11.97,4.27,-4.27,-3.51,7.70,7.70,7.70
1873,11.97,4.17,11.97,4.16,-4.16,-3.60,7.81,7.81,7.80
1892,11.92,4.01,11.95,4.04,-4.04,-3.68,7.88,7.91,7.91
1911,11.92,3.91,11.93,3.92,-3.92,-3.74,8.00,8.01,8.02
1930,11.88,3.76,11.89,3.79,-3.79,-3.80,8.09,8.10,8.12
1949,11.84,3.62,11.85,3.65,-3.65,-3.86,8.19,8.19,8.22
1969,11.79,3.47,11.80,3.52,-3.52,-3.90,8.27,8.28,8.32
1988,11.74,3.32,11.75,3.39,-3.39,-3.93,8.35,8.36,8.42
2008,11.69,3.17,11.69,3.26,-3.26,-3.95,8.43,8.44,8.52
2028,11.64,3.03,11.64,3.13,-3.13,-3.97,8.51,8.51,8.62
2048,11.60,2.89,11.59,3.01,-3.01,-3.97,8.60,8.58,8.71
2069,11.55,2.74,11.54,2.89,-2.89,-3.97,8.66,8.65,8.81
2090,11.50,2.60,11.50,2.77,-2.77,-3.96,8.73,8.72,8.91
2111,11.45,2.45,11.46,2.67,-2.67,-3.93,8.78,8.79,9.00
