frequency,raw
20.00,9.50
20.20,9.53
20.40,9.57
20.61,9.60
20.81,9.63
21.02,9.66
21.23,9.70
21.44,9.73
21.66,9.77
21.87,9.80
22.09,9.84
22.31,9.87
22.54,9.91
22.76,9.94
22.99,9.98
23.22,10.01
23.45,10.05
23.69,10.08
23.92,10.12
24.16,10.14
24.40,10.17
24.65,10.19
24.89,10.21
25.14,10.24
25.39,10.27
25.65,10.30
25.91,10.33
26.16,10.36
26.43,10.38
26.69,10.40
26.96,10.43
27.23,10.46
27.50,10.49
27.77,10.52
28.05,10.55
28.33,10.58
28.62,10.61
28.90,10.64
29.19,10.67
29.48,10.71
29.78,10.74
30.08,10.78
30.38,10.80
30.68,10.82
30.99,10.84
31.30,10.85
31.61,10.85
31.93,10.86
32.24,10.88
32.57,10.91
32.89,10.94
33.22,10.96
33.55,10.97
33.89,10.99
34.23,11.00
34.57,11.02
34.92,11.05
35.27,11.07
35.62,11.10
35.97,11.13
36.33,11.14
36.70,11.16
37.06,11.17
37.43,11.17
37.81,11.17
38.19,11.18
38.57,11.20
38.95,11.22
39.34,11.24
39.74,11.27
40.14,11.29
40.54,11.29
40.94,11.29
41.35,11.29
41.76,11.30
42.18,11.31
42.60,11.32
43.03,11.34
43.46,11.34
43.90,11.34
44.33,11.35
44.78,11.37
45.23,11.39
45.68,11.41
46.13,11.42
46.60,11.42
47.06,11.42
47.53,11.42
48.01,11.42
48.49,11.43
48.97,11.45
49.46,11.46
49.96,11.47
50.46,11.48
50.96,11.49
51.47,11.50
51.99,11.51
52.51,11.51
53.03,11.51
53.56,11.51
54.10,11.51
54.64,11.51
55.18,11.51
55.74,11.51
56.29,11.50
56.86,11.48
57.42,11.47
58.00,11.47
58.58,11.47
59.16,11.47
59.76,11.45
60.35,11.44
60.96,11.42
61.57,11.42
62.18,11.42
62.80,11.42
63.43,11.42
64.07,11.42
64.71,11.42
65.35,11.42
66.01,11.42
66.67,11.42
67.33,11.42
68.01,11.42
68.69,11.42
69.37,11.42
70.07,11.42
70.77,11.40
71.48,11.38
72.19,11.36
72.91,11.34
73.64,11.34
74.38,11.33
75.12,11.32
75.87,11.29
76.63,11.29
77.40,11.29
78.17,11.29
78.95,11.29
79.74,11.26
80.54,11.25
81.35,11.25
82.16,11.24
82.98,11.21
83.81,11.21
84.65,11.21
85.50,11.21
86.35,11.19
87.22,11.16
88.09,11.14
88.97,11.12
89.86,11.09
90.76,11.07
91.66,11.04
92.58,11.03
93.51,11.01
94.44,10.99
95.39,10.97
96.34,10.95
97.30,10.93
98.28,10.90
99.26,10.87
100.25,10.85
101.25,10.83
102.27,10.81
103.29,10.77
104.32,10.74
105.37,10.71
106.42,10.69
107.48,10.67
108.56,10.65
109.64,10.65
110.74,10.62
111.85,10.60
112.97,10.58
114.10,10.56
115.24,10.53
116.39,10.52
117.55,10.50
118.73,10.48
119.92,10.44
121.12,10.43
122.33,10.40
123.55,10.39
124.79,10.38
126.03,10.34
127.29,10.31
128.57,10.29
129.85,10.25
131.15,10.22
132.46,10.17
133.79,10.12
135.12,10.09
136.48,10.05
137.84,10.01
139.22,9.98
140.61,9.95
142.02,9.92
143.44,9.88
144.87,9.84
146.32,9.80
147.78,9.76
149.26,9.72
150.75,9.67
152.26,9.63
153.78,9.59
155.32,9.55
156.88,9.52
158.44,9.49
160.03,9.45
161.63,9.42
163.24,9.37
164.88,9.32
166.53,9.28
168.19,9.25
169.87,9.20
171.57,9.14
173.29,9.08
175.02,9.05
176.77,9.00
178.54,8.97
180.32,8.92
182.13,8.87
183.95,8.83
185.79,8.79
187.65,8.73
189.52,8.68
191.42,8.64
193.33,8.60
195.27,8.55
197.22,8.52
199.19,8.48
201.18,8.44
203.19,8.39
205.23,8.35
207.28,8.30
209.35,8.25
211.44,8.19
213.56,8.13
215.69,8.08
217.85,8.02
220.03,7.98
222.23,7.93
224.45,7.87
226.70,7.83
228.96,7.77
231.25,7.73
233.57,7.68
235.90,7.63
238.26,7.57
240.64,7.51
243.05,7.45
245.48,7.38
247.93,7.33
250.41,7.30
252.92,7.25
255.45,7.21
258.00,7.16
260.58,7.12
263.19,7.05
265.82,7.00
268.48,6.93
271.16,6.87
273.87,6.81
276.61,6.76
279.38,6.69
282.17,6.63
284.99,6.57
287.84,6.52
290.72,6.47
293.63,6.40
296.57,6.34
299.53,6.28
302.53,6.22
305.55,6.16
308.61,6.09
311.69,6.04
314.81,5.97
317.96,5.92
321.14,5.86
324.35,5.80
327.59,5.74
330.87,5.69
334.18,5.62
337.52,5.56
340.90,5.49
344.30,5.44
347.75,5.37
351.23,5.30
354.74,5.23
358.28,5.15
361.87,5.10
365.49,5.04
369.14,4.97
372.83,4.91
376.56,4.86
380.33,4.78
384.13,4.73
387.97,4.67
391.85,4.61
395.77,4.54
399.73,4.47
403.72,4.40
407.76,4.35
411.84,4.28
415.96,4.22
420.12,4.15
424.32,4.10
428.56,4.05
432.85,4.00
437.18,3.96
441.55,3.89
445.96,3.83
450.42,3.79
454.93,3.72
459.48,3.66
464.07,3.60
468.71,3.52
473.40,3.46
478.13,3.39
482.91,3.33
487.74,3.27
492.62,3.20
497.55,3.14
502.52,3.08
507.55,3.02
512.62,2.95
517.75,2.87
522.93,2.80
528.16,2.74
533.44,2.66
538.77,2.59
544.16,2.52
549.60,2.46
555.10,2.40
560.65,2.34
566.25,2.28
571.92,2.23
577.64,2.18
583.41,2.12
589.25,2.06
595.14,2.00
601.09,1.92
607.10,1.86
613.17,1.80
619.30,1.74
625.50,1.67
631.75,1.62
638.07,1.56
644.45,1.50
650.89,1.45
657.40,1.40
663.98,1.36
670.62,1.30
677.32,1.24
684.10,1.17
690.94,1.10
697.85,1.04
704.83,0.97
711.87,0.90
718.99,0.82
726.18,0.76
733.44,0.69
740.78,0.62
748.19,0.59
755.67,0.56
763.23,0.55
770.86,0.55
778.57,0.52
786.35,0.47
794.22,0.41
802.16,0.36
810.18,0.30
818.28,0.22
826.46,0.13
834.73,0.07
843.08,-0.02
851.51,-0.11
860.02,-0.21
868.62,-0.28
877.31,-0.37
886.08,-0.45
894.94,-0.48
903.89,-0.41
912.93,-0.27
922.06,-0.14
931.28,-0.04
940.59,0.04
950.00,0.10
959.50,0.12
969.09,0.12
978.78,0.09
988.57,0.07
998.46,0.01
1008.44,-0.06
1018.53,-0.16
1028.71,-0.26
1039.00,-0.33
1049.39,-0.37
1059.88,-0.30
1070.48,-0.16
1081.19,0.04
1092.00,0.27
1102.92,0.48
1113.95,0.67
1125.09,0.83
1136.34,0.95
1147.70,1.03
1159.18,1.09
1170.77,1.15
1182.48,1.21
1194.30,1.27
1206.25,1.34
1218.31,1.39
1230.49,1.45
1242.80,1.51
1255.22,1.57
1267.78,1.63
1280.45,1.67
1293.26,1.72
1306.19,1.77
1319.25,1.83
1332.45,1.90
1345.77,1.96
1359.23,2.04
1372.82,2.10
1386.55,2.16
1400.41,2.23
1414.42,2.31
1428.56,2.38
1442.85,2.47
1457.28,2.55
1471.85,2.65
1486.57,2.75
1501.43,2.84
1516.45,2.94
1531.61,3.04
1546.93,3.15
1562.40,3.26
1578.02,3.37
1593.80,3.47
1609.74,3.58
1625.84,3.68
1642.10,3.80
1658.52,3.91
1675.10,4.02
1691.85,4.13
1708.77,4.24
1725.86,4.34
1743.12,4.46
1760.55,4.59
1778.15,4.70
1795.94,4.81
1813.90,4.96
1832.03,5.07
1850.36,5.20
1868.86,5.32
1887.55,5.46
1906.42,5.57
1925.49,5.69
1944.74,5.80
1964.19,5.92
1983.83,6.02
2003.67,6.16
2023.71,6.29
2043.94,6.42
2064.38,6.56
2085.03,6.68
2105.88,6.81
2126.94,6.95
2148.20,7.08
2169.69,7.22
2191.38,7.38
2213.30,7.50
2235.43,7.64
2257.78,7.79
2280.36,7.90
2303.17,8.04
2326.20,8.15
2349.46,8.27
2372.95,8.39
2396.68,8.51
2420.65,8.62
2444.86,8.73
2469.31,8.84
2494.00,8.94
2518.94,9.04
2544.13,9.14
2569.57,9.25
2595.27,9.35
2621.22,9.44
2647.43,9.52
2673.90,9.59
2700.64,9.66
2727.65,9.70
2754.93,9.76
2782.48,9.79
2810.30,9.84
2838.40,9.90
2866.79,9.96
2895.46,9.99
2924.41,10.00
2953.65,10.00
2983.19,10.00
3013.02,10.01
3043.15,10.02
3073.58,10.00
3104.32,10.00
3135.36,10.00
3166.72,9.97
3198.38,9.95
3230.37,9.95
3262.67,9.92
3295.30,9.91
3328.25,9.89
3361.53,9.87
3395.15,9.85
3429.10,9.82
3463.39,9.82
3498.03,9.79
3533.01,9.78
3568.34,9.75
3604.02,9.71
3640.06,9.69
3676.46,9.67
3713.22,9.65
3750.36,9.65
3787.86,9.63
3825.74,9.63
3864.00,9.65
3902.64,9.65
3941.66,9.67
3981.08,9.69
4020.89,9.72
4061.10,9.74
4101.71,9.76
4142.73,9.79
4184.15,9.85
4226.00,9.91
4268.26,9.96
4310.94,10.01
4354.05,10.05
4397.59,10.10
4441.56,10.17
4485.98,10.22
4530.84,10.28
4576.15,10.33
4621.91,10.34
4668.13,10.37
4714.81,10.39
4761.96,10.37
4809.58,10.35
4857.67,10.32
4906.25,10.26
4955.31,10.15
5004.87,10.01
5054.91,9.82
5105.46,9.62
5156.52,9.39
5208.08,9.16
5260.16,8.90
5312.77,8.62
5365.89,8.31
5419.55,8.00
5473.75,7.69
5528.49,7.36
5583.77,7.03
5639.61,6.68
5696.00,6.35
5752.96,6.00
5810.49,5.65
5868.60,5.29
5927.28,4.94
5986.56,4.61
6046.42,4.27
6106.89,3.94
6167.96,3.61
6229.64,3.29
6291.93,3.00
6354.85,2.70
6418.40,2.45
6482.58,2.24
6547.41,2.03
6612.88,1.87
6679.01,1.72
6745.80,1.59
6813.26,1.45
6881.39,1.32
6950.21,1.20
7019.71,1.11
7089.91,1.00
7160.81,0.92
7232.41,0.85
7304.74,0.90
7377.79,1.02
7451.56,1.21
7526.08,1.40
7601.34,1.56
7677.35,1.76
7754.13,1.96
7831.67,2.17
7909.98,2.40
7989.08,2.70
8068.98,3.05
8149.67,3.41
8231.16,3.82
8313.47,4.24
8396.61,4.65
8480.57,5.01
8565.38,5.32
8651.03,5.57
8737.54,5.62
8824.92,5.43
8913.17,5.04
9002.30,4.48
9092.32,3.72
9183.25,2.75
9275.08,1.83
9367.83,0.86
9461.51,-0.15
9556.12,-1.07
9651.68,-1.97
9748.20,-2.81
9845.68,-3.66
9944.14,-4.44
10043.58,-5.14
10144.02,-5.76
10245.46,-6.34
10347.91,-7.02
10451.39,-7.61
10555.91,-8.19
10661.46,-8.83
10768.08,-9.35
10875.76,-9.72
10984.52,-10.06
11094.36,-10.32
11205.31,-10.54
11317.36,-10.78
11430.53,-11.03
11544.84,-11.24
11660.29,-11.49
11776.89,-11.69
11894.66,-11.85
12013.60,-11.97
12133.74,-12.02
12255.08,-12.00
12377.63,-11.94
12501.41,-11.87
12626.42,-11.73
12752.68,-11.55
12880.21,-11.34
13009.01,-11.05
13139.10,-10.68
13270.49,-10.25
13403.20,-9.71
13537.23,-9.07
13672.60,-8.38
13809.33,-7.60
13947.42,-6.83
14086.90,-6.07
14227.77,-5.32
14370.04,-4.71
14513.74,-4.30
14658.88,-4.14
14805.47,-4.42
14953.52,-4.98
15103.06,-5.77
15254.09,-6.66
15406.63,-7.47
15560.70,-8.32
15716.30,-9.12
15873.47,-9.87
16032.20,-10.67
16192.52,-11.48
16354.45,-12.25
16517.99,-13.02
16683.17,-13.85
16850.01,-14.63
17018.51,-15.15
17188.69,-15.63
17360.58,-16.14
17534.18,-16.66
17709.53,-17.17
17886.62,-17.69
18065.49,-18.20
18246.14,-18.72
18428.60,-19.24
18612.89,-19.75
18799.02,-20.27
18987.01,-20.78
19176.88,-21.30
19368.65,-21.81
19562.33,-22.33
19757.96,-22.84
19955.54,-23.36
