frequency,raw,error,smoothed,error_smoothed,equalization,parametric_eq,equalized_raw,equalized_smoothed,target
20,-24.59,-23.79,-24.79,-23.96,6.00,3.17,-18.59,-18.79,-0.80
21,-24.05,-23.24,-24.11,-23.28,6.00,3.63,-18.05,-18.11,-0.81
22,-23.54,-22.73,-23.44,-22.60,6.00,4.14,-17.54,-17.44,-0.81
23,-23.05,-22.24,-22.78,-21.94,6.00,4.68,-17.05,-16.78,-0.81
24,-22.24,-21.43,-22.12,-21.27,6.00,5.25,-16.24,-16.12,-0.81
25,-21.49,-20.67,-21.47,-20.62,6.00,5.83,-15.49,-15.47,-0.82
26,-20.78,-19.96,-20.82,-19.97,6.00,6.42,-14.78,-14.82,-0.82
27,-20.13,-19.31,-20.18,-19.33,6.00,6.98,-14.13,-14.18,-0.82
28,-19.49,-18.66,-19.55,-18.70,6.00,7.47,-13.49,-13.55,-0.83
29,-18.87,-18.04,-18.93,-18.07,6.00,7.87,-12.87,-12.93,-0.83
30,-18.28,-17.44,-18.31,-17.45,6.00,8.12,-12.28,-12.31,-0.84
31,-17.67,-16.83,-17.68,-16.83,6.00,8.23,-11.67,-11.68,-0.84
32,-17.09,-16.24,-17.07,-16.22,6.00,8.17,-11.09,-11.07,-0.85
33,-16.51,-15.66,-16.47,-15.62,6.00,7.98,-10.51,-10.47,-0.85
34,-15.92,-15.06,-15.90,-15.02,6.00,7.69,-9.92,-9.90,-0.86
35,-15.36,-14.49,-15.32,-14.44,6.00,7.32,-9.36,-9.32,-0.87
36,-14.78,-13.90,-14.75,-13.86,6.00,6.92,-8.78,-8.75,-0.88
37,-14.19,-13.31,-14.19,-13.29,6.00,6.50,-8.19,-8.19,-0.88
38,-13.65,-12.76,-13.63,-12.73,6.00,6.09,-7.65,-7.63,-0.89
39,-13.08,-12.18,-13.09,-12.18,6.00,5.69,-7.08,-7.09,-0.90
40,-12.55,-11.64,-12.55,-11.63,6.00,5.30,-6.55,-6.55,-0.91
41,-12.01,-11.08,-12.03,-11.10,6.00,4.94,-6.01,-6.03,-0.93
42,-11.48,-10.54,-11.52,-10.58,6.00,4.60,-5.48,-5.52,-0.94
43,-10.99,-10.04,-11.02,-10.07,6.00,4.29,-4.99,-5.02,-0.95
44,-10.49,-9.52,-10.54,-9.57,6.00,3.99,-4.49,-4.54,-0.96
45,-10.04,-9.06,-10.06,-9.08,6.00,3.72,-4.04,-4.06,-0.98
46,-9.61,-8.61,-9.60,-8.60,6.00,3.47,-3.61,-3.60,-0.99
47,-9.18,-8.17,-9.15,-8.13,6.00,3.23,-3.18,-3.15,-1.01
48,-8.75,-7.72,-8.71,-7.67,6.00,3.02,-2.75,-2.71,-1.03
49,-8.30,-7.25,-8.27,-7.21,6.00,2.81,-2.30,-2.27,-1.05
50,-7.85,-6.78,-7.84,-6.76,5.93,2.62,-1.92,-1.91,-1.06
51,-7.40,-6.31,-7.41,-6.31,5.78,2.45,-1.62,-1.63,-1.08
52,-6.99,-5.88,-6.98,-5.86,5.55,2.28,-1.44,-1.43,-1.11
53,-6.57,-5.44,-6.55,-5.41,5.26,2.13,-1.31,-1.29,-1.13
54,-6.14,-4.99,-6.13,-4.96,4.92,1.98,-1.22,-1.21,-1.15
55,-5.72,-4.55,-5.70,-4.52,4.52,1.85,-1.20,-1.18,-1.17
56,-5.30,-4.10,-5.28,-4.08,4.08,1.72,-1.22,-1.20,-1.20
57,-4.87,-3.65,-4.87,-3.65,3.65,1.60,-1.22,-1.23,-1.22
58,-4.46,-3.21,-4.47,-3.22,3.22,1.48,-1.24,-1.25,-1.25
59,-4.07,-2.79,-4.07,-2.79,2.79,1.38,-1.28,-1.28,-1.28
60,-3.67,-2.37,-3.69,-2.38,2.38,1.27,-1.29,-1.31,-1.30
61,-3.31,-1.98,-3.31,-1.98,1.98,1.18,-1.33,-1.33,-1.33
62,-2.96,-1.60,-2.95,-1.58,1.58,1.09,-1.38,-1.36,-1.36
63,-2.61,-1.22,-2.60,-1.20,1.20,1.00,-1.41,-1.39,-1.39
64,-2.26,-0.83,-2.26,-0.84,0.84,0.92,-1.42,-1.42,-1.42
65,-1.95,-0.49,-1.95,-0.49,0.49,0.84,-1.46,-1.46,-1.46
66,-1.63,-0.14,-1.65,-0.16,0.16,0.77,-1.47,-1.49,-1.49
67,-1.36,0.16,-1.37,0.15,-0.15,0.69,-1.51,-1.52,-1.52
68,-1.10,0.46,-1.11,0.45,-0.45,0.62,-1.54,-1.56,-1.56
69,-0.87,0.72,-0.88,0.72,-0.72,0.56,-1.59,-1.59,-1.59
70,-0.66,0.97,-0.66,0.97,-0.97,0.49,-1.63,-1.63,-1.63
71,-0.46,1.21,-0.46,1.20,-1.20,0.43,-1.66,-1.67,-1.67
72,-0.28,1.42,-0.29,1.41,-1.41,0.37,-1.69,-1.70,-1.70
73,-0.13,1.61,-0.14,1.60,-1.60,0.31,-1.73,-1.74,-1.74
74,0.00,1.78,-0.01,1.77,-1.77,0.25,-1.76,-1.78,-1.78
75,0.10,1.92,0.09,1.91,-1.91,0.19,-1.81,-1.82,-1.82
76,0.17,2.03,0.18,2.03,-2.03,0.13,-1.86,-1.86,-1.86
77,0.24,2.14,0.24,2.14,-2.14,0.07,-1.90,-1.90,-1.90
78,0.29,2.23,0.29,2.23,-2.23,0.02,-1.93,-1.94,-1.94
79,0.33,2.31,0.32,2.29,-2.29,-0.04,-1.96,-1.98,-1.98
80,0.33,2.35,0.33,2.34,-2.34,-0.09,-2.01,-2.02,-2.02
81,0.33,2.39,0.32,2.38,-2.38,-0.15,-2.05,-2.06,-2.06
82,0.29,2.39,0.30,2.40,-2.40,-0.20,-2.11,-2.10,-2.10
83,0.27,2.41,0.26,2.41,-2.41,-0.26,-2.14,-2.14,-2.14
84,0.22,2.40,0.22,2.40,-2.40,-0.31,-2.18,-2.19,-2.18
85,0.16,2.39,0.16,2.39,-2.39,-0.37,-2.23,-2.23,-2.22
86,0.08,2.35,0.10,2.37,-2.37,-0.43,-2.29,-2.27,-2.27
87,0.01,2.32,0.02,2.34,-2.34,-0.48,-2.32,-2.31,-2.31
88,-0.06,2.29,-0.06,2.30,-2.30,-0.54,-2.36,-2.35,-2.35
89,-0.14,2.25,-0.14,2.25,-2.25,-0.59,-2.39,-2.40,-2.39
90,-0.24,2.19,-0.23,2.20,-2.20,-0.65,-2.44,-2.44,-2.43
91,-0.33,2.14,-0.33,2.15,-2.15,-0.70,-2.48,-2.48,-2.47
92,-0.41,2.11,-0.42,2.10,-2.10,-0.76,-2.51,-2.52,-2.51
93,-0.53,2.03,-0.52,2.04,-2.04,-0.82,-2.57,-2.56,-2.56
94,-0.64,1.96,-0.61,1.98,-1.98,-0.87,-2.62,-2.59,-2.60
95,-0.71,1.93,-0.72,1.92,-1.92,-0.93,-2.63,-2.63,-2.64
96,-0.83,1.85,-0.82,1.86,-1.86,-0.99,-2.69,-2.68,-2.68
97,-0.92,1.80,-0.92,1.80,-1.80,-1.04,-2.71,-2.72,-2.72
98,-1.01,1.75,-1.03,1.74,-1.74,-1.10,-2.74,-2.76,-2.76
99,-1.12,1.68,-1.13,1.68,-1.68,-1.15,-2.80,-2.81,-2.80
100,-1.22,1.61,-1.23,1.62,-1.62,-1.21,-2.84,-2.85,-2.83
101,-1.29,1.58,-1.32,1.57,-1.57,-1.26,-2.85,-2.89,-2.87
102,-1.40,1.51,-1.42,1.52,-1.52,-1.32,-2.91,-2.93,-2.91
104,-1.55,1.44,-1.50,1.47,-1.47,-1.42,-3.02,-2.97,-2.98
105,-1.62,1.40,-1.58,1.43,-1.43,-1.47,-3.05,-3.01,-3.02
106,-1.68,1.38,-1.66,1.39,-1.39,-1.52,-3.07,-3.05,-3.06
107,-1.74,1.35,-1.73,1.37,-1.37,-1.57,-3.10,-3.09,-3.09
108,-1.79,1.34,-1.79,1.34,-1.34,-1.62,-3.13,-3.13,-3.13
109,-1.84,1.32,-1.84,1.33,-1.33,-1.66,-3.17,-3.17,-3.16
110,-1.88,1.32,-1.88,1.32,-1.32,-1.71,-3.20,-3.21,-3.20
111,-1.91,1.32,-1.92,1.32,-1.32,-1.75,-3.23,-3.24,-3.23
112,-1.95,1.31,-1.95,1.33,-1.33,-1.79,-3.28,-3.28,-3.26
113,-1.96,1.33,-1.96,1.35,-1.35,-1.83,-3.31,-3.31,-3.29
114,-2.00,1.33,-1.97,1.37,-1.37,-1.86,-3.37,-3.34,-3.33
115,-2.00,1.36,-1.98,1.39,-1.39,-1.89,-3.39,-3.37,-3.36
117,-2.00,1.42,-1.99,1.42,-1.42,-1.95,-3.42,-3.41,-3.42
118,-2.00,1.45,-1.99,1.45,-1.45,-1.98,-3.45,-3.44,-3.45
119,-2.00,1.48,-2.00,1.48,-1.48,-2.00,-3.48,-3.48,-3.47
120,-2.00,1.50,-2.00,1.51,-1.51,-2.02,-3.51,-3.51,-3.50
121,-2.00,1.53,-2.00,1.54,-1.54,-2.03,-3.54,-3.54,-3.53
123,-2.00,1.59,-2.02,1.56,-1.56,-2.06,-3.56,-3.58,-3.58
124,-2.00,1.61,-2.03,1.58,-1.58,-2.07,-3.57,-3.61,-3.61
125,-2.02,1.62,-2.05,1.58,-1.58,-2.07,-3.60,-3.64,-3.64
126,-2.05,1.61,-2.08,1.59,-1.59,-2.07,-3.63,-3.67,-3.66
128,-2.12,1.59,-2.12,1.58,-1.58,-2.07,-3.70,-3.70,-3.71
129,-2.16,1.57,-2.16,1.57,-1.57,-2.07,-3.73,-3.73,-3.73
130,-2.21,1.55,-2.21,1.55,-1.55,-2.06,-3.76,-3.76,-3.76
131,-2.25,1.53,-2.27,1.52,-1.52,-2.05,-3.77,-3.79,-3.78
133,-2.35,1.47,-2.33,1.50,-1.50,-2.03,-3.84,-3.82,-3.82
134,-2.40,1.44,-2.39,1.46,-1.46,-2.01,-3.86,-3.85,-3.84
135,-2.44,1.43,-2.45,1.43,-1.43,-1.99,-3.87,-3.88,-3.86
137,-2.54,1.37,-2.51,1.40,-1.40,-1.96,-3.94,-3.91,-3.90
138,-2.58,1.34,-2.57,1.37,-1.37,-1.93,-3.95,-3.93,-3.92
140,-2.64,1.32,-2.62,1.34,-1.34,-1.89,-3.98,-3.96,-3.96
141,-2.68,1.30,-2.67,1.31,-1.31,-1.86,-3.99,-3.98,-3.98
142,-2.72,1.28,-2.72,1.28,-1.28,-1.84,-4.00,-4.01,-4.00
144,-2.77,1.26,-2.77,1.26,-1.26,-1.79,-4.03,-4.03,-4.03
145,-2.81,1.24,-2.82,1.24,-1.24,-1.76,-4.05,-4.06,-4.05
147,-2.86,1.22,-2.86,1.22,-1.22,-1.70,-4.08,-4.08,-4.08
148,-2.90,1.19,-2.90,1.20,-1.20,-1.68,-4.10,-4.10,-4.09
150,-2.95,1.17,-2.94,1.18,-1.18,-1.62,-4.13,-4.12,-4.12
151,-2.98,1.16,-2.98,1.16,-1.16,-1.59,-4.14,-4.14,-4.14
153,-3.03,1.13,-3.02,1.14,-1.14,-1.53,-4.17,-4.16,-4.16
154,-3.05,1.13,-3.06,1.12,-1.12,-1.50,-4.17,-4.18,-4.18
156,-3.10,1.10,-3.10,1.10,-1.10,-1.45,-4.20,-4.20,-4.20
157,-3.13,1.09,-3.14,1.08,-1.08,-1.42,-4.21,-4.22,-4.21
159,-3.17,1.07,-3.18,1.06,-1.06,-1.36,-4.23,-4.24,-4.24
160,-3.21,1.04,-3.22,1.04,-1.04,-1.34,-4.25,-4.26,-4.25
162,-3.25,1.02,-3.26,1.01,-1.01,-1.28,-4.26,-4.27,-4.27
164,-3.32,0.97,-3.30,0.99,-0.99,-1.23,-4.31,-4.29,-4.29
165,-3.33,0.97,-3.34,0.96,-0.96,-1.21,-4.29,-4.31,-4.30
167,-3.39,0.93,-3.39,0.94,-0.94,-1.16,-4.33,-4.32,-4.32
169,-3.44,0.90,-3.43,0.91,-0.91,-1.11,-4.35,-4.34,-4.34
170,-3.47,0.88,-3.47,0.89,-0.89,-1.08,-4.36,-4.36,-4.35
172,-3.51,0.86,-3.50,0.87,-0.87,-1.04,-4.38,-4.37,-4.37
174,-3.55,0.84,-3.54,0.84,-0.84,-0.99,-4.39,-4.39,-4.39
175,-3.58,0.81,-3.58,0.82,-0.82,-0.97,-4.40,-4.40,-4.39
177,-3.62,0.79,-3.61,0.80,-0.80,-0.93,-4.42,-4.41,-4.41
179,-3.63,0.79,-3.64,0.78,-0.78,-0.89,-4.41,-4.43,-4.42
181,-3.68,0.76,-3.68,0.76,-0.76,-0.85,-4.44,-4.44,-4.44
183,-3.72,0.73,-3.71,0.74,-0.74,-0.81,-4.46,-4.45,-4.45
184,-3.72,0.74,-3.74,0.72,-0.72,-0.79,-4.44,-4.46,-4.46
186,-3.77,0.70,-3.77,0.71,-0.71,-0.76,-4.48,-4.47,-4.47
188,-3.79,0.69,-3.79,0.69,-0.69,-0.72,-4.48,-4.48,-4.48
190,-3.82,0.67,-3.82,0.67,-0.67,-0.69,-4.49,-4.49,-4.49
192,-3.86,0.65,-3.85,0.65,-0.65,-0.66,-4.51,-4.50,-4.50
194,-3.89,0.63,-3.88,0.64,-0.64,-0.63,-4.52,-4.52,-4.52
196,-3.91,0.62,-3.91,0.62,-0.62,-0.60,-4.53,-4.52,-4.53
198,-3.93,0.61,-3.94,0.60,-0.60,-0.57,-4.53,-4.54,-4.54
200,-3.96,0.59,-3.96,0.58,-0.58,-0.54,-4.54,-4.54,-4.54
202,-3.99,0.56,-3.99,0.56,-0.56,-0.51,-4.55,-4.55,-4.55
204,-4.02,0.54,-4.02,0.54,-0.54,-0.49,-4.56,-4.56,-4.56
206,-4.05,0.52,-4.05,0.52,-0.52,-0.46,-4.57,-4.57,-4.57
208,-4.08,0.50,-4.08,0.51,-0.51,-0.44,-4.58,-4.58,-4.58
210,-4.10,0.49,-4.10,0.49,-0.49,-0.41,-4.59,-4.59,-4.59
212,-4.14,0.45,-4.13,0.47,-0.47,-0.39,-4.61,-4.60,-4.59
214,-4.14,0.46,-4.15,0.45,-0.45,-0.37,-4.59,-4.60,-4.60
216,-4.19,0.42,-4.18,0.43,-0.43,-0.35,-4.62,-4.61,-4.61
218,-4.19,0.43,-4.20,0.42,-0.42,-0.32,-4.61,-4.62,-4.62
221,-4.24,0.39,-4.22,0.40,-0.40,-0.29,-4.64,-4.62,-4.62
223,-4.24,0.39,-4.25,0.38,-0.38,-0.28,-4.62,-4.63,-4.63
225,-4.28,0.35,-4.27,0.36,-0.36,-0.26,-4.64,-4.63,-4.63
227,-4.28,0.35,-4.29,0.35,-0.35,-0.24,-4.63,-4.63,-4.63
229,-4.28,0.35,-4.30,0.33,-0.33,-0.22,-4.61,-4.63,-4.63
232,-4.33,0.30,-4.32,0.31,-0.31,-0.20,-4.64,-4.63,-4.63
234,-4.33,0.30,-4.34,0.29,-0.29,-0.18,-4.62,-4.63,-4.63
236,-4.38,0.24,-4.35,0.27,-0.27,-0.16,-4.65,-4.62,-4.62
239,-4.38,0.24,-4.36,0.25,-0.25,-0.14,-4.63,-4.62,-4.62
241,-4.38,0.23,-4.38,0.23,-0.23,-0.13,-4.61,-4.61,-4.61
244,-4.38,0.22,-4.39,0.21,-0.21,-0.10,-4.59,-4.60,-4.60
246,-4.40,0.19,-4.40,0.19,-0.19,-0.09,-4.59,-4.59,-4.59
248,-4.42,0.16,-4.41,0.17,-0.17,-0.08,-4.59,-4.58,-4.58
251,-4.42,0.15,-4.42,0.15,-0.15,-0.06,-4.57,-4.57,-4.57
253,-4.42,0.14,-4.44,0.13,-0.13,-0.04,-4.55,-4.56,-4.56
256,-4.43,0.12,-4.45,0.11,-0.11,-0.03,-4.53,-4.55,-4.55
259,-4.47,0.07,-4.46,0.08,-0.08,-0.01,-4.55,-4.54,-4.54
261,-4.47,0.06,-4.47,0.06,-0.06,0.00,-4.53,-4.53,-4.53
264,-4.47,0.05,-4.48,0.04,-0.04,0.02,-4.50,-4.52,-4.52
266,-4.52,-0.01,-4.50,0.01,-0.01,0.03,-4.53,-4.51,-4.50
269,-4.52,-0.02,-4.51,-0.01,0.01,0.05,-4.50,-4.49,-4.49
272,-4.52,-0.04,-4.52,-0.04,0.04,0.06,-4.48,-4.48,-4.48
274,-4.52,-0.05,-4.54,-0.07,0.07,0.07,-4.45,-4.47,-4.47
277,-4.56,-0.10,-4.55,-0.10,0.10,0.09,-4.46,-4.45,-4.46
280,-4.56,-0.12,-4.56,-0.12,0.12,0.10,-4.44,-4.44,-4.44
283,-4.56,-0.14,-4.57,-0.15,0.15,0.12,-4.41,-4.42,-4.42
286,-4.57,-0.17,-4.58,-0.18,0.18,0.13,-4.39,-4.40,-4.40
288,-4.59,-0.21,-4.59,-0.21,0.21,0.14,-4.38,-4.38,-4.38
291,-4.61,-0.25,-4.59,-0.24,0.24,0.16,-4.37,-4.36,-4.36
294,-4.61,-0.27,-4.60,-0.26,0.26,0.17,-4.35,-4.34,-4.33
297,-4.61,-0.30,-4.61,-0.29,0.29,0.18,-4.32,-4.32,-4.31
300,-4.61,-0.32,-4.61,-0.31,0.31,0.20,-4.30,-4.30,-4.29
303,-4.61,-0.34,-4.62,-0.34,0.34,0.21,-4.27,-4.28,-4.27
306,-4.61,-0.36,-4.62,-0.36,0.36,0.23,-4.25,-4.26,-4.25
309,-4.61,-0.38,-4.62,-0.37,0.37,0.24,-4.24,-4.24,-4.23
312,-4.61,-0.39,-4.61,-0.39,0.39,0.26,-4.22,-4.22,-4.22
316,-4.61,-0.41,-4.61,-0.40,0.40,0.28,-4.21,-4.20,-4.20
319,-4.61,-0.43,-4.59,-0.41,0.41,0.29,-4.20,-4.18,-4.18
322,-4.61,-0.45,-4.58,-0.42,0.42,0.31,-4.19,-4.16,-4.16
325,-4.59,-0.45,-4.57,-0.43,0.43,0.32,-4.16,-4.14,-4.14
328,-4.56,-0.44,-4.56,-0.43,0.43,0.34,-4.13,-4.12,-4.12
332,-4.54,-0.44,-4.54,-0.44,0.44,0.36,-4.10,-4.10,-4.10
335,-4.52,-0.44,-4.53,-0.45,0.45,0.38,-4.07,-4.08,-4.08
338,-4.52,-0.46,-4.52,-0.46,0.46,0.39,-4.06,-4.06,-4.06
342,-4.47,-0.43,-4.50,-0.46,0.46,0.41,-4.00,-4.04,-4.04
345,-4.47,-0.46,-4.49,-0.47,0.47,0.43,-4.00,-4.02,-4.01
349,-4.47,-0.48,-4.48,-0.48,0.48,0.45,-3.98,-4.00,-3.99
352,-4.47,-0.50,-4.47,-0.50,0.50,0.47,-3.97,-3.98,-3.97
356,-4.47,-0.52,-4.46,-0.51,0.51,0.49,-3.96,-3.96,-3.95
359,-4.47,-0.54,-4.46,-0.52,0.52,0.51,-3.95,-3.94,-3.93
363,-4.47,-0.55,-4.46,-0.53,0.53,0.54,-3.94,-3.92,-3.92
366,-4.47,-0.57,-4.45,-0.55,0.55,0.55,-3.92,-3.91,-3.90
370,-4.45,-0.56,-4.45,-0.56,0.56,0.58,-3.89,-3.89,-3.89
374,-4.45,-0.57,-4.45,-0.57,0.57,0.60,-3.88,-3.88,-3.88
377,-4.45,-0.59,-4.44,-0.58,0.58,0.62,-3.87,-3.86,-3.86
381,-4.42,-0.57,-4.44,-0.58,0.58,0.65,-3.84,-3.85,-3.85
385,-4.42,-0.58,-4.43,-0.59,0.59,0.67,-3.83,-3.84,-3.84
389,-4.42,-0.59,-4.42,-0.59,0.59,0.70,-3.83,-3.83,-3.83
393,-4.42,-0.60,-4.41,-0.59,0.59,0.72,-3.83,-3.82,-3.81
397,-4.42,-0.61,-4.40,-0.59,0.59,0.74,-3.82,-3.81,-3.81
401,-4.39,-0.59,-4.39,-0.59,0.59,0.77,-3.80,-3.80,-3.80
405,-4.38,-0.59,-4.39,-0.59,0.59,0.79,-3.79,-3.80,-3.79
409,-4.38,-0.59,-4.38,-0.59,0.59,0.81,-3.79,-3.79,-3.79
413,-4.38,-0.60,-4.37,-0.58,0.58,0.84,-3.79,-3.79,-3.78
417,-4.38,-0.60,-4.36,-0.58,0.58,0.86,-3.80,-3.78,-3.78
421,-4.34,-0.56,-4.35,-0.58,0.58,0.88,-3.76,-3.78,-3.78
425,-4.33,-0.56,-4.34,-0.57,0.57,0.90,-3.76,-3.77,-3.77
430,-4.33,-0.56,-4.33,-0.57,0.57,0.92,-3.76,-3.76,-3.77
434,-4.33,-0.57,-4.32,-0.57,0.57,0.94,-3.76,-3.75,-3.76
438,-4.33,-0.58,-4.32,-0.57,0.57,0.95,-3.76,-3.75,-3.75
443,-4.31,-0.56,-4.31,-0.57,0.57,0.97,-3.74,-3.74,-3.75
447,-4.28,-0.54,-4.30,-0.57,0.57,0.98,-3.71,-3.73,-3.73
451,-4.28,-0.56,-4.29,-0.58,0.58,0.99,-3.70,-3.72,-3.72
456,-4.28,-0.57,-4.29,-0.58,0.58,1.00,-3.70,-3.70,-3.71
460,-4.28,-0.58,-4.28,-0.58,0.58,1.00,-3.70,-3.70,-3.70
465,-4.28,-0.60,-4.27,-0.58,0.58,1.01,-3.70,-3.69,-3.68
470,-4.24,-0.57,-4.26,-0.58,0.58,1.01,-3.66,-3.68,-3.67
474,-4.24,-0.59,-4.24,-0.58,0.58,1.01,-3.66,-3.67,-3.65
479,-4.24,-0.60,-4.22,-0.57,0.57,1.00,-3.67,-3.65,-3.64
484,-4.19,-0.56,-4.19,-0.55,0.55,0.99,-3.64,-3.64,-3.62
489,-4.19,-0.58,-4.16,-0.53,0.53,0.98,-3.66,-3.63,-3.61
494,-4.14,-0.54,-4.12,-0.50,0.50,0.96,-3.64,-3.61,-3.60
499,-4.12,-0.53,-4.07,-0.47,0.47,0.94,-3.65,-3.60,-3.58
504,-4.05,-0.48,-4.02,-0.44,0.44,0.91,-3.61,-3.58,-3.57
509,-3.97,-0.41,-3.96,-0.40,0.40,0.89,-3.57,-3.56,-3.56
514,-3.90,-0.36,-3.91,-0.36,0.36,0.86,-3.54,-3.54,-3.54
519,-3.82,-0.30,-3.85,-0.32,0.32,0.82,-3.49,-3.53,-3.52
524,-3.75,-0.25,-3.79,-0.29,0.29,0.78,-3.46,-3.50,-3.50
529,-3.70,-0.22,-3.74,-0.25,0.25,0.74,-3.45,-3.48,-3.48
535,-3.65,-0.19,-3.68,-0.22,0.22,0.69,-3.43,-3.46,-3.46
540,-3.63,-0.19,-3.63,-0.19,0.19,0.65,-3.44,-3.43,-3.44
545,-3.59,-0.18,-3.58,-0.17,0.17,0.60,-3.42,-3.41,-3.41
551,-3.54,-0.15,-3.53,-0.14,0.14,0.54,-3.40,-3.39,-3.39
556,-3.51,-0.14,-3.49,-0.12,0.12,0.48,-3.39,-3.37,-3.37
562,-3.47,-0.13,-3.45,-0.11,0.11,0.42,-3.36,-3.35,-3.34
568,-3.42,-0.10,-3.42,-0.09,0.09,0.35,-3.33,-3.33,-3.32
573,-3.38,-0.08,-3.38,-0.08,0.08,0.29,-3.30,-3.31,-3.30
579,-3.34,-0.06,-3.34,-0.06,0.06,0.22,-3.28,-3.28,-3.28
585,-3.30,-0.04,-3.31,-0.04,0.04,0.15,-3.26,-3.27,-3.26
591,-3.26,-0.02,-3.27,-0.02,0.02,0.07,-3.24,-3.25,-3.24
596,-3.23,-0.00,-3.23,-0.00,0.00,0.01,-3.23,-3.23,-3.23
602,-3.19,0.02,-3.20,0.02,-0.02,-0.07,-3.21,-3.21,-3.21
608,-3.16,0.04,-3.16,0.04,-0.04,-0.15,-3.20,-3.20,-3.20
615,-3.12,0.06,-3.12,0.07,-0.07,-0.24,-3.19,-3.19,-3.18
621,-3.09,0.08,-3.08,0.10,-0.10,-0.32,-3.18,-3.17,-3.17
627,-3.05,0.11,-3.03,0.13,-0.13,-0.40,-3.17,-3.16,-3.16
633,-3.00,0.14,-2.98,0.16,-0.16,-0.48,-3.16,-3.14,-3.14
639,-2.96,0.17,-2.93,0.19,-0.19,-0.56,-3.15,-3.13,-3.13
646,-2.89,0.22,-2.88,0.23,-0.23,-0.65,-3.12,-3.11,-3.11
652,-2.83,0.27,-2.83,0.26,-0.26,-0.73,-3.09,-3.10,-3.10
659,-2.77,0.31,-2.78,0.31,-0.31,-0.83,-3.07,-3.09,-3.08
665,-2.72,0.35,-2.73,0.35,-0.35,-0.91,-3.07,-3.08,-3.07
672,-2.65,0.41,-2.67,0.39,-0.39,-1.01,-3.04,-3.06,-3.05
679,-2.58,0.46,-2.62,0.44,-0.44,-1.10,-3.02,-3.05,-3.04
686,-2.54,0.49,-2.55,0.49,-0.49,-1.20,-3.03,-3.04,-3.03
692,-2.50,0.52,-2.49,0.54,-0.54,-1.28,-3.04,-3.03,-3.02
699,-2.45,0.56,-2.43,0.60,-0.60,-1.38,-3.05,-3.02,-3.01
706,-2.40,0.61,-2.36,0.65,-0.65,-1.48,-3.05,-3.01,-3.01
713,-2.34,0.66,-2.29,0.71,-0.71,-1.58,-3.05,-3.01,-3.00
721,-2.23,0.77,-2.23,0.77,-0.77,-1.69,-3.00,-3.00,-3.00
728,-2.17,0.83,-2.16,0.84,-0.84,-1.79,-3.01,-3.00,-2.99
735,-2.06,0.93,-2.09,0.90,-0.90,-1.88,-2.96,-2.99,-2.99
742,-2.01,0.98,-2.02,0.97,-0.97,-1.98,-2.98,-2.99,-2.98
750,-1.90,1.08,-1.95,1.04,-1.04,-2.09,-2.94,-2.99,-2.98
757,-1.85,1.12,-1.87,1.11,-1.11,-2.19,-2.96,-2.98,-2.97
765,-1.79,1.17,-1.79,1.18,-1.18,-2.30,-2.97,-2.97,-2.96
773,-1.72,1.24,-1.71,1.25,-1.25,-2.41,-2.97,-2.96,-2.96
780,-1.67,1.28,-1.62,1.33,-1.33,-2.51,-3.00,-2.95,-2.95
788,-1.58,1.36,-1.54,1.40,-1.40,-2.62,-2.98,-2.94,-2.94
796,-1.52,1.41,-1.46,1.47,-1.47,-2.73,-2.99,-2.93,-2.93
804,-1.41,1.51,-1.38,1.54,-1.54,-2.84,-2.95,-2.92,-2.92
812,-1.30,1.61,-1.31,1.61,-1.61,-2.95,-2.91,-2.92,-2.91
820,-1.22,1.68,-1.24,1.67,-1.67,-3.05,-2.89,-2.91,-2.90
828,-1.13,1.77,-1.17,1.73,-1.73,-3.16,-2.86,-2.90,-2.90
837,-1.04,1.85,-1.11,1.78,-1.78,-3.27,-2.82,-2.90,-2.89
845,-0.99,1.90,-1.06,1.83,-1.83,-3.37,-2.82,-2.89,-2.89
853,-0.97,1.92,-1.02,1.88,-1.88,-3.47,-2.84,-2.89,-2.89
862,-0.97,1.92,-0.98,1.91,-1.91,-3.57,-2.88,-2.89,-2.89
871,-0.96,1.94,-0.95,1.95,-1.95,-3.68,-2.91,-2.90,-2.89
879,-0.93,1.97,-0.91,1.98,-1.98,-3.76,-2.91,-2.90,-2.90
888,-0.90,2.00,-0.89,2.02,-2.02,-3.85,-2.92,-2.90,-2.90
897,-0.88,2.02,-0.86,2.05,-2.05,-3.94,-2.93,-2.91,-2.90
906,-0.86,2.04,-0.82,2.09,-2.09,-4.02,-2.95,-2.91,-2.89
915,-0.81,2.08,-0.78,2.13,-2.13,-4.10,-2.94,-2.91,-2.89
924,-0.76,2.13,-0.73,2.17,-2.17,-4.16,-2.93,-2.90,-2.89
933,-0.67,2.21,-0.67,2.23,-2.23,-4.23,-2.89,-2.89,-2.88
943,-0.60,2.27,-0.59,2.29,-2.29,-4.28,-2.89,-2.88,-2.87
952,-0.49,2.37,-0.51,2.35,-2.35,-4.33,-2.84,-2.87,-2.86
962,-0.41,2.44,-0.43,2.43,-2.43,-4.37,-2.84,-2.86,-2.85
971,-0.32,2.52,-0.33,2.51,-2.51,-4.40,-2.83,-2.84,-2.84
981,-0.22,2.60,-0.22,2.61,-2.61,-4.42,-2.83,-2.83,-2.82
991,-0.10,2.70,-0.10,2.71,-2.71,-4.44,-2.81,-2.81,-2.80
1001,0.01,2.79,0.03,2.81,-2.81,-4.44,-2.80,-2.79,-2.78
1011,0.17,2.92,0.16,2.93,-2.93,-4.43,-2.76,-2.77,-2.75
1021,0.27,3.00,0.31,3.05,-3.05,-4.42,-2.78,-2.74,-2.73
1031,0.43,3.13,0.46,3.18,-3.18,-4.40,-2.75,-2.72,-2.70
1041,0.59,3.26,0.62,3.32,-3.32,-4.37,-2.73,-2.69,-2.67
1052,0.78,3.43,0.79,3.46,-3.46,-4.32,-2.67,-2.67,-2.65
1062,0.96,3.58,0.97,3.60,-3.60,-4.28,-2.64,-2.63,-2.62
1073,1.14,3.73,1.15,3.75,-3.75,-4.22,-2.60,-2.60,-2.59
1084,1.36,3.92,1.33,3.89,-3.89,-4.15,-2.53,-2.57,-2.56
1094,1.54,4.07,1.51,4.04,-4.04,-4.09,-2.50,-2.53,-2.53
1105,1.71,4.21,1.69,4.19,-4.19,-4.01,-2.48,-2.50,-2.50
1116,1.88,4.35,1.87,4.34,-4.34,-3.93,-2.46,-2.47,-2.47
1128,2.05,4.49,2.04,4.48,-4.48,-3.84,-2.43,-2.44,-2.44
1139,2.23,4.64,2.22,4.63,-4.63,-3.75,-2.40,-2.41,-2.41
1150,2.39,4.76,2.40,4.77,-4.77,-3.66,-2.38,-2.38,-2.37
1162,2.56,4.89,2.57,4.92,-4.92,-3.56,-2.35,-2.34,-2.33
1173,2.71,5.01,2.75,5.05,-5.05,-3.46,-2.34,-2.30,-2.29
1185,2.86,5.11,2.92,5.18,-5.18,-3.36,-2.32,-2.26,-2.25
1197,3.02,5.23,3.09,5.30,-5.30,-3.25,-2.28,-2.21,-2.21
1209,3.22,5.39,3.25,5.41,-5.41,-3.15,-2.19,-2.16,-2.16
1221,3.39,5.51,3.40,5.51,-5.51,-3.04,-2.12,-2.11,-2.12
1233,3.53,5.60,3.53,5.59,-5.59,-2.94,-2.06,-2.06,-2.07
1246,3.71,5.72,3.65,5.65,-5.65,-2.82,-1.94,-2.00,-2.01
1258,3.81,5.77,3.74,5.69,-5.69,-2.72,-1.88,-1.95,-1.96
1271,3.90,5.80,3.82,5.71,-5.71,-2.61,-1.81,-1.89,-1.90
1283,3.96,5.81,3.87,5.70,-5.70,-2.51,-1.74,-1.83,-1.85
1296,3.95,5.74,3.91,5.67,-5.67,-2.40,-1.72,-1.76,-1.78
1309,3.92,5.64,3.91,5.61,-5.61,-2.29,-1.69,-1.70,-1.72
1322,3.87,5.53,3.89,5.53,-5.53,-2.19,-1.66,-1.63,-1.66
1335,3.82,5.41,3.85,5.43,-5.43,-2.08,-1.60,-1.57,-1.59
1349,3.76,5.28,3.79,5.31,-5.31,-1.98,-1.54,-1.51,-1.52
1362,3.71,5.16,3.72,5.17,-5.17,-1.88,-1.46,-1.45,-1.45
1376,3.65,5.03,3.63,5.02,-5.02,-1.77,-1.37,-1.40,-1.38
1390,3.55,4.86,3.54,4.87,-4.87,-1.67,-1.32,-1.34,-1.31
1404,3.46,4.70,3.44,4.71,-4.71,-1.57,-1.25,-1.27,-1.24
1418,3.35,4.52,3.35,4.55,-4.55,-1.48,-1.20,-1.20,-1.17
1432,3.24,4.34,3.26,4.39,-4.39,-1.38,-1.15,-1.13,-1.10
1446,3.16,4.19,3.18,4.23,-4.23,-1.29,-1.07,-1.06,-1.03
1461,3.04,3.99,3.09,4.08,-4.08,-1.19,-1.04,-0.98,-0.95
1475,2.94,3.82,3.02,3.92,-3.92,-1.10,-0.98,-0.91,-0.88
1490,2.89,3.70,2.94,3.77,-3.77,-1.01,-0.88,-0.83,-0.80
1505,2.85,3.58,2.87,3.62,-3.62,-0.92,-0.77,-0.75,-0.73
1520,2.80,3.45,2.80,3.46,-3.46,-0.83,-0.66,-0.66,-0.65
1535,2.77,3.34,2.73,3.31,-3.31,-0.74,-0.54,-0.58,-0.57
