frequency,raw,error,smoothed,error_smoothed,equalization,parametric_eq,equalized_raw,equalized_smoothed,target
20.00,7.64,2.29,7.64,2.29,-2.29,-1.58,5.35,5.35,5.35
20.20,7.66,2.31,7.66,2.32,-2.32,-1.62,5.34,5.34,5.35
20.40,7.69,2.35,7.69,2.35,-2.35,-1.67,5.35,5.34,5.35
20.61,7.72,2.38,7.72,2.37,-2.37,-1.71,5.35,5.34,5.34
20.81,7.74,2.40,7.74,2.40,-2.40,-1.76,5.34,5.34,5.34
21.02,7.77,2.43,7.77,2.43,-2.43,-1.81,5.34,5.34,5.34
21.23,7.79,2.45,7.80,2.46,-2.46,-1.86,5.33,5.34,5.34
21.44,7.81,2.47,7.82,2.49,-2.49,-1.91,5.33,5.34,5.34
21.66,7.84,2.50,7.85,2.52,-2.52,-1.96,5.33,5.33,5.34
21.87,7.87,2.54,7.88,2.54,-2.54,-2.02,5.33,5.33,5.34
22.09,7.90,2.57,7.90,2.57,-2.57,-2.07,5.33,5.33,5.33
22.31,7.93,2.60,7.93,2.60,-2.60,-2.13,5.33,5.33,5.33
22.54,7.96,2.63,7.96,2.63,-2.63,-2.19,5.33,5.33,5.33
22.76,7.99,2.66,7.99,2.66,-2.66,-2.25,5.33,5.33,5.33
22.99,8.02,2.69,8.02,2.69,-2.69,-2.31,5.33,5.32,5.33
23.22,8.05,2.73,8.05,2.72,-2.72,-2.37,5.33,5.32,5.32
23.45,8.08,2.76,8.07,2.75,-2.75,-2.44,5.33,5.32,5.32
23.69,8.11,2.79,8.10,2.78,-2.78,-2.50,5.33,5.32,5.32
23.92,8.13,2.81,8.13,2.81,-2.81,-2.57,5.32,5.32,5.32
24.16,8.16,2.84,8.16,2.84,-2.84,-2.64,5.32,5.32,5.32
24.40,8.18,2.87,8.19,2.87,-2.87,-2.70,5.31,5.31,5.31
24.65,8.21,2.90,8.22,2.91,-2.91,-2.77,5.31,5.31,5.31
24.89,8.24,2.93,8.25,2.94,-2.94,-2.84,5.31,5.31,5.31
25.14,8.27,2.96,8.27,2.97,-2.97,-2.92,5.30,5.31,5.31
25.39,8.30,3.00,8.30,3.00,-3.00,-2.99,5.30,5.30,5.31
25.65,8.33,3.03,8.33,3.03,-3.03,-3.06,5.30,5.30,5.30
25.91,8.36,3.06,8.36,3.06,-3.06,-3.13,5.30,5.30,5.30
26.16,8.39,3.09,8.39,3.09,-3.09,-3.20,5.30,5.30,5.30
26.43,8.42,3.13,8.42,3.13,-3.13,-3.27,5.29,5.30,5.30
26.69,8.45,3.16,8.45,3.16,-3.16,-3.34,5.29,5.29,5.29
26.96,8.48,3.19,8.48,3.19,-3.19,-3.41,5.29,5.29,5.29
27.23,8.51,3.22,8.51,3.22,-3.22,-3.48,5.29,5.29,5.29
27.50,8.54,3.26,8.54,3.26,-3.26,-3.55,5.29,5.29,5.28
27.77,8.57,3.29,8.57,3.29,-3.29,-3.61,5.28,5.28,5.28
28.05,8.60,3.32,8.60,3.32,-3.32,-3.67,5.28,5.28,5.28
28.33,8.62,3.35,8.63,3.35,-3.35,-3.73,5.27,5.28,5.28
28.62,8.66,3.39,8.65,3.38,-3.38,-3.79,5.28,5.27,5.27
28.90,8.68,3.41,8.68,3.41,-3.41,-3.84,5.27,5.27,5.27
29.19,8.71,3.45,8.71,3.44,-3.44,-3.89,5.27,5.26,5.27
29.48,8.73,3.47,8.74,3.48,-3.48,-3.94,5.26,5.26,5.26
29.78,8.77,3.51,8.76,3.51,-3.51,-3.98,5.26,5.26,5.26
30.08,8.79,3.54,8.79,3.54,-3.54,-4.02,5.25,5.25,5.25
30.38,8.81,3.56,8.82,3.57,-3.57,-4.05,5.24,5.25,5.25
30.68,8.84,3.59,8.84,3.60,-3.60,-4.08,5.24,5.25,5.25
30.99,8.87,3.63,8.87,3.63,-3.63,-4.10,5.24,5.24,5.24
31.30,8.89,3.65,8.90,3.66,-3.66,-4.12,5.23,5.24,5.24
31.61,8.92,3.69,8.92,3.69,-3.69,-4.14,5.23,5.23,5.23
31.93,8.95,3.72,8.95,3.72,-3.72,-4.15,5.23,5.23,5.23
32.24,8.97,3.75,8.98,3.75,-3.75,-4.15,5.22,5.22,5.22
32.57,9.00,3.78,9.00,3.78,-3.78,-4.16,5.22,5.22,5.22
32.89,9.03,3.82,9.03,3.81,-3.81,-4.15,5.22,5.21,5.22
33.22,9.05,3.84,9.05,3.84,-3.84,-4.15,5.21,5.21,5.21
33.55,9.07,3.87,9.08,3.87,-3.87,-4.14,5.20,5.20,5.21
33.89,9.10,3.90,9.10,3.90,-3.90,-4.13,5.20,5.20,5.20
34.23,9.12,3.93,9.12,3.93,-3.93,-4.11,5.19,5.19,5.19
34.57,9.15,3.96,9.14,3.95,-3.95,-4.09,5.20,5.19,5.19
34.92,9.17,3.99,9.16,3.98,-3.98,-4.07,5.19,5.18,5.18
35.27,9.18,4.00,9.18,4.00,-4.00,-4.05,5.18,5.18,5.18
35.62,9.20,4.03,9.20,4.03,-4.03,-4.03,5.17,5.17,5.17
35.97,9.21,4.05,9.22,4.05,-4.05,-4.01,5.16,5.16,5.17
36.33,9.23,4.07,9.23,4.07,-4.07,-3.98,5.16,5.16,5.16
36.70,9.24,4.09,9.25,4.09,-4.09,-3.96,5.15,5.15,5.15
37.06,9.26,4.12,9.26,4.11,-4.11,-3.93,5.15,5.14,5.15
37.43,9.27,4.13,9.27,4.13,-4.13,-3.91,5.14,5.14,5.14
37.81,9.28,4.15,9.28,4.15,-4.15,-3.89,5.13,5.13,5.13
38.19,9.29,4.17,9.29,4.17,-4.17,-3.86,5.12,5.12,5.12
38.57,9.30,4.19,9.30,4.19,-4.19,-3.84,5.11,5.11,5.12
38.95,9.31,4.20,9.31,4.21,-4.21,-3.82,5.11,5.11,5.11
39.34,9.32,4.22,9.32,4.22,-4.22,-3.81,5.10,5.10,5.10
39.74,9.33,4.24,9.33,4.24,-4.24,-3.79,5.09,5.09,5.09
40.14,9.34,4.26,9.34,4.25,-4.25,-3.78,5.09,5.08,5.08
40.54,9.33,4.26,9.34,4.27,-4.27,-3.76,5.06,5.07,5.07
40.94,9.35,4.29,9.35,4.28,-4.28,-3.75,5.07,5.07,5.07
41.35,9.35,4.30,9.35,4.29,-4.29,-3.75,5.06,5.06,5.06
41.76,9.35,4.31,9.35,4.31,-4.31,-3.74,5.04,5.05,5.05
42.18,9.36,4.32,9.35,4.32,-4.32,-3.74,5.04,5.04,5.04
42.60,9.35,4.33,9.35,4.33,-4.33,-3.74,5.02,5.03,5.03
43.03,9.36,4.35,9.35,4.34,-4.34,-3.75,5.02,5.01,5.02
43.46,9.35,4.35,9.35,4.35,-4.35,-3.76,5.00,5.00,5.01
43.90,9.35,4.36,9.35,4.36,-4.36,-3.77,5.00,4.99,4.99
44.33,9.34,4.36,9.35,4.36,-4.36,-3.78,4.98,4.98,4.98
44.78,9.33,4.36,9.34,4.37,-4.37,-3.79,4.96,4.97,4.97
45.23,9.33,4.37,9.34,4.38,-4.38,-3.81,4.95,4.96,4.96
45.68,9.33,4.38,9.33,4.38,-4.38,-3.83,4.95,4.95,4.95
46.13,9.32,4.39,9.32,4.39,-4.39,-3.86,4.93,4.93,4.93
46.60,9.31,4.39,9.31,4.39,-4.39,-3.89,4.92,4.92,4.92
47.06,9.31,4.40,9.31,4.40,-4.40,-3.92,4.91,4.91,4.91
47.53,9.30,4.41,9.30,4.40,-4.40,-3.95,4.90,4.89,4.89
48.01,9.29,4.41,9.29,4.41,-4.41,-3.98,4.88,4.88,4.88
48.49,9.27,4.41,9.28,4.41,-4.41,-4.02,4.86,4.86,4.87
48.97,9.26,4.41,9.26,4.42,-4.42,-4.06,4.85,4.85,4.85
49.46,9.25,4.42,9.25,4.42,-4.42,-4.10,4.83,4.83,4.83
49.96,9.24,4.42,9.24,4.42,-4.42,-4.15,4.82,4.82,4.82
50.46,9.22,4.42,9.22,4.42,-4.42,-4.19,4.80,4.80,4.80
50.96,9.20,4.42,9.21,4.42,-4.42,-4.24,4.78,4.79,4.79
51.47,9.19,4.42,9.19,4.42,-4.42,-4.29,4.77,4.77,4.77
51.99,9.17,4.42,9.17,4.42,-4.42,-4.34,4.75,4.75,4.75
52.51,9.16,4.43,9.15,4.42,-4.42,-4.39,4.74,4.73,4.73
53.03,9.13,4.42,9.13,4.42,-4.42,-4.44,4.71,4.71,4.71
53.56,9.11,4.42,9.11,4.42,-4.42,-4.49,4.70,4.70,4.70
54.10,9.09,4.42,9.09,4.41,-4.41,-4.53,4.68,4.68,4.68
54.64,9.06,4.41,9.06,4.41,-4.41,-4.58,4.65,4.66,4.66
55.18,9.04,4.41,9.04,4.40,-4.40,-4.63,4.64,4.64,4.64
55.74,9.01,4.40,9.01,4.40,-4.40,-4.67,4.62,4.61,4.61
56.29,8.98,4.39,8.98,4.39,-4.39,-4.71,4.59,4.59,4.59
56.86,8.95,4.38,8.95,4.38,-4.38,-4.75,4.57,4.57,4.57
57.42,8.92,4.37,8.92,4.37,-4.37,-4.79,4.55,4.55,4.55
58.00,8.89,4.37,8.89,4.36,-4.36,-4.82,4.53,4.52,4.53
58.58,8.85,4.35,8.85,4.35,-4.35,-4.85,4.50,4.50,4.50
59.16,8.81,4.33,8.82,4.34,-4.34,-4.87,4.47,4.48,4.48
59.76,8.78,4.33,8.78,4.33,-4.33,-4.89,4.45,4.45,4.45
60.35,8.74,4.31,8.75,4.32,-4.32,-4.90,4.42,4.43,4.43
60.96,8.71,4.31,8.71,4.31,-4.31,-4.90,4.40,4.40,4.40
61.57,8.67,4.30,8.67,4.30,-4.30,-4.91,4.37,4.37,4.37
62.18,8.63,4.28,8.63,4.29,-4.29,-4.90,4.34,4.35,4.35
62.80,8.60,4.28,8.59,4.28,-4.28,-4.89,4.32,4.32,4.32
63.43,8.56,4.27,8.55,4.26,-4.26,-4.87,4.30,4.29,4.29
64.07,8.51,4.25,8.51,4.25,-4.25,-4.85,4.26,4.26,4.26
64.71,8.47,4.24,8.47,4.24,-4.24,-4.82,4.23,4.23,4.23
65.35,8.42,4.22,8.42,4.22,-4.22,-4.78,4.20,4.20,4.20
66.01,8.38,4.21,8.38,4.21,-4.21,-4.74,4.17,4.17,4.17
66.67,8.33,4.19,8.33,4.19,-4.19,-4.70,4.14,4.14,4.14
67.33,8.28,4.17,8.28,4.18,-4.18,-4.64,4.10,4.11,4.11
68.01,8.23,4.16,8.24,4.16,-4.16,-4.59,4.07,4.07,4.07
68.69,8.18,4.14,8.19,4.15,-4.15,-4.53,4.04,4.04,4.04
69.37,8.13,4.12,8.13,4.13,-4.13,-4.47,4.00,4.01,4.01
70.07,8.08,4.11,8.08,4.11,-4.11,-4.40,3.97,3.97,3.97
70.77,8.03,4.10,8.03,4.09,-4.09,-4.33,3.94,3.94,3.94
71.48,7.98,4.08,7.97,4.07,-4.07,-4.26,3.91,3.90,3.90
72.19,7.91,4.05,7.92,4.05,-4.05,-4.19,3.86,3.86,3.86
72.91,7.86,4.03,7.86,4.03,-4.03,-4.12,3.83,3.83,3.83
73.64,7.80,4.01,7.80,4.01,-4.01,-4.04,3.79,3.79,3.79
74.38,7.74,3.99,7.74,3.99,-3.99,-3.97,3.75,3.75,3.75
75.12,7.68,3.97,7.68,3.97,-3.97,-3.89,3.71,3.71,3.71
75.87,7.61,3.94,7.61,3.94,-3.94,-3.81,3.67,3.67,3.67
76.63,7.55,3.92,7.55,3.92,-3.92,-3.74,3.63,3.63,3.63
77.40,7.48,3.89,7.48,3.89,-3.89,-3.67,3.59,3.59,3.59
78.17,7.42,3.87,7.42,3.87,-3.87,-3.59,3.55,3.55,3.55
78.95,7.34,3.83,7.35,3.84,-3.84,-3.52,3.50,3.51,3.51
79.74,7.28,3.82,7.28,3.81,-3.81,-3.45,3.47,3.47,3.47
80.54,7.20,3.78,7.21,3.79,-3.79,-3.38,3.41,3.42,3.42
81.35,7.14,3.76,7.14,3.76,-3.76,-3.31,3.38,3.38,3.38
82.16,7.06,3.73,7.07,3.73,-3.73,-3.24,3.33,3.34,3.34
82.98,6.99,3.70,6.99,3.70,-3.70,-3.18,3.29,3.29,3.29
83.81,6.92,3.67,6.92,3.67,-3.67,-3.12,3.25,3.25,3.25
84.65,6.85,3.65,6.84,3.64,-3.64,-3.06,3.21,3.20,3.20
85.50,6.76,3.61,6.76,3.61,-3.61,-3.00,3.15,3.16,3.16
86.35,6.69,3.58,6.69,3.58,-3.58,-2.95,3.11,3.11,3.11
87.22,6.60,3.54,6.61,3.55,-3.55,-2.89,3.06,3.06,3.06
88.09,6.53,3.51,6.53,3.51,-3.51,-2.84,3.02,3.02,3.02
88.97,6.44,3.47,6.45,3.48,-3.48,-2.79,2.96,2.97,2.97
89.86,6.37,3.45,6.37,3.44,-3.44,-2.74,2.93,2.92,2.92
90.76,6.28,3.41,6.28,3.41,-3.41,-2.70,2.88,2.87,2.88
91.66,6.19,3.36,6.20,3.37,-3.37,-2.66,2.82,2.83,2.83
92.58,6.11,3.33,6.11,3.33,-3.33,-2.62,2.78,2.78,2.78
93.51,6.02,3.29,6.02,3.29,-3.29,-2.58,2.73,2.73,2.73
94.44,5.94,3.26,5.94,3.25,-3.25,-2.54,2.69,2.68,2.68
95.39,5.85,3.22,5.85,3.21,-3.21,-2.51,2.64,2.63,2.63
96.34,5.75,3.17,5.76,3.17,-3.17,-2.48,2.58,2.59,2.59
97.30,5.66,3.12,5.67,3.13,-3.13,-2.45,2.53,2.54,2.54
98.28,5.58,3.09,5.57,3.08,-3.08,-2.42,2.50,2.49,2.49
99.26,5.47,3.03,5.48,3.04,-3.04,-2.39,2.43,2.44,2.44
100.25,5.39,3.00,5.38,2.99,-2.99,-2.36,2.40,2.39,2.39
101.25,5.28,2.94,5.29,2.95,-2.95,-2.34,2.33,2.34,2.34
102.27,5.19,2.90,5.19,2.90,-2.90,-2.31,2.29,2.29,2.29
103.29,5.09,2.85,5.09,2.85,-2.85,-2.29,2.24,2.24,2.24
104.32,4.99,2.80,4.99,2.80,-2.80,-2.27,2.19,2.19,2.19
105.37,4.89,2.75,4.89,2.74,-2.74,-2.25,2.15,2.15,2.15
106.42,4.79,2.69,4.79,2.69,-2.69,-2.23,2.10,2.10,2.10
107.48,4.68,2.63,4.69,2.64,-2.64,-2.21,2.04,2.05,2.05
108.56,4.58,2.58,4.58,2.58,-2.58,-2.19,2.00,2.00,2.00
109.64,4.47,2.52,4.48,2.52,-2.52,-2.17,1.95,1.95,1.95
110.74,4.37,2.47,4.37,2.47,-2.47,-2.15,1.90,1.91,1.90
111.85,4.27,2.41,4.26,2.41,-2.41,-2.13,1.86,1.86,1.86
112.97,4.16,2.35,4.16,2.35,-2.35,-2.11,1.81,1.81,1.81
114.10,4.05,2.29,4.05,2.29,-2.29,-2.09,1.77,1.76,1.76
115.24,3.94,2.22,3.94,2.22,-2.22,-2.06,1.72,1.72,1.72
116.39,3.83,2.16,3.83,2.16,-2.16,-2.04,1.67,1.67,1.67
117.55,3.72,2.10,3.72,2.10,-2.10,-2.01,1.62,1.62,1.63
118.73,3.61,2.03,3.61,2.03,-2.03,-1.99,1.58,1.58,1.58
119.92,3.50,1.97,3.50,1.97,-1.97,-1.96,1.53,1.53,1.53
121.12,3.39,1.90,3.39,1.91,-1.91,-1.93,1.49,1.49,1.49
122.33,3.28,1.84,3.29,1.84,-1.84,-1.89,1.44,1.45,1.45
123.55,3.17,1.77,3.18,1.78,-1.78,-1.86,1.40,1.40,1.40
124.79,3.07,1.71,3.07,1.71,-1.71,-1.82,1.36,1.36,1.36
126.03,2.95,1.63,2.96,1.64,-1.64,-1.78,1.31,1.32,1.32
127.29,2.85,1.58,2.85,1.58,-1.58,-1.74,1.28,1.27,1.28
128.57,2.75,1.52,2.74,1.51,-1.51,-1.70,1.24,1.23,1.23
129.85,2.63,1.44,2.63,1.44,-1.44,-1.65,1.19,1.19,1.19
131.15,2.53,1.38,2.53,1.37,-1.37,-1.60,1.16,1.15,1.15
132.46,2.41,1.30,2.42,1.30,-1.30,-1.55,1.11,1.11,1.11
133.79,2.31,1.24,2.31,1.24,-1.24,-1.50,1.08,1.07,1.07
135.12,2.20,1.17,2.20,1.17,-1.17,-1.44,1.04,1.03,1.03
136.48,2.09,1.10,2.09,1.09,-1.09,-1.39,1.00,1.00,1.00
137.84,1.98,1.02,1.98,1.02,-1.02,-1.33,0.96,0.96,0.96
139.22,1.87,0.95,1.87,0.95,-0.95,-1.27,0.92,0.92,0.92
140.61,1.76,0.88,1.77,0.88,-0.88,-1.21,0.88,0.89,0.89
142.02,1.65,0.80,1.66,0.81,-0.81,-1.14,0.84,0.85,0.85
143.44,1.55,0.74,1.55,0.73,-0.73,-1.08,0.82,0.81,0.82
144.87,1.43,0.65,1.44,0.66,-0.66,-1.01,0.77,0.78,0.78
146.32,1.33,0.58,1.33,0.58,-0.58,-0.94,0.75,0.75,0.75
147.78,1.23,0.52,1.22,0.51,-0.51,-0.88,0.72,0.71,0.71
149.26,1.12,0.44,1.11,0.43,-0.43,-0.81,0.69,0.68,0.68
150.75,1.00,0.35,1.01,0.36,-0.36,-0.74,0.65,0.65,0.65
152.26,0.90,0.28,0.90,0.28,-0.28,-0.67,0.62,0.62,0.62
153.78,0.79,0.20,0.79,0.20,-0.20,-0.60,0.59,0.59,0.59
155.32,0.68,0.12,0.68,0.12,-0.12,-0.52,0.56,0.56,0.56
156.88,0.56,0.03,0.57,0.04,-0.04,-0.45,0.52,0.53,0.53
158.44,0.46,-0.04,0.46,-0.04,0.04,-0.38,0.50,0.50,0.50
160.03,0.35,-0.12,0.35,-0.12,0.12,-0.30,0.47,0.47,0.47
161.63,0.24,-0.20,0.24,-0.20,0.20,-0.23,0.44,0.44,0.44
163.24,0.13,-0.29,0.13,-0.28,0.28,-0.15,0.41,0.42,0.42
164.88,0.02,-0.37,0.03,-0.36,0.36,-0.08,0.39,0.39,0.39
166.53,-0.08,-0.44,-0.08,-0.44,0.44,-0.00,0.37,0.36,0.36
168.19,-0.19,-0.53,-0.19,-0.52,0.52,0.07,0.34,0.34,0.34
169.87,-0.29,-0.60,-0.29,-0.60,0.60,0.15,0.32,0.31,0.31
171.57,-0.40,-0.69,-0.39,-0.68,0.68,0.22,0.28,0.29,0.29
173.29,-0.49,-0.76,-0.49,-0.76,0.76,0.30,0.27,0.27,0.27
175.02,-0.60,-0.84,-0.59,-0.84,0.84,0.38,0.24,0.24,0.24
176.77,-0.69,-0.91,-0.69,-0.91,0.91,0.46,0.22,0.22,0.22
178.54,-0.79,-0.99,-0.79,-0.99,0.99,0.54,0.20,0.20,0.20
180.32,-0.88,-1.06,-0.88,-1.06,1.06,0.61,0.18,0.18,0.18
182.13,-0.98,-1.14,-0.98,-1.13,1.13,0.69,0.16,0.16,0.16
183.95,-1.07,-1.21,-1.07,-1.21,1.21,0.77,0.14,0.14,0.14
185.79,-1.16,-1.28,-1.16,-1.28,1.28,0.85,0.12,0.12,0.12
187.65,-1.25,-1.35,-1.25,-1.34,1.34,0.93,0.10,0.10,0.10
189.52,-1.34,-1.42,-1.33,-1.41,1.41,1.01,0.07,0.08,0.08
191.42,-1.42,-1.48,-1.42,-1.48,1.48,1.09,0.06,0.06,0.06
193.33,-1.49,-1.53,-1.50,-1.54,1.54,1.17,0.05,0.04,0.04
195.27,-1.58,-1.61,-1.58,-1.60,1.60,1.26,0.03,0.03,0.03
197.22,-1.65,-1.66,-1.66,-1.67,1.67,1.34,0.02,0.01,0.01
199.19,-1.74,-1.73,-1.73,-1.72,1.72,1.42,-0.01,-0.01,-0.01
201.18,-1.81,-1.79,-1.81,-1.78,1.78,1.50,-0.03,-0.02,-0.02
203.19,-1.87,-1.83,-1.88,-1.84,1.84,1.58,-0.03,-0.04,-0.04
205.23,-1.95,-1.90,-1.95,-1.89,1.89,1.66,-0.06,-0.05,-0.05
207.28,-2.01,-1.94,-2.01,-1.95,1.95,1.74,-0.06,-0.07,-0.07
209.35,-2.09,-2.01,-2.08,-2.00,2.00,1.82,-0.09,-0.08,-0.08
211.44,-2.15,-2.05,-2.14,-2.05,2.05,1.89,-0.10,-0.10,-0.10
213.56,-2.20,-2.09,-2.20,-2.09,2.09,1.97,-0.11,-0.11,-0.11
215.69,-2.26,-2.14,-2.26,-2.14,2.14,2.04,-0.12,-0.12,-0.12
217.85,-2.32,-2.18,-2.32,-2.18,2.18,2.12,-0.14,-0.14,-0.14
220.03,-2.37,-2.22,-2.37,-2.22,2.22,2.19,-0.15,-0.15,-0.15
222.23,-2.42,-2.26,-2.42,-2.26,2.26,2.26,-0.16,-0.16,-0.16
224.45,-2.47,-2.30,-2.47,-2.30,2.30,2.32,-0.17,-0.17,-0.17
226.70,-2.52,-2.33,-2.52,-2.33,2.33,2.38,-0.19,-0.19,-0.18
228.96,-2.56,-2.36,-2.56,-2.36,2.36,2.44,-0.20,-0.20,-0.20
231.25,-2.60,-2.39,-2.60,-2.39,2.39,2.50,-0.21,-0.21,-0.21
233.57,-2.64,-2.42,-2.63,-2.42,2.42,2.55,-0.22,-0.22,-0.22
235.90,-2.67,-2.44,-2.67,-2.44,2.44,2.60,-0.23,-0.23,-0.23
238.26,-2.70,-2.46,-2.70,-2.46,2.46,2.64,-0.24,-0.24,-0.24
240.64,-2.73,-2.48,-2.73,-2.48,2.48,2.68,-0.25,-0.25,-0.25
243.05,-2.75,-2.49,-2.75,-2.50,2.50,2.72,-0.25,-0.26,-0.26
245.48,-2.78,-2.51,-2.78,-2.51,2.51,2.75,-0.27,-0.27,-0.27
247.93,-2.80,-2.52,-2.80,-2.52,2.52,2.78,-0.28,-0.28,-0.27
250.41,-2.81,-2.53,-2.81,-2.53,2.53,2.80,-0.28,-0.28,-0.28
252.92,-2.83,-2.54,-2.83,-2.54,2.54,2.81,-0.29,-0.29,-0.29
255.45,-2.85,-2.55,-2.84,-2.54,2.54,2.82,-0.31,-0.30,-0.30
258.00,-2.86,-2.55,-2.85,-2.54,2.54,2.83,-0.32,-0.31,-0.31
260.58,-2.86,-2.54,-2.86,-2.54,2.54,2.83,-0.32,-0.32,-0.32
263.19,-2.86,-2.54,-2.87,-2.54,2.54,2.83,-0.32,-0.32,-0.32
265.82,-2.87,-2.54,-2.87,-2.54,2.54,2.82,-0.33,-0.33,-0.33
268.48,-2.87,-2.53,-2.87,-2.53,2.53,2.81,-0.33,-0.34,-0.34
271.16,-2.87,-2.52,-2.87,-2.53,2.53,2.80,-0.34,-0.35,-0.34
273.87,-2.88,-2.53,-2.87,-2.52,2.52,2.78,-0.36,-0.35,-0.35
276.61,-2.87,-2.51,-2.87,-2.51,2.51,2.76,-0.36,-0.36,-0.36
279.38,-2.87,-2.50,-2.87,-2.50,2.50,2.73,-0.37,-0.36,-0.36
282.17,-2.86,-2.49,-2.86,-2.49,2.49,2.71,-0.37,-0.37,-0.37
284.99,-2.86,-2.48,-2.86,-2.48,2.48,2.68,-0.38,-0.38,-0.38
287.84,-2.86,-2.48,-2.85,-2.47,2.47,2.65,-0.39,-0.38,-0.38
290.72,-2.84,-2.45,-2.84,-2.45,2.45,2.62,-0.39,-0.39,-0.39
293.63,-2.83,-2.44,-2.83,-2.44,2.44,2.59,-0.39,-0.39,-0.39
296.57,-2.82,-2.42,-2.82,-2.42,2.42,2.56,-0.40,-0.40,-0.40
299.53,-2.81,-2.41,-2.81,-2.41,2.41,2.52,-0.40,-0.40,-0.40
302.53,-2.80,-2.39,-2.80,-2.39,2.39,2.49,-0.41,-0.41,-0.41
305.55,-2.79,-2.38,-2.79,-2.37,2.37,2.45,-0.42,-0.41,-0.41
308.61,-2.78,-2.36,-2.77,-2.35,2.35,2.42,-0.42,-0.42,-0.42
311.69,-2.76,-2.34,-2.76,-2.34,2.34,2.39,-0.42,-0.42,-0.42
314.81,-2.74,-2.31,-2.74,-2.32,2.32,2.35,-0.42,-0.43,-0.43
317.96,-2.73,-2.30,-2.73,-2.30,2.30,2.32,-0.43,-0.43,-0.43
321.14,-2.71,-2.27,-2.71,-2.28,2.28,2.29,-0.43,-0.44,-0.44
324.35,-2.70,-2.26,-2.70,-2.26,2.26,2.26,-0.44,-0.44,-0.44
327.59,-2.68,-2.23,-2.68,-2.24,2.24,2.23,-0.44,-0.44,-0.44
330.87,-2.67,-2.22,-2.66,-2.21,2.21,2.21,-0.45,-0.45,-0.45
334.18,-2.64,-2.19,-2.64,-2.19,2.19,2.18,-0.45,-0.45,-0.45
337.52,-2.63,-2.17,-2.63,-2.17,2.17,2.16,-0.46,-0.46,-0.46
340.90,-2.61,-2.15,-2.61,-2.15,2.15,2.13,-0.46,-0.46,-0.46
344.30,-2.59,-2.13,-2.59,-2.13,2.13,2.11,-0.46,-0.46,-0.46
347.75,-2.58,-2.11,-2.57,-2.10,2.10,2.09,-0.47,-0.47,-0.47
351.23,-2.55,-2.08,-2.55,-2.08,2.08,2.07,-0.47,-0.47,-0.47
354.74,-2.53,-2.06,-2.53,-2.06,2.06,2.06,-0.47,-0.47,-0.47
358.28,-2.52,-2.04,-2.51,-2.04,2.04,2.04,-0.48,-0.48,-0.48
361.87,-2.49,-2.01,-2.49,-2.02,2.02,2.03,-0.47,-0.48,-0.48
365.49,-2.48,-2.00,-2.48,-1.99,1.99,2.02,-0.48,-0.48,-0.48
369.14,-2.46,-1.97,-2.46,-1.97,1.97,2.01,-0.49,-0.48,-0.48
372.83,-2.44,-1.95,-2.44,-1.95,1.95,2.00,-0.49,-0.49,-0.49
376.56,-2.42,-1.93,-2.42,-1.93,1.93,1.99,-0.49,-0.49,-0.49
380.33,-2.40,-1.91,-2.40,-1.91,1.91,1.99,-0.49,-0.49,-0.49
384.13,-2.38,-1.88,-2.38,-1.89,1.89,1.98,-0.49,-0.50,-0.50
387.97,-2.37,-1.87,-2.36,-1.87,1.87,1.98,-0.50,-0.50,-0.50
391.85,-2.35,-1.85,-2.35,-1.85,1.85,1.98,-0.50,-0.50,-0.50
395.77,-2.33,-1.83,-2.33,-1.82,1.82,1.98,-0.50,-0.50,-0.50
399.73,-2.31,-1.80,-2.31,-1.80,1.80,1.98,-0.50,-0.51,-0.50
403.72,-2.30,-1.79,-2.29,-1.78,1.78,1.98,-0.51,-0.51,-0.51
407.76,-2.28,-1.77,-2.28,-1.76,1.76,1.99,-0.51,-0.51,-0.51
411.84,-2.26,-1.75,-2.26,-1.74,1.74,1.99,-0.51,-0.52,-0.51
415.96,-2.24,-1.72,-2.24,-1.73,1.73,2.00,-0.51,-0.52,-0.51
420.12,-2.23,-1.71,-2.23,-1.71,1.71,2.00,-0.52,-0.52,-0.52
424.32,-2.22,-1.70,-2.21,-1.69,1.69,2.01,-0.53,-0.52,-0.52
428.56,-2.20,-1.68,-2.20,-1.67,1.67,2.02,-0.53,-0.52,-0.52
432.85,-2.18,-1.65,-2.18,-1.66,1.66,2.02,-0.52,-0.52,-0.52
437.18,-2.17,-1.64,-2.17,-1.64,1.64,2.03,-0.53,-0.52,-0.53
441.55,-2.15,-1.62,-2.15,-1.63,1.63,2.04,-0.52,-0.52,-0.53
445.96,-2.14,-1.62,-2.14,-1.62,1.62,2.05,-0.52,-0.52,-0.52
450.42,-2.13,-1.61,-2.13,-1.61,1.61,2.05,-0.52,-0.52,-0.52
454.93,-2.12,-1.60,-2.12,-1.60,1.60,2.06,-0.52,-0.52,-0.52
459.48,-2.11,-1.60,-2.11,-1.60,1.60,2.06,-0.51,-0.51,-0.51
464.07,-2.10,-1.59,-2.10,-1.59,1.59,2.07,-0.51,-0.51,-0.51
468.71,-2.09,-1.59,-2.09,-1.59,1.59,2.07,-0.50,-0.50,-0.50
473.40,-2.08,-1.59,-2.08,-1.59,1.59,2.07,-0.49,-0.49,-0.49
478.13,-2.08,-1.60,-2.07,-1.59,1.59,2.07,-0.49,-0.48,-0.48
482.91,-2.06,-1.59,-2.07,-1.60,1.60,2.07,-0.46,-0.47,-0.47
487.74,-2.06,-1.60,-2.06,-1.60,1.60,2.07,-0.46,-0.46,-0.46
492.62,-2.06,-1.61,-2.05,-1.61,1.61,2.07,-0.45,-0.45,-0.45
497.55,-2.05,-1.62,-2.05,-1.62,1.62,2.06,-0.43,-0.43,-0.43
502.52,-2.04,-1.62,-2.04,-1.63,1.63,2.06,-0.41,-0.42,-0.42
507.55,-2.04,-1.64,-2.04,-1.64,1.64,2.05,-0.40,-0.40,-0.40
512.62,-2.04,-1.65,-2.04,-1.65,1.65,2.04,-0.39,-0.39,-0.38
517.75,-2.03,-1.66,-2.03,-1.66,1.66,2.03,-0.36,-0.37,-0.37
522.93,-2.04,-1.69,-2.03,-1.68,1.68,2.02,-0.36,-0.35,-0.35
528.16,-2.03,-1.69,-2.03,-1.70,1.70,2.00,-0.33,-0.33,-0.33
533.44,-2.03,-1.71,-2.03,-1.72,1.72,1.99,-0.31,-0.31,-0.32
538.77,-2.03,-1.73,-2.03,-1.74,1.74,1.97,-0.29,-0.29,-0.30
544.16,-2.03,-1.75,-2.03,-1.76,1.76,1.95,-0.27,-0.27,-0.27
549.60,-2.03,-1.78,-2.03,-1.78,1.78,1.93,-0.25,-0.25,-0.25
555.10,-2.02,-1.79,-2.03,-1.80,1.80,1.91,-0.21,-0.22,-0.23
560.65,-2.03,-1.83,-2.03,-1.83,1.83,1.89,-0.20,-0.20,-0.20
566.25,-2.03,-1.86,-2.03,-1.85,1.85,1.87,-0.17,-0.17,-0.17
571.92,-2.03,-1.88,-2.02,-1.88,1.88,1.85,-0.15,-0.15,-0.14
577.64,-2.02,-1.90,-2.02,-1.91,1.91,1.83,-0.11,-0.12,-0.12
583.41,-2.02,-1.93,-2.02,-1.93,1.93,1.81,-0.09,-0.09,-0.09
589.25,-2.02,-1.96,-2.02,-1.96,1.96,1.78,-0.06,-0.06,-0.06
595.14,-2.02,-1.99,-2.01,-1.98,1.98,1.76,-0.04,-0.03,-0.03
601.09,-2.01,-2.01,-2.01,-2.01,2.01,1.74,-0.00,-0.00,0.00
607.10,-2.00,-2.03,-2.00,-2.03,2.03,1.72,0.03,0.03,0.03
613.17,-2.00,-2.06,-1.99,-2.05,2.05,1.70,0.05,0.06,0.06
619.30,-1.99,-2.08,-1.98,-2.07,2.07,1.68,0.09,0.09,0.09
625.50,-1.98,-2.10,-1.97,-2.10,2.10,1.66,0.12,0.12,0.13
631.75,-1.96,-2.12,-1.96,-2.11,2.11,1.64,0.16,0.16,0.16
638.07,-1.95,-2.14,-1.95,-2.13,2.13,1.62,0.19,0.19,0.19
644.45,-1.93,-2.15,-1.93,-2.15,2.15,1.60,0.22,0.22,0.22
650.89,-1.92,-2.17,-1.92,-2.17,2.17,1.59,0.25,0.25,0.25
657.40,-1.90,-2.19,-1.90,-2.19,2.19,1.57,0.29,0.29,0.29
663.98,-1.88,-2.20,-1.88,-2.20,2.20,1.56,0.32,0.32,0.32
670.62,-1.86,-2.21,-1.86,-2.22,2.22,1.55,0.36,0.36,0.36
677.32,-1.85,-2.24,-1.84,-2.24,2.24,1.53,0.39,0.39,0.39
684.10,-1.82,-2.25,-1.82,-2.25,2.25,1.52,0.43,0.43,0.43
690.94,-1.80,-2.26,-1.80,-2.27,2.27,1.51,0.47,0.47,0.47
697.85,-1.78,-2.28,-1.78,-2.29,2.29,1.50,0.51,0.51,0.50
704.83,-1.77,-2.31,-1.76,-2.31,2.31,1.50,0.54,0.54,0.54
