frequency,raw
20,1.81
21,2.04
22,2.25
23,2.50
24,2.71
25,2.92
26,3.12
27,3.29
28,3.52
29,3.67
30,3.82
31,4.04
32,4.16
33,4.28
34,4.39
35,4.49
36,4.53
37,4.65
38,4.77
39,4.82
40,4.91
41,4.96
42,5.04
43,5.13
44,5.14
45,5.26
46,5.30
47,5.34
48,5.41
49,5.48
50,5.52
51,5.52
52,5.59
53,5.66
54,5.66
55,5.67
56,5.77
57,5.81
58,5.81
59,5.83
60,5.93
61,5.96
62,5.96
63,6.02
64,6.10
65,6.09
66,6.12
67,6.16
68,6.18
69,6.22
70,6.21
71,6.23
72,6.23
73,6.23
74,6.25
75,6.27
76,6.28
77,6.26
78,6.28
79,6.32
80,6.28
81,6.30
82,6.29
83,6.31
84,6.31
85,6.31
86,6.33
87,6.33
88,6.31
89,6.32
90,6.33
91,6.34
92,6.30
93,6.27
94,6.26
95,6.26
96,6.26
97,6.24
98,6.21
99,6.20
100,6.20
101,6.20
102,6.21
104,6.17
105,6.17
106,6.17
107,6.13
108,6.14
109,6.14
110,6.11
111,6.08
112,6.08
113,6.08
114,6.05
115,6.04
117,6.06
118,6.03
119,5.99
120,5.99
121,5.98
123,5.94
124,5.93
125,5.92
126,5.91
128,5.91
129,5.88
130,5.85
131,5.83
133,5.79
134,5.78
135,5.75
137,5.75
138,5.70
140,5.71
141,5.67
142,5.65
144,5.62
145,5.58
147,5.58
148,5.55
150,5.55
151,5.51
153,5.49
154,5.48
156,5.46
157,5.43
159,5.39
160,5.35
162,5.33
164,5.31
165,5.28
167,5.27
169,5.24
170,5.21
172,5.17
174,5.13
175,5.10
177,5.06
179,5.03
181,4.99
183,4.96
184,4.93
186,4.90
188,4.88
190,4.85
192,4.83
194,4.80
196,4.77
198,4.74
200,4.73
202,4.74
204,4.72
206,4.70
208,4.67
210,4.65
212,4.64
214,4.62
216,4.61
218,4.59
221,4.51
223,4.50
225,4.48
227,4.43
229,4.42
232,4.40
234,4.39
236,4.35
239,4.32
241,4.28
244,4.22
246,4.18
248,4.16
251,4.13
253,4.11
256,4.08
259,4.06
261,4.04
264,4.01
266,3.99
269,3.96
272,3.94
274,3.92
277,3.89
280,3.89
283,3.85
286,3.85
288,3.85
291,3.85
294,3.84
297,3.84
300,3.83
303,3.80
306,3.82
309,3.84
312,3.84
316,3.84
319,3.82
322,3.78
325,3.77
328,3.77
332,3.76
335,3.77
338,3.77
342,3.77
345,3.77
349,3.77
352,3.77
356,3.67
359,3.61
363,3.61
366,3.60
370,3.49
374,3.46
377,3.43
381,3.31
385,3.31
389,3.23
393,3.16
397,3.13
401,3.09
405,3.05
409,3.01
413,2.95
417,2.92
421,2.92
425,2.92
430,2.88
434,2.81
438,2.77
443,2.76
447,2.76
451,2.76
456,2.72
460,2.65
465,2.63
470,2.64
474,2.66
479,2.66
484,2.62
489,2.57
494,2.56
499,2.58
504,2.56
509,2.53
514,2.49
519,2.49
524,2.51
529,2.53
535,2.44
540,2.43
545,2.45
551,2.39
556,2.41
562,2.29
568,2.30
573,2.27
579,2.27
585,2.18
591,2.15
596,2.11
602,2.06
608,2.06
615,2.03
621,2.00
627,1.94
633,1.88
639,1.81
646,1.76
652,1.71
659,1.63
665,1.57
672,1.50
679,1.45
686,1.36
692,1.33
699,1.29
706,1.21
713,1.17
721,1.09
728,1.07
735,1.01
742,0.98
750,0.90
757,0.85
765,0.82
773,0.76
780,0.72
788,0.68
796,0.63
804,0.62
812,0.54
820,0.53
828,0.44
837,0.44
845,0.33
853,0.35
862,0.35
871,0.30
879,0.29
888,0.22
897,0.24
906,0.20
915,0.15
924,0.15
933,0.11
943,0.08
952,0.05
962,0.00
971,0.01
981,-0.02
991,-0.03
1001,-0.00
1011,-0.00
1021,-0.02
1031,-0.01
1041,0.01
1052,-0.03
1062,-0.01
1073,0.00
1084,0.02
1094,-0.02
1105,0.02
1116,0.04
1128,0.07
1139,0.10
1150,0.13
1162,0.16
1173,0.17
1185,0.17
1197,0.20
1209,0.26
1221,0.32
1233,0.38
1246,0.42
1258,0.47
1271,0.51
1283,0.54
1296,0.61
1309,0.62
1322,0.69
1335,0.72
1349,0.69
1362,0.65
1376,0.68
1390,0.61
1404,0.61
1418,0.59
1432,0.52
1446,0.51
1461,0.50
1475,0.46
1490,0.44
1505,0.42
1520,0.42
1535,0.44
1550,0.48
1566,0.55
1582,0.67
1597,0.81
1613,0.95
1629,1.14
1646,1.27
1662,1.35
1679,1.45
1696,1.56
1713,1.59
1730,1.71
1747,1.80
1764,1.85
1782,2.01
1800,2.10
1818,2.15
1836,2.21
1854,2.27
1873,2.34
1892,2.46
1911,2.59
1930,2.69
1949,2.76
1969,2.84
1988,2.95
2008,3.08
2028,3.21
2048,3.40
2069,3.52
2090,3.69
2111,3.85
2132,3.99
2153,4.15
2175,4.27
2196,4.41
2218,4.52
2240,4.68
2263,4.78
2285,4.90
2308,5.07
2331,5.23
2355,5.41
2378,5.62
2402,5.83
2426,6.13
2450,6.39
2475,6.71
2500,6.98
2525,7.30
2550,7.62
2575,7.93
2601,8.20
2627,8.45
2653,8.68
2680,8.92
2707,9.18
2734,9.45
2761,9.72
2789,10.01
2817,10.28
2845,10.60
2873,10.94
2902,11.28
2931,11.65
2960,12.00
2990,12.32
3020,12.55
3050,12.81
3080,13.05
3111,13.26
3142,13.43
3174,13.63
3206,13.78
3238,13.92
3270,14.04
3303,14.21
3336,14.37
3369,14.45
3403,14.56
3437,14.66
3471,14.69
3506,14.67
3541,14.61
3576,14.47
3612,14.25
3648,14.01
3685,13.73
3721,13.47
3759,13.21
3796,12.95
3834,12.71
3873,12.45
3911,12.22
3950,11.93
3990,11.66
4030,11.31
4070,10.95
4111,10.52
4152,10.08
4193,9.78
4235,9.33
4278,8.86
4321,8.56
4364,8.27
4407,8.04
4451,7.69
4496,7.47
4541,7.23
4586,6.99
4632,6.73
4679,6.48
4725,6.27
4773,6.07
4820,5.86
4868,5.71
4917,5.59
4966,5.54
5016,5.58
5066,5.86
5117,6.17
5168,6.56
5220,6.91
5272,7.27
5325,7.52
5378,7.79
5432,8.04
5486,8.30
5541,8.62
5596,8.93
5652,9.27
5709,9.71
5766,10.28
5823,10.76
5882,11.18
5940,11.63
6000,12.06
6060,12.42
6120,12.70
6182,12.90
6244,12.98
6306,12.98
6369,12.81
6433,12.56
6497,12.17
6562,11.75
6628,11.31
6694,10.72
6761,10.14
6828,9.59
6897,9.04
6966,8.46
7035,7.93
7106,7.41
7177,6.94
7249,6.58
7321,6.04
7394,5.62
7468,5.35
7543,5.08
7618,4.90
7694,4.78
7771,4.71
7849,4.74
7928,4.78
8007,4.80
8087,4.95
8168,5.17
8250,5.46
8332,5.77
8415,6.19
8499,6.65
8584,7.14
8670,7.57
8757,7.90
8845,8.67
8933,9.60
9022,9.98
9113,10.07
9204,9.96
9296,9.66
9389,9.15
9483,8.41
9577,7.66
9673,6.96
9770,6.20
9868,5.48
9966,4.79
10066,3.98
10167,3.13
10268,2.02
10371,0.64
10475,-0.59
10579,-1.77
10685,-2.96
10792,-4.09
10900,-5.21
11009,-6.41
11119,-7.28
11230,-7.76
11343,-8.05
11456,-8.21
11571,-8.34
11686,-8.53
11803,-8.37
11921,-7.87
12040,-7.20
12161,-6.53
12282,-6.20
12405,-6.16
12529,-6.34
12655,-6.68
12781,-6.90
12909,-7.05
13038,-7.06
13168,-6.81
13300,-6.32
13433,-5.89
13567,-5.68
13703,-5.45
13840,-5.23
13978,-5.04
14118,-5.01
14259,-5.02
14402,-5.03
14546,-4.98
14692,-4.74
14838,-4.51
14987,-4.36
15137,-4.27
15288,-4.23
15441,-4.34
15595,-4.55
15751,-4.87
15909,-5.26
16068,-5.71
16229,-6.28
16391,-6.72
16555,-7.06
16720,-7.22
16888,-7.06
17056,-6.86
17227,-6.75
17399,-6.83
17573,-7.21
17749,-7.78
17926,-9.32
18106,-11.17
18287,-12.41
18470,-13.58
18654,-14.55
18841,-15.17
19029,-15.62
19220,-16.08
19412,-16.47
19606,-16.67
19802,-16.63
20000,-16.57
