frequency,raw
20.00,7.43
20.20,7.44
20.40,7.47
20.61,7.52
20.81,7.56
21.02,7.59
21.23,7.63
21.44,7.67
21.66,7.70
21.87,7.74
22.09,7.77
22.31,7.82
22.54,7.87
22.76,7.93
22.99,7.98
23.22,8.02
23.45,8.05
23.69,8.08
23.92,8.13
24.16,8.16
24.40,8.18
24.65,8.23
24.89,8.26
25.14,8.29
25.39,8.32
25.65,8.37
25.91,8.38
26.16,8.42
26.43,8.46
26.69,8.49
26.96,8.51
27.23,8.56
27.50,8.59
27.77,8.63
28.05,8.67
28.33,8.70
28.62,8.74
28.90,8.75
29.19,8.79
29.48,8.83
29.78,8.84
30.08,8.88
30.38,8.88
30.68,8.93
30.99,8.94
31.30,8.98
31.61,9.00
31.93,9.02
32.24,9.07
32.57,9.07
32.89,9.12
33.22,9.12
33.55,9.16
33.89,9.16
34.23,9.16
34.57,9.21
34.92,9.21
35.27,9.25
35.62,9.26
35.97,9.27
36.33,9.30
36.70,9.30
37.06,9.30
37.43,9.30
37.81,9.35
38.19,9.35
38.57,9.39
38.95,9.40
39.34,9.43
39.74,9.44
40.14,9.44
40.54,9.44
40.94,9.44
41.35,9.44
41.76,9.48
42.18,9.49
42.60,9.52
43.03,9.54
43.46,9.54
43.90,9.57
44.33,9.58
44.78,9.58
45.23,9.58
45.68,9.58
46.13,9.58
46.60,9.58
47.06,9.58
47.53,9.58
48.01,9.59
48.49,9.62
48.97,9.63
49.46,9.63
49.96,9.63
50.46,9.65
50.96,9.65
51.47,9.65
51.99,9.65
52.51,9.65
53.03,9.63
53.56,9.63
54.10,9.63
54.64,9.63
55.18,9.63
55.74,9.63
56.29,9.64
56.86,9.65
57.42,9.65
58.00,9.65
58.58,9.65
59.16,9.65
59.76,9.63
60.35,9.63
60.96,9.63
61.57,9.63
62.18,9.63
62.80,9.63
63.43,9.60
64.07,9.58
64.71,9.58
65.35,9.58
66.01,9.58
66.67,9.58
67.33,9.58
68.01,9.58
68.69,9.55
69.37,9.54
70.07,9.49
70.77,9.49
71.48,9.45
72.19,9.44
72.91,9.44
73.64,9.44
74.38,9.40
75.12,9.40
75.87,9.37
76.63,9.35
77.40,9.34
78.17,9.30
78.95,9.30
79.74,9.27
80.54,9.26
81.35,9.26
82.16,9.21
82.98,9.20
83.81,9.16
84.65,9.15
85.50,9.12
86.35,9.09
87.22,9.07
88.09,9.03
88.97,9.02
89.86,8.98
90.76,8.98
91.66,8.93
92.58,8.92
93.51,8.88
94.44,8.88
95.39,8.84
96.34,8.84
97.30,8.79
98.28,8.79
99.26,8.75
100.25,8.72
101.25,8.67
102.27,8.64
103.29,8.60
104.32,8.55
105.37,8.52
106.42,8.49
107.48,8.46
108.56,8.42
109.64,8.39
110.74,8.37
111.85,8.34
112.97,8.32
114.10,8.31
115.24,8.28
116.39,8.28
117.55,8.25
118.73,8.23
119.92,8.18
121.12,8.18
122.33,8.14
123.55,8.11
124.79,8.08
126.03,8.05
127.29,8.02
128.57,8.00
129.85,7.96
131.15,7.93
132.46,7.88
133.79,7.84
135.12,7.79
136.48,7.76
137.84,7.72
139.22,7.67
140.61,7.64
142.02,7.60
143.44,7.55
144.87,7.46
146.32,7.42
147.78,7.36
149.26,7.30
150.75,7.26
152.26,7.20
153.78,7.15
155.32,7.10
156.88,7.07
158.44,7.03
160.03,7.00
161.63,6.97
163.24,6.94
164.88,6.88
166.53,6.85
168.19,6.77
169.87,6.72
171.57,6.66
173.29,6.60
175.02,6.54
176.77,6.48
178.54,6.44
180.32,6.39
182.13,6.34
183.95,6.28
185.79,6.25
187.65,6.20
189.52,6.16
191.42,6.11
193.33,6.06
195.27,6.00
197.22,5.97
199.19,5.91
201.18,5.84
203.19,5.78
205.23,5.73
207.28,5.67
209.35,5.60
211.44,5.57
213.56,5.51
215.69,5.46
217.85,5.43
220.03,5.37
222.23,5.32
224.45,5.27
226.70,5.22
228.96,5.18
231.25,5.12
233.57,5.06
235.90,5.00
238.26,4.93
240.64,4.87
243.05,4.81
245.48,4.75
247.93,4.67
250.41,4.62
252.92,4.59
255.45,4.55
258.00,4.50
260.58,4.47
263.19,4.42
265.82,4.36
268.48,4.29
271.16,4.24
273.87,4.18
276.61,4.10
279.38,4.04
282.17,3.97
284.99,3.91
287.84,3.84
290.72,3.78
293.63,3.72
296.57,3.67
299.53,3.62
302.53,3.56
305.55,3.50
308.61,3.45
311.69,3.40
314.81,3.34
317.96,3.27
321.14,3.22
324.35,3.17
327.59,3.08
330.87,3.03
334.18,2.98
337.52,2.94
340.90,2.86
344.30,2.78
347.75,2.71
351.23,2.64
354.74,2.58
358.28,2.54
361.87,2.49
365.49,2.44
369.14,2.38
372.83,2.32
376.56,2.25
380.33,2.19
384.13,2.14
387.97,2.10
391.85,2.05
395.77,2.00
399.73,1.94
403.72,1.91
407.76,1.85
411.84,1.79
415.96,1.75
420.12,1.69
424.32,1.66
428.56,1.61
432.85,1.58
437.18,1.54
441.55,1.49
445.96,1.44
450.42,1.37
454.93,1.31
459.48,1.26
464.07,1.20
468.71,1.12
473.40,1.07
478.13,1.03
482.91,0.98
487.74,0.92
492.62,0.89
497.55,0.84
502.52,0.81
507.55,0.77
512.62,0.72
517.75,0.67
522.93,0.62
528.16,0.56
533.44,0.50
538.77,0.45
544.16,0.42
549.60,0.36
555.10,0.33
560.65,0.28
566.25,0.25
571.92,0.19
577.64,0.16
583.41,0.12
589.25,0.08
595.14,0.04
601.09,-0.00
607.10,-0.04
613.17,-0.09
619.30,-0.14
625.50,-0.19
631.75,-0.24
638.07,-0.29
644.45,-0.30
650.89,-0.35
657.40,-0.35
663.98,-0.39
670.62,-0.40
677.32,-0.40
684.10,-0.40
690.94,-0.44
697.85,-0.44
704.83,-0.44
711.87,-0.44
718.99,-0.44
726.18,-0.49
733.44,-0.49
740.78,-0.49
748.19,-0.49
755.67,-0.49
763.23,-0.49
770.86,-0.49
778.57,-0.49
786.35,-0.49
794.22,-0.49
802.16,-0.49
810.18,-0.49
818.28,-0.49
826.46,-0.54
834.73,-0.50
843.08,-0.51
851.51,-0.59
860.02,-0.64
868.62,-0.70
877.31,-0.65
886.08,-0.65
894.94,-0.68
903.89,-0.65
912.93,-0.62
922.06,-0.56
931.28,-0.51
940.59,-0.44
950.00,-0.38
959.50,-0.32
969.09,-0.25
978.78,-0.17
988.57,-0.07
998.46,-0.01
1008.44,0.07
1018.53,0.12
1028.71,0.20
1039.00,0.27
1049.39,0.33
1059.88,0.38
1070.48,0.44
1081.19,0.45
1092.00,0.50
1102.92,0.53
1113.95,0.59
1125.09,0.64
1136.34,0.70
1147.70,0.75
1159.18,0.79
1170.77,0.86
1182.48,0.92
1194.30,1.03
1206.25,1.09
1218.31,1.20
1230.49,1.29
1242.80,1.37
1255.22,1.48
1267.78,1.59
1280.45,1.70
1293.26,1.76
1306.19,1.85
1319.25,1.91
1332.45,1.99
1345.77,2.05
1359.23,2.10
1372.82,2.16
1386.55,2.22
1400.41,2.28
1414.42,2.34
1428.56,2.43
1442.85,2.49
1457.28,2.59
1471.85,2.66
1486.57,2.77
1501.43,2.83
1516.45,2.93
1531.61,3.00
1546.93,3.11
1562.40,3.19
1578.02,3.28
1593.80,3.39
1609.74,3.48
1625.84,3.59
1642.10,3.70
1658.52,3.81
1675.10,3.92
1691.85,4.02
1708.77,4.13
1725.86,4.24
1743.12,4.36
1760.55,4.48
1778.15,4.62
1795.94,4.75
1813.90,4.89
1832.03,5.01
1850.36,5.17
1868.86,5.28
1887.55,5.43
1906.42,5.56
1925.49,5.71
1944.74,5.85
1964.19,6.00
1983.83,6.17
2003.67,6.30
2023.71,6.47
2043.94,6.65
2064.38,6.81
2085.03,7.00
2105.88,7.20
2126.94,7.39
2148.20,7.61
2169.69,7.83
2191.38,8.05
2213.30,8.26
2235.43,8.50
2257.78,8.72
2280.36,8.96
2303.17,9.21
2326.20,9.45
2349.46,9.70
2372.95,9.96
2396.68,10.22
2420.65,10.49
2444.86,10.74
2469.31,11.01
2494.00,11.27
2518.94,11.52
2544.13,11.78
2569.57,11.99
2595.27,12.20
2621.22,12.34
2647.43,12.46
2673.90,12.56
2700.64,12.64
2727.65,12.69
2754.93,12.66
2782.48,12.64
2810.30,12.61
2838.40,12.54
2866.79,12.45
2895.46,12.31
2924.41,12.14
2953.65,11.96
2983.19,11.76
3013.02,11.59
3043.15,11.37
3073.58,11.15
3104.32,10.94
3135.36,10.70
3166.72,10.45
3198.38,10.22
3230.37,10.00
3262.67,9.80
3295.30,9.58
3328.25,9.34
3361.53,9.14
3395.15,8.93
3429.10,8.76
3463.39,8.61
3498.03,8.48
3533.01,8.36
3568.34,8.23
3604.02,8.11
3640.06,8.02
3676.46,7.93
3713.22,7.86
3750.36,7.78
3787.86,7.72
3825.74,7.66
3864.00,7.60
3902.64,7.56
3941.66,7.51
3981.08,7.46
4020.89,7.38
4061.10,7.30
4101.71,7.23
4142.73,7.19
4184.15,7.16
4226.00,7.11
4268.26,7.08
4310.94,7.05
4354.05,7.02
4397.59,7.02
4441.56,7.04
4485.98,7.07
4530.84,7.12
4576.15,7.20
4621.91,7.33
4668.13,7.45
4714.81,7.59
4761.96,7.76
4809.58,7.94
4857.67,8.13
4906.25,8.31
4955.31,8.48
5004.87,8.64
5054.91,8.80
5105.46,9.03
5156.52,9.33
5208.08,9.62
5260.16,10.02
5312.77,10.49
5365.89,10.82
5419.55,11.22
5473.75,11.64
5528.49,12.05
5583.77,12.54
5639.61,13.03
5696.00,13.55
5752.96,13.99
5810.49,14.30
5868.60,14.53
5927.28,14.68
5986.56,14.74
6046.42,14.79
6106.89,14.75
6167.96,14.36
6229.64,13.95
6291.93,13.35
6354.85,12.62
6418.40,12.02
6482.58,11.48
6547.41,10.89
6612.88,10.45
6679.01,10.04
6745.80,9.53
6813.26,9.16
6881.39,8.85
6950.21,8.52
7019.71,8.24
7089.91,7.90
7160.81,7.59
7232.41,7.21
7304.74,6.90
7377.79,6.68
7451.56,6.51
7526.08,6.36
7601.34,6.25
7677.35,6.20
7754.13,6.18
7831.67,6.20
7909.98,6.28
7989.08,6.39
8068.98,6.53
8149.67,6.71
8231.16,6.88
8313.47,7.08
8396.61,7.43
8480.57,7.81
8565.38,8.34
8651.03,8.97
8737.54,9.56
8824.92,10.09
8913.17,10.46
9002.30,10.67
9092.32,10.70
9183.25,10.50
9275.08,10.19
9367.83,9.64
9461.51,8.69
9556.12,7.86
9651.68,6.86
9748.20,5.93
9845.68,5.15
9944.14,4.38
10043.58,3.51
10144.02,2.70
10245.46,1.84
10347.91,0.75
10451.39,-0.11
10555.91,-0.98
10661.46,-1.86
10768.08,-2.55
10875.76,-3.08
10984.52,-3.53
11094.36,-3.86
11205.31,-4.15
11317.36,-4.49
11430.53,-4.81
11544.84,-5.06
11660.29,-5.36
11776.89,-5.58
11894.66,-5.79
12013.60,-5.97
12133.74,-6.10
12255.08,-6.18
12377.63,-6.28
12501.41,-6.28
12626.42,-6.23
12752.68,-6.11
12880.21,-5.93
13009.01,-5.68
13139.10,-5.40
13270.49,-5.15
13403.20,-4.85
13537.23,-4.59
13672.60,-4.22
13809.33,-3.76
13947.42,-3.14
14086.90,-2.37
14227.77,-1.58
14370.04,-0.87
14513.74,-0.40
14658.88,0.03
14805.47,0.10
14953.52,0.05
15103.06,-0.35
15254.09,-1.00
15406.63,-1.84
15560.70,-2.69
15716.30,-3.48
15873.47,-4.13
16032.20,-4.51
16192.52,-4.74
16354.45,-4.91
16517.99,-4.97
16683.17,-4.96
16850.01,-4.90
17018.51,-4.72
17188.69,-4.47
17360.58,-4.25
17534.18,-3.92
17709.53,-3.59
17886.62,-3.44
18065.49,-3.39
18246.14,-3.66
18428.60,-4.13
18612.89,-4.70
18799.02,-5.33
18987.01,-6.13
19176.88,-7.06
19368.65,-8.23
19562.33,-9.58
19757.96,-11.01
19955.54,-11.85
