frequency,raw
20.00,-1.47
20.20,-1.48
20.40,-1.51
20.61,-1.56
20.81,-1.64
21.02,-1.71
21.23,-1.79
21.44,-1.83
21.66,-1.85
21.87,-1.86
22.09,-1.86
22.31,-1.86
22.54,-1.86
22.76,-1.87
22.99,-1.89
23.22,-1.92
23.45,-1.94
23.69,-1.95
23.92,-1.96
24.16,-1.97
24.40,-1.98
24.65,-2.00
24.89,-2.03
25.14,-2.06
25.39,-2.09
25.65,-2.13
25.91,-2.16
26.16,-2.20
26.43,-2.23
26.69,-2.24
26.96,-2.24
27.23,-2.22
27.50,-2.16
27.77,-2.09
28.05,-2.01
28.33,-1.94
28.62,-1.89
28.90,-1.85
29.19,-1.83
29.48,-1.81
29.78,-1.79
30.08,-1.76
30.38,-1.72
30.68,-1.67
30.99,-1.63
31.30,-1.59
31.61,-1.55
31.93,-1.52
32.24,-1.47
32.57,-1.43
32.89,-1.37
33.22,-1.33
33.55,-1.29
33.89,-1.27
34.23,-1.26
34.57,-1.27
34.92,-1.30
35.27,-1.33
35.62,-1.37
35.97,-1.40
36.33,-1.42
36.70,-1.44
37.06,-1.44
37.43,-1.43
37.81,-1.42
38.19,-1.42
38.57,-1.42
38.95,-1.42
39.34,-1.42
39.74,-1.43
40.14,-1.47
40.54,-1.52
40.94,-1.58
41.35,-1.63
41.76,-1.65
42.18,-1.64
42.60,-1.62
43.03,-1.59
43.46,-1.61
43.90,-1.64
44.33,-1.68
44.78,-1.68
45.23,-1.65
45.68,-1.57
46.13,-1.48
46.60,-1.43
47.06,-1.39
47.53,-1.36
48.01,-1.28
48.49,-1.18
48.97,-1.08
49.46,-0.98
49.96,-0.91
50.46,-0.85
50.96,-0.79
51.47,-0.74
51.99,-0.71
52.51,-0.71
53.03,-0.72
53.56,-0.77
54.10,-0.80
54.64,-0.82
55.18,-0.83
55.74,-0.83
56.29,-0.81
56.86,-0.80
57.42,-0.78
58.00,-0.75
58.58,-0.73
59.16,-0.72
59.76,-0.71
60.35,-0.71
60.96,-0.72
61.57,-0.74
62.18,-0.76
62.80,-0.78
63.43,-0.80
64.07,-0.81
64.71,-0.80
65.35,-0.76
66.01,-0.72
66.67,-0.62
67.33,-0.50
68.01,-0.37
68.69,-0.24
69.37,-0.13
70.07,-0.02
70.77,0.04
71.48,0.08
72.19,0.09
72.91,0.09
73.64,0.09
74.38,0.09
75.12,0.08
75.87,0.08
76.63,0.06
77.40,0.04
78.17,0.01
78.95,-0.02
79.74,-0.06
80.54,-0.10
81.35,-0.14
82.16,-0.16
82.98,-0.18
83.81,-0.19
84.65,-0.19
85.50,-0.18
86.35,-0.18
87.22,-0.18
88.09,-0.19
88.97,-0.21
89.86,-0.23
90.76,-0.26
91.66,-0.29
92.58,-0.32
93.51,-0.34
94.44,-0.36
95.39,-0.38
96.34,-0.40
97.30,-0.42
98.28,-0.44
99.26,-0.45
100.25,-0.47
101.25,-0.49
102.27,-0.50
103.29,-0.51
104.32,-0.52
105.37,-0.53
106.42,-0.54
107.48,-0.55
108.56,-0.57
109.64,-0.58
110.74,-0.60
111.85,-0.61
112.97,-0.62
114.10,-0.62
115.24,-0.62
116.39,-0.62
117.55,-0.63
118.73,-0.64
119.92,-0.66
121.12,-0.67
122.33,-0.68
123.55,-0.68
124.79,-0.68
126.03,-0.68
127.29,-0.69
128.57,-0.70
129.85,-0.71
131.15,-0.72
132.46,-0.73
133.79,-0.73
135.12,-0.73
136.48,-0.74
137.84,-0.75
139.22,-0.77
140.61,-0.78
142.02,-0.79
143.44,-0.79
144.87,-0.79
146.32,-0.79
147.78,-0.79
149.26,-0.80
150.75,-0.80
152.26,-0.80
153.78,-0.78
155.32,-0.76
156.88,-0.73
158.44,-0.71
160.03,-0.70
161.63,-0.71
163.24,-0.71
164.88,-0.71
166.53,-0.71
168.19,-0.71
169.87,-0.71
171.57,-0.71
173.29,-0.72
175.02,-0.73
176.77,-0.74
178.54,-0.75
180.32,-0.75
182.13,-0.75
183.95,-0.75
185.79,-0.74
187.65,-0.72
189.52,-0.71
191.42,-0.70
193.33,-0.70
195.27,-0.69
197.22,-0.68
199.19,-0.67
201.18,-0.67
203.19,-0.67
205.23,-0.66
207.28,-0.65
209.35,-0.64
211.44,-0.64
213.56,-0.63
215.69,-0.62
217.85,-0.60
220.03,-0.59
222.23,-0.58
224.45,-0.57
226.70,-0.57
228.96,-0.56
231.25,-0.55
233.57,-0.53
235.90,-0.52
238.26,-0.51
240.64,-0.50
243.05,-0.49
245.48,-0.47
247.93,-0.45
250.41,-0.43
252.92,-0.41
255.45,-0.38
258.00,-0.36
260.58,-0.34
263.19,-0.32
265.82,-0.31
268.48,-0.31
271.16,-0.29
273.87,-0.28
276.61,-0.26
279.38,-0.25
282.17,-0.23
284.99,-0.20
287.84,-0.17
290.72,-0.14
293.63,-0.11
296.57,-0.09
299.53,-0.07
302.53,-0.04
305.55,-0.02
308.61,0.02
311.69,0.05
314.81,0.09
317.96,0.12
321.14,0.15
324.35,0.19
327.59,0.23
330.87,0.26
334.18,0.29
337.52,0.31
340.90,0.34
344.30,0.38
347.75,0.41
351.23,0.45
354.74,0.49
358.28,0.54
361.87,0.59
365.49,0.63
369.14,0.66
372.83,0.71
376.56,0.75
380.33,0.81
384.13,0.85
387.97,0.89
391.85,0.92
395.77,0.96
399.73,1.00
403.72,1.05
407.76,1.10
411.84,1.13
415.96,1.17
420.12,1.21
424.32,1.24
428.56,1.28
432.85,1.31
437.18,1.34
441.55,1.37
445.96,1.39
450.42,1.39
454.93,1.38
459.48,1.39
464.07,1.40
468.71,1.40
473.40,1.38
478.13,1.36
482.91,1.34
487.74,1.29
492.62,1.21
497.55,1.12
502.52,1.01
507.55,0.89
512.62,0.74
517.75,0.57
522.93,0.39
528.16,0.21
533.44,0.05
538.77,-0.11
544.16,-0.25
549.60,-0.38
555.10,-0.49
560.65,-0.59
566.25,-0.68
571.92,-0.78
577.64,-0.88
583.41,-0.98
589.25,-1.09
595.14,-1.19
601.09,-1.29
607.10,-1.38
613.17,-1.46
619.30,-1.51
625.50,-1.55
631.75,-1.58
638.07,-1.60
644.45,-1.61
650.89,-1.62
657.40,-1.62
663.98,-1.59
670.62,-1.53
677.32,-1.40
684.10,-1.22
690.94,-1.03
697.85,-0.81
704.83,-0.61
711.87,-0.43
718.99,-0.27
726.18,-0.13
733.44,-0.02
740.78,0.07
748.19,0.12
755.67,0.15
763.23,0.18
770.86,0.19
778.57,0.18
786.35,0.16
794.22,0.14
802.16,0.11
810.18,0.09
818.28,0.07
826.46,0.05
834.73,0.04
843.08,0.03
851.51,0.02
860.02,0.02
868.62,0.02
877.31,0.01
886.08,0.02
894.94,0.02
903.89,0.03
912.93,0.04
922.06,0.06
931.28,0.08
940.59,0.10
950.00,0.11
959.50,0.11
969.09,0.08
978.78,0.05
988.57,0.01
998.46,-0.00
1008.44,0.02
1018.53,0.07
1028.71,0.14
1039.00,0.20
1049.39,0.23
1059.88,0.25
1070.48,0.22
1081.19,0.15
1092.00,0.03
1102.92,-0.14
1113.95,-0.31
1125.09,-0.44
1136.34,-0.51
1147.70,-0.41
1159.18,-0.20
1170.77,0.02
1182.48,0.14
1194.30,0.11
1206.25,0.08
1218.31,0.05
1230.49,0.24
1242.80,0.49
1255.22,0.76
1267.78,0.95
1280.45,1.05
1293.26,1.04
1306.19,1.03
1319.25,0.96
1332.45,0.73
1345.77,0.58
1359.23,0.54
1372.82,0.76
1386.55,1.01
1400.41,1.24
1414.42,1.37
1428.56,1.50
1442.85,1.55
1457.28,1.62
1471.85,1.70
1486.57,1.71
1501.43,1.69
1516.45,1.67
1531.61,1.64
1546.93,1.60
1562.40,1.50
1578.02,1.37
1593.80,1.20
1609.74,1.05
1625.84,0.94
1642.10,1.01
1658.52,1.13
1675.10,1.29
1691.85,1.33
1708.77,1.34
1725.86,1.31
1743.12,1.18
1760.55,1.09
1778.15,1.06
1795.94,1.16
1813.90,1.28
1832.03,1.41
1850.36,1.56
1868.86,1.85
1887.55,2.24
1906.42,2.61
1925.49,2.87
1944.74,2.97
1964.19,3.03
1983.83,3.08
2003.67,3.14
2023.71,3.16
2043.94,3.14
2064.38,3.13
2085.03,3.21
2105.88,3.53
2126.94,3.92
2148.20,4.19
2169.69,4.31
2191.38,4.38
2213.30,4.39
2235.43,4.39
2257.78,4.42
2280.36,4.43
2303.17,4.43
2326.20,4.46
2349.46,4.59
2372.95,4.72
2396.68,4.83
2420.65,5.05
2444.86,5.39
2469.31,5.79
2494.00,6.06
2518.94,6.32
2544.13,6.62
2569.57,7.09
2595.27,7.48
2621.22,7.81
2647.43,7.93
2673.90,8.02
2700.64,8.11
2727.65,8.18
2754.93,8.26
2782.48,8.30
2810.30,8.30
2838.40,8.26
2866.79,8.39
2895.46,8.64
2924.41,8.70
2953.65,8.69
2983.19,8.56
3013.02,8.43
3043.15,8.32
3073.58,8.34
3104.32,8.47
3135.36,8.56
3166.72,8.54
3198.38,8.45
3230.37,8.44
3262.67,8.44
3295.30,8.42
3328.25,8.38
3361.53,8.32
3395.15,8.21
3429.10,8.08
3463.39,7.93
3498.03,7.73
3533.01,7.57
3568.34,7.50
3604.02,7.52
3640.06,7.75
3676.46,7.98
3713.22,8.15
3750.36,8.22
3787.86,8.31
3825.74,8.40
3864.00,8.53
3902.64,8.68
3941.66,8.84
3981.08,8.93
4020.89,8.86
4061.10,8.68
4101.71,8.51
4142.73,8.47
4184.15,8.54
4226.00,8.68
4268.26,8.77
4310.94,8.76
4354.05,8.65
4397.59,8.59
4441.56,8.55
4485.98,8.58
4530.84,8.59
4576.15,8.51
4621.91,8.39
4668.13,8.20
4714.81,7.85
4761.96,7.45
4809.58,7.05
4857.67,6.75
4906.25,6.38
4955.31,5.87
5004.87,5.15
5054.91,4.47
5105.46,3.91
5156.52,3.46
5208.08,3.08
5260.16,2.61
5312.77,2.04
5365.89,1.24
5419.55,0.24
5473.75,-0.56
5528.49,-0.93
5583.77,-0.77
5639.61,-0.24
5696.00,0.43
5752.96,0.62
5810.49,0.81
5868.60,1.18
5927.28,1.71
5986.56,2.42
6046.42,3.12
6106.89,3.75
6167.96,4.28
6229.64,4.79
6291.93,5.33
6354.85,5.72
6418.40,6.01
6482.58,6.05
6547.41,5.93
6612.88,5.73
6679.01,5.49
6745.80,5.32
6813.26,5.16
6881.39,4.96
6950.21,4.75
7019.71,4.53
7089.91,4.33
7160.81,4.07
7232.41,3.84
7304.74,3.67
7377.79,3.71
7451.56,3.79
7526.08,3.92
7601.34,4.08
7677.35,4.32
7754.13,4.59
7831.67,4.93
7909.98,5.32
7989.08,5.80
8068.98,6.29
8149.67,6.72
8231.16,7.05
8313.47,7.22
8396.61,7.26
8480.57,7.02
8565.38,6.56
8651.03,5.90
8737.54,5.00
8824.92,3.72
8913.17,2.02
9002.30,0.17
9092.32,-2.45
9183.25,-5.53
9275.08,-8.72
9367.83,-11.70
9461.51,-12.70
9556.12,-12.26
9651.68,-11.15
9748.20,-10.29
9845.68,-10.19
9944.14,-9.82
10043.58,-8.89
10144.02,-7.46
10245.46,-6.03
10347.91,-4.64
10451.39,-3.26
10555.91,-1.63
10661.46,0.15
10768.08,2.00
10875.76,3.67
10984.52,4.92
11094.36,5.88
11205.31,6.47
11317.36,6.67
11430.53,6.65
11544.84,6.39
11660.29,6.18
11776.89,6.01
11894.66,5.84
12013.60,5.66
12133.74,5.56
12255.08,5.46
12377.63,5.29
12501.41,4.73
12626.42,3.54
12752.68,2.09
12880.21,0.79
13009.01,-0.38
13139.10,-1.56
13270.49,-3.38
13403.20,-5.53
13537.23,-7.39
13672.60,-8.64
13809.33,-9.39
13947.42,-10.31
14086.90,-11.02
14227.77,-11.62
14370.04,-12.04
14513.74,-12.20
14658.88,-11.64
14805.47,-10.59
14953.52,-8.73
15103.06,-7.18
15254.09,-5.79
15406.63,-5.16
15560.70,-4.49
15716.30,-3.77
15873.47,-2.96
16032.20,-2.06
16192.52,-0.90
16354.45,0.28
16517.99,1.44
16683.17,2.28
16850.01,2.77
17018.51,2.96
17188.69,2.52
17360.58,1.84
17534.18,0.98
17709.53,-0.09
17886.62,-1.78
18065.49,-3.83
18246.14,-6.19
18428.60,-7.61
18612.89,-8.35
18799.02,-8.52
18987.01,-8.26
19176.88,-6.67
19368.65,-5.15
19562.33,-3.83
19757.96,-2.72
19955.54,-1.62
