frequency,raw
20.00,6.24
20.20,6.25
20.40,6.27
20.61,6.28
20.81,6.30
21.02,6.32
21.23,6.34
21.44,6.36
21.66,6.39
21.87,6.41
22.09,6.42
22.31,6.44
22.54,6.45
22.76,6.47
22.99,6.48
23.22,6.50
23.45,6.51
23.69,6.53
23.92,6.56
24.16,6.58
24.40,6.61
24.65,6.63
24.89,6.65
25.14,6.66
25.39,6.67
25.65,6.68
25.91,6.69
26.16,6.69
26.43,6.70
26.69,6.70
26.96,6.71
27.23,6.71
27.50,6.71
27.77,6.70
28.05,6.70
28.33,6.68
28.62,6.67
28.90,6.66
29.19,6.66
29.48,6.66
29.78,6.66
30.08,6.67
30.38,6.68
30.68,6.69
30.99,6.71
31.30,6.74
31.61,6.77
31.93,6.79
32.24,6.81
32.57,6.83
32.89,6.84
33.22,6.85
33.55,6.87
33.89,6.88
34.23,6.89
34.57,6.90
34.92,6.90
35.27,6.91
35.62,6.92
35.97,6.94
36.33,6.96
36.70,6.97
37.06,6.96
37.43,6.95
37.81,6.93
38.19,6.91
38.57,6.90
38.95,6.88
39.34,6.88
39.74,6.87
40.14,6.85
40.54,6.84
40.94,6.82
41.35,6.79
41.76,6.77
42.18,6.76
42.60,6.75
43.03,6.75
43.46,6.74
43.90,6.72
44.33,6.69
44.78,6.66
45.23,6.65
45.68,6.66
46.13,6.67
46.60,6.68
47.06,6.67
47.53,6.66
48.01,6.65
48.49,6.64
48.97,6.62
49.46,6.59
49.96,6.55
50.46,6.52
50.96,6.50
51.47,6.49
51.99,6.47
52.51,6.45
53.03,6.42
53.56,6.37
54.10,6.32
54.64,6.29
55.18,6.26
55.74,6.24
56.29,6.21
56.86,6.17
57.42,6.13
58.00,6.08
58.58,6.04
59.16,5.99
59.76,5.93
60.35,5.88
60.96,5.82
61.57,5.76
62.18,5.71
62.80,5.66
63.43,5.61
64.07,5.57
64.71,5.53
65.35,5.50
66.01,5.47
66.67,5.44
67.33,5.41
68.01,5.38
68.69,5.37
69.37,5.36
70.07,5.37
70.77,5.36
71.48,5.35
72.19,5.33
72.91,5.31
73.64,5.31
74.38,5.31
75.12,5.30
75.87,5.28
76.63,5.26
77.40,5.23
78.17,5.20
78.95,5.17
79.74,5.12
80.54,5.08
81.35,5.04
82.16,4.99
82.98,4.94
83.81,4.89
84.65,4.84
85.50,4.79
86.35,4.74
87.22,4.69
88.09,4.63
88.97,4.58
89.86,4.53
90.76,4.48
91.66,4.43
92.58,4.39
93.51,4.35
94.44,4.32
95.39,4.29
96.34,4.27
97.30,4.25
98.28,4.24
99.26,4.23
100.25,4.22
101.25,4.21
102.27,4.21
103.29,4.21
104.32,4.21
105.37,4.21
106.42,4.21
107.48,4.21
108.56,4.21
109.64,4.20
110.74,4.20
111.85,4.19
112.97,4.18
114.10,4.17
115.24,4.16
116.39,4.16
117.55,4.16
118.73,4.15
119.92,4.14
121.12,4.14
122.33,4.13
123.55,4.13
124.79,4.13
126.03,4.13
127.29,4.14
128.57,4.15
129.85,4.15
131.15,4.15
132.46,4.14
133.79,4.11
135.12,4.08
136.48,4.04
137.84,4.00
139.22,3.95
140.61,3.91
142.02,3.87
143.44,3.83
144.87,3.79
146.32,3.76
147.78,3.73
149.26,3.70
150.75,3.67
152.26,3.64
153.78,3.64
155.32,3.63
156.88,3.62
158.44,3.59
160.03,3.55
161.63,3.52
163.24,3.48
164.88,3.42
166.53,3.37
168.19,3.32
169.87,3.28
171.57,3.21
173.29,3.15
175.02,3.09
176.77,3.04
178.54,2.99
180.32,2.93
182.13,2.88
183.95,2.85
185.79,2.83
187.65,2.82
189.52,2.81
191.42,2.81
193.33,2.81
195.27,2.83
197.22,2.85
199.19,2.87
201.18,2.89
203.19,2.92
205.23,2.95
207.28,2.99
209.35,3.04
211.44,3.08
213.56,3.13
215.69,3.19
217.85,3.25
220.03,3.30
222.23,3.37
224.45,3.43
226.70,3.48
228.96,3.52
231.25,3.56
233.57,3.60
235.90,3.64
238.26,3.69
240.64,3.73
243.05,3.77
245.48,3.80
247.93,3.83
250.41,3.86
252.92,3.90
255.45,3.93
258.00,3.96
260.58,3.99
263.19,4.02
265.82,4.05
268.48,4.08
271.16,4.10
273.87,4.13
276.61,4.15
279.38,4.18
282.17,4.20
284.99,4.22
287.84,4.24
290.72,4.26
293.63,4.27
296.57,4.28
299.53,4.29
302.53,4.29
305.55,4.29
308.61,4.29
311.69,4.29
314.81,4.29
317.96,4.29
321.14,4.28
324.35,4.27
327.59,4.26
330.87,4.24
334.18,4.22
337.52,4.19
340.90,4.16
344.30,4.12
347.75,4.09
351.23,4.07
354.74,4.04
358.28,4.02
361.87,3.98
365.49,3.94
369.14,3.89
372.83,3.84
376.56,3.79
380.33,3.74
384.13,3.69
387.97,3.64
391.85,3.58
395.77,3.53
399.73,3.46
403.72,3.39
407.76,3.32
411.84,3.25
415.96,3.18
420.12,3.11
424.32,3.03
428.56,2.95
432.85,2.88
437.18,2.80
441.55,2.72
445.96,2.65
450.42,2.58
454.93,2.51
459.48,2.44
464.07,2.38
468.71,2.31
473.40,2.24
478.13,2.18
482.91,2.13
487.74,2.07
492.62,2.02
497.55,1.97
502.52,1.93
507.55,1.89
512.62,1.85
517.75,1.81
522.93,1.77
528.16,1.73
533.44,1.69
538.77,1.65
544.16,1.61
549.60,1.56
555.10,1.51
560.65,1.46
566.25,1.41
571.92,1.36
577.64,1.31
583.41,1.26
589.25,1.20
595.14,1.14
601.09,1.08
607.10,1.02
613.17,0.97
619.30,0.92
625.50,0.87
631.75,0.81
638.07,0.76
644.45,0.69
650.89,0.63
657.40,0.55
663.98,0.48
670.62,0.40
677.32,0.32
684.10,0.24
690.94,0.17
697.85,0.09
704.83,0.03
711.87,-0.04
718.99,-0.09
726.18,-0.14
733.44,-0.19
740.78,-0.23
748.19,-0.26
755.67,-0.29
763.23,-0.30
770.86,-0.31
778.57,-0.31
786.35,-0.30
794.22,-0.28
802.16,-0.26
810.18,-0.22
818.28,-0.18
826.46,-0.14
834.73,-0.10
843.08,-0.06
851.51,-0.02
860.02,0.01
868.62,0.06
877.31,0.11
886.08,0.17
894.94,0.22
903.89,0.25
912.93,0.25
922.06,0.22
931.28,0.19
940.59,0.16
950.00,0.12
959.50,0.10
969.09,0.08
978.78,0.05
988.57,0.03
998.46,0.00
1008.44,-0.02
1018.53,-0.05
1028.71,-0.09
1039.00,-0.13
1049.39,-0.18
1059.88,-0.23
1070.48,-0.28
1081.19,-0.34
1092.00,-0.40
1102.92,-0.46
1113.95,-0.52
1125.09,-0.58
1136.34,-0.64
1147.70,-0.70
1159.18,-0.76
1170.77,-0.82
1182.48,-0.87
1194.30,-0.92
1206.25,-0.98
1218.31,-1.03
1230.49,-1.08
1242.80,-1.12
1255.22,-1.16
1267.78,-1.20
1280.45,-1.23
1293.26,-1.25
1306.19,-1.27
1319.25,-1.29
1332.45,-1.31
1345.77,-1.32
1359.23,-1.33
1372.82,-1.34
1386.55,-1.35
1400.41,-1.37
1414.42,-1.37
1428.56,-1.37
1442.85,-1.35
1457.28,-1.34
1471.85,-1.32
1486.57,-1.30
1501.43,-1.28
1516.45,-1.25
1531.61,-1.22
1546.93,-1.19
1562.40,-1.15
1578.02,-1.11
1593.80,-1.07
1609.74,-1.01
1625.84,-0.94
1642.10,-0.85
1658.52,-0.77
1675.10,-0.68
1691.85,-0.59
1708.77,-0.51
1725.86,-0.43
1743.12,-0.37
1760.55,-0.32
1778.15,-0.28
1795.94,-0.26
1813.90,-0.26
1832.03,-0.30
1850.36,-0.36
1868.86,-0.45
1887.55,-0.56
1906.42,-0.68
1925.49,-0.81
1944.74,-0.92
1964.19,-1.00
1983.83,-1.03
2003.67,-1.00
2023.71,-0.87
2043.94,-0.66
2064.38,-0.39
2085.03,-0.03
2105.88,0.38
2126.94,0.81
2148.20,1.26
2169.69,1.72
2191.38,2.17
2213.30,2.60
2235.43,3.03
2257.78,3.43
2280.36,3.82
2303.17,4.19
2326.20,4.54
2349.46,4.87
2372.95,5.18
2396.68,5.49
2420.65,5.78
2444.86,6.07
2469.31,6.34
2494.00,6.61
2518.94,6.86
2544.13,7.10
2569.57,7.33
2595.27,7.54
2621.22,7.74
2647.43,7.92
2673.90,8.08
2700.64,8.23
2727.65,8.35
2754.93,8.45
2782.48,8.52
2810.30,8.57
2838.40,8.61
2866.79,8.62
2895.46,8.63
2924.41,8.60
2953.65,8.56
2983.19,8.49
3013.02,8.42
3043.15,8.34
3073.58,8.23
3104.32,8.11
3135.36,7.99
3166.72,7.86
3198.38,7.73
3230.37,7.62
3262.67,7.53
3295.30,7.46
3328.25,7.45
3361.53,7.48
3395.15,7.58
3429.10,7.77
3463.39,8.03
3498.03,8.36
3533.01,8.79
3568.34,9.26
3604.02,9.77
3640.06,10.29
3676.46,10.76
3713.22,11.18
3750.36,11.52
3787.86,11.68
3825.74,11.82
3864.00,11.82
3902.64,11.69
3941.66,11.55
3981.08,11.32
4020.89,11.04
4061.10,10.74
4101.71,10.40
4142.73,10.06
4184.15,9.72
4226.00,9.40
4268.26,9.10
4310.94,8.82
4354.05,8.60
4397.59,8.44
4441.56,8.30
4485.98,8.25
4530.84,8.25
4576.15,8.36
4621.91,8.52
4668.13,8.81
4714.81,9.17
4761.96,9.57
4809.58,10.01
4857.67,10.47
4906.25,10.96
4955.31,11.47
5004.87,12.03
5054.91,12.67
5105.46,13.33
5156.52,14.03
5208.08,14.71
5260.16,15.24
5312.77,15.61
5365.89,15.63
5419.55,15.21
5473.75,14.41
5528.49,13.25
5583.77,11.75
5639.61,10.12
5696.00,8.43
5752.96,6.74
5810.49,5.05
5868.60,3.45
5927.28,1.93
5986.56,0.49
6046.42,-0.77
6106.89,-1.89
6167.96,-2.83
6229.64,-3.63
6291.93,-4.37
6354.85,-5.17
6418.40,-6.01
6482.58,-6.95
6547.41,-7.95
6612.88,-8.96
6679.01,-9.90
6745.80,-10.48
6813.26,-10.72
6881.39,-10.20
6950.21,-8.95
7019.71,-7.28
7089.91,-5.20
7160.81,-2.91
7232.41,-0.61
7304.74,1.65
7377.79,3.65
7451.56,5.34
7526.08,6.73
7601.34,7.76
7677.35,8.35
7754.13,8.75
7831.67,8.52
7909.98,8.02
7989.08,7.07
8068.98,5.56
8149.67,3.77
8231.16,1.65
8313.47,-0.73
8396.61,-3.20
8480.57,-5.75
8565.38,-7.73
8651.03,-8.95
8737.54,-9.11
8824.92,-8.46
8913.17,-8.13
9002.30,-8.02
9092.32,-8.95
9183.25,-9.74
9275.08,-10.17
9367.83,-9.83
9461.51,-9.18
9556.12,-8.40
9651.68,-7.53
9748.20,-6.64
9845.68,-5.91
9944.14,-5.36
10043.58,-5.05
10144.02,-4.90
10245.46,-4.78
10347.91,-4.45
10451.39,-3.82
10555.91,-2.64
10661.46,-1.33
10768.08,0.00
10875.76,0.99
10984.52,1.16
11094.36,0.67
11205.31,-0.79
11317.36,-3.41
11430.53,-5.98
11544.84,-7.42
11660.29,-7.20
11776.89,-6.17
11894.66,-4.23
12013.60,-2.27
12133.74,-0.38
12255.08,1.32
12377.63,2.85
12501.41,4.00
12626.42,4.51
12752.68,4.53
12880.21,4.04
13009.01,3.30
13139.10,2.57
13270.49,1.44
13403.20,0.19
13537.23,-1.23
13672.60,-2.52
13809.33,-3.63
13947.42,-3.97
14086.90,-3.74
14227.77,-3.18
14370.04,-2.82
14513.74,-2.77
14658.88,-3.59
14805.47,-4.81
14953.52,-6.68
15103.06,-8.67
15254.09,-10.70
15406.63,-12.14
15560.70,-12.88
15716.30,-12.52
15873.47,-11.68
16032.20,-10.61
16192.52,-9.14
16354.45,-7.57
16517.99,-6.01
16683.17,-4.90
16850.01,-4.14
17018.51,-3.69
17188.69,-3.95
17360.58,-4.97
17534.18,-6.50
17709.53,-8.46
17886.62,-8.49
18065.49,-7.16
18246.14,-4.45
18428.60,-2.28
18612.89,-0.90
18799.02,-0.30
18987.01,-0.55
19176.88,-1.54
19368.65,-2.78
19562.33,-3.98
19757.96,-4.79
19955.54,-5.61
