frequency,raw
20,-7.63
21,-7.01
22,-6.39
23,-5.88
24,-5.40
25,-4.94
26,-4.50
27,-4.07
28,-3.76
29,-3.29
30,-3.05
31,-2.76
32,-2.36
33,-2.13
34,-1.95
35,-1.63
36,-1.31
37,-1.17
38,-0.98
39,-0.65
40,-0.45
41,-0.33
42,-0.06
43,0.05
44,0.30
45,0.40
46,0.64
47,0.73
48,0.96
49,0.97
50,1.23
51,1.29
52,1.38
53,1.60
54,1.62
55,1.69
56,1.89
57,1.94
58,1.96
59,2.16
60,2.27
61,2.27
62,2.39
63,2.57
64,2.59
65,2.59
66,2.61
67,2.78
68,2.92
69,2.92
70,2.92
71,2.92
72,2.95
73,3.10
74,3.24
75,3.24
76,3.24
77,3.24
78,3.24
79,3.35
80,3.40
81,3.47
82,3.56
83,3.56
84,3.56
85,3.56
86,3.56
87,3.56
88,3.56
89,3.56
90,3.68
91,3.81
92,3.89
93,3.89
94,3.89
95,3.89
96,3.89
97,3.89
98,3.89
99,3.89
100,3.89
101,3.89
102,3.89
104,4.02
105,4.13
106,4.19
107,4.09
108,4.12
109,4.21
110,4.21
111,4.21
112,4.21
113,4.21
114,4.21
115,4.21
117,4.21
118,4.21
119,4.21
120,4.21
121,4.21
123,4.21
124,4.21
125,4.21
126,4.21
128,4.21
129,4.21
130,4.21
131,4.21
133,4.21
134,4.21
135,4.21
137,4.21
138,4.21
140,4.21
141,4.21
142,4.21
144,4.21
145,4.21
147,4.21
148,4.21
150,4.21
151,4.21
153,4.21
154,4.21
156,4.21
157,4.21
159,4.21
160,4.21
162,4.21
164,4.21
165,4.21
167,4.21
169,4.21
170,4.21
172,4.21
174,4.21
175,4.21
177,4.21
179,4.21
181,4.21
183,4.21
184,4.21
186,4.21
188,4.21
190,4.21
192,4.21
194,4.21
196,4.21
198,4.21
200,4.21
202,4.21
204,4.10
206,3.99
208,3.89
210,3.89
212,3.89
214,3.89
216,3.89
218,3.89
221,3.89
223,3.89
225,3.89
227,3.89
229,3.89
232,3.89
234,3.89
236,3.89
239,3.89
241,3.89
244,3.89
246,3.89
248,3.89
251,3.89
253,3.89
256,3.97
259,4.05
261,4.05
264,4.16
266,4.21
269,4.21
272,4.21
274,4.21
277,4.21
280,4.21
283,4.21
286,4.21
288,4.21
291,4.21
294,4.21
297,4.21
300,4.21
303,4.21
306,4.21
309,4.21
312,4.21
316,4.21
319,4.21
322,4.21
325,4.21
328,4.21
332,4.21
335,4.21
338,4.21
342,4.21
345,4.21
349,4.21
352,4.21
356,4.21
359,4.21
363,4.21
366,4.15
370,4.08
374,4.20
377,4.21
381,4.18
385,4.06
389,4.05
393,3.99
397,3.89
401,3.89
405,3.89
409,3.89
413,3.89
417,3.89
421,3.89
425,3.89
430,3.89
434,3.89
438,3.89
443,3.89
447,3.89
451,3.89
456,3.89
460,3.89
465,3.89
470,3.89
474,3.89
479,3.89
484,3.89
489,3.89
494,3.89
499,3.89
504,3.89
509,3.83
514,3.73
519,3.73
524,3.66
529,3.56
535,3.56
540,3.56
545,3.56
551,3.56
556,3.56
562,3.56
568,3.56
573,3.56
579,3.51
585,3.39
591,3.28
596,3.24
602,3.24
608,3.24
615,3.24
621,3.24
627,3.24
633,3.15
639,3.04
646,2.92
652,2.92
659,2.92
665,2.92
672,2.80
679,2.68
686,2.59
692,2.59
699,2.59
706,2.56
713,2.45
721,2.33
728,2.27
735,2.27
742,2.27
750,2.15
757,1.94
765,1.94
773,1.94
780,1.91
788,1.68
796,1.62
804,1.62
812,1.62
820,1.52
828,1.41
837,1.29
845,1.29
853,1.24
862,1.12
871,1.00
879,0.97
888,0.95
897,0.83
906,0.72
915,0.64
924,0.64
933,0.55
943,0.43
952,0.32
962,0.32
971,0.26
981,0.15
991,0.03
1001,-0.00
1011,-0.06
1021,-0.28
1031,-0.33
1041,-0.39
1052,-0.63
1062,-0.65
1073,-0.70
1084,-0.82
1094,-0.92
1105,-1.03
1116,-1.15
1128,-1.27
1139,-1.30
1150,-1.34
1162,-1.58
1173,-1.63
1185,-1.66
1197,-1.77
1209,-1.89
1221,-1.95
1233,-1.95
1246,-2.18
1258,-2.27
1271,-2.27
1283,-2.27
1296,-2.35
1309,-2.46
1322,-2.57
1335,-2.60
1349,-2.60
1362,-2.60
1376,-2.60
1390,-2.60
1404,-2.60
1418,-2.60
1432,-2.60
1446,-2.60
1461,-2.60
1475,-2.60
1490,-2.60
1505,-2.60
1520,-2.60
1535,-2.60
1550,-2.60
1566,-2.50
1582,-2.38
1597,-2.27
1613,-2.27
1629,-2.27
1646,-2.27
1662,-2.27
1679,-2.12
1696,-1.95
1713,-1.95
1730,-1.95
1747,-1.91
1764,-1.80
1782,-1.69
1800,-1.63
1818,-1.62
1836,-1.40
1854,-1.30
1873,-1.29
1892,-1.17
1911,-1.06
1930,-0.98
1949,-0.98
1969,-0.88
1988,-0.77
2008,-0.66
2028,-0.65
2048,-0.55
2069,-0.33
2090,-0.33
2111,-0.26
2132,-0.15
2153,-0.04
2175,-0.00
2196,0.02
2218,0.14
2240,0.25
2263,0.32
2285,0.32
2308,0.42
2331,0.54
2355,0.64
2378,0.64
2402,0.78
2426,0.97
2450,0.97
2475,1.05
2500,1.16
2525,1.28
2550,1.29
2575,1.34
2601,1.45
2627,1.56
2653,1.62
2680,1.63
2707,1.86
2734,1.94
2761,1.94
2789,1.94
2817,2.03
2845,2.14
2873,2.25
2902,2.27
2931,2.36
2960,2.58
2990,2.59
3020,2.65
3050,2.76
3080,2.87
3111,2.98
3142,3.10
3174,3.21
3206,3.24
3238,3.27
3270,3.39
3303,3.50
3336,3.56
3369,3.56
3403,3.56
3437,3.56
3471,3.56
3506,3.56
3541,3.56
3576,3.56
3612,3.56
3648,3.48
3685,3.37
3721,3.26
3759,3.24
3796,3.15
3834,2.92
3873,2.80
3911,2.69
3950,2.57
3990,2.35
4030,2.27
4070,2.22
4111,1.99
4152,1.94
4193,1.87
4235,1.65
4278,1.62
4321,1.57
4364,1.46
4407,1.35
4451,1.29
4496,1.29
4541,1.29
4586,1.29
4632,1.29
4679,1.29
4725,1.29
4773,1.29
4820,1.29
4868,1.29
4917,1.34
4966,1.45
5016,1.57
5066,1.68
5117,1.79
5168,1.91
5220,2.09
5272,2.32
5325,2.54
5378,2.68
5432,2.91
5486,3.36
5541,3.60
5596,3.88
5652,4.21
5709,4.55
5766,4.96
5823,5.40
5882,5.85
5940,6.15
6000,6.40
6060,6.74
6120,6.98
6182,7.21
6244,7.44
6306,7.46
6369,7.56
6433,7.78
6497,7.78
6562,7.78
6628,7.78
6694,7.78
6761,7.62
6828,7.46
6897,7.46
6966,7.27
7035,7.05
7106,6.82
7177,6.60
7249,6.32
7321,5.99
7394,5.77
7468,5.34
7543,4.81
7618,4.48
7694,4.06
7771,3.61
7849,3.16
7928,2.89
8007,2.67
8087,2.44
8168,2.22
8250,2.10
8332,2.11
8415,2.22
8499,2.33
8584,2.50
8670,2.95
8757,3.24
8845,3.46
8933,3.69
9022,4.00
9113,4.26
9204,4.37
9296,4.48
9389,4.59
9483,4.71
9577,4.82
9673,4.86
9770,4.86
9868,4.86
9966,4.86
10066,4.83
10167,4.72
10268,4.61
10371,4.45
10475,4.22
10579,3.89
10685,3.50
10792,3.03
10900,2.24
11009,1.32
11119,0.25
11230,-1.10
11343,-2.54
11456,-3.99
11571,-5.46
11686,-6.82
11803,-8.03
11921,-9.04
12040,-10.16
12161,-11.11
12282,-11.90
12405,-12.80
12529,-13.56
12655,-14.26
12781,-15.04
12909,-15.75
13038,-16.35
13168,-16.80
13300,-17.35
13433,-17.86
13567,-18.31
13703,-18.55
13840,-18.77
13978,-18.99
14118,-19.10
14259,-19.07
14402,-18.93
14546,-18.71
14692,-18.31
14838,-17.93
14987,-17.71
15137,-17.39
15288,-17.15
15441,-17.03
15595,-16.92
15751,-16.99
15909,-17.20
16068,-17.32
16229,-17.50
16391,-17.73
16555,-17.95
16720,-18.17
16888,-18.40
17056,-18.62
17227,-19.05
17399,-19.45
17573,-19.78
17749,-20.23
17926,-20.68
18106,-21.16
18287,-21.83
18470,-22.50
18654,-23.20
18841,-23.99
19029,-24.69
19220,-25.40
19412,-26.19
19606,-26.77
19802,-27.33
20000,-27.90
