frequency,raw,error,smoothed,error_smoothed,equalization,parametric_eq,fixed_band_eq,equalized_raw,equalized_smoothed,target
20.00,6.49,2.12,6.49,2.12,-2.12,-2.50,-1.27,4.37,4.37,4.37
20.20,6.52,2.15,6.52,2.15,-2.15,-2.51,-1.30,4.37,4.37,4.37
20.40,6.55,2.18,6.55,2.18,-2.18,-2.51,-1.34,4.37,4.37,4.37
20.61,6.58,2.21,6.58,2.22,-2.22,-2.52,-1.38,4.36,4.37,4.37
20.81,6.62,2.26,6.61,2.25,-2.25,-2.53,-1.42,4.37,4.36,4.36
21.02,6.65,2.29,6.65,2.29,-2.28,-2.54,-1.46,4.36,4.36,4.36
21.23,6.67,2.31,6.68,2.32,-2.32,-2.54,-1.50,4.35,4.36,4.36
21.44,6.71,2.34,6.71,2.34,-2.35,-2.55,-1.55,4.36,4.36,4.37
21.66,6.74,2.38,6.74,2.38,-2.38,-2.56,-1.59,4.35,4.35,4.36
21.87,6.77,2.41,6.77,2.41,-2.42,-2.56,-1.64,4.35,4.35,4.36
22.09,6.80,2.45,6.80,2.45,-2.45,-2.57,-1.69,4.35,4.35,4.35
22.31,6.83,2.48,6.83,2.49,-2.48,-2.58,-1.74,4.35,4.35,4.35
22.54,6.86,2.52,6.86,2.52,-2.51,-2.59,-1.78,4.35,4.34,4.34
22.76,6.88,2.54,6.88,2.54,-2.54,-2.60,-1.84,4.34,4.34,4.33
22.99,6.90,2.56,6.90,2.57,-2.57,-2.60,-1.89,4.33,4.33,4.33
23.22,6.92,2.59,6.92,2.59,-2.60,-2.61,-1.94,4.32,4.32,4.32
23.45,6.94,2.62,6.94,2.62,-2.62,-2.62,-2.00,4.32,4.32,4.32
23.69,6.96,2.65,6.96,2.65,-2.64,-2.63,-2.05,4.31,4.32,4.31
23.92,6.98,2.68,6.98,2.67,-2.66,-2.64,-2.11,4.31,4.31,4.30
24.16,7.00,2.70,6.99,2.69,-2.69,-2.65,-2.17,4.31,4.31,4.30
24.40,7.00,2.70,7.01,2.71,-2.71,-2.66,-2.23,4.29,4.30,4.30
24.65,7.02,2.72,7.02,2.72,-2.73,-2.67,-2.29,4.29,4.29,4.30
24.89,7.04,2.74,7.04,2.74,-2.75,-2.68,-2.35,4.29,4.29,4.30
25.14,7.06,2.76,7.06,2.76,-2.77,-2.69,-2.41,4.29,4.29,4.30
25.39,7.08,2.79,7.08,2.79,-2.78,-2.70,-2.47,4.30,4.29,4.29
25.65,7.10,2.81,7.10,2.81,-2.80,-2.71,-2.53,4.30,4.29,4.29
25.91,7.11,2.82,7.11,2.82,-2.82,-2.72,-2.60,4.29,4.29,4.29
26.16,7.13,2.83,7.13,2.84,-2.84,-2.73,-2.66,4.29,4.29,4.29
26.43,7.15,2.85,7.15,2.86,-2.86,-2.74,-2.72,4.29,4.29,4.29
26.69,7.17,2.88,7.17,2.88,-2.87,-2.75,-2.78,4.29,4.29,4.29
26.96,7.19,2.90,7.18,2.89,-2.89,-2.76,-2.84,4.30,4.29,4.29
27.23,7.20,2.91,7.20,2.91,-2.90,-2.77,-2.90,4.29,4.29,4.29
27.50,7.21,2.92,7.21,2.92,-2.92,-2.78,-2.96,4.29,4.29,4.29
27.77,7.23,2.93,7.22,2.93,-2.94,-2.79,-3.02,4.29,4.29,4.30
28.05,7.24,2.95,7.24,2.95,-2.95,-2.81,-3.07,4.29,4.29,4.29
28.33,7.25,2.96,7.25,2.97,-2.97,-2.82,-3.12,4.28,4.28,4.29
28.62,7.27,2.99,7.26,2.98,-2.98,-2.83,-3.17,4.29,4.28,4.27
28.90,7.27,2.99,7.27,3.00,-3.00,-2.84,-3.22,4.27,4.28,4.28
29.19,7.29,3.02,7.28,3.01,-3.01,-2.85,-3.27,4.27,4.27,4.27
29.48,7.29,3.03,7.29,3.03,-3.03,-2.87,-3.31,4.26,4.26,4.26
29.78,7.31,3.05,7.30,3.05,-3.04,-2.88,-3.35,4.26,4.26,4.26
30.08,7.31,3.05,7.31,3.06,-3.06,-2.89,-3.38,4.25,4.25,4.26
30.38,7.32,3.07,7.32,3.07,-3.07,-2.91,-3.41,4.25,4.25,4.25
30.68,7.33,3.08,7.32,3.08,-3.08,-2.92,-3.44,4.25,4.25,4.24
30.99,7.33,3.09,7.33,3.09,-3.09,-2.93,-3.46,4.24,4.24,4.24
31.30,7.34,3.10,7.34,3.10,-3.09,-2.95,-3.48,4.24,4.24,4.24
31.61,7.34,3.10,7.34,3.10,-3.10,-2.96,-3.49,4.24,4.24,4.24
31.93,7.34,3.10,7.34,3.10,-3.10,-2.98,-3.50,4.24,4.24,4.24
32.24,7.34,3.09,7.34,3.10,-3.10,-2.99,-3.51,4.24,4.24,4.24
32.57,7.34,3.11,7.34,3.10,-3.10,-3.00,-3.51,4.24,4.24,4.23
32.89,7.34,3.10,7.34,3.10,-3.10,-3.02,-3.51,4.24,4.24,4.24
33.22,7.34,3.10,7.33,3.10,-3.10,-3.03,-3.51,4.24,4.23,4.24
33.55,7.33,3.09,7.33,3.10,-3.10,-3.05,-3.50,4.22,4.23,4.23
33.89,7.33,3.11,7.33,3.11,-3.11,-3.06,-3.49,4.22,4.22,4.22
34.23,7.33,3.12,7.33,3.11,-3.11,-3.08,-3.48,4.21,4.21,4.21
34.57,7.33,3.12,7.33,3.12,-3.12,-3.09,-3.46,4.21,4.21,4.21
34.92,7.32,3.13,7.32,3.13,-3.13,-3.11,-3.45,4.19,4.19,4.18
35.27,7.32,3.14,7.32,3.14,-3.14,-3.13,-3.43,4.18,4.17,4.18
35.62,7.31,3.16,7.31,3.15,-3.16,-3.14,-3.41,4.15,4.15,4.15
35.97,7.30,3.16,7.30,3.17,-3.17,-3.16,-3.39,4.12,4.13,4.13
36.33,7.30,3.19,7.30,3.19,-3.19,-3.17,-3.37,4.11,4.10,4.11
36.70,7.29,3.21,7.29,3.21,-3.21,-3.19,-3.35,4.08,4.08,4.08
37.06,7.29,3.24,7.29,3.23,-3.23,-3.20,-3.33,4.06,4.05,4.05
37.43,7.28,3.26,7.28,3.26,-3.25,-3.22,-3.30,4.03,4.02,4.02
37.81,7.27,3.27,7.27,3.28,-3.27,-3.24,-3.28,3.99,3.99,4.00
38.19,7.26,3.30,7.26,3.29,-3.29,-3.25,-3.26,3.96,3.96,3.96
38.57,7.25,3.31,7.25,3.31,-3.31,-3.27,-3.24,3.94,3.94,3.94
38.95,7.24,3.33,7.24,3.33,-3.33,-3.28,-3.22,3.91,3.91,3.91
39.34,7.23,3.35,7.23,3.35,-3.34,-3.30,-3.21,3.88,3.88,3.88
39.74,7.22,3.36,7.21,3.36,-3.36,-3.31,-3.19,3.86,3.86,3.85
40.14,7.20,3.37,7.20,3.37,-3.37,-3.33,-3.18,3.83,3.83,3.83
40.54,7.18,3.37,7.19,3.38,-3.38,-3.35,-3.17,3.80,3.81,3.81
40.94,7.18,3.39,7.17,3.39,-3.39,-3.36,-3.16,3.79,3.78,3.79
41.35,7.16,3.40,7.16,3.39,-3.39,-3.38,-3.15,3.77,3.77,3.76
41.76,7.14,3.40,7.14,3.40,-3.40,-3.39,-3.14,3.74,3.74,3.74
42.18,7.13,3.40,7.12,3.40,-3.40,-3.41,-3.14,3.73,3.72,3.73
42.60,7.10,3.39,7.10,3.40,-3.40,-3.42,-3.14,3.69,3.70,3.70
43.03,7.09,3.41,7.09,3.40,-3.40,-3.43,-3.14,3.68,3.68,3.68
43.46,7.07,3.41,7.07,3.41,-3.41,-3.45,-3.15,3.66,3.66,3.66
43.90,7.05,3.41,7.05,3.41,-3.41,-3.46,-3.15,3.64,3.64,3.64
44.33,7.03,3.41,7.03,3.41,-3.41,-3.47,-3.16,3.62,3.62,3.62
44.78,7.01,3.41,7.01,3.40,-3.41,-3.49,-3.17,3.60,3.60,3.60
45.23,6.98,3.39,6.98,3.40,-3.41,-3.50,-3.18,3.57,3.58,3.59
45.68,6.96,3.41,6.96,3.41,-3.41,-3.51,-3.20,3.55,3.55,3.55
46.13,6.94,3.42,6.94,3.41,-3.41,-3.52,-3.22,3.53,3.52,3.51
46.60,6.91,3.41,6.91,3.42,-3.42,-3.53,-3.24,3.49,3.50,3.50
47.06,6.89,3.42,6.89,3.42,-3.42,-3.54,-3.26,3.47,3.46,3.47
47.53,6.86,3.42,6.86,3.43,-3.43,-3.55,-3.29,3.43,3.43,3.44
48.01,6.83,3.44,6.83,3.44,-3.44,-3.56,-3.32,3.39,3.39,3.39
48.49,6.80,3.44,6.80,3.44,-3.45,-3.57,-3.35,3.35,3.35,3.36
48.97,6.78,3.46,6.78,3.46,-3.46,-3.58,-3.38,3.32,3.32,3.32
49.46,6.75,3.46,6.75,3.47,-3.47,-3.59,-3.41,3.28,3.28,3.28
49.96,6.72,3.49,6.72,3.48,-3.48,-3.59,-3.44,3.24,3.24,3.22
50.46,6.68,3.49,6.68,3.49,-3.49,-3.60,-3.48,3.19,3.19,3.19
50.96,6.65,3.50,6.65,3.50,-3.50,-3.61,-3.52,3.15,3.15,3.15
51.47,6.62,3.50,6.62,3.51,-3.50,-3.61,-3.55,3.12,3.12,3.12
51.99,6.59,3.51,6.59,3.51,-3.51,-3.61,-3.59,3.08,3.08,3.07
52.51,6.56,3.52,6.55,3.51,-3.51,-3.62,-3.63,3.05,3.04,3.04
53.03,6.52,3.50,6.52,3.51,-3.52,-3.62,-3.67,3.00,3.00,3.02
53.56,6.48,3.51,6.48,3.51,-3.52,-3.62,-3.71,2.96,2.96,2.97
54.10,6.45,3.52,6.45,3.51,-3.52,-3.62,-3.75,2.93,2.93,2.93
54.64,6.41,3.52,6.41,3.53,-3.52,-3.62,-3.78,2.89,2.89,2.89
55.18,6.38,3.53,6.38,3.53,-3.52,-3.61,-3.82,2.86,2.85,2.84
55.74,6.34,3.53,6.34,3.52,-3.52,-3.61,-3.85,2.82,2.82,2.81
56.29,6.30,3.52,6.30,3.52,-3.52,-3.61,-3.88,2.78,2.78,2.78
56.86,6.26,3.51,6.26,3.51,-3.51,-3.60,-3.91,2.74,2.75,2.75
57.42,6.22,3.51,6.22,3.51,-3.51,-3.60,-3.94,2.71,2.72,2.70
58.00,6.19,3.51,6.18,3.50,-3.50,-3.59,-3.96,2.69,2.69,2.68
58.58,6.15,3.49,6.15,3.49,-3.49,-3.58,-3.98,2.66,2.66,2.66
59.16,6.10,3.47,6.10,3.48,-3.48,-3.57,-4.00,2.62,2.62,2.63
59.76,6.06,3.46,6.06,3.46,-3.48,-3.56,-4.01,2.58,2.58,2.60
60.35,6.01,3.46,6.01,3.46,-3.48,-3.55,-4.02,2.53,2.53,2.54
60.96,5.97,3.47,5.97,3.47,-3.48,-3.54,-4.02,2.49,2.49,2.50
61.57,5.93,3.49,5.92,3.48,-3.48,-3.53,-4.02,2.44,2.44,2.44
62.18,5.88,3.49,5.88,3.49,-3.49,-3.51,-4.01,2.39,2.40,2.38
62.80,5.84,3.50,5.83,3.50,-3.49,-3.50,-4.00,2.35,2.35,2.34
63.43,5.79,3.50,5.79,3.50,-3.49,-3.48,-3.98,2.30,2.30,2.29
64.07,5.74,3.49,5.74,3.49,-3.49,-3.46,-3.96,2.25,2.26,2.25
64.71,5.70,3.49,5.69,3.48,-3.48,-3.45,-3.93,2.22,2.21,2.21
65.35,5.64,3.46,5.64,3.47,-3.47,-3.43,-3.90,2.17,2.17,2.18
66.01,5.59,3.45,5.59,3.45,-3.45,-3.41,-3.86,2.13,2.13,2.14
66.67,5.54,3.43,5.53,3.43,-3.44,-3.39,-3.82,2.10,2.09,2.11
67.33,5.48,3.42,5.48,3.42,-3.42,-3.37,-3.78,2.05,2.06,2.06
68.01,5.43,3.41,5.43,3.41,-3.41,-3.34,-3.73,2.02,2.02,2.02
68.69,5.38,3.40,5.37,3.40,-3.39,-3.32,-3.68,1.99,1.98,1.98
69.37,5.32,3.37,5.32,3.38,-3.38,-3.30,-3.62,1.94,1.94,1.94
70.07,5.27,3.36,5.27,3.36,-3.36,-3.27,-3.56,1.91,1.91,1.91
70.77,5.21,3.34,5.21,3.34,-3.35,-3.25,-3.50,1.86,1.86,1.87
71.48,5.16,3.34,5.15,3.33,-3.33,-3.22,-3.44,1.83,1.82,1.82
72.19,5.09,3.31,5.09,3.31,-3.31,-3.19,-3.38,1.78,1.78,1.78
72.91,5.04,3.30,5.03,3.30,-3.29,-3.17,-3.31,1.74,1.74,1.74
73.64,4.97,3.27,4.97,3.28,-3.27,-3.14,-3.25,1.70,1.70,1.69
74.38,4.91,3.25,4.91,3.25,-3.25,-3.11,-3.18,1.66,1.66,1.66
75.12,4.85,3.23,4.85,3.23,-3.23,-3.08,-3.11,1.62,1.62,1.62
75.87,4.79,3.19,4.79,3.20,-3.20,-3.05,-3.04,1.59,1.59,1.60
76.63,4.73,3.17,4.73,3.17,-3.17,-3.02,-2.98,1.56,1.56,1.56
77.40,4.66,3.13,4.66,3.14,-3.14,-2.99,-2.91,1.52,1.52,1.52
78.17,4.60,3.12,4.60,3.10,-3.10,-2.96,-2.84,1.50,1.49,1.48
78.95,4.53,3.06,4.53,3.07,-3.07,-2.92,-2.77,1.46,1.46,1.47
79.74,4.47,3.03,4.47,3.03,-3.03,-2.89,-2.71,1.44,1.43,1.44
80.54,4.40,3.00,4.40,2.99,-2.99,-2.86,-2.64,1.40,1.40,1.40
81.35,4.33,2.95,4.33,2.95,-2.96,-2.83,-2.58,1.37,1.37,1.37
82.16,4.26,2.91,4.26,2.91,-2.92,-2.79,-2.52,1.34,1.34,1.35
82.98,4.19,2.88,4.19,2.88,-2.88,-2.76,-2.46,1.31,1.31,1.31
83.81,4.13,2.85,4.12,2.85,-2.84,-2.72,-2.40,1.28,1.28,1.28
84.65,4.06,2.81,4.06,2.81,-2.80,-2.69,-2.34,1.25,1.25,1.24
85.50,3.99,2.77,3.99,2.77,-2.77,-2.65,-2.28,1.22,1.22,1.21
86.35,3.92,2.72,3.92,2.73,-2.73,-2.62,-2.23,1.19,1.19,1.19
87.22,3.84,2.68,3.84,2.68,-2.68,-2.58,-2.17,1.15,1.16,1.16
88.09,3.78,2.65,3.77,2.64,-2.64,-2.55,-2.12,1.14,1.13,1.13
88.97,3.70,2.60,3.70,2.60,-2.60,-2.51,-2.07,1.10,1.10,1.10
89.86,3.63,2.56,3.63,2.56,-2.56,-2.48,-2.02,1.07,1.07,1.07
90.76,3.55,2.52,3.55,2.52,-2.52,-2.44,-1.98,1.03,1.03,1.03
91.66,3.48,2.48,3.48,2.48,-2.48,-2.41,-1.93,1.00,1.00,1.00
92.58,3.40,2.43,3.40,2.43,-2.44,-2.37,-1.89,0.96,0.96,0.97
93.51,3.33,2.40,3.33,2.40,-2.40,-2.33,-1.85,0.93,0.93,0.93
94.44,3.25,2.35,3.25,2.36,-2.36,-2.30,-1.80,0.88,0.89,0.89
95.39,3.18,2.33,3.17,2.32,-2.33,-2.26,-1.76,0.85,0.84,0.85
96.34,3.10,2.30,3.10,2.29,-2.30,-2.22,-1.73,0.80,0.80,0.80
97.30,3.02,2.25,3.02,2.27,-2.27,-2.19,-1.69,0.75,0.76,0.77
98.28,2.96,2.25,2.95,2.24,-2.23,-2.15,-1.66,0.72,0.71,0.71
99.26,2.87,2.21,2.87,2.21,-2.20,-2.12,-1.62,0.67,0.67,0.66
100.25,2.80,2.17,2.80,2.17,-2.17,-2.08,-1.59,0.63,0.63,0.62
101.25,2.72,2.13,2.72,2.13,-2.13,-2.04,-1.56,0.58,0.59,0.59
102.27,2.65,2.10,2.64,2.09,-2.10,-2.01,-1.53,0.55,0.55,0.55
103.29,2.57,2.06,2.57,2.05,-2.05,-1.97,-1.50,0.51,0.51,0.51
104.32,2.49,2.00,2.49,2.01,-2.01,-1.94,-1.47,0.48,0.48,0.48
105.37,2.42,1.97,2.41,1.97,-1.97,-1.90,-1.45,0.45,0.45,0.45
106.42,2.34,1.92,2.33,1.92,-1.92,-1.87,-1.42,0.42,0.41,0.42
107.48,2.25,1.88,2.25,1.88,-1.87,-1.83,-1.40,0.38,0.38,0.37
108.56,2.17,1.83,2.17,1.82,-1.82,-1.80,-1.37,0.34,0.34,0.34
109.64,2.09,1.77,2.09,1.77,-1.78,-1.77,-1.35,0.31,0.31,0.32
110.74,2.00,1.72,2.00,1.73,-1.73,-1.73,-1.33,0.27,0.28,0.28
111.85,1.93,1.69,1.92,1.68,-1.68,-1.70,-1.31,0.25,0.24,0.24
112.97,1.84,1.63,1.84,1.63,-1.64,-1.67,-1.29,0.20,0.20,0.20
114.10,1.76,1.59,1.76,1.59,-1.60,-1.63,-1.27,0.16,0.16,0.17
115.24,1.67,1.55,1.67,1.55,-1.56,-1.60,-1.25,0.11,0.12,0.12
116.39,1.59,1.52,1.59,1.52,-1.52,-1.57,-1.23,0.07,0.07,0.06
117.55,1.51,1.48,1.50,1.48,-1.48,-1.54,-1.21,0.03,0.03,0.03
118.73,1.42,1.44,1.42,1.44,-1.44,-1.51,-1.20,-0.02,-0.02,-0.03
119.92,1.34,1.41,1.34,1.40,-1.40,-1.48,-1.18,-0.06,-0.06,-0.07
121.12,1.25,1.35,1.25,1.36,-1.36,-1.44,-1.16,-0.11,-0.11,-0.10
122.33,1.17,1.33,1.17,1.32,-1.33,-1.42,-1.15,-0.16,-0.16,-0.16
123.55,1.09,1.29,1.09,1.29,-1.30,-1.39,-1.13,-0.21,-0.20,-0.20
124.79,1.02,1.26,1.01,1.26,-1.26,-1.36,-1.12,-0.24,-0.25,-0.24
126.03,0.93,1.22,0.93,1.23,-1.23,-1.33,-1.10,-0.31,-0.30,-0.30
127.29,0.85,1.20,0.85,1.20,-1.21,-1.30,-1.09,-0.36,-0.35,-0.36
128.57,0.78,1.19,0.77,1.18,-1.18,-1.27,-1.07,-0.40,-0.40,-0.41
129.85,0.70,1.15,0.70,1.16,-1.15,-1.25,-1.06,-0.45,-0.45,-0.46
131.15,0.62,1.12,0.62,1.12,-1.12,-1.22,-1.05,-0.50,-0.50,-0.51
132.46,0.54,1.09,0.54,1.09,-1.09,-1.19,-1.04,-0.55,-0.55,-0.55
133.79,0.47,1.06,0.46,1.06,-1.06,-1.17,-1.02,-0.59,-0.59,-0.59
135.12,0.39,1.03,0.39,1.02,-1.02,-1.14,-1.01,-0.64,-0.63,-0.64
136.48,0.32,0.98,0.32,0.99,-0.99,-1.12,-1.00,-0.67,-0.67,-0.66
137.84,0.25,0.95,0.25,0.95,-0.95,-1.10,-0.99,-0.70,-0.70,-0.70
139.22,0.18,0.92,0.18,0.91,-0.91,-1.07,-0.98,-0.73,-0.73,-0.74
140.61,0.10,0.86,0.11,0.88,-0.87,-1.05,-0.96,-0.77,-0.77,-0.77
142.02,0.04,0.84,0.03,0.83,-0.83,-1.03,-0.95,-0.80,-0.80,-0.80
143.44,-0.03,0.80,-0.03,0.79,-0.80,-1.01,-0.94,-0.83,-0.83,-0.83
144.87,-0.10,0.75,-0.10,0.76,-0.76,-0.99,-0.93,-0.86,-0.86,-0.85
146.32,-0.16,0.72,-0.16,0.72,-0.72,-0.97,-0.93,-0.89,-0.89,-0.88
147.78,-0.22,0.69,-0.22,0.69,-0.69,-0.95,-0.92,-0.91,-0.91,-0.91
149.26,-0.28,0.66,-0.28,0.66,-0.66,-0.93,-0.91,-0.94,-0.94,-0.94
150.75,-0.34,0.64,-0.34,0.63,-0.62,-0.91,-0.90,-0.97,-0.97,-0.98
152.26,-0.40,0.59,-0.40,0.60,-0.60,-0.89,-0.89,-1.00,-1.00,-0.99
153.78,-0.46,0.57,-0.46,0.57,-0.57,-0.87,-0.89,-1.03,-1.03,-1.03
155.32,-0.51,0.54,-0.51,0.54,-0.55,-0.86,-0.88,-1.06,-1.06,-1.05
156.88,-0.56,0.53,-0.56,0.53,-0.53,-0.84,-0.88,-1.09,-1.09,-1.09
158.44,-0.61,0.51,-0.61,0.51,-0.51,-0.82,-0.87,-1.13,-1.12,-1.12
160.03,-0.65,0.50,-0.66,0.50,-0.50,-0.81,-0.87,-1.16,-1.16,-1.15
161.63,-0.70,0.48,-0.70,0.50,-0.50,-0.79,-0.86,-1.20,-1.19,-1.19
163.24,-0.73,0.51,-0.73,0.50,-0.50,-0.78,-0.86,-1.23,-1.23,-1.24
164.88,-0.76,0.51,-0.76,0.50,-0.50,-0.77,-0.86,-1.26,-1.26,-1.27
166.53,-0.79,0.51,-0.80,0.51,-0.50,-0.75,-0.86,-1.30,-1.30,-1.31
168.19,-0.83,0.50,-0.83,0.51,-0.51,-0.74,-0.86,-1.34,-1.34,-1.33
169.87,-0.86,0.51,-0.86,0.52,-0.52,-0.73,-0.86,-1.38,-1.38,-1.37
171.57,-0.88,0.54,-0.88,0.53,-0.53,-0.72,-0.86,-1.41,-1.42,-1.42
173.29,-0.90,0.55,-0.91,0.55,-0.54,-0.71,-0.86,-1.45,-1.45,-1.45
175.02,-0.93,0.56,-0.93,0.56,-0.56,-0.70,-0.86,-1.49,-1.49,-1.49
176.77,-0.95,0.57,-0.95,0.57,-0.57,-0.69,-0.86,-1.52,-1.52,-1.52
178.54,-0.97,0.59,-0.97,0.59,-0.59,-0.68,-0.86,-1.56,-1.56,-1.56
180.32,-0.99,0.61,-0.99,0.60,-0.61,-0.67,-0.87,-1.60,-1.60,-1.60
182.13,-1.01,0.62,-1.01,0.62,-0.62,-0.67,-0.87,-1.64,-1.64,-1.63
183.95,-1.03,0.63,-1.03,0.64,-0.64,-0.66,-0.88,-1.68,-1.67,-1.67
185.79,-1.04,0.67,-1.04,0.66,-0.66,-0.66,-0.88,-1.71,-1.71,-1.71
187.65,-1.05,0.69,-1.06,0.68,-0.69,-0.65,-0.89,-1.74,-1.74,-1.74
189.52,-1.07,0.71,-1.07,0.71,-0.71,-0.65,-0.89,-1.78,-1.78,-1.78
191.42,-1.08,0.73,-1.09,0.73,-0.73,-0.64,-0.90,-1.81,-1.82,-1.82
193.33,-1.10,0.75,-1.10,0.75,-0.75,-0.64,-0.91,-1.85,-1.85,-1.85
195.27,-1.12,0.77,-1.12,0.77,-0.77,-0.64,-0.91,-1.89,-1.89,-1.89
197.22,-1.13,0.80,-1.14,0.79,-0.79,-0.63,-0.92,-1.92,-1.93,-1.93
199.19,-1.15,0.81,-1.15,0.81,-0.81,-0.63,-0.93,-1.96,-1.96,-1.96
201.18,-1.17,0.82,-1.17,0.82,-0.82,-0.63,-0.94,-1.99,-1.99,-1.99
203.19,-1.18,0.84,-1.19,0.83,-0.83,-0.63,-0.95,-2.01,-2.02,-2.02
205.23,-1.21,0.83,-1.21,0.84,-0.84,-0.64,-0.96,-2.05,-2.05,-2.04
207.28,-1.22,0.85,-1.22,0.85,-0.85,-0.64,-0.97,-2.07,-2.07,-2.07
209.35,-1.24,0.86,-1.24,0.86,-0.86,-0.64,-0.98,-2.10,-2.10,-2.10
211.44,-1.26,0.87,-1.26,0.87,-0.87,-0.65,-0.98,-2.13,-2.13,-2.13
213.56,-1.28,0.88,-1.28,0.87,-0.87,-0.65,-0.99,-2.16,-2.16,-2.16
215.69,-1.30,0.88,-1.30,0.88,-0.88,-0.66,-1.00,-2.18,-2.18,-2.18
217.85,-1.32,0.88,-1.32,0.89,-0.89,-0.66,-1.01,-2.21,-2.21,-2.21
220.03,-1.34,0.90,-1.34,0.89,-0.89,-0.67,-1.02,-2.23,-2.23,-2.24
222.23,-1.36,0.90,-1.36,0.90,-0.89,-0.68,-1.03,-2.26,-2.26,-2.26
224.45,-1.38,0.90,-1.38,0.90,-0.90,-0.69,-1.04,-2.28,-2.28,-2.28
226.70,-1.40,0.90,-1.40,0.90,-0.90,-0.70,-1.04,-2.30,-2.30,-2.30
228.96,-1.41,0.90,-1.41,0.90,-0.91,-0.72,-1.05,-2.32,-2.32,-2.31
231.25,-1.41,0.92,-1.42,0.91,-0.92,-0.73,-1.05,-2.33,-2.34,-2.33
233.57,-1.43,0.92,-1.43,0.93,-0.92,-0.75,-1.06,-2.36,-2.35,-2.35
235.90,-1.44,0.94,-1.44,0.94,-0.93,-0.76,-1.06,-2.38,-2.37,-2.38
238.26,-1.44,0.96,-1.45,0.95,-0.95,-0.78,-1.06,-2.39,-2.39,-2.40
240.64,-1.45,0.95,-1.45,0.96,-0.96,-0.80,-1.06,-2.41,-2.40,-2.40
243.05,-1.44,0.97,-1.45,0.97,-0.97,-0.82,-1.06,-2.41,-2.42,-2.42
245.48,-1.45,0.98,-1.45,0.98,-0.98,-0.84,-1.06,-2.43,-2.43,-2.43
247.93,-1.45,1.00,-1.45,1.00,-0.99,-0.86,-1.06,-2.44,-2.44,-2.45
250.41,-1.44,1.01,-1.45,1.00,-1.00,-0.89,-1.05,-2.44,-2.45,-2.45
252.92,-1.45,1.00,-1.45,1.01,-1.01,-0.91,-1.05,-2.47,-2.46,-2.46
255.45,-1.45,1.02,-1.45,1.02,-1.02,-0.94,-1.04,-2.48,-2.47,-2.47
258.00,-1.44,1.04,-1.45,1.03,-1.04,-0.97,-1.04,-2.48,-2.48,-2.48
260.58,-1.44,1.04,-1.44,1.05,-1.05,-1.00,-1.03,-2.49,-2.49,-2.49
263.19,-1.43,1.07,-1.44,1.06,-1.06,-1.03,-1.02,-2.49,-2.50,-2.50
265.82,-1.43,1.08,-1.43,1.08,-1.08,-1.05,-1.00,-2.51,-2.51,-2.51
268.48,-1.43,1.08,-1.43,1.09,-1.09,-1.08,-0.99,-2.52,-2.52,-2.51
271.16,-1.42,1.11,-1.42,1.10,-1.11,-1.11,-0.98,-2.53,-2.53,-2.53
273.87,-1.42,1.11,-1.42,1.12,-1.12,-1.14,-0.96,-2.54,-2.54,-2.53
276.61,-1.41,1.14,-1.41,1.14,-1.13,-1.17,-0.95,-2.54,-2.55,-2.55
279.38,-1.41,1.15,-1.41,1.15,-1.15,-1.19,-0.93,-2.56,-2.55,-2.56
282.17,-1.40,1.17,-1.40,1.16,-1.16,-1.22,-0.92,-2.56,-2.56,-2.57
284.99,-1.40,1.16,-1.40,1.17,-1.17,-1.24,-0.90,-2.57,-2.57,-2.56
287.84,-1.40,1.17,-1.40,1.17,-1.18,-1.26,-0.88,-2.58,-2.58,-2.57
290.72,-1.40,1.19,-1.40,1.18,-1.18,-1.27,-0.86,-2.58,-2.58,-2.59
293.63,-1.40,1.18,-1.40,1.19,-1.19,-1.28,-0.84,-2.59,-2.59,-2.59
296.57,-1.40,1.19,-1.40,1.19,-1.19,-1.29,-0.82,-2.59,-2.59,-2.59
299.53,-1.40,1.19,-1.40,1.19,-1.19,-1.29,-0.80,-2.59,-2.59,-2.59
302.53,-1.41,1.19,-1.41,1.19,-1.19,-1.29,-0.78,-2.60,-2.60,-2.60
305.55,-1.41,1.19,-1.42,1.18,-1.19,-1.28,-0.77,-2.60,-2.60,-2.60
308.61,-1.43,1.17,-1.43,1.18,-1.18,-1.27,-0.75,-2.61,-2.61,-2.60
311.69,-1.43,1.18,-1.43,1.17,-1.17,-1.26,-0.73,-2.61,-2.61,-2.61
314.81,-1.44,1.17,-1.44,1.17,-1.17,-1.24,-0.71,-2.61,-2.61,-2.61
317.96,-1.45,1.16,-1.45,1.16,-1.16,-1.21,-0.69,-2.61,-2.61,-2.61
321.14,-1.46,1.14,-1.46,1.15,-1.14,-1.19,-0.67,-2.61,-2.61,-2.61
324.35,-1.48,1.14,-1.48,1.13,-1.13,-1.16,-0.65,-2.61,-2.61,-2.62
327.59,-1.49,1.11,-1.49,1.11,-1.12,-1.13,-0.63,-2.61,-2.61,-2.60
330.87,-1.51,1.09,-1.51,1.10,-1.10,-1.09,-0.61,-2.61,-2.61,-2.60
334.18,-1.52,1.09,-1.52,1.08,-1.09,-1.06,-0.60,-2.61,-2.61,-2.62
337.52,-1.54,1.07,-1.54,1.07,-1.07,-1.02,-0.58,-2.61,-2.61,-2.61
340.90,-1.55,1.06,-1.56,1.05,-1.05,-0.99,-0.56,-2.60,-2.61,-2.61
344.30,-1.57,1.03,-1.57,1.03,-1.03,-0.95,-0.54,-2.60,-2.60,-2.60
347.75,-1.59,1.00,-1.59,1.01,-1.01,-0.91,-0.53,-2.60,-2.60,-2.59
351.23,-1.60,1.00,-1.61,0.99,-0.99,-0.88,-0.51,-2.59,-2.60,-2.61
354.74,-1.62,0.97,-1.63,0.97,-0.97,-0.84,-0.50,-2.59,-2.60,-2.59
358.28,-1.65,0.95,-1.64,0.95,-0.95,-0.80,-0.48,-2.60,-2.59,-2.60
361.87,-1.66,0.93,-1.66,0.93,-0.93,-0.77,-0.47,-2.59,-2.59,-2.59
365.49,-1.68,0.91,-1.68,0.91,-0.91,-0.74,-0.45,-2.59,-2.59,-2.59
369.14,-1.70,0.88,-1.70,0.89,-0.89,-0.70,-0.44,-2.59,-2.59,-2.59
372.83,-1.72,0.87,-1.72,0.87,-0.87,-0.67,-0.42,-2.59,-2.59,-2.59
376.56,-1.74,0.85,-1.74,0.85,-0.85,-0.64,-0.41,-2.59,-2.59,-2.59
380.33,-1.76,0.83,-1.76,0.83,-0.82,-0.61,-0.40,-2.59,-2.59,-2.59
384.13,-1.78,0.81,-1.78,0.81,-0.80,-0.59,-0.38,-2.58,-2.58,-2.59
387.97,-1.80,0.78,-1.81,0.78,-0.78,-0.56,-0.37,-2.58,-2.58,-2.58
391.85,-1.83,0.75,-1.83,0.76,-0.76,-0.54,-0.36,-2.59,-2.59,-2.58
395.77,-1.85,0.73,-1.85,0.73,-0.73,-0.51,-0.35,-2.59,-2.59,-2.59
399.73,-1.87,0.71,-1.87,0.71,-0.71,-0.49,-0.33,-2.58,-2.59,-2.59
403.72,-1.89,0.69,-1.89,0.69,-0.69,-0.47,-0.32,-2.58,-2.58,-2.58
407.76,-1.91,0.67,-1.91,0.67,-0.67,-0.44,-0.31,-2.58,-2.58,-2.58
411.84,-1.93,0.65,-1.93,0.65,-0.65,-0.42,-0.30,-2.58,-2.58,-2.58
415.96,-1.94,0.63,-1.95,0.63,-0.63,-0.41,-0.29,-2.57,-2.57,-2.57
420.12,-1.97,0.61,-1.97,0.61,-0.61,-0.39,-0.28,-2.58,-2.58,-2.58
424.32,-1.99,0.59,-1.99,0.59,-0.59,-0.37,-0.27,-2.58,-2.58,-2.58
428.56,-2.01,0.56,-2.01,0.57,-0.57,-0.35,-0.26,-2.58,-2.58,-2.57
432.85,-2.02,0.55,-2.03,0.55,-0.55,-0.34,-0.25,-2.58,-2.58,-2.57
437.18,-2.05,0.53,-2.05,0.54,-0.54,-0.32,-0.25,-2.59,-2.58,-2.58
441.55,-2.06,0.52,-2.06,0.52,-0.52,-0.31,-0.24,-2.58,-2.58,-2.59
445.96,-2.08,0.50,-2.08,0.50,-0.50,-0.29,-0.23,-2.58,-2.58,-2.59
450.42,-2.10,0.49,-2.10,0.49,-0.48,-0.28,-0.22,-2.58,-2.58,-2.59
454.93,-2.12,0.47,-2.12,0.47,-0.47,-0.26,-0.21,-2.59,-2.59,-2.59
459.48,-2.14,0.45,-2.14,0.45,-0.45,-0.25,-0.21,-2.59,-2.59,-2.59
464.07,-2.15,0.43,-2.15,0.43,-0.43,-0.24,-0.20,-2.58,-2.59,-2.58
468.71,-2.17,0.41,-2.17,0.41,-0.41,-0.23,-0.19,-2.59,-2.58,-2.58
473.40,-2.18,0.40,-2.18,0.40,-0.40,-0.22,-0.19,-2.58,-2.58,-2.58
478.13,-2.20,0.38,-2.20,0.38,-0.38,-0.20,-0.18,-2.58,-2.58,-2.58
482.91,-2.21,0.37,-2.22,0.36,-0.36,-0.19,-0.17,-2.57,-2.58,-2.58
487.74,-2.23,0.34,-2.23,0.35,-0.35,-0.18,-0.17,-2.58,-2.58,-2.57
