frequency,raw,error,smoothed,error_smoothed,equalization,parametric_eq,fixed_band_eq,equalized_raw,equalized_smoothed,target
20.00,-11.69,-14.48,-11.69,-14.51,6.00,5.55,2.71,-5.69,-5.69,2.80
20.20,-11.59,-14.42,-11.59,-14.44,6.00,5.58,2.79,-5.59,-5.59,2.84
20.40,-11.48,-14.36,-11.49,-14.37,6.00,5.60,2.87,-5.48,-5.49,2.88
20.61,-11.39,-14.29,-11.38,-14.30,6.00,5.63,2.95,-5.39,-5.38,2.91
20.81,-11.28,-14.23,-11.28,-14.22,6.00,5.65,3.03,-5.28,-5.28,2.95
21.02,-11.19,-14.17,-11.18,-14.15,6.00,5.67,3.12,-5.19,-5.18,2.99
21.23,-11.09,-14.09,-11.08,-14.07,6.00,5.70,3.21,-5.09,-5.08,3.01
21.44,-10.97,-14.00,-10.98,-13.99,6.00,5.72,3.30,-4.97,-4.98,3.03
21.66,-10.88,-13.92,-10.88,-13.91,6.00,5.74,3.40,-4.88,-4.88,3.05
21.87,-10.77,-13.83,-10.77,-13.82,6.00,5.77,3.49,-4.77,-4.77,3.06
22.09,-10.67,-13.75,-10.67,-13.74,6.00,5.79,3.60,-4.67,-4.67,3.08
22.31,-10.56,-13.65,-10.57,-13.65,6.00,5.81,3.70,-4.56,-4.57,3.09
22.54,-10.47,-13.56,-10.47,-13.56,6.00,5.83,3.80,-4.47,-4.47,3.10
22.76,-10.36,-13.47,-10.36,-13.47,6.00,5.85,3.91,-4.36,-4.36,3.11
22.99,-10.26,-13.36,-10.26,-13.38,6.00,5.87,4.02,-4.26,-4.26,3.11
23.22,-10.16,-13.27,-10.16,-13.28,6.00,5.89,4.14,-4.16,-4.16,3.11
23.45,-10.05,-13.18,-10.05,-13.19,6.00,5.91,4.25,-4.05,-4.05,3.12
23.69,-9.96,-13.09,-9.95,-13.09,6.00,5.93,4.37,-3.96,-3.95,3.13
23.92,-9.84,-12.99,-9.85,-13.00,6.00,5.95,4.49,-3.84,-3.85,3.14
24.16,-9.74,-12.91,-9.74,-12.90,6.00,5.96,4.61,-3.74,-3.74,3.16
24.40,-9.63,-12.82,-9.64,-12.81,6.00,5.98,4.74,-3.63,-3.64,3.18
24.65,-9.54,-12.72,-9.53,-12.71,6.00,6.00,4.87,-3.54,-3.53,3.18
24.89,-9.42,-12.62,-9.43,-12.62,6.00,6.02,4.99,-3.42,-3.43,3.19
25.14,-9.32,-12.53,-9.32,-12.52,6.00,6.03,5.12,-3.32,-3.32,3.20
25.39,-9.21,-12.42,-9.22,-12.43,6.00,6.05,5.26,-3.21,-3.22,3.21
25.65,-9.12,-12.35,-9.11,-12.34,6.00,6.06,5.39,-3.12,-3.11,3.23
25.91,-9.01,-12.24,-9.01,-12.24,6.00,6.08,5.52,-3.01,-3.01,3.23
26.16,-8.89,-12.13,-8.90,-12.14,6.00,6.09,5.65,-2.89,-2.90,3.24
26.43,-8.80,-12.05,-8.79,-12.05,6.00,6.11,5.79,-2.80,-2.79,3.25
26.69,-8.69,-11.94,-8.69,-11.95,6.00,6.12,5.92,-2.69,-2.69,3.26
26.96,-8.59,-11.86,-8.58,-11.85,6.00,6.13,6.05,-2.59,-2.58,3.28
27.23,-8.48,-11.76,-8.47,-11.76,6.00,6.14,6.17,-2.48,-2.47,3.29
27.50,-8.37,-11.66,-8.37,-11.66,6.00,6.16,6.30,-2.37,-2.37,3.30
27.77,-8.26,-11.56,-8.26,-11.56,6.00,6.17,6.42,-2.26,-2.26,3.30
28.05,-8.15,-11.47,-8.16,-11.46,6.00,6.18,6.54,-2.15,-2.16,3.31
28.33,-8.05,-11.37,-8.05,-11.37,6.00,6.19,6.65,-2.05,-2.05,3.31
28.62,-7.95,-11.27,-7.95,-11.27,6.00,6.20,6.76,-1.95,-1.95,3.32
28.90,-7.84,-11.18,-7.84,-11.18,6.00,6.21,6.86,-1.84,-1.84,3.33
29.19,-7.74,-11.07,-7.74,-11.08,6.00,6.22,6.95,-1.74,-1.74,3.33
29.48,-7.63,-10.99,-7.64,-10.99,6.00,6.22,7.03,-1.63,-1.64,3.36
29.78,-7.54,-10.90,-7.54,-10.90,6.00,6.23,7.11,-1.54,-1.54,3.36
30.08,-7.44,-10.80,-7.44,-10.81,6.00,6.24,7.18,-1.44,-1.44,3.37
30.38,-7.34,-10.70,-7.34,-10.72,6.00,6.24,7.23,-1.34,-1.34,3.37
30.68,-7.25,-10.63,-7.25,-10.63,6.00,6.25,7.28,-1.25,-1.25,3.39
30.99,-7.15,-10.53,-7.15,-10.54,6.00,6.26,7.32,-1.15,-1.15,3.38
31.30,-7.06,-10.45,-7.05,-10.45,6.00,6.26,7.35,-1.06,-1.05,3.39
31.61,-6.97,-10.37,-6.96,-10.36,6.00,6.27,7.36,-0.97,-0.96,3.40
31.93,-6.87,-10.28,-6.86,-10.27,6.00,6.27,7.37,-0.87,-0.86,3.41
32.24,-6.76,-10.17,-6.76,-10.18,6.00,6.27,7.36,-0.76,-0.76,3.41
32.57,-6.67,-10.09,-6.66,-10.09,6.00,6.28,7.35,-0.67,-0.66,3.43
32.89,-6.56,-10.00,-6.56,-10.00,6.00,6.28,7.33,-0.56,-0.56,3.44
33.22,-6.46,-9.91,-6.46,-9.91,6.00,6.28,7.30,-0.46,-0.46,3.45
33.55,-6.36,-9.82,-6.36,-9.82,6.00,6.28,7.26,-0.36,-0.36,3.45
33.89,-6.27,-9.73,-6.26,-9.72,6.00,6.28,7.21,-0.27,-0.26,3.46
34.23,-6.17,-9.64,-6.16,-9.63,6.00,6.28,7.15,-0.17,-0.16,3.47
34.57,-6.06,-9.53,-6.06,-9.53,6.00,6.28,7.10,-0.06,-0.06,3.48
34.92,-5.96,-9.43,-5.95,-9.43,6.00,6.28,7.03,0.04,0.05,3.48
35.27,-5.85,-9.33,-5.85,-9.33,6.00,6.28,6.96,0.15,0.15,3.48
35.62,-5.75,-9.24,-5.74,-9.24,6.00,6.28,6.89,0.25,0.26,3.49
35.97,-5.64,-9.13,-5.64,-9.13,6.00,6.27,6.82,0.36,0.36,3.49
36.33,-5.54,-9.04,-5.54,-9.03,6.00,6.27,6.74,0.46,0.46,3.50
36.70,-5.44,-8.93,-5.43,-8.93,6.00,6.27,6.66,0.56,0.57,3.50
37.06,-5.33,-8.84,-5.33,-8.84,6.00,6.26,6.58,0.67,0.67,3.50
37.43,-5.23,-8.75,-5.23,-8.74,6.00,6.26,6.51,0.77,0.77,3.51
37.81,-5.14,-8.64,-5.14,-8.64,6.00,6.25,6.43,0.86,0.86,3.51
38.19,-5.04,-8.54,-5.04,-8.55,6.00,6.24,6.35,0.96,0.96,3.51
38.57,-4.95,-8.45,-4.95,-8.45,6.00,6.24,6.28,1.05,1.05,3.50
38.95,-4.85,-8.35,-4.86,-8.37,6.00,6.23,6.21,1.15,1.14,3.50
39.34,-4.77,-8.27,-4.78,-8.28,6.00,6.22,6.14,1.23,1.22,3.50
39.74,-4.70,-8.19,-4.70,-8.20,6.00,6.21,6.07,1.30,1.30,3.49
40.14,-4.63,-8.13,-4.62,-8.12,6.00,6.20,6.00,1.37,1.38,3.50
40.54,-4.55,-8.04,-4.55,-8.05,6.00,6.19,5.94,1.45,1.45,3.50
40.94,-4.48,-7.97,-4.48,-7.98,6.00,6.18,5.89,1.52,1.52,3.49
41.35,-4.42,-7.91,-4.42,-7.91,6.00,6.17,5.83,1.58,1.58,3.49
41.76,-4.35,-7.85,-4.36,-7.85,6.00,6.16,5.78,1.65,1.64,3.50
42.18,-4.30,-7.81,-4.30,-7.80,6.00,6.15,5.74,1.70,1.70,3.50
42.60,-4.24,-7.74,-4.25,-7.74,6.00,6.13,5.69,1.76,1.75,3.50
43.03,-4.20,-7.70,-4.20,-7.69,6.00,6.12,5.65,1.80,1.80,3.50
43.46,-4.15,-7.65,-4.15,-7.65,6.00,6.11,5.62,1.85,1.85,3.50
43.90,-4.11,-7.59,-4.11,-7.61,6.00,6.09,5.59,1.89,1.89,3.49
44.33,-4.08,-7.57,-4.07,-7.57,6.00,6.08,5.57,1.92,1.93,3.49
44.78,-4.05,-7.53,-4.04,-7.53,6.00,6.06,5.54,1.95,1.96,3.49
45.23,-4.01,-7.49,-4.00,-7.50,6.00,6.04,5.53,1.99,2.00,3.48
45.68,-3.98,-7.46,-3.97,-7.46,6.00,6.03,5.51,2.02,2.03,3.49
46.13,-3.94,-7.42,-3.94,-7.43,6.00,6.01,5.51,2.06,2.06,3.48
46.60,-3.91,-7.40,-3.91,-7.40,6.00,5.99,5.50,2.09,2.09,3.49
47.06,-3.89,-7.37,-3.89,-7.37,6.00,5.97,5.50,2.11,2.11,3.49
47.53,-3.86,-7.34,-3.86,-7.34,6.00,5.95,5.50,2.14,2.14,3.48
48.01,-3.84,-7.33,-3.84,-7.31,6.00,5.93,5.51,2.16,2.16,3.50
48.49,-3.82,-7.30,-3.81,-7.28,6.00,5.91,5.52,2.18,2.19,3.48
48.97,-3.79,-7.25,-3.79,-7.25,6.00,5.89,5.53,2.21,2.21,3.46
49.46,-3.77,-7.22,-3.76,-7.22,6.00,5.86,5.55,2.23,2.24,3.46
49.96,-3.74,-7.17,-3.74,-7.19,6.00,5.84,5.57,2.26,2.26,3.44
50.46,-3.72,-7.16,-3.71,-7.15,6.00,5.82,5.59,2.28,2.29,3.44
50.96,-3.69,-7.12,-3.68,-7.11,6.00,5.79,5.62,2.31,2.32,3.43
51.47,-3.66,-7.06,-3.65,-7.06,6.00,5.77,5.64,2.34,2.35,3.40
51.99,-3.62,-7.01,-3.61,-7.01,6.00,5.74,5.67,2.38,2.39,3.40
52.51,-3.58,-6.97,-3.57,-6.96,6.00,5.72,5.70,2.42,2.43,3.40
53.03,-3.55,-6.92,-3.53,-6.91,6.00,5.69,5.73,2.45,2.47,3.38
53.56,-3.49,-6.85,-3.48,-6.85,6.00,5.66,5.76,2.51,2.52,3.37
54.10,-3.44,-6.79,-3.44,-6.78,6.00,5.63,5.79,2.56,2.56,3.35
54.64,-3.39,-6.72,-3.39,-6.72,6.00,5.60,5.82,2.61,2.61,3.34
55.18,-3.34,-6.65,-3.33,-6.66,6.00,5.57,5.85,2.66,2.67,3.32
55.74,-3.29,-6.58,-3.28,-6.59,6.00,5.54,5.88,2.71,2.72,3.30
56.29,-3.23,-6.52,-3.23,-6.52,6.00,5.51,5.90,2.77,2.77,3.30
56.86,-3.17,-6.44,-3.17,-6.45,6.00,5.48,5.92,2.83,2.83,3.28
57.42,-3.10,-6.36,-3.11,-6.38,6.00,5.45,5.94,2.90,2.89,3.25
58.00,-3.05,-6.29,-3.06,-6.30,6.00,5.42,5.96,2.95,2.94,3.24
58.58,-3.00,-6.22,-3.00,-6.23,6.00,5.38,5.97,3.00,3.00,3.23
59.16,-2.94,-6.16,-2.95,-6.15,5.99,5.35,5.97,3.04,3.04,3.21
59.76,-2.90,-6.10,-2.89,-6.08,5.97,5.31,5.97,3.07,3.07,3.20
60.35,-2.85,-6.02,-2.84,-6.00,5.93,5.28,5.97,3.08,3.09,3.18
60.96,-2.79,-5.94,-2.78,-5.92,5.88,5.24,5.96,3.09,3.10,3.15
61.57,-2.73,-5.84,-2.73,-5.85,5.82,5.21,5.94,3.10,3.09,3.12
62.18,-2.68,-5.76,-2.68,-5.77,5.76,5.17,5.92,3.08,3.08,3.08
62.80,-2.63,-5.69,-2.63,-5.69,5.69,5.13,5.89,3.06,3.06,3.07
63.43,-2.58,-5.60,-2.58,-5.61,5.61,5.09,5.85,3.04,3.04,3.03
64.07,-2.53,-5.53,-2.52,-5.53,5.53,5.05,5.80,3.01,3.01,3.00
64.71,-2.48,-5.45,-2.47,-5.45,5.45,5.01,5.75,2.98,2.98,2.98
65.35,-2.42,-5.36,-2.42,-5.37,5.37,4.97,5.70,2.96,2.95,2.95
66.01,-2.37,-5.28,-2.37,-5.29,5.29,4.93,5.64,2.93,2.92,2.92
66.67,-2.32,-5.22,-2.32,-5.21,5.21,4.89,5.57,2.90,2.89,2.90
67.33,-2.28,-5.15,-2.27,-5.13,5.13,4.85,5.49,2.86,2.86,2.87
68.01,-2.23,-5.07,-2.22,-5.05,5.05,4.80,5.42,2.83,2.83,2.84
68.69,-2.17,-4.97,-2.16,-4.97,4.97,4.76,5.33,2.80,2.81,2.81
69.37,-2.11,-4.88,-2.11,-4.89,4.89,4.72,5.25,2.78,2.78,2.78
70.07,-2.06,-4.80,-2.05,-4.80,4.80,4.67,5.16,2.75,2.75,2.75
70.77,-2.01,-4.73,-2.00,-4.72,4.72,4.62,5.06,2.72,2.72,2.72
71.48,-1.95,-4.65,-1.94,-4.64,4.64,4.58,4.97,2.69,2.70,2.70
72.19,-1.89,-4.55,-1.88,-4.55,4.55,4.53,4.87,2.67,2.67,2.67
72.91,-1.83,-4.47,-1.82,-4.47,4.47,4.48,4.77,2.65,2.65,2.64
73.64,-1.76,-4.37,-1.76,-4.39,4.39,4.44,4.67,2.63,2.62,2.62
74.38,-1.70,-4.30,-1.70,-4.30,4.30,4.39,4.57,2.61,2.60,2.60
75.12,-1.65,-4.22,-1.64,-4.22,4.22,4.34,4.47,2.57,2.58,2.58
75.87,-1.58,-4.14,-1.57,-4.14,4.14,4.29,4.37,2.56,2.56,2.56
76.63,-1.52,-4.06,-1.51,-4.05,4.05,4.24,4.27,2.54,2.54,2.54
77.40,-1.46,-3.98,-1.45,-3.97,3.97,4.19,4.17,2.52,2.53,2.53
78.17,-1.40,-3.90,-1.38,-3.89,3.89,4.14,4.07,2.50,2.51,2.51
78.95,-1.32,-3.82,-1.32,-3.82,3.82,4.09,3.97,2.49,2.50,2.50
79.74,-1.25,-3.74,-1.26,-3.74,3.74,4.03,3.88,2.49,2.49,2.49
80.54,-1.19,-3.66,-1.20,-3.67,3.67,3.98,3.78,2.49,2.48,2.48
81.35,-1.13,-3.59,-1.14,-3.60,3.60,3.93,3.69,2.48,2.47,2.47
82.16,-1.07,-3.52,-1.08,-3.54,3.54,3.87,3.60,2.47,2.46,2.46
82.98,-1.02,-3.47,-1.02,-3.48,3.48,3.82,3.51,2.46,2.45,2.45
83.81,-0.97,-3.41,-0.97,-3.41,3.41,3.77,3.42,2.45,2.44,2.44
84.65,-0.92,-3.34,-0.92,-3.36,3.36,3.71,3.34,2.44,2.44,2.43
85.50,-0.88,-3.31,-0.87,-3.30,3.30,3.65,3.25,2.43,2.43,2.44
86.35,-0.84,-3.27,-0.82,-3.26,3.26,3.60,3.17,2.42,2.43,2.43
87.22,-0.80,-3.22,-0.78,-3.21,3.21,3.54,3.09,2.42,2.43,2.43
88.09,-0.74,-3.16,-0.74,-3.17,3.17,3.49,3.02,2.43,2.43,2.42
88.97,-0.69,-3.11,-0.70,-3.13,3.13,3.43,2.94,2.44,2.43,2.43
89.86,-0.66,-3.09,-0.67,-3.09,3.09,3.37,2.87,2.43,2.42,2.43
90.76,-0.62,-3.03,-0.63,-3.05,3.05,3.31,2.80,2.44,2.42,2.42
91.66,-0.59,-3.00,-0.59,-3.01,3.01,3.25,2.73,2.43,2.42,2.42
92.58,-0.56,-2.97,-0.55,-2.97,2.97,3.19,2.67,2.41,2.42,2.41
93.51,-0.53,-2.95,-0.51,-2.93,2.93,3.14,2.61,2.40,2.42,2.42
94.44,-0.50,-2.91,-0.47,-2.88,2.88,3.08,2.55,2.39,2.41,2.42
95.39,-0.46,-2.87,-0.43,-2.84,2.84,3.02,2.49,2.39,2.41,2.42
96.34,-0.42,-2.82,-0.40,-2.80,2.80,2.96,2.43,2.38,2.40,2.40
97.30,-0.37,-2.76,-0.36,-2.76,2.76,2.90,2.38,2.39,2.40,2.39
98.28,-0.33,-2.71,-0.33,-2.72,2.72,2.84,2.32,2.39,2.39,2.38
99.26,-0.29,-2.66,-0.30,-2.68,2.68,2.77,2.27,2.39,2.38,2.37
100.25,-0.24,-2.60,-0.27,-2.63,2.63,2.71,2.22,2.40,2.37,2.37
101.25,-0.20,-2.55,-0.23,-2.59,2.59,2.65,2.17,2.39,2.36,2.36
102.27,-0.19,-2.52,-0.20,-2.54,2.54,2.59,2.13,2.36,2.34,2.34
103.29,-0.18,-2.49,-0.17,-2.49,2.49,2.53,2.08,2.32,2.32,2.32
104.32,-0.16,-2.46,-0.14,-2.44,2.44,2.47,2.04,2.29,2.30,2.31
105.37,-0.14,-2.42,-0.11,-2.39,2.39,2.40,1.99,2.26,2.28,2.29
106.42,-0.12,-2.38,-0.08,-2.34,2.34,2.34,1.95,2.23,2.26,2.26
107.48,-0.08,-2.32,-0.06,-2.29,2.29,2.28,1.91,2.21,2.23,2.24
108.56,-0.04,-2.24,-0.03,-2.24,2.24,2.22,1.87,2.20,2.20,2.20
109.64,0.00,-2.17,-0.01,-2.18,2.18,2.16,1.83,2.18,2.17,2.17
110.74,0.02,-2.12,0.02,-2.12,2.12,2.09,1.80,2.14,2.13,2.14
111.85,0.06,-2.04,0.05,-2.05,2.05,2.03,1.76,2.12,2.10,2.10
112.97,0.08,-1.97,0.07,-1.98,1.98,1.97,1.72,2.07,2.06,2.06
114.10,0.11,-1.91,0.11,-1.91,1.91,1.91,1.69,2.03,2.02,2.03
115.24,0.13,-1.84,0.14,-1.84,1.84,1.84,1.65,1.98,1.98,1.98
116.39,0.15,-1.78,0.17,-1.77,1.77,1.78,1.61,1.93,1.94,1.93
117.55,0.17,-1.72,0.20,-1.70,1.70,1.72,1.58,1.88,1.90,1.89
118.73,0.21,-1.63,0.22,-1.63,1.63,1.66,1.54,1.85,1.86,1.85
119.92,0.25,-1.56,0.25,-1.56,1.56,1.60,1.51,1.82,1.82,1.82
121.12,0.29,-1.48,0.28,-1.50,1.50,1.53,1.47,1.79,1.78,1.77
122.33,0.31,-1.42,0.31,-1.43,1.43,1.47,1.43,1.74,1.74,1.74
123.55,0.34,-1.36,0.35,-1.36,1.36,1.41,1.40,1.70,1.70,1.71
124.79,0.37,-1.30,0.38,-1.29,1.29,1.35,1.36,1.67,1.67,1.67
126.03,0.40,-1.23,0.41,-1.23,1.23,1.29,1.32,1.63,1.64,1.64
127.29,0.42,-1.18,0.44,-1.16,1.16,1.23,1.28,1.59,1.60,1.60
128.57,0.45,-1.11,0.47,-1.10,1.10,1.17,1.25,1.56,1.57,1.56
129.85,0.49,-1.04,0.49,-1.05,1.05,1.11,1.21,1.54,1.54,1.54
131.15,0.53,-0.97,0.51,-1.00,1.00,1.05,1.17,1.53,1.51,1.50
132.46,0.55,-0.93,0.53,-0.95,0.95,0.99,1.13,1.51,1.48,1.48
133.79,0.58,-0.87,0.55,-0.91,0.91,0.93,1.09,1.49,1.45,1.46
135.12,0.58,-0.84,0.56,-0.87,0.87,0.87,1.05,1.45,1.43,1.43
136.48,0.59,-0.81,0.58,-0.83,0.83,0.81,1.01,1.42,1.40,1.41
137.84,0.59,-0.78,0.59,-0.79,0.79,0.76,0.96,1.38,1.38,1.38
139.22,0.59,-0.75,0.61,-0.75,0.75,0.70,0.92,1.34,1.36,1.35
140.61,0.59,-0.72,0.62,-0.71,0.71,0.64,0.88,1.30,1.33,1.32
142.02,0.61,-0.69,0.64,-0.67,0.67,0.59,0.84,1.28,1.31,1.31
143.44,0.62,-0.67,0.66,-0.63,0.63,0.53,0.79,1.25,1.29,1.29
144.87,0.66,-0.60,0.68,-0.58,0.58,0.48,0.75,1.25,1.26,1.26
146.32,0.68,-0.55,0.70,-0.53,0.53,0.42,0.71,1.22,1.24,1.24
147.78,0.71,-0.51,0.73,-0.48,0.48,0.37,0.66,1.20,1.21,1.22
149.26,0.75,-0.44,0.76,-0.43,0.43,0.32,0.62,1.18,1.18,1.20
150.75,0.78,-0.37,0.78,-0.37,0.37,0.26,0.57,1.16,1.16,1.15
152.26,0.81,-0.31,0.81,-0.32,0.32,0.21,0.53,1.13,1.13,1.13
153.78,0.85,-0.25,0.84,-0.26,0.26,0.16,0.48,1.11,1.10,1.10
155.32,0.87,-0.18,0.86,-0.20,0.20,0.11,0.44,1.08,1.07,1.06
156.88,0.90,-0.13,0.88,-0.15,0.15,0.06,0.39,1.06,1.03,1.04
158.44,0.91,-0.09,0.90,-0.10,0.10,0.01,0.35,1.02,1.00,1.00
160.03,0.93,-0.03,0.91,-0.06,0.06,-0.04,0.30,0.99,0.97,0.96
161.63,0.94,0.02,0.92,-0.01,0.01,-0.08,0.26,0.96,0.93,0.92
163.24,0.93,0.04,0.93,0.03,-0.03,-0.13,0.21,0.90,0.90,0.89
164.88,0.92,0.06,0.93,0.07,-0.07,-0.18,0.17,0.85,0.86,0.86
166.53,0.91,0.09,0.93,0.11,-0.11,-0.22,0.12,0.81,0.82,0.82
168.19,0.91,0.13,0.93,0.15,-0.15,-0.27,0.07,0.77,0.78,0.78
169.87,0.91,0.17,0.93,0.18,-0.18,-0.31,0.03,0.73,0.74,0.75
171.57,0.91,0.21,0.92,0.22,-0.22,-0.35,-0.02,0.69,0.70,0.71
173.29,0.91,0.25,0.92,0.26,-0.26,-0.39,-0.07,0.65,0.66,0.66
175.02,0.91,0.29,0.92,0.30,-0.30,-0.43,-0.11,0.61,0.61,0.62
176.77,0.91,0.35,0.91,0.35,-0.35,-0.47,-0.16,0.57,0.57,0.57
178.54,0.91,0.39,0.91,0.39,-0.39,-0.51,-0.21,0.53,0.52,0.52
180.32,0.91,0.44,0.91,0.44,-0.44,-0.55,-0.26,0.48,0.48,0.48
182.13,0.91,0.48,0.91,0.48,-0.48,-0.59,-0.31,0.43,0.43,0.43
183.95,0.91,0.54,0.91,0.53,-0.53,-0.62,-0.35,0.38,0.38,0.38
185.79,0.91,0.58,0.91,0.58,-0.58,-0.66,-0.40,0.33,0.33,0.34
187.65,0.91,0.64,0.91,0.63,-0.63,-0.69,-0.45,0.28,0.28,0.27
189.52,0.91,0.69,0.91,0.68,-0.68,-0.73,-0.50,0.24,0.24,0.23
191.42,0.91,0.73,0.91,0.73,-0.73,-0.76,-0.55,0.19,0.19,0.19
193.33,0.91,0.77,0.91,0.77,-0.77,-0.79,-0.60,0.14,0.14,0.14
195.27,0.91,0.81,0.91,0.82,-0.82,-0.82,-0.65,0.10,0.10,0.10
197.22,0.91,0.86,0.91,0.86,-0.86,-0.85,-0.70,0.05,0.05,0.05
199.19,0.91,0.91,0.91,0.91,-0.91,-0.88,-0.75,0.01,0.01,0.00
201.18,0.91,0.95,0.91,0.95,-0.95,-0.91,-0.80,-0.03,-0.03,-0.04
203.19,0.91,0.98,0.91,0.99,-0.99,-0.94,-0.84,-0.08,-0.08,-0.07
205.23,0.91,1.03,0.91,1.03,-1.03,-0.96,-0.89,-0.12,-0.12,-0.12
207.28,0.91,1.05,0.91,1.07,-1.07,-0.99,-0.94,-0.15,-0.15,-0.14
209.35,0.91,1.10,0.91,1.11,-1.11,-1.01,-0.99,-0.19,-0.19,-0.19
211.44,0.91,1.15,0.91,1.14,-1.14,-1.03,-1.03,-0.23,-0.23,-0.24
213.56,0.91,1.18,0.91,1.18,-1.18,-1.06,-1.08,-0.26,-0.26,-0.27
215.69,0.91,1.20,0.91,1.21,-1.21,-1.08,-1.12,-0.29,-0.29,-0.28
217.85,0.91,1.24,0.91,1.24,-1.24,-1.10,-1.17,-0.33,-0.33,-0.32
220.03,0.91,1.27,0.91,1.27,-1.27,-1.12,-1.21,-0.35,-0.35,-0.36
222.23,0.91,1.30,0.91,1.29,-1.29,-1.14,-1.25,-0.38,-0.38,-0.39
224.45,0.91,1.32,0.91,1.32,-1.32,-1.16,-1.29,-0.40,-0.40,-0.40
226.70,0.91,1.34,0.91,1.34,-1.34,-1.17,-1.33,-0.42,-0.42,-0.42
228.96,0.91,1.36,0.91,1.36,-1.36,-1.19,-1.36,-0.44,-0.44,-0.45
231.25,0.91,1.37,0.91,1.37,-1.37,-1.20,-1.40,-0.46,-0.46,-0.45
233.57,0.91,1.39,0.91,1.39,-1.39,-1.22,-1.43,-0.47,-0.47,-0.47
235.90,0.91,1.40,0.91,1.40,-1.40,-1.23,-1.45,-0.48,-0.48,-0.49
238.26,0.91,1.41,0.91,1.40,-1.40,-1.24,-1.48,-0.49,-0.49,-0.49
240.64,0.91,1.41,0.91,1.41,-1.41,-1.26,-1.50,-0.49,-0.49,-0.50
243.05,0.91,1.41,0.91,1.41,-1.41,-1.27,-1.52,-0.50,-0.50,-0.49
245.48,0.91,1.41,0.91,1.41,-1.41,-1.28,-1.54,-0.50,-0.50,-0.50
247.93,0.91,1.41,0.91,1.41,-1.41,-1.29,-1.55,-0.49,-0.49,-0.49
250.41,0.91,1.41,0.91,1.40,-1.40,-1.30,-1.56,-0.49,-0.49,-0.50
252.92,0.91,1.40,0.91,1.40,-1.40,-1.31,-1.57,-0.48,-0.48,-0.48
255.45,0.91,1.38,0.91,1.39,-1.39,-1.31,-1.57,-0.47,-0.47,-0.47
258.00,0.91,1.38,0.91,1.38,-1.38,-1.32,-1.58,-0.46,-0.46,-0.46
260.58,0.91,1.37,0.91,1.37,-1.37,-1.33,-1.57,-0.45,-0.45,-0.46
263.19,0.91,1.35,0.91,1.35,-1.35,-1.33,-1.57,-0.44,-0.44,-0.44
265.82,0.91,1.35,0.91,1.34,-1.34,-1.34,-1.56,-0.43,-0.43,-0.43
268.48,0.91,1.32,0.91,1.33,-1.33,-1.34,-1.55,-0.41,-0.41,-0.41
271.16,0.91,1.31,0.91,1.31,-1.31,-1.34,-1.54,-0.40,-0.40,-0.39
273.87,0.91,1.30,0.91,1.30,-1.30,-1.35,-1.53,-0.38,-0.38,-0.38
276.61,0.91,1.27,0.91,1.28,-1.28,-1.35,-1.51,-0.37,-0.37,-0.36
279.38,0.91,1.27,0.91,1.26,-1.26,-1.35,-1.49,-0.35,-0.35,-0.35
282.17,0.91,1.25,0.91,1.25,-1.25,-1.35,-1.47,-0.34,-0.34,-0.33
284.99,0.91,1.23,0.91,1.24,-1.24,-1.35,-1.45,-0.32,-0.32,-0.32
287.84,0.91,1.22,0.91,1.22,-1.22,-1.35,-1.43,-0.30,-0.30,-0.31
290.72,0.91,1.21,0.91,1.20,-1.20,-1.35,-1.41,-0.29,-0.29,-0.29
293.63,0.91,1.19,0.91,1.19,-1.19,-1.35,-1.38,-0.27,-0.27,-0.27
296.57,0.91,1.17,0.91,1.17,-1.17,-1.35,-1.36,-0.26,-0.26,-0.26
299.53,0.91,1.16,0.91,1.16,-1.16,-1.35,-1.33,-0.25,-0.25,-0.25
302.53,0.91,1.16,0.91,1.15,-1.15,-1.34,-1.31,-0.23,-0.23,-0.24
305.55,0.91,1.13,0.91,1.13,-1.13,-1.34,-1.28,-0.22,-0.22,-0.21
308.61,0.91,1.12,0.91,1.12,-1.12,-1.34,-1.26,-0.21,-0.21,-0.21
311.69,0.91,1.11,0.91,1.11,-1.11,-1.33,-1.23,-0.20,-0.20,-0.20
314.81,0.91,1.08,0.91,1.10,-1.10,-1.33,-1.20,-0.18,-0.18,-0.17
317.96,0.91,1.09,0.91,1.09,-1.09,-1.32,-1.18,-0.17,-0.17,-0.17
321.14,0.91,1.08,0.91,1.08,-1.08,-1.32,-1.15,-0.17,-0.17,-0.16
324.35,0.91,1.08,0.91,1.07,-1.07,-1.31,-1.13,-0.16,-0.16,-0.17
327.59,0.91,1.06,0.91,1.07,-1.07,-1.31,-1.10,-0.15,-0.15,-0.15
330.87,0.91,1.06,0.91,1.06,-1.06,-1.30,-1.08,-0.15,-0.15,-0.15
334.18,0.91,1.06,0.91,1.06,-1.06,-1.29,-1.06,-0.14,-0.14,-0.15
337.52,0.91,1.06,0.91,1.05,-1.05,-1.29,-1.04,-0.14,-0.14,-0.14
340.90,0.91,1.05,0.91,1.05,-1.05,-1.28,-1.01,-0.14,-0.14,-0.13
344.30,0.91,1.05,0.91,1.05,-1.05,-1.27,-0.99,-0.14,-0.14,-0.13
347.75,0.91,1.05,0.92,1.05,-1.05,-1.27,-0.97,-0.14,-0.14,-0.14
351.23,0.91,1.05,0.92,1.06,-1.06,-1.26,-0.95,-0.14,-0.14,-0.14
354.74,0.91,1.05,0.92,1.06,-1.06,-1.25,-0.93,-0.15,-0.14,-0.14
358.28,0.91,1.06,0.92,1.07,-1.07,-1.24,-0.92,-0.16,-0.15,-0.15
361.87,0.91,1.07,0.93,1.08,-1.08,-1.23,-0.90,-0.16,-0.15,-0.15
365.49,0.91,1.07,0.93,1.08,-1.08,-1.22,-0.88,-0.17,-0.15,-0.15
369.14,0.92,1.09,0.93,1.09,-1.09,-1.22,-0.87,-0.17,-0.16,-0.16
372.83,0.93,1.10,0.93,1.10,-1.10,-1.21,-0.85,-0.16,-0.17,-0.16
376.56,0.93,1.11,0.93,1.10,-1.10,-1.20,-0.84,-0.16,-0.17,-0.17
380.33,0.93,1.11,0.92,1.10,-1.10,-1.19,-0.83,-0.17,-0.18,-0.18
384.13,0.92,1.11,0.91,1.10,-1.10,-1.18,-0.81,-0.17,-0.19,-0.19
387.97,0.91,1.11,0.90,1.09,-1.09,-1.17,-0.80,-0.18,-0.19,-0.20
391.85,0.90,1.11,0.88,1.08,-1.08,-1.16,-0.79,-0.18,-0.20,-0.21
395.77,0.87,1.07,0.86,1.07,-1.07,-1.15,-0.78,-0.19,-0.21,-0.20
399.73,0.84,1.05,0.84,1.05,-1.05,-1.14,-0.77,-0.20,-0.21,-0.21
403.72,0.81,1.03,0.81,1.03,-1.03,-1.13,-0.76,-0.21,-0.22,-0.22
407.76,0.78,1.02,0.78,1.00,-1.00,-1.12,-0.75,-0.22,-0.22,-0.23
411.84,0.74,0.97,0.75,0.98,-0.98,-1.11,-0.75,-0.23,-0.23,-0.22
415.96,0.71,0.95,0.72,0.95,-0.95,-1.09,-0.74,-0.24,-0.23,-0.23
420.12,0.68,0.92,0.69,0.93,-0.93,-1.08,-0.73,-0.24,-0.24,-0.23
424.32,0.65,0.89,0.66,0.90,-0.90,-1.07,-0.73,-0.25,-0.24,-0.23
428.56,0.62,0.87,0.64,0.88,-0.88,-1.06,-0.72,-0.26,-0.24,-0.24
432.85,0.60,0.85,0.62,0.86,-0.86,-1.05,-0.71,-0.26,-0.24,-0.24
437.18,0.58,0.83,0.61,0.85,-0.85,-1.04,-0.71,-0.26,-0.24,-0.25
441.55,0.57,0.81,0.59,0.83,-0.83,-1.03,-0.70,-0.26,-0.24,-0.24
445.96,0.57,0.81,0.58,0.82,-0.82,-1.02,-0.70,-0.25,-0.24,-0.24
450.42,0.57,0.82,0.58,0.82,-0.82,-1.01,-0.70,-0.24,-0.24,-0.25
454.93,0.58,0.82,0.58,0.81,-0.81,-1.00,-0.69,-0.23,-0.23,-0.24
459.48,0.58,0.82,0.58,0.81,-0.81,-0.99,-0.69,-0.23,-0.23,-0.24
464.07,0.59,0.82,0.59,0.81,-0.81,-0.97,-0.68,-0.22,-0.23,-0.23
468.71,0.59,0.81,0.59,0.81,-0.81,-0.96,-0.68,-0.22,-0.22,-0.22
473.40,0.59,0.81,0.60,0.82,-0.82,-0.95,-0.67,-0.22,-0.22,-0.22
478.13,0.59,0.80,0.60,0.81,-0.81,-0.94,-0.67,-0.22,-0.21,-0.21
482.91,0.60,0.81,0.61,0.81,-0.81,-0.93,-0.67,-0.21,-0.21,-0.21
487.74,0.60,0.80,0.61,0.81,-0.81,-0.92,-0.66,-0.20,-0.20,-0.20
492.62,0.61,0.80,0.60,0.80,-0.80,-0.91,-0.66,-0.19,-0.20,-0.19
