frequency,raw,error,smoothed,error_smoothed,equalization,parametric_eq,fixed_band_eq,equalized_raw,equalized_smoothed,target
20.00,-3.85,-6.38,-3.85,-6.37,5.98,6.50,1.58,2.13,2.13,2.53
20.20,-3.76,-6.33,-3.76,-6.33,6.00,6.42,1.63,2.24,2.24,2.57
20.40,-3.67,-6.27,-3.67,-6.28,6.02,6.35,1.68,2.35,2.34,2.61
20.61,-3.59,-6.23,-3.59,-6.23,6.02,6.28,1.73,2.43,2.44,2.64
20.81,-3.50,-6.17,-3.50,-6.18,6.02,6.20,1.79,2.52,2.52,2.68
21.02,-3.41,-6.12,-3.41,-6.12,6.00,6.13,1.84,2.59,2.59,2.72
21.23,-3.32,-6.05,-3.32,-6.06,5.98,6.05,1.90,2.66,2.66,2.73
21.44,-3.23,-5.98,-3.23,-5.99,5.94,5.97,1.96,2.71,2.71,2.75
21.66,-3.14,-5.91,-3.14,-5.91,5.90,5.90,2.02,2.76,2.76,2.77
21.87,-3.05,-5.83,-3.05,-5.84,5.84,5.82,2.08,2.79,2.79,2.78
22.09,-2.96,-5.76,-2.96,-5.76,5.77,5.74,2.14,2.81,2.81,2.80
22.31,-2.87,-5.68,-2.87,-5.68,5.69,5.67,2.21,2.82,2.82,2.81
22.54,-2.78,-5.60,-2.78,-5.60,5.61,5.59,2.27,2.83,2.83,2.82
22.76,-2.69,-5.52,-2.69,-5.52,5.52,5.51,2.34,2.83,2.83,2.83
22.99,-2.59,-5.42,-2.59,-5.43,5.43,5.43,2.41,2.84,2.84,2.83
23.22,-2.50,-5.34,-2.50,-5.34,5.35,5.35,2.49,2.85,2.85,2.84
23.45,-2.41,-5.26,-2.41,-5.26,5.26,5.27,2.56,2.85,2.86,2.85
23.69,-2.31,-5.17,-2.31,-5.17,5.18,5.19,2.63,2.87,2.87,2.86
23.92,-2.22,-5.09,-2.22,-5.09,5.10,5.11,2.71,2.88,2.88,2.87
24.16,-2.13,-5.02,-2.12,-5.01,5.01,5.03,2.79,2.88,2.89,2.89
24.40,-2.03,-4.94,-2.03,-4.94,4.93,4.95,2.86,2.90,2.90,2.91
24.65,-1.94,-4.85,-1.94,-4.85,4.85,4.86,2.94,2.91,2.91,2.91
24.89,-1.85,-4.77,-1.84,-4.76,4.77,4.78,3.02,2.92,2.92,2.92
25.14,-1.75,-4.68,-1.75,-4.68,4.68,4.70,3.10,2.93,2.93,2.93
25.39,-1.66,-4.60,-1.66,-4.60,4.60,4.62,3.18,2.94,2.94,2.94
25.65,-1.56,-4.52,-1.56,-4.51,4.51,4.53,3.27,2.95,2.95,2.96
25.91,-1.47,-4.43,-1.47,-4.43,4.42,4.45,3.35,2.95,2.96,2.96
26.16,-1.37,-4.33,-1.37,-4.34,4.34,4.36,3.42,2.97,2.97,2.97
26.43,-1.27,-4.25,-1.27,-4.25,4.25,4.28,3.50,2.98,2.98,2.98
26.69,-1.17,-4.15,-1.17,-4.16,4.17,4.19,3.58,3.00,2.99,2.99
26.96,-1.08,-4.08,-1.08,-4.08,4.08,4.11,3.65,3.00,3.00,3.00
27.23,-0.98,-3.99,-0.98,-3.99,3.99,4.02,3.73,3.01,3.01,3.01
27.50,-0.88,-3.90,-0.88,-3.91,3.90,3.94,3.79,3.02,3.02,3.02
27.77,-0.79,-3.81,-0.79,-3.81,3.81,3.85,3.86,3.02,3.03,3.02
28.05,-0.69,-3.73,-0.69,-3.72,3.72,3.76,3.92,3.03,3.03,3.04
28.33,-0.59,-3.63,-0.59,-3.63,3.63,3.67,3.98,3.04,3.04,3.04
28.62,-0.49,-3.54,-0.49,-3.54,3.54,3.59,4.03,3.05,3.05,3.05
28.90,-0.39,-3.45,-0.39,-3.45,3.45,3.50,4.07,3.06,3.06,3.06
29.19,-0.29,-3.35,-0.29,-3.36,3.36,3.41,4.11,3.07,3.07,3.06
29.48,-0.19,-3.28,-0.19,-3.27,3.27,3.32,4.14,3.08,3.08,3.09
29.78,-0.09,-3.18,-0.09,-3.18,3.17,3.23,4.17,3.08,3.08,3.09
30.08,0.01,-3.09,0.01,-3.09,3.08,3.14,4.18,3.09,3.09,3.10
30.38,0.11,-2.99,0.11,-2.99,2.99,3.05,4.19,3.10,3.10,3.09
30.68,0.21,-2.90,0.21,-2.89,2.90,2.96,4.19,3.11,3.11,3.11
30.99,0.32,-2.79,0.31,-2.80,2.80,2.87,4.18,3.12,3.12,3.11
31.30,0.41,-2.71,0.41,-2.71,2.71,2.78,4.16,3.12,3.12,3.12
31.61,0.51,-2.62,0.51,-2.62,2.62,2.69,4.14,3.13,3.13,3.13
31.93,0.61,-2.53,0.61,-2.53,2.53,2.60,4.10,3.14,3.14,3.14
32.24,0.70,-2.44,0.70,-2.44,2.44,2.51,4.06,3.14,3.15,3.14
32.57,0.80,-2.36,0.80,-2.35,2.36,2.42,4.00,3.16,3.15,3.16
32.89,0.89,-2.27,0.89,-2.27,2.27,2.33,3.94,3.16,3.16,3.16
33.22,0.99,-2.18,0.99,-2.18,2.18,2.24,3.87,3.17,3.17,3.17
33.55,1.08,-2.10,1.08,-2.10,2.10,2.14,3.80,3.18,3.18,3.18
33.89,1.18,-2.01,1.18,-2.01,2.01,2.05,3.71,3.19,3.19,3.19
34.23,1.27,-1.93,1.27,-1.92,1.92,1.96,3.62,3.19,3.19,3.20
34.57,1.37,-1.84,1.37,-1.83,1.83,1.87,3.52,3.20,3.20,3.21
34.92,1.47,-1.73,1.47,-1.74,1.74,1.77,3.42,3.21,3.21,3.20
35.27,1.57,-1.64,1.57,-1.65,1.65,1.68,3.32,3.22,3.21,3.21
35.62,1.66,-1.56,1.66,-1.55,1.55,1.59,3.20,3.21,3.22,3.22
35.97,1.76,-1.46,1.76,-1.46,1.46,1.50,3.09,3.22,3.22,3.22
36.33,1.86,-1.36,1.86,-1.37,1.37,1.40,2.97,3.23,3.22,3.23
36.70,1.95,-1.27,1.95,-1.27,1.27,1.31,2.85,3.22,3.23,3.22
37.06,2.05,-1.18,2.05,-1.18,1.18,1.22,2.72,3.23,3.23,3.23
37.43,2.14,-1.10,2.14,-1.09,1.09,1.12,2.59,3.23,3.23,3.24
37.81,2.24,-1.00,2.24,-1.00,1.00,1.03,2.46,3.24,3.23,3.24
38.19,2.33,-0.90,2.33,-0.90,0.90,0.94,2.33,3.24,3.24,3.23
38.57,2.42,-0.81,2.42,-0.81,0.82,0.85,2.20,3.24,3.24,3.23
38.95,2.50,-0.73,2.50,-0.73,0.73,0.75,2.07,3.23,3.23,3.23
39.34,2.58,-0.64,2.58,-0.64,0.64,0.66,1.93,3.23,3.23,3.22
39.74,2.66,-0.56,2.66,-0.57,0.56,0.57,1.80,3.22,3.22,3.22
40.14,2.74,-0.49,2.74,-0.49,0.49,0.48,1.66,3.22,3.22,3.23
40.54,2.81,-0.42,2.81,-0.41,0.41,0.39,1.53,3.22,3.23,3.23
40.94,2.89,-0.33,2.89,-0.33,0.34,0.30,1.40,3.23,3.23,3.22
41.35,2.96,-0.26,2.96,-0.26,0.27,0.21,1.26,3.23,3.23,3.22
41.76,3.02,-0.20,3.03,-0.20,0.20,0.11,1.13,3.22,3.23,3.22
42.18,3.09,-0.14,3.09,-0.14,0.13,0.02,0.99,3.22,3.22,3.23
42.60,3.16,-0.07,3.16,-0.07,0.06,-0.06,0.86,3.23,3.23,3.23
43.03,3.23,-0.00,3.23,0.00,-0.01,-0.15,0.72,3.22,3.22,3.23
43.46,3.30,0.07,3.30,0.07,-0.08,-0.24,0.59,3.22,3.22,3.23
43.90,3.36,0.15,3.37,0.15,-0.15,-0.33,0.46,3.21,3.22,3.21
44.33,3.44,0.22,3.44,0.22,-0.22,-0.42,0.32,3.22,3.21,3.22
44.78,3.51,0.30,3.51,0.30,-0.30,-0.50,0.19,3.21,3.21,3.21
45.23,3.59,0.38,3.59,0.38,-0.37,-0.59,0.06,3.22,3.22,3.21
45.68,3.67,0.46,3.67,0.45,-0.44,-0.67,-0.07,3.23,3.22,3.21
46.13,3.74,0.53,3.74,0.52,-0.52,-0.76,-0.21,3.22,3.22,3.21
46.60,3.80,0.58,3.81,0.59,-0.59,-0.84,-0.34,3.21,3.22,3.22
47.06,3.87,0.65,3.87,0.66,-0.66,-0.93,-0.47,3.21,3.21,3.22
47.53,3.95,0.74,3.95,0.73,-0.74,-1.01,-0.60,3.21,3.21,3.21
48.01,4.02,0.80,4.02,0.81,-0.81,-1.09,-0.73,3.21,3.21,3.22
48.49,4.09,0.88,4.09,0.89,-0.89,-1.17,-0.86,3.20,3.20,3.21
48.97,4.17,0.98,4.17,0.97,-0.98,-1.24,-0.99,3.20,3.19,3.19
49.46,4.24,1.06,4.24,1.06,-1.06,-1.32,-1.12,3.18,3.18,3.18
49.96,4.32,1.15,4.32,1.15,-1.15,-1.40,-1.24,3.17,3.18,3.17
50.46,4.40,1.23,4.40,1.23,-1.23,-1.47,-1.37,3.17,3.17,3.17
50.96,4.47,1.31,4.47,1.32,-1.31,-1.55,-1.50,3.16,3.16,3.16
51.47,4.54,1.41,4.54,1.40,-1.40,-1.62,-1.62,3.15,3.15,3.13
51.99,4.61,1.49,4.61,1.48,-1.48,-1.69,-1.74,3.13,3.13,3.12
52.51,4.67,1.55,4.67,1.55,-1.55,-1.76,-1.87,3.12,3.12,3.12
53.03,4.73,1.62,4.73,1.63,-1.63,-1.83,-1.99,3.10,3.10,3.11
53.56,4.80,1.70,4.80,1.70,-1.71,-1.90,-2.10,3.09,3.09,3.10
54.10,4.86,1.78,4.86,1.78,-1.78,-1.96,-2.22,3.08,3.08,3.08
54.64,4.92,1.85,4.92,1.86,-1.86,-2.02,-2.33,3.06,3.06,3.07
55.18,4.98,1.93,4.98,1.93,-1.93,-2.09,-2.44,3.05,3.05,3.05
55.74,5.04,2.01,5.04,2.01,-2.01,-2.15,-2.55,3.03,3.03,3.03
56.29,5.10,2.08,5.10,2.08,-2.08,-2.21,-2.65,3.02,3.02,3.02
56.86,5.15,2.15,5.15,2.15,-2.15,-2.27,-2.75,3.00,3.00,3.00
57.42,5.20,2.22,5.20,2.22,-2.22,-2.32,-2.84,2.99,2.99,2.98
58.00,5.25,2.28,5.25,2.28,-2.28,-2.38,-2.93,2.97,2.97,2.97
58.58,5.30,2.35,5.30,2.34,-2.34,-2.43,-3.02,2.96,2.96,2.96
59.16,5.34,2.40,5.34,2.40,-2.40,-2.48,-3.10,2.94,2.94,2.94
59.76,5.38,2.45,5.38,2.45,-2.46,-2.53,-3.17,2.93,2.92,2.93
60.35,5.41,2.51,5.41,2.51,-2.51,-2.58,-3.24,2.90,2.90,2.90
60.96,5.44,2.56,5.44,2.56,-2.56,-2.63,-3.30,2.88,2.88,2.88
61.57,5.46,2.62,5.46,2.61,-2.61,-2.68,-3.36,2.85,2.85,2.85
62.18,5.48,2.67,5.48,2.67,-2.66,-2.72,-3.41,2.82,2.82,2.81
62.80,5.50,2.71,5.50,2.71,-2.72,-2.76,-3.46,2.79,2.78,2.79
63.43,5.52,2.76,5.52,2.76,-2.77,-2.81,-3.49,2.75,2.75,2.76
64.07,5.54,2.81,5.55,2.81,-2.82,-2.85,-3.53,2.72,2.73,2.73
64.71,5.58,2.88,5.57,2.87,-2.87,-2.89,-3.55,2.71,2.70,2.70
65.35,5.60,2.93,5.60,2.93,-2.92,-2.92,-3.58,2.68,2.68,2.67
66.01,5.63,2.98,5.63,2.98,-2.98,-2.96,-3.59,2.65,2.65,2.65
66.67,5.65,3.02,5.65,3.03,-3.04,-3.00,-3.61,2.62,2.62,2.63
67.33,5.68,3.08,5.68,3.08,-3.09,-3.03,-3.61,2.59,2.59,2.60
68.01,5.71,3.14,5.71,3.14,-3.15,-3.07,-3.61,2.56,2.56,2.57
68.69,5.74,3.20,5.74,3.21,-3.20,-3.10,-3.61,2.54,2.54,2.54
69.37,5.77,3.27,5.77,3.26,-3.25,-3.13,-3.61,2.52,2.52,2.51
70.07,5.79,3.32,5.79,3.31,-3.30,-3.16,-3.60,2.49,2.49,2.47
70.77,5.81,3.36,5.81,3.36,-3.35,-3.19,-3.59,2.46,2.46,2.45
71.48,5.82,3.39,5.82,3.40,-3.40,-3.22,-3.58,2.42,2.42,2.43
72.19,5.83,3.44,5.83,3.44,-3.44,-3.25,-3.57,2.39,2.39,2.39
72.91,5.85,3.48,5.85,3.48,-3.49,-3.28,-3.55,2.36,2.36,2.37
73.64,5.88,3.54,5.88,3.53,-3.54,-3.30,-3.54,2.34,2.34,2.35
74.38,5.91,3.58,5.91,3.58,-3.59,-3.33,-3.52,2.32,2.32,2.33
75.12,5.94,3.64,5.94,3.63,-3.64,-3.36,-3.50,2.30,2.30,2.30
75.87,5.97,3.68,5.97,3.69,-3.69,-3.38,-3.49,2.28,2.29,2.29
76.63,6.01,3.74,6.01,3.74,-3.74,-3.41,-3.47,2.28,2.27,2.27
77.40,6.04,3.79,6.04,3.79,-3.78,-3.43,-3.46,2.26,2.26,2.25
78.17,6.07,3.84,6.07,3.83,-3.83,-3.46,-3.44,2.25,2.25,2.23
78.95,6.10,3.88,6.10,3.87,-3.87,-3.48,-3.43,2.24,2.23,2.23
79.74,6.11,3.89,6.12,3.90,-3.90,-3.50,-3.42,2.21,2.21,2.22
80.54,6.14,3.94,6.14,3.93,-3.94,-3.53,-3.41,2.20,2.20,2.21
81.35,6.16,3.97,6.16,3.96,-3.97,-3.55,-3.40,2.19,2.19,2.19
82.16,6.18,4.00,6.18,4.00,-4.00,-3.57,-3.40,2.18,2.18,2.18
82.98,6.21,4.03,6.21,4.03,-4.03,-3.60,-3.39,2.18,2.17,2.18
83.81,6.23,4.06,6.23,4.06,-4.06,-3.62,-3.39,2.17,2.17,2.17
84.65,6.25,4.09,6.25,4.09,-4.09,-3.64,-3.39,2.16,2.17,2.16
85.50,6.27,4.11,6.27,4.11,-4.11,-3.67,-3.40,2.16,2.16,2.16
86.35,6.29,4.13,6.29,4.13,-4.13,-3.69,-3.40,2.16,2.16,2.16
87.22,6.30,4.15,6.30,4.15,-4.14,-3.71,-3.41,2.16,2.16,2.15
88.09,6.31,4.16,6.31,4.15,-4.15,-3.74,-3.42,2.16,2.16,2.15
88.97,6.31,4.16,6.31,4.15,-4.15,-3.76,-3.44,2.16,2.16,2.15
89.86,6.30,4.14,6.30,4.15,-4.15,-3.78,-3.46,2.15,2.15,2.16
90.76,6.29,4.15,6.29,4.15,-4.15,-3.80,-3.48,2.14,2.15,2.14
91.66,6.29,4.14,6.29,4.14,-4.15,-3.83,-3.50,2.14,2.14,2.15
92.58,6.29,4.15,6.29,4.15,-4.15,-3.85,-3.53,2.14,2.14,2.14
93.51,6.29,4.14,6.29,4.14,-4.15,-3.87,-3.55,2.14,2.14,2.15
94.44,6.29,4.15,6.29,4.15,-4.16,-3.90,-3.59,2.13,2.13,2.14
95.39,6.30,4.15,6.30,4.16,-4.17,-3.92,-3.62,2.14,2.14,2.15
96.34,6.31,4.18,6.31,4.18,-4.17,-3.94,-3.65,2.14,2.14,2.13
97.30,6.31,4.19,6.31,4.19,-4.17,-3.97,-3.69,2.14,2.14,2.12
98.28,6.30,4.19,6.30,4.19,-4.17,-3.99,-3.73,2.13,2.13,2.11
99.26,6.28,4.18,6.28,4.18,-4.17,-4.01,-3.77,2.11,2.11,2.10
100.25,6.26,4.17,6.26,4.16,-4.17,-4.04,-3.82,2.09,2.09,2.09
101.25,6.23,4.15,6.23,4.15,-4.16,-4.06,-3.86,2.07,2.07,2.08
102.27,6.21,4.15,6.21,4.15,-4.15,-4.08,-3.91,2.06,2.06,2.06
103.29,6.19,4.15,6.19,4.14,-4.14,-4.11,-3.96,2.05,2.04,2.05
104.32,6.17,4.13,6.17,4.14,-4.14,-4.13,-4.01,2.03,2.03,2.04
105.37,6.14,4.12,6.15,4.13,-4.13,-4.15,-4.05,2.01,2.02,2.02
106.42,6.12,4.13,6.12,4.13,-4.12,-4.17,-4.10,2.00,1.99,1.99
107.48,6.09,4.12,6.09,4.13,-4.12,-4.20,-4.15,1.97,1.97,1.97
108.56,6.05,4.12,6.05,4.12,-4.11,-4.22,-4.20,1.94,1.94,1.93
109.64,6.01,4.11,6.01,4.11,-4.11,-4.24,-4.25,1.90,1.91,1.90
110.74,5.97,4.10,5.97,4.10,-4.10,-4.26,-4.30,1.87,1.87,1.87
111.85,5.93,4.10,5.93,4.10,-4.10,-4.28,-4.34,1.83,1.82,1.83
112.97,5.88,4.10,5.89,4.09,-4.11,-4.30,-4.39,1.77,1.78,1.78
114.10,5.85,4.10,5.85,4.10,-4.12,-4.32,-4.43,1.74,1.74,1.75
115.24,5.82,4.11,5.82,4.12,-4.13,-4.34,-4.47,1.69,1.70,1.71
116.39,5.81,4.15,5.80,4.14,-4.14,-4.36,-4.50,1.67,1.66,1.66
117.55,5.78,4.16,5.78,4.17,-4.16,-4.38,-4.53,1.62,1.63,1.62
118.73,5.76,4.19,5.76,4.18,-4.17,-4.40,-4.56,1.59,1.59,1.57
119.92,5.73,4.19,5.73,4.19,-4.19,-4.42,-4.58,1.55,1.55,1.55
121.12,5.70,4.20,5.71,4.20,-4.20,-4.44,-4.61,1.50,1.51,1.50
122.33,5.68,4.22,5.68,4.21,-4.21,-4.46,-4.62,1.47,1.47,1.46
123.55,5.65,4.21,5.65,4.22,-4.22,-4.47,-4.63,1.43,1.43,1.44
124.79,5.62,4.22,5.62,4.22,-4.23,-4.49,-4.64,1.40,1.39,1.40
126.03,5.58,4.21,5.59,4.22,-4.23,-4.50,-4.64,1.35,1.35,1.37
127.29,5.56,4.23,5.56,4.23,-4.24,-4.52,-4.63,1.32,1.32,1.33
128.57,5.54,4.25,5.54,4.25,-4.25,-4.53,-4.63,1.29,1.29,1.29
129.85,5.52,4.26,5.52,4.26,-4.25,-4.55,-4.61,1.27,1.27,1.26
131.15,5.50,4.27,5.50,4.27,-4.25,-4.56,-4.60,1.25,1.25,1.23
132.46,5.47,4.26,5.47,4.26,-4.25,-4.57,-4.58,1.22,1.22,1.21
133.79,5.43,4.24,5.43,4.24,-4.24,-4.58,-4.55,1.19,1.19,1.19
135.12,5.37,4.22,5.38,4.22,-4.22,-4.59,-4.52,1.15,1.16,1.16
136.48,5.33,4.20,5.33,4.20,-4.21,-4.60,-4.49,1.13,1.13,1.13
137.84,5.29,4.19,5.29,4.19,-4.19,-4.61,-4.46,1.10,1.10,1.10
139.22,5.25,4.18,5.24,4.17,-4.17,-4.61,-4.42,1.08,1.07,1.07
140.61,5.20,4.16,5.20,4.15,-4.16,-4.62,-4.38,1.05,1.05,1.05
142.02,5.15,4.11,5.16,4.13,-4.14,-4.63,-4.34,1.01,1.02,1.04
143.44,5.14,4.12,5.14,4.12,-4.13,-4.63,-4.30,1.01,1.00,1.02
144.87,5.12,4.13,5.12,4.12,-4.12,-4.63,-4.26,1.00,1.00,0.99
146.32,5.10,4.14,5.10,4.13,-4.11,-4.63,-4.21,0.99,0.98,0.96
147.78,5.06,4.11,5.06,4.12,-4.10,-4.64,-4.17,0.96,0.96,0.95
149.26,5.02,4.10,5.02,4.10,-4.09,-4.64,-4.13,0.93,0.93,0.92
150.75,4.97,4.09,4.97,4.08,-4.09,-4.64,-4.09,0.88,0.89,0.88
152.26,4.93,4.08,4.93,4.07,-4.08,-4.63,-4.05,0.85,0.84,0.85
153.78,4.88,4.05,4.88,4.06,-4.08,-4.63,-4.00,0.80,0.81,0.83
155.32,4.85,4.06,4.86,4.06,-4.08,-4.62,-3.97,0.77,0.78,0.79
156.88,4.83,4.07,4.83,4.07,-4.08,-4.62,-3.93,0.76,0.76,0.76
158.44,4.82,4.09,4.81,4.08,-4.08,-4.61,-3.89,0.75,0.74,0.73
160.03,4.78,4.09,4.79,4.09,-4.08,-4.61,-3.86,0.70,0.71,0.69
161.63,4.75,4.10,4.75,4.09,-4.08,-4.60,-3.83,0.67,0.67,0.65
163.24,4.71,4.09,4.70,4.08,-4.08,-4.59,-3.80,0.63,0.62,0.62
164.88,4.65,4.06,4.66,4.08,-4.08,-4.57,-3.78,0.57,0.58,0.59
166.53,4.62,4.07,4.62,4.07,-4.08,-4.56,-3.75,0.54,0.54,0.55
168.19,4.59,4.08,4.58,4.07,-4.08,-4.55,-3.73,0.51,0.50,0.51
169.87,4.54,4.07,4.55,4.08,-4.08,-4.53,-3.71,0.46,0.47,0.47
171.57,4.52,4.08,4.52,4.08,-4.08,-4.52,-3.70,0.44,0.44,0.44
173.29,4.49,4.10,4.48,4.09,-4.08,-4.50,-3.68,0.41,0.40,0.39
175.02,4.44,4.09,4.44,4.10,-4.09,-4.48,-3.68,0.35,0.36,0.35
176.77,4.40,4.10,4.40,4.10,-4.09,-4.47,-3.67,0.31,0.30,0.30
178.54,4.34,4.09,4.35,4.10,-4.10,-4.44,-3.66,0.25,0.25,0.25
180.32,4.30,4.10,4.30,4.10,-4.10,-4.42,-3.66,0.20,0.20,0.21
182.13,4.26,4.10,4.25,4.09,-4.10,-4.40,-3.67,0.16,0.15,0.16
183.95,4.20,4.09,4.21,4.10,-4.11,-4.38,-3.67,0.09,0.10,0.11
185.79,4.16,4.10,4.17,4.11,-4.11,-4.35,-3.68,0.05,0.06,0.06
187.65,4.13,4.13,4.13,4.12,-4.11,-4.33,-3.69,0.02,0.01,-0.00
189.52,4.09,4.13,4.09,4.13,-4.12,-4.30,-3.70,-0.03,-0.03,-0.04
191.42,4.04,4.13,4.04,4.13,-4.12,-4.27,-3.71,-0.08,-0.08,-0.09
193.33,4.00,4.13,4.00,4.13,-4.13,-4.24,-3.73,-0.13,-0.13,-0.13
195.27,3.95,4.12,3.95,4.13,-4.14,-4.21,-3.75,-0.19,-0.18,-0.17
197.22,3.91,4.13,3.91,4.13,-4.14,-4.18,-3.77,-0.23,-0.23,-0.22
199.19,3.87,4.14,3.87,4.14,-4.14,-4.15,-3.80,-0.27,-0.27,-0.27
201.18,3.84,4.15,3.84,4.15,-4.14,-4.12,-3.82,-0.30,-0.30,-0.31
203.19,3.80,4.14,3.80,4.15,-4.14,-4.09,-3.85,-0.34,-0.34,-0.34
205.23,3.77,4.16,3.77,4.15,-4.14,-4.05,-3.87,-0.37,-0.38,-0.39
207.28,3.72,4.13,3.72,4.14,-4.14,-4.02,-3.90,-0.42,-0.42,-0.41
209.35,3.67,4.13,3.67,4.14,-4.14,-3.98,-3.93,-0.46,-0.46,-0.46
211.44,3.62,4.13,3.62,4.12,-4.13,-3.94,-3.96,-0.51,-0.51,-0.51
213.56,3.58,4.12,3.58,4.11,-4.13,-3.90,-3.98,-0.55,-0.55,-0.54
215.69,3.54,4.10,3.54,4.11,-4.12,-3.86,-4.01,-0.58,-0.58,-0.56
217.85,3.51,4.11,3.52,4.11,-4.11,-3.82,-4.03,-0.60,-0.60,-0.59
220.03,3.49,4.12,3.49,4.11,-4.11,-3.78,-4.06,-0.62,-0.62,-0.63
222.23,3.46,4.12,3.45,4.11,-4.10,-3.74,-4.08,-0.63,-0.64,-0.66
224.45,3.41,4.09,3.41,4.09,-4.08,-3.70,-4.09,-0.67,-0.67,-0.68
226.70,3.37,4.06,3.37,4.07,-4.07,-3.65,-4.11,-0.70,-0.70,-0.69
228.96,3.32,4.04,3.33,4.04,-4.05,-3.61,-4.12,-0.73,-0.72,-0.72
231.25,3.29,4.02,3.29,4.02,-4.03,-3.56,-4.12,-0.74,-0.74,-0.73
233.57,3.25,3.99,3.25,3.99,-4.00,-3.52,-4.13,-0.75,-0.76,-0.74
235.90,3.20,3.96,3.21,3.97,-3.97,-3.47,-4.12,-0.77,-0.76,-0.76
238.26,3.18,3.95,3.18,3.95,-3.94,-3.42,-4.11,-0.76,-0.76,-0.77
240.64,3.15,3.92,3.15,3.92,-3.90,-3.37,-4.10,-0.75,-0.75,-0.77
243.05,3.11,3.88,3.10,3.87,-3.85,-3.32,-4.08,-0.74,-0.75,-0.77
245.48,3.04,3.81,3.04,3.81,-3.80,-3.27,-4.05,-0.76,-0.76,-0.77
247.93,2.96,3.73,2.97,3.74,-3.75,-3.22,-4.01,-0.78,-0.77,-0.77
250.41,2.91,3.68,2.90,3.67,-3.68,-3.17,-3.97,-0.77,-0.78,-0.77
252.92,2.84,3.60,2.84,3.60,-3.61,-3.12,-3.92,-0.77,-0.77,-0.76
255.45,2.78,3.52,2.78,3.53,-3.53,-3.06,-3.86,-0.75,-0.75,-0.74
258.00,2.73,3.46,2.72,3.46,-3.45,-3.01,-3.80,-0.72,-0.73,-0.73
260.58,2.65,3.38,2.66,3.38,-3.37,-2.95,-3.73,-0.72,-0.71,-0.73
263.19,2.59,3.30,2.58,3.29,-3.28,-2.89,-3.66,-0.69,-0.70,-0.71
265.82,2.49,3.20,2.50,3.20,-3.20,-2.83,-3.57,-0.70,-0.70,-0.71
268.48,2.41,3.09,2.41,3.10,-3.10,-2.77,-3.48,-0.69,-0.69,-0.68
271.16,2.34,3.00,2.33,2.99,-3.01,-2.71,-3.39,-0.67,-0.68,-0.66
273.87,2.24,2.90,2.25,2.90,-2.91,-2.65,-3.29,-0.67,-0.66,-0.66
276.61,2.17,2.80,2.17,2.81,-2.81,-2.59,-3.18,-0.64,-0.64,-0.63
279.38,2.10,2.72,2.09,2.71,-2.71,-2.53,-3.07,-0.61,-0.61,-0.62
282.17,2.01,2.62,2.01,2.61,-2.60,-2.46,-2.96,-0.59,-0.60,-0.61
284.99,1.91,2.50,1.91,2.50,-2.50,-2.39,-2.84,-0.59,-0.59,-0.59
287.84,1.80,2.38,1.81,2.39,-2.39,-2.32,-2.72,-0.59,-0.58,-0.58
290.72,1.72,2.28,1.71,2.28,-2.28,-2.25,-2.59,-0.56,-0.57,-0.56
293.63,1.62,2.17,1.62,2.17,-2.17,-2.18,-2.47,-0.55,-0.55,-0.55
296.57,1.52,2.05,1.53,2.06,-2.06,-2.11,-2.34,-0.54,-0.54,-0.53
299.53,1.43,1.95,1.43,1.95,-1.95,-2.03,-2.20,-0.52,-0.52,-0.52
302.53,1.34,1.85,1.34,1.85,-1.85,-1.96,-2.07,-0.50,-0.51,-0.51
305.55,1.25,1.74,1.25,1.74,-1.74,-1.88,-1.93,-0.49,-0.49,-0.49
308.61,1.15,1.63,1.16,1.63,-1.64,-1.80,-1.80,-0.49,-0.48,-0.48
311.69,1.06,1.53,1.07,1.53,-1.54,-1.71,-1.66,-0.47,-0.47,-0.47
314.81,0.99,1.43,0.98,1.43,-1.43,-1.62,-1.52,-0.44,-0.45,-0.44
317.96,0.89,1.34,0.89,1.34,-1.33,-1.54,-1.38,-0.44,-0.44,-0.44
321.14,0.80,1.24,0.80,1.23,-1.23,-1.44,-1.24,-0.43,-0.44,-0.44
324.35,0.69,1.13,0.70,1.13,-1.13,-1.35,-1.10,-0.44,-0.43,-0.44
327.59,0.60,1.02,0.60,1.03,-1.03,-1.25,-0.96,-0.43,-0.42,-0.42
330.87,0.51,0.93,0.50,0.93,-0.92,-1.15,-0.82,-0.41,-0.42,-0.42
334.18,0.40,0.82,0.40,0.82,-0.81,-1.05,-0.68,-0.41,-0.41,-0.42
337.52,0.28,0.69,0.29,0.70,-0.70,-0.94,-0.54,-0.42,-0.41,-0.41
340.90,0.17,0.58,0.17,0.58,-0.58,-0.82,-0.40,-0.41,-0.42,-0.41
344.30,0.04,0.45,0.05,0.45,-0.46,-0.71,-0.26,-0.42,-0.42,-0.41
347.75,-0.07,0.34,-0.07,0.33,-0.34,-0.58,-0.12,-0.41,-0.41,-0.41
351.23,-0.20,0.21,-0.20,0.21,-0.21,-0.46,0.03,-0.41,-0.41,-0.41
354.74,-0.33,0.08,-0.33,0.08,-0.07,-0.32,0.17,-0.40,-0.41,-0.41
358.28,-0.48,-0.06,-0.48,-0.06,0.07,-0.18,0.31,-0.41,-0.41,-0.42
361.87,-0.63,-0.21,-0.64,-0.21,0.22,-0.04,0.45,-0.41,-0.42,-0.42
365.49,-0.81,-0.38,-0.80,-0.37,0.38,0.11,0.60,-0.43,-0.42,-0.42
369.14,-0.98,-0.54,-0.98,-0.55,0.55,0.27,0.74,-0.43,-0.43,-0.44
372.83,-1.15,-0.71,-1.17,-0.73,0.72,0.44,0.88,-0.43,-0.44,-0.44
376.56,-1.37,-0.92,-1.36,-0.91,0.91,0.61,1.03,-0.46,-0.45,-0.45
380.33,-1.56,-1.11,-1.55,-1.10,1.10,0.79,1.17,-0.46,-0.46,-0.45
384.13,-1.75,-1.29,-1.76,-1.30,1.29,0.98,1.31,-0.46,-0.47,-0.46
387.97,-1.96,-1.49,-1.96,-1.49,1.50,1.18,1.45,-0.46,-0.46,-0.47
391.85,-2.18,-1.70,-2.17,-1.70,1.70,1.38,1.60,-0.47,-0.47,-0.48
395.77,-2.39,-1.92,-2.39,-1.91,1.92,1.60,1.74,-0.47,-0.47,-0.47
399.73,-2.62,-2.14,-2.62,-2.13,2.14,1.82,1.88,-0.47,-0.48,-0.48
403.72,-2.85,-2.36,-2.85,-2.36,2.37,2.05,2.02,-0.48,-0.48,-0.49
407.76,-3.10,-2.60,-3.10,-2.60,2.61,2.29,2.16,-0.49,-0.49,-0.50
411.84,-3.34,-2.85,-3.34,-2.84,2.84,2.54,2.29,-0.50,-0.50,-0.49
415.96,-3.58,-3.07,-3.58,-3.08,3.07,2.79,2.43,-0.51,-0.51,-0.50
420.12,-3.82,-3.31,-3.82,-3.31,3.30,3.04,2.56,-0.52,-0.52,-0.51
424.32,-4.05,-3.54,-4.04,-3.53,3.52,3.30,2.70,-0.52,-0.52,-0.51
428.56,-4.25,-3.73,-4.26,-3.74,3.74,3.56,2.82,-0.51,-0.52,-0.52
432.85,-4.45,-3.93,-4.45,-3.94,3.94,3.81,2.95,-0.51,-0.51,-0.52
437.18,-4.65,-4.13,-4.63,-4.12,4.13,4.05,3.07,-0.52,-0.51,-0.52
441.55,-4.80,-4.29,-4.81,-4.30,4.30,4.28,3.19,-0.50,-0.51,-0.51
445.96,-4.96,-4.45,-4.97,-4.46,4.45,4.49,3.30,-0.50,-0.51,-0.51
450.42,-5.12,-4.60,-5.11,-4.60,4.59,4.68,3.41,-0.53,-0.52,-0.52
454.93,-5.23,-4.72,-5.23,-4.72,4.71,4.84,3.51,-0.52,-0.52,-0.51
459.48,-5.32,-4.81,-5.32,-4.81,4.81,4.96,3.60,-0.51,-0.51,-0.51
464.07,-5.38,-4.88,-5.38,-4.88,4.88,5.05,3.69,-0.50,-0.50,-0.50
468.71,-5.42,-4.93,-5.42,-4.93,4.92,5.09,3.77,-0.49,-0.50,-0.49
473.40,-5.44,-4.95,-5.44,-4.95,4.95,5.10,3.84,-0.49,-0.49,-0.49
478.13,-5.43,-4.95,-5.43,-4.95,4.94,5.06,3.90,-0.49,-0.49,-0.48
482.91,-5.40,-4.92,-5.40,-4.92,4.91,4.99,3.95,-0.49,-0.49,-0.48
487.74,-5.34,-4.87,-5.34,-4.86,4.86,4.88,4.00,-0.48,-0.48,-0.47
492.62,-5.25,-4.79,-5.25,-4.78,4.78,4.75,4.03,-0.47,-0.47,-0.46
497.55,-5.14,-4.68,-5.14,-4.68,4.69,4.59,4.05,-0.45,-0.46,-0.46
502.52,-5.02,-4.57,-5.02,-4.57,4.57,4.41,4.07,-0.45,-0.45,-0.45
507.55,-4.89,-4.44,-4.89,-4.43,4.43,4.21,4.07,-0.46,-0.46,-0.45
512.62,-4.74,-4.29,-4.74,-4.29,4.28,4.01,4.07,-0.46,-0.46,-0.45
517.75,-4.57,-4.13,-4.57,-4.12,4.11,3.80,4.05,-0.46,-0.45,-0.44
