frequency,raw,smoothed,error,error_smoothed,equalization,parametric_eq,fixed_band_eq,equalized_raw,equalized_smoothed,target
20.00,-25.87,-25.87,-21.85,-21.85,6.00,5.79,2.64,-19.87,-19.87,-4.02
20.20,-25.82,-25.82,-21.83,-21.83,6.00,5.79,2.72,-19.82,-19.82,-3.99
20.40,-25.77,-25.78,-21.81,-21.82,6.00,5.79,2.80,-19.77,-19.78,-3.96
20.61,-25.74,-25.74,-21.80,-21.81,6.00,5.80,2.88,-19.74,-19.74,-3.94
20.81,-25.71,-25.71,-21.80,-21.80,6.00,5.80,2.96,-19.71,-19.71,-3.91
21.02,-25.68,-25.68,-21.80,-21.80,6.00,5.80,3.04,-19.68,-19.68,-3.88
21.23,-25.65,-25.65,-21.78,-21.79,6.00,5.81,3.13,-19.65,-19.65,-3.87
21.44,-25.62,-25.62,-21.76,-21.76,6.00,5.81,3.22,-19.62,-19.62,-3.86
21.66,-25.57,-25.57,-21.72,-21.72,6.00,5.81,3.31,-19.57,-19.57,-3.85
21.87,-25.51,-25.51,-21.66,-21.66,6.00,5.81,3.40,-19.51,-19.51,-3.85
22.09,-25.44,-25.44,-21.60,-21.59,6.00,5.82,3.50,-19.44,-19.44,-3.84
22.31,-25.36,-25.36,-21.52,-21.52,6.00,5.82,3.60,-19.36,-19.36,-3.84
22.54,-25.28,-25.28,-21.44,-21.44,6.00,5.82,3.70,-19.28,-19.28,-3.84
22.76,-25.21,-25.21,-21.37,-21.36,6.00,5.83,3.80,-19.21,-19.21,-3.84
22.99,-25.15,-25.15,-21.30,-21.30,6.00,5.83,3.91,-19.15,-19.15,-3.85
23.22,-25.10,-25.11,-21.25,-21.25,6.00,5.83,4.02,-19.10,-19.11,-3.86
23.45,-25.07,-25.07,-21.22,-21.22,6.00,5.84,4.13,-19.07,-19.07,-3.86
23.69,-25.05,-25.05,-21.20,-21.19,6.00,5.84,4.24,-19.05,-19.05,-3.86
23.92,-25.03,-25.03,-21.17,-21.18,6.00,5.84,4.36,-19.03,-19.03,-3.86
24.16,-25.00,-25.00,-21.15,-21.15,6.00,5.85,4.48,-19.00,-19.00,-3.85
24.40,-24.97,-24.97,-21.12,-21.12,6.00,5.85,4.60,-18.97,-18.97,-3.85
24.65,-24.92,-24.92,-21.06,-21.07,6.00,5.85,4.72,-18.92,-18.92,-3.86
24.89,-24.87,-24.86,-21.01,-21.00,6.00,5.86,4.84,-18.87,-18.86,-3.86
25.14,-24.79,-24.79,-20.93,-20.93,6.00,5.86,4.97,-18.79,-18.79,-3.86
25.39,-24.70,-24.71,-20.84,-20.84,6.00,5.87,5.10,-18.70,-18.71,-3.86
25.65,-24.61,-24.61,-20.75,-20.74,6.00,5.87,5.22,-18.61,-18.61,-3.86
25.91,-24.51,-24.51,-20.64,-20.63,6.00,5.87,5.35,-18.51,-18.51,-3.88
26.16,-24.39,-24.40,-20.51,-20.52,6.00,5.88,5.48,-18.39,-18.40,-3.88
26.43,-24.27,-24.28,-20.40,-20.40,6.00,5.88,5.61,-18.27,-18.28,-3.88
26.69,-24.15,-24.15,-20.27,-20.27,6.00,5.88,5.73,-18.15,-18.15,-3.88
26.96,-24.01,-24.01,-20.13,-20.13,6.00,5.89,5.86,-18.01,-18.01,-3.88
27.23,-23.86,-23.87,-19.98,-19.99,6.00,5.89,5.98,-17.86,-17.87,-3.88
27.50,-23.72,-23.72,-19.84,-19.83,6.00,5.90,6.10,-17.72,-17.72,-3.88
27.77,-23.57,-23.57,-19.68,-19.68,6.00,5.90,6.22,-17.57,-17.57,-3.89
28.05,-23.42,-23.42,-19.53,-19.52,6.00,5.91,6.34,-17.42,-17.42,-3.90
28.33,-23.28,-23.28,-19.37,-19.38,6.00,5.91,6.44,-17.28,-17.28,-3.91
28.62,-23.15,-23.15,-19.25,-19.24,6.00,5.91,6.55,-17.15,-17.15,-3.91
28.90,-23.03,-23.03,-19.12,-19.12,6.00,5.92,6.64,-17.03,-17.03,-3.91
29.19,-22.91,-22.91,-18.99,-19.00,6.00,5.92,6.74,-16.91,-16.91,-3.92
29.48,-22.80,-22.80,-18.89,-18.88,6.00,5.93,6.82,-16.80,-16.80,-3.91
29.78,-22.68,-22.69,-18.76,-18.76,6.00,5.93,6.90,-16.68,-16.69,-3.93
30.08,-22.57,-22.57,-18.65,-18.64,6.00,5.94,6.96,-16.57,-16.57,-3.93
30.38,-22.45,-22.45,-18.51,-18.51,6.00,5.94,7.02,-16.45,-16.45,-3.94
30.68,-22.32,-22.33,-18.38,-18.38,6.00,5.95,7.07,-16.32,-16.33,-3.94
30.99,-22.20,-22.20,-18.25,-18.25,6.00,5.95,7.11,-16.20,-16.20,-3.95
31.30,-22.07,-22.08,-18.12,-18.12,6.00,5.96,7.14,-16.07,-16.08,-3.96
31.61,-21.95,-21.95,-17.99,-17.99,6.00,5.96,7.17,-15.95,-15.95,-3.96
31.93,-21.83,-21.83,-17.86,-17.86,6.00,5.97,7.17,-15.83,-15.83,-3.97
32.24,-21.71,-21.71,-17.73,-17.74,6.00,5.97,7.18,-15.71,-15.71,-3.98
32.57,-21.60,-21.60,-17.62,-17.62,6.00,5.98,7.17,-15.60,-15.60,-3.98
32.89,-21.50,-21.50,-17.51,-17.51,6.00,5.98,7.16,-15.50,-15.50,-3.99
33.22,-21.40,-21.40,-17.40,-17.40,6.00,5.99,7.13,-15.40,-15.40,-4.00
33.55,-21.30,-21.30,-17.30,-17.30,6.00,5.99,7.10,-15.30,-15.30,-4.00
33.89,-21.20,-21.20,-17.19,-17.19,6.00,6.00,7.06,-15.20,-15.20,-4.02
34.23,-21.11,-21.11,-17.09,-17.09,6.00,6.00,7.02,-15.11,-15.11,-4.02
34.57,-21.02,-21.02,-16.99,-16.99,6.00,6.01,6.97,-15.02,-15.02,-4.03
34.92,-20.93,-20.93,-16.89,-16.89,6.00,6.01,6.92,-14.93,-14.93,-4.04
35.27,-20.85,-20.85,-16.80,-16.80,6.00,6.02,6.86,-14.85,-14.85,-4.05
35.62,-20.77,-20.78,-16.71,-16.71,6.00,6.02,6.80,-14.77,-14.78,-4.06
35.97,-20.71,-20.71,-16.64,-16.64,6.00,6.03,6.74,-14.71,-14.71,-4.08
36.33,-20.65,-20.65,-16.57,-16.57,6.00,6.03,6.68,-14.65,-14.65,-4.08
36.70,-20.60,-20.61,-16.51,-16.51,6.00,6.04,6.61,-14.60,-14.61,-4.09
37.06,-20.57,-20.57,-16.46,-16.47,6.00,6.05,6.55,-14.57,-14.57,-4.11
37.43,-20.54,-20.54,-16.43,-16.42,6.00,6.05,6.48,-14.54,-14.54,-4.11
37.81,-20.51,-20.51,-16.39,-16.39,6.00,6.06,6.42,-14.51,-14.51,-4.13
38.19,-20.48,-20.48,-16.34,-16.35,6.00,6.06,6.36,-14.48,-14.48,-4.14
38.57,-20.45,-20.45,-16.31,-16.30,6.00,6.07,6.30,-14.45,-14.45,-4.15
38.95,-20.41,-20.41,-16.25,-16.25,6.00,6.07,6.24,-14.41,-14.41,-4.16
39.34,-20.37,-20.37,-16.20,-16.20,6.00,6.08,6.18,-14.37,-14.37,-4.18
39.74,-20.32,-20.32,-16.13,-16.13,6.00,6.08,6.13,-14.32,-14.32,-4.19
40.14,-20.27,-20.27,-16.08,-16.07,6.00,6.09,6.08,-14.27,-14.27,-4.20
40.54,-20.20,-20.21,-15.99,-16.00,6.00,6.10,6.03,-14.20,-14.21,-4.21
40.94,-20.14,-20.14,-15.92,-15.92,6.00,6.10,5.99,-14.14,-14.14,-4.22
41.35,-20.07,-20.07,-15.84,-15.84,6.00,6.11,5.95,-14.07,-14.07,-4.23
41.76,-19.99,-19.99,-15.75,-15.75,6.00,6.11,5.91,-13.99,-13.99,-4.24
42.18,-19.91,-19.91,-15.67,-15.66,6.00,6.12,5.88,-13.91,-13.91,-4.25
42.60,-19.83,-19.83,-15.57,-15.57,6.00,6.12,5.85,-13.83,-13.83,-4.26
43.03,-19.74,-19.74,-15.47,-15.47,6.00,6.13,5.83,-13.74,-13.74,-4.27
43.46,-19.65,-19.65,-15.36,-15.36,6.00,6.13,5.81,-13.65,-13.65,-4.29
43.90,-19.56,-19.56,-15.25,-15.25,6.00,6.14,5.79,-13.56,-13.56,-4.31
44.33,-19.46,-19.46,-15.13,-15.13,6.00,6.15,5.78,-13.46,-13.46,-4.33
44.78,-19.36,-19.37,-15.01,-15.01,6.00,6.15,5.78,-13.36,-13.37,-4.35
45.23,-19.27,-19.27,-14.90,-14.90,6.00,6.16,5.78,-13.27,-13.27,-4.37
45.68,-19.18,-19.18,-14.80,-14.79,6.00,6.16,5.78,-13.18,-13.18,-4.39
46.13,-19.09,-19.09,-14.68,-14.69,6.00,6.17,5.78,-13.09,-13.09,-4.41
46.60,-19.00,-19.00,-14.59,-14.58,6.00,6.17,5.80,-13.00,-13.00,-4.42
47.06,-18.91,-18.92,-14.48,-14.48,6.00,6.18,5.81,-12.91,-12.92,-4.43
47.53,-18.83,-18.83,-14.38,-14.38,6.00,6.18,5.83,-12.83,-12.83,-4.45
48.01,-18.75,-18.75,-14.29,-14.28,6.00,6.19,5.85,-12.75,-12.75,-4.47
48.49,-18.66,-18.66,-14.17,-14.17,6.00,6.19,5.88,-12.66,-12.66,-4.50
48.97,-18.58,-18.58,-14.05,-14.06,6.00,6.20,5.91,-12.58,-12.58,-4.53
49.46,-18.50,-18.50,-13.94,-13.94,6.00,6.20,5.94,-12.50,-12.50,-4.56
49.96,-18.42,-18.42,-13.83,-13.84,6.00,6.20,5.98,-12.42,-12.42,-4.59
50.46,-18.33,-18.34,-13.73,-13.73,6.00,6.21,6.02,-12.33,-12.34,-4.60
50.96,-18.25,-18.25,-13.63,-13.62,6.00,6.21,6.06,-12.25,-12.25,-4.62
51.47,-18.17,-18.17,-13.51,-13.52,6.00,6.22,6.10,-12.17,-12.17,-4.66
51.99,-18.09,-18.09,-13.41,-13.42,6.00,6.22,6.15,-12.09,-12.09,-4.68
52.51,-18.02,-18.02,-13.33,-13.32,6.00,6.22,6.20,-12.02,-12.02,-4.70
53.03,-17.95,-17.95,-13.23,-13.23,6.00,6.23,6.25,-11.95,-11.95,-4.72
53.56,-17.88,-17.88,-13.14,-13.14,6.00,6.23,6.29,-11.88,-11.88,-4.74
54.10,-17.81,-17.81,-13.04,-13.04,6.00,6.23,6.34,-11.81,-11.81,-4.77
54.64,-17.75,-17.75,-12.96,-12.95,6.00,6.24,6.39,-11.75,-11.75,-4.80
55.18,-17.69,-17.69,-12.87,-12.87,6.00,6.24,6.44,-11.69,-11.69,-4.82
55.74,-17.64,-17.64,-12.79,-12.80,6.00,6.24,6.49,-11.64,-11.64,-4.85
56.29,-17.60,-17.60,-12.73,-12.73,6.00,6.24,6.53,-11.60,-11.60,-4.87
56.86,-17.56,-17.56,-12.67,-12.67,6.00,6.24,6.58,-11.56,-11.56,-4.90
57.42,-17.53,-17.53,-12.61,-12.61,6.00,6.25,6.62,-11.53,-11.53,-4.92
58.00,-17.51,-17.51,-12.57,-12.57,6.00,6.25,6.65,-11.51,-11.51,-4.94
58.58,-17.49,-17.49,-12.53,-12.53,6.00,6.25,6.69,-11.49,-11.49,-4.96
59.16,-17.48,-17.48,-12.50,-12.49,6.00,6.25,6.71,-11.48,-11.48,-4.98
59.76,-17.46,-17.47,-12.46,-12.46,6.00,6.25,6.74,-11.46,-11.47,-5.00
60.35,-17.45,-17.45,-12.41,-12.42,6.00,6.25,6.76,-11.45,-11.45,-5.04
60.96,-17.43,-17.43,-12.37,-12.36,6.00,6.25,6.77,-11.43,-11.43,-5.06
61.57,-17.40,-17.40,-12.30,-12.31,6.00,6.25,6.78,-11.40,-11.40,-5.10
62.18,-17.37,-17.37,-12.24,-12.24,6.00,6.25,6.78,-11.37,-11.37,-5.14
62.80,-17.34,-17.34,-12.18,-12.17,6.00,6.25,6.77,-11.34,-11.34,-5.16
63.43,-17.30,-17.30,-12.11,-12.11,6.00,6.24,6.76,-11.30,-11.30,-5.20
64.07,-17.26,-17.26,-12.04,-12.04,6.00,6.24,6.74,-11.26,-11.26,-5.22
64.71,-17.22,-17.22,-11.97,-11.97,6.00,6.24,6.72,-11.22,-11.22,-5.25
65.35,-17.18,-17.18,-11.91,-11.91,6.00,6.24,6.69,-11.18,-11.18,-5.28
66.01,-17.14,-17.14,-11.84,-11.84,6.00,6.23,6.66,-11.14,-11.14,-5.30
66.67,-17.10,-17.10,-11.77,-11.77,6.00,6.23,6.62,-11.10,-11.10,-5.33
67.33,-17.06,-17.06,-11.70,-11.70,6.00,6.23,6.57,-11.06,-11.06,-5.36
68.01,-17.02,-17.02,-11.63,-11.63,6.00,6.22,6.53,-11.02,-11.02,-5.39
68.69,-16.98,-16.98,-11.56,-11.55,6.00,6.22,6.48,-10.98,-10.98,-5.42
69.37,-16.93,-16.93,-11.48,-11.48,6.00,6.21,6.42,-10.93,-10.93,-5.46
70.07,-16.89,-16.89,-11.40,-11.41,6.00,6.21,6.37,-10.89,-10.89,-5.49
70.77,-16.85,-16.85,-11.34,-11.33,6.00,6.20,6.31,-10.85,-10.85,-5.51
71.48,-16.81,-16.81,-11.26,-11.26,6.00,6.19,6.25,-10.81,-10.81,-5.55
72.19,-16.77,-16.77,-11.19,-11.19,6.00,6.19,6.19,-10.77,-10.77,-5.58
72.91,-16.73,-16.73,-11.11,-11.11,6.00,6.18,6.13,-10.73,-10.73,-5.62
73.64,-16.69,-16.69,-11.04,-11.04,6.00,6.17,6.06,-10.69,-10.69,-5.65
74.38,-16.65,-16.65,-10.97,-10.96,6.00,6.16,6.00,-10.65,-10.65,-5.68
75.12,-16.60,-16.60,-10.88,-10.88,6.00,6.16,5.94,-10.60,-10.60,-5.72
75.87,-16.55,-16.55,-10.80,-10.80,6.00,6.15,5.89,-10.55,-10.55,-5.75
76.63,-16.50,-16.50,-10.72,-10.72,6.00,6.14,5.83,-10.50,-10.50,-5.78
77.40,-16.44,-16.44,-10.63,-10.63,6.00,6.13,5.77,-10.44,-10.44,-5.81
78.17,-16.38,-16.38,-10.53,-10.53,6.00,6.12,5.72,-10.38,-10.38,-5.85
78.95,-16.31,-16.31,-10.44,-10.44,6.00,6.11,5.67,-10.31,-10.31,-5.88
79.74,-16.25,-16.25,-10.34,-10.34,6.00,6.09,5.62,-10.25,-10.25,-5.91
80.54,-16.19,-16.19,-10.25,-10.25,6.00,6.08,5.58,-10.19,-10.19,-5.94
81.35,-16.13,-16.13,-10.15,-10.15,6.00,6.07,5.54,-10.13,-10.13,-5.98
82.16,-16.07,-16.07,-10.06,-10.06,6.00,6.06,5.50,-10.07,-10.07,-6.01
82.98,-16.01,-16.01,-9.97,-9.96,6.00,6.05,5.47,-10.01,-10.01,-6.04
83.81,-15.95,-15.95,-9.86,-9.87,6.00,6.03,5.44,-9.95,-9.95,-6.09
84.65,-15.90,-15.90,-9.78,-9.78,6.00,6.02,5.41,-9.90,-9.90,-6.13
85.50,-15.84,-15.84,-9.69,-9.68,6.00,6.01,5.39,-9.84,-9.84,-6.15
86.35,-15.78,-15.78,-9.59,-9.59,6.00,5.99,5.37,-9.78,-9.78,-6.19
87.22,-15.72,-15.72,-9.49,-9.49,6.00,5.98,5.35,-9.72,-9.72,-6.23
88.09,-15.65,-15.66,-9.38,-9.39,6.00,5.96,5.34,-9.65,-9.66,-6.27
88.97,-15.59,-15.59,-9.29,-9.28,6.00,5.95,5.33,-9.59,-9.59,-6.30
89.86,-15.52,-15.52,-9.18,-9.17,6.00,5.93,5.33,-9.52,-9.52,-6.35
90.76,-15.44,-15.44,-9.04,-9.05,6.00,5.92,5.33,-9.44,-9.44,-6.40
91.66,-15.36,-15.36,-8.93,-8.93,6.00,5.90,5.33,-9.36,-9.36,-6.43
92.58,-15.28,-15.28,-8.80,-8.80,6.00,5.89,5.34,-9.28,-9.28,-6.48
93.51,-15.20,-15.20,-8.68,-8.68,6.00,5.87,5.36,-9.20,-9.20,-6.52
94.44,-15.12,-15.12,-8.56,-8.56,6.00,5.86,5.37,-9.12,-9.12,-6.56
95.39,-15.03,-15.03,-8.43,-8.43,6.00,5.84,5.39,-9.03,-9.03,-6.61
96.34,-14.95,-14.95,-8.29,-8.29,6.00,5.83,5.42,-8.95,-8.95,-6.66
97.30,-14.87,-14.87,-8.17,-8.17,6.00,5.81,5.44,-8.87,-8.87,-6.71
98.28,-14.79,-14.79,-8.04,-8.04,6.00,5.79,5.47,-8.79,-8.79,-6.75
99.26,-14.72,-14.72,-7.93,-7.92,6.00,5.78,5.50,-8.72,-8.72,-6.80
100.25,-14.65,-14.65,-7.81,-7.81,6.00,5.76,5.54,-8.65,-8.65,-6.84
101.25,-14.59,-14.60,-7.70,-7.71,6.00,5.75,5.58,-8.59,-8.60,-6.89
102.27,-14.55,-14.55,-7.62,-7.61,6.00,5.73,5.62,-8.55,-8.55,-6.93
103.29,-14.52,-14.52,-7.53,-7.54,6.00,5.72,5.66,-8.52,-8.52,-6.99
104.32,-14.50,-14.50,-7.47,-7.47,6.00,5.70,5.70,-8.50,-8.50,-7.03
105.37,-14.49,-14.50,-7.42,-7.42,6.00,5.69,5.75,-8.49,-8.50,-7.07
106.42,-14.50,-14.50,-7.38,-7.38,6.00,5.68,5.79,-8.50,-8.50,-7.12
107.48,-14.52,-14.52,-7.36,-7.35,6.00,5.66,5.84,-8.52,-8.52,-7.17
108.56,-14.54,-14.54,-7.32,-7.32,6.00,5.65,5.88,-8.54,-8.54,-7.22
109.64,-14.57,-14.57,-7.30,-7.31,6.00,5.64,5.93,-8.57,-8.57,-7.27
110.74,-14.60,-14.60,-7.29,-7.29,6.00,5.62,5.97,-8.60,-8.60,-7.31
111.85,-14.63,-14.63,-7.27,-7.27,6.00,5.61,6.02,-8.63,-8.63,-7.36
112.97,-14.66,-14.66,-7.24,-7.24,6.00,5.60,6.06,-8.66,-8.66,-7.43
114.10,-14.68,-14.68,-7.21,-7.21,6.00,5.59,6.10,-8.68,-8.68,-7.47
115.24,-14.68,-14.69,-7.16,-7.16,6.00,5.58,6.13,-8.68,-8.69,-7.53
116.39,-14.69,-14.68,-7.11,-7.10,6.00,5.57,6.17,-8.69,-8.68,-7.58
117.55,-14.67,-14.67,-7.04,-7.04,6.00,5.56,6.20,-8.67,-8.67,-7.63
118.73,-14.65,-14.66,-6.96,-6.97,6.00,5.55,6.22,-8.65,-8.66,-7.69
119.92,-14.63,-14.63,-6.90,-6.89,6.00,5.54,6.24,-8.63,-8.63,-7.73
121.12,-14.59,-14.59,-6.81,-6.81,6.00,5.53,6.26,-8.59,-8.59,-7.78
122.33,-14.55,-14.55,-6.72,-6.72,6.00,5.52,6.27,-8.55,-8.55,-7.84
123.55,-14.51,-14.51,-6.63,-6.63,6.00,5.52,6.28,-8.51,-8.51,-7.88
124.79,-14.47,-14.47,-6.54,-6.54,6.00,5.51,6.28,-8.47,-8.47,-7.93
126.03,-14.43,-14.43,-6.45,-6.45,6.00,5.50,6.27,-8.43,-8.43,-7.98
127.29,-14.40,-14.40,-6.37,-6.37,6.00,5.50,6.26,-8.40,-8.40,-8.03
128.57,-14.38,-14.38,-6.29,-6.29,6.00,5.50,6.25,-8.38,-8.38,-8.09
129.85,-14.36,-14.36,-6.22,-6.22,6.01,5.49,6.22,-8.36,-8.36,-8.14
131.15,-14.35,-14.35,-6.17,-6.16,6.01,5.49,6.20,-8.35,-8.34,-8.19
132.46,-14.34,-14.34,-6.11,-6.11,6.00,5.49,6.17,-8.34,-8.34,-8.23
133.79,-14.34,-14.34,-6.07,-6.07,6.00,5.48,6.14,-8.34,-8.35,-8.27
135.12,-14.35,-14.35,-6.03,-6.03,5.99,5.48,6.10,-8.36,-8.36,-8.33
136.48,-14.36,-14.36,-6.00,-6.00,5.97,5.48,6.06,-8.39,-8.39,-8.36
137.84,-14.37,-14.37,-5.97,-5.96,5.96,5.48,6.01,-8.42,-8.42,-8.40
139.22,-14.38,-14.38,-5.92,-5.93,5.93,5.48,5.96,-8.45,-8.45,-8.46
140.61,-14.39,-14.39,-5.89,-5.90,5.91,5.49,5.91,-8.48,-8.48,-8.50
142.02,-14.40,-14.40,-5.88,-5.87,5.88,5.49,5.86,-8.52,-8.52,-8.52
143.44,-14.41,-14.41,-5.85,-5.85,5.85,5.49,5.81,-8.56,-8.56,-8.56
144.87,-14.42,-14.42,-5.82,-5.82,5.82,5.49,5.76,-8.60,-8.60,-8.60
146.32,-14.43,-14.43,-5.79,-5.79,5.79,5.49,5.71,-8.64,-8.64,-8.64
147.78,-14.44,-14.44,-5.77,-5.76,5.76,5.50,5.65,-8.68,-8.68,-8.67
149.26,-14.45,-14.45,-5.74,-5.73,5.73,5.50,5.60,-8.72,-8.72,-8.71
150.75,-14.45,-14.45,-5.69,-5.70,5.69,5.51,5.55,-8.76,-8.76,-8.76
152.26,-14.45,-14.45,-5.66,-5.66,5.66,5.51,5.50,-8.80,-8.80,-8.79
153.78,-14.44,-14.45,-5.61,-5.61,5.61,5.52,5.45,-8.83,-8.84,-8.83
155.32,-14.44,-14.44,-5.57,-5.57,5.56,5.52,5.41,-8.88,-8.87,-8.87
156.88,-14.43,-14.43,-5.52,-5.52,5.51,5.53,5.37,-8.92,-8.92,-8.91
158.44,-14.41,-14.42,-5.46,-5.46,5.46,5.53,5.33,-8.95,-8.95,-8.95
160.03,-14.40,-14.40,-5.41,-5.41,5.41,5.54,5.29,-9.00,-8.99,-8.99
161.63,-14.38,-14.38,-5.35,-5.35,5.35,5.54,5.25,-9.03,-9.03,-9.04
163.24,-14.37,-14.37,-5.30,-5.30,5.30,5.55,5.22,-9.07,-9.07,-9.08
164.88,-14.35,-14.35,-5.25,-5.24,5.24,5.55,5.19,-9.11,-9.11,-9.11
166.53,-14.34,-14.34,-5.20,-5.20,5.19,5.56,5.17,-9.15,-9.15,-9.15
168.19,-14.33,-14.33,-5.15,-5.15,5.15,5.56,5.15,-9.18,-9.18,-9.18
169.87,-14.32,-14.32,-5.10,-5.10,5.10,5.57,5.13,-9.22,-9.22,-9.22
171.57,-14.32,-14.32,-5.06,-5.07,5.07,5.57,5.12,-9.26,-9.26,-9.26
173.29,-14.33,-14.33,-5.04,-5.03,5.03,5.58,5.11,-9.30,-9.30,-9.29
175.02,-14.34,-14.34,-5.01,-5.01,5.01,5.58,5.10,-9.34,-9.33,-9.33
176.77,-14.35,-14.36,-4.98,-4.98,4.99,5.58,5.10,-9.37,-9.37,-9.37
178.54,-14.38,-14.38,-4.96,-4.97,4.97,5.59,5.10,-9.41,-9.41,-9.42
180.32,-14.41,-14.41,-4.96,-4.96,4.97,5.59,5.10,-9.45,-9.45,-9.45
182.13,-14.45,-14.45,-4.97,-4.97,4.97,5.59,5.12,-9.48,-9.49,-9.48
183.95,-14.50,-14.50,-4.98,-4.98,4.97,5.59,5.13,-9.53,-9.52,-9.53
185.79,-14.55,-14.55,-4.99,-4.99,4.99,5.59,5.14,-9.56,-9.56,-9.56
187.65,-14.60,-14.61,-5.00,-5.01,5.01,5.59,5.16,-9.59,-9.60,-9.60
189.52,-14.66,-14.66,-5.03,-5.03,5.03,5.59,5.19,-9.63,-9.63,-9.63
191.42,-14.72,-14.72,-5.06,-5.06,5.06,5.59,5.22,-9.66,-9.66,-9.66
193.33,-14.77,-14.78,-5.08,-5.09,5.09,5.58,5.25,-9.68,-9.69,-9.69
195.27,-14.84,-14.84,-5.13,-5.12,5.12,5.58,5.28,-9.72,-9.72,-9.72
197.22,-14.90,-14.90,-5.16,-5.15,5.16,5.57,5.32,-9.74,-9.74,-9.74
199.19,-14.96,-14.97,-5.18,-5.19,5.20,5.57,5.36,-9.76,-9.77,-9.78
201.18,-15.03,-15.03,-5.23,-5.23,5.24,5.56,5.40,-9.79,-9.79,-9.80
203.19,-15.09,-15.09,-5.28,-5.28,5.28,5.55,5.44,-9.81,-9.81,-9.81
205.23,-15.15,-15.15,-5.31,-5.32,5.32,5.54,5.49,-9.83,-9.83,-9.84
207.28,-15.21,-15.21,-5.37,-5.36,5.36,5.53,5.54,-9.85,-9.85,-9.84
209.35,-15.25,-15.25,-5.38,-5.38,5.38,5.52,5.59,-9.87,-9.87,-9.87
211.44,-15.28,-15.28,-5.39,-5.40,5.39,5.51,5.64,-9.89,-9.89,-9.89
213.56,-15.30,-15.30,-5.41,-5.40,5.38,5.49,5.69,-9.92,-9.91,-9.90
215.69,-15.28,-15.28,-5.38,-5.38,5.36,5.48,5.74,-9.93,-9.93,-9.90
217.85,-15.24,-15.24,-5.33,-5.33,5.31,5.46,5.78,-9.94,-9.93,-9.91
220.03,-15.17,-15.17,-5.25,-5.25,5.24,5.44,5.83,-9.94,-9.94,-9.92
222.23,-15.08,-15.08,-5.15,-5.15,5.15,5.43,5.88,-9.93,-9.94,-9.94
224.45,-14.98,-14.98,-5.05,-5.05,5.04,5.41,5.92,-9.94,-9.94,-9.93
226.70,-14.86,-14.86,-4.93,-4.93,4.93,5.39,5.97,-9.94,-9.93,-9.93
228.96,-14.73,-14.74,-4.80,-4.81,4.80,5.37,6.00,-9.93,-9.93,-9.93
231.25,-14.61,-14.61,-4.69,-4.69,4.68,5.35,6.04,-9.93,-9.93,-9.92
233.57,-14.49,-14.49,-4.57,-4.57,4.57,5.32,6.07,-9.92,-9.92,-9.92
235.90,-14.38,-14.38,-4.46,-4.46,4.48,5.30,6.09,-9.91,-9.91,-9.92
238.26,-14.29,-14.29,-4.37,-4.38,4.40,5.28,6.12,-9.90,-9.90,-9.92
240.64,-14.23,-14.23,-4.32,-4.32,4.34,5.25,6.13,-9.89,-9.89,-9.91
243.05,-14.19,-14.19,-4.29,-4.30,4.31,5.23,6.14,-9.88,-9.88,-9.90
245.48,-14.18,-14.18,-4.30,-4.30,4.31,5.20,6.14,-9.87,-9.87,-9.89
247.93,-14.20,-14.20,-4.33,-4.32,4.34,5.18,6.14,-9.87,-9.86,-9.87
250.41,-14.24,-14.24,-4.37,-4.38,4.39,5.15,6.13,-9.85,-9.85,-9.87
252.92,-14.31,-14.31,-4.46,-4.46,4.47,5.13,6.11,-9.84,-9.84,-9.85
255.45,-14.39,-14.39,-4.57,-4.56,4.57,5.11,6.09,-9.82,-9.83,-9.83
258.00,-14.49,-14.49,-4.68,-4.68,4.68,5.08,6.06,-9.81,-9.81,-9.81
260.58,-14.60,-14.60,-4.80,-4.81,4.81,5.06,6.02,-9.80,-9.80,-9.80
263.19,-14.72,-14.72,-4.95,-4.94,4.94,5.03,5.98,-9.78,-9.78,-9.78
265.82,-14.83,-14.83,-5.07,-5.07,5.07,5.01,5.94,-9.76,-9.76,-9.76
268.48,-14.94,-14.94,-5.20,-5.20,5.20,4.99,5.89,-9.75,-9.74,-9.74
271.16,-15.04,-15.04,-5.33,-5.32,5.31,4.97,5.83,-9.73,-9.73,-9.71
273.87,-15.12,-15.13,-5.42,-5.43,5.42,4.95,5.77,-9.71,-9.71,-9.70
276.61,-15.20,-15.20,-5.53,-5.52,5.50,4.93,5.70,-9.70,-9.69,-9.68
279.38,-15.25,-15.25,-5.59,-5.59,5.57,4.92,5.63,-9.68,-9.68,-9.66
282.17,-15.28,-15.28,-5.64,-5.64,5.63,4.90,5.56,-9.66,-9.66,-9.65
284.99,-15.29,-15.29,-5.67,-5.67,5.66,4.89,5.49,-9.63,-9.63,-9.62
287.84,-15.29,-15.29,-5.69,-5.69,5.68,4.88,5.42,-9.61,-9.61,-9.61
290.72,-15.28,-15.28,-5.70,-5.69,5.69,4.87,5.34,-9.59,-9.59,-9.58
293.63,-15.25,-15.26,-5.69,-5.69,5.69,4.87,5.27,-9.56,-9.57,-9.56
296.57,-15.23,-15.23,-5.69,-5.69,5.69,4.87,5.19,-9.54,-9.54,-9.54
299.53,-15.21,-15.21,-5.69,-5.69,5.70,4.87,5.12,-9.51,-9.51,-9.52
302.53,-15.19,-15.20,-5.68,-5.70,5.72,4.87,5.04,-9.47,-9.48,-9.51
305.55,-15.19,-15.19,-5.72,-5.72,5.75,4.88,4.97,-9.44,-9.45,-9.47
308.61,-15.21,-15.21,-5.76,-5.75,5.79,4.89,4.89,-9.43,-9.42,-9.45
311.69,-15.23,-15.23,-5.80,-5.81,5.83,4.90,4.82,-9.40,-9.41,-9.43
314.81,-15.27,-15.28,-5.88,-5.88,5.87,4.92,4.76,-9.40,-9.40,-9.39
317.96,-15.33,-15.33,-5.96,-5.95,5.91,4.94,4.69,-9.42,-9.41,-9.37
321.14,-15.39,-15.39,-6.03,-6.03,5.95,4.97,4.62,-9.44,-9.44,-9.36
324.35,-15.45,-15.45,-6.11,-6.12,5.98,5.00,4.56,-9.47,-9.47,-9.34
327.59,-15.52,-15.52,-6.21,-6.20,6.00,5.04,4.51,-9.52,-9.52,-9.31
330.87,-15.59,-15.59,-6.29,-6.29,6.01,5.08,4.45,-9.58,-9.58,-9.30
334.18,-15.67,-15.68,-6.39,-6.40,6.01,5.12,4.40,-9.66,-9.67,-9.28
337.52,-15.78,-15.78,-6.52,-6.52,6.01,5.17,4.35,-9.77,-9.77,-9.26
340.90,-15.89,-15.89,-6.66,-6.66,6.00,5.23,4.30,-9.89,-9.89,-9.23
344.30,-16.01,-16.01,-6.79,-6.79,6.00,5.29,4.26,-10.01,-10.01,-9.22
347.75,-16.12,-16.12,-6.92,-6.92,6.00,5.35,4.22,-10.12,-10.12,-9.20
351.23,-16.21,-16.21,-7.03,-7.03,6.00,5.43,4.19,-10.21,-10.21,-9.18
354.74,-16.28,-16.27,-7.12,-7.11,6.00,5.50,4.15,-10.28,-10.27,-9.16
358.28,-16.30,-16.30,-7.16,-7.15,6.00,5.58,4.12,-10.30,-10.30,-9.15
361.87,-16.29,-16.29,-7.16,-7.16,6.00,5.67,4.10,-10.29,-10.29,-9.13
365.49,-16.26,-16.26,-7.14,-7.14,6.00,5.76,4.08,-10.26,-10.26,-9.12
369.14,-16.21,-16.21,-7.10,-7.11,6.00,5.85,4.06,-10.21,-10.21,-9.11
