frequency,raw,smoothed,error,error_smoothed,equalization,parametric_eq,fixed_band_eq,equalized_raw,equalized_smoothed,target
20.00,7.36,7.36,0.16,0.17,-0.17,-0.30,-0.24,7.19,7.19,7.19
20.20,7.38,7.38,0.18,0.18,-0.18,-0.30,-0.24,7.19,7.19,7.19
20.40,7.40,7.39,0.20,0.20,-0.20,-0.30,-0.25,7.20,7.19,7.19
20.61,7.41,7.41,0.22,0.22,-0.21,-0.30,-0.26,7.19,7.19,7.19
20.81,7.42,7.42,0.23,0.23,-0.23,-0.30,-0.27,7.19,7.19,7.19
21.02,7.44,7.43,0.25,0.24,-0.24,-0.30,-0.27,7.20,7.19,7.19
21.23,7.45,7.45,0.26,0.26,-0.26,-0.30,-0.28,7.19,7.19,7.19
21.44,7.46,7.46,0.27,0.27,-0.27,-0.30,-0.29,7.19,7.19,7.19
21.66,7.47,7.47,0.28,0.28,-0.28,-0.30,-0.30,7.18,7.19,7.19
21.87,7.49,7.48,0.30,0.30,-0.30,-0.31,-0.31,7.19,7.19,7.19
22.09,7.50,7.50,0.31,0.31,-0.31,-0.31,-0.32,7.19,7.19,7.19
22.31,7.51,7.51,0.32,0.32,-0.32,-0.31,-0.32,7.18,7.19,7.19
22.54,7.52,7.52,0.33,0.34,-0.34,-0.31,-0.33,7.18,7.18,7.18
22.76,7.54,7.53,0.35,0.35,-0.35,-0.31,-0.34,7.19,7.18,7.18
22.99,7.55,7.55,0.36,0.36,-0.36,-0.31,-0.35,7.18,7.18,7.18
23.22,7.56,7.56,0.38,0.38,-0.38,-0.31,-0.36,7.18,7.18,7.18
23.45,7.57,7.57,0.39,0.39,-0.39,-0.31,-0.37,7.18,7.18,7.18
23.69,7.58,7.58,0.40,0.40,-0.40,-0.32,-0.38,7.18,7.18,7.18
23.92,7.59,7.59,0.41,0.41,-0.41,-0.32,-0.39,7.18,7.18,7.18
24.16,7.60,7.59,0.42,0.42,-0.42,-0.32,-0.41,7.18,7.18,7.18
24.40,7.60,7.60,0.42,0.43,-0.43,-0.32,-0.42,7.17,7.18,7.18
24.65,7.61,7.61,0.43,0.43,-0.43,-0.32,-0.43,7.17,7.17,7.18
24.89,7.62,7.61,0.44,0.44,-0.44,-0.32,-0.44,7.18,7.17,7.17
25.14,7.62,7.62,0.45,0.45,-0.45,-0.32,-0.45,7.17,7.18,7.17
25.39,7.63,7.63,0.46,0.45,-0.45,-0.33,-0.46,7.18,7.17,7.17
25.65,7.63,7.63,0.46,0.46,-0.46,-0.33,-0.47,7.17,7.17,7.17
25.91,7.63,7.63,0.46,0.46,-0.46,-0.33,-0.48,7.17,7.17,7.17
26.16,7.63,7.63,0.46,0.46,-0.46,-0.33,-0.50,7.16,7.16,7.17
26.43,7.63,7.63,0.46,0.47,-0.47,-0.33,-0.51,7.16,7.16,7.16
26.69,7.64,7.63,0.47,0.47,-0.47,-0.33,-0.52,7.17,7.16,7.16
26.96,7.64,7.64,0.48,0.48,-0.47,-0.33,-0.53,7.16,7.16,7.16
27.23,7.64,7.64,0.48,0.48,-0.48,-0.34,-0.54,7.16,7.16,7.16
27.50,7.64,7.64,0.48,0.48,-0.48,-0.34,-0.55,7.16,7.16,7.16
27.77,7.64,7.64,0.48,0.48,-0.48,-0.34,-0.56,7.16,7.16,7.16
28.05,7.64,7.64,0.48,0.48,-0.48,-0.34,-0.57,7.15,7.15,7.15
28.33,7.64,7.64,0.49,0.49,-0.49,-0.34,-0.58,7.15,7.15,7.15
28.62,7.64,7.64,0.49,0.49,-0.49,-0.35,-0.59,7.15,7.15,7.15
28.90,7.64,7.64,0.49,0.49,-0.49,-0.35,-0.59,7.15,7.15,7.15
29.19,7.64,7.64,0.49,0.49,-0.49,-0.35,-0.60,7.14,7.14,7.15
29.48,7.64,7.64,0.50,0.50,-0.50,-0.35,-0.61,7.14,7.14,7.14
29.78,7.64,7.64,0.50,0.50,-0.50,-0.35,-0.61,7.14,7.14,7.14
30.08,7.64,7.64,0.50,0.50,-0.50,-0.36,-0.62,7.14,7.14,7.14
30.38,7.64,7.64,0.50,0.50,-0.50,-0.36,-0.62,7.13,7.13,7.13
30.68,7.64,7.64,0.51,0.51,-0.51,-0.36,-0.63,7.13,7.13,7.13
30.99,7.64,7.64,0.51,0.51,-0.51,-0.36,-0.63,7.13,7.13,7.13
31.30,7.64,7.63,0.51,0.51,-0.51,-0.36,-0.63,7.13,7.13,7.13
31.61,7.63,7.63,0.50,0.51,-0.51,-0.37,-0.63,7.12,7.12,7.12
31.93,7.63,7.63,0.51,0.51,-0.51,-0.37,-0.63,7.12,7.12,7.12
32.24,7.63,7.62,0.51,0.51,-0.51,-0.37,-0.63,7.12,7.12,7.12
32.57,7.62,7.62,0.51,0.51,-0.50,-0.37,-0.63,7.11,7.12,7.11
32.89,7.62,7.61,0.51,0.50,-0.50,-0.38,-0.63,7.12,7.11,7.11
33.22,7.61,7.60,0.50,0.50,-0.50,-0.38,-0.62,7.11,7.11,7.11
33.55,7.59,7.60,0.49,0.49,-0.49,-0.38,-0.62,7.09,7.10,7.10
33.89,7.59,7.58,0.49,0.49,-0.49,-0.38,-0.62,7.10,7.09,7.10
34.23,7.58,7.58,0.48,0.48,-0.49,-0.39,-0.61,7.09,7.09,7.09
34.57,7.57,7.57,0.48,0.48,-0.49,-0.39,-0.61,7.08,7.09,7.09
34.92,7.57,7.57,0.48,0.48,-0.48,-0.39,-0.60,7.08,7.08,7.08
35.27,7.57,7.56,0.49,0.49,-0.48,-0.39,-0.59,7.09,7.09,7.08
35.62,7.56,7.56,0.48,0.48,-0.47,-0.40,-0.59,7.08,7.08,7.07
35.97,7.55,7.55,0.48,0.48,-0.47,-0.40,-0.58,7.08,7.08,7.07
36.33,7.53,7.53,0.46,0.47,-0.47,-0.40,-0.57,7.06,7.07,7.06
36.70,7.52,7.52,0.46,0.46,-0.46,-0.40,-0.56,7.06,7.06,7.06
37.06,7.51,7.51,0.45,0.45,-0.46,-0.41,-0.56,7.05,7.05,7.05
37.43,7.50,7.50,0.45,0.45,-0.46,-0.41,-0.55,7.04,7.04,7.05
37.81,7.50,7.50,0.46,0.46,-0.46,-0.41,-0.54,7.04,7.04,7.04
38.19,7.50,7.50,0.46,0.47,-0.47,-0.42,-0.53,7.03,7.03,7.03
38.57,7.51,7.50,0.48,0.48,-0.47,-0.42,-0.52,7.03,7.03,7.03
38.95,7.51,7.51,0.49,0.49,-0.48,-0.42,-0.52,7.02,7.02,7.02
39.34,7.51,7.51,0.49,0.50,-0.49,-0.43,-0.51,7.01,7.02,7.01
39.74,7.52,7.51,0.51,0.51,-0.51,-0.43,-0.50,7.01,7.01,7.01
40.14,7.52,7.52,0.52,0.52,-0.52,-0.43,-0.49,7.00,7.00,7.00
40.54,7.52,7.52,0.53,0.53,-0.53,-0.44,-0.48,6.99,6.99,6.99
40.94,7.52,7.52,0.53,0.53,-0.54,-0.44,-0.48,6.98,6.98,6.98
41.35,7.52,7.52,0.54,0.54,-0.54,-0.44,-0.47,6.97,6.97,6.97
41.76,7.52,7.52,0.55,0.55,-0.55,-0.45,-0.46,6.97,6.97,6.97
42.18,7.52,7.52,0.56,0.56,-0.56,-0.45,-0.46,6.96,6.96,6.96
42.60,7.52,7.52,0.57,0.57,-0.57,-0.45,-0.45,6.95,6.95,6.95
43.03,7.51,7.51,0.57,0.57,-0.57,-0.46,-0.44,6.94,6.94,6.94
43.46,7.51,7.51,0.58,0.58,-0.58,-0.46,-0.44,6.93,6.93,6.93
43.90,7.50,7.50,0.58,0.58,-0.58,-0.46,-0.43,6.92,6.92,6.92
44.33,7.49,7.49,0.58,0.58,-0.58,-0.47,-0.43,6.91,6.91,6.91
44.78,7.48,7.48,0.58,0.58,-0.58,-0.47,-0.42,6.89,6.90,6.90
45.23,7.47,7.47,0.58,0.58,-0.58,-0.48,-0.42,6.89,6.89,6.88
45.68,7.46,7.45,0.59,0.58,-0.58,-0.48,-0.41,6.88,6.87,6.87
46.13,7.44,7.44,0.58,0.58,-0.58,-0.48,-0.41,6.86,6.86,6.86
46.60,7.42,7.42,0.57,0.58,-0.58,-0.49,-0.41,6.84,6.85,6.85
47.06,7.41,7.40,0.57,0.57,-0.57,-0.49,-0.40,6.83,6.83,6.83
47.53,7.39,7.39,0.57,0.57,-0.57,-0.50,-0.40,6.82,6.82,6.82
48.01,7.37,7.37,0.56,0.57,-0.57,-0.50,-0.40,6.80,6.80,6.81
48.49,7.36,7.35,0.57,0.56,-0.57,-0.50,-0.39,6.79,6.79,6.79
48.97,7.34,7.34,0.56,0.57,-0.57,-0.51,-0.39,6.77,6.78,6.77
49.46,7.33,7.33,0.57,0.57,-0.56,-0.51,-0.39,6.76,6.76,6.76
49.96,7.31,7.31,0.56,0.56,-0.56,-0.52,-0.39,6.74,6.74,6.74
50.46,7.29,7.29,0.56,0.56,-0.56,-0.52,-0.39,6.73,6.73,6.73
50.96,7.27,7.27,0.56,0.56,-0.56,-0.52,-0.39,6.71,6.71,6.71
51.47,7.25,7.25,0.56,0.56,-0.56,-0.53,-0.39,6.69,6.69,6.69
51.99,7.23,7.22,0.56,0.55,-0.55,-0.53,-0.39,6.67,6.67,6.67
52.51,7.20,7.20,0.55,0.55,-0.55,-0.54,-0.39,6.65,6.65,6.65
53.03,7.18,7.18,0.55,0.55,-0.55,-0.54,-0.39,6.63,6.63,6.63
53.56,7.16,7.15,0.55,0.54,-0.54,-0.54,-0.39,6.62,6.61,6.61
54.10,7.13,7.13,0.54,0.54,-0.54,-0.55,-0.39,6.59,6.59,6.59
54.64,7.11,7.10,0.54,0.54,-0.53,-0.55,-0.40,6.57,6.57,6.57
55.18,7.08,7.08,0.53,0.53,-0.53,-0.56,-0.40,6.55,6.55,6.55
55.74,7.05,7.05,0.53,0.53,-0.53,-0.56,-0.40,6.52,6.52,6.52
56.29,7.03,7.02,0.53,0.53,-0.53,-0.56,-0.41,6.50,6.50,6.50
56.86,7.00,7.00,0.52,0.53,-0.53,-0.57,-0.41,6.47,6.47,6.47
57.42,6.98,6.98,0.53,0.53,-0.53,-0.57,-0.41,6.45,6.45,6.45
58.00,6.96,6.95,0.54,0.53,-0.53,-0.57,-0.42,6.42,6.42,6.42
58.58,6.93,6.93,0.53,0.54,-0.54,-0.58,-0.43,6.39,6.39,6.39
59.16,6.91,6.91,0.54,0.54,-0.54,-0.58,-0.43,6.37,6.37,6.37
59.76,6.89,6.88,0.55,0.55,-0.55,-0.59,-0.44,6.34,6.34,6.34
60.35,6.86,6.86,0.55,0.55,-0.55,-0.59,-0.45,6.31,6.31,6.31
60.96,6.84,6.84,0.56,0.56,-0.55,-0.59,-0.46,6.28,6.28,6.28
61.57,6.81,6.81,0.56,0.56,-0.56,-0.60,-0.46,6.25,6.25,6.25
62.18,6.78,6.78,0.56,0.57,-0.56,-0.60,-0.47,6.22,6.22,6.21
62.80,6.75,6.75,0.57,0.57,-0.57,-0.60,-0.48,6.18,6.18,6.18
63.43,6.72,6.72,0.57,0.57,-0.58,-0.61,-0.50,6.14,6.14,6.15
64.07,6.69,6.69,0.58,0.58,-0.59,-0.61,-0.51,6.10,6.10,6.11
64.71,6.67,6.67,0.59,0.59,-0.60,-0.62,-0.52,6.07,6.06,6.07
65.35,6.65,6.65,0.61,0.61,-0.62,-0.62,-0.53,6.03,6.03,6.04
66.01,6.63,6.63,0.63,0.63,-0.63,-0.63,-0.55,6.00,6.00,6.00
66.67,6.62,6.61,0.66,0.65,-0.64,-0.63,-0.56,5.97,5.97,5.96
67.33,6.59,6.59,0.67,0.67,-0.65,-0.64,-0.58,5.93,5.94,5.92
68.01,6.56,6.55,0.68,0.67,-0.66,-0.65,-0.59,5.90,5.89,5.88
68.69,6.51,6.51,0.67,0.67,-0.67,-0.66,-0.61,5.84,5.84,5.84
69.37,6.46,6.46,0.66,0.67,-0.67,-0.67,-0.63,5.78,5.79,5.79
70.07,6.42,6.42,0.67,0.67,-0.68,-0.68,-0.64,5.74,5.74,5.75
70.77,6.38,6.38,0.67,0.67,-0.68,-0.69,-0.66,5.70,5.70,5.70
71.48,6.34,6.34,0.68,0.68,-0.68,-0.71,-0.68,5.65,5.65,5.66
72.19,6.30,6.30,0.69,0.69,-0.69,-0.72,-0.70,5.61,5.61,5.61
72.91,6.27,6.26,0.70,0.70,-0.70,-0.74,-0.72,5.57,5.56,5.56
73.64,6.23,6.23,0.71,0.71,-0.71,-0.75,-0.75,5.52,5.52,5.51
74.38,6.19,6.19,0.72,0.73,-0.72,-0.77,-0.77,5.47,5.47,5.46
75.12,6.15,6.15,0.73,0.74,-0.73,-0.79,-0.79,5.42,5.42,5.41
75.87,6.11,6.10,0.75,0.74,-0.74,-0.81,-0.82,5.37,5.37,5.36
76.63,6.06,6.05,0.75,0.75,-0.74,-0.83,-0.84,5.31,5.31,5.31
77.40,6.00,6.00,0.75,0.75,-0.75,-0.85,-0.87,5.24,5.25,5.25
78.17,5.95,5.95,0.75,0.75,-0.76,-0.88,-0.89,5.18,5.19,5.20
78.95,5.91,5.91,0.77,0.77,-0.78,-0.90,-0.92,5.13,5.13,5.14
79.74,5.88,5.87,0.79,0.79,-0.79,-0.92,-0.95,5.09,5.08,5.08
80.54,5.84,5.84,0.81,0.81,-0.81,-0.94,-0.98,5.03,5.03,5.03
81.35,5.80,5.80,0.83,0.83,-0.83,-0.97,-1.01,4.97,4.97,4.97
82.16,5.77,5.76,0.86,0.86,-0.86,-0.99,-1.04,4.91,4.91,4.91
82.98,5.73,5.73,0.88,0.89,-0.89,-1.02,-1.07,4.84,4.84,4.84
83.81,5.70,5.70,0.91,0.92,-0.92,-1.04,-1.11,4.78,4.78,4.78
84.65,5.68,5.67,0.96,0.95,-0.95,-1.06,-1.14,4.72,4.72,4.72
85.50,5.65,5.65,0.99,0.99,-0.99,-1.09,-1.18,4.65,4.66,4.66
86.35,5.63,5.63,1.04,1.04,-1.04,-1.11,-1.21,4.59,4.59,4.59
87.22,5.61,5.61,1.08,1.08,-1.08,-1.14,-1.25,4.53,4.52,4.53
88.09,5.59,5.59,1.13,1.13,-1.13,-1.16,-1.29,4.46,4.46,4.46
88.97,5.57,5.57,1.17,1.18,-1.18,-1.19,-1.33,4.39,4.39,4.39
89.86,5.56,5.56,1.23,1.23,-1.23,-1.21,-1.37,4.33,4.33,4.33
90.76,5.55,5.55,1.29,1.29,-1.28,-1.24,-1.41,4.27,4.27,4.26
91.66,5.53,5.53,1.34,1.34,-1.33,-1.27,-1.45,4.20,4.20,4.19
92.58,5.51,5.50,1.39,1.38,-1.37,-1.29,-1.50,4.13,4.13,4.12
93.51,5.47,5.47,1.42,1.42,-1.42,-1.32,-1.54,4.05,4.05,4.05
94.44,5.44,5.43,1.46,1.45,-1.46,-1.34,-1.58,3.98,3.97,3.98
95.39,5.40,5.40,1.49,1.49,-1.50,-1.37,-1.63,3.90,3.90,3.91
96.34,5.37,5.37,1.53,1.53,-1.54,-1.40,-1.68,3.83,3.84,3.84
97.30,5.35,5.35,1.58,1.58,-1.57,-1.42,-1.72,3.78,3.78,3.77
98.28,5.33,5.32,1.63,1.62,-1.60,-1.45,-1.77,3.73,3.72,3.70
99.26,5.28,5.27,1.65,1.65,-1.64,-1.48,-1.82,3.64,3.63,3.62
100.25,5.22,5.22,1.67,1.67,-1.68,-1.51,-1.87,3.54,3.54,3.55
101.25,5.16,5.17,1.68,1.69,-1.72,-1.54,-1.92,3.44,3.45,3.48
102.27,5.14,5.14,1.73,1.73,-1.76,-1.56,-1.97,3.38,3.38,3.41
103.29,5.13,5.13,1.79,1.79,-1.79,-1.59,-2.02,3.33,3.33,3.33
104.32,5.12,5.11,1.86,1.85,-1.83,-1.62,-2.07,3.29,3.28,3.26
105.37,5.09,5.08,1.90,1.89,-1.87,-1.65,-2.11,3.22,3.21,3.19
106.42,5.04,5.04,1.92,1.92,-1.91,-1.68,-2.16,3.12,3.12,3.11
107.48,4.98,4.98,1.94,1.94,-1.95,-1.71,-2.21,3.02,3.03,3.04
108.56,4.94,4.94,1.97,1.97,-1.99,-1.74,-2.26,2.95,2.95,2.97
109.64,4.91,4.91,2.01,2.02,-2.02,-1.77,-2.30,2.89,2.89,2.89
110.74,4.89,4.88,2.07,2.06,-2.05,-1.80,-2.35,2.84,2.83,2.82
111.85,4.85,4.84,2.10,2.09,-2.08,-1.83,-2.39,2.77,2.76,2.75
112.97,4.79,4.79,2.11,2.11,-2.11,-1.86,-2.43,2.68,2.68,2.68
114.10,4.73,4.73,2.12,2.13,-2.14,-1.89,-2.47,2.59,2.60,2.61
115.24,4.69,4.69,2.15,2.15,-2.16,-1.92,-2.51,2.52,2.52,2.54
116.39,4.65,4.65,2.18,2.19,-2.19,-1.95,-2.54,2.46,2.46,2.46
117.55,4.62,4.61,2.22,2.22,-2.21,-1.99,-2.57,2.41,2.40,2.39
118.73,4.57,4.57,2.24,2.24,-2.24,-2.02,-2.60,2.33,2.33,2.32
119.92,4.52,4.52,2.26,2.26,-2.26,-2.05,-2.62,2.26,2.26,2.25
121.12,4.47,4.47,2.28,2.28,-2.29,-2.08,-2.65,2.18,2.18,2.19
122.33,4.43,4.43,2.31,2.31,-2.32,-2.11,-2.67,2.11,2.11,2.12
123.55,4.39,4.39,2.34,2.34,-2.34,-2.14,-2.68,2.05,2.05,2.05
124.79,4.35,4.35,2.36,2.36,-2.37,-2.17,-2.69,1.98,1.98,1.98
126.03,4.31,4.31,2.39,2.39,-2.39,-2.20,-2.70,1.92,1.92,1.92
127.29,4.27,4.27,2.42,2.42,-2.41,-2.23,-2.71,1.85,1.85,1.85
128.57,4.23,4.23,2.44,2.44,-2.44,-2.27,-2.71,1.79,1.79,1.79
129.85,4.18,4.18,2.45,2.46,-2.46,-2.30,-2.71,1.72,1.72,1.72
131.15,4.14,4.14,2.48,2.48,-2.48,-2.33,-2.70,1.66,1.66,1.66
132.46,4.09,4.09,2.49,2.49,-2.49,-2.35,-2.69,1.59,1.60,1.60
133.79,4.05,4.04,2.51,2.51,-2.51,-2.38,-2.68,1.54,1.54,1.54
135.12,4.00,4.00,2.52,2.52,-2.52,-2.41,-2.67,1.48,1.48,1.48
136.48,3.95,3.95,2.53,2.54,-2.53,-2.44,-2.65,1.41,1.42,1.42
137.84,3.91,3.90,2.55,2.55,-2.54,-2.47,-2.63,1.36,1.36,1.36
139.22,3.86,3.86,2.56,2.56,-2.56,-2.49,-2.61,1.30,1.30,1.30
140.61,3.81,3.81,2.56,2.57,-2.57,-2.52,-2.59,1.24,1.24,1.24
142.02,3.77,3.76,2.58,2.58,-2.58,-2.54,-2.57,1.19,1.18,1.19
143.44,3.72,3.72,2.58,2.59,-2.59,-2.57,-2.54,1.12,1.13,1.13
144.87,3.69,3.68,2.61,2.60,-2.60,-2.59,-2.52,1.08,1.08,1.08
146.32,3.65,3.65,2.62,2.62,-2.62,-2.61,-2.49,1.03,1.03,1.03
147.78,3.61,3.61,2.63,2.63,-2.63,-2.63,-2.47,0.98,0.98,0.98
149.26,3.57,3.57,2.64,2.64,-2.64,-2.65,-2.44,0.93,0.93,0.93
150.75,3.53,3.52,2.65,2.65,-2.65,-2.67,-2.42,0.88,0.87,0.88
152.26,3.48,3.48,2.65,2.66,-2.66,-2.69,-2.39,0.82,0.83,0.83
153.78,3.45,3.44,2.67,2.67,-2.66,-2.70,-2.36,0.78,0.78,0.78
155.32,3.41,3.41,2.67,2.67,-2.67,-2.72,-2.34,0.74,0.74,0.73
156.88,3.37,3.37,2.68,2.68,-2.67,-2.73,-2.31,0.69,0.69,0.69
158.44,3.33,3.32,2.68,2.68,-2.68,-2.74,-2.29,0.65,0.64,0.64
160.03,3.28,3.28,2.68,2.68,-2.69,-2.75,-2.27,0.59,0.59,0.60
161.63,3.24,3.24,2.69,2.68,-2.70,-2.76,-2.25,0.54,0.53,0.55
163.24,3.20,3.20,2.69,2.69,-2.71,-2.76,-2.23,0.49,0.49,0.51
164.88,3.17,3.18,2.70,2.71,-2.72,-2.77,-2.21,0.45,0.46,0.47
166.53,3.16,3.16,2.73,2.73,-2.72,-2.77,-2.19,0.44,0.44,0.43
168.19,3.14,3.13,2.75,2.74,-2.72,-2.77,-2.18,0.42,0.42,0.39
169.87,3.10,3.09,2.75,2.74,-2.71,-2.77,-2.16,0.39,0.38,0.35
171.57,3.03,3.03,2.71,2.71,-2.70,-2.77,-2.15,0.33,0.33,0.31
173.29,2.95,2.96,2.67,2.68,-2.68,-2.77,-2.14,0.26,0.27,0.28
175.02,2.89,2.89,2.64,2.65,-2.67,-2.76,-2.13,0.22,0.22,0.24
176.77,2.84,2.84,2.63,2.63,-2.65,-2.75,-2.12,0.19,0.19,0.21
178.54,2.80,2.80,2.62,2.62,-2.63,-2.75,-2.12,0.17,0.17,0.18
180.32,2.76,2.76,2.61,2.61,-2.61,-2.74,-2.11,0.15,0.15,0.15
182.13,2.72,2.72,2.60,2.60,-2.59,-2.72,-2.11,0.12,0.12,0.12
183.95,2.68,2.67,2.59,2.59,-2.58,-2.71,-2.11,0.10,0.09,0.09
185.79,2.63,2.63,2.57,2.57,-2.57,-2.69,-2.11,0.06,0.06,0.06
187.65,2.58,2.58,2.55,2.55,-2.55,-2.68,-2.11,0.02,0.03,0.03
189.52,2.54,2.53,2.54,2.53,-2.54,-2.66,-2.12,0.00,-0.00,0.00
191.42,2.49,2.49,2.51,2.52,-2.52,-2.64,-2.12,-0.03,-0.03,-0.03
193.33,2.45,2.45,2.50,2.50,-2.50,-2.62,-2.13,-0.05,-0.05,-0.05
195.27,2.41,2.40,2.48,2.48,-2.48,-2.60,-2.14,-0.07,-0.08,-0.08
197.22,2.36,2.36,2.46,2.46,-2.46,-2.57,-2.15,-0.10,-0.10,-0.10
199.19,2.32,2.32,2.44,2.44,-2.44,-2.55,-2.16,-0.12,-0.12,-0.12
201.18,2.28,2.27,2.43,2.42,-2.42,-2.52,-2.17,-0.14,-0.15,-0.15
203.19,2.23,2.23,2.40,2.40,-2.40,-2.50,-2.18,-0.17,-0.17,-0.17
205.23,2.19,2.19,2.38,2.38,-2.38,-2.47,-2.19,-0.19,-0.19,-0.19
207.28,2.15,2.15,2.36,2.36,-2.36,-2.44,-2.21,-0.21,-0.21,-0.21
209.35,2.11,2.11,2.34,2.34,-2.34,-2.41,-2.22,-0.23,-0.23,-0.23
211.44,2.07,2.06,2.32,2.32,-2.31,-2.38,-2.23,-0.25,-0.25,-0.25
213.56,2.02,2.02,2.29,2.29,-2.29,-2.35,-2.25,-0.27,-0.27,-0.27
215.69,1.98,1.98,2.27,2.27,-2.27,-2.32,-2.26,-0.29,-0.29,-0.29
217.85,1.94,1.94,2.24,2.24,-2.24,-2.29,-2.27,-0.31,-0.31,-0.31
220.03,1.90,1.90,2.22,2.22,-2.22,-2.26,-2.29,-0.32,-0.32,-0.32
222.23,1.86,1.86,2.20,2.20,-2.20,-2.22,-2.30,-0.34,-0.34,-0.34
224.45,1.82,1.82,2.17,2.17,-2.17,-2.19,-2.31,-0.35,-0.35,-0.36
226.70,1.78,1.78,2.15,2.15,-2.15,-2.16,-2.32,-0.37,-0.37,-0.37
228.96,1.74,1.74,2.12,2.12,-2.12,-2.12,-2.33,-0.39,-0.39,-0.39
231.25,1.70,1.70,2.10,2.10,-2.10,-2.09,-2.33,-0.40,-0.40,-0.40
233.57,1.66,1.66,2.07,2.08,-2.08,-2.05,-2.33,-0.42,-0.42,-0.41
235.90,1.62,1.62,2.06,2.05,-2.05,-2.02,-2.34,-0.43,-0.44,-0.44
238.26,1.58,1.58,2.03,2.03,-2.03,-1.98,-2.33,-0.45,-0.45,-0.45
240.64,1.54,1.54,2.00,2.01,-2.00,-1.95,-2.33,-0.47,-0.46,-0.46
243.05,1.51,1.50,1.98,1.98,-1.98,-1.91,-2.32,-0.47,-0.48,-0.48
245.48,1.47,1.47,1.96,1.96,-1.96,-1.88,-2.31,-0.49,-0.49,-0.49
247.93,1.43,1.43,1.93,1.93,-1.93,-1.84,-2.30,-0.50,-0.50,-0.50
250.41,1.40,1.39,1.91,1.90,-1.91,-1.81,-2.29,-0.51,-0.51,-0.51
252.92,1.36,1.36,1.88,1.88,-1.88,-1.77,-2.27,-0.52,-0.52,-0.52
255.45,1.33,1.32,1.86,1.86,-1.85,-1.74,-2.25,-0.53,-0.53,-0.53
258.00,1.29,1.29,1.83,1.83,-1.83,-1.71,-2.23,-0.54,-0.54,-0.54
260.58,1.25,1.25,1.80,1.80,-1.80,-1.67,-2.20,-0.55,-0.55,-0.55
263.19,1.22,1.21,1.78,1.77,-1.77,-1.64,-2.17,-0.56,-0.56,-0.56
265.82,1.18,1.18,1.75,1.75,-1.75,-1.60,-2.14,-0.57,-0.57,-0.57
268.48,1.14,1.14,1.71,1.72,-1.72,-1.57,-2.10,-0.58,-0.58,-0.58
271.16,1.11,1.10,1.69,1.69,-1.69,-1.54,-2.06,-0.58,-0.59,-0.58
273.87,1.07,1.07,1.66,1.66,-1.66,-1.50,-2.02,-0.60,-0.59,-0.59
276.61,1.04,1.04,1.64,1.64,-1.63,-1.47,-1.98,-0.60,-0.60,-0.60
279.38,1.00,1.00,1.61,1.61,-1.60,-1.44,-1.94,-0.61,-0.61,-0.61
282.17,0.97,0.97,1.58,1.58,-1.57,-1.41,-1.89,-0.61,-0.61,-0.62
284.99,0.93,0.93,1.54,1.54,-1.54,-1.38,-1.85,-0.61,-0.61,-0.61
287.84,0.90,0.90,1.51,1.51,-1.51,-1.35,-1.80,-0.61,-0.61,-0.61
290.72,0.86,0.86,1.47,1.47,-1.48,-1.31,-1.75,-0.62,-0.62,-0.61
293.63,0.83,0.83,1.45,1.44,-1.44,-1.28,-1.70,-0.61,-0.62,-0.62
296.57,0.79,0.79,1.40,1.41,-1.41,-1.25,-1.65,-0.62,-0.62,-0.62
299.53,0.76,0.75,1.37,1.37,-1.37,-1.22,-1.60,-0.61,-0.62,-0.61
302.53,0.72,0.72,1.34,1.34,-1.34,-1.19,-1.54,-0.62,-0.62,-0.62
305.55,0.69,0.69,1.30,1.30,-1.30,-1.16,-1.49,-0.62,-0.62,-0.61
308.61,0.66,0.65,1.28,1.27,-1.27,-1.14,-1.44,-0.61,-0.62,-0.62
311.69,0.62,0.62,1.23,1.24,-1.24,-1.11,-1.39,-0.62,-0.61,-0.61
314.81,0.59,0.59,1.21,1.20,-1.20,-1.08,-1.33,-0.61,-0.61,-0.62
317.96,0.56,0.55,1.17,1.17,-1.17,-1.05,-1.28,-0.61,-0.62,-0.61
321.14,0.52,0.52,1.14,1.14,-1.14,-1.02,-1.23,-0.62,-0.61,-0.62
324.35,0.49,0.49,1.10,1.10,-1.10,-1.00,-1.18,-0.61,-0.61,-0.61
327.59,0.46,0.46,1.06,1.07,-1.07,-0.97,-1.13,-0.61,-0.61,-0.61
330.87,0.43,0.43,1.04,1.03,-1.04,-0.94,-1.08,-0.61,-0.61,-0.61
334.18,0.40,0.40,1.00,1.00,-1.00,-0.92,-1.03,-0.61,-0.61,-0.60
337.52,0.37,0.37,0.98,0.97,-0.97,-0.89,-0.98,-0.60,-0.60,-0.61
340.90,0.34,0.34,0.94,0.94,-0.94,-0.86,-0.93,-0.60,-0.60,-0.60
344.30,0.31,0.31,0.90,0.90,-0.90,-0.84,-0.88,-0.59,-0.59,-0.59
347.75,0.28,0.28,0.87,0.87,-0.87,-0.81,-0.83,-0.59,-0.59,-0.59
351.23,0.25,0.25,0.84,0.83,-0.83,-0.79,-0.78,-0.59,-0.59,-0.59
354.74,0.22,0.22,0.79,0.80,-0.80,-0.76,-0.73,-0.58,-0.58,-0.57
358.28,0.19,0.19,0.76,0.76,-0.76,-0.74,-0.69,-0.57,-0.57,-0.58
361.87,0.16,0.16,0.73,0.73,-0.73,-0.71,-0.64,-0.57,-0.57,-0.57
365.49,0.13,0.13,0.69,0.69,-0.69,-0.69,-0.59,-0.56,-0.56,-0.56
369.14,0.10,0.10,0.66,0.66,-0.66,-0.67,-0.55,-0.56,-0.56,-0.57
372.83,0.07,0.07,0.62,0.62,-0.62,-0.64,-0.50,-0.56,-0.56,-0.55
376.56,0.04,0.04,0.59,0.59,-0.59,-0.62,-0.46,-0.55,-0.55,-0.55
380.33,0.02,0.01,0.56,0.56,-0.56,-0.59,-0.42,-0.54,-0.54,-0.54
384.13,-0.01,-0.01,0.53,0.53,-0.52,-0.57,-0.37,-0.54,-0.54,-0.54
387.97,-0.04,-0.04,0.49,0.50,-0.49,-0.55,-0.33,-0.53,-0.53,-0.54
391.85,-0.06,-0.07,0.46,0.46,-0.46,-0.52,-0.29,-0.52,-0.53,-0.52
395.77,-0.09,-0.09,0.43,0.42,-0.43,-0.50,-0.25,-0.52,-0.52,-0.52
399.73,-0.12,-0.12,0.39,0.39,-0.40,-0.48,-0.21,-0.52,-0.52,-0.51
403.72,-0.14,-0.15,0.36,0.36,-0.36,-0.45,-0.17,-0.51,-0.51,-0.51
407.76,-0.17,-0.17,0.33,0.33,-0.33,-0.43,-0.13,-0.51,-0.50,-0.51
411.84,-0.19,-0.19,0.31,0.30,-0.30,-0.41,-0.09,-0.50,-0.50,-0.50
415.96,-0.22,-0.22,0.27,0.27,-0.27,-0.38,-0.05,-0.49,-0.49,-0.49
420.12,-0.24,-0.24,0.25,0.24,-0.24,-0.36,-0.02,-0.49,-0.49,-0.49
424.32,-0.27,-0.27,0.21,0.21,-0.21,-0.34,0.02,-0.48,-0.48,-0.48
428.56,-0.29,-0.29,0.18,0.18,-0.18,-0.31,0.05,-0.47,-0.48,-0.48
432.85,-0.32,-0.32,0.14,0.15,-0.15,-0.29,0.09,-0.47,-0.47,-0.47
437.18,-0.34,-0.35,0.13,0.12,-0.12,-0.27,0.12,-0.46,-0.46,-0.47
441.55,-0.37,-0.37,0.09,0.09,-0.09,-0.24,0.15,-0.46,-0.46,-0.46
445.96,-0.39,-0.39,0.06,0.06,-0.06,-0.22,0.19,-0.45,-0.45,-0.45
450.42,-0.41,-0.41,0.02,0.02,-0.02,-0.19,0.22,-0.44,-0.44,-0.43
454.93,-0.43,-0.43,-0.01,-0.01,0.01,-0.17,0.25,-0.43,-0.43,-0.42
459.48,-0.45,-0.46,-0.04,-0.04,0.04,-0.14,0.27,-0.42,-0.42,-0.41
464.07,-0.48,-0.48,-0.07,-0.07,0.07,-0.12,0.30,-0.42,-0.41,-0.42
468.71,-0.50,-0.50,-0.10,-0.10,0.10,-0.09,0.33,-0.41,-0.41,-0.41
473.40,-0.52,-0.52,-0.12,-0.12,0.13,-0.07,0.35,-0.40,-0.40,-0.40
478.13,-0.54,-0.54,-0.15,-0.15,0.15,-0.04,0.37,-0.39,-0.39,-0.39
482.91,-0.56,-0.56,-0.18,-0.18,0.18,-0.01,0.39,-0.38,-0.38,-0.38
487.74,-0.58,-0.58,-0.21,-0.21,0.21,0.02,0.41,-0.37,-0.37,-0.37
492.62,-0.60,-0.60,-0.24,-0.24,0.24,0.04,0.43,-0.36,-0.36,-0.36
497.55,-0.62,-0.62,-0.27,-0.27,0.27,0.07,0.45,-0.35,-0.35,-0.35
502.52,-0.64,-0.64,-0.30,-0.30,0.30,0.10,0.46,-0.34,-0.34,-0.34
507.55,-0.66,-0.66,-0.34,-0.34,0.33,0.13,0.48,-0.33,-0.33,-0.32
512.62,-0.68,-0.68,-0.37,-0.37,0.36,0.16,0.49,-0.32,-0.32,-0.31
517.75,-0.70,-0.70,-0.40,-0.39,0.39,0.19,0.50,-0.31,-0.31,-0.31
