frequency,raw,error,smoothed,error_smoothed,equalization,parametric_eq,fixed_band_eq,equalized_raw,equalized_smoothed,target
20.00,-3.11,-8.05,-3.12,-8.06,6.00,5.85,2.54,2.89,2.88,4.94
20.20,-3.10,-8.05,-3.08,-8.02,6.00,5.83,2.61,2.90,2.92,4.95
20.40,-3.03,-7.98,-3.02,-7.98,6.00,5.81,2.69,2.97,2.98,4.96
20.61,-2.96,-7.93,-2.96,-7.92,6.00,5.79,2.77,3.04,3.04,4.97
20.81,-2.88,-7.84,-2.88,-7.85,6.00,5.77,2.85,3.12,3.12,4.97
21.02,-2.81,-7.78,-2.81,-7.79,6.00,5.76,2.93,3.19,3.19,4.98
21.23,-2.74,-7.72,-2.74,-7.72,6.00,5.74,3.01,3.26,3.26,4.99
21.44,-2.67,-7.67,-2.66,-7.66,6.00,5.72,3.10,3.33,3.34,5.01
21.66,-2.59,-7.59,-2.59,-7.60,6.00,5.70,3.19,3.41,3.41,5.01
21.87,-2.52,-7.53,-2.52,-7.53,6.00,5.69,3.28,3.48,3.48,5.01
22.09,-2.45,-7.46,-2.44,-7.46,6.00,5.67,3.38,3.55,3.56,5.01
22.31,-2.37,-7.39,-2.37,-7.39,6.00,5.66,3.48,3.63,3.63,5.02
22.54,-2.30,-7.32,-2.30,-7.32,6.00,5.65,3.58,3.70,3.70,5.02
22.76,-2.23,-7.26,-2.22,-7.25,6.00,5.64,3.68,3.77,3.78,5.03
22.99,-2.15,-7.18,-2.16,-7.19,6.00,5.63,3.78,3.85,3.84,5.03
23.22,-2.09,-7.12,-2.09,-7.12,6.00,5.62,3.89,3.91,3.91,5.03
23.45,-2.03,-7.07,-2.02,-7.06,6.00,5.61,4.00,3.97,3.98,5.04
23.69,-1.95,-6.99,-1.95,-6.99,6.00,5.61,4.12,4.05,4.05,5.04
23.92,-1.88,-6.92,-1.88,-6.92,6.00,5.61,4.23,4.12,4.12,5.04
24.16,-1.81,-6.86,-1.80,-6.85,6.00,5.62,4.35,4.19,4.20,5.05
24.40,-1.73,-6.79,-1.73,-6.78,6.00,5.63,4.46,4.27,4.27,5.06
24.65,-1.66,-6.72,-1.66,-6.72,6.00,5.65,4.59,4.34,4.34,5.06
24.89,-1.59,-6.64,-1.59,-6.65,6.00,5.67,4.71,4.41,4.41,5.06
25.14,-1.53,-6.58,-1.52,-6.58,6.00,5.70,4.83,4.47,4.48,5.06
25.39,-1.46,-6.51,-1.46,-6.51,6.00,5.73,4.95,4.54,4.54,5.06
25.65,-1.39,-6.44,-1.39,-6.44,6.00,5.77,5.08,4.61,4.61,5.05
25.91,-1.32,-6.37,-1.32,-6.38,6.00,5.82,5.20,4.69,4.69,5.05
26.16,-1.25,-6.31,-1.25,-6.31,6.01,5.88,5.33,4.76,4.76,5.06
26.43,-1.19,-6.25,-1.19,-6.25,6.01,5.94,5.45,4.82,4.83,5.06
26.69,-1.12,-6.18,-1.12,-6.19,6.01,6.01,5.57,4.89,4.89,5.06
26.96,-1.07,-6.13,-1.06,-6.12,6.00,6.08,5.69,4.93,4.94,5.06
27.23,-1.00,-6.06,-1.00,-6.06,5.98,6.14,5.81,4.99,4.98,5.06
27.50,-0.94,-6.00,-0.94,-6.00,5.96,6.19,5.93,5.02,5.02,5.06
27.77,-0.88,-5.94,-0.88,-5.94,5.92,6.20,6.04,5.05,5.05,5.07
28.05,-0.82,-5.88,-0.82,-5.88,5.88,6.20,6.14,5.06,5.06,5.07
28.33,-0.76,-5.82,-0.76,-5.82,5.83,6.15,6.24,5.08,5.08,5.06
28.62,-0.70,-5.76,-0.70,-5.76,5.78,6.09,6.34,5.08,5.08,5.06
28.90,-0.64,-5.71,-0.64,-5.71,5.72,5.98,6.42,5.08,5.08,5.07
29.19,-0.59,-5.66,-0.58,-5.65,5.66,5.87,6.50,5.07,5.07,5.07
29.48,-0.53,-5.60,-0.53,-5.60,5.60,5.74,6.57,5.07,5.07,5.07
29.78,-0.47,-5.54,-0.47,-5.54,5.54,5.61,6.63,5.07,5.07,5.07
30.08,-0.42,-5.49,-0.42,-5.49,5.49,5.47,6.67,5.07,5.07,5.08
30.38,-0.38,-5.44,-0.37,-5.43,5.43,5.34,6.71,5.05,5.06,5.06
30.68,-0.31,-5.37,-0.31,-5.38,5.37,5.22,6.74,5.07,5.06,5.06
30.99,-0.25,-5.31,-0.26,-5.32,5.32,5.10,6.75,5.07,5.06,5.06
31.30,-0.21,-5.27,-0.20,-5.26,5.26,5.00,6.75,5.05,5.06,5.06
31.61,-0.15,-5.20,-0.15,-5.20,5.20,4.89,6.75,5.05,5.06,5.06
31.93,-0.09,-5.13,-0.09,-5.14,5.14,4.80,6.72,5.06,5.05,5.04
32.24,-0.03,-5.08,-0.04,-5.08,5.09,4.71,6.69,5.06,5.05,5.05
32.57,0.01,-5.03,0.01,-5.03,5.03,4.63,6.64,5.04,5.04,5.04
32.89,0.05,-4.98,0.06,-4.98,4.97,4.56,6.59,5.03,5.03,5.04
33.22,0.11,-4.92,0.11,-4.93,4.92,4.49,6.52,5.03,5.03,5.04
33.55,0.16,-4.87,0.17,-4.87,4.87,4.42,6.45,5.03,5.03,5.03
33.89,0.22,-4.81,0.22,-4.81,4.81,4.35,6.36,5.03,5.03,5.03
34.23,0.27,-4.75,0.27,-4.75,4.76,4.29,6.27,5.03,5.02,5.02
34.57,0.31,-4.70,0.32,-4.70,4.70,4.23,6.17,5.01,5.02,5.01
34.92,0.36,-4.64,0.36,-4.64,4.64,4.17,6.07,5.01,5.01,5.00
35.27,0.41,-4.60,0.41,-4.59,4.59,4.12,5.96,5.00,5.00,5.01
35.62,0.46,-4.52,0.46,-4.53,4.53,4.06,5.84,4.99,4.99,4.99
35.97,0.50,-4.48,0.51,-4.47,4.47,4.01,5.72,4.97,4.98,4.98
36.33,0.56,-4.41,0.56,-4.41,4.41,3.96,5.60,4.97,4.97,4.97
36.70,0.60,-4.35,0.60,-4.35,4.35,3.91,5.48,4.95,4.95,4.96
37.06,0.65,-4.29,0.66,-4.29,4.29,3.86,5.35,4.94,4.95,4.94
37.43,0.70,-4.22,0.70,-4.23,4.23,3.81,5.22,4.93,4.93,4.93
37.81,0.75,-4.16,0.75,-4.17,4.17,3.76,5.09,4.92,4.92,4.91
38.19,0.78,-4.12,0.79,-4.11,4.11,3.71,4.96,4.90,4.90,4.90
38.57,0.83,-4.05,0.83,-4.06,4.06,3.67,4.83,4.89,4.88,4.89
38.95,0.86,-4.01,0.87,-4.00,4.00,3.62,4.71,4.86,4.87,4.87
39.34,0.91,-3.93,0.91,-3.94,3.94,3.57,4.58,4.85,4.85,4.85
39.74,0.94,-3.89,0.95,-3.89,3.89,3.52,4.45,4.83,4.83,4.83
40.14,0.99,-3.83,0.99,-3.83,3.83,3.48,4.33,4.82,4.81,4.82
40.54,1.02,-3.78,1.03,-3.77,3.77,3.43,4.21,4.79,4.80,4.80
40.94,1.07,-3.70,1.07,-3.71,3.71,3.38,4.09,4.78,4.78,4.78
41.35,1.11,-3.65,1.11,-3.65,3.65,3.34,3.97,4.76,4.76,4.76
41.76,1.14,-3.59,1.15,-3.59,3.59,3.29,3.85,4.73,4.74,4.73
42.18,1.19,-3.53,1.19,-3.53,3.53,3.24,3.74,4.72,4.71,4.72
42.60,1.22,-3.47,1.23,-3.46,3.46,3.20,3.63,4.69,4.69,4.69
43.03,1.27,-3.39,1.27,-3.40,3.40,3.15,3.52,4.67,4.67,4.67
43.46,1.30,-3.34,1.30,-3.34,3.34,3.10,3.41,4.64,4.64,4.64
43.90,1.33,-3.28,1.34,-3.27,3.28,3.06,3.31,4.61,4.62,4.61
44.33,1.38,-3.20,1.38,-3.21,3.21,3.01,3.20,4.59,4.59,4.58
44.78,1.41,-3.14,1.41,-3.15,3.15,2.96,3.10,4.56,4.56,4.56
45.23,1.44,-3.10,1.45,-3.09,3.08,2.91,3.01,4.53,4.53,4.54
45.68,1.47,-3.03,1.48,-3.02,3.02,2.87,2.91,4.49,4.50,4.50
46.13,1.52,-2.94,1.52,-2.95,2.95,2.82,2.82,4.48,4.47,4.46
46.60,1.55,-2.88,1.55,-2.88,2.89,2.77,2.73,4.44,4.44,4.43
47.06,1.58,-2.82,1.58,-2.82,2.82,2.72,2.64,4.40,4.40,4.40
47.53,1.61,-2.76,1.61,-2.76,2.75,2.67,2.56,4.36,4.36,4.37
48.01,1.64,-2.68,1.65,-2.68,2.68,2.62,2.48,4.32,4.33,4.32
48.49,1.68,-2.61,1.68,-2.61,2.61,2.57,2.39,4.29,4.29,4.29
48.97,1.72,-2.53,1.72,-2.54,2.54,2.52,2.32,4.26,4.26,4.25
49.46,1.75,-2.47,1.75,-2.46,2.47,2.47,2.24,4.22,4.22,4.22
49.96,1.78,-2.39,1.78,-2.39,2.40,2.42,2.16,4.18,4.18,4.17
50.46,1.81,-2.33,1.82,-2.33,2.33,2.37,2.09,4.14,4.14,4.14
50.96,1.85,-2.26,1.84,-2.26,2.26,2.31,2.02,4.11,4.11,4.11
51.47,1.87,-2.20,1.88,-2.19,2.20,2.26,1.95,4.07,4.07,4.07
51.99,1.90,-2.13,1.91,-2.13,2.13,2.21,1.88,4.03,4.04,4.03
52.51,1.94,-2.06,1.93,-2.07,2.06,2.15,1.82,4.00,4.00,4.00
53.03,1.96,-2.01,1.97,-2.00,2.00,2.10,1.75,3.96,3.96,3.97
53.56,1.99,-1.94,2.00,-1.93,1.93,2.04,1.69,3.92,3.93,3.93
54.10,2.03,-1.85,2.02,-1.87,1.86,1.98,1.63,3.90,3.89,3.88
54.64,2.05,-1.80,2.05,-1.79,1.80,1.93,1.57,3.85,3.85,3.85
55.18,2.07,-1.73,2.08,-1.73,1.73,1.87,1.51,3.80,3.81,3.80
55.74,2.11,-1.65,2.10,-1.67,1.67,1.81,1.45,3.78,3.77,3.77
56.29,2.12,-1.62,2.13,-1.61,1.61,1.75,1.40,3.73,3.74,3.74
56.86,2.16,-1.55,2.16,-1.55,1.55,1.69,1.34,3.71,3.71,3.71
57.42,2.18,-1.48,2.18,-1.49,1.49,1.63,1.29,3.67,3.68,3.66
58.00,2.20,-1.43,2.21,-1.43,1.44,1.56,1.23,3.64,3.64,3.63
58.58,2.24,-1.37,2.23,-1.38,1.38,1.50,1.18,3.62,3.61,3.61
59.16,2.24,-1.34,2.26,-1.33,1.32,1.44,1.13,3.56,3.58,3.58
59.76,2.29,-1.26,2.28,-1.27,1.26,1.37,1.08,3.55,3.54,3.55
60.35,2.29,-1.21,2.30,-1.21,1.20,1.31,1.03,3.49,3.49,3.50
60.96,2.33,-1.13,2.33,-1.13,1.13,1.24,0.98,3.46,3.46,3.46
61.57,2.33,-1.07,2.34,-1.07,1.06,1.18,0.93,3.40,3.40,3.41
62.18,2.37,-0.98,2.36,-0.99,1.00,1.11,0.89,3.37,3.36,3.35
62.80,2.37,-0.94,2.38,-0.93,0.93,1.04,0.84,3.31,3.32,3.31
63.43,2.41,-0.85,2.41,-0.86,0.87,0.97,0.79,3.28,3.27,3.26
64.07,2.42,-0.81,2.42,-0.80,0.81,0.90,0.75,3.23,3.23,3.23
64.71,2.44,-0.75,2.44,-0.75,0.75,0.84,0.70,3.19,3.19,3.19
65.35,2.46,-0.69,2.46,-0.70,0.69,0.77,0.66,3.15,3.15,3.15
66.01,2.47,-0.64,2.48,-0.64,0.64,0.70,0.61,3.11,3.11,3.12
66.67,2.50,-0.58,2.49,-0.59,0.58,0.63,0.57,3.08,3.08,3.09
67.33,2.50,-0.53,2.52,-0.52,0.52,0.57,0.52,3.03,3.04,3.04
68.01,2.54,-0.45,2.53,-0.47,0.47,0.50,0.48,3.01,3.00,3.00
68.69,2.55,-0.40,2.55,-0.41,0.41,0.43,0.43,2.96,2.96,2.96
69.37,2.55,-0.37,2.57,-0.35,0.35,0.37,0.39,2.91,2.92,2.92
70.07,2.59,-0.29,2.58,-0.30,0.29,0.31,0.35,2.89,2.87,2.88
70.77,2.59,-0.24,2.60,-0.24,0.23,0.25,0.30,2.83,2.83,2.84
71.48,2.61,-0.18,2.61,-0.18,0.17,0.19,0.26,2.79,2.79,2.79
72.19,2.63,-0.11,2.62,-0.12,0.12,0.13,0.22,2.75,2.74,2.75
72.91,2.63,-0.07,2.64,-0.05,0.06,0.07,0.17,2.69,2.70,2.70
73.64,2.66,0.01,2.66,0.01,0.00,0.02,0.13,2.67,2.66,2.65
74.38,2.68,0.07,2.67,0.06,-0.05,-0.04,0.09,2.63,2.62,2.61
75.12,2.68,0.11,2.69,0.11,-0.11,-0.09,0.04,2.58,2.58,2.58
75.87,2.68,0.14,2.70,0.16,-0.16,-0.14,-0.00,2.53,2.54,2.55
76.63,2.72,0.22,2.71,0.20,-0.21,-0.19,-0.05,2.52,2.50,2.50
77.40,2.72,0.25,2.72,0.25,-0.25,-0.23,-0.09,2.47,2.47,2.47
78.17,2.72,0.29,2.74,0.30,-0.30,-0.28,-0.13,2.43,2.44,2.43
78.95,2.76,0.35,2.75,0.34,-0.34,-0.33,-0.18,2.42,2.41,2.41
79.74,2.76,0.39,2.76,0.38,-0.39,-0.37,-0.22,2.38,2.37,2.37
80.54,2.76,0.42,2.77,0.43,-0.43,-0.42,-0.27,2.33,2.34,2.34
81.35,2.76,0.46,2.78,0.47,-0.48,-0.46,-0.32,2.28,2.30,2.30
82.16,2.81,0.54,2.80,0.52,-0.52,-0.50,-0.36,2.29,2.27,2.28
82.98,2.81,0.57,2.81,0.57,-0.57,-0.55,-0.41,2.24,2.24,2.24
83.81,2.81,0.61,2.82,0.62,-0.61,-0.59,-0.46,2.20,2.20,2.20
84.65,2.81,0.65,2.82,0.66,-0.66,-0.63,-0.51,2.15,2.16,2.16
85.50,2.83,0.71,2.83,0.71,-0.70,-0.68,-0.55,2.13,2.13,2.12
86.35,2.85,0.76,2.84,0.75,-0.75,-0.72,-0.60,2.10,2.10,2.09
87.22,2.85,0.79,2.85,0.79,-0.80,-0.77,-0.65,2.06,2.05,2.06
88.09,2.85,0.83,2.86,0.83,-0.84,-0.81,-0.70,2.01,2.02,2.02
88.97,2.85,0.86,2.87,0.88,-0.89,-0.85,-0.75,1.97,1.98,1.99
89.86,2.89,0.95,2.88,0.93,-0.93,-0.90,-0.81,1.96,1.95,1.95
90.76,2.89,0.98,2.89,0.98,-0.97,-0.95,-0.86,1.92,1.92,1.91
91.66,2.89,1.02,2.90,1.03,-1.01,-0.99,-0.91,1.88,1.88,1.87
92.58,2.89,1.06,2.89,1.06,-1.06,-1.04,-0.96,1.84,1.84,1.83
93.51,2.89,1.09,2.89,1.09,-1.10,-1.08,-1.02,1.79,1.79,1.80
94.44,2.89,1.13,2.89,1.13,-1.14,-1.13,-1.07,1.75,1.75,1.76
95.39,2.89,1.18,2.89,1.17,-1.18,-1.18,-1.13,1.71,1.71,1.72
96.34,2.89,1.22,2.89,1.22,-1.22,-1.22,-1.18,1.67,1.67,1.67
97.30,2.89,1.26,2.89,1.26,-1.26,-1.27,-1.24,1.63,1.63,1.63
98.28,2.89,1.30,2.89,1.31,-1.30,-1.32,-1.30,1.59,1.59,1.59
99.26,2.89,1.35,2.89,1.35,-1.34,-1.36,-1.35,1.55,1.55,1.54
100.25,2.89,1.39,2.89,1.38,-1.38,-1.41,-1.41,1.51,1.51,1.50
101.25,2.89,1.42,2.89,1.42,-1.42,-1.46,-1.47,1.47,1.47,1.48
102.27,2.89,1.45,2.90,1.46,-1.46,-1.50,-1.53,1.43,1.44,1.44
103.29,2.91,1.51,2.91,1.50,-1.50,-1.55,-1.58,1.41,1.41,1.40
104.32,2.91,1.54,2.91,1.54,-1.54,-1.59,-1.64,1.38,1.37,1.37
105.37,2.91,1.58,2.91,1.58,-1.58,-1.64,-1.70,1.34,1.34,1.33
106.42,2.91,1.61,2.91,1.61,-1.62,-1.68,-1.75,1.30,1.29,1.31
107.48,2.91,1.65,2.91,1.65,-1.66,-1.72,-1.81,1.26,1.26,1.26
108.56,2.91,1.68,2.92,1.69,-1.70,-1.77,-1.86,1.22,1.23,1.23
109.64,2.94,1.75,2.93,1.74,-1.74,-1.81,-1.92,1.21,1.20,1.19
110.74,2.94,1.79,2.94,1.78,-1.78,-1.85,-1.97,1.16,1.16,1.16
111.85,2.94,1.82,2.95,1.83,-1.82,-1.89,-2.02,1.12,1.13,1.12
112.97,2.94,1.86,2.94,1.86,-1.86,-1.92,-2.07,1.08,1.08,1.08
114.10,2.94,1.90,2.94,1.90,-1.90,-1.96,-2.12,1.04,1.04,1.05
115.24,2.94,1.94,2.94,1.94,-1.95,-2.00,-2.17,1.00,1.00,1.00
116.39,2.94,1.99,2.94,1.99,-1.99,-2.03,-2.21,0.96,0.96,0.95
117.55,2.94,2.02,2.94,2.03,-2.03,-2.07,-2.25,0.92,0.91,0.92
118.73,2.94,2.07,2.94,2.07,-2.07,-2.10,-2.29,0.88,0.88,0.87
119.92,2.94,2.10,2.95,2.10,-2.11,-2.13,-2.33,0.84,0.84,0.84
121.12,2.95,2.14,2.95,2.15,-2.14,-2.16,-2.37,0.81,0.81,0.81
122.33,2.96,2.19,2.96,2.19,-2.18,-2.19,-2.40,0.78,0.78,0.77
123.55,2.96,2.22,2.96,2.22,-2.22,-2.22,-2.43,0.74,0.74,0.74
124.79,2.96,2.26,2.96,2.26,-2.25,-2.25,-2.45,0.71,0.70,0.70
126.03,2.94,2.28,2.95,2.29,-2.29,-2.27,-2.48,0.65,0.66,0.66
127.29,2.94,2.32,2.94,2.32,-2.33,-2.30,-2.49,0.61,0.61,0.62
128.57,2.94,2.36,2.94,2.36,-2.37,-2.32,-2.51,0.58,0.57,0.58
129.85,2.94,2.40,2.94,2.40,-2.40,-2.35,-2.53,0.54,0.54,0.54
131.15,2.94,2.44,2.94,2.44,-2.44,-2.37,-2.54,0.51,0.51,0.50
132.46,2.94,2.48,2.95,2.48,-2.47,-2.39,-2.55,0.47,0.48,0.46
133.79,2.94,2.52,2.94,2.52,-2.50,-2.41,-2.56,0.44,0.44,0.43
135.12,2.94,2.55,2.93,2.54,-2.53,-2.43,-2.56,0.41,0.40,0.39
136.48,2.91,2.55,2.92,2.56,-2.56,-2.46,-2.57,0.35,0.35,0.36
137.84,2.89,2.56,2.90,2.57,-2.59,-2.48,-2.57,0.31,0.31,0.33
139.22,2.89,2.61,2.89,2.60,-2.61,-2.50,-2.57,0.28,0.28,0.29
140.61,2.89,2.63,2.89,2.64,-2.63,-2.52,-2.57,0.26,0.26,0.26
142.02,2.89,2.66,2.89,2.66,-2.65,-2.54,-2.57,0.24,0.24,0.23
143.44,2.89,2.70,2.88,2.68,-2.67,-2.57,-2.57,0.22,0.21,0.20
144.87,2.85,2.68,2.87,2.69,-2.70,-2.59,-2.57,0.16,0.17,0.18
146.32,2.85,2.71,2.85,2.71,-2.72,-2.62,-2.57,0.14,0.14,0.15
147.78,2.85,2.74,2.85,2.74,-2.74,-2.64,-2.57,0.11,0.11,0.12
149.26,2.85,2.76,2.85,2.76,-2.76,-2.67,-2.57,0.09,0.09,0.09
150.75,2.85,2.80,2.84,2.78,-2.78,-2.69,-2.57,0.08,0.06,0.05
152.26,2.81,2.78,2.83,2.80,-2.80,-2.72,-2.57,0.02,0.03,0.03
153.78,2.81,2.81,2.82,2.82,-2.82,-2.75,-2.57,-0.01,-0.00,-0.00
155.32,2.81,2.84,2.81,2.84,-2.84,-2.78,-2.57,-0.03,-0.03,-0.03
156.88,2.81,2.87,2.80,2.87,-2.86,-2.81,-2.57,-0.05,-0.06,-0.06
158.44,2.79,2.89,2.79,2.88,-2.88,-2.84,-2.58,-0.09,-0.09,-0.09
160.03,2.76,2.89,2.77,2.90,-2.90,-2.88,-2.58,-0.14,-0.13,-0.13
161.63,2.76,2.92,2.77,2.93,-2.93,-2.91,-2.59,-0.17,-0.16,-0.16
163.24,2.76,2.96,2.76,2.95,-2.95,-2.94,-2.60,-0.19,-0.19,-0.20
164.88,2.76,2.99,2.75,2.98,-2.98,-2.97,-2.61,-0.21,-0.23,-0.23
166.53,2.72,2.99,2.74,3.00,-3.00,-3.01,-2.62,-0.28,-0.27,-0.27
168.19,2.72,3.02,2.73,3.03,-3.03,-3.04,-2.64,-0.30,-0.30,-0.30
169.87,2.72,3.06,2.72,3.05,-3.05,-3.07,-2.65,-0.33,-0.34,-0.33
171.57,2.72,3.09,2.71,3.08,-3.08,-3.10,-2.67,-0.35,-0.37,-0.37
173.29,2.68,3.09,2.70,3.10,-3.10,-3.13,-2.69,-0.42,-0.40,-0.41
175.02,2.68,3.12,2.69,3.13,-3.12,-3.16,-2.72,-0.44,-0.44,-0.44
176.77,2.68,3.16,2.67,3.15,-3.15,-3.19,-2.74,-0.47,-0.48,-0.48
178.54,2.66,3.17,2.66,3.17,-3.17,-3.22,-2.77,-0.51,-0.51,-0.51
180.32,2.63,3.19,2.65,3.19,-3.20,-3.24,-2.80,-0.56,-0.55,-0.55
182.13,2.63,3.22,2.63,3.22,-3.22,-3.27,-2.83,-0.59,-0.59,-0.59
183.95,2.63,3.25,2.62,3.24,-3.24,-3.29,-2.87,-0.61,-0.62,-0.62
185.79,2.61,3.27,2.61,3.27,-3.27,-3.32,-2.90,-0.65,-0.65,-0.66
187.65,2.59,3.28,2.60,3.29,-3.29,-3.34,-2.94,-0.70,-0.69,-0.69
189.52,2.59,3.32,2.59,3.32,-3.32,-3.36,-2.98,-0.73,-0.73,-0.73
191.42,2.59,3.35,2.58,3.34,-3.34,-3.38,-3.02,-0.75,-0.77,-0.76
193.33,2.55,3.35,2.57,3.36,-3.37,-3.39,-3.07,-0.81,-0.80,-0.80
195.27,2.55,3.39,2.56,3.39,-3.39,-3.41,-3.11,-0.84,-0.83,-0.83
197.22,2.55,3.42,2.55,3.42,-3.41,-3.43,-3.16,-0.86,-0.87,-0.87
199.19,2.55,3.45,2.54,3.44,-3.43,-3.44,-3.21,-0.88,-0.90,-0.90
201.18,2.50,3.44,2.52,3.45,-3.45,-3.45,-3.26,-0.95,-0.93,-0.93
203.19,2.50,3.46,2.51,3.47,-3.47,-3.46,-3.31,-0.97,-0.96,-0.96
205.23,2.50,3.49,2.50,3.48,-3.49,-3.47,-3.36,-0.98,-0.99,-0.99
207.28,2.50,3.51,2.49,3.50,-3.50,-3.48,-3.41,-1.00,-1.01,-1.01
209.35,2.46,3.51,2.48,3.52,-3.51,-3.49,-3.47,-1.05,-1.04,-1.04
211.44,2.46,3.53,2.46,3.53,-3.53,-3.50,-3.52,-1.07,-1.07,-1.07
213.56,2.45,3.54,2.44,3.53,-3.54,-3.50,-3.57,-1.09,-1.10,-1.09
215.69,2.42,3.54,2.44,3.55,-3.55,-3.51,-3.62,-1.13,-1.11,-1.11
217.85,2.42,3.56,2.42,3.56,-3.56,-3.51,-3.67,-1.14,-1.14,-1.14
220.03,2.42,3.59,2.40,3.57,-3.57,-3.52,-3.72,-1.15,-1.16,-1.17
222.23,2.37,3.56,2.39,3.58,-3.57,-3.52,-3.76,-1.20,-1.18,-1.19
224.45,2.37,3.58,2.37,3.58,-3.58,-3.52,-3.81,-1.21,-1.21,-1.21
226.70,2.36,3.59,2.35,3.58,-3.59,-3.52,-3.85,-1.22,-1.23,-1.23
228.96,2.33,3.57,2.34,3.59,-3.59,-3.52,-3.89,-1.26,-1.25,-1.24
231.25,2.33,3.59,2.32,3.59,-3.59,-3.52,-3.92,-1.26,-1.27,-1.26
233.57,2.30,3.58,2.31,3.59,-3.59,-3.52,-3.96,-1.29,-1.28,-1.28
235.90,2.29,3.59,2.30,3.60,-3.59,-3.51,-3.98,-1.30,-1.30,-1.30
238.26,2.29,3.61,2.28,3.59,-3.59,-3.51,-4.01,-1.30,-1.31,-1.32
240.64,2.25,3.57,2.26,3.59,-3.59,-3.51,-4.03,-1.34,-1.32,-1.32
243.05,2.24,3.58,2.24,3.58,-3.58,-3.50,-4.04,-1.34,-1.34,-1.34
245.48,2.23,3.59,2.23,3.58,-3.58,-3.50,-4.05,-1.35,-1.35,-1.35
247.93,2.20,3.57,2.21,3.58,-3.57,-3.49,-4.05,-1.37,-1.36,-1.37
250.41,2.20,3.57,2.19,3.57,-3.57,-3.48,-4.05,-1.36,-1.37,-1.37
252.92,2.16,3.54,2.17,3.56,-3.56,-3.48,-4.04,-1.39,-1.38,-1.38
255.45,2.16,3.56,2.16,3.54,-3.55,-3.47,-4.03,-1.38,-1.39,-1.39
258.00,2.13,3.53,2.13,3.53,-3.53,-3.46,-4.01,-1.40,-1.40,-1.40
260.58,2.11,3.52,2.11,3.52,-3.52,-3.45,-3.99,-1.41,-1.41,-1.41
263.19,2.09,3.51,2.09,3.50,-3.51,-3.44,-3.96,-1.42,-1.42,-1.41
265.82,2.07,3.49,2.07,3.49,-3.49,-3.43,-3.93,-1.42,-1.42,-1.42
268.48,2.05,3.48,2.05,3.48,-3.48,-3.42,-3.89,-1.42,-1.43,-1.42
271.16,2.03,3.46,2.03,3.46,-3.46,-3.41,-3.85,-1.43,-1.43,-1.43
273.87,1.99,3.43,2.00,3.44,-3.44,-3.40,-3.81,-1.44,-1.43,-1.44
276.61,1.98,3.42,1.97,3.42,-3.41,-3.39,-3.76,-1.43,-1.44,-1.44
279.38,1.94,3.40,1.94,3.39,-3.39,-3.37,-3.71,-1.44,-1.44,-1.46
282.17,1.90,3.35,1.91,3.36,-3.36,-3.36,-3.66,-1.45,-1.45,-1.45
284.99,1.87,3.32,1.87,3.32,-3.32,-3.34,-3.60,-1.45,-1.45,-1.44
287.84,1.84,3.28,1.84,3.29,-3.29,-3.33,-3.54,-1.45,-1.45,-1.44
290.72,1.81,3.27,1.81,3.25,-3.25,-3.31,-3.49,-1.44,-1.45,-1.45
293.63,1.77,3.22,1.77,3.22,-3.22,-3.29,-3.43,-1.45,-1.45,-1.45
296.57,1.73,3.17,1.74,3.18,-3.18,-3.27,-3.36,-1.45,-1.45,-1.44
299.53,1.70,3.15,1.70,3.15,-3.14,-3.25,-3.30,-1.44,-1.44,-1.44
302.53,1.67,3.11,1.67,3.11,-3.11,-3.23,-3.24,-1.44,-1.44,-1.44
305.55,1.64,3.08,1.63,3.07,-3.07,-3.21,-3.18,-1.43,-1.44,-1.44
308.61,1.59,3.03,1.60,3.04,-3.04,-3.19,-3.12,-1.45,-1.44,-1.44
311.69,1.56,3.00,1.57,3.01,-3.01,-3.16,-3.06,-1.45,-1.44,-1.44
314.81,1.55,2.98,1.54,2.97,-2.98,-3.14,-3.00,-1.42,-1.44,-1.43
317.96,1.51,2.95,1.52,2.95,-2.95,-3.11,-2.94,-1.43,-1.43,-1.43
321.14,1.49,2.92,1.49,2.92,-2.92,-3.08,-2.89,-1.43,-1.43,-1.43
324.35,1.46,2.89,1.46,2.89,-2.89,-3.05,-2.83,-1.43,-1.43,-1.43
327.59,1.45,2.86,1.45,2.87,-2.87,-3.02,-2.78,-1.42,-1.42,-1.41
330.87,1.42,2.84,1.43,2.85,-2.85,-2.99,-2.72,-1.43,-1.42,-1.42
334.18,1.42,2.84,1.41,2.83,-2.83,-2.96,-2.67,-1.40,-1.41,-1.42
337.52,1.39,2.80,1.40,2.81,-2.81,-2.93,-2.62,-1.41,-1.41,-1.41
340.90,1.38,2.78,1.39,2.79,-2.79,-2.90,-2.58,-1.40,-1.39,-1.40
344.30,1.38,2.78,1.38,2.77,-2.77,-2.86,-2.53,-1.39,-1.39,-1.39
347.75,1.38,2.77,1.36,2.75,-2.75,-2.83,-2.49,-1.37,-1.39,-1.39
351.23,1.33,2.72,1.35,2.73,-2.74,-2.80,-2.45,-1.40,-1.39,-1.39
354.74,1.33,2.70,1.33,2.71,-2.72,-2.76,-2.41,-1.39,-1.39,-1.37
358.28,1.33,2.70,1.33,2.70,-2.71,-2.72,-2.37,-1.38,-1.38,-1.37
361.87,1.33,2.70,1.33,2.70,-2.69,-2.69,-2.33,-1.36,-1.36,-1.36
365.49,1.33,2.69,1.33,2.69,-2.68,-2.65,-2.30,-1.35,-1.35,-1.36
369.14,1.33,2.68,1.32,2.67,-2.67,-2.62,-2.26,-1.34,-1.34,-1.35
372.83,1.31,2.65,1.31,2.65,-2.65,-2.58,-2.23,-1.34,-1.34,-1.34
376.56,1.29,2.63,1.30,2.64,-2.64,-2.54,-2.20,-1.35,-1.34,-1.34
380.33,1.29,2.62,1.29,2.62,-2.62,-2.51,-2.18,-1.33,-1.33,-1.33
384.13,1.29,2.62,1.28,2.60,-2.60,-2.47,-2.15,-1.31,-1.32,-1.32
387.97,1.25,2.57,1.26,2.58,-2.58,-2.43,-2.13,-1.32,-1.31,-1.31
391.85,1.25,2.56,1.24,2.55,-2.55,-2.39,-2.11,-1.30,-1.31,-1.31
395.77,1.21,2.52,1.22,2.52,-2.53,-2.36,-2.08,-1.31,-1.31,-1.31
399.73,1.20,2.50,1.20,2.50,-2.50,-2.32,-2.07,-1.30,-1.30,-1.30
403.72,1.19,2.47,1.18,2.47,-2.47,-2.28,-2.05,-1.28,-1.29,-1.28
407.76,1.16,2.44,1.17,2.44,-2.45,-2.25,-2.03,-1.28,-1.28,-1.28
411.84,1.15,2.42,1.15,2.42,-2.42,-2.21,-2.01,-1.27,-1.27,-1.27
415.96,1.12,2.38,1.13,2.40,-2.39,-2.18,-2.00,-1.27,-1.26,-1.26
420.12,1.12,2.39,1.11,2.37,-2.36,-2.14,-1.98,-1.24,-1.25,-1.26
424.32,1.07,2.33,1.08,2.33,-2.33,-2.11,-1.97,-1.26,-1.25,-1.25
428.56,1.06,2.30,1.06,2.30,-2.30,-2.07,-1.96,-1.24,-1.24,-1.23
432.85,1.03,2.26,1.04,2.27,-2.27,-2.04,-1.95,-1.24,-1.24,-1.23
437.18,1.02,2.25,1.02,2.24,-2.24,-2.00,-1.93,-1.22,-1.22,-1.23
441.55,0.99,2.21,0.99,2.21,-2.21,-1.97,-1.92,-1.21,-1.21,-1.22
445.96,0.96,2.17,0.97,2.17,-2.17,-1.94,-1.91,-1.21,-1.21,-1.21
450.42,0.94,2.14,0.94,2.14,-2.14,-1.90,-1.90,-1.19,-1.20,-1.20
454.93,0.90,2.09,0.91,2.10,-2.10,-1.87,-1.89,-1.20,-1.19,-1.19
459.48,0.89,2.07,0.89,2.06,-2.06,-1.84,-1.87,-1.17,-1.18,-1.18
464.07,0.86,2.02,0.86,2.03,-2.03,-1.80,-1.86,-1.16,-1.17,-1.16
468.71,0.83,1.98,0.84,1.99,-1.99,-1.77,-1.84,-1.16,-1.15,-1.15
473.40,0.81,1.95,0.81,1.95,-1.95,-1.74,-1.83,-1.14,-1.15,-1.14
478.13,0.77,1.90,0.78,1.91,-1.92,-1.71,-1.81,-1.14,-1.14,-1.13
482.91,0.76,1.89,0.76,1.88,-1.88,-1.68,-1.80,-1.12,-1.12,-1.12
487.74,0.73,1.85,0.73,1.84,-1.84,-1.65,-1.78,-1.11,-1.11,-1.11
492.62,0.70,1.81,0.70,1.81,-1.80,-1.62,-1.76,-1.10,-1.10,-1.10
497.55,0.67,1.77,0.67,1.77,-1.76,-1.59,-1.74,-1.09,-1.09,-1.09
502.52,0.64,1.73,0.64,1.73,-1.72,-1.56,-1.72,-1.08,-1.08,-1.09
507.55,0.61,1.68,0.61,1.68,-1.68,-1.53,-1.69,-1.07,-1.07,-1.07
512.62,0.58,1.64,0.58,1.63,-1.64,-1.50,-1.67,-1.06,-1.06,-1.06
517.75,0.55,1.59,0.55,1.59,-1.60,-1.47,-1.64,-1.05,-1.04,-1.04
