frequency,raw,error,smoothed,error_smoothed,equalization,parametric_eq,fixed_band_eq,equalized_raw,equalized_smoothed,target
20.00,-22.78,-22.21,-22.78,-22.21,6.00,5.27,2.66,-16.78,-16.78,-0.57
20.20,-22.64,-22.11,-22.64,-22.11,6.00,5.30,2.74,-16.64,-16.64,-0.53
20.40,-22.50,-22.00,-22.51,-22.01,6.00,5.33,2.81,-16.50,-16.51,-0.50
20.61,-22.37,-21.90,-22.37,-21.90,6.00,5.36,2.89,-16.37,-16.37,-0.47
20.81,-22.23,-21.80,-22.23,-21.80,6.00,5.39,2.98,-16.23,-16.23,-0.43
21.02,-22.09,-21.70,-22.09,-21.69,6.00,5.42,3.06,-16.09,-16.09,-0.39
21.23,-21.94,-21.56,-21.94,-21.57,6.00,5.45,3.15,-15.94,-15.94,-0.38
21.44,-21.79,-21.43,-21.80,-21.44,6.00,5.48,3.24,-15.79,-15.80,-0.36
21.66,-21.65,-21.30,-21.64,-21.30,6.00,5.51,3.33,-15.65,-15.64,-0.34
21.87,-21.49,-21.16,-21.49,-21.16,6.00,5.54,3.42,-15.49,-15.49,-0.33
22.09,-21.33,-21.02,-21.33,-21.02,6.00,5.57,3.52,-15.33,-15.33,-0.31
22.31,-21.17,-20.86,-21.17,-20.86,6.00,5.60,3.62,-15.17,-15.17,-0.31
22.54,-21.02,-20.71,-21.01,-20.71,6.00,5.63,3.72,-15.02,-15.01,-0.30
22.76,-20.85,-20.56,-20.85,-20.56,6.00,5.65,3.83,-14.85,-14.85,-0.29
22.99,-20.69,-20.40,-20.70,-20.41,6.00,5.68,3.94,-14.69,-14.70,-0.29
23.22,-20.54,-20.26,-20.54,-20.26,6.00,5.71,4.05,-14.54,-14.54,-0.28
23.45,-20.39,-20.12,-20.39,-20.12,6.00,5.73,4.16,-14.39,-14.39,-0.27
23.69,-20.25,-19.98,-20.25,-19.98,6.00,5.76,4.27,-14.25,-14.25,-0.26
23.92,-20.10,-19.85,-20.10,-19.84,6.00,5.79,4.39,-14.10,-14.10,-0.26
24.16,-19.94,-19.70,-19.94,-19.70,6.00,5.81,4.51,-13.94,-13.94,-0.25
24.40,-19.78,-19.55,-19.78,-19.54,6.00,5.83,4.63,-13.78,-13.78,-0.24
24.65,-19.64,-19.39,-19.62,-19.38,6.00,5.86,4.76,-13.64,-13.62,-0.25
24.89,-19.47,-19.22,-19.48,-19.24,6.00,5.88,4.88,-13.47,-13.48,-0.25
25.14,-19.35,-19.11,-19.36,-19.11,6.00,5.91,5.01,-13.35,-13.36,-0.25
25.39,-19.26,-19.01,-19.26,-19.01,6.00,5.93,5.14,-13.26,-13.26,-0.25
25.65,-19.17,-18.93,-19.17,-18.92,6.00,5.95,5.27,-13.17,-13.17,-0.25
25.91,-19.09,-18.83,-19.08,-18.82,6.00,5.97,5.39,-13.09,-13.08,-0.26
26.16,-18.96,-18.71,-18.96,-18.71,6.00,5.99,5.52,-12.96,-12.96,-0.25
26.43,-18.83,-18.58,-18.83,-18.57,6.00,6.02,5.65,-12.83,-12.83,-0.25
26.69,-18.68,-18.43,-18.68,-18.43,6.00,6.04,5.78,-12.68,-12.68,-0.25
26.96,-18.54,-18.28,-18.54,-18.29,6.00,6.06,5.91,-12.54,-12.54,-0.25
27.23,-18.41,-18.15,-18.40,-18.15,6.00,6.08,6.03,-12.41,-12.40,-0.25
27.50,-18.26,-18.01,-18.26,-18.01,6.00,6.10,6.15,-12.26,-12.26,-0.25
27.77,-18.12,-17.86,-18.13,-17.86,6.00,6.11,6.27,-12.12,-12.13,-0.26
28.05,-17.99,-17.73,-17.99,-17.72,6.00,6.13,6.38,-11.99,-11.99,-0.26
28.33,-17.85,-17.58,-17.86,-17.59,6.00,6.15,6.49,-11.85,-11.86,-0.28
28.62,-17.73,-17.46,-17.72,-17.45,6.00,6.17,6.60,-11.73,-11.72,-0.27
28.90,-17.59,-17.33,-17.59,-17.32,6.00,6.18,6.69,-11.59,-11.59,-0.27
29.19,-17.45,-17.18,-17.46,-17.19,6.00,6.20,6.79,-11.45,-11.46,-0.28
29.48,-17.32,-17.05,-17.32,-17.05,6.00,6.22,6.87,-11.32,-11.32,-0.27
29.78,-17.19,-16.92,-17.19,-16.92,6.00,6.23,6.94,-11.19,-11.19,-0.27
30.08,-17.06,-16.79,-17.06,-16.79,6.00,6.25,7.01,-11.06,-11.06,-0.27
30.38,-16.95,-16.66,-16.95,-16.67,6.00,6.26,7.07,-10.95,-10.95,-0.28
30.68,-16.82,-16.54,-16.83,-16.54,6.00,6.27,7.12,-10.82,-10.83,-0.28
30.99,-16.72,-16.42,-16.70,-16.41,6.00,6.29,7.16,-10.72,-10.70,-0.29
31.30,-16.55,-16.25,-16.55,-16.25,6.00,6.30,7.18,-10.55,-10.55,-0.30
31.61,-16.38,-16.09,-16.39,-16.08,6.00,6.31,7.20,-10.38,-10.39,-0.30
31.93,-16.22,-15.91,-16.22,-15.91,6.00,6.32,7.21,-10.22,-10.22,-0.31
32.24,-16.06,-15.74,-16.06,-15.75,6.00,6.33,7.21,-10.06,-10.06,-0.32
32.57,-15.93,-15.60,-15.92,-15.60,6.00,6.34,7.20,-9.93,-9.92,-0.32
32.89,-15.79,-15.47,-15.80,-15.47,6.00,6.35,7.19,-9.79,-9.80,-0.32
33.22,-15.68,-15.36,-15.69,-15.37,6.00,6.36,7.16,-9.68,-9.69,-0.32
33.55,-15.60,-15.28,-15.60,-15.28,6.00,6.37,7.13,-9.60,-9.60,-0.33
33.89,-15.52,-15.20,-15.51,-15.18,6.00,6.38,7.09,-9.52,-9.51,-0.33
34.23,-15.40,-15.08,-15.41,-15.07,6.00,6.39,7.05,-9.40,-9.41,-0.33
34.57,-15.27,-14.93,-15.28,-14.94,6.00,6.39,6.99,-9.27,-9.28,-0.34
34.92,-15.14,-14.79,-15.13,-14.79,6.00,6.40,6.94,-9.14,-9.13,-0.34
35.27,-14.97,-14.62,-14.96,-14.61,6.00,6.41,6.88,-8.97,-8.96,-0.34
35.62,-14.78,-14.43,-14.78,-14.43,6.00,6.41,6.82,-8.78,-8.78,-0.36
35.97,-14.60,-14.24,-14.63,-14.27,6.00,6.42,6.76,-8.60,-8.63,-0.36
36.33,-14.51,-14.15,-14.51,-14.15,6.00,6.42,6.69,-8.51,-8.51,-0.36
36.70,-14.42,-14.06,-14.42,-14.05,6.00,6.42,6.63,-8.42,-8.42,-0.36
37.06,-14.34,-13.97,-14.34,-13.97,6.00,6.43,6.56,-8.34,-8.34,-0.38
37.43,-14.25,-13.88,-14.25,-13.88,6.00,6.43,6.50,-8.25,-8.25,-0.38
37.81,-14.16,-13.78,-14.17,-13.78,6.00,6.43,6.43,-8.16,-8.17,-0.38
38.19,-14.08,-13.69,-14.07,-13.69,6.00,6.43,6.37,-8.08,-8.07,-0.39
38.57,-13.99,-13.60,-13.99,-13.59,6.00,6.43,6.31,-7.99,-7.99,-0.40
38.95,-13.90,-13.51,-13.93,-13.52,6.00,6.43,6.25,-7.90,-7.93,-0.40
39.34,-13.88,-13.47,-13.89,-13.48,6.00,6.43,6.19,-7.88,-7.89,-0.41
39.74,-13.87,-13.45,-13.86,-13.44,6.00,6.43,6.14,-7.87,-7.86,-0.42
40.14,-13.83,-13.42,-13.83,-13.41,6.00,6.43,6.09,-7.83,-7.83,-0.42
40.54,-13.76,-13.34,-13.77,-13.34,6.00,6.43,6.04,-7.76,-7.77,-0.42
40.94,-13.68,-13.26,-13.68,-13.26,6.00,6.42,6.00,-7.68,-7.68,-0.42
41.35,-13.59,-13.16,-13.59,-13.16,6.00,6.42,5.96,-7.59,-7.59,-0.44
41.76,-13.49,-13.04,-13.50,-13.05,6.00,6.42,5.93,-7.49,-7.50,-0.45
42.18,-13.40,-12.94,-13.41,-12.94,6.00,6.41,5.90,-7.40,-7.41,-0.47
42.60,-13.30,-12.81,-13.31,-12.82,6.00,6.41,5.87,-7.30,-7.31,-0.49
43.03,-13.20,-12.70,-13.17,-12.66,6.00,6.40,5.85,-7.20,-7.17,-0.50
43.46,-13.00,-12.48,-13.00,-12.47,6.00,6.40,5.83,-7.00,-7.00,-0.53
43.90,-12.81,-12.23,-12.84,-12.27,6.00,6.39,5.82,-6.81,-6.84,-0.57
44.33,-12.68,-12.08,-12.69,-12.09,6.00,6.38,5.81,-6.68,-6.69,-0.60
44.78,-12.58,-11.95,-12.58,-11.94,6.00,6.37,5.80,-6.58,-6.58,-0.63
45.23,-12.48,-11.83,-12.48,-11.82,6.00,6.36,5.80,-6.48,-6.48,-0.66
45.68,-12.37,-11.69,-12.38,-11.70,6.00,6.36,5.81,-6.37,-6.38,-0.68
46.13,-12.27,-11.57,-12.27,-11.58,6.00,6.35,5.82,-6.27,-6.27,-0.70
46.60,-12.16,-11.46,-12.16,-11.45,6.00,6.34,5.83,-6.16,-6.16,-0.70
47.06,-12.05,-11.33,-12.05,-11.33,6.00,6.32,5.85,-6.05,-6.05,-0.72
47.53,-11.93,-11.21,-11.93,-11.21,6.00,6.31,5.87,-5.93,-5.93,-0.73
48.01,-11.80,-11.08,-11.82,-11.09,6.00,6.30,5.89,-5.80,-5.82,-0.72
48.49,-11.71,-10.99,-11.71,-10.98,6.00,6.29,5.92,-5.71,-5.71,-0.73
48.97,-11.62,-10.89,-11.62,-10.88,6.00,6.28,5.95,-5.62,-5.62,-0.74
49.46,-11.51,-10.77,-11.51,-10.77,6.00,6.26,5.99,-5.51,-5.51,-0.74
49.96,-11.40,-10.66,-11.40,-10.66,6.00,6.25,6.03,-5.40,-5.40,-0.74
50.46,-11.28,-10.56,-11.28,-10.56,6.00,6.23,6.07,-5.28,-5.28,-0.73
50.96,-11.17,-10.46,-11.19,-10.47,6.00,6.22,6.11,-5.17,-5.19,-0.72
51.47,-11.11,-10.39,-11.11,-10.39,6.00,6.20,6.16,-5.11,-5.11,-0.72
51.99,-11.06,-10.33,-11.06,-10.33,6.00,6.19,6.20,-5.06,-5.06,-0.73
52.51,-10.99,-10.25,-11.00,-10.25,6.00,6.17,6.25,-4.99,-5.00,-0.74
53.03,-10.92,-10.16,-10.91,-10.15,6.00,6.15,6.30,-4.92,-4.91,-0.76
53.56,-10.80,-10.01,-10.80,-10.01,6.00,6.13,6.35,-4.80,-4.80,-0.79
54.10,-10.68,-9.86,-10.68,-9.85,6.00,6.12,6.40,-4.68,-4.68,-0.83
54.64,-10.55,-9.68,-10.58,-9.71,6.00,6.10,6.45,-4.55,-4.58,-0.87
55.18,-10.47,-9.56,-10.51,-9.60,6.00,6.08,6.50,-4.47,-4.51,-0.91
55.74,-10.47,-9.51,-10.42,-9.46,6.00,6.06,6.54,-4.47,-4.42,-0.96
56.29,-10.34,-9.34,-10.29,-9.29,6.00,6.04,6.58,-4.34,-4.29,-1.00
56.86,-10.09,-9.03,-10.17,-9.11,6.00,6.02,6.62,-4.09,-4.17,-1.05
57.42,-10.02,-8.91,-10.05,-8.94,6.00,6.00,6.66,-4.02,-4.05,-1.12
58.00,-10.02,-8.86,-9.96,-8.80,6.00,5.98,6.69,-4.02,-3.96,-1.17
58.58,-9.89,-8.67,-9.88,-8.67,6.00,5.96,6.72,-3.89,-3.88,-1.22
59.16,-9.75,-8.49,-9.76,-8.49,6.00,5.93,6.74,-3.75,-3.76,-1.26
59.76,-9.62,-8.31,-9.66,-8.34,6.00,5.91,6.75,-3.62,-3.66,-1.32
60.35,-9.57,-8.19,-9.59,-8.21,6.00,5.89,6.76,-3.57,-3.59,-1.38
60.96,-9.56,-8.14,-9.52,-8.09,6.00,5.87,6.76,-3.56,-3.52,-1.43
61.57,-9.43,-7.94,-9.43,-7.94,6.00,5.84,6.75,-3.43,-3.43,-1.49
62.18,-9.29,-7.75,-9.30,-7.76,6.00,5.82,6.74,-3.29,-3.30,-1.55
62.80,-9.15,-7.57,-9.18,-7.59,6.00,5.80,6.72,-3.15,-3.18,-1.58
63.43,-9.07,-7.44,-9.08,-7.45,6.00,5.78,6.69,-3.07,-3.08,-1.63
64.07,-9.00,-7.34,-8.98,-7.32,6.00,5.75,6.65,-3.00,-2.98,-1.67
64.71,-8.88,-7.18,-8.88,-7.17,6.00,5.73,6.61,-2.88,-2.88,-1.70
65.35,-8.77,-7.03,-8.78,-7.04,6.00,5.71,6.56,-2.77,-2.78,-1.74
66.01,-8.65,-6.88,-8.70,-6.93,6.00,5.68,6.50,-2.65,-2.70,-1.77
66.67,-8.65,-6.85,-8.62,-6.82,6.00,5.66,6.43,-2.65,-2.62,-1.80
67.33,-8.57,-6.75,-8.55,-6.73,6.00,5.64,6.36,-2.57,-2.55,-1.82
68.01,-8.42,-6.59,-8.48,-6.64,6.01,5.61,6.29,-2.41,-2.47,-1.84
68.69,-8.41,-6.55,-8.38,-6.52,6.02,5.59,6.21,-2.39,-2.36,-1.86
69.37,-8.32,-6.44,-8.31,-6.43,6.02,5.57,6.12,-2.30,-2.29,-1.88
70.07,-8.20,-6.30,-8.26,-6.36,6.01,5.55,6.04,-2.19,-2.25,-1.90
70.77,-8.20,-6.30,-8.17,-6.26,5.99,5.53,5.95,-2.21,-2.18,-1.91
71.48,-8.09,-6.17,-8.06,-6.13,5.95,5.51,5.85,-2.14,-2.11,-1.93
72.19,-7.92,-5.98,-7.94,-5.99,5.90,5.49,5.76,-2.02,-2.04,-1.94
72.91,-7.76,-5.80,-7.82,-5.85,5.84,5.47,5.66,-1.92,-1.98,-1.97
73.64,-7.74,-5.76,-7.72,-5.74,5.77,5.46,5.56,-1.97,-1.95,-1.98
74.38,-7.68,-5.69,-7.65,-5.65,5.69,5.44,5.46,-1.99,-1.95,-2.00
75.12,-7.56,-5.54,-7.59,-5.57,5.61,5.43,5.37,-1.95,-1.98,-2.02
75.87,-7.52,-5.49,-7.54,-5.50,5.53,5.42,5.27,-1.99,-2.01,-2.04
76.63,-7.51,-5.46,-7.51,-5.45,5.45,5.41,5.17,-2.07,-2.06,-2.06
77.40,-7.49,-5.43,-7.47,-5.40,5.37,5.40,5.08,-2.12,-2.10,-2.06
78.17,-7.42,-5.34,-7.41,-5.34,5.30,5.40,4.98,-2.12,-2.11,-2.08
78.95,-7.29,-5.21,-7.34,-5.26,5.23,5.40,4.89,-2.06,-2.11,-2.08
79.74,-7.28,-5.20,-7.26,-5.17,5.16,5.40,4.80,-2.12,-2.10,-2.08
80.54,-7.20,-5.11,-7.19,-5.10,5.09,5.41,4.71,-2.11,-2.09,-2.09
81.35,-7.11,-5.02,-7.13,-5.04,5.03,5.42,4.63,-2.08,-2.10,-2.09
82.16,-7.06,-4.98,-7.08,-5.00,4.99,5.43,4.55,-2.07,-2.09,-2.08
82.98,-7.06,-5.00,-7.05,-4.98,4.98,5.45,4.47,-2.08,-2.07,-2.06
83.81,-7.06,-5.01,-7.05,-4.99,5.03,5.48,4.39,-2.03,-2.01,-2.06
84.65,-7.06,-5.01,-7.07,-5.02,5.13,5.51,4.31,-1.94,-1.94,-2.05
85.50,-7.12,-5.10,-7.15,-5.12,5.25,5.54,4.24,-1.87,-1.90,-2.02
86.35,-7.29,-5.29,-7.32,-5.31,5.39,5.58,4.17,-1.90,-1.93,-2.01
87.22,-7.55,-5.56,-7.54,-5.55,5.54,5.63,4.11,-2.01,-2.00,-1.99
88.09,-7.81,-5.84,-7.78,-5.81,5.68,5.68,4.05,-2.13,-2.10,-1.98
88.97,-7.96,-6.02,-7.97,-6.02,5.81,5.73,3.99,-2.15,-2.15,-1.94
89.86,-8.12,-6.20,-8.12,-6.19,5.92,5.78,3.93,-2.20,-2.20,-1.93
90.76,-8.20,-6.28,-8.24,-6.33,6.00,5.83,3.88,-2.20,-2.24,-1.92
91.66,-8.35,-6.45,-8.31,-6.40,6.06,5.87,3.83,-2.30,-2.25,-1.90
92.58,-8.34,-6.44,-8.32,-6.42,6.08,5.91,3.78,-2.27,-2.24,-1.91
93.51,-8.24,-6.36,-8.29,-6.40,6.07,5.93,3.74,-2.18,-2.22,-1.88
94.44,-8.19,-6.31,-8.19,-6.30,6.03,5.93,3.70,-2.16,-2.16,-1.88
95.39,-8.10,-6.22,-8.08,-6.19,5.98,5.92,3.66,-2.13,-2.10,-1.88
96.34,-7.93,-6.04,-7.97,-6.08,5.91,5.88,3.62,-2.03,-2.06,-1.90
97.30,-7.82,-5.93,-7.83,-5.93,5.82,5.82,3.59,-2.00,-2.00,-1.90
98.28,-7.69,-5.79,-7.65,-5.75,5.72,5.74,3.55,-1.97,-1.93,-1.91
99.26,-7.48,-5.57,-7.49,-5.58,5.60,5.64,3.53,-1.88,-1.89,-1.91
100.25,-7.28,-5.36,-7.31,-5.39,5.47,5.51,3.50,-1.81,-1.84,-1.92
101.25,-7.20,-5.26,-7.18,-5.24,5.33,5.37,3.47,-1.88,-1.85,-1.94
102.27,-7.06,-5.10,-7.11,-5.15,5.18,5.22,3.45,-1.89,-1.93,-1.96
103.29,-7.06,-5.07,-7.06,-5.07,5.03,5.06,3.43,-2.03,-2.02,-1.99
104.32,-7.01,-5.00,-6.95,-4.94,4.90,4.90,3.41,-2.12,-2.05,-2.01
105.37,-6.83,-4.79,-6.83,-4.79,4.77,4.74,3.39,-2.06,-2.06,-2.04
106.42,-6.64,-4.56,-6.71,-4.63,4.64,4.58,3.37,-2.00,-2.07,-2.08
107.48,-6.60,-4.48,-6.61,-4.48,4.51,4.42,3.36,-2.10,-2.10,-2.13
108.56,-6.60,-4.42,-6.55,-4.37,4.37,4.26,3.34,-2.24,-2.19,-2.19
109.64,-6.45,-4.22,-6.46,-4.23,4.21,4.11,3.32,-2.24,-2.26,-2.24
110.74,-6.36,-4.08,-6.34,-4.05,4.04,3.96,3.31,-2.32,-2.30,-2.29
111.85,-6.17,-3.84,-6.24,-3.89,3.88,3.82,3.29,-2.29,-2.35,-2.33
112.97,-6.14,-3.74,-6.14,-3.75,3.72,3.69,3.27,-2.42,-2.42,-2.40
114.10,-6.10,-3.65,-6.03,-3.58,3.57,3.56,3.26,-2.54,-2.46,-2.45
115.24,-5.89,-3.38,-5.92,-3.40,3.41,3.43,3.24,-2.48,-2.50,-2.51
116.39,-5.76,-3.20,-5.79,-3.22,3.26,3.31,3.22,-2.50,-2.53,-2.57
117.55,-5.69,-3.08,-5.72,-3.11,3.13,3.20,3.20,-2.56,-2.59,-2.62
118.73,-5.69,-3.03,-5.67,-3.01,3.02,3.09,3.18,-2.67,-2.65,-2.66
119.92,-5.68,-2.99,-5.61,-2.91,2.92,2.98,3.15,-2.76,-2.69,-2.69
121.12,-5.46,-2.74,-5.54,-2.81,2.83,2.87,3.13,-2.63,-2.71,-2.73
122.33,-5.46,-2.71,-5.49,-2.74,2.75,2.77,3.10,-2.72,-2.74,-2.75
123.55,-5.46,-2.70,-5.44,-2.67,2.67,2.67,3.07,-2.80,-2.77,-2.76
124.79,-5.46,-2.68,-5.42,-2.64,2.58,2.58,3.04,-2.88,-2.84,-2.78
126.03,-5.31,-2.51,-5.36,-2.56,2.50,2.48,3.01,-2.81,-2.86,-2.80
127.29,-5.26,-2.45,-5.26,-2.44,2.42,2.39,2.97,-2.84,-2.83,-2.81
128.57,-5.18,-2.35,-5.14,-2.31,2.35,2.30,2.93,-2.84,-2.80,-2.84
129.85,-5.02,-2.17,-5.07,-2.22,2.27,2.21,2.89,-2.75,-2.80,-2.85
131.15,-5.00,-2.14,-5.01,-2.14,2.19,2.13,2.85,-2.81,-2.82,-2.86
132.46,-5.00,-2.12,-5.00,-2.12,2.12,2.04,2.80,-2.88,-2.88,-2.89
133.79,-5.00,-2.10,-5.00,-2.09,2.05,1.96,2.76,-2.95,-2.95,-2.90
135.12,-4.99,-2.06,-4.94,-2.02,1.98,1.88,2.71,-3.01,-2.96,-2.93
136.48,-4.84,-1.90,-4.87,-1.93,1.92,1.79,2.66,-2.92,-2.95,-2.94
137.84,-4.78,-1.82,-4.82,-1.85,1.86,1.72,2.61,-2.92,-2.96,-2.96
139.22,-4.78,-1.78,-4.78,-1.78,1.79,1.64,2.55,-2.99,-2.98,-3.00
140.61,-4.78,-1.75,-4.74,-1.72,1.72,1.56,2.50,-3.06,-3.02,-3.03
142.02,-4.67,-1.63,-4.68,-1.63,1.64,1.48,2.44,-3.04,-3.04,-3.04
143.44,-4.58,-1.52,-4.61,-1.55,1.55,1.41,2.39,-3.03,-3.06,-3.07
144.87,-4.55,-1.46,-4.57,-1.47,1.46,1.34,2.33,-3.09,-3.10,-3.09
146.32,-4.55,-1.42,-4.53,-1.40,1.38,1.26,2.27,-3.17,-3.15,-3.13
147.78,-4.50,-1.35,-4.47,-1.31,1.30,1.19,2.22,-3.21,-3.18,-3.16
149.26,-4.38,-1.17,-4.41,-1.19,1.20,1.12,2.16,-3.18,-3.20,-3.21
150.75,-4.32,-1.05,-4.34,-1.08,1.10,1.05,2.10,-3.22,-3.24,-3.28
152.26,-4.32,-0.99,-4.32,-0.98,0.99,0.99,2.04,-3.33,-3.32,-3.33
153.78,-4.32,-0.93,-4.33,-0.93,0.88,0.92,1.98,-3.44,-3.45,-3.40
155.32,-4.32,-0.84,-4.32,-0.84,0.78,0.86,1.93,-3.54,-3.54,-3.48
156.88,-4.30,-0.76,-4.26,-0.72,0.69,0.79,1.87,-3.61,-3.56,-3.54
158.44,-4.15,-0.55,-4.17,-0.56,0.62,0.73,1.81,-3.53,-3.55,-3.60
160.03,-4.09,-0.43,-4.12,-0.45,0.56,0.67,1.76,-3.54,-3.56,-3.67
161.63,-4.09,-0.38,-4.14,-0.42,0.50,0.61,1.70,-3.60,-3.64,-3.72
163.24,-4.23,-0.48,-4.22,-0.46,0.45,0.55,1.65,-3.79,-3.77,-3.76
164.88,-4.32,-0.54,-4.27,-0.49,0.40,0.50,1.59,-3.92,-3.87,-3.79
166.53,-4.28,-0.47,-4.26,-0.45,0.37,0.45,1.54,-3.91,-3.89,-3.82
168.19,-4.16,-0.33,-4.19,-0.36,0.35,0.39,1.49,-3.81,-3.84,-3.83
169.87,-4.09,-0.25,-4.12,-0.28,0.32,0.34,1.44,-3.77,-3.80,-3.84
171.57,-4.09,-0.25,-4.10,-0.27,0.29,0.29,1.39,-3.80,-3.81,-3.84
173.29,-4.09,-0.27,-4.08,-0.26,0.25,0.25,1.34,-3.84,-3.83,-3.83
175.02,-4.09,-0.29,-4.03,-0.22,0.21,0.20,1.29,-3.89,-3.82,-3.80
176.77,-3.90,-0.10,-3.95,-0.16,0.16,0.16,1.24,-3.74,-3.79,-3.80
178.54,-3.86,-0.08,-3.89,-0.11,0.12,0.12,1.20,-3.75,-3.78,-3.79
180.32,-3.86,-0.09,-3.85,-0.08,0.08,0.08,1.15,-3.79,-3.78,-3.77
182.13,-3.86,-0.11,-3.83,-0.07,0.04,0.05,1.11,-3.83,-3.79,-3.76
183.95,-3.77,-0.02,-3.76,-0.01,-0.01,0.02,1.06,-3.78,-3.77,-3.75
185.79,-3.65,0.10,-3.69,0.06,-0.05,-0.01,1.02,-3.71,-3.75,-3.75
187.65,-3.64,0.12,-3.64,0.12,-0.09,-0.04,0.98,-3.73,-3.73,-3.77
189.52,-3.64,0.14,-3.63,0.15,-0.11,-0.07,0.94,-3.76,-3.75,-3.78
191.42,-3.64,0.15,-3.64,0.15,-0.14,-0.09,0.90,-3.79,-3.78,-3.79
193.33,-3.64,0.16,-3.64,0.16,-0.16,-0.11,0.86,-3.81,-3.81,-3.80
195.27,-3.64,0.16,-3.64,0.17,-0.18,-0.12,0.82,-3.82,-3.82,-3.81
197.22,-3.64,0.17,-3.64,0.18,-0.19,-0.14,0.78,-3.83,-3.83,-3.82
199.19,-3.64,0.20,-3.64,0.19,-0.20,-0.15,0.74,-3.84,-3.84,-3.85
201.18,-3.64,0.20,-3.64,0.21,-0.21,-0.16,0.70,-3.86,-3.86,-3.85
203.19,-3.64,0.22,-3.64,0.22,-0.23,-0.16,0.67,-3.87,-3.87,-3.86
205.23,-3.64,0.23,-3.64,0.23,-0.24,-0.16,0.63,-3.89,-3.89,-3.88
207.28,-3.64,0.23,-3.64,0.24,-0.25,-0.16,0.60,-3.90,-3.90,-3.88
209.35,-3.64,0.25,-3.64,0.26,-0.26,-0.15,0.56,-3.90,-3.90,-3.90
211.44,-3.64,0.27,-3.62,0.28,-0.25,-0.14,0.53,-3.89,-3.88,-3.92
213.56,-3.64,0.27,-3.65,0.26,-0.24,-0.12,0.50,-3.88,-3.89,-3.91
215.69,-3.64,0.27,-3.71,0.21,-0.21,-0.10,0.47,-3.85,-3.92,-3.91
217.85,-3.84,0.09,-3.77,0.16,-0.16,-0.08,0.43,-4.01,-3.94,-3.93
220.03,-3.86,0.08,-3.84,0.10,-0.11,-0.05,0.40,-3.97,-3.95,-3.94
222.23,-3.86,0.09,-3.91,0.04,-0.04,-0.02,0.37,-3.90,-3.94,-3.96
224.45,-3.97,-0.02,-3.98,-0.03,0.05,0.02,0.35,-3.93,-3.93,-3.95
226.70,-4.08,-0.13,-4.10,-0.14,0.15,0.07,0.32,-3.94,-3.95,-3.95
228.96,-4.25,-0.30,-4.20,-0.25,0.25,0.12,0.29,-4.00,-3.95,-3.96
231.25,-4.30,-0.35,-4.30,-0.35,0.36,0.17,0.26,-3.94,-3.94,-3.95
233.57,-4.35,-0.39,-4.41,-0.45,0.47,0.23,0.24,-3.88,-3.94,-3.96
235.90,-4.54,-0.58,-4.53,-0.56,0.57,0.30,0.21,-3.97,-3.95,-3.97
238.26,-4.66,-0.70,-4.65,-0.69,0.66,0.38,0.19,-4.00,-3.99,-3.96
240.64,-4.76,-0.81,-4.75,-0.79,0.74,0.46,0.16,-4.03,-4.01,-3.96
243.05,-4.78,-0.84,-4.78,-0.84,0.80,0.54,0.14,-3.99,-3.99,-3.94
245.48,-4.78,-0.85,-4.79,-0.86,0.84,0.63,0.11,-3.94,-3.95,-3.94
247.93,-4.78,-0.86,-4.79,-0.86,0.87,0.73,0.09,-3.91,-3.91,-3.92
250.41,-4.78,-0.86,-4.78,-0.86,0.89,0.82,0.07,-3.89,-3.89,-3.93
252.92,-4.78,-0.87,-4.78,-0.88,0.89,0.91,0.05,-3.89,-3.89,-3.91
255.45,-4.78,-0.90,-4.78,-0.89,0.89,1.01,0.03,-3.90,-3.90,-3.89
258.00,-4.78,-0.90,-4.78,-0.90,0.89,1.09,0.01,-3.90,-3.90,-3.88
260.58,-4.78,-0.91,-4.78,-0.91,0.90,1.17,-0.01,-3.88,-3.88,-3.87
263.19,-4.78,-0.93,-4.78,-0.92,0.93,1.23,-0.03,-3.85,-3.85,-3.86
265.82,-4.78,-0.93,-4.78,-0.93,0.97,1.28,-0.05,-3.82,-3.81,-3.85
268.48,-4.78,-0.96,-4.78,-0.95,1.01,1.31,-0.07,-3.77,-3.77,-3.83
271.16,-4.78,-0.97,-4.81,-1.00,1.05,1.32,-0.08,-3.73,-3.76,-3.81
273.87,-4.86,-1.07,-4.89,-1.11,1.09,1.31,-0.10,-3.78,-3.81,-3.79
276.61,-4.98,-1.23,-4.94,-1.18,1.12,1.28,-0.12,-3.86,-3.83,-3.76
279.38,-5.00,-1.26,-4.94,-1.21,1.14,1.23,-0.13,-3.86,-3.80,-3.74
282.17,-4.84,-1.13,-4.90,-1.18,1.15,1.16,-0.15,-3.69,-3.74,-3.71
284.99,-4.78,-1.10,-4.82,-1.14,1.15,1.07,-0.17,-3.63,-3.67,-3.69
287.84,-4.78,-1.13,-4.74,-1.09,1.13,0.98,-0.18,-3.66,-3.61,-3.66
290.72,-4.70,-1.08,-4.70,-1.07,1.08,0.87,-0.20,-3.62,-3.62,-3.62
293.63,-4.57,-0.98,-4.61,-1.02,1.02,0.76,-0.21,-3.56,-3.59,-3.59
296.57,-4.55,-0.99,-4.52,-0.95,0.95,0.64,-0.23,-3.61,-3.57,-3.57
299.53,-4.38,-0.85,-4.41,-0.87,0.87,0.53,-0.25,-3.52,-3.54,-3.54
302.53,-4.32,-0.80,-4.29,-0.78,0.77,0.42,-0.26,-3.55,-3.52,-3.52
305.55,-4.12,-0.64,-4.16,-0.67,0.66,0.31,-0.28,-3.47,-3.50,-3.48
308.61,-4.04,-0.58,-4.03,-0.57,0.53,0.20,-0.29,-3.51,-3.50,-3.46
311.69,-3.88,-0.44,-3.87,-0.43,0.40,0.10,-0.31,-3.48,-3.47,-3.45
314.81,-3.72,-0.31,-3.72,-0.29,0.28,0.00,-0.33,-3.44,-3.44,-3.42
317.96,-3.50,-0.08,-3.53,-0.11,0.16,-0.09,-0.34,-3.34,-3.37,-3.42
321.14,-3.40,0.02,-3.37,0.04,0.05,-0.17,-0.36,-3.35,-3.32,-3.42
324.35,-3.23,0.18,-3.27,0.15,-0.07,-0.25,-0.38,-3.30,-3.34,-3.41
327.59,-3.18,0.22,-3.22,0.19,-0.20,-0.32,-0.40,-3.38,-3.41,-3.41
330.87,-3.18,0.21,-3.15,0.25,-0.33,-0.39,-0.42,-3.51,-3.48,-3.40
334.18,-3.08,0.31,-3.04,0.34,-0.46,-0.46,-0.43,-3.55,-3.51,-3.39
337.52,-2.84,0.54,-2.84,0.53,-0.60,-0.52,-0.45,-3.44,-3.44,-3.38
340.90,-2.58,0.77,-2.59,0.77,-0.74,-0.58,-0.47,-3.33,-3.34,-3.35
344.30,-2.32,1.02,-2.37,0.97,-0.90,-0.63,-0.49,-3.22,-3.27,-3.34
347.75,-2.21,1.11,-2.21,1.11,-1.07,-0.68,-0.51,-3.28,-3.28,-3.32
351.23,-2.08,1.21,-2.06,1.24,-1.24,-0.73,-0.53,-3.33,-3.30,-3.30
354.74,-1.94,1.33,-1.93,1.35,-1.41,-0.77,-0.56,-3.35,-3.33,-3.28
358.28,-1.72,1.52,-1.75,1.50,-1.54,-0.81,-0.58,-3.26,-3.29,-3.25
361.87,-1.61,1.62,-1.58,1.64,-1.63,-0.85,-0.60,-3.25,-3.22,-3.23
365.49,-1.42,1.78,-1.45,1.75,-1.69,-0.88,-0.62,-3.12,-3.15,-3.20
369.14,-1.37,1.81,-1.38,1.80,-1.72,-0.92,-0.65,-3.10,-3.10,-3.18
372.83,-1.36,1.79,-1.35,1.81,-1.73,-0.95,-0.67,-3.09,-3.07,-3.15
376.56,-1.36,1.77,-1.39,1.74,-1.71,-0.98,-0.69,-3.07,-3.10,-3.13
380.33,-1.45,1.65,-1.46,1.65,-1.67,-1.01,-0.72,-3.13,-3.13,-3.10
384.13,-1.56,1.52,-1.53,1.56,-1.63,-1.04,-0.74,-3.19,-3.16,-3.09
387.97,-1.59,1.48,-1.59,1.49,-1.57,-1.06,-0.77,-3.17,-3.16,-3.08
391.85,-1.59,1.47,-1.60,1.46,-1.52,-1.09,-0.79,-3.11,-3.12,-3.07
395.77,-1.59,1.46,-1.60,1.46,-1.47,-1.11,-0.82,-3.06,-3.06,-3.06
399.73,-1.59,1.45,-1.58,1.47,-1.42,-1.13,-0.85,-3.01,-3.00,-3.05
403.72,-1.59,1.45,-1.59,1.45,-1.38,-1.15,-0.87,-2.97,-2.97,-3.04
407.76,-1.59,1.44,-1.64,1.39,-1.35,-1.17,-0.90,-2.94,-2.99,-3.03
