frequency,raw
20.00,-27.13
20.20,-27.02
20.40,-26.90
20.61,-26.79
20.81,-26.67
21.02,-26.56
21.23,-26.46
21.44,-26.36
21.66,-26.26
21.87,-26.16
22.09,-26.03
22.31,-25.88
22.54,-25.72
22.76,-25.56
22.99,-25.41
23.22,-25.30
23.45,-25.20
23.69,-25.10
23.92,-25.00
24.16,-24.88
24.40,-24.75
24.65,-24.61
24.89,-24.48
25.14,-24.36
25.39,-24.24
25.65,-24.13
25.91,-24.02
26.16,-23.90
26.43,-23.78
26.69,-23.66
26.96,-23.54
27.23,-23.43
27.50,-23.33
27.77,-23.23
28.05,-23.13
28.33,-23.00
28.62,-22.87
28.90,-22.73
29.19,-22.58
29.48,-22.42
29.78,-22.26
30.08,-22.11
30.38,-22.01
30.68,-21.91
30.99,-21.81
31.30,-21.70
31.61,-21.58
31.93,-21.47
32.24,-21.33
32.57,-21.19
32.89,-21.05
33.22,-20.92
33.55,-20.80
33.89,-20.68
34.23,-20.55
34.57,-20.42
34.92,-20.28
35.27,-20.14
35.62,-20.00
35.97,-19.86
36.33,-19.80
36.70,-19.74
37.06,-19.67
37.43,-19.49
37.81,-19.32
38.19,-19.15
38.57,-19.00
38.95,-18.84
39.34,-18.73
39.74,-18.63
40.14,-18.54
40.54,-18.46
40.94,-18.37
41.35,-18.22
41.76,-18.05
42.18,-17.91
42.60,-17.79
43.03,-17.67
43.46,-17.52
43.90,-17.38
44.33,-17.26
44.78,-17.16
45.23,-17.05
45.68,-16.93
46.13,-16.81
46.60,-16.66
47.06,-16.52
47.53,-16.41
48.01,-16.29
48.49,-16.18
48.97,-16.08
49.46,-15.97
49.96,-15.86
50.46,-15.73
50.96,-15.59
51.47,-15.45
51.99,-15.30
52.51,-15.12
53.03,-14.94
53.56,-14.88
54.10,-14.81
54.64,-14.68
55.18,-14.56
55.74,-14.43
56.29,-14.31
56.86,-14.18
57.42,-14.05
58.00,-13.92
58.58,-13.79
59.16,-13.65
59.76,-13.52
60.35,-13.43
60.96,-13.36
61.57,-13.22
62.18,-13.10
62.80,-13.03
63.43,-12.89
64.07,-12.72
64.71,-12.64
65.35,-12.55
66.01,-12.43
66.67,-12.28
67.33,-12.16
68.01,-12.05
68.69,-11.98
69.37,-11.87
70.07,-11.73
70.77,-11.57
71.48,-11.46
72.19,-11.36
72.91,-11.20
73.64,-11.11
74.38,-11.04
75.12,-10.97
75.87,-10.90
76.63,-10.67
77.40,-10.53
78.17,-10.50
78.95,-10.50
79.74,-10.33
80.54,-10.19
81.35,-10.10
82.16,-10.01
82.98,-9.88
83.81,-9.82
84.65,-9.67
85.50,-9.56
86.35,-9.50
87.22,-9.44
88.09,-9.29
88.97,-9.14
89.86,-9.05
90.76,-9.02
91.66,-8.94
92.58,-8.82
93.51,-8.72
94.44,-8.67
95.39,-8.58
96.34,-8.41
97.30,-8.30
98.28,-8.22
99.26,-8.16
100.25,-8.00
101.25,-7.99
102.27,-7.96
103.29,-7.84
104.32,-7.74
105.37,-7.65
106.42,-7.56
107.48,-7.49
108.56,-7.43
109.64,-7.35
110.74,-7.30
111.85,-7.21
112.97,-7.17
114.10,-6.96
115.24,-6.93
116.39,-6.81
117.55,-6.74
118.73,-6.74
119.92,-6.73
121.12,-6.51
122.33,-6.51
123.55,-6.41
124.79,-6.29
126.03,-6.20
127.29,-6.18
128.57,-6.12
129.85,-5.96
131.15,-5.94
132.46,-5.94
133.79,-5.87
135.12,-5.81
136.48,-5.71
137.84,-5.61
139.22,-5.60
140.61,-5.60
142.02,-5.49
143.44,-5.40
144.87,-5.37
146.32,-5.30
147.78,-5.26
149.26,-5.26
150.75,-5.15
152.26,-5.06
153.78,-5.03
155.32,-5.00
156.88,-4.92
158.44,-4.91
160.03,-4.85
161.63,-4.72
163.24,-4.69
164.88,-4.69
166.53,-4.60
168.19,-4.57
169.87,-4.52
171.57,-4.38
173.29,-4.34
175.02,-4.34
176.77,-4.25
178.54,-4.23
180.32,-4.23
182.13,-4.23
183.95,-4.18
185.79,-4.12
187.65,-4.03
189.52,-3.92
191.42,-3.89
193.33,-3.89
195.27,-3.84
197.22,-3.79
199.19,-3.78
201.18,-3.78
203.19,-3.76
205.23,-3.69
207.28,-3.66
209.35,-3.66
211.44,-3.53
213.56,-3.44
215.69,-3.43
217.85,-3.43
220.03,-3.39
222.23,-3.34
224.45,-3.32
226.70,-3.32
228.96,-3.24
231.25,-3.22
233.57,-3.21
235.90,-3.21
238.26,-3.16
240.64,-3.10
243.05,-3.01
245.48,-2.98
247.93,-2.98
250.41,-2.88
252.92,-2.86
255.45,-2.86
258.00,-2.86
260.58,-2.79
263.19,-2.76
265.82,-2.75
268.48,-2.75
271.16,-2.75
273.87,-2.70
276.61,-2.65
279.38,-2.64
282.17,-2.55
284.99,-2.49
287.84,-2.42
290.72,-2.41
293.63,-2.41
296.57,-2.41
299.53,-2.33
302.53,-2.29
305.55,-2.29
308.61,-2.29
311.69,-2.29
314.81,-2.22
317.96,-2.11
321.14,-2.06
324.35,-2.06
327.59,-2.06
330.87,-2.06
334.18,-2.06
337.52,-2.06
340.90,-2.07
344.30,-2.15
347.75,-2.15
351.23,-2.08
354.74,-2.06
358.28,-1.95
361.87,-1.86
365.49,-1.84
369.14,-1.84
372.83,-1.84
376.56,-1.84
380.33,-1.74
384.13,-1.63
387.97,-1.61
391.85,-1.61
395.77,-1.61
399.73,-1.61
403.72,-1.57
407.76,-1.52
411.84,-1.43
415.96,-1.39
420.12,-1.38
424.32,-1.38
428.56,-1.38
432.85,-1.34
437.18,-1.28
441.55,-1.27
445.96,-1.19
450.42,-1.15
454.93,-1.06
459.48,-1.04
464.07,-1.04
468.71,-1.04
473.40,-1.04
478.13,-1.04
482.91,-0.95
487.74,-0.92
492.62,-0.92
497.55,-0.92
502.52,-0.86
507.55,-0.82
512.62,-0.81
517.75,-0.79
522.93,-0.69
528.16,-0.59
533.44,-0.58
538.77,-0.58
544.16,-0.51
549.60,-0.47
555.10,-0.45
560.65,-0.37
566.25,-0.35
571.92,-0.35
577.64,-0.35
583.41,-0.35
589.25,-0.27
595.14,-0.24
601.09,-0.21
607.10,-0.14
613.17,-0.13
619.30,-0.13
625.50,-0.04
631.75,-0.01
638.07,0.03
644.45,0.17
650.89,0.21
657.40,0.21
663.98,0.29
670.62,0.33
677.32,0.33
684.10,0.33
690.94,0.36
697.85,0.43
704.83,0.44
711.87,0.44
718.99,0.46
726.18,0.53
733.44,0.55
740.78,0.55
748.19,0.55
755.67,0.55
763.23,0.55
770.86,0.55
778.57,0.57
786.35,0.65
794.22,0.67
802.16,0.67
810.18,0.67
818.28,0.67
826.46,0.67
834.73,0.67
843.08,0.67
851.51,0.67
860.02,0.67
868.62,0.67
877.31,0.58
886.08,0.56
894.94,0.56
903.89,0.56
912.93,0.56
922.06,0.56
931.28,0.38
940.59,0.33
950.00,0.33
959.50,0.33
969.09,0.23
978.78,0.12
988.57,0.10
998.46,0.02
1008.44,-0.03
1018.53,-0.11
1028.71,-0.17
1039.00,-0.23
1049.39,-0.32
1059.88,-0.51
1070.48,-0.59
1081.19,-0.70
1092.00,-0.83
1102.92,-0.96
1113.95,-1.09
1125.09,-1.29
1136.34,-1.46
1147.70,-1.64
1159.18,-1.84
1170.77,-2.00
1182.48,-2.16
1194.30,-2.33
1206.25,-2.48
1218.31,-2.70
1230.49,-2.73
1242.80,-2.66
1255.22,-2.62
1267.78,-2.53
1280.45,-2.37
1293.26,-2.30
1306.19,-2.29
1319.25,-2.19
1332.45,-2.11
1345.77,-2.16
1359.23,-2.24
1372.82,-2.28
1386.55,-2.29
1400.41,-2.46
1414.42,-2.55
1428.56,-2.62
1442.85,-2.64
1457.28,-2.77
1471.85,-2.86
1486.57,-3.04
1501.43,-3.09
1516.45,-3.09
1531.61,-3.18
1546.93,-3.40
1562.40,-3.53
1578.02,-3.71
1593.80,-3.86
1609.74,-4.07
1625.84,-4.14
1642.10,-4.21
1658.52,-4.28
1675.10,-4.48
1691.85,-4.56
1708.77,-4.74
1725.86,-4.85
1743.12,-4.99
1760.55,-5.12
1778.15,-5.29
1795.94,-5.36
1813.90,-5.55
1832.03,-5.62
1850.36,-5.79
1868.86,-5.87
1887.55,-5.98
1906.42,-6.04
1925.49,-6.13
1944.74,-6.17
1964.19,-6.25
1983.83,-6.28
2003.67,-6.28
2023.71,-6.28
2043.94,-6.35
2064.38,-6.39
2085.03,-6.40
2105.88,-6.40
2126.94,-6.40
2148.20,-6.40
2169.69,-6.40
2191.38,-6.40
2213.30,-6.40
2235.43,-6.38
2257.78,-6.30
2280.36,-6.24
2303.17,-6.13
2326.20,-6.06
2349.46,-5.97
2372.95,-5.94
2396.68,-5.83
2420.65,-5.73
2444.86,-5.67
2469.31,-5.55
2494.00,-5.42
2518.94,-5.29
2544.13,-5.26
2569.57,-5.24
2595.27,-5.16
2621.22,-5.09
2647.43,-4.98
2673.90,-4.85
2700.64,-4.72
2727.65,-4.67
2754.93,-4.59
2782.48,-4.57
2810.30,-4.57
2838.40,-4.57
2866.79,-4.57
2895.46,-4.57
2924.41,-4.59
2953.65,-4.67
2983.19,-4.73
3013.02,-4.79
3043.15,-4.80
3073.58,-4.80
3104.32,-4.89
3135.36,-5.01
3166.72,-5.06
3198.38,-5.12
3230.37,-5.25
3262.67,-5.42
3295.30,-5.57
3328.25,-5.71
3361.53,-5.95
3395.15,-6.23
3429.10,-6.44
3463.39,-6.68
3498.03,-6.93
3533.01,-7.06
3568.34,-7.18
3604.02,-7.31
3640.06,-7.40
3676.46,-7.42
3713.22,-7.36
3750.36,-7.32
3787.86,-7.31
3825.74,-7.40
3864.00,-7.42
3902.64,-7.42
3941.66,-7.45
3981.08,-7.58
4020.89,-7.64
4061.10,-7.65
4101.71,-7.66
4142.73,-7.68
4184.15,-7.56
4226.00,-7.41
4268.26,-7.26
4310.94,-7.11
4354.05,-6.96
4397.59,-6.78
4441.56,-6.66
4485.98,-6.43
4530.84,-6.21
4576.15,-6.00
4621.91,-5.76
4668.13,-5.60
4714.81,-5.50
4761.96,-5.46
4809.58,-5.44
4857.67,-5.39
4906.25,-5.33
4955.31,-5.31
5004.87,-5.31
5054.91,-5.31
5105.46,-5.26
5156.52,-5.18
5208.08,-5.11
5260.16,-5.09
5312.77,-5.10
5365.89,-5.19
5419.55,-5.34
5473.75,-5.71
5528.49,-6.24
5583.77,-6.87
5639.61,-7.34
5696.00,-7.89
5752.96,-8.45
5810.49,-9.08
5868.60,-9.71
5927.28,-10.31
5986.56,-10.74
6046.42,-11.12
6106.89,-11.52
6167.96,-11.90
6229.64,-12.34
6291.93,-12.82
6354.85,-13.21
6418.40,-13.55
6482.58,-13.88
6547.41,-14.16
6612.88,-14.33
6679.01,-14.56
6745.80,-14.82
6813.26,-15.08
6881.39,-15.34
6950.21,-15.58
7019.71,-15.68
7089.91,-15.82
7160.81,-15.91
7232.41,-15.96
7304.74,-15.97
7377.79,-16.06
7451.56,-16.10
7526.08,-16.17
7601.34,-16.10
7677.35,-15.99
7754.13,-15.97
7831.67,-15.80
7909.98,-15.72
7989.08,-15.56
8068.98,-15.44
8149.67,-15.22
8231.16,-14.92
8313.47,-14.64
8396.61,-14.24
8480.57,-13.87
8565.38,-13.41
8651.03,-13.06
8737.54,-12.86
8824.92,-12.85
8913.17,-12.92
9002.30,-13.13
9092.32,-13.41
9183.25,-13.79
9275.08,-14.20
9367.83,-14.55
9461.51,-14.84
9556.12,-15.18
9651.68,-15.56
9748.20,-15.79
9845.68,-15.93
9944.14,-15.98
10043.58,-15.94
10144.02,-15.84
10245.46,-15.63
10347.91,-15.37
10451.39,-15.07
10555.91,-14.68
10661.46,-14.33
10768.08,-14.10
10875.76,-13.96
10984.52,-13.97
11094.36,-14.17
11205.31,-14.65
11317.36,-15.27
11430.53,-15.92
11544.84,-16.52
11660.29,-17.27
11776.89,-18.12
11894.66,-19.05
12013.60,-19.85
12133.74,-20.51
12255.08,-21.12
12377.63,-21.66
12501.41,-22.13
12626.42,-22.62
12752.68,-23.34
12880.21,-24.23
13009.01,-25.11
13139.10,-25.95
13270.49,-26.87
13403.20,-27.72
13537.23,-28.65
13672.60,-29.49
13809.33,-30.15
13947.42,-30.73
14086.90,-31.36
14227.77,-32.29
14370.04,-33.31
14513.74,-34.33
14658.88,-35.27
14805.47,-36.06
14953.52,-36.77
15103.06,-37.46
15254.09,-38.09
15406.63,-38.54
15560.70,-38.93
15716.30,-39.19
15873.47,-39.29
16032.20,-39.29
16192.52,-39.27
16354.45,-39.28
16517.99,-39.33
16683.17,-39.39
16850.01,-39.38
17018.51,-39.13
17188.69,-38.62
17360.58,-37.87
17534.18,-36.83
17709.53,-35.60
17886.62,-34.27
18065.49,-32.93
18246.14,-31.53
18428.60,-29.92
18612.89,-28.38
18799.02,-27.13
18987.01,-26.52
19176.88,-26.36
19368.65,-26.41
19562.33,-26.71
19757.96,-27.26
19955.54,-27.81
