frequency,raw,smoothed,error,error_smoothed,equalization,parametric_eq,fixed_band_eq,equalized_raw,equalized_smoothed,target
20.00,4.96,4.96,-3.38,-3.38,3.38,2.90,0.99,8.35,8.35,8.35
20.20,4.99,4.99,-3.35,-3.35,3.36,2.89,1.02,8.35,8.35,8.35
20.40,5.02,5.02,-3.32,-3.32,3.33,2.88,1.05,8.35,8.35,8.35
20.61,5.05,5.05,-3.29,-3.30,3.30,2.87,1.08,8.35,8.35,8.34
20.81,5.07,5.07,-3.27,-3.27,3.27,2.86,1.11,8.34,8.34,8.34
21.02,5.10,5.10,-3.24,-3.24,3.23,2.85,1.15,8.34,8.34,8.34
21.23,5.13,5.13,-3.21,-3.21,3.20,2.84,1.18,8.33,8.34,8.34
21.44,5.17,5.17,-3.17,-3.17,3.17,2.83,1.22,8.34,8.34,8.34
21.66,5.20,5.21,-3.14,-3.14,3.14,2.82,1.25,8.34,8.34,8.34
21.87,5.24,5.24,-3.10,-3.10,3.10,2.81,1.29,8.34,8.34,8.34
22.09,5.28,5.28,-3.06,-3.06,3.06,2.80,1.33,8.35,8.34,8.34
22.31,5.31,5.31,-3.03,-3.02,3.03,2.79,1.37,8.34,8.34,8.34
22.54,5.34,5.35,-3.00,-2.99,2.99,2.78,1.41,8.33,8.34,8.34
22.76,5.38,5.38,-2.95,-2.96,2.96,2.77,1.45,8.34,8.34,8.34
22.99,5.41,5.41,-2.92,-2.92,2.92,2.76,1.49,8.34,8.33,8.34
23.22,5.44,5.44,-2.89,-2.89,2.89,2.75,1.54,8.33,8.33,8.33
23.45,5.47,5.48,-2.86,-2.86,2.86,2.74,1.58,8.33,8.33,8.33
23.69,5.51,5.51,-2.82,-2.82,2.82,2.73,1.63,8.34,8.33,8.33
23.92,5.54,5.54,-2.79,-2.79,2.79,2.71,1.68,8.33,8.33,8.33
24.16,5.57,5.57,-2.76,-2.76,2.76,2.70,1.72,8.33,8.33,8.33
24.40,5.60,5.60,-2.73,-2.73,2.73,2.69,1.77,8.33,8.33,8.33
24.65,5.63,5.63,-2.70,-2.70,2.69,2.68,1.82,8.33,8.33,8.33
24.89,5.66,5.66,-2.66,-2.66,2.66,2.67,1.87,8.33,8.33,8.33
25.14,5.69,5.69,-2.63,-2.63,2.63,2.65,1.92,8.32,8.32,8.33
25.39,5.72,5.72,-2.60,-2.60,2.60,2.64,1.97,8.32,8.32,8.32
25.65,5.75,5.75,-2.57,-2.57,2.57,2.63,2.02,8.32,8.32,8.32
25.91,5.78,5.78,-2.54,-2.54,2.54,2.62,2.07,8.32,8.32,8.32
26.16,5.80,5.81,-2.52,-2.51,2.51,2.60,2.12,8.31,8.32,8.32
26.43,5.83,5.83,-2.49,-2.48,2.48,2.59,2.17,8.32,8.32,8.32
26.69,5.86,5.86,-2.45,-2.46,2.46,2.58,2.22,8.32,8.32,8.32
26.96,5.88,5.88,-2.43,-2.43,2.44,2.56,2.26,8.32,8.32,8.31
27.23,5.90,5.90,-2.41,-2.41,2.42,2.55,2.31,8.32,8.32,8.31
27.50,5.91,5.92,-2.40,-2.40,2.40,2.53,2.35,8.31,8.31,8.31
27.77,5.93,5.93,-2.38,-2.38,2.38,2.52,2.40,8.31,8.31,8.31
28.05,5.94,5.94,-2.36,-2.36,2.36,2.51,2.44,8.30,8.30,8.31
28.33,5.96,5.96,-2.34,-2.34,2.34,2.49,2.47,8.30,8.30,8.30
28.62,5.98,5.98,-2.32,-2.32,2.32,2.48,2.51,8.30,8.30,8.30
28.90,6.00,6.00,-2.30,-2.30,2.30,2.46,2.54,8.30,8.30,8.30
29.19,6.02,6.02,-2.28,-2.28,2.28,2.45,2.57,8.30,8.30,8.30
29.48,6.04,6.04,-2.25,-2.25,2.25,2.43,2.60,8.29,8.29,8.30
29.78,6.06,6.06,-2.23,-2.23,2.23,2.42,2.62,8.29,8.29,8.29
30.08,6.08,6.09,-2.21,-2.20,2.20,2.40,2.64,8.29,8.29,8.29
30.38,6.11,6.11,-2.18,-2.18,2.18,2.38,2.66,8.29,8.29,8.29
30.68,6.13,6.13,-2.15,-2.15,2.16,2.37,2.67,8.29,8.29,8.28
30.99,6.15,6.15,-2.13,-2.13,2.13,2.35,2.68,8.28,8.29,8.28
31.30,6.17,6.17,-2.11,-2.11,2.11,2.33,2.68,8.28,8.28,8.28
31.61,6.19,6.19,-2.08,-2.09,2.09,2.32,2.68,8.28,8.28,8.28
31.93,6.20,6.21,-2.07,-2.07,2.06,2.30,2.68,8.27,8.27,8.27
32.24,6.22,6.22,-2.05,-2.05,2.04,2.28,2.67,8.27,8.27,8.27
32.57,6.24,6.24,-2.02,-2.02,2.02,2.27,2.66,8.26,8.26,8.27
32.89,6.26,6.26,-2.00,-2.00,2.00,2.25,2.64,8.26,8.26,8.26
33.22,6.27,6.28,-1.99,-1.98,1.98,2.23,2.62,8.25,8.26,8.26
33.55,6.29,6.29,-1.96,-1.96,1.96,2.21,2.60,8.25,8.25,8.25
33.89,6.31,6.31,-1.94,-1.94,1.94,2.20,2.57,8.25,8.25,8.25
34.23,6.32,6.33,-1.92,-1.92,1.92,2.18,2.54,8.24,8.25,8.25
34.57,6.34,6.34,-1.90,-1.90,1.90,2.16,2.51,8.24,8.24,8.24
34.92,6.35,6.35,-1.88,-1.88,1.88,2.14,2.47,8.24,8.24,8.24
35.27,6.36,6.37,-1.87,-1.87,1.87,2.12,2.44,8.23,8.23,8.23
35.62,6.38,6.38,-1.84,-1.85,1.85,2.10,2.40,8.23,8.23,8.23
35.97,6.39,6.39,-1.83,-1.83,1.83,2.08,2.36,8.22,8.22,8.22
36.33,6.40,6.40,-1.81,-1.81,1.81,2.06,2.32,8.22,8.22,8.22
36.70,6.41,6.41,-1.80,-1.80,1.80,2.04,2.28,8.21,8.21,8.21
37.06,6.42,6.42,-1.78,-1.78,1.78,2.03,2.23,8.20,8.20,8.21
37.43,6.43,6.43,-1.77,-1.77,1.77,2.00,2.19,8.20,8.20,8.20
37.81,6.44,6.44,-1.75,-1.75,1.75,1.98,2.15,8.19,8.19,8.19
38.19,6.45,6.45,-1.74,-1.74,1.73,1.96,2.10,8.19,8.19,8.19
38.57,6.46,6.46,-1.72,-1.72,1.72,1.94,2.06,8.18,8.18,8.18
38.95,6.47,6.47,-1.70,-1.70,1.70,1.92,2.01,8.18,8.18,8.17
39.34,6.48,6.48,-1.68,-1.69,1.69,1.90,1.97,8.17,8.17,8.17
39.74,6.49,6.49,-1.67,-1.67,1.67,1.88,1.93,8.16,8.16,8.16
40.14,6.49,6.50,-1.66,-1.66,1.65,1.86,1.89,8.15,8.15,8.15
40.54,6.50,6.50,-1.64,-1.64,1.64,1.84,1.85,8.14,8.14,8.14
40.94,6.51,6.51,-1.62,-1.62,1.62,1.81,1.81,8.14,8.14,8.14
41.35,6.52,6.52,-1.61,-1.61,1.61,1.79,1.77,8.13,8.13,8.13
41.76,6.53,6.53,-1.59,-1.59,1.59,1.77,1.73,8.12,8.12,8.12
42.18,6.53,6.54,-1.58,-1.57,1.58,1.75,1.69,8.11,8.11,8.11
42.60,6.54,6.54,-1.56,-1.56,1.56,1.72,1.65,8.10,8.10,8.10
43.03,6.54,6.54,-1.55,-1.55,1.54,1.70,1.62,8.08,8.09,8.09
43.46,6.55,6.55,-1.53,-1.53,1.52,1.68,1.59,8.08,8.08,8.08
43.90,6.56,6.56,-1.51,-1.51,1.51,1.65,1.55,8.07,8.07,8.07
44.33,6.57,6.57,-1.49,-1.49,1.49,1.63,1.52,8.06,8.06,8.06
44.78,6.58,6.58,-1.47,-1.47,1.47,1.61,1.49,8.05,8.05,8.05
45.23,6.58,6.59,-1.45,-1.45,1.45,1.58,1.47,8.03,8.04,8.04
45.68,6.59,6.59,-1.43,-1.43,1.43,1.56,1.44,8.03,8.03,8.02
46.13,6.60,6.60,-1.41,-1.41,1.42,1.53,1.41,8.02,8.02,8.01
46.60,6.60,6.61,-1.40,-1.39,1.40,1.51,1.39,8.00,8.00,8.00
47.06,6.61,6.61,-1.37,-1.38,1.38,1.48,1.36,7.99,7.99,7.99
47.53,6.60,6.60,-1.37,-1.37,1.36,1.46,1.34,7.96,7.97,7.97
48.01,6.60,6.61,-1.36,-1.35,1.34,1.43,1.32,7.95,7.95,7.96
48.49,6.61,6.61,-1.33,-1.33,1.32,1.41,1.30,7.94,7.94,7.94
48.97,6.62,6.62,-1.31,-1.31,1.31,1.38,1.28,7.93,7.93,7.93
49.46,6.63,6.63,-1.28,-1.28,1.29,1.35,1.26,7.92,7.92,7.91
49.96,6.63,6.63,-1.26,-1.26,1.27,1.33,1.24,7.90,7.90,7.90
50.46,6.63,6.63,-1.25,-1.25,1.25,1.30,1.23,7.88,7.88,7.88
50.96,6.63,6.63,-1.23,-1.23,1.23,1.27,1.21,7.86,7.86,7.86
51.47,6.62,6.63,-1.22,-1.22,1.21,1.24,1.19,7.84,7.84,7.84
51.99,6.62,6.62,-1.20,-1.20,1.20,1.22,1.18,7.82,7.82,7.82
52.51,6.62,6.62,-1.18,-1.18,1.18,1.19,1.16,7.80,7.80,7.80
53.03,6.62,6.62,-1.16,-1.17,1.17,1.16,1.15,7.79,7.78,7.78
53.56,6.61,6.62,-1.15,-1.15,1.15,1.13,1.13,7.76,7.76,7.76
54.10,6.61,6.61,-1.13,-1.13,1.13,1.10,1.12,7.74,7.74,7.74
54.64,6.61,6.61,-1.11,-1.11,1.11,1.07,1.10,7.72,7.72,7.72
55.18,6.61,6.61,-1.09,-1.09,1.09,1.04,1.09,7.70,7.70,7.70
55.74,6.60,6.60,-1.07,-1.07,1.07,1.01,1.07,7.67,7.67,7.68
56.29,6.59,6.60,-1.06,-1.05,1.05,0.98,1.06,7.64,7.65,7.65
56.86,6.59,6.59,-1.03,-1.03,1.03,0.95,1.04,7.62,7.62,7.63
57.42,6.59,6.59,-1.01,-1.01,1.01,0.92,1.03,7.60,7.60,7.60
58.00,6.58,6.59,-0.99,-0.99,0.99,0.89,1.01,7.57,7.58,7.57
58.58,6.58,6.58,-0.96,-0.97,0.97,0.86,0.99,7.55,7.55,7.55
59.16,6.57,6.57,-0.95,-0.95,0.95,0.83,0.97,7.52,7.52,7.52
59.76,6.56,6.57,-0.93,-0.92,0.92,0.80,0.95,7.49,7.49,7.49
60.35,6.56,6.56,-0.90,-0.90,0.90,0.76,0.93,7.46,7.46,7.46
60.96,6.55,6.55,-0.88,-0.88,0.88,0.73,0.91,7.43,7.43,7.43
61.57,6.54,6.54,-0.86,-0.85,0.85,0.70,0.88,7.40,7.40,7.40
62.18,6.53,6.54,-0.83,-0.83,0.83,0.67,0.86,7.36,7.37,7.37
62.80,6.53,6.53,-0.80,-0.80,0.80,0.63,0.83,7.34,7.33,7.33
63.43,6.52,6.52,-0.78,-0.78,0.78,0.60,0.80,7.30,7.30,7.30
64.07,6.51,6.51,-0.75,-0.75,0.75,0.56,0.77,7.26,7.26,7.26
64.71,6.50,6.51,-0.72,-0.72,0.72,0.53,0.74,7.22,7.23,7.23
65.35,6.50,6.50,-0.69,-0.69,0.69,0.49,0.70,7.19,7.19,7.19
66.01,6.49,6.49,-0.66,-0.66,0.66,0.46,0.67,7.15,7.15,7.15
66.67,6.48,6.48,-0.63,-0.63,0.63,0.42,0.63,7.11,7.11,7.11
67.33,6.47,6.47,-0.60,-0.60,0.60,0.39,0.60,7.07,7.07,7.07
68.01,6.46,6.46,-0.57,-0.57,0.57,0.35,0.56,7.03,7.03,7.03
68.69,6.45,6.46,-0.54,-0.53,0.53,0.31,0.52,6.99,6.99,6.99
69.37,6.45,6.45,-0.49,-0.50,0.50,0.27,0.48,6.95,6.95,6.95
70.07,6.44,6.44,-0.46,-0.46,0.47,0.24,0.43,6.91,6.91,6.90
70.77,6.42,6.43,-0.44,-0.43,0.43,0.20,0.39,6.85,6.86,6.86
71.48,6.41,6.41,-0.40,-0.40,0.40,0.16,0.35,6.81,6.81,6.81
72.19,6.40,6.40,-0.36,-0.36,0.36,0.12,0.30,6.76,6.76,6.76
72.91,6.39,6.39,-0.32,-0.32,0.32,0.08,0.25,6.71,6.71,6.72
73.64,6.38,6.39,-0.28,-0.28,0.28,0.04,0.21,6.66,6.67,6.67
74.38,6.38,6.38,-0.23,-0.24,0.24,0.00,0.16,6.62,6.62,6.62
75.12,6.37,6.37,-0.19,-0.19,0.20,-0.04,0.11,6.57,6.57,6.57
75.87,6.36,6.36,-0.15,-0.15,0.15,-0.08,0.06,6.51,6.51,6.51
76.63,6.35,6.35,-0.11,-0.11,0.11,-0.12,0.01,6.46,6.46,6.46
77.40,6.34,6.34,-0.06,-0.06,0.06,-0.16,-0.04,6.40,6.40,6.41
78.17,6.33,6.34,-0.02,-0.01,0.01,-0.20,-0.09,6.35,6.35,6.35
78.95,6.33,6.33,0.04,0.03,-0.03,-0.25,-0.15,6.30,6.30,6.29
79.74,6.32,6.32,0.09,0.08,-0.08,-0.29,-0.20,6.24,6.24,6.24
80.54,6.30,6.31,0.12,0.13,-0.13,-0.33,-0.25,6.17,6.18,6.18
81.35,6.29,6.29,0.17,0.17,-0.18,-0.38,-0.31,6.12,6.12,6.12
82.16,6.28,6.28,0.22,0.22,-0.23,-0.42,-0.36,6.06,6.06,6.06
82.98,6.27,6.27,0.27,0.27,-0.28,-0.46,-0.42,6.00,6.00,6.00
83.81,6.26,6.26,0.33,0.33,-0.33,-0.51,-0.47,5.94,5.94,5.94
84.65,6.25,6.25,0.38,0.38,-0.38,-0.55,-0.53,5.87,5.87,5.87
85.50,6.24,6.24,0.43,0.43,-0.43,-0.60,-0.59,5.81,5.81,5.81
86.35,6.22,6.23,0.48,0.48,-0.48,-0.64,-0.64,5.74,5.74,5.74
87.22,6.21,6.21,0.53,0.53,-0.54,-0.69,-0.70,5.68,5.68,5.68
88.09,6.20,6.20,0.59,0.59,-0.59,-0.73,-0.76,5.61,5.61,5.61
88.97,6.19,6.19,0.65,0.65,-0.64,-0.78,-0.82,5.55,5.55,5.55
89.86,6.18,6.18,0.70,0.70,-0.69,-0.83,-0.88,5.49,5.49,5.48
90.76,6.16,6.16,0.75,0.75,-0.74,-0.87,-0.94,5.42,5.41,5.41
91.66,6.13,6.14,0.79,0.79,-0.80,-0.92,-1.00,5.34,5.34,5.34
92.58,6.11,6.12,0.84,0.84,-0.85,-0.97,-1.06,5.26,5.27,5.27
93.51,6.10,6.10,0.90,0.90,-0.90,-1.01,-1.13,5.20,5.20,5.20
94.44,6.09,6.09,0.96,0.95,-0.95,-1.06,-1.19,5.14,5.13,5.13
95.39,6.07,6.07,1.01,1.01,-1.01,-1.11,-1.25,5.07,5.07,5.06
96.34,6.05,6.05,1.06,1.06,-1.06,-1.15,-1.32,4.99,4.99,4.99
97.30,6.03,6.04,1.11,1.12,-1.11,-1.20,-1.38,4.92,4.92,4.92
98.28,6.02,6.02,1.17,1.17,-1.17,-1.25,-1.44,4.85,4.85,4.85
99.26,6.00,6.00,1.23,1.23,-1.22,-1.30,-1.51,4.78,4.78,4.78
100.25,5.98,5.98,1.28,1.28,-1.28,-1.34,-1.57,4.70,4.70,4.70
101.25,5.96,5.96,1.33,1.33,-1.33,-1.39,-1.64,4.63,4.63,4.63
102.27,5.94,5.95,1.38,1.39,-1.39,-1.44,-1.70,4.55,4.56,4.56
103.29,5.93,5.93,1.45,1.44,-1.44,-1.49,-1.77,4.49,4.49,4.49
104.32,5.91,5.91,1.50,1.50,-1.50,-1.53,-1.83,4.41,4.41,4.41
105.37,5.89,5.89,1.55,1.55,-1.55,-1.58,-1.90,4.34,4.34,4.34
106.42,5.87,5.87,1.61,1.61,-1.61,-1.63,-1.96,4.26,4.27,4.27
107.48,5.85,5.86,1.66,1.66,-1.66,-1.67,-2.02,4.19,4.19,4.19
108.56,5.84,5.84,1.72,1.72,-1.72,-1.72,-2.08,4.12,4.12,4.12
109.64,5.82,5.82,1.77,1.77,-1.78,-1.77,-2.14,4.05,4.05,4.05
110.74,5.80,5.81,1.83,1.83,-1.83,-1.81,-2.20,3.97,3.97,3.97
111.85,5.79,5.79,1.89,1.89,-1.89,-1.86,-2.26,3.90,3.90,3.90
112.97,5.77,5.77,1.94,1.94,-1.95,-1.90,-2.31,3.83,3.83,3.83
114.10,5.76,5.76,2.00,2.00,-2.00,-1.95,-2.37,3.76,3.76,3.76
115.24,5.74,5.75,2.05,2.06,-2.06,-1.99,-2.42,3.69,3.69,3.69
116.39,5.73,5.73,2.12,2.11,-2.11,-2.04,-2.46,3.62,3.62,3.62
117.55,5.71,5.71,2.17,2.16,-2.16,-2.08,-2.51,3.55,3.55,3.55
118.73,5.68,5.68,2.21,2.21,-2.21,-2.12,-2.55,3.48,3.48,3.48
119.92,5.65,5.66,2.25,2.25,-2.25,-2.17,-2.59,3.40,3.40,3.41
121.12,5.63,5.63,2.29,2.29,-2.29,-2.21,-2.62,3.34,3.33,3.34
122.33,5.60,5.60,2.33,2.33,-2.33,-2.25,-2.65,3.27,3.27,3.27
123.55,5.57,5.57,2.37,2.37,-2.37,-2.29,-2.68,3.20,3.20,3.20
124.79,5.54,5.54,2.41,2.40,-2.40,-2.34,-2.71,3.14,3.14,3.14
126.03,5.50,5.50,2.43,2.43,-2.43,-2.38,-2.73,3.07,3.07,3.07
127.29,5.46,5.46,2.46,2.46,-2.46,-2.42,-2.75,3.01,3.01,3.00
128.57,5.42,5.42,2.48,2.48,-2.48,-2.46,-2.76,2.94,2.94,2.94
129.85,5.38,5.38,2.51,2.50,-2.50,-2.50,-2.77,2.88,2.88,2.88
131.15,5.33,5.34,2.52,2.52,-2.52,-2.54,-2.78,2.82,2.82,2.81
132.46,5.29,5.29,2.54,2.54,-2.53,-2.57,-2.79,2.76,2.75,2.75
133.79,5.24,5.24,2.55,2.55,-2.56,-2.61,-2.79,2.69,2.69,2.69
135.12,5.20,5.20,2.57,2.57,-2.58,-2.65,-2.79,2.62,2.62,2.63
136.48,5.17,5.17,2.60,2.60,-2.62,-2.69,-2.79,2.56,2.56,2.57
137.84,5.15,5.16,2.64,2.64,-2.66,-2.72,-2.78,2.49,2.50,2.51
139.22,5.15,5.15,2.70,2.70,-2.71,-2.76,-2.78,2.45,2.44,2.45
140.61,5.15,5.15,2.76,2.76,-2.76,-2.79,-2.77,2.39,2.39,2.40
142.02,5.16,5.16,2.82,2.82,-2.82,-2.82,-2.76,2.34,2.34,2.34
143.44,5.17,5.17,2.89,2.89,-2.88,-2.86,-2.75,2.29,2.29,2.29
144.87,5.18,5.18,2.95,2.95,-2.94,-2.89,-2.74,2.24,2.24,2.23
146.32,5.19,5.19,3.01,3.01,-3.00,-2.92,-2.73,2.19,2.19,2.18
147.78,5.20,5.20,3.07,3.07,-3.06,-2.95,-2.72,2.14,2.14,2.13
149.26,5.19,5.19,3.11,3.12,-3.11,-2.98,-2.71,2.09,2.09,2.08
150.75,5.18,5.18,3.15,3.15,-3.15,-3.02,-2.70,2.03,2.03,2.03
152.26,5.17,5.17,3.19,3.19,-3.19,-3.04,-2.69,1.98,1.98,1.98
153.78,5.15,5.16,3.22,3.23,-3.23,-3.07,-2.68,1.92,1.92,1.93
155.32,5.15,5.15,3.27,3.26,-3.27,-3.10,-2.67,1.88,1.88,1.89
156.88,5.13,5.14,3.29,3.30,-3.30,-3.13,-2.66,1.83,1.84,1.84
158.44,5.13,5.13,3.34,3.34,-3.33,-3.15,-2.66,1.80,1.80,1.80
160.03,5.13,5.12,3.38,3.37,-3.36,-3.18,-2.65,1.77,1.76,1.75
161.63,5.09,5.10,3.39,3.40,-3.39,-3.21,-2.65,1.70,1.71,1.70
163.24,5.07,5.08,3.41,3.42,-3.41,-3.23,-2.65,1.66,1.66,1.66
164.88,5.05,5.05,3.43,3.43,-3.43,-3.25,-2.65,1.62,1.62,1.62
166.53,5.03,5.03,3.45,3.45,-3.45,-3.28,-2.65,1.58,1.58,1.58
168.19,5.01,5.01,3.47,3.47,-3.47,-3.30,-2.66,1.54,1.54,1.54
169.87,4.98,4.99,3.48,3.49,-3.49,-3.32,-2.66,1.49,1.50,1.50
171.57,4.97,4.97,3.51,3.50,-3.51,-3.34,-2.67,1.47,1.46,1.47
173.29,4.95,4.95,3.52,3.52,-3.52,-3.36,-2.68,1.43,1.43,1.43
175.02,4.93,4.94,3.54,3.54,-3.54,-3.38,-2.69,1.39,1.40,1.40
176.77,4.92,4.92,3.56,3.56,-3.55,-3.40,-2.71,1.37,1.37,1.36
178.54,4.90,4.90,3.57,3.57,-3.57,-3.41,-2.73,1.34,1.34,1.33
180.32,4.88,4.88,3.58,3.58,-3.58,-3.43,-2.74,1.31,1.30,1.30
182.13,4.85,4.86,3.58,3.59,-3.59,-3.45,-2.77,1.27,1.27,1.27
183.95,4.83,4.83,3.59,3.59,-3.59,-3.46,-2.79,1.24,1.24,1.24
185.79,4.80,4.80,3.59,3.59,-3.60,-3.47,-2.82,1.21,1.20,1.21
187.65,4.77,4.78,3.59,3.60,-3.60,-3.49,-2.84,1.17,1.18,1.18
189.52,4.75,4.75,3.60,3.60,-3.60,-3.50,-2.87,1.16,1.16,1.15
191.42,4.73,4.73,3.61,3.60,-3.60,-3.51,-2.90,1.14,1.13,1.13
193.33,4.70,4.70,3.60,3.60,-3.60,-3.52,-2.94,1.11,1.10,1.10
195.27,4.66,4.67,3.59,3.59,-3.59,-3.53,-2.97,1.07,1.07,1.08
197.22,4.63,4.64,3.58,3.58,-3.59,-3.53,-3.01,1.04,1.04,1.05
199.19,4.61,4.61,3.58,3.58,-3.59,-3.54,-3.04,1.02,1.02,1.03
201.18,4.59,4.59,3.59,3.59,-3.58,-3.55,-3.08,1.01,1.01,1.00
203.19,4.57,4.57,3.59,3.59,-3.58,-3.55,-3.12,0.99,0.99,0.98
205.23,4.54,4.54,3.58,3.58,-3.57,-3.55,-3.16,0.97,0.97,0.96
207.28,4.50,4.51,3.56,3.57,-3.56,-3.56,-3.20,0.94,0.94,0.94
209.35,4.47,4.47,3.55,3.55,-3.55,-3.56,-3.24,0.92,0.92,0.92
211.44,4.44,4.44,3.54,3.54,-3.54,-3.56,-3.28,0.90,0.90,0.90
213.56,4.41,4.41,3.53,3.53,-3.53,-3.56,-3.32,0.88,0.88,0.88
215.69,4.38,4.38,3.52,3.52,-3.52,-3.55,-3.36,0.87,0.86,0.86
217.85,4.34,4.35,3.50,3.50,-3.50,-3.55,-3.40,0.84,0.85,0.85
220.03,4.31,4.31,3.48,3.48,-3.48,-3.54,-3.44,0.83,0.83,0.83
222.23,4.28,4.28,3.47,3.47,-3.47,-3.54,-3.48,0.81,0.81,0.81
224.45,4.25,4.25,3.46,3.46,-3.45,-3.53,-3.51,0.80,0.80,0.80
226.70,4.22,4.22,3.44,3.44,-3.44,-3.52,-3.54,0.78,0.78,0.78
228.96,4.18,4.19,3.42,3.42,-3.42,-3.51,-3.57,0.76,0.76,0.77
231.25,4.15,4.15,3.40,3.40,-3.41,-3.49,-3.59,0.75,0.75,0.75
233.57,4.12,4.12,3.38,3.39,-3.39,-3.48,-3.62,0.73,0.73,0.74
235.90,4.09,4.09,3.38,3.37,-3.37,-3.47,-3.63,0.72,0.72,0.71
238.26,4.06,4.06,3.36,3.36,-3.35,-3.45,-3.65,0.71,0.71,0.70
240.64,4.02,4.03,3.33,3.34,-3.33,-3.43,-3.65,0.69,0.69,0.69
243.05,3.99,3.99,3.32,3.31,-3.31,-3.41,-3.66,0.68,0.68,0.68
245.48,3.95,3.95,3.29,3.29,-3.29,-3.39,-3.66,0.66,0.66,0.66
247.93,3.91,3.92,3.26,3.26,-3.27,-3.37,-3.65,0.64,0.65,0.65
250.41,3.88,3.88,3.24,3.24,-3.24,-3.34,-3.64,0.64,0.64,0.64
252.92,3.85,3.85,3.22,3.22,-3.22,-3.32,-3.63,0.63,0.63,0.63
255.45,3.82,3.82,3.20,3.20,-3.19,-3.29,-3.60,0.63,0.63,0.62
258.00,3.78,3.78,3.17,3.17,-3.17,-3.27,-3.58,0.61,0.61,0.61
260.58,3.74,3.74,3.14,3.14,-3.14,-3.24,-3.55,0.60,0.60,0.60
263.19,3.70,3.71,3.11,3.11,-3.11,-3.21,-3.51,0.59,0.59,0.59
265.82,3.67,3.67,3.09,3.08,-3.08,-3.17,-3.47,0.59,0.58,0.58
268.48,3.63,3.63,3.06,3.06,-3.06,-3.14,-3.43,0.58,0.58,0.58
271.16,3.59,3.59,3.02,3.02,-3.03,-3.11,-3.38,0.57,0.57,0.57
273.87,3.55,3.55,2.99,2.99,-3.00,-3.07,-3.33,0.56,0.55,0.56
276.61,3.51,3.52,2.96,2.96,-2.97,-3.03,-3.27,0.55,0.55,0.55
279.38,3.48,3.48,2.94,2.94,-2.94,-3.00,-3.21,0.55,0.55,0.54
282.17,3.45,3.45,2.91,2.91,-2.90,-2.96,-3.15,0.55,0.54,0.54
284.99,3.41,3.41,2.87,2.87,-2.87,-2.92,-3.09,0.54,0.54,0.54
287.84,3.37,3.38,2.83,2.84,-2.83,-2.87,-3.02,0.54,0.54,0.54
290.72,3.34,3.34,2.80,2.80,-2.80,-2.83,-2.95,0.55,0.54,0.54
293.63,3.29,3.30,2.76,2.76,-2.76,-2.79,-2.88,0.54,0.54,0.53
296.57,3.25,3.25,2.72,2.72,-2.72,-2.75,-2.81,0.54,0.54,0.54
299.53,3.21,3.21,2.67,2.67,-2.68,-2.70,-2.74,0.54,0.53,0.54
302.53,3.16,3.17,2.63,2.63,-2.64,-2.65,-2.67,0.53,0.53,0.53
305.55,3.12,3.13,2.58,2.59,-2.59,-2.61,-2.60,0.53,0.53,0.54
308.61,3.09,3.09,2.56,2.56,-2.55,-2.56,-2.53,0.54,0.54,0.53
311.69,3.06,3.05,2.52,2.52,-2.51,-2.51,-2.46,0.55,0.54,0.54
314.81,3.01,3.01,2.48,2.48,-2.47,-2.46,-2.39,0.54,0.54,0.53
317.96,2.96,2.97,2.42,2.43,-2.43,-2.41,-2.32,0.53,0.54,0.54
321.14,2.92,2.92,2.39,2.38,-2.39,-2.36,-2.25,0.54,0.53,0.54
324.35,2.88,2.88,2.34,2.34,-2.34,-2.31,-2.18,0.54,0.54,0.54
327.59,2.84,2.84,2.30,2.30,-2.30,-2.26,-2.11,0.54,0.54,0.55
330.87,2.80,2.80,2.26,2.25,-2.25,-2.21,-2.04,0.55,0.55,0.54
334.18,2.75,2.75,2.20,2.21,-2.21,-2.16,-1.98,0.54,0.55,0.55
337.52,2.71,2.71,2.17,2.16,-2.16,-2.10,-1.91,0.55,0.55,0.55
340.90,2.66,2.67,2.11,2.11,-2.12,-2.05,-1.85,0.54,0.55,0.55
344.30,2.63,2.63,2.07,2.07,-2.07,-2.00,-1.79,0.56,0.56,0.56
347.75,2.59,2.59,2.03,2.03,-2.03,-1.95,-1.73,0.57,0.56,0.56
351.23,2.55,2.55,1.99,1.98,-1.98,-1.89,-1.67,0.57,0.57,0.56
354.74,2.50,2.51,1.92,1.93,-1.93,-1.84,-1.61,0.57,0.58,0.58
358.28,2.46,2.46,1.89,1.88,-1.88,-1.78,-1.55,0.58,0.58,0.58
361.87,2.41,2.41,1.83,1.83,-1.83,-1.73,-1.50,0.58,0.58,0.58
365.49,2.36,2.37,1.77,1.78,-1.78,-1.68,-1.44,0.58,0.58,0.59
369.14,2.32,2.32,1.73,1.73,-1.73,-1.62,-1.39,0.59,0.59,0.59
372.83,2.28,2.28,1.68,1.68,-1.68,-1.57,-1.34,0.60,0.60,0.60
376.56,2.24,2.24,1.64,1.63,-1.63,-1.51,-1.29,0.61,0.61,0.60
380.33,2.19,2.19,1.58,1.59,-1.58,-1.46,-1.24,0.61,0.61,0.61
384.13,2.14,2.15,1.53,1.54,-1.53,-1.40,-1.19,0.61,0.61,0.61
387.97,2.10,2.10,1.49,1.48,-1.48,-1.35,-1.14,0.62,0.62,0.62
391.85,2.06,2.06,1.43,1.43,-1.43,-1.30,-1.09,0.63,0.62,0.63
395.77,2.01,2.02,1.38,1.38,-1.38,-1.24,-1.05,0.63,0.63,0.63
399.73,1.97,1.97,1.33,1.33,-1.33,-1.19,-1.00,0.64,0.64,0.64
403.72,1.93,1.93,1.28,1.29,-1.28,-1.13,-0.96,0.65,0.65,0.65
407.76,1.88,1.89,1.24,1.24,-1.23,-1.08,-0.92,0.65,0.65,0.65
411.84,1.84,1.84,1.19,1.18,-1.18,-1.03,-0.88,0.66,0.66,0.65
415.96,1.79,1.79,1.13,1.13,-1.13,-0.97,-0.84,0.66,0.66,0.66
420.12,1.74,1.75,1.08,1.08,-1.08,-0.92,-0.80,0.66,0.66,0.66
424.32,1.70,1.70,1.03,1.03,-1.03,-0.87,-0.76,0.67,0.67,0.67
428.56,1.65,1.65,0.97,0.98,-0.98,-0.81,-0.72,0.67,0.67,0.68
432.85,1.61,1.61,0.93,0.93,-0.93,-0.76,-0.69,0.68,0.68,0.69
437.18,1.57,1.57,0.89,0.88,-0.88,-0.71,-0.65,0.69,0.69,0.68
441.55,1.53,1.53,0.84,0.84,-0.83,-0.66,-0.61,0.70,0.70,0.69
445.96,1.49,1.49,0.79,0.79,-0.78,-0.60,-0.58,0.71,0.71,0.70
450.42,1.45,1.45,0.73,0.73,-0.73,-0.55,-0.54,0.72,0.72,0.72
454.93,1.40,1.41,0.67,0.68,-0.68,-0.50,-0.51,0.72,0.72,0.73
459.48,1.36,1.36,0.62,0.63,-0.63,-0.45,-0.48,0.73,0.73,0.74
464.07,1.32,1.32,0.59,0.58,-0.58,-0.40,-0.44,0.74,0.74,0.74
468.71,1.27,1.28,0.53,0.53,-0.53,-0.35,-0.41,0.74,0.75,0.75
473.40,1.23,1.23,0.48,0.48,-0.48,-0.30,-0.38,0.76,0.76,0.76
478.13,1.19,1.19,0.43,0.42,-0.42,-0.25,-0.35,0.77,0.76,0.76
482.91,1.14,1.15,0.37,0.37,-0.37,-0.20,-0.32,0.77,0.77,0.77
487.74,1.10,1.10,0.32,0.32,-0.32,-0.15,-0.29,0.79,0.78,0.78
492.62,1.05,1.06,0.26,0.26,-0.26,-0.10,-0.26,0.79,0.79,0.79
497.55,1.01,1.01,0.21,0.21,-0.21,-0.06,-0.23,0.81,0.80,0.80
502.52,0.96,0.96,0.15,0.15,-0.15,-0.01,-0.20,0.81,0.81,0.81
507.55,0.91,0.92,0.08,0.09,-0.09,0.04,-0.17,0.82,0.82,0.83
512.62,0.87,0.87,0.03,0.03,-0.04,0.09,-0.14,0.83,0.83,0.84
517.75,0.83,0.83,-0.01,-0.02,0.02,0.13,-0.11,0.85,0.84,0.85
522.93,0.78,0.79,-0.07,-0.07,0.07,0.18,-0.09,0.85,0.86,0.86
528.16,0.74,0.74,-0.12,-0.12,0.13,0.23,-0.06,0.87,0.87,0.87
533.44,0.69,0.69,-0.18,-0.18,0.18,0.27,-0.03,0.87,0.87,0.87
538.77,0.65,0.65,-0.22,-0.23,0.24,0.32,-0.00,0.89,0.89,0.87
544.16,0.60,0.60,-0.29,-0.29,0.29,0.36,0.03,0.89,0.90,0.89
549.60,0.56,0.56,-0.34,-0.35,0.35,0.41,0.05,0.91,0.91,0.90
555.10,0.51,0.52,-0.41,-0.40,0.40,0.45,0.08,0.91,0.92,0.92
560.65,0.47,0.47,-0.46,-0.46,0.46,0.50,0.11,0.93,0.93,0.93
