frequency,raw,smoothed,error,error_smoothed,equalization,parametric_eq,fixed_band_eq,equalized_raw,equalized_smoothed,target
20.00,11.92,11.92,3.60,3.60,-3.60,-3.73,-1.51,8.32,8.32,8.32
20.20,11.90,11.90,3.60,3.60,-3.60,-3.72,-1.55,8.30,8.31,8.31
20.40,11.89,11.89,3.60,3.60,-3.60,-3.71,-1.60,8.29,8.29,8.30
20.61,11.88,11.88,3.60,3.60,-3.60,-3.70,-1.65,8.28,8.28,8.28
20.81,11.87,11.87,3.60,3.60,-3.60,-3.70,-1.69,8.27,8.27,8.27
21.02,11.86,11.86,3.60,3.60,-3.60,-3.69,-1.74,8.26,8.26,8.26
21.23,11.85,11.85,3.60,3.60,-3.60,-3.68,-1.80,8.25,8.25,8.25
21.44,11.84,11.84,3.60,3.60,-3.60,-3.67,-1.85,8.24,8.24,8.24
21.66,11.83,11.83,3.60,3.60,-3.60,-3.66,-1.90,8.23,8.23,8.23
21.87,11.82,11.82,3.60,3.60,-3.60,-3.65,-1.96,8.22,8.22,8.22
22.09,11.81,11.81,3.60,3.60,-3.60,-3.64,-2.02,8.21,8.21,8.21
22.31,11.79,11.80,3.59,3.60,-3.60,-3.63,-2.08,8.19,8.20,8.20
22.54,11.78,11.78,3.60,3.60,-3.59,-3.61,-2.14,8.19,8.19,8.19
22.76,11.77,11.77,3.60,3.59,-3.59,-3.60,-2.20,8.18,8.18,8.17
22.99,11.75,11.75,3.58,3.58,-3.59,-3.59,-2.27,8.17,8.17,8.17
23.22,11.74,11.74,3.58,3.58,-3.58,-3.58,-2.33,8.16,8.16,8.16
23.45,11.72,11.72,3.57,3.57,-3.58,-3.57,-2.40,8.15,8.15,8.15
23.69,11.71,11.71,3.57,3.57,-3.57,-3.56,-2.47,8.14,8.14,8.14
23.92,11.69,11.69,3.56,3.56,-3.56,-3.55,-2.54,8.13,8.13,8.13
24.16,11.67,11.67,3.55,3.56,-3.56,-3.53,-2.61,8.11,8.12,8.12
24.40,11.66,11.66,3.56,3.55,-3.55,-3.52,-2.68,8.11,8.11,8.11
24.65,11.64,11.64,3.54,3.54,-3.54,-3.51,-2.75,8.10,8.11,8.10
24.89,11.63,11.63,3.53,3.53,-3.53,-3.50,-2.82,8.10,8.10,8.10
25.14,11.61,11.61,3.51,3.51,-3.52,-3.48,-2.90,8.10,8.10,8.10
25.39,11.59,11.59,3.50,3.50,-3.50,-3.47,-2.97,8.09,8.09,8.09
25.65,11.57,11.57,3.48,3.48,-3.48,-3.46,-3.05,8.09,8.09,8.09
25.91,11.55,11.55,3.47,3.47,-3.47,-3.44,-3.12,8.09,8.08,8.08
26.16,11.53,11.53,3.45,3.45,-3.45,-3.43,-3.20,8.08,8.08,8.08
26.43,11.51,11.51,3.43,3.43,-3.43,-3.41,-3.27,8.08,8.08,8.08
26.69,11.49,11.49,3.41,3.41,-3.41,-3.40,-3.34,8.08,8.08,8.08
26.96,11.46,11.47,3.39,3.39,-3.39,-3.38,-3.41,8.07,8.08,8.08
27.23,11.44,11.44,3.37,3.37,-3.37,-3.37,-3.48,8.07,8.07,8.07
27.50,11.42,11.42,3.35,3.35,-3.35,-3.35,-3.55,8.07,8.07,8.07
27.77,11.40,11.40,3.33,3.33,-3.33,-3.34,-3.61,8.07,8.07,8.07
28.05,11.37,11.38,3.31,3.32,-3.32,-3.32,-3.68,8.06,8.06,8.06
28.33,11.35,11.35,3.30,3.30,-3.30,-3.31,-3.73,8.05,8.05,8.05
28.62,11.33,11.33,3.29,3.28,-3.28,-3.29,-3.79,8.05,8.04,8.04
28.90,11.30,11.30,3.26,3.27,-3.27,-3.27,-3.84,8.03,8.04,8.04
29.19,11.28,11.28,3.26,3.25,-3.25,-3.26,-3.88,8.03,8.03,8.03
29.48,11.25,11.25,3.24,3.24,-3.24,-3.24,-3.92,8.01,8.02,8.01
29.78,11.23,11.23,3.22,3.22,-3.22,-3.22,-3.96,8.01,8.01,8.01
30.08,11.20,11.20,3.21,3.21,-3.20,-3.21,-3.99,8.00,8.00,8.00
30.38,11.18,11.18,3.19,3.18,-3.18,-3.19,-4.02,8.00,7.99,7.99
30.68,11.15,11.15,3.16,3.16,-3.16,-3.17,-4.03,7.99,7.99,7.99
30.99,11.12,11.13,3.14,3.14,-3.14,-3.15,-4.05,7.98,7.99,7.99
31.30,11.10,11.10,3.12,3.11,-3.12,-3.13,-4.05,7.99,7.98,7.98
31.61,11.07,11.07,3.09,3.09,-3.09,-3.11,-4.05,7.98,7.98,7.98
31.93,11.04,11.05,3.06,3.07,-3.06,-3.09,-4.04,7.98,7.98,7.98
32.24,11.02,11.02,3.04,3.04,-3.04,-3.07,-4.03,7.98,7.98,7.98
32.57,10.99,10.99,3.02,3.01,-3.01,-3.05,-4.01,7.98,7.98,7.98
32.89,10.96,10.96,2.98,2.98,-2.98,-3.03,-3.99,7.98,7.98,7.98
33.22,10.93,10.93,2.95,2.96,-2.96,-3.01,-3.96,7.97,7.97,7.98
33.55,10.90,10.90,2.93,2.93,-2.93,-2.99,-3.93,7.97,7.97,7.97
33.89,10.87,10.87,2.92,2.91,-2.91,-2.97,-3.88,7.96,7.96,7.96
34.23,10.84,10.84,2.89,2.89,-2.89,-2.95,-3.84,7.95,7.95,7.95
34.57,10.81,10.81,2.87,2.87,-2.87,-2.93,-3.79,7.94,7.94,7.95
34.92,10.78,10.78,2.85,2.85,-2.85,-2.91,-3.74,7.93,7.93,7.93
35.27,10.75,10.75,2.84,2.84,-2.83,-2.88,-3.69,7.92,7.92,7.91
35.62,10.72,10.72,2.82,2.82,-2.82,-2.86,-3.63,7.90,7.90,7.90
35.97,10.68,10.68,2.80,2.80,-2.80,-2.84,-3.57,7.88,7.88,7.88
36.33,10.65,10.65,2.79,2.79,-2.79,-2.82,-3.51,7.86,7.86,7.87
36.70,10.61,10.61,2.77,2.77,-2.77,-2.79,-3.45,7.84,7.84,7.84
37.06,10.58,10.58,2.76,2.76,-2.76,-2.77,-3.38,7.82,7.82,7.82
37.43,10.54,10.54,2.75,2.75,-2.75,-2.75,-3.32,7.79,7.80,7.79
37.81,10.51,10.51,2.73,2.74,-2.73,-2.72,-3.25,7.78,7.78,7.78
38.19,10.47,10.47,2.72,2.72,-2.72,-2.70,-3.19,7.75,7.75,7.75
38.57,10.44,10.44,2.71,2.71,-2.71,-2.67,-3.12,7.74,7.73,7.73
38.95,10.40,10.40,2.69,2.69,-2.69,-2.65,-3.05,7.71,7.71,7.71
39.34,10.36,10.37,2.67,2.67,-2.67,-2.62,-2.99,7.69,7.69,7.69
39.74,10.33,10.33,2.66,2.65,-2.65,-2.60,-2.93,7.68,7.67,7.67
40.14,10.29,10.29,2.64,2.63,-2.63,-2.57,-2.86,7.66,7.66,7.66
40.54,10.25,10.26,2.61,2.61,-2.61,-2.55,-2.80,7.64,7.64,7.65
40.94,10.22,10.22,2.59,2.59,-2.59,-2.52,-2.74,7.63,7.63,7.64
41.35,10.18,10.18,2.57,2.56,-2.56,-2.50,-2.68,7.62,7.62,7.61
41.76,10.14,10.14,2.54,2.53,-2.53,-2.47,-2.62,7.61,7.61,7.60
42.18,10.10,10.10,2.50,2.50,-2.50,-2.45,-2.57,7.60,7.60,7.60
42.60,10.06,10.06,2.47,2.47,-2.47,-2.42,-2.51,7.59,7.59,7.59
43.03,10.02,10.02,2.44,2.44,-2.44,-2.39,-2.46,7.58,7.58,7.58
43.46,9.98,9.98,2.40,2.41,-2.41,-2.37,-2.41,7.58,7.58,7.58
43.90,9.94,9.94,2.37,2.37,-2.37,-2.34,-2.36,7.57,7.57,7.57
44.33,9.90,9.90,2.34,2.34,-2.34,-2.32,-2.31,7.56,7.56,7.56
44.78,9.86,9.86,2.31,2.31,-2.31,-2.29,-2.27,7.56,7.56,7.56
45.23,9.82,9.82,2.27,2.27,-2.27,-2.26,-2.22,7.55,7.55,7.55
45.68,9.78,9.78,2.24,2.24,-2.24,-2.24,-2.18,7.54,7.54,7.54
46.13,9.73,9.74,2.21,2.21,-2.21,-2.21,-2.14,7.52,7.53,7.52
46.60,9.69,9.69,2.18,2.18,-2.18,-2.19,-2.10,7.51,7.51,7.52
47.06,9.65,9.65,2.15,2.15,-2.15,-2.16,-2.07,7.50,7.50,7.50
47.53,9.60,9.60,2.12,2.12,-2.12,-2.13,-2.03,7.48,7.48,7.48
48.01,9.56,9.56,2.10,2.09,-2.09,-2.11,-2.00,7.47,7.47,7.46
48.49,9.51,9.51,2.07,2.07,-2.07,-2.08,-1.97,7.44,7.45,7.45
48.97,9.47,9.47,2.04,2.04,-2.04,-2.06,-1.94,7.43,7.43,7.43
49.46,9.42,9.42,2.01,2.02,-2.02,-2.03,-1.91,7.40,7.40,7.41
49.96,9.38,9.38,2.00,2.00,-2.00,-2.01,-1.88,7.38,7.38,7.38
50.46,9.33,9.33,1.97,1.98,-1.98,-1.98,-1.85,7.36,7.36,7.36
50.96,9.28,9.29,1.96,1.96,-1.95,-1.96,-1.83,7.33,7.33,7.33
51.47,9.24,9.24,1.94,1.93,-1.93,-1.93,-1.81,7.31,7.31,7.30
51.99,9.19,9.19,1.91,1.91,-1.91,-1.91,-1.79,7.28,7.28,7.28
52.51,9.14,9.15,1.88,1.89,-1.89,-1.89,-1.76,7.25,7.26,7.26
53.03,9.10,9.10,1.87,1.87,-1.87,-1.86,-1.75,7.23,7.23,7.23
53.56,9.05,9.05,1.84,1.84,-1.84,-1.84,-1.73,7.21,7.21,7.21
54.10,9.00,9.00,1.82,1.82,-1.82,-1.82,-1.71,7.18,7.18,7.18
54.64,8.95,8.95,1.80,1.80,-1.80,-1.80,-1.70,7.15,7.15,7.15
55.18,8.91,8.91,1.78,1.78,-1.78,-1.78,-1.68,7.13,7.13,7.13
55.74,8.86,8.86,1.76,1.76,-1.76,-1.76,-1.67,7.10,7.10,7.10
56.29,8.81,8.81,1.74,1.74,-1.74,-1.74,-1.65,7.07,7.07,7.07
56.86,8.76,8.76,1.72,1.72,-1.72,-1.72,-1.64,7.04,7.04,7.04
57.42,8.71,8.71,1.70,1.70,-1.71,-1.70,-1.63,7.00,7.00,7.01
58.00,8.66,8.66,1.69,1.69,-1.69,-1.68,-1.62,6.97,6.97,6.98
58.58,8.62,8.62,1.68,1.68,-1.67,-1.66,-1.61,6.95,6.95,6.94
59.16,8.57,8.57,1.66,1.66,-1.66,-1.65,-1.60,6.91,6.91,6.91
59.76,8.52,8.52,1.65,1.64,-1.64,-1.63,-1.59,6.88,6.87,6.87
60.35,8.46,8.46,1.62,1.63,-1.63,-1.62,-1.58,6.83,6.83,6.84
60.96,8.41,8.41,1.61,1.62,-1.62,-1.60,-1.57,6.79,6.79,6.80
61.57,8.36,8.36,1.61,1.60,-1.61,-1.59,-1.57,6.76,6.75,6.75
62.18,8.31,8.31,1.60,1.60,-1.60,-1.58,-1.56,6.72,6.71,6.71
62.80,8.25,8.26,1.58,1.59,-1.58,-1.56,-1.55,6.67,6.67,6.67
63.43,8.20,8.20,1.58,1.58,-1.58,-1.55,-1.55,6.63,6.63,6.62
64.07,8.15,8.15,1.57,1.57,-1.57,-1.54,-1.54,6.58,6.58,6.58
64.71,8.09,8.10,1.56,1.56,-1.56,-1.53,-1.54,6.53,6.54,6.54
65.35,8.04,8.04,1.55,1.55,-1.55,-1.53,-1.53,6.49,6.49,6.49
66.01,7.99,7.99,1.55,1.54,-1.54,-1.52,-1.53,6.45,6.44,6.45
66.67,7.93,7.94,1.53,1.54,-1.54,-1.51,-1.52,6.39,6.40,6.40
67.33,7.88,7.88,1.53,1.53,-1.53,-1.51,-1.52,6.35,6.35,6.35
68.01,7.83,7.83,1.53,1.53,-1.53,-1.50,-1.52,6.31,6.30,6.30
68.69,7.77,7.77,1.52,1.52,-1.52,-1.50,-1.52,6.25,6.25,6.25
69.37,7.72,7.72,1.52,1.52,-1.52,-1.50,-1.51,6.21,6.20,6.20
70.07,7.66,7.66,1.50,1.51,-1.51,-1.50,-1.51,6.15,6.15,6.16
70.77,7.61,7.61,1.51,1.51,-1.51,-1.50,-1.51,6.10,6.10,6.10
71.48,7.55,7.55,1.50,1.50,-1.51,-1.50,-1.51,6.05,6.05,6.05
72.19,7.50,7.50,1.51,1.50,-1.50,-1.50,-1.51,6.00,6.00,5.99
72.91,7.44,7.44,1.50,1.50,-1.50,-1.50,-1.52,5.94,5.94,5.94
73.64,7.39,7.39,1.50,1.50,-1.50,-1.50,-1.52,5.89,5.89,5.89
74.38,7.33,7.33,1.50,1.50,-1.50,-1.51,-1.52,5.83,5.83,5.83
75.12,7.27,7.28,1.51,1.51,-1.51,-1.51,-1.53,5.77,5.77,5.77
75.87,7.22,7.22,1.51,1.51,-1.51,-1.52,-1.53,5.71,5.71,5.71
76.63,7.16,7.16,1.51,1.51,-1.51,-1.52,-1.54,5.65,5.65,5.65
77.40,7.10,7.11,1.51,1.52,-1.52,-1.53,-1.55,5.59,5.59,5.59
78.17,7.05,7.05,1.53,1.52,-1.52,-1.54,-1.56,5.53,5.53,5.52
78.95,6.99,6.99,1.53,1.53,-1.53,-1.55,-1.57,5.46,5.46,5.47
79.74,6.93,6.93,1.53,1.53,-1.54,-1.56,-1.58,5.40,5.40,5.40
80.54,6.87,6.87,1.54,1.54,-1.54,-1.57,-1.59,5.33,5.33,5.33
81.35,6.82,6.82,1.55,1.55,-1.55,-1.58,-1.60,5.27,5.27,5.27
82.16,6.76,6.76,1.56,1.56,-1.56,-1.59,-1.62,5.20,5.20,5.20
82.98,6.70,6.70,1.57,1.57,-1.57,-1.60,-1.64,5.13,5.13,5.13
83.81,6.64,6.64,1.58,1.58,-1.58,-1.62,-1.65,5.06,5.06,5.07
84.65,6.59,6.59,1.60,1.59,-1.59,-1.63,-1.67,5.00,5.00,4.99
85.50,6.53,6.53,1.60,1.60,-1.60,-1.64,-1.69,4.93,4.93,4.93
86.35,6.47,6.47,1.61,1.61,-1.62,-1.66,-1.71,4.86,4.86,4.86
87.22,6.41,6.41,1.63,1.63,-1.63,-1.67,-1.74,4.78,4.79,4.79
88.09,6.36,6.36,1.64,1.64,-1.64,-1.69,-1.76,4.72,4.72,4.72
88.97,6.30,6.30,1.66,1.66,-1.65,-1.71,-1.79,4.65,4.65,4.64
89.86,6.24,6.24,1.67,1.67,-1.67,-1.72,-1.81,4.57,4.57,4.57
90.76,6.18,6.18,1.69,1.68,-1.69,-1.74,-1.84,4.50,4.50,4.49
91.66,6.12,6.12,1.70,1.70,-1.70,-1.76,-1.87,4.42,4.42,4.42
92.58,6.06,6.06,1.72,1.72,-1.72,-1.78,-1.90,4.34,4.34,4.34
93.51,6.00,6.00,1.74,1.74,-1.74,-1.80,-1.93,4.26,4.26,4.26
94.44,5.94,5.94,1.76,1.76,-1.76,-1.82,-1.97,4.18,4.18,4.18
95.39,5.88,5.88,1.78,1.78,-1.78,-1.84,-2.00,4.10,4.10,4.10
96.34,5.82,5.82,1.81,1.81,-1.81,-1.86,-2.04,4.01,4.01,4.02
97.30,5.76,5.76,1.83,1.83,-1.83,-1.88,-2.07,3.93,3.93,3.93
98.28,5.70,5.70,1.86,1.86,-1.86,-1.90,-2.11,3.84,3.84,3.84
99.26,5.64,5.64,1.89,1.89,-1.89,-1.92,-2.15,3.76,3.76,3.76
100.25,5.58,5.58,1.91,1.91,-1.91,-1.94,-2.19,3.67,3.67,3.67
101.25,5.52,5.52,1.94,1.94,-1.94,-1.96,-2.23,3.58,3.58,3.58
102.27,5.46,5.46,1.97,1.97,-1.97,-1.98,-2.27,3.49,3.49,3.49
103.29,5.40,5.40,1.99,1.99,-1.99,-2.00,-2.31,3.41,3.41,3.41
104.32,5.34,5.34,2.02,2.02,-2.02,-2.03,-2.35,3.32,3.32,3.32
105.37,5.28,5.28,2.04,2.04,-2.04,-2.05,-2.39,3.24,3.24,3.24
106.42,5.22,5.22,2.07,2.07,-2.06,-2.07,-2.43,3.16,3.16,3.16
107.48,5.16,5.16,2.09,2.09,-2.09,-2.09,-2.46,3.08,3.08,3.07
108.56,5.10,5.10,2.12,2.11,-2.11,-2.12,-2.50,2.99,2.99,2.99
109.64,5.03,5.03,2.12,2.13,-2.13,-2.14,-2.54,2.90,2.91,2.91
110.74,4.97,4.97,2.14,2.14,-2.15,-2.16,-2.58,2.82,2.82,2.83
111.85,4.91,4.91,2.17,2.17,-2.17,-2.19,-2.61,2.74,2.74,2.74
112.97,4.85,4.85,2.19,2.19,-2.19,-2.21,-2.64,2.66,2.66,2.66
114.10,4.79,4.79,2.21,2.21,-2.21,-2.23,-2.68,2.58,2.58,2.58
115.24,4.73,4.73,2.24,2.24,-2.24,-2.26,-2.70,2.49,2.49,2.49
116.39,4.67,4.67,2.27,2.27,-2.27,-2.28,-2.73,2.40,2.40,2.40
117.55,4.61,4.61,2.29,2.29,-2.29,-2.30,-2.75,2.32,2.32,2.32
118.73,4.55,4.55,2.32,2.32,-2.32,-2.32,-2.78,2.23,2.23,2.23
119.92,4.49,4.49,2.35,2.35,-2.35,-2.35,-2.79,2.14,2.14,2.14
121.12,4.43,4.43,2.38,2.38,-2.38,-2.37,-2.81,2.05,2.05,2.05
122.33,4.37,4.37,2.41,2.41,-2.41,-2.39,-2.82,1.96,1.96,1.96
123.55,4.31,4.31,2.44,2.44,-2.44,-2.41,-2.83,1.87,1.87,1.87
124.79,4.24,4.24,2.46,2.46,-2.47,-2.43,-2.83,1.78,1.78,1.78
126.03,4.18,4.18,2.49,2.49,-2.49,-2.45,-2.83,1.69,1.69,1.70
127.29,4.12,4.12,2.52,2.52,-2.52,-2.47,-2.83,1.60,1.60,1.60
128.57,4.06,4.06,2.55,2.54,-2.54,-2.49,-2.83,1.52,1.52,1.51
129.85,3.99,3.99,2.56,2.57,-2.57,-2.51,-2.82,1.43,1.43,1.43
131.15,3.93,3.93,2.59,2.59,-2.59,-2.53,-2.81,1.34,1.34,1.35
132.46,3.87,3.87,2.61,2.61,-2.61,-2.54,-2.79,1.26,1.26,1.26
133.79,3.81,3.81,2.62,2.62,-2.62,-2.56,-2.77,1.19,1.19,1.19
135.12,3.75,3.75,2.64,2.64,-2.64,-2.58,-2.75,1.11,1.11,1.11
136.48,3.69,3.69,2.65,2.65,-2.65,-2.59,-2.73,1.04,1.04,1.04
137.84,3.63,3.63,2.66,2.66,-2.66,-2.60,-2.71,0.97,0.97,0.97
139.22,3.57,3.57,2.67,2.66,-2.66,-2.62,-2.68,0.91,0.90,0.90
140.61,3.50,3.50,2.66,2.67,-2.67,-2.63,-2.65,0.83,0.83,0.84
142.02,3.44,3.44,2.67,2.67,-2.67,-2.64,-2.62,0.77,0.77,0.77
143.44,3.38,3.38,2.67,2.67,-2.68,-2.65,-2.59,0.70,0.70,0.71
144.87,3.32,3.32,2.68,2.68,-2.68,-2.66,-2.56,0.64,0.64,0.64
146.32,3.26,3.26,2.68,2.68,-2.68,-2.66,-2.52,0.58,0.58,0.58
147.78,3.20,3.20,2.68,2.68,-2.68,-2.67,-2.49,0.52,0.52,0.52
149.26,3.14,3.14,2.68,2.68,-2.68,-2.67,-2.46,0.46,0.46,0.46
150.75,3.08,3.08,2.68,2.68,-2.68,-2.68,-2.43,0.40,0.40,0.40
152.26,3.02,3.02,2.68,2.68,-2.68,-2.68,-2.39,0.34,0.34,0.34
153.78,2.96,2.96,2.67,2.67,-2.67,-2.68,-2.36,0.29,0.29,0.29
155.32,2.90,2.90,2.67,2.67,-2.67,-2.68,-2.33,0.23,0.23,0.23
156.88,2.84,2.84,2.66,2.66,-2.67,-2.68,-2.30,0.18,0.18,0.18
158.44,2.78,2.78,2.66,2.66,-2.66,-2.67,-2.27,0.12,0.12,0.12
160.03,2.72,2.72,2.65,2.65,-2.66,-2.67,-2.24,0.07,0.07,0.07
161.63,2.66,2.66,2.65,2.65,-2.65,-2.66,-2.21,0.01,0.01,0.01
163.24,2.60,2.60,2.65,2.65,-2.64,-2.66,-2.18,-0.04,-0.04,-0.05
164.88,2.54,2.55,2.64,2.64,-2.64,-2.65,-2.16,-0.09,-0.09,-0.10
166.53,2.49,2.49,2.63,2.63,-2.63,-2.64,-2.13,-0.14,-0.14,-0.14
168.19,2.43,2.43,2.62,2.62,-2.62,-2.62,-2.11,-0.18,-0.19,-0.19
169.87,2.36,2.37,2.60,2.60,-2.60,-2.61,-2.09,-0.24,-0.24,-0.23
171.57,2.30,2.30,2.59,2.59,-2.59,-2.59,-2.07,-0.29,-0.29,-0.29
173.29,2.24,2.24,2.57,2.57,-2.57,-2.58,-2.05,-0.33,-0.33,-0.33
175.02,2.18,2.18,2.55,2.55,-2.55,-2.56,-2.03,-0.37,-0.37,-0.37
176.77,2.12,2.12,2.53,2.53,-2.53,-2.54,-2.02,-0.41,-0.41,-0.41
178.54,2.06,2.06,2.51,2.51,-2.51,-2.52,-2.00,-0.45,-0.45,-0.45
180.32,2.00,2.00,2.49,2.50,-2.50,-2.50,-1.99,-0.49,-0.49,-0.49
182.13,1.95,1.95,2.48,2.48,-2.47,-2.48,-1.98,-0.52,-0.53,-0.53
183.95,1.89,1.89,2.46,2.45,-2.45,-2.46,-1.97,-0.56,-0.56,-0.56
185.79,1.83,1.83,2.43,2.43,-2.43,-2.43,-1.96,-0.60,-0.60,-0.60
187.65,1.77,1.77,2.41,2.41,-2.41,-2.41,-1.96,-0.64,-0.64,-0.63
189.52,1.72,1.72,2.39,2.39,-2.39,-2.38,-1.95,-0.67,-0.67,-0.67
191.42,1.66,1.66,2.37,2.37,-2.36,-2.36,-1.95,-0.70,-0.70,-0.71
193.33,1.60,1.60,2.34,2.34,-2.34,-2.33,-1.95,-0.74,-0.74,-0.74
195.27,1.54,1.54,2.31,2.31,-2.31,-2.30,-1.94,-0.77,-0.77,-0.77
197.22,1.48,1.48,2.28,2.29,-2.29,-2.27,-1.95,-0.81,-0.80,-0.80
199.19,1.43,1.43,2.26,2.26,-2.26,-2.24,-1.95,-0.83,-0.83,-0.83
201.18,1.37,1.37,2.23,2.23,-2.23,-2.21,-1.95,-0.86,-0.86,-0.86
203.19,1.31,1.31,2.20,2.20,-2.20,-2.18,-1.95,-0.88,-0.88,-0.88
205.23,1.25,1.25,2.16,2.16,-2.16,-2.15,-1.96,-0.91,-0.91,-0.91
207.28,1.19,1.19,2.13,2.13,-2.13,-2.12,-1.96,-0.94,-0.94,-0.94
209.35,1.13,1.13,2.09,2.09,-2.10,-2.09,-1.96,-0.96,-0.96,-0.96
211.44,1.07,1.07,2.06,2.06,-2.06,-2.05,-1.97,-0.99,-0.99,-0.99
213.56,1.01,1.01,2.03,2.03,-2.03,-2.02,-1.97,-1.02,-1.02,-1.02
215.69,0.95,0.95,1.99,1.99,-1.99,-1.99,-1.98,-1.04,-1.04,-1.04
217.85,0.89,0.89,1.95,1.96,-1.96,-1.95,-1.98,-1.06,-1.06,-1.06
220.03,0.84,0.84,1.92,1.92,-1.92,-1.92,-1.99,-1.08,-1.08,-1.08
222.23,0.78,0.78,1.89,1.88,-1.88,-1.89,-1.99,-1.10,-1.10,-1.10
224.45,0.72,0.72,1.84,1.85,-1.85,-1.85,-1.99,-1.12,-1.12,-1.12
226.70,0.66,0.66,1.80,1.81,-1.81,-1.82,-1.99,-1.15,-1.14,-1.14
228.96,0.61,0.61,1.77,1.77,-1.77,-1.79,-1.99,-1.16,-1.16,-1.16
231.25,0.55,0.55,1.73,1.73,-1.73,-1.75,-1.99,-1.18,-1.18,-1.18
233.57,0.49,0.49,1.69,1.70,-1.70,-1.72,-1.99,-1.20,-1.20,-1.20
235.90,0.43,0.43,1.66,1.66,-1.66,-1.68,-1.98,-1.23,-1.22,-1.23
238.26,0.38,0.38,1.63,1.62,-1.62,-1.65,-1.97,-1.24,-1.24,-1.25
240.64,0.32,0.32,1.59,1.59,-1.58,-1.62,-1.96,-1.26,-1.26,-1.26
243.05,0.26,0.26,1.54,1.54,-1.54,-1.58,-1.95,-1.28,-1.28,-1.28
245.48,0.21,0.21,1.50,1.50,-1.50,-1.55,-1.93,-1.29,-1.30,-1.29
247.93,0.15,0.15,1.46,1.46,-1.46,-1.52,-1.92,-1.31,-1.31,-1.31
250.41,0.10,0.10,1.42,1.42,-1.42,-1.48,-1.90,-1.32,-1.32,-1.32
252.92,0.05,0.05,1.39,1.38,-1.38,-1.45,-1.88,-1.33,-1.33,-1.33
255.45,0.00,0.00,1.35,1.35,-1.35,-1.42,-1.85,-1.34,-1.35,-1.35
258.00,-0.05,-0.05,1.31,1.31,-1.31,-1.39,-1.82,-1.36,-1.36,-1.36
260.58,-0.10,-0.10,1.27,1.28,-1.28,-1.36,-1.79,-1.38,-1.37,-1.37
263.19,-0.14,-0.14,1.25,1.25,-1.25,-1.32,-1.76,-1.39,-1.39,-1.39
265.82,-0.18,-0.18,1.22,1.22,-1.22,-1.29,-1.73,-1.40,-1.40,-1.40
268.48,-0.22,-0.22,1.19,1.20,-1.20,-1.26,-1.69,-1.42,-1.42,-1.41
271.16,-0.25,-0.25,1.19,1.18,-1.18,-1.23,-1.65,-1.43,-1.43,-1.43
273.87,-0.28,-0.28,1.16,1.17,-1.17,-1.20,-1.61,-1.45,-1.45,-1.44
276.61,-0.30,-0.30,1.16,1.16,-1.16,-1.17,-1.56,-1.46,-1.46,-1.46
279.38,-0.32,-0.32,1.15,1.15,-1.15,-1.14,-1.52,-1.47,-1.47,-1.47
282.17,-0.34,-0.34,1.15,1.15,-1.15,-1.11,-1.47,-1.49,-1.49,-1.49
284.99,-0.35,-0.35,1.14,1.14,-1.15,-1.08,-1.42,-1.50,-1.50,-1.49
287.84,-0.36,-0.36,1.14,1.14,-1.15,-1.05,-1.37,-1.50,-1.51,-1.50
290.72,-0.37,-0.37,1.15,1.14,-1.14,-1.02,-1.32,-1.51,-1.51,-1.52
293.63,-0.38,-0.38,1.14,1.14,-1.14,-0.99,-1.27,-1.52,-1.52,-1.52
296.57,-0.39,-0.39,1.14,1.14,-1.14,-0.96,-1.22,-1.53,-1.53,-1.53
299.53,-0.40,-0.40,1.13,1.13,-1.13,-0.93,-1.17,-1.53,-1.53,-1.53
302.53,-0.42,-0.42,1.13,1.12,-1.12,-0.91,-1.11,-1.54,-1.54,-1.54
305.55,-0.44,-0.44,1.10,1.11,-1.11,-0.88,-1.06,-1.55,-1.55,-1.54
308.61,-0.46,-0.46,1.10,1.09,-1.09,-0.85,-1.01,-1.55,-1.55,-1.56
311.69,-0.49,-0.49,1.07,1.07,-1.07,-0.82,-0.95,-1.56,-1.56,-1.55
314.81,-0.52,-0.52,1.05,1.05,-1.04,-0.79,-0.90,-1.56,-1.56,-1.57
317.96,-0.55,-0.55,1.02,1.02,-1.01,-0.77,-0.84,-1.56,-1.57,-1.57
321.14,-0.59,-0.59,0.98,0.98,-0.98,-0.74,-0.79,-1.57,-1.57,-1.57
324.35,-0.63,-0.63,0.95,0.95,-0.95,-0.71,-0.73,-1.58,-1.57,-1.58
327.59,-0.67,-0.67,0.90,0.91,-0.91,-0.69,-0.68,-1.58,-1.58,-1.57
330.87,-0.71,-0.71,0.87,0.87,-0.87,-0.66,-0.62,-1.58,-1.58,-1.58
334.18,-0.76,-0.75,0.82,0.83,-0.83,-0.63,-0.57,-1.58,-1.58,-1.58
337.52,-0.80,-0.80,0.79,0.79,-0.78,-0.61,-0.51,-1.58,-1.58,-1.59
340.90,-0.85,-0.85,0.74,0.74,-0.73,-0.58,-0.46,-1.58,-1.58,-1.59
344.30,-0.90,-0.90,0.69,0.69,-0.69,-0.56,-0.40,-1.59,-1.59,-1.58
347.75,-0.95,-0.95,0.63,0.64,-0.64,-0.53,-0.35,-1.59,-1.59,-1.58
351.23,-0.99,-0.99,0.60,0.59,-0.59,-0.50,-0.29,-1.58,-1.59,-1.59
354.74,-1.04,-1.04,0.54,0.54,-0.55,-0.48,-0.24,-1.58,-1.59,-1.58
358.28,-1.09,-1.09,0.50,0.50,-0.50,-0.45,-0.19,-1.59,-1.58,-1.59
361.87,-1.14,-1.14,0.45,0.45,-0.45,-0.43,-0.13,-1.59,-1.58,-1.58
365.49,-1.18,-1.18,0.41,0.41,-0.40,-0.40,-0.08,-1.58,-1.59,-1.59
369.14,-1.23,-1.23,0.36,0.36,-0.36,-0.37,-0.03,-1.59,-1.59,-1.59
372.83,-1.28,-1.28,0.30,0.31,-0.31,-0.35,0.03,-1.59,-1.59,-1.58
376.56,-1.33,-1.33,0.26,0.26,-0.27,-0.32,0.08,-1.59,-1.59,-1.59
380.33,-1.37,-1.37,0.22,0.22,-0.22,-0.30,0.13,-1.59,-1.59,-1.59
384.13,-1.42,-1.42,0.18,0.18,-0.18,-0.27,0.18,-1.59,-1.59,-1.60
387.97,-1.46,-1.46,0.14,0.13,-0.13,-0.24,0.24,-1.59,-1.59,-1.60
391.85,-1.51,-1.51,0.08,0.09,-0.09,-0.22,0.29,-1.60,-1.59,-1.59
395.77,-1.55,-1.55,0.04,0.04,-0.04,-0.19,0.34,-1.59,-1.59,-1.59
399.73,-1.59,-1.59,0.00,-0.00,-0.00,-0.16,0.39,-1.59,-1.59,-1.59
403.72,-1.64,-1.64,-0.04,-0.04,0.04,-0.14,0.44,-1.60,-1.59,-1.60
407.76,-1.68,-1.68,-0.08,-0.08,0.08,-0.11,0.49,-1.60,-1.59,-1.60
411.84,-1.72,-1.72,-0.12,-0.12,0.12,-0.08,0.54,-1.59,-1.60,-1.60
415.96,-1.76,-1.76,-0.17,-0.16,0.16,-0.05,0.59,-1.59,-1.60,-1.59
420.12,-1.81,-1.81,-0.20,-0.20,0.20,-0.02,0.64,-1.61,-1.60,-1.60
424.32,-1.85,-1.85,-0.24,-0.24,0.24,0.01,0.68,-1.61,-1.61,-1.61
428.56,-1.89,-1.89,-0.28,-0.28,0.28,0.04,0.73,-1.61,-1.61,-1.61
432.85,-1.93,-1.93,-0.32,-0.32,0.32,0.07,0.78,-1.61,-1.61,-1.61
437.18,-1.97,-1.97,-0.35,-0.35,0.35,0.10,0.82,-1.61,-1.61,-1.62
441.55,-2.01,-2.01,-0.39,-0.39,0.39,0.13,0.86,-1.62,-1.62,-1.62
445.96,-2.05,-2.05,-0.42,-0.43,0.43,0.16,0.90,-1.62,-1.62,-1.62
450.42,-2.09,-2.09,-0.47,-0.47,0.47,0.19,0.94,-1.62,-1.62,-1.62
454.93,-2.13,-2.13,-0.51,-0.51,0.51,0.23,0.98,-1.62,-1.62,-1.62
459.48,-2.17,-2.17,-0.55,-0.55,0.54,0.26,1.02,-1.63,-1.63,-1.62
464.07,-2.21,-2.21,-0.58,-0.58,0.58,0.30,1.05,-1.63,-1.63,-1.63
468.71,-2.25,-2.25,-0.62,-0.62,0.62,0.33,1.08,-1.63,-1.63,-1.63
473.40,-2.29,-2.29,-0.66,-0.65,0.65,0.37,1.11,-1.63,-1.63,-1.63
478.13,-2.32,-2.32,-0.68,-0.69,0.69,0.41,1.14,-1.63,-1.63,-1.63
482.91,-2.36,-2.36,-0.72,-0.73,0.73,0.44,1.17,-1.63,-1.63,-1.64
487.74,-2.40,-2.39,-0.77,-0.76,0.76,0.48,1.19,-1.63,-1.63,-1.63
492.62,-2.43,-2.43,-0.80,-0.80,0.80,0.52,1.21,-1.63,-1.63,-1.63
