frequency,raw,smoothed,error,error_smoothed,equalization,parametric_eq,fixed_band_eq,equalized_raw,equalized_smoothed,target
20.00,0.95,0.95,-2.99,-2.99,2.99,2.87,1.25,3.94,3.94,3.94
20.20,0.96,0.97,-3.01,-3.00,3.00,2.87,1.29,3.96,3.97,3.97
20.40,0.98,0.98,-3.02,-3.01,3.01,2.87,1.32,4.00,4.00,4.00
20.61,1.00,1.00,-3.02,-3.02,3.02,2.86,1.36,4.02,4.02,4.02
20.81,1.02,1.02,-3.03,-3.03,3.03,2.86,1.40,4.05,4.05,4.05
21.02,1.04,1.04,-3.04,-3.03,3.03,2.86,1.45,4.07,4.07,4.08
21.23,1.05,1.05,-3.04,-3.04,3.03,2.86,1.49,4.09,4.09,4.09
21.44,1.06,1.06,-3.03,-3.04,3.03,2.86,1.53,4.10,4.10,4.10
21.66,1.07,1.07,-3.03,-3.03,3.03,2.85,1.58,4.10,4.10,4.11
21.87,1.08,1.08,-3.02,-3.03,3.03,2.85,1.63,4.11,4.11,4.11
22.09,1.09,1.09,-3.02,-3.02,3.02,2.85,1.67,4.11,4.11,4.11
22.31,1.10,1.10,-3.01,-3.01,3.01,2.85,1.73,4.11,4.11,4.11
22.54,1.11,1.11,-3.00,-3.00,3.00,2.84,1.78,4.11,4.11,4.11
22.76,1.12,1.12,-2.99,-2.99,2.99,2.84,1.83,4.11,4.11,4.11
22.99,1.13,1.13,-2.97,-2.97,2.98,2.84,1.88,4.11,4.11,4.10
23.22,1.14,1.14,-2.96,-2.96,2.96,2.84,1.94,4.11,4.11,4.10
23.45,1.15,1.15,-2.95,-2.95,2.95,2.83,1.99,4.10,4.10,4.10
23.69,1.16,1.16,-2.94,-2.94,2.94,2.83,2.05,4.10,4.10,4.10
23.92,1.17,1.17,-2.93,-2.93,2.93,2.83,2.11,4.10,4.10,4.10
24.16,1.18,1.18,-2.93,-2.92,2.92,2.83,2.17,4.10,4.10,4.11
24.40,1.19,1.19,-2.92,-2.91,2.91,2.82,2.23,4.10,4.10,4.11
24.65,1.20,1.20,-2.89,-2.90,2.90,2.82,2.29,4.10,4.10,4.10
24.89,1.21,1.21,-2.88,-2.88,2.89,2.82,2.35,4.10,4.10,4.10
25.14,1.22,1.22,-2.87,-2.88,2.88,2.81,2.41,4.10,4.09,4.09
25.39,1.22,1.23,-2.87,-2.87,2.87,2.81,2.47,4.09,4.09,4.09
25.65,1.23,1.23,-2.86,-2.86,2.86,2.81,2.53,4.09,4.09,4.09
25.91,1.24,1.24,-2.84,-2.85,2.85,2.80,2.60,4.09,4.09,4.08
26.16,1.24,1.24,-2.84,-2.84,2.84,2.80,2.66,4.08,4.08,4.08
26.43,1.24,1.25,-2.84,-2.83,2.83,2.80,2.72,4.08,4.08,4.08
26.69,1.25,1.25,-2.83,-2.83,2.83,2.79,2.78,4.08,4.07,4.08
26.96,1.25,1.25,-2.82,-2.83,2.82,2.79,2.84,4.07,4.07,4.08
27.23,1.25,1.26,-2.82,-2.82,2.82,2.79,2.90,4.07,4.07,4.08
27.50,1.26,1.26,-2.81,-2.81,2.81,2.78,2.96,4.08,4.07,4.07
27.77,1.26,1.26,-2.80,-2.81,2.81,2.78,3.01,4.07,4.07,4.06
28.05,1.25,1.25,-2.81,-2.81,2.81,2.78,3.06,4.06,4.07,4.06
28.33,1.24,1.24,-2.81,-2.81,2.81,2.77,3.11,4.05,4.05,4.05
28.62,1.23,1.23,-2.82,-2.82,2.81,2.77,3.16,4.05,4.05,4.05
28.90,1.22,1.22,-2.82,-2.82,2.82,2.76,3.20,4.04,4.04,4.05
29.19,1.22,1.22,-2.81,-2.82,2.82,2.76,3.24,4.04,4.04,4.03
29.48,1.22,1.22,-2.82,-2.82,2.81,2.75,3.27,4.04,4.04,4.04
29.78,1.22,1.22,-2.81,-2.81,2.81,2.75,3.31,4.03,4.03,4.03
30.08,1.22,1.22,-2.81,-2.81,2.81,2.74,3.33,4.03,4.03,4.03
30.38,1.22,1.22,-2.80,-2.80,2.80,2.74,3.36,4.02,4.02,4.02
30.68,1.22,1.22,-2.79,-2.79,2.79,2.73,3.37,4.01,4.01,4.02
30.99,1.23,1.23,-2.77,-2.78,2.77,2.73,3.39,4.01,4.01,4.00
31.30,1.24,1.24,-2.76,-2.76,2.76,2.72,3.39,4.00,4.00,4.00
31.61,1.25,1.25,-2.75,-2.74,2.74,2.72,3.40,3.99,3.99,4.00
31.93,1.26,1.26,-2.73,-2.72,2.72,2.71,3.39,3.98,3.99,3.99
32.24,1.28,1.28,-2.69,-2.70,2.70,2.71,3.39,3.98,3.98,3.97
32.57,1.29,1.29,-2.68,-2.68,2.68,2.70,3.38,3.97,3.97,3.97
32.89,1.31,1.31,-2.66,-2.66,2.66,2.70,3.36,3.97,3.97,3.97
33.22,1.32,1.32,-2.63,-2.64,2.64,2.69,3.34,3.96,3.96,3.96
33.55,1.33,1.33,-2.62,-2.62,2.62,2.68,3.32,3.95,3.95,3.95
33.89,1.34,1.34,-2.60,-2.60,2.60,2.68,3.29,3.94,3.94,3.94
34.23,1.35,1.35,-2.59,-2.59,2.58,2.67,3.26,3.94,3.93,3.94
34.57,1.35,1.36,-2.57,-2.57,2.57,2.66,3.22,3.92,3.92,3.92
34.92,1.36,1.36,-2.55,-2.56,2.56,2.66,3.19,3.92,3.92,3.91
35.27,1.36,1.36,-2.55,-2.54,2.55,2.65,3.15,3.91,3.91,3.91
35.62,1.36,1.36,-2.53,-2.53,2.54,2.64,3.11,3.90,3.90,3.89
35.97,1.36,1.36,-2.52,-2.53,2.53,2.64,3.06,3.89,3.89,3.88
36.33,1.35,1.35,-2.53,-2.52,2.52,2.63,3.02,3.87,3.87,3.88
36.70,1.35,1.35,-2.51,-2.51,2.51,2.62,2.97,3.86,3.86,3.86
37.06,1.34,1.34,-2.51,-2.51,2.50,2.61,2.93,3.84,3.84,3.85
37.43,1.34,1.34,-2.50,-2.50,2.49,2.60,2.88,3.84,3.84,3.84
37.81,1.34,1.34,-2.49,-2.49,2.49,2.60,2.83,3.83,3.83,3.83
38.19,1.34,1.34,-2.47,-2.48,2.49,2.59,2.79,3.83,3.83,3.82
38.57,1.33,1.33,-2.48,-2.48,2.49,2.58,2.74,3.82,3.82,3.81
38.95,1.31,1.31,-2.49,-2.49,2.49,2.57,2.69,3.80,3.80,3.80
39.34,1.28,1.28,-2.50,-2.50,2.50,2.56,2.65,3.78,3.78,3.78
39.74,1.26,1.26,-2.50,-2.51,2.50,2.55,2.60,3.76,3.76,3.77
40.14,1.24,1.24,-2.52,-2.52,2.51,2.54,2.56,3.75,3.75,3.76
40.54,1.23,1.23,-2.51,-2.52,2.51,2.53,2.52,3.74,3.74,3.75
40.94,1.22,1.22,-2.52,-2.51,2.52,2.52,2.48,3.74,3.74,3.74
41.35,1.22,1.22,-2.50,-2.51,2.51,2.51,2.44,3.74,3.73,3.72
41.76,1.21,1.21,-2.51,-2.50,2.51,2.50,2.40,3.72,3.72,3.72
42.18,1.21,1.21,-2.50,-2.50,2.49,2.49,2.36,3.70,3.70,3.71
42.60,1.21,1.21,-2.48,-2.49,2.47,2.48,2.33,3.68,3.69,3.69
43.03,1.22,1.22,-2.47,-2.46,2.45,2.46,2.30,3.67,3.67,3.69
43.46,1.24,1.24,-2.43,-2.43,2.42,2.45,2.27,3.66,3.66,3.67
43.90,1.26,1.26,-2.38,-2.39,2.39,2.44,2.24,3.65,3.64,3.64
44.33,1.27,1.28,-2.35,-2.35,2.35,2.43,2.21,3.62,3.63,3.62
44.78,1.29,1.29,-2.31,-2.31,2.32,2.42,2.18,3.61,3.62,3.61
45.23,1.31,1.31,-2.28,-2.28,2.29,2.40,2.16,3.61,3.60,3.59
45.68,1.31,1.31,-2.26,-2.26,2.27,2.39,2.13,3.58,3.58,3.57
46.13,1.31,1.31,-2.24,-2.25,2.25,2.37,2.11,3.56,3.56,3.55
46.60,1.29,1.30,-2.25,-2.24,2.24,2.36,2.09,3.53,3.54,3.54
47.06,1.28,1.28,-2.24,-2.24,2.23,2.34,2.08,3.51,3.52,3.52
47.53,1.27,1.27,-2.23,-2.23,2.23,2.33,2.06,3.50,3.50,3.50
48.01,1.26,1.26,-2.23,-2.23,2.23,2.31,2.05,3.49,3.49,3.49
48.49,1.24,1.24,-2.22,-2.22,2.23,2.30,2.03,3.47,3.47,3.46
48.97,1.21,1.21,-2.22,-2.22,2.22,2.28,2.02,3.44,3.44,3.43
49.46,1.18,1.18,-2.22,-2.22,2.22,2.27,2.01,3.40,3.40,3.40
49.96,1.15,1.15,-2.21,-2.22,2.21,2.25,2.00,3.36,3.36,3.37
50.46,1.13,1.13,-2.22,-2.22,2.20,2.23,1.99,3.33,3.33,3.35
50.96,1.12,1.12,-2.21,-2.20,2.19,2.21,1.99,3.31,3.32,3.33
51.47,1.12,1.12,-2.18,-2.18,2.18,2.19,1.98,3.30,3.30,3.30
51.99,1.12,1.12,-2.15,-2.16,2.18,2.17,1.97,3.30,3.30,3.28
52.51,1.11,1.11,-2.15,-2.15,2.17,2.16,1.97,3.28,3.28,3.26
53.03,1.10,1.09,-2.14,-2.14,2.16,2.13,1.96,3.26,3.25,3.24
53.56,1.06,1.07,-2.15,-2.15,2.15,2.11,1.96,3.21,3.21,3.21
54.10,1.04,1.04,-2.14,-2.15,2.13,2.09,1.96,3.17,3.17,3.19
54.64,1.02,1.03,-2.14,-2.13,2.12,2.07,1.95,3.14,3.14,3.16
55.18,1.02,1.03,-2.11,-2.11,2.09,2.05,1.95,3.11,3.12,3.13
55.74,1.04,1.03,-2.07,-2.08,2.06,2.03,1.94,3.11,3.10,3.11
56.29,1.05,1.05,-2.04,-2.03,2.03,2.00,1.93,3.08,3.08,3.09
56.86,1.07,1.07,-1.99,-1.99,1.99,1.98,1.93,3.06,3.06,3.06
57.42,1.10,1.10,-1.93,-1.94,1.94,1.96,1.92,3.05,3.04,3.03
58.00,1.12,1.12,-1.89,-1.89,1.90,1.93,1.91,3.02,3.02,3.01
58.58,1.15,1.15,-1.84,-1.85,1.86,1.90,1.90,3.01,3.01,2.99
59.16,1.16,1.16,-1.81,-1.81,1.82,1.88,1.89,2.98,2.98,2.97
59.76,1.17,1.17,-1.78,-1.78,1.78,1.85,1.87,2.95,2.95,2.95
60.35,1.17,1.17,-1.75,-1.75,1.75,1.82,1.86,2.92,2.92,2.92
60.96,1.17,1.17,-1.73,-1.72,1.71,1.80,1.84,2.88,2.88,2.90
61.57,1.17,1.17,-1.68,-1.69,1.68,1.77,1.82,2.85,2.85,2.85
62.18,1.17,1.17,-1.65,-1.65,1.64,1.74,1.80,2.82,2.82,2.82
62.80,1.18,1.18,-1.61,-1.61,1.61,1.71,1.78,2.79,2.79,2.80
63.43,1.19,1.19,-1.57,-1.57,1.58,1.68,1.75,2.77,2.77,2.76
64.07,1.20,1.20,-1.53,-1.54,1.54,1.65,1.72,2.75,2.74,2.73
64.71,1.20,1.20,-1.51,-1.51,1.51,1.61,1.69,2.71,2.72,2.71
65.35,1.20,1.20,-1.48,-1.48,1.48,1.58,1.66,2.69,2.69,2.68
66.01,1.20,1.20,-1.45,-1.45,1.45,1.55,1.62,2.66,2.65,2.65
66.67,1.20,1.20,-1.42,-1.43,1.42,1.51,1.59,2.62,2.62,2.62
67.33,1.19,1.19,-1.40,-1.40,1.39,1.48,1.55,2.58,2.58,2.59
68.01,1.19,1.19,-1.37,-1.37,1.36,1.44,1.51,2.55,2.55,2.56
68.69,1.20,1.20,-1.33,-1.33,1.32,1.41,1.47,2.52,2.52,2.53
69.37,1.21,1.22,-1.29,-1.28,1.28,1.37,1.42,2.49,2.50,2.50
70.07,1.24,1.24,-1.23,-1.23,1.25,1.33,1.38,2.49,2.48,2.47
70.77,1.25,1.25,-1.19,-1.19,1.21,1.29,1.33,2.46,2.46,2.44
71.48,1.25,1.25,-1.16,-1.16,1.17,1.25,1.29,2.42,2.42,2.41
72.19,1.24,1.24,-1.13,-1.13,1.13,1.21,1.24,2.37,2.37,2.37
72.91,1.23,1.24,-1.11,-1.10,1.10,1.17,1.19,2.33,2.33,2.34
73.64,1.24,1.24,-1.06,-1.07,1.06,1.13,1.14,2.30,2.30,2.30
74.38,1.24,1.24,-1.03,-1.03,1.02,1.09,1.09,2.27,2.27,2.27
75.12,1.25,1.25,-0.98,-0.99,0.99,1.05,1.04,2.24,2.24,2.24
75.87,1.26,1.26,-0.94,-0.95,0.94,1.01,0.99,2.21,2.20,2.21
76.63,1.27,1.27,-0.90,-0.90,0.90,0.96,0.93,2.17,2.17,2.18
77.40,1.28,1.28,-0.86,-0.86,0.85,0.92,0.88,2.13,2.14,2.14
78.17,1.30,1.30,-0.80,-0.81,0.81,0.87,0.83,2.11,2.11,2.10
78.95,1.32,1.32,-0.76,-0.76,0.76,0.83,0.78,2.08,2.08,2.08
79.74,1.34,1.34,-0.71,-0.71,0.71,0.78,0.72,2.05,2.05,2.05
80.54,1.35,1.35,-0.66,-0.66,0.66,0.74,0.67,2.02,2.02,2.01
81.35,1.36,1.36,-0.62,-0.62,0.62,0.69,0.62,1.98,1.98,1.98
82.16,1.37,1.37,-0.57,-0.58,0.58,0.64,0.56,1.95,1.95,1.94
82.98,1.37,1.37,-0.54,-0.54,0.54,0.60,0.51,1.91,1.91,1.92
83.81,1.37,1.37,-0.50,-0.50,0.50,0.55,0.46,1.87,1.87,1.87
84.65,1.37,1.37,-0.46,-0.46,0.46,0.50,0.40,1.84,1.84,1.83
85.50,1.37,1.37,-0.43,-0.43,0.43,0.45,0.35,1.80,1.80,1.80
86.35,1.36,1.37,-0.40,-0.40,0.40,0.41,0.30,1.76,1.76,1.76
87.22,1.36,1.36,-0.36,-0.36,0.36,0.36,0.25,1.72,1.72,1.72
88.09,1.36,1.36,-0.32,-0.33,0.33,0.31,0.19,1.69,1.68,1.68
88.97,1.35,1.35,-0.30,-0.29,0.29,0.26,0.14,1.65,1.65,1.65
89.86,1.34,1.35,-0.27,-0.26,0.26,0.21,0.09,1.60,1.61,1.61
90.76,1.34,1.34,-0.22,-0.23,0.23,0.17,0.04,1.57,1.56,1.56
91.66,1.33,1.33,-0.19,-0.19,0.19,0.12,-0.02,1.52,1.52,1.53
92.58,1.32,1.32,-0.15,-0.15,0.16,0.07,-0.07,1.48,1.48,1.47
93.51,1.31,1.31,-0.13,-0.13,0.13,0.02,-0.12,1.44,1.44,1.44
94.44,1.30,1.30,-0.09,-0.09,0.09,-0.02,-0.17,1.39,1.39,1.40
95.39,1.28,1.28,-0.07,-0.06,0.06,-0.07,-0.22,1.34,1.35,1.35
96.34,1.27,1.27,-0.02,-0.03,0.03,-0.11,-0.27,1.30,1.30,1.30
97.30,1.25,1.25,0.00,0.00,0.00,-0.16,-0.33,1.25,1.26,1.25
98.28,1.24,1.24,0.04,0.03,-0.03,-0.20,-0.38,1.21,1.21,1.21
99.26,1.22,1.22,0.06,0.06,-0.06,-0.25,-0.43,1.16,1.16,1.16
100.25,1.20,1.20,0.09,0.09,-0.09,-0.29,-0.48,1.11,1.11,1.11
101.25,1.18,1.18,0.11,0.12,-0.13,-0.33,-0.53,1.06,1.06,1.07
102.27,1.17,1.17,0.15,0.16,-0.16,-0.37,-0.58,1.01,1.01,1.02
103.29,1.17,1.17,0.21,0.19,-0.20,-0.41,-0.62,0.98,0.97,0.97
104.32,1.16,1.16,0.23,0.24,-0.23,-0.45,-0.67,0.93,0.93,0.93
105.37,1.15,1.16,0.27,0.27,-0.27,-0.49,-0.72,0.88,0.89,0.88
106.42,1.15,1.15,0.32,0.31,-0.31,-0.52,-0.76,0.84,0.84,0.84
107.48,1.14,1.14,0.35,0.35,-0.35,-0.56,-0.81,0.80,0.79,0.79
108.56,1.12,1.13,0.39,0.39,-0.38,-0.59,-0.85,0.74,0.74,0.73
109.64,1.11,1.11,0.42,0.42,-0.42,-0.62,-0.89,0.69,0.69,0.69
110.74,1.09,1.09,0.45,0.45,-0.46,-0.65,-0.93,0.63,0.64,0.64
111.85,1.08,1.08,0.49,0.49,-0.50,-0.68,-0.97,0.58,0.59,0.60
112.97,1.07,1.07,0.54,0.53,-0.54,-0.71,-1.01,0.53,0.53,0.53
114.10,1.06,1.06,0.58,0.58,-0.58,-0.74,-1.05,0.48,0.48,0.49
115.24,1.05,1.05,0.62,0.62,-0.63,-0.76,-1.08,0.43,0.43,0.43
116.39,1.05,1.05,0.68,0.67,-0.67,-0.79,-1.11,0.38,0.38,0.38
117.55,1.04,1.04,0.72,0.72,-0.71,-0.81,-1.14,0.33,0.33,0.32
118.73,1.04,1.04,0.77,0.77,-0.76,-0.83,-1.16,0.28,0.28,0.27
119.92,1.03,1.03,0.81,0.81,-0.80,-0.85,-1.18,0.23,0.23,0.23
121.12,1.02,1.02,0.85,0.85,-0.85,-0.87,-1.20,0.17,0.17,0.17
122.33,1.01,1.01,0.89,0.89,-0.90,-0.88,-1.22,0.11,0.12,0.12
123.55,1.01,1.01,0.93,0.94,-0.94,-0.90,-1.23,0.07,0.07,0.08
124.79,1.01,1.01,0.98,0.98,-0.99,-0.91,-1.24,0.02,0.02,0.03
126.03,1.01,1.02,1.03,1.04,-1.04,-0.92,-1.25,-0.03,-0.02,-0.02
127.29,1.02,1.01,1.09,1.09,-1.09,-0.93,-1.26,-0.07,-0.07,-0.07
128.57,1.01,1.01,1.14,1.14,-1.14,-0.94,-1.26,-0.12,-0.12,-0.13
129.85,1.00,1.01,1.18,1.19,-1.18,-0.95,-1.26,-0.18,-0.18,-0.18
131.15,1.00,1.00,1.23,1.23,-1.23,-0.95,-1.26,-0.23,-0.23,-0.23
132.46,0.99,0.99,1.27,1.27,-1.27,-0.96,-1.25,-0.28,-0.28,-0.28
133.79,0.99,0.99,1.30,1.31,-1.31,-0.96,-1.24,-0.32,-0.32,-0.31
135.12,0.99,0.99,1.36,1.35,-1.35,-0.96,-1.23,-0.36,-0.36,-0.37
136.48,0.98,0.98,1.39,1.39,-1.38,-0.96,-1.22,-0.40,-0.40,-0.40
137.84,0.96,0.96,1.41,1.42,-1.41,-0.96,-1.20,-0.45,-0.45,-0.45
139.22,0.94,0.94,1.44,1.44,-1.44,-0.96,-1.19,-0.50,-0.50,-0.50
140.61,0.92,0.92,1.47,1.46,-1.47,-0.96,-1.17,-0.54,-0.54,-0.55
142.02,0.91,0.91,1.48,1.48,-1.49,-0.95,-1.15,-0.58,-0.58,-0.57
143.44,0.89,0.89,1.50,1.50,-1.51,-0.95,-1.13,-0.62,-0.61,-0.61
144.87,0.88,0.88,1.53,1.53,-1.52,-0.94,-1.10,-0.64,-0.64,-0.65
146.32,0.86,0.86,1.55,1.54,-1.54,-0.93,-1.08,-0.68,-0.68,-0.69
147.78,0.84,0.84,1.56,1.56,-1.55,-0.92,-1.05,-0.71,-0.72,-0.72
149.26,0.80,0.80,1.56,1.56,-1.57,-0.91,-1.03,-0.77,-0.76,-0.75
150.75,0.77,0.77,1.57,1.57,-1.58,-0.90,-1.00,-0.81,-0.81,-0.80
152.26,0.74,0.74,1.58,1.58,-1.59,-0.89,-0.98,-0.85,-0.85,-0.84
153.78,0.72,0.72,1.60,1.60,-1.60,-0.88,-0.95,-0.88,-0.88,-0.87
155.32,0.69,0.70,1.61,1.61,-1.61,-0.86,-0.92,-0.92,-0.91,-0.92
156.88,0.67,0.67,1.62,1.62,-1.61,-0.85,-0.89,-0.94,-0.95,-0.95
158.44,0.62,0.62,1.62,1.62,-1.61,-0.83,-0.87,-0.99,-0.99,-1.00
160.03,0.57,0.57,1.61,1.61,-1.60,-0.81,-0.84,-1.03,-1.03,-1.04
161.63,0.50,0.50,1.58,1.58,-1.59,-0.80,-0.81,-1.08,-1.08,-1.08
163.24,0.43,0.43,1.55,1.55,-1.56,-0.78,-0.79,-1.13,-1.12,-1.12
164.88,0.36,0.36,1.51,1.51,-1.52,-0.75,-0.76,-1.16,-1.16,-1.15
166.53,0.28,0.28,1.47,1.47,-1.47,-0.73,-0.73,-1.19,-1.19,-1.19
168.19,0.19,0.19,1.42,1.42,-1.41,-0.71,-0.71,-1.21,-1.22,-1.23
169.87,0.08,0.08,1.35,1.34,-1.33,-0.68,-0.68,-1.25,-1.25,-1.27
171.57,-0.05,-0.05,1.25,1.25,-1.24,-0.65,-0.66,-1.29,-1.29,-1.30
173.29,-0.19,-0.19,1.15,1.15,-1.15,-0.62,-0.63,-1.33,-1.33,-1.34
175.02,-0.34,-0.34,1.03,1.04,-1.03,-0.59,-0.61,-1.37,-1.37,-1.37
176.77,-0.50,-0.50,0.92,0.92,-0.92,-0.55,-0.58,-1.41,-1.42,-1.42
178.54,-0.67,-0.67,0.79,0.79,-0.79,-0.51,-0.56,-1.46,-1.46,-1.46
180.32,-0.84,-0.84,0.66,0.66,-0.66,-0.47,-0.54,-1.50,-1.50,-1.50
182.13,-1.01,-1.01,0.52,0.52,-0.53,-0.43,-0.52,-1.54,-1.54,-1.53
183.95,-1.17,-1.17,0.40,0.40,-0.41,-0.38,-0.49,-1.57,-1.58,-1.57
185.79,-1.33,-1.33,0.27,0.28,-0.28,-0.33,-0.47,-1.61,-1.61,-1.60
187.65,-1.48,-1.48,0.16,0.16,-0.16,-0.27,-0.45,-1.64,-1.64,-1.64
189.52,-1.62,-1.62,0.05,0.05,-0.04,-0.21,-0.43,-1.66,-1.67,-1.67
191.42,-1.76,-1.76,-0.06,-0.06,0.06,-0.15,-0.41,-1.70,-1.70,-1.70
193.33,-1.90,-1.90,-0.17,-0.17,0.16,-0.07,-0.39,-1.74,-1.73,-1.73
195.27,-2.03,-2.02,-0.27,-0.26,0.25,-0.00,-0.37,-1.77,-1.77,-1.76
197.22,-2.13,-2.13,-0.34,-0.34,0.34,0.08,-0.36,-1.79,-1.79,-1.79
199.19,-2.23,-2.23,-0.40,-0.41,0.41,0.16,-0.34,-1.82,-1.82,-1.82
201.18,-2.31,-2.31,-0.47,-0.47,0.47,0.23,-0.32,-1.83,-1.84,-1.84
203.19,-2.39,-2.38,-0.53,-0.52,0.53,0.31,-0.30,-1.86,-1.86,-1.86
205.23,-2.44,-2.44,-0.56,-0.57,0.56,0.37,-0.29,-1.87,-1.88,-1.88
207.28,-2.49,-2.49,-0.60,-0.59,0.59,0.43,-0.27,-1.90,-1.90,-1.89
209.35,-2.52,-2.52,-0.61,-0.61,0.60,0.47,-0.26,-1.92,-1.92,-1.91
211.44,-2.54,-2.54,-0.60,-0.61,0.60,0.50,-0.24,-1.94,-1.94,-1.94
213.56,-2.54,-2.53,-0.60,-0.59,0.59,0.50,-0.23,-1.95,-1.95,-1.94
215.69,-2.51,-2.51,-0.57,-0.57,0.56,0.49,-0.22,-1.95,-1.95,-1.94
217.85,-2.48,-2.48,-0.52,-0.52,0.52,0.45,-0.20,-1.96,-1.96,-1.96
220.03,-2.44,-2.44,-0.47,-0.47,0.47,0.42,-0.19,-1.96,-1.96,-1.97
222.23,-2.39,-2.39,-0.41,-0.41,0.42,0.36,-0.18,-1.97,-1.97,-1.98
224.45,-2.33,-2.33,-0.36,-0.35,0.36,0.31,-0.17,-1.97,-1.97,-1.97
226.70,-2.27,-2.27,-0.30,-0.29,0.29,0.25,-0.16,-1.98,-1.97,-1.97
228.96,-2.20,-2.20,-0.23,-0.23,0.23,0.19,-0.15,-1.97,-1.97,-1.97
231.25,-2.13,-2.13,-0.16,-0.16,0.16,0.14,-0.14,-1.97,-1.97,-1.96
233.57,-2.06,-2.06,-0.10,-0.09,0.10,0.08,-0.13,-1.96,-1.96,-1.96
235.90,-1.99,-1.99,-0.03,-0.03,0.03,0.04,-0.12,-1.95,-1.96,-1.96
238.26,-1.93,-1.93,0.03,0.03,-0.02,-0.01,-0.12,-1.95,-1.95,-1.96
240.64,-1.87,-1.87,0.08,0.09,-0.08,-0.04,-0.11,-1.95,-1.95,-1.95
243.05,-1.81,-1.81,0.13,0.13,-0.13,-0.08,-0.11,-1.94,-1.94,-1.94
245.48,-1.76,-1.76,0.17,0.17,-0.17,-0.11,-0.10,-1.93,-1.93,-1.93
247.93,-1.71,-1.71,0.21,0.21,-0.22,-0.14,-0.10,-1.92,-1.92,-1.92
250.41,-1.66,-1.66,0.26,0.25,-0.25,-0.16,-0.10,-1.91,-1.91,-1.91
252.92,-1.61,-1.61,0.28,0.28,-0.29,-0.18,-0.09,-1.90,-1.90,-1.89
255.45,-1.56,-1.56,0.31,0.32,-0.32,-0.20,-0.09,-1.88,-1.88,-1.87
258.00,-1.51,-1.51,0.35,0.35,-0.35,-0.21,-0.09,-1.86,-1.85,-1.86
260.58,-1.46,-1.46,0.39,0.38,-0.37,-0.23,-0.09,-1.83,-1.83,-1.84
263.19,-1.43,-1.43,0.39,0.40,-0.39,-0.24,-0.09,-1.81,-1.81,-1.82
265.82,-1.40,-1.40,0.41,0.40,-0.40,-0.25,-0.09,-1.80,-1.80,-1.81
268.48,-1.38,-1.37,0.40,0.41,-0.41,-0.26,-0.10,-1.79,-1.78,-1.78
271.16,-1.35,-1.35,0.41,0.41,-0.41,-0.26,-0.10,-1.76,-1.76,-1.76
273.87,-1.33,-1.33,0.42,0.41,-0.42,-0.27,-0.10,-1.74,-1.74,-1.74
276.61,-1.31,-1.31,0.41,0.41,-0.42,-0.28,-0.11,-1.73,-1.73,-1.72
279.38,-1.29,-1.29,0.42,0.42,-0.42,-0.28,-0.11,-1.71,-1.71,-1.70
282.17,-1.27,-1.27,0.42,0.42,-0.43,-0.29,-0.12,-1.69,-1.69,-1.69
284.99,-1.24,-1.24,0.43,0.43,-0.43,-0.29,-0.12,-1.67,-1.67,-1.66
287.84,-1.21,-1.21,0.44,0.44,-0.44,-0.29,-0.13,-1.65,-1.65,-1.65
290.72,-1.18,-1.18,0.45,0.45,-0.44,-0.30,-0.13,-1.62,-1.62,-1.62
293.63,-1.16,-1.15,0.45,0.45,-0.45,-0.30,-0.14,-1.61,-1.60,-1.61
296.57,-1.13,-1.13,0.45,0.46,-0.45,-0.30,-0.15,-1.58,-1.58,-1.58
299.53,-1.11,-1.11,0.46,0.45,-0.45,-0.30,-0.16,-1.56,-1.56,-1.57
302.53,-1.10,-1.09,0.45,0.45,-0.45,-0.30,-0.17,-1.55,-1.54,-1.55
305.55,-1.08,-1.08,0.44,0.45,-0.45,-0.31,-0.17,-1.52,-1.52,-1.51
308.61,-1.05,-1.05,0.45,0.44,-0.44,-0.31,-0.18,-1.49,-1.50,-1.50
311.69,-1.03,-1.03,0.44,0.44,-0.44,-0.31,-0.19,-1.47,-1.47,-1.47
314.81,-1.00,-1.00,0.44,0.44,-0.45,-0.31,-0.20,-1.44,-1.45,-1.44
317.96,-0.98,-0.98,0.44,0.44,-0.45,-0.32,-0.21,-1.43,-1.43,-1.42
321.14,-0.95,-0.95,0.45,0.45,-0.46,-0.32,-0.22,-1.41,-1.41,-1.40
324.35,-0.91,-0.91,0.48,0.47,-0.47,-0.32,-0.24,-1.38,-1.38,-1.38
327.59,-0.88,-0.88,0.48,0.49,-0.48,-0.32,-0.25,-1.36,-1.36,-1.36
330.87,-0.84,-0.84,0.50,0.50,-0.49,-0.33,-0.26,-1.33,-1.33,-1.34
334.18,-0.81,-0.81,0.51,0.51,-0.50,-0.33,-0.27,-1.31,-1.31,-1.32
337.52,-0.78,-0.78,0.53,0.52,-0.52,-0.33,-0.28,-1.29,-1.30,-1.31
340.90,-0.76,-0.76,0.52,0.53,-0.53,-0.34,-0.30,-1.29,-1.29,-1.28
344.30,-0.73,-0.73,0.53,0.53,-0.54,-0.34,-0.31,-1.27,-1.27,-1.26
347.75,-0.70,-0.70,0.54,0.55,-0.56,-0.35,-0.32,-1.26,-1.26,-1.24
351.23,-0.66,-0.66,0.57,0.57,-0.58,-0.35,-0.33,-1.23,-1.23,-1.23
354.74,-0.62,-0.62,0.59,0.59,-0.59,-0.36,-0.35,-1.21,-1.21,-1.21
358.28,-0.58,-0.58,0.61,0.61,-0.60,-0.37,-0.36,-1.18,-1.18,-1.19
361.87,-0.55,-0.55,0.62,0.62,-0.61,-0.38,-0.38,-1.16,-1.16,-1.17
365.49,-0.53,-0.53,0.63,0.63,-0.62,-0.38,-0.39,-1.15,-1.15,-1.15
369.14,-0.52,-0.52,0.63,0.62,-0.62,-0.39,-0.41,-1.13,-1.13,-1.15
372.83,-0.52,-0.52,0.61,0.61,-0.61,-0.41,-0.42,-1.12,-1.12,-1.13
376.56,-0.52,-0.52,0.60,0.59,-0.59,-0.42,-0.44,-1.11,-1.11,-1.12
380.33,-0.53,-0.53,0.56,0.57,-0.57,-0.43,-0.45,-1.09,-1.09,-1.09
384.13,-0.54,-0.54,0.54,0.55,-0.54,-0.45,-0.47,-1.08,-1.08,-1.08
387.97,-0.55,-0.55,0.53,0.52,-0.52,-0.46,-0.48,-1.07,-1.07,-1.07
391.85,-0.57,-0.57,0.50,0.49,-0.50,-0.48,-0.50,-1.06,-1.07,-1.07
395.77,-0.59,-0.58,0.46,0.47,-0.48,-0.50,-0.52,-1.07,-1.06,-1.05
399.73,-0.58,-0.58,0.46,0.46,-0.48,-0.52,-0.53,-1.05,-1.05,-1.04
403.72,-0.56,-0.56,0.47,0.47,-0.48,-0.54,-0.55,-1.04,-1.04,-1.03
407.76,-0.53,-0.53,0.49,0.49,-0.49,-0.57,-0.56,-1.02,-1.02,-1.02
411.84,-0.50,-0.49,0.50,0.51,-0.51,-0.59,-0.58,-1.01,-1.01,-1.00
415.96,-0.45,-0.45,0.54,0.54,-0.55,-0.62,-0.60,-0.99,-1.00,-0.99
420.12,-0.40,-0.40,0.59,0.58,-0.58,-0.65,-0.61,-0.98,-0.99,-0.98
424.32,-0.35,-0.35,0.63,0.63,-0.63,-0.68,-0.63,-0.98,-0.98,-0.98
428.56,-0.30,-0.30,0.67,0.67,-0.67,-0.72,-0.64,-0.97,-0.97,-0.97
432.85,-0.24,-0.24,0.72,0.72,-0.71,-0.75,-0.65,-0.95,-0.96,-0.96
437.18,-0.19,-0.19,0.76,0.76,-0.75,-0.79,-0.67,-0.94,-0.94,-0.95
441.55,-0.14,-0.14,0.79,0.80,-0.79,-0.83,-0.68,-0.93,-0.93,-0.93
445.96,-0.09,-0.09,0.83,0.83,-0.82,-0.86,-0.69,-0.91,-0.91,-0.92
450.42,-0.06,-0.06,0.85,0.85,-0.84,-0.90,-0.70,-0.90,-0.90,-0.91
454.93,-0.04,-0.03,0.85,0.86,-0.85,-0.94,-0.71,-0.89,-0.88,-0.89
459.48,-0.01,-0.01,0.87,0.87,-0.86,-0.97,-0.72,-0.87,-0.87,-0.88
464.07,0.01,0.01,0.88,0.87,-0.87,-1.00,-0.73,-0.86,-0.87,-0.86
468.71,0.02,0.02,0.87,0.87,-0.88,-1.02,-0.74,-0.86,-0.86,-0.84
473.40,0.03,0.04,0.87,0.87,-0.89,-1.04,-0.74,-0.86,-0.85,-0.84
478.13,0.07,0.07,0.89,0.89,-0.90,-1.05,-0.74,-0.83,-0.83,-0.82
482.91,0.11,0.11,0.92,0.91,-0.92,-1.06,-0.75,-0.81,-0.81,-0.81
487.74,0.15,0.15,0.94,0.94,-0.93,-1.06,-0.75,-0.78,-0.78,-0.79
492.62,0.18,0.18,0.95,0.95,-0.95,-1.05,-0.75,-0.77,-0.76,-0.77
497.55,0.21,0.21,0.97,0.97,-0.96,-1.03,-0.74,-0.75,-0.75,-0.76
502.52,0.24,0.24,0.98,0.98,-0.97,-1.00,-0.74,-0.73,-0.73,-0.74
507.55,0.26,0.26,0.99,0.99,-0.98,-0.97,-0.73,-0.72,-0.72,-0.73
