frequency,raw,error,smoothed,error_smoothed,equalization,parametric_eq,fixed_band_eq,equalized_raw,equalized_smoothed,target
20.00,1.04,-0.52,1.03,-0.53,0.55,-0.62,-0.54,1.59,1.58,1.56
20.20,1.07,-0.52,1.07,-0.52,0.52,-0.62,-0.56,1.59,1.60,1.59
20.40,1.11,-0.51,1.12,-0.50,0.49,-0.63,-0.57,1.61,1.61,1.62
20.61,1.17,-0.47,1.17,-0.48,0.46,-0.64,-0.59,1.63,1.63,1.64
20.81,1.24,-0.43,1.23,-0.44,0.43,-0.64,-0.61,1.67,1.66,1.67
21.02,1.30,-0.40,1.30,-0.40,0.39,-0.65,-0.62,1.69,1.69,1.70
21.23,1.36,-0.35,1.36,-0.36,0.35,-0.66,-0.64,1.71,1.71,1.71
21.44,1.42,-0.30,1.42,-0.31,0.30,-0.66,-0.66,1.72,1.72,1.72
21.66,1.47,-0.26,1.48,-0.25,0.25,-0.67,-0.68,1.72,1.74,1.73
21.87,1.55,-0.18,1.54,-0.19,0.20,-0.68,-0.70,1.75,1.74,1.73
22.09,1.61,-0.13,1.60,-0.14,0.15,-0.68,-0.72,1.76,1.75,1.74
22.31,1.65,-0.09,1.66,-0.09,0.09,-0.69,-0.74,1.74,1.74,1.74
22.54,1.70,-0.04,1.70,-0.04,0.03,-0.70,-0.76,1.73,1.73,1.74
22.76,1.75,0.01,1.75,0.01,-0.02,-0.71,-0.78,1.73,1.73,1.74
22.99,1.81,0.08,1.81,0.08,-0.08,-0.72,-0.81,1.73,1.73,1.73
23.22,1.87,0.14,1.87,0.14,-0.13,-0.72,-0.83,1.74,1.74,1.73
23.45,1.93,0.20,1.93,0.20,-0.19,-0.73,-0.85,1.74,1.74,1.73
23.69,1.98,0.25,1.98,0.25,-0.24,-0.74,-0.88,1.74,1.74,1.73
23.92,2.02,0.29,2.03,0.29,-0.29,-0.75,-0.90,1.73,1.74,1.73
24.16,2.07,0.33,2.07,0.33,-0.34,-0.76,-0.92,1.73,1.73,1.74
24.40,2.12,0.38,2.12,0.38,-0.39,-0.77,-0.95,1.73,1.73,1.74
24.65,2.16,0.43,2.16,0.43,-0.44,-0.78,-0.97,1.72,1.73,1.73
24.89,2.21,0.48,2.21,0.48,-0.48,-0.79,-1.00,1.73,1.73,1.73
25.14,2.26,0.53,2.26,0.53,-0.53,-0.80,-1.03,1.73,1.73,1.73
25.39,2.30,0.57,2.30,0.58,-0.58,-0.81,-1.05,1.72,1.73,1.73
25.65,2.35,0.62,2.35,0.63,-0.63,-0.82,-1.08,1.72,1.72,1.73
25.91,2.40,0.68,2.40,0.68,-0.68,-0.83,-1.10,1.72,1.72,1.72
26.16,2.44,0.73,2.44,0.73,-0.72,-0.85,-1.13,1.72,1.72,1.72
26.43,2.49,0.77,2.49,0.77,-0.77,-0.86,-1.16,1.72,1.72,1.71
26.69,2.52,0.81,2.53,0.82,-0.81,-0.87,-1.18,1.71,1.71,1.71
26.96,2.58,0.87,2.57,0.86,-0.86,-0.88,-1.21,1.72,1.71,1.71
27.23,2.61,0.90,2.61,0.90,-0.90,-0.90,-1.23,1.71,1.71,1.71
27.50,2.65,0.94,2.65,0.94,-0.95,-0.91,-1.25,1.70,1.71,1.71
27.77,2.69,0.99,2.69,0.99,-0.99,-0.92,-1.28,1.70,1.70,1.70
28.05,2.73,1.03,2.73,1.03,-1.03,-0.94,-1.30,1.70,1.70,1.70
28.33,2.76,1.07,2.76,1.07,-1.07,-0.95,-1.32,1.69,1.70,1.69
28.62,2.79,1.10,2.80,1.11,-1.10,-0.97,-1.34,1.69,1.69,1.69
28.90,2.84,1.15,2.83,1.14,-1.14,-0.98,-1.36,1.70,1.69,1.69
29.19,2.85,1.17,2.86,1.18,-1.17,-1.00,-1.38,1.68,1.69,1.68
29.48,2.89,1.20,2.88,1.20,-1.21,-1.02,-1.39,1.68,1.68,1.69
29.78,2.91,1.23,2.91,1.23,-1.24,-1.03,-1.41,1.67,1.67,1.67
30.08,2.93,1.26,2.93,1.26,-1.27,-1.05,-1.42,1.66,1.67,1.67
30.38,2.97,1.31,2.96,1.30,-1.30,-1.07,-1.43,1.67,1.66,1.66
30.68,2.98,1.32,2.99,1.33,-1.33,-1.09,-1.44,1.65,1.66,1.66
30.99,3.03,1.38,3.02,1.36,-1.36,-1.10,-1.45,1.67,1.66,1.65
31.30,3.03,1.38,3.04,1.39,-1.38,-1.12,-1.45,1.65,1.65,1.65
31.61,3.05,1.40,3.05,1.41,-1.41,-1.14,-1.46,1.64,1.64,1.65
31.93,3.07,1.43,3.06,1.43,-1.43,-1.16,-1.46,1.64,1.63,1.64
32.24,3.07,1.45,3.09,1.46,-1.45,-1.18,-1.46,1.62,1.63,1.63
32.57,3.12,1.50,3.11,1.48,-1.47,-1.21,-1.46,1.65,1.63,1.62
32.89,3.12,1.50,3.12,1.50,-1.49,-1.23,-1.46,1.63,1.62,1.62
33.22,3.12,1.51,3.12,1.51,-1.51,-1.25,-1.45,1.61,1.61,1.61
33.55,3.12,1.51,3.12,1.52,-1.53,-1.27,-1.45,1.59,1.60,1.61
33.89,3.13,1.53,3.14,1.54,-1.55,-1.30,-1.44,1.58,1.59,1.60
34.23,3.16,1.56,3.15,1.56,-1.56,-1.32,-1.43,1.60,1.59,1.60
34.57,3.17,1.59,3.17,1.58,-1.57,-1.35,-1.42,1.60,1.59,1.58
34.92,3.17,1.60,3.17,1.60,-1.59,-1.37,-1.41,1.58,1.58,1.57
35.27,3.17,1.60,3.17,1.60,-1.60,-1.40,-1.40,1.57,1.57,1.57
35.62,3.17,1.61,3.17,1.61,-1.61,-1.42,-1.38,1.56,1.56,1.56
35.97,3.17,1.62,3.17,1.62,-1.62,-1.45,-1.37,1.55,1.55,1.55
36.33,3.17,1.63,3.17,1.63,-1.63,-1.48,-1.36,1.54,1.54,1.54
36.70,3.17,1.64,3.17,1.64,-1.63,-1.50,-1.34,1.54,1.54,1.53
37.06,3.17,1.65,3.17,1.64,-1.64,-1.53,-1.33,1.53,1.53,1.52
37.43,3.17,1.65,3.16,1.65,-1.64,-1.56,-1.31,1.53,1.52,1.52
37.81,3.14,1.64,3.15,1.64,-1.65,-1.59,-1.30,1.49,1.50,1.50
38.19,3.14,1.65,3.14,1.64,-1.66,-1.61,-1.29,1.48,1.48,1.49
38.57,3.14,1.65,3.14,1.66,-1.67,-1.64,-1.27,1.47,1.47,1.49
38.95,3.15,1.67,3.15,1.68,-1.68,-1.67,-1.26,1.47,1.47,1.48
39.34,3.17,1.71,3.16,1.70,-1.69,-1.70,-1.24,1.48,1.47,1.46
39.74,3.17,1.72,3.17,1.72,-1.71,-1.72,-1.23,1.46,1.46,1.45
40.14,3.17,1.72,3.17,1.73,-1.72,-1.75,-1.22,1.45,1.45,1.45
40.54,3.17,1.74,3.17,1.73,-1.73,-1.77,-1.21,1.44,1.44,1.43
40.94,3.17,1.74,3.17,1.74,-1.74,-1.79,-1.19,1.43,1.43,1.43
41.35,3.17,1.75,3.17,1.75,-1.75,-1.82,-1.18,1.42,1.42,1.42
41.76,3.17,1.76,3.17,1.76,-1.76,-1.84,-1.17,1.41,1.41,1.41
42.18,3.17,1.76,3.17,1.76,-1.77,-1.86,-1.16,1.40,1.40,1.41
42.60,3.17,1.78,3.17,1.77,-1.78,-1.88,-1.15,1.39,1.39,1.39
43.03,3.17,1.78,3.17,1.78,-1.79,-1.89,-1.15,1.38,1.38,1.39
43.46,3.17,1.79,3.18,1.80,-1.81,-1.91,-1.14,1.36,1.37,1.38
43.90,3.19,1.84,3.18,1.83,-1.83,-1.92,-1.13,1.36,1.36,1.35
44.33,3.19,1.85,3.19,1.85,-1.85,-1.93,-1.13,1.34,1.34,1.34
44.78,3.19,1.87,3.19,1.87,-1.86,-1.94,-1.12,1.33,1.33,1.32
45.23,3.19,1.88,3.19,1.88,-1.88,-1.95,-1.12,1.31,1.31,1.31
45.68,3.19,1.90,3.19,1.90,-1.89,-1.95,-1.11,1.30,1.30,1.29
46.13,3.19,1.91,3.19,1.91,-1.91,-1.95,-1.11,1.28,1.28,1.28
46.60,3.19,1.92,3.18,1.92,-1.92,-1.95,-1.11,1.27,1.27,1.27
47.06,3.17,1.92,3.18,1.92,-1.93,-1.95,-1.11,1.24,1.25,1.25
47.53,3.17,1.93,3.17,1.93,-1.94,-1.95,-1.11,1.23,1.23,1.24
48.01,3.17,1.94,3.17,1.95,-1.95,-1.94,-1.11,1.22,1.22,1.23
48.49,3.17,1.96,3.17,1.96,-1.96,-1.94,-1.11,1.21,1.20,1.21
48.97,3.17,1.99,3.16,1.98,-1.97,-1.93,-1.11,1.20,1.18,1.18
49.46,3.12,1.97,3.14,1.99,-1.98,-1.92,-1.12,1.14,1.16,1.15
49.96,3.12,2.00,3.12,1.99,-1.99,-1.90,-1.12,1.13,1.13,1.12
50.46,3.10,1.98,3.09,1.98,-1.98,-1.89,-1.13,1.12,1.11,1.12
50.96,3.07,1.97,3.07,1.98,-1.97,-1.87,-1.13,1.10,1.10,1.10
51.47,3.04,1.97,3.04,1.97,-1.96,-1.85,-1.14,1.08,1.08,1.07
51.99,3.00,1.95,3.00,1.94,-1.94,-1.83,-1.15,1.07,1.06,1.05
52.51,2.95,1.91,2.95,1.91,-1.90,-1.81,-1.16,1.05,1.04,1.04
53.03,2.88,1.86,2.89,1.86,-1.87,-1.78,-1.16,1.01,1.02,1.02
53.56,2.82,1.82,2.82,1.82,-1.82,-1.76,-1.17,1.00,1.00,1.00
54.10,2.76,1.78,2.76,1.77,-1.77,-1.73,-1.18,0.99,0.99,0.99
54.64,2.69,1.73,2.69,1.72,-1.72,-1.69,-1.19,0.97,0.97,0.97
55.18,2.61,1.66,2.61,1.66,-1.66,-1.66,-1.21,0.95,0.95,0.94
55.74,2.51,1.59,2.52,1.59,-1.59,-1.62,-1.22,0.92,0.93,0.92
56.29,2.44,1.53,2.43,1.52,-1.52,-1.58,-1.23,0.92,0.91,0.91
56.86,2.33,1.44,2.34,1.45,-1.45,-1.53,-1.25,0.88,0.89,0.89
57.42,2.27,1.40,2.26,1.39,-1.38,-1.48,-1.26,0.89,0.88,0.87
58.00,2.16,1.30,2.17,1.31,-1.31,-1.42,-1.27,0.85,0.86,0.86
58.58,2.09,1.25,2.08,1.24,-1.24,-1.36,-1.29,0.85,0.84,0.84
59.16,1.99,1.16,2.00,1.17,-1.17,-1.30,-1.31,0.82,0.83,0.83
59.76,1.92,1.10,1.92,1.10,-1.11,-1.23,-1.32,0.81,0.81,0.82
60.35,1.84,1.05,1.84,1.04,-1.05,-1.16,-1.34,0.79,0.79,0.79
60.96,1.76,0.98,1.76,0.99,-0.99,-1.09,-1.36,0.77,0.77,0.78
61.57,1.69,0.95,1.69,0.94,-0.94,-1.02,-1.38,0.75,0.75,0.74
62.18,1.61,0.89,1.62,0.90,-0.89,-0.95,-1.40,0.72,0.73,0.72
62.80,1.56,0.86,1.55,0.86,-0.85,-0.88,-1.42,0.71,0.70,0.70
63.43,1.50,0.82,1.49,0.82,-0.82,-0.83,-1.44,0.68,0.68,0.68
64.07,1.44,0.78,1.45,0.79,-0.79,-0.78,-1.46,0.65,0.66,0.66
64.71,1.41,0.77,1.41,0.77,-0.77,-0.76,-1.48,0.64,0.64,0.64
65.35,1.40,0.78,1.38,0.76,-0.76,-0.75,-1.50,0.64,0.62,0.62
66.01,1.35,0.75,1.36,0.76,-0.77,-0.76,-1.53,0.58,0.60,0.60
66.67,1.35,0.76,1.36,0.77,-0.78,-0.79,-1.55,0.57,0.58,0.59
67.33,1.38,0.81,1.37,0.80,-0.81,-0.84,-1.58,0.57,0.55,0.57
68.01,1.40,0.85,1.40,0.85,-0.86,-0.91,-1.60,0.54,0.54,0.55
68.69,1.43,0.90,1.44,0.92,-0.92,-0.99,-1.63,0.51,0.53,0.53
69.37,1.50,1.00,1.49,0.99,-0.98,-1.08,-1.66,0.52,0.51,0.50
70.07,1.56,1.08,1.55,1.07,-1.07,-1.18,-1.69,0.49,0.49,0.48
70.77,1.61,1.14,1.62,1.15,-1.16,-1.28,-1.72,0.45,0.46,0.47
71.48,1.69,1.24,1.69,1.24,-1.25,-1.38,-1.75,0.44,0.44,0.45
72.19,1.77,1.35,1.77,1.35,-1.35,-1.48,-1.78,0.42,0.42,0.42
72.91,1.86,1.46,1.86,1.46,-1.46,-1.58,-1.82,0.40,0.40,0.40
73.64,1.94,1.57,1.94,1.56,-1.56,-1.67,-1.85,0.38,0.38,0.37
74.38,2.02,1.66,2.02,1.67,-1.67,-1.76,-1.89,0.35,0.36,0.36
75.12,2.11,1.78,2.11,1.77,-1.77,-1.85,-1.93,0.34,0.34,0.33
75.87,2.18,1.86,2.18,1.87,-1.87,-1.93,-1.97,0.31,0.32,0.32
76.63,2.26,1.96,2.26,1.96,-1.96,-2.01,-2.01,0.30,0.30,0.30
77.40,2.32,2.04,2.32,2.04,-2.04,-2.08,-2.06,0.28,0.28,0.28
78.17,2.38,2.13,2.38,2.12,-2.11,-2.15,-2.10,0.27,0.27,0.25
78.95,2.42,2.18,2.42,2.18,-2.17,-2.22,-2.15,0.25,0.25,0.24
79.74,2.47,2.25,2.46,2.24,-2.23,-2.28,-2.20,0.24,0.23,0.22
80.54,2.47,2.27,2.48,2.28,-2.27,-2.34,-2.25,0.20,0.21,0.20
81.35,2.51,2.33,2.50,2.32,-2.31,-2.39,-2.30,0.20,0.19,0.18
82.16,2.51,2.35,2.51,2.34,-2.34,-2.45,-2.35,0.17,0.17,0.16
82.98,2.51,2.36,2.51,2.37,-2.37,-2.50,-2.41,0.14,0.14,0.15
83.81,2.51,2.39,2.52,2.39,-2.41,-2.55,-2.47,0.10,0.11,0.12
84.65,2.53,2.43,2.53,2.43,-2.44,-2.60,-2.53,0.09,0.09,0.10
85.50,2.56,2.48,2.55,2.48,-2.49,-2.65,-2.59,0.07,0.07,0.08
86.35,2.58,2.52,2.59,2.54,-2.54,-2.69,-2.66,0.04,0.05,0.06
87.22,2.64,2.61,2.63,2.60,-2.60,-2.74,-2.72,0.04,0.03,0.03
88.09,2.68,2.67,2.68,2.66,-2.67,-2.78,-2.79,0.01,0.01,0.01
88.97,2.72,2.73,2.73,2.74,-2.74,-2.83,-2.87,-0.02,-0.01,-0.01
89.86,2.79,2.82,2.79,2.82,-2.83,-2.87,-2.94,-0.04,-0.04,-0.03
90.76,2.86,2.93,2.85,2.91,-2.91,-2.91,-3.01,-0.05,-0.06,-0.07
91.66,2.91,3.00,2.91,3.01,-3.00,-2.95,-3.09,-0.09,-0.09,-0.09
92.58,2.97,3.09,2.97,3.09,-3.09,-2.99,-3.17,-0.12,-0.12,-0.12
93.51,3.04,3.18,3.04,3.18,-3.18,-3.03,-3.25,-0.14,-0.15,-0.14
94.44,3.10,3.27,3.10,3.27,-3.27,-3.07,-3.34,-0.17,-0.17,-0.17
95.39,3.16,3.35,3.16,3.36,-3.36,-3.11,-3.42,-0.20,-0.20,-0.20
96.34,3.22,3.45,3.22,3.45,-3.44,-3.14,-3.51,-0.22,-0.22,-0.23
97.30,3.26,3.52,3.26,3.52,-3.52,-3.18,-3.60,-0.26,-0.25,-0.26
98.28,3.31,3.60,3.31,3.60,-3.59,-3.22,-3.69,-0.28,-0.29,-0.29
99.26,3.34,3.66,3.34,3.66,-3.66,-3.26,-3.78,-0.32,-0.32,-0.32
100.25,3.38,3.73,3.38,3.73,-3.73,-3.29,-3.87,-0.35,-0.35,-0.35
101.25,3.40,3.78,3.41,3.79,-3.79,-3.33,-3.97,-0.39,-0.38,-0.38
102.27,3.45,3.86,3.44,3.85,-3.84,-3.37,-4.06,-0.39,-0.40,-0.41
103.29,3.45,3.90,3.46,3.90,-3.89,-3.40,-4.15,-0.44,-0.43,-0.45
104.32,3.48,3.95,3.48,3.94,-3.94,-3.44,-4.25,-0.46,-0.47,-0.47
105.37,3.49,3.98,3.48,3.98,-3.99,-3.47,-4.34,-0.50,-0.51,-0.49
106.42,3.49,4.01,3.50,4.02,-4.03,-3.51,-4.43,-0.54,-0.53,-0.52
107.48,3.51,4.06,3.51,4.07,-4.07,-3.54,-4.52,-0.56,-0.56,-0.55
108.56,3.54,4.13,3.53,4.12,-4.11,-3.58,-4.61,-0.57,-0.59,-0.59
109.64,3.54,4.16,3.54,4.16,-4.15,-3.61,-4.70,-0.61,-0.61,-0.62
110.74,3.54,4.19,3.54,4.20,-4.19,-3.64,-4.78,-0.65,-0.65,-0.65
111.85,3.54,4.22,3.54,4.23,-4.23,-3.68,-4.86,-0.69,-0.69,-0.68
112.97,3.54,4.27,3.54,4.26,-4.27,-3.71,-4.93,-0.73,-0.73,-0.73
114.10,3.54,4.30,3.54,4.30,-4.31,-3.74,-5.00,-0.77,-0.76,-0.76
115.24,3.54,4.34,3.54,4.34,-4.34,-3.77,-5.06,-0.80,-0.79,-0.80
116.39,3.54,4.37,3.53,4.37,-4.36,-3.80,-5.12,-0.82,-0.83,-0.83
117.55,3.52,4.39,3.52,4.39,-4.38,-3.83,-5.17,-0.86,-0.86,-0.87
118.73,3.49,4.40,3.50,4.40,-4.40,-3.86,-5.22,-0.91,-0.90,-0.91
119.92,3.47,4.41,3.47,4.41,-4.40,-3.89,-5.25,-0.93,-0.93,-0.94
121.12,3.44,4.41,3.44,4.41,-4.40,-3.92,-5.28,-0.96,-0.97,-0.97
122.33,3.40,4.41,3.40,4.41,-4.40,-3.95,-5.30,-1.00,-1.00,-1.01
123.55,3.35,4.38,3.36,4.39,-4.39,-3.98,-5.31,-1.04,-1.04,-1.03
124.79,3.32,4.39,3.31,4.38,-4.39,-4.01,-5.31,-1.07,-1.07,-1.07
126.03,3.26,4.37,3.27,4.37,-4.38,-4.03,-5.31,-1.12,-1.11,-1.11
127.29,3.23,4.37,3.22,4.37,-4.37,-4.06,-5.29,-1.14,-1.15,-1.14
128.57,3.18,4.36,3.18,4.36,-4.37,-4.09,-5.27,-1.19,-1.18,-1.18
129.85,3.15,4.37,3.15,4.37,-4.37,-4.11,-5.23,-1.22,-1.22,-1.22
131.15,3.12,4.37,3.12,4.37,-4.37,-4.13,-5.19,-1.25,-1.25,-1.25
132.46,3.09,4.37,3.10,4.38,-4.38,-4.15,-5.14,-1.29,-1.28,-1.28
133.79,3.07,4.37,3.07,4.38,-4.39,-4.18,-5.08,-1.32,-1.32,-1.30
135.12,3.07,4.42,3.05,4.39,-4.40,-4.20,-5.01,-1.33,-1.35,-1.35
136.48,3.03,4.40,3.04,4.41,-4.42,-4.22,-4.95,-1.39,-1.38,-1.37
137.84,3.03,4.43,3.04,4.44,-4.43,-4.23,-4.87,-1.40,-1.40,-1.40
139.22,3.03,4.47,3.02,4.46,-4.45,-4.25,-4.79,-1.42,-1.42,-1.44
140.61,3.03,4.50,3.01,4.47,-4.46,-4.27,-4.70,-1.43,-1.45,-1.47
142.02,2.98,4.45,3.00,4.48,-4.48,-4.28,-4.61,-1.50,-1.47,-1.47
143.44,2.98,4.48,2.98,4.49,-4.49,-4.29,-4.51,-1.51,-1.51,-1.50
144.87,2.98,4.51,2.96,4.49,-4.50,-4.31,-4.42,-1.52,-1.54,-1.53
146.32,2.94,4.50,2.95,4.51,-4.51,-4.32,-4.32,-1.57,-1.56,-1.56
147.78,2.93,4.50,2.93,4.51,-4.52,-4.33,-4.22,-1.59,-1.58,-1.57
149.26,2.93,4.53,2.92,4.52,-4.52,-4.33,-4.11,-1.59,-1.60,-1.60
150.75,2.90,4.53,2.90,4.53,-4.53,-4.34,-4.01,-1.63,-1.62,-1.63
152.26,2.89,4.55,2.89,4.54,-4.54,-4.34,-3.91,-1.65,-1.65,-1.66
153.78,2.85,4.53,2.86,4.54,-4.54,-4.34,-3.80,-1.69,-1.69,-1.68
155.32,2.84,4.55,2.83,4.54,-4.55,-4.34,-3.70,-1.71,-1.72,-1.71
156.88,2.79,4.53,2.80,4.54,-4.55,-4.34,-3.59,-1.76,-1.75,-1.74
158.44,2.78,4.55,2.78,4.55,-4.55,-4.34,-3.49,-1.77,-1.77,-1.77
160.03,2.75,4.55,2.74,4.54,-4.54,-4.33,-3.39,-1.79,-1.80,-1.80
161.63,2.70,4.53,2.71,4.54,-4.53,-4.32,-3.29,-1.83,-1.82,-1.83
163.24,2.67,4.53,2.66,4.52,-4.51,-4.31,-3.19,-1.84,-1.85,-1.86
164.88,2.61,4.49,2.61,4.50,-4.50,-4.30,-3.09,-1.89,-1.88,-1.88
166.53,2.56,4.47,2.56,4.47,-4.47,-4.28,-2.99,-1.91,-1.91,-1.91
168.19,2.50,4.44,2.50,4.44,-4.45,-4.26,-2.90,-1.95,-1.95,-1.94
169.87,2.44,4.41,2.45,4.41,-4.42,-4.24,-2.81,-1.98,-1.97,-1.97
171.57,2.39,4.39,2.39,4.38,-4.39,-4.22,-2.71,-2.00,-2.00,-2.00
173.29,2.33,4.35,2.33,4.35,-4.35,-4.20,-2.62,-2.02,-2.02,-2.02
175.02,2.26,4.31,2.27,4.32,-4.32,-4.17,-2.54,-2.06,-2.05,-2.05
176.77,2.20,4.29,2.20,4.28,-4.28,-4.14,-2.45,-2.08,-2.08,-2.09
178.54,2.13,4.25,2.13,4.24,-4.24,-4.10,-2.37,-2.11,-2.11,-2.12
180.32,2.05,4.20,2.05,4.20,-4.20,-4.06,-2.28,-2.15,-2.14,-2.15
182.13,1.98,4.15,1.98,4.15,-4.15,-4.02,-2.21,-2.17,-2.17,-2.17
183.95,1.90,4.11,1.90,4.10,-4.10,-3.98,-2.13,-2.20,-2.20,-2.21
185.79,1.82,4.05,1.82,4.05,-4.05,-3.93,-2.05,-2.23,-2.23,-2.23
187.65,1.72,3.98,1.73,3.99,-3.99,-3.88,-1.98,-2.27,-2.26,-2.26
189.52,1.65,3.93,1.64,3.92,-3.92,-3.83,-1.90,-2.27,-2.28,-2.29
191.42,1.54,3.85,1.55,3.86,-3.86,-3.77,-1.83,-2.32,-2.31,-2.31
193.33,1.46,3.79,1.46,3.79,-3.79,-3.71,-1.76,-2.33,-2.33,-2.33
195.27,1.36,3.71,1.36,3.71,-3.72,-3.65,-1.69,-2.36,-2.36,-2.35
197.22,1.26,3.63,1.26,3.64,-3.64,-3.58,-1.63,-2.38,-2.38,-2.37
199.19,1.16,3.56,1.16,3.56,-3.56,-3.51,-1.56,-2.40,-2.40,-2.40
201.18,1.06,3.47,1.06,3.48,-3.47,-3.43,-1.50,-2.41,-2.41,-2.41
203.19,0.96,3.38,0.96,3.39,-3.38,-3.35,-1.44,-2.42,-2.42,-2.42
205.23,0.85,3.29,0.85,3.29,-3.29,-3.27,-1.38,-2.43,-2.43,-2.44
207.28,0.74,3.18,0.74,3.19,-3.18,-3.18,-1.32,-2.44,-2.45,-2.44
209.35,0.62,3.08,0.62,3.08,-3.08,-3.09,-1.26,-2.46,-2.46,-2.46
211.44,0.48,2.96,0.49,2.96,-2.97,-2.99,-1.21,-2.49,-2.48,-2.48
213.56,0.37,2.85,0.37,2.85,-2.85,-2.89,-1.15,-2.48,-2.49,-2.48
215.69,0.24,2.72,0.24,2.73,-2.73,-2.79,-1.10,-2.49,-2.49,-2.48
217.85,0.13,2.62,0.12,2.61,-2.61,-2.68,-1.05,-2.48,-2.49,-2.49
220.03,-0.01,2.48,-0.00,2.49,-2.48,-2.57,-1.00,-2.49,-2.49,-2.49
222.23,-0.13,2.37,-0.13,2.36,-2.36,-2.45,-0.95,-2.49,-2.49,-2.50
224.45,-0.27,2.22,-0.27,2.23,-2.22,-2.33,-0.90,-2.49,-2.49,-2.49
226.70,-0.40,2.09,-0.40,2.09,-2.09,-2.21,-0.86,-2.49,-2.49,-2.49
228.96,-0.53,1.95,-0.53,1.95,-1.95,-2.08,-0.81,-2.48,-2.49,-2.48
231.25,-0.66,1.81,-0.66,1.81,-1.81,-1.95,-0.77,-2.47,-2.48,-2.47
233.57,-0.81,1.66,-0.80,1.67,-1.67,-1.81,-0.72,-2.48,-2.47,-2.47
235.90,-0.93,1.53,-0.94,1.52,-1.52,-1.67,-0.68,-2.45,-2.46,-2.46
238.26,-1.08,1.38,-1.08,1.37,-1.37,-1.53,-0.64,-2.45,-2.45,-2.46
240.64,-1.23,1.21,-1.22,1.22,-1.22,-1.38,-0.60,-2.45,-2.44,-2.44
243.05,-1.37,1.06,-1.37,1.06,-1.06,-1.23,-0.56,-2.43,-2.43,-2.43
245.48,-1.50,0.91,-1.51,0.90,-0.90,-1.07,-0.53,-2.40,-2.42,-2.41
247.93,-1.66,0.74,-1.66,0.75,-0.74,-0.91,-0.49,-2.40,-2.40,-2.40
250.41,-1.81,0.58,-1.81,0.58,-0.58,-0.75,-0.46,-2.39,-2.38,-2.39
252.92,-1.95,0.42,-1.96,0.41,-0.41,-0.59,-0.42,-2.36,-2.37,-2.37
255.45,-2.11,0.23,-2.10,0.24,-0.24,-0.42,-0.39,-2.35,-2.34,-2.34
258.00,-2.25,0.08,-2.26,0.07,-0.07,-0.25,-0.36,-2.32,-2.33,-2.33
260.58,-2.41,-0.10,-2.41,-0.10,0.10,-0.08,-0.33,-2.31,-2.31,-2.31
263.19,-2.56,-0.28,-2.56,-0.27,0.27,0.10,-0.29,-2.29,-2.28,-2.28
265.82,-2.70,-0.43,-2.71,-0.44,0.44,0.27,-0.26,-2.26,-2.27,-2.27
268.48,-2.85,-0.61,-2.85,-0.61,0.60,0.45,-0.24,-2.25,-2.24,-2.24
271.16,-2.99,-0.78,-2.99,-0.77,0.76,0.63,-0.21,-2.23,-2.22,-2.21
273.87,-3.11,-0.91,-3.12,-0.93,0.91,0.80,-0.18,-2.20,-2.21,-2.20
276.61,-3.25,-1.08,-3.24,-1.07,1.06,0.98,-0.15,-2.19,-2.18,-2.17
279.38,-3.36,-1.21,-3.36,-1.20,1.20,1.15,-0.13,-2.16,-2.15,-2.15
282.17,-3.46,-1.32,-3.47,-1.33,1.34,1.33,-0.10,-2.12,-2.13,-2.14
284.99,-3.57,-1.46,-3.57,-1.46,1.47,1.49,-0.07,-2.10,-2.10,-2.11
287.84,-3.68,-1.59,-3.68,-1.59,1.60,1.66,-0.05,-2.09,-2.08,-2.09
290.72,-3.79,-1.72,-3.79,-1.72,1.71,1.82,-0.02,-2.08,-2.07,-2.07
293.63,-3.88,-1.83,-3.88,-1.84,1.83,1.98,0.00,-2.05,-2.05,-2.05
296.57,-3.98,-1.96,-3.97,-1.95,1.94,2.13,0.03,-2.04,-2.03,-2.02
299.53,-4.05,-2.05,-4.05,-2.05,2.05,2.27,0.05,-2.00,-2.01,-2.00
302.53,-4.13,-2.14,-4.13,-2.15,2.15,2.40,0.08,-1.98,-1.98,-1.99
305.55,-4.20,-2.25,-4.20,-2.24,2.25,2.52,0.10,-1.95,-1.95,-1.95
308.61,-4.26,-2.33,-4.26,-2.33,2.34,2.64,0.13,-1.92,-1.92,-1.93
311.69,-4.32,-2.42,-4.32,-2.43,2.43,2.74,0.15,-1.89,-1.90,-1.90
314.81,-4.38,-2.52,-4.38,-2.51,2.51,2.84,0.18,-1.87,-1.87,-1.86
317.96,-4.44,-2.59,-4.43,-2.59,2.58,2.92,0.20,-1.86,-1.85,-1.85
321.14,-4.48,-2.65,-4.48,-2.66,2.65,2.99,0.23,-1.83,-1.83,-1.83
324.35,-4.52,-2.71,-4.52,-2.72,2.72,3.05,0.25,-1.80,-1.81,-1.81
327.59,-4.56,-2.78,-4.56,-2.78,2.78,3.09,0.28,-1.78,-1.78,-1.78
330.87,-4.59,-2.83,-4.58,-2.82,2.83,3.13,0.31,-1.76,-1.76,-1.76
334.18,-4.61,-2.87,-4.61,-2.87,2.87,3.15,0.33,-1.74,-1.74,-1.74
337.52,-4.61,-2.88,-4.63,-2.91,2.91,3.16,0.36,-1.70,-1.73,-1.73
340.90,-4.66,-2.96,-4.64,-2.94,2.94,3.16,0.39,-1.72,-1.71,-1.70
344.30,-4.66,-2.98,-4.64,-2.96,2.96,3.14,0.42,-1.70,-1.69,-1.68
347.75,-4.61,-2.95,-4.63,-2.97,2.97,3.12,0.45,-1.64,-1.66,-1.66
351.23,-4.61,-2.97,-4.61,-2.97,2.97,3.09,0.48,-1.64,-1.64,-1.64
354.74,-4.59,-2.97,-4.58,-2.96,2.97,3.04,0.51,-1.62,-1.62,-1.62
358.28,-4.56,-2.96,-4.56,-2.95,2.95,2.99,0.54,-1.61,-1.61,-1.60
361.87,-4.51,-2.93,-4.51,-2.93,2.92,2.94,0.57,-1.59,-1.59,-1.58
365.49,-4.46,-2.89,-4.46,-2.89,2.89,2.88,0.60,-1.57,-1.57,-1.57
369.14,-4.40,-2.84,-4.40,-2.85,2.85,2.81,0.63,-1.55,-1.55,-1.56
372.83,-4.34,-2.80,-4.34,-2.80,2.80,2.73,0.66,-1.54,-1.53,-1.54
376.56,-4.27,-2.74,-4.27,-2.75,2.75,2.66,0.69,-1.52,-1.52,-1.53
380.33,-4.19,-2.69,-4.20,-2.69,2.69,2.58,0.73,-1.50,-1.51,-1.50
384.13,-4.13,-2.64,-4.12,-2.63,2.63,2.50,0.76,-1.50,-1.49,-1.49
387.97,-4.04,-2.56,-4.04,-2.56,2.56,2.41,0.79,-1.48,-1.48,-1.48
391.85,-3.96,-2.49,-3.96,-2.49,2.49,2.32,0.83,-1.47,-1.47,-1.47
395.77,-3.88,-2.43,-3.88,-2.42,2.42,2.24,0.86,-1.46,-1.45,-1.45
399.73,-3.79,-2.35,-3.79,-2.35,2.35,2.15,0.89,-1.44,-1.44,-1.44
403.72,-3.70,-2.27,-3.70,-2.27,2.27,2.06,0.93,-1.43,-1.43,-1.43
407.76,-3.62,-2.19,-3.61,-2.19,2.19,1.98,0.96,-1.43,-1.42,-1.43
411.84,-3.51,-2.10,-3.52,-2.11,2.11,1.89,1.00,-1.40,-1.41,-1.41
415.96,-3.42,-2.02,-3.43,-2.03,2.02,1.80,1.03,-1.40,-1.40,-1.40
420.12,-3.34,-1.95,-3.33,-1.94,1.94,1.72,1.06,-1.40,-1.39,-1.39
424.32,-3.23,-1.85,-3.23,-1.85,1.85,1.64,1.10,-1.38,-1.38,-1.38
428.56,-3.12,-1.75,-3.13,-1.76,1.76,1.56,1.13,-1.36,-1.37,-1.37
432.85,-3.03,-1.67,-3.03,-1.67,1.68,1.48,1.16,-1.35,-1.35,-1.36
437.18,-2.94,-1.59,-2.93,-1.59,1.59,1.40,1.19,-1.35,-1.34,-1.35
441.55,-2.84,-1.51,-2.84,-1.50,1.51,1.33,1.22,-1.33,-1.33,-1.33
445.96,-2.73,-1.41,-2.74,-1.42,1.42,1.25,1.24,-1.31,-1.32,-1.32
450.42,-2.66,-1.35,-2.65,-1.34,1.34,1.18,1.27,-1.32,-1.30,-1.31
454.93,-2.56,-1.27,-2.56,-1.27,1.27,1.11,1.29,-1.29,-1.30,-1.29
459.48,-2.47,-1.19,-2.47,-1.19,1.19,1.04,1.31,-1.28,-1.28,-1.28
464.07,-2.39,-1.13,-2.38,-1.12,1.12,0.98,1.33,-1.27,-1.26,-1.26
468.71,-2.28,-1.04,-2.29,-1.05,1.05,0.92,1.35,-1.23,-1.25,-1.24
473.40,-2.22,-0.99,-2.21,-0.98,0.98,0.86,1.37,-1.24,-1.23,-1.23
478.13,-2.11,-0.90,-2.12,-0.90,0.91,0.80,1.38,-1.20,-1.21,-1.21
482.91,-2.05,-0.85,-2.04,-0.84,0.84,0.74,1.39,-1.21,-1.20,-1.20
487.74,-1.95,-0.77,-1.96,-0.77,0.77,0.69,1.40,-1.18,-1.18,-1.18
492.62,-1.88,-0.72,-1.87,-0.71,0.71,0.64,1.40,-1.17,-1.17,-1.16
