frequency,raw,smoothed,error,error_smoothed,equalization,parametric_eq,fixed_band_eq,equalized_raw,equalized_smoothed,target
20.00,1.65,1.64,-0.78,-0.79,0.77,0.79,-0.06,2.42,2.42,2.43
20.20,1.68,1.68,-0.78,-0.78,0.78,0.77,-0.06,2.45,2.46,2.46
20.40,1.72,1.72,-0.77,-0.77,0.78,0.74,-0.06,2.49,2.49,2.49
20.61,1.75,1.75,-0.76,-0.77,0.77,0.72,-0.06,2.52,2.52,2.51
20.81,1.79,1.79,-0.75,-0.76,0.76,0.69,-0.06,2.55,2.55,2.54
21.02,1.82,1.82,-0.75,-0.74,0.75,0.67,-0.06,2.57,2.57,2.57
21.23,1.85,1.84,-0.73,-0.74,0.74,0.64,-0.06,2.59,2.58,2.58
21.44,1.87,1.87,-0.72,-0.72,0.72,0.62,-0.06,2.59,2.59,2.59
21.66,1.89,1.89,-0.71,-0.70,0.70,0.59,-0.06,2.59,2.60,2.60
21.87,1.92,1.92,-0.68,-0.68,0.68,0.57,-0.06,2.60,2.60,2.60
22.09,1.95,1.95,-0.66,-0.66,0.66,0.54,-0.06,2.60,2.60,2.61
22.31,1.98,1.98,-0.63,-0.63,0.62,0.51,-0.06,2.60,2.60,2.61
22.54,2.02,2.01,-0.59,-0.59,0.58,0.49,-0.06,2.60,2.60,2.60
22.76,2.06,2.05,-0.55,-0.55,0.53,0.46,-0.07,2.59,2.59,2.60
22.99,2.10,2.10,-0.50,-0.49,0.48,0.44,-0.07,2.58,2.58,2.59
23.22,2.16,2.16,-0.44,-0.44,0.43,0.41,-0.07,2.58,2.58,2.59
23.45,2.22,2.22,-0.37,-0.37,0.37,0.38,-0.07,2.59,2.60,2.59
23.69,2.29,2.29,-0.31,-0.30,0.32,0.36,-0.07,2.61,2.61,2.59
23.92,2.35,2.34,-0.24,-0.26,0.28,0.33,-0.07,2.63,2.62,2.59
24.16,2.38,2.37,-0.22,-0.22,0.24,0.30,-0.07,2.62,2.62,2.60
24.40,2.39,2.39,-0.21,-0.20,0.21,0.28,-0.07,2.59,2.60,2.60
24.65,2.41,2.40,-0.18,-0.19,0.18,0.25,-0.07,2.59,2.58,2.59
24.89,2.42,2.42,-0.17,-0.17,0.15,0.22,-0.07,2.57,2.57,2.59
25.14,2.44,2.44,-0.15,-0.14,0.13,0.20,-0.07,2.57,2.57,2.59
25.39,2.47,2.47,-0.12,-0.12,0.11,0.17,-0.07,2.58,2.57,2.58
25.65,2.50,2.49,-0.09,-0.09,0.08,0.14,-0.08,2.58,2.58,2.58
25.91,2.52,2.52,-0.06,-0.06,0.06,0.12,-0.08,2.57,2.58,2.57
26.16,2.55,2.54,-0.02,-0.03,0.03,0.09,-0.08,2.58,2.58,2.57
26.43,2.57,2.57,-0.00,-0.00,0.01,0.06,-0.08,2.58,2.58,2.57
26.69,2.59,2.59,0.02,0.02,-0.00,0.03,-0.09,2.58,2.59,2.57
26.96,2.62,2.61,0.05,0.04,-0.02,0.01,-0.09,2.60,2.59,2.57
27.23,2.62,2.61,0.05,0.05,-0.04,-0.02,-0.09,2.58,2.57,2.57
27.50,2.61,2.61,0.04,0.05,-0.06,-0.05,-0.09,2.54,2.55,2.57
27.77,2.61,2.61,0.05,0.05,-0.09,-0.08,-0.10,2.52,2.52,2.55
28.05,2.62,2.63,0.06,0.08,-0.12,-0.10,-0.10,2.50,2.51,2.55
28.33,2.68,2.68,0.14,0.13,-0.14,-0.13,-0.11,2.53,2.53,2.54
28.62,2.74,2.74,0.20,0.20,-0.17,-0.16,-0.11,2.56,2.56,2.54
28.90,2.80,2.79,0.26,0.25,-0.20,-0.18,-0.12,2.59,2.58,2.54
29.19,2.82,2.81,0.29,0.28,-0.24,-0.21,-0.13,2.58,2.57,2.53
29.48,2.81,2.81,0.27,0.28,-0.28,-0.24,-0.13,2.53,2.53,2.53
29.78,2.80,2.81,0.27,0.28,-0.32,-0.27,-0.14,2.48,2.49,2.52
30.08,2.82,2.83,0.30,0.31,-0.36,-0.29,-0.15,2.46,2.47,2.52
30.38,2.88,2.88,0.37,0.37,-0.39,-0.32,-0.16,2.49,2.49,2.51
30.68,2.94,2.93,0.43,0.43,-0.42,-0.35,-0.17,2.52,2.52,2.51
30.99,3.00,2.98,0.50,0.48,-0.45,-0.38,-0.18,2.55,2.53,2.49
31.30,3.00,3.00,0.50,0.51,-0.48,-0.40,-0.19,2.52,2.53,2.49
31.61,3.01,3.01,0.52,0.52,-0.50,-0.43,-0.20,2.50,2.50,2.49
31.93,3.01,3.01,0.53,0.53,-0.53,-0.46,-0.22,2.48,2.48,2.48
32.24,3.01,3.01,0.54,0.54,-0.55,-0.48,-0.23,2.46,2.46,2.47
32.57,3.01,3.01,0.54,0.54,-0.56,-0.51,-0.25,2.45,2.44,2.46
32.89,3.01,3.01,0.55,0.56,-0.57,-0.54,-0.26,2.43,2.44,2.46
33.22,3.03,3.03,0.58,0.58,-0.59,-0.56,-0.28,2.44,2.44,2.45
33.55,3.06,3.06,0.61,0.61,-0.61,-0.59,-0.30,2.45,2.45,2.44
33.89,3.09,3.08,0.65,0.65,-0.63,-0.62,-0.31,2.46,2.45,2.43
34.23,3.10,3.09,0.67,0.67,-0.66,-0.64,-0.33,2.44,2.43,2.43
34.57,3.10,3.10,0.68,0.68,-0.69,-0.67,-0.35,2.41,2.41,2.42
34.92,3.10,3.10,0.69,0.70,-0.72,-0.70,-0.37,2.38,2.39,2.40
35.27,3.13,3.13,0.73,0.74,-0.74,-0.72,-0.39,2.38,2.39,2.40
35.62,3.17,3.17,0.78,0.78,-0.77,-0.75,-0.41,2.40,2.40,2.39
35.97,3.22,3.20,0.84,0.82,-0.80,-0.78,-0.44,2.42,2.40,2.37
36.33,3.21,3.20,0.84,0.84,-0.82,-0.80,-0.46,2.38,2.38,2.37
36.70,3.19,3.20,0.83,0.84,-0.86,-0.83,-0.48,2.33,2.34,2.35
37.06,3.19,3.20,0.85,0.86,-0.89,-0.85,-0.51,2.30,2.32,2.34
37.43,3.23,3.23,0.89,0.90,-0.91,-0.88,-0.53,2.31,2.32,2.34
37.81,3.28,3.27,0.95,0.94,-0.94,-0.91,-0.56,2.34,2.33,2.32
38.19,3.30,3.29,0.99,0.98,-0.96,-0.93,-0.59,2.34,2.33,2.31
38.57,3.30,3.30,0.99,1.00,-0.98,-0.96,-0.61,2.31,2.32,2.30
38.95,3.30,3.30,1.01,1.01,-1.01,-0.98,-0.64,2.29,2.29,2.29
39.34,3.30,3.30,1.02,1.02,-1.03,-1.01,-0.67,2.27,2.27,2.27
39.74,3.30,3.30,1.04,1.04,-1.04,-1.03,-0.70,2.26,2.26,2.26
40.14,3.30,3.30,1.04,1.05,-1.05,-1.06,-0.73,2.25,2.25,2.25
40.54,3.30,3.30,1.06,1.06,-1.06,-1.08,-0.76,2.24,2.24,2.24
40.94,3.30,3.30,1.07,1.07,-1.07,-1.11,-0.79,2.23,2.23,2.23
41.35,3.30,3.30,1.08,1.08,-1.07,-1.13,-0.83,2.22,2.22,2.21
41.76,3.30,3.30,1.09,1.09,-1.08,-1.16,-0.86,2.21,2.21,2.21
42.18,3.30,3.30,1.10,1.10,-1.09,-1.18,-0.89,2.20,2.20,2.20
42.60,3.30,3.30,1.11,1.11,-1.11,-1.20,-0.93,2.19,2.19,2.19
43.03,3.30,3.29,1.12,1.12,-1.13,-1.23,-0.96,2.17,2.16,2.18
43.46,3.30,3.29,1.14,1.14,-1.15,-1.25,-1.00,2.14,2.14,2.16
43.90,3.30,3.31,1.16,1.17,-1.18,-1.28,-1.04,2.12,2.13,2.13
44.33,3.33,3.33,1.21,1.21,-1.22,-1.30,-1.08,2.11,2.12,2.12
44.78,3.37,3.36,1.27,1.26,-1.25,-1.32,-1.11,2.11,2.10,2.10
45.23,3.39,3.38,1.31,1.30,-1.29,-1.35,-1.15,2.09,2.09,2.08
45.68,3.40,3.40,1.34,1.34,-1.34,-1.37,-1.19,2.06,2.06,2.06
46.13,3.41,3.42,1.37,1.38,-1.38,-1.39,-1.23,2.03,2.04,2.04
46.60,3.45,3.45,1.41,1.42,-1.42,-1.42,-1.28,2.03,2.03,2.03
47.06,3.49,3.47,1.47,1.46,-1.45,-1.44,-1.32,2.04,2.02,2.01
47.53,3.49,3.49,1.49,1.49,-1.48,-1.46,-1.36,2.00,2.01,1.99
48.01,3.49,3.49,1.50,1.51,-1.51,-1.49,-1.41,1.97,1.98,1.98
48.49,3.49,3.49,1.53,1.53,-1.54,-1.51,-1.45,1.94,1.94,1.95
48.97,3.49,3.49,1.57,1.57,-1.57,-1.53,-1.49,1.92,1.92,1.92
49.46,3.49,3.49,1.60,1.60,-1.60,-1.55,-1.54,1.89,1.89,1.89
49.96,3.49,3.49,1.63,1.62,-1.62,-1.58,-1.59,1.87,1.87,1.86
50.46,3.49,3.49,1.64,1.65,-1.64,-1.60,-1.63,1.84,1.84,1.85
50.96,3.49,3.49,1.66,1.67,-1.67,-1.62,-1.68,1.82,1.82,1.82
51.47,3.49,3.49,1.70,1.69,-1.69,-1.64,-1.72,1.79,1.79,1.79
51.99,3.49,3.49,1.72,1.72,-1.72,-1.67,-1.77,1.77,1.77,1.77
52.51,3.49,3.49,1.73,1.74,-1.74,-1.69,-1.82,1.75,1.75,1.75
53.03,3.49,3.49,1.76,1.76,-1.76,-1.71,-1.86,1.72,1.72,1.73
53.56,3.49,3.49,1.78,1.78,-1.79,-1.73,-1.91,1.70,1.70,1.70
54.10,3.49,3.49,1.81,1.81,-1.82,-1.75,-1.95,1.67,1.67,1.68
54.64,3.49,3.49,1.84,1.84,-1.84,-1.78,-2.00,1.65,1.65,1.65
55.18,3.49,3.49,1.86,1.86,-1.86,-1.80,-2.04,1.62,1.62,1.63
55.74,3.49,3.49,1.89,1.89,-1.88,-1.82,-2.08,1.61,1.61,1.60
56.29,3.49,3.49,1.91,1.91,-1.89,-1.84,-2.12,1.59,1.60,1.58
56.86,3.49,3.48,1.93,1.92,-1.90,-1.86,-2.16,1.58,1.57,1.55
57.42,3.46,3.45,1.93,1.92,-1.91,-1.88,-2.20,1.54,1.54,1.52
58.00,3.41,3.42,1.90,1.92,-1.92,-1.90,-2.24,1.49,1.50,1.50
58.58,3.40,3.40,1.91,1.91,-1.93,-1.93,-2.27,1.47,1.47,1.48
59.16,3.39,3.39,1.92,1.92,-1.94,-1.95,-2.30,1.45,1.44,1.46
59.76,3.39,3.39,1.94,1.94,-1.96,-1.97,-2.33,1.43,1.43,1.44
60.35,3.39,3.39,1.98,1.97,-1.98,-1.99,-2.36,1.41,1.41,1.41
60.96,3.39,3.39,2.00,2.00,-2.00,-2.01,-2.38,1.38,1.38,1.39
61.57,3.39,3.39,2.04,2.04,-2.03,-2.03,-2.41,1.35,1.35,1.35
62.18,3.39,3.39,2.08,2.07,-2.07,-2.05,-2.43,1.32,1.32,1.31
62.80,3.39,3.39,2.10,2.10,-2.10,-2.07,-2.44,1.29,1.29,1.29
63.43,3.39,3.39,2.13,2.13,-2.13,-2.10,-2.46,1.25,1.25,1.25
64.07,3.39,3.39,2.16,2.16,-2.16,-2.12,-2.47,1.22,1.22,1.23
64.71,3.39,3.39,2.19,2.19,-2.19,-2.14,-2.48,1.20,1.20,1.20
65.35,3.39,3.39,2.21,2.22,-2.21,-2.16,-2.49,1.18,1.18,1.17
66.01,3.39,3.39,2.24,2.25,-2.23,-2.18,-2.49,1.16,1.16,1.14
66.67,3.39,3.37,2.27,2.26,-2.24,-2.20,-2.49,1.14,1.13,1.12
67.33,3.36,3.35,2.27,2.26,-2.26,-2.22,-2.50,1.09,1.08,1.09
68.01,3.30,3.32,2.24,2.26,-2.28,-2.25,-2.50,1.02,1.04,1.06
68.69,3.30,3.30,2.27,2.27,-2.30,-2.27,-2.49,1.00,1.00,1.02
69.37,3.30,3.29,2.31,2.30,-2.32,-2.29,-2.49,0.98,0.98,0.99
70.07,3.30,3.30,2.34,2.34,-2.33,-2.31,-2.48,0.97,0.97,0.96
70.77,3.30,3.30,2.36,2.37,-2.35,-2.33,-2.48,0.95,0.96,0.94
71.48,3.30,3.29,2.40,2.39,-2.36,-2.35,-2.47,0.93,0.92,0.90
72.19,3.28,3.26,2.41,2.39,-2.38,-2.38,-2.47,0.89,0.87,0.87
72.91,3.21,3.23,2.38,2.40,-2.41,-2.40,-2.46,0.80,0.82,0.83
73.64,3.20,3.20,2.40,2.41,-2.43,-2.42,-2.45,0.77,0.77,0.79
74.38,3.20,3.19,2.43,2.43,-2.45,-2.44,-2.45,0.74,0.74,0.76
75.12,3.20,3.20,2.47,2.47,-2.47,-2.46,-2.44,0.72,0.72,0.73
75.87,3.20,3.20,2.50,2.50,-2.49,-2.49,-2.43,0.70,0.70,0.70
76.63,3.20,3.20,2.53,2.54,-2.52,-2.51,-2.43,0.68,0.69,0.67
77.40,3.20,3.19,2.56,2.56,-2.54,-2.53,-2.43,0.66,0.65,0.64
78.17,3.19,3.17,2.59,2.57,-2.56,-2.55,-2.42,0.62,0.61,0.59
78.95,3.13,3.14,2.56,2.57,-2.58,-2.58,-2.42,0.55,0.56,0.57
79.74,3.11,3.12,2.57,2.58,-2.59,-2.60,-2.42,0.51,0.52,0.54
80.54,3.11,3.11,2.60,2.60,-2.61,-2.62,-2.42,0.50,0.50,0.50
81.35,3.11,3.10,2.64,2.63,-2.62,-2.64,-2.42,0.49,0.48,0.47
82.16,3.09,3.07,2.65,2.64,-2.63,-2.67,-2.43,0.45,0.44,0.43
82.98,3.03,3.04,2.62,2.64,-2.65,-2.69,-2.43,0.38,0.39,0.41
83.81,3.01,3.02,2.65,2.65,-2.67,-2.71,-2.44,0.34,0.35,0.36
84.65,3.01,3.01,2.68,2.68,-2.68,-2.73,-2.45,0.32,0.32,0.32
85.50,3.01,3.00,2.71,2.71,-2.70,-2.76,-2.46,0.31,0.30,0.29
86.35,2.99,2.98,2.73,2.72,-2.71,-2.78,-2.47,0.28,0.27,0.25
87.22,2.94,2.95,2.72,2.73,-2.72,-2.80,-2.49,0.22,0.23,0.21
88.09,2.91,2.91,2.73,2.73,-2.73,-2.83,-2.50,0.17,0.18,0.17
88.97,2.90,2.87,2.75,2.73,-2.75,-2.85,-2.52,0.15,0.12,0.14
89.86,2.83,2.84,2.73,2.75,-2.77,-2.87,-2.54,0.06,0.08,0.10
90.76,2.82,2.83,2.77,2.77,-2.79,-2.89,-2.56,0.03,0.04,0.05
91.66,2.82,2.81,2.80,2.80,-2.80,-2.92,-2.59,0.02,0.01,0.02
92.58,2.82,2.81,2.85,2.84,-2.82,-2.94,-2.61,-0.00,-0.01,-0.04
93.51,2.79,2.79,2.86,2.86,-2.84,-2.96,-2.64,-0.05,-0.05,-0.07
94.44,2.75,2.76,2.86,2.87,-2.86,-2.98,-2.67,-0.11,-0.10,-0.11
95.39,2.72,2.71,2.88,2.87,-2.88,-3.01,-2.70,-0.16,-0.17,-0.16
96.34,2.68,2.67,2.89,2.88,-2.90,-3.03,-2.73,-0.22,-0.23,-0.21
97.30,2.62,2.63,2.87,2.89,-2.91,-3.05,-2.77,-0.29,-0.28,-0.26
98.28,2.61,2.61,2.91,2.91,-2.92,-3.07,-2.81,-0.31,-0.31,-0.30
99.26,2.60,2.59,2.95,2.94,-2.93,-3.09,-2.84,-0.33,-0.33,-0.35
100.25,2.58,2.56,2.97,2.96,-2.93,-3.11,-2.88,-0.36,-0.37,-0.39
101.25,2.52,2.51,2.96,2.95,-2.94,-3.14,-2.92,-0.42,-0.42,-0.44
102.27,2.44,2.44,2.92,2.93,-2.94,-3.16,-2.96,-0.50,-0.49,-0.49
103.29,2.38,2.38,2.92,2.92,-2.93,-3.18,-3.00,-0.55,-0.55,-0.54
104.32,2.33,2.33,2.91,2.92,-2.92,-3.20,-3.04,-0.59,-0.59,-0.58
105.37,2.30,2.29,2.92,2.92,-2.91,-3.22,-3.09,-0.62,-0.62,-0.63
106.42,2.26,2.24,2.93,2.91,-2.91,-3.24,-3.13,-0.66,-0.67,-0.67
107.48,2.18,2.19,2.90,2.91,-2.92,-3.26,-3.17,-0.74,-0.73,-0.72
108.56,2.13,2.14,2.90,2.91,-2.93,-3.28,-3.21,-0.80,-0.79,-0.77
109.64,2.11,2.10,2.93,2.92,-2.94,-3.30,-3.25,-0.84,-0.84,-0.82
110.74,2.09,2.09,2.95,2.95,-2.95,-3.31,-3.29,-0.87,-0.87,-0.87
111.85,2.07,2.09,2.98,3.00,-2.97,-3.33,-3.33,-0.90,-0.88,-0.91
112.97,2.07,2.05,3.04,3.02,-2.98,-3.35,-3.37,-0.92,-0.93,-0.98
114.10,2.04,2.00,3.06,3.02,-3.01,-3.37,-3.40,-0.97,-1.01,-1.02
115.24,1.89,1.93,2.97,3.01,-3.03,-3.38,-3.43,-1.14,-1.10,-1.08
116.39,1.88,1.88,3.01,3.01,-3.06,-3.40,-3.47,-1.18,-1.17,-1.13
117.55,1.87,1.86,3.05,3.05,-3.08,-3.42,-3.49,-1.21,-1.22,-1.19
118.73,1.88,1.88,3.12,3.12,-3.10,-3.43,-3.52,-1.23,-1.22,-1.24
119.92,1.88,1.88,3.16,3.16,-3.13,-3.45,-3.54,-1.26,-1.26,-1.28
121.12,1.88,1.85,3.21,3.19,-3.17,-3.46,-3.56,-1.30,-1.32,-1.34
122.33,1.82,1.83,3.21,3.21,-3.22,-3.48,-3.57,-1.40,-1.39,-1.39
123.55,1.79,1.81,3.22,3.24,-3.27,-3.49,-3.59,-1.48,-1.46,-1.43
124.79,1.82,1.80,3.30,3.28,-3.32,-3.50,-3.59,-1.50,-1.51,-1.48
126.03,1.82,1.83,3.35,3.36,-3.35,-3.52,-3.60,-1.54,-1.53,-1.53
127.29,1.84,1.83,3.42,3.42,-3.39,-3.53,-3.60,-1.55,-1.56,-1.58
128.57,1.84,1.81,3.48,3.45,-3.42,-3.54,-3.60,-1.58,-1.61,-1.64
129.85,1.76,1.79,3.45,3.48,-3.45,-3.55,-3.59,-1.69,-1.66,-1.69
131.15,1.75,1.75,3.48,3.49,-3.48,-3.56,-3.58,-1.74,-1.74,-1.74
132.46,1.74,1.70,3.52,3.49,-3.51,-3.57,-3.57,-1.78,-1.81,-1.79
133.79,1.66,1.68,3.48,3.51,-3.54,-3.58,-3.55,-1.88,-1.86,-1.82
135.12,1.65,1.67,3.52,3.54,-3.56,-3.59,-3.53,-1.91,-1.89,-1.88
136.48,1.67,1.66,3.58,3.58,-3.58,-3.60,-3.51,-1.91,-1.92,-1.91
137.84,1.69,1.66,3.64,3.62,-3.59,-3.61,-3.49,-1.91,-1.93,-1.96
139.22,1.64,1.64,3.65,3.65,-3.61,-3.62,-3.46,-1.97,-1.97,-2.01
140.61,1.59,1.61,3.64,3.65,-3.63,-3.62,-3.44,-2.04,-2.02,-2.05
142.02,1.58,1.55,3.65,3.64,-3.65,-3.63,-3.41,-2.08,-2.10,-2.08
143.44,1.52,1.51,3.63,3.63,-3.67,-3.64,-3.38,-2.15,-2.15,-2.12
144.87,1.47,1.49,3.62,3.65,-3.68,-3.64,-3.35,-2.21,-2.19,-2.16
146.32,1.48,1.48,3.67,3.67,-3.69,-3.65,-3.32,-2.21,-2.21,-2.20
147.78,1.50,1.49,3.72,3.72,-3.69,-3.65,-3.29,-2.20,-2.21,-2.23
149.26,1.49,1.48,3.75,3.75,-3.70,-3.66,-3.26,-2.22,-2.23,-2.26
150.75,1.44,1.43,3.75,3.74,-3.72,-3.66,-3.23,-2.28,-2.29,-2.31
152.26,1.37,1.36,3.71,3.71,-3.73,-3.66,-3.21,-2.36,-2.37,-2.35
153.78,1.29,1.31,3.67,3.70,-3.74,-3.67,-3.18,-2.45,-2.42,-2.38
155.32,1.28,1.30,3.70,3.72,-3.74,-3.67,-3.15,-2.46,-2.44,-2.43
156.88,1.31,1.27,3.77,3.74,-3.73,-3.67,-3.13,-2.42,-2.45,-2.46
158.44,1.27,1.23,3.77,3.74,-3.71,-3.68,-3.10,-2.45,-2.48,-2.50
160.03,1.14,1.18,3.68,3.73,-3.70,-3.68,-3.08,-2.56,-2.52,-2.55
161.63,1.11,1.11,3.69,3.70,-3.69,-3.68,-3.06,-2.58,-2.58,-2.59
163.24,1.09,1.04,3.72,3.67,-3.68,-3.68,-3.04,-2.59,-2.64,-2.63
164.88,0.98,0.98,3.64,3.65,-3.66,-3.69,-3.03,-2.69,-2.68,-2.66
166.53,0.90,0.93,3.59,3.62,-3.65,-3.69,-3.01,-2.75,-2.72,-2.70
168.19,0.89,0.89,3.62,3.63,-3.63,-3.69,-3.00,-2.75,-2.74,-2.74
169.87,0.89,0.87,3.66,3.65,-3.63,-3.69,-2.99,-2.75,-2.76,-2.77
171.57,0.87,0.84,3.68,3.65,-3.64,-3.70,-2.98,-2.78,-2.80,-2.81
173.29,0.78,0.79,3.62,3.64,-3.66,-3.70,-2.97,-2.88,-2.86,-2.85
175.02,0.74,0.77,3.62,3.65,-3.68,-3.70,-2.97,-2.94,-2.91,-2.88
176.77,0.77,0.76,3.69,3.69,-3.69,-3.70,-2.97,-2.93,-2.93,-2.93
178.54,0.79,0.77,3.76,3.73,-3.71,-3.71,-2.97,-2.92,-2.94,-2.97
180.32,0.77,0.76,3.77,3.76,-3.72,-3.71,-2.97,-2.96,-2.97,-3.00
182.13,0.71,0.73,3.74,3.77,-3.75,-3.71,-2.98,-3.04,-3.02,-3.04
183.95,0.69,0.67,3.77,3.75,-3.77,-3.71,-2.99,-3.08,-3.09,-3.08
185.79,0.65,0.63,3.76,3.75,-3.79,-3.72,-3.00,-3.14,-3.16,-3.11
187.65,0.59,0.63,3.74,3.77,-3.80,-3.72,-3.01,-3.22,-3.18,-3.15
189.52,0.63,0.63,3.81,3.81,-3.81,-3.72,-3.02,-3.19,-3.18,-3.18
191.42,0.68,0.64,3.89,3.86,-3.83,-3.73,-3.04,-3.15,-3.18,-3.21
193.33,0.64,0.63,3.88,3.87,-3.83,-3.73,-3.06,-3.20,-3.20,-3.24
195.27,0.58,0.57,3.84,3.84,-3.84,-3.73,-3.08,-3.26,-3.27,-3.27
197.22,0.50,0.52,3.79,3.82,-3.84,-3.73,-3.10,-3.34,-3.32,-3.30
199.19,0.48,0.51,3.81,3.83,-3.84,-3.73,-3.12,-3.36,-3.33,-3.33
201.18,0.53,0.48,3.88,3.83,-3.82,-3.73,-3.15,-3.30,-3.34,-3.35
203.19,0.48,0.44,3.84,3.81,-3.80,-3.72,-3.17,-3.32,-3.36,-3.37
205.23,0.34,0.38,3.73,3.76,-3.77,-3.72,-3.20,-3.43,-3.39,-3.39
207.28,0.30,0.34,3.69,3.74,-3.74,-3.71,-3.22,-3.44,-3.40,-3.40
209.35,0.34,0.31,3.76,3.73,-3.72,-3.70,-3.25,-3.38,-3.41,-3.42
211.44,0.33,0.27,3.77,3.70,-3.69,-3.69,-3.28,-3.37,-3.43,-3.44
213.56,0.17,0.21,3.62,3.65,-3.67,-3.67,-3.31,-3.50,-3.46,-3.45
215.69,0.11,0.14,3.56,3.59,-3.64,-3.65,-3.33,-3.54,-3.50,-3.45
217.85,0.13,0.11,3.59,3.58,-3.61,-3.63,-3.36,-3.48,-3.50,-3.46
220.03,0.13,0.14,3.60,3.62,-3.58,-3.60,-3.39,-3.45,-3.44,-3.48
222.23,0.15,0.13,3.64,3.61,-3.55,-3.57,-3.41,-3.40,-3.41,-3.49
224.45,0.12,0.07,3.60,3.55,-3.52,-3.54,-3.43,-3.40,-3.45,-3.48
226.70,-0.03,-0.01,3.45,3.48,-3.50,-3.50,-3.45,-3.53,-3.50,-3.48
228.96,-0.11,-0.07,3.37,3.41,-3.47,-3.47,-3.47,-3.58,-3.54,-3.48
231.25,-0.07,-0.08,3.40,3.39,-3.44,-3.42,-3.49,-3.52,-3.53,-3.47
233.57,-0.05,-0.07,3.42,3.40,-3.41,-3.38,-3.50,-3.46,-3.48,-3.47
235.90,-0.04,-0.07,3.43,3.41,-3.36,-3.34,-3.51,-3.40,-3.43,-3.47
238.26,-0.12,-0.08,3.35,3.39,-3.33,-3.29,-3.51,-3.45,-3.41,-3.47
240.64,-0.11,-0.13,3.35,3.33,-3.30,-3.25,-3.51,-3.41,-3.43,-3.46
243.05,-0.15,-0.20,3.30,3.25,-3.28,-3.20,-3.51,-3.43,-3.48,-3.45
245.48,-0.28,-0.24,3.15,3.20,-3.26,-3.15,-3.51,-3.54,-3.49,-3.44
247.93,-0.28,-0.26,3.14,3.17,-3.23,-3.11,-3.50,-3.51,-3.49,-3.43
250.41,-0.22,-0.25,3.20,3.17,-3.19,-3.06,-3.48,-3.42,-3.44,-3.42
252.92,-0.20,-0.22,3.20,3.18,-3.15,-3.01,-3.46,-3.35,-3.37,-3.40
255.45,-0.22,-0.21,3.16,3.17,-3.11,-2.96,-3.44,-3.33,-3.32,-3.38
258.00,-0.25,-0.24,3.11,3.12,-3.07,-2.91,-3.41,-3.32,-3.31,-3.37
260.58,-0.27,-0.32,3.08,3.03,-3.02,-2.87,-3.38,-3.29,-3.34,-3.35
263.19,-0.40,-0.40,2.93,2.93,-2.96,-2.82,-3.34,-3.36,-3.37,-3.33
265.82,-0.53,-0.47,2.78,2.84,-2.89,-2.77,-3.30,-3.42,-3.36,-3.32
268.48,-0.50,-0.52,2.79,2.78,-2.81,-2.72,-3.26,-3.31,-3.32,-3.29
271.16,-0.49,-0.52,2.77,2.75,-2.73,-2.68,-3.21,-3.22,-3.24,-3.27
273.87,-0.56,-0.56,2.69,2.69,-2.65,-2.63,-3.16,-3.21,-3.21,-3.25
276.61,-0.60,-0.66,2.62,2.58,-2.58,-2.58,-3.11,-3.18,-3.24,-3.23
279.38,-0.79,-0.74,2.42,2.47,-2.51,-2.54,-3.05,-3.30,-3.25,-3.21
282.17,-0.83,-0.79,2.37,2.41,-2.43,-2.49,-2.99,-3.26,-3.22,-3.20
284.99,-0.78,-0.81,2.39,2.37,-2.34,-2.44,-2.93,-3.13,-3.15,-3.17
287.84,-0.79,-0.84,2.36,2.32,-2.26,-2.39,-2.87,-3.05,-3.10,-3.16
290.72,-0.90,-0.92,2.23,2.22,-2.17,-2.35,-2.81,-3.08,-3.09,-3.13
293.63,-1.07,-1.01,2.04,2.11,-2.11,-2.30,-2.74,-3.18,-3.12,-3.12
296.57,-1.08,-1.09,2.01,2.00,-2.07,-2.25,-2.68,-3.15,-3.16,-3.09
299.53,-1.08,-1.15,1.99,1.93,-2.03,-2.20,-2.61,-3.11,-3.17,-3.08
302.53,-1.18,-1.12,1.88,1.93,-1.99,-2.15,-2.54,-3.17,-3.11,-3.06
305.55,-1.13,-1.07,1.89,1.96,-1.95,-2.10,-2.48,-3.08,-3.02,-3.02
308.61,-0.95,-1.03,2.05,1.97,-1.91,-2.05,-2.41,-2.86,-2.94,-3.01
311.69,-0.97,-1.00,2.01,1.97,-1.87,-2.00,-2.34,-2.84,-2.87,-2.98
314.81,-1.09,-1.05,1.85,1.90,-1.84,-1.95,-2.28,-2.93,-2.88,-2.94
317.96,-1.13,-1.15,1.79,1.78,-1.80,-1.89,-2.21,-2.94,-2.95,-2.93
321.14,-1.21,-1.21,1.70,1.70,-1.76,-1.84,-2.15,-2.97,-2.97,-2.91
324.35,-1.27,-1.25,1.62,1.64,-1.70,-1.78,-2.08,-2.97,-2.95,-2.89
327.59,-1.24,-1.28,1.62,1.59,-1.63,-1.73,-2.02,-2.87,-2.91,-2.87
330.87,-1.30,-1.27,1.55,1.58,-1.56,-1.67,-1.96,-2.86,-2.83,-2.85
334.18,-1.29,-1.26,1.54,1.57,-1.49,-1.61,-1.90,-2.78,-2.75,-2.83
337.52,-1.23,-1.32,1.58,1.49,-1.43,-1.55,-1.84,-2.67,-2.75,-2.81
340.90,-1.38,-1.42,1.40,1.37,-1.38,-1.48,-1.78,-2.77,-2.80,-2.79
344.30,-1.59,-1.50,1.18,1.27,-1.33,-1.42,-1.72,-2.92,-2.83,-2.77
347.75,-1.58,-1.54,1.17,1.21,-1.27,-1.36,-1.66,-2.86,-2.81,-2.75
351.23,-1.46,-1.53,1.27,1.20,-1.22,-1.29,-1.60,-2.69,-2.75,-2.73
354.74,-1.47,-1.52,1.24,1.20,-1.17,-1.22,-1.55,-2.64,-2.68,-2.72
358.28,-1.59,-1.54,1.11,1.15,-1.12,-1.15,-1.50,-2.71,-2.66,-2.70
361.87,-1.61,-1.60,1.07,1.09,-1.08,-1.08,-1.44,-2.70,-2.68,-2.68
365.49,-1.60,-1.62,1.07,1.05,-1.05,-1.02,-1.39,-2.66,-2.68,-2.67
369.14,-1.63,-1.64,1.03,1.02,-1.02,-0.95,-1.34,-2.65,-2.66,-2.66
372.83,-1.67,-1.68,0.97,0.97,-0.98,-0.88,-1.29,-2.65,-2.66,-2.65
376.56,-1.73,-1.73,0.90,0.90,-0.93,-0.81,-1.25,-2.66,-2.66,-2.64
380.33,-1.76,-1.73,0.85,0.88,-0.88,-0.75,-1.20,-2.64,-2.61,-2.61
384.13,-1.75,-1.74,0.85,0.87,-0.83,-0.69,-1.15,-2.58,-2.57,-2.60
387.97,-1.69,-1.78,0.90,0.81,-0.79,-0.63,-1.11,-2.48,-2.57,-2.59
391.85,-1.86,-1.85,0.72,0.73,-0.74,-0.58,-1.07,-2.60,-2.59,-2.58
395.77,-1.98,-1.92,0.58,0.65,-0.68,-0.53,-1.02,-2.66,-2.60,-2.57
399.73,-1.96,-1.96,0.59,0.60,-0.63,-0.49,-0.98,-2.59,-2.58,-2.56
403.72,-1.91,-1.96,0.64,0.59,-0.57,-0.46,-0.94,-2.48,-2.53,-2.55
407.76,-1.96,-1.98,0.58,0.56,-0.51,-0.43,-0.90,-2.47,-2.49,-2.54
411.84,-2.05,-2.04,0.47,0.48,-0.46,-0.41,-0.87,-2.51,-2.50,-2.52
415.96,-2.13,-2.11,0.38,0.40,-0.42,-0.39,-0.83,-2.55,-2.53,-2.51
420.12,-2.14,-2.14,0.36,0.36,-0.39,-0.39,-0.80,-2.53,-2.54,-2.50
424.32,-2.14,-2.15,0.35,0.35,-0.37,-0.39,-0.76,-2.52,-2.52,-2.49
428.56,-2.13,-2.14,0.35,0.35,-0.37,-0.39,-0.73,-2.50,-2.51,-2.49
432.85,-2.12,-2.13,0.35,0.34,-0.37,-0.41,-0.70,-2.49,-2.50,-2.48
437.18,-2.09,-2.08,0.37,0.38,-0.39,-0.42,-0.67,-2.48,-2.47,-2.47
441.55,-2.05,-2.00,0.40,0.45,-0.41,-0.44,-0.64,-2.47,-2.42,-2.45
445.96,-1.88,-1.96,0.56,0.48,-0.45,-0.46,-0.61,-2.33,-2.41,-2.44
450.42,-1.89,-1.93,0.54,0.50,-0.49,-0.49,-0.59,-2.38,-2.41,-2.43
454.93,-1.98,-1.89,0.43,0.52,-0.53,-0.51,-0.56,-2.51,-2.42,-2.41
459.48,-1.85,-1.87,0.55,0.53,-0.57,-0.54,-0.54,-2.42,-2.44,-2.40
464.07,-1.77,-1.80,0.61,0.58,-0.61,-0.57,-0.52,-2.38,-2.41,-2.38
468.71,-1.72,-1.71,0.64,0.65,-0.64,-0.60,-0.50,-2.37,-2.36,-2.36
473.40,-1.66,-1.66,0.69,0.69,-0.68,-0.62,-0.48,-2.34,-2.34,-2.35
478.13,-1.60,-1.61,0.73,0.73,-0.71,-0.65,-0.47,-2.31,-2.32,-2.34
482.91,-1.56,-1.56,0.76,0.76,-0.74,-0.67,-0.45,-2.31,-2.30,-2.33
487.74,-1.52,-1.52,0.78,0.79,-0.78,-0.70,-0.44,-2.30,-2.30,-2.31
