frequency,raw,error,smoothed,error_smoothed,equalization,parametric_eq,equalized_raw,equalized_smoothed,target
20.00,8.47,4.06,8.47,4.06,-4.06,-1.12,4.40,4.41,4.41
20.20,8.46,4.04,8.46,4.04,-4.04,-1.15,4.41,4.42,4.42
20.40,8.45,4.02,8.45,4.03,-4.03,-1.19,4.42,4.43,4.43
20.61,8.45,4.01,8.44,4.01,-4.01,-1.22,4.44,4.44,4.44
20.81,8.44,3.99,8.43,3.99,-3.99,-1.26,4.45,4.45,4.45
21.02,8.43,3.97,8.42,3.97,-3.97,-1.29,4.46,4.46,4.46
21.23,8.42,3.95,8.41,3.95,-3.95,-1.33,4.47,4.47,4.47
21.44,8.41,3.93,8.40,3.92,-3.92,-1.37,4.48,4.48,4.48
21.66,8.40,3.91,8.39,3.90,-3.90,-1.41,4.49,4.49,4.49
21.87,8.39,3.89,8.38,3.88,-3.88,-1.45,4.51,4.50,4.50
22.09,8.37,3.85,8.37,3.86,-3.86,-1.49,4.51,4.51,4.51
22.31,8.36,3.83,8.36,3.84,-3.84,-1.53,4.52,4.52,4.52
22.54,8.35,3.81,8.34,3.81,-3.81,-1.58,4.53,4.53,4.53
22.76,8.33,3.78,8.33,3.79,-3.79,-1.62,4.54,4.54,4.54
22.99,8.32,3.76,8.32,3.76,-3.76,-1.67,4.55,4.55,4.55
23.22,8.31,3.74,8.30,3.74,-3.74,-1.72,4.57,4.57,4.57
23.45,8.29,3.71,8.29,3.71,-3.71,-1.77,4.57,4.58,4.58
23.69,8.28,3.69,8.28,3.69,-3.69,-1.81,4.59,4.59,4.59
23.92,8.26,3.65,8.26,3.66,-3.66,-1.87,4.59,4.60,4.60
24.16,8.25,3.63,8.25,3.64,-3.64,-1.92,4.61,4.61,4.61
24.40,8.24,3.61,8.23,3.61,-3.61,-1.97,4.63,4.62,4.62
24.65,8.22,3.58,8.22,3.58,-3.58,-2.02,4.63,4.63,4.63
24.89,8.21,3.56,8.20,3.56,-3.56,-2.08,4.65,4.64,4.64
25.14,8.19,3.53,8.18,3.53,-3.53,-2.13,4.66,4.65,4.65
25.39,8.17,3.50,8.17,3.50,-3.50,-2.18,4.66,4.66,4.67
25.65,8.15,3.47,8.15,3.48,-3.48,-2.24,4.67,4.67,4.68
25.91,8.14,3.45,8.13,3.45,-3.45,-2.30,4.69,4.68,4.69
26.16,8.12,3.42,8.12,3.42,-3.42,-2.35,4.70,4.70,4.70
26.43,8.10,3.39,8.10,3.39,-3.39,-2.41,4.70,4.71,4.71
26.69,8.08,3.36,8.08,3.36,-3.36,-2.46,4.71,4.72,4.72
26.96,8.06,3.33,8.06,3.33,-3.33,-2.51,4.72,4.73,4.73
27.23,8.04,3.30,8.04,3.30,-3.30,-2.57,4.73,4.74,4.74
27.50,8.02,3.27,8.02,3.27,-3.27,-2.62,4.74,4.75,4.75
27.77,8.01,3.25,8.00,3.24,-3.24,-2.67,4.76,4.76,4.76
28.05,7.99,3.22,7.98,3.21,-3.21,-2.72,4.77,4.77,4.77
28.33,7.96,3.18,7.96,3.18,-3.18,-2.77,4.78,4.78,4.78
28.62,7.94,3.15,7.94,3.15,-3.15,-2.82,4.79,4.79,4.79
28.90,7.92,3.12,7.91,3.11,-3.11,-2.86,4.80,4.80,4.80
29.19,7.89,3.08,7.89,3.08,-3.08,-2.90,4.81,4.81,4.81
29.48,7.87,3.04,7.86,3.04,-3.04,-2.94,4.83,4.82,4.82
29.78,7.84,3.00,7.83,3.00,-3.00,-2.98,4.83,4.83,4.83
30.08,7.81,2.96,7.81,2.96,-2.96,-3.01,4.84,4.84,4.84
30.38,7.78,2.92,7.78,2.92,-2.92,-3.04,4.85,4.85,4.85
30.68,7.75,2.88,7.74,2.88,-2.88,-3.07,4.86,4.86,4.86
30.99,7.72,2.84,7.71,2.84,-2.84,-3.09,4.87,4.87,4.87
31.30,7.69,2.80,7.68,2.80,-2.80,-3.11,4.89,4.88,4.88
31.61,7.65,2.75,7.65,2.76,-2.76,-3.13,4.89,4.89,4.89
31.93,7.62,2.71,7.61,2.72,-2.72,-3.15,4.90,4.90,4.90
32.24,7.58,2.66,7.58,2.67,-2.67,-3.16,4.90,4.91,4.91
32.57,7.55,2.63,7.55,2.63,-2.63,-3.17,4.91,4.92,4.92
32.89,7.51,2.58,7.52,2.59,-2.59,-3.17,4.91,4.93,4.93
33.22,7.48,2.54,7.49,2.55,-2.55,-3.18,4.93,4.94,4.94
33.55,7.45,2.50,7.45,2.51,-2.51,-3.18,4.94,4.94,4.95
33.89,7.42,2.46,7.42,2.47,-2.47,-3.18,4.95,4.95,4.96
34.23,7.39,2.42,7.39,2.43,-2.43,-3.17,4.96,4.96,4.96
34.57,7.36,2.38,7.35,2.38,-2.38,-3.17,4.97,4.97,4.97
34.92,7.34,2.36,7.32,2.34,-2.34,-3.16,5.00,4.98,4.98
35.27,7.30,2.31,7.28,2.30,-2.30,-3.15,5.00,4.99,4.99
35.62,7.26,2.26,7.25,2.26,-2.26,-3.14,5.00,4.99,5.00
35.97,7.22,2.21,7.21,2.21,-2.21,-3.14,5.00,5.00,5.00
36.33,7.18,2.17,7.18,2.17,-2.17,-3.13,5.01,5.01,5.01
36.70,7.14,2.12,7.14,2.12,-2.12,-3.12,5.02,5.02,5.02
37.06,7.10,2.07,7.10,2.08,-2.08,-3.11,5.02,5.02,5.02
37.43,7.06,2.02,7.06,2.03,-2.03,-3.10,5.03,5.03,5.03
37.81,7.02,1.98,7.02,1.98,-1.98,-3.09,5.03,5.04,5.04
38.19,6.98,1.93,6.98,1.94,-1.94,-3.08,5.04,5.04,5.04
38.57,6.95,1.90,6.94,1.89,-1.89,-3.07,5.06,5.05,5.05
38.95,6.91,1.85,6.90,1.85,-1.85,-3.06,5.06,5.05,5.06
39.34,6.87,1.81,6.86,1.80,-1.80,-3.06,5.06,5.06,5.06
39.74,6.83,1.76,6.82,1.76,-1.76,-3.05,5.07,5.07,5.07
40.14,6.79,1.72,6.79,1.72,-1.72,-3.05,5.07,5.07,5.07
40.54,6.75,1.67,6.75,1.68,-1.68,-3.05,5.07,5.08,5.08
40.94,6.72,1.64,6.72,1.64,-1.64,-3.05,5.08,5.08,5.08
41.35,6.69,1.60,6.69,1.60,-1.60,-3.06,5.09,5.08,5.08
41.76,6.66,1.57,6.66,1.57,-1.57,-3.06,5.09,5.09,5.09
42.18,6.63,1.53,6.63,1.54,-1.54,-3.07,5.09,5.09,5.09
42.60,6.62,1.52,6.60,1.51,-1.51,-3.08,5.11,5.10,5.10
43.03,6.60,1.50,6.59,1.48,-1.48,-3.09,5.11,5.10,5.10
43.46,6.58,1.47,6.57,1.46,-1.46,-3.10,5.11,5.11,5.11
43.90,6.56,1.45,6.56,1.45,-1.45,-3.12,5.11,5.11,5.11
44.33,6.55,1.43,6.55,1.44,-1.44,-3.14,5.11,5.11,5.12
44.78,6.55,1.43,6.55,1.44,-1.44,-3.16,5.11,5.12,5.12
45.23,6.56,1.43,6.56,1.44,-1.44,-3.18,5.11,5.12,5.12
45.68,6.58,1.45,6.58,1.45,-1.45,-3.21,5.12,5.12,5.13
46.13,6.60,1.46,6.60,1.47,-1.47,-3.24,5.12,5.13,5.13
46.60,6.63,1.49,6.63,1.50,-1.50,-3.27,5.13,5.13,5.14
47.06,6.67,1.53,6.67,1.54,-1.54,-3.30,5.13,5.13,5.14
47.53,6.71,1.56,6.72,1.58,-1.58,-3.33,5.13,5.14,5.14
48.01,6.76,1.61,6.77,1.64,-1.64,-3.37,5.12,5.14,5.15
48.49,6.84,1.69,6.84,1.70,-1.70,-3.41,5.14,5.14,5.15
48.97,6.92,1.77,6.92,1.77,-1.77,-3.45,5.14,5.14,5.15
49.46,7.00,1.85,7.00,1.86,-1.86,-3.49,5.14,5.14,5.15
49.96,7.09,1.93,7.09,1.95,-1.95,-3.53,5.14,5.14,5.15
50.46,7.19,2.03,7.19,2.05,-2.05,-3.58,5.14,5.14,5.15
50.96,7.29,2.14,7.29,2.15,-2.15,-3.63,5.13,5.14,5.15
51.47,7.40,2.25,7.41,2.27,-2.27,-3.68,5.13,5.14,5.15
51.99,7.52,2.37,7.53,2.39,-2.39,-3.73,5.13,5.14,5.14
52.51,7.64,2.50,7.65,2.51,-2.51,-3.78,5.12,5.13,5.14
53.03,7.77,2.63,7.77,2.64,-2.64,-3.83,5.12,5.13,5.13
53.56,7.90,2.77,7.90,2.77,-2.77,-3.88,5.12,5.12,5.13
54.10,8.03,2.90,8.02,2.91,-2.91,-3.93,5.12,5.12,5.12
54.64,8.16,3.04,8.15,3.04,-3.04,-3.98,5.11,5.11,5.11
55.18,8.29,3.18,8.28,3.18,-3.18,-4.03,5.11,5.10,5.10
55.74,8.41,3.31,8.40,3.31,-3.31,-4.08,5.10,5.09,5.09
56.29,8.53,3.45,8.51,3.43,-3.43,-4.13,5.09,5.08,5.08
56.86,8.64,3.57,8.63,3.56,-3.56,-4.18,5.08,5.07,5.07
57.42,8.74,3.68,8.73,3.68,-3.68,-4.23,5.06,5.06,5.05
58.00,8.84,3.80,8.83,3.79,-3.79,-4.27,5.05,5.04,5.04
58.58,8.93,3.91,8.91,3.89,-3.89,-4.32,5.04,5.02,5.02
59.16,9.01,4.00,8.99,3.99,-3.99,-4.36,5.02,5.00,5.00
59.76,9.08,4.09,9.06,4.08,-4.08,-4.40,5.00,4.99,4.98
60.35,9.15,4.18,9.12,4.16,-4.16,-4.43,4.99,4.96,4.96
60.96,9.21,4.26,9.18,4.24,-4.24,-4.47,4.97,4.94,4.94
61.57,9.24,4.32,9.23,4.31,-4.31,-4.50,4.93,4.92,4.92
62.18,9.28,4.38,9.27,4.37,-4.37,-4.53,4.90,4.89,4.90
62.80,9.32,4.45,9.30,4.44,-4.44,-4.55,4.88,4.87,4.87
63.43,9.34,4.49,9.34,4.50,-4.50,-4.58,4.84,4.84,4.85
64.07,9.36,4.54,9.37,4.56,-4.56,-4.60,4.80,4.82,4.82
64.71,9.40,4.60,9.40,4.61,-4.61,-4.62,4.78,4.79,4.79
65.35,9.43,4.66,9.43,4.68,-4.68,-4.63,4.75,4.76,4.76
66.01,9.46,4.72,9.47,4.74,-4.74,-4.65,4.72,4.73,4.74
66.67,9.50,4.79,9.50,4.81,-4.81,-4.66,4.69,4.70,4.71
67.33,9.54,4.86,9.55,4.88,-4.88,-4.67,4.65,4.66,4.68
68.01,9.58,4.93,9.59,4.96,-4.96,-4.67,4.62,4.63,4.65
68.69,9.64,5.02,9.65,5.05,-5.05,-4.68,4.59,4.60,4.62
69.37,9.71,5.12,9.71,5.14,-5.14,-4.69,4.57,4.57,4.59
70.07,9.78,5.22,9.78,5.24,-5.24,-4.69,4.54,4.54,4.56
70.77,9.85,5.32,9.86,5.34,-5.34,-4.70,4.50,4.52,4.53
71.48,9.92,5.42,9.94,5.45,-5.45,-4.70,4.46,4.49,4.50
72.19,10.01,5.54,10.03,5.57,-5.57,-4.71,4.44,4.46,4.47
72.91,10.11,5.67,10.12,5.69,-5.69,-4.71,4.42,4.43,4.44
73.64,10.21,5.80,10.22,5.81,-5.81,-4.72,4.40,4.41,4.41
74.38,10.32,5.93,10.31,5.94,-5.94,-4.73,4.38,4.38,4.38
75.12,10.43,6.07,10.41,6.06,-6.06,-4.74,4.36,4.35,4.36
75.87,10.53,6.20,10.51,6.19,-6.19,-4.75,4.34,4.33,4.33
76.63,10.63,6.32,10.61,6.31,-6.31,-4.77,4.32,4.30,4.31
77.40,10.73,6.45,10.71,6.43,-6.43,-4.78,4.30,4.28,4.28
78.17,10.82,6.56,10.81,6.55,-6.55,-4.80,4.27,4.26,4.26
78.95,10.91,6.67,10.90,6.66,-6.66,-4.82,4.25,4.24,4.24
79.74,10.99,6.77,10.98,6.77,-6.77,-4.85,4.22,4.22,4.21
80.54,11.07,6.87,11.06,6.87,-6.87,-4.88,4.20,4.20,4.19
81.35,11.15,6.97,11.14,6.96,-6.96,-4.91,4.18,4.18,4.18
82.16,11.21,7.05,11.21,7.05,-7.05,-4.94,4.15,4.16,4.16
82.98,11.29,7.15,11.27,7.14,-7.14,-4.98,4.15,4.14,4.14
83.81,11.34,7.21,11.33,7.21,-7.21,-5.02,4.12,4.12,4.12
84.65,11.40,7.29,11.39,7.28,-7.28,-5.06,4.11,4.11,4.11
85.50,11.44,7.34,11.44,7.35,-7.35,-5.11,4.09,4.09,4.09
86.35,11.48,7.39,11.49,7.40,-7.40,-5.17,4.07,4.08,4.08
87.22,11.52,7.45,11.53,7.45,-7.45,-5.22,4.06,4.07,4.07
88.09,11.54,7.48,11.56,7.50,-7.50,-5.28,4.04,4.06,4.06
88.97,11.59,7.54,11.59,7.53,-7.53,-5.35,4.05,4.05,4.05
89.86,11.62,7.58,11.61,7.56,-7.56,-5.42,4.05,4.04,4.04
90.76,11.64,7.60,11.62,7.58,-7.58,-5.49,4.05,4.04,4.03
91.66,11.64,7.61,11.63,7.60,-7.60,-5.57,4.04,4.03,4.03
92.58,11.65,7.63,11.62,7.61,-7.61,-5.65,4.04,4.02,4.02
93.51,11.64,7.62,11.62,7.61,-7.61,-5.73,4.03,4.01,4.01
94.44,11.63,7.62,11.61,7.61,-7.61,-5.82,4.02,4.00,4.01
95.39,11.61,7.61,11.59,7.60,-7.60,-5.91,4.00,3.99,4.00
96.34,11.58,7.59,11.57,7.59,-7.59,-6.01,3.98,3.98,3.99
97.30,11.54,7.56,11.55,7.58,-7.58,-6.11,3.95,3.97,3.98
98.28,11.50,7.53,11.52,7.57,-7.57,-6.21,3.93,3.95,3.97
99.26,11.47,7.51,11.49,7.56,-7.56,-6.31,3.91,3.94,3.95
100.25,11.45,7.51,11.46,7.54,-7.54,-6.42,3.90,3.92,3.94
101.25,11.41,7.49,11.43,7.53,-7.53,-6.53,3.88,3.90,3.92
102.27,11.39,7.48,11.40,7.52,-7.52,-6.64,3.87,3.89,3.90
103.29,11.37,7.49,11.37,7.50,-7.50,-6.75,3.86,3.87,3.88
104.32,11.35,7.49,11.34,7.49,-7.49,-6.87,3.86,3.85,3.86
105.37,11.32,7.48,11.30,7.48,-7.48,-6.98,3.84,3.82,3.83
106.42,11.27,7.46,11.26,7.46,-7.46,-7.10,3.80,3.80,3.81
107.48,11.22,7.44,11.22,7.45,-7.45,-7.21,3.77,3.77,3.78
108.56,11.18,7.43,11.17,7.43,-7.43,-7.32,3.75,3.75,3.75
109.64,11.14,7.42,11.12,7.41,-7.41,-7.43,3.73,3.71,3.71
110.74,11.09,7.41,11.06,7.38,-7.38,-7.53,3.71,3.68,3.68
111.85,11.03,7.38,11.00,7.35,-7.35,-7.63,3.68,3.65,3.65
112.97,10.94,7.33,10.93,7.32,-7.32,-7.73,3.62,3.61,3.61
114.10,10.84,7.26,10.85,7.28,-7.28,-7.82,3.56,3.58,3.57
115.24,10.76,7.22,10.77,7.24,-7.24,-7.90,3.52,3.54,3.54
116.39,10.71,7.20,10.69,7.19,-7.19,-7.97,3.51,3.50,3.50
117.55,10.63,7.16,10.61,7.14,-7.14,-8.03,3.48,3.47,3.47
118.73,10.52,7.09,10.52,7.09,-7.09,-8.08,3.43,3.43,3.43
119.92,10.42,7.02,10.43,7.03,-7.03,-8.12,3.38,3.39,3.39
121.12,10.32,6.96,10.34,6.98,-6.98,-8.15,3.34,3.36,3.36
122.33,10.26,6.93,10.24,6.92,-6.92,-8.17,3.34,3.33,3.33
123.55,10.17,6.87,10.15,6.86,-6.86,-8.17,3.31,3.29,3.30
124.79,10.06,6.79,10.06,6.80,-6.80,-8.15,3.26,3.26,3.27
126.03,9.95,6.71,9.97,6.74,-6.74,-8.13,3.21,3.24,3.24
127.29,9.89,6.67,9.89,6.68,-6.68,-8.09,3.21,3.21,3.21
128.57,9.81,6.62,9.80,6.61,-6.61,-8.03,3.19,3.18,3.19
129.85,9.69,6.52,9.71,6.55,-6.55,-7.96,3.13,3.16,3.16
131.15,9.59,6.45,9.62,6.49,-6.49,-7.88,3.10,3.13,3.14
132.46,9.55,6.43,9.54,6.43,-6.43,-7.79,3.12,3.11,3.12
133.79,9.47,6.37,9.45,6.36,-6.36,-7.69,3.11,3.09,3.10
135.12,9.35,6.27,9.36,6.29,-6.29,-7.57,3.05,3.07,3.07
136.48,9.30,6.24,9.27,6.22,-6.22,-7.45,3.07,3.05,3.05
137.84,9.20,6.16,9.18,6.15,-6.15,-7.32,3.04,3.03,3.03
139.22,9.11,6.09,9.09,6.08,-6.08,-7.18,3.03,3.01,3.01
140.61,9.01,6.01,8.99,6.00,-6.00,-7.03,3.00,2.99,2.99
142.02,8.88,5.91,8.89,5.92,-5.92,-6.88,2.96,2.97,2.97
143.44,8.80,5.85,8.79,5.84,-5.84,-6.72,2.96,2.95,2.95
144.87,8.67,5.74,8.68,5.75,-5.75,-6.57,2.92,2.93,2.93
146.32,8.59,5.68,8.56,5.66,-5.66,-6.40,2.93,2.90,2.90
147.78,8.46,5.57,8.45,5.57,-5.57,-6.24,2.89,2.88,2.88
149.26,8.35,5.49,8.33,5.47,-5.47,-6.07,2.87,2.86,2.86
150.75,8.20,5.36,8.21,5.37,-5.37,-5.91,2.82,2.83,2.84
152.26,8.09,5.27,8.08,5.27,-5.27,-5.74,2.81,2.81,2.81
153.78,7.95,5.16,7.96,5.17,-5.17,-5.57,2.78,2.79,2.79
155.32,7.83,5.06,7.83,5.07,-5.07,-5.41,2.76,2.76,2.77
156.88,7.69,4.94,7.70,4.96,-4.96,-5.24,2.72,2.74,2.74
158.44,7.59,4.87,7.58,4.86,-4.86,-5.08,2.73,2.72,2.72
160.03,7.42,4.72,7.44,4.75,-4.75,-4.92,2.66,2.69,2.69
161.63,7.32,4.65,7.31,4.65,-4.65,-4.76,2.67,2.67,2.67
163.24,7.21,4.56,7.18,4.54,-4.54,-4.60,2.66,2.64,2.64
164.88,7.04,4.42,7.05,4.44,-4.44,-4.45,2.60,2.61,2.62
166.53,6.92,4.32,6.92,4.33,-4.33,-4.29,2.58,2.59,2.59
168.19,6.81,4.24,6.79,4.23,-4.23,-4.14,2.58,2.56,2.57
169.87,6.65,4.11,6.66,4.12,-4.12,-3.99,2.52,2.54,2.54
171.57,6.53,4.02,6.53,4.02,-4.02,-3.85,2.51,2.51,2.51
173.29,6.41,3.93,6.39,3.92,-3.92,-3.71,2.49,2.48,2.48
175.02,6.24,3.79,6.26,3.81,-3.81,-3.56,2.43,2.45,2.45
176.77,6.12,3.70,6.12,3.70,-3.70,-3.43,2.41,2.42,2.42
178.54,6.00,3.61,5.98,3.60,-3.60,-3.29,2.40,2.39,2.39
180.32,5.87,3.51,5.84,3.49,-3.49,-3.16,2.37,2.35,2.35
182.13,5.74,3.41,5.71,3.39,-3.39,-3.03,2.35,2.32,2.32
183.95,5.55,3.26,5.57,3.28,-3.28,-2.90,2.27,2.29,2.29
185.79,5.41,3.15,5.42,3.17,-3.17,-2.77,2.24,2.25,2.26
187.65,5.27,3.04,5.28,3.06,-3.06,-2.65,2.21,2.22,2.22
189.52,5.13,2.94,5.14,2.95,-2.95,-2.53,2.18,2.19,2.19
191.42,5.00,2.84,4.99,2.84,-2.84,-2.41,2.16,2.16,2.15
193.33,4.86,2.74,4.84,2.72,-2.72,-2.29,2.13,2.12,2.12
195.27,4.70,2.61,4.70,2.61,-2.61,-2.18,2.09,2.09,2.09
197.22,4.55,2.49,4.54,2.49,-2.49,-2.07,2.06,2.05,2.05
199.19,4.40,2.38,4.39,2.37,-2.37,-1.95,2.02,2.01,2.02
201.18,4.25,2.26,4.23,2.25,-2.25,-1.85,1.99,1.98,1.98
203.19,4.10,2.15,4.08,2.14,-2.14,-1.74,1.96,1.94,1.95
205.23,3.95,2.03,3.93,2.02,-2.02,-1.64,1.93,1.91,1.91
207.28,3.79,1.91,3.77,1.90,-1.90,-1.54,1.89,1.87,1.88
209.35,3.62,1.78,3.62,1.78,-1.78,-1.44,1.83,1.83,1.84
211.44,3.47,1.67,3.46,1.67,-1.67,-1.34,1.80,1.79,1.80
213.56,3.31,1.54,3.31,1.56,-1.56,-1.24,1.75,1.75,1.76
215.69,3.15,1.42,3.17,1.45,-1.45,-1.15,1.69,1.72,1.73
217.85,2.99,1.30,3.03,1.35,-1.35,-1.06,1.64,1.68,1.69
220.03,2.91,1.25,2.90,1.25,-1.25,-0.97,1.65,1.65,1.65
222.23,2.80,1.17,2.78,1.16,-1.16,-0.89,1.64,1.62,1.62
224.45,2.67,1.07,2.66,1.07,-1.07,-0.80,1.59,1.59,1.59
226.70,2.54,0.97,2.55,0.99,-0.99,-0.72,1.54,1.56,1.56
228.96,2.42,0.88,2.46,0.92,-0.92,-0.64,1.50,1.54,1.54
231.25,2.35,0.83,2.37,0.85,-0.85,-0.57,1.49,1.51,1.52
233.57,2.28,0.78,2.28,0.79,-0.79,-0.49,1.49,1.50,1.50
235.90,2.20,0.71,2.21,0.73,-0.73,-0.42,1.47,1.48,1.48
238.26,2.15,0.68,2.14,0.67,-0.67,-0.35,1.47,1.47,1.47
240.64,2.09,0.63,2.08,0.62,-0.62,-0.29,1.46,1.46,1.46
243.05,2.05,0.59,2.03,0.57,-0.57,-0.22,1.47,1.45,1.45
245.48,1.99,0.54,1.97,0.53,-0.53,-0.16,1.46,1.44,1.45
247.93,1.92,0.47,1.92,0.49,-0.49,-0.10,1.43,1.44,1.44
250.41,1.88,0.44,1.88,0.44,-0.44,-0.05,1.43,1.44,1.44
252.92,1.83,0.39,1.84,0.40,-0.40,0.00,1.43,1.44,1.44
255.45,1.80,0.36,1.79,0.36,-0.36,0.05,1.44,1.43,1.44
258.00,1.76,0.32,1.75,0.32,-0.32,0.10,1.44,1.43,1.44
260.58,1.71,0.27,1.71,0.27,-0.27,0.15,1.43,1.44,1.44
263.19,1.67,0.23,1.67,0.23,-0.23,0.19,1.44,1.44,1.44
265.82,1.62,0.17,1.62,0.18,-0.18,0.23,1.44,1.44,1.44
268.48,1.58,0.13,1.57,0.12,-0.12,0.27,1.45,1.45,1.45
271.16,1.53,0.08,1.52,0.07,-0.07,0.31,1.46,1.45,1.45
273.87,1.47,0.01,1.47,0.01,-0.01,0.34,1.46,1.46,1.45
276.61,1.41,-0.06,1.41,-0.06,0.06,0.38,1.47,1.47,1.46
279.38,1.36,-0.12,1.34,-0.13,0.13,0.41,1.49,1.48,1.47
282.17,1.31,-0.18,1.28,-0.21,0.21,0.44,1.52,1.49,1.48
284.99,1.24,-0.26,1.20,-0.29,0.29,0.47,1.53,1.49,1.49
287.84,1.14,-0.37,1.12,-0.38,0.38,0.50,1.52,1.50,1.51
290.72,1.05,-0.47,1.04,-0.47,0.47,0.53,1.52,1.51,1.52
293.63,0.96,-0.58,0.96,-0.57,0.57,0.56,1.52,1.53,1.53
296.57,0.86,-0.69,0.87,-0.67,0.67,0.59,1.52,1.53,1.54
299.53,0.77,-0.78,0.78,-0.77,0.77,0.62,1.53,1.54,1.55
302.53,0.68,-0.88,0.68,-0.87,0.87,0.64,1.54,1.55,1.56
305.55,0.59,-0.98,0.59,-0.97,0.97,0.67,1.55,1.56,1.57
308.61,0.49,-1.09,0.49,-1.07,1.07,0.70,1.56,1.56,1.57
311.69,0.39,-1.19,0.40,-1.17,1.17,0.73,1.56,1.57,1.58
314.81,0.32,-1.26,0.31,-1.27,1.27,0.76,1.58,1.57,1.58
317.96,0.23,-1.36,0.22,-1.36,1.36,0.78,1.59,1.58,1.58
321.14,0.14,-1.45,0.13,-1.45,1.45,0.81,1.59,1.58,1.59
324.35,0.04,-1.55,0.04,-1.55,1.55,0.84,1.58,1.59,1.59
327.59,-0.06,-1.65,-0.04,-1.63,1.63,0.87,1.57,1.59,1.59
330.87,-0.13,-1.72,-0.12,-1.72,1.72,0.90,1.59,1.60,1.59
334.18,-0.20,-1.80,-0.21,-1.80,1.80,0.94,1.60,1.60,1.59
337.52,-0.28,-1.88,-0.28,-1.88,1.88,0.97,1.60,1.60,1.59
340.90,-0.34,-1.94,-0.36,-1.96,1.96,1.00,1.61,1.60,1.60
344.30,-0.42,-2.02,-0.43,-2.03,2.03,1.04,1.61,1.60,1.60
347.75,-0.49,-2.09,-0.51,-2.10,2.10,1.07,1.61,1.59,1.60
351.23,-0.57,-2.17,-0.57,-2.17,2.17,1.11,1.59,1.59,1.60
354.74,-0.63,-2.23,-0.64,-2.23,2.23,1.15,1.59,1.59,1.60
358.28,-0.70,-2.30,-0.70,-2.28,2.28,1.18,1.58,1.59,1.59
361.87,-0.75,-2.34,-0.75,-2.33,2.33,1.22,1.58,1.58,1.59
365.49,-0.81,-2.39,-0.80,-2.38,2.38,1.26,1.56,1.57,1.58
369.14,-0.85,-2.43,-0.85,-2.41,2.41,1.31,1.56,1.57,1.57
372.83,-0.89,-2.46,-0.89,-2.45,2.45,1.35,1.55,1.56,1.57
376.56,-0.93,-2.49,-0.93,-2.47,2.47,1.39,1.54,1.55,1.56
380.33,-0.96,-2.51,-0.95,-2.49,2.49,1.44,1.53,1.54,1.55
384.13,-0.98,-2.52,-0.98,-2.51,2.51,1.48,1.52,1.53,1.54
387.97,-0.99,-2.52,-0.99,-2.51,2.51,1.53,1.52,1.52,1.53
391.85,-1.01,-2.53,-1.00,-2.52,2.52,1.58,1.50,1.51,1.52
395.77,-1.02,-2.53,-1.01,-2.51,2.51,1.62,1.49,1.50,1.51
399.73,-1.03,-2.53,-1.02,-2.51,2.51,1.67,1.48,1.49,1.49
403.72,-1.02,-2.51,-1.02,-2.50,2.50,1.72,1.48,1.48,1.48
407.76,-1.01,-2.48,-1.02,-2.50,2.50,1.77,1.48,1.47,1.47
411.84,-1.00,-2.46,-1.03,-2.49,2.49,1.82,1.48,1.46,1.46
415.96,-1.00,-2.45,-1.03,-2.48,2.48,1.87,1.47,1.45,1.45
420.12,-1.00,-2.44,-1.03,-2.47,2.47,1.91,1.46,1.44,1.44
424.32,-1.00,-2.43,-1.03,-2.45,2.45,1.96,1.45,1.43,1.43
428.56,-1.01,-2.43,-1.03,-2.44,2.44,2.01,1.43,1.42,1.42
432.85,-1.01,-2.43,-1.02,-2.43,2.43,2.06,1.42,1.41,1.41
437.18,-1.02,-2.43,-1.02,-2.42,2.42,2.10,1.40,1.41,1.41
441.55,-1.03,-2.44,-1.01,-2.41,2.41,2.15,1.38,1.40,1.40
445.96,-1.02,-2.42,-1.00,-2.40,2.40,2.19,1.38,1.40,1.40
450.42,-1.01,-2.41,-0.99,-2.39,2.39,2.23,1.37,1.40,1.40
454.93,-0.99,-2.39,-0.98,-2.37,2.37,2.27,1.38,1.40,1.40
459.48,-0.96,-2.37,-0.96,-2.36,2.36,2.30,1.39,1.40,1.40
464.07,-0.94,-2.35,-0.94,-2.34,2.34,2.34,1.39,1.40,1.41
468.71,-0.91,-2.32,-0.92,-2.32,2.32,2.37,1.40,1.40,1.41
473.40,-0.87,-2.29,-0.89,-2.29,2.29,2.39,1.42,1.41,1.42
478.13,-0.84,-2.26,-0.86,-2.27,2.27,2.42,1.43,1.41,1.42
482.91,-0.81,-2.24,-0.83,-2.25,2.25,2.44,1.43,1.42,1.42
487.74,-0.79,-2.22,-0.80,-2.22,2.22,2.46,1.43,1.42,1.42
492.62,-0.77,-2.20,-0.77,-2.19,2.19,2.47,1.42,1.43,1.43
497.55,-0.74,-2.17,-0.74,-2.17,2.17,2.48,1.42,1.43,1.43
502.52,-0.71,-2.14,-0.71,-2.14,2.14,2.49,1.43,1.43,1.43
507.55,-0.67,-2.10,-0.68,-2.11,2.11,2.49,1.44,1.43,1.43
512.62,-0.64,-2.08,-0.65,-2.09,2.09,2.49,1.44,1.43,1.43
517.75,-0.61,-2.05,-0.63,-2.06,2.06,2.48,1.45,1.44,1.44
522.93,-0.58,-2.02,-0.60,-2.04,2.04,2.47,1.45,1.44,1.44
528.16,-0.56,-2.01,-0.57,-2.01,2.01,2.46,1.45,1.44,1.44
533.44,-0.54,-1.99,-0.54,-1.98,1.98,2.44,1.44,1.44,1.45
538.77,-0.51,-1.97,-0.51,-1.96,1.96,2.43,1.44,1.45,1.45
544.16,-0.49,-1.95,-0.47,-1.93,1.93,2.41,1.43,1.45,1.46
549.60,-0.46,-1.92,-0.44,-1.90,1.90,2.38,1.44,1.46,1.46
555.10,-0.42,-1.89,-0.41,-1.87,1.87,2.36,1.45,1.46,1.46
560.65,-0.38,-1.85,-0.38,-1.84,1.84,2.33,1.46,1.46,1.47
566.25,-0.34,-1.82,-0.35,-1.82,1.82,2.30,1.47,1.46,1.47
571.92,-0.30,-1.78,-0.32,-1.79,1.79,2.27,1.48,1.47,1.48
577.64,-0.26,-1.74,-0.29,-1.76,1.76,2.23,1.49,1.47,1.48
583.41,-0.23,-1.71,-0.25,-1.73,1.73,2.20,1.49,1.47,1.48
589.25,-0.21,-1.70,-0.22,-1.70,1.70,2.16,1.48,1.48,1.48
595.14,-0.18,-1.67,-0.18,-1.66,1.66,2.13,1.48,1.48,1.48
601.09,-0.16,-1.65,-0.15,-1.63,1.63,2.09,1.47,1.48,1.49
607.10,-0.13,-1.62,-0.12,-1.60,1.60,2.06,1.47,1.49,1.49
613.17,-0.10,-1.59,-0.08,-1.57,1.57,2.02,1.47,1.49,1.49
619.30,-0.06,-1.55,-0.05,-1.54,1.54,1.99,1.48,1.49,1.49
625.50,-0.02,-1.52,-0.02,-1.52,1.52,1.95,1.49,1.50,1.49
631.75,0.02,-1.48,0.01,-1.49,1.49,1.92,1.50,1.50,1.50
638.07,0.06,-1.45,0.05,-1.46,1.46,1.88,1.52,1.51,1.51
644.45,0.09,-1.43,0.08,-1.43,1.43,1.85,1.52,1.52,1.51
650.89,0.12,-1.41,0.12,-1.41,1.41,1.82,1.53,1.53,1.52
657.40,0.15,-1.39,0.15,-1.39,1.39,1.79,1.53,1.54,1.53
663.98,0.17,-1.38,0.18,-1.37,1.37,1.76,1.53,1.55,1.54
670.62,0.21,-1.35,0.21,-1.35,1.35,1.73,1.55,1.56,1.55
677.32,0.24,-1.33,0.23,-1.33,1.33,1.70,1.56,1.56,1.56
684.10,0.26,-1.31,0.25,-1.31,1.31,1.67,1.57,1.57,1.57
690.94,0.29,-1.29,0.27,-1.30,1.30,1.65,1.59,1.57,1.57
697.85,0.31,-1.27,0.28,-1.29,1.29,1.62,1.59,1.57,1.58
704.83,0.32,-1.26,0.29,-1.28,1.28,1.60,1.59,1.57,1.57
711.87,0.32,-1.26,0.30,-1.27,1.27,1.58,1.58,1.57,1.57
718.99,0.31,-1.26,0.30,-1.26,1.26,1.56,1.57,1.56,1.57
726.18,0.30,-1.27,0.30,-1.25,1.25,1.54,1.55,1.56,1.56
733.44,0.29,-1.27,0.30,-1.25,1.25,1.52,1.53,1.55,1.55
740.78,0.29,-1.26,0.30,-1.24,1.24,1.50,1.52,1.54,1.54
748.19,0.29,-1.25,0.30,-1.23,1.23,1.49,1.52,1.53,1.53
755.67,0.29,-1.23,0.29,-1.22,1.22,1.48,1.51,1.52,1.52
