frequency,raw,error,smoothed,error_smoothed,equalization,parametric_eq,fixed_band_eq,equalized_raw,equalized_smoothed,target
20.00,12.97,6.91,12.97,6.91,-6.91,-6.85,-3.39,6.06,6.06,6.06
20.20,12.99,6.93,12.99,6.93,-6.93,-6.88,-3.48,6.05,6.06,6.06
20.40,13.02,6.96,13.01,6.96,-6.96,-6.91,-3.58,6.06,6.06,6.06
20.61,13.04,6.98,13.04,6.98,-6.98,-6.94,-3.68,6.06,6.05,6.06
20.81,13.06,7.01,13.06,7.01,-7.01,-6.97,-3.78,6.05,6.05,6.05
21.02,13.09,7.04,13.08,7.03,-7.03,-7.00,-3.88,6.06,6.05,6.05
21.23,13.10,7.05,13.10,7.05,-7.05,-7.03,-3.99,6.04,6.05,6.05
21.44,13.12,7.06,13.12,7.08,-7.08,-7.06,-4.10,6.04,6.04,6.05
21.66,13.14,7.09,13.14,7.10,-7.10,-7.09,-4.21,6.03,6.04,6.04
21.87,13.16,7.11,13.16,7.13,-7.13,-7.12,-4.33,6.03,6.04,6.04
22.09,13.19,7.15,13.18,7.15,-7.15,-7.15,-4.45,6.04,6.03,6.03
22.31,13.21,7.18,13.20,7.17,-7.17,-7.17,-4.57,6.03,6.03,6.03
22.54,13.23,7.20,13.22,7.20,-7.20,-7.20,-4.69,6.03,6.03,6.02
22.76,13.25,7.23,13.24,7.22,-7.22,-7.23,-4.82,6.03,6.02,6.02
22.99,13.26,7.24,13.26,7.25,-7.25,-7.25,-4.95,6.01,6.02,6.02
23.22,13.28,7.27,13.28,7.27,-7.27,-7.28,-5.09,6.01,6.01,6.01
23.45,13.30,7.29,13.30,7.29,-7.29,-7.30,-5.23,6.00,6.01,6.01
23.69,13.32,7.32,13.32,7.32,-7.32,-7.33,-5.37,6.00,6.00,6.00
23.92,13.34,7.35,13.34,7.34,-7.34,-7.35,-5.51,6.00,6.00,5.99
24.16,13.36,7.37,13.35,7.36,-7.36,-7.37,-5.66,6.00,5.99,5.99
24.40,13.37,7.38,13.37,7.38,-7.38,-7.39,-5.81,5.99,5.99,5.99
24.65,13.39,7.40,13.38,7.40,-7.40,-7.41,-5.96,5.99,5.99,5.99
24.89,13.40,7.41,13.40,7.42,-7.42,-7.44,-6.12,5.98,5.98,5.99
25.14,13.42,7.43,13.42,7.43,-7.43,-7.46,-6.27,5.98,5.98,5.99
25.39,13.43,7.45,13.43,7.45,-7.45,-7.48,-6.43,5.98,5.98,5.97
25.65,13.45,7.47,13.45,7.47,-7.47,-7.50,-6.59,5.98,5.98,5.97
25.91,13.46,7.48,13.46,7.48,-7.48,-7.51,-6.75,5.97,5.98,5.97
26.16,13.48,7.50,13.48,7.50,-7.50,-7.53,-6.91,5.98,5.98,5.98
26.43,13.49,7.51,13.49,7.51,-7.51,-7.55,-7.07,5.98,5.98,5.98
26.69,13.51,7.53,13.50,7.52,-7.52,-7.57,-7.24,5.99,5.98,5.98
26.96,13.52,7.54,13.51,7.54,-7.54,-7.58,-7.39,5.98,5.98,5.98
27.23,13.53,7.55,13.53,7.55,-7.55,-7.60,-7.55,5.98,5.98,5.98
27.50,13.54,7.56,13.54,7.56,-7.56,-7.62,-7.71,5.97,5.98,5.98
27.77,13.55,7.56,13.55,7.58,-7.58,-7.63,-7.86,5.97,5.97,5.99
28.05,13.57,7.59,13.56,7.59,-7.59,-7.65,-8.01,5.98,5.97,5.97
28.33,13.57,7.59,13.57,7.60,-7.60,-7.66,-8.15,5.96,5.97,5.97
28.62,13.59,7.63,13.58,7.62,-7.62,-7.68,-8.28,5.97,5.97,5.96
28.90,13.59,7.62,13.59,7.63,-7.63,-7.69,-8.41,5.96,5.96,5.97
29.19,13.61,7.65,13.60,7.65,-7.65,-7.70,-8.53,5.96,5.96,5.96
29.48,13.61,7.66,13.61,7.66,-7.66,-7.72,-8.64,5.95,5.95,5.95
29.78,13.63,7.68,13.62,7.67,-7.67,-7.73,-8.75,5.96,5.95,5.95
30.08,13.63,7.68,13.63,7.68,-7.68,-7.74,-8.84,5.94,5.94,5.94
30.38,13.64,7.70,13.63,7.69,-7.69,-7.75,-8.92,5.94,5.94,5.93
30.68,13.64,7.71,13.64,7.70,-7.70,-7.77,-8.99,5.93,5.94,5.93
30.99,13.65,7.72,13.65,7.71,-7.71,-7.78,-9.04,5.93,5.93,5.93
31.30,13.65,7.72,13.65,7.72,-7.72,-7.79,-9.09,5.93,5.93,5.93
31.61,13.66,7.73,13.66,7.73,-7.73,-7.80,-9.12,5.93,5.93,5.93
31.93,13.66,7.73,13.66,7.73,-7.73,-7.81,-9.14,5.93,5.93,5.92
32.24,13.67,7.74,13.66,7.74,-7.74,-7.82,-9.15,5.93,5.93,5.93
32.57,13.67,7.75,13.67,7.74,-7.74,-7.83,-9.15,5.93,5.93,5.92
32.89,13.67,7.74,13.67,7.75,-7.75,-7.84,-9.14,5.92,5.92,5.93
33.22,13.68,7.75,13.67,7.75,-7.75,-7.85,-9.11,5.93,5.92,5.92
33.55,13.67,7.75,13.67,7.76,-7.76,-7.86,-9.08,5.91,5.91,5.92
33.89,13.68,7.77,13.67,7.77,-7.77,-7.87,-9.04,5.91,5.91,5.91
34.23,13.67,7.77,13.67,7.77,-7.77,-7.88,-9.00,5.89,5.90,5.90
34.57,13.68,7.78,13.67,7.79,-7.79,-7.89,-8.94,5.89,5.89,5.89
34.92,13.67,7.80,13.67,7.80,-7.80,-7.90,-8.89,5.87,5.87,5.87
35.27,13.67,7.80,13.67,7.81,-7.81,-7.91,-8.82,5.86,5.86,5.87
35.62,13.67,7.83,13.66,7.83,-7.83,-7.92,-8.76,5.84,5.84,5.84
35.97,13.66,7.84,13.66,7.85,-7.85,-7.93,-8.69,5.81,5.81,5.82
36.33,13.66,7.86,13.66,7.87,-7.87,-7.93,-8.62,5.79,5.79,5.80
36.70,13.65,7.88,13.65,7.89,-7.89,-7.94,-8.55,5.76,5.77,5.76
37.06,13.65,7.91,13.65,7.91,-7.91,-7.95,-8.48,5.74,5.74,5.74
37.43,13.64,7.93,13.64,7.93,-7.93,-7.96,-8.41,5.71,5.71,5.71
37.81,13.64,7.95,13.63,7.95,-7.95,-7.97,-8.35,5.69,5.68,5.68
38.19,13.63,7.98,13.63,7.97,-7.97,-7.98,-8.28,5.65,5.66,5.65
38.57,13.62,7.99,13.62,7.99,-7.99,-7.99,-8.22,5.62,5.63,5.62
38.95,13.62,8.02,13.61,8.01,-8.01,-8.00,-8.16,5.60,5.60,5.60
39.34,13.61,8.04,13.60,8.03,-8.03,-8.01,-8.11,5.58,5.57,5.57
39.74,13.60,8.06,13.60,8.05,-8.05,-8.02,-8.05,5.55,5.55,5.54
40.14,13.59,8.07,13.59,8.07,-8.07,-8.03,-8.01,5.52,5.52,5.52
40.54,13.57,8.07,13.58,8.08,-8.08,-8.04,-7.96,5.49,5.50,5.50
40.94,13.57,8.09,13.57,8.09,-8.09,-8.05,-7.93,5.48,5.47,5.47
41.35,13.56,8.11,13.55,8.10,-8.10,-8.06,-7.89,5.46,5.45,5.45
41.76,13.55,8.12,13.54,8.11,-8.11,-8.07,-7.86,5.44,5.43,5.42
42.18,13.53,8.11,13.53,8.12,-8.12,-8.08,-7.84,5.41,5.41,5.42
42.60,13.51,8.12,13.52,8.12,-8.12,-8.10,-7.82,5.38,5.39,5.39
43.03,13.51,8.14,13.50,8.13,-8.13,-8.11,-7.81,5.38,5.37,5.36
43.46,13.49,8.14,13.49,8.14,-8.14,-8.12,-7.81,5.35,5.35,5.35
43.90,13.48,8.15,13.47,8.14,-8.14,-8.13,-7.81,5.33,5.33,5.33
44.33,13.46,8.15,13.46,8.15,-8.15,-8.14,-7.81,5.31,5.31,5.30
44.78,13.44,8.15,13.44,8.16,-8.16,-8.16,-7.82,5.28,5.29,5.29
45.23,13.43,8.15,13.43,8.17,-8.17,-8.17,-7.84,5.26,5.26,5.28
45.68,13.41,8.17,13.41,8.18,-8.18,-8.19,-7.86,5.23,5.24,5.24
46.13,13.40,8.20,13.40,8.19,-8.19,-8.20,-7.89,5.21,5.21,5.20
46.60,13.38,8.20,13.38,8.20,-8.20,-8.21,-7.93,5.18,5.18,5.18
47.06,13.37,8.21,13.36,8.22,-8.22,-8.23,-7.97,5.15,5.15,5.15
47.53,13.35,8.22,13.35,8.23,-8.23,-8.24,-8.01,5.11,5.11,5.12
48.01,13.33,8.25,13.33,8.25,-8.25,-8.26,-8.06,5.08,5.08,5.07
48.49,13.31,8.26,13.31,8.27,-8.27,-8.28,-8.12,5.04,5.04,5.04
48.97,13.30,8.29,13.29,8.29,-8.29,-8.29,-8.17,5.01,5.00,5.00
49.46,13.28,8.31,13.28,8.31,-8.31,-8.31,-8.24,4.97,4.96,4.97
49.96,13.26,8.35,13.26,8.33,-8.33,-8.33,-8.31,4.92,4.93,4.91
50.46,13.24,8.36,13.24,8.36,-8.36,-8.34,-8.38,4.88,4.89,4.88
50.96,13.22,8.38,13.22,8.38,-8.38,-8.36,-8.46,4.84,4.85,4.84
51.47,13.21,8.40,13.20,8.40,-8.40,-8.38,-8.53,4.81,4.81,4.80
51.99,13.19,8.43,13.19,8.42,-8.42,-8.40,-8.62,4.77,4.77,4.76
52.51,13.18,8.45,13.17,8.44,-8.44,-8.42,-8.70,4.74,4.73,4.73
53.03,13.15,8.44,13.15,8.46,-8.46,-8.44,-8.78,4.69,4.69,4.70
53.56,13.13,8.47,13.13,8.48,-8.48,-8.46,-8.87,4.65,4.65,4.66
54.10,13.12,8.50,13.11,8.50,-8.50,-8.48,-8.96,4.62,4.61,4.61
54.64,13.09,8.51,13.09,8.52,-8.52,-8.50,-9.04,4.57,4.58,4.58
55.18,13.08,8.55,13.08,8.53,-8.53,-8.52,-9.13,4.54,4.54,4.53
55.74,13.06,8.56,13.06,8.55,-8.55,-8.54,-9.21,4.51,4.51,4.50
56.29,13.04,8.57,13.04,8.56,-8.56,-8.56,-9.29,4.47,4.48,4.47
56.86,13.02,8.58,13.02,8.58,-8.58,-8.58,-9.36,4.44,4.44,4.44
57.42,13.01,8.62,13.00,8.60,-8.60,-8.60,-9.43,4.41,4.41,4.39
58.00,12.99,8.62,12.99,8.62,-8.62,-8.62,-9.50,4.37,4.37,4.36
58.58,12.98,8.63,12.97,8.64,-8.64,-8.64,-9.55,4.34,4.33,4.34
59.16,12.95,8.63,12.95,8.66,-8.66,-8.67,-9.60,4.29,4.29,4.31
59.76,12.93,8.65,12.93,8.68,-8.68,-8.69,-9.64,4.25,4.25,4.28
60.35,12.91,8.68,12.91,8.70,-8.70,-8.71,-9.67,4.21,4.21,4.23
60.96,12.90,8.71,12.89,8.72,-8.72,-8.73,-9.70,4.18,4.17,4.19
61.57,12.87,8.74,12.87,8.74,-8.74,-8.75,-9.71,4.13,4.13,4.13
62.18,12.85,8.78,12.85,8.77,-8.77,-8.77,-9.71,4.08,4.08,4.07
62.80,12.83,8.80,12.83,8.79,-8.79,-8.79,-9.70,4.04,4.04,4.03
63.43,12.81,8.83,12.81,8.81,-8.81,-8.81,-9.68,4.00,4.00,3.97
64.07,12.79,8.85,12.79,8.83,-8.83,-8.83,-9.65,3.95,3.95,3.94
64.71,12.77,8.87,12.76,8.86,-8.86,-8.85,-9.61,3.91,3.91,3.90
65.35,12.74,8.87,12.74,8.88,-8.88,-8.87,-9.56,3.86,3.87,3.86
66.01,12.72,8.89,12.72,8.89,-8.89,-8.89,-9.50,3.82,3.82,3.82
66.67,12.70,8.90,12.69,8.91,-8.91,-8.91,-9.43,3.79,3.78,3.80
67.33,12.67,8.92,12.67,8.92,-8.92,-8.93,-9.36,3.74,3.74,3.75
68.01,12.64,8.93,12.64,8.94,-8.94,-8.94,-9.28,3.70,3.70,3.71
68.69,12.62,8.95,12.62,8.95,-8.95,-8.96,-9.19,3.67,3.67,3.66
69.37,12.59,8.96,12.59,8.96,-8.96,-8.97,-9.10,3.63,3.63,3.63
70.07,12.56,8.96,12.56,8.97,-8.97,-8.99,-9.00,3.59,3.59,3.60
70.77,12.53,8.97,12.53,8.98,-8.98,-9.00,-8.90,3.55,3.55,3.56
71.48,12.50,8.99,12.49,8.99,-8.99,-9.01,-8.80,3.51,3.51,3.51
72.19,12.46,8.99,12.46,8.99,-8.99,-9.02,-8.69,3.46,3.47,3.47
72.91,12.43,9.00,12.43,9.00,-9.00,-9.03,-8.59,3.43,3.43,3.43
73.64,12.39,9.01,12.39,9.00,-9.00,-9.04,-8.48,3.39,3.39,3.38
74.38,12.35,9.00,12.35,9.00,-9.00,-9.04,-8.38,3.35,3.35,3.34
75.12,12.32,9.01,12.31,9.00,-9.00,-9.05,-8.27,3.32,3.32,3.30
75.87,12.28,8.99,12.27,8.99,-8.99,-9.05,-8.17,3.29,3.28,3.28
76.63,12.23,8.98,12.23,8.98,-8.98,-9.05,-8.07,3.25,3.25,3.24
77.40,12.19,8.98,12.18,8.97,-8.97,-9.05,-7.98,3.22,3.21,3.21
78.17,12.14,8.97,12.14,8.96,-8.96,-9.04,-7.88,3.18,3.18,3.17
78.95,12.09,8.93,12.09,8.94,-8.94,-9.04,-7.80,3.15,3.15,3.16
79.74,12.04,8.91,12.04,8.92,-8.92,-9.03,-7.71,3.12,3.12,3.12
80.54,11.98,8.89,11.98,8.90,-8.90,-9.02,-7.63,3.08,3.09,3.09
81.35,11.94,8.88,11.93,8.87,-8.87,-9.01,-7.55,3.07,3.06,3.06
82.16,11.87,8.83,11.87,8.84,-8.84,-9.00,-7.48,3.02,3.03,3.04
82.98,11.81,8.81,11.81,8.81,-8.81,-8.98,-7.41,2.99,3.00,3.00
83.81,11.76,8.79,11.75,8.78,-8.78,-8.96,-7.35,2.97,2.97,2.97
84.65,11.70,8.77,11.69,8.75,-8.75,-8.94,-7.29,2.95,2.94,2.93
85.50,11.63,8.73,11.63,8.72,-8.72,-8.92,-7.24,2.91,2.91,2.90
86.35,11.57,8.69,11.56,8.68,-8.68,-8.89,-7.20,2.89,2.88,2.88
87.22,11.49,8.64,11.49,8.64,-8.64,-8.86,-7.15,2.85,2.85,2.85
88.09,11.42,8.60,11.42,8.60,-8.60,-8.83,-7.12,2.81,2.82,2.82
88.97,11.35,8.56,11.35,8.56,-8.56,-8.80,-7.09,2.78,2.79,2.79
89.86,11.28,8.52,11.28,8.52,-8.52,-8.76,-7.06,2.75,2.75,2.75
90.76,11.20,8.48,11.20,8.48,-8.48,-8.72,-7.04,2.72,2.72,2.72
91.66,11.13,8.44,11.13,8.44,-8.44,-8.68,-7.03,2.69,2.68,2.69
92.58,11.05,8.40,11.05,8.40,-8.40,-8.64,-7.02,2.65,2.65,2.65
93.51,10.97,8.35,10.97,8.36,-8.36,-8.60,-7.01,2.61,2.61,2.62
94.44,10.89,8.31,10.89,8.32,-8.32,-8.55,-7.01,2.57,2.57,2.58
95.39,10.81,8.27,10.80,8.27,-8.27,-8.50,-7.02,2.53,2.53,2.54
96.34,10.72,8.23,10.72,8.23,-8.23,-8.44,-7.02,2.49,2.49,2.49
97.30,10.63,8.17,10.63,8.19,-8.19,-8.39,-7.04,2.44,2.45,2.45
98.28,10.55,8.15,10.55,8.14,-8.14,-8.33,-7.05,2.41,2.40,2.40
99.26,10.46,8.11,10.46,8.09,-8.09,-8.27,-7.08,2.36,2.36,2.35
100.25,10.37,8.06,10.37,8.04,-8.04,-8.21,-7.10,2.32,2.32,2.31
101.25,10.28,8.00,10.27,7.99,-7.99,-8.15,-7.13,2.29,2.28,2.27
102.27,10.18,7.94,10.18,7.94,-7.94,-8.08,-7.16,2.24,2.24,2.24
103.29,10.09,7.89,10.09,7.88,-7.88,-8.02,-7.19,2.21,2.21,2.20
104.32,10.00,7.83,9.99,7.82,-7.82,-7.95,-7.23,2.18,2.17,2.17
105.37,9.90,7.76,9.90,7.76,-7.76,-7.88,-7.26,2.14,2.14,2.13
106.42,9.80,7.69,9.80,7.70,-7.70,-7.81,-7.30,2.10,2.10,2.11
107.48,9.70,7.64,9.70,7.63,-7.63,-7.73,-7.34,2.06,2.07,2.06
108.56,9.60,7.57,9.60,7.57,-7.57,-7.66,-7.38,2.03,2.03,2.03
109.64,9.50,7.49,9.50,7.51,-7.51,-7.58,-7.41,1.99,2.00,2.00
110.74,9.40,7.43,9.40,7.44,-7.44,-7.51,-7.45,1.96,1.96,1.97
111.85,9.31,7.38,9.30,7.38,-7.38,-7.43,-7.48,1.93,1.92,1.93
112.97,9.20,7.31,9.20,7.32,-7.32,-7.35,-7.51,1.88,1.88,1.89
114.10,9.10,7.24,9.10,7.25,-7.25,-7.27,-7.54,1.85,1.84,1.85
115.24,8.99,7.18,8.99,7.19,-7.19,-7.19,-7.56,1.80,1.80,1.81
116.39,8.89,7.14,8.89,7.13,-7.13,-7.10,-7.58,1.76,1.76,1.75
117.55,8.79,7.07,8.78,7.06,-7.06,-7.02,-7.59,1.72,1.72,1.72
118.73,8.68,7.02,8.68,7.00,-7.00,-6.94,-7.59,1.67,1.67,1.66
119.92,8.57,6.95,8.57,6.94,-6.94,-6.86,-7.59,1.63,1.63,1.62
121.12,8.46,6.88,8.46,6.88,-6.88,-6.77,-7.58,1.58,1.58,1.58
122.33,8.35,6.82,8.35,6.82,-6.82,-6.69,-7.56,1.52,1.53,1.53
123.55,8.24,6.75,8.24,6.76,-6.76,-6.60,-7.54,1.48,1.48,1.49
124.79,8.14,6.69,8.13,6.70,-6.70,-6.52,-7.50,1.44,1.43,1.44
126.03,8.02,6.62,8.02,6.64,-6.64,-6.43,-7.46,1.38,1.38,1.39
127.29,7.91,6.58,7.91,6.58,-6.58,-6.35,-7.41,1.33,1.33,1.33
128.57,7.80,6.52,7.79,6.51,-6.51,-6.26,-7.35,1.29,1.28,1.28
129.85,7.68,6.45,7.68,6.44,-6.44,-6.18,-7.28,1.23,1.24,1.23
131.15,7.57,6.39,7.57,6.38,-6.38,-6.09,-7.20,1.19,1.19,1.18
132.46,7.45,6.31,7.45,6.31,-6.31,-6.01,-7.12,1.14,1.15,1.13
133.79,7.34,6.24,7.34,6.23,-6.23,-5.92,-7.03,1.10,1.10,1.10
135.12,7.22,6.17,7.22,6.16,-6.16,-5.84,-6.93,1.06,1.06,1.05
136.48,7.11,6.08,7.10,6.08,-6.08,-5.75,-6.82,1.03,1.02,1.02
137.84,6.99,6.00,6.99,6.00,-6.00,-5.67,-6.72,0.99,0.99,0.99
139.22,6.87,5.92,6.87,5.92,-5.92,-5.59,-6.60,0.95,0.95,0.94
140.61,6.75,5.83,6.75,5.83,-5.83,-5.50,-6.48,0.92,0.92,0.92
142.02,6.64,5.75,6.63,5.74,-5.74,-5.42,-6.36,0.90,0.89,0.89
143.44,6.52,5.66,6.51,5.65,-5.65,-5.34,-6.24,0.87,0.86,0.86
144.87,6.39,5.55,6.39,5.56,-5.56,-5.26,-6.11,0.83,0.83,0.84
146.32,6.27,5.46,6.27,5.47,-5.47,-5.17,-5.99,0.80,0.80,0.81
147.78,6.15,5.37,6.15,5.37,-5.37,-5.09,-5.86,0.77,0.77,0.78
149.26,6.03,5.28,6.03,5.28,-5.28,-5.01,-5.73,0.75,0.75,0.75
150.75,5.90,5.19,5.90,5.19,-5.19,-4.93,-5.60,0.71,0.72,0.71
152.26,5.79,5.09,5.78,5.09,-5.09,-4.86,-5.47,0.69,0.69,0.69
153.78,5.66,5.00,5.66,5.00,-5.00,-4.78,-5.34,0.66,0.66,0.66
155.32,5.54,4.90,5.53,4.91,-4.91,-4.70,-5.22,0.63,0.63,0.63
156.88,5.41,4.81,5.41,4.81,-4.81,-4.62,-5.09,0.59,0.59,0.60
158.44,5.29,4.72,5.28,4.72,-4.72,-4.55,-4.97,0.57,0.56,0.57
160.03,5.17,4.63,5.16,4.63,-4.63,-4.47,-4.85,0.54,0.53,0.53
161.63,5.03,4.53,5.03,4.54,-4.54,-4.40,-4.73,0.49,0.49,0.50
163.24,4.91,4.46,4.91,4.45,-4.45,-4.32,-4.61,0.46,0.46,0.45
164.88,4.79,4.37,4.78,4.36,-4.36,-4.25,-4.49,0.43,0.42,0.42
166.53,4.66,4.28,4.66,4.27,-4.27,-4.18,-4.38,0.39,0.39,0.38
168.19,4.53,4.17,4.53,4.18,-4.18,-4.11,-4.27,0.34,0.35,0.35
169.87,4.41,4.09,4.41,4.10,-4.10,-4.04,-4.16,0.31,0.31,0.32
171.57,4.28,4.01,4.28,4.01,-4.01,-3.97,-4.06,0.27,0.27,0.27
173.29,4.17,3.94,4.16,3.92,-3.92,-3.90,-3.96,0.25,0.24,0.23
175.02,4.04,3.84,4.04,3.84,-3.84,-3.83,-3.86,0.20,0.20,0.20
176.77,3.92,3.75,3.92,3.75,-3.75,-3.76,-3.76,0.17,0.16,0.16
178.54,3.80,3.67,3.80,3.67,-3.67,-3.69,-3.67,0.13,0.13,0.13
180.32,3.69,3.60,3.68,3.59,-3.59,-3.63,-3.58,0.10,0.09,0.09
182.13,3.56,3.50,3.56,3.51,-3.51,-3.56,-3.49,0.05,0.05,0.05
183.95,3.45,3.43,3.45,3.43,-3.43,-3.50,-3.41,0.01,0.02,0.02
185.79,3.34,3.36,3.34,3.36,-3.36,-3.44,-3.32,-0.02,-0.02,-0.02
187.65,3.23,3.28,3.23,3.29,-3.29,-3.37,-3.24,-0.06,-0.06,-0.05
189.52,3.12,3.21,3.13,3.22,-3.22,-3.31,-3.16,-0.11,-0.09,-0.09
191.42,3.02,3.15,3.03,3.16,-3.16,-3.25,-3.09,-0.14,-0.13,-0.13
193.33,2.93,3.09,2.93,3.10,-3.10,-3.19,-3.02,-0.17,-0.16,-0.17
195.27,2.83,3.03,2.84,3.04,-3.04,-3.13,-2.95,-0.21,-0.20,-0.21
197.22,2.75,2.99,2.75,2.98,-2.98,-3.07,-2.88,-0.23,-0.23,-0.24
199.19,2.66,2.93,2.66,2.93,-2.93,-3.01,-2.81,-0.27,-0.27,-0.27
201.18,2.57,2.87,2.58,2.87,-2.87,-2.95,-2.75,-0.31,-0.30,-0.31
203.19,2.50,2.83,2.49,2.82,-2.82,-2.90,-2.69,-0.33,-0.33,-0.33
205.23,2.42,2.77,2.41,2.77,-2.77,-2.84,-2.63,-0.36,-0.36,-0.36
207.28,2.35,2.73,2.34,2.73,-2.73,-2.79,-2.57,-0.38,-0.39,-0.38
209.35,2.26,2.67,2.26,2.68,-2.68,-2.73,-2.51,-0.42,-0.42,-0.42
211.44,2.19,2.63,2.19,2.63,-2.63,-2.68,-2.46,-0.44,-0.44,-0.44
213.56,2.12,2.59,2.11,2.58,-2.58,-2.63,-2.40,-0.46,-0.47,-0.47
215.69,2.04,2.53,2.04,2.53,-2.53,-2.57,-2.35,-0.50,-0.50,-0.50
217.85,1.97,2.49,1.97,2.49,-2.49,-2.52,-2.30,-0.52,-0.52,-0.52
220.03,1.90,2.45,1.89,2.44,-2.44,-2.47,-2.25,-0.54,-0.54,-0.55
222.23,1.83,2.40,1.82,2.39,-2.39,-2.42,-2.21,-0.56,-0.57,-0.57
224.45,1.75,2.34,1.75,2.34,-2.34,-2.37,-2.16,-0.59,-0.59,-0.59
226.70,1.68,2.29,1.68,2.29,-2.29,-2.32,-2.11,-0.62,-0.61,-0.61
228.96,1.62,2.24,1.62,2.25,-2.25,-2.27,-2.07,-0.63,-0.63,-0.62
231.25,1.55,2.19,1.55,2.20,-2.20,-2.23,-2.02,-0.65,-0.65,-0.64
233.57,1.48,2.14,1.48,2.15,-2.15,-2.18,-1.98,-0.67,-0.67,-0.66
235.90,1.42,2.11,1.42,2.10,-2.10,-2.13,-1.94,-0.68,-0.68,-0.69
238.26,1.35,2.06,1.35,2.05,-2.05,-2.09,-1.90,-0.70,-0.70,-0.71
240.64,1.29,2.00,1.29,2.00,-2.00,-2.04,-1.86,-0.71,-0.71,-0.71
243.05,1.23,1.96,1.22,1.95,-1.95,-2.00,-1.81,-0.72,-0.73,-0.73
245.48,1.17,1.91,1.16,1.90,-1.90,-1.95,-1.77,-0.73,-0.74,-0.75
247.93,1.10,1.86,1.10,1.85,-1.85,-1.91,-1.73,-0.75,-0.75,-0.76
250.41,1.04,1.80,1.04,1.80,-1.80,-1.87,-1.69,-0.76,-0.76,-0.76
252.92,0.98,1.75,0.97,1.75,-1.75,-1.83,-1.65,-0.77,-0.77,-0.77
255.45,0.91,1.69,0.91,1.70,-1.70,-1.78,-1.62,-0.79,-0.79,-0.78
258.00,0.85,1.64,0.85,1.65,-1.65,-1.74,-1.58,-0.80,-0.80,-0.79
260.58,0.80,1.60,0.79,1.60,-1.60,-1.70,-1.54,-0.80,-0.80,-0.80
263.19,0.74,1.55,0.73,1.55,-1.55,-1.66,-1.50,-0.81,-0.81,-0.81
265.82,0.68,1.50,0.68,1.50,-1.50,-1.62,-1.46,-0.82,-0.82,-0.82
268.48,0.62,1.44,0.62,1.45,-1.45,-1.58,-1.42,-0.83,-0.83,-0.83
271.16,0.57,1.41,0.56,1.41,-1.41,-1.55,-1.38,-0.84,-0.84,-0.84
273.87,0.51,1.35,0.51,1.36,-1.36,-1.51,-1.34,-0.85,-0.85,-0.85
276.61,0.46,1.32,0.46,1.31,-1.31,-1.47,-1.31,-0.86,-0.86,-0.86
279.38,0.40,1.27,0.40,1.27,-1.27,-1.43,-1.27,-0.87,-0.87,-0.88
282.17,0.35,1.23,0.35,1.23,-1.23,-1.40,-1.23,-0.88,-0.87,-0.88
284.99,0.30,1.17,0.30,1.18,-1.18,-1.36,-1.19,-0.88,-0.88,-0.88
287.84,0.25,1.13,0.25,1.14,-1.14,-1.32,-1.15,-0.89,-0.89,-0.88
290.72,0.21,1.11,0.20,1.09,-1.09,-1.29,-1.12,-0.89,-0.89,-0.90
293.63,0.16,1.06,0.15,1.05,-1.05,-1.25,-1.08,-0.89,-0.90,-0.90
296.57,0.11,1.01,0.11,1.01,-1.01,-1.22,-1.04,-0.90,-0.90,-0.90
299.53,0.06,0.96,0.06,0.97,-0.97,-1.18,-1.01,-0.91,-0.91,-0.91
302.53,0.01,0.92,0.01,0.92,-0.92,-1.15,-0.97,-0.92,-0.91,-0.91
305.55,-0.03,0.88,-0.03,0.88,-0.88,-1.12,-0.94,-0.91,-0.91,-0.91
308.61,-0.08,0.83,-0.08,0.84,-0.84,-1.08,-0.90,-0.92,-0.92,-0.92
311.69,-0.12,0.80,-0.12,0.80,-0.80,-1.05,-0.87,-0.92,-0.92,-0.92
314.81,-0.16,0.76,-0.16,0.76,-0.76,-1.02,-0.83,-0.92,-0.92,-0.92
317.96,-0.20,0.72,-0.21,0.72,-0.72,-0.99,-0.80,-0.92,-0.92,-0.93
321.14,-0.24,0.68,-0.25,0.67,-0.67,-0.95,-0.76,-0.92,-0.92,-0.92
324.35,-0.29,0.64,-0.29,0.63,-0.63,-0.92,-0.73,-0.92,-0.92,-0.93
327.59,-0.33,0.58,-0.33,0.59,-0.59,-0.89,-0.69,-0.92,-0.92,-0.91
330.87,-0.37,0.54,-0.37,0.55,-0.55,-0.86,-0.66,-0.92,-0.92,-0.92
334.18,-0.40,0.53,-0.41,0.51,-0.51,-0.83,-0.63,-0.91,-0.92,-0.93
337.52,-0.45,0.47,-0.45,0.47,-0.47,-0.80,-0.60,-0.92,-0.92,-0.92
340.90,-0.48,0.44,-0.49,0.43,-0.43,-0.77,-0.56,-0.91,-0.92,-0.92
344.30,-0.52,0.39,-0.52,0.39,-0.39,-0.74,-0.53,-0.91,-0.92,-0.92
347.75,-0.56,0.34,-0.56,0.35,-0.35,-0.71,-0.50,-0.92,-0.91,-0.91
351.23,-0.59,0.33,-0.60,0.31,-0.31,-0.68,-0.47,-0.91,-0.91,-0.92
354.74,-0.63,0.27,-0.63,0.28,-0.28,-0.65,-0.44,-0.91,-0.91,-0.90
358.28,-0.67,0.24,-0.67,0.24,-0.24,-0.62,-0.41,-0.91,-0.91,-0.91
361.87,-0.70,0.20,-0.70,0.21,-0.21,-0.59,-0.37,-0.91,-0.91,-0.90
365.49,-0.73,0.17,-0.73,0.17,-0.17,-0.56,-0.34,-0.90,-0.91,-0.91
369.14,-0.77,0.13,-0.77,0.14,-0.14,-0.53,-0.31,-0.91,-0.90,-0.90
372.83,-0.79,0.11,-0.80,0.10,-0.10,-0.51,-0.28,-0.89,-0.90,-0.90
376.56,-0.83,0.07,-0.83,0.07,-0.07,-0.48,-0.25,-0.90,-0.90,-0.90
380.33,-0.86,0.04,-0.86,0.04,-0.04,-0.45,-0.22,-0.90,-0.90,-0.90
384.13,-0.88,0.02,-0.89,0.01,-0.01,-0.42,-0.19,-0.89,-0.90,-0.90
387.97,-0.91,-0.02,-0.91,-0.02,0.02,-0.39,-0.17,-0.90,-0.90,-0.90
391.85,-0.94,-0.05,-0.94,-0.04,0.04,-0.37,-0.14,-0.90,-0.90,-0.90
395.77,-0.97,-0.07,-0.97,-0.07,0.07,-0.34,-0.11,-0.90,-0.90,-0.90
399.73,-0.99,-0.09,-0.99,-0.10,0.10,-0.31,-0.08,-0.90,-0.89,-0.90
403.72,-1.01,-0.12,-1.01,-0.12,0.12,-0.28,-0.05,-0.89,-0.89,-0.89
407.76,-1.03,-0.14,-1.03,-0.14,0.14,-0.26,-0.02,-0.89,-0.89,-0.89
411.84,-1.05,-0.16,-1.05,-0.16,0.16,-0.23,0.01,-0.89,-0.89,-0.89
415.96,-1.06,-0.18,-1.07,-0.18,0.18,-0.20,0.03,-0.88,-0.89,-0.88
420.12,-1.09,-0.20,-1.09,-0.20,0.20,-0.18,0.06,-0.90,-0.89,-0.89
424.32,-1.10,-0.21,-1.10,-0.21,0.21,-0.15,0.09,-0.89,-0.89,-0.89
428.56,-1.12,-0.24,-1.12,-0.23,0.23,-0.12,0.11,-0.90,-0.89,-0.89
432.85,-1.13,-0.25,-1.13,-0.24,0.24,-0.09,0.14,-0.89,-0.89,-0.89
437.18,-1.15,-0.25,-1.15,-0.25,0.25,-0.07,0.17,-0.90,-0.89,-0.90
441.55,-1.15,-0.25,-1.16,-0.26,0.26,-0.04,0.19,-0.89,-0.89,-0.90
445.96,-1.16,-0.26,-1.17,-0.27,0.27,-0.01,0.22,-0.89,-0.90,-0.90
450.42,-1.18,-0.28,-1.18,-0.28,0.28,0.01,0.24,-0.90,-0.90,-0.90
454.93,-1.18,-0.28,-1.18,-0.29,0.29,0.04,0.26,-0.89,-0.90,-0.90
459.48,-1.19,-0.29,-1.19,-0.29,0.29,0.07,0.29,-0.90,-0.90,-0.90
464.07,-1.20,-0.31,-1.20,-0.30,0.30,0.09,0.31,-0.90,-0.90,-0.89
468.71,-1.20,-0.31,-1.20,-0.30,0.30,0.12,0.33,-0.90,-0.90,-0.89
473.40,-1.20,-0.31,-1.20,-0.31,0.31,0.15,0.35,-0.89,-0.90,-0.89
478.13,-1.21,-0.32,-1.21,-0.31,0.31,0.17,0.37,-0.90,-0.89,-0.89
482.91,-1.20,-0.31,-1.21,-0.32,0.32,0.20,0.39,-0.89,-0.89,-0.89
