frequency,raw,error,smoothed,error_smoothed,equalization,parametric_eq,fixed_band_eq,equalized_raw,equalized_smoothed,target
20.00,-33.79,-28.71,-33.79,-28.73,6.00,6.16,2.64,-27.79,-27.79,-5.08
20.20,-33.62,-28.63,-33.62,-28.64,6.00,6.17,2.72,-27.62,-27.62,-4.99
20.40,-33.46,-28.55,-33.46,-28.55,6.00,6.17,2.80,-27.46,-27.46,-4.91
20.61,-33.29,-28.45,-33.29,-28.46,6.00,6.18,2.88,-27.29,-27.29,-4.84
20.81,-33.13,-28.38,-33.12,-28.36,6.00,6.18,2.96,-27.13,-27.12,-4.75
21.02,-32.96,-28.29,-32.95,-28.26,6.00,6.18,3.04,-26.96,-26.95,-4.67
21.23,-32.79,-28.18,-32.79,-28.15,6.00,6.18,3.13,-26.79,-26.79,-4.61
21.44,-32.61,-28.06,-32.62,-28.04,6.00,6.18,3.22,-26.61,-26.62,-4.55
21.66,-32.45,-27.95,-32.45,-27.93,6.00,6.18,3.31,-26.45,-26.45,-4.50
21.87,-32.27,-27.82,-32.28,-27.82,6.00,6.18,3.40,-26.27,-26.28,-4.45
22.09,-32.11,-27.70,-32.11,-27.70,6.00,6.18,3.50,-26.11,-26.11,-4.40
22.31,-31.93,-27.58,-31.93,-27.58,6.00,6.18,3.60,-25.93,-25.93,-4.35
22.54,-31.76,-27.45,-31.76,-27.45,6.00,6.18,3.70,-25.76,-25.76,-4.31
22.76,-31.59,-27.31,-31.59,-27.32,6.00,6.18,3.80,-25.59,-25.59,-4.27
22.99,-31.42,-27.17,-31.41,-27.18,6.00,6.18,3.91,-25.42,-25.41,-4.24
23.22,-31.24,-27.03,-31.24,-27.05,6.00,6.18,4.02,-25.24,-25.24,-4.20
23.45,-31.07,-26.90,-31.06,-26.91,6.00,6.18,4.13,-25.07,-25.06,-4.16
23.69,-30.89,-26.77,-30.89,-26.77,6.00,6.18,4.25,-24.89,-24.89,-4.12
23.92,-30.71,-26.63,-30.71,-26.63,6.00,6.17,4.36,-24.71,-24.71,-4.08
24.16,-30.54,-26.50,-30.53,-26.49,6.00,6.17,4.48,-24.54,-24.53,-4.03
24.40,-30.35,-26.35,-30.36,-26.34,6.00,6.18,4.60,-24.35,-24.36,-4.01
24.65,-30.18,-26.20,-30.18,-26.20,6.00,6.18,4.73,-24.18,-24.18,-3.98
24.89,-29.99,-26.05,-30.00,-26.05,6.00,6.18,4.85,-23.99,-24.00,-3.95
25.14,-29.81,-25.91,-29.82,-25.91,6.00,6.18,4.98,-23.81,-23.82,-3.91
25.39,-29.63,-25.76,-29.64,-25.76,6.00,6.18,5.10,-23.63,-23.64,-3.88
25.65,-29.46,-25.62,-29.46,-25.61,6.00,6.18,5.23,-23.46,-23.46,-3.84
25.91,-29.28,-25.46,-29.27,-25.46,6.00,6.18,5.36,-23.28,-23.27,-3.82
26.16,-29.08,-25.30,-29.09,-25.31,6.00,6.19,5.49,-23.08,-23.09,-3.79
26.43,-28.91,-25.16,-28.91,-25.16,6.00,6.19,5.62,-22.91,-22.91,-3.75
26.69,-28.73,-25.01,-28.73,-25.01,6.00,6.19,5.74,-22.73,-22.73,-3.72
26.96,-28.55,-24.86,-28.55,-24.86,6.00,6.20,5.87,-22.55,-22.55,-3.69
27.23,-28.37,-24.72,-28.36,-24.70,6.00,6.20,5.99,-22.37,-22.36,-3.65
27.50,-28.18,-24.56,-28.18,-24.55,6.00,6.20,6.11,-22.18,-22.18,-3.62
27.77,-27.99,-24.39,-28.00,-24.40,6.00,6.21,6.23,-21.99,-22.00,-3.60
28.05,-27.82,-24.25,-27.82,-24.25,6.00,6.21,6.35,-21.82,-21.82,-3.56
28.33,-27.63,-24.08,-27.63,-24.09,6.00,6.21,6.46,-21.63,-21.63,-3.54
28.62,-27.45,-23.93,-27.45,-23.94,6.00,6.22,6.56,-21.45,-21.45,-3.52
28.90,-27.26,-23.78,-27.26,-23.78,6.00,6.22,6.66,-21.26,-21.26,-3.48
29.19,-27.08,-23.62,-27.07,-23.63,6.00,6.23,6.75,-21.08,-21.07,-3.46
29.48,-26.89,-23.48,-26.89,-23.47,6.00,6.23,6.84,-20.89,-20.89,-3.41
29.78,-26.71,-23.32,-26.70,-23.31,6.00,6.23,6.91,-20.71,-20.70,-3.39
30.08,-26.52,-23.16,-26.51,-23.15,6.00,6.24,6.98,-20.52,-20.51,-3.36
30.38,-26.33,-23.00,-26.32,-22.98,6.00,6.24,7.04,-20.33,-20.32,-3.33
30.68,-26.13,-22.82,-26.13,-22.82,6.00,6.25,7.09,-20.13,-20.13,-3.30
30.99,-25.94,-22.66,-25.94,-22.66,6.00,6.25,7.14,-19.94,-19.94,-3.28
31.30,-25.75,-22.49,-25.75,-22.50,6.00,6.25,7.17,-19.75,-19.75,-3.26
31.61,-25.56,-22.33,-25.57,-22.34,6.00,6.26,7.19,-19.56,-19.57,-3.23
31.93,-25.37,-22.16,-25.38,-22.17,6.00,6.26,7.21,-19.37,-19.38,-3.21
32.24,-25.18,-22.00,-25.19,-22.01,6.00,6.26,7.21,-19.18,-19.19,-3.19
32.57,-25.00,-21.84,-25.00,-21.85,6.00,6.26,7.21,-19.00,-19.00,-3.16
32.89,-24.82,-21.68,-24.82,-21.68,6.00,6.27,7.20,-18.82,-18.82,-3.13
33.22,-24.64,-21.52,-24.63,-21.51,6.00,6.27,7.18,-18.64,-18.63,-3.11
33.55,-24.46,-21.36,-24.45,-21.35,6.00,6.27,7.15,-18.46,-18.45,-3.09
33.89,-24.28,-21.19,-24.27,-21.18,6.00,6.27,7.12,-18.28,-18.27,-3.09
34.23,-24.10,-21.04,-24.08,-21.02,6.00,6.27,7.08,-18.10,-18.08,-3.06
34.57,-23.91,-20.86,-23.90,-20.85,6.00,6.27,7.04,-17.91,-17.90,-3.05
34.92,-23.72,-20.68,-23.73,-20.69,6.00,6.27,6.99,-17.72,-17.73,-3.04
35.27,-23.55,-20.53,-23.55,-20.52,6.00,6.27,6.94,-17.55,-17.55,-3.02
35.62,-23.37,-20.34,-23.37,-20.35,6.00,6.27,6.88,-17.37,-17.37,-3.03
35.97,-23.19,-20.17,-23.20,-20.19,6.00,6.27,6.82,-17.19,-17.20,-3.02
36.33,-23.02,-20.02,-23.03,-20.02,6.00,6.27,6.77,-17.02,-17.03,-3.00
36.70,-22.86,-19.86,-22.86,-19.85,6.00,6.27,6.71,-16.86,-16.86,-3.00
37.06,-22.69,-19.68,-22.69,-19.69,6.00,6.26,6.65,-16.69,-16.69,-3.00
37.43,-22.52,-19.53,-22.52,-19.52,6.00,6.26,6.59,-16.52,-16.52,-3.00
37.81,-22.37,-19.37,-22.36,-19.36,6.00,6.26,6.53,-16.37,-16.36,-3.00
38.19,-22.21,-19.21,-22.20,-19.20,6.00,6.26,6.48,-16.21,-16.20,-3.00
38.57,-22.05,-19.05,-22.05,-19.04,6.00,6.25,6.42,-16.05,-16.05,-3.00
38.95,-21.89,-18.89,-21.89,-18.89,6.00,6.25,6.37,-15.89,-15.89,-3.00
39.34,-21.74,-18.72,-21.74,-18.74,6.00,6.24,6.32,-15.74,-15.74,-3.01
39.74,-21.60,-18.58,-21.59,-18.59,6.00,6.24,6.28,-15.60,-15.59,-3.01
40.14,-21.45,-18.43,-21.45,-18.44,6.00,6.23,6.23,-15.45,-15.45,-3.02
40.54,-21.31,-18.29,-21.31,-18.29,6.00,6.22,6.19,-15.31,-15.31,-3.02
40.94,-21.17,-18.14,-21.17,-18.15,6.00,6.22,6.16,-15.17,-15.17,-3.02
41.35,-21.03,-18.00,-21.03,-18.00,6.00,6.21,6.13,-15.03,-15.03,-3.03
41.76,-20.90,-17.86,-20.90,-17.86,6.00,6.20,6.10,-14.90,-14.90,-3.03
42.18,-20.77,-17.73,-20.77,-17.73,6.00,6.19,6.08,-14.77,-14.77,-3.04
42.60,-20.64,-17.59,-20.64,-17.59,6.00,6.18,6.06,-14.64,-14.64,-3.05
43.03,-20.52,-17.47,-20.52,-17.46,6.00,6.17,6.04,-14.52,-14.52,-3.04
43.46,-20.40,-17.34,-20.39,-17.33,6.00,6.16,6.03,-14.40,-14.39,-3.06
43.90,-20.27,-17.20,-20.27,-17.20,6.00,6.15,6.03,-14.27,-14.27,-3.07
44.33,-20.15,-17.06,-20.16,-17.08,6.00,6.14,6.03,-14.15,-14.16,-3.09
44.78,-20.04,-16.95,-20.04,-16.95,6.00,6.13,6.03,-14.04,-14.04,-3.09
45.23,-19.93,-16.82,-19.92,-16.83,6.00,6.12,6.04,-13.93,-13.92,-3.11
45.68,-19.82,-16.71,-19.81,-16.71,6.00,6.11,6.05,-13.82,-13.81,-3.11
46.13,-19.70,-16.58,-19.70,-16.58,6.00,6.10,6.07,-13.70,-13.70,-3.12
46.60,-19.58,-16.46,-19.58,-16.47,6.00,6.08,6.09,-13.58,-13.58,-3.11
47.06,-19.47,-16.35,-19.47,-16.35,6.00,6.07,6.12,-13.47,-13.47,-3.12
47.53,-19.36,-16.23,-19.36,-16.23,6.00,6.06,6.15,-13.36,-13.36,-3.13
48.01,-19.25,-16.13,-19.24,-16.11,6.00,6.04,6.19,-13.25,-13.24,-3.12
48.49,-19.13,-16.00,-19.13,-15.99,6.00,6.03,6.23,-13.13,-13.13,-3.13
48.97,-19.01,-15.87,-19.01,-15.88,6.00,6.01,6.27,-13.01,-13.01,-3.14
49.46,-18.89,-15.73,-18.89,-15.76,6.00,6.00,6.31,-12.89,-12.89,-3.15
49.96,-18.78,-15.62,-18.77,-15.63,6.00,5.98,6.36,-12.78,-12.77,-3.16
50.46,-18.66,-15.51,-18.65,-15.51,6.00,5.97,6.41,-12.66,-12.65,-3.15
50.96,-18.53,-15.39,-18.52,-15.38,6.00,5.95,6.47,-12.53,-12.52,-3.14
51.47,-18.40,-15.25,-18.39,-15.25,6.00,5.94,6.52,-12.40,-12.39,-3.14
51.99,-18.26,-15.12,-18.25,-15.11,6.00,5.92,6.58,-12.26,-12.25,-3.14
52.51,-18.12,-14.99,-18.11,-14.97,6.00,5.91,6.64,-12.12,-12.11,-3.13
53.03,-17.97,-14.84,-17.97,-14.83,6.00,5.89,6.70,-11.97,-11.97,-3.13
53.56,-17.82,-14.69,-17.82,-14.68,6.00,5.87,6.76,-11.82,-11.82,-3.13
54.10,-17.67,-14.54,-17.67,-14.53,6.00,5.86,6.82,-11.67,-11.67,-3.13
54.64,-17.51,-14.37,-17.51,-14.37,6.00,5.84,6.87,-11.51,-11.51,-3.14
55.18,-17.35,-14.21,-17.35,-14.21,6.00,5.83,6.93,-11.35,-11.35,-3.14
55.74,-17.19,-14.04,-17.19,-14.04,6.00,5.81,6.98,-11.19,-11.19,-3.15
56.29,-17.02,-13.86,-17.02,-13.87,6.00,5.80,7.03,-11.02,-11.02,-3.15
56.86,-16.85,-13.69,-16.85,-13.69,6.00,5.78,7.07,-10.85,-10.85,-3.16
57.42,-16.68,-13.50,-16.67,-13.51,6.00,5.77,7.11,-10.68,-10.67,-3.18
58.00,-16.50,-13.32,-16.50,-13.32,6.00,5.76,7.15,-10.50,-10.50,-3.18
58.58,-16.31,-13.12,-16.31,-13.12,6.00,5.75,7.17,-10.31,-10.31,-3.19
59.16,-16.13,-12.93,-16.13,-12.92,6.00,5.73,7.19,-10.13,-10.13,-3.19
59.76,-15.95,-12.74,-15.94,-12.72,6.00,5.72,7.21,-9.95,-9.94,-3.21
60.35,-15.76,-12.52,-15.75,-12.51,6.00,5.72,7.21,-9.76,-9.75,-3.23
60.96,-15.56,-12.32,-15.55,-12.30,6.00,5.71,7.20,-9.56,-9.55,-3.24
61.57,-15.36,-12.09,-15.35,-12.08,6.00,5.70,7.19,-9.36,-9.35,-3.27
62.18,-15.16,-11.86,-15.15,-11.87,6.00,5.70,7.16,-9.16,-9.15,-3.30
62.80,-14.95,-11.64,-14.95,-11.65,6.00,5.69,7.13,-8.95,-8.95,-3.30
63.43,-14.74,-11.41,-14.74,-11.43,6.00,5.69,7.08,-8.74,-8.74,-3.33
64.07,-14.53,-11.19,-14.54,-11.21,6.00,5.69,7.02,-8.53,-8.54,-3.34
64.71,-14.32,-10.97,-14.33,-11.00,6.00,5.70,6.96,-8.32,-8.33,-3.34
65.35,-14.12,-10.76,-14.12,-10.78,6.00,5.70,6.88,-8.12,-8.12,-3.35
66.01,-13.92,-10.57,-13.91,-10.57,6.00,5.71,6.80,-7.92,-7.91,-3.35
66.67,-13.71,-10.36,-13.70,-10.35,6.00,5.72,6.71,-7.71,-7.70,-3.35
67.33,-13.50,-10.15,-13.49,-10.14,6.00,5.74,6.61,-7.50,-7.49,-3.35
68.01,-13.29,-9.94,-13.29,-9.94,6.00,5.75,6.50,-7.29,-7.29,-3.35
68.69,-13.08,-9.73,-13.08,-9.73,6.00,5.77,6.38,-7.08,-7.08,-3.35
69.37,-12.88,-9.54,-12.87,-9.53,6.00,5.80,6.26,-6.88,-6.87,-3.34
70.07,-12.67,-9.33,-12.67,-9.33,6.00,5.83,6.14,-6.67,-6.67,-3.34
70.77,-12.47,-9.14,-12.47,-9.13,6.00,5.86,6.01,-6.47,-6.47,-3.32
71.48,-12.27,-8.94,-12.27,-8.93,6.00,5.89,5.88,-6.27,-6.27,-3.33
72.19,-12.07,-8.74,-12.07,-8.74,6.00,5.93,5.74,-6.07,-6.07,-3.33
72.91,-11.87,-8.54,-11.88,-8.54,6.00,5.96,5.60,-5.87,-5.88,-3.33
73.64,-11.68,-8.35,-11.68,-8.35,6.00,6.00,5.46,-5.68,-5.68,-3.33
74.38,-11.49,-8.16,-11.49,-8.16,6.00,6.04,5.32,-5.49,-5.49,-3.33
75.12,-11.30,-7.96,-11.31,-7.98,6.00,6.08,5.18,-5.30,-5.31,-3.33
75.87,-11.13,-7.80,-11.12,-7.79,6.00,6.12,5.03,-5.13,-5.12,-3.33
76.63,-10.95,-7.62,-10.94,-7.61,6.00,6.15,4.89,-4.95,-4.94,-3.33
77.40,-10.77,-7.43,-10.76,-7.43,6.00,6.18,4.75,-4.77,-4.76,-3.33
78.17,-10.59,-7.25,-10.58,-7.25,6.00,6.19,4.61,-4.59,-4.58,-3.34
78.95,-10.41,-7.09,-10.41,-7.08,6.00,6.20,4.47,-4.41,-4.41,-3.32
79.74,-10.24,-6.92,-10.23,-6.91,6.00,6.20,4.33,-4.24,-4.23,-3.32
80.54,-10.07,-6.75,-10.06,-6.75,6.00,6.18,4.19,-4.07,-4.06,-3.32
81.35,-9.89,-6.58,-9.90,-6.59,6.00,6.15,4.05,-3.89,-3.90,-3.31
82.16,-9.72,-6.41,-9.73,-6.44,5.99,6.09,3.92,-3.73,-3.74,-3.30
82.98,-9.55,-6.26,-9.57,-6.28,5.95,6.03,3.79,-3.59,-3.61,-3.28
83.81,-9.40,-6.12,-9.40,-6.13,5.91,5.94,3.66,-3.49,-3.50,-3.28
84.65,-9.25,-5.98,-9.24,-5.99,5.84,5.83,3.53,-3.41,-3.40,-3.27
85.50,-9.10,-5.85,-9.09,-5.84,5.76,5.71,3.40,-3.34,-3.33,-3.24
86.35,-8.94,-5.71,-8.93,-5.70,5.66,5.58,3.28,-3.28,-3.27,-3.23
87.22,-8.78,-5.56,-8.78,-5.56,5.54,5.43,3.16,-3.23,-3.23,-3.22
88.09,-8.62,-5.41,-8.62,-5.41,5.41,5.28,3.04,-3.20,-3.21,-3.21
88.97,-8.47,-5.28,-8.47,-5.27,5.27,5.11,2.93,-3.20,-3.20,-3.19
89.86,-8.31,-5.12,-8.32,-5.12,5.12,4.94,2.81,-3.19,-3.20,-3.19
90.76,-8.16,-4.96,-8.16,-4.97,4.97,4.77,2.70,-3.19,-3.19,-3.19
91.66,-8.01,-4.82,-8.01,-4.81,4.81,4.59,2.59,-3.20,-3.20,-3.19
92.58,-7.86,-4.65,-7.84,-4.64,4.64,4.41,2.48,-3.22,-3.20,-3.21
93.51,-7.70,-4.49,-7.68,-4.46,4.46,4.23,2.38,-3.23,-3.22,-3.20
94.44,-7.54,-4.32,-7.51,-4.28,4.28,4.06,2.27,-3.25,-3.23,-3.22
95.39,-7.38,-4.14,-7.35,-4.10,4.10,3.88,2.17,-3.28,-3.25,-3.24
96.34,-7.22,-3.95,-7.19,-3.91,3.91,3.71,2.07,-3.30,-3.28,-3.27
97.30,-7.04,-3.73,-7.03,-3.72,3.72,3.54,1.98,-3.31,-3.31,-3.31
98.28,-6.86,-3.52,-6.87,-3.53,3.53,3.38,1.88,-3.33,-3.34,-3.33
99.26,-6.69,-3.31,-6.71,-3.34,3.34,3.21,1.79,-3.35,-3.37,-3.37
100.25,-6.51,-3.09,-6.55,-3.14,3.14,3.05,1.69,-3.37,-3.41,-3.41
101.25,-6.32,-2.86,-6.39,-2.94,2.94,2.90,1.60,-3.38,-3.45,-3.45
102.27,-6.17,-2.68,-6.22,-2.73,2.73,2.75,1.51,-3.43,-3.49,-3.49
103.29,-6.08,-2.54,-6.06,-2.53,2.53,2.59,1.43,-3.55,-3.53,-3.54
104.32,-5.97,-2.40,-5.90,-2.33,2.33,2.45,1.34,-3.64,-3.57,-3.57
105.37,-5.80,-2.18,-5.74,-2.12,2.12,2.30,1.26,-3.67,-3.61,-3.62
106.42,-5.63,-1.97,-5.58,-1.93,1.93,2.16,1.18,-3.70,-3.66,-3.66
107.48,-5.46,-1.76,-5.43,-1.73,1.73,2.02,1.09,-3.72,-3.70,-3.70
108.56,-5.29,-1.55,-5.28,-1.55,1.55,1.88,1.01,-3.74,-3.73,-3.74
109.64,-5.12,-1.34,-5.13,-1.36,1.36,1.75,0.94,-3.76,-3.77,-3.78
110.74,-4.96,-1.15,-4.98,-1.17,1.17,1.61,0.86,-3.78,-3.81,-3.81
111.85,-4.80,-0.96,-4.84,-0.99,0.99,1.48,0.78,-3.80,-3.84,-3.83
112.97,-4.65,-0.76,-4.69,-0.82,0.82,1.35,0.71,-3.83,-3.88,-3.88
114.10,-4.53,-0.63,-4.55,-0.64,0.64,1.22,0.64,-3.89,-3.91,-3.90
115.24,-4.39,-0.45,-4.40,-0.47,0.47,1.09,0.56,-3.92,-3.93,-3.94
116.39,-4.31,-0.34,-4.26,-0.31,0.31,0.96,0.49,-4.00,-3.96,-3.97
117.55,-4.19,-0.20,-4.14,-0.16,0.16,0.84,0.42,-4.03,-3.98,-3.99
118.73,-4.04,-0.02,-4.01,-0.01,0.01,0.71,0.35,-4.02,-4.00,-4.01
119.92,-3.89,0.13,-3.89,0.12,-0.12,0.59,0.29,-4.01,-4.02,-4.02
121.12,-3.75,0.29,-3.78,0.25,-0.25,0.47,0.22,-4.00,-4.04,-4.04
122.33,-3.67,0.39,-3.67,0.38,-0.38,0.34,0.16,-4.05,-4.05,-4.05
123.55,-3.57,0.49,-3.57,0.50,-0.50,0.22,0.09,-4.07,-4.06,-4.06
124.79,-3.45,0.63,-3.46,0.61,-0.61,0.10,0.03,-4.06,-4.08,-4.07
126.03,-3.34,0.74,-3.36,0.72,-0.72,-0.02,-0.04,-4.06,-4.09,-4.08
127.29,-3.28,0.82,-3.27,0.83,-0.83,-0.14,-0.10,-4.11,-4.10,-4.09
128.57,-3.20,0.92,-3.18,0.93,-0.93,-0.26,-0.16,-4.13,-4.11,-4.12
129.85,-3.10,1.02,-3.10,1.03,-1.03,-0.38,-0.22,-4.12,-4.12,-4.12
131.15,-3.01,1.13,-3.02,1.12,-1.12,-0.50,-0.28,-4.12,-4.14,-4.13
132.46,-2.96,1.20,-2.95,1.20,-1.20,-0.61,-0.34,-4.16,-4.15,-4.16
133.79,-2.88,1.28,-2.88,1.28,-1.28,-0.73,-0.40,-4.16,-4.17,-4.16
135.12,-2.81,1.37,-2.82,1.37,-1.37,-0.85,-0.46,-4.17,-4.18,-4.18
136.48,-2.76,1.43,-2.75,1.45,-1.45,-0.96,-0.52,-4.21,-4.20,-4.19
137.84,-2.69,1.52,-2.69,1.53,-1.53,-1.08,-0.57,-4.21,-4.21,-4.21
139.22,-2.65,1.59,-2.63,1.60,-1.60,-1.20,-0.63,-4.25,-4.23,-4.24
140.61,-2.59,1.67,-2.57,1.68,-1.68,-1.31,-0.69,-4.27,-4.25,-4.26
142.02,-2.52,1.75,-2.52,1.75,-1.75,-1.42,-0.75,-4.27,-4.27,-4.27
143.44,-2.48,1.81,-2.47,1.83,-1.83,-1.54,-0.81,-4.30,-4.29,-4.29
144.87,-2.41,1.91,-2.42,1.90,-1.90,-1.65,-0.87,-4.30,-4.31,-4.31
146.32,-2.36,1.98,-2.37,1.97,-1.97,-1.76,-0.93,-4.33,-4.34,-4.34
147.78,-2.30,2.06,-2.32,2.05,-2.05,-1.87,-0.99,-4.34,-4.36,-4.36
149.26,-2.26,2.13,-2.27,2.12,-2.12,-1.98,-1.05,-4.38,-4.39,-4.38
150.75,-2.23,2.19,-2.22,2.20,-2.20,-2.09,-1.11,-4.42,-4.41,-4.42
152.26,-2.19,2.26,-2.17,2.27,-2.27,-2.20,-1.18,-4.46,-4.44,-4.44
153.78,-2.14,2.33,-2.12,2.35,-2.35,-2.30,-1.24,-4.48,-4.47,-4.47
155.32,-2.10,2.40,-2.08,2.42,-2.42,-2.41,-1.31,-4.52,-4.50,-4.50
156.88,-2.04,2.48,-2.04,2.49,-2.49,-2.51,-1.37,-4.53,-4.53,-4.52
158.44,-2.00,2.57,-2.00,2.57,-2.57,-2.62,-1.44,-4.57,-4.56,-4.56
160.03,-1.94,2.66,-1.95,2.64,-2.64,-2.72,-1.51,-4.58,-4.60,-4.60
161.63,-1.90,2.74,-1.91,2.72,-2.72,-2.82,-1.58,-4.61,-4.63,-4.64
163.24,-1.87,2.80,-1.87,2.79,-2.79,-2.92,-1.65,-4.66,-4.66,-4.67
164.88,-1.82,2.88,-1.83,2.87,-2.87,-3.01,-1.72,-4.68,-4.69,-4.70
166.53,-1.79,2.94,-1.78,2.94,-2.94,-3.11,-1.80,-4.73,-4.72,-4.73
168.19,-1.76,3.00,-1.74,3.02,-3.02,-3.20,-1.88,-4.77,-4.75,-4.75
169.87,-1.72,3.07,-1.70,3.09,-3.09,-3.29,-1.95,-4.80,-4.78,-4.78
171.57,-1.68,3.13,-1.66,3.15,-3.15,-3.38,-2.03,-4.83,-4.81,-4.81
173.29,-1.64,3.20,-1.62,3.22,-3.22,-3.47,-2.12,-4.85,-4.84,-4.84
175.02,-1.57,3.30,-1.59,3.28,-3.28,-3.56,-2.20,-4.84,-4.86,-4.86
176.77,-1.53,3.36,-1.55,3.33,-3.33,-3.64,-2.28,-4.86,-4.89,-4.89
178.54,-1.50,3.42,-1.52,3.39,-3.39,-3.72,-2.37,-4.88,-4.91,-4.92
180.32,-1.47,3.46,-1.49,3.44,-3.44,-3.80,-2.46,-4.90,-4.92,-4.93
182.13,-1.45,3.50,-1.45,3.49,-3.49,-3.88,-2.55,-4.93,-4.94,-4.94
183.95,-1.43,3.53,-1.42,3.53,-3.53,-3.95,-2.64,-4.96,-4.96,-4.96
185.79,-1.41,3.57,-1.39,3.58,-3.58,-4.02,-2.74,-4.98,-4.97,-4.97
187.65,-1.39,3.60,-1.37,3.62,-3.62,-4.09,-2.83,-5.00,-4.98,-4.99
189.52,-1.35,3.64,-1.34,3.65,-3.65,-4.16,-2.93,-5.00,-4.99,-4.99
191.42,-1.32,3.68,-1.31,3.69,-3.69,-4.22,-3.03,-5.01,-5.00,-5.00
193.33,-1.29,3.72,-1.29,3.72,-3.72,-4.29,-3.13,-5.01,-5.01,-5.00
195.27,-1.26,3.75,-1.26,3.76,-3.76,-4.34,-3.23,-5.02,-5.02,-5.01
197.22,-1.23,3.79,-1.23,3.80,-3.80,-4.40,-3.34,-5.02,-5.02,-5.02
199.19,-1.21,3.83,-1.20,3.83,-3.83,-4.45,-3.44,-5.04,-5.03,-5.04
201.18,-1.18,3.86,-1.16,3.87,-3.87,-4.50,-3.55,-5.05,-5.03,-5.04
203.19,-1.15,3.89,-1.13,3.91,-3.91,-4.55,-3.65,-5.06,-5.04,-5.04
205.23,-1.12,3.93,-1.10,3.94,-3.94,-4.59,-3.76,-5.06,-5.05,-5.05
207.28,-1.08,3.97,-1.08,3.97,-3.97,-4.63,-3.87,-5.05,-5.05,-5.05
209.35,-1.05,4.01,-1.06,4.00,-4.00,-4.67,-3.97,-5.05,-5.06,-5.06
211.44,-1.03,4.05,-1.04,4.02,-4.02,-4.70,-4.08,-5.05,-5.07,-5.08
213.56,-1.00,4.08,-1.03,4.04,-4.04,-4.74,-4.18,-5.04,-5.07,-5.07
215.69,-0.99,4.09,-1.02,4.06,-4.06,-4.77,-4.28,-5.05,-5.08,-5.07
217.85,-0.99,4.10,-1.02,4.07,-4.07,-4.79,-4.38,-5.06,-5.09,-5.09
220.03,-0.99,4.11,-1.01,4.09,-4.09,-4.82,-4.48,-5.07,-5.10,-5.10
222.23,-1.00,4.12,-1.01,4.10,-4.10,-4.84,-4.57,-5.10,-5.11,-5.12
224.45,-1.02,4.10,-1.00,4.11,-4.11,-4.85,-4.66,-5.13,-5.11,-5.11
226.70,-1.03,4.09,-1.00,4.12,-4.12,-4.87,-4.75,-5.15,-5.13,-5.12
228.96,-1.03,4.10,-1.00,4.14,-4.14,-4.88,-4.83,-5.17,-5.14,-5.13
231.25,-1.02,4.12,-0.99,4.16,-4.16,-4.89,-4.90,-5.18,-5.15,-5.13
233.57,-1.01,4.14,-0.98,4.18,-4.18,-4.90,-4.97,-5.19,-5.16,-5.15
235.90,-0.98,4.19,-0.96,4.21,-4.21,-4.90,-5.04,-5.18,-5.17,-5.17
238.26,-0.96,4.22,-0.95,4.23,-4.23,-4.90,-5.09,-5.19,-5.18,-5.18
240.64,-0.94,4.26,-0.92,4.27,-4.27,-4.90,-5.14,-5.20,-5.19,-5.20
243.05,-0.90,4.30,-0.89,4.30,-4.30,-4.90,-5.18,-5.20,-5.20,-5.20
245.48,-0.87,4.34,-0.86,4.34,-4.34,-4.90,-5.21,-5.21,-5.20,-5.21
247.93,-0.83,4.38,-0.83,4.37,-4.37,-4.89,-5.24,-5.20,-5.21,-5.21
250.41,-0.80,4.43,-0.80,4.41,-4.41,-4.88,-5.25,-5.21,-5.21,-5.23
252.92,-0.76,4.45,-0.77,4.44,-4.44,-4.87,-5.26,-5.19,-5.21,-5.21
255.45,-0.74,4.47,-0.75,4.46,-4.46,-4.85,-5.26,-5.19,-5.20,-5.21
258.00,-0.72,4.48,-0.73,4.47,-4.47,-4.84,-5.25,-5.19,-5.20,-5.20
260.58,-0.69,4.51,-0.71,4.48,-4.48,-4.82,-5.23,-5.17,-5.19,-5.19
263.19,-0.68,4.50,-0.69,4.48,-4.48,-4.80,-5.21,-5.16,-5.18,-5.18
265.82,-0.66,4.51,-0.68,4.48,-4.48,-4.78,-5.18,-5.14,-5.16,-5.17
268.48,-0.66,4.49,-0.67,4.47,-4.47,-4.76,-5.14,-5.13,-5.15,-5.15
271.16,-0.67,4.46,-0.67,4.46,-4.46,-4.74,-5.09,-5.13,-5.13,-5.13
273.87,-0.68,4.44,-0.67,4.45,-4.45,-4.72,-5.04,-5.12,-5.12,-5.11
276.61,-0.69,4.40,-0.67,4.43,-4.43,-4.69,-4.99,-5.12,-5.10,-5.09
279.38,-0.69,4.39,-0.67,4.41,-4.41,-4.66,-4.92,-5.10,-5.08,-5.08
282.17,-0.69,4.37,-0.68,4.39,-4.39,-4.63,-4.86,-5.08,-5.06,-5.06
284.99,-0.69,4.36,-0.68,4.37,-4.37,-4.61,-4.79,-5.05,-5.05,-5.04
287.84,-0.69,4.34,-0.68,4.34,-4.34,-4.58,-4.72,-5.03,-5.03,-5.03
290.72,-0.69,4.31,-0.69,4.32,-4.32,-4.54,-4.65,-5.01,-5.01,-5.00
293.63,-0.69,4.31,-0.69,4.30,-4.30,-4.51,-4.57,-4.99,-4.99,-4.99
296.57,-0.69,4.28,-0.69,4.28,-4.28,-4.48,-4.50,-4.96,-4.97,-4.97
299.53,-0.69,4.26,-0.69,4.26,-4.26,-4.45,-4.42,-4.94,-4.95,-4.95
302.53,-0.69,4.25,-0.69,4.24,-4.24,-4.41,-4.35,-4.92,-4.92,-4.94
305.55,-0.69,4.22,-0.69,4.21,-4.21,-4.38,-4.27,-4.90,-4.90,-4.90
308.61,-0.69,4.20,-0.69,4.19,-4.19,-4.34,-4.19,-4.88,-4.88,-4.88
311.69,-0.69,4.17,-0.69,4.17,-4.17,-4.31,-4.12,-4.86,-4.86,-4.86
314.81,-0.69,4.13,-0.69,4.15,-4.15,-4.27,-4.04,-4.83,-4.83,-4.82
317.96,-0.69,4.11,-0.69,4.12,-4.12,-4.23,-3.97,-4.81,-4.81,-4.80
321.14,-0.69,4.09,-0.69,4.10,-4.10,-4.19,-3.90,-4.79,-4.79,-4.78
324.35,-0.69,4.08,-0.69,4.07,-4.07,-4.16,-3.83,-4.76,-4.76,-4.76
327.59,-0.69,4.05,-0.69,4.05,-4.05,-4.12,-3.76,-4.74,-4.74,-4.74
330.87,-0.69,4.03,-0.69,4.03,-4.03,-4.08,-3.70,-4.71,-4.71,-4.72
334.18,-0.69,4.00,-0.69,4.00,-4.00,-4.04,-3.63,-4.69,-4.69,-4.69
337.52,-0.69,3.98,-0.69,3.98,-3.98,-4.01,-3.57,-4.66,-4.66,-4.67
340.90,-0.69,3.95,-0.69,3.95,-3.95,-3.97,-3.51,-4.64,-4.64,-4.64
344.30,-0.69,3.93,-0.69,3.93,-3.93,-3.93,-3.46,-4.61,-4.61,-4.61
347.75,-0.69,3.91,-0.69,3.90,-3.90,-3.89,-3.40,-4.59,-4.59,-4.59
351.23,-0.69,3.88,-0.69,3.88,-3.88,-3.85,-3.35,-4.57,-4.57,-4.57
354.74,-0.69,3.85,-0.69,3.85,-3.85,-3.81,-3.30,-4.54,-4.54,-4.54
358.28,-0.69,3.83,-0.69,3.83,-3.83,-3.77,-3.25,-4.52,-4.52,-4.52
361.87,-0.69,3.80,-0.69,3.80,-3.80,-3.74,-3.21,-4.49,-4.49,-4.49
365.49,-0.69,3.77,-0.69,3.78,-3.78,-3.70,-3.17,-4.46,-4.46,-4.46
369.14,-0.69,3.76,-0.69,3.75,-3.75,-3.66,-3.13,-4.44,-4.44,-4.45
372.83,-0.69,3.73,-0.69,3.73,-3.73,-3.62,-3.10,-4.42,-4.42,-4.42
376.56,-0.69,3.72,-0.69,3.71,-3.71,-3.58,-3.06,-4.39,-4.40,-4.40
380.33,-0.69,3.68,-0.69,3.69,-3.69,-3.55,-3.03,-4.37,-4.37,-4.36
384.13,-0.69,3.67,-0.69,3.67,-3.67,-3.51,-3.00,-4.35,-4.36,-4.35
387.97,-0.69,3.65,-0.69,3.65,-3.65,-3.47,-2.98,-4.34,-4.34,-4.34
