frequency,raw,smoothed,error,error_smoothed,equalization,parametric_eq,fixed_band_eq,equalized_raw,equalized_smoothed,target
20.00,-1.47,-1.47,-3.47,-3.47,3.47,3.31,1.06,2.00,2.00,2.00
20.20,-1.43,-1.43,-3.48,-3.48,3.48,3.29,1.09,2.05,2.05,2.05
20.40,-1.39,-1.39,-3.49,-3.49,3.49,3.27,1.12,2.10,2.10,2.10
20.61,-1.35,-1.35,-3.48,-3.49,3.49,3.25,1.16,2.14,2.14,2.13
20.81,-1.32,-1.32,-3.50,-3.49,3.49,3.22,1.19,2.17,2.17,2.18
21.02,-1.28,-1.28,-3.50,-3.49,3.48,3.20,1.23,2.20,2.20,2.22
21.23,-1.24,-1.24,-3.48,-3.48,3.47,3.18,1.26,2.23,2.23,2.24
21.44,-1.19,-1.19,-3.45,-3.45,3.45,3.16,1.30,2.26,2.26,2.26
21.66,-1.15,-1.15,-3.43,-3.42,3.43,3.14,1.34,2.28,2.28,2.27
21.87,-1.11,-1.11,-3.39,-3.40,3.40,3.12,1.38,2.29,2.29,2.28
22.09,-1.07,-1.07,-3.37,-3.37,3.36,3.10,1.42,2.29,2.29,2.30
22.31,-1.03,-1.03,-3.34,-3.34,3.33,3.08,1.47,2.30,2.30,2.31
22.54,-0.98,-0.98,-3.29,-3.29,3.29,3.06,1.51,2.31,2.31,2.31
22.76,-0.94,-0.94,-3.25,-3.25,3.25,3.04,1.56,2.31,2.31,2.31
22.99,-0.89,-0.90,-3.19,-3.20,3.22,3.02,1.60,2.33,2.32,2.30
23.22,-0.87,-0.87,-3.17,-3.17,3.18,3.00,1.65,2.31,2.32,2.30
23.45,-0.84,-0.84,-3.14,-3.14,3.15,2.98,1.70,2.31,2.31,2.30
23.69,-0.81,-0.82,-3.12,-3.12,3.12,2.96,1.74,2.31,2.31,2.31
23.92,-0.79,-0.78,-3.10,-3.10,3.09,2.94,1.79,2.30,2.31,2.31
24.16,-0.75,-0.75,-3.07,-3.07,3.06,2.92,1.84,2.31,2.31,2.32
24.40,-0.71,-0.71,-3.04,-3.03,3.02,2.90,1.90,2.31,2.31,2.33
24.65,-0.67,-0.67,-2.99,-2.99,2.97,2.88,1.95,2.30,2.30,2.32
24.89,-0.63,-0.63,-2.94,-2.94,2.92,2.86,2.00,2.29,2.30,2.31
25.14,-0.57,-0.57,-2.88,-2.89,2.87,2.84,2.05,2.30,2.30,2.31
25.39,-0.51,-0.50,-2.83,-2.82,2.82,2.82,2.11,2.31,2.32,2.32
25.65,-0.44,-0.44,-2.76,-2.75,2.79,2.79,2.16,2.34,2.35,2.32
25.91,-0.37,-0.39,-2.68,-2.70,2.76,2.77,2.21,2.39,2.37,2.31
26.16,-0.36,-0.37,-2.67,-2.68,2.73,2.75,2.27,2.37,2.36,2.31
26.43,-0.38,-0.38,-2.69,-2.69,2.70,2.73,2.32,2.32,2.32,2.31
26.69,-0.41,-0.41,-2.72,-2.72,2.68,2.71,2.37,2.26,2.27,2.31
26.96,-0.43,-0.41,-2.75,-2.72,2.65,2.69,2.42,2.22,2.24,2.32
27.23,-0.37,-0.37,-2.69,-2.68,2.62,2.67,2.47,2.25,2.25,2.31
27.50,-0.29,-0.30,-2.60,-2.61,2.60,2.65,2.52,2.31,2.30,2.31
27.77,-0.22,-0.22,-2.52,-2.53,2.57,2.63,2.56,2.35,2.35,2.30
28.05,-0.16,-0.18,-2.46,-2.48,2.54,2.61,2.61,2.38,2.36,2.30
28.33,-0.17,-0.17,-2.46,-2.46,2.50,2.59,2.65,2.33,2.33,2.29
28.62,-0.18,-0.18,-2.47,-2.47,2.46,2.58,2.69,2.28,2.28,2.29
28.90,-0.19,-0.18,-2.49,-2.47,2.42,2.56,2.72,2.23,2.24,2.30
29.19,-0.15,-0.15,-2.43,-2.44,2.39,2.54,2.76,2.24,2.24,2.28
29.48,-0.09,-0.09,-2.39,-2.39,2.37,2.52,2.78,2.28,2.27,2.30
29.78,-0.03,-0.03,-2.32,-2.33,2.35,2.50,2.81,2.31,2.31,2.29
30.08,0.02,0.00,-2.28,-2.29,2.33,2.48,2.83,2.35,2.33,2.30
30.38,0.02,0.02,-2.27,-2.27,2.31,2.46,2.85,2.33,2.33,2.29
30.68,0.01,0.02,-2.28,-2.27,2.30,2.44,2.86,2.31,2.31,2.28
30.99,0.01,0.01,-2.27,-2.27,2.28,2.42,2.87,2.29,2.29,2.28
31.30,-0.00,-0.01,-2.28,-2.29,2.26,2.40,2.88,2.26,2.25,2.28
31.61,-0.00,-0.01,-2.28,-2.28,2.24,2.38,2.88,2.23,2.23,2.28
31.93,-0.01,0.01,-2.29,-2.26,2.21,2.36,2.87,2.20,2.22,2.28
32.24,0.06,0.07,-2.20,-2.21,2.17,2.34,2.87,2.23,2.24,2.26
32.57,0.14,0.14,-2.13,-2.13,2.14,2.32,2.86,2.28,2.28,2.27
32.89,0.23,0.21,-2.04,-2.05,2.10,2.31,2.84,2.33,2.31,2.27
33.22,0.25,0.24,-2.01,-2.02,2.07,2.29,2.82,2.31,2.31,2.26
33.55,0.24,0.24,-2.01,-2.01,2.04,2.27,2.80,2.28,2.28,2.25
33.89,0.22,0.23,-2.02,-2.02,2.02,2.25,2.77,2.24,2.25,2.24
34.23,0.22,0.22,-2.03,-2.02,2.01,2.23,2.74,2.23,2.23,2.25
34.57,0.22,0.22,-2.01,-2.02,2.01,2.21,2.71,2.23,2.22,2.23
34.92,0.22,0.22,-2.01,-2.01,2.01,2.19,2.68,2.23,2.23,2.23
35.27,0.22,0.22,-2.01,-2.01,2.01,2.18,2.64,2.23,2.22,2.23
35.62,0.22,0.22,-2.00,-2.01,2.00,2.16,2.60,2.21,2.21,2.22
35.97,0.22,0.23,-2.00,-2.00,1.98,2.14,2.56,2.20,2.20,2.22
36.33,0.25,0.25,-1.98,-1.97,1.95,2.12,2.52,2.20,2.20,2.23
36.70,0.29,0.29,-1.92,-1.93,1.92,2.10,2.48,2.21,2.21,2.21
37.06,0.33,0.33,-1.88,-1.89,1.89,2.08,2.43,2.22,2.22,2.21
37.43,0.36,0.37,-1.86,-1.85,1.87,2.07,2.39,2.23,2.23,2.22
37.81,0.40,0.39,-1.82,-1.82,1.84,2.05,2.35,2.24,2.24,2.22
38.19,0.42,0.41,-1.80,-1.81,1.82,2.03,2.30,2.24,2.23,2.22
38.57,0.42,0.42,-1.80,-1.80,1.81,2.01,2.26,2.23,2.23,2.22
38.95,0.42,0.42,-1.81,-1.80,1.80,1.99,2.21,2.22,2.22,2.23
39.34,0.42,0.42,-1.80,-1.80,1.79,1.97,2.17,2.21,2.21,2.22
39.74,0.42,0.42,-1.80,-1.80,1.79,1.96,2.13,2.21,2.21,2.22
40.14,0.42,0.42,-1.80,-1.80,1.79,1.94,2.09,2.21,2.21,2.22
40.54,0.42,0.42,-1.80,-1.79,1.79,1.92,2.05,2.21,2.21,2.21
40.94,0.42,0.42,-1.79,-1.79,1.79,1.90,2.01,2.21,2.21,2.21
41.35,0.42,0.42,-1.78,-1.78,1.79,1.88,1.97,2.21,2.21,2.20
41.76,0.42,0.42,-1.78,-1.78,1.78,1.86,1.93,2.20,2.20,2.20
42.18,0.42,0.42,-1.78,-1.77,1.77,1.85,1.90,2.19,2.19,2.20
42.60,0.42,0.42,-1.76,-1.77,1.76,1.83,1.86,2.18,2.18,2.18
43.03,0.42,0.42,-1.76,-1.76,1.75,1.81,1.83,2.17,2.17,2.18
43.46,0.42,0.42,-1.75,-1.74,1.74,1.79,1.79,2.16,2.16,2.17
43.90,0.42,0.42,-1.72,-1.73,1.72,1.77,1.76,2.14,2.14,2.14
44.33,0.42,0.42,-1.70,-1.71,1.71,1.75,1.73,2.13,2.13,2.12
44.78,0.42,0.42,-1.69,-1.69,1.69,1.74,1.71,2.11,2.11,2.11
45.23,0.42,0.42,-1.68,-1.67,1.68,1.72,1.68,2.10,2.10,2.10
45.68,0.42,0.42,-1.66,-1.66,1.66,1.70,1.66,2.08,2.08,2.08
46.13,0.42,0.42,-1.64,-1.65,1.66,1.68,1.63,2.08,2.08,2.06
46.60,0.42,0.42,-1.64,-1.63,1.65,1.66,1.61,2.06,2.06,2.06
47.06,0.42,0.42,-1.62,-1.62,1.63,1.64,1.59,2.05,2.05,2.04
47.53,0.42,0.42,-1.61,-1.62,1.61,1.62,1.57,2.03,2.03,2.03
48.01,0.42,0.41,-1.61,-1.61,1.58,1.60,1.55,2.00,2.00,2.03
48.49,0.42,0.41,-1.59,-1.59,1.55,1.58,1.53,1.97,1.97,2.01
48.97,0.42,0.45,-1.57,-1.54,1.52,1.56,1.52,1.94,1.97,1.99
49.46,0.49,0.49,-1.48,-1.47,1.49,1.54,1.50,1.98,1.98,1.97
49.96,0.57,0.53,-1.38,-1.42,1.45,1.52,1.49,2.02,1.98,1.95
50.46,0.55,0.55,-1.39,-1.39,1.42,1.50,1.47,1.97,1.97,1.94
50.96,0.52,0.55,-1.41,-1.38,1.40,1.48,1.46,1.92,1.95,1.93
51.47,0.54,0.54,-1.37,-1.37,1.37,1.46,1.45,1.91,1.92,1.91
51.99,0.57,0.54,-1.33,-1.36,1.35,1.44,1.44,1.92,1.89,1.89
52.51,0.53,0.53,-1.36,-1.36,1.34,1.42,1.43,1.87,1.87,1.89
53.03,0.49,0.53,-1.40,-1.35,1.33,1.40,1.42,1.82,1.86,1.89
53.56,0.54,0.53,-1.33,-1.34,1.32,1.38,1.40,1.86,1.86,1.87
54.10,0.58,0.55,-1.28,-1.31,1.32,1.36,1.39,1.90,1.87,1.86
54.64,0.55,0.56,-1.29,-1.29,1.32,1.33,1.38,1.87,1.88,1.84
55.18,0.53,0.53,-1.30,-1.30,1.32,1.31,1.37,1.85,1.86,1.83
55.74,0.50,0.50,-1.32,-1.32,1.32,1.29,1.36,1.82,1.82,1.82
56.29,0.47,0.46,-1.34,-1.34,1.33,1.27,1.35,1.80,1.79,1.81
56.86,0.43,0.44,-1.36,-1.35,1.33,1.24,1.34,1.76,1.77,1.79
57.42,0.42,0.42,-1.34,-1.35,1.33,1.22,1.33,1.75,1.76,1.76
58.00,0.42,0.42,-1.33,-1.34,1.33,1.19,1.31,1.75,1.75,1.75
58.58,0.42,0.42,-1.32,-1.32,1.32,1.17,1.30,1.74,1.74,1.74
59.16,0.42,0.42,-1.30,-1.30,1.30,1.14,1.28,1.72,1.72,1.72
59.76,0.42,0.42,-1.28,-1.28,1.27,1.12,1.27,1.69,1.69,1.70
60.35,0.42,0.42,-1.24,-1.24,1.24,1.09,1.25,1.66,1.66,1.66
60.96,0.42,0.42,-1.21,-1.21,1.21,1.07,1.23,1.62,1.62,1.63
61.57,0.42,0.42,-1.16,-1.16,1.17,1.04,1.21,1.58,1.58,1.58
62.18,0.42,0.42,-1.12,-1.12,1.12,1.01,1.18,1.54,1.54,1.54
62.80,0.42,0.42,-1.08,-1.08,1.08,0.99,1.16,1.50,1.50,1.49
63.43,0.42,0.42,-1.03,-1.03,1.03,0.96,1.13,1.45,1.45,1.45
64.07,0.42,0.42,-0.99,-0.99,0.99,0.93,1.11,1.40,1.40,1.40
64.71,0.42,0.42,-0.94,-0.94,0.94,0.90,1.08,1.36,1.36,1.36
65.35,0.42,0.42,-0.90,-0.90,0.89,0.87,1.05,1.31,1.31,1.32
66.01,0.42,0.42,-0.85,-0.85,0.85,0.84,1.01,1.26,1.26,1.27
66.67,0.42,0.42,-0.80,-0.80,0.81,0.81,0.98,1.23,1.23,1.22
67.33,0.42,0.42,-0.75,-0.75,0.78,0.78,0.95,1.19,1.20,1.17
68.01,0.42,0.42,-0.71,-0.71,0.74,0.75,0.91,1.16,1.17,1.13
68.69,0.41,0.38,-0.67,-0.70,0.71,0.72,0.87,1.12,1.09,1.08
69.37,0.35,0.34,-0.68,-0.69,0.68,0.69,0.83,1.03,1.02,1.03
70.07,0.26,0.31,-0.72,-0.67,0.64,0.65,0.79,0.90,0.95,0.98
70.77,0.31,0.29,-0.62,-0.64,0.60,0.62,0.75,0.91,0.89,0.93
71.48,0.32,0.30,-0.56,-0.57,0.56,0.58,0.71,0.88,0.86,0.88
72.19,0.32,0.32,-0.49,-0.49,0.51,0.55,0.67,0.83,0.83,0.81
72.91,0.32,0.32,-0.44,-0.44,0.45,0.51,0.62,0.77,0.77,0.76
73.64,0.32,0.32,-0.38,-0.38,0.38,0.48,0.58,0.70,0.70,0.70
74.38,0.32,0.32,-0.32,-0.32,0.32,0.44,0.53,0.64,0.64,0.64
75.12,0.32,0.32,-0.26,-0.26,0.26,0.40,0.49,0.58,0.58,0.58
75.87,0.32,0.32,-0.21,-0.21,0.20,0.37,0.44,0.52,0.52,0.52
76.63,0.32,0.32,-0.16,-0.15,0.16,0.33,0.39,0.48,0.48,0.47
77.40,0.32,0.33,-0.10,-0.09,0.13,0.29,0.34,0.45,0.46,0.42
78.17,0.32,0.31,-0.04,-0.06,0.09,0.25,0.30,0.41,0.40,0.36
78.95,0.31,0.27,-0.02,-0.06,0.06,0.21,0.25,0.37,0.33,0.33
79.74,0.18,0.22,-0.10,-0.06,0.03,0.17,0.20,0.21,0.25,0.28
80.54,0.17,0.19,-0.06,-0.04,0.00,0.13,0.15,0.17,0.19,0.23
81.35,0.20,0.18,0.02,-0.00,-0.03,0.09,0.10,0.17,0.15,0.18
82.16,0.21,0.20,0.08,0.07,-0.07,0.04,0.05,0.14,0.14,0.13
82.98,0.21,0.21,0.11,0.12,-0.11,0.00,0.00,0.10,0.10,0.09
83.81,0.21,0.21,0.17,0.17,-0.15,-0.04,-0.05,0.05,0.06,0.04
84.65,0.21,0.21,0.22,0.21,-0.21,-0.08,-0.10,-0.00,-0.00,-0.01
85.50,0.21,0.21,0.26,0.26,-0.27,-0.13,-0.15,-0.06,-0.06,-0.05
86.35,0.21,0.21,0.31,0.31,-0.33,-0.17,-0.20,-0.12,-0.11,-0.10
87.22,0.22,0.22,0.37,0.36,-0.37,-0.22,-0.25,-0.15,-0.16,-0.15
88.09,0.22,0.22,0.42,0.42,-0.41,-0.26,-0.30,-0.19,-0.19,-0.20
88.97,0.22,0.23,0.47,0.48,-0.45,-0.31,-0.35,-0.23,-0.22,-0.25
89.86,0.22,0.22,0.52,0.52,-0.48,-0.36,-0.40,-0.26,-0.26,-0.30
90.76,0.22,0.19,0.57,0.54,-0.52,-0.40,-0.46,-0.30,-0.33,-0.35
91.66,0.14,0.14,0.53,0.54,-0.56,-0.45,-0.51,-0.43,-0.43,-0.40
92.58,0.06,0.10,0.52,0.55,-0.61,-0.50,-0.56,-0.55,-0.51,-0.46
93.51,0.08,0.08,0.58,0.58,-0.64,-0.54,-0.61,-0.56,-0.56,-0.50
94.44,0.12,0.10,0.66,0.65,-0.66,-0.59,-0.67,-0.54,-0.56,-0.55
95.39,0.12,0.14,0.71,0.74,-0.68,-0.64,-0.72,-0.56,-0.54,-0.59
96.34,0.14,0.14,0.78,0.78,-0.69,-0.69,-0.77,-0.55,-0.55,-0.65
97.30,0.14,0.07,0.83,0.76,-0.71,-0.74,-0.83,-0.57,-0.64,-0.69
98.28,-0.03,-0.02,0.71,0.72,-0.72,-0.78,-0.88,-0.75,-0.74,-0.74
99.26,-0.18,-0.11,0.60,0.68,-0.73,-0.83,-0.93,-0.92,-0.84,-0.78
100.25,-0.13,-0.16,0.70,0.66,-0.75,-0.88,-0.99,-0.88,-0.91,-0.83
101.25,-0.15,-0.16,0.72,0.71,-0.75,-0.93,-1.04,-0.91,-0.92,-0.87
102.27,-0.16,-0.15,0.76,0.77,-0.76,-0.98,-1.09,-0.92,-0.91,-0.92
103.29,-0.17,-0.18,0.80,0.79,-0.76,-1.03,-1.15,-0.94,-0.94,-0.98
104.32,-0.19,-0.18,0.82,0.83,-0.77,-1.07,-1.20,-0.97,-0.96,-1.01
105.37,-0.22,-0.21,0.84,0.85,-0.79,-1.12,-1.25,-1.01,-1.00,-1.06
106.42,-0.24,-0.28,0.86,0.82,-0.80,-1.17,-1.30,-1.04,-1.08,-1.10
107.48,-0.37,-0.38,0.79,0.78,-0.81,-1.22,-1.35,-1.18,-1.19,-1.16
108.56,-0.50,-0.45,0.72,0.76,-0.82,-1.27,-1.40,-1.32,-1.27,-1.22
109.64,-0.50,-0.49,0.76,0.77,-0.83,-1.31,-1.45,-1.33,-1.32,-1.26
110.74,-0.45,-0.48,0.87,0.83,-0.86,-1.36,-1.50,-1.31,-1.34,-1.32
111.85,-0.45,-0.46,0.90,0.91,-0.89,-1.41,-1.55,-1.34,-1.35,-1.35
112.97,-0.46,-0.45,0.96,0.96,-0.93,-1.45,-1.59,-1.39,-1.38,-1.42
114.10,-0.46,-0.46,1.00,1.00,-0.97,-1.50,-1.63,-1.43,-1.44,-1.47
115.24,-0.47,-0.47,1.04,1.05,-1.02,-1.54,-1.67,-1.49,-1.49,-1.51
116.39,-0.46,-0.46,1.10,1.10,-1.08,-1.59,-1.71,-1.54,-1.54,-1.56
117.55,-0.46,-0.46,1.14,1.14,-1.14,-1.63,-1.75,-1.60,-1.60,-1.60
118.73,-0.46,-0.49,1.18,1.15,-1.21,-1.68,-1.79,-1.67,-1.70,-1.64
119.92,-0.46,-0.49,1.20,1.19,-1.27,-1.72,-1.82,-1.73,-1.76,-1.67
121.12,-0.53,-0.41,1.18,1.30,-1.33,-1.76,-1.85,-1.86,-1.74,-1.71
122.33,-0.27,-0.30,1.47,1.44,-1.40,-1.81,-1.87,-1.67,-1.70,-1.74
123.55,-0.11,-0.21,1.65,1.56,-1.46,-1.85,-1.90,-1.58,-1.67,-1.76
124.79,-0.19,-0.18,1.60,1.61,-1.53,-1.89,-1.92,-1.72,-1.71,-1.79
126.03,-0.26,-0.24,1.56,1.58,-1.59,-1.93,-1.94,-1.85,-1.83,-1.82
127.29,-0.30,-0.25,1.54,1.60,-1.65,-1.97,-1.96,-1.95,-1.90,-1.84
128.57,-0.20,-0.20,1.68,1.68,-1.72,-2.01,-1.97,-1.92,-1.92,-1.88
129.85,-0.09,-0.15,1.82,1.76,-1.79,-2.04,-1.99,-1.88,-1.94,-1.91
131.15,-0.10,-0.13,1.84,1.81,-1.86,-2.08,-2.00,-1.96,-1.99,-1.94
132.46,-0.16,-0.07,1.81,1.90,-1.92,-2.12,-2.00,-2.08,-1.99,-1.97
133.79,-0.04,0.01,1.95,2.00,-1.99,-2.15,-2.01,-2.03,-1.98,-1.99
135.12,0.22,0.10,2.25,2.13,-2.06,-2.19,-2.01,-1.84,-1.96,-2.03
136.48,0.16,0.17,2.20,2.22,-2.13,-2.22,-2.02,-1.97,-1.96,-2.05
137.84,0.13,0.15,2.21,2.23,-2.19,-2.25,-2.02,-2.06,-2.04,-2.08
139.22,0.09,0.07,2.20,2.18,-2.25,-2.28,-2.02,-2.16,-2.18,-2.11
140.61,0.05,0.06,2.20,2.20,-2.30,-2.32,-2.02,-2.25,-2.25,-2.15
142.02,0.04,0.12,2.20,2.28,-2.34,-2.35,-2.02,-2.30,-2.22,-2.16
143.44,0.22,0.19,2.41,2.38,-2.36,-2.38,-2.01,-2.14,-2.17,-2.19
144.87,0.32,0.24,2.55,2.47,-2.38,-2.40,-2.01,-2.06,-2.14,-2.23
146.32,0.20,0.22,2.47,2.49,-2.40,-2.43,-2.01,-2.20,-2.18,-2.27
147.78,0.12,0.13,2.42,2.44,-2.42,-2.46,-2.00,-2.30,-2.29,-2.30
149.26,0.02,0.03,2.36,2.39,-2.43,-2.48,-2.00,-2.41,-2.40,-2.35
150.75,-0.02,-0.03,2.39,2.38,-2.43,-2.51,-2.00,-2.45,-2.46,-2.41
152.26,-0.09,-0.09,2.39,2.39,-2.41,-2.53,-1.99,-2.50,-2.50,-2.48
153.78,-0.15,-0.13,2.39,2.41,-2.39,-2.56,-1.99,-2.54,-2.52,-2.55
155.32,-0.20,-0.22,2.42,2.40,-2.38,-2.58,-1.99,-2.58,-2.59,-2.62
156.88,-0.27,-0.32,2.42,2.37,-2.38,-2.60,-1.99,-2.65,-2.70,-2.69
158.44,-0.47,-0.41,2.31,2.36,-2.39,-2.62,-1.99,-2.86,-2.80,-2.78
160.03,-0.51,-0.48,2.35,2.37,-2.40,-2.64,-1.99,-2.91,-2.89,-2.86
161.63,-0.48,-0.53,2.45,2.40,-2.41,-2.66,-1.99,-2.89,-2.94,-2.93
163.24,-0.53,-0.53,2.46,2.46,-2.42,-2.68,-2.00,-2.95,-2.95,-2.99
164.88,-0.57,-0.55,2.47,2.49,-2.44,-2.69,-2.00,-3.01,-2.99,-3.04
166.53,-0.58,-0.62,2.51,2.47,-2.48,-2.71,-2.01,-3.06,-3.10,-3.09
168.19,-0.65,-0.65,2.48,2.48,-2.52,-2.72,-2.02,-3.18,-3.17,-3.13
169.87,-0.71,-0.63,2.46,2.53,-2.58,-2.74,-2.03,-3.29,-3.21,-3.17
171.57,-0.54,-0.61,2.64,2.58,-2.64,-2.75,-2.04,-3.18,-3.24,-3.18
173.29,-0.50,-0.53,2.70,2.67,-2.69,-2.77,-2.05,-3.19,-3.21,-3.20
175.02,-0.51,-0.42,2.69,2.79,-2.73,-2.78,-2.07,-3.24,-3.15,-3.20
176.77,-0.32,-0.37,2.90,2.85,-2.78,-2.79,-2.08,-3.10,-3.15,-3.22
178.54,-0.29,-0.34,2.93,2.88,-2.82,-2.80,-2.10,-3.11,-3.16,-3.22
180.32,-0.37,-0.34,2.85,2.88,-2.84,-2.82,-2.12,-3.22,-3.18,-3.22
182.13,-0.40,-0.38,2.81,2.83,-2.87,-2.83,-2.14,-3.27,-3.25,-3.21
183.95,-0.39,-0.40,2.83,2.82,-2.88,-2.84,-2.17,-3.27,-3.28,-3.22
185.79,-0.38,-0.38,2.84,2.84,-2.89,-2.85,-2.19,-3.27,-3.27,-3.22
187.65,-0.36,-0.37,2.88,2.87,-2.89,-2.85,-2.22,-3.25,-3.26,-3.24
189.52,-0.35,-0.35,2.90,2.90,-2.89,-2.86,-2.25,-3.24,-3.24,-3.25
191.42,-0.34,-0.32,2.93,2.95,-2.90,-2.87,-2.28,-3.24,-3.22,-3.27
193.33,-0.32,-0.33,2.97,2.96,-2.91,-2.88,-2.31,-3.23,-3.24,-3.29
195.27,-0.32,-0.37,2.99,2.94,-2.93,-2.89,-2.34,-3.25,-3.30,-3.31
197.22,-0.45,-0.42,2.88,2.91,-2.95,-2.89,-2.37,-3.40,-3.37,-3.33
199.19,-0.49,-0.44,2.86,2.91,-2.97,-2.90,-2.40,-3.46,-3.41,-3.35
201.18,-0.41,-0.43,2.96,2.94,-2.99,-2.91,-2.44,-3.40,-3.42,-3.37
203.19,-0.37,-0.39,3.02,3.00,-3.00,-2.91,-2.47,-3.37,-3.39,-3.39
205.23,-0.37,-0.37,3.04,3.04,-3.00,-2.92,-2.51,-3.37,-3.37,-3.41
207.28,-0.37,-0.36,3.05,3.07,-3.01,-2.92,-2.54,-3.38,-3.37,-3.42
209.35,-0.37,-0.36,3.07,3.08,-3.03,-2.92,-2.58,-3.40,-3.39,-3.44
211.44,-0.37,-0.42,3.11,3.04,-3.05,-2.92,-2.62,-3.42,-3.47,-3.48
213.56,-0.48,-0.50,3.00,2.99,-3.05,-2.92,-2.65,-3.53,-3.55,-3.48
215.69,-0.62,-0.54,2.87,2.95,-3.03,-2.92,-2.68,-3.65,-3.58,-3.49
217.85,-0.54,-0.50,2.97,3.01,-3.00,-2.91,-2.72,-3.54,-3.50,-3.51
220.03,-0.43,-0.46,3.09,3.07,-2.98,-2.90,-2.75,-3.41,-3.43,-3.52
222.23,-0.35,-0.50,3.19,3.03,-2.95,-2.89,-2.78,-3.30,-3.45,-3.54
224.45,-0.66,-0.61,2.87,2.93,-2.92,-2.87,-2.81,-3.58,-3.53,-3.53
226.70,-0.84,-0.71,2.69,2.82,-2.89,-2.85,-2.83,-3.73,-3.60,-3.53
228.96,-0.70,-0.76,2.82,2.76,-2.86,-2.83,-2.85,-3.56,-3.62,-3.52
231.25,-0.68,-0.69,2.83,2.83,-2.82,-2.80,-2.87,-3.50,-3.51,-3.51
233.57,-0.67,-0.67,2.83,2.84,-2.77,-2.77,-2.89,-3.44,-3.44,-3.50
235.90,-0.66,-0.74,2.83,2.76,-2.73,-2.74,-2.90,-3.39,-3.47,-3.49
238.26,-0.86,-0.79,2.62,2.69,-2.70,-2.71,-2.91,-3.56,-3.49,-3.48
240.64,-0.86,-0.80,2.60,2.66,-2.68,-2.67,-2.92,-3.54,-3.47,-3.46
243.05,-0.75,-0.79,2.68,2.65,-2.66,-2.64,-2.92,-3.41,-3.45,-3.43
245.48,-0.69,-0.78,2.72,2.63,-2.64,-2.60,-2.91,-3.33,-3.42,-3.41
247.93,-0.84,-0.79,2.54,2.59,-2.60,-2.56,-2.91,-3.44,-3.40,-3.38
250.41,-0.89,-0.81,2.47,2.55,-2.57,-2.52,-2.89,-3.46,-3.39,-3.37
252.92,-0.74,-0.78,2.59,2.55,-2.55,-2.48,-2.87,-3.29,-3.34,-3.33
255.45,-0.72,-0.73,2.59,2.58,-2.53,-2.44,-2.85,-3.25,-3.26,-3.31
258.00,-0.71,-0.76,2.58,2.53,-2.49,-2.40,-2.83,-3.20,-3.25,-3.29
260.58,-0.84,-0.84,2.43,2.43,-2.44,-2.36,-2.79,-3.28,-3.28,-3.27
263.19,-0.97,-0.87,2.27,2.38,-2.39,-2.32,-2.76,-3.36,-3.26,-3.24
265.82,-0.86,-0.87,2.37,2.35,-2.34,-2.28,-2.72,-3.20,-3.21,-3.23
268.48,-0.82,-0.91,2.38,2.29,-2.29,-2.24,-2.68,-3.11,-3.20,-3.20
271.16,-0.93,-0.96,2.24,2.22,-2.24,-2.19,-2.63,-3.17,-3.20,-3.17
273.87,-1.15,-1.02,2.00,2.13,-2.18,-2.15,-2.58,-3.33,-3.20,-3.15
276.61,-1.02,-1.04,2.10,2.09,-2.12,-2.11,-2.52,-3.14,-3.16,-3.12
279.38,-0.95,-1.01,2.14,2.08,-2.05,-2.06,-2.46,-3.00,-3.06,-3.10
282.17,-0.99,-0.97,2.08,2.10,-1.98,-2.01,-2.40,-2.97,-2.95,-3.07
284.99,-1.06,-1.06,1.97,1.98,-1.92,-1.97,-2.34,-2.98,-2.98,-3.04
287.84,-1.10,-1.20,1.92,1.82,-1.87,-1.92,-2.28,-2.97,-3.07,-3.02
290.72,-1.39,-1.28,1.59,1.71,-1.81,-1.87,-2.21,-3.20,-3.09,-2.99
293.63,-1.36,-1.31,1.60,1.65,-1.73,-1.82,-2.14,-3.09,-3.04,-2.96
296.57,-1.20,-1.29,1.72,1.64,-1.65,-1.77,-2.08,-2.85,-2.94,-2.92
299.53,-1.23,-1.22,1.67,1.68,-1.56,-1.72,-2.00,-2.79,-2.78,-2.90
302.53,-1.27,-1.26,1.61,1.61,-1.49,-1.67,-1.93,-2.76,-2.75,-2.88
305.55,-1.32,-1.41,1.51,1.44,-1.44,-1.61,-1.86,-2.76,-2.85,-2.84
308.61,-1.56,-1.51,1.26,1.30,-1.39,-1.56,-1.79,-2.95,-2.91,-2.82
311.69,-1.67,-1.56,1.12,1.23,-1.34,-1.50,-1.72,-3.01,-2.90,-2.79
314.81,-1.49,-1.55,1.28,1.22,-1.27,-1.44,-1.64,-2.76,-2.82,-2.77
317.96,-1.46,-1.51,1.29,1.25,-1.20,-1.39,-1.57,-2.66,-2.71,-2.75
321.14,-1.51,-1.51,1.23,1.22,-1.13,-1.33,-1.50,-2.64,-2.64,-2.74
324.35,-1.63,-1.61,1.09,1.12,-1.07,-1.27,-1.43,-2.70,-2.67,-2.73
327.59,-1.70,-1.70,1.01,1.01,-1.00,-1.20,-1.35,-2.71,-2.71,-2.71
330.87,-1.79,-1.78,0.91,0.91,-0.93,-1.14,-1.28,-2.72,-2.71,-2.70
334.18,-1.85,-1.85,0.83,0.83,-0.84,-1.08,-1.21,-2.69,-2.69,-2.68
337.52,-1.91,-1.92,0.77,0.75,-0.76,-1.01,-1.14,-2.67,-2.68,-2.68
340.90,-1.99,-1.98,0.67,0.68,-0.69,-0.95,-1.07,-2.68,-2.67,-2.66
344.30,-2.04,-2.05,0.61,0.60,-0.64,-0.88,-1.00,-2.68,-2.69,-2.65
347.75,-2.10,-2.13,0.55,0.52,-0.61,-0.82,-0.93,-2.71,-2.73,-2.65
351.23,-2.17,-2.13,0.48,0.51,-0.56,-0.75,-0.86,-2.74,-2.70,-2.65
354.74,-2.16,-2.08,0.49,0.57,-0.52,-0.68,-0.79,-2.68,-2.60,-2.65
358.28,-1.98,-2.06,0.66,0.58,-0.47,-0.61,-0.73,-2.45,-2.53,-2.64
361.87,-2.01,-2.12,0.63,0.52,-0.43,-0.54,-0.66,-2.44,-2.55,-2.64
365.49,-2.31,-2.23,0.32,0.41,-0.39,-0.48,-0.59,-2.70,-2.62,-2.63
369.14,-2.45,-2.37,0.20,0.28,-0.35,-0.41,-0.53,-2.81,-2.72,-2.65
372.83,-2.38,-2.47,0.27,0.18,-0.30,-0.34,-0.46,-2.68,-2.77,-2.65
376.56,-2.47,-2.46,0.18,0.18,-0.23,-0.27,-0.40,-2.70,-2.69,-2.65
380.33,-2.52,-2.44,0.12,0.20,-0.15,-0.20,-0.33,-2.67,-2.59,-2.64
384.13,-2.42,-2.47,0.22,0.18,-0.07,-0.13,-0.27,-2.49,-2.54,-2.64
387.97,-2.49,-2.57,0.16,0.08,-0.01,-0.07,-0.21,-2.50,-2.58,-2.65
391.85,-2.73,-2.72,-0.06,-0.06,0.06,-0.00,-0.15,-2.68,-2.67,-2.67
395.77,-2.97,-2.85,-0.31,-0.19,0.12,0.06,-0.08,-2.85,-2.74,-2.66
399.73,-2.91,-2.91,-0.24,-0.24,0.18,0.13,-0.02,-2.73,-2.73,-2.67
403.72,-2.85,-2.94,-0.18,-0.27,0.24,0.19,0.03,-2.61,-2.69,-2.67
407.76,-2.95,-2.98,-0.27,-0.30,0.30,0.25,0.09,-2.65,-2.67,-2.68
411.84,-3.11,-3.03,-0.43,-0.35,0.36,0.30,0.15,-2.75,-2.67,-2.68
415.96,-3.11,-3.07,-0.43,-0.39,0.40,0.36,0.20,-2.71,-2.68,-2.68
420.12,-3.00,-3.10,-0.32,-0.41,0.44,0.41,0.26,-2.56,-2.66,-2.69
424.32,-3.14,-3.13,-0.45,-0.44,0.49,0.46,0.31,-2.66,-2.64,-2.69
428.56,-3.23,-3.19,-0.55,-0.51,0.54,0.50,0.36,-2.69,-2.66,-2.68
432.85,-3.26,-3.27,-0.59,-0.60,0.59,0.55,0.41,-2.67,-2.68,-2.67
437.18,-3.30,-3.31,-0.64,-0.66,0.64,0.58,0.46,-2.66,-2.67,-2.66
441.55,-3.33,-3.33,-0.71,-0.70,0.68,0.62,0.50,-2.65,-2.65,-2.62
445.96,-3.33,-3.32,-0.74,-0.73,0.70,0.65,0.54,-2.63,-2.62,-2.59
450.42,-3.29,-3.29,-0.73,-0.73,0.71,0.68,0.58,-2.58,-2.57,-2.56
454.93,-3.23,-3.24,-0.72,-0.73,0.71,0.70,0.62,-2.52,-2.54,-2.51
459.48,-3.17,-3.19,-0.71,-0.73,0.69,0.72,0.66,-2.48,-2.50,-2.46
464.07,-3.14,-3.08,-0.73,-0.67,0.68,0.73,0.69,-2.46,-2.41,-2.42
468.71,-3.00,-2.99,-0.64,-0.62,0.66,0.74,0.72,-2.34,-2.32,-2.36
473.40,-2.81,-2.91,-0.49,-0.60,0.65,0.75,0.74,-2.16,-2.26,-2.32
478.13,-2.90,-2.87,-0.64,-0.60,0.64,0.75,0.76,-2.26,-2.22,-2.26
482.91,-2.89,-2.86,-0.67,-0.64,0.64,0.74,0.78,-2.25,-2.22,-2.22
