frequency,raw,error,smoothed,error_smoothed,equalization,parametric_eq,fixed_band_eq,equalized_raw,equalized_smoothed,target
20.00,-3.05,-7.40,-3.06,-7.41,6.00,6.23,2.65,2.95,2.94,4.35
20.20,-3.00,-7.33,-2.99,-7.32,6.00,6.22,2.73,3.00,3.01,4.33
20.40,-2.94,-7.25,-2.93,-7.24,6.00,6.21,2.81,3.06,3.07,4.30
20.61,-2.89,-7.19,-2.88,-7.18,6.00,6.19,2.89,3.11,3.12,4.29
20.81,-2.84,-7.11,-2.84,-7.11,6.00,6.18,2.97,3.16,3.16,4.27
21.02,-2.79,-7.05,-2.81,-7.07,6.00,6.17,3.06,3.21,3.19,4.26
21.23,-2.82,-7.06,-2.81,-7.06,6.00,6.16,3.14,3.18,3.19,4.24
21.44,-2.84,-7.07,-2.84,-7.07,6.00,6.15,3.24,3.16,3.16,4.23
21.66,-2.87,-7.09,-2.88,-7.10,6.00,6.14,3.33,3.13,3.12,4.22
21.87,-2.90,-7.10,-2.89,-7.10,6.00,6.13,3.42,3.10,3.11,4.20
22.09,-2.89,-7.08,-2.88,-7.07,6.00,6.11,3.52,3.11,3.12,4.19
22.31,-2.83,-7.01,-2.84,-7.02,6.00,6.10,3.62,3.17,3.16,4.18
22.54,-2.77,-6.94,-2.77,-6.94,6.00,6.09,3.72,3.23,3.23,4.17
22.76,-2.71,-6.87,-2.71,-6.87,6.00,6.08,3.83,3.29,3.29,4.16
22.99,-2.65,-6.80,-2.67,-6.82,6.00,6.07,3.94,3.35,3.33,4.15
23.22,-2.65,-6.79,-2.65,-6.79,6.00,6.06,4.05,3.35,3.35,4.14
23.45,-2.66,-6.80,-2.66,-6.79,6.00,6.05,4.16,3.34,3.34,4.14
23.69,-2.66,-6.79,-2.67,-6.80,6.00,6.04,4.28,3.34,3.33,4.13
23.92,-2.67,-6.80,-2.66,-6.78,6.00,6.02,4.40,3.33,3.34,4.12
24.16,-2.63,-6.76,-2.63,-6.75,6.00,6.01,4.52,3.37,3.37,4.12
24.40,-2.58,-6.70,-2.58,-6.70,6.00,6.00,4.64,3.42,3.42,4.12
24.65,-2.52,-6.64,-2.52,-6.64,6.00,5.99,4.77,3.48,3.48,4.12
24.89,-2.46,-6.58,-2.47,-6.59,6.00,5.99,4.89,3.54,3.53,4.12
25.14,-2.43,-6.55,-2.43,-6.55,6.00,5.98,5.02,3.57,3.57,4.12
25.39,-2.40,-6.52,-2.40,-6.52,6.00,5.97,5.15,3.60,3.60,4.12
25.65,-2.37,-6.49,-2.37,-6.50,6.00,5.96,5.28,3.63,3.63,4.12
25.91,-2.35,-6.48,-2.35,-6.47,6.00,5.95,5.41,3.65,3.65,4.13
26.16,-2.32,-6.45,-2.32,-6.45,6.00,5.95,5.54,3.68,3.68,4.13
26.43,-2.30,-6.43,-2.30,-6.43,6.00,5.94,5.67,3.70,3.70,4.12
26.69,-2.27,-6.40,-2.27,-6.40,6.00,5.94,5.79,3.73,3.73,4.12
26.96,-2.24,-6.36,-2.24,-6.36,6.00,5.94,5.92,3.76,3.76,4.12
27.23,-2.21,-6.33,-2.21,-6.33,6.00,5.94,6.04,3.79,3.79,4.12
27.50,-2.17,-6.29,-2.17,-6.29,6.00,5.94,6.17,3.83,3.83,4.12
27.77,-2.14,-6.26,-2.14,-6.26,6.00,5.94,6.28,3.86,3.86,4.12
28.05,-2.11,-6.23,-2.11,-6.23,6.00,5.95,6.40,3.89,3.89,4.12
28.33,-2.09,-6.20,-2.09,-6.20,6.00,5.96,6.50,3.91,3.91,4.11
28.62,-2.07,-6.18,-2.07,-6.18,6.00,5.97,6.61,3.93,3.93,4.10
28.90,-2.05,-6.15,-2.05,-6.15,6.00,5.98,6.70,3.95,3.95,4.10
29.19,-2.01,-6.11,-2.00,-6.10,6.00,6.00,6.79,3.99,3.99,4.10
29.48,-1.95,-6.05,-1.95,-6.05,6.00,6.01,6.87,4.05,4.05,4.10
29.78,-1.90,-6.00,-1.90,-6.00,6.01,6.03,6.94,4.11,4.10,4.10
30.08,-1.87,-5.97,-1.89,-5.99,6.01,6.05,7.00,4.14,4.12,4.10
30.38,-1.92,-6.01,-1.93,-6.02,6.01,6.07,7.05,4.08,4.08,4.09
30.68,-1.97,-6.05,-1.97,-6.05,5.99,6.07,7.09,4.02,4.02,4.08
30.99,-2.02,-6.10,-1.99,-6.06,5.97,6.08,7.12,3.95,3.99,4.08
31.30,-1.95,-6.02,-1.95,-6.02,5.95,6.06,7.14,4.00,4.00,4.07
31.61,-1.88,-5.95,-1.89,-5.96,5.92,6.05,7.15,4.04,4.03,4.06
31.93,-1.81,-5.88,-1.82,-5.88,5.90,6.01,7.14,4.09,4.08,4.06
32.24,-1.78,-5.83,-1.78,-5.83,5.88,5.97,7.13,4.10,4.10,4.05
32.57,-1.76,-5.81,-1.76,-5.81,5.86,5.93,7.10,4.10,4.10,4.05
32.89,-1.75,-5.80,-1.75,-5.80,5.84,5.88,7.07,4.09,4.09,4.05
33.22,-1.76,-5.80,-1.77,-5.81,5.81,5.82,7.03,4.05,4.04,4.04
33.55,-1.78,-5.82,-1.79,-5.83,5.78,5.77,6.98,4.00,3.99,4.04
33.89,-1.81,-5.86,-1.79,-5.83,5.75,5.72,6.91,3.94,3.96,4.05
34.23,-1.75,-5.80,-1.73,-5.78,5.72,5.66,6.85,3.97,3.99,4.04
34.57,-1.64,-5.68,-1.65,-5.69,5.70,5.62,6.78,4.06,4.05,4.04
34.92,-1.54,-5.59,-1.57,-5.61,5.67,5.57,6.70,4.13,4.11,4.05
35.27,-1.52,-5.57,-1.52,-5.57,5.65,5.53,6.61,4.13,4.13,4.04
35.62,-1.53,-5.58,-1.52,-5.57,5.63,5.49,6.53,4.10,4.11,4.05
35.97,-1.54,-5.59,-1.55,-5.59,5.60,5.45,6.44,4.06,4.06,4.05
36.33,-1.57,-5.61,-1.58,-5.63,5.58,5.42,6.35,4.00,3.99,4.04
36.70,-1.60,-5.64,-1.60,-5.63,5.55,5.38,6.25,3.95,3.95,4.04
37.06,-1.60,-5.64,-1.56,-5.59,5.52,5.35,6.16,3.92,3.96,4.03
37.43,-1.48,-5.50,-1.48,-5.51,5.49,5.32,6.06,4.01,4.01,4.02
37.81,-1.37,-5.39,-1.40,-5.41,5.45,5.29,5.97,4.08,4.06,4.02
38.19,-1.32,-5.32,-1.34,-5.34,5.41,5.26,5.88,4.09,4.08,4.00
38.57,-1.33,-5.32,-1.32,-5.31,5.37,5.23,5.78,4.04,4.05,3.99
38.95,-1.34,-5.31,-1.34,-5.31,5.33,5.20,5.69,3.99,3.99,3.97
39.34,-1.35,-5.31,-1.35,-5.31,5.29,5.17,5.60,3.94,3.94,3.96
39.74,-1.35,-5.30,-1.35,-5.30,5.26,5.15,5.52,3.91,3.90,3.95
40.14,-1.34,-5.28,-1.34,-5.27,5.22,5.12,5.43,3.88,3.88,3.94
40.54,-1.30,-5.22,-1.30,-5.23,5.18,5.09,5.35,3.88,3.88,3.92
40.94,-1.25,-5.17,-1.24,-5.16,5.14,5.07,5.27,3.89,3.90,3.92
41.35,-1.18,-5.09,-1.17,-5.08,5.11,5.04,5.20,3.92,3.93,3.91
41.76,-1.10,-4.99,-1.12,-5.01,5.07,5.02,5.13,3.97,3.96,3.89
42.18,-1.07,-4.96,-1.09,-4.98,5.04,4.99,5.06,3.97,3.95,3.89
42.60,-1.11,-5.00,-1.10,-4.99,5.02,4.97,4.99,3.91,3.92,3.89
43.03,-1.14,-5.02,-1.14,-5.02,5.01,4.94,4.93,3.87,3.87,3.88
43.46,-1.16,-5.04,-1.17,-5.05,5.00,4.92,4.87,3.84,3.84,3.88
43.90,-1.18,-5.06,-1.16,-5.04,5.00,4.89,4.82,3.82,3.83,3.88
44.33,-1.14,-5.01,-1.14,-5.01,4.99,4.87,4.77,3.84,3.85,3.87
44.78,-1.09,-4.95,-1.10,-4.97,4.96,4.84,4.72,3.87,3.86,3.86
45.23,-1.06,-4.93,-1.07,-4.93,4.93,4.81,4.68,3.87,3.86,3.86
45.68,-1.05,-4.91,-1.04,-4.90,4.89,4.79,4.64,3.84,3.84,3.86
46.13,-1.02,-4.87,-1.00,-4.85,4.85,4.76,4.61,3.83,3.85,3.85
46.60,-0.95,-4.79,-0.95,-4.79,4.82,4.74,4.57,3.87,3.87,3.84
47.06,-0.89,-4.72,-0.92,-4.75,4.80,4.71,4.55,3.91,3.88,3.83
47.53,-0.92,-4.74,-0.91,-4.73,4.78,4.68,4.52,3.85,3.86,3.82
48.01,-0.94,-4.75,-0.95,-4.75,4.75,4.66,4.50,3.81,3.80,3.81
48.49,-0.98,-4.77,-0.99,-4.78,4.73,4.63,4.48,3.75,3.74,3.79
48.97,-1.02,-4.80,-0.98,-4.75,4.70,4.60,4.46,3.68,3.72,3.78
49.46,-0.94,-4.71,-0.94,-4.70,4.67,4.57,4.45,3.72,3.73,3.76
49.96,-0.85,-4.59,-0.89,-4.64,4.62,4.55,4.44,3.77,3.73,3.74
50.46,-0.84,-4.57,-0.85,-4.58,4.58,4.52,4.43,3.74,3.73,3.73
50.96,-0.84,-4.56,-0.80,-4.52,4.54,4.49,4.42,3.70,3.74,3.72
51.47,-0.76,-4.47,-0.76,-4.46,4.50,4.46,4.41,3.73,3.74,3.70
51.99,-0.67,-4.36,-0.72,-4.41,4.46,4.43,4.41,3.79,3.74,3.69
52.51,-0.71,-4.39,-0.71,-4.38,4.42,4.40,4.41,3.71,3.72,3.68
53.03,-0.74,-4.40,-0.75,-4.41,4.40,4.37,4.41,3.66,3.65,3.66
53.56,-0.79,-4.44,-0.78,-4.43,4.37,4.34,4.41,3.58,3.59,3.65
54.10,-0.80,-4.43,-0.76,-4.39,4.35,4.31,4.40,3.55,3.59,3.63
54.64,-0.70,-4.32,-0.72,-4.33,4.32,4.28,4.40,3.61,3.60,3.62
55.18,-0.63,-4.23,-0.66,-4.26,4.28,4.25,4.40,3.64,3.62,3.60
55.74,-0.63,-4.21,-0.63,-4.22,4.23,4.21,4.40,3.60,3.60,3.58
56.29,-0.63,-4.20,-0.63,-4.19,4.18,4.18,4.40,3.55,3.55,3.57
56.86,-0.63,-4.18,-0.60,-4.14,4.14,4.15,4.39,3.51,3.54,3.55
57.42,-0.55,-4.08,-0.54,-4.08,4.10,4.11,4.38,3.55,3.56,3.53
58.00,-0.45,-3.97,-0.50,-4.02,4.06,4.08,4.37,3.61,3.56,3.52
58.58,-0.50,-4.00,-0.50,-4.00,4.03,4.04,4.36,3.53,3.53,3.50
59.16,-0.54,-4.02,-0.54,-4.02,4.00,4.01,4.35,3.46,3.46,3.48
59.76,-0.59,-4.05,-0.56,-4.02,3.96,3.97,4.33,3.37,3.40,3.46
60.35,-0.55,-3.99,-0.53,-3.97,3.92,3.93,4.31,3.37,3.40,3.44
60.96,-0.44,-3.86,-0.48,-3.90,3.89,3.90,4.28,3.45,3.41,3.41
61.57,-0.43,-3.82,-0.44,-3.83,3.86,3.86,4.25,3.43,3.42,3.39
62.18,-0.43,-3.80,-0.42,-3.78,3.83,3.82,4.21,3.39,3.40,3.37
62.80,-0.43,-3.76,-0.43,-3.77,3.79,3.78,4.17,3.36,3.36,3.33
63.43,-0.43,-3.74,-0.43,-3.74,3.75,3.74,4.13,3.32,3.32,3.31
64.07,-0.43,-3.71,-0.43,-3.71,3.71,3.70,4.08,3.27,3.27,3.28
64.71,-0.43,-3.68,-0.44,-3.69,3.66,3.66,4.03,3.23,3.22,3.24
65.35,-0.43,-3.65,-0.43,-3.65,3.61,3.61,3.98,3.18,3.18,3.22
66.01,-0.43,-3.61,-0.41,-3.59,3.56,3.57,3.91,3.13,3.15,3.18
66.67,-0.36,-3.51,-0.36,-3.51,3.50,3.53,3.85,3.13,3.13,3.15
67.33,-0.30,-3.41,-0.30,-3.42,3.43,3.48,3.78,3.13,3.13,3.11
68.01,-0.24,-3.32,-0.25,-3.33,3.37,3.44,3.71,3.13,3.11,3.08
68.69,-0.23,-3.27,-0.23,-3.27,3.30,3.39,3.64,3.07,3.07,3.04
69.37,-0.23,-3.24,-0.23,-3.23,3.24,3.34,3.56,3.01,3.02,3.01
70.07,-0.23,-3.20,-0.23,-3.20,3.19,3.29,3.48,2.96,2.96,2.96
70.77,-0.23,-3.16,-0.23,-3.16,3.15,3.25,3.40,2.92,2.92,2.93
71.48,-0.23,-3.13,-0.23,-3.12,3.12,3.20,3.32,2.89,2.89,2.90
72.19,-0.23,-3.08,-0.23,-3.08,3.09,3.15,3.23,2.86,2.86,2.85
72.91,-0.23,-3.05,-0.23,-3.05,3.07,3.10,3.14,2.83,2.84,2.81
73.64,-0.23,-3.01,-0.24,-3.01,3.03,3.04,3.06,2.80,2.79,2.78
74.38,-0.25,-2.99,-0.26,-3.00,2.98,2.99,2.97,2.73,2.72,2.74
75.12,-0.27,-2.96,-0.27,-2.97,2.93,2.94,2.88,2.66,2.66,2.69
75.87,-0.29,-2.94,-0.25,-2.90,2.86,2.88,2.79,2.57,2.61,2.65
76.63,-0.19,-2.80,-0.21,-2.82,2.79,2.83,2.70,2.60,2.58,2.61
77.40,-0.13,-2.70,-0.15,-2.72,2.72,2.77,2.61,2.58,2.57,2.57
78.17,-0.11,-2.64,-0.08,-2.61,2.64,2.72,2.53,2.53,2.56,2.53
78.95,-0.02,-2.51,-0.04,-2.52,2.56,2.66,2.44,2.54,2.52,2.49
79.74,-0.00,-2.44,-0.01,-2.46,2.49,2.60,2.35,2.49,2.47,2.44
80.54,-0.01,-2.41,-0.01,-2.41,2.42,2.54,2.26,2.41,2.42,2.40
81.35,-0.03,-2.39,-0.02,-2.38,2.37,2.48,2.18,2.34,2.35,2.35
82.16,-0.03,-2.34,-0.03,-2.34,2.33,2.42,2.09,2.30,2.30,2.31
82.98,-0.03,-2.29,-0.03,-2.29,2.29,2.36,2.01,2.26,2.26,2.26
83.81,-0.03,-2.25,-0.03,-2.24,2.25,2.30,1.92,2.22,2.22,2.21
84.65,-0.03,-2.20,-0.04,-2.21,2.20,2.24,1.84,2.17,2.16,2.17
85.50,-0.05,-2.16,-0.07,-2.18,2.15,2.17,1.76,2.10,2.08,2.11
86.35,-0.08,-2.14,-0.06,-2.12,2.08,2.11,1.68,2.00,2.03,2.06
87.22,-0.06,-2.07,-0.03,-2.04,2.02,2.05,1.60,1.95,1.99,2.01
88.09,0.07,-1.89,0.02,-1.94,1.94,1.98,1.52,2.01,1.97,1.96
88.97,0.07,-1.84,0.06,-1.84,1.87,1.92,1.45,1.94,1.94,1.91
89.86,0.07,-1.78,0.08,-1.77,1.80,1.85,1.37,1.87,1.88,1.85
90.76,0.07,-1.73,0.07,-1.72,1.73,1.78,1.30,1.79,1.80,1.79
91.66,0.08,-1.65,0.08,-1.66,1.66,1.72,1.23,1.73,1.73,1.73
92.58,0.08,-1.60,0.08,-1.60,1.59,1.65,1.15,1.67,1.67,1.68
93.51,0.08,-1.54,0.08,-1.53,1.53,1.58,1.08,1.61,1.61,1.62
94.44,0.08,-1.47,0.08,-1.48,1.47,1.51,1.01,1.55,1.55,1.55
95.39,0.08,-1.41,0.08,-1.41,1.41,1.44,0.94,1.49,1.49,1.49
96.34,0.07,-1.35,0.07,-1.35,1.35,1.38,0.87,1.42,1.43,1.42
97.30,0.07,-1.28,0.07,-1.29,1.30,1.31,0.81,1.37,1.37,1.35
98.28,0.06,-1.22,0.06,-1.22,1.24,1.24,0.74,1.30,1.30,1.28
99.26,0.04,-1.17,0.04,-1.16,1.18,1.17,0.68,1.21,1.22,1.21
100.25,0.03,-1.10,0.01,-1.12,1.10,1.10,0.61,1.13,1.11,1.13
101.25,-0.00,-1.06,-0.01,-1.06,1.01,1.03,0.55,1.01,1.01,1.05
102.27,-0.03,-1.01,-0.00,-0.98,0.92,0.96,0.49,0.89,0.92,0.98
103.29,0.03,-0.87,0.04,-0.86,0.83,0.89,0.43,0.86,0.87,0.90
104.32,0.11,-0.72,0.10,-0.72,0.74,0.82,0.37,0.85,0.85,0.83
105.37,0.18,-0.57,0.15,-0.60,0.66,0.75,0.31,0.84,0.81,0.75
106.42,0.15,-0.51,0.15,-0.52,0.58,0.68,0.25,0.72,0.72,0.66
107.48,0.10,-0.49,0.11,-0.48,0.50,0.61,0.19,0.60,0.61,0.59
108.56,0.07,-0.45,0.07,-0.44,0.43,0.54,0.13,0.50,0.50,0.52
109.64,0.05,-0.40,0.05,-0.40,0.38,0.48,0.08,0.42,0.42,0.44
110.74,0.03,-0.34,0.03,-0.34,0.33,0.41,0.03,0.36,0.35,0.37
111.85,0.01,-0.29,0.01,-0.29,0.28,0.34,-0.03,0.29,0.29,0.30
112.97,-0.00,-0.24,-0.00,-0.24,0.23,0.27,-0.08,0.23,0.23,0.24
114.10,-0.01,-0.18,-0.01,-0.18,0.18,0.20,-0.13,0.17,0.17,0.17
115.24,-0.01,-0.12,-0.01,-0.12,0.12,0.14,-0.18,0.11,0.11,0.11
116.39,-0.01,-0.05,-0.01,-0.05,0.05,0.07,-0.22,0.04,0.04,0.04
117.55,-0.00,0.01,-0.01,0.01,-0.01,0.00,-0.27,-0.01,-0.01,-0.01
118.73,-0.00,0.07,0.00,0.07,-0.07,-0.06,-0.32,-0.07,-0.07,-0.08
119.92,0.01,0.14,0.01,0.14,-0.13,-0.13,-0.36,-0.12,-0.12,-0.13
121.12,0.02,0.20,0.01,0.20,-0.19,-0.19,-0.40,-0.17,-0.17,-0.18
122.33,0.02,0.25,0.02,0.26,-0.25,-0.25,-0.44,-0.23,-0.22,-0.23
123.55,0.03,0.31,0.03,0.31,-0.31,-0.32,-0.48,-0.28,-0.29,-0.29
124.79,0.04,0.38,0.02,0.36,-0.38,-0.38,-0.52,-0.34,-0.36,-0.34
126.03,0.02,0.41,0.03,0.42,-0.45,-0.44,-0.55,-0.43,-0.42,-0.39
127.29,0.05,0.49,0.07,0.50,-0.52,-0.50,-0.59,-0.47,-0.46,-0.44
128.57,0.12,0.60,0.11,0.59,-0.59,-0.56,-0.62,-0.47,-0.49,-0.49
129.85,0.17,0.70,0.15,0.69,-0.66,-0.62,-0.65,-0.49,-0.51,-0.54
131.15,0.17,0.75,0.18,0.76,-0.73,-0.68,-0.68,-0.56,-0.55,-0.58
132.46,0.18,0.81,0.18,0.81,-0.80,-0.73,-0.71,-0.62,-0.62,-0.63
133.79,0.18,0.86,0.18,0.86,-0.86,-0.79,-0.74,-0.68,-0.68,-0.68
135.12,0.18,0.90,0.18,0.90,-0.91,-0.85,-0.77,-0.73,-0.73,-0.72
136.48,0.19,0.96,0.19,0.95,-0.96,-0.90,-0.80,-0.77,-0.78,-0.77
137.84,0.19,1.00,0.19,1.00,-1.01,-0.95,-0.83,-0.82,-0.82,-0.81
139.22,0.19,1.05,0.19,1.05,-1.05,-1.01,-0.85,-0.87,-0.86,-0.87
140.61,0.19,1.10,0.19,1.10,-1.10,-1.06,-0.88,-0.91,-0.91,-0.91
142.02,0.19,1.15,0.19,1.15,-1.15,-1.11,-0.90,-0.96,-0.96,-0.96
143.44,0.19,1.20,0.19,1.20,-1.20,-1.16,-0.93,-1.01,-1.01,-1.01
144.87,0.19,1.25,0.19,1.25,-1.25,-1.21,-0.95,-1.06,-1.06,-1.06
146.32,0.19,1.29,0.19,1.29,-1.29,-1.25,-0.98,-1.11,-1.11,-1.10
147.78,0.19,1.34,0.19,1.34,-1.34,-1.30,-1.01,-1.15,-1.15,-1.15
149.26,0.19,1.39,0.19,1.39,-1.39,-1.35,-1.03,-1.20,-1.20,-1.20
150.75,0.19,1.43,0.19,1.43,-1.43,-1.39,-1.06,-1.24,-1.24,-1.25
152.26,0.19,1.48,0.19,1.48,-1.48,-1.43,-1.08,-1.29,-1.29,-1.29
153.78,0.19,1.52,0.19,1.52,-1.52,-1.48,-1.11,-1.33,-1.33,-1.33
155.32,0.19,1.56,0.19,1.56,-1.57,-1.52,-1.14,-1.38,-1.38,-1.37
156.88,0.20,1.61,0.20,1.61,-1.61,-1.56,-1.17,-1.41,-1.42,-1.42
158.44,0.20,1.66,0.20,1.66,-1.66,-1.60,-1.20,-1.46,-1.46,-1.46
160.03,0.20,1.70,0.20,1.70,-1.70,-1.64,-1.23,-1.50,-1.50,-1.50
161.63,0.19,1.74,0.19,1.74,-1.74,-1.67,-1.26,-1.55,-1.55,-1.55
163.24,0.19,1.78,0.19,1.78,-1.78,-1.71,-1.29,-1.59,-1.59,-1.59
164.88,0.19,1.82,0.19,1.82,-1.82,-1.74,-1.32,-1.63,-1.63,-1.63
166.53,0.18,1.85,0.18,1.86,-1.85,-1.78,-1.36,-1.67,-1.67,-1.67
168.19,0.18,1.89,0.18,1.89,-1.89,-1.81,-1.39,-1.71,-1.71,-1.71
169.87,0.17,1.92,0.17,1.92,-1.92,-1.85,-1.43,-1.75,-1.75,-1.75
171.57,0.16,1.94,0.16,1.95,-1.95,-1.88,-1.47,-1.79,-1.78,-1.79
173.29,0.16,1.98,0.15,1.97,-1.97,-1.91,-1.51,-1.82,-1.82,-1.82
175.02,0.15,2.00,0.15,2.00,-2.01,-1.94,-1.55,-1.86,-1.86,-1.85
176.77,0.15,2.03,0.15,2.03,-2.04,-1.97,-1.59,-1.89,-1.89,-1.88
178.54,0.15,2.06,0.15,2.06,-2.07,-1.99,-1.63,-1.92,-1.92,-1.92
180.32,0.15,2.09,0.15,2.09,-2.10,-2.02,-1.68,-1.95,-1.95,-1.94
182.13,0.16,2.12,0.16,2.12,-2.12,-2.05,-1.72,-1.96,-1.96,-1.96
183.95,0.17,2.15,0.18,2.16,-2.14,-2.07,-1.77,-1.97,-1.96,-1.98
185.79,0.20,2.20,0.18,2.19,-2.16,-2.10,-1.82,-1.96,-1.98,-2.01
187.65,0.19,2.21,0.17,2.19,-2.18,-2.12,-1.87,-1.99,-2.01,-2.03
189.52,0.13,2.17,0.15,2.19,-2.20,-2.14,-1.92,-2.07,-2.05,-2.05
191.42,0.12,2.17,0.13,2.19,-2.22,-2.17,-1.97,-2.10,-2.09,-2.06
193.33,0.14,2.21,0.13,2.20,-2.23,-2.19,-2.02,-2.09,-2.10,-2.07
195.27,0.15,2.24,0.15,2.24,-2.25,-2.21,-2.07,-2.10,-2.10,-2.09
197.22,0.17,2.28,0.17,2.28,-2.27,-2.23,-2.13,-2.10,-2.10,-2.11
199.19,0.18,2.31,0.18,2.30,-2.29,-2.25,-2.18,-2.11,-2.12,-2.13
201.18,0.18,2.32,0.18,2.33,-2.32,-2.26,-2.24,-2.14,-2.13,-2.14
203.19,0.19,2.35,0.19,2.35,-2.34,-2.28,-2.30,-2.15,-2.16,-2.16
205.23,0.19,2.36,0.19,2.36,-2.36,-2.30,-2.35,-2.18,-2.18,-2.18
207.28,0.19,2.38,0.19,2.38,-2.38,-2.31,-2.41,-2.19,-2.19,-2.19
209.35,0.19,2.39,0.19,2.40,-2.40,-2.33,-2.46,-2.21,-2.21,-2.21
211.44,0.19,2.42,0.19,2.41,-2.41,-2.34,-2.52,-2.23,-2.23,-2.23
213.56,0.18,2.42,0.18,2.43,-2.43,-2.36,-2.58,-2.25,-2.25,-2.24
215.69,0.18,2.45,0.18,2.44,-2.44,-2.37,-2.63,-2.26,-2.26,-2.27
217.85,0.18,2.46,0.17,2.46,-2.45,-2.38,-2.68,-2.28,-2.28,-2.28
220.03,0.17,2.47,0.17,2.47,-2.47,-2.40,-2.74,-2.30,-2.30,-2.30
222.23,0.17,2.48,0.17,2.48,-2.48,-2.41,-2.78,-2.31,-2.31,-2.31
224.45,0.17,2.49,0.17,2.49,-2.50,-2.42,-2.83,-2.33,-2.33,-2.33
226.70,0.17,2.50,0.17,2.50,-2.51,-2.43,-2.88,-2.34,-2.34,-2.34
228.96,0.17,2.52,0.17,2.51,-2.52,-2.44,-2.92,-2.35,-2.35,-2.35
231.25,0.18,2.53,0.18,2.53,-2.53,-2.45,-2.96,-2.35,-2.35,-2.35
233.57,0.19,2.55,0.20,2.55,-2.53,-2.46,-3.00,-2.34,-2.34,-2.36
235.90,0.21,2.58,0.20,2.56,-2.54,-2.47,-3.03,-2.33,-2.34,-2.37
238.26,0.20,2.56,0.18,2.55,-2.54,-2.47,-3.06,-2.34,-2.36,-2.37
240.64,0.15,2.51,0.17,2.53,-2.54,-2.48,-3.08,-2.39,-2.38,-2.37
243.05,0.15,2.51,0.16,2.52,-2.55,-2.49,-3.11,-2.40,-2.39,-2.36
245.48,0.17,2.53,0.17,2.53,-2.55,-2.50,-3.12,-2.38,-2.38,-2.36
247.93,0.20,2.56,0.19,2.55,-2.56,-2.50,-3.13,-2.36,-2.36,-2.36
250.41,0.22,2.58,0.22,2.57,-2.57,-2.51,-3.14,-2.35,-2.35,-2.36
252.92,0.23,2.58,0.23,2.59,-2.58,-2.51,-3.15,-2.35,-2.35,-2.36
255.45,0.24,2.60,0.24,2.60,-2.59,-2.52,-3.14,-2.36,-2.35,-2.36
258.00,0.25,2.61,0.25,2.61,-2.61,-2.52,-3.14,-2.36,-2.36,-2.36
260.58,0.26,2.63,0.26,2.62,-2.62,-2.52,-3.13,-2.36,-2.37,-2.37
263.19,0.26,2.63,0.26,2.63,-2.63,-2.53,-3.12,-2.38,-2.38,-2.37
265.82,0.26,2.65,0.26,2.64,-2.65,-2.53,-3.10,-2.39,-2.39,-2.39
268.48,0.25,2.64,0.25,2.65,-2.66,-2.53,-3.08,-2.41,-2.41,-2.40
271.16,0.25,2.66,0.25,2.66,-2.67,-2.54,-3.05,-2.43,-2.43,-2.41
273.87,0.25,2.67,0.25,2.67,-2.68,-2.54,-3.02,-2.43,-2.43,-2.42
276.61,0.25,2.68,0.25,2.68,-2.68,-2.54,-2.99,-2.43,-2.43,-2.43
279.38,0.25,2.70,0.26,2.70,-2.66,-2.54,-2.96,-2.42,-2.41,-2.45
282.17,0.25,2.70,0.24,2.70,-2.65,-2.54,-2.92,-2.40,-2.41,-2.45
284.99,0.23,2.69,0.20,2.65,-2.63,-2.54,-2.89,-2.40,-2.44,-2.46
287.84,0.12,2.57,0.14,2.60,-2.61,-2.54,-2.85,-2.49,-2.47,-2.45
290.72,0.07,2.53,0.09,2.55,-2.59,-2.54,-2.81,-2.52,-2.50,-2.46
293.63,0.08,2.54,0.07,2.53,-2.58,-2.54,-2.77,-2.50,-2.50,-2.46
296.57,0.10,2.56,0.09,2.55,-2.57,-2.54,-2.73,-2.47,-2.48,-2.46
299.53,0.11,2.56,0.11,2.56,-2.56,-2.54,-2.69,-2.45,-2.45,-2.45
302.53,0.12,2.57,0.12,2.57,-2.57,-2.54,-2.64,-2.45,-2.45,-2.45
305.55,0.13,2.58,0.13,2.58,-2.57,-2.53,-2.60,-2.44,-2.44,-2.45
308.61,0.14,2.59,0.14,2.60,-2.58,-2.53,-2.56,-2.44,-2.43,-2.45
311.69,0.15,2.60,0.15,2.60,-2.58,-2.53,-2.52,-2.43,-2.43,-2.46
314.81,0.15,2.61,0.13,2.59,-2.57,-2.53,-2.48,-2.42,-2.44,-2.46
317.96,0.10,2.56,0.10,2.56,-2.56,-2.52,-2.44,-2.46,-2.46,-2.46
321.14,0.06,2.52,0.07,2.53,-2.55,-2.52,-2.40,-2.49,-2.48,-2.47
324.35,0.05,2.51,0.05,2.51,-2.54,-2.52,-2.37,-2.49,-2.49,-2.46
327.59,0.05,2.51,0.05,2.51,-2.53,-2.51,-2.33,-2.48,-2.48,-2.46
330.87,0.05,2.51,0.05,2.51,-2.52,-2.51,-2.30,-2.47,-2.47,-2.46
334.18,0.05,2.52,0.05,2.52,-2.51,-2.50,-2.26,-2.46,-2.47,-2.47
337.52,0.05,2.52,0.05,2.52,-2.51,-2.50,-2.23,-2.46,-2.46,-2.47
340.90,0.04,2.51,0.04,2.51,-2.50,-2.49,-2.20,-2.46,-2.46,-2.47
344.30,0.04,2.50,0.04,2.51,-2.50,-2.49,-2.17,-2.46,-2.45,-2.46
347.75,0.04,2.50,0.03,2.50,-2.49,-2.48,-2.15,-2.45,-2.45,-2.46
351.23,0.03,2.50,0.01,2.47,-2.47,-2.47,-2.12,-2.44,-2.46,-2.47
354.74,-0.02,2.43,-0.01,2.44,-2.45,-2.47,-2.10,-2.47,-2.47,-2.45
358.28,-0.05,2.40,-0.03,2.42,-2.43,-2.46,-2.08,-2.48,-2.46,-2.45
361.87,-0.04,2.40,-0.05,2.40,-2.40,-2.45,-2.05,-2.45,-2.45,-2.45
365.49,-0.04,2.40,-0.06,2.38,-2.38,-2.45,-2.04,-2.42,-2.43,-2.44
369.14,-0.07,2.37,-0.07,2.36,-2.34,-2.44,-2.02,-2.42,-2.41,-2.44
372.83,-0.11,2.31,-0.10,2.33,-2.32,-2.43,-2.00,-2.43,-2.41,-2.42
376.56,-0.11,2.31,-0.13,2.29,-2.29,-2.42,-1.99,-2.41,-2.43,-2.42
380.33,-0.17,2.25,-0.17,2.26,-2.28,-2.41,-1.98,-2.45,-2.44,-2.42
384.13,-0.20,2.22,-0.19,2.24,-2.26,-2.40,-1.97,-2.46,-2.45,-2.43
387.97,-0.20,2.23,-0.20,2.22,-2.24,-2.39,-1.96,-2.45,-2.45,-2.43
391.85,-0.19,2.23,-0.20,2.23,-2.23,-2.39,-1.95,-2.42,-2.43,-2.42
395.77,-0.19,2.24,-0.19,2.24,-2.22,-2.38,-1.94,-2.41,-2.41,-2.43
399.73,-0.19,2.24,-0.19,2.24,-2.21,-2.36,-1.94,-2.40,-2.41,-2.43
403.72,-0.20,2.23,-0.22,2.22,-2.21,-2.35,-1.93,-2.41,-2.43,-2.43
407.76,-0.27,2.18,-0.26,2.19,-2.20,-2.34,-1.93,-2.47,-2.45,-2.45
411.84,-0.30,2.15,-0.29,2.17,-2.18,-2.33,-1.93,-2.48,-2.47,-2.46
415.96,-0.30,2.16,-0.30,2.16,-2.17,-2.32,-1.93,-2.47,-2.47,-2.46
420.12,-0.30,2.17,-0.30,2.16,-2.15,-2.31,-1.93,-2.45,-2.45,-2.47
424.32,-0.30,2.16,-0.32,2.14,-2.13,-2.30,-1.92,-2.43,-2.45,-2.46
428.56,-0.35,2.10,-0.34,2.11,-2.12,-2.28,-1.92,-2.47,-2.46,-2.45
432.85,-0.37,2.06,-0.36,2.08,-2.10,-2.27,-1.92,-2.47,-2.46,-2.43
437.18,-0.35,2.07,-0.34,2.07,-2.07,-2.26,-1.92,-2.43,-2.42,-2.42
441.55,-0.31,2.07,-0.32,2.07,-2.05,-2.24,-1.92,-2.36,-2.36,-2.38
445.96,-0.27,2.07,-0.29,2.05,-2.02,-2.23,-1.92,-2.29,-2.31,-2.34
450.42,-0.29,2.00,-0.29,2.01,-1.99,-2.21,-1.92,-2.29,-2.28,-2.30
454.93,-0.29,1.96,-0.29,1.96,-1.97,-2.20,-1.92,-2.26,-2.26,-2.25
459.48,-0.29,1.90,-0.28,1.91,-1.95,-2.18,-1.91,-2.24,-2.23,-2.19
464.07,-0.23,1.91,-0.24,1.90,-1.93,-2.17,-1.91,-2.16,-2.17,-2.14
468.71,-0.18,1.91,-0.18,1.90,-1.91,-2.15,-1.91,-2.09,-2.09,-2.09
473.40,-0.12,1.91,-0.11,1.92,-1.89,-2.13,-1.90,-2.01,-2.00,-2.03
478.13,-0.06,1.91,-0.07,1.91,-1.88,-2.11,-1.89,-1.94,-1.94,-1.97
482.91,-0.02,1.90,-0.04,1.88,-1.87,-2.10,-1.88,-1.89,-1.91,-1.92
487.74,-0.05,1.83,-0.03,1.84,-1.85,-2.08,-1.87,-1.91,-1.89,-1.88
492.62,-0.04,1.80,-0.03,1.81,-1.84,-2.06,-1.86,-1.88,-1.87,-1.84
