frequency,raw,smoothed,error,error_smoothed,equalization,parametric_eq,fixed_band_eq,equalized_raw,equalized_smoothed,target
20.00,-1.51,-1.52,-10.13,-10.14,6.00,6.25,2.70,4.49,4.48,8.62
20.20,-1.49,-1.47,-10.11,-10.09,6.00,6.25,2.77,4.51,4.53,8.62
20.40,-1.43,-1.42,-10.05,-10.04,6.00,6.25,2.85,4.57,4.58,8.62
20.61,-1.36,-1.36,-9.98,-9.98,6.00,6.25,2.93,4.64,4.64,8.62
20.81,-1.29,-1.29,-9.91,-9.91,6.00,6.25,3.01,4.71,4.71,8.62
21.02,-1.22,-1.22,-9.84,-9.84,6.00,6.25,3.10,4.78,4.78,8.62
21.23,-1.16,-1.16,-9.77,-9.77,6.00,6.24,3.19,4.84,4.84,8.62
21.44,-1.10,-1.10,-9.71,-9.71,6.00,6.24,3.28,4.90,4.90,8.62
21.66,-1.04,-1.04,-9.65,-9.65,6.00,6.24,3.37,4.96,4.96,8.62
21.87,-0.98,-0.98,-9.59,-9.59,6.00,6.24,3.47,5.02,5.02,8.62
22.09,-0.92,-0.92,-9.53,-9.53,6.00,6.24,3.57,5.08,5.08,8.61
22.31,-0.86,-0.86,-9.47,-9.47,6.00,6.24,3.67,5.14,5.14,8.61
22.54,-0.80,-0.80,-9.41,-9.41,6.00,6.23,3.77,5.20,5.20,8.61
22.76,-0.74,-0.74,-9.35,-9.35,6.00,6.23,3.88,5.26,5.26,8.61
22.99,-0.68,-0.68,-9.29,-9.29,6.00,6.23,3.99,5.32,5.32,8.61
23.22,-0.62,-0.62,-9.23,-9.23,6.00,6.23,4.10,5.38,5.38,8.61
23.45,-0.56,-0.56,-9.17,-9.17,6.00,6.23,4.22,5.44,5.44,8.61
23.69,-0.51,-0.51,-9.12,-9.12,6.00,6.22,4.33,5.49,5.49,8.61
23.92,-0.47,-0.47,-9.07,-9.07,6.00,6.22,4.45,5.53,5.53,8.61
24.16,-0.43,-0.42,-9.03,-9.03,6.00,6.22,4.58,5.57,5.58,8.61
24.40,-0.37,-0.37,-8.97,-8.97,6.00,6.22,4.70,5.63,5.63,8.60
24.65,-0.31,-0.31,-8.91,-8.91,6.00,6.21,4.82,5.69,5.69,8.60
24.89,-0.25,-0.25,-8.85,-8.86,6.00,6.21,4.95,5.75,5.75,8.60
25.14,-0.21,-0.21,-8.81,-8.81,6.00,6.21,5.08,5.79,5.79,8.60
25.39,-0.17,-0.16,-8.76,-8.76,6.00,6.21,5.21,5.83,5.84,8.60
25.65,-0.11,-0.11,-8.70,-8.71,6.00,6.20,5.34,5.89,5.89,8.60
25.91,-0.05,-0.06,-8.64,-8.65,6.00,6.20,5.47,5.95,5.94,8.60
26.16,-0.02,-0.01,-8.61,-8.60,6.00,6.20,5.60,5.98,5.99,8.59
26.43,0.04,0.04,-8.55,-8.55,6.00,6.20,5.74,6.04,6.04,8.59
26.69,0.09,0.09,-8.50,-8.50,6.00,6.19,5.86,6.09,6.09,8.59
26.96,0.14,0.14,-8.45,-8.45,6.00,6.19,5.99,6.14,6.14,8.59
27.23,0.17,0.18,-8.41,-8.41,6.00,6.19,6.12,6.17,6.18,8.59
27.50,0.22,0.22,-8.36,-8.36,6.00,6.18,6.24,6.22,6.22,8.59
27.77,0.27,0.27,-8.31,-8.32,6.00,6.18,6.36,6.27,6.27,8.58
28.05,0.30,0.31,-8.28,-8.27,6.00,6.18,6.48,6.30,6.31,8.58
28.33,0.35,0.35,-8.23,-8.23,6.00,6.17,6.59,6.35,6.35,8.58
28.62,0.38,0.39,-8.19,-8.19,6.00,6.17,6.70,6.38,6.39,8.58
28.90,0.44,0.44,-8.13,-8.14,6.00,6.17,6.79,6.44,6.44,8.58
29.19,0.47,0.48,-8.10,-8.10,6.00,6.16,6.89,6.47,6.48,8.57
29.48,0.52,0.52,-8.05,-8.05,6.00,6.16,6.97,6.52,6.52,8.57
29.78,0.55,0.56,-8.02,-8.01,6.00,6.16,7.05,6.55,6.56,8.57
30.08,0.59,0.59,-7.97,-7.97,6.00,6.15,7.11,6.59,6.59,8.57
30.38,0.63,0.63,-7.93,-7.93,6.00,6.15,7.17,6.63,6.63,8.56
30.68,0.66,0.67,-7.90,-7.89,6.00,6.14,7.22,6.66,6.67,8.56
30.99,0.71,0.71,-7.84,-7.85,6.00,6.14,7.26,6.71,6.71,8.56
31.30,0.74,0.74,-7.81,-7.81,6.00,6.13,7.28,6.74,6.74,8.55
31.61,0.77,0.78,-7.78,-7.77,6.00,6.13,7.30,6.77,6.78,8.55
31.93,0.81,0.81,-7.73,-7.74,6.00,6.12,7.30,6.81,6.81,8.55
32.24,0.85,0.85,-7.69,-7.70,6.00,6.12,7.30,6.85,6.85,8.54
32.57,0.88,0.89,-7.66,-7.65,6.00,6.11,7.28,6.88,6.89,8.54
32.89,0.92,0.92,-7.61,-7.61,6.00,6.11,7.26,6.92,6.92,8.54
33.22,0.96,0.96,-7.57,-7.57,6.00,6.10,7.23,6.96,6.96,8.53
33.55,0.99,0.99,-7.54,-7.54,6.00,6.10,7.19,6.99,6.99,8.53
33.89,1.02,1.03,-7.50,-7.50,6.00,6.09,7.14,7.02,7.03,8.53
34.23,1.05,1.05,-7.47,-7.47,6.00,6.09,7.09,7.05,7.05,8.52
34.57,1.09,1.09,-7.42,-7.43,6.00,6.08,7.03,7.09,7.09,8.52
34.92,1.11,1.12,-7.40,-7.39,6.00,6.07,6.97,7.11,7.12,8.51
35.27,1.15,1.16,-7.35,-7.35,6.00,6.07,6.90,7.15,7.16,8.51
35.62,1.19,1.19,-7.31,-7.32,6.00,6.06,6.83,7.19,7.19,8.50
35.97,1.22,1.22,-7.27,-7.28,6.00,6.05,6.75,7.22,7.22,8.50
36.33,1.24,1.25,-7.25,-7.24,6.00,6.05,6.68,7.24,7.25,8.49
36.70,1.28,1.28,-7.20,-7.21,6.00,6.04,6.60,7.28,7.28,8.49
37.06,1.31,1.31,-7.17,-7.17,6.00,6.03,6.52,7.31,7.31,8.48
37.43,1.34,1.34,-7.13,-7.13,6.00,6.02,6.44,7.34,7.34,8.47
37.81,1.37,1.37,-7.10,-7.10,6.00,6.02,6.37,7.37,7.37,8.47
38.19,1.40,1.40,-7.06,-7.06,6.00,6.01,6.29,7.40,7.40,8.46
38.57,1.43,1.43,-7.02,-7.02,6.00,6.00,6.22,7.43,7.43,8.46
38.95,1.46,1.46,-6.99,-6.99,6.00,5.99,6.14,7.46,7.46,8.45
39.34,1.49,1.49,-6.95,-6.95,6.00,5.98,6.07,7.49,7.49,8.44
39.74,1.50,1.51,-6.93,-6.92,6.00,5.97,6.01,7.50,7.51,8.43
40.14,1.54,1.54,-6.88,-6.89,6.00,5.96,5.94,7.54,7.54,8.43
40.54,1.56,1.57,-6.86,-6.85,6.00,5.95,5.88,7.56,7.57,8.42
40.94,1.59,1.59,-6.82,-6.82,6.00,5.94,5.82,7.59,7.59,8.41
41.35,1.62,1.62,-6.78,-6.79,6.00,5.93,5.77,7.62,7.62,8.40
41.76,1.63,1.64,-6.76,-6.75,6.00,5.92,5.72,7.63,7.64,8.39
42.18,1.67,1.67,-6.71,-6.72,6.00,5.91,5.68,7.67,7.67,8.38
42.60,1.69,1.70,-6.68,-6.68,6.00,5.90,5.63,7.69,7.70,8.38
43.03,1.72,1.72,-6.64,-6.64,6.00,5.89,5.60,7.72,7.72,8.37
43.46,1.75,1.75,-6.60,-6.61,6.00,5.88,5.56,7.75,7.75,8.36
43.90,1.76,1.77,-6.58,-6.58,6.00,5.86,5.53,7.76,7.77,8.35
44.33,1.80,1.79,-6.53,-6.54,6.00,5.85,5.51,7.80,7.79,8.33
44.78,1.80,1.81,-6.52,-6.51,6.00,5.84,5.49,7.80,7.81,8.32
45.23,1.85,1.84,-6.46,-6.47,6.00,5.82,5.47,7.85,7.84,8.31
45.68,1.85,1.86,-6.45,-6.44,6.00,5.81,5.46,7.85,7.86,8.30
46.13,1.89,1.89,-6.39,-6.40,6.00,5.79,5.45,7.89,7.89,8.29
46.60,1.89,1.90,-6.38,-6.37,6.00,5.78,5.45,7.89,7.90,8.27
47.06,1.93,1.93,-6.33,-6.33,6.00,5.76,5.45,7.93,7.93,8.26
47.53,1.93,1.94,-6.31,-6.30,6.00,5.75,5.45,7.93,7.94,8.25
48.01,1.98,1.97,-6.25,-6.26,6.00,5.73,5.46,7.98,7.97,8.23
48.49,1.98,1.99,-6.23,-6.23,6.00,5.72,5.47,7.98,7.99,8.22
48.97,2.02,2.01,-6.18,-6.19,6.00,5.70,5.48,8.03,8.02,8.20
49.46,2.02,2.03,-6.16,-6.16,6.01,5.68,5.50,8.03,8.03,8.19
49.96,2.04,2.04,-6.13,-6.13,6.01,5.66,5.52,8.05,8.05,8.17
50.46,2.06,2.06,-6.09,-6.09,6.00,5.64,5.54,8.07,8.06,8.15
50.96,2.07,2.08,-6.06,-6.06,5.99,5.62,5.56,8.07,8.07,8.14
51.47,2.11,2.10,-6.00,-6.02,5.98,5.60,5.59,8.09,8.08,8.12
51.99,2.11,2.12,-5.99,-5.98,5.96,5.58,5.62,8.07,8.09,8.10
52.51,2.15,2.14,-5.93,-5.94,5.94,5.56,5.65,8.09,8.08,8.08
53.03,2.15,2.16,-5.91,-5.90,5.91,5.54,5.68,8.06,8.07,8.06
53.56,2.17,2.17,-5.87,-5.87,5.87,5.52,5.71,8.04,8.04,8.04
54.10,2.19,2.19,-5.83,-5.83,5.83,5.49,5.74,8.03,8.02,8.02
54.64,2.19,2.21,-5.80,-5.79,5.79,5.47,5.76,7.98,8.00,8.00
55.18,2.24,2.23,-5.73,-5.75,5.75,5.44,5.79,7.99,7.97,7.97
55.74,2.24,2.25,-5.71,-5.70,5.71,5.42,5.82,7.95,7.95,7.95
56.29,2.25,2.26,-5.67,-5.67,5.67,5.39,5.84,7.92,7.93,7.93
56.86,2.28,2.27,-5.62,-5.63,5.63,5.37,5.86,7.91,7.90,7.90
57.42,2.28,2.30,-5.59,-5.58,5.58,5.34,5.88,7.87,7.88,7.88
58.00,2.32,2.31,-5.53,-5.54,5.54,5.31,5.89,7.86,7.85,7.85
58.58,2.32,2.32,-5.50,-5.50,5.50,5.28,5.90,7.82,7.82,7.82
59.16,2.32,2.34,-5.47,-5.45,5.45,5.25,5.90,7.78,7.80,7.79
59.76,2.37,2.35,-5.39,-5.41,5.41,5.22,5.90,7.78,7.76,7.77
60.35,2.37,2.37,-5.36,-5.36,5.36,5.19,5.89,7.74,7.74,7.74
60.96,2.37,2.39,-5.33,-5.31,5.32,5.15,5.88,7.69,7.71,7.70
61.57,2.41,2.40,-5.26,-5.28,5.27,5.12,5.86,7.69,7.67,7.67
62.18,2.41,2.41,-5.23,-5.23,5.23,5.09,5.83,7.64,7.64,7.64
62.80,2.41,2.43,-5.19,-5.18,5.18,5.05,5.79,7.59,7.61,7.61
63.43,2.45,2.44,-5.12,-5.14,5.13,5.01,5.75,7.58,7.57,7.57
64.07,2.45,2.45,-5.09,-5.08,5.08,4.98,5.70,7.54,7.54,7.54
64.71,2.45,2.47,-5.05,-5.03,5.03,4.94,5.65,7.49,7.51,7.50
65.35,2.50,2.49,-4.96,-4.98,4.98,4.90,5.59,7.49,7.47,7.47
66.01,2.50,2.50,-4.92,-4.93,4.93,4.86,5.52,7.43,7.43,7.43
66.67,2.50,2.51,-4.88,-4.88,4.88,4.82,5.44,7.38,7.39,7.39
67.33,2.50,2.52,-4.84,-4.83,4.83,4.78,5.36,7.33,7.34,7.35
68.01,2.54,2.53,-4.76,-4.78,4.77,4.73,5.28,7.32,7.30,7.31
68.69,2.54,2.54,-4.72,-4.72,4.72,4.69,5.19,7.27,7.26,7.26
69.37,2.54,2.56,-4.68,-4.66,4.67,4.64,5.09,7.21,7.23,7.22
70.07,2.57,2.57,-4.60,-4.61,4.61,4.60,4.99,7.19,7.18,7.18
70.77,2.58,2.58,-4.55,-4.56,4.56,4.55,4.89,7.14,7.14,7.13
71.48,2.58,2.58,-4.50,-4.50,4.50,4.50,4.79,7.08,7.08,7.09
72.19,2.58,2.59,-4.46,-4.45,4.44,4.45,4.68,7.03,7.03,7.04
72.91,2.59,2.60,-4.40,-4.39,4.38,4.40,4.58,6.98,6.99,6.99
73.64,2.63,2.62,-4.31,-4.32,4.32,4.35,4.47,6.96,6.94,6.94
74.38,2.63,2.63,-4.26,-4.26,4.26,4.29,4.36,6.90,6.89,6.89
75.12,2.63,2.64,-4.21,-4.20,4.20,4.24,4.25,6.83,6.84,6.84
75.87,2.64,2.65,-4.14,-4.14,4.14,4.18,4.14,6.78,6.79,6.79
76.63,2.67,2.66,-4.06,-4.07,4.07,4.13,4.02,6.75,6.74,6.73
77.40,2.67,2.67,-4.01,-4.01,4.01,4.07,3.91,6.68,6.68,6.68
78.17,2.67,2.68,-3.95,-3.95,3.95,4.01,3.80,6.62,6.62,6.62
78.95,2.67,2.68,-3.90,-3.88,3.88,3.95,3.70,6.56,6.57,6.57
79.74,2.70,2.70,-3.81,-3.81,3.82,3.89,3.59,6.52,6.51,6.51
80.54,2.71,2.71,-3.74,-3.75,3.75,3.83,3.48,6.46,6.45,6.45
81.35,2.71,2.71,-3.68,-3.68,3.68,3.76,3.38,6.39,6.39,6.39
82.16,2.71,2.72,-3.62,-3.61,3.61,3.70,3.27,6.32,6.33,6.33
82.98,2.72,2.73,-3.55,-3.54,3.54,3.63,3.17,6.26,6.27,6.27
83.81,2.76,2.75,-3.45,-3.46,3.47,3.57,3.07,6.23,6.22,6.21
84.65,2.76,2.76,-3.39,-3.39,3.39,3.50,2.98,6.16,6.16,6.15
85.50,2.76,2.76,-3.32,-3.32,3.32,3.43,2.88,6.08,6.08,6.08
86.35,2.76,2.76,-3.26,-3.26,3.25,3.36,2.79,6.01,6.01,6.02
87.22,2.76,2.78,-3.19,-3.18,3.17,3.29,2.69,5.94,5.95,5.95
88.09,2.80,2.79,-3.09,-3.10,3.10,3.22,2.60,5.90,5.89,5.89
88.97,2.80,2.80,-3.02,-3.02,3.03,3.15,2.51,5.83,5.83,5.82
89.86,2.80,2.81,-2.95,-2.95,2.96,3.07,2.43,5.76,5.76,5.75
90.76,2.80,2.80,-2.88,-2.88,2.88,3.00,2.34,5.68,5.68,5.69
91.66,2.80,2.81,-2.82,-2.81,2.80,2.92,2.26,5.61,5.61,5.62
92.58,2.81,2.81,-2.74,-2.74,2.73,2.85,2.18,5.54,5.54,5.55
93.51,2.82,2.83,-2.66,-2.65,2.65,2.77,2.10,5.48,5.48,5.48
94.44,2.84,2.84,-2.57,-2.57,2.58,2.69,2.03,5.42,5.42,5.41
95.39,2.84,2.84,-2.50,-2.50,2.50,2.62,1.95,5.35,5.35,5.34
96.34,2.84,2.85,-2.42,-2.42,2.43,2.54,1.88,5.27,5.27,5.27
97.30,2.84,2.84,-2.35,-2.35,2.35,2.46,1.80,5.20,5.20,5.20
98.28,2.84,2.84,-2.28,-2.28,2.28,2.38,1.73,5.12,5.12,5.12
99.26,2.84,2.84,-2.21,-2.21,2.20,2.30,1.67,5.04,5.04,5.05
100.25,2.84,2.85,-2.14,-2.13,2.12,2.21,1.60,4.96,4.97,4.98
101.25,2.86,2.86,-2.04,-2.05,2.04,2.13,1.53,4.91,4.90,4.91
102.27,2.86,2.87,-1.97,-1.96,1.96,2.05,1.47,4.83,4.84,4.83
103.29,2.89,2.88,-1.87,-1.88,1.88,1.97,1.41,4.78,4.77,4.76
104.32,2.89,2.89,-1.79,-1.80,1.80,1.88,1.34,4.70,4.70,4.69
105.37,2.89,2.90,-1.72,-1.72,1.72,1.80,1.28,4.62,4.62,4.61
106.42,2.89,2.89,-1.65,-1.65,1.65,1.71,1.23,4.54,4.54,4.54
107.48,2.89,2.89,-1.58,-1.58,1.57,1.63,1.17,4.47,4.47,4.47
108.56,2.89,2.89,-1.50,-1.50,1.50,1.55,1.11,4.39,4.39,4.40
109.64,2.89,2.89,-1.43,-1.43,1.43,1.46,1.06,4.32,4.32,4.32
110.74,2.89,2.89,-1.36,-1.36,1.36,1.38,1.00,4.25,4.25,4.25
111.85,2.89,2.89,-1.28,-1.28,1.29,1.29,0.95,4.18,4.18,4.18
112.97,2.89,2.89,-1.21,-1.21,1.22,1.21,0.90,4.11,4.11,4.11
114.10,2.89,2.89,-1.14,-1.14,1.14,1.12,0.85,4.04,4.04,4.03
115.24,2.89,2.89,-1.07,-1.07,1.07,1.04,0.80,3.96,3.96,3.96
116.39,2.89,2.89,-1.00,-1.00,1.00,0.96,0.75,3.89,3.89,3.89
117.55,2.89,2.89,-0.93,-0.93,0.92,0.87,0.70,3.82,3.82,3.82
118.73,2.89,2.90,-0.86,-0.85,0.85,0.79,0.65,3.74,3.75,3.75
119.92,2.91,2.91,-0.77,-0.77,0.77,0.70,0.61,3.68,3.68,3.68
121.12,2.93,2.92,-0.68,-0.69,0.69,0.62,0.56,3.63,3.61,3.61
122.33,2.93,2.94,-0.61,-0.61,0.61,0.54,0.52,3.55,3.55,3.55
123.55,2.93,2.95,-0.54,-0.53,0.53,0.46,0.47,3.46,3.48,3.48
124.79,2.97,2.96,-0.44,-0.45,0.45,0.38,0.43,3.42,3.41,3.41
126.03,2.97,2.98,-0.37,-0.37,0.37,0.30,0.39,3.34,3.34,3.34
127.29,2.99,3.00,-0.29,-0.28,0.28,0.22,0.35,3.28,3.28,3.28
128.57,3.02,3.02,-0.19,-0.20,0.20,0.14,0.30,3.22,3.21,3.21
129.85,3.03,3.04,-0.12,-0.11,0.11,0.06,0.26,3.15,3.15,3.15
131.15,3.06,3.06,-0.02,-0.03,0.03,-0.02,0.22,3.09,3.09,3.09
132.46,3.08,3.08,0.06,0.06,-0.06,-0.10,0.18,3.02,3.02,3.03
133.79,3.10,3.11,0.14,0.15,-0.14,-0.17,0.14,2.96,2.96,2.96
135.12,3.14,3.13,0.24,0.23,-0.23,-0.25,0.11,2.91,2.91,2.90
136.48,3.15,3.16,0.31,0.31,-0.31,-0.32,0.07,2.84,2.85,2.84
137.84,3.18,3.18,0.40,0.39,-0.39,-0.39,0.03,2.79,2.79,2.79
139.22,3.19,3.20,0.46,0.47,-0.47,-0.47,-0.01,2.72,2.73,2.73
140.61,3.22,3.21,0.55,0.54,-0.54,-0.54,-0.05,2.68,2.67,2.67
142.02,3.23,3.23,0.62,0.62,-0.62,-0.61,-0.09,2.61,2.61,2.62
143.44,3.23,3.25,0.67,0.69,-0.69,-0.67,-0.13,2.54,2.56,2.56
144.87,3.28,3.26,0.78,0.76,-0.76,-0.74,-0.16,2.52,2.50,2.51
146.32,3.28,3.28,0.83,0.83,-0.83,-0.81,-0.20,2.46,2.45,2.46
147.78,3.28,3.30,0.88,0.89,-0.89,-0.87,-0.24,2.39,2.41,2.40
149.26,3.31,3.31,0.96,0.95,-0.95,-0.93,-0.28,2.36,2.35,2.35
150.75,3.32,3.32,1.02,1.01,-1.01,-0.99,-0.32,2.31,2.31,2.30
152.26,3.32,3.33,1.07,1.07,-1.06,-1.05,-0.36,2.26,2.26,2.25
153.78,3.32,3.32,1.12,1.12,-1.11,-1.11,-0.40,2.21,2.21,2.21
155.32,3.32,3.32,1.16,1.16,-1.16,-1.17,-0.44,2.16,2.16,2.16
156.88,3.32,3.32,1.21,1.21,-1.21,-1.22,-0.48,2.11,2.11,2.12
158.44,3.32,3.32,1.25,1.25,-1.26,-1.28,-0.52,2.06,2.06,2.07
160.03,3.32,3.32,1.30,1.30,-1.31,-1.33,-0.56,2.02,2.02,2.03
161.63,3.32,3.33,1.35,1.35,-1.36,-1.38,-0.60,1.97,1.97,1.98
163.24,3.34,3.34,1.41,1.40,-1.40,-1.43,-0.64,1.94,1.93,1.93
164.88,3.34,3.35,1.45,1.46,-1.45,-1.48,-0.69,1.89,1.90,1.89
166.53,3.36,3.36,1.51,1.50,-1.50,-1.52,-0.73,1.87,1.86,1.85
168.19,3.36,3.36,1.55,1.55,-1.54,-1.57,-0.78,1.82,1.82,1.82
169.87,3.36,3.36,1.58,1.59,-1.58,-1.61,-0.82,1.78,1.78,1.78
171.57,3.36,3.36,1.62,1.62,-1.62,-1.65,-0.87,1.74,1.74,1.74
173.29,3.36,3.36,1.66,1.66,-1.66,-1.69,-0.91,1.70,1.70,1.71
175.02,3.36,3.36,1.69,1.69,-1.69,-1.73,-0.96,1.67,1.67,1.67
176.77,3.36,3.36,1.72,1.72,-1.73,-1.77,-1.01,1.64,1.64,1.64
178.54,3.36,3.36,1.76,1.76,-1.76,-1.80,-1.06,1.61,1.61,1.61
180.32,3.36,3.36,1.79,1.79,-1.79,-1.84,-1.11,1.57,1.57,1.57
182.13,3.36,3.36,1.82,1.82,-1.82,-1.87,-1.16,1.54,1.54,1.54
183.95,3.36,3.36,1.85,1.85,-1.85,-1.90,-1.21,1.51,1.51,1.51
185.79,3.36,3.36,1.88,1.88,-1.88,-1.93,-1.26,1.48,1.48,1.48
187.65,3.36,3.36,1.91,1.91,-1.91,-1.96,-1.32,1.46,1.46,1.46
189.52,3.36,3.36,1.93,1.93,-1.93,-1.99,-1.37,1.43,1.43,1.43
191.42,3.36,3.36,1.96,1.96,-1.96,-2.02,-1.43,1.40,1.40,1.40
193.33,3.36,3.36,1.99,1.99,-1.99,-2.04,-1.48,1.38,1.38,1.38
195.27,3.36,3.36,2.01,2.01,-2.01,-2.07,-1.54,1.35,1.35,1.35
197.22,3.36,3.36,2.04,2.04,-2.04,-2.09,-1.60,1.33,1.33,1.33
199.19,3.36,3.36,2.06,2.06,-2.06,-2.11,-1.65,1.30,1.30,1.30
201.18,3.36,3.36,2.08,2.08,-2.08,-2.13,-1.71,1.28,1.28,1.28
203.19,3.36,3.36,2.11,2.11,-2.10,-2.15,-1.77,1.26,1.26,1.26
205.23,3.36,3.36,2.13,2.13,-2.12,-2.17,-1.83,1.24,1.24,1.24
207.28,3.36,3.36,2.15,2.15,-2.15,-2.19,-1.89,1.22,1.22,1.22
209.35,3.36,3.36,2.17,2.17,-2.17,-2.21,-1.95,1.20,1.20,1.20
211.44,3.36,3.36,2.19,2.19,-2.19,-2.23,-2.00,1.17,1.17,1.18
213.56,3.36,3.36,2.21,2.21,-2.21,-2.25,-2.06,1.15,1.15,1.16
215.69,3.36,3.37,2.22,2.23,-2.24,-2.27,-2.12,1.13,1.13,1.14
217.85,3.38,3.38,2.26,2.26,-2.26,-2.28,-2.18,1.12,1.12,1.12
220.03,3.38,3.39,2.28,2.29,-2.28,-2.30,-2.23,1.10,1.11,1.10
222.23,3.40,3.40,2.32,2.31,-2.31,-2.31,-2.29,1.10,1.09,1.09
224.45,3.41,3.41,2.34,2.34,-2.33,-2.33,-2.34,1.08,1.08,1.07
226.70,3.41,3.41,2.36,2.36,-2.35,-2.34,-2.39,1.06,1.06,1.06
228.96,3.41,3.41,2.37,2.37,-2.37,-2.36,-2.44,1.04,1.04,1.04
231.25,3.41,3.41,2.39,2.39,-2.39,-2.37,-2.49,1.02,1.02,1.03
233.57,3.41,3.41,2.40,2.40,-2.40,-2.39,-2.54,1.01,1.01,1.01
235.90,3.41,3.41,2.42,2.42,-2.42,-2.40,-2.58,0.99,0.99,0.99
238.26,3.41,3.41,2.44,2.44,-2.44,-2.42,-2.63,0.98,0.98,0.98
240.64,3.41,3.41,2.45,2.45,-2.45,-2.43,-2.66,0.96,0.96,0.96
243.05,3.41,3.42,2.46,2.46,-2.47,-2.45,-2.70,0.94,0.94,0.95
245.48,3.42,3.42,2.48,2.48,-2.49,-2.46,-2.74,0.93,0.93,0.94
247.93,3.43,3.44,2.50,2.51,-2.51,-2.47,-2.77,0.93,0.93,0.93
250.41,3.45,3.45,2.54,2.53,-2.52,-2.49,-2.80,0.93,0.92,0.92
252.92,3.45,3.45,2.55,2.55,-2.54,-2.50,-2.82,0.92,0.92,0.91
255.45,3.45,3.45,2.56,2.56,-2.55,-2.52,-2.85,0.90,0.90,0.90
258.00,3.45,3.45,2.57,2.57,-2.56,-2.53,-2.87,0.89,0.89,0.89
260.58,3.45,3.45,2.58,2.58,-2.58,-2.55,-2.89,0.87,0.87,0.88
263.19,3.45,3.45,2.58,2.58,-2.59,-2.56,-2.90,0.86,0.86,0.87
265.82,3.45,3.45,2.59,2.60,-2.60,-2.58,-2.92,0.85,0.85,0.86
268.48,3.45,3.47,2.60,2.62,-2.62,-2.59,-2.93,0.84,0.85,0.85
271.16,3.49,3.48,2.65,2.64,-2.63,-2.61,-2.94,0.86,0.85,0.84
273.87,3.49,3.49,2.66,2.66,-2.65,-2.63,-2.95,0.85,0.84,0.83
276.61,3.49,3.49,2.67,2.67,-2.66,-2.64,-2.96,0.83,0.83,0.83
279.38,3.49,3.49,2.67,2.67,-2.68,-2.66,-2.97,0.82,0.82,0.82
282.17,3.49,3.50,2.68,2.69,-2.69,-2.68,-2.97,0.80,0.81,0.81
284.99,3.52,3.52,2.71,2.70,-2.71,-2.69,-2.98,0.82,0.81,0.82
287.84,3.54,3.53,2.72,2.72,-2.72,-2.71,-2.98,0.83,0.81,0.82
290.72,3.54,3.55,2.73,2.73,-2.73,-2.73,-2.99,0.81,0.82,0.81
293.63,3.54,3.56,2.74,2.74,-2.74,-2.75,-3.00,0.80,0.81,0.81
296.57,3.57,3.56,2.76,2.75,-2.76,-2.77,-3.00,0.82,0.81,0.81
299.53,3.58,3.58,2.77,2.77,-2.77,-2.79,-3.01,0.81,0.81,0.81
302.53,3.58,3.60,2.77,2.79,-2.78,-2.81,-3.02,0.80,0.82,0.81
305.55,3.62,3.61,2.81,2.79,-2.80,-2.83,-3.03,0.83,0.81,0.81
308.61,3.62,3.62,2.81,2.81,-2.81,-2.85,-3.04,0.81,0.81,0.81
311.69,3.62,3.64,2.81,2.83,-2.83,-2.87,-3.05,0.79,0.81,0.81
314.81,3.67,3.66,2.86,2.85,-2.85,-2.89,-3.06,0.82,0.81,0.81
317.96,3.67,3.68,2.86,2.87,-2.87,-2.91,-3.08,0.81,0.81,0.81
321.14,3.71,3.71,2.90,2.89,-2.89,-2.93,-3.09,0.83,0.82,0.81
324.35,3.71,3.72,2.90,2.90,-2.91,-2.95,-3.11,0.81,0.81,0.82
327.59,3.75,3.75,2.93,2.93,-2.93,-2.98,-3.13,0.83,0.82,0.82
330.87,3.75,3.76,2.94,2.94,-2.95,-3.00,-3.16,0.81,0.82,0.82
334.18,3.80,3.79,2.98,2.97,-2.97,-3.02,-3.18,0.84,0.82,0.82
337.52,3.80,3.81,2.98,2.99,-2.99,-3.05,-3.21,0.82,0.83,0.82
340.90,3.84,3.84,3.02,3.01,-3.01,-3.07,-3.24,0.84,0.83,0.83
344.30,3.85,3.86,3.02,3.03,-3.03,-3.09,-3.28,0.82,0.83,0.83
347.75,3.88,3.88,3.04,3.05,-3.05,-3.12,-3.31,0.83,0.83,0.84
351.23,3.91,3.91,3.08,3.07,-3.07,-3.14,-3.35,0.84,0.84,0.84
354.74,3.94,3.94,3.09,3.10,-3.09,-3.17,-3.39,0.85,0.85,0.85
358.28,3.97,3.97,3.12,3.12,-3.12,-3.20,-3.44,0.86,0.86,0.85
361.87,4.00,4.00,3.15,3.14,-3.14,-3.22,-3.49,0.87,0.86,0.86
365.49,4.01,4.03,3.15,3.16,-3.16,-3.25,-3.54,0.85,0.86,0.87
369.14,4.06,4.05,3.20,3.18,-3.18,-3.28,-3.59,0.88,0.87,0.86
372.83,4.07,4.08,3.19,3.20,-3.21,-3.30,-3.64,0.87,0.87,0.88
376.56,4.10,4.11,3.23,3.23,-3.23,-3.33,-3.70,0.87,0.88,0.88
380.33,4.14,4.13,3.26,3.25,-3.25,-3.36,-3.76,0.89,0.88,0.89
384.13,4.16,4.17,3.28,3.28,-3.28,-3.38,-3.82,0.89,0.89,0.88
387.97,4.19,4.20,3.30,3.30,-3.30,-3.41,-3.88,0.89,0.90,0.89
391.85,4.23,4.22,3.32,3.32,-3.33,-3.44,-3.95,0.91,0.90,0.91
395.77,4.25,4.26,3.35,3.35,-3.35,-3.47,-4.02,0.90,0.90,0.91
399.73,4.28,4.29,3.37,3.37,-3.38,-3.50,-4.09,0.91,0.91,0.91
403.72,4.32,4.32,3.40,3.41,-3.40,-3.53,-4.16,0.92,0.92,0.92
407.76,4.36,4.36,3.44,3.43,-3.43,-3.56,-4.23,0.93,0.93,0.92
411.84,4.39,4.39,3.46,3.46,-3.46,-3.59,-4.30,0.94,0.93,0.93
415.96,4.40,4.42,3.47,3.48,-3.48,-3.61,-4.37,0.92,0.93,0.94
420.12,4.45,4.45,3.52,3.51,-3.51,-3.64,-4.44,0.94,0.94,0.94
424.32,4.48,4.48,3.54,3.53,-3.54,-3.67,-4.52,0.95,0.94,0.94
428.56,4.51,4.52,3.56,3.57,-3.56,-3.70,-4.59,0.95,0.95,0.95
432.85,4.54,4.54,3.58,3.59,-3.59,-3.73,-4.66,0.96,0.96,0.96
437.18,4.58,4.58,3.62,3.62,-3.61,-3.76,-4.72,0.97,0.97,0.96
441.55,4.60,4.61,3.63,3.64,-3.63,-3.79,-4.79,0.97,0.97,0.97
445.96,4.64,4.64,3.67,3.66,-3.66,-3.82,-4.85,0.98,0.98,0.98
450.42,4.66,4.67,3.67,3.68,-3.68,-3.85,-4.91,0.98,0.99,1.00
454.93,4.71,4.71,3.71,3.70,-3.71,-3.88,-4.96,1.00,1.00,1.00
459.48,4.74,4.74,3.73,3.73,-3.73,-3.91,-5.01,1.01,1.01,1.01
464.07,4.77,4.78,3.76,3.76,-3.76,-3.94,-5.06,1.01,1.02,1.01
468.71,4.81,4.81,3.79,3.79,-3.79,-3.96,-5.09,1.02,1.02,1.02
473.40,4.85,4.85,3.82,3.82,-3.82,-3.99,-5.13,1.03,1.03,1.03
478.13,4.88,4.89,3.84,3.85,-3.85,-4.02,-5.15,1.03,1.04,1.04
482.91,4.93,4.93,3.88,3.88,-3.88,-4.05,-5.17,1.05,1.05,1.05
487.74,4.96,4.97,3.91,3.91,-3.91,-4.07,-5.18,1.05,1.06,1.06
492.62,5.01,5.01,3.95,3.94,-3.94,-4.10,-5.18,1.07,1.07,1.07
497.55,5.04,5.05,3.97,3.97,-3.97,-4.13,-5.18,1.07,1.08,1.08
502.52,5.09,5.09,4.01,4.00,-4.00,-4.15,-5.16,1.09,1.09,1.08
507.55,5.12,5.13,4.02,4.03,-4.03,-4.18,-5.14,1.09,1.10,1.10
512.62,5.18,5.17,4.07,4.06,-4.07,-4.20,-5.11,1.12,1.11,1.11
517.75,5.21,5.22,4.09,4.10,-4.10,-4.22,-5.07,1.11,1.12,1.12
522.93,5.26,5.26,4.13,4.13,-4.13,-4.25,-5.03,1.13,1.13,1.13
528.16,5.31,5.30,4.17,4.17,-4.17,-4.27,-4.97,1.15,1.14,1.14
533.44,5.34,5.35,4.19,4.20,-4.20,-4.29,-4.92,1.14,1.15,1.15
538.77,5.39,5.39,4.24,4.24,-4.23,-4.31,-4.85,1.16,1.16,1.15
544.16,5.44,5.44,4.27,4.27,-4.27,-4.33,-4.78,1.18,1.17,1.17
549.60,5.48,5.48,4.30,4.30,-4.30,-4.34,-4.70,1.18,1.19,1.18
555.10,5.52,5.52,4.33,4.33,-4.33,-4.36,-4.61,1.19,1.19,1.20
560.65,5.57,5.57,4.37,4.36,-4.37,-4.38,-4.53,1.20,1.20,1.21
