frequency,raw
20.00,-16.77
20.20,-16.53
20.40,-16.29
20.61,-16.05
20.81,-15.81
21.02,-15.57
21.23,-15.34
21.44,-15.11
21.66,-14.89
21.87,-14.66
22.09,-14.43
22.31,-14.21
22.54,-13.98
22.76,-13.75
22.99,-13.52
23.22,-13.30
23.45,-13.08
23.69,-12.86
23.92,-12.64
24.16,-12.42
24.40,-12.21
24.65,-12.00
24.89,-11.78
25.14,-11.57
25.39,-11.36
25.65,-11.15
25.91,-10.95
26.16,-10.73
26.43,-10.52
26.69,-10.31
26.96,-10.09
27.23,-9.89
27.50,-9.68
27.77,-9.48
28.05,-9.27
28.33,-9.06
28.62,-8.85
28.90,-8.64
29.19,-8.43
29.48,-8.22
29.78,-8.02
30.08,-7.81
30.38,-7.62
30.68,-7.43
30.99,-7.24
31.30,-7.05
31.61,-6.86
31.93,-6.66
32.24,-6.50
32.57,-6.34
32.89,-6.18
33.22,-6.05
33.55,-5.92
33.89,-5.80
34.23,-5.68
34.57,-5.56
34.92,-5.44
35.27,-5.32
35.62,-5.21
35.97,-5.10
36.33,-4.98
36.70,-4.85
37.06,-4.72
37.43,-4.58
37.81,-4.43
38.19,-4.30
38.57,-4.18
38.95,-4.06
39.34,-3.98
39.74,-3.91
40.14,-3.83
40.54,-3.73
40.94,-3.63
41.35,-3.50
41.76,-3.37
42.18,-3.22
42.60,-3.06
43.03,-2.90
43.46,-2.78
43.90,-2.66
44.33,-2.51
44.78,-2.35
45.23,-2.17
45.68,-1.96
46.13,-1.77
46.60,-1.59
47.06,-1.41
47.53,-1.21
48.01,-1.01
48.49,-0.78
48.97,-0.56
49.46,-0.38
49.96,-0.21
50.46,-0.02
50.96,0.16
51.47,0.27
51.99,0.39
52.51,0.52
53.03,0.64
53.56,0.70
54.10,0.78
54.64,0.92
55.18,1.07
55.74,1.27
56.29,1.37
56.86,1.39
57.42,1.92
58.00,2.62
58.58,2.72
59.16,2.55
59.76,1.72
60.35,1.35
60.96,1.34
61.57,1.30
62.18,1.22
62.80,1.04
63.43,0.94
64.07,0.86
64.71,0.67
65.35,0.55
66.01,0.47
66.67,0.46
67.33,0.51
68.01,0.61
68.69,0.78
69.37,0.99
70.07,1.24
70.77,1.55
71.48,1.86
72.19,2.17
72.91,2.49
73.64,2.83
74.38,3.17
75.12,3.49
75.87,3.80
76.63,4.08
77.40,4.35
78.17,4.60
78.95,4.85
79.74,5.08
80.54,5.31
81.35,5.51
82.16,5.68
82.98,5.85
83.81,6.00
84.65,6.15
85.50,6.28
86.35,6.41
87.22,6.54
88.09,6.65
88.97,6.75
89.86,6.81
90.76,6.87
91.66,6.94
92.58,7.02
93.51,7.12
94.44,7.21
95.39,7.28
96.34,7.36
97.30,7.43
98.28,7.48
99.26,7.52
100.25,7.56
101.25,7.58
102.27,7.59
103.29,7.61
104.32,7.63
105.37,7.64
106.42,7.66
107.48,7.67
108.56,7.69
109.64,7.68
110.74,7.68
111.85,7.66
112.97,7.64
114.10,7.63
115.24,7.62
116.39,7.60
117.55,7.58
118.73,7.58
119.92,7.59
121.12,7.60
122.33,7.60
123.55,7.60
124.79,7.58
126.03,7.55
127.29,7.50
128.57,7.45
129.85,7.38
131.15,7.33
132.46,7.28
133.79,7.25
135.12,7.23
136.48,7.19
137.84,7.15
139.22,7.09
140.61,7.04
142.02,6.98
143.44,6.94
144.87,6.89
146.32,6.87
147.78,6.86
149.26,6.85
150.75,6.83
152.26,6.82
153.78,6.79
155.32,6.75
156.88,6.72
158.44,6.69
160.03,6.66
161.63,6.64
163.24,6.62
164.88,6.59
166.53,6.55
168.19,6.50
169.87,6.44
171.57,6.36
173.29,6.28
175.02,6.20
176.77,6.13
178.54,6.05
180.32,5.97
182.13,5.88
183.95,5.79
185.79,5.73
187.65,5.66
189.52,5.59
191.42,5.52
193.33,5.45
195.27,5.38
197.22,5.31
199.19,5.25
201.18,5.20
203.19,5.15
205.23,5.11
207.28,5.06
209.35,5.02
211.44,4.97
213.56,4.92
215.69,4.87
217.85,4.82
220.03,4.76
222.23,4.69
224.45,4.61
226.70,4.53
228.96,4.44
231.25,4.37
233.57,4.30
235.90,4.24
238.26,4.19
240.64,4.14
243.05,4.09
245.48,4.04
247.93,3.98
250.41,3.93
252.92,3.87
255.45,3.80
258.00,3.74
260.58,3.69
263.19,3.64
265.82,3.59
268.48,3.55
271.16,3.50
273.87,3.45
276.61,3.40
279.38,3.34
282.17,3.29
284.99,3.24
287.84,3.18
290.72,3.13
293.63,3.08
296.57,3.02
299.53,2.97
302.53,2.91
305.55,2.86
308.61,2.81
311.69,2.76
314.81,2.70
317.96,2.65
321.14,2.60
324.35,2.56
327.59,2.52
330.87,2.47
334.18,2.43
337.52,2.39
340.90,2.35
344.30,2.31
347.75,2.27
351.23,2.24
354.74,2.20
358.28,2.17
361.87,2.15
365.49,2.12
369.14,2.10
372.83,2.09
376.56,2.07
380.33,2.05
384.13,2.04
387.97,2.03
391.85,2.02
395.77,2.02
399.73,2.02
403.72,2.02
407.76,2.02
411.84,2.03
415.96,2.04
420.12,2.05
424.32,2.05
428.56,2.06
432.85,2.07
437.18,2.08
441.55,2.09
445.96,2.10
450.42,2.13
454.93,2.19
459.48,2.25
464.07,2.33
468.71,2.40
473.40,2.47
478.13,2.54
482.91,2.59
487.74,2.63
492.62,2.68
497.55,2.75
502.52,2.83
507.55,2.91
512.62,3.01
517.75,3.12
522.93,3.23
528.16,3.33
533.44,3.45
538.77,3.56
544.16,3.67
549.60,3.78
555.10,3.91
560.65,4.04
566.25,4.16
571.92,4.29
577.64,4.41
583.41,4.54
589.25,4.67
595.14,4.82
601.09,4.96
607.10,5.09
613.17,5.21
619.30,5.33
625.50,5.47
631.75,5.60
638.07,5.73
644.45,5.84
650.89,5.93
657.40,6.00
663.98,6.04
670.62,6.07
677.32,6.09
684.10,6.08
690.94,6.06
697.85,6.03
704.83,6.01
711.87,5.95
718.99,5.88
726.18,5.82
733.44,5.75
740.78,5.66
748.19,5.56
755.67,5.43
763.23,5.29
770.86,5.13
778.57,4.94
786.35,4.77
794.22,4.58
802.16,4.39
810.18,4.20
818.28,3.98
826.46,3.75
834.73,3.51
843.08,3.24
851.51,2.96
860.02,2.68
868.62,2.40
877.31,2.12
886.08,1.87
894.94,1.62
903.89,1.40
912.93,1.20
922.06,1.03
931.28,0.88
940.59,0.74
950.00,0.62
959.50,0.47
969.09,0.33
978.78,0.20
988.57,0.09
998.46,0.01
1008.44,0.00
1018.53,0.06
1028.71,0.18
1039.00,0.35
1049.39,0.58
1059.88,0.85
1070.48,1.13
1081.19,1.41
1092.00,1.66
1102.92,1.90
1113.95,2.13
1125.09,2.31
1136.34,2.44
1147.70,2.44
1159.18,2.27
1170.77,2.00
1182.48,1.85
1194.30,2.02
1206.25,2.40
1218.31,2.69
1230.49,2.64
1242.80,2.14
1255.22,1.42
1267.78,0.71
1280.45,0.03
1293.26,-0.69
1306.19,-1.39
1319.25,-1.91
1332.45,-2.10
1345.77,-1.73
1359.23,-0.93
1372.82,-0.12
1386.55,0.11
1400.41,-0.24
1414.42,-0.85
1428.56,-1.41
1442.85,-1.80
1457.28,-1.95
1471.85,-1.85
1486.57,-1.57
1501.43,-1.26
1516.45,-1.13
1531.61,-1.18
1546.93,-1.32
1562.40,-1.40
1578.02,-1.33
1593.80,-1.23
1609.74,-1.21
1625.84,-1.34
1642.10,-1.57
1658.52,-1.82
1675.10,-2.03
1691.85,-2.22
1708.77,-2.41
1725.86,-2.63
1743.12,-2.87
1760.55,-3.06
1778.15,-3.19
1795.94,-3.31
1813.90,-3.41
1832.03,-3.48
1850.36,-3.47
1868.86,-3.42
1887.55,-3.31
1906.42,-3.16
1925.49,-2.94
1944.74,-2.69
1964.19,-2.40
1983.83,-2.14
2003.67,-1.93
2023.71,-1.77
2043.94,-1.61
2064.38,-1.37
2085.03,-1.03
2105.88,-0.60
2126.94,-0.16
2148.20,0.27
2169.69,0.63
2191.38,0.93
2213.30,1.18
2235.43,1.43
2257.78,1.77
2280.36,2.19
2303.17,2.62
2326.20,3.02
2349.46,3.38
2372.95,3.75
2396.68,4.21
2420.65,4.72
2444.86,5.14
2469.31,5.38
2494.00,5.52
2518.94,5.61
2544.13,5.60
2569.57,5.47
2595.27,5.26
2621.22,5.02
2647.43,4.76
2673.90,4.51
2700.64,4.25
2727.65,3.98
2754.93,3.70
2782.48,3.42
2810.30,3.08
2838.40,2.66
2866.79,2.14
2895.46,1.55
2924.41,0.89
2953.65,0.18
2983.19,-0.54
3013.02,-1.32
3043.15,-2.30
3073.58,-3.50
3104.32,-4.93
3135.36,-6.74
3166.72,-8.89
3198.38,-10.92
3230.37,-12.05
3262.67,-11.89
3295.30,-10.94
3328.25,-10.14
3361.53,-9.93
3395.15,-10.31
3429.10,-10.91
3463.39,-11.44
3498.03,-11.69
3533.01,-11.61
3568.34,-11.40
3604.02,-11.62
3640.06,-12.53
3676.46,-12.27
3713.22,-10.11
3750.36,-7.66
3787.86,-5.71
3825.74,-4.13
3864.00,-2.98
3902.64,-2.23
3941.66,-1.85
3981.08,-1.74
4020.89,-1.77
4061.10,-1.85
4101.71,-1.96
4142.73,-2.11
4184.15,-2.35
4226.00,-2.70
4268.26,-3.24
4310.94,-4.01
4354.05,-5.00
4397.59,-6.01
4441.56,-6.72
4485.98,-6.92
4530.84,-6.52
4576.15,-5.76
4621.91,-4.85
4668.13,-3.88
4714.81,-2.89
4761.96,-1.88
4809.58,-0.85
4857.67,0.16
4906.25,1.15
4955.31,2.03
5004.87,2.78
5054.91,3.35
5105.46,3.75
5156.52,4.02
5208.08,4.19
5260.16,4.28
5312.77,4.32
5365.89,4.38
5419.55,4.38
5473.75,4.26
5528.49,4.05
5583.77,3.82
5639.61,3.58
5696.00,3.32
5752.96,3.07
5810.49,2.85
5868.60,2.68
5927.28,2.57
5986.56,2.50
6046.42,2.46
6106.89,2.47
6167.96,2.51
6229.64,2.63
6291.93,2.82
6354.85,3.06
6418.40,3.24
6482.58,3.28
6547.41,3.19
6612.88,3.11
6679.01,3.21
6745.80,3.47
6813.26,3.78
6881.39,3.94
6950.21,3.84
7019.71,3.51
7089.91,2.97
7160.81,2.34
7232.41,1.71
7304.74,1.20
7377.79,0.84
7451.56,0.59
7526.08,0.40
7601.34,0.26
7677.35,0.16
7754.13,0.10
7831.67,0.04
7909.98,-0.11
7989.08,-0.42
8068.98,-1.02
8149.67,-1.87
8231.16,-2.64
8313.47,-2.45
8396.61,-0.91
8480.57,1.41
8565.38,3.54
8651.03,5.06
8737.54,5.94
8824.92,6.36
8913.17,6.35
9002.30,5.81
9092.32,4.64
9183.25,3.21
9275.08,1.56
9367.83,-0.63
9461.51,-2.94
9556.12,-5.00
9651.68,-6.75
9748.20,-8.11
9845.68,-9.09
9944.14,-9.82
10043.58,-10.48
10144.02,-11.12
10245.46,-11.66
10347.91,-11.98
10451.39,-12.06
10555.91,-11.90
10661.46,-11.51
10768.08,-10.78
10875.76,-9.83
10984.52,-8.91
11094.36,-8.17
11205.31,-7.42
11317.36,-6.45
11430.53,-5.34
11544.84,-4.55
11660.29,-4.09
11776.89,-3.40
11894.66,-2.28
12013.60,-1.40
12133.74,-1.01
12255.08,-0.86
12377.63,-0.64
12501.41,-0.34
12626.42,-0.13
12752.68,0.01
12880.21,0.31
13009.01,0.61
13139.10,0.55
13270.49,0.25
13403.20,0.02
13537.23,0.07
13672.60,0.26
13809.33,0.32
13947.42,0.31
14086.90,0.52
14227.77,0.95
14370.04,1.41
14513.74,1.74
14658.88,1.79
14805.47,1.33
14953.52,0.65
15103.06,0.37
15254.09,0.64
15406.63,0.79
15560.70,0.23
15716.30,-0.92
15873.47,-2.19
16032.20,-3.14
16192.52,-3.73
16354.45,-4.09
16517.99,-4.59
16683.17,-5.49
16850.01,-6.72
17018.51,-7.81
17188.69,-8.51
17360.58,-8.91
17534.18,-9.08
17709.53,-8.95
17886.62,-8.68
18065.49,-8.21
18246.14,-7.40
18428.60,-6.63
18612.89,-6.13
18799.02,-5.86
18987.01,-5.90
19176.88,-6.35
19368.65,-7.05
19562.33,-7.75
19757.96,-8.38
19955.54,-9.10
