frequency,raw,error,smoothed,error_smoothed,equalization,equalized_raw,equalized_smoothed,target
20,-6.595016658156638,-10.71563740876455,-6.5651452778709505,-10.685784273049244,5.999999999999999,-0.5950166581566387,-0.5651452778709514,4.120620750607913
21,-6.235294127029317,-10.38752927173865,-6.237661616645249,-10.389886137158888,6.0,-0.2352941270293174,-0.23766161664524876,4.152235144709332
22,-5.890993669650884,-10.071442149674379,-5.928140212996634,-10.108566631357771,6.0,0.109006330349116,0.07185978700336637,4.180448480023496
23,-5.63117854813441,-9.836437898455948,-5.636581066925106,-9.841825755645896,6.0,0.3688214518655899,0.36341893307489403,4.205259350321538
24,-5.3139341560145485,-9.540600252468785,-5.3629841784306596,-9.589663510023247,5.999999999999998,0.6860658439854497,0.6370158215693387,4.2266660964542355
25,-5.108572071545172,-9.35323884645097,-5.1083412424647925,-9.35307994319917,6.0,0.8914279284548279,0.8916587575352075,4.244666774905798
26,-4.88524654321408,-9.14450566726434,-4.871597680676986,-9.131016086918448,5.999999999999999,1.1147534567859188,1.1284023193230128,4.259259124050261
27,-4.668781835354085,-8.939291309064625,-4.65168255627926,-8.92239265400874,6.0,1.3312181646459154,1.34831744372074,4.270509473710542
28,-4.418956780692599,-8.697318421278547,-4.446933373009598,-8.725527674198556,6.000000000000001,1.5810432193074018,1.553066626990403,4.278361640585948
29,-4.2817982673520065,-8.564584958863719,-4.255167832203764,-8.538203853095132,6.000000000000002,1.7182017326479953,1.744832167796238,4.282786691511712
30,-4.081517143785268,-8.365254832446062,-4.0741980681992285,-8.358181522836993,6.0,1.918482856214732,1.9258019318007715,4.2837376886607945
31,-3.8405863243877087,-8.121733191262589,-3.9018272211717546,-8.183192248011672,5.999999999999999,2.1594136756122904,2.0981727788282445,4.281146866874879
32,-3.7789247041336127,-8.053848985660078,-3.73615371452074,-8.01124324748735,6.0,2.2210752958663873,2.26384628547926,4.274924281526465
33,-3.5777752788462536,-7.842733899254448,-3.575783749152886,-7.84083171753792,6.0,2.4222247211537464,2.424216250847114,4.264958620408194
34,-3.4534492581841825,-7.7045813141192205,-3.4199470141541557,-7.671064318522221,5.9999999999999964,2.546550741815814,2.5800529858458408,4.251132055935038
35,-3.274731033198657,-7.508045594456793,-3.268568016587935,-7.501734796395541,6.000000000000001,2.7252689668013437,2.7314319834120657,4.233314561258136
36,-3.136080776180729,-7.347455893684053,-3.122164491164003,-7.3332308313402415,6.000000000000001,2.863919223819272,2.877835508835998,4.211375117503325
37,-2.9743270029841877,-7.15951920792101,-2.9816207075122785,-7.1663180598753256,5.999999999999999,3.0256729970158114,3.0183792924877206,4.185192204936822
38,-2.8059349815597305,-6.960601432699175,-2.8478824179430857,-7.001847890708847,6.000000000000002,3.1940650184402712,3.152117582056916,4.154666451139444
39,-2.734974100500533,-6.854709190346298,-2.7216512360651977,-6.840466632749553,5.999999999999999,3.265025899499466,3.2783487639348015,4.119735089845765
40,-2.5720281524095068,-6.65241591432897,-2.6031814457521074,-6.682428577351033,5.999999999999998,3.4279718475904914,3.396818554247891,4.0803877619194635
41,-2.4513384972372783,-6.488023409278341,-2.492230518096129,-6.527563718325156,6.000000000000001,3.5486615027627226,3.507769481903872,4.036684912041063
42,-2.4915683822946657,-6.480343810248252,-2.388161571675572,-6.375397574330085,5.999999999999999,3.5084316177053334,3.611838428324427,3.9887754279535863
43,-2.2501890719482307,-6.1871029573276175,-2.290139267055311,-6.225363667539925,5.974424010509674,3.7242349385614433,3.684284743454363,3.9369138853793864
44,-2.238789061162488,-6.120265163979847,-2.1973297661494122,-6.077018222927359,5.920792232766233,3.6820031716037445,3.7234624666168203,3.881476102817359
45,-2.0490396466566407,-5.872011487155711,-2.109029134526196,-5.9301803411544665,5.841046196313848,3.7920065496572075,3.7320170617876522,3.8229718404990702
46,-2.0756679868609957,-5.837721421985364,-2.024686773849694,-5.784963112568968,5.741984944034332,3.6663169571733363,3.717298170184638,3.762053435124368
47,-1.8779619781215788,-5.577481166848585,-1.9438419321938638,-5.641712679339313,5.628283847829438,3.7503218697078595,3.6844419156355745,3.699519188727006
48,-1.868005164007424,-5.504315897311069,-1.8660277102220209,-5.5009087750341905,5.5009087750341905,3.6329036110267667,3.63488106481217,3.6363107333036453
49,-1.843188845498104,-5.416692386664732,-1.790703108775767,-5.363086618800001,5.363086618800001,3.5198977733018966,3.572383510024234,3.573503541166627
50,-1.698824496613991,-5.211114651023071,-1.7172529731369917,-5.2288196335238,5.2288196335238,3.5299951369098093,3.5115666603868085,3.5122901544090803
51,-1.6668557378929996,-5.1208117764964625,-1.6450611404164683,-5.098768241823752,5.09876824182375,3.4319125039307505,3.4537071014072818,3.453956038603463
52,-1.5723723850124527,-4.9722207364909,-1.5736323809765596,-4.973770646738144,4.973770646738146,3.401398261725693,3.400138265761586,3.3998483514784477
53,-1.4657063120156142,-4.817044627650921,-1.5027253501832676,-4.8549385141435515,4.854938514143553,3.389232202127939,3.3522131639602857,3.351338315635306
54,-1.4657063137924848,-4.775484581776558,-1.4324629825235364,-4.74372506883504,4.74372506883504,3.2780187550425555,3.311262086311504,3.309778267984073
55,-1.3249017205832474,-4.601356567445833,-1.363401730308079,-4.64194843696119,4.64194843696119,3.3170467163779427,3.278546706653111,3.2764548468625856
56,-1.405361497537696,-4.657901584151224,-1.2965559475962722,-4.551768265280779,4.551768265280778,3.146406767743082,3.2552123176845056,3.2525400866135277
57,-1.1985243719897352,-4.437566805812688,-1.2333801634384682,-4.475620318552888,4.475620318552888,3.2770959465631533,3.2422401551144198,3.239042433822953
58,-1.1237523064979076,-4.360512157120236,-1.1757092962919993,-4.416111202064406,4.416111202064405,3.2923588955664975,3.240401905772406,3.2367598506223283
59,-1.1639821722732,-4.410219388051823,-1.1256497186207484,-4.375868248969182,4.375868248969181,3.211886076695981,3.2502185303484326,3.2462372157786232
60,-1.0572973284911271,-4.325027493343167,-1.085412321533573,-4.357337778603702,4.357337778603702,3.300040450112575,3.271925457070129,3.26773016485204
61,-1.0605603944528084,-4.361737717303674,-1.0570889131820609,-4.362534930365435,4.362534930365435,3.3019745359126262,3.3054460171833737,3.301177322850865
62,-1.0791007505653027,-4.425283336262005,-1.0423958276012113,-4.392770529536829,4.392770529536829,3.3136697789715264,3.3503747019356176,3.346182585696703
63,-0.9628325082121212,-4.364841218095287,-1.0424345094540473,-4.44840594517003,4.448405945170031,3.4855734369579103,3.4059714357159843,3.4020087098831655
64,-1.0976938721670102,-4.565276864332304,-1.0575309973236733,-4.528698596247077,4.528698596247077,3.4310047240800667,3.4711675989234037,3.4675829921652936
65,-1.0777769064596965,-4.619292193198386,-1.0872009399160052,-4.63178495954099,4.631784959540989,3.554008053081292,3.5445840196249834,3.541515286738689
66,-1.0634082157736429,-4.685536259901758,-1.130243125009677,-4.754803737420122,4.754803737420125,3.691395521646482,3.624560612410448,3.6221280441281154
67,-1.196174894553483,-4.903672388776691,-1.1849082026165547,-4.894105006702718,4.894105006702716,3.6979301121492334,3.7091968040861616,3.707497494223208
68,-1.262167859681988,-5.057672425816582,-1.249050954315286,-5.0454523319402345,5.0454523319402345,3.7832844722582464,3.7964013776249486,3.7955045661345936
69,-1.318602446686208,-5.202496116112492,-1.320183461409164,-5.204133378663563,5.204133378663563,3.885530931977355,3.883949917254399,3.8838936694262842
70,-1.4534099432509522,-5.423747024228624,-1.3954117315204846,-5.364959406611508,5.364959406611508,3.9115494633605556,3.9695476750910235,3.970337080977672
71,-1.5447982591438583,-5.597300669732013,-1.4713343320728551,-5.522229754548229,5.5222297545482295,3.977431495404371,4.050895422475374,4.052502410588154
72,-1.36512609135911,-5.493246562927415,-1.5440553670622745,-5.669811074873612,5.669811074873611,4.304684983514501,4.1257557078113365,4.128120471568305
73,-1.5526517624104703,-5.747702630309252,-1.6094636184844089,-5.801480539680647,5.801480539680645,4.248828777270175,4.192016921196236,4.195050867898782
74,-1.7178750715472475,-5.969217798906326,-1.6638321271114633,-5.911584799761712,5.908897317744567,4.19102224619732,4.245065190633104,4.251342727359079
75,-1.8004546093542133,-6.095742862279584,-1.704625437530427,-5.995899655643857,5.99166589183337,4.1912112824791565,4.287040454302943,4.295288252925371
76,-1.7673885994785818,-6.0928557176566,-1.7312406944509298,-6.052414706471788,6.050744570023433,4.283355970544851,4.319503875572503,4.325467118178018
77,-1.914410110507974,-6.255190286249626,-1.7453440443258956,-6.081702968250928,6.087046146183994,4.172636035676019,4.341702101858099,4.340780175741651
78,-1.7131843581471644,-6.053655813548164,-1.7505503007598862,-6.086622494745131,6.101440554333138,4.388256196185973,4.350890253573252,4.3404714554009995
79,-1.6665525798125334,-5.990690551659828,-1.7514165258333683,-6.0713202566522115,6.094598810631814,4.42804623081928,4.343182284798445,4.3241379718472945
80,-1.5664198045380426,-5.858147215596199,-1.751995510369381,-6.039784284539447,6.066853534441051,4.500433729903008,4.31485802407167,4.291727411058156
81,-1.7460224113133294,-5.989546701028697,-1.754406358568638,-5.994401579368178,6.018952851157801,4.272930439844472,4.2645464925891625,4.243524289715368
82,-1.7678195400690084,-5.947945196868102,-1.7579266725483293,-5.9350268297365965,5.9516413918770095,4.183821851808001,4.19371471932868,4.180125656799094
83,-1.7679329663232215,-5.870340773818141,-1.7589612820566973,-5.858917814745675,5.865630684573181,4.097697718249959,4.106669402516483,4.102407807494919
84,-1.7679796286993952,-5.779465417670018,-1.7519492755146806,-5.7616009551391265,5.761600955139126,3.9936213264397304,4.0096516796244455,4.011485788970623
85,-1.7689870077924517,-5.6776546914909884,-1.7309491903057492,-5.638409799212282,5.638409799212285,3.8694227914198334,3.907460608906536,3.908667683698537
86,-1.8186898952597268,-5.6140956489199425,-1.6914132219983797,-5.486211502523723,5.486211502523722,3.6675216072639953,3.7947982805253426,3.795405753660216
87,-1.591697306412167,-5.264943825794293,-1.63160498066857,-5.304780433221893,5.304780433221893,3.7130831268097264,3.6731754525533233,3.673246519382126
88,-1.5890093980251754,-5.13279113688038,-1.5532431960231312,-5.09740446008488,5.097404460084881,3.508395062059706,3.54416126406175,3.543781738855204
89,-1.542000668089559,-4.950602723928465,-1.4612093767897927,-4.8705614691856365,4.870561469185638,3.328560801096079,3.409352092395846,3.4086020558389056
90,-1.3316902827545405,-4.600945104629363,-1.362443468925908,-4.632784889216838,4.632784889216837,3.3010946064622964,3.2703414202909293,3.2692548218748225
91,-1.1238182543242832,-4.251025535730379,-1.26437357745829,-4.393055253593671,4.393055253593673,3.2692369992693893,3.1286816761353826,3.1272072814060956
92,-1.1975225247499766,-4.181338490719612,-1.1733255597084034,-4.159154834837189,4.159154834837189,2.961632310087212,2.9858292751287854,2.9838159659696353
93,-1.068880102500623,-3.90918289518285,-1.0933240317766848,-3.936394497305127,3.936394497305126,2.8675143948045028,2.843070465528441,2.8403027926822273
94,-0.9319968066317634,-3.6297348305735073,-1.0255543826078721,-3.726991729011152,3.7269917290111523,2.794994922379389,2.70143734640328,2.697738023941744
95,-0.9968909660068012,-3.553920902604225,-0.9685573724075749,-3.5301936425655427,3.530193642565543,2.533302676558742,2.561636270157968,2.5570299365974236
96,-0.9511403657399756,-3.3700611492639143,-0.9190331745365843,-3.343051403355972,3.3430514033559717,2.391911037615996,2.4240182288193877,2.4189207835239386
97,-0.8716866425295154,-3.155675060754655,-0.8729888613341448,-3.161605716407874,3.1616057164078737,2.2899190738783584,2.288616855073729,2.2839884182251398
98,-0.8934464016486301,-3.046099200798774,-0.8269016312428625,-2.982163978108188,2.9821639781081877,2.0887175764595574,2.1552623468653254,2.152652799150144
99,-0.79960627668518,-2.8247927726316964,-0.7785982660448543,-2.8023511452646597,2.802351145264659,2.002744868579479,2.0237528792198045,2.0251864959465165
100,-0.6784364686590225,-2.580164750810898,-0.7276567649313868,-2.6216954896701203,2.621695489670121,1.9432590210110983,1.894038724738734,1.9017282821518755
101,-0.7154168962029979,-2.4977158080263386,-0.6752857306249925,-2.4416459429123725,2.441645942912373,1.726229046709375,1.7663602122873803,1.7822989118233408
102,-0.6870696568699892,-2.353887889704279,-0.6237850466021351,-2.2650722379259394,2.265072237925939,1.5780025810559497,1.6412871913238039,1.6668182328342898
104,-0.5146225428991444,-2.0077807946908894,-0.5757937218317435,-2.0954289772035986,2.0954289772035986,1.5808064343044541,1.519635255371855,1.493158251791745
105,-0.4392256829911487,-1.8241640532196715,-0.5335597367533664,-1.9358339800016313,1.9358339800016309,1.4966082970104821,1.4022742432482644,1.3849383702285227
106,-0.4857996584670358,-1.7659194180734386,-0.4984190144406014,-1.7883021024334194,1.7883021024334196,1.3025024439663837,1.2898830879928183,1.2801197596064027
107,-0.5221130144621383,-1.7005026491148079,-0.4705714988953901,-1.6532984880945187,1.6532984880945185,1.1311854736323803,1.1827269891991286,1.1783896346526697
108,-0.4558534512823689,-1.5352699045955867,-0.44913579353955424,-1.52966469961754,1.5296646996175398,1.073811248335171,1.0805289060779857,1.0794164533132178
109,-0.43888557824428653,-1.421748740259463,-0.43239243331837107,-1.414870778385374,1.4148707783853745,0.9759852001410879,0.9824783450670034,0.9828631620151764
110,-0.3915737369399013,-1.2799725684399017,-0.41811097165908895,-1.305487758614086,1.305487758614086,0.9139140216741848,0.8873767869549971,0.8883988315000004
111,-0.40751077489884735,-1.2032194115009842,-0.4038892531550037,-1.1977657763331635,1.197765776333164,0.7902550014343166,0.7938765231781603,0.7957086366021369
112,-0.419999245742945,-1.1245014269472642,-0.38748197911927873,-1.0882247345875167,1.0882247345875167,0.6682254888445717,0.7007427554682379,0.7045021812043191
113,-0.3797497692345581,-0.9942699704882019,-0.3671223234320037,-0.9741884673846499,0.9741884673846498,0.5944386981500918,0.6070661439526461,0.6145202012536437
114,-0.2732593334118498,-0.79879903073073,-0.34182442487180953,-0.8541985558725946,0.8541985558725947,0.5809392224607449,0.5123741310007852,0.5255396973188802
115,-0.2953382231572441,-0.7327157807417011,-0.31160860006241864,-0.7282338916085297,0.7282338916085299,0.4328956684512858,0.4166252915461113,0.43737755758445696
117,-0.3790072008579961,-0.6741872212606432,-0.2775530359251003,-0.5976609830080946,0.5976609830080944,0.21865378215009834,0.32010794708299417,0.2951800204026471
118,-0.3914496803036731,-0.6008486314131027,-0.24158500576968994,-0.46487450422165766,0.46487450422165755,0.07342482391798444,0.2232894984519676,0.20939895110942963
119,-0.10597578176165025,-0.23016378368879908,-0.20599747608260122,-0.3326666752352816,0.3326666752352816,0.22669089347363136,0.12666919915268038,0.12418800192714885
120,-0.05757643536142499,-0.09710152244336379,-0.17279204420737748,-0.20346678592382564,0.2034667859238257,0.1458903505624007,0.03067474171644821,0.0395250870819388
121,-0.09186586206241065,-0.047292004628450846,-0.1430524182069311,-0.0786713974019105,0.0786713974019105,-0.013194464660500158,-0.0643810208050206,-0.04457385743395981
123,-0.10266448176327671,0.07279257330759802,-0.11658421993000634,0.0417076117068902,-0.04170761170689019,-0.14437209347016688,-0.15829183163689653,-0.17545705507087472
124,-0.10993573820995908,0.1470059693993024,-0.09198566877336362,0.15893710760970586,-0.15893710760970586,-0.268872845819665,-0.2509227763830695,-0.2569417076092615
125,-0.14613449903418552,0.19148485459349818,-0.067159705522441,0.2750148798190173,-0.2750148798190173,-0.4211493788532028,-0.3421745853414583,-0.3376193536276837
126,-0.10600153391093681,0.3113712943811269,-0.040103914938923485,0.39186023974141304,-0.391860239741413,-0.4978617736523498,-0.43196415468033644,-0.4173728282920637
128,0.02681040380001142,0.5637064461258079,-0.009696227136357035,0.5105268251179262,-0.5105268251179264,-0.4837164213179149,-0.5202230522542833,-0.5368960423257965
129,0.03291999444272274,0.6460202011764766,0.02381286818733299,0.6307166023370973,-0.6307166023370974,-0.5977966078943746,-0.6069037341497644,-0.6131002067337539
130,0.03857440289211798,0.7265644416926715,0.05878020155218179,0.7507598024201801,-0.7507598024201804,-0.7121853995280624,-0.6919796008679986,-0.6879900388005535
131,0.04379619446597459,0.8052332825026884,0.09261953700003003,0.8680503199618722,-0.8680503199618722,-0.8242541254958976,-0.7754307829618422,-0.7614370880367138
133,0.20950768132384567,1.0772819452890334,0.12254554563782552,0.979763906713013,-0.9797639067130133,-0.7702562253891676,-0.8572183610751878,-0.8677742639651878
134,0.1991020836495425,1.135879603074486,0.14634200789465418,1.0836008618561057,-1.0836008618561057,-0.8844987782065632,-0.9372588539614515,-0.9367775194249435
135,0.1573334761234193,1.1613824555102454,0.1628991672355975,1.1783121476769258,-1.1783121476769258,-1.0209786715535065,-1.0154129804413283,-1.0040489793868261
137,0.16060129730393324,1.2598693727529144,0.17237445277120683,1.2638713428299684,-1.2638713428299684,-1.1032700455260351,-1.0914968900587616,-1.0992680754489812
138,0.16324697804121846,1.3250250099792396,0.17598178834101783,1.341295445539689,-1.3412954455396893,-1.1780484674984708,-1.1653136571986715,-1.161778031938021
140,0.16523706683494122,1.4141868973157068,0.17554175523153226,1.4122347777627433,-1.4122347777627433,-1.246997710927802,-1.236693022531211,-1.2489498304807656
141,0.16657616619422375,1.4732858880402646,0.17298019247336693,1.4785034054309354,-1.4785034054309356,-1.3119272392367118,-1.3055232129575687,-1.3067097218460408
142,0.16731543942345573,1.5299340937681345,0.16993631962740424,1.5416986518157902,-1.541698651815791,-1.3743832123923352,-1.3717623321883867,-1.3626186543446788
144,0.16755311506025006,1.6068764900876478,0.16755891588119196,1.6029851344516062,-1.6029851344516062,-1.4354320193913561,-1.4354262185704143,-1.4393233750273977
145,0.16742689485562967,1.6580806994452721,0.16647506491868463,1.663034995997041,-1.6630349959970407,-1.495608101141411,-1.4965599310783562,-1.4906538045896425
147,0.1670994131791934,1.7273425675700427,0.1668533758636599,1.7220596096177532,-1.7220596096177532,-1.5549601964385598,-1.5552062337540933,-1.5602431543908493
148,0.1667386996122291,1.7739160640357063,0.16847571778899034,1.7798598723168468,-1.7798598723168462,-1.613121172704617,-1.6113841545278558,-1.6071773644234773
150,0.1664959893609359,1.8365799266554628,0.17077287713937767,1.8358576140159621,-1.8358576140159628,-1.669361624655027,-1.665084736876585,-1.6700839372945269
151,0.1664833561460457,1.8792351936883611,0.1728404748243147,1.8891229195681098,-1.88912291956811,-1.7226395634220644,-1.7162824447437954,-1.7127518375423154
153,0.1667536608361233,1.9360658664749513,0.17349549110104417,1.9384491401059591,-1.9384491401059596,-1.7716954792698363,-1.7649536490049154,-1.769312205638828
154,0.16728530621074622,1.9750259190671464,0.17143619639995228,1.9825275645977998,-1.9825275645977998,-1.8152422583870536,-1.8110913681978476,-1.8077406128564002
156,0.16797427186361413,2.026130969139425,0.16552655608161707,2.02023504271887,-2.02023504271887,-1.852260770855256,-1.8547084866372532,-1.8581566972758106
157,0.16863578540079338,2.060888883100368,0.1551599273951515,2.0509879536378524,-2.050987953637852,-1.8823521682370585,-1.8958280262427003,-1.8922530976995748
159,0.16901757752169733,2.1056124221986736,0.1405986706445245,2.0750641465844795,-2.0750641465844795,-1.9060465690627821,-1.9344654759399549,-1.9365948446769763
