frequency,raw,smoothed,error,error_smoothed,equalization,parametric_eq,fixed_band_eq,equalized_raw,equalized_smoothed,target
20.00,11.21,11.21,3.89,3.89,-3.89,-2.68,-1.53,7.32,7.32,7.32
20.20,11.20,11.20,3.88,3.88,-3.88,-2.68,-1.57,7.32,7.32,7.32
20.40,11.19,11.19,3.87,3.87,-3.87,-2.68,-1.62,7.32,7.32,7.32
20.61,11.18,11.18,3.86,3.86,-3.86,-2.68,-1.67,7.32,7.32,7.32
20.81,11.17,11.17,3.85,3.85,-3.85,-2.68,-1.72,7.32,7.32,7.32
21.02,11.16,11.16,3.84,3.84,-3.84,-2.68,-1.77,7.32,7.32,7.32
21.23,11.15,11.15,3.83,3.83,-3.83,-2.68,-1.82,7.32,7.32,7.32
21.44,11.14,11.14,3.82,3.82,-3.82,-2.68,-1.87,7.32,7.32,7.32
21.66,11.13,11.13,3.81,3.81,-3.81,-2.68,-1.93,7.32,7.31,7.32
21.87,11.12,11.12,3.80,3.81,-3.80,-2.67,-1.99,7.31,7.32,7.31
22.09,11.11,11.11,3.80,3.80,-3.79,-2.67,-2.05,7.32,7.31,7.31
22.31,11.10,11.10,3.79,3.78,-3.78,-2.67,-2.11,7.32,7.31,7.31
22.54,11.08,11.08,3.77,3.77,-3.77,-2.67,-2.17,7.31,7.31,7.31
22.76,11.07,11.07,3.76,3.76,-3.76,-2.67,-2.23,7.31,7.31,7.31
22.99,11.06,11.06,3.75,3.75,-3.75,-2.67,-2.30,7.31,7.31,7.31
23.22,11.04,11.04,3.73,3.73,-3.73,-2.67,-2.36,7.31,7.31,7.31
23.45,11.03,11.03,3.72,3.72,-3.72,-2.67,-2.43,7.31,7.31,7.31
23.69,11.01,11.01,3.70,3.70,-3.71,-2.67,-2.50,7.30,7.31,7.31
23.92,11.00,11.00,3.69,3.69,-3.69,-2.67,-2.57,7.31,7.31,7.31
24.16,10.98,10.98,3.67,3.68,-3.68,-2.67,-2.64,7.30,7.30,7.30
24.40,10.97,10.97,3.67,3.66,-3.66,-2.66,-2.71,7.31,7.30,7.30
24.65,10.95,10.95,3.65,3.65,-3.65,-2.66,-2.79,7.30,7.30,7.30
24.89,10.94,10.94,3.64,3.64,-3.64,-2.66,-2.86,7.30,7.30,7.30
25.14,10.92,10.92,3.62,3.62,-3.62,-2.66,-2.94,7.30,7.30,7.30
25.39,10.90,10.90,3.60,3.61,-3.61,-2.66,-3.01,7.29,7.30,7.30
25.65,10.89,10.89,3.59,3.59,-3.59,-2.66,-3.09,7.30,7.30,7.30
25.91,10.87,10.87,3.57,3.57,-3.57,-2.66,-3.16,7.30,7.30,7.29
26.16,10.85,10.85,3.56,3.56,-3.56,-2.66,-3.24,7.29,7.29,7.29
26.43,10.83,10.83,3.54,3.54,-3.54,-2.65,-3.31,7.29,7.29,7.29
26.69,10.81,10.81,3.52,3.52,-3.52,-2.65,-3.39,7.29,7.29,7.29
26.96,10.79,10.79,3.50,3.50,-3.50,-2.65,-3.46,7.29,7.29,7.29
27.23,10.77,10.77,3.48,3.48,-3.48,-2.65,-3.53,7.29,7.29,7.29
27.50,10.75,10.75,3.46,3.46,-3.46,-2.65,-3.60,7.28,7.28,7.28
27.77,10.73,10.73,3.45,3.45,-3.45,-2.65,-3.66,7.28,7.28,7.28
28.05,10.71,10.71,3.43,3.43,-3.43,-2.64,-3.73,7.28,7.28,7.28
28.33,10.69,10.69,3.41,3.41,-3.41,-2.64,-3.78,7.28,7.28,7.28
28.62,10.66,10.66,3.38,3.39,-3.39,-2.64,-3.84,7.27,7.28,7.28
28.90,10.64,10.64,3.36,3.37,-3.37,-2.64,-3.89,7.27,7.27,7.27
29.19,10.62,10.62,3.35,3.35,-3.35,-2.64,-3.94,7.27,7.27,7.27
29.48,10.60,10.60,3.33,3.33,-3.33,-2.63,-3.98,7.27,7.27,7.27
29.78,10.58,10.58,3.31,3.31,-3.31,-2.63,-4.02,7.27,7.27,7.27
30.08,10.56,10.56,3.30,3.30,-3.29,-2.63,-4.04,7.27,7.27,7.26
30.38,10.54,10.54,3.28,3.28,-3.28,-2.63,-4.07,7.26,7.26,7.26
30.68,10.52,10.52,3.26,3.26,-3.26,-2.62,-4.09,7.26,7.26,7.26
30.99,10.49,10.49,3.23,3.24,-3.24,-2.62,-4.10,7.25,7.26,7.26
31.30,10.47,10.47,3.22,3.22,-3.22,-2.62,-4.10,7.25,7.25,7.25
31.61,10.45,10.45,3.20,3.20,-3.20,-2.62,-4.11,7.25,7.25,7.25
31.93,10.42,10.42,3.17,3.18,-3.18,-2.61,-4.10,7.24,7.25,7.25
32.24,10.40,10.40,3.16,3.16,-3.16,-2.61,-4.09,7.24,7.24,7.24
32.57,10.38,10.37,3.14,3.14,-3.13,-2.61,-4.06,7.24,7.24,7.24
32.89,10.35,10.35,3.11,3.11,-3.11,-2.60,-4.04,7.24,7.24,7.24
33.22,10.32,10.32,3.09,3.09,-3.09,-2.60,-4.01,7.23,7.23,7.23
33.55,10.30,10.29,3.07,3.07,-3.07,-2.60,-3.97,7.23,7.23,7.23
33.89,10.27,10.27,3.05,3.05,-3.05,-2.59,-3.93,7.22,7.22,7.22
34.23,10.24,10.24,3.02,3.02,-3.02,-2.59,-3.89,7.21,7.22,7.22
34.57,10.22,10.22,3.00,3.00,-3.00,-2.59,-3.84,7.22,7.21,7.22
34.92,10.19,10.19,2.98,2.98,-2.98,-2.58,-3.79,7.21,7.21,7.21
35.27,10.16,10.16,2.95,2.96,-2.96,-2.58,-3.73,7.20,7.21,7.21
35.62,10.14,10.14,2.94,2.94,-2.93,-2.57,-3.67,7.21,7.20,7.20
35.97,10.11,10.11,2.91,2.91,-2.91,-2.57,-3.61,7.20,7.20,7.20
36.33,10.08,10.08,2.89,2.89,-2.88,-2.56,-3.55,7.19,7.19,7.19
36.70,10.04,10.04,2.85,2.86,-2.86,-2.56,-3.48,7.18,7.18,7.19
37.06,10.01,10.01,2.83,2.83,-2.83,-2.55,-3.42,7.18,7.18,7.18
37.43,9.98,9.98,2.80,2.80,-2.81,-2.55,-3.35,7.17,7.17,7.17
37.81,9.95,9.95,2.78,2.78,-2.78,-2.54,-3.28,7.17,7.17,7.17
38.19,9.92,9.92,2.76,2.76,-2.76,-2.54,-3.22,7.16,7.16,7.16
38.57,9.89,9.89,2.73,2.73,-2.73,-2.53,-3.15,7.16,7.16,7.15
38.95,9.85,9.85,2.70,2.71,-2.70,-2.53,-3.08,7.14,7.15,7.15
39.34,9.82,9.82,2.68,2.68,-2.68,-2.52,-3.02,7.14,7.14,7.14
39.74,9.79,9.78,2.66,2.65,-2.65,-2.51,-2.95,7.14,7.13,7.13
40.14,9.75,9.75,2.62,2.62,-2.62,-2.50,-2.89,7.13,7.13,7.13
40.54,9.71,9.71,2.59,2.59,-2.60,-2.50,-2.82,7.11,7.12,7.12
40.94,9.68,9.68,2.57,2.57,-2.57,-2.49,-2.76,7.11,7.11,7.11
41.35,9.64,9.64,2.54,2.54,-2.54,-2.48,-2.70,7.10,7.10,7.10
41.76,9.61,9.61,2.52,2.51,-2.51,-2.47,-2.64,7.09,7.09,7.09
42.18,9.57,9.57,2.49,2.49,-2.49,-2.47,-2.58,7.08,7.08,7.08
42.60,9.54,9.54,2.46,2.46,-2.46,-2.46,-2.53,7.08,7.08,7.07
43.03,9.50,9.50,2.43,2.44,-2.44,-2.45,-2.47,7.06,7.07,7.06
43.46,9.47,9.47,2.41,2.41,-2.41,-2.44,-2.42,7.06,7.05,7.05
43.90,9.43,9.43,2.39,2.39,-2.39,-2.43,-2.37,7.04,7.04,7.04
44.33,9.39,9.39,2.36,2.36,-2.36,-2.42,-2.32,7.03,7.03,7.03
44.78,9.36,9.36,2.34,2.33,-2.33,-2.41,-2.27,7.03,7.02,7.02
45.23,9.32,9.32,2.31,2.31,-2.31,-2.39,-2.23,7.01,7.01,7.01
45.68,9.28,9.28,2.28,2.28,-2.28,-2.38,-2.18,7.00,7.00,7.00
46.13,9.24,9.24,2.25,2.25,-2.25,-2.37,-2.14,6.99,6.99,6.99
46.60,9.20,9.20,2.23,2.23,-2.23,-2.36,-2.10,6.97,6.97,6.97
47.06,9.16,9.16,2.20,2.20,-2.20,-2.34,-2.06,6.96,6.96,6.96
47.53,9.12,9.12,2.17,2.17,-2.17,-2.33,-2.03,6.95,6.95,6.95
48.01,9.08,9.07,2.15,2.14,-2.15,-2.31,-1.99,6.93,6.93,6.93
48.49,9.03,9.03,2.11,2.12,-2.12,-2.30,-1.96,6.91,6.91,6.92
48.97,8.99,8.99,2.09,2.09,-2.10,-2.28,-1.93,6.89,6.90,6.90
49.46,8.96,8.95,2.07,2.07,-2.07,-2.27,-1.90,6.89,6.88,6.89
49.96,8.92,8.92,2.05,2.05,-2.05,-2.25,-1.87,6.87,6.87,6.87
50.46,8.88,8.88,2.03,2.03,-2.02,-2.23,-1.84,6.85,6.86,6.85
50.96,8.84,8.84,2.00,2.00,-2.00,-2.21,-1.81,6.84,6.84,6.84
51.47,8.80,8.80,1.98,1.98,-1.98,-2.19,-1.79,6.82,6.82,6.82
51.99,8.75,8.75,1.95,1.95,-1.95,-2.17,-1.77,6.80,6.80,6.80
52.51,8.71,8.71,1.93,1.93,-1.93,-2.15,-1.75,6.78,6.78,6.78
53.03,8.66,8.66,1.90,1.90,-1.90,-2.13,-1.72,6.76,6.76,6.76
53.56,8.61,8.61,1.87,1.87,-1.88,-2.10,-1.71,6.73,6.74,6.74
54.10,8.57,8.57,1.85,1.85,-1.85,-2.08,-1.69,6.72,6.71,6.72
54.64,8.52,8.52,1.82,1.83,-1.83,-2.06,-1.67,6.69,6.69,6.70
55.18,8.48,8.48,1.81,1.81,-1.81,-2.03,-1.65,6.67,6.67,6.67
55.74,8.44,8.44,1.79,1.79,-1.79,-2.00,-1.64,6.65,6.65,6.65
56.29,8.39,8.39,1.76,1.77,-1.77,-1.98,-1.62,6.62,6.63,6.63
56.86,8.35,8.35,1.75,1.75,-1.75,-1.95,-1.61,6.60,6.60,6.60
57.42,8.30,8.30,1.72,1.73,-1.73,-1.92,-1.60,6.57,6.57,6.57
58.00,8.26,8.26,1.71,1.71,-1.71,-1.89,-1.58,6.55,6.55,6.55
58.58,8.21,8.21,1.69,1.69,-1.69,-1.86,-1.57,6.52,6.52,6.52
59.16,8.17,8.17,1.68,1.67,-1.67,-1.83,-1.56,6.50,6.50,6.49
59.76,8.12,8.12,1.66,1.65,-1.65,-1.80,-1.55,6.47,6.47,6.46
60.35,8.07,8.07,1.63,1.64,-1.63,-1.77,-1.54,6.44,6.44,6.43
60.96,8.02,8.02,1.62,1.61,-1.62,-1.73,-1.53,6.40,6.40,6.40
61.57,7.97,7.97,1.60,1.59,-1.60,-1.70,-1.52,6.37,6.37,6.37
62.18,7.91,7.92,1.57,1.58,-1.58,-1.67,-1.51,6.33,6.34,6.34
62.80,7.87,7.87,1.56,1.56,-1.56,-1.64,-1.50,6.31,6.30,6.31
63.43,7.82,7.82,1.55,1.55,-1.55,-1.61,-1.50,6.27,6.27,6.27
64.07,7.77,7.77,1.53,1.53,-1.53,-1.58,-1.49,6.24,6.24,6.24
64.71,7.72,7.72,1.52,1.52,-1.51,-1.55,-1.48,6.21,6.20,6.20
65.35,7.66,7.66,1.49,1.50,-1.50,-1.52,-1.48,6.16,6.17,6.16
66.01,7.61,7.61,1.48,1.48,-1.48,-1.49,-1.47,6.13,6.13,6.13
66.67,7.55,7.55,1.46,1.46,-1.46,-1.46,-1.46,6.09,6.09,6.09
67.33,7.49,7.49,1.44,1.44,-1.44,-1.44,-1.46,6.04,6.05,6.05
68.01,7.43,7.43,1.42,1.43,-1.43,-1.41,-1.45,6.00,6.00,6.01
68.69,7.38,7.37,1.42,1.41,-1.41,-1.39,-1.45,5.97,5.96,5.96
69.37,7.32,7.32,1.40,1.40,-1.40,-1.37,-1.45,5.92,5.92,5.92
70.07,7.26,7.26,1.38,1.39,-1.39,-1.36,-1.44,5.87,5.88,5.88
70.77,7.21,7.21,1.38,1.38,-1.38,-1.35,-1.44,5.83,5.83,5.83
71.48,7.16,7.16,1.37,1.37,-1.37,-1.33,-1.44,5.79,5.79,5.79
72.19,7.10,7.10,1.36,1.36,-1.36,-1.33,-1.44,5.74,5.74,5.74
72.91,7.04,7.04,1.35,1.35,-1.35,-1.32,-1.44,5.69,5.69,5.69
73.64,6.98,6.98,1.34,1.34,-1.34,-1.32,-1.44,5.64,5.64,5.64
74.38,6.92,6.92,1.33,1.33,-1.33,-1.32,-1.44,5.59,5.59,5.59
75.12,6.86,6.86,1.32,1.32,-1.33,-1.32,-1.44,5.53,5.53,5.54
75.87,6.81,6.81,1.32,1.32,-1.33,-1.33,-1.44,5.48,5.48,5.49
76.63,6.76,6.76,1.33,1.32,-1.32,-1.33,-1.45,5.43,5.43,5.43
77.40,6.71,6.71,1.33,1.33,-1.33,-1.34,-1.45,5.38,5.38,5.38
78.17,6.66,6.66,1.34,1.33,-1.33,-1.35,-1.46,5.33,5.33,5.32
78.95,6.61,6.61,1.34,1.34,-1.33,-1.36,-1.47,5.27,5.27,5.27
79.74,6.55,6.55,1.34,1.34,-1.34,-1.38,-1.47,5.21,5.21,5.21
80.54,6.50,6.50,1.35,1.35,-1.35,-1.39,-1.48,5.15,5.15,5.15
81.35,6.45,6.45,1.36,1.36,-1.37,-1.41,-1.49,5.08,5.09,5.09
82.16,6.41,6.41,1.38,1.38,-1.38,-1.43,-1.51,5.03,5.03,5.03
82.98,6.37,6.37,1.40,1.40,-1.40,-1.44,-1.52,4.97,4.97,4.97
83.81,6.33,6.33,1.42,1.42,-1.42,-1.46,-1.53,4.91,4.91,4.91
84.65,6.29,6.29,1.44,1.44,-1.44,-1.48,-1.55,4.85,4.85,4.85
85.50,6.25,6.25,1.47,1.46,-1.46,-1.50,-1.57,4.79,4.79,4.78
86.35,6.20,6.20,1.48,1.48,-1.48,-1.52,-1.58,4.72,4.72,4.72
87.22,6.15,6.15,1.50,1.50,-1.50,-1.54,-1.60,4.65,4.65,4.65
88.09,6.11,6.11,1.52,1.52,-1.52,-1.56,-1.62,4.59,4.59,4.59
88.97,6.06,6.06,1.54,1.54,-1.54,-1.58,-1.64,4.52,4.52,4.52
89.86,6.01,6.01,1.56,1.56,-1.56,-1.59,-1.67,4.45,4.45,4.45
90.76,5.96,5.96,1.57,1.58,-1.58,-1.61,-1.69,4.38,4.39,4.39
91.66,5.92,5.92,1.60,1.60,-1.60,-1.63,-1.71,4.32,4.32,4.32
92.58,5.87,5.87,1.62,1.62,-1.62,-1.65,-1.74,4.25,4.25,4.25
93.51,5.82,5.82,1.64,1.64,-1.64,-1.67,-1.77,4.18,4.18,4.18
94.44,5.77,5.77,1.66,1.66,-1.67,-1.69,-1.80,4.10,4.10,4.11
95.39,5.72,5.72,1.68,1.68,-1.69,-1.71,-1.83,4.03,4.03,4.04
96.34,5.68,5.67,1.71,1.71,-1.72,-1.73,-1.86,3.96,3.96,3.97
97.30,5.63,5.64,1.73,1.74,-1.75,-1.75,-1.89,3.88,3.89,3.89
98.28,5.60,5.60,1.78,1.78,-1.77,-1.77,-1.92,3.83,3.83,3.82
99.26,5.57,5.56,1.82,1.81,-1.80,-1.79,-1.95,3.77,3.76,3.75
100.25,5.51,5.51,1.83,1.83,-1.82,-1.82,-1.99,3.69,3.69,3.68
101.25,5.45,5.45,1.84,1.85,-1.84,-1.84,-2.02,3.61,3.61,3.61
102.27,5.39,5.39,1.86,1.86,-1.86,-1.86,-2.05,3.53,3.53,3.53
103.29,5.33,5.33,1.87,1.87,-1.88,-1.89,-2.09,3.45,3.45,3.46
104.32,5.28,5.28,1.89,1.89,-1.90,-1.91,-2.12,3.38,3.38,3.39
105.37,5.23,5.23,1.92,1.91,-1.92,-1.94,-2.16,3.31,3.31,3.31
106.42,5.18,5.18,1.94,1.94,-1.94,-1.96,-2.19,3.24,3.24,3.24
107.48,5.13,5.13,1.96,1.96,-1.96,-1.99,-2.23,3.17,3.17,3.17
108.56,5.08,5.08,1.98,1.99,-1.99,-2.01,-2.26,3.09,3.09,3.09
109.64,5.04,5.04,2.02,2.02,-2.02,-2.04,-2.29,3.02,3.02,3.02
110.74,5.00,4.99,2.05,2.05,-2.04,-2.07,-2.32,2.95,2.95,2.95
111.85,4.95,4.95,2.07,2.07,-2.07,-2.10,-2.35,2.88,2.88,2.88
112.97,4.90,4.90,2.09,2.10,-2.10,-2.12,-2.38,2.80,2.81,2.80
114.10,4.86,4.86,2.13,2.12,-2.12,-2.15,-2.41,2.74,2.73,2.73
115.24,4.81,4.81,2.15,2.15,-2.15,-2.17,-2.43,2.66,2.66,2.66
116.39,4.76,4.76,2.17,2.17,-2.17,-2.19,-2.46,2.59,2.59,2.59
117.55,4.71,4.71,2.19,2.19,-2.19,-2.21,-2.47,2.52,2.52,2.52
118.73,4.66,4.66,2.21,2.21,-2.21,-2.23,-2.49,2.45,2.45,2.45
119.92,4.61,4.61,2.23,2.23,-2.23,-2.25,-2.51,2.38,2.38,2.38
121.12,4.57,4.57,2.26,2.25,-2.25,-2.26,-2.52,2.32,2.31,2.31
122.33,4.52,4.52,2.28,2.27,-2.27,-2.28,-2.53,2.25,2.24,2.24
123.55,4.47,4.47,2.29,2.29,-2.29,-2.28,-2.54,2.17,2.18,2.18
124.79,4.42,4.42,2.31,2.31,-2.31,-2.29,-2.54,2.10,2.11,2.11
126.03,4.38,4.38,2.34,2.33,-2.33,-2.30,-2.54,2.05,2.04,2.04
127.29,4.33,4.33,2.35,2.35,-2.35,-2.30,-2.54,1.98,1.98,1.98
128.57,4.28,4.28,2.37,2.37,-2.36,-2.30,-2.53,1.92,1.92,1.91
129.85,4.23,4.23,2.38,2.38,-2.38,-2.30,-2.52,1.85,1.85,1.85
131.15,4.18,4.18,2.39,2.39,-2.38,-2.30,-2.51,1.79,1.79,1.79
132.46,4.12,4.12,2.39,2.40,-2.39,-2.30,-2.50,1.73,1.73,1.72
133.79,4.06,4.06,2.40,2.40,-2.40,-2.30,-2.48,1.66,1.66,1.66
135.12,4.00,4.00,2.40,2.40,-2.40,-2.30,-2.46,1.60,1.60,1.60
136.48,3.94,3.94,2.40,2.40,-2.40,-2.30,-2.44,1.53,1.54,1.54
137.84,3.89,3.89,2.40,2.40,-2.41,-2.31,-2.42,1.48,1.48,1.48
139.22,3.84,3.84,2.41,2.41,-2.41,-2.31,-2.39,1.43,1.43,1.43
140.61,3.78,3.78,2.41,2.41,-2.41,-2.31,-2.36,1.37,1.37,1.37
142.02,3.73,3.73,2.41,2.41,-2.41,-2.32,-2.34,1.32,1.32,1.31
143.44,3.67,3.67,2.41,2.41,-2.41,-2.33,-2.31,1.26,1.26,1.26
144.87,3.61,3.61,2.40,2.41,-2.41,-2.34,-2.28,1.20,1.21,1.21
146.32,3.56,3.56,2.41,2.40,-2.40,-2.35,-2.25,1.16,1.15,1.15
147.78,3.50,3.50,2.40,2.40,-2.40,-2.37,-2.22,1.10,1.10,1.10
149.26,3.45,3.45,2.40,2.40,-2.39,-2.38,-2.19,1.06,1.05,1.05
150.75,3.39,3.39,2.39,2.39,-2.39,-2.40,-2.16,1.00,1.00,1.00
152.26,3.34,3.34,2.39,2.38,-2.38,-2.41,-2.13,0.96,0.96,0.95
153.78,3.28,3.28,2.37,2.37,-2.37,-2.43,-2.10,0.91,0.91,0.91
155.32,3.22,3.22,2.36,2.36,-2.37,-2.45,-2.07,0.85,0.86,0.86
156.88,3.17,3.17,2.35,2.35,-2.36,-2.46,-2.04,0.81,0.81,0.81
158.44,3.12,3.11,2.35,2.35,-2.35,-2.48,-2.01,0.77,0.77,0.77
160.03,3.06,3.06,2.33,2.34,-2.34,-2.50,-1.98,0.72,0.72,0.73
161.63,3.01,3.01,2.33,2.33,-2.33,-2.51,-1.95,0.68,0.68,0.67
163.24,2.96,2.95,2.33,2.32,-2.32,-2.53,-1.93,0.64,0.63,0.63
164.88,2.90,2.90,2.31,2.31,-2.31,-2.54,-1.90,0.59,0.59,0.59
166.53,2.85,2.85,2.30,2.30,-2.30,-2.55,-1.88,0.55,0.55,0.55
168.19,2.80,2.80,2.28,2.28,-2.28,-2.55,-1.86,0.52,0.52,0.51
169.87,2.75,2.75,2.27,2.27,-2.27,-2.56,-1.84,0.48,0.48,0.48
171.57,2.69,2.69,2.25,2.25,-2.25,-2.56,-1.82,0.44,0.44,0.44
173.29,2.63,2.63,2.22,2.23,-2.23,-2.56,-1.80,0.40,0.40,0.41
175.02,2.58,2.58,2.21,2.21,-2.21,-2.55,-1.78,0.37,0.37,0.37
176.77,2.53,2.53,2.19,2.19,-2.19,-2.55,-1.77,0.34,0.34,0.34
178.54,2.48,2.48,2.17,2.17,-2.17,-2.53,-1.76,0.31,0.31,0.31
180.32,2.43,2.43,2.16,2.16,-2.15,-2.52,-1.74,0.27,0.27,0.27
182.13,2.38,2.38,2.14,2.14,-2.14,-2.50,-1.73,0.24,0.24,0.24
183.95,2.33,2.33,2.12,2.12,-2.12,-2.48,-1.72,0.21,0.21,0.21
185.79,2.28,2.28,2.10,2.10,-2.10,-2.45,-1.71,0.18,0.18,0.18
187.65,2.24,2.23,2.08,2.08,-2.08,-2.42,-1.71,0.16,0.15,0.15
189.52,2.19,2.19,2.06,2.06,-2.06,-2.38,-1.70,0.13,0.13,0.13
191.42,2.14,2.14,2.04,2.04,-2.04,-2.35,-1.70,0.10,0.10,0.10
193.33,2.10,2.10,2.02,2.02,-2.02,-2.31,-1.69,0.08,0.08,0.07
195.27,2.05,2.05,2.00,2.00,-2.00,-2.26,-1.69,0.05,0.05,0.05
197.22,2.00,2.00,1.97,1.97,-1.97,-2.22,-1.69,0.03,0.03,0.03
199.19,1.95,1.95,1.95,1.95,-1.95,-2.17,-1.69,0.00,0.00,0.00
201.18,1.90,1.90,1.92,1.92,-1.92,-2.12,-1.69,-0.02,-0.02,-0.02
203.19,1.85,1.85,1.89,1.89,-1.90,-2.07,-1.69,-0.05,-0.05,-0.04
205.23,1.80,1.80,1.86,1.87,-1.87,-2.02,-1.69,-0.07,-0.07,-0.06
207.28,1.76,1.75,1.84,1.84,-1.84,-1.97,-1.69,-0.08,-0.09,-0.09
209.35,1.71,1.71,1.81,1.81,-1.81,-1.91,-1.69,-0.10,-0.10,-0.11
211.44,1.66,1.66,1.78,1.79,-1.79,-1.86,-1.70,-0.13,-0.12,-0.12
213.56,1.62,1.61,1.76,1.76,-1.76,-1.80,-1.70,-0.14,-0.14,-0.14
215.69,1.57,1.57,1.73,1.73,-1.73,-1.75,-1.70,-0.16,-0.16,-0.16
217.85,1.52,1.52,1.70,1.70,-1.70,-1.70,-1.70,-0.18,-0.18,-0.18
220.03,1.48,1.48,1.68,1.67,-1.67,-1.64,-1.71,-0.20,-0.20,-0.20
222.23,1.43,1.43,1.64,1.65,-1.65,-1.59,-1.71,-0.22,-0.21,-0.21
224.45,1.39,1.39,1.62,1.62,-1.62,-1.54,-1.71,-0.23,-0.23,-0.23
226.70,1.35,1.34,1.59,1.59,-1.59,-1.49,-1.70,-0.24,-0.24,-0.24
228.96,1.30,1.30,1.56,1.56,-1.56,-1.43,-1.70,-0.26,-0.26,-0.26
231.25,1.25,1.25,1.52,1.53,-1.53,-1.39,-1.70,-0.28,-0.28,-0.27
233.57,1.21,1.21,1.50,1.50,-1.50,-1.34,-1.69,-0.29,-0.30,-0.29
235.90,1.16,1.16,1.47,1.47,-1.47,-1.29,-1.69,-0.31,-0.31,-0.31
238.26,1.12,1.12,1.44,1.44,-1.44,-1.24,-1.68,-0.32,-0.32,-0.32
240.64,1.08,1.08,1.42,1.42,-1.41,-1.20,-1.67,-0.33,-0.33,-0.34
243.05,1.04,1.04,1.39,1.39,-1.38,-1.15,-1.66,-0.35,-0.35,-0.35
245.48,1.00,1.00,1.36,1.36,-1.36,-1.11,-1.64,-0.36,-0.36,-0.36
247.93,0.95,0.95,1.32,1.32,-1.33,-1.07,-1.63,-0.38,-0.37,-0.37
250.41,0.91,0.91,1.29,1.29,-1.30,-1.03,-1.61,-0.39,-0.39,-0.38
252.92,0.87,0.87,1.26,1.26,-1.26,-0.99,-1.59,-0.40,-0.40,-0.39
255.45,0.83,0.83,1.23,1.23,-1.23,-0.95,-1.56,-0.40,-0.40,-0.40
258.00,0.79,0.79,1.20,1.20,-1.20,-0.91,-1.54,-0.41,-0.41,-0.41
260.58,0.75,0.75,1.17,1.17,-1.17,-0.88,-1.51,-0.42,-0.42,-0.42
263.19,0.71,0.71,1.14,1.14,-1.14,-0.84,-1.48,-0.43,-0.43,-0.43
265.82,0.67,0.67,1.11,1.11,-1.11,-0.81,-1.45,-0.44,-0.44,-0.44
268.48,0.63,0.63,1.08,1.08,-1.08,-0.77,-1.42,-0.45,-0.45,-0.45
271.16,0.59,0.59,1.05,1.05,-1.05,-0.74,-1.38,-0.46,-0.46,-0.46
273.87,0.55,0.55,1.02,1.02,-1.02,-0.71,-1.34,-0.47,-0.47,-0.47
276.61,0.51,0.51,0.98,0.99,-0.99,-0.68,-1.30,-0.48,-0.47,-0.47
279.38,0.48,0.47,0.96,0.96,-0.95,-0.65,-1.26,-0.47,-0.48,-0.48
282.17,0.44,0.44,0.93,0.92,-0.92,-0.62,-1.22,-0.48,-0.48,-0.49
284.99,0.40,0.40,0.88,0.89,-0.89,-0.59,-1.18,-0.49,-0.48,-0.49
287.84,0.37,0.36,0.85,0.85,-0.85,-0.56,-1.13,-0.48,-0.49,-0.48
290.72,0.33,0.33,0.82,0.82,-0.82,-0.54,-1.09,-0.49,-0.49,-0.49
293.63,0.29,0.29,0.78,0.78,-0.78,-0.51,-1.04,-0.49,-0.49,-0.49
296.57,0.26,0.25,0.75,0.75,-0.75,-0.49,-0.99,-0.49,-0.49,-0.49
299.53,0.22,0.22,0.71,0.71,-0.71,-0.46,-0.95,-0.49,-0.49,-0.49
302.53,0.18,0.18,0.67,0.67,-0.67,-0.44,-0.90,-0.49,-0.49,-0.49
305.55,0.15,0.15,0.64,0.63,-0.64,-0.41,-0.85,-0.49,-0.49,-0.49
308.61,0.11,0.11,0.60,0.60,-0.60,-0.39,-0.80,-0.49,-0.49,-0.49
311.69,0.08,0.08,0.57,0.57,-0.57,-0.37,-0.75,-0.49,-0.49,-0.49
314.81,0.05,0.04,0.54,0.53,-0.53,-0.35,-0.70,-0.48,-0.49,-0.49
317.96,0.01,0.01,0.50,0.50,-0.50,-0.33,-0.65,-0.49,-0.49,-0.49
321.14,-0.02,-0.02,0.47,0.47,-0.47,-0.31,-0.60,-0.49,-0.49,-0.49
324.35,-0.05,-0.05,0.43,0.43,-0.43,-0.28,-0.55,-0.48,-0.48,-0.49
327.59,-0.08,-0.08,0.40,0.40,-0.40,-0.26,-0.50,-0.48,-0.48,-0.48
330.87,-0.12,-0.12,0.36,0.36,-0.36,-0.24,-0.45,-0.48,-0.48,-0.48
334.18,-0.15,-0.15,0.33,0.33,-0.33,-0.22,-0.40,-0.48,-0.48,-0.48
337.52,-0.18,-0.18,0.30,0.30,-0.30,-0.20,-0.35,-0.48,-0.48,-0.48
340.90,-0.21,-0.21,0.26,0.26,-0.26,-0.19,-0.30,-0.47,-0.47,-0.47
344.30,-0.24,-0.24,0.23,0.23,-0.23,-0.17,-0.25,-0.47,-0.47,-0.47
347.75,-0.27,-0.27,0.19,0.19,-0.19,-0.15,-0.20,-0.47,-0.46,-0.46
351.23,-0.30,-0.30,0.16,0.16,-0.16,-0.13,-0.15,-0.46,-0.46,-0.46
354.74,-0.32,-0.33,0.13,0.13,-0.13,-0.11,-0.10,-0.45,-0.45,-0.45
358.28,-0.35,-0.35,0.10,0.10,-0.10,-0.09,-0.05,-0.45,-0.45,-0.45
361.87,-0.38,-0.38,0.06,0.07,-0.06,-0.07,0.00,-0.45,-0.44,-0.44
365.49,-0.40,-0.41,0.03,0.03,-0.03,-0.05,0.05,-0.43,-0.44,-0.44
369.14,-0.43,-0.43,0.01,0.00,-0.00,-0.04,0.10,-0.43,-0.43,-0.44
372.83,-0.46,-0.46,-0.04,-0.03,0.03,-0.02,0.15,-0.43,-0.43,-0.42
376.56,-0.48,-0.48,-0.06,-0.06,0.06,0.00,0.20,-0.42,-0.42,-0.42
380.33,-0.51,-0.51,-0.10,-0.09,0.09,0.02,0.25,-0.42,-0.42,-0.42
384.13,-0.53,-0.53,-0.11,-0.12,0.12,0.04,0.30,-0.41,-0.41,-0.42
387.97,-0.56,-0.56,-0.15,-0.15,0.15,0.06,0.35,-0.41,-0.41,-0.41
391.85,-0.58,-0.58,-0.19,-0.18,0.18,0.07,0.40,-0.40,-0.40,-0.39
395.77,-0.60,-0.60,-0.21,-0.21,0.21,0.09,0.44,-0.39,-0.39,-0.39
399.73,-0.63,-0.63,-0.24,-0.24,0.24,0.11,0.49,-0.39,-0.39,-0.39
403.72,-0.65,-0.65,-0.27,-0.27,0.27,0.13,0.54,-0.38,-0.38,-0.38
407.76,-0.68,-0.68,-0.30,-0.30,0.30,0.15,0.59,-0.38,-0.38,-0.38
411.84,-0.70,-0.70,-0.33,-0.33,0.33,0.17,0.64,-0.37,-0.37,-0.37
415.96,-0.72,-0.73,-0.36,-0.36,0.36,0.19,0.68,-0.36,-0.37,-0.36
420.12,-0.75,-0.75,-0.39,-0.39,0.39,0.21,0.73,-0.37,-0.36,-0.37
424.32,-0.77,-0.77,-0.41,-0.41,0.41,0.23,0.77,-0.36,-0.36,-0.36
428.56,-0.79,-0.79,-0.44,-0.44,0.44,0.25,0.82,-0.35,-0.35,-0.35
432.85,-0.81,-0.81,-0.47,-0.47,0.47,0.27,0.86,-0.34,-0.34,-0.34
437.18,-0.83,-0.83,-0.49,-0.49,0.50,0.29,0.90,-0.33,-0.33,-0.34
441.55,-0.85,-0.85,-0.52,-0.52,0.52,0.32,0.94,-0.33,-0.33,-0.33
445.96,-0.87,-0.87,-0.55,-0.55,0.55,0.34,0.98,-0.32,-0.32,-0.32
450.42,-0.89,-0.89,-0.59,-0.58,0.58,0.36,1.02,-0.31,-0.31,-0.31
454.93,-0.91,-0.91,-0.61,-0.61,0.61,0.39,1.05,-0.30,-0.30,-0.30
459.48,-0.93,-0.93,-0.64,-0.64,0.64,0.41,1.09,-0.29,-0.30,-0.29
464.07,-0.95,-0.95,-0.66,-0.66,0.66,0.43,1.12,-0.29,-0.29,-0.29
468.71,-0.97,-0.97,-0.69,-0.69,0.69,0.46,1.15,-0.28,-0.28,-0.28
473.40,-0.98,-0.99,-0.71,-0.71,0.72,0.49,1.18,-0.27,-0.27,-0.27
478.13,-1.00,-1.00,-0.74,-0.74,0.74,0.51,1.20,-0.26,-0.26,-0.26
482.91,-1.02,-1.02,-0.77,-0.76,0.77,0.54,1.23,-0.26,-0.25,-0.25
487.74,-1.03,-1.04,-0.79,-0.79,0.79,0.57,1.25,-0.24,-0.24,-0.24
492.62,-1.05,-1.05,-0.82,-0.82,0.82,0.60,1.27,-0.23,-0.24,-0.23
497.55,-1.07,-1.07,-0.85,-0.84,0.84,0.63,1.28,-0.23,-0.22,-0.23
502.52,-1.08,-1.08,-0.86,-0.87,0.87,0.66,1.30,-0.21,-0.21,-0.22
507.55,-1.09,-1.10,-0.89,-0.89,0.89,0.69,1.31,-0.20,-0.20,-0.20
