frequency,raw
10,-10.841512567708133
11,-9.911173074254009
12,-9.127220744588488
13,-8.42655247699238
14,-7.803167417832722
15,-7.292268917248963
16,-6.88234653457055
17,-6.384592988108325
18,-5.999829517729237
19,-5.77099184882898
20,-5.4568276489026655
21,-5.177621039184106
22,-4.832959145701644
23,-4.673011472254164
24,-4.500720357086988
25,-4.371162112741658
26,-4.138972598654253
27,-4.043157748792697
28,-3.9704963554180837
29,-3.732828428102191
30,-3.6104333379944684
31,-3.4946749207296604
32,-3.376328616307987
33,-3.3107278652577863
34,-3.3076523433810627
35,-3.277293685630444
36,-3.3243905619567564
37,-3.223039563067257
38,-3.113545842536443
39,-3.148720838182198
40,-2.9870256848001797
41,-2.9911674580629337
42,-3.0532917458271407
43,-3.206812243383178
44,-3.1484118551008
45,-3.1726933339186907
46,-3.2960207425586963
47,-3.472429769422755
48,-3.2480031287423516
49,-3.269588272387943
50,-2.974082769547064
51,-2.881265305671259
52,-2.8380836222449513
53,-2.626687329975471
54,-2.4982772150395185
55,-2.384569690789819
56,-2.1898746655866463
57,-2.1997409423767773
58,-2.170056478933224
59,-2.0132859407497725
60,-1.9461415766231789
61,-1.9274019823605024
62,-1.9164188614920925
63,-1.8310661255854845
64,-1.8321419091942865
65,-1.712854876007115
66,-1.7340869163591046
67,-1.7337218458557428
68,-1.7509432575698294
69,-1.6246705808445538
70,-1.4967230393896065
71,-1.5007039305483443
72,-1.5048827678421741
73,-1.5035970137282924
74,-1.506466951071375
75,-1.5132961173959059
76,-1.5234139407742266
77,-1.535796957121459
78,-1.5489596362423979
79,-1.5809747473308056
80,-1.5044919428284902
81,-1.4224355981304924
82,-1.3476653590248961
83,-1.3583312357661588
84,-1.3457706818967452
85,-1.3315467755302928
86,-1.316883401791992
87,-1.3022915975378107
88,-1.2883586291939615
89,-1.2766214311305255
90,-1.2696414398034923
91,-1.271929743631368
92,-1.2982957672348947
93,-1.280232981162853
94,-1.1681804324066078
95,-1.0947904959282537
96,-1.1020778606525639
97,-1.1066656198725058
98,-1.0939179326275426
99,-1.0837921918893834
100,-1.0820099525849658
101,-1.0901943339449014
102,-1.1049158133232075
104,-1.1193212621252826
105,-1.1265044844548862
106,-1.1228315055089726
107,-1.1095075763711049
108,-1.091706616967342
109,-1.0759359430534614
110,-1.0671677040805898
111,-1.0671758095172739
112,-1.0746384111037202
113,-1.0963476164048842
114,-1.119819295377678
115,-1.0759420285223675
117,-1.0214584358173657
118,-1.0288073347861388
119,-0.9125424126374497
120,-0.9142875066787401
121,-0.9281122756632234
123,-0.9336843718542069
124,-0.9337109568624795
125,-0.9346922666587707
126,-0.9357070667898579
128,-0.935072666201135
129,-0.9314669149185324
130,-0.9250271684225329
131,-0.917643528515244
133,-0.9121190955907728
134,-0.9106095721281475
135,-0.9132808297042643
137,-0.9180569822702473
138,-0.9216800786856352
140,-0.9214804641221845
141,-0.9168094781947715
142,-0.9093150321024122
144,-0.9019770206293796
145,-0.8975477924705966
147,-0.9137903959525366
148,-0.9206158391079868
150,-0.8132648953262955
151,-0.8071055840374659
153,-0.8051855056374011
154,-0.7967315035078508
156,-0.7816135377887465
157,-0.7619595161297474
159,-0.7419067325158899
160,-0.7263556230439479
162,-0.8161135209899912
164,-0.8383600125843444
165,-0.8128204112785493
167,-0.8457578033713395
169,-0.8638376294803525
170,-0.8526243708153345
172,-0.751032910952647
174,-0.747614693180334
175,-0.7442720075995504
177,-0.7423799722549607
179,-0.7418029158785764
181,-0.6409488892193185
183,-0.6401354143257887
184,-0.638855919084901
186,-0.6379673573349969
188,-0.6382879572987119
190,-0.639647392503707
192,-0.6405046330791775
194,-0.6384734219817769
196,-0.631513455453613
198,-0.6190943458634486
200,-0.6026210021002902
202,-0.5848479045643016
204,-0.5686190496058967
206,-0.5556524831785277
208,-0.546013552221821
210,-0.538470769593514
212,-0.5314264068481536
214,-0.5238711969379013
216,-0.5159122473818503
218,-0.5087213899161571
221,-0.5595901208960674
223,-0.6039590977877713
225,-0.6106058666297334
227,-0.6161514426342656
229,-0.6260844103581125
232,-0.5391419942651838
234,-0.6384289669347778
236,-0.6545756426861216
239,-0.6253829116034826
241,-0.6105206878306202
244,-0.6004679817347678
246,-0.6103416760513571
248,-0.5639344095936374
251,-0.5239329491614679
253,-0.5604866437520264
256,-0.36353856405146034
259,-0.41755930028819144
261,-0.4719697222461985
264,-0.4773940073867706
266,-0.482634442840407
269,-0.48618850354941134
272,-0.4865133649564273
274,-0.46479992327150343
277,-0.37457527568895355
280,-0.506573739959558
283,-0.6360231296390584
286,-0.6270732747858929
288,-0.4679130412552981
291,-0.3760474240068472
294,-0.4266847614309728
297,-0.5557622478481199
300,-0.4752237641443555
303,-0.4142031435154001
306,-0.49468083902498927
309,-0.4867824298358512
312,-0.4966268159891727
316,-0.5847484856657315
319,-0.5782830832808354
322,-0.5796939570876418
325,-0.707965260826986
328,-0.7485487609194856
332,-0.9008717957702439
335,-1.071532890336241
338,-1.166838773303915
342,-1.367768156248891
345,-1.4590563452034648
349,-1.5607642031225768
352,-1.6441457714155159
356,-1.74535273466305
359,-1.840373729976562
363,-1.995476698194527
366,-2.075942291455871
370,-2.0385543048883408
374,-2.064784235839613
377,-2.1187927836817404
381,-2.1589735973762547
385,-2.2235139423205235
389,-2.2708327230499514
393,-2.143035313795415
397,-2.0713761064022465
401,-2.059174335537298
405,-2.0319912873499772
409,-1.940424354998644
413,-1.939065285705842
417,-1.9430416092388936
421,-1.769688866478948
425,-1.7554351940619584
430,-1.7586380661252718
434,-1.6849386235685717
438,-1.648436573714584
443,-1.6398402993389265
447,-1.577240622521468
451,-1.5205124357556232
456,-1.5089723625751517
460,-1.495054056411711
465,-1.3975580194980002
470,-1.3633028880028002
474,-1.348625570066949
479,-1.3184558731754588
484,-1.2170742826259113
489,-1.1318784405694733
494,-1.068162967763517
499,-1.0365284454673733
504,-1.0036307946047471
509,-0.9733588653830649
514,-0.8482052938995879
519,-0.8308314196621556
524,-0.7201099662273318
529,-0.7162013652319206
535,-0.7169788241286974
540,-0.7205685924808907
545,-0.6243190558139449
551,-0.6272291901687774
556,-0.6266787305246826
562,-0.6209256463197201
568,-0.6087641775623283
573,-0.5574667287710295
579,-0.4646546288981046
585,-0.43695359394814925
591,-0.4103607118776691
596,-0.3299530984700323
602,-0.33271640748356424
608,-0.3754077094477988
615,-0.383167404246036
621,-0.37832417891473513
627,-0.28092253816346413
633,-0.26051391940524615
639,-0.23640408751113529
646,-0.10946135611974617
652,-0.0889252908449476
659,-0.07997271620011626
665,-0.08329516564289818
672,-0.09446998397227024
679,-0.10643335967591172
686,-0.1128881998006055
692,-0.11068664009555995
699,-0.10013354457731505
706,-0.01963648226850978
713,0.03648412060444839
721,0.056331593325789076
728,0.1496989881104036
735,0.20229179654177276
742,0.285502925577938
750,0.27275348026402924
757,0.24822274743072592
765,0.21740941938896752
773,0.18853970340889248
780,0.16909340329460776
788,0.16221449097315743
796,0.16498565436491364
804,0.16956245260100955
812,0.16661005417725427
820,0.048744494192659915
828,0.015547744422087395
837,-0.04476950092271892
845,-0.19945169532302065
853,-0.24148233954438858
862,-0.2587289782403167
871,-0.28004023752054497
879,-0.2704943638766485
888,-0.31753205957973696
897,-0.3617049013883342
906,-0.2824795722611192
915,-0.27823936688760387
924,-0.2734304001789746
933,-0.2659277314044911
943,-0.1982989045729433
952,-0.133617467494607
962,-0.10783161362584304
971,-0.0791535570491474
981,-0.049691377233370804
991,-0.023038030261743336
1001,0.002546971494736261
1011,0.019467654559856773
1021,-0.04282977199734306
1031,-0.13741681809882944
1041,-0.10764590818607389
1052,-0.1272812504135351
1062,-0.22493441267603587
1073,-0.186007969768044
1084,-0.1758978006675428
1094,-0.26079920394094736
1105,-0.2268551912480926
1116,-0.18866447221013016
1128,-0.2876264369860396
1139,-0.31590865570763904
1150,-0.3717257868056917
1162,-0.461702305600598
1173,-0.48813133754163474
1185,-0.5543465521468964
1197,-0.6933771734536904
1209,-0.8382305192878743
1221,-0.940635079770682
1233,-0.9742466248396418
1246,-0.9709129948199542
1258,-1.0578249493266618
1271,-1.1457410435168836
1283,-1.177150975221163
1296,-1.1793487341333821
1309,-1.1628828526309216
1322,-1.214873733180694
1335,-1.218521637204422
1349,-1.2095617715735925
1362,-1.239978852271669
1376,-1.3611140880197161
1390,-1.3761141748140835
1404,-1.371457457924508
1418,-1.4420720052510778
1432,-1.396719303881035
1446,-1.3848138351558852
1461,-1.4887521064006277
1475,-1.3350953489903987
1490,-1.2168223147551798
1505,-1.2411197607535458
1520,-1.1703819333249985
1535,-1.1114107642760347
1550,-1.2152898099334388
1566,-1.1846373048163135
1582,-1.155072616204167
1597,-1.1489885364966907
1613,-1.0983733232328476
1629,-1.1787084816895392
1646,-1.1722887972465545
1662,-1.153659906211021
1679,-1.082260850729467
1696,-1.1135297291149415
1713,-1.2011532105892853
1730,-1.1874699425416115
1747,-1.1353896670747337
1764,-1.0771225654558316
1782,-1.055148076145079
1800,-1.0782526302791235
1818,-1.005662910512906
1836,-0.9703331831419537
1854,-0.9911592430550389
1873,-0.9684674102726514
1892,-0.9909987503790263
1911,-1.0306415601398449
1930,-1.1265811874226852
1949,-1.1936665740191281
1969,-1.2204499564650924
1988,-1.2861125687488117
2008,-1.312240630440999
2028,-1.2844951311772892
2048,-1.2199673277212808
2069,-1.2282389389250525
2090,-1.2504405641245517
2111,-1.1676679957951261
2132,-1.107713530815091
2153,-1.0132901996892691
2175,-0.9609255761733282
2196,-0.8533201725430768
2218,-0.7428387211415473
2240,-0.6792542724527584
2263,-0.5668304315376345
2285,-0.47460709670244405
2308,-0.4316270835623106
2331,-0.3617066542621652
2355,-0.29124376780442507
2378,-0.18746584458595983
2402,-0.04118001217426137
2426,0.12395472844951971
2450,0.32432285518563386
2475,0.45998762608873545
2500,0.5215467372628098
2525,0.6137065329791058
2550,0.6517480355410967
2575,0.7356741667341149
2601,0.8883828483595684
2627,1.0128834485166331
2653,1.1053300612297434
2680,1.212220598619826
2707,1.3523066231904295
2734,1.537068570452715
2761,1.767713397512371
2789,1.9924377144527172
2817,2.2245728694797178
2845,2.434199078501024
2873,2.670851910892452
2902,2.729030103050606
2931,2.8749149654358144
2960,3.0835308225355025
2990,3.2399812326866755
3020,3.34653312185241
3050,3.4886673252038722
3080,3.6125894177853928
3111,3.807143571666174
3142,3.926341030373047
3174,4.089090658581906
3206,4.216413566795581
3238,4.308670406311094
3270,4.412456202781179
3303,4.5006238201518975
3336,4.579700375283551
3369,4.666631650134217
3403,4.642547361585965
3437,4.604161533722515
3471,4.5610482796434555
3506,4.609831211805446
3541,4.504564832941643
3576,4.4811081068511465
3612,4.404767025431511
3648,4.262152388021606
3685,4.121256551370788
3721,3.964236716127952
3759,3.531226166021738
3796,3.396603702366976
3834,3.233870462372085
3873,3.056878727287998
3911,2.8807591759322904
3950,2.5912047257435837
3990,2.369673701411779
4030,2.2026029202550994
4070,1.8919472553983994
4111,1.5902229003581354
4152,1.2296991929980194
4193,0.9053518044870437
4235,0.723405271332151
4278,0.5309373616344395
4321,0.17282173618196772
4364,-0.15307864925473424
4407,-0.4253357253982344
4451,-0.5915577505654586
4496,-0.8351669803473207
4541,-1.0048425957903717
4586,-1.242838163442503
4632,-1.419190591815088
4679,-1.5807962818432273
4725,-1.857670694169526
4773,-2.0548023868362097
4820,-2.1758620696495266
4868,-2.3805740585684783
4917,-2.564345838424976
4966,-2.687583778606455
5016,-2.857157257646258
5066,-3.0602478382162994
5117,-3.1929104841813656
5168,-3.3667177042143672
5220,-3.6065240181635074
5272,-3.6718958262529062
5325,-3.8111116526470967
5378,-3.8780423721999027
5432,-3.8812736731186375
5486,-3.874909582982352
5541,-4.143055486919917
5596,-4.34360045723879
5652,-4.367874973565223
5709,-4.467154048133893
5766,-4.258139051808576
5823,-4.189700542848032
5882,-4.304074688431172
5940,-4.368352164914946
6000,-4.505166982786375
6060,-4.554800113265218
6120,-4.581012156787292
6182,-4.4399722918092035
6244,-4.719584279846422
6306,-5.049439124954566
6369,-5.011683380071325
6433,-4.929641523789781
6497,-4.992882471658951
6562,-5.11401971176311
6628,-5.054418984704087
6694,-4.812085268696827
6761,-4.698271914387222
6828,-4.617676063573682
6897,-4.618111908087539
6966,-4.293889578109873
7035,-4.404820623174597
7106,-4.333054742473851
7177,-4.119517186504204
7249,-4.148353470107912
7321,-4.510093052471266
7394,-4.733258798942742
7468,-4.388336600627555
7543,-4.335511220351018
7618,-4.543176500568398
7694,-4.575959577962837
7771,-4.448308215226208
7849,-4.441976969961064
7928,-4.585286528534298
8007,-4.7199505830867166
8087,-4.703703572109447
8168,-4.708188071655158
8250,-4.363208051802517
8332,-3.9762903175686057
8415,-3.64229329859151
8499,-3.2031074120023226
8584,-2.706048970274059
8670,-2.3214941287418527
8757,-1.814816871908377
8845,-1.3946730203210205
8933,-1.052958785508955
9022,-0.4438427665422977
9113,0.43089595367082634
9204,1.357360443033258
9296,1.8351330518286928
9389,2.1010488014866664
9483,1.9977314754092488
9577,1.5578149621208426
9673,1.2197685774794298
9770,0.5063021609690344
9868,-0.6237737756837567
9966,-1.2272083163942034
10066,-2.270270438169819
10167,-3.1217635280338842
10268,-3.7721700367395288
10371,-4.46365680389033
10475,-5.297541337291038
10579,-5.982952567038631
10685,-6.5396158898387124
10792,-7.513295322032973
10900,-8.135737021233073
11009,-8.727425228173548
11119,-8.860938627274269
11230,-9.396335054645643
11343,-9.547778270031667
11456,-9.578923411793252
11571,-9.620797874939106
11686,-9.328894146422092
11803,-8.967413168328768
11921,-8.597964189765968
12040,-8.214234120873108
12161,-7.936664086550951
12282,-7.528585177213724
12405,-7.802510524642592
12529,-8.389417521130603
12655,-9.175528921124599
12781,-9.242955818124866
12909,-9.046426238952503
13038,-9.481239239274611
13168,-9.557853591202651
13300,-9.396281623702958
13433,-9.894412621094542
13567,-10.822881711581072
13703,-11.614257728692923
13840,-12.503119831565368
13978,-13.931517379945543
14118,-15.415537969794494
14259,-16.696734627647782
14402,-18.072304320479564
14546,-19.323074374633336
14692,-20.143328774696514
14838,-20.395822080952165
14987,-20.671696655689836
15137,-20.833329285671798
15288,-21.74686028802556
15441,-22.681615562115745
15595,-24.33583584917757
15751,-26.592590979492698
15909,-28.642605324876193
16068,-31.154701433961897
16229,-33.576461620655664
16391,-33.68271178681154
16555,-33.178760935533155
16720,-31.49045272778431
16888,-30.771632034683492
17056,-29.41232735092904
17227,-27.394341023333162
17399,-26.125761153034727
17573,-25.656667761176738
17749,-25.51352866307835
17926,-24.546238485478305
18106,-23.013587596002942
18287,-21.144627110526375
18470,-19.378163819922477
18654,-17.858721945203108
18841,-17.578983424728005
19029,-18.176441969307028
19220,-19.17812150569459
19412,-19.343829537768485
19606,-19.18739171598722
19802,-18.692747599666685
20000,-18.38212189586099
20200,-18.107596846790948
20402,-18.600597316884755
20606,-18.68724304172629
20812,-19.0311609341569
21020,-19.624432970065417
21230,-20.163047131527676
21443,-20.69865856557248
21657,-21.126027201912226
21874,-21.6856765884257
22092,-22.177525310861984
22313,-22.671953248313397
22537,-23.50843127160506
22762,-24.476533055505993
22989,-25.259983198603685
23219,-26.758224257886113
23452,-27.813748373854935
23686,-29.011120634105612
23923,-29.389917088082218
24162,-29.938265522546704
24404,-30.489260540242586
24648,-31.039773341666283
24894,-31.58957317520876
25143,-32.14123274810096
25395,-32.69444061800417
25649,-33.24616970435439
25905,-33.796304471737244
26164,-34.347497642983406
26426,-34.89965036359795
26690,-35.450033720696034
26957,-36.001307620860125
27227,-36.55342121958478
27499,-37.103731835840584
27774,-37.654797841999084
28052,-38.20653085162724
28332,-38.75632933258406
28615,-39.30664825655357
28902,-39.8598608885293
29191,-40.41094645618303
29482,-40.959900270253
29777,-41.51148579995063
