frequency,raw,smoothed,error,error_smoothed,equalization,parametric_eq,fixed_band_eq,equalized_raw,equalized_smoothed,target
20.00,17.87,17.87,6.37,6.37,-6.37,-5.65,-2.76,11.50,11.50,11.50
20.20,17.86,17.87,6.36,6.36,-6.36,-5.65,-2.84,11.50,11.50,11.50
20.40,17.86,17.86,6.36,6.36,-6.36,-5.65,-2.92,11.50,11.50,11.50
20.61,17.86,17.86,6.36,6.36,-6.36,-5.65,-3.01,11.51,11.50,11.50
20.81,17.85,17.85,6.35,6.36,-6.35,-5.65,-3.09,11.50,11.50,11.50
21.02,17.85,17.85,6.35,6.35,-6.35,-5.65,-3.18,11.50,11.50,11.50
21.23,17.85,17.85,6.35,6.35,-6.35,-5.65,-3.27,11.50,11.49,11.50
21.44,17.85,17.85,6.35,6.35,-6.36,-5.65,-3.36,11.49,11.49,11.50
21.66,17.85,17.85,6.35,6.36,-6.36,-5.65,-3.46,11.49,11.49,11.50
21.87,17.86,17.86,6.37,6.37,-6.37,-5.65,-3.56,11.49,11.49,11.50
22.09,17.87,17.87,6.38,6.38,-6.38,-5.65,-3.66,11.49,11.49,11.49
22.31,17.88,17.88,6.39,6.39,-6.39,-5.65,-3.76,11.49,11.49,11.49
22.54,17.89,17.89,6.40,6.40,-6.40,-5.65,-3.87,11.49,11.50,11.49
22.76,17.90,17.90,6.41,6.41,-6.40,-5.65,-3.98,11.50,11.50,11.49
22.99,17.90,17.90,6.41,6.41,-6.40,-5.65,-4.09,11.50,11.50,11.49
23.22,17.89,17.89,6.40,6.40,-6.40,-5.65,-4.20,11.49,11.50,11.49
23.45,17.88,17.88,6.39,6.39,-6.39,-5.65,-4.32,11.50,11.50,11.49
23.69,17.86,17.86,6.37,6.37,-6.37,-5.66,-4.44,11.50,11.50,11.49
23.92,17.83,17.83,6.34,6.35,-6.34,-5.66,-4.56,11.49,11.49,11.49
24.16,17.80,17.80,6.32,6.31,-6.31,-5.66,-4.69,11.49,11.49,11.49
24.40,17.76,17.76,6.28,6.28,-6.27,-5.66,-4.81,11.49,11.49,11.48
24.65,17.72,17.72,6.24,6.24,-6.24,-5.66,-4.94,11.48,11.48,11.48
24.89,17.68,17.68,6.20,6.20,-6.21,-5.66,-5.07,11.47,11.47,11.48
25.14,17.65,17.65,6.17,6.17,-6.18,-5.66,-5.20,11.47,11.47,11.48
25.39,17.63,17.63,6.15,6.15,-6.16,-5.66,-5.33,11.47,11.47,11.48
25.65,17.62,17.62,6.14,6.14,-6.15,-5.66,-5.47,11.48,11.47,11.48
25.91,17.61,17.61,6.14,6.14,-6.14,-5.66,-5.60,11.47,11.47,11.48
26.16,17.61,17.61,6.14,6.14,-6.15,-5.66,-5.73,11.47,11.47,11.47
26.43,17.62,17.62,6.15,6.15,-6.16,-5.66,-5.87,11.46,11.47,11.47
26.69,17.64,17.64,6.17,6.17,-6.17,-5.66,-6.00,11.47,11.47,11.47
26.96,17.66,17.66,6.19,6.19,-6.19,-5.66,-6.13,11.47,11.47,11.47
27.23,17.68,17.68,6.21,6.21,-6.21,-5.66,-6.26,11.47,11.47,11.47
27.50,17.70,17.70,6.24,6.24,-6.23,-5.66,-6.39,11.47,11.47,11.47
27.77,17.71,17.71,6.25,6.25,-6.23,-5.66,-6.51,11.48,11.48,11.46
28.05,17.72,17.71,6.26,6.25,-6.23,-5.66,-6.63,11.49,11.48,11.46
28.33,17.70,17.70,6.24,6.24,-6.22,-5.66,-6.74,11.48,11.48,11.46
28.62,17.68,17.68,6.22,6.22,-6.21,-5.66,-6.84,11.47,11.47,11.46
28.90,17.65,17.65,6.20,6.19,-6.19,-5.66,-6.94,11.46,11.45,11.46
29.19,17.61,17.61,6.16,6.16,-6.18,-5.66,-7.04,11.43,11.44,11.45
29.48,17.58,17.59,6.13,6.14,-6.17,-5.66,-7.12,11.42,11.42,11.45
29.78,17.58,17.58,6.13,6.13,-6.16,-5.66,-7.20,11.42,11.42,11.45
30.08,17.58,17.58,6.14,6.14,-6.15,-5.66,-7.26,11.43,11.43,11.45
30.38,17.59,17.59,6.15,6.15,-6.15,-5.66,-7.32,11.44,11.45,11.44
30.68,17.60,17.60,6.16,6.16,-6.14,-5.66,-7.36,11.46,11.46,11.44
30.99,17.60,17.60,6.16,6.16,-6.14,-5.66,-7.39,11.47,11.46,11.44
31.30,17.58,17.58,6.15,6.15,-6.12,-5.66,-7.41,11.46,11.46,11.43
31.61,17.55,17.55,6.12,6.12,-6.11,-5.66,-7.43,11.44,11.44,11.43
31.93,17.51,17.51,6.08,6.08,-6.09,-5.66,-7.43,11.43,11.43,11.43
32.24,17.47,17.47,6.05,6.05,-6.06,-5.66,-7.42,11.41,11.41,11.42
32.57,17.44,17.44,6.02,6.02,-6.03,-5.66,-7.39,11.41,11.40,11.42
32.89,17.41,17.41,5.99,6.00,-6.01,-5.66,-7.37,11.40,11.40,11.42
33.22,17.39,17.39,5.98,5.98,-5.99,-5.66,-7.33,11.41,11.41,11.41
33.55,17.38,17.38,5.97,5.97,-5.97,-5.66,-7.28,11.42,11.41,11.41
33.89,17.36,17.36,5.96,5.96,-5.95,-5.66,-7.22,11.41,11.41,11.41
34.23,17.34,17.34,5.94,5.94,-5.94,-5.66,-7.16,11.41,11.41,11.40
34.57,17.32,17.32,5.92,5.92,-5.92,-5.66,-7.09,11.40,11.40,11.40
34.92,17.30,17.30,5.91,5.91,-5.91,-5.65,-7.02,11.39,11.39,11.39
35.27,17.28,17.29,5.89,5.90,-5.90,-5.65,-6.94,11.38,11.38,11.39
35.62,17.27,17.27,5.89,5.89,-5.89,-5.65,-6.85,11.38,11.38,11.38
35.97,17.25,17.25,5.87,5.87,-5.88,-5.65,-6.77,11.37,11.37,11.38
36.33,17.23,17.23,5.86,5.86,-5.86,-5.65,-6.68,11.37,11.37,11.37
36.70,17.21,17.21,5.84,5.85,-5.84,-5.65,-6.59,11.37,11.37,11.37
37.06,17.19,17.19,5.83,5.83,-5.82,-5.64,-6.50,11.37,11.37,11.36
37.43,17.16,17.16,5.81,5.81,-5.79,-5.64,-6.41,11.37,11.37,11.36
37.81,17.12,17.12,5.77,5.77,-5.75,-5.64,-6.32,11.37,11.37,11.35
38.19,17.08,17.08,5.74,5.73,-5.71,-5.64,-6.23,11.37,11.36,11.34
38.57,17.02,17.02,5.69,5.69,-5.67,-5.63,-6.14,11.35,11.35,11.34
38.95,16.97,16.97,5.64,5.64,-5.64,-5.63,-6.06,11.33,11.32,11.33
39.34,16.91,16.91,5.59,5.59,-5.62,-5.63,-5.97,11.29,11.29,11.32
39.74,16.87,16.88,5.56,5.56,-5.61,-5.62,-5.89,11.27,11.27,11.32
40.14,16.87,16.87,5.56,5.57,-5.60,-5.62,-5.81,11.27,11.27,11.31
40.54,16.89,16.89,5.59,5.59,-5.61,-5.62,-5.74,11.28,11.28,11.30
40.94,16.93,16.93,5.64,5.64,-5.63,-5.61,-5.67,11.30,11.30,11.29
41.35,16.96,16.96,5.68,5.68,-5.66,-5.61,-5.60,11.30,11.30,11.28
41.76,16.98,16.98,5.71,5.70,-5.68,-5.60,-5.53,11.30,11.29,11.27
42.18,16.97,16.98,5.71,5.71,-5.70,-5.60,-5.47,11.28,11.28,11.27
42.60,16.96,16.96,5.71,5.71,-5.70,-5.59,-5.41,11.27,11.27,11.26
43.03,16.94,16.94,5.70,5.70,-5.68,-5.59,-5.36,11.27,11.27,11.25
43.46,16.91,16.91,5.68,5.67,-5.64,-5.58,-5.31,11.27,11.27,11.24
43.90,16.85,16.85,5.63,5.62,-5.59,-5.57,-5.26,11.26,11.26,11.23
44.33,16.77,16.77,5.56,5.55,-5.54,-5.57,-5.22,11.23,11.22,11.21
44.78,16.68,16.68,5.48,5.48,-5.50,-5.56,-5.18,11.18,11.18,11.20
45.23,16.59,16.60,5.40,5.41,-5.46,-5.55,-5.14,11.13,11.14,11.19
45.68,16.55,16.56,5.37,5.38,-5.43,-5.54,-5.11,11.12,11.12,11.18
46.13,16.54,16.54,5.37,5.38,-5.41,-5.54,-5.09,11.13,11.13,11.17
46.60,16.55,16.55,5.40,5.40,-5.40,-5.53,-5.06,11.15,11.15,11.15
47.06,16.56,16.56,5.42,5.41,-5.39,-5.52,-5.04,11.17,11.17,11.14
47.53,16.55,16.54,5.42,5.42,-5.38,-5.51,-5.03,11.17,11.16,11.13
48.01,16.51,16.51,5.40,5.40,-5.37,-5.50,-5.01,11.14,11.15,11.11
48.49,16.46,16.46,5.36,5.37,-5.35,-5.49,-5.01,11.11,11.12,11.10
48.97,16.41,16.41,5.33,5.32,-5.32,-5.48,-5.00,11.09,11.09,11.08
49.46,16.34,16.35,5.27,5.28,-5.28,-5.46,-5.00,11.06,11.07,11.07
49.96,16.28,16.28,5.23,5.23,-5.24,-5.45,-5.00,11.04,11.04,11.05
50.46,16.22,16.22,5.19,5.18,-5.20,-5.44,-5.00,11.02,11.02,11.03
50.96,16.16,16.17,5.14,5.15,-5.16,-5.43,-5.00,11.00,11.00,11.02
51.47,16.12,16.12,5.12,5.12,-5.14,-5.41,-5.01,10.98,10.99,11.00
51.99,16.09,16.09,5.11,5.11,-5.12,-5.40,-5.02,10.97,10.97,10.98
52.51,16.07,16.07,5.11,5.11,-5.11,-5.38,-5.03,10.96,10.96,10.96
53.03,16.05,16.05,5.11,5.11,-5.11,-5.37,-5.05,10.95,10.94,10.94
53.56,16.03,16.03,5.11,5.11,-5.11,-5.35,-5.06,10.92,10.92,10.92
54.10,16.01,16.01,5.11,5.12,-5.12,-5.34,-5.08,10.89,10.90,10.90
54.64,16.00,16.00,5.12,5.13,-5.13,-5.32,-5.09,10.87,10.87,10.88
55.18,15.99,15.99,5.14,5.14,-5.14,-5.30,-5.11,10.85,10.85,10.85
55.74,15.98,15.98,5.15,5.15,-5.15,-5.28,-5.12,10.83,10.83,10.83
56.29,15.96,15.97,5.15,5.16,-5.16,-5.27,-5.14,10.80,10.81,10.81
56.86,15.95,15.95,5.17,5.17,-5.16,-5.25,-5.15,10.79,10.79,10.78
57.42,15.92,15.92,5.17,5.17,-5.15,-5.23,-5.17,10.77,10.77,10.76
58.00,15.89,15.89,5.16,5.16,-5.14,-5.21,-5.18,10.75,10.75,10.73
58.58,15.84,15.84,5.14,5.14,-5.13,-5.19,-5.19,10.71,10.72,10.70
59.16,15.79,15.79,5.12,5.11,-5.11,-5.17,-5.20,10.68,10.68,10.67
59.76,15.72,15.72,5.08,5.08,-5.08,-5.15,-5.20,10.64,10.64,10.65
60.35,15.66,15.66,5.05,5.05,-5.06,-5.13,-5.21,10.60,10.60,10.62
60.96,15.61,15.61,5.03,5.02,-5.04,-5.12,-5.21,10.57,10.57,10.59
61.57,15.56,15.57,5.01,5.01,-5.03,-5.10,-5.21,10.54,10.54,10.55
62.18,15.53,15.53,5.01,5.01,-5.01,-5.08,-5.20,10.52,10.52,10.52
62.80,15.50,15.50,5.01,5.01,-5.00,-5.06,-5.20,10.50,10.50,10.49
63.43,15.46,15.46,5.01,5.01,-5.00,-5.05,-5.19,10.47,10.47,10.45
64.07,15.42,15.42,5.00,5.00,-4.99,-5.03,-5.17,10.43,10.43,10.42
64.71,15.37,15.37,4.99,4.99,-4.99,-5.02,-5.16,10.39,10.39,10.38
65.35,15.32,15.33,4.98,4.98,-4.98,-5.00,-5.14,10.34,10.34,10.35
66.01,15.28,15.28,4.97,4.97,-4.98,-4.99,-5.12,10.30,10.30,10.31
66.67,15.24,15.24,4.97,4.97,-4.99,-4.98,-5.09,10.26,10.26,10.27
67.33,15.20,15.20,4.97,4.98,-4.99,-4.97,-5.07,10.21,10.22,10.23
68.01,15.17,15.17,4.98,4.98,-4.99,-4.96,-5.04,10.18,10.18,10.19
68.69,15.13,15.14,4.99,4.99,-4.99,-4.95,-5.01,10.15,10.15,10.15
69.37,15.10,15.10,5.00,5.00,-4.98,-4.95,-4.98,10.12,10.12,10.10
70.07,15.05,15.05,4.99,4.99,-4.96,-4.94,-4.95,10.09,10.09,10.06
70.77,14.99,14.98,4.98,4.97,-4.94,-4.94,-4.92,10.05,10.04,10.01
71.48,14.90,14.90,4.94,4.93,-4.92,-4.93,-4.89,9.98,9.98,9.97
72.19,14.80,14.81,4.88,4.89,-4.90,-4.93,-4.86,9.90,9.91,9.92
72.91,14.71,14.72,4.84,4.85,-4.88,-4.93,-4.83,9.83,9.84,9.87
73.64,14.66,14.66,4.84,4.83,-4.86,-4.93,-4.80,9.80,9.79,9.82
74.38,14.61,14.61,4.84,4.84,-4.85,-4.93,-4.77,9.76,9.76,9.77
75.12,14.57,14.57,4.85,4.85,-4.85,-4.94,-4.74,9.72,9.72,9.72
75.87,14.54,14.54,4.87,4.87,-4.86,-4.94,-4.71,9.68,9.67,9.67
76.63,14.50,14.50,4.89,4.89,-4.88,-4.94,-4.69,9.62,9.62,9.62
77.40,14.47,14.47,4.91,4.91,-4.91,-4.95,-4.66,9.57,9.56,9.56
78.17,14.43,14.43,4.93,4.93,-4.93,-4.95,-4.64,9.50,9.50,9.51
78.95,14.39,14.39,4.94,4.94,-4.94,-4.95,-4.62,9.45,9.45,9.45
79.74,14.35,14.35,4.96,4.96,-4.95,-4.96,-4.61,9.40,9.40,9.39
80.54,14.31,14.31,4.98,4.98,-4.96,-4.96,-4.60,9.35,9.35,9.33
81.35,14.26,14.26,4.99,4.98,-4.96,-4.97,-4.59,9.30,9.30,9.27
82.16,14.19,14.19,4.98,4.97,-4.96,-4.98,-4.58,9.23,9.23,9.21
82.98,14.11,14.11,4.96,4.95,-4.96,-4.98,-4.57,9.15,9.15,9.15
83.81,14.02,14.03,4.93,4.94,-4.96,-4.99,-4.57,9.06,9.07,9.09
84.65,13.96,13.97,4.93,4.94,-4.96,-4.99,-4.58,9.00,9.00,9.03
85.50,13.92,13.92,4.96,4.96,-4.97,-5.00,-4.58,8.95,8.95,8.96
86.35,13.89,13.88,4.99,4.98,-4.98,-5.01,-4.59,8.91,8.90,8.90
87.22,13.84,13.84,5.01,5.01,-5.00,-5.01,-4.61,8.84,8.84,8.84
88.09,13.79,13.79,5.02,5.02,-5.02,-5.02,-4.62,8.77,8.77,8.77
88.97,13.74,13.74,5.04,5.04,-5.04,-5.03,-4.64,8.70,8.70,8.70
89.86,13.69,13.70,5.06,5.06,-5.06,-5.03,-4.66,8.63,8.63,8.64
90.76,13.65,13.65,5.08,5.08,-5.08,-5.04,-4.69,8.57,8.57,8.57
91.66,13.60,13.60,5.10,5.10,-5.09,-5.05,-4.72,8.52,8.51,8.50
92.58,13.54,13.54,5.11,5.11,-5.09,-5.06,-4.76,8.46,8.45,8.43
93.51,13.46,13.46,5.10,5.10,-5.09,-5.07,-4.79,8.38,8.38,8.36
94.44,13.38,13.38,5.09,5.09,-5.09,-5.07,-4.83,8.30,8.29,8.29
95.39,13.29,13.29,5.07,5.07,-5.09,-5.08,-4.87,8.20,8.20,8.22
96.34,13.21,13.21,5.06,5.06,-5.09,-5.10,-4.92,8.12,8.12,8.15
97.30,13.14,13.15,5.07,5.07,-5.10,-5.11,-4.97,8.04,8.05,8.08
98.28,13.10,13.10,5.10,5.10,-5.12,-5.12,-5.02,7.99,7.99,8.00
99.26,13.07,13.07,5.14,5.14,-5.14,-5.13,-5.07,7.94,7.93,7.93
100.25,13.04,13.04,5.18,5.18,-5.16,-5.14,-5.13,7.88,7.87,7.86
101.25,12.99,12.99,5.20,5.20,-5.19,-5.16,-5.19,7.81,7.80,7.79
102.27,12.93,12.93,5.22,5.22,-5.21,-5.17,-5.25,7.72,7.73,7.71
103.29,12.87,12.87,5.23,5.23,-5.22,-5.19,-5.31,7.65,7.65,7.64
104.32,12.81,12.81,5.24,5.25,-5.24,-5.21,-5.37,7.57,7.58,7.57
105.37,12.75,12.75,5.26,5.25,-5.25,-5.22,-5.43,7.51,7.50,7.49
106.42,12.68,12.68,5.26,5.26,-5.26,-5.24,-5.50,7.42,7.42,7.42
107.48,12.60,12.60,5.25,5.25,-5.27,-5.26,-5.56,7.33,7.33,7.35
108.56,12.53,12.54,5.26,5.26,-5.29,-5.28,-5.62,7.24,7.25,7.28
109.64,12.48,12.49,5.28,5.28,-5.31,-5.29,-5.68,7.18,7.18,7.20
110.74,12.45,12.45,5.32,5.32,-5.32,-5.31,-5.74,7.13,7.13,7.13
111.85,12.42,12.42,5.36,5.36,-5.34,-5.33,-5.80,7.08,7.08,7.06
112.97,12.37,12.37,5.39,5.38,-5.35,-5.34,-5.85,7.02,7.02,6.99
114.10,12.31,12.31,5.40,5.39,-5.37,-5.36,-5.90,6.94,6.94,6.91
115.24,12.23,12.23,5.39,5.39,-5.38,-5.37,-5.94,6.85,6.85,6.84
116.39,12.15,12.15,5.38,5.38,-5.39,-5.38,-5.99,6.76,6.76,6.77
117.55,12.07,12.08,5.37,5.37,-5.40,-5.39,-6.02,6.67,6.68,6.70
118.73,12.01,12.01,5.38,5.38,-5.40,-5.39,-6.05,6.61,6.61,6.63
119.92,11.96,11.96,5.40,5.40,-5.40,-5.39,-6.08,6.56,6.56,6.56
121.12,11.91,11.91,5.42,5.42,-5.41,-5.39,-6.10,6.50,6.50,6.49
122.33,11.86,11.86,5.44,5.43,-5.41,-5.39,-6.11,6.45,6.44,6.43
123.55,11.79,11.79,5.43,5.43,-5.42,-5.38,-6.11,6.37,6.37,6.36
124.79,11.72,11.72,5.43,5.43,-5.43,-5.38,-6.11,6.30,6.29,6.29
126.03,11.64,11.65,5.42,5.42,-5.43,-5.37,-6.10,6.21,6.22,6.23
127.29,11.58,11.58,5.42,5.42,-5.43,-5.35,-6.08,6.15,6.15,6.16
128.57,11.52,11.52,5.43,5.43,-5.43,-5.34,-6.06,6.09,6.09,6.10
129.85,11.46,11.46,5.43,5.43,-5.43,-5.33,-6.03,6.03,6.03,6.03
131.15,11.40,11.40,5.43,5.43,-5.43,-5.32,-6.00,5.97,5.97,5.97
132.46,11.33,11.34,5.43,5.43,-5.43,-5.30,-5.95,5.91,5.91,5.91
133.79,11.27,11.27,5.43,5.42,-5.42,-5.29,-5.90,5.85,5.85,5.84
135.12,11.20,11.20,5.42,5.42,-5.42,-5.27,-5.85,5.79,5.79,5.78
136.48,11.13,11.13,5.41,5.41,-5.41,-5.26,-5.79,5.73,5.73,5.72
137.84,11.06,11.06,5.40,5.39,-5.39,-5.25,-5.73,5.67,5.67,5.67
139.22,10.98,10.98,5.37,5.37,-5.37,-5.24,-5.66,5.61,5.61,5.61
140.61,10.90,10.91,5.35,5.35,-5.35,-5.22,-5.59,5.55,5.55,5.55
142.02,10.83,10.83,5.34,5.33,-5.33,-5.21,-5.52,5.50,5.50,5.50
143.44,10.75,10.75,5.31,5.31,-5.30,-5.20,-5.45,5.45,5.45,5.44
144.87,10.67,10.67,5.28,5.28,-5.28,-5.19,-5.37,5.39,5.39,5.39
146.32,10.58,10.58,5.25,5.25,-5.26,-5.18,-5.29,5.33,5.33,5.34
147.78,10.50,10.50,5.22,5.22,-5.24,-5.18,-5.22,5.27,5.27,5.28
149.26,10.43,10.43,5.20,5.20,-5.22,-5.17,-5.14,5.22,5.22,5.23
150.75,10.37,10.38,5.19,5.19,-5.20,-5.16,-5.06,5.18,5.18,5.18
152.26,10.33,10.33,5.20,5.19,-5.18,-5.15,-4.98,5.15,5.15,5.14
153.78,10.27,10.27,5.18,5.18,-5.16,-5.14,-4.91,5.11,5.11,5.09
155.32,10.21,10.20,5.17,5.16,-5.15,-5.13,-4.83,5.06,5.05,5.04
156.88,10.12,10.13,5.13,5.13,-5.14,-5.12,-4.76,4.98,4.98,5.00
158.44,10.05,10.06,5.10,5.11,-5.14,-5.11,-4.69,4.92,4.92,4.95
160.03,10.00,10.01,5.09,5.10,-5.13,-5.10,-4.62,4.88,4.88,4.91
161.63,9.97,9.97,5.12,5.11,-5.11,-5.09,-4.56,4.86,4.86,4.86
163.24,9.93,9.93,5.12,5.11,-5.09,-5.08,-4.49,4.84,4.84,4.81
164.88,9.87,9.87,5.10,5.10,-5.06,-5.07,-4.43,4.81,4.80,4.77
166.53,9.79,9.79,5.06,5.06,-5.03,-5.06,-4.37,4.76,4.76,4.73
168.19,9.70,9.70,5.00,5.01,-5.00,-5.04,-4.32,4.70,4.70,4.70
169.87,9.61,9.61,4.95,4.95,-4.96,-5.02,-4.27,4.65,4.65,4.66
171.57,9.51,9.52,4.89,4.89,-4.91,-5.01,-4.22,4.60,4.60,4.62
173.29,9.43,9.43,4.84,4.84,-4.87,-4.99,-4.17,4.57,4.57,4.59
175.02,9.35,9.35,4.80,4.80,-4.82,-4.97,-4.13,4.54,4.54,4.55
176.77,9.28,9.28,4.76,4.76,-4.76,-4.95,-4.09,4.52,4.52,4.52
178.54,9.21,9.21,4.73,4.72,-4.71,-4.92,-4.05,4.50,4.50,4.49
180.32,9.13,9.13,4.68,4.68,-4.65,-4.90,-4.02,4.48,4.48,4.45
182.13,9.05,9.05,4.63,4.62,-4.60,-4.87,-3.99,4.46,4.45,4.42
183.95,8.95,8.95,4.56,4.55,-4.54,-4.84,-3.96,4.41,4.41,4.39
185.79,8.84,8.84,4.48,4.48,-4.48,-4.81,-3.94,4.36,4.36,4.36
187.65,8.73,8.74,4.40,4.40,-4.43,-4.77,-3.91,4.30,4.31,4.34
189.52,8.65,8.65,4.34,4.34,-4.39,-4.74,-3.90,4.27,4.27,4.31
191.42,8.59,8.59,4.31,4.31,-4.35,-4.70,-3.88,4.25,4.24,4.28
193.33,8.54,8.55,4.29,4.29,-4.31,-4.66,-3.87,4.24,4.24,4.26
195.27,8.51,8.51,4.28,4.28,-4.27,-4.62,-3.86,4.24,4.25,4.23
197.22,8.48,8.47,4.27,4.27,-4.22,-4.58,-3.85,4.26,4.25,4.21
199.19,8.41,8.41,4.23,4.23,-4.18,-4.53,-3.84,4.23,4.23,4.18
201.18,8.32,8.31,4.16,4.15,-4.13,-4.48,-3.84,4.20,4.19,4.16
203.19,8.20,8.20,4.06,4.06,-4.07,-4.44,-3.83,4.14,4.14,4.14
205.23,8.08,8.09,3.96,3.98,-4.00,-4.39,-3.83,4.08,4.09,4.12
207.28,7.99,7.99,3.90,3.90,-3.93,-4.33,-3.83,4.06,4.06,4.10
209.35,7.91,7.91,3.84,3.83,-3.86,-4.28,-3.83,4.05,4.05,4.08
211.44,7.83,7.83,3.77,3.78,-3.78,-4.22,-3.83,4.05,4.05,4.06
213.56,7.76,7.76,3.72,3.72,-3.71,-4.17,-3.84,4.05,4.04,4.04
215.69,7.67,7.68,3.65,3.66,-3.64,-4.11,-3.84,4.03,4.03,4.02
217.85,7.59,7.59,3.59,3.59,-3.57,-4.05,-3.84,4.02,4.02,4.00
220.03,7.49,7.49,3.51,3.50,-3.49,-3.99,-3.84,4.00,4.00,3.98
222.23,7.38,7.38,3.41,3.42,-3.41,-3.93,-3.84,3.97,3.98,3.97
224.45,7.27,7.27,3.32,3.32,-3.31,-3.86,-3.84,3.96,3.96,3.95
226.70,7.15,7.16,3.22,3.22,-3.22,-3.80,-3.83,3.93,3.94,3.94
228.96,7.04,7.04,3.12,3.12,-3.12,-3.73,-3.83,3.92,3.92,3.92
231.25,6.92,6.92,3.01,3.01,-3.02,-3.67,-3.82,3.90,3.90,3.91
233.57,6.80,6.80,2.91,2.91,-2.92,-3.60,-3.81,3.88,3.88,3.89
235.90,6.69,6.69,2.82,2.82,-2.83,-3.53,-3.79,3.86,3.86,3.87
238.26,6.59,6.59,2.73,2.73,-2.74,-3.46,-3.78,3.85,3.85,3.86
240.64,6.49,6.49,2.65,2.65,-2.65,-3.40,-3.76,3.84,3.84,3.84
243.05,6.40,6.40,2.57,2.57,-2.56,-3.33,-3.73,3.85,3.84,3.83
245.48,6.30,6.30,2.48,2.48,-2.45,-3.26,-3.70,3.85,3.85,3.82
247.93,6.20,6.20,2.39,2.39,-2.35,-3.19,-3.67,3.85,3.85,3.81
250.41,6.10,6.09,2.30,2.29,-2.24,-3.11,-3.63,3.86,3.85,3.80
252.92,5.97,5.97,2.18,2.18,-2.15,-3.04,-3.59,3.83,3.82,3.79
255.45,5.85,5.85,2.07,2.07,-2.07,-2.97,-3.54,3.78,3.78,3.78
258.00,5.74,5.76,1.97,1.99,-2.03,-2.90,-3.49,3.71,3.72,3.77
260.58,5.72,5.72,1.96,1.96,-2.04,-2.83,-3.43,3.68,3.67,3.76
263.19,5.74,5.74,1.99,2.00,-2.11,-2.76,-3.37,3.64,3.64,3.75
265.82,5.84,5.86,2.10,2.12,-2.22,-2.69,-3.30,3.63,3.64,3.74
268.48,6.03,6.04,2.30,2.31,-2.37,-2.61,-3.24,3.67,3.67,3.73
271.16,6.28,6.27,2.56,2.54,-2.54,-2.54,-3.16,3.74,3.73,3.72
273.87,6.50,6.50,2.79,2.78,-2.72,-2.47,-3.09,3.78,3.77,3.72
276.61,6.69,6.69,2.98,2.98,-2.90,-2.40,-3.01,3.80,3.79,3.71
279.38,6.83,6.82,3.13,3.12,-3.04,-2.33,-2.93,3.80,3.79,3.70
282.17,6.89,6.90,3.20,3.20,-3.14,-2.26,-2.85,3.76,3.76,3.69
284.99,6.92,6.91,3.23,3.22,-3.19,-2.19,-2.76,3.74,3.73,3.70
287.84,6.88,6.88,3.18,3.19,-3.19,-2.12,-2.67,3.70,3.70,3.70
290.72,6.82,6.82,3.13,3.13,-3.14,-2.05,-2.58,3.68,3.68,3.69
293.63,6.74,6.74,3.05,3.05,-3.07,-1.98,-2.49,3.67,3.68,3.69
296.57,6.65,6.65,2.96,2.96,-2.97,-1.91,-2.40,3.68,3.68,3.69
299.53,6.55,6.55,2.86,2.85,-2.86,-1.84,-2.30,3.69,3.69,3.70
302.53,6.43,6.43,2.74,2.74,-2.74,-1.77,-2.21,3.69,3.69,3.69
305.55,6.30,6.31,2.61,2.61,-2.62,-1.70,-2.11,3.68,3.69,3.69
308.61,6.18,6.18,2.49,2.49,-2.50,-1.63,-2.02,3.68,3.68,3.69
311.69,6.06,6.06,2.37,2.37,-2.39,-1.56,-1.92,3.68,3.68,3.69
314.81,5.95,5.95,2.26,2.26,-2.28,-1.50,-1.83,3.67,3.68,3.69
317.96,5.85,5.85,2.16,2.16,-2.17,-1.43,-1.73,3.68,3.68,3.70
321.14,5.76,5.76,2.07,2.07,-2.08,-1.36,-1.64,3.68,3.69,3.69
324.35,5.68,5.68,1.99,1.98,-1.99,-1.29,-1.54,3.70,3.70,3.70
327.59,5.60,5.60,1.90,1.90,-1.89,-1.23,-1.45,3.71,3.71,3.70
330.87,5.52,5.52,1.82,1.82,-1.80,-1.16,-1.36,3.72,3.72,3.70
334.18,5.43,5.43,1.73,1.73,-1.71,-1.10,-1.26,3.72,3.72,3.70
337.52,5.33,5.33,1.63,1.63,-1.62,-1.03,-1.17,3.71,3.71,3.70
340.90,5.23,5.23,1.52,1.52,-1.52,-0.96,-1.08,3.71,3.71,3.71
344.30,5.13,5.13,1.42,1.42,-1.43,-0.90,-0.99,3.70,3.71,3.71
347.75,5.04,5.04,1.32,1.32,-1.33,-0.83,-0.89,3.71,3.71,3.72
351.23,4.95,4.95,1.23,1.23,-1.24,-0.77,-0.80,3.71,3.71,3.72
354.74,4.87,4.87,1.14,1.15,-1.15,-0.71,-0.71,3.72,3.72,3.73
358.28,4.80,4.80,1.07,1.07,-1.07,-0.64,-0.62,3.73,3.73,3.73
361.87,4.73,4.73,0.99,0.99,-0.99,-0.58,-0.53,3.74,3.74,3.74
365.49,4.66,4.66,0.92,0.92,-0.91,-0.51,-0.45,3.75,3.75,3.75
369.14,4.58,4.58,0.84,0.83,-0.83,-0.45,-0.36,3.75,3.75,3.74
372.83,4.50,4.50,0.74,0.75,-0.75,-0.39,-0.27,3.76,3.76,3.76
376.56,4.42,4.42,0.66,0.66,-0.66,-0.33,-0.18,3.76,3.76,3.76
380.33,4.34,4.34,0.58,0.58,-0.57,-0.26,-0.10,3.77,3.77,3.77
384.13,4.25,4.25,0.49,0.49,-0.47,-0.20,-0.01,3.78,3.78,3.76
387.97,4.16,4.16,0.39,0.39,-0.38,-0.14,0.07,3.78,3.78,3.77
391.85,4.07,4.06,0.28,0.28,-0.30,-0.08,0.16,3.78,3.77,3.79
395.77,3.97,3.98,0.18,0.19,-0.21,-0.01,0.24,3.76,3.77,3.79
399.73,3.89,3.90,0.10,0.10,-0.12,0.05,0.32,3.77,3.78,3.80
403.72,3.84,3.83,0.04,0.04,-0.03,0.11,0.41,3.81,3.80,3.80
407.76,3.77,3.77,-0.03,-0.04,0.05,0.17,0.49,3.82,3.82,3.80
411.84,3.70,3.70,-0.11,-0.11,0.13,0.23,0.57,3.84,3.83,3.81
415.96,3.61,3.61,-0.21,-0.20,0.21,0.30,0.65,3.82,3.82,3.82
420.12,3.52,3.53,-0.29,-0.29,0.29,0.36,0.73,3.81,3.81,3.82
424.32,3.44,3.45,-0.38,-0.38,0.36,0.42,0.81,3.80,3.80,3.82
428.56,3.38,3.38,-0.45,-0.45,0.43,0.48,0.89,3.81,3.81,3.83
432.85,3.32,3.32,-0.52,-0.52,0.51,0.54,0.96,3.83,3.83,3.84
437.18,3.27,3.27,-0.57,-0.57,0.58,0.60,1.04,3.85,3.85,3.84
441.55,3.21,3.21,-0.64,-0.64,0.66,0.67,1.11,3.87,3.87,3.85
445.96,3.15,3.15,-0.71,-0.71,0.73,0.73,1.18,3.88,3.88,3.86
450.42,3.08,3.07,-0.79,-0.80,0.81,0.79,1.25,3.89,3.88,3.88
454.93,2.99,3.00,-0.89,-0.89,0.89,0.85,1.32,3.88,3.88,3.89
459.48,2.91,2.92,-0.98,-0.98,0.97,0.91,1.39,3.88,3.88,3.89
464.07,2.84,2.84,-1.05,-1.06,1.05,0.97,1.45,3.89,3.88,3.89
468.71,2.77,2.77,-1.13,-1.13,1.12,1.04,1.51,3.89,3.89,3.90
473.40,2.70,2.71,-1.21,-1.20,1.19,1.10,1.57,3.89,3.90,3.91
478.13,2.65,2.65,-1.27,-1.27,1.26,1.16,1.63,3.91,3.91,3.92
