frequency,raw,error,smoothed,error_smoothed,equalization,parametric_eq,equalized_raw,equalized_smoothed,target
20,0.63,-1.11,0.60,-1.14,1.14,2.13,1.77,1.74,1.74
21,0.79,-0.95,0.82,-0.92,0.92,1.73,1.71,1.74,1.74
22,1.05,-0.69,1.04,-0.70,0.70,1.27,1.75,1.74,1.74
23,1.19,-0.55,1.25,-0.49,0.49,0.85,1.68,1.74,1.74
24,1.48,-0.25,1.46,-0.28,0.28,0.51,1.76,1.74,1.74
25,1.65,-0.08,1.66,-0.07,0.07,0.23,1.72,1.73,1.73
26,1.84,0.11,1.86,0.13,-0.13,-0.00,1.71,1.73,1.73
27,2.05,0.32,2.05,0.32,-0.32,-0.19,1.73,1.73,1.73
28,2.25,0.53,2.24,0.51,-0.51,-0.36,1.74,1.72,1.72
29,2.40,0.68,2.41,0.69,-0.69,-0.50,1.71,1.72,1.72
30,2.59,0.88,2.58,0.86,-0.86,-0.63,1.73,1.71,1.71
31,2.78,1.07,2.73,1.02,-1.02,-0.75,1.76,1.71,1.71
32,2.85,1.15,2.87,1.17,-1.17,-0.86,1.68,1.70,1.70
33,2.98,1.29,3.00,1.30,-1.30,-0.97,1.68,1.70,1.70
34,3.12,1.43,3.11,1.43,-1.43,-1.08,1.70,1.69,1.69
35,3.22,1.54,3.22,1.54,-1.54,-1.18,1.68,1.68,1.68
36,3.31,1.64,3.32,1.65,-1.65,-1.28,1.66,1.67,1.67
37,3.44,1.78,3.41,1.75,-1.75,-1.38,1.69,1.66,1.66
38,3.47,1.82,3.50,1.84,-1.84,-1.48,1.63,1.65,1.65
39,3.57,1.93,3.58,1.93,-1.93,-1.58,1.64,1.64,1.64
40,3.65,2.02,3.65,2.02,-2.02,-1.68,1.63,1.63,1.63
41,3.71,2.09,3.72,2.10,-2.10,-1.78,1.61,1.62,1.62
42,3.80,2.19,3.79,2.18,-2.18,-1.88,1.62,1.61,1.61
43,3.87,2.27,3.85,2.26,-2.26,-1.98,1.61,1.60,1.60
44,3.88,2.30,3.91,2.33,-2.33,-2.07,1.55,1.58,1.58
45,4.01,2.44,3.97,2.40,-2.40,-2.17,1.61,1.57,1.57
46,4.01,2.46,4.02,2.47,-2.47,-2.26,1.54,1.55,1.55
47,4.06,2.52,4.07,2.54,-2.54,-2.35,1.52,1.54,1.54
48,4.12,2.60,4.12,2.60,-2.60,-2.44,1.52,1.52,1.52
49,4.16,2.66,4.16,2.66,-2.66,-2.52,1.50,1.50,1.50
50,4.23,2.75,4.20,2.72,-2.72,-2.59,1.51,1.48,1.48
51,4.22,2.76,4.24,2.78,-2.78,-2.67,1.44,1.46,1.46
52,4.26,2.82,4.28,2.83,-2.83,-2.74,1.43,1.44,1.44
53,4.33,2.91,4.31,2.89,-2.89,-2.81,1.44,1.42,1.42
54,4.36,2.96,4.34,2.94,-2.94,-2.87,1.42,1.40,1.40
55,4.36,2.99,4.37,2.99,-2.99,-2.93,1.37,1.38,1.38
56,4.37,3.02,4.40,3.05,-3.05,-2.99,1.32,1.35,1.35
57,4.43,3.11,4.43,3.10,-3.10,-3.05,1.33,1.33,1.33
58,4.47,3.17,4.46,3.16,-3.16,-3.11,1.31,1.30,1.30
59,4.50,3.23,4.49,3.22,-3.22,-3.17,1.29,1.27,1.27
60,4.50,3.26,4.52,3.28,-3.28,-3.22,1.22,1.24,1.24
61,4.55,3.34,4.55,3.34,-3.34,-3.28,1.21,1.22,1.22
62,4.58,3.40,4.59,3.40,-3.40,-3.33,1.18,1.19,1.19
63,4.60,3.45,4.63,3.47,-3.47,-3.39,1.13,1.16,1.16
64,4.69,3.57,4.66,3.54,-3.54,-3.45,1.15,1.12,1.12
65,4.70,3.61,4.70,3.61,-3.61,-3.50,1.10,1.09,1.09
66,4.71,3.65,4.73,3.67,-3.67,-3.56,1.04,1.06,1.06
67,4.80,3.78,4.76,3.73,-3.73,-3.61,1.07,1.02,1.02
68,4.78,3.79,4.78,3.79,-3.79,-3.67,0.99,0.99,0.99
69,4.77,3.82,4.80,3.85,-3.85,-3.73,0.92,0.95,0.95
70,4.87,3.95,4.82,3.90,-3.90,-3.79,0.97,0.92,0.92
71,4.83,3.95,4.84,3.96,-3.96,-3.85,0.87,0.88,0.88
72,4.83,3.99,4.86,4.01,-4.01,-3.91,0.82,0.84,0.84
73,4.88,4.07,4.87,4.06,-4.06,-3.97,0.82,0.81,0.81
74,4.87,4.10,4.89,4.12,-4.12,-4.02,0.75,0.77,0.77
75,4.89,4.16,4.90,4.17,-4.17,-4.08,0.72,0.73,0.73
76,4.94,4.25,4.92,4.23,-4.23,-4.14,0.71,0.69,0.69
77,4.91,4.26,4.94,4.28,-4.28,-4.20,0.63,0.65,0.65
78,4.97,4.36,4.95,4.34,-4.34,-4.26,0.63,0.61,0.61
79,4.98,4.41,4.97,4.40,-4.40,-4.32,0.58,0.57,0.57
80,4.97,4.44,4.99,4.46,-4.46,-4.38,0.51,0.53,0.53
81,5.03,4.54,5.01,4.52,-4.52,-4.44,0.51,0.49,0.49
82,5.00,4.55,5.03,4.58,-4.58,-4.50,0.42,0.45,0.45
83,5.05,4.64,5.04,4.64,-4.64,-4.56,0.41,0.41,0.41
84,5.07,4.71,5.06,4.70,-4.70,-4.62,0.37,0.36,0.36
85,5.06,4.74,5.08,4.76,-4.76,-4.68,0.30,0.32,0.32
86,5.11,4.83,5.10,4.82,-4.82,-4.74,0.29,0.28,0.28
87,5.11,4.87,5.12,4.88,-4.88,-4.80,0.23,0.24,0.24
88,5.15,4.95,5.14,4.94,-4.94,-4.85,0.21,0.20,0.20
89,5.17,5.01,5.16,5.00,-5.00,-4.91,0.17,0.16,0.16
90,5.18,5.07,5.18,5.06,-5.06,-4.97,0.12,0.12,0.12
91,5.19,5.12,5.19,5.11,-5.11,-5.02,0.08,0.07,0.07
92,5.21,5.18,5.20,5.17,-5.17,-5.08,0.05,0.03,0.03
93,5.20,5.21,5.21,5.21,-5.21,-5.13,-0.01,-0.01,-0.01
94,5.21,5.26,5.21,5.26,-5.26,-5.18,-0.05,-0.05,-0.05
95,5.21,5.30,5.22,5.31,-5.31,-5.24,-0.10,-0.09,-0.09
96,5.24,5.37,5.23,5.36,-5.36,-5.29,-0.12,-0.13,-0.13
97,5.22,5.39,5.24,5.41,-5.41,-5.34,-0.19,-0.17,-0.17
98,5.26,5.47,5.25,5.46,-5.46,-5.39,-0.20,-0.21,-0.21
99,5.29,5.54,5.27,5.52,-5.52,-5.44,-0.23,-0.25,-0.25
100,5.26,5.55,5.28,5.58,-5.58,-5.49,-0.31,-0.29,-0.29
101,5.27,5.60,5.30,5.64,-5.64,-5.54,-0.36,-0.33,-0.32
102,5.32,5.68,5.32,5.70,-5.70,-5.59,-0.37,-0.38,-0.36
104,5.34,5.78,5.33,5.75,-5.75,-5.68,-0.41,-0.42,-0.44
105,5.39,5.86,5.35,5.81,-5.81,-5.73,-0.42,-0.46,-0.47
106,5.36,5.87,5.36,5.86,-5.86,-5.77,-0.50,-0.50,-0.51
107,5.35,5.90,5.37,5.91,-5.91,-5.81,-0.56,-0.54,-0.54
108,5.39,5.97,5.38,5.96,-5.96,-5.86,-0.56,-0.58,-0.58
109,5.39,6.00,5.38,6.00,-6.00,-5.90,-0.60,-0.61,-0.61
110,5.36,6.01,5.39,6.03,-6.03,-5.94,-0.67,-0.65,-0.65
111,5.37,6.05,5.39,6.07,-6.07,-5.98,-0.70,-0.68,-0.68
112,5.42,6.13,5.40,6.11,-6.11,-6.02,-0.69,-0.72,-0.71
113,5.41,6.16,5.40,6.15,-6.15,-6.05,-0.74,-0.75,-0.75
114,5.38,6.16,5.40,6.19,-6.19,-6.09,-0.81,-0.78,-0.78
115,5.39,6.20,5.41,6.23,-6.23,-6.13,-0.84,-0.82,-0.81
117,5.45,6.32,5.41,6.27,-6.27,-6.19,-0.82,-0.85,-0.87
118,5.42,6.32,5.42,6.31,-6.31,-6.23,-0.88,-0.89,-0.90
119,5.40,6.33,5.42,6.34,-6.34,-6.26,-0.94,-0.93,-0.93
120,5.42,6.38,5.42,6.38,-6.38,-6.29,-0.96,-0.96,-0.96
121,5.42,6.40,5.42,6.41,-6.41,-6.32,-0.99,-0.99,-0.98
123,5.40,6.44,5.42,6.44,-6.44,-6.37,-1.04,-1.03,-1.04
124,5.39,6.45,5.41,6.47,-6.47,-6.40,-1.08,-1.06,-1.06
125,5.44,6.53,5.41,6.50,-6.50,-6.43,-1.06,-1.09,-1.09
126,5.43,6.54,5.40,6.52,-6.52,-6.45,-1.09,-1.12,-1.11
128,5.40,6.56,5.39,6.54,-6.54,-6.50,-1.14,-1.15,-1.16
129,5.36,6.55,5.38,6.56,-6.56,-6.52,-1.20,-1.18,-1.19
130,5.33,6.54,5.36,6.57,-6.57,-6.54,-1.24,-1.21,-1.21
131,5.32,6.55,5.35,6.59,-6.59,-6.56,-1.27,-1.24,-1.23
133,5.37,6.65,5.33,6.60,-6.60,-6.59,-1.23,-1.27,-1.27
134,5.34,6.64,5.32,6.62,-6.62,-6.61,-1.27,-1.30,-1.30
135,5.30,6.62,5.31,6.63,-6.63,-6.63,-1.33,-1.32,-1.32
137,5.26,6.62,5.29,6.64,-6.64,-6.66,-1.38,-1.35,-1.36
138,5.24,6.62,5.28,6.66,-6.66,-6.67,-1.42,-1.38,-1.38
140,5.30,6.71,5.27,6.67,-6.67,-6.69,-1.37,-1.40,-1.41
141,5.29,6.72,5.25,6.68,-6.68,-6.70,-1.39,-1.43,-1.43
142,5.25,6.70,5.24,6.70,-6.70,-6.71,-1.45,-1.45,-1.45
144,5.21,6.69,5.23,6.71,-6.71,-6.73,-1.50,-1.48,-1.48
145,5.17,6.67,5.21,6.72,-6.72,-6.74,-1.55,-1.50,-1.50
147,5.19,6.72,5.20,6.73,-6.73,-6.75,-1.53,-1.53,-1.53
148,5.21,6.76,5.18,6.73,-6.73,-6.76,-1.52,-1.55,-1.55
150,5.20,6.78,5.17,6.74,-6.74,-6.77,-1.54,-1.57,-1.57
151,5.16,6.75,5.15,6.74,-6.74,-6.77,-1.58,-1.59,-1.59
153,5.12,6.74,5.13,6.74,-6.74,-6.77,-1.62,-1.61,-1.62
154,5.09,6.72,5.11,6.75,-6.75,-6.77,-1.65,-1.63,-1.63
156,5.08,6.74,5.10,6.75,-6.75,-6.78,-1.67,-1.65,-1.65
157,5.06,6.73,5.08,6.75,-6.75,-6.77,-1.68,-1.67,-1.67
159,5.07,6.76,5.06,6.74,-6.74,-6.77,-1.67,-1.69,-1.69
160,5.05,6.75,5.03,6.74,-6.74,-6.77,-1.69,-1.71,-1.70
162,5.03,6.76,5.01,6.74,-6.74,-6.76,-1.70,-1.72,-1.72
164,4.99,6.74,4.99,6.73,-6.73,-6.76,-1.74,-1.74,-1.75
165,4.96,6.72,4.96,6.72,-6.72,-6.75,-1.76,-1.76,-1.76
167,4.92,6.70,4.94,6.72,-6.72,-6.74,-1.79,-1.77,-1.78
169,4.90,6.69,4.92,6.71,-6.71,-6.73,-1.81,-1.79,-1.79
170,4.89,6.69,4.90,6.70,-6.70,-6.72,-1.81,-1.81,-1.80
172,4.86,6.68,4.87,6.69,-6.69,-6.71,-1.83,-1.82,-1.82
174,4.86,6.70,4.85,6.69,-6.69,-6.69,-1.83,-1.83,-1.84
175,4.85,6.70,4.83,6.68,-6.68,-6.69,-1.83,-1.85,-1.85
177,4.81,6.67,4.80,6.66,-6.66,-6.67,-1.85,-1.86,-1.86
179,4.78,6.66,4.77,6.65,-6.65,-6.65,-1.87,-1.87,-1.88
181,4.74,6.63,4.74,6.63,-6.63,-6.63,-1.89,-1.89,-1.89
183,4.71,6.61,4.71,6.61,-6.61,-6.61,-1.90,-1.90,-1.90
184,4.67,6.58,4.68,6.59,-6.59,-6.60,-1.92,-1.91,-1.91
186,4.62,6.54,4.64,6.57,-6.57,-6.58,-1.95,-1.92,-1.92
188,4.60,6.54,4.61,6.55,-6.55,-6.56,-1.95,-1.93,-1.93
190,4.57,6.52,4.58,6.53,-6.53,-6.53,-1.96,-1.95,-1.95
192,4.55,6.51,4.55,6.51,-6.51,-6.51,-1.96,-1.96,-1.96
194,4.52,6.49,4.52,6.48,-6.48,-6.49,-1.96,-1.97,-1.97
196,4.49,6.47,4.48,6.46,-6.46,-6.46,-1.97,-1.98,-1.98
198,4.46,6.45,4.44,6.43,-6.43,-6.44,-1.97,-1.99,-1.99
200,4.43,6.43,4.40,6.39,-6.39,-6.42,-1.96,-2.00,-2.00
202,4.37,6.38,4.35,6.35,-6.35,-6.39,-1.98,-2.01,-2.01
204,4.28,6.29,4.30,6.31,-6.31,-6.37,-2.03,-2.01,-2.01
206,4.22,6.24,4.25,6.28,-6.28,-6.34,-2.05,-2.02,-2.02
208,4.17,6.20,4.21,6.24,-6.24,-6.32,-2.07,-2.03,-2.03
210,4.15,6.19,4.17,6.21,-6.21,-6.29,-2.06,-2.04,-2.04
212,4.14,6.19,4.13,6.18,-6.18,-6.27,-2.04,-2.04,-2.04
214,4.12,6.17,4.10,6.15,-6.15,-6.25,-2.03,-2.05,-2.05
216,4.09,6.15,4.07,6.12,-6.12,-6.22,-2.03,-2.06,-2.06
218,4.04,6.10,4.03,6.10,-6.10,-6.20,-2.06,-2.06,-2.06
221,3.98,6.05,4.00,6.07,-6.07,-6.16,-2.09,-2.07,-2.07
223,3.97,6.05,3.97,6.05,-6.05,-6.14,-2.07,-2.08,-2.08
225,3.91,6.00,3.93,6.02,-6.02,-6.12,-2.11,-2.08,-2.08
227,3.90,5.99,3.90,5.99,-5.99,-6.09,-2.09,-2.09,-2.09
229,3.89,5.99,3.86,5.96,-5.96,-6.07,-2.07,-2.10,-2.09
232,3.83,5.93,3.83,5.93,-5.93,-6.04,-2.10,-2.10,-2.10
234,3.81,5.92,3.79,5.90,-5.90,-6.01,-2.09,-2.11,-2.11
236,3.73,5.84,3.76,5.87,-5.87,-5.99,-2.14,-2.11,-2.11
239,3.71,5.83,3.73,5.84,-5.84,-5.96,-2.13,-2.12,-2.12
241,3.68,5.80,3.70,5.82,-5.82,-5.94,-2.14,-2.12,-2.12
244,3.68,5.81,3.67,5.80,-5.80,-5.91,-2.12,-2.13,-2.13
246,3.67,5.80,3.65,5.78,-5.78,-5.89,-2.11,-2.13,-2.13
248,3.65,5.78,3.63,5.77,-5.77,-5.88,-2.12,-2.13,-2.13
251,3.61,5.75,3.62,5.76,-5.76,-5.85,-2.15,-2.14,-2.14
253,3.59,5.73,3.61,5.75,-5.75,-5.83,-2.16,-2.14,-2.14
256,3.59,5.74,3.60,5.75,-5.75,-5.81,-2.16,-2.15,-2.15
259,3.59,5.74,3.60,5.74,-5.74,-5.78,-2.15,-2.15,-2.15
261,3.59,5.74,3.59,5.74,-5.74,-5.77,-2.15,-2.15,-2.15
264,3.59,5.75,3.58,5.74,-5.74,-5.74,-2.15,-2.16,-2.16
266,3.59,5.75,3.58,5.74,-5.74,-5.73,-2.15,-2.16,-2.16
269,3.59,5.75,3.57,5.73,-5.73,-5.71,-2.14,-2.16,-2.16
272,3.56,5.73,3.56,5.73,-5.73,-5.69,-2.17,-2.17,-2.17
274,3.56,5.73,3.55,5.72,-5.72,-5.68,-2.16,-2.17,-2.17
277,3.52,5.69,3.54,5.71,-5.71,-5.66,-2.19,-2.17,-2.17
280,3.52,5.70,3.53,5.71,-5.71,-5.64,-2.19,-2.18,-2.18
283,3.52,5.70,3.53,5.70,-5.70,-5.63,-2.18,-2.18,-2.18
286,3.52,5.70,3.52,5.70,-5.70,-5.61,-2.18,-2.18,-2.18
288,3.52,5.70,3.52,5.70,-5.70,-5.60,-2.18,-2.18,-2.18
291,3.52,5.71,3.52,5.70,-5.70,-5.59,-2.18,-2.19,-2.18
294,3.51,5.70,3.51,5.70,-5.70,-5.58,-2.19,-2.19,-2.19
297,3.51,5.70,3.51,5.70,-5.70,-5.57,-2.19,-2.19,-2.19
300,3.51,5.70,3.50,5.70,-5.70,-5.56,-2.19,-2.19,-2.19
303,3.51,5.70,3.50,5.69,-5.69,-5.55,-2.18,-2.19,-2.19
306,3.48,5.68,3.49,5.69,-5.69,-5.54,-2.21,-2.20,-2.20
309,3.48,5.68,3.48,5.68,-5.68,-5.54,-2.20,-2.20,-2.20
312,3.48,5.68,3.47,5.67,-5.67,-5.53,-2.19,-2.20,-2.20
316,3.47,5.67,3.46,5.66,-5.66,-5.52,-2.19,-2.20,-2.20
319,3.44,5.64,3.45,5.66,-5.66,-5.52,-2.22,-2.20,-2.20
322,3.44,5.65,3.45,5.65,-5.65,-5.52,-2.21,-2.20,-2.20
325,3.44,5.65,3.44,5.65,-5.65,-5.51,-2.21,-2.21,-2.21
328,3.44,5.65,3.44,5.65,-5.65,-5.51,-2.21,-2.21,-2.21
332,3.43,5.64,3.44,5.65,-5.65,-5.51,-2.22,-2.21,-2.21
335,3.44,5.65,3.44,5.65,-5.65,-5.51,-2.21,-2.21,-2.21
338,3.44,5.65,3.44,5.65,-5.65,-5.51,-2.21,-2.21,-2.21
342,3.44,5.65,3.44,5.66,-5.66,-5.52,-2.22,-2.21,-2.21
345,3.44,5.66,3.44,5.66,-5.66,-5.52,-2.21,-2.21,-2.21
349,3.44,5.66,3.44,5.65,-5.65,-5.52,-2.21,-2.22,-2.22
352,3.47,5.69,3.43,5.65,-5.65,-5.53,-2.18,-2.22,-2.22
356,3.43,5.65,3.42,5.64,-5.64,-5.53,-2.21,-2.22,-2.22
359,3.40,5.62,3.41,5.63,-5.63,-5.54,-2.22,-2.22,-2.22
363,3.36,5.58,3.39,5.61,-5.61,-5.55,-2.25,-2.22,-2.22
366,3.36,5.58,3.38,5.60,-5.60,-5.55,-2.24,-2.22,-2.22
370,3.36,5.58,3.36,5.59,-5.59,-5.56,-2.22,-2.22,-2.22
374,3.36,5.59,3.35,5.57,-5.57,-5.57,-2.21,-2.22,-2.22
377,3.35,5.58,3.34,5.56,-5.56,-5.58,-2.21,-2.23,-2.23
381,3.32,5.55,3.32,5.55,-5.55,-5.59,-2.23,-2.23,-2.23
385,3.32,5.55,3.32,5.54,-5.54,-5.60,-2.22,-2.23,-2.23
389,3.31,5.54,3.31,5.54,-5.54,-5.62,-2.23,-2.23,-2.23
393,3.29,5.52,3.30,5.53,-5.53,-5.63,-2.24,-2.23,-2.23
397,3.29,5.52,3.30,5.53,-5.53,-5.64,-2.24,-2.23,-2.23
401,3.29,5.53,3.30,5.53,-5.53,-5.66,-2.24,-2.23,-2.23
405,3.32,5.56,3.30,5.54,-5.54,-5.67,-2.22,-2.24,-2.24
409,3.32,5.56,3.31,5.55,-5.55,-5.68,-2.23,-2.24,-2.24
413,3.32,5.56,3.33,5.56,-5.56,-5.70,-2.24,-2.24,-2.24
417,3.35,5.59,3.35,5.58,-5.58,-5.71,-2.23,-2.24,-2.24
421,3.35,5.59,3.37,5.61,-5.61,-5.72,-2.26,-2.24,-2.24
425,3.42,5.66,3.40,5.64,-5.64,-5.74,-2.22,-2.24,-2.24
430,3.43,5.67,3.44,5.68,-5.68,-5.75,-2.25,-2.24,-2.24
434,3.46,5.70,3.48,5.72,-5.72,-5.76,-2.26,-2.23,-2.23
438,3.51,5.74,3.53,5.76,-5.76,-5.78,-2.25,-2.23,-2.23
443,3.61,5.84,3.58,5.81,-5.81,-5.79,-2.19,-2.23,-2.23
447,3.63,5.86,3.63,5.85,-5.85,-5.80,-2.22,-2.23,-2.23
451,3.66,5.88,3.68,5.90,-5.90,-5.81,-2.24,-2.22,-2.22
456,3.76,5.98,3.73,5.95,-5.95,-5.83,-2.18,-2.22,-2.22
460,3.78,5.99,3.78,5.99,-5.99,-5.84,-2.21,-2.21,-2.21
465,3.79,5.99,3.83,6.03,-6.03,-5.85,-2.24,-2.20,-2.20
470,3.85,6.05,3.87,6.07,-6.07,-5.86,-2.22,-2.20,-2.20
474,3.94,6.13,3.92,6.10,-6.10,-5.87,-2.16,-2.19,-2.19
479,3.97,6.15,3.95,6.13,-6.13,-5.87,-2.16,-2.18,-2.18
484,3.99,6.16,3.99,6.15,-6.15,-5.88,-2.16,-2.17,-2.17
489,4.00,6.15,4.01,6.17,-6.17,-5.88,-2.16,-2.15,-2.15
494,4.02,6.16,4.03,6.17,-6.17,-5.89,-2.15,-2.14,-2.14
499,4.06,6.19,4.04,6.16,-6.16,-5.89,-2.10,-2.13,-2.13
504,4.04,6.15,4.04,6.15,-6.15,-5.89,-2.11,-2.11,-2.11
509,4.01,6.11,4.03,6.12,-6.12,-5.89,-2.11,-2.09,-2.09
514,3.99,6.07,4.00,6.08,-6.08,-5.89,-2.09,-2.08,-2.08
519,3.99,6.05,3.97,6.03,-6.03,-5.88,-2.04,-2.06,-2.06
524,3.98,6.02,3.94,5.97,-5.97,-5.88,-1.99,-2.04,-2.04
529,3.90,5.92,3.89,5.91,-5.91,-5.87,-2.01,-2.02,-2.02
535,3.79,5.79,3.84,5.83,-5.83,-5.86,-2.04,-2.00,-2.00
540,3.75,5.73,3.78,5.75,-5.75,-5.85,-2.00,-1.97,-1.97
545,3.72,5.67,3.71,5.66,-5.66,-5.83,-1.94,-1.95,-1.95
551,3.67,5.60,3.65,5.57,-5.57,-5.82,-1.90,-1.93,-1.93
556,3.59,5.49,3.58,5.48,-5.48,-5.80,-1.89,-1.90,-1.90
562,3.53,5.41,3.51,5.39,-5.39,-5.78,-1.86,-1.88,-1.88
568,3.47,5.32,3.45,5.30,-5.30,-5.75,-1.83,-1.85,-1.85
573,3.36,5.18,3.39,5.21,-5.21,-5.73,-1.85,-1.82,-1.82
579,3.32,5.12,3.34,5.14,-5.14,-5.70,-1.82,-1.79,-1.79
585,3.28,5.05,3.31,5.07,-5.07,-5.67,-1.79,-1.77,-1.77
591,3.26,5.00,3.28,5.02,-5.02,-5.64,-1.76,-1.74,-1.74
596,3.25,4.96,3.27,4.98,-4.98,-5.61,-1.72,-1.71,-1.71
602,3.30,4.98,3.27,4.95,-4.95,-5.57,-1.64,-1.68,-1.68
608,3.30,4.95,3.28,4.93,-4.93,-5.53,-1.63,-1.64,-1.64
615,3.28,4.89,3.30,4.92,-4.92,-5.48,-1.64,-1.61,-1.61
621,3.31,4.89,3.33,4.91,-4.91,-5.44,-1.60,-1.58,-1.58
627,3.38,4.93,3.37,4.92,-4.92,-5.39,-1.54,-1.55,-1.55
633,3.42,4.93,3.41,4.92,-4.92,-5.35,-1.50,-1.51,-1.51
639,3.46,4.94,3.45,4.93,-4.93,-5.30,-1.47,-1.48,-1.48
646,3.49,4.94,3.50,4.94,-4.94,-5.24,-1.45,-1.45,-1.45
652,3.53,4.94,3.54,4.95,-4.95,-5.19,-1.42,-1.41,-1.41
659,3.59,4.97,3.59,4.96,-4.96,-5.13,-1.37,-1.37,-1.37
665,3.66,5.00,3.63,4.97,-4.97,-5.07,-1.31,-1.34,-1.34
672,3.64,4.94,3.67,4.97,-4.97,-5.01,-1.33,-1.30,-1.30
679,3.74,5.01,3.70,4.97,-4.97,-4.94,-1.23,-1.27,-1.27
686,3.71,4.94,3.73,4.96,-4.96,-4.87,-1.25,-1.23,-1.23
692,3.75,4.94,3.76,4.95,-4.95,-4.81,-1.20,-1.19,-1.19
699,3.79,4.94,3.79,4.94,-4.94,-4.74,-1.15,-1.15,-1.15
706,3.82,4.94,3.81,4.93,-4.93,-4.67,-1.11,-1.12,-1.12
713,3.84,4.92,3.84,4.91,-4.91,-4.60,-1.07,-1.08,-1.08
721,3.84,4.88,3.86,4.90,-4.90,-4.51,-1.05,-1.04,-1.04
728,3.86,4.86,3.87,4.88,-4.88,-4.44,-1.01,-1.00,-1.00
735,3.88,4.84,3.89,4.85,-4.85,-4.36,-0.97,-0.96,-0.96
742,3.89,4.82,3.90,4.83,-4.83,-4.28,-0.94,-0.93,-0.93
750,3.91,4.80,3.91,4.80,-4.80,-4.19,-0.88,-0.89,-0.89
757,3.90,4.75,3.90,4.75,-4.75,-4.11,-0.85,-0.85,-0.85
765,3.89,4.70,3.89,4.70,-4.70,-4.02,-0.81,-0.81,-0.81
773,3.86,4.64,3.86,4.64,-4.64,-3.93,-0.78,-0.78,-0.78
780,3.82,4.56,3.81,4.55,-4.55,-3.84,-0.73,-0.74,-0.74
788,3.75,4.46,3.75,4.45,-4.45,-3.75,-0.70,-0.71,-0.71
796,3.68,4.35,3.66,4.33,-4.33,-3.65,-0.65,-0.67,-0.67
804,3.57,4.21,3.55,4.18,-4.18,-3.54,-0.61,-0.64,-0.64
812,3.44,4.04,3.41,4.02,-4.02,-3.44,-0.58,-0.60,-0.60
820,3.26,3.83,3.26,3.83,-3.83,-3.34,-0.57,-0.57,-0.57
828,3.11,3.65,3.10,3.63,-3.63,-3.23,-0.52,-0.54,-0.54
837,2.88,3.38,2.91,3.42,-3.42,-3.10,-0.54,-0.50,-0.50
845,2.71,3.18,2.72,3.20,-3.20,-2.99,-0.48,-0.47,-0.47
853,2.53,2.97,2.53,2.97,-2.97,-2.87,-0.44,-0.44,-0.44
862,2.32,2.73,2.33,2.74,-2.74,-2.74,-0.42,-0.41,-0.41
871,2.12,2.50,2.13,2.51,-2.51,-2.59,-0.39,-0.38,-0.38
879,1.94,2.29,1.93,2.28,-2.28,-2.46,-0.34,-0.35,-0.35
888,1.73,2.06,1.73,2.05,-2.05,-2.31,-0.32,-0.32,-0.32
897,1.53,1.83,1.54,1.83,-1.83,-2.15,-0.30,-0.30,-0.30
906,1.35,1.62,1.36,1.62,-1.62,-1.99,-0.27,-0.27,-0.27
915,1.19,1.43,1.18,1.42,-1.42,-1.82,-0.23,-0.24,-0.24
924,0.99,1.20,1.02,1.23,-1.23,-1.64,-0.24,-0.21,-0.21
933,0.84,1.03,0.86,1.05,-1.05,-1.45,-0.21,-0.19,-0.19
943,0.69,0.85,0.72,0.88,-0.88,-1.24,-0.19,-0.16,-0.16
952,0.56,0.69,0.58,0.72,-0.72,-1.05,-0.15,-0.13,-0.13
962,0.50,0.61,0.45,0.56,-0.56,-0.82,-0.06,-0.11,-0.11
971,0.41,0.49,0.33,0.41,-0.41,-0.62,-0.00,-0.08,-0.08
981,0.20,0.25,0.22,0.27,-0.27,-0.41,-0.07,-0.05,-0.05
991,0.08,0.11,0.10,0.13,-0.13,-0.19,-0.05,-0.03,-0.03
1001,-0.01,-0.01,0.00,0.00,-0.00,0.00,-0.01,0.00,0.00
1011,-0.11,-0.14,-0.10,-0.12,0.12,0.18,0.01,0.03,0.03
1021,-0.18,-0.23,-0.18,-0.24,0.24,0.33,0.06,0.05,0.05
1031,-0.22,-0.30,-0.26,-0.34,0.34,0.44,0.12,0.08,0.08
1041,-0.28,-0.39,-0.32,-0.43,0.43,0.53,0.15,0.11,0.11
1052,-0.34,-0.48,-0.35,-0.49,0.49,0.57,0.15,0.14,0.14
1062,-0.40,-0.57,-0.37,-0.53,0.53,0.58,0.13,0.17,0.17
1073,-0.35,-0.54,-0.35,-0.54,0.54,0.55,0.19,0.19,0.19
1084,-0.35,-0.57,-0.29,-0.52,0.52,0.50,0.17,0.22,0.22
1094,-0.28,-0.53,-0.20,-0.45,0.45,0.43,0.18,0.25,0.25
1105,-0.12,-0.40,-0.07,-0.36,0.36,0.33,0.24,0.28,0.28
1116,0.07,-0.24,0.09,-0.22,0.22,0.23,0.29,0.31,0.31
1128,0.26,-0.08,0.28,-0.07,0.07,0.12,0.33,0.34,0.34
1139,0.48,0.11,0.48,0.11,-0.11,0.02,0.37,0.37,0.37
1150,0.72,0.32,0.69,0.29,-0.29,-0.08,0.43,0.40,0.40
1162,0.94,0.50,0.90,0.46,-0.46,-0.18,0.48,0.44,0.44
1173,1.11,0.64,1.09,0.62,-0.62,-0.26,0.49,0.47,0.47
1185,1.27,0.77,1.25,0.75,-0.75,-0.34,0.52,0.50,0.50
1197,1.42,0.89,1.39,0.86,-0.86,-0.41,0.56,0.53,0.53
1209,1.55,0.99,1.50,0.93,-0.93,-0.47,0.62,0.56,0.56
1221,1.63,1.03,1.57,0.98,-0.98,-0.53,0.65,0.60,0.60
1233,1.61,0.98,1.63,0.99,-0.99,-0.57,0.62,0.63,0.63
1246,1.63,0.97,1.65,0.99,-0.99,-0.61,0.64,0.66,0.66
1258,1.62,0.92,1.66,0.97,-0.97,-0.64,0.66,0.70,0.70
1271,1.62,0.89,1.66,0.93,-0.93,-0.67,0.70,0.73,0.73
1283,1.62,0.85,1.64,0.87,-0.87,-0.69,0.75,0.77,0.77
1296,1.63,0.83,1.61,0.81,-0.81,-0.70,0.83,0.80,0.80
1309,1.57,0.73,1.56,0.73,-0.73,-0.72,0.84,0.84,0.84
1322,1.53,0.66,1.51,0.63,-0.63,-0.72,0.90,0.87,0.87
1335,1.47,0.56,1.43,0.52,-0.52,-0.73,0.95,0.91,0.91
1349,1.37,0.43,1.35,0.40,-0.40,-0.73,0.97,0.95,0.95
1362,1.28,0.30,1.26,0.28,-0.28,-0.72,1.01,0.98,0.98
1376,1.18,0.16,1.17,0.15,-0.15,-0.72,1.04,1.02,1.02
1390,1.09,0.03,1.08,0.02,-0.02,-0.71,1.07,1.06,1.06
1404,0.99,-0.10,1.01,-0.09,0.09,-0.70,1.08,1.10,1.10
1418,0.87,-0.26,0.96,-0.18,0.18,-0.69,1.05,1.13,1.13
1432,0.89,-0.28,0.93,-0.24,0.24,-0.68,1.13,1.17,1.17
1446,0.89,-0.32,0.94,-0.27,0.27,-0.66,1.17,1.21,1.21
1461,0.94,-0.31,0.97,-0.28,0.28,-0.65,1.22,1.25,1.25
1475,1.05,-0.24,1.03,-0.26,0.26,-0.63,1.31,1.29,1.29
1490,1.16,-0.17,1.12,-0.21,0.21,-0.61,1.38,1.33,1.33
1505,1.25,-0.12,1.22,-0.15,0.15,-0.59,1.40,1.37,1.37
1520,1.35,-0.06,1.34,-0.07,0.07,-0.57,1.42,1.41,1.41
1535,1.46,0.01,1.47,0.02,-0.02,-0.55,1.44,1.46,1.46
1550,1.60,0.10,1.62,0.12,-0.12,-0.53,1.48,1.50,1.50
1566,1.73,0.19,1.77,0.23,-0.23,-0.51,1.50,1.54,1.54
1582,1.91,0.33,1.93,0.35,-0.35,-0.48,1.57,1.58,1.58
1597,2.08,0.46,2.09,0.46,-0.46,-0.46,1.62,1.63,1.63
1613,2.25,0.58,2.24,0.58,-0.58,-0.44,1.68,1.67,1.67
1629,2.44,0.73,2.39,0.68,-0.68,-0.41,1.76,1.71,1.71
1646,2.56,0.80,2.53,0.77,-0.77,-0.38,1.79,1.76,1.76
1662,2.67,0.87,2.66,0.85,-0.85,-0.36,1.82,1.80,1.80
1679,2.79,0.94,2.76,0.92,-0.92,-0.33,1.87,1.85,1.85
1696,2.85,0.96,2.86,0.96,-0.96,-0.31,1.89,1.89,1.90
1713,2.93,0.99,2.94,0.99,-0.99,-0.28,1.94,1.94,1.94
1730,3.00,1.01,3.00,1.01,-1.01,-0.25,1.99,1.99,1.99
1747,3.03,0.99,3.06,1.02,-1.02,-0.22,2.01,2.04,2.04
1764,3.10,1.01,3.10,1.01,-1.01,-0.19,2.09,2.09,2.09
1782,3.12,0.98,3.14,1.00,-1.00,-0.16,2.12,2.14,2.14
1800,3.16,0.97,3.17,0.98,-0.98,-0.13,2.18,2.19,2.19
1818,3.22,0.98,3.19,0.95,-0.95,-0.10,2.27,2.24,2.25
1836,3.21,0.91,3.20,0.90,-0.90,-0.07,2.31,2.30,2.30
1854,3.19,0.83,3.20,0.84,-0.84,-0.04,2.35,2.36,2.36
1873,3.20,0.78,3.19,0.77,-0.77,-0.01,2.43,2.42,2.42
