frequency,raw,smoothed,error,error_smoothed,equalization,parametric_eq,fixed_band_eq,equalized_raw,equalized_smoothed,target
20.00,-4.36,-4.36,-11.71,-11.71,6.00,5.82,2.71,1.64,1.64,7.36
20.20,-4.32,-4.32,-11.65,-11.65,6.00,5.82,2.79,1.68,1.68,7.34
20.40,-4.28,-4.28,-11.59,-11.60,6.00,5.82,2.87,1.72,1.72,7.32
20.61,-4.24,-4.24,-11.54,-11.54,6.00,5.82,2.95,1.76,1.76,7.31
20.81,-4.20,-4.20,-11.48,-11.49,6.00,5.82,3.03,1.80,1.80,7.28
21.02,-4.16,-4.16,-11.43,-11.43,6.00,5.83,3.12,1.84,1.84,7.27
21.23,-4.12,-4.11,-11.37,-11.37,6.00,5.83,3.21,1.88,1.89,7.25
21.44,-4.07,-4.07,-11.31,-11.31,6.00,5.83,3.30,1.93,1.93,7.24
21.66,-4.03,-4.03,-11.26,-11.26,6.00,5.83,3.39,1.97,1.97,7.23
21.87,-3.99,-3.99,-11.20,-11.20,6.00,5.83,3.49,2.01,2.01,7.21
22.09,-3.96,-3.96,-11.16,-11.16,6.00,5.83,3.59,2.04,2.04,7.20
22.31,-3.94,-3.94,-11.13,-11.13,6.00,5.84,3.69,2.06,2.06,7.19
22.54,-3.92,-3.92,-11.10,-11.10,6.00,5.84,3.79,2.08,2.08,7.18
22.76,-3.90,-3.90,-11.07,-11.07,6.00,5.84,3.90,2.10,2.10,7.17
22.99,-3.88,-3.88,-11.04,-11.04,6.00,5.84,4.01,2.12,2.12,7.16
23.22,-3.87,-3.87,-11.02,-11.02,6.00,5.84,4.12,2.13,2.13,7.15
23.45,-3.87,-3.86,-11.02,-11.01,6.00,5.85,4.23,2.13,2.14,7.15
23.69,-3.86,-3.86,-10.99,-11.00,6.00,5.85,4.35,2.14,2.14,7.14
23.92,-3.85,-3.85,-10.98,-10.98,6.00,5.85,4.47,2.15,2.15,7.14
24.16,-3.83,-3.83,-10.96,-10.96,6.00,5.85,4.59,2.17,2.17,7.14
24.40,-3.80,-3.80,-10.93,-10.93,6.00,5.85,4.72,2.20,2.20,7.13
24.65,-3.77,-3.77,-10.90,-10.90,6.00,5.86,4.84,2.23,2.23,7.13
24.89,-3.73,-3.73,-10.86,-10.86,6.00,5.86,4.97,2.27,2.27,7.13
25.14,-3.70,-3.70,-10.83,-10.83,6.00,5.86,5.10,2.30,2.30,7.13
25.39,-3.67,-3.66,-10.80,-10.80,6.00,5.86,5.23,2.33,2.34,7.13
25.65,-3.64,-3.63,-10.77,-10.76,6.00,5.87,5.36,2.36,2.37,7.13
25.91,-3.60,-3.61,-10.74,-10.74,6.00,5.87,5.49,2.40,2.39,7.14
26.16,-3.59,-3.59,-10.73,-10.73,6.00,5.87,5.62,2.41,2.41,7.14
26.43,-3.60,-3.59,-10.73,-10.73,6.00,5.87,5.75,2.40,2.41,7.14
26.69,-3.60,-3.60,-10.73,-10.74,6.00,5.87,5.88,2.40,2.40,7.14
26.96,-3.61,-3.60,-10.74,-10.73,6.00,5.88,6.01,2.39,2.40,7.13
27.23,-3.58,-3.58,-10.71,-10.71,6.00,5.88,6.14,2.42,2.42,7.13
27.50,-3.55,-3.55,-10.68,-10.68,6.00,5.88,6.26,2.45,2.45,7.13
27.77,-3.52,-3.52,-10.65,-10.65,6.00,5.88,6.38,2.48,2.48,7.13
28.05,-3.49,-3.49,-10.62,-10.61,6.00,5.89,6.50,2.51,2.51,7.13
28.33,-3.46,-3.46,-10.57,-10.58,6.00,5.89,6.61,2.54,2.54,7.12
28.62,-3.43,-3.43,-10.54,-10.55,6.00,5.89,6.72,2.57,2.57,7.12
28.90,-3.41,-3.40,-10.52,-10.52,6.00,5.89,6.81,2.59,2.60,7.11
29.19,-3.38,-3.38,-10.49,-10.49,6.00,5.90,6.91,2.62,2.62,7.11
29.48,-3.35,-3.35,-10.46,-10.46,6.00,5.90,6.99,2.65,2.65,7.11
29.78,-3.32,-3.32,-10.43,-10.43,6.00,5.90,7.07,2.68,2.68,7.11
30.08,-3.30,-3.30,-10.40,-10.41,6.00,5.91,7.14,2.70,2.70,7.11
30.38,-3.30,-3.30,-10.40,-10.40,6.00,5.91,7.20,2.70,2.70,7.10
30.68,-3.30,-3.29,-10.39,-10.39,6.00,5.91,7.25,2.70,2.71,7.09
30.99,-3.30,-3.30,-10.39,-10.39,6.00,5.91,7.29,2.70,2.70,7.09
31.30,-3.30,-3.30,-10.38,-10.38,6.00,5.92,7.32,2.70,2.70,7.08
31.61,-3.31,-3.31,-10.38,-10.38,6.00,5.92,7.34,2.69,2.69,7.08
31.93,-3.31,-3.30,-10.38,-10.37,6.00,5.92,7.34,2.69,2.70,7.07
32.24,-3.29,-3.28,-10.35,-10.35,6.00,5.92,7.35,2.71,2.72,7.06
32.57,-3.25,-3.25,-10.31,-10.31,6.00,5.93,7.33,2.75,2.75,7.06
32.89,-3.22,-3.22,-10.27,-10.27,6.00,5.93,7.32,2.78,2.78,7.06
33.22,-3.19,-3.18,-10.24,-10.24,6.00,5.93,7.29,2.81,2.82,7.05
33.55,-3.16,-3.16,-10.21,-10.21,6.00,5.94,7.26,2.84,2.84,7.05
33.89,-3.13,-3.13,-10.19,-10.19,6.00,5.94,7.21,2.87,2.87,7.06
34.23,-3.12,-3.12,-10.17,-10.17,6.00,5.94,7.17,2.88,2.88,7.06
34.57,-3.11,-3.11,-10.16,-10.16,6.00,5.95,7.11,2.89,2.89,7.05
34.92,-3.11,-3.11,-10.17,-10.17,6.00,5.95,7.05,2.89,2.89,7.06
35.27,-3.12,-3.12,-10.17,-10.18,6.00,5.95,6.99,2.88,2.88,7.06
35.62,-3.12,-3.12,-10.18,-10.18,6.00,5.95,6.93,2.88,2.88,7.06
35.97,-3.13,-3.11,-10.19,-10.17,6.00,5.96,6.86,2.87,2.89,7.06
36.33,-3.09,-3.09,-10.14,-10.14,6.00,5.96,6.79,2.91,2.91,7.05
36.70,-3.05,-3.05,-10.10,-10.10,6.00,5.96,6.72,2.95,2.95,7.05
37.06,-3.01,-3.02,-10.05,-10.06,6.00,5.97,6.65,2.99,2.98,7.05
37.43,-3.01,-3.00,-10.04,-10.04,6.00,5.97,6.58,2.99,3.00,7.03
37.81,-3.01,-3.00,-10.04,-10.03,6.00,5.97,6.51,2.99,3.00,7.03
38.19,-3.01,-3.01,-10.02,-10.03,6.00,5.98,6.44,2.99,2.99,7.01
38.57,-3.02,-3.02,-10.02,-10.02,6.00,5.98,6.37,2.98,2.98,7.00
38.95,-3.02,-3.01,-10.00,-9.99,6.00,5.98,6.30,2.98,2.99,6.98
39.34,-2.99,-2.98,-9.96,-9.96,6.00,5.99,6.24,3.01,3.02,6.97
39.74,-2.95,-2.95,-9.91,-9.91,6.00,5.99,6.18,3.05,3.05,6.96
40.14,-2.92,-2.93,-9.87,-9.87,6.00,5.99,6.12,3.08,3.07,6.95
40.54,-2.92,-2.92,-9.85,-9.85,6.00,5.99,6.07,3.08,3.08,6.93
40.94,-2.92,-2.91,-9.84,-9.84,6.00,6.00,6.02,3.08,3.09,6.93
41.35,-2.92,-2.92,-9.84,-9.83,6.00,6.00,5.98,3.08,3.08,6.92
41.76,-2.92,-2.92,-9.82,-9.83,6.00,6.00,5.93,3.08,3.08,6.90
42.18,-2.92,-2.92,-9.82,-9.82,6.00,6.01,5.89,3.08,3.08,6.90
42.60,-2.92,-2.92,-9.82,-9.81,6.00,6.01,5.86,3.08,3.08,6.90
43.03,-2.92,-2.92,-9.81,-9.81,6.00,6.01,5.83,3.08,3.08,6.89
43.46,-2.92,-2.92,-9.80,-9.81,6.00,6.02,5.80,3.08,3.08,6.89
43.90,-2.92,-2.92,-9.81,-9.80,6.00,6.02,5.78,3.08,3.08,6.89
44.33,-2.92,-2.92,-9.80,-9.80,6.00,6.02,5.77,3.08,3.08,6.88
44.78,-2.92,-2.92,-9.79,-9.80,6.00,6.02,5.75,3.08,3.08,6.87
45.23,-2.92,-2.92,-9.79,-9.79,6.00,6.03,5.74,3.08,3.08,6.88
45.68,-2.92,-2.92,-9.78,-9.78,6.00,6.03,5.74,3.08,3.08,6.87
46.13,-2.91,-2.90,-9.77,-9.75,6.00,6.03,5.74,3.09,3.10,6.86
46.60,-2.86,-2.86,-9.71,-9.71,6.00,6.03,5.75,3.14,3.14,6.85
47.06,-2.81,-2.81,-9.65,-9.65,6.00,6.04,5.75,3.19,3.19,6.84
47.53,-2.77,-2.77,-9.60,-9.59,6.00,6.04,5.77,3.23,3.23,6.83
48.01,-2.73,-2.74,-9.55,-9.55,6.00,6.04,5.78,3.27,3.26,6.82
48.49,-2.73,-2.73,-9.53,-9.53,6.00,6.04,5.80,3.27,3.27,6.80
48.97,-2.73,-2.72,-9.51,-9.51,6.00,6.05,5.83,3.27,3.28,6.79
49.46,-2.73,-2.73,-9.50,-9.50,6.00,6.05,5.85,3.27,3.27,6.78
49.96,-2.73,-2.73,-9.48,-9.48,6.00,6.05,5.88,3.27,3.27,6.75
50.46,-2.73,-2.73,-9.47,-9.47,6.00,6.05,5.92,3.27,3.27,6.74
50.96,-2.73,-2.73,-9.46,-9.46,6.00,6.05,5.95,3.27,3.27,6.73
51.47,-2.73,-2.73,-9.44,-9.44,6.00,6.06,5.99,3.27,3.27,6.72
51.99,-2.73,-2.73,-9.43,-9.43,6.00,6.06,6.03,3.27,3.27,6.70
52.51,-2.73,-2.73,-9.42,-9.42,6.00,6.06,6.07,3.27,3.27,6.69
53.03,-2.73,-2.73,-9.40,-9.40,6.00,6.06,6.11,3.27,3.27,6.67
53.56,-2.73,-2.73,-9.39,-9.39,6.00,6.06,6.15,3.27,3.27,6.66
54.10,-2.73,-2.73,-9.37,-9.37,6.00,6.06,6.20,3.27,3.27,6.64
54.64,-2.73,-2.73,-9.36,-9.36,6.00,6.06,6.24,3.27,3.27,6.63
55.18,-2.73,-2.73,-9.34,-9.34,6.00,6.06,6.28,3.27,3.27,6.61
55.74,-2.73,-2.73,-9.32,-9.32,6.00,6.06,6.32,3.27,3.27,6.59
56.29,-2.73,-2.73,-9.30,-9.30,6.00,6.07,6.36,3.27,3.27,6.58
56.86,-2.73,-2.73,-9.29,-9.29,6.00,6.07,6.40,3.27,3.27,6.56
57.42,-2.73,-2.73,-9.27,-9.27,6.00,6.07,6.44,3.27,3.27,6.54
58.00,-2.73,-2.73,-9.26,-9.26,6.00,6.07,6.47,3.27,3.27,6.53
58.58,-2.73,-2.72,-9.24,-9.23,6.00,6.07,6.49,3.27,3.28,6.51
59.16,-2.72,-2.71,-9.21,-9.20,6.00,6.07,6.52,3.28,3.29,6.49
59.76,-2.68,-2.68,-9.15,-9.15,6.00,6.07,6.54,3.32,3.32,6.47
60.35,-2.66,-2.66,-9.10,-9.10,6.00,6.07,6.55,3.34,3.34,6.45
60.96,-2.63,-2.63,-9.05,-9.06,6.00,6.06,6.56,3.37,3.37,6.42
61.57,-2.63,-2.63,-9.03,-9.03,6.00,6.06,6.57,3.37,3.37,6.40
62.18,-2.63,-2.62,-9.01,-9.00,6.00,6.06,6.56,3.37,3.38,6.38
62.80,-2.63,-2.63,-8.97,-8.98,6.00,6.06,6.56,3.37,3.37,6.34
63.43,-2.63,-2.63,-8.95,-8.95,6.00,6.06,6.54,3.37,3.37,6.32
64.07,-2.63,-2.63,-8.92,-8.92,6.00,6.06,6.52,3.37,3.37,6.29
64.71,-2.63,-2.63,-8.88,-8.89,6.00,6.06,6.50,3.37,3.37,6.26
65.35,-2.63,-2.63,-8.86,-8.85,6.00,6.06,6.47,3.37,3.37,6.23
66.01,-2.63,-2.63,-8.82,-8.82,6.00,6.05,6.43,3.37,3.37,6.19
66.67,-2.63,-2.63,-8.79,-8.79,6.00,6.05,6.40,3.37,3.37,6.16
67.33,-2.63,-2.63,-8.75,-8.75,6.00,6.05,6.35,3.37,3.37,6.12
68.01,-2.63,-2.63,-8.72,-8.72,6.00,6.05,6.31,3.37,3.37,6.09
68.69,-2.63,-2.63,-8.68,-8.68,6.00,6.05,6.26,3.37,3.37,6.05
69.37,-2.63,-2.63,-8.65,-8.64,6.00,6.04,6.20,3.37,3.37,6.02
70.07,-2.63,-2.63,-8.60,-8.61,6.00,6.04,6.15,3.37,3.37,5.98
70.77,-2.63,-2.63,-8.57,-8.57,6.00,6.04,6.09,3.37,3.37,5.94
71.48,-2.63,-2.63,-8.53,-8.53,6.00,6.04,6.03,3.37,3.37,5.91
72.19,-2.63,-2.63,-8.49,-8.49,6.00,6.03,5.97,3.37,3.37,5.86
72.91,-2.63,-2.63,-8.45,-8.45,6.00,6.03,5.91,3.37,3.37,5.83
73.64,-2.63,-2.63,-8.42,-8.42,6.00,6.03,5.85,3.37,3.37,5.79
74.38,-2.63,-2.63,-8.38,-8.38,6.00,6.03,5.79,3.37,3.37,5.75
75.12,-2.63,-2.63,-8.33,-8.33,6.00,6.02,5.73,3.37,3.37,5.70
75.87,-2.63,-2.63,-8.29,-8.29,6.00,6.02,5.67,3.37,3.37,5.66
76.63,-2.63,-2.63,-8.25,-8.25,6.00,6.02,5.62,3.37,3.37,5.62
77.40,-2.63,-2.63,-8.21,-8.21,6.00,6.01,5.56,3.37,3.37,5.58
78.17,-2.63,-2.63,-8.17,-8.17,6.00,6.01,5.51,3.37,3.37,5.54
78.95,-2.63,-2.63,-8.13,-8.13,6.00,6.01,5.46,3.37,3.37,5.50
79.74,-2.63,-2.63,-8.08,-8.08,6.00,6.01,5.42,3.37,3.37,5.45
80.54,-2.63,-2.63,-8.04,-8.04,6.00,6.00,5.37,3.37,3.37,5.41
81.35,-2.63,-2.63,-7.99,-7.99,6.00,6.00,5.33,3.37,3.37,5.37
82.16,-2.63,-2.63,-7.95,-7.95,6.00,6.00,5.30,3.37,3.37,5.32
82.98,-2.63,-2.63,-7.90,-7.90,6.00,6.00,5.26,3.37,3.37,5.27
83.81,-2.63,-2.63,-7.85,-7.85,6.00,5.99,5.23,3.37,3.37,5.23
84.65,-2.63,-2.63,-7.81,-7.80,6.00,5.99,5.20,3.37,3.37,5.18
85.50,-2.63,-2.63,-7.75,-7.75,6.00,5.99,5.18,3.37,3.37,5.12
86.35,-2.63,-2.63,-7.70,-7.70,6.00,5.99,5.16,3.37,3.37,5.07
87.22,-2.63,-2.63,-7.65,-7.65,6.00,5.99,5.15,3.37,3.37,5.02
88.09,-2.63,-2.63,-7.60,-7.60,6.00,5.98,5.14,3.37,3.37,4.97
88.97,-2.63,-2.63,-7.55,-7.54,6.00,5.98,5.13,3.37,3.37,4.92
89.86,-2.63,-2.62,-7.49,-7.49,6.00,5.98,5.12,3.37,3.38,4.86
90.76,-2.62,-2.62,-7.42,-7.43,6.00,5.98,5.12,3.38,3.38,4.81
91.66,-2.62,-2.62,-7.36,-7.36,6.00,5.98,5.13,3.38,3.38,4.74
92.58,-2.62,-2.62,-7.31,-7.30,6.00,5.98,5.14,3.38,3.38,4.69
93.51,-2.62,-2.62,-7.24,-7.24,6.00,5.98,5.15,3.38,3.38,4.63
94.44,-2.62,-2.62,-7.18,-7.18,6.00,5.98,5.16,3.38,3.38,4.56
95.39,-2.62,-2.62,-7.12,-7.12,6.00,5.98,5.18,3.38,3.38,4.50
96.34,-2.63,-2.62,-7.06,-7.05,6.00,5.97,5.20,3.37,3.38,4.43
97.30,-2.63,-2.63,-6.99,-6.99,6.00,5.97,5.22,3.37,3.37,4.36
98.28,-2.64,-2.64,-6.93,-6.93,6.00,5.97,5.25,3.36,3.36,4.29
99.26,-2.66,-2.65,-6.87,-6.87,6.00,5.97,5.28,3.34,3.35,4.22
100.25,-2.67,-2.67,-6.81,-6.81,6.00,5.97,5.32,3.33,3.33,4.14
101.25,-2.69,-2.68,-6.75,-6.75,6.00,5.97,5.35,3.31,3.32,4.07
102.27,-2.70,-2.70,-6.69,-6.69,6.00,5.96,5.39,3.30,3.30,3.99
103.29,-2.72,-2.72,-6.63,-6.63,6.00,5.96,5.43,3.28,3.28,3.91
104.32,-2.74,-2.74,-6.57,-6.57,6.00,5.96,5.47,3.26,3.26,3.84
105.37,-2.76,-2.76,-6.52,-6.52,6.00,5.95,5.51,3.24,3.24,3.76
106.42,-2.79,-2.78,-6.46,-6.46,6.00,5.95,5.55,3.21,3.22,3.67
107.48,-2.81,-2.81,-6.41,-6.41,6.00,5.94,5.59,3.19,3.19,3.60
108.56,-2.83,-2.82,-6.36,-6.35,6.00,5.93,5.63,3.17,3.18,3.53
109.64,-2.85,-2.85,-6.30,-6.30,6.00,5.92,5.67,3.15,3.15,3.46
110.74,-2.87,-2.89,-6.25,-6.27,6.01,5.91,5.71,3.14,3.11,3.38
111.85,-2.95,-2.94,-6.26,-6.25,6.01,5.90,5.75,3.06,3.07,3.31
112.97,-3.00,-2.98,-6.25,-6.23,6.01,5.89,5.79,3.01,3.03,3.25
114.10,-3.00,-3.00,-6.18,-6.19,6.01,5.87,5.82,3.01,3.01,3.18
115.24,-3.00,-3.00,-6.12,-6.12,6.00,5.85,5.85,3.00,2.99,3.12
116.39,-3.00,-3.00,-6.05,-6.05,5.98,5.84,5.88,2.98,2.98,3.05
117.55,-3.00,-3.00,-6.00,-5.99,5.95,5.82,5.90,2.95,2.96,3.00
118.73,-2.99,-2.99,-5.92,-5.93,5.92,5.79,5.92,2.93,2.92,2.94
119.92,-2.99,-2.99,-5.87,-5.87,5.87,5.77,5.93,2.88,2.88,2.88
121.12,-2.98,-2.98,-5.81,-5.81,5.82,5.74,5.94,2.84,2.84,2.83
122.33,-2.97,-2.97,-5.75,-5.75,5.76,5.71,5.94,2.79,2.79,2.78
123.55,-2.96,-2.96,-5.68,-5.69,5.70,5.68,5.94,2.74,2.73,2.73
124.79,-2.96,-2.95,-5.63,-5.63,5.63,5.65,5.93,2.67,2.68,2.67
126.03,-2.95,-2.95,-5.57,-5.57,5.57,5.61,5.92,2.62,2.62,2.62
127.29,-2.94,-2.94,-5.51,-5.52,5.52,5.58,5.89,2.58,2.57,2.57
128.57,-2.94,-2.93,-5.46,-5.46,5.46,5.54,5.87,2.52,2.53,2.52
129.85,-2.93,-2.93,-5.40,-5.41,5.41,5.50,5.83,2.48,2.48,2.48
131.15,-2.93,-2.93,-5.36,-5.35,5.35,5.46,5.80,2.43,2.43,2.43
132.46,-2.92,-2.92,-5.30,-5.30,5.30,5.41,5.75,2.38,2.38,2.38
133.79,-2.92,-2.91,-5.25,-5.25,5.25,5.37,5.71,2.33,2.34,2.33
135.12,-2.91,-2.91,-5.20,-5.20,5.20,5.32,5.65,2.29,2.29,2.29
136.48,-2.91,-2.91,-5.15,-5.15,5.15,5.27,5.60,2.24,2.24,2.24
137.84,-2.91,-2.91,-5.11,-5.10,5.10,5.23,5.54,2.19,2.19,2.20
139.22,-2.91,-2.90,-5.05,-5.05,5.05,5.18,5.48,2.14,2.14,2.15
140.61,-2.90,-2.90,-5.00,-5.00,5.00,5.13,5.41,2.10,2.10,2.10
142.02,-2.90,-2.90,-4.95,-4.95,4.95,5.08,5.34,2.05,2.05,2.05
143.44,-2.90,-2.90,-4.90,-4.90,4.90,5.03,5.27,2.00,2.00,2.00
144.87,-2.90,-2.90,-4.85,-4.85,4.85,4.97,5.20,1.95,1.95,1.95
146.32,-2.90,-2.90,-4.81,-4.80,4.80,4.92,5.13,1.91,1.91,1.91
147.78,-2.90,-2.90,-4.76,-4.76,4.76,4.87,5.06,1.86,1.86,1.86
149.26,-2.90,-2.90,-4.71,-4.71,4.71,4.82,4.99,1.81,1.81,1.81
150.75,-2.90,-2.90,-4.66,-4.66,4.66,4.77,4.92,1.76,1.76,1.77
152.26,-2.90,-2.90,-4.62,-4.62,4.62,4.72,4.85,1.72,1.72,1.72
153.78,-2.90,-2.90,-4.58,-4.58,4.57,4.67,4.78,1.68,1.68,1.68
155.32,-2.90,-2.90,-4.54,-4.54,4.54,4.62,4.71,1.64,1.64,1.64
156.88,-2.90,-2.89,-4.49,-4.49,4.50,4.58,4.64,1.61,1.61,1.59
158.44,-2.90,-2.90,-4.45,-4.45,4.47,4.53,4.58,1.57,1.57,1.55
160.03,-2.90,-2.93,-4.41,-4.43,4.44,4.48,4.51,1.54,1.51,1.51
161.63,-2.98,-2.96,-4.44,-4.42,4.40,4.44,4.46,1.43,1.44,1.46
163.24,-3.00,-2.98,-4.42,-4.40,4.37,4.39,4.40,1.38,1.39,1.42
164.88,-3.00,-2.98,-4.38,-4.36,4.34,4.35,4.34,1.35,1.36,1.38
166.53,-2.94,-2.97,-4.28,-4.31,4.32,4.31,4.29,1.38,1.35,1.34
168.19,-2.98,-2.98,-4.28,-4.28,4.30,4.27,4.24,1.32,1.32,1.30
169.87,-3.02,-3.00,-4.28,-4.26,4.28,4.23,4.19,1.26,1.28,1.26
171.57,-3.03,-3.02,-4.25,-4.25,4.26,4.19,4.15,1.23,1.24,1.23
173.29,-3.04,-3.05,-4.23,-4.24,4.25,4.16,4.11,1.21,1.20,1.19
175.02,-3.06,-3.08,-4.22,-4.24,4.24,4.12,4.07,1.18,1.16,1.16
176.77,-3.13,-3.11,-4.26,-4.24,4.23,4.09,4.03,1.10,1.12,1.13
178.54,-3.14,-3.13,-4.23,-4.23,4.21,4.05,4.00,1.07,1.08,1.10
180.32,-3.14,-3.14,-4.21,-4.21,4.20,4.02,3.97,1.06,1.05,1.07
182.13,-3.13,-3.13,-4.18,-4.18,4.17,3.99,3.95,1.05,1.04,1.05
183.95,-3.12,-3.12,-4.15,-4.15,4.15,3.96,3.92,1.03,1.03,1.03
185.79,-3.11,-3.10,-4.11,-4.11,4.12,3.93,3.90,1.01,1.01,1.01
187.65,-3.09,-3.09,-4.07,-4.08,4.08,3.91,3.88,1.00,0.99,0.99
189.52,-3.08,-3.08,-4.04,-4.05,4.05,3.88,3.87,0.97,0.97,0.97
191.42,-3.07,-3.06,-4.02,-4.02,4.01,3.86,3.86,0.95,0.95,0.96
193.33,-3.05,-3.05,-3.98,-3.99,3.98,3.83,3.85,0.93,0.93,0.94
195.27,-3.04,-3.03,-3.96,-3.95,3.95,3.81,3.84,0.91,0.92,0.92
197.22,-3.02,-3.02,-3.92,-3.92,3.92,3.79,3.84,0.91,0.90,0.90
199.19,-3.01,-3.01,-3.89,-3.89,3.90,3.77,3.83,0.89,0.89,0.88
201.18,-3.00,-3.00,-3.86,-3.87,3.87,3.75,3.84,0.87,0.87,0.87
203.19,-3.00,-3.00,-3.85,-3.85,3.85,3.74,3.84,0.85,0.85,0.85
205.23,-3.00,-3.00,-3.83,-3.83,3.83,3.72,3.84,0.83,0.83,0.84
207.28,-3.00,-3.00,-3.82,-3.82,3.81,3.70,3.84,0.81,0.81,0.82
209.35,-3.00,-3.00,-3.80,-3.80,3.80,3.69,3.85,0.80,0.80,0.81
211.44,-3.00,-2.99,-3.78,-3.78,3.79,3.68,3.86,0.80,0.80,0.78
213.56,-3.01,-3.01,-3.78,-3.77,3.79,3.66,3.87,0.78,0.78,0.77
215.69,-3.01,-3.03,-3.75,-3.78,3.79,3.65,3.88,0.78,0.76,0.74
217.85,-3.08,-3.06,-3.81,-3.79,3.79,3.64,3.89,0.71,0.73,0.73
220.03,-3.10,-3.09,-3.81,-3.80,3.79,3.63,3.90,0.69,0.70,0.71
222.23,-3.11,-3.11,-3.81,-3.81,3.79,3.62,3.91,0.68,0.67,0.70
224.45,-3.12,-3.11,-3.80,-3.80,3.78,3.61,3.91,0.67,0.67,0.69
226.70,-3.11,-3.11,-3.78,-3.79,3.78,3.61,3.92,0.67,0.67,0.68
228.96,-3.11,-3.11,-3.77,-3.77,3.78,3.60,3.93,0.67,0.67,0.66
231.25,-3.10,-3.09,-3.76,-3.75,3.77,3.59,3.94,0.67,0.68,0.66
233.57,-3.09,-3.09,-3.74,-3.74,3.77,3.59,3.94,0.68,0.68,0.65
235.90,-3.08,-3.10,-3.72,-3.74,3.76,3.58,3.95,0.68,0.67,0.64
238.26,-3.12,-3.11,-3.76,-3.76,3.76,3.58,3.95,0.64,0.64,0.64
240.64,-3.14,-3.13,-3.78,-3.77,3.75,3.57,3.95,0.62,0.63,0.65
243.05,-3.13,-3.13,-3.77,-3.77,3.75,3.57,3.95,0.62,0.62,0.65
245.48,-3.11,-3.11,-3.76,-3.76,3.75,3.57,3.94,0.64,0.64,0.65
247.93,-3.08,-3.08,-3.73,-3.73,3.74,3.57,3.94,0.66,0.66,0.65
250.41,-3.06,-3.06,-3.71,-3.71,3.73,3.56,3.93,0.67,0.67,0.65
252.92,-3.05,-3.05,-3.70,-3.70,3.71,3.56,3.92,0.66,0.66,0.66
255.45,-3.04,-3.04,-3.69,-3.69,3.68,3.56,3.90,0.64,0.64,0.65
258.00,-3.03,-3.02,-3.68,-3.67,3.65,3.56,3.89,0.62,0.63,0.65
260.58,-3.01,-2.99,-3.65,-3.63,3.62,3.56,3.87,0.61,0.63,0.64
263.19,-2.94,-2.96,-3.58,-3.59,3.59,3.56,3.85,0.66,0.64,0.64
265.82,-2.93,-2.93,-3.55,-3.56,3.57,3.56,3.82,0.64,0.64,0.62
268.48,-2.93,-2.92,-3.54,-3.54,3.55,3.56,3.80,0.63,0.63,0.61
271.16,-2.93,-2.93,-3.53,-3.53,3.54,3.56,3.77,0.62,0.62,0.60
273.87,-2.94,-2.93,-3.53,-3.52,3.54,3.56,3.75,0.60,0.60,0.59
276.61,-2.94,-2.95,-3.52,-3.53,3.54,3.57,3.72,0.60,0.59,0.58
279.38,-2.99,-2.98,-3.55,-3.55,3.55,3.57,3.69,0.56,0.56,0.56
282.17,-3.02,-3.01,-3.58,-3.57,3.55,3.57,3.66,0.53,0.54,0.56
284.99,-3.03,-3.03,-3.58,-3.58,3.56,3.57,3.63,0.53,0.53,0.55
287.84,-3.02,-3.02,-3.58,-3.57,3.56,3.58,3.60,0.54,0.54,0.56
290.72,-3.01,-3.01,-3.56,-3.56,3.56,3.58,3.57,0.55,0.55,0.55
293.63,-2.99,-2.99,-3.54,-3.54,3.55,3.58,3.53,0.56,0.56,0.55
296.57,-2.98,-2.98,-3.53,-3.53,3.54,3.59,3.50,0.56,0.56,0.55
299.53,-2.97,-2.97,-3.53,-3.52,3.53,3.59,3.47,0.56,0.56,0.56
302.53,-2.96,-2.96,-3.51,-3.52,3.52,3.59,3.45,0.56,0.56,0.56
305.55,-2.95,-2.95,-3.51,-3.51,3.50,3.60,3.42,0.56,0.56,0.56
308.61,-2.94,-2.94,-3.50,-3.50,3.49,3.60,3.39,0.56,0.56,0.56
311.69,-2.93,-2.93,-3.48,-3.49,3.49,3.60,3.37,0.56,0.56,0.56
314.81,-2.93,-2.92,-3.48,-3.48,3.48,3.61,3.34,0.55,0.56,0.55
317.96,-2.92,-2.92,-3.47,-3.47,3.48,3.61,3.32,0.56,0.56,0.55
321.14,-2.92,-2.92,-3.46,-3.47,3.47,3.62,3.30,0.55,0.55,0.55
324.35,-2.92,-2.92,-3.47,-3.47,3.47,3.62,3.29,0.55,0.55,0.55
327.59,-2.93,-2.92,-3.48,-3.47,3.47,3.63,3.27,0.54,0.54,0.55
330.87,-2.93,-2.93,-3.47,-3.48,3.47,3.63,3.26,0.54,0.54,0.55
334.18,-2.93,-2.93,-3.47,-3.47,3.47,3.63,3.24,0.54,0.54,0.54
337.52,-2.93,-2.93,-3.47,-3.47,3.47,3.64,3.24,0.54,0.54,0.54
340.90,-2.93,-2.93,-3.47,-3.47,3.47,3.64,3.23,0.55,0.55,0.54
344.30,-2.93,-2.93,-3.47,-3.47,3.48,3.65,3.22,0.55,0.55,0.55
347.75,-2.93,-2.93,-3.48,-3.48,3.48,3.65,3.22,0.55,0.55,0.55
351.23,-2.93,-2.93,-3.47,-3.48,3.48,3.66,3.22,0.55,0.55,0.54
354.74,-2.93,-2.93,-3.49,-3.48,3.48,3.66,3.22,0.55,0.55,0.56
358.28,-2.93,-2.92,-3.49,-3.48,3.48,3.67,3.23,0.55,0.55,0.56
361.87,-2.92,-2.92,-3.48,-3.48,3.48,3.67,3.24,0.56,0.56,0.57
365.49,-2.91,-2.91,-3.48,-3.48,3.48,3.67,3.25,0.58,0.57,0.57
369.14,-2.91,-2.90,-3.48,-3.48,3.49,3.68,3.26,0.58,0.59,0.57
372.83,-2.90,-2.90,-3.49,-3.48,3.50,3.68,3.27,0.60,0.60,0.59
376.56,-2.89,-2.91,-3.48,-3.50,3.51,3.69,3.29,0.62,0.60,0.59
380.33,-2.95,-2.94,-3.53,-3.53,3.52,3.69,3.31,0.57,0.58,0.59
384.13,-2.98,-2.96,-3.56,-3.55,3.53,3.69,3.33,0.55,0.57,0.59
387.97,-2.97,-2.97,-3.55,-3.56,3.54,3.70,3.35,0.57,0.57,0.58
391.85,-2.96,-2.96,-3.55,-3.55,3.54,3.70,3.38,0.59,0.58,0.59
395.77,-2.96,-2.96,-3.54,-3.54,3.54,3.71,3.41,0.59,0.59,0.58
399.73,-2.96,-2.96,-3.54,-3.54,3.54,3.71,3.43,0.58,0.58,0.58
403.72,-2.97,-2.96,-3.55,-3.53,3.53,3.71,3.46,0.56,0.57,0.58
407.76,-2.97,-2.97,-3.52,-3.53,3.53,3.72,3.49,0.56,0.56,0.56
411.84,-2.97,-2.97,-3.52,-3.52,3.53,3.72,3.53,0.56,0.56,0.56
415.96,-2.97,-2.96,-3.52,-3.51,3.53,3.72,3.56,0.57,0.57,0.55
420.12,-2.97,-2.97,-3.51,-3.52,3.54,3.73,3.59,0.58,0.58,0.54
424.32,-2.97,-2.99,-3.52,-3.54,3.56,3.73,3.63,0.59,0.56,0.55
428.56,-3.03,-3.02,-3.59,-3.57,3.57,3.73,3.66,0.54,0.55,0.56
432.85,-3.05,-3.03,-3.63,-3.60,3.58,3.73,3.69,0.53,0.55,0.58
437.18,-3.01,-3.02,-3.60,-3.61,3.59,3.74,3.73,0.58,0.57,0.59
441.55,-2.98,-2.98,-3.61,-3.60,3.60,3.74,3.76,0.62,0.62,0.63
445.96,-2.93,-2.93,-3.59,-3.59,3.60,3.74,3.79,0.67,0.67,0.67
450.42,-2.88,-2.88,-3.59,-3.59,3.60,3.74,3.82,0.72,0.72,0.72
454.93,-2.82,-2.82,-3.58,-3.58,3.59,3.74,3.85,0.77,0.77,0.76
459.48,-2.76,-2.76,-3.58,-3.58,3.58,3.75,3.88,0.82,0.82,0.82
464.07,-2.70,-2.70,-3.57,-3.57,3.57,3.75,3.90,0.87,0.87,0.87
468.71,-2.65,-2.64,-3.57,-3.57,3.56,3.75,3.92,0.92,0.92,0.92
473.40,-2.58,-2.58,-3.56,-3.57,3.57,3.75,3.94,0.99,0.99,0.98
478.13,-2.53,-2.52,-3.57,-3.56,3.58,3.75,3.96,1.06,1.06,1.04
482.91,-2.48,-2.47,-3.57,-3.56,3.60,3.75,3.97,1.12,1.13,1.09
487.74,-2.44,-2.46,-3.57,-3.59,3.62,3.75,3.98,1.18,1.16,1.13
492.62,-2.46,-2.46,-3.63,-3.63,3.63,3.75,3.98,1.17,1.17,1.17
497.55,-2.49,-2.47,-3.70,-3.67,3.64,3.75,3.98,1.15,1.17,1.21
502.52,-2.46,-2.47,-3.69,-3.70,3.64,3.75,3.98,1.18,1.17,1.23
507.55,-2.43,-2.42,-3.68,-3.68,3.63,3.75,3.98,1.20,1.21,1.26
