frequency,raw,smoothed,error,error_smoothed,equalization,parametric_eq,fixed_band_eq,equalized_raw,equalized_smoothed,target
20.00,-4.28,-4.28,-5.37,-5.37,5.34,5.36,1.91,1.06,1.06,1.08
20.20,-4.24,-4.25,-5.36,-5.36,5.36,5.33,1.97,1.11,1.11,1.11
20.40,-4.21,-4.21,-5.35,-5.35,5.36,5.30,2.03,1.15,1.15,1.14
20.61,-4.17,-4.18,-5.33,-5.34,5.36,5.27,2.09,1.19,1.18,1.16
20.81,-4.15,-4.15,-5.34,-5.34,5.36,5.25,2.15,1.20,1.20,1.19
21.02,-4.12,-4.13,-5.34,-5.34,5.35,5.22,2.21,1.22,1.22,1.22
21.23,-4.10,-4.10,-5.33,-5.33,5.33,5.19,2.28,1.22,1.23,1.23
21.44,-4.07,-4.07,-5.31,-5.31,5.30,5.16,2.35,1.23,1.23,1.24
21.66,-4.04,-4.04,-5.29,-5.29,5.28,5.13,2.41,1.23,1.23,1.25
21.87,-4.00,-4.00,-5.25,-5.25,5.24,5.10,2.49,1.24,1.24,1.25
22.09,-3.95,-3.95,-5.21,-5.21,5.20,5.07,2.56,1.25,1.25,1.26
22.31,-3.89,-3.90,-5.15,-5.15,5.15,5.04,2.63,1.26,1.25,1.26
22.54,-3.84,-3.84,-5.10,-5.10,5.10,5.01,2.71,1.25,1.26,1.26
22.76,-3.78,-3.79,-5.04,-5.04,5.05,4.98,2.79,1.26,1.26,1.25
22.99,-3.73,-3.74,-4.98,-4.98,5.00,4.95,2.87,1.26,1.26,1.24
23.22,-3.69,-3.69,-4.94,-4.94,4.95,4.92,2.95,1.26,1.26,1.24
23.45,-3.65,-3.66,-4.90,-4.90,4.91,4.89,3.04,1.26,1.25,1.24
23.69,-3.62,-3.62,-4.87,-4.87,4.87,4.86,3.12,1.25,1.25,1.24
23.92,-3.59,-3.59,-4.83,-4.84,4.83,4.83,3.21,1.24,1.24,1.24
24.16,-3.56,-3.56,-4.81,-4.81,4.80,4.80,3.30,1.23,1.23,1.25
24.40,-3.53,-3.53,-4.78,-4.78,4.76,4.77,3.39,1.23,1.23,1.25
24.65,-3.49,-3.49,-4.73,-4.74,4.73,4.74,3.48,1.23,1.23,1.24
24.89,-3.45,-3.45,-4.69,-4.69,4.69,4.71,3.58,1.24,1.24,1.24
25.14,-3.41,-3.41,-4.65,-4.65,4.65,4.67,3.67,1.24,1.24,1.24
25.39,-3.37,-3.38,-4.61,-4.61,4.62,4.64,3.76,1.25,1.24,1.24
25.65,-3.34,-3.34,-4.58,-4.57,4.59,4.61,3.86,1.24,1.24,1.23
25.91,-3.31,-3.32,-4.54,-4.54,4.56,4.58,3.95,1.24,1.24,1.22
26.16,-3.29,-3.29,-4.52,-4.52,4.52,4.55,4.05,1.23,1.23,1.22
26.43,-3.27,-3.28,-4.50,-4.50,4.49,4.52,4.14,1.22,1.22,1.22
26.69,-3.25,-3.25,-4.47,-4.47,4.46,4.48,4.23,1.20,1.20,1.22
26.96,-3.22,-3.22,-4.44,-4.44,4.42,4.45,4.32,1.19,1.20,1.22
27.23,-3.17,-3.18,-4.39,-4.39,4.37,4.42,4.41,1.20,1.20,1.22
27.50,-3.12,-3.12,-4.34,-4.34,4.33,4.39,4.50,1.20,1.20,1.22
27.77,-3.06,-3.06,-4.27,-4.27,4.28,4.35,4.58,1.22,1.22,1.20
28.05,-3.01,-3.02,-4.22,-4.22,4.24,4.32,4.66,1.22,1.22,1.20
28.33,-2.97,-2.98,-4.17,-4.17,4.20,4.29,4.74,1.23,1.22,1.19
28.62,-2.95,-2.95,-4.14,-4.14,4.16,4.26,4.81,1.21,1.21,1.19
28.90,-2.93,-2.94,-4.12,-4.12,4.13,4.23,4.87,1.20,1.19,1.19
29.19,-2.93,-2.93,-4.11,-4.11,4.11,4.19,4.93,1.17,1.17,1.18
29.48,-2.92,-2.92,-4.11,-4.10,4.08,4.16,4.99,1.15,1.16,1.19
29.78,-2.90,-2.90,-4.08,-4.08,4.05,4.13,5.03,1.15,1.15,1.17
30.08,-2.87,-2.87,-4.05,-4.04,4.02,4.10,5.07,1.15,1.15,1.17
30.38,-2.83,-2.83,-3.99,-3.99,3.99,4.06,5.11,1.16,1.16,1.16
30.68,-2.78,-2.79,-3.94,-3.94,3.96,4.03,5.13,1.18,1.17,1.16
30.99,-2.75,-2.76,-3.90,-3.90,3.93,4.00,5.15,1.17,1.17,1.15
31.30,-2.73,-2.73,-3.88,-3.88,3.90,3.97,5.15,1.17,1.17,1.14
31.61,-2.72,-2.73,-3.87,-3.86,3.87,3.94,5.16,1.15,1.15,1.14
31.93,-2.72,-2.72,-3.85,-3.85,3.85,3.90,5.15,1.12,1.12,1.13
32.24,-2.72,-2.72,-3.84,-3.84,3.83,3.87,5.13,1.10,1.11,1.12
32.57,-2.71,-2.71,-3.83,-3.82,3.81,3.84,5.11,1.09,1.10,1.11
32.89,-2.68,-2.69,-3.80,-3.80,3.79,3.81,5.08,1.10,1.10,1.11
33.22,-2.66,-2.66,-3.76,-3.76,3.76,3.78,5.04,1.10,1.10,1.10
33.55,-2.63,-2.64,-3.73,-3.73,3.73,3.75,5.00,1.10,1.10,1.10
33.89,-2.61,-2.61,-3.70,-3.70,3.70,3.72,4.95,1.09,1.09,1.08
34.23,-2.59,-2.59,-3.67,-3.67,3.67,3.68,4.89,1.08,1.08,1.08
34.57,-2.57,-2.57,-3.64,-3.64,3.64,3.65,4.83,1.07,1.07,1.07
34.92,-2.55,-2.55,-3.61,-3.61,3.61,3.62,4.77,1.06,1.06,1.05
35.27,-2.53,-2.54,-3.58,-3.58,3.58,3.59,4.70,1.05,1.05,1.05
35.62,-2.52,-2.52,-3.56,-3.56,3.55,3.56,4.63,1.03,1.03,1.04
35.97,-2.50,-2.50,-3.53,-3.53,3.53,3.53,4.55,1.02,1.02,1.02
36.33,-2.48,-2.48,-3.50,-3.50,3.50,3.50,4.47,1.01,1.01,1.02
36.70,-2.46,-2.46,-3.47,-3.47,3.47,3.47,4.40,1.01,1.01,1.01
37.06,-2.44,-2.45,-3.44,-3.44,3.44,3.44,4.32,1.00,1.00,0.99
37.43,-2.43,-2.43,-3.42,-3.41,3.42,3.41,4.23,0.98,0.99,0.99
37.81,-2.41,-2.42,-3.39,-3.39,3.39,3.39,4.15,0.98,0.98,0.97
38.19,-2.40,-2.40,-3.36,-3.37,3.37,3.36,4.07,0.96,0.96,0.96
38.57,-2.39,-2.39,-3.35,-3.34,3.34,3.33,3.99,0.95,0.95,0.95
38.95,-2.38,-2.38,-3.32,-3.32,3.32,3.30,3.91,0.93,0.93,0.94
39.34,-2.37,-2.37,-3.30,-3.30,3.29,3.27,3.83,0.92,0.92,0.92
39.74,-2.35,-2.36,-3.26,-3.27,3.27,3.24,3.76,0.92,0.91,0.91
40.14,-2.34,-2.34,-3.25,-3.24,3.25,3.22,3.68,0.90,0.90,0.90
40.54,-2.33,-2.33,-3.22,-3.22,3.23,3.19,3.60,0.89,0.90,0.89
40.94,-2.32,-2.32,-3.21,-3.20,3.21,3.16,3.53,0.88,0.88,0.88
41.35,-2.31,-2.32,-3.18,-3.19,3.19,3.14,3.46,0.87,0.87,0.87
41.76,-2.31,-2.31,-3.17,-3.17,3.17,3.11,3.39,0.85,0.86,0.86
42.18,-2.30,-2.30,-3.16,-3.15,3.15,3.08,3.33,0.84,0.84,0.85
42.60,-2.29,-2.29,-3.13,-3.14,3.13,3.06,3.26,0.83,0.83,0.84
43.03,-2.28,-2.28,-3.11,-3.11,3.10,3.03,3.20,0.82,0.82,0.83
43.46,-2.26,-2.27,-3.08,-3.07,3.08,3.01,3.14,0.81,0.81,0.81
43.90,-2.25,-2.26,-3.04,-3.05,3.05,2.98,3.08,0.80,0.79,0.78
44.33,-2.25,-2.25,-3.02,-3.02,3.02,2.96,3.02,0.77,0.77,0.77
44.78,-2.25,-2.25,-3.00,-3.00,3.00,2.94,2.97,0.74,0.75,0.75
45.23,-2.24,-2.24,-2.97,-2.97,2.97,2.91,2.92,0.73,0.73,0.73
45.68,-2.23,-2.23,-2.95,-2.95,2.95,2.89,2.87,0.72,0.72,0.71
46.13,-2.22,-2.22,-2.92,-2.92,2.93,2.86,2.83,0.70,0.70,0.69
46.60,-2.21,-2.22,-2.90,-2.90,2.90,2.84,2.78,0.69,0.68,0.68
47.06,-2.21,-2.21,-2.88,-2.88,2.87,2.82,2.74,0.66,0.66,0.66
47.53,-2.21,-2.21,-2.86,-2.86,2.84,2.80,2.70,0.63,0.63,0.64
48.01,-2.20,-2.20,-2.84,-2.83,2.82,2.77,2.66,0.61,0.62,0.63
48.49,-2.18,-2.19,-2.79,-2.79,2.79,2.75,2.63,0.60,0.60,0.60
48.97,-2.17,-2.18,-2.75,-2.75,2.76,2.73,2.60,0.59,0.58,0.57
49.46,-2.17,-2.17,-2.71,-2.72,2.73,2.71,2.56,0.56,0.56,0.54
49.96,-2.18,-2.18,-2.69,-2.70,2.71,2.69,2.54,0.52,0.53,0.51
50.46,-2.18,-2.19,-2.68,-2.68,2.68,2.67,2.51,0.50,0.49,0.50
50.96,-2.19,-2.19,-2.67,-2.66,2.65,2.65,2.48,0.46,0.46,0.47
51.47,-2.19,-2.19,-2.63,-2.64,2.63,2.63,2.46,0.44,0.44,0.44
51.99,-2.19,-2.19,-2.61,-2.61,2.61,2.61,2.43,0.41,0.42,0.42
52.51,-2.18,-2.18,-2.59,-2.58,2.58,2.59,2.41,0.40,0.40,0.40
53.03,-2.17,-2.18,-2.55,-2.56,2.56,2.57,2.39,0.38,0.38,0.38
53.56,-2.17,-2.17,-2.53,-2.53,2.53,2.55,2.37,0.36,0.36,0.35
54.10,-2.17,-2.17,-2.50,-2.50,2.51,2.53,2.35,0.33,0.33,0.33
54.64,-2.17,-2.17,-2.48,-2.48,2.48,2.51,2.33,0.31,0.31,0.30
55.18,-2.17,-2.17,-2.45,-2.45,2.45,2.49,2.31,0.28,0.28,0.28
55.74,-2.17,-2.17,-2.42,-2.43,2.43,2.47,2.29,0.25,0.25,0.25
56.29,-2.17,-2.17,-2.41,-2.40,2.40,2.45,2.27,0.22,0.22,0.23
56.86,-2.17,-2.17,-2.38,-2.37,2.36,2.43,2.25,0.19,0.19,0.20
57.42,-2.16,-2.16,-2.34,-2.34,2.33,2.41,2.24,0.16,0.16,0.17
58.00,-2.15,-2.15,-2.31,-2.31,2.29,2.39,2.22,0.14,0.14,0.16
58.58,-2.13,-2.13,-2.27,-2.27,2.26,2.37,2.20,0.12,0.13,0.14
59.16,-2.11,-2.10,-2.23,-2.21,2.23,2.35,2.18,0.12,0.13,0.12
59.76,-2.06,-2.08,-2.16,-2.17,2.21,2.33,2.16,0.15,0.13,0.09
60.35,-2.07,-2.09,-2.14,-2.15,2.19,2.32,2.13,0.12,0.10,0.06
60.96,-2.12,-2.13,-2.16,-2.16,2.17,2.30,2.11,0.05,0.05,0.04
61.57,-2.19,-2.18,-2.19,-2.18,2.16,2.28,2.09,-0.04,-0.02,-0.00
62.18,-2.22,-2.22,-2.19,-2.18,2.15,2.26,2.06,-0.08,-0.07,-0.04
62.80,-2.22,-2.23,-2.16,-2.16,2.14,2.24,2.04,-0.09,-0.09,-0.06
63.43,-2.22,-2.22,-2.13,-2.13,2.13,2.22,2.01,-0.10,-0.10,-0.10
64.07,-2.21,-2.22,-2.09,-2.09,2.11,2.20,1.98,-0.10,-0.10,-0.12
64.71,-2.21,-2.22,-2.06,-2.07,2.09,2.18,1.95,-0.12,-0.13,-0.15
65.35,-2.23,-2.24,-2.06,-2.06,2.07,2.16,1.92,-0.17,-0.17,-0.18
66.01,-2.26,-2.25,-2.06,-2.05,2.04,2.14,1.89,-0.23,-0.21,-0.20
66.67,-2.26,-2.26,-2.03,-2.03,2.01,2.12,1.86,-0.25,-0.25,-0.23
67.33,-2.25,-2.26,-1.99,-2.00,1.99,2.09,1.82,-0.26,-0.27,-0.26
68.01,-2.25,-2.26,-1.96,-1.96,1.97,2.07,1.79,-0.28,-0.29,-0.29
68.69,-2.26,-2.27,-1.94,-1.94,1.95,2.05,1.75,-0.32,-0.32,-0.33
69.37,-2.28,-2.28,-1.93,-1.92,1.92,2.03,1.72,-0.36,-0.35,-0.36
70.07,-2.28,-2.29,-1.89,-1.90,1.90,2.01,1.68,-0.39,-0.39,-0.39
70.77,-2.29,-2.30,-1.88,-1.88,1.87,1.98,1.64,-0.42,-0.42,-0.41
71.48,-2.30,-2.30,-1.86,-1.85,1.85,1.96,1.61,-0.45,-0.45,-0.45
72.19,-2.31,-2.31,-1.83,-1.83,1.83,1.94,1.57,-0.49,-0.48,-0.48
72.91,-2.32,-2.32,-1.80,-1.81,1.81,1.91,1.53,-0.52,-0.52,-0.52
73.64,-2.33,-2.34,-1.78,-1.78,1.79,1.89,1.49,-0.55,-0.55,-0.56
74.38,-2.35,-2.35,-1.77,-1.76,1.77,1.86,1.45,-0.59,-0.58,-0.58
75.12,-2.36,-2.36,-1.74,-1.74,1.75,1.84,1.42,-0.62,-0.62,-0.62
75.87,-2.37,-2.38,-1.72,-1.73,1.73,1.81,1.38,-0.65,-0.65,-0.65
76.63,-2.39,-2.40,-1.71,-1.71,1.71,1.78,1.34,-0.68,-0.68,-0.68
77.40,-2.42,-2.41,-1.71,-1.70,1.70,1.76,1.30,-0.73,-0.72,-0.71
78.17,-2.42,-2.43,-1.67,-1.68,1.68,1.73,1.27,-0.75,-0.75,-0.75
78.95,-2.43,-2.44,-1.66,-1.66,1.66,1.70,1.23,-0.77,-0.78,-0.78
79.74,-2.46,-2.46,-1.65,-1.64,1.64,1.67,1.19,-0.82,-0.82,-0.81
80.54,-2.47,-2.47,-1.63,-1.62,1.62,1.64,1.16,-0.85,-0.85,-0.84
81.35,-2.47,-2.48,-1.59,-1.60,1.60,1.62,1.12,-0.87,-0.88,-0.88
82.16,-2.48,-2.49,-1.57,-1.57,1.58,1.59,1.09,-0.90,-0.91,-0.92
82.98,-2.50,-2.50,-1.56,-1.55,1.56,1.55,1.05,-0.94,-0.94,-0.94
83.81,-2.52,-2.52,-1.54,-1.54,1.54,1.52,1.02,-0.98,-0.98,-0.99
84.65,-2.54,-2.54,-1.52,-1.52,1.52,1.49,0.98,-1.02,-1.02,-1.03
85.50,-2.56,-2.56,-1.51,-1.50,1.50,1.46,0.95,-1.06,-1.06,-1.06
86.35,-2.57,-2.58,-1.48,-1.48,1.48,1.43,0.92,-1.09,-1.09,-1.09
87.22,-2.59,-2.59,-1.46,-1.46,1.46,1.39,0.89,-1.13,-1.13,-1.13
88.09,-2.61,-2.61,-1.44,-1.44,1.44,1.36,0.86,-1.17,-1.17,-1.17
88.97,-2.63,-2.64,-1.43,-1.42,1.42,1.33,0.83,-1.22,-1.22,-1.21
89.86,-2.65,-2.65,-1.41,-1.40,1.39,1.29,0.80,-1.26,-1.26,-1.25
90.76,-2.66,-2.66,-1.36,-1.37,1.36,1.26,0.77,-1.30,-1.30,-1.30
91.66,-2.66,-2.67,-1.33,-1.33,1.34,1.22,0.74,-1.33,-1.33,-1.33
92.58,-2.67,-2.67,-1.29,-1.29,1.31,1.19,0.71,-1.36,-1.36,-1.38
93.51,-2.68,-2.69,-1.27,-1.27,1.28,1.15,0.69,-1.40,-1.41,-1.42
94.44,-2.71,-2.71,-1.25,-1.25,1.25,1.12,0.66,-1.46,-1.46,-1.46
95.39,-2.74,-2.74,-1.24,-1.23,1.22,1.08,0.63,-1.52,-1.52,-1.51
96.34,-2.75,-2.76,-1.19,-1.20,1.19,1.04,0.61,-1.57,-1.57,-1.56
97.30,-2.78,-2.77,-1.18,-1.16,1.16,1.01,0.58,-1.63,-1.61,-1.61
98.28,-2.77,-2.78,-1.12,-1.12,1.12,0.97,0.56,-1.65,-1.65,-1.65
99.26,-2.77,-2.78,-1.08,-1.09,1.09,0.93,0.54,-1.68,-1.69,-1.70
100.25,-2.79,-2.79,-1.05,-1.05,1.05,0.90,0.51,-1.74,-1.74,-1.74
101.25,-2.80,-2.80,-1.01,-1.01,1.02,0.86,0.49,-1.79,-1.79,-1.79
102.27,-2.81,-2.82,-0.98,-0.98,0.98,0.82,0.47,-1.84,-1.84,-1.84
103.29,-2.83,-2.83,-0.94,-0.94,0.94,0.78,0.45,-1.89,-1.88,-1.89
104.32,-2.83,-2.84,-0.91,-0.91,0.91,0.75,0.42,-1.92,-1.93,-1.93
105.37,-2.85,-2.85,-0.88,-0.88,0.88,0.71,0.40,-1.98,-1.98,-1.97
106.42,-2.86,-2.86,-0.84,-0.84,0.84,0.67,0.38,-2.02,-2.02,-2.02
107.48,-2.87,-2.88,-0.81,-0.81,0.81,0.63,0.36,-2.07,-2.07,-2.07
108.56,-2.89,-2.89,-0.77,-0.77,0.77,0.59,0.34,-2.12,-2.12,-2.12
109.64,-2.90,-2.90,-0.73,-0.73,0.73,0.56,0.32,-2.17,-2.17,-2.17
110.74,-2.90,-2.91,-0.69,-0.69,0.69,0.52,0.30,-2.21,-2.22,-2.22
111.85,-2.92,-2.92,-0.66,-0.65,0.65,0.48,0.28,-2.27,-2.27,-2.26
112.97,-2.92,-2.93,-0.60,-0.61,0.61,0.45,0.27,-2.32,-2.32,-2.33
114.10,-2.93,-2.93,-0.56,-0.56,0.56,0.41,0.25,-2.38,-2.38,-2.37
115.24,-2.94,-2.94,-0.52,-0.51,0.51,0.37,0.23,-2.43,-2.43,-2.43
116.39,-2.94,-2.95,-0.46,-0.47,0.46,0.34,0.21,-2.48,-2.49,-2.48
117.55,-2.96,-2.95,-0.43,-0.42,0.42,0.30,0.19,-2.55,-2.54,-2.54
118.73,-2.96,-2.94,-0.37,-0.36,0.37,0.27,0.18,-2.59,-2.57,-2.59
119.92,-2.92,-2.95,-0.29,-0.31,0.33,0.23,0.16,-2.59,-2.62,-2.63
121.12,-2.94,-2.96,-0.26,-0.28,0.29,0.20,0.14,-2.66,-2.67,-2.69
122.33,-3.01,-2.98,-0.28,-0.25,0.25,0.16,0.13,-2.77,-2.73,-2.74
123.55,-3.00,-3.00,-0.22,-0.22,0.20,0.13,0.11,-2.80,-2.80,-2.78
124.79,-2.99,-3.01,-0.16,-0.18,0.16,0.10,0.10,-2.83,-2.85,-2.83
126.03,-3.01,-3.01,-0.13,-0.13,0.12,0.06,0.08,-2.89,-2.89,-2.88
127.29,-3.01,-3.01,-0.08,-0.08,0.08,0.03,0.07,-2.94,-2.93,-2.93
128.57,-3.01,-3.02,-0.02,-0.03,0.03,0.00,0.05,-2.98,-2.98,-2.99
129.85,-3.01,-3.02,0.03,0.02,-0.01,-0.03,0.04,-3.03,-3.03,-3.04
131.15,-3.02,-3.02,0.06,0.06,-0.06,-0.06,0.02,-3.08,-3.08,-3.09
132.46,-3.03,-3.03,0.10,0.10,-0.10,-0.09,0.01,-3.14,-3.13,-3.13
133.79,-3.04,-3.04,0.13,0.14,-0.14,-0.12,-0.00,-3.18,-3.18,-3.17
135.12,-3.04,-3.05,0.18,0.17,-0.17,-0.14,-0.02,-3.22,-3.22,-3.23
136.48,-3.05,-3.06,0.21,0.21,-0.20,-0.17,-0.03,-3.26,-3.26,-3.26
137.84,-3.07,-3.07,0.23,0.24,-0.23,-0.20,-0.05,-3.30,-3.30,-3.31
139.22,-3.09,-3.09,0.27,0.26,-0.25,-0.23,-0.06,-3.35,-3.35,-3.36
140.61,-3.11,-3.12,0.29,0.28,-0.28,-0.25,-0.07,-3.39,-3.40,-3.40
142.02,-3.14,-3.14,0.28,0.29,-0.30,-0.28,-0.09,-3.44,-3.44,-3.42
143.44,-3.16,-3.16,0.30,0.31,-0.32,-0.30,-0.10,-3.48,-3.47,-3.47
144.87,-3.16,-3.17,0.34,0.33,-0.34,-0.32,-0.11,-3.50,-3.51,-3.51
146.32,-3.18,-3.19,0.36,0.36,-0.36,-0.34,-0.13,-3.54,-3.54,-3.55
147.78,-3.20,-3.20,0.37,0.38,-0.38,-0.37,-0.14,-3.58,-3.58,-3.57
149.26,-3.22,-3.22,0.39,0.40,-0.40,-0.39,-0.16,-3.62,-3.62,-3.61
150.75,-3.23,-3.23,0.43,0.42,-0.42,-0.41,-0.17,-3.66,-3.65,-3.66
152.26,-3.23,-3.25,0.46,0.45,-0.45,-0.43,-0.18,-3.68,-3.70,-3.70
153.78,-3.26,-3.26,0.47,0.47,-0.47,-0.45,-0.20,-3.74,-3.73,-3.73
155.32,-3.29,-3.28,0.48,0.49,-0.49,-0.47,-0.21,-3.79,-3.77,-3.78
156.88,-3.29,-3.30,0.52,0.51,-0.51,-0.48,-0.23,-3.80,-3.81,-3.81
158.44,-3.32,-3.33,0.53,0.53,-0.53,-0.50,-0.24,-3.85,-3.85,-3.85
160.03,-3.35,-3.35,0.54,0.55,-0.54,-0.52,-0.26,-3.89,-3.89,-3.90
161.63,-3.38,-3.38,0.55,0.55,-0.54,-0.53,-0.28,-3.93,-3.93,-3.94
163.24,-3.41,-3.42,0.56,0.56,-0.55,-0.55,-0.29,-3.96,-3.97,-3.98
164.88,-3.45,-3.45,0.55,0.56,-0.56,-0.56,-0.31,-4.01,-4.01,-4.01
166.53,-3.49,-3.49,0.55,0.56,-0.56,-0.57,-0.32,-4.06,-4.05,-4.05
168.19,-3.52,-3.52,0.56,0.56,-0.57,-0.59,-0.34,-4.09,-4.09,-4.09
169.87,-3.54,-3.55,0.58,0.58,-0.58,-0.60,-0.36,-4.13,-4.13,-4.12
171.57,-3.56,-3.57,0.60,0.59,-0.60,-0.61,-0.38,-4.16,-4.16,-4.16
173.29,-3.58,-3.58,0.61,0.61,-0.62,-0.62,-0.39,-4.20,-4.20,-4.20
175.02,-3.59,-3.60,0.64,0.64,-0.64,-0.63,-0.41,-4.23,-4.24,-4.23
176.77,-3.60,-3.61,0.67,0.67,-0.67,-0.64,-0.43,-4.27,-4.28,-4.28
178.54,-3.61,-3.61,0.71,0.70,-0.70,-0.65,-0.45,-4.32,-4.32,-4.32
180.32,-3.61,-3.62,0.74,0.74,-0.74,-0.66,-0.47,-4.35,-4.36,-4.35
182.13,-3.61,-3.61,0.77,0.77,-0.78,-0.67,-0.49,-4.39,-4.39,-4.39
183.95,-3.61,-3.61,0.81,0.81,-0.82,-0.68,-0.51,-4.43,-4.43,-4.43
185.79,-3.60,-3.61,0.86,0.86,-0.85,-0.68,-0.53,-4.46,-4.46,-4.46
187.65,-3.60,-3.60,0.90,0.90,-0.89,-0.69,-0.55,-4.49,-4.49,-4.50
189.52,-3.59,-3.60,0.94,0.93,-0.93,-0.70,-0.57,-4.52,-4.52,-4.53
191.42,-3.59,-3.60,0.97,0.96,-0.96,-0.70,-0.59,-4.56,-4.56,-4.56
193.33,-3.60,-3.60,0.98,0.99,-0.99,-0.71,-0.62,-4.60,-4.59,-4.59
195.27,-3.60,-3.60,1.01,1.02,-1.02,-0.71,-0.64,-4.63,-4.62,-4.62
197.22,-3.59,-3.60,1.05,1.05,-1.05,-0.72,-0.66,-4.64,-4.65,-4.64
199.19,-3.59,-3.60,1.09,1.08,-1.07,-0.72,-0.68,-4.67,-4.67,-4.68
201.18,-3.60,-3.60,1.09,1.10,-1.09,-0.73,-0.71,-4.69,-4.69,-4.70
203.19,-3.61,-3.61,1.10,1.11,-1.11,-0.73,-0.73,-4.72,-4.72,-4.71
205.23,-3.61,-3.62,1.13,1.12,-1.12,-0.73,-0.75,-4.73,-4.74,-4.74
207.28,-3.62,-3.62,1.12,1.13,-1.13,-0.74,-0.77,-4.75,-4.75,-4.74
209.35,-3.63,-3.63,1.14,1.14,-1.14,-0.74,-0.79,-4.77,-4.77,-4.77
211.44,-3.64,-3.65,1.15,1.14,-1.14,-0.74,-0.82,-4.78,-4.79,-4.79
213.56,-3.66,-3.66,1.13,1.14,-1.14,-0.74,-0.84,-4.80,-4.80,-4.80
215.69,-3.67,-3.67,1.13,1.13,-1.14,-0.74,-0.86,-4.81,-4.81,-4.80
217.85,-3.67,-3.68,1.14,1.13,-1.13,-0.75,-0.88,-4.81,-4.82,-4.81
220.03,-3.70,-3.70,1.12,1.13,-1.13,-0.75,-0.90,-4.83,-4.82,-4.83
222.23,-3.71,-3.71,1.12,1.12,-1.12,-0.75,-0.92,-4.83,-4.83,-4.84
224.45,-3.72,-3.73,1.10,1.11,-1.10,-0.75,-0.94,-4.83,-4.83,-4.83
226.70,-3.73,-3.74,1.10,1.09,-1.09,-0.75,-0.96,-4.82,-4.83,-4.83
228.96,-3.76,-3.76,1.07,1.07,-1.06,-0.75,-0.97,-4.83,-4.82,-4.83
231.25,-3.78,-3.77,1.04,1.05,-1.04,-0.75,-0.99,-4.83,-4.81,-4.82
233.57,-3.78,-3.79,1.04,1.03,-1.02,-0.75,-1.00,-4.81,-4.81,-4.82
235.90,-3.80,-3.83,1.02,0.99,-1.00,-0.75,-1.02,-4.81,-4.83,-4.82
238.26,-3.86,-3.85,0.96,0.97,-0.99,-0.75,-1.03,-4.85,-4.83,-4.82
240.64,-3.88,-3.86,0.93,0.95,-0.97,-0.75,-1.04,-4.86,-4.83,-4.81
243.05,-3.82,-3.85,0.97,0.95,-0.96,-0.75,-1.05,-4.79,-4.81,-4.80
245.48,-3.82,-3.83,0.96,0.96,-0.96,-0.75,-1.05,-4.78,-4.79,-4.79
247.93,-3.82,-3.81,0.95,0.96,-0.95,-0.75,-1.06,-4.77,-4.76,-4.77
250.41,-3.81,-3.81,0.96,0.96,-0.95,-0.75,-1.06,-4.76,-4.75,-4.77
252.92,-3.79,-3.80,0.96,0.95,-0.94,-0.75,-1.06,-4.74,-4.74,-4.75
255.45,-3.79,-3.80,0.93,0.94,-0.93,-0.75,-1.06,-4.73,-4.73,-4.73
258.00,-3.80,-3.80,0.91,0.92,-0.92,-0.75,-1.06,-4.73,-4.72,-4.71
260.58,-3.79,-3.80,0.91,0.90,-0.91,-0.75,-1.06,-4.70,-4.70,-4.70
263.19,-3.79,-3.79,0.88,0.89,-0.88,-0.75,-1.06,-4.68,-4.68,-4.68
265.82,-3.78,-3.79,0.88,0.87,-0.86,-0.75,-1.05,-4.65,-4.65,-4.66
268.48,-3.79,-3.79,0.85,0.85,-0.84,-0.75,-1.05,-4.64,-4.64,-4.64
271.16,-3.80,-3.80,0.81,0.81,-0.82,-0.75,-1.04,-4.62,-4.62,-4.62
273.87,-3.81,-3.81,0.79,0.78,-0.80,-0.75,-1.03,-4.61,-4.61,-4.60
276.61,-3.82,-3.81,0.75,0.77,-0.77,-0.74,-1.02,-4.60,-4.59,-4.58
279.38,-3.80,-3.81,0.76,0.75,-0.75,-0.74,-1.01,-4.55,-4.56,-4.56
282.17,-3.80,-3.81,0.74,0.74,-0.73,-0.74,-0.99,-4.53,-4.54,-4.55
284.99,-3.81,-3.81,0.71,0.71,-0.71,-0.74,-0.98,-4.52,-4.52,-4.52
287.84,-3.81,-3.81,0.69,0.69,-0.70,-0.74,-0.97,-4.51,-4.51,-4.51
290.72,-3.81,-3.81,0.67,0.67,-0.69,-0.74,-0.95,-4.50,-4.50,-4.48
293.63,-3.79,-3.80,0.67,0.67,-0.68,-0.74,-0.94,-4.47,-4.48,-4.47
296.57,-3.78,-3.78,0.66,0.67,-0.67,-0.74,-0.93,-4.45,-4.45,-4.44
299.53,-3.75,-3.75,0.67,0.67,-0.66,-0.74,-0.91,-4.42,-4.42,-4.42
302.53,-3.73,-3.73,0.67,0.67,-0.65,-0.74,-0.90,-4.39,-4.39,-4.41
305.55,-3.71,-3.72,0.66,0.66,-0.64,-0.74,-0.88,-4.36,-4.36,-4.37
308.61,-3.71,-3.71,0.64,0.64,-0.63,-0.75,-0.87,-4.35,-4.35,-4.36
311.69,-3.71,-3.71,0.62,0.61,-0.62,-0.75,-0.85,-4.33,-4.33,-4.33
314.81,-3.71,-3.71,0.58,0.59,-0.60,-0.75,-0.84,-4.32,-4.31,-4.29
317.96,-3.69,-3.69,0.58,0.58,-0.59,-0.75,-0.82,-4.28,-4.28,-4.28
321.14,-3.67,-3.68,0.59,0.57,-0.58,-0.75,-0.81,-4.25,-4.26,-4.26
324.35,-3.67,-3.68,0.57,0.56,-0.56,-0.75,-0.79,-4.24,-4.24,-4.24
327.59,-3.67,-3.67,0.54,0.55,-0.55,-0.75,-0.78,-4.23,-4.22,-4.22
330.87,-3.66,-3.66,0.53,0.54,-0.54,-0.75,-0.77,-4.21,-4.20,-4.20
334.18,-3.63,-3.64,0.55,0.54,-0.53,-0.75,-0.75,-4.17,-4.18,-4.18
337.52,-3.62,-3.63,0.54,0.53,-0.53,-0.76,-0.74,-4.15,-4.15,-4.16
340.90,-3.62,-3.62,0.51,0.52,-0.51,-0.76,-0.73,-4.14,-4.14,-4.14
344.30,-3.62,-3.62,0.49,0.50,-0.50,-0.76,-0.72,-4.13,-4.12,-4.12
347.75,-3.61,-3.61,0.49,0.48,-0.49,-0.76,-0.71,-4.10,-4.10,-4.10
351.23,-3.60,-3.61,0.48,0.48,-0.47,-0.77,-0.69,-4.08,-4.08,-4.08
354.74,-3.60,-3.60,0.46,0.47,-0.46,-0.77,-0.68,-4.06,-4.05,-4.07
358.28,-3.59,-3.60,0.45,0.45,-0.44,-0.77,-0.68,-4.03,-4.04,-4.05
361.87,-3.59,-3.60,0.44,0.43,-0.43,-0.78,-0.67,-4.02,-4.03,-4.03
365.49,-3.61,-3.60,0.40,0.41,-0.42,-0.78,-0.66,-4.03,-4.02,-4.01
369.14,-3.60,-3.60,0.40,0.40,-0.42,-0.78,-0.65,-4.02,-4.01,-4.00
372.83,-3.57,-3.58,0.41,0.41,-0.42,-0.79,-0.64,-3.99,-4.00,-3.99
376.56,-3.55,-3.55,0.42,0.42,-0.42,-0.79,-0.64,-3.98,-3.98,-3.98
380.33,-3.52,-3.52,0.42,0.43,-0.43,-0.80,-0.63,-3.96,-3.95,-3.95
384.13,-3.49,-3.49,0.45,0.45,-0.45,-0.80,-0.62,-3.94,-3.94,-3.94
387.97,-3.45,-3.46,0.48,0.47,-0.46,-0.81,-0.62,-3.92,-3.93,-3.93
391.85,-3.43,-3.43,0.49,0.49,-0.48,-0.81,-0.61,-3.91,-3.91,-3.92
395.77,-3.41,-3.41,0.49,0.50,-0.50,-0.82,-0.61,-3.91,-3.90,-3.90
399.73,-3.37,-3.38,0.52,0.52,-0.51,-0.82,-0.61,-3.89,-3.89,-3.90
403.72,-3.35,-3.36,0.53,0.53,-0.53,-0.83,-0.60,-3.88,-3.88,-3.89
407.76,-3.33,-3.34,0.54,0.54,-0.54,-0.83,-0.60,-3.87,-3.88,-3.88
411.84,-3.32,-3.32,0.54,0.55,-0.55,-0.84,-0.60,-3.88,-3.87,-3.86
415.96,-3.29,-3.29,0.56,0.56,-0.57,-0.85,-0.60,-3.86,-3.85,-3.85
420.12,-3.25,-3.26,0.59,0.59,-0.58,-0.85,-0.60,-3.84,-3.84,-3.84
424.32,-3.21,-3.23,0.62,0.61,-0.61,-0.86,-0.59,-3.82,-3.84,-3.83
428.56,-3.20,-3.20,0.62,0.63,-0.64,-0.87,-0.59,-3.85,-3.84,-3.82
432.85,-3.18,-3.17,0.63,0.64,-0.67,-0.88,-0.59,-3.85,-3.84,-3.82
437.18,-3.13,-3.14,0.67,0.66,-0.69,-0.89,-0.60,-3.82,-3.83,-3.81
441.55,-3.10,-3.10,0.68,0.69,-0.68,-0.89,-0.60,-3.79,-3.78,-3.79
445.96,-3.06,-3.03,0.71,0.75,-0.67,-0.90,-0.60,-3.73,-3.70,-3.78
450.42,-3.00,-3.02,0.77,0.75,-0.65,-0.91,-0.60,-3.65,-3.66,-3.77
454.93,-2.97,-3.08,0.78,0.68,-0.63,-0.92,-0.60,-3.60,-3.70,-3.75
459.48,-3.21,-3.16,0.53,0.57,-0.61,-0.93,-0.60,-3.82,-3.77,-3.74
