frequency,raw,error,smoothed,error_smoothed,equalization,parametric_eq,equalized_raw,equalized_smoothed,target
20,-23.47,-21.61,-23.49,-21.63,6.00,2.69,-17.47,-17.49,-1.86
21,-22.79,-20.93,-22.77,-20.91,6.00,3.09,-16.79,-16.77,-1.86
22,-22.09,-20.23,-22.07,-20.21,6.00,3.52,-16.09,-16.07,-1.86
23,-21.38,-19.52,-21.39,-19.53,6.00,3.99,-15.38,-15.39,-1.86
24,-20.71,-18.86,-20.72,-18.87,6.00,4.49,-14.71,-14.72,-1.85
25,-20.09,-18.24,-20.08,-18.23,6.00,5.01,-14.09,-14.08,-1.85
26,-19.52,-17.67,-19.46,-17.61,6.00,5.54,-13.52,-13.46,-1.85
27,-18.75,-16.90,-18.86,-17.01,6.00,6.04,-12.75,-12.86,-1.85
28,-18.23,-16.38,-18.27,-16.42,6.00,6.50,-12.23,-12.27,-1.85
29,-17.78,-15.93,-17.71,-15.86,6.00,6.88,-11.78,-11.71,-1.85
30,-17.12,-15.27,-17.15,-15.30,6.00,7.16,-11.12,-11.15,-1.85
31,-16.71,-14.86,-16.61,-14.76,6.00,7.32,-10.71,-10.61,-1.85
32,-16.10,-14.25,-16.09,-14.24,6.00,7.37,-10.10,-10.09,-1.85
33,-15.52,-13.67,-15.57,-13.72,6.00,7.32,-9.52,-9.57,-1.85
34,-15.04,-13.18,-15.07,-13.21,6.00,7.19,-9.04,-9.07,-1.86
35,-14.65,-12.79,-14.58,-12.72,6.00,7.01,-8.65,-8.58,-1.86
36,-14.14,-12.28,-14.11,-12.25,6.00,6.80,-8.14,-8.11,-1.86
37,-13.68,-11.81,-13.67,-11.80,6.00,6.58,-7.68,-7.67,-1.87
38,-13.17,-11.30,-13.24,-11.37,6.00,6.36,-7.17,-7.24,-1.87
39,-12.76,-10.88,-12.85,-10.97,6.00,6.16,-6.76,-6.85,-1.88
40,-12.54,-10.65,-12.48,-10.59,6.00,5.98,-6.54,-6.48,-1.89
41,-12.08,-10.18,-12.14,-10.24,6.00,5.83,-6.08,-6.14,-1.90
42,-11.85,-9.94,-11.83,-9.92,6.00,5.70,-5.85,-5.83,-1.91
43,-11.62,-9.70,-11.54,-9.62,6.00,5.59,-5.62,-5.54,-1.92
44,-11.17,-9.24,-11.26,-9.32,6.00,5.51,-5.17,-5.26,-1.93
45,-10.94,-8.99,-10.99,-9.04,6.00,5.46,-4.94,-4.99,-1.95
46,-10.71,-8.75,-10.73,-8.77,6.00,5.42,-4.71,-4.73,-1.96
47,-10.71,-8.73,-10.48,-8.50,6.00,5.41,-4.71,-4.48,-1.98
48,-10.44,-8.44,-10.25,-8.25,6.00,5.41,-4.44,-4.25,-2.00
49,-10.03,-8.01,-10.03,-8.01,6.00,5.43,-4.03,-4.03,-2.02
50,-9.59,-7.55,-9.84,-7.81,6.00,5.46,-3.59,-3.84,-2.04
51,-9.57,-7.51,-9.69,-7.63,6.00,5.50,-3.57,-3.69,-2.06
52,-9.47,-7.39,-9.58,-7.50,6.00,5.55,-3.47,-3.58,-2.08
53,-9.57,-7.47,-9.51,-7.40,6.00,5.61,-3.57,-3.51,-2.10
54,-9.34,-7.21,-9.46,-7.33,6.00,5.67,-3.34,-3.46,-2.13
55,-9.34,-7.19,-9.43,-7.28,6.00,5.73,-3.34,-3.43,-2.15
56,-9.57,-7.39,-9.41,-7.23,6.00,5.78,-3.57,-3.41,-2.18
57,-9.57,-7.37,-9.37,-7.17,6.00,5.84,-3.57,-3.37,-2.20
58,-9.34,-7.11,-9.31,-7.08,6.00,5.88,-3.34,-3.31,-2.23
59,-9.34,-7.08,-9.23,-6.97,6.00,5.92,-3.34,-3.23,-2.26
60,-9.12,-6.83,-9.12,-6.83,6.00,5.95,-3.12,-3.12,-2.29
61,-8.89,-6.58,-8.99,-6.68,6.00,5.97,-2.89,-2.99,-2.31
62,-8.89,-6.55,-8.86,-6.52,6.00,5.97,-2.89,-2.86,-2.34
63,-8.66,-6.29,-8.73,-6.35,6.00,5.97,-2.66,-2.73,-2.37
64,-8.56,-6.16,-8.60,-6.20,5.98,5.96,-2.58,-2.62,-2.40
65,-8.43,-6.00,-8.49,-6.06,5.94,5.94,-2.49,-2.55,-2.43
66,-8.43,-5.97,-8.40,-5.94,5.88,5.91,-2.55,-2.52,-2.46
67,-8.43,-5.94,-8.33,-5.84,5.82,5.87,-2.61,-2.52,-2.49
68,-8.21,-5.69,-8.28,-5.76,5.75,5.83,-2.46,-2.53,-2.52
69,-8.21,-5.66,-8.24,-5.69,5.69,5.78,-2.52,-2.55,-2.55
70,-8.21,-5.63,-8.22,-5.64,5.64,5.73,-2.57,-2.58,-2.58
71,-8.21,-5.60,-8.21,-5.60,5.60,5.68,-2.61,-2.61,-2.61
72,-8.21,-5.57,-8.20,-5.56,5.56,5.63,-2.65,-2.64,-2.64
73,-8.21,-5.54,-8.20,-5.53,5.53,5.58,-2.68,-2.67,-2.67
74,-8.21,-5.51,-8.20,-5.50,5.50,5.53,-2.71,-2.70,-2.70
75,-8.21,-5.48,-8.20,-5.47,5.47,5.49,-2.74,-2.73,-2.73
76,-8.21,-5.45,-8.20,-5.45,5.45,5.45,-2.76,-2.76,-2.76
77,-8.21,-5.43,-8.20,-5.42,5.42,5.41,-2.79,-2.78,-2.78
78,-8.21,-5.40,-8.20,-5.39,5.39,5.38,-2.82,-2.81,-2.81
79,-8.21,-5.37,-8.20,-5.36,5.36,5.35,-2.85,-2.84,-2.84
80,-8.21,-5.34,-8.21,-5.33,5.33,5.33,-2.88,-2.87,-2.87
81,-8.21,-5.31,-8.22,-5.31,5.31,5.31,-2.90,-2.90,-2.90
82,-8.21,-5.28,-8.23,-5.30,5.30,5.30,-2.91,-2.93,-2.93
83,-8.21,-5.25,-8.26,-5.30,5.30,5.29,-2.91,-2.96,-2.96
84,-8.21,-5.22,-8.29,-5.31,5.31,5.29,-2.90,-2.99,-2.99
85,-8.43,-5.42,-8.33,-5.32,5.32,5.29,-3.11,-3.01,-3.01
86,-8.43,-5.39,-8.38,-5.34,5.34,5.30,-3.09,-3.04,-3.04
87,-8.43,-5.36,-8.43,-5.36,5.36,5.32,-3.07,-3.07,-3.07
88,-8.43,-5.33,-8.48,-5.38,5.38,5.34,-3.05,-3.10,-3.10
89,-8.43,-5.31,-8.52,-5.40,5.40,5.36,-3.03,-3.12,-3.12
90,-8.62,-5.47,-8.56,-5.41,5.41,5.39,-3.21,-3.15,-3.15
91,-8.66,-5.49,-8.60,-5.42,5.42,5.43,-3.24,-3.17,-3.17
92,-8.66,-5.46,-8.62,-5.42,5.42,5.47,-3.24,-3.20,-3.20
93,-8.66,-5.44,-8.64,-5.42,5.42,5.51,-3.24,-3.22,-3.22
94,-8.66,-5.41,-8.65,-5.41,5.41,5.55,-3.25,-3.24,-3.25
95,-8.66,-5.39,-8.67,-5.40,5.40,5.61,-3.26,-3.27,-3.27
96,-8.66,-5.37,-8.68,-5.39,5.39,5.66,-3.27,-3.29,-3.29
97,-8.66,-5.35,-8.70,-5.39,5.39,5.72,-3.27,-3.31,-3.31
98,-8.66,-5.33,-8.72,-5.39,5.39,5.78,-3.27,-3.33,-3.33
99,-8.66,-5.31,-8.75,-5.40,5.40,5.84,-3.26,-3.35,-3.35
100,-8.88,-5.51,-8.78,-5.41,5.41,5.90,-3.47,-3.37,-3.37
101,-8.89,-5.50,-8.82,-5.42,5.42,5.97,-3.47,-3.40,-3.39
102,-8.89,-5.49,-8.85,-5.43,5.43,6.04,-3.46,-3.42,-3.40
104,-8.89,-5.43,-8.89,-5.45,5.45,6.17,-3.44,-3.44,-3.46
105,-8.89,-5.42,-8.92,-5.46,5.46,6.24,-3.43,-3.46,-3.47
106,-8.89,-5.40,-8.95,-5.47,5.47,6.31,-3.42,-3.48,-3.49
107,-8.89,-5.39,-8.99,-5.48,5.48,6.38,-3.41,-3.50,-3.50
108,-9.09,-5.57,-9.02,-5.50,5.50,6.44,-3.59,-3.52,-3.52
109,-9.12,-5.58,-9.05,-5.51,5.51,6.51,-3.61,-3.54,-3.54
110,-9.12,-5.57,-9.08,-5.53,5.53,6.57,-3.59,-3.55,-3.55
111,-9.12,-5.55,-9.11,-5.54,5.54,6.63,-3.58,-3.57,-3.57
112,-9.12,-5.53,-9.15,-5.56,5.56,6.69,-3.56,-3.59,-3.59
113,-9.12,-5.52,-9.18,-5.57,5.57,6.74,-3.55,-3.61,-3.60
114,-9.14,-5.52,-9.21,-5.59,5.59,6.79,-3.55,-3.63,-3.62
115,-9.34,-5.70,-9.25,-5.60,5.60,6.84,-3.74,-3.65,-3.64
117,-9.34,-5.65,-9.29,-5.62,5.62,6.91,-3.72,-3.67,-3.69
118,-9.34,-5.64,-9.34,-5.64,5.64,6.94,-3.70,-3.70,-3.70
119,-9.34,-5.62,-9.38,-5.66,5.66,6.97,-3.68,-3.72,-3.72
120,-9.35,-5.61,-9.43,-5.69,5.69,6.99,-3.66,-3.75,-3.74
121,-9.57,-5.81,-9.48,-5.71,5.71,7.00,-3.86,-3.77,-3.76
123,-9.57,-5.76,-9.53,-5.74,5.74,7.01,-3.83,-3.80,-3.81
124,-9.57,-5.74,-9.59,-5.76,5.76,7.00,-3.81,-3.82,-3.83
125,-9.57,-5.72,-9.64,-5.79,5.79,6.99,-3.78,-3.85,-3.85
126,-9.73,-5.86,-9.69,-5.81,5.81,6.97,-3.92,-3.88,-3.87
128,-9.80,-5.89,-9.74,-5.84,5.84,6.92,-3.96,-3.90,-3.91
129,-9.80,-5.87,-9.80,-5.87,5.87,6.89,-3.93,-3.93,-3.93
130,-9.80,-5.85,-9.86,-5.91,5.91,6.85,-3.89,-3.95,-3.95
131,-9.84,-5.87,-9.92,-5.94,5.93,6.81,-3.91,-3.98,-3.97
133,-10.03,-6.02,-9.98,-5.98,5.97,6.71,-4.06,-4.01,-4.01
134,-10.03,-6.01,-10.04,-6.02,5.98,6.66,-4.05,-4.06,-4.02
135,-10.03,-5.99,-10.10,-6.05,5.99,6.60,-4.04,-4.11,-4.04
137,-10.26,-6.19,-10.15,-6.08,6.00,6.47,-4.26,-4.15,-4.07
138,-10.26,-6.17,-10.20,-6.10,6.00,6.40,-4.26,-4.20,-4.09
140,-10.26,-6.14,-10.24,-6.12,6.00,6.27,-4.26,-4.24,-4.12
141,-10.26,-6.12,-10.27,-6.13,6.00,6.19,-4.26,-4.27,-4.14
142,-10.26,-6.11,-10.30,-6.14,6.00,6.12,-4.26,-4.30,-4.15
144,-10.26,-6.08,-10.33,-6.15,6.00,5.97,-4.26,-4.33,-4.18
145,-10.26,-6.07,-10.36,-6.16,6.00,5.90,-4.26,-4.36,-4.19
147,-10.48,-6.26,-10.38,-6.17,6.00,5.74,-4.48,-4.38,-4.22
148,-10.48,-6.25,-10.41,-6.18,6.00,5.67,-4.48,-4.41,-4.23
150,-10.48,-6.23,-10.44,-6.19,6.00,5.52,-4.48,-4.44,-4.25
151,-10.48,-6.22,-10.47,-6.20,6.00,5.45,-4.48,-4.47,-4.26
153,-10.48,-6.19,-10.50,-6.22,6.00,5.30,-4.48,-4.50,-4.29
154,-10.48,-6.19,-10.54,-6.25,6.00,5.23,-4.48,-4.54,-4.29
156,-10.56,-6.25,-10.60,-6.29,6.00,5.09,-4.56,-4.60,-4.31
157,-10.71,-6.39,-10.67,-6.34,6.00,5.02,-4.71,-4.67,-4.32
159,-10.71,-6.37,-10.75,-6.42,6.00,4.88,-4.71,-4.75,-4.34
160,-10.77,-6.42,-10.86,-6.50,6.00,4.82,-4.77,-4.86,-4.35
162,-10.94,-6.57,-10.97,-6.60,6.00,4.69,-4.94,-4.97,-4.37
164,-11.17,-6.79,-11.09,-6.71,6.00,4.57,-5.17,-5.09,-4.38
165,-11.17,-6.78,-11.20,-6.81,6.00,4.51,-5.17,-5.20,-4.39
167,-11.40,-7.00,-11.31,-6.91,6.00,4.40,-5.40,-5.31,-4.40
169,-11.40,-6.98,-11.41,-7.00,6.00,4.29,-5.40,-5.41,-4.42
170,-11.46,-7.04,-11.49,-7.07,6.00,4.24,-5.46,-5.49,-4.42
172,-11.62,-7.19,-11.55,-7.12,6.00,4.14,-5.62,-5.55,-4.43
174,-11.62,-7.18,-11.59,-7.15,6.00,4.05,-5.62,-5.59,-4.44
175,-11.62,-7.17,-11.62,-7.17,6.00,4.00,-5.62,-5.62,-4.45
177,-11.62,-7.16,-11.63,-7.18,6.00,3.92,-5.62,-5.63,-4.46
179,-11.62,-7.16,-11.64,-7.17,6.00,3.83,-5.62,-5.64,-4.46
181,-11.62,-7.15,-11.64,-7.16,6.00,3.76,-5.62,-5.64,-4.47
183,-11.62,-7.14,-11.63,-7.15,6.00,3.68,-5.62,-5.63,-4.48
184,-11.62,-7.14,-11.63,-7.14,6.00,3.65,-5.62,-5.63,-4.48
186,-11.62,-7.13,-11.62,-7.14,6.00,3.58,-5.62,-5.62,-4.49
188,-11.62,-7.13,-11.62,-7.13,6.00,3.52,-5.62,-5.62,-4.49
190,-11.62,-7.12,-11.62,-7.12,6.00,3.46,-5.62,-5.62,-4.50
192,-11.62,-7.12,-11.62,-7.12,6.00,3.41,-5.62,-5.62,-4.50
194,-11.62,-7.12,-11.62,-7.11,6.00,3.35,-5.62,-5.62,-4.50
196,-11.62,-7.12,-11.62,-7.11,6.00,3.30,-5.62,-5.62,-4.50
198,-11.62,-7.11,-11.62,-7.11,6.00,3.26,-5.62,-5.62,-4.51
200,-11.62,-7.11,-11.62,-7.12,6.00,3.21,-5.62,-5.62,-4.51
202,-11.62,-7.11,-11.63,-7.12,6.00,3.17,-5.62,-5.63,-4.51
204,-11.62,-7.11,-11.64,-7.13,6.00,3.13,-5.62,-5.64,-4.51
206,-11.62,-7.11,-11.66,-7.14,6.00,3.09,-5.62,-5.66,-4.51
208,-11.62,-7.11,-11.66,-7.15,6.00,3.06,-5.62,-5.66,-4.51
210,-11.62,-7.11,-11.66,-7.15,6.00,3.02,-5.62,-5.66,-4.51
212,-11.62,-7.11,-11.64,-7.13,6.00,2.99,-5.62,-5.64,-4.51
214,-11.62,-7.11,-11.59,-7.08,6.00,2.96,-5.62,-5.59,-4.51
216,-11.62,-7.11,-11.50,-7.00,6.00,2.93,-5.62,-5.50,-4.51
218,-11.40,-6.89,-11.37,-6.86,6.00,2.90,-5.40,-5.37,-4.51
221,-11.26,-6.75,-11.19,-6.68,6.00,2.85,-5.26,-5.19,-4.51
223,-11.03,-6.52,-10.96,-6.45,5.95,2.82,-5.08,-5.00,-4.51
225,-10.72,-6.22,-10.68,-6.18,5.86,2.79,-4.86,-4.82,-4.50
227,-10.37,-5.87,-10.38,-5.88,5.73,2.76,-4.64,-4.64,-4.50
229,-10.02,-5.52,-10.05,-5.55,5.55,2.73,-4.47,-4.49,-4.50
232,-9.53,-5.03,-9.70,-5.20,5.18,2.68,-4.35,-4.52,-4.50
234,-9.30,-4.80,-9.35,-4.85,4.85,2.65,-4.45,-4.50,-4.50
236,-9.08,-4.59,-8.99,-4.50,4.50,2.61,-4.58,-4.49,-4.49
239,-8.68,-4.19,-8.64,-4.15,4.15,2.56,-4.53,-4.49,-4.49
241,-8.35,-3.86,-8.30,-3.81,3.81,2.52,-4.54,-4.49,-4.49
244,-7.86,-3.37,-7.96,-3.47,3.47,2.47,-4.39,-4.49,-4.49
246,-7.54,-3.06,-7.63,-3.14,3.14,2.43,-4.40,-4.48,-4.48
248,-7.32,-2.84,-7.30,-2.82,2.82,2.39,-4.50,-4.48,-4.48
251,-7.00,-2.52,-6.98,-2.51,2.51,2.32,-4.49,-4.48,-4.48
253,-6.77,-2.30,-6.67,-2.20,2.20,2.28,-4.57,-4.47,-4.47
256,-6.37,-1.90,-6.36,-1.90,1.90,2.21,-4.47,-4.47,-4.47
259,-5.96,-1.50,-6.06,-1.59,1.59,2.14,-4.37,-4.46,-4.46
261,-5.74,-1.28,-5.76,-1.30,1.30,2.09,-4.44,-4.46,-4.46
264,-5.44,-0.99,-5.45,-1.00,1.00,2.02,-4.44,-4.45,-4.45
266,-5.25,-0.80,-5.15,-0.70,0.70,1.97,-4.55,-4.45,-4.45
269,-4.92,-0.48,-4.85,-0.41,0.41,1.89,-4.51,-4.44,-4.44
272,-4.54,-0.10,-4.56,-0.13,0.13,1.81,-4.41,-4.44,-4.44
274,-4.30,0.13,-4.28,0.15,-0.15,1.76,-4.45,-4.43,-4.43
277,-3.95,0.47,-4.00,0.41,-0.41,1.67,-4.36,-4.42,-4.42
280,-3.67,0.74,-3.75,0.66,-0.66,1.59,-4.33,-4.41,-4.41
283,-3.42,0.98,-3.51,0.89,-0.89,1.50,-4.31,-4.40,-4.40
286,-3.34,1.05,-3.28,1.11,-1.11,1.42,-4.45,-4.39,-4.39
288,-3.15,1.23,-3.07,1.30,-1.30,1.36,-4.45,-4.38,-4.38
291,-2.88,1.48,-2.88,1.48,-1.48,1.27,-4.36,-4.36,-4.36
294,-2.61,1.74,-2.69,1.66,-1.66,1.19,-4.27,-4.35,-4.35
297,-2.51,1.83,-2.51,1.83,-1.83,1.10,-4.34,-4.34,-4.34
300,-2.31,2.01,-2.33,1.99,-1.99,1.01,-4.30,-4.32,-4.32
303,-2.27,2.04,-2.15,2.16,-2.16,0.92,-4.43,-4.30,-4.31
306,-2.01,2.28,-1.96,2.33,-2.33,0.84,-4.34,-4.29,-4.29
309,-1.76,2.51,-1.77,2.50,-2.50,0.75,-4.26,-4.27,-4.27
312,-1.60,2.65,-1.59,2.66,-2.66,0.66,-4.26,-4.25,-4.25
316,-1.39,2.84,-1.41,2.82,-2.82,0.54,-4.21,-4.23,-4.23
319,-1.15,3.06,-1.24,2.97,-2.97,0.46,-4.12,-4.21,-4.21
322,-1.13,3.06,-1.09,3.11,-3.11,0.37,-4.24,-4.19,-4.19
325,-0.91,3.26,-0.95,3.23,-3.23,0.29,-4.14,-4.17,-4.17
328,-0.87,3.28,-0.83,3.33,-3.33,0.20,-4.20,-4.15,-4.15
332,-0.68,3.45,-0.72,3.41,-3.41,0.09,-4.09,-4.13,-4.13
335,-0.68,3.43,-0.64,3.48,-3.48,0.00,-4.16,-4.11,-4.11
338,-0.53,3.56,-0.56,3.53,-3.53,-0.08,-4.06,-4.09,-4.09
342,-0.46,3.61,-0.51,3.57,-3.57,-0.19,-4.03,-4.07,-4.07
345,-0.46,3.59,-0.46,3.59,-3.59,-0.28,-4.05,-4.05,-4.05
349,-0.46,3.57,-0.43,3.61,-3.61,-0.39,-4.07,-4.03,-4.03
352,-0.46,3.55,-0.40,3.61,-3.61,-0.47,-4.07,-4.01,-4.01
356,-0.46,3.54,-0.39,3.61,-3.61,-0.58,-4.07,-4.00,-4.00
359,-0.31,3.67,-0.38,3.60,-3.60,-0.66,-3.91,-3.98,-3.98
363,-0.23,3.73,-0.38,3.58,-3.58,-0.77,-3.81,-3.96,-3.96
366,-0.42,3.52,-0.39,3.56,-3.56,-0.85,-3.98,-3.94,-3.94
370,-0.46,3.47,-0.40,3.53,-3.53,-0.96,-3.99,-3.93,-3.93
374,-0.46,3.45,-0.41,3.50,-3.50,-1.06,-3.96,-3.91,-3.91
377,-0.46,3.44,-0.43,3.47,-3.47,-1.14,-3.93,-3.90,-3.90
381,-0.46,3.42,-0.45,3.43,-3.43,-1.25,-3.89,-3.88,-3.88
385,-0.46,3.41,-0.48,3.39,-3.39,-1.35,-3.85,-3.87,-3.87
389,-0.46,3.40,-0.52,3.34,-3.34,-1.46,-3.80,-3.86,-3.86
393,-0.47,3.38,-0.56,3.29,-3.29,-1.56,-3.76,-3.85,-3.85
397,-0.68,3.15,-0.60,3.23,-3.23,-1.66,-3.91,-3.83,-3.83
401,-0.68,3.14,-0.65,3.17,-3.17,-1.76,-3.85,-3.82,-3.82
405,-0.68,3.13,-0.70,3.11,-3.11,-1.86,-3.79,-3.81,-3.81
409,-0.68,3.12,-0.75,3.05,-3.05,-1.96,-3.73,-3.80,-3.80
413,-0.87,2.93,-0.80,3.00,-3.00,-2.06,-3.87,-3.80,-3.80
417,-0.91,2.88,-0.85,2.94,-2.94,-2.15,-3.85,-3.79,-3.79
421,-0.91,2.87,-0.89,2.89,-2.89,-2.24,-3.80,-3.78,-3.78
425,-0.91,2.86,-0.92,2.85,-2.85,-2.33,-3.76,-3.77,-3.77
430,-0.91,2.85,-0.96,2.80,-2.80,-2.44,-3.71,-3.76,-3.76
434,-0.91,2.84,-0.99,2.76,-2.76,-2.53,-3.67,-3.75,-3.75
438,-1.05,2.69,-1.03,2.71,-2.71,-2.61,-3.76,-3.74,-3.74
443,-1.14,2.60,-1.07,2.67,-2.67,-2.71,-3.81,-3.74,-3.74
447,-1.14,2.59,-1.10,2.62,-2.62,-2.78,-3.76,-3.73,-3.73
451,-1.14,2.58,-1.14,2.57,-2.57,-2.85,-3.71,-3.72,-3.72
456,-1.14,2.57,-1.19,2.52,-2.52,-2.94,-3.66,-3.71,-3.71
460,-1.14,2.56,-1.23,2.47,-2.47,-3.00,-3.61,-3.70,-3.70
465,-1.25,2.44,-1.26,2.42,-2.42,-3.07,-3.67,-3.69,-3.69
470,-1.37,2.30,-1.30,2.37,-2.37,-3.14,-3.74,-3.67,-3.67
474,-1.37,2.29,-1.33,2.33,-2.33,-3.19,-3.70,-3.66,-3.66
479,-1.37,2.28,-1.35,2.30,-2.30,-3.24,-3.67,-3.65,-3.65
484,-1.37,2.27,-1.37,2.27,-2.27,-3.29,-3.64,-3.64,-3.64
489,-1.37,2.25,-1.38,2.25,-2.25,-3.33,-3.62,-3.62,-3.62
494,-1.37,2.24,-1.38,2.23,-2.23,-3.37,-3.60,-3.61,-3.61
499,-1.37,2.22,-1.38,2.21,-2.21,-3.40,-3.58,-3.59,-3.59
504,-1.37,2.20,-1.38,2.19,-2.19,-3.42,-3.56,-3.57,-3.57
509,-1.37,2.18,-1.38,2.17,-2.17,-3.43,-3.54,-3.55,-3.55
514,-1.37,2.17,-1.38,2.15,-2.15,-3.44,-3.52,-3.54,-3.54
519,-1.37,2.15,-1.38,2.13,-2.13,-3.45,-3.50,-3.52,-3.52
524,-1.37,2.13,-1.38,2.12,-2.12,-3.45,-3.49,-3.50,-3.50
529,-1.37,2.10,-1.37,2.10,-2.10,-3.44,-3.47,-3.47,-3.47
535,-1.37,2.08,-1.36,2.10,-2.10,-3.43,-3.47,-3.45,-3.45
540,-1.37,2.06,-1.33,2.10,-2.10,-3.41,-3.47,-3.43,-3.43
545,-1.37,2.04,-1.30,2.11,-2.11,-3.40,-3.48,-3.41,-3.41
551,-1.34,2.04,-1.26,2.12,-2.12,-3.37,-3.46,-3.38,-3.38
556,-1.14,2.22,-1.22,2.13,-2.13,-3.34,-3.27,-3.36,-3.36
562,-1.14,2.19,-1.19,2.15,-2.15,-3.31,-3.29,-3.33,-3.33
568,-1.14,2.17,-1.16,2.15,-2.15,-3.27,-3.29,-3.31,-3.31
573,-1.14,2.14,-1.15,2.14,-2.14,-3.24,-3.28,-3.28,-3.28
579,-1.14,2.12,-1.15,2.11,-2.11,-3.20,-3.25,-3.26,-3.26
585,-1.14,2.10,-1.16,2.08,-2.08,-3.16,-3.22,-3.24,-3.24
591,-1.14,2.07,-1.18,2.03,-2.03,-3.12,-3.17,-3.21,-3.21
596,-1.14,2.05,-1.21,1.98,-1.98,-3.09,-3.12,-3.19,-3.19
602,-1.22,1.94,-1.23,1.93,-1.93,-3.04,-3.15,-3.16,-3.16
608,-1.37,1.77,-1.25,1.89,-1.89,-3.00,-3.26,-3.14,-3.14
615,-1.37,1.75,-1.25,1.86,-1.86,-2.95,-3.23,-3.12,-3.12
621,-1.37,1.73,-1.25,1.85,-1.85,-2.91,-3.22,-3.10,-3.10
627,-1.14,1.93,-1.23,1.84,-1.84,-2.87,-2.98,-3.07,-3.07
633,-1.14,1.91,-1.21,1.84,-1.84,-2.84,-2.98,-3.05,-3.05
639,-1.14,1.89,-1.19,1.84,-1.84,-2.80,-2.98,-3.03,-3.03
646,-1.14,1.87,-1.17,1.84,-1.84,-2.76,-2.98,-3.01,-3.01
652,-1.14,1.85,-1.15,1.84,-1.84,-2.73,-2.98,-2.99,-2.99
659,-1.14,1.83,-1.14,1.83,-1.83,-2.69,-2.97,-2.97,-2.97
665,-1.14,1.81,-1.13,1.82,-1.82,-2.66,-2.96,-2.95,-2.95
672,-1.14,1.79,-1.11,1.82,-1.82,-2.63,-2.96,-2.93,-2.93
679,-1.14,1.77,-1.09,1.82,-1.82,-2.60,-2.96,-2.91,-2.91
686,-1.14,1.75,-1.07,1.83,-1.83,-2.57,-2.97,-2.89,-2.89
692,-1.04,1.84,-1.04,1.84,-1.84,-2.55,-2.88,-2.88,-2.88
699,-0.91,1.95,-1.00,1.86,-1.86,-2.52,-2.77,-2.86,-2.86
706,-0.91,1.93,-0.96,1.88,-1.88,-2.50,-2.79,-2.84,-2.84
713,-0.91,1.91,-0.91,1.90,-1.90,-2.48,-2.81,-2.82,-2.82
721,-0.91,1.89,-0.87,1.92,-1.92,-2.46,-2.83,-2.80,-2.80
728,-0.91,1.87,-0.83,1.95,-1.95,-2.45,-2.86,-2.78,-2.78
735,-0.82,1.93,-0.79,1.97,-1.97,-2.43,-2.79,-2.75,-2.75
742,-0.68,2.05,-0.75,1.98,-1.98,-2.42,-2.66,-2.73,-2.73
750,-0.68,2.03,-0.72,1.99,-1.99,-2.41,-2.67,-2.71,-2.71
757,-0.68,2.01,-0.70,2.00,-2.00,-2.41,-2.68,-2.69,-2.69
765,-0.68,2.00,-0.68,2.00,-2.00,-2.40,-2.68,-2.68,-2.68
773,-0.68,1.98,-0.66,1.99,-1.99,-2.40,-2.67,-2.66,-2.66
780,-0.68,1.96,-0.66,1.98,-1.98,-2.39,-2.66,-2.64,-2.64
788,-0.68,1.94,-0.66,1.96,-1.96,-2.39,-2.64,-2.62,-2.62
796,-0.68,1.92,-0.67,1.93,-1.93,-2.39,-2.61,-2.60,-2.60
804,-0.68,1.91,-0.69,1.90,-1.90,-2.40,-2.58,-2.59,-2.59
812,-0.68,1.89,-0.72,1.85,-1.85,-2.40,-2.53,-2.57,-2.57
820,-0.68,1.88,-0.76,1.80,-1.80,-2.40,-2.48,-2.56,-2.56
828,-0.72,1.83,-0.80,1.75,-1.75,-2.41,-2.47,-2.55,-2.55
837,-0.91,1.63,-0.83,1.70,-1.70,-2.42,-2.61,-2.54,-2.54
845,-0.91,1.62,-0.86,1.66,-1.66,-2.42,-2.57,-2.53,-2.53
853,-0.91,1.61,-0.88,1.64,-1.64,-2.43,-2.55,-2.52,-2.52
862,-0.91,1.60,-0.88,1.63,-1.63,-2.44,-2.54,-2.51,-2.51
871,-0.91,1.59,-0.87,1.64,-1.64,-2.45,-2.55,-2.50,-2.50
879,-0.90,1.60,-0.83,1.67,-1.67,-2.46,-2.57,-2.50,-2.50
888,-0.68,1.81,-0.78,1.71,-1.71,-2.46,-2.39,-2.49,-2.49
897,-0.68,1.80,-0.71,1.77,-1.77,-2.47,-2.45,-2.48,-2.48
906,-0.68,1.80,-0.63,1.84,-1.84,-2.48,-2.52,-2.48,-2.48
915,-0.53,1.94,-0.55,1.92,-1.92,-2.48,-2.45,-2.47,-2.47
924,-0.46,2.01,-0.47,1.99,-1.99,-2.49,-2.45,-2.47,-2.47
933,-0.46,2.00,-0.39,2.07,-2.07,-2.49,-2.53,-2.46,-2.46
943,-0.23,2.22,-0.32,2.14,-2.14,-2.50,-2.37,-2.45,-2.45
952,-0.23,2.22,-0.25,2.20,-2.20,-2.50,-2.43,-2.45,-2.45
962,-0.23,2.21,-0.18,2.26,-2.26,-2.49,-2.49,-2.44,-2.44
971,-0.10,2.33,-0.12,2.31,-2.31,-2.49,-2.41,-2.43,-2.43
981,0.00,2.42,-0.06,2.36,-2.36,-2.49,-2.36,-2.42,-2.42
991,0.00,2.41,-0.00,2.41,-2.41,-2.48,-2.41,-2.41,-2.41
1001,0.00,2.40,0.05,2.45,-2.45,-2.47,-2.45,-2.40,-2.40
1011,0.05,2.43,0.11,2.49,-2.49,-2.46,-2.44,-2.38,-2.38
1021,0.23,2.60,0.16,2.53,-2.53,-2.45,-2.30,-2.37,-2.37
1031,0.23,2.58,0.21,2.56,-2.56,-2.43,-2.33,-2.35,-2.35
1041,0.23,2.57,0.26,2.60,-2.60,-2.42,-2.37,-2.34,-2.34
1052,0.23,2.55,0.31,2.63,-2.63,-2.40,-2.40,-2.32,-2.32
1062,0.43,2.73,0.36,2.66,-2.66,-2.38,-2.23,-2.30,-2.30
1073,0.46,2.74,0.41,2.68,-2.68,-2.36,-2.22,-2.28,-2.28
1084,0.46,2.72,0.45,2.71,-2.71,-2.33,-2.25,-2.26,-2.26
1094,0.46,2.69,0.50,2.73,-2.73,-2.31,-2.27,-2.23,-2.23
1105,0.46,2.67,0.54,2.75,-2.75,-2.28,-2.29,-2.21,-2.21
1116,0.60,2.79,0.58,2.76,-2.76,-2.26,-2.16,-2.19,-2.19
1128,0.68,2.84,0.61,2.78,-2.78,-2.23,-2.10,-2.16,-2.16
1139,0.68,2.82,0.65,2.79,-2.79,-2.20,-2.11,-2.14,-2.14
1150,0.68,2.80,0.69,2.81,-2.81,-2.17,-2.13,-2.12,-2.12
1162,0.68,2.78,0.73,2.83,-2.83,-2.14,-2.15,-2.10,-2.10
1173,0.68,2.76,0.77,2.85,-2.85,-2.11,-2.17,-2.08,-2.08
1185,0.81,2.87,0.81,2.86,-2.86,-2.08,-2.05,-2.06,-2.06
1197,0.91,2.95,0.84,2.88,-2.88,-2.05,-1.97,-2.04,-2.04
1209,0.91,2.93,0.87,2.89,-2.89,-2.02,-1.98,-2.02,-2.02
1221,0.91,2.92,0.89,2.90,-2.90,-1.99,-1.99,-2.01,-2.01
1233,0.91,2.91,0.91,2.90,-2.90,-1.96,-1.99,-2.00,-2.00
1246,0.91,2.90,0.92,2.90,-2.90,-1.93,-1.99,-1.99,-1.99
1258,0.91,2.89,0.92,2.90,-2.90,-1.91,-1.99,-1.98,-1.98
1271,0.91,2.88,0.92,2.89,-2.89,-1.88,-1.98,-1.97,-1.97
1283,0.91,2.88,0.92,2.89,-2.89,-1.86,-1.98,-1.97,-1.97
1296,0.91,2.88,0.91,2.89,-2.89,-1.83,-1.98,-1.97,-1.97
1309,0.91,2.89,0.91,2.89,-2.89,-1.81,-1.98,-1.98,-1.98
1322,0.91,2.89,0.91,2.89,-2.89,-1.79,-1.98,-1.98,-1.98
1335,0.91,2.90,0.91,2.90,-2.90,-1.77,-1.99,-1.99,-1.99
1349,0.91,2.91,0.91,2.91,-2.91,-1.75,-2.00,-2.00,-2.00
1362,0.91,2.92,0.91,2.92,-2.92,-1.73,-2.01,-2.01,-2.01
1376,0.91,2.93,0.92,2.94,-2.94,-1.71,-2.03,-2.02,-2.02
1390,0.91,2.94,0.92,2.96,-2.96,-1.69,-2.05,-2.03,-2.03
1404,0.91,2.96,0.92,2.97,-2.97,-1.68,-2.06,-2.05,-2.05
1418,0.91,2.97,0.92,2.99,-2.99,-1.67,-2.08,-2.06,-2.06
1432,0.91,2.99,0.92,2.99,-2.99,-1.66,-2.08,-2.08,-2.08
1446,0.91,3.00,0.91,3.00,-3.00,-1.65,-2.09,-2.09,-2.09
1461,0.91,3.01,0.88,2.98,-2.98,-1.64,-2.07,-2.10,-2.10
1475,0.91,3.02,0.85,2.96,-2.96,-1.63,-2.05,-2.11,-2.11
1490,0.68,2.80,0.79,2.90,-2.90,-1.62,-2.22,-2.12,-2.12
1505,0.68,2.80,0.71,2.83,-2.83,-1.62,-2.15,-2.12,-2.12
