frequency,raw
20.00,12.67
20.20,12.69
20.40,12.70
20.61,12.72
20.81,12.74
21.02,12.75
21.23,12.77
21.44,12.79
21.66,12.81
21.87,12.83
22.09,12.85
22.31,12.87
22.54,12.88
22.76,12.90
22.99,12.92
23.22,12.94
23.45,12.96
23.69,12.98
23.92,12.99
24.16,13.01
24.40,13.03
24.65,13.05
24.89,13.06
25.14,13.08
25.39,13.10
25.65,13.12
25.91,13.13
26.16,13.15
26.43,13.17
26.69,13.19
26.96,13.21
27.23,13.22
27.50,13.24
27.77,13.26
28.05,13.27
28.33,13.29
28.62,13.30
28.90,13.32
29.19,13.33
29.48,13.35
29.78,13.37
30.08,13.38
30.38,13.40
30.68,13.41
30.99,13.42
31.30,13.43
31.61,13.44
31.93,13.45
32.24,13.46
32.57,13.47
32.89,13.48
33.22,13.49
33.55,13.51
33.89,13.52
34.23,13.54
34.57,13.55
34.92,13.57
35.27,13.58
35.62,13.60
35.97,13.62
36.33,13.64
36.70,13.66
37.06,13.67
37.43,13.70
37.81,13.72
38.19,13.74
38.57,13.76
38.95,13.78
39.34,13.80
39.74,13.82
40.14,13.84
40.54,13.86
40.94,13.88
41.35,13.89
41.76,13.91
42.18,13.93
42.60,13.94
43.03,13.95
43.46,13.95
43.90,13.96
44.33,13.97
44.78,13.98
45.23,13.98
45.68,13.99
46.13,14.00
46.60,14.01
47.06,14.02
47.53,14.02
48.01,14.02
48.49,14.02
48.97,14.02
49.46,14.02
49.96,14.01
50.46,14.01
50.96,14.00
51.47,14.00
51.99,14.00
52.51,14.00
53.03,14.00
53.56,14.00
54.10,14.00
54.64,14.00
55.18,14.00
55.74,14.00
56.29,14.00
56.86,14.00
57.42,14.00
58.00,14.00
58.58,14.00
59.16,14.00
59.76,14.00
60.35,14.00
60.96,14.00
61.57,14.00
62.18,14.00
62.80,14.00
63.43,14.00
64.07,14.00
64.71,14.00
65.35,14.00
66.01,14.01
66.67,14.02
67.33,14.02
68.01,14.02
68.69,14.01
69.37,14.01
70.07,14.00
70.77,13.98
71.48,13.97
72.19,13.94
72.91,13.92
73.64,13.90
74.38,13.87
75.12,13.85
75.87,13.82
76.63,13.80
77.40,13.77
78.17,13.75
78.95,13.73
79.74,13.72
80.54,13.71
81.35,13.69
82.16,13.68
82.98,13.66
83.81,13.64
84.65,13.63
85.50,13.62
86.35,13.60
87.22,13.57
88.09,13.55
88.97,13.51
89.86,13.48
90.76,13.46
91.66,13.43
92.58,13.40
93.51,13.37
94.44,13.35
95.39,13.34
96.34,13.33
97.30,13.33
98.28,13.35
99.26,13.36
100.25,13.37
101.25,13.36
102.27,13.35
103.29,13.34
104.32,13.33
105.37,13.30
106.42,13.27
107.48,13.24
108.56,13.20
109.64,13.16
110.74,13.13
111.85,13.10
112.97,13.08
114.10,13.06
115.24,13.03
116.39,13.02
117.55,13.00
118.73,12.98
119.92,12.95
121.12,12.93
122.33,12.90
123.55,12.88
124.79,12.85
126.03,12.82
127.29,12.79
128.57,12.76
129.85,12.72
131.15,12.67
132.46,12.64
133.79,12.60
135.12,12.57
136.48,12.55
137.84,12.52
139.22,12.51
140.61,12.48
142.02,12.43
143.44,12.41
144.87,12.37
146.32,12.33
147.78,12.29
149.26,12.27
150.75,12.24
152.26,12.22
153.78,12.19
155.32,12.17
156.88,12.14
158.44,12.11
160.03,12.07
161.63,12.04
163.24,12.01
164.88,11.98
166.53,11.96
168.19,11.94
169.87,11.90
171.57,11.85
173.29,11.81
175.02,11.74
176.77,11.70
178.54,11.65
180.32,11.60
182.13,11.55
183.95,11.46
185.79,11.42
187.65,11.38
189.52,11.34
191.42,11.29
193.33,11.25
195.27,11.20
197.22,11.15
199.19,11.10
201.18,11.06
203.19,11.01
205.23,10.97
207.28,10.92
209.35,10.89
211.44,10.86
213.56,10.82
215.69,10.78
217.85,10.72
220.03,10.69
222.23,10.65
224.45,10.61
226.70,10.57
228.96,10.56
231.25,10.54
233.57,10.52
235.90,10.48
238.26,10.45
240.64,10.41
243.05,10.39
245.48,10.36
247.93,10.33
250.41,10.31
252.92,10.26
255.45,10.23
258.00,10.19
260.58,10.13
263.19,10.08
265.82,10.00
268.48,9.95
271.16,9.90
273.87,9.81
276.61,9.76
279.38,9.70
282.17,9.64
284.99,9.57
287.84,9.49
290.72,9.41
293.63,9.34
296.57,9.28
299.53,9.22
302.53,9.15
305.55,9.07
308.61,9.01
311.69,8.96
314.81,8.91
317.96,8.84
321.14,8.76
324.35,8.69
327.59,8.62
330.87,8.56
334.18,8.48
337.52,8.40
340.90,8.35
344.30,8.28
347.75,8.20
351.23,8.12
354.74,8.05
358.28,7.98
361.87,7.93
365.49,7.85
369.14,7.78
372.83,7.71
376.56,7.65
380.33,7.58
384.13,7.51
387.97,7.44
391.85,7.37
395.77,7.31
399.73,7.25
403.72,7.19
407.76,7.12
411.84,7.06
415.96,7.00
420.12,6.93
424.32,6.88
428.56,6.83
432.85,6.77
437.18,6.72
441.55,6.66
445.96,6.60
450.42,6.55
454.93,6.50
459.48,6.45
464.07,6.39
468.71,6.33
473.40,6.27
478.13,6.23
482.91,6.18
487.74,6.13
492.62,6.08
497.55,6.02
502.52,5.97
507.55,5.92
512.62,5.86
517.75,5.80
522.93,5.74
528.16,5.66
533.44,5.61
538.77,5.54
544.16,5.46
549.60,5.40
555.10,5.31
560.65,5.24
566.25,5.16
571.92,5.07
577.64,4.99
583.41,4.91
589.25,4.82
595.14,4.72
601.09,4.63
607.10,4.54
613.17,4.46
619.30,4.37
625.50,4.27
631.75,4.18
638.07,4.08
644.45,4.00
650.89,3.91
657.40,3.82
663.98,3.72
670.62,3.63
677.32,3.55
684.10,3.46
690.94,3.37
697.85,3.28
704.83,3.20
711.87,3.12
718.99,3.05
726.18,2.98
733.44,2.90
740.78,2.81
748.19,2.73
755.67,2.65
763.23,2.56
770.86,2.47
778.57,2.39
786.35,2.30
794.22,2.20
802.16,2.11
810.18,2.01
818.28,1.92
826.46,1.82
834.73,1.73
843.08,1.62
851.51,1.53
860.02,1.43
868.62,1.34
877.31,1.23
886.08,1.14
894.94,1.04
903.89,0.93
912.93,0.83
922.06,0.73
931.28,0.63
940.59,0.53
950.00,0.44
959.50,0.35
969.09,0.27
978.78,0.19
988.57,0.09
998.46,0.01
1008.44,-0.06
1018.53,-0.13
1028.71,-0.20
1039.00,-0.28
1049.39,-0.35
1059.88,-0.43
1070.48,-0.50
1081.19,-0.57
1092.00,-0.65
1102.92,-0.74
1113.95,-0.82
1125.09,-0.89
1136.34,-0.99
1147.70,-1.08
1159.18,-1.18
1170.77,-1.27
1182.48,-1.36
1194.30,-1.47
1206.25,-1.58
1218.31,-1.69
1230.49,-1.79
1242.80,-1.90
1255.22,-2.02
1267.78,-2.13
1280.45,-2.24
1293.26,-2.34
1306.19,-2.44
1319.25,-2.54
1332.45,-2.64
1345.77,-2.73
1359.23,-2.81
1372.82,-2.89
1386.55,-2.96
1400.41,-3.01
1414.42,-3.07
1428.56,-3.13
1442.85,-3.17
1457.28,-3.20
1471.85,-3.21
1486.57,-3.21
1501.43,-3.20
1516.45,-3.18
1531.61,-3.14
1546.93,-3.09
1562.40,-3.03
1578.02,-2.97
1593.80,-2.91
1609.74,-2.84
1625.84,-2.77
1642.10,-2.69
1658.52,-2.59
1675.10,-2.50
1691.85,-2.41
1708.77,-2.31
1725.86,-2.22
1743.12,-2.12
1760.55,-2.00
1778.15,-1.89
1795.94,-1.77
1813.90,-1.67
1832.03,-1.56
1850.36,-1.43
1868.86,-1.32
1887.55,-1.23
1906.42,-1.13
1925.49,-1.04
1944.74,-0.96
1964.19,-0.87
1983.83,-0.79
2003.67,-0.71
2023.71,-0.63
2043.94,-0.57
2064.38,-0.51
2085.03,-0.45
2105.88,-0.41
2126.94,-0.37
2148.20,-0.33
2169.69,-0.30
2191.38,-0.28
2213.30,-0.27
2235.43,-0.26
2257.78,-0.25
2280.36,-0.25
2303.17,-0.26
2326.20,-0.27
2349.46,-0.27
2372.95,-0.27
2396.68,-0.27
2420.65,-0.27
2444.86,-0.27
2469.31,-0.27
2494.00,-0.27
2518.94,-0.27
2544.13,-0.27
2569.57,-0.27
2595.27,-0.27
2621.22,-0.27
2647.43,-0.27
2673.90,-0.27
2700.64,-0.27
2727.65,-0.27
2754.93,-0.27
2782.48,-0.27
2810.30,-0.27
2838.40,-0.27
2866.79,-0.27
2895.46,-0.27
2924.41,-0.27
2953.65,-0.27
2983.19,-0.27
3013.02,-0.27
3043.15,-0.27
3073.58,-0.27
3104.32,-0.27
3135.36,-0.27
3166.72,-0.27
3198.38,-0.27
3230.37,-0.27
3262.67,-0.27
3295.30,-0.28
3328.25,-0.28
3361.53,-0.29
3395.15,-0.29
3429.10,-0.29
3463.39,-0.28
3498.03,-0.27
3533.01,-0.25
3568.34,-0.23
3604.02,-0.20
3640.06,-0.17
3676.46,-0.13
3713.22,-0.10
3750.36,-0.07
3787.86,-0.04
3825.74,-0.01
3864.00,0.02
3902.64,0.05
3941.66,0.06
3981.08,0.07
4020.89,0.07
4061.10,0.07
4101.71,0.07
4142.73,0.07
4184.15,0.08
4226.00,0.07
4268.26,0.06
4310.94,0.05
4354.05,0.03
4397.59,0.01
4441.56,-0.02
4485.98,-0.05
4530.84,-0.09
4576.15,-0.12
4621.91,-0.16
4668.13,-0.19
4714.81,-0.22
4761.96,-0.25
4809.58,-0.27
4857.67,-0.29
4906.25,-0.30
4955.31,-0.31
5004.87,-0.31
5054.91,-0.31
5105.46,-0.31
5156.52,-0.29
5208.08,-0.28
5260.16,-0.26
5312.77,-0.23
5365.89,-0.19
5419.55,-0.13
5473.75,-0.07
5528.49,0.02
5583.77,0.12
5639.61,0.23
5696.00,0.37
5752.96,0.53
5810.49,0.72
5868.60,0.92
5927.28,1.16
5986.56,1.40
6046.42,1.66
6106.89,1.95
6167.96,2.26
6229.64,2.57
6291.93,2.89
6354.85,3.19
6418.40,3.48
6482.58,3.76
6547.41,4.01
6612.88,4.22
6679.01,4.38
6745.80,4.48
6813.26,4.54
6881.39,4.56
6950.21,4.54
7019.71,4.48
7089.91,4.39
7160.81,4.28
7232.41,4.12
7304.74,3.92
7377.79,3.70
7451.56,3.46
7526.08,3.18
7601.34,2.87
7677.35,2.53
7754.13,2.14
7831.67,1.71
7909.98,1.23
7989.08,0.69
8068.98,0.10
8149.67,-0.53
8231.16,-1.18
8313.47,-1.86
8396.61,-2.55
8480.57,-3.23
8565.38,-3.92
8651.03,-4.59
8737.54,-5.26
8824.92,-5.90
8913.17,-6.52
9002.30,-7.09
9092.32,-7.62
9183.25,-8.12
9275.08,-8.58
9367.83,-8.99
9461.51,-9.37
9556.12,-9.72
9651.68,-10.03
9748.20,-10.31
9845.68,-10.56
9944.14,-10.77
10043.58,-10.95
10144.02,-11.10
10245.46,-11.21
10347.91,-11.28
10451.39,-11.32
10555.91,-11.31
10661.46,-11.26
10768.08,-11.16
10875.76,-11.01
10984.52,-10.79
11094.36,-10.53
11205.31,-10.22
11317.36,-9.86
11430.53,-9.46
11544.84,-9.03
11660.29,-8.59
11776.89,-8.14
11894.66,-7.71
12013.60,-7.32
12133.74,-6.95
12255.08,-6.62
12377.63,-6.35
12501.41,-6.13
12626.42,-5.96
12752.68,-5.82
12880.21,-5.73
13009.01,-5.69
13139.10,-5.69
13270.49,-5.73
13403.20,-5.82
13537.23,-5.93
13672.60,-6.09
13809.33,-6.29
13947.42,-6.55
14086.90,-6.84
14227.77,-7.19
14370.04,-7.60
14513.74,-8.06
14658.88,-8.55
14805.47,-9.10
14953.52,-9.66
15103.06,-10.25
15254.09,-10.82
15406.63,-11.38
15560.70,-11.89
15716.30,-12.36
15873.47,-12.79
16032.20,-13.18
16192.52,-13.53
16354.45,-13.80
16517.99,-14.03
16683.17,-14.23
16850.01,-14.40
17018.51,-14.56
17188.69,-14.67
17360.58,-14.77
17534.18,-14.88
17709.53,-15.00
17886.62,-15.15
18065.49,-15.36
18246.14,-15.69
18428.60,-16.10
18612.89,-16.56
18799.02,-17.06
18987.01,-17.61
19176.88,-18.21
19368.65,-18.86
19562.33,-19.57
19757.96,-20.32
19955.54,-21.12
