frequency,raw,error,smoothed,error_smoothed,equalization,parametric_eq,equalized_raw,equalized_smoothed,target
20,-5.55,-10.34,-5.47,-10.23,6.00,2.13,0.45,0.53,4.79
21,-4.89,-9.67,-4.89,-9.65,6.00,2.47,1.11,1.11,4.78
22,-4.30,-9.08,-4.33,-9.10,6.00,2.84,1.70,1.67,4.78
23,-3.71,-8.49,-3.80,-8.56,6.00,3.24,2.29,2.20,4.78
24,-3.46,-8.24,-3.28,-8.04,6.00,3.66,2.54,2.72,4.78
25,-2.67,-7.44,-2.78,-7.55,6.00,4.09,3.33,3.22,4.77
26,-2.29,-7.06,-2.30,-7.07,6.00,4.52,3.71,3.70,4.77
27,-1.81,-6.58,-1.85,-6.61,5.92,4.92,4.11,4.07,4.77
28,-1.31,-6.07,-1.41,-6.17,5.76,5.26,4.45,4.35,4.76
29,-0.91,-5.67,-0.99,-5.74,5.52,5.53,4.61,4.53,4.76
30,-0.61,-5.36,-0.59,-5.34,5.24,5.69,4.63,4.65,4.75
31,-0.28,-5.03,-0.22,-4.96,4.93,5.73,4.65,4.71,4.75
32,0.10,-4.64,0.12,-4.61,4.61,5.66,4.71,4.73,4.74
33,0.44,-4.30,0.46,-4.27,4.27,5.49,4.71,4.73,4.74
34,0.77,-3.96,0.78,-3.95,3.95,5.24,4.72,4.72,4.73
35,1.05,-3.67,1.07,-3.64,3.64,4.93,4.69,4.71,4.72
36,1.45,-3.26,1.36,-3.35,3.35,4.59,4.79,4.71,4.71
37,1.62,-3.09,1.64,-3.06,3.06,4.24,4.68,4.70,4.70
38,1.84,-2.86,1.89,-2.79,2.79,3.88,4.63,4.68,4.70
39,2.14,-2.55,2.14,-2.54,2.54,3.52,4.68,4.67,4.69
40,2.39,-2.28,2.38,-2.29,2.29,3.17,4.68,4.67,4.67
41,2.52,-2.14,2.61,-2.06,2.06,2.84,4.58,4.66,4.66
42,2.92,-1.73,2.82,-1.83,1.83,2.52,4.75,4.65,4.65
43,2.97,-1.67,3.02,-1.62,1.62,2.22,4.59,4.64,4.64
44,3.33,-1.29,3.21,-1.42,1.42,1.93,4.75,4.62,4.62
45,3.38,-1.23,3.38,-1.22,1.22,1.66,4.60,4.60,4.61
46,3.47,-1.12,3.55,-1.04,1.04,1.40,4.51,4.59,4.59
47,3.63,-0.95,3.71,-0.86,0.86,1.15,4.49,4.58,4.58
48,3.95,-0.61,3.87,-0.69,0.69,0.91,4.64,4.56,4.56
49,4.07,-0.47,4.01,-0.53,0.53,0.69,4.60,4.54,4.54
50,4.11,-0.41,4.15,-0.37,0.37,0.47,4.48,4.52,4.52
51,4.27,-0.23,4.28,-0.22,0.22,0.26,4.49,4.50,4.50
52,4.36,-0.12,4.40,-0.07,0.07,0.07,4.43,4.47,4.48
53,4.51,0.05,4.53,0.08,-0.08,-0.12,4.43,4.45,4.46
54,4.64,0.20,4.64,0.21,-0.21,-0.30,4.43,4.43,4.44
55,4.77,0.35,4.77,0.35,-0.35,-0.46,4.42,4.42,4.42
56,4.87,0.48,4.87,0.48,-0.48,-0.62,4.39,4.40,4.39
57,4.97,0.60,4.96,0.60,-0.60,-0.77,4.37,4.36,4.37
58,5.07,0.73,5.05,0.72,-0.72,-0.90,4.35,4.33,4.34
59,5.16,0.85,5.14,0.84,-0.84,-1.03,4.32,4.31,4.31
60,5.26,0.97,5.23,0.94,-0.94,-1.15,4.32,4.28,4.29
61,5.27,1.01,5.30,1.05,-1.05,-1.25,4.22,4.25,4.26
62,5.37,1.14,5.37,1.15,-1.15,-1.35,4.22,4.22,4.23
63,5.47,1.27,5.43,1.24,-1.24,-1.44,4.23,4.19,4.20
64,5.47,1.31,5.49,1.33,-1.33,-1.52,4.14,4.16,4.16
65,5.47,1.34,5.54,1.42,-1.42,-1.59,4.05,4.13,4.13
66,5.57,1.47,5.59,1.50,-1.50,-1.66,4.07,4.09,4.10
67,5.67,1.60,5.63,1.57,-1.57,-1.72,4.10,4.06,4.07
68,5.68,1.65,5.67,1.64,-1.64,-1.77,4.04,4.02,4.03
69,5.67,1.67,5.70,1.70,-1.70,-1.83,3.97,3.99,4.00
70,5.77,1.81,5.72,1.76,-1.76,-1.87,4.01,3.96,3.96
71,5.77,1.85,5.74,1.82,-1.82,-1.92,3.95,3.92,3.92
72,5.77,1.88,5.75,1.87,-1.87,-1.96,3.90,3.88,3.89
73,5.77,1.92,5.76,1.92,-1.92,-2.00,3.85,3.84,3.85
74,5.77,1.96,5.77,1.96,-1.96,-2.04,3.81,3.81,3.81
75,5.75,1.98,5.77,2.00,-2.00,-2.08,3.75,3.77,3.77
76,5.77,2.04,5.77,2.05,-2.05,-2.12,3.72,3.72,3.73
77,5.77,2.08,5.77,2.09,-2.09,-2.17,3.68,3.68,3.69
78,5.77,2.12,5.78,2.13,-2.13,-2.21,3.64,3.64,3.65
79,5.77,2.16,5.78,2.18,-2.18,-2.25,3.59,3.60,3.61
80,5.77,2.20,5.79,2.23,-2.23,-2.30,3.54,3.56,3.57
81,5.77,2.24,5.81,2.29,-2.29,-2.35,3.48,3.52,3.53
82,5.87,2.38,5.83,2.35,-2.35,-2.40,3.52,3.48,3.49
83,5.87,2.42,5.86,2.42,-2.42,-2.45,3.45,3.44,3.45
84,5.87,2.46,5.90,2.50,-2.50,-2.50,3.37,3.40,3.41
85,5.95,2.59,5.94,2.58,-2.58,-2.56,3.37,3.36,3.36
86,5.98,2.66,5.98,2.66,-2.66,-2.61,3.31,3.32,3.32
87,5.98,2.70,6.03,2.76,-2.76,-2.67,3.22,3.27,3.28
88,6.08,2.84,6.08,2.85,-2.85,-2.73,3.23,3.23,3.24
89,6.18,2.98,6.14,2.95,-2.95,-2.80,3.23,3.20,3.20
90,6.18,3.02,6.20,3.04,-3.04,-2.86,3.14,3.16,3.16
91,6.18,3.07,6.25,3.14,-3.14,-2.93,3.04,3.12,3.11
92,6.37,3.30,6.30,3.23,-3.23,-3.00,3.14,3.07,3.07
93,6.39,3.36,6.35,3.33,-3.33,-3.07,3.06,3.03,3.03
94,6.39,3.40,6.40,3.42,-3.42,-3.14,2.97,2.99,2.99
95,6.47,3.52,6.45,3.50,-3.50,-3.22,2.97,2.95,2.95
96,6.52,3.61,6.50,3.59,-3.59,-3.29,2.93,2.91,2.91
97,6.58,3.71,6.54,3.67,-3.67,-3.37,2.91,2.87,2.87
98,6.57,3.74,6.57,3.75,-3.75,-3.45,2.82,2.82,2.83
99,6.56,3.77,6.61,3.83,-3.83,-3.53,2.73,2.78,2.79
100,6.62,3.87,6.65,3.91,-3.91,-3.61,2.71,2.74,2.75
101,6.63,3.91,6.68,3.98,-3.98,-3.69,2.65,2.70,2.72
102,6.71,4.03,6.70,4.05,-4.05,-3.77,2.66,2.65,2.68
104,6.78,4.18,6.73,4.11,-4.11,-3.93,2.67,2.62,2.60
105,6.76,4.19,6.76,4.17,-4.17,-4.01,2.59,2.58,2.57
106,6.74,4.21,6.77,4.23,-4.23,-4.09,2.51,2.54,2.53
107,6.79,4.29,6.78,4.29,-4.29,-4.17,2.50,2.49,2.50
108,6.81,4.35,6.79,4.34,-4.34,-4.25,2.47,2.45,2.46
109,6.87,4.44,6.80,4.39,-4.39,-4.32,2.48,2.41,2.43
110,6.85,4.46,6.82,4.44,-4.44,-4.40,2.41,2.38,2.39
111,6.83,4.47,6.83,4.48,-4.48,-4.47,2.35,2.35,2.36
112,6.82,4.49,6.84,4.53,-4.53,-4.54,2.29,2.31,2.33
113,6.81,4.51,6.85,4.58,-4.58,-4.61,2.23,2.27,2.30
114,6.81,4.54,6.87,4.63,-4.63,-4.68,2.18,2.24,2.27
115,6.80,4.56,6.89,4.67,-4.67,-4.74,2.13,2.21,2.24
117,6.91,4.73,6.91,4.73,-4.73,-4.86,2.18,2.18,2.18
118,6.97,4.81,6.93,4.78,-4.78,-4.92,2.19,2.15,2.16
119,7.02,4.88,6.97,4.84,-4.84,-4.97,2.18,2.13,2.14
120,7.02,4.90,7.00,4.90,-4.90,-5.02,2.12,2.10,2.12
121,7.03,4.93,7.04,4.96,-4.96,-5.06,2.07,2.08,2.10
123,7.04,4.99,7.08,5.02,-5.02,-5.15,2.02,2.06,2.05
124,7.12,5.08,7.12,5.08,-5.08,-5.18,2.04,2.04,2.04
125,7.15,5.13,7.16,5.14,-5.14,-5.21,2.01,2.02,2.02
126,7.16,5.15,7.19,5.19,-5.19,-5.24,1.97,2.00,2.01
128,7.27,5.30,7.22,5.24,-5.24,-5.30,2.03,1.98,1.97
129,7.27,5.32,7.24,5.28,-5.28,-5.32,1.99,1.95,1.95
130,7.28,5.34,7.25,5.32,-5.32,-5.34,1.96,1.93,1.94
131,7.28,5.35,7.27,5.36,-5.36,-5.35,1.92,1.91,1.93
133,7.29,5.40,7.29,5.39,-5.39,-5.38,1.90,1.90,1.89
134,7.29,5.41,7.30,5.42,-5.42,-5.39,1.87,1.88,1.88
135,7.30,5.44,7.30,5.45,-5.45,-5.40,1.85,1.85,1.86
137,7.30,5.47,7.29,5.47,-5.47,-5.41,1.82,1.82,1.83
138,7.30,5.49,7.30,5.50,-5.50,-5.42,1.80,1.79,1.81
140,7.31,5.53,7.30,5.53,-5.53,-5.42,1.78,1.77,1.78
141,7.31,5.55,7.31,5.56,-5.56,-5.43,1.75,1.74,1.76
142,7.31,5.56,7.32,5.60,-5.60,-5.43,1.71,1.72,1.75
144,7.31,5.59,7.34,5.64,-5.64,-5.43,1.67,1.70,1.72
145,7.31,5.61,7.36,5.69,-5.69,-5.43,1.62,1.67,1.70
147,7.31,5.64,7.39,5.73,-5.73,-5.44,1.58,1.66,1.67
148,7.31,5.65,7.42,5.78,-5.78,-5.44,1.53,1.64,1.66
150,7.51,5.88,7.45,5.82,-5.82,-5.45,1.69,1.63,1.63
151,7.51,5.89,7.47,5.85,-5.85,-5.45,1.66,1.62,1.62
153,7.51,5.91,7.48,5.87,-5.87,-5.46,1.64,1.60,1.60
154,7.51,5.92,7.47,5.89,-5.89,-5.47,1.62,1.59,1.59
156,7.51,5.94,7.46,5.89,-5.89,-5.49,1.61,1.56,1.57
157,7.51,5.95,7.43,5.89,-5.89,-5.50,1.62,1.54,1.56
159,7.51,5.97,7.40,5.88,-5.88,-5.52,1.63,1.52,1.54
160,7.51,5.98,7.35,5.86,-5.86,-5.54,1.65,1.49,1.53
162,7.32,5.82,7.31,5.84,-5.84,-5.57,1.47,1.47,1.50
164,7.19,5.71,7.27,5.83,-5.83,-5.61,1.36,1.44,1.48
165,7.13,5.66,7.23,5.82,-5.82,-5.63,1.31,1.41,1.47
167,7.06,5.61,7.21,5.81,-5.81,-5.67,1.25,1.40,1.45
169,7.09,5.66,7.20,5.82,-5.82,-5.72,1.27,1.38,1.43
170,7.09,5.67,7.20,5.83,-5.83,-5.75,1.26,1.37,1.42
172,7.21,5.81,7.21,5.86,-5.86,-5.81,1.35,1.35,1.40
174,7.27,5.89,7.24,5.90,-5.90,-5.87,1.37,1.34,1.38
175,7.27,5.90,7.29,5.95,-5.95,-5.91,1.32,1.33,1.37
177,7.44,6.08,7.34,6.01,-6.01,-5.98,1.43,1.33,1.36
179,7.46,6.11,7.41,6.07,-6.07,-6.06,1.39,1.34,1.35
181,7.47,6.13,7.48,6.13,-6.13,-6.14,1.34,1.35,1.34
183,7.57,6.24,7.54,6.19,-6.19,-6.22,1.38,1.35,1.33
184,7.61,6.27,7.60,6.25,-6.25,-6.27,1.36,1.35,1.34
186,7.70,6.36,7.65,6.30,-6.30,-6.36,1.40,1.35,1.34
188,7.71,6.36,7.69,6.35,-6.35,-6.46,1.36,1.35,1.35
190,7.73,6.38,7.73,6.39,-6.39,-6.56,1.34,1.35,1.35
192,7.74,6.38,7.77,6.43,-6.43,-6.66,1.31,1.35,1.36
194,7.80,6.43,7.82,6.46,-6.46,-6.77,1.34,1.35,1.37
196,7.87,6.50,7.85,6.50,-6.50,-6.88,1.37,1.36,1.37
198,7.88,6.50,7.90,6.53,-6.53,-6.99,1.35,1.36,1.38
200,7.89,6.51,7.94,6.57,-6.57,-7.10,1.32,1.37,1.38
202,7.96,6.58,7.97,6.61,-6.61,-7.22,1.35,1.37,1.38
204,8.01,6.63,8.01,6.65,-6.65,-7.34,1.36,1.37,1.38
206,8.10,6.72,8.05,6.69,-6.69,-7.46,1.41,1.37,1.38
208,8.11,6.74,8.09,6.73,-6.73,-7.58,1.38,1.37,1.37
210,8.11,6.74,8.13,6.77,-6.77,-7.70,1.34,1.36,1.37
212,8.21,6.85,8.16,6.80,-6.80,-7.81,1.41,1.35,1.36
214,8.20,6.85,8.19,6.84,-6.84,-7.93,1.36,1.35,1.35
216,8.20,6.86,8.22,6.88,-6.88,-8.04,1.32,1.34,1.34
218,8.23,6.90,8.25,6.91,-6.91,-8.16,1.32,1.34,1.33
221,8.29,6.97,8.27,6.94,-6.94,-8.32,1.35,1.33,1.32
223,8.29,6.97,8.29,6.96,-6.96,-8.42,1.33,1.33,1.32
225,8.29,6.97,8.30,6.98,-6.98,-8.51,1.31,1.32,1.32
227,8.29,6.97,8.32,7.01,-7.01,-8.60,1.28,1.32,1.32
229,8.35,7.03,8.35,7.03,-7.03,-8.69,1.32,1.32,1.32
232,8.40,7.08,8.37,7.05,-7.05,-8.80,1.35,1.32,1.32
234,8.41,7.08,8.39,7.06,-7.06,-8.86,1.35,1.33,1.33
236,8.42,7.08,8.42,7.08,-7.08,-8.92,1.34,1.34,1.34
239,8.44,7.09,8.45,7.11,-7.11,-8.98,1.33,1.35,1.35
241,8.46,7.10,8.48,7.13,-7.13,-9.01,1.33,1.36,1.36
244,8.48,7.10,8.52,7.15,-7.15,-9.04,1.33,1.37,1.38
246,8.54,7.14,8.56,7.18,-7.18,-9.04,1.36,1.38,1.39
248,8.62,7.21,8.61,7.21,-7.21,-9.04,1.41,1.40,1.41
251,8.64,7.22,8.65,7.23,-7.23,-9.01,1.41,1.42,1.42
253,8.65,7.21,8.69,7.26,-7.26,-8.98,1.39,1.43,1.44
256,8.77,7.32,8.72,7.29,-7.29,-8.91,1.48,1.43,1.45
259,8.77,7.31,8.76,7.32,-7.32,-8.83,1.45,1.44,1.45
261,8.79,7.33,8.79,7.34,-7.34,-8.76,1.45,1.44,1.46
264,8.88,7.42,8.81,7.37,-7.37,-8.64,1.51,1.45,1.46
266,8.88,7.41,8.84,7.39,-7.39,-8.56,1.49,1.45,1.47
269,8.88,7.41,8.86,7.41,-7.41,-8.42,1.47,1.45,1.46
272,8.87,7.41,8.88,7.43,-7.43,-8.27,1.44,1.45,1.46
274,8.87,7.41,8.90,7.45,-7.45,-8.16,1.42,1.46,1.46
277,8.87,7.41,8.92,7.46,-7.46,-7.99,1.41,1.46,1.46
280,8.87,7.40,8.94,7.47,-7.47,-7.82,1.40,1.47,1.47
283,8.90,7.43,8.95,7.48,-7.48,-7.64,1.42,1.46,1.47
286,8.98,7.51,8.95,7.49,-7.49,-7.45,1.49,1.47,1.47
288,8.99,7.51,8.96,7.49,-7.49,-7.33,1.50,1.47,1.48
291,9.00,7.51,8.96,7.48,-7.48,-7.14,1.52,1.47,1.49
294,9.01,7.51,8.96,7.48,-7.48,-6.95,1.53,1.48,1.50
297,9.02,7.51,8.96,7.47,-7.47,-6.76,1.55,1.50,1.51
300,8.94,7.42,8.96,7.45,-7.45,-6.58,1.49,1.51,1.52
303,8.94,7.41,8.96,7.43,-7.43,-6.39,1.51,1.53,1.53
306,8.92,7.38,8.95,7.41,-7.41,-6.21,1.51,1.54,1.54
309,8.86,7.31,8.93,7.38,-7.38,-6.03,1.48,1.55,1.55
312,8.87,7.31,8.90,7.35,-7.35,-5.85,1.52,1.55,1.56
316,8.87,7.30,8.86,7.32,-7.32,-5.62,1.55,1.54,1.57
319,8.88,7.31,8.83,7.28,-7.28,-5.45,1.60,1.55,1.57
322,8.86,7.29,8.79,7.24,-7.24,-5.28,1.62,1.55,1.57
325,8.78,7.20,8.76,7.19,-7.19,-5.12,1.59,1.56,1.58
328,8.73,7.15,8.72,7.15,-7.15,-4.96,1.58,1.57,1.58
332,8.66,7.08,8.68,7.10,-7.10,-4.75,1.56,1.58,1.58
335,8.57,6.99,8.63,7.05,-7.05,-4.60,1.52,1.57,1.58
338,8.57,6.99,8.57,7.00,-7.00,-4.45,1.57,1.57,1.58
342,8.47,6.89,8.52,6.94,-6.94,-4.26,1.53,1.57,1.58
345,8.46,6.88,8.45,6.89,-6.89,-4.12,1.57,1.56,1.58
349,8.46,6.88,8.39,6.83,-6.83,-3.94,1.63,1.56,1.58
352,8.40,6.81,8.34,6.77,-6.77,-3.81,1.63,1.57,1.59
356,8.29,6.70,8.29,6.71,-6.71,-3.64,1.58,1.58,1.59
359,8.15,6.55,8.24,6.65,-6.65,-3.51,1.50,1.59,1.60
363,8.08,6.48,8.18,6.58,-6.58,-3.35,1.50,1.60,1.60
366,8.04,6.43,8.11,6.51,-6.51,-3.23,1.53,1.60,1.61
370,8.09,6.47,8.03,6.43,-6.43,-3.08,1.66,1.60,1.62
374,8.01,6.38,7.96,6.35,-6.35,-2.93,1.66,1.61,1.63
377,7.91,6.27,7.89,6.26,-6.26,-2.82,1.65,1.63,1.64
381,7.89,6.25,7.79,6.16,-6.16,-2.68,1.73,1.63,1.64
385,7.78,6.13,7.69,6.06,-6.06,-2.55,1.72,1.63,1.65
389,7.49,5.83,7.59,5.95,-5.95,-2.41,1.54,1.64,1.66
393,7.40,5.74,7.47,5.82,-5.82,-2.28,1.58,1.65,1.66
397,7.28,5.62,7.35,5.69,-5.69,-2.16,1.59,1.66,1.66
401,7.21,5.55,7.20,5.54,-5.54,-2.04,1.67,1.66,1.66
405,7.12,5.46,7.03,5.38,-5.38,-1.92,1.74,1.65,1.66
409,6.99,5.33,6.85,5.21,-5.21,-1.80,1.78,1.64,1.66
413,6.70,5.04,6.68,5.03,-5.03,-1.69,1.67,1.65,1.66
417,6.43,4.77,6.50,4.84,-4.84,-1.58,1.59,1.66,1.66
421,6.29,4.62,6.31,4.65,-4.65,-1.47,1.64,1.67,1.67
425,6.17,4.49,6.13,4.44,-4.44,-1.37,1.73,1.69,1.68
430,5.90,4.20,5.94,4.23,-4.23,-1.25,1.67,1.71,1.70
434,5.72,3.99,5.73,4.00,-4.00,-1.15,1.72,1.73,1.73
438,5.48,3.72,5.53,3.78,-3.78,-1.06,1.70,1.75,1.76
443,5.25,3.45,5.34,3.55,-3.55,-0.94,1.70,1.79,1.80
447,5.19,3.35,5.15,3.31,-3.31,-0.85,1.88,1.83,1.84
451,5.03,3.14,4.97,3.07,-3.07,-0.77,1.96,1.89,1.89
456,4.72,2.77,4.79,2.83,-2.83,-0.67,1.89,1.96,1.95
460,4.61,2.61,4.60,2.59,-2.59,-0.59,2.02,2.02,2.00
465,4.37,2.31,4.39,2.34,-2.34,-0.49,2.03,2.05,2.06
470,4.12,2.00,4.19,2.09,-2.09,-0.40,2.03,2.10,2.12
474,4.11,1.93,4.00,1.84,-1.84,-0.33,2.27,2.16,2.18
479,3.94,1.71,3.80,1.59,-1.59,-0.24,2.35,2.21,2.23
484,3.64,1.35,3.60,1.34,-1.34,-0.16,2.30,2.26,2.29
489,3.38,1.05,3.40,1.09,-1.09,-0.08,2.29,2.31,2.33
494,3.17,0.80,3.18,0.84,-0.84,-0.01,2.33,2.34,2.37
499,2.85,0.44,2.97,0.60,-0.60,0.06,2.25,2.37,2.41
504,2.57,0.13,2.76,0.35,-0.35,0.13,2.22,2.41,2.44
509,2.48,0.03,2.53,0.11,-0.11,0.20,2.37,2.42,2.45
514,2.40,-0.07,2.30,-0.13,0.13,0.26,2.53,2.43,2.46
519,2.16,-0.31,2.06,-0.38,0.38,0.32,2.54,2.44,2.47
524,1.86,-0.60,1.80,-0.63,0.63,0.38,2.49,2.43,2.46
529,1.64,-0.81,1.55,-0.87,0.87,0.43,2.51,2.42,2.45
535,1.30,-1.13,1.29,-1.13,1.13,0.50,2.43,2.42,2.43
540,0.99,-1.41,1.01,-1.38,1.38,0.55,2.37,2.40,2.40
545,0.77,-1.60,0.72,-1.65,1.65,0.60,2.42,2.37,2.37
551,0.45,-1.88,0.42,-1.92,1.92,0.66,2.37,2.34,2.33
556,0.10,-2.20,0.13,-2.19,2.19,0.71,2.29,2.31,2.30
562,-0.17,-2.44,-0.19,-2.46,2.46,0.76,2.29,2.27,2.27
568,-0.47,-2.71,-0.50,-2.74,2.74,0.81,2.27,2.24,2.24
573,-0.82,-3.04,-0.80,-3.01,3.01,0.86,2.19,2.22,2.22
579,-1.15,-3.35,-1.09,-3.29,3.29,0.91,2.14,2.20,2.20
585,-1.42,-3.61,-1.37,-3.56,3.56,0.96,2.14,2.18,2.19
591,-1.73,-3.91,-1.63,-3.82,3.82,1.01,2.09,2.18,2.18
596,-1.90,-4.08,-1.89,-4.07,4.07,1.05,2.17,2.18,2.18
602,-2.04,-4.23,-2.13,-4.31,4.31,1.10,2.27,2.18,2.19
608,-2.22,-4.43,-2.34,-4.55,4.55,1.15,2.33,2.20,2.21
615,-2.65,-4.88,-2.55,-4.77,4.77,1.21,2.12,2.23,2.23
621,-2.81,-5.07,-2.73,-4.99,4.99,1.26,2.18,2.26,2.26
627,-2.97,-5.27,-2.90,-5.20,5.20,1.31,2.23,2.29,2.30
633,-3.08,-5.42,-3.06,-5.39,5.39,1.36,2.31,2.34,2.34
639,-3.17,-5.55,-3.20,-5.59,5.59,1.41,2.42,2.39,2.38
646,-3.30,-5.73,-3.33,-5.77,5.76,1.47,2.46,2.43,2.43
652,-3.50,-5.98,-3.46,-5.95,5.86,1.52,2.36,2.40,2.48
659,-3.56,-6.09,-3.61,-6.13,5.93,1.58,2.37,2.32,2.53
665,-3.66,-6.24,-3.74,-6.30,5.96,1.64,2.30,2.23,2.58
672,-3.84,-6.48,-3.84,-6.47,5.99,1.70,2.15,2.15,2.64
679,-3.91,-6.59,-3.94,-6.63,6.00,1.77,2.09,2.06,2.68
686,-4.03,-6.76,-4.06,-6.78,6.00,1.83,1.97,1.94,2.73
692,-4.15,-6.92,-4.17,-6.92,6.00,1.89,1.85,1.83,2.77
699,-4.26,-7.06,-4.28,-7.06,6.00,1.96,1.74,1.72,2.80
706,-4.37,-7.19,-4.39,-7.18,6.00,2.03,1.63,1.61,2.82
713,-4.65,-7.48,-4.49,-7.29,6.00,2.10,1.35,1.51,2.83
721,-4.57,-7.41,-4.57,-7.38,6.00,2.18,1.43,1.43,2.84
728,-4.46,-7.31,-4.64,-7.46,6.00,2.25,1.54,1.36,2.85
735,-4.65,-7.50,-4.69,-7.52,6.00,2.32,1.35,1.31,2.85
742,-4.87,-7.72,-4.72,-7.56,6.00,2.40,1.13,1.28,2.85
750,-4.78,-7.63,-4.74,-7.58,6.00,2.48,1.22,1.26,2.85
757,-4.71,-7.56,-4.73,-7.58,6.00,2.56,1.29,1.27,2.85
765,-4.83,-7.68,-4.71,-7.56,6.00,2.64,1.17,1.29,2.85
773,-4.76,-7.62,-4.67,-7.53,6.00,2.73,1.24,1.33,2.86
780,-4.49,-7.36,-4.61,-7.47,6.00,2.81,1.51,1.39,2.87
788,-4.45,-7.33,-4.54,-7.41,6.00,2.90,1.55,1.46,2.88
796,-4.46,-7.35,-4.45,-7.32,6.00,2.99,1.54,1.55,2.89
804,-4.34,-7.25,-4.33,-7.22,6.00,3.07,1.66,1.67,2.91
812,-4.19,-7.12,-4.19,-7.10,6.00,3.16,1.81,1.81,2.93
820,-4.05,-6.99,-4.04,-6.97,6.00,3.25,1.95,1.96,2.94
828,-3.94,-6.90,-3.89,-6.83,6.00,3.33,2.06,2.11,2.96
837,-3.78,-6.75,-3.72,-6.68,6.00,3.43,2.22,2.28,2.97
845,-3.60,-6.59,-3.55,-6.53,6.00,3.51,2.40,2.45,2.99
853,-3.42,-6.42,-3.38,-6.36,6.00,3.59,2.58,2.62,3.00
862,-3.08,-6.09,-3.20,-6.19,5.96,3.68,2.88,2.76,3.01
871,-2.87,-5.88,-3.01,-6.01,5.88,3.77,3.01,2.87,3.01
879,-2.80,-5.82,-2.81,-5.83,5.77,3.84,2.97,2.96,3.02
888,-2.63,-5.65,-2.61,-5.64,5.61,3.92,2.98,3.00,3.02
897,-2.39,-5.42,-2.41,-5.45,5.44,3.99,3.05,3.03,3.03
906,-2.24,-5.27,-2.22,-5.26,5.26,4.06,3.02,3.04,3.03
915,-2.01,-5.05,-2.02,-5.06,5.06,4.13,3.05,3.04,3.04
924,-1.83,-4.88,-1.82,-4.86,4.86,4.18,3.03,3.05,3.05
933,-1.65,-4.70,-1.61,-4.66,4.66,4.24,3.01,3.05,3.05
943,-1.37,-4.43,-1.39,-4.45,4.45,4.29,3.08,3.05,3.06
952,-1.20,-4.27,-1.18,-4.23,4.23,4.32,3.03,3.05,3.07
962,-0.98,-4.06,-0.95,-4.01,4.01,4.36,3.03,3.06,3.08
971,-0.71,-3.80,-0.71,-3.78,3.78,4.38,3.07,3.07,3.09
981,-0.53,-3.64,-0.46,-3.55,3.55,4.40,3.02,3.09,3.11
991,-0.27,-3.39,-0.21,-3.32,3.32,4.41,3.05,3.11,3.12
1001,0.03,-3.11,0.04,-3.08,3.08,4.42,3.11,3.12,3.14
1011,0.35,-2.81,0.30,-2.86,2.86,4.41,3.21,3.16,3.16
1021,0.56,-2.63,0.56,-2.64,2.64,4.40,3.20,3.21,3.19
1031,0.70,-2.51,0.80,-2.45,2.45,4.38,3.15,3.25,3.21
1041,0.96,-2.28,1.00,-2.26,2.26,4.35,3.22,3.27,3.24
1052,1.25,-2.01,1.21,-2.10,2.10,4.31,3.35,3.31,3.26
1062,1.48,-1.81,1.39,-1.96,1.96,4.27,3.44,3.34,3.29
1073,1.71,-1.61,1.50,-1.84,1.84,4.22,3.55,3.34,3.32
1084,1.69,-1.66,1.58,-1.74,1.74,4.16,3.43,3.32,3.35
1094,1.82,-1.56,1.66,-1.66,1.66,4.10,3.48,3.32,3.38
1105,2.02,-1.39,1.76,-1.60,1.60,4.03,3.62,3.36,3.41
1116,1.85,-1.60,1.85,-1.56,1.56,3.96,3.41,3.41,3.45
1128,1.70,-1.78,1.95,-1.53,1.53,3.88,3.23,3.49,3.48
1139,1.76,-1.76,2.04,-1.51,1.51,3.80,3.27,3.55,3.52
1150,2.04,-1.51,2.08,-1.48,1.48,3.72,3.52,3.56,3.55
1162,1.79,-1.80,2.13,-1.43,1.43,3.63,3.22,3.56,3.59
1173,1.83,-1.79,2.18,-1.38,1.38,3.55,3.21,3.56,3.62
1185,2.39,-1.27,2.24,-1.31,1.31,3.45,3.70,3.55,3.66
1197,3.00,-0.70,2.32,-1.22,1.22,3.36,4.22,3.54,3.70
1209,2.87,-0.86,2.44,-1.11,1.11,3.27,3.98,3.55,3.73
1221,2.67,-1.10,2.62,-0.98,0.98,3.17,3.65,3.60,3.77
1233,2.79,-1.01,2.87,-0.84,0.84,3.08,3.63,3.71,3.80
1246,2.54,-1.29,3.11,-0.69,0.69,2.98,3.23,3.80,3.83
1258,2.64,-1.22,3.31,-0.54,0.54,2.89,3.18,3.85,3.86
1271,3.30,-0.58,3.50,-0.38,0.38,2.80,3.68,3.89,3.88
1283,3.45,-0.44,3.66,-0.24,0.24,2.71,3.69,3.90,3.89
1296,3.74,-0.15,3.75,-0.10,0.10,2.62,3.84,3.86,3.89
1309,4.30,0.41,3.82,0.01,-0.01,2.52,4.29,3.81,3.89
1322,4.72,0.83,3.88,0.10,-0.10,2.43,4.62,3.78,3.89
1335,4.75,0.87,3.99,0.17,-0.17,2.35,4.58,3.81,3.88
1349,4.44,0.58,4.08,0.22,-0.22,2.25,4.22,3.86,3.86
1362,3.89,0.05,4.12,0.26,-0.26,2.17,3.63,3.86,3.84
1376,3.68,-0.14,4.13,0.29,-0.29,2.08,3.39,3.85,3.82
1390,3.82,0.02,4.11,0.32,-0.32,2.00,3.50,3.79,3.80
1404,3.57,-0.21,4.08,0.37,-0.37,1.91,3.20,3.71,3.78
1418,3.87,0.11,4.08,0.43,-0.43,1.83,3.44,3.65,3.76
1432,4.18,0.43,4.11,0.52,-0.52,1.75,3.66,3.59,3.75
1446,4.25,0.51,4.18,0.62,-0.62,1.67,3.63,3.56,3.74
1461,4.44,0.70,4.33,0.75,-0.75,1.59,3.69,3.58,3.74
1475,4.34,0.60,4.53,0.89,-0.89,1.52,3.45,3.63,3.74
1490,4.37,0.63,4.76,1.05,-1.05,1.45,3.32,3.71,3.74
1505,4.80,1.05,4.99,1.20,-1.20,1.37,3.60,3.79,3.75
1520,5.21,1.45,5.17,1.33,-1.33,1.30,3.88,3.84,3.76
1535,5.47,1.70,5.29,1.44,-1.44,1.23,4.03,3.85,3.77
1550,5.61,1.82,5.38,1.51,-1.51,1.17,4.10,3.87,3.79
1566,5.83,2.03,5.41,1.53,-1.53,1.10,4.30,3.88,3.80
1582,5.76,1.93,5.39,1.50,-1.50,1.03,4.26,3.88,3.82
1597,5.52,1.67,5.33,1.41,-1.41,0.97,4.11,3.91,3.85
1613,5.24,1.36,5.22,1.27,-1.27,0.91,3.97,3.95,3.88
1629,5.03,1.11,5.07,1.06,-1.06,0.85,3.97,4.00,3.92
1646,4.77,0.82,4.85,0.82,-0.82,0.79,3.95,4.03,3.95
1662,4.41,0.41,4.57,0.54,-0.54,0.73,3.87,4.03,4.00
1679,4.19,0.14,4.28,0.24,-0.24,0.67,3.95,4.04,4.05
1696,4.00,-0.11,3.99,-0.07,0.07,0.62,4.07,4.07,4.11
1713,3.70,-0.47,3.72,-0.39,0.39,0.57,4.09,4.10,4.17
1730,3.35,-0.90,3.45,-0.69,0.69,0.52,4.04,4.14,4.25
1747,3.21,-1.12,3.23,-0.99,0.99,0.48,4.20,4.21,4.33
1764,3.03,-1.39,3.03,-1.26,1.26,0.44,4.29,4.29,4.42
1782,2.79,-1.73,2.86,-1.52,1.52,0.40,4.31,4.38,4.52
1800,2.63,-1.99,2.70,-1.75,1.75,0.36,4.38,4.45,4.62
1818,2.55,-2.17,2.58,-1.95,1.95,0.33,4.50,4.53,4.72
1836,2.48,-2.35,2.48,-2.13,2.13,0.30,4.61,4.61,4.83
1854,2.41,-2.53,2.40,-2.29,2.29,0.27,4.70,4.69,4.94
1873,2.36,-2.69,2.34,-2.42,2.42,0.25,4.78,4.76,5.05
1892,2.35,-2.82,2.31,-2.53,2.53,0.23,4.88,4.85,5.17
1911,2.37,-2.91,2.31,-2.62,2.62,0.21,4.99,4.93,5.28
1930,2.36,-3.03,2.32,-2.69,2.69,0.20,5.05,5.02,5.39
1949,2.35,-3.16,2.37,-2.75,2.75,0.19,5.09,5.12,5.51
1969,2.43,-3.19,2.45,-2.77,2.77,0.19,5.20,5.22,5.62
1988,2.52,-3.20,2.53,-2.78,2.78,0.19,5.30,5.31,5.72
2008,2.63,-3.20,2.65,-2.77,2.77,0.20,5.40,5.42,5.83
2028,2.75,-3.18,2.79,-2.74,2.74,0.21,5.49,5.53,5.93
2048,2.90,-3.13,2.97,-2.68,2.68,0.22,5.58,5.65,6.03
2069,3.12,-3.02,3.18,-2.61,2.61,0.24,5.73,5.79,6.14
2090,3.42,-2.83,3.41,-2.53,2.53,0.27,5.95,5.94,6.25
2111,3.67,-2.69,3.68,-2.43,2.43,0.29,6.10,6.11,6.36
