frequency,raw,smoothed,error,error_smoothed,equalization,parametric_eq,fixed_band_eq,equalized_raw,equalized_smoothed,target
20.00,-2.09,-2.09,-4.49,-4.49,4.49,4.52,2.01,2.40,2.40,2.40
20.20,-2.08,-2.08,-4.51,-4.51,4.51,4.52,2.07,2.43,2.43,2.43
20.40,-2.07,-2.07,-4.53,-4.53,4.53,4.51,2.13,2.46,2.46,2.46
20.61,-2.06,-2.06,-4.54,-4.54,4.55,4.50,2.19,2.48,2.49,2.48
20.81,-2.05,-2.05,-4.56,-4.56,4.56,4.50,2.26,2.51,2.51,2.51
21.02,-2.04,-2.04,-4.58,-4.57,4.57,4.49,2.32,2.53,2.52,2.54
21.23,-2.03,-2.03,-4.58,-4.58,4.57,4.49,2.39,2.54,2.54,2.55
21.44,-2.02,-2.02,-4.58,-4.58,4.57,4.48,2.46,2.55,2.56,2.56
21.66,-2.00,-2.00,-4.57,-4.57,4.57,4.47,2.53,2.57,2.57,2.57
21.87,-1.99,-1.99,-4.56,-4.56,4.56,4.47,2.61,2.57,2.57,2.57
22.09,-1.98,-1.98,-4.56,-4.55,4.55,4.46,2.68,2.57,2.57,2.57
22.31,-1.97,-1.97,-4.54,-4.54,4.54,4.45,2.76,2.57,2.57,2.57
22.54,-1.95,-1.95,-4.52,-4.53,4.52,4.45,2.84,2.57,2.57,2.57
22.76,-1.94,-1.94,-4.51,-4.51,4.51,4.44,2.92,2.57,2.57,2.57
22.99,-1.93,-1.93,-4.49,-4.50,4.50,4.43,3.01,2.57,2.57,2.56
23.22,-1.92,-1.92,-4.48,-4.49,4.49,4.43,3.09,2.57,2.57,2.56
23.45,-1.92,-1.92,-4.48,-4.48,4.48,4.42,3.18,2.56,2.56,2.56
23.69,-1.91,-1.91,-4.47,-4.47,4.47,4.41,3.27,2.56,2.56,2.56
23.92,-1.90,-1.90,-4.46,-4.47,4.47,4.40,3.36,2.57,2.56,2.56
24.16,-1.90,-1.90,-4.47,-4.46,4.46,4.40,3.46,2.56,2.56,2.57
24.40,-1.90,-1.90,-4.47,-4.46,4.46,4.39,3.55,2.56,2.56,2.57
24.65,-1.90,-1.90,-4.46,-4.46,4.46,4.38,3.65,2.56,2.56,2.56
24.89,-1.90,-1.90,-4.46,-4.46,4.46,4.37,3.75,2.56,2.56,2.56
25.14,-1.90,-1.90,-4.45,-4.45,4.45,4.36,3.84,2.55,2.55,2.55
25.39,-1.89,-1.89,-4.44,-4.45,4.45,4.36,3.94,2.56,2.55,2.55
25.65,-1.89,-1.89,-4.44,-4.44,4.44,4.35,4.04,2.55,2.55,2.55
25.91,-1.89,-1.89,-4.43,-4.43,4.43,4.34,4.14,2.54,2.54,2.54
26.16,-1.88,-1.88,-4.42,-4.42,4.42,4.33,4.24,2.54,2.54,2.54
26.43,-1.87,-1.87,-4.41,-4.41,4.41,4.32,4.34,2.54,2.54,2.54
26.69,-1.86,-1.86,-4.40,-4.40,4.40,4.31,4.44,2.54,2.54,2.54
26.96,-1.85,-1.85,-4.39,-4.39,4.39,4.30,4.53,2.54,2.54,2.54
27.23,-1.84,-1.84,-4.38,-4.38,4.38,4.30,4.62,2.54,2.54,2.54
27.50,-1.84,-1.84,-4.37,-4.37,4.37,4.29,4.72,2.53,2.53,2.53
27.77,-1.84,-1.84,-4.36,-4.37,4.36,4.28,4.80,2.52,2.52,2.52
28.05,-1.84,-1.84,-4.36,-4.36,4.36,4.27,4.89,2.52,2.52,2.52
28.33,-1.84,-1.84,-4.35,-4.35,4.35,4.26,4.97,2.51,2.51,2.51
28.62,-1.84,-1.84,-4.35,-4.34,4.34,4.25,5.04,2.50,2.51,2.51
28.90,-1.83,-1.83,-4.34,-4.34,4.34,4.24,5.11,2.51,2.50,2.51
29.19,-1.83,-1.83,-4.33,-4.33,4.33,4.23,5.18,2.50,2.50,2.49
29.48,-1.83,-1.83,-4.33,-4.33,4.33,4.22,5.23,2.50,2.50,2.50
29.78,-1.83,-1.83,-4.32,-4.33,4.33,4.21,5.29,2.50,2.49,2.49
30.08,-1.84,-1.84,-4.33,-4.33,4.33,4.20,5.33,2.48,2.49,2.49
30.38,-1.84,-1.84,-4.32,-4.32,4.32,4.18,5.36,2.48,2.48,2.48
30.68,-1.85,-1.85,-4.33,-4.32,4.32,4.17,5.39,2.47,2.47,2.48
30.99,-1.86,-1.86,-4.32,-4.32,4.32,4.16,5.41,2.46,2.47,2.46
31.30,-1.86,-1.86,-4.32,-4.33,4.32,4.15,5.42,2.46,2.46,2.46
31.61,-1.87,-1.87,-4.33,-4.32,4.32,4.14,5.42,2.45,2.45,2.46
31.93,-1.87,-1.87,-4.32,-4.32,4.32,4.13,5.42,2.45,2.45,2.45
32.24,-1.88,-1.88,-4.31,-4.32,4.32,4.12,5.41,2.44,2.44,2.43
32.57,-1.88,-1.88,-4.31,-4.31,4.32,4.10,5.38,2.44,2.44,2.43
32.89,-1.88,-1.88,-4.31,-4.31,4.32,4.09,5.36,2.44,2.43,2.43
33.22,-1.89,-1.89,-4.31,-4.31,4.31,4.08,5.32,2.42,2.42,2.42
33.55,-1.90,-1.90,-4.31,-4.31,4.31,4.07,5.28,2.41,2.40,2.41
33.89,-1.91,-1.91,-4.31,-4.31,4.30,4.05,5.23,2.39,2.39,2.40
34.23,-1.91,-1.91,-4.31,-4.30,4.29,4.04,5.17,2.38,2.38,2.40
34.57,-1.90,-1.90,-4.29,-4.29,4.28,4.03,5.11,2.38,2.38,2.38
34.92,-1.89,-1.89,-4.26,-4.27,4.28,4.01,5.05,2.39,2.38,2.37
35.27,-1.89,-1.89,-4.26,-4.26,4.27,4.00,4.98,2.38,2.38,2.37
35.62,-1.90,-1.90,-4.26,-4.25,4.26,3.99,4.91,2.36,2.37,2.35
35.97,-1.91,-1.91,-4.25,-4.25,4.26,3.97,4.84,2.35,2.35,2.34
36.33,-1.92,-1.92,-4.26,-4.26,4.25,3.96,4.76,2.33,2.33,2.34
36.70,-1.93,-1.93,-4.25,-4.25,4.25,3.94,4.69,2.32,2.31,2.32
37.06,-1.94,-1.93,-4.25,-4.25,4.24,3.93,4.61,2.30,2.31,2.31
37.43,-1.93,-1.93,-4.24,-4.23,4.23,3.91,4.53,2.30,2.30,2.30
37.81,-1.92,-1.93,-4.21,-4.22,4.22,3.90,4.45,2.30,2.29,2.29
38.19,-1.92,-1.92,-4.20,-4.20,4.20,3.88,4.37,2.28,2.28,2.28
38.57,-1.91,-1.91,-4.18,-4.18,4.18,3.87,4.29,2.27,2.27,2.27
38.95,-1.90,-1.90,-4.16,-4.16,4.16,3.85,4.21,2.26,2.25,2.26
39.34,-1.89,-1.89,-4.13,-4.13,4.13,3.83,4.14,2.24,2.24,2.24
39.74,-1.88,-1.88,-4.11,-4.11,4.10,3.82,4.06,2.22,2.22,2.23
40.14,-1.86,-1.86,-4.08,-4.08,4.08,3.80,3.99,2.22,2.22,2.22
40.54,-1.84,-1.84,-4.05,-4.05,4.05,3.78,3.92,2.21,2.21,2.21
40.94,-1.81,-1.82,-4.01,-4.01,4.03,3.77,3.85,2.22,2.21,2.20
41.35,-1.80,-1.80,-3.98,-3.99,4.00,3.75,3.78,2.20,2.20,2.18
41.76,-1.79,-1.79,-3.97,-3.97,3.98,3.73,3.72,2.18,2.19,2.18
42.18,-1.78,-1.78,-3.95,-3.95,3.94,3.71,3.65,2.16,2.16,2.17
42.60,-1.77,-1.77,-3.92,-3.93,3.91,3.69,3.59,2.13,2.13,2.15
43.03,-1.76,-1.75,-3.91,-3.89,3.86,3.67,3.54,2.10,2.12,2.15
43.46,-1.71,-1.72,-3.84,-3.84,3.82,3.65,3.48,2.11,2.11,2.13
43.90,-1.67,-1.67,-3.77,-3.78,3.78,3.63,3.43,2.11,2.11,2.10
44.33,-1.63,-1.63,-3.71,-3.71,3.74,3.61,3.38,2.11,2.11,2.08
44.78,-1.59,-1.60,-3.66,-3.66,3.69,3.59,3.33,2.10,2.10,2.07
45.23,-1.58,-1.59,-3.63,-3.63,3.66,3.57,3.29,2.07,2.07,2.05
45.68,-1.59,-1.58,-3.62,-3.61,3.62,3.55,3.25,2.03,2.04,2.03
46.13,-1.59,-1.59,-3.60,-3.60,3.59,3.53,3.21,2.00,2.00,2.01
46.60,-1.58,-1.58,-3.58,-3.58,3.56,3.51,3.17,1.98,1.98,2.00
47.06,-1.57,-1.57,-3.55,-3.55,3.54,3.48,3.14,1.97,1.97,1.98
47.53,-1.55,-1.55,-3.51,-3.52,3.51,3.46,3.10,1.96,1.96,1.96
48.01,-1.53,-1.54,-3.48,-3.48,3.48,3.44,3.07,1.95,1.95,1.95
48.49,-1.53,-1.53,-3.45,-3.45,3.45,3.41,3.05,1.92,1.92,1.92
48.97,-1.53,-1.53,-3.42,-3.42,3.43,3.39,3.02,1.90,1.90,1.89
49.46,-1.53,-1.53,-3.39,-3.39,3.40,3.36,3.00,1.87,1.87,1.86
49.96,-1.53,-1.53,-3.36,-3.36,3.37,3.33,2.98,1.84,1.84,1.83
50.46,-1.53,-1.53,-3.35,-3.34,3.35,3.31,2.96,1.82,1.81,1.81
50.96,-1.54,-1.54,-3.33,-3.33,3.32,3.28,2.94,1.78,1.78,1.79
51.47,-1.54,-1.54,-3.30,-3.31,3.29,3.25,2.92,1.75,1.75,1.76
51.99,-1.54,-1.53,-3.28,-3.27,3.25,3.22,2.91,1.71,1.72,1.74
52.51,-1.51,-1.51,-3.23,-3.23,3.22,3.19,2.90,1.70,1.70,1.72
53.03,-1.48,-1.48,-3.18,-3.17,3.17,3.16,2.88,1.69,1.70,1.70
53.56,-1.44,-1.45,-3.11,-3.12,3.13,3.13,2.87,1.69,1.68,1.67
54.10,-1.42,-1.43,-3.07,-3.08,3.09,3.09,2.86,1.67,1.66,1.65
54.64,-1.43,-1.42,-3.05,-3.04,3.05,3.06,2.85,1.62,1.63,1.62
55.18,-1.42,-1.41,-3.01,-3.00,3.02,3.02,2.83,1.60,1.61,1.59
55.74,-1.39,-1.40,-2.96,-2.97,2.98,2.99,2.82,1.59,1.58,1.57
56.29,-1.39,-1.40,-2.94,-2.94,2.95,2.95,2.81,1.56,1.55,1.55
56.86,-1.41,-1.40,-2.93,-2.92,2.92,2.91,2.80,1.51,1.51,1.52
57.42,-1.40,-1.40,-2.89,-2.90,2.88,2.87,2.78,1.47,1.47,1.49
58.00,-1.39,-1.38,-2.86,-2.85,2.83,2.83,2.77,1.44,1.45,1.47
58.58,-1.34,-1.34,-2.79,-2.79,2.78,2.78,2.75,1.44,1.44,1.45
59.16,-1.29,-1.29,-2.72,-2.73,2.72,2.74,2.74,1.43,1.43,1.43
59.76,-1.24,-1.24,-2.65,-2.65,2.67,2.69,2.72,1.43,1.42,1.41
60.35,-1.21,-1.21,-2.59,-2.59,2.62,2.65,2.70,1.41,1.41,1.38
60.96,-1.18,-1.18,-2.54,-2.53,2.56,2.60,2.67,1.38,1.38,1.36
61.57,-1.17,-1.17,-2.49,-2.49,2.51,2.55,2.65,1.34,1.34,1.31
62.18,-1.17,-1.18,-2.45,-2.46,2.46,2.49,2.62,1.29,1.29,1.28
62.80,-1.19,-1.19,-2.45,-2.44,2.41,2.44,2.60,1.22,1.23,1.26
63.43,-1.18,-1.18,-2.40,-2.40,2.36,2.39,2.56,1.18,1.19,1.22
64.07,-1.16,-1.14,-2.36,-2.34,2.31,2.34,2.53,1.15,1.17,1.20
64.71,-1.08,-1.09,-2.25,-2.26,2.26,2.29,2.50,1.18,1.16,1.17
65.35,-1.03,-1.05,-2.17,-2.19,2.20,2.23,2.46,1.17,1.16,1.14
66.01,-1.02,-1.01,-2.13,-2.12,2.15,2.18,2.42,1.13,1.14,1.11
66.67,-0.99,-0.99,-2.07,-2.08,2.09,2.14,2.38,1.10,1.10,1.08
67.33,-0.98,-0.98,-2.04,-2.04,2.05,2.09,2.34,1.07,1.06,1.05
68.01,-0.98,-0.98,-2.00,-2.00,2.01,2.05,2.29,1.03,1.03,1.02
68.69,-0.98,-0.98,-1.97,-1.98,1.97,2.01,2.24,0.99,0.99,0.99
69.37,-0.99,-0.99,-1.95,-1.95,1.95,1.98,2.20,0.96,0.96,0.96
70.07,-1.00,-1.00,-1.93,-1.93,1.92,1.95,2.15,0.92,0.92,0.93
70.77,-1.00,-1.00,-1.90,-1.90,1.89,1.92,2.10,0.89,0.89,0.90
71.48,-1.00,-1.00,-1.87,-1.87,1.86,1.90,2.05,0.86,0.86,0.87
72.19,-1.00,-1.00,-1.84,-1.84,1.83,1.87,2.00,0.83,0.83,0.83
72.91,-1.00,-1.00,-1.80,-1.80,1.80,1.85,1.94,0.80,0.80,0.80
73.64,-1.00,-1.00,-1.76,-1.76,1.76,1.83,1.89,0.76,0.76,0.76
74.38,-1.00,-1.00,-1.73,-1.73,1.73,1.80,1.84,0.73,0.73,0.73
75.12,-1.00,-1.00,-1.70,-1.70,1.70,1.78,1.79,0.70,0.70,0.70
75.87,-1.00,-1.00,-1.67,-1.67,1.67,1.76,1.73,0.67,0.68,0.67
76.63,-1.00,-1.00,-1.64,-1.63,1.65,1.73,1.68,0.65,0.65,0.64
77.40,-1.01,-1.02,-1.62,-1.62,1.64,1.71,1.63,0.63,0.62,0.60
78.17,-1.04,-1.05,-1.60,-1.62,1.62,1.68,1.57,0.58,0.58,0.56
78.95,-1.09,-1.08,-1.63,-1.62,1.61,1.65,1.52,0.52,0.53,0.54
79.74,-1.11,-1.11,-1.62,-1.62,1.59,1.62,1.47,0.48,0.48,0.51
80.54,-1.12,-1.12,-1.59,-1.60,1.57,1.59,1.42,0.45,0.45,0.47
81.35,-1.13,-1.12,-1.57,-1.56,1.55,1.56,1.37,0.42,0.43,0.44
82.16,-1.11,-1.12,-1.51,-1.52,1.52,1.52,1.32,0.41,0.41,0.40
82.98,-1.11,-1.11,-1.49,-1.48,1.49,1.49,1.27,0.38,0.38,0.38
83.81,-1.11,-1.11,-1.44,-1.44,1.45,1.45,1.22,0.34,0.34,0.33
84.65,-1.11,-1.11,-1.40,-1.41,1.41,1.41,1.17,0.30,0.30,0.29
85.50,-1.11,-1.11,-1.37,-1.37,1.37,1.37,1.13,0.26,0.26,0.26
86.35,-1.11,-1.11,-1.33,-1.33,1.33,1.33,1.08,0.22,0.22,0.22
87.22,-1.11,-1.11,-1.29,-1.29,1.29,1.29,1.03,0.18,0.19,0.18
88.09,-1.10,-1.11,-1.24,-1.26,1.26,1.24,0.99,0.16,0.15,0.14
88.97,-1.11,-1.11,-1.22,-1.22,1.22,1.20,0.95,0.11,0.11,0.11
89.86,-1.12,-1.12,-1.19,-1.18,1.18,1.15,0.90,0.06,0.06,0.07
90.76,-1.12,-1.12,-1.14,-1.15,1.14,1.11,0.86,0.02,0.02,0.02
91.66,-1.12,-1.12,-1.11,-1.10,1.10,1.06,0.82,-0.02,-0.02,-0.01
92.58,-1.12,-1.12,-1.05,-1.06,1.06,1.01,0.78,-0.06,-0.06,-0.07
93.51,-1.12,-1.12,-1.02,-1.02,1.02,0.96,0.74,-0.10,-0.10,-0.10
94.44,-1.12,-1.12,-0.98,-0.97,0.98,0.91,0.70,-0.14,-0.14,-0.14
95.39,-1.12,-1.13,-0.93,-0.93,0.94,0.86,0.66,-0.18,-0.19,-0.19
96.34,-1.13,-1.14,-0.89,-0.90,0.90,0.81,0.62,-0.23,-0.24,-0.24
97.30,-1.16,-1.15,-0.87,-0.86,0.86,0.76,0.58,-0.30,-0.29,-0.29
98.28,-1.16,-1.16,-0.83,-0.82,0.82,0.71,0.54,-0.34,-0.34,-0.33
99.26,-1.16,-1.17,-0.78,-0.79,0.78,0.66,0.51,-0.38,-0.38,-0.38
100.25,-1.17,-1.17,-0.74,-0.75,0.75,0.61,0.47,-0.42,-0.43,-0.43
101.25,-1.19,-1.19,-0.72,-0.71,0.72,0.56,0.43,-0.47,-0.47,-0.47
102.27,-1.20,-1.20,-0.68,-0.68,0.68,0.51,0.40,-0.52,-0.51,-0.52
103.29,-1.21,-1.21,-0.64,-0.65,0.65,0.45,0.36,-0.56,-0.56,-0.57
104.32,-1.23,-1.23,-0.62,-0.62,0.62,0.40,0.33,-0.61,-0.61,-0.61
105.37,-1.26,-1.26,-0.60,-0.60,0.60,0.35,0.29,-0.66,-0.66,-0.66
106.42,-1.28,-1.28,-0.58,-0.58,0.57,0.30,0.26,-0.71,-0.71,-0.70
107.48,-1.30,-1.30,-0.55,-0.55,0.55,0.25,0.23,-0.76,-0.75,-0.75
108.56,-1.31,-1.31,-0.50,-0.51,0.52,0.19,0.20,-0.79,-0.80,-0.81
109.64,-1.33,-1.33,-0.48,-0.48,0.48,0.14,0.16,-0.85,-0.85,-0.85
110.74,-1.35,-1.35,-0.45,-0.45,0.45,0.09,0.13,-0.90,-0.91,-0.90
111.85,-1.37,-1.37,-0.43,-0.42,0.40,0.04,0.10,-0.97,-0.96,-0.94
112.97,-1.38,-1.37,-0.37,-0.37,0.36,-0.01,0.07,-1.02,-1.01,-1.01
114.10,-1.35,-1.37,-0.30,-0.31,0.31,-0.07,0.04,-1.04,-1.06,-1.05
115.24,-1.36,-1.36,-0.25,-0.25,0.25,-0.12,0.01,-1.11,-1.10,-1.11
116.39,-1.36,-1.35,-0.20,-0.19,0.20,-0.17,-0.02,-1.16,-1.16,-1.16
117.55,-1.35,-1.36,-0.13,-0.14,0.14,-0.22,-0.05,-1.21,-1.22,-1.22
118.73,-1.35,-1.35,-0.08,-0.08,0.08,-0.27,-0.08,-1.27,-1.27,-1.27
119.92,-1.34,-1.34,-0.03,-0.02,0.02,-0.32,-0.11,-1.32,-1.32,-1.31
121.12,-1.33,-1.33,0.04,0.04,-0.04,-0.37,-0.14,-1.37,-1.37,-1.37
122.33,-1.32,-1.32,0.10,0.09,-0.09,-0.41,-0.16,-1.41,-1.42,-1.42
123.55,-1.32,-1.31,0.14,0.15,-0.15,-0.46,-0.19,-1.47,-1.46,-1.46
124.79,-1.31,-1.31,0.20,0.20,-0.20,-0.51,-0.22,-1.51,-1.51,-1.51
126.03,-1.30,-1.31,0.26,0.25,-0.25,-0.56,-0.25,-1.55,-1.57,-1.56
127.29,-1.32,-1.31,0.29,0.30,-0.30,-0.60,-0.27,-1.63,-1.62,-1.61
128.57,-1.32,-1.31,0.35,0.35,-0.35,-0.65,-0.30,-1.67,-1.67,-1.67
129.85,-1.31,-1.32,0.41,0.41,-0.40,-0.69,-0.33,-1.71,-1.72,-1.72
131.15,-1.31,-1.31,0.46,0.45,-0.45,-0.74,-0.35,-1.76,-1.76,-1.77
132.46,-1.32,-1.32,0.50,0.50,-0.50,-0.78,-0.38,-1.82,-1.81,-1.82
133.79,-1.32,-1.32,0.53,0.54,-0.54,-0.83,-0.41,-1.86,-1.86,-1.85
135.12,-1.32,-1.32,0.59,0.58,-0.59,-0.87,-0.43,-1.91,-1.91,-1.91
136.48,-1.32,-1.32,0.62,0.63,-0.63,-0.91,-0.46,-1.95,-1.95,-1.94
137.84,-1.31,-1.32,0.68,0.68,-0.68,-0.95,-0.49,-1.99,-2.00,-1.99
139.22,-1.31,-1.31,0.73,0.73,-0.73,-0.99,-0.51,-2.04,-2.04,-2.04
140.61,-1.31,-1.30,0.77,0.78,-0.77,-1.03,-0.54,-2.08,-2.07,-2.08
142.02,-1.29,-1.29,0.82,0.82,-0.82,-1.07,-0.57,-2.11,-2.11,-2.11
143.44,-1.28,-1.29,0.87,0.86,-0.86,-1.11,-0.60,-2.14,-2.15,-2.15
144.87,-1.28,-1.28,0.91,0.91,-0.91,-1.15,-0.63,-2.19,-2.19,-2.19
146.32,-1.28,-1.27,0.95,0.95,-0.95,-1.18,-0.65,-2.23,-2.23,-2.23
147.78,-1.26,-1.27,1.00,0.99,-0.99,-1.22,-0.68,-2.26,-2.26,-2.26
149.26,-1.26,-1.26,1.03,1.04,-1.04,-1.25,-0.71,-2.30,-2.30,-2.29
150.75,-1.26,-1.26,1.08,1.08,-1.07,-1.29,-0.74,-2.34,-2.33,-2.34
152.26,-1.26,-1.26,1.12,1.12,-1.11,-1.32,-0.77,-2.37,-2.37,-2.38
153.78,-1.26,-1.26,1.15,1.15,-1.15,-1.36,-0.80,-2.41,-2.42,-2.41
155.32,-1.27,-1.27,1.19,1.18,-1.19,-1.39,-0.84,-2.46,-2.46,-2.46
156.88,-1.28,-1.28,1.21,1.22,-1.22,-1.42,-0.87,-2.50,-2.50,-2.49
158.44,-1.28,-1.28,1.25,1.26,-1.26,-1.45,-0.90,-2.54,-2.54,-2.54
160.03,-1.28,-1.28,1.30,1.30,-1.29,-1.48,-0.94,-2.57,-2.57,-2.58
161.63,-1.28,-1.29,1.34,1.33,-1.33,-1.51,-0.97,-2.61,-2.62,-2.62
163.24,-1.30,-1.30,1.36,1.36,-1.37,-1.54,-1.01,-2.67,-2.66,-2.66
164.88,-1.31,-1.30,1.38,1.39,-1.40,-1.57,-1.05,-2.71,-2.70,-2.69
166.53,-1.30,-1.30,1.43,1.43,-1.43,-1.59,-1.08,-2.74,-2.73,-2.73
168.19,-1.28,-1.29,1.49,1.48,-1.47,-1.62,-1.12,-2.75,-2.76,-2.77
169.87,-1.28,-1.29,1.52,1.52,-1.50,-1.64,-1.16,-2.78,-2.79,-2.80
171.57,-1.30,-1.30,1.54,1.54,-1.53,-1.67,-1.21,-2.83,-2.83,-2.84
173.29,-1.31,-1.31,1.57,1.56,-1.57,-1.69,-1.25,-2.88,-2.89,-2.88
175.02,-1.33,-1.33,1.58,1.59,-1.61,-1.72,-1.29,-2.94,-2.94,-2.91
176.77,-1.33,-1.32,1.63,1.63,-1.65,-1.74,-1.34,-2.98,-2.98,-2.96
178.54,-1.31,-1.31,1.69,1.69,-1.69,-1.76,-1.38,-3.00,-3.00,-3.00
180.32,-1.29,-1.29,1.74,1.74,-1.73,-1.79,-1.43,-3.02,-3.03,-3.04
182.13,-1.27,-1.28,1.80,1.79,-1.78,-1.81,-1.48,-3.05,-3.06,-3.07
183.95,-1.27,-1.27,1.84,1.84,-1.83,-1.83,-1.52,-3.10,-3.10,-3.11
185.79,-1.27,-1.27,1.87,1.88,-1.88,-1.85,-1.57,-3.15,-3.14,-3.14
187.65,-1.26,-1.26,1.92,1.92,-1.93,-1.87,-1.62,-3.19,-3.19,-3.18
189.52,-1.24,-1.25,1.97,1.97,-1.98,-1.88,-1.68,-3.22,-3.22,-3.21
191.42,-1.23,-1.23,2.01,2.02,-2.03,-1.90,-1.73,-3.26,-3.25,-3.24
193.33,-1.20,-1.20,2.07,2.07,-2.08,-1.92,-1.78,-3.28,-3.28,-3.27
195.27,-1.17,-1.17,2.13,2.13,-2.13,-1.94,-1.84,-3.30,-3.30,-3.30
197.22,-1.14,-1.14,2.19,2.19,-2.17,-1.95,-1.89,-3.31,-3.32,-3.33
199.19,-1.12,-1.12,2.24,2.23,-2.22,-1.97,-1.95,-3.34,-3.34,-3.36
201.18,-1.11,-1.11,2.27,2.27,-2.26,-1.99,-2.00,-3.37,-3.37,-3.38
203.19,-1.11,-1.11,2.29,2.29,-2.30,-2.00,-2.06,-3.41,-3.41,-3.40
205.23,-1.10,-1.10,2.32,2.32,-2.33,-2.01,-2.11,-3.43,-3.43,-3.42
207.28,-1.08,-1.08,2.35,2.35,-2.36,-2.03,-2.17,-3.44,-3.44,-3.43
209.35,-1.07,-1.07,2.38,2.38,-2.38,-2.04,-2.22,-3.45,-3.45,-3.45
211.44,-1.06,-1.06,2.41,2.40,-2.39,-2.06,-2.28,-3.45,-3.46,-3.48
213.56,-1.06,-1.06,2.42,2.42,-2.41,-2.07,-2.33,-3.47,-3.47,-3.48
215.69,-1.07,-1.07,2.41,2.42,-2.42,-2.08,-2.39,-3.49,-3.48,-3.48
217.85,-1.07,-1.08,2.42,2.42,-2.43,-2.09,-2.44,-3.50,-3.50,-3.50
220.03,-1.08,-1.08,2.43,2.43,-2.43,-2.10,-2.49,-3.51,-3.51,-3.51
222.23,-1.08,-1.08,2.44,2.44,-2.44,-2.12,-2.54,-3.52,-3.52,-3.52
224.45,-1.06,-1.07,2.45,2.45,-2.45,-2.13,-2.59,-3.51,-3.52,-3.51
226.70,-1.06,-1.05,2.45,2.46,-2.46,-2.14,-2.63,-3.53,-3.52,-3.51
228.96,-1.03,-1.04,2.48,2.47,-2.48,-2.15,-2.68,-3.51,-3.52,-3.51
231.25,-1.02,-1.01,2.48,2.49,-2.50,-2.16,-2.72,-3.52,-3.51,-3.50
233.57,-0.99,-0.98,2.51,2.52,-2.52,-2.16,-2.75,-3.51,-3.50,-3.50
235.90,-0.94,-0.95,2.56,2.55,-2.54,-2.17,-2.79,-3.48,-3.49,-3.50
238.26,-0.93,-0.93,2.57,2.57,-2.56,-2.18,-2.82,-3.49,-3.49,-3.50
240.64,-0.91,-0.91,2.58,2.58,-2.58,-2.19,-2.84,-3.49,-3.49,-3.49
243.05,-0.90,-0.89,2.58,2.59,-2.60,-2.20,-2.87,-3.50,-3.49,-3.48
245.48,-0.87,-0.87,2.60,2.60,-2.61,-2.21,-2.88,-3.48,-3.48,-3.47
247.93,-0.83,-0.84,2.63,2.62,-2.63,-2.21,-2.90,-3.46,-3.47,-3.46
250.41,-0.81,-0.81,2.64,2.64,-2.64,-2.22,-2.91,-3.45,-3.45,-3.45
252.92,-0.79,-0.78,2.64,2.65,-2.64,-2.23,-2.92,-3.43,-3.43,-3.43
255.45,-0.76,-0.76,2.65,2.65,-2.64,-2.23,-2.92,-3.41,-3.41,-3.41
258.00,-0.74,-0.75,2.66,2.65,-2.64,-2.24,-2.92,-3.38,-3.39,-3.40
260.58,-0.74,-0.74,2.64,2.64,-2.63,-2.25,-2.91,-3.37,-3.37,-3.38
263.19,-0.74,-0.74,2.62,2.63,-2.62,-2.25,-2.90,-3.36,-3.36,-3.36
265.82,-0.74,-0.74,2.61,2.60,-2.60,-2.26,-2.89,-3.34,-3.34,-3.35
268.48,-0.74,-0.74,2.58,2.58,-2.58,-2.26,-2.88,-3.32,-3.33,-3.32
271.16,-0.75,-0.75,2.55,2.55,-2.56,-2.27,-2.86,-3.31,-3.31,-3.30
273.87,-0.75,-0.75,2.53,2.53,-2.54,-2.27,-2.84,-3.29,-3.29,-3.28
276.61,-0.75,-0.74,2.51,2.52,-2.52,-2.28,-2.81,-3.27,-3.26,-3.26
279.38,-0.73,-0.74,2.51,2.51,-2.50,-2.28,-2.79,-3.23,-3.24,-3.24
282.17,-0.73,-0.74,2.50,2.48,-2.48,-2.28,-2.76,-3.21,-3.22,-3.23
284.99,-0.75,-0.74,2.45,2.46,-2.46,-2.29,-2.73,-3.21,-3.21,-3.20
287.84,-0.76,-0.75,2.43,2.44,-2.45,-2.29,-2.70,-3.21,-3.20,-3.19
290.72,-0.73,-0.74,2.43,2.42,-2.43,-2.29,-2.66,-3.16,-3.17,-3.16
293.63,-0.73,-0.73,2.42,2.41,-2.42,-2.30,-2.63,-3.15,-3.15,-3.15
296.57,-0.72,-0.72,2.40,2.41,-2.40,-2.30,-2.60,-3.12,-3.12,-3.12
299.53,-0.72,-0.72,2.39,2.39,-2.38,-2.30,-2.56,-3.10,-3.10,-3.11
302.53,-0.71,-0.71,2.38,2.37,-2.37,-2.31,-2.53,-3.08,-3.08,-3.09
305.55,-0.70,-0.71,2.35,2.36,-2.35,-2.31,-2.50,-3.05,-3.06,-3.05
308.61,-0.70,-0.70,2.34,2.33,-2.34,-2.31,-2.46,-3.04,-3.04,-3.04
311.69,-0.70,-0.69,2.31,2.31,-2.32,-2.31,-2.43,-3.03,-3.02,-3.01
314.81,-0.68,-0.68,2.29,2.30,-2.31,-2.31,-2.40,-2.99,-3.00,-2.98
317.96,-0.67,-0.67,2.29,2.29,-2.30,-2.32,-2.37,-2.97,-2.97,-2.96
321.14,-0.65,-0.65,2.29,2.29,-2.29,-2.32,-2.34,-2.94,-2.94,-2.94
324.35,-0.63,-0.63,2.29,2.29,-2.27,-2.32,-2.31,-2.90,-2.91,-2.92
327.59,-0.62,-0.62,2.28,2.28,-2.26,-2.32,-2.28,-2.88,-2.88,-2.90
330.87,-0.62,-0.62,2.26,2.26,-2.24,-2.32,-2.25,-2.86,-2.86,-2.88
334.18,-0.63,-0.64,2.23,2.23,-2.23,-2.32,-2.23,-2.86,-2.86,-2.86
337.52,-0.65,-0.65,2.19,2.19,-2.21,-2.32,-2.20,-2.86,-2.86,-2.85
340.90,-0.67,-0.66,2.15,2.17,-2.19,-2.32,-2.18,-2.86,-2.84,-2.82
344.30,-0.65,-0.65,2.15,2.15,-2.16,-2.32,-2.16,-2.81,-2.81,-2.80
347.75,-0.62,-0.63,2.16,2.15,-2.14,-2.32,-2.14,-2.77,-2.78,-2.78
351.23,-0.62,-0.63,2.14,2.14,-2.13,-2.32,-2.13,-2.75,-2.76,-2.77
354.74,-0.64,-0.63,2.11,2.11,-2.11,-2.33,-2.11,-2.75,-2.74,-2.75
358.28,-0.65,-0.64,2.08,2.09,-2.09,-2.33,-2.10,-2.74,-2.73,-2.73
361.87,-0.64,-0.64,2.07,2.07,-2.07,-2.32,-2.08,-2.71,-2.71,-2.71
365.49,-0.63,-0.65,2.07,2.06,-2.04,-2.32,-2.07,-2.67,-2.69,-2.70
369.14,-0.66,-0.66,2.03,2.03,-2.02,-2.32,-2.06,-2.68,-2.68,-2.70
372.83,-0.69,-0.68,1.99,2.00,-2.00,-2.32,-2.06,-2.69,-2.68,-2.68
376.56,-0.70,-0.70,1.97,1.96,-1.98,-2.32,-2.05,-2.68,-2.68,-2.67
380.33,-0.70,-0.70,1.94,1.94,-1.97,-2.32,-2.05,-2.67,-2.68,-2.64
384.13,-0.69,-0.69,1.94,1.94,-1.96,-2.32,-2.05,-2.66,-2.66,-2.63
387.97,-0.68,-0.67,1.94,1.95,-1.95,-2.32,-2.04,-2.64,-2.62,-2.62
391.85,-0.64,-0.65,1.97,1.96,-1.94,-2.32,-2.04,-2.59,-2.59,-2.62
395.77,-0.63,-0.64,1.97,1.96,-1.93,-2.32,-2.05,-2.56,-2.57,-2.60
399.73,-0.64,-0.64,1.95,1.95,-1.92,-2.32,-2.05,-2.56,-2.56,-2.59
403.72,-0.67,-0.67,1.91,1.91,-1.90,-2.32,-2.05,-2.57,-2.57,-2.58
407.76,-0.69,-0.69,1.88,1.88,-1.88,-2.31,-2.06,-2.57,-2.57,-2.57
411.84,-0.71,-0.71,1.84,1.84,-1.85,-2.31,-2.06,-2.56,-2.57,-2.55
415.96,-0.73,-0.73,1.81,1.82,-1.82,-2.31,-2.07,-2.56,-2.55,-2.54
420.12,-0.74,-0.74,1.79,1.80,-1.80,-2.31,-2.08,-2.54,-2.54,-2.53
424.32,-0.73,-0.74,1.79,1.78,-1.79,-2.31,-2.08,-2.52,-2.53,-2.53
428.56,-0.74,-0.74,1.78,1.78,-1.79,-2.30,-2.09,-2.53,-2.52,-2.52
432.85,-0.73,-0.72,1.78,1.79,-1.80,-2.30,-2.10,-2.53,-2.52,-2.51
437.18,-0.69,-0.70,1.81,1.80,-1.82,-2.30,-2.11,-2.51,-2.51,-2.50
441.55,-0.65,-0.65,1.83,1.83,-1.84,-2.30,-2.12,-2.49,-2.49,-2.48
445.96,-0.60,-0.59,1.87,1.88,-1.88,-2.30,-2.13,-2.48,-2.47,-2.47
450.42,-0.53,-0.53,1.93,1.92,-1.91,-2.29,-2.13,-2.45,-2.45,-2.46
454.93,-0.47,-0.48,1.97,1.97,-1.95,-2.29,-2.14,-2.43,-2.43,-2.44
459.48,-0.43,-0.43,2.00,2.00,-1.99,-2.29,-2.15,-2.42,-2.42,-2.43
464.07,-0.39,-0.39,2.02,2.03,-2.03,-2.29,-2.15,-2.42,-2.41,-2.41
