frequency,raw
20,-6.68
21,-6.42
22,-6.16
23,-5.92
24,-5.69
25,-5.47
26,-5.26
27,-5.06
28,-4.87
29,-4.70
30,-4.53
31,-4.37
32,-4.24
33,-4.10
34,-3.98
35,-3.89
36,-3.80
37,-3.71
38,-3.61
39,-3.53
40,-3.45
41,-3.38
42,-3.30
43,-3.22
44,-3.14
45,-3.07
46,-3.01
47,-2.96
48,-2.89
49,-2.82
50,-2.76
51,-2.69
52,-2.62
53,-2.56
54,-2.51
55,-2.48
56,-2.44
57,-2.41
58,-2.37
59,-2.34
60,-2.31
61,-2.27
62,-2.23
63,-2.19
64,-2.16
65,-2.14
66,-2.11
67,-2.08
68,-2.05
69,-2.02
70,-2.00
71,-1.99
72,-1.99
73,-1.98
74,-1.98
75,-1.98
76,-1.96
77,-1.94
78,-1.91
79,-1.88
80,-1.84
81,-1.81
82,-1.77
83,-1.74
84,-1.71
85,-1.68
86,-1.66
87,-1.65
88,-1.64
89,-1.64
90,-1.64
91,-1.65
92,-1.66
93,-1.66
94,-1.66
95,-1.66
96,-1.66
97,-1.66
98,-1.66
99,-1.66
100,-1.66
101,-1.66
102,-1.66
104,-1.66
105,-1.66
106,-1.67
107,-1.68
108,-1.68
109,-1.68
110,-1.67
111,-1.65
112,-1.63
113,-1.60
114,-1.57
115,-1.54
117,-1.51
118,-1.47
119,-1.44
120,-1.41
121,-1.38
123,-1.35
124,-1.33
125,-1.32
126,-1.31
128,-1.31
129,-1.33
130,-1.33
131,-1.34
133,-1.34
134,-1.34
135,-1.34
137,-1.34
138,-1.34
140,-1.34
141,-1.34
142,-1.34
144,-1.34
145,-1.34
147,-1.34
148,-1.34
150,-1.34
151,-1.34
153,-1.34
154,-1.34
156,-1.34
157,-1.34
159,-1.34
160,-1.34
162,-1.34
164,-1.34
165,-1.34
167,-1.34
169,-1.34
170,-1.34
172,-1.34
174,-1.34
175,-1.34
177,-1.34
179,-1.34
181,-1.34
183,-1.34
184,-1.34
186,-1.34
188,-1.34
190,-1.34
192,-1.34
194,-1.34
196,-1.34
198,-1.34
200,-1.34
202,-1.34
204,-1.34
206,-1.34
208,-1.34
210,-1.34
212,-1.34
214,-1.34
216,-1.34
218,-1.34
221,-1.34
223,-1.34
225,-1.34
227,-1.34
229,-1.34
232,-1.34
234,-1.34
236,-1.34
239,-1.34
241,-1.34
244,-1.34
246,-1.34
248,-1.34
251,-1.34
253,-1.34
256,-1.34
259,-1.34
261,-1.34
264,-1.34
266,-1.34
269,-1.34
272,-1.34
274,-1.34
277,-1.34
280,-1.34
283,-1.34
286,-1.34
288,-1.34
291,-1.34
294,-1.34
297,-1.34
300,-1.34
303,-1.34
306,-1.34
309,-1.34
312,-1.34
316,-1.34
319,-1.34
322,-1.34
325,-1.34
328,-1.34
332,-1.34
335,-1.34
338,-1.34
342,-1.34
345,-1.34
349,-1.34
352,-1.34
356,-1.34
359,-1.34
363,-1.34
366,-1.34
370,-1.34
374,-1.34
377,-1.34
381,-1.34
385,-1.34
389,-1.34
393,-1.34
397,-1.34
401,-1.34
405,-1.34
409,-1.34
413,-1.34
417,-1.35
421,-1.35
425,-1.36
430,-1.35
434,-1.34
438,-1.33
443,-1.30
447,-1.28
451,-1.25
456,-1.21
460,-1.18
465,-1.15
470,-1.11
474,-1.09
479,-1.06
484,-1.05
489,-1.03
494,-1.01
499,-1.00
504,-0.98
509,-0.96
514,-0.94
519,-0.91
524,-0.88
529,-0.84
535,-0.81
540,-0.78
545,-0.75
551,-0.72
556,-0.70
562,-0.68
568,-0.67
573,-0.67
579,-0.68
585,-0.70
591,-0.71
596,-0.70
602,-0.69
608,-0.67
615,-0.64
621,-0.61
627,-0.58
633,-0.55
639,-0.51
646,-0.48
652,-0.45
659,-0.42
665,-0.39
672,-0.37
679,-0.36
686,-0.36
692,-0.36
699,-0.36
706,-0.36
713,-0.35
721,-0.33
728,-0.31
735,-0.28
742,-0.24
750,-0.21
757,-0.18
765,-0.14
773,-0.11
780,-0.08
788,-0.06
796,-0.04
804,-0.03
812,-0.02
820,-0.02
828,-0.03
837,-0.03
845,-0.04
853,-0.04
862,-0.04
871,-0.04
879,-0.04
888,-0.04
897,-0.04
906,-0.04
915,-0.04
924,-0.04
933,-0.04
943,-0.05
952,-0.06
962,-0.06
971,-0.05
981,-0.04
991,-0.02
1001,0.00
1011,0.02
1021,0.05
1031,0.08
1041,0.12
1052,0.16
1062,0.22
1073,0.27
1084,0.32
1094,0.37
1105,0.41
1116,0.45
1128,0.49
1139,0.52
1150,0.56
1162,0.60
1173,0.65
1185,0.69
1197,0.73
1209,0.76
1221,0.78
1233,0.81
1246,0.85
1258,0.89
1271,0.94
1283,0.99
1296,1.03
1309,1.05
1322,1.09
1335,1.12
1349,1.15
1362,1.18
1376,1.22
1390,1.28
1404,1.34
1418,1.39
1432,1.44
1446,1.50
1461,1.55
1475,1.60
1490,1.68
1505,1.76
1520,1.84
1535,1.94
1550,2.02
1566,2.11
1582,2.19
1597,2.30
1613,2.41
1629,2.52
1646,2.63
1662,2.76
1679,2.90
1696,3.04
1713,3.18
1730,3.31
1747,3.45
1764,3.59
1782,3.74
1800,3.90
1818,4.07
1836,4.23
1854,4.42
1873,4.60
1892,4.78
1911,4.97
1930,5.17
1949,5.39
1969,5.61
1988,5.84
2008,6.08
2028,6.35
2048,6.61
2069,6.87
2090,7.15
2111,7.45
2132,7.77
2153,8.10
2175,8.44
2196,8.81
2218,9.20
2240,9.62
2263,10.06
2285,10.51
2308,10.97
2331,11.44
2355,11.92
2378,12.41
2402,12.90
2426,13.38
2450,13.86
2475,14.30
2500,14.72
2525,15.12
2550,15.48
2575,15.81
2601,16.10
2627,16.35
2653,16.57
2680,16.75
2707,16.91
2734,17.03
2761,17.12
2789,17.17
2817,17.19
2845,17.17
2873,17.12
2902,17.04
2931,16.93
2960,16.78
2990,16.60
3020,16.37
3050,16.11
3080,15.82
3111,15.50
3142,15.14
3174,14.75
3206,14.35
3238,13.92
3270,13.48
3303,13.03
3336,12.57
3369,12.10
3403,11.64
3437,11.17
3471,10.73
3506,10.31
3541,9.91
3576,9.53
3612,9.18
3648,8.85
3685,8.56
3721,8.30
3759,8.08
3796,7.90
3834,7.74
3873,7.62
3911,7.54
3950,7.47
3990,7.41
4030,7.37
4070,7.36
4111,7.35
4152,7.36
4193,7.37
4235,7.41
4278,7.45
4321,7.49
4364,7.54
4407,7.59
4451,7.65
4496,7.73
4541,7.82
4586,7.90
4632,7.99
4679,8.09
4725,8.21
4773,8.33
4820,8.45
4868,8.58
4917,8.73
4966,8.90
5016,9.06
5066,9.21
5117,9.35
5168,9.50
5220,9.62
5272,9.74
5325,9.85
5378,9.95
5432,10.03
5486,10.08
5541,10.10
5596,10.09
5652,10.06
5709,10.01
5766,9.94
5823,9.85
5882,9.73
5940,9.59
6000,9.43
6060,9.23
6120,8.99
6182,8.71
6244,8.39
6306,8.03
6369,7.63
6433,7.20
6497,6.72
6562,6.20
6628,5.61
6694,4.97
6761,4.29
6828,3.56
6897,2.80
6966,2.02
7035,1.24
7106,0.47
7177,-0.30
7249,-1.06
7321,-1.80
7394,-2.53
7468,-3.22
7543,-3.87
7618,-4.49
7694,-5.08
7771,-5.63
7849,-6.15
7928,-6.66
8007,-7.16
8087,-7.64
8168,-8.11
8250,-8.57
8332,-9.02
8415,-9.46
8499,-9.88
8584,-10.28
8670,-10.66
8757,-11.04
8845,-11.40
8933,-11.73
9022,-12.05
9113,-12.35
9204,-12.65
9296,-12.92
9389,-13.17
9483,-13.42
9577,-13.64
9673,-13.84
9770,-14.03
9868,-14.21
9966,-14.39
10066,-14.56
10167,-14.73
10268,-14.86
10371,-14.97
10475,-15.07
10579,-15.15
10685,-15.21
10792,-15.25
10900,-15.26
11009,-15.24
11119,-15.19
11230,-15.12
11343,-14.99
11456,-14.81
11571,-14.57
11686,-14.26
11803,-13.88
11921,-13.44
12040,-12.93
12161,-12.35
12282,-11.71
12405,-11.03
12529,-10.34
12655,-9.65
12781,-8.99
12909,-8.35
13038,-7.77
13168,-7.24
13300,-6.78
13433,-6.39
13567,-6.09
13703,-5.87
13840,-5.70
13978,-5.58
14118,-5.51
14259,-5.46
14402,-5.44
14546,-5.44
14692,-5.45
14838,-5.48
14987,-5.52
15137,-5.60
15288,-5.73
15441,-5.91
15595,-6.11
15751,-6.35
15909,-6.62
16068,-6.93
16229,-7.26
16391,-7.62
16555,-7.99
16720,-8.35
16888,-8.70
17056,-9.03
17227,-9.35
17399,-9.64
17573,-9.91
17749,-10.17
17926,-10.43
18106,-10.72
18287,-11.18
18470,-11.68
18654,-12.22
18841,-12.80
19029,-13.43
19220,-14.10
19412,-14.80
19606,-15.55
19802,-16.34
20000,-17.17
