frequency,raw,error,smoothed,error_smoothed,equalization,parametric_eq,equalized_raw,equalized_smoothed,target
20,2.41,-0.20,2.43,-0.16,0.16,-1.24,2.57,2.59,2.61
21,2.76,0.16,2.82,0.23,-0.23,-1.42,2.54,2.59,2.61
22,3.16,0.56,3.18,0.60,-0.60,-1.62,2.57,2.59,2.60
23,3.53,0.94,3.53,0.95,-0.95,-1.83,2.59,2.59,2.60
24,3.88,1.29,3.86,1.28,-1.28,-2.06,2.60,2.58,2.59
25,4.22,1.64,4.18,1.60,-1.60,-2.29,2.63,2.58,2.59
26,4.50,1.92,4.47,1.89,-1.89,-2.52,2.61,2.58,2.58
27,4.78,2.21,4.74,2.17,-2.17,-2.74,2.61,2.57,2.57
28,5.03,2.47,5.00,2.44,-2.44,-2.94,2.60,2.57,2.57
29,5.26,2.70,5.24,2.68,-2.68,-3.11,2.58,2.56,2.56
30,5.46,2.91,5.46,2.91,-2.91,-3.25,2.55,2.55,2.55
31,5.65,3.11,5.66,3.11,-3.11,-3.35,2.54,2.54,2.54
32,5.82,3.29,5.83,3.30,-3.30,-3.41,2.53,2.53,2.53
33,5.98,3.46,5.99,3.46,-3.46,-3.44,2.52,2.52,2.52
34,6.11,3.60,6.13,3.61,-3.61,-3.46,2.50,2.51,2.51
35,6.24,3.74,6.25,3.75,-3.75,-3.45,2.49,2.50,2.50
36,6.36,3.87,6.37,3.88,-3.88,-3.44,2.49,2.49,2.49
37,6.46,3.98,6.47,3.99,-3.99,-3.43,2.47,2.48,2.48
38,6.55,4.09,6.56,4.09,-4.09,-3.42,2.46,2.46,2.47
39,6.64,4.19,6.64,4.19,-4.19,-3.42,2.46,2.45,2.46
40,6.72,4.28,6.71,4.27,-4.27,-3.43,2.45,2.44,2.44
41,6.77,4.35,6.77,4.35,-4.35,-3.46,2.42,2.42,2.43
42,6.82,4.41,6.83,4.42,-4.42,-3.49,2.41,2.41,2.41
43,6.86,4.47,6.88,4.48,-4.48,-3.54,2.38,2.40,2.40
44,6.90,4.52,6.92,4.54,-4.54,-3.61,2.37,2.38,2.38
45,6.94,4.58,6.95,4.59,-4.59,-3.69,2.36,2.36,2.36
46,6.99,4.65,6.97,4.63,-4.63,-3.77,2.36,2.34,2.34
47,6.99,4.67,7.00,4.67,-4.67,-3.87,2.32,2.32,2.33
48,7.01,4.71,7.01,4.71,-4.71,-3.98,2.30,2.30,2.31
49,7.03,4.75,7.02,4.74,-4.74,-4.10,2.29,2.28,2.29
50,7.03,4.77,7.03,4.77,-4.77,-4.22,2.26,2.26,2.27
51,7.03,4.79,7.04,4.80,-4.80,-4.35,2.23,2.24,2.24
52,7.03,4.81,7.05,4.83,-4.83,-4.48,2.21,2.22,2.22
53,7.03,4.83,7.05,4.85,-4.85,-4.61,2.18,2.20,2.20
54,7.03,4.86,7.05,4.88,-4.88,-4.73,2.16,2.17,2.18
55,7.03,4.88,7.04,4.90,-4.90,-4.85,2.14,2.15,2.15
56,7.03,4.91,7.04,4.92,-4.92,-4.96,2.12,2.12,2.13
57,7.03,4.93,7.03,4.94,-4.94,-5.07,2.10,2.10,2.10
58,7.03,4.96,7.02,4.95,-4.95,-5.16,2.08,2.07,2.07
59,7.03,4.99,7.01,4.97,-4.97,-5.24,2.06,2.04,2.05
60,6.99,4.98,7.00,4.98,-4.98,-5.30,2.01,2.02,2.02
61,6.99,5.00,6.99,5.00,-5.00,-5.35,2.00,1.99,1.99
62,6.96,5.00,6.97,5.01,-5.01,-5.39,1.96,1.96,1.96
63,6.94,5.01,6.95,5.02,-5.02,-5.40,1.93,1.93,1.93
64,6.90,5.00,6.92,5.02,-5.02,-5.41,1.88,1.90,1.90
65,6.90,5.03,6.90,5.03,-5.03,-5.40,1.87,1.87,1.87
66,6.86,5.03,6.87,5.03,-5.03,-5.38,1.83,1.84,1.84
67,6.84,5.04,6.84,5.04,-5.04,-5.35,1.81,1.80,1.81
68,6.81,5.04,6.81,5.03,-5.03,-5.31,1.78,1.77,1.77
69,6.77,5.03,6.77,5.03,-5.03,-5.26,1.74,1.74,1.74
70,6.73,5.03,6.74,5.03,-5.03,-5.21,1.71,1.71,1.71
71,6.69,5.02,6.70,5.02,-5.02,-5.16,1.67,1.67,1.67
72,6.66,5.02,6.66,5.01,-5.01,-5.10,1.65,1.64,1.64
73,6.61,5.01,6.61,5.00,-5.00,-5.05,1.61,1.61,1.61
74,6.56,4.99,6.56,4.99,-4.99,-4.99,1.57,1.57,1.57
75,6.51,4.98,6.51,4.98,-4.98,-4.93,1.54,1.54,1.54
76,6.46,4.96,6.46,4.96,-4.96,-4.88,1.51,1.50,1.50
77,6.40,4.94,6.41,4.94,-4.94,-4.83,1.46,1.47,1.47
78,6.35,4.92,6.35,4.92,-4.92,-4.79,1.43,1.43,1.43
79,6.29,4.90,6.29,4.90,-4.90,-4.75,1.39,1.39,1.39
80,6.23,4.88,6.24,4.88,-4.88,-4.71,1.35,1.36,1.36
81,6.18,4.86,6.18,4.86,-4.86,-4.67,1.32,1.32,1.32
82,6.11,4.83,6.12,4.84,-4.84,-4.65,1.28,1.28,1.29
83,6.05,4.81,6.07,4.82,-4.82,-4.62,1.23,1.25,1.25
84,6.01,4.80,6.01,4.80,-4.80,-4.60,1.21,1.21,1.21
85,5.95,4.78,5.96,4.78,-4.78,-4.59,1.17,1.17,1.18
86,5.89,4.75,5.90,4.77,-4.77,-4.58,1.13,1.14,1.14
87,5.84,4.74,5.85,4.75,-4.75,-4.58,1.09,1.10,1.10
88,5.79,4.73,5.80,4.74,-4.74,-4.58,1.06,1.06,1.07
89,5.75,4.72,5.75,4.72,-4.72,-4.59,1.03,1.03,1.03
90,5.70,4.71,5.70,4.71,-4.71,-4.59,1.00,0.99,1.00
91,5.66,4.70,5.65,4.69,-4.69,-4.61,0.97,0.96,0.96
92,5.60,4.68,5.61,4.68,-4.68,-4.63,0.92,0.92,0.92
93,5.56,4.68,5.56,4.67,-4.67,-4.65,0.90,0.89,0.89
94,5.51,4.66,5.51,4.65,-4.65,-4.67,0.86,0.86,0.85
95,5.46,4.65,5.46,4.64,-4.64,-4.70,0.82,0.82,0.82
96,5.41,4.63,5.42,4.63,-4.63,-4.73,0.78,0.79,0.78
97,5.37,4.62,5.37,4.62,-4.62,-4.77,0.76,0.75,0.75
98,5.32,4.61,5.32,4.61,-4.61,-4.81,0.72,0.71,0.72
99,5.27,4.59,5.27,4.60,-4.60,-4.85,0.67,0.67,0.68
100,5.24,4.60,5.23,4.60,-4.60,-4.89,0.65,0.63,0.65
101,5.19,4.58,5.19,4.59,-4.59,-4.93,0.60,0.60,0.61
102,5.16,4.58,5.15,4.59,-4.59,-4.97,0.57,0.56,0.58
104,5.08,4.57,5.12,4.60,-4.60,-5.07,0.48,0.52,0.52
105,5.06,4.58,5.09,4.61,-4.61,-5.11,0.46,0.49,0.49
106,5.04,4.59,5.07,4.62,-4.62,-5.16,0.42,0.45,0.45
107,5.04,4.62,5.06,4.64,-4.64,-5.21,0.41,0.42,0.42
108,5.03,4.64,5.04,4.65,-4.65,-5.25,0.38,0.39,0.39
109,5.01,4.65,5.03,4.67,-4.67,-5.29,0.34,0.36,0.36
110,4.99,4.66,5.01,4.69,-4.69,-5.34,0.31,0.32,0.33
111,4.99,4.69,5.00,4.70,-4.70,-5.38,0.30,0.30,0.30
112,4.99,4.72,4.97,4.70,-4.70,-5.42,0.29,0.27,0.27
113,4.99,4.75,4.95,4.71,-4.71,-5.45,0.29,0.24,0.25
114,4.95,4.74,4.91,4.70,-4.70,-5.49,0.25,0.21,0.22
115,4.92,4.73,4.87,4.69,-4.69,-5.52,0.24,0.18,0.19
117,4.83,4.70,4.81,4.67,-4.67,-5.57,0.17,0.15,0.14
118,4.76,4.65,4.76,4.64,-4.64,-5.59,0.12,0.11,0.11
119,4.70,4.62,4.69,4.61,-4.61,-5.61,0.09,0.08,0.08
120,4.63,4.58,4.63,4.58,-4.58,-5.62,0.05,0.05,0.06
121,4.56,4.53,4.56,4.54,-4.54,-5.63,0.02,0.01,0.03
123,4.44,4.46,4.49,4.51,-4.51,-5.63,-0.07,-0.02,-0.01
124,4.40,4.44,4.43,4.48,-4.48,-5.62,-0.07,-0.05,-0.04
125,4.34,4.41,4.37,4.45,-4.45,-5.62,-0.11,-0.08,-0.06
126,4.30,4.39,4.32,4.43,-4.43,-5.60,-0.13,-0.11,-0.09
128,4.26,4.39,4.28,4.42,-4.42,-5.57,-0.15,-0.14,-0.13
129,4.24,4.40,4.25,4.41,-4.41,-5.54,-0.17,-0.16,-0.15
130,4.21,4.39,4.23,4.41,-4.41,-5.51,-0.20,-0.19,-0.17
131,4.21,4.41,4.21,4.42,-4.42,-5.48,-0.21,-0.21,-0.19
133,4.21,4.45,4.20,4.44,-4.44,-5.41,-0.23,-0.24,-0.23
134,4.21,4.47,4.20,4.46,-4.46,-5.37,-0.25,-0.26,-0.25
135,4.21,4.49,4.21,4.49,-4.49,-5.33,-0.28,-0.28,-0.27
137,4.21,4.52,4.22,4.52,-4.52,-5.24,-0.31,-0.31,-0.31
138,4.21,4.54,4.23,4.56,-4.56,-5.19,-0.34,-0.33,-0.33
140,4.26,4.63,4.24,4.60,-4.60,-5.09,-0.33,-0.36,-0.36
141,4.26,4.65,4.26,4.64,-4.64,-5.04,-0.37,-0.38,-0.38
142,4.26,4.66,4.28,4.68,-4.68,-4.99,-0.42,-0.41,-0.40
144,4.30,4.74,4.30,4.73,-4.73,-4.88,-0.42,-0.43,-0.43
145,4.30,4.75,4.32,4.77,-4.77,-4.82,-0.47,-0.45,-0.45
147,4.34,4.82,4.34,4.82,-4.82,-4.72,-0.47,-0.48,-0.48
148,4.35,4.85,4.36,4.86,-4.86,-4.66,-0.51,-0.50,-0.49
150,4.39,4.92,4.39,4.91,-4.91,-4.55,-0.51,-0.52,-0.52
151,4.41,4.95,4.41,4.95,-4.95,-4.50,-0.54,-0.54,-0.54
153,4.43,5.00,4.44,5.00,-5.00,-4.40,-0.56,-0.56,-0.56
154,4.47,5.05,4.46,5.04,-5.04,-4.34,-0.57,-0.58,-0.58
156,4.48,5.09,4.48,5.08,-5.08,-4.24,-0.60,-0.60,-0.60
157,4.51,5.13,4.50,5.12,-5.12,-4.20,-0.61,-0.62,-0.61
159,4.52,5.16,4.52,5.16,-5.16,-4.10,-0.64,-0.64,-0.64
160,4.52,5.17,4.54,5.20,-5.20,-4.06,-0.67,-0.66,-0.65
162,4.56,5.24,4.56,5.23,-5.23,-3.97,-0.67,-0.67,-0.67
164,4.56,5.26,4.57,5.26,-5.26,-3.88,-0.70,-0.69,-0.70
165,4.56,5.27,4.58,5.29,-5.29,-3.84,-0.72,-0.71,-0.71
167,4.58,5.31,4.58,5.31,-5.31,-3.76,-0.73,-0.73,-0.73
169,4.60,5.35,4.59,5.33,-5.33,-3.69,-0.73,-0.74,-0.75
170,4.60,5.36,4.59,5.35,-5.35,-3.66,-0.75,-0.76,-0.76
172,4.60,5.38,4.59,5.37,-5.37,-3.59,-0.76,-0.78,-0.77
174,4.58,5.38,4.59,5.38,-5.38,-3.53,-0.80,-0.79,-0.79
175,4.56,5.36,4.58,5.39,-5.39,-3.50,-0.82,-0.81,-0.80
177,4.56,5.38,4.57,5.39,-5.39,-3.44,-0.83,-0.82,-0.82
179,4.56,5.40,4.56,5.40,-5.40,-3.39,-0.83,-0.84,-0.83
181,4.53,5.38,4.55,5.40,-5.40,-3.34,-0.86,-0.85,-0.85
183,4.52,5.39,4.53,5.39,-5.39,-3.30,-0.87,-0.86,-0.86
184,4.52,5.40,4.51,5.38,-5.38,-3.28,-0.86,-0.87,-0.87
186,4.47,5.36,4.48,5.37,-5.37,-3.24,-0.90,-0.89,-0.89
188,4.47,5.37,4.46,5.36,-5.36,-3.20,-0.88,-0.90,-0.90
190,4.43,5.35,4.42,5.34,-5.34,-3.17,-0.91,-0.92,-0.91
192,4.39,5.32,4.39,5.32,-5.32,-3.14,-0.92,-0.93,-0.92
194,4.36,5.30,4.35,5.29,-5.29,-3.11,-0.93,-0.94,-0.94
196,4.31,5.26,4.31,5.27,-5.27,-3.09,-0.95,-0.95,-0.95
198,4.27,5.23,4.27,5.23,-5.23,-3.06,-0.96,-0.97,-0.96
200,4.21,5.18,4.23,5.20,-5.20,-3.04,-0.99,-0.97,-0.97
202,4.15,5.13,4.18,5.16,-5.16,-3.03,-1.01,-0.99,-0.98
204,4.10,5.09,4.13,5.12,-5.12,-3.01,-1.02,-1.00,-0.99
206,4.06,5.06,4.08,5.08,-5.08,-2.99,-1.02,-1.01,-1.00
208,4.02,5.03,4.02,5.04,-5.04,-2.98,-1.01,-1.02,-1.01
210,3.97,4.99,3.96,4.99,-4.99,-2.97,-1.01,-1.03,-1.02
212,3.90,4.93,3.90,4.94,-4.94,-2.96,-1.03,-1.03,-1.03
214,3.84,4.88,3.84,4.88,-4.88,-2.95,-1.04,-1.04,-1.04
216,3.78,4.83,3.77,4.82,-4.82,-2.94,-1.03,-1.05,-1.05
218,3.71,4.77,3.70,4.75,-4.75,-2.93,-1.04,-1.06,-1.05
221,3.59,4.66,3.62,4.68,-4.68,-2.91,-1.09,-1.06,-1.07
223,3.52,4.60,3.54,4.60,-4.60,-2.91,-1.08,-1.06,-1.07
225,3.45,4.53,3.44,4.52,-4.52,-2.90,-1.06,-1.07,-1.08
227,3.35,4.43,3.35,4.42,-4.42,-2.89,-1.07,-1.08,-1.08
229,3.26,4.34,3.24,4.33,-4.33,-2.88,-1.06,-1.08,-1.08
232,3.13,4.22,3.14,4.22,-4.22,-2.86,-1.09,-1.08,-1.08
234,3.02,4.10,3.03,4.11,-4.11,-2.85,-1.09,-1.08,-1.08
236,2.93,4.01,2.92,3.99,-3.99,-2.84,-1.06,-1.08,-1.08
239,2.78,3.86,2.80,3.87,-3.87,-2.82,-1.09,-1.07,-1.07
241,2.67,3.74,2.67,3.74,-3.74,-2.81,-1.07,-1.07,-1.06
244,2.52,3.58,2.55,3.61,-3.61,-2.78,-1.08,-1.06,-1.06
246,2.39,3.44,2.42,3.47,-3.47,-2.77,-1.07,-1.05,-1.05
248,2.31,3.35,2.28,3.33,-3.33,-2.75,-1.01,-1.05,-1.04
251,2.14,3.17,2.14,3.18,-3.18,-2.72,-1.04,-1.04,-1.03
253,2.02,3.04,2.00,3.03,-3.03,-2.70,-1.00,-1.03,-1.02
256,1.85,2.86,1.86,2.87,-2.87,-2.67,-1.02,-1.01,-1.01
259,1.66,2.67,1.71,2.71,-2.71,-2.64,-1.05,-1.01,-1.00
261,1.56,2.56,1.55,2.55,-2.55,-2.61,-0.98,-1.00,-0.99
264,1.36,2.35,1.39,2.38,-2.38,-2.57,-1.01,-0.99,-0.99
266,1.25,2.23,1.22,2.20,-2.20,-2.55,-0.95,-0.98,-0.98
269,1.06,2.03,1.06,2.02,-2.02,-2.51,-0.96,-0.96,-0.97
272,0.87,1.83,0.88,1.83,-1.83,-2.47,-0.96,-0.95,-0.96
274,0.74,1.69,0.70,1.64,-1.64,-2.44,-0.90,-0.94,-0.94
277,0.52,1.46,0.52,1.44,-1.44,-2.40,-0.92,-0.92,-0.93
280,0.33,1.25,0.33,1.24,-1.24,-2.35,-0.90,-0.90,-0.92
283,0.11,1.01,0.14,1.03,-1.03,-2.31,-0.91,-0.89,-0.90
286,-0.06,0.82,-0.05,0.81,-0.81,-2.26,-0.87,-0.87,-0.88
288,-0.21,0.65,-0.26,0.60,-0.60,-2.23,-0.81,-0.86,-0.86
291,-0.42,0.42,-0.46,0.39,-0.39,-2.19,-0.81,-0.85,-0.84
294,-0.63,0.19,-0.66,0.18,-0.18,-2.15,-0.81,-0.84,-0.82
297,-0.84,-0.04,-0.84,-0.02,0.02,-2.10,-0.81,-0.82,-0.80
300,-1.01,-0.23,-1.02,-0.21,0.21,-2.06,-0.79,-0.81,-0.78
303,-1.21,-0.45,-1.18,-0.39,0.39,-2.02,-0.81,-0.79,-0.76
306,-1.38,-0.64,-1.33,-0.56,0.56,-1.98,-0.82,-0.77,-0.74
309,-1.52,-0.79,-1.46,-0.70,0.70,-1.94,-0.81,-0.75,-0.72
312,-1.63,-0.92,-1.57,-0.83,0.83,-1.90,-0.79,-0.73,-0.71
316,-1.74,-1.04,-1.66,-0.95,0.95,-1.84,-0.79,-0.72,-0.69
319,-1.79,-1.11,-1.74,-1.04,1.04,-1.81,-0.74,-0.70,-0.68
322,-1.81,-1.15,-1.80,-1.12,1.12,-1.77,-0.68,-0.68,-0.66
325,-1.81,-1.17,-1.84,-1.19,1.19,-1.74,-0.62,-0.65,-0.64
328,-1.81,-1.19,-1.87,-1.23,1.23,-1.70,-0.57,-0.63,-0.62
332,-1.85,-1.24,-1.88,-1.27,1.27,-1.66,-0.57,-0.61,-0.60
335,-1.85,-1.27,-1.88,-1.30,1.30,-1.63,-0.55,-0.58,-0.58
338,-1.85,-1.29,-1.87,-1.31,1.31,-1.60,-0.53,-0.56,-0.56
342,-1.85,-1.31,-1.86,-1.32,1.32,-1.56,-0.53,-0.54,-0.54
345,-1.85,-1.33,-1.83,-1.32,1.32,-1.53,-0.53,-0.52,-0.51
349,-1.84,-1.34,-1.80,-1.30,1.30,-1.50,-0.53,-0.50,-0.49
352,-1.79,-1.31,-1.76,-1.28,1.28,-1.47,-0.50,-0.48,-0.47
356,-1.73,-1.27,-1.72,-1.25,1.25,-1.44,-0.47,-0.47,-0.46
359,-1.69,-1.25,-1.67,-1.21,1.21,-1.42,-0.47,-0.45,-0.44
363,-1.59,-1.16,-1.60,-1.17,1.17,-1.39,-0.42,-0.44,-0.42
366,-1.55,-1.14,-1.53,-1.11,1.11,-1.37,-0.44,-0.42,-0.41
370,-1.43,-1.03,-1.44,-1.04,1.04,-1.34,-0.39,-0.40,-0.40
374,-1.34,-0.95,-1.35,-0.96,0.96,-1.32,-0.37,-0.39,-0.38
377,-1.26,-0.88,-1.25,-0.88,0.88,-1.30,-0.38,-0.37,-0.37
381,-1.15,-0.79,-1.14,-0.78,0.78,-1.28,-0.36,-0.36,-0.36
385,-1.04,-0.69,-1.03,-0.69,0.69,-1.25,-0.35,-0.35,-0.35
389,-0.94,-0.60,-0.92,-0.58,0.58,-1.23,-0.35,-0.34,-0.34
393,-0.81,-0.48,-0.81,-0.48,0.48,-1.22,-0.33,-0.33,-0.33
397,-0.68,-0.36,-0.69,-0.36,0.36,-1.20,-0.31,-0.32,-0.32
401,-0.56,-0.24,-0.57,-0.25,0.25,-1.18,-0.31,-0.32,-0.31
405,-0.45,-0.14,-0.45,-0.14,0.14,-1.16,-0.31,-0.31,-0.31
409,-0.33,-0.02,-0.33,-0.02,0.02,-1.15,-0.31,-0.31,-0.30
413,-0.21,0.09,-0.21,0.10,-0.10,-1.14,-0.30,-0.30,-0.30
417,-0.09,0.21,-0.09,0.21,-0.21,-1.12,-0.30,-0.30,-0.30
421,0.02,0.32,0.03,0.32,-0.32,-1.11,-0.30,-0.29,-0.29
425,0.13,0.42,0.14,0.43,-0.43,-1.10,-0.30,-0.29,-0.29
430,0.28,0.57,0.25,0.54,-0.54,-1.08,-0.25,-0.28,-0.29
434,0.37,0.66,0.36,0.64,-0.64,-1.07,-0.27,-0.28,-0.28
438,0.47,0.75,0.47,0.74,-0.74,-1.06,-0.27,-0.27,-0.28
443,0.58,0.85,0.57,0.84,-0.84,-1.04,-0.25,-0.27,-0.27
447,0.66,0.92,0.67,0.93,-0.93,-1.03,-0.26,-0.26,-0.26
451,0.75,1.00,0.77,1.02,-1.02,-1.02,-0.26,-0.25,-0.25
456,0.86,1.10,0.87,1.10,-1.10,-1.01,-0.24,-0.24,-0.23
460,0.93,1.15,0.96,1.18,-1.18,-1.00,-0.25,-0.22,-0.22
465,1.04,1.25,1.05,1.26,-1.26,-0.98,-0.21,-0.21,-0.21
470,1.13,1.33,1.13,1.33,-1.33,-0.97,-0.20,-0.20,-0.19
474,1.22,1.40,1.21,1.40,-1.40,-0.96,-0.18,-0.19,-0.18
479,1.29,1.46,1.29,1.47,-1.47,-0.94,-0.17,-0.17,-0.16
484,1.37,1.53,1.37,1.53,-1.53,-0.93,-0.15,-0.16,-0.15
489,1.45,1.59,1.44,1.59,-1.59,-0.91,-0.13,-0.14,-0.14
494,1.50,1.63,1.51,1.64,-1.64,-0.90,-0.13,-0.13,-0.13
499,1.56,1.68,1.57,1.69,-1.69,-0.88,-0.12,-0.11,-0.11
504,1.63,1.74,1.63,1.73,-1.73,-0.87,-0.09,-0.10,-0.10
509,1.68,1.77,1.68,1.76,-1.76,-0.85,-0.08,-0.08,-0.09
514,1.72,1.80,1.72,1.79,-1.79,-0.83,-0.07,-0.07,-0.07
519,1.76,1.82,1.76,1.81,-1.81,-0.81,-0.05,-0.05,-0.05
524,1.79,1.83,1.80,1.83,-1.83,-0.80,-0.03,-0.03,-0.04
529,1.83,1.85,1.82,1.83,-1.83,-0.78,0.00,-0.01,-0.02
535,1.83,1.83,1.84,1.83,-1.83,-0.75,0.00,0.01,0.01
540,1.85,1.82,1.85,1.82,-1.82,-0.74,0.03,0.03,0.03
545,1.87,1.82,1.86,1.81,-1.81,-0.72,0.07,0.05,0.05
551,1.87,1.80,1.86,1.79,-1.79,-0.69,0.09,0.08,0.08
556,1.87,1.77,1.86,1.76,-1.76,-0.67,0.11,0.10,0.10
562,1.84,1.72,1.85,1.73,-1.73,-0.65,0.11,0.12,0.12
568,1.83,1.69,1.84,1.69,-1.69,-0.62,0.14,0.14,0.15
573,1.82,1.66,1.82,1.66,-1.66,-0.60,0.17,0.16,0.17
579,1.79,1.61,1.80,1.62,-1.62,-0.58,0.18,0.18,0.19
585,1.78,1.58,1.78,1.58,-1.58,-0.56,0.21,0.20,0.21
591,1.74,1.52,1.75,1.54,-1.54,-0.53,0.21,0.22,0.22
596,1.73,1.50,1.73,1.50,-1.50,-0.51,0.24,0.23,0.24
602,1.70,1.45,1.70,1.46,-1.46,-0.49,0.24,0.24,0.25
608,1.69,1.43,1.68,1.43,-1.43,-0.46,0.27,0.26,0.27
615,1.66,1.39,1.67,1.40,-1.40,-0.44,0.27,0.27,0.28
621,1.66,1.37,1.66,1.37,-1.37,-0.41,0.29,0.29,0.29
627,1.62,1.32,1.65,1.35,-1.35,-0.39,0.27,0.30,0.30
633,1.61,1.30,1.64,1.33,-1.33,-0.37,0.28,0.31,0.32
639,1.61,1.28,1.65,1.32,-1.32,-0.35,0.29,0.33,0.33
646,1.63,1.29,1.65,1.31,-1.31,-0.32,0.32,0.34,0.35
652,1.66,1.30,1.66,1.31,-1.31,-0.30,0.35,0.35,0.36
659,1.66,1.29,1.68,1.31,-1.31,-0.27,0.35,0.37,0.38
665,1.70,1.31,1.70,1.31,-1.31,-0.25,0.39,0.38,0.39
672,1.71,1.31,1.71,1.32,-1.32,-0.23,0.40,0.40,0.40
679,1.74,1.33,1.73,1.32,-1.32,-0.20,0.43,0.41,0.42
686,1.74,1.32,1.74,1.32,-1.32,-0.18,0.42,0.42,0.43
692,1.75,1.32,1.75,1.32,-1.32,-0.16,0.44,0.43,0.44
699,1.79,1.35,1.76,1.31,-1.31,-0.14,0.48,0.44,0.44
706,1.76,1.31,1.75,1.30,-1.30,-0.11,0.46,0.45,0.45
713,1.74,1.29,1.74,1.29,-1.29,-0.09,0.46,0.46,0.45
721,1.74,1.29,1.73,1.27,-1.27,-0.07,0.48,0.46,0.46
728,1.70,1.24,1.70,1.24,-1.24,-0.04,0.47,0.47,0.46
735,1.66,1.20,1.67,1.20,-1.20,-0.02,0.46,0.47,0.47
742,1.63,1.16,1.64,1.16,-1.16,-0.00,0.48,0.48,0.47
750,1.58,1.11,1.59,1.11,-1.11,0.02,0.48,0.49,0.48
757,1.55,1.07,1.54,1.05,-1.05,0.04,0.50,0.49,0.48
765,1.49,1.00,1.48,0.99,-0.99,0.07,0.51,0.50,0.49
773,1.42,0.92,1.42,0.92,-0.92,0.09,0.51,0.50,0.50
780,1.35,0.85,1.36,0.84,-0.84,0.11,0.51,0.51,0.51
788,1.29,0.78,1.29,0.77,-0.77,0.13,0.53,0.52,0.52
796,1.23,0.71,1.21,0.69,-0.69,0.16,0.54,0.52,0.53
804,1.14,0.61,1.14,0.61,-0.61,0.18,0.53,0.53,0.54
812,1.06,0.52,1.07,0.53,-0.53,0.20,0.54,0.54,0.55
820,0.96,0.41,0.99,0.45,-0.45,0.22,0.52,0.54,0.55
828,0.91,0.36,0.92,0.37,-0.37,0.24,0.54,0.55,0.56
837,0.82,0.26,0.84,0.30,-0.30,0.27,0.53,0.55,0.56
845,0.76,0.20,0.77,0.22,-0.22,0.29,0.54,0.55,0.56
853,0.71,0.15,0.71,0.16,-0.16,0.31,0.56,0.55,0.56
862,0.64,0.08,0.64,0.09,-0.09,0.33,0.55,0.55,0.56
871,0.58,0.03,0.58,0.03,-0.03,0.35,0.55,0.55,0.56
879,0.52,-0.03,0.53,-0.02,0.02,0.37,0.54,0.55,0.56
888,0.46,-0.09,0.48,-0.07,0.07,0.40,0.54,0.55,0.55
897,0.41,-0.14,0.43,-0.12,0.12,0.42,0.53,0.55,0.55
906,0.38,-0.17,0.39,-0.16,0.16,0.44,0.55,0.56,0.56
915,0.33,-0.23,0.35,-0.21,0.21,0.46,0.54,0.56,0.56
924,0.31,-0.25,0.31,-0.25,0.25,0.48,0.57,0.57,0.56
933,0.27,-0.30,0.27,-0.30,0.30,0.50,0.57,0.57,0.57
943,0.24,-0.33,0.24,-0.34,0.34,0.52,0.59,0.58,0.58
952,0.21,-0.37,0.20,-0.39,0.39,0.54,0.61,0.59,0.59
962,0.18,-0.42,0.16,-0.44,0.44,0.56,0.63,0.61,0.60
971,0.13,-0.48,0.12,-0.50,0.50,0.58,0.63,0.62,0.62
981,0.10,-0.53,0.09,-0.55,0.55,0.60,0.66,0.64,0.63
991,0.05,-0.60,0.04,-0.61,0.61,0.62,0.67,0.66,0.65
1001,-0.01,-0.68,0.00,-0.67,0.67,0.64,0.67,0.68,0.67
1011,-0.05,-0.74,-0.04,-0.74,0.74,0.66,0.69,0.70,0.70
1021,-0.10,-0.82,-0.08,-0.80,0.80,0.68,0.71,0.72,0.72
1031,-0.14,-0.89,-0.13,-0.87,0.87,0.70,0.73,0.74,0.75
1041,-0.18,-0.95,-0.17,-0.93,0.93,0.72,0.76,0.77,0.78
1052,-0.22,-1.02,-0.21,-1.00,1.00,0.74,0.78,0.79,0.80
1062,-0.25,-1.08,-0.25,-1.07,1.07,0.76,0.82,0.82,0.83
1073,-0.29,-1.14,-0.28,-1.14,1.14,0.78,0.85,0.85,0.86
1084,-0.33,-1.21,-0.32,-1.21,1.21,0.80,0.88,0.89,0.89
1094,-0.36,-1.27,-0.36,-1.28,1.28,0.81,0.92,0.92,0.92
1105,-0.40,-1.34,-0.40,-1.36,1.36,0.83,0.96,0.96,0.95
1116,-0.44,-1.41,-0.44,-1.44,1.44,0.85,1.00,1.00,0.98
1128,-0.47,-1.48,-0.49,-1.52,1.52,0.88,1.05,1.03,1.01
1139,-0.52,-1.56,-0.54,-1.60,1.60,0.90,1.09,1.06,1.04
1150,-0.57,-1.64,-0.60,-1.69,1.69,0.92,1.12,1.09,1.08
1162,-0.62,-1.73,-0.66,-1.77,1.77,0.94,1.16,1.11,1.11
1173,-0.66,-1.81,-0.71,-1.85,1.85,0.96,1.20,1.14,1.15
1185,-0.73,-1.92,-0.76,-1.93,1.93,0.98,1.20,1.17,1.19
1197,-0.80,-2.03,-0.79,-2.00,2.00,1.01,1.20,1.20,1.24
1209,-0.87,-2.15,-0.81,-2.06,2.06,1.03,1.19,1.24,1.28
1221,-0.90,-2.23,-0.82,-2.10,2.10,1.05,1.21,1.28,1.33
1233,-0.90,-2.28,-0.80,-2.13,2.13,1.08,1.24,1.33,1.38
1246,-0.88,-2.31,-0.77,-2.15,2.15,1.11,1.28,1.39,1.43
1258,-0.80,-2.28,-0.72,-2.16,2.16,1.13,1.37,1.45,1.49
1271,-0.69,-2.23,-0.65,-2.16,2.16,1.16,1.47,1.51,1.54
1283,-0.57,-2.17,-0.57,-2.15,2.15,1.19,1.58,1.58,1.60
1296,-0.47,-2.13,-0.48,-2.13,2.13,1.22,1.66,1.65,1.66
1309,-0.36,-2.08,-0.39,-2.11,2.11,1.25,1.76,1.72,1.73
1322,-0.24,-2.03,-0.30,-2.10,2.10,1.28,1.86,1.80,1.79
1335,-0.14,-1.99,-0.22,-2.09,2.09,1.32,1.95,1.87,1.86
1349,-0.07,-1.99,-0.14,-2.08,2.08,1.35,2.02,1.94,1.93
1362,-0.01,-2.00,-0.07,-2.09,2.09,1.39,2.08,2.02,1.99
1376,0.01,-2.05,-0.01,-2.10,2.10,1.42,2.11,2.09,2.06
1390,0.01,-2.12,0.03,-2.12,2.12,1.46,2.14,2.15,2.13
1404,0.03,-2.17,0.06,-2.15,2.15,1.50,2.19,2.22,2.20
1418,0.05,-2.22,0.09,-2.20,2.20,1.54,2.25,2.28,2.28
1432,0.06,-2.28,0.10,-2.24,2.24,1.58,2.31,2.35,2.35
1446,0.10,-2.32,0.12,-2.30,2.30,1.62,2.40,2.41,2.42
1461,0.14,-2.35,0.13,-2.36,2.36,1.67,2.50,2.48,2.49
1475,0.17,-2.39,0.14,-2.42,2.42,1.71,2.59,2.56,2.57
1490,0.18,-2.46,0.15,-2.48,2.48,1.76,2.66,2.63,2.64
1505,0.18,-2.53,0.18,-2.53,2.53,1.81,2.72,2.71,2.72
1520,0.18,-2.61,0.20,-2.59,2.59,1.86,2.77,2.79,2.79
1535,0.18,-2.69,0.23,-2.64,2.64,1.91,2.83,2.87,2.87
1550,0.23,-2.72,0.26,-2.69,2.69,1.96,2.92,2.95,2.95
1566,0.28,-2.75,0.30,-2.74,2.74,2.01,3.02,3.04,3.04
1582,0.34,-2.78,0.34,-2.78,2.78,2.06,3.12,3.12,3.12
1597,0.38,-2.83,0.39,-2.82,2.82,2.11,3.21,3.21,3.21
1613,0.42,-2.88,0.44,-2.86,2.86,2.17,3.28,3.30,3.30
1629,0.51,-2.88,0.50,-2.90,2.90,2.22,3.41,3.39,3.39
1646,0.57,-2.91,0.56,-2.93,2.93,2.28,3.50,3.49,3.49
1662,0.62,-2.96,0.63,-2.96,2.96,2.33,3.59,3.59,3.58
1679,0.69,-2.99,0.70,-2.99,2.99,2.39,3.69,3.69,3.68
1696,0.78,-3.00,0.77,-3.02,3.02,2.44,3.81,3.80,3.79
1713,0.84,-3.05,0.85,-3.05,3.05,2.50,3.90,3.90,3.90
1730,0.95,-3.05,0.93,-3.08,3.08,2.55,4.04,4.01,4.01
1747,1.00,-3.12,1.01,-3.11,3.11,2.60,4.11,4.12,4.12
1764,1.10,-3.14,1.10,-3.14,3.14,2.65,4.24,4.23,4.24
1782,1.17,-3.19,1.19,-3.16,3.16,2.70,4.33,4.34,4.36
1800,1.27,-3.21,1.28,-3.18,3.18,2.75,4.45,4.46,4.48
1818,1.37,-3.24,1.38,-3.20,3.20,2.80,4.57,4.58,4.61
1836,1.47,-3.26,1.48,-3.21,3.21,2.84,4.69,4.70,4.74
1854,1.60,-3.26,1.60,-3.22,3.22,2.88,4.83,4.82,4.87
1873,1.70,-3.29,1.72,-3.23,3.23,2.92,4.93,4.95,5.00
1892,1.83,-3.30,1.84,-3.23,3.23,2.96,5.07,5.08,5.13
1911,1.94,-3.32,1.97,-3.23,3.23,2.99,5.18,5.21,5.26
1930,2.08,-3.30,2.11,-3.23,3.23,3.02,5.31,5.33,5.39
