frequency,raw,error,smoothed,error_smoothed,equalization,parametric_eq,fixed_band_eq,equalized_raw,equalized_smoothed,target
20.00,-29.33,-26.23,-29.33,-26.22,6.00,6.37,2.70,-23.33,-23.33,-3.11
20.20,-29.16,-26.15,-29.17,-26.15,6.00,6.37,2.78,-23.16,-23.17,-3.02
20.40,-29.00,-26.06,-29.00,-26.06,6.00,6.36,2.86,-23.00,-23.00,-2.94
20.61,-28.83,-25.97,-28.83,-25.98,6.00,6.36,2.94,-22.83,-22.83,-2.87
20.81,-28.67,-25.89,-28.67,-25.89,6.00,6.36,3.02,-22.67,-22.67,-2.78
21.02,-28.50,-25.80,-28.50,-25.80,6.00,6.36,3.11,-22.50,-22.50,-2.70
21.23,-28.33,-25.69,-28.34,-25.70,6.00,6.36,3.20,-22.33,-22.34,-2.64
21.44,-28.17,-25.59,-28.17,-25.59,6.00,6.36,3.29,-22.17,-22.17,-2.58
21.66,-28.00,-25.48,-28.00,-25.47,6.00,6.35,3.38,-22.00,-22.00,-2.53
21.87,-27.83,-25.35,-27.83,-25.35,6.00,6.35,3.48,-21.83,-21.83,-2.48
22.09,-27.66,-25.23,-27.66,-25.23,6.00,6.35,3.58,-21.66,-21.66,-2.43
22.31,-27.48,-25.10,-27.48,-25.10,6.00,6.35,3.68,-21.48,-21.48,-2.38
22.54,-27.31,-24.97,-27.31,-24.97,6.00,6.35,3.79,-21.31,-21.31,-2.34
22.76,-27.13,-24.83,-27.13,-24.83,6.00,6.34,3.89,-21.13,-21.13,-2.30
22.99,-26.96,-24.69,-26.96,-24.69,6.00,6.34,4.00,-20.96,-20.96,-2.27
23.22,-26.78,-24.55,-26.78,-24.55,6.00,6.34,4.12,-20.78,-20.78,-2.23
23.45,-26.61,-24.42,-26.61,-24.42,6.00,6.34,4.23,-20.61,-20.61,-2.19
23.69,-26.43,-24.28,-26.43,-24.29,6.00,6.33,4.35,-20.43,-20.43,-2.15
23.92,-26.26,-24.15,-26.26,-24.15,6.00,6.33,4.47,-20.26,-20.26,-2.11
24.16,-26.08,-24.02,-26.08,-24.01,6.00,6.33,4.59,-20.08,-20.08,-2.06
24.40,-25.90,-23.87,-25.90,-23.87,6.00,6.33,4.71,-19.90,-19.90,-2.03
24.65,-25.72,-23.72,-25.72,-23.72,6.00,6.32,4.84,-19.72,-19.72,-2.00
24.89,-25.54,-23.57,-25.54,-23.57,6.00,6.32,4.97,-19.54,-19.54,-1.97
25.14,-25.36,-23.43,-25.36,-23.42,6.00,6.32,5.10,-19.36,-19.36,-1.93
25.39,-25.17,-23.27,-25.17,-23.27,6.00,6.31,5.23,-19.17,-19.17,-1.90
25.65,-24.99,-23.13,-24.99,-23.12,6.00,6.31,5.36,-18.99,-18.99,-1.86
25.91,-24.81,-22.97,-24.81,-22.97,6.00,6.31,5.49,-18.81,-18.81,-1.85
26.16,-24.62,-22.80,-24.63,-22.81,6.00,6.30,5.62,-18.62,-18.63,-1.81
26.43,-24.44,-22.67,-24.44,-22.66,6.00,6.30,5.76,-18.44,-18.44,-1.78
26.69,-24.25,-22.50,-24.26,-22.51,6.00,6.30,5.89,-18.25,-18.26,-1.75
26.96,-24.07,-22.36,-24.07,-22.36,6.00,6.29,6.01,-18.07,-18.07,-1.72
27.23,-23.88,-22.21,-23.88,-22.20,6.00,6.29,6.14,-17.88,-17.88,-1.68
27.50,-23.69,-22.04,-23.69,-22.04,6.00,6.29,6.27,-17.69,-17.69,-1.65
27.77,-23.50,-21.87,-23.50,-21.88,6.00,6.28,6.39,-17.50,-17.50,-1.63
28.05,-23.32,-21.73,-23.32,-21.72,6.00,6.28,6.50,-17.32,-17.32,-1.59
28.33,-23.13,-21.56,-23.13,-21.56,6.00,6.27,6.61,-17.13,-17.13,-1.57
28.62,-22.94,-21.40,-22.94,-21.40,6.00,6.27,6.72,-16.94,-16.94,-1.54
28.90,-22.75,-21.25,-22.75,-21.24,6.00,6.27,6.82,-16.75,-16.75,-1.50
29.19,-22.56,-21.08,-22.56,-21.09,6.00,6.26,6.91,-16.56,-16.56,-1.48
29.48,-22.37,-20.94,-22.37,-20.93,6.00,6.26,6.99,-16.37,-16.37,-1.43
29.78,-22.18,-20.77,-22.18,-20.77,6.00,6.25,7.07,-16.18,-16.18,-1.42
30.08,-21.99,-20.61,-22.00,-20.61,6.00,6.25,7.13,-15.99,-16.00,-1.39
30.38,-21.81,-20.46,-21.81,-20.45,6.00,6.24,7.19,-15.81,-15.81,-1.36
30.68,-21.63,-20.30,-21.63,-20.30,6.00,6.24,7.24,-15.63,-15.63,-1.33
30.99,-21.45,-20.14,-21.45,-20.14,6.00,6.23,7.27,-15.45,-15.45,-1.31
31.30,-21.26,-19.98,-21.26,-19.98,6.00,6.23,7.30,-15.26,-15.26,-1.28
31.61,-21.07,-19.82,-21.07,-19.82,6.00,6.22,7.31,-15.07,-15.07,-1.25
31.93,-20.88,-19.65,-20.88,-19.65,6.00,6.21,7.32,-14.88,-14.88,-1.23
32.24,-20.69,-19.47,-20.69,-19.48,6.00,6.21,7.31,-14.69,-14.69,-1.21
32.57,-20.50,-19.32,-20.50,-19.31,6.00,6.20,7.29,-14.50,-14.50,-1.19
32.89,-20.31,-19.15,-20.31,-19.15,6.00,6.20,7.27,-14.31,-14.31,-1.16
33.22,-20.12,-18.98,-20.12,-18.98,6.00,6.19,7.24,-14.12,-14.12,-1.14
33.55,-19.93,-18.81,-19.93,-18.81,6.00,6.18,7.20,-13.93,-13.93,-1.12
33.89,-19.74,-18.63,-19.74,-18.64,6.00,6.18,7.15,-13.74,-13.74,-1.11
34.23,-19.55,-18.47,-19.55,-18.46,6.00,6.17,7.09,-13.55,-13.55,-1.08
34.57,-19.36,-18.29,-19.36,-18.29,6.00,6.16,7.03,-13.36,-13.36,-1.08
34.92,-19.17,-18.11,-19.17,-18.11,6.00,6.15,6.96,-13.17,-13.17,-1.07
35.27,-18.98,-17.93,-18.98,-17.92,6.00,6.15,6.89,-12.98,-12.98,-1.05
35.62,-18.78,-17.73,-18.79,-17.74,6.00,6.14,6.82,-12.78,-12.79,-1.05
35.97,-18.59,-17.55,-18.59,-17.55,6.00,6.13,6.74,-12.59,-12.59,-1.04
36.33,-18.40,-17.37,-18.40,-17.36,6.00,6.12,6.66,-12.40,-12.40,-1.03
36.70,-18.20,-17.17,-18.20,-17.17,6.00,6.11,6.58,-12.20,-12.20,-1.03
37.06,-18.00,-16.97,-18.00,-16.98,6.00,6.10,6.50,-12.00,-12.00,-1.03
37.43,-17.80,-16.78,-17.80,-16.77,6.00,6.09,6.42,-11.80,-11.80,-1.02
37.81,-17.60,-16.58,-17.60,-16.58,6.00,6.08,6.34,-11.60,-11.60,-1.03
38.19,-17.40,-16.37,-17.40,-16.38,6.00,6.07,6.26,-11.40,-11.40,-1.03
38.57,-17.20,-16.18,-17.20,-16.18,6.00,6.06,6.18,-11.20,-11.20,-1.02
38.95,-17.00,-15.97,-17.00,-15.98,6.00,6.05,6.11,-11.00,-11.00,-1.02
39.34,-16.81,-15.77,-16.81,-15.78,6.00,6.04,6.03,-10.81,-10.81,-1.04
39.74,-16.62,-15.58,-16.62,-15.58,6.00,6.03,5.96,-10.62,-10.62,-1.04
40.14,-16.42,-15.38,-16.42,-15.38,6.00,6.02,5.90,-10.42,-10.42,-1.04
40.54,-16.22,-15.18,-16.22,-15.18,6.00,6.01,5.83,-10.22,-10.22,-1.05
40.94,-16.02,-14.97,-16.03,-14.98,6.00,5.99,5.77,-10.02,-10.03,-1.05
41.35,-15.83,-14.78,-15.83,-14.78,6.00,5.98,5.71,-9.83,-9.83,-1.05
41.76,-15.64,-14.58,-15.63,-14.58,6.00,5.97,5.66,-9.64,-9.63,-1.06
42.18,-15.44,-14.38,-15.44,-14.38,6.00,5.95,5.61,-9.44,-9.44,-1.06
42.60,-15.24,-14.16,-15.24,-14.18,6.00,5.94,5.57,-9.24,-9.24,-1.08
43.03,-15.05,-13.98,-15.04,-13.97,6.00,5.92,5.52,-9.05,-9.04,-1.07
43.46,-14.84,-13.76,-14.84,-13.75,6.00,5.91,5.49,-8.84,-8.84,-1.08
43.90,-14.63,-13.54,-14.64,-13.54,6.00,5.89,5.45,-8.63,-8.64,-1.10
44.33,-14.43,-13.32,-14.43,-13.32,6.00,5.88,5.42,-8.43,-8.43,-1.11
44.78,-14.23,-13.11,-14.23,-13.11,6.00,5.86,5.40,-8.23,-8.23,-1.12
45.23,-14.03,-12.90,-14.04,-12.90,6.00,5.84,5.38,-8.03,-8.04,-1.13
45.68,-13.84,-12.70,-13.84,-12.70,6.00,5.83,5.36,-7.84,-7.84,-1.14
46.13,-13.64,-12.50,-13.64,-12.50,6.00,5.81,5.35,-7.64,-7.64,-1.14
46.60,-13.44,-12.30,-13.44,-12.30,6.00,5.79,5.34,-7.44,-7.44,-1.14
47.06,-13.24,-12.10,-13.25,-12.10,6.00,5.77,5.34,-7.24,-7.25,-1.15
47.53,-13.05,-11.90,-13.05,-11.90,6.00,5.75,5.34,-7.05,-7.05,-1.15
48.01,-12.86,-11.71,-12.86,-11.71,6.00,5.73,5.34,-6.86,-6.86,-1.15
48.49,-12.66,-11.51,-12.67,-11.51,6.00,5.71,5.34,-6.66,-6.67,-1.15
48.97,-12.47,-11.31,-12.47,-11.30,6.00,5.68,5.35,-6.47,-6.47,-1.16
49.46,-12.27,-11.09,-12.27,-11.09,6.00,5.66,5.36,-6.27,-6.27,-1.18
49.96,-12.07,-10.89,-12.07,-10.89,6.00,5.64,5.38,-6.07,-6.07,-1.19
50.46,-11.87,-10.70,-11.87,-10.70,6.00,5.61,5.40,-5.87,-5.87,-1.17
50.96,-11.67,-10.51,-11.67,-10.50,6.00,5.59,5.42,-5.67,-5.67,-1.16
51.47,-11.47,-10.30,-11.47,-10.31,6.00,5.56,5.44,-5.47,-5.47,-1.17
51.99,-11.27,-10.10,-11.27,-10.11,6.00,5.53,5.46,-5.27,-5.27,-1.17
52.51,-11.07,-9.92,-11.08,-9.91,6.00,5.51,5.48,-5.07,-5.08,-1.16
53.03,-10.88,-9.73,-10.88,-9.73,6.00,5.48,5.51,-4.88,-4.88,-1.16
53.56,-10.69,-9.54,-10.69,-9.53,6.00,5.45,5.53,-4.69,-4.69,-1.16
54.10,-10.49,-9.34,-10.49,-9.33,6.00,5.42,5.56,-4.49,-4.49,-1.16
54.64,-10.29,-9.13,-10.29,-9.13,6.00,5.39,5.58,-4.29,-4.29,-1.17
55.18,-10.09,-8.92,-10.09,-8.92,6.00,5.35,5.60,-4.09,-4.09,-1.17
55.74,-9.89,-8.72,-9.90,-8.72,6.00,5.32,5.62,-3.89,-3.90,-1.18
56.29,-9.70,-8.52,-9.70,-8.52,6.00,5.29,5.64,-3.70,-3.70,-1.18
56.86,-9.50,-8.31,-9.50,-8.31,6.00,5.25,5.65,-3.50,-3.50,-1.19
57.42,-9.30,-8.10,-9.30,-8.10,6.00,5.21,5.66,-3.30,-3.30,-1.20
58.00,-9.10,-7.90,-9.10,-7.90,6.00,5.17,5.67,-3.10,-3.10,-1.20
58.58,-8.91,-7.70,-8.91,-7.70,6.00,5.13,5.67,-2.91,-2.91,-1.22
59.16,-8.72,-7.50,-8.72,-7.50,6.00,5.09,5.67,-2.72,-2.72,-1.22
59.76,-8.53,-7.30,-8.53,-7.30,6.01,5.05,5.66,-2.52,-2.52,-1.23
60.35,-8.34,-7.08,-8.35,-7.10,6.02,5.01,5.65,-2.32,-2.32,-1.26
60.96,-8.16,-6.90,-8.16,-6.89,6.03,4.97,5.62,-2.13,-2.13,-1.26
61.57,-7.98,-6.69,-7.98,-6.68,6.03,4.92,5.60,-1.95,-1.95,-1.30
62.18,-7.79,-6.47,-7.79,-6.48,6.01,4.87,5.56,-1.78,-1.78,-1.32
62.80,-7.60,-6.27,-7.60,-6.26,5.96,4.82,5.52,-1.64,-1.64,-1.33
63.43,-7.41,-6.06,-7.41,-6.06,5.89,4.77,5.47,-1.52,-1.52,-1.35
64.07,-7.23,-5.87,-7.23,-5.87,5.80,4.72,5.42,-1.43,-1.43,-1.36
64.71,-7.05,-5.68,-7.05,-5.68,5.68,4.67,5.35,-1.37,-1.38,-1.37
65.35,-6.88,-5.50,-6.88,-5.51,5.53,4.61,5.28,-1.35,-1.35,-1.38
66.01,-6.71,-5.34,-6.71,-5.33,5.37,4.56,5.21,-1.34,-1.34,-1.38
66.67,-6.54,-5.17,-6.54,-5.17,5.20,4.50,5.12,-1.35,-1.35,-1.37
67.33,-6.38,-5.01,-6.38,-5.00,5.01,4.44,5.04,-1.37,-1.36,-1.37
68.01,-6.21,-4.84,-6.21,-4.84,4.84,4.38,4.94,-1.38,-1.38,-1.37
68.69,-6.04,-4.67,-6.04,-4.67,4.67,4.31,4.84,-1.37,-1.37,-1.38
69.37,-5.88,-4.51,-5.88,-4.51,4.51,4.25,4.74,-1.37,-1.36,-1.37
70.07,-5.71,-4.34,-5.71,-4.35,4.36,4.18,4.64,-1.36,-1.36,-1.37
70.77,-5.55,-4.20,-5.56,-4.20,4.20,4.11,4.53,-1.35,-1.35,-1.35
71.48,-5.40,-4.05,-5.40,-4.05,4.05,4.04,4.41,-1.35,-1.35,-1.35
72.19,-5.26,-3.90,-5.26,-3.90,3.90,3.97,4.30,-1.36,-1.36,-1.36
72.91,-5.11,-3.76,-5.11,-3.76,3.75,3.90,4.18,-1.36,-1.36,-1.35
73.64,-4.97,-3.61,-4.97,-3.61,3.61,3.82,4.06,-1.36,-1.36,-1.36
74.38,-4.82,-3.47,-4.82,-3.47,3.46,3.74,3.94,-1.36,-1.35,-1.35
75.12,-4.67,-3.31,-4.68,-3.32,3.32,3.66,3.82,-1.35,-1.35,-1.36
75.87,-4.54,-3.19,-4.54,-3.19,3.19,3.58,3.69,-1.35,-1.35,-1.35
76.63,-4.41,-3.06,-4.41,-3.05,3.06,3.49,3.57,-1.36,-1.35,-1.35
77.40,-4.28,-2.92,-4.28,-2.92,2.93,3.41,3.45,-1.36,-1.35,-1.36
78.17,-4.15,-2.78,-4.15,-2.80,2.80,3.32,3.32,-1.35,-1.35,-1.37
78.95,-4.03,-2.68,-4.03,-2.68,2.68,3.23,3.20,-1.35,-1.35,-1.35
79.74,-3.92,-2.57,-3.92,-2.57,2.56,3.13,3.08,-1.36,-1.36,-1.35
80.54,-3.80,-2.45,-3.80,-2.46,2.45,3.04,2.96,-1.35,-1.35,-1.35
81.35,-3.68,-2.34,-3.68,-2.34,2.34,2.94,2.84,-1.34,-1.34,-1.34
82.16,-3.56,-2.23,-3.56,-2.23,2.23,2.84,2.72,-1.33,-1.32,-1.33
82.98,-3.43,-2.12,-3.44,-2.12,2.13,2.74,2.60,-1.30,-1.31,-1.31
83.81,-3.33,-2.03,-3.33,-2.03,2.04,2.64,2.48,-1.29,-1.29,-1.30
84.65,-3.23,-1.94,-3.23,-1.94,1.95,2.54,2.37,-1.28,-1.28,-1.30
85.50,-3.14,-1.87,-3.14,-1.86,1.86,2.43,2.25,-1.28,-1.27,-1.27
86.35,-3.04,-1.79,-3.04,-1.79,1.78,2.32,2.14,-1.26,-1.26,-1.25
87.22,-2.95,-1.70,-2.95,-1.71,1.71,2.21,2.03,-1.25,-1.25,-1.25
88.09,-2.86,-1.63,-2.86,-1.63,1.63,2.10,1.92,-1.23,-1.23,-1.23
88.97,-2.78,-1.56,-2.78,-1.56,1.56,1.99,1.81,-1.22,-1.22,-1.22
89.86,-2.70,-1.49,-2.70,-1.49,1.49,1.88,1.70,-1.22,-1.22,-1.21
90.76,-2.63,-1.41,-2.63,-1.41,1.41,1.76,1.60,-1.22,-1.22,-1.22
91.66,-2.56,-1.35,-2.56,-1.34,1.34,1.65,1.49,-1.22,-1.22,-1.22
92.58,-2.48,-1.25,-2.49,-1.26,1.27,1.53,1.39,-1.21,-1.22,-1.23
93.51,-2.42,-1.19,-2.42,-1.19,1.19,1.42,1.28,-1.23,-1.23,-1.23
94.44,-2.36,-1.11,-2.36,-1.11,1.11,1.30,1.18,-1.25,-1.25,-1.25
95.39,-2.30,-1.04,-2.30,-1.04,1.02,1.19,1.08,-1.28,-1.28,-1.27
96.34,-2.24,-0.95,-2.24,-0.94,0.93,1.07,0.99,-1.31,-1.31,-1.29
97.30,-2.17,-0.84,-2.17,-0.84,0.83,0.96,0.89,-1.34,-1.34,-1.33
98.28,-2.10,-0.74,-2.10,-0.74,0.73,0.85,0.79,-1.37,-1.37,-1.36
99.26,-2.03,-0.63,-2.03,-0.63,0.63,0.74,0.70,-1.40,-1.40,-1.40
100.25,-1.96,-0.52,-1.96,-0.52,0.53,0.63,0.61,-1.43,-1.42,-1.44
101.25,-1.89,-0.41,-1.89,-0.41,0.43,0.52,0.51,-1.46,-1.46,-1.48
102.27,-1.83,-0.31,-1.84,-0.33,0.34,0.42,0.43,-1.50,-1.51,-1.52
103.29,-1.81,-0.25,-1.81,-0.25,0.24,0.32,0.34,-1.57,-1.56,-1.57
104.32,-1.78,-0.19,-1.77,-0.17,0.16,0.22,0.25,-1.63,-1.61,-1.60
105.37,-1.73,-0.09,-1.73,-0.09,0.08,0.13,0.17,-1.66,-1.66,-1.65
106.42,-1.68,0.00,-1.69,-0.00,0.00,0.04,0.09,-1.68,-1.69,-1.68
107.48,-1.65,0.07,-1.65,0.08,-0.07,-0.05,0.00,-1.72,-1.72,-1.72
108.56,-1.62,0.14,-1.63,0.14,-0.13,-0.13,-0.07,-1.75,-1.75,-1.76
109.64,-1.61,0.19,-1.61,0.19,-0.18,-0.20,-0.15,-1.79,-1.79,-1.80
110.74,-1.60,0.23,-1.60,0.24,-0.23,-0.27,-0.22,-1.83,-1.83,-1.83
111.85,-1.59,0.27,-1.59,0.27,-0.27,-0.34,-0.29,-1.86,-1.87,-1.86
112.97,-1.59,0.32,-1.59,0.30,-0.31,-0.40,-0.36,-1.90,-1.90,-1.91
114.10,-1.60,0.33,-1.60,0.33,-0.34,-0.46,-0.42,-1.94,-1.94,-1.93
115.24,-1.61,0.35,-1.61,0.36,-0.36,-0.50,-0.48,-1.97,-1.97,-1.97
116.39,-1.61,0.38,-1.61,0.38,-0.38,-0.55,-0.54,-1.99,-2.00,-1.99
117.55,-1.61,0.40,-1.61,0.40,-0.40,-0.59,-0.59,-2.01,-2.02,-2.01
118.73,-1.61,0.43,-1.61,0.42,-0.42,-0.62,-0.64,-2.03,-2.03,-2.04
119.92,-1.61,0.43,-1.61,0.44,-0.44,-0.65,-0.69,-2.05,-2.05,-2.05
121.12,-1.61,0.45,-1.61,0.45,-0.45,-0.68,-0.73,-2.06,-2.06,-2.06
122.33,-1.61,0.47,-1.61,0.46,-0.46,-0.69,-0.77,-2.08,-2.08,-2.08
123.55,-1.61,0.47,-1.61,0.48,-0.48,-0.71,-0.81,-2.09,-2.09,-2.09
124.79,-1.61,0.49,-1.61,0.49,-0.49,-0.72,-0.84,-2.10,-2.10,-2.10
126.03,-1.61,0.49,-1.61,0.50,-0.50,-0.73,-0.87,-2.11,-2.11,-2.11
127.29,-1.61,0.51,-1.61,0.51,-0.51,-0.74,-0.89,-2.12,-2.12,-2.12
128.57,-1.61,0.53,-1.61,0.52,-0.52,-0.74,-0.91,-2.13,-2.13,-2.14
129.85,-1.61,0.54,-1.61,0.54,-0.54,-0.74,-0.92,-2.15,-2.15,-2.15
131.15,-1.61,0.55,-1.61,0.55,-0.55,-0.74,-0.93,-2.17,-2.17,-2.16
132.46,-1.61,0.57,-1.61,0.56,-0.57,-0.73,-0.94,-2.18,-2.18,-2.18
133.79,-1.61,0.57,-1.61,0.58,-0.59,-0.72,-0.95,-2.20,-2.20,-2.19
135.12,-1.60,0.61,-1.60,0.60,-0.61,-0.71,-0.95,-2.21,-2.21,-2.21
136.48,-1.59,0.63,-1.59,0.62,-0.63,-0.70,-0.95,-2.22,-2.22,-2.22
137.84,-1.59,0.65,-1.59,0.65,-0.64,-0.69,-0.94,-2.23,-2.23,-2.24
139.22,-1.60,0.67,-1.60,0.66,-0.65,-0.68,-0.94,-2.26,-2.25,-2.27
140.61,-1.61,0.68,-1.61,0.67,-0.66,-0.67,-0.93,-2.27,-2.27,-2.29
142.02,-1.63,0.66,-1.63,0.67,-0.67,-0.65,-0.92,-2.30,-2.30,-2.30
143.44,-1.64,0.67,-1.65,0.67,-0.67,-0.64,-0.90,-2.31,-2.32,-2.31
144.87,-1.68,0.66,-1.68,0.66,-0.66,-0.63,-0.89,-2.34,-2.34,-2.34
146.32,-1.70,0.67,-1.70,0.66,-0.66,-0.61,-0.87,-2.36,-2.36,-2.37
147.78,-1.74,0.64,-1.74,0.65,-0.65,-0.60,-0.85,-2.39,-2.39,-2.38
149.26,-1.77,0.64,-1.77,0.64,-0.64,-0.58,-0.84,-2.41,-2.41,-2.41
150.75,-1.81,0.63,-1.81,0.63,-0.63,-0.57,-0.82,-2.44,-2.44,-2.44
152.26,-1.84,0.63,-1.84,0.63,-0.63,-0.55,-0.80,-2.47,-2.47,-2.47
153.78,-1.87,0.62,-1.87,0.62,-0.63,-0.54,-0.78,-2.50,-2.50,-2.49
155.32,-1.89,0.63,-1.89,0.63,-0.64,-0.52,-0.75,-2.53,-2.53,-2.53
156.88,-1.91,0.64,-1.91,0.64,-0.65,-0.51,-0.73,-2.56,-2.56,-2.55
158.44,-1.92,0.67,-1.92,0.67,-0.67,-0.50,-0.71,-2.59,-2.59,-2.59
160.03,-1.93,0.69,-1.94,0.69,-0.69,-0.48,-0.69,-2.62,-2.62,-2.62
161.63,-1.95,0.71,-1.95,0.71,-0.71,-0.47,-0.67,-2.66,-2.66,-2.66
163.24,-1.96,0.73,-1.96,0.73,-0.73,-0.46,-0.65,-2.69,-2.69,-2.69
164.88,-1.97,0.75,-1.97,0.75,-0.74,-0.45,-0.63,-2.71,-2.72,-2.72
166.53,-1.99,0.76,-1.99,0.76,-0.75,-0.43,-0.60,-2.74,-2.74,-2.75
168.19,-2.01,0.77,-2.02,0.76,-0.76,-0.42,-0.58,-2.77,-2.77,-2.78
169.87,-2.05,0.76,-2.05,0.76,-0.76,-0.41,-0.56,-2.81,-2.80,-2.81
171.57,-2.08,0.75,-2.08,0.75,-0.75,-0.40,-0.54,-2.83,-2.83,-2.84
173.29,-2.11,0.75,-2.12,0.74,-0.75,-0.39,-0.52,-2.86,-2.87,-2.86
175.02,-2.16,0.73,-2.16,0.74,-0.74,-0.38,-0.51,-2.90,-2.89,-2.89
176.77,-2.19,0.72,-2.19,0.73,-0.73,-0.37,-0.49,-2.92,-2.92,-2.92
178.54,-2.21,0.73,-2.21,0.72,-0.73,-0.36,-0.47,-2.94,-2.94,-2.94
180.32,-2.23,0.73,-2.23,0.72,-0.73,-0.35,-0.45,-2.96,-2.96,-2.96
182.13,-2.25,0.72,-2.25,0.72,-0.73,-0.34,-0.43,-2.98,-2.98,-2.97
183.95,-2.26,0.72,-2.26,0.73,-0.73,-0.33,-0.42,-2.99,-2.99,-2.99
185.79,-2.26,0.74,-2.26,0.74,-0.74,-0.33,-0.40,-3.00,-3.00,-3.00
187.65,-2.26,0.75,-2.27,0.74,-0.74,-0.32,-0.39,-3.00,-3.00,-3.01
189.52,-2.27,0.74,-2.27,0.75,-0.74,-0.31,-0.37,-3.01,-3.01,-3.02
191.42,-2.28,0.75,-2.28,0.75,-0.74,-0.30,-0.36,-3.02,-3.02,-3.03
193.33,-2.29,0.74,-2.29,0.73,-0.74,-0.29,-0.34,-3.03,-3.03,-3.03
195.27,-2.31,0.72,-2.31,0.72,-0.73,-0.29,-0.33,-3.04,-3.04,-3.03
197.22,-2.34,0.70,-2.34,0.71,-0.71,-0.28,-0.32,-3.05,-3.05,-3.04
199.19,-2.36,0.70,-2.36,0.69,-0.69,-0.27,-0.30,-3.05,-3.06,-3.06
201.18,-2.39,0.67,-2.39,0.67,-0.67,-0.26,-0.29,-3.06,-3.06,-3.06
203.19,-2.42,0.64,-2.42,0.65,-0.64,-0.26,-0.28,-3.06,-3.06,-3.06
205.23,-2.46,0.61,-2.46,0.61,-0.60,-0.25,-0.27,-3.06,-3.06,-3.07
207.28,-2.51,0.56,-2.51,0.57,-0.56,-0.24,-0.25,-3.07,-3.07,-3.07
209.35,-2.56,0.52,-2.56,0.52,-0.52,-0.23,-0.24,-3.08,-3.09,-3.08
211.44,-2.62,0.48,-2.62,0.47,-0.48,-0.23,-0.23,-3.10,-3.10,-3.10
213.56,-2.67,0.43,-2.67,0.43,-0.45,-0.22,-0.22,-3.12,-3.12,-3.10
215.69,-2.71,0.39,-2.71,0.39,-0.41,-0.21,-0.21,-3.13,-3.13,-3.10
217.85,-2.75,0.37,-2.74,0.37,-0.38,-0.21,-0.20,-3.14,-3.13,-3.12
220.03,-2.76,0.36,-2.77,0.36,-0.35,-0.20,-0.19,-3.12,-3.12,-3.12
222.23,-2.79,0.35,-2.79,0.35,-0.33,-0.19,-0.18,-3.12,-3.12,-3.14
224.45,-2.82,0.32,-2.82,0.32,-0.30,-0.18,-0.17,-3.12,-3.12,-3.14
226.70,-2.86,0.28,-2.87,0.28,-0.27,-0.18,-0.15,-3.13,-3.14,-3.15
228.96,-2.92,0.23,-2.91,0.24,-0.24,-0.17,-0.14,-3.16,-3.15,-3.15
231.25,-2.95,0.21,-2.96,0.20,-0.22,-0.16,-0.13,-3.17,-3.17,-3.16
233.57,-3.00,0.17,-3.00,0.17,-0.19,-0.15,-0.12,-3.19,-3.19,-3.18
235.90,-3.05,0.14,-3.04,0.15,-0.16,-0.15,-0.11,-3.21,-3.20,-3.19
238.26,-3.07,0.14,-3.07,0.13,-0.14,-0.14,-0.10,-3.21,-3.21,-3.21
240.64,-3.10,0.12,-3.10,0.12,-0.11,-0.13,-0.09,-3.22,-3.21,-3.22
243.05,-3.11,0.12,-3.12,0.11,-0.09,-0.12,-0.07,-3.20,-3.22,-3.23
245.48,-3.15,0.08,-3.15,0.08,-0.07,-0.11,-0.06,-3.22,-3.23,-3.23
247.93,-3.19,0.05,-3.18,0.06,-0.05,-0.11,-0.05,-3.24,-3.23,-3.24
250.41,-3.21,0.04,-3.21,0.03,-0.03,-0.10,-0.03,-3.24,-3.25,-3.25
252.92,-3.23,0.01,-3.23,0.01,-0.01,-0.09,-0.02,-3.24,-3.25,-3.24
255.45,-3.25,-0.02,-3.25,-0.01,0.01,-0.08,-0.00,-3.25,-3.24,-3.23
258.00,-3.26,-0.04,-3.26,-0.03,0.02,-0.07,0.01,-3.24,-3.24,-3.23
260.58,-3.26,-0.04,-3.26,-0.04,0.04,-0.06,0.03,-3.23,-3.22,-3.22
263.19,-3.25,-0.05,-3.25,-0.04,0.05,-0.05,0.04,-3.20,-3.20,-3.20
265.82,-3.24,-0.04,-3.24,-0.05,0.06,-0.04,0.06,-3.18,-3.18,-3.20
268.48,-3.23,-0.06,-3.23,-0.06,0.07,-0.03,0.07,-3.16,-3.16,-3.17
271.16,-3.23,-0.08,-3.23,-0.08,0.08,-0.02,0.09,-3.15,-3.15,-3.16
273.87,-3.23,-0.09,-3.23,-0.10,0.09,-0.00,0.11,-3.14,-3.14,-3.14
276.61,-3.23,-0.12,-3.23,-0.11,0.11,0.01,0.13,-3.12,-3.12,-3.11
279.38,-3.23,-0.13,-3.23,-0.13,0.13,0.02,0.15,-3.11,-3.11,-3.11
282.17,-3.23,-0.14,-3.23,-0.14,0.14,0.03,0.17,-3.09,-3.09,-3.09
284.99,-3.23,-0.16,-3.23,-0.16,0.16,0.05,0.19,-3.07,-3.07,-3.07
287.84,-3.23,-0.18,-3.23,-0.18,0.18,0.06,0.21,-3.05,-3.05,-3.05
290.72,-3.23,-0.21,-3.23,-0.20,0.20,0.08,0.23,-3.03,-3.03,-3.03
293.63,-3.23,-0.21,-3.23,-0.22,0.22,0.09,0.25,-3.01,-3.01,-3.02
296.57,-3.23,-0.24,-3.23,-0.24,0.24,0.11,0.27,-3.00,-3.00,-2.99
299.53,-3.23,-0.26,-3.23,-0.25,0.26,0.12,0.29,-2.98,-2.98,-2.97
302.53,-3.23,-0.27,-3.23,-0.28,0.28,0.14,0.31,-2.96,-2.96,-2.97
305.55,-3.23,-0.30,-3.23,-0.30,0.30,0.16,0.34,-2.94,-2.94,-2.93
308.61,-3.23,-0.32,-3.23,-0.32,0.32,0.18,0.36,-2.92,-2.91,-2.91
311.69,-3.22,-0.34,-3.22,-0.34,0.34,0.20,0.39,-2.88,-2.88,-2.88
314.81,-3.21,-0.37,-3.21,-0.36,0.36,0.22,0.41,-2.85,-2.85,-2.84
317.96,-3.21,-0.39,-3.21,-0.38,0.39,0.24,0.44,-2.82,-2.82,-2.83
321.14,-3.22,-0.41,-3.22,-0.42,0.42,0.26,0.46,-2.80,-2.80,-2.81
324.35,-3.23,-0.44,-3.24,-0.45,0.45,0.29,0.49,-2.78,-2.78,-2.79
327.59,-3.26,-0.50,-3.25,-0.49,0.49,0.31,0.52,-2.77,-2.76,-2.76
330.87,-3.27,-0.53,-3.28,-0.54,0.54,0.34,0.55,-2.73,-2.74,-2.74
334.18,-3.30,-0.59,-3.31,-0.59,0.59,0.37,0.57,-2.71,-2.72,-2.71
337.52,-3.34,-0.65,-3.34,-0.64,0.65,0.40,0.60,-2.70,-2.69,-2.70
340.90,-3.37,-0.70,-3.37,-0.70,0.70,0.43,0.63,-2.67,-2.67,-2.67
344.30,-3.40,-0.76,-3.41,-0.76,0.76,0.46,0.66,-2.64,-2.64,-2.64
347.75,-3.44,-0.82,-3.44,-0.82,0.82,0.49,0.70,-2.62,-2.62,-2.62
351.23,-3.47,-0.88,-3.47,-0.88,0.88,0.53,0.73,-2.59,-2.59,-2.59
354.74,-3.50,-0.94,-3.50,-0.94,0.93,0.56,0.76,-2.57,-2.57,-2.56
358.28,-3.53,-0.99,-3.53,-0.99,0.98,0.60,0.79,-2.55,-2.55,-2.54
361.87,-3.54,-1.03,-3.55,-1.03,1.02,0.64,0.83,-2.52,-2.53,-2.52
365.49,-3.56,-1.08,-3.56,-1.06,1.05,0.69,0.86,-2.51,-2.50,-2.49
369.14,-3.56,-1.08,-3.56,-1.09,1.09,0.73,0.90,-2.47,-2.47,-2.48
372.83,-3.56,-1.11,-3.56,-1.11,1.12,0.78,0.93,-2.44,-2.45,-2.45
376.56,-3.56,-1.13,-3.56,-1.14,1.15,0.83,0.97,-2.41,-2.42,-2.43
380.33,-3.57,-1.18,-3.57,-1.17,1.18,0.88,1.00,-2.39,-2.39,-2.39
384.13,-3.58,-1.20,-3.58,-1.20,1.21,0.93,1.04,-2.37,-2.37,-2.38
387.97,-3.60,-1.24,-3.60,-1.24,1.25,0.99,1.08,-2.35,-2.35,-2.36
391.85,-3.63,-1.28,-3.63,-1.29,1.29,1.05,1.11,-2.34,-2.34,-2.35
395.77,-3.66,-1.34,-3.66,-1.33,1.33,1.11,1.15,-2.33,-2.33,-2.32
399.73,-3.70,-1.39,-3.70,-1.38,1.37,1.17,1.19,-2.33,-2.33,-2.31
403.72,-3.73,-1.42,-3.73,-1.42,1.41,1.24,1.22,-2.32,-2.32,-2.31
