frequency,raw,error,smoothed,error_smoothed,equalization,parametric_eq,equalized_raw,equalized_smoothed,target
20.00,2.36,2.04,2.36,2.04,-2.04,-1.47,0.32,0.32,0.32
20.20,2.40,2.08,2.40,2.08,-2.08,-1.52,0.33,0.33,0.33
20.40,2.45,2.12,2.44,2.11,-2.11,-1.56,0.33,0.33,0.33
20.61,2.48,2.15,2.48,2.15,-2.15,-1.60,0.33,0.33,0.33
20.81,2.52,2.18,2.52,2.19,-2.19,-1.65,0.33,0.33,0.33
21.02,2.55,2.22,2.56,2.22,-2.22,-1.70,0.33,0.33,0.33
21.23,2.59,2.26,2.60,2.26,-2.26,-1.74,0.33,0.34,0.34
21.44,2.64,2.30,2.64,2.30,-2.30,-1.79,0.34,0.34,0.34
21.66,2.67,2.33,2.67,2.33,-2.33,-1.84,0.34,0.34,0.34
21.87,2.72,2.37,2.71,2.37,-2.37,-1.90,0.35,0.34,0.34
22.09,2.75,2.41,2.75,2.41,-2.41,-1.95,0.35,0.34,0.35
22.31,2.79,2.44,2.79,2.44,-2.44,-2.01,0.34,0.35,0.35
22.54,2.82,2.47,2.83,2.48,-2.48,-2.06,0.35,0.35,0.35
22.76,2.86,2.51,2.86,2.51,-2.51,-2.12,0.35,0.35,0.35
22.99,2.90,2.55,2.90,2.55,-2.55,-2.18,0.36,0.35,0.35
23.22,2.94,2.59,2.94,2.58,-2.58,-2.24,0.36,0.36,0.36
23.45,2.97,2.62,2.98,2.62,-2.62,-2.30,0.35,0.36,0.36
23.69,3.01,2.65,3.02,2.66,-2.66,-2.37,0.36,0.36,0.36
23.92,3.06,2.69,3.05,2.69,-2.69,-2.43,0.36,0.36,0.36
24.16,3.09,2.72,3.09,2.72,-2.72,-2.50,0.36,0.36,0.36
24.40,3.13,2.76,3.13,2.76,-2.76,-2.57,0.37,0.37,0.37
24.65,3.16,2.80,3.16,2.79,-2.79,-2.63,0.37,0.37,0.37
24.89,3.20,2.82,3.20,2.83,-2.83,-2.70,0.37,0.37,0.37
25.14,3.24,2.86,3.23,2.86,-2.86,-2.77,0.37,0.37,0.37
25.39,3.28,2.90,3.27,2.90,-2.90,-2.84,0.38,0.38,0.38
25.65,3.30,2.93,3.31,2.93,-2.93,-2.91,0.38,0.38,0.38
25.91,3.34,2.96,3.34,2.96,-2.96,-2.98,0.38,0.38,0.38
26.16,3.38,2.99,3.38,2.99,-2.99,-3.05,0.38,0.38,0.38
26.43,3.41,3.03,3.41,3.03,-3.03,-3.12,0.39,0.38,0.38
26.69,3.44,3.06,3.45,3.06,-3.06,-3.19,0.38,0.39,0.39
26.96,3.47,3.09,3.48,3.09,-3.09,-3.26,0.38,0.39,0.39
27.23,3.51,3.12,3.51,3.12,-3.12,-3.32,0.39,0.39,0.39
27.50,3.54,3.15,3.55,3.16,-3.16,-3.39,0.39,0.39,0.39
27.77,3.58,3.18,3.58,3.19,-3.19,-3.45,0.39,0.39,0.39
28.05,3.61,3.22,3.61,3.22,-3.22,-3.51,0.40,0.39,0.39
28.33,3.64,3.25,3.64,3.25,-3.25,-3.57,0.40,0.39,0.40
28.62,3.67,3.28,3.67,3.28,-3.28,-3.63,0.40,0.40,0.40
28.90,3.70,3.31,3.71,3.31,-3.31,-3.68,0.40,0.40,0.40
29.19,3.73,3.34,3.74,3.34,-3.34,-3.73,0.40,0.40,0.40
29.48,3.76,3.37,3.77,3.37,-3.37,-3.78,0.40,0.40,0.40
29.78,3.79,3.39,3.79,3.39,-3.39,-3.82,0.40,0.40,0.40
30.08,3.82,3.42,3.82,3.42,-3.42,-3.86,0.40,0.40,0.40
30.38,3.84,3.44,3.85,3.45,-3.45,-3.90,0.40,0.40,0.40
30.68,3.87,3.47,3.87,3.47,-3.47,-3.93,0.40,0.40,0.40
30.99,3.90,3.50,3.90,3.50,-3.50,-3.95,0.41,0.40,0.40
31.30,3.92,3.52,3.92,3.52,-3.52,-3.98,0.40,0.40,0.40
31.61,3.94,3.54,3.94,3.54,-3.54,-3.99,0.40,0.40,0.40
31.93,3.96,3.56,3.97,3.57,-3.57,-4.01,0.40,0.40,0.40
32.24,3.98,3.59,3.99,3.59,-3.59,-4.01,0.40,0.40,0.40
32.57,4.00,3.61,4.01,3.61,-3.61,-4.02,0.40,0.40,0.40
32.89,4.02,3.63,4.03,3.63,-3.63,-4.02,0.40,0.40,0.40
33.22,4.04,3.65,4.05,3.65,-3.65,-4.02,0.40,0.40,0.40
33.55,4.06,3.67,4.07,3.67,-3.67,-4.01,0.40,0.40,0.40
33.89,4.08,3.69,4.08,3.69,-3.69,-4.00,0.40,0.40,0.40
34.23,4.10,3.71,4.10,3.71,-3.71,-3.99,0.40,0.39,0.39
34.57,4.11,3.72,4.12,3.72,-3.72,-3.98,0.39,0.39,0.39
34.92,4.13,3.74,4.13,3.74,-3.74,-3.96,0.39,0.39,0.39
35.27,4.14,3.75,4.15,3.76,-3.76,-3.94,0.38,0.39,0.39
35.62,4.16,3.78,4.16,3.78,-3.78,-3.92,0.39,0.39,0.39
35.97,4.18,3.80,4.18,3.79,-3.79,-3.90,0.39,0.39,0.39
36.33,4.19,3.81,4.19,3.81,-3.81,-3.88,0.39,0.38,0.38
36.70,4.20,3.82,4.21,3.82,-3.82,-3.86,0.38,0.38,0.38
37.06,4.21,3.84,4.22,3.84,-3.84,-3.83,0.38,0.38,0.38
37.43,4.22,3.85,4.23,3.85,-3.85,-3.81,0.37,0.38,0.38
37.81,4.23,3.86,4.24,3.87,-3.87,-3.79,0.37,0.37,0.37
38.19,4.25,3.88,4.25,3.88,-3.88,-3.77,0.37,0.37,0.37
38.57,4.26,3.90,4.26,3.89,-3.89,-3.75,0.37,0.37,0.37
38.95,4.27,3.91,4.27,3.91,-3.91,-3.74,0.37,0.36,0.36
39.34,4.27,3.92,4.28,3.92,-3.92,-3.72,0.36,0.36,0.36
39.74,4.28,3.93,4.28,3.93,-3.93,-3.70,0.35,0.35,0.35
40.14,4.28,3.94,4.29,3.94,-3.94,-3.69,0.34,0.35,0.35
40.54,4.29,3.95,4.30,3.95,-3.95,-3.68,0.34,0.34,0.34
40.94,4.30,3.97,4.30,3.96,-3.96,-3.67,0.34,0.34,0.34
41.35,4.30,3.97,4.31,3.97,-3.97,-3.67,0.33,0.34,0.34
41.76,4.31,3.98,4.31,3.98,-3.98,-3.66,0.33,0.33,0.33
42.18,4.31,3.99,4.32,3.99,-3.99,-3.66,0.32,0.33,0.33
42.60,4.32,4.00,4.32,4.00,-4.00,-3.66,0.33,0.32,0.32
43.03,4.32,4.01,4.32,4.00,-4.00,-3.67,0.32,0.31,0.32
43.46,4.32,4.01,4.32,4.01,-4.01,-3.67,0.31,0.31,0.31
43.90,4.32,4.02,4.32,4.02,-4.02,-3.68,0.31,0.30,0.30
44.33,4.32,4.03,4.32,4.02,-4.02,-3.69,0.30,0.30,0.30
44.78,4.31,4.02,4.32,4.03,-4.03,-3.71,0.29,0.29,0.29
45.23,4.31,4.03,4.32,4.03,-4.03,-3.73,0.28,0.28,0.28
45.68,4.30,4.03,4.31,4.04,-4.04,-3.75,0.26,0.27,0.28
46.13,4.30,4.04,4.31,4.05,-4.05,-3.77,0.26,0.26,0.27
46.60,4.30,4.05,4.31,4.05,-4.05,-3.80,0.25,0.25,0.26
47.06,4.30,4.06,4.31,4.06,-4.06,-3.83,0.24,0.24,0.25
47.53,4.30,4.07,4.31,4.07,-4.07,-3.86,0.23,0.23,0.24
48.01,4.30,4.08,4.30,4.08,-4.08,-3.89,0.22,0.22,0.23
48.49,4.30,4.09,4.30,4.09,-4.09,-3.93,0.21,0.21,0.21
48.97,4.30,4.10,4.30,4.10,-4.10,-3.96,0.20,0.20,0.20
49.46,4.30,4.12,4.30,4.12,-4.12,-4.00,0.19,0.19,0.19
49.96,4.30,4.13,4.30,4.13,-4.13,-4.05,0.18,0.17,0.17
50.46,4.30,4.14,4.30,4.14,-4.14,-4.09,0.16,0.16,0.16
50.96,4.30,4.16,4.30,4.16,-4.16,-4.14,0.15,0.15,0.15
51.47,4.30,4.17,4.30,4.17,-4.17,-4.18,0.13,0.13,0.13
51.99,4.30,4.19,4.30,4.19,-4.19,-4.23,0.12,0.12,0.12
52.51,4.30,4.20,4.30,4.20,-4.20,-4.28,0.10,0.10,0.10
53.03,4.30,4.22,4.30,4.22,-4.22,-4.33,0.09,0.09,0.09
53.56,4.30,4.23,4.30,4.23,-4.23,-4.38,0.07,0.07,0.07
54.10,4.30,4.25,4.30,4.25,-4.25,-4.43,0.06,0.06,0.06
54.64,4.30,4.26,4.30,4.26,-4.26,-4.48,0.04,0.04,0.04
55.18,4.30,4.28,4.30,4.28,-4.28,-4.53,0.02,0.02,0.02
55.74,4.30,4.30,4.30,4.30,-4.30,-4.58,0.01,0.01,0.01
56.29,4.30,4.32,4.30,4.31,-4.31,-4.62,-0.01,-0.01,-0.01
56.86,4.30,4.33,4.30,4.33,-4.33,-4.67,-0.03,-0.03,-0.03
57.42,4.30,4.35,4.30,4.35,-4.35,-4.71,-0.05,-0.05,-0.05
58.00,4.30,4.37,4.30,4.37,-4.37,-4.75,-0.06,-0.06,-0.06
58.58,4.30,4.39,4.30,4.39,-4.39,-4.79,-0.08,-0.08,-0.08
59.16,4.30,4.41,4.30,4.41,-4.41,-4.83,-0.10,-0.10,-0.10
59.76,4.30,4.43,4.30,4.43,-4.43,-4.86,-0.12,-0.12,-0.12
60.35,4.30,4.45,4.30,4.45,-4.45,-4.89,-0.14,-0.14,-0.14
60.96,4.30,4.47,4.30,4.47,-4.47,-4.92,-0.17,-0.17,-0.17
61.57,4.30,4.49,4.30,4.49,-4.49,-4.94,-0.19,-0.19,-0.19
62.18,4.30,4.52,4.30,4.51,-4.51,-4.96,-0.21,-0.21,-0.21
62.80,4.30,4.54,4.30,4.54,-4.54,-4.98,-0.23,-0.23,-0.23
63.43,4.30,4.56,4.30,4.56,-4.56,-4.99,-0.26,-0.26,-0.26
64.07,4.30,4.59,4.30,4.59,-4.59,-4.99,-0.28,-0.29,-0.28
64.71,4.30,4.61,4.30,4.62,-4.62,-5.00,-0.31,-0.31,-0.31
65.35,4.30,4.64,4.30,4.64,-4.64,-5.00,-0.34,-0.34,-0.34
66.01,4.30,4.67,4.31,4.67,-4.67,-5.00,-0.37,-0.37,-0.36
66.67,4.30,4.69,4.31,4.70,-4.70,-4.99,-0.40,-0.39,-0.39
67.33,4.30,4.72,4.31,4.73,-4.73,-4.98,-0.43,-0.42,-0.42
68.01,4.30,4.75,4.31,4.77,-4.77,-4.97,-0.46,-0.45,-0.45
68.69,4.30,4.78,4.32,4.80,-4.80,-4.96,-0.49,-0.48,-0.48
69.37,4.30,4.81,4.32,4.83,-4.83,-4.95,-0.53,-0.51,-0.51
70.07,4.31,4.85,4.32,4.86,-4.86,-4.93,-0.55,-0.54,-0.54
70.77,4.32,4.90,4.32,4.89,-4.89,-4.92,-0.57,-0.58,-0.57
71.48,4.32,4.93,4.32,4.93,-4.93,-4.90,-0.60,-0.61,-0.61
72.19,4.32,4.96,4.32,4.95,-4.95,-4.89,-0.63,-0.64,-0.64
72.91,4.32,5.00,4.31,4.98,-4.98,-4.87,-0.66,-0.67,-0.67
73.64,4.31,5.02,4.30,5.01,-5.01,-4.85,-0.69,-0.71,-0.71
74.38,4.29,5.04,4.29,5.03,-5.03,-4.84,-0.74,-0.74,-0.74
75.12,4.28,5.06,4.28,5.05,-5.05,-4.82,-0.77,-0.78,-0.78
75.87,4.26,5.08,4.26,5.07,-5.07,-4.81,-0.81,-0.81,-0.81
76.63,4.24,5.09,4.24,5.09,-5.09,-4.80,-0.84,-0.85,-0.85
77.40,4.22,5.11,4.22,5.10,-5.10,-4.79,-0.88,-0.88,-0.89
78.17,4.19,5.12,4.20,5.12,-5.12,-4.79,-0.92,-0.92,-0.92
78.95,4.17,5.13,4.17,5.13,-5.13,-4.78,-0.96,-0.96,-0.96
79.74,4.14,5.14,4.14,5.14,-5.14,-4.78,-1.00,-1.00,-1.00
80.54,4.11,5.15,4.12,5.15,-5.15,-4.78,-1.04,-1.04,-1.04
81.35,4.09,5.17,4.09,5.17,-5.17,-4.79,-1.07,-1.08,-1.07
82.16,4.06,5.18,4.06,5.18,-5.18,-4.79,-1.12,-1.12,-1.11
82.98,4.03,5.18,4.04,5.20,-5.20,-4.80,-1.16,-1.15,-1.15
83.81,4.01,5.20,4.02,5.21,-5.21,-4.82,-1.20,-1.19,-1.19
84.65,3.99,5.22,4.00,5.23,-5.23,-4.84,-1.24,-1.23,-1.23
85.50,3.97,5.24,3.99,5.26,-5.26,-4.86,-1.28,-1.27,-1.26
86.35,3.96,5.27,3.98,5.28,-5.28,-4.88,-1.32,-1.31,-1.30
87.22,3.95,5.29,3.97,5.31,-5.31,-4.91,-1.36,-1.34,-1.34
88.09,3.95,5.33,3.96,5.35,-5.35,-4.94,-1.39,-1.38,-1.38
88.97,3.95,5.37,3.96,5.38,-5.38,-4.98,-1.43,-1.42,-1.42
89.86,3.96,5.42,3.96,5.42,-5.42,-5.02,-1.45,-1.46,-1.45
90.76,3.97,5.47,3.96,5.46,-5.46,-5.06,-1.48,-1.50,-1.49
91.66,3.97,5.51,3.97,5.50,-5.50,-5.11,-1.53,-1.53,-1.53
92.58,3.97,5.54,3.97,5.54,-5.54,-5.16,-1.57,-1.57,-1.57
93.51,3.97,5.58,3.98,5.59,-5.59,-5.21,-1.61,-1.61,-1.61
94.44,3.97,5.62,3.98,5.63,-5.63,-5.27,-1.66,-1.65,-1.65
95.39,3.97,5.66,3.99,5.68,-5.68,-5.33,-1.70,-1.69,-1.69
96.34,3.98,5.72,3.99,5.72,-5.72,-5.39,-1.74,-1.73,-1.73
97.30,3.99,5.77,3.99,5.76,-5.76,-5.46,-1.77,-1.77,-1.77
98.28,3.99,5.81,3.99,5.80,-5.80,-5.53,-1.81,-1.81,-1.81
99.26,3.99,5.85,3.98,5.84,-5.84,-5.60,-1.84,-1.86,-1.86
100.25,3.98,5.88,3.97,5.87,-5.87,-5.68,-1.88,-1.90,-1.90
101.25,3.96,5.91,3.96,5.90,-5.90,-5.76,-1.93,-1.94,-1.94
102.27,3.94,5.93,3.94,5.92,-5.92,-5.84,-1.98,-1.98,-1.98
103.29,3.93,5.96,3.92,5.94,-5.94,-5.92,-2.01,-2.02,-2.03
104.32,3.91,5.98,3.89,5.96,-5.96,-6.00,-2.05,-2.07,-2.07
105.37,3.88,6.00,3.87,5.98,-5.98,-6.08,-2.09,-2.11,-2.11
106.42,3.84,6.00,3.84,6.00,-6.00,-6.17,-2.15,-2.16,-2.15
107.48,3.81,6.01,3.80,6.01,-6.01,-6.25,-2.20,-2.21,-2.20
108.56,3.77,6.01,3.77,6.03,-6.03,-6.33,-2.25,-2.25,-2.24
109.64,3.73,6.02,3.74,6.04,-6.04,-6.42,-2.31,-2.30,-2.28
110.74,3.70,6.03,3.72,6.06,-6.06,-6.50,-2.36,-2.34,-2.33
111.85,3.67,6.05,3.70,6.08,-6.08,-6.57,-2.41,-2.39,-2.37
112.97,3.65,6.07,3.68,6.11,-6.11,-6.65,-2.45,-2.43,-2.41
114.10,3.63,6.09,3.67,6.14,-6.14,-6.72,-2.50,-2.47,-2.46
115.24,3.62,6.12,3.66,6.17,-6.17,-6.79,-2.55,-2.52,-2.50
116.39,3.63,6.18,3.65,6.21,-6.21,-6.85,-2.57,-2.56,-2.54
117.55,3.63,6.22,3.65,6.25,-6.25,-6.91,-2.61,-2.60,-2.59
118.73,3.64,6.27,3.65,6.29,-6.29,-6.96,-2.64,-2.64,-2.63
119.92,3.66,6.33,3.65,6.33,-6.33,-7.00,-2.66,-2.68,-2.67
121.12,3.66,6.38,3.65,6.37,-6.37,-7.04,-2.70,-2.71,-2.71
122.33,3.67,6.43,3.65,6.40,-6.40,-7.07,-2.73,-2.75,-2.75
123.55,3.67,6.46,3.65,6.44,-6.44,-7.10,-2.76,-2.79,-2.79
124.79,3.66,6.49,3.64,6.46,-6.46,-7.11,-2.80,-2.82,-2.83
126.03,3.64,6.51,3.63,6.49,-6.49,-7.12,-2.84,-2.86,-2.87
127.29,3.63,6.54,3.61,6.51,-6.51,-7.13,-2.87,-2.90,-2.90
128.57,3.60,6.54,3.59,6.52,-6.52,-7.12,-2.92,-2.93,-2.94
129.85,3.56,6.54,3.57,6.54,-6.54,-7.11,-2.97,-2.97,-2.97
131.15,3.53,6.54,3.54,6.54,-6.54,-7.09,-3.01,-3.01,-3.01
132.46,3.51,6.55,3.51,6.55,-6.55,-7.07,-3.03,-3.04,-3.04
133.79,3.47,6.55,3.47,6.55,-6.55,-7.03,-3.08,-3.08,-3.07
135.12,3.43,6.54,3.44,6.56,-6.56,-7.00,-3.12,-3.11,-3.10
136.48,3.41,6.55,3.41,6.56,-6.56,-6.96,-3.14,-3.15,-3.13
137.84,3.37,6.54,3.39,6.57,-6.57,-6.91,-3.19,-3.18,-3.16
139.22,3.35,6.55,3.37,6.57,-6.57,-6.86,-3.22,-3.21,-3.19
140.61,3.33,6.56,3.35,6.59,-6.59,-6.81,-3.25,-3.23,-3.22
142.02,3.31,6.56,3.34,6.60,-6.60,-6.76,-3.29,-3.26,-3.25
143.44,3.30,6.58,3.33,6.62,-6.62,-6.71,-3.32,-3.29,-3.27
144.87,3.30,6.60,3.33,6.64,-6.64,-6.65,-3.34,-3.31,-3.30
146.32,3.31,6.64,3.33,6.66,-6.66,-6.59,-3.35,-3.34,-3.33
147.78,3.32,6.67,3.33,6.69,-6.69,-6.54,-3.36,-3.36,-3.35
149.26,3.33,6.71,3.33,6.71,-6.71,-6.48,-3.38,-3.38,-3.38
150.75,3.34,6.74,3.33,6.73,-6.73,-6.43,-3.39,-3.41,-3.40
152.26,3.35,6.78,3.32,6.75,-6.75,-6.37,-3.40,-3.43,-3.42
153.78,3.34,6.79,3.32,6.77,-6.77,-6.32,-3.42,-3.45,-3.45
155.32,3.33,6.81,3.31,6.78,-6.78,-6.27,-3.45,-3.47,-3.47
156.88,3.31,6.81,3.30,6.79,-6.79,-6.23,-3.48,-3.50,-3.50
158.44,3.29,6.82,3.28,6.80,-6.80,-6.18,-3.51,-3.52,-3.53
160.03,3.26,6.81,3.26,6.80,-6.80,-6.14,-3.54,-3.55,-3.55
161.63,3.23,6.81,3.23,6.81,-6.81,-6.11,-3.57,-3.58,-3.57
163.24,3.20,6.80,3.20,6.81,-6.81,-6.07,-3.60,-3.61,-3.60
164.88,3.16,6.79,3.17,6.80,-6.80,-6.04,-3.64,-3.63,-3.62
166.53,3.13,6.78,3.14,6.80,-6.80,-6.02,-3.66,-3.66,-3.65
168.19,3.10,6.78,3.11,6.80,-6.80,-6.00,-3.69,-3.68,-3.67
169.87,3.06,6.76,3.09,6.79,-6.79,-5.98,-3.73,-3.71,-3.69
171.57,3.04,6.76,3.07,6.79,-6.79,-5.97,-3.75,-3.73,-3.72
173.29,3.02,6.76,3.05,6.80,-6.80,-5.96,-3.77,-3.75,-3.74
175.02,2.99,6.75,3.03,6.80,-6.80,-5.96,-3.81,-3.77,-3.76
176.77,2.99,6.77,3.02,6.80,-6.80,-5.96,-3.81,-3.78,-3.77
178.54,2.99,6.79,3.01,6.81,-6.81,-5.96,-3.81,-3.80,-3.79
180.32,3.00,6.81,3.00,6.81,-6.81,-5.97,-3.81,-3.81,-3.81
182.13,3.01,6.84,2.99,6.81,-6.81,-5.99,-3.80,-3.82,-3.82
183.95,3.00,6.84,2.98,6.81,-6.81,-6.00,-3.81,-3.84,-3.83
185.79,2.99,6.84,2.96,6.81,-6.81,-6.03,-3.82,-3.85,-3.85
187.65,2.97,6.83,2.95,6.80,-6.80,-6.05,-3.83,-3.86,-3.86
189.52,2.95,6.82,2.93,6.80,-6.80,-6.08,-3.84,-3.87,-3.87
191.42,2.92,6.80,2.91,6.79,-6.79,-6.12,-3.86,-3.88,-3.88
193.33,2.88,6.77,2.88,6.77,-6.77,-6.16,-3.89,-3.89,-3.89
195.27,2.85,6.75,2.85,6.76,-6.76,-6.20,-3.90,-3.90,-3.90
197.22,2.82,6.73,2.83,6.74,-6.74,-6.25,-3.92,-3.92,-3.91
199.19,2.79,6.71,2.80,6.73,-6.73,-6.30,-3.93,-3.93,-3.92
201.18,2.75,6.68,2.77,6.71,-6.71,-6.35,-3.96,-3.94,-3.93
203.19,2.72,6.66,2.75,6.70,-6.70,-6.40,-3.98,-3.95,-3.93
205.23,2.70,6.65,2.73,6.69,-6.69,-6.46,-3.99,-3.96,-3.94
207.28,2.68,6.64,2.72,6.68,-6.68,-6.52,-4.00,-3.97,-3.95
209.35,2.66,6.63,2.70,6.68,-6.68,-6.58,-4.02,-3.98,-3.96
211.44,2.66,6.64,2.69,6.68,-6.68,-6.64,-4.01,-3.99,-3.97
213.56,2.68,6.67,2.68,6.67,-6.67,-6.70,-3.99,-3.99,-3.98
215.69,2.68,6.68,2.67,6.67,-6.67,-6.77,-3.98,-4.00,-3.99
217.85,2.68,6.69,2.66,6.66,-6.66,-6.83,-3.98,-4.01,-4.00
220.03,2.67,6.69,2.64,6.66,-6.66,-6.89,-3.98,-4.01,-4.01
222.23,2.66,6.69,2.63,6.65,-6.65,-6.95,-3.98,-4.02,-4.02
224.45,2.64,6.67,2.61,6.64,-6.64,-7.00,-3.99,-4.03,-4.03
226.70,2.60,6.64,2.59,6.62,-6.62,-7.06,-4.02,-4.03,-4.04
228.96,2.57,6.62,2.57,6.61,-6.61,-7.11,-4.03,-4.04,-4.05
231.25,2.54,6.60,2.54,6.59,-6.59,-7.15,-4.05,-4.05,-4.05
233.57,2.51,6.57,2.51,6.57,-6.57,-7.19,-4.06,-4.06,-4.06
235.90,2.46,6.53,2.48,6.55,-6.55,-7.23,-4.09,-4.07,-4.06
238.26,2.44,6.51,2.45,6.53,-6.53,-7.26,-4.09,-4.08,-4.07
240.64,2.41,6.49,2.43,6.52,-6.52,-7.28,-4.10,-4.09,-4.07
243.05,2.39,6.47,2.41,6.50,-6.50,-7.30,-4.11,-4.09,-4.08
245.48,2.36,6.44,2.39,6.49,-6.49,-7.31,-4.12,-4.10,-4.08
247.93,2.34,6.43,2.38,6.48,-6.48,-7.31,-4.13,-4.10,-4.08
250.41,2.33,6.42,2.37,6.47,-6.47,-7.30,-4.14,-4.10,-4.09
252.92,2.33,6.43,2.36,6.47,-6.47,-7.29,-4.13,-4.11,-4.09
255.45,2.35,6.45,2.36,6.46,-6.46,-7.26,-4.11,-4.11,-4.10
258.00,2.36,6.47,2.35,6.46,-6.46,-7.24,-4.10,-4.11,-4.10
260.58,2.37,6.48,2.34,6.46,-6.46,-7.20,-4.08,-4.11,-4.11
263.19,2.36,6.48,2.34,6.45,-6.45,-7.16,-4.09,-4.12,-4.11
265.82,2.35,6.47,2.32,6.44,-6.44,-7.11,-4.09,-4.12,-4.12
268.48,2.33,6.46,2.31,6.43,-6.43,-7.05,-4.10,-4.12,-4.13
271.16,2.31,6.45,2.29,6.42,-6.42,-6.99,-4.10,-4.13,-4.13
273.87,2.27,6.41,2.27,6.40,-6.40,-6.92,-4.13,-4.14,-4.14
276.61,2.24,6.39,2.24,6.38,-6.38,-6.85,-4.14,-4.15,-4.15
279.38,2.21,6.37,2.21,6.36,-6.36,-6.78,-4.15,-4.15,-4.15
282.17,2.18,6.34,2.18,6.34,-6.34,-6.70,-4.16,-4.16,-4.16
284.99,2.14,6.30,2.15,6.32,-6.32,-6.62,-4.18,-4.17,-4.16
287.84,2.10,6.27,2.12,6.30,-6.30,-6.54,-4.20,-4.18,-4.16
290.72,2.07,6.24,2.10,6.28,-6.28,-6.46,-4.21,-4.18,-4.16
293.63,2.04,6.21,2.08,6.26,-6.26,-6.38,-4.22,-4.18,-4.17
296.57,2.02,6.19,2.07,6.25,-6.25,-6.30,-4.22,-4.18,-4.17
299.53,2.02,6.19,2.05,6.23,-6.23,-6.21,-4.21,-4.18,-4.17
302.53,2.02,6.19,2.04,6.22,-6.22,-6.13,-4.19,-4.18,-4.17
305.55,2.02,6.19,2.03,6.21,-6.21,-6.05,-4.18,-4.17,-4.17
308.61,2.03,6.20,2.02,6.19,-6.19,-5.97,-4.16,-4.17,-4.16
311.69,2.04,6.21,2.01,6.18,-6.18,-5.90,-4.13,-4.17,-4.16
314.81,2.03,6.20,2.00,6.16,-6.16,-5.82,-4.12,-4.16,-4.16
317.96,2.01,6.17,1.98,6.14,-6.14,-5.75,-4.13,-4.16,-4.16
321.14,1.99,6.15,1.97,6.12,-6.12,-5.68,-4.12,-4.15,-4.16
324.35,1.96,6.12,1.94,6.10,-6.10,-5.62,-4.13,-4.15,-4.15
327.59,1.92,6.08,1.92,6.07,-6.07,-5.56,-4.15,-4.15,-4.15
330.87,1.89,6.04,1.89,6.05,-6.05,-5.50,-4.15,-4.15,-4.15
334.18,1.86,6.01,1.86,6.02,-6.02,-5.44,-4.15,-4.15,-4.15
337.52,1.82,5.97,1.84,5.99,-5.99,-5.39,-4.17,-4.16,-4.14
340.90,1.79,5.94,1.81,5.96,-5.96,-5.34,-4.17,-4.16,-4.14
344.30,1.76,5.90,1.79,5.94,-5.94,-5.30,-4.17,-4.15,-4.14
347.75,1.74,5.88,1.76,5.92,-5.92,-5.26,-4.17,-4.15,-4.14
351.23,1.72,5.86,1.75,5.90,-5.90,-5.22,-4.17,-4.15,-4.13
354.74,1.70,5.84,1.73,5.88,-5.88,-5.19,-4.17,-4.15,-4.13
358.28,1.69,5.82,1.72,5.86,-5.86,-5.16,-4.17,-4.14,-4.13
361.87,1.69,5.82,1.71,5.85,-5.85,-5.14,-4.16,-4.14,-4.13
365.49,1.70,5.83,1.70,5.84,-5.84,-5.12,-4.13,-4.13,-4.12
369.14,1.71,5.84,1.70,5.82,-5.82,-5.10,-4.11,-4.13,-4.12
372.83,1.71,5.83,1.69,5.80,-5.80,-5.09,-4.09,-4.12,-4.12
376.56,1.70,5.82,1.67,5.79,-5.79,-5.08,-4.08,-4.11,-4.12
380.33,1.68,5.80,1.66,5.77,-5.77,-5.07,-4.08,-4.11,-4.11
384.13,1.66,5.77,1.64,5.74,-5.74,-5.07,-4.08,-4.10,-4.11
387.97,1.63,5.74,1.62,5.72,-5.72,-5.07,-4.09,-4.10,-4.10
391.85,1.60,5.70,1.59,5.69,-5.69,-5.08,-4.09,-4.10,-4.10
395.77,1.57,5.67,1.57,5.67,-5.67,-5.08,-4.09,-4.10,-4.09
399.73,1.54,5.63,1.54,5.64,-5.64,-5.09,-4.09,-4.09,-4.09
403.72,1.50,5.59,1.51,5.61,-5.61,-5.11,-4.10,-4.09,-4.08
407.76,1.47,5.55,1.49,5.58,-5.58,-5.12,-4.10,-4.09,-4.08
411.84,1.44,5.51,1.46,5.55,-5.55,-5.14,-4.11,-4.09,-4.07
415.96,1.41,5.48,1.44,5.53,-5.53,-5.16,-4.11,-4.08,-4.07
420.12,1.38,5.44,1.43,5.50,-5.50,-5.18,-4.12,-4.08,-4.06
424.32,1.38,5.44,1.41,5.48,-5.48,-5.20,-4.10,-4.07,-4.06
428.56,1.37,5.43,1.40,5.46,-5.46,-5.22,-4.09,-4.07,-4.05
432.85,1.38,5.44,1.38,5.45,-5.45,-5.24,-4.06,-4.06,-4.05
437.18,1.38,5.43,1.37,5.43,-5.43,-5.27,-4.04,-4.06,-4.05
441.55,1.38,5.43,1.36,5.41,-5.41,-5.29,-4.03,-4.05,-4.05
445.96,1.37,5.42,1.34,5.39,-5.39,-5.31,-4.02,-4.05,-4.05
450.42,1.35,5.40,1.33,5.37,-5.37,-5.33,-4.02,-4.05,-4.05
454.93,1.33,5.38,1.31,5.35,-5.35,-5.35,-4.02,-4.04,-4.05
459.48,1.29,5.34,1.29,5.33,-5.33,-5.37,-4.03,-4.04,-4.05
464.07,1.27,5.32,1.26,5.30,-5.30,-5.39,-4.03,-4.04,-4.04
468.71,1.24,5.29,1.24,5.27,-5.27,-5.40,-4.03,-4.04,-4.04
473.40,1.20,5.25,1.21,5.25,-5.25,-5.41,-4.04,-4.04,-4.04
478.13,1.17,5.21,1.18,5.22,-5.22,-5.42,-4.04,-4.04,-4.04
482.91,1.14,5.18,1.15,5.19,-5.19,-5.43,-4.04,-4.04,-4.03
487.74,1.11,5.14,1.12,5.16,-5.16,-5.43,-4.04,-4.03,-4.03
492.62,1.08,5.10,1.10,5.13,-5.13,-5.42,-4.05,-4.03,-4.02
497.55,1.06,5.08,1.08,5.11,-5.11,-5.42,-4.04,-4.02,-4.01
502.52,1.04,5.05,1.07,5.08,-5.08,-5.41,-4.04,-4.01,-4.00
507.55,1.03,5.03,1.06,5.07,-5.07,-5.39,-4.03,-4.01,-3.99
512.62,1.03,5.02,1.06,5.05,-5.05,-5.37,-4.02,-4.00,-3.98
517.75,1.04,5.02,1.05,5.04,-5.04,-5.35,-4.00,-3.99,-3.97
522.93,1.05,5.02,1.06,5.03,-5.03,-5.33,-3.98,-3.98,-3.96
528.16,1.05,5.01,1.06,5.02,-5.02,-5.30,-3.97,-3.96,-3.95
533.44,1.06,5.01,1.06,5.01,-5.01,-5.27,-3.95,-3.95,-3.94
538.77,1.07,5.01,1.06,5.00,-5.00,-5.23,-3.92,-3.94,-3.94
544.16,1.08,5.01,1.06,4.98,-4.98,-5.19,-3.90,-3.92,-3.93
549.60,1.07,4.99,1.06,4.97,-4.97,-5.15,-3.89,-3.91,-3.92
555.10,1.06,4.97,1.05,4.94,-4.94,-5.11,-3.88,-3.89,-3.91
560.65,1.05,4.95,1.04,4.92,-4.92,-5.07,-3.86,-3.88,-3.89
566.25,1.04,4.93,1.02,4.89,-4.89,-5.02,-3.85,-3.87,-3.88
571.92,1.01,4.88,1.00,4.86,-4.86,-4.98,-3.84,-3.86,-3.87
577.64,0.98,4.84,0.97,4.82,-4.82,-4.93,-3.84,-3.85,-3.85
583.41,0.95,4.79,0.94,4.79,-4.79,-4.89,-3.83,-3.84,-3.84
589.25,0.91,4.74,0.91,4.75,-4.75,-4.84,-3.83,-3.83,-3.82
595.14,0.88,4.69,0.88,4.71,-4.71,-4.80,-3.82,-3.83,-3.81
601.09,0.84,4.64,0.86,4.67,-4.67,-4.75,-3.83,-3.82,-3.80
607.10,0.81,4.60,0.83,4.64,-4.64,-4.71,-3.82,-3.81,-3.79
613.17,0.78,4.56,0.81,4.61,-4.61,-4.67,-3.82,-3.80,-3.78
619.30,0.76,4.54,0.79,4.58,-4.58,-4.63,-3.82,-3.79,-3.77
625.50,0.73,4.50,0.77,4.56,-4.56,-4.59,-3.82,-3.79,-3.76
631.75,0.72,4.49,0.76,4.54,-4.54,-4.56,-3.81,-3.78,-3.76
638.07,0.72,4.48,0.75,4.52,-4.52,-4.53,-3.80,-3.78,-3.76
644.45,0.73,4.49,0.74,4.51,-4.51,-4.50,-3.77,-3.77,-3.76
650.89,0.74,4.50,0.73,4.49,-4.49,-4.47,-3.75,-3.77,-3.76
657.40,0.74,4.51,0.72,4.48,-4.48,-4.45,-3.74,-3.76,-3.76
663.98,0.73,4.50,0.70,4.47,-4.47,-4.43,-3.73,-3.76,-3.77
670.62,0.71,4.48,0.69,4.45,-4.45,-4.41,-3.73,-3.76,-3.77
677.32,0.69,4.46,0.67,4.43,-4.43,-4.40,-3.74,-3.76,-3.77
684.10,0.67,4.44,0.65,4.41,-4.41,-4.39,-3.74,-3.76,-3.77
690.94,0.64,4.41,0.63,4.39,-4.39,-4.38,-3.74,-3.76,-3.77
