frequency,raw,error,smoothed,error_smoothed,equalization,parametric_eq,fixed_band_eq,equalized_raw,equalized_smoothed,target
20.00,1.10,-3.10,1.10,-3.10,3.10,3.16,0.52,4.20,4.20,4.20
20.20,1.15,-3.05,1.15,-3.05,3.05,3.12,0.53,4.19,4.20,4.20
20.40,1.21,-2.99,1.21,-2.99,2.99,3.08,0.55,4.20,4.20,4.20
20.61,1.27,-2.93,1.27,-2.93,2.93,3.04,0.57,4.19,4.20,4.20
20.81,1.33,-2.86,1.33,-2.86,2.87,2.99,0.59,4.20,4.20,4.19
21.02,1.39,-2.80,1.39,-2.80,2.81,2.94,0.61,4.20,4.19,4.19
21.23,1.44,-2.75,1.44,-2.75,2.75,2.89,0.63,4.19,4.19,4.19
21.44,1.50,-2.70,1.50,-2.69,2.69,2.84,0.65,4.19,4.19,4.20
21.66,1.56,-2.63,1.56,-2.63,2.63,2.78,0.67,4.18,4.19,4.19
21.87,1.62,-2.57,1.62,-2.57,2.57,2.73,0.70,4.19,4.19,4.19
22.09,1.68,-2.50,1.68,-2.50,2.50,2.67,0.72,4.19,4.18,4.18
22.31,1.73,-2.45,1.73,-2.44,2.44,2.62,0.74,4.18,4.18,4.18
22.54,1.79,-2.38,1.79,-2.38,2.38,2.56,0.77,4.17,4.17,4.17
22.76,1.84,-2.32,1.84,-2.32,2.32,2.50,0.79,4.16,4.16,4.16
22.99,1.90,-2.26,1.90,-2.26,2.26,2.44,0.82,4.16,4.16,4.16
23.22,1.96,-2.19,1.96,-2.20,2.20,2.38,0.84,4.16,4.15,4.15
23.45,2.01,-2.14,2.01,-2.14,2.14,2.32,0.87,4.15,4.15,4.15
23.69,2.07,-2.07,2.07,-2.07,2.08,2.26,0.90,4.14,4.15,4.14
23.92,2.13,-2.00,2.13,-2.01,2.01,2.19,0.93,4.15,4.14,4.13
24.16,2.18,-1.95,2.18,-1.95,1.95,2.13,0.95,4.14,4.14,4.13
24.40,2.23,-1.90,2.23,-1.90,1.90,2.07,0.98,4.13,4.13,4.13
24.65,2.29,-1.84,2.29,-1.84,1.84,2.01,1.01,4.13,4.13,4.13
24.89,2.34,-1.79,2.34,-1.79,1.78,1.95,1.04,4.12,4.13,4.13
25.14,2.40,-1.73,2.40,-1.73,1.73,1.89,1.07,4.13,4.13,4.13
25.39,2.45,-1.67,2.45,-1.67,1.67,1.83,1.09,4.12,4.12,4.12
25.65,2.50,-1.62,2.50,-1.62,1.62,1.77,1.12,4.12,4.12,4.12
25.91,2.55,-1.57,2.55,-1.57,1.57,1.71,1.15,4.12,4.12,4.12
26.16,2.60,-1.52,2.60,-1.52,1.52,1.65,1.18,4.12,4.12,4.13
26.43,2.66,-1.47,2.66,-1.47,1.47,1.59,1.20,4.12,4.12,4.12
26.69,2.71,-1.41,2.71,-1.41,1.42,1.53,1.23,4.13,4.13,4.12
26.96,2.76,-1.36,2.76,-1.36,1.37,1.47,1.25,4.13,4.13,4.12
27.23,2.81,-1.31,2.81,-1.32,1.32,1.41,1.27,4.13,4.12,4.12
27.50,2.85,-1.27,2.85,-1.27,1.27,1.35,1.29,4.12,4.12,4.12
27.77,2.90,-1.23,2.90,-1.22,1.22,1.30,1.31,4.12,4.12,4.13
28.05,2.96,-1.16,2.95,-1.17,1.17,1.24,1.33,4.13,4.12,4.12
28.33,3.00,-1.12,3.00,-1.11,1.12,1.18,1.35,4.12,4.12,4.12
28.62,3.05,-1.06,3.05,-1.06,1.06,1.13,1.36,4.11,4.11,4.11
28.90,3.09,-1.02,3.09,-1.02,1.01,1.07,1.37,4.10,4.11,4.11
29.19,3.14,-0.96,3.14,-0.96,0.96,1.02,1.37,4.10,4.10,4.10
29.48,3.18,-0.91,3.18,-0.91,0.91,0.96,1.38,4.09,4.09,4.09
29.78,3.23,-0.86,3.23,-0.86,0.86,0.91,1.38,4.09,4.09,4.09
30.08,3.27,-0.82,3.27,-0.81,0.81,0.86,1.38,4.08,4.08,4.09
30.38,3.32,-0.76,3.32,-0.76,0.76,0.80,1.37,4.08,4.08,4.08
30.68,3.36,-0.71,3.36,-0.71,0.71,0.75,1.36,4.07,4.07,4.07
30.99,3.41,-0.66,3.41,-0.66,0.66,0.70,1.34,4.07,4.07,4.07
31.30,3.46,-0.61,3.46,-0.61,0.61,0.65,1.33,4.07,4.07,4.07
31.61,3.50,-0.57,3.50,-0.57,0.57,0.60,1.30,4.07,4.07,4.07
31.93,3.55,-0.52,3.55,-0.52,0.52,0.55,1.28,4.07,4.07,4.07
32.24,3.60,-0.47,3.60,-0.47,0.48,0.49,1.25,4.08,4.07,4.07
32.57,3.64,-0.42,3.64,-0.43,0.43,0.44,1.22,4.07,4.07,4.06
32.89,3.68,-0.39,3.68,-0.39,0.38,0.39,1.18,4.07,4.07,4.07
33.22,3.73,-0.34,3.72,-0.34,0.34,0.34,1.14,4.07,4.06,4.07
33.55,3.76,-0.30,3.77,-0.30,0.29,0.29,1.09,4.05,4.06,4.06
33.89,3.81,-0.24,3.81,-0.25,0.24,0.24,1.05,4.05,4.05,4.05
34.23,3.85,-0.19,3.85,-0.19,0.20,0.19,1.00,4.04,4.04,4.04
34.57,3.89,-0.15,3.89,-0.14,0.14,0.14,0.94,4.03,4.03,4.04
34.92,3.93,-0.08,3.93,-0.09,0.09,0.09,0.88,4.02,4.02,4.01
35.27,3.97,-0.04,3.97,-0.03,0.03,0.04,0.83,4.00,4.00,4.01
35.62,4.01,0.03,4.01,0.02,-0.02,-0.01,0.76,3.99,3.98,3.98
35.97,4.04,0.08,4.04,0.08,-0.08,-0.06,0.70,3.96,3.96,3.96
36.33,4.08,0.14,4.08,0.14,-0.15,-0.11,0.63,3.93,3.94,3.94
36.70,4.12,0.21,4.12,0.21,-0.21,-0.16,0.57,3.91,3.91,3.91
37.06,4.16,0.28,4.16,0.28,-0.27,-0.21,0.50,3.89,3.88,3.88
37.43,4.19,0.34,4.19,0.34,-0.34,-0.26,0.43,3.85,3.85,3.85
37.81,4.23,0.40,4.23,0.40,-0.40,-0.31,0.35,3.83,3.82,3.83
38.19,4.26,0.47,4.26,0.47,-0.47,-0.36,0.28,3.79,3.79,3.79
38.57,4.30,0.53,4.30,0.53,-0.53,-0.41,0.20,3.77,3.77,3.77
38.95,4.34,0.60,4.34,0.60,-0.60,-0.46,0.13,3.74,3.74,3.74
39.34,4.37,0.66,4.37,0.66,-0.66,-0.51,0.05,3.71,3.72,3.71
39.74,4.40,0.72,4.40,0.72,-0.71,-0.56,-0.03,3.68,3.69,3.68
40.14,4.44,0.78,4.43,0.77,-0.77,-0.61,-0.11,3.67,3.66,3.66
40.54,4.46,0.82,4.47,0.83,-0.83,-0.67,-0.19,3.63,3.64,3.64
40.94,4.50,0.88,4.50,0.88,-0.88,-0.72,-0.27,3.62,3.62,3.62
41.35,4.53,0.94,4.53,0.93,-0.94,-0.77,-0.35,3.59,3.59,3.59
41.76,4.56,0.99,4.56,0.99,-0.99,-0.83,-0.43,3.57,3.57,3.57
42.18,4.59,1.03,4.59,1.04,-1.04,-0.88,-0.52,3.55,3.55,3.56
42.60,4.62,1.09,4.62,1.09,-1.09,-0.93,-0.60,3.53,3.53,3.53
43.03,4.65,1.14,4.65,1.14,-1.14,-0.99,-0.69,3.51,3.51,3.51
43.46,4.68,1.19,4.68,1.19,-1.18,-1.04,-0.77,3.50,3.50,3.49
43.90,4.71,1.24,4.71,1.24,-1.23,-1.10,-0.86,3.48,3.47,3.47
44.33,4.73,1.28,4.73,1.28,-1.28,-1.16,-0.94,3.45,3.45,3.45
44.78,4.75,1.32,4.75,1.32,-1.33,-1.21,-1.03,3.42,3.43,3.43
45.23,4.78,1.36,4.78,1.37,-1.37,-1.27,-1.12,3.41,3.40,3.42
45.68,4.80,1.42,4.80,1.42,-1.42,-1.33,-1.21,3.38,3.38,3.38
46.13,4.83,1.49,4.83,1.48,-1.47,-1.39,-1.30,3.36,3.36,3.34
46.60,4.85,1.52,4.85,1.53,-1.52,-1.45,-1.39,3.33,3.33,3.33
47.06,4.88,1.58,4.87,1.58,-1.58,-1.50,-1.48,3.30,3.29,3.30
47.53,4.89,1.62,4.89,1.63,-1.64,-1.56,-1.57,3.25,3.26,3.27
48.01,4.91,1.69,4.91,1.69,-1.69,-1.62,-1.66,3.22,3.22,3.22
48.49,4.94,1.75,4.94,1.75,-1.75,-1.68,-1.75,3.19,3.18,3.19
48.97,4.96,1.81,4.96,1.81,-1.81,-1.74,-1.84,3.15,3.15,3.15
49.46,4.98,1.87,4.98,1.87,-1.87,-1.80,-1.94,3.11,3.11,3.11
49.96,5.00,1.95,5.00,1.93,-1.93,-1.86,-2.03,3.07,3.06,3.05
50.46,5.01,1.99,5.01,1.99,-1.99,-1.92,-2.12,3.02,3.02,3.02
50.96,5.03,2.05,5.03,2.05,-2.05,-1.99,-2.21,2.98,2.98,2.98
51.47,5.05,2.10,5.05,2.11,-2.10,-2.05,-2.30,2.95,2.95,2.95
51.99,5.07,2.17,5.07,2.16,-2.15,-2.11,-2.39,2.92,2.91,2.90
52.51,5.08,2.21,5.08,2.20,-2.21,-2.17,-2.48,2.87,2.87,2.87
53.03,5.09,2.24,5.09,2.25,-2.26,-2.23,-2.57,2.83,2.83,2.85
53.56,5.10,2.30,5.10,2.30,-2.31,-2.29,-2.66,2.79,2.79,2.80
54.10,5.12,2.36,5.12,2.36,-2.36,-2.35,-2.74,2.76,2.76,2.76
54.64,5.13,2.41,5.13,2.42,-2.41,-2.40,-2.83,2.72,2.72,2.72
55.18,5.15,2.47,5.15,2.47,-2.46,-2.46,-2.91,2.69,2.68,2.68
55.74,5.16,2.52,5.16,2.52,-2.51,-2.52,-2.99,2.65,2.65,2.64
56.29,5.17,2.56,5.17,2.56,-2.56,-2.58,-3.06,2.61,2.61,2.61
56.86,5.18,2.60,5.18,2.60,-2.60,-2.63,-3.14,2.58,2.58,2.58
57.42,5.19,2.65,5.19,2.65,-2.64,-2.69,-3.20,2.55,2.55,2.54
58.00,5.20,2.69,5.20,2.69,-2.68,-2.74,-3.27,2.52,2.52,2.51
58.58,5.21,2.72,5.21,2.72,-2.72,-2.79,-3.33,2.49,2.48,2.49
59.16,5.21,2.75,5.21,2.75,-2.76,-2.84,-3.38,2.45,2.45,2.46
59.76,5.21,2.78,5.21,2.79,-2.81,-2.89,-3.43,2.40,2.41,2.43
60.35,5.22,2.85,5.22,2.84,-2.85,-2.93,-3.48,2.37,2.37,2.37
60.96,5.23,2.90,5.22,2.90,-2.90,-2.98,-3.52,2.33,2.32,2.33
61.57,5.23,2.96,5.23,2.96,-2.95,-3.02,-3.55,2.28,2.27,2.27
62.18,5.22,3.00,5.23,3.01,-3.00,-3.06,-3.58,2.22,2.22,2.22
62.80,5.23,3.06,5.23,3.06,-3.05,-3.10,-3.61,2.18,2.17,2.17
63.43,5.23,3.11,5.23,3.11,-3.10,-3.14,-3.62,2.13,2.13,2.12
64.07,5.23,3.15,5.23,3.15,-3.14,-3.18,-3.64,2.09,2.09,2.08
64.71,5.23,3.19,5.23,3.19,-3.18,-3.21,-3.64,2.05,2.04,2.04
65.35,5.22,3.21,5.23,3.22,-3.22,-3.24,-3.65,2.00,2.01,2.01
66.01,5.22,3.25,5.22,3.25,-3.25,-3.27,-3.64,1.97,1.97,1.97
66.67,5.22,3.28,5.21,3.28,-3.29,-3.30,-3.64,1.93,1.93,1.94
67.33,5.20,3.31,5.21,3.32,-3.32,-3.32,-3.63,1.88,1.89,1.89
68.01,5.20,3.35,5.20,3.35,-3.35,-3.35,-3.61,1.85,1.85,1.85
68.69,5.20,3.39,5.20,3.38,-3.38,-3.37,-3.59,1.82,1.81,1.81
69.37,5.19,3.41,5.19,3.42,-3.41,-3.39,-3.57,1.78,1.78,1.78
70.07,5.18,3.44,5.18,3.44,-3.44,-3.41,-3.54,1.74,1.74,1.74
70.77,5.17,3.47,5.17,3.47,-3.48,-3.43,-3.52,1.69,1.69,1.70
71.48,5.16,3.51,5.16,3.50,-3.51,-3.45,-3.49,1.65,1.65,1.65
72.19,5.14,3.53,5.14,3.53,-3.53,-3.46,-3.46,1.61,1.61,1.61
72.91,5.13,3.56,5.13,3.56,-3.56,-3.48,-3.42,1.57,1.57,1.57
73.64,5.12,3.60,5.12,3.59,-3.59,-3.49,-3.39,1.53,1.53,1.52
74.38,5.10,3.61,5.10,3.62,-3.61,-3.51,-3.36,1.49,1.49,1.49
75.12,5.09,3.64,5.09,3.64,-3.63,-3.52,-3.32,1.46,1.45,1.45
75.87,5.07,3.64,5.07,3.65,-3.65,-3.53,-3.29,1.42,1.42,1.43
76.63,5.05,3.66,5.05,3.67,-3.67,-3.54,-3.25,1.38,1.39,1.39
77.40,5.03,3.67,5.03,3.68,-3.68,-3.56,-3.22,1.35,1.35,1.36
78.17,5.02,3.71,5.01,3.69,-3.69,-3.57,-3.19,1.33,1.33,1.31
78.95,4.99,3.69,4.99,3.70,-3.70,-3.58,-3.16,1.29,1.30,1.30
79.74,4.97,3.70,4.97,3.70,-3.71,-3.59,-3.13,1.26,1.26,1.27
80.54,4.94,3.71,4.94,3.71,-3.71,-3.60,-3.10,1.23,1.23,1.23
81.35,4.92,3.71,4.92,3.72,-3.72,-3.62,-3.07,1.20,1.20,1.20
82.16,4.90,3.72,4.90,3.72,-3.73,-3.63,-3.05,1.17,1.17,1.18
82.98,4.87,3.73,4.87,3.73,-3.73,-3.64,-3.03,1.14,1.15,1.14
83.81,4.85,3.74,4.85,3.74,-3.73,-3.65,-3.01,1.12,1.11,1.11
84.65,4.82,3.75,4.82,3.74,-3.73,-3.67,-2.99,1.09,1.08,1.07
85.50,4.78,3.74,4.79,3.74,-3.74,-3.68,-2.97,1.04,1.05,1.04
86.35,4.76,3.73,4.75,3.73,-3.73,-3.69,-2.96,1.03,1.02,1.02
87.22,4.72,3.73,4.72,3.73,-3.73,-3.71,-2.94,0.99,0.99,0.99
88.09,4.69,3.73,4.69,3.73,-3.73,-3.72,-2.93,0.96,0.96,0.96
88.97,4.65,3.72,4.65,3.72,-3.72,-3.73,-2.93,0.93,0.93,0.93
89.86,4.62,3.72,4.62,3.72,-3.72,-3.75,-2.92,0.90,0.90,0.90
90.76,4.58,3.72,4.58,3.72,-3.71,-3.76,-2.92,0.87,0.87,0.86
91.66,4.54,3.71,4.54,3.71,-3.71,-3.77,-2.92,0.83,0.83,0.83
92.58,4.50,3.70,4.50,3.70,-3.71,-3.78,-2.92,0.79,0.79,0.80
93.51,4.46,3.70,4.46,3.70,-3.70,-3.79,-2.92,0.76,0.76,0.76
94.44,4.42,3.69,4.42,3.70,-3.70,-3.80,-2.93,0.72,0.72,0.73
95.39,4.38,3.70,4.38,3.70,-3.70,-3.81,-2.94,0.68,0.68,0.68
96.34,4.33,3.70,4.34,3.70,-3.70,-3.82,-2.95,0.63,0.63,0.63
97.30,4.29,3.69,4.29,3.70,-3.70,-3.82,-2.96,0.59,0.59,0.60
98.28,4.25,3.71,4.24,3.70,-3.70,-3.82,-2.97,0.55,0.55,0.54
99.26,4.19,3.70,4.20,3.70,-3.69,-3.82,-2.99,0.50,0.50,0.49
100.25,4.15,3.69,4.14,3.69,-3.69,-3.82,-3.00,0.46,0.46,0.46
101.25,4.09,3.67,4.09,3.68,-3.68,-3.81,-3.02,0.41,0.42,0.42
102.27,4.04,3.66,4.04,3.66,-3.66,-3.81,-3.04,0.38,0.38,0.38
103.29,3.99,3.65,3.99,3.64,-3.64,-3.79,-3.06,0.35,0.34,0.34
104.32,3.94,3.63,3.94,3.62,-3.62,-3.78,-3.08,0.32,0.31,0.31
105.37,3.88,3.60,3.88,3.60,-3.60,-3.76,-3.10,0.28,0.28,0.28
106.42,3.82,3.57,3.82,3.58,-3.58,-3.74,-3.12,0.24,0.24,0.25
107.48,3.76,3.56,3.76,3.55,-3.55,-3.72,-3.14,0.21,0.21,0.20
108.56,3.70,3.53,3.70,3.52,-3.53,-3.69,-3.17,0.17,0.17,0.17
109.64,3.64,3.49,3.64,3.50,-3.50,-3.66,-3.19,0.14,0.14,0.15
110.74,3.58,3.47,3.58,3.47,-3.47,-3.63,-3.21,0.11,0.11,0.11
111.85,3.52,3.45,3.52,3.44,-3.44,-3.59,-3.23,0.08,0.07,0.07
112.97,3.45,3.42,3.45,3.41,-3.42,-3.55,-3.24,0.03,0.03,0.03
114.10,3.38,3.38,3.38,3.39,-3.39,-3.51,-3.26,-0.01,-0.01,-0.00
115.24,3.31,3.36,3.31,3.36,-3.36,-3.46,-3.27,-0.05,-0.05,-0.05
116.39,3.24,3.34,3.24,3.34,-3.34,-3.42,-3.28,-0.10,-0.10,-0.10
117.55,3.17,3.31,3.17,3.32,-3.31,-3.37,-3.29,-0.14,-0.14,-0.14
118.73,3.10,3.30,3.10,3.29,-3.28,-3.32,-3.30,-0.18,-0.19,-0.20
119.92,3.02,3.26,3.02,3.26,-3.26,-3.27,-3.30,-0.24,-0.23,-0.24
121.12,2.95,3.22,2.95,3.23,-3.23,-3.21,-3.30,-0.28,-0.28,-0.27
122.33,2.88,3.21,2.88,3.20,-3.20,-3.16,-3.30,-0.32,-0.33,-0.33
123.55,2.80,3.17,2.80,3.17,-3.18,-3.10,-3.29,-0.38,-0.37,-0.37
124.79,2.73,3.14,2.72,3.14,-3.15,-3.04,-3.28,-0.42,-0.42,-0.41
126.03,2.64,3.10,2.65,3.11,-3.12,-2.99,-3.26,-0.48,-0.47,-0.46
127.29,2.57,3.10,2.57,3.09,-3.09,-2.93,-3.24,-0.52,-0.52,-0.53
128.57,2.49,3.07,2.49,3.06,-3.06,-2.87,-3.22,-0.57,-0.57,-0.58
129.85,2.40,3.03,2.40,3.03,-3.02,-2.81,-3.20,-0.63,-0.62,-0.63
131.15,2.32,2.99,2.32,2.99,-2.99,-2.75,-3.17,-0.67,-0.67,-0.67
132.46,2.23,2.95,2.23,2.95,-2.95,-2.70,-3.14,-0.72,-0.72,-0.72
133.79,2.14,2.90,2.14,2.90,-2.90,-2.64,-3.10,-0.76,-0.76,-0.76
135.12,2.05,2.86,2.05,2.85,-2.85,-2.58,-3.06,-0.80,-0.80,-0.81
136.48,1.96,2.79,1.96,2.80,-2.80,-2.53,-3.02,-0.84,-0.84,-0.83
137.84,1.88,2.75,1.87,2.75,-2.74,-2.47,-2.98,-0.86,-0.87,-0.87
139.22,1.78,2.69,1.78,2.68,-2.68,-2.42,-2.94,-0.90,-0.91,-0.91
140.61,1.68,2.62,1.69,2.63,-2.62,-2.37,-2.89,-0.94,-0.94,-0.94
142.02,1.59,2.56,1.59,2.56,-2.56,-2.32,-2.84,-0.97,-0.97,-0.97
143.44,1.50,2.50,1.50,2.49,-2.49,-2.27,-2.79,-0.99,-1.00,-1.00
144.87,1.40,2.42,1.40,2.43,-2.43,-2.22,-2.74,-1.03,-1.03,-1.02
146.32,1.31,2.36,1.31,2.36,-2.36,-2.17,-2.69,-1.05,-1.05,-1.05
147.78,1.21,2.29,1.21,2.29,-2.29,-2.12,-2.64,-1.08,-1.08,-1.08
149.26,1.12,2.23,1.11,2.23,-2.22,-2.08,-2.58,-1.10,-1.11,-1.11
150.75,1.01,2.16,1.01,2.16,-2.15,-2.03,-2.53,-1.14,-1.14,-1.15
152.26,0.92,2.08,0.92,2.09,-2.09,-1.99,-2.48,-1.17,-1.17,-1.16
153.78,0.82,2.02,0.82,2.02,-2.02,-1.95,-2.43,-1.20,-1.20,-1.20
155.32,0.73,1.95,0.72,1.95,-1.95,-1.91,-2.37,-1.22,-1.23,-1.22
156.88,0.62,1.88,0.63,1.89,-1.89,-1.87,-2.32,-1.27,-1.26,-1.26
158.44,0.53,1.82,0.53,1.82,-1.82,-1.83,-2.27,-1.29,-1.29,-1.29
160.03,0.44,1.76,0.43,1.76,-1.76,-1.80,-2.22,-1.32,-1.33,-1.32
161.63,0.34,1.70,0.34,1.70,-1.70,-1.76,-2.17,-1.36,-1.36,-1.36
163.24,0.25,1.66,0.25,1.65,-1.65,-1.73,-2.12,-1.40,-1.39,-1.41
164.88,0.16,1.60,0.16,1.60,-1.59,-1.70,-2.08,-1.43,-1.43,-1.44
166.53,0.07,1.55,0.07,1.54,-1.54,-1.67,-2.03,-1.47,-1.47,-1.48
168.19,-0.03,1.47,-0.02,1.48,-1.49,-1.64,-1.99,-1.52,-1.51,-1.50
169.87,-0.11,1.43,-0.11,1.43,-1.44,-1.61,-1.94,-1.55,-1.55,-1.54
171.57,-0.20,1.39,-0.20,1.39,-1.39,-1.58,-1.90,-1.59,-1.59,-1.59
173.29,-0.28,1.34,-0.28,1.34,-1.34,-1.55,-1.86,-1.62,-1.62,-1.62
175.02,-0.36,1.30,-0.36,1.30,-1.30,-1.53,-1.82,-1.66,-1.66,-1.66
176.77,-0.44,1.25,-0.44,1.26,-1.26,-1.50,-1.78,-1.70,-1.69,-1.69
178.54,-0.51,1.22,-0.51,1.22,-1.22,-1.48,-1.74,-1.73,-1.73,-1.73
180.32,-0.58,1.19,-0.58,1.18,-1.18,-1.46,-1.71,-1.76,-1.77,-1.77
182.13,-0.66,1.14,-0.65,1.15,-1.15,-1.44,-1.67,-1.81,-1.80,-1.80
183.95,-0.72,1.12,-0.72,1.12,-1.12,-1.42,-1.64,-1.84,-1.84,-1.84
185.79,-0.78,1.10,-0.78,1.09,-1.10,-1.40,-1.61,-1.88,-1.88,-1.88
187.65,-0.83,1.08,-0.83,1.07,-1.08,-1.38,-1.58,-1.91,-1.91,-1.91
189.52,-0.89,1.06,-0.89,1.06,-1.06,-1.36,-1.55,-1.95,-1.95,-1.95
191.42,-0.94,1.05,-0.94,1.05,-1.05,-1.35,-1.52,-1.99,-1.99,-1.99
193.33,-0.98,1.04,-0.98,1.04,-1.04,-1.33,-1.50,-2.02,-2.02,-2.02
195.27,-1.03,1.03,-1.03,1.03,-1.03,-1.32,-1.47,-2.06,-2.06,-2.06
197.22,-1.07,1.03,-1.07,1.03,-1.02,-1.30,-1.45,-2.09,-2.09,-2.10
199.19,-1.11,1.02,-1.11,1.02,-1.02,-1.29,-1.42,-2.13,-2.13,-2.13
201.18,-1.14,1.02,-1.14,1.02,-1.02,-1.28,-1.40,-2.16,-2.16,-2.16
203.19,-1.17,1.02,-1.17,1.01,-1.01,-1.27,-1.38,-2.18,-2.19,-2.19
205.23,-1.21,1.00,-1.20,1.01,-1.01,-1.26,-1.36,-2.22,-2.22,-2.21
207.28,-1.23,1.01,-1.23,1.01,-1.01,-1.25,-1.34,-2.24,-2.24,-2.24
209.35,-1.26,1.01,-1.26,1.01,-1.01,-1.24,-1.33,-2.27,-2.27,-2.27
211.44,-1.28,1.02,-1.28,1.02,-1.02,-1.23,-1.31,-2.30,-2.30,-2.30
213.56,-1.31,1.02,-1.31,1.02,-1.02,-1.22,-1.29,-2.33,-2.33,-2.33
215.69,-1.33,1.02,-1.33,1.02,-1.02,-1.22,-1.28,-2.35,-2.35,-2.35
217.85,-1.35,1.02,-1.35,1.03,-1.03,-1.21,-1.26,-2.38,-2.38,-2.37
220.03,-1.37,1.04,-1.37,1.03,-1.03,-1.21,-1.25,-2.40,-2.40,-2.41
222.23,-1.39,1.04,-1.39,1.04,-1.03,-1.20,-1.23,-2.42,-2.42,-2.43
224.45,-1.41,1.04,-1.41,1.04,-1.03,-1.20,-1.22,-2.44,-2.45,-2.45
226.70,-1.43,1.04,-1.43,1.04,-1.04,-1.19,-1.21,-2.47,-2.47,-2.47
228.96,-1.45,1.03,-1.45,1.03,-1.04,-1.19,-1.20,-2.49,-2.49,-2.48
231.25,-1.46,1.04,-1.46,1.04,-1.05,-1.19,-1.19,-2.51,-2.51,-2.50
233.57,-1.48,1.04,-1.47,1.05,-1.05,-1.19,-1.18,-2.53,-2.53,-2.52
235.90,-1.48,1.07,-1.48,1.06,-1.06,-1.19,-1.17,-2.54,-2.54,-2.55
238.26,-1.49,1.08,-1.49,1.07,-1.07,-1.19,-1.16,-2.56,-2.56,-2.57
240.64,-1.50,1.07,-1.50,1.08,-1.07,-1.19,-1.15,-2.57,-2.57,-2.57
243.05,-1.50,1.08,-1.51,1.08,-1.08,-1.19,-1.14,-2.58,-2.59,-2.58
245.48,-1.51,1.09,-1.51,1.09,-1.09,-1.19,-1.13,-2.60,-2.60,-2.60
247.93,-1.52,1.10,-1.51,1.10,-1.10,-1.19,-1.12,-2.62,-2.61,-2.62
250.41,-1.51,1.11,-1.51,1.11,-1.11,-1.19,-1.11,-2.62,-2.62,-2.62
252.92,-1.51,1.11,-1.51,1.12,-1.12,-1.19,-1.10,-2.63,-2.63,-2.63
255.45,-1.51,1.13,-1.51,1.13,-1.13,-1.20,-1.09,-2.64,-2.64,-2.64
258.00,-1.51,1.14,-1.51,1.14,-1.14,-1.20,-1.08,-2.65,-2.65,-2.65
260.58,-1.50,1.15,-1.50,1.16,-1.16,-1.20,-1.07,-2.66,-2.66,-2.65
263.19,-1.49,1.18,-1.49,1.17,-1.17,-1.21,-1.07,-2.66,-2.67,-2.67
265.82,-1.49,1.19,-1.49,1.19,-1.19,-1.21,-1.06,-2.68,-2.67,-2.68
268.48,-1.48,1.20,-1.48,1.20,-1.21,-1.22,-1.05,-2.69,-2.69,-2.68
271.16,-1.47,1.23,-1.47,1.22,-1.22,-1.23,-1.04,-2.69,-2.70,-2.70
273.87,-1.47,1.23,-1.46,1.24,-1.24,-1.23,-1.04,-2.71,-2.71,-2.70
276.61,-1.45,1.27,-1.46,1.26,-1.26,-1.24,-1.03,-2.71,-2.72,-2.72
279.38,-1.45,1.28,-1.44,1.28,-1.28,-1.24,-1.02,-2.73,-2.73,-2.73
282.17,-1.43,1.31,-1.43,1.30,-1.30,-1.25,-1.02,-2.73,-2.73,-2.74
284.99,-1.42,1.31,-1.42,1.32,-1.32,-1.26,-1.01,-2.74,-2.74,-2.73
287.84,-1.41,1.33,-1.41,1.34,-1.34,-1.27,-1.01,-2.75,-2.74,-2.74
290.72,-1.39,1.37,-1.39,1.36,-1.36,-1.27,-1.00,-2.75,-2.75,-2.76
293.63,-1.38,1.38,-1.38,1.38,-1.37,-1.28,-1.00,-2.75,-2.75,-2.76
296.57,-1.37,1.39,-1.37,1.39,-1.39,-1.29,-0.99,-2.76,-2.76,-2.76
299.53,-1.36,1.40,-1.36,1.40,-1.40,-1.30,-0.99,-2.76,-2.76,-2.76
302.53,-1.35,1.42,-1.35,1.42,-1.42,-1.31,-0.99,-2.77,-2.77,-2.77
305.55,-1.34,1.43,-1.34,1.43,-1.43,-1.32,-0.99,-2.77,-2.77,-2.77
308.61,-1.33,1.44,-1.33,1.44,-1.45,-1.33,-0.99,-2.78,-2.78,-2.77
311.69,-1.32,1.46,-1.32,1.46,-1.46,-1.33,-0.98,-2.78,-2.78,-2.78
314.81,-1.30,1.48,-1.31,1.47,-1.47,-1.34,-0.98,-2.77,-2.78,-2.78
317.96,-1.30,1.48,-1.29,1.49,-1.48,-1.35,-0.99,-2.78,-2.78,-2.78
321.14,-1.28,1.49,-1.29,1.50,-1.49,-1.36,-0.99,-2.77,-2.78,-2.78
324.35,-1.28,1.51,-1.28,1.50,-1.50,-1.37,-0.99,-2.78,-2.78,-2.79
327.59,-1.27,1.50,-1.27,1.51,-1.51,-1.38,-0.99,-2.78,-2.78,-2.77
330.87,-1.26,1.51,-1.26,1.52,-1.52,-1.39,-0.99,-2.78,-2.78,-2.77
334.18,-1.25,1.54,-1.25,1.53,-1.53,-1.40,-1.00,-2.78,-2.78,-2.79
337.52,-1.24,1.54,-1.24,1.54,-1.53,-1.41,-1.00,-2.77,-2.78,-2.78
340.90,-1.23,1.55,-1.23,1.54,-1.54,-1.41,-1.01,-2.77,-2.77,-2.78
344.30,-1.23,1.54,-1.23,1.55,-1.55,-1.42,-1.02,-2.78,-2.77,-2.77
347.75,-1.22,1.54,-1.22,1.55,-1.55,-1.43,-1.02,-2.77,-2.77,-2.76
351.23,-1.21,1.57,-1.22,1.55,-1.56,-1.44,-1.03,-2.77,-2.77,-2.78
354.74,-1.21,1.55,-1.21,1.56,-1.56,-1.44,-1.04,-2.77,-2.77,-2.76
358.28,-1.21,1.56,-1.20,1.56,-1.56,-1.45,-1.05,-2.77,-2.76,-2.77
361.87,-1.19,1.57,-1.20,1.56,-1.57,-1.46,-1.06,-2.76,-2.76,-2.76
365.49,-1.19,1.57,-1.19,1.57,-1.57,-1.46,-1.07,-2.76,-2.76,-2.76
369.14,-1.19,1.56,-1.18,1.57,-1.57,-1.47,-1.08,-2.76,-2.76,-2.75
372.83,-1.18,1.58,-1.18,1.57,-1.57,-1.48,-1.10,-2.75,-2.76,-2.76
376.56,-1.18,1.58,-1.18,1.58,-1.58,-1.48,-1.11,-2.76,-2.76,-2.76
380.33,-1.18,1.58,-1.18,1.58,-1.58,-1.49,-1.12,-2.76,-2.76,-2.76
384.13,-1.18,1.58,-1.18,1.58,-1.58,-1.49,-1.14,-2.76,-2.76,-2.76
387.97,-1.18,1.57,-1.18,1.58,-1.58,-1.49,-1.15,-2.76,-2.76,-2.75
391.85,-1.18,1.57,-1.18,1.57,-1.58,-1.50,-1.17,-2.76,-2.76,-2.75
395.77,-1.18,1.57,-1.18,1.57,-1.57,-1.50,-1.19,-2.75,-2.75,-2.75
399.73,-1.18,1.58,-1.18,1.57,-1.57,-1.50,-1.20,-2.75,-2.75,-2.76
403.72,-1.18,1.57,-1.18,1.57,-1.57,-1.50,-1.22,-2.75,-2.75,-2.75
407.76,-1.18,1.57,-1.18,1.57,-1.57,-1.50,-1.24,-2.75,-2.75,-2.75
411.84,-1.18,1.57,-1.18,1.56,-1.57,-1.50,-1.25,-2.75,-2.75,-2.75
415.96,-1.18,1.56,-1.18,1.57,-1.56,-1.50,-1.27,-2.74,-2.74,-2.74
420.12,-1.19,1.56,-1.19,1.56,-1.56,-1.50,-1.29,-2.75,-2.75,-2.75
424.32,-1.19,1.56,-1.19,1.55,-1.56,-1.49,-1.31,-2.75,-2.75,-2.75
428.56,-1.20,1.54,-1.20,1.55,-1.55,-1.49,-1.32,-2.75,-2.75,-2.74
432.85,-1.20,1.54,-1.20,1.55,-1.55,-1.48,-1.34,-2.75,-2.75,-2.74
437.18,-1.21,1.54,-1.21,1.54,-1.54,-1.48,-1.36,-2.75,-2.75,-2.75
441.55,-1.21,1.55,-1.21,1.54,-1.54,-1.47,-1.37,-2.75,-2.75,-2.76
445.96,-1.22,1.54,-1.22,1.54,-1.53,-1.47,-1.39,-2.75,-2.75,-2.76
450.42,-1.23,1.53,-1.23,1.53,-1.52,-1.46,-1.40,-2.75,-2.75,-2.76
454.93,-1.24,1.52,-1.24,1.52,-1.52,-1.45,-1.41,-2.76,-2.76,-2.76
459.48,-1.25,1.51,-1.25,1.51,-1.51,-1.44,-1.42,-2.76,-2.76,-2.76
464.07,-1.26,1.49,-1.26,1.50,-1.50,-1.43,-1.43,-2.76,-2.76,-2.75
468.71,-1.26,1.49,-1.26,1.49,-1.49,-1.42,-1.44,-2.75,-2.75,-2.75
473.40,-1.27,1.48,-1.27,1.48,-1.48,-1.41,-1.45,-2.75,-2.75,-2.75
478.13,-1.28,1.47,-1.28,1.47,-1.47,-1.40,-1.46,-2.75,-2.75,-2.75
482.91,-1.29,1.46,-1.29,1.46,-1.46,-1.39,-1.46,-2.75,-2.75,-2.75
487.74,-1.30,1.44,-1.30,1.44,-1.44,-1.38,-1.46,-2.74,-2.75,-2.74
492.62,-1.32,1.42,-1.31,1.43,-1.43,-1.36,-1.47,-2.75,-2.74,-2.74
