frequency,raw
20.00,-12.54
20.20,-12.50
20.40,-12.45
20.61,-12.41
20.81,-12.36
21.02,-12.32
21.23,-12.27
21.44,-12.22
21.66,-12.17
21.87,-12.12
22.09,-12.07
22.31,-12.02
22.54,-11.97
22.76,-11.92
22.99,-11.87
23.22,-11.82
23.45,-11.77
23.69,-11.72
23.92,-11.67
24.16,-11.61
24.40,-11.56
24.65,-11.50
24.89,-11.44
25.14,-11.39
25.39,-11.33
25.65,-11.28
25.91,-11.22
26.16,-11.16
26.43,-11.10
26.69,-11.04
26.96,-10.98
27.23,-10.92
27.50,-10.85
27.77,-10.79
28.05,-10.73
28.33,-10.67
28.62,-10.60
28.90,-10.54
29.19,-10.48
29.48,-10.41
29.78,-10.34
30.08,-10.27
30.38,-10.21
30.68,-10.14
30.99,-10.07
31.30,-10.00
31.61,-9.92
31.93,-9.85
32.24,-9.77
32.57,-9.70
32.89,-9.62
33.22,-9.55
33.55,-9.47
33.89,-9.39
34.23,-9.31
34.57,-9.24
34.92,-9.17
35.27,-9.09
35.62,-9.01
35.97,-8.93
36.33,-8.84
36.70,-8.76
37.06,-8.67
37.43,-8.58
37.81,-8.50
38.19,-8.41
38.57,-8.32
38.95,-8.24
39.34,-8.15
39.74,-8.05
40.14,-7.96
40.54,-7.88
40.94,-7.79
41.35,-7.71
41.76,-7.63
42.18,-7.55
42.60,-7.47
43.03,-7.40
43.46,-7.33
43.90,-7.26
44.33,-7.19
44.78,-7.13
45.23,-7.07
45.68,-7.03
46.13,-6.98
46.60,-6.93
47.06,-6.88
47.53,-6.84
48.01,-6.79
48.49,-6.75
48.97,-6.70
49.46,-6.67
49.96,-6.63
50.46,-6.59
50.96,-6.55
51.47,-6.51
51.99,-6.46
52.51,-6.42
53.03,-6.38
53.56,-6.33
54.10,-6.28
54.64,-6.25
55.18,-6.21
55.74,-6.17
56.29,-6.13
56.86,-6.08
57.42,-6.04
58.00,-6.01
58.58,-5.98
59.16,-5.94
59.76,-5.90
60.35,-5.86
60.96,-5.82
61.57,-5.77
62.18,-5.72
62.80,-5.67
63.43,-5.61
64.07,-5.55
64.71,-5.50
65.35,-5.45
66.01,-5.40
66.67,-5.34
67.33,-5.28
68.01,-5.22
68.69,-5.15
69.37,-5.08
70.07,-5.00
70.77,-4.93
71.48,-4.85
72.19,-4.78
72.91,-4.69
73.64,-4.61
74.38,-4.53
75.12,-4.46
75.87,-4.38
76.63,-4.31
77.40,-4.23
78.17,-4.17
78.95,-4.11
79.74,-4.06
80.54,-4.00
81.35,-3.95
82.16,-3.89
82.98,-3.83
83.81,-3.78
84.65,-3.74
85.50,-3.70
86.35,-3.66
87.22,-3.63
88.09,-3.61
88.97,-3.58
89.86,-3.55
90.76,-3.52
91.66,-3.49
92.58,-3.46
93.51,-3.42
94.44,-3.38
95.39,-3.33
96.34,-3.30
97.30,-3.25
98.28,-3.21
99.26,-3.15
100.25,-3.07
101.25,-3.01
102.27,-2.94
103.29,-2.89
104.32,-2.83
105.37,-2.74
106.42,-2.67
107.48,-2.59
108.56,-2.51
109.64,-2.42
110.74,-2.33
111.85,-2.24
112.97,-2.15
114.10,-2.06
115.24,-1.97
116.39,-1.92
117.55,-1.86
118.73,-1.78
119.92,-1.70
121.12,-1.63
122.33,-1.60
123.55,-1.57
124.79,-1.52
126.03,-1.48
127.29,-1.47
128.57,-1.46
129.85,-1.45
131.15,-1.45
132.46,-1.46
133.79,-1.49
135.12,-1.52
136.48,-1.53
137.84,-1.56
139.22,-1.58
140.61,-1.62
142.02,-1.69
143.44,-1.73
144.87,-1.78
146.32,-1.82
147.78,-1.88
149.26,-1.93
150.75,-2.00
152.26,-2.04
153.78,-2.09
155.32,-2.13
156.88,-2.19
158.44,-2.23
160.03,-2.31
161.63,-2.35
163.24,-2.39
164.88,-2.45
166.53,-2.50
168.19,-2.55
169.87,-2.62
171.57,-2.69
173.29,-2.75
175.02,-2.83
176.77,-2.88
178.54,-2.94
180.32,-3.00
182.13,-3.08
183.95,-3.20
185.79,-3.27
187.65,-3.35
189.52,-3.41
191.42,-3.49
193.33,-3.55
195.27,-3.61
197.22,-3.65
199.19,-3.69
201.18,-3.73
203.19,-3.76
205.23,-3.78
207.28,-3.80
209.35,-3.81
211.44,-3.81
213.56,-3.80
215.69,-3.77
217.85,-3.75
220.03,-3.74
222.23,-3.70
224.45,-3.64
226.70,-3.58
228.96,-3.50
231.25,-3.43
233.57,-3.34
235.90,-3.22
238.26,-3.14
240.64,-3.02
243.05,-2.91
245.48,-2.78
247.93,-2.63
250.41,-2.54
252.92,-2.41
255.45,-2.32
258.00,-2.23
260.58,-2.10
263.19,-2.01
265.82,-1.90
268.48,-1.82
271.16,-1.74
273.87,-1.66
276.61,-1.62
279.38,-1.57
282.17,-1.54
284.99,-1.52
287.84,-1.49
290.72,-1.48
293.63,-1.47
296.57,-1.47
299.53,-1.47
302.53,-1.48
305.55,-1.49
308.61,-1.49
311.69,-1.48
314.81,-1.47
317.96,-1.47
321.14,-1.48
324.35,-1.49
327.59,-1.51
330.87,-1.53
334.18,-1.56
337.52,-1.60
340.90,-1.62
344.30,-1.65
347.75,-1.67
351.23,-1.70
354.74,-1.74
358.28,-1.78
361.87,-1.82
365.49,-1.86
369.14,-1.90
372.83,-1.93
376.56,-1.97
380.33,-1.99
384.13,-2.02
387.97,-2.05
391.85,-2.08
395.77,-2.11
399.73,-2.14
403.72,-2.17
407.76,-2.18
411.84,-2.17
415.96,-2.16
420.12,-2.12
424.32,-2.09
428.56,-2.06
432.85,-2.04
437.18,-2.01
441.55,-1.98
445.96,-1.94
450.42,-1.89
454.93,-1.85
459.48,-1.81
464.07,-1.77
468.71,-1.73
473.40,-1.68
478.13,-1.64
482.91,-1.60
487.74,-1.56
492.62,-1.51
497.55,-1.45
502.52,-1.37
507.55,-1.30
512.62,-1.24
517.75,-1.17
522.93,-1.12
528.16,-1.07
533.44,-1.02
538.77,-0.95
544.16,-0.88
549.60,-0.83
555.10,-0.79
560.65,-0.75
566.25,-0.70
571.92,-0.65
577.64,-0.59
583.41,-0.55
589.25,-0.51
595.14,-0.46
601.09,-0.41
607.10,-0.36
613.17,-0.32
619.30,-0.30
625.50,-0.28
631.75,-0.26
638.07,-0.23
644.45,-0.21
650.89,-0.17
657.40,-0.14
663.98,-0.11
670.62,-0.08
677.32,-0.06
684.10,-0.04
690.94,-0.00
697.85,0.04
704.83,0.06
711.87,0.10
718.99,0.12
726.18,0.13
733.44,0.15
740.78,0.15
748.19,0.15
755.67,0.14
763.23,0.13
770.86,0.13
778.57,0.13
786.35,0.13
794.22,0.13
802.16,0.13
810.18,0.13
818.28,0.13
826.46,0.13
834.73,0.13
843.08,0.13
851.51,0.13
860.02,0.13
868.62,0.13
877.31,0.13
886.08,0.13
894.94,0.13
903.89,0.13
912.93,0.14
922.06,0.15
931.28,0.15
940.59,0.15
950.00,0.13
959.50,0.11
969.09,0.09
978.78,0.07
988.57,0.04
998.46,0.01
1008.44,-0.02
1018.53,-0.05
1028.71,-0.07
1039.00,-0.11
1049.39,-0.15
1059.88,-0.19
1070.48,-0.23
1081.19,-0.26
1092.00,-0.29
1102.92,-0.32
1113.95,-0.34
1125.09,-0.38
1136.34,-0.43
1147.70,-0.48
1159.18,-0.54
1170.77,-0.59
1182.48,-0.64
1194.30,-0.68
1206.25,-0.71
1218.31,-0.74
1230.49,-0.76
1242.80,-0.79
1255.22,-0.83
1267.78,-0.87
1280.45,-0.91
1293.26,-0.94
1306.19,-0.97
1319.25,-1.00
1332.45,-1.03
1345.77,-1.05
1359.23,-1.07
1372.82,-1.10
1386.55,-1.12
1400.41,-1.16
1414.42,-1.19
1428.56,-1.22
1442.85,-1.25
1457.28,-1.26
1471.85,-1.28
1486.57,-1.31
1501.43,-1.36
1516.45,-1.41
1531.61,-1.46
1546.93,-1.50
1562.40,-1.55
1578.02,-1.60
1593.80,-1.65
1609.74,-1.69
1625.84,-1.73
1642.10,-1.78
1658.52,-1.83
1675.10,-1.89
1691.85,-1.96
1708.77,-2.02
1725.86,-2.08
1743.12,-2.15
1760.55,-2.21
1778.15,-2.27
1795.94,-2.34
1813.90,-2.42
1832.03,-2.51
1850.36,-2.59
1868.86,-2.66
1887.55,-2.72
1906.42,-2.79
1925.49,-2.87
1944.74,-2.95
1964.19,-3.02
1983.83,-3.08
2003.67,-3.15
2023.71,-3.23
2043.94,-3.28
2064.38,-3.33
2085.03,-3.37
2105.88,-3.41
2126.94,-3.43
2148.20,-3.43
2169.69,-3.44
2191.38,-3.44
2213.30,-3.43
2235.43,-3.41
2257.78,-3.37
2280.36,-3.31
2303.17,-3.25
2326.20,-3.19
2349.46,-3.12
2372.95,-3.04
2396.68,-2.96
2420.65,-2.85
2444.86,-2.76
2469.31,-2.66
2494.00,-2.56
2518.94,-2.46
2544.13,-2.35
2569.57,-2.23
2595.27,-2.10
2621.22,-1.97
2647.43,-1.85
2673.90,-1.72
2700.64,-1.59
2727.65,-1.46
2754.93,-1.34
2782.48,-1.22
2810.30,-1.10
2838.40,-0.97
2866.79,-0.85
2895.46,-0.76
2924.41,-0.65
2953.65,-0.56
2983.19,-0.48
3013.02,-0.40
3043.15,-0.31
3073.58,-0.22
3104.32,-0.14
3135.36,-0.06
3166.72,0.03
3198.38,0.11
3230.37,0.18
3262.67,0.25
3295.30,0.31
3328.25,0.36
3361.53,0.40
3395.15,0.45
3429.10,0.48
3463.39,0.50
3498.03,0.50
3533.01,0.50
3568.34,0.48
3604.02,0.46
3640.06,0.42
3676.46,0.37
3713.22,0.31
3750.36,0.25
3787.86,0.17
3825.74,0.06
3864.00,-0.05
3902.64,-0.19
3941.66,-0.35
3981.08,-0.53
4020.89,-0.72
4061.10,-0.94
4101.71,-1.16
4142.73,-1.40
4184.15,-1.65
4226.00,-1.92
4268.26,-2.19
4310.94,-2.46
4354.05,-2.72
4397.59,-2.98
4441.56,-3.24
4485.98,-3.47
4530.84,-3.67
4576.15,-3.83
4621.91,-3.96
4668.13,-4.04
4714.81,-4.08
4761.96,-4.06
4809.58,-3.99
4857.67,-3.86
4906.25,-3.67
4955.31,-3.42
5004.87,-3.10
5054.91,-2.74
5105.46,-2.34
5156.52,-1.91
5208.08,-1.45
5260.16,-0.95
5312.77,-0.45
5365.89,0.06
5419.55,0.58
5473.75,1.09
5528.49,1.57
5583.77,2.03
5639.61,2.47
5696.00,2.89
5752.96,3.27
5810.49,3.62
5868.60,3.92
5927.28,4.19
5986.56,4.43
6046.42,4.63
6106.89,4.79
6167.96,4.90
6229.64,4.97
6291.93,5.02
6354.85,5.03
6418.40,5.01
6482.58,4.95
6547.41,4.85
6612.88,4.70
6679.01,4.48
6745.80,4.21
6813.26,3.91
6881.39,3.55
6950.21,3.13
7019.71,2.65
7089.91,2.13
7160.81,1.55
7232.41,0.91
7304.74,0.23
7377.79,-0.48
7451.56,-1.23
7526.08,-2.01
7601.34,-2.82
7677.35,-3.63
7754.13,-4.45
7831.67,-5.26
7909.98,-6.07
7989.08,-6.89
8068.98,-7.70
8149.67,-8.48
8231.16,-9.23
8313.47,-9.96
8396.61,-10.67
8480.57,-11.32
8565.38,-11.92
8651.03,-12.47
8737.54,-12.95
8824.92,-13.34
8913.17,-13.62
9002.30,-13.81
9092.32,-13.90
9183.25,-13.86
9275.08,-13.72
9367.83,-13.46
9461.51,-13.10
9556.12,-12.64
9651.68,-12.13
9748.20,-11.57
9845.68,-10.98
9944.14,-10.37
10043.58,-9.79
10144.02,-9.23
10245.46,-8.73
10347.91,-8.27
10451.39,-7.87
10555.91,-7.50
10661.46,-7.17
10768.08,-6.87
10875.76,-6.62
10984.52,-6.40
11094.36,-6.20
11205.31,-6.02
11317.36,-5.85
11430.53,-5.70
11544.84,-5.58
11660.29,-5.49
11776.89,-5.44
11894.66,-5.42
12013.60,-5.44
12133.74,-5.48
12255.08,-5.54
12377.63,-5.65
12501.41,-5.76
12626.42,-5.87
12752.68,-5.99
12880.21,-6.08
13009.01,-6.17
13139.10,-6.24
13270.49,-6.31
13403.20,-6.38
13537.23,-6.41
13672.60,-6.43
13809.33,-6.44
13947.42,-6.43
14086.90,-6.42
14227.77,-6.39
14370.04,-6.33
14513.74,-6.26
14658.88,-6.15
14805.47,-6.03
14953.52,-5.88
15103.06,-5.69
15254.09,-5.47
15406.63,-5.24
15560.70,-5.00
15716.30,-4.75
15873.47,-4.50
16032.20,-4.25
16192.52,-4.02
16354.45,-3.81
16517.99,-3.63
16683.17,-3.48
16850.01,-3.36
17018.51,-3.25
17188.69,-3.16
17360.58,-3.09
17534.18,-3.04
17709.53,-3.01
17886.62,-3.01
18065.49,-3.04
18246.14,-3.11
18428.60,-3.22
18612.89,-3.34
18799.02,-3.50
18987.01,-3.69
19176.88,-3.90
19368.65,-4.14
19562.33,-4.42
19757.96,-4.72
19955.54,-5.05
