frequency,raw,error,smoothed,error_smoothed,equalization,parametric_eq,equalized_raw,equalized_smoothed,target
20,-33.34,-31.78,-33.38,-31.82,6.00,2.63,-27.34,-27.38,-1.56
21,-32.86,-31.30,-32.80,-31.24,6.00,3.01,-26.86,-26.80,-1.56
22,-32.15,-30.59,-32.23,-30.67,6.00,3.43,-26.15,-26.23,-1.56
23,-31.74,-30.18,-31.67,-30.11,6.00,3.89,-25.74,-25.67,-1.56
24,-31.14,-29.58,-31.13,-29.57,6.00,4.37,-25.14,-25.13,-1.56
25,-30.73,-29.17,-30.61,-29.04,6.00,4.86,-24.73,-24.61,-1.56
26,-30.05,-28.49,-30.09,-28.53,6.00,5.36,-24.05,-24.09,-1.56
27,-29.57,-28.01,-29.59,-28.03,6.00,5.83,-23.57,-23.59,-1.56
28,-29.07,-27.51,-29.11,-27.55,6.00,6.26,-23.07,-23.11,-1.56
29,-28.60,-27.04,-28.64,-27.08,6.00,6.61,-22.60,-22.64,-1.56
30,-28.15,-26.59,-28.18,-26.62,6.00,6.88,-22.15,-22.18,-1.56
31,-27.72,-26.16,-27.74,-26.18,6.00,7.04,-21.72,-21.74,-1.56
32,-27.31,-25.75,-27.31,-25.74,6.00,7.09,-21.31,-21.31,-1.56
33,-26.92,-25.36,-26.89,-25.32,6.00,7.06,-20.92,-20.89,-1.56
34,-26.70,-25.14,-26.48,-24.91,6.00,6.96,-20.70,-20.48,-1.56
35,-26.01,-24.45,-26.08,-24.52,6.00,6.81,-20.01,-20.08,-1.56
36,-25.60,-24.04,-25.69,-24.13,6.00,6.64,-19.60,-19.69,-1.56
37,-25.27,-23.71,-25.31,-23.75,6.00,6.46,-19.27,-19.31,-1.56
38,-24.93,-23.37,-24.94,-23.38,6.00,6.28,-18.93,-18.94,-1.56
39,-24.61,-23.05,-24.58,-23.02,6.00,6.12,-18.61,-18.58,-1.56
40,-24.28,-22.72,-24.23,-22.67,6.00,5.97,-18.28,-18.23,-1.56
41,-23.89,-22.33,-23.89,-22.33,6.00,5.85,-17.89,-17.89,-1.56
42,-23.58,-22.02,-23.56,-21.99,6.00,5.76,-17.58,-17.56,-1.56
43,-23.29,-21.73,-23.23,-21.67,6.00,5.69,-17.29,-17.23,-1.56
44,-22.91,-21.35,-22.92,-21.36,6.00,5.64,-16.91,-16.92,-1.56
45,-22.42,-20.86,-22.61,-21.05,6.00,5.62,-16.42,-16.61,-1.56
46,-22.33,-20.77,-22.32,-20.75,6.00,5.61,-16.33,-16.32,-1.56
47,-22.07,-20.51,-22.03,-20.47,6.00,5.63,-16.07,-16.03,-1.56
48,-21.77,-20.21,-21.74,-20.18,6.00,5.66,-15.77,-15.74,-1.56
49,-21.52,-19.96,-21.47,-19.91,6.00,5.71,-15.52,-15.47,-1.56
50,-21.18,-19.62,-21.20,-19.64,6.00,5.77,-15.18,-15.20,-1.56
51,-20.94,-19.38,-20.94,-19.37,6.00,5.84,-14.94,-14.94,-1.56
52,-20.68,-19.12,-20.68,-19.11,6.00,5.92,-14.68,-14.68,-1.56
53,-20.42,-18.86,-20.42,-18.86,6.00,6.00,-14.42,-14.42,-1.56
54,-20.20,-18.64,-20.17,-18.61,6.00,6.08,-14.20,-14.17,-1.56
55,-19.95,-18.39,-19.93,-18.37,6.00,6.16,-13.95,-13.93,-1.56
56,-19.74,-18.18,-19.69,-18.13,6.00,6.24,-13.74,-13.69,-1.56
57,-19.47,-17.91,-19.46,-17.90,6.00,6.31,-13.47,-13.46,-1.56
58,-19.28,-17.72,-19.24,-17.67,6.00,6.37,-13.28,-13.24,-1.56
59,-18.98,-17.42,-19.02,-17.46,6.00,6.42,-12.98,-13.02,-1.56
60,-18.78,-17.22,-18.81,-17.25,6.00,6.46,-12.78,-12.81,-1.56
61,-18.56,-17.00,-18.61,-17.05,6.00,6.48,-12.56,-12.61,-1.56
62,-18.21,-16.65,-18.42,-16.85,6.00,6.49,-12.21,-12.42,-1.56
63,-18.09,-16.53,-18.23,-16.66,6.00,6.49,-12.09,-12.23,-1.56
64,-18.05,-16.49,-18.04,-16.48,6.00,6.47,-12.05,-12.04,-1.56
65,-18.07,-16.51,-17.86,-16.30,6.00,6.44,-12.07,-11.86,-1.56
66,-17.89,-16.33,-17.68,-16.12,6.00,6.40,-11.89,-11.68,-1.56
67,-17.56,-16.00,-17.50,-15.94,6.00,6.35,-11.56,-11.50,-1.56
68,-17.38,-15.82,-17.32,-15.76,6.00,6.29,-11.38,-11.32,-1.56
69,-17.15,-15.59,-17.14,-15.58,6.00,6.23,-11.15,-11.14,-1.56
70,-16.92,-15.36,-16.96,-15.40,6.00,6.16,-10.92,-10.96,-1.56
71,-16.61,-15.05,-16.78,-15.22,6.00,6.10,-10.61,-10.78,-1.56
72,-16.44,-14.88,-16.60,-15.04,6.00,6.03,-10.44,-10.60,-1.56
73,-16.51,-14.95,-16.42,-14.86,6.00,5.96,-10.51,-10.42,-1.56
74,-16.30,-14.74,-16.25,-14.69,6.00,5.89,-10.30,-10.25,-1.56
75,-16.15,-14.59,-16.08,-14.52,6.00,5.82,-10.15,-10.08,-1.56
76,-15.99,-14.43,-15.92,-14.36,6.00,5.76,-9.99,-9.92,-1.56
77,-15.79,-14.23,-15.76,-14.20,6.00,5.70,-9.79,-9.76,-1.56
78,-15.64,-14.08,-15.61,-14.04,6.00,5.65,-9.64,-9.61,-1.56
79,-15.34,-13.78,-15.46,-13.89,6.00,5.60,-9.34,-9.46,-1.56
80,-15.02,-13.46,-15.31,-13.75,6.00,5.56,-9.02,-9.31,-1.56
81,-15.14,-13.58,-15.17,-13.61,6.00,5.52,-9.14,-9.17,-1.56
82,-15.08,-13.52,-15.03,-13.47,6.00,5.49,-9.08,-9.03,-1.56
83,-15.13,-13.57,-14.89,-13.33,6.00,5.46,-9.13,-8.89,-1.56
84,-15.10,-13.54,-14.76,-13.20,6.00,5.44,-9.10,-8.76,-1.56
85,-14.54,-12.98,-14.63,-13.07,6.00,5.43,-8.54,-8.63,-1.56
86,-14.22,-12.66,-14.50,-12.94,6.00,5.42,-8.22,-8.50,-1.56
87,-14.32,-12.76,-14.38,-12.82,6.00,5.41,-8.32,-8.38,-1.56
88,-14.33,-12.77,-14.25,-12.69,6.00,5.41,-8.33,-8.25,-1.56
89,-14.21,-12.65,-14.13,-12.57,6.00,5.42,-8.21,-8.13,-1.56
90,-13.99,-12.43,-14.01,-12.45,6.00,5.43,-7.99,-8.01,-1.56
91,-13.62,-12.06,-13.90,-12.33,6.00,5.45,-7.62,-7.90,-1.56
92,-13.71,-12.15,-13.78,-12.22,6.00,5.47,-7.71,-7.78,-1.56
93,-14.03,-12.47,-13.67,-12.10,6.00,5.49,-8.03,-7.67,-1.56
94,-13.69,-12.13,-13.55,-11.99,6.00,5.52,-7.69,-7.55,-1.56
95,-13.55,-11.99,-13.44,-11.88,6.00,5.56,-7.55,-7.44,-1.56
96,-13.31,-11.74,-13.33,-11.77,6.00,5.59,-7.31,-7.33,-1.56
97,-12.96,-11.39,-13.23,-11.66,6.00,5.63,-6.96,-7.23,-1.56
98,-13.00,-11.43,-13.12,-11.56,6.00,5.68,-7.00,-7.12,-1.56
99,-13.08,-11.51,-13.02,-11.46,6.00,5.72,-7.08,-7.02,-1.56
100,-12.96,-11.39,-12.92,-11.36,6.00,5.77,-6.96,-6.92,-1.57
101,-12.84,-11.27,-12.83,-11.27,6.00,5.82,-6.84,-6.83,-1.57
102,-12.79,-11.22,-12.74,-11.18,6.00,5.87,-6.79,-6.74,-1.57
104,-12.67,-11.10,-12.66,-11.09,6.00,5.98,-6.67,-6.66,-1.57
105,-12.65,-11.08,-12.58,-11.01,6.00,6.04,-6.65,-6.58,-1.57
106,-12.54,-10.97,-12.50,-10.94,6.00,6.09,-6.54,-6.50,-1.57
107,-12.27,-10.70,-12.43,-10.86,6.00,6.15,-6.27,-6.43,-1.56
108,-11.96,-10.39,-12.35,-10.79,6.00,6.20,-5.96,-6.35,-1.56
109,-12.35,-10.79,-12.28,-10.72,6.00,6.25,-6.35,-6.28,-1.56
110,-12.59,-11.03,-12.21,-10.65,6.00,6.31,-6.59,-6.21,-1.56
111,-12.29,-10.73,-12.13,-10.57,6.00,6.36,-6.29,-6.13,-1.56
112,-12.11,-10.55,-12.05,-10.49,6.00,6.41,-6.11,-6.05,-1.56
113,-11.76,-10.21,-11.97,-10.42,6.00,6.45,-5.76,-5.97,-1.55
114,-11.74,-10.19,-11.88,-10.33,6.00,6.50,-5.74,-5.88,-1.55
115,-11.90,-10.35,-11.79,-10.25,6.00,6.54,-5.90,-5.79,-1.54
117,-12.00,-10.46,-11.70,-10.16,6.00,6.61,-6.00,-5.70,-1.54
118,-11.42,-9.88,-11.61,-10.08,6.00,6.64,-5.42,-5.61,-1.53
119,-11.51,-9.98,-11.52,-9.99,6.00,6.66,-5.51,-5.52,-1.53
120,-11.38,-9.86,-11.43,-9.91,6.00,6.68,-5.38,-5.43,-1.52
121,-11.17,-9.65,-11.34,-9.83,6.00,6.70,-5.17,-5.34,-1.51
123,-11.31,-9.80,-11.25,-9.75,6.00,6.72,-5.31,-5.25,-1.51
124,-11.26,-9.76,-11.16,-9.67,6.00,6.72,-5.26,-5.16,-1.50
125,-11.14,-9.65,-11.08,-9.59,6.00,6.72,-5.14,-5.08,-1.49
126,-10.90,-9.41,-10.99,-9.51,6.00,6.72,-4.90,-4.99,-1.48
128,-10.77,-9.29,-10.91,-9.43,6.00,6.70,-4.77,-4.91,-1.48
129,-11.00,-9.53,-10.82,-9.35,6.00,6.68,-5.00,-4.82,-1.47
130,-10.96,-9.50,-10.73,-9.27,6.00,6.66,-4.96,-4.73,-1.46
131,-10.40,-8.94,-10.64,-9.18,6.00,6.64,-4.40,-4.64,-1.45
133,-10.39,-8.94,-10.55,-9.10,6.00,6.58,-4.39,-4.55,-1.45
134,-10.54,-9.10,-10.45,-9.01,6.00,6.55,-4.54,-4.45,-1.44
135,-10.63,-9.20,-10.36,-8.93,6.00,6.51,-4.63,-4.36,-1.43
137,-10.38,-8.95,-10.27,-8.84,6.00,6.44,-4.38,-4.27,-1.43
138,-10.02,-8.60,-10.18,-8.76,6.00,6.40,-4.02,-4.18,-1.42
140,-10.09,-8.67,-10.09,-8.68,6.00,6.31,-4.09,-4.09,-1.42
141,-9.84,-8.43,-10.01,-8.60,6.00,6.27,-3.84,-4.01,-1.41
142,-9.76,-8.35,-9.93,-8.52,6.00,6.22,-3.76,-3.93,-1.41
144,-9.89,-8.49,-9.85,-8.45,6.00,6.13,-3.89,-3.85,-1.40
145,-9.82,-8.42,-9.78,-8.38,6.00,6.09,-3.82,-3.78,-1.40
147,-9.77,-8.37,-9.70,-8.31,6.00,6.00,-3.77,-3.70,-1.40
148,-9.71,-8.31,-9.63,-8.24,6.00,5.95,-3.71,-3.63,-1.39
150,-9.57,-8.18,-9.56,-8.17,6.00,5.87,-3.57,-3.56,-1.39
151,-9.49,-8.10,-9.49,-8.10,6.00,5.82,-3.49,-3.49,-1.39
153,-9.44,-8.05,-9.41,-8.02,6.00,5.74,-3.44,-3.41,-1.39
154,-9.33,-7.94,-9.34,-7.95,6.00,5.70,-3.33,-3.34,-1.39
156,-9.25,-7.86,-9.26,-7.88,6.00,5.62,-3.25,-3.26,-1.39
157,-9.19,-7.80,-9.19,-7.80,6.00,5.59,-3.19,-3.19,-1.39
159,-9.19,-7.80,-9.11,-7.72,6.00,5.52,-3.19,-3.11,-1.39
160,-9.19,-7.80,-9.03,-7.65,6.00,5.49,-3.19,-3.03,-1.39
162,-8.57,-7.18,-8.96,-7.57,6.00,5.43,-2.57,-2.96,-1.39
164,-8.80,-7.41,-8.89,-7.50,6.00,5.37,-2.80,-2.89,-1.39
165,-9.16,-7.77,-8.82,-7.43,6.00,5.35,-3.16,-2.82,-1.38
167,-8.67,-7.29,-8.75,-7.37,6.00,5.30,-2.67,-2.75,-1.38
169,-8.70,-7.32,-8.68,-7.30,6.00,5.26,-2.70,-2.68,-1.38
170,-8.88,-7.50,-8.62,-7.25,6.00,5.24,-2.88,-2.62,-1.38
172,-8.11,-6.74,-8.56,-7.19,6.00,5.21,-2.11,-2.56,-1.37
174,-8.42,-7.05,-8.50,-7.14,6.00,5.18,-2.42,-2.50,-1.37
175,-8.52,-7.15,-8.45,-7.08,6.00,5.17,-2.52,-2.45,-1.36
177,-8.43,-7.07,-8.39,-7.03,6.00,5.15,-2.43,-2.39,-1.36
179,-8.38,-7.03,-8.33,-6.98,6.00,5.14,-2.38,-2.33,-1.35
181,-8.32,-6.97,-8.26,-6.92,6.00,5.13,-2.32,-2.26,-1.34
183,-8.22,-6.88,-8.20,-6.86,6.00,5.13,-2.22,-2.20,-1.34
184,-8.19,-6.86,-8.13,-6.80,6.00,5.13,-2.19,-2.13,-1.33
186,-8.09,-6.77,-8.06,-6.74,6.00,5.13,-2.09,-2.06,-1.32
188,-8.01,-6.70,-7.98,-6.67,6.00,5.14,-2.01,-1.98,-1.31
190,-7.94,-6.64,-7.90,-6.60,6.00,5.15,-1.94,-1.90,-1.30
192,-7.85,-6.56,-7.82,-6.53,6.00,5.17,-1.85,-1.82,-1.29
194,-7.76,-6.47,-7.75,-6.46,6.00,5.18,-1.76,-1.75,-1.28
196,-7.70,-6.42,-7.67,-6.40,6.00,5.21,-1.70,-1.67,-1.27
198,-7.44,-6.17,-7.60,-6.33,6.00,5.23,-1.44,-1.60,-1.27
200,-7.07,-5.81,-7.53,-6.27,6.00,5.26,-1.07,-1.53,-1.26
202,-7.38,-6.13,-7.47,-6.21,6.00,5.29,-1.38,-1.47,-1.25
204,-7.90,-6.66,-7.40,-6.16,6.00,5.32,-1.90,-1.40,-1.24
206,-7.41,-6.17,-7.34,-6.11,6.00,5.35,-1.41,-1.34,-1.23
208,-7.34,-6.11,-7.29,-6.06,5.99,5.38,-1.35,-1.30,-1.23
210,-7.28,-6.06,-7.23,-6.01,5.97,5.42,-1.31,-1.26,-1.22
212,-7.21,-6.00,-7.18,-5.97,5.94,5.45,-1.27,-1.24,-1.21
214,-7.14,-5.93,-7.13,-5.93,5.90,5.49,-1.24,-1.23,-1.21
216,-6.68,-5.48,-7.08,-5.88,5.87,5.52,-0.81,-1.21,-1.20
218,-7.11,-5.92,-7.04,-5.84,5.84,5.56,-1.26,-1.19,-1.19
221,-7.43,-6.24,-6.99,-5.81,5.81,5.61,-1.62,-1.19,-1.19
223,-6.47,-5.29,-6.94,-5.77,5.77,5.64,-0.70,-1.18,-1.18
225,-6.61,-5.44,-6.90,-5.73,5.73,5.67,-0.88,-1.17,-1.17
227,-6.90,-5.73,-6.85,-5.68,5.68,5.69,-1.21,-1.16,-1.16
229,-7.16,-6.00,-6.79,-5.64,5.64,5.72,-1.52,-1.15,-1.15
232,-7.16,-6.01,-6.74,-5.59,5.59,5.75,-1.57,-1.15,-1.15
234,-6.54,-5.40,-6.68,-5.54,5.54,5.77,-1.00,-1.14,-1.14
236,-6.66,-5.53,-6.61,-5.48,5.48,5.78,-1.17,-1.13,-1.13
239,-6.55,-5.43,-6.54,-5.43,5.43,5.80,-1.12,-1.12,-1.12
241,-6.00,-4.89,-6.47,-5.37,5.37,5.81,-0.63,-1.11,-1.11
244,-6.41,-5.31,-6.40,-5.31,5.31,5.81,-1.10,-1.09,-1.10
246,-6.59,-5.50,-6.33,-5.25,5.25,5.81,-1.34,-1.08,-1.08
248,-6.79,-5.72,-6.27,-5.19,5.19,5.80,-1.59,-1.07,-1.07
251,-5.81,-4.75,-6.21,-5.14,5.14,5.79,-0.66,-1.06,-1.06
253,-5.71,-4.66,-6.15,-5.10,5.10,5.77,-0.61,-1.05,-1.05
256,-6.12,-5.08,-6.10,-5.06,5.06,5.74,-1.06,-1.04,-1.04
259,-6.11,-5.08,-6.05,-5.03,5.03,5.71,-1.08,-1.03,-1.03
261,-6.10,-5.08,-6.01,-5.00,5.00,5.68,-1.10,-1.02,-1.02
264,-6.00,-4.99,-5.98,-4.97,4.97,5.63,-1.03,-1.01,-1.00
266,-5.96,-4.96,-5.94,-4.95,4.95,5.60,-1.01,-0.99,-0.99
269,-5.91,-4.92,-5.91,-4.92,4.92,5.55,-0.99,-0.98,-0.98
272,-5.91,-4.93,-5.87,-4.90,4.90,5.49,-1.01,-0.97,-0.97
274,-5.87,-4.90,-5.83,-4.87,4.87,5.45,-1.00,-0.96,-0.96
277,-5.82,-4.86,-5.79,-4.84,4.84,5.38,-0.98,-0.95,-0.95
280,-5.75,-4.80,-5.75,-4.80,4.80,5.31,-0.94,-0.94,-0.94
283,-5.71,-4.77,-5.70,-4.77,4.77,5.24,-0.94,-0.94,-0.94
286,-5.64,-4.71,-5.65,-4.73,4.73,5.17,-0.91,-0.93,-0.93
288,-5.60,-4.68,-5.60,-4.69,4.69,5.13,-0.91,-0.92,-0.92
291,-5.59,-4.68,-5.55,-4.64,4.64,5.06,-0.95,-0.91,-0.91
294,-5.47,-4.57,-5.50,-4.60,4.60,4.99,-0.87,-0.90,-0.90
297,-5.46,-4.56,-5.45,-4.55,4.55,4.92,-0.91,-0.89,-0.89
300,-5.41,-4.52,-5.39,-4.51,4.51,4.85,-0.90,-0.89,-0.89
303,-5.34,-4.46,-5.34,-4.47,4.47,4.78,-0.87,-0.88,-0.88
306,-5.25,-4.38,-5.30,-4.43,4.43,4.72,-0.82,-0.87,-0.87
309,-5.22,-4.35,-5.25,-4.39,4.39,4.65,-0.83,-0.86,-0.86
312,-5.21,-4.35,-5.21,-4.35,4.35,4.59,-0.86,-0.86,-0.86
316,-5.21,-4.36,-5.17,-4.32,4.32,4.51,-0.89,-0.85,-0.85
319,-5.18,-4.34,-5.13,-4.29,4.29,4.46,-0.89,-0.84,-0.84
322,-5.10,-4.26,-5.10,-4.26,4.26,4.40,-0.83,-0.84,-0.84
325,-5.05,-4.22,-5.07,-4.24,4.24,4.35,-0.81,-0.83,-0.83
328,-5.00,-4.17,-5.04,-4.22,4.22,4.31,-0.78,-0.82,-0.82
332,-5.01,-4.19,-5.02,-4.20,4.20,4.25,-0.81,-0.82,-0.82
335,-5.01,-4.20,-5.00,-4.19,4.19,4.20,-0.82,-0.81,-0.81
338,-5.01,-4.20,-4.98,-4.17,4.17,4.17,-0.84,-0.81,-0.81
342,-5.01,-4.21,-4.96,-4.15,4.15,4.12,-0.85,-0.80,-0.80
345,-4.58,-3.78,-4.94,-4.14,4.14,4.08,-0.44,-0.80,-0.80
349,-4.95,-4.15,-4.92,-4.12,4.12,4.05,-0.82,-0.79,-0.79
352,-5.35,-4.56,-4.90,-4.11,4.11,4.02,-1.24,-0.79,-0.79
356,-5.05,-4.26,-4.89,-4.10,4.10,3.99,-0.95,-0.79,-0.79
359,-4.80,-4.01,-4.88,-4.10,4.10,3.97,-0.70,-0.79,-0.78
363,-4.80,-4.02,-4.88,-4.09,4.09,3.94,-0.71,-0.78,-0.78
366,-4.79,-4.01,-4.88,-4.10,4.10,3.93,-0.69,-0.78,-0.78
370,-4.78,-4.00,-4.88,-4.10,4.10,3.91,-0.67,-0.78,-0.78
374,-4.78,-4.00,-4.89,-4.12,4.12,3.89,-0.66,-0.77,-0.77
377,-4.77,-4.00,-4.90,-4.13,4.13,3.88,-0.64,-0.77,-0.77
381,-4.76,-3.99,-4.92,-4.15,4.15,3.88,-0.61,-0.77,-0.77
385,-4.92,-4.16,-4.93,-4.16,4.16,3.87,-0.75,-0.76,-0.76
389,-5.29,-4.53,-4.94,-4.18,4.18,3.87,-1.11,-0.76,-0.76
393,-4.98,-4.23,-4.94,-4.19,4.19,3.87,-0.79,-0.75,-0.75
397,-4.84,-4.10,-4.93,-4.19,4.19,3.87,-0.65,-0.74,-0.74
401,-4.93,-4.20,-4.91,-4.18,4.18,3.88,-0.75,-0.73,-0.73
405,-5.29,-4.57,-4.89,-4.17,4.17,3.88,-1.12,-0.72,-0.72
409,-5.01,-4.30,-4.85,-4.15,4.15,3.89,-0.86,-0.70,-0.71
413,-4.75,-4.06,-4.81,-4.13,4.13,3.90,-0.62,-0.68,-0.69
417,-4.75,-4.08,-4.77,-4.11,4.11,3.91,-0.64,-0.66,-0.67
421,-4.75,-4.10,-4.73,-4.08,4.08,3.92,-0.66,-0.64,-0.65
425,-4.50,-3.88,-4.68,-4.07,4.07,3.93,-0.43,-0.61,-0.62
430,-4.19,-3.60,-4.64,-4.05,4.05,3.95,-0.13,-0.59,-0.59
434,-4.38,-3.82,-4.60,-4.05,4.05,3.96,-0.33,-0.55,-0.56
438,-4.59,-4.06,-4.56,-4.04,4.04,3.97,-0.54,-0.52,-0.52
443,-4.55,-4.06,-4.53,-4.05,4.05,3.98,-0.50,-0.48,-0.49
447,-4.78,-4.33,-4.50,-4.05,4.05,3.99,-0.73,-0.45,-0.45
451,-4.90,-4.49,-4.46,-4.05,4.05,4.00,-0.85,-0.41,-0.41
456,-4.32,-3.95,-4.42,-4.05,4.05,4.01,-0.27,-0.37,-0.37
460,-4.23,-3.90,-4.37,-4.04,4.04,4.02,-0.19,-0.33,-0.33
465,-4.17,-3.88,-4.31,-4.03,4.03,4.02,-0.14,-0.29,-0.29
470,-4.53,-4.28,-4.25,-4.01,4.01,4.03,-0.52,-0.25,-0.24
474,-4.48,-4.27,-4.19,-3.98,3.98,4.02,-0.50,-0.21,-0.21
479,-3.90,-3.73,-4.11,-3.94,3.94,4.02,0.05,-0.17,-0.17
484,-3.85,-3.71,-4.04,-3.90,3.90,4.01,0.06,-0.14,-0.13
489,-3.81,-3.71,-3.97,-3.86,3.86,4.00,0.05,-0.11,-0.10
494,-3.84,-3.76,-3.90,-3.82,3.82,3.99,-0.02,-0.08,-0.07
499,-4.15,-4.10,-3.84,-3.78,3.78,3.97,-0.37,-0.06,-0.05
504,-3.88,-3.85,-3.78,-3.74,3.74,3.95,-0.14,-0.04,-0.03
509,-3.61,-3.59,-3.73,-3.71,3.71,3.93,0.10,-0.02,-0.02
514,-3.60,-3.59,-3.70,-3.69,3.69,3.90,0.09,-0.01,-0.01
519,-3.59,-3.59,-3.67,-3.67,3.67,3.87,0.08,-0.01,0.00
524,-3.59,-3.59,-3.66,-3.66,3.66,3.83,0.07,-0.00,0.00
529,-3.88,-3.88,-3.65,-3.65,3.65,3.80,-0.23,-0.00,0.00
535,-3.60,-3.59,-3.66,-3.65,3.65,3.75,0.05,-0.01,-0.00
540,-3.25,-3.24,-3.67,-3.65,3.65,3.71,0.40,-0.01,-0.01
545,-3.70,-3.68,-3.68,-3.65,3.65,3.67,-0.04,-0.02,-0.02
551,-3.74,-3.71,-3.68,-3.65,3.65,3.61,-0.08,-0.03,-0.03
556,-3.62,-3.58,-3.69,-3.65,3.65,3.57,0.03,-0.04,-0.04
562,-3.68,-3.63,-3.69,-3.64,3.64,3.51,-0.04,-0.05,-0.05
568,-4.31,-4.25,-3.68,-3.62,3.62,3.45,-0.69,-0.06,-0.06
573,-3.88,-3.81,-3.65,-3.59,3.59,3.41,-0.29,-0.07,-0.07
579,-3.45,-3.37,-3.62,-3.55,3.55,3.35,0.10,-0.07,-0.08
585,-3.31,-3.23,-3.57,-3.50,3.50,3.29,0.19,-0.07,-0.08
591,-3.38,-3.30,-3.51,-3.44,3.44,3.23,0.06,-0.07,-0.08
596,-3.71,-3.63,-3.45,-3.38,3.38,3.19,-0.33,-0.07,-0.08
602,-3.47,-3.40,-3.37,-3.31,3.31,3.13,-0.16,-0.06,-0.07
608,-3.08,-3.02,-3.28,-3.23,3.23,3.08,0.15,-0.05,-0.06
615,-3.03,-2.99,-3.19,-3.16,3.16,3.01,0.13,-0.04,-0.04
621,-3.14,-3.12,-3.10,-3.08,3.08,2.96,-0.06,-0.02,-0.02
627,-3.06,-3.06,-3.00,-3.01,3.01,2.91,-0.05,0.00,-0.00
633,-3.08,-3.10,-2.90,-2.93,2.93,2.86,-0.14,0.03,0.03
639,-3.02,-3.07,-2.81,-2.87,2.87,2.82,-0.15,0.06,0.05
646,-2.62,-2.70,-2.71,-2.80,2.80,2.76,0.18,0.09,0.09
652,-2.37,-2.49,-2.62,-2.74,2.74,2.72,0.37,0.12,0.12
659,-2.50,-2.65,-2.53,-2.69,2.69,2.67,0.19,0.15,0.15
665,-2.37,-2.55,-2.45,-2.63,2.63,2.63,0.27,0.18,0.19
672,-2.12,-2.34,-2.37,-2.58,2.58,2.59,0.47,0.22,0.22
679,-2.70,-2.95,-2.29,-2.54,2.54,2.55,-0.16,0.25,0.25
686,-2.33,-2.62,-2.21,-2.49,2.49,2.51,0.17,0.28,0.29
692,-1.84,-2.16,-2.14,-2.45,2.45,2.48,0.61,0.32,0.32
699,-2.18,-2.53,-2.07,-2.41,2.41,2.45,0.24,0.35,0.35
706,-2.06,-2.44,-2.00,-2.38,2.38,2.42,0.32,0.37,0.38
713,-2.06,-2.46,-1.94,-2.34,2.34,2.39,0.28,0.40,0.41
721,-1.97,-2.40,-1.89,-2.31,2.31,2.36,0.34,0.43,0.43
728,-1.85,-2.30,-1.84,-2.28,2.28,2.34,0.44,0.45,0.45
735,-1.45,-1.92,-1.79,-2.26,2.26,2.32,0.81,0.47,0.47
742,-1.88,-2.37,-1.75,-2.24,2.24,2.30,0.36,0.49,0.49
750,-1.59,-2.09,-1.72,-2.22,2.22,2.28,0.64,0.50,0.51
757,-1.53,-2.05,-1.69,-2.21,2.21,2.27,0.68,0.52,0.52
765,-1.25,-1.78,-1.66,-2.19,2.19,2.25,0.94,0.53,0.53
773,-1.89,-2.43,-1.63,-2.17,2.17,2.24,0.29,0.54,0.54
780,-2.22,-2.77,-1.60,-2.15,2.15,2.22,-0.06,0.55,0.55
788,-1.40,-1.96,-1.57,-2.13,2.13,2.21,0.73,0.56,0.56
796,-1.43,-2.00,-1.53,-2.10,2.10,2.20,0.67,0.57,0.57
804,-2.03,-2.61,-1.48,-2.06,2.06,2.19,0.04,0.58,0.58
812,-1.42,-2.00,-1.44,-2.02,2.02,2.18,0.61,0.59,0.59
820,-0.89,-1.48,-1.38,-1.98,1.98,2.18,1.09,0.59,0.59
828,-1.32,-1.92,-1.33,-1.93,1.93,2.17,0.61,0.60,0.60
837,-1.23,-1.84,-1.26,-1.87,1.87,2.16,0.64,0.61,0.61
845,-1.23,-1.84,-1.20,-1.81,1.81,2.15,0.59,0.61,0.61
853,-1.13,-1.75,-1.13,-1.75,1.75,2.14,0.63,0.62,0.62
862,-0.75,-1.38,-1.06,-1.69,1.69,2.13,0.94,0.63,0.63
871,-1.18,-1.81,-0.99,-1.63,1.63,2.12,0.45,0.64,0.64
879,-1.46,-2.10,-0.92,-1.57,1.57,2.10,0.11,0.64,0.64
888,-0.73,-1.38,-0.85,-1.50,1.50,2.09,0.78,0.65,0.65
897,-0.58,-1.24,-0.78,-1.44,1.44,2.07,0.86,0.66,0.66
906,-1.25,-1.92,-0.72,-1.39,1.39,2.05,0.14,0.67,0.67
915,-0.35,-1.03,-0.66,-1.33,1.33,2.02,0.99,0.68,0.68
924,-0.11,-0.80,-0.60,-1.29,1.29,1.99,1.18,0.69,0.69
933,-1.01,-1.71,-0.55,-1.25,1.25,1.96,0.24,0.70,0.70
943,-0.25,-0.96,-0.50,-1.21,1.21,1.92,0.97,0.71,0.71
952,0.11,-0.61,-0.46,-1.19,1.19,1.88,1.30,0.72,0.72
962,-0.54,-1.27,-0.43,-1.16,1.16,1.83,0.63,0.74,0.74
971,-0.85,-1.60,-0.39,-1.14,1.14,1.78,0.30,0.75,0.75
981,-0.57,-1.33,-0.35,-1.12,1.12,1.72,0.55,0.77,0.77
991,-0.02,-0.80,-0.31,-1.10,1.10,1.65,1.08,0.79,0.78
1001,0.00,-0.80,-0.26,-1.07,1.07,1.58,1.07,0.80,0.80
1011,-0.47,-1.29,-0.21,-1.03,1.03,1.51,0.56,0.82,0.82
1021,-0.41,-1.25,-0.14,-0.98,0.98,1.42,0.58,0.85,0.85
1031,-0.29,-1.16,-0.06,-0.93,0.93,1.34,0.64,0.87,0.87
1041,0.24,-0.65,0.03,-0.87,0.87,1.25,1.11,0.90,0.89
1052,-0.11,-1.03,0.13,-0.80,0.80,1.14,0.69,0.92,0.92
1062,0.12,-0.83,0.23,-0.73,0.73,1.04,0.85,0.95,0.95
1073,1.02,0.04,0.33,-0.65,0.65,0.93,1.67,0.98,0.98
1084,0.31,-0.70,0.44,-0.58,0.58,0.81,0.89,1.01,1.01
1094,0.28,-0.76,0.54,-0.51,0.51,0.70,0.79,1.05,1.04
1105,0.92,-0.16,0.64,-0.44,0.44,0.57,1.36,1.08,1.08
1116,0.92,-0.19,0.75,-0.37,0.37,0.44,1.29,1.11,1.11
1128,0.71,-0.43,0.85,-0.30,0.30,0.29,1.01,1.15,1.15
1139,1.07,-0.11,0.95,-0.23,0.23,0.16,1.30,1.18,1.18
1150,1.15,-0.06,1.06,-0.16,0.16,0.02,1.31,1.21,1.21
1162,0.88,-0.37,1.17,-0.08,0.08,-0.14,0.96,1.25,1.25
1173,1.12,-0.16,1.29,0.01,-0.01,-0.28,1.11,1.28,1.28
1185,1.23,-0.08,1.41,0.10,-0.10,-0.43,1.13,1.31,1.31
1197,1.41,0.07,1.55,0.21,-0.21,-0.59,1.20,1.34,1.34
1209,2.10,0.74,1.69,0.32,-0.32,-0.75,1.78,1.36,1.36
1221,1.98,0.59,1.83,0.45,-0.45,-0.91,1.53,1.39,1.39
1233,1.74,0.33,1.99,0.58,-0.58,-1.08,1.16,1.41,1.41
1246,2.22,0.79,2.15,0.72,-0.72,-1.25,1.50,1.43,1.43
1258,2.18,0.74,2.31,0.87,-0.87,-1.42,1.31,1.44,1.44
1271,2.40,0.94,2.47,1.02,-1.02,-1.59,1.39,1.45,1.46
1283,2.98,1.52,2.63,1.17,-1.17,-1.76,1.81,1.46,1.47
1296,2.72,1.25,2.79,1.32,-1.32,-1.94,1.40,1.47,1.47
1309,2.70,1.23,2.95,1.47,-1.47,-2.11,1.23,1.47,1.48
1322,3.20,1.72,3.10,1.63,-1.63,-2.29,1.58,1.47,1.48
1335,3.51,2.04,3.25,1.78,-1.78,-2.47,1.73,1.47,1.48
1349,3.28,1.81,3.40,1.94,-1.94,-2.67,1.35,1.47,1.47
1362,3.57,2.11,3.56,2.09,-2.09,-2.85,1.48,1.46,1.47
1376,3.95,2.49,3.71,2.26,-2.26,-3.04,1.70,1.46,1.46
1390,3.85,2.40,3.87,2.42,-2.42,-3.24,1.43,1.45,1.45
1404,3.83,2.39,4.04,2.60,-2.60,-3.43,1.24,1.44,1.44
1418,3.98,2.55,4.21,2.77,-2.77,-3.63,1.21,1.43,1.43
1432,4.23,2.81,4.38,2.96,-2.96,-3.83,1.27,1.42,1.42
1446,4.68,3.27,4.57,3.15,-3.15,-4.02,1.53,1.42,1.42
1461,4.86,3.45,4.76,3.35,-3.35,-4.24,1.51,1.41,1.41
1475,4.93,3.53,4.96,3.55,-3.55,-4.43,1.38,1.41,1.41
1490,5.26,3.86,5.16,3.76,-3.76,-4.65,1.51,1.41,1.41
