frequency,raw,error,smoothed,error_smoothed,equalization,parametric_eq,equalized_raw,equalized_smoothed,target
20,-5.47,-8.71,-5.55,-8.79,6.00,2.26,0.53,0.45,3.24
21,-5.24,-8.48,-5.16,-8.41,6.00,2.62,0.76,0.84,3.24
22,-4.77,-8.02,-4.79,-8.03,6.00,3.01,1.23,1.21,3.25
23,-4.51,-7.76,-4.42,-7.67,6.00,3.43,1.49,1.58,3.25
24,-4.10,-7.35,-4.07,-7.32,6.00,3.87,1.90,1.93,3.25
25,-3.68,-6.93,-3.74,-6.99,6.00,4.34,2.32,2.26,3.25
26,-3.42,-6.67,-3.41,-6.67,6.00,4.80,2.58,2.59,3.25
27,-3.02,-6.27,-3.11,-6.36,5.94,5.23,2.92,2.84,3.25
28,-2.75,-6.00,-2.81,-6.07,5.83,5.62,3.08,3.01,3.25
29,-2.51,-5.76,-2.53,-5.79,5.66,5.92,3.15,3.12,3.25
30,-2.28,-5.53,-2.26,-5.52,5.46,6.13,3.18,3.19,3.25
31,-2.05,-5.30,-2.01,-5.26,5.24,6.22,3.19,3.23,3.25
32,-1.82,-5.07,-1.76,-5.01,5.01,6.19,3.19,3.25,3.25
33,-1.60,-4.85,-1.53,-4.78,4.78,6.06,3.18,3.25,3.25
34,-1.37,-4.62,-1.31,-4.55,4.55,5.85,3.18,3.25,3.25
35,-1.14,-4.38,-1.09,-4.34,4.34,5.59,3.20,3.24,3.24
36,-0.91,-4.15,-0.89,-4.13,4.13,5.30,3.22,3.24,3.24
37,-0.68,-3.92,-0.71,-3.94,3.94,4.99,3.26,3.23,3.24
38,-0.46,-3.69,-0.54,-3.77,3.77,4.68,3.31,3.23,3.23
39,-0.23,-3.45,-0.38,-3.60,3.60,4.38,3.37,3.22,3.22
40,-0.23,-3.44,-0.24,-3.45,3.45,4.10,3.22,3.21,3.21
41,0.00,-3.20,-0.11,-3.31,3.31,3.83,3.31,3.20,3.20
42,0.00,-3.19,0.01,-3.18,3.18,3.58,3.18,3.19,3.19
43,0.23,-2.95,0.12,-3.06,3.06,3.35,3.29,3.18,3.18
44,0.23,-2.94,0.23,-2.94,2.94,3.14,3.17,3.17,3.17
45,0.23,-2.93,0.33,-2.82,2.82,2.94,3.05,3.16,3.16
46,0.29,-2.85,0.44,-2.70,2.70,2.76,2.99,3.14,3.14
47,0.46,-2.66,0.54,-2.58,2.58,2.60,3.04,3.12,3.12
48,0.50,-2.61,0.64,-2.46,2.46,2.45,2.96,3.11,3.11
49,0.68,-2.41,0.75,-2.34,2.34,2.31,3.02,3.09,3.09
50,0.68,-2.39,0.85,-2.22,2.22,2.18,2.90,3.07,3.07
51,0.91,-2.14,0.93,-2.11,2.11,2.06,3.02,3.05,3.05
52,1.01,-2.01,1.01,-2.01,2.01,1.95,3.02,3.02,3.02
53,1.14,-1.86,1.07,-1.93,1.93,1.85,3.07,3.00,3.00
54,1.37,-1.61,1.11,-1.86,1.86,1.75,3.23,2.98,2.98
55,1.37,-1.58,1.13,-1.82,1.82,1.65,3.19,2.95,2.95
56,1.37,-1.56,1.13,-1.80,1.80,1.56,3.17,2.93,2.93
57,1.37,-1.53,1.11,-1.79,1.79,1.47,3.16,2.90,2.90
58,1.14,-1.73,1.08,-1.80,1.80,1.39,2.94,2.87,2.87
59,1.14,-1.71,1.04,-1.81,1.81,1.30,2.95,2.85,2.85
60,0.92,-1.90,1.00,-1.81,1.81,1.22,2.73,2.82,2.82
61,0.91,-1.88,0.98,-1.81,1.81,1.13,2.72,2.79,2.79
62,0.68,-2.08,0.98,-1.78,1.78,1.05,2.46,2.76,2.76
63,0.68,-2.05,1.00,-1.73,1.73,0.96,2.41,2.73,2.73
64,0.78,-1.92,1.06,-1.64,1.64,0.87,2.42,2.70,2.70
65,0.96,-1.71,1.15,-1.53,1.53,0.78,2.49,2.67,2.67
66,1.14,-1.50,1.27,-1.38,1.38,0.69,2.52,2.64,2.64
67,1.37,-1.24,1.41,-1.20,1.20,0.60,2.57,2.61,2.61
68,1.69,-0.89,1.59,-1.00,1.00,0.51,2.69,2.58,2.58
69,1.85,-0.70,1.78,-0.78,0.78,0.42,2.63,2.55,2.55
70,2.05,-0.47,1.97,-0.55,0.55,0.33,2.60,2.52,2.52
71,2.28,-0.21,2.17,-0.32,0.32,0.23,2.60,2.49,2.49
72,2.51,0.05,2.37,-0.09,0.09,0.14,2.60,2.46,2.46
73,2.74,0.30,2.56,0.12,-0.12,0.05,2.62,2.44,2.44
74,2.74,0.33,2.74,0.33,-0.33,-0.05,2.41,2.41,2.41
75,2.91,0.53,2.90,0.52,-0.52,-0.14,2.39,2.38,2.38
76,3.03,0.68,3.04,0.69,-0.69,-0.24,2.34,2.35,2.35
77,3.19,0.87,3.17,0.85,-0.85,-0.34,2.34,2.32,2.32
78,3.25,0.96,3.29,1.00,-1.00,-0.43,2.25,2.29,2.29
79,3.42,1.16,3.39,1.13,-1.13,-0.53,2.29,2.26,2.26
80,3.42,1.19,3.48,1.25,-1.25,-0.63,2.17,2.23,2.23
81,3.56,1.36,3.57,1.37,-1.37,-0.72,2.19,2.20,2.20
82,3.65,1.48,3.65,1.47,-1.47,-0.82,2.18,2.17,2.17
83,3.75,1.61,3.72,1.58,-1.58,-0.92,2.17,2.14,2.14
84,3.87,1.75,3.79,1.67,-1.67,-1.02,2.20,2.12,2.12
85,3.87,1.78,3.85,1.77,-1.77,-1.12,2.10,2.09,2.09
86,3.87,1.81,3.92,1.86,-1.86,-1.22,2.01,2.06,2.06
87,3.87,1.84,3.98,1.95,-1.95,-1.32,1.92,2.03,2.03
88,4.10,2.09,4.04,2.04,-2.04,-1.42,2.06,2.01,2.01
89,4.10,2.12,4.11,2.13,-2.13,-1.52,1.97,1.98,1.98
90,4.10,2.15,4.17,2.22,-2.22,-1.62,1.88,1.95,1.95
91,4.12,2.19,4.23,2.30,-2.30,-1.72,1.82,1.93,1.93
92,4.33,2.43,4.30,2.39,-2.39,-1.82,1.94,1.91,1.90
93,4.33,2.45,4.36,2.48,-2.48,-1.92,1.85,1.88,1.88
94,4.52,2.66,4.42,2.56,-2.56,-2.02,1.96,1.86,1.86
95,4.56,2.73,4.48,2.64,-2.64,-2.13,1.92,1.84,1.83
96,4.56,2.75,4.53,2.72,-2.72,-2.23,1.84,1.81,1.81
97,4.56,2.77,4.58,2.79,-2.79,-2.33,1.77,1.79,1.79
98,4.56,2.79,4.62,2.85,-2.85,-2.43,1.71,1.77,1.77
99,4.56,2.81,4.66,2.91,-2.91,-2.53,1.65,1.75,1.75
100,4.78,3.05,4.69,2.97,-2.97,-2.64,1.81,1.73,1.73
101,4.79,3.07,4.72,3.01,-3.01,-2.74,1.78,1.71,1.72
102,4.79,3.09,4.74,3.06,-3.06,-2.83,1.73,1.68,1.70
104,4.79,3.14,4.76,3.10,-3.10,-3.03,1.69,1.66,1.65
105,4.79,3.16,4.78,3.14,-3.14,-3.12,1.65,1.64,1.63
106,4.79,3.18,4.80,3.18,-3.18,-3.22,1.61,1.62,1.61
107,4.79,3.19,4.82,3.21,-3.21,-3.31,1.58,1.61,1.60
108,4.79,3.21,4.84,3.25,-3.25,-3.40,1.54,1.59,1.58
109,4.79,3.22,4.86,3.29,-3.29,-3.48,1.50,1.57,1.57
110,4.79,3.24,4.88,3.33,-3.33,-3.56,1.46,1.55,1.55
111,4.79,3.26,4.90,3.37,-3.37,-3.64,1.42,1.53,1.53
112,5.01,3.49,4.92,3.41,-3.41,-3.72,1.60,1.51,1.52
113,5.01,3.51,4.94,3.45,-3.45,-3.79,1.56,1.49,1.50
114,5.01,3.53,4.96,3.49,-3.49,-3.86,1.52,1.47,1.48
115,5.01,3.55,4.98,3.53,-3.53,-3.92,1.48,1.45,1.46
117,5.01,3.59,4.99,3.56,-3.56,-4.04,1.45,1.43,1.42
118,5.01,3.61,5.00,3.60,-3.60,-4.09,1.41,1.40,1.40
119,5.01,3.63,5.01,3.63,-3.63,-4.14,1.38,1.38,1.38
120,5.01,3.65,5.02,3.66,-3.66,-4.18,1.35,1.36,1.36
121,5.01,3.67,5.02,3.69,-3.69,-4.21,1.32,1.33,1.34
123,5.01,3.72,5.02,3.72,-3.72,-4.27,1.29,1.30,1.29
124,5.01,3.74,5.02,3.74,-3.74,-4.29,1.27,1.28,1.27
125,5.01,3.76,5.02,3.77,-3.77,-4.31,1.24,1.25,1.25
126,5.01,3.77,5.02,3.79,-3.79,-4.32,1.22,1.23,1.24
128,5.01,3.82,5.02,3.82,-3.82,-4.33,1.19,1.20,1.19
129,5.01,3.84,5.02,3.84,-3.84,-4.33,1.17,1.18,1.17
130,5.01,3.86,5.02,3.87,-3.87,-4.32,1.14,1.15,1.15
131,5.01,3.87,5.02,3.89,-3.89,-4.31,1.12,1.13,1.14
133,5.01,3.91,5.02,3.91,-3.91,-4.28,1.10,1.10,1.10
134,5.01,3.93,5.01,3.93,-3.93,-4.26,1.08,1.08,1.08
135,5.01,3.95,5.01,3.95,-3.95,-4.24,1.06,1.06,1.06
137,5.01,3.98,5.00,3.96,-3.96,-4.19,1.05,1.03,1.03
138,5.01,4.00,4.98,3.97,-3.97,-4.16,1.04,1.01,1.01
140,5.01,4.03,4.97,3.98,-3.98,-4.09,1.03,0.99,0.98
141,5.01,4.04,4.94,3.98,-3.98,-4.06,1.03,0.97,0.97
142,4.90,3.95,4.91,3.97,-3.97,-4.02,0.93,0.95,0.95
144,4.79,3.87,4.88,3.95,-3.95,-3.95,0.84,0.93,0.92
145,4.79,3.88,4.84,3.93,-3.93,-3.91,0.86,0.91,0.91
147,4.79,3.91,4.80,3.91,-3.91,-3.83,0.88,0.89,0.88
148,4.79,3.92,4.75,3.87,-3.87,-3.79,0.92,0.87,0.87
150,4.79,3.94,4.69,3.84,-3.84,-3.72,0.95,0.85,0.85
151,4.65,3.81,4.63,3.79,-3.79,-3.68,0.86,0.84,0.84
153,4.56,3.74,4.57,3.75,-3.75,-3.60,0.81,0.82,0.82
154,4.56,3.75,4.50,3.70,-3.70,-3.56,0.86,0.81,0.81
156,4.48,3.69,4.44,3.65,-3.65,-3.49,0.83,0.79,0.79
157,4.33,3.55,4.38,3.60,-3.60,-3.45,0.73,0.78,0.78
159,4.33,3.57,4.32,3.56,-3.56,-3.38,0.77,0.76,0.76
160,4.27,3.52,4.27,3.52,-3.52,-3.35,0.75,0.75,0.75
162,4.10,3.36,4.23,3.49,-3.49,-3.28,0.61,0.74,0.74
164,4.10,3.38,4.19,3.46,-3.46,-3.22,0.64,0.72,0.72
165,4.10,3.38,4.16,3.45,-3.45,-3.19,0.65,0.71,0.72
167,4.10,3.40,4.13,3.43,-3.43,-3.13,0.67,0.70,0.70
169,4.10,3.41,4.11,3.42,-3.42,-3.08,0.68,0.69,0.69
170,4.10,3.42,4.10,3.41,-3.41,-3.06,0.69,0.68,0.68
172,4.10,3.43,4.08,3.41,-3.41,-3.01,0.69,0.67,0.67
174,4.10,3.44,4.06,3.40,-3.40,-2.96,0.70,0.66,0.66
175,4.10,3.44,4.04,3.39,-3.39,-2.94,0.71,0.65,0.66
177,4.10,3.45,4.02,3.37,-3.37,-2.91,0.73,0.65,0.65
179,4.10,3.46,3.99,3.35,-3.35,-2.87,0.75,0.64,0.64
181,3.99,3.36,3.95,3.32,-3.32,-2.84,0.67,0.63,0.63
183,3.87,3.25,3.92,3.29,-3.29,-2.81,0.58,0.63,0.62
184,3.87,3.25,3.87,3.25,-3.25,-2.80,0.62,0.62,0.62
186,3.87,3.25,3.83,3.22,-3.22,-2.77,0.65,0.62,0.62
188,3.67,3.06,3.79,3.18,-3.18,-2.75,0.49,0.61,0.61
190,3.65,3.04,3.74,3.13,-3.13,-2.73,0.52,0.61,0.61
192,3.65,3.05,3.70,3.10,-3.10,-2.72,0.55,0.60,0.60
194,3.65,3.05,3.66,3.06,-3.06,-2.71,0.59,0.60,0.60
196,3.65,3.05,3.62,3.02,-3.02,-2.69,0.63,0.60,0.60
198,3.65,3.05,3.58,2.98,-2.98,-2.68,0.67,0.60,0.60
200,3.64,3.05,3.54,2.95,-2.95,-2.68,0.69,0.59,0.59
202,3.42,2.83,3.51,2.92,-2.92,-2.67,0.50,0.59,0.59
204,3.42,2.83,3.47,2.88,-2.88,-2.67,0.54,0.59,0.59
206,3.42,2.83,3.44,2.85,-2.85,-2.66,0.57,0.59,0.59
208,3.42,2.83,3.40,2.81,-2.81,-2.66,0.61,0.59,0.59
210,3.42,2.83,3.37,2.77,-2.77,-2.66,0.65,0.59,0.59
212,3.42,2.83,3.33,2.74,-2.74,-2.66,0.68,0.59,0.59
214,3.22,2.63,3.29,2.70,-2.70,-2.65,0.52,0.59,0.59
216,3.19,2.59,3.25,2.65,-2.65,-2.65,0.54,0.59,0.60
218,3.19,2.59,3.20,2.61,-2.61,-2.65,0.58,0.60,0.60
221,3.19,2.59,3.16,2.56,-2.56,-2.65,0.63,0.60,0.60
223,3.19,2.59,3.11,2.51,-2.51,-2.65,0.68,0.60,0.60
225,3.04,2.44,3.06,2.46,-2.46,-2.65,0.58,0.60,0.60
227,2.96,2.36,3.01,2.41,-2.41,-2.64,0.55,0.60,0.60
229,2.96,2.36,2.96,2.36,-2.36,-2.64,0.60,0.60,0.60
232,2.96,2.36,2.90,2.30,-2.30,-2.63,0.66,0.61,0.60
234,2.92,2.31,2.85,2.24,-2.24,-2.62,0.68,0.61,0.61
236,2.74,2.13,2.80,2.19,-2.19,-2.62,0.55,0.61,0.61
239,2.74,2.13,2.75,2.14,-2.14,-2.60,0.60,0.61,0.61
241,2.74,2.13,2.70,2.09,-2.09,-2.59,0.65,0.61,0.61
244,2.73,2.11,2.66,2.04,-2.04,-2.57,0.69,0.62,0.62
246,2.52,1.90,2.62,2.00,-2.00,-2.55,0.52,0.62,0.62
248,2.51,1.89,2.58,1.96,-1.96,-2.54,0.55,0.62,0.62
251,2.51,1.88,2.55,1.93,-1.93,-2.51,0.58,0.63,0.63
253,2.51,1.88,2.53,1.90,-1.90,-2.49,0.61,0.63,0.63
256,2.51,1.88,2.52,1.88,-1.88,-2.45,0.63,0.63,0.63
259,2.51,1.87,2.50,1.87,-1.87,-2.41,0.64,0.64,0.64
261,2.51,1.87,2.50,1.85,-1.85,-2.39,0.66,0.64,0.64
264,2.51,1.86,2.50,1.85,-1.85,-2.34,0.66,0.65,0.65
266,2.51,1.86,2.49,1.84,-1.84,-2.32,0.67,0.65,0.65
269,2.51,1.85,2.50,1.84,-1.84,-2.27,0.67,0.66,0.66
272,2.51,1.84,2.50,1.83,-1.83,-2.22,0.68,0.67,0.67
274,2.51,1.83,2.50,1.83,-1.83,-2.19,0.68,0.68,0.68
277,2.51,1.83,2.50,1.82,-1.82,-2.13,0.69,0.68,0.68
280,2.51,1.82,2.51,1.81,-1.81,-2.08,0.70,0.69,0.69
283,2.51,1.81,2.51,1.81,-1.81,-2.03,0.70,0.70,0.70
286,2.51,1.80,2.51,1.80,-1.80,-1.97,0.71,0.71,0.71
288,2.51,1.78,2.51,1.79,-1.79,-1.94,0.72,0.73,0.73
291,2.51,1.77,2.51,1.77,-1.77,-1.88,0.74,0.74,0.74
294,2.51,1.76,2.51,1.76,-1.76,-1.82,0.75,0.75,0.75
297,2.51,1.74,2.52,1.75,-1.75,-1.77,0.76,0.77,0.77
300,2.51,1.73,2.52,1.74,-1.74,-1.71,0.77,0.78,0.78
303,2.51,1.71,2.52,1.72,-1.72,-1.66,0.79,0.80,0.80
306,2.51,1.70,2.52,1.71,-1.71,-1.60,0.80,0.81,0.81
309,2.51,1.68,2.52,1.69,-1.69,-1.55,0.82,0.83,0.83
312,2.51,1.66,2.52,1.67,-1.67,-1.49,0.84,0.85,0.85
316,2.51,1.64,2.51,1.64,-1.64,-1.42,0.87,0.87,0.87
319,2.51,1.62,2.51,1.62,-1.62,-1.37,0.89,0.89,0.89
322,2.51,1.60,2.49,1.59,-1.59,-1.32,0.92,0.91,0.91
325,2.51,1.58,2.48,1.55,-1.55,-1.27,0.96,0.93,0.93
328,2.51,1.56,2.46,1.51,-1.51,-1.22,1.00,0.95,0.95
332,2.51,1.54,2.44,1.47,-1.47,-1.16,1.04,0.97,0.97
335,2.51,1.52,2.42,1.43,-1.43,-1.11,1.08,0.99,0.99
338,2.36,1.35,2.40,1.39,-1.39,-1.06,0.97,1.01,1.01
342,2.28,1.25,2.38,1.35,-1.35,-1.00,0.93,1.03,1.03
345,2.28,1.23,2.35,1.31,-1.31,-0.96,0.97,1.05,1.05
349,2.28,1.21,2.33,1.26,-1.26,-0.90,1.02,1.07,1.07
352,2.28,1.19,2.31,1.22,-1.22,-0.86,1.06,1.09,1.09
356,2.28,1.17,2.29,1.18,-1.18,-0.80,1.10,1.11,1.11
359,2.28,1.15,2.27,1.15,-1.15,-0.76,1.13,1.13,1.13
363,2.28,1.14,2.25,1.11,-1.11,-0.71,1.17,1.14,1.14
366,2.28,1.12,2.23,1.07,-1.07,-0.67,1.21,1.16,1.16
370,2.28,1.10,2.21,1.03,-1.03,-0.62,1.25,1.18,1.18
374,2.28,1.09,2.18,0.99,-0.99,-0.57,1.29,1.19,1.19
377,2.22,1.01,2.16,0.96,-0.96,-0.54,1.26,1.21,1.21
381,2.05,0.83,2.14,0.92,-0.92,-0.49,1.13,1.22,1.22
385,2.05,0.82,2.12,0.89,-0.89,-0.45,1.16,1.23,1.23
389,2.05,0.81,2.10,0.85,-0.85,-0.40,1.20,1.24,1.24
393,2.05,0.79,2.08,0.83,-0.83,-0.36,1.22,1.26,1.26
397,2.05,0.78,2.07,0.80,-0.80,-0.32,1.25,1.27,1.27
401,2.05,0.77,2.05,0.78,-0.78,-0.27,1.27,1.28,1.28
405,2.05,0.76,2.05,0.76,-0.76,-0.23,1.29,1.29,1.29
409,2.05,0.75,2.04,0.74,-0.74,-0.19,1.31,1.30,1.30
413,2.05,0.74,2.03,0.73,-0.73,-0.15,1.32,1.31,1.31
417,2.05,0.73,2.03,0.72,-0.72,-0.12,1.33,1.32,1.32
421,2.05,0.73,2.03,0.71,-0.71,-0.08,1.34,1.32,1.32
425,2.05,0.72,2.03,0.70,-0.70,-0.04,1.35,1.33,1.33
430,2.05,0.71,2.04,0.70,-0.70,0.00,1.35,1.34,1.34
434,2.05,0.70,2.05,0.70,-0.70,0.04,1.35,1.35,1.35
438,2.05,0.69,2.06,0.70,-0.70,0.07,1.35,1.36,1.36
443,2.05,0.68,2.08,0.72,-0.72,0.11,1.33,1.37,1.37
447,2.05,0.67,2.11,0.73,-0.73,0.15,1.32,1.38,1.38
451,2.05,0.66,2.14,0.75,-0.75,0.18,1.30,1.39,1.39
456,2.05,0.65,2.16,0.77,-0.77,0.22,1.28,1.40,1.40
460,2.05,0.64,2.18,0.78,-0.78,0.25,1.27,1.41,1.41
465,2.05,0.63,2.19,0.77,-0.77,0.28,1.28,1.42,1.42
470,2.05,0.62,2.17,0.74,-0.74,0.32,1.31,1.43,1.43
474,2.05,0.61,2.11,0.67,-0.67,0.35,1.38,1.44,1.44
479,2.05,0.60,2.02,0.57,-0.57,0.38,1.48,1.45,1.45
484,2.05,0.58,1.88,0.41,-0.41,0.42,1.64,1.47,1.47
489,2.05,0.57,1.69,0.21,-0.21,0.45,1.84,1.48,1.48
494,1.94,0.44,1.45,-0.05,0.05,0.48,1.99,1.50,1.50
499,1.82,0.31,1.17,-0.34,0.34,0.51,2.16,1.51,1.51
504,1.45,-0.08,0.86,-0.67,0.67,0.54,2.12,1.53,1.53
509,1.04,-0.51,0.53,-1.02,1.02,0.57,2.06,1.55,1.55
514,0.17,-1.40,0.20,-1.36,1.36,0.60,1.53,1.57,1.57
519,-0.55,-2.14,-0.10,-1.69,1.69,0.63,1.14,1.59,1.59
524,-1.05,-2.66,-0.37,-1.98,1.98,0.66,0.93,1.61,1.61
529,-1.46,-3.09,-0.58,-2.21,2.21,0.69,0.75,1.63,1.63
535,-1.44,-3.09,-0.74,-2.39,2.39,0.72,0.95,1.65,1.65
540,-1.37,-3.04,-0.82,-2.50,2.50,0.75,1.13,1.67,1.67
545,-1.08,-2.78,-0.84,-2.54,2.54,0.78,1.46,1.70,1.70
551,-0.76,-2.48,-0.80,-2.52,2.52,0.81,1.76,1.72,1.72
556,-0.42,-2.16,-0.72,-2.46,2.46,0.84,2.04,1.74,1.74
562,-0.23,-2.00,-0.59,-2.36,2.36,0.87,2.13,1.77,1.77
568,-0.09,-1.88,-0.45,-2.24,2.24,0.90,2.15,1.79,1.79
573,0.00,-1.82,-0.29,-2.11,2.11,0.93,2.11,1.82,1.82
579,0.00,-1.84,-0.14,-1.98,1.98,0.96,1.98,1.84,1.84
585,0.01,-1.86,-0.00,-1.87,1.87,0.99,1.88,1.87,1.87
591,0.23,-1.66,0.12,-1.77,1.77,1.03,2.00,1.89,1.89
596,0.23,-1.69,0.22,-1.70,1.70,1.05,1.93,1.91,1.92
602,0.23,-1.71,0.30,-1.64,1.64,1.09,1.87,1.94,1.94
608,0.23,-1.73,0.35,-1.61,1.61,1.12,1.84,1.96,1.96
615,0.41,-1.58,0.40,-1.59,1.59,1.16,2.00,1.98,1.99
621,0.46,-1.55,0.43,-1.58,1.58,1.20,2.04,2.01,2.01
627,0.46,-1.57,0.45,-1.58,1.58,1.24,2.04,2.03,2.03
633,0.46,-1.59,0.46,-1.59,1.59,1.27,2.05,2.05,2.05
639,0.46,-1.61,0.46,-1.61,1.61,1.31,2.07,2.07,2.07
646,0.46,-1.63,0.47,-1.62,1.62,1.35,2.08,2.09,2.09
652,0.46,-1.65,0.47,-1.64,1.64,1.39,2.10,2.11,2.11
659,0.46,-1.67,0.47,-1.66,1.66,1.44,2.12,2.13,2.13
665,0.46,-1.69,0.47,-1.68,1.68,1.48,2.14,2.15,2.15
672,0.46,-1.71,0.47,-1.70,1.70,1.53,2.16,2.17,2.17
679,0.46,-1.73,0.47,-1.72,1.72,1.58,2.18,2.19,2.19
686,0.46,-1.75,0.47,-1.74,1.74,1.63,2.20,2.21,2.21
692,0.46,-1.77,0.46,-1.76,1.76,1.67,2.22,2.23,2.23
699,0.46,-1.79,0.46,-1.79,1.79,1.72,2.25,2.25,2.25
706,0.46,-1.81,0.46,-1.81,1.81,1.77,2.27,2.27,2.27
713,0.46,-1.83,0.46,-1.83,1.83,1.83,2.29,2.29,2.29
721,0.46,-1.85,0.46,-1.85,1.85,1.89,2.31,2.31,2.31
728,0.46,-1.87,0.46,-1.87,1.87,1.95,2.33,2.33,2.33
735,0.46,-1.89,0.46,-1.88,1.88,2.00,2.34,2.35,2.35
742,0.46,-1.91,0.47,-1.90,1.90,2.06,2.36,2.37,2.37
750,0.46,-1.93,0.47,-1.92,1.92,2.12,2.38,2.39,2.39
757,0.46,-1.95,0.47,-1.94,1.94,2.18,2.40,2.41,2.41
765,0.46,-1.97,0.47,-1.96,1.96,2.25,2.42,2.43,2.43
773,0.46,-1.99,0.47,-1.98,1.98,2.32,2.44,2.45,2.45
780,0.46,-2.00,0.46,-2.00,2.00,2.38,2.46,2.46,2.46
788,0.46,-2.02,0.46,-2.03,2.03,2.45,2.49,2.48,2.48
796,0.46,-2.04,0.44,-2.05,2.05,2.51,2.51,2.50,2.50
804,0.46,-2.05,0.43,-2.08,2.08,2.58,2.54,2.51,2.51
812,0.46,-2.07,0.41,-2.12,2.12,2.65,2.58,2.53,2.53
820,0.46,-2.08,0.39,-2.15,2.15,2.72,2.61,2.54,2.54
828,0.42,-2.13,0.36,-2.19,2.19,2.78,2.61,2.55,2.55
837,0.23,-2.34,0.33,-2.23,2.23,2.85,2.46,2.56,2.57
845,0.23,-2.35,0.30,-2.27,2.27,2.92,2.50,2.57,2.58
853,0.23,-2.35,0.27,-2.31,2.31,2.98,2.54,2.58,2.58
862,0.23,-2.36,0.24,-2.36,2.36,3.05,2.59,2.59,2.59
871,0.23,-2.37,0.20,-2.40,2.40,3.11,2.63,2.60,2.60
879,0.23,-2.38,0.17,-2.44,2.44,3.17,2.67,2.61,2.61
888,0.23,-2.38,0.14,-2.47,2.47,3.23,2.70,2.61,2.61
897,0.14,-2.48,0.11,-2.51,2.51,3.28,2.65,2.62,2.62
906,0.00,-2.62,0.09,-2.54,2.54,3.33,2.54,2.62,2.62
915,0.00,-2.63,0.07,-2.56,2.56,3.38,2.56,2.63,2.63
924,0.00,-2.64,0.05,-2.59,2.59,3.42,2.59,2.64,2.64
933,0.00,-2.64,0.03,-2.61,2.61,3.46,2.61,2.64,2.64
943,0.00,-2.65,0.02,-2.63,2.63,3.50,2.63,2.65,2.65
952,0.00,-2.66,0.01,-2.65,2.65,3.52,2.65,2.66,2.66
962,0.00,-2.66,-0.00,-2.67,2.67,3.55,2.67,2.66,2.66
971,0.00,-2.67,-0.01,-2.69,2.69,3.56,2.69,2.67,2.67
981,0.00,-2.68,-0.02,-2.71,2.71,3.57,2.71,2.68,2.68
991,0.00,-2.69,-0.04,-2.73,2.73,3.58,2.73,2.69,2.69
1001,0.00,-2.71,-0.05,-2.76,2.76,3.57,2.76,2.71,2.71
1011,0.00,-2.72,-0.07,-2.79,2.79,3.56,2.79,2.72,2.72
1021,0.00,-2.73,-0.09,-2.83,2.83,3.55,2.83,2.74,2.73
1031,-0.11,-2.86,-0.12,-2.87,2.87,3.53,2.76,2.75,2.75
1041,-0.23,-3.00,-0.14,-2.91,2.91,3.50,2.68,2.77,2.77
1052,-0.23,-3.02,-0.16,-2.95,2.95,3.46,2.72,2.79,2.79
1062,-0.23,-3.03,-0.18,-2.99,2.99,3.43,2.76,2.81,2.80
1073,-0.23,-3.06,-0.20,-3.03,3.03,3.38,2.80,2.83,2.83
1084,-0.23,-3.08,-0.22,-3.06,3.06,3.33,2.83,2.85,2.85
1094,-0.23,-3.10,-0.23,-3.10,3.10,3.28,2.87,2.87,2.87
1105,-0.23,-3.12,-0.24,-3.13,3.13,3.22,2.90,2.89,2.89
1116,-0.23,-3.14,-0.24,-3.16,3.16,3.16,2.93,2.92,2.91
1128,-0.23,-3.17,-0.25,-3.19,3.19,3.09,2.96,2.94,2.94
1139,-0.23,-3.19,-0.25,-3.21,3.21,3.02,2.98,2.96,2.96
1150,-0.23,-3.21,-0.25,-3.24,3.24,2.95,3.01,2.98,2.98
1162,-0.23,-3.24,-0.25,-3.26,3.26,2.87,3.03,3.01,3.01
1173,-0.23,-3.26,-0.25,-3.27,3.27,2.80,3.04,3.03,3.03
1185,-0.23,-3.28,-0.24,-3.29,3.29,2.72,3.06,3.04,3.05
1197,-0.23,-3.29,-0.23,-3.30,3.30,2.64,3.07,3.06,3.06
1209,-0.23,-3.31,-0.22,-3.30,3.30,2.56,3.07,3.08,3.08
1221,-0.23,-3.32,-0.20,-3.30,3.30,2.47,3.07,3.09,3.09
1233,-0.23,-3.34,-0.18,-3.28,3.28,2.39,3.05,3.10,3.11
1246,-0.23,-3.35,-0.15,-3.26,3.26,2.31,3.03,3.11,3.12
1258,-0.12,-3.24,-0.12,-3.24,3.24,2.23,3.12,3.12,3.12
1271,0.00,-3.13,-0.07,-3.20,3.20,2.14,3.20,3.13,3.13
1283,0.00,-3.13,-0.03,-3.15,3.15,2.06,3.15,3.13,3.13
1296,0.00,-3.13,0.03,-3.10,3.10,1.98,3.10,3.13,3.13
1309,0.01,-3.12,0.09,-3.04,3.04,1.90,3.05,3.12,3.13
1322,0.23,-2.89,0.15,-2.97,2.97,1.82,3.20,3.12,3.12
1335,0.23,-2.88,0.22,-2.89,2.89,1.74,3.12,3.11,3.11
1349,0.23,-2.87,0.29,-2.81,2.81,1.66,3.04,3.10,3.10
1362,0.37,-2.72,0.36,-2.73,2.73,1.58,3.10,3.09,3.09
1376,0.46,-2.62,0.43,-2.65,2.65,1.50,3.11,3.08,3.08
1390,0.46,-2.61,0.51,-2.56,2.56,1.42,3.02,3.07,3.07
1404,0.68,-2.37,0.58,-2.47,2.47,1.35,3.15,3.05,3.05
1418,0.68,-2.36,0.66,-2.38,2.38,1.27,3.06,3.04,3.04
1432,0.68,-2.35,0.74,-2.29,2.29,1.20,2.97,3.03,3.03
1446,0.81,-2.20,0.81,-2.20,2.20,1.13,3.01,3.01,3.01
1461,0.91,-2.09,0.89,-2.12,2.12,1.05,3.03,3.00,3.00
1475,0.91,-2.08,0.96,-2.03,2.03,0.99,2.94,2.99,2.99
1490,1.14,-1.85,1.03,-1.95,1.95,0.91,3.09,2.99,2.99
1505,1.14,-1.84,1.11,-1.88,1.88,0.85,3.02,2.98,2.98
1520,1.14,-1.84,1.18,-1.80,1.80,0.78,2.94,2.98,2.98
1535,1.24,-1.74,1.26,-1.73,1.73,0.71,2.97,2.99,2.98
1550,1.37,-1.62,1.33,-1.66,1.66,0.65,3.03,2.99,2.99
1566,1.37,-1.63,1.42,-1.59,1.59,0.58,2.96,3.00,3.00
1582,1.58,-1.44,1.50,-1.52,1.52,0.52,3.10,3.02,3.02
1597,1.60,-1.44,1.60,-1.44,1.44,0.46,3.04,3.04,3.04
1613,1.82,-1.25,1.71,-1.36,1.36,0.40,3.18,3.07,3.07
1629,1.82,-1.28,1.83,-1.27,1.27,0.34,3.09,3.10,3.10
1646,1.82,-1.31,1.96,-1.18,1.18,0.28,3.00,3.14,3.13
1662,1.97,-1.21,2.10,-1.08,1.08,0.22,3.05,3.18,3.18
1679,2.24,-0.99,2.27,-0.97,0.97,0.17,3.21,3.23,3.23
1696,2.28,-1.00,2.44,-0.85,0.85,0.11,3.13,3.28,3.28
1713,2.54,-0.80,2.62,-0.72,0.72,0.06,3.26,3.34,3.34
1730,2.80,-0.61,2.82,-0.59,0.59,0.02,3.39,3.41,3.41
1747,3.01,-0.47,3.01,-0.47,0.47,-0.03,3.48,3.48,3.48
1764,3.25,-0.30,3.21,-0.35,0.35,-0.07,3.60,3.55,3.55
1782,3.58,-0.05,3.40,-0.23,0.23,-0.11,3.81,3.63,3.63
1800,3.65,-0.07,3.58,-0.13,0.13,-0.15,3.78,3.72,3.72
1818,3.87,0.07,3.76,-0.05,0.05,-0.19,3.92,3.80,3.80
1836,3.91,0.01,3.92,0.02,-0.02,-0.22,3.89,3.89,3.90
1854,4.10,0.11,4.06,0.08,-0.08,-0.24,4.02,3.99,3.99
1873,4.20,0.11,4.20,0.12,-0.12,-0.27,4.08,4.08,4.09
1892,4.47,0.28,4.33,0.15,-0.15,-0.29,4.32,4.18,4.19
1911,4.56,0.27,4.46,0.17,-0.17,-0.31,4.39,4.28,4.29
1930,4.77,0.38,4.59,0.20,-0.20,-0.32,4.57,4.39,4.39
1949,4.79,0.29,4.72,0.23,-0.23,-0.33,4.56,4.50,4.50
1969,4.79,0.18,4.87,0.27,-0.27,-0.33,4.52,4.61,4.61
1988,4.79,0.07,5.04,0.32,-0.32,-0.33,4.47,4.72,4.72
2008,4.90,0.06,5.23,0.39,-0.39,-0.33,4.51,4.83,4.84
2028,5.09,0.14,5.43,0.48,-0.48,-0.32,4.61,4.95,4.95
2048,5.30,0.23,5.65,0.58,-0.58,-0.31,4.72,5.07,5.07
2069,5.78,0.58,5.88,0.68,-0.68,-0.29,5.10,5.20,5.20
2090,6.19,0.86,6.12,0.79,-0.79,-0.27,5.40,5.33,5.33
2111,6.59,1.13,6.36,0.90,-0.90,-0.24,5.69,5.46,5.46
2132,6.93,1.34,6.59,0.99,-0.99,-0.21,5.94,5.60,5.59
