frequency,raw,smoothed,error,error_smoothed,equalization,parametric_eq,fixed_band_eq,equalized_raw,equalized_smoothed,target
20.00,4.68,4.68,-0.90,-0.90,0.90,1.28,-0.14,5.58,5.58,5.58
20.20,4.72,4.72,-0.89,-0.89,0.89,1.23,-0.14,5.61,5.61,5.61
20.40,4.76,4.76,-0.88,-0.88,0.88,1.18,-0.14,5.64,5.64,5.64
20.61,4.80,4.80,-0.86,-0.86,0.87,1.13,-0.14,5.66,5.66,5.66
20.81,4.84,4.84,-0.85,-0.85,0.85,1.09,-0.15,5.69,5.69,5.69
21.02,4.88,4.88,-0.84,-0.83,0.83,1.04,-0.15,5.71,5.71,5.72
21.23,4.92,4.92,-0.81,-0.81,0.80,0.99,-0.15,5.72,5.72,5.73
21.44,4.96,4.96,-0.78,-0.78,0.78,0.94,-0.16,5.74,5.74,5.74
21.66,5.00,5.00,-0.75,-0.74,0.75,0.90,-0.16,5.74,5.74,5.75
21.87,5.04,5.04,-0.71,-0.71,0.71,0.85,-0.16,5.75,5.75,5.75
22.09,5.08,5.08,-0.67,-0.67,0.67,0.80,-0.17,5.75,5.75,5.75
22.31,5.12,5.12,-0.63,-0.63,0.63,0.75,-0.17,5.75,5.75,5.75
22.54,5.16,5.16,-0.59,-0.59,0.59,0.70,-0.17,5.75,5.75,5.75
22.76,5.20,5.20,-0.55,-0.55,0.55,0.66,-0.18,5.75,5.75,5.75
22.99,5.24,5.24,-0.50,-0.51,0.51,0.61,-0.18,5.75,5.75,5.74
23.22,5.28,5.28,-0.46,-0.46,0.47,0.56,-0.19,5.75,5.75,5.74
23.45,5.32,5.32,-0.42,-0.42,0.43,0.52,-0.19,5.75,5.75,5.74
23.69,5.35,5.35,-0.39,-0.39,0.40,0.47,-0.19,5.74,5.74,5.74
23.92,5.38,5.38,-0.36,-0.36,0.36,0.42,-0.20,5.74,5.74,5.74
24.16,5.41,5.41,-0.34,-0.33,0.33,0.38,-0.20,5.74,5.74,5.75
24.40,5.45,5.45,-0.30,-0.30,0.29,0.33,-0.21,5.74,5.74,5.75
24.65,5.48,5.48,-0.26,-0.26,0.26,0.28,-0.21,5.74,5.74,5.74
24.89,5.51,5.51,-0.23,-0.22,0.22,0.24,-0.22,5.73,5.74,5.74
25.14,5.55,5.55,-0.18,-0.19,0.19,0.19,-0.22,5.74,5.73,5.73
25.39,5.58,5.58,-0.15,-0.15,0.15,0.15,-0.23,5.73,5.73,5.73
25.65,5.62,5.62,-0.11,-0.11,0.11,0.10,-0.23,5.73,5.73,5.73
25.91,5.65,5.65,-0.07,-0.07,0.07,0.06,-0.24,5.72,5.73,5.72
26.16,5.69,5.69,-0.03,-0.04,0.04,0.01,-0.24,5.73,5.72,5.72
26.43,5.72,5.72,-0.00,0.00,0.00,-0.03,-0.25,5.72,5.72,5.72
26.69,5.75,5.75,0.03,0.04,-0.03,-0.08,-0.26,5.72,5.72,5.72
26.96,5.79,5.79,0.07,0.07,-0.07,-0.12,-0.26,5.72,5.72,5.72
27.23,5.82,5.82,0.10,0.10,-0.11,-0.16,-0.27,5.71,5.71,5.72
27.50,5.85,5.85,0.14,0.14,-0.14,-0.21,-0.28,5.71,5.71,5.71
27.77,5.88,5.88,0.18,0.17,-0.18,-0.25,-0.28,5.70,5.70,5.70
28.05,5.91,5.91,0.21,0.21,-0.21,-0.29,-0.29,5.70,5.70,5.70
28.33,5.95,5.95,0.26,0.25,-0.25,-0.33,-0.30,5.70,5.70,5.69
28.62,5.98,5.98,0.29,0.29,-0.29,-0.38,-0.31,5.69,5.69,5.69
28.90,6.01,6.01,0.32,0.33,-0.32,-0.42,-0.32,5.69,5.69,5.69
29.19,6.04,6.04,0.36,0.36,-0.36,-0.46,-0.33,5.68,5.68,5.67
29.48,6.07,6.07,0.39,0.39,-0.39,-0.50,-0.34,5.68,5.68,5.68
29.78,6.10,6.10,0.43,0.43,-0.43,-0.54,-0.35,5.67,5.67,5.67
30.08,6.13,6.13,0.46,0.46,-0.47,-0.58,-0.36,5.66,5.66,5.67
30.38,6.16,6.16,0.50,0.50,-0.50,-0.62,-0.37,5.66,5.66,5.66
30.68,6.19,6.19,0.53,0.54,-0.54,-0.66,-0.38,5.65,5.65,5.66
30.99,6.23,6.23,0.59,0.58,-0.58,-0.70,-0.39,5.65,5.65,5.64
31.30,6.26,6.26,0.62,0.62,-0.61,-0.74,-0.40,5.65,5.64,5.64
31.61,6.29,6.29,0.65,0.65,-0.65,-0.78,-0.42,5.64,5.64,5.64
31.93,6.31,6.31,0.68,0.69,-0.68,-0.81,-0.43,5.62,5.63,5.63
32.24,6.34,6.34,0.73,0.72,-0.72,-0.85,-0.44,5.62,5.62,5.61
32.57,6.36,6.36,0.75,0.75,-0.75,-0.89,-0.46,5.61,5.61,5.61
32.89,6.39,6.39,0.78,0.78,-0.78,-0.92,-0.47,5.61,5.61,5.61
33.22,6.41,6.41,0.81,0.81,-0.81,-0.96,-0.49,5.60,5.60,5.60
33.55,6.43,6.43,0.84,0.84,-0.84,-0.99,-0.51,5.59,5.59,5.59
33.89,6.45,6.45,0.87,0.87,-0.87,-1.03,-0.52,5.58,5.58,5.58
34.23,6.47,6.47,0.89,0.89,-0.90,-1.06,-0.54,5.57,5.57,5.58
34.57,6.49,6.49,0.92,0.92,-0.93,-1.10,-0.56,5.56,5.56,5.56
34.92,6.51,6.51,0.96,0.95,-0.95,-1.13,-0.58,5.55,5.55,5.55
35.27,6.53,6.53,0.98,0.99,-0.99,-1.16,-0.60,5.54,5.54,5.55
35.62,6.55,6.55,1.01,1.01,-1.02,-1.20,-0.62,5.53,5.53,5.53
35.97,6.57,6.57,1.05,1.04,-1.05,-1.23,-0.64,5.52,5.52,5.52
36.33,6.59,6.59,1.07,1.08,-1.08,-1.26,-0.66,5.51,5.52,5.52
36.70,6.61,6.61,1.11,1.11,-1.10,-1.29,-0.68,5.51,5.50,5.50
37.06,6.63,6.63,1.14,1.13,-1.13,-1.32,-0.71,5.50,5.49,5.49
37.43,6.64,6.64,1.15,1.16,-1.16,-1.35,-0.73,5.48,5.48,5.49
37.81,6.66,6.66,1.19,1.19,-1.19,-1.38,-0.76,5.47,5.47,5.47
38.19,6.67,6.67,1.21,1.21,-1.21,-1.41,-0.78,5.46,5.46,5.46
38.57,6.69,6.69,1.24,1.24,-1.24,-1.44,-0.81,5.45,5.45,5.45
38.95,6.70,6.70,1.26,1.26,-1.26,-1.46,-0.83,5.44,5.44,5.44
39.34,6.71,6.71,1.29,1.29,-1.29,-1.49,-0.86,5.42,5.42,5.42
39.74,6.72,6.72,1.31,1.31,-1.31,-1.52,-0.89,5.41,5.41,5.41
40.14,6.74,6.74,1.34,1.34,-1.34,-1.54,-0.92,5.40,5.40,5.40
40.54,6.75,6.75,1.36,1.36,-1.37,-1.57,-0.95,5.38,5.39,5.39
40.94,6.77,6.77,1.39,1.39,-1.39,-1.59,-0.98,5.38,5.38,5.38
41.35,6.79,6.79,1.43,1.42,-1.42,-1.62,-1.01,5.37,5.37,5.36
41.76,6.81,6.81,1.45,1.45,-1.45,-1.64,-1.04,5.36,5.36,5.36
42.18,6.83,6.83,1.48,1.48,-1.48,-1.67,-1.08,5.35,5.35,5.35
42.60,6.84,6.84,1.51,1.50,-1.51,-1.69,-1.11,5.33,5.33,5.33
43.03,6.86,6.86,1.53,1.54,-1.54,-1.71,-1.14,5.32,5.32,5.33
43.46,6.88,6.88,1.57,1.57,-1.58,-1.73,-1.18,5.30,5.30,5.31
43.90,6.90,6.90,1.62,1.61,-1.61,-1.75,-1.22,5.29,5.29,5.28
44.33,6.92,6.92,1.65,1.65,-1.65,-1.78,-1.26,5.27,5.27,5.26
44.78,6.93,6.94,1.68,1.69,-1.69,-1.80,-1.29,5.24,5.25,5.25
45.23,6.96,6.96,1.73,1.73,-1.73,-1.82,-1.33,5.23,5.23,5.23
45.68,6.98,6.98,1.77,1.77,-1.76,-1.83,-1.37,5.21,5.21,5.21
46.13,7.00,7.00,1.81,1.81,-1.80,-1.85,-1.42,5.20,5.20,5.19
46.60,7.02,7.02,1.84,1.85,-1.84,-1.87,-1.46,5.17,5.18,5.18
47.06,7.05,7.05,1.89,1.88,-1.89,-1.89,-1.50,5.16,5.16,5.16
47.53,7.07,7.07,1.93,1.92,-1.93,-1.91,-1.55,5.14,5.14,5.14
48.01,7.09,7.09,1.96,1.97,-1.98,-1.92,-1.59,5.11,5.12,5.13
48.49,7.12,7.12,2.02,2.02,-2.02,-1.94,-1.64,5.10,5.10,5.10
48.97,7.14,7.14,2.07,2.07,-2.07,-1.96,-1.68,5.07,5.07,5.07
49.46,7.16,7.16,2.12,2.12,-2.11,-1.97,-1.73,5.05,5.05,5.04
49.96,7.18,7.18,2.17,2.16,-2.16,-1.99,-1.78,5.02,5.02,5.01
50.46,7.19,7.19,2.19,2.20,-2.20,-2.00,-1.83,4.99,4.99,4.99
50.96,7.21,7.21,2.24,2.24,-2.24,-2.01,-1.87,4.97,4.97,4.97
51.47,7.22,7.22,2.28,2.28,-2.28,-2.03,-1.92,4.94,4.94,4.94
51.99,7.23,7.23,2.31,2.31,-2.31,-2.04,-1.97,4.92,4.92,4.92
52.51,7.24,7.24,2.34,2.34,-2.34,-2.05,-2.02,4.90,4.90,4.90
53.03,7.25,7.25,2.37,2.37,-2.37,-2.07,-2.07,4.88,4.88,4.88
53.56,7.25,7.25,2.40,2.40,-2.40,-2.08,-2.11,4.85,4.85,4.85
54.10,7.25,7.25,2.42,2.42,-2.43,-2.09,-2.16,4.82,4.82,4.83
54.64,7.25,7.25,2.45,2.45,-2.45,-2.10,-2.21,4.80,4.80,4.80
55.18,7.25,7.25,2.48,2.48,-2.47,-2.11,-2.25,4.77,4.78,4.77
55.74,7.25,7.25,2.50,2.50,-2.50,-2.13,-2.29,4.75,4.75,4.75
56.29,7.24,7.24,2.51,2.52,-2.51,-2.14,-2.34,4.73,4.73,4.73
56.86,7.23,7.23,2.53,2.53,-2.53,-2.15,-2.38,4.70,4.70,4.70
57.42,7.22,7.22,2.55,2.54,-2.54,-2.16,-2.42,4.68,4.68,4.67
58.00,7.20,7.20,2.55,2.55,-2.55,-2.17,-2.45,4.65,4.66,4.65
58.58,7.19,7.19,2.56,2.55,-2.55,-2.18,-2.49,4.64,4.64,4.63
59.16,7.17,7.17,2.56,2.55,-2.56,-2.19,-2.52,4.61,4.61,4.61
59.76,7.14,7.14,2.55,2.55,-2.56,-2.20,-2.55,4.58,4.58,4.59
60.35,7.12,7.12,2.56,2.55,-2.56,-2.21,-2.58,4.56,4.55,4.56
60.96,7.09,7.09,2.55,2.56,-2.57,-2.22,-2.60,4.52,4.53,4.54
61.57,7.07,7.07,2.57,2.57,-2.57,-2.23,-2.62,4.50,4.50,4.49
62.18,7.04,7.04,2.58,2.57,-2.57,-2.24,-2.64,4.47,4.47,4.46
62.80,7.01,7.01,2.57,2.58,-2.57,-2.25,-2.66,4.44,4.44,4.44
63.43,6.97,6.97,2.57,2.57,-2.57,-2.26,-2.67,4.40,4.41,4.40
64.07,6.94,6.94,2.56,2.56,-2.56,-2.27,-2.68,4.38,4.38,4.38
64.71,6.90,6.90,2.55,2.55,-2.56,-2.27,-2.69,4.34,4.35,4.35
65.35,6.87,6.87,2.55,2.55,-2.55,-2.28,-2.70,4.32,4.32,4.32
66.01,6.83,6.83,2.54,2.54,-2.54,-2.29,-2.70,4.29,4.29,4.29
66.67,6.79,6.79,2.53,2.53,-2.53,-2.30,-2.70,4.26,4.26,4.26
67.33,6.75,6.75,2.51,2.51,-2.52,-2.31,-2.70,4.23,4.23,4.23
68.01,6.71,6.71,2.51,2.51,-2.51,-2.32,-2.69,4.20,4.20,4.20
68.69,6.67,6.67,2.50,2.50,-2.50,-2.33,-2.69,4.17,4.17,4.17
69.37,6.63,6.63,2.49,2.49,-2.49,-2.34,-2.68,4.14,4.14,4.14
70.07,6.59,6.59,2.48,2.48,-2.48,-2.35,-2.67,4.11,4.11,4.11
70.77,6.55,6.55,2.47,2.47,-2.47,-2.36,-2.66,4.08,4.08,4.08
71.48,6.51,6.51,2.46,2.46,-2.46,-2.37,-2.65,4.05,4.05,4.05
72.19,6.47,6.47,2.45,2.45,-2.46,-2.38,-2.64,4.01,4.01,4.01
72.91,6.43,6.43,2.45,2.45,-2.45,-2.40,-2.63,3.98,3.98,3.98
73.64,6.39,6.39,2.45,2.45,-2.44,-2.41,-2.62,3.95,3.95,3.94
74.38,6.35,6.35,2.44,2.44,-2.44,-2.42,-2.61,3.91,3.91,3.91
75.12,6.31,6.31,2.43,2.43,-2.43,-2.43,-2.60,3.88,3.88,3.88
75.87,6.27,6.27,2.42,2.42,-2.42,-2.44,-2.59,3.85,3.85,3.85
76.63,6.23,6.23,2.41,2.41,-2.42,-2.45,-2.58,3.81,3.81,3.82
77.40,6.19,6.19,2.40,2.41,-2.41,-2.47,-2.58,3.78,3.78,3.78
78.17,6.15,6.15,2.41,2.40,-2.40,-2.48,-2.57,3.75,3.75,3.74
78.95,6.12,6.11,2.40,2.40,-2.40,-2.49,-2.56,3.72,3.72,3.72
79.74,6.08,6.08,2.39,2.39,-2.39,-2.51,-2.56,3.69,3.69,3.69
80.54,6.04,6.04,2.39,2.39,-2.39,-2.52,-2.55,3.65,3.65,3.65
81.35,6.01,6.01,2.39,2.39,-2.39,-2.53,-2.55,3.62,3.62,3.62
82.16,5.97,5.97,2.39,2.39,-2.39,-2.55,-2.55,3.58,3.58,3.58
82.98,5.94,5.94,2.38,2.39,-2.39,-2.56,-2.56,3.55,3.55,3.56
83.81,5.90,5.90,2.39,2.39,-2.39,-2.58,-2.56,3.51,3.51,3.51
84.65,5.87,5.87,2.40,2.39,-2.39,-2.59,-2.56,3.48,3.48,3.47
85.50,5.84,5.84,2.40,2.40,-2.40,-2.61,-2.57,3.44,3.44,3.44
86.35,5.81,5.81,2.41,2.40,-2.40,-2.62,-2.58,3.41,3.40,3.40
87.22,5.77,5.77,2.41,2.41,-2.41,-2.64,-2.59,3.36,3.36,3.36
88.09,5.74,5.74,2.42,2.41,-2.42,-2.65,-2.61,3.32,3.32,3.32
88.97,5.71,5.71,2.42,2.42,-2.42,-2.67,-2.62,3.29,3.29,3.29
89.86,5.68,5.68,2.43,2.43,-2.43,-2.68,-2.64,3.25,3.25,3.25
90.76,5.65,5.65,2.45,2.44,-2.44,-2.70,-2.66,3.21,3.21,3.20
91.66,5.62,5.62,2.45,2.46,-2.45,-2.72,-2.68,3.17,3.17,3.17
92.58,5.58,5.58,2.47,2.46,-2.46,-2.73,-2.70,3.12,3.12,3.11
93.51,5.55,5.55,2.47,2.47,-2.48,-2.75,-2.73,3.07,3.07,3.08
94.44,5.52,5.52,2.48,2.48,-2.49,-2.76,-2.76,3.03,3.03,3.04
95.39,5.49,5.49,2.50,2.50,-2.50,-2.78,-2.79,2.99,2.99,2.99
96.34,5.46,5.46,2.52,2.52,-2.52,-2.80,-2.82,2.94,2.94,2.94
97.30,5.43,5.43,2.54,2.54,-2.54,-2.81,-2.85,2.89,2.89,2.89
98.28,5.40,5.40,2.55,2.56,-2.56,-2.83,-2.88,2.84,2.85,2.85
99.26,5.38,5.38,2.58,2.58,-2.57,-2.85,-2.92,2.81,2.80,2.80
100.25,5.35,5.35,2.59,2.59,-2.59,-2.86,-2.95,2.76,2.76,2.75
101.25,5.32,5.32,2.61,2.61,-2.61,-2.88,-2.99,2.71,2.71,2.71
102.27,5.29,5.29,2.63,2.63,-2.63,-2.90,-3.03,2.66,2.66,2.66
103.29,5.26,5.26,2.65,2.65,-2.65,-2.91,-3.07,2.61,2.61,2.61
104.32,5.23,5.23,2.66,2.67,-2.67,-2.93,-3.11,2.56,2.57,2.57
105.37,5.21,5.21,2.69,2.68,-2.68,-2.94,-3.15,2.53,2.52,2.52
106.42,5.18,5.18,2.70,2.70,-2.70,-2.96,-3.19,2.48,2.48,2.48
107.48,5.15,5.15,2.72,2.72,-2.72,-2.97,-3.23,2.43,2.43,2.43
108.56,5.12,5.12,2.75,2.74,-2.74,-2.99,-3.27,2.38,2.38,2.37
109.64,5.09,5.09,2.76,2.76,-2.76,-3.00,-3.31,2.33,2.33,2.33
110.74,5.06,5.06,2.78,2.78,-2.78,-3.02,-3.34,2.28,2.28,2.28
111.85,5.03,5.03,2.79,2.80,-2.80,-3.03,-3.38,2.23,2.23,2.24
112.97,5.00,5.00,2.83,2.82,-2.82,-3.04,-3.41,2.18,2.18,2.17
114.10,4.97,4.97,2.84,2.85,-2.85,-3.06,-3.45,2.12,2.12,2.13
115.24,4.94,4.94,2.87,2.87,-2.87,-3.07,-3.47,2.07,2.07,2.07
116.39,4.91,4.91,2.89,2.89,-2.89,-3.08,-3.50,2.02,2.02,2.02
117.55,4.88,4.88,2.92,2.92,-2.91,-3.09,-3.52,1.97,1.97,1.96
118.73,4.85,4.85,2.94,2.93,-2.93,-3.10,-3.55,1.92,1.91,1.91
119.92,4.81,4.81,2.94,2.95,-2.95,-3.11,-3.56,1.86,1.86,1.87
121.12,4.78,4.78,2.97,2.97,-2.97,-3.12,-3.58,1.81,1.81,1.81
122.33,4.75,4.75,2.99,2.98,-2.99,-3.13,-3.59,1.76,1.76,1.76
123.55,4.72,4.72,3.00,3.00,-3.00,-3.14,-3.59,1.72,1.71,1.72
124.79,4.68,4.68,3.01,3.02,-3.02,-3.14,-3.59,1.66,1.66,1.67
126.03,4.65,4.65,3.03,3.03,-3.04,-3.15,-3.59,1.61,1.61,1.62
127.29,4.62,4.62,3.05,3.05,-3.05,-3.16,-3.59,1.57,1.56,1.57
128.57,4.58,4.58,3.07,3.07,-3.07,-3.16,-3.58,1.51,1.51,1.51
129.85,4.55,4.55,3.09,3.09,-3.08,-3.16,-3.56,1.46,1.46,1.46
131.15,4.51,4.51,3.10,3.10,-3.10,-3.17,-3.55,1.41,1.41,1.41
132.46,4.48,4.48,3.12,3.11,-3.11,-3.17,-3.53,1.37,1.37,1.36
133.79,4.45,4.45,3.12,3.13,-3.13,-3.17,-3.50,1.32,1.32,1.33
135.12,4.41,4.41,3.14,3.13,-3.14,-3.17,-3.48,1.27,1.28,1.27
136.48,4.38,4.38,3.14,3.14,-3.14,-3.18,-3.45,1.23,1.23,1.24
137.84,4.34,4.34,3.15,3.15,-3.15,-3.18,-3.41,1.19,1.19,1.19
139.22,4.30,4.30,3.16,3.16,-3.16,-3.17,-3.38,1.14,1.15,1.14
140.61,4.27,4.27,3.17,3.16,-3.16,-3.17,-3.34,1.11,1.10,1.10
142.02,4.23,4.23,3.16,3.17,-3.16,-3.17,-3.31,1.07,1.07,1.07
143.44,4.20,4.20,3.17,3.17,-3.17,-3.17,-3.27,1.03,1.03,1.03
144.87,4.16,4.16,3.17,3.17,-3.17,-3.16,-3.23,0.99,0.99,0.99
146.32,4.12,4.12,3.17,3.17,-3.17,-3.16,-3.19,0.95,0.96,0.95
147.78,4.09,4.08,3.17,3.17,-3.17,-3.15,-3.15,0.92,0.92,0.92
149.26,4.05,4.05,3.16,3.17,-3.17,-3.14,-3.11,0.88,0.88,0.89
150.75,4.01,4.01,3.17,3.17,-3.17,-3.14,-3.06,0.84,0.84,0.84
152.26,3.98,3.98,3.18,3.17,-3.17,-3.13,-3.02,0.81,0.80,0.80
153.78,3.94,3.94,3.17,3.18,-3.17,-3.12,-2.98,0.77,0.76,0.77
155.32,3.90,3.90,3.18,3.17,-3.18,-3.11,-2.95,0.72,0.72,0.72
156.88,3.86,3.86,3.17,3.17,-3.18,-3.10,-2.91,0.68,0.68,0.69
158.44,3.82,3.82,3.17,3.18,-3.18,-3.09,-2.87,0.64,0.64,0.64
160.03,3.79,3.79,3.19,3.18,-3.18,-3.08,-2.83,0.61,0.60,0.60
161.63,3.75,3.75,3.19,3.19,-3.18,-3.06,-2.80,0.57,0.57,0.56
163.24,3.71,3.71,3.19,3.19,-3.18,-3.05,-2.77,0.53,0.53,0.52
164.88,3.67,3.67,3.18,3.18,-3.18,-3.03,-2.74,0.49,0.49,0.49
166.53,3.63,3.63,3.18,3.18,-3.18,-3.02,-2.71,0.45,0.45,0.45
168.19,3.58,3.58,3.17,3.17,-3.17,-3.00,-2.68,0.41,0.41,0.41
169.87,3.54,3.54,3.16,3.16,-3.17,-2.99,-2.65,0.37,0.37,0.38
171.57,3.50,3.50,3.16,3.16,-3.16,-2.97,-2.63,0.34,0.34,0.34
173.29,3.46,3.46,3.16,3.16,-3.16,-2.95,-2.61,0.30,0.30,0.30
175.02,3.42,3.42,3.15,3.16,-3.15,-2.93,-2.59,0.26,0.26,0.27
176.77,3.38,3.38,3.16,3.15,-3.15,-2.92,-2.57,0.23,0.22,0.22
178.54,3.33,3.33,3.15,3.15,-3.15,-2.90,-2.56,0.18,0.18,0.18
180.32,3.29,3.29,3.14,3.15,-3.15,-2.88,-2.54,0.14,0.14,0.14
182.13,3.25,3.25,3.14,3.14,-3.14,-2.86,-2.53,0.11,0.11,0.11
183.95,3.21,3.21,3.14,3.14,-3.14,-2.84,-2.52,0.07,0.07,0.07
185.79,3.17,3.17,3.13,3.13,-3.13,-2.81,-2.52,0.04,0.04,0.04
187.65,3.13,3.13,3.13,3.13,-3.13,-2.79,-2.51,0.00,0.00,-0.00
189.52,3.09,3.09,3.12,3.12,-3.12,-2.77,-2.51,-0.03,-0.03,-0.03
191.42,3.05,3.05,3.11,3.11,-3.11,-2.75,-2.50,-0.06,-0.06,-0.06
193.33,3.01,3.01,3.10,3.10,-3.10,-2.72,-2.50,-0.09,-0.09,-0.09
195.27,2.97,2.97,3.09,3.09,-3.09,-2.70,-2.50,-0.12,-0.12,-0.12
197.22,2.93,2.93,3.08,3.08,-3.08,-2.68,-2.51,-0.15,-0.15,-0.15
199.19,2.89,2.89,3.07,3.07,-3.06,-2.65,-2.51,-0.17,-0.17,-0.18
201.18,2.85,2.85,3.05,3.05,-3.04,-2.63,-2.51,-0.20,-0.20,-0.20
203.19,2.81,2.81,3.03,3.03,-3.02,-2.60,-2.52,-0.21,-0.22,-0.22
205.23,2.76,2.76,3.00,3.00,-3.00,-2.58,-2.53,-0.24,-0.24,-0.24
207.28,2.72,2.72,2.97,2.97,-2.97,-2.55,-2.54,-0.25,-0.26,-0.25
209.35,2.67,2.67,2.94,2.95,-2.94,-2.52,-2.54,-0.27,-0.27,-0.27
211.44,2.63,2.63,2.92,2.91,-2.91,-2.50,-2.55,-0.28,-0.29,-0.30
213.56,2.58,2.58,2.88,2.88,-2.88,-2.47,-2.56,-0.30,-0.30,-0.30
215.69,2.53,2.53,2.83,2.84,-2.84,-2.44,-2.57,-0.31,-0.31,-0.30
217.85,2.49,2.49,2.80,2.80,-2.81,-2.42,-2.58,-0.32,-0.32,-0.32
220.03,2.44,2.44,2.77,2.77,-2.77,-2.39,-2.59,-0.33,-0.33,-0.33
222.23,2.40,2.40,2.74,2.73,-2.73,-2.36,-2.60,-0.33,-0.33,-0.34
224.45,2.36,2.36,2.69,2.69,-2.69,-2.33,-2.60,-0.33,-0.33,-0.33
226.70,2.32,2.32,2.65,2.65,-2.65,-2.31,-2.61,-0.33,-0.33,-0.33
228.96,2.28,2.28,2.61,2.61,-2.62,-2.28,-2.61,-0.34,-0.34,-0.33
231.25,2.25,2.25,2.57,2.57,-2.58,-2.25,-2.62,-0.33,-0.33,-0.32
233.57,2.22,2.22,2.54,2.54,-2.55,-2.22,-2.62,-0.33,-0.33,-0.32
235.90,2.19,2.19,2.51,2.51,-2.51,-2.19,-2.61,-0.33,-0.32,-0.32
238.26,2.17,2.17,2.49,2.49,-2.48,-2.17,-2.61,-0.31,-0.32,-0.32
240.64,2.14,2.14,2.45,2.45,-2.45,-2.14,-2.61,-0.31,-0.31,-0.31
243.05,2.12,2.12,2.42,2.42,-2.41,-2.11,-2.60,-0.29,-0.30,-0.30
245.48,2.09,2.09,2.38,2.38,-2.38,-2.08,-2.59,-0.29,-0.29,-0.29
247.93,2.06,2.06,2.34,2.34,-2.34,-2.05,-2.57,-0.28,-0.28,-0.28
250.41,2.03,2.03,2.30,2.30,-2.30,-2.02,-2.56,-0.27,-0.27,-0.27
252.92,2.00,2.00,2.25,2.25,-2.25,-1.99,-2.54,-0.26,-0.25,-0.25
255.45,1.98,1.98,2.21,2.21,-2.21,-1.96,-2.52,-0.23,-0.23,-0.23
258.00,1.95,1.95,2.17,2.16,-2.17,-1.93,-2.49,-0.22,-0.22,-0.22
260.58,1.92,1.92,2.12,2.12,-2.12,-1.90,-2.46,-0.20,-0.20,-0.20
263.19,1.89,1.89,2.07,2.08,-2.07,-1.87,-2.43,-0.18,-0.18,-0.18
265.82,1.87,1.87,2.04,2.03,-2.03,-1.84,-2.40,-0.16,-0.16,-0.17
268.48,1.84,1.84,1.98,1.98,-1.98,-1.82,-2.37,-0.14,-0.14,-0.14
271.16,1.81,1.81,1.93,1.93,-1.93,-1.79,-2.33,-0.12,-0.12,-0.12
273.87,1.79,1.79,1.89,1.89,-1.89,-1.76,-2.29,-0.10,-0.10,-0.10
276.61,1.76,1.76,1.84,1.84,-1.85,-1.73,-2.25,-0.09,-0.09,-0.08
279.38,1.74,1.74,1.80,1.80,-1.81,-1.70,-2.21,-0.07,-0.07,-0.06
282.17,1.72,1.72,1.77,1.77,-1.77,-1.67,-2.16,-0.05,-0.05,-0.05
284.99,1.71,1.71,1.73,1.74,-1.74,-1.64,-2.12,-0.03,-0.03,-0.02
287.84,1.70,1.70,1.71,1.71,-1.71,-1.61,-2.07,-0.01,-0.01,-0.01
290.72,1.69,1.69,1.67,1.67,-1.68,-1.58,-2.02,0.01,0.01,0.02
293.63,1.68,1.68,1.65,1.65,-1.65,-1.55,-1.98,0.03,0.03,0.03
296.57,1.67,1.67,1.61,1.62,-1.62,-1.52,-1.93,0.05,0.06,0.06
299.53,1.67,1.66,1.60,1.59,-1.59,-1.49,-1.88,0.08,0.08,0.07
302.53,1.65,1.65,1.56,1.56,-1.55,-1.46,-1.83,0.10,0.10,0.09
305.55,1.64,1.64,1.51,1.52,-1.52,-1.43,-1.78,0.12,0.12,0.13
308.61,1.63,1.63,1.49,1.48,-1.48,-1.40,-1.73,0.15,0.15,0.14
311.69,1.62,1.62,1.45,1.44,-1.44,-1.37,-1.68,0.18,0.17,0.17
314.81,1.60,1.60,1.39,1.40,-1.40,-1.34,-1.64,0.20,0.20,0.21
317.96,1.58,1.58,1.36,1.36,-1.36,-1.31,-1.59,0.22,0.22,0.22
321.14,1.56,1.56,1.32,1.32,-1.32,-1.28,-1.54,0.24,0.24,0.24
324.35,1.54,1.54,1.28,1.28,-1.28,-1.25,-1.49,0.26,0.26,0.26
327.59,1.52,1.52,1.24,1.24,-1.24,-1.22,-1.45,0.28,0.28,0.28
330.87,1.50,1.50,1.20,1.20,-1.20,-1.18,-1.40,0.30,0.30,0.30
334.18,1.47,1.47,1.15,1.15,-1.15,-1.15,-1.36,0.32,0.32,0.32
337.52,1.45,1.45,1.11,1.11,-1.11,-1.12,-1.31,0.34,0.34,0.33
340.90,1.42,1.42,1.06,1.06,-1.06,-1.09,-1.27,0.36,0.36,0.36
344.30,1.40,1.40,1.02,1.02,-1.02,-1.06,-1.23,0.38,0.38,0.38
347.75,1.37,1.37,0.97,0.97,-0.97,-1.03,-1.19,0.40,0.40,0.40
351.23,1.34,1.34,0.92,0.92,-0.92,-1.00,-1.14,0.42,0.42,0.41
354.74,1.31,1.31,0.88,0.88,-0.88,-0.96,-1.11,0.43,0.43,0.43
358.28,1.28,1.28,0.83,0.83,-0.84,-0.93,-1.07,0.44,0.45,0.45
361.87,1.26,1.26,0.79,0.79,-0.79,-0.90,-1.03,0.47,0.46,0.47
365.49,1.23,1.23,0.75,0.75,-0.75,-0.87,-0.99,0.48,0.48,0.48
369.14,1.20,1.20,0.71,0.72,-0.71,-0.83,-0.95,0.49,0.49,0.48
372.83,1.18,1.18,0.68,0.68,-0.68,-0.80,-0.92,0.50,0.50,0.50
376.56,1.16,1.16,0.65,0.64,-0.64,-0.77,-0.88,0.52,0.52,0.51
380.33,1.14,1.14,0.60,0.61,-0.61,-0.74,-0.85,0.53,0.53,0.54
384.13,1.12,1.12,0.57,0.57,-0.57,-0.70,-0.82,0.55,0.54,0.55
387.97,1.10,1.10,0.54,0.54,-0.54,-0.67,-0.78,0.56,0.56,0.56
391.85,1.08,1.08,0.51,0.51,-0.51,-0.64,-0.75,0.57,0.57,0.56
395.77,1.07,1.07,0.49,0.49,-0.49,-0.60,-0.72,0.58,0.58,0.58
399.73,1.05,1.05,0.46,0.46,-0.46,-0.57,-0.69,0.59,0.59,0.59
403.72,1.04,1.04,0.44,0.44,-0.44,-0.54,-0.66,0.60,0.60,0.60
407.76,1.03,1.03,0.42,0.42,-0.41,-0.51,-0.63,0.62,0.61,0.61
411.84,1.02,1.02,0.39,0.39,-0.39,-0.48,-0.60,0.63,0.63,0.63
415.96,1.01,1.01,0.37,0.37,-0.37,-0.45,-0.58,0.64,0.64,0.64
420.12,1.00,1.00,0.35,0.35,-0.36,-0.42,-0.55,0.64,0.64,0.65
424.32,0.99,0.99,0.33,0.34,-0.34,-0.39,-0.52,0.65,0.65,0.65
428.56,0.99,0.98,0.33,0.32,-0.33,-0.36,-0.49,0.66,0.66,0.66
432.85,0.98,0.98,0.31,0.31,-0.31,-0.33,-0.47,0.67,0.67,0.67
437.18,0.98,0.98,0.30,0.30,-0.30,-0.31,-0.44,0.68,0.68,0.68
441.55,0.99,0.99,0.29,0.29,-0.29,-0.29,-0.41,0.70,0.70,0.70
445.96,0.99,0.99,0.28,0.28,-0.27,-0.26,-0.39,0.72,0.72,0.71
450.42,0.98,0.98,0.26,0.26,-0.25,-0.24,-0.36,0.73,0.73,0.72
454.93,0.97,0.97,0.23,0.24,-0.23,-0.22,-0.34,0.74,0.74,0.74
459.48,0.96,0.96,0.21,0.21,-0.21,-0.20,-0.31,0.75,0.75,0.75
464.07,0.95,0.95,0.18,0.18,-0.19,-0.18,-0.29,0.76,0.76,0.77
468.71,0.94,0.94,0.15,0.16,-0.16,-0.17,-0.26,0.78,0.78,0.79
473.40,0.93,0.93,0.13,0.14,-0.14,-0.15,-0.24,0.79,0.79,0.79
478.13,0.93,0.93,0.12,0.12,-0.12,-0.14,-0.22,0.81,0.81,0.81
482.91,0.93,0.93,0.11,0.10,-0.10,-0.12,-0.19,0.83,0.83,0.82
487.74,0.92,0.92,0.08,0.08,-0.08,-0.11,-0.17,0.84,0.84,0.84
492.62,0.92,0.92,0.06,0.06,-0.06,-0.09,-0.14,0.86,0.86,0.86
497.55,0.92,0.92,0.05,0.04,-0.05,-0.08,-0.12,0.87,0.87,0.87
502.52,0.92,0.92,0.03,0.03,-0.03,-0.07,-0.09,0.89,0.89,0.89
507.55,0.92,0.92,0.02,0.02,-0.01,-0.05,-0.07,0.91,0.91,0.90
512.62,0.92,0.92,-0.00,-0.00,0.00,-0.04,-0.04,0.92,0.92,0.92
517.75,0.92,0.92,-0.02,-0.02,0.02,-0.03,-0.02,0.94,0.94,0.94
522.93,0.92,0.92,-0.04,-0.03,0.03,-0.02,0.01,0.95,0.95,0.96
528.16,0.93,0.93,-0.04,-0.05,0.04,-0.00,0.03,0.97,0.97,0.97
533.44,0.93,0.93,-0.06,-0.06,0.06,0.01,0.06,0.99,0.99,0.99
