frequency,raw
20.00,4.87
20.20,4.90
20.40,4.93
20.61,4.96
20.81,4.99
21.02,5.02
21.23,5.06
21.44,5.10
21.66,5.14
21.87,5.18
22.09,5.22
22.31,5.26
22.54,5.31
22.76,5.35
22.99,5.40
23.22,5.44
23.45,5.47
23.69,5.51
23.92,5.55
24.16,5.58
24.40,5.62
24.65,5.66
24.89,5.69
25.14,5.73
25.39,5.76
25.65,5.79
25.91,5.83
26.16,5.85
26.43,5.87
26.69,5.90
26.96,5.92
27.23,5.94
27.50,5.96
27.77,5.97
28.05,5.99
28.33,6.02
28.62,6.05
28.90,6.07
29.19,6.08
29.48,6.08
29.78,6.09
30.08,6.09
30.38,6.09
30.68,6.10
30.99,6.10
31.30,6.11
31.61,6.12
31.93,6.13
32.24,6.16
32.57,6.20
32.89,6.24
33.22,6.26
33.55,6.28
33.89,6.29
34.23,6.32
34.57,6.35
34.92,6.38
35.27,6.40
35.62,6.42
35.97,6.44
36.33,6.44
36.70,6.44
37.06,6.44
37.43,6.41
37.81,6.38
38.19,6.35
38.57,6.32
38.95,6.29
39.34,6.26
39.74,6.22
40.14,6.18
40.54,6.14
40.94,6.10
41.35,6.04
41.76,5.98
42.18,5.92
42.60,5.84
43.03,5.76
43.46,5.66
43.90,5.56
44.33,5.46
44.78,5.35
45.23,5.22
45.68,5.08
46.13,4.93
46.60,4.77
47.06,4.61
47.53,4.48
48.01,4.35
48.49,4.23
48.97,4.11
49.46,4.00
49.96,3.89
50.46,3.80
50.96,3.71
51.47,3.69
51.99,3.68
52.51,3.75
53.03,3.82
53.56,3.96
54.10,4.10
54.64,4.26
55.18,4.43
55.74,4.61
56.29,4.77
56.86,4.93
57.42,5.05
58.00,5.16
58.58,5.21
59.16,5.23
59.76,5.20
60.35,5.13
60.96,5.03
61.57,4.87
62.18,4.70
62.80,4.49
63.43,4.26
64.07,4.01
64.71,3.73
65.35,3.44
66.01,3.16
66.67,2.89
67.33,2.64
68.01,2.41
68.69,2.26
69.37,2.16
70.07,2.11
70.77,2.21
71.48,2.35
72.19,2.53
72.91,2.77
73.64,3.08
74.38,3.39
75.12,3.71
75.87,4.07
76.63,4.40
77.40,4.73
78.17,5.04
78.95,5.29
79.74,5.52
80.54,5.75
81.35,5.94
82.16,6.11
82.98,6.28
83.81,6.43
84.65,6.58
85.50,6.70
86.35,6.82
87.22,6.93
88.09,7.03
88.97,7.11
89.86,7.14
90.76,7.18
91.66,7.22
92.58,7.24
93.51,7.27
94.44,7.28
95.39,7.30
96.34,7.33
97.30,7.36
98.28,7.36
99.26,7.33
100.25,7.29
101.25,7.27
102.27,7.25
103.29,7.25
104.32,7.25
105.37,7.25
106.42,7.25
107.48,7.25
108.56,7.25
109.64,7.26
110.74,7.28
111.85,7.24
112.97,7.23
114.10,7.23
115.24,7.18
116.39,7.11
117.55,7.04
118.73,6.98
119.92,6.94
121.12,6.89
122.33,6.83
123.55,6.77
124.79,6.73
126.03,6.70
127.29,6.68
128.57,6.64
129.85,6.62
131.15,6.57
132.46,6.51
133.79,6.46
135.12,6.38
136.48,6.32
137.84,6.27
139.22,6.22
140.61,6.18
142.02,6.13
143.44,6.07
144.87,6.01
146.32,5.97
147.78,5.90
149.26,5.83
150.75,5.74
152.26,5.67
153.78,5.58
155.32,5.49
156.88,5.41
158.44,5.32
160.03,5.24
161.63,5.14
163.24,5.05
164.88,4.96
166.53,4.84
168.19,4.74
169.87,4.65
171.57,4.54
173.29,4.43
175.02,4.32
176.77,4.20
178.54,4.06
180.32,3.95
182.13,3.84
183.95,3.73
185.79,3.60
187.65,3.46
189.52,3.32
191.42,3.17
193.33,3.04
195.27,2.88
197.22,2.73
199.19,2.59
201.18,2.46
203.19,2.34
205.23,2.20
207.28,2.07
209.35,1.95
211.44,1.82
213.56,1.70
215.69,1.55
217.85,1.41
220.03,1.28
222.23,1.15
224.45,1.02
226.70,0.89
228.96,0.75
231.25,0.63
233.57,0.51
235.90,0.40
238.26,0.29
240.64,0.19
243.05,0.07
245.48,-0.04
247.93,-0.13
250.41,-0.23
252.92,-0.31
255.45,-0.38
258.00,-0.44
260.58,-0.49
263.19,-0.54
265.82,-0.60
268.48,-0.66
271.16,-0.71
273.87,-0.77
276.61,-0.80
279.38,-0.83
282.17,-0.87
284.99,-0.91
287.84,-0.93
290.72,-0.93
293.63,-0.93
296.57,-0.96
299.53,-0.98
302.53,-0.98
305.55,-0.98
308.61,-0.98
311.69,-0.98
314.81,-0.98
317.96,-0.98
321.14,-0.98
324.35,-0.98
327.59,-0.98
330.87,-0.98
334.18,-0.98
337.52,-0.98
340.90,-0.98
344.30,-0.98
347.75,-0.98
351.23,-0.98
354.74,-0.98
358.28,-0.98
361.87,-0.98
365.49,-0.98
369.14,-0.98
372.83,-0.98
376.56,-0.98
380.33,-0.98
384.13,-0.94
387.97,-0.93
391.85,-0.90
395.77,-0.89
399.73,-0.86
403.72,-0.83
407.76,-0.80
411.84,-0.76
415.96,-0.75
420.12,-0.73
424.32,-0.71
428.56,-0.69
432.85,-0.66
437.18,-0.65
441.55,-0.65
445.96,-0.65
450.42,-0.65
454.93,-0.65
459.48,-0.63
464.07,-0.59
468.71,-0.57
473.40,-0.53
478.13,-0.51
482.91,-0.51
487.74,-0.51
492.62,-0.51
497.55,-0.51
502.52,-0.51
507.55,-0.51
512.62,-0.51
517.75,-0.51
522.93,-0.49
528.16,-0.47
533.44,-0.45
538.77,-0.42
544.16,-0.38
549.60,-0.34
555.10,-0.33
560.65,-0.33
566.25,-0.33
571.92,-0.33
577.64,-0.33
583.41,-0.33
589.25,-0.33
595.14,-0.33
601.09,-0.33
607.10,-0.33
613.17,-0.33
619.30,-0.33
625.50,-0.33
631.75,-0.33
638.07,-0.33
644.45,-0.33
650.89,-0.33
657.40,-0.33
663.98,-0.33
670.62,-0.33
677.32,-0.33
684.10,-0.33
690.94,-0.33
697.85,-0.33
704.83,-0.33
711.87,-0.33
718.99,-0.33
726.18,-0.33
733.44,-0.33
740.78,-0.33
748.19,-0.33
755.67,-0.33
763.23,-0.29
770.86,-0.28
778.57,-0.28
786.35,-0.24
794.22,-0.23
802.16,-0.23
810.18,-0.20
818.28,-0.17
826.46,-0.11
834.73,-0.09
843.08,-0.09
851.51,-0.09
860.02,-0.09
868.62,-0.09
877.31,-0.09
886.08,-0.09
894.94,-0.09
903.89,-0.08
912.93,-0.06
922.06,-0.05
931.28,-0.03
940.59,-0.01
950.00,0.00
959.50,0.00
969.09,0.00
978.78,0.00
988.57,0.00
998.46,0.00
1008.44,0.00
1018.53,0.00
1028.71,0.00
1039.00,0.00
1049.39,0.00
1059.88,0.00
1070.48,0.00
1081.19,0.00
1092.00,0.00
1102.92,-0.04
1113.95,-0.05
1125.09,-0.05
1136.34,-0.08
1147.70,-0.09
1159.18,-0.10
1170.77,-0.14
1182.48,-0.19
1194.30,-0.22
1206.25,-0.23
1218.31,-0.23
1230.49,-0.23
1242.80,-0.23
1255.22,-0.23
1267.78,-0.23
1280.45,-0.23
1293.26,-0.23
1306.19,-0.23
1319.25,-0.23
1332.45,-0.23
1345.77,-0.23
1359.23,-0.23
1372.82,-0.23
1386.55,-0.23
1400.41,-0.27
1414.42,-0.29
1428.56,-0.32
1442.85,-0.35
1457.28,-0.37
1471.85,-0.41
1486.57,-0.47
1501.43,-0.53
1516.45,-0.58
1531.61,-0.63
1546.93,-0.68
1562.40,-0.70
1578.02,-0.75
1593.80,-0.79
1609.74,-0.85
1625.84,-0.92
1642.10,-0.97
1658.52,-1.02
1675.10,-1.06
1691.85,-1.12
1708.77,-1.18
1725.86,-1.21
1743.12,-1.24
1760.55,-1.26
1778.15,-1.26
1795.94,-1.23
1813.90,-1.20
1832.03,-1.15
1850.36,-1.09
1868.86,-1.00
1887.55,-0.90
1906.42,-0.83
1925.49,-0.80
1944.74,-0.80
1964.19,-0.85
1983.83,-0.90
2003.67,-0.97
2023.71,-1.05
2043.94,-1.13
2064.38,-1.19
2085.03,-1.21
2105.88,-1.25
2126.94,-1.28
2148.20,-1.33
2169.69,-1.41
2191.38,-1.50
2213.30,-1.57
2235.43,-1.64
2257.78,-1.68
2280.36,-1.74
2303.17,-1.79
2326.20,-1.83
2349.46,-1.88
2372.95,-1.91
2396.68,-1.91
2420.65,-1.91
2444.86,-1.91
2469.31,-1.91
2494.00,-1.89
2518.94,-1.85
2544.13,-1.79
2569.57,-1.74
2595.27,-1.66
2621.22,-1.61
2647.43,-1.55
2673.90,-1.50
2700.64,-1.44
2727.65,-1.34
2754.93,-1.22
2782.48,-1.07
2810.30,-0.89
2838.40,-0.66
2866.79,-0.43
2895.46,-0.16
2924.41,0.10
2953.65,0.37
2983.19,0.67
3013.02,0.97
3043.15,1.27
3073.58,1.58
3104.32,1.91
3135.36,2.26
3166.72,2.60
3198.38,2.93
3230.37,3.25
3262.67,3.53
3295.30,3.77
3328.25,4.01
3361.53,4.21
3395.15,4.41
3429.10,4.58
3463.39,4.73
3498.03,4.86
3533.01,4.96
3568.34,5.06
3604.02,5.13
3640.06,5.18
3676.46,5.21
3713.22,5.22
3750.36,5.18
3787.86,5.12
3825.74,5.04
3864.00,4.94
3902.64,4.81
3941.66,4.65
3981.08,4.45
4020.89,4.17
4061.10,3.80
4101.71,3.35
4142.73,2.86
4184.15,2.27
4226.00,1.60
4268.26,0.95
4310.94,0.32
4354.05,-0.21
4397.59,-0.62
4441.56,-0.80
4485.98,-0.79
4530.84,-0.61
4576.15,-0.29
4621.91,0.15
4668.13,0.64
4714.81,1.17
4761.96,1.67
4809.58,2.14
4857.67,2.55
4906.25,2.88
4955.31,3.18
5004.87,3.43
5054.91,3.65
5105.46,3.82
5156.52,3.94
5208.08,4.03
5260.16,4.07
5312.77,4.06
5365.89,4.00
5419.55,3.90
5473.75,3.76
5528.49,3.59
5583.77,3.39
5639.61,3.18
5696.00,2.93
5752.96,2.68
5810.49,2.42
5868.60,2.20
5927.28,2.03
5986.56,1.99
6046.42,2.06
6106.89,2.24
6167.96,2.55
6229.64,2.94
6291.93,3.39
6354.85,3.92
6418.40,4.42
6482.58,4.89
6547.41,5.30
6612.88,5.64
6679.01,5.94
6745.80,6.20
6813.26,6.42
6881.39,6.61
6950.21,6.73
7019.71,6.85
7089.91,6.92
7160.81,6.94
7232.41,6.90
7304.74,6.80
7377.79,6.69
7451.56,6.55
7526.08,6.37
7601.34,6.19
7677.35,5.99
7754.13,5.78
7831.67,5.57
7909.98,5.36
7989.08,5.14
8068.98,4.93
8149.67,4.73
8231.16,4.51
8313.47,4.28
8396.61,4.02
8480.57,3.75
8565.38,3.43
8651.03,3.04
8737.54,2.53
8824.92,1.96
8913.17,1.27
9002.30,0.34
9092.32,-0.59
9183.25,-1.52
9275.08,-2.52
9367.83,-3.38
9461.51,-4.13
9556.12,-4.74
9651.68,-5.23
9748.20,-5.58
9845.68,-5.78
9944.14,-5.92
10043.58,-5.91
10144.02,-5.78
10245.46,-5.61
10347.91,-5.40
10451.39,-5.16
10555.91,-4.95
10661.46,-4.79
10768.08,-4.71
10875.76,-4.82
10984.52,-5.02
11094.36,-5.50
11205.31,-6.22
11317.36,-7.01
11430.53,-8.11
11544.84,-9.32
11660.29,-10.31
11776.89,-11.18
11894.66,-11.81
12013.60,-12.18
12133.74,-12.16
12255.08,-12.02
12377.63,-11.81
12501.41,-11.61
12626.42,-11.45
12752.68,-11.33
12880.21,-11.23
13009.01,-11.09
13139.10,-10.90
13270.49,-10.63
13403.20,-10.26
13537.23,-9.82
13672.60,-9.36
13809.33,-8.93
13947.42,-8.59
14086.90,-8.34
14227.77,-8.30
14370.04,-8.49
14513.74,-8.93
14658.88,-9.67
14805.47,-10.69
14953.52,-12.02
15103.06,-13.58
15254.09,-15.22
15406.63,-16.55
15560.70,-17.51
15716.30,-18.15
15873.47,-18.22
16032.20,-17.88
16192.52,-17.42
16354.45,-16.84
16517.99,-16.21
16683.17,-15.73
16850.01,-15.42
17018.51,-15.42
17188.69,-15.73
17360.58,-16.25
17534.18,-16.98
17709.53,-17.50
17886.62,-18.00
18065.49,-18.58
18246.14,-19.18
18428.60,-19.77
18612.89,-20.37
18799.02,-20.97
18987.01,-21.57
19176.88,-22.17
19368.65,-22.77
19562.33,-23.37
19757.96,-23.97
19955.54,-24.57
