frequency,raw
20.00,-3.95
20.20,-3.87
20.40,-3.79
20.61,-3.71
20.81,-3.63
21.02,-3.55
21.23,-3.48
21.44,-3.40
21.66,-3.32
21.87,-3.24
22.09,-3.17
22.31,-3.09
22.54,-3.02
22.76,-2.94
22.99,-2.86
23.22,-2.79
23.45,-2.72
23.69,-2.65
23.92,-2.58
24.16,-2.51
24.40,-2.45
24.65,-2.38
24.89,-2.31
25.14,-2.24
25.39,-2.18
25.65,-2.11
25.91,-2.04
26.16,-1.98
26.43,-1.93
26.69,-1.87
26.96,-1.81
27.23,-1.75
27.50,-1.70
27.77,-1.64
28.05,-1.59
28.33,-1.54
28.62,-1.49
28.90,-1.44
29.19,-1.39
29.48,-1.35
29.78,-1.31
30.08,-1.27
30.38,-1.25
30.68,-1.23
30.99,-1.21
31.30,-1.19
31.61,-1.17
31.93,-1.15
32.24,-1.14
32.57,-1.13
32.89,-1.11
33.22,-1.10
33.55,-1.09
33.89,-1.08
34.23,-1.07
34.57,-1.06
34.92,-1.05
35.27,-1.05
35.62,-1.04
35.97,-1.04
36.33,-1.04
36.70,-1.05
37.06,-1.05
37.43,-1.05
37.81,-1.05
38.19,-1.05
38.57,-1.06
38.95,-1.06
39.34,-1.07
39.74,-1.07
40.14,-1.08
40.54,-1.09
40.94,-1.10
41.35,-1.10
41.76,-1.10
42.18,-1.10
42.60,-1.09
43.03,-1.09
43.46,-1.09
43.90,-1.08
44.33,-1.07
44.78,-1.06
45.23,-1.05
45.68,-1.03
46.13,-1.01
46.60,-1.00
47.06,-0.98
47.53,-0.96
48.01,-0.94
48.49,-0.93
48.97,-0.91
49.46,-0.90
49.96,-0.89
50.46,-0.88
50.96,-0.87
51.47,-0.87
51.99,-0.86
52.51,-0.86
53.03,-0.86
53.56,-0.86
54.10,-0.86
54.64,-0.87
55.18,-0.87
55.74,-0.88
56.29,-0.90
56.86,-0.92
57.42,-0.93
58.00,-0.94
58.58,-0.96
59.16,-0.98
59.76,-1.00
60.35,-1.02
60.96,-1.05
61.57,-1.07
62.18,-1.09
62.80,-1.10
63.43,-1.12
64.07,-1.14
64.71,-1.16
65.35,-1.18
66.01,-1.19
66.67,-1.20
67.33,-1.22
68.01,-1.23
68.69,-1.25
69.37,-1.27
70.07,-1.29
70.77,-1.33
71.48,-1.36
72.19,-1.39
72.91,-1.43
73.64,-1.46
74.38,-1.49
75.12,-1.51
75.87,-1.54
76.63,-1.57
77.40,-1.59
78.17,-1.61
78.95,-1.63
79.74,-1.65
80.54,-1.68
81.35,-1.70
82.16,-1.71
82.98,-1.72
83.81,-1.73
84.65,-1.74
85.50,-1.74
86.35,-1.74
87.22,-1.74
88.09,-1.74
88.97,-1.76
89.86,-1.77
90.76,-1.79
91.66,-1.80
92.58,-1.82
93.51,-1.83
94.44,-1.85
95.39,-1.86
96.34,-1.87
97.30,-1.88
98.28,-1.89
99.26,-1.90
100.25,-1.90
101.25,-1.90
102.27,-1.90
103.29,-1.89
104.32,-1.89
105.37,-1.89
106.42,-1.89
107.48,-1.89
108.56,-1.89
109.64,-1.89
110.74,-1.89
111.85,-1.89
112.97,-1.89
114.10,-1.89
115.24,-1.89
116.39,-1.89
117.55,-1.89
118.73,-1.89
119.92,-1.89
121.12,-1.89
122.33,-1.89
123.55,-1.89
124.79,-1.89
126.03,-1.89
127.29,-1.89
128.57,-1.89
129.85,-1.89
131.15,-1.88
132.46,-1.88
133.79,-1.88
135.12,-1.89
136.48,-1.89
137.84,-1.91
139.22,-1.92
140.61,-1.93
142.02,-1.95
143.44,-1.96
144.87,-1.99
146.32,-2.00
147.78,-2.02
149.26,-2.03
150.75,-2.05
152.26,-2.06
153.78,-2.06
155.32,-2.06
156.88,-2.06
158.44,-2.06
160.03,-2.05
161.63,-2.05
163.24,-2.05
164.88,-2.05
166.53,-2.05
168.19,-2.05
169.87,-2.05
171.57,-2.05
173.29,-2.05
175.02,-2.05
176.77,-2.05
178.54,-2.05
180.32,-2.05
182.13,-2.05
183.95,-2.05
185.79,-2.05
187.65,-2.05
189.52,-2.05
191.42,-2.05
193.33,-2.05
195.27,-2.05
197.22,-2.05
199.19,-2.05
201.18,-2.05
203.19,-2.05
205.23,-2.05
207.28,-2.05
209.35,-2.05
211.44,-2.05
213.56,-2.05
215.69,-2.05
217.85,-2.05
220.03,-2.05
222.23,-2.05
224.45,-2.05
226.70,-2.05
228.96,-2.05
231.25,-2.05
233.57,-2.05
235.90,-2.05
238.26,-2.05
240.64,-2.05
243.05,-2.05
245.48,-2.05
247.93,-2.04
250.41,-2.03
252.92,-2.03
255.45,-2.04
258.00,-2.05
260.58,-2.08
263.19,-2.10
265.82,-2.14
268.48,-2.16
271.16,-2.19
273.87,-2.22
276.61,-2.23
279.38,-2.25
282.17,-2.26
284.99,-2.27
287.84,-2.29
290.72,-2.30
293.63,-2.30
296.57,-2.30
299.53,-2.30
302.53,-2.31
305.55,-2.31
308.61,-2.32
311.69,-2.33
314.81,-2.34
317.96,-2.36
321.14,-2.36
324.35,-2.34
327.59,-2.33
330.87,-2.31
334.18,-2.28
337.52,-2.23
340.90,-2.18
344.30,-2.14
347.75,-2.11
351.23,-2.09
354.74,-2.07
358.28,-2.04
361.87,-2.02
365.49,-1.99
369.14,-1.97
372.83,-1.94
376.56,-1.91
380.33,-1.89
384.13,-1.86
387.97,-1.85
391.85,-1.82
395.77,-1.80
399.73,-1.78
403.72,-1.77
407.76,-1.75
411.84,-1.73
415.96,-1.72
420.12,-1.71
424.32,-1.71
428.56,-1.71
432.85,-1.70
437.18,-1.68
441.55,-1.67
445.96,-1.66
450.42,-1.64
454.93,-1.63
459.48,-1.61
464.07,-1.59
468.71,-1.58
473.40,-1.55
478.13,-1.53
482.91,-1.51
487.74,-1.50
492.62,-1.48
497.55,-1.47
502.52,-1.46
507.55,-1.46
512.62,-1.45
517.75,-1.43
522.93,-1.41
528.16,-1.39
533.44,-1.37
538.77,-1.34
544.16,-1.33
549.60,-1.31
555.10,-1.26
560.65,-1.21
566.25,-1.16
571.92,-1.10
577.64,-1.04
583.41,-0.99
589.25,-0.93
595.14,-0.89
601.09,-0.85
607.10,-0.81
613.17,-0.80
619.30,-0.78
625.50,-0.76
631.75,-0.74
638.07,-0.73
644.45,-0.73
650.89,-0.74
657.40,-0.75
663.98,-0.76
670.62,-0.76
677.32,-0.76
684.10,-0.76
690.94,-0.76
697.85,-0.76
704.83,-0.76
711.87,-0.76
718.99,-0.76
726.18,-0.76
733.44,-0.76
740.78,-0.76
748.19,-0.76
755.67,-0.76
763.23,-0.76
770.86,-0.77
778.57,-0.78
786.35,-0.78
794.22,-0.77
802.16,-0.75
810.18,-0.73
818.28,-0.71
826.46,-0.69
834.73,-0.66
843.08,-0.63
851.51,-0.61
860.02,-0.57
868.62,-0.53
877.31,-0.48
886.08,-0.43
894.94,-0.38
903.89,-0.34
912.93,-0.30
922.06,-0.27
931.28,-0.24
940.59,-0.22
950.00,-0.20
959.50,-0.17
969.09,-0.12
978.78,-0.08
988.57,-0.04
998.46,-0.01
1008.44,0.02
1018.53,0.05
1028.71,0.08
1039.00,0.11
1049.39,0.14
1059.88,0.17
1070.48,0.20
1081.19,0.21
1092.00,0.23
1102.92,0.24
1113.95,0.24
1125.09,0.23
1136.34,0.23
1147.70,0.23
1159.18,0.24
1170.77,0.24
1182.48,0.24
1194.30,0.22
1206.25,0.21
1218.31,0.20
1230.49,0.18
1242.80,0.15
1255.22,0.11
1267.78,0.07
1280.45,0.02
1293.26,-0.04
1306.19,-0.10
1319.25,-0.16
1332.45,-0.23
1345.77,-0.29
1359.23,-0.39
1372.82,-0.49
1386.55,-0.59
1400.41,-0.69
1414.42,-0.81
1428.56,-0.95
1442.85,-1.09
1457.28,-1.23
1471.85,-1.39
1486.57,-1.56
1501.43,-1.75
1516.45,-1.94
1531.61,-2.14
1546.93,-2.34
1562.40,-2.55
1578.02,-2.75
1593.80,-2.97
1609.74,-3.19
1625.84,-3.41
1642.10,-3.64
1658.52,-3.88
1675.10,-4.10
1691.85,-4.32
1708.77,-4.56
1725.86,-4.79
1743.12,-5.03
1760.55,-5.26
1778.15,-5.48
1795.94,-5.69
1813.90,-5.89
1832.03,-6.09
1850.36,-6.27
1868.86,-6.44
1887.55,-6.59
1906.42,-6.74
1925.49,-6.87
1944.74,-6.99
1964.19,-7.10
1983.83,-7.20
2003.67,-7.28
2023.71,-7.36
2043.94,-7.43
2064.38,-7.48
2085.03,-7.52
2105.88,-7.54
2126.94,-7.54
2148.20,-7.53
2169.69,-7.51
2191.38,-7.48
2213.30,-7.44
2235.43,-7.40
2257.78,-7.36
2280.36,-7.32
2303.17,-7.29
2326.20,-7.26
2349.46,-7.24
2372.95,-7.22
2396.68,-7.22
2420.65,-7.22
2444.86,-7.23
2469.31,-7.24
2494.00,-7.24
2518.94,-7.24
2544.13,-7.24
2569.57,-7.23
2595.27,-7.22
2621.22,-7.22
2647.43,-7.23
2673.90,-7.24
2700.64,-7.26
2727.65,-7.28
2754.93,-7.31
2782.48,-7.33
2810.30,-7.36
2838.40,-7.38
2866.79,-7.42
2895.46,-7.45
2924.41,-7.49
2953.65,-7.53
2983.19,-7.58
3013.02,-7.63
3043.15,-7.67
3073.58,-7.72
3104.32,-7.78
3135.36,-7.84
3166.72,-7.90
3198.38,-7.97
3230.37,-8.05
3262.67,-8.15
3295.30,-8.23
3328.25,-8.31
3361.53,-8.38
3395.15,-8.45
3429.10,-8.53
3463.39,-8.61
3498.03,-8.71
3533.01,-8.81
3568.34,-8.90
3604.02,-9.01
3640.06,-9.12
3676.46,-9.22
3713.22,-9.33
3750.36,-9.46
3787.86,-9.58
3825.74,-9.71
3864.00,-9.82
3902.64,-9.95
3941.66,-10.08
3981.08,-10.20
4020.89,-10.31
4061.10,-10.41
4101.71,-10.52
4142.73,-10.64
4184.15,-10.76
4226.00,-10.89
4268.26,-11.01
4310.94,-11.12
4354.05,-11.21
4397.59,-11.29
4441.56,-11.36
4485.98,-11.39
4530.84,-11.42
4576.15,-11.40
4621.91,-11.36
4668.13,-11.29
4714.81,-11.18
4761.96,-11.03
4809.58,-10.84
4857.67,-10.63
4906.25,-10.40
4955.31,-10.15
5004.87,-9.87
5054.91,-9.58
5105.46,-9.28
5156.52,-8.97
5208.08,-8.65
5260.16,-8.33
5312.77,-8.01
5365.89,-7.70
5419.55,-7.39
5473.75,-7.09
5528.49,-6.80
5583.77,-6.50
5639.61,-6.21
5696.00,-5.92
5752.96,-5.63
5810.49,-5.33
5868.60,-5.05
5927.28,-4.75
5986.56,-4.47
6046.42,-4.19
6106.89,-3.89
6167.96,-3.61
6229.64,-3.32
6291.93,-3.04
6354.85,-2.75
6418.40,-2.48
6482.58,-2.20
6547.41,-1.93
6612.88,-1.68
6679.01,-1.43
6745.80,-1.18
6813.26,-0.93
6881.39,-0.70
6950.21,-0.46
7019.71,-0.24
7089.91,-0.02
7160.81,0.18
7232.41,0.38
7304.74,0.54
7377.79,0.70
7451.56,0.83
7526.08,0.96
7601.34,1.06
7677.35,1.13
7754.13,1.20
7831.67,1.23
7909.98,1.23
7989.08,1.22
8068.98,1.19
8149.67,1.13
8231.16,1.05
8313.47,0.96
8396.61,0.85
8480.57,0.74
8565.38,0.63
8651.03,0.50
8737.54,0.35
8824.92,0.20
8913.17,0.05
9002.30,-0.08
9092.32,-0.21
9183.25,-0.33
9275.08,-0.44
9367.83,-0.53
9461.51,-0.60
9556.12,-0.67
9651.68,-0.72
9748.20,-0.75
9845.68,-0.77
9944.14,-0.79
10043.58,-0.79
10144.02,-0.77
10245.46,-0.75
10347.91,-0.74
10451.39,-0.74
10555.91,-0.74
10661.46,-0.75
10768.08,-0.77
10875.76,-0.79
10984.52,-0.81
11094.36,-0.85
11205.31,-0.91
11317.36,-0.99
11430.53,-1.08
11544.84,-1.16
11660.29,-1.26
11776.89,-1.37
11894.66,-1.48
12013.60,-1.62
12133.74,-1.77
12255.08,-1.93
12377.63,-2.08
12501.41,-2.25
12626.42,-2.42
12752.68,-2.60
12880.21,-2.79
13009.01,-2.98
13139.10,-3.15
13270.49,-3.31
13403.20,-3.46
13537.23,-3.60
13672.60,-3.71
13809.33,-3.78
13947.42,-3.82
14086.90,-3.81
14227.77,-3.77
14370.04,-3.71
14513.74,-3.62
14658.88,-3.51
14805.47,-3.38
14953.52,-3.25
15103.06,-3.11
15254.09,-2.98
15406.63,-2.87
15560.70,-2.81
15716.30,-2.78
15873.47,-2.78
16032.20,-2.80
16192.52,-2.85
16354.45,-2.92
16517.99,-3.03
16683.17,-3.15
16850.01,-3.30
17018.51,-3.46
17188.69,-3.64
17360.58,-3.82
17534.18,-4.01
17709.53,-4.21
17886.62,-4.41
18065.49,-4.61
18246.14,-4.82
18428.60,-5.03
18612.89,-5.25
18799.02,-5.47
18987.01,-5.70
19176.88,-5.93
19368.65,-6.17
19562.33,-6.42
19757.96,-6.67
19955.54,-6.92
