frequency,raw,smoothed,error,error_smoothed,equalization,parametric_eq,fixed_band_eq,equalized_raw,equalized_smoothed,target
20.00,4.77,4.77,-4.78,-4.78,4.78,4.55,1.31,9.55,9.55,9.55
20.20,4.82,4.82,-4.73,-4.73,4.74,4.52,1.36,9.55,9.55,9.55
20.40,4.87,4.86,-4.68,-4.69,4.69,4.48,1.40,9.56,9.55,9.55
20.61,4.91,4.91,-4.64,-4.64,4.64,4.44,1.44,9.55,9.55,9.55
20.81,4.96,4.96,-4.59,-4.59,4.59,4.40,1.48,9.55,9.55,9.55
21.02,5.00,5.00,-4.55,-4.55,4.54,4.37,1.53,9.54,9.54,9.55
21.23,5.05,5.05,-4.50,-4.50,4.49,4.33,1.57,9.54,9.54,9.55
21.44,5.10,5.10,-4.45,-4.45,4.44,4.29,1.62,9.54,9.54,9.55
21.66,5.15,5.15,-4.40,-4.39,4.39,4.25,1.67,9.54,9.54,9.55
21.87,5.21,5.21,-4.34,-4.34,4.34,4.22,1.72,9.55,9.55,9.55
22.09,5.26,5.26,-4.29,-4.29,4.29,4.18,1.77,9.55,9.55,9.54
22.31,5.31,5.31,-4.23,-4.23,4.24,4.14,1.82,9.55,9.55,9.54
22.54,5.36,5.36,-4.19,-4.19,4.19,4.10,1.88,9.55,9.55,9.54
22.76,5.41,5.41,-4.13,-4.14,4.14,4.06,1.93,9.55,9.55,9.54
22.99,5.45,5.45,-4.09,-4.09,4.09,4.02,1.99,9.54,9.54,9.54
23.22,5.50,5.49,-4.04,-4.05,4.05,3.99,2.05,9.54,9.54,9.54
23.45,5.54,5.54,-4.00,-4.00,4.00,3.95,2.11,9.54,9.54,9.54
23.69,5.58,5.58,-3.96,-3.96,3.95,3.91,2.17,9.53,9.53,9.54
23.92,5.63,5.63,-3.91,-3.91,3.90,3.87,2.23,9.53,9.53,9.54
24.16,5.68,5.68,-3.86,-3.86,3.85,3.83,2.30,9.53,9.53,9.54
24.40,5.73,5.73,-3.81,-3.81,3.81,3.80,2.36,9.53,9.53,9.53
24.65,5.78,5.78,-3.76,-3.75,3.76,3.76,2.43,9.53,9.54,9.53
24.89,5.83,5.83,-3.70,-3.70,3.71,3.72,2.49,9.54,9.54,9.53
25.14,5.88,5.88,-3.65,-3.66,3.66,3.68,2.56,9.54,9.53,9.53
25.39,5.92,5.92,-3.61,-3.61,3.61,3.64,2.62,9.53,9.53,9.53
25.65,5.96,5.96,-3.57,-3.57,3.57,3.61,2.69,9.52,9.53,9.53
25.91,6.01,6.00,-3.52,-3.52,3.52,3.57,2.76,9.53,9.52,9.53
26.16,6.05,6.05,-3.48,-3.48,3.48,3.53,2.82,9.52,9.52,9.52
26.43,6.09,6.09,-3.44,-3.43,3.43,3.49,2.89,9.52,9.52,9.52
26.69,6.13,6.13,-3.39,-3.39,3.39,3.45,2.95,9.52,9.52,9.52
26.96,6.18,6.17,-3.34,-3.35,3.34,3.42,3.01,9.52,9.52,9.52
27.23,6.22,6.22,-3.30,-3.30,3.30,3.38,3.07,9.52,9.52,9.52
27.50,6.26,6.26,-3.26,-3.26,3.26,3.34,3.13,9.52,9.52,9.52
27.77,6.30,6.30,-3.22,-3.22,3.22,3.30,3.19,9.52,9.52,9.51
28.05,6.33,6.33,-3.18,-3.18,3.18,3.27,3.24,9.51,9.51,9.51
28.33,6.37,6.37,-3.14,-3.14,3.14,3.23,3.29,9.51,9.51,9.51
28.62,6.40,6.40,-3.11,-3.11,3.11,3.19,3.34,9.51,9.51,9.51
28.90,6.43,6.43,-3.08,-3.07,3.07,3.16,3.38,9.50,9.50,9.51
29.19,6.47,6.47,-3.03,-3.04,3.04,3.12,3.42,9.50,9.50,9.50
29.48,6.50,6.50,-3.00,-3.00,3.00,3.08,3.46,9.50,9.50,9.50
29.78,6.54,6.54,-2.96,-2.96,2.96,3.04,3.49,9.50,9.50,9.50
30.08,6.57,6.57,-2.93,-2.92,2.92,3.01,3.51,9.49,9.50,9.50
30.38,6.61,6.61,-2.89,-2.88,2.89,2.97,3.53,9.49,9.49,9.49
30.68,6.65,6.64,-2.84,-2.85,2.85,2.93,3.54,9.50,9.49,9.49
30.99,6.68,6.68,-2.81,-2.81,2.81,2.90,3.55,9.49,9.49,9.49
31.30,6.71,6.71,-2.78,-2.77,2.77,2.86,3.56,9.48,9.48,9.48
31.61,6.74,6.74,-2.74,-2.74,2.74,2.83,3.55,9.48,9.48,9.48
31.93,6.78,6.77,-2.70,-2.70,2.70,2.79,3.54,9.48,9.48,9.48
32.24,6.81,6.81,-2.67,-2.67,2.67,2.75,3.53,9.48,9.48,9.47
32.57,6.84,6.84,-2.63,-2.63,2.64,2.72,3.51,9.47,9.47,9.47
32.89,6.87,6.87,-2.60,-2.60,2.60,2.68,3.48,9.47,9.47,9.47
33.22,6.89,6.89,-2.57,-2.57,2.57,2.65,3.45,9.46,9.46,9.46
33.55,6.92,6.92,-2.54,-2.54,2.54,2.61,3.42,9.46,9.46,9.46
33.89,6.95,6.95,-2.51,-2.51,2.50,2.58,3.37,9.45,9.45,9.46
34.23,6.98,6.98,-2.47,-2.47,2.47,2.54,3.33,9.45,9.45,9.45
34.57,7.01,7.01,-2.44,-2.44,2.43,2.51,3.28,9.44,9.44,9.45
34.92,7.04,7.04,-2.40,-2.40,2.40,2.47,3.23,9.44,9.44,9.44
35.27,7.08,7.07,-2.36,-2.36,2.36,2.44,3.18,9.44,9.44,9.44
35.62,7.11,7.11,-2.32,-2.32,2.33,2.40,3.12,9.44,9.44,9.43
35.97,7.14,7.14,-2.29,-2.29,2.29,2.37,3.06,9.43,9.43,9.43
36.33,7.17,7.16,-2.25,-2.26,2.26,2.33,3.00,9.43,9.43,9.42
36.70,7.19,7.19,-2.23,-2.23,2.23,2.30,2.94,9.42,9.42,9.42
37.06,7.21,7.21,-2.20,-2.20,2.20,2.26,2.87,9.41,9.41,9.41
37.43,7.24,7.23,-2.17,-2.17,2.17,2.23,2.81,9.41,9.40,9.41
37.81,7.26,7.26,-2.14,-2.14,2.14,2.20,2.74,9.40,9.40,9.40
38.19,7.28,7.28,-2.11,-2.11,2.11,2.16,2.68,9.39,9.39,9.39
38.57,7.31,7.30,-2.08,-2.08,2.08,2.13,2.61,9.38,9.38,9.39
38.95,7.33,7.33,-2.05,-2.05,2.04,2.09,2.55,9.37,9.38,9.38
39.34,7.36,7.36,-2.01,-2.01,2.01,2.06,2.48,9.37,9.37,9.37
39.74,7.39,7.39,-1.98,-1.98,1.98,2.03,2.42,9.37,9.37,9.37
40.14,7.41,7.41,-1.95,-1.95,1.96,1.99,2.36,9.37,9.37,9.36
40.54,7.43,7.43,-1.92,-1.92,1.93,1.96,2.30,9.36,9.36,9.35
40.94,7.44,7.44,-1.90,-1.90,1.91,1.93,2.23,9.35,9.35,9.34
41.35,7.45,7.45,-1.88,-1.88,1.88,1.89,2.17,9.33,9.34,9.33
41.76,7.47,7.46,-1.86,-1.86,1.86,1.86,2.11,9.33,9.32,9.32
42.18,7.48,7.48,-1.84,-1.84,1.83,1.83,2.06,9.31,9.31,9.32
42.60,7.50,7.50,-1.81,-1.80,1.79,1.79,2.00,9.29,9.29,9.31
43.03,7.53,7.53,-1.77,-1.77,1.75,1.76,1.95,9.28,9.28,9.30
43.46,7.57,7.57,-1.72,-1.72,1.70,1.73,1.89,9.27,9.27,9.29
43.90,7.61,7.61,-1.67,-1.66,1.66,1.69,1.84,9.27,9.27,9.28
44.33,7.66,7.66,-1.61,-1.60,1.61,1.66,1.79,9.27,9.27,9.26
44.78,7.71,7.70,-1.55,-1.55,1.57,1.63,1.74,9.28,9.28,9.25
45.23,7.74,7.73,-1.50,-1.51,1.53,1.59,1.69,9.27,9.27,9.24
45.68,7.75,7.74,-1.48,-1.49,1.50,1.56,1.65,9.25,9.25,9.23
46.13,7.74,7.74,-1.48,-1.48,1.48,1.53,1.60,9.21,9.22,9.22
46.60,7.74,7.74,-1.47,-1.46,1.45,1.49,1.56,9.19,9.19,9.20
47.06,7.74,7.74,-1.45,-1.45,1.44,1.46,1.52,9.17,9.18,9.19
47.53,7.76,7.75,-1.42,-1.42,1.42,1.43,1.48,9.18,9.17,9.18
48.01,7.77,7.77,-1.39,-1.40,1.40,1.39,1.44,9.16,9.16,9.16
48.49,7.78,7.78,-1.37,-1.37,1.37,1.36,1.40,9.15,9.14,9.15
48.97,7.79,7.79,-1.34,-1.35,1.33,1.33,1.36,9.12,9.12,9.13
49.46,7.80,7.81,-1.32,-1.31,1.30,1.29,1.33,9.09,9.10,9.12
49.96,7.84,7.84,-1.26,-1.26,1.26,1.26,1.29,9.09,9.10,9.10
50.46,7.88,7.87,-1.21,-1.21,1.22,1.23,1.26,9.10,9.09,9.08
50.96,7.91,7.90,-1.16,-1.16,1.18,1.19,1.23,9.09,9.08,9.07
51.47,7.92,7.92,-1.13,-1.13,1.14,1.16,1.19,9.06,9.06,9.05
51.99,7.93,7.93,-1.10,-1.10,1.11,1.12,1.16,9.04,9.04,9.03
52.51,7.93,7.93,-1.08,-1.08,1.08,1.09,1.13,9.01,9.01,9.01
53.03,7.94,7.94,-1.05,-1.05,1.05,1.05,1.10,8.98,8.98,8.99
53.56,7.95,7.95,-1.02,-1.02,1.01,1.02,1.07,8.96,8.96,8.97
54.10,7.96,7.96,-0.99,-0.99,0.98,0.98,1.04,8.94,8.94,8.95
54.64,7.97,7.97,-0.96,-0.96,0.95,0.95,1.01,8.92,8.92,8.93
55.18,7.99,7.99,-0.92,-0.92,0.91,0.91,0.98,8.90,8.90,8.90
55.74,8.01,8.01,-0.87,-0.87,0.88,0.87,0.95,8.88,8.88,8.88
56.29,8.03,8.03,-0.83,-0.83,0.84,0.84,0.92,8.87,8.86,8.86
56.86,8.04,8.04,-0.79,-0.79,0.80,0.80,0.89,8.84,8.84,8.83
57.42,8.05,8.05,-0.76,-0.76,0.76,0.76,0.86,8.81,8.81,8.81
58.00,8.05,8.05,-0.73,-0.73,0.73,0.73,0.83,8.77,8.78,8.78
58.58,8.06,8.06,-0.69,-0.69,0.69,0.69,0.80,8.75,8.75,8.75
59.16,8.07,8.07,-0.66,-0.66,0.66,0.65,0.77,8.72,8.72,8.72
59.76,8.08,8.07,-0.62,-0.62,0.62,0.61,0.74,8.70,8.70,8.70
60.35,8.08,8.08,-0.59,-0.59,0.59,0.57,0.71,8.67,8.67,8.67
60.96,8.08,8.08,-0.56,-0.55,0.55,0.53,0.67,8.63,8.64,8.64
61.57,8.09,8.08,-0.52,-0.52,0.52,0.49,0.64,8.61,8.60,8.60
62.18,8.09,8.09,-0.48,-0.48,0.48,0.45,0.60,8.57,8.57,8.57
62.80,8.09,8.09,-0.45,-0.45,0.44,0.41,0.57,8.53,8.54,8.54
63.43,8.10,8.10,-0.41,-0.41,0.41,0.37,0.53,8.51,8.50,8.50
64.07,8.10,8.10,-0.37,-0.37,0.37,0.33,0.49,8.47,8.47,8.47
64.71,8.11,8.11,-0.32,-0.33,0.33,0.28,0.45,8.44,8.43,8.43
65.35,8.11,8.11,-0.29,-0.29,0.29,0.24,0.41,8.40,8.40,8.40
66.01,8.11,8.11,-0.25,-0.25,0.25,0.20,0.37,8.36,8.36,8.36
66.67,8.11,8.11,-0.21,-0.21,0.21,0.15,0.33,8.31,8.32,8.32
67.33,8.12,8.11,-0.16,-0.16,0.16,0.11,0.28,8.28,8.28,8.28
68.01,8.12,8.12,-0.12,-0.12,0.12,0.06,0.24,8.24,8.24,8.24
68.69,8.12,8.12,-0.08,-0.08,0.08,0.02,0.19,8.20,8.20,8.20
69.37,8.12,8.12,-0.03,-0.03,0.03,-0.03,0.14,8.15,8.15,8.15
70.07,8.12,8.12,0.01,0.01,-0.01,-0.08,0.09,8.11,8.11,8.11
70.77,8.12,8.12,0.06,0.06,-0.06,-0.12,0.04,8.06,8.06,8.06
71.48,8.12,8.12,0.10,0.10,-0.10,-0.17,-0.01,8.02,8.02,8.02
72.19,8.12,8.12,0.15,0.15,-0.15,-0.22,-0.06,7.97,7.97,7.97
72.91,8.12,8.12,0.20,0.20,-0.19,-0.27,-0.11,7.93,7.92,7.92
73.64,8.12,8.12,0.25,0.24,-0.24,-0.32,-0.16,7.88,7.88,7.87
74.38,8.11,8.11,0.29,0.29,-0.29,-0.37,-0.22,7.82,7.82,7.82
75.12,8.11,8.10,0.34,0.33,-0.34,-0.42,-0.27,7.77,7.76,7.77
75.87,8.10,8.10,0.38,0.38,-0.39,-0.47,-0.33,7.71,7.71,7.72
76.63,8.10,8.11,0.43,0.44,-0.44,-0.52,-0.38,7.66,7.66,7.66
77.40,8.12,8.11,0.51,0.50,-0.49,-0.58,-0.44,7.62,7.61,7.61
78.17,8.11,8.11,0.55,0.55,-0.55,-0.63,-0.50,7.56,7.56,7.56
78.95,8.10,8.10,0.60,0.61,-0.60,-0.68,-0.56,7.50,7.50,7.50
79.74,8.10,8.10,0.66,0.66,-0.66,-0.74,-0.62,7.44,7.44,7.44
80.54,8.10,8.09,0.71,0.71,-0.71,-0.79,-0.68,7.38,7.38,7.38
81.35,8.09,8.09,0.76,0.77,-0.77,-0.85,-0.74,7.32,7.32,7.32
82.16,8.09,8.09,0.82,0.82,-0.83,-0.91,-0.80,7.26,7.26,7.26
82.98,8.09,8.08,0.89,0.88,-0.88,-0.96,-0.87,7.21,7.20,7.20
83.81,8.08,8.08,0.94,0.94,-0.94,-1.02,-0.93,7.14,7.14,7.14
84.65,8.08,8.08,1.00,1.00,-1.00,-1.08,-1.00,7.08,7.08,7.08
85.50,8.07,8.07,1.05,1.06,-1.06,-1.13,-1.07,7.01,7.02,7.01
86.35,8.07,8.06,1.12,1.11,-1.11,-1.19,-1.13,6.95,6.95,6.95
87.22,8.06,8.06,1.17,1.17,-1.17,-1.25,-1.20,6.88,6.88,6.89
88.09,8.05,8.05,1.23,1.23,-1.23,-1.31,-1.27,6.81,6.82,6.82
88.97,8.05,8.04,1.30,1.29,-1.29,-1.37,-1.34,6.75,6.75,6.75
89.86,8.04,8.04,1.35,1.35,-1.35,-1.43,-1.41,6.68,6.68,6.69
90.76,8.03,8.03,1.41,1.42,-1.41,-1.48,-1.49,6.61,6.62,6.62
91.66,8.03,8.02,1.48,1.48,-1.48,-1.54,-1.56,6.55,6.55,6.55
92.58,8.02,8.02,1.54,1.54,-1.54,-1.60,-1.63,6.48,6.48,6.48
93.51,8.01,8.01,1.60,1.60,-1.60,-1.66,-1.71,6.41,6.41,6.41
94.44,8.00,8.00,1.66,1.66,-1.66,-1.72,-1.79,6.34,6.34,6.34
95.39,7.99,7.99,1.72,1.72,-1.72,-1.78,-1.86,6.27,6.27,6.27
96.34,7.98,7.98,1.78,1.78,-1.78,-1.84,-1.94,6.20,6.20,6.20
97.30,7.97,7.97,1.84,1.84,-1.84,-1.90,-2.02,6.13,6.13,6.13
98.28,7.96,7.96,1.90,1.91,-1.90,-1.96,-2.10,6.05,6.06,6.05
99.26,7.95,7.95,1.97,1.97,-1.96,-2.02,-2.18,5.98,5.98,5.98
100.25,7.94,7.93,2.03,2.03,-2.02,-2.08,-2.26,5.91,5.91,5.91
101.25,7.92,7.92,2.08,2.09,-2.09,-2.14,-2.34,5.83,5.84,5.84
102.27,7.91,7.91,2.14,2.14,-2.15,-2.20,-2.42,5.76,5.76,5.76
103.29,7.90,7.89,2.21,2.20,-2.20,-2.26,-2.50,5.69,5.69,5.69
104.32,7.88,7.88,2.26,2.26,-2.26,-2.31,-2.58,5.61,5.62,5.62
105.37,7.87,7.87,2.32,2.32,-2.32,-2.37,-2.66,5.54,5.54,5.54
106.42,7.86,7.85,2.39,2.38,-2.38,-2.43,-2.74,5.47,5.47,5.47
107.48,7.84,7.84,2.44,2.44,-2.44,-2.49,-2.82,5.40,5.40,5.40
108.56,7.83,7.83,2.50,2.50,-2.50,-2.54,-2.89,5.33,5.33,5.33
109.64,7.82,7.81,2.57,2.56,-2.56,-2.60,-2.97,5.26,5.25,5.25
110.74,7.80,7.80,2.62,2.62,-2.62,-2.65,-3.04,5.18,5.18,5.18
111.85,7.79,7.79,2.68,2.68,-2.68,-2.71,-3.11,5.11,5.11,5.11
112.97,7.78,7.78,2.74,2.74,-2.74,-2.76,-3.18,5.04,5.04,5.04
114.10,7.76,7.76,2.79,2.80,-2.80,-2.81,-3.25,4.96,4.97,4.96
115.24,7.75,7.75,2.86,2.85,-2.85,-2.86,-3.31,4.90,4.89,4.89
116.39,7.73,7.73,2.91,2.91,-2.91,-2.92,-3.37,4.82,4.82,4.82
117.55,7.72,7.71,2.97,2.96,-2.96,-2.97,-3.42,4.75,4.75,4.75
118.73,7.70,7.70,3.02,3.02,-3.02,-3.02,-3.47,4.68,4.68,4.68
119.92,7.68,7.68,3.07,3.07,-3.07,-3.06,-3.51,4.61,4.61,4.61
121.12,7.67,7.67,3.12,3.12,-3.12,-3.11,-3.56,4.55,4.54,4.54
122.33,7.65,7.65,3.17,3.17,-3.17,-3.16,-3.59,4.48,4.48,4.48
123.55,7.63,7.63,3.22,3.22,-3.22,-3.20,-3.63,4.41,4.41,4.41
124.79,7.61,7.61,3.27,3.27,-3.27,-3.25,-3.65,4.34,4.34,4.34
126.03,7.59,7.59,3.31,3.31,-3.31,-3.29,-3.68,4.27,4.27,4.27
127.29,7.57,7.57,3.36,3.36,-3.36,-3.33,-3.69,4.21,4.21,4.21
128.57,7.55,7.55,3.40,3.40,-3.40,-3.37,-3.71,4.14,4.14,4.14
129.85,7.53,7.53,3.45,3.45,-3.45,-3.41,-3.71,4.08,4.08,4.08
131.15,7.51,7.51,3.49,3.49,-3.49,-3.45,-3.72,4.02,4.02,4.02
132.46,7.49,7.48,3.53,3.53,-3.53,-3.49,-3.71,3.96,3.96,3.96
133.79,7.46,7.46,3.56,3.57,-3.57,-3.52,-3.71,3.89,3.89,3.89
135.12,7.44,7.44,3.60,3.60,-3.61,-3.56,-3.70,3.83,3.83,3.83
136.48,7.42,7.42,3.64,3.64,-3.64,-3.59,-3.69,3.77,3.77,3.77
137.84,7.40,7.40,3.68,3.68,-3.68,-3.62,-3.68,3.72,3.72,3.72
139.22,7.38,7.38,3.72,3.72,-3.71,-3.65,-3.66,3.67,3.67,3.66
140.61,7.35,7.35,3.75,3.75,-3.74,-3.68,-3.64,3.60,3.61,3.60
142.02,7.33,7.33,3.78,3.78,-3.78,-3.71,-3.62,3.55,3.54,3.55
143.44,7.30,7.30,3.81,3.81,-3.82,-3.74,-3.60,3.47,3.48,3.49
144.87,7.28,7.27,3.84,3.83,-3.86,-3.76,-3.58,3.42,3.41,3.44
146.32,7.26,7.27,3.87,3.88,-3.90,-3.78,-3.55,3.36,3.37,3.39
147.78,7.25,7.28,3.91,3.94,-3.93,-3.81,-3.53,3.32,3.35,3.33
149.26,7.30,7.27,4.01,3.99,-3.95,-3.83,-3.51,3.35,3.32,3.28
150.75,7.27,7.24,4.03,4.01,-3.98,-3.85,-3.48,3.29,3.27,3.23
152.26,7.17,7.19,3.98,4.01,-4.00,-3.87,-3.46,3.17,3.20,3.19
153.78,7.13,7.13,3.99,3.99,-4.01,-3.88,-3.44,3.12,3.12,3.14
155.32,7.09,7.09,4.00,4.00,-4.02,-3.90,-3.42,3.06,3.06,3.09
156.88,7.07,7.06,4.02,4.02,-4.03,-3.91,-3.39,3.04,3.03,3.05
158.44,7.04,7.04,4.04,4.04,-4.04,-3.92,-3.38,3.00,3.00,3.00
160.03,7.01,7.01,4.05,4.05,-4.05,-3.94,-3.36,2.96,2.96,2.96
161.63,6.98,6.98,4.07,4.07,-4.06,-3.95,-3.35,2.91,2.91,2.91
163.24,6.95,6.95,4.08,4.08,-4.08,-3.95,-3.33,2.87,2.87,2.86
164.88,6.92,6.92,4.09,4.10,-4.09,-3.96,-3.32,2.82,2.82,2.82
166.53,6.89,6.89,4.10,4.10,-4.10,-3.97,-3.31,2.78,2.78,2.78
168.19,6.86,6.86,4.11,4.11,-4.11,-3.97,-3.31,2.75,2.75,2.75
169.87,6.83,6.83,4.12,4.12,-4.12,-3.98,-3.30,2.71,2.71,2.71
171.57,6.80,6.80,4.13,4.12,-4.12,-3.98,-3.30,2.68,2.67,2.67
173.29,6.76,6.76,4.12,4.12,-4.12,-3.98,-3.30,2.63,2.64,2.64
175.02,6.73,6.73,4.13,4.12,-4.12,-3.98,-3.31,2.60,2.60,2.60
176.77,6.69,6.69,4.12,4.12,-4.12,-3.98,-3.32,2.57,2.57,2.57
178.54,6.66,6.66,4.12,4.12,-4.12,-3.97,-3.33,2.54,2.54,2.54
180.32,6.62,6.62,4.11,4.12,-4.12,-3.97,-3.34,2.50,2.50,2.50
182.13,6.59,6.59,4.11,4.11,-4.11,-3.96,-3.35,2.48,2.47,2.47
183.95,6.55,6.55,4.10,4.11,-4.11,-3.96,-3.37,2.44,2.44,2.44
185.79,6.52,6.52,4.10,4.10,-4.10,-3.95,-3.39,2.42,2.41,2.41
187.65,6.48,6.48,4.09,4.09,-4.09,-3.94,-3.41,2.39,2.39,2.39
189.52,6.44,6.44,4.08,4.08,-4.08,-3.93,-3.44,2.35,2.36,2.36
191.42,6.41,6.40,4.08,4.07,-4.07,-3.92,-3.46,2.34,2.33,2.33
193.33,6.37,6.37,4.06,4.06,-4.06,-3.91,-3.49,2.31,2.31,2.31
195.27,6.33,6.33,4.05,4.05,-4.05,-3.90,-3.52,2.28,2.28,2.28
197.22,6.29,6.29,4.03,4.03,-4.03,-3.88,-3.56,2.26,2.26,2.26
199.19,6.25,6.25,4.01,4.01,-4.02,-3.87,-3.59,2.23,2.23,2.23
201.18,6.21,6.21,4.00,4.00,-4.00,-3.85,-3.63,2.21,2.21,2.21
203.19,6.17,6.17,3.98,3.98,-3.98,-3.84,-3.67,2.19,2.19,2.19
205.23,6.13,6.13,3.96,3.96,-3.96,-3.82,-3.70,2.17,2.17,2.17
207.28,6.09,6.09,3.94,3.95,-3.94,-3.80,-3.74,2.14,2.15,2.15
209.35,6.06,6.05,3.93,3.93,-3.93,-3.78,-3.78,2.13,2.13,2.13
211.44,6.02,6.01,3.91,3.91,-3.91,-3.76,-3.82,2.11,2.11,2.11
213.56,5.97,5.97,3.88,3.89,-3.89,-3.74,-3.86,2.08,2.09,2.09
215.69,5.94,5.94,3.87,3.87,-3.87,-3.72,-3.90,2.07,2.07,2.07
217.85,5.90,5.90,3.85,3.85,-3.85,-3.70,-3.94,2.05,2.05,2.05
220.03,5.87,5.87,3.83,3.83,-3.83,-3.67,-3.97,2.04,2.04,2.03
222.23,5.83,5.83,3.81,3.81,-3.81,-3.65,-4.01,2.02,2.02,2.02
224.45,5.79,5.79,3.79,3.79,-3.78,-3.63,-4.04,2.01,2.01,2.00
226.70,5.75,5.75,3.76,3.76,-3.76,-3.60,-4.07,1.99,1.99,1.99
228.96,5.71,5.70,3.74,3.73,-3.73,-3.57,-4.09,1.97,1.97,1.97
231.25,5.66,5.66,3.70,3.70,-3.71,-3.55,-4.11,1.95,1.95,1.96
233.57,5.61,5.62,3.67,3.68,-3.68,-3.52,-4.13,1.92,1.93,1.94
235.90,5.58,5.58,3.66,3.66,-3.66,-3.49,-4.14,1.92,1.92,1.92
238.26,5.55,5.54,3.64,3.63,-3.63,-3.46,-4.15,1.92,1.91,1.91
240.64,5.50,5.50,3.60,3.61,-3.60,-3.43,-4.16,1.90,1.90,1.89
243.05,5.45,5.45,3.57,3.57,-3.57,-3.40,-4.16,1.88,1.89,1.88
245.48,5.41,5.40,3.54,3.53,-3.53,-3.37,-4.15,1.87,1.87,1.87
247.93,5.36,5.36,3.50,3.50,-3.50,-3.34,-4.13,1.86,1.86,1.86
250.41,5.31,5.31,3.46,3.46,-3.47,-3.31,-4.11,1.84,1.84,1.85
252.92,5.26,5.26,3.42,3.42,-3.43,-3.28,-4.09,1.83,1.83,1.84
255.45,5.22,5.22,3.39,3.39,-3.39,-3.25,-4.06,1.83,1.83,1.83
258.00,5.18,5.17,3.36,3.36,-3.35,-3.21,-4.02,1.82,1.82,1.82
260.58,5.13,5.13,3.32,3.32,-3.32,-3.18,-3.98,1.81,1.81,1.81
263.19,5.08,5.08,3.28,3.28,-3.28,-3.15,-3.93,1.80,1.80,1.80
265.82,5.03,5.03,3.24,3.24,-3.24,-3.11,-3.87,1.79,1.79,1.79
268.48,4.98,4.98,3.20,3.20,-3.20,-3.08,-3.82,1.78,1.78,1.78
271.16,4.93,4.93,3.16,3.16,-3.16,-3.04,-3.75,1.77,1.77,1.77
273.87,4.89,4.88,3.12,3.12,-3.12,-3.01,-3.69,1.77,1.77,1.77
276.61,4.84,4.84,3.08,3.08,-3.08,-2.97,-3.61,1.76,1.76,1.76
279.38,4.79,4.79,3.04,3.04,-3.03,-2.94,-3.54,1.75,1.75,1.75
282.17,4.74,4.74,3.00,2.99,-2.99,-2.90,-3.46,1.75,1.74,1.74
284.99,4.69,4.69,2.94,2.94,-2.95,-2.86,-3.38,1.74,1.74,1.75
287.84,4.65,4.65,2.90,2.90,-2.91,-2.82,-3.30,1.74,1.74,1.75
290.72,4.61,4.61,2.87,2.86,-2.86,-2.79,-3.21,1.74,1.74,1.74
293.63,4.57,4.56,2.83,2.82,-2.82,-2.75,-3.12,1.75,1.74,1.74
296.57,4.52,4.52,2.78,2.78,-2.78,-2.71,-3.03,1.74,1.74,1.74
299.53,4.47,4.47,2.72,2.73,-2.73,-2.67,-2.95,1.74,1.74,1.75
302.53,4.43,4.43,2.69,2.69,-2.69,-2.63,-2.85,1.74,1.74,1.74
305.55,4.39,4.38,2.64,2.64,-2.64,-2.59,-2.76,1.75,1.74,1.74
308.61,4.34,4.34,2.60,2.60,-2.59,-2.55,-2.67,1.75,1.75,1.74
311.69,4.29,4.29,2.54,2.55,-2.54,-2.51,-2.58,1.74,1.74,1.74
314.81,4.24,4.24,2.50,2.50,-2.50,-2.47,-2.49,1.74,1.74,1.74
317.96,4.19,4.19,2.44,2.45,-2.45,-2.43,-2.40,1.74,1.74,1.75
321.14,4.14,4.14,2.40,2.40,-2.40,-2.39,-2.31,1.74,1.74,1.74
324.35,4.10,4.09,2.35,2.35,-2.35,-2.35,-2.22,1.75,1.74,1.75
327.59,4.05,4.05,2.30,2.30,-2.31,-2.31,-2.13,1.74,1.75,1.75
330.87,4.01,4.01,2.26,2.26,-2.26,-2.27,-2.05,1.75,1.75,1.75
334.18,3.97,3.96,2.21,2.21,-2.21,-2.23,-1.96,1.76,1.75,1.75
337.52,3.92,3.92,2.17,2.16,-2.16,-2.18,-1.88,1.76,1.76,1.75
340.90,3.87,3.87,2.11,2.11,-2.11,-2.14,-1.79,1.76,1.76,1.76
344.30,3.82,3.82,2.05,2.06,-2.06,-2.10,-1.71,1.76,1.77,1.76
347.75,3.78,3.77,2.01,2.01,-2.00,-2.05,-1.63,1.78,1.77,1.77
351.23,3.73,3.72,1.96,1.95,-1.95,-2.01,-1.55,1.78,1.77,1.77
354.74,3.66,3.67,1.87,1.89,-1.89,-1.97,-1.47,1.77,1.78,1.78
358.28,3.61,3.61,1.83,1.82,-1.83,-1.92,-1.39,1.78,1.78,1.78
361.87,3.56,3.55,1.77,1.76,-1.77,-1.88,-1.31,1.79,1.78,1.79
365.49,3.50,3.50,1.70,1.71,-1.71,-1.83,-1.23,1.79,1.79,1.80
369.14,3.45,3.45,1.66,1.65,-1.65,-1.79,-1.16,1.80,1.80,1.79
372.83,3.40,3.39,1.59,1.59,-1.59,-1.74,-1.09,1.81,1.81,1.81
376.56,3.34,3.34,1.53,1.53,-1.53,-1.70,-1.01,1.81,1.81,1.81
380.33,3.28,3.28,1.46,1.47,-1.47,-1.65,-0.94,1.81,1.81,1.82
384.13,3.22,3.22,1.40,1.40,-1.40,-1.60,-0.87,1.81,1.82,1.81
387.97,3.17,3.17,1.35,1.34,-1.34,-1.55,-0.80,1.83,1.83,1.82
391.85,3.11,3.11,1.27,1.28,-1.28,-1.51,-0.73,1.83,1.83,1.84
395.77,3.06,3.05,1.22,1.21,-1.21,-1.46,-0.67,1.84,1.84,1.84
399.73,2.99,2.99,1.14,1.15,-1.15,-1.41,-0.60,1.84,1.84,1.85
403.72,2.94,2.94,1.09,1.09,-1.09,-1.36,-0.53,1.85,1.85,1.85
407.76,2.88,2.88,1.03,1.02,-1.02,-1.31,-0.47,1.85,1.85,1.85
411.84,2.82,2.82,0.96,0.96,-0.96,-1.26,-0.41,1.86,1.86,1.86
415.96,2.77,2.77,0.90,0.90,-0.90,-1.21,-0.34,1.87,1.86,1.87
420.12,2.71,2.71,0.84,0.84,-0.84,-1.16,-0.28,1.87,1.87,1.87
424.32,2.65,2.65,0.77,0.77,-0.77,-1.11,-0.22,1.87,1.87,1.87
428.56,2.59,2.59,0.71,0.71,-0.71,-1.06,-0.16,1.88,1.88,1.88
432.85,2.53,2.53,0.64,0.64,-0.64,-1.00,-0.11,1.89,1.89,1.89
437.18,2.48,2.48,0.59,0.58,-0.57,-0.95,-0.05,1.91,1.90,1.89
441.55,2.42,2.41,0.52,0.51,-0.51,-0.89,0.01,1.91,1.90,1.90
445.96,2.35,2.34,0.44,0.44,-0.44,-0.84,0.06,1.91,1.91,1.91
450.42,2.26,2.29,0.33,0.36,-0.37,-0.78,0.11,1.89,1.91,1.93
454.93,2.25,2.23,0.31,0.30,-0.31,-0.73,0.16,1.94,1.92,1.94
459.48,2.19,2.18,0.24,0.24,-0.24,-0.67,0.21,1.94,1.94,1.94
464.07,2.13,2.14,0.19,0.19,-0.18,-0.61,0.26,1.95,1.95,1.94
468.71,2.08,2.07,0.13,0.12,-0.12,-0.55,0.31,1.96,1.96,1.95
473.40,2.02,2.02,0.06,0.06,-0.06,-0.49,0.36,1.96,1.96,1.96
478.13,1.97,1.97,-0.00,-0.00,0.00,-0.43,0.40,1.97,1.97,1.97
482.91,1.92,1.91,-0.06,-0.06,0.06,-0.37,0.44,1.98,1.98,1.98
487.74,1.86,1.86,-0.13,-0.13,0.12,-0.30,0.48,1.98,1.98,1.99
492.62,1.81,1.81,-0.19,-0.19,0.19,-0.24,0.52,1.99,1.99,2.00
497.55,1.76,1.76,-0.25,-0.25,0.25,-0.17,0.56,2.01,2.01,2.01
502.52,1.71,1.71,-0.31,-0.31,0.31,-0.11,0.60,2.02,2.02,2.01
507.55,1.67,1.66,-0.37,-0.37,0.37,-0.04,0.64,2.04,2.03,2.03
512.62,1.61,1.61,-0.44,-0.43,0.43,0.03,0.67,2.04,2.04,2.04
517.75,1.56,1.56,-0.49,-0.49,0.49,0.10,0.70,2.05,2.05,2.05
522.93,1.51,1.50,-0.55,-0.56,0.56,0.17,0.73,2.06,2.06,2.06
528.16,1.45,1.45,-0.62,-0.62,0.62,0.25,0.76,2.07,2.07,2.07
533.44,1.39,1.39,-0.69,-0.68,0.68,0.32,0.79,2.07,2.08,2.08
538.77,1.34,1.34,-0.74,-0.75,0.75,0.40,0.82,2.09,2.09,2.08
544.16,1.29,1.28,-0.81,-0.81,0.82,0.47,0.85,2.11,2.10,2.10
549.60,1.23,1.23,-0.88,-0.88,0.88,0.55,0.88,2.11,2.11,2.11
555.10,1.17,1.17,-0.96,-0.95,0.95,0.63,0.90,2.12,2.12,2.13
560.65,1.12,1.11,-1.02,-1.02,1.02,0.71,0.93,2.14,2.13,2.14
