frequency,raw,error,smoothed,error_smoothed,equalization,parametric_eq,fixed_band_eq,equalized_raw,equalized_smoothed,target
20.00,-4.91,-4.50,-4.91,-4.52,4.52,4.14,1.03,-0.40,-0.40,-0.42
20.20,-4.83,-4.46,-4.84,-4.47,4.47,4.18,1.06,-0.36,-0.36,-0.38
20.40,-4.76,-4.43,-4.76,-4.43,4.43,4.22,1.09,-0.34,-0.33,-0.34
20.61,-4.69,-4.38,-4.69,-4.38,4.38,4.24,1.12,-0.31,-0.31,-0.31
20.81,-4.61,-4.34,-4.61,-4.33,4.33,4.26,1.16,-0.28,-0.28,-0.27
21.02,-4.53,-4.30,-4.54,-4.28,4.28,4.27,1.19,-0.25,-0.25,-0.23
21.23,-4.46,-4.25,-4.46,-4.23,4.23,4.27,1.22,-0.23,-0.23,-0.21
21.44,-4.38,-4.19,-4.39,-4.18,4.18,4.26,1.26,-0.21,-0.21,-0.19
21.66,-4.32,-4.14,-4.31,-4.12,4.12,4.25,1.30,-0.19,-0.19,-0.17
21.87,-4.23,-4.07,-4.24,-4.07,4.07,4.22,1.34,-0.16,-0.17,-0.16
22.09,-4.16,-4.02,-4.16,-4.01,4.01,4.18,1.37,-0.15,-0.15,-0.14
22.31,-4.08,-3.95,-4.09,-3.95,3.95,4.14,1.42,-0.13,-0.13,-0.13
22.54,-4.02,-3.89,-4.01,-3.89,3.89,4.09,1.46,-0.13,-0.12,-0.12
22.76,-3.93,-3.82,-3.93,-3.82,3.82,4.03,1.50,-0.11,-0.11,-0.11
22.99,-3.85,-3.74,-3.86,-3.76,3.76,3.97,1.54,-0.10,-0.10,-0.11
23.22,-3.78,-3.68,-3.78,-3.69,3.69,3.90,1.59,-0.09,-0.09,-0.10
23.45,-3.70,-3.61,-3.71,-3.62,3.62,3.83,1.63,-0.08,-0.08,-0.09
23.69,-3.64,-3.55,-3.63,-3.56,3.56,3.75,1.68,-0.08,-0.08,-0.08
23.92,-3.55,-3.48,-3.56,-3.49,3.49,3.67,1.72,-0.06,-0.07,-0.07
24.16,-3.48,-3.43,-3.48,-3.42,3.42,3.58,1.77,-0.06,-0.06,-0.05
24.40,-3.40,-3.37,-3.40,-3.36,3.36,3.50,1.82,-0.05,-0.05,-0.03
24.65,-3.34,-3.30,-3.33,-3.29,3.29,3.41,1.87,-0.04,-0.04,-0.04
24.89,-3.25,-3.23,-3.25,-3.23,3.23,3.32,1.91,-0.03,-0.03,-0.03
25.14,-3.18,-3.17,-3.18,-3.16,3.16,3.23,1.96,-0.02,-0.02,-0.02
25.39,-3.10,-3.10,-3.10,-3.10,3.10,3.14,2.01,-0.00,-0.00,-0.01
25.65,-3.03,-3.04,-3.03,-3.04,3.04,3.05,2.06,0.01,0.01,0.01
25.91,-2.96,-2.97,-2.96,-2.97,2.97,2.96,2.11,0.02,0.02,0.01
26.16,-2.87,-2.90,-2.88,-2.91,2.91,2.87,2.16,0.04,0.03,0.02
26.43,-2.81,-2.84,-2.81,-2.84,2.84,2.78,2.20,0.04,0.04,0.03
26.69,-2.73,-2.78,-2.74,-2.78,2.78,2.70,2.25,0.05,0.04,0.04
26.96,-2.67,-2.72,-2.66,-2.71,2.71,2.61,2.30,0.05,0.05,0.06
27.23,-2.60,-2.66,-2.59,-2.65,2.65,2.53,2.34,0.06,0.06,0.07
27.50,-2.51,-2.59,-2.51,-2.59,2.59,2.45,2.38,0.07,0.07,0.08
27.77,-2.44,-2.52,-2.44,-2.52,2.52,2.37,2.42,0.08,0.08,0.08
28.05,-2.37,-2.47,-2.37,-2.46,2.46,2.30,2.46,0.09,0.09,0.10
28.33,-2.30,-2.40,-2.30,-2.40,2.40,2.22,2.49,0.09,0.10,0.10
28.62,-2.24,-2.34,-2.23,-2.34,2.34,2.15,2.52,0.10,0.11,0.11
28.90,-2.15,-2.27,-2.16,-2.28,2.28,2.08,2.55,0.12,0.12,0.11
29.19,-2.08,-2.20,-2.09,-2.22,2.22,2.01,2.58,0.13,0.12,0.11
29.48,-2.01,-2.16,-2.02,-2.15,2.15,1.95,2.60,0.14,0.13,0.14
29.78,-1.95,-2.09,-1.96,-2.10,2.10,1.88,2.62,0.15,0.14,0.14
30.08,-1.89,-2.04,-1.89,-2.04,2.04,1.82,2.63,0.15,0.15,0.15
30.38,-1.83,-1.97,-1.83,-1.98,1.98,1.76,2.64,0.15,0.15,0.15
30.68,-1.76,-1.93,-1.76,-1.93,1.93,1.71,2.64,0.16,0.16,0.17
30.99,-1.71,-1.87,-1.70,-1.87,1.87,1.65,2.64,0.17,0.17,0.17
31.30,-1.65,-1.82,-1.64,-1.82,1.82,1.60,2.64,0.17,0.18,0.18
31.61,-1.58,-1.77,-1.58,-1.77,1.77,1.54,2.63,0.18,0.19,0.18
31.93,-1.53,-1.72,-1.52,-1.72,1.72,1.50,2.61,0.19,0.19,0.19
32.24,-1.46,-1.66,-1.47,-1.67,1.67,1.45,2.60,0.20,0.20,0.19
32.57,-1.41,-1.62,-1.41,-1.62,1.62,1.40,2.57,0.21,0.21,0.21
32.89,-1.34,-1.56,-1.35,-1.57,1.57,1.36,2.55,0.22,0.22,0.22
33.22,-1.28,-1.51,-1.29,-1.51,1.51,1.31,2.51,0.23,0.23,0.23
33.55,-1.23,-1.47,-1.23,-1.46,1.46,1.27,2.48,0.23,0.23,0.24
33.89,-1.17,-1.42,-1.17,-1.41,1.41,1.23,2.44,0.23,0.24,0.24
34.23,-1.11,-1.37,-1.11,-1.35,1.35,1.19,2.40,0.24,0.25,0.25
34.57,-1.05,-1.32,-1.04,-1.30,1.30,1.16,2.35,0.25,0.26,0.26
34.92,-0.99,-1.24,-0.98,-1.25,1.25,1.12,2.31,0.26,0.26,0.26
35.27,-0.93,-1.19,-0.92,-1.19,1.19,1.09,2.26,0.27,0.27,0.27
35.62,-0.86,-1.14,-0.86,-1.14,1.14,1.05,2.20,0.27,0.27,0.28
35.97,-0.79,-1.07,-0.80,-1.08,1.08,1.02,2.15,0.29,0.28,0.27
36.33,-0.74,-1.02,-0.75,-1.03,1.03,0.99,2.09,0.28,0.28,0.28
36.70,-0.69,-0.96,-0.69,-0.97,0.97,0.96,2.03,0.29,0.28,0.28
37.06,-0.62,-0.91,-0.63,-0.92,0.92,0.93,1.98,0.29,0.28,0.29
37.43,-0.57,-0.87,-0.58,-0.86,0.86,0.90,1.92,0.29,0.29,0.29
37.81,-0.52,-0.82,-0.52,-0.81,0.81,0.87,1.85,0.28,0.29,0.29
38.19,-0.47,-0.76,-0.47,-0.76,0.76,0.85,1.79,0.28,0.29,0.29
38.57,-0.42,-0.71,-0.42,-0.71,0.71,0.82,1.73,0.28,0.28,0.29
38.95,-0.38,-0.67,-0.38,-0.66,0.66,0.80,1.67,0.28,0.28,0.28
39.34,-0.33,-0.61,-0.33,-0.62,0.62,0.78,1.61,0.28,0.28,0.28
39.74,-0.28,-0.56,-0.29,-0.57,0.57,0.75,1.55,0.29,0.28,0.28
40.14,-0.25,-0.53,-0.25,-0.53,0.53,0.73,1.48,0.28,0.28,0.28
40.54,-0.20,-0.49,-0.20,-0.49,0.49,0.71,1.42,0.28,0.28,0.28
40.94,-0.16,-0.44,-0.17,-0.45,0.45,0.69,1.36,0.28,0.28,0.28
41.35,-0.12,-0.40,-0.13,-0.41,0.41,0.67,1.30,0.28,0.28,0.27
41.76,-0.09,-0.37,-0.09,-0.37,0.37,0.65,1.24,0.28,0.28,0.28
42.18,-0.06,-0.35,-0.06,-0.34,0.34,0.63,1.18,0.27,0.28,0.29
42.60,-0.02,-0.31,-0.03,-0.30,0.30,0.61,1.12,0.28,0.28,0.28
43.03,0.01,-0.28,0.00,-0.27,0.27,0.60,1.06,0.28,0.28,0.29
43.46,0.04,-0.25,0.03,-0.24,0.24,0.58,1.01,0.28,0.28,0.28
43.90,0.06,-0.21,0.06,-0.22,0.22,0.56,0.95,0.27,0.28,0.27
44.33,0.09,-0.19,0.08,-0.19,0.19,0.55,0.89,0.28,0.28,0.27
44.78,0.11,-0.16,0.11,-0.17,0.17,0.53,0.84,0.27,0.28,0.27
45.23,0.13,-0.14,0.13,-0.15,0.15,0.52,0.78,0.27,0.28,0.26
45.68,0.15,-0.12,0.15,-0.13,0.13,0.50,0.73,0.27,0.27,0.27
46.13,0.17,-0.10,0.16,-0.11,0.11,0.49,0.67,0.28,0.27,0.26
46.60,0.19,-0.09,0.18,-0.09,0.09,0.48,0.62,0.28,0.27,0.28
47.06,0.20,-0.08,0.19,-0.07,0.07,0.46,0.57,0.27,0.27,0.27
47.53,0.21,-0.06,0.20,-0.06,0.06,0.45,0.52,0.26,0.26,0.27
48.01,0.21,-0.07,0.21,-0.04,0.04,0.44,0.47,0.25,0.26,0.28
48.49,0.22,-0.05,0.22,-0.03,0.03,0.43,0.42,0.25,0.25,0.26
48.97,0.23,-0.02,0.23,-0.02,0.02,0.41,0.37,0.25,0.25,0.25
49.46,0.23,-0.01,0.23,-0.01,0.01,0.40,0.32,0.24,0.24,0.24
49.96,0.24,0.01,0.23,-0.00,0.00,0.39,0.27,0.24,0.23,0.22
50.46,0.24,0.01,0.23,0.01,-0.01,0.38,0.23,0.23,0.22,0.22
50.96,0.24,0.02,0.23,0.02,-0.02,0.37,0.18,0.22,0.21,0.22
51.47,0.24,0.05,0.22,0.03,-0.03,0.36,0.14,0.21,0.20,0.19
51.99,0.23,0.05,0.22,0.03,-0.03,0.35,0.09,0.19,0.19,0.18
52.51,0.21,0.03,0.21,0.04,-0.04,0.34,0.05,0.17,0.17,0.18
53.03,0.20,0.03,0.20,0.05,-0.05,0.33,0.01,0.15,0.16,0.16
53.56,0.19,0.03,0.20,0.05,-0.05,0.32,-0.03,0.13,0.14,0.15
54.10,0.18,0.04,0.18,0.05,-0.05,0.31,-0.07,0.12,0.13,0.13
54.64,0.17,0.04,0.17,0.05,-0.05,0.31,-0.11,0.11,0.12,0.12
55.18,0.16,0.05,0.16,0.05,-0.05,0.30,-0.15,0.10,0.11,0.10
55.74,0.15,0.07,0.14,0.05,-0.05,0.29,-0.18,0.10,0.09,0.08
56.29,0.13,0.05,0.12,0.04,-0.04,0.28,-0.22,0.08,0.08,0.08
56.86,0.11,0.05,0.10,0.04,-0.04,0.27,-0.25,0.07,0.06,0.06
57.42,0.09,0.05,0.08,0.03,-0.03,0.27,-0.28,0.05,0.05,0.04
58.00,0.07,0.04,0.05,0.03,-0.03,0.26,-0.31,0.04,0.03,0.02
58.58,0.04,0.02,0.03,0.02,-0.02,0.25,-0.33,0.02,0.01,0.01
59.16,0.01,0.01,-0.00,0.01,-0.01,0.25,-0.36,-0.00,-0.01,-0.00
59.76,-0.03,-0.02,-0.03,-0.00,0.00,0.24,-0.38,-0.03,-0.03,-0.02
60.35,-0.06,-0.02,-0.07,-0.01,0.01,0.23,-0.40,-0.05,-0.05,-0.04
60.96,-0.10,-0.04,-0.10,-0.03,0.03,0.23,-0.42,-0.08,-0.08,-0.06
61.57,-0.13,-0.03,-0.14,-0.04,0.04,0.22,-0.43,-0.09,-0.10,-0.10
62.18,-0.17,-0.04,-0.18,-0.05,0.05,0.21,-0.45,-0.12,-0.13,-0.14
62.80,-0.21,-0.06,-0.21,-0.06,0.06,0.21,-0.46,-0.15,-0.15,-0.15
63.43,-0.25,-0.07,-0.25,-0.07,0.07,0.20,-0.47,-0.19,-0.18,-0.19
64.07,-0.28,-0.07,-0.28,-0.07,0.07,0.20,-0.47,-0.21,-0.21,-0.21
64.71,-0.32,-0.08,-0.31,-0.08,0.08,0.19,-0.48,-0.25,-0.24,-0.24
65.35,-0.34,-0.07,-0.34,-0.08,0.08,0.18,-0.48,-0.27,-0.27,-0.27
66.01,-0.37,-0.08,-0.37,-0.07,0.07,0.18,-0.48,-0.30,-0.30,-0.30
66.67,-0.40,-0.09,-0.39,-0.07,0.07,0.17,-0.48,-0.34,-0.33,-0.32
67.33,-0.42,-0.08,-0.41,-0.06,0.06,0.17,-0.48,-0.36,-0.35,-0.35
68.01,-0.43,-0.06,-0.43,-0.05,0.05,0.16,-0.47,-0.38,-0.38,-0.38
68.69,-0.44,-0.04,-0.45,-0.04,0.04,0.16,-0.47,-0.41,-0.41,-0.41
69.37,-0.45,-0.02,-0.46,-0.02,0.02,0.15,-0.46,-0.43,-0.44,-0.44
70.07,-0.46,0.01,-0.47,-0.00,0.00,0.15,-0.45,-0.46,-0.47,-0.47
70.77,-0.48,0.01,-0.48,0.02,-0.02,0.15,-0.44,-0.50,-0.49,-0.49
71.48,-0.48,0.03,-0.48,0.04,-0.04,0.14,-0.43,-0.52,-0.52,-0.52
72.19,-0.48,0.07,-0.48,0.06,-0.06,0.14,-0.42,-0.55,-0.55,-0.55
72.91,-0.48,0.09,-0.48,0.09,-0.09,0.13,-0.40,-0.57,-0.57,-0.57
73.64,-0.48,0.11,-0.48,0.11,-0.11,0.13,-0.39,-0.60,-0.59,-0.60
74.38,-0.48,0.13,-0.48,0.14,-0.14,0.12,-0.37,-0.62,-0.62,-0.61
75.12,-0.47,0.17,-0.47,0.16,-0.16,0.12,-0.36,-0.64,-0.64,-0.64
75.87,-0.46,0.19,-0.47,0.19,-0.19,0.12,-0.34,-0.65,-0.66,-0.66
76.63,-0.46,0.21,-0.47,0.21,-0.21,0.11,-0.32,-0.67,-0.67,-0.67
77.40,-0.46,0.23,-0.46,0.23,-0.23,0.11,-0.31,-0.70,-0.69,-0.69
78.17,-0.46,0.25,-0.45,0.25,-0.25,0.10,-0.29,-0.72,-0.71,-0.71
78.95,-0.45,0.26,-0.45,0.27,-0.27,0.10,-0.27,-0.72,-0.72,-0.72
79.74,-0.44,0.28,-0.45,0.28,-0.28,0.10,-0.25,-0.73,-0.73,-0.73
80.54,-0.44,0.29,-0.45,0.29,-0.29,0.09,-0.24,-0.74,-0.74,-0.74
81.35,-0.44,0.31,-0.45,0.30,-0.30,0.09,-0.22,-0.74,-0.75,-0.75
82.16,-0.44,0.32,-0.46,0.30,-0.30,0.09,-0.20,-0.75,-0.76,-0.76
82.98,-0.45,0.31,-0.47,0.30,-0.30,0.08,-0.18,-0.76,-0.77,-0.76
83.81,-0.47,0.30,-0.48,0.30,-0.30,0.08,-0.16,-0.77,-0.77,-0.78
84.65,-0.48,0.30,-0.49,0.29,-0.29,0.08,-0.14,-0.77,-0.78,-0.79
85.50,-0.50,0.28,-0.51,0.28,-0.28,0.07,-0.13,-0.78,-0.78,-0.78
86.35,-0.53,0.25,-0.53,0.26,-0.26,0.07,-0.11,-0.79,-0.79,-0.79
87.22,-0.55,0.24,-0.55,0.24,-0.24,0.07,-0.09,-0.79,-0.79,-0.79
88.09,-0.57,0.22,-0.58,0.21,-0.21,0.06,-0.07,-0.79,-0.79,-0.79
88.97,-0.60,0.19,-0.61,0.18,-0.18,0.06,-0.05,-0.79,-0.79,-0.79
89.86,-0.63,0.15,-0.64,0.15,-0.15,0.06,-0.03,-0.78,-0.79,-0.79
90.76,-0.66,0.14,-0.68,0.12,-0.12,0.06,-0.02,-0.78,-0.80,-0.80
91.66,-0.70,0.09,-0.71,0.08,-0.08,0.05,0.00,-0.79,-0.80,-0.80
92.58,-0.74,0.06,-0.75,0.05,-0.05,0.05,0.02,-0.79,-0.80,-0.81
93.51,-0.79,-0.00,-0.79,0.02,-0.02,0.05,0.04,-0.81,-0.80,-0.79
94.44,-0.83,-0.03,-0.82,-0.02,0.02,0.05,0.05,-0.82,-0.81,-0.80
95.39,-0.88,-0.09,-0.86,-0.05,0.05,0.04,0.07,-0.83,-0.81,-0.80
96.34,-0.91,-0.10,-0.90,-0.08,0.08,0.04,0.09,-0.83,-0.82,-0.82
97.30,-0.94,-0.12,-0.93,-0.11,0.11,0.04,0.10,-0.83,-0.82,-0.82
98.28,-0.96,-0.13,-0.97,-0.14,0.14,0.04,0.12,-0.82,-0.83,-0.83
99.26,-0.99,-0.15,-1.01,-0.17,0.17,0.03,0.14,-0.83,-0.84,-0.84
100.25,-1.02,-0.17,-1.04,-0.19,0.19,0.03,0.15,-0.83,-0.85,-0.85
101.25,-1.07,-0.21,-1.08,-0.21,0.21,0.03,0.17,-0.86,-0.86,-0.86
102.27,-1.12,-0.24,-1.11,-0.23,0.23,0.03,0.19,-0.89,-0.88,-0.88
103.29,-1.14,-0.25,-1.14,-0.25,0.25,0.02,0.20,-0.90,-0.89,-0.90
104.32,-1.17,-0.27,-1.18,-0.26,0.26,0.02,0.22,-0.91,-0.91,-0.91
105.37,-1.21,-0.29,-1.21,-0.28,0.28,0.02,0.23,-0.94,-0.94,-0.93
106.42,-1.25,-0.30,-1.25,-0.29,0.29,0.02,0.25,-0.96,-0.96,-0.96
107.48,-1.28,-0.31,-1.29,-0.30,0.30,0.02,0.26,-0.98,-0.99,-0.98
108.56,-1.30,-0.29,-1.33,-0.31,0.31,0.01,0.27,-0.99,-1.02,-1.02
109.64,-1.34,-0.30,-1.37,-0.32,0.32,0.01,0.29,-1.03,-1.05,-1.05
110.74,-1.39,-0.32,-1.40,-0.32,0.32,0.01,0.30,-1.07,-1.08,-1.07
111.85,-1.43,-0.32,-1.44,-0.32,0.32,0.01,0.31,-1.12,-1.12,-1.11
112.97,-1.49,-0.33,-1.47,-0.31,0.31,0.01,0.32,-1.18,-1.16,-1.16
114.10,-1.54,-0.35,-1.51,-0.31,0.31,0.00,0.34,-1.23,-1.20,-1.19
115.24,-1.57,-0.34,-1.55,-0.31,0.31,0.00,0.35,-1.26,-1.24,-1.24
116.39,-1.59,-0.31,-1.58,-0.31,0.31,0.00,0.36,-1.29,-1.28,-1.29
117.55,-1.61,-0.29,-1.62,-0.30,0.30,-0.00,0.36,-1.31,-1.32,-1.32
118.73,-1.63,-0.26,-1.66,-0.30,0.30,-0.00,0.37,-1.34,-1.36,-1.37
119.92,-1.67,-0.28,-1.69,-0.29,0.29,-0.00,0.38,-1.38,-1.40,-1.40
121.12,-1.71,-0.27,-1.72,-0.29,0.29,-0.00,0.39,-1.43,-1.44,-1.45
122.33,-1.74,-0.26,-1.75,-0.28,0.28,-0.01,0.39,-1.47,-1.48,-1.48
123.55,-1.77,-0.27,-1.78,-0.27,0.27,-0.01,0.40,-1.50,-1.51,-1.51
124.79,-1.82,-0.28,-1.81,-0.26,0.26,-0.01,0.40,-1.56,-1.55,-1.54
126.03,-1.87,-0.30,-1.84,-0.26,0.26,-0.01,0.40,-1.61,-1.58,-1.58
127.29,-1.89,-0.28,-1.87,-0.26,0.26,-0.01,0.41,-1.64,-1.62,-1.61
128.57,-1.91,-0.26,-1.91,-0.26,0.26,-0.01,0.41,-1.66,-1.65,-1.66
129.85,-1.93,-0.25,-1.94,-0.26,0.26,-0.01,0.41,-1.67,-1.68,-1.68
131.15,-1.95,-0.24,-1.97,-0.27,0.27,-0.01,0.41,-1.69,-1.71,-1.71
132.46,-1.97,-0.24,-2.00,-0.27,0.27,-0.01,0.41,-1.71,-1.74,-1.74
133.79,-2.01,-0.26,-2.03,-0.27,0.27,-0.02,0.40,-1.74,-1.76,-1.76
135.12,-2.06,-0.28,-2.06,-0.27,0.27,-0.02,0.40,-1.79,-1.79,-1.79
136.48,-2.09,-0.28,-2.09,-0.28,0.28,-0.02,0.40,-1.82,-1.81,-1.81
137.84,-2.13,-0.29,-2.12,-0.28,0.28,-0.02,0.39,-1.85,-1.84,-1.84
139.22,-2.16,-0.29,-2.15,-0.29,0.29,-0.02,0.39,-1.87,-1.86,-1.87
140.61,-2.20,-0.31,-2.18,-0.30,0.30,-0.02,0.38,-1.91,-1.89,-1.90
142.02,-2.23,-0.33,-2.22,-0.31,0.31,-0.02,0.38,-1.92,-1.91,-1.91
143.44,-2.24,-0.32,-2.26,-0.32,0.32,-0.02,0.37,-1.92,-1.93,-1.93
144.87,-2.27,-0.32,-2.29,-0.34,0.34,-0.02,0.37,-1.94,-1.96,-1.95
146.32,-2.30,-0.32,-2.33,-0.35,0.35,-0.02,0.36,-1.96,-1.98,-1.98
147.78,-2.34,-0.35,-2.36,-0.35,0.35,-0.02,0.35,-1.99,-2.01,-2.00
149.26,-2.38,-0.36,-2.39,-0.36,0.36,-0.02,0.35,-2.03,-2.03,-2.02
150.75,-2.43,-0.37,-2.42,-0.36,0.36,-0.02,0.34,-2.07,-2.06,-2.07
152.26,-2.47,-0.38,-2.46,-0.37,0.37,-0.02,0.33,-2.11,-2.09,-2.09
153.78,-2.51,-0.40,-2.49,-0.37,0.37,-0.02,0.32,-2.14,-2.12,-2.12
155.32,-2.54,-0.39,-2.53,-0.38,0.38,-0.02,0.31,-2.17,-2.15,-2.16
156.88,-2.57,-0.39,-2.57,-0.38,0.38,-0.01,0.31,-2.19,-2.18,-2.18
158.44,-2.58,-0.37,-2.60,-0.39,0.39,-0.01,0.30,-2.20,-2.22,-2.21
160.03,-2.62,-0.37,-2.64,-0.39,0.39,-0.01,0.29,-2.23,-2.25,-2.25
161.63,-2.65,-0.36,-2.68,-0.39,0.39,-0.01,0.28,-2.26,-2.29,-2.30
163.24,-2.68,-0.36,-2.71,-0.39,0.39,-0.01,0.27,-2.29,-2.32,-2.33
164.88,-2.74,-0.39,-2.74,-0.38,0.38,-0.01,0.26,-2.36,-2.36,-2.36
166.53,-2.78,-0.39,-2.78,-0.38,0.38,-0.01,0.25,-2.41,-2.40,-2.39
168.19,-2.82,-0.39,-2.81,-0.37,0.37,-0.00,0.25,-2.45,-2.43,-2.43
169.87,-2.87,-0.40,-2.84,-0.37,0.37,-0.00,0.24,-2.51,-2.47,-2.47
171.57,-2.90,-0.40,-2.88,-0.36,0.36,0.00,0.23,-2.54,-2.52,-2.51
173.29,-2.91,-0.36,-2.91,-0.36,0.36,0.00,0.22,-2.56,-2.56,-2.56
175.02,-2.93,-0.34,-2.95,-0.35,0.35,0.01,0.21,-2.59,-2.60,-2.59
176.77,-2.96,-0.32,-2.99,-0.34,0.34,0.01,0.20,-2.63,-2.65,-2.65
178.54,-2.99,-0.30,-3.02,-0.33,0.33,0.01,0.20,-2.67,-2.69,-2.69
180.32,-3.03,-0.30,-3.05,-0.31,0.31,0.02,0.19,-2.72,-2.74,-2.74
182.13,-3.06,-0.28,-3.08,-0.30,0.30,0.02,0.18,-2.77,-2.79,-2.78
183.95,-3.13,-0.30,-3.11,-0.28,0.28,0.03,0.17,-2.86,-2.84,-2.84
185.79,-3.16,-0.28,-3.14,-0.26,0.26,0.03,0.16,-2.91,-2.89,-2.88
187.65,-3.18,-0.24,-3.17,-0.24,0.24,0.03,0.16,-2.94,-2.93,-2.95
189.52,-3.21,-0.23,-3.20,-0.22,0.22,0.04,0.15,-2.99,-2.98,-2.99
191.42,-3.23,-0.20,-3.23,-0.20,0.20,0.04,0.14,-3.03,-3.03,-3.03
193.33,-3.26,-0.19,-3.26,-0.19,0.19,0.05,0.14,-3.08,-3.08,-3.07
195.27,-3.29,-0.18,-3.29,-0.17,0.17,0.06,0.13,-3.13,-3.12,-3.11
197.22,-3.31,-0.15,-3.31,-0.15,0.15,0.06,0.12,-3.17,-3.17,-3.17
199.19,-3.33,-0.12,-3.34,-0.13,0.13,0.07,0.12,-3.21,-3.21,-3.22
201.18,-3.35,-0.10,-3.36,-0.11,0.11,0.08,0.11,-3.25,-3.25,-3.26
203.19,-3.37,-0.09,-3.38,-0.09,0.09,0.08,0.11,-3.29,-3.29,-3.29
205.23,-3.40,-0.07,-3.40,-0.07,0.07,0.09,0.10,-3.34,-3.33,-3.34
207.28,-3.42,-0.07,-3.43,-0.05,0.05,0.10,0.10,-3.37,-3.37,-3.36
209.35,-3.44,-0.04,-3.45,-0.04,0.04,0.11,0.10,-3.40,-3.41,-3.41
211.44,-3.45,0.00,-3.47,-0.03,0.03,0.12,0.09,-3.43,-3.45,-3.46
213.56,-3.48,-0.00,-3.50,-0.02,0.02,0.13,0.09,-3.47,-3.48,-3.48
215.69,-3.52,-0.02,-3.53,-0.01,0.01,0.14,0.09,-3.51,-3.51,-3.50
217.85,-3.56,-0.02,-3.55,-0.01,0.01,0.15,0.09,-3.56,-3.54,-3.54
220.03,-3.58,-0.01,-3.58,-0.01,0.01,0.16,0.10,-3.58,-3.57,-3.58
222.23,-3.60,0.00,-3.61,-0.01,0.01,0.17,0.10,-3.59,-3.60,-3.61
224.45,-3.63,-0.01,-3.63,-0.01,0.01,0.19,0.10,-3.62,-3.62,-3.62
226.70,-3.66,-0.03,-3.66,-0.02,0.02,0.20,0.11,-3.65,-3.64,-3.64
228.96,-3.69,-0.03,-3.68,-0.02,0.02,0.21,0.12,-3.67,-3.66,-3.67
231.25,-3.71,-0.04,-3.71,-0.03,0.03,0.23,0.12,-3.68,-3.68,-3.67
233.57,-3.74,-0.06,-3.74,-0.05,0.05,0.24,0.13,-3.70,-3.69,-3.69
235.90,-3.77,-0.07,-3.76,-0.06,0.06,0.26,0.15,-3.71,-3.70,-3.70
238.26,-3.79,-0.08,-3.79,-0.08,0.08,0.28,0.16,-3.71,-3.71,-3.71
240.64,-3.81,-0.10,-3.82,-0.10,0.10,0.29,0.18,-3.71,-3.71,-3.72
243.05,-3.83,-0.12,-3.85,-0.13,0.13,0.31,0.19,-3.70,-3.71,-3.71
245.48,-3.85,-0.14,-3.87,-0.16,0.16,0.33,0.22,-3.69,-3.71,-3.72
247.93,-3.89,-0.18,-3.90,-0.19,0.19,0.35,0.24,-3.70,-3.71,-3.71
250.41,-3.91,-0.20,-3.94,-0.23,0.23,0.37,0.26,-3.69,-3.71,-3.72
252.92,-3.97,-0.27,-3.97,-0.27,0.27,0.40,0.29,-3.71,-3.70,-3.70
255.45,-4.00,-0.32,-4.00,-0.31,0.31,0.42,0.32,-3.70,-3.69,-3.68
258.00,-4.04,-0.37,-4.03,-0.35,0.35,0.44,0.35,-3.69,-3.68,-3.68
260.58,-4.08,-0.41,-4.07,-0.40,0.40,0.47,0.38,-3.69,-3.67,-3.67
263.19,-4.11,-0.46,-4.10,-0.45,0.45,0.50,0.42,-3.67,-3.66,-3.66
265.82,-4.15,-0.50,-4.14,-0.50,0.50,0.52,0.46,-3.65,-3.64,-3.65
268.48,-4.17,-0.55,-4.19,-0.56,0.56,0.55,0.50,-3.62,-3.63,-3.62
271.16,-4.21,-0.61,-4.23,-0.61,0.61,0.58,0.54,-3.60,-3.61,-3.61
273.87,-4.26,-0.66,-4.27,-0.67,0.67,0.61,0.58,-3.59,-3.60,-3.60
276.61,-4.30,-0.73,-4.32,-0.73,0.73,0.65,0.63,-3.57,-3.58,-3.57
279.38,-4.34,-0.78,-4.36,-0.79,0.79,0.68,0.68,-3.55,-3.57,-3.57
282.17,-4.39,-0.84,-4.41,-0.85,0.85,0.72,0.73,-3.54,-3.55,-3.55
284.99,-4.44,-0.91,-4.46,-0.92,0.92,0.75,0.78,-3.53,-3.54,-3.53
287.84,-4.52,-1.00,-4.51,-0.98,0.98,0.79,0.84,-3.54,-3.52,-3.53
290.72,-4.57,-1.07,-4.56,-1.05,1.05,0.83,0.89,-3.52,-3.51,-3.51
293.63,-4.62,-1.13,-4.61,-1.12,1.12,0.88,0.95,-3.51,-3.49,-3.49
296.57,-4.66,-1.19,-4.66,-1.18,1.18,0.92,1.01,-3.48,-3.48,-3.47
299.53,-4.70,-1.24,-4.71,-1.25,1.25,0.96,1.07,-3.46,-3.46,-3.47
302.53,-4.75,-1.30,-4.76,-1.31,1.31,1.01,1.14,-3.44,-3.45,-3.46
305.55,-4.81,-1.38,-4.81,-1.37,1.37,1.06,1.20,-3.44,-3.44,-3.43
308.61,-4.87,-1.45,-4.86,-1.44,1.44,1.11,1.27,-3.44,-3.42,-3.42
311.69,-4.92,-1.51,-4.91,-1.50,1.50,1.17,1.34,-3.43,-3.41,-3.42
314.81,-4.95,-1.57,-4.96,-1.56,1.56,1.22,1.41,-3.40,-3.40,-3.39
317.96,-4.99,-1.61,-5.01,-1.62,1.62,1.28,1.48,-3.38,-3.39,-3.39
321.14,-5.05,-1.67,-5.06,-1.67,1.67,1.34,1.55,-3.38,-3.38,-3.38
324.35,-5.10,-1.72,-5.11,-1.73,1.73,1.40,1.63,-3.37,-3.38,-3.38
327.59,-5.16,-1.80,-5.16,-1.79,1.79,1.46,1.71,-3.37,-3.37,-3.36
330.87,-5.21,-1.85,-5.22,-1.86,1.86,1.53,1.79,-3.36,-3.36,-3.37
334.18,-5.27,-1.91,-5.28,-1.92,1.92,1.60,1.87,-3.36,-3.36,-3.37
337.52,-5.32,-1.97,-5.33,-1.98,1.98,1.67,1.95,-3.35,-3.36,-3.36
340.90,-5.38,-2.03,-5.39,-2.03,2.03,1.75,2.03,-3.35,-3.36,-3.35
344.30,-5.45,-2.10,-5.45,-2.10,2.10,1.82,2.12,-3.36,-3.36,-3.35
347.75,-5.51,-2.16,-5.51,-2.16,2.16,1.90,2.21,-3.36,-3.36,-3.35
351.23,-5.57,-2.22,-5.58,-2.22,2.22,1.98,2.30,-3.35,-3.36,-3.35
354.74,-5.64,-2.29,-5.64,-2.28,2.28,2.07,2.39,-3.36,-3.36,-3.36
358.28,-5.71,-2.35,-5.70,-2.34,2.34,2.16,2.48,-3.38,-3.36,-3.37
361.87,-5.77,-2.41,-5.77,-2.40,2.40,2.25,2.58,-3.38,-3.37,-3.37
365.49,-5.83,-2.47,-5.83,-2.46,2.46,2.34,2.68,-3.38,-3.37,-3.37
369.14,-5.90,-2.52,-5.89,-2.52,2.52,2.43,2.78,-3.39,-3.38,-3.38
372.83,-5.96,-2.58,-5.96,-2.57,2.57,2.53,2.88,-3.39,-3.38,-3.38
376.56,-6.03,-2.64,-6.03,-2.63,2.63,2.63,2.98,-3.40,-3.39,-3.39
380.33,-6.10,-2.71,-6.10,-2.70,2.70,2.74,3.08,-3.41,-3.40,-3.39
384.13,-6.16,-2.76,-6.17,-2.76,2.76,2.84,3.19,-3.40,-3.40,-3.40
387.97,-6.23,-2.82,-6.25,-2.83,2.83,2.95,3.30,-3.40,-3.41,-3.41
391.85,-6.31,-2.89,-6.33,-2.91,2.91,3.06,3.40,-3.41,-3.42,-3.43
395.77,-6.40,-2.99,-6.41,-2.99,2.99,3.17,3.51,-3.42,-3.42,-3.42
399.73,-6.48,-3.06,-6.50,-3.08,3.08,3.29,3.62,-3.41,-3.43,-3.43
403.72,-6.58,-3.15,-6.60,-3.17,3.17,3.40,3.73,-3.42,-3.43,-3.44
407.76,-6.69,-3.25,-6.71,-3.27,3.27,3.52,3.84,-3.43,-3.44,-3.45
411.84,-6.81,-3.38,-6.82,-3.37,3.37,3.64,3.95,-3.44,-3.44,-3.44
415.96,-6.93,-3.48,-6.94,-3.49,3.49,3.76,4.06,-3.45,-3.45,-3.45
420.12,-7.05,-3.60,-7.06,-3.61,3.61,3.88,4.16,-3.45,-3.45,-3.45
424.32,-7.18,-3.73,-7.19,-3.74,3.74,4.00,4.27,-3.45,-3.46,-3.45
428.56,-7.30,-3.84,-7.33,-3.87,3.87,4.11,4.37,-3.44,-3.46,-3.46
432.85,-7.45,-3.99,-7.47,-4.01,4.01,4.23,4.47,-3.45,-3.46,-3.46
437.18,-7.60,-4.14,-7.61,-4.15,4.15,4.34,4.57,-3.46,-3.46,-3.46
441.55,-7.72,-4.27,-7.75,-4.29,4.29,4.45,4.66,-3.43,-3.46,-3.45
445.96,-7.87,-4.42,-7.89,-4.43,4.43,4.56,4.75,-3.44,-3.46,-3.45
450.42,-8.03,-4.57,-8.03,-4.57,4.57,4.66,4.83,-3.46,-3.46,-3.46
454.93,-8.15,-4.70,-8.16,-4.71,4.71,4.76,4.91,-3.44,-3.45,-3.45
459.48,-8.29,-4.84,-8.29,-4.84,4.84,4.85,4.98,-3.45,-3.45,-3.45
464.07,-8.42,-4.98,-8.41,-4.97,4.97,4.93,5.04,-3.46,-3.44,-3.45
