frequency,raw,smoothed,error,error_smoothed,equalization,parametric_eq,fixed_band_eq,equalized_raw,equalized_smoothed,target
20.00,5.81,5.81,-2.32,-2.32,2.33,1.63,0.64,8.14,8.14,8.13
20.20,5.82,5.82,-2.31,-2.31,2.32,1.63,0.66,8.14,8.13,8.13
20.40,5.83,5.83,-2.30,-2.30,2.30,1.62,0.68,8.13,8.13,8.13
20.61,5.84,5.84,-2.29,-2.29,2.28,1.62,0.70,8.12,8.12,8.13
20.81,5.86,5.86,-2.27,-2.27,2.26,1.61,0.72,8.12,8.12,8.13
21.02,5.89,5.89,-2.24,-2.24,2.23,1.60,0.74,8.12,8.12,8.13
21.23,5.92,5.92,-2.21,-2.21,2.20,1.60,0.77,8.13,8.12,8.13
21.44,5.95,5.95,-2.18,-2.17,2.17,1.59,0.79,8.13,8.13,8.13
21.66,5.99,5.99,-2.14,-2.14,2.14,1.59,0.81,8.13,8.13,8.13
21.87,6.02,6.02,-2.10,-2.10,2.10,1.58,0.84,8.12,8.12,8.13
22.09,6.06,6.06,-2.06,-2.06,2.06,1.57,0.86,8.12,8.12,8.12
22.31,6.10,6.10,-2.02,-2.02,2.02,1.57,0.89,8.12,8.12,8.12
22.54,6.14,6.14,-1.98,-1.98,1.98,1.56,0.92,8.12,8.13,8.12
22.76,6.18,6.18,-1.94,-1.94,1.95,1.55,0.94,8.13,8.13,8.12
22.99,6.21,6.21,-1.91,-1.91,1.91,1.55,0.97,8.12,8.13,8.12
23.22,6.24,6.24,-1.88,-1.88,1.88,1.54,1.00,8.12,8.12,8.12
23.45,6.27,6.27,-1.85,-1.85,1.85,1.53,1.03,8.12,8.12,8.12
23.69,6.30,6.30,-1.82,-1.82,1.82,1.53,1.06,8.12,8.12,8.12
23.92,6.32,6.32,-1.80,-1.79,1.79,1.52,1.09,8.11,8.11,8.12
24.16,6.35,6.35,-1.76,-1.76,1.76,1.51,1.12,8.11,8.11,8.12
24.40,6.38,6.38,-1.73,-1.73,1.73,1.50,1.16,8.11,8.11,8.11
24.65,6.41,6.41,-1.70,-1.70,1.70,1.49,1.19,8.11,8.11,8.11
24.89,6.45,6.45,-1.66,-1.66,1.66,1.49,1.22,8.11,8.11,8.11
25.14,6.48,6.48,-1.63,-1.63,1.63,1.48,1.25,8.11,8.11,8.11
25.39,6.52,6.52,-1.59,-1.59,1.59,1.47,1.28,8.11,8.11,8.11
25.65,6.55,6.55,-1.56,-1.56,1.56,1.46,1.32,8.11,8.11,8.11
25.91,6.58,6.58,-1.53,-1.52,1.53,1.45,1.35,8.11,8.11,8.11
26.16,6.61,6.61,-1.49,-1.49,1.50,1.44,1.38,8.11,8.11,8.10
26.43,6.64,6.64,-1.46,-1.46,1.47,1.43,1.41,8.11,8.11,8.10
26.69,6.66,6.66,-1.44,-1.44,1.44,1.42,1.44,8.10,8.10,8.10
26.96,6.68,6.68,-1.42,-1.42,1.42,1.41,1.48,8.10,8.10,8.10
27.23,6.70,6.70,-1.40,-1.40,1.39,1.40,1.50,8.09,8.09,8.10
27.50,6.72,6.72,-1.37,-1.37,1.37,1.39,1.53,8.09,8.09,8.10
27.77,6.74,6.74,-1.35,-1.35,1.35,1.38,1.56,8.09,8.09,8.09
28.05,6.76,6.76,-1.33,-1.33,1.33,1.37,1.59,8.09,8.09,8.09
28.33,6.78,6.78,-1.31,-1.31,1.31,1.35,1.61,8.09,8.09,8.09
28.62,6.80,6.80,-1.29,-1.29,1.29,1.34,1.63,8.09,8.09,8.09
28.90,6.82,6.82,-1.26,-1.27,1.27,1.33,1.65,8.09,8.09,8.08
29.19,6.83,6.83,-1.25,-1.25,1.25,1.32,1.67,8.08,8.08,8.08
29.48,6.85,6.85,-1.23,-1.23,1.23,1.30,1.69,8.08,8.08,8.08
29.78,6.87,6.87,-1.21,-1.21,1.21,1.29,1.70,8.08,8.07,8.08
30.08,6.88,6.89,-1.19,-1.19,1.18,1.27,1.72,8.06,8.07,8.07
30.38,6.91,6.91,-1.16,-1.16,1.16,1.26,1.73,8.07,8.07,8.07
30.68,6.93,6.93,-1.14,-1.14,1.13,1.25,1.73,8.06,8.06,8.07
30.99,6.96,6.96,-1.11,-1.11,1.11,1.23,1.74,8.07,8.07,8.07
31.30,6.98,6.98,-1.08,-1.08,1.08,1.22,1.74,8.06,8.07,8.06
31.61,7.01,7.01,-1.05,-1.05,1.06,1.20,1.73,8.07,8.07,8.06
31.93,7.03,7.03,-1.03,-1.03,1.04,1.18,1.73,8.07,8.06,8.06
32.24,7.04,7.04,-1.01,-1.01,1.02,1.17,1.72,8.06,8.06,8.05
32.57,7.05,7.05,-1.00,-1.00,1.00,1.15,1.71,8.05,8.05,8.05
32.89,7.06,7.06,-0.99,-0.99,0.99,1.14,1.70,8.05,8.04,8.05
33.22,7.06,7.07,-0.98,-0.98,0.98,1.12,1.68,8.04,8.04,8.04
33.55,7.07,7.07,-0.97,-0.97,0.97,1.10,1.67,8.04,8.04,8.04
33.89,7.08,7.08,-0.95,-0.96,0.96,1.09,1.65,8.04,8.03,8.03
34.23,7.08,7.08,-0.95,-0.95,0.95,1.07,1.63,8.03,8.03,8.03
34.57,7.09,7.09,-0.94,-0.94,0.94,1.06,1.60,8.03,8.03,8.03
34.92,7.09,7.09,-0.93,-0.93,0.93,1.04,1.58,8.02,8.02,8.02
35.27,7.10,7.10,-0.92,-0.92,0.92,1.03,1.55,8.02,8.02,8.02
35.62,7.10,7.10,-0.91,-0.91,0.91,1.01,1.52,8.01,8.01,8.01
35.97,7.11,7.11,-0.90,-0.90,0.90,1.00,1.49,8.01,8.01,8.01
36.33,7.11,7.11,-0.89,-0.89,0.89,0.98,1.46,8.00,8.00,8.00
36.70,7.11,7.11,-0.89,-0.88,0.89,0.97,1.43,8.00,8.00,8.00
37.06,7.11,7.11,-0.88,-0.88,0.88,0.96,1.40,7.99,7.99,7.99
37.43,7.11,7.11,-0.87,-0.87,0.87,0.94,1.37,7.98,7.98,7.98
37.81,7.11,7.11,-0.87,-0.87,0.86,0.93,1.34,7.98,7.98,7.98
38.19,7.11,7.11,-0.86,-0.86,0.86,0.92,1.30,7.97,7.97,7.97
38.57,7.12,7.12,-0.84,-0.85,0.85,0.91,1.27,7.97,7.96,7.97
38.95,7.12,7.12,-0.84,-0.84,0.84,0.90,1.24,7.96,7.96,7.96
39.34,7.13,7.13,-0.82,-0.82,0.82,0.89,1.21,7.95,7.95,7.95
39.74,7.13,7.13,-0.81,-0.81,0.81,0.88,1.18,7.94,7.94,7.94
40.14,7.14,7.14,-0.80,-0.80,0.80,0.87,1.14,7.94,7.94,7.94
40.54,7.14,7.14,-0.79,-0.79,0.79,0.86,1.11,7.93,7.93,7.93
40.94,7.15,7.15,-0.77,-0.77,0.77,0.85,1.08,7.93,7.92,7.92
41.35,7.15,7.15,-0.76,-0.76,0.76,0.84,1.05,7.91,7.91,7.91
41.76,7.15,7.15,-0.75,-0.75,0.75,0.83,1.02,7.90,7.90,7.90
42.18,7.15,7.15,-0.74,-0.74,0.74,0.82,0.99,7.89,7.89,7.89
42.60,7.15,7.15,-0.73,-0.73,0.73,0.82,0.97,7.88,7.88,7.89
43.03,7.15,7.15,-0.72,-0.72,0.72,0.81,0.94,7.87,7.87,7.88
43.46,7.15,7.15,-0.71,-0.71,0.71,0.80,0.91,7.86,7.86,7.87
43.90,7.15,7.15,-0.70,-0.70,0.70,0.79,0.89,7.86,7.86,7.85
44.33,7.15,7.15,-0.69,-0.69,0.70,0.78,0.86,7.85,7.85,7.84
44.78,7.15,7.15,-0.68,-0.69,0.69,0.76,0.84,7.84,7.83,7.83
45.23,7.14,7.14,-0.68,-0.68,0.68,0.75,0.81,7.82,7.82,7.82
45.68,7.14,7.14,-0.67,-0.67,0.67,0.74,0.79,7.81,7.81,7.81
46.13,7.14,7.14,-0.66,-0.66,0.66,0.73,0.77,7.80,7.80,7.80
46.60,7.13,7.13,-0.65,-0.65,0.65,0.72,0.75,7.78,7.78,7.78
47.06,7.13,7.13,-0.64,-0.64,0.64,0.70,0.72,7.77,7.77,7.77
47.53,7.12,7.12,-0.64,-0.63,0.63,0.69,0.70,7.76,7.76,7.76
48.01,7.12,7.12,-0.62,-0.62,0.63,0.68,0.68,7.75,7.74,7.74
48.49,7.11,7.11,-0.62,-0.62,0.62,0.66,0.66,7.73,7.73,7.73
48.97,7.10,7.10,-0.61,-0.61,0.61,0.65,0.65,7.71,7.71,7.71
49.46,7.09,7.09,-0.61,-0.61,0.60,0.63,0.63,7.69,7.69,7.70
49.96,7.08,7.08,-0.60,-0.60,0.59,0.62,0.61,7.67,7.68,7.68
50.46,7.08,7.08,-0.58,-0.59,0.59,0.60,0.59,7.67,7.66,7.66
50.96,7.07,7.07,-0.58,-0.58,0.58,0.58,0.58,7.65,7.65,7.65
51.47,7.06,7.06,-0.57,-0.57,0.57,0.57,0.56,7.63,7.63,7.63
51.99,7.05,7.05,-0.56,-0.56,0.56,0.55,0.54,7.61,7.61,7.61
52.51,7.04,7.04,-0.55,-0.55,0.55,0.53,0.53,7.59,7.59,7.59
53.03,7.03,7.03,-0.54,-0.54,0.54,0.51,0.51,7.57,7.57,7.57
53.56,7.02,7.02,-0.53,-0.53,0.53,0.49,0.50,7.55,7.55,7.55
54.10,7.00,7.00,-0.53,-0.52,0.52,0.47,0.48,7.52,7.53,7.53
54.64,6.99,6.99,-0.52,-0.51,0.51,0.45,0.47,7.50,7.50,7.51
55.18,6.98,6.98,-0.50,-0.50,0.50,0.43,0.45,7.48,7.48,7.48
55.74,6.97,6.97,-0.49,-0.49,0.49,0.41,0.43,7.46,7.46,7.46
56.29,6.96,6.96,-0.48,-0.47,0.48,0.39,0.42,7.44,7.44,7.44
56.86,6.95,6.95,-0.46,-0.46,0.46,0.37,0.40,7.41,7.41,7.41
57.42,6.94,6.94,-0.44,-0.45,0.45,0.35,0.39,7.39,7.39,7.39
58.00,6.92,6.92,-0.44,-0.43,0.43,0.32,0.37,7.35,7.36,7.36
58.58,6.91,6.91,-0.42,-0.42,0.42,0.30,0.35,7.33,7.33,7.33
59.16,6.90,6.90,-0.40,-0.40,0.40,0.28,0.33,7.30,7.30,7.30
59.76,6.89,6.89,-0.38,-0.38,0.39,0.25,0.32,7.28,7.28,7.27
60.35,6.88,6.88,-0.36,-0.37,0.37,0.23,0.30,7.25,7.25,7.25
60.96,6.86,6.87,-0.35,-0.35,0.35,0.20,0.28,7.21,7.22,7.21
61.57,6.85,6.85,-0.33,-0.33,0.33,0.18,0.26,7.18,7.18,7.18
62.18,6.84,6.84,-0.31,-0.31,0.31,0.15,0.24,7.15,7.15,7.15
62.80,6.82,6.82,-0.30,-0.29,0.29,0.13,0.22,7.11,7.12,7.12
63.43,6.81,6.81,-0.27,-0.27,0.27,0.10,0.20,7.09,7.08,7.08
64.07,6.79,6.79,-0.26,-0.26,0.25,0.07,0.17,7.05,7.05,7.05
64.71,6.78,6.78,-0.23,-0.23,0.23,0.05,0.15,7.01,7.01,7.01
65.35,6.76,6.76,-0.21,-0.21,0.21,0.02,0.12,6.97,6.97,6.97
66.01,6.75,6.75,-0.19,-0.19,0.19,-0.01,0.10,6.94,6.94,6.94
66.67,6.73,6.73,-0.17,-0.16,0.16,-0.04,0.07,6.89,6.90,6.90
67.33,6.72,6.72,-0.14,-0.14,0.14,-0.07,0.05,6.86,6.86,6.86
68.01,6.70,6.70,-0.12,-0.11,0.11,-0.10,0.02,6.82,6.82,6.82
68.69,6.69,6.69,-0.08,-0.09,0.09,-0.13,-0.01,6.78,6.78,6.77
69.37,6.67,6.67,-0.06,-0.06,0.06,-0.16,-0.04,6.73,6.73,6.73
70.07,6.65,6.65,-0.04,-0.04,0.04,-0.19,-0.07,6.69,6.69,6.69
70.77,6.63,6.63,-0.01,-0.01,0.01,-0.22,-0.10,6.64,6.64,6.64
71.48,6.61,6.61,0.01,0.02,-0.02,-0.25,-0.13,6.59,6.59,6.60
72.19,6.60,6.60,0.05,0.05,-0.05,-0.28,-0.16,6.55,6.55,6.55
72.91,6.58,6.58,0.08,0.08,-0.08,-0.31,-0.19,6.50,6.50,6.50
73.64,6.56,6.56,0.11,0.11,-0.11,-0.35,-0.22,6.45,6.45,6.45
74.38,6.55,6.55,0.15,0.15,-0.15,-0.38,-0.26,6.41,6.40,6.40
75.12,6.53,6.53,0.18,0.18,-0.18,-0.41,-0.29,6.35,6.35,6.35
75.87,6.51,6.51,0.21,0.21,-0.22,-0.45,-0.33,6.29,6.30,6.30
76.63,6.49,6.49,0.25,0.25,-0.25,-0.48,-0.36,6.24,6.24,6.24
77.40,6.48,6.48,0.29,0.29,-0.29,-0.52,-0.40,6.19,6.19,6.19
78.17,6.46,6.46,0.33,0.33,-0.32,-0.55,-0.43,6.14,6.14,6.13
78.95,6.44,6.44,0.36,0.36,-0.36,-0.58,-0.47,6.08,6.08,6.08
79.74,6.42,6.42,0.40,0.40,-0.40,-0.62,-0.51,6.03,6.02,6.02
80.54,6.39,6.39,0.43,0.43,-0.43,-0.66,-0.55,5.96,5.96,5.96
81.35,6.37,6.37,0.47,0.47,-0.47,-0.69,-0.59,5.90,5.90,5.90
82.16,6.34,6.34,0.50,0.50,-0.50,-0.73,-0.63,5.84,5.84,5.84
82.98,6.32,6.32,0.54,0.54,-0.54,-0.76,-0.67,5.78,5.78,5.78
83.81,6.29,6.29,0.57,0.57,-0.57,-0.80,-0.71,5.72,5.72,5.72
84.65,6.27,6.27,0.61,0.61,-0.61,-0.84,-0.75,5.66,5.66,5.66
85.50,6.24,6.24,0.65,0.65,-0.64,-0.87,-0.79,5.60,5.60,5.59
86.35,6.21,6.21,0.68,0.68,-0.67,-0.91,-0.83,5.54,5.54,5.53
87.22,6.17,6.17,0.71,0.71,-0.70,-0.95,-0.88,5.47,5.47,5.46
88.09,6.14,6.14,0.74,0.74,-0.74,-0.99,-0.92,5.40,5.40,5.40
88.97,6.10,6.10,0.77,0.77,-0.78,-1.03,-0.97,5.32,5.32,5.33
89.86,6.06,6.07,0.80,0.80,-0.82,-1.06,-1.01,5.24,5.25,5.26
90.76,6.05,6.05,0.85,0.85,-0.87,-1.10,-1.06,5.18,5.18,5.20
91.66,6.04,6.04,0.91,0.91,-0.92,-1.14,-1.11,5.12,5.12,5.13
92.58,6.04,6.04,0.98,0.98,-0.97,-1.18,-1.16,5.07,5.06,5.06
93.51,6.03,6.03,1.04,1.04,-1.03,-1.22,-1.21,5.00,5.00,4.99
94.44,6.02,6.02,1.10,1.10,-1.09,-1.26,-1.26,4.93,4.93,4.92
95.39,6.00,6.00,1.15,1.15,-1.15,-1.30,-1.31,4.85,4.85,4.85
96.34,5.98,5.98,1.20,1.20,-1.20,-1.33,-1.36,4.78,4.78,4.78
97.30,5.95,5.96,1.25,1.25,-1.25,-1.37,-1.41,4.70,4.70,4.71
98.28,5.93,5.93,1.30,1.30,-1.30,-1.41,-1.46,4.63,4.63,4.63
99.26,5.91,5.91,1.35,1.34,-1.35,-1.45,-1.51,4.56,4.56,4.56
100.25,5.88,5.88,1.39,1.39,-1.39,-1.49,-1.56,4.49,4.49,4.49
101.25,5.85,5.85,1.43,1.44,-1.44,-1.53,-1.62,4.41,4.42,4.42
102.27,5.83,5.83,1.49,1.48,-1.49,-1.57,-1.67,4.35,4.34,4.34
103.29,5.80,5.80,1.53,1.53,-1.53,-1.60,-1.72,4.27,4.27,4.27
104.32,5.77,5.78,1.57,1.58,-1.58,-1.64,-1.77,4.19,4.20,4.20
105.37,5.75,5.75,1.63,1.63,-1.63,-1.68,-1.83,4.12,4.12,4.12
106.42,5.73,5.73,1.68,1.68,-1.68,-1.72,-1.88,4.06,4.05,4.05
107.48,5.70,5.70,1.72,1.73,-1.72,-1.76,-1.93,3.98,3.98,3.98
108.56,5.68,5.68,1.78,1.77,-1.77,-1.79,-1.98,3.91,3.91,3.91
109.64,5.65,5.65,1.82,1.82,-1.82,-1.83,-2.03,3.83,3.83,3.83
110.74,5.63,5.63,1.87,1.87,-1.87,-1.87,-2.07,3.76,3.76,3.76
111.85,5.60,5.60,1.91,1.92,-1.92,-1.91,-2.12,3.68,3.69,3.69
112.97,5.58,5.58,1.97,1.96,-1.96,-1.94,-2.17,3.62,3.62,3.62
114.10,5.55,5.55,2.01,2.01,-2.01,-1.98,-2.21,3.54,3.55,3.54
115.24,5.53,5.53,2.06,2.06,-2.05,-2.01,-2.25,3.48,3.48,3.47
116.39,5.50,5.50,2.10,2.10,-2.10,-2.05,-2.29,3.40,3.40,3.40
117.55,5.47,5.47,2.14,2.14,-2.14,-2.08,-2.32,3.33,3.33,3.33
118.73,5.44,5.44,2.18,2.18,-2.18,-2.12,-2.36,3.26,3.26,3.26
119.92,5.41,5.41,2.22,2.22,-2.22,-2.15,-2.39,3.19,3.19,3.19
121.12,5.39,5.39,2.27,2.26,-2.26,-2.19,-2.42,3.13,3.12,3.12
122.33,5.36,5.36,2.31,2.31,-2.31,-2.22,-2.44,3.05,3.05,3.05
123.55,5.33,5.34,2.34,2.35,-2.35,-2.25,-2.47,2.98,2.99,2.99
124.79,5.31,5.31,2.39,2.39,-2.39,-2.28,-2.49,2.92,2.92,2.92
126.03,5.28,5.28,2.43,2.43,-2.43,-2.32,-2.50,2.85,2.85,2.85
127.29,5.25,5.25,2.46,2.47,-2.46,-2.35,-2.52,2.79,2.79,2.79
128.57,5.23,5.23,2.51,2.50,-2.50,-2.38,-2.53,2.73,2.73,2.72
129.85,5.20,5.20,2.54,2.54,-2.54,-2.41,-2.53,2.66,2.66,2.66
131.15,5.17,5.17,2.57,2.57,-2.57,-2.44,-2.54,2.60,2.60,2.60
132.46,5.14,5.14,2.61,2.61,-2.61,-2.46,-2.54,2.53,2.53,2.54
133.79,5.11,5.11,2.64,2.64,-2.64,-2.49,-2.54,2.47,2.47,2.47
135.12,5.09,5.09,2.68,2.67,-2.68,-2.52,-2.54,2.42,2.41,2.41
136.48,5.06,5.06,2.71,2.71,-2.71,-2.55,-2.54,2.35,2.35,2.35
137.84,5.03,5.03,2.74,2.74,-2.74,-2.57,-2.53,2.29,2.30,2.30
139.22,5.01,5.01,2.77,2.77,-2.77,-2.60,-2.53,2.24,2.24,2.24
140.61,4.98,4.98,2.80,2.80,-2.80,-2.62,-2.52,2.18,2.18,2.18
142.02,4.95,4.95,2.83,2.83,-2.82,-2.65,-2.51,2.13,2.13,2.13
143.44,4.92,4.92,2.85,2.85,-2.85,-2.67,-2.50,2.07,2.07,2.07
144.87,4.89,4.89,2.87,2.87,-2.87,-2.69,-2.49,2.02,2.02,2.02
146.32,4.86,4.86,2.90,2.90,-2.90,-2.72,-2.48,1.96,1.96,1.96
147.78,4.83,4.83,2.92,2.92,-2.92,-2.74,-2.47,1.91,1.91,1.91
149.26,4.80,4.80,2.94,2.94,-2.94,-2.76,-2.46,1.86,1.86,1.86
150.75,4.77,4.77,2.96,2.96,-2.96,-2.78,-2.45,1.81,1.81,1.81
152.26,4.75,4.75,2.99,2.98,-2.98,-2.80,-2.44,1.77,1.77,1.76
153.78,4.72,4.72,3.00,3.00,-3.00,-2.82,-2.43,1.72,1.72,1.72
155.32,4.69,4.69,3.02,3.02,-3.02,-2.83,-2.42,1.67,1.68,1.67
156.88,4.66,4.66,3.04,3.03,-3.03,-2.85,-2.41,1.63,1.63,1.63
158.44,4.63,4.63,3.05,3.05,-3.05,-2.87,-2.40,1.58,1.58,1.58
160.03,4.59,4.59,3.05,3.06,-3.06,-2.88,-2.40,1.53,1.53,1.54
161.63,4.56,4.56,3.08,3.07,-3.08,-2.90,-2.40,1.49,1.49,1.49
163.24,4.53,4.53,3.09,3.09,-3.09,-2.91,-2.39,1.44,1.44,1.44
164.88,4.50,4.50,3.10,3.10,-3.10,-2.92,-2.39,1.40,1.40,1.40
166.53,4.47,4.47,3.11,3.11,-3.10,-2.94,-2.39,1.37,1.37,1.36
168.19,4.44,4.44,3.11,3.11,-3.11,-2.95,-2.40,1.33,1.33,1.33
169.87,4.41,4.41,3.12,3.12,-3.12,-2.96,-2.40,1.29,1.29,1.29
171.57,4.37,4.37,3.12,3.12,-3.12,-2.97,-2.41,1.25,1.25,1.25
173.29,4.34,4.34,3.12,3.13,-3.13,-2.98,-2.42,1.22,1.22,1.22
175.02,4.31,4.31,3.13,3.13,-3.13,-2.99,-2.43,1.18,1.18,1.18
176.77,4.28,4.28,3.13,3.13,-3.13,-3.00,-2.44,1.15,1.15,1.15
178.54,4.24,4.24,3.12,3.13,-3.13,-3.00,-2.46,1.11,1.11,1.12
180.32,4.21,4.21,3.13,3.13,-3.13,-3.01,-2.47,1.08,1.08,1.08
182.13,4.18,4.18,3.13,3.13,-3.13,-3.01,-2.49,1.05,1.05,1.05
183.95,4.15,4.15,3.13,3.13,-3.13,-3.02,-2.51,1.02,1.02,1.02
185.79,4.13,4.13,3.14,3.13,-3.13,-3.02,-2.53,1.00,1.00,0.99
187.65,4.10,4.10,3.14,3.13,-3.13,-3.03,-2.56,0.97,0.97,0.97
189.52,4.07,4.07,3.13,3.13,-3.13,-3.03,-2.58,0.94,0.94,0.94
191.42,4.04,4.04,3.13,3.13,-3.13,-3.03,-2.61,0.91,0.91,0.91
193.33,4.01,4.01,3.12,3.13,-3.13,-3.03,-2.64,0.88,0.89,0.89
195.27,3.98,3.98,3.12,3.12,-3.12,-3.03,-2.67,0.86,0.86,0.86
197.22,3.95,3.95,3.11,3.11,-3.11,-3.03,-2.70,0.84,0.84,0.84
199.19,3.92,3.92,3.11,3.10,-3.10,-3.03,-2.73,0.82,0.81,0.81
201.18,3.88,3.88,3.09,3.10,-3.09,-3.03,-2.77,0.79,0.79,0.79
203.19,3.85,3.85,3.08,3.08,-3.08,-3.03,-2.80,0.77,0.77,0.77
205.23,3.82,3.82,3.07,3.07,-3.07,-3.03,-2.84,0.75,0.75,0.75
207.28,3.78,3.78,3.06,3.06,-3.06,-3.02,-2.87,0.72,0.73,0.73
209.35,3.75,3.75,3.05,3.04,-3.04,-3.02,-2.91,0.71,0.71,0.71
211.44,3.71,3.71,3.02,3.03,-3.03,-3.01,-2.94,0.68,0.69,0.69
213.56,3.68,3.68,3.01,3.01,-3.01,-3.01,-2.98,0.67,0.67,0.67
215.69,3.64,3.64,2.99,2.99,-2.99,-3.00,-3.01,0.65,0.65,0.65
217.85,3.60,3.60,2.97,2.97,-2.97,-2.99,-3.05,0.63,0.63,0.63
220.03,3.57,3.57,2.96,2.95,-2.95,-2.98,-3.08,0.62,0.61,0.61
222.23,3.53,3.53,2.93,2.93,-2.93,-2.98,-3.11,0.60,0.60,0.60
224.45,3.49,3.49,2.91,2.91,-2.91,-2.97,-3.14,0.58,0.58,0.58
226.70,3.45,3.45,2.88,2.89,-2.89,-2.96,-3.17,0.57,0.57,0.57
228.96,3.41,3.41,2.86,2.86,-2.86,-2.95,-3.20,0.55,0.55,0.55
231.25,3.37,3.37,2.83,2.83,-2.83,-2.93,-3.22,0.54,0.53,0.54
233.57,3.32,3.32,2.80,2.80,-2.81,-2.92,-3.24,0.51,0.52,0.52
235.90,3.28,3.28,2.78,2.78,-2.78,-2.91,-3.25,0.50,0.50,0.50
238.26,3.23,3.23,2.74,2.75,-2.75,-2.90,-3.27,0.49,0.49,0.49
240.64,3.19,3.19,2.72,2.72,-2.71,-2.88,-3.27,0.48,0.48,0.47
243.05,3.14,3.14,2.68,2.68,-2.68,-2.87,-3.28,0.46,0.46,0.46
245.48,3.09,3.09,2.64,2.64,-2.64,-2.85,-3.28,0.45,0.45,0.45
247.93,3.04,3.04,2.60,2.60,-2.60,-2.84,-3.28,0.44,0.44,0.44
250.41,2.98,2.98,2.55,2.56,-2.56,-2.82,-3.27,0.42,0.43,0.43
252.92,2.93,2.93,2.51,2.51,-2.51,-2.80,-3.26,0.42,0.42,0.42
255.45,2.88,2.88,2.47,2.47,-2.47,-2.79,-3.24,0.41,0.41,0.41
258.00,2.82,2.82,2.42,2.43,-2.42,-2.77,-3.22,0.40,0.40,0.40
260.58,2.77,2.77,2.38,2.38,-2.38,-2.75,-3.19,0.39,0.39,0.39
263.19,2.72,2.72,2.34,2.34,-2.34,-2.73,-3.16,0.38,0.38,0.38
265.82,2.68,2.68,2.31,2.31,-2.31,-2.71,-3.13,0.37,0.37,0.37
268.48,2.64,2.64,2.28,2.28,-2.29,-2.69,-3.09,0.35,0.35,0.36
271.16,2.62,2.62,2.27,2.27,-2.28,-2.67,-3.05,0.34,0.34,0.35
273.87,2.61,2.61,2.27,2.26,-2.28,-2.65,-3.01,0.33,0.33,0.34
276.61,2.61,2.61,2.27,2.28,-2.29,-2.63,-2.96,0.32,0.33,0.34
279.38,2.63,2.63,2.30,2.30,-2.31,-2.60,-2.92,0.32,0.32,0.33
282.17,2.66,2.66,2.34,2.34,-2.34,-2.58,-2.86,0.32,0.32,0.32
284.99,2.70,2.70,2.38,2.37,-2.38,-2.56,-2.81,0.32,0.32,0.33
287.84,2.74,2.74,2.41,2.42,-2.42,-2.53,-2.76,0.33,0.33,0.33
290.72,2.78,2.78,2.46,2.46,-2.45,-2.51,-2.70,0.33,0.33,0.32
293.63,2.82,2.82,2.50,2.49,-2.48,-2.48,-2.64,0.34,0.33,0.32
296.57,2.84,2.84,2.52,2.52,-2.51,-2.45,-2.59,0.33,0.33,0.32
299.53,2.85,2.85,2.53,2.53,-2.52,-2.43,-2.53,0.33,0.33,0.32
302.53,2.86,2.86,2.54,2.53,-2.53,-2.40,-2.47,0.33,0.33,0.32
305.55,2.85,2.85,2.53,2.53,-2.53,-2.37,-2.41,0.32,0.32,0.32
308.61,2.83,2.83,2.51,2.51,-2.51,-2.35,-2.35,0.32,0.32,0.32
311.69,2.81,2.81,2.49,2.49,-2.49,-2.32,-2.29,0.32,0.32,0.32
314.81,2.79,2.79,2.47,2.47,-2.47,-2.29,-2.24,0.32,0.32,0.32
317.96,2.76,2.76,2.44,2.44,-2.44,-2.26,-2.18,0.32,0.32,0.32
321.14,2.72,2.73,2.40,2.40,-2.40,-2.23,-2.12,0.32,0.32,0.32
324.35,2.69,2.69,2.37,2.36,-2.36,-2.20,-2.07,0.33,0.32,0.33
327.59,2.65,2.65,2.32,2.32,-2.33,-2.17,-2.01,0.33,0.33,0.33
330.87,2.61,2.61,2.28,2.28,-2.28,-2.13,-1.96,0.33,0.33,0.33
334.18,2.57,2.57,2.24,2.24,-2.24,-2.10,-1.90,0.33,0.33,0.33
337.52,2.53,2.53,2.20,2.20,-2.20,-2.07,-1.85,0.33,0.33,0.33
340.90,2.49,2.49,2.15,2.15,-2.15,-2.04,-1.80,0.34,0.34,0.34
344.30,2.45,2.45,2.11,2.11,-2.11,-2.00,-1.75,0.34,0.34,0.34
347.75,2.41,2.41,2.06,2.06,-2.06,-1.97,-1.71,0.35,0.35,0.35
351.23,2.37,2.37,2.02,2.02,-2.02,-1.94,-1.66,0.35,0.35,0.35
354.74,2.33,2.33,1.97,1.97,-1.97,-1.90,-1.61,0.36,0.36,0.36
358.28,2.29,2.29,1.93,1.93,-1.93,-1.87,-1.57,0.36,0.36,0.36
361.87,2.25,2.25,1.88,1.88,-1.88,-1.83,-1.53,0.37,0.37,0.37
365.49,2.21,2.21,1.84,1.84,-1.84,-1.79,-1.49,0.37,0.37,0.37
369.14,2.17,2.17,1.80,1.79,-1.79,-1.76,-1.45,0.38,0.38,0.37
372.83,2.13,2.13,1.74,1.75,-1.75,-1.72,-1.41,0.38,0.38,0.39
376.56,2.09,2.09,1.70,1.70,-1.70,-1.68,-1.37,0.39,0.39,0.39
380.33,2.05,2.05,1.66,1.66,-1.66,-1.64,-1.33,0.39,0.39,0.39
384.13,2.01,2.01,1.62,1.62,-1.62,-1.60,-1.30,0.40,0.40,0.39
387.97,1.98,1.98,1.58,1.57,-1.57,-1.57,-1.27,0.41,0.41,0.40
391.85,1.94,1.94,1.52,1.53,-1.53,-1.53,-1.23,0.41,0.41,0.42
395.77,1.90,1.90,1.48,1.48,-1.48,-1.49,-1.20,0.42,0.42,0.42
399.73,1.86,1.86,1.44,1.44,-1.44,-1.45,-1.17,0.42,0.42,0.42
403.72,1.82,1.82,1.39,1.39,-1.39,-1.40,-1.14,0.43,0.43,0.43
407.76,1.78,1.78,1.35,1.35,-1.35,-1.36,-1.11,0.43,0.43,0.43
411.84,1.74,1.74,1.30,1.30,-1.30,-1.32,-1.08,0.44,0.44,0.44
415.96,1.70,1.70,1.25,1.26,-1.26,-1.28,-1.05,0.44,0.44,0.45
420.12,1.66,1.66,1.22,1.21,-1.21,-1.24,-1.03,0.45,0.45,0.45
424.32,1.62,1.62,1.17,1.17,-1.17,-1.19,-1.00,0.45,0.45,0.45
428.56,1.58,1.58,1.12,1.12,-1.12,-1.15,-0.97,0.46,0.46,0.46
432.85,1.54,1.54,1.07,1.07,-1.07,-1.11,-0.95,0.47,0.47,0.47
437.18,1.50,1.50,1.03,1.03,-1.02,-1.06,-0.92,0.48,0.48,0.47
441.55,1.46,1.46,0.98,0.98,-0.98,-1.02,-0.90,0.48,0.48,0.48
445.96,1.42,1.42,0.93,0.93,-0.93,-0.97,-0.87,0.49,0.49,0.49
450.42,1.38,1.38,0.88,0.88,-0.88,-0.93,-0.85,0.50,0.50,0.51
454.93,1.34,1.34,0.83,0.83,-0.84,-0.88,-0.82,0.50,0.51,0.51
459.48,1.31,1.31,0.79,0.79,-0.79,-0.83,-0.80,0.52,0.52,0.52
464.07,1.27,1.27,0.75,0.75,-0.75,-0.79,-0.77,0.52,0.53,0.52
468.71,1.24,1.24,0.71,0.71,-0.70,-0.74,-0.75,0.54,0.53,0.53
473.40,1.20,1.20,0.66,0.66,-0.66,-0.69,-0.72,0.54,0.54,0.54
478.13,1.17,1.17,0.62,0.62,-0.62,-0.64,-0.70,0.55,0.55,0.55
482.91,1.13,1.13,0.57,0.58,-0.58,-0.59,-0.67,0.56,0.56,0.56
487.74,1.10,1.10,0.53,0.53,-0.53,-0.54,-0.65,0.57,0.57,0.57
492.62,1.06,1.06,0.48,0.49,-0.48,-0.49,-0.62,0.58,0.58,0.58
497.55,1.02,1.02,0.44,0.44,-0.44,-0.44,-0.59,0.58,0.59,0.59
502.52,0.99,0.99,0.40,0.39,-0.39,-0.39,-0.57,0.60,0.60,0.59
507.55,0.95,0.95,0.34,0.34,-0.34,-0.34,-0.54,0.61,0.61,0.61
512.62,0.91,0.91,0.29,0.29,-0.29,-0.29,-0.51,0.62,0.62,0.62
517.75,0.88,0.88,0.25,0.24,-0.25,-0.24,-0.48,0.63,0.63,0.63
522.93,0.84,0.84,0.20,0.20,-0.20,-0.19,-0.45,0.64,0.64,0.64
528.16,0.80,0.80,0.15,0.15,-0.15,-0.14,-0.42,0.65,0.65,0.65
533.44,0.76,0.76,0.10,0.11,-0.11,-0.08,-0.39,0.66,0.66,0.66
538.77,0.73,0.73,0.07,0.06,-0.06,-0.03,-0.36,0.67,0.67,0.66
544.16,0.69,0.69,0.01,0.01,-0.01,0.02,-0.33,0.68,0.68,0.68
549.60,0.65,0.65,-0.04,-0.04,0.04,0.08,-0.30,0.69,0.69,0.69
555.10,0.62,0.62,-0.09,-0.09,0.08,0.13,-0.26,0.70,0.70,0.71
