frequency,raw
20.00,3.07
20.20,3.09
20.40,3.10
20.61,3.12
20.81,3.14
21.02,3.15
21.23,3.17
21.44,3.19
21.66,3.21
21.87,3.23
22.09,3.25
22.31,3.27
22.54,3.29
22.76,3.32
22.99,3.34
23.22,3.36
23.45,3.39
23.69,3.41
23.92,3.43
24.16,3.46
24.40,3.48
24.65,3.51
24.89,3.53
25.14,3.55
25.39,3.58
25.65,3.60
25.91,3.62
26.16,3.65
26.43,3.67
26.69,3.69
26.96,3.72
27.23,3.74
27.50,3.77
27.77,3.79
28.05,3.82
28.33,3.84
28.62,3.87
28.90,3.90
29.19,3.92
29.48,3.94
29.78,3.96
30.08,3.99
30.38,4.01
30.68,4.03
30.99,4.05
31.30,4.06
31.61,4.07
31.93,4.09
32.24,4.10
32.57,4.11
32.89,4.12
33.22,4.12
33.55,4.13
33.89,4.14
34.23,4.14
34.57,4.15
34.92,4.16
35.27,4.16
35.62,4.16
35.97,4.16
36.33,4.16
36.70,4.16
37.06,4.16
37.43,4.16
37.81,4.16
38.19,4.16
38.57,4.16
38.95,4.16
39.34,4.16
39.74,4.15
40.14,4.15
40.54,4.14
40.94,4.14
41.35,4.14
41.76,4.13
42.18,4.13
42.60,4.12
43.03,4.11
43.46,4.10
43.90,4.09
44.33,4.08
44.78,4.07
45.23,4.07
45.68,4.06
46.13,4.05
46.60,4.04
47.06,4.03
47.53,4.02
48.01,4.01
48.49,4.00
48.97,3.99
49.46,3.99
49.96,3.98
50.46,3.97
50.96,3.96
51.47,3.95
51.99,3.94
52.51,3.93
53.03,3.92
53.56,3.90
54.10,3.89
54.64,3.88
55.18,3.87
55.74,3.86
56.29,3.84
56.86,3.82
57.42,3.81
58.00,3.79
58.58,3.78
59.16,3.77
59.76,3.75
60.35,3.73
60.96,3.72
61.57,3.71
62.18,3.71
62.80,3.69
63.43,3.69
64.07,3.68
64.71,3.66
65.35,3.63
66.01,3.60
66.67,3.57
67.33,3.53
68.01,3.50
68.69,3.46
69.37,3.42
70.07,3.39
70.77,3.35
71.48,3.32
72.19,3.29
72.91,3.26
73.64,3.24
74.38,3.21
75.12,3.19
75.87,3.16
76.63,3.11
77.40,3.07
78.17,3.03
78.95,3.00
79.74,2.97
80.54,2.94
81.35,2.91
82.16,2.87
82.98,2.84
83.81,2.81
84.65,2.77
85.50,2.74
86.35,2.70
87.22,2.66
88.09,2.62
88.97,2.59
89.86,2.56
90.76,2.52
91.66,2.49
92.58,2.45
93.51,2.41
94.44,2.38
95.39,2.35
96.34,2.32
97.30,2.29
98.28,2.25
99.26,2.21
100.25,2.17
101.25,2.12
102.27,2.07
103.29,2.03
104.32,1.99
105.37,1.96
106.42,1.93
107.48,1.91
108.56,1.89
109.64,1.86
110.74,1.84
111.85,1.80
112.97,1.76
114.10,1.72
115.24,1.68
116.39,1.64
117.55,1.60
118.73,1.56
119.92,1.53
121.12,1.51
122.33,1.50
123.55,1.48
124.79,1.46
126.03,1.42
127.29,1.37
128.57,1.31
129.85,1.24
131.15,1.19
132.46,1.15
133.79,1.12
135.12,1.10
136.48,1.06
137.84,1.02
139.22,0.96
140.61,0.89
142.02,0.82
143.44,0.76
144.87,0.70
146.32,0.65
147.78,0.61
149.26,0.56
150.75,0.51
152.26,0.45
153.78,0.37
155.32,0.29
156.88,0.22
158.44,0.14
160.03,0.08
161.63,0.03
163.24,-0.02
164.88,-0.08
166.53,-0.13
168.19,-0.20
169.87,-0.28
171.57,-0.37
173.29,-0.45
175.02,-0.54
176.77,-0.64
178.54,-0.73
180.32,-0.82
182.13,-0.91
183.95,-0.99
185.79,-1.06
187.65,-1.13
189.52,-1.21
191.42,-1.30
193.33,-1.39
195.27,-1.49
197.22,-1.60
199.19,-1.71
201.18,-1.81
203.19,-1.90
205.23,-1.98
207.28,-2.07
209.35,-2.14
211.44,-2.21
213.56,-2.28
215.69,-2.34
217.85,-2.41
220.03,-2.47
222.23,-2.54
224.45,-2.61
226.70,-2.69
228.96,-2.76
231.25,-2.81
233.57,-2.87
235.90,-2.91
238.26,-2.94
240.64,-2.97
243.05,-3.00
245.48,-3.02
247.93,-3.05
250.41,-3.07
252.92,-3.09
255.45,-3.11
258.00,-3.13
260.58,-3.15
263.19,-3.16
265.82,-3.18
268.48,-3.19
271.16,-3.20
273.87,-3.21
276.61,-3.21
279.38,-3.22
282.17,-3.22
284.99,-3.21
287.84,-3.21
290.72,-3.20
293.63,-3.18
296.57,-3.16
299.53,-3.13
302.53,-3.10
305.55,-3.07
308.61,-3.04
311.69,-2.99
314.81,-2.95
317.96,-2.91
321.14,-2.86
324.35,-2.82
327.59,-2.77
330.87,-2.72
334.18,-2.67
337.52,-2.63
340.90,-2.58
344.30,-2.53
347.75,-2.48
351.23,-2.43
354.74,-2.37
358.28,-2.32
361.87,-2.25
365.49,-2.19
369.14,-2.12
372.83,-2.05
376.56,-1.98
380.33,-1.90
384.13,-1.82
387.97,-1.74
391.85,-1.66
395.77,-1.58
399.73,-1.51
403.72,-1.43
407.76,-1.34
411.84,-1.26
415.96,-1.19
420.12,-1.12
424.32,-1.04
428.56,-0.97
432.85,-0.90
437.18,-0.84
441.55,-0.79
445.96,-0.73
450.42,-0.69
454.93,-0.62
459.48,-0.55
464.07,-0.47
468.71,-0.39
473.40,-0.34
478.13,-0.29
482.91,-0.26
487.74,-0.25
492.62,-0.24
497.55,-0.23
502.52,-0.21
507.55,-0.18
512.62,-0.15
517.75,-0.12
522.93,-0.09
528.16,-0.07
533.44,-0.06
538.77,-0.03
544.16,-0.02
549.60,-0.01
555.10,0.01
560.65,0.02
566.25,0.03
571.92,0.05
577.64,0.06
583.41,0.07
589.25,0.09
595.14,0.10
601.09,0.11
607.10,0.13
613.17,0.14
619.30,0.14
625.50,0.16
631.75,0.16
638.07,0.17
644.45,0.17
650.89,0.18
657.40,0.18
663.98,0.18
670.62,0.18
677.32,0.18
684.10,0.18
690.94,0.18
697.85,0.17
704.83,0.17
711.87,0.16
718.99,0.16
726.18,0.17
733.44,0.18
740.78,0.20
748.19,0.22
755.67,0.23
763.23,0.23
770.86,0.23
778.57,0.21
786.35,0.20
794.22,0.18
802.16,0.16
810.18,0.14
818.28,0.12
826.46,0.09
834.73,0.07
843.08,0.06
851.51,0.06
860.02,0.07
868.62,0.08
877.31,0.07
886.08,0.06
894.94,0.04
903.89,0.03
912.93,0.01
922.06,-0.01
931.28,-0.04
940.59,-0.07
950.00,-0.09
959.50,-0.11
969.09,-0.10
978.78,-0.08
988.57,-0.05
998.46,-0.01
1008.44,0.04
1018.53,0.10
1028.71,0.15
1039.00,0.19
1049.39,0.24
1059.88,0.30
1070.48,0.36
1081.19,0.43
1092.00,0.50
1102.92,0.55
1113.95,0.60
1125.09,0.64
1136.34,0.67
1147.70,0.70
1159.18,0.72
1170.77,0.74
1182.48,0.75
1194.30,0.75
1206.25,0.74
1218.31,0.71
1230.49,0.66
1242.80,0.60
1255.22,0.55
1267.78,0.51
1280.45,0.48
1293.26,0.48
1306.19,0.50
1319.25,0.54
1332.45,0.60
1345.77,0.68
1359.23,0.76
1372.82,0.84
1386.55,0.94
1400.41,1.04
1414.42,1.16
1428.56,1.29
1442.85,1.41
1457.28,1.51
1471.85,1.60
1486.57,1.68
1501.43,1.75
1516.45,1.80
1531.61,1.85
1546.93,1.90
1562.40,1.96
1578.02,2.03
1593.80,2.11
1609.74,2.20
1625.84,2.30
1642.10,2.41
1658.52,2.53
1675.10,2.66
1691.85,2.78
1708.77,2.91
1725.86,3.02
1743.12,3.14
1760.55,3.26
1778.15,3.37
1795.94,3.48
1813.90,3.60
1832.03,3.71
1850.36,3.81
1868.86,3.92
1887.55,4.03
1906.42,4.14
1925.49,4.26
1944.74,4.38
1964.19,4.48
1983.83,4.58
2003.67,4.68
2023.71,4.78
2043.94,4.87
2064.38,4.96
2085.03,5.03
2105.88,5.09
2126.94,5.14
2148.20,5.19
2169.69,5.22
2191.38,5.24
2213.30,5.26
2235.43,5.28
2257.78,5.30
2280.36,5.32
2303.17,5.32
2326.20,5.33
2349.46,5.34
2372.95,5.36
2396.68,5.42
2420.65,5.48
2444.86,5.55
2469.31,5.64
2494.00,5.74
2518.94,5.84
2544.13,5.96
2569.57,6.08
2595.27,6.21
2621.22,6.34
2647.43,6.46
2673.90,6.56
2700.64,6.64
2727.65,6.69
2754.93,6.72
2782.48,6.74
2810.30,6.72
2838.40,6.70
2866.79,6.64
2895.46,6.57
2924.41,6.47
2953.65,6.36
2983.19,6.24
3013.02,6.11
3043.15,5.98
3073.58,5.82
3104.32,5.64
3135.36,5.43
3166.72,5.20
3198.38,4.93
3230.37,4.66
3262.67,4.37
3295.30,4.08
3328.25,3.79
3361.53,3.50
3395.15,3.25
3429.10,3.00
3463.39,2.75
3498.03,2.51
3533.01,2.23
3568.34,1.93
3604.02,1.59
3640.06,1.21
3676.46,0.80
3713.22,0.35
3750.36,-0.15
3787.86,-0.66
3825.74,-1.19
3864.00,-1.74
3902.64,-2.31
3941.66,-2.89
3981.08,-3.51
4020.89,-4.16
4061.10,-4.84
4101.71,-5.56
4142.73,-6.35
4184.15,-7.17
4226.00,-8.00
4268.26,-8.79
4310.94,-9.45
4354.05,-9.92
4397.59,-9.98
4441.56,-9.69
4485.98,-9.09
4530.84,-8.06
4576.15,-6.82
4621.91,-5.46
4668.13,-4.04
4714.81,-2.68
4761.96,-1.41
4809.58,-0.29
4857.67,0.63
4906.25,1.38
4955.31,1.93
5004.87,2.23
5054.91,2.38
5105.46,2.35
5156.52,2.14
5208.08,1.85
5260.16,1.50
5312.77,1.13
5365.89,0.77
5419.55,0.42
5473.75,0.08
5528.49,-0.25
5583.77,-0.60
5639.61,-0.98
5696.00,-1.39
5752.96,-1.81
5810.49,-2.21
5868.60,-2.58
5927.28,-2.91
5986.56,-3.21
6046.42,-3.45
6106.89,-3.66
6167.96,-3.88
6229.64,-4.09
6291.93,-4.33
6354.85,-4.57
6418.40,-4.84
6482.58,-5.16
6547.41,-5.54
6612.88,-6.02
6679.01,-6.59
6745.80,-7.21
6813.26,-7.86
6881.39,-8.53
6950.21,-9.18
7019.71,-9.76
7089.91,-10.25
7160.81,-10.61
7232.41,-10.88
7304.74,-11.01
7377.79,-10.96
7451.56,-10.75
7526.08,-10.35
7601.34,-9.75
7677.35,-9.01
7754.13,-8.14
7831.67,-7.14
7909.98,-6.07
7989.08,-4.95
8068.98,-3.82
8149.67,-2.73
8231.16,-1.72
8313.47,-0.91
8396.61,-0.33
8480.57,0.03
8565.38,0.12
8651.03,-0.03
8737.54,-0.33
8824.92,-0.79
8913.17,-1.16
9002.30,-1.56
9092.32,-2.11
9183.25,-2.44
9275.08,-2.54
9367.83,-2.93
9461.51,-3.30
9556.12,-3.48
9651.68,-3.53
9748.20,-3.50
9845.68,-3.44
9944.14,-3.35
10043.58,-3.22
10144.02,-3.08
10245.46,-2.93
10347.91,-2.83
10451.39,-2.79
10555.91,-2.75
10661.46,-2.68
10768.08,-2.64
10875.76,-2.61
10984.52,-2.62
11094.36,-2.60
11205.31,-2.54
11317.36,-2.32
11430.53,-1.98
11544.84,-2.15
11660.29,-2.59
11776.89,-2.48
11894.66,-2.56
12013.60,-2.87
12133.74,-2.89
12255.08,-3.04
12377.63,-3.25
12501.41,-3.42
12626.42,-3.58
12752.68,-3.78
12880.21,-4.00
13009.01,-4.24
13139.10,-4.58
13270.49,-4.93
13403.20,-5.38
13537.23,-5.99
13672.60,-6.74
13809.33,-7.63
13947.42,-8.39
14086.90,-8.93
14227.77,-9.20
14370.04,-9.21
14513.74,-9.15
14658.88,-9.11
14805.47,-9.36
14953.52,-9.92
15103.06,-10.75
15254.09,-11.90
15406.63,-13.21
15560.70,-14.54
15716.30,-15.80
15873.47,-16.81
16032.20,-17.63
16192.52,-18.25
16354.45,-18.78
16517.99,-19.33
16683.17,-19.98
16850.01,-20.82
17018.51,-21.75
17188.69,-22.74
17360.58,-23.79
17534.18,-24.87
17709.53,-25.96
17886.62,-27.08
18065.49,-28.13
18246.14,-29.07
18428.60,-29.84
18612.89,-30.40
18799.02,-30.82
18987.01,-31.05
19176.88,-31.09
19368.65,-30.96
19562.33,-30.65
19757.96,-30.07
19955.54,-29.39
