frequency,raw
20,0.18
21,0.40
22,0.60
23,0.81
24,1.02
25,1.22
26,1.41
27,1.59
28,1.75
29,1.90
30,2.04
31,2.16
32,2.25
33,2.32
34,2.38
35,2.43
36,2.48
37,2.51
38,2.55
39,2.57
40,2.60
41,2.62
42,2.63
43,2.65
44,2.66
45,2.67
46,2.67
47,2.67
48,2.67
49,2.67
50,2.66
51,2.65
52,2.64
53,2.62
54,2.61
55,2.59
56,2.57
57,2.55
58,2.53
59,2.51
60,2.49
61,2.47
62,2.46
63,2.45
64,2.45
65,2.42
66,2.39
67,2.34
68,2.29
69,2.24
70,2.19
71,2.15
72,2.11
73,2.08
74,2.05
75,2.02
76,1.98
77,1.92
78,1.88
79,1.84
80,1.81
81,1.77
82,1.73
83,1.69
84,1.65
85,1.60
86,1.55
87,1.51
88,1.46
89,1.43
90,1.38
91,1.33
92,1.30
93,1.25
94,1.21
95,1.17
96,1.13
97,1.10
98,1.06
99,1.01
100,0.96
101,0.91
102,0.85
104,0.77
105,0.73
106,0.70
107,0.68
108,0.65
109,0.63
110,0.60
111,0.57
112,0.53
113,0.50
114,0.46
115,0.42
117,0.35
118,0.31
119,0.28
120,0.26
121,0.24
123,0.21
124,0.20
125,0.17
126,0.14
128,0.07
129,0.02
130,-0.03
131,-0.06
133,-0.12
134,-0.13
135,-0.14
137,-0.17
138,-0.20
140,-0.27
141,-0.31
142,-0.35
144,-0.41
145,-0.44
147,-0.48
148,-0.49
150,-0.52
151,-0.54
153,-0.60
154,-0.64
156,-0.72
157,-0.75
159,-0.82
160,-0.84
162,-0.89
164,-0.92
165,-0.95
167,-1.00
169,-1.06
170,-1.08
172,-1.15
174,-1.21
175,-1.23
177,-1.29
179,-1.35
181,-1.40
183,-1.44
184,-1.46
186,-1.48
188,-1.50
190,-1.54
192,-1.58
194,-1.63
196,-1.69
198,-1.75
200,-1.81
202,-1.86
204,-1.90
206,-1.94
208,-1.98
210,-2.01
212,-2.05
214,-2.07
216,-2.10
218,-2.13
221,-2.19
223,-2.24
225,-2.29
227,-2.34
229,-2.39
232,-2.47
234,-2.51
236,-2.54
239,-2.59
241,-2.63
244,-2.68
246,-2.71
248,-2.74
251,-2.78
253,-2.81
256,-2.85
259,-2.88
261,-2.91
264,-2.94
266,-2.96
269,-2.99
272,-3.02
274,-3.04
277,-3.07
280,-3.10
283,-3.13
286,-3.16
288,-3.17
291,-3.20
294,-3.23
297,-3.26
300,-3.29
303,-3.32
306,-3.35
309,-3.37
312,-3.40
316,-3.44
319,-3.46
322,-3.49
325,-3.52
328,-3.55
332,-3.58
335,-3.61
338,-3.64
342,-3.67
345,-3.70
349,-3.73
352,-3.75
356,-3.80
359,-3.86
363,-3.94
366,-3.99
370,-4.07
374,-4.13
377,-4.18
381,-4.25
385,-4.31
389,-4.37
393,-4.42
397,-4.48
401,-4.52
405,-4.57
409,-4.61
413,-4.65
417,-4.68
421,-4.71
425,-4.74
430,-4.77
434,-4.80
438,-4.81
443,-4.84
447,-4.85
451,-4.82
456,-4.77
460,-4.72
465,-4.64
470,-4.58
474,-4.54
479,-4.50
484,-4.48
489,-4.47
494,-4.45
499,-4.43
504,-4.40
509,-4.36
514,-4.31
519,-4.26
524,-4.23
529,-4.19
535,-4.14
540,-4.10
545,-4.07
551,-4.04
556,-3.99
562,-3.95
568,-3.91
573,-3.87
579,-3.83
585,-3.78
591,-3.74
596,-3.70
602,-3.66
608,-3.60
615,-3.55
621,-3.51
627,-3.47
633,-3.44
639,-3.40
646,-3.36
652,-3.33
659,-3.30
665,-3.27
672,-3.24
679,-3.21
686,-3.18
692,-3.15
699,-3.11
706,-3.06
713,-3.01
721,-2.94
728,-2.86
735,-2.78
742,-2.69
750,-2.59
757,-2.51
765,-2.43
773,-2.36
780,-2.31
788,-2.24
796,-2.18
804,-2.13
812,-2.07
820,-2.01
828,-1.95
837,-1.85
845,-1.75
853,-1.64
862,-1.50
871,-1.36
879,-1.24
888,-1.12
897,-1.01
906,-0.89
915,-0.79
924,-0.69
933,-0.60
943,-0.50
952,-0.42
962,-0.33
971,-0.24
981,-0.15
991,-0.07
1001,0.01
1011,0.08
1021,0.13
1031,0.18
1041,0.21
1052,0.26
1062,0.30
1073,0.36
1084,0.42
1094,0.48
1105,0.54
1116,0.58
1128,0.62
1139,0.65
1150,0.67
1162,0.69
1173,0.71
1185,0.74
1197,0.76
1209,0.79
1221,0.81
1233,0.82
1246,0.83
1258,0.82
1271,0.82
1283,0.82
1296,0.81
1309,0.81
1322,0.80
1335,0.79
1349,0.79
1362,0.77
1376,0.76
1390,0.75
1404,0.74
1418,0.72
1432,0.71
1446,0.69
1461,0.65
1475,0.62
1490,0.56
1505,0.50
1520,0.43
1535,0.36
1550,0.28
1566,0.20
1582,0.12
1597,0.06
1613,-0.01
1629,-0.06
1646,-0.10
1662,-0.13
1679,-0.16
1696,-0.18
1713,-0.21
1730,-0.23
1747,-0.26
1764,-0.28
1782,-0.30
1800,-0.30
1818,-0.30
1836,-0.31
1854,-0.30
1873,-0.27
1892,-0.23
1911,-0.19
1930,-0.12
1949,-0.06
1969,0.02
1988,0.11
2008,0.21
2028,0.31
2048,0.40
2069,0.49
2090,0.56
2111,0.61
2132,0.68
2153,0.74
2175,0.81
2196,0.89
2218,0.98
2240,1.07
2263,1.19
2285,1.28
2308,1.39
2331,1.51
2355,1.66
2378,1.83
2402,2.07
2426,2.30
2450,2.56
2475,2.82
2500,3.06
2525,3.28
2550,3.46
2575,3.59
2601,3.70
2627,3.76
2653,3.76
2680,3.73
2707,3.66
2734,3.55
2761,3.44
2789,3.30
2817,3.14
2845,2.97
2873,2.76
2902,2.55
2931,2.35
2960,2.16
2990,2.05
3020,1.99
3050,2.00
3080,2.06
3111,2.14
3142,2.22
3174,2.26
3206,2.26
3238,2.22
3270,2.17
3303,2.09
3336,2.00
3369,1.94
3403,1.89
3437,1.88
3471,1.88
3506,1.94
3541,2.04
3576,2.20
3612,2.42
3648,2.70
3685,3.02
3721,3.35
3759,3.69
3796,4.01
3834,4.31
3873,4.54
3911,4.70
3950,4.81
3990,4.81
4030,4.77
4070,4.68
4111,4.53
4152,4.37
4193,4.19
4235,4.00
4278,3.80
4321,3.62
4364,3.48
4407,3.34
4451,3.23
4496,3.13
4541,3.02
4586,2.91
4632,2.79
4679,2.64
4725,2.45
4773,2.22
4820,1.96
4868,1.68
4917,1.40
4966,1.12
5016,0.88
5066,0.66
5117,0.44
5168,0.24
5220,0.04
5272,-0.15
5325,-0.30
5378,-0.40
5432,-0.46
5486,-0.49
5541,-0.49
5596,-0.49
5652,-0.54
5709,-0.62
5766,-0.71
5823,-0.81
5882,-0.87
5940,-0.90
6000,-0.88
6060,-0.68
6120,-0.40
6182,-0.01
6244,0.54
6306,1.09
6369,1.69
6433,2.23
6497,2.63
6562,2.93
6628,3.02
6694,2.91
6761,2.70
6828,2.39
6897,1.96
6966,1.55
7035,1.14
7106,0.75
7177,0.45
7249,0.19
7321,-0.00
7394,-0.13
7468,-0.20
7543,-0.21
7618,-0.18
7694,-0.12
7771,-0.04
7849,0.06
7928,0.20
8007,0.36
8087,0.62
8168,0.93
8250,1.30
8332,1.74
8415,2.15
8499,2.51
8584,2.75
8670,2.77
8757,2.57
8845,2.04
8933,1.42
9022,0.59
9113,-0.60
9204,-1.47
9296,-2.12
9389,-3.14
9483,-3.83
9577,-4.25
9673,-4.51
9770,-4.69
9868,-4.91
9966,-5.14
10066,-5.41
10167,-5.68
10268,-5.91
10371,-6.14
10475,-6.27
10579,-6.25
10685,-6.06
10792,-5.76
10900,-5.44
11009,-5.14
11119,-4.88
11230,-4.67
11343,-4.37
11456,-4.09
11571,-4.50
11686,-5.05
11803,-4.77
11921,-4.77
12040,-4.85
12161,-4.41
12282,-4.27
12405,-4.22
12529,-4.22
12655,-4.55
12781,-5.03
12909,-5.67
13038,-6.37
13168,-7.01
13300,-7.47
13433,-7.69
13567,-7.86
13703,-8.04
13840,-8.36
13978,-8.78
14118,-9.31
14259,-10.02
14402,-10.98
14546,-12.03
14692,-13.16
14838,-14.25
14987,-15.21
15137,-16.03
15288,-16.51
15441,-16.76
15595,-16.84
15751,-16.77
15909,-16.70
16068,-16.67
16229,-16.76
16391,-16.89
16555,-16.98
16720,-16.97
16888,-16.67
17056,-16.20
17227,-15.60
17399,-15.03
17573,-14.68
17749,-14.53
17926,-14.81
18106,-15.35
18287,-16.06
18470,-16.91
18654,-17.78
18841,-18.65
19029,-19.49
19220,-20.36
19412,-21.23
19606,-22.12
19802,-22.98
20000,-23.87
