frequency,raw,error,smoothed,error_smoothed,equalization,parametric_eq,fixed_band_eq,equalized_raw,equalized_smoothed,target
20.00,-19.86,-20.79,-19.86,-20.79,6.00,5.97,2.65,-13.86,-13.86,0.93
20.20,-19.79,-20.72,-19.79,-20.73,6.00,5.97,2.73,-13.79,-13.79,0.93
20.40,-19.73,-20.66,-19.73,-20.66,6.00,5.97,2.80,-13.73,-13.73,0.93
20.61,-19.66,-20.59,-19.66,-20.59,6.00,5.97,2.88,-13.66,-13.66,0.93
20.81,-19.59,-20.52,-19.59,-20.52,6.00,5.97,2.97,-13.59,-13.59,0.93
21.02,-19.52,-20.45,-19.52,-20.45,6.00,5.97,3.05,-13.52,-13.52,0.93
21.23,-19.45,-20.36,-19.45,-20.37,6.00,5.97,3.14,-13.45,-13.45,0.91
21.44,-19.38,-20.28,-19.38,-20.28,6.00,5.97,3.23,-13.38,-13.38,0.90
21.66,-19.32,-20.20,-19.32,-20.20,6.00,5.97,3.32,-13.32,-13.32,0.88
21.87,-19.25,-20.11,-19.25,-20.11,6.00,5.97,3.41,-13.25,-13.25,0.86
22.09,-19.18,-20.03,-19.18,-20.03,6.00,5.97,3.51,-13.18,-13.18,0.85
22.31,-19.12,-19.94,-19.12,-19.94,6.00,5.97,3.61,-13.12,-13.12,0.82
22.54,-19.06,-19.86,-19.06,-19.86,6.00,5.97,3.71,-13.06,-13.06,0.80
22.76,-18.99,-19.77,-19.00,-19.77,6.00,5.98,3.82,-12.99,-13.00,0.78
22.99,-18.94,-19.69,-18.94,-19.68,6.00,5.98,3.92,-12.94,-12.94,0.75
23.22,-18.88,-19.60,-18.88,-19.60,6.00,5.98,4.03,-12.88,-12.88,0.72
23.45,-18.82,-19.51,-18.82,-19.52,6.00,5.98,4.14,-12.82,-12.82,0.69
23.69,-18.76,-19.45,-18.76,-19.44,6.00,5.98,4.26,-12.76,-12.76,0.68
23.92,-18.69,-19.35,-18.69,-19.36,6.00,5.98,4.37,-12.69,-12.69,0.66
24.16,-18.63,-19.28,-18.63,-19.28,6.00,5.98,4.49,-12.63,-12.63,0.65
24.40,-18.57,-19.20,-18.57,-19.20,6.00,5.98,4.61,-12.57,-12.57,0.63
24.65,-18.50,-19.11,-18.50,-19.11,6.00,5.98,4.74,-12.50,-12.50,0.61
24.89,-18.43,-19.02,-18.43,-19.02,6.00,5.98,4.86,-12.43,-12.43,0.59
25.14,-18.36,-18.94,-18.36,-18.94,6.00,5.98,4.99,-12.36,-12.36,0.58
25.39,-18.29,-18.85,-18.29,-18.85,6.00,5.98,5.12,-12.29,-12.29,0.56
25.65,-18.22,-18.77,-18.22,-18.76,6.00,5.98,5.24,-12.22,-12.22,0.55
25.91,-18.14,-18.66,-18.14,-18.67,6.00,5.99,5.37,-12.14,-12.14,0.52
26.16,-18.07,-18.57,-18.07,-18.58,6.00,5.99,5.50,-12.07,-12.07,0.50
26.43,-18.00,-18.49,-18.00,-18.49,6.00,5.99,5.63,-12.00,-12.00,0.49
26.69,-17.93,-18.40,-17.93,-18.41,6.00,5.99,5.76,-11.93,-11.93,0.47
26.96,-17.86,-18.32,-17.86,-18.32,6.00,5.99,5.88,-11.86,-11.86,0.46
27.23,-17.79,-18.24,-17.79,-18.24,6.00,5.99,6.01,-11.79,-11.79,0.45
27.50,-17.72,-18.16,-17.72,-18.16,6.00,5.99,6.13,-11.72,-11.72,0.44
27.77,-17.65,-18.07,-17.65,-18.07,6.00,5.99,6.25,-11.65,-11.65,0.42
28.05,-17.58,-17.98,-17.58,-17.98,6.00,5.99,6.36,-11.58,-11.58,0.41
28.33,-17.52,-17.90,-17.51,-17.90,6.00,5.99,6.47,-11.52,-11.51,0.38
28.62,-17.44,-17.81,-17.44,-17.82,6.00,5.99,6.58,-11.44,-11.44,0.37
28.90,-17.37,-17.73,-17.37,-17.73,6.00,5.99,6.67,-11.37,-11.37,0.36
29.19,-17.30,-17.64,-17.30,-17.64,6.00,6.00,6.77,-11.30,-11.30,0.34
29.48,-17.22,-17.56,-17.22,-17.56,6.00,6.00,6.85,-11.22,-11.22,0.34
29.78,-17.14,-17.47,-17.14,-17.47,6.00,6.00,6.93,-11.14,-11.14,0.33
30.08,-17.06,-17.38,-17.06,-17.37,6.00,6.00,6.99,-11.06,-11.06,0.31
30.38,-16.98,-17.27,-16.98,-17.27,6.00,6.00,7.05,-10.98,-10.98,0.29
30.68,-16.89,-17.17,-16.89,-17.17,6.00,6.00,7.10,-10.89,-10.89,0.28
30.99,-16.80,-17.06,-16.81,-17.07,6.00,6.00,7.14,-10.80,-10.81,0.26
31.30,-16.73,-16.98,-16.72,-16.97,6.00,6.00,7.17,-10.73,-10.72,0.25
31.61,-16.64,-16.87,-16.65,-16.87,6.00,6.00,7.19,-10.64,-10.65,0.23
31.93,-16.57,-16.78,-16.57,-16.78,6.00,6.00,7.20,-10.57,-10.57,0.21
32.24,-16.49,-16.67,-16.49,-16.68,6.00,6.00,7.21,-10.49,-10.49,0.18
32.57,-16.41,-16.58,-16.41,-16.58,6.00,6.00,7.20,-10.41,-10.41,0.17
32.89,-16.33,-16.48,-16.33,-16.47,6.00,6.00,7.18,-10.33,-10.33,0.15
33.22,-16.25,-16.37,-16.25,-16.38,6.00,6.01,7.16,-10.25,-10.25,0.12
33.55,-16.17,-16.28,-16.17,-16.28,6.00,6.01,7.13,-10.17,-10.17,0.11
33.89,-16.10,-16.19,-16.09,-16.18,6.00,6.01,7.09,-10.10,-10.09,0.08
34.23,-16.01,-16.07,-16.01,-16.08,6.00,6.01,7.05,-10.01,-10.01,0.06
34.57,-15.93,-15.97,-15.93,-15.97,6.00,6.01,7.00,-9.93,-9.93,0.04
34.92,-15.85,-15.87,-15.85,-15.87,6.00,6.01,6.94,-9.85,-9.85,0.02
35.27,-15.76,-15.76,-15.77,-15.76,6.00,6.01,6.89,-9.76,-9.77,0.00
35.62,-15.68,-15.66,-15.68,-15.66,6.00,6.01,6.83,-9.68,-9.68,-0.02
35.97,-15.60,-15.55,-15.60,-15.56,6.00,6.01,6.76,-9.60,-9.60,-0.05
36.33,-15.51,-15.45,-15.52,-15.45,6.00,6.01,6.70,-9.51,-9.52,-0.06
36.70,-15.44,-15.36,-15.43,-15.35,6.00,6.01,6.63,-9.44,-9.43,-0.08
37.06,-15.35,-15.24,-15.35,-15.25,6.00,6.01,6.57,-9.35,-9.35,-0.11
37.43,-15.27,-15.15,-15.27,-15.14,6.00,6.01,6.50,-9.27,-9.27,-0.12
37.81,-15.19,-15.05,-15.19,-15.04,6.00,6.01,6.44,-9.19,-9.19,-0.15
38.19,-15.10,-14.93,-15.11,-14.94,6.00,6.01,6.37,-9.10,-9.11,-0.17
38.57,-15.03,-14.85,-15.02,-14.84,6.00,6.01,6.31,-9.03,-9.02,-0.18
38.95,-14.94,-14.73,-14.94,-14.73,6.00,6.02,6.25,-8.94,-8.94,-0.21
39.34,-14.86,-14.62,-14.86,-14.63,6.00,6.02,6.20,-8.86,-8.86,-0.23
39.74,-14.78,-14.52,-14.78,-14.53,6.00,6.02,6.14,-8.78,-8.78,-0.26
40.14,-14.70,-14.44,-14.70,-14.43,6.00,6.02,6.09,-8.70,-8.70,-0.27
40.54,-14.63,-14.34,-14.62,-14.33,6.00,6.02,6.04,-8.63,-8.62,-0.29
40.94,-14.54,-14.23,-14.55,-14.24,6.00,6.02,6.00,-8.54,-8.55,-0.31
41.35,-14.48,-14.15,-14.47,-14.15,6.00,6.02,5.96,-8.48,-8.47,-0.33
41.76,-14.40,-14.06,-14.40,-14.06,6.00,6.02,5.92,-8.40,-8.40,-0.34
42.18,-14.33,-13.97,-14.33,-13.97,6.00,6.02,5.89,-8.33,-8.33,-0.36
42.60,-14.26,-13.88,-14.26,-13.89,6.00,6.02,5.86,-8.26,-8.26,-0.38
43.03,-14.19,-13.80,-14.19,-13.79,6.00,6.02,5.84,-8.19,-8.19,-0.39
43.46,-14.12,-13.70,-14.12,-13.70,6.00,6.02,5.82,-8.12,-8.12,-0.42
43.90,-14.04,-13.60,-14.04,-13.61,6.00,6.02,5.81,-8.04,-8.04,-0.44
44.33,-13.97,-13.51,-13.97,-13.51,6.00,6.02,5.79,-7.97,-7.97,-0.46
44.78,-13.90,-13.42,-13.90,-13.41,6.00,6.02,5.79,-7.90,-7.90,-0.48
45.23,-13.82,-13.31,-13.82,-13.32,6.00,6.02,5.79,-7.82,-7.82,-0.51
45.68,-13.75,-13.22,-13.75,-13.22,6.00,6.02,5.79,-7.75,-7.75,-0.53
46.13,-13.67,-13.12,-13.67,-13.13,6.00,6.02,5.80,-7.67,-7.67,-0.55
46.60,-13.59,-13.04,-13.59,-13.03,6.00,6.02,5.81,-7.59,-7.59,-0.55
47.06,-13.52,-12.95,-13.52,-12.94,6.00,6.02,5.82,-7.52,-7.52,-0.57
47.53,-13.44,-12.85,-13.44,-12.85,6.00,6.02,5.84,-7.44,-7.44,-0.59
48.01,-13.37,-12.77,-13.37,-12.76,6.00,6.02,5.86,-7.37,-7.37,-0.60
48.49,-13.30,-12.67,-13.30,-12.66,6.00,6.01,5.89,-7.30,-7.30,-0.64
48.97,-13.23,-12.56,-13.23,-12.56,6.00,6.01,5.92,-7.23,-7.23,-0.67
49.46,-13.16,-12.46,-13.16,-12.46,6.00,6.01,5.95,-7.16,-7.16,-0.70
49.96,-13.10,-12.37,-13.09,-12.38,6.00,6.01,5.99,-7.10,-7.09,-0.73
50.46,-13.02,-12.29,-13.03,-12.29,6.00,6.01,6.03,-7.02,-7.03,-0.73
50.96,-12.96,-12.21,-12.96,-12.20,6.00,6.01,6.07,-6.96,-6.96,-0.75
51.47,-12.89,-12.10,-12.89,-12.11,6.00,6.01,6.12,-6.89,-6.89,-0.79
51.99,-12.83,-12.02,-12.83,-12.02,6.00,6.01,6.16,-6.83,-6.83,-0.81
52.51,-12.76,-11.94,-12.76,-11.93,6.00,6.01,6.21,-6.76,-6.76,-0.82
53.03,-12.69,-11.84,-12.69,-11.84,6.00,6.01,6.26,-6.69,-6.69,-0.85
53.56,-12.62,-11.75,-12.62,-11.75,6.00,6.01,6.31,-6.62,-6.62,-0.87
54.10,-12.55,-11.65,-12.55,-11.65,6.00,6.00,6.36,-6.55,-6.55,-0.90
54.64,-12.49,-11.56,-12.49,-11.56,6.00,6.00,6.41,-6.49,-6.49,-0.93
55.18,-12.42,-11.47,-12.42,-11.47,6.00,6.00,6.45,-6.42,-6.42,-0.95
55.74,-12.35,-11.37,-12.35,-11.38,6.00,6.00,6.50,-6.35,-6.35,-0.98
56.29,-12.29,-11.29,-12.29,-11.29,6.00,6.00,6.54,-6.29,-6.29,-1.00
56.86,-12.22,-11.20,-12.22,-11.19,6.00,6.00,6.58,-6.22,-6.22,-1.02
57.42,-12.15,-11.10,-12.15,-11.10,6.00,6.00,6.62,-6.15,-6.15,-1.05
58.00,-12.09,-11.02,-12.09,-11.01,6.00,6.00,6.66,-6.09,-6.09,-1.07
58.58,-12.03,-10.93,-12.03,-10.93,6.00,5.99,6.69,-6.03,-6.03,-1.10
59.16,-11.96,-10.84,-11.96,-10.84,6.00,5.99,6.71,-5.96,-5.96,-1.12
59.76,-11.90,-10.76,-11.90,-10.75,6.00,5.99,6.73,-5.90,-5.90,-1.14
60.35,-11.83,-10.65,-11.83,-10.66,6.00,5.99,6.74,-5.83,-5.83,-1.18
60.96,-11.77,-10.58,-11.77,-10.57,6.00,5.99,6.75,-5.77,-5.77,-1.19
61.57,-11.70,-10.47,-11.70,-10.47,6.00,5.99,6.75,-5.70,-5.70,-1.23
62.18,-11.63,-10.36,-11.63,-10.37,6.00,5.99,6.75,-5.63,-5.63,-1.27
62.80,-11.57,-10.28,-11.57,-10.27,6.00,5.99,6.74,-5.57,-5.57,-1.29
63.43,-11.50,-10.18,-11.50,-10.18,6.00,5.99,6.72,-5.50,-5.50,-1.32
64.07,-11.44,-10.09,-11.44,-10.09,6.00,5.98,6.69,-5.44,-5.44,-1.35
64.71,-11.37,-10.00,-11.37,-10.00,6.00,5.98,6.66,-5.37,-5.37,-1.37
65.35,-11.31,-9.91,-11.31,-9.92,6.00,5.98,6.62,-5.31,-5.31,-1.39
66.01,-11.25,-9.84,-11.24,-9.83,6.00,5.98,6.58,-5.25,-5.24,-1.41
66.67,-11.18,-9.74,-11.18,-9.74,6.00,5.98,6.53,-5.18,-5.18,-1.44
67.33,-11.11,-9.65,-11.12,-9.65,6.00,5.98,6.48,-5.11,-5.12,-1.46
68.01,-11.06,-9.57,-11.05,-9.56,6.00,5.98,6.42,-5.06,-5.05,-1.49
68.69,-10.99,-9.48,-10.99,-9.48,6.00,5.98,6.36,-4.99,-4.99,-1.51
69.37,-10.93,-9.38,-10.93,-9.39,6.00,5.98,6.29,-4.93,-4.93,-1.55
70.07,-10.86,-9.29,-10.86,-9.29,6.00,5.98,6.22,-4.86,-4.86,-1.57
70.77,-10.80,-9.21,-10.80,-9.20,6.00,5.98,6.15,-4.80,-4.80,-1.59
71.48,-10.73,-9.10,-10.74,-9.11,6.00,5.98,6.08,-4.73,-4.74,-1.63
72.19,-10.68,-9.03,-10.67,-9.02,6.00,5.99,6.00,-4.68,-4.67,-1.65
72.91,-10.61,-8.92,-10.61,-8.93,6.00,5.99,5.93,-4.61,-4.61,-1.69
73.64,-10.55,-8.83,-10.55,-8.83,6.00,5.99,5.85,-4.55,-4.55,-1.72
74.38,-10.49,-8.74,-10.49,-8.73,6.00,5.99,5.78,-4.49,-4.49,-1.75
75.12,-10.42,-8.62,-10.43,-8.63,6.00,5.99,5.70,-4.42,-4.43,-1.80
75.87,-10.37,-8.54,-10.37,-8.54,6.00,5.99,5.63,-4.37,-4.37,-1.83
76.63,-10.31,-8.45,-10.31,-8.44,6.00,6.00,5.56,-4.31,-4.31,-1.86
77.40,-10.25,-8.35,-10.25,-8.35,6.00,6.00,5.49,-4.25,-4.25,-1.90
78.17,-10.20,-8.25,-10.20,-8.25,6.00,6.00,5.42,-4.20,-4.20,-1.95
78.95,-10.14,-8.16,-10.14,-8.16,6.00,6.00,5.35,-4.14,-4.14,-1.98
79.74,-10.08,-8.06,-10.08,-8.06,6.00,6.00,5.29,-4.08,-4.08,-2.02
80.54,-10.03,-7.97,-10.03,-7.96,6.00,6.01,5.23,-4.03,-4.03,-2.06
81.35,-9.97,-7.86,-9.97,-7.86,6.00,6.01,5.17,-3.97,-3.97,-2.11
82.16,-9.91,-7.76,-9.91,-7.76,6.00,6.01,5.12,-3.91,-3.91,-2.15
82.98,-9.86,-7.67,-9.86,-7.66,6.00,6.01,5.07,-3.86,-3.86,-2.19
83.81,-9.81,-7.56,-9.81,-7.57,6.00,6.01,5.02,-3.81,-3.81,-2.25
84.65,-9.77,-7.48,-9.76,-7.47,6.00,6.01,4.97,-3.77,-3.76,-2.29
85.50,-9.71,-7.38,-9.71,-7.38,6.00,6.01,4.93,-3.71,-3.71,-2.33
86.35,-9.66,-7.28,-9.67,-7.28,6.00,6.00,4.90,-3.66,-3.67,-2.38
87.22,-9.62,-7.19,-9.62,-7.18,6.00,6.00,4.86,-3.62,-3.62,-2.43
88.09,-9.57,-7.09,-9.57,-7.09,6.00,6.00,4.83,-3.57,-3.57,-2.48
88.97,-9.52,-7.00,-9.52,-7.00,6.00,5.99,4.81,-3.52,-3.52,-2.52
89.86,-9.48,-6.91,-9.48,-6.90,6.00,5.98,4.78,-3.48,-3.48,-2.58
90.76,-9.43,-6.79,-9.43,-6.80,6.00,5.97,4.77,-3.43,-3.43,-2.64
91.66,-9.39,-6.71,-9.39,-6.71,6.00,5.95,4.75,-3.39,-3.39,-2.68
92.58,-9.35,-6.61,-9.35,-6.61,6.00,5.94,4.74,-3.35,-3.34,-2.74
93.51,-9.31,-6.53,-9.31,-6.53,6.01,5.92,4.73,-3.30,-3.29,-2.78
94.44,-9.26,-6.43,-9.26,-6.43,6.02,5.90,4.73,-3.24,-3.25,-2.83
95.39,-9.22,-6.34,-9.22,-6.33,6.02,5.87,4.72,-3.20,-3.20,-2.89
96.34,-9.18,-6.23,-9.18,-6.23,6.01,5.84,4.73,-3.17,-3.17,-2.95
97.30,-9.14,-6.14,-9.14,-6.14,5.98,5.81,4.73,-3.16,-3.16,-3.00
98.28,-9.10,-6.04,-9.10,-6.04,5.95,5.77,4.74,-3.15,-3.15,-3.06
99.26,-9.06,-5.93,-9.06,-5.94,5.90,5.73,4.74,-3.16,-3.16,-3.13
100.25,-9.02,-5.84,-9.02,-5.84,5.83,5.69,4.76,-3.19,-3.19,-3.18
101.25,-8.98,-5.74,-8.98,-5.74,5.75,5.64,4.77,-3.23,-3.23,-3.24
102.27,-8.94,-5.64,-8.94,-5.64,5.66,5.58,4.79,-3.28,-3.28,-3.30
103.29,-8.90,-5.53,-8.90,-5.53,5.55,5.53,4.80,-3.35,-3.35,-3.37
104.32,-8.86,-5.43,-8.86,-5.43,5.45,5.46,4.82,-3.41,-3.41,-3.43
105.37,-8.82,-5.34,-8.82,-5.34,5.34,5.40,4.84,-3.48,-3.49,-3.48
106.42,-8.79,-5.24,-8.79,-5.24,5.23,5.33,4.86,-3.56,-3.55,-3.55
107.48,-8.75,-5.13,-8.75,-5.13,5.13,5.25,4.87,-3.62,-3.62,-3.62
108.56,-8.71,-5.03,-8.71,-5.03,5.03,5.18,4.89,-3.68,-3.68,-3.68
109.64,-8.67,-4.92,-8.67,-4.93,4.93,5.10,4.91,-3.74,-3.74,-3.75
110.74,-8.63,-4.83,-8.63,-4.82,4.83,5.01,4.92,-3.80,-3.81,-3.80
111.85,-8.60,-4.73,-8.60,-4.72,4.72,4.93,4.94,-3.88,-3.88,-3.87
112.97,-8.57,-4.62,-8.57,-4.63,4.62,4.84,4.95,-3.95,-3.95,-3.95
114.10,-8.54,-4.53,-8.54,-4.52,4.52,4.74,4.96,-4.02,-4.02,-4.01
115.24,-8.50,-4.43,-8.50,-4.42,4.42,4.65,4.96,-4.08,-4.08,-4.07
116.39,-8.47,-4.32,-8.47,-4.32,4.33,4.56,4.96,-4.14,-4.14,-4.15
117.55,-8.44,-4.23,-8.44,-4.23,4.23,4.46,4.95,-4.21,-4.21,-4.21
118.73,-8.41,-4.13,-8.41,-4.14,4.14,4.36,4.94,-4.27,-4.27,-4.28
119.92,-8.39,-4.06,-8.39,-4.05,4.05,4.26,4.93,-4.34,-4.33,-4.33
121.12,-8.36,-3.97,-8.36,-3.97,3.97,4.16,4.91,-4.39,-4.39,-4.39
122.33,-8.33,-3.87,-8.33,-3.88,3.88,4.07,4.88,-4.45,-4.45,-4.46
123.55,-8.31,-3.80,-8.31,-3.80,3.80,3.97,4.85,-4.51,-4.51,-4.51
124.79,-8.29,-3.72,-8.29,-3.72,3.72,3.87,4.81,-4.57,-4.57,-4.57
126.03,-8.27,-3.65,-8.27,-3.64,3.64,3.77,4.76,-4.63,-4.63,-4.62
127.29,-8.24,-3.56,-8.24,-3.56,3.56,3.67,4.71,-4.68,-4.69,-4.68
128.57,-8.22,-3.47,-8.22,-3.48,3.48,3.57,4.65,-4.74,-4.74,-4.75
129.85,-8.20,-3.40,-8.20,-3.40,3.41,3.48,4.58,-4.79,-4.79,-4.80
131.15,-8.18,-3.33,-8.18,-3.33,3.34,3.38,4.52,-4.84,-4.84,-4.85
132.46,-8.16,-3.26,-8.16,-3.27,3.27,3.29,4.44,-4.89,-4.89,-4.90
133.79,-8.15,-3.21,-8.15,-3.20,3.20,3.19,4.36,-4.95,-4.94,-4.94
135.12,-8.13,-3.14,-8.13,-3.15,3.14,3.10,4.27,-4.99,-4.99,-4.99
136.48,-8.12,-3.09,-8.12,-3.09,3.09,3.01,4.17,-5.03,-5.03,-5.03
137.84,-8.11,-3.05,-8.11,-3.03,3.03,2.93,4.07,-5.08,-5.07,-5.06
139.22,-8.09,-2.97,-8.09,-2.98,2.98,2.84,3.97,-5.11,-5.11,-5.12
140.61,-8.08,-2.92,-8.08,-2.93,2.93,2.75,3.87,-5.15,-5.15,-5.16
142.02,-8.06,-2.89,-8.06,-2.88,2.88,2.67,3.76,-5.18,-5.18,-5.17
143.44,-8.04,-2.84,-8.04,-2.83,2.83,2.59,3.65,-5.21,-5.21,-5.20
144.87,-8.03,-2.79,-8.02,-2.78,2.78,2.51,3.53,-5.25,-5.24,-5.24
146.32,-8.00,-2.73,-8.00,-2.73,2.73,2.43,3.42,-5.27,-5.27,-5.27
147.78,-7.98,-2.69,-7.98,-2.68,2.68,2.35,3.30,-5.30,-5.30,-5.29
149.26,-7.96,-2.64,-7.96,-2.63,2.64,2.28,3.18,-5.32,-5.32,-5.32
150.75,-7.94,-2.58,-7.94,-2.58,2.59,2.20,3.06,-5.36,-5.35,-5.36
152.26,-7.91,-2.53,-7.91,-2.53,2.53,2.13,2.94,-5.38,-5.38,-5.38
153.78,-7.89,-2.48,-7.89,-2.48,2.48,2.06,2.81,-5.41,-5.41,-5.41
155.32,-7.86,-2.43,-7.86,-2.43,2.42,1.99,2.69,-5.44,-5.44,-5.43
156.88,-7.83,-2.37,-7.83,-2.37,2.36,1.93,2.57,-5.47,-5.47,-5.46
158.44,-7.80,-2.31,-7.80,-2.31,2.30,1.86,2.44,-5.50,-5.49,-5.49
160.03,-7.76,-2.24,-7.76,-2.24,2.24,1.80,2.32,-5.52,-5.52,-5.52
161.63,-7.73,-2.18,-7.73,-2.17,2.18,1.73,2.20,-5.55,-5.55,-5.56
163.24,-7.68,-2.10,-7.68,-2.11,2.11,1.67,2.08,-5.57,-5.57,-5.58
164.88,-7.64,-2.04,-7.64,-2.04,2.04,1.61,1.95,-5.60,-5.60,-5.60
166.53,-7.59,-1.97,-7.59,-1.97,1.97,1.55,1.83,-5.62,-5.63,-5.62
168.19,-7.55,-1.89,-7.55,-1.89,1.89,1.50,1.71,-5.66,-5.66,-5.66
169.87,-7.51,-1.82,-7.51,-1.82,1.82,1.44,1.59,-5.69,-5.69,-5.69
171.57,-7.46,-1.74,-7.46,-1.75,1.74,1.39,1.47,-5.72,-5.72,-5.72
173.29,-7.42,-1.68,-7.41,-1.67,1.66,1.33,1.35,-5.76,-5.75,-5.74
175.02,-7.36,-1.58,-7.36,-1.58,1.58,1.28,1.24,-5.78,-5.79,-5.78
176.77,-7.31,-1.49,-7.31,-1.49,1.49,1.23,1.12,-5.82,-5.82,-5.82
178.54,-7.26,-1.40,-7.26,-1.40,1.41,1.18,1.00,-5.85,-5.85,-5.86
180.32,-7.21,-1.32,-7.21,-1.32,1.32,1.13,0.89,-5.89,-5.89,-5.89
182.13,-7.16,-1.24,-7.16,-1.23,1.23,1.08,0.77,-5.93,-5.93,-5.92
183.95,-7.11,-1.14,-7.11,-1.14,1.14,1.03,0.66,-5.97,-5.96,-5.97
185.79,-7.05,-1.05,-7.05,-1.05,1.06,0.98,0.55,-5.99,-6.00,-6.00
187.65,-7.00,-0.96,-7.00,-0.97,0.97,0.93,0.43,-6.03,-6.03,-6.04
189.52,-6.96,-0.89,-6.95,-0.89,0.89,0.89,0.32,-6.07,-6.06,-6.07
191.42,-6.90,-0.80,-6.90,-0.80,0.80,0.84,0.21,-6.10,-6.10,-6.10
193.33,-6.84,-0.72,-6.84,-0.73,0.72,0.79,0.10,-6.12,-6.12,-6.12
195.27,-6.79,-0.65,-6.79,-0.64,0.64,0.75,-0.01,-6.15,-6.15,-6.14
197.22,-6.74,-0.57,-6.74,-0.56,0.56,0.70,-0.11,-6.18,-6.18,-6.17
199.19,-6.69,-0.47,-6.69,-0.48,0.48,0.66,-0.22,-6.21,-6.21,-6.22
201.18,-6.63,-0.39,-6.63,-0.40,0.40,0.61,-0.33,-6.23,-6.23,-6.24
203.19,-6.58,-0.33,-6.58,-0.32,0.33,0.57,-0.43,-6.25,-6.25,-6.25
205.23,-6.53,-0.25,-6.53,-0.26,0.25,0.52,-0.53,-6.28,-6.28,-6.28
207.28,-6.47,-0.19,-6.47,-0.18,0.18,0.48,-0.63,-6.29,-6.30,-6.28
209.35,-6.42,-0.10,-6.42,-0.10,0.10,0.43,-0.73,-6.32,-6.31,-6.32
211.44,-6.36,-0.02,-6.36,-0.03,0.03,0.38,-0.83,-6.33,-6.33,-6.34
213.56,-6.31,0.05,-6.31,0.04,-0.04,0.34,-0.92,-6.35,-6.35,-6.36
215.69,-6.26,0.10,-6.26,0.11,-0.11,0.29,-1.01,-6.37,-6.37,-6.36
217.85,-6.20,0.17,-6.20,0.18,-0.18,0.24,-1.10,-6.38,-6.38,-6.37
220.03,-6.14,0.25,-6.14,0.25,-0.25,0.19,-1.18,-6.39,-6.39,-6.39
222.23,-6.08,0.33,-6.08,0.32,-0.31,0.14,-1.26,-6.39,-6.39,-6.41
224.45,-6.03,0.37,-6.03,0.38,-0.37,0.09,-1.34,-6.40,-6.40,-6.40
226.70,-5.97,0.44,-5.97,0.44,-0.44,0.04,-1.41,-6.41,-6.40,-6.41
228.96,-5.91,0.50,-5.91,0.49,-0.50,-0.01,-1.48,-6.41,-6.41,-6.41
231.25,-5.85,0.55,-5.85,0.55,-0.55,-0.07,-1.55,-6.40,-6.40,-6.40
233.57,-5.79,0.60,-5.79,0.61,-0.61,-0.12,-1.61,-6.40,-6.40,-6.39
235.90,-5.73,0.66,-5.73,0.66,-0.66,-0.18,-1.66,-6.39,-6.39,-6.39
238.26,-5.66,0.73,-5.66,0.72,-0.72,-0.24,-1.71,-6.38,-6.38,-6.39
240.64,-5.60,0.77,-5.60,0.77,-0.77,-0.30,-1.75,-6.37,-6.37,-6.37
243.05,-5.53,0.83,-5.54,0.82,-0.82,-0.37,-1.78,-6.35,-6.36,-6.36
245.48,-5.48,0.85,-5.47,0.87,-0.87,-0.43,-1.81,-6.35,-6.34,-6.33
247.93,-5.41,0.91,-5.41,0.92,-0.92,-0.50,-1.84,-6.33,-6.32,-6.32
250.41,-5.33,0.98,-5.34,0.96,-0.96,-0.57,-1.85,-6.29,-6.30,-6.31
252.92,-5.27,1.01,-5.27,1.01,-1.01,-0.65,-1.87,-6.28,-6.28,-6.28
255.45,-5.21,1.05,-5.20,1.06,-1.06,-0.72,-1.87,-6.27,-6.26,-6.26
258.00,-5.13,1.10,-5.13,1.10,-1.11,-0.80,-1.87,-6.24,-6.24,-6.23
260.58,-5.06,1.16,-5.06,1.15,-1.15,-0.89,-1.86,-6.21,-6.22,-6.22
263.19,-4.99,1.21,-4.99,1.21,-1.20,-0.97,-1.85,-6.19,-6.19,-6.20
265.82,-4.92,1.25,-4.92,1.25,-1.25,-1.06,-1.83,-6.17,-6.17,-6.17
268.48,-4.85,1.30,-4.85,1.30,-1.30,-1.15,-1.80,-6.15,-6.14,-6.15
271.16,-4.77,1.34,-4.78,1.34,-1.34,-1.24,-1.77,-6.11,-6.12,-6.11
273.87,-4.71,1.39,-4.71,1.39,-1.39,-1.33,-1.74,-6.10,-6.10,-6.10
276.61,-4.64,1.43,-4.63,1.44,-1.44,-1.42,-1.70,-6.08,-6.07,-6.07
279.38,-4.56,1.49,-4.56,1.48,-1.48,-1.52,-1.66,-6.04,-6.05,-6.05
282.17,-4.49,1.54,-4.49,1.53,-1.53,-1.61,-1.61,-6.02,-6.02,-6.03
284.99,-4.43,1.57,-4.42,1.58,-1.57,-1.70,-1.56,-6.00,-6.00,-6.00
287.84,-4.36,1.62,-4.36,1.62,-1.62,-1.79,-1.50,-5.98,-5.98,-5.98
290.72,-4.28,1.66,-4.29,1.66,-1.66,-1.88,-1.45,-5.94,-5.95,-5.94
293.63,-4.22,1.70,-4.22,1.70,-1.70,-1.96,-1.39,-5.92,-5.92,-5.92
296.57,-4.15,1.74,-4.15,1.74,-1.74,-2.04,-1.33,-5.89,-5.89,-5.89
299.53,-4.08,1.78,-4.08,1.78,-1.77,-2.10,-1.26,-5.85,-5.86,-5.86
302.53,-4.02,1.82,-4.02,1.81,-1.81,-2.16,-1.20,-5.83,-5.83,-5.84
305.55,-3.96,1.83,-3.96,1.84,-1.84,-2.21,-1.13,-5.80,-5.80,-5.79
308.61,-3.89,1.87,-3.89,1.87,-1.87,-2.25,-1.06,-5.76,-5.76,-5.76
311.69,-3.83,1.90,-3.83,1.90,-1.90,-2.27,-1.00,-5.73,-5.73,-5.73
314.81,-3.76,1.93,-3.76,1.93,-1.93,-2.27,-0.93,-5.69,-5.70,-5.69
317.96,-3.71,1.95,-3.70,1.96,-1.96,-2.26,-0.86,-5.67,-5.66,-5.66
321.14,-3.64,2.00,-3.64,1.99,-1.99,-2.24,-0.78,-5.63,-5.63,-5.64
324.35,-3.59,2.02,-3.59,2.02,-2.01,-2.20,-0.71,-5.60,-5.60,-5.61
327.59,-3.53,2.04,-3.53,2.04,-2.04,-2.15,-0.64,-5.57,-5.58,-5.57
330.87,-3.48,2.07,-3.48,2.07,-2.08,-2.08,-0.57,-5.56,-5.56,-5.55
334.18,-3.43,2.10,-3.43,2.10,-2.12,-2.00,-0.50,-5.55,-5.55,-5.53
337.52,-3.37,2.13,-3.37,2.13,-2.17,-1.91,-0.43,-5.54,-5.54,-5.50
340.90,-3.32,2.15,-3.32,2.16,-2.20,-1.81,-0.35,-5.52,-5.52,-5.47
344.30,-3.27,2.19,-3.26,2.19,-2.21,-1.70,-0.28,-5.48,-5.48,-5.46
347.75,-3.22,2.21,-3.20,2.23,-2.20,-1.58,-0.21,-5.42,-5.39,-5.43
351.23,-3.17,2.24,-3.18,2.24,-2.15,-1.46,-0.14,-5.32,-5.32,-5.41
354.74,-3.17,2.22,-3.23,2.16,-2.06,-1.33,-0.07,-5.23,-5.29,-5.39
358.28,-3.39,1.98,-3.37,2.00,-1.94,-1.20,0.01,-5.33,-5.31,-5.38
361.87,-3.59,1.77,-3.57,1.78,-1.78,-1.07,0.08,-5.37,-5.35,-5.36
365.49,-3.79,1.54,-3.79,1.54,-1.60,-0.94,0.15,-5.39,-5.39,-5.33
369.14,-3.99,1.33,-3.98,1.33,-1.39,-0.81,0.22,-5.38,-5.37,-5.32
372.83,-4.17,1.13,-4.17,1.13,-1.17,-0.68,0.29,-5.34,-5.34,-5.30
376.56,-4.35,0.93,-4.35,0.93,-0.95,-0.55,0.36,-5.30,-5.30,-5.28
380.33,-4.53,0.73,-4.53,0.73,-0.73,-0.42,0.43,-5.26,-5.26,-5.26
384.13,-4.70,0.54,-4.70,0.54,-0.53,-0.30,0.50,-5.23,-5.24,-5.24
387.97,-4.88,0.34,-4.88,0.34,-0.34,-0.18,0.57,-5.22,-5.21,-5.22
391.85,-5.05,0.15,-5.05,0.15,-0.14,-0.06,0.64,-5.19,-5.19,-5.20
395.77,-5.22,-0.05,-5.22,-0.05,0.05,0.05,0.71,-5.17,-5.17,-5.17
399.73,-5.39,-0.24,-5.39,-0.24,0.24,0.16,0.78,-5.15,-5.15,-5.15
403.72,-5.56,-0.42,-5.56,-0.43,0.43,0.27,0.85,-5.13,-5.13,-5.14
