frequency,raw,error,smoothed,error_smoothed,equalization,equalized_raw,equalized_smoothed,target
20,-10.232144132303343,-10.248623294697532,-10.249644404867754,-10.266109191392237,5.999999999999999,-4.232144132303344,-4.249644404867754,0.016479162394188673
21,-9.897961932614649,-9.915608019083948,-9.815087763032912,-9.832735480649147,6.0,-3.897961932614649,-3.8150877630329116,0.017646086469297995
22,-9.38600713648936,-9.40476970748193,-9.392767752237189,-9.411541380237615,5.999999999999999,-3.3860071364893605,-3.39276775223719,0.01876257099257117
23,-8.850651731092103,-8.870478940827246,-8.982684372480584,-9.002526890157643,6.0,-2.8506517310921033,-2.982684372480584,0.01982720973514196
24,-8.578067098905196,-8.598905442452983,-8.584837623763084,-8.60569201040922,5.999999999999997,-2.5780670989051986,-2.584837623763087,0.020838343547786575
25,-8.297627018869079,-8.319421047783795,-8.198752897166916,-8.220564197218756,6.0,-2.297627018869079,-2.1987528971669157,0.02179402891471538
26,-7.761352469299036,-7.784044473509013,-7.8251477989858245,-7.847859169879028,6.0,-1.7613524692990357,-1.8251477989858245,0.022692004209976968
27,-7.5774659323678035,-7.601000079914806,-7.464521208388598,-7.488073615199863,6.0,-1.5774659323678035,-1.4645212083885983,0.023534147547003226
28,-7.025147841803845,-7.049461316771778,-7.11731250101631,-7.1416430718544,6.000000000000001,-1.025147841803844,-1.1173125010163094,0.02431347496793279
29,-6.757406053204119,-6.782430772548894,-6.783689530055401,-6.808729740091536,6.000000000000002,-0.7574060532041171,-0.7836895300553994,0.02502471934477457
30,-6.467836379256259,-6.493497632727223,-6.463208494205484,-6.488883038205847,5.949937939386458,-0.5178984398698017,-0.5132705548190266,0.025661253470963263
31,-6.097790817474344,-6.1240058770345165,-6.155027841357494,-6.1812532702597665,5.846544396662795,-0.25124642081154924,-0.30848344469469957,0.026215059560172893
32,-5.960377283475107,-5.987054092417242,-5.858094622484293,-5.884778332677569,5.69505984015191,-0.2653174433231964,-0.16303478233238256,0.0266768089421352
33,-5.534135291110033,-5.561171356483671,-5.5714754858187,-5.598514964645456,5.508219777448195,-0.025915513661837863,-0.0632557083705052,0.027036065373637452
34,-5.287528425213091,-5.3148108112052945,-5.294665512396111,-5.321947787015585,5.294051913586507,0.0065234883734159865,-0.0006135988096032108,0.027282385992203118
35,-5.105862470712111,-5.133267263006748,-5.0276795849403175,-5.055080986142393,5.055080986142392,-0.050781484569719204,0.02740140120207446,0.02740479229463677
36,-4.85255867196842,-4.879950999282315,-4.770943467392257,-4.7983296471591,4.7983296471591,-0.05422902480931935,0.0273861797668431,0.02739232731389496
37,-4.346286972804016,-4.373521324409817,-4.525001843627916,-4.552228042405133,4.552228042405135,0.2059410696011188,0.027226198777219324,0.02723435160580001
38,-4.253871206497735,-4.280791984312738,-4.290180039889151,-4.317091573391378,4.317091573391378,0.06322036689364374,0.026911533502227414,0.026920777815003127
39,-4.047463803996633,-4.073906022125795,-4.066362594174043,-4.0927954944913045,4.092795494491303,0.04533169049466945,0.026432900317259644,0.026442218129161255
40,-3.9871735210354995,-4.012963550629702,-3.852986927617116,-3.878768674825456,3.8787686748254555,-0.10840484621004398,0.02578174720833948,0.0257900295942024
41,-3.592580716118685,-3.6175371041258995,-3.6492613594597154,-3.6742116208516684,3.6742116208516684,0.08163090473298329,0.024950261391953,0.024956388007214336
42,-3.5221351792682416,-3.546069364832103,-3.454508898248304,-3.478440187271995,3.478440187271995,-0.04369499199624638,0.02393128902369135,0.023934185563861288
43,-3.275351398061806,-3.2980682555830203,-3.2684803122920894,-3.2911984799054217,3.2911984799054212,0.015847081843615385,0.022718167613331897,0.02271685752121444
44,-3.0266238981042326,-3.047922023156244,-3.091495482132441,-3.112799955180583,3.112799955180582,0.08617605707634945,0.02130447304814087,0.02129812505201123
45,-2.9129666505410494,-2.9326383122512105,-2.924346045728944,-2.9440297357392162,2.9440297357392162,0.031063085198166807,0.019683690010272148,0.019671661710161104
46,-2.806136137389344,-2.823966829215894,-2.7679937016346283,-2.7858425189494276,2.785842518949427,-0.020293618439916727,0.017848817314798815,0.017830691826550282
47,-2.600646039506873,-2.6164135691230657,-2.623180341956333,-2.6389722648502643,2.638972264850265,0.03832622534339203,0.015791922893932053,0.015767529616192544
48,-2.4776063515325157,-2.491079442918754,-2.490094919407116,-2.503598585487353,2.5035985854873535,0.02599223395483774,0.013503666080237675,0.013473091386238423
49,-2.392662818713031,-2.403599210891671,-2.3682118446900158,-2.3791846510378596,2.3791846510378587,-0.013478167675172514,0.010972806347842923,0.010936392178639842
50,-2.1847053263408958,-2.1928493752458076,-2.2563463956988326,-2.2645321143582593,2.264532114358259,0.07982678801736309,0.0081857186594263,0.008144048904911827
51,-2.1794708919421697,-2.1845507028158737,-2.1528963407676613,-2.158022276230403,2.1580222762304024,-0.02144861571176726,0.005125935462741094,0.005079810873704016
52,-2.093958082900097,-2.09568222061658,-2.056185563803833,-2.057959298079619,2.0579592980796186,-0.03599878482047858,0.0017737342757855323,0.001724137716482943
53,-1.9913516642906135,-1.9894055066561989,-1.96480771300496,-1.9629135008783727,1.9629135008783731,-0.02843816341224037,-0.0018942121265868028,-0.0019461576344146359
54,-1.874468205878237,-1.8685100186206363,-1.877884102643967,-1.8719789940072422,1.8719789940072422,-0.002489211870994712,-0.005905108636724776,-0.005958187257600667
55,-1.7324265736380957,-1.722083397713572,-1.7951864467791303,-1.7848962239180048,1.7848962239180048,0.05246965027990913,-0.010290222861125464,-0.010343175924523607
56,-1.8122222094244473,-1.7970856585259591,-1.7171143822121706,-1.7020294072078157,1.702029407207816,-0.11019280221663141,-0.015084975004354684,-0.015136550898488199
57,-1.6052020276224217,-1.5848240970179692,-1.6445490907834674,-1.6242201615670044,1.6242201615670044,0.019018133944582738,-0.02032892921646301,-0.020377930604452477
58,-1.5515993270994235,-1.5254883141193298,-1.5786236366441528,-1.5525579497107458,1.552557949710746,0.0009586226113225127,-0.02606568693340683,-0.026111012980093662
59,-1.536773780152019,-1.504390412061378,-1.5204596277733025,-1.4881169413349489,1.4881169413349489,-0.04865683881707006,-0.032342686438353585,-0.03238336809064091
60,-1.4690697688837722,-1.4298236259328132,-1.4709223011122834,-1.4317113849312082,1.4317113849312086,-0.03735838395256352,-0.03921091618107475,-0.03924614295095896
61,-1.468521053074069,-1.4217673636119703,-1.430442195949511,-1.3837176437925847,1.3837176437925849,-0.08480340928148422,-0.04672455215692617,-0.04675368946209879
62,-1.3278384931476697,-1.2728753647053543,-1.3989415611172236,-1.3440010293684914,1.3440010293684916,0.016162536220821977,-0.054940531748731924,-0.05496312844231532
63,-1.3693311222293727,-1.3053972581291489,-1.3758873922927668,-1.3119693144919422,1.3119693144919422,-0.05736180773743049,-0.06391807780082459,-0.06393386410022384
64,-1.3717194304616727,-1.2979923666022977,-1.3604717294381907,-1.2867535421797258,1.286753542179726,-0.08496588828194662,-0.07371818725846468,-0.073727063859375
65,-1.3745865037791587,-1.2901813855546607,-1.3518964835360265,-1.2674933848189627,1.2674933848189625,-0.10709311896019624,-0.08440309871706408,-0.08440511822449803
66,-1.37678417408801,-1.2807530796528774,-1.3497169185376605,-1.253681166479622,1.2536811664796224,-0.12310300760838766,-0.09603575205803816,-0.09603109443513258
67,-1.3769913588008944,-1.2683231627193587,-1.354177736017907,-1.2454984841759114,1.2454984841759111,-0.13149287462498327,-0.1086792518419959,-0.10866819608153566
68,-1.3740861577822518,-1.2517069189618573,-1.3664609516443584,-1.2440646066334646,1.2440646066334646,-0.13002155114878722,-0.1223963450108938,-0.12237923882039459
69,-1.3674316793950467,-1.230205529435871,-1.3887583387711064,-1.2515094171602783,1.251509417160278,-0.11592226223476865,-0.13724892161082836,-0.1372261499591758
70,-1.3988435307064495,-1.2455740335572838,-1.424091593841869,-1.2707940505275257,1.2707940505275257,-0.1280494801789238,-0.1532975433143433,-0.1532694971491657
71,-1.4717465262714804,-1.3011784773692716,-1.475840904295504,-1.305239904601629,1.3052399046016294,-0.16650662166985097,-0.17060099969387466,-0.17056804890220878
72,-1.5486184832473366,-1.3594401159695613,-1.5470133158314465,-1.3577974255716676,1.3577974255716674,-0.19082105767566926,-0.18921589025977914,-0.18917836727777537
73,-1.7027308058359008,-1.493576374830201,-1.6393776826157338,-1.4301814476689714,1.4301814476689714,-0.2725493581669294,-0.20919623494676243,-0.20915443100569986
74,-1.701472387576025,-1.4709251019592697,-1.7526845948565213,-1.52209147566023,1.52209147566023,-0.17938091191579497,-0.23059311919629133,-0.2305472856167552
75,-1.7042154140684844,-1.4508106981487585,-1.8842361832796315,-1.6307818009111312,1.630781800911131,-0.07343361315735342,-0.2534543823685005,-0.2534047159197259
76,-1.996888031911791,-1.7191170964870464,-2.0290325160503624,-1.7512081662229104,1.751208166222911,-0.2456798656888799,-0.2778243498274513,-0.2777709354247446
77,-2.249124789085402,-1.9454385020154645,-2.180582509116814,-1.8768389356960684,1.8768389356960684,-0.3722858533893336,-0.3037435734207454,-0.3036862870699375
78,-2.416729015482858,-2.085542065649525,-2.3322550542130998,-2.0010065607844636,2.0010065607844636,-0.4157224546983942,-0.33124849342863616,-0.33118694983333263
79,-2.5577874609721842,-2.197482814521676,-2.478829310787156,-2.118458383180239,2.11845838318024,-0.4393290777919443,-0.36037092760691625,-0.3603046464505084
80,-2.66650555684046,-2.2754392084017896,-2.617771240615849,-2.2266338383460793,2.2266338383460793,-0.43987171849438056,-0.39113740226976956,-0.3910663484386703
81,-2.732750319291438,-2.309256343425563,-2.7497878476126116,-2.3262192758646867,2.326219275864687,-0.40653104342675084,-0.4235685717479245,-0.4234939758658749
82,-2.958141445729675,-2.500537355016704,-2.8784085636998817,-2.4207293757960793,2.4207293757960797,-0.5374120699335951,-0.457679187903802,-0.4576040907129708
83,-2.938574188567412,-2.44516660439652,-3.0086612055812534,-2.5151821226956512,2.5151821226956517,-0.42339206587176026,-0.4934790828856017,-0.49340758417089203
84,-3.0561487431595094,-2.5252393834383233,-3.145234841942705,-2.614259681289267,2.6142596812892673,-0.441889061870242,-0.5309751606534379,-0.530909359721186
85,-3.227930446066017,-2.657822430767071,-3.290723383526174,-2.720550005485399,2.7205500054853986,-0.5073804405806186,-0.5701733780407756,-0.5701080152989464
86,-3.3501464398260183,-2.7391509106413947,-3.444531414902774,-2.8334528855837604,2.8334528855837595,-0.5166935542422588,-0.6110785293190144,-0.6109955291846236
87,-3.607969488198392,-2.9544125327195903,-3.6027892026703947,-2.9490999572771193,2.94909995727712,-0.658869530921272,-0.6536892453932746,-0.6535569554788019
88,-3.850449167670569,-3.1526790316118594,-3.759251767171547,-3.0612647946079328,3.0612647946079328,-0.7891843730626364,-0.6979869725636143,-0.6977701360587099
89,-3.873279505007406,-3.1296740682235065,-3.9067957622721496,-3.1628746301591755,3.162874630159175,-0.7104048748482308,-0.7439211321129746,-0.7436054367838993
90,-4.090119303738822,-3.299093787334612,-4.038928528623579,-3.2475313087234357,3.2475313087234357,-0.8425879950153865,-0.7913972199001433,-0.7910255164042104
91,-4.312077330510265,-3.4720921933890065,-4.150770780292897,-3.3104926998888526,3.3104926998888518,-1.0015846306214131,-0.8402780804040448,-0.8399851371212583
92,-4.246832495074794,-3.3564014690152373,-4.2392453349972765,-3.348837336538746,3.348837336538745,-0.897995158536049,-0.8904079984585316,-0.8904310260595567
93,-4.1984464170820965,-3.2561446200771504,-4.302576038492813,-3.3609134995556937,3.360913499555694,-0.8375329175264024,-0.9416625389371185,-0.9423017970049461
94,-4.269339024118296,-3.2738110824676205,-4.339505115037133,-3.3454901400318917,3.3454901400318926,-0.9238488840864036,-0.99401497500524,-0.9955279416506757
95,-4.2516642223859815,-3.2016323231528467,-4.348734252369095,-3.3011372553623612,3.301137255362361,-0.9505269670236207,-1.047596997006734,-1.0500318992331348
96,-4.351280050498788,-3.2455518376853436,-4.328942159395042,-3.2262184136457037,3.2262184136457033,-1.125061636853085,-1.1027237457493384,-1.1057282128134447
97,-4.419011904380194,-3.256488124841635,-4.279407402782342,-3.1195504345777745,3.1195504345777736,-1.2994614698024205,-1.159856968204568,-1.1625237795385592
98,-4.362569204017068,-3.142251003048063,-4.200930686418614,-2.98143342986819,2.98143342986819,-1.381135774148878,-1.219497256550424,-1.2203182009690048
99,-4.1603466652785,-2.881342427309437,-4.096567678371002,-2.8145447048243897,2.8145447048243897,-1.3458019604541107,-1.2820229735466127,-1.2790042379690636
100,-3.8913667128169536,-2.5528983401074656,-3.9717397990364334,-2.624220038487711,2.624220038487711,-1.2671466743292426,-1.3475197605487224,-1.338468372709488
101,-3.786970847720917,-2.388379369681268,-3.833558195707267,-2.417899579146464,2.4178995791464635,-1.3690712685744537,-1.4156586165608034,-1.3985914780396493
102,-3.645602760026507,-2.186353168153355,-3.6895478275630857,-2.203873787075424,2.2038737870754237,-1.4417289729510832,-1.485674040487662,-1.459249591873152
104,-3.4244107664375036,-1.842131349926115,-3.5462273634932497,-1.9897611467407046,1.9897611467407046,-1.434649619696799,-1.5564662167525452,-1.5822794165113887
105,-3.3470585317441386,-1.703356867895998,-3.40806416316806,-1.781253107306794,1.7812531073067936,-1.565805424437345,-1.6268110558612663,-1.6437016638481405
106,-3.326627662099822,-1.621482926098817,-3.277163712682009,-1.5815402533864868,1.5815402533864866,-1.7450874087133352,-1.6956234592955222,-1.7051447360010048
107,-3.3223545574131084,-1.5558770007053342,-3.1537525637646793,-1.3915551787044758,1.3915551787044755,-1.9307993787086328,-1.7621973850602037,-1.7664775567077742
108,-3.090768305696677,-1.2631980944567176,-3.0372082493941086,-1.2108578722877252,1.2108578722877252,-1.8799104334089518,-1.8263503771063834,-1.8275702112399594
109,-2.7535498629576516,-0.8652548021314677,-2.9272049335955828,-1.0387755898017748,1.038775589801775,-1.7147742731558766,-1.8884293437938078,-1.888295060826184
110,-2.759066033431249,-0.8105381800446456,-2.82454176692585,-0.8753636831794107,0.8753636831794107,-1.8837023502518384,-1.9491780837464392,-1.9485278533866035
111,-2.9042822052876276,-0.8961333965051606,-2.731380847523961,-0.7218711464626588,0.7218711464626588,-2.182411058824969,-2.009509701061302,-2.008148808782467
112,-2.67427492383371,-0.6072312678582379,-2.6508570998955214,-0.5806030804538472,0.5806030804538475,-2.0936718433798625,-2.070254019441674,-2.067043655975472
113,-2.5711922340168525,-0.44608763457849365,-2.5862334054354648,-0.45428059409903915,0.45428059409903915,-2.1169116399178134,-2.1319528113364257,-2.125104599438359
114,-2.386733914458711,-0.2045027215268913,-2.5398956906306798,-0.3451411492932582,0.34514114929325823,-2.041592765165453,-2.1947545413374216,-2.1822311929318197
115,-2.4446567257541134,-0.2063256253582888,-2.5124956015300484,-0.2540711852140334,0.25407118521403343,-2.19058554054008,-2.2584244163160148,-2.2383311003958246
117,-2.539213628013693,-0.1911801857178128,-2.5024731295131772,-0.1800245696092622,0.18002456960926216,-2.3591890584044313,-2.322448559903915,-2.3480334422958804
118,-2.536253258020229,-0.13553945144524526,-2.50607225026474,-0.11988632927868824,0.11988632927868821,-2.416366928741541,-2.386185920986052,-2.400713806574984
119,-2.5341977687968344,-0.0820998504589383,-2.5178416343707193,-0.06882636385895281,0.0688263638589528,-2.4653714049378816,-2.4490152705117665,-2.452097918337896
120,-2.532781095563164,-0.030643482529954635,-2.531514096657764,-0.021077091897030765,0.021077091897030772,-2.511704003666133,-2.510437004760733,-2.5021376130332094
121,-2.531667309376722,0.01912693102222418,-2.5410861379132297,0.029027404806400973,-0.02902740480640098,-2.560694714183123,-2.5701135427196307,-2.5507942403989463
123,-2.5306152918861655,0.11482155508179392,-2.5418728781213904,0.08598418602572122,-0.08598418602572122,-2.616599477911887,-2.6278570641471117,-2.6454368469679594
124,-2.566021119765121,0.1239208661382949,-2.531304283742869,0.15228497564331345,-0.15228497564331345,-2.7183060954084346,-2.6835892593861828,-2.689941985903416
125,-2.6841477878927877,0.04884545230543491,-2.5092671471230643,0.22803269914107543,-0.22803269914107546,-2.9121804870338632,-2.73729984626414,-2.7329932401982227
126,-2.5144991935240926,0.2600925429735512,-2.4778884330631605,0.3111322995052009,-0.3111322995052008,-2.8256314930292934,-2.7890207325683614,-2.774591736497644
128,-2.205862406309984,0.6497067040985174,-2.4407917487726634,0.3980260805200136,-0.3980260805200137,-2.6038884868299976,-2.838817829292677,-2.8555691104085015
129,-2.4722437690467003,0.4207430441849782,-2.4020108886837557,0.48477960832714395,-0.48477960832714406,-2.9570233773738446,-2.8867904970108995,-2.8929868132316785
130,-2.4249053256243336,0.5041002437089177,-2.3648632428518406,0.5682017752014711,-0.5682017752014711,-2.993107100825805,-2.9330650180533118,-2.9290055693332513
131,-2.2256468883279235,0.7380055062080189,-2.331116623480044,0.6466576206610082,-0.6466576206610083,-2.8723045089889316,-2.977774244141052,-2.9636523945359423
133,-2.2079604601763507,0.8234490532079213,-2.3006983438538673,0.7203280237315369,-0.7203280237315371,-2.9282884839078878,-3.0210263675854043,-3.031409513384272
134,-2.2872127457570817,0.7749786092183992,-2.272015211371752,0.7908596515861822,-0.7908596515861823,-3.0780723973432638,-3.0628748629579343,-3.062191354975481
135,-2.321009990263629,0.7707141095983099,-2.242736832057944,0.8605669440795465,-0.8605669440795465,-3.1815769343431755,-3.1033037761374906,-3.091724099861939
137,-2.291988549726933,0.8578059156109687,-2.210724149511061,0.9315125235738031,-0.9315125235738031,-3.2235010733007363,-3.1422366730848643,-3.149794465337902
138,-2.222797972114771,0.953037165504985,-2.1747349425383318,1.004832156325965,-1.004832156325965,-3.227630128440736,-3.179567098864297,-3.1758351376197558
140,-2.0509742921875453,1.1763146778724467,-2.1346395612102294,1.0805589582416903,-1.0805589582416903,-3.1315332504292357,-3.2151985194519197,-3.227288970059992
141,-2.084867575932683,1.1652703604996075,-2.0910992310385077,1.1579782665950844,-1.1579782665950844,-3.2428458425277675,-3.249077497633592,-3.2501379364322904
142,-2.0832560405138163,1.1887290188398838,-2.0449043196152226,1.2363031296839602,-1.2363031296839604,-3.3195591701977767,-3.281207449299183,-3.2719850593537
144,-1.8817516586747893,1.4337571996158722,-1.9963345513068018,1.315305120341517,-1.315305120341517,-3.1970567790163065,-3.3116396716483187,-3.3155088582906616
145,-1.9006017238385575,1.4339629307719237,-1.9449105792641568,1.395537971076474,-1.3955379710764735,-3.296139694915031,-3.3404485503406303,-3.3345646546104812
147,-1.9794445716525464,1.393364329720433,-1.8897403071586205,1.4779637198389641,-1.4779637198389644,-3.457408291491511,-3.367704026997585,-3.3728089013729794
148,-1.8873961342803647,1.5019566615134303,-1.8303828851472792,1.5630712103228528,-1.5630712103228528,-3.4504673446032177,-3.393454095470132,-3.389352795793795
150,-1.7920549348725725,1.630799992261725,-1.7678743054250838,1.6498498317111348,-1.6498498317111352,-3.4419047665837077,-3.417724137136219,-3.4228549271342974
151,-1.7777001187895511,1.6594442062432069,-1.7054077689829783,1.7351234963625046,-1.7351234963625046,-3.5128236151520555,-3.440531265345483,-3.437144325032758
153,-1.618308824139613,1.8480945660450738,-1.648219181099185,1.8136856718020926,-1.8136856718020924,-3.4319944959417055,-3.4619048529012773,-3.466403390184687
154,-1.5934369381077094,1.8852342820511505,-1.6024901228969672,1.8794120903264457,-1.8794120903264455,-3.4728490284341547,-3.481902213223413,-3.47867122015886
