frequency,raw,error,smoothed,error_smoothed,equalization,parametric_eq,equalized_raw,equalized_smoothed,target
20,-9.11,-9.42,-9.28,-9.52,10.00,-1.17,0.89,0.73,0.31
21,-7.50,-7.81,-7.43,-7.67,7.93,-1.34,0.43,0.50,0.30
22,-5.81,-6.11,-5.70,-5.94,6.07,-1.53,0.25,0.36,0.30
23,-4.36,-4.66,-4.09,-4.33,4.38,-1.73,0.02,0.28,0.29
24,-2.84,-3.13,-2.60,-2.84,2.85,-1.95,0.01,0.25,0.29
25,-1.38,-1.67,-1.23,-1.46,1.46,-2.16,0.08,0.23,0.28
26,0.07,-0.21,0.02,-0.21,0.21,-2.38,0.27,0.23,0.28
27,1.52,1.25,1.16,0.93,-0.93,-2.59,0.58,0.22,0.27
28,2.66,2.39,2.17,1.96,-1.96,-2.77,0.70,0.22,0.26
29,3.31,3.05,3.07,2.86,-2.86,-2.92,0.45,0.21,0.26
30,4.24,3.99,3.85,3.65,-3.65,-3.04,0.59,0.21,0.25
31,4.87,4.63,4.49,4.27,-4.27,-3.12,0.60,0.22,0.24
32,4.71,4.48,4.99,4.76,-4.76,-3.16,-0.05,0.23,0.23
33,4.98,4.76,5.36,5.14,-5.14,-3.17,-0.16,0.23,0.22
34,5.41,5.20,5.61,5.41,-5.41,-3.15,-0.00,0.20,0.21
35,5.87,5.67,5.75,5.58,-5.58,-3.11,0.28,0.17,0.20
36,5.95,5.76,5.80,5.67,-5.67,-3.07,0.28,0.13,0.19
37,5.87,5.69,5.79,5.68,-5.68,-3.02,0.19,0.11,0.18
38,5.76,5.59,5.73,5.64,-5.64,-2.97,0.12,0.09,0.16
39,5.62,5.47,5.65,5.57,-5.57,-2.94,0.05,0.08,0.15
40,5.53,5.39,5.53,5.47,-5.47,-2.91,0.05,0.06,0.14
41,5.37,5.24,5.42,5.35,-5.35,-2.89,0.02,0.07,0.12
42,5.14,5.03,5.29,5.21,-5.21,-2.89,-0.07,0.08,0.11
43,5.00,4.90,5.12,5.05,-5.05,-2.90,-0.06,0.07,0.09
44,4.83,4.75,4.93,4.90,-4.90,-2.92,-0.07,0.03,0.08
45,4.73,4.67,4.74,4.74,-4.74,-2.95,-0.02,-0.00,0.06
46,4.59,4.55,4.58,4.59,-4.59,-2.99,-0.01,-0.01,0.04
47,4.38,4.35,4.43,4.45,-4.45,-3.04,-0.07,-0.02,0.02
48,4.31,4.30,4.30,4.32,-4.32,-3.10,-0.01,-0.02,0.00
49,4.26,4.27,4.15,4.19,-4.19,-3.17,0.06,-0.04,-0.02
50,4.00,4.03,4.03,4.08,-4.08,-3.24,-0.08,-0.04,-0.04
51,3.85,3.91,3.90,3.97,-3.97,-3.32,-0.12,-0.06,-0.06
52,3.83,3.91,3.78,3.86,-3.86,-3.39,-0.04,-0.08,-0.08
53,3.62,3.72,3.66,3.77,-3.77,-3.47,-0.15,-0.11,-0.10
54,3.53,3.66,3.55,3.69,-3.69,-3.54,-0.16,-0.13,-0.13
55,3.50,3.65,3.44,3.61,-3.61,-3.61,-0.11,-0.16,-0.15
56,3.38,3.55,3.34,3.53,-3.53,-3.67,-0.16,-0.19,-0.18
57,3.26,3.46,3.25,3.46,-3.46,-3.72,-0.21,-0.21,-0.20
58,3.02,3.25,3.16,3.39,-3.39,-3.77,-0.38,-0.23,-0.23
59,3.19,3.44,3.06,3.33,-3.33,-3.80,-0.14,-0.27,-0.26
60,2.78,3.06,2.98,3.27,-3.27,-3.82,-0.49,-0.29,-0.29
61,2.96,3.27,2.88,3.21,-3.21,-3.83,-0.25,-0.33,-0.31
62,2.85,3.19,2.80,3.14,-3.14,-3.82,-0.30,-0.35,-0.34
63,2.75,3.12,2.69,3.08,-3.08,-3.80,-0.34,-0.39,-0.37
64,2.65,3.05,2.62,3.02,-3.02,-3.77,-0.37,-0.40,-0.40
65,2.55,2.98,2.51,2.96,-2.96,-3.72,-0.41,-0.45,-0.43
66,2.45,2.91,2.43,2.90,-2.90,-3.67,-0.45,-0.47,-0.47
67,2.35,2.84,2.34,2.84,-2.84,-3.61,-0.49,-0.50,-0.50
68,2.05,2.58,2.23,2.77,-2.77,-3.53,-0.73,-0.54,-0.53
69,2.21,2.77,2.12,2.71,-2.71,-3.46,-0.51,-0.59,-0.56
70,2.02,2.61,2.06,2.66,-2.66,-3.37,-0.64,-0.60,-0.60
71,2.08,2.71,1.94,2.60,-2.60,-3.29,-0.52,-0.66,-0.63
72,1.71,2.37,1.86,2.55,-2.55,-3.20,-0.84,-0.68,-0.66
73,1.99,2.68,1.80,2.50,-2.50,-3.11,-0.51,-0.70,-0.70
74,1.45,2.18,1.71,2.46,-2.46,-3.01,-1.01,-0.75,-0.73
75,1.81,2.57,1.64,2.41,-2.41,-2.92,-0.61,-0.78,-0.77
76,1.40,2.20,1.55,2.37,-2.37,-2.83,-0.98,-0.82,-0.80
77,1.40,2.24,1.49,2.34,-2.34,-2.74,-0.94,-0.84,-0.84
78,1.57,2.44,1.43,2.30,-2.30,-2.65,-0.73,-0.87,-0.87
79,1.58,2.49,1.33,2.26,-2.26,-2.57,-0.68,-0.93,-0.91
80,1.06,2.00,1.26,2.22,-2.22,-2.48,-1.17,-0.97,-0.95
81,1.37,2.35,1.19,2.19,-2.19,-2.40,-0.82,-1.01,-0.98
82,1.11,2.13,1.13,2.16,-2.16,-2.32,-1.05,-1.03,-1.02
83,0.85,1.90,1.05,2.12,-2.12,-2.24,-1.27,-1.07,-1.06
84,1.06,2.15,1.00,2.09,-2.09,-2.17,-1.03,-1.09,-1.09
85,0.84,1.96,0.91,2.06,-2.06,-2.10,-1.22,-1.15,-1.13
86,1.02,2.18,0.86,2.02,-2.02,-2.03,-1.01,-1.17,-1.16
87,0.62,1.82,0.78,1.99,-1.99,-1.97,-1.37,-1.21,-1.20
88,0.56,1.79,0.70,1.96,-1.96,-1.91,-1.40,-1.26,-1.24
89,0.85,2.12,0.63,1.93,-1.93,-1.85,-1.08,-1.30,-1.27
90,0.64,1.95,0.58,1.90,-1.90,-1.79,-1.27,-1.33,-1.31
91,0.52,1.86,0.51,1.88,-1.88,-1.74,-1.36,-1.37,-1.34
92,0.45,1.83,0.47,1.85,-1.85,-1.68,-1.40,-1.37,-1.38
93,0.37,1.78,0.41,1.82,-1.82,-1.63,-1.45,-1.41,-1.42
94,0.31,1.76,0.33,1.78,-1.78,-1.59,-1.48,-1.46,-1.45
95,0.25,1.73,0.26,1.75,-1.75,-1.54,-1.50,-1.49,-1.49
96,0.16,1.68,0.18,1.71,-1.71,-1.50,-1.56,-1.53,-1.52
97,0.10,1.65,0.12,1.67,-1.67,-1.45,-1.57,-1.55,-1.55
98,0.03,1.62,0.03,1.63,-1.63,-1.41,-1.60,-1.60,-1.59
99,0.01,1.63,-0.06,1.59,-1.59,-1.37,-1.58,-1.65,-1.62
100,0.09,1.74,-0.14,1.54,-1.54,-1.34,-1.46,-1.68,-1.66
101,-0.21,1.48,-0.23,1.50,-1.50,-1.30,-1.71,-1.73,-1.69
102,-0.52,1.20,-0.30,1.45,-1.45,-1.27,-1.97,-1.75,-1.72
104,-0.36,1.42,-0.37,1.41,-1.41,-1.20,-1.77,-1.78,-1.79
105,-0.48,1.34,-0.46,1.36,-1.36,-1.17,-1.84,-1.83,-1.82
106,-0.54,1.31,-0.54,1.31,-1.31,-1.14,-1.86,-1.85,-1.85
107,-0.63,1.25,-0.62,1.27,-1.27,-1.11,-1.90,-1.88,-1.88
108,-0.72,1.19,-0.70,1.22,-1.22,-1.09,-1.94,-1.93,-1.91
109,-0.78,1.16,-0.78,1.18,-1.18,-1.06,-1.96,-1.96,-1.94
110,-0.89,1.08,-0.86,1.14,-1.14,-1.03,-2.03,-2.00,-1.97
111,-0.85,1.15,-0.93,1.10,-1.10,-1.01,-1.95,-2.03,-2.00
112,-0.78,1.25,-0.98,1.06,-1.06,-0.98,-1.84,-2.04,-2.03
113,-1.16,0.89,-1.04,1.02,-1.02,-0.96,-2.18,-2.06,-2.06
114,-1.27,0.81,-1.12,0.98,-0.98,-0.93,-2.25,-2.10,-2.08
115,-1.01,1.09,-1.19,0.94,-0.94,-0.91,-1.96,-2.13,-2.11
117,-1.40,0.75,-1.24,0.90,-0.90,-0.86,-2.31,-2.14,-2.16
118,-1.34,0.83,-1.30,0.86,-0.86,-0.84,-2.21,-2.16,-2.18
119,-1.29,0.90,-1.37,0.83,-0.83,-0.82,-2.12,-2.19,-2.20
120,-1.43,0.78,-1.46,0.79,-0.79,-0.80,-2.22,-2.24,-2.21
121,-1.47,0.76,-1.52,0.75,-0.75,-0.77,-2.22,-2.27,-2.23
123,-1.57,0.70,-1.59,0.71,-0.71,-0.73,-2.28,-2.30,-2.27
124,-1.60,0.68,-1.64,0.68,-0.68,-0.71,-2.28,-2.31,-2.28
125,-1.66,0.63,-1.67,0.65,-0.65,-0.69,-2.31,-2.31,-2.30
126,-1.69,0.62,-1.72,0.62,-0.62,-0.67,-2.31,-2.33,-2.31
128,-1.78,0.56,-1.77,0.59,-0.59,-0.62,-2.37,-2.36,-2.34
129,-1.97,0.38,-1.80,0.56,-0.56,-0.60,-2.54,-2.37,-2.36
130,-2.05,0.31,-1.85,0.54,-0.54,-0.58,-2.59,-2.39,-2.37
131,-1.92,0.46,-1.90,0.52,-0.52,-0.56,-2.44,-2.42,-2.38
133,-1.70,0.71,-1.94,0.49,-0.49,-0.52,-2.19,-2.43,-2.41
134,-1.90,0.52,-1.98,0.47,-0.47,-0.50,-2.37,-2.45,-2.43
135,-1.96,0.48,-2.03,0.44,-0.44,-0.47,-2.41,-2.47,-2.44
137,-2.05,0.42,-2.08,0.42,-0.42,-0.43,-2.47,-2.50,-2.47
138,-2.11,0.37,-2.11,0.39,-0.39,-0.41,-2.51,-2.50,-2.49
140,-2.20,0.32,-2.15,0.36,-0.36,-0.37,-2.57,-2.51,-2.52
141,-2.25,0.28,-2.20,0.33,-0.33,-0.35,-2.58,-2.53,-2.53
142,-2.28,0.26,-2.26,0.30,-0.30,-0.33,-2.58,-2.56,-2.55
144,-2.35,0.22,-2.32,0.26,-0.26,-0.29,-2.62,-2.59,-2.58
145,-2.35,0.24,-2.39,0.23,-0.23,-0.26,-2.58,-2.61,-2.59
147,-2.45,0.17,-2.44,0.19,-0.19,-0.22,-2.64,-2.63,-2.62
148,-2.48,0.15,-2.50,0.16,-0.16,-0.20,-2.64,-2.65,-2.63
150,-2.53,0.12,-2.55,0.12,-0.12,-0.16,-2.66,-2.67,-2.66
151,-2.43,0.24,-2.59,0.09,-0.09,-0.14,-2.53,-2.68,-2.67
153,-2.77,-0.08,-2.63,0.07,-0.07,-0.10,-2.84,-2.70,-2.69
154,-2.90,-0.20,-2.67,0.04,-0.04,-0.08,-2.94,-2.71,-2.70
156,-2.61,0.11,-2.72,0.01,-0.01,-0.04,-2.62,-2.73,-2.73
157,-2.59,0.14,-2.76,-0.02,0.02,-0.02,-2.57,-2.74,-2.74
159,-2.85,-0.10,-2.81,-0.05,0.05,0.02,-2.80,-2.76,-2.76
160,-2.92,-0.16,-2.88,-0.09,0.09,0.04,-2.84,-2.79,-2.77
162,-3.03,-0.24,-2.93,-0.12,0.12,0.08,-2.91,-2.81,-2.79
164,-2.82,-0.01,-2.98,-0.16,0.16,0.12,-2.67,-2.82,-2.81
165,-2.98,-0.16,-3.03,-0.20,0.20,0.14,-2.79,-2.84,-2.82
167,-3.06,-0.22,-3.09,-0.24,0.24,0.18,-2.83,-2.86,-2.85
169,-3.17,-0.30,-3.15,-0.28,0.28,0.22,-2.90,-2.87,-2.87
170,-3.18,-0.30,-3.22,-0.32,0.32,0.24,-2.86,-2.90,-2.88
172,-3.33,-0.43,-3.29,-0.36,0.36,0.28,-2.97,-2.92,-2.90
174,-3.50,-0.58,-3.34,-0.41,0.41,0.31,-3.09,-2.93,-2.92
175,-3.37,-0.44,-3.39,-0.45,0.45,0.33,-2.92,-2.93,-2.93
177,-3.34,-0.40,-3.45,-0.50,0.50,0.37,-2.84,-2.95,-2.94
179,-3.50,-0.55,-3.51,-0.54,0.54,0.41,-2.96,-2.96,-2.96
181,-3.60,-0.64,-3.57,-0.59,0.59,0.45,-3.02,-2.98,-2.97
183,-3.65,-0.68,-3.61,-0.63,0.63,0.49,-3.02,-2.98,-2.97
184,-3.68,-0.72,-3.65,-0.67,0.67,0.51,-3.01,-2.98,-2.97
186,-3.57,-0.61,-3.69,-0.72,0.72,0.55,-2.86,-2.98,-2.97
188,-3.56,-0.60,-3.73,-0.76,0.76,0.58,-2.81,-2.97,-2.96
190,-3.91,-0.95,-3.76,-0.80,0.80,0.62,-3.11,-2.96,-2.96
192,-3.94,-0.99,-3.80,-0.85,0.85,0.66,-3.10,-2.95,-2.95
194,-3.81,-0.87,-3.84,-0.89,0.89,0.70,-2.92,-2.95,-2.95
196,-3.86,-0.92,-3.88,-0.93,0.93,0.74,-2.93,-2.95,-2.94
198,-3.90,-0.96,-3.93,-0.97,0.97,0.77,-2.93,-2.96,-2.94
200,-3.97,-1.04,-3.97,-1.02,1.02,0.81,-2.96,-2.96,-2.94
202,-3.97,-1.04,-4.02,-1.06,1.06,0.85,-2.92,-2.96,-2.94
204,-4.01,-1.07,-4.07,-1.09,1.09,0.89,-2.92,-2.98,-2.94
206,-4.06,-1.12,-4.12,-1.12,1.12,0.92,-2.94,-2.99,-2.94
208,-4.15,-1.20,-4.14,-1.15,1.15,0.96,-3.00,-2.99,-2.95
210,-4.16,-1.21,-4.14,-1.18,1.18,1.00,-2.98,-2.96,-2.96
212,-4.22,-1.26,-4.18,-1.21,1.21,1.04,-3.01,-2.97,-2.97
214,-4.43,-1.46,-4.23,-1.23,1.23,1.07,-3.20,-3.00,-2.98
216,-4.37,-1.39,-4.28,-1.26,1.26,1.11,-3.11,-3.02,-2.99
218,-4.14,-1.15,-4.31,-1.29,1.29,1.14,-2.86,-3.02,-3.00
221,-4.29,-1.28,-4.34,-1.32,1.32,1.19,-2.98,-3.03,-3.01
223,-4.38,-1.37,-4.38,-1.34,1.34,1.23,-3.04,-3.04,-3.02
225,-4.26,-1.24,-4.41,-1.36,1.36,1.26,-2.90,-3.04,-3.02
227,-4.29,-1.27,-4.43,-1.39,1.39,1.29,-2.90,-3.04,-3.02
229,-4.48,-1.46,-4.45,-1.42,1.42,1.33,-3.07,-3.03,-3.02
232,-4.67,-1.65,-4.47,-1.45,1.45,1.37,-3.22,-3.02,-3.02
234,-4.69,-1.68,-4.50,-1.48,1.48,1.40,-3.21,-3.02,-3.01
236,-4.48,-1.48,-4.52,-1.51,1.51,1.43,-2.97,-3.01,-3.01
239,-4.43,-1.44,-4.56,-1.54,1.54,1.47,-2.89,-3.02,-3.00
241,-4.61,-1.63,-4.59,-1.58,1.58,1.50,-3.04,-3.01,-2.98
244,-4.60,-1.63,-4.60,-1.61,1.61,1.54,-2.99,-2.99,-2.97
246,-4.58,-1.63,-4.61,-1.64,1.64,1.57,-2.94,-2.97,-2.96
248,-4.58,-1.64,-4.63,-1.67,1.67,1.59,-2.91,-2.96,-2.94
251,-4.64,-1.71,-4.65,-1.70,1.70,1.63,-2.94,-2.95,-2.93
253,-4.68,-1.77,-4.66,-1.73,1.73,1.65,-2.95,-2.92,-2.92
256,-4.71,-1.80,-4.67,-1.76,1.76,1.69,-2.95,-2.91,-2.91
259,-4.70,-1.80,-4.70,-1.80,1.80,1.72,-2.91,-2.91,-2.90
261,-4.70,-1.80,-4.74,-1.83,1.83,1.74,-2.87,-2.91,-2.90
264,-4.71,-1.81,-4.77,-1.86,1.86,1.77,-2.85,-2.91,-2.90
266,-4.79,-1.90,-4.80,-1.89,1.89,1.79,-2.90,-2.90,-2.90
269,-4.85,-1.95,-4.83,-1.93,1.93,1.82,-2.93,-2.90,-2.90
272,-4.91,-2.01,-4.87,-1.96,1.96,1.85,-2.95,-2.91,-2.90
274,-4.91,-2.01,-4.89,-1.99,1.99,1.87,-2.92,-2.90,-2.90
277,-4.91,-2.01,-4.92,-2.03,2.03,1.90,-2.89,-2.90,-2.90
280,-4.91,-2.01,-4.96,-2.06,2.06,1.93,-2.85,-2.90,-2.90
283,-4.99,-2.09,-4.99,-2.09,2.09,1.96,-2.90,-2.90,-2.90
286,-5.04,-2.14,-5.02,-2.13,2.13,1.99,-2.91,-2.90,-2.90
288,-5.10,-2.21,-5.05,-2.17,2.17,2.01,-2.94,-2.88,-2.89
291,-5.08,-2.20,-5.08,-2.20,2.20,2.04,-2.88,-2.88,-2.89
294,-5.07,-2.20,-5.12,-2.23,2.23,2.07,-2.84,-2.88,-2.88
297,-5.10,-2.24,-5.14,-2.27,2.27,2.10,-2.84,-2.88,-2.87
300,-5.15,-2.30,-5.17,-2.30,2.30,2.13,-2.85,-2.86,-2.86
303,-5.22,-2.38,-5.19,-2.33,2.33,2.17,-2.89,-2.85,-2.85
306,-5.23,-2.40,-5.21,-2.36,2.36,2.20,-2.87,-2.85,-2.84
309,-5.22,-2.39,-5.24,-2.39,2.39,2.24,-2.84,-2.86,-2.83
312,-5.21,-2.39,-5.26,-2.41,2.41,2.27,-2.80,-2.85,-2.82
316,-5.30,-2.48,-5.26,-2.43,2.43,2.32,-2.87,-2.83,-2.82
319,-5.45,-2.64,-5.27,-2.46,2.46,2.36,-3.00,-2.81,-2.81
322,-5.33,-2.52,-5.30,-2.48,2.48,2.41,-2.85,-2.82,-2.81
325,-5.16,-2.35,-5.32,-2.50,2.50,2.45,-2.66,-2.82,-2.81
328,-5.27,-2.46,-5.35,-2.52,2.52,2.49,-2.75,-2.83,-2.81
332,-5.41,-2.60,-5.38,-2.55,2.55,2.55,-2.86,-2.83,-2.81
335,-5.41,-2.60,-5.41,-2.58,2.58,2.60,-2.84,-2.83,-2.81
338,-5.41,-2.60,-5.45,-2.60,2.60,2.65,-2.81,-2.84,-2.81
342,-5.30,-2.49,-5.47,-2.63,2.63,2.71,-2.68,-2.84,-2.82
345,-5.35,-2.54,-5.49,-2.65,2.65,2.76,-2.70,-2.84,-2.82
349,-5.71,-2.90,-5.50,-2.68,2.68,2.83,-3.04,-2.83,-2.81
352,-5.72,-2.91,-5.51,-2.70,2.70,2.89,-3.02,-2.81,-2.81
356,-5.61,-2.81,-5.55,-2.73,2.73,2.96,-2.89,-2.82,-2.81
359,-5.61,-2.81,-5.58,-2.75,2.75,3.02,-2.86,-2.83,-2.80
363,-5.60,-2.81,-5.60,-2.78,2.78,3.10,-2.83,-2.82,-2.80
366,-5.60,-2.81,-5.62,-2.80,2.80,3.16,-2.80,-2.82,-2.79
370,-5.52,-2.74,-5.64,-2.82,2.82,3.24,-2.70,-2.82,-2.78
374,-5.46,-2.69,-5.66,-2.84,2.84,3.32,-2.62,-2.81,-2.77
377,-5.62,-2.86,-5.67,-2.86,2.86,3.39,-2.76,-2.81,-2.77
381,-5.67,-2.91,-5.67,-2.88,2.88,3.47,-2.79,-2.79,-2.76
385,-5.72,-2.97,-5.68,-2.91,2.91,3.56,-2.82,-2.77,-2.75
389,-5.88,-3.13,-5.69,-2.93,2.93,3.65,-2.95,-2.76,-2.75
393,-5.79,-3.04,-5.71,-2.95,2.95,3.74,-2.84,-2.76,-2.75
397,-5.75,-3.01,-5.75,-2.98,2.98,3.83,-2.78,-2.77,-2.75
401,-5.75,-3.01,-5.79,-3.00,3.00,3.92,-2.75,-2.78,-2.75
405,-5.75,-3.00,-5.82,-3.04,3.04,4.01,-2.72,-2.79,-2.75
409,-5.76,-3.01,-5.86,-3.07,3.07,4.10,-2.69,-2.79,-2.75
413,-5.86,-3.11,-5.88,-3.10,3.10,4.18,-2.76,-2.78,-2.75
417,-5.86,-3.12,-5.90,-3.13,3.13,4.27,-2.73,-2.76,-2.75
421,-5.93,-3.19,-5.92,-3.17,3.17,4.36,-2.76,-2.74,-2.74
425,-5.86,-3.13,-5.94,-3.22,3.22,4.44,-2.64,-2.72,-2.73
430,-6.09,-3.38,-5.96,-3.27,3.27,4.55,-2.82,-2.69,-2.71
434,-6.22,-3.53,-6.00,-3.33,3.33,4.62,-2.90,-2.67,-2.69
438,-6.01,-3.36,-6.04,-3.39,3.39,4.70,-2.63,-2.66,-2.66
443,-5.98,-3.36,-6.08,-3.45,3.45,4.79,-2.53,-2.63,-2.62
447,-6.05,-3.48,-6.11,-3.53,3.53,4.86,-2.53,-2.59,-2.58
451,-6.03,-3.51,-6.14,-3.61,3.61,4.92,-2.43,-2.54,-2.53
456,-6.18,-3.71,-6.17,-3.68,3.68,4.99,-2.50,-2.49,-2.47
460,-6.15,-3.74,-6.19,-3.76,3.76,5.05,-2.40,-2.43,-2.41
465,-6.21,-3.86,-6.21,-3.83,3.83,5.10,-2.38,-2.37,-2.36
470,-6.28,-3.99,-6.22,-3.91,3.91,5.15,-2.37,-2.31,-2.30
474,-6.37,-4.13,-6.23,-3.98,3.98,5.19,-2.39,-2.24,-2.24
479,-6.33,-4.15,-6.25,-4.05,4.05,5.22,-2.28,-2.20,-2.18
484,-6.21,-4.08,-6.28,-4.11,4.11,5.24,-2.10,-2.17,-2.13
489,-6.27,-4.18,-6.30,-4.17,4.17,5.25,-2.10,-2.12,-2.09
494,-6.29,-4.25,-6.31,-4.23,4.23,5.25,-2.07,-2.08,-2.05
499,-6.27,-4.26,-6.32,-4.27,4.27,5.24,-2.00,-2.04,-2.01
504,-6.25,-4.27,-6.32,-4.31,4.31,5.22,-1.94,-2.01,-1.99
509,-6.32,-4.35,-6.34,-4.34,4.34,5.19,-1.98,-1.99,-1.97
514,-6.36,-4.40,-6.35,-4.37,4.37,5.15,-1.99,-1.98,-1.96
519,-6.41,-4.46,-6.36,-4.39,4.39,5.11,-2.02,-1.97,-1.96
524,-6.41,-4.45,-6.39,-4.41,4.41,5.05,-2.00,-1.97,-1.96
529,-6.42,-4.45,-6.42,-4.43,4.43,4.99,-1.99,-1.99,-1.98
535,-6.44,-4.44,-6.46,-4.45,4.45,4.91,-2.00,-2.02,-2.00
540,-6.47,-4.45,-6.50,-4.46,4.46,4.83,-2.01,-2.04,-2.03
545,-6.51,-4.45,-6.54,-4.48,4.48,4.75,-2.04,-2.06,-2.06
551,-6.56,-4.47,-6.59,-4.49,4.49,4.64,-2.07,-2.09,-2.09
556,-6.61,-4.49,-6.63,-4.50,4.50,4.55,-2.11,-2.12,-2.13
562,-6.66,-4.50,-6.66,-4.52,4.52,4.44,-2.14,-2.14,-2.16
568,-6.71,-4.52,-6.71,-4.53,4.53,4.32,-2.18,-2.18,-2.19
573,-6.75,-4.54,-6.75,-4.55,4.55,4.22,-2.21,-2.21,-2.21
579,-6.79,-4.56,-6.79,-4.56,4.56,4.09,-2.23,-2.23,-2.23
585,-6.81,-4.57,-6.82,-4.57,4.57,3.97,-2.25,-2.25,-2.24
591,-6.83,-4.58,-6.83,-4.57,4.57,3.84,-2.26,-2.26,-2.25
596,-6.83,-4.59,-6.82,-4.57,4.57,3.73,-2.26,-2.25,-2.25
602,-6.83,-4.60,-6.81,-4.57,4.57,3.61,-2.26,-2.24,-2.24
608,-6.82,-4.60,-6.79,-4.56,4.56,3.48,-2.26,-2.23,-2.22
615,-6.84,-4.65,-6.75,-4.55,4.55,3.33,-2.29,-2.20,-2.20
621,-6.82,-4.65,-6.70,-4.53,4.53,3.21,-2.29,-2.17,-2.17
627,-6.54,-4.41,-6.64,-4.51,4.51,3.08,-2.04,-2.14,-2.13
633,-6.50,-4.41,-6.58,-4.47,4.47,2.96,-2.03,-2.11,-2.09
639,-6.49,-4.44,-6.50,-4.44,4.44,2.84,-2.05,-2.06,-2.05
646,-6.33,-4.33,-6.41,-4.40,4.40,2.70,-1.94,-2.01,-2.00
652,-6.28,-4.33,-6.32,-4.35,4.35,2.59,-1.93,-1.97,-1.95
659,-6.33,-4.43,-6.21,-4.30,4.30,2.45,-2.04,-1.92,-1.90
665,-6.16,-4.31,-6.10,-4.24,4.24,2.34,-1.93,-1.86,-1.85
672,-5.90,-4.10,-5.98,-4.17,4.17,2.22,-1.73,-1.81,-1.80
679,-5.92,-4.17,-5.87,-4.11,4.11,2.09,-1.82,-1.76,-1.75
686,-5.84,-4.14,-5.76,-4.04,4.04,1.97,-1.81,-1.72,-1.71
692,-5.67,-4.00,-5.67,-3.96,3.96,1.87,-1.71,-1.70,-1.67
699,-5.44,-3.80,-5.56,-3.89,3.89,1.75,-1.55,-1.67,-1.64
706,-5.45,-3.84,-5.46,-3.81,3.81,1.64,-1.64,-1.65,-1.62
713,-5.33,-3.73,-5.37,-3.74,3.74,1.53,-1.60,-1.63,-1.60
721,-5.11,-3.52,-5.26,-3.66,3.66,1.40,-1.46,-1.61,-1.59
728,-5.10,-3.51,-5.16,-3.58,3.58,1.30,-1.53,-1.58,-1.59
735,-5.09,-3.50,-5.07,-3.50,3.50,1.19,-1.60,-1.57,-1.59
742,-5.05,-3.46,-5.00,-3.41,3.41,1.09,-1.64,-1.58,-1.59
750,-4.97,-3.38,-4.91,-3.33,3.33,0.98,-1.65,-1.58,-1.59
757,-4.86,-3.27,-4.83,-3.23,3.23,0.88,-1.63,-1.59,-1.59
765,-4.73,-3.15,-4.74,-3.13,3.13,0.78,-1.60,-1.60,-1.59
773,-4.65,-3.07,-4.63,-3.03,3.03,0.67,-1.63,-1.60,-1.58
780,-4.45,-2.88,-4.50,-2.91,2.91,0.58,-1.54,-1.59,-1.57
788,-4.28,-2.72,-4.36,-2.78,2.78,0.48,-1.50,-1.58,-1.56
796,-4.26,-2.72,-4.21,-2.65,2.65,0.38,-1.61,-1.56,-1.55
804,-4.19,-2.66,-4.05,-2.50,2.50,0.28,-1.69,-1.55,-1.53
812,-4.03,-2.52,-3.88,-2.35,2.35,0.19,-1.68,-1.53,-1.51
820,-3.71,-2.22,-3.70,-2.19,2.19,0.09,-1.52,-1.51,-1.50
828,-3.49,-2.01,-3.51,-2.02,2.02,0.00,-1.47,-1.49,-1.48
837,-3.19,-1.73,-3.34,-1.85,1.85,-0.10,-1.34,-1.48,-1.47
845,-3.01,-1.56,-3.15,-1.68,1.68,-0.19,-1.33,-1.47,-1.45
853,-2.90,-1.46,-2.96,-1.50,1.50,-0.27,-1.40,-1.45,-1.44
862,-2.78,-1.35,-2.78,-1.33,1.33,-0.37,-1.45,-1.45,-1.43
871,-2.63,-1.21,-2.59,-1.16,1.16,-0.47,-1.48,-1.43,-1.43
879,-2.48,-1.06,-2.39,-0.98,0.98,-0.55,-1.50,-1.41,-1.42
888,-2.16,-0.75,-2.21,-0.81,0.81,-0.64,-1.36,-1.40,-1.42
897,-1.99,-0.58,-2.04,-0.63,0.63,-0.73,-1.36,-1.40,-1.41
906,-1.91,-0.51,-1.87,-0.46,0.46,-0.82,-1.46,-1.41,-1.41
915,-1.74,-0.34,-1.70,-0.28,0.28,-0.91,-1.46,-1.42,-1.40
924,-1.44,-0.05,-1.52,-0.10,0.10,-1.00,-1.34,-1.42,-1.39
933,-1.34,0.04,-1.33,0.08,-0.08,-1.08,-1.42,-1.41,-1.39
943,-1.19,0.19,-1.13,0.26,-0.26,-1.18,-1.46,-1.39,-1.38
952,-0.87,0.50,-0.92,0.45,-0.45,-1.26,-1.33,-1.38,-1.37
962,-0.73,0.63,-0.72,0.64,-0.64,-1.35,-1.37,-1.37,-1.36
971,-0.61,0.74,-0.52,0.83,-0.83,-1.44,-1.44,-1.35,-1.35
981,-0.31,1.02,-0.32,1.01,-1.01,-1.53,-1.32,-1.33,-1.33
991,-0.15,1.17,-0.11,1.19,-1.19,-1.62,-1.34,-1.30,-1.32
1001,0.02,1.32,0.07,1.37,-1.37,-1.71,-1.35,-1.29,-1.30
1011,0.34,1.62,0.26,1.54,-1.54,-1.79,-1.20,-1.27,-1.28
1021,0.58,1.83,0.45,1.70,-1.70,-1.88,-1.12,-1.24,-1.26
1031,0.70,1.93,0.63,1.85,-1.85,-1.97,-1.15,-1.22,-1.23
1041,0.80,2.00,0.79,1.99,-1.99,-2.06,-1.20,-1.20,-1.21
1052,0.99,2.17,0.94,2.13,-2.13,-2.16,-1.14,-1.19,-1.18
1062,1.20,2.35,1.10,2.26,-2.26,-2.24,-1.07,-1.16,-1.15
1073,1.25,2.37,1.27,2.39,-2.39,-2.34,-1.15,-1.12,-1.12
1084,1.32,2.41,1.43,2.52,-2.52,-2.43,-1.20,-1.09,-1.09
1094,1.45,2.51,1.58,2.65,-2.65,-2.52,-1.20,-1.07,-1.06
1105,1.91,2.94,1.73,2.78,-2.78,-2.62,-0.87,-1.04,-1.03
1116,1.85,2.84,1.90,2.91,-2.91,-2.71,-1.07,-1.01,-1.00
1128,1.88,2.84,2.08,3.06,-3.06,-2.82,-1.18,-0.98,-0.96
1139,2.31,3.24,2.26,3.22,-3.22,-2.92,-0.91,-0.95,-0.93
1150,2.49,3.38,2.46,3.39,-3.39,-3.01,-0.90,-0.92,-0.89
1162,2.82,3.67,2.67,3.57,-3.57,-3.12,-0.75,-0.90,-0.86
1173,2.99,3.81,2.90,3.76,-3.76,-3.22,-0.78,-0.86,-0.82
1185,3.08,3.86,3.16,3.97,-3.97,-3.33,-0.90,-0.82,-0.79
1197,3.30,4.04,3.42,4.20,-4.20,-3.44,-0.90,-0.77,-0.75
1209,3.73,4.44,3.70,4.44,-4.44,-3.55,-0.71,-0.74,-0.71
1221,4.00,4.67,3.98,4.69,-4.69,-3.66,-0.70,-0.72,-0.67
1233,4.13,4.77,4.29,4.96,-4.96,-3.78,-0.84,-0.68,-0.64
1246,4.53,5.14,4.60,5.26,-5.26,-3.90,-0.73,-0.66,-0.61
1258,4.95,5.53,4.91,5.56,-5.56,-4.02,-0.62,-0.66,-0.59
1271,5.33,5.90,5.23,5.88,-5.88,-4.14,-0.56,-0.65,-0.57
1283,5.60,6.15,5.56,6.21,-6.21,-4.26,-0.62,-0.66,-0.56
1296,5.98,6.53,5.91,6.56,-6.56,-4.39,-0.58,-0.64,-0.55
1309,6.32,6.87,6.28,6.91,-6.91,-4.53,-0.59,-0.63,-0.55
1322,6.62,7.18,6.65,7.27,-7.27,-4.66,-0.65,-0.62,-0.56
1335,6.92,7.49,7.02,7.63,-7.63,-4.80,-0.72,-0.61,-0.57
1349,7.30,7.88,7.40,8.00,-8.00,-4.94,-0.70,-0.59,-0.59
1362,7.73,8.33,7.76,8.35,-8.35,-5.08,-0.63,-0.59,-0.60
1376,8.06,8.68,8.08,8.70,-8.70,-5.24,-0.65,-0.62,-0.63
1390,8.35,8.99,8.40,9.05,-9.05,-5.39,-0.70,-0.65,-0.65
1404,8.83,9.49,8.71,9.39,-9.39,-5.55,-0.56,-0.68,-0.67
1418,9.31,9.99,9.02,9.72,-9.72,-5.71,-0.41,-0.70,-0.68
1432,9.53,10.22,9.32,10.04,-10.04,-5.87,-0.51,-0.71,-0.70
1446,9.73,10.43,9.64,10.35,-10.35,-6.04,-0.62,-0.72,-0.71
1461,9.97,10.68,9.94,10.66,-10.66,-6.21,-0.69,-0.72,-0.71
1475,10.05,10.75,10.23,10.96,-10.96,-6.38,-0.91,-0.73,-0.71
1490,10.20,10.90,10.53,11.25,-11.25,-6.57,-1.05,-0.72,-0.70
1505,10.53,11.22,10.84,11.53,-11.53,-6.75,-1.01,-0.69,-0.70
1520,11.06,11.75,11.14,11.81,-11.81,-6.94,-0.75,-0.66,-0.69
1535,11.35,12.02,11.44,12.07,-12.07,-7.13,-0.72,-0.63,-0.68
1550,11.70,12.36,11.65,12.31,-12.31,-7.33,-0.61,-0.66,-0.66
1566,12.06,12.70,11.83,12.53,-12.53,-7.54,-0.47,-0.69,-0.64
1582,12.25,12.87,12.05,12.73,-12.73,-7.75,-0.48,-0.67,-0.62
1597,12.39,12.98,12.27,12.90,-12.90,-7.95,-0.51,-0.63,-0.60
1613,12.71,13.27,12.48,13.05,-13.05,-8.16,-0.34,-0.57,-0.57
