frequency,raw,error,smoothed,error_smoothed,equalization,parametric_eq,equalized_raw,equalized_smoothed,target
20,-9.11,-10.75,-9.29,-10.94,6.00,5.72,-3.11,-3.29,1.65
21,-7.50,-9.15,-7.46,-9.11,5.70,5.61,-1.80,-1.76,1.65
22,-5.81,-7.45,-5.74,-7.38,5.19,5.10,-0.62,-0.55,1.65
23,-4.36,-6.01,-4.12,-5.77,4.49,4.32,0.13,0.37,1.65
24,-2.84,-4.49,-2.61,-4.25,3.63,3.39,0.80,1.03,1.65
25,-1.38,-3.03,-1.19,-2.83,2.64,2.40,1.26,1.45,1.65
26,0.07,-1.58,0.12,-1.52,1.52,1.43,1.59,1.65,1.65
27,1.52,-0.13,1.31,-0.34,0.34,0.49,1.86,1.65,1.65
28,2.66,1.01,2.35,0.71,-0.71,-0.39,1.95,1.65,1.65
29,3.31,1.66,3.25,1.60,-1.60,-1.21,1.71,1.65,1.65
30,4.24,2.59,3.98,2.33,-2.33,-1.95,1.90,1.65,1.65
31,4.87,3.22,4.57,2.92,-2.92,-2.60,1.95,1.65,1.65
32,4.71,3.07,5.01,3.37,-3.37,-3.16,1.35,1.65,1.65
33,4.98,3.33,5.34,3.70,-3.70,-3.61,1.28,1.65,1.65
34,5.41,3.77,5.57,3.93,-3.93,-3.95,1.49,1.65,1.65
35,5.87,4.23,5.72,4.07,-4.07,-4.17,1.80,1.65,1.65
36,5.95,4.31,5.79,4.14,-4.14,-4.29,1.81,1.65,1.65
37,5.87,4.22,5.80,4.15,-4.15,-4.31,1.71,1.64,1.64
38,5.76,4.11,5.76,4.11,-4.11,-4.26,1.65,1.64,1.64
39,5.62,3.97,5.66,4.02,-4.02,-4.16,1.60,1.64,1.64
40,5.53,3.89,5.54,3.89,-3.89,-4.01,1.64,1.64,1.64
41,5.37,3.73,5.38,3.74,-3.74,-3.84,1.63,1.64,1.64
42,5.14,3.50,5.22,3.58,-3.58,-3.65,1.56,1.64,1.64
43,5.00,3.36,5.05,3.41,-3.41,-3.45,1.60,1.64,1.64
44,4.83,3.19,4.88,3.24,-3.24,-3.26,1.59,1.64,1.64
45,4.73,3.09,4.72,3.08,-3.08,-3.07,1.64,1.64,1.64
46,4.59,2.95,4.57,2.94,-2.94,-2.89,1.65,1.64,1.64
47,4.38,2.75,4.43,2.79,-2.79,-2.71,1.58,1.63,1.63
48,4.31,2.68,4.29,2.66,-2.66,-2.54,1.65,1.63,1.63
49,4.26,2.63,4.16,2.53,-2.53,-2.39,1.73,1.63,1.63
50,4.00,2.37,4.03,2.41,-2.41,-2.24,1.59,1.63,1.63
51,3.85,2.23,3.91,2.28,-2.28,-2.10,1.57,1.62,1.62
52,3.83,2.21,3.79,2.17,-2.17,-1.98,1.66,1.62,1.62
53,3.62,2.01,3.67,2.05,-2.05,-1.86,1.57,1.62,1.62
54,3.53,1.92,3.55,1.94,-1.94,-1.74,1.59,1.61,1.61
55,3.50,1.89,3.44,1.84,-1.84,-1.64,1.66,1.61,1.61
56,3.38,1.78,3.34,1.74,-1.74,-1.54,1.64,1.60,1.60
57,3.26,1.66,3.24,1.64,-1.64,-1.45,1.62,1.60,1.60
58,3.02,1.43,3.15,1.56,-1.56,-1.36,1.46,1.59,1.59
59,3.19,1.61,3.06,1.48,-1.48,-1.28,1.72,1.58,1.58
60,2.78,1.20,2.97,1.40,-1.40,-1.21,1.38,1.58,1.58
61,2.96,1.39,2.89,1.32,-1.32,-1.14,1.64,1.57,1.57
62,2.85,1.29,2.81,1.25,-1.25,-1.07,1.61,1.56,1.56
63,2.75,1.20,2.72,1.17,-1.17,-1.01,1.58,1.55,1.55
64,2.65,1.11,2.63,1.09,-1.09,-0.95,1.56,1.54,1.54
65,2.55,1.02,2.53,1.00,-1.00,-0.89,1.54,1.53,1.53
66,2.45,0.94,2.43,0.92,-0.92,-0.84,1.53,1.51,1.51
67,2.35,0.85,2.33,0.83,-0.83,-0.79,1.52,1.50,1.50
68,2.05,0.57,2.23,0.75,-0.75,-0.74,1.31,1.49,1.49
69,2.21,0.74,2.13,0.66,-0.66,-0.69,1.55,1.47,1.47
70,2.02,0.56,2.04,0.59,-0.59,-0.65,1.43,1.45,1.45
71,2.08,0.64,1.95,0.51,-0.51,-0.61,1.56,1.44,1.44
72,1.71,0.30,1.86,0.45,-0.45,-0.57,1.27,1.42,1.42
73,1.99,0.60,1.78,0.39,-0.39,-0.53,1.61,1.40,1.40
74,1.45,0.08,1.71,0.33,-0.33,-0.50,1.12,1.37,1.37
75,1.81,0.46,1.63,0.28,-0.28,-0.46,1.53,1.35,1.35
76,1.40,0.07,1.57,0.24,-0.24,-0.43,1.15,1.32,1.32
77,1.40,0.10,1.50,0.20,-0.20,-0.39,1.20,1.30,1.30
78,1.57,0.30,1.43,0.16,-0.16,-0.36,1.41,1.27,1.27
79,1.58,0.34,1.36,0.12,-0.12,-0.33,1.46,1.24,1.24
80,1.06,-0.15,1.28,0.08,-0.08,-0.30,0.99,1.21,1.21
81,1.37,0.19,1.20,0.03,-0.03,-0.27,1.34,1.17,1.17
82,1.11,-0.03,1.12,-0.01,0.01,-0.25,1.12,1.14,1.14
83,0.85,-0.26,1.05,-0.06,0.06,-0.22,0.90,1.10,1.10
84,1.06,-0.01,0.97,-0.09,0.09,-0.19,1.15,1.06,1.06
85,0.84,-0.18,0.90,-0.12,0.12,-0.17,0.96,1.02,1.02
86,1.02,0.04,0.83,-0.15,0.15,-0.15,1.17,0.98,0.98
87,0.62,-0.32,0.77,-0.16,0.16,-0.12,0.78,0.94,0.94
88,0.56,-0.33,0.71,-0.18,0.18,-0.10,0.74,0.89,0.89
89,0.85,0.00,0.65,-0.19,0.19,-0.08,1.04,0.84,0.84
90,0.64,-0.16,0.59,-0.20,0.20,-0.05,0.84,0.79,0.80
91,0.52,-0.22,0.53,-0.22,0.22,-0.03,0.74,0.74,0.74
92,0.45,-0.24,0.46,-0.23,0.23,-0.01,0.68,0.69,0.69
93,0.37,-0.27,0.39,-0.25,0.25,0.01,0.61,0.64,0.64
94,0.31,-0.27,0.33,-0.26,0.26,0.03,0.57,0.59,0.58
95,0.25,-0.28,0.26,-0.27,0.27,0.05,0.52,0.53,0.53
96,0.16,-0.31,0.19,-0.28,0.28,0.07,0.44,0.47,0.47
97,0.10,-0.31,0.12,-0.30,0.30,0.09,0.40,0.41,0.41
98,0.03,-0.32,0.04,-0.31,0.31,0.11,0.34,0.35,0.35
99,0.01,-0.29,-0.04,-0.33,0.33,0.13,0.33,0.29,0.29
100,0.09,-0.15,-0.12,-0.34,0.34,0.15,0.43,0.22,0.23
101,-0.21,-0.38,-0.21,-0.36,0.36,0.17,0.15,0.15,0.17
102,-0.52,-0.62,-0.30,-0.38,0.38,0.18,-0.13,0.08,0.11
104,-0.36,-0.35,-0.39,-0.40,0.40,0.22,0.04,0.01,-0.01
105,-0.48,-0.40,-0.48,-0.42,0.42,0.24,-0.06,-0.06,-0.08
106,-0.54,-0.40,-0.56,-0.43,0.43,0.26,-0.12,-0.13,-0.14
107,-0.63,-0.43,-0.63,-0.44,0.44,0.27,-0.19,-0.20,-0.20
108,-0.72,-0.46,-0.70,-0.44,0.44,0.29,-0.28,-0.26,-0.26
109,-0.78,-0.46,-0.77,-0.45,0.45,0.31,-0.33,-0.32,-0.32
110,-0.89,-0.51,-0.84,-0.46,0.46,0.32,-0.43,-0.38,-0.38
111,-0.85,-0.42,-0.91,-0.47,0.47,0.34,-0.38,-0.44,-0.44
112,-0.78,-0.29,-0.98,-0.48,0.48,0.36,-0.30,-0.50,-0.49
113,-1.16,-0.61,-1.05,-0.49,0.49,0.37,-0.67,-0.56,-0.55
114,-1.27,-0.67,-1.12,-0.51,0.51,0.39,-0.77,-0.61,-0.60
115,-1.01,-0.36,-1.19,-0.51,0.51,0.41,-0.50,-0.67,-0.65
117,-1.40,-0.64,-1.25,-0.52,0.52,0.44,-0.89,-0.73,-0.76
118,-1.34,-0.53,-1.31,-0.52,0.52,0.45,-0.82,-0.79,-0.81
119,-1.29,-0.43,-1.37,-0.52,0.52,0.47,-0.77,-0.85,-0.85
120,-1.43,-0.53,-1.43,-0.52,0.52,0.49,-0.90,-0.91,-0.90
121,-1.47,-0.53,-1.49,-0.53,0.53,0.50,-0.94,-0.96,-0.94
123,-1.57,-0.54,-1.56,-0.54,0.54,0.53,-1.03,-1.01,-1.03
124,-1.60,-0.53,-1.62,-0.56,0.56,0.55,-1.05,-1.06,-1.07
125,-1.66,-0.55,-1.69,-0.57,0.57,0.57,-1.09,-1.11,-1.11
126,-1.69,-0.55,-1.74,-0.59,0.59,0.58,-1.11,-1.16,-1.14
128,-1.78,-0.57,-1.79,-0.59,0.59,0.61,-1.19,-1.20,-1.22
129,-1.97,-0.72,-1.84,-0.59,0.59,0.63,-1.38,-1.24,-1.25
130,-2.05,-0.77,-1.87,-0.58,0.58,0.64,-1.47,-1.28,-1.28
131,-1.92,-0.61,-1.90,-0.57,0.57,0.66,-1.34,-1.32,-1.31
133,-1.70,-0.33,-1.93,-0.56,0.56,0.69,-1.14,-1.36,-1.37
134,-1.90,-0.50,-1.96,-0.56,0.56,0.70,-1.34,-1.40,-1.40
135,-1.96,-0.53,-2.00,-0.56,0.56,0.72,-1.40,-1.44,-1.42
137,-2.05,-0.57,-2.04,-0.57,0.57,0.75,-1.48,-1.47,-1.48
138,-2.11,-0.61,-2.10,-0.59,0.59,0.77,-1.52,-1.51,-1.50
140,-2.20,-0.65,-2.16,-0.62,0.62,0.80,-1.58,-1.54,-1.55
141,-2.25,-0.68,-2.22,-0.64,0.64,0.81,-1.60,-1.57,-1.57
142,-2.28,-0.69,-2.27,-0.67,0.67,0.83,-1.61,-1.60,-1.59
144,-2.35,-0.71,-2.33,-0.70,0.70,0.86,-1.65,-1.63,-1.63
145,-2.35,-0.70,-2.39,-0.73,0.73,0.87,-1.62,-1.66,-1.65
147,-2.45,-0.76,-2.44,-0.75,0.75,0.90,-1.70,-1.69,-1.69
148,-2.48,-0.77,-2.49,-0.78,0.78,0.92,-1.70,-1.71,-1.71
150,-2.53,-0.79,-2.54,-0.80,0.80,0.95,-1.73,-1.74,-1.74
151,-2.43,-0.67,-2.59,-0.82,0.82,0.96,-1.60,-1.76,-1.76
153,-2.77,-0.98,-2.63,-0.85,0.85,0.99,-1.92,-1.78,-1.79
154,-2.90,-1.09,-2.68,-0.87,0.87,1.01,-2.02,-1.81,-1.80
156,-2.61,-0.78,-2.72,-0.90,0.90,1.04,-1.71,-1.83,-1.83
157,-2.59,-0.75,-2.77,-0.92,0.92,1.06,-1.67,-1.85,-1.84
159,-2.85,-0.98,-2.81,-0.94,0.94,1.09,-1.91,-1.87,-1.87
160,-2.92,-1.04,-2.86,-0.97,0.97,1.10,-1.95,-1.88,-1.88
162,-3.03,-1.13,-2.90,-1.00,1.00,1.13,-2.02,-1.90,-1.90
164,-2.82,-0.90,-2.96,-1.04,1.04,1.16,-1.78,-1.92,-1.92
165,-2.98,-1.05,-3.02,-1.09,1.09,1.18,-1.89,-1.93,-1.93
167,-3.06,-1.12,-3.08,-1.14,1.14,1.21,-1.92,-1.94,-1.94
169,-3.17,-1.21,-3.15,-1.20,1.20,1.24,-1.97,-1.95,-1.96
170,-3.18,-1.21,-3.22,-1.25,1.25,1.26,-1.92,-1.96,-1.96
172,-3.33,-1.36,-3.29,-1.31,1.31,1.29,-2.02,-1.97,-1.97
174,-3.50,-1.52,-3.35,-1.37,1.37,1.32,-2.13,-1.98,-1.98
175,-3.37,-1.39,-3.40,-1.42,1.42,1.33,-1.95,-1.99,-1.98
177,-3.34,-1.35,-3.46,-1.47,1.47,1.37,-1.87,-1.99,-1.99
179,-3.50,-1.50,-3.51,-1.51,1.51,1.40,-1.99,-1.99,-1.99
181,-3.60,-1.60,-3.55,-1.56,1.56,1.43,-2.04,-2.00,-2.00
183,-3.65,-1.65,-3.60,-1.60,1.60,1.46,-2.05,-2.00,-2.00
184,-3.68,-1.69,-3.64,-1.64,1.64,1.48,-2.04,-2.00,-2.00
186,-3.57,-1.57,-3.68,-1.69,1.69,1.51,-1.88,-2.00,-2.00
188,-3.56,-1.56,-3.73,-1.73,1.73,1.54,-1.83,-1.99,-1.99
190,-3.91,-1.92,-3.77,-1.78,1.78,1.57,-2.14,-1.99,-1.99
192,-3.94,-1.95,-3.81,-1.82,1.82,1.60,-2.12,-1.99,-1.99
194,-3.81,-1.82,-3.85,-1.86,1.86,1.63,-1.95,-1.99,-1.99
196,-3.86,-1.88,-3.88,-1.90,1.90,1.67,-1.96,-1.98,-1.98
198,-3.90,-1.92,-3.92,-1.94,1.94,1.70,-1.96,-1.98,-1.98
200,-3.97,-2.00,-3.96,-1.98,1.98,1.73,-1.99,-1.98,-1.98
202,-3.97,-1.99,-4.00,-2.03,2.03,1.76,-1.94,-1.97,-1.97
204,-4.01,-2.04,-4.05,-2.08,2.08,1.79,-1.94,-1.97,-1.97
206,-4.06,-2.10,-4.09,-2.13,2.13,1.83,-1.93,-1.97,-1.97
208,-4.15,-2.19,-4.14,-2.18,2.18,1.86,-1.97,-1.96,-1.96
210,-4.16,-2.21,-4.18,-2.22,2.22,1.89,-1.94,-1.96,-1.96
212,-4.22,-2.26,-4.22,-2.26,2.26,1.92,-1.95,-1.95,-1.95
214,-4.43,-2.48,-4.25,-2.30,2.30,1.96,-2.13,-1.95,-1.95
216,-4.37,-2.43,-4.27,-2.33,2.33,1.99,-2.05,-1.95,-1.95
218,-4.14,-2.19,-4.30,-2.35,2.35,2.02,-1.78,-1.94,-1.94
221,-4.29,-2.35,-4.32,-2.38,2.38,2.07,-1.91,-1.94,-1.94
223,-4.38,-2.45,-4.35,-2.41,2.41,2.10,-1.97,-1.93,-1.93
225,-4.26,-2.33,-4.38,-2.45,2.45,2.13,-1.81,-1.93,-1.93
227,-4.29,-2.37,-4.42,-2.49,2.49,2.17,-1.80,-1.92,-1.92
229,-4.48,-2.56,-4.45,-2.54,2.54,2.20,-1.94,-1.92,-1.92
232,-4.67,-2.76,-4.49,-2.58,2.58,2.25,-2.09,-1.91,-1.91
234,-4.69,-2.79,-4.52,-2.62,2.62,2.28,-2.07,-1.90,-1.90
236,-4.48,-2.59,-4.55,-2.65,2.65,2.31,-1.83,-1.89,-1.89
239,-4.43,-2.55,-4.56,-2.68,2.68,2.36,-1.75,-1.88,-1.89
241,-4.61,-2.73,-4.58,-2.70,2.70,2.40,-1.90,-1.88,-1.88
244,-4.60,-2.73,-4.59,-2.72,2.72,2.45,-1.88,-1.87,-1.87
246,-4.58,-2.72,-4.60,-2.74,2.74,2.48,-1.83,-1.86,-1.86
248,-4.58,-2.73,-4.61,-2.77,2.77,2.51,-1.81,-1.85,-1.85
251,-4.64,-2.80,-4.63,-2.80,2.80,2.56,-1.84,-1.84,-1.84
253,-4.68,-2.86,-4.65,-2.83,2.83,2.59,-1.86,-1.83,-1.83
256,-4.71,-2.90,-4.68,-2.86,2.86,2.64,-1.85,-1.81,-1.81
259,-4.70,-2.90,-4.70,-2.90,2.90,2.69,-1.80,-1.80,-1.80
261,-4.70,-2.90,-4.73,-2.94,2.94,2.72,-1.76,-1.79,-1.79
264,-4.71,-2.93,-4.76,-2.98,2.98,2.77,-1.74,-1.78,-1.78
266,-4.79,-3.02,-4.79,-3.02,3.02,2.81,-1.77,-1.77,-1.77
269,-4.85,-3.09,-4.83,-3.06,3.06,2.85,-1.79,-1.76,-1.76
272,-4.91,-3.15,-4.86,-3.11,3.11,2.90,-1.80,-1.75,-1.75
274,-4.91,-3.16,-4.89,-3.15,3.15,2.94,-1.76,-1.75,-1.74
277,-4.91,-3.18,-4.93,-3.19,3.19,2.98,-1.72,-1.74,-1.74
280,-4.91,-3.18,-4.96,-3.23,3.23,3.03,-1.68,-1.73,-1.73
283,-4.99,-3.27,-4.99,-3.27,3.27,3.08,-1.72,-1.72,-1.72
286,-5.04,-3.33,-5.02,-3.31,3.31,3.13,-1.73,-1.71,-1.71
288,-5.10,-3.39,-5.05,-3.35,3.35,3.16,-1.75,-1.70,-1.70
291,-5.08,-3.39,-5.08,-3.38,3.38,3.21,-1.70,-1.69,-1.69
294,-5.07,-3.39,-5.11,-3.42,3.42,3.26,-1.65,-1.69,-1.69
297,-5.10,-3.43,-5.13,-3.45,3.45,3.31,-1.65,-1.68,-1.68
300,-5.15,-3.48,-5.16,-3.49,3.49,3.35,-1.66,-1.67,-1.67
303,-5.22,-3.56,-5.19,-3.53,3.53,3.40,-1.70,-1.66,-1.66
306,-5.23,-3.57,-5.22,-3.56,3.56,3.45,-1.67,-1.66,-1.66
309,-5.22,-3.57,-5.24,-3.59,3.59,3.50,-1.63,-1.65,-1.65
312,-5.21,-3.57,-5.26,-3.62,3.62,3.54,-1.59,-1.64,-1.64
316,-5.30,-3.67,-5.28,-3.64,3.64,3.60,-1.66,-1.64,-1.64
319,-5.45,-3.82,-5.29,-3.66,3.66,3.65,-1.79,-1.63,-1.63
322,-5.33,-3.71,-5.30,-3.68,3.68,3.70,-1.65,-1.62,-1.62
325,-5.16,-3.55,-5.31,-3.69,3.69,3.74,-1.47,-1.62,-1.62
328,-5.27,-3.65,-5.32,-3.71,3.71,3.79,-1.55,-1.61,-1.61
332,-5.41,-3.80,-5.35,-3.74,3.74,3.85,-1.67,-1.61,-1.61
335,-5.41,-3.81,-5.38,-3.77,3.77,3.89,-1.64,-1.60,-1.60
338,-5.41,-3.82,-5.41,-3.82,3.82,3.94,-1.60,-1.60,-1.60
342,-5.30,-3.71,-5.45,-3.86,3.86,4.00,-1.44,-1.59,-1.59
345,-5.35,-3.77,-5.50,-3.91,3.91,4.04,-1.44,-1.59,-1.59
349,-5.71,-4.13,-5.54,-3.95,3.95,4.10,-1.76,-1.58,-1.58
352,-5.72,-4.14,-5.57,-3.99,3.99,4.14,-1.73,-1.58,-1.58
356,-5.61,-4.04,-5.58,-4.01,4.01,4.20,-1.60,-1.58,-1.58
359,-5.61,-4.04,-5.59,-4.02,4.02,4.24,-1.59,-1.57,-1.57
363,-5.60,-4.03,-5.59,-4.02,4.02,4.29,-1.58,-1.57,-1.57
366,-5.60,-4.03,-5.60,-4.03,4.03,4.33,-1.57,-1.57,-1.57
370,-5.52,-3.96,-5.60,-4.04,4.04,4.39,-1.48,-1.57,-1.57
374,-5.46,-3.90,-5.61,-4.05,4.05,4.44,-1.41,-1.56,-1.56
377,-5.62,-4.06,-5.63,-4.07,4.07,4.48,-1.54,-1.56,-1.56
381,-5.67,-4.11,-5.66,-4.11,4.11,4.53,-1.56,-1.56,-1.56
385,-5.72,-4.17,-5.69,-4.14,4.14,4.58,-1.58,-1.55,-1.55
389,-5.88,-4.33,-5.72,-4.17,4.17,4.63,-1.70,-1.55,-1.55
393,-5.79,-4.25,-5.74,-4.20,4.20,4.68,-1.59,-1.54,-1.54
397,-5.75,-4.22,-5.76,-4.23,4.23,4.73,-1.52,-1.53,-1.53
401,-5.75,-4.23,-5.78,-4.26,4.26,4.78,-1.49,-1.52,-1.52
405,-5.75,-4.24,-5.80,-4.29,4.29,4.83,-1.46,-1.51,-1.51
409,-5.76,-4.26,-5.82,-4.33,4.33,4.87,-1.43,-1.49,-1.50
413,-5.86,-4.38,-5.85,-4.37,4.37,4.92,-1.49,-1.48,-1.48
417,-5.86,-4.40,-5.88,-4.42,4.42,4.96,-1.44,-1.46,-1.46
421,-5.93,-4.49,-5.92,-4.48,4.48,5.00,-1.44,-1.43,-1.44
425,-5.86,-4.45,-5.95,-4.55,4.55,5.04,-1.31,-1.41,-1.41
430,-6.09,-4.70,-5.99,-4.61,4.61,5.09,-1.48,-1.38,-1.38
434,-6.22,-4.87,-6.02,-4.67,4.67,5.13,-1.55,-1.35,-1.35
438,-6.01,-4.70,-6.04,-4.73,4.73,5.17,-1.29,-1.31,-1.32
443,-5.98,-4.70,-6.07,-4.79,4.79,5.22,-1.19,-1.28,-1.28
447,-6.05,-4.81,-6.09,-4.85,4.85,5.25,-1.20,-1.24,-1.24
451,-6.03,-4.83,-6.12,-4.92,4.92,5.29,-1.11,-1.20,-1.20
456,-6.18,-5.02,-6.15,-4.99,4.99,5.33,-1.19,-1.16,-1.16
460,-6.15,-5.03,-6.18,-5.06,5.06,5.36,-1.08,-1.12,-1.12
465,-6.21,-5.13,-6.21,-5.14,5.14,5.40,-1.07,-1.08,-1.08
470,-6.28,-5.25,-6.24,-5.20,5.20,5.43,-1.08,-1.04,-1.03
474,-6.37,-5.38,-6.26,-5.26,5.26,5.46,-1.11,-1.00,-1.00
479,-6.33,-5.37,-6.27,-5.32,5.32,5.49,-1.01,-0.96,-0.96
484,-6.21,-5.29,-6.28,-5.36,5.36,5.52,-0.85,-0.92,-0.92
489,-6.27,-5.38,-6.29,-5.39,5.39,5.55,-0.88,-0.89,-0.89
494,-6.29,-5.43,-6.29,-5.42,5.42,5.58,-0.87,-0.87,-0.86
499,-6.27,-5.42,-6.29,-5.45,5.45,5.60,-0.81,-0.84,-0.84
504,-6.25,-5.42,-6.30,-5.48,5.48,5.63,-0.77,-0.82,-0.82
509,-6.32,-5.52,-6.32,-5.51,5.51,5.65,-0.81,-0.81,-0.81
514,-6.36,-5.56,-6.34,-5.54,5.54,5.67,-0.81,-0.80,-0.80
519,-6.41,-5.62,-6.37,-5.57,5.57,5.69,-0.83,-0.79,-0.79
524,-6.41,-5.62,-6.39,-5.60,5.60,5.70,-0.81,-0.79,-0.79
529,-6.42,-5.63,-6.42,-5.63,5.63,5.72,-0.79,-0.79,-0.79
535,-6.44,-5.65,-6.46,-5.66,5.66,5.73,-0.78,-0.79,-0.79
540,-6.47,-5.67,-6.49,-5.69,5.69,5.74,-0.78,-0.80,-0.80
545,-6.51,-5.70,-6.53,-5.72,5.72,5.75,-0.79,-0.81,-0.81
551,-6.56,-5.74,-6.57,-5.75,5.75,5.75,-0.81,-0.82,-0.82
556,-6.61,-5.78,-6.62,-5.78,5.78,5.76,-0.83,-0.83,-0.83
562,-6.66,-5.82,-6.66,-5.82,5.82,5.76,-0.84,-0.84,-0.84
568,-6.71,-5.86,-6.71,-5.85,5.85,5.76,-0.86,-0.85,-0.85
573,-6.75,-5.89,-6.75,-5.89,5.89,5.76,-0.87,-0.86,-0.86
579,-6.79,-5.92,-6.79,-5.92,5.92,5.76,-0.87,-0.87,-0.87
585,-6.81,-5.94,-6.82,-5.95,5.95,5.75,-0.87,-0.87,-0.87
591,-6.83,-5.96,-6.84,-5.97,5.97,5.74,-0.86,-0.87,-0.87
596,-6.83,-5.97,-6.84,-5.98,5.98,5.73,-0.86,-0.87,-0.87
602,-6.83,-5.97,-6.83,-5.97,5.97,5.72,-0.86,-0.86,-0.86
608,-6.82,-5.97,-6.81,-5.96,5.96,5.71,-0.86,-0.85,-0.85
615,-6.84,-6.01,-6.76,-5.93,5.93,5.69,-0.91,-0.83,-0.83
621,-6.82,-6.01,-6.71,-5.90,5.90,5.67,-0.92,-0.81,-0.81
627,-6.54,-5.75,-6.64,-5.85,5.85,5.65,-0.69,-0.79,-0.79
633,-6.50,-5.73,-6.57,-5.80,5.80,5.63,-0.69,-0.76,-0.76
639,-6.49,-5.76,-6.48,-5.75,5.75,5.61,-0.75,-0.74,-0.74
646,-6.33,-5.62,-6.40,-5.69,5.69,5.58,-0.64,-0.71,-0.71
652,-6.28,-5.61,-6.31,-5.63,5.63,5.55,-0.65,-0.67,-0.67
659,-6.33,-5.69,-6.21,-5.57,5.57,5.51,-0.75,-0.64,-0.64
665,-6.16,-5.56,-6.11,-5.50,5.50,5.48,-0.66,-0.61,-0.60
672,-5.90,-5.33,-6.00,-5.43,5.43,5.44,-0.47,-0.57,-0.57
679,-5.92,-5.38,-5.89,-5.35,5.35,5.40,-0.57,-0.54,-0.54
686,-5.84,-5.33,-5.77,-5.27,5.27,5.35,-0.57,-0.50,-0.50
692,-5.67,-5.20,-5.65,-5.18,5.18,5.30,-0.49,-0.47,-0.47
699,-5.44,-5.00,-5.53,-5.09,5.09,5.24,-0.35,-0.44,-0.44
706,-5.45,-5.04,-5.42,-5.01,5.01,5.17,-0.44,-0.41,-0.41
713,-5.33,-4.94,-5.32,-4.94,4.94,5.10,-0.39,-0.39,-0.39
721,-5.11,-4.75,-5.23,-4.87,4.87,5.01,-0.24,-0.36,-0.36
728,-5.10,-4.77,-5.15,-4.81,4.81,4.93,-0.30,-0.34,-0.34
735,-5.09,-4.77,-5.07,-4.75,4.75,4.84,-0.34,-0.32,-0.32
742,-5.05,-4.74,-4.99,-4.69,4.69,4.74,-0.35,-0.30,-0.30
750,-4.97,-4.68,-4.92,-4.63,4.63,4.62,-0.34,-0.29,-0.28
757,-4.86,-4.59,-4.83,-4.56,4.56,4.52,-0.30,-0.27,-0.27
765,-4.73,-4.48,-4.74,-4.48,4.48,4.39,-0.25,-0.26,-0.26
773,-4.65,-4.40,-4.63,-4.39,4.39,4.26,-0.26,-0.25,-0.25
780,-4.45,-4.21,-4.52,-4.28,4.28,4.14,-0.17,-0.24,-0.24
788,-4.28,-4.06,-4.38,-4.15,4.15,4.00,-0.13,-0.23,-0.23
796,-4.26,-4.04,-4.23,-4.01,4.01,3.87,-0.25,-0.22,-0.22
804,-4.19,-3.98,-4.07,-3.86,3.86,3.72,-0.33,-0.21,-0.21
812,-4.03,-3.82,-3.89,-3.69,3.69,3.58,-0.34,-0.20,-0.20
820,-3.71,-3.52,-3.70,-3.51,3.51,3.44,-0.21,-0.20,-0.20
828,-3.49,-3.30,-3.51,-3.32,3.32,3.29,-0.17,-0.19,-0.19
837,-3.19,-3.01,-3.31,-3.13,3.13,3.12,-0.07,-0.18,-0.18
845,-3.01,-2.84,-3.12,-2.94,2.94,2.97,-0.07,-0.18,-0.18
853,-2.90,-2.73,-2.93,-2.76,2.76,2.82,-0.14,-0.17,-0.17
862,-2.78,-2.62,-2.75,-2.58,2.58,2.65,-0.20,-0.16,-0.16
871,-2.63,-2.47,-2.57,-2.41,2.41,2.48,-0.21,-0.15,-0.15
879,-2.48,-2.34,-2.40,-2.25,2.25,2.32,-0.23,-0.15,-0.15
888,-2.16,-2.02,-2.22,-2.08,2.08,2.14,-0.08,-0.14,-0.14
897,-1.99,-1.86,-2.05,-1.92,1.92,1.96,-0.07,-0.13,-0.13
906,-1.91,-1.79,-1.87,-1.75,1.75,1.78,-0.16,-0.12,-0.12
915,-1.74,-1.63,-1.69,-1.58,1.58,1.60,-0.16,-0.11,-0.11
924,-1.44,-1.33,-1.51,-1.41,1.41,1.42,-0.03,-0.10,-0.10
933,-1.34,-1.25,-1.32,-1.23,1.23,1.23,-0.11,-0.09,-0.09
943,-1.19,-1.11,-1.13,-1.05,1.05,1.03,-0.14,-0.08,-0.08
952,-0.87,-0.80,-0.94,-0.87,0.87,0.84,0.00,-0.07,-0.07
962,-0.73,-0.67,-0.74,-0.68,0.68,0.64,-0.04,-0.05,-0.05
971,-0.61,-0.57,-0.53,-0.49,0.49,0.47,-0.12,-0.04,-0.04
981,-0.31,-0.28,-0.33,-0.30,0.30,0.27,-0.01,-0.02,-0.02
991,-0.15,-0.14,-0.12,-0.11,0.11,0.09,-0.04,-0.01,-0.01
1001,0.02,0.00,0.09,0.08,-0.08,-0.09,-0.06,0.01,0.01
1011,0.34,0.31,0.29,0.26,-0.26,-0.26,0.08,0.03,0.03
1021,0.58,0.53,0.48,0.43,-0.43,-0.41,0.15,0.06,0.05
1031,0.70,0.62,0.66,0.58,-0.58,-0.56,0.11,0.08,0.08
1041,0.80,0.70,0.83,0.72,-0.72,-0.70,0.08,0.10,0.10
1052,0.99,0.86,0.98,0.85,-0.85,-0.84,0.14,0.13,0.13
1062,1.20,1.04,1.12,0.96,-0.96,-0.96,0.24,0.16,0.16
1073,1.25,1.06,1.27,1.07,-1.07,-1.08,0.18,0.19,0.19
1084,1.32,1.10,1.41,1.19,-1.19,-1.20,0.14,0.22,0.22
1094,1.45,1.19,1.56,1.30,-1.30,-1.31,0.14,0.25,0.25
1105,1.91,1.63,1.72,1.43,-1.43,-1.43,0.48,0.29,0.29
1116,1.85,1.53,1.89,1.57,-1.57,-1.56,0.28,0.32,0.32
1128,1.88,1.53,2.07,1.72,-1.72,-1.71,0.17,0.36,0.36
1139,2.31,1.92,2.27,1.88,-1.88,-1.86,0.43,0.39,0.39
1150,2.49,2.07,2.48,2.05,-2.05,-2.02,0.44,0.42,0.42
1162,2.82,2.37,2.69,2.24,-2.24,-2.22,0.59,0.46,0.46
1173,2.99,2.50,2.92,2.43,-2.43,-2.42,0.56,0.49,0.49
1185,3.08,2.56,3.16,2.64,-2.64,-2.65,0.44,0.52,0.52
1197,3.30,2.75,3.41,2.86,-2.86,-2.89,0.44,0.55,0.55
1209,3.73,3.16,3.68,3.10,-3.10,-3.15,0.63,0.57,0.57
1221,4.00,3.40,3.96,3.36,-3.36,-3.42,0.64,0.60,0.60
1233,4.13,3.51,4.26,3.64,-3.64,-3.70,0.49,0.62,0.62
1246,4.53,3.89,4.58,3.94,-3.94,-4.01,0.58,0.64,0.64
1258,4.95,4.30,4.91,4.26,-4.26,-4.30,0.70,0.65,0.65
1271,5.33,4.66,5.25,4.58,-4.58,-4.62,0.75,0.67,0.67
1283,5.60,4.92,5.59,4.92,-4.92,-4.91,0.68,0.68,0.68
1296,5.98,5.30,5.94,5.25,-5.25,-5.24,0.73,0.68,0.68
1309,6.32,5.63,6.28,5.60,-5.60,-5.56,0.72,0.69,0.69
1322,6.62,5.94,6.64,5.95,-5.95,-5.88,0.67,0.69,0.69
1335,6.92,6.23,7.00,6.31,-6.31,-6.21,0.60,0.68,0.68
1349,7.30,6.62,7.36,6.68,-6.68,-6.56,0.62,0.68,0.68
1362,7.73,7.05,7.73,7.05,-7.05,-6.89,0.67,0.67,0.67
1376,8.06,7.40,8.09,7.43,-7.43,-7.24,0.64,0.67,0.67
1390,8.35,7.69,8.45,7.79,-7.79,-7.59,0.56,0.66,0.66
1404,8.83,8.18,8.79,8.14,-8.14,-7.94,0.69,0.65,0.65
1418,9.31,8.67,9.10,8.46,-8.46,-8.29,0.86,0.64,0.64
1432,9.53,8.89,9.39,8.76,-8.76,-8.64,0.77,0.63,0.63
1446,9.73,9.11,9.66,9.03,-9.03,-8.98,0.70,0.63,0.63
1461,9.97,9.35,9.92,9.30,-9.30,-9.34,0.67,0.62,0.62
1475,10.05,9.44,10.18,9.56,-9.56,-9.67,0.49,0.62,0.62
1490,10.20,9.59,10.45,9.83,-9.83,-10.00,0.37,0.62,0.61
1505,10.53,9.91,10.74,10.12,-10.12,-10.33,0.41,0.62,0.62
1520,11.06,10.44,11.04,10.42,-10.42,-10.63,0.64,0.62,0.62
1535,11.35,10.72,11.36,10.72,-10.72,-10.91,0.63,0.63,0.63
1550,11.70,11.05,11.67,11.02,-11.02,-11.17,0.68,0.65,0.65
1566,12.06,11.39,11.95,11.28,-11.28,-11.40,0.77,0.67,0.67
1582,12.25,11.56,12.20,11.51,-11.51,-11.60,0.74,0.69,0.69
1597,12.39,11.67,12.40,11.67,-11.67,-11.75,0.71,0.72,0.72
1613,12.71,11.96,12.54,11.79,-11.79,-11.86,0.92,0.76,0.75
1629,12.94,12.15,12.65,11.86,-11.86,-11.93,1.09,0.80,0.79
1646,12.86,12.02,12.73,11.88,-11.88,-11.95,0.98,0.84,0.84
1662,12.45,11.56,12.78,11.89,-11.89,-11.93,0.57,0.89,0.89
1679,12.50,11.55,12.82,11.87,-11.87,-11.86,0.62,0.95,0.95
1696,12.25,11.24,12.85,11.84,-11.84,-11.75,0.41,1.01,1.01
