frequency,raw,error,smoothed,error_smoothed,equalization,parametric_eq,equalized_raw,equalized_smoothed,target
20.00,-39.24,-36.51,-39.31,-36.56,6.00,2.70,-33.24,-33.31,-2.73
20.20,-39.14,-36.41,-39.17,-36.43,6.00,2.78,-33.14,-33.17,-2.73
20.40,-39.04,-36.31,-39.04,-36.30,6.00,2.86,-33.04,-33.04,-2.73
20.61,-38.94,-36.21,-38.91,-36.17,6.00,2.94,-32.94,-32.91,-2.73
20.81,-38.84,-36.11,-38.78,-36.04,6.00,3.03,-32.84,-32.78,-2.73
21.02,-38.73,-36.00,-38.65,-35.91,6.00,3.11,-32.73,-32.65,-2.73
21.23,-38.57,-35.84,-38.52,-35.78,6.00,3.20,-32.57,-32.52,-2.73
21.44,-38.41,-35.68,-38.39,-35.65,6.00,3.30,-32.41,-32.39,-2.73
21.66,-38.25,-35.52,-38.26,-35.52,6.00,3.39,-32.25,-32.26,-2.73
21.87,-38.09,-35.36,-38.13,-35.39,6.00,3.49,-32.09,-32.13,-2.73
22.09,-37.95,-35.22,-38.00,-35.26,6.00,3.59,-31.95,-32.00,-2.73
22.31,-37.83,-35.10,-37.87,-35.13,6.00,3.69,-31.83,-31.87,-2.73
22.54,-37.72,-34.99,-37.74,-35.00,6.00,3.79,-31.72,-31.74,-2.73
22.76,-37.60,-34.87,-37.61,-34.87,6.00,3.90,-31.60,-31.61,-2.73
22.99,-37.49,-34.76,-37.47,-34.75,6.00,4.01,-31.49,-31.47,-2.73
23.22,-37.36,-34.63,-37.35,-34.62,6.00,4.13,-31.36,-31.35,-2.73
23.45,-37.23,-34.50,-37.22,-34.49,6.00,4.24,-31.23,-31.22,-2.73
23.69,-37.11,-34.38,-37.10,-34.37,6.00,4.36,-31.11,-31.10,-2.73
23.92,-36.98,-34.25,-36.98,-34.24,6.00,4.48,-30.98,-30.98,-2.73
24.16,-36.85,-34.12,-36.86,-34.12,6.00,4.60,-30.85,-30.86,-2.73
24.40,-36.72,-33.99,-36.73,-33.99,6.00,4.73,-30.72,-30.73,-2.73
24.65,-36.59,-33.86,-36.60,-33.86,6.00,4.86,-30.59,-30.60,-2.73
24.89,-36.47,-33.74,-36.46,-33.73,6.00,4.99,-30.47,-30.46,-2.73
25.14,-36.33,-33.60,-36.33,-33.59,6.00,5.12,-30.33,-30.33,-2.73
25.39,-36.20,-33.47,-36.19,-33.45,6.00,5.25,-30.20,-30.19,-2.73
25.65,-36.06,-33.33,-36.05,-33.32,6.00,5.38,-30.06,-30.05,-2.73
25.91,-35.93,-33.20,-35.91,-33.18,6.00,5.51,-29.93,-29.91,-2.73
26.16,-35.78,-33.05,-35.76,-33.03,6.00,5.65,-29.78,-29.76,-2.73
26.43,-35.62,-32.90,-35.62,-32.89,6.00,5.78,-29.62,-29.62,-2.73
26.69,-35.46,-32.73,-35.48,-32.75,6.00,5.91,-29.46,-29.48,-2.73
26.96,-35.31,-32.58,-35.34,-32.60,6.00,6.04,-29.31,-29.34,-2.73
27.23,-35.17,-32.44,-35.19,-32.46,6.00,6.17,-29.17,-29.19,-2.73
27.50,-35.03,-32.30,-35.05,-32.31,6.00,6.29,-29.03,-29.05,-2.73
27.77,-34.89,-32.16,-34.90,-32.16,6.00,6.42,-28.89,-28.90,-2.73
28.05,-34.75,-32.02,-34.75,-32.02,6.00,6.53,-28.75,-28.75,-2.73
28.33,-34.62,-31.89,-34.61,-31.87,6.00,6.65,-28.62,-28.61,-2.73
28.62,-34.48,-31.75,-34.46,-31.72,6.00,6.75,-28.48,-28.46,-2.73
28.90,-34.35,-31.62,-34.31,-31.58,6.00,6.85,-28.35,-28.31,-2.73
29.19,-34.19,-31.46,-34.17,-31.44,6.00,6.95,-28.19,-28.17,-2.73
29.48,-34.03,-31.30,-34.02,-31.30,6.00,7.03,-28.03,-28.02,-2.73
29.78,-33.87,-31.14,-33.88,-31.16,6.00,7.11,-27.87,-27.88,-2.73
30.08,-33.72,-31.00,-33.75,-31.02,6.00,7.18,-27.72,-27.75,-2.73
30.38,-33.59,-30.86,-33.63,-30.89,6.00,7.24,-27.59,-27.63,-2.73
30.68,-33.46,-30.73,-33.50,-30.75,6.00,7.29,-27.46,-27.50,-2.73
30.99,-33.33,-30.60,-33.37,-30.62,6.00,7.33,-27.33,-27.37,-2.73
31.30,-33.20,-30.47,-33.24,-30.49,6.00,7.36,-27.20,-27.24,-2.73
31.61,-33.07,-30.34,-33.10,-30.36,6.00,7.37,-27.07,-27.10,-2.73
31.93,-32.94,-30.21,-32.96,-30.22,6.00,7.38,-26.94,-26.96,-2.73
32.24,-32.85,-30.12,-32.83,-30.08,6.00,7.38,-26.85,-26.83,-2.73
32.57,-32.77,-30.04,-32.69,-29.94,6.00,7.37,-26.77,-26.69,-2.73
32.89,-32.70,-29.97,-32.55,-29.80,6.00,7.35,-26.70,-26.55,-2.73
33.22,-32.51,-29.78,-32.41,-29.66,6.00,7.32,-26.51,-26.41,-2.73
33.55,-32.27,-29.54,-32.26,-29.51,6.00,7.28,-26.27,-26.26,-2.73
33.89,-32.03,-29.30,-32.11,-29.36,6.00,7.24,-26.03,-26.11,-2.73
34.23,-31.86,-29.13,-31.95,-29.20,6.00,7.19,-25.86,-25.95,-2.73
34.57,-31.74,-29.01,-31.79,-29.04,6.00,7.13,-25.74,-25.79,-2.73
34.92,-31.61,-28.88,-31.63,-28.88,6.00,7.07,-25.61,-25.63,-2.73
35.27,-31.46,-28.73,-31.46,-28.71,6.00,7.00,-25.46,-25.46,-2.73
35.62,-31.31,-28.58,-31.29,-28.55,6.00,6.93,-25.31,-25.29,-2.73
35.97,-31.15,-28.42,-31.11,-28.39,6.00,6.86,-25.15,-25.11,-2.73
36.33,-30.98,-28.25,-30.95,-28.23,6.00,6.79,-24.98,-24.95,-2.73
36.70,-30.81,-28.08,-30.80,-28.08,6.00,6.72,-24.81,-24.80,-2.73
37.06,-30.65,-27.92,-30.66,-27.92,6.00,6.64,-24.65,-24.66,-2.73
37.43,-30.50,-27.77,-30.52,-27.77,6.00,6.57,-24.50,-24.52,-2.73
37.81,-30.36,-27.63,-30.38,-27.63,6.00,6.49,-24.36,-24.38,-2.73
38.19,-30.20,-27.47,-30.22,-27.48,6.00,6.42,-24.20,-24.22,-2.73
38.57,-30.01,-27.28,-30.07,-27.34,6.00,6.35,-24.01,-24.07,-2.73
38.95,-29.82,-27.09,-29.92,-27.19,6.00,6.28,-23.82,-23.92,-2.73
39.34,-29.78,-27.05,-29.79,-27.05,6.00,6.22,-23.78,-23.79,-2.73
39.74,-29.76,-27.03,-29.65,-26.91,6.00,6.15,-23.76,-23.65,-2.73
40.14,-29.66,-26.93,-29.51,-26.77,6.00,6.09,-23.66,-23.51,-2.73
40.54,-29.40,-26.67,-29.37,-26.63,6.00,6.03,-23.40,-23.37,-2.73
40.94,-29.14,-26.41,-29.22,-26.48,6.00,5.98,-23.14,-23.22,-2.73
41.35,-28.99,-26.26,-29.07,-26.33,6.00,5.93,-22.99,-23.07,-2.73
41.76,-28.86,-26.13,-28.92,-26.19,6.00,5.88,-22.86,-22.92,-2.73
42.18,-28.76,-26.03,-28.76,-26.04,6.00,5.84,-22.76,-22.76,-2.73
42.60,-28.70,-25.97,-28.62,-25.88,6.00,5.80,-22.70,-22.62,-2.73
43.03,-28.62,-25.89,-28.47,-25.73,6.00,5.77,-22.62,-22.47,-2.73
43.46,-28.34,-25.61,-28.32,-25.57,6.00,5.74,-22.34,-22.32,-2.73
43.90,-28.07,-25.35,-28.15,-25.42,6.00,5.72,-22.07,-22.15,-2.73
44.33,-27.90,-25.17,-27.99,-25.26,6.00,5.69,-21.90,-21.99,-2.73
44.78,-27.77,-25.04,-27.84,-25.10,6.00,5.68,-21.77,-21.84,-2.73
45.23,-27.64,-24.91,-27.68,-24.95,6.00,5.67,-21.64,-21.68,-2.73
45.68,-27.52,-24.79,-27.52,-24.79,6.00,5.66,-21.52,-21.52,-2.73
46.13,-27.41,-24.68,-27.36,-24.63,6.00,5.65,-21.41,-21.36,-2.73
46.60,-27.30,-24.57,-27.21,-24.48,6.00,5.65,-21.30,-21.21,-2.73
47.06,-27.17,-24.44,-27.06,-24.32,6.00,5.66,-21.17,-21.06,-2.73
47.53,-26.90,-24.17,-26.91,-24.17,6.00,5.67,-20.90,-20.91,-2.73
48.01,-26.63,-23.90,-26.76,-24.01,6.00,5.68,-20.63,-20.76,-2.73
48.49,-26.53,-23.80,-26.61,-23.85,6.00,5.69,-20.53,-20.61,-2.73
48.97,-26.43,-23.70,-26.45,-23.70,6.00,5.71,-20.43,-20.45,-2.73
49.46,-26.26,-23.53,-26.28,-23.54,6.00,5.74,-20.26,-20.28,-2.73
49.96,-26.09,-23.36,-26.12,-23.38,6.00,5.76,-20.09,-20.12,-2.73
50.46,-26.03,-23.30,-25.96,-23.23,6.00,5.79,-20.03,-19.96,-2.73
50.96,-25.98,-23.25,-25.81,-23.07,6.00,5.82,-19.98,-19.81,-2.73
51.47,-25.75,-23.02,-25.65,-22.91,6.00,5.86,-19.75,-19.65,-2.73
51.99,-25.50,-22.77,-25.49,-22.76,6.00,5.89,-19.50,-19.49,-2.73
52.51,-25.23,-22.50,-25.34,-22.60,6.00,5.93,-19.23,-19.34,-2.73
53.03,-24.98,-22.25,-25.19,-22.44,6.00,5.97,-18.98,-19.19,-2.73
53.56,-24.93,-22.20,-25.03,-22.29,6.00,6.01,-18.93,-19.03,-2.73
54.10,-24.88,-22.15,-24.87,-22.13,6.00,6.05,-18.88,-18.87,-2.73
54.64,-24.80,-22.07,-24.72,-21.98,6.00,6.09,-18.80,-18.72,-2.73
55.18,-24.68,-21.95,-24.57,-21.82,6.00,6.13,-18.68,-18.57,-2.73
55.74,-24.48,-21.75,-24.41,-21.66,6.00,6.17,-18.48,-18.41,-2.73
56.29,-24.25,-21.52,-24.24,-21.50,6.00,6.21,-18.25,-18.24,-2.73
56.86,-24.00,-21.27,-24.07,-21.34,6.00,6.24,-18.00,-18.07,-2.73
57.42,-23.87,-21.14,-23.91,-21.18,6.00,6.28,-17.87,-17.91,-2.73
58.00,-23.78,-21.05,-23.76,-21.03,6.00,6.31,-17.78,-17.76,-2.73
58.58,-23.64,-20.91,-23.61,-20.87,6.00,6.34,-17.64,-17.61,-2.73
59.16,-23.50,-20.77,-23.47,-20.71,6.00,6.36,-17.50,-17.47,-2.73
59.76,-23.37,-20.64,-23.31,-20.55,6.00,6.38,-17.37,-17.31,-2.73
60.35,-23.14,-20.41,-23.14,-20.39,6.00,6.40,-17.14,-17.14,-2.73
60.96,-22.85,-20.12,-22.96,-20.24,6.00,6.41,-16.85,-16.96,-2.73
61.57,-22.69,-19.96,-22.80,-20.08,6.00,6.42,-16.69,-16.80,-2.73
62.18,-22.55,-19.82,-22.65,-19.92,6.00,6.42,-16.55,-16.65,-2.73
62.80,-22.47,-19.74,-22.51,-19.77,6.00,6.42,-16.47,-16.51,-2.73
63.43,-22.42,-19.69,-22.37,-19.61,6.00,6.42,-16.42,-16.37,-2.73
64.07,-22.39,-19.66,-22.21,-19.46,6.00,6.40,-16.39,-16.21,-2.73
64.71,-22.24,-19.51,-22.04,-19.30,6.00,6.39,-16.24,-16.04,-2.73
65.35,-21.93,-19.20,-21.87,-19.14,6.00,6.37,-15.93,-15.87,-2.73
66.01,-21.49,-18.76,-21.71,-18.98,6.00,6.34,-15.49,-15.71,-2.73
66.67,-21.36,-18.63,-21.56,-18.81,6.00,6.31,-15.36,-15.56,-2.73
67.33,-21.34,-18.61,-21.40,-18.65,6.00,6.28,-15.34,-15.40,-2.73
68.01,-21.42,-18.69,-21.25,-18.48,6.00,6.25,-15.42,-15.25,-2.73
68.69,-21.25,-18.52,-21.08,-18.31,6.00,6.21,-15.25,-15.08,-2.73
69.37,-20.95,-18.22,-20.90,-18.14,6.00,6.17,-14.95,-14.90,-2.73
70.07,-20.56,-17.83,-20.71,-17.97,6.00,6.13,-14.56,-14.71,-2.73
70.77,-20.41,-17.68,-20.52,-17.80,6.00,6.08,-14.41,-14.52,-2.73
71.48,-20.35,-17.62,-20.36,-17.64,6.00,6.04,-14.35,-14.36,-2.73
72.19,-20.29,-17.56,-20.21,-17.48,6.00,5.99,-14.29,-14.21,-2.73
72.91,-20.16,-17.43,-20.08,-17.31,6.00,5.95,-14.16,-14.08,-2.73
73.64,-19.92,-17.19,-19.93,-17.15,6.00,5.90,-13.92,-13.93,-2.73
74.38,-19.71,-16.98,-19.74,-16.99,6.00,5.86,-13.71,-13.74,-2.73
75.12,-19.53,-16.80,-19.56,-16.84,6.00,5.82,-13.53,-13.56,-2.73
75.87,-19.29,-16.56,-19.40,-16.68,6.00,5.78,-13.29,-13.40,-2.73
76.63,-19.13,-16.40,-19.26,-16.53,6.00,5.74,-13.13,-13.26,-2.73
77.40,-19.11,-16.38,-19.13,-16.37,6.00,5.70,-13.11,-13.13,-2.73
78.17,-19.16,-16.43,-18.98,-16.22,6.00,5.67,-13.16,-12.98,-2.73
78.95,-19.02,-16.29,-18.81,-16.07,6.00,5.64,-13.02,-12.81,-2.73
79.74,-18.65,-15.92,-18.64,-15.91,6.00,5.61,-12.65,-12.64,-2.73
80.54,-18.37,-15.64,-18.48,-15.75,6.00,5.59,-12.37,-12.48,-2.73
81.35,-18.17,-15.44,-18.33,-15.59,6.00,5.57,-12.17,-12.33,-2.73
82.16,-18.08,-15.35,-18.19,-15.43,6.00,5.55,-12.08,-12.19,-2.73
82.98,-18.19,-15.46,-18.03,-15.27,6.00,5.54,-12.19,-12.03,-2.73
83.81,-18.03,-15.30,-17.86,-15.10,6.00,5.53,-12.03,-11.86,-2.73
84.65,-17.70,-14.97,-17.69,-14.94,6.00,5.52,-11.70,-11.69,-2.73
85.50,-17.41,-14.68,-17.51,-14.77,6.00,5.52,-11.41,-11.51,-2.73
86.35,-17.23,-14.50,-17.33,-14.60,6.00,5.52,-11.23,-11.33,-2.73
87.22,-17.16,-14.43,-17.16,-14.43,6.00,5.53,-11.16,-11.16,-2.73
88.09,-17.09,-14.36,-17.00,-14.26,6.00,5.54,-11.09,-11.00,-2.73
88.97,-16.94,-14.21,-16.84,-14.10,6.00,5.55,-10.94,-10.84,-2.73
89.86,-16.67,-13.94,-16.67,-13.93,6.00,5.57,-10.67,-10.67,-2.73
90.76,-16.40,-13.67,-16.50,-13.76,6.00,5.60,-10.40,-10.50,-2.73
91.66,-16.22,-13.49,-16.34,-13.60,6.00,5.63,-10.22,-10.34,-2.73
92.58,-16.12,-13.39,-16.18,-13.44,6.00,5.66,-10.12,-10.18,-2.73
93.51,-16.06,-13.33,-16.02,-13.27,6.00,5.69,-10.06,-10.02,-2.73
94.44,-15.96,-13.23,-15.86,-13.11,6.00,5.73,-9.96,-9.86,-2.73
95.39,-15.76,-13.03,-15.69,-12.95,6.00,5.77,-9.76,-9.69,-2.73
96.34,-15.49,-12.76,-15.52,-12.79,6.00,5.82,-9.49,-9.52,-2.73
97.30,-15.27,-12.54,-15.37,-12.63,6.00,5.87,-9.27,-9.37,-2.73
98.28,-15.19,-12.46,-15.22,-12.48,6.00,5.92,-9.19,-9.22,-2.73
99.26,-15.20,-12.47,-15.08,-12.32,6.00,5.98,-9.20,-9.08,-2.73
100.25,-15.04,-12.31,-14.92,-12.16,6.00,6.04,-9.04,-8.92,-2.73
101.25,-14.81,-12.08,-14.76,-12.01,6.00,6.10,-8.81,-8.76,-2.73
102.27,-14.43,-11.70,-14.60,-11.86,6.00,6.16,-8.43,-8.60,-2.73
103.29,-14.26,-11.53,-14.45,-11.71,6.00,6.23,-8.26,-8.45,-2.73
104.32,-14.20,-11.47,-14.31,-11.57,6.00,6.29,-8.20,-8.31,-2.73
105.37,-14.29,-11.56,-14.18,-11.43,6.00,6.36,-8.29,-8.18,-2.73
106.42,-14.21,-11.48,-14.04,-11.28,6.00,6.43,-8.21,-8.04,-2.73
107.48,-14.00,-11.27,-13.90,-11.14,6.00,6.49,-8.00,-7.90,-2.73
108.56,-13.63,-10.90,-13.74,-11.00,6.00,6.56,-7.63,-7.74,-2.73
109.64,-13.41,-10.68,-13.59,-10.85,6.00,6.62,-7.41,-7.59,-2.73
110.74,-13.31,-10.58,-13.44,-10.71,6.00,6.68,-7.31,-7.44,-2.73
111.85,-13.42,-10.69,-13.31,-10.56,6.00,6.74,-7.42,-7.31,-2.73
112.97,-13.36,-10.63,-13.17,-10.41,6.00,6.79,-7.36,-7.17,-2.73
114.10,-13.22,-10.50,-13.03,-10.26,6.00,6.84,-7.22,-7.03,-2.73
115.24,-12.86,-10.14,-12.85,-10.11,6.00,6.88,-6.86,-6.85,-2.72
116.39,-12.58,-9.86,-12.67,-9.95,6.00,6.91,-6.58,-6.67,-2.72
117.55,-12.35,-9.64,-12.51,-9.80,6.00,6.94,-6.35,-6.51,-2.71
118.73,-12.27,-9.57,-12.36,-9.65,6.00,6.96,-6.27,-6.36,-2.71
119.92,-12.21,-9.51,-12.21,-9.49,6.00,6.98,-6.21,-6.21,-2.70
121.12,-12.19,-9.50,-12.05,-9.33,6.00,6.98,-6.19,-6.05,-2.69
122.33,-11.95,-9.27,-11.88,-9.18,6.00,6.97,-5.95,-5.88,-2.68
123.55,-11.64,-8.97,-11.70,-9.02,6.00,6.96,-5.64,-5.70,-2.67
124.79,-11.38,-8.72,-11.53,-8.86,6.00,6.93,-5.38,-5.53,-2.66
126.03,-11.29,-8.64,-11.36,-8.70,6.00,6.89,-5.29,-5.36,-2.65
127.29,-11.22,-8.58,-11.20,-8.55,6.00,6.84,-5.22,-5.20,-2.64
128.57,-11.16,-8.53,-11.05,-8.39,6.00,6.79,-5.16,-5.05,-2.63
129.85,-11.02,-8.40,-10.88,-8.23,6.00,6.72,-5.02,-4.88,-2.62
131.15,-10.73,-8.12,-10.70,-8.06,6.00,6.64,-4.73,-4.70,-2.62
132.46,-10.42,-7.81,-10.52,-7.90,6.00,6.56,-4.42,-4.52,-2.61
133.79,-10.28,-7.68,-10.34,-7.73,6.00,6.46,-4.28,-4.34,-2.60
135.12,-10.24,-7.65,-10.17,-7.57,6.00,6.36,-4.24,-4.17,-2.60
136.48,-10.08,-7.49,-10.01,-7.39,6.00,6.25,-4.08,-4.01,-2.59
137.84,-9.83,-7.25,-9.85,-7.22,6.00,6.14,-3.83,-3.85,-2.59
139.22,-9.57,-6.99,-9.67,-7.05,6.00,6.01,-3.57,-3.67,-2.58
140.61,-9.37,-6.79,-9.47,-6.89,6.00,5.89,-3.37,-3.47,-2.58
142.02,-9.30,-6.73,-9.29,-6.72,6.00,5.75,-3.30,-3.29,-2.58
143.44,-9.13,-6.56,-9.12,-6.56,6.00,5.62,-3.13,-3.12,-2.57
144.87,-9.04,-6.47,-8.97,-6.40,5.98,5.48,-3.06,-2.98,-2.57
146.32,-8.92,-6.35,-8.82,-6.25,5.95,5.34,-2.98,-2.88,-2.57
147.78,-8.72,-6.16,-8.68,-6.09,5.89,5.20,-2.83,-2.79,-2.57
149.26,-8.44,-5.88,-8.53,-5.95,5.81,5.05,-2.63,-2.72,-2.56
150.75,-8.22,-5.66,-8.37,-5.80,5.72,4.91,-2.50,-2.65,-2.56
152.26,-8.14,-5.58,-8.22,-5.65,5.61,4.76,-2.53,-2.60,-2.56
153.78,-8.01,-5.46,-8.07,-5.50,5.49,4.62,-2.52,-2.58,-2.55
155.32,-7.94,-5.39,-7.93,-5.36,5.36,4.47,-2.59,-2.57,-2.55
156.88,-7.91,-5.36,-7.78,-5.21,5.21,4.33,-2.70,-2.57,-2.55
158.44,-7.77,-5.23,-7.63,-5.06,5.06,4.18,-2.71,-2.57,-2.55
160.03,-7.59,-5.05,-7.47,-4.91,4.91,4.04,-2.68,-2.56,-2.54
161.63,-7.32,-4.78,-7.32,-4.76,4.76,3.90,-2.56,-2.56,-2.54
163.24,-7.13,-4.59,-7.17,-4.61,4.61,3.76,-2.52,-2.56,-2.54
164.88,-6.90,-4.36,-7.03,-4.46,4.46,3.62,-2.45,-2.57,-2.55
166.53,-6.73,-4.19,-6.88,-4.30,4.30,3.48,-2.43,-2.58,-2.55
168.19,-6.72,-4.17,-6.72,-4.15,4.15,3.35,-2.57,-2.58,-2.55
169.87,-6.65,-4.10,-6.56,-3.99,3.99,3.21,-2.66,-2.57,-2.55
171.57,-6.49,-3.94,-6.40,-3.84,3.84,3.08,-2.65,-2.56,-2.55
173.29,-6.24,-3.69,-6.24,-3.69,3.69,2.95,-2.55,-2.55,-2.55
175.02,-6.05,-3.50,-6.09,-3.54,3.54,2.83,-2.51,-2.54,-2.55
176.77,-5.91,-3.36,-5.94,-3.40,3.40,2.70,-2.51,-2.55,-2.55
178.54,-5.81,-3.26,-5.80,-3.26,3.26,2.58,-2.56,-2.55,-2.55
180.32,-5.67,-3.13,-5.67,-3.12,3.12,2.46,-2.55,-2.55,-2.54
182.13,-5.52,-2.99,-5.52,-2.98,2.98,2.34,-2.54,-2.54,-2.53
183.95,-5.36,-2.84,-5.37,-2.85,2.85,2.22,-2.51,-2.52,-2.52
185.79,-5.24,-2.73,-5.23,-2.72,2.72,2.10,-2.52,-2.50,-2.51
187.65,-5.10,-2.61,-5.08,-2.60,2.60,1.99,-2.51,-2.49,-2.49
189.52,-4.96,-2.49,-4.95,-2.47,2.47,1.88,-2.49,-2.48,-2.48
191.42,-4.82,-2.36,-4.82,-2.35,2.35,1.77,-2.47,-2.47,-2.46
193.33,-4.67,-2.23,-4.69,-2.23,2.23,1.66,-2.44,-2.46,-2.44
195.27,-4.52,-2.10,-4.56,-2.11,2.11,1.55,-2.41,-2.45,-2.43
197.22,-4.39,-1.98,-4.42,-1.99,1.99,1.45,-2.40,-2.43,-2.41
199.19,-4.24,-1.84,-4.29,-1.87,1.87,1.35,-2.37,-2.42,-2.40
201.18,-4.14,-1.75,-4.16,-1.76,1.76,1.24,-2.39,-2.41,-2.39
203.19,-4.14,-1.76,-4.03,-1.64,1.64,1.15,-2.50,-2.39,-2.38
205.23,-4.03,-1.66,-3.91,-1.52,1.52,1.05,-2.51,-2.39,-2.37
207.28,-3.81,-1.44,-3.79,-1.40,1.40,0.95,-2.41,-2.38,-2.37
209.35,-3.63,-1.27,-3.67,-1.29,1.29,0.86,-2.34,-2.38,-2.37
211.44,-3.52,-1.16,-3.55,-1.18,1.18,0.77,-2.34,-2.38,-2.37
213.56,-3.40,-1.04,-3.45,-1.06,1.06,0.68,-2.34,-2.38,-2.37
215.69,-3.26,-0.89,-3.35,-0.95,0.95,0.60,-2.31,-2.40,-2.37
217.85,-3.15,-0.78,-3.24,-0.85,0.85,0.51,-2.31,-2.40,-2.37
220.03,-3.19,-0.82,-3.12,-0.74,0.74,0.43,-2.45,-2.38,-2.37
222.23,-3.02,-0.65,-3.00,-0.64,0.64,0.35,-2.38,-2.36,-2.37
224.45,-2.90,-0.53,-2.90,-0.54,0.54,0.28,-2.36,-2.36,-2.37
226.70,-2.91,-0.55,-2.81,-0.44,0.44,0.20,-2.47,-2.36,-2.36
228.96,-2.69,-0.33,-2.70,-0.35,0.35,0.13,-2.34,-2.35,-2.36
231.25,-2.65,-0.30,-2.61,-0.26,0.26,0.07,-2.39,-2.35,-2.35
233.57,-2.54,-0.21,-2.52,-0.18,0.18,0.00,-2.36,-2.34,-2.34
235.90,-2.48,-0.16,-2.43,-0.09,0.09,-0.06,-2.39,-2.33,-2.32
238.26,-2.30,0.00,-2.33,-0.01,0.01,-0.11,-2.29,-2.32,-2.31
240.64,-1.97,0.32,-2.24,0.07,-0.07,-0.17,-2.04,-2.30,-2.29
243.05,-2.09,0.18,-2.14,0.14,-0.14,-0.22,-2.23,-2.28,-2.27
245.48,-2.24,0.01,-2.04,0.22,-0.22,-0.26,-2.46,-2.26,-2.25
247.93,-2.11,0.12,-1.95,0.29,-0.29,-0.30,-2.40,-2.24,-2.23
250.41,-1.79,0.42,-1.87,0.36,-0.36,-0.34,-2.15,-2.23,-2.21
252.92,-1.65,0.55,-1.79,0.43,-0.43,-0.38,-2.08,-2.21,-2.20
255.45,-1.80,0.38,-1.71,0.49,-0.49,-0.41,-2.29,-2.20,-2.18
258.00,-1.68,0.49,-1.63,0.55,-0.55,-0.44,-2.23,-2.17,-2.17
260.58,-1.55,0.61,-1.57,0.60,-0.60,-0.46,-2.15,-2.17,-2.16
263.19,-1.47,0.68,-1.52,0.65,-0.65,-0.49,-2.12,-2.17,-2.15
265.82,-1.41,0.74,-1.46,0.70,-0.70,-0.51,-2.11,-2.16,-2.15
268.48,-1.36,0.78,-1.41,0.74,-0.74,-0.52,-2.10,-2.16,-2.14
271.16,-1.36,0.78,-1.36,0.78,-0.78,-0.54,-2.15,-2.15,-2.14
273.87,-1.31,0.83,-1.32,0.82,-0.82,-0.55,-2.13,-2.14,-2.14
276.61,-1.27,0.86,-1.28,0.86,-0.86,-0.55,-2.13,-2.14,-2.13
279.38,-1.21,0.92,-1.25,0.89,-0.89,-0.56,-2.10,-2.14,-2.13
282.17,-1.17,0.95,-1.21,0.93,-0.93,-0.57,-2.10,-2.13,-2.12
284.99,-1.24,0.87,-1.16,0.96,-0.96,-0.57,-2.20,-2.12,-2.12
287.84,-1.29,0.82,-1.13,1.00,-1.00,-0.57,-2.29,-2.12,-2.11
290.72,-1.06,1.04,-1.08,1.03,-1.03,-0.57,-2.10,-2.11,-2.10
293.63,-1.02,1.06,-1.03,1.07,-1.07,-0.57,-2.09,-2.10,-2.09
296.57,-1.11,0.96,-0.98,1.11,-1.11,-0.56,-2.22,-2.09,-2.07
299.53,-1.04,1.02,-0.93,1.14,-1.14,-0.56,-2.18,-2.07,-2.06
302.53,-0.72,1.33,-0.89,1.17,-1.17,-0.55,-1.89,-2.06,-2.05
305.55,-0.73,1.30,-0.85,1.20,-1.20,-0.55,-1.94,-2.05,-2.04
308.61,-0.79,1.23,-0.81,1.23,-1.23,-0.54,-2.02,-2.04,-2.03
311.69,-0.87,1.14,-0.78,1.26,-1.26,-0.54,-2.13,-2.03,-2.02
314.81,-0.71,1.30,-0.75,1.27,-1.27,-0.53,-1.99,-2.03,-2.01
317.96,-0.58,1.42,-0.73,1.29,-1.29,-0.53,-1.87,-2.02,-2.00
321.14,-0.64,1.35,-0.71,1.30,-1.30,-0.52,-1.94,-2.00,-2.00
324.35,-0.73,1.26,-0.70,1.30,-1.30,-0.51,-2.03,-2.00,-1.99
327.59,-0.75,1.24,-0.69,1.30,-1.30,-0.51,-2.05,-1.99,-1.99
330.87,-0.75,1.23,-0.69,1.29,-1.29,-0.50,-2.04,-1.98,-1.99
334.18,-0.76,1.22,-0.71,1.28,-1.28,-0.50,-2.04,-1.99,-1.98
337.52,-0.76,1.22,-0.74,1.26,-1.26,-0.49,-2.02,-2.00,-1.98
340.90,-0.76,1.22,-0.76,1.24,-1.24,-0.48,-2.00,-2.00,-1.98
344.30,-0.76,1.22,-0.78,1.22,-1.22,-0.48,-1.98,-1.99,-1.98
347.75,-0.76,1.21,-0.79,1.19,-1.19,-0.48,-1.95,-1.98,-1.98
351.23,-0.72,1.25,-0.81,1.17,-1.17,-0.47,-1.89,-1.98,-1.97
354.74,-0.71,1.25,-0.83,1.15,-1.15,-0.47,-1.86,-1.98,-1.96
358.28,-0.90,1.06,-0.85,1.12,-1.12,-0.47,-2.02,-1.97,-1.96
361.87,-1.00,0.95,-0.86,1.09,-1.09,-0.46,-2.10,-1.95,-1.95
365.49,-0.96,0.98,-0.88,1.07,-1.07,-0.46,-2.03,-1.95,-1.94
369.14,-0.93,1.00,-0.90,1.04,-1.04,-0.46,-1.97,-1.94,-1.93
372.83,-0.93,0.99,-0.92,1.01,-1.01,-0.46,-1.94,-1.93,-1.92
376.56,-0.92,0.99,-0.95,0.98,-0.98,-0.46,-1.90,-1.93,-1.91
380.33,-0.89,1.02,-0.97,0.95,-0.95,-0.46,-1.84,-1.92,-1.91
384.13,-0.88,1.02,-1.00,0.91,-0.91,-0.46,-1.80,-1.91,-1.90
387.97,-1.07,0.82,-1.03,0.88,-0.88,-0.46,-1.95,-1.91,-1.89
391.85,-1.11,0.78,-1.06,0.84,-0.84,-0.46,-1.96,-1.91,-1.89
395.77,-1.04,0.85,-1.09,0.81,-0.81,-0.47,-1.85,-1.90,-1.89
399.73,-1.10,0.79,-1.12,0.77,-0.77,-0.47,-1.87,-1.89,-1.89
403.72,-1.17,0.71,-1.16,0.73,-0.73,-0.47,-1.90,-1.89,-1.89
407.76,-1.16,0.72,-1.20,0.69,-0.69,-0.48,-1.86,-1.90,-1.89
411.84,-1.20,0.68,-1.24,0.66,-0.66,-0.48,-1.86,-1.90,-1.88
415.96,-1.26,0.62,-1.27,0.62,-0.62,-0.48,-1.89,-1.89,-1.88
420.12,-1.30,0.57,-1.29,0.59,-0.59,-0.49,-1.89,-1.88,-1.87
424.32,-1.38,0.48,-1.31,0.56,-0.56,-0.49,-1.94,-1.86,-1.86
428.56,-1.39,0.45,-1.31,0.52,-0.52,-0.50,-1.91,-1.83,-1.84
432.85,-1.38,0.43,-1.30,0.49,-0.49,-0.50,-1.87,-1.80,-1.81
437.18,-1.35,0.43,-1.31,0.46,-0.46,-0.50,-1.82,-1.77,-1.78
441.55,-1.32,0.42,-1.31,0.44,-0.44,-0.51,-1.76,-1.74,-1.75
445.96,-1.27,0.43,-1.29,0.41,-0.41,-0.51,-1.68,-1.70,-1.70
450.42,-1.21,0.44,-1.27,0.39,-0.39,-0.52,-1.60,-1.66,-1.65
454.93,-1.14,0.46,-1.25,0.36,-0.36,-0.52,-1.51,-1.61,-1.60
459.48,-1.16,0.38,-1.22,0.34,-0.34,-0.52,-1.50,-1.56,-1.54
464.07,-1.17,0.31,-1.18,0.32,-0.32,-0.53,-1.49,-1.51,-1.49
468.71,-1.18,0.25,-1.14,0.31,-0.31,-0.53,-1.49,-1.44,-1.43
473.40,-1.11,0.26,-1.09,0.29,-0.29,-0.53,-1.40,-1.38,-1.37
478.13,-1.12,0.19,-1.05,0.28,-0.28,-0.53,-1.40,-1.33,-1.31
482.91,-1.11,0.15,-1.01,0.27,-0.27,-0.53,-1.38,-1.28,-1.26
