frequency,raw,error,smoothed,error_smoothed,equalization,parametric_eq,fixed_band_eq,equalized_raw,equalized_smoothed,target
20.00,-15.71,-17.20,-15.71,-17.20,6.00,6.25,2.94,-9.71,-9.71,1.49
20.20,-15.57,-17.11,-15.57,-17.12,6.00,6.24,3.02,-9.57,-9.57,1.54
20.40,-15.43,-17.02,-15.44,-17.02,6.00,6.22,3.11,-9.43,-9.44,1.59
20.61,-15.29,-16.92,-15.29,-16.92,6.00,6.20,3.20,-9.29,-9.29,1.62
20.81,-15.15,-16.82,-15.15,-16.82,6.00,6.18,3.29,-9.15,-9.15,1.67
21.02,-15.00,-16.71,-15.00,-16.70,6.00,6.17,3.38,-9.00,-9.00,1.71
21.23,-14.83,-16.56,-14.83,-16.57,6.00,6.15,3.48,-8.83,-8.83,1.73
21.44,-14.66,-16.41,-14.66,-16.42,6.00,6.13,3.58,-8.66,-8.66,1.75
21.66,-14.49,-16.26,-14.49,-16.26,6.00,6.12,3.68,-8.49,-8.49,1.77
21.87,-14.32,-16.10,-14.32,-16.11,6.00,6.10,3.78,-8.32,-8.32,1.78
22.09,-14.15,-15.95,-14.15,-15.95,6.00,6.08,3.89,-8.15,-8.15,1.80
22.31,-13.99,-15.80,-13.99,-15.79,6.00,6.07,4.00,-7.99,-7.99,1.81
22.54,-13.82,-15.63,-13.82,-15.63,6.00,6.05,4.11,-7.82,-7.82,1.81
22.76,-13.66,-15.47,-13.66,-15.47,6.00,6.04,4.23,-7.66,-7.66,1.81
22.99,-13.50,-15.30,-13.51,-15.31,6.00,6.02,4.35,-7.50,-7.51,1.80
23.22,-13.37,-15.17,-13.37,-15.17,6.00,6.01,4.47,-7.37,-7.37,1.80
23.45,-13.23,-15.03,-13.23,-15.03,6.00,6.00,4.59,-7.23,-7.23,1.80
23.69,-13.10,-14.91,-13.10,-14.91,6.00,5.98,4.72,-7.10,-7.10,1.81
23.92,-12.97,-14.78,-12.97,-14.78,6.00,5.97,4.85,-6.97,-6.97,1.81
24.16,-12.84,-14.66,-12.84,-14.66,6.00,5.96,4.99,-6.84,-6.84,1.82
24.40,-12.71,-14.54,-12.71,-14.53,6.00,5.95,5.12,-6.71,-6.71,1.83
24.65,-12.58,-14.40,-12.59,-14.40,6.00,5.94,5.26,-6.58,-6.59,1.82
24.89,-12.45,-14.26,-12.44,-14.26,6.00,5.93,5.40,-6.45,-6.44,1.82
25.14,-12.28,-14.09,-12.27,-14.09,6.00,5.92,5.54,-6.28,-6.27,1.81
25.39,-12.08,-13.90,-12.08,-13.90,6.00,5.91,5.68,-6.08,-6.08,1.82
25.65,-11.88,-13.71,-11.88,-13.70,6.00,5.90,5.82,-5.88,-5.88,1.82
25.91,-11.69,-13.50,-11.69,-13.51,6.00,5.90,5.96,-5.69,-5.69,1.81
26.16,-11.53,-13.34,-11.54,-13.35,6.00,5.89,6.11,-5.53,-5.54,1.81
26.43,-11.40,-13.22,-11.40,-13.21,6.00,5.89,6.25,-5.40,-5.40,1.81
26.69,-11.28,-13.09,-11.28,-13.09,6.00,5.88,6.39,-5.28,-5.28,1.81
26.96,-11.15,-12.97,-11.15,-12.97,6.00,5.88,6.53,-5.15,-5.15,1.82
27.23,-11.02,-12.84,-11.02,-12.84,6.00,5.88,6.67,-5.02,-5.02,1.82
27.50,-10.88,-12.70,-10.89,-12.70,6.00,5.87,6.80,-4.88,-4.89,1.82
27.77,-10.75,-12.56,-10.75,-12.56,6.00,5.87,6.93,-4.75,-4.75,1.81
28.05,-10.61,-12.42,-10.61,-12.41,6.00,5.87,7.05,-4.61,-4.61,1.81
28.33,-10.46,-12.26,-10.46,-12.26,6.00,5.88,7.17,-4.46,-4.46,1.80
28.62,-10.31,-12.11,-10.31,-12.11,6.00,5.88,7.28,-4.31,-4.31,1.80
28.90,-10.15,-11.96,-10.15,-11.95,6.00,5.88,7.38,-4.15,-4.15,1.81
29.19,-9.98,-11.78,-9.98,-11.78,6.00,5.89,7.48,-3.98,-3.98,1.79
29.48,-9.81,-11.62,-9.81,-11.61,6.00,5.89,7.56,-3.81,-3.81,1.81
29.78,-9.63,-11.44,-9.64,-11.44,6.00,5.90,7.63,-3.63,-3.64,1.80
30.08,-9.47,-11.29,-9.48,-11.29,6.00,5.91,7.69,-3.47,-3.48,1.81
30.38,-9.34,-11.14,-9.34,-11.15,6.00,5.91,7.74,-3.34,-3.34,1.80
30.68,-9.21,-11.01,-9.21,-11.01,6.00,5.92,7.77,-3.21,-3.21,1.80
30.99,-9.08,-10.88,-9.07,-10.87,6.00,5.93,7.79,-3.08,-3.07,1.80
31.30,-8.92,-10.72,-8.92,-10.72,6.00,5.94,7.79,-2.92,-2.92,1.80
31.61,-8.76,-10.56,-8.76,-10.56,6.00,5.96,7.79,-2.76,-2.76,1.80
31.93,-8.60,-10.40,-8.61,-10.40,6.00,5.97,7.77,-2.60,-2.61,1.79
32.24,-8.46,-10.24,-8.47,-10.26,6.00,5.98,7.74,-2.46,-2.47,1.78
32.57,-8.34,-10.13,-8.33,-10.12,6.00,6.00,7.69,-2.34,-2.33,1.79
32.89,-8.21,-10.00,-8.21,-10.00,6.00,6.01,7.63,-2.21,-2.21,1.79
33.22,-8.08,-9.86,-8.09,-9.87,6.00,6.03,7.56,-2.08,-2.09,1.78
33.55,-7.96,-9.74,-7.96,-9.74,6.00,6.04,7.48,-1.96,-1.96,1.78
33.89,-7.83,-9.60,-7.83,-9.60,6.00,6.06,7.38,-1.83,-1.83,1.77
34.23,-7.69,-9.47,-7.69,-9.46,6.00,6.07,7.28,-1.69,-1.69,1.77
34.57,-7.53,-9.29,-7.54,-9.30,6.00,6.08,7.17,-1.53,-1.54,1.76
34.92,-7.38,-9.14,-7.38,-9.14,6.00,6.10,7.06,-1.38,-1.38,1.76
35.27,-7.21,-8.97,-7.21,-8.97,6.00,6.11,6.94,-1.21,-1.21,1.76
35.62,-7.04,-8.80,-7.04,-8.80,6.00,6.12,6.81,-1.04,-1.04,1.76
35.97,-6.87,-8.62,-6.87,-8.63,6.00,6.13,6.68,-0.87,-0.87,1.75
36.33,-6.71,-8.47,-6.71,-8.46,6.00,6.14,6.55,-0.71,-0.71,1.76
36.70,-6.55,-8.30,-6.55,-8.31,6.00,6.15,6.41,-0.55,-0.55,1.75
37.06,-6.40,-8.15,-6.41,-8.16,6.00,6.15,6.28,-0.40,-0.41,1.75
37.43,-6.28,-8.04,-6.28,-8.03,6.00,6.15,6.14,-0.28,-0.28,1.76
37.81,-6.15,-7.91,-6.15,-7.91,6.00,6.15,6.00,-0.15,-0.15,1.76
38.19,-6.03,-7.79,-6.03,-7.80,6.00,6.15,5.86,-0.03,-0.03,1.76
38.57,-5.90,-7.67,-5.90,-7.67,6.00,6.14,5.72,0.10,0.10,1.77
38.95,-5.77,-7.54,-5.76,-7.53,6.00,6.13,5.59,0.23,0.24,1.77
39.34,-5.61,-7.38,-5.61,-7.38,6.00,6.11,5.45,0.39,0.39,1.77
39.74,-5.45,-7.22,-5.46,-7.23,6.00,6.09,5.32,0.55,0.54,1.77
40.14,-5.30,-7.08,-5.31,-7.08,6.00,6.06,5.19,0.70,0.69,1.77
40.54,-5.18,-6.95,-5.18,-6.95,6.00,6.03,5.06,0.82,0.82,1.77
40.94,-5.06,-6.83,-5.05,-6.82,6.01,5.99,4.93,0.95,0.96,1.77
41.35,-4.91,-6.68,-4.91,-6.68,6.02,5.95,4.81,1.11,1.11,1.76
41.76,-4.76,-6.52,-4.77,-6.53,6.03,5.90,4.69,1.27,1.26,1.76
42.18,-4.62,-6.39,-4.63,-6.39,6.02,5.85,4.57,1.40,1.39,1.77
42.60,-4.50,-6.25,-4.50,-6.25,5.99,5.79,4.46,1.49,1.50,1.75
43.03,-4.37,-6.12,-4.37,-6.12,5.95,5.72,4.35,1.58,1.58,1.75
43.46,-4.24,-5.98,-4.24,-5.98,5.88,5.65,4.24,1.64,1.64,1.74
43.90,-4.10,-5.82,-4.10,-5.82,5.79,5.57,4.13,1.69,1.69,1.72
44.33,-3.96,-5.66,-3.96,-5.67,5.68,5.49,4.03,1.72,1.72,1.70
44.78,-3.82,-5.51,-3.83,-5.52,5.55,5.40,3.93,1.73,1.73,1.69
45.23,-3.69,-5.38,-3.69,-5.37,5.41,5.30,3.84,1.72,1.72,1.68
45.68,-3.57,-5.24,-3.57,-5.24,5.26,5.20,3.74,1.69,1.69,1.67
46.13,-3.44,-5.09,-3.45,-5.11,5.10,5.10,3.65,1.66,1.66,1.65
46.60,-3.32,-4.98,-3.32,-4.97,4.96,4.99,3.57,1.63,1.64,1.66
47.06,-3.19,-4.83,-3.19,-4.83,4.82,4.88,3.48,1.63,1.64,1.64
47.53,-3.05,-4.69,-3.05,-4.69,4.70,4.76,3.40,1.65,1.65,1.64
48.01,-2.91,-4.55,-2.92,-4.55,4.58,4.65,3.32,1.66,1.66,1.64
48.49,-2.80,-4.43,-2.80,-4.42,4.45,4.52,3.24,1.65,1.65,1.62
48.97,-2.70,-4.31,-2.72,-4.32,4.33,4.40,3.17,1.63,1.61,1.61
49.46,-2.63,-4.22,-2.64,-4.23,4.20,4.27,3.10,1.57,1.57,1.59
49.96,-2.57,-4.14,-2.54,-4.12,4.07,4.15,3.03,1.50,1.54,1.57
50.46,-2.41,-3.99,-2.41,-3.98,3.95,4.02,2.96,1.54,1.53,1.57
50.96,-2.25,-3.82,-2.27,-3.83,3.82,3.89,2.90,1.57,1.55,1.57
51.47,-2.12,-3.67,-2.12,-3.67,3.70,3.76,2.83,1.58,1.58,1.55
51.99,-1.99,-3.53,-1.99,-3.54,3.58,3.63,2.77,1.58,1.58,1.54
52.51,-1.88,-3.42,-1.88,-3.42,3.45,3.50,2.71,1.57,1.57,1.54
53.03,-1.78,-3.32,-1.79,-3.32,3.33,3.37,2.66,1.55,1.54,1.54
53.56,-1.69,-3.22,-1.69,-3.22,3.21,3.24,2.60,1.51,1.51,1.53
54.10,-1.60,-3.12,-1.59,-3.12,3.08,3.11,2.54,1.48,1.49,1.52
54.64,-1.48,-2.99,-1.49,-3.00,2.97,2.98,2.49,1.49,1.48,1.51
55.18,-1.36,-2.87,-1.37,-2.88,2.86,2.85,2.44,1.50,1.49,1.51
55.74,-1.25,-2.75,-1.23,-2.74,2.75,2.73,2.38,1.49,1.52,1.50
56.29,-1.11,-2.61,-1.10,-2.59,2.64,2.60,2.33,1.53,1.54,1.50
56.86,-0.95,-2.44,-1.00,-2.49,2.53,2.48,2.28,1.58,1.53,1.49
57.42,-0.92,-2.39,-0.93,-2.41,2.43,2.36,2.23,1.51,1.49,1.47
58.00,-0.93,-2.40,-0.88,-2.35,2.33,2.24,2.18,1.40,1.45,1.46
58.58,-0.82,-2.28,-0.82,-2.28,2.24,2.13,2.13,1.42,1.42,1.46
59.16,-0.71,-2.16,-0.71,-2.16,2.15,2.01,2.08,1.44,1.44,1.45
59.76,-0.59,-2.03,-0.62,-2.05,2.06,1.90,2.03,1.46,1.44,1.43
60.35,-0.54,-1.94,-0.56,-1.96,1.96,1.79,1.98,1.42,1.40,1.40
60.96,-0.53,-1.91,-0.49,-1.87,1.85,1.69,1.93,1.32,1.36,1.38
61.57,-0.41,-1.75,-0.41,-1.75,1.73,1.58,1.88,1.32,1.33,1.34
62.18,-0.29,-1.60,-0.30,-1.61,1.61,1.48,1.83,1.32,1.31,1.31
62.80,-0.18,-1.45,-0.21,-1.48,1.49,1.38,1.78,1.31,1.28,1.27
63.43,-0.14,-1.37,-0.14,-1.37,1.37,1.28,1.73,1.23,1.24,1.23
64.07,-0.11,-1.31,-0.05,-1.25,1.26,1.18,1.67,1.15,1.21,1.20
64.71,0.07,-1.09,0.03,-1.14,1.14,1.09,1.62,1.21,1.17,1.16
65.35,0.14,-0.99,0.10,-1.03,1.03,1.00,1.57,1.17,1.13,1.13
66.01,0.13,-0.96,0.17,-0.92,0.93,0.91,1.51,1.05,1.09,1.09
66.67,0.21,-0.84,0.21,-0.84,0.83,0.82,1.46,1.03,1.04,1.05
67.33,0.29,-0.72,0.28,-0.74,0.73,0.74,1.40,1.02,1.01,1.01
68.01,0.36,-0.63,0.36,-0.62,0.63,0.66,1.35,0.99,0.99,0.98
68.69,0.43,-0.51,0.41,-0.53,0.54,0.58,1.29,0.97,0.95,0.94
69.37,0.46,-0.44,0.45,-0.45,0.44,0.50,1.23,0.90,0.90,0.90
70.07,0.47,-0.39,0.50,-0.36,0.35,0.42,1.18,0.82,0.85,0.86
70.77,0.56,-0.27,0.55,-0.27,0.27,0.35,1.12,0.82,0.82,0.83
71.48,0.62,-0.17,0.60,-0.18,0.18,0.28,1.06,0.80,0.78,0.78
72.19,0.66,-0.07,0.65,-0.08,0.10,0.21,1.00,0.76,0.75,0.73
72.91,0.66,-0.03,0.68,-0.00,0.01,0.14,0.94,0.67,0.70,0.69
73.64,0.72,0.08,0.71,0.07,-0.07,0.07,0.88,0.65,0.64,0.64
74.38,0.76,0.16,0.73,0.14,-0.16,0.01,0.82,0.60,0.57,0.60
75.12,0.76,0.21,0.77,0.22,-0.24,-0.05,0.76,0.51,0.53,0.55
75.87,0.79,0.29,0.82,0.31,-0.33,-0.12,0.70,0.46,0.50,0.50
76.63,0.90,0.43,0.88,0.42,-0.41,-0.18,0.64,0.49,0.47,0.47
77.40,0.96,0.53,0.93,0.51,-0.49,-0.23,0.58,0.47,0.45,0.43
78.17,0.96,0.58,0.96,0.58,-0.56,-0.29,0.52,0.40,0.41,0.38
78.95,0.96,0.60,0.98,0.63,-0.63,-0.35,0.46,0.33,0.35,0.36
79.74,1.01,0.69,1.01,0.68,-0.69,-0.40,0.40,0.32,0.31,0.32
80.54,1.05,0.76,1.04,0.75,-0.75,-0.45,0.33,0.30,0.29,0.29
81.35,1.06,0.81,1.06,0.80,-0.80,-0.50,0.27,0.26,0.26,0.25
82.16,1.06,0.84,1.06,0.84,-0.84,-0.55,0.21,0.22,0.22,0.22
82.98,1.06,0.86,1.06,0.87,-0.88,-0.60,0.15,0.18,0.19,0.20
83.81,1.06,0.90,1.07,0.91,-0.91,-0.65,0.08,0.15,0.16,0.16
84.65,1.09,0.97,1.08,0.95,-0.95,-0.70,0.02,0.14,0.13,0.12
85.50,1.09,0.99,1.08,0.98,-0.98,-0.74,-0.04,0.11,0.10,0.10
86.35,1.06,0.99,1.07,1.01,-1.01,-0.78,-0.10,0.05,0.07,0.07
87.22,1.06,1.03,1.06,1.03,-1.04,-0.83,-0.17,0.02,0.02,0.03
88.09,1.06,1.06,1.06,1.06,-1.07,-0.87,-0.23,-0.01,-0.01,-0.00
88.97,1.06,1.10,1.06,1.10,-1.10,-0.91,-0.30,-0.04,-0.05,-0.04
89.86,1.06,1.13,1.06,1.13,-1.14,-0.95,-0.36,-0.08,-0.08,-0.08
90.76,1.06,1.17,1.06,1.17,-1.17,-0.99,-0.43,-0.11,-0.11,-0.11
91.66,1.07,1.21,1.07,1.21,-1.21,-1.03,-0.49,-0.14,-0.14,-0.14
92.58,1.07,1.25,1.07,1.25,-1.25,-1.07,-0.56,-0.18,-0.18,-0.18
93.51,1.07,1.28,1.07,1.28,-1.28,-1.10,-0.62,-0.22,-0.21,-0.21
94.44,1.07,1.31,1.07,1.31,-1.32,-1.14,-0.69,-0.25,-0.25,-0.24
95.39,1.07,1.34,1.07,1.34,-1.34,-1.17,-0.75,-0.27,-0.28,-0.27
96.34,1.06,1.36,1.06,1.37,-1.36,-1.21,-0.82,-0.30,-0.30,-0.31
97.30,1.06,1.39,1.06,1.40,-1.37,-1.24,-0.89,-0.31,-0.31,-0.33
98.28,1.05,1.41,1.04,1.41,-1.38,-1.27,-0.95,-0.33,-0.34,-0.36
99.26,1.02,1.41,1.00,1.39,-1.38,-1.30,-1.02,-0.36,-0.38,-0.39
100.25,0.94,1.36,0.95,1.37,-1.38,-1.33,-1.09,-0.44,-0.43,-0.42
101.25,0.89,1.34,0.90,1.36,-1.38,-1.36,-1.15,-0.49,-0.48,-0.45
102.27,0.88,1.36,0.87,1.36,-1.38,-1.39,-1.22,-0.50,-0.50,-0.48
103.29,0.87,1.39,0.86,1.37,-1.38,-1.42,-1.28,-0.51,-0.52,-0.52
104.32,0.85,1.39,0.85,1.39,-1.38,-1.45,-1.35,-0.53,-0.53,-0.54
105.37,0.83,1.40,0.83,1.40,-1.39,-1.47,-1.41,-0.56,-0.56,-0.57
106.42,0.80,1.40,0.80,1.40,-1.40,-1.50,-1.47,-0.60,-0.60,-0.60
107.48,0.78,1.41,0.77,1.41,-1.41,-1.52,-1.54,-0.63,-0.64,-0.64
108.56,0.75,1.42,0.75,1.42,-1.42,-1.54,-1.60,-0.68,-0.67,-0.68
109.64,0.73,1.43,0.73,1.44,-1.44,-1.57,-1.66,-0.71,-0.71,-0.70
110.74,0.72,1.46,0.71,1.45,-1.46,-1.59,-1.71,-0.74,-0.74,-0.74
111.85,0.70,1.46,0.70,1.47,-1.48,-1.61,-1.77,-0.78,-0.78,-0.76
112.97,0.69,1.50,0.69,1.49,-1.50,-1.62,-1.82,-0.81,-0.81,-0.81
114.10,0.68,1.52,0.68,1.52,-1.52,-1.64,-1.87,-0.85,-0.84,-0.84
115.24,0.68,1.55,0.68,1.55,-1.55,-1.66,-1.92,-0.87,-0.87,-0.87
116.39,0.68,1.58,0.68,1.58,-1.58,-1.67,-1.97,-0.90,-0.90,-0.91
117.55,0.69,1.61,0.69,1.61,-1.61,-1.69,-2.01,-0.92,-0.92,-0.92
118.73,0.69,1.64,0.69,1.64,-1.64,-1.70,-2.05,-0.95,-0.95,-0.95
119.92,0.70,1.66,0.70,1.66,-1.67,-1.71,-2.08,-0.97,-0.97,-0.96
121.12,0.70,1.68,0.70,1.68,-1.69,-1.73,-2.11,-0.99,-0.99,-0.99
122.33,0.71,1.71,0.71,1.71,-1.70,-1.74,-2.14,-1.00,-0.99,-1.00
123.55,0.72,1.73,0.72,1.74,-1.72,-1.75,-2.17,-1.00,-0.99,-1.01
124.79,0.73,1.75,0.73,1.75,-1.73,-1.76,-2.19,-1.00,-1.00,-1.02
126.03,0.73,1.77,0.71,1.74,-1.74,-1.77,-2.20,-1.01,-1.03,-1.04
127.29,0.67,1.71,0.68,1.73,-1.74,-1.78,-2.22,-1.07,-1.06,-1.04
128.57,0.64,1.70,0.66,1.72,-1.74,-1.79,-2.23,-1.10,-1.09,-1.07
129.85,0.65,1.73,0.65,1.72,-1.74,-1.80,-2.23,-1.09,-1.09,-1.08
131.15,0.66,1.75,0.66,1.75,-1.74,-1.82,-2.24,-1.08,-1.08,-1.09
132.46,0.66,1.76,0.65,1.76,-1.74,-1.83,-2.23,-1.08,-1.09,-1.11
133.79,0.64,1.76,0.62,1.74,-1.74,-1.84,-2.23,-1.10,-1.12,-1.12
135.12,0.57,1.71,0.59,1.72,-1.74,-1.85,-2.22,-1.17,-1.14,-1.14
136.48,0.57,1.71,0.58,1.72,-1.73,-1.87,-2.22,-1.16,-1.16,-1.14
137.84,0.58,1.74,0.57,1.74,-1.73,-1.88,-2.20,-1.15,-1.15,-1.16
139.22,0.58,1.76,0.56,1.74,-1.72,-1.90,-2.19,-1.14,-1.15,-1.18
140.61,0.55,1.75,0.54,1.73,-1.71,-1.91,-2.17,-1.16,-1.18,-1.20
142.02,0.48,1.68,0.50,1.71,-1.71,-1.93,-2.16,-1.23,-1.21,-1.20
143.44,0.48,1.69,0.48,1.70,-1.72,-1.94,-2.14,-1.24,-1.24,-1.22
144.87,0.48,1.72,0.47,1.71,-1.73,-1.95,-2.12,-1.25,-1.26,-1.24
146.32,0.48,1.75,0.48,1.74,-1.75,-1.96,-2.10,-1.27,-1.27,-1.27
147.78,0.48,1.76,0.48,1.77,-1.78,-1.98,-2.08,-1.30,-1.30,-1.29
149.26,0.48,1.80,0.48,1.81,-1.81,-1.99,-2.05,-1.33,-1.33,-1.32
150.75,0.48,1.85,0.48,1.85,-1.85,-2.00,-2.03,-1.37,-1.37,-1.38
152.26,0.48,1.91,0.49,1.91,-1.89,-2.01,-2.01,-1.41,-1.41,-1.43
153.78,0.48,1.96,0.47,1.96,-1.94,-2.01,-1.99,-1.46,-1.47,-1.48
155.32,0.47,2.02,0.44,1.99,-1.99,-2.02,-1.97,-1.52,-1.54,-1.55
156.88,0.39,2.00,0.41,2.02,-2.04,-2.03,-1.94,-1.65,-1.63,-1.61
158.44,0.37,2.05,0.38,2.06,-2.09,-2.03,-1.92,-1.72,-1.71,-1.68
160.03,0.38,2.13,0.37,2.12,-2.14,-2.03,-1.90,-1.77,-1.77,-1.75
161.63,0.38,2.19,0.38,2.19,-2.19,-2.04,-1.89,-1.81,-1.81,-1.81
163.24,0.38,2.24,0.38,2.24,-2.23,-2.04,-1.87,-1.85,-1.85,-1.86
164.88,0.37,2.27,0.38,2.28,-2.26,-2.04,-1.85,-1.89,-1.88,-1.90
166.53,0.37,2.31,0.37,2.31,-2.28,-2.04,-1.84,-1.91,-1.91,-1.94
168.19,0.36,2.33,0.34,2.31,-2.30,-2.03,-1.82,-1.94,-1.96,-1.97
169.87,0.31,2.31,0.30,2.29,-2.30,-2.03,-1.81,-1.99,-2.00,-2.00
171.57,0.23,2.24,0.26,2.26,-2.29,-2.03,-1.80,-2.06,-2.04,-2.01
173.29,0.23,2.24,0.24,2.26,-2.27,-2.02,-1.79,-2.04,-2.03,-2.02
175.02,0.25,2.26,0.24,2.26,-2.24,-2.02,-1.78,-1.99,-2.00,-2.01
176.77,0.27,2.29,0.23,2.24,-2.21,-2.01,-1.77,-1.95,-1.99,-2.02
178.54,0.18,2.19,0.20,2.20,-2.19,-2.00,-1.77,-2.01,-1.99,-2.01
180.32,0.14,2.14,0.16,2.16,-2.17,-2.00,-1.76,-2.03,-2.01,-2.00
182.13,0.14,2.12,0.13,2.12,-2.16,-1.99,-1.76,-2.02,-2.03,-1.98
183.95,0.15,2.14,0.14,2.13,-2.16,-1.98,-1.76,-2.01,-2.02,-1.99
185.79,0.16,2.14,0.16,2.15,-2.16,-1.97,-1.76,-2.00,-2.00,-1.98
187.65,0.18,2.17,0.17,2.17,-2.17,-1.96,-1.76,-1.99,-1.99,-1.99
189.52,0.19,2.19,0.19,2.19,-2.18,-1.95,-1.76,-1.99,-1.99,-2.00
191.42,0.20,2.21,0.21,2.22,-2.19,-1.94,-1.77,-2.00,-1.98,-2.01
193.33,0.22,2.24,0.22,2.24,-2.22,-1.92,-1.77,-2.00,-2.00,-2.02
195.27,0.23,2.26,0.19,2.23,-2.23,-1.91,-1.78,-2.00,-2.04,-2.03
197.22,0.16,2.20,0.17,2.22,-2.24,-1.90,-1.79,-2.08,-2.07,-2.05
199.19,0.12,2.18,0.16,2.23,-2.24,-1.89,-1.79,-2.12,-2.07,-2.07
201.18,0.18,2.26,0.15,2.23,-2.22,-1.87,-1.80,-2.05,-2.07,-2.08
203.19,0.18,2.27,0.15,2.24,-2.21,-1.86,-1.81,-2.03,-2.06,-2.09
205.23,0.10,2.21,0.12,2.22,-2.19,-1.84,-1.82,-2.09,-2.06,-2.11
207.28,0.07,2.17,0.06,2.17,-2.17,-1.83,-1.84,-2.10,-2.11,-2.11
209.35,0.01,2.13,-0.00,2.13,-2.16,-1.81,-1.85,-2.15,-2.16,-2.13
211.44,-0.06,2.09,-0.03,2.11,-2.15,-1.80,-1.86,-2.21,-2.18,-2.15
213.56,-0.05,2.10,-0.05,2.10,-2.14,-1.78,-1.87,-2.20,-2.20,-2.15
215.69,-0.04,2.12,-0.05,2.11,-2.14,-1.76,-1.88,-2.18,-2.19,-2.16
217.85,-0.04,2.13,-0.03,2.14,-2.12,-1.75,-1.90,-2.17,-2.15,-2.17
220.03,-0.03,2.15,-0.03,2.15,-2.11,-1.73,-1.91,-2.14,-2.14,-2.18
222.23,-0.01,2.18,-0.05,2.14,-2.09,-1.71,-1.92,-2.10,-2.14,-2.19
224.45,-0.09,2.09,-0.07,2.11,-2.07,-1.70,-1.93,-2.16,-2.14,-2.18
226.70,-0.15,2.03,-0.13,2.05,-2.04,-1.68,-1.94,-2.19,-2.17,-2.18
228.96,-0.14,2.02,-0.19,1.97,-2.01,-1.66,-1.94,-2.15,-2.20,-2.16
231.25,-0.25,1.90,-0.22,1.93,-1.98,-1.64,-1.95,-2.23,-2.20,-2.15
233.57,-0.26,1.88,-0.24,1.90,-1.94,-1.63,-1.96,-2.21,-2.18,-2.14
235.90,-0.21,1.91,-0.23,1.89,-1.91,-1.61,-1.96,-2.13,-2.15,-2.12
238.26,-0.20,1.91,-0.20,1.90,-1.89,-1.59,-1.96,-2.09,-2.09,-2.11
240.64,-0.18,1.90,-0.17,1.91,-1.86,-1.57,-1.96,-2.05,-2.04,-2.08
243.05,-0.17,1.88,-0.17,1.88,-1.85,-1.56,-1.96,-2.02,-2.02,-2.05
245.48,-0.15,1.87,-0.19,1.84,-1.84,-1.54,-1.95,-1.99,-2.02,-2.03
247.93,-0.22,1.77,-0.20,1.79,-1.82,-1.52,-1.95,-2.05,-2.03,-1.99
250.41,-0.24,1.73,-0.21,1.76,-1.80,-1.50,-1.94,-2.04,-2.01,-1.98
252.92,-0.19,1.75,-0.20,1.74,-1.77,-1.48,-1.93,-1.96,-1.97,-1.94
255.45,-0.17,1.74,-0.18,1.74,-1.71,-1.46,-1.91,-1.89,-1.89,-1.91
258.00,-0.17,1.72,-0.17,1.72,-1.65,-1.45,-1.90,-1.82,-1.82,-1.89
260.58,-0.20,1.67,-0.20,1.67,-1.59,-1.43,-1.88,-1.79,-1.79,-1.87
263.19,-0.25,1.58,-0.29,1.55,-1.53,-1.41,-1.86,-1.78,-1.82,-1.84
265.82,-0.39,1.43,-0.39,1.43,-1.46,-1.39,-1.84,-1.85,-1.85,-1.82
268.48,-0.52,1.27,-0.47,1.33,-1.39,-1.37,-1.82,-1.91,-1.86,-1.79
271.16,-0.49,1.27,-0.50,1.26,-1.32,-1.36,-1.79,-1.81,-1.82,-1.76
273.87,-0.47,1.27,-0.49,1.24,-1.26,-1.34,-1.77,-1.73,-1.75,-1.74
276.61,-0.47,1.23,-0.47,1.24,-1.21,-1.32,-1.74,-1.68,-1.68,-1.70
279.38,-0.47,1.21,-0.47,1.21,-1.18,-1.30,-1.71,-1.65,-1.64,-1.68
282.17,-0.47,1.18,-0.49,1.16,-1.16,-1.28,-1.68,-1.63,-1.65,-1.65
284.99,-0.48,1.13,-0.49,1.12,-1.14,-1.27,-1.65,-1.63,-1.64,-1.61
287.84,-0.53,1.06,-0.46,1.13,-1.13,-1.25,-1.61,-1.66,-1.59,-1.60
290.72,-0.40,1.16,-0.43,1.13,-1.12,-1.23,-1.58,-1.52,-1.55,-1.56
293.63,-0.34,1.19,-0.41,1.12,-1.10,-1.21,-1.55,-1.45,-1.52,-1.53
296.57,-0.44,1.05,-0.39,1.11,-1.10,-1.20,-1.51,-1.54,-1.49,-1.49
299.53,-0.41,1.05,-0.38,1.09,-1.11,-1.18,-1.48,-1.52,-1.49,-1.47
302.53,-0.32,1.13,-0.36,1.07,-1.12,-1.16,-1.44,-1.44,-1.48,-1.45
305.55,-0.30,1.10,-0.30,1.11,-1.13,-1.14,-1.41,-1.43,-1.42,-1.40
308.61,-0.28,1.10,-0.25,1.13,-1.13,-1.13,-1.37,-1.41,-1.38,-1.38
311.69,-0.18,1.17,-0.21,1.14,-1.13,-1.11,-1.34,-1.31,-1.34,-1.35
314.81,-0.17,1.16,-0.17,1.16,-1.12,-1.09,-1.30,-1.29,-1.29,-1.33
317.96,-0.16,1.15,-0.16,1.15,-1.11,-1.08,-1.27,-1.27,-1.27,-1.31
321.14,-0.17,1.13,-0.19,1.10,-1.10,-1.06,-1.24,-1.27,-1.29,-1.30
324.35,-0.24,1.04,-0.23,1.06,-1.07,-1.05,-1.20,-1.31,-1.30,-1.28
327.59,-0.27,0.99,-0.26,1.01,-1.04,-1.03,-1.17,-1.31,-1.29,-1.26
330.87,-0.27,0.98,-0.27,0.98,-1.00,-1.01,-1.14,-1.27,-1.27,-1.26
334.18,-0.27,0.97,-0.27,0.96,-0.96,-1.00,-1.11,-1.23,-1.24,-1.24
337.52,-0.27,0.96,-0.30,0.93,-0.92,-0.98,-1.08,-1.20,-1.22,-1.23
340.90,-0.34,0.87,-0.33,0.89,-0.89,-0.97,-1.05,-1.23,-1.21,-1.21
344.30,-0.37,0.83,-0.35,0.85,-0.85,-0.95,-1.02,-1.22,-1.20,-1.20
347.75,-0.37,0.83,-0.38,0.82,-0.81,-0.94,-0.99,-1.18,-1.19,-1.20
351.23,-0.38,0.81,-0.40,0.80,-0.77,-0.92,-0.96,-1.15,-1.17,-1.19
354.74,-0.44,0.75,-0.45,0.75,-0.73,-0.91,-0.93,-1.17,-1.18,-1.19
358.28,-0.51,0.67,-0.50,0.69,-0.70,-0.89,-0.91,-1.21,-1.20,-1.19
361.87,-0.55,0.64,-0.54,0.64,-0.67,-0.88,-0.88,-1.23,-1.22,-1.19
365.49,-0.56,0.62,-0.56,0.62,-0.66,-0.86,-0.86,-1.22,-1.22,-1.18
369.14,-0.55,0.64,-0.56,0.63,-0.64,-0.85,-0.83,-1.20,-1.20,-1.19
372.83,-0.54,0.65,-0.54,0.65,-0.64,-0.84,-0.81,-1.18,-1.18,-1.19
376.56,-0.53,0.66,-0.53,0.66,-0.65,-0.82,-0.79,-1.18,-1.18,-1.19
380.33,-0.52,0.66,-0.52,0.66,-0.66,-0.81,-0.77,-1.18,-1.18,-1.18
384.13,-0.52,0.66,-0.52,0.67,-0.67,-0.80,-0.74,-1.19,-1.19,-1.18
387.97,-0.51,0.68,-0.51,0.68,-0.68,-0.78,-0.72,-1.19,-1.19,-1.19
391.85,-0.51,0.69,-0.51,0.69,-0.68,-0.77,-0.70,-1.19,-1.19,-1.20
395.77,-0.51,0.68,-0.51,0.69,-0.67,-0.76,-0.68,-1.18,-1.18,-1.20
399.73,-0.51,0.69,-0.53,0.68,-0.66,-0.75,-0.67,-1.17,-1.19,-1.21
403.72,-0.55,0.66,-0.56,0.65,-0.65,-0.73,-0.65,-1.20,-1.20,-1.21
407.76,-0.60,0.62,-0.59,0.63,-0.64,-0.72,-0.63,-1.24,-1.23,-1.22
411.84,-0.62,0.60,-0.62,0.60,-0.62,-0.71,-0.61,-1.24,-1.24,-1.22
415.96,-0.62,0.60,-0.63,0.60,-0.61,-0.70,-0.60,-1.23,-1.24,-1.22
420.12,-0.62,0.60,-0.62,0.60,-0.61,-0.68,-0.58,-1.23,-1.23,-1.22
424.32,-0.61,0.61,-0.61,0.60,-0.61,-0.67,-0.56,-1.22,-1.22,-1.22
428.56,-0.60,0.61,-0.60,0.61,-0.61,-0.66,-0.55,-1.21,-1.21,-1.21
432.85,-0.59,0.61,-0.59,0.61,-0.61,-0.65,-0.53,-1.20,-1.20,-1.20
437.18,-0.56,0.63,-0.56,0.62,-0.62,-0.64,-0.52,-1.18,-1.18,-1.19
441.55,-0.53,0.62,-0.52,0.63,-0.62,-0.63,-0.51,-1.15,-1.14,-1.15
445.96,-0.48,0.64,-0.49,0.63,-0.62,-0.62,-0.49,-1.10,-1.11,-1.12
450.42,-0.46,0.63,-0.47,0.62,-0.62,-0.61,-0.48,-1.08,-1.09,-1.09
454.93,-0.46,0.58,-0.44,0.60,-0.62,-0.60,-0.47,-1.08,-1.06,-1.04
459.48,-0.41,0.58,-0.41,0.58,-0.61,-0.59,-0.46,-1.02,-1.02,-0.99
