frequency,raw
20,-14.81
21,-14.53
22,-14.24
23,-13.95
24,-13.66
25,-13.37
26,-13.07
27,-12.77
28,-12.47
29,-12.16
30,-11.86
31,-11.44
32,-11.06
33,-10.72
34,-10.34
35,-9.98
36,-9.66
37,-9.39
38,-9.13
39,-8.85
40,-8.51
41,-8.13
42,-7.74
43,-7.33
44,-6.91
45,-6.49
46,-6.11
47,-5.78
48,-5.50
49,-5.26
50,-5.02
51,-4.79
52,-4.55
53,-4.29
54,-4.00
55,-3.72
56,-3.40
57,-3.07
58,-2.74
59,-2.39
60,-2.05
61,-1.72
62,-1.41
63,-1.10
64,-0.82
65,-0.53
66,-0.28
67,-0.02
68,0.22
69,0.44
70,0.65
71,0.86
72,1.04
73,1.21
74,1.37
75,1.53
76,1.67
77,1.80
78,1.90
79,2.01
80,2.12
81,2.20
82,2.29
83,2.37
84,2.44
85,2.51
86,2.56
87,2.62
88,2.66
89,2.69
90,2.72
91,2.74
92,2.75
93,2.76
94,2.78
95,2.78
96,2.78
97,2.76
98,2.75
99,2.73
100,2.71
101,2.68
102,2.66
104,2.63
105,2.61
106,2.57
107,2.53
108,2.49
109,2.44
110,2.39
111,2.34
112,2.30
113,2.26
114,2.23
115,2.21
117,2.19
118,2.17
119,2.14
120,2.11
121,2.08
123,2.05
124,2.03
125,2.00
126,1.98
128,1.95
129,1.93
130,1.91
131,1.88
133,1.85
134,1.81
135,1.77
137,1.74
138,1.71
140,1.68
141,1.64
142,1.61
144,1.57
145,1.51
147,1.45
148,1.38
150,1.30
151,1.23
153,1.16
154,1.10
156,1.04
157,0.98
159,0.92
160,0.85
162,0.78
164,0.72
165,0.68
167,0.63
169,0.59
170,0.55
172,0.52
174,0.51
175,0.49
177,0.47
179,0.46
181,0.45
183,0.47
184,0.49
186,0.49
188,0.48
190,0.47
192,0.44
194,0.42
196,0.38
198,0.35
200,0.32
202,0.28
204,0.25
206,0.23
208,0.21
210,0.18
212,0.16
214,0.13
216,0.11
218,0.08
221,0.07
223,0.05
225,0.01
227,-0.02
229,-0.06
232,-0.09
234,-0.12
236,-0.15
239,-0.17
241,-0.19
244,-0.20
246,-0.20
248,-0.19
251,-0.18
253,-0.18
256,-0.18
259,-0.18
261,-0.18
264,-0.18
266,-0.17
269,-0.17
272,-0.16
274,-0.15
277,-0.16
280,-0.17
283,-0.18
286,-0.21
288,-0.23
291,-0.26
294,-0.30
297,-0.33
300,-0.37
303,-0.40
306,-0.43
309,-0.46
312,-0.48
316,-0.50
319,-0.52
322,-0.52
325,-0.52
328,-0.51
332,-0.50
335,-0.50
338,-0.50
342,-0.50
345,-0.50
349,-0.50
352,-0.50
356,-0.49
359,-0.48
363,-0.48
366,-0.48
370,-0.49
374,-0.51
377,-0.53
381,-0.56
385,-0.59
389,-0.62
393,-0.66
397,-0.69
401,-0.72
405,-0.75
409,-0.78
413,-0.81
417,-0.83
421,-0.84
425,-0.84
430,-0.84
434,-0.84
438,-0.83
443,-0.83
447,-0.82
451,-0.82
456,-0.82
460,-0.82
465,-0.82
470,-0.82
474,-0.82
479,-0.82
484,-0.82
489,-0.82
494,-0.82
499,-0.82
504,-0.82
509,-0.82
514,-0.82
519,-0.82
524,-0.82
529,-0.82
535,-0.82
540,-0.82
545,-0.82
551,-0.82
556,-0.82
562,-0.82
568,-0.82
573,-0.82
579,-0.82
585,-0.82
591,-0.82
596,-0.82
602,-0.82
608,-0.82
615,-0.82
621,-0.82
627,-0.82
633,-0.82
639,-0.82
646,-0.82
652,-0.82
659,-0.82
665,-0.82
672,-0.82
679,-0.82
686,-0.82
692,-0.82
699,-0.82
706,-0.82
713,-0.82
721,-0.83
728,-0.84
735,-0.85
742,-0.85
750,-0.84
757,-0.83
765,-0.81
773,-0.78
780,-0.75
788,-0.72
796,-0.69
804,-0.65
812,-0.62
820,-0.59
828,-0.57
837,-0.55
845,-0.53
853,-0.50
862,-0.48
871,-0.46
879,-0.44
888,-0.42
897,-0.40
906,-0.38
915,-0.35
924,-0.31
933,-0.27
943,-0.23
952,-0.18
962,-0.14
971,-0.10
981,-0.06
991,-0.03
1001,0.00
1011,0.04
1021,0.09
1031,0.15
1041,0.21
1052,0.28
1062,0.35
1073,0.42
1084,0.50
1094,0.57
1105,0.66
1116,0.76
1128,0.86
1139,0.96
1150,1.08
1162,1.18
1173,1.28
1185,1.39
1197,1.50
1209,1.60
1221,1.71
1233,1.83
1246,1.95
1258,2.07
1271,2.19
1283,2.32
1296,2.45
1309,2.58
1322,2.72
1335,2.86
1349,3.00
1362,3.13
1376,3.26
1390,3.40
1404,3.52
1418,3.64
1432,3.75
1446,3.87
1461,3.97
1475,4.08
1490,4.19
1505,4.30
1520,4.41
1535,4.52
1550,4.64
1566,4.75
1582,4.87
1597,4.99
1613,5.11
1629,5.24
1646,5.37
1662,5.47
1679,5.59
1696,5.70
1713,5.81
1730,5.92
1747,6.02
1764,6.12
1782,6.22
1800,6.31
1818,6.41
1836,6.51
1854,6.59
1873,6.66
1892,6.72
1911,6.76
1930,6.80
1949,6.82
1969,6.84
1988,6.84
2008,6.82
2028,6.78
2048,6.74
2069,6.69
2090,6.62
2111,6.53
2132,6.42
2153,6.31
2175,6.18
2196,6.05
2218,5.90
2240,5.73
2263,5.55
2285,5.36
2308,5.15
2331,4.95
2355,4.73
2378,4.51
2402,4.27
2426,4.02
2450,3.75
2475,3.48
2500,3.20
2525,2.92
2550,2.62
2575,2.31
2601,1.97
2627,1.62
2653,1.27
2680,0.91
2707,0.55
2734,0.20
2761,-0.14
2789,-0.48
2817,-0.81
2845,-1.13
2873,-1.43
2902,-1.70
2931,-1.95
2960,-2.17
2990,-2.37
3020,-2.55
3050,-2.68
3080,-2.78
3111,-2.83
3142,-2.83
3174,-2.79
3206,-2.68
3238,-2.50
3270,-2.27
3303,-1.99
3336,-1.66
3369,-1.30
3403,-0.91
3437,-0.51
3471,-0.09
3506,0.33
3541,0.73
3576,1.11
3612,1.46
3648,1.78
3685,2.08
3721,2.37
3759,2.64
3796,2.91
3834,3.18
3873,3.44
3911,3.70
3950,3.96
3990,4.20
4030,4.43
4070,4.65
4111,4.86
4152,5.05
4193,5.22
4235,5.38
4278,5.53
4321,5.66
4364,5.78
4407,5.89
4451,6.01
4496,6.13
4541,6.27
4586,6.41
4632,6.57
4679,6.74
4725,6.92
4773,7.12
4820,7.33
4868,7.53
4917,7.75
4966,7.95
5016,8.15
5066,8.33
5117,8.52
5168,8.71
5220,8.89
5272,9.04
5325,9.16
5378,9.26
5432,9.34
5486,9.40
5541,9.44
5596,9.46
5652,9.46
5709,9.44
5766,9.42
5823,9.36
5882,9.27
5940,9.16
6000,9.02
6060,8.85
6120,8.65
6182,8.42
6244,8.17
6306,7.91
6369,7.62
6433,7.32
6497,7.01
6562,6.68
6628,6.35
6694,6.00
6761,5.65
6828,5.30
6897,4.95
6966,4.59
7035,4.23
7106,3.87
7177,3.50
7249,3.13
7321,2.76
7394,2.41
7468,2.08
7543,1.76
7618,1.46
7694,1.19
7771,0.94
7849,0.71
7928,0.49
8007,0.27
8087,0.07
8168,-0.15
8250,-0.36
8332,-0.56
8415,-0.77
8499,-0.99
8584,-1.20
8670,-1.40
8757,-1.60
8845,-1.78
8933,-1.95
9022,-2.10
9113,-2.24
9204,-2.37
9296,-2.48
9389,-2.56
9483,-2.63
9577,-2.69
9673,-2.73
9770,-2.74
9868,-2.73
9966,-2.70
10066,-2.63
10167,-2.52
10268,-2.39
10371,-2.22
10475,-2.02
10579,-1.79
10685,-1.56
10792,-1.31
10900,-1.05
11009,-0.79
11119,-0.53
11230,-0.29
11343,-0.04
11456,0.20
11571,0.43
11686,0.66
11803,0.89
11921,1.14
12040,1.39
12161,1.66
12282,1.93
12405,2.21
12529,2.49
12655,2.76
12781,3.01
12909,3.24
13038,3.45
13168,3.63
13300,3.79
13433,3.91
13567,4.01
13703,4.07
13840,4.11
13978,4.14
14118,4.15
14259,4.15
14402,4.12
14546,4.09
14692,4.02
14838,3.92
14987,3.77
15137,3.58
15288,3.34
15441,3.06
15595,2.73
15751,2.37
15909,1.98
16068,1.57
16229,1.16
16391,0.75
16555,0.36
16720,-0.03
16888,-0.38
17056,-0.69
17227,-0.98
17399,-1.25
17573,-1.51
17749,-1.74
17926,-1.98
18106,-2.21
18287,-2.44
18470,-2.68
18654,-2.91
18841,-3.13
19029,-3.35
19220,-3.56
19412,-3.77
19606,-3.97
19802,-4.17
20000,-4.36
