frequency,raw
20,-4.44
21,-3.88
22,-3.35
23,-2.85
24,-2.36
25,-1.90
26,-1.45
27,-1.03
28,-0.63
29,-0.25
30,0.10
31,0.43
32,0.74
33,1.03
34,1.30
35,1.54
36,1.78
37,2.00
38,2.19
39,2.36
40,2.51
41,2.65
42,2.77
43,2.88
44,2.99
45,3.07
46,3.14
47,3.21
48,3.26
49,3.30
50,3.32
51,3.34
52,3.37
53,3.40
54,3.42
55,3.47
56,3.51
57,3.54
58,3.57
59,3.59
60,3.60
61,3.63
62,3.67
63,3.71
64,3.76
65,3.81
66,3.84
67,3.87
68,3.90
69,3.93
70,3.97
71,4.01
72,4.07
73,4.12
74,4.18
75,4.23
76,4.27
77,4.31
78,4.34
79,4.36
80,4.38
81,4.40
82,4.42
83,4.44
84,4.44
85,4.44
86,4.43
87,4.42
88,4.42
89,4.42
90,4.42
91,4.42
92,4.42
93,4.42
94,4.42
95,4.42
96,4.42
97,4.42
98,4.42
99,4.42
100,4.42
101,4.42
102,4.42
104,4.42
105,4.42
106,4.43
107,4.44
108,4.44
109,4.44
110,4.43
111,4.41
112,4.39
113,4.36
114,4.33
115,4.30
117,4.28
118,4.25
119,4.22
120,4.18
121,4.13
123,4.08
124,4.04
125,4.00
126,3.97
128,3.95
129,3.92
130,3.89
131,3.84
133,3.80
134,3.76
135,3.71
137,3.66
138,3.61
140,3.56
141,3.53
142,3.49
144,3.43
145,3.37
147,3.31
148,3.24
150,3.18
151,3.11
153,3.05
154,2.98
156,2.92
157,2.84
159,2.76
160,2.70
162,2.64
164,2.57
165,2.49
167,2.41
169,2.34
170,2.27
172,2.21
174,2.14
175,2.07
177,1.99
179,1.91
181,1.81
183,1.69
184,1.58
186,1.48
188,1.37
190,1.24
192,1.10
194,0.97
196,0.84
198,0.70
200,0.54
202,0.40
204,0.26
206,0.12
208,-0.02
210,-0.16
212,-0.31
214,-0.47
216,-0.62
218,-0.77
221,-0.92
223,-1.08
225,-1.24
227,-1.41
229,-1.59
232,-1.78
234,-1.95
236,-2.13
239,-2.30
241,-2.49
244,-2.69
246,-2.89
248,-3.08
251,-3.26
253,-3.44
256,-3.63
259,-3.81
261,-3.97
264,-4.11
266,-4.23
269,-4.34
272,-4.44
274,-4.52
277,-4.56
280,-4.58
283,-4.55
286,-4.48
288,-4.40
291,-4.29
294,-4.16
297,-4.01
300,-3.84
303,-3.65
306,-3.44
309,-3.25
312,-3.05
316,-2.85
319,-2.63
322,-2.41
325,-2.20
328,-2.02
332,-1.82
335,-1.62
338,-1.43
342,-1.24
345,-1.06
349,-0.88
352,-0.72
356,-0.57
359,-0.42
363,-0.28
366,-0.17
370,-0.07
374,0.03
377,0.13
381,0.22
385,0.31
389,0.41
393,0.48
397,0.55
401,0.61
405,0.68
409,0.73
413,0.78
417,0.81
421,0.84
425,0.86
430,0.86
434,0.87
438,0.87
443,0.87
447,0.86
451,0.87
456,0.88
460,0.88
465,0.88
470,0.87
474,0.85
479,0.83
484,0.80
489,0.75
494,0.69
499,0.62
504,0.53
509,0.41
514,0.27
519,0.11
524,-0.06
529,-0.24
535,-0.42
540,-0.61
545,-0.79
551,-0.97
556,-1.16
562,-1.33
568,-1.50
573,-1.66
579,-1.78
585,-1.88
591,-1.95
596,-2.00
602,-2.01
608,-2.00
615,-1.97
621,-1.92
627,-1.84
633,-1.73
639,-1.61
646,-1.47
652,-1.30
659,-1.14
665,-0.99
672,-0.84
679,-0.70
686,-0.57
692,-0.44
699,-0.32
706,-0.22
713,-0.13
721,-0.06
728,0.01
735,0.07
742,0.11
750,0.13
757,0.16
765,0.19
773,0.20
780,0.21
788,0.22
796,0.22
804,0.22
812,0.21
820,0.20
828,0.20
837,0.20
845,0.20
853,0.20
862,0.20
871,0.20
879,0.20
888,0.20
897,0.21
906,0.22
915,0.22
924,0.22
933,0.22
943,0.21
952,0.20
962,0.17
971,0.13
981,0.09
991,0.04
1001,-0.00
1011,-0.07
1021,-0.14
1031,-0.21
1041,-0.29
1052,-0.37
1062,-0.45
1073,-0.52
1084,-0.58
1094,-0.62
1105,-0.67
1116,-0.72
1128,-0.76
1139,-0.78
1150,-0.79
1162,-0.81
1173,-0.81
1185,-0.79
1197,-0.76
1209,-0.71
1221,-0.65
1233,-0.59
1246,-0.52
1258,-0.44
1271,-0.34
1283,-0.25
1296,-0.16
1309,-0.05
1322,0.06
1335,0.17
1349,0.26
1362,0.35
1376,0.45
1390,0.54
1404,0.62
1418,0.69
1432,0.78
1446,0.86
1461,0.93
1475,1.01
1490,1.09
1505,1.17
1520,1.24
1535,1.31
1550,1.38
1566,1.45
1582,1.54
1597,1.62
1613,1.69
1629,1.75
1646,1.82
1662,1.90
1679,1.97
1696,2.04
1713,2.10
1730,2.18
1747,2.26
1764,2.31
1782,2.35
1800,2.38
1818,2.42
1836,2.44
1854,2.43
1873,2.41
1892,2.38
1911,2.34
1930,2.28
1949,2.20
1969,2.09
1988,1.97
2008,1.85
2028,1.70
2048,1.53
2069,1.35
2090,1.17
2111,0.98
2132,0.78
2153,0.58
2175,0.38
2196,0.19
2218,0.03
2240,-0.11
2263,-0.25
2285,-0.36
2308,-0.42
2331,-0.44
2355,-0.43
2378,-0.38
2402,-0.30
2426,-0.18
2450,-0.03
2475,0.15
2500,0.36
2525,0.58
2550,0.81
2575,1.05
2601,1.31
2627,1.58
2653,1.86
2680,2.14
2707,2.42
2734,2.68
2761,2.93
2789,3.20
2817,3.47
2845,3.75
2873,4.02
2902,4.29
2931,4.57
2960,4.85
2990,5.12
3020,5.38
3050,5.64
3080,5.90
3111,6.16
3142,6.41
3174,6.65
3206,6.88
3238,7.11
3270,7.31
3303,7.51
3336,7.69
3369,7.86
3403,8.02
3437,8.18
3471,8.33
3506,8.47
3541,8.61
3576,8.73
3612,8.86
3648,8.99
3685,9.13
3721,9.27
3759,9.42
3796,9.56
3834,9.69
3873,9.84
3911,10.01
3950,10.19
3990,10.37
4030,10.56
4070,10.75
4111,10.92
4152,11.10
4193,11.28
4235,11.47
4278,11.63
4321,11.78
4364,11.92
4407,12.06
4451,12.19
4496,12.30
4541,12.40
4586,12.48
4632,12.55
4679,12.61
4725,12.67
4773,12.72
4820,12.77
4868,12.79
4917,12.82
4966,12.84
5016,12.85
5066,12.86
5117,12.87
5168,12.86
5220,12.84
5272,12.83
5325,12.83
5378,12.84
5432,12.84
5486,12.86
5541,12.90
5596,12.94
5652,12.99
5709,13.06
5766,13.14
5823,13.21
5882,13.28
5940,13.34
6000,13.40
6060,13.44
6120,13.45
6182,13.43
6244,13.39
6306,13.31
6369,13.21
6433,13.09
6497,12.94
6562,12.75
6628,12.55
6694,12.33
6761,12.09
6828,11.83
6897,11.56
6966,11.26
7035,10.92
7106,10.56
7177,10.17
7249,9.76
7321,9.33
7394,8.88
7468,8.44
7543,8.01
7618,7.61
7694,7.23
7771,6.89
7849,6.61
7928,6.37
8007,6.19
8087,6.06
8168,5.99
8250,5.98
8332,6.01
8415,6.07
8499,6.16
8584,6.27
8670,6.41
8757,6.56
8845,6.71
8933,6.87
9022,7.03
9113,7.20
9204,7.37
9296,7.54
9389,7.70
9483,7.84
9577,7.99
9673,8.12
9770,8.25
9868,8.37
9966,8.48
10066,8.56
10167,8.63
10268,8.70
10371,8.77
10475,8.84
10579,8.91
10685,8.96
10792,9.01
10900,9.07
11009,9.12
11119,9.18
11230,9.25
11343,9.31
11456,9.36
11571,9.40
11686,9.45
11803,9.50
11921,9.54
12040,9.58
12161,9.61
12282,9.62
12405,9.65
12529,9.66
12655,9.65
12781,9.62
12909,9.58
13038,9.52
13168,9.45
13300,9.39
13433,9.31
13567,9.22
13703,9.13
13840,9.04
13978,8.95
14118,8.86
14259,8.75
14402,8.65
14546,8.55
14692,8.45
14838,8.33
14987,8.19
15137,8.05
15288,7.88
15441,7.69
15595,7.47
15751,7.22
15909,6.94
16068,6.64
16229,6.32
16391,5.97
16555,5.59
16720,5.18
16888,4.74
17056,4.28
17227,3.78
17399,3.26
17573,2.73
17749,2.20
17926,1.66
18106,1.14
18287,0.70
18470,0.27
18654,-0.15
18841,-0.55
19029,-0.94
19220,-1.32
19412,-1.68
19606,-2.02
19802,-2.36
20000,-2.68
