frequency,raw
20.00,-2.51
20.20,-2.42
20.40,-2.32
20.61,-2.23
20.81,-2.13
21.02,-2.04
21.23,-1.94
21.44,-1.85
21.66,-1.75
21.87,-1.66
22.09,-1.57
22.31,-1.51
22.54,-1.45
22.76,-1.39
22.99,-1.32
23.22,-1.23
23.45,-1.13
23.69,-1.04
23.92,-0.94
24.16,-0.84
24.40,-0.74
24.65,-0.64
24.89,-0.53
25.14,-0.45
25.39,-0.39
25.65,-0.32
25.91,-0.25
26.16,-0.20
26.43,-0.16
26.69,-0.11
26.96,-0.07
27.23,0.00
27.50,0.08
27.77,0.15
28.05,0.21
28.33,0.22
28.62,0.22
28.90,0.23
29.19,0.27
29.48,0.34
29.78,0.41
30.08,0.48
30.38,0.54
30.68,0.61
30.99,0.68
31.30,0.75
31.61,0.82
31.93,0.89
32.24,0.91
32.57,0.91
32.89,0.91
33.22,0.96
33.55,1.04
33.89,1.11
34.23,1.14
34.57,1.14
34.92,1.14
35.27,1.14
35.62,1.14
35.97,1.14
36.33,1.15
36.70,1.16
37.06,1.18
37.43,1.26
37.81,1.33
38.19,1.37
38.57,1.37
38.95,1.37
39.34,1.37
39.74,1.37
40.14,1.37
40.54,1.37
40.94,1.37
41.35,1.37
41.76,1.37
42.18,1.37
42.60,1.37
43.03,1.38
43.46,1.48
43.90,1.58
44.33,1.60
44.78,1.60
45.23,1.60
45.68,1.60
46.13,1.60
46.60,1.60
47.06,1.60
47.53,1.60
48.01,1.60
48.49,1.60
48.97,1.60
49.46,1.60
49.96,1.60
50.46,1.60
50.96,1.60
51.47,1.60
51.99,1.60
52.51,1.60
53.03,1.60
53.56,1.60
54.10,1.60
54.64,1.60
55.18,1.60
55.74,1.60
56.29,1.60
56.86,1.60
57.42,1.60
58.00,1.60
58.58,1.60
59.16,1.60
59.76,1.60
60.35,1.60
60.96,1.60
61.57,1.60
62.18,1.60
62.80,1.60
63.43,1.60
64.07,1.60
64.71,1.60
65.35,1.60
66.01,1.60
66.67,1.60
67.33,1.60
68.01,1.60
68.69,1.60
69.37,1.60
70.07,1.60
70.77,1.60
71.48,1.49
72.19,1.37
72.91,1.37
73.64,1.37
74.38,1.43
75.12,1.55
75.87,1.59
76.63,1.60
77.40,1.60
78.17,1.60
78.95,1.60
79.74,1.60
80.54,1.60
81.35,1.60
82.16,1.60
82.98,1.60
83.81,1.60
84.65,1.60
85.50,1.54
86.35,1.43
87.22,1.37
88.09,1.37
88.97,1.37
89.86,1.37
90.76,1.37
91.66,1.37
92.58,1.37
93.51,1.37
94.44,1.37
95.39,1.37
96.34,1.33
97.30,1.22
98.28,1.14
99.26,1.14
100.25,1.14
101.25,1.14
102.27,1.14
103.29,1.14
104.32,1.14
105.37,1.14
106.42,1.14
107.48,1.14
108.56,1.14
109.64,1.14
110.74,1.14
111.85,1.14
112.97,1.16
114.10,1.37
115.24,1.37
116.39,1.37
117.55,1.37
118.73,1.37
119.92,1.37
121.12,1.37
122.33,1.37
123.55,1.47
124.79,1.59
126.03,1.60
127.29,1.60
128.57,1.60
129.85,1.60
131.15,1.60
132.46,1.60
133.79,1.60
135.12,1.60
136.48,1.65
137.84,1.80
139.22,1.82
140.61,1.82
142.02,1.82
143.44,1.82
144.87,1.82
146.32,1.82
147.78,1.82
149.26,1.82
150.75,1.82
152.26,1.82
153.78,1.82
155.32,1.82
156.88,1.82
158.44,1.82
160.03,1.82
161.63,1.82
163.24,1.82
164.88,1.82
166.53,1.82
168.19,1.82
169.87,1.82
171.57,1.82
173.29,1.96
175.02,2.05
176.77,2.05
178.54,2.05
180.32,2.05
182.13,2.05
183.95,2.05
185.79,2.05
187.65,2.05
189.52,1.87
191.42,1.82
193.33,1.82
195.27,1.82
197.22,1.82
199.19,1.82
201.18,1.82
203.19,1.82
205.23,1.82
207.28,1.82
209.35,1.82
211.44,1.82
213.56,1.82
215.69,1.82
217.85,1.62
220.03,1.60
222.23,1.60
224.45,1.60
226.70,1.60
228.96,1.60
231.25,1.43
233.57,1.37
235.90,1.37
238.26,1.37
240.64,1.37
243.05,1.37
245.48,1.37
247.93,1.37
250.41,1.37
252.92,1.37
255.45,1.37
258.00,1.37
260.58,1.37
263.19,1.37
265.82,1.37
268.48,1.31
271.16,1.18
273.87,1.14
276.61,1.14
279.38,1.14
282.17,1.14
284.99,1.14
287.84,1.14
290.72,1.07
293.63,0.93
296.57,0.91
299.53,0.91
302.53,0.91
305.55,0.91
308.61,0.91
311.69,0.91
314.81,0.91
317.96,0.77
321.14,0.68
324.35,0.68
327.59,0.68
330.87,0.68
334.18,0.58
337.52,0.47
340.90,0.45
344.30,0.28
347.75,0.23
351.23,0.23
354.74,0.13
358.28,0.02
361.87,0.00
365.49,-0.16
369.14,-0.22
372.83,-0.23
376.56,-0.28
380.33,-0.52
384.13,-0.66
387.97,-0.68
391.85,-0.69
395.77,-0.85
399.73,-0.97
403.72,-1.10
407.76,-1.14
411.84,-1.27
415.96,-1.36
420.12,-1.37
424.32,-1.37
428.56,-1.37
432.85,-1.37
437.18,-1.47
441.55,-1.57
445.96,-1.60
450.42,-1.60
454.93,-1.60
459.48,-1.60
464.07,-1.69
468.71,-1.79
473.40,-1.82
478.13,-1.82
482.91,-1.82
487.74,-1.88
492.62,-2.09
497.55,-2.25
502.52,-2.28
507.55,-2.28
512.62,-2.45
517.75,-2.51
522.93,-2.57
528.16,-2.71
533.44,-2.86
538.77,-2.95
544.16,-2.96
549.60,-2.98
555.10,-3.19
560.65,-3.38
566.25,-3.52
571.92,-3.63
577.64,-3.65
583.41,-3.65
589.25,-3.81
595.14,-3.90
601.09,-4.07
607.10,-4.10
613.17,-4.24
619.30,-4.32
625.50,-4.33
631.75,-4.35
638.07,-4.53
644.45,-4.56
650.89,-4.56
657.40,-4.56
663.98,-4.72
670.62,-4.78
677.32,-4.79
684.10,-4.79
690.94,-4.79
697.85,-4.79
704.83,-4.79
711.87,-4.79
718.99,-4.76
726.18,-4.61
733.44,-4.56
740.78,-4.56
748.19,-4.43
755.67,-4.34
763.23,-4.15
770.86,-3.93
778.57,-3.83
786.35,-3.68
794.22,-3.54
802.16,-3.44
810.18,-3.26
818.28,-3.01
826.46,-2.75
834.73,-2.56
843.08,-2.42
851.51,-2.30
860.02,-2.14
868.62,-2.06
877.31,-1.86
886.08,-1.60
894.94,-1.34
903.89,-1.17
912.93,-1.02
922.06,-0.93
931.28,-0.74
940.59,-0.52
950.00,-0.41
959.50,-0.27
969.09,-0.13
978.78,-0.02
988.57,0.00
998.46,0.00
1008.44,0.00
1018.53,0.00
1028.71,0.00
1039.00,0.00
1049.39,-0.14
1059.88,-0.22
1070.48,-0.23
1081.19,-0.23
1092.00,-0.17
1102.92,-0.03
1113.95,0.11
1125.09,0.36
1136.34,0.45
1147.70,0.46
1159.18,0.51
1170.77,0.65
1182.48,0.68
1194.30,0.68
1206.25,0.68
1218.31,0.68
1230.49,0.68
1242.80,0.68
1255.22,0.68
1267.78,0.68
1280.45,0.55
1293.26,0.47
1306.19,0.46
1319.25,0.46
1332.45,0.40
1345.77,0.26
1359.23,0.23
1372.82,0.08
1386.55,0.01
1400.41,-0.17
1414.42,-0.23
1428.56,-0.23
1442.85,-0.32
1457.28,-0.56
1471.85,-0.67
1486.57,-0.68
1501.43,-0.71
1516.45,-0.87
1531.61,-1.00
1546.93,-1.22
1562.40,-1.35
1578.02,-1.53
1593.80,-1.60
1609.74,-1.78
1625.84,-1.88
1642.10,-2.02
1658.52,-2.05
1675.10,-2.05
1691.85,-2.05
1708.77,-2.22
1725.86,-2.33
1743.12,-2.47
1760.55,-2.51
1778.15,-2.63
1795.94,-2.72
1813.90,-2.74
1832.03,-2.76
1850.36,-2.92
1868.86,-2.96
1887.55,-3.07
1906.42,-3.17
1925.49,-3.19
1944.74,-3.19
1964.19,-3.19
1983.83,-3.25
2003.67,-3.39
2023.71,-3.42
2043.94,-3.42
2064.38,-3.42
2085.03,-3.42
2105.88,-3.42
2126.94,-3.42
2148.20,-3.42
2169.69,-3.30
2191.38,-3.21
2213.30,-3.19
2235.43,-3.19
2257.78,-3.19
2280.36,-3.12
2303.17,-2.89
2326.20,-2.76
2349.46,-2.58
2372.95,-2.51
2396.68,-2.51
2420.65,-2.51
2444.86,-2.42
2469.31,-2.31
2494.00,-2.14
2518.94,-2.06
2544.13,-1.87
2569.57,-1.78
2595.27,-1.57
2621.22,-1.31
2647.43,-1.05
2673.90,-0.93
2700.64,-0.74
2727.65,-0.56
2754.93,-0.25
2782.48,0.04
2810.30,0.30
2838.40,0.63
2866.79,1.01
2895.46,1.40
2924.41,1.87
2953.65,2.24
2983.19,2.64
3013.02,3.04
3043.15,3.47
3073.58,3.96
3104.32,4.47
3135.36,4.90
3166.72,5.34
3198.38,5.74
3230.37,6.10
3262.67,6.54
3295.30,6.96
3328.25,7.46
3361.53,7.96
3395.15,8.37
3429.10,8.71
3463.39,8.99
3498.03,9.25
3533.01,9.52
3568.34,9.78
3604.02,9.99
3640.06,10.11
3676.46,10.23
3713.22,10.26
3750.36,10.26
3787.86,10.07
3825.74,9.82
3864.00,9.55
3902.64,9.29
3941.66,8.97
3981.08,8.59
4020.89,8.11
4061.10,7.68
4101.71,7.23
4142.73,6.85
4184.15,6.41
4226.00,5.88
4268.26,5.33
4310.94,4.79
4354.05,4.29
4397.59,3.93
4441.56,3.52
4485.98,3.12
4530.84,2.70
4576.15,2.22
4621.91,1.70
4668.13,1.26
4714.81,0.82
4761.96,0.43
4809.58,-0.06
4857.67,-0.72
4906.25,-1.41
4955.31,-2.15
5004.87,-2.72
5054.91,-3.18
5105.46,-3.48
5156.52,-3.56
5208.08,-3.32
5260.16,-3.20
5312.77,-3.21
5365.89,-3.42
5419.55,-3.61
5473.75,-3.65
5528.49,-3.65
5583.77,-3.65
5639.61,-3.65
5696.00,-3.63
5752.96,-3.47
5810.49,-3.08
5868.60,-2.62
5927.28,-2.22
5986.56,-2.07
6046.42,-1.89
6106.89,-2.08
6167.96,-2.56
6229.64,-3.18
6291.93,-3.93
6354.85,-4.79
6418.40,-5.70
6482.58,-6.51
6547.41,-7.33
6612.88,-8.26
6679.01,-9.34
6745.80,-10.43
6813.26,-11.49
6881.39,-12.28
6950.21,-13.03
7019.71,-13.76
7089.91,-14.68
7160.81,-15.66
7232.41,-16.65
7304.74,-17.45
7377.79,-18.12
7451.56,-18.65
7526.08,-19.00
7601.34,-19.13
7677.35,-19.03
7754.13,-18.94
7831.67,-19.09
7909.98,-19.16
7989.08,-19.37
8068.98,-19.56
8149.67,-19.50
8231.16,-19.52
8313.47,-19.81
8396.61,-20.29
8480.57,-20.60
8565.38,-20.68
8651.03,-20.02
8737.54,-18.70
8824.92,-17.18
8913.17,-15.64
9002.30,-14.45
9092.32,-13.54
9183.25,-12.48
9275.08,-11.32
9367.83,-10.15
9461.51,-9.50
9556.12,-9.77
9651.68,-10.50
9748.20,-11.48
9845.68,-12.34
9944.14,-12.94
10043.58,-13.31
10144.02,-13.58
10245.46,-13.67
10347.91,-13.38
10451.39,-13.08
10555.91,-12.74
10661.46,-12.41
10768.08,-12.10
10875.76,-11.67
10984.52,-11.24
11094.36,-10.65
11205.31,-10.07
11317.36,-9.49
11430.53,-8.89
11544.84,-8.32
11660.29,-7.45
11776.89,-6.51
11894.66,-5.36
12013.60,-4.14
12133.74,-3.01
12255.08,-2.03
12377.63,-1.21
12501.41,-0.68
12626.42,-0.33
12752.68,-0.51
12880.21,-1.03
13009.01,-1.66
13139.10,-2.39
13270.49,-3.23
13403.20,-4.24
13537.23,-5.44
13672.60,-6.49
13809.33,-7.50
13947.42,-8.45
14086.90,-9.54
14227.77,-10.95
14370.04,-12.49
14513.74,-13.86
14658.88,-15.04
14805.47,-16.00
14953.52,-17.07
15103.06,-19.25
15254.09,-22.06
15406.63,-23.62
15560.70,-21.68
15716.30,-18.78
15873.47,-16.45
16032.20,-14.86
16192.52,-13.93
16354.45,-13.34
16517.99,-13.40
16683.17,-13.45
16850.01,-13.45
17018.51,-13.29
17188.69,-12.87
17360.58,-12.19
17534.18,-11.32
17709.53,-10.30
17886.62,-9.25
18065.49,-8.30
18246.14,-7.54
18428.60,-7.09
18612.89,-7.30
18799.02,-8.17
18987.01,-9.09
19176.88,-9.83
19368.65,-10.29
19562.33,-10.58
19757.96,-10.77
19955.54,-11.17
