frequency,raw
20.00,-5.70
20.20,-5.61
20.40,-5.51
20.61,-5.42
20.81,-5.32
21.02,-5.24
21.23,-5.18
21.44,-5.13
21.66,-5.08
21.87,-5.03
22.09,-4.96
22.31,-4.86
22.54,-4.76
22.76,-4.66
22.99,-4.56
23.22,-4.51
23.45,-4.45
23.69,-4.40
23.92,-4.35
24.16,-4.26
24.40,-4.16
24.65,-4.06
24.89,-3.95
25.14,-3.87
25.39,-3.81
25.65,-3.74
25.91,-3.67
26.16,-3.61
26.43,-3.55
26.69,-3.49
26.96,-3.43
27.23,-3.37
27.50,-3.30
27.77,-3.24
28.05,-3.18
28.33,-3.11
28.62,-3.05
28.90,-2.98
29.19,-2.88
29.48,-2.75
29.78,-2.62
30.08,-2.52
30.38,-2.46
30.68,-2.41
30.99,-2.35
31.30,-2.26
31.61,-2.17
31.93,-2.07
32.24,-2.00
32.57,-1.93
32.89,-1.86
33.22,-1.79
33.55,-1.71
33.89,-1.63
34.23,-1.60
34.57,-1.60
34.92,-1.60
35.27,-1.54
35.62,-1.46
35.97,-1.38
36.33,-1.29
36.70,-1.21
37.06,-1.13
37.43,-1.04
37.81,-0.95
38.19,-0.91
38.57,-0.91
38.95,-0.91
39.34,-0.83
39.74,-0.74
40.14,-0.65
40.54,-0.56
40.94,-0.47
41.35,-0.46
41.76,-0.46
42.18,-0.42
42.60,-0.32
43.03,-0.23
43.46,-0.23
43.90,-0.23
44.33,-0.15
44.78,-0.05
45.23,0.00
45.68,0.00
46.13,0.03
46.60,0.14
47.06,0.23
47.53,0.23
48.01,0.23
48.49,0.29
48.97,0.36
49.46,0.41
49.96,0.46
50.46,0.48
50.96,0.50
51.47,0.59
51.99,0.68
52.51,0.68
53.03,0.69
53.56,0.81
54.10,0.91
54.64,0.91
55.18,0.91
55.74,0.91
56.29,0.98
56.86,1.11
57.42,1.14
58.00,1.14
58.58,1.14
59.16,1.18
59.76,1.31
60.35,1.36
60.96,1.37
61.57,1.37
62.18,1.37
62.80,1.37
63.43,1.47
64.07,1.60
64.71,1.60
65.35,1.60
66.01,1.60
66.67,1.60
67.33,1.63
68.01,1.69
68.69,1.78
69.37,1.82
70.07,1.82
70.77,1.82
71.48,1.82
72.19,1.82
72.91,1.82
73.64,1.82
74.38,1.82
75.12,1.82
75.87,1.82
76.63,1.93
77.40,2.02
78.17,2.05
78.95,2.05
79.74,2.05
80.54,2.05
81.35,2.05
82.16,2.05
82.98,2.05
83.81,2.05
84.65,1.90
85.50,1.82
86.35,1.82
87.22,1.76
88.09,1.53
88.97,1.38
89.86,1.21
90.76,1.13
91.66,0.98
92.58,0.83
93.51,0.73
94.44,0.68
95.39,0.68
96.34,0.72
97.30,0.83
98.28,0.91
99.26,0.97
100.25,1.13
101.25,1.14
102.27,1.17
103.29,1.29
104.32,1.42
105.37,1.60
106.42,1.79
107.48,1.82
108.56,1.82
109.64,1.97
110.74,2.05
111.85,2.05
112.97,2.05
114.10,2.05
115.24,2.08
116.39,2.21
117.55,2.28
118.73,2.28
119.92,2.28
121.12,2.29
122.33,2.43
123.55,2.51
124.79,2.51
126.03,2.51
127.29,2.51
128.57,2.51
129.85,2.51
131.15,2.51
132.46,2.51
133.79,2.51
135.12,2.51
136.48,2.51
137.84,2.51
139.22,2.51
140.61,2.51
142.02,2.51
143.44,2.51
144.87,2.51
146.32,2.51
147.78,2.56
149.26,2.68
150.75,2.74
152.26,2.74
153.78,2.74
155.32,2.74
156.88,2.72
158.44,2.57
160.03,2.51
161.63,2.51
163.24,2.37
164.88,2.28
166.53,2.28
168.19,2.28
169.87,2.28
171.57,2.28
173.29,2.28
175.02,2.28
176.77,2.47
178.54,2.51
180.32,2.51
182.13,2.51
183.95,2.51
185.79,2.51
187.65,2.51
189.52,2.51
191.42,2.51
193.33,2.51
195.27,2.51
197.22,2.51
199.19,2.50
201.18,2.37
203.19,2.28
205.23,2.28
207.28,2.28
209.35,2.28
211.44,2.28
213.56,2.28
215.69,2.28
217.85,2.28
220.03,2.28
222.23,2.28
224.45,2.28
226.70,2.28
228.96,2.28
231.25,2.28
233.57,2.28
235.90,2.28
238.26,2.28
240.64,2.28
243.05,2.28
245.48,2.28
247.93,2.28
250.41,2.28
252.92,2.28
255.45,2.28
258.00,2.28
260.58,2.28
263.19,2.28
265.82,2.28
268.48,2.28
271.16,2.28
273.87,2.20
276.61,2.07
279.38,2.05
282.17,2.05
284.99,2.05
287.84,2.05
290.72,2.05
293.63,2.05
296.57,2.05
299.53,2.05
302.53,2.05
305.55,2.05
308.61,2.05
311.69,2.05
314.81,2.05
317.96,2.05
321.14,2.04
324.35,1.87
327.59,1.82
330.87,1.82
334.18,1.82
337.52,1.82
340.90,1.82
344.30,1.82
347.75,1.82
351.23,1.82
354.74,1.82
358.28,1.82
361.87,1.82
365.49,1.82
369.14,1.82
372.83,1.82
376.56,1.82
380.33,1.73
384.13,1.62
387.97,1.60
391.85,1.60
395.77,1.60
399.73,1.60
403.72,1.60
407.76,1.60
411.84,1.60
415.96,1.60
420.12,1.60
424.32,1.60
428.56,1.60
432.85,1.60
437.18,1.49
441.55,1.40
445.96,1.37
450.42,1.37
454.93,1.37
459.48,1.37
464.07,1.37
468.71,1.37
473.40,1.37
478.13,1.37
482.91,1.37
487.74,1.31
492.62,1.18
497.55,1.14
502.52,1.14
507.55,1.14
512.62,0.97
517.75,0.91
522.93,0.91
528.16,0.91
533.44,0.91
538.77,0.91
544.16,0.75
549.60,0.69
555.10,0.68
560.65,0.68
566.25,0.68
571.92,0.68
577.64,0.68
583.41,0.68
589.25,0.68
595.14,0.68
601.09,0.68
607.10,0.68
613.17,0.68
619.30,0.68
625.50,0.85
631.75,0.91
638.07,0.91
644.45,0.91
650.89,0.91
657.40,0.91
663.98,0.91
670.62,0.92
677.32,1.09
684.10,1.14
690.94,1.14
697.85,1.14
704.83,1.14
711.87,1.14
718.99,1.14
726.18,1.14
733.44,1.07
740.78,0.93
748.19,0.79
755.67,0.55
763.23,0.29
770.86,0.06
778.57,0.05
786.35,0.20
794.22,0.23
802.16,0.23
810.18,0.38
818.28,0.63
826.46,0.68
834.73,0.68
843.08,0.68
851.51,0.68
860.02,0.68
868.62,0.68
877.31,0.67
886.08,0.50
894.94,0.46
903.89,0.46
912.93,0.34
922.06,0.25
931.28,0.23
940.59,0.06
950.00,0.00
959.50,0.00
969.09,0.00
978.78,0.00
988.57,0.00
998.46,0.00
1008.44,0.00
1018.53,0.00
1028.71,0.00
1039.00,0.00
1049.39,-0.14
1059.88,-0.38
1070.48,-0.45
1081.19,-0.46
1092.00,-0.52
1102.92,-0.65
1113.95,-0.80
1125.09,-1.04
1136.34,-1.13
1147.70,-1.32
1159.18,-1.32
1170.77,-1.17
1182.48,-1.14
1194.30,-1.14
1206.25,-0.99
1218.31,-1.10
1230.49,-1.16
1242.80,-1.38
1255.22,-1.57
1267.78,-1.60
1280.45,-1.60
1293.26,-1.76
1306.19,-1.83
1319.25,-2.05
1332.45,-2.30
1345.77,-2.47
1359.23,-2.62
1372.82,-2.72
1386.55,-2.74
1400.41,-2.90
1414.42,-2.96
1428.56,-2.96
1442.85,-3.06
1457.28,-3.29
1471.85,-3.55
1486.57,-3.46
1501.43,-3.42
1516.45,-3.42
1531.61,-3.42
1546.93,-3.58
1562.40,-3.93
1578.02,-4.32
1593.80,-4.54
1609.74,-4.75
1625.84,-4.73
1642.10,-4.59
1658.52,-4.44
1675.10,-4.21
1691.85,-4.11
1708.77,-4.10
1725.86,-4.15
1743.12,-4.29
1760.55,-4.23
1778.15,-4.01
1795.94,-3.74
1813.90,-3.48
1832.03,-3.22
1850.36,-2.95
1868.86,-2.69
1887.55,-2.43
1906.42,-2.30
1925.49,-2.12
1944.74,-1.87
1964.19,-1.61
1983.83,-1.32
2003.67,-0.95
2023.71,-0.72
2043.94,-0.54
2064.38,-0.21
2085.03,0.08
2105.88,0.43
2126.94,0.72
2148.20,0.97
2169.69,1.24
2191.38,1.50
2213.30,1.59
2235.43,1.60
2257.78,1.62
2280.36,1.80
2303.17,2.11
2326.20,2.26
2349.46,2.12
2372.95,2.05
2396.68,2.08
2420.65,2.32
2444.86,2.70
2469.31,3.09
2494.00,3.42
2518.94,3.77
2544.13,4.06
2569.57,4.30
2595.27,4.49
2621.22,4.78
2647.43,5.09
2673.90,5.22
2700.64,5.50
2727.65,5.80
2754.93,6.23
2782.48,6.57
2810.30,6.89
2838.40,7.11
2866.79,7.40
2895.46,7.78
2924.41,8.13
2953.65,8.23
2983.19,8.39
3013.02,8.74
3043.15,9.17
3073.58,9.65
3104.32,10.07
3135.36,10.41
3166.72,10.48
3198.38,10.48
3230.37,10.48
3262.67,10.48
3295.30,10.66
3328.25,10.86
3361.53,10.71
3395.15,10.45
3429.10,10.14
3463.39,9.88
3498.03,9.65
3533.01,9.58
3568.34,9.57
3604.02,9.57
3640.06,9.49
3676.46,9.26
3713.22,9.00
3750.36,8.66
3787.86,8.28
3825.74,7.92
3864.00,7.71
3902.64,7.55
3941.66,7.52
3981.08,7.66
4020.89,7.99
4061.10,8.18
4101.71,8.21
4142.73,8.21
4184.15,8.30
4226.00,8.41
4268.26,8.28
4310.94,8.22
4354.05,8.21
4397.59,8.21
4441.56,8.13
4485.98,8.01
4530.84,7.85
4576.15,7.61
4621.91,7.52
4668.13,7.31
4714.81,7.05
4761.96,6.87
4809.58,6.72
4857.67,6.49
4906.25,6.23
4955.31,5.98
5004.87,5.93
5054.91,5.93
5105.46,5.83
5156.52,5.72
5208.08,5.70
5260.16,5.52
5312.77,5.45
5365.89,5.29
5419.55,5.16
5473.75,5.04
5528.49,4.89
5583.77,4.65
5639.61,4.38
5696.00,4.15
5752.96,4.02
5810.49,3.69
5868.60,3.34
5927.28,3.07
5986.56,2.81
6046.42,2.46
6106.89,2.06
6167.96,1.74
6229.64,1.52
6291.93,1.27
6354.85,1.01
6418.40,0.92
6482.58,0.91
6547.41,0.91
6612.88,0.83
6679.01,0.71
6745.80,0.81
6813.26,0.75
6881.39,0.51
6950.21,0.17
7019.71,-0.12
7089.91,-0.69
7160.81,-1.29
7232.41,-1.83
7304.74,-2.03
7377.79,-2.23
7451.56,-2.28
7526.08,-2.28
7601.34,-2.28
7677.35,-2.16
7754.13,-2.07
7831.67,-2.05
7909.98,-2.07
7989.08,-2.28
8068.98,-2.54
8149.67,-2.80
8231.16,-2.94
8313.47,-2.96
8396.61,-2.96
8480.57,-2.77
8565.38,-2.54
8651.03,-2.12
8737.54,-1.65
8824.92,-1.08
8913.17,-0.44
9002.30,0.32
9092.32,1.14
9183.25,2.07
9275.08,2.90
9367.83,3.28
9461.51,3.03
9556.12,2.29
9651.68,1.06
9748.20,-0.73
9845.68,-2.95
9944.14,-5.50
10043.58,-8.10
10144.02,-10.68
10245.46,-13.30
10347.91,-16.26
10451.39,-19.56
10555.91,-23.08
10661.46,-26.99
10768.08,-30.61
10875.76,-31.81
10984.52,-28.87
11094.36,-24.21
11205.31,-19.97
11317.36,-16.76
11430.53,-14.44
11544.84,-12.51
11660.29,-10.58
11776.89,-8.73
11894.66,-7.10
12013.60,-5.70
12133.74,-4.73
12255.08,-4.05
12377.63,-4.09
12501.41,-4.81
12626.42,-5.90
12752.68,-6.77
12880.21,-6.72
13009.01,-6.05
13139.10,-5.33
13270.49,-4.82
13403.20,-4.42
13537.23,-4.36
13672.60,-4.57
13809.33,-4.83
13947.42,-5.21
14086.90,-5.78
14227.77,-6.58
14370.04,-7.58
14513.74,-8.63
14658.88,-9.57
14805.47,-10.29
14953.52,-10.89
15103.06,-11.35
15254.09,-11.84
15406.63,-12.03
15560.70,-11.82
15716.30,-11.46
15873.47,-10.97
16032.20,-10.15
16192.52,-9.06
16354.45,-7.89
16517.99,-6.74
16683.17,-5.80
16850.01,-4.95
17018.51,-4.11
17188.69,-3.31
17360.58,-2.52
17534.18,-1.83
17709.53,-1.29
17886.62,-0.97
18065.49,-1.00
18246.14,-1.23
18428.60,-1.64
18612.89,-2.14
18799.02,-2.76
18987.01,-3.35
19176.88,-3.68
19368.65,-3.65
19562.33,-2.91
19757.96,-1.71
19955.54,-0.58
