frequency,raw
20.00,-15.95
20.20,-15.81
20.40,-15.67
20.61,-15.53
20.81,-15.40
21.02,-15.26
21.23,-15.11
21.44,-14.96
21.66,-14.81
21.87,-14.66
22.09,-14.50
22.31,-14.34
22.54,-14.18
22.76,-14.02
22.99,-13.86
23.22,-13.76
23.45,-13.66
23.69,-13.56
23.92,-13.46
24.16,-13.33
24.40,-13.17
24.65,-13.02
24.89,-12.87
25.14,-12.73
25.39,-12.60
25.65,-12.48
25.91,-12.36
26.16,-12.20
26.43,-12.04
26.69,-11.87
26.96,-11.71
27.23,-11.62
27.50,-11.54
27.77,-11.47
28.05,-11.39
28.33,-11.25
28.62,-11.12
28.90,-10.99
29.19,-10.86
29.48,-10.73
29.78,-10.60
30.08,-10.48
30.38,-10.35
30.68,-10.23
30.99,-10.11
31.30,-10.01
31.61,-9.92
31.93,-9.82
32.24,-9.74
32.57,-9.67
32.89,-9.59
33.22,-9.47
33.55,-9.32
33.89,-9.17
34.23,-9.08
34.57,-9.03
34.92,-8.97
35.27,-8.88
35.62,-8.77
35.97,-8.67
36.33,-8.65
36.70,-8.64
37.06,-8.61
37.43,-8.52
37.81,-8.44
38.19,-8.36
38.57,-8.29
38.95,-8.22
39.34,-8.13
39.74,-8.04
40.14,-7.95
40.54,-7.86
40.94,-7.76
41.35,-7.67
41.76,-7.57
42.18,-7.48
42.60,-7.38
43.03,-7.28
43.46,-7.19
43.90,-7.09
44.33,-7.07
44.78,-7.07
45.23,-7.02
45.68,-6.91
46.13,-6.87
46.60,-6.98
47.06,-7.06
47.53,-6.95
48.01,-6.84
48.49,-6.84
48.97,-6.84
49.46,-6.84
49.96,-6.84
50.46,-6.82
50.96,-6.79
51.47,-6.70
51.99,-6.61
52.51,-6.49
53.03,-6.38
53.56,-6.38
54.10,-6.36
54.64,-6.23
55.18,-6.15
55.74,-6.15
56.29,-6.09
56.86,-5.96
57.42,-5.93
58.00,-5.93
58.58,-5.93
59.16,-5.89
59.76,-5.76
60.35,-5.70
60.96,-5.70
61.57,-5.70
62.18,-5.70
62.80,-5.70
63.43,-5.70
64.07,-5.70
64.71,-5.70
65.35,-5.70
66.01,-5.70
66.67,-5.70
67.33,-5.73
68.01,-5.80
68.69,-5.89
69.37,-5.93
70.07,-5.93
70.77,-5.93
71.48,-6.04
72.19,-6.15
72.91,-6.15
73.64,-6.15
74.38,-6.21
75.12,-6.33
75.87,-6.37
76.63,-6.38
77.40,-6.38
78.17,-6.38
78.95,-6.38
79.74,-6.38
80.54,-6.38
81.35,-6.38
82.16,-6.40
82.98,-6.49
83.81,-6.59
84.65,-6.61
85.50,-6.61
86.35,-6.61
87.22,-6.61
88.09,-6.61
88.97,-6.61
89.86,-6.61
90.76,-6.61
91.66,-6.61
92.58,-6.61
93.51,-6.61
94.44,-6.61
95.39,-6.61
96.34,-6.61
97.30,-6.61
98.28,-6.61
99.26,-6.61
100.25,-6.62
101.25,-6.69
102.27,-6.84
103.29,-6.84
104.32,-6.84
105.37,-6.84
106.42,-6.84
107.48,-6.84
108.56,-6.84
109.64,-6.98
110.74,-7.07
111.85,-7.07
112.97,-7.07
114.10,-7.11
115.24,-7.29
116.39,-7.29
117.55,-7.29
118.73,-7.29
119.92,-7.30
121.12,-7.52
122.33,-7.52
123.55,-7.62
124.79,-7.74
126.03,-7.75
127.29,-7.82
128.57,-7.93
129.85,-7.98
131.15,-7.98
132.46,-7.98
133.79,-8.12
135.12,-8.21
136.48,-8.21
137.84,-8.21
139.22,-8.33
140.61,-8.42
142.02,-8.43
143.44,-8.43
144.87,-8.43
146.32,-8.43
147.78,-8.48
149.26,-8.60
150.75,-8.66
152.26,-8.66
153.78,-8.66
155.32,-8.71
156.88,-8.89
158.44,-9.06
160.03,-9.18
161.63,-9.31
163.24,-9.48
164.88,-9.57
166.53,-9.57
168.19,-9.57
169.87,-9.57
171.57,-9.57
173.29,-9.57
175.02,-9.57
176.77,-9.57
178.54,-9.75
180.32,-9.80
182.13,-9.80
183.95,-9.80
185.79,-9.80
187.65,-9.80
189.52,-9.98
191.42,-10.03
193.33,-10.03
195.27,-10.13
197.22,-10.23
199.19,-10.27
201.18,-10.39
203.19,-10.48
205.23,-10.48
207.28,-10.48
209.35,-10.48
211.44,-10.48
213.56,-10.33
215.69,-10.26
217.85,-10.05
220.03,-9.79
222.23,-9.48
224.45,-9.11
226.70,-8.71
228.96,-8.32
231.25,-8.06
233.57,-7.95
235.90,-7.72
238.26,-7.46
240.64,-7.31
243.05,-7.13
245.48,-6.90
247.93,-6.84
250.41,-6.84
252.92,-6.79
255.45,-6.64
258.00,-6.47
260.58,-6.24
263.19,-6.15
265.82,-5.95
268.48,-5.68
271.16,-5.51
273.87,-5.39
276.61,-5.13
279.38,-4.87
282.17,-4.63
284.99,-4.51
287.84,-4.30
290.72,-4.04
293.63,-3.78
296.57,-3.52
299.53,-3.26
302.53,-3.19
305.55,-2.99
308.61,-2.91
311.69,-2.67
314.81,-2.41
317.96,-2.15
321.14,-2.05
324.35,-1.87
327.59,-1.79
330.87,-1.65
334.18,-1.60
337.52,-1.47
340.90,-1.39
344.30,-1.37
347.75,-1.37
351.23,-1.37
354.74,-1.27
358.28,-1.16
361.87,-1.14
365.49,-1.14
369.14,-1.12
372.83,-0.97
376.56,-0.91
380.33,-0.82
384.13,-0.71
387.97,-0.53
391.85,-0.47
395.77,-0.46
399.73,-0.46
403.72,-0.37
407.76,-0.26
411.84,-0.23
415.96,-0.23
420.12,-0.23
424.32,-0.23
428.56,-0.23
432.85,-0.23
437.18,-0.12
441.55,-0.03
445.96,-0.16
450.42,-0.23
454.93,-0.23
459.48,-0.23
464.07,-0.23
468.71,-0.23
473.40,-0.23
478.13,-0.23
482.91,-0.23
487.74,-0.23
492.62,-0.23
497.55,-0.23
502.52,-0.36
507.55,-0.45
512.62,-0.46
517.75,-0.46
522.93,-0.46
528.16,-0.46
533.44,-0.58
538.77,-0.67
544.16,-0.68
549.60,-0.68
555.10,-0.71
560.65,-0.87
566.25,-0.91
571.92,-0.91
577.64,-0.91
583.41,-0.91
589.25,-0.91
595.14,-0.91
601.09,-0.91
607.10,-0.91
613.17,-0.91
619.30,-0.91
625.50,-0.91
631.75,-0.91
638.07,-0.95
644.45,-1.10
650.89,-1.14
657.40,-1.14
663.98,-1.14
670.62,-1.14
677.32,-1.14
684.10,-1.14
690.94,-1.14
697.85,-1.14
704.83,-1.14
711.87,-1.14
718.99,-1.11
726.18,-0.96
733.44,-0.91
740.78,-0.91
748.19,-0.91
755.67,-0.91
763.23,-0.91
770.86,-0.91
778.57,-0.91
786.35,-0.91
794.22,-0.80
802.16,-0.70
810.18,-0.68
818.28,-0.68
826.46,-0.68
834.73,-0.68
843.08,-0.68
851.51,-0.68
860.02,-0.54
868.62,-0.47
877.31,-0.46
886.08,-0.46
894.94,-0.46
903.89,-0.46
912.93,-0.34
922.06,-0.25
931.28,-0.23
940.59,-0.23
950.00,-0.23
959.50,-0.23
969.09,-0.13
978.78,-0.02
988.57,0.00
998.46,0.00
1008.44,0.00
1018.53,0.00
1028.71,0.08
1039.00,0.21
1049.39,0.08
1059.88,0.01
1070.48,0.00
1081.19,0.00
1092.00,-0.06
1102.92,-0.20
1113.95,-0.23
1125.09,-0.38
1136.34,-0.45
1147.70,-0.46
1159.18,-0.41
1170.77,-0.26
1182.48,-0.23
1194.30,-0.17
1206.25,0.11
1218.31,0.40
1230.49,0.48
1242.80,0.63
1255.22,0.76
1267.78,0.88
1280.45,1.04
1293.26,1.13
1306.19,1.15
1319.25,1.32
1332.45,1.43
1345.77,1.56
1359.23,1.60
1372.82,1.74
1386.55,1.81
1400.41,1.82
1414.42,1.82
1428.56,1.82
1442.85,1.92
1457.28,2.03
1471.85,2.05
1486.57,2.05
1501.43,2.05
1516.45,2.05
1531.61,2.05
1546.93,2.15
1562.40,2.26
1578.02,2.28
1593.80,2.28
1609.74,2.28
1625.84,2.28
1642.10,2.28
1658.52,2.39
1675.10,2.49
1691.85,2.51
1708.77,2.51
1725.86,2.51
1743.12,2.51
1760.55,2.51
1778.15,2.63
1795.94,2.72
1813.90,2.74
1832.03,2.74
1850.36,2.74
1868.86,2.82
1887.55,2.93
1906.42,2.96
1925.49,3.12
1944.74,3.19
1964.19,3.19
1983.83,3.19
2003.67,3.19
2023.71,3.19
2043.94,3.19
2064.38,3.19
2085.03,2.81
2105.88,2.22
2126.94,1.38
2148.20,0.36
2169.69,-0.84
2191.38,-2.36
2213.30,-3.95
2235.43,-5.68
2257.78,-6.77
2280.36,-6.75
2303.17,-5.76
2326.20,-4.54
2349.46,-3.43
2372.95,-2.37
2396.68,-1.41
2420.65,-0.45
2444.86,0.38
2469.31,1.05
2494.00,1.53
2518.94,1.94
2544.13,2.32
2569.57,2.63
2595.27,2.97
2621.22,3.25
2647.43,3.51
2673.90,3.63
2700.64,3.82
2727.65,4.07
2754.93,4.33
2782.48,4.60
2810.30,4.86
2838.40,4.99
2866.79,5.17
2895.46,5.33
2924.41,5.65
2953.65,5.89
2983.19,6.01
3013.02,6.24
3043.15,6.50
3073.58,6.68
3104.32,7.00
3135.36,7.25
3166.72,7.36
3198.38,7.49
3230.37,7.64
3262.67,7.87
3295.30,8.22
3328.25,8.52
3361.53,8.87
3395.15,9.15
3429.10,9.41
3463.39,9.55
3498.03,9.57
3533.01,9.57
3568.34,9.57
3604.02,9.57
3640.06,9.49
3676.46,9.37
3713.22,9.21
3750.36,8.97
3787.86,8.53
3825.74,8.09
3864.00,7.65
3902.64,7.26
3941.66,6.83
3981.08,6.28
4020.89,5.73
4061.10,5.03
4101.71,4.40
4142.73,3.74
4184.15,3.03
4226.00,2.16
4268.26,1.24
4310.94,0.32
4354.05,-0.37
4397.59,-0.76
4441.56,-0.81
4485.98,-0.66
4530.84,-0.39
4576.15,0.06
4621.91,0.49
4668.13,0.83
4714.81,0.97
4761.96,1.11
4809.58,1.03
4857.67,0.86
4906.25,0.55
4955.31,0.07
5004.87,-0.47
5054.91,-1.14
5105.46,-1.99
5156.52,-3.01
5208.08,-3.98
5260.16,-4.73
5312.77,-4.96
5365.89,-4.83
5419.55,-4.71
5473.75,-4.49
5528.49,-4.35
5583.77,-4.49
5639.61,-4.55
5696.00,-4.74
5752.96,-4.84
5810.49,-5.06
5868.60,-5.21
5927.28,-5.38
5986.56,-5.46
6046.42,-5.76
6106.89,-6.15
6167.96,-6.47
6229.64,-6.69
6291.93,-6.93
6354.85,-6.90
6418.40,-6.59
6482.58,-6.21
6547.41,-6.02
6612.88,-6.38
6679.01,-7.25
6745.80,-8.34
6813.26,-9.51
6881.39,-10.23
6950.21,-10.42
7019.71,-10.02
7089.91,-9.22
7160.81,-8.42
7232.41,-7.77
7304.74,-7.38
7377.79,-7.12
7451.56,-7.03
7526.08,-6.88
7601.34,-6.75
7677.35,-6.52
7754.13,-6.33
7831.67,-6.10
7909.98,-5.76
7989.08,-5.52
8068.98,-5.40
8149.67,-5.27
8231.16,-5.24
8313.47,-5.24
8396.61,-5.24
8480.57,-5.24
8565.38,-5.19
8651.03,-4.97
8737.54,-4.82
8824.92,-4.65
8913.17,-4.49
9002.30,-4.16
9092.32,-3.40
9183.25,-2.24
9275.08,-0.75
9367.83,0.81
9461.51,2.20
9556.12,3.19
9651.68,3.84
9748.20,3.74
9845.68,3.37
9944.14,2.98
10043.58,2.65
10144.02,2.53
10245.46,2.51
10347.91,3.00
10451.39,3.60
10555.91,4.26
10661.46,4.77
10768.08,4.98
10875.76,5.01
10984.52,4.65
11094.36,4.01
11205.31,3.19
11317.36,2.14
11430.53,0.81
11544.84,-1.00
11660.29,-4.79
11776.89,-9.15
11894.66,-10.24
12013.60,-6.65
12133.74,-2.25
12255.08,0.64
12377.63,2.33
12501.41,3.41
12626.42,4.33
12752.68,5.00
12880.21,4.79
13009.01,3.73
13139.10,2.31
13270.49,0.83
13403.20,-0.62
13537.23,-1.82
13672.60,-2.79
13809.33,-3.62
13947.42,-4.42
14086.90,-5.38
14227.77,-6.75
14370.04,-8.47
14513.74,-10.11
14658.88,-11.59
14805.47,-12.58
14953.52,-13.33
15103.06,-13.92
15254.09,-14.11
15406.63,-13.87
15560.70,-13.99
15716.30,-14.71
15873.47,-15.92
16032.20,-17.39
16192.52,-18.80
16354.45,-19.84
16517.99,-19.29
16683.17,-18.00
16850.01,-16.31
17018.51,-14.50
17188.69,-12.87
17360.58,-11.87
17534.18,-12.69
17709.53,-14.60
17886.62,-16.08
18065.49,-15.77
18246.14,-14.15
18428.60,-12.46
18612.89,-11.40
18799.02,-11.79
18987.01,-12.85
19176.88,-13.99
19368.65,-15.27
19562.33,-17.20
19757.96,-19.63
19955.54,-21.50
