frequency,raw,smoothed,error,error_smoothed,equalization,parametric_eq,fixed_band_eq,equalized_raw,equalized_smoothed,target
20.00,-12.40,-12.41,-16.30,-16.32,6.00,6.54,2.86,-6.40,-6.41,3.91
20.20,-12.32,-12.30,-16.25,-16.24,6.00,6.53,2.94,-6.32,-6.30,3.94
20.40,-12.19,-12.17,-16.15,-16.13,6.00,6.52,3.02,-6.19,-6.17,3.97
20.61,-12.00,-12.01,-15.99,-16.00,6.00,6.51,3.11,-6.00,-6.01,3.98
20.81,-11.83,-11.82,-15.84,-15.84,6.00,6.50,3.20,-5.83,-5.82,4.02
21.02,-11.63,-11.63,-15.67,-15.67,6.00,6.48,3.29,-5.63,-5.63,4.04
21.23,-11.44,-11.44,-15.49,-15.49,6.00,6.47,3.38,-5.44,-5.44,4.05
21.44,-11.24,-11.24,-15.30,-15.31,6.00,6.46,3.48,-5.24,-5.24,4.06
21.66,-11.06,-11.06,-15.13,-15.13,6.00,6.45,3.58,-5.06,-5.06,4.07
21.87,-10.87,-10.87,-14.95,-14.95,6.00,6.44,3.68,-4.87,-4.87,4.07
22.09,-10.69,-10.69,-14.77,-14.77,6.00,6.42,3.79,-4.69,-4.69,4.08
22.31,-10.52,-10.52,-14.60,-14.60,6.00,6.41,3.90,-4.52,-4.52,4.08
22.54,-10.36,-10.35,-14.44,-14.43,6.00,6.40,4.01,-4.36,-4.35,4.08
22.76,-10.19,-10.19,-14.27,-14.26,6.00,6.38,4.12,-4.19,-4.19,4.08
22.99,-10.01,-10.01,-14.08,-14.08,6.00,6.37,4.24,-4.01,-4.01,4.07
23.22,-9.84,-9.83,-13.91,-13.90,6.00,6.36,4.36,-3.84,-3.83,4.07
23.45,-9.64,-9.65,-13.70,-13.71,6.00,6.34,4.48,-3.64,-3.65,4.07
23.69,-9.47,-9.46,-13.54,-13.53,6.00,6.33,4.60,-3.47,-3.46,4.07
23.92,-9.29,-9.29,-13.35,-13.36,6.00,6.31,4.73,-3.29,-3.29,4.07
24.16,-9.12,-9.12,-13.19,-13.19,6.00,6.30,4.86,-3.12,-3.12,4.07
24.40,-8.96,-8.95,-13.03,-13.02,6.00,6.28,4.99,-2.96,-2.95,4.07
24.65,-8.79,-8.79,-12.85,-12.85,6.00,6.27,5.12,-2.79,-2.79,4.06
24.89,-8.62,-8.62,-12.69,-12.68,6.00,6.25,5.26,-2.62,-2.62,4.06
25.14,-8.44,-8.44,-12.50,-12.51,6.00,6.24,5.40,-2.44,-2.44,4.06
25.39,-8.27,-8.27,-12.33,-12.33,6.00,6.22,5.53,-2.27,-2.27,4.06
25.65,-8.10,-8.10,-12.16,-12.15,6.00,6.20,5.67,-2.10,-2.10,4.06
25.91,-7.93,-7.93,-11.98,-11.98,6.00,6.18,5.81,-1.93,-1.93,4.05
26.16,-7.75,-7.75,-11.79,-11.80,6.00,6.17,5.95,-1.75,-1.75,4.05
26.43,-7.58,-7.57,-11.63,-11.61,6.00,6.15,6.09,-1.58,-1.57,4.05
26.69,-7.38,-7.38,-11.42,-11.42,6.00,6.13,6.23,-1.38,-1.38,4.04
26.96,-7.19,-7.20,-11.23,-11.24,6.00,6.11,6.37,-1.19,-1.20,4.04
27.23,-7.02,-7.02,-11.06,-11.06,6.00,6.09,6.50,-1.02,-1.02,4.04
27.50,-6.86,-6.85,-10.90,-10.89,6.00,6.07,6.63,-0.86,-0.85,4.04
27.77,-6.69,-6.69,-10.72,-10.72,6.00,6.05,6.75,-0.69,-0.69,4.03
28.05,-6.53,-6.53,-10.55,-10.55,6.00,6.03,6.87,-0.53,-0.53,4.03
28.33,-6.38,-6.37,-10.39,-10.39,6.00,6.01,6.99,-0.38,-0.37,4.02
28.62,-6.22,-6.22,-10.24,-10.23,6.00,5.99,7.10,-0.22,-0.22,4.02
28.90,-6.07,-6.07,-10.08,-10.08,6.00,5.97,7.19,-0.07,-0.07,4.01
29.19,-5.92,-5.92,-9.92,-9.93,6.00,5.95,7.28,0.08,0.08,4.00
29.48,-5.78,-5.77,-9.79,-9.77,6.00,5.92,7.36,0.22,0.23,4.01
29.78,-5.62,-5.63,-9.62,-9.63,6.00,5.90,7.43,0.38,0.37,4.00
30.08,-5.49,-5.49,-9.49,-9.49,6.00,5.88,7.49,0.51,0.51,4.00
30.38,-5.36,-5.36,-9.34,-9.34,6.00,5.85,7.54,0.64,0.64,3.98
30.68,-5.22,-5.22,-9.20,-9.20,6.00,5.83,7.57,0.78,0.78,3.98
30.99,-5.08,-5.07,-9.05,-9.04,6.00,5.80,7.59,0.92,0.93,3.97
31.30,-4.92,-4.92,-8.89,-8.89,6.00,5.78,7.59,1.08,1.08,3.97
31.61,-4.76,-4.77,-8.72,-8.73,6.00,5.75,7.59,1.24,1.23,3.97
31.93,-4.63,-4.62,-8.58,-8.57,6.00,5.73,7.56,1.37,1.38,3.95
32.24,-4.47,-4.48,-8.41,-8.43,6.00,5.70,7.53,1.53,1.52,3.94
32.57,-4.36,-4.36,-8.30,-8.29,6.00,5.67,7.48,1.64,1.64,3.94
32.89,-4.25,-4.25,-8.18,-8.18,6.00,5.64,7.43,1.75,1.75,3.94
33.22,-4.14,-4.15,-8.06,-8.07,6.00,5.62,7.36,1.86,1.85,3.92
33.55,-4.06,-4.04,-7.98,-7.95,6.00,5.59,7.28,1.94,1.96,3.92
33.89,-3.92,-3.92,-7.83,-7.83,6.00,5.56,7.19,2.08,2.08,3.91
34.23,-3.79,-3.80,-7.69,-7.70,6.00,5.53,7.09,2.21,2.20,3.90
34.57,-3.69,-3.68,-7.58,-7.57,6.00,5.50,6.98,2.31,2.32,3.89
34.92,-3.58,-3.58,-7.46,-7.46,6.00,5.46,6.87,2.42,2.42,3.88
35.27,-3.47,-3.47,-7.34,-7.34,6.00,5.43,6.75,2.53,2.53,3.87
35.62,-3.36,-3.36,-7.22,-7.22,6.00,5.40,6.63,2.64,2.64,3.86
35.97,-3.25,-3.25,-7.09,-7.10,6.00,5.36,6.50,2.75,2.75,3.85
36.33,-3.14,-3.14,-6.98,-6.98,6.00,5.33,6.37,2.86,2.86,3.84
36.70,-3.04,-3.04,-6.87,-6.87,6.00,5.30,6.24,2.96,2.96,3.83
37.06,-2.95,-2.94,-6.76,-6.76,6.00,5.26,6.10,3.05,3.06,3.82
37.43,-2.84,-2.85,-6.65,-6.66,6.00,5.22,5.97,3.17,3.15,3.81
37.81,-2.78,-2.76,-6.58,-6.56,6.01,5.19,5.83,3.23,3.25,3.80
38.19,-2.67,-2.67,-6.45,-6.46,6.02,5.15,5.70,3.35,3.35,3.78
38.57,-2.56,-2.58,-6.34,-6.35,6.02,5.11,5.56,3.46,3.44,3.78
38.95,-2.50,-2.48,-6.26,-6.24,6.01,5.07,5.43,3.51,3.53,3.76
39.34,-2.39,-2.39,-6.14,-6.14,5.99,5.03,5.30,3.60,3.59,3.75
39.74,-2.32,-2.31,-6.05,-6.05,5.95,4.99,5.17,3.64,3.64,3.73
40.14,-2.22,-2.22,-5.95,-5.95,5.91,4.95,5.04,3.69,3.69,3.73
40.54,-2.15,-2.14,-5.86,-5.86,5.85,4.91,4.91,3.70,3.71,3.71
40.94,-2.06,-2.06,-5.76,-5.77,5.78,4.86,4.79,3.73,3.72,3.71
41.35,-1.99,-1.99,-5.68,-5.68,5.70,4.82,4.67,3.71,3.71,3.69
41.76,-1.92,-1.91,-5.60,-5.59,5.61,4.77,4.55,3.69,3.70,3.68
42.18,-1.83,-1.83,-5.50,-5.51,5.51,4.73,4.43,3.68,3.68,3.68
42.60,-1.75,-1.75,-5.41,-5.42,5.41,4.68,4.32,3.66,3.66,3.66
43.03,-1.67,-1.66,-5.32,-5.31,5.30,4.63,4.21,3.64,3.64,3.65
43.46,-1.58,-1.57,-5.21,-5.21,5.20,4.58,4.10,3.63,3.63,3.64
43.90,-1.47,-1.48,-5.08,-5.10,5.10,4.53,4.00,3.63,3.62,3.61
44.33,-1.41,-1.39,-5.00,-4.99,4.99,4.48,3.90,3.59,3.60,3.59
44.78,-1.30,-1.31,-4.87,-4.88,4.89,4.43,3.80,3.59,3.58,3.57
45.23,-1.23,-1.23,-4.78,-4.78,4.78,4.38,3.70,3.55,3.55,3.56
45.68,-1.14,-1.14,-4.67,-4.67,4.68,4.32,3.61,3.54,3.54,3.54
46.13,-1.06,-1.05,-4.57,-4.57,4.58,4.27,3.52,3.52,3.52,3.52
46.60,-0.96,-0.97,-4.47,-4.47,4.47,4.21,3.44,3.51,3.51,3.51
47.06,-0.89,-0.88,-4.38,-4.37,4.37,4.16,3.35,3.48,3.49,3.49
47.53,-0.80,-0.80,-4.27,-4.27,4.27,4.10,3.27,3.47,3.47,3.47
48.01,-0.72,-0.72,-4.18,-4.17,4.16,4.04,3.19,3.44,3.44,3.46
48.49,-0.64,-0.63,-4.07,-4.06,4.05,3.98,3.12,3.42,3.42,3.43
48.97,-0.55,-0.55,-3.94,-3.95,3.95,3.92,3.04,3.40,3.40,3.40
49.46,-0.47,-0.47,-3.83,-3.83,3.84,3.86,2.97,3.37,3.37,3.37
49.96,-0.39,-0.39,-3.72,-3.73,3.74,3.80,2.90,3.35,3.35,3.33
50.46,-0.31,-0.31,-3.63,-3.63,3.63,3.73,2.83,3.32,3.32,3.32
50.96,-0.24,-0.23,-3.54,-3.53,3.53,3.67,2.77,3.29,3.29,3.30
51.47,-0.16,-0.16,-3.42,-3.43,3.43,3.60,2.71,3.27,3.27,3.27
51.99,-0.08,-0.08,-3.32,-3.32,3.33,3.53,2.65,3.25,3.25,3.24
52.51,0.00,-0.00,-3.23,-3.23,3.23,3.46,2.59,3.23,3.23,3.23
53.03,0.07,0.07,-3.13,-3.13,3.13,3.39,2.53,3.20,3.20,3.20
53.56,0.13,0.14,-3.05,-3.04,3.03,3.32,2.47,3.17,3.17,3.18
54.10,0.21,0.21,-2.94,-2.94,2.94,3.25,2.41,3.15,3.15,3.15
54.64,0.29,0.29,-2.84,-2.84,2.84,3.18,2.36,3.13,3.13,3.13
55.18,0.36,0.37,-2.74,-2.73,2.74,3.10,2.31,3.10,3.11,3.10
55.74,0.44,0.44,-2.63,-2.64,2.64,3.03,2.25,3.08,3.08,3.07
56.29,0.51,0.51,-2.54,-2.54,2.54,2.95,2.20,3.05,3.05,3.06
56.86,0.57,0.59,-2.46,-2.44,2.44,2.87,2.15,3.01,3.03,3.03
57.42,0.67,0.66,-2.33,-2.34,2.34,2.79,2.10,3.02,3.00,3.00
58.00,0.74,0.74,-2.24,-2.24,2.24,2.71,2.05,2.99,2.98,2.98
58.58,0.81,0.82,-2.15,-2.14,2.14,2.63,2.00,2.96,2.96,2.96
59.16,0.89,0.89,-2.05,-2.05,2.04,2.55,1.94,2.94,2.94,2.94
59.76,0.98,0.97,-1.94,-1.95,1.94,2.46,1.89,2.92,2.91,2.92
60.35,1.04,1.05,-1.84,-1.84,1.83,2.38,1.84,2.88,2.88,2.89
60.96,1.12,1.12,-1.74,-1.73,1.73,2.29,1.79,2.85,2.85,2.86
61.57,1.20,1.20,-1.62,-1.63,1.62,2.21,1.74,2.83,2.82,2.82
62.18,1.27,1.28,-1.52,-1.51,1.52,2.12,1.68,2.79,2.80,2.79
62.80,1.35,1.35,-1.41,-1.41,1.42,2.03,1.63,2.77,2.77,2.76
63.43,1.42,1.42,-1.31,-1.31,1.32,1.94,1.58,2.74,2.74,2.73
64.07,1.48,1.48,-1.22,-1.22,1.22,1.85,1.52,2.70,2.70,2.70
64.71,1.54,1.55,-1.13,-1.13,1.12,1.75,1.47,2.67,2.67,2.68
65.35,1.61,1.61,-1.04,-1.04,1.03,1.66,1.41,2.65,2.64,2.65
66.01,1.67,1.67,-0.95,-0.95,0.94,1.57,1.35,2.62,2.62,2.62
66.67,1.73,1.73,-0.86,-0.86,0.86,1.47,1.29,2.59,2.59,2.59
67.33,1.79,1.79,-0.77,-0.77,0.78,1.38,1.24,2.57,2.56,2.56
68.01,1.83,1.84,-0.70,-0.69,0.70,1.28,1.18,2.53,2.53,2.53
68.69,1.89,1.88,-0.61,-0.61,0.62,1.18,1.12,2.51,2.50,2.50
69.37,1.92,1.93,-0.54,-0.54,0.54,1.09,1.06,2.46,2.47,2.47
70.07,1.97,1.97,-0.46,-0.47,0.46,0.99,0.99,2.44,2.44,2.43
70.77,2.01,2.01,-0.40,-0.39,0.39,0.89,0.93,2.40,2.41,2.41
71.48,2.06,2.06,-0.31,-0.32,0.32,0.79,0.87,2.38,2.37,2.38
72.19,2.09,2.09,-0.25,-0.25,0.25,0.69,0.81,2.34,2.34,2.34
72.91,2.12,2.13,-0.18,-0.18,0.18,0.59,0.74,2.30,2.30,2.31
73.64,2.16,2.17,-0.11,-0.11,0.11,0.49,0.68,2.27,2.27,2.27
74.38,2.21,2.21,-0.03,-0.03,0.03,0.39,0.61,2.25,2.24,2.24
75.12,2.24,2.24,0.04,0.04,-0.04,0.29,0.55,2.21,2.21,2.20
75.87,2.27,2.27,0.10,0.10,-0.10,0.19,0.48,2.17,2.17,2.17
76.63,2.30,2.31,0.16,0.17,-0.17,0.09,0.42,2.13,2.14,2.14
77.40,2.35,2.35,0.24,0.24,-0.24,-0.01,0.35,2.11,2.11,2.11
78.17,2.39,2.38,0.32,0.30,-0.30,-0.10,0.28,2.09,2.08,2.07
78.95,2.39,2.41,0.35,0.37,-0.36,-0.20,0.22,2.03,2.05,2.05
79.74,2.44,2.44,0.43,0.42,-0.43,-0.30,0.15,2.02,2.01,2.01
80.54,2.46,2.46,0.48,0.48,-0.48,-0.40,0.08,1.98,1.98,1.98
81.35,2.49,2.49,0.55,0.54,-0.54,-0.49,0.01,1.95,1.95,1.94
82.16,2.49,2.51,0.58,0.59,-0.59,-0.59,-0.06,1.90,1.92,1.91
82.98,2.53,2.52,0.65,0.65,-0.64,-0.68,-0.13,1.90,1.89,1.88
83.81,2.53,2.53,0.70,0.69,-0.68,-0.78,-0.20,1.85,1.85,1.84
84.65,2.53,2.53,0.73,0.73,-0.73,-0.87,-0.27,1.80,1.81,1.80
85.50,2.53,2.53,0.76,0.77,-0.77,-0.96,-0.34,1.76,1.76,1.77
86.35,2.53,2.54,0.80,0.81,-0.82,-1.05,-0.41,1.71,1.71,1.73
87.22,2.55,2.55,0.86,0.86,-0.88,-1.14,-0.48,1.67,1.68,1.69
88.09,2.58,2.58,0.93,0.92,-0.93,-1.23,-0.55,1.65,1.65,1.65
88.97,2.60,2.60,0.98,0.99,-0.99,-1.31,-0.62,1.61,1.61,1.62
89.86,2.63,2.63,1.05,1.05,-1.05,-1.39,-0.70,1.58,1.58,1.58
90.76,2.64,2.65,1.12,1.12,-1.11,-1.47,-0.77,1.53,1.54,1.53
91.66,2.67,2.66,1.18,1.18,-1.17,-1.55,-0.85,1.51,1.50,1.49
92.58,2.67,2.67,1.23,1.23,-1.22,-1.63,-0.92,1.45,1.45,1.44
93.51,2.67,2.68,1.27,1.27,-1.27,-1.70,-1.00,1.40,1.40,1.41
94.44,2.67,2.67,1.31,1.31,-1.32,-1.78,-1.07,1.35,1.35,1.36
95.39,2.67,2.67,1.35,1.36,-1.36,-1.85,-1.15,1.31,1.31,1.32
96.34,2.67,2.67,1.41,1.41,-1.40,-1.92,-1.23,1.27,1.27,1.26
97.30,2.67,2.66,1.45,1.45,-1.44,-1.98,-1.30,1.23,1.23,1.22
98.28,2.65,2.65,1.48,1.48,-1.48,-2.04,-1.38,1.17,1.17,1.17
99.26,2.63,2.64,1.51,1.51,-1.52,-2.11,-1.46,1.11,1.12,1.13
100.25,2.63,2.63,1.55,1.55,-1.56,-2.16,-1.54,1.07,1.07,1.08
101.25,2.63,2.63,1.60,1.60,-1.60,-2.22,-1.61,1.03,1.03,1.04
102.27,2.63,2.63,1.64,1.65,-1.64,-2.27,-1.69,0.99,0.99,0.99
103.29,2.63,2.63,1.70,1.69,-1.69,-2.33,-1.77,0.94,0.94,0.93
104.32,2.63,2.63,1.74,1.74,-1.73,-2.37,-1.84,0.90,0.90,0.90
105.37,2.63,2.63,1.78,1.78,-1.78,-2.42,-1.92,0.85,0.85,0.85
106.42,2.63,2.63,1.83,1.83,-1.83,-2.47,-1.99,0.80,0.80,0.80
107.48,2.63,2.63,1.87,1.88,-1.88,-2.51,-2.07,0.75,0.75,0.76
108.56,2.63,2.63,1.93,1.93,-1.93,-2.55,-2.14,0.70,0.70,0.70
109.64,2.63,2.63,1.98,1.97,-1.98,-2.58,-2.21,0.65,0.65,0.66
110.74,2.63,2.63,2.02,2.02,-2.03,-2.62,-2.28,0.60,0.60,0.61
111.85,2.63,2.63,2.07,2.07,-2.08,-2.65,-2.34,0.56,0.56,0.56
112.97,2.63,2.64,2.13,2.13,-2.12,-2.68,-2.40,0.51,0.51,0.50
114.10,2.63,2.63,2.18,2.18,-2.17,-2.71,-2.47,0.46,0.46,0.45
115.24,2.63,2.62,2.23,2.22,-2.22,-2.73,-2.52,0.42,0.40,0.40
116.39,2.58,2.60,2.24,2.26,-2.26,-2.76,-2.58,0.32,0.34,0.34
117.55,2.58,2.59,2.29,2.30,-2.30,-2.78,-2.63,0.28,0.29,0.29
118.73,2.58,2.58,2.35,2.34,-2.34,-2.80,-2.68,0.24,0.24,0.24
119.92,2.58,2.57,2.39,2.38,-2.38,-2.82,-2.72,0.20,0.19,0.19
121.12,2.55,2.56,2.41,2.42,-2.42,-2.84,-2.76,0.14,0.14,0.14
122.33,2.53,2.54,2.45,2.45,-2.45,-2.85,-2.79,0.08,0.09,0.09
123.55,2.53,2.53,2.49,2.49,-2.49,-2.86,-2.82,0.04,0.04,0.05
124.79,2.53,2.52,2.54,2.53,-2.53,-2.87,-2.84,0.01,-0.00,-0.01
126.03,2.49,2.50,2.55,2.56,-2.56,-2.88,-2.87,-0.07,-0.06,-0.06
127.29,2.49,2.48,2.60,2.59,-2.59,-2.89,-2.88,-0.10,-0.11,-0.11
128.57,2.44,2.45,2.61,2.62,-2.62,-2.90,-2.89,-0.17,-0.16,-0.17
129.85,2.44,2.43,2.66,2.65,-2.64,-2.91,-2.90,-0.20,-0.21,-0.21
131.15,2.39,2.41,2.65,2.67,-2.66,-2.91,-2.91,-0.27,-0.26,-0.26
132.46,2.39,2.38,2.70,2.69,-2.69,-2.91,-2.90,-0.29,-0.30,-0.31
133.79,2.35,2.35,2.70,2.71,-2.71,-2.92,-2.90,-0.35,-0.35,-0.35
135.12,2.32,2.33,2.72,2.72,-2.73,-2.92,-2.89,-0.40,-0.40,-0.40
136.48,2.30,2.29,2.74,2.73,-2.74,-2.92,-2.89,-0.44,-0.45,-0.44
137.84,2.26,2.27,2.74,2.76,-2.76,-2.92,-2.87,-0.50,-0.49,-0.48
139.22,2.25,2.25,2.79,2.78,-2.78,-2.92,-2.86,-0.53,-0.53,-0.54
140.61,2.23,2.23,2.81,2.80,-2.80,-2.91,-2.84,-0.57,-0.57,-0.58
142.02,2.21,2.22,2.81,2.83,-2.82,-2.91,-2.82,-0.61,-0.60,-0.60
143.44,2.21,2.20,2.85,2.84,-2.83,-2.91,-2.80,-0.62,-0.64,-0.64
144.87,2.16,2.17,2.84,2.85,-2.85,-2.90,-2.78,-0.69,-0.68,-0.68
146.32,2.14,2.14,2.86,2.86,-2.86,-2.90,-2.75,-0.72,-0.72,-0.72
147.78,2.11,2.11,2.86,2.86,-2.87,-2.89,-2.73,-0.76,-0.76,-0.75
149.26,2.08,2.08,2.87,2.87,-2.88,-2.89,-2.71,-0.80,-0.80,-0.79
150.75,2.05,2.06,2.89,2.88,-2.88,-2.88,-2.68,-0.83,-0.83,-0.84
152.26,2.02,2.02,2.89,2.89,-2.89,-2.88,-2.66,-0.86,-0.86,-0.87
153.78,1.99,1.98,2.90,2.89,-2.89,-2.87,-2.64,-0.90,-0.90,-0.91
155.32,1.93,1.94,2.88,2.89,-2.89,-2.87,-2.61,-0.96,-0.95,-0.95
156.88,1.90,1.90,2.89,2.89,-2.89,-2.86,-2.59,-0.99,-0.99,-0.99
158.44,1.85,1.85,2.88,2.88,-2.89,-2.86,-2.57,-1.04,-1.04,-1.03
160.03,1.81,1.81,2.88,2.88,-2.89,-2.85,-2.55,-1.08,-1.07,-1.07
161.63,1.77,1.77,2.88,2.89,-2.89,-2.85,-2.53,-1.12,-1.11,-1.11
163.24,1.74,1.74,2.90,2.89,-2.89,-2.84,-2.52,-1.15,-1.15,-1.15
164.88,1.70,1.71,2.89,2.89,-2.89,-2.84,-2.50,-1.19,-1.18,-1.18
166.53,1.67,1.67,2.89,2.90,-2.89,-2.83,-2.49,-1.22,-1.22,-1.22
168.19,1.64,1.64,2.90,2.90,-2.90,-2.83,-2.48,-1.26,-1.26,-1.26
169.87,1.60,1.60,2.90,2.90,-2.90,-2.82,-2.47,-1.30,-1.30,-1.30
171.57,1.56,1.57,2.90,2.90,-2.91,-2.82,-2.46,-1.35,-1.34,-1.33
173.29,1.54,1.54,2.91,2.91,-2.92,-2.82,-2.46,-1.37,-1.38,-1.37
175.02,1.51,1.51,2.92,2.92,-2.92,-2.82,-2.45,-1.41,-1.41,-1.41
176.77,1.48,1.48,2.93,2.93,-2.93,-2.82,-2.45,-1.44,-1.44,-1.45
178.54,1.45,1.45,2.95,2.94,-2.93,-2.82,-2.45,-1.48,-1.48,-1.50
180.32,1.40,1.41,2.93,2.94,-2.93,-2.81,-2.45,-1.53,-1.52,-1.53
182.13,1.37,1.37,2.93,2.93,-2.94,-2.82,-2.46,-1.56,-1.57,-1.56
183.95,1.33,1.33,2.94,2.93,-2.93,-2.82,-2.46,-1.60,-1.60,-1.60
185.79,1.28,1.29,2.92,2.93,-2.93,-2.82,-2.47,-1.64,-1.63,-1.63
187.65,1.25,1.25,2.93,2.92,-2.92,-2.82,-2.48,-1.66,-1.67,-1.68
189.52,1.21,1.21,2.92,2.91,-2.91,-2.82,-2.50,-1.69,-1.70,-1.71
191.42,1.16,1.16,2.90,2.90,-2.90,-2.83,-2.51,-1.74,-1.73,-1.73
193.33,1.11,1.12,2.88,2.88,-2.89,-2.83,-2.52,-1.78,-1.77,-1.76
195.27,1.08,1.08,2.87,2.87,-2.88,-2.83,-2.54,-1.80,-1.80,-1.79
197.22,1.04,1.05,2.86,2.87,-2.87,-2.84,-2.56,-1.83,-1.83,-1.82
199.19,1.01,1.02,2.87,2.87,-2.86,-2.84,-2.58,-1.85,-1.85,-1.86
201.18,1.00,0.99,2.88,2.86,-2.86,-2.84,-2.60,-1.86,-1.87,-1.87
203.19,0.95,0.96,2.84,2.85,-2.85,-2.84,-2.62,-1.90,-1.89,-1.89
205.23,0.94,0.94,2.86,2.85,-2.85,-2.84,-2.64,-1.91,-1.91,-1.91
207.28,0.90,0.91,2.82,2.84,-2.84,-2.84,-2.66,-1.94,-1.93,-1.92
209.35,0.90,0.89,2.85,2.84,-2.84,-2.83,-2.69,-1.94,-1.94,-1.94
211.44,0.86,0.87,2.83,2.83,-2.83,-2.83,-2.71,-1.97,-1.96,-1.97
213.56,0.86,0.85,2.83,2.82,-2.82,-2.82,-2.73,-1.96,-1.97,-1.97
215.69,0.82,0.83,2.80,2.81,-2.81,-2.81,-2.75,-1.99,-1.98,-1.98
217.85,0.81,0.82,2.80,2.80,-2.80,-2.79,-2.77,-1.99,-1.99,-1.99
220.03,0.80,0.79,2.80,2.79,-2.79,-2.77,-2.79,-1.98,-2.00,-2.00
222.23,0.76,0.77,2.77,2.78,-2.77,-2.75,-2.81,-2.00,-2.00,-2.01
224.45,0.73,0.74,2.74,2.75,-2.74,-2.72,-2.83,-2.01,-2.01,-2.00
226.70,0.72,0.71,2.73,2.72,-2.72,-2.69,-2.84,-2.00,-2.01,-2.01
228.96,0.67,0.69,2.68,2.69,-2.69,-2.66,-2.85,-2.02,-2.00,-2.01
231.25,0.66,0.65,2.66,2.65,-2.66,-2.62,-2.86,-1.99,-2.00,-2.00
233.57,0.62,0.62,2.62,2.62,-2.62,-2.58,-2.87,-2.00,-2.00,-2.00
235.90,0.58,0.59,2.58,2.58,-2.58,-2.54,-2.87,-2.00,-1.99,-2.00
238.26,0.55,0.55,2.55,2.55,-2.54,-2.49,-2.87,-1.99,-1.99,-2.00
240.64,0.52,0.52,2.51,2.50,-2.50,-2.44,-2.86,-1.98,-1.98,-1.98
243.05,0.48,0.48,2.46,2.45,-2.46,-2.39,-2.86,-1.97,-1.98,-1.97
245.48,0.43,0.44,2.39,2.41,-2.41,-2.33,-2.84,-1.98,-1.97,-1.96
247.93,0.40,0.40,2.35,2.36,-2.36,-2.27,-2.82,-1.95,-1.96,-1.95
250.41,0.37,0.36,2.32,2.30,-2.30,-2.22,-2.80,-1.93,-1.94,-1.95
252.92,0.31,0.32,2.24,2.25,-2.24,-2.16,-2.78,-1.93,-1.92,-1.93
255.45,0.27,0.28,2.17,2.18,-2.18,-2.09,-2.74,-1.90,-1.90,-1.90
258.00,0.23,0.23,2.12,2.11,-2.11,-2.03,-2.71,-1.88,-1.88,-1.89
260.58,0.17,0.17,2.05,2.04,-2.04,-1.97,-2.67,-1.87,-1.87,-1.88
263.19,0.11,0.11,1.97,1.97,-1.97,-1.91,-2.63,-1.85,-1.86,-1.85
265.82,0.04,0.05,1.88,1.88,-1.90,-1.85,-2.58,-1.85,-1.85,-1.84
268.48,-0.01,-0.00,1.81,1.81,-1.83,-1.79,-2.53,-1.83,-1.83,-1.82
271.16,-0.04,-0.04,1.75,1.75,-1.76,-1.73,-2.47,-1.80,-1.80,-1.79
273.87,-0.08,-0.08,1.70,1.69,-1.69,-1.67,-2.41,-1.77,-1.77,-1.78
276.61,-0.13,-0.12,1.62,1.63,-1.63,-1.61,-2.35,-1.76,-1.75,-1.75
279.38,-0.16,-0.17,1.58,1.57,-1.57,-1.55,-2.29,-1.73,-1.73,-1.74
282.17,-0.22,-0.21,1.51,1.51,-1.51,-1.49,-2.22,-1.72,-1.71,-1.72
284.99,-0.25,-0.25,1.45,1.45,-1.44,-1.43,-2.15,-1.69,-1.70,-1.70
287.84,-0.30,-0.30,1.38,1.38,-1.38,-1.37,-2.08,-1.68,-1.68,-1.68
290.72,-0.36,-0.34,1.30,1.31,-1.31,-1.32,-2.01,-1.67,-1.66,-1.66
293.63,-0.39,-0.40,1.25,1.24,-1.24,-1.26,-1.93,-1.63,-1.64,-1.64
296.57,-0.45,-0.45,1.17,1.17,-1.17,-1.21,-1.85,-1.62,-1.62,-1.62
299.53,-0.52,-0.50,1.08,1.10,-1.10,-1.15,-1.78,-1.61,-1.60,-1.60
302.53,-0.55,-0.55,1.04,1.02,-1.02,-1.10,-1.70,-1.57,-1.58,-1.58
305.55,-0.60,-0.60,0.95,0.95,-0.95,-1.05,-1.62,-1.55,-1.55,-1.55
308.61,-0.66,-0.65,0.87,0.88,-0.87,-1.00,-1.54,-1.53,-1.52,-1.53
311.69,-0.71,-0.70,0.80,0.80,-0.80,-0.95,-1.46,-1.50,-1.50,-1.50
314.81,-0.75,-0.75,0.72,0.72,-0.72,-0.90,-1.38,-1.47,-1.47,-1.47
317.96,-0.80,-0.80,0.65,0.65,-0.65,-0.85,-1.29,-1.45,-1.45,-1.45
321.14,-0.85,-0.85,0.59,0.58,-0.58,-0.80,-1.21,-1.43,-1.44,-1.43
324.35,-0.91,-0.90,0.51,0.51,-0.52,-0.75,-1.13,-1.42,-1.42,-1.42
327.59,-0.96,-0.95,0.43,0.45,-0.46,-0.70,-1.05,-1.41,-1.40,-1.39
330.87,-0.97,-0.98,0.41,0.40,-0.40,-0.65,-0.97,-1.37,-1.38,-1.37
334.18,-1.01,-1.01,0.35,0.35,-0.35,-0.60,-0.89,-1.36,-1.35,-1.36
337.52,-1.03,-1.03,0.31,0.31,-0.30,-0.55,-0.81,-1.33,-1.33,-1.34
340.90,-1.06,-1.05,0.25,0.26,-0.26,-0.51,-0.73,-1.32,-1.31,-1.31
344.30,-1.06,-1.07,0.24,0.22,-0.22,-0.46,-0.65,-1.28,-1.30,-1.29
347.75,-1.10,-1.09,0.18,0.19,-0.19,-0.41,-0.57,-1.29,-1.28,-1.28
351.23,-1.10,-1.10,0.16,0.16,-0.17,-0.37,-0.49,-1.27,-1.26,-1.26
354.74,-1.10,-1.10,0.14,0.14,-0.15,-0.32,-0.41,-1.24,-1.25,-1.24
358.28,-1.10,-1.10,0.12,0.12,-0.13,-0.27,-0.33,-1.22,-1.22,-1.22
361.87,-1.10,-1.10,0.11,0.11,-0.10,-0.22,-0.25,-1.20,-1.20,-1.20
365.49,-1.10,-1.09,0.09,0.09,-0.08,-0.18,-0.17,-1.18,-1.18,-1.19
369.14,-1.10,-1.10,0.08,0.08,-0.06,-0.13,-0.09,-1.16,-1.16,-1.18
372.83,-1.10,-1.11,0.06,0.05,-0.04,-0.08,-0.02,-1.14,-1.15,-1.16
376.56,-1.13,-1.12,0.02,0.02,-0.02,-0.03,0.06,-1.15,-1.15,-1.15
380.33,-1.15,-1.14,-0.02,-0.01,-0.00,0.02,0.14,-1.15,-1.14,-1.12
384.13,-1.15,-1.15,-0.03,-0.03,0.02,0.06,0.21,-1.13,-1.13,-1.12
387.97,-1.15,-1.15,-0.04,-0.04,0.04,0.11,0.29,-1.11,-1.11,-1.11
391.85,-1.15,-1.15,-0.05,-0.05,0.05,0.16,0.36,-1.09,-1.09,-1.10
395.77,-1.15,-1.16,-0.07,-0.07,0.07,0.21,0.44,-1.07,-1.08,-1.08
399.73,-1.17,-1.17,-0.10,-0.10,0.09,0.26,0.51,-1.07,-1.08,-1.07
403.72,-1.20,-1.18,-0.14,-0.12,0.12,0.31,0.59,-1.08,-1.06,-1.06
407.76,-1.20,-1.20,-0.14,-0.15,0.15,0.36,0.66,-1.04,-1.04,-1.05
411.84,-1.21,-1.22,-0.17,-0.18,0.20,0.41,0.73,-1.01,-1.02,-1.04
415.96,-1.27,-1.26,-0.24,-0.24,0.25,0.46,0.80,-1.01,-1.01,-1.03
420.12,-1.33,-1.33,-0.31,-0.31,0.32,0.51,0.87,-1.01,-1.01,-1.02
424.32,-1.40,-1.40,-0.39,-0.39,0.39,0.56,0.94,-1.01,-1.01,-1.01
428.56,-1.48,-1.47,-0.48,-0.47,0.47,0.62,1.00,-1.01,-1.00,-1.00
432.85,-1.55,-1.55,-0.56,-0.56,0.56,0.67,1.07,-0.99,-0.99,-0.99
437.18,-1.63,-1.63,-0.65,-0.65,0.65,0.72,1.13,-0.98,-0.98,-0.98
441.55,-1.71,-1.71,-0.74,-0.74,0.74,0.77,1.19,-0.97,-0.97,-0.96
445.96,-1.79,-1.79,-0.83,-0.83,0.83,0.82,1.25,-0.96,-0.96,-0.95
450.42,-1.86,-1.85,-0.91,-0.91,0.91,0.87,1.30,-0.95,-0.95,-0.94
454.93,-1.92,-1.92,-0.99,-0.99,0.98,0.92,1.35,-0.93,-0.93,-0.93
459.48,-1.97,-1.97,-1.05,-1.06,1.06,0.97,1.40,-0.91,-0.91,-0.92
464.07,-2.03,-2.02,-1.13,-1.12,1.12,1.02,1.45,-0.90,-0.90,-0.90
468.71,-2.06,-2.06,-1.18,-1.18,1.18,1.07,1.49,-0.87,-0.88,-0.88
473.40,-2.11,-2.10,-1.24,-1.24,1.24,1.12,1.53,-0.87,-0.87,-0.87
478.13,-2.13,-2.13,-1.28,-1.28,1.29,1.16,1.56,-0.84,-0.85,-0.85
482.91,-2.18,-2.17,-1.34,-1.33,1.33,1.21,1.59,-0.85,-0.84,-0.84
