frequency,raw,error,smoothed,error_smoothed,equalization,parametric_eq,equalized_raw,equalized_smoothed,target
20,-12.81,-11.83,-12.71,-11.73,6.00,1.99,-6.81,-6.71,-0.98
21,-11.87,-10.89,-11.89,-10.91,6.00,2.31,-5.87,-5.89,-0.98
22,-11.09,-10.11,-11.10,-10.12,6.00,2.65,-5.09,-5.10,-0.98
23,-10.26,-9.28,-10.35,-9.37,6.00,3.02,-4.26,-4.35,-0.98
24,-9.62,-8.64,-9.63,-8.65,6.00,3.42,-3.62,-3.63,-0.98
25,-8.91,-7.93,-8.95,-7.96,6.00,3.82,-2.91,-2.95,-0.98
26,-8.23,-7.25,-8.30,-7.31,6.00,4.21,-2.23,-2.30,-0.98
27,-7.64,-6.66,-7.69,-6.70,5.89,4.58,-1.75,-1.80,-0.98
28,-7.07,-6.09,-7.11,-6.12,5.66,4.89,-1.41,-1.45,-0.98
29,-6.53,-5.55,-6.57,-5.58,5.33,5.12,-1.20,-1.23,-0.98
30,-6.09,-5.11,-6.05,-5.07,4.95,5.25,-1.14,-1.10,-0.98
31,-5.59,-4.61,-5.57,-4.59,4.55,5.26,-1.04,-1.02,-0.98
32,-5.07,-4.09,-5.12,-4.13,4.13,5.16,-0.94,-0.98,-0.98
33,-4.72,-3.74,-4.69,-3.70,3.70,4.95,-1.02,-0.98,-0.98
34,-4.23,-3.25,-4.28,-3.29,3.29,4.67,-0.94,-0.98,-0.98
35,-3.90,-2.92,-3.89,-2.90,2.90,4.32,-1.00,-0.98,-0.98
36,-3.58,-2.60,-3.52,-2.53,2.53,3.94,-1.05,-0.98,-0.98
37,-3.24,-2.26,-3.15,-2.17,2.17,3.55,-1.07,-0.98,-0.98
38,-2.81,-1.83,-2.81,-1.82,1.82,3.14,-0.99,-0.98,-0.98
39,-2.51,-1.53,-2.47,-1.49,1.49,2.74,-1.02,-0.98,-0.98
40,-2.18,-1.20,-2.14,-1.16,1.16,2.34,-1.02,-0.98,-0.98
41,-1.79,-0.81,-1.83,-0.84,0.84,1.96,-0.95,-0.98,-0.98
42,-1.51,-0.53,-1.52,-0.53,0.53,1.58,-0.98,-0.98,-0.98
43,-1.25,-0.27,-1.22,-0.24,0.24,1.22,-1.01,-0.98,-0.98
44,-0.99,-0.01,-0.94,0.05,-0.05,0.87,-1.04,-0.98,-0.98
45,-0.65,0.33,-0.66,0.32,-0.32,0.54,-0.97,-0.98,-0.98
46,-0.33,0.65,-0.40,0.59,-0.59,0.21,-0.92,-0.98,-0.98
47,-0.16,0.82,-0.15,0.83,-0.83,-0.11,-0.99,-0.98,-0.98
48,0.00,0.98,0.08,1.07,-1.07,-0.42,-1.07,-0.98,-0.98
49,0.32,1.30,0.30,1.28,-1.28,-0.71,-0.96,-0.98,-0.98
50,0.58,1.56,0.50,1.48,-1.48,-1.00,-0.90,-0.98,-0.98
51,0.68,1.66,0.68,1.67,-1.67,-1.28,-0.99,-0.98,-0.98
52,0.90,1.88,0.85,1.83,-1.83,-1.54,-0.93,-0.98,-0.98
53,0.97,1.95,1.00,1.98,-1.98,-1.80,-1.01,-0.98,-0.98
54,1.16,2.14,1.13,2.12,-2.12,-2.04,-0.96,-0.98,-0.98
55,1.30,2.28,1.25,2.24,-2.24,-2.26,-0.94,-0.98,-0.98
56,1.30,2.28,1.35,2.34,-2.34,-2.47,-1.04,-0.98,-0.98
57,1.45,2.43,1.45,2.43,-2.43,-2.66,-0.98,-0.98,-0.98
58,1.62,2.60,1.53,2.51,-2.51,-2.83,-0.89,-0.98,-0.98
59,1.62,2.60,1.59,2.58,-2.58,-2.98,-0.96,-0.98,-0.98
60,1.62,2.60,1.65,2.64,-2.64,-3.11,-1.02,-0.98,-0.98
61,1.62,2.60,1.71,2.69,-2.69,-3.22,-1.07,-0.98,-0.98
62,1.62,2.60,1.75,2.74,-2.74,-3.31,-1.12,-0.98,-0.98
63,1.77,2.75,1.79,2.78,-2.78,-3.38,-1.01,-0.98,-0.98
64,1.94,2.92,1.83,2.81,-2.81,-3.43,-0.87,-0.98,-0.98
65,1.80,2.78,1.86,2.84,-2.84,-3.47,-1.04,-0.98,-0.98
66,1.95,2.93,1.88,2.86,-2.86,-3.49,-0.91,-0.98,-0.98
67,1.95,2.93,1.90,2.88,-2.88,-3.49,-0.93,-0.98,-0.98
68,1.95,2.93,1.92,2.90,-2.90,-3.49,-0.95,-0.98,-0.98
69,1.95,2.93,1.93,2.92,-2.92,-3.47,-0.97,-0.98,-0.98
70,1.95,2.93,1.94,2.93,-2.93,-3.45,-0.98,-0.98,-0.98
71,1.95,2.93,1.96,2.94,-2.94,-3.42,-0.99,-0.98,-0.98
72,1.95,2.93,1.97,2.95,-2.95,-3.38,-1.00,-0.98,-0.98
73,1.95,2.93,1.98,2.97,-2.97,-3.34,-1.02,-0.98,-0.98
74,1.95,2.93,2.00,2.99,-2.99,-3.30,-1.04,-0.98,-0.98
75,1.95,2.93,2.02,3.01,-3.01,-3.26,-1.06,-0.98,-0.98
76,1.95,2.93,2.05,3.03,-3.03,-3.22,-1.08,-0.98,-0.98
77,2.09,3.07,2.08,3.06,-3.06,-3.18,-0.97,-0.98,-0.98
78,2.11,3.09,2.11,3.09,-3.09,-3.15,-0.98,-0.98,-0.98
79,2.21,3.19,2.14,3.13,-3.13,-3.11,-0.92,-0.98,-0.98
80,2.27,3.25,2.18,3.16,-3.16,-3.08,-0.89,-0.98,-0.98
81,2.27,3.25,2.21,3.20,-3.20,-3.05,-0.93,-0.98,-0.98
82,2.27,3.25,2.25,3.24,-3.24,-3.02,-0.97,-0.98,-0.98
83,2.27,3.25,2.29,3.28,-3.28,-3.00,-1.01,-0.98,-0.98
84,2.27,3.25,2.33,3.31,-3.31,-2.98,-1.04,-0.98,-0.98
85,2.27,3.25,2.37,3.35,-3.35,-2.96,-1.08,-0.98,-0.98
86,2.36,3.34,2.41,3.39,-3.39,-2.95,-1.03,-0.98,-0.98
87,2.43,3.41,2.45,3.43,-3.43,-2.94,-1.00,-0.98,-0.98
88,2.46,3.44,2.48,3.47,-3.47,-2.93,-1.01,-0.98,-0.98
89,2.59,3.57,2.51,3.50,-3.50,-2.93,-0.91,-0.98,-0.98
90,2.59,3.57,2.54,3.53,-3.53,-2.93,-0.94,-0.98,-0.98
91,2.59,3.57,2.56,3.55,-3.55,-2.93,-0.96,-0.98,-0.98
92,2.59,3.57,2.58,3.57,-3.57,-2.93,-0.98,-0.98,-0.98
93,2.59,3.57,2.59,3.57,-3.57,-2.94,-0.98,-0.98,-0.98
94,2.59,3.57,2.59,3.58,-3.58,-2.95,-0.99,-0.98,-0.98
95,2.59,3.57,2.58,3.57,-3.57,-2.96,-0.98,-0.98,-0.98
96,2.59,3.57,2.57,3.56,-3.56,-2.98,-0.97,-0.98,-0.98
97,2.59,3.57,2.55,3.53,-3.53,-2.99,-0.94,-0.98,-0.98
98,2.59,3.57,2.52,3.51,-3.51,-3.01,-0.92,-0.98,-0.98
99,2.53,3.51,2.50,3.48,-3.48,-3.03,-0.95,-0.98,-0.98
100,2.43,3.41,2.46,3.45,-3.45,-3.05,-1.02,-0.98,-0.98
101,2.43,3.41,2.43,3.42,-3.42,-3.07,-0.99,-0.98,-0.98
102,2.36,3.34,2.40,3.38,-3.38,-3.10,-1.02,-0.98,-0.98
104,2.27,3.25,2.37,3.35,-3.35,-3.14,-1.08,-0.98,-0.98
105,2.27,3.25,2.34,3.33,-3.33,-3.16,-1.06,-0.98,-0.98
106,2.27,3.25,2.31,3.30,-3.30,-3.19,-1.03,-0.98,-0.98
107,2.27,3.25,2.29,3.27,-3.27,-3.21,-1.00,-0.98,-0.98
108,2.27,3.25,2.26,3.25,-3.25,-3.23,-0.98,-0.98,-0.98
109,2.27,3.25,2.24,3.22,-3.22,-3.25,-0.95,-0.98,-0.98
110,2.27,3.25,2.22,3.20,-3.20,-3.26,-0.93,-0.98,-0.98
111,2.27,3.25,2.19,3.18,-3.18,-3.28,-0.91,-0.98,-0.98
112,2.27,3.25,2.16,3.15,-3.15,-3.29,-0.88,-0.98,-0.98
113,2.18,3.16,2.14,3.12,-3.12,-3.30,-0.94,-0.98,-0.98
114,2.08,3.06,2.11,3.09,-3.09,-3.31,-1.01,-0.98,-0.98
115,1.98,2.96,2.08,3.06,-3.06,-3.31,-1.08,-0.98,-0.98
117,1.95,2.93,2.05,3.03,-3.03,-3.31,-1.08,-0.98,-0.98
118,1.95,2.93,2.02,3.00,-3.00,-3.30,-1.05,-0.98,-0.98
119,1.95,2.93,1.98,2.97,-2.97,-3.29,-1.02,-0.98,-0.98
120,1.95,2.93,1.95,2.94,-2.94,-3.28,-0.99,-0.98,-0.98
121,1.95,2.93,1.92,2.90,-2.90,-3.26,-0.95,-0.98,-0.98
123,1.95,2.93,1.88,2.86,-2.86,-3.22,-0.91,-0.98,-0.98
124,1.94,2.92,1.84,2.83,-2.83,-3.19,-0.89,-0.98,-0.98
125,1.85,2.83,1.80,2.78,-2.78,-3.15,-0.93,-0.98,-0.98
126,1.76,2.74,1.76,2.74,-2.74,-3.12,-0.98,-0.98,-0.98
128,1.62,2.60,1.71,2.69,-2.69,-3.03,-1.07,-0.98,-0.98
129,1.62,2.60,1.66,2.64,-2.64,-2.98,-1.02,-0.98,-0.98
130,1.62,2.60,1.61,2.59,-2.59,-2.93,-0.97,-0.98,-0.98
131,1.62,2.60,1.55,2.54,-2.54,-2.88,-0.92,-0.98,-0.98
133,1.47,2.45,1.50,2.48,-2.48,-2.76,-1.01,-0.98,-0.98
134,1.39,2.37,1.44,2.43,-2.43,-2.70,-1.04,-0.98,-0.98
135,1.30,2.28,1.38,2.37,-2.37,-2.63,-1.07,-0.98,-0.98
137,1.30,2.28,1.32,2.30,-2.30,-2.49,-1.00,-0.98,-0.98
138,1.30,2.28,1.26,2.24,-2.24,-2.42,-0.94,-0.98,-0.98
140,1.22,2.20,1.19,2.17,-2.17,-2.27,-0.95,-0.98,-0.98
141,1.14,2.12,1.12,2.10,-2.10,-2.19,-0.96,-0.98,-0.98
142,1.06,2.04,1.04,2.02,-2.02,-2.11,-0.96,-0.98,-0.98
144,0.97,1.95,0.96,1.94,-1.94,-1.95,-0.97,-0.98,-0.98
145,0.97,1.95,0.87,1.86,-1.86,-1.87,-0.89,-0.98,-0.98
147,0.68,1.66,0.78,1.76,-1.76,-1.70,-1.08,-0.98,-0.98
148,0.65,1.63,0.68,1.67,-1.67,-1.62,-1.02,-0.98,-0.98
150,0.60,1.58,0.58,1.56,-1.56,-1.45,-0.96,-0.98,-0.98
151,0.52,1.50,0.47,1.46,-1.46,-1.36,-0.94,-0.98,-0.98
153,0.38,1.36,0.36,1.34,-1.34,-1.19,-0.96,-0.98,-0.98
154,0.28,1.26,0.24,1.23,-1.23,-1.10,-0.95,-0.98,-0.98
156,0.00,0.98,0.13,1.11,-1.11,-0.93,-1.11,-0.98,-0.98
157,0.00,0.98,0.01,0.99,-0.99,-0.85,-0.99,-0.98,-0.98
159,-0.12,0.86,-0.12,0.87,-0.87,-0.68,-0.99,-0.98,-0.98
160,-0.26,0.72,-0.24,0.74,-0.74,-0.59,-1.00,-0.98,-0.98
162,-0.32,0.66,-0.37,0.61,-0.61,-0.42,-0.93,-0.98,-0.98
164,-0.49,0.49,-0.50,0.48,-0.48,-0.25,-0.97,-0.98,-0.98
165,-0.63,0.35,-0.63,0.35,-0.35,-0.17,-0.98,-0.98,-0.98
167,-0.77,0.21,-0.77,0.22,-0.22,0.00,-0.99,-0.98,-0.98
169,-0.91,0.07,-0.90,0.08,-0.08,0.17,-0.99,-0.98,-0.98
170,-0.98,0.00,-1.04,-0.06,0.06,0.25,-0.92,-0.98,-0.98
172,-1.24,-0.26,-1.18,-0.20,0.20,0.42,-1.04,-0.98,-0.98
174,-1.40,-0.42,-1.33,-0.34,0.34,0.58,-1.06,-0.98,-0.98
175,-1.47,-0.49,-1.47,-0.49,0.49,0.66,-0.98,-0.98,-0.98
177,-1.59,-0.61,-1.62,-0.63,0.63,0.83,-0.96,-0.98,-0.98
179,-1.72,-0.74,-1.77,-0.78,0.78,0.99,-0.94,-0.98,-0.98
181,-1.91,-0.93,-1.92,-0.94,0.94,1.15,-0.97,-0.98,-0.98
183,-2.13,-1.15,-2.07,-1.09,1.09,1.31,-1.04,-0.98,-0.98
184,-2.19,-1.21,-2.23,-1.24,1.24,1.39,-0.95,-0.98,-0.98
186,-2.36,-1.38,-2.39,-1.40,1.40,1.54,-0.96,-0.98,-0.98
188,-2.60,-1.62,-2.55,-1.56,1.56,1.70,-1.04,-0.98,-0.98
190,-2.72,-1.74,-2.71,-1.72,1.72,1.86,-1.00,-0.98,-0.98
192,-2.84,-1.86,-2.87,-1.89,1.89,2.01,-0.95,-0.98,-0.98
194,-2.99,-2.01,-3.04,-2.05,2.05,2.17,-0.94,-0.98,-0.98
196,-3.22,-2.24,-3.20,-2.22,2.22,2.32,-1.00,-0.98,-0.98
198,-3.35,-2.37,-3.36,-2.38,2.38,2.47,-0.97,-0.98,-0.98
200,-3.51,-2.53,-3.53,-2.54,2.54,2.62,-0.97,-0.98,-0.98
202,-3.73,-2.75,-3.69,-2.71,2.71,2.76,-1.02,-0.98,-0.98
204,-3.85,-2.87,-3.85,-2.87,2.87,2.91,-0.98,-0.98,-0.98
206,-4.02,-3.04,-4.01,-3.03,3.03,3.05,-0.99,-0.98,-0.98
208,-4.23,-3.25,-4.17,-3.19,3.19,3.19,-1.04,-0.98,-0.98
210,-4.33,-3.35,-4.32,-3.34,3.34,3.32,-0.99,-0.98,-0.98
212,-4.44,-3.46,-4.47,-3.49,3.49,3.45,-0.95,-0.98,-0.98
214,-4.55,-3.57,-4.62,-3.64,3.64,3.58,-0.91,-0.98,-0.98
216,-4.77,-3.79,-4.76,-3.78,3.78,3.70,-0.99,-0.98,-0.98
218,-4.92,-3.94,-4.90,-3.92,3.92,3.82,-1.00,-0.98,-0.98
221,-5.07,-4.09,-5.03,-4.05,4.05,3.99,-1.02,-0.98,-0.98
223,-5.18,-4.20,-5.16,-4.17,4.17,4.10,-1.01,-0.98,-0.98
225,-5.28,-4.30,-5.28,-4.30,4.30,4.20,-0.98,-0.98,-0.98
227,-5.38,-4.40,-5.40,-4.41,4.41,4.29,-0.97,-0.98,-0.98
229,-5.47,-4.49,-5.51,-4.52,4.52,4.38,-0.95,-0.98,-0.98
232,-5.62,-4.64,-5.61,-4.62,4.62,4.50,-1.00,-0.98,-0.98
234,-5.72,-4.74,-5.70,-4.72,4.72,4.57,-1.00,-0.98,-0.98
236,-5.81,-4.83,-5.79,-4.81,4.81,4.63,-1.00,-0.98,-0.98
239,-5.84,-4.86,-5.87,-4.89,4.89,4.71,-0.95,-0.98,-0.98
241,-5.89,-4.91,-5.95,-4.96,4.96,4.75,-0.93,-0.98,-0.98
244,-6.03,-5.05,-6.01,-5.03,5.03,4.80,-1.00,-0.98,-0.98
246,-6.12,-5.14,-6.07,-5.08,5.08,4.82,-1.04,-0.98,-0.98
248,-6.16,-5.18,-6.11,-5.13,5.13,4.84,-1.03,-0.98,-0.98
251,-6.16,-5.18,-6.15,-5.17,5.17,4.84,-0.99,-0.98,-0.98
253,-6.16,-5.18,-6.18,-5.19,5.19,4.83,-0.97,-0.98,-0.98
256,-6.16,-5.18,-6.19,-5.21,5.21,4.81,-0.95,-0.98,-0.98
259,-6.16,-5.18,-6.20,-5.21,5.21,4.77,-0.95,-0.98,-0.98
261,-6.16,-5.18,-6.19,-5.21,5.21,4.74,-0.95,-0.98,-0.98
264,-6.16,-5.18,-6.18,-5.19,5.19,4.68,-0.97,-0.98,-0.98
266,-6.16,-5.18,-6.15,-5.16,5.16,4.63,-1.00,-0.98,-0.98
269,-6.16,-5.18,-6.10,-5.12,5.12,4.54,-1.04,-0.98,-0.98
272,-6.04,-5.06,-6.04,-5.06,5.06,4.45,-0.98,-0.98,-0.98
274,-5.96,-4.98,-5.97,-4.98,4.98,4.38,-0.98,-0.98,-0.98
277,-5.84,-4.86,-5.88,-4.89,4.89,4.28,-0.95,-0.98,-0.98
280,-5.84,-4.86,-5.77,-4.78,4.78,4.16,-1.06,-0.98,-0.98
283,-5.67,-4.69,-5.64,-4.66,4.66,4.04,-1.01,-0.98,-0.98
286,-5.47,-4.49,-5.50,-4.51,4.51,3.91,-0.96,-0.98,-0.98
288,-5.40,-4.42,-5.34,-4.35,4.35,3.83,-1.05,-0.98,-0.98
291,-5.21,-4.23,-5.16,-4.17,4.17,3.70,-1.04,-0.98,-0.98
294,-4.98,-4.00,-4.96,-3.98,3.98,3.56,-1.00,-0.98,-0.98
297,-4.75,-3.77,-4.75,-3.77,3.77,3.43,-0.98,-0.98,-0.98
300,-4.52,-3.54,-4.53,-3.55,3.55,3.29,-0.97,-0.98,-0.98
303,-4.29,-3.31,-4.30,-3.32,3.32,3.15,-0.97,-0.98,-0.98
306,-4.07,-3.09,-4.06,-3.08,3.08,3.01,-0.99,-0.98,-0.98
309,-3.85,-2.87,-3.82,-2.83,2.83,2.88,-1.02,-0.98,-0.98
312,-3.63,-2.65,-3.57,-2.58,2.58,2.74,-1.05,-0.98,-0.98
316,-3.32,-2.34,-3.32,-2.33,2.33,2.56,-0.99,-0.98,-0.98
319,-3.00,-2.02,-3.07,-2.09,2.09,2.42,-0.91,-0.98,-0.98
322,-2.76,-1.78,-2.83,-1.84,1.84,2.29,-0.92,-0.98,-0.98
325,-2.55,-1.57,-2.59,-1.61,1.61,2.16,-0.94,-0.98,-0.98
328,-2.34,-1.36,-2.36,-1.38,1.38,2.03,-0.96,-0.98,-0.98
332,-2.07,-1.09,-2.14,-1.15,1.15,1.85,-0.92,-0.98,-0.98
335,-1.91,-0.93,-1.92,-0.94,0.94,1.73,-0.97,-0.98,-0.98
338,-1.80,-0.82,-1.72,-0.73,0.73,1.60,-1.07,-0.98,-0.98
342,-1.56,-0.58,-1.52,-0.54,0.54,1.44,-1.02,-0.98,-0.98
345,-1.36,-0.38,-1.34,-0.35,0.35,1.32,-1.01,-0.98,-0.98
349,-1.12,-0.14,-1.16,-0.17,0.17,1.16,-0.95,-0.98,-0.98
352,-1.02,-0.04,-0.99,-0.01,0.01,1.04,-1.01,-0.98,-0.98
356,-0.82,0.16,-0.83,0.15,-0.15,0.88,-0.97,-0.98,-0.98
359,-0.64,0.34,-0.69,0.30,-0.30,0.77,-0.94,-0.98,-0.98
363,-0.51,0.47,-0.55,0.43,-0.43,0.62,-0.94,-0.98,-0.98
366,-0.42,0.56,-0.42,0.56,-0.56,0.51,-0.98,-0.98,-0.98
370,-0.30,0.68,-0.30,0.68,-0.68,0.36,-0.98,-0.98,-0.98
374,-0.18,0.80,-0.19,0.79,-0.79,0.22,-0.97,-0.98,-0.98
377,-0.09,0.89,-0.09,0.89,-0.89,0.11,-0.98,-0.98,-0.98
381,0.00,0.98,0.00,0.98,-0.98,-0.03,-0.98,-0.98,-0.98
385,0.00,0.98,0.09,1.07,-1.07,-0.16,-1.07,-0.98,-0.98
389,0.21,1.19,0.17,1.15,-1.15,-0.30,-0.94,-0.98,-0.98
393,0.32,1.30,0.25,1.23,-1.23,-0.43,-0.91,-0.98,-0.98
397,0.32,1.30,0.32,1.30,-1.30,-0.56,-0.98,-0.98,-0.98
401,0.32,1.30,0.39,1.37,-1.37,-0.68,-1.05,-0.98,-0.98
405,0.40,1.38,0.46,1.44,-1.44,-0.81,-1.04,-0.98,-0.98
409,0.51,1.49,0.52,1.51,-1.51,-0.93,-1.00,-0.98,-0.98
413,0.62,1.60,0.59,1.57,-1.57,-1.04,-0.95,-0.98,-0.98
417,0.65,1.63,0.65,1.63,-1.63,-1.16,-0.98,-0.98,-0.98
421,0.65,1.63,0.70,1.69,-1.69,-1.27,-1.04,-0.98,-0.98
425,0.65,1.63,0.76,1.74,-1.74,-1.38,-1.09,-0.98,-0.98
430,0.85,1.83,0.81,1.79,-1.79,-1.51,-0.94,-0.98,-0.98
434,0.97,1.95,0.85,1.83,-1.83,-1.61,-0.86,-0.98,-0.98
438,0.97,1.95,0.89,1.87,-1.87,-1.71,-0.90,-0.98,-0.98
443,0.97,1.95,0.92,1.90,-1.90,-1.83,-0.93,-0.98,-0.98
447,0.97,1.95,0.95,1.93,-1.93,-1.91,-0.96,-0.98,-0.98
451,0.97,1.95,0.97,1.96,-1.96,-2.00,-0.99,-0.98,-0.98
456,0.97,1.95,0.99,1.98,-1.98,-2.10,-1.01,-0.98,-0.98
460,0.97,1.95,1.02,2.00,-2.00,-2.17,-1.03,-0.98,-0.98
465,0.97,1.95,1.04,2.02,-2.02,-2.26,-1.05,-0.98,-0.98
470,0.97,1.95,1.06,2.05,-2.05,-2.34,-1.08,-0.98,-0.98
474,1.04,2.02,1.09,2.07,-2.07,-2.40,-1.03,-0.98,-0.98
479,1.14,2.12,1.11,2.10,-2.10,-2.46,-0.96,-0.98,-0.98
484,1.14,2.12,1.14,2.13,-2.13,-2.52,-0.99,-0.98,-0.98
489,1.23,2.21,1.17,2.16,-2.16,-2.57,-0.93,-0.98,-0.98
494,1.25,2.23,1.20,2.18,-2.18,-2.61,-0.93,-0.98,-0.98
499,1.14,2.12,1.23,2.21,-2.21,-2.65,-1.07,-0.98,-0.98
504,1.25,2.23,1.25,2.24,-2.24,-2.68,-0.99,-0.98,-0.98
509,1.30,2.28,1.27,2.26,-2.26,-2.70,-0.96,-0.98,-0.98
514,1.30,2.28,1.29,2.27,-2.27,-2.71,-0.97,-0.98,-0.98
519,1.30,2.28,1.30,2.28,-2.28,-2.72,-0.98,-0.98,-0.98
524,1.30,2.28,1.30,2.28,-2.28,-2.73,-0.98,-0.98,-0.98
529,1.30,2.28,1.29,2.28,-2.28,-2.72,-0.98,-0.98,-0.98
535,1.30,2.28,1.28,2.26,-2.26,-2.71,-0.96,-0.98,-0.98
540,1.30,2.28,1.26,2.24,-2.24,-2.70,-0.94,-0.98,-0.98
545,1.30,2.28,1.23,2.21,-2.21,-2.68,-0.91,-0.98,-0.98
551,1.30,2.28,1.20,2.18,-2.18,-2.66,-0.88,-0.98,-0.98
556,1.21,2.19,1.16,2.14,-2.14,-2.64,-0.93,-0.98,-0.98
562,1.09,2.07,1.12,2.11,-2.11,-2.60,-1.02,-0.98,-0.98
568,0.97,1.95,1.09,2.07,-2.07,-2.57,-1.10,-0.98,-0.98
573,0.97,1.95,1.06,2.04,-2.04,-2.53,-1.07,-0.98,-0.98
579,0.97,1.95,1.03,2.01,-2.01,-2.49,-1.04,-0.98,-0.98
585,0.97,1.95,1.01,1.99,-1.99,-2.45,-1.02,-0.98,-0.98
591,0.97,1.95,0.99,1.98,-1.98,-2.40,-1.01,-0.98,-0.98
596,0.97,1.95,0.98,1.96,-1.96,-2.37,-0.99,-0.98,-0.98
602,0.97,1.95,0.97,1.96,-1.96,-2.32,-0.99,-0.98,-0.98
608,0.97,1.95,0.97,1.95,-1.95,-2.27,-0.98,-0.98,-0.98
615,0.97,1.95,0.96,1.95,-1.95,-2.22,-0.98,-0.98,-0.98
621,0.97,1.95,0.96,1.95,-1.95,-2.17,-0.98,-0.98,-0.98
627,0.97,1.95,0.96,1.94,-1.94,-2.13,-0.97,-0.98,-0.98
633,0.97,1.95,0.95,1.93,-1.93,-2.08,-0.96,-0.98,-0.98
639,0.97,1.95,0.93,1.92,-1.92,-2.04,-0.95,-0.98,-0.98
646,0.97,1.95,0.91,1.90,-1.90,-1.99,-0.93,-0.98,-0.98
652,0.97,1.95,0.89,1.88,-1.88,-1.95,-0.91,-0.98,-0.98
659,0.91,1.89,0.87,1.85,-1.85,-1.90,-0.94,-0.98,-0.98
665,0.81,1.79,0.84,1.82,-1.82,-1.86,-1.01,-0.98,-0.98
672,0.81,1.79,0.81,1.79,-1.79,-1.81,-0.98,-0.98,-0.98
679,0.74,1.72,0.78,1.76,-1.76,-1.77,-1.02,-0.98,-0.98
686,0.65,1.63,0.75,1.74,-1.74,-1.73,-1.09,-0.98,-0.98
692,0.65,1.63,0.72,1.71,-1.71,-1.69,-1.06,-0.98,-0.98
699,0.65,1.63,0.70,1.68,-1.68,-1.66,-1.03,-0.98,-0.98
706,0.65,1.63,0.67,1.66,-1.66,-1.62,-1.01,-0.98,-0.98
713,0.65,1.63,0.65,1.63,-1.63,-1.58,-0.98,-0.98,-0.98
721,0.65,1.63,0.62,1.61,-1.61,-1.55,-0.96,-0.98,-0.98
728,0.65,1.63,0.60,1.58,-1.58,-1.51,-0.93,-0.98,-0.98
735,0.65,1.63,0.57,1.55,-1.55,-1.48,-0.90,-0.98,-0.98
742,0.65,1.63,0.54,1.52,-1.52,-1.46,-0.87,-0.98,-0.98
750,0.59,1.57,0.51,1.49,-1.49,-1.42,-0.90,-0.98,-0.98
757,0.48,1.46,0.48,1.46,-1.46,-1.40,-0.98,-0.98,-0.98
765,0.37,1.35,0.45,1.44,-1.44,-1.37,-1.07,-0.98,-0.98
773,0.32,1.30,0.42,1.41,-1.41,-1.35,-1.09,-0.98,-0.98
780,0.32,1.30,0.40,1.38,-1.38,-1.32,-1.06,-0.98,-0.98
788,0.32,1.30,0.37,1.36,-1.36,-1.30,-1.04,-0.98,-0.98
796,0.32,1.30,0.35,1.34,-1.34,-1.28,-1.02,-0.98,-0.98
804,0.32,1.30,0.33,1.32,-1.32,-1.26,-1.00,-0.98,-0.98
812,0.32,1.30,0.31,1.30,-1.30,-1.24,-0.98,-0.98,-0.98
820,0.32,1.30,0.30,1.28,-1.28,-1.22,-0.96,-0.98,-0.98
828,0.32,1.30,0.28,1.26,-1.26,-1.21,-0.94,-0.98,-0.98
837,0.32,1.30,0.25,1.24,-1.24,-1.19,-0.92,-0.98,-0.98
845,0.32,1.30,0.23,1.21,-1.21,-1.18,-0.89,-0.98,-0.98
853,0.27,1.25,0.20,1.19,-1.19,-1.16,-0.92,-0.98,-0.98
862,0.16,1.14,0.17,1.16,-1.16,-1.15,-1.00,-0.98,-0.98
871,0.16,1.14,0.14,1.13,-1.13,-1.14,-0.97,-0.98,-0.98
879,0.09,1.07,0.11,1.10,-1.10,-1.13,-1.01,-0.98,-0.98
888,0.00,0.98,0.09,1.07,-1.07,-1.12,-1.07,-0.98,-0.98
897,0.00,0.98,0.06,1.04,-1.04,-1.11,-1.04,-0.98,-0.98
906,0.00,0.98,0.04,1.02,-1.02,-1.10,-1.02,-0.98,-0.98
915,0.00,0.98,0.02,1.00,-1.00,-1.09,-1.00,-0.98,-0.98
924,0.00,0.98,0.00,0.99,-0.99,-1.09,-0.99,-0.98,-0.98
933,0.00,0.98,-0.01,0.98,-0.98,-1.08,-0.98,-0.98,-0.98
943,0.00,0.98,-0.01,0.97,-0.97,-1.07,-0.97,-0.98,-0.98
952,0.00,0.98,-0.01,0.97,-0.97,-1.07,-0.97,-0.98,-0.98
962,0.00,0.98,-0.01,0.97,-0.97,-1.06,-0.97,-0.98,-0.98
971,0.00,0.98,-0.01,0.97,-0.97,-1.06,-0.97,-0.98,-0.98
981,0.00,0.98,-0.01,0.98,-0.98,-1.06,-0.98,-0.98,-0.98
991,0.00,0.98,-0.01,0.98,-0.98,-1.05,-0.98,-0.98,-0.98
1001,0.00,0.98,-0.00,0.98,-0.98,-1.05,-0.98,-0.98,-0.98
1011,0.00,0.98,-0.00,0.98,-0.98,-1.05,-0.98,-0.98,-0.98
1021,0.00,0.98,-0.00,0.98,-0.98,-1.05,-0.98,-0.98,-0.98
1031,0.00,0.98,-0.00,0.98,-0.98,-1.05,-0.98,-0.98,-0.98
1041,0.00,0.98,-0.00,0.98,-0.98,-1.05,-0.98,-0.98,-0.98
1052,0.00,0.98,-0.00,0.98,-0.98,-1.05,-0.98,-0.98,-0.98
1062,0.00,0.98,-0.01,0.98,-0.98,-1.05,-0.98,-0.98,-0.98
1073,0.00,0.98,-0.01,0.98,-0.98,-1.05,-0.98,-0.98,-0.98
1084,0.00,0.98,-0.01,0.97,-0.97,-1.05,-0.97,-0.98,-0.98
1094,0.00,0.98,-0.01,0.97,-0.97,-1.06,-0.97,-0.98,-0.98
1105,0.00,0.98,-0.01,0.97,-0.97,-1.06,-0.97,-0.98,-0.98
1116,0.00,0.98,-0.01,0.98,-0.98,-1.06,-0.98,-0.98,-0.98
1128,0.00,0.98,-0.00,0.98,-0.98,-1.07,-0.98,-0.98,-0.98
1139,0.00,0.98,0.01,0.99,-0.99,-1.07,-0.99,-0.98,-0.98
1150,0.00,0.98,0.02,1.01,-1.01,-1.08,-1.01,-0.98,-0.98
1162,0.00,0.98,0.04,1.03,-1.03,-1.09,-1.03,-0.98,-0.98
1173,0.00,0.98,0.06,1.05,-1.05,-1.09,-1.05,-0.98,-0.98
1185,0.04,1.02,0.09,1.08,-1.08,-1.10,-1.04,-0.98,-0.98
1197,0.15,1.13,0.12,1.11,-1.11,-1.11,-0.96,-0.98,-0.98
1209,0.16,1.14,0.16,1.14,-1.14,-1.12,-0.98,-0.98,-0.98
1221,0.21,1.19,0.19,1.18,-1.18,-1.13,-0.97,-0.98,-0.98
1233,0.32,1.30,0.23,1.22,-1.22,-1.15,-0.90,-0.98,-0.98
1246,0.32,1.30,0.27,1.25,-1.25,-1.16,-0.93,-0.98,-0.98
1258,0.32,1.30,0.31,1.29,-1.29,-1.17,-0.97,-0.98,-0.98
1271,0.32,1.30,0.35,1.33,-1.33,-1.19,-1.01,-0.98,-0.98
1283,0.32,1.30,0.39,1.37,-1.37,-1.21,-1.05,-0.98,-0.98
1296,0.40,1.38,0.43,1.41,-1.41,-1.22,-1.01,-0.98,-0.98
1309,0.49,1.47,0.47,1.45,-1.45,-1.24,-0.96,-0.98,-0.98
1322,0.49,1.47,0.51,1.49,-1.49,-1.26,-1.00,-0.98,-0.98
1335,0.57,1.55,0.55,1.53,-1.53,-1.28,-0.96,-0.98,-0.98
1349,0.65,1.63,0.59,1.58,-1.58,-1.31,-0.93,-0.98,-0.98
1362,0.65,1.63,0.63,1.62,-1.62,-1.33,-0.97,-0.98,-0.98
1376,0.65,1.63,0.68,1.66,-1.66,-1.36,-1.01,-0.98,-0.98
1390,0.65,1.63,0.72,1.70,-1.70,-1.38,-1.05,-0.98,-0.98
1404,0.65,1.63,0.76,1.74,-1.74,-1.41,-1.09,-0.98,-0.98
1418,0.77,1.75,0.80,1.78,-1.78,-1.44,-1.01,-0.98,-0.98
1432,0.88,1.86,0.83,1.82,-1.82,-1.47,-0.94,-0.98,-0.98
1446,0.97,1.95,0.86,1.85,-1.85,-1.50,-0.88,-0.98,-0.98
1461,0.97,1.95,0.89,1.87,-1.87,-1.53,-0.90,-0.98,-0.98
1475,0.97,1.95,0.91,1.90,-1.90,-1.56,-0.93,-0.98,-0.98
1490,0.97,1.95,0.94,1.92,-1.92,-1.60,-0.95,-0.98,-0.98
1505,0.97,1.95,0.96,1.94,-1.94,-1.63,-0.97,-0.98,-0.98
1520,0.97,1.95,0.98,1.96,-1.96,-1.67,-0.99,-0.98,-0.98
1535,0.97,1.95,1.00,1.98,-1.98,-1.70,-1.01,-0.98,-0.98
1550,0.97,1.95,1.02,2.01,-2.01,-1.74,-1.04,-0.98,-0.98
1566,0.97,1.95,1.05,2.04,-2.04,-1.78,-1.07,-0.98,-0.98
1582,0.97,1.95,1.08,2.06,-2.06,-1.82,-1.09,-0.98,-0.98
1597,0.97,1.95,1.11,2.09,-2.09,-1.86,-1.12,-0.98,-0.98
1613,1.09,2.07,1.14,2.12,-2.12,-1.90,-1.03,-0.98,-0.98
1629,1.20,2.18,1.16,2.15,-2.15,-1.94,-0.95,-0.98,-0.98
1646,1.30,2.28,1.19,2.17,-2.17,-1.98,-0.87,-0.98,-0.98
1662,1.30,2.28,1.20,2.19,-2.19,-2.02,-0.89,-0.98,-0.98
1679,1.30,2.28,1.21,2.20,-2.20,-2.05,-0.90,-0.98,-0.98
