frequency,raw,error,smoothed,error_smoothed,equalization,parametric_eq,fixed_band_eq,equalized_raw,equalized_smoothed,target
20.00,20.00,13.53,20.00,13.53,-13.53,-13.44,-6.30,6.48,6.48,6.48
20.20,19.99,13.53,20.00,13.53,-13.53,-13.46,-6.46,6.46,6.46,6.47
20.40,19.99,13.54,19.99,13.54,-13.54,-13.47,-6.61,6.45,6.45,6.45
20.61,19.98,13.54,19.99,13.55,-13.55,-13.48,-6.77,6.44,6.44,6.44
20.81,19.98,13.56,19.98,13.55,-13.55,-13.48,-6.94,6.43,6.43,6.42
21.02,19.97,13.56,19.97,13.56,-13.56,-13.49,-7.11,6.42,6.42,6.41
21.23,19.96,13.56,19.97,13.56,-13.56,-13.50,-7.28,6.41,6.41,6.40
21.44,19.96,13.55,19.96,13.56,-13.56,-13.50,-7.46,6.40,6.40,6.41
21.66,19.95,13.56,19.95,13.56,-13.56,-13.51,-7.64,6.39,6.39,6.39
21.87,19.94,13.55,19.95,13.56,-13.56,-13.51,-7.83,6.38,6.38,6.39
22.09,19.94,13.57,19.94,13.56,-13.56,-13.51,-8.02,6.38,6.38,6.37
22.31,19.93,13.56,19.93,13.56,-13.56,-13.51,-8.22,6.37,6.37,6.37
22.54,19.92,13.56,19.92,13.56,-13.56,-13.51,-8.42,6.36,6.36,6.36
22.76,19.91,13.55,19.92,13.56,-13.56,-13.51,-8.63,6.36,6.36,6.36
22.99,19.90,13.55,19.91,13.56,-13.56,-13.51,-8.84,6.35,6.35,6.35
23.22,19.89,13.56,19.90,13.55,-13.55,-13.51,-9.06,6.34,6.35,6.34
23.45,19.89,13.55,19.89,13.55,-13.55,-13.51,-9.28,6.35,6.34,6.35
23.69,19.88,13.55,19.88,13.54,-13.54,-13.50,-9.51,6.34,6.34,6.34
23.92,19.87,13.55,19.87,13.54,-13.54,-13.50,-9.75,6.34,6.34,6.33
24.16,19.86,13.53,19.86,13.53,-13.53,-13.49,-9.99,6.33,6.33,6.34
24.40,19.85,13.52,19.85,13.52,-13.52,-13.49,-10.24,6.33,6.33,6.34
24.65,19.84,13.51,19.84,13.51,-13.51,-13.48,-10.49,6.33,6.33,6.34
24.89,19.83,13.50,19.83,13.51,-13.51,-13.47,-10.75,6.33,6.33,6.33
25.14,19.82,13.50,19.83,13.50,-13.50,-13.46,-11.01,6.33,6.33,6.32
25.39,19.81,13.49,19.82,13.49,-13.49,-13.46,-11.28,6.32,6.33,6.32
25.65,19.80,13.48,19.81,13.48,-13.48,-13.45,-11.55,6.32,6.33,6.32
25.91,19.79,13.47,19.80,13.47,-13.47,-13.44,-11.83,6.32,6.33,6.32
26.16,19.78,13.45,19.79,13.46,-13.46,-13.43,-12.11,6.32,6.33,6.33
26.43,19.77,13.45,19.78,13.45,-13.45,-13.42,-12.40,6.33,6.33,6.33
26.69,19.76,13.44,19.76,13.44,-13.44,-13.41,-12.68,6.33,6.33,6.33
26.96,19.75,13.43,19.75,13.43,-13.43,-13.39,-12.97,6.33,6.33,6.33
27.23,19.74,13.42,19.74,13.41,-13.41,-13.38,-13.26,6.33,6.33,6.33
27.50,19.73,13.41,19.73,13.40,-13.40,-13.37,-13.55,6.34,6.33,6.33
27.77,19.72,13.39,19.72,13.39,-13.39,-13.36,-13.84,6.34,6.34,6.33
28.05,19.71,13.38,19.71,13.37,-13.37,-13.35,-14.12,6.34,6.34,6.33
28.33,19.69,13.35,19.70,13.36,-13.36,-13.33,-14.40,6.34,6.34,6.34
28.62,19.68,13.34,19.69,13.35,-13.35,-13.32,-14.66,6.34,6.34,6.34
28.90,19.66,13.32,19.67,13.33,-13.33,-13.31,-14.92,6.33,6.34,6.35
29.19,19.65,13.31,19.66,13.32,-13.32,-13.30,-15.16,6.34,6.34,6.35
29.48,19.64,13.30,19.65,13.31,-13.31,-13.28,-15.39,6.34,6.34,6.35
29.78,19.63,13.29,19.63,13.29,-13.29,-13.27,-15.59,6.34,6.34,6.34
30.08,19.62,13.28,19.62,13.28,-13.28,-13.26,-15.77,6.35,6.34,6.34
30.38,19.60,13.27,19.60,13.27,-13.27,-13.24,-15.93,6.34,6.34,6.33
30.68,19.59,13.27,19.59,13.25,-13.25,-13.23,-16.05,6.34,6.33,6.33
30.99,19.57,13.25,19.57,13.24,-13.24,-13.22,-16.15,6.33,6.33,6.33
31.30,19.55,13.23,19.55,13.23,-13.23,-13.20,-16.22,6.33,6.32,6.33
31.61,19.53,13.21,19.54,13.22,-13.22,-13.19,-16.26,6.32,6.32,6.32
31.93,19.51,13.21,19.52,13.21,-13.21,-13.18,-16.26,6.31,6.31,6.30
32.24,19.50,13.19,19.50,13.19,-13.19,-13.16,-16.24,6.31,6.31,6.31
32.57,19.48,13.19,19.48,13.18,-13.18,-13.15,-16.19,6.30,6.30,6.30
32.89,19.46,13.17,19.47,13.17,-13.17,-13.14,-16.11,6.29,6.30,6.30
33.22,19.44,13.15,19.45,13.16,-13.16,-13.13,-16.01,6.29,6.29,6.29
33.55,19.42,13.13,19.43,13.15,-13.15,-13.11,-15.89,6.28,6.29,6.29
33.89,19.41,13.14,19.42,13.14,-13.14,-13.10,-15.76,6.28,6.28,6.28
34.23,19.39,13.13,19.40,13.13,-13.13,-13.09,-15.61,6.27,6.27,6.27
34.57,19.38,13.12,19.39,13.12,-13.12,-13.08,-15.46,6.27,6.27,6.26
34.92,19.36,13.12,19.37,13.11,-13.11,-13.06,-15.29,6.25,6.26,6.25
35.27,19.35,13.09,19.35,13.10,-13.10,-13.05,-15.12,6.25,6.25,6.27
35.62,19.34,13.10,19.34,13.10,-13.10,-13.04,-14.95,6.25,6.24,6.24
35.97,19.32,13.08,19.32,13.09,-13.09,-13.03,-14.77,6.23,6.23,6.24
36.33,19.30,13.08,19.30,13.08,-13.08,-13.02,-14.60,6.22,6.22,6.23
36.70,19.28,13.08,19.28,13.08,-13.08,-13.01,-14.43,6.21,6.20,6.20
37.06,19.27,13.09,19.26,13.07,-13.07,-13.00,-14.26,6.20,6.19,6.19
37.43,19.24,13.07,19.24,13.07,-13.07,-12.99,-14.10,6.18,6.18,6.18
37.81,19.22,13.06,19.22,13.06,-13.06,-12.98,-13.94,6.16,6.16,6.16
38.19,19.20,13.07,19.20,13.06,-13.06,-12.97,-13.79,6.15,6.14,6.14
38.57,19.17,13.05,19.18,13.05,-13.05,-12.96,-13.64,6.12,6.12,6.12
38.95,19.14,13.04,19.15,13.05,-13.05,-12.95,-13.50,6.10,6.10,6.11
39.34,19.12,13.04,19.13,13.04,-13.04,-12.94,-13.37,6.08,6.08,6.08
39.74,19.10,13.05,19.11,13.04,-13.04,-12.93,-13.24,6.07,6.07,6.06
40.14,19.08,13.03,19.08,13.04,-13.04,-12.92,-13.13,6.04,6.05,6.04
40.54,19.05,13.03,19.06,13.03,-13.03,-12.91,-13.02,6.02,6.03,6.03
40.94,19.03,13.03,19.04,13.03,-13.03,-12.91,-12.92,6.01,6.01,6.00
41.35,19.01,13.03,19.01,13.02,-13.02,-12.90,-12.82,5.99,5.99,5.99
41.76,18.98,13.02,18.99,13.02,-13.02,-12.89,-12.74,5.97,5.97,5.96
42.18,18.96,13.01,18.97,13.01,-13.01,-12.89,-12.66,5.95,5.95,5.96
42.60,18.94,13.02,18.94,13.01,-13.01,-12.88,-12.60,5.93,5.93,5.93
43.03,18.92,13.01,18.92,13.01,-13.01,-12.87,-12.54,5.92,5.91,5.91
43.46,18.89,13.01,18.90,13.01,-13.01,-12.87,-12.49,5.89,5.89,5.89
43.90,18.87,13.01,18.87,13.00,-13.00,-12.86,-12.44,5.87,5.87,5.87
44.33,18.84,13.00,18.84,13.00,-13.00,-12.86,-12.41,5.85,5.85,5.84
44.78,18.81,12.99,18.82,13.00,-13.00,-12.85,-12.38,5.82,5.82,5.82
45.23,18.79,12.99,18.79,13.00,-13.00,-12.85,-12.37,5.80,5.79,5.81
45.68,18.76,13.00,18.76,13.00,-13.00,-12.84,-12.36,5.77,5.77,5.77
46.13,18.73,13.00,18.73,13.00,-13.00,-12.84,-12.35,5.74,5.74,5.74
46.60,18.70,12.99,18.71,13.00,-13.00,-12.84,-12.36,5.71,5.71,5.71
47.06,18.68,13.00,18.68,13.00,-13.00,-12.83,-12.37,5.68,5.67,5.68
47.53,18.64,12.99,18.65,13.01,-13.01,-12.83,-12.39,5.64,5.64,5.65
48.01,18.61,13.01,18.62,13.01,-13.01,-12.83,-12.42,5.60,5.61,5.60
48.49,18.58,13.01,18.59,13.02,-13.02,-12.83,-12.46,5.57,5.57,5.57
48.97,18.55,13.02,18.56,13.02,-13.02,-12.82,-12.50,5.53,5.54,5.53
49.46,18.52,13.02,18.53,13.02,-13.02,-12.82,-12.55,5.50,5.50,5.50
49.96,18.49,13.05,18.49,13.03,-13.03,-12.82,-12.60,5.47,5.47,5.45
50.46,18.46,13.04,18.46,13.03,-13.03,-12.82,-12.66,5.43,5.43,5.43
50.96,18.43,13.04,18.43,13.03,-13.03,-12.82,-12.73,5.40,5.40,5.39
51.47,18.40,13.04,18.40,13.04,-13.04,-12.82,-12.80,5.37,5.36,5.36
51.99,18.36,13.05,18.36,13.04,-13.04,-12.82,-12.87,5.33,5.33,5.32
52.51,18.33,13.03,18.33,13.04,-13.04,-12.82,-12.95,5.29,5.29,5.30
53.03,18.29,13.02,18.30,13.04,-13.04,-12.82,-13.03,5.26,5.26,5.27
53.56,18.25,13.02,18.26,13.03,-13.03,-12.82,-13.12,5.22,5.23,5.24
54.10,18.21,13.02,18.22,13.03,-13.03,-12.82,-13.20,5.19,5.20,5.19
54.64,18.18,13.02,18.19,13.02,-13.02,-12.82,-13.29,5.16,5.17,5.17
55.18,18.15,13.02,18.15,13.01,-13.01,-12.82,-13.38,5.14,5.14,5.13
55.74,18.12,13.03,18.11,13.00,-13.00,-12.82,-13.46,5.12,5.11,5.09
56.29,18.08,13.01,18.08,13.00,-13.00,-12.83,-13.54,5.09,5.08,5.08
56.86,18.04,13.00,18.04,12.99,-12.99,-12.83,-13.62,5.05,5.05,5.05
57.42,18.00,12.99,18.01,12.99,-12.99,-12.83,-13.69,5.02,5.02,5.01
58.00,17.96,12.98,17.97,12.98,-12.98,-12.83,-13.76,4.98,4.99,4.98
58.58,17.92,12.96,17.93,12.98,-12.98,-12.83,-13.82,4.95,4.96,4.96
59.16,17.88,12.94,17.89,12.97,-12.97,-12.83,-13.87,4.91,4.92,4.94
59.76,17.85,12.94,17.86,12.97,-12.97,-12.84,-13.91,4.89,4.89,4.91
60.35,17.82,12.96,17.82,12.97,-12.97,-12.84,-13.94,4.86,4.85,4.87
60.96,17.78,12.96,17.78,12.96,-12.96,-12.84,-13.96,4.82,4.81,4.83
61.57,17.74,12.97,17.74,12.96,-12.96,-12.84,-13.96,4.78,4.78,4.77
62.18,17.70,12.97,17.70,12.96,-12.96,-12.84,-13.96,4.74,4.74,4.73
62.80,17.65,12.97,17.66,12.97,-12.97,-12.84,-13.94,4.69,4.70,4.69
63.43,17.61,12.97,17.62,12.96,-12.96,-12.85,-13.91,4.65,4.66,4.64
64.07,17.57,12.97,17.58,12.96,-12.96,-12.85,-13.86,4.61,4.62,4.61
64.71,17.53,12.97,17.54,12.96,-12.96,-12.85,-13.81,4.57,4.58,4.57
65.35,17.50,12.97,17.49,12.96,-12.96,-12.85,-13.74,4.55,4.54,4.53
66.01,17.46,12.97,17.45,12.96,-12.96,-12.85,-13.66,4.51,4.49,4.49
66.67,17.41,12.95,17.40,12.95,-12.95,-12.85,-13.57,4.47,4.46,4.46
67.33,17.36,12.95,17.36,12.94,-12.94,-12.85,-13.47,4.42,4.42,4.41
68.01,17.31,12.93,17.31,12.94,-12.94,-12.85,-13.37,4.38,4.38,4.38
68.69,17.26,12.92,17.27,12.93,-12.93,-12.85,-13.26,4.33,4.34,4.34
69.37,17.21,12.90,17.22,12.92,-12.92,-12.85,-13.14,4.29,4.30,4.31
70.07,17.17,12.91,17.18,12.92,-12.92,-12.85,-13.02,4.26,4.26,4.27
70.77,17.12,12.90,17.13,12.91,-12.91,-12.85,-12.90,4.21,4.22,4.22
71.48,17.08,12.90,17.09,12.91,-12.91,-12.85,-12.78,4.18,4.18,4.19
72.19,17.04,12.90,17.04,12.90,-12.90,-12.85,-12.65,4.14,4.14,4.14
72.91,17.00,12.91,17.00,12.89,-12.89,-12.84,-12.53,4.11,4.11,4.10
73.64,16.95,12.89,16.96,12.89,-12.89,-12.84,-12.41,4.07,4.07,4.06
74.38,16.91,12.89,16.91,12.88,-12.88,-12.84,-12.29,4.03,4.03,4.02
75.12,16.87,12.88,16.87,12.88,-12.88,-12.83,-12.17,4.00,4.00,3.99
75.87,16.83,12.87,16.83,12.87,-12.87,-12.83,-12.06,3.97,3.96,3.96
76.63,16.78,12.86,16.79,12.86,-12.86,-12.82,-11.95,3.93,3.93,3.92
77.40,16.74,12.84,16.75,12.85,-12.85,-12.81,-11.84,3.90,3.90,3.90
78.17,16.70,12.85,16.70,12.83,-12.83,-12.81,-11.74,3.87,3.87,3.86
78.95,16.65,12.81,16.66,12.82,-12.82,-12.80,-11.65,3.83,3.84,3.84
79.74,16.61,12.80,16.62,12.81,-12.81,-12.79,-11.56,3.81,3.81,3.81
80.54,16.57,12.79,16.57,12.79,-12.79,-12.78,-11.48,3.78,3.78,3.79
81.35,16.52,12.77,16.53,12.78,-12.78,-12.77,-11.40,3.75,3.75,3.75
82.16,16.48,12.75,16.48,12.76,-12.76,-12.76,-11.34,3.73,3.72,3.73
82.98,16.43,12.74,16.44,12.74,-12.74,-12.74,-11.27,3.69,3.69,3.70
83.81,16.38,12.72,16.39,12.72,-12.72,-12.73,-11.22,3.66,3.66,3.67
84.65,16.34,12.71,16.34,12.70,-12.70,-12.71,-11.17,3.64,3.63,3.63
85.50,16.29,12.69,16.29,12.68,-12.68,-12.70,-11.13,3.61,3.60,3.60
86.35,16.24,12.67,16.23,12.66,-12.66,-12.68,-11.10,3.58,3.57,3.57
87.22,16.18,12.65,16.18,12.64,-12.64,-12.66,-11.08,3.55,3.54,3.54
88.09,16.12,12.62,16.12,12.62,-12.62,-12.64,-11.06,3.51,3.51,3.51
88.97,16.06,12.59,16.07,12.59,-12.59,-12.62,-11.05,3.47,3.48,3.48
89.86,16.00,12.56,16.01,12.57,-12.57,-12.60,-11.05,3.44,3.44,3.44
90.76,15.94,12.54,15.95,12.55,-12.55,-12.58,-11.05,3.40,3.41,3.41
91.66,15.89,12.53,15.89,12.52,-12.52,-12.55,-11.07,3.37,3.37,3.37
92.58,15.83,12.49,15.83,12.50,-12.50,-12.53,-11.09,3.34,3.33,3.34
93.51,15.77,12.47,15.77,12.47,-12.47,-12.50,-11.12,3.30,3.30,3.31
94.44,15.71,12.44,15.71,12.45,-12.45,-12.47,-11.15,3.27,3.26,3.27
95.39,15.64,12.42,15.65,12.42,-12.42,-12.45,-11.19,3.22,3.22,3.22
96.34,15.58,12.40,15.59,12.40,-12.40,-12.42,-11.24,3.18,3.19,3.19
97.30,15.53,12.38,15.53,12.38,-12.38,-12.39,-11.30,3.15,3.15,3.15
98.28,15.47,12.37,15.48,12.36,-12.36,-12.36,-11.36,3.11,3.11,3.11
99.26,15.41,12.35,15.42,12.34,-12.34,-12.32,-11.43,3.07,3.08,3.07
100.25,15.34,12.31,15.37,12.32,-12.32,-12.29,-11.51,3.02,3.04,3.03
101.25,15.28,12.28,15.31,12.30,-12.30,-12.26,-11.59,2.98,3.01,3.00
102.27,15.23,12.26,15.25,12.28,-12.28,-12.23,-11.67,2.96,2.98,2.98
103.29,15.20,12.27,15.20,12.25,-12.25,-12.19,-11.76,2.95,2.94,2.94
104.32,15.16,12.25,15.14,12.23,-12.23,-12.16,-11.86,2.94,2.91,2.91
105.37,15.10,12.22,15.08,12.20,-12.20,-12.12,-11.95,2.90,2.88,2.88
106.42,15.03,12.18,15.02,12.17,-12.17,-12.09,-12.05,2.86,2.85,2.85
107.48,14.97,12.16,14.96,12.14,-12.14,-12.06,-12.15,2.83,2.82,2.82
108.56,14.91,12.13,14.90,12.12,-12.12,-12.02,-12.26,2.80,2.78,2.79
109.64,14.84,12.08,14.84,12.09,-12.09,-11.99,-12.36,2.76,2.75,2.76
110.74,14.77,12.05,14.78,12.06,-12.06,-11.96,-12.46,2.71,2.72,2.72
111.85,14.70,12.02,14.72,12.03,-12.03,-11.92,-12.56,2.67,2.68,2.69
112.97,14.63,11.98,14.66,12.01,-12.01,-11.89,-12.65,2.63,2.65,2.66
114.10,14.56,11.94,14.59,11.97,-11.97,-11.86,-12.74,2.59,2.62,2.62
115.24,14.50,11.93,14.53,11.94,-11.94,-11.83,-12.82,2.56,2.58,2.58
116.39,14.47,11.93,14.46,11.91,-11.91,-11.80,-12.90,2.56,2.55,2.54
117.55,14.41,11.91,14.40,11.89,-11.89,-11.77,-12.96,2.53,2.52,2.51
118.73,14.34,11.87,14.34,11.86,-11.86,-11.74,-13.02,2.49,2.48,2.47
119.92,14.28,11.84,14.28,11.83,-11.83,-11.71,-13.06,2.46,2.45,2.45
121.12,14.22,11.80,14.22,11.80,-11.80,-11.69,-13.09,2.42,2.42,2.42
122.33,14.17,11.79,14.16,11.77,-11.77,-11.66,-13.11,2.40,2.39,2.39
123.55,14.11,11.75,14.10,11.74,-11.74,-11.63,-13.11,2.37,2.36,2.36
124.79,14.03,11.69,14.04,11.71,-11.71,-11.61,-13.10,2.31,2.32,2.33
126.03,13.95,11.65,13.97,11.68,-11.68,-11.59,-13.07,2.28,2.29,2.30
127.29,13.91,11.64,13.90,11.64,-11.64,-11.56,-13.02,2.27,2.26,2.27
128.57,13.85,11.63,13.84,11.61,-11.61,-11.54,-12.97,2.25,2.23,2.23
129.85,13.76,11.57,13.77,11.57,-11.57,-11.52,-12.89,2.20,2.20,2.20
131.15,13.68,11.52,13.70,11.53,-11.53,-11.49,-12.81,2.15,2.17,2.16
132.46,13.64,11.51,13.63,11.49,-11.49,-11.47,-12.71,2.15,2.13,2.13
133.79,13.56,11.47,13.56,11.45,-11.45,-11.45,-12.60,2.11,2.10,2.09
135.12,13.46,11.40,13.49,11.42,-11.42,-11.42,-12.48,2.05,2.07,2.07
136.48,13.40,11.36,13.41,11.38,-11.38,-11.40,-12.35,2.03,2.04,2.04
137.84,13.33,11.33,13.34,11.34,-11.34,-11.38,-12.21,2.00,2.01,2.01
139.22,13.28,11.31,13.28,11.30,-11.30,-11.35,-12.07,1.99,1.98,1.97
140.61,13.22,11.28,13.21,11.26,-11.26,-11.33,-11.92,1.97,1.95,1.95
142.02,13.11,11.20,13.14,11.21,-11.21,-11.30,-11.78,1.90,1.92,1.92
143.44,13.06,11.17,13.07,11.17,-11.17,-11.28,-11.62,1.89,1.90,1.89
144.87,12.98,11.11,13.00,11.13,-11.13,-11.25,-11.47,1.85,1.87,1.87
146.32,12.94,11.10,12.93,11.09,-11.09,-11.22,-11.32,1.86,1.85,1.84
147.78,12.87,11.05,12.87,11.05,-11.05,-11.19,-11.17,1.83,1.82,1.82
149.26,12.80,11.01,12.80,11.00,-11.00,-11.16,-11.02,1.80,1.80,1.80
150.75,12.72,10.96,12.74,10.96,-10.96,-11.13,-10.87,1.76,1.77,1.77
152.26,12.67,10.92,12.67,10.92,-10.92,-11.09,-10.72,1.75,1.75,1.75
153.78,12.60,10.88,12.60,10.88,-10.88,-11.06,-10.58,1.72,1.72,1.73
155.32,12.54,10.84,12.54,10.84,-10.84,-11.02,-10.45,1.71,1.70,1.70
156.88,12.46,10.79,12.47,10.80,-10.80,-10.98,-10.32,1.66,1.67,1.68
158.44,12.41,10.77,12.41,10.76,-10.76,-10.94,-10.19,1.65,1.64,1.64
160.03,12.32,10.70,12.34,10.72,-10.72,-10.90,-10.07,1.60,1.62,1.62
161.63,12.26,10.68,12.27,10.68,-10.68,-10.86,-9.96,1.59,1.59,1.59
163.24,12.21,10.66,12.19,10.64,-10.64,-10.82,-9.85,1.58,1.56,1.56
164.88,12.11,10.59,12.12,10.60,-10.60,-10.77,-9.74,1.52,1.53,1.53
166.53,12.05,10.57,12.05,10.55,-10.55,-10.73,-9.65,1.50,1.50,1.49
168.19,11.99,10.52,11.98,10.51,-10.51,-10.68,-9.56,1.48,1.47,1.47
169.87,11.90,10.47,11.90,10.47,-10.47,-10.63,-9.47,1.43,1.43,1.43
171.57,11.83,10.44,11.83,10.43,-10.43,-10.58,-9.40,1.40,1.40,1.40
173.29,11.76,10.39,11.75,10.39,-10.39,-10.53,-9.33,1.38,1.37,1.37
175.02,11.66,10.33,11.68,10.35,-10.35,-10.48,-9.26,1.32,1.33,1.34
176.77,11.59,10.29,11.61,10.31,-10.31,-10.43,-9.20,1.29,1.30,1.30
178.54,11.52,10.26,11.53,10.27,-10.27,-10.37,-9.15,1.26,1.27,1.27
180.32,11.45,10.23,11.46,10.22,-10.22,-10.31,-9.11,1.23,1.23,1.22
182.13,11.39,10.19,11.38,10.18,-10.18,-10.26,-9.07,1.21,1.20,1.20
183.95,11.29,10.12,11.31,10.14,-10.14,-10.20,-9.04,1.15,1.17,1.17
185.79,11.23,10.11,11.23,10.10,-10.10,-10.14,-9.01,1.13,1.13,1.13
187.65,11.15,10.06,11.16,10.06,-10.06,-10.08,-8.99,1.09,1.10,1.10
189.52,11.09,10.03,11.09,10.02,-10.02,-10.02,-8.98,1.07,1.07,1.07
191.42,11.02,9.99,11.02,9.98,-9.98,-9.96,-8.97,1.04,1.04,1.04
193.33,10.95,9.94,10.95,9.94,-9.94,-9.89,-8.97,1.01,1.00,1.01
195.27,10.87,9.90,10.88,9.90,-9.90,-9.83,-8.97,0.97,0.98,0.97
197.22,10.79,9.86,10.80,9.86,-9.86,-9.76,-8.98,0.94,0.95,0.94
199.19,10.72,9.81,10.73,9.81,-9.81,-9.70,-9.00,0.92,0.92,0.92
201.18,10.66,9.78,10.66,9.76,-9.76,-9.63,-9.01,0.90,0.90,0.88
203.19,10.58,9.72,10.58,9.71,-9.71,-9.56,-9.03,0.87,0.87,0.87
205.23,10.51,9.66,10.51,9.67,-9.67,-9.50,-9.06,0.85,0.85,0.85
207.28,10.44,9.62,10.44,9.61,-9.61,-9.43,-9.09,0.83,0.82,0.83
209.35,10.36,9.56,10.36,9.56,-9.56,-9.36,-9.12,0.80,0.80,0.80
211.44,10.28,9.51,10.29,9.51,-9.51,-9.29,-9.15,0.77,0.78,0.78
213.56,10.21,9.45,10.21,9.45,-9.45,-9.22,-9.19,0.76,0.76,0.77
215.69,10.12,9.38,10.14,9.40,-9.40,-9.15,-9.22,0.72,0.74,0.74
217.85,10.04,9.32,10.06,9.34,-9.34,-9.07,-9.25,0.70,0.72,0.72
220.03,9.98,9.29,9.98,9.28,-9.28,-9.00,-9.29,0.70,0.70,0.70
222.23,9.92,9.25,9.91,9.22,-9.22,-8.93,-9.32,0.70,0.68,0.68
224.45,9.83,9.17,9.83,9.16,-9.16,-8.86,-9.35,0.67,0.67,0.67
226.70,9.75,9.11,9.75,9.10,-9.10,-8.78,-9.38,0.65,0.65,0.65
228.96,9.66,9.02,9.67,9.04,-9.04,-8.71,-9.40,0.63,0.64,0.65
231.25,9.60,8.98,9.59,8.97,-8.97,-8.63,-9.42,0.64,0.63,0.63
233.57,9.52,8.91,9.52,8.90,-8.90,-8.56,-9.43,0.62,0.62,0.62
235.90,9.42,8.82,9.44,8.83,-8.83,-8.48,-9.43,0.59,0.61,0.61
238.26,9.35,8.77,9.36,8.76,-8.76,-8.41,-9.43,0.60,0.60,0.59
240.64,9.26,8.67,9.28,8.68,-8.68,-8.33,-9.42,0.58,0.59,0.60
243.05,9.21,8.62,9.20,8.61,-8.61,-8.26,-9.40,0.61,0.59,0.59
245.48,9.12,8.54,9.12,8.53,-8.53,-8.18,-9.37,0.59,0.59,0.58
247.93,9.02,8.45,9.04,8.45,-8.45,-8.11,-9.33,0.57,0.59,0.57
250.41,8.96,8.38,8.96,8.37,-8.37,-8.03,-9.28,0.59,0.58,0.59
252.92,8.86,8.27,8.88,8.29,-8.29,-7.95,-9.22,0.57,0.58,0.59
255.45,8.79,8.21,8.80,8.21,-8.21,-7.88,-9.15,0.58,0.58,0.58
258.00,8.73,8.15,8.72,8.13,-8.13,-7.80,-9.07,0.60,0.58,0.59
260.58,8.64,8.05,8.64,8.06,-8.06,-7.72,-8.99,0.59,0.59,0.59
263.19,8.56,7.97,8.57,7.98,-7.98,-7.65,-8.89,0.59,0.59,0.59
265.82,8.48,7.90,8.49,7.90,-7.90,-7.57,-8.78,0.58,0.59,0.59
268.48,8.40,7.81,8.41,7.82,-7.82,-7.49,-8.67,0.58,0.59,0.59
271.16,8.33,7.74,8.34,7.75,-7.75,-7.41,-8.55,0.59,0.59,0.60
273.87,8.24,7.65,8.26,7.67,-7.67,-7.34,-8.42,0.58,0.59,0.59
276.61,8.18,7.59,8.19,7.59,-7.59,-7.26,-8.29,0.59,0.59,0.60
279.38,8.11,7.53,8.11,7.52,-7.52,-7.18,-8.15,0.60,0.60,0.58
282.17,8.04,7.46,8.03,7.44,-7.44,-7.10,-8.01,0.61,0.60,0.59
284.99,7.97,7.37,7.96,7.36,-7.36,-7.03,-7.87,0.62,0.60,0.60
287.84,7.88,7.28,7.88,7.27,-7.27,-6.95,-7.72,0.61,0.61,0.61
290.72,7.80,7.20,7.81,7.19,-7.19,-6.87,-7.57,0.61,0.61,0.60
293.63,7.73,7.11,7.73,7.11,-7.11,-6.79,-7.42,0.62,0.62,0.62
296.57,7.65,7.03,7.66,7.03,-7.03,-6.72,-7.27,0.62,0.62,0.63
299.53,7.57,6.94,7.58,6.95,-6.95,-6.64,-7.12,0.63,0.63,0.63
302.53,7.50,6.86,7.50,6.86,-6.86,-6.56,-6.97,0.64,0.64,0.65
305.55,7.42,6.78,7.43,6.78,-6.78,-6.49,-6.83,0.65,0.65,0.65
308.61,7.34,6.68,7.35,6.69,-6.69,-6.41,-6.68,0.65,0.66,0.66
311.69,7.26,6.60,7.27,6.61,-6.61,-6.33,-6.53,0.66,0.67,0.67
314.81,7.20,6.53,7.20,6.52,-6.52,-6.25,-6.39,0.68,0.68,0.68
317.96,7.13,6.45,7.12,6.44,-6.44,-6.18,-6.25,0.70,0.69,0.68
321.14,7.05,6.35,7.05,6.35,-6.35,-6.10,-6.12,0.70,0.70,0.70
324.35,6.97,6.28,6.98,6.27,-6.27,-6.02,-5.98,0.70,0.71,0.70
327.59,6.89,6.17,6.90,6.19,-6.19,-5.95,-5.85,0.71,0.71,0.72
330.87,6.82,6.10,6.83,6.10,-6.10,-5.87,-5.72,0.72,0.72,0.72
334.18,6.75,6.02,6.75,6.02,-6.02,-5.79,-5.60,0.73,0.73,0.73
337.52,6.67,5.94,6.68,5.94,-5.94,-5.72,-5.48,0.74,0.74,0.74
340.90,6.60,5.85,6.61,5.86,-5.86,-5.64,-5.36,0.75,0.75,0.76
344.30,6.53,5.77,6.53,5.77,-5.77,-5.56,-5.25,0.76,0.76,0.76
347.75,6.46,5.69,6.46,5.69,-5.69,-5.49,-5.14,0.78,0.77,0.77
351.23,6.38,5.62,6.38,5.60,-5.60,-5.41,-5.03,0.78,0.78,0.77
354.74,6.31,5.52,6.31,5.52,-5.52,-5.34,-4.93,0.79,0.79,0.80
358.28,6.23,5.44,6.23,5.44,-5.44,-5.26,-4.83,0.80,0.80,0.80
361.87,6.16,5.36,6.16,5.36,-5.36,-5.18,-4.74,0.81,0.81,0.80
365.49,6.08,5.27,6.09,5.27,-5.27,-5.11,-4.64,0.81,0.81,0.81
369.14,6.01,5.18,6.01,5.19,-5.19,-5.03,-4.55,0.83,0.82,0.83
372.83,5.93,5.10,5.94,5.10,-5.10,-4.96,-4.47,0.83,0.83,0.84
376.56,5.85,5.02,5.86,5.02,-5.02,-4.88,-4.39,0.84,0.84,0.84
380.33,5.77,4.93,5.79,4.93,-4.93,-4.81,-4.31,0.84,0.85,0.85
384.13,5.71,4.85,5.71,4.85,-4.85,-4.73,-4.23,0.87,0.86,0.86
387.97,5.63,4.76,5.63,4.76,-4.76,-4.66,-4.16,0.87,0.87,0.87
391.85,5.55,4.67,5.56,4.67,-4.67,-4.58,-4.09,0.88,0.88,0.88
395.77,5.48,4.59,5.48,4.59,-4.59,-4.51,-4.02,0.90,0.89,0.89
399.73,5.41,4.52,5.41,4.50,-4.50,-4.44,-3.96,0.91,0.91,0.90
403.72,5.33,4.41,5.33,4.42,-4.42,-4.36,-3.90,0.92,0.92,0.93
407.76,5.25,4.33,5.26,4.33,-4.33,-4.29,-3.84,0.92,0.93,0.93
411.84,5.18,4.25,5.18,4.25,-4.25,-4.21,-3.78,0.94,0.94,0.94
415.96,5.10,4.15,5.11,4.16,-4.16,-4.14,-3.72,0.94,0.95,0.96
420.12,5.03,4.08,5.03,4.08,-4.08,-4.07,-3.67,0.96,0.96,0.95
