frequency,raw,error,smoothed,error_smoothed,equalization,parametric_eq,equalized_raw,equalized_smoothed,target
20,14.60,7.41,14.61,7.43,-7.43,-3.08,7.17,7.18,7.19
21,14.55,7.37,14.55,7.38,-7.38,-3.52,7.17,7.18,7.18
22,14.49,7.31,14.49,7.32,-7.32,-4.00,7.17,7.17,7.17
23,14.43,7.26,14.43,7.26,-7.26,-4.51,7.16,7.16,7.17
24,14.37,7.21,14.36,7.21,-7.21,-5.06,7.16,7.16,7.16
25,14.31,7.16,14.30,7.15,-7.15,-5.63,7.16,7.15,7.15
26,14.24,7.10,14.23,7.09,-7.09,-6.19,7.15,7.14,7.14
27,14.17,7.04,14.16,7.03,-7.03,-6.73,7.14,7.13,7.13
28,14.10,6.98,14.09,6.97,-6.97,-7.22,7.13,7.12,7.12
29,14.03,6.92,14.02,6.91,-6.91,-7.62,7.12,7.11,7.11
30,13.95,6.85,13.95,6.85,-6.85,-7.90,7.10,7.10,7.10
31,13.87,6.79,13.87,6.79,-6.79,-8.06,7.08,7.08,7.08
32,13.79,6.72,13.79,6.72,-6.72,-8.09,7.06,7.07,7.07
33,13.71,6.66,13.71,6.66,-6.66,-8.00,7.05,7.05,7.05
34,13.63,6.59,13.63,6.59,-6.59,-7.83,7.04,7.04,7.04
35,13.55,6.53,13.55,6.53,-6.53,-7.60,7.02,7.02,7.02
36,13.47,6.46,13.47,6.47,-6.47,-7.34,7.00,7.00,7.00
37,13.39,6.40,13.39,6.40,-6.40,-7.07,6.99,6.99,6.99
38,13.31,6.34,13.31,6.34,-6.34,-6.80,6.97,6.97,6.97
39,13.22,6.27,13.22,6.28,-6.28,-6.55,6.94,6.95,6.95
40,13.14,6.21,13.14,6.22,-6.22,-6.33,6.92,6.92,6.93
41,13.06,6.15,13.06,6.16,-6.16,-6.13,6.90,6.90,6.90
42,12.98,6.10,12.98,6.10,-6.10,-5.95,6.88,6.88,6.88
43,12.90,6.04,12.90,6.05,-6.05,-5.81,6.85,6.86,6.86
44,12.82,5.99,12.82,5.99,-5.99,-5.68,6.83,6.83,6.83
45,12.73,5.92,12.74,5.94,-5.94,-5.59,6.79,6.80,6.81
46,12.65,5.87,12.66,5.88,-5.88,-5.51,6.77,6.77,6.78
47,12.57,5.82,12.57,5.83,-5.83,-5.46,6.74,6.74,6.75
48,12.49,5.77,12.49,5.77,-5.77,-5.42,6.72,6.72,6.72
49,12.42,5.73,12.41,5.72,-5.72,-5.40,6.70,6.69,6.69
50,12.36,5.70,12.32,5.66,-5.66,-5.40,6.69,6.65,6.66
51,12.28,5.65,12.23,5.61,-5.61,-5.40,6.67,6.62,6.62
52,12.15,5.56,12.14,5.56,-5.56,-5.42,6.59,6.59,6.59
53,12.00,5.44,12.05,5.50,-5.50,-5.44,6.50,6.55,6.56
54,11.92,5.40,11.97,5.45,-5.45,-5.46,6.47,6.51,6.52
55,11.88,5.40,11.88,5.40,-5.40,-5.49,6.47,6.48,6.48
56,11.82,5.37,11.80,5.36,-5.36,-5.51,6.46,6.44,6.44
57,11.73,5.32,11.71,5.31,-5.31,-5.53,6.42,6.40,6.41
58,11.62,5.25,11.63,5.27,-5.27,-5.54,6.35,6.36,6.37
59,11.52,5.19,11.55,5.23,-5.23,-5.55,6.29,6.32,6.32
60,11.47,5.19,11.47,5.19,-5.19,-5.55,6.27,6.28,6.28
61,11.40,5.16,11.39,5.16,-5.16,-5.53,6.24,6.23,6.24
62,11.34,5.14,11.32,5.13,-5.13,-5.51,6.21,6.19,6.20
63,11.26,5.11,11.25,5.10,-5.10,-5.48,6.16,6.15,6.15
64,11.18,5.07,11.17,5.07,-5.07,-5.44,6.11,6.10,6.10
65,11.10,5.04,11.09,5.04,-5.04,-5.39,6.06,6.05,6.06
66,11.02,5.01,11.02,5.01,-5.01,-5.33,6.01,6.00,6.01
67,10.93,4.97,10.94,4.98,-4.98,-5.27,5.95,5.96,5.96
68,10.85,4.93,10.87,4.96,-4.96,-5.20,5.89,5.91,5.91
69,10.78,4.91,10.80,4.93,-4.93,-5.12,5.85,5.87,5.87
70,10.71,4.89,10.71,4.90,-4.90,-5.05,5.81,5.81,5.82
71,10.64,4.87,10.63,4.88,-4.88,-4.97,5.76,5.76,5.76
72,10.57,4.86,10.55,4.85,-4.85,-4.89,5.72,5.71,5.71
73,10.51,4.85,10.48,4.82,-4.82,-4.81,5.69,5.65,5.66
74,10.43,4.82,10.40,4.80,-4.80,-4.74,5.63,5.60,5.61
75,10.34,4.78,10.32,4.77,-4.77,-4.66,5.56,5.55,5.56
76,10.24,4.73,10.25,4.75,-4.75,-4.59,5.49,5.50,5.51
77,10.15,4.70,10.18,4.73,-4.73,-4.53,5.42,5.45,5.45
78,10.07,4.67,10.10,4.71,-4.71,-4.46,5.36,5.39,5.40
79,10.00,4.65,10.03,4.69,-4.69,-4.40,5.31,5.34,5.35
80,9.95,4.66,9.96,4.67,-4.67,-4.35,5.28,5.29,5.29
81,9.89,4.65,9.88,4.65,-4.65,-4.30,5.24,5.23,5.24
82,9.83,4.64,9.81,4.64,-4.64,-4.25,5.19,5.18,5.18
83,9.76,4.63,9.74,4.62,-4.62,-4.21,5.14,5.12,5.13
84,9.69,4.61,9.67,4.61,-4.61,-4.17,5.08,5.07,5.08
85,9.63,4.61,9.61,4.59,-4.59,-4.14,5.04,5.02,5.02
86,9.55,4.58,9.54,4.58,-4.58,-4.11,4.97,4.96,4.97
87,9.47,4.55,9.48,4.57,-4.57,-4.09,4.90,4.91,4.92
88,9.40,4.54,9.41,4.56,-4.56,-4.07,4.84,4.86,4.86
89,9.33,4.52,9.35,4.54,-4.54,-4.05,4.79,4.80,4.81
90,9.27,4.51,9.28,4.53,-4.53,-4.04,4.74,4.75,4.76
91,9.21,4.51,9.22,4.52,-4.52,-4.03,4.69,4.70,4.70
92,9.15,4.50,9.15,4.50,-4.50,-4.03,4.64,4.65,4.65
93,9.09,4.49,9.09,4.49,-4.49,-4.03,4.60,4.60,4.60
94,9.03,4.48,9.02,4.48,-4.48,-4.03,4.55,4.54,4.55
95,8.97,4.47,8.95,4.46,-4.46,-4.04,4.51,4.49,4.49
96,8.91,4.47,8.89,4.45,-4.45,-4.05,4.46,4.44,4.44
97,8.83,4.44,8.82,4.43,-4.43,-4.06,4.40,4.39,4.39
98,8.75,4.41,8.75,4.41,-4.41,-4.07,4.34,4.33,4.34
99,8.68,4.39,8.68,4.40,-4.40,-4.09,4.28,4.28,4.29
100,8.60,4.36,8.60,4.38,-4.38,-4.11,4.22,4.23,4.24
101,8.52,4.33,8.53,4.36,-4.36,-4.13,4.16,4.17,4.19
102,8.46,4.31,8.46,4.34,-4.34,-4.15,4.12,4.12,4.14
104,8.36,4.31,8.39,4.32,-4.32,-4.19,4.04,4.07,4.05
105,8.31,4.31,8.31,4.30,-4.30,-4.22,4.01,4.01,4.00
106,8.25,4.29,8.25,4.28,-4.28,-4.24,3.96,3.96,3.96
107,8.19,4.28,8.18,4.27,-4.27,-4.27,3.92,3.91,3.91
108,8.13,4.26,8.12,4.25,-4.25,-4.29,3.88,3.87,3.87
109,8.05,4.23,8.05,4.23,-4.23,-4.31,3.82,3.82,3.82
110,7.98,4.20,7.99,4.22,-4.22,-4.34,3.76,3.77,3.78
111,7.92,4.19,7.93,4.20,-4.20,-4.36,3.72,3.73,3.73
112,7.86,4.17,7.87,4.18,-4.18,-4.38,3.67,3.68,3.69
113,7.80,4.15,7.81,4.17,-4.17,-4.40,3.63,3.64,3.65
114,7.75,4.14,7.74,4.15,-4.15,-4.41,3.60,3.59,3.61
115,7.70,4.13,7.68,4.13,-4.13,-4.43,3.57,3.55,3.57
117,7.60,4.11,7.61,4.11,-4.11,-4.45,3.49,3.50,3.49
118,7.55,4.10,7.54,4.09,-4.09,-4.46,3.46,3.45,3.45
119,7.49,4.08,7.48,4.07,-4.07,-4.47,3.42,3.41,3.41
120,7.44,4.07,7.41,4.05,-4.05,-4.47,3.39,3.36,3.37
121,7.37,4.03,7.35,4.03,-4.03,-4.47,3.34,3.32,3.33
123,7.25,3.99,7.28,4.01,-4.01,-4.46,3.24,3.27,3.26
124,7.19,3.96,7.21,3.98,-3.98,-4.45,3.20,3.23,3.23
125,7.13,3.94,7.15,3.96,-3.96,-4.44,3.17,3.18,3.19
126,7.08,3.92,7.08,3.94,-3.94,-4.43,3.14,3.14,3.16
128,6.99,3.90,7.01,3.91,-3.91,-4.39,3.08,3.10,3.09
129,6.94,3.88,6.95,3.88,-3.88,-4.37,3.05,3.06,3.06
130,6.90,3.87,6.88,3.86,-3.86,-4.35,3.04,3.02,3.03
131,6.85,3.85,6.81,3.83,-3.83,-4.32,3.02,2.98,3.00
133,6.75,3.81,6.74,3.80,-3.80,-4.27,2.94,2.94,2.94
134,6.70,3.79,6.68,3.78,-3.78,-4.23,2.92,2.90,2.91
135,6.64,3.76,6.61,3.75,-3.75,-4.20,2.89,2.86,2.88
137,6.53,3.71,6.55,3.72,-3.72,-4.13,2.81,2.82,2.82
138,6.48,3.68,6.48,3.70,-3.70,-4.09,2.78,2.79,2.79
140,6.39,3.65,6.42,3.67,-3.67,-4.02,2.72,2.75,2.74
141,6.34,3.62,6.36,3.65,-3.65,-3.98,2.69,2.71,2.72
142,6.30,3.61,6.30,3.63,-3.63,-3.94,2.67,2.67,2.69
144,6.23,3.59,6.25,3.61,-3.61,-3.86,2.62,2.64,2.64
145,6.21,3.59,6.20,3.60,-3.60,-3.81,2.61,2.60,2.62
147,6.16,3.59,6.16,3.59,-3.59,-3.73,2.57,2.57,2.57
148,6.13,3.58,6.12,3.58,-3.58,-3.69,2.55,2.54,2.55
150,6.08,3.57,6.08,3.58,-3.58,-3.61,2.50,2.51,2.51
151,6.06,3.57,6.05,3.57,-3.57,-3.57,2.49,2.48,2.48
153,6.02,3.58,6.02,3.57,-3.57,-3.50,2.45,2.45,2.44
154,6.00,3.58,5.99,3.57,-3.57,-3.46,2.43,2.42,2.42
156,5.95,3.56,5.96,3.57,-3.57,-3.38,2.38,2.39,2.38
157,5.93,3.56,5.93,3.56,-3.56,-3.35,2.36,2.36,2.37
159,5.89,3.56,5.89,3.56,-3.56,-3.28,2.33,2.33,2.33
160,5.87,3.56,5.86,3.56,-3.56,-3.25,2.31,2.30,2.31
162,5.83,3.55,5.83,3.55,-3.55,-3.18,2.27,2.28,2.28
164,5.79,3.54,5.80,3.55,-3.55,-3.12,2.24,2.25,2.24
165,5.77,3.54,5.76,3.54,-3.54,-3.09,2.23,2.23,2.23
167,5.72,3.52,5.72,3.52,-3.52,-3.04,2.20,2.20,2.20
169,5.68,3.51,5.68,3.51,-3.51,-2.99,2.17,2.18,2.17
170,5.65,3.50,5.64,3.49,-3.49,-2.96,2.16,2.15,2.15
172,5.60,3.47,5.59,3.46,-3.46,-2.91,2.14,2.13,2.13
174,5.55,3.45,5.54,3.44,-3.44,-2.87,2.11,2.10,2.10
175,5.51,3.42,5.48,3.41,-3.41,-2.85,2.10,2.08,2.08
177,5.45,3.39,5.43,3.38,-3.38,-2.81,2.07,2.05,2.06
179,5.38,3.34,5.37,3.34,-3.34,-2.78,2.04,2.03,2.03
181,5.31,3.30,5.31,3.31,-3.31,-2.75,2.00,2.01,2.01
183,5.23,3.24,5.26,3.27,-3.27,-2.72,1.96,1.99,1.99
184,5.19,3.21,5.20,3.24,-3.24,-2.71,1.95,1.97,1.98
186,5.13,3.17,5.15,3.20,-3.20,-2.68,1.93,1.95,1.96
188,5.08,3.14,5.09,3.17,-3.17,-2.66,1.91,1.93,1.94
190,5.03,3.11,5.04,3.14,-3.14,-2.64,1.89,1.91,1.92
192,5.00,3.10,5.00,3.11,-3.11,-2.62,1.89,1.89,1.90
194,4.95,3.07,4.95,3.08,-3.08,-2.61,1.87,1.87,1.88
196,4.92,3.06,4.91,3.05,-3.05,-2.59,1.86,1.85,1.86
198,4.88,3.04,4.87,3.03,-3.03,-2.58,1.85,1.84,1.84
200,4.83,3.00,4.83,3.00,-3.00,-2.57,1.83,1.83,1.83
202,4.79,2.98,4.79,2.98,-2.98,-2.56,1.81,1.81,1.81
204,4.74,2.94,4.75,2.95,-2.95,-2.55,1.79,1.80,1.80
206,4.70,2.92,4.70,2.92,-2.92,-2.55,1.78,1.78,1.78
208,4.65,2.88,4.65,2.89,-2.89,-2.54,1.76,1.77,1.77
210,4.61,2.86,4.60,2.85,-2.85,-2.54,1.76,1.75,1.75
212,4.57,2.83,4.55,2.81,-2.81,-2.53,1.76,1.74,1.74
214,4.51,2.78,4.49,2.77,-2.77,-2.53,1.74,1.72,1.73
216,4.47,2.75,4.44,2.73,-2.73,-2.52,1.74,1.71,1.72
218,4.39,2.69,4.38,2.68,-2.68,-2.52,1.71,1.70,1.70
221,4.30,2.61,4.32,2.63,-2.63,-2.51,1.67,1.69,1.69
223,4.23,2.55,4.25,2.58,-2.58,-2.50,1.65,1.67,1.68
225,4.17,2.50,4.19,2.53,-2.53,-2.49,1.64,1.66,1.66
227,4.11,2.45,4.13,2.48,-2.48,-2.48,1.63,1.65,1.65
229,4.07,2.42,4.06,2.42,-2.42,-2.47,1.65,1.64,1.64
232,3.99,2.36,3.99,2.37,-2.37,-2.46,1.62,1.63,1.63
234,3.94,2.32,3.93,2.31,-2.31,-2.44,1.63,1.62,1.62
236,3.88,2.27,3.86,2.26,-2.26,-2.43,1.62,1.61,1.61
239,3.80,2.20,3.80,2.20,-2.20,-2.40,1.60,1.60,1.60
241,3.74,2.15,3.74,2.15,-2.15,-2.38,1.59,1.59,1.59
244,3.66,2.08,3.67,2.09,-2.09,-2.35,1.57,1.58,1.58
246,3.61,2.04,3.61,2.03,-2.03,-2.33,1.58,1.57,1.57
248,3.55,1.98,3.54,1.98,-1.98,-2.30,1.57,1.56,1.57
251,3.47,1.91,3.47,1.92,-1.92,-2.26,1.55,1.56,1.55
253,3.41,1.86,3.40,1.86,-1.86,-2.23,1.55,1.55,1.55
256,3.34,1.80,3.34,1.80,-1.80,-2.18,1.54,1.54,1.54
259,3.26,1.73,3.27,1.74,-1.74,-2.13,1.52,1.53,1.53
261,3.21,1.69,3.20,1.68,-1.68,-2.10,1.53,1.52,1.52
264,3.13,1.61,3.14,1.62,-1.62,-2.04,1.51,1.52,1.51
266,3.08,1.57,3.07,1.56,-1.56,-2.00,1.52,1.51,1.51
269,3.01,1.51,3.00,1.50,-1.50,-1.94,1.51,1.50,1.50
272,2.93,1.44,2.94,1.44,-1.44,-1.87,1.48,1.49,1.49
274,2.88,1.39,2.87,1.39,-1.39,-1.83,1.49,1.49,1.49
277,2.81,1.33,2.81,1.33,-1.33,-1.76,1.48,1.48,1.48
280,2.74,1.26,2.74,1.27,-1.27,-1.69,1.47,1.47,1.47
283,2.67,1.20,2.68,1.21,-1.21,-1.61,1.46,1.47,1.47
286,2.61,1.15,2.61,1.15,-1.15,-1.54,1.46,1.46,1.46
288,2.56,1.10,2.55,1.09,-1.09,-1.49,1.46,1.46,1.46
291,2.49,1.04,2.49,1.04,-1.04,-1.42,1.45,1.45,1.45
294,2.43,0.98,2.42,0.98,-0.98,-1.34,1.45,1.45,1.45
297,2.36,0.92,2.36,0.92,-0.92,-1.27,1.44,1.44,1.44
300,2.30,0.86,2.30,0.86,-0.86,-1.19,1.43,1.44,1.44
303,2.24,0.81,2.24,0.81,-0.81,-1.11,1.43,1.43,1.43
306,2.18,0.75,2.18,0.75,-0.75,-1.04,1.43,1.43,1.43
309,2.12,0.70,2.12,0.70,-0.70,-0.96,1.42,1.42,1.42
312,2.06,0.64,2.05,0.64,-0.64,-0.88,1.42,1.42,1.42
316,1.99,0.58,1.99,0.58,-0.58,-0.78,1.41,1.41,1.41
319,1.93,0.52,1.93,0.53,-0.53,-0.71,1.40,1.41,1.41
322,1.87,0.47,1.87,0.47,-0.47,-0.63,1.40,1.40,1.40
325,1.82,0.42,1.82,0.42,-0.42,-0.56,1.40,1.40,1.40
328,1.76,0.36,1.76,0.36,-0.36,-0.49,1.40,1.40,1.40
332,1.69,0.30,1.70,0.31,-0.31,-0.39,1.38,1.39,1.39
335,1.64,0.25,1.64,0.25,-0.25,-0.32,1.39,1.39,1.39
338,1.59,0.20,1.58,0.20,-0.20,-0.24,1.39,1.38,1.38
342,1.52,0.14,1.52,0.14,-0.14,-0.15,1.38,1.38,1.38
345,1.47,0.09,1.46,0.09,-0.09,-0.08,1.38,1.37,1.38
349,1.40,0.03,1.40,0.03,-0.03,0.02,1.37,1.37,1.37
352,1.35,-0.02,1.35,-0.02,0.02,0.09,1.37,1.37,1.37
356,1.28,-0.09,1.29,-0.08,0.08,0.18,1.36,1.37,1.37
359,1.23,-0.13,1.23,-0.13,0.13,0.25,1.36,1.36,1.36
363,1.17,-0.19,1.17,-0.19,0.19,0.34,1.35,1.36,1.36
366,1.12,-0.24,1.12,-0.24,0.24,0.40,1.36,1.36,1.36
370,1.06,-0.30,1.06,-0.29,0.29,0.49,1.35,1.35,1.35
374,1.00,-0.35,1.00,-0.35,0.35,0.58,1.35,1.35,1.35
377,0.96,-0.39,0.95,-0.40,0.40,0.65,1.36,1.35,1.35
381,0.90,-0.45,0.89,-0.45,0.45,0.73,1.35,1.35,1.35
385,0.84,-0.51,0.84,-0.51,0.51,0.82,1.35,1.34,1.34
389,0.78,-0.56,0.78,-0.56,0.56,0.90,1.34,1.34,1.34
393,0.72,-0.62,0.72,-0.62,0.62,0.99,1.34,1.34,1.34
397,0.66,-0.68,0.67,-0.67,0.67,1.07,1.33,1.34,1.34
401,0.61,-0.73,0.61,-0.73,0.73,1.15,1.34,1.34,1.33
405,0.55,-0.78,0.55,-0.78,0.78,1.23,1.33,1.33,1.33
409,0.49,-0.84,0.49,-0.84,0.84,1.31,1.33,1.33,1.33
413,0.44,-0.89,0.43,-0.89,0.89,1.39,1.33,1.32,1.33
417,0.38,-0.95,0.37,-0.95,0.95,1.47,1.33,1.32,1.33
421,0.32,-1.00,0.32,-1.00,1.00,1.54,1.32,1.32,1.32
425,0.27,-1.05,0.26,-1.06,1.06,1.62,1.33,1.32,1.32
430,0.20,-1.12,0.20,-1.11,1.11,1.70,1.31,1.32,1.32
434,0.15,-1.17,0.15,-1.16,1.16,1.77,1.31,1.31,1.32
438,0.09,-1.23,0.10,-1.22,1.22,1.84,1.31,1.31,1.31
443,0.03,-1.28,0.04,-1.27,1.27,1.92,1.30,1.31,1.31
447,-0.01,-1.33,-0.01,-1.32,1.32,1.98,1.31,1.31,1.32
451,-0.05,-1.37,-0.06,-1.38,1.38,2.04,1.32,1.32,1.32
456,-0.11,-1.43,-0.11,-1.43,1.43,2.12,1.32,1.32,1.32
460,-0.16,-1.49,-0.16,-1.48,1.48,2.17,1.32,1.33,1.33
465,-0.20,-1.53,-0.20,-1.53,1.53,2.24,1.33,1.33,1.33
470,-0.25,-1.59,-0.25,-1.59,1.59,2.30,1.34,1.34,1.34
474,-0.29,-1.64,-0.29,-1.65,1.65,2.34,1.36,1.35,1.35
479,-0.34,-1.70,-0.34,-1.70,1.70,2.39,1.36,1.36,1.36
484,-0.39,-1.76,-0.39,-1.77,1.77,2.44,1.37,1.38,1.37
489,-0.44,-1.82,-0.44,-1.83,1.83,2.48,1.39,1.39,1.38
494,-0.48,-1.88,-0.49,-1.89,1.89,2.52,1.41,1.40,1.40
499,-0.53,-1.94,-0.55,-1.96,1.96,2.56,1.43,1.41,1.41
504,-0.59,-2.02,-0.61,-2.03,2.03,2.59,1.44,1.42,1.43
509,-0.65,-2.09,-0.66,-2.10,2.10,2.61,1.44,1.44,1.44
514,-0.70,-2.16,-0.72,-2.17,2.17,2.64,1.46,1.45,1.46
519,-0.77,-2.25,-0.77,-2.23,2.23,2.66,1.46,1.47,1.47
524,-0.84,-2.33,-0.82,-2.30,2.30,2.67,1.46,1.48,1.49
529,-0.89,-2.40,-0.87,-2.37,2.37,2.68,1.48,1.50,1.51
535,-0.94,-2.47,-0.91,-2.44,2.44,2.70,1.50,1.52,1.53
540,-0.98,-2.53,-0.96,-2.50,2.50,2.70,1.52,1.54,1.55
545,-1.01,-2.58,-1.00,-2.57,2.57,2.71,1.56,1.57,1.57
551,-1.03,-2.63,-1.04,-2.63,2.63,2.71,1.60,1.59,1.59
556,-1.06,-2.68,-1.08,-2.69,2.69,2.71,1.63,1.61,1.62
562,-1.09,-2.74,-1.11,-2.75,2.75,2.71,1.66,1.64,1.65
568,-1.13,-2.80,-1.14,-2.81,2.81,2.71,1.68,1.67,1.67
573,-1.16,-2.86,-1.17,-2.87,2.87,2.71,1.71,1.70,1.70
579,-1.20,-2.93,-1.20,-2.93,2.93,2.70,1.73,1.73,1.73
585,-1.24,-3.00,-1.23,-2.99,2.99,2.70,1.75,1.76,1.76
591,-1.26,-3.05,-1.26,-3.05,3.05,2.69,1.79,1.79,1.79
596,-1.29,-3.11,-1.29,-3.11,3.11,2.69,1.82,1.82,1.82
602,-1.31,-3.16,-1.32,-3.17,3.17,2.69,1.86,1.85,1.85
608,-1.34,-3.22,-1.36,-3.23,3.23,2.68,1.89,1.87,1.88
615,-1.37,-3.28,-1.39,-3.29,3.29,2.68,1.92,1.90,1.91
621,-1.41,-3.35,-1.42,-3.35,3.35,2.68,1.94,1.94,1.94
627,-1.44,-3.42,-1.44,-3.41,3.41,2.68,1.97,1.97,1.97
633,-1.48,-3.49,-1.47,-3.47,3.47,2.68,1.99,2.00,2.01
639,-1.51,-3.55,-1.49,-3.52,3.52,2.68,2.01,2.03,2.04
646,-1.53,-3.60,-1.51,-3.57,3.57,2.68,2.04,2.07,2.07
652,-1.54,-3.64,-1.52,-3.62,3.62,2.69,2.08,2.10,2.10
659,-1.54,-3.68,-1.54,-3.67,3.67,2.69,2.13,2.13,2.14
665,-1.54,-3.71,-1.55,-3.72,3.72,2.70,2.18,2.16,2.17
672,-1.54,-3.75,-1.56,-3.76,3.76,2.71,2.22,2.20,2.21
679,-1.54,-3.78,-1.57,-3.80,3.80,2.73,2.26,2.24,2.24
686,-1.56,-3.84,-1.56,-3.84,3.84,2.74,2.28,2.27,2.28
692,-1.57,-3.89,-1.56,-3.88,3.88,2.76,2.30,2.31,2.32
699,-1.57,-3.93,-1.56,-3.91,3.91,2.78,2.34,2.36,2.35
706,-1.57,-3.96,-1.55,-3.95,3.95,2.80,2.38,2.39,2.39
713,-1.57,-4.00,-1.55,-3.98,3.98,2.82,2.41,2.43,2.43
721,-1.54,-4.01,-1.54,-4.01,4.01,2.85,2.47,2.47,2.47
728,-1.52,-4.03,-1.54,-4.04,4.04,2.88,2.52,2.51,2.51
735,-1.51,-4.06,-1.53,-4.08,4.08,2.91,2.56,2.54,2.55
742,-1.50,-4.09,-1.53,-4.11,4.11,2.94,2.61,2.58,2.59
750,-1.49,-4.12,-1.52,-4.14,4.14,2.98,2.64,2.62,2.62
757,-1.50,-4.16,-1.50,-4.16,4.16,3.01,2.66,2.66,2.66
765,-1.50,-4.20,-1.49,-4.19,4.19,3.06,2.69,2.70,2.70
773,-1.49,-4.23,-1.48,-4.21,4.21,3.10,2.72,2.73,2.74
780,-1.48,-4.26,-1.46,-4.23,4.23,3.14,2.75,2.77,2.77
788,-1.46,-4.27,-1.44,-4.25,4.25,3.18,2.79,2.80,2.81
796,-1.43,-4.27,-1.42,-4.26,4.26,3.23,2.83,2.84,2.84
804,-1.39,-4.27,-1.40,-4.27,4.27,3.28,2.88,2.87,2.88
812,-1.36,-4.27,-1.37,-4.28,4.28,3.32,2.91,2.90,2.91
820,-1.33,-4.27,-1.34,-4.28,4.28,3.37,2.95,2.94,2.94
828,-1.30,-4.27,-1.30,-4.28,4.28,3.42,2.97,2.97,2.97
837,-1.26,-4.27,-1.26,-4.27,4.27,3.47,3.01,3.00,3.01
845,-1.22,-4.26,-1.22,-4.26,4.26,3.52,3.04,3.04,3.04
853,-1.18,-4.25,-1.18,-4.25,4.25,3.57,3.06,3.07,3.07
862,-1.13,-4.23,-1.13,-4.23,4.23,3.62,3.10,3.10,3.10
871,-1.08,-4.21,-1.08,-4.20,4.20,3.66,3.12,3.12,3.13
879,-1.03,-4.18,-1.03,-4.18,4.18,3.71,3.15,3.15,3.15
888,-0.97,-4.15,-0.97,-4.15,4.15,3.75,3.18,3.18,3.18
897,-0.91,-4.12,-0.91,-4.11,4.11,3.79,3.20,3.20,3.21
906,-0.84,-4.08,-0.84,-4.07,4.07,3.83,3.23,3.23,3.24
915,-0.77,-4.03,-0.77,-4.03,4.03,3.86,3.26,3.26,3.26
924,-0.71,-4.00,-0.70,-3.99,3.99,3.89,3.27,3.29,3.29
933,-0.64,-3.96,-0.62,-3.94,3.94,3.91,3.29,3.31,3.32
943,-0.55,-3.89,-0.54,-3.88,3.88,3.94,3.33,3.34,3.34
952,-0.46,-3.83,-0.46,-3.82,3.82,3.95,3.36,3.37,3.37
962,-0.36,-3.75,-0.37,-3.76,3.76,3.96,3.40,3.39,3.39
971,-0.27,-3.69,-0.28,-3.70,3.70,3.97,3.43,3.42,3.42
981,-0.17,-3.62,-0.19,-3.64,3.64,3.97,3.47,3.44,3.45
991,-0.08,-3.55,-0.10,-3.57,3.57,3.96,3.49,3.47,3.47
1001,0.01,-3.49,-0.00,-3.50,3.50,3.95,3.51,3.49,3.50
1011,0.10,-3.43,0.10,-3.42,3.42,3.93,3.52,3.52,3.52
1021,0.19,-3.36,0.20,-3.35,3.35,3.90,3.53,3.54,3.55
1031,0.28,-3.30,0.31,-3.26,3.26,3.87,3.54,3.57,3.58
1041,0.39,-3.22,0.42,-3.18,3.18,3.84,3.57,3.60,3.61
1052,0.52,-3.11,0.53,-3.09,3.09,3.79,3.61,3.62,3.63
1062,0.63,-3.03,0.65,-3.00,3.00,3.74,3.63,3.65,3.66
1073,0.77,-2.92,0.77,-2.91,2.91,3.69,3.68,3.68,3.69
1084,0.90,-2.82,0.90,-2.82,2.82,3.63,3.72,3.72,3.72
1094,1.02,-2.73,1.02,-2.73,2.73,3.57,3.74,3.75,3.75
1105,1.15,-2.63,1.15,-2.63,2.63,3.50,3.78,3.78,3.78
1116,1.29,-2.52,1.27,-2.54,2.54,3.43,3.83,3.82,3.81
1128,1.42,-2.42,1.39,-2.46,2.46,3.35,3.88,3.85,3.84
1139,1.53,-2.34,1.51,-2.37,2.37,3.28,3.90,3.88,3.87
1150,1.64,-2.27,1.62,-2.29,2.29,3.20,3.93,3.91,3.91
1162,1.74,-2.20,1.72,-2.22,2.22,3.11,3.95,3.94,3.94
1173,1.83,-2.14,1.83,-2.14,2.14,3.03,3.97,3.97,3.97
1185,1.93,-2.07,1.93,-2.07,2.07,2.95,4.00,4.00,4.00
1197,2.02,-2.01,2.02,-2.00,2.00,2.86,4.02,4.03,4.03
1209,2.11,-1.96,2.12,-1.94,1.94,2.77,4.05,4.06,4.06
1221,2.20,-1.90,2.22,-1.87,1.87,2.68,4.07,4.09,4.10
1233,2.28,-1.85,2.32,-1.81,1.81,2.60,4.09,4.13,4.13
1246,2.39,-1.77,2.41,-1.75,1.75,2.50,4.14,4.16,4.16
1258,2.49,-1.70,2.50,-1.69,1.69,2.42,4.18,4.19,4.19
1271,2.60,-1.63,2.59,-1.63,1.63,2.33,4.23,4.23,4.23
1283,2.70,-1.56,2.68,-1.58,1.58,2.25,4.28,4.26,4.26
1296,2.81,-1.49,2.77,-1.52,1.52,2.16,4.33,4.29,4.30
1309,2.89,-1.44,2.86,-1.47,1.47,2.07,4.36,4.33,4.33
1322,2.97,-1.40,2.94,-1.43,1.43,1.99,4.39,4.37,4.37
1335,3.03,-1.38,3.03,-1.38,1.38,1.90,4.41,4.41,4.40
1349,3.09,-1.35,3.11,-1.34,1.34,1.82,4.43,4.45,4.44
1362,3.15,-1.33,3.18,-1.30,1.30,1.74,4.45,4.49,4.48
1376,3.23,-1.29,3.26,-1.27,1.27,1.65,4.49,4.52,4.52
1390,3.31,-1.25,3.32,-1.23,1.23,1.57,4.54,4.56,4.55
1404,3.40,-1.19,3.39,-1.20,1.20,1.49,4.60,4.59,4.59
1418,3.48,-1.15,3.46,-1.17,1.17,1.41,4.65,4.62,4.63
1432,3.56,-1.11,3.52,-1.14,1.14,1.34,4.70,4.66,4.67
1446,3.61,-1.10,3.59,-1.11,1.11,1.26,4.72,4.70,4.71
1461,3.67,-1.08,3.66,-1.08,1.08,1.19,4.75,4.74,4.75
1475,3.72,-1.07,3.73,-1.05,1.05,1.11,4.77,4.78,4.79
1490,3.78,-1.05,3.80,-1.02,1.02,1.04,4.80,4.82,4.83
1505,3.84,-1.03,3.87,-0.99,0.99,0.97,4.83,4.87,4.86
1520,3.92,-0.99,3.94,-0.96,0.96,0.90,4.88,4.90,4.91
1535,4.00,-0.95,4.01,-0.93,0.93,0.83,4.93,4.95,4.95
1550,4.09,-0.90,4.08,-0.90,0.90,0.76,4.99,4.99,4.99
1566,4.18,-0.86,4.16,-0.87,0.87,0.69,5.05,5.03,5.03
1582,4.25,-0.83,4.23,-0.84,0.84,0.63,5.09,5.07,5.08
1597,4.33,-0.79,4.31,-0.81,0.81,0.57,5.14,5.11,5.12
1613,4.39,-0.78,4.38,-0.78,0.78,0.50,5.17,5.16,5.17
1629,4.46,-0.76,4.46,-0.75,0.75,0.44,5.21,5.20,5.21
1646,4.54,-0.72,4.53,-0.72,0.72,0.38,5.25,5.25,5.26
1662,4.60,-0.71,4.61,-0.68,0.68,0.32,5.28,5.29,5.31
1679,4.68,-0.67,4.68,-0.65,0.65,0.26,5.33,5.33,5.35
1696,4.75,-0.65,4.76,-0.62,0.62,0.20,5.37,5.37,5.40
1713,4.83,-0.62,4.83,-0.58,0.58,0.15,5.41,5.42,5.45
1730,4.90,-0.60,4.92,-0.55,0.55,0.09,5.45,5.46,5.50
1747,4.99,-0.55,5.00,-0.51,0.51,0.04,5.50,5.51,5.54
1764,5.09,-0.50,5.09,-0.47,0.47,-0.00,5.56,5.56,5.59
1782,5.18,-0.46,5.18,-0.43,0.43,-0.05,5.61,5.61,5.64
1800,5.28,-0.41,5.28,-0.39,0.39,-0.10,5.67,5.67,5.69
1818,5.39,-0.36,5.37,-0.36,0.36,-0.14,5.74,5.73,5.75
1836,5.48,-0.32,5.48,-0.31,0.31,-0.18,5.79,5.79,5.80
1854,5.58,-0.28,5.58,-0.27,0.27,-0.22,5.85,5.85,5.86
1873,5.69,-0.24,5.69,-0.23,0.23,-0.26,5.92,5.92,5.93
1892,5.80,-0.19,5.80,-0.19,0.19,-0.29,5.99,5.98,5.99
1911,5.92,-0.14,5.91,-0.14,0.14,-0.32,6.06,6.05,6.06
1930,6.03,-0.10,6.03,-0.10,0.10,-0.35,6.12,6.12,6.13
1949,6.16,-0.05,6.15,-0.05,0.05,-0.38,6.21,6.20,6.21
1969,6.27,-0.02,6.28,0.00,-0.00,-0.40,6.27,6.28,6.29
1988,6.40,0.03,6.42,0.06,-0.06,-0.42,6.34,6.36,6.37
2008,6.53,0.07,6.55,0.11,-0.11,-0.44,6.42,6.45,6.46
2028,6.68,0.13,6.70,0.16,-0.16,-0.45,6.51,6.54,6.55
2048,6.84,0.20,6.85,0.22,-0.22,-0.46,6.62,6.63,6.64
