frequency,raw
20.00,5.01
20.20,5.06
20.40,5.11
20.61,5.17
20.81,5.21
21.02,5.25
21.23,5.29
21.44,5.33
21.66,5.37
21.87,5.41
22.09,5.45
22.31,5.49
22.54,5.53
22.76,5.57
22.99,5.61
23.22,5.65
23.45,5.69
23.69,5.73
23.92,5.77
24.16,5.81
24.40,5.85
24.65,5.89
24.89,5.92
25.14,5.95
25.39,5.98
25.65,6.02
25.91,6.05
26.16,6.08
26.43,6.12
26.69,6.15
26.96,6.18
27.23,6.21
27.50,6.24
27.77,6.27
28.05,6.31
28.33,6.34
28.62,6.38
28.90,6.42
29.19,6.45
29.48,6.49
29.78,6.51
30.08,6.53
30.38,6.54
30.68,6.56
30.99,6.57
31.30,6.59
31.61,6.62
31.93,6.64
32.24,6.67
32.57,6.69
32.89,6.71
33.22,6.73
33.55,6.74
33.89,6.76
34.23,6.78
34.57,6.80
34.92,6.82
35.27,6.83
35.62,6.84
35.97,6.85
36.33,6.87
36.70,6.89
37.06,6.91
37.43,6.93
37.81,6.94
38.19,6.96
38.57,6.96
38.95,6.97
39.34,6.98
39.74,7.00
40.14,7.02
40.54,7.03
40.94,7.03
41.35,7.03
41.76,7.02
42.18,7.03
42.60,7.04
43.03,7.05
43.46,7.05
43.90,7.05
44.33,7.05
44.78,7.05
45.23,7.06
45.68,7.06
46.13,7.06
46.60,7.06
47.06,7.06
47.53,7.06
48.01,7.06
48.49,7.05
48.97,7.05
49.46,7.05
49.96,7.06
50.46,7.05
50.96,7.05
51.47,7.04
51.99,7.03
52.51,7.02
53.03,7.01
53.56,7.01
54.10,7.00
54.64,6.98
55.18,6.96
55.74,6.95
56.29,6.94
56.86,6.93
57.42,6.92
58.00,6.92
58.58,6.91
59.16,6.89
59.76,6.85
60.35,6.84
60.96,6.85
61.57,6.87
62.18,6.88
62.80,6.87
63.43,6.85
64.07,6.84
64.71,6.81
65.35,6.80
66.01,6.79
66.67,6.77
67.33,6.76
68.01,6.74
68.69,6.72
69.37,6.70
70.07,6.68
70.77,6.65
71.48,6.63
72.19,6.61
72.91,6.59
73.64,6.55
74.38,6.52
75.12,6.50
75.87,6.48
76.63,6.46
77.40,6.44
78.17,6.41
78.95,6.37
79.74,6.34
80.54,6.31
81.35,6.28
82.16,6.26
82.98,6.23
83.81,6.20
84.65,6.17
85.50,6.14
86.35,6.11
87.22,6.09
88.09,6.06
88.97,6.02
89.86,5.99
90.76,5.95
91.66,5.92
92.58,5.88
93.51,5.86
94.44,5.82
95.39,5.79
96.34,5.75
97.30,5.71
98.28,5.68
99.26,5.65
100.25,5.61
101.25,5.58
102.27,5.54
103.29,5.50
104.32,5.46
105.37,5.42
106.42,5.38
107.48,5.34
108.56,5.30
109.64,5.26
110.74,5.22
111.85,5.18
112.97,5.13
114.10,5.10
115.24,5.07
116.39,5.02
117.55,4.98
118.73,4.96
119.92,4.94
121.12,4.87
122.33,4.78
123.55,4.76
124.79,4.72
126.03,4.67
127.29,4.63
128.57,4.59
129.85,4.54
131.15,4.50
132.46,4.45
133.79,4.41
135.12,4.36
136.48,4.32
137.84,4.27
139.22,4.23
140.61,4.19
142.02,4.14
143.44,4.09
144.87,4.04
146.32,3.99
147.78,3.95
149.26,3.91
150.75,3.86
152.26,3.80
153.78,3.76
155.32,3.73
156.88,3.68
158.44,3.64
160.03,3.60
161.63,3.56
163.24,3.51
164.88,3.46
166.53,3.43
168.19,3.39
169.87,3.33
171.57,3.29
173.29,3.24
175.02,3.19
176.77,3.14
178.54,3.11
180.32,3.07
182.13,3.01
183.95,2.96
185.79,2.91
187.65,2.86
189.52,2.81
191.42,2.77
193.33,2.72
195.27,2.67
197.22,2.63
199.19,2.59
201.18,2.54
203.19,2.50
205.23,2.45
207.28,2.41
209.35,2.38
211.44,2.34
213.56,2.30
215.69,2.26
217.85,2.22
220.03,2.18
222.23,2.15
224.45,2.11
226.70,2.08
228.96,2.03
231.25,1.98
233.57,1.93
235.90,1.89
238.26,1.87
240.64,1.83
243.05,1.77
245.48,1.73
247.93,1.69
250.41,1.66
252.92,1.61
255.45,1.57
258.00,1.53
260.58,1.49
263.19,1.45
265.82,1.41
268.48,1.37
271.16,1.33
273.87,1.29
276.61,1.25
279.38,1.21
282.17,1.17
284.99,1.14
287.84,1.10
290.72,1.06
293.63,1.02
296.57,0.99
299.53,0.95
302.53,0.92
305.55,0.88
308.61,0.85
311.69,0.81
314.81,0.78
317.96,0.74
321.14,0.71
324.35,0.68
327.59,0.64
330.87,0.61
334.18,0.58
337.52,0.55
340.90,0.52
344.30,0.49
347.75,0.45
351.23,0.42
354.74,0.39
358.28,0.37
361.87,0.34
365.49,0.31
369.14,0.28
372.83,0.25
376.56,0.22
380.33,0.19
384.13,0.17
387.97,0.14
391.85,0.11
395.77,0.09
399.73,0.06
403.72,0.04
407.76,0.01
411.84,-0.01
415.96,-0.04
420.12,-0.06
424.32,-0.08
428.56,-0.10
432.85,-0.13
437.18,-0.14
441.55,-0.16
445.96,-0.19
450.42,-0.21
454.93,-0.22
459.48,-0.25
464.07,-0.26
468.71,-0.28
473.40,-0.30
478.13,-0.32
482.91,-0.33
487.74,-0.35
492.62,-0.37
497.55,-0.38
502.52,-0.40
507.55,-0.42
512.62,-0.43
517.75,-0.44
522.93,-0.46
528.16,-0.47
533.44,-0.48
538.77,-0.49
544.16,-0.51
549.60,-0.52
555.10,-0.53
560.65,-0.54
566.25,-0.55
571.92,-0.56
577.64,-0.57
583.41,-0.58
589.25,-0.58
595.14,-0.59
601.09,-0.60
607.10,-0.61
613.17,-0.61
619.30,-0.62
625.50,-0.62
631.75,-0.63
638.07,-0.63
644.45,-0.63
650.89,-0.63
657.40,-0.64
663.98,-0.65
670.62,-0.67
677.32,-0.67
684.10,-0.67
690.94,-0.66
697.85,-0.66
704.83,-0.64
711.87,-0.64
718.99,-0.65
726.18,-0.66
733.44,-0.67
740.78,-0.66
748.19,-0.66
755.67,-0.66
763.23,-0.66
770.86,-0.65
778.57,-0.64
786.35,-0.64
794.22,-0.63
802.16,-0.62
810.18,-0.61
818.28,-0.61
826.46,-0.60
834.73,-0.59
843.08,-0.58
851.51,-0.58
860.02,-0.56
868.62,-0.54
877.31,-0.52
886.08,-0.50
894.94,-0.48
903.89,-0.45
912.93,-0.41
922.06,-0.37
931.28,-0.34
940.59,-0.30
950.00,-0.26
959.50,-0.21
969.09,-0.17
978.78,-0.12
988.57,-0.06
998.46,-0.01
1008.44,0.05
1018.53,0.11
1028.71,0.17
1039.00,0.24
1049.39,0.31
1059.88,0.38
1070.48,0.45
1081.19,0.52
1092.00,0.60
1102.92,0.68
1113.95,0.75
1125.09,0.83
1136.34,0.91
1147.70,1.00
1159.18,1.08
1170.77,1.16
1182.48,1.23
1194.30,1.31
1206.25,1.39
1218.31,1.47
1230.49,1.54
1242.80,1.62
1255.22,1.69
1267.78,1.76
1280.45,1.83
1293.26,1.89
1306.19,1.96
1319.25,2.02
1332.45,2.08
1345.77,2.14
1359.23,2.19
1372.82,2.23
1386.55,2.28
1400.41,2.34
1414.42,2.39
1428.56,2.44
1442.85,2.48
1457.28,2.53
1471.85,2.57
1486.57,2.61
1501.43,2.65
1516.45,2.69
1531.61,2.73
1546.93,2.77
1562.40,2.81
1578.02,2.85
1593.80,2.89
1609.74,2.94
1625.84,2.98
1642.10,3.02
1658.52,3.07
1675.10,3.11
1691.85,3.16
1708.77,3.21
1725.86,3.26
1743.12,3.31
1760.55,3.37
1778.15,3.42
1795.94,3.48
1813.90,3.55
1832.03,3.61
1850.36,3.68
1868.86,3.75
1887.55,3.82
1906.42,3.88
1925.49,3.95
1944.74,4.01
1964.19,4.07
1983.83,4.13
2003.67,4.19
2023.71,4.25
2043.94,4.31
2064.38,4.37
2085.03,4.42
2105.88,4.47
2126.94,4.51
2148.20,4.55
2169.69,4.59
2191.38,4.62
2213.30,4.65
2235.43,4.67
2257.78,4.69
2280.36,4.70
2303.17,4.71
2326.20,4.71
2349.46,4.70
2372.95,4.70
2396.68,4.69
2420.65,4.67
2444.86,4.65
2469.31,4.63
2494.00,4.60
2518.94,4.57
2544.13,4.54
2569.57,4.51
2595.27,4.47
2621.22,4.44
2647.43,4.40
2673.90,4.36
2700.64,4.32
2727.65,4.29
2754.93,4.25
2782.48,4.22
2810.30,4.18
2838.40,4.16
2866.79,4.13
2895.46,4.11
2924.41,4.09
2953.65,4.07
2983.19,4.06
3013.02,4.04
3043.15,4.03
3073.58,4.03
3104.32,4.04
3135.36,4.05
3166.72,4.07
3198.38,4.09
3230.37,4.11
3262.67,4.13
3295.30,4.15
3328.25,4.18
3361.53,4.20
3395.15,4.23
3429.10,4.26
3463.39,4.30
3498.03,4.35
3533.01,4.40
3568.34,4.47
3604.02,4.54
3640.06,4.62
3676.46,4.70
3713.22,4.79
3750.36,4.88
3787.86,4.99
3825.74,5.10
3864.00,5.23
3902.64,5.38
3941.66,5.53
3981.08,5.70
4020.89,5.87
4061.10,6.04
4101.71,6.22
4142.73,6.39
4184.15,6.55
4226.00,6.69
4268.26,6.84
4310.94,6.97
4354.05,7.09
4397.59,7.21
4441.56,7.33
4485.98,7.44
4530.84,7.55
4576.15,7.67
4621.91,7.78
4668.13,7.90
4714.81,8.02
4761.96,8.15
4809.58,8.29
4857.67,8.42
4906.25,8.56
4955.31,8.69
5004.87,8.80
5054.91,8.85
5105.46,8.83
5156.52,8.72
5208.08,8.48
5260.16,8.11
5312.77,7.70
5365.89,7.23
5419.55,6.80
5473.75,6.40
5528.49,6.07
5583.77,5.81
5639.61,5.62
5696.00,5.46
5752.96,5.37
5810.49,5.30
5868.60,5.27
5927.28,5.26
5986.56,5.28
6046.42,5.32
6106.89,5.37
6167.96,5.46
6229.64,5.55
6291.93,5.67
6354.85,5.79
6418.40,5.91
6482.58,6.02
6547.41,6.09
6612.88,6.12
6679.01,6.10
6745.80,6.04
6813.26,5.96
6881.39,5.86
6950.21,5.77
7019.71,5.69
7089.91,5.63
7160.81,5.53
7232.41,5.38
7304.74,5.15
7377.79,4.89
7451.56,4.64
7526.08,4.41
7601.34,4.17
7677.35,3.93
7754.13,3.70
7831.67,3.50
7909.98,3.31
7989.08,3.14
8068.98,2.97
8149.67,2.81
8231.16,2.66
8313.47,2.50
8396.61,2.33
8480.57,2.15
8565.38,1.96
8651.03,1.77
8737.54,1.58
8824.92,1.39
8913.17,1.20
9002.30,1.02
9092.32,0.86
9183.25,0.70
9275.08,0.55
9367.83,0.41
9461.51,0.25
9556.12,0.04
9651.68,-0.21
9748.20,-0.52
9845.68,-0.91
9944.14,-1.32
10043.58,-1.77
10144.02,-2.25
10245.46,-2.75
10347.91,-3.26
10451.39,-3.80
10555.91,-4.34
10661.46,-4.87
10768.08,-5.38
10875.76,-5.88
10984.52,-6.35
11094.36,-6.80
11205.31,-7.22
11317.36,-7.60
11430.53,-7.96
11544.84,-8.29
11660.29,-8.60
11776.89,-8.89
11894.66,-9.09
12013.60,-9.28
12133.74,-9.39
12255.08,-9.41
12377.63,-9.41
12501.41,-9.35
12626.42,-9.18
12752.68,-8.97
12880.21,-8.67
13009.01,-8.33
13139.10,-7.98
13270.49,-7.45
13403.20,-6.87
13537.23,-6.17
13672.60,-5.42
13809.33,-4.61
13947.42,-3.71
14086.90,-2.69
14227.77,-1.60
14370.04,-0.39
14513.74,0.92
14658.88,2.12
14805.47,3.05
14953.52,3.53
15103.06,3.34
15254.09,2.84
15406.63,1.78
15560.70,0.68
15716.30,-0.46
15873.47,-1.56
16032.20,-2.56
16192.52,-3.25
16354.45,-3.63
16517.99,-3.81
16683.17,-3.70
16850.01,-3.49
17018.51,-3.22
17188.69,-3.06
17360.58,-3.43
17534.18,-4.41
17709.53,-6.69
17886.62,-9.75
18065.49,-13.00
18246.14,-16.16
18428.60,-18.79
18612.89,-20.94
18799.02,-22.65
18987.01,-23.95
19176.88,-24.84
19368.65,-24.51
19562.33,-23.55
19757.96,-22.83
19955.54,-22.10
