frequency,raw
20.00,11.57
20.20,11.56
20.40,11.54
20.61,11.53
20.81,11.51
21.02,11.49
21.23,11.47
21.44,11.47
21.66,11.47
21.87,11.47
22.09,11.48
22.31,11.49
22.54,11.49
22.76,11.49
22.99,11.49
23.22,11.48
23.45,11.46
23.69,11.44
23.92,11.42
24.16,11.40
24.40,11.38
24.65,11.35
24.89,11.33
25.14,11.31
25.39,11.28
25.65,11.26
25.91,11.25
26.16,11.23
26.43,11.22
26.69,11.20
26.96,11.19
27.23,11.18
27.50,11.16
27.77,11.14
28.05,11.12
28.33,11.10
28.62,11.07
28.90,11.05
29.19,11.02
29.48,10.99
29.78,10.96
30.08,10.94
30.38,10.92
30.68,10.89
30.99,10.88
31.30,10.86
31.61,10.84
31.93,10.81
32.24,10.78
32.57,10.75
32.89,10.72
33.22,10.69
33.55,10.66
33.89,10.63
34.23,10.61
34.57,10.58
34.92,10.55
35.27,10.52
35.62,10.49
35.97,10.46
36.33,10.43
36.70,10.40
37.06,10.36
37.43,10.33
37.81,10.30
38.19,10.26
38.57,10.23
38.95,10.20
39.34,10.16
39.74,10.13
40.14,10.09
40.54,10.06
40.94,10.02
41.35,9.99
41.76,9.95
42.18,9.92
42.60,9.88
43.03,9.84
43.46,9.81
43.90,9.77
44.33,9.73
44.78,9.69
45.23,9.65
45.68,9.61
46.13,9.57
46.60,9.54
47.06,9.50
47.53,9.46
48.01,9.41
48.49,9.37
48.97,9.33
49.46,9.29
49.96,9.25
50.46,9.21
50.96,9.16
51.47,9.12
51.99,9.08
52.51,9.04
53.03,8.99
53.56,8.95
54.10,8.90
54.64,8.86
55.18,8.81
55.74,8.77
56.29,8.73
56.86,8.68
57.42,8.63
58.00,8.58
58.58,8.54
59.16,8.49
59.76,8.44
60.35,8.39
60.96,8.35
61.57,8.30
62.18,8.25
62.80,8.20
63.43,8.16
64.07,8.11
64.71,8.07
65.35,8.02
66.01,7.97
66.67,7.92
67.33,7.87
68.01,7.82
68.69,7.78
69.37,7.73
70.07,7.68
70.77,7.63
71.48,7.58
72.19,7.53
72.91,7.47
73.64,7.43
74.38,7.38
75.12,7.33
75.87,7.27
76.63,7.22
77.40,7.17
78.17,7.12
78.95,7.06
79.74,7.01
80.54,6.96
81.35,6.91
82.16,6.86
82.98,6.81
83.81,6.75
84.65,6.69
85.50,6.64
86.35,6.59
87.22,6.54
88.09,6.49
88.97,6.43
89.86,6.38
90.76,6.32
91.66,6.27
92.58,6.22
93.51,6.16
94.44,6.11
95.39,6.05
96.34,6.00
97.30,5.95
98.28,5.89
99.26,5.84
100.25,5.78
101.25,5.73
102.27,5.67
103.29,5.62
104.32,5.57
105.37,5.51
106.42,5.46
107.48,5.40
108.56,5.35
109.64,5.29
110.74,5.24
111.85,5.19
112.97,5.13
114.10,5.08
115.24,5.02
116.39,4.97
117.55,4.91
118.73,4.86
119.92,4.80
121.12,4.75
122.33,4.70
123.55,4.64
124.79,4.58
126.03,4.53
127.29,4.48
128.57,4.42
129.85,4.37
131.15,4.31
132.46,4.26
133.79,4.21
135.12,4.15
136.48,4.10
137.84,4.05
139.22,4.00
140.61,3.95
142.02,3.89
143.44,3.84
144.87,3.79
146.32,3.74
147.78,3.69
149.26,3.64
150.75,3.59
152.26,3.54
153.78,3.49
155.32,3.43
156.88,3.38
158.44,3.32
160.03,3.27
161.63,3.22
163.24,3.17
164.88,3.11
166.53,3.06
168.19,3.01
169.87,2.96
171.57,2.91
173.29,2.85
175.02,2.80
176.77,2.75
178.54,2.69
180.32,2.64
182.13,2.59
183.95,2.54
185.79,2.49
187.65,2.44
189.52,2.39
191.42,2.34
193.33,2.30
195.27,2.27
197.22,2.23
199.19,2.21
201.18,2.18
203.19,2.15
205.23,2.12
207.28,2.08
209.35,2.05
211.44,2.00
213.56,1.96
215.69,1.92
217.85,1.88
220.03,1.84
222.23,1.80
224.45,1.75
226.70,1.71
228.96,1.67
231.25,1.62
233.57,1.58
235.90,1.54
238.26,1.49
240.64,1.45
243.05,1.41
245.48,1.37
247.93,1.33
250.41,1.30
252.92,1.26
255.45,1.23
258.00,1.20
260.58,1.17
263.19,1.14
265.82,1.11
268.48,1.08
271.16,1.05
273.87,1.02
276.61,0.99
279.38,0.95
282.17,0.92
284.99,0.89
287.84,0.85
290.72,0.82
293.63,0.79
296.57,0.75
299.53,0.72
302.53,0.68
305.55,0.65
308.61,0.62
311.69,0.58
314.81,0.55
317.96,0.52
321.14,0.48
324.35,0.45
327.59,0.42
330.87,0.39
334.18,0.37
337.52,0.34
340.90,0.32
344.30,0.30
347.75,0.28
351.23,0.26
354.74,0.23
358.28,0.21
361.87,0.18
365.49,0.16
369.14,0.13
372.83,0.10
376.56,0.08
380.33,0.05
384.13,0.03
387.97,-0.00
391.85,-0.03
395.77,-0.05
399.73,-0.07
403.72,-0.10
407.76,-0.12
411.84,-0.15
415.96,-0.17
420.12,-0.19
424.32,-0.21
428.56,-0.23
432.85,-0.25
437.18,-0.27
441.55,-0.29
445.96,-0.31
450.42,-0.33
454.93,-0.35
459.48,-0.37
464.07,-0.39
468.71,-0.41
473.40,-0.42
478.13,-0.44
482.91,-0.46
487.74,-0.48
492.62,-0.50
497.55,-0.51
502.52,-0.52
507.55,-0.54
512.62,-0.56
517.75,-0.57
522.93,-0.59
528.16,-0.60
533.44,-0.62
538.77,-0.63
544.16,-0.64
549.60,-0.66
555.10,-0.67
560.65,-0.68
566.25,-0.69
571.92,-0.71
577.64,-0.72
583.41,-0.73
589.25,-0.74
595.14,-0.75
601.09,-0.76
607.10,-0.77
613.17,-0.78
619.30,-0.79
625.50,-0.80
631.75,-0.80
638.07,-0.81
644.45,-0.82
650.89,-0.83
657.40,-0.83
663.98,-0.84
670.62,-0.85
677.32,-0.85
684.10,-0.85
690.94,-0.85
697.85,-0.86
704.83,-0.86
711.87,-0.86
718.99,-0.86
726.18,-0.86
733.44,-0.85
740.78,-0.85
748.19,-0.84
755.67,-0.84
763.23,-0.83
770.86,-0.82
778.57,-0.82
786.35,-0.81
794.22,-0.79
802.16,-0.78
810.18,-0.77
818.28,-0.75
826.46,-0.73
834.73,-0.71
843.08,-0.69
851.51,-0.67
860.02,-0.65
868.62,-0.62
877.31,-0.59
886.08,-0.56
894.94,-0.52
903.89,-0.49
912.93,-0.46
922.06,-0.42
931.28,-0.38
940.59,-0.33
950.00,-0.29
959.50,-0.23
969.09,-0.18
978.78,-0.13
988.57,-0.07
998.46,-0.01
1008.44,0.05
1018.53,0.12
1028.71,0.19
1039.00,0.26
1049.39,0.33
1059.88,0.40
1070.48,0.48
1081.19,0.56
1092.00,0.64
1102.92,0.72
1113.95,0.80
1125.09,0.89
1136.34,0.97
1147.70,1.05
1159.18,1.14
1170.77,1.22
1182.48,1.31
1194.30,1.39
1206.25,1.47
1218.31,1.55
1230.49,1.63
1242.80,1.71
1255.22,1.79
1267.78,1.87
1280.45,1.95
1293.26,2.02
1306.19,2.09
1319.25,2.17
1332.45,2.24
1345.77,2.31
1359.23,2.38
1372.82,2.44
1386.55,2.51
1400.41,2.58
1414.42,2.64
1428.56,2.70
1442.85,2.77
1457.28,2.83
1471.85,2.89
1486.57,2.95
1501.43,3.02
1516.45,3.08
1531.61,3.14
1546.93,3.20
1562.40,3.26
1578.02,3.33
1593.80,3.39
1609.74,3.45
1625.84,3.51
1642.10,3.58
1658.52,3.64
1675.10,3.70
1691.85,3.77
1708.77,3.83
1725.86,3.90
1743.12,3.96
1760.55,4.03
1778.15,4.10
1795.94,4.17
1813.90,4.23
1832.03,4.30
1850.36,4.37
1868.86,4.44
1887.55,4.51
1906.42,4.58
1925.49,4.65
1944.74,4.72
1964.19,4.79
1983.83,4.86
2003.67,4.93
2023.71,5.00
2043.94,5.08
2064.38,5.15
2085.03,5.22
2105.88,5.29
2126.94,5.36
2148.20,5.43
2169.69,5.50
2191.38,5.57
2213.30,5.63
2235.43,5.70
2257.78,5.76
2280.36,5.82
2303.17,5.88
2326.20,5.94
2349.46,6.00
2372.95,6.05
2396.68,6.10
2420.65,6.15
2444.86,6.20
2469.31,6.25
2494.00,6.29
2518.94,6.33
2544.13,6.37
2569.57,6.41
2595.27,6.45
2621.22,6.48
2647.43,6.51
2673.90,6.54
2700.64,6.57
2727.65,6.60
2754.93,6.63
2782.48,6.65
2810.30,6.67
2838.40,6.69
2866.79,6.71
2895.46,6.73
2924.41,6.75
2953.65,6.77
2983.19,6.78
3013.02,6.80
3043.15,6.81
3073.58,6.82
3104.32,6.83
3135.36,6.84
3166.72,6.84
3198.38,6.85
3230.37,6.85
3262.67,6.85
3295.30,6.85
3328.25,6.84
3361.53,6.83
3395.15,6.81
3429.10,6.80
3463.39,6.79
3498.03,6.77
3533.01,6.76
3568.34,6.75
3604.02,6.75
3640.06,6.75
3676.46,6.75
3713.22,6.74
3750.36,6.73
3787.86,6.70
3825.74,6.67
3864.00,6.63
3902.64,6.58
3941.66,6.53
3981.08,6.46
4020.89,6.39
4061.10,6.32
4101.71,6.24
4142.73,6.15
4184.15,6.06
4226.00,5.96
4268.26,5.87
4310.94,5.76
4354.05,5.66
4397.59,5.55
4441.56,5.44
4485.98,5.34
4530.84,5.23
4576.15,5.12
4621.91,5.01
4668.13,4.90
4714.81,4.78
4761.96,4.66
4809.58,4.54
4857.67,4.40
4906.25,4.27
4955.31,4.13
5004.87,4.01
5054.91,3.88
5105.46,3.76
5156.52,3.64
5208.08,3.54
5260.16,3.43
5312.77,3.33
5365.89,3.24
5419.55,3.15
5473.75,3.06
5528.49,2.97
5583.77,2.89
5639.61,2.81
5696.00,2.73
5752.96,2.65
5810.49,2.58
5868.60,2.51
5927.28,2.44
5986.56,2.38
6046.42,2.33
6106.89,2.28
6167.96,2.25
6229.64,2.23
6291.93,2.21
6354.85,2.22
6418.40,2.23
6482.58,2.27
6547.41,2.32
6612.88,2.39
6679.01,2.48
6745.80,2.60
6813.26,2.73
6881.39,2.89
6950.21,3.08
7019.71,3.29
7089.91,3.53
7160.81,3.81
7232.41,4.12
7304.74,4.45
7377.79,4.83
7451.56,5.22
7526.08,5.63
7601.34,6.06
7677.35,6.48
7754.13,6.89
7831.67,7.22
7909.98,7.49
7989.08,7.64
8068.98,7.59
8149.67,7.41
8231.16,7.07
8313.47,6.58
8396.61,6.03
8480.57,5.40
8565.38,4.73
8651.03,4.04
8737.54,3.34
8824.92,2.64
8913.17,1.97
9002.30,1.30
9092.32,0.66
9183.25,0.06
9275.08,-0.51
9367.83,-1.05
9461.51,-1.53
9556.12,-1.99
9651.68,-2.40
9748.20,-2.77
9845.68,-3.06
9944.14,-3.32
10043.58,-3.53
10144.02,-3.71
10245.46,-3.85
10347.91,-3.97
10451.39,-4.05
10555.91,-4.10
10661.46,-4.10
10768.08,-4.06
10875.76,-3.92
10984.52,-3.69
11094.36,-3.40
11205.31,-3.03
11317.36,-2.65
11430.53,-2.28
11544.84,-1.95
11660.29,-1.68
11776.89,-1.44
11894.66,-1.32
12013.60,-1.21
12133.74,-1.17
12255.08,-1.22
12377.63,-1.32
12501.41,-1.48
12626.42,-1.72
12752.68,-2.01
12880.21,-2.36
13009.01,-2.73
13139.10,-3.10
13270.49,-3.53
13403.20,-3.98
13537.23,-4.45
13672.60,-4.93
13809.33,-5.42
13947.42,-5.89
14086.90,-6.32
14227.77,-6.73
14370.04,-7.08
14513.74,-7.36
14658.88,-7.56
14805.47,-7.70
14953.52,-7.75
15103.06,-7.78
15254.09,-7.80
15406.63,-7.72
15560.70,-7.68
15716.30,-7.69
15873.47,-7.91
16032.20,-8.26
16192.52,-8.89
16354.45,-9.69
16517.99,-10.60
16683.17,-11.56
16850.01,-12.56
17018.51,-13.60
17188.69,-14.61
17360.58,-15.58
17534.18,-16.51
17709.53,-17.36
17886.62,-17.99
18065.49,-18.48
18246.14,-18.87
18428.60,-19.10
18612.89,-19.30
18799.02,-19.50
18987.01,-19.75
19176.88,-20.24
19368.65,-20.93
19562.33,-21.89
19757.96,-23.20
19955.54,-24.51
