frequency,raw
20.00,4.75
20.20,4.77
20.40,4.79
20.61,4.81
20.81,4.86
21.02,4.91
21.23,4.97
21.44,5.02
21.66,5.08
21.87,5.14
22.09,5.20
22.31,5.26
22.54,5.32
22.76,5.38
22.99,5.43
23.22,5.48
23.45,5.53
23.69,5.58
23.92,5.63
24.16,5.67
24.40,5.72
24.65,5.77
24.89,5.82
25.14,5.86
25.39,5.91
25.65,5.95
25.91,5.99
26.16,6.03
26.43,6.07
26.69,6.11
26.96,6.16
27.23,6.21
27.50,6.27
27.77,6.33
28.05,6.40
28.33,6.47
28.62,6.53
28.90,6.58
29.19,6.62
29.48,6.66
29.78,6.67
30.08,6.68
30.38,6.68
30.68,6.68
30.99,6.69
31.30,6.72
31.61,6.76
31.93,6.80
32.24,6.85
32.57,6.89
32.89,6.92
33.22,6.93
33.55,6.94
33.89,6.92
34.23,6.91
34.57,6.91
34.92,6.91
35.27,6.93
35.62,6.96
35.97,7.01
36.33,7.05
36.70,7.10
37.06,7.14
37.43,7.17
37.81,7.19
38.19,7.20
38.57,7.21
38.95,7.22
39.34,7.23
39.74,7.24
40.14,7.25
40.54,7.26
40.94,7.27
41.35,7.28
41.76,7.29
42.18,7.29
42.60,7.30
43.03,7.30
43.46,7.30
43.90,7.30
44.33,7.31
44.78,7.31
45.23,7.31
45.68,7.31
46.13,7.30
46.60,7.29
47.06,7.28
47.53,7.27
48.01,7.26
48.49,7.26
48.97,7.26
49.46,7.26
49.96,7.27
50.46,7.27
50.96,7.28
51.47,7.28
51.99,7.27
52.51,7.26
53.03,7.23
53.56,7.21
54.10,7.19
54.64,7.17
55.18,7.16
55.74,7.15
56.29,7.13
56.86,7.12
57.42,7.10
58.00,7.08
58.58,7.06
59.16,7.05
59.76,7.02
60.35,7.00
60.96,6.96
61.57,6.92
62.18,6.88
62.80,6.85
63.43,6.83
64.07,6.80
64.71,6.77
65.35,6.74
66.01,6.71
66.67,6.67
67.33,6.64
68.01,6.61
68.69,6.57
69.37,6.54
70.07,6.51
70.77,6.48
71.48,6.45
72.19,6.42
72.91,6.38
73.64,6.35
74.38,6.31
75.12,6.27
75.87,6.23
76.63,6.19
77.40,6.15
78.17,6.11
78.95,6.08
79.74,6.04
80.54,6.00
81.35,5.97
82.16,5.93
82.98,5.89
83.81,5.85
84.65,5.81
85.50,5.77
86.35,5.73
87.22,5.68
88.09,5.64
88.97,5.60
89.86,5.56
90.76,5.52
91.66,5.48
92.58,5.44
93.51,5.40
94.44,5.35
95.39,5.31
96.34,5.27
97.30,5.22
98.28,5.18
99.26,5.14
100.25,5.09
101.25,5.05
102.27,5.00
103.29,4.96
104.32,4.91
105.37,4.87
106.42,4.82
107.48,4.78
108.56,4.73
109.64,4.68
110.74,4.63
111.85,4.58
112.97,4.53
114.10,4.48
115.24,4.43
116.39,4.38
117.55,4.33
118.73,4.28
119.92,4.24
121.12,4.19
122.33,4.15
123.55,4.11
124.79,4.08
126.03,4.05
127.29,4.03
128.57,4.01
129.85,3.98
131.15,3.96
132.46,3.94
133.79,3.92
135.12,3.90
136.48,3.89
137.84,3.87
139.22,3.85
140.61,3.83
142.02,3.81
143.44,3.78
144.87,3.76
146.32,3.73
147.78,3.69
149.26,3.65
150.75,3.59
152.26,3.52
153.78,3.43
155.32,3.32
156.88,3.18
158.44,3.01
160.03,2.82
161.63,2.61
163.24,2.42
164.88,2.24
166.53,2.17
168.19,2.15
169.87,2.20
171.57,2.32
173.29,2.45
175.02,2.60
176.77,2.73
178.54,2.85
180.32,2.96
182.13,3.04
183.95,3.12
185.79,3.18
187.65,3.24
189.52,3.28
191.42,3.32
193.33,3.35
195.27,3.38
197.22,3.41
199.19,3.43
201.18,3.45
203.19,3.47
205.23,3.49
207.28,3.51
209.35,3.53
211.44,3.56
213.56,3.58
215.69,3.60
217.85,3.62
220.03,3.64
222.23,3.66
224.45,3.67
226.70,3.69
228.96,3.70
231.25,3.72
233.57,3.73
235.90,3.74
238.26,3.75
240.64,3.76
243.05,3.77
245.48,3.78
247.93,3.78
250.41,3.79
252.92,3.79
255.45,3.80
258.00,3.80
260.58,3.80
263.19,3.80
265.82,3.79
268.48,3.79
271.16,3.78
273.87,3.77
276.61,3.76
279.38,3.75
282.17,3.74
284.99,3.73
287.84,3.71
290.72,3.69
293.63,3.67
296.57,3.65
299.53,3.63
302.53,3.60
305.55,3.58
308.61,3.55
311.69,3.53
314.81,3.50
317.96,3.47
321.14,3.43
324.35,3.40
327.59,3.36
330.87,3.33
334.18,3.29
337.52,3.25
340.90,3.21
344.30,3.17
347.75,3.13
351.23,3.08
354.74,3.04
358.28,2.99
361.87,2.95
365.49,2.90
369.14,2.85
372.83,2.80
376.56,2.75
380.33,2.70
384.13,2.65
387.97,2.59
391.85,2.54
395.77,2.49
399.73,2.44
403.72,2.38
407.76,2.33
411.84,2.27
415.96,2.22
420.12,2.17
424.32,2.11
428.56,2.06
432.85,2.01
437.18,1.96
441.55,1.90
445.96,1.85
450.42,1.80
454.93,1.75
459.48,1.70
464.07,1.65
468.71,1.60
473.40,1.55
478.13,1.51
482.91,1.46
487.74,1.41
492.62,1.36
497.55,1.32
502.52,1.27
507.55,1.23
512.62,1.19
517.75,1.14
522.93,1.10
528.16,1.06
533.44,1.02
538.77,0.98
544.16,0.94
549.60,0.90
555.10,0.86
560.65,0.82
566.25,0.78
571.92,0.74
577.64,0.70
583.41,0.66
589.25,0.62
595.14,0.58
601.09,0.54
607.10,0.50
613.17,0.45
619.30,0.41
625.50,0.37
631.75,0.32
638.07,0.28
644.45,0.23
650.89,0.18
657.40,0.14
663.98,0.09
670.62,0.04
677.32,-0.01
684.10,-0.06
690.94,-0.11
697.85,-0.16
704.83,-0.21
711.87,-0.27
718.99,-0.32
726.18,-0.37
733.44,-0.41
740.78,-0.46
748.19,-0.51
755.67,-0.55
763.23,-0.60
770.86,-0.64
778.57,-0.67
786.35,-0.71
794.22,-0.73
802.16,-0.76
810.18,-0.78
818.28,-0.80
826.46,-0.81
834.73,-0.82
843.08,-0.82
851.51,-0.82
860.02,-0.81
868.62,-0.79
877.31,-0.77
886.08,-0.74
894.94,-0.71
903.89,-0.67
912.93,-0.63
922.06,-0.58
931.28,-0.53
940.59,-0.47
950.00,-0.41
959.50,-0.34
969.09,-0.26
978.78,-0.18
988.57,-0.10
998.46,-0.01
1008.44,0.08
1018.53,0.17
1028.71,0.27
1039.00,0.37
1049.39,0.47
1059.88,0.57
1070.48,0.68
1081.19,0.79
1092.00,0.90
1102.92,1.01
1113.95,1.12
1125.09,1.24
1136.34,1.36
1147.70,1.48
1159.18,1.61
1170.77,1.74
1182.48,1.88
1194.30,2.02
1206.25,2.17
1218.31,2.31
1230.49,2.44
1242.80,2.58
1255.22,2.71
1267.78,2.83
1280.45,2.95
1293.26,3.06
1306.19,3.18
1319.25,3.29
1332.45,3.40
1345.77,3.51
1359.23,3.61
1372.82,3.72
1386.55,3.84
1400.41,3.95
1414.42,4.06
1428.56,4.18
1442.85,4.30
1457.28,4.41
1471.85,4.53
1486.57,4.64
1501.43,4.74
1516.45,4.84
1531.61,4.94
1546.93,5.04
1562.40,5.13
1578.02,5.23
1593.80,5.32
1609.74,5.42
1625.84,5.52
1642.10,5.64
1658.52,5.77
1675.10,5.92
1691.85,6.08
1708.77,6.26
1725.86,6.44
1743.12,6.63
1760.55,6.84
1778.15,7.04
1795.94,7.26
1813.90,7.48
1832.03,7.71
1850.36,7.94
1868.86,8.18
1887.55,8.41
1906.42,8.64
1925.49,8.86
1944.74,9.07
1964.19,9.26
1983.83,9.44
2003.67,9.61
2023.71,9.76
2043.94,9.91
2064.38,10.05
2085.03,10.19
2105.88,10.34
2126.94,10.48
2148.20,10.62
2169.69,10.75
2191.38,10.89
2213.30,11.00
2235.43,11.12
2257.78,11.22
2280.36,11.31
2303.17,11.40
2326.20,11.48
2349.46,11.55
2372.95,11.61
2396.68,11.66
2420.65,11.70
2444.86,11.73
2469.31,11.75
2494.00,11.75
2518.94,11.74
2544.13,11.72
2569.57,11.68
2595.27,11.63
2621.22,11.57
2647.43,11.49
2673.90,11.40
2700.64,11.31
2727.65,11.19
2754.93,11.07
2782.48,10.94
2810.30,10.79
2838.40,10.65
2866.79,10.50
2895.46,10.36
2924.41,10.22
2953.65,10.08
2983.19,9.95
3013.02,9.82
3043.15,9.69
3073.58,9.56
3104.32,9.43
3135.36,9.29
3166.72,9.16
3198.38,9.03
3230.37,8.90
3262.67,8.78
3295.30,8.66
3328.25,8.54
3361.53,8.43
3395.15,8.33
3429.10,8.22
3463.39,8.11
3498.03,8.01
3533.01,7.91
3568.34,7.81
3604.02,7.71
3640.06,7.61
3676.46,7.52
3713.22,7.43
3750.36,7.34
3787.86,7.24
3825.74,7.15
3864.00,7.06
3902.64,6.97
3941.66,6.88
3981.08,6.79
4020.89,6.70
4061.10,6.61
4101.71,6.53
4142.73,6.45
4184.15,6.37
4226.00,6.30
4268.26,6.23
4310.94,6.16
4354.05,6.09
4397.59,6.03
4441.56,5.97
4485.98,5.92
4530.84,5.87
4576.15,5.82
4621.91,5.79
4668.13,5.77
4714.81,5.78
4761.96,5.80
4809.58,5.84
4857.67,5.88
4906.25,5.94
4955.31,5.99
5004.87,6.05
5054.91,6.12
5105.46,6.19
5156.52,6.28
5208.08,6.38
5260.16,6.49
5312.77,6.62
5365.89,6.75
5419.55,6.90
5473.75,7.06
5528.49,7.22
5583.77,7.39
5639.61,7.57
5696.00,7.75
5752.96,7.92
5810.49,8.08
5868.60,8.22
5927.28,8.33
5986.56,8.41
6046.42,8.44
6106.89,8.42
6167.96,8.36
6229.64,8.26
6291.93,8.11
6354.85,7.94
6418.40,7.76
6482.58,7.57
6547.41,7.39
6612.88,7.22
6679.01,7.07
6745.80,6.95
6813.26,6.84
6881.39,6.75
6950.21,6.68
7019.71,6.62
7089.91,6.58
7160.81,6.56
7232.41,6.57
7304.74,6.59
7377.79,6.63
7451.56,6.70
7526.08,6.77
7601.34,6.86
7677.35,6.94
7754.13,7.02
7831.67,7.06
7909.98,7.08
7989.08,7.05
8068.98,6.93
8149.67,6.75
8231.16,6.49
8313.47,6.13
8396.61,5.72
8480.57,5.21
8565.38,4.64
8651.03,4.02
8737.54,3.37
8824.92,2.70
8913.17,2.03
9002.30,1.35
9092.32,0.70
9183.25,0.07
9275.08,-0.54
9367.83,-1.12
9461.51,-1.66
9556.12,-2.17
9651.68,-2.66
9748.20,-3.12
9845.68,-3.55
9944.14,-3.95
10043.58,-4.32
10144.02,-4.66
10245.46,-4.97
10347.91,-5.26
10451.39,-5.53
10555.91,-5.76
10661.46,-5.97
10768.08,-6.14
10875.76,-6.27
10984.52,-6.34
11094.36,-6.38
11205.31,-6.36
11317.36,-6.26
11430.53,-6.14
11544.84,-5.96
11660.29,-5.75
11776.89,-5.53
11894.66,-5.25
12013.60,-4.96
12133.74,-4.64
12255.08,-4.28
12377.63,-3.88
12501.41,-3.43
12626.42,-2.88
12752.68,-2.20
12880.21,-1.29
13009.01,-0.27
13139.10,0.76
13270.49,2.00
13403.20,3.28
13537.23,4.41
13672.60,5.30
13809.33,5.95
13947.42,6.01
14086.90,5.59
14227.77,4.87
14370.04,3.89
14513.74,2.63
14658.88,1.24
14805.47,-0.11
14953.52,-1.39
15103.06,-2.49
15254.09,-3.49
15406.63,-4.20
15560.70,-4.81
15716.30,-5.27
15873.47,-5.58
16032.20,-5.81
16192.52,-5.92
16354.45,-5.93
16517.99,-5.86
16683.17,-5.66
16850.01,-5.38
17018.51,-5.02
17188.69,-4.57
17360.58,-4.12
17534.18,-3.69
17709.53,-3.37
17886.62,-3.28
18065.49,-3.40
18246.14,-3.78
18428.60,-4.58
18612.89,-5.65
18799.02,-6.99
18987.01,-8.63
19176.88,-10.67
19368.65,-13.03
19562.33,-15.69
19757.96,-18.63
19955.54,-21.56
