frequency,raw
20.00,0.88
20.20,0.90
20.40,0.92
20.61,0.94
20.81,0.98
21.02,1.03
21.23,1.08
21.44,1.12
21.66,1.15
21.87,1.19
22.09,1.22
22.31,1.25
22.54,1.27
22.76,1.31
22.99,1.34
23.22,1.38
23.45,1.43
23.69,1.47
23.92,1.52
24.16,1.56
24.40,1.60
24.65,1.64
24.89,1.67
25.14,1.69
25.39,1.71
25.65,1.74
25.91,1.77
26.16,1.80
26.43,1.83
26.69,1.87
26.96,1.92
27.23,1.96
27.50,2.01
27.77,2.04
28.05,2.08
28.33,2.10
28.62,2.13
28.90,2.14
29.19,2.16
29.48,2.17
29.78,2.20
30.08,2.23
30.38,2.26
30.68,2.31
30.99,2.35
31.30,2.39
31.61,2.42
31.93,2.44
32.24,2.45
32.57,2.45
32.89,2.46
33.22,2.48
33.55,2.50
33.89,2.53
34.23,2.57
34.57,2.60
34.92,2.62
35.27,2.63
35.62,2.63
35.97,2.63
36.33,2.63
36.70,2.64
37.06,2.67
37.43,2.69
37.81,2.72
38.19,2.74
38.57,2.75
38.95,2.77
39.34,2.78
39.74,2.80
40.14,2.81
40.54,2.83
40.94,2.84
41.35,2.86
41.76,2.87
42.18,2.90
42.60,2.92
43.03,2.95
43.46,2.96
43.90,2.98
44.33,2.99
44.78,3.01
45.23,3.02
45.68,3.04
46.13,3.05
46.60,3.07
47.06,3.07
47.53,3.08
48.01,3.07
48.49,3.06
48.97,3.04
49.46,3.02
49.96,2.99
50.46,2.99
50.96,2.99
51.47,3.01
51.99,3.04
52.51,3.08
53.03,3.12
53.56,3.15
54.10,3.17
54.64,3.18
55.18,3.19
55.74,3.20
56.29,3.21
56.86,3.23
57.42,3.27
58.00,3.31
58.58,3.38
59.16,3.44
59.76,3.47
60.35,3.46
60.96,3.43
61.57,3.38
62.18,3.33
62.80,3.30
63.43,3.28
64.07,3.27
64.71,3.27
65.35,3.27
66.01,3.27
66.67,3.27
67.33,3.27
68.01,3.27
68.69,3.27
69.37,3.27
70.07,3.28
70.77,3.28
71.48,3.28
72.19,3.28
72.91,3.28
73.64,3.29
74.38,3.29
75.12,3.29
75.87,3.29
76.63,3.29
77.40,3.29
78.17,3.29
78.95,3.28
79.74,3.28
80.54,3.28
81.35,3.28
82.16,3.28
82.98,3.28
83.81,3.28
84.65,3.27
85.50,3.27
86.35,3.27
87.22,3.27
88.09,3.26
88.97,3.26
89.86,3.26
90.76,3.25
91.66,3.25
92.58,3.24
93.51,3.24
94.44,3.23
95.39,3.23
96.34,3.23
97.30,3.23
98.28,3.22
99.26,3.22
100.25,3.22
101.25,3.22
102.27,3.22
103.29,3.21
104.32,3.21
105.37,3.21
106.42,3.20
107.48,3.20
108.56,3.20
109.64,3.19
110.74,3.18
111.85,3.17
112.97,3.16
114.10,3.15
115.24,3.13
116.39,3.11
117.55,3.08
118.73,3.06
119.92,3.04
121.12,3.03
122.33,3.05
123.55,3.07
124.79,3.08
126.03,3.08
127.29,3.08
128.57,3.08
129.85,3.07
131.15,3.06
132.46,3.06
133.79,3.05
135.12,3.04
136.48,3.03
137.84,3.03
139.22,3.02
140.61,3.01
142.02,3.00
143.44,3.00
144.87,2.99
146.32,2.98
147.78,2.97
149.26,2.96
150.75,2.96
152.26,2.95
153.78,2.94
155.32,2.93
156.88,2.92
158.44,2.91
160.03,2.90
161.63,2.89
163.24,2.88
164.88,2.87
166.53,2.86
168.19,2.85
169.87,2.85
171.57,2.84
173.29,2.83
175.02,2.82
176.77,2.81
178.54,2.80
180.32,2.79
182.13,2.77
183.95,2.76
185.79,2.75
187.65,2.74
189.52,2.73
191.42,2.72
193.33,2.71
195.27,2.70
197.22,2.68
199.19,2.67
201.18,2.66
203.19,2.65
205.23,2.64
207.28,2.63
209.35,2.61
211.44,2.60
213.56,2.59
215.69,2.58
217.85,2.57
220.03,2.56
222.23,2.55
224.45,2.54
226.70,2.52
228.96,2.51
231.25,2.49
233.57,2.48
235.90,2.46
238.26,2.44
240.64,2.43
243.05,2.41
245.48,2.40
247.93,2.39
250.41,2.37
252.92,2.36
255.45,2.34
258.00,2.33
260.58,2.31
263.19,2.30
265.82,2.28
268.48,2.26
271.16,2.25
273.87,2.23
276.61,2.21
279.38,2.19
282.17,2.17
284.99,2.15
287.84,2.14
290.72,2.12
293.63,2.09
296.57,2.07
299.53,2.05
302.53,2.04
305.55,2.03
308.61,2.01
311.69,1.99
314.81,1.98
317.96,1.96
321.14,1.93
324.35,1.91
327.59,1.89
330.87,1.87
334.18,1.84
337.52,1.82
340.90,1.80
344.30,1.78
347.75,1.77
351.23,1.76
354.74,1.75
358.28,1.74
361.87,1.73
365.49,1.72
369.14,1.70
372.83,1.68
376.56,1.66
380.33,1.64
384.13,1.62
387.97,1.60
391.85,1.59
395.77,1.58
399.73,1.57
403.72,1.57
407.76,1.56
411.84,1.54
415.96,1.53
420.12,1.51
424.32,1.48
428.56,1.45
432.85,1.42
437.18,1.39
441.55,1.35
445.96,1.32
450.42,1.28
454.93,1.24
459.48,1.21
464.07,1.17
468.71,1.13
473.40,1.10
478.13,1.07
482.91,1.03
487.74,1.01
492.62,0.98
497.55,0.96
502.52,0.93
507.55,0.91
512.62,0.89
517.75,0.88
522.93,0.88
528.16,0.89
533.44,0.90
538.77,0.92
544.16,0.93
549.60,0.93
555.10,0.93
560.65,0.92
566.25,0.90
571.92,0.87
577.64,0.84
583.41,0.81
589.25,0.78
595.14,0.75
601.09,0.71
607.10,0.67
613.17,0.64
619.30,0.60
625.50,0.56
631.75,0.53
638.07,0.49
644.45,0.46
650.89,0.42
657.40,0.39
663.98,0.36
670.62,0.32
677.32,0.29
684.10,0.25
690.94,0.22
697.85,0.19
704.83,0.16
711.87,0.13
718.99,0.11
726.18,0.08
733.44,0.06
740.78,0.04
748.19,0.02
755.67,-0.00
763.23,-0.02
770.86,-0.04
778.57,-0.06
786.35,-0.08
794.22,-0.10
802.16,-0.12
810.18,-0.14
818.28,-0.16
826.46,-0.17
834.73,-0.19
843.08,-0.20
851.51,-0.20
860.02,-0.21
868.62,-0.21
877.31,-0.21
886.08,-0.22
894.94,-0.21
903.89,-0.21
912.93,-0.20
922.06,-0.19
931.28,-0.17
940.59,-0.16
950.00,-0.14
959.50,-0.12
969.09,-0.09
978.78,-0.07
988.57,-0.04
998.46,-0.01
1008.44,0.03
1018.53,0.07
1028.71,0.11
1039.00,0.15
1049.39,0.19
1059.88,0.24
1070.48,0.29
1081.19,0.34
1092.00,0.39
1102.92,0.45
1113.95,0.50
1125.09,0.56
1136.34,0.62
1147.70,0.67
1159.18,0.73
1170.77,0.78
1182.48,0.84
1194.30,0.89
1206.25,0.94
1218.31,1.00
1230.49,1.05
1242.80,1.10
1255.22,1.15
1267.78,1.19
1280.45,1.23
1293.26,1.27
1306.19,1.30
1319.25,1.34
1332.45,1.37
1345.77,1.40
1359.23,1.43
1372.82,1.46
1386.55,1.48
1400.41,1.51
1414.42,1.54
1428.56,1.56
1442.85,1.59
1457.28,1.61
1471.85,1.64
1486.57,1.66
1501.43,1.69
1516.45,1.71
1531.61,1.74
1546.93,1.77
1562.40,1.80
1578.02,1.82
1593.80,1.85
1609.74,1.89
1625.84,1.92
1642.10,1.95
1658.52,1.99
1675.10,2.03
1691.85,2.07
1708.77,2.12
1725.86,2.17
1743.12,2.22
1760.55,2.28
1778.15,2.34
1795.94,2.40
1813.90,2.47
1832.03,2.54
1850.36,2.62
1868.86,2.70
1887.55,2.78
1906.42,2.87
1925.49,2.96
1944.74,3.06
1964.19,3.17
1983.83,3.28
2003.67,3.40
2023.71,3.52
2043.94,3.65
2064.38,3.78
2085.03,3.93
2105.88,4.08
2126.94,4.23
2148.20,4.40
2169.69,4.57
2191.38,4.75
2213.30,4.94
2235.43,5.14
2257.78,5.35
2280.36,5.56
2303.17,5.79
2326.20,6.03
2349.46,6.28
2372.95,6.53
2396.68,6.80
2420.65,7.07
2444.86,7.36
2469.31,7.65
2494.00,7.96
2518.94,8.27
2544.13,8.59
2569.57,8.92
2595.27,9.24
2621.22,9.58
2647.43,9.90
2673.90,10.22
2700.64,10.54
2727.65,10.83
2754.93,11.10
2782.48,11.34
2810.30,11.54
2838.40,11.71
2866.79,11.83
2895.46,11.92
2924.41,11.94
2953.65,11.93
2983.19,11.86
3013.02,11.76
3043.15,11.62
3073.58,11.44
3104.32,11.22
3135.36,10.99
3166.72,10.73
3198.38,10.47
3230.37,10.19
3262.67,9.92
3295.30,9.64
3328.25,9.37
3361.53,9.11
3395.15,8.85
3429.10,8.61
3463.39,8.37
3498.03,8.15
3533.01,7.94
3568.34,7.74
3604.02,7.55
3640.06,7.38
3676.46,7.22
3713.22,7.07
3750.36,6.94
3787.86,6.82
3825.74,6.70
3864.00,6.60
3902.64,6.53
3941.66,6.45
3981.08,6.40
4020.89,6.37
4061.10,6.34
4101.71,6.35
4142.73,6.38
4184.15,6.43
4226.00,6.50
4268.26,6.59
4310.94,6.70
4354.05,6.84
4397.59,7.00
4441.56,7.18
4485.98,7.38
4530.84,7.61
4576.15,7.87
4621.91,8.15
4668.13,8.47
4714.81,8.83
4761.96,9.22
4809.58,9.65
4857.67,10.11
4906.25,10.62
4955.31,11.15
5004.87,11.71
5054.91,12.27
5105.46,12.82
5156.52,13.34
5208.08,13.79
5260.16,14.13
5312.77,14.38
5365.89,14.47
5419.55,14.39
5473.75,14.17
5528.49,13.81
5583.77,13.30
5639.61,12.69
5696.00,12.04
5752.96,11.33
5810.49,10.62
5868.60,9.92
5927.28,9.24
5986.56,8.60
6046.42,8.01
6106.89,7.46
6167.96,6.98
6229.64,6.55
6291.93,6.18
6354.85,5.88
6418.40,5.61
6482.58,5.40
6547.41,5.24
6612.88,5.12
6679.01,5.06
6745.80,5.05
6813.26,5.07
6881.39,5.16
6950.21,5.31
7019.71,5.51
7089.91,5.78
7160.81,6.14
7232.41,6.57
7304.74,7.08
7377.79,7.72
7451.56,8.42
7526.08,9.13
7601.34,9.81
7677.35,10.39
7754.13,10.92
7831.67,11.22
7909.98,11.42
7989.08,11.44
8068.98,11.25
8149.67,10.94
8231.16,10.51
8313.47,10.02
8396.61,9.52
8480.57,9.04
8565.38,8.64
8651.03,8.31
8737.54,8.04
8824.92,7.82
8913.17,7.58
9002.30,7.32
9092.32,6.92
9183.25,6.37
9275.08,5.69
9367.83,4.81
9461.51,3.74
9556.12,2.53
9651.68,1.21
9748.20,-0.19
9845.68,-1.63
9944.14,-3.08
10043.58,-4.50
10144.02,-5.90
10245.46,-7.23
10347.91,-8.51
10451.39,-9.73
10555.91,-10.85
10661.46,-11.91
10768.08,-12.90
10875.76,-13.81
10984.52,-14.64
11094.36,-15.44
11205.31,-16.17
11317.36,-16.84
11430.53,-17.48
11544.84,-18.05
11660.29,-18.57
11776.89,-19.06
11894.66,-19.46
12013.60,-19.84
12133.74,-20.17
12255.08,-20.42
12377.63,-20.64
12501.41,-20.79
12626.42,-20.87
12752.68,-20.88
12880.21,-20.79
13009.01,-20.64
13139.10,-20.49
13270.49,-20.15
13403.20,-19.75
13537.23,-19.17
13672.60,-18.48
13809.33,-17.67
13947.42,-16.64
14086.90,-15.46
14227.77,-14.18
14370.04,-12.84
14513.74,-11.45
14658.88,-10.15
14805.47,-8.96
14953.52,-7.93
15103.06,-7.13
15254.09,-6.44
15406.63,-5.98
15560.70,-5.57
15716.30,-5.26
15873.47,-5.19
16032.20,-5.31
16192.52,-5.89
16354.45,-6.91
16517.99,-8.24
16683.17,-10.07
16850.01,-12.08
17018.51,-14.24
17188.69,-16.45
17360.58,-18.60
17534.18,-20.67
17709.53,-22.60
17886.62,-24.47
18065.49,-26.33
18246.14,-28.21
18428.60,-30.09
18612.89,-31.79
18799.02,-33.21
18987.01,-34.13
19176.88,-34.51
19368.65,-34.77
19562.33,-35.01
19757.96,-35.32
19955.54,-35.63
