frequency,raw
20.00,7.38
20.20,7.39
20.40,7.40
20.61,7.41
20.81,7.44
21.02,7.47
21.23,7.49
21.44,7.51
21.66,7.52
21.87,7.53
22.09,7.54
22.31,7.54
22.54,7.55
22.76,7.56
22.99,7.56
23.22,7.57
23.45,7.57
23.69,7.57
23.92,7.57
24.16,7.57
24.40,7.57
24.65,7.57
24.89,7.58
25.14,7.58
25.39,7.59
25.65,7.60
25.91,7.61
26.16,7.62
26.43,7.63
26.69,7.64
26.96,7.65
27.23,7.66
27.50,7.66
27.77,7.67
28.05,7.68
28.33,7.68
28.62,7.68
28.90,7.66
29.19,7.65
29.48,7.63
29.78,7.62
30.08,7.61
30.38,7.62
30.68,7.63
30.99,7.64
31.30,7.65
31.61,7.66
31.93,7.65
32.24,7.63
32.57,7.61
32.89,7.60
33.22,7.60
33.55,7.60
33.89,7.62
34.23,7.64
34.57,7.65
34.92,7.65
35.27,7.65
35.62,7.65
35.97,7.65
36.33,7.64
36.70,7.64
37.06,7.63
37.43,7.63
37.81,7.62
38.19,7.61
38.57,7.61
38.95,7.60
39.34,7.60
39.74,7.59
40.14,7.59
40.54,7.58
40.94,7.57
41.35,7.57
41.76,7.56
42.18,7.55
42.60,7.55
43.03,7.54
43.46,7.53
43.90,7.52
44.33,7.52
44.78,7.51
45.23,7.51
45.68,7.51
46.13,7.50
46.60,7.49
47.06,7.48
47.53,7.46
48.01,7.44
48.49,7.42
48.97,7.40
49.46,7.38
49.96,7.37
50.46,7.36
50.96,7.35
51.47,7.34
51.99,7.34
52.51,7.34
53.03,7.34
53.56,7.33
54.10,7.33
54.64,7.32
55.18,7.30
55.74,7.29
56.29,7.27
56.86,7.25
57.42,7.23
58.00,7.21
58.58,7.18
59.16,7.15
59.76,7.13
60.35,7.11
60.96,7.11
61.57,7.11
62.18,7.11
62.80,7.11
63.43,7.09
64.07,7.08
64.71,7.06
65.35,7.05
66.01,7.03
66.67,7.01
67.33,7.00
68.01,6.98
68.69,6.96
69.37,6.95
70.07,6.93
70.77,6.91
71.48,6.89
72.19,6.87
72.91,6.85
73.64,6.83
74.38,6.80
75.12,6.78
75.87,6.77
76.63,6.75
77.40,6.73
78.17,6.71
78.95,6.69
79.74,6.67
80.54,6.65
81.35,6.64
82.16,6.63
82.98,6.62
83.81,6.61
84.65,6.59
85.50,6.58
86.35,6.56
87.22,6.54
88.09,6.52
88.97,6.50
89.86,6.47
90.76,6.45
91.66,6.43
92.58,6.40
93.51,6.38
94.44,6.36
95.39,6.34
96.34,6.31
97.30,6.29
98.28,6.27
99.26,6.24
100.25,6.22
101.25,6.19
102.27,6.17
103.29,6.15
104.32,6.12
105.37,6.10
106.42,6.07
107.48,6.05
108.56,6.02
109.64,6.00
110.74,5.97
111.85,5.95
112.97,5.93
114.10,5.90
115.24,5.88
116.39,5.85
117.55,5.83
118.73,5.81
119.92,5.78
121.12,5.76
122.33,5.73
123.55,5.70
124.79,5.67
126.03,5.64
127.29,5.61
128.57,5.58
129.85,5.55
131.15,5.52
132.46,5.50
133.79,5.47
135.12,5.44
136.48,5.41
137.84,5.38
139.22,5.35
140.61,5.33
142.02,5.30
143.44,5.27
144.87,5.24
146.32,5.21
147.78,5.18
149.26,5.15
150.75,5.12
152.26,5.09
153.78,5.06
155.32,5.03
156.88,5.00
158.44,4.97
160.03,4.93
161.63,4.90
163.24,4.87
164.88,4.84
166.53,4.82
168.19,4.79
169.87,4.75
171.57,4.72
173.29,4.69
175.02,4.66
176.77,4.62
178.54,4.59
180.32,4.56
182.13,4.53
183.95,4.49
185.79,4.46
187.65,4.43
189.52,4.39
191.42,4.36
193.33,4.33
195.27,4.29
197.22,4.26
199.19,4.23
201.18,4.20
203.19,4.17
205.23,4.16
207.28,4.16
209.35,4.17
211.44,4.20
213.56,4.25
215.69,4.31
217.85,4.37
220.03,4.42
222.23,4.44
224.45,4.46
226.70,4.46
228.96,4.44
231.25,4.41
233.57,4.37
235.90,4.33
238.26,4.28
240.64,4.24
243.05,4.19
245.48,4.15
247.93,4.11
250.41,4.07
252.92,4.03
255.45,3.99
258.00,3.95
260.58,3.91
263.19,3.87
265.82,3.84
268.48,3.80
271.16,3.77
273.87,3.73
276.61,3.69
279.38,3.66
282.17,3.62
284.99,3.58
287.84,3.54
290.72,3.51
293.63,3.47
296.57,3.43
299.53,3.39
302.53,3.36
305.55,3.32
308.61,3.29
311.69,3.26
314.81,3.22
317.96,3.19
321.14,3.15
324.35,3.11
327.59,3.08
330.87,3.04
334.18,3.00
337.52,2.97
340.90,2.93
344.30,2.89
347.75,2.86
351.23,2.82
354.74,2.79
358.28,2.76
361.87,2.72
365.49,2.69
369.14,2.66
372.83,2.63
376.56,2.60
380.33,2.57
384.13,2.55
387.97,2.52
391.85,2.49
395.77,2.46
399.73,2.43
403.72,2.40
407.76,2.38
411.84,2.35
415.96,2.32
420.12,2.29
424.32,2.27
428.56,2.24
432.85,2.21
437.18,2.18
441.55,2.15
445.96,2.11
450.42,2.08
454.93,2.04
459.48,2.00
464.07,1.97
468.71,1.93
473.40,1.89
478.13,1.85
482.91,1.81
487.74,1.77
492.62,1.73
497.55,1.70
502.52,1.66
507.55,1.62
512.62,1.58
517.75,1.55
522.93,1.51
528.16,1.47
533.44,1.43
538.77,1.39
544.16,1.36
549.60,1.32
555.10,1.28
560.65,1.25
566.25,1.21
571.92,1.17
577.64,1.13
583.41,1.09
589.25,1.05
595.14,1.01
601.09,0.97
607.10,0.93
613.17,0.89
619.30,0.85
625.50,0.82
631.75,0.78
638.07,0.74
644.45,0.70
650.89,0.66
657.40,0.62
663.98,0.59
670.62,0.55
677.32,0.51
684.10,0.48
690.94,0.44
697.85,0.41
704.83,0.37
711.87,0.34
718.99,0.30
726.18,0.27
733.44,0.24
740.78,0.21
748.19,0.18
755.67,0.14
763.23,0.11
770.86,0.09
778.57,0.06
786.35,0.03
794.22,0.01
802.16,-0.01
810.18,-0.04
818.28,-0.06
826.46,-0.08
834.73,-0.09
843.08,-0.11
851.51,-0.12
860.02,-0.14
868.62,-0.14
877.31,-0.15
886.08,-0.16
894.94,-0.16
903.89,-0.16
912.93,-0.16
922.06,-0.15
931.28,-0.14
940.59,-0.13
950.00,-0.12
959.50,-0.10
969.09,-0.08
978.78,-0.06
988.57,-0.03
998.46,-0.00
1008.44,0.03
1018.53,0.06
1028.71,0.10
1039.00,0.13
1049.39,0.17
1059.88,0.22
1070.48,0.26
1081.19,0.30
1092.00,0.35
1102.92,0.40
1113.95,0.45
1125.09,0.50
1136.34,0.55
1147.70,0.59
1159.18,0.64
1170.77,0.69
1182.48,0.74
1194.30,0.78
1206.25,0.83
1218.31,0.87
1230.49,0.92
1242.80,0.96
1255.22,1.00
1267.78,1.03
1280.45,1.07
1293.26,1.10
1306.19,1.13
1319.25,1.16
1332.45,1.19
1345.77,1.21
1359.23,1.24
1372.82,1.27
1386.55,1.29
1400.41,1.32
1414.42,1.34
1428.56,1.36
1442.85,1.39
1457.28,1.41
1471.85,1.43
1486.57,1.45
1501.43,1.47
1516.45,1.49
1531.61,1.51
1546.93,1.54
1562.40,1.56
1578.02,1.58
1593.80,1.61
1609.74,1.63
1625.84,1.66
1642.10,1.69
1658.52,1.73
1675.10,1.76
1691.85,1.80
1708.77,1.84
1725.86,1.88
1743.12,1.93
1760.55,1.97
1778.15,2.03
1795.94,2.08
1813.90,2.14
1832.03,2.20
1850.36,2.26
1868.86,2.33
1887.55,2.41
1906.42,2.48
1925.49,2.57
1944.74,2.65
1964.19,2.74
1983.83,2.84
2003.67,2.94
2023.71,3.04
2043.94,3.15
2064.38,3.27
2085.03,3.39
2105.88,3.51
2126.94,3.64
2148.20,3.78
2169.69,3.92
2191.38,4.07
2213.30,4.23
2235.43,4.38
2257.78,4.55
2280.36,4.72
2303.17,4.90
2326.20,5.08
2349.46,5.27
2372.95,5.46
2396.68,5.66
2420.65,5.86
2444.86,6.06
2469.31,6.27
2494.00,6.48
2518.94,6.69
2544.13,6.90
2569.57,7.11
2595.27,7.31
2621.22,7.51
2647.43,7.70
2673.90,7.89
2700.64,8.06
2727.65,8.22
2754.93,8.37
2782.48,8.50
2810.30,8.61
2838.40,8.70
2866.79,8.77
2895.46,8.82
2924.41,8.84
2953.65,8.85
2983.19,8.82
3013.02,8.78
3043.15,8.72
3073.58,8.63
3104.32,8.53
3135.36,8.42
3166.72,8.29
3198.38,8.16
3230.37,8.02
3262.67,7.88
3295.30,7.74
3328.25,7.60
3361.53,7.47
3395.15,7.34
3429.10,7.22
3463.39,7.11
3498.03,7.01
3533.01,6.92
3568.34,6.83
3604.02,6.74
3640.06,6.66
3676.46,6.59
3713.22,6.52
3750.36,6.46
3787.86,6.41
3825.74,6.37
3864.00,6.35
3902.64,6.35
3941.66,6.35
3981.08,6.38
4020.89,6.41
4061.10,6.45
4101.71,6.50
4142.73,6.55
4184.15,6.60
4226.00,6.65
4268.26,6.71
4310.94,6.76
4354.05,6.81
4397.59,6.86
4441.56,6.91
4485.98,6.95
4530.84,6.99
4576.15,7.01
4621.91,7.02
4668.13,7.02
4714.81,6.99
4761.96,6.95
4809.58,6.88
4857.67,6.79
4906.25,6.66
4955.31,6.51
5004.87,6.33
5054.91,6.12
5105.46,5.89
5156.52,5.65
5208.08,5.38
5260.16,5.12
5312.77,4.86
5365.89,4.62
5419.55,4.41
5473.75,4.24
5528.49,4.12
5583.77,4.07
5639.61,4.09
5696.00,4.14
5752.96,4.23
5810.49,4.31
5868.60,4.35
5927.28,4.33
5986.56,4.24
6046.42,4.07
6106.89,3.83
6167.96,3.54
6229.64,3.23
6291.93,2.91
6354.85,2.62
6418.40,2.34
6482.58,2.10
6547.41,1.91
6612.88,1.75
6679.01,1.63
6745.80,1.56
6813.26,1.52
6881.39,1.52
6950.21,1.59
7019.71,1.69
7089.91,1.87
7160.81,2.12
7232.41,2.44
7304.74,2.82
7377.79,3.29
7451.56,3.83
7526.08,4.42
7601.34,5.05
7677.35,5.68
7754.13,6.29
7831.67,6.77
7909.98,7.15
7989.08,7.37
8068.98,7.32
8149.67,7.10
8231.16,6.69
8313.47,6.07
8396.61,5.36
8480.57,4.55
8565.38,3.69
8651.03,2.84
8737.54,2.00
8824.92,1.21
8913.17,0.49
9002.30,-0.20
9092.32,-0.78
9183.25,-1.29
9275.08,-1.75
9367.83,-2.13
9461.51,-2.43
9556.12,-2.68
9651.68,-2.88
9748.20,-3.04
9845.68,-3.15
9944.14,-3.25
10043.58,-3.33
10144.02,-3.41
10245.46,-3.52
10347.91,-3.64
10451.39,-3.79
10555.91,-3.98
10661.46,-4.18
10768.08,-4.40
10875.76,-4.61
10984.52,-4.79
11094.36,-4.93
11205.31,-5.02
11317.36,-5.02
11430.53,-4.99
11544.84,-4.93
11660.29,-4.85
11776.89,-4.79
11894.66,-4.83
12013.60,-4.89
12133.74,-5.03
12255.08,-5.29
12377.63,-5.62
12501.41,-6.02
12626.42,-6.52
12752.68,-7.09
12880.21,-7.76
13009.01,-8.48
13139.10,-9.20
13270.49,-10.02
13403.20,-10.86
13537.23,-11.69
13672.60,-12.45
13809.33,-13.13
13947.42,-13.55
14086.90,-13.65
14227.77,-13.56
14370.04,-13.19
14513.74,-12.48
14658.88,-11.36
14805.47,-10.11
14953.52,-8.66
15103.06,-7.14
15254.09,-5.59
15406.63,-4.20
15560.70,-2.95
15716.30,-1.93
15873.47,-1.29
16032.20,-0.87
16192.52,-0.84
16354.45,-1.06
16517.99,-1.46
16683.17,-2.09
16850.01,-2.81
17018.51,-3.60
17188.69,-4.47
17360.58,-5.38
17534.18,-6.35
17709.53,-7.41
17886.62,-8.57
18065.49,-9.81
18246.14,-11.14
18428.60,-12.55
18612.89,-13.99
18799.02,-15.43
18987.01,-16.88
19176.88,-18.32
19368.65,-19.76
19562.33,-21.16
19757.96,-22.49
19955.54,-23.82
