frequency,raw
20.00,4.46
20.20,4.49
20.40,4.51
20.61,4.53
20.81,4.55
21.02,4.58
21.23,4.60
21.44,4.62
21.66,4.65
21.87,4.68
22.09,4.71
22.31,4.74
22.54,4.77
22.76,4.79
22.99,4.81
23.22,4.83
23.45,4.85
23.69,4.87
23.92,4.90
24.16,4.92
24.40,4.95
24.65,4.98
24.89,5.00
25.14,5.03
25.39,5.05
25.65,5.06
25.91,5.08
26.16,5.10
26.43,5.12
26.69,5.15
26.96,5.17
27.23,5.19
27.50,5.20
27.77,5.22
28.05,5.23
28.33,5.25
28.62,5.27
28.90,5.29
29.19,5.31
29.48,5.33
29.78,5.35
30.08,5.36
30.38,5.37
30.68,5.38
30.99,5.39
31.30,5.40
31.61,5.42
31.93,5.43
32.24,5.45
32.57,5.47
32.89,5.48
33.22,5.50
33.55,5.51
33.89,5.52
34.23,5.53
34.57,5.54
34.92,5.55
35.27,5.56
35.62,5.57
35.97,5.58
36.33,5.59
36.70,5.60
37.06,5.61
37.43,5.62
37.81,5.62
38.19,5.63
38.57,5.63
38.95,5.64
39.34,5.64
39.74,5.65
40.14,5.66
40.54,5.67
40.94,5.69
41.35,5.70
41.76,5.70
42.18,5.71
42.60,5.72
43.03,5.72
43.46,5.72
43.90,5.73
44.33,5.72
44.78,5.72
45.23,5.72
45.68,5.72
46.13,5.73
46.60,5.74
47.06,5.75
47.53,5.75
48.01,5.76
48.49,5.76
48.97,5.76
49.46,5.76
49.96,5.75
50.46,5.75
50.96,5.76
51.47,5.76
51.99,5.76
52.51,5.76
53.03,5.76
53.56,5.76
54.10,5.76
54.64,5.75
55.18,5.73
55.74,5.73
56.29,5.75
56.86,5.77
57.42,5.77
58.00,5.77
58.58,5.74
59.16,5.71
59.76,5.68
60.35,5.69
60.96,5.71
61.57,5.73
62.18,5.74
62.80,5.74
63.43,5.74
64.07,5.73
64.71,5.72
65.35,5.72
66.01,5.73
66.67,5.71
67.33,5.70
68.01,5.69
68.69,5.69
69.37,5.69
70.07,5.68
70.77,5.68
71.48,5.67
72.19,5.66
72.91,5.66
73.64,5.65
74.38,5.63
75.12,5.62
75.87,5.62
76.63,5.61
77.40,5.60
78.17,5.60
78.95,5.60
79.74,5.60
80.54,5.58
81.35,5.57
82.16,5.58
82.98,5.58
83.81,5.57
84.65,5.55
85.50,5.53
86.35,5.51
87.22,5.51
88.09,5.50
88.97,5.48
89.86,5.49
90.76,5.47
91.66,5.45
92.58,5.44
93.51,5.43
94.44,5.43
95.39,5.41
96.34,5.39
97.30,5.36
98.28,5.34
99.26,5.33
100.25,5.31
101.25,5.31
102.27,5.30
103.29,5.28
104.32,5.26
105.37,5.24
106.42,5.23
107.48,5.21
108.56,5.20
109.64,5.18
110.74,5.16
111.85,5.15
112.97,5.13
114.10,5.12
115.24,5.10
116.39,5.07
117.55,5.04
118.73,5.03
119.92,5.01
121.12,4.99
122.33,4.96
123.55,4.94
124.79,4.91
126.03,4.90
127.29,4.87
128.57,4.84
129.85,4.82
131.15,4.79
132.46,4.78
133.79,4.76
135.12,4.73
136.48,4.69
137.84,4.66
139.22,4.63
140.61,4.60
142.02,4.57
143.44,4.54
144.87,4.50
146.32,4.47
147.78,4.44
149.26,4.40
150.75,4.37
152.26,4.34
153.78,4.29
155.32,4.25
156.88,4.22
158.44,4.19
160.03,4.16
161.63,4.16
163.24,4.15
164.88,4.13
166.53,4.13
168.19,4.12
169.87,4.12
171.57,4.11
173.29,4.10
175.02,4.08
176.77,4.06
178.54,4.03
180.32,4.01
182.13,3.98
183.95,3.95
185.79,3.92
187.65,3.88
189.52,3.85
191.42,3.82
193.33,3.79
195.27,3.75
197.22,3.71
199.19,3.68
201.18,3.65
203.19,3.61
205.23,3.57
207.28,3.54
209.35,3.51
211.44,3.47
213.56,3.43
215.69,3.40
217.85,3.36
220.03,3.32
222.23,3.28
224.45,3.24
226.70,3.19
228.96,3.15
231.25,3.11
233.57,3.08
235.90,3.04
238.26,2.98
240.64,2.93
243.05,2.91
245.48,2.86
247.93,2.81
250.41,2.78
252.92,2.74
255.45,2.70
258.00,2.67
260.58,2.63
263.19,2.60
265.82,2.56
268.48,2.53
271.16,2.49
273.87,2.46
276.61,2.42
279.38,2.36
282.17,2.33
284.99,2.29
287.84,2.25
290.72,2.21
293.63,2.17
296.57,2.12
299.53,2.08
302.53,2.06
305.55,2.04
308.61,2.00
311.69,1.96
314.81,1.93
317.96,1.90
321.14,1.87
324.35,1.83
327.59,1.79
330.87,1.76
334.18,1.71
337.52,1.67
340.90,1.63
344.30,1.62
347.75,1.61
351.23,1.60
354.74,1.59
358.28,1.59
361.87,1.56
365.49,1.53
369.14,1.50
372.83,1.46
376.56,1.42
380.33,1.38
384.13,1.34
387.97,1.31
391.85,1.26
395.77,1.22
399.73,1.17
403.72,1.14
407.76,1.11
411.84,1.07
415.96,1.03
420.12,0.99
424.32,0.96
428.56,0.92
432.85,0.88
437.18,0.85
441.55,0.82
445.96,0.77
450.42,0.73
454.93,0.70
459.48,0.66
464.07,0.63
468.71,0.59
473.40,0.56
478.13,0.52
482.91,0.49
487.74,0.47
492.62,0.44
497.55,0.40
502.52,0.37
507.55,0.35
512.62,0.30
517.75,0.26
522.93,0.23
528.16,0.20
533.44,0.18
538.77,0.15
544.16,0.12
549.60,0.09
555.10,0.06
560.65,0.03
566.25,-0.00
571.92,-0.03
577.64,-0.05
583.41,-0.07
589.25,-0.09
595.14,-0.09
601.09,-0.09
607.10,-0.10
613.17,-0.13
619.30,-0.15
625.50,-0.16
631.75,-0.18
638.07,-0.19
644.45,-0.19
650.89,-0.18
657.40,-0.20
663.98,-0.21
670.62,-0.23
677.32,-0.24
684.10,-0.26
690.94,-0.29
697.85,-0.34
704.83,-0.40
711.87,-0.47
718.99,-0.52
726.18,-0.55
733.44,-0.58
740.78,-0.59
748.19,-0.60
755.67,-0.61
763.23,-0.63
770.86,-0.65
778.57,-0.67
786.35,-0.68
794.22,-0.68
802.16,-0.68
810.18,-0.67
818.28,-0.66
826.46,-0.65
834.73,-0.64
843.08,-0.62
851.51,-0.60
860.02,-0.58
868.62,-0.56
877.31,-0.54
886.08,-0.51
894.94,-0.49
903.89,-0.46
912.93,-0.43
922.06,-0.39
931.28,-0.35
940.59,-0.31
950.00,-0.27
959.50,-0.22
969.09,-0.17
978.78,-0.12
988.57,-0.06
998.46,-0.01
1008.44,0.05
1018.53,0.12
1028.71,0.19
1039.00,0.26
1049.39,0.33
1059.88,0.40
1070.48,0.48
1081.19,0.56
1092.00,0.64
1102.92,0.73
1113.95,0.81
1125.09,0.90
1136.34,0.99
1147.70,1.08
1159.18,1.17
1170.77,1.26
1182.48,1.35
1194.30,1.45
1206.25,1.54
1218.31,1.64
1230.49,1.73
1242.80,1.82
1255.22,1.92
1267.78,2.01
1280.45,2.11
1293.26,2.20
1306.19,2.29
1319.25,2.39
1332.45,2.48
1345.77,2.57
1359.23,2.66
1372.82,2.76
1386.55,2.85
1400.41,2.95
1414.42,3.05
1428.56,3.14
1442.85,3.24
1457.28,3.34
1471.85,3.44
1486.57,3.54
1501.43,3.65
1516.45,3.75
1531.61,3.86
1546.93,3.97
1562.40,4.08
1578.02,4.20
1593.80,4.31
1609.74,4.43
1625.84,4.55
1642.10,4.68
1658.52,4.80
1675.10,4.93
1691.85,5.06
1708.77,5.19
1725.86,5.32
1743.12,5.45
1760.55,5.58
1778.15,5.70
1795.94,5.82
1813.90,5.94
1832.03,6.06
1850.36,6.17
1868.86,6.28
1887.55,6.37
1906.42,6.47
1925.49,6.55
1944.74,6.63
1964.19,6.70
1983.83,6.77
2003.67,6.83
2023.71,6.89
2043.94,6.94
2064.38,6.99
2085.03,7.03
2105.88,7.08
2126.94,7.11
2148.20,7.15
2169.69,7.18
2191.38,7.21
2213.30,7.24
2235.43,7.26
2257.78,7.28
2280.36,7.29
2303.17,7.30
2326.20,7.31
2349.46,7.31
2372.95,7.31
2396.68,7.30
2420.65,7.29
2444.86,7.27
2469.31,7.25
2494.00,7.22
2518.94,7.19
2544.13,7.16
2569.57,7.12
2595.27,7.08
2621.22,7.04
2647.43,6.99
2673.90,6.95
2700.64,6.90
2727.65,6.85
2754.93,6.80
2782.48,6.74
2810.30,6.69
2838.40,6.64
2866.79,6.59
2895.46,6.54
2924.41,6.49
2953.65,6.44
2983.19,6.39
3013.02,6.34
3043.15,6.30
3073.58,6.27
3104.32,6.24
3135.36,6.22
3166.72,6.21
3198.38,6.21
3230.37,6.21
3262.67,6.23
3295.30,6.25
3328.25,6.27
3361.53,6.30
3395.15,6.34
3429.10,6.38
3463.39,6.42
3498.03,6.46
3533.01,6.52
3568.34,6.57
3604.02,6.62
3640.06,6.69
3676.46,6.76
3713.22,6.83
3750.36,6.91
3787.86,7.00
3825.74,7.09
3864.00,7.19
3902.64,7.29
3941.66,7.40
3981.08,7.52
4020.89,7.64
4061.10,7.77
4101.71,7.91
4142.73,8.05
4184.15,8.19
4226.00,8.35
4268.26,8.51
4310.94,8.67
4354.05,8.84
4397.59,9.01
4441.56,9.19
4485.98,9.36
4530.84,9.53
4576.15,9.70
4621.91,9.86
4668.13,10.01
4714.81,10.15
4761.96,10.27
4809.58,10.37
4857.67,10.43
4906.25,10.45
4955.31,10.44
5004.87,10.37
5054.91,10.24
5105.46,10.07
5156.52,9.85
5208.08,9.58
5260.16,9.28
5312.77,8.96
5365.89,8.63
5419.55,8.28
5473.75,7.92
5528.49,7.54
5583.77,7.15
5639.61,6.74
5696.00,6.32
5752.96,5.84
5810.49,5.39
5868.60,5.06
5927.28,4.86
5986.56,4.80
6046.42,4.54
6106.89,4.24
6167.96,3.97
6229.64,3.73
6291.93,3.52
6354.85,3.34
6418.40,3.18
6482.58,3.06
6547.41,2.97
6612.88,2.91
6679.01,2.88
6745.80,2.89
6813.26,2.92
6881.39,3.00
6950.21,3.12
7019.71,3.27
7089.91,3.46
7160.81,3.69
7232.41,3.96
7304.74,4.27
7377.79,4.63
7451.56,5.04
7526.08,5.48
7601.34,5.95
7677.35,6.43
7754.13,6.89
7831.67,7.22
7909.98,7.41
7989.08,7.37
8068.98,6.93
8149.67,6.28
8231.16,5.41
8313.47,4.42
8396.61,3.41
8480.57,2.40
8565.38,1.42
8651.03,0.48
8737.54,-0.44
8824.92,-1.31
8913.17,-2.12
9002.30,-2.91
9092.32,-3.64
9183.25,-4.32
9275.08,-4.96
9367.83,-5.56
9461.51,-6.12
9556.12,-6.63
9651.68,-7.10
9748.20,-7.55
9845.68,-7.94
9944.14,-8.30
10043.58,-8.62
10144.02,-8.91
10245.46,-9.15
10347.91,-9.37
10451.39,-9.56
10555.91,-9.69
10661.46,-9.78
10768.08,-9.84
10875.76,-9.83
10984.52,-9.76
11094.36,-9.68
11205.31,-9.61
11317.36,-9.55
11430.53,-9.38
11544.84,-9.04
11660.29,-8.64
11776.89,-8.19
11894.66,-7.62
12013.60,-7.04
12133.74,-6.35
12255.08,-5.51
12377.63,-4.56
12501.41,-3.49
12626.42,-2.27
12752.68,-1.05
12880.21,-0.32
13009.01,0.11
13139.10,0.55
13270.49,0.06
13403.20,-0.68
13537.23,-1.87
13672.60,-3.03
13809.33,-4.14
13947.42,-4.95
14086.90,-5.56
14227.77,-6.06
14370.04,-6.47
14513.74,-6.78
14658.88,-6.85
14805.47,-6.82
14953.52,-6.62
15103.06,-6.21
15254.09,-5.70
15406.63,-4.86
15560.70,-3.98
15716.30,-3.06
15873.47,-2.92
16032.20,-3.33
16192.52,-5.03
16354.45,-6.95
16517.99,-8.95
16683.17,-10.70
16850.01,-12.19
17018.51,-13.48
17188.69,-14.57
17360.58,-15.55
17534.18,-16.42
17709.53,-17.02
17886.62,-17.54
18065.49,-18.08
18246.14,-18.71
18428.60,-19.22
18612.89,-19.85
18799.02,-20.43
18987.01,-20.67
19176.88,-21.12
19368.65,-22.68
19562.33,-25.44
19757.96,-29.29
19955.54,-33.14
