frequency,raw
20.00,2.39
20.20,2.44
20.40,2.49
20.61,2.54
20.81,2.58
21.02,2.62
21.23,2.66
21.44,2.70
21.66,2.74
21.87,2.79
22.09,2.83
22.31,2.88
22.54,2.93
22.76,2.98
22.99,3.03
23.22,3.09
23.45,3.14
23.69,3.19
23.92,3.23
24.16,3.27
24.40,3.31
24.65,3.35
24.89,3.38
25.14,3.40
25.39,3.42
25.65,3.44
25.91,3.46
26.16,3.49
26.43,3.52
26.69,3.57
26.96,3.61
27.23,3.67
27.50,3.72
27.77,3.76
28.05,3.80
28.33,3.82
28.62,3.85
28.90,3.86
29.19,3.89
29.48,3.91
29.78,3.94
30.08,3.97
30.38,4.01
30.68,4.04
30.99,4.08
31.30,4.12
31.61,4.17
31.93,4.23
32.24,4.28
32.57,4.32
32.89,4.35
33.22,4.35
33.55,4.35
33.89,4.34
34.23,4.35
34.57,4.36
34.92,4.38
35.27,4.40
35.62,4.42
35.97,4.43
36.33,4.45
36.70,4.47
37.06,4.49
37.43,4.51
37.81,4.54
38.19,4.56
38.57,4.58
38.95,4.60
39.34,4.62
39.74,4.63
40.14,4.64
40.54,4.65
40.94,4.66
41.35,4.69
41.76,4.72
42.18,4.73
42.60,4.75
43.03,4.74
43.46,4.74
43.90,4.76
44.33,4.78
44.78,4.80
45.23,4.82
45.68,4.82
46.13,4.84
46.60,4.86
47.06,4.88
47.53,4.90
48.01,4.90
48.49,4.91
48.97,4.94
49.46,4.97
49.96,4.98
50.46,4.96
50.96,4.93
51.47,4.91
51.99,4.93
52.51,4.94
53.03,4.96
53.56,4.99
54.10,5.02
54.64,5.03
55.18,5.01
55.74,4.99
56.29,4.99
56.86,5.00
57.42,5.05
58.00,5.10
58.58,5.13
59.16,5.12
59.76,5.04
60.35,5.00
60.96,5.00
61.57,5.06
62.18,5.08
62.80,5.06
63.43,5.05
64.07,5.04
64.71,5.04
65.35,5.04
66.01,5.04
66.67,5.05
67.33,5.05
68.01,5.04
68.69,5.04
69.37,5.04
70.07,5.04
70.77,5.04
71.48,5.04
72.19,5.03
72.91,5.03
73.64,5.04
74.38,5.03
75.12,5.03
75.87,5.03
76.63,5.01
77.40,4.99
78.17,5.00
78.95,5.01
79.74,4.99
80.54,4.99
81.35,4.98
82.16,4.96
82.98,4.96
83.81,4.97
84.65,4.96
85.50,4.95
86.35,4.95
87.22,4.94
88.09,4.93
88.97,4.92
89.86,4.91
90.76,4.91
91.66,4.90
92.58,4.89
93.51,4.87
94.44,4.86
95.39,4.85
96.34,4.84
97.30,4.83
98.28,4.82
99.26,4.81
100.25,4.79
101.25,4.78
102.27,4.77
103.29,4.75
104.32,4.74
105.37,4.72
106.42,4.71
107.48,4.69
108.56,4.68
109.64,4.66
110.74,4.64
111.85,4.63
112.97,4.61
114.10,4.59
115.24,4.58
116.39,4.56
117.55,4.54
118.73,4.55
119.92,4.58
121.12,4.54
122.33,4.45
123.55,4.44
124.79,4.42
126.03,4.40
127.29,4.37
128.57,4.34
129.85,4.32
131.15,4.31
132.46,4.29
133.79,4.27
135.12,4.24
136.48,4.22
137.84,4.19
139.22,4.17
140.61,4.14
142.02,4.12
143.44,4.10
144.87,4.09
146.32,4.08
147.78,4.06
149.26,4.04
150.75,4.01
152.26,3.99
153.78,3.97
155.32,3.95
156.88,3.92
158.44,3.89
160.03,3.86
161.63,3.84
163.24,3.81
164.88,3.78
166.53,3.76
168.19,3.74
169.87,3.74
171.57,3.69
173.29,3.65
175.02,3.62
176.77,3.57
178.54,3.54
180.32,3.51
182.13,3.48
183.95,3.45
185.79,3.42
187.65,3.38
189.52,3.37
191.42,3.33
193.33,3.29
195.27,3.26
197.22,3.23
199.19,3.20
201.18,3.16
203.19,3.13
205.23,3.09
207.28,3.06
209.35,3.03
211.44,3.00
213.56,2.96
215.69,2.93
217.85,2.90
220.03,2.85
222.23,2.82
224.45,2.78
226.70,2.75
228.96,2.72
231.25,2.68
233.57,2.64
235.90,2.61
238.26,2.58
240.64,2.55
243.05,2.49
245.48,2.46
247.93,2.42
250.41,2.39
252.92,2.36
255.45,2.32
258.00,2.27
260.58,2.24
263.19,2.21
265.82,2.16
268.48,2.11
271.16,2.09
273.87,2.05
276.61,2.00
279.38,1.97
282.17,1.94
284.99,1.90
287.84,1.86
290.72,1.82
293.63,1.78
296.57,1.74
299.53,1.70
302.53,1.66
305.55,1.62
308.61,1.59
311.69,1.55
314.81,1.51
317.96,1.47
321.14,1.44
324.35,1.40
327.59,1.36
330.87,1.32
334.18,1.28
337.52,1.24
340.90,1.20
344.30,1.17
347.75,1.13
351.23,1.10
354.74,1.06
358.28,1.03
361.87,0.99
365.49,0.95
369.14,0.91
372.83,0.88
376.56,0.84
380.33,0.80
384.13,0.77
387.97,0.73
391.85,0.69
395.77,0.65
399.73,0.62
403.72,0.58
407.76,0.55
411.84,0.51
415.96,0.48
420.12,0.44
424.32,0.41
428.56,0.36
432.85,0.32
437.18,0.29
441.55,0.25
445.96,0.22
450.42,0.18
454.93,0.15
459.48,0.11
464.07,0.08
468.71,0.05
473.40,0.01
478.13,-0.02
482.91,-0.06
487.74,-0.09
492.62,-0.12
497.55,-0.16
502.52,-0.19
507.55,-0.22
512.62,-0.25
517.75,-0.28
522.93,-0.31
528.16,-0.35
533.44,-0.38
538.77,-0.40
544.16,-0.43
549.60,-0.46
555.10,-0.49
560.65,-0.52
566.25,-0.55
571.92,-0.57
577.64,-0.60
583.41,-0.63
589.25,-0.65
595.14,-0.68
601.09,-0.70
607.10,-0.73
613.17,-0.75
619.30,-0.77
625.50,-0.80
631.75,-0.82
638.07,-0.84
644.45,-0.86
650.89,-0.88
657.40,-0.89
663.98,-0.91
670.62,-0.94
677.32,-0.95
684.10,-0.97
690.94,-0.98
697.85,-0.99
704.83,-1.01
711.87,-1.02
718.99,-1.01
726.18,-1.03
733.44,-1.04
740.78,-1.05
748.19,-1.05
755.67,-1.05
763.23,-1.04
770.86,-1.04
778.57,-1.04
786.35,-1.03
794.22,-1.02
802.16,-1.01
810.18,-1.00
818.28,-0.98
826.46,-0.96
834.73,-0.94
843.08,-0.92
851.51,-0.88
860.02,-0.85
868.62,-0.82
877.31,-0.78
886.08,-0.74
894.94,-0.72
903.89,-0.67
912.93,-0.60
922.06,-0.55
931.28,-0.49
940.59,-0.43
950.00,-0.37
959.50,-0.31
969.09,-0.23
978.78,-0.16
988.57,-0.09
998.46,-0.01
1008.44,0.07
1018.53,0.15
1028.71,0.23
1039.00,0.32
1049.39,0.41
1059.88,0.50
1070.48,0.59
1081.19,0.68
1092.00,0.78
1102.92,0.87
1113.95,0.95
1125.09,1.04
1136.34,1.14
1147.70,1.24
1159.18,1.34
1170.77,1.43
1182.48,1.53
1194.30,1.63
1206.25,1.73
1218.31,1.83
1230.49,1.93
1242.80,2.03
1255.22,2.13
1267.78,2.21
1280.45,2.25
1293.26,2.33
1306.19,2.42
1319.25,2.50
1332.45,2.59
1345.77,2.68
1359.23,2.77
1372.82,2.85
1386.55,2.94
1400.41,3.02
1414.42,3.11
1428.56,3.20
1442.85,3.28
1457.28,3.37
1471.85,3.46
1486.57,3.55
1501.43,3.64
1516.45,3.72
1531.61,3.81
1546.93,3.91
1562.40,4.00
1578.02,4.10
1593.80,4.20
1609.74,4.30
1625.84,4.41
1642.10,4.51
1658.52,4.62
1675.10,4.73
1691.85,4.85
1708.77,4.97
1725.86,5.09
1743.12,5.21
1760.55,5.34
1778.15,5.47
1795.94,5.61
1813.90,5.75
1832.03,5.89
1850.36,6.04
1868.86,6.19
1887.55,6.35
1906.42,6.51
1925.49,6.67
1944.74,6.84
1964.19,7.02
1983.83,7.20
2003.67,7.38
2023.71,7.58
2043.94,7.77
2064.38,7.98
2085.03,8.18
2105.88,8.39
2126.94,8.60
2148.20,8.82
2169.69,9.03
2191.38,9.25
2213.30,9.47
2235.43,9.68
2257.78,9.90
2280.36,10.12
2303.17,10.33
2326.20,10.54
2349.46,10.74
2372.95,10.94
2396.68,11.12
2420.65,11.30
2444.86,11.46
2469.31,11.61
2494.00,11.74
2518.94,11.86
2544.13,11.96
2569.57,12.03
2595.27,12.09
2621.22,12.13
2647.43,12.15
2673.90,12.14
2700.64,12.12
2727.65,12.07
2754.93,12.01
2782.48,11.94
2810.30,11.85
2838.40,11.75
2866.79,11.65
2895.46,11.54
2924.41,11.42
2953.65,11.30
2983.19,11.18
3013.02,11.06
3043.15,10.94
3073.58,10.82
3104.32,10.71
3135.36,10.60
3166.72,10.49
3198.38,10.39
3230.37,10.30
3262.67,10.22
3295.30,10.14
3328.25,10.06
3361.53,10.00
3395.15,9.94
3429.10,9.88
3463.39,9.83
3498.03,9.79
3533.01,9.76
3568.34,9.74
3604.02,9.72
3640.06,9.72
3676.46,9.74
3713.22,9.77
3750.36,9.81
3787.86,9.88
3825.74,9.95
3864.00,10.05
3902.64,10.16
3941.66,10.27
3981.08,10.39
4020.89,10.52
4061.10,10.64
4101.71,10.78
4142.73,10.93
4184.15,11.08
4226.00,11.25
4268.26,11.42
4310.94,11.60
4354.05,11.80
4397.59,12.02
4441.56,12.25
4485.98,12.50
4530.84,12.76
4576.15,13.03
4621.91,13.32
4668.13,13.62
4714.81,13.94
4761.96,14.27
4809.58,14.60
4857.67,14.93
4906.25,15.25
4955.31,15.55
5004.87,15.82
5054.91,16.01
5105.46,16.13
5156.52,16.18
5208.08,16.09
5260.16,15.89
5312.77,15.61
5365.89,15.20
5419.55,14.71
5473.75,14.14
5528.49,13.49
5583.77,12.75
5639.61,12.37
5696.00,12.13
5752.96,12.14
5810.49,12.08
5868.60,11.60
5927.28,11.13
5986.56,10.68
6046.42,10.27
6106.89,9.90
6167.96,9.55
6229.64,9.24
6291.93,8.95
6354.85,8.71
6418.40,8.48
6482.58,8.28
6547.41,8.12
6612.88,7.99
6679.01,7.89
6745.80,7.83
6813.26,7.80
6881.39,7.81
6950.21,7.87
7019.71,7.96
7089.91,8.10
7160.81,8.29
7232.41,8.53
7304.74,8.81
7377.79,9.16
7451.56,9.56
7526.08,10.02
7601.34,10.55
7677.35,11.16
7754.13,11.82
7831.67,12.59
7909.98,13.38
7989.08,14.22
8068.98,14.99
8149.67,15.60
8231.16,15.97
8313.47,15.85
8396.61,15.48
8480.57,14.70
8565.38,13.73
8651.03,12.70
8737.54,11.65
8824.92,10.64
8913.17,9.73
9002.30,8.86
9092.32,8.11
9183.25,7.45
9275.08,6.85
9367.83,6.34
9461.51,5.92
9556.12,5.58
9651.68,5.31
9748.20,5.11
9845.68,5.02
9944.14,5.00
10043.58,5.08
10144.02,5.22
10245.46,5.51
10347.91,5.88
10451.39,6.37
10555.91,7.02
10661.46,7.79
10768.08,8.66
10875.76,9.61
10984.52,10.35
11094.36,10.73
11205.31,10.44
11317.36,9.16
11430.53,7.70
11544.84,6.07
11660.29,4.48
11776.89,2.97
11894.66,1.70
12013.60,0.47
12133.74,-0.65
12255.08,-1.62
12377.63,-2.50
12501.41,-3.30
12626.42,-3.98
12752.68,-4.61
12880.21,-5.17
13009.01,-5.71
13139.10,-6.25
13270.49,-6.67
13403.20,-6.89
13537.23,-6.92
13672.60,-6.95
13809.33,-6.97
13947.42,-6.93
14086.90,-6.83
14227.77,-6.70
14370.04,-6.54
14513.74,-6.33
14658.88,-6.05
14805.47,-5.76
14953.52,-5.46
15103.06,-4.89
15254.09,-4.18
15406.63,-2.87
15560.70,-1.43
15716.30,0.19
15873.47,1.41
16032.20,2.13
16192.52,1.32
16354.45,0.02
16517.99,-1.52
16683.17,-2.79
16850.01,-3.83
17018.51,-4.69
17188.69,-5.37
17360.58,-5.98
17534.18,-6.48
17709.53,-6.68
17886.62,-6.93
18065.49,-7.61
18246.14,-9.05
18428.60,-11.87
18612.89,-15.03
18799.02,-18.40
18987.01,-21.78
19176.88,-25.20
19368.65,-28.85
19562.33,-32.74
19757.96,-36.83
19955.54,-40.93
