frequency,raw
20.00,6.72
20.20,6.72
20.40,6.73
20.61,6.74
20.81,6.75
21.02,6.77
21.23,6.78
21.44,6.80
21.66,6.81
21.87,6.82
22.09,6.83
22.31,6.83
22.54,6.83
22.76,6.83
22.99,6.83
23.22,6.82
23.45,6.81
23.69,6.79
23.92,6.76
24.16,6.72
24.40,6.67
24.65,6.61
24.89,6.56
25.14,6.52
25.39,6.49
25.65,6.48
25.91,6.48
26.16,6.50
26.43,6.52
26.69,6.54
26.96,6.56
27.23,6.57
27.50,6.57
27.77,6.57
28.05,6.56
28.33,6.55
28.62,6.54
28.90,6.52
29.19,6.51
29.48,6.49
29.78,6.46
30.08,6.44
30.38,6.41
30.68,6.39
30.99,6.36
31.30,6.33
31.61,6.30
31.93,6.27
32.24,6.23
32.57,6.19
32.89,6.15
33.22,6.11
33.55,6.08
33.89,6.05
34.23,6.03
34.57,6.01
34.92,5.98
35.27,5.95
35.62,5.92
35.97,5.89
36.33,5.85
36.70,5.81
37.06,5.77
37.43,5.73
37.81,5.69
38.19,5.65
38.57,5.62
38.95,5.58
39.34,5.54
39.74,5.50
40.14,5.46
40.54,5.42
40.94,5.38
41.35,5.34
41.76,5.30
42.18,5.26
42.60,5.22
43.03,5.18
43.46,5.13
43.90,5.09
44.33,5.04
44.78,5.00
45.23,4.96
45.68,4.91
46.13,4.87
46.60,4.82
47.06,4.77
47.53,4.73
48.01,4.69
48.49,4.64
48.97,4.60
49.46,4.55
49.96,4.51
50.46,4.47
50.96,4.42
51.47,4.38
51.99,4.34
52.51,4.30
53.03,4.25
53.56,4.21
54.10,4.16
54.64,4.12
55.18,4.07
55.74,4.02
56.29,3.98
56.86,3.93
57.42,3.88
58.00,3.82
58.58,3.75
59.16,3.68
59.76,3.62
60.35,3.58
60.96,3.55
61.57,3.53
62.18,3.52
62.80,3.49
63.43,3.46
64.07,3.42
64.71,3.38
65.35,3.34
66.01,3.30
66.67,3.26
67.33,3.22
68.01,3.18
68.69,3.14
69.37,3.10
70.07,3.06
70.77,3.02
71.48,2.98
72.19,2.94
72.91,2.90
73.64,2.86
74.38,2.83
75.12,2.79
75.87,2.75
76.63,2.72
77.40,2.68
78.17,2.65
78.95,2.61
79.74,2.58
80.54,2.54
81.35,2.51
82.16,2.47
82.98,2.44
83.81,2.41
84.65,2.38
85.50,2.35
86.35,2.32
87.22,2.29
88.09,2.26
88.97,2.23
89.86,2.20
90.76,2.17
91.66,2.14
92.58,2.11
93.51,2.08
94.44,2.06
95.39,2.04
96.34,2.01
97.30,1.99
98.28,1.96
99.26,1.94
100.25,1.92
101.25,1.89
102.27,1.87
103.29,1.85
104.32,1.83
105.37,1.81
106.42,1.80
107.48,1.78
108.56,1.77
109.64,1.76
110.74,1.74
111.85,1.73
112.97,1.71
114.10,1.70
115.24,1.68
116.39,1.67
117.55,1.66
118.73,1.65
119.92,1.64
121.12,1.63
122.33,1.61
123.55,1.59
124.79,1.57
126.03,1.56
127.29,1.54
128.57,1.53
129.85,1.52
131.15,1.51
132.46,1.50
133.79,1.48
135.12,1.47
136.48,1.46
137.84,1.45
139.22,1.44
140.61,1.43
142.02,1.42
143.44,1.41
144.87,1.40
146.32,1.39
147.78,1.38
149.26,1.37
150.75,1.36
152.26,1.35
153.78,1.34
155.32,1.33
156.88,1.32
158.44,1.31
160.03,1.30
161.63,1.29
163.24,1.28
164.88,1.27
166.53,1.26
168.19,1.24
169.87,1.23
171.57,1.22
173.29,1.20
175.02,1.19
176.77,1.17
178.54,1.16
180.32,1.14
182.13,1.13
183.95,1.11
185.79,1.08
187.65,1.06
189.52,1.03
191.42,1.00
193.33,0.96
195.27,0.93
197.22,0.90
199.19,0.88
201.18,0.87
203.19,0.87
205.23,0.89
207.28,0.92
209.35,0.96
211.44,1.00
213.56,1.03
215.69,1.04
217.85,1.05
220.03,1.04
222.23,1.02
224.45,1.00
226.70,0.98
228.96,0.97
231.25,0.98
233.57,1.00
235.90,1.04
238.26,1.10
240.64,1.15
243.05,1.19
245.48,1.22
247.93,1.24
250.41,1.24
252.92,1.24
255.45,1.23
258.00,1.22
260.58,1.20
263.19,1.18
265.82,1.16
268.48,1.14
271.16,1.12
273.87,1.10
276.61,1.08
279.38,1.06
282.17,1.04
284.99,1.02
287.84,1.00
290.72,0.98
293.63,0.96
296.57,0.95
299.53,0.93
302.53,0.91
305.55,0.89
308.61,0.87
311.69,0.85
314.81,0.83
317.96,0.81
321.14,0.78
324.35,0.76
327.59,0.74
330.87,0.72
334.18,0.70
337.52,0.67
340.90,0.65
344.30,0.63
347.75,0.60
351.23,0.58
354.74,0.55
358.28,0.53
361.87,0.50
365.49,0.48
369.14,0.46
372.83,0.44
376.56,0.43
380.33,0.42
384.13,0.41
387.97,0.41
391.85,0.40
395.77,0.39
399.73,0.37
403.72,0.36
407.76,0.34
411.84,0.32
415.96,0.30
420.12,0.28
424.32,0.25
428.56,0.23
432.85,0.21
437.18,0.19
441.55,0.17
445.96,0.14
450.42,0.12
454.93,0.10
459.48,0.07
464.07,0.05
468.71,0.03
473.40,0.00
478.13,-0.02
482.91,-0.04
487.74,-0.07
492.62,-0.09
497.55,-0.11
502.52,-0.13
507.55,-0.16
512.62,-0.18
517.75,-0.20
522.93,-0.22
528.16,-0.24
533.44,-0.27
538.77,-0.29
544.16,-0.31
549.60,-0.33
555.10,-0.35
560.65,-0.37
566.25,-0.39
571.92,-0.41
577.64,-0.43
583.41,-0.45
589.25,-0.47
595.14,-0.49
601.09,-0.51
607.10,-0.53
613.17,-0.55
619.30,-0.57
625.50,-0.59
631.75,-0.61
638.07,-0.63
644.45,-0.65
650.89,-0.67
657.40,-0.69
663.98,-0.71
670.62,-0.72
677.32,-0.74
684.10,-0.76
690.94,-0.78
697.85,-0.79
704.83,-0.81
711.87,-0.82
718.99,-0.84
726.18,-0.85
733.44,-0.87
740.78,-0.88
748.19,-0.89
755.67,-0.90
763.23,-0.91
770.86,-0.92
778.57,-0.92
786.35,-0.92
794.22,-0.92
802.16,-0.92
810.18,-0.91
818.28,-0.90
826.46,-0.89
834.73,-0.87
843.08,-0.85
851.51,-0.82
860.02,-0.79
868.62,-0.76
877.31,-0.73
886.08,-0.69
894.94,-0.64
903.89,-0.60
912.93,-0.55
922.06,-0.50
931.28,-0.44
940.59,-0.39
950.00,-0.33
959.50,-0.27
969.09,-0.21
978.78,-0.14
988.57,-0.08
998.46,-0.01
1008.44,0.06
1018.53,0.13
1028.71,0.20
1039.00,0.27
1049.39,0.35
1059.88,0.43
1070.48,0.51
1081.19,0.59
1092.00,0.68
1102.92,0.76
1113.95,0.84
1125.09,0.90
1136.34,0.95
1147.70,0.98
1159.18,0.98
1170.77,0.99
1182.48,1.05
1194.30,1.18
1206.25,1.32
1218.31,1.49
1230.49,1.63
1242.80,1.75
1255.22,1.85
1267.78,1.94
1280.45,2.01
1293.26,2.09
1306.19,2.16
1319.25,2.23
1332.45,2.30
1345.77,2.36
1359.23,2.43
1372.82,2.49
1386.55,2.55
1400.41,2.60
1414.42,2.66
1428.56,2.71
1442.85,2.77
1457.28,2.82
1471.85,2.87
1486.57,2.92
1501.43,2.97
1516.45,3.02
1531.61,3.07
1546.93,3.12
1562.40,3.17
1578.02,3.21
1593.80,3.26
1609.74,3.31
1625.84,3.36
1642.10,3.41
1658.52,3.45
1675.10,3.50
1691.85,3.55
1708.77,3.60
1725.86,3.65
1743.12,3.70
1760.55,3.76
1778.15,3.81
1795.94,3.87
1813.90,3.92
1832.03,3.98
1850.36,4.04
1868.86,4.10
1887.55,4.16
1906.42,4.22
1925.49,4.28
1944.74,4.35
1964.19,4.41
1983.83,4.48
2003.67,4.55
2023.71,4.62
2043.94,4.69
2064.38,4.76
2085.03,4.84
2105.88,4.91
2126.94,4.99
2148.20,5.07
2169.69,5.16
2191.38,5.25
2213.30,5.34
2235.43,5.43
2257.78,5.54
2280.36,5.64
2303.17,5.76
2326.20,5.88
2349.46,6.01
2372.95,6.15
2396.68,6.30
2420.65,6.46
2444.86,6.63
2469.31,6.81
2494.00,7.00
2518.94,7.20
2544.13,7.41
2569.57,7.62
2595.27,7.82
2621.22,8.03
2647.43,8.21
2673.90,8.37
2700.64,8.50
2727.65,8.59
2754.93,8.66
2782.48,8.69
2810.30,8.69
2838.40,8.67
2866.79,8.64
2895.46,8.59
2924.41,8.52
2953.65,8.45
2983.19,8.37
3013.02,8.28
3043.15,8.19
3073.58,8.11
3104.32,8.02
3135.36,7.93
3166.72,7.84
3198.38,7.76
3230.37,7.68
3262.67,7.60
3295.30,7.52
3328.25,7.45
3361.53,7.39
3395.15,7.34
3429.10,7.30
3463.39,7.27
3498.03,7.25
3533.01,7.24
3568.34,7.24
3604.02,7.25
3640.06,7.26
3676.46,7.27
3713.22,7.28
3750.36,7.29
3787.86,7.31
3825.74,7.32
3864.00,7.33
3902.64,7.34
3941.66,7.34
3981.08,7.34
4020.89,7.34
4061.10,7.33
4101.71,7.30
4142.73,7.26
4184.15,7.21
4226.00,7.13
4268.26,7.03
4310.94,6.91
4354.05,6.75
4397.59,6.55
4441.56,6.34
4485.98,6.07
4530.84,5.76
4576.15,5.41
4621.91,5.03
4668.13,4.61
4714.81,4.14
4761.96,3.66
4809.58,3.16
4857.67,2.65
4906.25,2.15
4955.31,1.66
5004.87,1.19
5054.91,0.76
5105.46,0.34
5156.52,-0.05
5208.08,-0.43
5260.16,-0.82
5312.77,-1.21
5365.89,-1.61
5419.55,-2.04
5473.75,-2.49
5528.49,-2.94
5583.77,-3.40
5639.61,-3.84
5696.00,-4.26
5752.96,-4.62
5810.49,-4.97
5868.60,-5.24
5927.28,-5.50
5986.56,-5.72
6046.42,-5.92
6106.89,-6.11
6167.96,-6.29
6229.64,-6.45
6291.93,-6.57
6354.85,-6.61
6418.40,-6.60
6482.58,-6.49
6547.41,-6.25
6612.88,-5.94
6679.01,-5.51
6745.80,-5.02
6813.26,-4.50
6881.39,-3.95
6950.21,-3.40
7019.71,-2.86
7089.91,-2.33
7160.81,-1.84
7232.41,-1.37
7304.74,-0.92
7377.79,-0.51
7451.56,-0.12
7526.08,0.25
7601.34,0.60
7677.35,0.93
7754.13,1.26
7831.67,1.53
7909.98,1.78
7989.08,1.98
8068.98,2.08
8149.67,2.11
8231.16,2.05
8313.47,1.87
8396.61,1.62
8480.57,1.25
8565.38,0.78
8651.03,0.24
8737.54,-0.38
8824.92,-1.07
8913.17,-1.83
9002.30,-2.60
9092.32,-3.40
9183.25,-4.18
9275.08,-4.90
9367.83,-5.53
9461.51,-5.96
9556.12,-6.21
9651.68,-6.28
9748.20,-6.18
9845.68,-5.90
9944.14,-5.55
10043.58,-5.15
10144.02,-4.72
10245.46,-4.31
10347.91,-3.90
10451.39,-3.51
10555.91,-3.15
10661.46,-2.81
10768.08,-2.49
10875.76,-2.20
10984.52,-1.93
11094.36,-1.69
11205.31,-1.46
11317.36,-1.28
11430.53,-1.12
11544.84,-1.00
11660.29,-0.91
11776.89,-0.86
11894.66,-0.89
12013.60,-0.94
12133.74,-1.06
12255.08,-1.24
12377.63,-1.47
12501.41,-1.75
12626.42,-2.12
12752.68,-2.55
12880.21,-3.06
13009.01,-3.63
13139.10,-4.19
13270.49,-4.84
13403.20,-5.50
13537.23,-6.16
13672.60,-6.75
13809.33,-7.28
13947.42,-7.63
14086.90,-7.83
14227.77,-7.94
14370.04,-7.99
14513.74,-7.96
14658.88,-7.91
14805.47,-7.87
14953.52,-7.83
15103.06,-7.80
15254.09,-7.78
15406.63,-7.75
15560.70,-7.71
15716.30,-7.66
15873.47,-7.57
16032.20,-7.47
16192.52,-7.31
16354.45,-7.10
16517.99,-6.86
16683.17,-6.54
16850.01,-6.18
17018.51,-5.79
17188.69,-5.38
17360.58,-5.01
17534.18,-4.70
17709.53,-4.55
17886.62,-4.65
18065.49,-4.96
18246.14,-5.53
18428.60,-6.51
18612.89,-7.73
18799.02,-9.18
18987.01,-10.85
19176.88,-12.73
19368.65,-14.74
19562.33,-16.82
19757.96,-18.93
19955.54,-21.05
