frequency,raw
20.00,5.09
20.20,5.12
20.40,5.16
20.61,5.19
20.81,5.22
21.02,5.24
21.23,5.27
21.44,5.30
21.66,5.34
21.87,5.37
22.09,5.41
22.31,5.45
22.54,5.49
22.76,5.53
22.99,5.56
23.22,5.60
23.45,5.63
23.69,5.66
23.92,5.69
24.16,5.72
24.40,5.74
24.65,5.77
24.89,5.79
25.14,5.81
25.39,5.84
25.65,5.86
25.91,5.88
26.16,5.90
26.43,5.92
26.69,5.95
26.96,5.97
27.23,6.00
27.50,6.02
27.77,6.05
28.05,6.07
28.33,6.09
28.62,6.11
28.90,6.13
29.19,6.14
29.48,6.15
29.78,6.17
30.08,6.18
30.38,6.19
30.68,6.21
30.99,6.23
31.30,6.24
31.61,6.26
31.93,6.28
32.24,6.29
32.57,6.30
32.89,6.32
33.22,6.33
33.55,6.34
33.89,6.35
34.23,6.36
34.57,6.37
34.92,6.38
35.27,6.39
35.62,6.40
35.97,6.41
36.33,6.41
36.70,6.42
37.06,6.42
37.43,6.43
37.81,6.43
38.19,6.44
38.57,6.44
38.95,6.44
39.34,6.45
39.74,6.45
40.14,6.45
40.54,6.45
40.94,6.45
41.35,6.46
41.76,6.46
42.18,6.46
42.60,6.46
43.03,6.45
43.46,6.45
43.90,6.45
44.33,6.45
44.78,6.44
45.23,6.43
45.68,6.43
46.13,6.43
46.60,6.42
47.06,6.41
47.53,6.40
48.01,6.38
48.49,6.38
48.97,6.39
49.46,6.39
49.96,6.37
50.46,6.36
50.96,6.35
51.47,6.35
51.99,6.32
52.51,6.27
53.03,6.22
53.56,6.23
54.10,6.25
54.64,6.27
55.18,6.26
55.74,6.24
56.29,6.22
56.86,6.21
57.42,6.19
58.00,6.17
58.58,6.16
59.16,6.15
59.76,6.14
60.35,6.12
60.96,6.10
61.57,6.08
62.18,6.08
62.80,6.07
63.43,6.06
64.07,6.04
64.71,6.03
65.35,6.02
66.01,6.01
66.67,5.99
67.33,5.96
68.01,5.94
68.69,5.92
69.37,5.90
70.07,5.88
70.77,5.85
71.48,5.83
72.19,5.80
72.91,5.78
73.64,5.75
74.38,5.73
75.12,5.70
75.87,5.67
76.63,5.65
77.40,5.62
78.17,5.59
78.95,5.56
79.74,5.53
80.54,5.50
81.35,5.47
82.16,5.44
82.98,5.41
83.81,5.38
84.65,5.34
85.50,5.31
86.35,5.28
87.22,5.24
88.09,5.21
88.97,5.18
89.86,5.14
90.76,5.11
91.66,5.07
92.58,5.04
93.51,5.00
94.44,4.96
95.39,4.93
96.34,4.89
97.30,4.85
98.28,4.82
99.26,4.78
100.25,4.74
101.25,4.70
102.27,4.66
103.29,4.62
104.32,4.58
105.37,4.54
106.42,4.50
107.48,4.46
108.56,4.42
109.64,4.37
110.74,4.33
111.85,4.29
112.97,4.25
114.10,4.20
115.24,4.16
116.39,4.12
117.55,4.07
118.73,4.03
119.92,3.98
121.12,3.94
122.33,3.89
123.55,3.84
124.79,3.80
126.03,3.75
127.29,3.70
128.57,3.65
129.85,3.61
131.15,3.56
132.46,3.51
133.79,3.46
135.12,3.41
136.48,3.36
137.84,3.31
139.22,3.26
140.61,3.21
142.02,3.16
143.44,3.11
144.87,3.06
146.32,3.00
147.78,2.95
149.26,2.90
150.75,2.84
152.26,2.79
153.78,2.73
155.32,2.68
156.88,2.63
158.44,2.58
160.03,2.52
161.63,2.47
163.24,2.42
164.88,2.38
166.53,2.33
168.19,2.29
169.87,2.25
171.57,2.22
173.29,2.19
175.02,2.16
176.77,2.12
178.54,2.09
180.32,2.06
182.13,2.01
183.95,1.96
185.79,1.91
187.65,1.85
189.52,1.80
191.42,1.74
193.33,1.69
195.27,1.65
197.22,1.61
199.19,1.57
201.18,1.54
203.19,1.51
205.23,1.48
207.28,1.44
209.35,1.40
211.44,1.36
213.56,1.31
215.69,1.26
217.85,1.20
220.03,1.15
222.23,1.09
224.45,1.04
226.70,0.98
228.96,0.93
231.25,0.87
233.57,0.82
235.90,0.77
238.26,0.72
240.64,0.68
243.05,0.63
245.48,0.59
247.93,0.54
250.41,0.50
252.92,0.45
255.45,0.40
258.00,0.36
260.58,0.30
263.19,0.25
265.82,0.20
268.48,0.15
271.16,0.10
273.87,0.05
276.61,-0.00
279.38,-0.05
282.17,-0.11
284.99,-0.16
287.84,-0.21
290.72,-0.26
293.63,-0.31
296.57,-0.36
299.53,-0.42
302.53,-0.46
305.55,-0.50
308.61,-0.54
311.69,-0.59
314.81,-0.63
317.96,-0.67
321.14,-0.71
324.35,-0.75
327.59,-0.79
330.87,-0.82
334.18,-0.86
337.52,-0.90
340.90,-0.93
344.30,-0.97
347.75,-1.01
351.23,-1.04
354.74,-1.08
358.28,-1.12
361.87,-1.16
365.49,-1.20
369.14,-1.24
372.83,-1.28
376.56,-1.31
380.33,-1.35
384.13,-1.39
387.97,-1.43
391.85,-1.47
395.77,-1.50
399.73,-1.54
403.72,-1.58
407.76,-1.61
411.84,-1.64
415.96,-1.68
420.12,-1.71
424.32,-1.75
428.56,-1.78
432.85,-1.81
437.18,-1.84
441.55,-1.87
445.96,-1.90
450.42,-1.93
454.93,-1.96
459.48,-1.99
464.07,-2.01
468.71,-2.04
473.40,-2.07
478.13,-2.09
482.91,-2.12
487.74,-2.14
492.62,-2.17
497.55,-2.19
502.52,-2.21
507.55,-2.23
512.62,-2.25
517.75,-2.26
522.93,-2.28
528.16,-2.28
533.44,-2.29
538.77,-2.28
544.16,-2.28
549.60,-2.28
555.10,-2.27
560.65,-2.27
566.25,-2.27
571.92,-2.27
577.64,-2.27
583.41,-2.27
589.25,-2.28
595.14,-2.28
601.09,-2.28
607.10,-2.28
613.17,-2.28
619.30,-2.27
625.50,-2.27
631.75,-2.26
638.07,-2.26
644.45,-2.25
650.89,-2.24
657.40,-2.22
663.98,-2.21
670.62,-2.20
677.32,-2.18
684.10,-2.16
690.94,-2.14
697.85,-2.12
704.83,-2.10
711.87,-2.07
718.99,-2.04
726.18,-2.01
733.44,-1.98
740.78,-1.95
748.19,-1.91
755.67,-1.87
763.23,-1.84
770.86,-1.79
778.57,-1.75
786.35,-1.71
794.22,-1.66
802.16,-1.61
810.18,-1.56
818.28,-1.51
826.46,-1.45
834.73,-1.40
843.08,-1.34
851.51,-1.28
860.02,-1.21
868.62,-1.15
877.31,-1.08
886.08,-1.01
894.94,-0.93
903.89,-0.86
912.93,-0.79
922.06,-0.71
931.28,-0.63
940.59,-0.54
950.00,-0.46
959.50,-0.37
969.09,-0.29
978.78,-0.20
988.57,-0.11
998.46,-0.01
1008.44,0.08
1018.53,0.17
1028.71,0.26
1039.00,0.36
1049.39,0.45
1059.88,0.55
1070.48,0.64
1081.19,0.73
1092.00,0.82
1102.92,0.91
1113.95,0.99
1125.09,1.07
1136.34,1.15
1147.70,1.23
1159.18,1.30
1170.77,1.37
1182.48,1.43
1194.30,1.49
1206.25,1.55
1218.31,1.59
1230.49,1.64
1242.80,1.68
1255.22,1.71
1267.78,1.73
1280.45,1.76
1293.26,1.77
1306.19,1.78
1319.25,1.79
1332.45,1.79
1345.77,1.78
1359.23,1.77
1372.82,1.76
1386.55,1.75
1400.41,1.73
1414.42,1.71
1428.56,1.69
1442.85,1.67
1457.28,1.65
1471.85,1.63
1486.57,1.61
1501.43,1.60
1516.45,1.58
1531.61,1.56
1546.93,1.55
1562.40,1.55
1578.02,1.54
1593.80,1.55
1609.74,1.55
1625.84,1.56
1642.10,1.58
1658.52,1.60
1675.10,1.63
1691.85,1.67
1708.77,1.71
1725.86,1.76
1743.12,1.81
1760.55,1.87
1778.15,1.94
1795.94,2.01
1813.90,2.10
1832.03,2.18
1850.36,2.28
1868.86,2.38
1887.55,2.48
1906.42,2.60
1925.49,2.71
1944.74,2.84
1964.19,2.96
1983.83,3.09
2003.67,3.23
2023.71,3.37
2043.94,3.50
2064.38,3.65
2085.03,3.79
2105.88,3.93
2126.94,4.07
2148.20,4.21
2169.69,4.35
2191.38,4.49
2213.30,4.62
2235.43,4.75
2257.78,4.86
2280.36,4.98
2303.17,5.09
2326.20,5.18
2349.46,5.28
2372.95,5.37
2396.68,5.45
2420.65,5.54
2444.86,5.63
2469.31,5.71
2494.00,5.80
2518.94,5.87
2544.13,5.93
2569.57,5.97
2595.27,5.99
2621.22,6.01
2647.43,6.02
2673.90,6.02
2700.64,6.02
2727.65,6.02
2754.93,6.03
2782.48,6.04
2810.30,6.06
2838.40,6.09
2866.79,6.12
2895.46,6.16
2924.41,6.21
2953.65,6.25
2983.19,6.30
3013.02,6.35
3043.15,6.40
3073.58,6.45
3104.32,6.50
3135.36,6.55
3166.72,6.61
3198.38,6.68
3230.37,6.74
3262.67,6.81
3295.30,6.88
3328.25,6.95
3361.53,7.02
3395.15,7.09
3429.10,7.17
3463.39,7.24
3498.03,7.31
3533.01,7.39
3568.34,7.46
3604.02,7.54
3640.06,7.62
3676.46,7.70
3713.22,7.77
3750.36,7.84
3787.86,7.91
3825.74,7.97
3864.00,8.02
3902.64,8.04
3941.66,8.06
3981.08,8.05
4020.89,8.01
4061.10,7.95
4101.71,7.84
4142.73,7.71
4184.15,7.54
4226.00,7.35
4268.26,7.14
4310.94,6.92
4354.05,6.72
4397.59,6.54
4441.56,6.38
4485.98,6.29
4530.84,6.24
4576.15,6.27
4621.91,6.34
4668.13,6.49
4714.81,6.70
4761.96,6.94
4809.58,7.22
4857.67,7.53
4906.25,7.85
4955.31,8.16
5004.87,8.46
5054.91,8.71
5105.46,8.93
5156.52,9.10
5208.08,9.18
5260.16,9.19
5312.77,9.16
5365.89,9.05
5419.55,8.89
5473.75,8.70
5528.49,8.48
5583.77,8.26
5639.61,8.03
5696.00,7.81
5752.96,7.61
5810.49,7.42
5868.60,7.25
5927.28,7.09
5986.56,6.95
6046.42,6.82
6106.89,6.69
6167.96,6.56
6229.64,6.43
6291.93,6.28
6354.85,6.13
6418.40,5.96
6482.58,5.79
6547.41,5.62
6612.88,5.45
6679.01,5.30
6745.80,5.18
6813.26,5.09
6881.39,5.04
6950.21,5.05
7019.71,5.10
7089.91,5.20
7160.81,5.40
7232.41,5.65
7304.74,5.96
7377.79,6.38
7451.56,6.88
7526.08,7.42
7601.34,8.00
7677.35,8.67
7754.13,9.35
7831.67,9.93
7909.98,10.38
7989.08,10.63
8068.98,10.48
8149.67,10.14
8231.16,9.55
8313.47,8.85
8396.61,8.11
8480.57,7.37
8565.38,6.67
8651.03,6.01
8737.54,5.39
8824.92,4.83
8913.17,4.35
9002.30,3.89
9092.32,3.52
9183.25,3.22
9275.08,2.96
9367.83,2.75
9461.51,2.59
9556.12,2.46
9651.68,2.34
9748.20,2.23
9845.68,2.07
9944.14,1.86
10043.58,1.57
10144.02,1.20
10245.46,0.69
10347.91,0.10
10451.39,-0.57
10555.91,-1.33
10661.46,-2.11
10768.08,-2.91
10875.76,-3.70
10984.52,-4.47
11094.36,-5.21
11205.31,-5.91
11317.36,-6.53
11430.53,-7.11
11544.84,-7.60
11660.29,-8.03
11776.89,-8.39
11894.66,-8.59
12013.60,-8.76
12133.74,-8.80
12255.08,-8.72
12377.63,-8.56
12501.41,-8.37
12626.42,-8.17
12752.68,-7.97
12880.21,-7.80
13009.01,-7.66
13139.10,-7.52
13270.49,-7.46
13403.20,-7.42
13537.23,-7.42
13672.60,-7.46
13809.33,-7.51
13947.42,-7.60
14086.90,-7.68
14227.77,-7.75
14370.04,-7.75
14513.74,-7.65
14658.88,-7.37
14805.47,-7.00
14953.52,-6.45
15103.06,-6.18
15254.09,-6.03
15406.63,-6.16
15560.70,-6.47
15716.30,-7.05
15873.47,-7.84
16032.20,-8.68
16192.52,-9.55
16354.45,-10.40
16517.99,-11.25
16683.17,-12.11
16850.01,-13.00
17018.51,-13.93
17188.69,-14.89
17360.58,-15.83
17534.18,-16.72
17709.53,-17.53
17886.62,-18.18
18065.49,-18.63
18246.14,-18.80
18428.60,-18.10
18612.89,-17.00
18799.02,-15.89
18987.01,-15.48
19176.88,-12.83
19368.65,-12.50
19562.33,-14.32
19757.96,-17.42
19955.54,-20.52
