frequency,raw
20.00,2.23
20.20,2.25
20.40,2.26
20.61,2.28
20.81,2.29
21.02,2.30
21.23,2.31
21.44,2.33
21.66,2.34
21.87,2.36
22.09,2.37
22.31,2.38
22.54,2.40
22.76,2.41
22.99,2.42
23.22,2.43
23.45,2.44
23.69,2.45
23.92,2.46
24.16,2.46
24.40,2.47
24.65,2.48
24.89,2.49
25.14,2.49
25.39,2.50
25.65,2.51
25.91,2.52
26.16,2.53
26.43,2.55
26.69,2.56
26.96,2.57
27.23,2.58
27.50,2.58
27.77,2.59
28.05,2.59
28.33,2.60
28.62,2.60
28.90,2.61
29.19,2.62
29.48,2.63
29.78,2.63
30.08,2.64
30.38,2.64
30.68,2.64
30.99,2.65
31.30,2.65
31.61,2.66
31.93,2.66
32.24,2.67
32.57,2.67
32.89,2.67
33.22,2.68
33.55,2.68
33.89,2.68
34.23,2.69
34.57,2.69
34.92,2.69
35.27,2.70
35.62,2.70
35.97,2.70
36.33,2.71
36.70,2.71
37.06,2.71
37.43,2.71
37.81,2.71
38.19,2.71
38.57,2.71
38.95,2.71
39.34,2.71
39.74,2.71
40.14,2.71
40.54,2.71
40.94,2.71
41.35,2.71
41.76,2.71
42.18,2.71
42.60,2.71
43.03,2.70
43.46,2.70
43.90,2.70
44.33,2.70
44.78,2.69
45.23,2.69
45.68,2.69
46.13,2.68
46.60,2.68
47.06,2.67
47.53,2.67
48.01,2.66
48.49,2.66
48.97,2.65
49.46,2.65
49.96,2.64
50.46,2.64
50.96,2.63
51.47,2.62
51.99,2.62
52.51,2.61
53.03,2.60
53.56,2.60
54.10,2.59
54.64,2.58
55.18,2.57
55.74,2.56
56.29,2.55
56.86,2.54
57.42,2.54
58.00,2.53
58.58,2.51
59.16,2.50
59.76,2.48
60.35,2.48
60.96,2.47
61.57,2.46
62.18,2.45
62.80,2.44
63.43,2.43
64.07,2.41
64.71,2.40
65.35,2.39
66.01,2.38
66.67,2.36
67.33,2.35
68.01,2.34
68.69,2.32
69.37,2.31
70.07,2.29
70.77,2.28
71.48,2.26
72.19,2.25
72.91,2.23
73.64,2.22
74.38,2.20
75.12,2.19
75.87,2.17
76.63,2.15
77.40,2.13
78.17,2.12
78.95,2.10
79.74,2.08
80.54,2.06
81.35,2.05
82.16,2.03
82.98,2.01
83.81,1.99
84.65,1.97
85.50,1.95
86.35,1.93
87.22,1.91
88.09,1.89
88.97,1.87
89.86,1.85
90.76,1.83
91.66,1.81
92.58,1.79
93.51,1.77
94.44,1.75
95.39,1.72
96.34,1.70
97.30,1.68
98.28,1.66
99.26,1.64
100.25,1.62
101.25,1.60
102.27,1.58
103.29,1.56
104.32,1.55
105.37,1.52
106.42,1.50
107.48,1.49
108.56,1.46
109.64,1.45
110.74,1.43
111.85,1.40
112.97,1.38
114.10,1.36
115.24,1.34
116.39,1.32
117.55,1.31
118.73,1.29
119.92,1.28
121.12,1.26
122.33,1.24
123.55,1.23
124.79,1.21
126.03,1.20
127.29,1.19
128.57,1.18
129.85,1.16
131.15,1.14
132.46,1.12
133.79,1.10
135.12,1.08
136.48,1.05
137.84,1.03
139.22,1.00
140.61,0.98
142.02,0.95
143.44,0.93
144.87,0.90
146.32,0.88
147.78,0.85
149.26,0.83
150.75,0.80
152.26,0.78
153.78,0.75
155.32,0.73
156.88,0.70
158.44,0.68
160.03,0.66
161.63,0.63
163.24,0.61
164.88,0.59
166.53,0.56
168.19,0.54
169.87,0.52
171.57,0.49
173.29,0.47
175.02,0.44
176.77,0.42
178.54,0.40
180.32,0.38
182.13,0.35
183.95,0.33
185.79,0.31
187.65,0.28
189.52,0.26
191.42,0.24
193.33,0.22
195.27,0.20
197.22,0.18
199.19,0.16
201.18,0.14
203.19,0.12
205.23,0.10
207.28,0.08
209.35,0.06
211.44,0.04
213.56,0.03
215.69,0.02
217.85,0.00
220.03,-0.01
222.23,-0.03
224.45,-0.04
226.70,-0.06
228.96,-0.07
231.25,-0.09
233.57,-0.11
235.90,-0.13
238.26,-0.14
240.64,-0.16
243.05,-0.19
245.48,-0.21
247.93,-0.23
250.41,-0.25
252.92,-0.27
255.45,-0.28
258.00,-0.30
260.58,-0.32
263.19,-0.34
265.82,-0.35
268.48,-0.37
271.16,-0.39
273.87,-0.41
276.61,-0.42
279.38,-0.44
282.17,-0.46
284.99,-0.48
287.84,-0.49
290.72,-0.51
293.63,-0.53
296.57,-0.54
299.53,-0.56
302.53,-0.58
305.55,-0.59
308.61,-0.61
311.69,-0.63
314.81,-0.64
317.96,-0.66
321.14,-0.68
324.35,-0.69
327.59,-0.71
330.87,-0.72
334.18,-0.74
337.52,-0.75
340.90,-0.77
344.30,-0.78
347.75,-0.80
351.23,-0.81
354.74,-0.83
358.28,-0.84
361.87,-0.86
365.49,-0.87
369.14,-0.89
372.83,-0.90
376.56,-0.91
380.33,-0.93
384.13,-0.94
387.97,-0.95
391.85,-0.97
395.77,-0.98
399.73,-0.99
403.72,-1.01
407.76,-1.02
411.84,-1.03
415.96,-1.04
420.12,-1.06
424.32,-1.07
428.56,-1.08
432.85,-1.09
437.18,-1.10
441.55,-1.12
445.96,-1.13
450.42,-1.14
454.93,-1.15
459.48,-1.16
464.07,-1.17
468.71,-1.18
473.40,-1.19
478.13,-1.20
482.91,-1.21
487.74,-1.22
492.62,-1.23
497.55,-1.24
502.52,-1.25
507.55,-1.26
512.62,-1.27
517.75,-1.28
522.93,-1.29
528.16,-1.30
533.44,-1.30
538.77,-1.31
544.16,-1.32
549.60,-1.33
555.10,-1.33
560.65,-1.34
566.25,-1.34
571.92,-1.35
577.64,-1.36
583.41,-1.36
589.25,-1.37
595.14,-1.37
601.09,-1.38
607.10,-1.38
613.17,-1.39
619.30,-1.39
625.50,-1.39
631.75,-1.39
638.07,-1.39
644.45,-1.40
650.89,-1.40
657.40,-1.40
663.98,-1.40
670.62,-1.40
677.32,-1.39
684.10,-1.39
690.94,-1.39
697.85,-1.38
704.83,-1.38
711.87,-1.37
718.99,-1.37
726.18,-1.36
733.44,-1.35
740.78,-1.34
748.19,-1.33
755.67,-1.31
763.23,-1.30
770.86,-1.28
778.57,-1.27
786.35,-1.25
794.22,-1.23
802.16,-1.21
810.18,-1.18
818.28,-1.15
826.46,-1.13
834.73,-1.10
843.08,-1.06
851.51,-1.03
860.02,-0.99
868.62,-0.95
877.31,-0.90
886.08,-0.86
894.94,-0.81
903.89,-0.75
912.93,-0.70
922.06,-0.64
931.28,-0.57
940.59,-0.50
950.00,-0.43
959.50,-0.36
969.09,-0.28
978.78,-0.19
988.57,-0.11
998.46,-0.01
1008.44,0.08
1018.53,0.18
1028.71,0.28
1039.00,0.39
1049.39,0.50
1059.88,0.61
1070.48,0.73
1081.19,0.85
1092.00,0.97
1102.92,1.09
1113.95,1.22
1125.09,1.34
1136.34,1.47
1147.70,1.60
1159.18,1.73
1170.77,1.86
1182.48,1.99
1194.30,2.11
1206.25,2.24
1218.31,2.36
1230.49,2.49
1242.80,2.61
1255.22,2.73
1267.78,2.85
1280.45,2.96
1293.26,3.07
1306.19,3.18
1319.25,3.29
1332.45,3.40
1345.77,3.51
1359.23,3.61
1372.82,3.70
1386.55,3.80
1400.41,3.90
1414.42,3.99
1428.56,4.09
1442.85,4.18
1457.28,4.27
1471.85,4.35
1486.57,4.44
1501.43,4.53
1516.45,4.61
1531.61,4.70
1546.93,4.78
1562.40,4.85
1578.02,4.93
1593.80,5.00
1609.74,5.05
1625.84,5.10
1642.10,5.12
1658.52,5.13
1675.10,5.12
1691.85,5.09
1708.77,5.06
1725.86,5.04
1743.12,5.05
1760.55,5.06
1778.15,5.08
1795.94,5.11
1813.90,5.13
1832.03,5.16
1850.36,5.21
1868.86,5.28
1887.55,5.36
1906.42,5.47
1925.49,5.58
1944.74,5.70
1964.19,5.82
1983.83,5.94
2003.67,6.06
2023.71,6.17
2043.94,6.27
2064.38,6.37
2085.03,6.46
2105.88,6.55
2126.94,6.63
2148.20,6.70
2169.69,6.77
2191.38,6.83
2213.30,6.87
2235.43,6.92
2257.78,6.95
2280.36,6.98
2303.17,7.00
2326.20,7.01
2349.46,7.02
2372.95,7.01
2396.68,7.00
2420.65,6.99
2444.86,6.98
2469.31,6.97
2494.00,6.95
2518.94,6.94
2544.13,6.92
2569.57,6.90
2595.27,6.87
2621.22,6.85
2647.43,6.82
2673.90,6.77
2700.64,6.72
2727.65,6.67
2754.93,6.61
2782.48,6.55
2810.30,6.48
2838.40,6.41
2866.79,6.34
2895.46,6.26
2924.41,6.18
2953.65,6.11
2983.19,6.03
3013.02,5.95
3043.15,5.86
3073.58,5.78
3104.32,5.70
3135.36,5.62
3166.72,5.55
3198.38,5.48
3230.37,5.41
3262.67,5.36
3295.30,5.30
3328.25,5.25
3361.53,5.21
3395.15,5.17
3429.10,5.13
3463.39,5.10
3498.03,5.06
3533.01,5.04
3568.34,5.01
3604.02,4.99
3640.06,4.98
3676.46,4.96
3713.22,4.95
3750.36,4.94
3787.86,4.94
3825.74,4.93
3864.00,4.92
3902.64,4.91
3941.66,4.90
3981.08,4.89
4020.89,4.88
4061.10,4.87
4101.71,4.85
4142.73,4.83
4184.15,4.80
4226.00,4.77
4268.26,4.74
4310.94,4.70
4354.05,4.65
4397.59,4.61
4441.56,4.56
4485.98,4.50
4530.84,4.44
4576.15,4.37
4621.91,4.30
4668.13,4.23
4714.81,4.14
4761.96,4.04
4809.58,3.94
4857.67,3.82
4906.25,3.68
4955.31,3.53
5004.87,3.37
5054.91,3.20
5105.46,3.02
5156.52,2.84
5208.08,2.64
5260.16,2.45
5312.77,2.26
5365.89,2.06
5419.55,1.87
5473.75,1.67
5528.49,1.48
5583.77,1.30
5639.61,1.12
5696.00,0.94
5752.96,0.76
5810.49,0.58
5868.60,0.41
5927.28,0.23
5986.56,0.06
6046.42,-0.11
6106.89,-0.28
6167.96,-0.45
6229.64,-0.61
6291.93,-0.77
6354.85,-0.92
6418.40,-1.07
6482.58,-1.21
6547.41,-1.35
6612.88,-1.48
6679.01,-1.60
6745.80,-1.71
6813.26,-1.82
6881.39,-1.92
6950.21,-2.01
7019.71,-2.09
7089.91,-2.16
7160.81,-2.20
7232.41,-2.22
7304.74,-2.22
7377.79,-2.20
7451.56,-2.17
7526.08,-2.11
7601.34,-2.04
7677.35,-1.94
7754.13,-1.82
7831.67,-1.67
7909.98,-1.51
7989.08,-1.34
8068.98,-1.14
8149.67,-0.92
8231.16,-0.70
8313.47,-0.44
8396.61,-0.18
8480.57,0.12
8565.38,0.43
8651.03,0.76
8737.54,1.09
8824.92,1.42
8913.17,1.75
9002.30,2.07
9092.32,2.35
9183.25,2.61
9275.08,2.83
9367.83,3.01
9461.51,3.13
9556.12,3.23
9651.68,3.31
9748.20,3.37
9845.68,3.41
9944.14,3.46
10043.58,3.52
10144.02,3.60
10245.46,3.73
10347.91,3.90
10451.39,4.11
10555.91,4.38
10661.46,4.68
10768.08,5.00
10875.76,5.28
10984.52,5.41
11094.36,5.36
11205.31,5.03
11317.36,4.23
11430.53,3.27
11544.84,2.07
11660.29,0.78
11776.89,-0.50
11894.66,-1.73
12013.60,-2.93
12133.74,-4.07
12255.08,-5.10
12377.63,-6.07
12501.41,-6.96
12626.42,-7.76
12752.68,-8.47
12880.21,-9.07
13009.01,-9.62
13139.10,-10.17
13270.49,-10.57
13403.20,-10.94
13537.23,-11.19
13672.60,-11.38
13809.33,-11.52
13947.42,-11.52
14086.90,-11.42
14227.77,-11.27
14370.04,-11.02
14513.74,-10.66
14658.88,-10.12
14805.47,-9.49
14953.52,-8.71
15103.06,-7.73
15254.09,-6.67
15406.63,-5.45
15560.70,-4.40
15716.30,-3.60
15873.47,-3.71
16032.20,-4.25
16192.52,-5.43
16354.45,-6.65
16517.99,-7.86
16683.17,-8.87
16850.01,-9.80
17018.51,-10.72
17188.69,-11.90
17360.58,-13.54
17534.18,-15.55
17709.53,-18.04
17886.62,-20.71
18065.49,-23.33
18246.14,-25.76
18428.60,-27.65
18612.89,-29.14
18799.02,-30.27
18987.01,-31.10
19176.88,-31.84
19368.65,-32.42
19562.33,-33.11
19757.96,-34.21
19955.54,-35.31
