frequency,raw
20.00,4.59
20.20,4.63
20.40,4.66
20.61,4.70
20.81,4.74
21.02,4.78
21.23,4.82
21.44,4.86
21.66,4.90
21.87,4.94
22.09,4.98
22.31,5.02
22.54,5.05
22.76,5.09
22.99,5.13
23.22,5.17
23.45,5.22
23.69,5.26
23.92,5.29
24.16,5.32
24.40,5.35
24.65,5.37
24.89,5.40
25.14,5.42
25.39,5.45
25.65,5.49
25.91,5.53
26.16,5.58
26.43,5.63
26.69,5.67
26.96,5.71
27.23,5.74
27.50,5.75
27.77,5.76
28.05,5.77
28.33,5.78
28.62,5.80
28.90,5.83
29.19,5.85
29.48,5.88
29.78,5.91
30.08,5.93
30.38,5.96
30.68,5.98
30.99,6.00
31.30,6.02
31.61,6.04
31.93,6.07
32.24,6.09
32.57,6.11
32.89,6.13
33.22,6.15
33.55,6.16
33.89,6.18
34.23,6.20
34.57,6.21
34.92,6.23
35.27,6.25
35.62,6.26
35.97,6.28
36.33,6.29
36.70,6.30
37.06,6.31
37.43,6.33
37.81,6.34
38.19,6.35
38.57,6.36
38.95,6.37
39.34,6.38
39.74,6.39
40.14,6.40
40.54,6.41
40.94,6.42
41.35,6.43
41.76,6.44
42.18,6.45
42.60,6.45
43.03,6.46
43.46,6.47
43.90,6.47
44.33,6.47
44.78,6.47
45.23,6.47
45.68,6.48
46.13,6.49
46.60,6.50
47.06,6.51
47.53,6.51
48.01,6.52
48.49,6.52
48.97,6.52
49.46,6.52
49.96,6.52
50.46,6.52
50.96,6.52
51.47,6.52
51.99,6.52
52.51,6.52
53.03,6.51
53.56,6.51
54.10,6.51
54.64,6.51
55.18,6.51
55.74,6.50
56.29,6.49
56.86,6.49
57.42,6.49
58.00,6.49
58.58,6.50
59.16,6.51
59.76,6.52
60.35,6.51
60.96,6.48
61.57,6.45
62.18,6.44
62.80,6.44
63.43,6.44
64.07,6.43
64.71,6.42
65.35,6.42
66.01,6.40
66.67,6.40
67.33,6.39
68.01,6.38
68.69,6.37
69.37,6.36
70.07,6.35
70.77,6.34
71.48,6.32
72.19,6.31
72.91,6.30
73.64,6.29
74.38,6.28
75.12,6.26
75.87,6.24
76.63,6.23
77.40,6.22
78.17,6.21
78.95,6.19
79.74,6.17
80.54,6.16
81.35,6.15
82.16,6.13
82.98,6.11
83.81,6.10
84.65,6.08
85.50,6.07
86.35,6.05
87.22,6.03
88.09,6.01
88.97,5.99
89.86,5.97
90.76,5.95
91.66,5.93
92.58,5.90
93.51,5.89
94.44,5.87
95.39,5.84
96.34,5.82
97.30,5.80
98.28,5.77
99.26,5.75
100.25,5.72
101.25,5.70
102.27,5.68
103.29,5.65
104.32,5.62
105.37,5.59
106.42,5.56
107.48,5.54
108.56,5.51
109.64,5.48
110.74,5.45
111.85,5.41
112.97,5.38
114.10,5.34
115.24,5.31
116.39,5.28
117.55,5.25
118.73,5.25
119.92,5.24
121.12,5.20
122.33,5.15
123.55,5.16
124.79,5.14
126.03,5.13
127.29,5.11
128.57,5.08
129.85,5.05
131.15,5.02
132.46,4.99
133.79,4.96
135.12,4.93
136.48,4.90
137.84,4.87
139.22,4.85
140.61,4.82
142.02,4.79
143.44,4.75
144.87,4.73
146.32,4.70
147.78,4.66
149.26,4.63
150.75,4.60
152.26,4.57
153.78,4.54
155.32,4.51
156.88,4.47
158.44,4.44
160.03,4.41
161.63,4.37
163.24,4.34
164.88,4.30
166.53,4.27
168.19,4.23
169.87,4.20
171.57,4.16
173.29,4.12
175.02,4.08
176.77,4.05
178.54,4.00
180.32,3.96
182.13,3.93
183.95,3.89
185.79,3.85
187.65,3.82
189.52,3.79
191.42,3.75
193.33,3.72
195.27,3.69
197.22,3.65
199.19,3.62
201.18,3.59
203.19,3.55
205.23,3.51
207.28,3.48
209.35,3.44
211.44,3.40
213.56,3.36
215.69,3.32
217.85,3.29
220.03,3.25
222.23,3.21
224.45,3.17
226.70,3.13
228.96,3.09
231.25,3.05
233.57,3.01
235.90,2.97
238.26,2.94
240.64,2.91
243.05,2.86
245.48,2.82
247.93,2.78
250.41,2.75
252.92,2.72
255.45,2.69
258.00,2.65
260.58,2.62
263.19,2.59
265.82,2.57
268.48,2.54
271.16,2.51
273.87,2.48
276.61,2.44
279.38,2.41
282.17,2.38
284.99,2.34
287.84,2.31
290.72,2.27
293.63,2.24
296.57,2.19
299.53,2.14
302.53,2.12
305.55,2.11
308.61,2.07
311.69,2.04
314.81,2.00
317.96,1.97
321.14,1.94
324.35,1.91
327.59,1.87
330.87,1.84
334.18,1.81
337.52,1.77
340.90,1.74
344.30,1.71
347.75,1.68
351.23,1.64
354.74,1.61
358.28,1.59
361.87,1.56
365.49,1.52
369.14,1.49
372.83,1.45
376.56,1.42
380.33,1.39
384.13,1.36
387.97,1.33
391.85,1.30
395.77,1.27
399.73,1.23
403.72,1.20
407.76,1.18
411.84,1.15
415.96,1.12
420.12,1.09
424.32,1.06
428.56,1.03
432.85,1.00
437.18,0.98
441.55,0.95
445.96,0.92
450.42,0.89
454.93,0.87
459.48,0.84
464.07,0.81
468.71,0.79
473.40,0.76
478.13,0.73
482.91,0.71
487.74,0.68
492.62,0.66
497.55,0.63
502.52,0.60
507.55,0.58
512.62,0.56
517.75,0.53
522.93,0.51
528.16,0.48
533.44,0.46
538.77,0.43
544.16,0.41
549.60,0.39
555.10,0.37
560.65,0.35
566.25,0.32
571.92,0.30
577.64,0.28
583.41,0.26
589.25,0.24
595.14,0.22
601.09,0.20
607.10,0.18
613.17,0.16
619.30,0.14
625.50,0.12
631.75,0.10
638.07,0.08
644.45,0.07
650.89,0.05
657.40,0.05
663.98,0.03
670.62,0.00
677.32,-0.01
684.10,-0.03
690.94,-0.04
697.85,-0.05
704.83,-0.07
711.87,-0.08
718.99,-0.08
726.18,-0.10
733.44,-0.11
740.78,-0.11
748.19,-0.12
755.67,-0.13
763.23,-0.14
770.86,-0.14
778.57,-0.14
786.35,-0.14
794.22,-0.14
802.16,-0.14
810.18,-0.14
818.28,-0.14
826.46,-0.13
834.73,-0.12
843.08,-0.11
851.51,-0.10
860.02,-0.09
868.62,-0.08
877.31,-0.06
886.08,-0.04
894.94,-0.04
903.89,-0.02
912.93,0.03
922.06,0.06
931.28,0.10
940.59,0.13
950.00,0.17
959.50,0.17
969.09,0.11
978.78,0.03
988.57,-0.05
998.46,-0.01
1008.44,0.06
1018.53,0.14
1028.71,0.23
1039.00,0.31
1049.39,0.39
1059.88,0.47
1070.48,0.56
1081.19,0.64
1092.00,0.72
1102.92,0.79
1113.95,0.87
1125.09,0.94
1136.34,1.02
1147.70,1.10
1159.18,1.17
1170.77,1.25
1182.48,1.33
1194.30,1.40
1206.25,1.48
1218.31,1.55
1230.49,1.63
1242.80,1.70
1255.22,1.78
1267.78,1.85
1280.45,1.93
1293.26,2.00
1306.19,2.07
1319.25,2.14
1332.45,2.21
1345.77,2.28
1359.23,2.35
1372.82,2.41
1386.55,2.48
1400.41,2.55
1414.42,2.62
1428.56,2.69
1442.85,2.76
1457.28,2.83
1471.85,2.90
1486.57,2.97
1501.43,3.03
1516.45,3.11
1531.61,3.18
1546.93,3.25
1562.40,3.32
1578.02,3.39
1593.80,3.47
1609.74,3.54
1625.84,3.62
1642.10,3.70
1658.52,3.77
1675.10,3.85
1691.85,3.93
1708.77,4.01
1725.86,4.09
1743.12,4.17
1760.55,4.25
1778.15,4.33
1795.94,4.42
1813.90,4.50
1832.03,4.58
1850.36,4.66
1868.86,4.74
1887.55,4.82
1906.42,4.90
1925.49,4.98
1944.74,5.06
1964.19,5.14
1983.83,5.21
2003.67,5.28
2023.71,5.34
2043.94,5.41
2064.38,5.46
2085.03,5.52
2105.88,5.57
2126.94,5.61
2148.20,5.65
2169.69,5.68
2191.38,5.71
2213.30,5.72
2235.43,5.73
2257.78,5.74
2280.36,5.73
2303.17,5.72
2326.20,5.70
2349.46,5.68
2372.95,5.65
2396.68,5.61
2420.65,5.56
2444.86,5.51
2469.31,5.45
2494.00,5.39
2518.94,5.31
2544.13,5.24
2569.57,5.16
2595.27,5.07
2621.22,4.98
2647.43,4.89
2673.90,4.80
2700.64,4.70
2727.65,4.60
2754.93,4.51
2782.48,4.41
2810.30,4.31
2838.40,4.22
2866.79,4.13
2895.46,4.04
2924.41,3.95
2953.65,3.86
2983.19,3.78
3013.02,3.70
3043.15,3.62
3073.58,3.54
3104.32,3.47
3135.36,3.41
3166.72,3.34
3198.38,3.29
3230.37,3.23
3262.67,3.19
3295.30,3.14
3328.25,3.10
3361.53,3.06
3395.15,3.03
3429.10,3.01
3463.39,3.00
3498.03,3.01
3533.01,3.03
3568.34,3.08
3604.02,3.14
3640.06,3.21
3676.46,3.29
3713.22,3.37
3750.36,3.45
3787.86,3.52
3825.74,3.60
3864.00,3.67
3902.64,3.74
3941.66,3.81
3981.08,3.88
4020.89,3.95
4061.10,4.03
4101.71,4.12
4142.73,4.22
4184.15,4.32
4226.00,4.43
4268.26,4.55
4310.94,4.69
4354.05,4.83
4397.59,4.98
4441.56,5.14
4485.98,5.31
4530.84,5.49
4576.15,5.67
4621.91,5.86
4668.13,6.07
4714.81,6.28
4761.96,6.49
4809.58,6.71
4857.67,6.94
4906.25,7.15
4955.31,7.36
5004.87,7.53
5054.91,7.67
5105.46,7.76
5156.52,7.81
5208.08,7.79
5260.16,7.71
5312.77,7.58
5365.89,7.39
5419.55,7.14
5473.75,6.86
5528.49,6.55
5583.77,6.25
5639.61,5.98
5696.00,5.72
5752.96,5.50
5810.49,5.27
5868.60,5.02
5927.28,4.77
5986.56,4.50
6046.42,4.23
6106.89,3.98
6167.96,3.75
6229.64,3.54
6291.93,3.36
6354.85,3.21
6418.40,3.08
6482.58,2.99
6547.41,2.93
6612.88,2.88
6679.01,2.87
6745.80,2.90
6813.26,2.95
6881.39,3.04
6950.21,3.16
7019.71,3.31
7089.91,3.50
7160.81,3.74
7232.41,4.02
7304.74,4.34
7377.79,4.74
7451.56,5.20
7526.08,5.73
7601.34,6.33
7677.35,7.00
7754.13,7.69
7831.67,8.33
7909.98,8.83
7989.08,9.07
8068.98,8.72
8149.67,8.06
8231.16,7.02
8313.47,5.80
8396.61,4.55
8480.57,3.30
8565.38,2.12
8651.03,0.97
8737.54,-0.11
8824.92,-1.14
8913.17,-2.09
9002.30,-3.01
9092.32,-3.84
9183.25,-4.62
9275.08,-5.36
9367.83,-6.05
9461.51,-6.68
9556.12,-7.27
9651.68,-7.82
9748.20,-8.34
9845.68,-8.78
9944.14,-9.21
10043.58,-9.59
10144.02,-9.94
10245.46,-10.23
10347.91,-10.50
10451.39,-10.73
10555.91,-10.93
10661.46,-11.09
10768.08,-11.22
10875.76,-11.30
10984.52,-11.32
11094.36,-11.29
11205.31,-11.21
11317.36,-11.05
11430.53,-10.87
11544.84,-10.63
11660.29,-10.37
11776.89,-10.07
11894.66,-9.64
12013.60,-9.19
12133.74,-8.63
12255.08,-7.94
12377.63,-7.16
12501.41,-6.30
12626.42,-5.31
12752.68,-4.28
12880.21,-3.50
13009.01,-2.87
13139.10,-2.25
13270.49,-2.19
13403.20,-2.21
13537.23,-2.38
13672.60,-2.84
13809.33,-3.59
13947.42,-4.72
14086.90,-5.76
14227.77,-6.75
14370.04,-7.56
14513.74,-8.14
14658.88,-8.40
14805.47,-8.50
14953.52,-8.36
15103.06,-7.89
15254.09,-7.27
15406.63,-6.13
15560.70,-5.03
15716.30,-3.99
15873.47,-4.37
16032.20,-5.35
16192.52,-7.24
16354.45,-9.00
16517.99,-10.66
16683.17,-12.06
16850.01,-13.32
17018.51,-14.48
17188.69,-15.45
17360.58,-16.30
17534.18,-17.03
17709.53,-17.60
17886.62,-18.08
18065.49,-18.63
18246.14,-19.38
18428.60,-20.54
18612.89,-21.80
18799.02,-23.17
18987.01,-24.70
19176.88,-26.78
19368.65,-29.71
19562.33,-33.47
19757.96,-37.89
19955.54,-42.32
