frequency,raw
20.00,8.25
20.20,8.22
20.40,8.20
20.61,8.17
20.81,8.15
21.02,8.13
21.23,8.12
21.44,8.11
21.66,8.12
21.87,8.12
22.09,8.13
22.31,8.14
22.54,8.15
22.76,8.15
22.99,8.15
23.22,8.13
23.45,8.11
23.69,8.08
23.92,8.05
24.16,8.02
24.40,7.98
24.65,7.95
24.89,7.92
25.14,7.90
25.39,7.88
25.65,7.86
25.91,7.85
26.16,7.83
26.43,7.82
26.69,7.81
26.96,7.79
27.23,7.78
27.50,7.76
27.77,7.74
28.05,7.71
28.33,7.68
28.62,7.65
28.90,7.62
29.19,7.60
29.48,7.57
29.78,7.54
30.08,7.51
30.38,7.48
30.68,7.46
30.99,7.45
31.30,7.44
31.61,7.44
31.93,7.44
32.24,7.42
32.57,7.38
32.89,7.33
33.22,7.27
33.55,7.21
33.89,7.17
34.23,7.15
34.57,7.13
34.92,7.11
35.27,7.09
35.62,7.05
35.97,7.01
36.33,6.98
36.70,6.96
37.06,6.94
37.43,6.92
37.81,6.89
38.19,6.86
38.57,6.82
38.95,6.79
39.34,6.76
39.74,6.73
40.14,6.69
40.54,6.66
40.94,6.62
41.35,6.59
41.76,6.56
42.18,6.52
42.60,6.49
43.03,6.45
43.46,6.42
43.90,6.38
44.33,6.34
44.78,6.30
45.23,6.26
45.68,6.22
46.13,6.19
46.60,6.15
47.06,6.11
47.53,6.07
48.01,6.03
48.49,5.99
48.97,5.95
49.46,5.90
49.96,5.87
50.46,5.83
50.96,5.80
51.47,5.76
51.99,5.72
52.51,5.68
53.03,5.64
53.56,5.60
54.10,5.57
54.64,5.53
55.18,5.48
55.74,5.44
56.29,5.40
56.86,5.36
57.42,5.31
58.00,5.26
58.58,5.22
59.16,5.17
59.76,5.12
60.35,5.08
60.96,5.04
61.57,5.01
62.18,4.96
62.80,4.92
63.43,4.87
64.07,4.83
64.71,4.78
65.35,4.74
66.01,4.69
66.67,4.64
67.33,4.60
68.01,4.56
68.69,4.51
69.37,4.47
70.07,4.42
70.77,4.38
71.48,4.34
72.19,4.29
72.91,4.24
73.64,4.20
74.38,4.15
75.12,4.11
75.87,4.06
76.63,4.02
77.40,3.97
78.17,3.93
78.95,3.88
79.74,3.84
80.54,3.79
81.35,3.74
82.16,3.69
82.98,3.64
83.81,3.60
84.65,3.55
85.50,3.50
86.35,3.46
87.22,3.41
88.09,3.36
88.97,3.31
89.86,3.26
90.76,3.21
91.66,3.17
92.58,3.12
93.51,3.08
94.44,3.03
95.39,2.98
96.34,2.93
97.30,2.88
98.28,2.84
99.26,2.79
100.25,2.75
101.25,2.70
102.27,2.66
103.29,2.61
104.32,2.56
105.37,2.52
106.42,2.47
107.48,2.42
108.56,2.37
109.64,2.32
110.74,2.28
111.85,2.23
112.97,2.18
114.10,2.14
115.24,2.09
116.39,2.05
117.55,2.00
118.73,1.95
119.92,1.89
121.12,1.84
122.33,1.80
123.55,1.75
124.79,1.70
126.03,1.66
127.29,1.61
128.57,1.56
129.85,1.52
131.15,1.48
132.46,1.44
133.79,1.42
135.12,1.40
136.48,1.38
137.84,1.36
139.22,1.34
140.61,1.32
142.02,1.29
143.44,1.27
144.87,1.23
146.32,1.19
147.78,1.15
149.26,1.11
150.75,1.07
152.26,1.03
153.78,0.99
155.32,0.95
156.88,0.91
158.44,0.86
160.03,0.82
161.63,0.78
163.24,0.74
164.88,0.69
166.53,0.65
168.19,0.61
169.87,0.57
171.57,0.53
173.29,0.49
175.02,0.46
176.77,0.42
178.54,0.38
180.32,0.35
182.13,0.30
183.95,0.26
185.79,0.22
187.65,0.18
189.52,0.14
191.42,0.11
193.33,0.07
195.27,0.03
197.22,-0.01
199.19,-0.05
201.18,-0.09
203.19,-0.13
205.23,-0.16
207.28,-0.20
209.35,-0.24
211.44,-0.28
213.56,-0.32
215.69,-0.36
217.85,-0.40
220.03,-0.44
222.23,-0.47
224.45,-0.51
226.70,-0.55
228.96,-0.58
231.25,-0.61
233.57,-0.64
235.90,-0.67
238.26,-0.69
240.64,-0.72
243.05,-0.76
245.48,-0.80
247.93,-0.84
250.41,-0.88
252.92,-0.93
255.45,-0.97
258.00,-1.00
260.58,-1.00
263.19,-0.99
265.82,-0.97
268.48,-0.95
271.16,-0.95
273.87,-0.97
276.61,-1.00
279.38,-1.05
282.17,-1.09
284.99,-1.14
287.84,-1.17
290.72,-1.20
293.63,-1.20
296.57,-1.20
299.53,-1.18
302.53,-1.18
305.55,-1.18
308.61,-1.21
311.69,-1.24
314.81,-1.27
317.96,-1.31
321.14,-1.35
324.35,-1.39
327.59,-1.42
330.87,-1.46
334.18,-1.49
337.52,-1.53
340.90,-1.57
344.30,-1.60
347.75,-1.64
351.23,-1.67
354.74,-1.71
358.28,-1.74
361.87,-1.78
365.49,-1.81
369.14,-1.84
372.83,-1.88
376.56,-1.91
380.33,-1.95
384.13,-1.98
387.97,-2.02
391.85,-2.05
395.77,-2.08
399.73,-2.12
403.72,-2.15
407.76,-2.19
411.84,-2.22
415.96,-2.25
420.12,-2.29
424.32,-2.32
428.56,-2.36
432.85,-2.39
437.18,-2.43
441.55,-2.46
445.96,-2.49
450.42,-2.52
454.93,-2.55
459.48,-2.58
464.07,-2.61
468.71,-2.64
473.40,-2.66
478.13,-2.69
482.91,-2.72
487.74,-2.74
492.62,-2.76
497.55,-2.78
502.52,-2.80
507.55,-2.82
512.62,-2.83
517.75,-2.85
522.93,-2.86
528.16,-2.87
533.44,-2.88
538.77,-2.89
544.16,-2.89
549.60,-2.89
555.10,-2.89
560.65,-2.89
566.25,-2.89
571.92,-2.88
577.64,-2.87
583.41,-2.86
589.25,-2.85
595.14,-2.82
601.09,-2.79
607.10,-2.79
613.17,-2.77
619.30,-2.75
625.50,-2.72
631.75,-2.69
638.07,-2.66
644.45,-2.63
650.89,-2.60
657.40,-2.57
663.98,-2.53
670.62,-2.50
677.32,-2.46
684.10,-2.43
690.94,-2.39
697.85,-2.35
704.83,-2.31
711.87,-2.27
718.99,-2.23
726.18,-2.18
733.44,-2.14
740.78,-2.09
748.19,-2.05
755.67,-2.00
763.23,-1.95
770.86,-1.90
778.57,-1.85
786.35,-1.80
794.22,-1.75
802.16,-1.70
810.18,-1.64
818.28,-1.59
826.46,-1.53
834.73,-1.47
843.08,-1.41
851.51,-1.34
860.02,-1.28
868.62,-1.21
877.31,-1.14
886.08,-1.07
894.94,-0.99
903.89,-0.92
912.93,-0.84
922.06,-0.76
931.28,-0.67
940.59,-0.58
950.00,-0.49
959.50,-0.40
969.09,-0.31
978.78,-0.21
988.57,-0.12
998.46,-0.02
1008.44,0.09
1018.53,0.19
1028.71,0.29
1039.00,0.40
1049.39,0.51
1059.88,0.62
1070.48,0.72
1081.19,0.83
1092.00,0.94
1102.92,1.05
1113.95,1.15
1125.09,1.26
1136.34,1.36
1147.70,1.46
1159.18,1.55
1170.77,1.65
1182.48,1.73
1194.30,1.81
1206.25,1.89
1218.31,1.96
1230.49,2.02
1242.80,2.07
1255.22,2.12
1267.78,2.16
1280.45,2.18
1293.26,2.19
1306.19,2.20
1319.25,2.21
1332.45,2.19
1345.77,2.17
1359.23,2.14
1372.82,2.10
1386.55,2.06
1400.41,2.00
1414.42,1.94
1428.56,1.87
1442.85,1.80
1457.28,1.73
1471.85,1.65
1486.57,1.58
1501.43,1.50
1516.45,1.43
1531.61,1.35
1546.93,1.29
1562.40,1.22
1578.02,1.17
1593.80,1.12
1609.74,1.08
1625.84,1.04
1642.10,1.02
1658.52,1.00
1675.10,0.99
1691.85,1.00
1708.77,1.02
1725.86,1.04
1743.12,1.08
1760.55,1.13
1778.15,1.19
1795.94,1.27
1813.90,1.35
1832.03,1.44
1850.36,1.55
1868.86,1.67
1887.55,1.79
1906.42,1.93
1925.49,2.07
1944.74,2.22
1964.19,2.38
1983.83,2.55
2003.67,2.72
2023.71,2.89
2043.94,3.07
2064.38,3.24
2085.03,3.41
2105.88,3.58
2126.94,3.74
2148.20,3.88
2169.69,4.02
2191.38,4.14
2213.30,4.23
2235.43,4.30
2257.78,4.35
2280.36,4.36
2303.17,4.35
2326.20,4.31
2349.46,4.23
2372.95,4.13
2396.68,4.01
2420.65,3.86
2444.86,3.69
2469.31,3.51
2494.00,3.31
2518.94,3.09
2544.13,2.87
2569.57,2.65
2595.27,2.42
2621.22,2.20
2647.43,1.99
2673.90,1.78
2700.64,1.58
2727.65,1.39
2754.93,1.21
2782.48,1.04
2810.30,0.89
2838.40,0.76
2866.79,0.63
2895.46,0.52
2924.41,0.43
2953.65,0.35
2983.19,0.30
3013.02,0.26
3043.15,0.23
3073.58,0.23
3104.32,0.24
3135.36,0.27
3166.72,0.32
3198.38,0.38
3230.37,0.46
3262.67,0.54
3295.30,0.65
3328.25,0.76
3361.53,0.89
3395.15,1.01
3429.10,1.14
3463.39,1.26
3498.03,1.37
3533.01,1.46
3568.34,1.53
3604.02,1.58
3640.06,1.59
3676.46,1.58
3713.22,1.55
3750.36,1.49
3787.86,1.40
3825.74,1.30
3864.00,1.19
3902.64,1.07
3941.66,0.94
3981.08,0.82
4020.89,0.69
4061.10,0.57
4101.71,0.47
4142.73,0.40
4184.15,0.34
4226.00,0.33
4268.26,0.35
4310.94,0.39
4354.05,0.50
4397.59,0.63
4441.56,0.79
4485.98,0.97
4530.84,1.16
4576.15,1.32
4621.91,1.46
4668.13,1.50
4714.81,1.44
4761.96,1.30
4809.58,1.06
4857.67,0.74
4906.25,0.38
4955.31,0.01
5004.87,-0.35
5054.91,-0.69
5105.46,-1.01
5156.52,-1.30
5208.08,-1.56
5260.16,-1.77
5312.77,-1.95
5365.89,-2.09
5419.55,-2.18
5473.75,-2.24
5528.49,-2.25
5583.77,-2.21
5639.61,-2.11
5696.00,-2.00
5752.96,-1.83
5810.49,-1.65
5868.60,-1.45
5927.28,-1.26
5986.56,-1.10
6046.42,-1.00
6106.89,-0.98
6167.96,-1.06
6229.64,-1.25
6291.93,-1.54
6354.85,-1.93
6418.40,-2.35
6482.58,-2.79
6547.41,-3.17
6612.88,-3.49
6679.01,-3.68
6745.80,-3.74
6813.26,-3.71
6881.39,-3.56
6950.21,-3.31
7019.71,-3.00
7089.91,-2.62
7160.81,-2.15
7232.41,-1.62
7304.74,-1.04
7377.79,-0.37
7451.56,0.36
7526.08,1.17
7601.34,2.06
7677.35,2.99
7754.13,3.93
7831.67,4.76
7909.98,5.44
7989.08,5.85
8068.98,5.73
8149.67,5.35
8231.16,4.68
8313.47,3.90
8396.61,3.10
8480.57,2.33
8565.38,1.62
8651.03,0.96
8737.54,0.37
8824.92,-0.15
8913.17,-0.58
9002.30,-0.97
9092.32,-1.26
9183.25,-1.47
9275.08,-1.62
9367.83,-1.69
9461.51,-1.68
9556.12,-1.60
9651.68,-1.46
9748.20,-1.25
9845.68,-0.96
9944.14,-0.65
10043.58,-0.36
10144.02,-0.10
10245.46,-0.12
10347.91,-0.36
10451.39,-0.87
10555.91,-1.74
10661.46,-2.76
10768.08,-3.89
10875.76,-5.07
10984.52,-6.18
11094.36,-7.18
11205.31,-7.96
11317.36,-8.38
11430.53,-8.71
11544.84,-8.92
11660.29,-9.11
11776.89,-9.29
11894.66,-9.48
12013.60,-9.68
12133.74,-9.87
12255.08,-10.06
12377.63,-10.25
12501.41,-10.41
12626.42,-10.56
12752.68,-10.67
12880.21,-10.71
13009.01,-10.72
13139.10,-10.72
13270.49,-10.59
13403.20,-10.42
13537.23,-10.10
13672.60,-9.69
13809.33,-9.18
13947.42,-8.47
14086.90,-7.53
14227.77,-6.46
14370.04,-5.18
14513.74,-3.75
14658.88,-2.74
14805.47,-2.59
14953.52,-3.85
15103.06,-5.70
15254.09,-7.82
15406.63,-9.51
15560.70,-10.90
15716.30,-11.84
15873.47,-12.02
16032.20,-11.96
16192.52,-11.74
16354.45,-11.65
16517.99,-11.71
16683.17,-12.47
16850.01,-13.86
17018.51,-15.67
17188.69,-17.32
17360.58,-18.44
17534.18,-19.08
17709.53,-18.96
17886.62,-18.26
18065.49,-17.34
18246.14,-16.32
18428.60,-16.15
18612.89,-16.90
18799.02,-18.43
18987.01,-20.52
19176.88,-22.52
19368.65,-24.43
19562.33,-26.27
19757.96,-28.08
19955.54,-29.90
