frequency,raw
20.00,8.92
20.20,8.94
20.40,8.95
20.61,8.97
20.81,8.99
21.02,9.00
21.23,9.02
21.44,9.04
21.66,9.06
21.87,9.08
22.09,9.11
22.31,9.13
22.54,9.15
22.76,9.17
22.99,9.18
23.22,9.20
23.45,9.22
23.69,9.24
23.92,9.26
24.16,9.28
24.40,9.30
24.65,9.31
24.89,9.33
25.14,9.34
25.39,9.35
25.65,9.36
25.91,9.38
26.16,9.39
26.43,9.41
26.69,9.43
26.96,9.44
27.23,9.45
27.50,9.45
27.77,9.45
28.05,9.45
28.33,9.46
28.62,9.47
28.90,9.48
29.19,9.50
29.48,9.52
29.78,9.53
30.08,9.53
30.38,9.54
30.68,9.54
30.99,9.55
31.30,9.55
31.61,9.57
31.93,9.58
32.24,9.59
32.57,9.60
32.89,9.61
33.22,9.61
33.55,9.62
33.89,9.62
34.23,9.63
34.57,9.63
34.92,9.63
35.27,9.63
35.62,9.63
35.97,9.63
36.33,9.64
36.70,9.64
37.06,9.64
37.43,9.64
37.81,9.64
38.19,9.64
38.57,9.64
38.95,9.64
39.34,9.64
39.74,9.64
40.14,9.64
40.54,9.64
40.94,9.64
41.35,9.63
41.76,9.63
42.18,9.63
42.60,9.62
43.03,9.62
43.46,9.61
43.90,9.61
44.33,9.60
44.78,9.60
45.23,9.59
45.68,9.58
46.13,9.58
46.60,9.57
47.06,9.57
47.53,9.56
48.01,9.55
48.49,9.54
48.97,9.53
49.46,9.52
49.96,9.52
50.46,9.50
50.96,9.49
51.47,9.48
51.99,9.47
52.51,9.47
53.03,9.46
53.56,9.44
54.10,9.42
54.64,9.41
55.18,9.40
55.74,9.38
56.29,9.37
56.86,9.36
57.42,9.34
58.00,9.31
58.58,9.27
59.16,9.26
59.76,9.28
60.35,9.29
60.96,9.27
61.57,9.24
62.18,9.23
62.80,9.22
63.43,9.20
64.07,9.18
64.71,9.17
65.35,9.15
66.01,9.13
66.67,9.11
67.33,9.10
68.01,9.08
68.69,9.06
69.37,9.04
70.07,9.01
70.77,8.99
71.48,8.97
72.19,8.95
72.91,8.93
73.64,8.90
74.38,8.88
75.12,8.85
75.87,8.83
76.63,8.81
77.40,8.79
78.17,8.76
78.95,8.73
79.74,8.70
80.54,8.68
81.35,8.65
82.16,8.62
82.98,8.59
83.81,8.57
84.65,8.54
85.50,8.51
86.35,8.47
87.22,8.44
88.09,8.41
88.97,8.38
89.86,8.35
90.76,8.32
91.66,8.29
92.58,8.26
93.51,8.22
94.44,8.19
95.39,8.15
96.34,8.12
97.30,8.08
98.28,8.05
99.26,8.01
100.25,7.97
101.25,7.93
102.27,7.90
103.29,7.86
104.32,7.82
105.37,7.78
106.42,7.74
107.48,7.71
108.56,7.67
109.64,7.63
110.74,7.59
111.85,7.55
112.97,7.52
114.10,7.48
115.24,7.45
116.39,7.41
117.55,7.38
118.73,7.35
119.92,7.31
121.12,7.28
122.33,7.25
123.55,7.21
124.79,7.17
126.03,7.14
127.29,7.10
128.57,7.05
129.85,7.01
131.15,6.97
132.46,6.93
133.79,6.88
135.12,6.84
136.48,6.80
137.84,6.75
139.22,6.70
140.61,6.66
142.02,6.61
143.44,6.57
144.87,6.51
146.32,6.47
147.78,6.42
149.26,6.37
150.75,6.33
152.26,6.28
153.78,6.24
155.32,6.19
156.88,6.16
158.44,6.12
160.03,6.08
161.63,6.04
163.24,6.00
164.88,5.96
166.53,5.92
168.19,5.87
169.87,5.83
171.57,5.79
173.29,5.74
175.02,5.70
176.77,5.65
178.54,5.61
180.32,5.56
182.13,5.51
183.95,5.46
185.79,5.41
187.65,5.36
189.52,5.31
191.42,5.26
193.33,5.21
195.27,5.16
197.22,5.11
199.19,5.06
201.18,5.01
203.19,4.96
205.23,4.91
207.28,4.86
209.35,4.80
211.44,4.75
213.56,4.70
215.69,4.65
217.85,4.60
220.03,4.55
222.23,4.49
224.45,4.44
226.70,4.39
228.96,4.34
231.25,4.29
233.57,4.24
235.90,4.18
238.26,4.14
240.64,4.08
243.05,4.03
245.48,3.97
247.93,3.92
250.41,3.86
252.92,3.81
255.45,3.75
258.00,3.70
260.58,3.65
263.19,3.60
265.82,3.55
268.48,3.51
271.16,3.48
273.87,3.45
276.61,3.42
279.38,3.39
282.17,3.35
284.99,3.31
287.84,3.27
290.72,3.22
293.63,3.17
296.57,3.12
299.53,3.07
302.53,3.02
305.55,2.97
308.61,2.92
311.69,2.87
314.81,2.82
317.96,2.77
321.14,2.72
324.35,2.67
327.59,2.63
330.87,2.58
334.18,2.53
337.52,2.49
340.90,2.45
344.30,2.41
347.75,2.37
351.23,2.33
354.74,2.29
358.28,2.25
361.87,2.21
365.49,2.16
369.14,2.12
372.83,2.08
376.56,2.03
380.33,1.99
384.13,1.94
387.97,1.90
391.85,1.86
395.77,1.82
399.73,1.77
403.72,1.73
407.76,1.69
411.84,1.65
415.96,1.61
420.12,1.57
424.32,1.53
428.56,1.49
432.85,1.45
437.18,1.40
441.55,1.37
445.96,1.33
450.42,1.29
454.93,1.25
459.48,1.21
464.07,1.17
468.71,1.13
473.40,1.09
478.13,1.05
482.91,1.01
487.74,0.97
492.62,0.93
497.55,0.90
502.52,0.86
507.55,0.82
512.62,0.78
517.75,0.75
522.93,0.71
528.16,0.68
533.44,0.64
538.77,0.60
544.16,0.57
549.60,0.54
555.10,0.50
560.65,0.47
566.25,0.44
571.92,0.41
577.64,0.37
583.41,0.34
589.25,0.31
595.14,0.28
601.09,0.25
607.10,0.22
613.17,0.19
619.30,0.16
625.50,0.14
631.75,0.11
638.07,0.08
644.45,0.05
650.89,0.03
657.40,0.00
663.98,-0.02
670.62,-0.05
677.32,-0.07
684.10,-0.09
690.94,-0.12
697.85,-0.14
704.83,-0.16
711.87,-0.18
718.99,-0.20
726.18,-0.22
733.44,-0.24
740.78,-0.25
748.19,-0.27
755.67,-0.28
763.23,-0.29
770.86,-0.31
778.57,-0.32
786.35,-0.33
794.22,-0.34
802.16,-0.34
810.18,-0.35
818.28,-0.35
826.46,-0.36
834.73,-0.36
843.08,-0.35
851.51,-0.35
860.02,-0.35
868.62,-0.34
877.31,-0.33
886.08,-0.32
894.94,-0.31
903.89,-0.29
912.93,-0.28
922.06,-0.26
931.28,-0.23
940.59,-0.21
950.00,-0.18
959.50,-0.15
969.09,-0.12
978.78,-0.08
988.57,-0.05
998.46,-0.01
1008.44,0.04
1018.53,0.08
1028.71,0.13
1039.00,0.18
1049.39,0.23
1059.88,0.28
1070.48,0.33
1081.19,0.39
1092.00,0.44
1102.92,0.50
1113.95,0.56
1125.09,0.62
1136.34,0.67
1147.70,0.72
1159.18,0.76
1170.77,0.79
1182.48,0.81
1194.30,0.84
1206.25,0.88
1218.31,0.95
1230.49,1.02
1242.80,1.10
1255.22,1.15
1267.78,1.20
1280.45,1.25
1293.26,1.29
1306.19,1.32
1319.25,1.35
1332.45,1.36
1345.77,1.37
1359.23,1.39
1372.82,1.41
1386.55,1.45
1400.41,1.51
1414.42,1.57
1428.56,1.63
1442.85,1.69
1457.28,1.74
1471.85,1.79
1486.57,1.84
1501.43,1.90
1516.45,1.95
1531.61,2.01
1546.93,2.07
1562.40,2.13
1578.02,2.19
1593.80,2.24
1609.74,2.30
1625.84,2.36
1642.10,2.42
1658.52,2.49
1675.10,2.55
1691.85,2.61
1708.77,2.67
1725.86,2.74
1743.12,2.81
1760.55,2.88
1778.15,2.94
1795.94,3.02
1813.90,3.09
1832.03,3.16
1850.36,3.24
1868.86,3.32
1887.55,3.40
1906.42,3.48
1925.49,3.57
1944.74,3.66
1964.19,3.76
1983.83,3.86
2003.67,3.97
2023.71,4.09
2043.94,4.22
2064.38,4.35
2085.03,4.48
2105.88,4.61
2126.94,4.73
2148.20,4.85
2169.69,4.96
2191.38,5.07
2213.30,5.19
2235.43,5.30
2257.78,5.41
2280.36,5.52
2303.17,5.63
2326.20,5.73
2349.46,5.84
2372.95,5.94
2396.68,6.04
2420.65,6.14
2444.86,6.24
2469.31,6.33
2494.00,6.42
2518.94,6.51
2544.13,6.59
2569.57,6.66
2595.27,6.73
2621.22,6.80
2647.43,6.85
2673.90,6.90
2700.64,6.95
2727.65,6.99
2754.93,7.02
2782.48,7.04
2810.30,7.06
2838.40,7.07
2866.79,7.08
2895.46,7.08
2924.41,7.07
2953.65,7.07
2983.19,7.05
3013.02,7.04
3043.15,7.02
3073.58,7.00
3104.32,6.97
3135.36,6.94
3166.72,6.91
3198.38,6.88
3230.37,6.85
3262.67,6.81
3295.30,6.78
3328.25,6.74
3361.53,6.71
3395.15,6.68
3429.10,6.65
3463.39,6.63
3498.03,6.61
3533.01,6.60
3568.34,6.60
3604.02,6.60
3640.06,6.61
3676.46,6.63
3713.22,6.65
3750.36,6.68
3787.86,6.71
3825.74,6.75
3864.00,6.78
3902.64,6.83
3941.66,6.87
3981.08,6.92
4020.89,6.98
4061.10,7.04
4101.71,7.11
4142.73,7.19
4184.15,7.28
4226.00,7.37
4268.26,7.48
4310.94,7.58
4354.05,7.71
4397.59,7.84
4441.56,7.98
4485.98,8.13
4530.84,8.29
4576.15,8.46
4621.91,8.64
4668.13,8.83
4714.81,9.03
4761.96,9.24
4809.58,9.45
4857.67,9.68
4906.25,9.91
4955.31,10.15
5004.87,10.39
5054.91,10.64
5105.46,10.87
5156.52,11.11
5208.08,11.33
5260.16,11.54
5312.77,11.72
5365.89,11.88
5419.55,11.98
5473.75,12.04
5528.49,12.04
5583.77,11.95
5639.61,11.77
5696.00,11.55
5752.96,11.23
5810.49,10.89
5868.60,10.48
5927.28,10.07
5986.56,9.65
6046.42,9.23
6106.89,8.82
6167.96,8.43
6229.64,8.06
6291.93,7.71
6354.85,7.40
6418.40,7.10
6482.58,6.83
6547.41,6.60
6612.88,6.41
6679.01,6.31
6745.80,6.21
6813.26,6.12
6881.39,6.05
6950.21,6.10
7019.71,6.25
7089.91,6.51
7160.81,6.72
7232.41,6.95
7304.74,7.22
7377.79,7.58
7451.56,8.02
7526.08,8.54
7601.34,9.13
7677.35,9.82
7754.13,10.54
7831.67,11.27
7909.98,11.89
7989.08,12.31
8068.98,12.14
8149.67,11.62
8231.16,10.66
8313.47,9.48
8396.61,8.24
8480.57,6.98
8565.38,5.78
8651.03,4.62
8737.54,3.53
8824.92,2.51
8913.17,1.57
9002.30,0.66
9092.32,-0.15
9183.25,-0.91
9275.08,-1.62
9367.83,-2.27
9461.51,-2.89
9556.12,-3.45
9651.68,-3.97
9748.20,-4.46
9845.68,-4.89
9944.14,-5.27
10043.58,-5.59
10144.02,-5.86
10245.46,-6.05
10347.91,-6.21
10451.39,-6.32
10555.91,-6.39
10661.46,-6.39
10768.08,-6.34
10875.76,-6.21
10984.52,-5.99
11094.36,-5.68
11205.31,-5.28
11317.36,-4.71
11430.53,-4.10
11544.84,-3.39
11660.29,-2.62
11776.89,-1.82
11894.66,-0.94
12013.60,-0.06
12133.74,0.91
12255.08,2.00
12377.63,3.19
12501.41,4.50
12626.42,5.95
12752.68,7.36
12880.21,7.59
13009.01,7.12
13139.10,6.66
13270.49,5.08
13403.20,3.47
13537.23,2.24
13672.60,1.21
13809.33,0.38
13947.42,-0.17
14086.90,-0.48
14227.77,-0.64
14370.04,-0.59
14513.74,-0.27
14658.88,0.47
14805.47,1.46
14953.52,2.84
15103.06,4.30
15254.09,5.73
15406.63,5.00
15560.70,3.52
15716.30,0.90
15873.47,-1.52
16032.20,-3.75
16192.52,-5.50
16354.45,-6.93
16517.99,-8.13
16683.17,-9.06
16850.01,-9.76
17018.51,-10.28
17188.69,-10.56
17360.58,-10.67
17534.18,-10.67
17709.53,-10.58
17886.62,-10.99
18065.49,-12.36
18246.14,-15.15
18428.60,-18.93
18612.89,-22.83
18799.02,-26.80
18987.01,-30.76
19176.88,-35.02
19368.65,-40.36
19562.33,-47.33
19757.96,-56.36
19955.54,-65.40
