frequency,raw
20.00,9.30
20.20,9.34
20.40,9.37
20.61,9.41
20.81,9.44
21.02,9.47
21.23,9.50
21.44,9.53
21.66,9.55
21.87,9.58
22.09,9.60
22.31,9.63
22.54,9.66
22.76,9.68
22.99,9.71
23.22,9.74
23.45,9.76
23.69,9.79
23.92,9.81
24.16,9.84
24.40,9.86
24.65,9.89
24.89,9.92
25.14,9.95
25.39,9.98
25.65,10.01
25.91,10.03
26.16,10.06
26.43,10.08
26.69,10.10
26.96,10.11
27.23,10.12
27.50,10.13
27.77,10.15
28.05,10.17
28.33,10.19
28.62,10.21
28.90,10.22
29.19,10.24
29.48,10.25
29.78,10.26
30.08,10.26
30.38,10.27
30.68,10.28
30.99,10.29
31.30,10.31
31.61,10.33
31.93,10.35
32.24,10.36
32.57,10.38
32.89,10.39
33.22,10.40
33.55,10.41
33.89,10.41
34.23,10.42
34.57,10.43
34.92,10.44
35.27,10.44
35.62,10.45
35.97,10.46
36.33,10.46
36.70,10.46
37.06,10.47
37.43,10.47
37.81,10.48
38.19,10.48
38.57,10.49
38.95,10.50
39.34,10.51
39.74,10.51
40.14,10.51
40.54,10.51
40.94,10.51
41.35,10.51
41.76,10.51
42.18,10.51
42.60,10.51
43.03,10.51
43.46,10.51
43.90,10.52
44.33,10.53
44.78,10.52
45.23,10.52
45.68,10.51
46.13,10.50
46.60,10.50
47.06,10.50
47.53,10.50
48.01,10.49
48.49,10.49
48.97,10.48
49.46,10.48
49.96,10.47
50.46,10.48
50.96,10.48
51.47,10.48
51.99,10.46
52.51,10.44
53.03,10.42
53.56,10.40
54.10,10.40
54.64,10.40
55.18,10.39
55.74,10.37
56.29,10.36
56.86,10.35
57.42,10.33
58.00,10.31
58.58,10.33
59.16,10.35
59.76,10.38
60.35,10.36
60.96,10.31
61.57,10.27
62.18,10.26
62.80,10.26
63.43,10.25
64.07,10.24
64.71,10.23
65.35,10.21
66.01,10.19
66.67,10.18
67.33,10.17
68.01,10.16
68.69,10.14
69.37,10.13
70.07,10.11
70.77,10.09
71.48,10.08
72.19,10.06
72.91,10.05
73.64,10.03
74.38,10.01
75.12,9.99
75.87,9.97
76.63,9.96
77.40,9.95
78.17,9.93
78.95,9.90
79.74,9.87
80.54,9.85
81.35,9.82
82.16,9.81
82.98,9.79
83.81,9.77
84.65,9.74
85.50,9.71
86.35,9.69
87.22,9.67
88.09,9.64
88.97,9.62
89.86,9.59
90.76,9.56
91.66,9.54
92.58,9.52
93.51,9.48
94.44,9.45
95.39,9.42
96.34,9.40
97.30,9.37
98.28,9.34
99.26,9.31
100.25,9.28
101.25,9.25
102.27,9.22
103.29,9.19
104.32,9.16
105.37,9.12
106.42,9.09
107.48,9.06
108.56,9.02
109.64,8.99
110.74,8.96
111.85,8.92
112.97,8.89
114.10,8.86
115.24,8.82
116.39,8.78
117.55,8.75
118.73,8.69
119.92,8.62
121.12,8.60
122.33,8.61
123.55,8.56
124.79,8.52
126.03,8.48
127.29,8.44
128.57,8.40
129.85,8.36
131.15,8.32
132.46,8.28
133.79,8.26
135.12,8.21
136.48,8.16
137.84,8.12
139.22,8.07
140.61,8.03
142.02,7.99
143.44,7.95
144.87,7.90
146.32,7.86
147.78,7.82
149.26,7.76
150.75,7.72
152.26,7.68
153.78,7.63
155.32,7.58
156.88,7.54
158.44,7.50
160.03,7.45
161.63,7.40
163.24,7.36
164.88,7.31
166.53,7.26
168.19,7.21
169.87,7.17
171.57,7.11
173.29,7.07
175.02,7.02
176.77,6.96
178.54,6.93
180.32,6.90
182.13,6.82
183.95,6.77
185.79,6.72
187.65,6.67
189.52,6.61
191.42,6.55
193.33,6.51
195.27,6.46
197.22,6.40
199.19,6.35
201.18,6.30
203.19,6.25
205.23,6.19
207.28,6.13
209.35,6.08
211.44,6.02
213.56,5.98
215.69,5.92
217.85,5.86
220.03,5.81
222.23,5.76
224.45,5.70
226.70,5.65
228.96,5.60
231.25,5.54
233.57,5.49
235.90,5.44
238.26,5.40
240.64,5.35
243.05,5.27
245.48,5.21
247.93,5.16
250.41,5.10
252.92,5.05
255.45,5.00
258.00,4.94
260.58,4.89
263.19,4.83
265.82,4.78
268.48,4.73
271.16,4.67
273.87,4.62
276.61,4.56
279.38,4.51
282.17,4.46
284.99,4.41
287.84,4.37
290.72,4.32
293.63,4.27
296.57,4.22
299.53,4.18
302.53,4.12
305.55,4.06
308.61,4.00
311.69,3.95
314.81,3.90
317.96,3.84
321.14,3.77
324.35,3.72
327.59,3.67
330.87,3.61
334.18,3.56
337.52,3.51
340.90,3.46
344.30,3.40
347.75,3.35
351.23,3.29
354.74,3.23
358.28,3.18
361.87,3.13
365.49,3.08
369.14,3.02
372.83,2.97
376.56,2.92
380.33,2.87
384.13,2.81
387.97,2.76
391.85,2.70
395.77,2.65
399.73,2.61
403.72,2.55
407.76,2.50
411.84,2.45
415.96,2.39
420.12,2.34
424.32,2.30
428.56,2.25
432.85,2.19
437.18,2.14
441.55,2.09
445.96,2.04
450.42,1.99
454.93,1.94
459.48,1.89
464.07,1.84
468.71,1.79
473.40,1.74
478.13,1.70
482.91,1.65
487.74,1.60
492.62,1.55
497.55,1.50
502.52,1.45
507.55,1.41
512.62,1.36
517.75,1.31
522.93,1.27
528.16,1.23
533.44,1.18
538.77,1.14
544.16,1.09
549.60,1.04
555.10,1.00
560.65,0.94
566.25,0.89
571.92,0.81
577.64,0.70
583.41,0.49
589.25,0.20
595.14,-0.11
601.09,-0.35
607.10,-0.27
613.17,-0.17
619.30,-0.09
625.50,-0.05
631.75,-0.03
638.07,-0.03
644.45,-0.04
650.89,-0.05
657.40,-0.05
663.98,-0.04
670.62,-0.01
677.32,0.09
684.10,0.22
690.94,0.35
697.85,0.42
704.83,0.42
711.87,0.37
718.99,0.29
726.18,0.20
733.44,0.12
740.78,0.05
748.19,-0.00
755.67,-0.04
763.23,-0.07
770.86,-0.10
778.57,-0.12
786.35,-0.15
794.22,-0.17
802.16,-0.18
810.18,-0.20
818.28,-0.22
826.46,-0.23
834.73,-0.24
843.08,-0.25
851.51,-0.26
860.02,-0.27
868.62,-0.27
877.31,-0.27
886.08,-0.27
894.94,-0.26
903.89,-0.25
912.93,-0.24
922.06,-0.23
931.28,-0.21
940.59,-0.19
950.00,-0.17
959.50,-0.14
969.09,-0.11
978.78,-0.08
988.57,-0.04
998.46,-0.01
1008.44,0.04
1018.53,0.08
1028.71,0.13
1039.00,0.18
1049.39,0.24
1059.88,0.29
1070.48,0.35
1081.19,0.41
1092.00,0.47
1102.92,0.54
1113.95,0.60
1125.09,0.66
1136.34,0.73
1147.70,0.80
1159.18,0.86
1170.77,0.93
1182.48,1.00
1194.30,1.06
1206.25,1.12
1218.31,1.18
1230.49,1.24
1242.80,1.30
1255.22,1.36
1267.78,1.41
1280.45,1.46
1293.26,1.51
1306.19,1.56
1319.25,1.61
1332.45,1.65
1345.77,1.68
1359.23,1.72
1372.82,1.77
1386.55,1.80
1400.41,1.83
1414.42,1.85
1428.56,1.88
1442.85,1.90
1457.28,1.93
1471.85,1.95
1486.57,1.97
1501.43,1.98
1516.45,2.00
1531.61,2.02
1546.93,2.04
1562.40,2.06
1578.02,2.08
1593.80,2.10
1609.74,2.11
1625.84,2.13
1642.10,2.15
1658.52,2.17
1675.10,2.18
1691.85,2.20
1708.77,2.22
1725.86,2.24
1743.12,2.26
1760.55,2.28
1778.15,2.30
1795.94,2.32
1813.90,2.35
1832.03,2.37
1850.36,2.39
1868.86,2.42
1887.55,2.45
1906.42,2.48
1925.49,2.51
1944.74,2.55
1964.19,2.58
1983.83,2.62
2003.67,2.66
2023.71,2.69
2043.94,2.74
2064.38,2.78
2085.03,2.82
2105.88,2.87
2126.94,2.92
2148.20,2.97
2169.69,3.02
2191.38,3.08
2213.30,3.13
2235.43,3.19
2257.78,3.25
2280.36,3.31
2303.17,3.37
2326.20,3.44
2349.46,3.50
2372.95,3.57
2396.68,3.64
2420.65,3.71
2444.86,3.79
2469.31,3.86
2494.00,3.94
2518.94,4.02
2544.13,4.10
2569.57,4.18
2595.27,4.26
2621.22,4.35
2647.43,4.44
2673.90,4.53
2700.64,4.62
2727.65,4.72
2754.93,4.82
2782.48,4.92
2810.30,5.02
2838.40,5.13
2866.79,5.24
2895.46,5.35
2924.41,5.46
2953.65,5.58
2983.19,5.70
3013.02,5.82
3043.15,5.95
3073.58,6.08
3104.32,6.21
3135.36,6.34
3166.72,6.48
3198.38,6.61
3230.37,6.75
3262.67,6.89
3295.30,7.04
3328.25,7.19
3361.53,7.33
3395.15,7.48
3429.10,7.64
3463.39,7.79
3498.03,7.94
3533.01,8.09
3568.34,8.25
3604.02,8.40
3640.06,8.55
3676.46,8.70
3713.22,8.85
3750.36,8.99
3787.86,9.14
3825.74,9.28
3864.00,9.41
3902.64,9.54
3941.66,9.67
3981.08,9.80
4020.89,9.91
4061.10,10.02
4101.71,10.12
4142.73,10.22
4184.15,10.31
4226.00,10.38
4268.26,10.45
4310.94,10.51
4354.05,10.55
4397.59,10.58
4441.56,10.60
4485.98,10.60
4530.84,10.59
4576.15,10.57
4621.91,10.53
4668.13,10.49
4714.81,10.42
4761.96,10.35
4809.58,10.27
4857.67,10.18
4906.25,10.07
4955.31,9.97
5004.87,9.85
5054.91,9.72
5105.46,9.59
5156.52,9.45
5208.08,9.31
5260.16,9.16
5312.77,9.01
5365.89,8.86
5419.55,8.72
5473.75,8.57
5528.49,8.42
5583.77,8.27
5639.61,8.14
5696.00,8.00
5752.96,7.87
5810.49,7.75
5868.60,7.64
5927.28,7.53
5986.56,7.44
6046.42,7.36
6106.89,7.29
6167.96,7.23
6229.64,7.18
6291.93,7.13
6354.85,7.11
6418.40,7.09
6482.58,7.10
6547.41,7.11
6612.88,7.14
6679.01,7.19
6745.80,7.36
6813.26,7.58
6881.39,7.81
6950.21,8.02
7019.71,8.23
7089.91,8.48
7160.81,8.76
7232.41,9.06
7304.74,9.40
7377.79,9.77
7451.56,10.16
7526.08,10.55
7601.34,10.93
7677.35,11.24
7754.13,11.50
7831.67,11.52
7909.98,11.43
7989.08,11.12
8068.98,10.62
8149.67,10.08
8231.16,9.52
8313.47,8.88
8396.61,8.20
8480.57,7.40
8565.38,6.56
8651.03,5.71
8737.54,4.84
8824.92,3.99
8913.17,3.17
9002.30,2.37
9092.32,1.64
9183.25,0.96
9275.08,0.30
9367.83,-0.32
9461.51,-0.90
9556.12,-1.46
9651.68,-1.99
9748.20,-2.50
9845.68,-2.95
9944.14,-3.38
10043.58,-3.78
10144.02,-4.18
10245.46,-4.53
10347.91,-4.85
10451.39,-5.13
10555.91,-5.40
10661.46,-5.65
10768.08,-5.88
10875.76,-6.07
10984.52,-6.27
11094.36,-6.45
11205.31,-6.57
11317.36,-6.69
11430.53,-6.79
11544.84,-6.87
11660.29,-6.95
11776.89,-6.99
11894.66,-7.00
12013.60,-7.00
12133.74,-6.98
12255.08,-6.92
12377.63,-6.84
12501.41,-6.75
12626.42,-6.60
12752.68,-6.42
12880.21,-6.21
13009.01,-5.99
13139.10,-5.76
13270.49,-5.50
13403.20,-5.21
13537.23,-4.85
13672.60,-4.47
13809.33,-4.06
13947.42,-3.62
14086.90,-3.17
14227.77,-2.70
14370.04,-2.26
14513.74,-1.85
14658.88,-1.60
14805.47,-1.50
14953.52,-1.67
15103.06,-2.14
15254.09,-2.77
15406.63,-3.68
15560.70,-4.64
15716.30,-5.67
15873.47,-6.66
16032.20,-7.64
16192.52,-8.57
16354.45,-9.44
16517.99,-10.25
16683.17,-10.95
16850.01,-11.55
17018.51,-12.09
17188.69,-12.52
17360.58,-12.87
17534.18,-13.17
17709.53,-13.51
17886.62,-13.85
18065.49,-14.21
18246.14,-14.60
18428.60,-15.11
18612.89,-15.75
18799.02,-16.53
18987.01,-17.47
19176.88,-18.69
19368.65,-20.30
19562.33,-22.38
19757.96,-24.96
19955.54,-27.55
