frequency,raw
20.00,-1.59
20.20,-1.54
20.40,-1.50
20.61,-1.45
20.81,-1.40
21.02,-1.34
21.23,-1.28
21.44,-1.21
21.66,-1.13
21.87,-1.05
22.09,-0.97
22.31,-0.89
22.54,-0.82
22.76,-0.76
22.99,-0.70
23.22,-0.64
23.45,-0.59
23.69,-0.53
23.92,-0.48
24.16,-0.43
24.40,-0.38
24.65,-0.32
24.89,-0.27
25.14,-0.21
25.39,-0.15
25.65,-0.09
25.91,-0.03
26.16,0.04
26.43,0.11
26.69,0.17
26.96,0.23
27.23,0.28
27.50,0.32
27.77,0.37
28.05,0.41
28.33,0.45
28.62,0.50
28.90,0.55
29.19,0.60
29.48,0.64
29.78,0.68
30.08,0.72
30.38,0.76
30.68,0.81
30.99,0.86
31.30,0.91
31.61,0.96
31.93,1.00
32.24,1.04
32.57,1.08
32.89,1.12
33.22,1.17
33.55,1.21
33.89,1.26
34.23,1.31
34.57,1.36
34.92,1.40
35.27,1.44
35.62,1.48
35.97,1.51
36.33,1.55
36.70,1.58
37.06,1.62
37.43,1.67
37.81,1.72
38.19,1.77
38.57,1.80
38.95,1.84
39.34,1.87
39.74,1.91
40.14,1.95
40.54,1.99
40.94,2.03
41.35,2.06
41.76,2.09
42.18,2.13
42.60,2.16
43.03,2.20
43.46,2.24
43.90,2.28
44.33,2.31
44.78,2.34
45.23,2.36
45.68,2.39
46.13,2.43
46.60,2.47
47.06,2.50
47.53,2.54
48.01,2.56
48.49,2.59
48.97,2.61
49.46,2.63
49.96,2.66
50.46,2.68
50.96,2.71
51.47,2.74
51.99,2.77
52.51,2.80
53.03,2.83
53.56,2.85
54.10,2.88
54.64,2.90
55.18,2.93
55.74,2.97
56.29,3.00
56.86,3.02
57.42,3.03
58.00,3.04
58.58,3.05
59.16,3.06
59.76,3.06
60.35,3.08
60.96,3.10
61.57,3.15
62.18,3.19
62.80,3.21
63.43,3.24
64.07,3.27
64.71,3.31
65.35,3.33
66.01,3.34
66.67,3.35
67.33,3.37
68.01,3.39
68.69,3.41
69.37,3.43
70.07,3.45
70.77,3.47
71.48,3.49
72.19,3.50
72.91,3.51
73.64,3.52
74.38,3.53
75.12,3.55
75.87,3.57
76.63,3.58
77.40,3.60
78.17,3.61
78.95,3.62
79.74,3.63
80.54,3.64
81.35,3.65
82.16,3.66
82.98,3.67
83.81,3.69
84.65,3.70
85.50,3.71
86.35,3.72
87.22,3.73
88.09,3.74
88.97,3.75
89.86,3.75
90.76,3.76
91.66,3.77
92.58,3.78
93.51,3.79
94.44,3.79
95.39,3.80
96.34,3.81
97.30,3.81
98.28,3.81
99.26,3.81
100.25,3.82
101.25,3.82
102.27,3.83
103.29,3.83
104.32,3.83
105.37,3.83
106.42,3.83
107.48,3.84
108.56,3.83
109.64,3.83
110.74,3.84
111.85,3.84
112.97,3.83
114.10,3.83
115.24,3.83
116.39,3.83
117.55,3.83
118.73,3.82
119.92,3.81
121.12,3.81
122.33,3.82
123.55,3.79
124.79,3.76
126.03,3.75
127.29,3.73
128.57,3.71
129.85,3.69
131.15,3.68
132.46,3.66
133.79,3.66
135.12,3.66
136.48,3.66
137.84,3.66
139.22,3.68
140.61,3.69
142.02,3.70
143.44,3.71
144.87,3.72
146.32,3.72
147.78,3.72
149.26,3.71
150.75,3.70
152.26,3.70
153.78,3.69
155.32,3.69
156.88,3.69
158.44,3.69
160.03,3.69
161.63,3.68
163.24,3.67
164.88,3.66
166.53,3.66
168.19,3.65
169.87,3.64
171.57,3.63
173.29,3.62
175.02,3.61
176.77,3.60
178.54,3.59
180.32,3.58
182.13,3.55
183.95,3.54
185.79,3.52
187.65,3.50
189.52,3.49
191.42,3.48
193.33,3.47
195.27,3.45
197.22,3.44
199.19,3.42
201.18,3.40
203.19,3.39
205.23,3.36
207.28,3.35
209.35,3.33
211.44,3.31
213.56,3.29
215.69,3.27
217.85,3.26
220.03,3.23
222.23,3.21
224.45,3.18
226.70,3.16
228.96,3.14
231.25,3.12
233.57,3.10
235.90,3.08
238.26,3.03
240.64,2.99
243.05,3.00
245.48,2.97
247.93,2.94
250.41,2.91
252.92,2.88
255.45,2.84
258.00,2.82
260.58,2.79
263.19,2.77
265.82,2.74
268.48,2.73
271.16,2.70
273.87,2.67
276.61,2.65
279.38,2.63
282.17,2.60
284.99,2.57
287.84,2.55
290.72,2.53
293.63,2.50
296.57,2.48
299.53,2.46
302.53,2.44
305.55,2.41
308.61,2.38
311.69,2.35
314.81,2.32
317.96,2.29
321.14,2.26
324.35,2.23
327.59,2.20
330.87,2.17
334.18,2.14
337.52,2.11
340.90,2.08
344.30,2.05
347.75,2.02
351.23,1.98
354.74,1.95
358.28,1.92
361.87,1.89
365.49,1.86
369.14,1.83
372.83,1.80
376.56,1.76
380.33,1.73
384.13,1.70
387.97,1.66
391.85,1.63
395.77,1.60
399.73,1.56
403.72,1.53
407.76,1.49
411.84,1.46
415.96,1.42
420.12,1.39
424.32,1.36
428.56,1.32
432.85,1.28
437.18,1.25
441.55,1.21
445.96,1.18
450.42,1.15
454.93,1.11
459.48,1.08
464.07,1.04
468.71,1.01
473.40,0.97
478.13,0.94
482.91,0.90
487.74,0.87
492.62,0.83
497.55,0.80
502.52,0.76
507.55,0.73
512.62,0.69
517.75,0.66
522.93,0.62
528.16,0.58
533.44,0.55
538.77,0.51
544.16,0.48
549.60,0.44
555.10,0.40
560.65,0.37
566.25,0.34
571.92,0.31
577.64,0.27
583.41,0.24
589.25,0.21
595.14,0.18
601.09,0.14
607.10,0.12
613.17,0.09
619.30,0.05
625.50,0.02
631.75,-0.01
638.07,-0.03
644.45,-0.06
650.89,-0.09
657.40,-0.12
663.98,-0.15
670.62,-0.18
677.32,-0.20
684.10,-0.23
690.94,-0.25
697.85,-0.28
704.83,-0.30
711.87,-0.32
718.99,-0.34
726.18,-0.36
733.44,-0.38
740.78,-0.40
748.19,-0.42
755.67,-0.43
763.23,-0.45
770.86,-0.46
778.57,-0.47
786.35,-0.48
794.22,-0.49
802.16,-0.50
810.18,-0.50
818.28,-0.51
826.46,-0.51
834.73,-0.51
843.08,-0.50
851.51,-0.50
860.02,-0.49
868.62,-0.48
877.31,-0.47
886.08,-0.45
894.94,-0.42
903.89,-0.40
912.93,-0.39
922.06,-0.36
931.28,-0.33
940.59,-0.29
950.00,-0.26
959.50,-0.21
969.09,-0.17
978.78,-0.12
988.57,-0.07
998.46,-0.01
1008.44,0.05
1018.53,0.12
1028.71,0.18
1039.00,0.26
1049.39,0.33
1059.88,0.41
1070.48,0.49
1081.19,0.58
1092.00,0.66
1102.92,0.76
1113.95,0.85
1125.09,0.94
1136.34,1.04
1147.70,1.14
1159.18,1.23
1170.77,1.33
1182.48,1.43
1194.30,1.52
1206.25,1.61
1218.31,1.71
1230.49,1.80
1242.80,1.88
1255.22,1.97
1267.78,2.05
1280.45,2.13
1293.26,2.21
1306.19,2.29
1319.25,2.36
1332.45,2.44
1345.77,2.51
1359.23,2.57
1372.82,2.64
1386.55,2.71
1400.41,2.77
1414.42,2.83
1428.56,2.89
1442.85,2.95
1457.28,3.00
1471.85,3.06
1486.57,3.12
1501.43,3.17
1516.45,3.22
1531.61,3.28
1546.93,3.33
1562.40,3.38
1578.02,3.44
1593.80,3.49
1609.74,3.55
1625.84,3.61
1642.10,3.66
1658.52,3.72
1675.10,3.78
1691.85,3.84
1708.77,3.91
1725.86,3.97
1743.12,4.04
1760.55,4.11
1778.15,4.17
1795.94,4.25
1813.90,4.32
1832.03,4.40
1850.36,4.48
1868.86,4.56
1887.55,4.64
1906.42,4.73
1925.49,4.82
1944.74,4.91
1964.19,5.01
1983.83,5.11
2003.67,5.21
2023.71,5.31
2043.94,5.42
2064.38,5.53
2085.03,5.65
2105.88,5.77
2126.94,5.90
2148.20,6.03
2169.69,6.16
2191.38,6.30
2213.30,6.44
2235.43,6.58
2257.78,6.73
2280.36,6.88
2303.17,7.04
2326.20,7.20
2349.46,7.36
2372.95,7.52
2396.68,7.68
2420.65,7.85
2444.86,8.02
2469.31,8.18
2494.00,8.36
2518.94,8.53
2544.13,8.70
2569.57,8.87
2595.27,9.05
2621.22,9.22
2647.43,9.39
2673.90,9.56
2700.64,9.73
2727.65,9.90
2754.93,10.06
2782.48,10.22
2810.30,10.38
2838.40,10.52
2866.79,10.67
2895.46,10.80
2924.41,10.93
2953.65,11.05
2983.19,11.16
3013.02,11.26
3043.15,11.36
3073.58,11.44
3104.32,11.52
3135.36,11.59
3166.72,11.66
3198.38,11.72
3230.37,11.76
3262.67,11.80
3295.30,11.83
3328.25,11.85
3361.53,11.87
3395.15,11.87
3429.10,11.87
3463.39,11.86
3498.03,11.84
3533.01,11.82
3568.34,11.80
3604.02,11.78
3640.06,11.75
3676.46,11.73
3713.22,11.71
3750.36,11.68
3787.86,11.65
3825.74,11.62
3864.00,11.58
3902.64,11.54
3941.66,11.49
3981.08,11.44
4020.89,11.39
4061.10,11.34
4101.71,11.28
4142.73,11.22
4184.15,11.17
4226.00,11.11
4268.26,11.06
4310.94,11.00
4354.05,10.95
4397.59,10.90
4441.56,10.86
4485.98,10.82
4530.84,10.78
4576.15,10.74
4621.91,10.71
4668.13,10.67
4714.81,10.64
4761.96,10.61
4809.58,10.59
4857.67,10.56
4906.25,10.53
4955.31,10.51
5004.87,10.49
5054.91,10.47
5105.46,10.46
5156.52,10.45
5208.08,10.46
5260.16,10.47
5312.77,10.49
5365.89,10.52
5419.55,10.55
5473.75,10.58
5528.49,10.62
5583.77,10.65
5639.61,10.68
5696.00,10.71
5752.96,10.73
5810.49,10.75
5868.60,10.77
5927.28,10.78
5986.56,10.78
6046.42,10.78
6106.89,10.77
6167.96,10.76
6229.64,10.74
6291.93,10.71
6354.85,10.67
6418.40,10.63
6482.58,10.58
6547.41,10.53
6612.88,10.48
6679.01,10.43
6745.80,10.37
6813.26,10.32
6881.39,10.28
6950.21,10.24
7019.71,10.20
7089.91,10.17
7160.81,10.16
7232.41,10.16
7304.74,10.17
7377.79,10.19
7451.56,10.22
7526.08,10.24
7601.34,10.28
7677.35,10.31
7754.13,10.34
7831.67,10.37
7909.98,10.39
7989.08,10.40
8068.98,10.36
8149.67,10.31
8231.16,10.21
8313.47,10.05
8396.61,9.87
8480.57,9.62
8565.38,9.31
8651.03,8.95
8737.54,8.53
8824.92,8.05
8913.17,7.51
9002.30,6.96
9092.32,6.36
9183.25,5.76
9275.08,5.16
9367.83,4.56
9461.51,3.97
9556.12,3.39
9651.68,2.83
9748.20,2.28
9845.68,1.74
9944.14,1.22
10043.58,0.72
10144.02,0.25
10245.46,-0.19
10347.91,-0.62
10451.39,-1.03
10555.91,-1.41
10661.46,-1.76
10768.08,-2.09
10875.76,-2.39
10984.52,-2.67
11094.36,-2.93
11205.31,-3.17
11317.36,-3.37
11430.53,-3.56
11544.84,-3.72
11660.29,-3.85
11776.89,-3.97
11894.66,-4.05
12013.60,-4.11
12133.74,-4.15
12255.08,-4.15
12377.63,-4.13
12501.41,-4.08
12626.42,-4.00
12752.68,-3.89
12880.21,-3.72
13009.01,-3.52
13139.10,-3.32
13270.49,-3.05
13403.20,-2.74
13537.23,-2.36
13672.60,-1.94
13809.33,-1.47
13947.42,-0.91
14086.90,-0.28
14227.77,0.41
14370.04,1.17
14513.74,2.01
14658.88,2.91
14805.47,3.75
14953.52,4.49
15103.06,4.88
15254.09,5.09
15406.63,4.72
15560.70,4.19
15716.30,3.40
15873.47,2.51
16032.20,1.60
16192.52,0.74
16354.45,-0.04
16517.99,-0.77
16683.17,-1.37
16850.01,-1.89
17018.51,-2.34
17188.69,-2.68
17360.58,-2.96
17534.18,-3.19
17709.53,-3.38
17886.62,-3.60
18065.49,-3.90
18246.14,-4.31
18428.60,-5.08
18612.89,-6.16
18799.02,-7.57
18987.01,-9.38
19176.88,-11.71
19368.65,-14.43
19562.33,-17.52
19757.96,-20.95
19955.54,-24.38
