frequency,raw
20.00,11.67
20.20,11.67
20.40,11.66
20.61,11.65
20.81,11.64
21.02,11.63
21.23,11.62
21.44,11.61
21.66,11.60
21.87,11.59
22.09,11.59
22.31,11.58
22.54,11.57
22.76,11.56
22.99,11.55
23.22,11.54
23.45,11.53
23.69,11.52
23.92,11.51
24.16,11.49
24.40,11.48
24.65,11.47
24.89,11.45
25.14,11.44
25.39,11.42
25.65,11.40
25.91,11.39
26.16,11.37
26.43,11.36
26.69,11.35
26.96,11.33
27.23,11.32
27.50,11.30
27.77,11.27
28.05,11.25
28.33,11.22
28.62,11.20
28.90,11.18
29.19,11.16
29.48,11.14
29.78,11.12
30.08,11.10
30.38,11.08
30.68,11.05
30.99,11.02
31.30,10.99
31.61,10.97
31.93,10.94
32.24,10.92
32.57,10.89
32.89,10.86
33.22,10.84
33.55,10.81
33.89,10.78
34.23,10.76
34.57,10.73
34.92,10.70
35.27,10.66
35.62,10.63
35.97,10.60
36.33,10.56
36.70,10.53
37.06,10.50
37.43,10.46
37.81,10.43
38.19,10.40
38.57,10.36
38.95,10.33
39.34,10.29
39.74,10.25
40.14,10.21
40.54,10.17
40.94,10.14
41.35,10.10
41.76,10.06
42.18,10.02
42.60,9.98
43.03,9.94
43.46,9.89
43.90,9.85
44.33,9.81
44.78,9.76
45.23,9.71
45.68,9.67
46.13,9.62
46.60,9.58
47.06,9.53
47.53,9.48
48.01,9.43
48.49,9.38
48.97,9.33
49.46,9.28
49.96,9.23
50.46,9.18
50.96,9.13
51.47,9.07
51.99,9.02
52.51,8.97
53.03,8.91
53.56,8.85
54.10,8.80
54.64,8.74
55.18,8.68
55.74,8.62
56.29,8.56
56.86,8.50
57.42,8.44
58.00,8.38
58.58,8.31
59.16,8.25
59.76,8.18
60.35,8.11
60.96,8.05
61.57,7.99
62.18,7.92
62.80,7.85
63.43,7.78
64.07,7.72
64.71,7.65
65.35,7.58
66.01,7.50
66.67,7.43
67.33,7.35
68.01,7.28
68.69,7.21
69.37,7.13
70.07,7.05
70.77,6.98
71.48,6.90
72.19,6.82
72.91,6.75
73.64,6.67
74.38,6.59
75.12,6.51
75.87,6.43
76.63,6.36
77.40,6.28
78.17,6.21
78.95,6.14
79.74,6.06
80.54,5.99
81.35,5.91
82.16,5.83
82.98,5.76
83.81,5.68
84.65,5.60
85.50,5.53
86.35,5.45
87.22,5.39
88.09,5.31
88.97,5.24
89.86,5.17
90.76,5.10
91.66,5.03
92.58,4.97
93.51,4.90
94.44,4.84
95.39,4.77
96.34,4.70
97.30,4.65
98.28,4.59
99.26,4.52
100.25,4.46
101.25,4.40
102.27,4.35
103.29,4.30
104.32,4.24
105.37,4.19
106.42,4.13
107.48,4.08
108.56,4.03
109.64,3.99
110.74,3.94
111.85,3.89
112.97,3.85
114.10,3.80
115.24,3.76
116.39,3.72
117.55,3.68
118.73,3.64
119.92,3.59
121.12,3.55
122.33,3.50
123.55,3.47
124.79,3.44
126.03,3.40
127.29,3.36
128.57,3.32
129.85,3.28
131.15,3.24
132.46,3.20
133.79,3.16
135.12,3.12
136.48,3.08
137.84,3.04
139.22,3.00
140.61,2.96
142.02,2.91
143.44,2.87
144.87,2.82
146.32,2.77
147.78,2.72
149.26,2.68
150.75,2.63
152.26,2.57
153.78,2.52
155.32,2.47
156.88,2.41
158.44,2.36
160.03,2.30
161.63,2.26
163.24,2.23
164.88,2.20
166.53,2.19
168.19,2.19
169.87,2.19
171.57,2.18
173.29,2.16
175.02,2.13
176.77,2.08
178.54,2.03
180.32,1.97
182.13,1.92
183.95,1.87
185.79,1.82
187.65,1.78
189.52,1.73
191.42,1.69
193.33,1.66
195.27,1.64
197.22,1.60
199.19,1.56
201.18,1.52
203.19,1.47
205.23,1.43
207.28,1.38
209.35,1.33
211.44,1.28
213.56,1.24
215.69,1.19
217.85,1.15
220.03,1.10
222.23,1.06
224.45,1.01
226.70,0.97
228.96,0.93
231.25,0.89
233.57,0.86
235.90,0.82
238.26,0.78
240.64,0.75
243.05,0.71
245.48,0.68
247.93,0.65
250.41,0.62
252.92,0.59
255.45,0.57
258.00,0.56
260.58,0.56
263.19,0.57
265.82,0.58
268.48,0.59
271.16,0.60
273.87,0.60
276.61,0.59
279.38,0.58
282.17,0.57
284.99,0.57
287.84,0.56
290.72,0.55
293.63,0.53
296.57,0.52
299.53,0.51
302.53,0.50
305.55,0.48
308.61,0.47
311.69,0.46
314.81,0.44
317.96,0.43
321.14,0.41
324.35,0.40
327.59,0.39
330.87,0.37
334.18,0.36
337.52,0.34
340.90,0.33
344.30,0.32
347.75,0.31
351.23,0.29
354.74,0.28
358.28,0.26
361.87,0.25
365.49,0.24
369.14,0.23
372.83,0.21
376.56,0.20
380.33,0.18
384.13,0.17
387.97,0.16
391.85,0.14
395.77,0.13
399.73,0.11
403.72,0.10
407.76,0.09
411.84,0.08
415.96,0.06
420.12,0.05
424.32,0.03
428.56,0.02
432.85,0.01
437.18,-0.01
441.55,-0.02
445.96,-0.04
450.42,-0.05
454.93,-0.07
459.48,-0.08
464.07,-0.10
468.71,-0.11
473.40,-0.13
478.13,-0.14
482.91,-0.16
487.74,-0.17
492.62,-0.18
497.55,-0.20
502.52,-0.21
507.55,-0.23
512.62,-0.24
517.75,-0.26
522.93,-0.27
528.16,-0.29
533.44,-0.30
538.77,-0.31
544.16,-0.33
549.60,-0.34
555.10,-0.36
560.65,-0.37
566.25,-0.38
571.92,-0.39
577.64,-0.41
583.41,-0.42
589.25,-0.43
595.14,-0.45
601.09,-0.46
607.10,-0.47
613.17,-0.48
619.30,-0.49
625.50,-0.51
631.75,-0.52
638.07,-0.53
644.45,-0.54
650.89,-0.54
657.40,-0.55
663.98,-0.56
670.62,-0.57
677.32,-0.58
684.10,-0.59
690.94,-0.60
697.85,-0.60
704.83,-0.61
711.87,-0.61
718.99,-0.62
726.18,-0.62
733.44,-0.62
740.78,-0.62
748.19,-0.62
755.67,-0.63
763.23,-0.63
770.86,-0.62
778.57,-0.62
786.35,-0.62
794.22,-0.61
802.16,-0.60
810.18,-0.60
818.28,-0.59
826.46,-0.58
834.73,-0.56
843.08,-0.55
851.51,-0.54
860.02,-0.52
868.62,-0.50
877.31,-0.48
886.08,-0.46
894.94,-0.43
903.89,-0.41
912.93,-0.37
922.06,-0.34
931.28,-0.31
940.59,-0.28
950.00,-0.24
959.50,-0.20
969.09,-0.15
978.78,-0.11
988.57,-0.06
998.46,-0.01
1008.44,0.05
1018.53,0.10
1028.71,0.15
1039.00,0.21
1049.39,0.27
1059.88,0.34
1070.48,0.40
1081.19,0.46
1092.00,0.52
1102.92,0.59
1113.95,0.65
1125.09,0.72
1136.34,0.79
1147.70,0.85
1159.18,0.91
1170.77,0.98
1182.48,1.04
1194.30,1.10
1206.25,1.16
1218.31,1.22
1230.49,1.27
1242.80,1.32
1255.22,1.38
1267.78,1.43
1280.45,1.48
1293.26,1.52
1306.19,1.57
1319.25,1.61
1332.45,1.65
1345.77,1.70
1359.23,1.74
1372.82,1.78
1386.55,1.81
1400.41,1.85
1414.42,1.89
1428.56,1.93
1442.85,1.97
1457.28,2.01
1471.85,2.05
1486.57,2.09
1501.43,2.13
1516.45,2.18
1531.61,2.22
1546.93,2.28
1562.40,2.33
1578.02,2.39
1593.80,2.45
1609.74,2.51
1625.84,2.57
1642.10,2.65
1658.52,2.72
1675.10,2.80
1691.85,2.88
1708.77,2.97
1725.86,3.06
1743.12,3.16
1760.55,3.26
1778.15,3.37
1795.94,3.47
1813.90,3.59
1832.03,3.70
1850.36,3.82
1868.86,3.95
1887.55,4.07
1906.42,4.20
1925.49,4.33
1944.74,4.46
1964.19,4.59
1983.83,4.73
2003.67,4.86
2023.71,5.00
2043.94,5.13
2064.38,5.27
2085.03,5.40
2105.88,5.53
2126.94,5.66
2148.20,5.79
2169.69,5.91
2191.38,6.03
2213.30,6.15
2235.43,6.27
2257.78,6.38
2280.36,6.48
2303.17,6.58
2326.20,6.68
2349.46,6.77
2372.95,6.85
2396.68,6.92
2420.65,6.99
2444.86,7.05
2469.31,7.10
2494.00,7.15
2518.94,7.20
2544.13,7.24
2569.57,7.28
2595.27,7.32
2621.22,7.35
2647.43,7.37
2673.90,7.39
2700.64,7.40
2727.65,7.41
2754.93,7.42
2782.48,7.43
2810.30,7.43
2838.40,7.43
2866.79,7.42
2895.46,7.42
2924.41,7.42
2953.65,7.42
2983.19,7.43
3013.02,7.45
3043.15,7.47
3073.58,7.49
3104.32,7.53
3135.36,7.57
3166.72,7.62
3198.38,7.68
3230.37,7.72
3262.67,7.76
3295.30,7.81
3328.25,7.87
3361.53,7.92
3395.15,7.97
3429.10,8.02
3463.39,8.08
3498.03,8.12
3533.01,8.17
3568.34,8.21
3604.02,8.25
3640.06,8.28
3676.46,8.31
3713.22,8.32
3750.36,8.33
3787.86,8.33
3825.74,8.32
3864.00,8.31
3902.64,8.28
3941.66,8.25
3981.08,8.23
4020.89,8.20
4061.10,8.16
4101.71,8.13
4142.73,8.10
4184.15,8.07
4226.00,8.04
4268.26,8.02
4310.94,7.99
4354.05,7.98
4397.59,7.97
4441.56,7.96
4485.98,7.95
4530.84,7.95
4576.15,7.95
4621.91,7.96
4668.13,7.99
4714.81,8.01
4761.96,8.03
4809.58,8.06
4857.67,8.08
4906.25,8.11
4955.31,8.14
5004.87,8.17
5054.91,8.20
5105.46,8.23
5156.52,8.24
5208.08,8.26
5260.16,8.26
5312.77,8.26
5365.89,8.26
5419.55,8.25
5473.75,8.23
5528.49,8.21
5583.77,8.18
5639.61,8.15
5696.00,8.12
5752.96,8.07
5810.49,8.02
5868.60,7.96
5927.28,7.89
5986.56,7.82
6046.42,7.73
6106.89,7.65
6167.96,7.55
6229.64,7.45
6291.93,7.35
6354.85,7.26
6418.40,7.15
6482.58,7.05
6547.41,6.95
6612.88,6.85
6679.01,6.75
6745.80,6.64
6813.26,6.54
6881.39,6.43
6950.21,6.33
7019.71,6.21
7089.91,6.11
7160.81,6.01
7232.41,5.92
7304.74,5.83
7377.79,5.75
7451.56,5.68
7526.08,5.62
7601.34,5.56
7677.35,5.51
7754.13,5.45
7831.67,5.37
7909.98,5.27
7989.08,5.13
8068.98,4.94
8149.67,4.73
8231.16,4.50
8313.47,4.25
8396.61,4.00
8480.57,3.74
8565.38,3.47
8651.03,3.19
8737.54,2.87
8824.92,2.52
8913.17,2.16
9002.30,1.79
9092.32,1.41
9183.25,1.03
9275.08,0.65
9367.83,0.28
9461.51,-0.08
9556.12,-0.43
9651.68,-0.75
9748.20,-1.06
9845.68,-1.34
9944.14,-1.60
10043.58,-1.82
10144.02,-2.01
10245.46,-2.17
10347.91,-2.30
10451.39,-2.41
10555.91,-2.47
10661.46,-2.50
10768.08,-2.50
10875.76,-2.45
10984.52,-2.35
11094.36,-2.21
11205.31,-2.03
11317.36,-1.77
11430.53,-1.47
11544.84,-1.08
11660.29,-0.63
11776.89,-0.13
11894.66,0.55
12013.60,1.25
12133.74,2.06
12255.08,3.02
12377.63,4.06
12501.41,5.15
12626.42,6.19
12752.68,6.90
12880.21,6.76
13009.01,6.15
13139.10,5.54
13270.49,4.31
13403.20,3.00
13537.23,1.79
13672.60,0.69
13809.33,-0.31
13947.42,-1.12
14086.90,-1.81
14227.77,-2.43
14370.04,-2.96
14513.74,-3.39
14658.88,-3.70
14805.47,-3.96
14953.52,-4.12
15103.06,-4.19
15254.09,-4.22
15406.63,-4.12
15560.70,-3.97
15716.30,-3.75
15873.47,-3.46
16032.20,-3.16
16192.52,-2.83
16354.45,-2.68
16517.99,-2.69
16683.17,-3.19
16850.01,-4.10
17018.51,-5.30
17188.69,-6.63
17360.58,-7.46
17534.18,-8.60
17709.53,-12.14
17886.62,-13.52
18065.49,-14.27
18246.14,-15.02
18428.60,-15.67
18612.89,-16.36
18799.02,-23.80
18987.01,-50.15
19176.88,-58.19
19368.65,-59.58
19562.33,-58.94
19757.96,-60.97
19955.54,-63.00
