frequency,raw
20.00,3.56
20.20,3.56
20.40,3.56
20.61,3.56
20.81,3.56
21.02,3.58
21.23,3.62
21.44,3.69
21.66,3.78
21.87,3.87
22.09,3.97
22.31,4.06
22.54,4.14
22.76,4.20
22.99,4.25
23.22,4.30
23.45,4.34
23.69,4.38
23.92,4.43
24.16,4.49
24.40,4.54
24.65,4.60
24.89,4.66
25.14,4.71
25.39,4.76
25.65,4.81
25.91,4.86
26.16,4.91
26.43,4.96
26.69,5.01
26.96,5.06
27.23,5.12
27.50,5.17
27.77,5.22
28.05,5.27
28.33,5.34
28.62,5.40
28.90,5.46
29.19,5.51
29.48,5.56
29.78,5.59
30.08,5.61
30.38,5.62
30.68,5.61
30.99,5.61
31.30,5.61
31.61,5.61
31.93,5.62
32.24,5.64
32.57,5.67
32.89,5.72
33.22,5.77
33.55,5.82
33.89,5.87
34.23,5.92
34.57,5.96
34.92,5.99
35.27,6.01
35.62,6.03
35.97,6.04
36.33,6.07
36.70,6.09
37.06,6.12
37.43,6.16
37.81,6.19
38.19,6.23
38.57,6.26
38.95,6.29
39.34,6.32
39.74,6.36
40.14,6.39
40.54,6.43
40.94,6.46
41.35,6.49
41.76,6.51
42.18,6.53
42.60,6.55
43.03,6.56
43.46,6.58
43.90,6.59
44.33,6.61
44.78,6.62
45.23,6.63
45.68,6.65
46.13,6.67
46.60,6.70
47.06,6.74
47.53,6.79
48.01,6.82
48.49,6.84
48.97,6.84
49.46,6.84
49.96,6.85
50.46,6.87
50.96,6.90
51.47,6.93
51.99,6.95
52.51,6.96
53.03,6.97
53.56,6.97
54.10,6.97
54.64,6.98
55.18,6.99
55.74,7.01
56.29,7.04
56.86,7.07
57.42,7.10
58.00,7.14
58.58,7.19
59.16,7.23
59.76,7.27
60.35,7.27
60.96,7.25
61.57,7.22
62.18,7.18
62.80,7.15
63.43,7.14
64.07,7.13
64.71,7.12
65.35,7.13
66.01,7.13
66.67,7.14
67.33,7.14
68.01,7.14
68.69,7.14
69.37,7.15
70.07,7.16
70.77,7.18
71.48,7.21
72.19,7.23
72.91,7.23
73.64,7.23
74.38,7.21
75.12,7.20
75.87,7.18
76.63,7.16
77.40,7.15
78.17,7.14
78.95,7.14
79.74,7.13
80.54,7.13
81.35,7.12
82.16,7.11
82.98,7.11
83.81,7.11
84.65,7.11
85.50,7.11
86.35,7.11
87.22,7.11
88.09,7.10
88.97,7.09
89.86,7.07
90.76,7.06
91.66,7.05
92.58,7.04
93.51,7.02
94.44,7.01
95.39,6.99
96.34,6.97
97.30,6.95
98.28,6.93
99.26,6.92
100.25,6.92
101.25,6.92
102.27,6.91
103.29,6.91
104.32,6.90
105.37,6.89
106.42,6.88
107.48,6.87
108.56,6.85
109.64,6.84
110.74,6.82
111.85,6.79
112.97,6.77
114.10,6.74
115.24,6.71
116.39,6.67
117.55,6.62
118.73,6.58
119.92,6.54
121.12,6.52
122.33,6.51
123.55,6.50
124.79,6.48
126.03,6.45
127.29,6.42
128.57,6.37
129.85,6.32
131.15,6.27
132.46,6.21
133.79,6.16
135.12,6.11
136.48,6.07
137.84,6.04
139.22,6.04
140.61,6.05
142.02,6.08
143.44,6.11
144.87,6.15
146.32,6.18
147.78,6.21
149.26,6.22
150.75,6.22
152.26,6.22
153.78,6.21
155.32,6.19
156.88,6.17
158.44,6.14
160.03,6.11
161.63,6.08
163.24,6.05
164.88,6.02
166.53,5.99
168.19,5.96
169.87,5.93
171.57,5.90
173.29,5.86
175.02,5.83
176.77,5.80
178.54,5.76
180.32,5.73
182.13,5.70
183.95,5.66
185.79,5.62
187.65,5.58
189.52,5.54
191.42,5.50
193.33,5.46
195.27,5.41
197.22,5.37
199.19,5.33
201.18,5.29
203.19,5.25
205.23,5.22
207.28,5.18
209.35,5.14
211.44,5.10
213.56,5.05
215.69,5.01
217.85,4.97
220.03,4.92
222.23,4.88
224.45,4.83
226.70,4.79
228.96,4.74
231.25,4.71
233.57,4.67
235.90,4.64
238.26,4.60
240.64,4.56
243.05,4.51
245.48,4.44
247.93,4.38
250.41,4.32
252.92,4.26
255.45,4.20
258.00,4.14
260.58,4.09
263.19,4.04
265.82,3.99
268.48,3.95
271.16,3.91
273.87,3.88
276.61,3.84
279.38,3.81
282.17,3.78
284.99,3.75
287.84,3.71
290.72,3.67
293.63,3.63
296.57,3.59
299.53,3.55
302.53,3.50
305.55,3.46
308.61,3.41
311.69,3.36
314.81,3.32
317.96,3.27
321.14,3.22
324.35,3.17
327.59,3.13
330.87,3.08
334.18,3.03
337.52,2.98
340.90,2.93
344.30,2.88
347.75,2.84
351.23,2.79
354.74,2.74
358.28,2.69
361.87,2.64
365.49,2.59
369.14,2.54
372.83,2.49
376.56,2.44
380.33,2.39
384.13,2.34
387.97,2.29
391.85,2.24
395.77,2.19
399.73,2.14
403.72,2.09
407.76,2.05
411.84,2.00
415.96,1.95
420.12,1.90
424.32,1.85
428.56,1.80
432.85,1.76
437.18,1.71
441.55,1.66
445.96,1.61
450.42,1.56
454.93,1.51
459.48,1.47
464.07,1.42
468.71,1.37
473.40,1.33
478.13,1.28
482.91,1.24
487.74,1.19
492.62,1.14
497.55,1.10
502.52,1.05
507.55,1.01
512.62,0.96
517.75,0.91
522.93,0.87
528.16,0.82
533.44,0.78
538.77,0.73
544.16,0.69
549.60,0.65
555.10,0.61
560.65,0.56
566.25,0.52
571.92,0.48
577.64,0.44
583.41,0.40
589.25,0.36
595.14,0.32
601.09,0.28
607.10,0.24
613.17,0.20
619.30,0.17
625.50,0.13
631.75,0.09
638.07,0.06
644.45,0.02
650.89,-0.01
657.40,-0.04
663.98,-0.08
670.62,-0.11
677.32,-0.15
684.10,-0.18
690.94,-0.21
697.85,-0.24
704.83,-0.26
711.87,-0.29
718.99,-0.31
726.18,-0.34
733.44,-0.36
740.78,-0.38
748.19,-0.40
755.67,-0.42
763.23,-0.44
770.86,-0.46
778.57,-0.47
786.35,-0.49
794.22,-0.50
802.16,-0.51
810.18,-0.51
818.28,-0.52
826.46,-0.52
834.73,-0.52
843.08,-0.52
851.51,-0.52
860.02,-0.51
868.62,-0.50
877.31,-0.49
886.08,-0.48
894.94,-0.46
903.89,-0.44
912.93,-0.41
922.06,-0.38
931.28,-0.34
940.59,-0.31
950.00,-0.27
959.50,-0.22
969.09,-0.18
978.78,-0.12
988.57,-0.07
998.46,-0.01
1008.44,0.05
1018.53,0.12
1028.71,0.19
1039.00,0.26
1049.39,0.34
1059.88,0.42
1070.48,0.50
1081.19,0.59
1092.00,0.67
1102.92,0.76
1113.95,0.85
1125.09,0.94
1136.34,1.04
1147.70,1.13
1159.18,1.23
1170.77,1.33
1182.48,1.42
1194.30,1.51
1206.25,1.61
1218.31,1.70
1230.49,1.79
1242.80,1.88
1255.22,1.96
1267.78,2.04
1280.45,2.12
1293.26,2.20
1306.19,2.27
1319.25,2.35
1332.45,2.42
1345.77,2.48
1359.23,2.55
1372.82,2.61
1386.55,2.68
1400.41,2.74
1414.42,2.80
1428.56,2.86
1442.85,2.92
1457.28,2.97
1471.85,3.03
1486.57,3.09
1501.43,3.15
1516.45,3.21
1531.61,3.27
1546.93,3.33
1562.40,3.40
1578.02,3.46
1593.80,3.52
1609.74,3.59
1625.84,3.66
1642.10,3.73
1658.52,3.80
1675.10,3.87
1691.85,3.94
1708.77,4.01
1725.86,4.09
1743.12,4.17
1760.55,4.25
1778.15,4.33
1795.94,4.42
1813.90,4.50
1832.03,4.59
1850.36,4.68
1868.86,4.78
1887.55,4.88
1906.42,4.98
1925.49,5.08
1944.74,5.18
1964.19,5.29
1983.83,5.40
2003.67,5.51
2023.71,5.62
2043.94,5.74
2064.38,5.86
2085.03,5.98
2105.88,6.10
2126.94,6.23
2148.20,6.36
2169.69,6.50
2191.38,6.63
2213.30,6.78
2235.43,6.92
2257.78,7.07
2280.36,7.22
2303.17,7.37
2326.20,7.53
2349.46,7.69
2372.95,7.85
2396.68,8.02
2420.65,8.19
2444.86,8.36
2469.31,8.53
2494.00,8.71
2518.94,8.88
2544.13,9.06
2569.57,9.24
2595.27,9.43
2621.22,9.61
2647.43,9.79
2673.90,9.97
2700.64,10.15
2727.65,10.33
2754.93,10.51
2782.48,10.68
2810.30,10.85
2838.40,11.01
2866.79,11.17
2895.46,11.33
2924.41,11.48
2953.65,11.62
2983.19,11.76
3013.02,11.90
3043.15,12.04
3073.58,12.17
3104.32,12.29
3135.36,12.41
3166.72,12.52
3198.38,12.63
3230.37,12.71
3262.67,12.79
3295.30,12.85
3328.25,12.89
3361.53,12.93
3395.15,12.95
3429.10,12.96
3463.39,12.96
3498.03,12.95
3533.01,12.93
3568.34,12.91
3604.02,12.89
3640.06,12.85
3676.46,12.82
3713.22,12.78
3750.36,12.73
3787.86,12.68
3825.74,12.63
3864.00,12.57
3902.64,12.51
3941.66,12.44
3981.08,12.36
4020.89,12.28
4061.10,12.20
4101.71,12.11
4142.73,12.01
4184.15,11.92
4226.00,11.82
4268.26,11.72
4310.94,11.62
4354.05,11.52
4397.59,11.42
4441.56,11.31
4485.98,11.21
4530.84,11.10
4576.15,10.99
4621.91,10.88
4668.13,10.76
4714.81,10.63
4761.96,10.51
4809.58,10.37
4857.67,10.24
4906.25,10.10
4955.31,9.97
5004.87,9.84
5054.91,9.71
5105.46,9.59
5156.52,9.48
5208.08,9.37
5260.16,9.26
5312.77,9.16
5365.89,9.06
5419.55,8.96
5473.75,8.86
5528.49,8.77
5583.77,8.67
5639.61,8.57
5696.00,8.47
5752.96,8.38
5810.49,8.28
5868.60,8.18
5927.28,8.08
5986.56,7.99
6046.42,7.90
6106.89,7.81
6167.96,7.72
6229.64,7.64
6291.93,7.57
6354.85,7.50
6418.40,7.44
6482.58,7.40
6547.41,7.36
6612.88,7.34
6679.01,7.34
6745.80,7.35
6813.26,7.38
6881.39,7.43
6950.21,7.50
7019.71,7.58
7089.91,7.69
7160.81,7.82
7232.41,7.96
7304.74,8.13
7377.79,8.31
7451.56,8.51
7526.08,8.71
7601.34,8.92
7677.35,9.12
7754.13,9.31
7831.67,9.46
7909.98,9.59
7989.08,9.68
8068.98,9.69
8149.67,9.64
8231.16,9.53
8313.47,9.33
8396.61,9.08
8480.57,8.75
8565.38,8.35
8651.03,7.91
8737.54,7.42
8824.92,6.89
8913.17,6.31
9002.30,5.73
9092.32,5.12
9183.25,4.50
9275.08,3.88
9367.83,3.25
9461.51,2.62
9556.12,1.99
9651.68,1.36
9748.20,0.73
9845.68,0.11
9944.14,-0.49
10043.58,-1.08
10144.02,-1.65
10245.46,-2.17
10347.91,-2.66
10451.39,-3.11
10555.91,-3.51
10661.46,-3.88
10768.08,-4.20
10875.76,-4.48
10984.52,-4.72
11094.36,-4.94
11205.31,-5.12
11317.36,-5.25
11430.53,-5.37
11544.84,-5.45
11660.29,-5.50
11776.89,-5.53
11894.66,-5.50
12013.60,-5.45
12133.74,-5.37
12255.08,-5.24
12377.63,-5.09
12501.41,-4.91
12626.42,-4.69
12752.68,-4.44
12880.21,-4.13
13009.01,-3.78
13139.10,-3.43
13270.49,-2.98
13403.20,-2.50
13537.23,-1.93
13672.60,-1.32
13809.33,-0.67
13947.42,0.02
14086.90,0.68
14227.77,1.34
14370.04,1.92
14513.74,2.39
14658.88,2.63
14805.47,2.73
14953.52,2.61
15103.06,2.25
15254.09,1.79
15406.63,1.10
15560.70,0.38
15716.30,-0.39
15873.47,-1.11
16032.20,-1.79
16192.52,-2.35
16354.45,-2.78
16517.99,-3.11
16683.17,-3.23
16850.01,-3.23
17018.51,-3.13
17188.69,-2.88
17360.58,-2.59
17534.18,-2.31
17709.53,-2.11
17886.62,-2.10
18065.49,-2.28
18246.14,-2.71
18428.60,-3.53
18612.89,-4.60
18799.02,-5.90
18987.01,-7.43
19176.88,-9.17
19368.65,-11.02
19562.33,-12.93
19757.96,-14.84
19955.54,-16.75
