frequency,raw
20.00,8.61
20.20,8.60
20.40,8.60
20.61,8.59
20.81,8.58
21.02,8.56
21.23,8.55
21.44,8.54
21.66,8.53
21.87,8.52
22.09,8.51
22.31,8.50
22.54,8.49
22.76,8.48
22.99,8.47
23.22,8.45
23.45,8.44
23.69,8.42
23.92,8.41
24.16,8.39
24.40,8.37
24.65,8.36
24.89,8.34
25.14,8.33
25.39,8.31
25.65,8.29
25.91,8.28
26.16,8.26
26.43,8.24
26.69,8.23
26.96,8.21
27.23,8.19
27.50,8.17
27.77,8.15
28.05,8.13
28.33,8.11
28.62,8.09
28.90,8.07
29.19,8.05
29.48,8.03
29.78,8.01
30.08,7.98
30.38,7.96
30.68,7.94
30.99,7.92
31.30,7.89
31.61,7.87
31.93,7.84
32.24,7.81
32.57,7.79
32.89,7.77
33.22,7.74
33.55,7.72
33.89,7.69
34.23,7.67
34.57,7.64
34.92,7.62
35.27,7.60
35.62,7.57
35.97,7.55
36.33,7.52
36.70,7.49
37.06,7.46
37.43,7.42
37.81,7.39
38.19,7.36
38.57,7.34
38.95,7.32
39.34,7.32
39.74,7.31
40.14,7.28
40.54,7.25
40.94,7.19
41.35,7.14
41.76,7.09
42.18,7.06
42.60,7.03
43.03,7.00
43.46,6.97
43.90,6.95
44.33,6.92
44.78,6.89
45.23,6.86
45.68,6.82
46.13,6.78
46.60,6.75
47.06,6.72
47.53,6.68
48.01,6.66
48.49,6.62
48.97,6.59
49.46,6.55
49.96,6.51
50.46,6.48
50.96,6.44
51.47,6.41
51.99,6.38
52.51,6.35
53.03,6.32
53.56,6.27
54.10,6.22
54.64,6.18
55.18,6.16
55.74,6.14
56.29,6.10
56.86,6.06
57.42,6.02
58.00,5.97
58.58,5.80
59.16,5.68
59.76,5.67
60.35,5.73
60.96,5.81
61.57,5.79
62.18,5.72
62.80,5.68
63.43,5.64
64.07,5.59
64.71,5.56
65.35,5.53
66.01,5.49
66.67,5.44
67.33,5.40
68.01,5.36
68.69,5.33
69.37,5.29
70.07,5.25
70.77,5.21
71.48,5.18
72.19,5.15
72.91,5.12
73.64,5.08
74.38,5.05
75.12,5.02
75.87,4.99
76.63,4.95
77.40,4.91
78.17,4.88
78.95,4.84
79.74,4.80
80.54,4.76
81.35,4.73
82.16,4.69
82.98,4.65
83.81,4.61
84.65,4.57
85.50,4.53
86.35,4.49
87.22,4.46
88.09,4.41
88.97,4.37
89.86,4.33
90.76,4.30
91.66,4.26
92.58,4.22
93.51,4.18
94.44,4.14
95.39,4.10
96.34,4.06
97.30,4.02
98.28,3.98
99.26,3.95
100.25,3.91
101.25,3.86
102.27,3.82
103.29,3.78
104.32,3.75
105.37,3.71
106.42,3.67
107.48,3.63
108.56,3.58
109.64,3.54
110.74,3.51
111.85,3.47
112.97,3.43
114.10,3.39
115.24,3.35
116.39,3.31
117.55,3.27
118.73,3.24
119.92,3.21
121.12,3.18
122.33,3.15
123.55,3.12
124.79,3.09
126.03,3.07
127.29,3.04
128.57,3.02
129.85,3.00
131.15,2.98
132.46,2.96
133.79,2.94
135.12,2.92
136.48,2.89
137.84,2.87
139.22,2.85
140.61,2.82
142.02,2.79
143.44,2.76
144.87,2.73
146.32,2.70
147.78,2.67
149.26,2.64
150.75,2.61
152.26,2.58
153.78,2.55
155.32,2.51
156.88,2.48
158.44,2.45
160.03,2.42
161.63,2.39
163.24,2.36
164.88,2.33
166.53,2.30
168.19,2.27
169.87,2.24
171.57,2.21
173.29,2.18
175.02,2.15
176.77,2.13
178.54,2.10
180.32,2.07
182.13,2.04
183.95,2.01
185.79,1.98
187.65,1.96
189.52,1.93
191.42,1.90
193.33,1.87
195.27,1.84
197.22,1.82
199.19,1.79
201.18,1.76
203.19,1.73
205.23,1.71
207.28,1.68
209.35,1.66
211.44,1.64
213.56,1.61
215.69,1.59
217.85,1.57
220.03,1.55
222.23,1.53
224.45,1.52
226.70,1.50
228.96,1.48
231.25,1.46
233.57,1.44
235.90,1.41
238.26,1.39
240.64,1.36
243.05,1.34
245.48,1.32
247.93,1.29
250.41,1.27
252.92,1.24
255.45,1.22
258.00,1.19
260.58,1.17
263.19,1.15
265.82,1.14
268.48,1.12
271.16,1.11
273.87,1.09
276.61,1.07
279.38,1.06
282.17,1.04
284.99,1.02
287.84,0.99
290.72,0.97
293.63,0.95
296.57,0.93
299.53,0.91
302.53,0.89
305.55,0.87
308.61,0.85
311.69,0.83
314.81,0.81
317.96,0.79
321.14,0.77
324.35,0.75
327.59,0.73
330.87,0.71
334.18,0.69
337.52,0.67
340.90,0.65
344.30,0.63
347.75,0.61
351.23,0.59
354.74,0.58
358.28,0.56
361.87,0.54
365.49,0.52
369.14,0.50
372.83,0.48
376.56,0.47
380.33,0.45
384.13,0.43
387.97,0.41
391.85,0.40
395.77,0.38
399.73,0.36
403.72,0.35
407.76,0.33
411.84,0.32
415.96,0.30
420.12,0.28
424.32,0.27
428.56,0.25
432.85,0.23
437.18,0.22
441.55,0.20
445.96,0.18
450.42,0.17
454.93,0.15
459.48,0.13
464.07,0.12
468.71,0.10
473.40,0.08
478.13,0.07
482.91,0.05
487.74,0.04
492.62,0.02
497.55,0.00
502.52,-0.01
507.55,-0.03
512.62,-0.04
517.75,-0.06
522.93,-0.08
528.16,-0.09
533.44,-0.11
538.77,-0.12
544.16,-0.14
549.60,-0.15
555.10,-0.17
560.65,-0.19
566.25,-0.20
571.92,-0.22
577.64,-0.23
583.41,-0.25
589.25,-0.26
595.14,-0.28
601.09,-0.29
607.10,-0.31
613.17,-0.32
619.30,-0.34
625.50,-0.35
631.75,-0.37
638.07,-0.38
644.45,-0.39
650.89,-0.41
657.40,-0.42
663.98,-0.43
670.62,-0.45
677.32,-0.46
684.10,-0.47
690.94,-0.48
697.85,-0.49
704.83,-0.50
711.87,-0.51
718.99,-0.52
726.18,-0.53
733.44,-0.53
740.78,-0.54
748.19,-0.54
755.67,-0.55
763.23,-0.55
770.86,-0.55
778.57,-0.56
786.35,-0.56
794.22,-0.56
802.16,-0.55
810.18,-0.55
818.28,-0.55
826.46,-0.54
834.73,-0.53
843.08,-0.52
851.51,-0.51
860.02,-0.50
868.62,-0.48
877.31,-0.47
886.08,-0.45
894.94,-0.42
903.89,-0.40
912.93,-0.37
922.06,-0.34
931.28,-0.31
940.59,-0.28
950.00,-0.24
959.50,-0.20
969.09,-0.15
978.78,-0.11
988.57,-0.06
998.46,-0.01
1008.44,0.05
1018.53,0.10
1028.71,0.16
1039.00,0.23
1049.39,0.29
1059.88,0.36
1070.48,0.43
1081.19,0.50
1092.00,0.57
1102.92,0.65
1113.95,0.72
1125.09,0.80
1136.34,0.88
1147.70,0.95
1159.18,1.03
1170.77,1.11
1182.48,1.18
1194.30,1.26
1206.25,1.33
1218.31,1.41
1230.49,1.48
1242.80,1.55
1255.22,1.61
1267.78,1.68
1280.45,1.75
1293.26,1.81
1306.19,1.87
1319.25,1.93
1332.45,1.99
1345.77,2.05
1359.23,2.10
1372.82,2.15
1386.55,2.21
1400.41,2.26
1414.42,2.31
1428.56,2.36
1442.85,2.40
1457.28,2.45
1471.85,2.50
1486.57,2.55
1501.43,2.59
1516.45,2.64
1531.61,2.69
1546.93,2.73
1562.40,2.78
1578.02,2.83
1593.80,2.88
1609.74,2.93
1625.84,2.98
1642.10,3.04
1658.52,3.09
1675.10,3.15
1691.85,3.20
1708.77,3.26
1725.86,3.32
1743.12,3.38
1760.55,3.45
1778.15,3.51
1795.94,3.58
1813.90,3.65
1832.03,3.72
1850.36,3.79
1868.86,3.87
1887.55,3.95
1906.42,4.03
1925.49,4.12
1944.74,4.21
1964.19,4.30
1983.83,4.39
2003.67,4.48
2023.71,4.58
2043.94,4.68
2064.38,4.78
2085.03,4.89
2105.88,5.00
2126.94,5.11
2148.20,5.22
2169.69,5.34
2191.38,5.45
2213.30,5.57
2235.43,5.69
2257.78,5.82
2280.36,5.94
2303.17,6.07
2326.20,6.20
2349.46,6.33
2372.95,6.46
2396.68,6.58
2420.65,6.71
2444.86,6.84
2469.31,6.97
2494.00,7.10
2518.94,7.22
2544.13,7.34
2569.57,7.46
2595.27,7.57
2621.22,7.69
2647.43,7.79
2673.90,7.89
2700.64,7.98
2727.65,8.07
2754.93,8.14
2782.48,8.21
2810.30,8.28
2838.40,8.33
2866.79,8.38
2895.46,8.41
2924.41,8.44
2953.65,8.46
2983.19,8.47
3013.02,8.47
3043.15,8.47
3073.58,8.46
3104.32,8.44
3135.36,8.41
3166.72,8.38
3198.38,8.34
3230.37,8.30
3262.67,8.25
3295.30,8.20
3328.25,8.15
3361.53,8.09
3395.15,8.03
3429.10,7.97
3463.39,7.91
3498.03,7.86
3533.01,7.80
3568.34,7.75
3604.02,7.71
3640.06,7.66
3676.46,7.62
3713.22,7.58
3750.36,7.55
3787.86,7.52
3825.74,7.50
3864.00,7.49
3902.64,7.48
3941.66,7.48
3981.08,7.48
4020.89,7.49
4061.10,7.49
4101.71,7.51
4142.73,7.53
4184.15,7.55
4226.00,7.57
4268.26,7.60
4310.94,7.64
4354.05,7.68
4397.59,7.72
4441.56,7.77
4485.98,7.82
4530.84,7.87
4576.15,7.92
4621.91,7.96
4668.13,7.99
4714.81,8.01
4761.96,8.02
4809.58,8.01
4857.67,7.98
4906.25,7.92
4955.31,7.86
5004.87,7.77
5054.91,7.67
5105.46,7.55
5156.52,7.42
5208.08,7.28
5260.16,7.12
5312.77,6.96
5365.89,6.79
5419.55,6.60
5473.75,6.41
5528.49,6.22
5583.77,6.02
5639.61,5.82
5696.00,5.62
5752.96,5.42
5810.49,5.23
5868.60,5.04
5927.28,4.86
5986.56,4.69
6046.42,4.52
6106.89,4.37
6167.96,4.22
6229.64,4.09
6291.93,3.98
6354.85,3.89
6418.40,3.81
6482.58,3.76
6547.41,3.73
6612.88,3.73
6679.01,3.76
6745.80,3.81
6813.26,3.88
6881.39,3.99
6950.21,4.14
7019.71,4.30
7089.91,4.49
7160.81,4.74
7232.41,5.01
7304.74,5.32
7377.79,5.66
7451.56,6.03
7526.08,6.41
7601.34,6.81
7677.35,7.19
7754.13,7.56
7831.67,7.85
7909.98,8.08
7989.08,8.23
8068.98,8.22
8149.67,8.13
8231.16,7.94
8313.47,7.64
8396.61,7.30
8480.57,6.90
8565.38,6.45
8651.03,5.95
8737.54,5.40
8824.92,4.81
8913.17,4.20
9002.30,3.59
9092.32,2.99
9183.25,2.44
9275.08,1.92
9367.83,1.46
9461.51,1.08
9556.12,0.76
9651.68,0.50
9748.20,0.31
9845.68,0.18
9944.14,0.09
10043.58,0.04
10144.02,0.02
10245.46,0.03
10347.91,0.05
10451.39,0.09
10555.91,0.11
10661.46,0.12
10768.08,0.10
10875.76,0.03
10984.52,-0.12
11094.36,-0.32
11205.31,-0.61
11317.36,-1.00
11430.53,-1.44
11544.84,-1.95
11660.29,-2.50
11776.89,-3.07
11894.66,-3.63
12013.60,-4.19
12133.74,-4.71
12255.08,-5.17
12377.63,-5.58
12501.41,-5.96
12626.42,-6.24
12752.68,-6.48
12880.21,-6.65
13009.01,-6.78
13139.10,-6.91
13270.49,-6.95
13403.20,-6.96
13537.23,-6.91
13672.60,-6.84
13809.33,-6.75
13947.42,-6.63
14086.90,-6.55
14227.77,-6.50
14370.04,-6.51
14513.74,-6.60
14658.88,-6.84
14805.47,-7.14
14953.52,-7.53
15103.06,-7.97
15254.09,-8.44
15406.63,-8.91
15560.70,-9.35
15716.30,-9.75
15873.47,-10.04
16032.20,-10.26
16192.52,-10.34
16354.45,-10.29
16517.99,-10.15
16683.17,-9.78
16850.01,-9.26
17018.51,-8.63
17188.69,-7.86
17360.58,-7.29
17534.18,-7.08
17709.53,-7.85
17886.62,-9.67
18065.49,-12.00
18246.14,-14.66
18428.60,-16.89
18612.89,-18.42
18799.02,-19.33
18987.01,-19.74
19176.88,-19.88
19368.65,-20.12
19562.33,-20.72
19757.96,-21.95
19955.54,-23.17
