frequency,raw
20.00,8.17
20.20,8.20
20.40,8.22
20.61,8.25
20.81,8.27
21.02,8.29
21.23,8.32
21.44,8.34
21.66,8.37
21.87,8.39
22.09,8.42
22.31,8.44
22.54,8.46
22.76,8.48
22.99,8.50
23.22,8.52
23.45,8.54
23.69,8.56
23.92,8.59
24.16,8.61
24.40,8.63
24.65,8.65
24.89,8.67
25.14,8.69
25.39,8.71
25.65,8.72
25.91,8.74
26.16,8.76
26.43,8.78
26.69,8.80
26.96,8.81
27.23,8.83
27.50,8.84
27.77,8.85
28.05,8.86
28.33,8.87
28.62,8.88
28.90,8.89
29.19,8.91
29.48,8.92
29.78,8.94
30.08,8.95
30.38,8.96
30.68,8.97
30.99,8.98
31.30,8.99
31.61,9.00
31.93,9.01
32.24,9.02
32.57,9.03
32.89,9.04
33.22,9.05
33.55,9.05
33.89,9.06
34.23,9.07
34.57,9.08
34.92,9.08
35.27,9.09
35.62,9.09
35.97,9.10
36.33,9.10
36.70,9.10
37.06,9.10
37.43,9.11
37.81,9.11
38.19,9.11
38.57,9.11
38.95,9.11
39.34,9.12
39.74,9.12
40.14,9.12
40.54,9.12
40.94,9.12
41.35,9.12
41.76,9.12
42.18,9.12
42.60,9.12
43.03,9.12
43.46,9.11
43.90,9.11
44.33,9.10
44.78,9.10
45.23,9.09
45.68,9.10
46.13,9.10
46.60,9.11
47.06,9.11
47.53,9.10
48.01,9.10
48.49,9.09
48.97,9.09
49.46,9.08
49.96,9.08
50.46,9.08
50.96,9.07
51.47,9.06
51.99,9.06
52.51,9.05
53.03,9.04
53.56,9.03
54.10,9.02
54.64,9.01
55.18,9.01
55.74,9.00
56.29,8.99
56.86,8.98
57.42,8.97
58.00,8.95
58.58,8.94
59.16,8.92
59.76,8.92
60.35,8.90
60.96,8.89
61.57,8.87
62.18,8.86
62.80,8.84
63.43,8.83
64.07,8.82
64.71,8.80
65.35,8.79
66.01,8.77
66.67,8.76
67.33,8.74
68.01,8.73
68.69,8.71
69.37,8.70
70.07,8.68
70.77,8.66
71.48,8.64
72.19,8.63
72.91,8.61
73.64,8.59
74.38,8.57
75.12,8.55
75.87,8.52
76.63,8.50
77.40,8.48
78.17,8.46
78.95,8.43
79.74,8.41
80.54,8.39
81.35,8.37
82.16,8.34
82.98,8.31
83.81,8.29
84.65,8.26
85.50,8.24
86.35,8.21
87.22,8.18
88.09,8.15
88.97,8.13
89.86,8.10
90.76,8.07
91.66,8.03
92.58,8.00
93.51,7.97
94.44,7.94
95.39,7.91
96.34,7.88
97.30,7.84
98.28,7.81
99.26,7.77
100.25,7.74
101.25,7.70
102.27,7.66
103.29,7.62
104.32,7.58
105.37,7.54
106.42,7.50
107.48,7.46
108.56,7.42
109.64,7.37
110.74,7.32
111.85,7.28
112.97,7.23
114.10,7.18
115.24,7.13
116.39,7.08
117.55,7.02
118.73,6.98
119.92,6.94
121.12,6.90
122.33,6.85
123.55,6.81
124.79,6.78
126.03,6.73
127.29,6.67
128.57,6.62
129.85,6.56
131.15,6.51
132.46,6.46
133.79,6.41
135.12,6.39
136.48,6.38
137.84,6.39
139.22,6.40
140.61,6.42
142.02,6.42
143.44,6.42
144.87,6.41
146.32,6.38
147.78,6.34
149.26,6.30
150.75,6.25
152.26,6.19
153.78,6.13
155.32,6.07
156.88,6.01
158.44,5.94
160.03,5.87
161.63,5.80
163.24,5.72
164.88,5.64
166.53,5.57
168.19,5.49
169.87,5.42
171.57,5.36
173.29,5.31
175.02,5.28
176.77,5.29
178.54,5.31
180.32,5.34
182.13,5.38
183.95,5.41
185.79,5.41
187.65,5.41
189.52,5.38
191.42,5.35
193.33,5.31
195.27,5.26
197.22,5.21
199.19,5.15
201.18,5.10
203.19,5.04
205.23,4.99
207.28,4.93
209.35,4.88
211.44,4.82
213.56,4.76
215.69,4.70
217.85,4.64
220.03,4.58
222.23,4.52
224.45,4.46
226.70,4.40
228.96,4.34
231.25,4.28
233.57,4.22
235.90,4.16
238.26,4.10
240.64,4.04
243.05,3.97
245.48,3.93
247.93,3.88
250.41,3.84
252.92,3.80
255.45,3.76
258.00,3.72
260.58,3.69
263.19,3.65
265.82,3.61
268.48,3.57
271.16,3.52
273.87,3.47
276.61,3.42
279.38,3.36
282.17,3.30
284.99,3.25
287.84,3.19
290.72,3.13
293.63,3.07
296.57,3.02
299.53,2.96
302.53,2.90
305.55,2.84
308.61,2.78
311.69,2.72
314.81,2.66
317.96,2.61
321.14,2.55
324.35,2.49
327.59,2.43
330.87,2.38
334.18,2.32
337.52,2.27
340.90,2.21
344.30,2.15
347.75,2.10
351.23,2.04
354.74,1.98
358.28,1.92
361.87,1.86
365.49,1.81
369.14,1.75
372.83,1.69
376.56,1.64
380.33,1.58
384.13,1.53
387.97,1.47
391.85,1.42
395.77,1.36
399.73,1.31
403.72,1.26
407.76,1.21
411.84,1.15
415.96,1.10
420.12,1.04
424.32,0.99
428.56,0.93
432.85,0.88
437.18,0.82
441.55,0.77
445.96,0.71
450.42,0.66
454.93,0.61
459.48,0.55
464.07,0.50
468.71,0.44
473.40,0.39
478.13,0.33
482.91,0.28
487.74,0.23
492.62,0.17
497.55,0.12
502.52,0.06
507.55,0.01
512.62,-0.04
517.75,-0.09
522.93,-0.14
528.16,-0.20
533.44,-0.25
538.77,-0.30
544.16,-0.36
549.60,-0.41
555.10,-0.46
560.65,-0.51
566.25,-0.56
571.92,-0.61
577.64,-0.66
583.41,-0.70
589.25,-0.75
595.14,-0.80
601.09,-0.84
607.10,-0.89
613.17,-0.93
619.30,-0.97
625.50,-1.01
631.75,-1.05
638.07,-1.08
644.45,-1.11
650.89,-1.14
657.40,-1.17
663.98,-1.19
670.62,-1.21
677.32,-1.22
684.10,-1.23
690.94,-1.24
697.85,-1.24
704.83,-1.23
711.87,-1.23
718.99,-1.21
726.18,-1.19
733.44,-1.17
740.78,-1.15
748.19,-1.12
755.67,-1.10
763.23,-1.07
770.86,-1.04
778.57,-1.01
786.35,-0.98
794.22,-0.95
802.16,-0.93
810.18,-0.90
818.28,-0.87
826.46,-0.84
834.73,-0.81
843.08,-0.78
851.51,-0.76
860.02,-0.72
868.62,-0.69
877.31,-0.66
886.08,-0.62
894.94,-0.58
903.89,-0.55
912.93,-0.50
922.06,-0.46
931.28,-0.41
940.59,-0.36
950.00,-0.31
959.50,-0.25
969.09,-0.20
978.78,-0.14
988.57,-0.07
998.46,-0.01
1008.44,0.06
1018.53,0.13
1028.71,0.20
1039.00,0.27
1049.39,0.34
1059.88,0.42
1070.48,0.50
1081.19,0.58
1092.00,0.66
1102.92,0.74
1113.95,0.83
1125.09,0.91
1136.34,0.99
1147.70,1.08
1159.18,1.16
1170.77,1.25
1182.48,1.33
1194.30,1.42
1206.25,1.50
1218.31,1.58
1230.49,1.67
1242.80,1.75
1255.22,1.83
1267.78,1.91
1280.45,1.99
1293.26,2.07
1306.19,2.15
1319.25,2.23
1332.45,2.31
1345.77,2.38
1359.23,2.46
1372.82,2.54
1386.55,2.62
1400.41,2.69
1414.42,2.77
1428.56,2.85
1442.85,2.93
1457.28,3.01
1471.85,3.08
1486.57,3.16
1501.43,3.25
1516.45,3.33
1531.61,3.41
1546.93,3.50
1562.40,3.59
1578.02,3.68
1593.80,3.77
1609.74,3.86
1625.84,3.96
1642.10,4.06
1658.52,4.16
1675.10,4.26
1691.85,4.37
1708.77,4.47
1725.86,4.58
1743.12,4.70
1760.55,4.82
1778.15,4.94
1795.94,5.06
1813.90,5.19
1832.03,5.32
1850.36,5.45
1868.86,5.58
1887.55,5.72
1906.42,5.86
1925.49,6.01
1944.74,6.16
1964.19,6.31
1983.83,6.46
2003.67,6.62
2023.71,6.78
2043.94,6.94
2064.38,7.10
2085.03,7.26
2105.88,7.43
2126.94,7.60
2148.20,7.76
2169.69,7.93
2191.38,8.10
2213.30,8.26
2235.43,8.43
2257.78,8.59
2280.36,8.74
2303.17,8.90
2326.20,9.05
2349.46,9.19
2372.95,9.33
2396.68,9.46
2420.65,9.58
2444.86,9.70
2469.31,9.80
2494.00,9.89
2518.94,9.97
2544.13,10.05
2569.57,10.11
2595.27,10.16
2621.22,10.20
2647.43,10.22
2673.90,10.24
2700.64,10.24
2727.65,10.24
2754.93,10.23
2782.48,10.21
2810.30,10.18
2838.40,10.15
2866.79,10.11
2895.46,10.06
2924.41,10.02
2953.65,9.97
2983.19,9.91
3013.02,9.86
3043.15,9.81
3073.58,9.76
3104.32,9.72
3135.36,9.69
3166.72,9.66
3198.38,9.65
3230.37,9.66
3262.67,9.67
3295.30,9.69
3328.25,9.72
3361.53,9.76
3395.15,9.80
3429.10,9.84
3463.39,9.89
3498.03,9.95
3533.01,10.00
3568.34,10.06
3604.02,10.13
3640.06,10.20
3676.46,10.27
3713.22,10.36
3750.36,10.44
3787.86,10.55
3825.74,10.66
3864.00,10.79
3902.64,10.94
3941.66,11.10
3981.08,11.27
4020.89,11.44
4061.10,11.63
4101.71,11.82
4142.73,12.02
4184.15,12.22
4226.00,12.42
4268.26,12.62
4310.94,12.82
4354.05,13.01
4397.59,13.19
4441.56,13.37
4485.98,13.51
4530.84,13.63
4576.15,13.71
4621.91,13.77
4668.13,13.75
4714.81,13.69
4761.96,13.57
4809.58,13.40
4857.67,13.17
4906.25,12.88
4955.31,12.55
5004.87,12.18
5054.91,11.78
5105.46,11.35
5156.52,10.92
5208.08,10.47
5260.16,10.02
5312.77,9.56
5365.89,9.12
5419.55,8.68
5473.75,8.25
5528.49,7.84
5583.77,7.43
5639.61,7.05
5696.00,6.66
5752.96,6.30
5810.49,5.95
5868.60,5.61
5927.28,5.34
5986.56,5.12
6046.42,5.06
6106.89,5.04
6167.96,5.00
6229.64,4.89
6291.93,4.76
6354.85,4.66
6418.40,4.56
6482.58,4.50
6547.41,4.47
6612.88,4.47
6679.01,4.50
6745.80,4.57
6813.26,4.67
6881.39,4.81
6950.21,4.99
7019.71,5.21
7089.91,5.48
7160.81,5.81
7232.41,6.19
7304.74,6.62
7377.79,7.14
7451.56,7.72
7526.08,8.36
7601.34,9.07
7677.35,9.82
7754.13,10.58
7831.67,11.21
7909.98,11.66
7989.08,11.81
8068.98,11.38
8149.67,10.70
8231.16,9.72
8313.47,8.65
8396.61,7.55
8480.57,6.49
8565.38,5.48
8651.03,4.53
8737.54,3.63
8824.92,2.80
8913.17,2.04
9002.30,1.30
9092.32,0.66
9183.25,0.07
9275.08,-0.48
9367.83,-0.97
9461.51,-1.41
9556.12,-1.80
9651.68,-2.14
9748.20,-2.44
9845.68,-2.69
9944.14,-2.90
10043.58,-3.06
10144.02,-3.18
10245.46,-3.23
10347.91,-3.24
10451.39,-3.22
10555.91,-3.12
10661.46,-2.97
10768.08,-2.79
10875.76,-2.53
10984.52,-2.20
11094.36,-1.83
11205.31,-1.38
11317.36,-0.85
11430.53,-0.28
11544.84,0.37
11660.29,1.07
11776.89,1.79
11894.66,2.44
12013.60,3.08
12133.74,3.51
12255.08,3.61
12377.63,3.46
12501.41,3.04
12626.42,2.34
12752.68,1.56
12880.21,0.81
13009.01,0.09
13139.10,-0.64
13270.49,-1.20
13403.20,-1.70
13537.23,-2.06
13672.60,-2.34
13809.33,-2.54
13947.42,-2.60
14086.90,-2.55
14227.77,-2.44
14370.04,-2.22
14513.74,-1.89
14658.88,-1.37
14805.47,-0.68
14953.52,0.30
15103.06,1.32
15254.09,2.35
15406.63,2.96
15560.70,3.19
15716.30,2.84
15873.47,1.94
16032.20,0.88
16192.52,-0.26
16354.45,-1.29
16517.99,-2.24
16683.17,-3.07
16850.01,-3.88
17018.51,-4.71
17188.69,-5.64
17360.58,-6.67
17534.18,-7.80
17709.53,-9.06
17886.62,-10.41
18065.49,-11.81
18246.14,-13.26
18428.60,-14.67
18612.89,-15.95
18799.02,-16.88
18987.01,-17.06
19176.88,-16.84
19368.65,-16.97
19562.33,-17.39
19757.96,-17.91
19955.54,-18.43
