frequency,raw
20.00,7.76
20.20,7.75
20.40,7.74
20.61,7.72
20.81,7.71
21.02,7.70
21.23,7.69
21.44,7.67
21.66,7.66
21.87,7.64
22.09,7.62
22.31,7.60
22.54,7.58
22.76,7.57
22.99,7.55
23.22,7.53
23.45,7.52
23.69,7.50
23.92,7.48
24.16,7.46
24.40,7.45
24.65,7.43
24.89,7.40
25.14,7.38
25.39,7.36
25.65,7.34
25.91,7.31
26.16,7.29
26.43,7.27
26.69,7.24
26.96,7.22
27.23,7.20
27.50,7.18
27.77,7.16
28.05,7.14
28.33,7.11
28.62,7.09
28.90,7.07
29.19,7.05
29.48,7.03
29.78,7.00
30.08,6.98
30.38,6.96
30.68,6.94
30.99,6.92
31.30,6.90
31.61,6.88
31.93,6.86
32.24,6.84
32.57,6.82
32.89,6.79
33.22,6.77
33.55,6.75
33.89,6.72
34.23,6.70
34.57,6.67
34.92,6.65
35.27,6.62
35.62,6.59
35.97,6.57
36.33,6.54
36.70,6.51
37.06,6.48
37.43,6.45
37.81,6.42
38.19,6.39
38.57,6.37
38.95,6.35
39.34,6.33
39.74,6.31
40.14,6.29
40.54,6.26
40.94,6.23
41.35,6.20
41.76,6.16
42.18,6.11
42.60,6.07
43.03,6.03
43.46,6.00
43.90,5.97
44.33,5.95
44.78,5.92
45.23,5.90
45.68,5.87
46.13,5.84
46.60,5.81
47.06,5.78
47.53,5.74
48.01,5.71
48.49,5.68
48.97,5.64
49.46,5.61
49.96,5.57
50.46,5.53
50.96,5.50
51.47,5.46
51.99,5.43
52.51,5.40
53.03,5.37
53.56,5.34
54.10,5.31
54.64,5.27
55.18,5.24
55.74,5.21
56.29,5.17
56.86,5.13
57.42,5.09
58.00,5.05
58.58,5.01
59.16,4.97
59.76,4.94
60.35,4.90
60.96,4.86
61.57,4.82
62.18,4.79
62.80,4.76
63.43,4.73
64.07,4.70
64.71,4.66
65.35,4.63
66.01,4.59
66.67,4.55
67.33,4.51
68.01,4.46
68.69,4.42
69.37,4.38
70.07,4.34
70.77,4.30
71.48,4.27
72.19,4.24
72.91,4.20
73.64,4.17
74.38,4.14
75.12,4.10
75.87,4.07
76.63,4.04
77.40,4.00
78.17,3.96
78.95,3.92
79.74,3.89
80.54,3.85
81.35,3.81
82.16,3.77
82.98,3.73
83.81,3.69
84.65,3.66
85.50,3.62
86.35,3.58
87.22,3.54
88.09,3.51
88.97,3.47
89.86,3.43
90.76,3.40
91.66,3.36
92.58,3.32
93.51,3.28
94.44,3.24
95.39,3.19
96.34,3.15
97.30,3.11
98.28,3.07
99.26,3.03
100.25,2.99
101.25,2.95
102.27,2.91
103.29,2.87
104.32,2.83
105.37,2.79
106.42,2.75
107.48,2.70
108.56,2.66
109.64,2.62
110.74,2.58
111.85,2.54
112.97,2.49
114.10,2.44
115.24,2.39
116.39,2.33
117.55,2.27
118.73,2.20
119.92,2.14
121.12,2.08
122.33,2.02
123.55,1.96
124.79,1.91
126.03,1.86
127.29,1.82
128.57,1.78
129.85,1.77
131.15,1.75
132.46,1.78
133.79,1.83
135.12,1.91
136.48,2.01
137.84,2.11
139.22,2.20
140.61,2.27
142.02,2.32
143.44,2.36
144.87,2.37
146.32,2.36
147.78,2.34
149.26,2.30
150.75,2.27
152.26,2.23
153.78,2.19
155.32,2.15
156.88,2.12
158.44,2.08
160.03,2.05
161.63,2.02
163.24,1.99
164.88,1.95
166.53,1.92
168.19,1.89
169.87,1.86
171.57,1.83
173.29,1.80
175.02,1.77
176.77,1.74
178.54,1.71
180.32,1.69
182.13,1.66
183.95,1.63
185.79,1.60
187.65,1.57
189.52,1.54
191.42,1.51
193.33,1.48
195.27,1.45
197.22,1.42
199.19,1.39
201.18,1.36
203.19,1.33
205.23,1.30
207.28,1.27
209.35,1.24
211.44,1.21
213.56,1.18
215.69,1.15
217.85,1.13
220.03,1.10
222.23,1.08
224.45,1.05
226.70,1.03
228.96,1.01
231.25,0.99
233.57,0.97
235.90,0.96
238.26,0.95
240.64,0.93
243.05,0.93
245.48,0.92
247.93,0.92
250.41,0.92
252.92,0.92
255.45,0.92
258.00,0.92
260.58,0.91
263.19,0.90
265.82,0.89
268.48,0.88
271.16,0.86
273.87,0.83
276.61,0.81
279.38,0.79
282.17,0.76
284.99,0.74
287.84,0.71
290.72,0.69
293.63,0.66
296.57,0.64
299.53,0.61
302.53,0.59
305.55,0.56
308.61,0.54
311.69,0.52
314.81,0.49
317.96,0.47
321.14,0.44
324.35,0.42
327.59,0.40
330.87,0.37
334.18,0.35
337.52,0.32
340.90,0.30
344.30,0.28
347.75,0.25
351.23,0.23
354.74,0.20
358.28,0.18
361.87,0.16
365.49,0.13
369.14,0.11
372.83,0.09
376.56,0.06
380.33,0.04
384.13,0.02
387.97,-0.00
391.85,-0.02
395.77,-0.04
399.73,-0.06
403.72,-0.08
407.76,-0.10
411.84,-0.12
415.96,-0.14
420.12,-0.16
424.32,-0.18
428.56,-0.20
432.85,-0.21
437.18,-0.23
441.55,-0.25
445.96,-0.26
450.42,-0.28
454.93,-0.29
459.48,-0.31
464.07,-0.32
468.71,-0.34
473.40,-0.36
478.13,-0.37
482.91,-0.39
487.74,-0.41
492.62,-0.43
497.55,-0.45
502.52,-0.47
507.55,-0.49
512.62,-0.51
517.75,-0.53
522.93,-0.55
528.16,-0.57
533.44,-0.59
538.77,-0.61
544.16,-0.63
549.60,-0.65
555.10,-0.67
560.65,-0.69
566.25,-0.70
571.92,-0.72
577.64,-0.74
583.41,-0.75
589.25,-0.77
595.14,-0.78
601.09,-0.80
607.10,-0.81
613.17,-0.82
619.30,-0.83
625.50,-0.84
631.75,-0.84
638.07,-0.85
644.45,-0.86
650.89,-0.86
657.40,-0.87
663.98,-0.87
670.62,-0.88
677.32,-0.88
684.10,-0.88
690.94,-0.89
697.85,-0.90
704.83,-0.90
711.87,-0.90
718.99,-0.91
726.18,-0.91
733.44,-0.91
740.78,-0.92
748.19,-0.92
755.67,-0.91
763.23,-0.91
770.86,-0.91
778.57,-0.90
786.35,-0.89
794.22,-0.88
802.16,-0.87
810.18,-0.86
818.28,-0.85
826.46,-0.84
834.73,-0.82
843.08,-0.80
851.51,-0.78
860.02,-0.76
868.62,-0.73
877.31,-0.70
886.08,-0.67
894.94,-0.63
903.89,-0.59
912.93,-0.55
922.06,-0.51
931.28,-0.46
940.59,-0.41
950.00,-0.35
959.50,-0.29
969.09,-0.23
978.78,-0.16
988.57,-0.09
998.46,-0.01
1008.44,0.07
1018.53,0.15
1028.71,0.23
1039.00,0.32
1049.39,0.41
1059.88,0.50
1070.48,0.59
1081.19,0.68
1092.00,0.77
1102.92,0.86
1113.95,0.95
1125.09,1.04
1136.34,1.14
1147.70,1.23
1159.18,1.32
1170.77,1.42
1182.48,1.51
1194.30,1.60
1206.25,1.69
1218.31,1.78
1230.49,1.87
1242.80,1.96
1255.22,2.05
1267.78,2.14
1280.45,2.22
1293.26,2.32
1306.19,2.41
1319.25,2.50
1332.45,2.59
1345.77,2.70
1359.23,2.80
1372.82,2.92
1386.55,3.04
1400.41,3.16
1414.42,3.29
1428.56,3.42
1442.85,3.55
1457.28,3.69
1471.85,3.82
1486.57,3.95
1501.43,4.08
1516.45,4.21
1531.61,4.34
1546.93,4.47
1562.40,4.59
1578.02,4.72
1593.80,4.84
1609.74,4.97
1625.84,5.10
1642.10,5.23
1658.52,5.37
1675.10,5.51
1691.85,5.65
1708.77,5.79
1725.86,5.93
1743.12,6.08
1760.55,6.23
1778.15,6.38
1795.94,6.53
1813.90,6.68
1832.03,6.83
1850.36,6.99
1868.86,7.14
1887.55,7.29
1906.42,7.44
1925.49,7.58
1944.74,7.70
1964.19,7.82
1983.83,7.91
2003.67,7.98
2023.71,8.01
2043.94,8.01
2064.38,7.99
2085.03,7.92
2105.88,7.81
2126.94,7.68
2148.20,7.51
2169.69,7.32
2191.38,7.10
2213.30,6.87
2235.43,6.62
2257.78,6.37
2280.36,6.12
2303.17,5.87
2326.20,5.62
2349.46,5.39
2372.95,5.16
2396.68,4.94
2420.65,4.73
2444.86,4.54
2469.31,4.34
2494.00,4.17
2518.94,4.00
2544.13,3.84
2569.57,3.70
2595.27,3.57
2621.22,3.45
2647.43,3.34
2673.90,3.24
2700.64,3.15
2727.65,3.07
2754.93,3.00
2782.48,2.94
2810.30,2.89
2838.40,2.86
2866.79,2.84
2895.46,2.83
2924.41,2.85
2953.65,2.87
2983.19,2.92
3013.02,2.98
3043.15,3.05
3073.58,3.14
3104.32,3.23
3135.36,3.33
3166.72,3.45
3198.38,3.56
3230.37,3.69
3262.67,3.83
3295.30,3.98
3328.25,4.14
3361.53,4.31
3395.15,4.50
3429.10,4.71
3463.39,4.93
3498.03,5.17
3533.01,5.43
3568.34,5.70
3604.02,5.97
3640.06,6.25
3676.46,6.51
3713.22,6.77
3750.36,7.00
3787.86,7.18
3825.74,7.35
3864.00,7.45
3902.64,7.47
3941.66,7.48
3981.08,7.40
4020.89,7.25
4061.10,7.06
4101.71,6.79
4142.73,6.48
4184.15,6.16
4226.00,5.81
4268.26,5.47
4310.94,5.14
4354.05,4.84
4397.59,4.56
4441.56,4.29
4485.98,4.02
4530.84,3.75
4576.15,3.46
4621.91,3.16
4668.13,2.83
4714.81,2.50
4761.96,2.16
4809.58,1.84
4857.67,1.53
4906.25,1.24
4955.31,0.98
5004.87,0.75
5054.91,0.55
5105.46,0.36
5156.52,0.20
5208.08,0.05
5260.16,-0.08
5312.77,-0.20
5365.89,-0.31
5419.55,-0.40
5473.75,-0.49
5528.49,-0.56
5583.77,-0.61
5639.61,-0.63
5696.00,-0.64
5752.96,-0.61
5810.49,-0.57
5868.60,-0.48
5927.28,-0.37
5986.56,-0.22
6046.42,-0.04
6106.89,0.18
6167.96,0.43
6229.64,0.71
6291.93,1.03
6354.85,1.38
6418.40,1.76
6482.58,2.17
6547.41,2.61
6612.88,3.07
6679.01,3.55
6745.80,4.03
6813.26,4.52
6881.39,4.99
6950.21,5.42
7019.71,5.83
7089.91,6.20
7160.81,6.50
7232.41,6.74
7304.74,6.94
7377.79,7.05
7451.56,7.11
7526.08,7.12
7601.34,7.09
7677.35,7.01
7754.13,6.93
7831.67,6.83
7909.98,6.75
7989.08,6.67
8068.98,6.61
8149.67,6.56
8231.16,6.52
8313.47,6.44
8396.61,6.35
8480.57,6.19
8565.38,5.97
8651.03,5.71
8737.54,5.41
8824.92,5.10
8913.17,4.81
9002.30,4.53
9092.32,4.32
9183.25,4.13
9275.08,3.97
9367.83,3.80
9461.51,3.58
9556.12,3.29
9651.68,2.90
9748.20,2.41
9845.68,1.75
9944.14,1.00
10043.58,0.13
10144.02,-0.81
10245.46,-1.83
10347.91,-2.88
10451.39,-3.94
10555.91,-4.97
10661.46,-5.96
10768.08,-6.89
10875.76,-7.73
10984.52,-8.47
11094.36,-9.13
11205.31,-9.68
11317.36,-10.08
11430.53,-10.41
11544.84,-10.55
11660.29,-10.56
11776.89,-10.47
11894.66,-10.05
12013.60,-9.58
12133.74,-8.96
12255.08,-8.20
12377.63,-7.39
12501.41,-6.59
12626.42,-5.88
12752.68,-5.31
12880.21,-5.03
13009.01,-4.90
13139.10,-4.77
13270.49,-5.09
13403.20,-5.55
13537.23,-6.28
13672.60,-7.07
13809.33,-7.92
13947.42,-8.69
14086.90,-9.22
14227.77,-9.60
14370.04,-9.77
14513.74,-9.68
14658.88,-9.42
14805.47,-9.16
14953.52,-8.93
15103.06,-8.83
15254.09,-8.79
15406.63,-8.96
15560.70,-9.21
15716.30,-9.57
15873.47,-10.10
16032.20,-10.72
16192.52,-11.57
16354.45,-12.65
16517.99,-13.90
16683.17,-15.46
16850.01,-17.22
17018.51,-19.12
17188.69,-21.22
17360.58,-23.37
17534.18,-25.52
17709.53,-27.60
17886.62,-29.45
18065.49,-31.04
18246.14,-32.32
18428.60,-33.10
18612.89,-33.67
18799.02,-34.07
18987.01,-34.36
19176.88,-34.66
19368.65,-34.99
19562.33,-35.36
19757.96,-35.75
19955.54,-36.14
