frequency,raw
20.00,8.59
20.20,8.62
20.40,8.65
20.61,8.67
20.81,8.70
21.02,8.72
21.23,8.74
21.44,8.76
21.66,8.78
21.87,8.81
22.09,8.83
22.31,8.85
22.54,8.86
22.76,8.88
22.99,8.90
23.22,8.92
23.45,8.94
23.69,8.96
23.92,8.98
24.16,9.00
24.40,9.02
24.65,9.03
24.89,9.04
25.14,9.05
25.39,9.06
25.65,9.08
25.91,9.09
26.16,9.11
26.43,9.13
26.69,9.14
26.96,9.16
27.23,9.16
27.50,9.17
27.77,9.17
28.05,9.17
28.33,9.17
28.62,9.18
28.90,9.19
29.19,9.20
29.48,9.22
29.78,9.23
30.08,9.23
30.38,9.23
30.68,9.23
30.99,9.22
31.30,9.22
31.61,9.21
31.93,9.20
32.24,9.19
32.57,9.18
32.89,9.17
33.22,9.16
33.55,9.16
33.89,9.16
34.23,9.16
34.57,9.15
34.92,9.15
35.27,9.13
35.62,9.12
35.97,9.10
36.33,9.09
36.70,9.08
37.06,9.07
37.43,9.06
37.81,9.04
38.19,9.03
38.57,9.01
38.95,8.99
39.34,8.98
39.74,8.96
40.14,8.94
40.54,8.92
40.94,8.90
41.35,8.88
41.76,8.86
42.18,8.84
42.60,8.82
43.03,8.80
43.46,8.77
43.90,8.75
44.33,8.72
44.78,8.70
45.23,8.68
45.68,8.65
46.13,8.63
46.60,8.60
47.06,8.58
47.53,8.56
48.01,8.53
48.49,8.49
48.97,8.46
49.46,8.43
49.96,8.41
50.46,8.38
50.96,8.35
51.47,8.31
51.99,8.27
52.51,8.24
53.03,8.22
53.56,8.19
54.10,8.15
54.64,8.12
55.18,8.08
55.74,8.05
56.29,8.02
56.86,7.99
57.42,7.96
58.00,7.94
58.58,7.90
59.16,7.85
59.76,7.80
60.35,7.76
60.96,7.74
61.57,7.71
62.18,7.68
62.80,7.64
63.43,7.60
64.07,7.57
64.71,7.52
65.35,7.48
66.01,7.44
66.67,7.40
67.33,7.36
68.01,7.33
68.69,7.28
69.37,7.24
70.07,7.20
70.77,7.17
71.48,7.13
72.19,7.09
72.91,7.06
73.64,7.01
74.38,6.96
75.12,6.92
75.87,6.89
76.63,6.85
77.40,6.81
78.17,6.77
78.95,6.72
79.74,6.68
80.54,6.64
81.35,6.60
82.16,6.56
82.98,6.52
83.81,6.47
84.65,6.43
85.50,6.39
86.35,6.34
87.22,6.30
88.09,6.25
88.97,6.21
89.86,6.17
90.76,6.12
91.66,6.08
92.58,6.05
93.51,5.99
94.44,5.95
95.39,5.91
96.34,5.86
97.30,5.83
98.28,5.78
99.26,5.73
100.25,5.70
101.25,5.66
102.27,5.61
103.29,5.57
104.32,5.53
105.37,5.49
106.42,5.44
107.48,5.40
108.56,5.36
109.64,5.31
110.74,5.27
111.85,5.24
112.97,5.19
114.10,5.14
115.24,5.11
116.39,5.07
117.55,5.01
118.73,4.98
119.92,4.97
121.12,4.93
122.33,4.85
123.55,4.81
124.79,4.78
126.03,4.73
127.29,4.69
128.57,4.65
129.85,4.61
131.15,4.57
132.46,4.52
133.79,4.48
135.12,4.45
136.48,4.41
137.84,4.36
139.22,4.32
140.61,4.29
142.02,4.24
143.44,4.20
144.87,4.17
146.32,4.12
147.78,4.07
149.26,4.04
150.75,4.00
152.26,3.96
153.78,3.92
155.32,3.89
156.88,3.84
158.44,3.80
160.03,3.75
161.63,3.72
163.24,3.68
164.88,3.64
166.53,3.59
168.19,3.56
169.87,3.52
171.57,3.48
173.29,3.45
175.02,3.41
176.77,3.37
178.54,3.34
180.32,3.30
182.13,3.25
183.95,3.21
185.79,3.18
187.65,3.14
189.52,3.12
191.42,3.08
193.33,3.05
195.27,3.01
197.22,2.98
199.19,2.93
201.18,2.90
203.19,2.86
205.23,2.82
207.28,2.79
209.35,2.75
211.44,2.71
213.56,2.67
215.69,2.63
217.85,2.60
220.03,2.57
222.23,2.53
224.45,2.50
226.70,2.46
228.96,2.42
231.25,2.39
233.57,2.36
235.90,2.33
238.26,2.29
240.64,2.25
243.05,2.22
245.48,2.18
247.93,2.14
250.41,2.11
252.92,2.07
255.45,2.04
258.00,2.01
260.58,1.97
263.19,1.94
265.82,1.92
268.48,1.89
271.16,1.86
273.87,1.83
276.61,1.79
279.38,1.76
282.17,1.73
284.99,1.70
287.84,1.68
290.72,1.65
293.63,1.62
296.57,1.59
299.53,1.56
302.53,1.53
305.55,1.52
308.61,1.50
311.69,1.47
314.81,1.45
317.96,1.42
321.14,1.39
324.35,1.36
327.59,1.33
330.87,1.30
334.18,1.28
337.52,1.25
340.90,1.22
344.30,1.19
347.75,1.16
351.23,1.13
354.74,1.10
358.28,1.07
361.87,1.04
365.49,1.01
369.14,0.99
372.83,0.95
376.56,0.92
380.33,0.89
384.13,0.87
387.97,0.84
391.85,0.81
395.77,0.78
399.73,0.75
403.72,0.72
407.76,0.69
411.84,0.66
415.96,0.64
420.12,0.62
424.32,0.59
428.56,0.56
432.85,0.54
437.18,0.51
441.55,0.48
445.96,0.45
450.42,0.43
454.93,0.41
459.48,0.38
464.07,0.35
468.71,0.32
473.40,0.30
478.13,0.28
482.91,0.25
487.74,0.23
492.62,0.20
497.55,0.18
502.52,0.15
507.55,0.13
512.62,0.11
517.75,0.08
522.93,0.06
528.16,0.04
533.44,0.01
538.77,-0.01
544.16,-0.03
549.60,-0.06
555.10,-0.08
560.65,-0.10
566.25,-0.12
571.92,-0.14
577.64,-0.16
583.41,-0.19
589.25,-0.21
595.14,-0.22
601.09,-0.24
607.10,-0.26
613.17,-0.28
619.30,-0.30
625.50,-0.32
631.75,-0.33
638.07,-0.34
644.45,-0.36
650.89,-0.38
657.40,-0.42
663.98,-0.42
670.62,-0.42
677.32,-0.44
684.10,-0.45
690.94,-0.46
697.85,-0.47
704.83,-0.48
711.87,-0.49
718.99,-0.51
726.18,-0.51
733.44,-0.52
740.78,-0.53
748.19,-0.53
755.67,-0.53
763.23,-0.53
770.86,-0.54
778.57,-0.54
786.35,-0.53
794.22,-0.54
802.16,-0.55
810.18,-0.53
818.28,-0.52
826.46,-0.51
834.73,-0.50
843.08,-0.49
851.51,-0.47
860.02,-0.46
868.62,-0.43
877.31,-0.41
886.08,-0.39
894.94,-0.35
903.89,-0.33
912.93,-0.31
922.06,-0.27
931.28,-0.24
940.59,-0.21
950.00,-0.17
959.50,-0.14
969.09,-0.10
978.78,-0.06
988.57,-0.03
998.46,-0.01
1008.44,0.03
1018.53,0.06
1028.71,0.08
1039.00,0.11
1049.39,0.15
1059.88,0.19
1070.48,0.24
1081.19,0.30
1092.00,0.36
1102.92,0.42
1113.95,0.49
1125.09,0.56
1136.34,0.63
1147.70,0.71
1159.18,0.79
1170.77,0.87
1182.48,0.95
1194.30,1.03
1206.25,1.10
1218.31,1.18
1230.49,1.26
1242.80,1.33
1255.22,1.41
1267.78,1.48
1280.45,1.54
1293.26,1.61
1306.19,1.67
1319.25,1.73
1332.45,1.79
1345.77,1.85
1359.23,1.90
1372.82,1.96
1386.55,2.01
1400.41,2.06
1414.42,2.11
1428.56,2.16
1442.85,2.20
1457.28,2.25
1471.85,2.29
1486.57,2.34
1501.43,2.38
1516.45,2.41
1531.61,2.45
1546.93,2.49
1562.40,2.53
1578.02,2.58
1593.80,2.64
1609.74,2.68
1625.84,2.70
1642.10,2.73
1658.52,2.77
1675.10,2.81
1691.85,2.85
1708.77,2.89
1725.86,2.93
1743.12,2.97
1760.55,3.01
1778.15,3.05
1795.94,3.09
1813.90,3.13
1832.03,3.16
1850.36,3.20
1868.86,3.24
1887.55,3.28
1906.42,3.32
1925.49,3.35
1944.74,3.39
1964.19,3.42
1983.83,3.46
2003.67,3.49
2023.71,3.53
2043.94,3.56
2064.38,3.60
2085.03,3.63
2105.88,3.66
2126.94,3.68
2148.20,3.71
2169.69,3.74
2191.38,3.77
2213.30,3.79
2235.43,3.81
2257.78,3.83
2280.36,3.84
2303.17,3.86
2326.20,3.87
2349.46,3.88
2372.95,3.87
2396.68,3.86
2420.65,3.87
2444.86,3.87
2469.31,3.86
2494.00,3.85
2518.94,3.83
2544.13,3.81
2569.57,3.77
2595.27,3.74
2621.22,3.72
2647.43,3.68
2673.90,3.63
2700.64,3.58
2727.65,3.53
2754.93,3.48
2782.48,3.42
2810.30,3.37
2838.40,3.30
2866.79,3.24
2895.46,3.17
2924.41,3.09
2953.65,3.02
2983.19,2.95
3013.02,2.88
3043.15,2.80
3073.58,2.72
3104.32,2.66
3135.36,2.59
3166.72,2.51
3198.38,2.44
3230.37,2.37
3262.67,2.31
3295.30,2.25
3328.25,2.19
3361.53,2.13
3395.15,2.06
3429.10,2.01
3463.39,1.96
3498.03,1.90
3533.01,1.86
3568.34,1.81
3604.02,1.77
3640.06,1.72
3676.46,1.68
3713.22,1.64
3750.36,1.60
3787.86,1.57
3825.74,1.53
3864.00,1.50
3902.64,1.47
3941.66,1.44
3981.08,1.40
4020.89,1.36
4061.10,1.32
4101.71,1.29
4142.73,1.26
4184.15,1.23
4226.00,1.20
4268.26,1.17
4310.94,1.14
4354.05,1.11
4397.59,1.08
4441.56,1.04
4485.98,1.01
4530.84,0.99
4576.15,0.97
4621.91,0.94
4668.13,0.92
4714.81,0.90
4761.96,0.87
4809.58,0.85
4857.67,0.83
4906.25,0.82
4955.31,0.80
5004.87,0.79
5054.91,0.77
5105.46,0.75
5156.52,0.73
5208.08,0.71
5260.16,0.68
5312.77,0.66
5365.89,0.62
5419.55,0.59
5473.75,0.55
5528.49,0.51
5583.77,0.45
5639.61,0.40
5696.00,0.36
5752.96,0.31
5810.49,0.27
5868.60,0.24
5927.28,0.24
5986.56,0.26
6046.42,0.31
6106.89,0.39
6167.96,0.52
6229.64,0.70
6291.93,0.91
6354.85,1.18
6418.40,1.46
6482.58,1.77
6547.41,2.07
6612.88,2.37
6679.01,2.63
6745.80,2.83
6813.26,3.00
6881.39,3.09
6950.21,3.12
7019.71,3.10
7089.91,3.04
7160.81,2.95
7232.41,2.84
7304.74,2.72
7377.79,2.59
7451.56,2.45
7526.08,2.30
7601.34,2.15
7677.35,2.01
7754.13,1.88
7831.67,1.77
7909.98,1.66
7989.08,1.56
8068.98,1.50
8149.67,1.46
8231.16,1.43
8313.47,1.44
8396.61,1.48
8480.57,1.54
8565.38,1.64
8651.03,1.75
8737.54,1.89
8824.92,2.05
8913.17,2.21
9002.30,2.38
9092.32,2.52
9183.25,2.64
9275.08,2.73
9367.83,2.74
9461.51,2.69
9556.12,2.56
9651.68,2.35
9748.20,2.09
9845.68,1.79
9944.14,1.47
10043.58,1.12
10144.02,0.75
10245.46,0.38
10347.91,0.01
10451.39,-0.35
10555.91,-0.69
10661.46,-1.02
10768.08,-1.34
10875.76,-1.64
10984.52,-1.91
11094.36,-2.17
11205.31,-2.41
11317.36,-2.61
11430.53,-2.81
11544.84,-2.97
11660.29,-3.12
11776.89,-3.26
11894.66,-3.34
12013.60,-3.41
12133.74,-3.45
12255.08,-3.45
12377.63,-3.41
12501.41,-3.31
12626.42,-3.13
12752.68,-2.87
12880.21,-2.45
13009.01,-1.95
13139.10,-1.45
13270.49,-0.67
13403.20,0.18
13537.23,1.24
13672.60,2.37
13809.33,3.55
13947.42,4.63
14086.90,5.33
14227.77,5.80
14370.04,5.93
14513.74,5.67
14658.88,5.13
14805.47,4.61
14953.52,4.10
15103.06,3.72
15254.09,3.39
15406.63,3.23
15560.70,3.07
15716.30,2.89
15873.47,2.40
16032.20,1.68
16192.52,0.40
16354.45,-1.24
16517.99,-3.09
16683.17,-5.06
16850.01,-7.01
17018.51,-8.92
17188.69,-10.70
17360.58,-12.45
17534.18,-14.10
17709.53,-15.38
17886.62,-16.67
18065.49,-17.99
18246.14,-19.35
18428.60,-20.54
18612.89,-21.64
18799.02,-29.07
18987.01,-54.48
19176.88,-57.90
19368.65,-62.34
19562.33,-63.44
19757.96,-53.99
19955.54,-44.55
