frequency,raw
20.00,6.07
20.20,6.04
20.40,6.01
20.61,5.98
20.81,5.94
21.02,5.90
21.23,5.85
21.44,5.81
21.66,5.78
21.87,5.74
22.09,5.71
22.31,5.69
22.54,5.67
22.76,5.65
22.99,5.63
23.22,5.62
23.45,5.60
23.69,5.57
23.92,5.54
24.16,5.51
24.40,5.47
24.65,5.42
24.89,5.38
25.14,5.34
25.39,5.30
25.65,5.27
25.91,5.24
26.16,5.21
26.43,5.18
26.69,5.14
26.96,5.09
27.23,5.03
27.50,4.96
27.77,4.91
28.05,4.87
28.33,4.84
28.62,4.83
28.90,4.82
29.19,4.81
29.48,4.79
29.78,4.77
30.08,4.75
30.38,4.73
30.68,4.71
30.99,4.70
31.30,4.69
31.61,4.67
31.93,4.64
32.24,4.60
32.57,4.56
32.89,4.51
33.22,4.46
33.55,4.42
33.89,4.39
34.23,4.36
34.57,4.33
34.92,4.31
35.27,4.29
35.62,4.27
35.97,4.26
36.33,4.24
36.70,4.22
37.06,4.19
37.43,4.16
37.81,4.13
38.19,4.10
38.57,4.07
38.95,4.06
39.34,4.04
39.74,4.02
40.14,4.00
40.54,4.00
40.94,4.00
41.35,3.99
41.76,3.98
42.18,3.94
42.60,3.91
43.03,3.88
43.46,3.88
43.90,3.87
44.33,3.87
44.78,3.85
45.23,3.83
45.68,3.83
46.13,3.84
46.60,3.84
47.06,3.82
47.53,3.81
48.01,3.80
48.49,3.80
48.97,3.81
49.46,3.80
49.96,3.78
50.46,3.75
50.96,3.73
51.47,3.72
51.99,3.74
52.51,3.76
53.03,3.78
53.56,3.76
54.10,3.75
54.64,3.76
55.18,3.78
55.74,3.79
56.29,3.80
56.86,3.81
57.42,3.82
58.00,3.83
58.58,3.83
59.16,3.83
59.76,3.86
60.35,3.88
60.96,3.90
61.57,3.91
62.18,3.92
62.80,3.92
63.43,3.92
64.07,3.91
64.71,3.92
65.35,3.93
66.01,3.95
66.67,3.96
67.33,3.96
68.01,3.96
68.69,3.98
69.37,4.00
70.07,4.01
70.77,4.00
71.48,4.01
72.19,4.03
72.91,4.04
73.64,4.03
74.38,4.02
75.12,4.02
75.87,4.02
76.63,4.01
77.40,3.99
78.17,4.01
78.95,4.03
79.74,4.03
80.54,4.03
81.35,4.03
82.16,4.03
82.98,4.02
83.81,4.02
84.65,4.02
85.50,4.03
86.35,4.02
87.22,3.97
88.09,3.96
88.97,3.96
89.86,3.96
90.76,3.96
91.66,3.94
92.58,3.92
93.51,3.88
94.44,3.87
95.39,3.85
96.34,3.82
97.30,3.79
98.28,3.76
99.26,3.72
100.25,3.67
101.25,3.63
102.27,3.57
103.29,3.50
104.32,3.42
105.37,3.36
106.42,3.28
107.48,3.16
108.56,3.06
109.64,2.95
110.74,2.85
111.85,2.79
112.97,2.78
114.10,2.80
115.24,2.87
116.39,3.01
117.55,3.12
118.73,3.18
119.92,3.24
121.12,3.32
122.33,3.40
123.55,3.38
124.79,3.36
126.03,3.33
127.29,3.29
128.57,3.24
129.85,3.18
131.15,3.12
132.46,3.06
133.79,2.99
135.12,2.93
136.48,2.86
137.84,2.79
139.22,2.71
140.61,2.63
142.02,2.55
143.44,2.48
144.87,2.41
146.32,2.32
147.78,2.22
149.26,2.14
150.75,2.05
152.26,1.95
153.78,1.85
155.32,1.76
156.88,1.68
158.44,1.59
160.03,1.48
161.63,1.38
163.24,1.29
164.88,1.18
166.53,1.08
168.19,0.98
169.87,0.88
171.57,0.78
173.29,0.68
175.02,0.57
176.77,0.47
178.54,0.37
180.32,0.27
182.13,0.15
183.95,0.04
185.79,-0.05
187.65,-0.13
189.52,-0.23
191.42,-0.34
193.33,-0.43
195.27,-0.52
197.22,-0.60
199.19,-0.68
201.18,-0.75
203.19,-0.84
205.23,-0.93
207.28,-0.99
209.35,-1.04
211.44,-1.11
213.56,-1.18
215.69,-1.24
217.85,-1.29
220.03,-1.34
222.23,-1.39
224.45,-1.44
226.70,-1.49
228.96,-1.55
231.25,-1.59
233.57,-1.63
235.90,-1.68
238.26,-1.73
240.64,-1.76
243.05,-1.79
245.48,-1.74
247.93,-1.69
250.41,-1.63
252.92,-1.58
255.45,-1.51
258.00,-1.44
260.58,-1.42
263.19,-1.39
265.82,-1.37
268.48,-1.33
271.16,-1.27
273.87,-1.22
276.61,-1.16
279.38,-1.08
282.17,-1.05
284.99,-1.03
287.84,-1.01
290.72,-0.99
293.63,-0.98
296.57,-0.97
299.53,-0.97
302.53,-0.95
305.55,-0.94
308.61,-0.94
311.69,-0.93
314.81,-0.93
317.96,-0.92
321.14,-0.91
324.35,-0.90
327.59,-0.90
330.87,-0.90
334.18,-0.88
337.52,-0.87
340.90,-0.87
344.30,-0.86
347.75,-0.86
351.23,-0.85
354.74,-0.85
358.28,-0.84
361.87,-0.84
365.49,-0.84
369.14,-0.84
372.83,-0.82
376.56,-0.81
380.33,-0.81
384.13,-0.80
387.97,-0.80
391.85,-0.80
395.77,-0.79
399.73,-0.79
403.72,-0.79
407.76,-0.78
411.84,-0.77
415.96,-0.77
420.12,-0.77
424.32,-0.76
428.56,-0.76
432.85,-0.76
437.18,-0.77
441.55,-0.76
445.96,-0.76
450.42,-0.77
454.93,-0.76
459.48,-0.77
464.07,-0.77
468.71,-0.78
473.40,-0.78
478.13,-0.78
482.91,-0.78
487.74,-0.78
492.62,-0.78
497.55,-0.78
502.52,-0.79
507.55,-0.79
512.62,-0.78
517.75,-0.78
522.93,-0.79
528.16,-0.78
533.44,-0.78
538.77,-0.79
544.16,-0.79
549.60,-0.79
555.10,-0.79
560.65,-0.79
566.25,-0.80
571.92,-0.80
577.64,-0.81
583.41,-0.81
589.25,-0.82
595.14,-0.82
601.09,-0.82
607.10,-0.83
613.17,-0.84
619.30,-0.84
625.50,-0.84
631.75,-0.85
638.07,-0.85
644.45,-0.85
650.89,-0.86
657.40,-0.87
663.98,-0.87
670.62,-0.87
677.32,-0.88
684.10,-0.88
690.94,-0.88
697.85,-0.89
704.83,-0.89
711.87,-0.89
718.99,-0.89
726.18,-0.89
733.44,-0.89
740.78,-0.89
748.19,-0.88
755.67,-0.88
763.23,-0.88
770.86,-0.87
778.57,-0.87
786.35,-0.87
794.22,-0.85
802.16,-0.83
810.18,-0.82
818.28,-0.81
826.46,-0.80
834.73,-0.78
843.08,-0.76
851.51,-0.74
860.02,-0.71
868.62,-0.69
877.31,-0.66
886.08,-0.63
894.94,-0.60
903.89,-0.56
912.93,-0.52
922.06,-0.47
931.28,-0.42
940.59,-0.38
950.00,-0.33
959.50,-0.27
969.09,-0.21
978.78,-0.15
988.57,-0.08
998.46,-0.01
1008.44,0.06
1018.53,0.14
1028.71,0.21
1039.00,0.29
1049.39,0.38
1059.88,0.46
1070.48,0.56
1081.19,0.65
1092.00,0.74
1102.92,0.84
1113.95,0.94
1125.09,1.04
1136.34,1.14
1147.70,1.24
1159.18,1.34
1170.77,1.44
1182.48,1.54
1194.30,1.64
1206.25,1.74
1218.31,1.84
1230.49,1.94
1242.80,2.04
1255.22,2.14
1267.78,2.23
1280.45,2.32
1293.26,2.41
1306.19,2.50
1319.25,2.59
1332.45,2.68
1345.77,2.77
1359.23,2.85
1372.82,2.94
1386.55,3.02
1400.41,3.10
1414.42,3.18
1428.56,3.26
1442.85,3.34
1457.28,3.42
1471.85,3.49
1486.57,3.57
1501.43,3.64
1516.45,3.72
1531.61,3.79
1546.93,3.86
1562.40,3.94
1578.02,4.01
1593.80,4.09
1609.74,4.16
1625.84,4.23
1642.10,4.30
1658.52,4.38
1675.10,4.45
1691.85,4.52
1708.77,4.59
1725.86,4.67
1743.12,4.74
1760.55,4.82
1778.15,4.90
1795.94,4.97
1813.90,5.04
1832.03,5.12
1850.36,5.20
1868.86,5.27
1887.55,5.35
1906.42,5.43
1925.49,5.51
1944.74,5.60
1964.19,5.68
1983.83,5.77
2003.67,5.85
2023.71,5.93
2043.94,6.01
2064.38,6.10
2085.03,6.19
2105.88,6.28
2126.94,6.37
2148.20,6.46
2169.69,6.55
2191.38,6.64
2213.30,6.73
2235.43,6.82
2257.78,6.91
2280.36,7.01
2303.17,7.10
2326.20,7.19
2349.46,7.28
2372.95,7.37
2396.68,7.46
2420.65,7.56
2444.86,7.65
2469.31,7.74
2494.00,7.82
2518.94,7.90
2544.13,7.98
2569.57,8.05
2595.27,8.13
2621.22,8.20
2647.43,8.26
2673.90,8.31
2700.64,8.37
2727.65,8.43
2754.93,8.50
2782.48,8.60
2810.30,8.73
2838.40,8.88
2866.79,9.03
2895.46,9.16
2924.41,9.26
2953.65,9.35
2983.19,9.40
3013.02,9.44
3043.15,9.46
3073.58,9.47
3104.32,9.47
3135.36,9.46
3166.72,9.45
3198.38,9.42
3230.37,9.40
3262.67,9.37
3295.30,9.33
3328.25,9.29
3361.53,9.24
3395.15,9.19
3429.10,9.14
3463.39,9.07
3498.03,9.00
3533.01,8.93
3568.34,8.86
3604.02,8.77
3640.06,8.69
3676.46,8.61
3713.22,8.52
3750.36,8.45
3787.86,8.37
3825.74,8.30
3864.00,8.24
3902.64,8.18
3941.66,8.12
3981.08,8.07
4020.89,8.03
4061.10,7.99
4101.71,7.96
4142.73,7.95
4184.15,7.94
4226.00,7.94
4268.26,7.95
4310.94,7.96
4354.05,7.98
4397.59,7.99
4441.56,7.99
4485.98,8.00
4530.84,7.99
4576.15,7.99
4621.91,7.99
4668.13,7.99
4714.81,7.98
4761.96,7.99
4809.58,7.99
4857.67,7.99
4906.25,8.00
4955.31,8.00
5004.87,8.01
5054.91,8.02
5105.46,8.04
5156.52,8.05
5208.08,8.07
5260.16,8.09
5312.77,8.11
5365.89,8.13
5419.55,8.15
5473.75,8.18
5528.49,8.20
5583.77,8.22
5639.61,8.25
5696.00,8.27
5752.96,8.30
5810.49,8.32
5868.60,8.35
5927.28,8.38
5986.56,8.41
6046.42,8.43
6106.89,8.45
6167.96,8.48
6229.64,8.51
6291.93,8.53
6354.85,8.55
6418.40,8.57
6482.58,8.60
6547.41,8.63
6612.88,8.66
6679.01,8.70
6745.80,8.75
6813.26,8.80
6881.39,8.88
6950.21,8.96
7019.71,9.05
7089.91,9.15
7160.81,9.26
7232.41,9.39
7304.74,9.53
7377.79,9.70
7451.56,9.88
7526.08,10.08
7601.34,10.31
7677.35,10.55
7754.13,10.80
7831.67,11.03
7909.98,11.20
7989.08,11.28
8068.98,11.12
8149.67,10.81
8231.16,10.29
8313.47,9.55
8396.61,8.73
8480.57,7.80
8565.38,6.83
8651.03,5.86
8737.54,4.88
8824.92,3.92
8913.17,2.98
9002.30,2.06
9092.32,1.20
9183.25,0.37
9275.08,-0.42
9367.83,-1.17
9461.51,-1.89
9556.12,-2.56
9651.68,-3.19
9748.20,-3.81
9845.68,-4.37
9944.14,-4.92
10043.58,-5.45
10144.02,-5.96
10245.46,-6.44
10347.91,-6.91
10451.39,-7.35
10555.91,-7.80
10661.46,-8.19
10768.08,-8.55
10875.76,-8.91
10984.52,-9.25
11094.36,-9.56
11205.31,-9.85
11317.36,-10.10
11430.53,-10.34
11544.84,-10.53
11660.29,-10.69
11776.89,-10.86
11894.66,-10.98
12013.60,-11.09
12133.74,-11.17
12255.08,-11.22
12377.63,-11.26
12501.41,-11.27
12626.42,-11.20
12752.68,-11.12
12880.21,-10.97
13009.01,-10.77
13139.10,-10.57
13270.49,-10.24
13403.20,-9.90
13537.23,-9.42
13672.60,-8.88
13809.33,-8.26
13947.42,-7.49
14086.90,-6.56
14227.77,-5.52
14370.04,-4.27
14513.74,-2.77
14658.88,-0.84
14805.47,0.97
14953.52,2.59
15103.06,2.27
15254.09,1.06
15406.63,-1.22
15560.70,-3.35
15716.30,-5.23
15873.47,-6.75
16032.20,-8.10
16192.52,-9.17
16354.45,-10.22
16517.99,-11.32
16683.17,-12.82
16850.01,-13.74
17018.51,-14.28
17188.69,-14.83
17360.58,-15.39
17534.18,-15.97
17709.53,-16.58
17886.62,-17.13
18065.49,-17.75
18246.14,-18.52
18428.60,-19.38
18612.89,-20.26
18799.02,-28.69
18987.01,-58.30
19176.88,-57.78
19368.65,-65.01
19562.33,-68.30
19757.96,-50.17
19955.54,-32.04
