frequency,raw
20.00,6.47
20.20,6.52
20.40,6.57
20.61,6.63
20.81,6.66
21.02,6.70
21.23,6.73
21.44,6.75
21.66,6.78
21.87,6.81
22.09,6.84
22.31,6.87
22.54,6.90
22.76,6.94
22.99,6.97
23.22,7.00
23.45,7.04
23.69,7.07
23.92,7.11
24.16,7.14
24.40,7.17
24.65,7.20
24.89,7.23
25.14,7.26
25.39,7.29
25.65,7.31
25.91,7.33
26.16,7.36
26.43,7.38
26.69,7.41
26.96,7.44
27.23,7.46
27.50,7.49
27.77,7.51
28.05,7.53
28.33,7.54
28.62,7.56
28.90,7.59
29.19,7.61
29.48,7.64
29.78,7.66
30.08,7.68
30.38,7.69
30.68,7.69
30.99,7.70
31.30,7.72
31.61,7.74
31.93,7.78
32.24,7.81
32.57,7.84
32.89,7.85
33.22,7.87
33.55,7.87
33.89,7.88
34.23,7.88
34.57,7.89
34.92,7.90
35.27,7.91
35.62,7.92
35.97,7.93
36.33,7.94
36.70,7.94
37.06,7.95
37.43,7.97
37.81,7.97
38.19,7.98
38.57,7.99
38.95,8.00
39.34,8.02
39.74,8.04
40.14,8.05
40.54,8.07
40.94,8.07
41.35,8.06
41.76,8.06
42.18,8.06
42.60,8.06
43.03,8.07
43.46,8.07
43.90,8.07
44.33,8.08
44.78,8.09
45.23,8.09
45.68,8.09
46.13,8.07
46.60,8.07
47.06,8.07
47.53,8.06
48.01,8.03
48.49,8.02
48.97,8.04
49.46,8.07
49.96,8.08
50.46,8.05
50.96,8.03
51.47,8.02
51.99,8.05
52.51,8.06
53.03,8.06
53.56,8.05
54.10,8.04
54.64,8.04
55.18,8.03
55.74,8.01
56.29,7.99
56.86,7.97
57.42,7.97
58.00,7.97
58.58,7.98
59.16,7.98
59.76,7.96
60.35,7.95
60.96,7.93
61.57,7.92
62.18,7.89
62.80,7.88
63.43,7.87
64.07,7.86
64.71,7.84
65.35,7.83
66.01,7.82
66.67,7.81
67.33,7.80
68.01,7.78
68.69,7.76
69.37,7.75
70.07,7.73
70.77,7.71
71.48,7.69
72.19,7.67
72.91,7.65
73.64,7.63
74.38,7.61
75.12,7.59
75.87,7.57
76.63,7.55
77.40,7.53
78.17,7.51
78.95,7.49
79.74,7.46
80.54,7.44
81.35,7.41
82.16,7.39
82.98,7.37
83.81,7.34
84.65,7.32
85.50,7.29
86.35,7.27
87.22,7.24
88.09,7.22
88.97,7.19
89.86,7.16
90.76,7.14
91.66,7.11
92.58,7.09
93.51,7.05
94.44,7.02
95.39,6.99
96.34,6.97
97.30,6.94
98.28,6.91
99.26,6.88
100.25,6.85
101.25,6.81
102.27,6.78
103.29,6.75
104.32,6.72
105.37,6.69
106.42,6.65
107.48,6.62
108.56,6.59
109.64,6.55
110.74,6.51
111.85,6.48
112.97,6.45
114.10,6.41
115.24,6.38
116.39,6.34
117.55,6.30
118.73,6.26
119.92,6.23
121.12,6.19
122.33,6.16
123.55,6.12
124.79,6.08
126.03,6.04
127.29,6.00
128.57,5.96
129.85,5.92
131.15,5.88
132.46,5.84
133.79,5.80
135.12,5.76
136.48,5.72
137.84,5.67
139.22,5.64
140.61,5.60
142.02,5.56
143.44,5.51
144.87,5.47
146.32,5.43
147.78,5.38
149.26,5.34
150.75,5.30
152.26,5.26
153.78,5.21
155.32,5.17
156.88,5.12
158.44,5.08
160.03,5.04
161.63,4.99
163.24,4.95
164.88,4.90
166.53,4.86
168.19,4.81
169.87,4.77
171.57,4.73
173.29,4.68
175.02,4.65
176.77,4.60
178.54,4.55
180.32,4.51
182.13,4.46
183.95,4.41
185.79,4.37
187.65,4.33
189.52,4.28
191.42,4.24
193.33,4.19
195.27,4.14
197.22,4.10
199.19,4.05
201.18,4.01
203.19,3.96
205.23,3.92
207.28,3.87
209.35,3.83
211.44,3.77
213.56,3.74
215.69,3.69
217.85,3.64
220.03,3.59
222.23,3.54
224.45,3.50
226.70,3.45
228.96,3.40
231.25,3.36
233.57,3.31
235.90,3.26
238.26,3.22
240.64,3.17
243.05,3.12
245.48,3.07
247.93,3.03
250.41,2.98
252.92,2.93
255.45,2.88
258.00,2.84
260.58,2.79
263.19,2.74
265.82,2.69
268.48,2.65
271.16,2.60
273.87,2.55
276.61,2.51
279.38,2.46
282.17,2.42
284.99,2.37
287.84,2.32
290.72,2.28
293.63,2.24
296.57,2.19
299.53,2.14
302.53,2.10
305.55,2.06
308.61,2.01
311.69,1.97
314.81,1.93
317.96,1.88
321.14,1.84
324.35,1.79
327.59,1.75
330.87,1.71
334.18,1.66
337.52,1.62
340.90,1.58
344.30,1.54
347.75,1.50
351.23,1.46
354.74,1.41
358.28,1.38
361.87,1.35
365.49,1.32
369.14,1.28
372.83,1.25
376.56,1.21
380.33,1.17
384.13,1.14
387.97,1.10
391.85,1.06
395.77,1.02
399.73,0.98
403.72,0.94
407.76,0.91
411.84,0.87
415.96,0.83
420.12,0.79
424.32,0.76
428.56,0.72
432.85,0.68
437.18,0.65
441.55,0.61
445.96,0.58
450.42,0.55
454.93,0.51
459.48,0.48
464.07,0.45
468.71,0.41
473.40,0.38
478.13,0.35
482.91,0.32
487.74,0.29
492.62,0.26
497.55,0.23
502.52,0.19
507.55,0.16
512.62,0.13
517.75,0.10
522.93,0.08
528.16,0.05
533.44,0.02
538.77,-0.01
544.16,-0.04
549.60,-0.07
555.10,-0.10
560.65,-0.13
566.25,-0.16
571.92,-0.18
577.64,-0.20
583.41,-0.23
589.25,-0.26
595.14,-0.28
601.09,-0.30
607.10,-0.32
613.17,-0.34
619.30,-0.37
625.50,-0.39
631.75,-0.41
638.07,-0.44
644.45,-0.45
650.89,-0.47
657.40,-0.49
663.98,-0.51
670.62,-0.52
677.32,-0.54
684.10,-0.55
690.94,-0.56
697.85,-0.58
704.83,-0.59
711.87,-0.60
718.99,-0.62
726.18,-0.63
733.44,-0.64
740.78,-0.65
748.19,-0.65
755.67,-0.65
763.23,-0.66
770.86,-0.66
778.57,-0.66
786.35,-0.66
794.22,-0.66
802.16,-0.66
810.18,-0.66
818.28,-0.65
826.46,-0.64
834.73,-0.63
843.08,-0.62
851.51,-0.60
860.02,-0.58
868.62,-0.56
877.31,-0.54
886.08,-0.52
894.94,-0.49
903.89,-0.46
912.93,-0.43
922.06,-0.40
931.28,-0.36
940.59,-0.32
950.00,-0.28
959.50,-0.23
969.09,-0.18
978.78,-0.12
988.57,-0.07
998.46,-0.01
1008.44,0.05
1018.53,0.12
1028.71,0.18
1039.00,0.25
1049.39,0.33
1059.88,0.40
1070.48,0.48
1081.19,0.56
1092.00,0.64
1102.92,0.72
1113.95,0.81
1125.09,0.89
1136.34,0.98
1147.70,1.06
1159.18,1.15
1170.77,1.23
1182.48,1.31
1194.30,1.40
1206.25,1.48
1218.31,1.56
1230.49,1.63
1242.80,1.70
1255.22,1.77
1267.78,1.83
1280.45,1.89
1293.26,1.94
1306.19,1.99
1319.25,2.04
1332.45,2.09
1345.77,2.15
1359.23,2.21
1372.82,2.27
1386.55,2.34
1400.41,2.41
1414.42,2.49
1428.56,2.56
1442.85,2.63
1457.28,2.71
1471.85,2.79
1486.57,2.86
1501.43,2.94
1516.45,3.02
1531.61,3.10
1546.93,3.17
1562.40,3.25
1578.02,3.32
1593.80,3.40
1609.74,3.47
1625.84,3.55
1642.10,3.62
1658.52,3.69
1675.10,3.76
1691.85,3.83
1708.77,3.91
1725.86,3.98
1743.12,4.06
1760.55,4.13
1778.15,4.21
1795.94,4.28
1813.90,4.36
1832.03,4.44
1850.36,4.52
1868.86,4.60
1887.55,4.68
1906.42,4.76
1925.49,4.84
1944.74,4.93
1964.19,5.01
1983.83,5.10
2003.67,5.19
2023.71,5.27
2043.94,5.36
2064.38,5.45
2085.03,5.53
2105.88,5.62
2126.94,5.71
2148.20,5.80
2169.69,5.89
2191.38,5.97
2213.30,6.06
2235.43,6.14
2257.78,6.22
2280.36,6.30
2303.17,6.38
2326.20,6.45
2349.46,6.53
2372.95,6.60
2396.68,6.67
2420.65,6.73
2444.86,6.80
2469.31,6.86
2494.00,6.92
2518.94,6.98
2544.13,7.03
2569.57,7.08
2595.27,7.13
2621.22,7.18
2647.43,7.22
2673.90,7.26
2700.64,7.30
2727.65,7.34
2754.93,7.37
2782.48,7.40
2810.30,7.43
2838.40,7.46
2866.79,7.48
2895.46,7.51
2924.41,7.53
2953.65,7.55
2983.19,7.57
3013.02,7.59
3043.15,7.61
3073.58,7.63
3104.32,7.65
3135.36,7.66
3166.72,7.68
3198.38,7.70
3230.37,7.72
3262.67,7.74
3295.30,7.76
3328.25,7.79
3361.53,7.81
3395.15,7.83
3429.10,7.86
3463.39,7.88
3498.03,7.90
3533.01,7.92
3568.34,7.94
3604.02,7.96
3640.06,7.98
3676.46,8.02
3713.22,8.05
3750.36,8.09
3787.86,8.14
3825.74,8.19
3864.00,8.25
3902.64,8.31
3941.66,8.37
3981.08,8.43
4020.89,8.49
4061.10,8.55
4101.71,8.59
4142.73,8.63
4184.15,8.65
4226.00,8.67
4268.26,8.69
4310.94,8.70
4354.05,8.71
4397.59,8.72
4441.56,8.72
4485.98,8.72
4530.84,8.70
4576.15,8.67
4621.91,8.64
4668.13,8.60
4714.81,8.56
4761.96,8.52
4809.58,8.49
4857.67,8.46
4906.25,8.43
4955.31,8.40
5004.87,8.36
5054.91,8.30
5105.46,8.23
5156.52,8.14
5208.08,8.03
5260.16,7.89
5312.77,7.75
5365.89,7.60
5419.55,7.49
5473.75,7.43
5528.49,7.43
5583.77,7.48
5639.61,7.52
5696.00,7.55
5752.96,7.48
5810.49,7.39
5868.60,7.22
5927.28,7.02
5986.56,6.79
6046.42,6.54
6106.89,6.29
6167.96,6.03
6229.64,5.77
6291.93,5.51
6354.85,5.26
6418.40,5.02
6482.58,4.77
6547.41,4.54
6612.88,4.31
6679.01,4.09
6745.80,3.88
6813.26,3.68
6881.39,3.50
6950.21,3.32
7019.71,3.14
7089.91,2.98
7160.81,2.84
7232.41,2.72
7304.74,2.61
7377.79,2.51
7451.56,2.43
7526.08,2.37
7601.34,2.31
7677.35,2.27
7754.13,2.23
7831.67,2.18
7909.98,2.12
7989.08,2.04
8068.98,1.94
8149.67,1.83
8231.16,1.74
8313.47,1.73
8396.61,1.79
8480.57,1.97
8565.38,2.26
8651.03,2.61
8737.54,3.03
8824.92,3.50
8913.17,4.02
9002.30,4.55
9092.32,5.13
9183.25,5.72
9275.08,6.31
9367.83,6.88
9461.51,7.38
9556.12,7.77
9651.68,8.02
9748.20,8.11
9845.68,7.94
9944.14,7.63
10043.58,7.17
10144.02,6.62
10245.46,6.02
10347.91,5.41
10451.39,4.81
10555.91,4.24
10661.46,3.71
10768.08,3.21
10875.76,2.75
10984.52,2.36
11094.36,2.00
11205.31,1.69
11317.36,1.44
11430.53,1.22
11544.84,1.08
11660.29,0.99
11776.89,0.93
11894.66,1.01
12013.60,1.11
12133.74,1.30
12255.08,1.61
12377.63,1.99
12501.41,2.44
12626.42,3.03
12752.68,3.73
12880.21,4.60
13009.01,5.55
13139.10,6.51
13270.49,7.54
13403.20,8.54
13537.23,8.92
13672.60,8.74
13809.33,8.04
13947.42,6.81
14086.90,5.59
14227.77,4.38
14370.04,3.26
14513.74,2.26
14658.88,1.45
14805.47,0.70
14953.52,0.07
15103.06,-0.41
15254.09,-0.81
15406.63,-1.01
15560.70,-1.12
15716.30,-1.07
15873.47,-0.78
16032.20,-0.35
16192.52,0.37
16354.45,1.40
16517.99,2.64
16683.17,4.05
16850.01,4.52
17018.51,4.12
17188.69,1.83
17360.58,-0.75
17534.18,-3.41
17709.53,-5.75
17886.62,-7.79
18065.49,-9.65
18246.14,-11.31
18428.60,-12.75
18612.89,-14.10
18799.02,-15.36
18987.01,-16.54
19176.88,-17.82
19368.65,-18.96
19562.33,-20.25
19757.96,-22.08
19955.54,-23.90
