frequency,raw
20.00,11.60
20.20,11.59
20.40,11.57
20.61,11.56
20.81,11.54
21.02,11.53
21.23,11.52
21.44,11.51
21.66,11.51
21.87,11.51
22.09,11.52
22.31,11.52
22.54,11.52
22.76,11.52
22.99,11.52
23.22,11.52
23.45,11.51
23.69,11.50
23.92,11.49
24.16,11.48
24.40,11.46
24.65,11.45
24.89,11.43
25.14,11.40
25.39,11.38
25.65,11.36
25.91,11.34
26.16,11.32
26.43,11.31
26.69,11.30
26.96,11.29
27.23,11.29
27.50,11.27
27.77,11.25
28.05,11.22
28.33,11.19
28.62,11.16
28.90,11.13
29.19,11.12
29.48,11.11
29.78,11.10
30.08,11.09
30.38,11.08
30.68,11.06
30.99,11.03
31.30,11.01
31.61,10.99
31.93,10.97
32.24,10.95
32.57,10.92
32.89,10.89
33.22,10.86
33.55,10.83
33.89,10.80
34.23,10.79
34.57,10.77
34.92,10.75
35.27,10.72
35.62,10.69
35.97,10.66
36.33,10.63
36.70,10.60
37.06,10.57
37.43,10.54
37.81,10.51
38.19,10.48
38.57,10.45
38.95,10.42
39.34,10.39
39.74,10.36
40.14,10.32
40.54,10.28
40.94,10.25
41.35,10.21
41.76,10.18
42.18,10.15
42.60,10.11
43.03,10.06
43.46,10.02
43.90,9.98
44.33,9.95
44.78,9.91
45.23,9.88
45.68,9.84
46.13,9.79
46.60,9.74
47.06,9.69
47.53,9.64
48.01,9.60
48.49,9.56
48.97,9.52
49.46,9.48
49.96,9.43
50.46,9.38
50.96,9.33
51.47,9.28
51.99,9.23
52.51,9.18
53.03,9.13
53.56,9.08
54.10,9.02
54.64,8.97
55.18,8.93
55.74,8.89
56.29,8.84
56.86,8.79
57.42,8.73
58.00,8.67
58.58,8.61
59.16,8.55
59.76,8.49
60.35,8.43
60.96,8.37
61.57,8.31
62.18,8.25
62.80,8.20
63.43,8.13
64.07,8.07
64.71,8.01
65.35,7.95
66.01,7.88
66.67,7.80
67.33,7.74
68.01,7.68
68.69,7.62
69.37,7.56
70.07,7.51
70.77,7.46
71.48,7.41
72.19,7.36
72.91,7.31
73.64,7.25
74.38,7.19
75.12,7.13
75.87,7.07
76.63,7.02
77.40,6.96
78.17,6.89
78.95,6.81
79.74,6.74
80.54,6.67
81.35,6.60
82.16,6.53
82.98,6.45
83.81,6.38
84.65,6.31
85.50,6.24
86.35,6.16
87.22,6.08
88.09,6.02
88.97,5.95
89.86,5.88
90.76,5.81
91.66,5.73
92.58,5.66
93.51,5.59
94.44,5.51
95.39,5.44
96.34,5.37
97.30,5.30
98.28,5.22
99.26,5.14
100.25,5.07
101.25,4.99
102.27,4.92
103.29,4.85
104.32,4.78
105.37,4.70
106.42,4.63
107.48,4.56
108.56,4.49
109.64,4.42
110.74,4.35
111.85,4.27
112.97,4.20
114.10,4.13
115.24,4.07
116.39,4.00
117.55,3.93
118.73,3.87
119.92,3.80
121.12,3.72
122.33,3.64
123.55,3.58
124.79,3.52
126.03,3.45
127.29,3.39
128.57,3.33
129.85,3.26
131.15,3.20
132.46,3.14
133.79,3.07
135.12,3.01
136.48,2.95
137.84,2.89
139.22,2.83
140.61,2.77
142.02,2.72
143.44,2.66
144.87,2.60
146.32,2.55
147.78,2.49
149.26,2.44
150.75,2.39
152.26,2.34
153.78,2.29
155.32,2.24
156.88,2.20
158.44,2.15
160.03,2.11
161.63,2.07
163.24,2.03
164.88,1.99
166.53,1.95
168.19,1.91
169.87,1.87
171.57,1.83
173.29,1.80
175.02,1.76
176.77,1.73
178.54,1.69
180.32,1.66
182.13,1.63
183.95,1.61
185.79,1.59
187.65,1.58
189.52,1.57
191.42,1.55
193.33,1.54
195.27,1.53
197.22,1.52
199.19,1.50
201.18,1.48
203.19,1.46
205.23,1.43
207.28,1.40
209.35,1.38
211.44,1.35
213.56,1.33
215.69,1.30
217.85,1.27
220.03,1.25
222.23,1.22
224.45,1.19
226.70,1.17
228.96,1.15
231.25,1.12
233.57,1.10
235.90,1.07
238.26,1.05
240.64,1.03
243.05,1.01
245.48,0.98
247.93,0.96
250.41,0.94
252.92,0.92
255.45,0.90
258.00,0.88
260.58,0.86
263.19,0.84
265.82,0.82
268.48,0.80
271.16,0.78
273.87,0.76
276.61,0.75
279.38,0.73
282.17,0.71
284.99,0.70
287.84,0.68
290.72,0.67
293.63,0.66
296.57,0.64
299.53,0.63
302.53,0.61
305.55,0.60
308.61,0.58
311.69,0.56
314.81,0.54
317.96,0.53
321.14,0.51
324.35,0.50
327.59,0.48
330.87,0.46
334.18,0.44
337.52,0.43
340.90,0.41
344.30,0.39
347.75,0.38
351.23,0.36
354.74,0.35
358.28,0.33
361.87,0.31
365.49,0.30
369.14,0.28
372.83,0.26
376.56,0.24
380.33,0.22
384.13,0.21
387.97,0.19
391.85,0.17
395.77,0.15
399.73,0.13
403.72,0.11
407.76,0.10
411.84,0.08
415.96,0.06
420.12,0.04
424.32,0.03
428.56,0.01
432.85,-0.01
437.18,-0.03
441.55,-0.04
445.96,-0.06
450.42,-0.08
454.93,-0.10
459.48,-0.12
464.07,-0.13
468.71,-0.15
473.40,-0.17
478.13,-0.19
482.91,-0.20
487.74,-0.22
492.62,-0.24
497.55,-0.26
502.52,-0.27
507.55,-0.29
512.62,-0.31
517.75,-0.33
522.93,-0.34
528.16,-0.36
533.44,-0.37
538.77,-0.39
544.16,-0.41
549.60,-0.42
555.10,-0.44
560.65,-0.45
566.25,-0.47
571.92,-0.48
577.64,-0.50
583.41,-0.51
589.25,-0.53
595.14,-0.54
601.09,-0.56
607.10,-0.58
613.17,-0.59
619.30,-0.60
625.50,-0.62
631.75,-0.63
638.07,-0.64
644.45,-0.65
650.89,-0.66
657.40,-0.67
663.98,-0.68
670.62,-0.69
677.32,-0.70
684.10,-0.71
690.94,-0.72
697.85,-0.72
704.83,-0.73
711.87,-0.74
718.99,-0.74
726.18,-0.75
733.44,-0.75
740.78,-0.76
748.19,-0.76
755.67,-0.76
763.23,-0.76
770.86,-0.76
778.57,-0.76
786.35,-0.75
794.22,-0.75
802.16,-0.74
810.18,-0.74
818.28,-0.73
826.46,-0.72
834.73,-0.71
843.08,-0.70
851.51,-0.68
860.02,-0.66
868.62,-0.64
877.31,-0.62
886.08,-0.59
894.94,-0.56
903.89,-0.53
912.93,-0.49
922.06,-0.45
931.28,-0.41
940.59,-0.36
950.00,-0.32
959.50,-0.26
969.09,-0.20
978.78,-0.14
988.57,-0.08
998.46,-0.01
1008.44,0.06
1018.53,0.14
1028.71,0.21
1039.00,0.30
1049.39,0.39
1059.88,0.47
1070.48,0.57
1081.19,0.66
1092.00,0.76
1102.92,0.86
1113.95,0.97
1125.09,1.07
1136.34,1.17
1147.70,1.28
1159.18,1.39
1170.77,1.49
1182.48,1.60
1194.30,1.70
1206.25,1.81
1218.31,1.91
1230.49,2.01
1242.80,2.11
1255.22,2.21
1267.78,2.30
1280.45,2.40
1293.26,2.49
1306.19,2.58
1319.25,2.67
1332.45,2.75
1345.77,2.83
1359.23,2.91
1372.82,2.99
1386.55,3.07
1400.41,3.15
1414.42,3.22
1428.56,3.30
1442.85,3.37
1457.28,3.44
1471.85,3.51
1486.57,3.58
1501.43,3.65
1516.45,3.73
1531.61,3.80
1546.93,3.87
1562.40,3.94
1578.02,4.01
1593.80,4.09
1609.74,4.16
1625.84,4.24
1642.10,4.32
1658.52,4.40
1675.10,4.48
1691.85,4.56
1708.77,4.64
1725.86,4.72
1743.12,4.80
1760.55,4.88
1778.15,4.96
1795.94,5.04
1813.90,5.12
1832.03,5.20
1850.36,5.29
1868.86,5.37
1887.55,5.45
1906.42,5.54
1925.49,5.62
1944.74,5.71
1964.19,5.81
1983.83,5.91
2003.67,6.02
2023.71,6.14
2043.94,6.25
2064.38,6.37
2085.03,6.50
2105.88,6.62
2126.94,6.74
2148.20,6.85
2169.69,6.95
2191.38,7.05
2213.30,7.13
2235.43,7.22
2257.78,7.30
2280.36,7.37
2303.17,7.44
2326.20,7.51
2349.46,7.58
2372.95,7.64
2396.68,7.69
2420.65,7.74
2444.86,7.78
2469.31,7.81
2494.00,7.83
2518.94,7.83
2544.13,7.82
2569.57,7.79
2595.27,7.74
2621.22,7.67
2647.43,7.58
2673.90,7.46
2700.64,7.33
2727.65,7.18
2754.93,7.04
2782.48,6.91
2810.30,6.78
2838.40,6.67
2866.79,6.58
2895.46,6.50
2924.41,6.45
2953.65,6.40
2983.19,6.36
3013.02,6.33
3043.15,6.31
3073.58,6.29
3104.32,6.28
3135.36,6.28
3166.72,6.28
3198.38,6.28
3230.37,6.29
3262.67,6.29
3295.30,6.30
3328.25,6.31
3361.53,6.32
3395.15,6.33
3429.10,6.34
3463.39,6.34
3498.03,6.34
3533.01,6.33
3568.34,6.32
3604.02,6.29
3640.06,6.26
3676.46,6.22
3713.22,6.19
3750.36,6.16
3787.86,6.14
3825.74,6.13
3864.00,6.15
3902.64,6.19
3941.66,6.24
3981.08,6.30
4020.89,6.37
4061.10,6.43
4101.71,6.48
4142.73,6.52
4184.15,6.54
4226.00,6.54
4268.26,6.52
4310.94,6.49
4354.05,6.45
4397.59,6.40
4441.56,6.34
4485.98,6.30
4530.84,6.26
4576.15,6.25
4621.91,6.25
4668.13,6.30
4714.81,6.38
4761.96,6.48
4809.58,6.61
4857.67,6.76
4906.25,6.92
4955.31,7.08
5004.87,7.24
5054.91,7.37
5105.46,7.47
5156.52,7.54
5208.08,7.56
5260.16,7.52
5312.77,7.44
5365.89,7.30
5419.55,7.11
5473.75,6.88
5528.49,6.62
5583.77,6.33
5639.61,6.02
5696.00,5.70
5752.96,5.39
5810.49,5.07
5868.60,4.76
5927.28,4.47
5986.56,4.19
6046.42,3.94
6106.89,3.70
6167.96,3.49
6229.64,3.31
6291.93,3.16
6354.85,3.05
6418.40,2.97
6482.58,2.92
6547.41,2.92
6612.88,2.96
6679.01,3.04
6745.80,3.17
6813.26,3.33
6881.39,3.56
6950.21,3.85
7019.71,4.18
7089.91,4.57
7160.81,5.02
7232.41,5.51
7304.74,6.03
7377.79,6.58
7451.56,7.12
7526.08,7.63
7601.34,8.08
7677.35,8.41
7754.13,8.70
7831.67,8.82
7909.98,8.87
7989.08,8.84
8068.98,8.74
8149.67,8.63
8231.16,8.52
8313.47,8.43
8396.61,8.36
8480.57,8.29
8565.38,8.19
8651.03,8.02
8737.54,7.77
8824.92,7.36
8913.17,6.80
9002.30,6.19
9092.32,5.49
9183.25,4.79
9275.08,4.11
9367.83,3.47
9461.51,2.90
9556.12,2.40
9651.68,1.97
9748.20,1.62
9845.68,1.37
9944.14,1.17
10043.58,1.04
10144.02,0.97
10245.46,0.97
10347.91,0.99
10451.39,1.02
10555.91,1.02
10661.46,0.95
10768.08,0.80
10875.76,0.51
10984.52,0.08
11094.36,-0.39
11205.31,-0.87
11317.36,-1.17
11430.53,-1.35
11544.84,-1.30
11660.29,-1.13
11776.89,-0.91
11894.66,-0.67
12013.60,-0.43
12133.74,-0.23
12255.08,-0.06
12377.63,0.10
12501.41,0.30
12626.42,0.60
12752.68,0.95
12880.21,1.16
13009.01,1.29
13139.10,1.42
13270.49,1.09
13403.20,0.59
13537.23,-0.23
13672.60,-1.10
13809.33,-2.01
13947.42,-2.84
14086.90,-3.56
14227.77,-4.19
14370.04,-4.73
14513.74,-5.14
14658.88,-5.44
14805.47,-5.71
14953.52,-5.96
15103.06,-6.28
15254.09,-6.63
15406.63,-7.27
15560.70,-7.99
15716.30,-8.82
15873.47,-9.68
16032.20,-10.50
16192.52,-11.15
16354.45,-11.61
16517.99,-11.95
16683.17,-12.05
16850.01,-12.05
17018.51,-11.97
17188.69,-11.77
17360.58,-11.41
17534.18,-10.90
17709.53,-10.13
17886.62,-9.14
18065.49,-8.07
18246.14,-6.97
18428.60,-6.53
18612.89,-6.71
18799.02,-7.37
18987.01,-8.26
19176.88,-9.14
19368.65,-10.15
19562.33,-11.45
19757.96,-13.23
19955.54,-15.01
