frequency,raw
20.00,7.60
20.20,7.64
20.40,7.69
20.61,7.73
20.81,7.76
21.02,7.80
21.23,7.83
21.44,7.86
21.66,7.88
21.87,7.91
22.09,7.94
22.31,7.97
22.54,8.00
22.76,8.03
22.99,8.06
23.22,8.09
23.45,8.12
23.69,8.15
23.92,8.17
24.16,8.19
24.40,8.21
24.65,8.24
24.89,8.26
25.14,8.28
25.39,8.31
25.65,8.33
25.91,8.36
26.16,8.38
26.43,8.41
26.69,8.43
26.96,8.45
27.23,8.47
27.50,8.48
27.77,8.50
28.05,8.52
28.33,8.54
28.62,8.55
28.90,8.57
29.19,8.58
29.48,8.59
29.78,8.61
30.08,8.62
30.38,8.63
30.68,8.64
30.99,8.65
31.30,8.67
31.61,8.68
31.93,8.69
32.24,8.70
32.57,8.71
32.89,8.71
33.22,8.72
33.55,8.73
33.89,8.73
34.23,8.74
34.57,8.75
34.92,8.76
35.27,8.76
35.62,8.77
35.97,8.77
36.33,8.77
36.70,8.77
37.06,8.78
37.43,8.78
37.81,8.79
38.19,8.80
38.57,8.79
38.95,8.79
39.34,8.77
39.74,8.76
40.14,8.75
40.54,8.75
40.94,8.75
41.35,8.75
41.76,8.75
42.18,8.74
42.60,8.74
43.03,8.74
43.46,8.74
43.90,8.74
44.33,8.73
44.78,8.72
45.23,8.71
45.68,8.71
46.13,8.70
46.60,8.70
47.06,8.69
47.53,8.68
48.01,8.66
48.49,8.64
48.97,8.62
49.46,8.60
49.96,8.58
50.46,8.57
50.96,8.56
51.47,8.55
51.99,8.54
52.51,8.54
53.03,8.55
53.56,8.54
54.10,8.52
54.64,8.50
55.18,8.47
55.74,8.45
56.29,8.44
56.86,8.42
57.42,8.41
58.00,8.39
58.58,8.38
59.16,8.36
59.76,8.32
60.35,8.29
60.96,8.26
61.57,8.25
62.18,8.23
62.80,8.20
63.43,8.18
64.07,8.15
64.71,8.12
65.35,8.10
66.01,8.07
66.67,8.05
67.33,8.02
68.01,8.00
68.69,7.97
69.37,7.94
70.07,7.91
70.77,7.87
71.48,7.84
72.19,7.81
72.91,7.78
73.64,7.75
74.38,7.72
75.12,7.69
75.87,7.66
76.63,7.62
77.40,7.59
78.17,7.56
78.95,7.52
79.74,7.49
80.54,7.45
81.35,7.41
82.16,7.38
82.98,7.34
83.81,7.31
84.65,7.27
85.50,7.24
86.35,7.20
87.22,7.16
88.09,7.12
88.97,7.08
89.86,7.04
90.76,7.01
91.66,6.97
92.58,6.93
93.51,6.89
94.44,6.85
95.39,6.80
96.34,6.76
97.30,6.72
98.28,6.68
99.26,6.64
100.25,6.60
101.25,6.55
102.27,6.51
103.29,6.47
104.32,6.43
105.37,6.38
106.42,6.34
107.48,6.29
108.56,6.25
109.64,6.20
110.74,6.15
111.85,6.11
112.97,6.06
114.10,6.02
115.24,5.97
116.39,5.92
117.55,5.88
118.73,5.83
119.92,5.78
121.12,5.73
122.33,5.69
123.55,5.64
124.79,5.59
126.03,5.54
127.29,5.49
128.57,5.44
129.85,5.39
131.15,5.34
132.46,5.29
133.79,5.24
135.12,5.19
136.48,5.14
137.84,5.09
139.22,5.04
140.61,4.99
142.02,4.94
143.44,4.89
144.87,4.84
146.32,4.79
147.78,4.74
149.26,4.69
150.75,4.64
152.26,4.59
153.78,4.54
155.32,4.49
156.88,4.44
158.44,4.38
160.03,4.33
161.63,4.28
163.24,4.23
164.88,4.18
166.53,4.13
168.19,4.08
169.87,4.03
171.57,3.98
173.29,3.92
175.02,3.87
176.77,3.82
178.54,3.77
180.32,3.72
182.13,3.67
183.95,3.62
185.79,3.57
187.65,3.52
189.52,3.47
191.42,3.42
193.33,3.37
195.27,3.32
197.22,3.27
199.19,3.22
201.18,3.17
203.19,3.11
205.23,3.06
207.28,3.01
209.35,2.96
211.44,2.91
213.56,2.86
215.69,2.81
217.85,2.75
220.03,2.70
222.23,2.65
224.45,2.60
226.70,2.55
228.96,2.50
231.25,2.45
233.57,2.40
235.90,2.35
238.26,2.30
240.64,2.25
243.05,2.21
245.48,2.16
247.93,2.11
250.41,2.07
252.92,2.02
255.45,1.97
258.00,1.93
260.58,1.87
263.19,1.82
265.82,1.78
268.48,1.73
271.16,1.69
273.87,1.64
276.61,1.59
279.38,1.54
282.17,1.49
284.99,1.45
287.84,1.40
290.72,1.36
293.63,1.31
296.57,1.26
299.53,1.22
302.53,1.17
305.55,1.13
308.61,1.09
311.69,1.04
314.81,1.00
317.96,0.96
321.14,0.91
324.35,0.87
327.59,0.83
330.87,0.78
334.18,0.74
337.52,0.70
340.90,0.66
344.30,0.61
347.75,0.57
351.23,0.53
354.74,0.49
358.28,0.45
361.87,0.41
365.49,0.38
369.14,0.34
372.83,0.30
376.56,0.26
380.33,0.22
384.13,0.19
387.97,0.15
391.85,0.12
395.77,0.08
399.73,0.05
403.72,0.02
407.76,-0.02
411.84,-0.05
415.96,-0.08
420.12,-0.12
424.32,-0.15
428.56,-0.18
432.85,-0.21
437.18,-0.25
441.55,-0.28
445.96,-0.31
450.42,-0.34
454.93,-0.37
459.48,-0.40
464.07,-0.43
468.71,-0.45
473.40,-0.48
478.13,-0.51
482.91,-0.54
487.74,-0.57
492.62,-0.59
497.55,-0.62
502.52,-0.64
507.55,-0.66
512.62,-0.69
517.75,-0.71
522.93,-0.73
528.16,-0.76
533.44,-0.78
538.77,-0.80
544.16,-0.82
549.60,-0.84
555.10,-0.86
560.65,-0.88
566.25,-0.89
571.92,-0.91
577.64,-0.93
583.41,-0.94
589.25,-0.96
595.14,-0.97
601.09,-0.99
607.10,-1.00
613.17,-1.01
619.30,-1.02
625.50,-1.03
631.75,-1.04
638.07,-1.05
644.45,-1.06
650.89,-1.07
657.40,-1.07
663.98,-1.08
670.62,-1.08
677.32,-1.08
684.10,-1.09
690.94,-1.09
697.85,-1.09
704.83,-1.09
711.87,-1.09
718.99,-1.08
726.18,-1.08
733.44,-1.07
740.78,-1.07
748.19,-1.06
755.67,-1.05
763.23,-1.03
770.86,-1.02
778.57,-1.00
786.35,-0.98
794.22,-0.97
802.16,-0.95
810.18,-0.94
818.28,-0.92
826.46,-0.89
834.73,-0.86
843.08,-0.83
851.51,-0.79
860.02,-0.75
868.62,-0.71
877.31,-0.67
886.08,-0.63
894.94,-0.58
903.89,-0.54
912.93,-0.50
922.06,-0.46
931.28,-0.43
940.59,-0.39
950.00,-0.34
959.50,-0.27
969.09,-0.21
978.78,-0.15
988.57,-0.09
998.46,-0.01
1008.44,0.08
1018.53,0.18
1028.71,0.28
1039.00,0.38
1049.39,0.48
1059.88,0.57
1070.48,0.67
1081.19,0.78
1092.00,0.88
1102.92,0.98
1113.95,1.09
1125.09,1.19
1136.34,1.30
1147.70,1.41
1159.18,1.52
1170.77,1.62
1182.48,1.73
1194.30,1.84
1206.25,1.95
1218.31,2.06
1230.49,2.17
1242.80,2.28
1255.22,2.38
1267.78,2.48
1280.45,2.59
1293.26,2.68
1306.19,2.76
1319.25,2.84
1332.45,2.87
1345.77,2.92
1359.23,2.99
1372.82,3.13
1386.55,3.26
1400.41,3.37
1414.42,3.48
1428.56,3.59
1442.85,3.71
1457.28,3.83
1471.85,3.94
1486.57,4.06
1501.43,4.17
1516.45,4.27
1531.61,4.37
1546.93,4.48
1562.40,4.57
1578.02,4.67
1593.80,4.76
1609.74,4.85
1625.84,4.94
1642.10,5.02
1658.52,5.10
1675.10,5.17
1691.85,5.23
1708.77,5.29
1725.86,5.34
1743.12,5.38
1760.55,5.43
1778.15,5.47
1795.94,5.50
1813.90,5.52
1832.03,5.52
1850.36,5.52
1868.86,5.51
1887.55,5.49
1906.42,5.46
1925.49,5.42
1944.74,5.38
1964.19,5.33
1983.83,5.29
2003.67,5.24
2023.71,5.20
2043.94,5.17
2064.38,5.14
2085.03,5.13
2105.88,5.13
2126.94,5.14
2148.20,5.17
2169.69,5.22
2191.38,5.28
2213.30,5.35
2235.43,5.44
2257.78,5.54
2280.36,5.64
2303.17,5.76
2326.20,5.87
2349.46,5.98
2372.95,6.09
2396.68,6.19
2420.65,6.28
2444.86,6.36
2469.31,6.42
2494.00,6.47
2518.94,6.50
2544.13,6.51
2569.57,6.50
2595.27,6.48
2621.22,6.44
2647.43,6.39
2673.90,6.32
2700.64,6.24
2727.65,6.15
2754.93,6.06
2782.48,5.96
2810.30,5.86
2838.40,5.76
2866.79,5.67
2895.46,5.59
2924.41,5.50
2953.65,5.42
2983.19,5.35
3013.02,5.27
3043.15,5.20
3073.58,5.13
3104.32,5.08
3135.36,5.02
3166.72,4.98
3198.38,4.93
3230.37,4.91
3262.67,4.88
3295.30,4.87
3328.25,4.86
3361.53,4.86
3395.15,4.86
3429.10,4.88
3463.39,4.90
3498.03,4.93
3533.01,4.96
3568.34,5.01
3604.02,5.06
3640.06,5.12
3676.46,5.19
3713.22,5.26
3750.36,5.34
3787.86,5.44
3825.74,5.53
3864.00,5.64
3902.64,5.76
3941.66,5.89
3981.08,6.03
4020.89,6.18
4061.10,6.34
4101.71,6.49
4142.73,6.63
4184.15,6.75
4226.00,6.82
4268.26,6.86
4310.94,6.84
4354.05,6.73
4397.59,6.54
4441.56,6.30
4485.98,5.93
4530.84,5.50
4576.15,4.99
4621.91,4.45
4668.13,3.87
4714.81,3.31
4761.96,2.76
4809.58,2.25
4857.67,1.82
4906.25,1.47
4955.31,1.20
5004.87,1.04
5054.91,1.01
5105.46,1.06
5156.52,1.20
5208.08,1.44
5260.16,1.77
5312.77,2.14
5365.89,2.58
5419.55,3.06
5473.75,3.58
5528.49,4.12
5583.77,4.70
5639.61,5.28
5696.00,5.87
5752.96,6.45
5810.49,7.02
5868.60,7.54
5927.28,8.02
5986.56,8.43
6046.42,8.74
6106.89,8.96
6167.96,9.07
6229.64,9.08
6291.93,9.01
6354.85,8.86
6418.40,8.67
6482.58,8.42
6547.41,8.17
6612.88,7.91
6679.01,7.68
6745.80,7.46
6813.26,7.26
6881.39,7.09
6950.21,6.96
7019.71,6.87
7089.91,6.83
7160.81,6.86
7232.41,6.94
7304.74,7.07
7377.79,7.27
7451.56,7.52
7526.08,7.83
7601.34,8.19
7677.35,8.59
7754.13,9.02
7831.67,9.41
7909.98,9.74
7989.08,9.96
8068.98,9.86
8149.67,9.56
8231.16,8.99
8313.47,8.19
8396.61,7.28
8480.57,6.28
8565.38,5.24
8651.03,4.20
8737.54,3.15
8824.92,2.13
8913.17,1.13
9002.30,0.14
9092.32,-0.80
9183.25,-1.69
9275.08,-2.55
9367.83,-3.35
9461.51,-4.08
9556.12,-4.74
9651.68,-5.35
9748.20,-5.91
9845.68,-6.35
9944.14,-6.72
10043.58,-6.97
10144.02,-7.11
10245.46,-6.99
10347.91,-6.69
10451.39,-6.18
10555.91,-5.39
10661.46,-4.48
10768.08,-3.49
10875.76,-2.49
10984.52,-1.58
11094.36,-0.76
11205.31,-0.04
11317.36,0.56
11430.53,1.14
11544.84,1.73
11660.29,2.34
11776.89,2.99
11894.66,3.78
12013.60,4.58
12133.74,5.39
12255.08,6.02
12377.63,6.45
12501.41,6.39
12626.42,5.63
12752.68,4.53
12880.21,3.33
13009.01,2.11
13139.10,0.88
13270.49,-0.14
13403.20,-1.09
13537.23,-1.83
13672.60,-2.47
13809.33,-3.02
13947.42,-3.39
14086.90,-3.62
14227.77,-3.75
14370.04,-3.75
14513.74,-3.59
14658.88,-3.19
14805.47,-2.66
14953.52,-1.91
15103.06,-0.95
15254.09,0.12
15406.63,1.14
15560.70,1.74
15716.30,1.69
15873.47,0.59
16032.20,-0.85
16192.52,-2.50
16354.45,-4.02
16517.99,-5.42
16683.17,-6.58
16850.01,-7.58
17018.51,-8.46
17188.69,-9.22
17360.58,-9.96
17534.18,-10.66
17709.53,-11.30
17886.62,-11.86
18065.49,-12.38
18246.14,-12.86
18428.60,-13.29
18612.89,-13.77
18799.02,-14.29
18987.01,-14.89
19176.88,-15.83
19368.65,-17.02
19562.33,-18.59
19757.96,-20.70
19955.54,-22.80
