frequency,raw,smoothed,error,error_smoothed,equalization,parametric_eq,fixed_band_eq,equalized_raw,equalized_smoothed,target
20.00,-13.01,-13.01,-14.88,-14.88,6.00,6.26,2.83,-7.01,-7.01,1.87
20.20,-12.94,-12.94,-14.84,-14.84,6.00,6.25,2.91,-6.94,-6.94,1.90
20.40,-12.86,-12.86,-14.79,-14.79,6.00,6.25,2.99,-6.86,-6.86,1.93
20.61,-12.78,-12.78,-14.73,-14.73,6.00,6.25,3.08,-6.78,-6.78,1.95
20.81,-12.69,-12.69,-14.67,-14.67,6.00,6.25,3.17,-6.69,-6.69,1.98
21.02,-12.60,-12.60,-14.61,-14.60,6.00,6.25,3.26,-6.60,-6.60,2.01
21.23,-12.51,-12.51,-14.53,-14.53,6.00,6.25,3.35,-6.51,-6.51,2.02
21.44,-12.42,-12.42,-14.45,-14.45,6.00,6.25,3.44,-6.42,-6.42,2.03
21.66,-12.33,-12.33,-14.37,-14.37,6.00,6.24,3.54,-6.33,-6.33,2.04
21.87,-12.25,-12.24,-14.29,-14.29,6.00,6.24,3.64,-6.25,-6.24,2.04
22.09,-12.16,-12.16,-14.21,-14.20,6.00,6.24,3.75,-6.16,-6.16,2.05
22.31,-12.07,-12.07,-14.12,-14.12,6.00,6.24,3.85,-6.07,-6.07,2.05
22.54,-11.99,-11.99,-14.04,-14.03,6.00,6.24,3.96,-5.99,-5.99,2.05
22.76,-11.90,-11.90,-13.94,-13.94,6.00,6.23,4.07,-5.90,-5.90,2.05
22.99,-11.82,-11.82,-13.85,-13.86,6.00,6.23,4.19,-5.82,-5.82,2.03
23.22,-11.74,-11.74,-13.77,-13.77,6.00,6.23,4.30,-5.74,-5.74,2.03
23.45,-11.66,-11.66,-13.69,-13.69,6.00,6.23,4.42,-5.66,-5.66,2.03
23.69,-11.58,-11.58,-13.61,-13.61,6.00,6.23,4.55,-5.58,-5.58,2.03
23.92,-11.50,-11.50,-13.53,-13.54,6.00,6.22,4.67,-5.50,-5.50,2.03
24.16,-11.42,-11.42,-13.46,-13.46,6.00,6.22,4.80,-5.42,-5.42,2.04
24.40,-11.34,-11.34,-13.38,-13.37,6.00,6.22,4.93,-5.34,-5.34,2.04
24.65,-11.25,-11.25,-13.28,-13.29,6.00,6.22,5.06,-5.25,-5.25,2.03
24.89,-11.17,-11.17,-13.20,-13.20,6.00,6.21,5.19,-5.17,-5.17,2.03
25.14,-11.08,-11.08,-13.11,-13.11,6.00,6.21,5.33,-5.08,-5.08,2.03
25.39,-10.99,-10.99,-13.01,-13.02,6.00,6.21,5.46,-4.99,-4.99,2.03
25.65,-10.90,-10.90,-12.93,-12.92,6.00,6.20,5.60,-4.90,-4.90,2.03
25.91,-10.81,-10.81,-12.83,-12.82,6.00,6.20,5.74,-4.81,-4.81,2.01
26.16,-10.71,-10.71,-12.72,-12.73,6.00,6.20,5.88,-4.71,-4.71,2.01
26.43,-10.62,-10.62,-12.63,-12.63,6.00,6.20,6.01,-4.62,-4.62,2.01
26.69,-10.53,-10.53,-12.54,-12.54,6.00,6.19,6.15,-4.53,-4.53,2.01
26.96,-10.44,-10.44,-12.45,-12.45,6.00,6.19,6.29,-4.44,-4.44,2.01
27.23,-10.35,-10.35,-12.36,-12.36,6.00,6.19,6.42,-4.35,-4.35,2.01
27.50,-10.27,-10.27,-12.28,-12.27,6.00,6.18,6.55,-4.27,-4.27,2.01
27.77,-10.18,-10.18,-12.17,-12.18,6.00,6.18,6.67,-4.18,-4.18,2.00
28.05,-10.09,-10.09,-12.08,-12.08,6.00,6.18,6.80,-4.09,-4.09,1.99
28.33,-10.00,-10.00,-11.98,-11.99,6.00,6.17,6.91,-4.00,-4.00,1.98
28.62,-9.91,-9.91,-11.89,-11.89,6.00,6.17,7.02,-3.91,-3.91,1.98
28.90,-9.82,-9.82,-11.80,-11.79,6.00,6.16,7.12,-3.82,-3.82,1.98
29.19,-9.72,-9.72,-11.69,-11.70,6.00,6.16,7.22,-3.72,-3.72,1.97
29.48,-9.63,-9.63,-11.60,-11.60,6.00,6.16,7.30,-3.63,-3.63,1.98
29.78,-9.54,-9.54,-11.50,-11.51,6.00,6.15,7.38,-3.54,-3.54,1.96
30.08,-9.46,-9.46,-11.42,-11.42,6.00,6.15,7.45,-3.46,-3.46,1.96
30.38,-9.37,-9.37,-11.32,-11.32,6.00,6.14,7.51,-3.37,-3.37,1.95
30.68,-9.29,-9.29,-11.24,-11.24,6.00,6.14,7.55,-3.29,-3.29,1.95
30.99,-9.21,-9.21,-11.15,-11.15,6.00,6.13,7.59,-3.21,-3.21,1.94
31.30,-9.14,-9.14,-11.07,-11.07,6.00,6.13,7.61,-3.14,-3.14,1.93
31.61,-9.06,-9.06,-10.99,-10.99,6.00,6.12,7.63,-3.06,-3.06,1.93
31.93,-8.99,-8.99,-10.91,-10.91,6.00,6.12,7.62,-2.99,-2.99,1.92
32.24,-8.91,-8.91,-10.82,-10.82,6.00,6.11,7.62,-2.91,-2.91,1.91
32.57,-8.83,-8.83,-10.74,-10.74,6.00,6.11,7.59,-2.83,-2.83,1.90
32.89,-8.76,-8.76,-10.66,-10.65,6.00,6.10,7.57,-2.76,-2.76,1.90
33.22,-8.68,-8.68,-10.57,-10.57,6.00,6.09,7.52,-2.68,-2.68,1.89
33.55,-8.60,-8.60,-10.49,-10.49,6.00,6.09,7.48,-2.60,-2.60,1.89
33.89,-8.53,-8.53,-10.40,-10.40,6.00,6.08,7.42,-2.53,-2.53,1.87
34.23,-8.45,-8.45,-10.32,-10.32,6.00,6.07,7.35,-2.45,-2.45,1.87
34.57,-8.38,-8.38,-10.24,-10.24,6.00,6.07,7.28,-2.38,-2.38,1.86
34.92,-8.30,-8.30,-10.15,-10.15,6.00,6.06,7.21,-2.30,-2.30,1.84
35.27,-8.23,-8.23,-10.07,-10.07,6.00,6.05,7.13,-2.23,-2.23,1.84
35.62,-8.16,-8.16,-9.99,-9.99,6.00,6.04,7.04,-2.16,-2.16,1.83
35.97,-8.09,-8.09,-9.90,-9.91,6.00,6.04,6.95,-2.09,-2.09,1.81
36.33,-8.02,-8.02,-9.83,-9.83,6.00,6.03,6.86,-2.02,-2.02,1.81
36.70,-7.95,-7.95,-9.75,-9.75,6.00,6.02,6.77,-1.95,-1.95,1.80
37.06,-7.88,-7.88,-9.66,-9.67,6.00,6.01,6.68,-1.88,-1.88,1.78
37.43,-7.81,-7.81,-9.59,-9.58,6.00,6.00,6.59,-1.81,-1.81,1.78
37.81,-7.74,-7.74,-9.50,-9.50,6.00,5.99,6.50,-1.74,-1.74,1.76
38.19,-7.67,-7.67,-9.42,-9.42,6.00,5.98,6.41,-1.67,-1.67,1.75
38.57,-7.60,-7.60,-9.34,-9.34,6.00,5.97,6.32,-1.60,-1.60,1.74
38.95,-7.54,-7.54,-9.27,-9.26,6.00,5.96,6.24,-1.54,-1.54,1.73
39.34,-7.47,-7.47,-9.18,-9.18,6.00,5.95,6.15,-1.47,-1.47,1.71
39.74,-7.40,-7.40,-9.10,-9.10,6.00,5.94,6.07,-1.40,-1.40,1.70
40.14,-7.33,-7.33,-9.02,-9.02,6.00,5.93,5.99,-1.33,-1.33,1.69
40.54,-7.27,-7.27,-8.95,-8.95,6.00,5.92,5.92,-1.27,-1.27,1.68
40.94,-7.20,-7.20,-8.87,-8.87,6.00,5.91,5.84,-1.20,-1.20,1.67
41.35,-7.13,-7.13,-8.79,-8.79,6.00,5.90,5.78,-1.13,-1.13,1.66
41.76,-7.07,-7.07,-8.72,-8.72,6.00,5.88,5.71,-1.07,-1.07,1.65
42.18,-7.00,-7.00,-8.64,-8.64,6.00,5.87,5.65,-1.00,-1.00,1.64
42.60,-6.93,-6.93,-8.56,-8.56,6.00,5.86,5.59,-0.93,-0.93,1.63
43.03,-6.86,-6.86,-8.48,-8.47,6.00,5.84,5.54,-0.86,-0.86,1.62
43.46,-6.78,-6.78,-8.38,-8.38,6.00,5.83,5.49,-0.78,-0.78,1.60
43.90,-6.71,-6.71,-8.29,-8.29,6.00,5.81,5.45,-0.71,-0.71,1.58
44.33,-6.64,-6.64,-8.20,-8.19,6.00,5.80,5.41,-0.64,-0.64,1.56
44.78,-6.56,-6.56,-8.10,-8.10,6.00,5.78,5.37,-0.56,-0.56,1.54
45.23,-6.49,-6.49,-8.01,-8.01,6.00,5.76,5.34,-0.49,-0.49,1.52
45.68,-6.41,-6.41,-7.91,-7.92,6.00,5.75,5.31,-0.41,-0.41,1.50
46.13,-6.34,-6.34,-7.82,-7.82,6.00,5.73,5.29,-0.34,-0.34,1.48
46.60,-6.26,-6.26,-7.73,-7.73,6.00,5.71,5.27,-0.26,-0.26,1.47
47.06,-6.19,-6.19,-7.64,-7.64,6.00,5.69,5.25,-0.19,-0.19,1.45
47.53,-6.11,-6.11,-7.54,-7.55,6.00,5.67,5.24,-0.11,-0.11,1.43
48.01,-6.04,-6.04,-7.46,-7.46,6.00,5.65,5.23,-0.04,-0.04,1.42
48.49,-5.96,-5.96,-7.35,-7.36,6.00,5.63,5.22,0.04,0.04,1.39
48.97,-5.89,-5.89,-7.25,-7.25,6.00,5.61,5.22,0.11,0.11,1.36
49.46,-5.81,-5.81,-7.14,-7.14,6.00,5.59,5.22,0.19,0.19,1.33
49.96,-5.74,-5.74,-7.04,-7.04,6.00,5.56,5.22,0.26,0.26,1.30
50.46,-5.66,-5.66,-6.95,-6.95,6.00,5.54,5.23,0.34,0.34,1.29
50.96,-5.59,-5.59,-6.85,-6.85,6.00,5.51,5.24,0.41,0.41,1.26
51.47,-5.51,-5.51,-6.74,-6.75,6.00,5.49,5.25,0.49,0.49,1.23
51.99,-5.43,-5.43,-6.64,-6.65,6.00,5.46,5.26,0.57,0.57,1.21
52.51,-5.36,-5.36,-6.55,-6.55,6.01,5.43,5.27,0.65,0.65,1.19
53.03,-5.28,-5.28,-6.45,-6.45,6.02,5.41,5.29,0.74,0.74,1.17
53.56,-5.20,-5.20,-6.34,-6.35,6.02,5.38,5.30,0.82,0.82,1.14
54.10,-5.12,-5.12,-6.24,-6.24,6.01,5.35,5.31,0.89,0.88,1.12
54.64,-5.05,-5.05,-6.14,-6.14,5.98,5.32,5.33,0.93,0.94,1.09
55.18,-4.97,-4.97,-6.04,-6.04,5.95,5.28,5.34,0.98,0.98,1.07
55.74,-4.90,-4.90,-5.94,-5.94,5.90,5.25,5.35,1.00,1.00,1.04
56.29,-4.82,-4.82,-5.84,-5.84,5.83,5.22,5.36,1.01,1.01,1.02
56.86,-4.75,-4.75,-5.74,-5.74,5.76,5.18,5.37,1.00,1.00,0.99
57.42,-4.68,-4.68,-5.64,-5.64,5.67,5.14,5.38,0.99,0.99,0.97
58.00,-4.60,-4.60,-5.55,-5.55,5.57,5.10,5.38,0.97,0.97,0.95
58.58,-4.53,-4.53,-5.46,-5.46,5.47,5.07,5.38,0.94,0.94,0.93
59.16,-4.46,-4.46,-5.37,-5.36,5.37,5.02,5.37,0.91,0.91,0.91
59.76,-4.39,-4.39,-5.27,-5.27,5.27,4.98,5.36,0.88,0.88,0.88
60.35,-4.32,-4.32,-5.17,-5.18,5.17,4.94,5.34,0.85,0.85,0.85
60.96,-4.25,-4.25,-5.08,-5.08,5.07,4.90,5.32,0.82,0.82,0.83
61.57,-4.19,-4.19,-4.98,-4.98,4.98,4.85,5.30,0.79,0.79,0.79
62.18,-4.12,-4.12,-4.87,-4.88,4.88,4.80,5.27,0.76,0.76,0.75
62.80,-4.06,-4.06,-4.79,-4.78,4.79,4.75,5.23,0.73,0.73,0.73
63.43,-3.99,-3.99,-4.68,-4.69,4.69,4.70,5.19,0.70,0.70,0.69
64.07,-3.93,-3.93,-4.60,-4.60,4.60,4.65,5.14,0.67,0.67,0.67
64.71,-3.87,-3.87,-4.51,-4.51,4.51,4.60,5.08,0.64,0.64,0.64
65.35,-3.81,-3.81,-4.42,-4.42,4.42,4.54,5.02,0.61,0.61,0.61
66.01,-3.75,-3.75,-4.34,-4.33,4.33,4.48,4.96,0.58,0.58,0.59
66.67,-3.69,-3.69,-4.25,-4.25,4.25,4.43,4.89,0.56,0.56,0.56
67.33,-3.63,-3.63,-4.16,-4.16,4.16,4.37,4.82,0.53,0.53,0.53
68.01,-3.58,-3.58,-4.08,-4.08,4.08,4.30,4.74,0.50,0.50,0.50
68.69,-3.53,-3.53,-4.00,-3.99,4.00,4.24,4.65,0.47,0.47,0.47
69.37,-3.48,-3.48,-3.91,-3.91,3.91,4.17,4.57,0.43,0.43,0.43
70.07,-3.43,-3.43,-3.83,-3.83,3.83,4.11,4.48,0.40,0.40,0.40
70.77,-3.38,-3.38,-3.76,-3.75,3.75,4.04,4.39,0.37,0.37,0.38
71.48,-3.33,-3.33,-3.67,-3.67,3.67,3.97,4.29,0.34,0.34,0.34
72.19,-3.29,-3.29,-3.60,-3.59,3.59,3.89,4.20,0.30,0.31,0.31
72.91,-3.24,-3.24,-3.51,-3.51,3.52,3.82,4.10,0.28,0.27,0.27
73.64,-3.20,-3.20,-3.43,-3.44,3.44,3.74,4.00,0.24,0.24,0.23
74.38,-3.16,-3.16,-3.37,-3.36,3.36,3.67,3.90,0.20,0.21,0.21
75.12,-3.12,-3.12,-3.29,-3.29,3.29,3.59,3.80,0.17,0.17,0.17
75.87,-3.08,-3.08,-3.22,-3.22,3.22,3.51,3.70,0.14,0.14,0.14
76.63,-3.04,-3.04,-3.15,-3.15,3.15,3.43,3.60,0.11,0.10,0.11
77.40,-3.01,-3.01,-3.09,-3.08,3.08,3.34,3.50,0.07,0.07,0.08
78.17,-2.97,-2.97,-3.01,-3.01,3.01,3.26,3.40,0.04,0.04,0.04
78.95,-2.93,-2.93,-2.94,-2.94,2.95,3.17,3.31,0.02,0.01,0.01
79.74,-2.90,-2.90,-2.88,-2.88,2.88,3.09,3.21,-0.02,-0.02,-0.02
80.54,-2.87,-2.87,-2.82,-2.81,2.81,3.00,3.11,-0.06,-0.06,-0.05
81.35,-2.84,-2.84,-2.75,-2.75,2.75,2.91,3.02,-0.09,-0.09,-0.09
82.16,-2.81,-2.81,-2.69,-2.69,2.69,2.82,2.92,-0.12,-0.12,-0.12
82.98,-2.78,-2.78,-2.63,-2.62,2.62,2.74,2.83,-0.16,-0.16,-0.15
83.81,-2.75,-2.75,-2.55,-2.56,2.56,2.65,2.74,-0.19,-0.19,-0.20
84.65,-2.73,-2.73,-2.49,-2.50,2.50,2.56,2.65,-0.23,-0.23,-0.24
85.50,-2.71,-2.71,-2.45,-2.44,2.44,2.47,2.56,-0.27,-0.27,-0.26
86.35,-2.69,-2.69,-2.39,-2.38,2.38,2.39,2.48,-0.31,-0.31,-0.30
87.22,-2.66,-2.67,-2.32,-2.32,2.32,2.30,2.39,-0.34,-0.34,-0.34
88.09,-2.65,-2.65,-2.27,-2.27,2.27,2.22,2.31,-0.38,-0.38,-0.38
88.97,-2.63,-2.63,-2.22,-2.21,2.21,2.14,2.23,-0.42,-0.42,-0.42
89.86,-2.61,-2.61,-2.15,-2.15,2.15,2.05,2.15,-0.46,-0.46,-0.46
90.76,-2.60,-2.60,-2.09,-2.10,2.10,1.98,2.07,-0.50,-0.50,-0.51
91.66,-2.59,-2.59,-2.05,-2.04,2.04,1.90,1.99,-0.55,-0.55,-0.54
92.58,-2.58,-2.58,-1.99,-1.99,1.99,1.83,1.92,-0.59,-0.59,-0.59
93.51,-2.57,-2.57,-1.94,-1.94,1.94,1.76,1.84,-0.63,-0.63,-0.63
94.44,-2.56,-2.56,-1.89,-1.89,1.89,1.69,1.77,-0.67,-0.67,-0.67
95.39,-2.55,-2.55,-1.83,-1.83,1.83,1.63,1.70,-0.72,-0.72,-0.72
96.34,-2.55,-2.55,-1.78,-1.78,1.78,1.57,1.63,-0.77,-0.77,-0.77
97.30,-2.55,-2.55,-1.73,-1.73,1.74,1.51,1.56,-0.81,-0.81,-0.82
98.28,-2.55,-2.55,-1.69,-1.69,1.69,1.46,1.50,-0.86,-0.86,-0.86
99.26,-2.55,-2.55,-1.64,-1.64,1.64,1.41,1.44,-0.91,-0.91,-0.91
100.25,-2.55,-2.55,-1.60,-1.60,1.59,1.36,1.37,-0.96,-0.96,-0.95
101.25,-2.55,-2.55,-1.55,-1.55,1.55,1.32,1.31,-1.00,-1.00,-1.00
102.27,-2.55,-2.55,-1.50,-1.50,1.51,1.28,1.26,-1.04,-1.05,-1.05
103.29,-2.56,-2.56,-1.46,-1.46,1.47,1.25,1.20,-1.09,-1.09,-1.10
104.32,-2.56,-2.56,-1.42,-1.42,1.42,1.21,1.14,-1.14,-1.14,-1.14
105.37,-2.57,-2.57,-1.39,-1.39,1.38,1.18,1.09,-1.19,-1.19,-1.18
106.42,-2.58,-2.58,-1.35,-1.35,1.35,1.16,1.04,-1.23,-1.23,-1.23
107.48,-2.59,-2.59,-1.31,-1.31,1.31,1.13,0.99,-1.28,-1.28,-1.28
108.56,-2.60,-2.60,-1.27,-1.27,1.27,1.11,0.94,-1.33,-1.33,-1.33
109.64,-2.61,-2.61,-1.23,-1.23,1.23,1.09,0.89,-1.38,-1.38,-1.38
110.74,-2.62,-2.62,-1.19,-1.19,1.19,1.07,0.85,-1.43,-1.43,-1.43
111.85,-2.63,-2.63,-1.16,-1.16,1.16,1.06,0.81,-1.47,-1.48,-1.47
112.97,-2.65,-2.65,-1.11,-1.12,1.12,1.04,0.77,-1.53,-1.53,-1.54
114.10,-2.66,-2.66,-1.08,-1.08,1.08,1.03,0.73,-1.58,-1.59,-1.58
115.24,-2.68,-2.68,-1.04,-1.04,1.04,1.02,0.70,-1.64,-1.64,-1.64
116.39,-2.70,-2.70,-1.01,-1.00,1.00,1.01,0.66,-1.70,-1.69,-1.69
117.55,-2.71,-2.71,-0.97,-0.97,0.97,1.00,0.63,-1.74,-1.74,-1.74
118.73,-2.73,-2.73,-0.93,-0.94,0.94,0.99,0.60,-1.79,-1.79,-1.80
119.92,-2.75,-2.75,-0.91,-0.91,0.91,0.98,0.58,-1.84,-1.84,-1.84
121.12,-2.78,-2.78,-0.89,-0.88,0.88,0.97,0.56,-1.90,-1.89,-1.89
122.33,-2.80,-2.80,-0.85,-0.86,0.86,0.96,0.54,-1.94,-1.94,-1.95
123.55,-2.83,-2.83,-0.84,-0.84,0.83,0.95,0.52,-2.00,-2.00,-1.99
124.79,-2.86,-2.86,-0.82,-0.82,0.81,0.95,0.51,-2.05,-2.05,-2.04
126.03,-2.88,-2.88,-0.79,-0.79,0.79,0.94,0.49,-2.09,-2.10,-2.09
127.29,-2.91,-2.91,-0.77,-0.77,0.77,0.93,0.49,-2.14,-2.14,-2.14
128.57,-2.94,-2.94,-0.74,-0.74,0.75,0.93,0.48,-2.19,-2.19,-2.20
129.85,-2.97,-2.97,-0.72,-0.72,0.73,0.92,0.48,-2.24,-2.24,-2.25
131.15,-3.00,-3.00,-0.70,-0.70,0.71,0.91,0.47,-2.29,-2.29,-2.30
132.46,-3.03,-3.03,-0.69,-0.69,0.69,0.91,0.48,-2.34,-2.34,-2.34
133.79,-3.07,-3.07,-0.69,-0.68,0.68,0.90,0.48,-2.39,-2.39,-2.38
135.12,-3.10,-3.10,-0.66,-0.67,0.67,0.90,0.49,-2.43,-2.43,-2.44
136.48,-3.13,-3.13,-0.66,-0.66,0.66,0.89,0.49,-2.47,-2.48,-2.47
137.84,-3.17,-3.17,-0.65,-0.65,0.65,0.89,0.51,-2.52,-2.52,-2.52
139.22,-3.21,-3.21,-0.64,-0.64,0.65,0.89,0.52,-2.56,-2.56,-2.57
140.61,-3.25,-3.25,-0.64,-0.64,0.64,0.88,0.53,-2.61,-2.60,-2.61
142.02,-3.28,-3.28,-0.65,-0.64,0.64,0.88,0.55,-2.64,-2.64,-2.63
143.44,-3.32,-3.32,-0.64,-0.65,0.65,0.88,0.57,-2.67,-2.68,-2.68
144.87,-3.37,-3.36,-0.65,-0.65,0.65,0.87,0.59,-2.72,-2.71,-2.72
146.32,-3.41,-3.41,-0.65,-0.66,0.66,0.87,0.61,-2.75,-2.75,-2.76
147.78,-3.45,-3.45,-0.67,-0.67,0.66,0.87,0.63,-2.79,-2.79,-2.78
149.26,-3.50,-3.50,-0.68,-0.67,0.67,0.87,0.66,-2.83,-2.83,-2.82
150.75,-3.55,-3.54,-0.68,-0.68,0.68,0.87,0.68,-2.87,-2.86,-2.87
152.26,-3.59,-3.59,-0.68,-0.69,0.69,0.88,0.71,-2.90,-2.90,-2.91
153.78,-3.64,-3.64,-0.70,-0.70,0.70,0.88,0.74,-2.94,-2.94,-2.94
155.32,-3.70,-3.69,-0.71,-0.71,0.71,0.88,0.77,-2.99,-2.98,-2.99
156.88,-3.75,-3.75,-0.73,-0.73,0.72,0.88,0.80,-3.03,-3.02,-3.02
158.44,-3.80,-3.80,-0.74,-0.74,0.74,0.89,0.84,-3.06,-3.06,-3.06
160.03,-3.86,-3.86,-0.75,-0.75,0.76,0.90,0.87,-3.10,-3.10,-3.11
161.63,-3.92,-3.92,-0.77,-0.77,0.78,0.90,0.91,-3.14,-3.14,-3.15
163.24,-3.98,-3.98,-0.79,-0.80,0.80,0.91,0.94,-3.18,-3.18,-3.19
164.88,-4.04,-4.04,-0.82,-0.82,0.82,0.92,0.98,-3.22,-3.22,-3.22
166.53,-4.10,-4.10,-0.84,-0.85,0.85,0.93,1.02,-3.25,-3.26,-3.26
168.19,-4.17,-4.17,-0.88,-0.88,0.88,0.95,1.06,-3.29,-3.29,-3.29
169.87,-4.24,-4.24,-0.91,-0.91,0.91,0.96,1.10,-3.33,-3.33,-3.33
171.57,-4.31,-4.31,-0.94,-0.94,0.94,0.97,1.14,-3.37,-3.37,-3.37
173.29,-4.38,-4.38,-0.97,-0.98,0.98,0.99,1.18,-3.40,-3.41,-3.41
175.02,-4.46,-4.46,-1.02,-1.01,1.01,1.01,1.22,-3.45,-3.45,-3.44
176.77,-4.53,-4.53,-1.04,-1.05,1.05,1.03,1.27,-3.48,-3.48,-3.49
178.54,-4.61,-4.61,-1.08,-1.08,1.08,1.05,1.31,-3.53,-3.52,-3.53
180.32,-4.68,-4.68,-1.12,-1.12,1.12,1.07,1.36,-3.56,-3.56,-3.56
182.13,-4.76,-4.76,-1.16,-1.16,1.16,1.09,1.41,-3.60,-3.60,-3.60
183.95,-4.83,-4.83,-1.19,-1.20,1.19,1.12,1.45,-3.64,-3.64,-3.64
185.79,-4.90,-4.90,-1.23,-1.23,1.23,1.14,1.50,-3.67,-3.67,-3.67
187.65,-4.97,-4.97,-1.26,-1.26,1.27,1.17,1.55,-3.70,-3.71,-3.71
189.52,-5.04,-5.04,-1.30,-1.30,1.30,1.20,1.60,-3.74,-3.74,-3.74
191.42,-5.11,-5.11,-1.34,-1.34,1.34,1.23,1.65,-3.77,-3.77,-3.77
193.33,-5.17,-5.17,-1.37,-1.38,1.37,1.26,1.70,-3.80,-3.80,-3.80
195.27,-5.24,-5.24,-1.41,-1.41,1.41,1.30,1.75,-3.83,-3.83,-3.83
197.22,-5.30,-5.30,-1.45,-1.45,1.45,1.33,1.81,-3.85,-3.85,-3.85
199.19,-5.37,-5.37,-1.48,-1.48,1.49,1.37,1.86,-3.88,-3.88,-3.89
201.18,-5.43,-5.43,-1.52,-1.52,1.52,1.41,1.91,-3.91,-3.90,-3.91
203.19,-5.49,-5.49,-1.57,-1.56,1.56,1.44,1.96,-3.93,-3.93,-3.92
205.23,-5.55,-5.55,-1.60,-1.61,1.60,1.49,2.01,-3.95,-3.95,-3.95
207.28,-5.61,-5.61,-1.66,-1.65,1.64,1.53,2.07,-3.97,-3.96,-3.95
209.35,-5.66,-5.66,-1.68,-1.68,1.68,1.57,2.12,-3.98,-3.98,-3.98
211.44,-5.72,-5.72,-1.72,-1.72,1.72,1.61,2.17,-4.00,-3.99,-4.00
213.56,-5.77,-5.77,-1.76,-1.76,1.76,1.66,2.21,-4.01,-4.01,-4.01
215.69,-5.82,-5.82,-1.81,-1.81,1.80,1.70,2.26,-4.02,-4.02,-4.01
217.85,-5.87,-5.87,-1.85,-1.85,1.85,1.75,2.30,-4.02,-4.02,-4.02
220.03,-5.92,-5.92,-1.89,-1.89,1.89,1.80,2.35,-4.03,-4.03,-4.03
222.23,-5.97,-5.97,-1.92,-1.93,1.93,1.84,2.39,-4.04,-4.04,-4.05
224.45,-6.01,-6.01,-1.97,-1.97,1.97,1.89,2.42,-4.04,-4.04,-4.04
226.70,-6.06,-6.06,-2.02,-2.02,2.02,1.93,2.46,-4.04,-4.04,-4.04
228.96,-6.10,-6.10,-2.06,-2.06,2.06,1.98,2.49,-4.04,-4.04,-4.04
231.25,-6.14,-6.14,-2.11,-2.10,2.10,2.02,2.51,-4.04,-4.04,-4.03
233.57,-6.17,-6.17,-2.14,-2.14,2.14,2.06,2.54,-4.03,-4.03,-4.03
235.90,-6.20,-6.20,-2.17,-2.17,2.17,2.10,2.56,-4.03,-4.03,-4.03
238.26,-6.23,-6.23,-2.20,-2.20,2.21,2.14,2.57,-4.02,-4.02,-4.03
240.64,-6.26,-6.26,-2.24,-2.24,2.24,2.18,2.58,-4.02,-4.02,-4.02
243.05,-6.28,-6.28,-2.27,-2.27,2.27,2.22,2.58,-4.01,-4.01,-4.01
245.48,-6.30,-6.30,-2.30,-2.30,2.30,2.25,2.58,-4.00,-4.00,-4.00
247.93,-6.31,-6.31,-2.33,-2.32,2.33,2.27,2.57,-3.98,-3.99,-3.98
250.41,-6.32,-6.32,-2.34,-2.35,2.35,2.30,2.56,-3.97,-3.97,-3.98
252.92,-6.33,-6.33,-2.37,-2.37,2.37,2.32,2.54,-3.96,-3.96,-3.96
255.45,-6.33,-6.33,-2.39,-2.39,2.39,2.33,2.52,-3.94,-3.94,-3.94
258.00,-6.33,-6.33,-2.41,-2.41,2.40,2.34,2.49,-3.93,-3.93,-3.92
260.58,-6.32,-6.32,-2.41,-2.41,2.41,2.35,2.45,-3.91,-3.91,-3.91
263.19,-6.30,-6.30,-2.41,-2.41,2.42,2.35,2.41,-3.88,-3.89,-3.89
265.82,-6.28,-6.28,-2.41,-2.41,2.42,2.34,2.37,-3.86,-3.87,-3.87
268.48,-6.26,-6.26,-2.41,-2.41,2.41,2.33,2.32,-3.85,-3.85,-3.85
271.16,-6.23,-6.23,-2.40,-2.40,2.40,2.32,2.26,-3.83,-3.83,-3.83
273.87,-6.19,-6.19,-2.38,-2.38,2.38,2.29,2.21,-3.81,-3.82,-3.81
276.61,-6.15,-6.15,-2.36,-2.36,2.35,2.26,2.14,-3.80,-3.79,-3.79
279.38,-6.09,-6.09,-2.32,-2.32,2.32,2.23,2.08,-3.77,-3.77,-3.77
282.17,-6.03,-6.03,-2.27,-2.28,2.28,2.19,2.01,-3.75,-3.75,-3.76
284.99,-5.97,-5.97,-2.24,-2.23,2.24,2.14,1.94,-3.73,-3.73,-3.73
287.84,-5.90,-5.90,-2.18,-2.18,2.19,2.09,1.86,-3.71,-3.71,-3.72
290.72,-5.82,-5.82,-2.13,-2.13,2.13,2.03,1.78,-3.69,-3.70,-3.69
293.63,-5.74,-5.74,-2.06,-2.06,2.06,1.97,1.70,-3.68,-3.68,-3.68
296.57,-5.64,-5.64,-1.99,-1.99,1.98,1.91,1.62,-3.66,-3.66,-3.65
299.53,-5.53,-5.53,-1.90,-1.90,1.89,1.83,1.54,-3.64,-3.64,-3.63
302.53,-5.42,-5.41,-1.80,-1.80,1.79,1.76,1.45,-3.63,-3.62,-3.62
305.55,-5.28,-5.28,-1.70,-1.69,1.69,1.68,1.37,-3.59,-3.60,-3.58
308.61,-5.14,-5.14,-1.57,-1.58,1.57,1.60,1.28,-3.57,-3.57,-3.57
311.69,-4.99,-4.99,-1.45,-1.46,1.45,1.51,1.19,-3.54,-3.54,-3.54
314.81,-4.84,-4.84,-1.34,-1.33,1.33,1.42,1.10,-3.51,-3.51,-3.50
317.96,-4.69,-4.69,-1.20,-1.20,1.21,1.33,1.01,-3.48,-3.48,-3.49
321.14,-4.55,-4.55,-1.08,-1.09,1.10,1.24,0.92,-3.45,-3.46,-3.47
324.35,-4.43,-4.43,-0.98,-0.98,0.99,1.15,0.83,-3.44,-3.44,-3.45
327.59,-4.32,-4.32,-0.90,-0.89,0.90,1.05,0.74,-3.42,-3.42,-3.42
330.87,-4.22,-4.22,-0.81,-0.81,0.82,0.96,0.65,-3.40,-3.40,-3.41
334.18,-4.13,-4.13,-0.74,-0.74,0.75,0.86,0.56,-3.38,-3.39,-3.39
337.52,-4.05,-4.05,-0.68,-0.68,0.68,0.76,0.47,-3.37,-3.37,-3.37
340.90,-3.99,-3.99,-0.64,-0.64,0.63,0.66,0.38,-3.36,-3.35,-3.35
344.30,-3.92,-3.92,-0.59,-0.60,0.59,0.57,0.29,-3.33,-3.33,-3.33
347.75,-3.87,-3.86,-0.56,-0.55,0.56,0.47,0.20,-3.31,-3.31,-3.31
351.23,-3.81,-3.81,-0.52,-0.52,0.53,0.37,0.11,-3.28,-3.28,-3.29
354.74,-3.76,-3.77,-0.49,-0.50,0.50,0.28,0.02,-3.26,-3.27,-3.27
358.28,-3.74,-3.74,-0.48,-0.48,0.48,0.18,-0.07,-3.26,-3.26,-3.26
361.87,-3.71,-3.71,-0.47,-0.46,0.46,0.09,-0.16,-3.25,-3.25,-3.24
365.49,-3.67,-3.67,-0.44,-0.44,0.43,-0.01,-0.25,-3.24,-3.24,-3.23
369.14,-3.63,-3.63,-0.41,-0.41,0.41,-0.10,-0.34,-3.22,-3.22,-3.22
372.83,-3.58,-3.58,-0.38,-0.38,0.37,-0.19,-0.43,-3.21,-3.21,-3.20
376.56,-3.53,-3.53,-0.33,-0.34,0.34,-0.28,-0.52,-3.19,-3.19,-3.20
380.33,-3.47,-3.47,-0.30,-0.29,0.29,-0.37,-0.61,-3.18,-3.18,-3.17
384.13,-3.40,-3.40,-0.24,-0.24,0.24,-0.45,-0.70,-3.16,-3.16,-3.16
387.97,-3.33,-3.33,-0.18,-0.18,0.18,-0.54,-0.79,-3.15,-3.15,-3.15
391.85,-3.25,-3.25,-0.11,-0.11,0.11,-0.62,-0.88,-3.14,-3.14,-3.14
395.77,-3.17,-3.17,-0.05,-0.04,0.04,-0.71,-0.97,-3.13,-3.13,-3.12
399.73,-3.07,-3.07,0.05,0.04,-0.04,-0.79,-1.06,-3.11,-3.12,-3.12
403.72,-2.97,-2.97,0.14,0.14,-0.14,-0.87,-1.15,-3.11,-3.11,-3.11
407.76,-2.86,-2.86,0.24,0.24,-0.24,-0.95,-1.23,-3.10,-3.09,-3.10
411.84,-2.74,-2.74,0.34,0.34,-0.34,-1.02,-1.32,-3.08,-3.09,-3.08
415.96,-2.62,-2.62,0.45,0.45,-0.46,-1.10,-1.41,-3.08,-3.08,-3.07
420.12,-2.48,-2.48,0.58,0.58,-0.59,-1.17,-1.49,-3.07,-3.07,-3.06
424.32,-2.34,-2.34,0.71,0.71,-0.72,-1.25,-1.57,-3.06,-3.06,-3.05
428.56,-2.19,-2.19,0.85,0.85,-0.86,-1.32,-1.65,-3.05,-3.05,-3.04
432.85,-2.04,-2.04,0.99,1.00,-1.00,-1.39,-1.73,-3.04,-3.04,-3.04
437.18,-1.88,-1.87,1.15,1.15,-1.15,-1.46,-1.81,-3.03,-3.02,-3.03
441.55,-1.71,-1.71,1.30,1.30,-1.29,-1.53,-1.88,-3.00,-3.00,-3.01
445.96,-1.54,-1.55,1.46,1.45,-1.43,-1.60,-1.96,-2.97,-2.98,-3.00
