frequency,raw,error,smoothed,error_smoothed,equalization,parametric_eq,fixed_band_eq,equalized_raw,equalized_smoothed,target
20.00,-11.05,-12.28,-11.09,-12.32,6.00,5.32,2.67,-5.05,-5.09,1.23
20.20,-10.93,-12.16,-10.94,-12.17,6.00,5.38,2.75,-4.93,-4.94,1.23
20.40,-10.81,-12.04,-10.80,-12.03,6.00,5.43,2.83,-4.81,-4.80,1.23
20.61,-10.69,-11.92,-10.66,-11.88,6.00,5.49,2.91,-4.69,-4.66,1.23
20.81,-10.55,-11.77,-10.52,-11.74,6.00,5.54,3.00,-4.55,-4.52,1.22
21.02,-10.41,-11.63,-10.38,-11.60,6.00,5.60,3.08,-4.41,-4.38,1.22
21.23,-10.28,-11.50,-10.25,-11.47,6.00,5.65,3.17,-4.28,-4.25,1.22
21.44,-10.13,-11.35,-10.12,-11.33,6.00,5.70,3.27,-4.13,-4.12,1.23
21.66,-9.99,-11.21,-9.99,-11.20,6.00,5.75,3.36,-3.99,-3.99,1.22
21.87,-9.83,-11.05,-9.86,-11.07,6.00,5.80,3.46,-3.83,-3.86,1.22
22.09,-9.71,-10.91,-9.74,-10.94,6.00,5.85,3.56,-3.71,-3.74,1.21
22.31,-9.59,-10.79,-9.61,-10.82,6.00,5.89,3.66,-3.59,-3.61,1.21
22.54,-9.47,-10.67,-9.49,-10.69,6.00,5.94,3.77,-3.47,-3.49,1.20
22.76,-9.36,-10.55,-9.38,-10.57,6.00,5.98,3.87,-3.36,-3.38,1.20
22.99,-9.26,-10.45,-9.27,-10.46,6.00,6.02,3.99,-3.26,-3.27,1.20
23.22,-9.16,-10.34,-9.16,-10.34,6.00,6.06,4.10,-3.16,-3.16,1.18
23.45,-9.06,-10.24,-9.05,-10.23,6.00,6.10,4.21,-3.06,-3.05,1.18
23.69,-8.96,-10.13,-8.94,-10.12,6.00,6.13,4.33,-2.96,-2.94,1.17
23.92,-8.86,-10.02,-8.84,-10.01,6.00,6.17,4.45,-2.86,-2.84,1.16
24.16,-8.75,-9.91,-8.73,-9.90,6.00,6.20,4.58,-2.75,-2.73,1.16
24.40,-8.65,-9.81,-8.63,-9.79,6.00,6.23,4.70,-2.65,-2.63,1.16
24.65,-8.53,-9.69,-8.52,-9.68,6.00,6.25,4.83,-2.53,-2.52,1.16
24.89,-8.41,-9.57,-8.41,-9.56,6.00,6.27,4.96,-2.41,-2.41,1.16
25.14,-8.30,-9.45,-8.29,-9.45,6.00,6.29,5.09,-2.30,-2.29,1.16
25.39,-8.17,-9.32,-8.18,-9.33,6.00,6.31,5.22,-2.17,-2.18,1.15
25.65,-8.06,-9.21,-8.06,-9.22,6.00,6.33,5.35,-2.06,-2.06,1.15
25.91,-7.94,-9.09,-7.95,-9.10,6.00,6.34,5.48,-1.94,-1.95,1.15
26.16,-7.82,-8.97,-7.83,-8.98,6.00,6.35,5.61,-1.82,-1.83,1.16
26.43,-7.71,-8.86,-7.71,-8.86,6.00,6.35,5.74,-1.71,-1.71,1.15
26.69,-7.59,-8.74,-7.59,-8.74,6.00,6.35,5.87,-1.59,-1.59,1.15
26.96,-7.47,-8.62,-7.47,-8.62,6.00,6.35,6.00,-1.47,-1.47,1.15
27.23,-7.35,-8.50,-7.35,-8.50,6.00,6.34,6.12,-1.35,-1.35,1.15
27.50,-7.24,-8.39,-7.23,-8.38,6.00,6.33,6.24,-1.24,-1.23,1.15
27.77,-7.12,-8.27,-7.10,-8.25,6.00,6.32,6.36,-1.12,-1.10,1.16
28.05,-6.99,-8.13,-6.98,-8.13,6.00,6.30,6.47,-0.99,-0.98,1.15
28.33,-6.87,-8.01,-6.86,-8.00,6.00,6.28,6.57,-0.87,-0.86,1.15
28.62,-6.74,-7.87,-6.73,-7.87,6.00,6.26,6.67,-0.74,-0.73,1.14
28.90,-6.61,-7.75,-6.61,-7.75,6.00,6.23,6.75,-0.61,-0.61,1.14
29.19,-6.48,-7.61,-6.49,-7.62,6.00,6.20,6.83,-0.48,-0.49,1.13
29.48,-6.36,-7.48,-6.36,-7.49,6.00,6.16,6.90,-0.36,-0.36,1.12
29.78,-6.23,-7.35,-6.24,-7.36,6.00,6.12,6.96,-0.23,-0.24,1.12
30.08,-6.11,-7.23,-6.12,-7.24,6.00,6.08,7.00,-0.11,-0.12,1.12
30.38,-5.99,-7.10,-6.00,-7.11,6.00,6.03,7.03,0.01,0.00,1.11
30.68,-5.88,-6.98,-5.88,-6.99,6.00,5.98,7.05,0.12,0.12,1.10
30.99,-5.76,-6.86,-5.76,-6.86,6.00,5.92,7.06,0.24,0.24,1.10
31.30,-5.65,-6.75,-5.64,-6.74,6.00,5.87,7.05,0.35,0.36,1.10
31.61,-5.53,-6.63,-5.52,-6.62,6.00,5.80,7.02,0.47,0.48,1.10
31.93,-5.41,-6.51,-5.40,-6.50,6.00,5.74,6.99,0.59,0.60,1.10
32.24,-5.29,-6.39,-5.28,-6.38,6.00,5.67,6.93,0.71,0.72,1.10
32.57,-5.16,-6.25,-5.16,-6.26,5.98,5.60,6.87,0.82,0.82,1.09
32.89,-5.04,-6.14,-5.04,-6.14,5.94,5.52,6.79,0.91,0.90,1.10
33.22,-4.92,-6.01,-4.92,-6.01,5.89,5.44,6.70,0.97,0.96,1.10
33.55,-4.81,-5.90,-4.80,-5.89,5.81,5.36,6.60,1.00,1.01,1.10
33.89,-4.68,-5.76,-4.68,-5.76,5.71,5.28,6.49,1.03,1.03,1.08
34.23,-4.56,-5.63,-4.56,-5.63,5.61,5.19,6.37,1.05,1.05,1.07
34.57,-4.44,-5.50,-4.44,-5.50,5.49,5.10,6.24,1.06,1.05,1.07
34.92,-4.33,-5.37,-4.32,-5.37,5.37,5.01,6.10,1.04,1.05,1.04
35.27,-4.21,-5.25,-4.21,-5.24,5.24,4.91,5.95,1.03,1.03,1.04
35.62,-4.09,-5.10,-4.09,-5.10,5.10,4.81,5.80,1.01,1.01,1.01
35.97,-3.98,-4.97,-3.98,-4.96,4.96,4.71,5.65,0.99,0.99,1.00
36.33,-3.86,-4.83,-3.86,-4.83,4.83,4.61,5.49,0.97,0.96,0.97
36.70,-3.75,-4.69,-3.75,-4.69,4.69,4.51,5.32,0.94,0.94,0.94
37.06,-3.64,-4.55,-3.63,-4.55,4.55,4.40,5.16,0.91,0.91,0.91
37.43,-3.53,-4.41,-3.52,-4.41,4.41,4.30,4.99,0.88,0.89,0.88
37.81,-3.41,-4.26,-3.41,-4.27,4.27,4.19,4.82,0.86,0.86,0.86
38.19,-3.31,-4.13,-3.30,-4.13,4.13,4.08,4.65,0.82,0.83,0.82
38.57,-3.20,-4.00,-3.19,-3.99,3.99,3.97,4.48,0.80,0.80,0.80
38.95,-3.09,-3.86,-3.08,-3.86,3.86,3.86,4.31,0.77,0.77,0.77
39.34,-2.98,-3.71,-2.98,-3.72,3.72,3.74,4.14,0.75,0.75,0.74
39.74,-2.87,-3.58,-2.87,-3.59,3.59,3.63,3.97,0.73,0.72,0.71
40.14,-2.77,-3.46,-2.77,-3.46,3.46,3.51,3.80,0.69,0.70,0.69
40.54,-2.67,-3.34,-2.66,-3.33,3.33,3.40,3.63,0.67,0.67,0.67
40.94,-2.56,-3.21,-2.56,-3.21,3.21,3.28,3.47,0.65,0.65,0.65
41.35,-2.46,-3.08,-2.46,-3.09,3.09,3.16,3.30,0.63,0.63,0.62
41.76,-2.36,-2.95,-2.36,-2.96,2.96,3.05,3.14,0.61,0.61,0.60
42.18,-2.26,-2.85,-2.26,-2.84,2.84,2.93,2.98,0.59,0.58,0.59
42.60,-2.17,-2.73,-2.16,-2.72,2.72,2.81,2.81,0.56,0.56,0.56
43.03,-2.06,-2.60,-2.06,-2.61,2.61,2.69,2.65,0.55,0.54,0.54
43.46,-1.97,-2.49,-1.96,-2.49,2.49,2.57,2.50,0.52,0.52,0.52
43.90,-1.87,-2.37,-1.87,-2.37,2.37,2.46,2.34,0.50,0.50,0.50
44.33,-1.78,-2.25,-1.77,-2.25,2.25,2.34,2.19,0.48,0.48,0.48
44.78,-1.68,-2.14,-1.68,-2.13,2.13,2.22,2.03,0.46,0.46,0.46
45.23,-1.59,-2.04,-1.58,-2.01,2.01,2.10,1.88,0.43,0.43,0.45
45.68,-1.49,-1.90,-1.49,-1.90,1.90,1.98,1.73,0.41,0.41,0.41
46.13,-1.40,-1.77,-1.39,-1.78,1.78,1.86,1.58,0.38,0.38,0.37
46.60,-1.31,-1.66,-1.30,-1.65,1.65,1.75,1.44,0.35,0.35,0.36
47.06,-1.21,-1.53,-1.21,-1.53,1.53,1.63,1.29,0.33,0.32,0.33
47.53,-1.12,-1.41,-1.13,-1.41,1.41,1.51,1.15,0.30,0.28,0.30
48.01,-1.04,-1.29,-1.04,-1.29,1.29,1.40,1.01,0.25,0.25,0.25
48.49,-0.96,-1.17,-0.96,-1.17,1.17,1.28,0.86,0.21,0.21,0.22
48.97,-0.87,-1.04,-0.87,-1.05,1.05,1.17,0.73,0.18,0.18,0.18
49.46,-0.79,-0.93,-0.79,-0.93,0.93,1.05,0.59,0.15,0.14,0.15
49.96,-0.71,-0.79,-0.72,-0.81,0.81,0.94,0.45,0.11,0.10,0.08
50.46,-0.65,-0.70,-0.64,-0.70,0.70,0.82,0.32,0.05,0.06,0.05
50.96,-0.57,-0.58,-0.56,-0.58,0.58,0.71,0.18,0.02,0.02,0.01
51.47,-0.49,-0.46,-0.49,-0.47,0.47,0.60,0.05,-0.02,-0.02,-0.02
51.99,-0.42,-0.35,-0.41,-0.35,0.35,0.49,-0.08,-0.06,-0.06,-0.07
52.51,-0.34,-0.24,-0.34,-0.24,0.24,0.38,-0.20,-0.10,-0.10,-0.10
53.03,-0.27,-0.14,-0.27,-0.13,0.13,0.27,-0.33,-0.14,-0.14,-0.12
53.56,-0.20,-0.03,-0.19,-0.01,0.01,0.16,-0.45,-0.18,-0.18,-0.17
54.10,-0.12,0.09,-0.11,0.10,-0.10,0.05,-0.57,-0.22,-0.21,-0.21
54.64,-0.05,0.20,-0.04,0.21,-0.21,-0.06,-0.69,-0.26,-0.25,-0.25
55.18,0.03,0.33,0.04,0.32,-0.32,-0.16,-0.81,-0.29,-0.28,-0.29
55.74,0.10,0.43,0.12,0.43,-0.43,-0.27,-0.92,-0.33,-0.31,-0.33
56.29,0.18,0.54,0.19,0.54,-0.54,-0.37,-1.03,-0.36,-0.35,-0.36
56.86,0.25,0.64,0.27,0.65,-0.65,-0.48,-1.13,-0.40,-0.38,-0.39
57.42,0.34,0.78,0.34,0.76,-0.76,-0.58,-1.24,-0.41,-0.42,-0.43
58.00,0.42,0.89,0.41,0.86,-0.86,-0.68,-1.34,-0.44,-0.46,-0.46
58.58,0.49,0.98,0.48,0.97,-0.97,-0.78,-1.43,-0.48,-0.49,-0.48
59.16,0.55,1.07,0.54,1.07,-1.07,-0.88,-1.52,-0.52,-0.53,-0.51
59.76,0.62,1.17,0.60,1.18,-1.18,-0.98,-1.61,-0.55,-0.57,-0.54
60.35,0.67,1.27,0.66,1.28,-1.28,-1.08,-1.69,-0.60,-0.61,-0.60
60.96,0.72,1.36,0.72,1.37,-1.37,-1.18,-1.77,-0.65,-0.66,-0.64
61.57,0.77,1.47,0.77,1.47,-1.47,-1.27,-1.85,-0.70,-0.70,-0.70
62.18,0.81,1.57,0.82,1.56,-1.56,-1.36,-1.92,-0.75,-0.74,-0.75
62.80,0.86,1.66,0.87,1.66,-1.66,-1.46,-1.99,-0.80,-0.79,-0.80
63.43,0.90,1.76,0.92,1.75,-1.75,-1.55,-2.05,-0.85,-0.83,-0.85
64.07,0.95,1.84,0.96,1.84,-1.84,-1.64,-2.11,-0.88,-0.87,-0.89
64.71,1.00,1.93,1.01,1.92,-1.92,-1.73,-2.16,-0.92,-0.92,-0.93
65.35,1.04,2.01,1.05,2.01,-2.01,-1.82,-2.21,-0.97,-0.96,-0.96
66.01,1.09,2.09,1.09,2.09,-2.09,-1.91,-2.26,-1.00,-1.00,-1.00
66.67,1.14,2.17,1.13,2.17,-2.17,-1.99,-2.31,-1.03,-1.04,-1.03
67.33,1.17,2.25,1.17,2.25,-2.25,-2.08,-2.35,-1.08,-1.08,-1.08
68.01,1.21,2.33,1.21,2.33,-2.33,-2.16,-2.39,-1.12,-1.12,-1.12
68.69,1.25,2.41,1.25,2.41,-2.41,-2.25,-2.42,-1.15,-1.16,-1.16
69.37,1.28,2.48,1.28,2.48,-2.48,-2.33,-2.45,-1.20,-1.20,-1.19
70.07,1.31,2.54,1.32,2.55,-2.55,-2.41,-2.49,-1.24,-1.24,-1.23
70.77,1.35,2.62,1.35,2.63,-2.63,-2.49,-2.52,-1.28,-1.28,-1.27
71.48,1.38,2.70,1.38,2.70,-2.70,-2.57,-2.55,-1.32,-1.32,-1.32
72.19,1.40,2.76,1.41,2.77,-2.77,-2.65,-2.57,-1.37,-1.36,-1.36
72.91,1.44,2.84,1.44,2.84,-2.84,-2.72,-2.60,-1.40,-1.40,-1.40
73.64,1.46,2.91,1.47,2.91,-2.91,-2.80,-2.63,-1.44,-1.44,-1.44
74.38,1.49,2.98,1.50,2.97,-2.97,-2.87,-2.65,-1.48,-1.47,-1.48
75.12,1.52,3.04,1.53,3.04,-3.04,-2.94,-2.68,-1.51,-1.51,-1.52
75.87,1.55,3.09,1.55,3.10,-3.10,-3.01,-2.71,-1.55,-1.54,-1.54
76.63,1.58,3.17,1.58,3.16,-3.16,-3.09,-2.74,-1.58,-1.58,-1.58
77.40,1.61,3.23,1.61,3.22,-3.22,-3.15,-2.77,-1.61,-1.61,-1.61
78.17,1.63,3.29,1.64,3.28,-3.28,-3.22,-2.80,-1.65,-1.65,-1.66
78.95,1.65,3.32,1.66,3.34,-3.34,-3.29,-2.83,-1.69,-1.68,-1.67
79.74,1.69,3.40,1.69,3.40,-3.40,-3.35,-2.86,-1.70,-1.71,-1.70
80.54,1.71,3.45,1.71,3.45,-3.45,-3.42,-2.90,-1.74,-1.74,-1.74
81.35,1.74,3.51,1.74,3.51,-3.51,-3.48,-2.94,-1.76,-1.77,-1.76
82.16,1.76,3.55,1.76,3.56,-3.56,-3.54,-2.97,-1.80,-1.80,-1.79
82.98,1.78,3.61,1.78,3.61,-3.61,-3.60,-3.02,-1.83,-1.83,-1.83
83.81,1.80,3.66,1.80,3.66,-3.66,-3.66,-3.06,-1.86,-1.86,-1.86
84.65,1.82,3.72,1.82,3.71,-3.71,-3.72,-3.11,-1.89,-1.89,-1.89
85.50,1.83,3.76,1.84,3.76,-3.76,-3.78,-3.15,-1.92,-1.92,-1.92
86.35,1.86,3.81,1.86,3.80,-3.80,-3.84,-3.20,-1.94,-1.95,-1.94
87.22,1.86,3.84,1.87,3.85,-3.85,-3.89,-3.26,-1.98,-1.98,-1.98
88.09,1.88,3.89,1.88,3.89,-3.89,-3.94,-3.31,-2.01,-2.01,-2.01
88.97,1.89,3.93,1.89,3.93,-3.93,-4.00,-3.37,-2.04,-2.04,-2.04
89.86,1.90,3.98,1.90,3.97,-3.97,-4.05,-3.43,-2.07,-2.07,-2.07
90.76,1.91,4.02,1.91,4.01,-4.01,-4.10,-3.50,-2.10,-2.11,-2.11
91.66,1.91,4.05,1.91,4.06,-4.06,-4.15,-3.56,-2.14,-2.14,-2.14
92.58,1.92,4.10,1.92,4.10,-4.10,-4.19,-3.63,-2.17,-2.18,-2.17
93.51,1.92,4.13,1.92,4.14,-4.14,-4.24,-3.71,-2.21,-2.22,-2.21
94.44,1.92,4.17,1.92,4.18,-4.18,-4.29,-3.78,-2.25,-2.26,-2.24
95.39,1.92,4.21,1.92,4.22,-4.22,-4.33,-3.86,-2.29,-2.30,-2.29
96.34,1.91,4.25,1.92,4.25,-4.25,-4.37,-3.94,-2.34,-2.34,-2.34
97.30,1.91,4.29,1.91,4.29,-4.29,-4.42,-4.02,-2.38,-2.38,-2.37
98.28,1.91,4.34,1.91,4.33,-4.33,-4.46,-4.10,-2.42,-2.42,-2.43
99.26,1.89,4.37,1.91,4.37,-4.37,-4.50,-4.19,-2.48,-2.46,-2.48
100.25,1.90,4.42,1.90,4.41,-4.41,-4.54,-4.27,-2.50,-2.50,-2.51
101.25,1.89,4.44,1.90,4.44,-4.44,-4.57,-4.36,-2.55,-2.54,-2.55
102.27,1.89,4.48,1.90,4.48,-4.48,-4.61,-4.45,-2.59,-2.58,-2.59
103.29,1.89,4.52,1.90,4.52,-4.52,-4.64,-4.54,-2.62,-2.62,-2.63
104.32,1.89,4.55,1.89,4.55,-4.55,-4.68,-4.63,-2.66,-2.66,-2.65
105.37,1.89,4.59,1.89,4.58,-4.58,-4.71,-4.72,-2.69,-2.69,-2.69
106.42,1.88,4.60,1.89,4.61,-4.61,-4.74,-4.81,-2.73,-2.73,-2.72
107.48,1.88,4.65,1.88,4.64,-4.64,-4.77,-4.90,-2.76,-2.76,-2.77
108.56,1.88,4.68,1.88,4.67,-4.67,-4.80,-4.99,-2.79,-2.80,-2.80
109.64,1.87,4.70,1.87,4.70,-4.70,-4.83,-5.08,-2.83,-2.83,-2.82
110.74,1.87,4.73,1.87,4.73,-4.73,-4.86,-5.16,-2.86,-2.87,-2.86
111.85,1.87,4.77,1.86,4.76,-4.76,-4.89,-5.24,-2.89,-2.90,-2.90
112.97,1.85,4.79,1.85,4.79,-4.79,-4.91,-5.32,-2.94,-2.94,-2.94
114.10,1.84,4.81,1.84,4.82,-4.82,-4.93,-5.39,-2.97,-2.98,-2.97
115.24,1.82,4.84,1.82,4.85,-4.85,-4.96,-5.46,-3.02,-3.02,-3.02
116.39,1.80,4.88,1.81,4.88,-4.88,-4.98,-5.53,-3.07,-3.07,-3.07
117.55,1.79,4.90,1.80,4.91,-4.91,-5.00,-5.59,-3.12,-3.11,-3.11
118.73,1.77,4.94,1.79,4.94,-4.94,-5.02,-5.64,-3.17,-3.15,-3.16
119.92,1.76,4.97,1.78,4.98,-4.98,-5.04,-5.69,-3.21,-3.20,-3.21
121.12,1.75,5.00,1.76,5.01,-5.01,-5.06,-5.73,-3.26,-3.25,-3.24
122.33,1.74,5.04,1.75,5.05,-5.05,-5.08,-5.76,-3.30,-3.30,-3.30
123.55,1.73,5.07,1.73,5.08,-5.08,-5.09,-5.79,-3.35,-3.35,-3.34
124.79,1.72,5.11,1.72,5.11,-5.11,-5.11,-5.81,-3.39,-3.40,-3.38
126.03,1.70,5.14,1.70,5.15,-5.15,-5.12,-5.82,-3.45,-3.45,-3.43
127.29,1.69,5.19,1.68,5.18,-5.18,-5.13,-5.82,-3.49,-3.50,-3.49
128.57,1.67,5.22,1.66,5.21,-5.21,-5.15,-5.82,-3.53,-3.54,-3.55
129.85,1.65,5.25,1.64,5.23,-5.23,-5.16,-5.81,-3.58,-3.59,-3.60
131.15,1.63,5.28,1.62,5.26,-5.26,-5.17,-5.79,-3.62,-3.64,-3.64
132.46,1.59,5.29,1.59,5.28,-5.28,-5.18,-5.76,-3.68,-3.68,-3.69
133.79,1.56,5.29,1.57,5.29,-5.29,-5.18,-5.73,-3.73,-3.72,-3.73
135.12,1.53,5.31,1.54,5.30,-5.30,-5.19,-5.70,-3.77,-3.76,-3.78
136.48,1.50,5.31,1.50,5.31,-5.31,-5.20,-5.66,-3.80,-3.80,-3.80
137.84,1.47,5.31,1.47,5.31,-5.31,-5.20,-5.61,-3.84,-3.84,-3.84
139.22,1.43,5.31,1.43,5.31,-5.31,-5.21,-5.56,-3.87,-3.87,-3.88
140.61,1.39,5.30,1.40,5.30,-5.30,-5.21,-5.51,-3.91,-3.91,-3.91
142.02,1.36,5.30,1.36,5.29,-5.29,-5.21,-5.45,-3.93,-3.94,-3.94
143.44,1.32,5.29,1.32,5.29,-5.29,-5.22,-5.40,-3.96,-3.97,-3.97
144.87,1.27,5.26,1.28,5.28,-5.28,-5.22,-5.34,-4.00,-4.00,-3.99
146.32,1.24,5.26,1.24,5.26,-5.26,-5.22,-5.28,-4.02,-4.02,-4.02
147.78,1.20,5.25,1.20,5.26,-5.26,-5.22,-5.22,-4.05,-4.05,-4.05
149.26,1.15,5.23,1.16,5.24,-5.24,-5.22,-5.16,-4.09,-4.08,-4.08
150.75,1.11,5.23,1.13,5.24,-5.24,-5.21,-5.10,-4.12,-4.11,-4.12
152.26,1.08,5.22,1.09,5.23,-5.23,-5.21,-5.04,-4.14,-4.14,-4.13
153.78,1.04,5.21,1.05,5.22,-5.22,-5.21,-4.98,-4.18,-4.17,-4.17
155.32,1.01,5.21,1.01,5.21,-5.21,-5.20,-4.92,-4.20,-4.20,-4.19
156.88,0.97,5.20,0.97,5.20,-5.20,-5.20,-4.86,-4.23,-4.23,-4.23
158.44,0.93,5.19,0.93,5.19,-5.19,-5.19,-4.81,-4.26,-4.26,-4.26
160.03,0.90,5.20,0.89,5.19,-5.19,-5.19,-4.76,-4.28,-4.30,-4.29
161.63,0.85,5.18,0.84,5.18,-5.18,-5.18,-4.71,-4.32,-4.33,-4.33
163.24,0.81,5.19,0.80,5.17,-5.17,-5.17,-4.66,-4.36,-4.37,-4.38
164.88,0.76,5.17,0.76,5.16,-5.16,-5.16,-4.62,-4.40,-4.40,-4.41
166.53,0.72,5.17,0.71,5.15,-5.15,-5.15,-4.58,-4.43,-4.44,-4.44
168.19,0.66,5.14,0.67,5.14,-5.14,-5.14,-4.54,-4.48,-4.48,-4.47
169.87,0.61,5.12,0.62,5.14,-5.14,-5.13,-4.51,-4.52,-4.52,-4.51
171.57,0.56,5.12,0.58,5.13,-5.13,-5.12,-4.48,-4.56,-4.55,-4.56
173.29,0.52,5.12,0.53,5.12,-5.12,-5.11,-4.45,-4.60,-4.59,-4.59
175.02,0.47,5.10,0.49,5.11,-5.11,-5.09,-4.43,-4.64,-4.63,-4.63
176.77,0.43,5.10,0.44,5.11,-5.11,-5.08,-4.41,-4.67,-4.66,-4.66
178.54,0.39,5.09,0.40,5.10,-5.10,-5.07,-4.39,-4.71,-4.70,-4.70
180.32,0.36,5.10,0.36,5.09,-5.09,-5.05,-4.38,-4.73,-4.74,-4.74
182.13,0.31,5.09,0.32,5.09,-5.09,-5.04,-4.37,-4.78,-4.77,-4.77
183.95,0.28,5.09,0.27,5.09,-5.09,-5.02,-4.36,-4.80,-4.81,-4.80
185.79,0.24,5.09,0.23,5.08,-5.08,-5.00,-4.36,-4.84,-4.85,-4.85
187.65,0.20,5.08,0.19,5.08,-5.08,-4.99,-4.36,-4.88,-4.89,-4.88
189.52,0.15,5.07,0.15,5.07,-5.07,-4.97,-4.36,-4.92,-4.92,-4.92
191.42,0.11,5.07,0.11,5.07,-5.07,-4.95,-4.36,-4.95,-4.96,-4.96
193.33,0.07,5.07,0.07,5.06,-5.06,-4.93,-4.37,-4.99,-4.99,-4.99
195.27,0.02,5.05,0.03,5.05,-5.05,-4.91,-4.38,-5.03,-5.03,-5.03
197.22,-0.02,5.05,-0.02,5.04,-5.04,-4.89,-4.40,-5.06,-5.06,-5.07
199.19,-0.07,5.03,-0.06,5.03,-5.03,-4.87,-4.41,-5.10,-5.09,-5.10
201.18,-0.12,5.01,-0.10,5.02,-5.02,-4.85,-4.43,-5.14,-5.12,-5.13
203.19,-0.15,5.01,-0.15,5.01,-5.01,-4.83,-4.45,-5.16,-5.16,-5.16
205.23,-0.20,4.99,-0.19,5.00,-5.00,-4.81,-4.47,-5.19,-5.19,-5.18
207.28,-0.24,4.97,-0.24,4.98,-4.98,-4.79,-4.50,-5.22,-5.22,-5.21
209.35,-0.29,4.95,-0.28,4.96,-4.96,-4.77,-4.52,-5.25,-5.24,-5.24
211.44,-0.33,4.94,-0.33,4.94,-4.94,-4.75,-4.55,-5.27,-5.27,-5.27
213.56,-0.37,4.93,-0.38,4.92,-4.92,-4.72,-4.57,-5.29,-5.30,-5.30
215.69,-0.42,4.90,-0.43,4.90,-4.90,-4.70,-4.60,-5.31,-5.32,-5.32
217.85,-0.47,4.88,-0.48,4.87,-4.87,-4.68,-4.63,-5.34,-5.35,-5.34
220.03,-0.52,4.86,-0.53,4.84,-4.84,-4.65,-4.65,-5.36,-5.37,-5.38
222.23,-0.58,4.82,-0.58,4.81,-4.81,-4.63,-4.68,-5.39,-5.39,-5.40
224.45,-0.64,4.78,-0.63,4.78,-4.78,-4.60,-4.70,-5.42,-5.42,-5.42
226.70,-0.70,4.74,-0.69,4.75,-4.75,-4.58,-4.72,-5.44,-5.44,-5.44
228.96,-0.75,4.70,-0.75,4.71,-4.71,-4.55,-4.74,-5.46,-5.46,-5.45
231.25,-0.81,4.66,-0.81,4.67,-4.67,-4.53,-4.76,-5.48,-5.48,-5.47
233.57,-0.87,4.62,-0.87,4.63,-4.63,-4.50,-4.77,-5.49,-5.49,-5.49
235.90,-0.93,4.59,-0.93,4.58,-4.58,-4.48,-4.78,-5.51,-5.51,-5.52
238.26,-0.99,4.55,-0.99,4.54,-4.54,-4.45,-4.79,-5.53,-5.53,-5.54
240.64,-1.05,4.49,-1.05,4.50,-4.50,-4.42,-4.80,-5.54,-5.54,-5.54
243.05,-1.10,4.46,-1.10,4.45,-4.45,-4.40,-4.80,-5.55,-5.55,-5.55
245.48,-1.17,4.41,-1.16,4.41,-4.41,-4.37,-4.79,-5.57,-5.57,-5.57
247.93,-1.23,4.36,-1.21,4.36,-4.36,-4.34,-4.78,-5.59,-5.58,-5.59
250.41,-1.28,4.31,-1.27,4.32,-4.32,-4.32,-4.77,-5.60,-5.59,-5.59
252.92,-1.33,4.27,-1.32,4.28,-4.28,-4.29,-4.75,-5.61,-5.60,-5.59
255.45,-1.38,4.23,-1.37,4.24,-4.24,-4.26,-4.73,-5.61,-5.61,-5.61
258.00,-1.43,4.19,-1.42,4.20,-4.20,-4.23,-4.70,-5.62,-5.62,-5.62
260.58,-1.47,4.16,-1.47,4.16,-4.16,-4.21,-4.67,-5.62,-5.63,-5.62
263.19,-1.52,4.12,-1.52,4.12,-4.12,-4.18,-4.63,-5.63,-5.64,-5.64
265.82,-1.57,4.08,-1.57,4.08,-4.08,-4.15,-4.59,-5.64,-5.65,-5.65
268.48,-1.62,4.03,-1.62,4.04,-4.04,-4.12,-4.55,-5.66,-5.66,-5.65
271.16,-1.66,4.01,-1.66,4.00,-4.00,-4.09,-4.50,-5.66,-5.67,-5.67
273.87,-1.71,3.97,-1.71,3.97,-3.97,-4.07,-4.45,-5.67,-5.68,-5.67
276.61,-1.76,3.93,-1.75,3.93,-3.93,-4.04,-4.40,-5.69,-5.68,-5.69
279.38,-1.81,3.90,-1.80,3.89,-3.89,-4.01,-4.34,-5.70,-5.69,-5.70
282.17,-1.85,3.86,-1.84,3.86,-3.86,-3.98,-4.29,-5.70,-5.70,-5.71
284.99,-1.89,3.81,-1.89,3.82,-3.82,-3.95,-4.23,-5.70,-5.71,-5.70
287.84,-1.94,3.77,-1.93,3.78,-3.78,-3.92,-4.17,-5.72,-5.71,-5.71
290.72,-1.97,3.76,-1.98,3.74,-3.74,-3.90,-4.11,-5.71,-5.72,-5.73
293.63,-2.02,3.71,-2.02,3.70,-3.70,-3.87,-4.05,-5.72,-5.73,-5.72
296.57,-2.06,3.67,-2.06,3.67,-3.67,-3.84,-3.98,-5.72,-5.73,-5.73
299.53,-2.11,3.63,-2.11,3.63,-3.63,-3.81,-3.92,-5.73,-5.73,-5.73
302.53,-2.15,3.59,-2.15,3.59,-3.59,-3.78,-3.86,-5.74,-5.74,-5.74
305.55,-2.19,3.55,-2.19,3.55,-3.55,-3.75,-3.80,-5.74,-5.74,-5.74
308.61,-2.24,3.51,-2.22,3.52,-3.52,-3.73,-3.74,-5.76,-5.74,-5.74
311.69,-2.27,3.48,-2.26,3.48,-3.48,-3.70,-3.68,-5.75,-5.74,-5.75
314.81,-2.30,3.45,-2.30,3.45,-3.45,-3.67,-3.63,-5.74,-5.75,-5.75
317.96,-2.34,3.41,-2.33,3.41,-3.41,-3.64,-3.57,-5.75,-5.75,-5.75
321.14,-2.37,3.38,-2.37,3.38,-3.38,-3.61,-3.52,-5.75,-5.75,-5.74
324.35,-2.40,3.36,-2.40,3.35,-3.35,-3.59,-3.46,-5.75,-5.75,-5.76
327.59,-2.43,3.31,-2.43,3.32,-3.32,-3.56,-3.41,-5.75,-5.75,-5.74
330.87,-2.46,3.29,-2.46,3.29,-3.29,-3.53,-3.36,-5.75,-5.75,-5.74
334.18,-2.48,3.28,-2.49,3.26,-3.26,-3.50,-3.32,-5.74,-5.75,-5.75
337.52,-2.52,3.23,-2.51,3.23,-3.23,-3.48,-3.27,-5.75,-5.75,-5.75
340.90,-2.54,3.21,-2.53,3.21,-3.21,-3.45,-3.23,-5.75,-5.74,-5.75
344.30,-2.57,3.17,-2.56,3.18,-3.18,-3.42,-3.19,-5.75,-5.74,-5.74
347.75,-2.59,3.15,-2.58,3.16,-3.16,-3.40,-3.15,-5.75,-5.74,-5.73
351.23,-2.60,3.15,-2.60,3.14,-3.14,-3.37,-3.12,-5.74,-5.74,-5.75
354.74,-2.62,3.11,-2.62,3.12,-3.12,-3.34,-3.09,-5.73,-5.74,-5.73
358.28,-2.65,3.09,-2.64,3.10,-3.10,-3.32,-3.05,-5.74,-5.73,-5.74
361.87,-2.65,3.08,-2.66,3.08,-3.08,-3.29,-3.03,-5.72,-5.73,-5.73
365.49,-2.67,3.07,-2.67,3.06,-3.06,-3.27,-3.00,-5.73,-5.73,-5.73
369.14,-2.69,3.04,-2.69,3.04,-3.04,-3.24,-2.98,-5.73,-5.73,-5.72
372.83,-2.70,3.03,-2.70,3.02,-3.02,-3.22,-2.96,-5.72,-5.73,-5.73
376.56,-2.72,3.01,-2.72,3.01,-3.01,-3.19,-2.94,-5.73,-5.73,-5.73
380.33,-2.74,2.99,-2.73,2.99,-2.99,-3.17,-2.92,-5.73,-5.73,-5.73
384.13,-2.75,2.98,-2.75,2.98,-2.98,-3.14,-2.90,-5.73,-5.72,-5.73
387.97,-2.76,2.96,-2.76,2.96,-2.96,-3.12,-2.89,-5.72,-5.72,-5.72
391.85,-2.78,2.95,-2.77,2.95,-2.95,-3.10,-2.88,-5.73,-5.72,-5.72
395.77,-2.79,2.94,-2.78,2.94,-2.94,-3.07,-2.87,-5.72,-5.72,-5.72
399.73,-2.80,2.93,-2.80,2.92,-2.92,-3.05,-2.86,-5.72,-5.72,-5.73
403.72,-2.81,2.91,-2.81,2.91,-2.91,-3.03,-2.86,-5.72,-5.72,-5.72
407.76,-2.82,2.90,-2.82,2.90,-2.90,-3.01,-2.85,-5.72,-5.72,-5.72
411.84,-2.83,2.89,-2.83,2.89,-2.89,-2.98,-2.85,-5.71,-5.72,-5.72
415.96,-2.84,2.87,-2.84,2.88,-2.88,-2.96,-2.85,-5.71,-5.72,-5.71
420.12,-2.86,2.86,-2.85,2.87,-2.87,-2.94,-2.85,-5.72,-5.72,-5.72
424.32,-2.87,2.85,-2.86,2.86,-2.86,-2.92,-2.85,-5.72,-5.72,-5.72
428.56,-2.87,2.85,-2.87,2.84,-2.84,-2.90,-2.85,-5.71,-5.72,-5.71
432.85,-2.88,2.84,-2.89,2.83,-2.83,-2.88,-2.85,-5.71,-5.72,-5.71
437.18,-2.90,2.83,-2.90,2.83,-2.83,-2.86,-2.85,-5.72,-5.72,-5.72
441.55,-2.90,2.83,-2.91,2.82,-2.82,-2.84,-2.86,-5.71,-5.72,-5.72
445.96,-2.92,2.81,-2.92,2.81,-2.81,-2.82,-2.86,-5.72,-5.72,-5.73
450.42,-2.93,2.80,-2.92,2.80,-2.80,-2.80,-2.86,-5.73,-5.72,-5.73
454.93,-2.94,2.79,-2.93,2.79,-2.79,-2.79,-2.87,-5.73,-5.72,-5.73
