frequency,raw,error,smoothed,error_smoothed,equalization,parametric_eq,equalized_raw,equalized_smoothed,target
20,-11.97,-15.91,-11.89,-15.83,6.00,2.91,-5.97,-5.89,3.94
21,-11.30,-15.23,-11.35,-15.28,6.00,3.34,-5.30,-5.35,3.93
22,-10.85,-14.78,-10.82,-14.75,6.00,3.81,-4.85,-4.82,3.93
23,-10.22,-14.15,-10.31,-14.24,6.00,4.31,-4.22,-4.31,3.93
24,-9.79,-13.72,-9.82,-13.74,6.00,4.85,-3.79,-3.82,3.93
25,-9.28,-13.20,-9.34,-13.26,6.00,5.40,-3.28,-3.34,3.93
26,-8.94,-12.86,-8.88,-12.80,6.00,5.95,-2.94,-2.88,3.92
27,-8.42,-12.34,-8.43,-12.35,6.00,6.48,-2.42,-2.43,3.92
28,-8.00,-11.91,-8.01,-11.92,6.00,6.95,-2.00,-2.01,3.91
29,-7.56,-11.47,-7.60,-11.51,6.00,7.34,-1.56,-1.60,3.91
30,-7.20,-11.10,-7.21,-11.11,6.00,7.61,-1.20,-1.21,3.91
31,-6.91,-10.81,-6.83,-10.73,6.00,7.74,-0.91,-0.83,3.90
32,-6.46,-10.35,-6.46,-10.36,6.00,7.74,-0.46,-0.46,3.89
33,-6.07,-9.96,-6.11,-10.00,6.00,7.62,-0.07,-0.11,3.89
34,-5.80,-9.68,-5.78,-9.66,6.00,7.41,0.20,0.22,3.88
35,-5.46,-9.33,-5.46,-9.33,6.00,7.14,0.54,0.54,3.87
36,-5.20,-9.06,-5.15,-9.01,6.00,6.84,0.80,0.85,3.87
37,-4.82,-8.68,-4.85,-8.71,6.00,6.52,1.18,1.15,3.86
38,-4.53,-8.38,-4.57,-8.41,6.00,6.21,1.47,1.43,3.85
39,-4.33,-8.17,-4.29,-8.13,6.00,5.91,1.67,1.71,3.84
40,-4.04,-7.87,-4.03,-7.86,6.00,5.63,1.96,1.97,3.83
41,-3.76,-7.57,-3.78,-7.60,6.00,5.37,2.24,2.22,3.81
42,-3.46,-7.26,-3.55,-7.35,6.00,5.14,2.54,2.45,3.80
43,-3.35,-7.14,-3.32,-7.11,6.00,4.94,2.65,2.68,3.79
44,-3.03,-6.80,-3.10,-6.87,6.00,4.76,2.97,2.90,3.78
45,-2.96,-6.72,-2.89,-6.65,6.00,4.60,3.04,3.11,3.76
46,-2.70,-6.44,-2.68,-6.43,6.00,4.46,3.30,3.32,3.75
47,-2.54,-6.27,-2.48,-6.21,5.96,4.34,3.42,3.47,3.73
48,-2.33,-6.04,-2.29,-6.00,5.86,4.23,3.54,3.57,3.71
49,-2.18,-5.87,-2.11,-5.80,5.73,4.15,3.55,3.62,3.69
50,-1.84,-5.51,-1.93,-5.60,5.57,4.07,3.73,3.64,3.68
51,-1.69,-5.34,-1.75,-5.41,5.39,4.01,3.71,3.65,3.66
52,-1.54,-5.17,-1.58,-5.21,5.21,3.95,3.67,3.64,3.64
53,-1.38,-4.99,-1.41,-5.02,5.02,3.90,3.64,3.61,3.61
54,-1.24,-4.83,-1.24,-4.83,4.83,3.86,3.59,3.59,3.59
55,-1.08,-4.65,-1.08,-4.64,4.64,3.82,3.57,3.57,3.57
56,-0.99,-4.53,-0.92,-4.46,4.46,3.78,3.47,3.54,3.54
57,-0.84,-4.36,-0.76,-4.27,4.27,3.73,3.43,3.52,3.52
58,-0.67,-4.16,-0.60,-4.09,4.09,3.69,3.42,3.49,3.49
59,-0.45,-3.91,-0.44,-3.91,3.91,3.64,3.46,3.46,3.46
60,-0.25,-3.69,-0.29,-3.73,3.73,3.59,3.48,3.44,3.44
61,-0.13,-3.54,-0.14,-3.55,3.55,3.53,3.42,3.41,3.41
62,0.02,-3.36,0.00,-3.37,3.37,3.47,3.39,3.38,3.38
63,0.19,-3.16,0.14,-3.20,3.20,3.40,3.40,3.35,3.35
64,0.27,-3.04,0.27,-3.04,3.04,3.32,3.31,3.32,3.32
65,0.43,-2.85,0.40,-2.88,2.88,3.24,3.31,3.28,3.28
66,0.53,-2.72,0.52,-2.73,2.73,3.16,3.26,3.25,3.25
67,0.67,-2.55,0.63,-2.59,2.59,3.07,3.26,3.22,3.22
68,0.71,-2.47,0.73,-2.45,2.45,2.98,3.16,3.18,3.18
69,0.77,-2.38,0.82,-2.32,2.32,2.88,3.09,3.15,3.15
70,0.97,-2.14,0.91,-2.20,2.20,2.78,3.17,3.11,3.11
71,0.97,-2.10,1.00,-2.08,2.08,2.68,3.05,3.07,3.07
72,1.06,-1.98,1.07,-1.96,1.96,2.58,3.03,3.04,3.04
73,1.14,-1.86,1.14,-1.85,1.85,2.48,3.00,3.00,3.00
74,1.22,-1.74,1.21,-1.75,1.75,2.38,2.97,2.96,2.96
75,1.28,-1.64,1.28,-1.64,1.64,2.28,2.93,2.92,2.92
76,1.28,-1.60,1.34,-1.54,1.54,2.18,2.83,2.88,2.88
77,1.38,-1.46,1.40,-1.45,1.45,2.08,2.83,2.84,2.84
78,1.48,-1.32,1.45,-1.35,1.35,1.99,2.83,2.80,2.80
79,1.57,-1.19,1.50,-1.26,1.26,1.89,2.83,2.76,2.76
80,1.59,-1.13,1.55,-1.17,1.17,1.80,2.76,2.72,2.72
81,1.58,-1.10,1.60,-1.08,1.08,1.71,2.66,2.68,2.68
82,1.58,-1.06,1.65,-0.99,0.99,1.62,2.57,2.64,2.64
83,1.62,-0.98,1.69,-0.91,0.91,1.53,2.53,2.60,2.60
84,1.69,-0.87,1.73,-0.83,0.83,1.45,2.52,2.56,2.56
85,1.78,-0.73,1.77,-0.75,0.75,1.36,2.53,2.52,2.52
86,1.88,-0.59,1.80,-0.67,0.67,1.28,2.55,2.47,2.47
87,1.92,-0.51,1.84,-0.60,0.60,1.20,2.52,2.43,2.43
88,1.88,-0.51,1.87,-0.52,0.52,1.13,2.40,2.39,2.39
89,1.88,-0.47,1.89,-0.46,0.46,1.05,2.34,2.35,2.35
90,1.88,-0.43,1.92,-0.39,0.39,0.98,2.27,2.31,2.31
91,1.89,-0.38,1.94,-0.33,0.33,0.91,2.22,2.27,2.27
92,1.89,-0.33,1.96,-0.27,0.27,0.83,2.16,2.23,2.22
93,1.95,-0.23,1.97,-0.22,0.22,0.77,2.17,2.19,2.18
94,2.05,-0.09,1.98,-0.17,0.17,0.70,2.22,2.14,2.14
95,2.00,-0.10,1.98,-0.12,0.12,0.63,2.12,2.10,2.10
96,1.98,-0.08,1.98,-0.08,0.08,0.57,2.06,2.06,2.06
97,1.98,-0.04,1.97,-0.05,0.05,0.51,2.03,2.02,2.02
98,1.97,-0.01,1.96,-0.02,0.02,0.45,1.99,1.98,1.98
99,1.96,0.02,1.94,0.01,-0.01,0.39,1.96,1.94,1.94
100,1.94,0.04,1.92,0.02,-0.02,0.33,1.92,1.89,1.90
101,1.93,0.07,1.89,0.04,-0.04,0.27,1.89,1.85,1.86
102,1.91,0.09,1.86,0.05,-0.05,0.22,1.86,1.81,1.83
104,1.87,0.12,1.83,0.06,-0.06,0.11,1.81,1.77,1.75
105,1.68,-0.03,1.80,0.07,-0.07,0.06,1.61,1.73,1.71
106,1.68,0.00,1.76,0.07,-0.07,0.01,1.61,1.69,1.68
107,1.71,0.07,1.73,0.08,-0.08,-0.03,1.63,1.65,1.64
108,1.69,0.08,1.70,0.09,-0.09,-0.08,1.61,1.62,1.61
109,1.67,0.09,1.67,0.09,-0.09,-0.12,1.58,1.58,1.58
110,1.65,0.11,1.65,0.10,-0.10,-0.16,1.55,1.55,1.55
111,1.63,0.12,1.62,0.11,-0.11,-0.20,1.52,1.51,1.51
112,1.62,0.14,1.60,0.12,-0.12,-0.24,1.50,1.48,1.48
113,1.61,0.15,1.59,0.14,-0.14,-0.28,1.47,1.45,1.46
114,1.60,0.17,1.57,0.15,-0.15,-0.31,1.45,1.42,1.43
115,1.60,0.20,1.55,0.16,-0.16,-0.34,1.44,1.39,1.40
117,1.40,0.06,1.54,0.18,-0.18,-0.39,1.22,1.36,1.35
118,1.41,0.09,1.52,0.19,-0.19,-0.42,1.22,1.33,1.32
119,1.50,0.20,1.50,0.20,-0.20,-0.44,1.30,1.30,1.30
120,1.60,0.32,1.49,0.21,-0.21,-0.46,1.39,1.27,1.28
121,1.62,0.36,1.47,0.22,-0.22,-0.48,1.40,1.25,1.26
123,1.43,0.22,1.45,0.23,-0.23,-0.51,1.20,1.22,1.21
124,1.44,0.25,1.43,0.24,-0.24,-0.52,1.20,1.20,1.19
125,1.31,0.14,1.41,0.24,-0.24,-0.53,1.07,1.17,1.17
126,1.25,0.10,1.39,0.24,-0.24,-0.53,1.01,1.15,1.16
128,1.36,0.25,1.37,0.24,-0.24,-0.54,1.12,1.12,1.11
129,1.44,0.34,1.34,0.24,-0.24,-0.54,1.20,1.10,1.10
130,1.47,0.39,1.31,0.23,-0.23,-0.54,1.24,1.08,1.08
131,1.33,0.26,1.28,0.23,-0.23,-0.54,1.11,1.06,1.07
133,1.09,0.06,1.25,0.21,-0.21,-0.53,0.88,1.04,1.03
134,1.16,0.14,1.22,0.20,-0.20,-0.53,0.96,1.02,1.02
135,1.19,0.19,1.19,0.19,-0.19,-0.52,1.00,1.00,1.00
137,1.24,0.27,1.15,0.18,-0.18,-0.50,1.07,0.98,0.97
138,1.30,0.34,1.12,0.16,-0.16,-0.48,1.14,0.95,0.96
140,1.00,0.08,1.08,0.15,-0.15,-0.46,0.85,0.93,0.93
141,0.90,-0.01,1.05,0.13,-0.13,-0.44,0.77,0.91,0.91
142,0.92,0.02,1.02,0.12,-0.12,-0.43,0.80,0.89,0.90
144,1.00,0.13,0.99,0.11,-0.11,-0.39,0.89,0.87,0.87
145,1.00,0.14,0.96,0.11,-0.11,-0.38,0.90,0.85,0.86
147,1.07,0.24,0.93,0.10,-0.10,-0.34,0.97,0.83,0.83
148,0.88,0.07,0.91,0.10,-0.10,-0.32,0.79,0.81,0.81
150,0.75,-0.04,0.88,0.09,-0.09,-0.28,0.66,0.79,0.79
151,0.80,0.03,0.86,0.09,-0.09,-0.26,0.71,0.77,0.77
153,0.80,0.05,0.83,0.08,-0.08,-0.22,0.72,0.75,0.75
154,0.80,0.07,0.81,0.08,-0.08,-0.20,0.73,0.73,0.74
156,0.89,0.18,0.78,0.07,-0.07,-0.16,0.83,0.71,0.71
157,0.90,0.20,0.75,0.05,-0.05,-0.14,0.85,0.70,0.70
159,0.70,0.03,0.71,0.03,-0.03,-0.10,0.67,0.68,0.68
160,0.64,-0.02,0.67,0.01,-0.01,-0.08,0.63,0.66,0.66
162,0.55,-0.09,0.63,-0.01,0.01,-0.04,0.56,0.64,0.64
164,0.67,0.05,0.59,-0.04,0.04,0.01,0.71,0.63,0.62
165,0.55,-0.06,0.54,-0.07,0.07,0.03,0.62,0.61,0.61
167,0.49,-0.11,0.49,-0.11,0.11,0.07,0.60,0.60,0.60
169,0.43,-0.15,0.44,-0.14,0.14,0.11,0.57,0.58,0.58
170,0.37,-0.20,0.40,-0.18,0.18,0.13,0.55,0.57,0.57
172,0.30,-0.26,0.35,-0.21,0.21,0.17,0.51,0.56,0.56
174,0.26,-0.29,0.31,-0.25,0.25,0.21,0.51,0.55,0.55
175,0.25,-0.29,0.26,-0.28,0.28,0.23,0.53,0.54,0.55
177,0.25,-0.28,0.23,-0.31,0.31,0.27,0.56,0.54,0.54
179,0.33,-0.20,0.19,-0.34,0.34,0.31,0.67,0.53,0.53
181,0.05,-0.47,0.15,-0.37,0.37,0.35,0.42,0.52,0.52
183,0.02,-0.49,0.12,-0.40,0.40,0.39,0.42,0.52,0.51
184,0.07,-0.44,0.09,-0.43,0.43,0.41,0.50,0.51,0.52
186,0.08,-0.43,0.05,-0.46,0.46,0.45,0.54,0.51,0.51
188,0.09,-0.42,0.02,-0.49,0.49,0.49,0.58,0.51,0.51
190,0.04,-0.46,-0.01,-0.52,0.52,0.53,0.56,0.51,0.51
192,0.00,-0.50,-0.04,-0.55,0.55,0.56,0.55,0.50,0.50
194,-0.06,-0.56,-0.08,-0.58,0.58,0.60,0.52,0.50,0.50
196,-0.19,-0.69,-0.11,-0.61,0.61,0.64,0.42,0.50,0.50
198,-0.19,-0.69,-0.15,-0.65,0.65,0.67,0.46,0.50,0.50
200,-0.15,-0.65,-0.18,-0.68,0.68,0.71,0.53,0.50,0.50
202,-0.24,-0.74,-0.21,-0.71,0.71,0.75,0.47,0.50,0.50
204,-0.31,-0.81,-0.25,-0.74,0.74,0.78,0.43,0.50,0.50
206,-0.26,-0.76,-0.28,-0.78,0.78,0.82,0.52,0.50,0.50
208,-0.21,-0.71,-0.31,-0.81,0.81,0.85,0.60,0.50,0.50
210,-0.37,-0.87,-0.34,-0.84,0.84,0.88,0.47,0.50,0.50
212,-0.42,-0.92,-0.37,-0.87,0.87,0.91,0.45,0.50,0.50
214,-0.42,-0.92,-0.41,-0.90,0.90,0.95,0.48,0.50,0.50
216,-0.42,-0.92,-0.44,-0.93,0.93,0.98,0.51,0.50,0.50
218,-0.43,-0.93,-0.47,-0.96,0.96,1.01,0.53,0.50,0.50
221,-0.35,-0.84,-0.49,-0.99,0.99,1.05,0.64,0.50,0.49
223,-0.45,-0.95,-0.52,-1.02,1.02,1.08,0.57,0.50,0.50
225,-0.70,-1.20,-0.54,-1.04,1.04,1.11,0.34,0.50,0.50
227,-0.70,-1.20,-0.56,-1.07,1.07,1.13,0.37,0.50,0.50
229,-0.63,-1.13,-0.58,-1.09,1.09,1.16,0.46,0.50,0.50
232,-0.62,-1.13,-0.60,-1.10,1.10,1.19,0.49,0.51,0.51
234,-0.61,-1.12,-0.61,-1.12,1.12,1.22,0.51,0.51,0.51
236,-0.56,-1.08,-0.62,-1.13,1.13,1.24,0.57,0.52,0.52
239,-0.53,-1.05,-0.62,-1.15,1.15,1.27,0.62,0.52,0.52
241,-0.66,-1.19,-0.63,-1.16,1.16,1.28,0.50,0.53,0.53
244,-0.65,-1.18,-0.64,-1.17,1.17,1.31,0.52,0.53,0.53
246,-0.63,-1.17,-0.64,-1.18,1.18,1.33,0.56,0.54,0.54
248,-0.64,-1.19,-0.65,-1.20,1.20,1.34,0.56,0.55,0.55
251,-0.77,-1.32,-0.67,-1.22,1.22,1.36,0.45,0.55,0.55
253,-0.71,-1.27,-0.68,-1.24,1.24,1.37,0.53,0.56,0.56
256,-0.64,-1.21,-0.70,-1.27,1.27,1.39,0.63,0.57,0.57
259,-0.57,-1.15,-0.72,-1.30,1.30,1.40,0.73,0.58,0.58
261,-0.67,-1.25,-0.75,-1.33,1.33,1.41,0.66,0.58,0.58
264,-0.78,-1.37,-0.77,-1.37,1.37,1.42,0.59,0.59,0.59
266,-0.91,-1.51,-0.80,-1.40,1.40,1.43,0.49,0.60,0.60
269,-0.90,-1.51,-0.83,-1.44,1.44,1.43,0.54,0.61,0.61
272,-0.85,-1.46,-0.85,-1.47,1.47,1.44,0.62,0.61,0.61
274,-0.79,-1.41,-0.87,-1.49,1.49,1.44,0.71,0.62,0.62
277,-0.83,-1.46,-0.89,-1.52,1.52,1.45,0.69,0.63,0.63
280,-0.96,-1.59,-0.90,-1.53,1.53,1.45,0.57,0.63,0.63
283,-0.96,-1.60,-0.90,-1.54,1.54,1.46,0.58,0.64,0.64
286,-1.01,-1.66,-0.90,-1.54,1.54,1.46,0.54,0.65,0.65
288,-0.97,-1.62,-0.89,-1.54,1.54,1.46,0.57,0.65,0.65
291,-0.82,-1.48,-0.87,-1.53,1.53,1.47,0.71,0.66,0.66
294,-0.94,-1.60,-0.85,-1.52,1.52,1.47,0.58,0.66,0.66
297,-0.82,-1.49,-0.83,-1.50,1.50,1.47,0.68,0.67,0.67
300,-0.80,-1.47,-0.81,-1.48,1.48,1.48,0.68,0.68,0.68
303,-0.78,-1.46,-0.79,-1.47,1.47,1.48,0.69,0.68,0.68
306,-0.69,-1.38,-0.77,-1.46,1.46,1.48,0.77,0.69,0.69
309,-0.66,-1.35,-0.77,-1.46,1.46,1.49,0.80,0.69,0.69
312,-0.72,-1.42,-0.76,-1.46,1.46,1.49,0.74,0.70,0.70
316,-0.75,-1.45,-0.77,-1.47,1.47,1.50,0.73,0.70,0.70
319,-0.75,-1.46,-0.78,-1.49,1.49,1.51,0.74,0.71,0.71
322,-0.77,-1.48,-0.80,-1.52,1.52,1.52,0.75,0.71,0.71
325,-0.85,-1.57,-0.83,-1.55,1.55,1.53,0.70,0.72,0.72
328,-0.90,-1.62,-0.86,-1.58,1.58,1.53,0.68,0.72,0.72
332,-0.96,-1.69,-0.89,-1.61,1.61,1.55,0.66,0.73,0.73
335,-0.96,-1.69,-0.92,-1.65,1.65,1.56,0.69,0.73,0.73
338,-0.96,-1.69,-0.95,-1.68,1.68,1.57,0.72,0.73,0.73
342,-0.96,-1.70,-0.98,-1.71,1.71,1.59,0.76,0.74,0.74
345,-0.99,-1.73,-1.00,-1.74,1.74,1.60,0.75,0.74,0.74
349,-1.06,-1.80,-1.03,-1.77,1.77,1.62,0.71,0.74,0.74
352,-1.06,-1.81,-1.04,-1.79,1.79,1.64,0.73,0.75,0.75
356,-1.06,-1.81,-1.06,-1.81,1.81,1.66,0.75,0.75,0.75
359,-1.05,-1.80,-1.08,-1.83,1.83,1.68,0.78,0.75,0.75
363,-1.11,-1.86,-1.09,-1.84,1.84,1.70,0.73,0.75,0.75
366,-1.14,-1.89,-1.10,-1.86,1.86,1.72,0.72,0.75,0.75
370,-1.14,-1.89,-1.12,-1.87,1.87,1.75,0.73,0.75,0.76
374,-1.13,-1.89,-1.13,-1.89,1.89,1.78,0.76,0.76,0.76
377,-1.12,-1.88,-1.15,-1.91,1.91,1.80,0.79,0.76,0.76
381,-1.14,-1.90,-1.17,-1.93,1.93,1.83,0.79,0.76,0.76
385,-1.21,-1.97,-1.20,-1.96,1.96,1.86,0.75,0.76,0.77
389,-1.20,-1.97,-1.22,-1.99,1.99,1.89,0.79,0.77,0.77
393,-1.20,-1.97,-1.25,-2.03,2.03,1.93,0.83,0.78,0.78
397,-1.22,-2.00,-1.29,-2.07,2.07,1.96,0.85,0.78,0.78
401,-1.37,-2.16,-1.33,-2.12,2.12,1.99,0.75,0.79,0.79
405,-1.40,-2.20,-1.37,-2.17,2.17,2.03,0.77,0.81,0.80
409,-1.40,-2.22,-1.41,-2.23,2.23,2.06,0.83,0.82,0.82
413,-1.41,-2.24,-1.44,-2.28,2.28,2.09,0.87,0.84,0.83
417,-1.50,-2.35,-1.48,-2.34,2.34,2.13,0.84,0.86,0.85
421,-1.51,-2.39,-1.51,-2.39,2.39,2.16,0.89,0.88,0.88
425,-1.50,-2.40,-1.54,-2.45,2.45,2.20,0.95,0.91,0.90
430,-1.59,-2.52,-1.56,-2.49,2.49,2.24,0.91,0.93,0.93
434,-1.59,-2.55,-1.57,-2.53,2.53,2.27,0.95,0.97,0.96
438,-1.54,-2.53,-1.57,-2.57,2.57,2.30,1.03,1.00,0.99
443,-1.61,-2.64,-1.55,-2.59,2.59,2.34,0.98,1.04,1.03
447,-1.60,-2.67,-1.53,-2.60,2.60,2.37,1.00,1.07,1.07
451,-1.52,-2.63,-1.48,-2.60,2.60,2.40,1.08,1.11,1.11
456,-1.45,-2.60,-1.43,-2.58,2.58,2.43,1.13,1.15,1.15
460,-1.41,-2.60,-1.37,-2.56,2.56,2.45,1.15,1.19,1.19
465,-1.37,-2.60,-1.29,-2.53,2.53,2.48,1.16,1.23,1.23
470,-1.27,-2.54,-1.21,-2.48,2.48,2.51,1.21,1.27,1.27
474,-1.17,-2.48,-1.13,-2.44,2.44,2.53,1.27,1.31,1.31
479,-1.00,-2.35,-1.04,-2.39,2.39,2.55,1.39,1.34,1.35
484,-0.89,-2.27,-0.96,-2.34,2.34,2.57,1.45,1.38,1.38
489,-0.81,-2.22,-0.88,-2.29,2.29,2.58,1.48,1.41,1.41
494,-0.74,-2.18,-0.81,-2.24,2.24,2.60,1.51,1.43,1.44
499,-0.71,-2.17,-0.75,-2.21,2.21,2.61,1.50,1.46,1.46
504,-0.68,-2.16,-0.70,-2.18,2.18,2.62,1.50,1.48,1.48
509,-0.66,-2.16,-0.67,-2.16,2.16,2.62,1.50,1.49,1.50
514,-0.65,-2.16,-0.65,-2.15,2.15,2.62,1.50,1.50,1.51
519,-0.65,-2.16,-0.65,-2.15,2.15,2.62,1.50,1.51,1.51
524,-0.65,-2.16,-0.65,-2.16,2.16,2.62,1.51,1.51,1.52
529,-0.66,-2.17,-0.67,-2.18,2.18,2.62,1.52,1.51,1.51
535,-0.68,-2.19,-0.71,-2.21,2.21,2.61,1.53,1.51,1.51
540,-0.71,-2.21,-0.74,-2.24,2.24,2.60,1.53,1.50,1.50
545,-0.75,-2.24,-0.79,-2.28,2.28,2.59,1.53,1.49,1.49
551,-0.80,-2.28,-0.84,-2.32,2.32,2.58,1.52,1.48,1.48
556,-0.89,-2.36,-0.89,-2.37,2.37,2.57,1.48,1.47,1.47
562,-1.00,-2.46,-0.95,-2.41,2.41,2.55,1.41,1.46,1.46
568,-1.05,-2.50,-1.00,-2.45,2.45,2.54,1.40,1.45,1.45
573,-1.09,-2.53,-1.04,-2.49,2.49,2.53,1.40,1.45,1.44
579,-1.13,-2.56,-1.08,-2.52,2.52,2.51,1.39,1.44,1.43
585,-1.15,-2.58,-1.11,-2.55,2.55,2.49,1.40,1.44,1.43
591,-1.17,-2.60,-1.14,-2.58,2.58,2.48,1.41,1.44,1.43
596,-1.17,-2.60,-1.16,-2.60,2.60,2.46,1.43,1.44,1.43
602,-1.17,-2.61,-1.17,-2.61,2.61,2.45,1.45,1.45,1.44
608,-1.16,-2.61,-1.17,-2.63,2.63,2.44,1.47,1.46,1.45
615,-1.14,-2.61,-1.16,-2.64,2.64,2.42,1.50,1.47,1.47
621,-1.12,-2.61,-1.15,-2.65,2.65,2.41,1.53,1.49,1.49
627,-1.10,-2.61,-1.14,-2.65,2.65,2.40,1.55,1.51,1.51
633,-1.07,-2.60,-1.11,-2.65,2.65,2.39,1.58,1.54,1.54
639,-1.13,-2.69,-1.09,-2.65,2.65,2.38,1.52,1.57,1.56
646,-1.12,-2.71,-1.06,-2.65,2.65,2.37,1.53,1.60,1.59
652,-1.05,-2.68,-1.02,-2.65,2.65,2.37,1.60,1.63,1.63
659,-1.01,-2.67,-0.98,-2.64,2.64,2.36,1.63,1.66,1.66
665,-0.96,-2.65,-0.93,-2.63,2.63,2.36,1.67,1.69,1.70
672,-0.90,-2.63,-0.89,-2.62,2.62,2.36,1.72,1.73,1.73
679,-0.87,-2.63,-0.84,-2.60,2.60,2.36,1.74,1.76,1.76
686,-0.82,-2.62,-0.80,-2.59,2.59,2.36,1.77,1.79,1.80
692,-0.69,-2.52,-0.76,-2.58,2.58,2.37,1.89,1.82,1.83
699,-0.64,-2.50,-0.72,-2.57,2.57,2.37,1.93,1.85,1.86
706,-0.63,-2.52,-0.69,-2.57,2.57,2.38,1.94,1.88,1.89
713,-0.62,-2.53,-0.66,-2.57,2.57,2.39,1.95,1.91,1.91
721,-0.63,-2.57,-0.63,-2.57,2.57,2.41,1.94,1.93,1.94
728,-0.65,-2.61,-0.62,-2.57,2.57,2.42,1.93,1.96,1.96
735,-0.67,-2.65,-0.61,-2.58,2.58,2.44,1.91,1.98,1.98
742,-0.60,-2.60,-0.60,-2.60,2.60,2.46,2.00,2.00,2.00
750,-0.53,-2.54,-0.60,-2.61,2.61,2.48,2.08,2.01,2.01
757,-0.56,-2.59,-0.60,-2.62,2.62,2.50,2.06,2.03,2.03
765,-0.58,-2.62,-0.60,-2.64,2.64,2.52,2.06,2.04,2.04
773,-0.60,-2.65,-0.60,-2.65,2.65,2.55,2.05,2.05,2.05
780,-0.61,-2.67,-0.59,-2.65,2.65,2.57,2.05,2.06,2.06
788,-0.61,-2.68,-0.59,-2.66,2.66,2.60,2.05,2.07,2.07
796,-0.61,-2.69,-0.58,-2.66,2.66,2.63,2.05,2.08,2.08
804,-0.61,-2.70,-0.56,-2.65,2.65,2.66,2.04,2.09,2.09
812,-0.61,-2.70,-0.54,-2.64,2.64,2.69,2.03,2.10,2.09
820,-0.59,-2.69,-0.52,-2.62,2.62,2.72,2.03,2.10,2.10
828,-0.49,-2.60,-0.49,-2.60,2.60,2.75,2.11,2.11,2.11
837,-0.40,-2.51,-0.46,-2.58,2.58,2.78,2.18,2.12,2.11
845,-0.40,-2.52,-0.43,-2.55,2.55,2.81,2.16,2.12,2.12
853,-0.40,-2.53,-0.40,-2.53,2.53,2.83,2.13,2.13,2.13
862,-0.32,-2.46,-0.36,-2.50,2.50,2.86,2.18,2.14,2.14
871,-0.31,-2.45,-0.33,-2.47,2.47,2.89,2.16,2.14,2.14
879,-0.32,-2.47,-0.30,-2.45,2.45,2.92,2.13,2.15,2.15
888,-0.25,-2.41,-0.26,-2.42,2.42,2.94,2.17,2.16,2.16
897,-0.23,-2.40,-0.23,-2.40,2.40,2.96,2.17,2.17,2.17
906,-0.24,-2.42,-0.20,-2.38,2.38,2.98,2.14,2.18,2.18
915,-0.19,-2.37,-0.18,-2.36,2.36,2.99,2.17,2.19,2.19
924,-0.15,-2.34,-0.15,-2.35,2.35,3.00,2.20,2.20,2.20
933,-0.15,-2.36,-0.13,-2.33,2.33,3.01,2.18,2.21,2.21
943,-0.06,-2.28,-0.10,-2.32,2.32,3.01,2.26,2.22,2.22
952,-0.05,-2.28,-0.08,-2.31,2.31,3.00,2.26,2.23,2.23
962,-0.04,-2.28,-0.06,-2.31,2.31,3.00,2.27,2.24,2.24
971,-0.04,-2.30,-0.04,-2.30,2.30,2.98,2.26,2.26,2.26
981,-0.03,-2.30,-0.02,-2.30,2.30,2.96,2.27,2.27,2.27
991,-0.01,-2.30,-0.00,-2.29,2.29,2.94,2.29,2.29,2.29
1001,0.00,-2.31,0.02,-2.29,2.29,2.91,2.29,2.31,2.31
1011,0.02,-2.31,0.04,-2.29,2.29,2.87,2.31,2.33,2.33
1021,0.04,-2.31,0.07,-2.29,2.29,2.83,2.33,2.35,2.35
1031,0.07,-2.31,0.09,-2.28,2.28,2.78,2.36,2.38,2.38
1041,0.20,-2.20,0.12,-2.28,2.28,2.73,2.48,2.40,2.40
1052,0.19,-2.24,0.16,-2.27,2.27,2.67,2.46,2.43,2.43
1062,0.18,-2.28,0.20,-2.26,2.26,2.60,2.44,2.46,2.46
1073,0.22,-2.27,0.24,-2.25,2.25,2.53,2.47,2.49,2.49
1084,0.27,-2.25,0.29,-2.23,2.23,2.45,2.50,2.52,2.52
1094,0.32,-2.23,0.34,-2.21,2.21,2.38,2.53,2.55,2.55
1105,0.38,-2.20,0.40,-2.18,2.18,2.30,2.56,2.59,2.58
1116,0.45,-2.17,0.47,-2.15,2.15,2.21,2.61,2.62,2.62
1128,0.51,-2.14,0.53,-2.12,2.12,2.11,2.63,2.65,2.65
1139,0.59,-2.10,0.60,-2.08,2.08,2.02,2.67,2.69,2.69
1150,0.72,-2.00,0.68,-2.04,2.04,1.92,2.76,2.72,2.72
1162,0.76,-1.99,0.75,-2.00,2.00,1.82,2.76,2.75,2.75
1173,0.85,-1.93,0.83,-1.95,1.95,1.72,2.80,2.79,2.79
1185,0.95,-1.87,0.91,-1.90,1.90,1.61,2.85,2.82,2.82
1197,0.98,-1.86,0.99,-1.85,1.85,1.50,2.83,2.84,2.85
1209,1.07,-1.80,1.08,-1.79,1.79,1.39,2.86,2.87,2.87
1221,1.19,-1.70,1.16,-1.73,1.73,1.28,2.93,2.89,2.90
1233,1.25,-1.67,1.24,-1.67,1.67,1.17,2.92,2.91,2.92
1246,1.33,-1.60,1.33,-1.60,1.60,1.05,2.93,2.93,2.94
1258,1.38,-1.57,1.42,-1.53,1.53,0.94,2.91,2.95,2.95
1271,1.52,-1.44,1.51,-1.45,1.45,0.82,2.97,2.96,2.96
1283,1.62,-1.35,1.60,-1.37,1.37,0.71,2.99,2.97,2.97
1296,1.67,-1.31,1.70,-1.28,1.28,0.59,2.95,2.98,2.98
1309,1.78,-1.20,1.80,-1.18,1.18,0.47,2.96,2.98,2.98
1322,1.88,-1.10,1.91,-1.08,1.08,0.36,2.96,2.98,2.98
1335,1.99,-0.99,2.01,-0.96,0.96,0.24,2.96,2.98,2.98
1349,2.04,-0.94,2.13,-0.85,0.85,0.12,2.89,2.98,2.98
1362,2.33,-0.64,2.24,-0.73,0.73,0.00,3.06,2.97,2.97
1376,2.50,-0.46,2.36,-0.60,0.60,-0.12,3.10,2.96,2.96
1390,2.55,-0.41,2.49,-0.47,0.47,-0.24,3.02,2.95,2.96
1404,2.58,-0.37,2.61,-0.33,0.33,-0.37,2.91,2.95,2.95
1418,2.60,-0.34,2.74,-0.20,0.20,-0.49,2.80,2.94,2.94
1432,2.73,-0.20,2.87,-0.06,0.06,-0.61,2.79,2.93,2.93
1446,2.90,-0.02,3.00,0.08,-0.08,-0.73,2.82,2.92,2.92
1461,3.21,0.29,3.13,0.21,-0.21,-0.85,3.00,2.92,2.92
1475,3.36,0.45,3.26,0.34,-0.34,-0.97,3.02,2.91,2.91
1490,3.44,0.53,3.39,0.47,-0.47,-1.10,2.97,2.91,2.91
1505,3.58,0.67,3.51,0.59,-0.59,-1.22,2.99,2.92,2.91
1520,3.76,0.84,3.63,0.71,-0.71,-1.34,3.05,2.92,2.92
1535,3.82,0.89,3.75,0.82,-0.82,-1.46,3.00,2.93,2.93
1550,3.84,0.90,3.87,0.92,-0.92,-1.59,2.92,2.95,2.94
1566,3.87,0.91,3.98,1.02,-1.02,-1.71,2.86,2.97,2.96
1582,3.91,0.92,4.09,1.10,-1.10,-1.84,2.81,2.99,2.99
1597,4.08,1.06,4.20,1.18,-1.18,-1.96,2.90,3.02,3.02
1613,4.27,1.22,4.30,1.24,-1.24,-2.08,3.03,3.06,3.05
1629,4.47,1.38,4.40,1.30,-1.30,-2.20,3.17,3.10,3.09
1646,4.69,1.55,4.49,1.35,-1.35,-2.33,3.34,3.14,3.14
1662,4.89,1.70,4.59,1.40,-1.40,-2.44,3.49,3.19,3.19
1679,4.95,1.71,4.69,1.44,-1.44,-2.56,3.51,3.25,3.25
1696,4.91,1.60,4.81,1.50,-1.50,-2.68,3.41,3.31,3.31
1713,4.85,1.48,4.94,1.56,-1.56,-2.79,3.29,3.38,3.37
1730,4.95,1.50,5.09,1.64,-1.64,-2.90,3.31,3.45,3.45
1747,5.16,1.64,5.28,1.76,-1.76,-3.01,3.41,3.52,3.52
1764,5.45,1.85,5.51,1.90,-1.90,-3.11,3.55,3.60,3.60
1782,5.68,1.99,5.78,2.09,-2.09,-3.21,3.59,3.69,3.69
1800,5.92,2.15,6.10,2.33,-2.33,-3.31,3.60,3.77,3.78
1818,6.17,2.30,6.47,2.61,-2.61,-3.40,3.56,3.87,3.87
1836,6.56,2.60,6.89,2.93,-2.93,-3.48,3.63,3.96,3.96
1854,7.05,2.99,7.35,3.30,-3.30,-3.56,3.75,4.06,4.06
1873,7.60,3.44,7.85,3.69,-3.69,-3.63,3.91,4.15,4.16
1892,8.33,4.07,8.36,4.10,-4.10,-3.69,4.23,4.26,4.26
1911,9.11,4.75,8.88,4.52,-4.52,-3.75,4.59,4.36,4.36
1930,9.62,5.15,9.39,4.92,-4.92,-3.80,4.70,4.47,4.47
1949,10.06,5.48,9.87,5.30,-5.30,-3.84,4.76,4.58,4.58
1969,10.40,5.71,10.32,5.63,-5.63,-3.87,4.77,4.69,4.69
