frequency,raw,error,smoothed,error_smoothed,equalization,parametric_eq,equalized_raw,equalized_smoothed,target
20,0.79,1.59,0.74,1.54,-1.54,-0.31,-0.75,-0.80,-0.80
21,0.87,1.67,0.80,1.60,-1.60,-0.36,-0.73,-0.80,-0.80
22,0.87,1.67,0.83,1.64,-1.64,-0.40,-0.77,-0.80,-0.80
23,0.83,1.64,0.86,1.66,-1.66,-0.46,-0.83,-0.80,-0.81
24,0.75,1.56,0.86,1.67,-1.67,-0.51,-0.92,-0.81,-0.81
25,0.68,1.49,0.85,1.66,-1.66,-0.57,-0.98,-0.81,-0.81
26,0.63,1.45,0.82,1.63,-1.63,-0.63,-1.00,-0.81,-0.81
27,0.63,1.45,0.77,1.59,-1.59,-0.69,-0.96,-0.82,-0.82
28,0.65,1.47,0.71,1.53,-1.53,-0.74,-0.88,-0.82,-0.82
29,0.77,1.60,0.63,1.45,-1.45,-0.79,-0.68,-0.83,-0.83
30,0.82,1.65,0.53,1.36,-1.36,-0.83,-0.54,-0.83,-0.83
31,0.66,1.50,0.41,1.25,-1.25,-0.87,-0.59,-0.84,-0.84
32,0.47,1.31,0.29,1.13,-1.13,-0.90,-0.66,-0.84,-0.84
33,0.25,1.10,0.15,1.00,-1.00,-0.92,-0.75,-0.85,-0.85
34,0.02,0.88,0.02,0.87,-0.87,-0.94,-0.85,-0.86,-0.86
35,-0.21,0.65,-0.12,0.74,-0.74,-0.95,-0.95,-0.86,-0.86
36,-0.41,0.46,-0.25,0.62,-0.62,-0.97,-1.03,-0.87,-0.87
37,-0.60,0.28,-0.38,0.50,-0.50,-0.98,-1.10,-0.88,-0.88
38,-0.75,0.14,-0.49,0.40,-0.40,-1.00,-1.15,-0.89,-0.89
39,-0.77,0.13,-0.58,0.32,-0.32,-1.02,-1.08,-0.90,-0.90
40,-0.77,0.14,-0.66,0.25,-0.25,-1.05,-1.01,-0.91,-0.91
41,-0.77,0.15,-0.74,0.19,-0.19,-1.08,-0.95,-0.92,-0.92
42,-0.77,0.17,-0.80,0.14,-0.14,-1.11,-0.90,-0.93,-0.93
43,-0.71,0.24,-0.85,0.09,-0.09,-1.14,-0.80,-0.95,-0.95
44,-0.72,0.24,-0.91,0.05,-0.05,-1.19,-0.77,-0.96,-0.96
45,-0.77,0.21,-0.96,0.02,-0.02,-1.23,-0.79,-0.97,-0.97
46,-0.81,0.18,-1.01,-0.02,0.02,-1.28,-0.79,-0.99,-0.99
47,-0.89,0.12,-1.06,-0.05,0.05,-1.33,-0.84,-1.01,-1.01
48,-1.05,-0.02,-1.10,-0.08,0.08,-1.38,-0.97,-1.02,-1.02
49,-1.16,-0.12,-1.14,-0.10,0.10,-1.44,-1.06,-1.04,-1.04
50,-1.25,-0.19,-1.17,-0.11,0.11,-1.50,-1.14,-1.06,-1.06
51,-1.34,-0.26,-1.17,-0.09,0.09,-1.55,-1.25,-1.08,-1.08
52,-1.37,-0.27,-1.16,-0.06,0.06,-1.61,-1.31,-1.10,-1.10
53,-1.30,-0.18,-1.12,0.01,-0.01,-1.67,-1.30,-1.12,-1.12
54,-1.21,-0.06,-1.05,0.10,-0.10,-1.73,-1.30,-1.14,-1.14
55,-1.09,0.08,-0.96,0.21,-0.21,-1.78,-1.30,-1.17,-1.17
56,-0.91,0.28,-0.84,0.35,-0.35,-1.83,-1.26,-1.19,-1.19
57,-0.69,0.53,-0.70,0.52,-0.52,-1.87,-1.20,-1.22,-1.22
58,-0.46,0.79,-0.55,0.69,-0.69,-1.91,-1.15,-1.24,-1.24
59,-0.27,1.00,-0.39,0.88,-0.88,-1.95,-1.15,-1.27,-1.27
60,-0.14,1.16,-0.22,1.07,-1.07,-1.98,-1.21,-1.30,-1.30
61,0.00,1.33,-0.06,1.27,-1.27,-2.00,-1.26,-1.33,-1.33
62,0.13,1.49,0.09,1.45,-1.45,-2.02,-1.32,-1.36,-1.36
63,0.26,1.65,0.24,1.62,-1.62,-2.03,-1.36,-1.39,-1.39
64,0.41,1.83,0.37,1.79,-1.79,-2.04,-1.37,-1.42,-1.42
65,0.53,1.98,0.48,1.93,-1.93,-2.04,-1.40,-1.45,-1.45
66,0.61,2.10,0.58,2.07,-2.07,-2.04,-1.46,-1.49,-1.49
67,0.67,2.19,0.67,2.19,-2.19,-2.03,-1.52,-1.52,-1.52
68,0.75,2.31,0.74,2.30,-2.30,-2.02,-1.55,-1.55,-1.55
69,0.80,2.39,0.81,2.40,-2.40,-2.01,-1.59,-1.59,-1.59
70,0.84,2.47,0.86,2.48,-2.48,-1.99,-1.64,-1.63,-1.63
71,0.87,2.53,0.90,2.56,-2.56,-1.97,-1.69,-1.66,-1.66
72,0.91,2.61,0.94,2.64,-2.64,-1.96,-1.72,-1.70,-1.70
73,0.96,2.70,0.97,2.70,-2.70,-1.94,-1.74,-1.74,-1.74
74,1.01,2.79,0.99,2.76,-2.76,-1.92,-1.75,-1.78,-1.78
75,1.01,2.83,1.01,2.82,-2.82,-1.90,-1.81,-1.81,-1.81
76,1.01,2.87,1.02,2.87,-2.87,-1.89,-1.86,-1.85,-1.85
77,1.01,2.90,1.03,2.92,-2.92,-1.87,-1.91,-1.89,-1.89
78,1.01,2.94,1.03,2.96,-2.96,-1.86,-1.95,-1.93,-1.93
79,1.01,2.99,1.02,3.00,-3.00,-1.84,-1.99,-1.97,-1.97
80,1.01,3.03,1.02,3.03,-3.03,-1.83,-2.02,-2.01,-2.01
81,1.01,3.07,1.00,3.06,-3.06,-1.82,-2.05,-2.06,-2.06
82,1.01,3.11,0.99,3.08,-3.08,-1.81,-2.07,-2.10,-2.10
83,1.01,3.15,0.97,3.10,-3.10,-1.81,-2.09,-2.14,-2.14
84,0.97,3.15,0.94,3.12,-3.12,-1.80,-2.15,-2.18,-2.18
85,0.91,3.13,0.91,3.13,-3.13,-1.80,-2.22,-2.22,-2.22
86,0.86,3.12,0.88,3.15,-3.15,-1.80,-2.28,-2.26,-2.26
87,0.82,3.13,0.85,3.16,-3.16,-1.80,-2.33,-2.30,-2.30
88,0.77,3.12,0.82,3.16,-3.16,-1.81,-2.39,-2.34,-2.35
89,0.77,3.16,0.79,3.17,-3.17,-1.81,-2.40,-2.39,-2.39
90,0.73,3.16,0.75,3.18,-3.18,-1.82,-2.45,-2.43,-2.43
91,0.69,3.16,0.72,3.19,-3.19,-1.83,-2.49,-2.47,-2.47
92,0.68,3.19,0.68,3.19,-3.19,-1.84,-2.51,-2.51,-2.51
93,0.63,3.18,0.64,3.19,-3.19,-1.85,-2.56,-2.55,-2.55
94,0.63,3.22,0.60,3.19,-3.19,-1.86,-2.56,-2.59,-2.59
95,0.58,3.21,0.56,3.19,-3.19,-1.88,-2.61,-2.63,-2.63
96,0.52,3.19,0.51,3.18,-3.18,-1.89,-2.66,-2.67,-2.67
97,0.47,3.18,0.45,3.17,-3.17,-1.91,-2.70,-2.71,-2.71
98,0.42,3.17,0.40,3.15,-3.15,-1.93,-2.73,-2.76,-2.75
99,0.35,3.14,0.33,3.13,-3.13,-1.95,-2.78,-2.80,-2.79
100,0.27,3.10,0.26,3.10,-3.10,-1.97,-2.83,-2.84,-2.83
101,0.22,3.09,0.19,3.07,-3.07,-1.99,-2.85,-2.88,-2.87
102,0.14,3.05,0.12,3.04,-3.04,-2.01,-2.90,-2.92,-2.91
104,-0.01,2.97,0.04,3.00,-3.00,-2.05,-3.01,-2.96,-2.98
105,-0.09,2.93,-0.04,2.97,-2.97,-2.07,-3.05,-3.00,-3.02
106,-0.14,2.91,-0.12,2.93,-2.93,-2.09,-3.06,-3.04,-3.05
107,-0.22,2.87,-0.19,2.89,-2.89,-2.11,-3.10,-3.08,-3.09
108,-0.29,2.83,-0.27,2.84,-2.84,-2.13,-3.13,-3.12,-3.12
109,-0.36,2.80,-0.35,2.80,-2.80,-2.15,-3.16,-3.15,-3.16
110,-0.42,2.77,-0.43,2.76,-2.76,-2.17,-3.17,-3.19,-3.19
111,-0.49,2.74,-0.52,2.71,-2.71,-2.19,-3.20,-3.23,-3.22
112,-0.58,2.68,-0.60,2.66,-2.66,-2.20,-3.24,-3.26,-3.26
113,-0.66,2.63,-0.68,2.62,-2.62,-2.22,-3.27,-3.30,-3.29
114,-0.75,2.57,-0.76,2.57,-2.57,-2.23,-3.32,-3.33,-3.32
115,-0.83,2.52,-0.85,2.52,-2.52,-2.25,-3.35,-3.37,-3.35
117,-0.98,2.43,-0.93,2.47,-2.47,-2.27,-3.44,-3.40,-3.41
118,-1.05,2.39,-1.02,2.41,-2.41,-2.28,-3.46,-3.43,-3.44
119,-1.11,2.36,-1.11,2.36,-2.36,-2.29,-3.47,-3.47,-3.47
120,-1.19,2.31,-1.19,2.31,-2.31,-2.30,-3.50,-3.50,-3.50
121,-1.24,2.29,-1.28,2.26,-2.26,-2.30,-3.49,-3.54,-3.53
123,-1.42,2.16,-1.36,2.20,-2.20,-2.31,-3.62,-3.57,-3.58
124,-1.46,2.15,-1.45,2.15,-2.15,-2.31,-3.61,-3.60,-3.61
125,-1.53,2.10,-1.53,2.10,-2.10,-2.31,-3.63,-3.63,-3.63
126,-1.60,2.06,-1.62,2.05,-2.05,-2.30,-3.65,-3.67,-3.66
128,-1.72,1.99,-1.70,2.00,-2.00,-2.29,-3.71,-3.70,-3.71
129,-1.80,1.93,-1.78,1.94,-1.94,-2.29,-3.74,-3.73,-3.73
130,-1.84,1.91,-1.86,1.89,-1.89,-2.28,-3.73,-3.76,-3.75
131,-1.92,1.86,-1.95,1.84,-1.84,-2.27,-3.76,-3.78,-3.77
133,-2.04,1.78,-2.03,1.79,-1.79,-2.25,-3.82,-3.81,-3.82
134,-2.12,1.72,-2.11,1.73,-1.73,-2.23,-3.85,-3.84,-3.84
135,-2.16,1.70,-2.19,1.68,-1.68,-2.22,-3.84,-3.87,-3.86
137,-2.29,1.61,-2.27,1.63,-1.63,-2.19,-3.91,-3.90,-3.90
138,-2.35,1.57,-2.35,1.57,-1.57,-2.17,-3.92,-3.92,-3.92
140,-2.46,1.50,-2.43,1.52,-1.52,-2.14,-3.98,-3.95,-3.96
141,-2.52,1.46,-2.51,1.47,-1.47,-2.12,-3.99,-3.97,-3.97
142,-2.56,1.43,-2.58,1.41,-1.41,-2.10,-3.97,-4.00,-3.99
144,-2.66,1.37,-2.66,1.36,-1.36,-2.06,-4.02,-4.02,-4.03
145,-2.71,1.33,-2.74,1.31,-1.31,-2.05,-4.02,-4.05,-4.04
147,-2.82,1.26,-2.81,1.26,-1.26,-2.01,-4.08,-4.07,-4.07
148,-2.89,1.20,-2.89,1.21,-1.21,-1.99,-4.09,-4.09,-4.09
150,-2.99,1.13,-2.96,1.15,-1.15,-1.95,-4.14,-4.11,-4.12
151,-3.04,1.09,-3.03,1.10,-1.10,-1.93,-4.14,-4.13,-4.13
153,-3.11,1.05,-3.10,1.05,-1.05,-1.90,-4.16,-4.16,-4.16
154,-3.14,1.03,-3.17,1.00,-1.00,-1.88,-4.14,-4.18,-4.17
156,-3.23,0.97,-3.24,0.95,-0.95,-1.85,-4.18,-4.20,-4.20
157,-3.27,0.94,-3.31,0.91,-0.91,-1.83,-4.17,-4.21,-4.21
159,-3.39,0.85,-3.37,0.86,-0.86,-1.80,-4.25,-4.23,-4.23
160,-3.42,0.83,-3.43,0.82,-0.82,-1.78,-4.23,-4.25,-4.25
162,-3.53,0.74,-3.49,0.77,-0.77,-1.75,-4.30,-4.27,-4.27
164,-3.58,0.71,-3.55,0.74,-0.74,-1.72,-4.31,-4.28,-4.29
165,-3.61,0.69,-3.60,0.70,-0.70,-1.71,-4.31,-4.30,-4.30
167,-3.65,0.67,-3.65,0.67,-0.67,-1.69,-4.32,-4.32,-4.32
169,-3.70,0.64,-3.69,0.64,-0.64,-1.66,-4.34,-4.33,-4.34
170,-3.71,0.64,-3.73,0.62,-0.62,-1.65,-4.33,-4.35,-4.35
172,-3.75,0.62,-3.76,0.60,-0.60,-1.63,-4.35,-4.36,-4.36
174,-3.80,0.58,-3.79,0.59,-0.59,-1.61,-4.39,-4.38,-4.38
175,-3.82,0.57,-3.81,0.58,-0.58,-1.60,-4.40,-4.39,-4.39
177,-3.85,0.56,-3.83,0.57,-0.57,-1.59,-4.42,-4.41,-4.40
179,-3.85,0.57,-3.84,0.58,-0.58,-1.57,-4.42,-4.42,-4.42
181,-3.85,0.59,-3.85,0.58,-0.58,-1.56,-4.43,-4.43,-4.43
183,-3.85,0.60,-3.85,0.59,-0.59,-1.55,-4.44,-4.44,-4.45
184,-3.85,0.61,-3.85,0.61,-0.61,-1.54,-4.45,-4.46,-4.45
186,-3.85,0.62,-3.84,0.63,-0.63,-1.54,-4.47,-4.47,-4.47
188,-3.85,0.63,-3.83,0.65,-0.65,-1.53,-4.50,-4.48,-4.48
190,-3.82,0.67,-3.81,0.68,-0.68,-1.52,-4.50,-4.49,-4.49
192,-3.80,0.71,-3.79,0.71,-0.71,-1.52,-4.51,-4.50,-4.50
194,-3.75,0.77,-3.77,0.74,-0.74,-1.52,-4.49,-4.51,-4.51
196,-3.75,0.78,-3.74,0.78,-0.78,-1.51,-4.53,-4.53,-4.53
198,-3.71,0.83,-3.71,0.82,-0.82,-1.51,-4.53,-4.54,-4.54
200,-3.70,0.85,-3.68,0.86,-0.86,-1.51,-4.56,-4.55,-4.55
202,-3.65,0.91,-3.65,0.91,-0.91,-1.51,-4.55,-4.55,-4.55
204,-3.62,0.95,-3.61,0.95,-0.95,-1.51,-4.57,-4.56,-4.56
206,-3.57,1.00,-3.58,0.99,-0.99,-1.51,-4.56,-4.57,-4.57
208,-3.53,1.05,-3.54,1.04,-1.04,-1.52,-4.57,-4.58,-4.58
210,-3.50,1.09,-3.50,1.09,-1.09,-1.52,-4.58,-4.59,-4.59
212,-3.45,1.14,-3.46,1.13,-1.13,-1.52,-4.58,-4.59,-4.59
214,-3.43,1.17,-3.42,1.18,-1.18,-1.53,-4.61,-4.60,-4.60
216,-3.38,1.23,-3.38,1.22,-1.22,-1.53,-4.60,-4.60,-4.60
218,-3.35,1.26,-3.34,1.27,-1.27,-1.54,-4.62,-4.61,-4.61
221,-3.30,1.32,-3.30,1.32,-1.32,-1.54,-4.61,-4.61,-4.61
223,-3.26,1.36,-3.26,1.36,-1.36,-1.55,-4.62,-4.61,-4.62
225,-3.22,1.40,-3.21,1.40,-1.40,-1.55,-4.62,-4.62,-4.62
227,-3.17,1.45,-3.17,1.45,-1.45,-1.56,-4.61,-4.62,-4.62
229,-3.12,1.50,-3.13,1.49,-1.49,-1.56,-4.61,-4.62,-4.62
232,-3.08,1.54,-3.09,1.53,-1.53,-1.57,-4.61,-4.62,-4.62
234,-3.05,1.57,-3.05,1.57,-1.57,-1.57,-4.62,-4.61,-4.61
236,-3.01,1.60,-3.00,1.61,-1.61,-1.57,-4.61,-4.61,-4.61
239,-2.96,1.65,-2.96,1.64,-1.64,-1.57,-4.60,-4.61,-4.61
241,-2.94,1.66,-2.92,1.68,-1.68,-1.58,-4.62,-4.60,-4.60
244,-2.87,1.73,-2.88,1.71,-1.71,-1.58,-4.58,-4.60,-4.60
246,-2.85,1.74,-2.84,1.75,-1.75,-1.58,-4.60,-4.59,-4.59
248,-2.81,1.77,-2.80,1.78,-1.78,-1.58,-4.59,-4.58,-4.58
251,-2.76,1.81,-2.76,1.81,-1.81,-1.58,-4.57,-4.57,-4.57
253,-2.73,1.83,-2.72,1.84,-1.84,-1.58,-4.57,-4.56,-4.56
256,-2.68,1.87,-2.68,1.87,-1.87,-1.57,-4.55,-4.55,-4.55
259,-2.64,1.90,-2.64,1.90,-1.90,-1.57,-4.54,-4.54,-4.54
261,-2.60,1.93,-2.60,1.93,-1.93,-1.57,-4.52,-4.53,-4.53
264,-2.56,1.96,-2.56,1.95,-1.95,-1.56,-4.51,-4.51,-4.52
266,-2.51,1.99,-2.53,1.97,-1.97,-1.56,-4.48,-4.50,-4.50
269,-2.49,2.00,-2.49,2.00,-2.00,-1.55,-4.48,-4.49,-4.49
272,-2.45,2.02,-2.45,2.02,-2.02,-1.55,-4.47,-4.47,-4.47
274,-2.45,2.01,-2.42,2.04,-2.04,-1.54,-4.49,-4.46,-4.46
277,-2.41,2.03,-2.39,2.06,-2.06,-1.54,-4.46,-4.44,-4.44
280,-2.37,2.06,-2.35,2.07,-2.07,-1.53,-4.44,-4.42,-4.42
283,-2.32,2.09,-2.32,2.09,-2.09,-1.52,-4.41,-4.41,-4.41
286,-2.28,2.11,-2.29,2.10,-2.10,-1.51,-4.38,-4.39,-4.39
288,-2.24,2.13,-2.26,2.11,-2.11,-1.51,-4.35,-4.37,-4.37
291,-2.21,2.14,-2.23,2.12,-2.12,-1.50,-4.33,-4.35,-4.35
294,-2.21,2.13,-2.20,2.13,-2.13,-1.50,-4.34,-4.33,-4.33
297,-2.17,2.15,-2.18,2.13,-2.13,-1.49,-4.30,-4.31,-4.31
300,-2.17,2.13,-2.16,2.14,-2.14,-1.49,-4.31,-4.29,-4.30
303,-2.17,2.11,-2.14,2.14,-2.14,-1.48,-4.31,-4.28,-4.28
306,-2.14,2.12,-2.12,2.14,-2.14,-1.48,-4.27,-4.25,-4.26
309,-2.10,2.14,-2.10,2.13,-2.13,-1.47,-4.23,-4.23,-4.23
312,-2.07,2.15,-2.09,2.12,-2.12,-1.47,-4.19,-4.21,-4.21
316,-2.05,2.15,-2.08,2.11,-2.11,-1.47,-4.16,-4.19,-4.19
319,-2.05,2.12,-2.07,2.10,-2.10,-1.47,-4.15,-4.17,-4.17
322,-2.05,2.10,-2.06,2.09,-2.09,-1.47,-4.14,-4.15,-4.15
325,-2.05,2.08,-2.05,2.08,-2.08,-1.47,-4.13,-4.13,-4.13
328,-2.05,2.06,-2.04,2.07,-2.07,-1.47,-4.12,-4.11,-4.11
332,-2.05,2.04,-2.03,2.05,-2.05,-1.47,-4.10,-4.09,-4.09
335,-2.05,2.02,-2.03,2.04,-2.04,-1.48,-4.09,-4.07,-4.07
338,-2.05,2.00,-2.02,2.03,-2.03,-1.48,-4.08,-4.05,-4.05
342,-2.03,2.00,-2.01,2.02,-2.02,-1.49,-4.05,-4.03,-4.03
345,-2.03,1.98,-1.99,2.02,-2.02,-1.49,-4.04,-4.01,-4.01
349,-1.98,2.01,-1.98,2.01,-2.01,-1.50,-3.99,-3.99,-3.99
352,-1.96,2.01,-1.97,2.00,-2.00,-1.51,-3.96,-3.97,-3.97
356,-1.93,2.03,-1.96,1.99,-1.99,-1.52,-3.92,-3.96,-3.96
359,-1.93,2.01,-1.95,1.99,-1.99,-1.53,-3.92,-3.94,-3.94
363,-1.93,1.99,-1.94,1.98,-1.98,-1.55,-3.91,-3.92,-3.92
366,-1.93,1.98,-1.94,1.97,-1.97,-1.56,-3.90,-3.91,-3.91
370,-1.93,1.96,-1.93,1.96,-1.96,-1.57,-3.89,-3.89,-3.89
374,-1.93,1.95,-1.93,1.95,-1.95,-1.59,-3.88,-3.88,-3.88
377,-1.93,1.94,-1.92,1.94,-1.94,-1.60,-3.87,-3.87,-3.87
381,-1.93,1.93,-1.92,1.93,-1.93,-1.62,-3.86,-3.85,-3.85
385,-1.93,1.91,-1.92,1.92,-1.92,-1.64,-3.85,-3.84,-3.84
389,-1.93,1.90,-1.92,1.91,-1.91,-1.66,-3.84,-3.83,-3.83
393,-1.93,1.89,-1.92,1.90,-1.90,-1.68,-3.83,-3.82,-3.82
397,-1.93,1.88,-1.93,1.89,-1.89,-1.71,-3.82,-3.81,-3.81
401,-1.93,1.88,-1.93,1.88,-1.88,-1.73,-3.80,-3.80,-3.80
405,-1.93,1.87,-1.93,1.87,-1.87,-1.75,-3.79,-3.80,-3.80
409,-1.93,1.86,-1.93,1.86,-1.86,-1.78,-3.78,-3.79,-3.79
413,-1.93,1.85,-1.93,1.85,-1.85,-1.80,-3.78,-3.78,-3.78
417,-1.93,1.84,-1.93,1.84,-1.84,-1.82,-3.77,-3.77,-3.77
421,-1.93,1.84,-1.94,1.83,-1.83,-1.85,-3.76,-3.77,-3.77
425,-1.93,1.83,-1.94,1.82,-1.82,-1.87,-3.75,-3.76,-3.76
430,-1.93,1.82,-1.93,1.82,-1.82,-1.90,-3.74,-3.75,-3.75
434,-1.93,1.82,-1.93,1.81,-1.81,-1.92,-3.74,-3.74,-3.74
438,-1.93,1.81,-1.93,1.81,-1.81,-1.95,-3.74,-3.74,-3.74
443,-1.93,1.80,-1.92,1.81,-1.81,-1.97,-3.74,-3.73,-3.73
447,-1.93,1.79,-1.91,1.81,-1.81,-1.99,-3.74,-3.72,-3.72
451,-1.93,1.78,-1.90,1.81,-1.81,-2.02,-3.74,-3.71,-3.71
456,-1.90,1.80,-1.88,1.82,-1.82,-2.04,-3.71,-3.70,-3.70
460,-1.87,1.82,-1.86,1.82,-1.82,-2.06,-3.69,-3.69,-3.69
465,-1.84,1.84,-1.84,1.83,-1.83,-2.08,-3.67,-3.68,-3.68
470,-1.79,1.88,-1.82,1.84,-1.84,-2.10,-3.63,-3.66,-3.67
474,-1.79,1.86,-1.79,1.86,-1.86,-2.12,-3.65,-3.65,-3.65
479,-1.79,1.85,-1.77,1.87,-1.87,-2.13,-3.66,-3.64,-3.64
484,-1.73,1.90,-1.74,1.89,-1.89,-2.15,-3.62,-3.62,-3.62
489,-1.70,1.91,-1.71,1.90,-1.90,-2.16,-3.60,-3.61,-3.61
494,-1.65,1.95,-1.67,1.92,-1.92,-2.17,-3.57,-3.59,-3.59
499,-1.65,1.93,-1.64,1.94,-1.94,-2.18,-3.59,-3.58,-3.58
504,-1.63,1.93,-1.60,1.96,-1.96,-2.19,-3.59,-3.56,-3.56
509,-1.58,1.96,-1.57,1.98,-1.98,-2.20,-3.55,-3.54,-3.54
514,-1.54,1.99,-1.53,2.00,-2.00,-2.20,-3.53,-3.52,-3.52
519,-1.49,2.02,-1.49,2.01,-2.01,-2.20,-3.50,-3.51,-3.51
524,-1.44,2.05,-1.45,2.03,-2.03,-2.20,-3.47,-3.49,-3.49
529,-1.41,2.06,-1.41,2.05,-2.05,-2.20,-3.46,-3.47,-3.47
535,-1.37,2.08,-1.37,2.07,-2.07,-2.20,-3.44,-3.45,-3.45
540,-1.33,2.10,-1.33,2.09,-2.09,-2.20,-3.42,-3.43,-3.43
545,-1.29,2.12,-1.29,2.11,-2.11,-2.20,-3.40,-3.41,-3.41
551,-1.26,2.13,-1.25,2.13,-2.13,-2.19,-3.39,-3.39,-3.39
556,-1.23,2.14,-1.21,2.15,-2.15,-2.19,-3.38,-3.37,-3.37
562,-1.19,2.16,-1.18,2.17,-2.17,-2.18,-3.36,-3.35,-3.35
568,-1.14,2.19,-1.14,2.19,-2.19,-2.17,-3.32,-3.33,-3.33
573,-1.11,2.20,-1.10,2.20,-2.20,-2.17,-3.31,-3.31,-3.31
579,-1.07,2.22,-1.07,2.22,-2.22,-2.16,-3.28,-3.29,-3.29
585,-1.05,2.22,-1.04,2.23,-2.23,-2.16,-3.28,-3.27,-3.27
591,-1.00,2.25,-1.01,2.24,-2.24,-2.15,-3.23,-3.25,-3.25
596,-1.00,2.23,-0.99,2.24,-2.24,-2.15,-3.24,-3.23,-3.23
602,-0.95,2.26,-0.96,2.25,-2.25,-2.14,-3.20,-3.21,-3.21
608,-0.93,2.27,-0.95,2.25,-2.25,-2.14,-3.18,-3.20,-3.20
615,-0.91,2.27,-0.93,2.25,-2.25,-2.13,-3.16,-3.18,-3.18
621,-0.91,2.25,-0.92,2.24,-2.24,-2.13,-3.15,-3.16,-3.16
627,-0.91,2.24,-0.91,2.24,-2.24,-2.13,-3.14,-3.15,-3.15
633,-0.91,2.22,-0.91,2.23,-2.23,-2.13,-3.14,-3.13,-3.13
639,-0.91,2.21,-0.90,2.22,-2.22,-2.13,-3.13,-3.12,-3.12
646,-0.91,2.20,-0.90,2.21,-2.21,-2.13,-3.11,-3.11,-3.11
652,-0.91,2.18,-0.90,2.19,-2.19,-2.14,-3.10,-3.09,-3.09
659,-0.91,2.17,-0.90,2.18,-2.18,-2.14,-3.09,-3.08,-3.08
665,-0.91,2.16,-0.90,2.17,-2.17,-2.15,-3.07,-3.07,-3.07
672,-0.91,2.15,-0.90,2.15,-2.15,-2.16,-3.06,-3.06,-3.06
679,-0.91,2.14,-0.91,2.14,-2.14,-2.17,-3.05,-3.05,-3.05
686,-0.91,2.13,-0.91,2.13,-2.13,-2.18,-3.04,-3.04,-3.04
692,-0.91,2.12,-0.91,2.12,-2.12,-2.19,-3.02,-3.03,-3.03
699,-0.91,2.11,-0.91,2.11,-2.11,-2.21,-3.01,-3.02,-3.02
706,-0.91,2.10,-0.91,2.10,-2.10,-2.23,-3.00,-3.01,-3.01
713,-0.91,2.09,-0.91,2.09,-2.09,-2.25,-2.99,-3.00,-3.00
721,-0.91,2.08,-0.91,2.08,-2.08,-2.27,-2.98,-2.99,-2.99
728,-0.91,2.07,-0.91,2.07,-2.07,-2.29,-2.98,-2.98,-2.98
735,-0.91,2.07,-0.91,2.06,-2.06,-2.32,-2.97,-2.97,-2.98
742,-0.91,2.06,-0.91,2.06,-2.06,-2.34,-2.96,-2.97,-2.97
750,-0.91,2.05,-0.91,2.05,-2.05,-2.37,-2.96,-2.96,-2.96
757,-0.91,2.05,-0.90,2.05,-2.05,-2.40,-2.96,-2.95,-2.95
765,-0.91,2.04,-0.89,2.05,-2.05,-2.43,-2.96,-2.95,-2.95
773,-0.91,2.03,-0.88,2.06,-2.06,-2.46,-2.97,-2.94,-2.94
780,-0.88,2.06,-0.87,2.07,-2.07,-2.49,-2.95,-2.94,-2.94
788,-0.86,2.07,-0.85,2.08,-2.08,-2.53,-2.94,-2.93,-2.93
796,-0.83,2.10,-0.83,2.10,-2.10,-2.57,-2.92,-2.93,-2.93
804,-0.80,2.13,-0.81,2.12,-2.12,-2.60,-2.91,-2.92,-2.92
812,-0.77,2.15,-0.78,2.14,-2.14,-2.64,-2.91,-2.92,-2.92
820,-0.77,2.15,-0.75,2.16,-2.16,-2.68,-2.93,-2.92,-2.92
828,-0.73,2.19,-0.72,2.19,-2.19,-2.72,-2.92,-2.91,-2.91
837,-0.70,2.21,-0.69,2.22,-2.22,-2.76,-2.92,-2.91,-2.91
845,-0.67,2.24,-0.65,2.26,-2.26,-2.79,-2.93,-2.91,-2.91
853,-0.61,2.30,-0.61,2.29,-2.29,-2.83,-2.90,-2.91,-2.90
862,-0.56,2.34,-0.57,2.33,-2.33,-2.87,-2.89,-2.90,-2.90
871,-0.52,2.38,-0.53,2.37,-2.37,-2.91,-2.88,-2.90,-2.90
879,-0.49,2.41,-0.49,2.40,-2.40,-2.94,-2.89,-2.90,-2.89
888,-0.44,2.45,-0.45,2.44,-2.44,-2.97,-2.88,-2.89,-2.89
897,-0.41,2.48,-0.41,2.48,-2.48,-3.00,-2.89,-2.89,-2.89
906,-0.38,2.50,-0.36,2.52,-2.52,-3.03,-2.90,-2.88,-2.88
915,-0.35,2.53,-0.32,2.55,-2.55,-3.06,-2.90,-2.87,-2.87
924,-0.29,2.58,-0.28,2.59,-2.59,-3.08,-2.88,-2.87,-2.87
933,-0.24,2.62,-0.24,2.62,-2.62,-3.10,-2.86,-2.86,-2.86
943,-0.18,2.67,-0.20,2.65,-2.65,-3.12,-2.83,-2.85,-2.85
952,-0.15,2.69,-0.16,2.68,-2.68,-3.13,-2.83,-2.84,-2.84
962,-0.11,2.72,-0.12,2.70,-2.70,-3.14,-2.81,-2.83,-2.83
971,-0.07,2.75,-0.09,2.73,-2.73,-3.14,-2.80,-2.81,-2.81
981,-0.04,2.76,-0.05,2.75,-2.75,-3.15,-2.78,-2.80,-2.80
991,-0.02,2.76,-0.02,2.76,-2.76,-3.14,-2.78,-2.78,-2.78
1001,0.00,2.77,0.01,2.78,-2.78,-3.13,-2.77,-2.76,-2.76
1011,0.03,2.78,0.04,2.79,-2.79,-3.12,-2.75,-2.75,-2.75
1021,0.05,2.78,0.07,2.79,-2.79,-3.10,-2.74,-2.72,-2.72
1031,0.10,2.80,0.10,2.80,-2.80,-3.08,-2.70,-2.70,-2.70
1041,0.12,2.80,0.13,2.81,-2.81,-3.05,-2.68,-2.68,-2.68
1052,0.15,2.81,0.15,2.81,-2.81,-3.02,-2.66,-2.65,-2.65
1062,0.17,2.80,0.18,2.81,-2.81,-2.99,-2.64,-2.63,-2.63
1073,0.20,2.80,0.21,2.81,-2.81,-2.95,-2.61,-2.60,-2.60
1084,0.21,2.78,0.23,2.81,-2.81,-2.90,-2.59,-2.57,-2.57
1094,0.26,2.80,0.26,2.80,-2.80,-2.86,-2.54,-2.54,-2.54
1105,0.26,2.77,0.28,2.79,-2.79,-2.81,-2.52,-2.51,-2.51
1116,0.26,2.74,0.30,2.77,-2.77,-2.76,-2.51,-2.47,-2.47
1128,0.31,2.75,0.31,2.75,-2.75,-2.70,-2.43,-2.44,-2.44
1139,0.34,2.74,0.31,2.72,-2.72,-2.64,-2.37,-2.40,-2.40
1150,0.35,2.72,0.31,2.68,-2.68,-2.59,-2.32,-2.36,-2.36
1162,0.35,2.68,0.30,2.63,-2.63,-2.53,-2.28,-2.32,-2.32
1173,0.35,2.63,0.29,2.57,-2.57,-2.47,-2.22,-2.28,-2.28
1185,0.34,2.58,0.27,2.51,-2.51,-2.40,-2.17,-2.24,-2.24
1197,0.28,2.48,0.25,2.44,-2.44,-2.34,-2.16,-2.19,-2.19
1209,0.24,2.39,0.22,2.37,-2.37,-2.28,-2.13,-2.15,-2.15
1221,0.19,2.29,0.20,2.30,-2.30,-2.21,-2.10,-2.10,-2.10
1233,0.14,2.19,0.17,2.22,-2.22,-2.15,-2.08,-2.05,-2.05
1246,0.12,2.12,0.16,2.16,-2.16,-2.08,-2.03,-2.00,-2.00
1258,0.12,2.07,0.15,2.10,-2.10,-2.02,-1.97,-1.94,-1.94
1271,0.12,2.01,0.16,2.05,-2.05,-1.96,-1.92,-1.89,-1.89
1283,0.12,1.95,0.18,2.01,-2.01,-1.90,-1.88,-1.83,-1.83
1296,0.17,1.95,0.21,1.98,-1.98,-1.84,-1.81,-1.77,-1.77
1309,0.19,1.90,0.25,1.97,-1.97,-1.78,-1.77,-1.71,-1.71
1322,0.25,1.90,0.31,1.96,-1.96,-1.72,-1.71,-1.65,-1.65
1335,0.36,1.95,0.39,1.97,-1.97,-1.66,-1.61,-1.59,-1.59
1349,0.48,2.01,0.47,2.00,-2.00,-1.60,-1.51,-1.52,-1.52
1362,0.58,2.04,0.57,2.02,-2.02,-1.54,-1.44,-1.46,-1.46
1376,0.69,2.08,0.67,2.06,-2.06,-1.48,-1.37,-1.39,-1.39
1390,0.80,2.12,0.78,2.10,-2.10,-1.43,-1.30,-1.32,-1.32
1404,0.91,2.16,0.89,2.14,-2.14,-1.37,-1.23,-1.25,-1.25
1418,1.02,2.20,1.00,2.18,-2.18,-1.32,-1.16,-1.18,-1.18
1432,1.13,2.24,1.11,2.22,-2.22,-1.27,-1.09,-1.11,-1.11
1446,1.25,2.29,1.23,2.26,-2.26,-1.22,-1.01,-1.04,-1.04
1461,1.37,2.34,1.34,2.30,-2.30,-1.17,-0.93,-0.96,-0.96
1475,1.45,2.34,1.45,2.34,-2.34,-1.12,-0.89,-0.89,-0.89
1490,1.56,2.37,1.56,2.37,-2.37,-1.08,-0.81,-0.81,-0.81
1505,1.67,2.40,1.67,2.41,-2.41,-1.03,-0.73,-0.73,-0.73
1520,1.78,2.43,1.79,2.44,-2.44,-0.98,-0.66,-0.65,-0.65
1535,1.88,2.45,1.90,2.47,-2.47,-0.94,-0.59,-0.57,-0.57
1550,2.00,2.49,2.02,2.51,-2.51,-0.90,-0.50,-0.49,-0.49
1566,2.11,2.51,2.14,2.54,-2.54,-0.85,-0.43,-0.40,-0.40
1582,2.24,2.55,2.27,2.58,-2.58,-0.81,-0.33,-0.31,-0.31
1597,2.38,2.60,2.39,2.61,-2.61,-0.77,-0.23,-0.22,-0.22
