frequency,raw,error,smoothed,error_smoothed,equalization,parametric_eq,equalized_raw,equalized_smoothed,target
20,-13.92,-11.57,-13.99,-11.63,6.00,5.18,-7.92,-7.99,-2.35
21,-13.47,-11.12,-13.37,-11.02,6.00,5.50,-7.47,-7.37,-2.35
22,-12.79,-10.44,-12.80,-10.45,6.00,5.78,-6.79,-6.80,-2.35
23,-12.29,-9.94,-12.26,-9.90,6.00,6.01,-6.29,-6.26,-2.35
24,-11.66,-9.31,-11.75,-9.40,6.00,6.19,-5.66,-5.75,-2.35
25,-11.24,-8.89,-11.28,-8.93,6.00,6.31,-5.24,-5.28,-2.35
26,-10.90,-8.54,-10.85,-8.50,6.00,6.38,-4.90,-4.85,-2.35
27,-10.36,-8.01,-10.45,-8.09,6.00,6.40,-4.36,-4.45,-2.35
28,-10.09,-7.73,-10.07,-7.72,6.00,6.36,-4.09,-4.07,-2.35
29,-9.85,-7.49,-9.72,-7.37,6.00,6.29,-3.85,-3.72,-2.35
30,-9.40,-7.04,-9.39,-7.04,6.00,6.18,-3.40,-3.39,-2.35
31,-9.02,-6.66,-9.07,-6.72,6.00,6.05,-3.02,-3.07,-2.35
32,-8.73,-6.37,-8.76,-6.41,5.95,5.89,-2.78,-2.82,-2.35
33,-8.53,-6.18,-8.47,-6.12,5.84,5.72,-2.69,-2.63,-2.35
34,-8.29,-5.94,-8.19,-5.83,5.68,5.54,-2.61,-2.51,-2.35
35,-7.91,-5.56,-7.92,-5.57,5.49,5.36,-2.42,-2.43,-2.35
36,-7.63,-5.28,-7.67,-5.32,5.29,5.18,-2.34,-2.38,-2.35
37,-7.41,-5.05,-7.44,-5.09,5.09,4.99,-2.32,-2.35,-2.35
38,-7.14,-4.79,-7.23,-4.88,4.88,4.81,-2.26,-2.35,-2.35
39,-6.96,-4.61,-7.04,-4.68,4.68,4.63,-2.28,-2.35,-2.35
40,-6.93,-4.58,-6.86,-4.51,4.51,4.46,-2.43,-2.35,-2.35
41,-6.74,-4.38,-6.69,-4.34,4.34,4.29,-2.40,-2.35,-2.35
42,-6.51,-4.15,-6.53,-4.18,4.18,4.14,-2.32,-2.35,-2.35
43,-6.50,-4.15,-6.38,-4.03,4.03,3.98,-2.47,-2.35,-2.35
44,-6.27,-3.92,-6.23,-3.88,3.88,3.84,-2.39,-2.35,-2.35
45,-6.04,-3.68,-6.09,-3.73,3.73,3.70,-2.30,-2.35,-2.35
46,-5.97,-3.62,-5.95,-3.60,3.60,3.56,-2.37,-2.35,-2.35
47,-5.80,-3.45,-5.82,-3.47,3.47,3.44,-2.33,-2.35,-2.35
48,-5.57,-3.22,-5.71,-3.36,3.36,3.32,-2.21,-2.35,-2.35
49,-5.57,-3.22,-5.61,-3.26,3.26,3.20,-2.31,-2.35,-2.35
50,-5.57,-3.22,-5.53,-3.17,3.17,3.09,-2.39,-2.35,-2.35
51,-5.52,-3.17,-5.44,-3.09,3.09,2.99,-2.43,-2.35,-2.35
52,-5.34,-2.99,-5.36,-3.01,3.01,2.89,-2.33,-2.35,-2.35
53,-5.34,-2.99,-5.28,-2.92,2.92,2.80,-2.42,-2.35,-2.35
54,-5.12,-2.76,-5.18,-2.83,2.83,2.71,-2.28,-2.35,-2.35
55,-5.12,-2.76,-5.08,-2.73,2.73,2.63,-2.39,-2.35,-2.35
56,-5.12,-2.76,-4.97,-2.62,2.62,2.55,-2.50,-2.35,-2.35
57,-4.89,-2.54,-4.86,-2.51,2.51,2.47,-2.38,-2.35,-2.35
58,-4.66,-2.31,-4.75,-2.40,2.40,2.40,-2.26,-2.35,-2.35
59,-4.66,-2.31,-4.66,-2.30,2.30,2.33,-2.36,-2.35,-2.35
60,-4.44,-2.09,-4.58,-2.22,2.22,2.27,-2.22,-2.35,-2.35
61,-4.44,-2.08,-4.52,-2.16,2.16,2.20,-2.27,-2.35,-2.35
62,-4.43,-2.08,-4.47,-2.12,2.12,2.15,-2.32,-2.35,-2.35
63,-4.43,-2.08,-4.43,-2.08,2.08,2.09,-2.36,-2.35,-2.35
64,-4.43,-2.08,-4.39,-2.04,2.04,2.04,-2.39,-2.35,-2.35
65,-4.43,-2.08,-4.35,-2.00,2.00,1.99,-2.43,-2.35,-2.35
66,-4.43,-2.07,-4.29,-1.94,1.94,1.94,-2.49,-2.35,-2.35
67,-4.20,-1.85,-4.21,-1.86,1.86,1.89,-2.34,-2.35,-2.35
68,-4.10,-1.75,-4.12,-1.77,1.77,1.85,-2.34,-2.35,-2.35
69,-3.98,-1.63,-4.01,-1.66,1.66,1.81,-2.32,-2.35,-2.35
70,-3.99,-1.64,-3.89,-1.54,1.54,1.77,-2.45,-2.35,-2.35
71,-3.78,-1.42,-3.77,-1.41,1.41,1.73,-2.36,-2.35,-2.35
72,-3.56,-1.21,-3.65,-1.30,1.30,1.69,-2.26,-2.35,-2.35
73,-3.58,-1.23,-3.56,-1.20,1.20,1.66,-2.38,-2.35,-2.35
74,-3.36,-1.01,-3.48,-1.12,1.12,1.62,-2.24,-2.35,-2.35
75,-3.37,-1.02,-3.42,-1.07,1.07,1.59,-2.31,-2.35,-2.35
76,-3.38,-1.03,-3.38,-1.03,1.03,1.56,-2.35,-2.35,-2.35
77,-3.39,-1.03,-3.37,-1.01,1.01,1.53,-2.37,-2.35,-2.35
78,-3.39,-1.04,-3.37,-1.01,1.01,1.51,-2.38,-2.35,-2.35
79,-3.39,-1.04,-3.38,-1.03,1.03,1.48,-2.37,-2.35,-2.35
80,-3.40,-1.05,-3.40,-1.04,1.04,1.46,-2.36,-2.35,-2.35
81,-3.42,-1.06,-3.42,-1.07,1.07,1.43,-2.35,-2.35,-2.35
82,-3.44,-1.08,-3.45,-1.09,1.09,1.41,-2.34,-2.35,-2.35
83,-3.46,-1.11,-3.47,-1.12,1.12,1.39,-2.34,-2.35,-2.35
84,-3.48,-1.13,-3.49,-1.14,1.14,1.37,-2.34,-2.35,-2.35
85,-3.50,-1.15,-3.50,-1.15,1.15,1.35,-2.35,-2.35,-2.35
86,-3.52,-1.17,-3.50,-1.15,1.15,1.33,-2.37,-2.35,-2.35
87,-3.53,-1.18,-3.50,-1.15,1.15,1.31,-2.38,-2.35,-2.35
88,-3.54,-1.19,-3.48,-1.13,1.13,1.30,-2.41,-2.35,-2.35
89,-3.55,-1.20,-3.47,-1.11,1.11,1.28,-2.43,-2.35,-2.35
90,-3.37,-1.02,-3.44,-1.09,1.09,1.27,-2.28,-2.35,-2.35
91,-3.34,-0.98,-3.42,-1.07,1.07,1.25,-2.27,-2.35,-2.35
92,-3.35,-0.99,-3.40,-1.04,1.04,1.24,-2.30,-2.35,-2.35
93,-3.36,-1.01,-3.38,-1.02,1.02,1.22,-2.34,-2.35,-2.35
94,-3.38,-1.02,-3.36,-1.01,1.01,1.21,-2.37,-2.35,-2.35
95,-3.40,-1.04,-3.34,-0.99,0.99,1.20,-2.41,-2.35,-2.35
96,-3.42,-1.06,-3.33,-0.97,0.97,1.19,-2.44,-2.35,-2.35
97,-3.33,-0.98,-3.32,-0.96,0.96,1.18,-2.37,-2.35,-2.35
98,-3.23,-0.88,-3.31,-0.95,0.95,1.17,-2.28,-2.36,-2.36
99,-3.25,-0.90,-3.30,-0.94,0.94,1.16,-2.31,-2.36,-2.36
100,-3.27,-0.91,-3.30,-0.94,0.94,1.15,-2.33,-2.36,-2.36
101,-3.29,-0.93,-3.30,-0.95,0.95,1.14,-2.34,-2.36,-2.36
102,-3.31,-0.95,-3.31,-0.95,0.95,1.14,-2.35,-2.36,-2.36
104,-3.33,-0.97,-3.31,-0.96,0.96,1.12,-2.37,-2.36,-2.36
105,-3.35,-0.99,-3.31,-0.96,0.96,1.12,-2.39,-2.36,-2.36
106,-3.37,-1.02,-3.31,-0.96,0.96,1.11,-2.42,-2.36,-2.36
107,-3.40,-1.05,-3.31,-0.95,0.95,1.10,-2.45,-2.36,-2.36
108,-3.23,-0.88,-3.30,-0.95,0.95,1.10,-2.29,-2.35,-2.35
109,-3.23,-0.88,-3.29,-0.94,0.94,1.09,-2.29,-2.35,-2.35
110,-3.25,-0.90,-3.29,-0.94,0.94,1.09,-2.32,-2.35,-2.35
111,-3.28,-0.93,-3.29,-0.94,0.94,1.09,-2.34,-2.35,-2.35
112,-3.29,-0.95,-3.29,-0.94,0.94,1.08,-2.35,-2.35,-2.35
113,-3.31,-0.96,-3.30,-0.95,0.95,1.08,-2.35,-2.34,-2.34
114,-3.32,-0.98,-3.30,-0.96,0.96,1.08,-2.35,-2.34,-2.34
115,-3.32,-0.99,-3.31,-0.98,0.98,1.07,-2.35,-2.33,-2.33
117,-3.33,-1.00,-3.32,-0.99,0.99,1.07,-2.34,-2.33,-2.33
118,-3.33,-1.00,-3.32,-1.00,1.00,1.07,-2.33,-2.32,-2.32
119,-3.32,-1.00,-3.32,-1.00,1.00,1.07,-2.32,-2.32,-2.32
120,-3.32,-1.01,-3.32,-1.01,1.01,1.07,-2.31,-2.31,-2.31
121,-3.31,-1.01,-3.32,-1.01,1.01,1.07,-2.30,-2.30,-2.30
123,-3.30,-1.01,-3.31,-1.01,1.01,1.06,-2.29,-2.30,-2.30
124,-3.30,-1.01,-3.31,-1.02,1.02,1.06,-2.28,-2.29,-2.29
125,-3.29,-1.01,-3.30,-1.02,1.02,1.06,-2.27,-2.28,-2.28
126,-3.29,-1.01,-3.30,-1.02,1.02,1.07,-2.26,-2.28,-2.28
128,-3.28,-1.01,-3.29,-1.02,1.02,1.07,-2.26,-2.27,-2.27
129,-3.28,-1.02,-3.27,-1.01,1.01,1.07,-2.27,-2.26,-2.26
130,-3.28,-1.02,-3.25,-1.00,1.00,1.07,-2.28,-2.25,-2.25
131,-3.27,-1.03,-3.22,-0.98,0.98,1.07,-2.30,-2.24,-2.24
133,-3.27,-1.04,-3.19,-0.95,0.95,1.07,-2.33,-2.24,-2.24
134,-3.10,-0.87,-3.15,-0.92,0.92,1.08,-2.17,-2.23,-2.23
135,-3.05,-0.82,-3.12,-0.89,0.89,1.08,-2.15,-2.22,-2.22
137,-3.05,-0.83,-3.09,-0.87,0.87,1.08,-2.18,-2.22,-2.22
138,-3.05,-0.84,-3.06,-0.85,0.85,1.09,-2.20,-2.21,-2.21
140,-3.05,-0.84,-3.05,-0.84,0.84,1.09,-2.21,-2.21,-2.21
141,-3.05,-0.85,-3.04,-0.84,0.84,1.10,-2.22,-2.20,-2.20
142,-3.05,-0.86,-3.03,-0.83,0.83,1.10,-2.22,-2.20,-2.20
144,-3.05,-0.86,-3.03,-0.84,0.84,1.11,-2.21,-2.19,-2.19
145,-3.05,-0.86,-3.04,-0.85,0.85,1.11,-2.21,-2.19,-2.19
147,-3.05,-0.86,-3.05,-0.86,0.86,1.12,-2.19,-2.19,-2.19
148,-3.05,-0.87,-3.06,-0.88,0.88,1.12,-2.17,-2.18,-2.18
150,-3.05,-0.87,-3.09,-0.90,0.90,1.13,-2.15,-2.18,-2.18
151,-3.05,-0.87,-3.12,-0.94,0.94,1.14,-2.12,-2.18,-2.18
153,-3.08,-0.90,-3.15,-0.97,0.97,1.15,-2.11,-2.18,-2.18
154,-3.25,-1.07,-3.18,-1.00,1.00,1.15,-2.25,-2.18,-2.18
156,-3.29,-1.11,-3.21,-1.04,1.04,1.16,-2.26,-2.18,-2.18
157,-3.29,-1.12,-3.24,-1.06,1.06,1.17,-2.23,-2.18,-2.18
159,-3.30,-1.12,-3.26,-1.08,1.08,1.18,-2.21,-2.18,-2.18
160,-3.30,-1.13,-3.28,-1.11,1.11,1.18,-2.20,-2.18,-2.18
162,-3.31,-1.13,-3.31,-1.14,1.14,1.20,-2.18,-2.18,-2.18
164,-3.32,-1.14,-3.35,-1.18,1.18,1.21,-2.14,-2.18,-2.18
165,-3.33,-1.16,-3.41,-1.23,1.23,1.21,-2.10,-2.17,-2.17
167,-3.39,-1.21,-3.49,-1.32,1.32,1.23,-2.07,-2.17,-2.17
169,-3.57,-1.40,-3.59,-1.42,1.42,1.24,-2.16,-2.17,-2.17
170,-3.64,-1.47,-3.71,-1.54,1.54,1.24,-2.10,-2.17,-2.17
172,-3.81,-1.65,-3.83,-1.67,1.67,1.26,-2.14,-2.16,-2.16
174,-4.03,-1.87,-3.96,-1.80,1.80,1.27,-2.23,-2.16,-2.16
175,-4.04,-1.89,-4.07,-1.91,1.91,1.28,-2.13,-2.15,-2.15
177,-4.26,-2.11,-4.15,-2.00,2.00,1.29,-2.25,-2.15,-2.15
179,-4.27,-2.13,-4.20,-2.06,2.06,1.31,-2.21,-2.14,-2.14
181,-4.27,-2.13,-4.21,-2.08,2.08,1.32,-2.19,-2.13,-2.13
183,-4.26,-2.13,-4.19,-2.06,2.06,1.33,-2.20,-2.13,-2.13
184,-4.16,-2.04,-4.13,-2.01,2.01,1.34,-2.14,-2.12,-2.12
186,-4.02,-1.91,-4.06,-1.95,1.95,1.36,-2.06,-2.11,-2.11
188,-4.01,-1.91,-3.99,-1.89,1.89,1.37,-2.12,-2.10,-2.10
190,-3.77,-1.68,-3.91,-1.82,1.82,1.39,-1.95,-2.09,-2.09
192,-3.76,-1.68,-3.85,-1.76,1.76,1.40,-2.00,-2.08,-2.08
194,-3.76,-1.68,-3.79,-1.72,1.72,1.42,-2.04,-2.07,-2.07
196,-3.75,-1.69,-3.75,-1.69,1.69,1.43,-2.06,-2.07,-2.07
198,-3.75,-1.69,-3.72,-1.66,1.66,1.45,-2.09,-2.06,-2.06
200,-3.75,-1.70,-3.69,-1.64,1.64,1.46,-2.11,-2.05,-2.05
202,-3.75,-1.71,-3.66,-1.62,1.62,1.48,-2.13,-2.04,-2.04
204,-3.68,-1.65,-3.63,-1.60,1.60,1.50,-2.08,-2.03,-2.03
206,-3.53,-1.51,-3.61,-1.58,1.58,1.51,-1.95,-2.02,-2.02
208,-3.53,-1.52,-3.58,-1.56,1.56,1.53,-1.97,-2.02,-2.02
210,-3.54,-1.53,-3.55,-1.54,1.54,1.54,-1.99,-2.01,-2.01
212,-3.54,-1.53,-3.54,-1.53,1.53,1.56,-2.01,-2.00,-2.00
214,-3.54,-1.54,-3.53,-1.53,1.53,1.58,-2.01,-2.00,-2.00
216,-3.54,-1.55,-3.53,-1.54,1.54,1.59,-2.00,-1.99,-1.99
218,-3.55,-1.56,-3.54,-1.56,1.56,1.61,-1.99,-1.98,-1.98
221,-3.56,-1.58,-3.56,-1.59,1.59,1.63,-1.97,-1.98,-1.98
223,-3.56,-1.60,-3.60,-1.63,1.63,1.65,-1.94,-1.97,-1.97
225,-3.57,-1.61,-3.63,-1.67,1.67,1.67,-1.90,-1.96,-1.96
227,-3.58,-1.62,-3.67,-1.71,1.71,1.68,-1.86,-1.95,-1.95
229,-3.74,-1.79,-3.70,-1.75,1.75,1.70,-1.99,-1.95,-1.95
232,-3.81,-1.87,-3.71,-1.78,1.78,1.72,-2.03,-1.94,-1.94
234,-3.81,-1.88,-3.72,-1.79,1.79,1.74,-2.02,-1.93,-1.93
236,-3.81,-1.89,-3.71,-1.79,1.79,1.76,-2.02,-1.92,-1.92
239,-3.66,-1.75,-3.68,-1.77,1.77,1.78,-1.89,-1.91,-1.91
241,-3.57,-1.67,-3.64,-1.75,1.75,1.80,-1.82,-1.90,-1.90
244,-3.56,-1.67,-3.60,-1.72,1.72,1.82,-1.84,-1.89,-1.89
246,-3.54,-1.67,-3.57,-1.69,1.69,1.84,-1.85,-1.87,-1.87
248,-3.52,-1.66,-3.53,-1.67,1.67,1.85,-1.85,-1.86,-1.86
251,-3.51,-1.66,-3.51,-1.66,1.66,1.88,-1.85,-1.85,-1.85
253,-3.49,-1.65,-3.49,-1.65,1.65,1.89,-1.84,-1.84,-1.84
256,-3.48,-1.66,-3.48,-1.65,1.65,1.92,-1.83,-1.83,-1.83
259,-3.48,-1.66,-3.48,-1.66,1.66,1.94,-1.82,-1.82,-1.82
261,-3.48,-1.67,-3.48,-1.67,1.67,1.95,-1.81,-1.81,-1.81
264,-3.48,-1.69,-3.48,-1.68,1.68,1.98,-1.80,-1.80,-1.80
266,-3.49,-1.71,-3.48,-1.70,1.70,1.99,-1.80,-1.78,-1.78
269,-3.50,-1.73,-3.49,-1.71,1.71,2.01,-1.79,-1.77,-1.77
272,-3.51,-1.74,-3.49,-1.73,1.73,2.04,-1.78,-1.76,-1.76
274,-3.51,-1.76,-3.51,-1.76,1.76,2.05,-1.76,-1.75,-1.75
277,-3.52,-1.77,-3.53,-1.79,1.79,2.07,-1.73,-1.74,-1.74
280,-3.52,-1.78,-3.56,-1.83,1.83,2.09,-1.69,-1.74,-1.74
283,-3.52,-1.80,-3.60,-1.87,1.87,2.11,-1.65,-1.73,-1.73
286,-3.61,-1.89,-3.64,-1.92,1.92,2.13,-1.69,-1.72,-1.72
288,-3.76,-2.05,-3.68,-1.97,1.97,2.15,-1.79,-1.71,-1.71
291,-3.76,-2.06,-3.71,-2.01,2.01,2.17,-1.75,-1.70,-1.70
294,-3.77,-2.08,-3.74,-2.05,2.05,2.19,-1.72,-1.69,-1.69
297,-3.77,-2.09,-3.76,-2.08,2.08,2.20,-1.70,-1.68,-1.68
300,-3.78,-2.11,-3.78,-2.10,2.10,2.22,-1.68,-1.68,-1.68
303,-3.79,-2.12,-3.79,-2.12,2.12,2.24,-1.67,-1.67,-1.67
306,-3.80,-2.14,-3.80,-2.14,2.14,2.26,-1.66,-1.66,-1.66
309,-3.81,-2.15,-3.81,-2.16,2.16,2.27,-1.65,-1.65,-1.65
312,-3.82,-2.17,-3.83,-2.19,2.19,2.29,-1.63,-1.65,-1.65
316,-3.83,-2.19,-3.87,-2.22,2.22,2.31,-1.60,-1.64,-1.64
319,-3.84,-2.21,-3.91,-2.27,2.27,2.33,-1.57,-1.63,-1.63
322,-3.87,-2.24,-3.96,-2.33,2.33,2.34,-1.54,-1.63,-1.63
325,-4.10,-2.48,-4.01,-2.39,2.39,2.36,-1.71,-1.62,-1.62
328,-4.12,-2.51,-4.07,-2.45,2.45,2.37,-1.67,-1.61,-1.61
332,-4.15,-2.54,-4.12,-2.51,2.51,2.39,-1.64,-1.61,-1.61
335,-4.17,-2.57,-4.17,-2.56,2.56,2.40,-1.61,-1.60,-1.60
338,-4.20,-2.60,-4.20,-2.61,2.61,2.41,-1.59,-1.60,-1.60
342,-4.22,-2.63,-4.23,-2.64,2.64,2.43,-1.58,-1.59,-1.59
345,-4.24,-2.65,-4.25,-2.67,2.67,2.44,-1.57,-1.59,-1.59
349,-4.25,-2.67,-4.26,-2.68,2.68,2.45,-1.57,-1.58,-1.58
352,-4.27,-2.68,-4.26,-2.68,2.68,2.46,-1.58,-1.58,-1.58
356,-4.28,-2.70,-4.25,-2.68,2.68,2.47,-1.60,-1.58,-1.58
359,-4.29,-2.72,-4.24,-2.66,2.66,2.48,-1.63,-1.57,-1.57
363,-4.30,-2.73,-4.21,-2.64,2.64,2.49,-1.66,-1.57,-1.57
366,-4.12,-2.55,-4.18,-2.61,2.61,2.50,-1.51,-1.57,-1.57
370,-4.09,-2.53,-4.16,-2.59,2.59,2.51,-1.50,-1.57,-1.57
374,-4.10,-2.54,-4.13,-2.57,2.57,2.52,-1.53,-1.56,-1.56
377,-4.10,-2.54,-4.12,-2.55,2.55,2.52,-1.55,-1.56,-1.56
381,-4.11,-2.55,-4.11,-2.55,2.55,2.53,-1.56,-1.56,-1.56
385,-4.11,-2.56,-4.11,-2.55,2.55,2.54,-1.56,-1.55,-1.55
389,-4.12,-2.57,-4.11,-2.57,2.57,2.54,-1.55,-1.55,-1.55
393,-4.12,-2.58,-4.13,-2.58,2.58,2.55,-1.54,-1.54,-1.54
397,-4.13,-2.60,-4.14,-2.61,2.61,2.55,-1.53,-1.53,-1.53
401,-4.15,-2.62,-4.16,-2.63,2.63,2.55,-1.51,-1.52,-1.52
405,-4.16,-2.65,-4.17,-2.66,2.66,2.55,-1.50,-1.51,-1.51
409,-4.17,-2.67,-4.17,-2.68,2.68,2.55,-1.49,-1.50,-1.50
413,-4.18,-2.70,-4.17,-2.69,2.69,2.55,-1.49,-1.48,-1.48
417,-4.19,-2.73,-4.15,-2.69,2.69,2.55,-1.50,-1.46,-1.46
421,-4.19,-2.76,-4.12,-2.69,2.69,2.55,-1.50,-1.44,-1.44
425,-4.16,-2.75,-4.08,-2.68,2.68,2.55,-1.49,-1.41,-1.41
430,-3.95,-2.57,-4.04,-2.66,2.66,2.55,-1.29,-1.38,-1.38
434,-3.94,-2.59,-3.99,-2.64,2.64,2.54,-1.29,-1.35,-1.35
438,-3.91,-2.59,-3.94,-2.63,2.63,2.54,-1.28,-1.31,-1.32
443,-3.88,-2.60,-3.89,-2.61,2.61,2.53,-1.26,-1.28,-1.28
447,-3.84,-2.60,-3.84,-2.60,2.60,2.52,-1.24,-1.24,-1.24
451,-3.79,-2.59,-3.79,-2.59,2.59,2.52,-1.21,-1.20,-1.20
456,-3.75,-2.59,-3.73,-2.57,2.57,2.51,-1.18,-1.16,-1.16
460,-3.70,-2.58,-3.67,-2.55,2.55,2.50,-1.15,-1.12,-1.12
465,-3.65,-2.57,-3.60,-2.52,2.52,2.49,-1.13,-1.08,-1.08
470,-3.60,-2.57,-3.52,-2.49,2.49,2.48,-1.11,-1.04,-1.04
474,-3.39,-2.39,-3.45,-2.45,2.45,2.47,-0.94,-1.00,-1.00
479,-3.28,-2.32,-3.37,-2.41,2.41,2.46,-0.87,-0.96,-0.96
484,-3.24,-2.32,-3.29,-2.37,2.37,2.44,-0.88,-0.93,-0.92
489,-3.21,-2.32,-3.22,-2.33,2.33,2.43,-0.89,-0.89,-0.89
494,-3.19,-2.33,-3.15,-2.29,2.29,2.41,-0.90,-0.87,-0.87
499,-3.18,-2.33,-3.09,-2.25,2.25,2.40,-0.93,-0.84,-0.84
504,-2.98,-2.16,-3.02,-2.20,2.20,2.38,-0.78,-0.82,-0.82
509,-2.94,-2.13,-2.96,-2.15,2.15,2.37,-0.78,-0.81,-0.81
514,-2.94,-2.14,-2.90,-2.10,2.10,2.35,-0.84,-0.80,-0.80
519,-2.91,-2.12,-2.85,-2.05,2.05,2.33,-0.85,-0.79,-0.79
524,-2.74,-1.95,-2.80,-2.01,2.01,2.31,-0.74,-0.79,-0.79
529,-2.77,-1.98,-2.75,-1.96,1.96,2.29,-0.81,-0.79,-0.79
535,-2.65,-1.86,-2.72,-1.93,1.93,2.27,-0.73,-0.79,-0.79
540,-2.63,-1.83,-2.70,-1.90,1.90,2.25,-0.74,-0.80,-0.80
545,-2.69,-1.88,-2.69,-1.88,1.88,2.23,-0.82,-0.81,-0.81
551,-2.76,-1.94,-2.68,-1.86,1.86,2.21,-0.89,-0.82,-0.82
556,-2.79,-1.96,-2.69,-1.86,1.86,2.19,-0.93,-0.83,-0.83
562,-2.66,-1.82,-2.71,-1.87,1.87,2.16,-0.79,-0.84,-0.84
568,-2.72,-1.87,-2.74,-1.89,1.89,2.14,-0.83,-0.85,-0.85
573,-2.78,-1.91,-2.79,-1.93,1.93,2.11,-0.85,-0.86,-0.86
579,-2.82,-1.96,-2.85,-1.98,1.98,2.09,-0.84,-0.87,-0.87
585,-2.86,-1.99,-2.92,-2.05,2.05,2.06,-0.81,-0.87,-0.87
591,-2.89,-2.02,-2.99,-2.12,2.12,2.03,-0.77,-0.87,-0.87
596,-2.95,-2.09,-3.07,-2.20,2.20,2.01,-0.75,-0.87,-0.87
602,-3.23,-2.37,-3.13,-2.27,2.27,1.98,-0.96,-0.86,-0.86
608,-3.39,-2.54,-3.17,-2.32,2.32,1.96,-1.07,-0.85,-0.85
615,-3.20,-2.37,-3.18,-2.35,2.35,1.92,-0.86,-0.83,-0.83
621,-3.15,-2.34,-3.15,-2.34,2.34,1.90,-0.81,-0.81,-0.81
627,-3.14,-2.35,-3.09,-2.30,2.30,1.87,-0.84,-0.79,-0.79
633,-3.10,-2.33,-3.00,-2.23,2.23,1.84,-0.86,-0.76,-0.76
639,-2.83,-2.09,-2.88,-2.15,2.15,1.81,-0.68,-0.74,-0.74
646,-2.63,-1.92,-2.76,-2.05,2.05,1.78,-0.57,-0.71,-0.71
652,-2.60,-1.92,-2.63,-1.95,1.95,1.75,-0.64,-0.67,-0.67
659,-2.56,-1.92,-2.50,-1.86,1.86,1.72,-0.70,-0.64,-0.64
665,-2.33,-1.72,-2.38,-1.77,1.77,1.69,-0.55,-0.61,-0.60
672,-2.24,-1.67,-2.27,-1.70,1.70,1.65,-0.54,-0.57,-0.57
679,-2.20,-1.66,-2.17,-1.63,1.63,1.62,-0.56,-0.54,-0.54
686,-2.15,-1.65,-2.09,-1.58,1.58,1.59,-0.57,-0.50,-0.50
692,-2.02,-1.55,-2.02,-1.55,1.55,1.56,-0.48,-0.47,-0.47
699,-1.87,-1.43,-1.96,-1.52,1.52,1.53,-0.35,-0.44,-0.44
706,-1.86,-1.45,-1.92,-1.51,1.51,1.49,-0.35,-0.41,-0.41
713,-1.87,-1.48,-1.89,-1.50,1.50,1.46,-0.36,-0.39,-0.39
721,-1.88,-1.52,-1.87,-1.50,1.50,1.42,-0.38,-0.36,-0.36
728,-1.91,-1.57,-1.85,-1.51,1.51,1.39,-0.41,-0.34,-0.34
735,-1.85,-1.53,-1.82,-1.51,1.51,1.35,-0.35,-0.32,-0.32
742,-1.75,-1.45,-1.80,-1.50,1.50,1.32,-0.25,-0.30,-0.30
750,-1.79,-1.50,-1.77,-1.49,1.49,1.28,-0.30,-0.29,-0.29
757,-1.82,-1.55,-1.73,-1.46,1.46,1.25,-0.36,-0.27,-0.27
765,-1.62,-1.36,-1.69,-1.43,1.43,1.21,-0.19,-0.26,-0.26
773,-1.64,-1.39,-1.63,-1.38,1.38,1.17,-0.26,-0.25,-0.25
780,-1.60,-1.36,-1.57,-1.33,1.33,1.13,-0.27,-0.24,-0.24
788,-1.44,-1.21,-1.50,-1.27,1.27,1.10,-0.17,-0.23,-0.23
796,-1.44,-1.22,-1.42,-1.20,1.20,1.06,-0.23,-0.22,-0.22
804,-1.44,-1.22,-1.35,-1.14,1.14,1.02,-0.30,-0.21,-0.21
812,-1.23,-1.02,-1.27,-1.07,1.07,0.98,-0.16,-0.20,-0.20
820,-1.20,-1.00,-1.19,-1.00,1.00,0.94,-0.20,-0.20,-0.20
828,-1.16,-0.97,-1.13,-0.94,0.94,0.90,-0.22,-0.19,-0.19
837,-0.96,-0.78,-1.06,-0.88,0.88,0.86,-0.08,-0.18,-0.18
845,-0.95,-0.77,-1.00,-0.83,0.83,0.82,-0.12,-0.18,-0.18
853,-0.94,-0.77,-0.95,-0.78,0.78,0.78,-0.15,-0.17,-0.17
862,-0.93,-0.76,-0.91,-0.74,0.74,0.74,-0.18,-0.16,-0.16
871,-0.92,-0.76,-0.86,-0.70,0.70,0.69,-0.21,-0.15,-0.15
879,-0.90,-0.75,-0.81,-0.66,0.66,0.66,-0.24,-0.15,-0.15
888,-0.68,-0.54,-0.75,-0.61,0.61,0.61,-0.07,-0.14,-0.14
897,-0.67,-0.54,-0.68,-0.55,0.55,0.57,-0.12,-0.13,-0.13
906,-0.67,-0.55,-0.62,-0.49,0.49,0.52,-0.18,-0.12,-0.12
915,-0.52,-0.41,-0.54,-0.43,0.43,0.48,-0.09,-0.11,-0.11
924,-0.45,-0.35,-0.47,-0.36,0.36,0.43,-0.09,-0.10,-0.10
933,-0.45,-0.36,-0.39,-0.30,0.30,0.39,-0.15,-0.09,-0.09
943,-0.23,-0.15,-0.32,-0.24,0.24,0.34,0.01,-0.08,-0.08
952,-0.23,-0.16,-0.25,-0.18,0.18,0.29,-0.05,-0.07,-0.07
962,-0.23,-0.18,-0.19,-0.13,0.13,0.24,-0.10,-0.05,-0.05
971,-0.11,-0.07,-0.12,-0.08,0.08,0.19,-0.03,-0.04,-0.04
981,-0.01,0.02,-0.06,-0.04,0.04,0.14,0.03,-0.02,-0.02
991,-0.01,0.00,-0.00,0.01,-0.01,0.09,-0.01,-0.01,-0.01
1001,0.00,-0.01,0.06,0.05,-0.05,0.03,-0.05,0.01,0.01
1011,0.06,0.03,0.13,0.09,-0.09,-0.02,-0.03,0.03,0.03
1021,0.25,0.20,0.19,0.14,-0.14,-0.08,0.11,0.06,0.05
1031,0.27,0.19,0.26,0.18,-0.18,-0.13,0.08,0.08,0.08
1041,0.28,0.18,0.33,0.23,-0.23,-0.19,0.05,0.10,0.10
1052,0.48,0.35,0.40,0.27,-0.27,-0.25,0.21,0.13,0.13
1062,0.53,0.37,0.47,0.31,-0.31,-0.31,0.22,0.16,0.16
1073,0.54,0.35,0.54,0.35,-0.35,-0.38,0.19,0.19,0.19
1084,0.55,0.32,0.61,0.39,-0.39,-0.44,0.15,0.22,0.22
1094,0.63,0.38,0.69,0.44,-0.44,-0.50,0.20,0.25,0.25
1105,0.80,0.51,0.77,0.48,-0.48,-0.57,0.31,0.29,0.29
1116,0.81,0.49,0.86,0.53,-0.53,-0.64,0.28,0.32,0.32
1128,1.03,0.68,0.95,0.59,-0.59,-0.72,0.44,0.36,0.36
1139,1.08,0.69,1.04,0.65,-0.65,-0.79,0.43,0.39,0.39
1150,1.10,0.67,1.14,0.71,-0.71,-0.86,0.38,0.42,0.42
1162,1.18,0.72,1.23,0.78,-0.78,-0.94,0.40,0.46,0.46
1173,1.34,0.85,1.34,0.85,-0.85,-1.02,0.49,0.49,0.49
1185,1.47,0.95,1.44,0.92,-0.92,-1.10,0.55,0.52,0.52
1197,1.57,1.03,1.55,1.00,-1.00,-1.19,0.57,0.55,0.55
1209,1.57,1.00,1.65,1.08,-1.08,-1.28,0.50,0.57,0.57
1221,1.81,1.21,1.76,1.16,-1.16,-1.36,0.65,0.60,0.60
1233,1.85,1.23,1.86,1.25,-1.25,-1.45,0.60,0.62,0.62
1246,2.05,1.42,1.97,1.33,-1.33,-1.55,0.72,0.64,0.64
1258,2.06,1.41,2.07,1.42,-1.42,-1.64,0.64,0.65,0.65
1271,2.08,1.41,2.18,1.51,-1.51,-1.74,0.56,0.67,0.67
1283,2.25,1.58,2.28,1.61,-1.61,-1.84,0.64,0.68,0.68
1296,2.53,1.85,2.39,1.71,-1.71,-1.94,0.82,0.68,0.68
1309,2.56,1.87,2.51,1.82,-1.82,-2.04,0.74,0.69,0.69
1322,2.57,1.89,2.63,1.95,-1.95,-2.14,0.63,0.69,0.69
1335,2.66,1.98,2.76,2.08,-2.08,-2.24,0.59,0.68,0.68
1349,2.83,2.15,2.89,2.21,-2.21,-2.35,0.61,0.68,0.68
1362,2.98,2.31,3.03,2.35,-2.35,-2.45,0.63,0.67,0.67
1376,3.26,2.59,3.16,2.49,-2.49,-2.56,0.77,0.67,0.67
1390,3.30,2.64,3.28,2.62,-2.62,-2.66,0.68,0.66,0.66
1404,3.53,2.88,3.40,2.75,-2.75,-2.76,0.78,0.65,0.65
1418,3.52,2.88,3.50,2.86,-2.86,-2.86,0.67,0.64,0.64
1432,3.52,2.89,3.59,2.96,-2.96,-2.95,0.56,0.63,0.63
1446,3.65,3.02,3.67,3.04,-3.04,-3.04,0.60,0.63,0.63
1461,3.75,3.13,3.74,3.12,-3.12,-3.13,0.62,0.62,0.62
1475,3.75,3.13,3.82,3.20,-3.20,-3.21,0.55,0.62,0.62
1490,3.98,3.36,3.89,3.27,-3.27,-3.29,0.70,0.62,0.61
1505,3.98,3.36,3.96,3.35,-3.35,-3.37,0.63,0.62,0.62
1520,3.97,3.35,4.04,3.42,-3.42,-3.44,0.55,0.62,0.62
1535,4.08,3.45,4.13,3.49,-3.49,-3.51,0.59,0.63,0.63
1550,4.21,3.56,4.21,3.56,-3.56,-3.57,0.64,0.65,0.65
1566,4.22,3.55,4.29,3.62,-3.62,-3.63,0.59,0.67,0.67
1582,4.45,3.76,4.36,3.67,-3.67,-3.69,0.78,0.69,0.69
1597,4.48,3.76,4.41,3.69,-3.69,-3.75,0.79,0.72,0.72
