frequency,raw,error,smoothed,error_smoothed,equalization,equalized_raw,equalized_smoothed,target
20,-0.1705131954923213,-0.9563993963381894,-0.09473606779645216,-0.8806069214161812,0.8806069214161811,0.7100937259238598,0.785870853619729,0.785886200845868
21,0.43834820725950663,-0.34751904134877454,0.37660365835296467,-0.4092659445069255,0.4092659445069255,0.8476141517664322,0.7858696028598902,0.7858672486082812
22,0.8644813382334531,0.07863888159701982,0.8279950398020253,0.04214026876073407,-0.04214026876073407,0.822341069472719,0.7858547710412912,0.7858424566364333
23,1.3148550759708908,0.5290446572694323,1.2594380765507296,0.4736117183867977,-0.4736117183867978,0.841243357584093,0.7858263581639318,0.7858104187014585
24,1.6375337221092099,0.8517642464550772,1.6709327685990765,0.8851484043712645,-0.8851484043712644,0.7523853177379455,0.7857843642278121,0.7857694756541327
25,2.0781660998813534,1.2924484159026872,2.0623671780908155,1.276636912523169,-1.2766369125231691,0.8015291873581842,0.7857302655676464,0.7857176839786661
26,2.432557998539058,1.6469052164899503,2.4339609065932564,1.6482982989757256,-1.6482982989757258,0.7842596995633324,0.7856626076175306,0.7856527820491079
27,2.7419753641807687,1.9564032101432285,2.7857883313399965,2.0002085096117734,-2.000208509611773,0.7417668545689957,0.7855798217282235,0.7855721540375402
28,3.1561318119544666,2.3706590205257556,3.1178147507001004,2.3323354264245335,-2.332335426424533,0.8237963855299335,0.7854793242755673,0.785472791428711
29,3.36732078650988,2.5819695344084277,3.4298747447586893,2.6445172491220763,-2.6445172491220763,0.7228035373878039,0.785357495636613,0.7853512521014525
30,3.74966948006652,2.9644658631215077,3.721668892864065,2.9364586359986022,-2.9364586359986022,0.8132108440679175,0.7852102568654629,0.7852036169450121
31,4.045558163466531,3.260532719479712,3.993016480048519,3.207983617533725,-3.2079836175337237,0.837574545932807,0.7850328625147953,0.785025443986819
32,4.24527438848247,3.4604626684638844,4.244044988138069,3.459224929165634,-3.459224929165634,0.7860494593168363,0.7848200589724348,0.784811720018586
33,4.453625676132222,3.6690688664124407,4.47533279978361,3.690766716600727,-3.690766716600727,0.7628589595314947,0.7845660831828827,0.7845568097197813
34,4.728813765759808,3.9445593634679943,4.687912131485076,3.903647572763703,-3.9036475727637017,0.8251661929961065,0.7842645587213743,0.7842544022918139
35,4.857244634423498,4.073347178790418,4.883078018647234,4.099169572345865,-4.099169572345865,0.7580750620776335,0.7839084463013695,0.7838974556330802
36,5.006786595672449,4.223308457567816,5.062106222084923,4.278616281017828,-4.278616281017829,0.7281703146546201,0.7834899410670939,0.7834781381046327
37,5.258223377281644,4.4752356093225805,5.225975587454467,4.442975199808336,-4.442975199808335,0.8152481774733094,0.7830003876461324,0.7829877679590638
38,5.358798089925323,4.576381339393647,5.37521742696981,4.5927872167335675,-4.592787216733568,0.766010873191755,0.7824302102362415,0.7824167505316759
39,5.559947515212679,4.778193001889221,5.509966908381591,4.728198066422561,-4.728198066422561,0.8317494487901183,0.7817688419590301,0.7817545133234582
40,5.559947515212647,4.778958076072211,5.63019643724744,4.849191774395015,-4.849191774395015,0.7107557408176319,0.7810046628524248,0.7809894391404364
41,5.7610969404998205,4.980988143005951,5.736041649896137,4.955916714095131,-4.95591671409513,0.8051802264046906,0.7801249358010072,0.7801087974938694
42,5.8616716531435795,5.0825729786323866,5.8280861291466,5.048970389984886,-5.048970389984889,0.812701263158691,0.7791157391617114,0.7790986745111934
43,5.962246365788866,5.184302464129944,5.907485695538474,5.129523798343272,-5.129523798343271,0.8327225674455949,0.7779618971952029,0.7779439016589222
44,5.962246365792481,5.185618382156083,5.975877242823563,5.199230335137721,-5.199230335137722,0.7630160306547591,0.7766469076858407,0.7766279836363985
45,5.962246365793098,5.187113339929258,6.035099515328155,5.259946646558568,-5.259946646558567,0.7022997192345315,0.7751528687695881,0.7751330258638407
46,6.062821078420884,5.28938141636104,6.086825288542975,5.313364882608498,-5.313364882608497,0.7494561958123862,0.7734604059344781,0.7734396620598432
47,6.163395791020784,5.3918688085379785,6.132235172991335,5.360686573139164,-5.360686573139163,0.8027092178816213,0.7715485998521716,0.7715269824828064
48,6.1633957909710535,5.394023327473234,6.1718436556686935,5.402448739835933,-5.402448739835933,0.7609470511351208,0.7693949158327609,0.7693724634978194
49,6.1882121094803715,5.42126021025486,6.205530201551028,5.438555066107911,-5.43855506610791,0.7496570433724612,0.7669751354431176,0.7669518992255115
50,6.26397050389992,5.499731167767739,6.232756254721896,5.468492963653471,-5.468492963653471,0.7954775402464485,0.764263291068425,0.7642393361321806
51,6.263970504441799,5.502763492910891,6.25288932506286,5.491657720693413,-5.4916577206934125,0.7723127837483865,0.7612316043694474,0.761207011530908
52,6.263970505053731,5.506145207972865,6.265526063283773,5.507675633566963,-5.507675633566963,0.7562948714867677,0.75785042971681,0.7578252970808661
53,6.263970505031829,5.50990785653606,6.270714266771784,5.51662606292302,-5.516626062923022,0.7473444421088073,0.7540882038487622,0.7540626484957689
54,6.263970503254958,5.514084940453675,6.269012675998705,5.519101272890698,-5.519101272890698,0.7448692303642606,0.7499114031080074,0.7498855628012828
55,6.263970498763045,5.518711954149419,6.2613825735767294,5.516098063838899,-5.516098063838898,0.7478724349241466,0.7452845097378313,0.7452585446136255
56,6.2639704919235415,5.523826408878172,6.24895981584792,5.508789826996426,-5.508789826996429,0.7551806649271127,0.7401699888514912,0.74014408304537
57,6.263970485888295,5.529467844911149,6.232794713363271,5.498266435545087,-5.498266435545087,0.7657040503432082,0.7345282778181836,0.7345026409771456
58,6.163395774917352,5.435103116355238,6.213658198672471,5.48534040873145,-5.485340408731452,0.6780553661858999,0.7283177899410189,0.7282926585621143
59,6.1633957941995305,5.441925221249528,6.1919897729775375,5.47049483855354,-5.470494838553542,0.6929009556459889,0.7214949344239958,0.7214705729500022
60,6.163395840125178,5.449404983800813,6.168009779846948,5.453995625115587,-5.453995625115587,0.709400215009591,0.7140141547313616,0.7139908563243651
61,6.1633959130497935,5.45758983861444,6.141951673988281,5.436123686457062,-5.436123686457064,0.7272722265927296,0.705827987531217,0.7058060744353538
62,6.165747873623247,5.468880905748897,6.114313181231074,5.417426036753181,-5.417426036753181,0.7483218368700664,0.696887144477893,0.6968669678743509
63,6.080688112476357,5.3935655541067025,6.0860040630485575,5.39886344393179,-5.398863443931791,0.6818246685445661,0.6871406191167662,0.6871225583696545
64,6.062821236441313,5.386300954065042,6.058297290079942,5.381761468860212,-5.381761468860213,0.6810597675811003,0.676535821219729,0.6765202823762704
65,6.031008382018813,5.3660022278390045,6.032564493097655,5.367545752459391,-5.367545752459389,0.6634626295594241,0.6650187406382662,0.665006154179808
66,5.959128776087066,5.306603815461198,6.009869005335988,5.357334862365406,-5.357334862365407,0.601793913721659,0.6525341429705804,0.6525249606258687
67,5.962244727916772,5.323224238503286,5.9905621820991986,5.351536382872613,-5.351536382872611,0.610708345044161,0.6390257992265873,0.6390204894134861
68,5.962243763642713,5.337807970997248,5.974048095360068,5.34961134472868,-5.349611344728679,0.6126324189140337,0.6244367506313893,0.6244357926454649
69,5.962243182558003,5.353529695556203,5.9588358459191175,5.350126236938544,-5.350126236938544,0.6121169456194595,0.6087096089805737,0.6087134870018005
70,5.962243730905938,5.370447639418499,5.94290291100873,5.351116016940135,-5.351116016940135,0.6111277139658036,0.5917868940685951,0.5917960914874398
71,5.96224634329314,5.388619940096326,5.924284096504738,5.350672684897737,-5.350672684897738,0.6115736583954021,0.5736114116069997,0.5736264031968132
72,5.9481778075508345,5.394029896619883,5.901719466411185,5.347592792322031,-5.34759279232203,0.6005850152288046,0.5541266740891553,0.5541479109309515
73,5.841570983189371,5.308265737391605,5.8751690791390105,5.3418917194906985,-5.341891719490698,0.4996792636986731,0.5332773596483129,0.5333052457977656
74,5.880063892225442,5.369019225101145,5.846037962843201,5.335028164828586,-5.335028164828586,0.545035727396856,0.5110097980146149,0.5110446671242976
75,5.819499113880687,5.332184532762703,5.817035431481724,5.329762963529881,-5.329762963529881,0.4897361503508053,0.48727246795184254,0.4873145811179831
76,5.761138792281503,5.2990727035384655,5.791690718409893,5.3296742212153765,-5.329674221215377,0.431464571066126,0.462016497194516,0.46206608874303745
77,5.761131962089096,5.325878403844894,5.773633868142756,5.338437677951282,-5.3384376779512825,0.4226942841378136,0.4351961901914736,0.4352535582442023
78,5.7611041914966306,5.354268974821823,5.765807916502115,5.359038256818414,-5.359038256818414,0.40206593467821694,0.40676965968370116,0.4068352166748075
79,5.761047614991632,5.384273861294803,5.7697964828760115,5.393096837809861,-5.393096837809863,0.36795077718176916,0.3766996450661484,0.3767737536968294
80,5.760958161934688,5.415921232084697,5.785427153969829,5.440472662972846,-5.440472662972846,0.3204854989618422,0.34495449099698305,0.3450369298499911
81,5.756392403513791,5.444794223040909,5.810749340295328,5.499240311804644,-5.499240311804645,0.25715209170914655,0.3115090284906836,0.311598180472882
82,5.782860586263009,5.506423380719593,5.8423970221985595,5.566052136363072,-5.566052136363072,0.2168084498999372,0.27634488583548755,0.276437205543417
83,5.9617438507242175,5.722203315790731,5.876251510780858,5.636801754903288,-5.636801754903289,0.32494209582092815,0.239449755877569,0.23954053493348715
84,5.961697188348046,5.760795130358767,5.9082424984267154,5.707426883637116,-5.707426883637118,0.2542703047109276,0.20081561478959742,0.20090205798927796
85,5.961780335775899,5.801256829776608,5.935091799751971,5.774654896411652,-5.774654896411654,0.18712543936424453,0.16043690334031702,0.16052350599929088
86,5.962063854311308,5.843648978273122,5.954827487248256,5.836516637450735,-5.836516637450734,0.12554721686057402,0.11831084979752227,0.11841487603818557
87,5.962613383710764,5.88801859879927,5.966970273738491,5.892527755797371,-5.892527755797372,0.07008562791339212,0.07444251794111967,0.07459478491149385
88,5.9634722634773185,5.93438152097635,5.972391677290554,5.943535865748922,-5.943535865748922,0.019936397728396393,0.028855811541632193,0.02909074250096877
89,5.964640776852267,5.982701442114097,5.972929093082902,5.991320860892004,-5.991320860892003,-0.026680084039735874,-0.01839176780910101,-0.01806066526182981
90,5.9660547343878125,6.032868426670962,5.970887810337811,6.038085178863749,-6.03808517886375,-0.07203044447593765,-0.06719736852593883,-0.0668136922831497
91,5.967566997187892,6.0846804511083015,5.968555065432362,6.085969340074788,-6.0859693400747865,-0.11840234288689455,-0.11741427464242449,-0.11711345392040906
92,5.968935901492866,6.137831960741548,5.967809508371252,6.136685776248169,-6.136685776248167,-0.1677498747553008,-0.16887626787691534,-0.16889605924868167
93,5.969824206273568,6.191913062977292,5.969858157893476,6.191305947454031,-6.191305947454032,-0.22148174118046438,-0.221447789560556,-0.22208885670372425
94,5.969811095395347,6.246421888811028,5.97509806317581,6.250188797128721,-6.250188797128722,-0.28037770173337506,-0.2750907339529114,-0.27661079341568096
95,5.968418034948687,6.3007909209558,5.983091283417253,6.31301683723386,-6.313016837233859,-0.34459880228517203,-0.32992555381660615,-0.33237288600711246
96,5.961504985457016,6.350783783499617,5.992650129934791,6.378906838894134,-6.378906838894133,-0.41740185343711644,-0.3862567089593414,-0.38927879804260135
97,5.9763065372219,6.423532053997977,6.002036092170996,6.446572333368195,-6.446572333368194,-0.47026579614629416,-0.4445362411971985,-0.447225516776077
98,6.051747656778119,6.557851776217931,6.009264901439568,6.5145213225073135,-6.5145213225073135,-0.46277366572919476,-0.5052564210677453,-0.5061041194398124
99,6.040392780769883,6.606193397916455,6.012479958865647,6.581269012078076,-6.581269012078077,-0.5408762313081938,-0.5687890532124298,-0.5658006171465715
100,6.025946675623392,6.652143538239985,6.010320742623131,6.645536063467713,-6.6455360634677145,-0.6195893878443224,-0.6352153208445834,-0.6261968626165926
101,6.008512794407661,6.695684300872262,6.0021935659704795,6.706397708667376,-6.706397708667378,-0.697884914259717,-0.7042041426968986,-0.6871715064646011
102,5.988399198421675,6.737000184165417,5.988365752202464,6.763356273415292,-6.763356273415291,-0.7749570749936163,-0.7749905212128274,-0.7486009857437428
104,5.966108389816292,6.838433542856581,5.969851300133309,6.816329151195907,-6.816329151195907,-0.8502207613796147,-0.8464778510625983,-0.8723251530402893
105,5.942308935152737,6.8766795935815574,5.948120006290407,6.865567997722136,-6.865567997722136,-0.9232590625693993,-0.9174479914317297,-0.9343706584288203
106,5.917791792300777,6.914166361071393,5.924717752477227,6.911542219294654,-6.9115422192946525,-0.9937504269938753,-0.9868244668174251,-0.9963745687706158
107,5.893415771124972,6.951632809749959,5.900910980602188,6.954823352487548,-6.954823352487547,-1.061407581362575,-1.0539123718853585,-1.0582170386249867
108,5.870047416451692,6.98982911014334,5.877454267644486,6.995996914568561,-6.99599691456856,-1.125949498116868,-1.118542646924074,-1.1197816936916474
109,5.848500803467269,7.029457203674628,5.854533969074982,7.035611485551915,-7.035611485551916,-1.187110682084647,-1.1810775164769343,-1.1809564002073594
110,5.829482390452367,7.07111634405304,5.831882531460227,7.074160132283818,-7.074160132283818,-1.2446777418314507,-1.2422776008235905,-1.2416339536006729
111,5.8135453524934215,7.115258032262636,5.80900915083519,7.112083007918854,-7.112083007918854,-1.2985376554254326,-1.303073857083664,-1.301712679769215
112,5.801056881649322,7.162153826219576,5.785467916213575,7.1497823934298665,-7.149782393429868,-1.348725511780546,-1.3643144772162934,-1.3610969445702543
113,5.7921808745049335,7.211878443801949,5.761087734943069,7.187647313761146,-7.187647313761145,-1.3954664392562117,-1.4265595788180763,-1.419697569297016
114,5.7227995047490525,7.2002316567313,5.736111595774357,7.226087004782414,-7.226087004782416,-1.5032875000333634,-1.4899754090080588,-1.4774321519822475
115,5.6843431508923175,7.218568447163596,5.711223114271899,7.265566989421103,-7.265566989421106,-1.5812238385287882,-1.5543438751492067,-1.5342252962712783
117,5.685342718726709,7.330064186134443,5.687464962654142,7.30663120315333,-7.306631203153328,-1.6212884844266195,-1.6191662404991867,-1.644721467407734
118,5.688801849387443,7.387111423250445,5.666071724191021,7.349886337370635,-7.3498863373706325,-1.6610844879831896,-1.683814613179612,-1.698309573863003
119,5.669086171614881,7.419812456965589,5.648249785753054,7.395928384578145,-7.395928384578143,-1.7268422129632626,-1.7476785988250896,-1.750726285350709
120,5.600261301226247,7.402193046265233,5.63494307099041,7.445209918661522,-7.445209918661522,-1.844948617435275,-1.8102668476711123,-1.8019317450389858
121,5.607726185246888,7.4596189973394225,5.626628716682516,7.497876009022906,-7.4978760090229075,-1.89014982377602,-1.8712472923403913,-1.8518928120925344
123,5.615518082410602,7.563499269045526,5.623189371353425,7.553624198468441,-7.553624198468441,-1.9381061160578392,-1.9304348271150156,-1.947981186634924
124,5.623279545389671,7.617352810866818,5.623902453631307,7.611653553059053,-7.611653553059053,-1.9883740076693819,-1.9877510994277463,-1.9940732654771458
125,5.630764168434361,7.669613978042458,5.627565845203585,7.670749009351837,-7.670749009351837,-2.0399848409174766,-2.0431831641482523,-2.038849809608097
126,5.637829730654983,7.7201364220568625,5.632744857406491,7.729502727685374,-7.729502727685373,-2.0916729970303907,-2.096757870278882,-2.0823066914018797
128,5.644418255330213,7.80968642473281,5.638085570543554,7.78661954335425,-7.786619543354251,-2.1422012880240384,-2.1485339728106974,-2.1652681694025966
129,5.650527845972924,7.855314410647727,5.642609658768371,7.8412115955666675,-7.841211595566669,-2.1906837495937452,-2.1986019367982985,-2.204786564674803
130,5.656182254422319,7.899194384353871,5.645901084396924,7.892978893423219,-7.892978893423221,-2.236796639000902,-2.2470778090262966,-2.2430121299315524
131,5.661404045996176,7.9413645487355815,5.6481239262881235,7.942207214834419,-7.9422072148344185,-2.2808031688382426,-2.294083288546295,-2.279960502739406
133,5.666195992624159,8.016298054119817,5.649866641484753,7.98958156718621,-7.9895815671862085,-2.3233855745620495,-2.339714925701456,-2.3501020614956585
134,5.64596181319396,8.02930115880235,5.651870879721844,8.035885358594616,-8.035885358594616,-2.3899235454006558,-2.3840144788727713,-2.38333934560839
135,5.573791902366262,7.989178898273215,5.654746628222985,8.081701218074475,-8.081701218074477,-2.507909315708215,-2.4269545898514915,-2.4153869959069536
137,5.677634436190454,8.15365532484451,5.658779692151425,8.127227768734915,-8.127227768734917,-2.449593332544463,-2.468448076583492,-2.476020888654055
138,5.680280116927737,8.184943977771196,5.663896773923236,8.172275457082566,-8.172275457082566,-2.49199534015483,-2.5083786831593304,-2.5046638608434595
140,5.68227020572146,8.241020344316798,5.669781802565982,8.21642305484398,-8.21642305484398,-2.5341528491225205,-2.5466412522779986,-2.558750138595337
141,5.683609305080744,8.267863759101896,5.676064417317903,8.259239484995547,-8.259239484995547,-2.5756301799148025,-2.5831750676776437,-2.5842544540211527
142,5.684348578309977,8.293122648882099,5.68246138924194,8.300439101741034,-8.300439101741034,-2.6160905234310574,-2.617977712499094,-2.6087740705721214
144,5.6845862539467715,8.339569518574033,5.688765696828407,8.339861834822834,-8.33986183482283,-2.655275580876059,-2.651096137994424,-2.6549832646272615
145,5.68446003374215,8.361194640764587,5.694645689047106,8.377247544396015,-8.377247544396017,-2.692787510653867,-2.682601855348911,-2.6767346070224365
147,5.684132552065713,8.401815772875764,5.699314646613145,8.41187798666979,-8.411877986669792,-2.7277454346040786,-2.712563340056647,-2.7176832208100508
148,5.68377183849875,8.42071212195205,5.701219126698531,8.442247553653992,-8.44224755365399,-2.7584757151552406,-2.7410284269554595,-2.7369402834532996
150,5.683529128247456,8.456694665673238,5.6979312281040375,8.465954744942454,-8.465954744942456,-2.782425616695,-2.7680235168384186,-2.773165537425782
151,5.683516495032567,8.473706680681007,5.686390412238638,8.479958187906501,-8.479958187906501,-2.796441692873934,-2.7935677756678627,-2.79019018564844
153,5.683786799722643,8.505986464308835,5.663528558686638,8.481222069459086,-8.481222069459088,-2.797435269736445,-2.8176935107724503,-2.8221996645861918
154,5.684318445097268,8.521555262675456,5.627162520903037,8.467624225045085,-8.467624225045085,-2.783305779947818,-2.840461704142048,-2.837236817578189
156,5.584432698106457,8.449933870031717,5.576906077077688,8.43887087497095,-8.43887087497095,-2.8544381768644937,-2.861964797893262,-2.8655011719252608
157,5.585094211643637,8.463870388637778,5.514793389607176,8.397108644209101,-8.3971086442091,-2.812014432565463,-2.8823152546019237,-2.878776176994142
159,5.482907693131422,8.386633279577232,5.445352767037237,8.346977689938452,-8.346977689938452,-2.8640699968070304,-2.901624922901215,-2.9037255864458116
160,5.384134748139801,8.299577935882551,5.375018047473384,8.295002073009215,-8.295002073009213,-2.910867324869412,-2.919984025535829,-2.9154431877427496
162,5.252264829053115,8.189731331178638,5.310970387970699,8.248418719626198,-8.2484187196262,-2.9961538905730842,-2.9374483316555002,-2.937466502125522
164,5.179734007990502,8.137469105655738,5.259694990859749,8.21373406502725,-8.21373406502725,-3.0340000570367476,-2.9540390741675013,-2.957735097665235
