frequency,raw,error,smoothed,error_smoothed,equalization,parametric_eq,equalized_raw,equalized_smoothed,target
20.00,1.78,1.04,1.78,1.04,-1.04,-0.95,0.74,0.74,0.75
20.20,1.81,1.07,1.81,1.07,-1.07,-0.98,0.74,0.74,0.74
20.40,1.83,1.09,1.84,1.10,-1.10,-1.01,0.73,0.74,0.74
20.61,1.86,1.12,1.87,1.13,-1.13,-1.04,0.73,0.74,0.74
20.81,1.90,1.16,1.90,1.16,-1.16,-1.07,0.75,0.74,0.74
21.02,1.92,1.18,1.92,1.18,-1.18,-1.10,0.74,0.74,0.74
21.23,1.96,1.22,1.95,1.21,-1.21,-1.13,0.75,0.74,0.74
21.44,1.99,1.25,1.98,1.24,-1.24,-1.16,0.75,0.74,0.74
21.66,2.01,1.27,2.01,1.27,-1.27,-1.20,0.74,0.74,0.74
21.87,2.04,1.31,2.04,1.30,-1.30,-1.23,0.74,0.74,0.74
22.09,2.07,1.34,2.07,1.33,-1.33,-1.27,0.74,0.74,0.74
22.31,2.10,1.37,2.10,1.36,-1.36,-1.30,0.74,0.73,0.74
22.54,2.12,1.39,2.13,1.39,-1.39,-1.34,0.73,0.73,0.73
22.76,2.16,1.43,2.16,1.42,-1.42,-1.38,0.74,0.73,0.73
22.99,2.18,1.45,2.19,1.46,-1.46,-1.42,0.73,0.73,0.73
23.22,2.21,1.48,2.22,1.49,-1.49,-1.46,0.73,0.73,0.73
23.45,2.24,1.51,2.25,1.52,-1.52,-1.50,0.72,0.73,0.73
23.69,2.27,1.54,2.28,1.55,-1.55,-1.54,0.72,0.73,0.73
23.92,2.31,1.59,2.31,1.58,-1.58,-1.58,0.73,0.73,0.73
24.16,2.34,1.62,2.34,1.62,-1.62,-1.63,0.73,0.72,0.73
24.40,2.37,1.65,2.37,1.65,-1.65,-1.67,0.72,0.72,0.72
24.65,2.40,1.68,2.41,1.69,-1.69,-1.72,0.72,0.72,0.72
24.89,2.44,1.72,2.44,1.72,-1.72,-1.76,0.72,0.72,0.72
25.14,2.47,1.75,2.48,1.76,-1.76,-1.81,0.71,0.72,0.72
25.39,2.51,1.79,2.51,1.80,-1.80,-1.86,0.72,0.72,0.72
25.65,2.55,1.84,2.55,1.83,-1.83,-1.90,0.72,0.72,0.72
25.91,2.58,1.87,2.59,1.87,-1.87,-1.95,0.71,0.71,0.71
26.16,2.62,1.91,2.62,1.91,-1.91,-2.00,0.71,0.71,0.71
26.43,2.66,1.95,2.66,1.95,-1.95,-2.04,0.72,0.71,0.71
26.69,2.69,1.98,2.69,1.98,-1.98,-2.09,0.71,0.71,0.71
26.96,2.73,2.02,2.73,2.02,-2.02,-2.14,0.71,0.71,0.71
27.23,2.77,2.07,2.77,2.06,-2.06,-2.18,0.71,0.71,0.71
27.50,2.80,2.10,2.80,2.10,-2.10,-2.23,0.70,0.70,0.70
27.77,2.83,2.13,2.84,2.13,-2.13,-2.27,0.70,0.70,0.70
28.05,2.87,2.17,2.87,2.17,-2.17,-2.31,0.70,0.70,0.70
28.33,2.90,2.20,2.91,2.21,-2.21,-2.36,0.69,0.70,0.70
28.62,2.94,2.25,2.94,2.25,-2.25,-2.40,0.70,0.69,0.70
28.90,2.97,2.28,2.97,2.28,-2.28,-2.43,0.69,0.69,0.69
29.19,3.00,2.31,3.01,2.32,-2.32,-2.47,0.68,0.69,0.69
29.48,3.03,2.34,3.04,2.35,-2.35,-2.51,0.68,0.69,0.69
29.78,3.07,2.38,3.07,2.39,-2.39,-2.54,0.69,0.69,0.69
30.08,3.10,2.42,3.10,2.42,-2.42,-2.57,0.68,0.68,0.68
30.38,3.13,2.45,3.13,2.45,-2.45,-2.60,0.68,0.68,0.68
30.68,3.16,2.48,3.16,2.48,-2.48,-2.62,0.68,0.68,0.68
30.99,3.20,2.53,3.19,2.51,-2.51,-2.65,0.69,0.68,0.68
31.30,3.22,2.55,3.21,2.54,-2.54,-2.67,0.68,0.67,0.67
31.61,3.24,2.57,3.24,2.57,-2.57,-2.69,0.68,0.67,0.67
31.93,3.26,2.59,3.26,2.59,-2.59,-2.70,0.67,0.67,0.67
32.24,3.28,2.62,3.28,2.62,-2.62,-2.72,0.67,0.67,0.67
32.57,3.30,2.64,3.30,2.64,-2.64,-2.73,0.67,0.66,0.66
32.89,3.31,2.65,3.32,2.66,-2.66,-2.74,0.65,0.66,0.66
33.22,3.33,2.68,3.33,2.68,-2.68,-2.75,0.66,0.66,0.66
33.55,3.34,2.69,3.35,2.70,-2.70,-2.75,0.65,0.65,0.65
33.89,3.36,2.71,3.36,2.71,-2.71,-2.76,0.65,0.65,0.65
34.23,3.37,2.73,3.37,2.73,-2.73,-2.76,0.64,0.64,0.65
34.57,3.39,2.75,3.39,2.75,-2.75,-2.76,0.65,0.64,0.64
34.92,3.40,2.76,3.40,2.76,-2.76,-2.76,0.64,0.64,0.64
35.27,3.41,2.78,3.41,2.78,-2.78,-2.76,0.63,0.63,0.63
35.62,3.42,2.79,3.43,2.80,-2.80,-2.76,0.63,0.63,0.63
35.97,3.43,2.81,3.44,2.81,-2.81,-2.76,0.62,0.63,0.63
36.33,3.45,2.83,3.45,2.83,-2.83,-2.76,0.62,0.62,0.62
36.70,3.46,2.84,3.46,2.85,-2.85,-2.75,0.62,0.62,0.62
37.06,3.48,2.87,3.48,2.87,-2.87,-2.75,0.62,0.61,0.61
37.43,3.49,2.88,3.49,2.88,-2.88,-2.75,0.61,0.61,0.61
37.81,3.50,2.90,3.51,2.90,-2.90,-2.75,0.60,0.60,0.60
38.19,3.52,2.92,3.52,2.92,-2.92,-2.75,0.60,0.60,0.60
38.57,3.53,2.94,3.54,2.94,-2.94,-2.75,0.59,0.59,0.59
38.95,3.55,2.96,3.55,2.97,-2.97,-2.76,0.59,0.59,0.59
39.34,3.57,2.99,3.57,2.99,-2.99,-2.76,0.58,0.58,0.58
39.74,3.59,3.01,3.59,3.01,-3.01,-2.76,0.58,0.58,0.58
40.14,3.60,3.03,3.61,3.03,-3.03,-2.77,0.57,0.57,0.57
40.54,3.62,3.05,3.62,3.06,-3.06,-2.78,0.56,0.57,0.57
40.94,3.64,3.08,3.64,3.08,-3.08,-2.79,0.56,0.56,0.56
41.35,3.66,3.11,3.66,3.11,-3.11,-2.80,0.55,0.55,0.56
41.76,3.68,3.13,3.68,3.13,-3.13,-2.82,0.55,0.55,0.55
42.18,3.70,3.16,3.70,3.16,-3.16,-2.83,0.54,0.54,0.54
42.60,3.72,3.19,3.72,3.19,-3.19,-2.85,0.54,0.54,0.54
43.03,3.74,3.21,3.74,3.21,-3.21,-2.87,0.53,0.53,0.53
43.46,3.76,3.24,3.76,3.24,-3.24,-2.89,0.52,0.52,0.52
43.90,3.78,3.27,3.78,3.26,-3.26,-2.91,0.52,0.51,0.51
44.33,3.80,3.29,3.80,3.29,-3.29,-2.94,0.51,0.51,0.51
44.78,3.81,3.31,3.82,3.32,-3.32,-2.97,0.50,0.50,0.50
45.23,3.83,3.34,3.83,3.34,-3.34,-3.00,0.49,0.49,0.49
45.68,3.84,3.36,3.85,3.37,-3.37,-3.03,0.48,0.48,0.48
46.13,3.87,3.40,3.87,3.39,-3.39,-3.07,0.48,0.48,0.48
46.60,3.88,3.42,3.88,3.41,-3.41,-3.10,0.47,0.47,0.47
47.06,3.90,3.44,3.90,3.44,-3.44,-3.14,0.46,0.46,0.46
47.53,3.91,3.46,3.91,3.46,-3.46,-3.18,0.45,0.45,0.45
48.01,3.92,3.48,3.92,3.48,-3.48,-3.23,0.44,0.44,0.44
48.49,3.93,3.50,3.94,3.51,-3.51,-3.27,0.43,0.43,0.43
48.97,3.95,3.53,3.95,3.53,-3.53,-3.32,0.42,0.42,0.42
49.46,3.96,3.55,3.96,3.55,-3.55,-3.37,0.41,0.41,0.41
49.96,3.97,3.57,3.97,3.57,-3.57,-3.42,0.40,0.40,0.40
50.46,3.98,3.59,3.98,3.59,-3.59,-3.47,0.39,0.39,0.39
50.96,3.99,3.61,3.99,3.62,-3.62,-3.52,0.38,0.38,0.38
51.47,4.00,3.63,4.00,3.64,-3.64,-3.57,0.37,0.37,0.37
51.99,4.01,3.66,4.01,3.66,-3.66,-3.63,0.35,0.36,0.36
52.51,4.02,3.68,4.02,3.68,-3.68,-3.68,0.34,0.34,0.34
53.03,4.03,3.70,4.03,3.70,-3.70,-3.74,0.33,0.33,0.33
53.56,4.04,3.72,4.04,3.72,-3.72,-3.79,0.32,0.32,0.32
54.10,4.05,3.75,4.05,3.74,-3.74,-3.85,0.31,0.31,0.31
54.64,4.05,3.76,4.06,3.76,-3.76,-3.90,0.29,0.29,0.29
55.18,4.06,3.78,4.06,3.78,-3.78,-3.96,0.28,0.28,0.28
55.74,4.07,3.81,4.07,3.80,-3.80,-4.01,0.27,0.27,0.27
56.29,4.07,3.82,4.08,3.82,-3.82,-4.06,0.25,0.25,0.25
56.86,4.08,3.84,4.08,3.85,-3.85,-4.11,0.24,0.24,0.24
57.42,4.09,3.87,4.09,3.87,-3.87,-4.15,0.23,0.22,0.22
58.00,4.09,3.89,4.09,3.89,-3.89,-4.20,0.20,0.21,0.21
58.58,4.10,3.91,4.10,3.91,-3.91,-4.24,0.19,0.19,0.19
59.16,4.11,3.94,4.11,3.93,-3.93,-4.28,0.18,0.17,0.18
59.76,4.11,3.95,4.11,3.95,-3.95,-4.32,0.16,0.16,0.16
60.35,4.11,3.97,4.12,3.98,-3.98,-4.35,0.14,0.14,0.14
60.96,4.11,3.99,4.12,4.00,-4.00,-4.38,0.11,0.12,0.12
61.57,4.12,4.02,4.13,4.02,-4.02,-4.41,0.10,0.11,0.11
62.18,4.13,4.04,4.13,4.05,-4.05,-4.43,0.09,0.09,0.09
62.80,4.14,4.07,4.14,4.07,-4.07,-4.45,0.07,0.07,0.07
63.43,4.15,4.10,4.15,4.09,-4.09,-4.46,0.06,0.05,0.05
64.07,4.15,4.12,4.15,4.12,-4.12,-4.48,0.03,0.03,0.03
64.71,4.16,4.15,4.16,4.15,-4.15,-4.49,0.02,0.01,0.01
65.35,4.16,4.17,4.16,4.17,-4.17,-4.49,-0.01,-0.01,-0.01
66.01,4.16,4.19,4.17,4.20,-4.20,-4.49,-0.04,-0.03,-0.03
66.67,4.17,4.22,4.17,4.22,-4.22,-4.49,-0.05,-0.05,-0.05
67.33,4.18,4.25,4.18,4.25,-4.25,-4.49,-0.07,-0.07,-0.07
68.01,4.18,4.27,4.18,4.28,-4.28,-4.48,-0.09,-0.09,-0.09
68.69,4.19,4.31,4.19,4.30,-4.30,-4.48,-0.11,-0.11,-0.11
69.37,4.19,4.33,4.19,4.33,-4.33,-4.47,-0.14,-0.14,-0.14
70.07,4.19,4.35,4.19,4.36,-4.36,-4.46,-0.16,-0.16,-0.16
70.77,4.20,4.39,4.20,4.38,-4.38,-4.45,-0.18,-0.19,-0.18
71.48,4.20,4.41,4.20,4.41,-4.41,-4.43,-0.21,-0.21,-0.21
72.19,4.20,4.43,4.20,4.44,-4.44,-4.42,-0.23,-0.23,-0.23
72.91,4.21,4.47,4.21,4.46,-4.46,-4.41,-0.25,-0.26,-0.26
73.64,4.20,4.49,4.21,4.49,-4.49,-4.40,-0.29,-0.28,-0.28
74.38,4.20,4.51,4.21,4.52,-4.52,-4.39,-0.32,-0.31,-0.31
75.12,4.21,4.55,4.21,4.55,-4.55,-4.38,-0.34,-0.34,-0.33
75.87,4.21,4.57,4.21,4.58,-4.58,-4.37,-0.36,-0.36,-0.36
76.63,4.21,4.60,4.22,4.61,-4.61,-4.36,-0.39,-0.39,-0.39
77.40,4.21,4.63,4.22,4.63,-4.63,-4.36,-0.42,-0.42,-0.42
78.17,4.22,4.67,4.22,4.66,-4.66,-4.35,-0.44,-0.44,-0.44
78.95,4.22,4.69,4.22,4.69,-4.69,-4.35,-0.47,-0.47,-0.47
79.74,4.22,4.72,4.22,4.72,-4.72,-4.35,-0.50,-0.50,-0.50
80.54,4.22,4.75,4.23,4.76,-4.76,-4.36,-0.53,-0.53,-0.53
81.35,4.23,4.79,4.23,4.79,-4.79,-4.37,-0.55,-0.56,-0.56
82.16,4.23,4.82,4.23,4.82,-4.82,-4.38,-0.58,-0.59,-0.59
82.98,4.23,4.85,4.23,4.85,-4.85,-4.39,-0.61,-0.62,-0.62
83.81,4.23,4.88,4.23,4.87,-4.87,-4.41,-0.64,-0.65,-0.65
84.65,4.22,4.90,4.23,4.90,-4.90,-4.42,-0.68,-0.68,-0.68
85.50,4.22,4.93,4.22,4.93,-4.93,-4.45,-0.71,-0.71,-0.71
86.35,4.22,4.96,4.22,4.96,-4.96,-4.47,-0.74,-0.74,-0.74
87.22,4.21,4.98,4.22,4.99,-4.99,-4.50,-0.78,-0.77,-0.77
88.09,4.21,5.01,4.21,5.02,-5.02,-4.54,-0.80,-0.80,-0.80
88.97,4.21,5.05,4.21,5.04,-5.04,-4.57,-0.83,-0.83,-0.83
89.86,4.20,5.07,4.20,5.07,-5.07,-4.61,-0.87,-0.87,-0.87
90.76,4.20,5.10,4.20,5.10,-5.10,-4.66,-0.89,-0.90,-0.90
91.66,4.19,5.12,4.19,5.12,-5.12,-4.70,-0.93,-0.93,-0.93
92.58,4.18,5.15,4.19,5.15,-5.15,-4.75,-0.97,-0.96,-0.96
93.51,4.17,5.17,4.18,5.17,-5.17,-4.81,-1.00,-1.00,-1.00
94.44,4.17,5.20,4.17,5.20,-5.20,-4.86,-1.03,-1.03,-1.03
95.39,4.16,5.22,4.16,5.22,-5.22,-4.92,-1.06,-1.06,-1.06
96.34,4.15,5.25,4.15,5.25,-5.25,-4.99,-1.09,-1.09,-1.09
97.30,4.14,5.27,4.14,5.27,-5.27,-5.05,-1.13,-1.13,-1.13
98.28,4.13,5.29,4.13,5.29,-5.29,-5.12,-1.16,-1.16,-1.16
99.26,4.12,5.32,4.12,5.31,-5.31,-5.19,-1.19,-1.19,-1.19
100.25,4.10,5.33,4.10,5.33,-5.33,-5.26,-1.23,-1.23,-1.23
101.25,4.09,5.35,4.09,5.35,-5.35,-5.34,-1.26,-1.26,-1.26
102.27,4.08,5.38,4.08,5.37,-5.37,-5.42,-1.29,-1.29,-1.29
103.29,4.06,5.39,4.06,5.39,-5.39,-5.49,-1.33,-1.33,-1.33
104.32,4.04,5.40,4.05,5.41,-5.41,-5.57,-1.36,-1.36,-1.36
105.37,4.03,5.42,4.03,5.42,-5.42,-5.65,-1.39,-1.39,-1.39
106.42,4.00,5.43,4.01,5.44,-5.44,-5.73,-1.44,-1.43,-1.43
107.48,3.99,5.45,3.99,5.45,-5.45,-5.81,-1.46,-1.46,-1.46
108.56,3.97,5.46,3.97,5.47,-5.47,-5.88,-1.49,-1.49,-1.49
109.64,3.95,5.48,3.96,5.48,-5.48,-5.96,-1.53,-1.52,-1.52
110.74,3.94,5.50,3.94,5.49,-5.49,-6.03,-1.55,-1.56,-1.56
111.85,3.92,5.51,3.92,5.50,-5.50,-6.10,-1.58,-1.59,-1.59
112.97,3.89,5.51,3.90,5.52,-5.52,-6.17,-1.62,-1.62,-1.62
114.10,3.87,5.52,3.87,5.53,-5.53,-6.23,-1.65,-1.65,-1.65
115.24,3.85,5.54,3.85,5.53,-5.53,-6.28,-1.68,-1.68,-1.68
116.39,3.83,5.55,3.83,5.54,-5.54,-6.33,-1.71,-1.71,-1.71
117.55,3.80,5.55,3.81,5.55,-5.55,-6.38,-1.75,-1.74,-1.74
118.73,3.78,5.56,3.78,5.56,-5.56,-6.42,-1.77,-1.77,-1.78
119.92,3.75,5.56,3.75,5.56,-5.56,-6.45,-1.81,-1.81,-1.81
121.12,3.73,5.57,3.73,5.56,-5.56,-6.47,-1.83,-1.84,-1.84
122.33,3.70,5.57,3.70,5.57,-5.57,-6.48,-1.86,-1.87,-1.87
123.55,3.67,5.57,3.67,5.57,-5.57,-6.49,-1.89,-1.89,-1.89
124.79,3.64,5.57,3.64,5.57,-5.57,-6.48,-1.92,-1.92,-1.92
126.03,3.61,5.56,3.61,5.56,-5.56,-6.47,-1.95,-1.95,-1.95
127.29,3.58,5.56,3.58,5.56,-5.56,-6.45,-1.98,-1.98,-1.98
128.57,3.54,5.55,3.55,5.56,-5.56,-6.42,-2.02,-2.01,-2.01
129.85,3.52,5.56,3.52,5.55,-5.55,-6.38,-2.03,-2.04,-2.04
131.15,3.48,5.55,3.48,5.55,-5.55,-6.34,-2.06,-2.06,-2.06
132.46,3.45,5.54,3.45,5.54,-5.54,-6.28,-2.09,-2.09,-2.09
133.79,3.42,5.54,3.42,5.53,-5.53,-6.22,-2.11,-2.12,-2.12
135.12,3.38,5.52,3.38,5.53,-5.53,-6.15,-2.14,-2.14,-2.14
136.48,3.34,5.51,3.35,5.52,-5.52,-6.08,-2.18,-2.17,-2.17
137.84,3.31,5.51,3.32,5.51,-5.51,-6.00,-2.20,-2.19,-2.19
139.22,3.28,5.50,3.28,5.50,-5.50,-5.92,-2.22,-2.22,-2.22
140.61,3.24,5.48,3.25,5.49,-5.49,-5.83,-2.25,-2.24,-2.24
142.02,3.21,5.48,3.21,5.48,-5.48,-5.74,-2.27,-2.27,-2.27
143.44,3.18,5.47,3.18,5.47,-5.47,-5.64,-2.29,-2.29,-2.29
144.87,3.14,5.45,3.15,5.46,-5.46,-5.55,-2.32,-2.31,-2.31
146.32,3.12,5.46,3.12,5.45,-5.45,-5.45,-2.33,-2.34,-2.33
147.78,3.08,5.44,3.08,5.44,-5.44,-5.35,-2.36,-2.36,-2.36
149.26,3.05,5.43,3.05,5.43,-5.43,-5.25,-2.38,-2.38,-2.38
150.75,3.01,5.41,3.02,5.42,-5.42,-5.15,-2.40,-2.40,-2.40
152.26,2.98,5.40,2.98,5.40,-5.40,-5.05,-2.42,-2.42,-2.42
153.78,2.95,5.39,2.95,5.39,-5.39,-4.95,-2.44,-2.44,-2.44
155.32,2.91,5.37,2.92,5.38,-5.38,-4.85,-2.46,-2.46,-2.46
156.88,2.88,5.36,2.88,5.36,-5.36,-4.76,-2.48,-2.48,-2.48
158.44,2.84,5.34,2.85,5.34,-5.34,-4.66,-2.50,-2.50,-2.50
160.03,2.81,5.33,2.81,5.33,-5.33,-4.57,-2.51,-2.52,-2.52
161.63,2.77,5.31,2.77,5.31,-5.31,-4.48,-2.54,-2.54,-2.54
163.24,2.73,5.29,2.73,5.29,-5.29,-4.39,-2.55,-2.55,-2.55
164.88,2.69,5.26,2.69,5.26,-5.26,-4.30,-2.57,-2.57,-2.57
166.53,2.65,5.24,2.65,5.24,-5.24,-4.22,-2.59,-2.59,-2.59
168.19,2.61,5.22,2.61,5.21,-5.21,-4.14,-2.60,-2.61,-2.60
169.87,2.56,5.18,2.56,5.18,-5.18,-4.06,-2.62,-2.62,-2.62
171.57,2.51,5.15,2.51,5.15,-5.15,-3.99,-2.64,-2.64,-2.64
173.29,2.46,5.11,2.47,5.12,-5.12,-3.91,-2.66,-2.65,-2.65
175.02,2.42,5.09,2.42,5.08,-5.08,-3.84,-2.66,-2.67,-2.67
176.77,2.36,5.04,2.36,5.05,-5.05,-3.78,-2.68,-2.68,-2.68
178.54,2.31,5.01,2.31,5.01,-5.01,-3.71,-2.69,-2.70,-2.70
180.32,2.25,4.96,2.25,4.97,-4.97,-3.65,-2.71,-2.71,-2.71
182.13,2.19,4.92,2.20,4.92,-4.92,-3.59,-2.73,-2.72,-2.72
183.95,2.13,4.87,2.14,4.88,-4.88,-3.54,-2.74,-2.74,-2.74
185.79,2.08,4.83,2.08,4.83,-4.83,-3.49,-2.74,-2.75,-2.75
187.65,2.02,4.79,2.01,4.78,-4.78,-3.44,-2.75,-2.76,-2.76
189.52,1.94,4.72,1.95,4.72,-4.72,-3.39,-2.78,-2.78,-2.78
191.42,1.88,4.67,1.88,4.67,-4.67,-3.35,-2.79,-2.79,-2.79
193.33,1.82,4.62,1.81,4.61,-4.61,-3.30,-2.79,-2.80,-2.80
195.27,1.74,4.55,1.74,4.56,-4.56,-3.26,-2.81,-2.81,-2.81
197.22,1.67,4.49,1.67,4.49,-4.49,-3.23,-2.82,-2.82,-2.82
199.19,1.60,4.43,1.60,4.43,-4.43,-3.19,-2.83,-2.83,-2.83
201.18,1.53,4.38,1.53,4.37,-4.37,-3.16,-2.84,-2.84,-2.84
203.19,1.44,4.30,1.45,4.30,-4.30,-3.12,-2.86,-2.85,-2.85
205.23,1.37,4.24,1.37,4.24,-4.24,-3.09,-2.86,-2.86,-2.86
207.28,1.29,4.17,1.29,4.17,-4.17,-3.06,-2.88,-2.87,-2.87
209.35,1.21,4.09,1.22,4.10,-4.10,-3.04,-2.89,-2.88,-2.88
211.44,1.14,4.03,1.14,4.03,-4.03,-3.01,-2.88,-2.89,-2.89
213.56,1.05,3.95,1.06,3.96,-3.96,-2.98,-2.90,-2.90,-2.90
215.69,0.97,3.88,0.97,3.88,-3.88,-2.96,-2.91,-2.91,-2.91
217.85,0.89,3.81,0.89,3.81,-3.81,-2.94,-2.92,-2.92,-2.92
220.03,0.81,3.74,0.81,3.74,-3.74,-2.91,-2.93,-2.93,-2.93
222.23,0.73,3.67,0.73,3.67,-3.67,-2.89,-2.94,-2.94,-2.93
224.45,0.65,3.59,0.65,3.60,-3.60,-2.86,-2.94,-2.95,-2.94
226.70,0.56,3.51,0.57,3.53,-3.53,-2.84,-2.96,-2.96,-2.95
228.96,0.48,3.44,0.49,3.46,-3.46,-2.81,-2.97,-2.97,-2.96
231.25,0.39,3.36,0.41,3.39,-3.39,-2.78,-2.99,-2.98,-2.96
233.57,0.31,3.28,0.33,3.32,-3.32,-2.76,-3.00,-2.99,-2.97
235.90,0.23,3.21,0.25,3.25,-3.25,-2.73,-3.02,-2.99,-2.98
238.26,0.16,3.15,0.18,3.18,-3.18,-2.70,-3.01,-3.00,-2.98
240.64,0.07,3.06,0.10,3.10,-3.10,-2.66,-3.03,-3.00,-2.99
243.05,-0.01,2.99,0.02,3.03,-3.03,-2.63,-3.03,-3.01,-3.00
245.48,-0.10,2.90,-0.07,2.94,-2.94,-2.59,-3.04,-3.01,-3.00
247.93,-0.18,2.83,-0.17,2.84,-2.84,-2.56,-3.02,-3.01,-3.01
250.41,-0.27,2.75,-0.28,2.73,-2.73,-2.52,-3.00,-3.01,-3.01
252.92,-0.37,2.65,-0.41,2.60,-2.60,-2.47,-2.97,-3.01,-3.02
255.45,-0.50,2.53,-0.55,2.46,-2.46,-2.43,-2.96,-3.01,-3.02
258.00,-0.63,2.40,-0.71,2.31,-2.31,-2.38,-2.93,-3.02,-3.03
260.58,-0.79,2.25,-0.89,2.14,-2.14,-2.33,-2.92,-3.03,-3.03
263.19,-0.99,2.05,-1.08,1.96,-1.96,-2.28,-2.94,-3.04,-3.04
265.82,-1.20,1.85,-1.29,1.77,-1.77,-2.23,-2.96,-3.06,-3.04
268.48,-1.43,1.62,-1.50,1.57,-1.57,-2.17,-3.00,-3.07,-3.05
271.16,-1.68,1.38,-1.71,1.38,-1.38,-2.11,-3.05,-3.09,-3.05
273.87,-1.94,1.12,-1.92,1.18,-1.18,-2.05,-3.12,-3.10,-3.06
276.61,-2.19,0.87,-2.12,0.99,-0.99,-1.99,-3.18,-3.12,-3.06
279.38,-2.41,0.66,-2.31,0.82,-0.82,-1.93,-3.23,-3.13,-3.07
282.17,-2.60,0.47,-2.47,0.66,-0.66,-1.87,-3.26,-3.14,-3.07
284.99,-2.76,0.32,-2.62,0.53,-0.53,-1.80,-3.28,-3.14,-3.07
287.84,-2.87,0.21,-2.74,0.41,-0.41,-1.74,-3.28,-3.15,-3.08
290.72,-2.93,0.15,-2.83,0.32,-0.32,-1.67,-3.24,-3.15,-3.08
293.63,-2.97,0.12,-2.90,0.24,-0.24,-1.60,-3.21,-3.14,-3.09
296.57,-2.98,0.11,-2.95,0.19,-0.19,-1.53,-3.17,-3.14,-3.09
299.53,-2.97,0.12,-2.98,0.15,-0.15,-1.47,-3.12,-3.13,-3.09
302.53,-2.96,0.14,-3.00,0.12,-0.12,-1.40,-3.08,-3.12,-3.10
305.55,-2.96,0.14,-3.02,0.10,-0.10,-1.33,-3.06,-3.11,-3.10
308.61,-2.95,0.15,-3.03,0.08,-0.08,-1.26,-3.03,-3.11,-3.10
311.69,-2.97,0.14,-3.04,0.06,-0.06,-1.18,-3.03,-3.10,-3.10
314.81,-2.99,0.12,-3.06,0.04,-0.04,-1.11,-3.03,-3.10,-3.11
317.96,-3.04,0.07,-3.08,0.02,-0.02,-1.04,-3.05,-3.10,-3.11
321.14,-3.09,0.03,-3.12,-0.02,0.02,-0.97,-3.07,-3.10,-3.11
324.35,-3.16,-0.04,-3.16,-0.06,0.06,-0.90,-3.10,-3.11,-3.12
327.59,-3.23,-0.11,-3.22,-0.10,0.10,-0.83,-3.12,-3.12,-3.12
330.87,-3.30,-0.18,-3.28,-0.16,0.16,-0.76,-3.14,-3.12,-3.12
334.18,-3.38,-0.25,-3.35,-0.23,0.23,-0.69,-3.15,-3.13,-3.12
337.52,-3.45,-0.32,-3.43,-0.30,0.30,-0.62,-3.15,-3.13,-3.13
340.90,-3.53,-0.40,-3.51,-0.38,0.38,-0.55,-3.15,-3.13,-3.13
344.30,-3.61,-0.48,-3.60,-0.46,0.46,-0.48,-3.14,-3.13,-3.13
347.75,-3.68,-0.55,-3.69,-0.55,0.55,-0.41,-3.13,-3.14,-3.13
351.23,-3.75,-0.61,-3.78,-0.64,0.64,-0.34,-3.11,-3.14,-3.13
354.74,-3.83,-0.69,-3.87,-0.73,0.73,-0.27,-3.10,-3.14,-3.14
358.28,-3.94,-0.80,-3.96,-0.82,0.82,-0.20,-3.12,-3.14,-3.14
361.87,-4.04,-0.90,-4.05,-0.91,0.91,-0.13,-3.13,-3.14,-3.14
365.49,-4.14,-0.99,-4.15,-1.00,1.00,-0.06,-3.14,-3.15,-3.14
369.14,-4.24,-1.09,-4.23,-1.08,1.08,0.01,-3.15,-3.15,-3.14
372.83,-4.33,-1.18,-4.32,-1.16,1.16,0.08,-3.17,-3.16,-3.15
376.56,-4.40,-1.25,-4.39,-1.23,1.23,0.15,-3.17,-3.16,-3.15
380.33,-4.49,-1.34,-4.46,-1.29,1.29,0.22,-3.19,-3.17,-3.15
384.13,-4.54,-1.39,-4.52,-1.35,1.35,0.28,-3.19,-3.17,-3.15
387.97,-4.60,-1.44,-4.57,-1.39,1.39,0.35,-3.21,-3.18,-3.15
391.85,-4.64,-1.48,-4.60,-1.42,1.42,0.42,-3.22,-3.18,-3.15
395.77,-4.66,-1.50,-4.62,-1.43,1.43,0.49,-3.23,-3.18,-3.16
399.73,-4.65,-1.49,-4.62,-1.44,1.44,0.55,-3.21,-3.18,-3.16
403.72,-4.65,-1.49,-4.61,-1.43,1.43,0.62,-3.22,-3.18,-3.16
407.76,-4.62,-1.46,-4.59,-1.41,1.41,0.69,-3.20,-3.18,-3.16
411.84,-4.58,-1.41,-4.57,-1.39,1.39,0.75,-3.19,-3.18,-3.16
415.96,-4.53,-1.36,-4.54,-1.36,1.36,0.81,-3.17,-3.18,-3.17
420.12,-4.48,-1.31,-4.50,-1.33,1.33,0.88,-3.15,-3.17,-3.17
424.32,-4.44,-1.27,-4.46,-1.29,1.29,0.94,-3.15,-3.17,-3.17
428.56,-4.39,-1.22,-4.42,-1.25,1.25,1.00,-3.14,-3.17,-3.17
432.85,-4.35,-1.18,-4.38,-1.21,1.21,1.06,-3.13,-3.17,-3.17
437.18,-4.32,-1.15,-4.34,-1.18,1.18,1.11,-3.14,-3.16,-3.17
441.55,-4.29,-1.12,-4.31,-1.15,1.15,1.16,-3.14,-3.16,-3.17
445.96,-4.27,-1.10,-4.28,-1.12,1.12,1.22,-3.15,-3.16,-3.17
450.42,-4.25,-1.08,-4.25,-1.10,1.10,1.26,-3.15,-3.16,-3.17
454.93,-4.23,-1.07,-4.23,-1.08,1.08,1.31,-3.15,-3.16,-3.16
459.48,-4.22,-1.06,-4.22,-1.06,1.06,1.35,-3.16,-3.15,-3.16
464.07,-4.21,-1.06,-4.20,-1.05,1.05,1.39,-3.16,-3.15,-3.15
468.71,-4.19,-1.05,-4.18,-1.04,1.04,1.43,-3.15,-3.14,-3.14
473.40,-4.18,-1.04,-4.17,-1.04,1.04,1.46,-3.14,-3.13,-3.13
478.13,-4.16,-1.04,-4.16,-1.03,1.03,1.49,-3.13,-3.13,-3.12
482.91,-4.15,-1.04,-4.14,-1.03,1.03,1.51,-3.12,-3.11,-3.11
487.74,-4.13,-1.03,-4.13,-1.02,1.02,1.53,-3.10,-3.10,-3.10
492.62,-4.11,-1.02,-4.11,-1.02,1.02,1.55,-3.09,-3.09,-3.09
497.55,-4.09,-1.02,-4.09,-1.01,1.01,1.56,-3.07,-3.08,-3.07
502.52,-4.07,-1.01,-4.07,-1.01,1.01,1.57,-3.06,-3.06,-3.06
507.55,-4.05,-1.01,-4.04,-1.00,1.00,1.57,-3.05,-3.04,-3.04
512.62,-4.02,-1.00,-4.02,-0.99,0.99,1.57,-3.03,-3.03,-3.02
517.75,-3.99,-0.98,-3.99,-0.98,0.98,1.57,-3.01,-3.01,-3.01
522.93,-3.97,-0.98,-3.96,-0.97,0.97,1.56,-3.00,-2.99,-2.99
528.16,-3.93,-0.96,-3.93,-0.95,0.95,1.54,-2.97,-2.97,-2.97
533.44,-3.89,-0.94,-3.89,-0.94,0.94,1.53,-2.95,-2.95,-2.95
538.77,-3.86,-0.93,-3.85,-0.92,0.92,1.51,-2.93,-2.93,-2.93
544.16,-3.82,-0.91,-3.81,-0.91,0.91,1.48,-2.91,-2.91,-2.91
549.60,-3.77,-0.88,-3.77,-0.89,0.89,1.45,-2.88,-2.88,-2.89
555.10,-3.73,-0.87,-3.73,-0.87,0.87,1.42,-2.86,-2.86,-2.86
560.65,-3.69,-0.85,-3.68,-0.85,0.85,1.39,-2.84,-2.83,-2.83
566.25,-3.63,-0.82,-3.63,-0.82,0.82,1.35,-2.80,-2.81,-2.81
571.92,-3.58,-0.80,-3.58,-0.80,0.80,1.32,-2.78,-2.78,-2.78
577.64,-3.53,-0.78,-3.53,-0.77,0.77,1.28,-2.75,-2.75,-2.75
583.41,-3.48,-0.76,-3.47,-0.75,0.75,1.23,-2.73,-2.72,-2.72
589.25,-3.41,-0.72,-3.42,-0.72,0.72,1.19,-2.69,-2.69,-2.69
595.14,-3.36,-0.70,-3.36,-0.70,0.70,1.15,-2.66,-2.66,-2.66
601.09,-3.30,-0.67,-3.30,-0.67,0.67,1.10,-2.63,-2.63,-2.63
607.10,-3.24,-0.64,-3.24,-0.64,0.64,1.05,-2.60,-2.60,-2.60
613.17,-3.18,-0.61,-3.18,-0.61,0.61,1.01,-2.57,-2.57,-2.57
619.30,-3.12,-0.58,-3.11,-0.58,0.58,0.96,-2.54,-2.54,-2.54
625.50,-3.05,-0.54,-3.05,-0.54,0.54,0.91,-2.50,-2.51,-2.51
631.75,-2.99,-0.51,-2.99,-0.51,0.51,0.86,-2.48,-2.48,-2.47
638.07,-2.92,-0.48,-2.92,-0.48,0.48,0.81,-2.44,-2.44,-2.44
644.45,-2.85,-0.44,-2.85,-0.44,0.44,0.76,-2.41,-2.41,-2.41
650.89,-2.79,-0.41,-2.78,-0.41,0.41,0.71,-2.38,-2.38,-2.38
657.40,-2.72,-0.37,-2.71,-0.37,0.37,0.66,-2.35,-2.34,-2.34
663.98,-2.65,-0.34,-2.64,-0.33,0.33,0.61,-2.32,-2.31,-2.31
670.62,-2.57,-0.29,-2.57,-0.30,0.30,0.57,-2.27,-2.27,-2.27
