frequency,raw,error,smoothed,error_smoothed,equalization,parametric_eq,fixed_band_eq,equalized_raw,equalized_smoothed,target
20.00,-4.10,-6.07,-4.10,-6.07,6.03,5.33,1.68,1.93,1.93,1.97
20.20,-4.01,-6.02,-4.01,-6.02,5.99,5.29,1.73,1.98,1.98,2.01
20.40,-3.92,-5.96,-3.92,-5.96,5.94,5.25,1.78,2.02,2.03,2.04
20.61,-3.82,-5.89,-3.82,-5.90,5.89,5.21,1.83,2.07,2.06,2.07
20.81,-3.73,-5.84,-3.73,-5.84,5.83,5.18,1.89,2.10,2.10,2.11
21.02,-3.64,-5.79,-3.64,-5.77,5.76,5.14,1.94,2.12,2.13,2.15
21.23,-3.54,-5.70,-3.54,-5.70,5.69,5.10,2.00,2.15,2.16,2.16
21.44,-3.43,-5.61,-3.44,-5.61,5.62,5.06,2.06,2.19,2.18,2.18
21.66,-3.33,-5.53,-3.33,-5.52,5.53,5.03,2.12,2.20,2.20,2.20
21.87,-3.23,-5.43,-3.23,-5.43,5.43,4.99,2.18,2.21,2.21,2.21
22.09,-3.12,-5.34,-3.12,-5.34,5.34,4.95,2.25,2.22,2.22,2.23
22.31,-3.02,-5.24,-3.02,-5.25,5.24,4.91,2.31,2.22,2.22,2.22
22.54,-2.91,-5.15,-2.91,-5.14,5.14,4.87,2.38,2.23,2.23,2.23
22.76,-2.80,-5.04,-2.80,-5.04,5.04,4.84,2.45,2.24,2.24,2.24
22.99,-2.69,-4.93,-2.70,-4.94,4.94,4.80,2.52,2.25,2.25,2.24
23.22,-2.60,-4.85,-2.60,-4.85,4.85,4.76,2.59,2.25,2.26,2.25
23.45,-2.50,-4.76,-2.50,-4.76,4.77,4.72,2.67,2.27,2.27,2.26
23.69,-2.41,-4.68,-2.40,-4.67,4.69,4.68,2.74,2.27,2.28,2.27
23.92,-2.31,-4.59,-2.32,-4.60,4.61,4.64,2.82,2.30,2.29,2.28
24.16,-2.24,-4.53,-2.25,-4.53,4.54,4.61,2.90,2.30,2.30,2.29
24.40,-2.19,-4.49,-2.18,-4.48,4.47,4.57,2.98,2.28,2.29,2.30
24.65,-2.13,-4.42,-2.13,-4.42,4.40,4.53,3.06,2.27,2.28,2.29
24.89,-2.07,-4.35,-2.07,-4.36,4.34,4.49,3.14,2.27,2.27,2.29
25.14,-2.00,-4.28,-2.00,-4.29,4.27,4.45,3.22,2.27,2.27,2.29
25.39,-1.93,-4.21,-1.92,-4.21,4.20,4.42,3.31,2.28,2.28,2.28
25.65,-1.85,-4.13,-1.85,-4.13,4.14,4.38,3.39,2.29,2.29,2.28
25.91,-1.77,-4.04,-1.78,-4.06,4.08,4.34,3.47,2.31,2.30,2.27
26.16,-1.72,-4.00,-1.72,-4.00,4.02,4.30,3.55,2.30,2.30,2.28
26.43,-1.68,-3.96,-1.68,-3.96,3.96,4.26,3.64,2.28,2.28,2.28
26.69,-1.64,-3.92,-1.64,-3.92,3.90,4.23,3.72,2.26,2.26,2.28
26.96,-1.61,-3.89,-1.60,-3.88,3.85,4.19,3.80,2.24,2.25,2.28
27.23,-1.55,-3.83,-1.55,-3.82,3.80,4.15,3.88,2.25,2.25,2.28
27.50,-1.48,-3.75,-1.48,-3.75,3.76,4.12,3.95,2.28,2.28,2.27
27.77,-1.42,-3.68,-1.42,-3.69,3.72,4.08,4.02,2.30,2.30,2.26
28.05,-1.37,-3.63,-1.38,-3.64,3.69,4.04,4.10,2.32,2.30,2.26
28.33,-1.37,-3.62,-1.37,-3.63,3.65,4.01,4.16,2.28,2.28,2.25
28.62,-1.37,-3.63,-1.37,-3.62,3.62,3.97,4.23,2.25,2.25,2.26
28.90,-1.37,-3.63,-1.36,-3.61,3.58,3.93,4.28,2.21,2.22,2.26
29.19,-1.33,-3.58,-1.32,-3.58,3.53,3.90,4.34,2.20,2.21,2.25
29.48,-1.26,-3.51,-1.27,-3.52,3.48,3.86,4.38,2.22,2.22,2.25
29.78,-1.19,-3.44,-1.19,-3.44,3.43,3.83,4.43,2.24,2.23,2.25
30.08,-1.12,-3.37,-1.12,-3.37,3.37,3.79,4.46,2.24,2.24,2.25
30.38,-1.05,-3.29,-1.04,-3.29,3.30,3.76,4.50,2.25,2.26,2.24
30.68,-0.98,-3.22,-0.98,-3.21,3.24,3.73,4.52,2.26,2.27,2.24
30.99,-0.91,-3.13,-0.93,-3.16,3.20,3.69,4.54,2.28,2.27,2.22
31.30,-0.91,-3.13,-0.91,-3.13,3.16,3.66,4.55,2.25,2.25,2.22
31.61,-0.91,-3.13,-0.90,-3.12,3.13,3.63,4.56,2.22,2.23,2.22
31.93,-0.91,-3.12,-0.91,-3.12,3.11,3.59,4.55,2.20,2.20,2.21
32.24,-0.91,-3.10,-0.91,-3.11,3.09,3.56,4.55,2.18,2.18,2.19
32.57,-0.91,-3.10,-0.92,-3.11,3.06,3.53,4.53,2.15,2.15,2.19
32.89,-0.91,-3.10,-0.90,-3.08,3.04,3.50,4.51,2.13,2.14,2.19
33.22,-0.86,-3.05,-0.85,-3.03,3.00,3.47,4.48,2.14,2.16,2.19
33.55,-0.78,-2.96,-0.78,-2.97,2.97,3.44,4.45,2.19,2.19,2.18
33.89,-0.71,-2.89,-0.73,-2.91,2.95,3.41,4.41,2.24,2.22,2.18
34.23,-0.70,-2.88,-0.70,-2.88,2.93,3.38,4.37,2.23,2.23,2.18
34.57,-0.72,-2.89,-0.71,-2.88,2.92,3.35,4.33,2.20,2.21,2.17
34.92,-0.74,-2.90,-0.74,-2.91,2.92,3.32,4.28,2.18,2.18,2.16
35.27,-0.79,-2.95,-0.80,-2.95,2.93,3.29,4.23,2.14,2.14,2.16
35.62,-0.85,-2.99,-0.85,-3.00,2.95,3.26,4.17,2.10,2.10,2.15
35.97,-0.91,-3.05,-0.89,-3.03,2.99,3.24,4.12,2.08,2.10,2.14
36.33,-0.91,-3.05,-0.90,-3.04,3.03,3.21,4.06,2.12,2.13,2.14
36.70,-0.91,-3.04,-0.92,-3.05,3.08,3.18,4.00,2.17,2.16,2.13
37.06,-0.93,-3.05,-0.96,-3.08,3.13,3.16,3.94,2.20,2.18,2.12
37.43,-1.03,-3.15,-1.03,-3.15,3.19,3.13,3.88,2.16,2.16,2.12
37.81,-1.14,-3.25,-1.12,-3.23,3.24,3.11,3.82,2.10,2.12,2.11
38.19,-1.22,-3.32,-1.22,-3.32,3.30,3.08,3.75,2.08,2.08,2.10
38.57,-1.29,-3.38,-1.30,-3.39,3.35,3.06,3.69,2.06,2.05,2.09
38.95,-1.36,-3.45,-1.35,-3.43,3.40,3.04,3.63,2.04,2.05,2.09
39.34,-1.38,-3.45,-1.38,-3.46,3.43,3.02,3.57,2.05,2.05,2.07
39.74,-1.39,-3.45,-1.40,-3.46,3.45,2.99,3.52,2.06,2.06,2.06
40.14,-1.40,-3.46,-1.39,-3.45,3.46,2.97,3.46,2.06,2.07,2.06
40.54,-1.38,-3.44,-1.38,-3.44,3.46,2.95,3.41,2.08,2.07,2.06
40.94,-1.37,-3.42,-1.38,-3.42,3.45,2.93,3.35,2.08,2.07,2.05
41.35,-1.37,-3.40,-1.37,-3.40,3.43,2.91,3.30,2.06,2.06,2.03
41.76,-1.37,-3.39,-1.37,-3.39,3.39,2.89,3.25,2.02,2.02,2.02
42.18,-1.37,-3.37,-1.38,-3.38,3.35,2.88,3.21,1.98,1.97,2.00
42.60,-1.37,-3.34,-1.37,-3.35,3.30,2.86,3.16,1.93,1.93,1.97
43.03,-1.36,-3.32,-1.33,-3.28,3.24,2.84,3.12,1.88,1.91,1.96
43.46,-1.26,-3.19,-1.26,-3.18,3.17,2.82,3.08,1.91,1.91,1.93
43.90,-1.16,-3.04,-1.19,-3.08,3.11,2.81,3.04,1.95,1.92,1.88
44.33,-1.14,-2.99,-1.14,-3.00,3.05,2.79,3.01,1.91,1.90,1.85
44.78,-1.14,-2.96,-1.13,-2.95,2.99,2.78,2.98,1.85,1.86,1.82
45.23,-1.14,-2.93,-1.14,-2.93,2.94,2.76,2.95,1.80,1.80,1.79
45.68,-1.14,-2.90,-1.14,-2.90,2.90,2.75,2.92,1.76,1.76,1.76
46.13,-1.14,-2.88,-1.14,-2.88,2.87,2.73,2.89,1.73,1.73,1.74
46.60,-1.14,-2.87,-1.14,-2.87,2.86,2.72,2.87,1.72,1.72,1.73
47.06,-1.14,-2.85,-1.14,-2.86,2.85,2.71,2.85,1.71,1.71,1.71
47.53,-1.14,-2.84,-1.14,-2.85,2.84,2.70,2.83,1.70,1.70,1.70
48.01,-1.14,-2.84,-1.14,-2.84,2.83,2.68,2.81,1.69,1.69,1.70
48.49,-1.14,-2.83,-1.14,-2.83,2.83,2.67,2.80,1.69,1.69,1.69
48.97,-1.14,-2.82,-1.14,-2.82,2.82,2.66,2.78,1.68,1.68,1.68
49.46,-1.14,-2.81,-1.14,-2.81,2.82,2.65,2.77,1.68,1.68,1.67
49.96,-1.14,-2.81,-1.14,-2.81,2.82,2.64,2.76,1.68,1.68,1.67
50.46,-1.14,-2.81,-1.14,-2.81,2.82,2.63,2.75,1.68,1.68,1.67
50.96,-1.14,-2.82,-1.14,-2.82,2.81,2.62,2.75,1.67,1.67,1.68
51.47,-1.14,-2.81,-1.14,-2.81,2.80,2.61,2.74,1.66,1.66,1.67
51.99,-1.14,-2.80,-1.14,-2.80,2.79,2.60,2.74,1.65,1.65,1.66
52.51,-1.14,-2.78,-1.14,-2.78,2.77,2.59,2.73,1.63,1.63,1.64
53.03,-1.14,-2.76,-1.14,-2.76,2.75,2.58,2.73,1.61,1.61,1.62
53.56,-1.14,-2.72,-1.14,-2.72,2.71,2.57,2.73,1.57,1.57,1.58
54.10,-1.14,-2.68,-1.14,-2.68,2.66,2.56,2.73,1.52,1.52,1.54
54.64,-1.14,-2.63,-1.14,-2.63,2.61,2.56,2.72,1.47,1.47,1.49
55.18,-1.14,-2.58,-1.14,-2.58,2.56,2.55,2.72,1.42,1.42,1.44
55.74,-1.14,-2.53,-1.13,-2.52,2.52,2.54,2.72,1.38,1.39,1.39
56.29,-1.14,-2.48,-1.13,-2.47,2.50,2.53,2.72,1.36,1.37,1.34
56.86,-1.14,-2.42,-1.17,-2.45,2.50,2.52,2.71,1.36,1.33,1.28
57.42,-1.24,-2.45,-1.24,-2.46,2.52,2.51,2.71,1.28,1.27,1.21
58.00,-1.37,-2.52,-1.36,-2.51,2.56,2.51,2.70,1.19,1.20,1.15
58.58,-1.50,-2.59,-1.50,-2.60,2.61,2.50,2.70,1.11,1.11,1.09
59.16,-1.64,-2.68,-1.64,-2.67,2.67,2.49,2.69,1.03,1.04,1.04
59.76,-1.77,-2.75,-1.78,-2.76,2.73,2.48,2.68,0.96,0.94,0.98
60.35,-1.90,-2.81,-1.91,-2.83,2.77,2.47,2.67,0.87,0.86,0.91
60.96,-2.04,-2.90,-2.00,-2.85,2.80,2.46,2.65,0.76,0.79,0.86
61.57,-2.05,-2.84,-2.05,-2.84,2.80,2.45,2.64,0.75,0.75,0.79
62.18,-2.05,-2.77,-2.06,-2.79,2.79,2.44,2.62,0.74,0.73,0.72
62.80,-2.05,-2.73,-2.05,-2.72,2.76,2.43,2.60,0.71,0.71,0.68
63.43,-2.05,-2.67,-2.05,-2.67,2.71,2.42,2.57,0.66,0.66,0.62
64.07,-2.05,-2.63,-2.05,-2.63,2.64,2.41,2.55,0.59,0.59,0.58
64.71,-2.05,-2.58,-2.06,-2.59,2.56,2.40,2.52,0.51,0.50,0.53
65.35,-2.05,-2.53,-2.05,-2.53,2.49,2.39,2.49,0.44,0.44,0.48
66.01,-2.05,-2.49,-2.00,-2.44,2.41,2.38,2.46,0.36,0.41,0.44
66.67,-1.90,-2.31,-1.92,-2.33,2.34,2.36,2.43,0.44,0.41,0.40
67.33,-1.82,-2.19,-1.85,-2.23,2.27,2.35,2.39,0.45,0.42,0.37
68.01,-1.82,-2.16,-1.81,-2.15,2.21,2.34,2.36,0.39,0.40,0.34
68.69,-1.82,-2.13,-1.81,-2.12,2.15,2.32,2.32,0.33,0.34,0.31
69.37,-1.82,-2.10,-1.82,-2.10,2.10,2.31,2.28,0.28,0.28,0.28
70.07,-1.82,-2.07,-1.82,-2.07,2.06,2.29,2.24,0.24,0.24,0.25
70.77,-1.82,-2.05,-1.82,-2.05,2.03,2.28,2.19,0.21,0.21,0.23
71.48,-1.82,-2.02,-1.82,-2.02,2.01,2.26,2.15,0.19,0.19,0.20
72.19,-1.82,-2.00,-1.82,-1.99,1.99,2.24,2.11,0.17,0.17,0.18
72.91,-1.82,-1.96,-1.82,-1.96,1.96,2.23,2.06,0.14,0.14,0.14
73.64,-1.82,-1.93,-1.82,-1.93,1.93,2.21,2.02,0.11,0.11,0.11
74.38,-1.82,-1.90,-1.82,-1.90,1.90,2.19,1.97,0.08,0.08,0.08
75.12,-1.82,-1.87,-1.82,-1.87,1.87,2.17,1.93,0.05,0.05,0.05
75.87,-1.82,-1.84,-1.82,-1.84,1.84,2.15,1.88,0.02,0.02,0.02
76.63,-1.82,-1.81,-1.82,-1.81,1.81,2.12,1.84,-0.01,-0.01,-0.01
77.40,-1.82,-1.79,-1.82,-1.78,1.78,2.10,1.79,-0.04,-0.04,-0.03
78.17,-1.82,-1.75,-1.82,-1.76,1.76,2.08,1.75,-0.06,-0.06,-0.07
78.95,-1.82,-1.74,-1.82,-1.74,1.74,2.06,1.71,-0.08,-0.08,-0.08
79.74,-1.82,-1.73,-1.82,-1.72,1.72,2.03,1.66,-0.10,-0.10,-0.09
80.54,-1.82,-1.70,-1.82,-1.71,1.71,2.01,1.62,-0.11,-0.11,-0.12
81.35,-1.82,-1.69,-1.82,-1.69,1.70,1.98,1.58,-0.12,-0.12,-0.13
82.16,-1.82,-1.68,-1.82,-1.69,1.69,1.95,1.54,-0.13,-0.13,-0.14
82.98,-1.82,-1.69,-1.82,-1.68,1.68,1.93,1.50,-0.14,-0.14,-0.13
83.81,-1.82,-1.68,-1.82,-1.68,1.68,1.90,1.46,-0.14,-0.14,-0.14
84.65,-1.82,-1.67,-1.82,-1.68,1.68,1.87,1.42,-0.14,-0.14,-0.15
85.50,-1.82,-1.68,-1.82,-1.68,1.68,1.84,1.39,-0.14,-0.14,-0.14
86.35,-1.82,-1.68,-1.82,-1.68,1.68,1.81,1.35,-0.14,-0.14,-0.14
87.22,-1.82,-1.68,-1.82,-1.69,1.69,1.78,1.32,-0.13,-0.13,-0.14
88.09,-1.82,-1.68,-1.82,-1.69,1.69,1.74,1.28,-0.13,-0.13,-0.14
88.97,-1.82,-1.70,-1.82,-1.69,1.69,1.71,1.25,-0.13,-0.13,-0.12
89.86,-1.82,-1.70,-1.82,-1.70,1.69,1.68,1.22,-0.13,-0.13,-0.12
90.76,-1.82,-1.69,-1.82,-1.70,1.69,1.64,1.18,-0.13,-0.13,-0.13
91.66,-1.82,-1.70,-1.82,-1.69,1.69,1.61,1.15,-0.13,-0.13,-0.12
92.58,-1.82,-1.67,-1.82,-1.68,1.68,1.58,1.12,-0.14,-0.14,-0.15
93.51,-1.82,-1.68,-1.82,-1.68,1.67,1.54,1.10,-0.15,-0.15,-0.14
94.44,-1.82,-1.67,-1.82,-1.66,1.66,1.50,1.07,-0.16,-0.16,-0.15
95.39,-1.82,-1.65,-1.82,-1.65,1.64,1.47,1.04,-0.18,-0.18,-0.17
96.34,-1.82,-1.62,-1.82,-1.62,1.63,1.43,1.02,-0.19,-0.19,-0.20
97.30,-1.82,-1.60,-1.82,-1.60,1.60,1.39,0.99,-0.22,-0.22,-0.22
98.28,-1.82,-1.58,-1.82,-1.58,1.58,1.36,0.97,-0.24,-0.24,-0.24
99.26,-1.82,-1.55,-1.82,-1.55,1.55,1.32,0.94,-0.27,-0.27,-0.27
100.25,-1.82,-1.52,-1.82,-1.52,1.52,1.28,0.92,-0.30,-0.30,-0.30
101.25,-1.82,-1.49,-1.82,-1.49,1.49,1.24,0.90,-0.33,-0.33,-0.33
102.27,-1.82,-1.45,-1.82,-1.45,1.45,1.20,0.88,-0.37,-0.37,-0.37
103.29,-1.82,-1.41,-1.82,-1.41,1.41,1.16,0.85,-0.41,-0.41,-0.41
104.32,-1.82,-1.37,-1.82,-1.37,1.37,1.12,0.83,-0.45,-0.45,-0.45
105.37,-1.82,-1.32,-1.82,-1.32,1.31,1.08,0.81,-0.51,-0.51,-0.50
106.42,-1.82,-1.27,-1.82,-1.27,1.26,1.04,0.79,-0.56,-0.56,-0.55
107.48,-1.82,-1.20,-1.82,-1.20,1.20,1.00,0.78,-0.62,-0.62,-0.62
108.56,-1.82,-1.12,-1.82,-1.13,1.13,0.96,0.76,-0.69,-0.69,-0.70
109.64,-1.82,-1.06,-1.82,-1.06,1.06,0.92,0.74,-0.76,-0.76,-0.76
110.74,-1.82,-0.99,-1.82,-0.99,0.99,0.88,0.72,-0.83,-0.83,-0.83
111.85,-1.82,-0.93,-1.82,-0.92,0.92,0.84,0.70,-0.90,-0.90,-0.89
112.97,-1.82,-0.84,-1.82,-0.85,0.84,0.80,0.69,-0.98,-0.98,-0.98
114.10,-1.82,-0.78,-1.82,-0.77,0.76,0.76,0.67,-1.06,-1.06,-1.04
115.24,-1.82,-0.70,-1.82,-0.70,0.69,0.72,0.65,-1.13,-1.13,-1.12
116.39,-1.82,-0.63,-1.82,-0.63,0.62,0.69,0.64,-1.20,-1.20,-1.19
117.55,-1.82,-0.56,-1.82,-0.56,0.57,0.65,0.62,-1.25,-1.25,-1.26
118.73,-1.82,-0.50,-1.81,-0.49,0.54,0.61,0.60,-1.28,-1.27,-1.32
119.92,-1.82,-0.46,-1.82,-0.45,0.51,0.57,0.59,-1.31,-1.31,-1.36
121.12,-1.83,-0.41,-1.88,-0.46,0.50,0.53,0.57,-1.33,-1.38,-1.42
122.33,-1.97,-0.51,-1.95,-0.50,0.49,0.49,0.56,-1.48,-1.46,-1.46
123.55,-2.05,-0.57,-2.02,-0.53,0.49,0.46,0.54,-1.56,-1.53,-1.48
124.79,-2.05,-0.53,-2.06,-0.54,0.48,0.42,0.52,-1.57,-1.58,-1.52
126.03,-2.05,-0.50,-2.06,-0.51,0.48,0.39,0.51,-1.57,-1.58,-1.55
127.29,-2.05,-0.47,-2.05,-0.46,0.47,0.35,0.49,-1.58,-1.58,-1.58
128.57,-2.05,-0.43,-2.05,-0.43,0.45,0.31,0.47,-1.60,-1.60,-1.62
129.85,-2.05,-0.40,-2.05,-0.40,0.41,0.28,0.46,-1.64,-1.64,-1.65
131.15,-2.05,-0.37,-2.05,-0.37,0.38,0.25,0.44,-1.67,-1.67,-1.68
132.46,-2.05,-0.33,-2.05,-0.34,0.34,0.21,0.42,-1.71,-1.71,-1.72
133.79,-2.05,-0.31,-2.05,-0.30,0.30,0.18,0.41,-1.75,-1.75,-1.74
135.12,-2.05,-0.26,-2.05,-0.27,0.27,0.15,0.39,-1.78,-1.78,-1.79
136.48,-2.05,-0.24,-2.05,-0.23,0.23,0.12,0.37,-1.82,-1.82,-1.81
137.84,-2.05,-0.20,-2.05,-0.19,0.19,0.09,0.36,-1.86,-1.86,-1.85
139.22,-2.05,-0.15,-2.05,-0.15,0.16,0.06,0.34,-1.89,-1.89,-1.90
140.61,-2.05,-0.11,-2.05,-0.11,0.12,0.03,0.32,-1.93,-1.93,-1.94
142.02,-2.05,-0.08,-2.05,-0.08,0.08,-0.00,0.30,-1.97,-1.97,-1.97
143.44,-2.05,-0.04,-2.05,-0.04,0.04,-0.03,0.28,-2.01,-2.01,-2.01
144.87,-2.05,-0.00,-2.05,-0.00,-0.01,-0.06,0.27,-2.06,-2.06,-2.05
146.32,-2.05,0.05,-2.05,0.04,-0.06,-0.08,0.25,-2.11,-2.11,-2.10
147.78,-2.05,0.09,-2.05,0.09,-0.12,-0.11,0.23,-2.17,-2.17,-2.14
149.26,-2.05,0.15,-2.05,0.16,-0.17,-0.13,0.21,-2.22,-2.22,-2.20
150.75,-2.05,0.23,-2.05,0.23,-0.22,-0.16,0.19,-2.27,-2.27,-2.28
152.26,-2.05,0.30,-2.04,0.31,-0.28,-0.18,0.18,-2.33,-2.31,-2.35
153.78,-2.05,0.37,-2.07,0.36,-0.33,-0.20,0.16,-2.38,-2.40,-2.42
155.32,-2.10,0.42,-2.14,0.37,-0.37,-0.22,0.14,-2.47,-2.51,-2.52
156.88,-2.26,0.33,-2.21,0.38,-0.40,-0.24,0.12,-2.66,-2.61,-2.59
158.44,-2.28,0.38,-2.26,0.41,-0.41,-0.26,0.10,-2.69,-2.67,-2.66
160.03,-2.28,0.46,-2.29,0.44,-0.42,-0.28,0.08,-2.70,-2.71,-2.74
161.63,-2.28,0.52,-2.33,0.46,-0.42,-0.30,0.06,-2.70,-2.75,-2.80
163.24,-2.42,0.43,-2.40,0.45,-0.43,-0.32,0.05,-2.85,-2.83,-2.85
164.88,-2.51,0.38,-2.48,0.41,-0.45,-0.34,0.03,-2.96,-2.93,-2.89
166.53,-2.51,0.42,-2.53,0.40,-0.48,-0.35,0.01,-2.99,-3.01,-2.93
168.19,-2.51,0.45,-2.50,0.46,-0.52,-0.37,-0.01,-3.03,-3.02,-2.96
169.87,-2.46,0.51,-2.43,0.55,-0.55,-0.38,-0.03,-3.01,-2.98,-2.97
171.57,-2.32,0.66,-2.36,0.62,-0.58,-0.40,-0.05,-2.90,-2.94,-2.98
173.29,-2.28,0.70,-2.30,0.68,-0.62,-0.41,-0.07,-2.90,-2.91,-2.98
175.02,-2.28,0.68,-2.27,0.70,-0.65,-0.42,-0.09,-2.93,-2.92,-2.96
176.77,-2.28,0.69,-2.28,0.69,-0.67,-0.44,-0.11,-2.95,-2.95,-2.97
178.54,-2.28,0.68,-2.28,0.68,-0.69,-0.45,-0.13,-2.97,-2.97,-2.96
180.32,-2.28,0.67,-2.28,0.67,-0.70,-0.46,-0.15,-2.98,-2.98,-2.95
182.13,-2.28,0.67,-2.28,0.67,-0.70,-0.47,-0.17,-2.98,-2.98,-2.95
183.95,-2.28,0.67,-2.28,0.67,-0.70,-0.48,-0.19,-2.98,-2.98,-2.95
185.79,-2.28,0.68,-2.28,0.68,-0.70,-0.49,-0.21,-2.98,-2.98,-2.96
187.65,-2.28,0.70,-2.28,0.70,-0.70,-0.50,-0.23,-2.98,-2.98,-2.98
189.52,-2.28,0.72,-2.27,0.73,-0.70,-0.50,-0.25,-2.98,-2.97,-3.00
191.42,-2.28,0.74,-2.28,0.75,-0.69,-0.51,-0.27,-2.97,-2.97,-3.02
193.33,-2.28,0.76,-2.32,0.72,-0.68,-0.52,-0.29,-2.96,-2.99,-3.04
195.27,-2.38,0.67,-2.38,0.67,-0.66,-0.52,-0.31,-3.04,-3.05,-3.05
197.22,-2.48,0.59,-2.45,0.62,-0.65,-0.53,-0.33,-3.13,-3.10,-3.07
199.19,-2.51,0.59,-2.50,0.59,-0.64,-0.54,-0.35,-3.15,-3.14,-3.10
201.18,-2.51,0.60,-2.52,0.60,-0.63,-0.54,-0.37,-3.14,-3.15,-3.11
203.19,-2.51,0.62,-2.51,0.62,-0.62,-0.55,-0.39,-3.13,-3.14,-3.13
205.23,-2.51,0.64,-2.51,0.63,-0.63,-0.55,-0.41,-3.14,-3.14,-3.15
207.28,-2.51,0.65,-2.51,0.65,-0.64,-0.55,-0.44,-3.15,-3.15,-3.16
209.35,-2.51,0.67,-2.51,0.67,-0.66,-0.56,-0.46,-3.17,-3.17,-3.18
211.44,-2.51,0.69,-2.51,0.69,-0.68,-0.56,-0.47,-3.19,-3.19,-3.20
213.56,-2.51,0.70,-2.51,0.70,-0.70,-0.56,-0.49,-3.21,-3.21,-3.21
215.69,-2.51,0.70,-2.51,0.71,-0.71,-0.56,-0.51,-3.22,-3.22,-3.21
217.85,-2.51,0.72,-2.51,0.72,-0.73,-0.57,-0.53,-3.24,-3.24,-3.23
220.03,-2.51,0.74,-2.51,0.74,-0.74,-0.57,-0.55,-3.25,-3.25,-3.25
222.23,-2.51,0.76,-2.51,0.75,-0.75,-0.57,-0.57,-3.26,-3.26,-3.27
224.45,-2.51,0.76,-2.51,0.76,-0.76,-0.57,-0.58,-3.27,-3.27,-3.27
226.70,-2.51,0.76,-2.51,0.77,-0.77,-0.57,-0.60,-3.28,-3.28,-3.27
228.96,-2.51,0.77,-2.51,0.77,-0.77,-0.57,-0.62,-3.28,-3.28,-3.28
231.25,-2.51,0.77,-2.51,0.78,-0.78,-0.57,-0.63,-3.29,-3.29,-3.28
233.57,-2.51,0.78,-2.51,0.78,-0.78,-0.57,-0.64,-3.29,-3.29,-3.29
235.90,-2.51,0.79,-2.51,0.79,-0.79,-0.57,-0.66,-3.30,-3.30,-3.30
238.26,-2.51,0.79,-2.51,0.79,-0.79,-0.57,-0.67,-3.30,-3.30,-3.30
240.64,-2.51,0.79,-2.51,0.79,-0.79,-0.57,-0.68,-3.30,-3.30,-3.30
243.05,-2.51,0.78,-2.51,0.78,-0.78,-0.57,-0.69,-3.29,-3.29,-3.29
245.48,-2.51,0.78,-2.51,0.78,-0.78,-0.57,-0.69,-3.29,-3.29,-3.29
247.93,-2.51,0.77,-2.51,0.77,-0.77,-0.57,-0.70,-3.28,-3.28,-3.28
250.41,-2.51,0.77,-2.51,0.77,-0.77,-0.56,-0.71,-3.28,-3.28,-3.28
252.92,-2.51,0.76,-2.51,0.76,-0.77,-0.56,-0.71,-3.28,-3.28,-3.27
255.45,-2.51,0.74,-2.51,0.75,-0.76,-0.56,-0.71,-3.27,-3.27,-3.25
258.00,-2.51,0.74,-2.51,0.74,-0.75,-0.56,-0.72,-3.26,-3.26,-3.25
260.58,-2.51,0.73,-2.51,0.73,-0.72,-0.56,-0.72,-3.23,-3.23,-3.24
263.19,-2.51,0.72,-2.50,0.73,-0.69,-0.55,-0.72,-3.20,-3.19,-3.23
265.82,-2.51,0.72,-2.53,0.69,-0.64,-0.55,-0.71,-3.15,-3.17,-3.23
268.48,-2.56,0.64,-2.59,0.62,-0.59,-0.55,-0.71,-3.15,-3.18,-3.20
271.16,-2.69,0.50,-2.66,0.53,-0.54,-0.55,-0.71,-3.23,-3.20,-3.19
273.87,-2.74,0.43,-2.72,0.44,-0.49,-0.55,-0.70,-3.23,-3.21,-3.17
276.61,-2.74,0.40,-2.75,0.40,-0.44,-0.54,-0.70,-3.18,-3.19,-3.14
279.38,-2.74,0.38,-2.74,0.38,-0.39,-0.54,-0.69,-3.13,-3.14,-3.12
282.17,-2.74,0.36,-2.74,0.36,-0.35,-0.54,-0.69,-3.09,-3.09,-3.10
284.99,-2.74,0.33,-2.74,0.33,-0.32,-0.54,-0.68,-3.06,-3.06,-3.07
287.84,-2.74,0.31,-2.74,0.31,-0.29,-0.53,-0.67,-3.03,-3.03,-3.05
290.72,-2.74,0.27,-2.74,0.28,-0.27,-0.53,-0.66,-3.01,-3.01,-3.01
293.63,-2.74,0.25,-2.74,0.25,-0.25,-0.53,-0.66,-2.99,-2.99,-2.99
296.57,-2.74,0.22,-2.74,0.22,-0.22,-0.53,-0.65,-2.96,-2.96,-2.96
299.53,-2.74,0.20,-2.74,0.20,-0.19,-0.52,-0.64,-2.93,-2.93,-2.94
302.53,-2.74,0.18,-2.74,0.17,-0.16,-0.52,-0.63,-2.90,-2.90,-2.92
305.55,-2.74,0.14,-2.74,0.15,-0.13,-0.52,-0.62,-2.87,-2.87,-2.88
308.61,-2.74,0.13,-2.74,0.13,-0.12,-0.52,-0.61,-2.86,-2.86,-2.87
311.69,-2.74,0.11,-2.74,0.10,-0.12,-0.52,-0.61,-2.86,-2.86,-2.85
314.81,-2.74,0.08,-2.76,0.08,-0.13,-0.51,-0.60,-2.87,-2.89,-2.82
317.96,-2.74,0.09,-2.73,0.09,-0.15,-0.51,-0.59,-2.89,-2.88,-2.83
321.14,-2.73,0.10,-2.67,0.15,-0.18,-0.51,-0.58,-2.91,-2.85,-2.83
324.35,-2.56,0.26,-2.60,0.22,-0.21,-0.51,-0.57,-2.77,-2.81,-2.82
327.59,-2.51,0.31,-2.53,0.28,-0.23,-0.51,-0.57,-2.74,-2.77,-2.82
330.87,-2.51,0.30,-2.50,0.32,-0.26,-0.50,-0.56,-2.77,-2.75,-2.81
334.18,-2.51,0.29,-2.51,0.30,-0.28,-0.50,-0.55,-2.79,-2.78,-2.80
337.52,-2.51,0.28,-2.51,0.28,-0.28,-0.50,-0.54,-2.79,-2.79,-2.79
340.90,-2.51,0.26,-2.51,0.27,-0.28,-0.50,-0.54,-2.79,-2.79,-2.77
344.30,-2.51,0.25,-2.51,0.25,-0.26,-0.50,-0.53,-2.77,-2.77,-2.76
347.75,-2.51,0.23,-2.51,0.23,-0.24,-0.50,-0.53,-2.75,-2.75,-2.74
351.23,-2.51,0.20,-2.51,0.21,-0.21,-0.50,-0.52,-2.72,-2.72,-2.71
354.74,-2.51,0.19,-2.51,0.18,-0.18,-0.49,-0.52,-2.69,-2.69,-2.70
358.28,-2.51,0.16,-2.51,0.16,-0.16,-0.49,-0.51,-2.67,-2.67,-2.67
361.87,-2.51,0.14,-2.51,0.14,-0.14,-0.49,-0.51,-2.65,-2.65,-2.65
365.49,-2.51,0.11,-2.51,0.11,-0.11,-0.49,-0.51,-2.62,-2.62,-2.62
369.14,-2.51,0.09,-2.51,0.09,-0.09,-0.49,-0.50,-2.60,-2.60,-2.60
372.83,-2.51,0.07,-2.51,0.07,-0.07,-0.49,-0.50,-2.58,-2.58,-2.58
376.56,-2.51,0.05,-2.51,0.04,-0.05,-0.49,-0.50,-2.56,-2.56,-2.56
380.33,-2.51,0.02,-2.51,0.02,-0.02,-0.49,-0.50,-2.53,-2.53,-2.53
384.13,-2.51,0.00,-2.51,0.00,-0.00,-0.49,-0.50,-2.51,-2.51,-2.51
387.97,-2.51,-0.01,-2.51,-0.01,0.02,-0.49,-0.50,-2.49,-2.49,-2.50
391.85,-2.51,-0.02,-2.51,-0.02,0.03,-0.49,-0.50,-2.48,-2.48,-2.49
395.77,-2.51,-0.02,-2.51,-0.02,0.03,-0.50,-0.50,-2.48,-2.48,-2.49
399.73,-2.51,-0.03,-2.52,-0.05,0.01,-0.50,-0.50,-2.50,-2.51,-2.48
403.72,-2.51,-0.04,-2.51,-0.04,-0.01,-0.50,-0.50,-2.52,-2.52,-2.47
407.76,-2.51,-0.05,-2.46,-0.00,-0.03,-0.50,-0.50,-2.54,-2.49,-2.46
411.84,-2.37,0.08,-2.39,0.06,-0.06,-0.50,-0.50,-2.43,-2.45,-2.45
415.96,-2.29,0.15,-2.32,0.13,-0.09,-0.50,-0.50,-2.38,-2.41,-2.44
420.12,-2.28,0.16,-2.27,0.17,-0.12,-0.51,-0.50,-2.40,-2.39,-2.44
424.32,-2.28,0.16,-2.27,0.17,-0.15,-0.51,-0.51,-2.43,-2.42,-2.44
428.56,-2.28,0.17,-2.28,0.17,-0.16,-0.51,-0.51,-2.44,-2.44,-2.45
432.85,-2.28,0.17,-2.28,0.16,-0.17,-0.51,-0.51,-2.45,-2.45,-2.45
437.18,-2.28,0.16,-2.28,0.16,-0.17,-0.52,-0.51,-2.45,-2.45,-2.44
441.55,-2.28,0.15,-2.28,0.15,-0.16,-0.52,-0.52,-2.44,-2.44,-2.43
445.96,-2.28,0.15,-2.28,0.15,-0.15,-0.52,-0.52,-2.43,-2.43,-2.43
450.42,-2.28,0.14,-2.28,0.14,-0.13,-0.53,-0.52,-2.41,-2.41,-2.42
454.93,-2.28,0.13,-2.28,0.13,-0.12,-0.53,-0.53,-2.40,-2.40,-2.41
459.48,-2.28,0.12,-2.28,0.12,-0.11,-0.54,-0.53,-2.39,-2.39,-2.40
464.07,-2.28,0.10,-2.28,0.11,-0.10,-0.54,-0.54,-2.38,-2.38,-2.38
