frequency,raw,error,smoothed,error_smoothed,equalization,parametric_eq,fixed_band_eq,equalized_raw,equalized_smoothed,target
20.00,3.56,0.07,3.56,0.07,-0.06,-0.87,-0.55,3.49,3.49,3.48
20.20,3.59,0.10,3.59,0.10,-0.10,-0.87,-0.56,3.49,3.49,3.48
20.40,3.62,0.13,3.62,0.13,-0.13,-0.87,-0.58,3.48,3.48,3.48
20.61,3.66,0.17,3.65,0.17,-0.17,-0.87,-0.60,3.48,3.48,3.48
20.81,3.69,0.20,3.69,0.20,-0.21,-0.87,-0.61,3.47,3.47,3.48
21.02,3.72,0.23,3.72,0.25,-0.25,-0.88,-0.63,3.46,3.47,3.48
21.23,3.77,0.30,3.76,0.29,-0.30,-0.88,-0.65,3.47,3.46,3.46
21.44,3.80,0.34,3.80,0.34,-0.34,-0.88,-0.67,3.45,3.45,3.45
21.66,3.83,0.39,3.83,0.40,-0.39,-0.88,-0.69,3.43,3.44,3.43
21.87,3.86,0.44,3.86,0.44,-0.44,-0.89,-0.71,3.41,3.42,3.41
22.09,3.90,0.49,3.89,0.49,-0.50,-0.89,-0.73,3.40,3.39,3.40
22.31,3.92,0.55,3.92,0.55,-0.55,-0.89,-0.76,3.37,3.37,3.37
22.54,3.95,0.59,3.95,0.59,-0.60,-0.90,-0.78,3.35,3.35,3.35
22.76,3.98,0.65,3.97,0.64,-0.64,-0.90,-0.80,3.33,3.33,3.33
22.99,3.99,0.69,3.99,0.69,-0.69,-0.90,-0.83,3.30,3.30,3.30
23.22,4.01,0.74,4.01,0.73,-0.73,-0.91,-0.85,3.28,3.28,3.27
23.45,4.03,0.78,4.02,0.77,-0.76,-0.91,-0.88,3.26,3.26,3.25
23.69,4.04,0.80,4.04,0.80,-0.80,-0.91,-0.90,3.24,3.24,3.24
23.92,4.05,0.83,4.05,0.83,-0.82,-0.92,-0.93,3.22,3.22,3.22
24.16,4.06,0.85,4.05,0.85,-0.85,-0.92,-0.95,3.21,3.20,3.21
24.40,4.06,0.87,4.06,0.87,-0.87,-0.92,-0.98,3.18,3.18,3.19
24.65,4.06,0.89,4.06,0.89,-0.89,-0.93,-1.01,3.16,3.17,3.17
24.89,4.07,0.92,4.06,0.91,-0.91,-0.93,-1.03,3.15,3.15,3.15
25.14,4.07,0.93,4.07,0.93,-0.94,-0.94,-1.06,3.13,3.13,3.14
25.39,4.08,0.96,4.07,0.96,-0.96,-0.94,-1.09,3.12,3.12,3.12
25.65,4.08,0.97,4.08,0.98,-0.98,-0.95,-1.12,3.10,3.10,3.11
25.91,4.08,1.00,4.08,1.00,-1.00,-0.95,-1.14,3.08,3.08,3.08
26.16,4.09,1.02,4.08,1.02,-1.02,-0.96,-1.17,3.07,3.07,3.07
26.43,4.09,1.03,4.09,1.04,-1.04,-0.96,-1.20,3.05,3.05,3.05
26.69,4.10,1.06,4.09,1.06,-1.05,-0.97,-1.22,3.04,3.04,3.03
26.96,4.10,1.07,4.10,1.07,-1.07,-0.98,-1.25,3.03,3.03,3.02
27.23,4.10,1.08,4.10,1.09,-1.09,-0.98,-1.27,3.01,3.01,3.01
27.50,4.10,1.09,4.10,1.10,-1.10,-0.99,-1.30,2.99,2.99,3.00
27.77,4.10,1.12,4.10,1.11,-1.12,-1.00,-1.32,2.98,2.98,2.98
28.05,4.11,1.14,4.10,1.13,-1.13,-1.00,-1.34,2.97,2.97,2.97
28.33,4.10,1.15,4.10,1.15,-1.15,-1.01,-1.37,2.95,2.96,2.95
28.62,4.11,1.17,4.10,1.16,-1.16,-1.02,-1.39,2.95,2.94,2.94
28.90,4.10,1.17,4.10,1.17,-1.17,-1.03,-1.40,2.93,2.93,2.93
29.19,4.09,1.18,4.09,1.18,-1.18,-1.03,-1.42,2.91,2.91,2.91
29.48,4.10,1.19,4.09,1.19,-1.19,-1.04,-1.43,2.91,2.90,2.91
29.78,4.09,1.19,4.09,1.20,-1.20,-1.05,-1.45,2.89,2.89,2.90
30.08,4.09,1.20,4.09,1.20,-1.21,-1.06,-1.46,2.88,2.88,2.88
30.38,4.08,1.21,4.08,1.22,-1.22,-1.07,-1.47,2.86,2.87,2.86
30.68,4.08,1.22,4.08,1.23,-1.22,-1.07,-1.47,2.85,2.85,2.85
30.99,4.08,1.25,4.07,1.24,-1.23,-1.08,-1.48,2.85,2.84,2.83
31.30,4.06,1.24,4.06,1.24,-1.24,-1.09,-1.48,2.82,2.82,2.82
31.61,4.05,1.24,4.05,1.24,-1.25,-1.10,-1.48,2.80,2.80,2.81
31.93,4.04,1.25,4.03,1.25,-1.25,-1.11,-1.47,2.79,2.78,2.79
32.24,4.02,1.26,4.02,1.25,-1.26,-1.12,-1.47,2.76,2.76,2.76
32.57,4.01,1.26,4.01,1.26,-1.26,-1.13,-1.46,2.75,2.75,2.74
32.89,3.99,1.25,3.99,1.26,-1.26,-1.14,-1.45,2.72,2.73,2.73
33.22,3.98,1.28,3.97,1.26,-1.27,-1.14,-1.44,2.71,2.71,2.70
33.55,3.95,1.26,3.95,1.27,-1.27,-1.15,-1.43,2.68,2.69,2.69
33.89,3.94,1.27,3.93,1.27,-1.27,-1.16,-1.41,2.67,2.66,2.67
34.23,3.92,1.27,3.92,1.27,-1.27,-1.17,-1.40,2.65,2.64,2.65
34.57,3.90,1.27,3.90,1.27,-1.27,-1.17,-1.38,2.63,2.63,2.62
34.92,3.88,1.27,3.88,1.27,-1.27,-1.18,-1.36,2.61,2.61,2.60
35.27,3.86,1.27,3.86,1.27,-1.27,-1.18,-1.34,2.59,2.59,2.59
35.62,3.84,1.27,3.84,1.27,-1.26,-1.19,-1.32,2.57,2.57,2.57
35.97,3.81,1.26,3.81,1.26,-1.26,-1.19,-1.30,2.55,2.55,2.55
36.33,3.79,1.25,3.78,1.25,-1.25,-1.20,-1.27,2.53,2.53,2.53
36.70,3.75,1.23,3.75,1.24,-1.24,-1.20,-1.25,2.50,2.51,2.51
37.06,3.73,1.24,3.73,1.23,-1.24,-1.20,-1.23,2.49,2.49,2.49
37.43,3.71,1.23,3.70,1.23,-1.23,-1.20,-1.20,2.48,2.47,2.48
37.81,3.68,1.22,3.68,1.22,-1.22,-1.20,-1.18,2.46,2.46,2.45
38.19,3.65,1.21,3.65,1.21,-1.21,-1.20,-1.15,2.43,2.43,2.43
38.57,3.62,1.20,3.62,1.20,-1.21,-1.20,-1.13,2.41,2.41,2.42
38.95,3.60,1.20,3.59,1.20,-1.20,-1.19,-1.10,2.40,2.39,2.40
39.34,3.57,1.19,3.57,1.19,-1.19,-1.19,-1.08,2.37,2.38,2.37
39.74,3.55,1.20,3.54,1.19,-1.18,-1.18,-1.05,2.36,2.36,2.35
40.14,3.52,1.17,3.52,1.18,-1.17,-1.17,-1.03,2.34,2.34,2.35
40.54,3.49,1.16,3.49,1.17,-1.16,-1.17,-1.01,2.32,2.33,2.32
40.94,3.47,1.16,3.46,1.15,-1.15,-1.16,-0.98,2.32,2.31,2.31
41.35,3.43,1.14,3.43,1.14,-1.14,-1.15,-0.96,2.29,2.29,2.29
41.76,3.41,1.12,3.40,1.13,-1.12,-1.14,-0.94,2.28,2.28,2.28
42.18,3.38,1.11,3.38,1.11,-1.11,-1.13,-0.92,2.27,2.26,2.27
42.60,3.35,1.10,3.35,1.09,-1.10,-1.12,-0.89,2.25,2.25,2.25
43.03,3.32,1.08,3.32,1.08,-1.09,-1.10,-0.87,2.23,2.23,2.24
43.46,3.29,1.07,3.29,1.08,-1.08,-1.09,-0.85,2.21,2.21,2.22
43.90,3.27,1.07,3.26,1.07,-1.07,-1.08,-0.84,2.20,2.20,2.19
44.33,3.24,1.06,3.24,1.06,-1.06,-1.06,-0.82,2.18,2.18,2.18
44.78,3.21,1.04,3.21,1.05,-1.05,-1.05,-0.80,2.16,2.16,2.16
45.23,3.18,1.04,3.18,1.04,-1.03,-1.04,-0.78,2.14,2.14,2.14
45.68,3.15,1.02,3.15,1.02,-1.02,-1.02,-0.77,2.13,2.13,2.12
46.13,3.12,1.01,3.12,1.01,-1.00,-1.01,-0.75,2.11,2.11,2.11
46.60,3.09,0.99,3.09,0.99,-0.99,-0.99,-0.73,2.10,2.10,2.10
47.06,3.06,0.97,3.06,0.97,-0.97,-0.98,-0.72,2.08,2.08,2.08
47.53,3.03,0.96,3.03,0.95,-0.96,-0.96,-0.71,2.07,2.07,2.07
48.01,3.00,0.93,2.99,0.94,-0.94,-0.95,-0.69,2.05,2.05,2.06
48.49,2.96,0.92,2.96,0.92,-0.93,-0.93,-0.68,2.03,2.03,2.04
48.97,2.93,0.92,2.93,0.92,-0.92,-0.92,-0.67,2.01,2.01,2.01
49.46,2.90,0.91,2.90,0.91,-0.91,-0.90,-0.66,1.99,1.99,1.98
49.96,2.87,0.91,2.87,0.90,-0.90,-0.89,-0.64,1.97,1.97,1.95
50.46,2.84,0.88,2.84,0.89,-0.88,-0.87,-0.63,1.95,1.95,1.96
50.96,2.81,0.87,2.81,0.87,-0.87,-0.86,-0.62,1.93,1.93,1.94
51.47,2.78,0.87,2.77,0.86,-0.86,-0.84,-0.61,1.92,1.91,1.91
51.99,2.74,0.84,2.74,0.84,-0.85,-0.83,-0.60,1.89,1.89,1.89
52.51,2.71,0.82,2.71,0.83,-0.83,-0.81,-0.60,1.88,1.88,1.88
53.03,2.68,0.81,2.68,0.81,-0.82,-0.80,-0.59,1.86,1.86,1.86
53.56,2.65,0.80,2.65,0.80,-0.80,-0.79,-0.58,1.85,1.85,1.85
54.10,2.62,0.79,2.61,0.79,-0.79,-0.77,-0.57,1.83,1.83,1.83
54.64,2.58,0.77,2.58,0.77,-0.77,-0.76,-0.56,1.81,1.81,1.81
55.18,2.54,0.75,2.54,0.75,-0.76,-0.74,-0.55,1.78,1.78,1.78
55.74,2.51,0.74,2.50,0.74,-0.74,-0.73,-0.55,1.77,1.76,1.76
56.29,2.47,0.71,2.47,0.72,-0.72,-0.71,-0.54,1.74,1.75,1.75
56.86,2.44,0.71,2.44,0.71,-0.71,-0.69,-0.53,1.73,1.73,1.73
57.42,2.41,0.70,2.40,0.69,-0.69,-0.68,-0.52,1.72,1.71,1.71
58.00,2.37,0.67,2.37,0.68,-0.67,-0.66,-0.52,1.70,1.70,1.70
58.58,2.33,0.65,2.33,0.65,-0.65,-0.65,-0.51,1.68,1.68,1.67
59.16,2.30,0.64,2.29,0.63,-0.63,-0.63,-0.50,1.67,1.66,1.66
59.76,2.25,0.60,2.25,0.61,-0.61,-0.61,-0.50,1.64,1.64,1.65
60.35,2.22,0.59,2.21,0.58,-0.59,-0.60,-0.49,1.63,1.62,1.62
60.96,2.17,0.55,2.17,0.56,-0.57,-0.58,-0.48,1.60,1.60,1.62
61.57,2.14,0.55,2.13,0.55,-0.55,-0.56,-0.47,1.59,1.58,1.58
62.18,2.10,0.54,2.10,0.53,-0.53,-0.55,-0.46,1.57,1.56,1.56
62.80,2.06,0.51,2.06,0.52,-0.51,-0.53,-0.46,1.55,1.55,1.54
63.43,2.02,0.50,2.01,0.50,-0.49,-0.51,-0.45,1.53,1.53,1.52
64.07,1.97,0.47,1.97,0.47,-0.47,-0.49,-0.44,1.50,1.51,1.50
64.71,1.94,0.45,1.93,0.44,-0.44,-0.47,-0.43,1.49,1.49,1.49
65.35,1.89,0.41,1.89,0.41,-0.42,-0.45,-0.42,1.47,1.47,1.47
66.01,1.85,0.38,1.85,0.39,-0.39,-0.43,-0.41,1.46,1.46,1.46
66.67,1.81,0.36,1.81,0.36,-0.36,-0.41,-0.40,1.45,1.44,1.45
67.33,1.77,0.33,1.77,0.33,-0.33,-0.39,-0.39,1.43,1.43,1.44
68.01,1.73,0.31,1.73,0.31,-0.31,-0.37,-0.38,1.42,1.42,1.42
68.69,1.69,0.28,1.68,0.28,-0.28,-0.35,-0.37,1.41,1.41,1.41
69.37,1.64,0.25,1.64,0.25,-0.25,-0.33,-0.36,1.38,1.39,1.38
70.07,1.60,0.22,1.60,0.23,-0.23,-0.30,-0.35,1.37,1.37,1.37
70.77,1.56,0.20,1.55,0.20,-0.20,-0.28,-0.34,1.36,1.35,1.36
71.48,1.52,0.18,1.52,0.17,-0.18,-0.26,-0.33,1.34,1.34,1.34
72.19,1.47,0.14,1.47,0.15,-0.15,-0.23,-0.32,1.31,1.32,1.32
72.91,1.44,0.14,1.43,0.13,-0.13,-0.21,-0.31,1.31,1.30,1.30
73.64,1.39,0.11,1.39,0.11,-0.11,-0.18,-0.30,1.28,1.28,1.27
74.38,1.34,0.08,1.34,0.09,-0.09,-0.16,-0.29,1.25,1.25,1.26
75.12,1.31,0.08,1.30,0.07,-0.07,-0.13,-0.28,1.24,1.23,1.22
75.87,1.26,0.05,1.26,0.05,-0.05,-0.11,-0.27,1.21,1.21,1.21
76.63,1.22,0.03,1.21,0.03,-0.03,-0.08,-0.26,1.19,1.18,1.19
77.40,1.17,0.01,1.17,0.01,-0.01,-0.05,-0.25,1.16,1.16,1.16
78.17,1.13,0.00,1.13,-0.01,0.01,-0.03,-0.24,1.13,1.13,1.12
78.95,1.09,-0.03,1.08,-0.03,0.02,-0.00,-0.23,1.11,1.11,1.11
79.74,1.04,-0.05,1.04,-0.04,0.04,0.02,-0.22,1.08,1.08,1.08
80.54,1.00,-0.06,1.00,-0.06,0.05,0.05,-0.21,1.05,1.05,1.05
81.35,0.96,-0.07,0.96,-0.07,0.07,0.07,-0.20,1.03,1.02,1.02
82.16,0.92,-0.08,0.92,-0.08,0.08,0.09,-0.19,1.00,1.00,0.99
82.98,0.87,-0.10,0.87,-0.09,0.10,0.12,-0.18,0.96,0.96,0.97
83.81,0.83,-0.10,0.82,-0.11,0.11,0.14,-0.17,0.94,0.93,0.93
84.65,0.77,-0.13,0.78,-0.12,0.12,0.16,-0.16,0.89,0.90,0.90
85.50,0.74,-0.13,0.73,-0.14,0.14,0.17,-0.15,0.87,0.87,0.87
86.35,0.69,-0.15,0.69,-0.15,0.15,0.19,-0.14,0.84,0.84,0.84
87.22,0.64,-0.17,0.64,-0.16,0.16,0.20,-0.13,0.80,0.81,0.80
88.09,0.60,-0.17,0.59,-0.18,0.18,0.22,-0.13,0.78,0.77,0.77
88.97,0.55,-0.20,0.55,-0.19,0.19,0.23,-0.12,0.74,0.74,0.74
89.86,0.50,-0.21,0.50,-0.21,0.21,0.24,-0.11,0.70,0.71,0.71
90.76,0.45,-0.21,0.45,-0.22,0.22,0.24,-0.10,0.67,0.67,0.66
91.66,0.40,-0.24,0.40,-0.23,0.23,0.25,-0.09,0.63,0.63,0.63
92.58,0.35,-0.24,0.35,-0.25,0.25,0.25,-0.08,0.59,0.60,0.59
93.51,0.31,-0.26,0.31,-0.26,0.26,0.26,-0.07,0.56,0.56,0.57
94.44,0.27,-0.27,0.26,-0.27,0.27,0.26,-0.06,0.53,0.53,0.53
95.39,0.22,-0.28,0.22,-0.28,0.28,0.26,-0.06,0.49,0.49,0.50
96.34,0.17,-0.28,0.17,-0.28,0.28,0.25,-0.05,0.45,0.45,0.45
97.30,0.12,-0.29,0.12,-0.29,0.29,0.25,-0.04,0.41,0.41,0.41
98.28,0.08,-0.29,0.07,-0.29,0.29,0.25,-0.03,0.37,0.37,0.37
99.26,0.03,-0.29,0.03,-0.30,0.29,0.24,-0.02,0.32,0.32,0.32
100.25,-0.01,-0.30,-0.01,-0.30,0.30,0.24,-0.02,0.28,0.28,0.28
101.25,-0.05,-0.30,-0.06,-0.30,0.30,0.23,-0.01,0.24,0.24,0.24
102.27,-0.10,-0.30,-0.10,-0.29,0.29,0.22,-0.00,0.19,0.19,0.19
103.29,-0.14,-0.29,-0.14,-0.29,0.29,0.22,0.01,0.15,0.15,0.14
104.32,-0.18,-0.29,-0.18,-0.29,0.29,0.21,0.02,0.11,0.11,0.10
105.37,-0.22,-0.29,-0.23,-0.29,0.29,0.21,0.02,0.06,0.06,0.07
106.42,-0.27,-0.29,-0.27,-0.29,0.28,0.20,0.03,0.01,0.01,0.02
107.48,-0.31,-0.28,-0.31,-0.28,0.28,0.19,0.04,-0.03,-0.03,-0.03
108.56,-0.35,-0.27,-0.35,-0.27,0.27,0.19,0.05,-0.08,-0.08,-0.08
109.64,-0.39,-0.26,-0.39,-0.27,0.26,0.18,0.05,-0.13,-0.13,-0.13
110.74,-0.43,-0.26,-0.43,-0.26,0.26,0.18,0.06,-0.18,-0.18,-0.17
111.85,-0.47,-0.25,-0.47,-0.25,0.24,0.17,0.07,-0.23,-0.23,-0.22
112.97,-0.51,-0.22,-0.51,-0.24,0.23,0.17,0.07,-0.28,-0.28,-0.29
114.10,-0.55,-0.23,-0.55,-0.22,0.22,0.17,0.08,-0.33,-0.33,-0.33
115.24,-0.58,-0.21,-0.59,-0.21,0.21,0.16,0.09,-0.37,-0.38,-0.38
116.39,-0.62,-0.19,-0.62,-0.19,0.20,0.16,0.09,-0.42,-0.43,-0.43
117.55,-0.66,-0.18,-0.66,-0.18,0.19,0.16,0.10,-0.48,-0.48,-0.48
118.73,-0.70,-0.17,-0.70,-0.18,0.18,0.15,0.11,-0.52,-0.52,-0.53
119.92,-0.74,-0.18,-0.74,-0.17,0.17,0.15,0.11,-0.57,-0.57,-0.57
121.12,-0.77,-0.16,-0.78,-0.16,0.16,0.15,0.12,-0.61,-0.61,-0.61
122.33,-0.81,-0.15,-0.81,-0.16,0.15,0.15,0.13,-0.66,-0.66,-0.66
123.55,-0.84,-0.15,-0.84,-0.15,0.14,0.15,0.13,-0.70,-0.70,-0.69
124.79,-0.87,-0.13,-0.87,-0.14,0.13,0.15,0.14,-0.74,-0.74,-0.74
126.03,-0.90,-0.13,-0.90,-0.13,0.12,0.15,0.14,-0.78,-0.78,-0.77
127.29,-0.93,-0.11,-0.93,-0.11,0.11,0.15,0.15,-0.82,-0.82,-0.82
128.57,-0.96,-0.09,-0.96,-0.10,0.10,0.15,0.16,-0.87,-0.86,-0.87
129.85,-0.98,-0.08,-0.99,-0.08,0.09,0.15,0.16,-0.90,-0.90,-0.91
131.15,-1.02,-0.08,-1.02,-0.07,0.08,0.15,0.17,-0.95,-0.94,-0.94
132.46,-1.04,-0.06,-1.05,-0.07,0.07,0.15,0.17,-0.97,-0.97,-0.98
133.79,-1.07,-0.07,-1.07,-0.06,0.06,0.15,0.18,-1.01,-1.01,-1.00
135.12,-1.10,-0.06,-1.10,-0.06,0.06,0.15,0.18,-1.04,-1.04,-1.05
136.48,-1.13,-0.07,-1.13,-0.07,0.06,0.16,0.19,-1.07,-1.07,-1.07
137.84,-1.16,-0.08,-1.16,-0.06,0.06,0.16,0.19,-1.10,-1.10,-1.09
139.22,-1.18,-0.06,-1.19,-0.06,0.07,0.16,0.20,-1.12,-1.12,-1.13
140.61,-1.21,-0.06,-1.21,-0.07,0.07,0.16,0.21,-1.14,-1.14,-1.16
142.02,-1.23,-0.08,-1.24,-0.07,0.08,0.16,0.21,-1.16,-1.16,-1.15
143.44,-1.26,-0.09,-1.26,-0.08,0.08,0.16,0.22,-1.18,-1.18,-1.17
144.87,-1.29,-0.09,-1.29,-0.09,0.09,0.16,0.22,-1.20,-1.20,-1.20
146.32,-1.30,-0.09,-1.31,-0.10,0.10,0.17,0.23,-1.21,-1.21,-1.22
147.78,-1.33,-0.11,-1.33,-0.10,0.11,0.17,0.23,-1.23,-1.22,-1.22
149.26,-1.35,-0.11,-1.36,-0.11,0.12,0.17,0.24,-1.24,-1.24,-1.24
150.75,-1.38,-0.12,-1.38,-0.13,0.12,0.17,0.25,-1.26,-1.26,-1.26
152.26,-1.41,-0.14,-1.41,-0.13,0.13,0.17,0.25,-1.28,-1.28,-1.28
153.78,-1.43,-0.14,-1.43,-0.14,0.14,0.17,0.26,-1.29,-1.29,-1.29
155.32,-1.45,-0.15,-1.46,-0.15,0.15,0.17,0.26,-1.30,-1.31,-1.30
156.88,-1.48,-0.17,-1.48,-0.16,0.16,0.18,0.27,-1.33,-1.32,-1.32
158.44,-1.50,-0.16,-1.50,-0.16,0.16,0.18,0.28,-1.34,-1.34,-1.34
160.03,-1.52,-0.16,-1.53,-0.17,0.17,0.18,0.28,-1.35,-1.36,-1.36
161.63,-1.55,-0.17,-1.55,-0.17,0.18,0.18,0.29,-1.38,-1.37,-1.38
163.24,-1.57,-0.18,-1.57,-0.18,0.18,0.18,0.30,-1.39,-1.39,-1.39
164.88,-1.59,-0.19,-1.59,-0.19,0.19,0.18,0.31,-1.41,-1.41,-1.40
166.53,-1.61,-0.19,-1.62,-0.19,0.19,0.18,0.32,-1.42,-1.43,-1.42
168.19,-1.64,-0.19,-1.64,-0.19,0.19,0.18,0.32,-1.45,-1.45,-1.45
169.87,-1.66,-0.20,-1.66,-0.20,0.20,0.18,0.33,-1.47,-1.47,-1.47
171.57,-1.68,-0.20,-1.68,-0.20,0.20,0.19,0.34,-1.49,-1.49,-1.49
173.29,-1.70,-0.20,-1.70,-0.20,0.19,0.19,0.35,-1.51,-1.51,-1.50
175.02,-1.72,-0.19,-1.73,-0.19,0.19,0.19,0.36,-1.53,-1.53,-1.53
176.77,-1.75,-0.19,-1.75,-0.19,0.19,0.19,0.37,-1.56,-1.56,-1.57
178.54,-1.77,-0.18,-1.77,-0.18,0.19,0.19,0.38,-1.59,-1.59,-1.59
180.32,-1.79,-0.18,-1.80,-0.18,0.18,0.19,0.39,-1.61,-1.62,-1.62
182.13,-1.82,-0.18,-1.82,-0.18,0.18,0.20,0.40,-1.65,-1.64,-1.64
183.95,-1.85,-0.18,-1.85,-0.18,0.18,0.20,0.41,-1.68,-1.67,-1.67
185.79,-1.87,-0.17,-1.88,-0.18,0.18,0.20,0.42,-1.70,-1.70,-1.70
187.65,-1.90,-0.17,-1.90,-0.17,0.18,0.21,0.43,-1.73,-1.73,-1.73
189.52,-1.93,-0.18,-1.93,-0.17,0.18,0.21,0.44,-1.75,-1.75,-1.75
191.42,-1.95,-0.18,-1.96,-0.18,0.18,0.21,0.46,-1.77,-1.77,-1.78
193.33,-1.98,-0.19,-1.98,-0.19,0.19,0.22,0.47,-1.79,-1.80,-1.79
195.27,-2.01,-0.20,-2.01,-0.20,0.20,0.23,0.48,-1.82,-1.82,-1.81
197.22,-2.05,-0.22,-2.05,-0.21,0.21,0.23,0.49,-1.85,-1.84,-1.83
199.19,-2.07,-0.20,-2.08,-0.21,0.22,0.24,0.50,-1.86,-1.86,-1.87
201.18,-2.10,-0.22,-2.10,-0.22,0.23,0.25,0.52,-1.88,-1.88,-1.88
203.19,-2.13,-0.24,-2.13,-0.23,0.24,0.26,0.53,-1.89,-1.89,-1.89
205.23,-2.16,-0.25,-2.16,-0.26,0.25,0.27,0.54,-1.91,-1.91,-1.91
207.28,-2.19,-0.28,-2.19,-0.27,0.26,0.28,0.56,-1.93,-1.93,-1.91
209.35,-2.22,-0.28,-2.22,-0.28,0.28,0.30,0.57,-1.94,-1.94,-1.94
211.44,-2.24,-0.28,-2.25,-0.29,0.29,0.31,0.58,-1.95,-1.95,-1.96
213.56,-2.27,-0.30,-2.27,-0.31,0.31,0.33,0.60,-1.97,-1.97,-1.97
215.69,-2.30,-0.33,-2.30,-0.33,0.32,0.34,0.61,-1.98,-1.98,-1.97
217.85,-2.32,-0.35,-2.32,-0.34,0.34,0.36,0.62,-1.99,-1.99,-1.98
220.03,-2.34,-0.35,-2.34,-0.35,0.35,0.38,0.64,-1.99,-1.99,-1.99
222.23,-2.36,-0.36,-2.36,-0.37,0.37,0.40,0.65,-1.99,-1.99,-2.00
224.45,-2.38,-0.39,-2.39,-0.39,0.39,0.42,0.66,-1.99,-1.99,-1.99
226.70,-2.41,-0.42,-2.41,-0.41,0.42,0.44,0.67,-2.00,-1.99,-2.00
228.96,-2.42,-0.43,-2.43,-0.44,0.44,0.47,0.69,-1.99,-1.99,-1.99
231.25,-2.44,-0.46,-2.45,-0.47,0.46,0.49,0.70,-1.98,-1.98,-1.98
233.57,-2.46,-0.50,-2.46,-0.49,0.49,0.52,0.71,-1.98,-1.97,-1.96
235.90,-2.48,-0.52,-2.48,-0.52,0.51,0.54,0.72,-1.97,-1.96,-1.96
238.26,-2.48,-0.53,-2.49,-0.54,0.54,0.57,0.73,-1.94,-1.95,-1.96
240.64,-2.50,-0.57,-2.50,-0.57,0.57,0.60,0.74,-1.93,-1.93,-1.93
243.05,-2.51,-0.60,-2.52,-0.60,0.60,0.63,0.75,-1.91,-1.91,-1.92
245.48,-2.53,-0.64,-2.53,-0.63,0.63,0.66,0.76,-1.90,-1.90,-1.89
247.93,-2.54,-0.67,-2.54,-0.66,0.67,0.69,0.77,-1.88,-1.87,-1.88
250.41,-2.55,-0.69,-2.55,-0.70,0.70,0.72,0.78,-1.85,-1.85,-1.86
252.92,-2.56,-0.74,-2.57,-0.74,0.74,0.75,0.78,-1.83,-1.83,-1.83
255.45,-2.58,-0.78,-2.58,-0.78,0.77,0.78,0.79,-1.81,-1.81,-1.80
258.00,-2.59,-0.82,-2.59,-0.81,0.81,0.81,0.80,-1.79,-1.78,-1.78
260.58,-2.59,-0.83,-2.60,-0.84,0.84,0.84,0.80,-1.75,-1.76,-1.76
263.19,-2.61,-0.88,-2.61,-0.87,0.88,0.88,0.81,-1.74,-1.73,-1.73
265.82,-2.61,-0.91,-2.61,-0.91,0.91,0.91,0.81,-1.70,-1.70,-1.71
268.48,-2.62,-0.94,-2.62,-0.95,0.95,0.95,0.82,-1.68,-1.68,-1.68
271.16,-2.63,-0.99,-2.63,-0.98,0.98,0.98,0.82,-1.65,-1.65,-1.64
273.87,-2.64,-1.02,-2.64,-1.02,1.02,1.02,0.83,-1.63,-1.63,-1.63
276.61,-2.65,-1.06,-2.65,-1.05,1.05,1.05,0.83,-1.60,-1.60,-1.59
279.38,-2.65,-1.08,-2.66,-1.08,1.09,1.09,0.84,-1.57,-1.57,-1.57
282.17,-2.66,-1.12,-2.67,-1.12,1.12,1.12,0.84,-1.54,-1.55,-1.55
284.99,-2.67,-1.15,-2.67,-1.15,1.15,1.16,0.85,-1.52,-1.52,-1.52
287.84,-2.68,-1.19,-2.68,-1.19,1.18,1.20,0.85,-1.50,-1.49,-1.49
290.72,-2.67,-1.22,-2.68,-1.22,1.22,1.23,0.85,-1.46,-1.46,-1.46
293.63,-2.68,-1.24,-2.68,-1.25,1.25,1.27,0.86,-1.43,-1.43,-1.44
296.57,-2.68,-1.28,-2.68,-1.28,1.29,1.31,0.86,-1.40,-1.40,-1.40
299.53,-2.69,-1.32,-2.69,-1.32,1.32,1.34,0.87,-1.37,-1.37,-1.37
302.53,-2.69,-1.35,-2.69,-1.36,1.36,1.38,0.88,-1.34,-1.34,-1.35
305.55,-2.70,-1.41,-2.70,-1.39,1.39,1.41,0.88,-1.31,-1.30,-1.30
308.61,-2.69,-1.42,-2.70,-1.43,1.43,1.45,0.89,-1.26,-1.27,-1.27
311.69,-2.70,-1.47,-2.70,-1.47,1.47,1.48,0.89,-1.24,-1.23,-1.23
314.81,-2.70,-1.51,-2.70,-1.50,1.50,1.52,0.90,-1.20,-1.20,-1.19
317.96,-2.70,-1.54,-2.70,-1.54,1.54,1.55,0.91,-1.16,-1.17,-1.17
321.14,-2.70,-1.57,-2.71,-1.57,1.57,1.58,0.92,-1.13,-1.13,-1.14
324.35,-2.71,-1.60,-2.71,-1.60,1.61,1.61,0.93,-1.11,-1.10,-1.11
327.59,-2.71,-1.64,-2.71,-1.64,1.64,1.64,0.94,-1.08,-1.08,-1.07
330.87,-2.71,-1.67,-2.72,-1.67,1.67,1.66,0.95,-1.05,-1.05,-1.04
334.18,-2.72,-1.70,-2.72,-1.70,1.70,1.68,0.96,-1.03,-1.02,-1.02
337.52,-2.71,-1.72,-2.72,-1.72,1.73,1.70,0.97,-0.99,-0.99,-1.00
340.90,-2.72,-1.76,-2.72,-1.75,1.75,1.72,0.99,-0.97,-0.97,-0.97
344.30,-2.72,-1.77,-2.72,-1.78,1.78,1.74,1.00,-0.94,-0.94,-0.95
347.75,-2.72,-1.80,-2.72,-1.80,1.80,1.75,1.01,-0.92,-0.92,-0.92
351.23,-2.72,-1.82,-2.72,-1.82,1.82,1.76,1.03,-0.90,-0.90,-0.90
354.74,-2.72,-1.84,-2.72,-1.84,1.84,1.77,1.05,-0.89,-0.89,-0.88
358.28,-2.72,-1.86,-2.72,-1.86,1.85,1.78,1.06,-0.87,-0.86,-0.86
361.87,-2.70,-1.86,-2.71,-1.87,1.86,1.78,1.08,-0.84,-0.84,-0.84
365.49,-2.69,-1.88,-2.70,-1.87,1.87,1.78,1.10,-0.82,-0.82,-0.82
369.14,-2.68,-1.88,-2.68,-1.88,1.88,1.78,1.12,-0.80,-0.80,-0.81
372.83,-2.67,-1.89,-2.67,-1.88,1.88,1.78,1.14,-0.79,-0.78,-0.79
376.56,-2.64,-1.87,-2.65,-1.88,1.89,1.78,1.16,-0.76,-0.76,-0.77
380.33,-2.63,-1.89,-2.63,-1.89,1.89,1.78,1.18,-0.74,-0.74,-0.74
384.13,-2.61,-1.89,-2.61,-1.89,1.89,1.77,1.20,-0.72,-0.72,-0.72
387.97,-2.60,-1.90,-2.60,-1.90,1.89,1.77,1.23,-0.71,-0.70,-0.70
391.85,-2.57,-1.89,-2.58,-1.90,1.90,1.76,1.25,-0.68,-0.68,-0.68
395.77,-2.55,-1.90,-2.55,-1.90,1.90,1.76,1.27,-0.66,-0.65,-0.65
399.73,-2.52,-1.89,-2.53,-1.89,1.90,1.75,1.30,-0.63,-0.63,-0.63
403.72,-2.50,-1.89,-2.51,-1.89,1.89,1.75,1.32,-0.61,-0.61,-0.61
407.76,-2.48,-1.89,-2.48,-1.89,1.89,1.74,1.35,-0.59,-0.59,-0.59
411.84,-2.46,-1.90,-2.46,-1.89,1.89,1.74,1.37,-0.58,-0.57,-0.57
415.96,-2.42,-1.88,-2.43,-1.88,1.88,1.73,1.40,-0.54,-0.55,-0.55
420.12,-2.39,-1.87,-2.40,-1.87,1.87,1.73,1.42,-0.52,-0.52,-0.53
424.32,-2.36,-1.87,-2.36,-1.86,1.86,1.72,1.45,-0.50,-0.50,-0.50
428.56,-2.33,-1.86,-2.33,-1.85,1.85,1.72,1.47,-0.49,-0.48,-0.48
432.85,-2.29,-1.83,-2.29,-1.84,1.83,1.71,1.50,-0.46,-0.46,-0.46
437.18,-2.25,-1.82,-2.25,-1.82,1.82,1.71,1.52,-0.43,-0.43,-0.43
441.55,-2.20,-1.80,-2.21,-1.80,1.81,1.70,1.55,-0.39,-0.40,-0.40
445.96,-2.16,-1.78,-2.17,-1.79,1.80,1.70,1.57,-0.36,-0.37,-0.38
450.42,-2.13,-1.77,-2.13,-1.78,1.79,1.69,1.59,-0.34,-0.34,-0.36
454.93,-2.11,-1.79,-2.11,-1.78,1.78,1.69,1.61,-0.33,-0.32,-0.32
459.48,-2.07,-1.77,-2.08,-1.78,1.78,1.68,1.63,-0.30,-0.30,-0.30
464.07,-2.04,-1.77,-2.04,-1.78,1.77,1.68,1.65,-0.27,-0.27,-0.27
468.71,-2.00,-1.77,-2.00,-1.76,1.76,1.67,1.66,-0.24,-0.24,-0.23
473.40,-1.96,-1.75,-1.96,-1.75,1.75,1.67,1.68,-0.21,-0.21,-0.21
478.13,-1.91,-1.73,-1.92,-1.74,1.73,1.66,1.69,-0.18,-0.18,-0.18
482.91,-1.87,-1.72,-1.87,-1.71,1.71,1.66,1.70,-0.16,-0.16,-0.15
487.74,-1.81,-1.69,-1.81,-1.69,1.69,1.65,1.71,-0.12,-0.12,-0.12
492.62,-1.75,-1.66,-1.76,-1.66,1.66,1.64,1.71,-0.09,-0.10,-0.09
