frequency,raw
20,-3.36
21,-3.03
22,-2.76
23,-2.55
24,-2.36
25,-2.17
26,-1.97
27,-1.88
28,-1.68
29,-1.59
30,-1.39
31,-1.30
32,-1.21
33,-1.10
34,-1.01
35,-0.91
36,-0.91
37,-0.82
38,-0.73
39,-0.72
40,-0.62
41,-0.62
42,-0.62
43,-0.53
44,-0.43
45,-0.43
46,-0.43
47,-0.43
48,-0.43
49,-0.43
50,-0.33
51,-0.33
52,-0.33
53,-0.33
54,-0.33
55,-0.33
56,-0.33
57,-0.33
58,-0.33
59,-0.33
60,-0.33
61,-0.33
62,-0.33
63,-0.33
64,-0.33
65,-0.33
66,-0.33
67,-0.33
68,-0.33
69,-0.33
70,-0.33
71,-0.33
72,-0.33
73,-0.33
74,-0.33
75,-0.33
76,-0.33
77,-0.33
78,-0.33
79,-0.33
80,-0.33
81,-0.42
82,-0.45
83,-0.41
84,-0.48
85,-0.53
86,-0.53
87,-0.53
88,-0.53
89,-0.52
90,-0.52
91,-0.52
92,-0.52
93,-0.52
94,-0.52
95,-0.52
96,-0.63
97,-0.63
98,-0.70
99,-0.74
100,-0.76
101,-0.77
102,-0.79
104,-0.82
105,-0.84
106,-0.86
107,-0.92
108,-1.03
109,-1.05
110,-1.03
111,-1.06
112,-1.17
113,-1.18
114,-1.19
115,-1.19
117,-1.25
118,-1.30
119,-1.29
120,-1.25
121,-1.25
123,-1.35
124,-1.34
125,-1.34
126,-1.36
128,-1.44
129,-1.50
130,-1.50
131,-1.50
133,-1.49
134,-1.49
135,-1.51
137,-1.58
138,-1.60
140,-1.67
141,-1.68
142,-1.74
144,-1.76
145,-1.76
147,-1.76
148,-1.76
150,-1.77
151,-1.77
153,-1.76
154,-1.76
156,-1.76
157,-1.76
159,-1.76
160,-1.76
162,-1.76
164,-1.81
165,-1.87
167,-1.87
169,-1.90
170,-1.98
172,-2.11
174,-2.22
175,-2.32
177,-2.43
179,-2.48
181,-2.58
183,-2.57
184,-2.56
186,-2.64
188,-2.63
190,-2.62
192,-2.60
194,-2.58
196,-2.57
198,-2.56
200,-2.61
202,-2.64
204,-2.73
206,-2.73
208,-2.73
210,-2.73
212,-2.73
214,-2.74
216,-2.81
218,-2.84
221,-2.84
223,-2.84
225,-2.85
227,-2.84
229,-2.84
232,-2.83
234,-2.82
236,-2.83
239,-3.00
241,-2.99
244,-2.95
246,-2.93
248,-2.91
251,-3.03
253,-3.01
256,-2.96
259,-3.00
261,-3.10
264,-3.07
266,-3.04
269,-3.05
272,-3.19
274,-3.23
277,-3.15
280,-3.15
283,-3.15
286,-3.14
288,-3.13
291,-3.12
294,-3.04
297,-3.09
300,-3.18
303,-3.17
306,-3.12
309,-3.10
312,-3.23
316,-3.24
319,-3.23
322,-3.22
325,-3.20
328,-3.26
332,-3.32
335,-3.38
338,-3.41
342,-3.34
345,-3.35
349,-3.44
352,-3.43
356,-3.43
359,-3.43
363,-3.50
366,-3.52
370,-3.60
374,-3.50
377,-3.49
381,-3.48
385,-3.48
389,-3.47
393,-3.47
397,-3.47
401,-3.47
405,-3.47
409,-3.45
413,-3.38
417,-3.38
421,-3.31
425,-3.28
430,-3.27
434,-3.25
438,-3.22
443,-3.17
447,-3.04
451,-2.99
456,-2.93
460,-2.87
465,-2.81
470,-2.75
474,-2.69
479,-2.64
484,-2.59
489,-2.55
494,-2.51
499,-2.54
504,-2.58
509,-2.55
514,-2.53
519,-2.52
524,-2.53
529,-2.54
535,-2.56
540,-2.59
545,-2.63
551,-2.60
556,-2.59
562,-2.67
568,-2.73
573,-2.77
579,-2.81
585,-2.83
591,-2.85
596,-2.74
602,-2.70
608,-2.74
615,-2.77
621,-2.76
627,-2.60
633,-2.40
639,-2.37
646,-2.39
652,-2.25
659,-2.20
665,-2.09
672,-2.00
679,-1.86
686,-1.82
692,-1.84
699,-1.65
706,-1.53
713,-1.53
721,-1.44
728,-1.45
735,-1.39
742,-1.38
750,-1.40
757,-1.36
765,-1.15
773,-1.21
780,-1.29
788,-1.26
796,-1.07
804,-0.96
812,-0.98
820,-0.91
828,-0.84
837,-0.85
845,-0.86
853,-0.74
862,-0.65
871,-0.57
879,-0.57
888,-0.55
897,-0.52
906,-0.44
915,-0.41
924,-0.41
933,-0.38
943,-0.24
952,-0.20
962,-0.12
971,-0.06
981,-0.00
991,0.01
1001,-0.00
1011,-0.07
1021,-0.18
1031,-0.19
1041,-0.16
1052,-0.13
1062,-0.11
1073,-0.14
1084,-0.04
1094,0.10
1105,0.20
1116,0.28
1128,0.42
1139,0.52
1150,0.60
1162,0.73
1173,0.87
1185,0.97
1197,1.08
1209,1.19
1221,1.31
1233,1.44
1246,1.57
1258,1.70
1271,1.85
1283,1.99
1296,2.05
1309,2.19
1322,2.34
1335,2.46
1349,2.49
1362,2.60
1376,2.75
1390,2.86
1404,2.94
1418,3.05
1432,3.10
1446,3.24
1461,3.33
1475,3.46
1490,3.58
1505,3.66
1520,3.72
1535,3.68
1550,3.81
1566,3.96
1582,4.09
1597,4.18
1613,4.20
1629,4.32
1646,4.45
1662,4.51
1679,4.71
1696,4.89
1713,4.96
1730,5.05
1747,5.04
1764,5.11
1782,5.21
1800,5.38
1818,5.53
1836,5.56
1854,5.67
1873,5.78
1892,5.83
1911,5.92
1930,5.96
1949,5.92
1969,5.91
1988,5.99
2008,6.03
2028,6.11
2048,6.19
2069,6.30
2090,6.46
2111,6.61
2132,6.73
2153,6.88
2175,6.89
2196,7.09
2218,7.36
2240,7.53
2263,7.58
2285,7.72
2308,7.92
2331,7.99
2355,8.14
2378,8.24
2402,8.30
2426,8.28
2450,8.22
2475,8.19
2500,8.31
2525,8.37
2550,8.40
2575,8.42
2601,8.46
2627,8.53
2653,8.59
2680,8.64
2707,8.64
2734,8.62
2761,8.55
2789,8.33
2817,8.16
2845,8.06
2873,7.82
2902,7.53
2931,6.98
2960,6.59
2990,6.20
3020,5.60
3050,4.68
3080,4.32
3111,3.98
3142,3.81
3174,3.98
3206,4.03
3238,4.25
3270,4.52
3303,4.88
3336,5.14
3369,5.39
3403,5.71
3437,5.94
3471,6.24
3506,6.55
3541,6.84
3576,6.98
3612,7.17
3648,7.40
3685,7.55
3721,7.81
3759,7.95
3796,7.89
3834,7.72
3873,7.53
3911,7.57
3950,7.20
3990,7.08
4030,6.82
4070,6.39
4111,6.14
4152,5.98
4193,5.66
4235,5.38
4278,5.04
4321,4.93
4364,4.86
4407,4.71
4451,4.36
4496,4.08
4541,3.86
4586,3.62
4632,3.36
4679,3.18
4725,3.14
4773,3.09
4820,3.08
4868,3.14
4917,3.09
4966,2.97
5016,2.71
5066,2.43
5117,2.15
5168,1.88
5220,1.70
5272,1.60
5325,1.66
5378,1.75
5432,2.02
5486,2.19
5541,2.39
5596,2.73
5652,3.15
5709,3.30
5766,3.39
5823,3.51
5882,3.50
5940,3.31
6000,3.30
6060,3.25
6120,2.74
6182,2.04
6244,1.31
6306,0.09
6369,-1.12
6433,-2.19
6497,-3.36
6562,-4.81
6628,-6.33
6694,-7.10
6761,-8.44
6828,-9.58
6897,-10.47
6966,-11.29
7035,-11.60
7106,-11.65
7177,-11.36
7249,-11.19
7321,-11.08
7394,-10.64
7468,-10.12
7543,-9.14
7618,-8.45
7694,-6.83
7771,-6.32
7849,-5.18
7928,-4.66
8007,-4.40
8087,-4.15
8168,-3.38
8250,-2.40
8332,-1.60
8415,-0.98
8499,-1.03
8584,-1.64
8670,-1.70
8757,-1.28
8845,-0.88
8933,-0.05
9022,-0.02
9113,-0.49
9204,-1.05
9296,-1.47
9389,-1.58
9483,-1.69
9577,-1.56
9673,-1.61
9770,-1.72
9868,-1.74
9966,-1.94
10066,-2.44
10167,-2.71
10268,-2.63
10371,-2.67
10475,-2.64
10579,-2.59
10685,-2.59
10792,-2.54
10900,-2.98
11009,-3.34
11119,-3.69
11230,-3.63
11343,-3.26
11456,-3.04
11571,-3.15
11686,-3.35
11803,-4.39
11921,-5.05
12040,-6.86
12161,-8.55
12282,-9.86
12405,-10.74
12529,-12.21
12655,-14.95
12781,-17.11
12909,-19.09
13038,-21.49
13168,-23.64
13300,-22.73
13433,-22.71
13567,-20.71
13703,-16.05
13840,-12.91
13978,-8.33
14118,-6.20
14259,-4.89
14402,-3.76
14546,-2.78
14692,-2.44
14838,-3.03
14987,-3.57
15137,-5.09
15288,-6.52
15441,-7.74
15595,-9.33
15751,-9.99
15909,-10.36
16068,-10.04
16229,-9.48
16391,-8.91
16555,-8.45
16720,-8.53
16888,-8.75
17056,-9.56
17227,-11.44
17399,-12.00
17573,-13.00
17749,-12.85
17926,-12.66
18106,-11.94
18287,-11.85
18470,-12.09
18654,-12.58
18841,-13.06
19029,-13.23
19220,-14.90
19412,-17.42
19606,-16.98
19802,-19.85
20000,-22.01
