frequency,raw,error,smoothed,error_smoothed,equalization,parametric_eq,fixed_band_eq,equalized_raw,equalized_smoothed,target
20.00,-5.95,-8.51,-5.95,-8.50,6.00,6.18,2.28,0.05,0.05,2.56
20.20,-5.88,-8.44,-5.88,-8.44,6.00,6.16,2.35,0.12,0.12,2.56
20.40,-5.82,-8.37,-5.82,-8.37,6.00,6.14,2.42,0.18,0.18,2.55
20.61,-5.75,-8.31,-5.75,-8.30,6.00,6.12,2.49,0.25,0.25,2.55
20.81,-5.67,-8.22,-5.68,-8.23,6.00,6.10,2.56,0.33,0.32,2.55
21.02,-5.61,-8.16,-5.61,-8.15,6.00,6.08,2.64,0.39,0.39,2.55
21.23,-5.54,-8.07,-5.54,-8.08,6.00,6.06,2.71,0.46,0.46,2.53
21.44,-5.47,-7.99,-5.48,-8.00,6.00,6.04,2.79,0.53,0.52,2.52
21.66,-5.41,-7.91,-5.41,-7.91,6.00,6.03,2.87,0.59,0.59,2.50
21.87,-5.34,-7.82,-5.33,-7.82,6.00,6.01,2.96,0.66,0.67,2.48
22.09,-5.26,-7.73,-5.27,-7.73,6.00,6.00,3.04,0.74,0.73,2.47
22.31,-5.19,-7.63,-5.19,-7.64,6.00,5.99,3.13,0.81,0.81,2.44
22.54,-5.13,-7.55,-5.12,-7.54,6.00,5.98,3.22,0.87,0.88,2.42
22.76,-5.05,-7.45,-5.05,-7.45,6.00,5.97,3.32,0.95,0.95,2.40
22.99,-4.98,-7.35,-4.98,-7.35,6.00,5.96,3.41,1.02,1.02,2.37
23.22,-4.91,-7.25,-4.91,-7.25,6.00,5.96,3.51,1.09,1.09,2.34
23.45,-4.84,-7.16,-4.84,-7.16,6.00,5.95,3.61,1.16,1.16,2.32
23.69,-4.77,-7.08,-4.77,-7.07,6.00,5.95,3.71,1.23,1.23,2.31
23.92,-4.70,-6.98,-4.70,-6.99,6.00,5.95,3.81,1.30,1.30,2.28
24.16,-4.64,-6.91,-4.64,-6.91,6.00,5.95,3.92,1.36,1.36,2.27
24.40,-4.58,-6.83,-4.57,-6.83,6.00,5.96,4.03,1.42,1.43,2.25
24.65,-4.51,-6.74,-4.51,-6.74,6.00,5.96,4.14,1.49,1.49,2.23
24.89,-4.44,-6.65,-4.44,-6.66,6.00,5.97,4.25,1.56,1.56,2.21
25.14,-4.38,-6.58,-4.38,-6.57,6.00,5.97,4.36,1.62,1.62,2.20
25.39,-4.31,-6.49,-4.31,-6.49,6.01,5.97,4.47,1.70,1.70,2.18
25.65,-4.24,-6.41,-4.24,-6.40,6.01,5.97,4.58,1.77,1.77,2.17
25.91,-4.17,-6.31,-4.17,-6.32,6.01,5.97,4.69,1.84,1.84,2.14
26.16,-4.11,-6.24,-4.11,-6.23,6.01,5.96,4.81,1.90,1.91,2.13
26.43,-4.04,-6.16,-4.04,-6.15,6.00,5.95,4.92,1.96,1.96,2.12
26.69,-3.97,-6.06,-3.97,-6.07,5.98,5.92,5.03,2.01,2.00,2.09
26.96,-3.91,-5.99,-3.91,-5.99,5.95,5.89,5.14,2.03,2.04,2.08
27.23,-3.85,-5.92,-3.85,-5.92,5.90,5.85,5.24,2.05,2.05,2.07
27.50,-3.79,-5.85,-3.79,-5.85,5.85,5.80,5.35,2.05,2.06,2.06
27.77,-3.73,-5.77,-3.73,-5.77,5.78,5.74,5.44,2.05,2.05,2.04
28.05,-3.67,-5.70,-3.67,-5.69,5.71,5.68,5.54,2.04,2.04,2.03
28.33,-3.61,-5.62,-3.61,-5.62,5.63,5.61,5.63,2.02,2.02,2.01
28.62,-3.55,-5.55,-3.55,-5.55,5.56,5.54,5.72,2.01,2.00,1.99
28.90,-3.50,-5.48,-3.50,-5.48,5.48,5.47,5.79,1.98,1.98,1.98
29.19,-3.45,-5.41,-3.45,-5.41,5.42,5.40,5.87,1.97,1.97,1.96
29.48,-3.39,-5.35,-3.39,-5.35,5.35,5.32,5.93,1.96,1.95,1.96
29.78,-3.34,-5.29,-3.34,-5.29,5.28,5.25,5.99,1.94,1.94,1.95
30.08,-3.29,-5.23,-3.29,-5.22,5.22,5.18,6.03,1.93,1.93,1.94
30.38,-3.24,-5.15,-3.24,-5.16,5.15,5.11,6.07,1.91,1.91,1.91
30.68,-3.19,-5.09,-3.19,-5.09,5.09,5.05,6.10,1.90,1.90,1.90
30.99,-3.13,-5.01,-3.14,-5.02,5.03,4.98,6.12,1.89,1.89,1.88
31.30,-3.09,-4.96,-3.09,-4.96,4.96,4.92,6.12,1.87,1.87,1.87
31.61,-3.05,-4.91,-3.05,-4.90,4.90,4.86,6.12,1.85,1.85,1.86
31.93,-3.01,-4.84,-3.01,-4.84,4.84,4.80,6.11,1.83,1.83,1.83
32.24,-2.97,-4.77,-2.97,-4.78,4.78,4.74,6.09,1.81,1.81,1.80
32.57,-2.93,-4.72,-2.93,-4.72,4.72,4.68,6.06,1.79,1.79,1.79
32.89,-2.89,-4.66,-2.89,-4.66,4.66,4.63,6.02,1.77,1.77,1.78
33.22,-2.85,-4.59,-2.85,-4.60,4.60,4.57,5.97,1.75,1.75,1.74
33.55,-2.81,-4.54,-2.81,-4.54,4.54,4.52,5.92,1.73,1.73,1.73
33.89,-2.77,-4.48,-2.77,-4.48,4.48,4.47,5.85,1.71,1.71,1.71
34.23,-2.74,-4.42,-2.74,-4.42,4.42,4.41,5.78,1.68,1.68,1.68
34.57,-2.70,-4.36,-2.70,-4.36,4.36,4.36,5.71,1.66,1.66,1.66
34.92,-2.66,-4.30,-2.66,-4.30,4.31,4.31,5.63,1.64,1.64,1.64
35.27,-2.63,-4.25,-2.63,-4.25,4.25,4.26,5.54,1.62,1.62,1.62
35.62,-2.59,-4.19,-2.59,-4.19,4.19,4.22,5.45,1.60,1.60,1.60
35.97,-2.56,-4.14,-2.56,-4.14,4.14,4.17,5.36,1.58,1.58,1.58
36.33,-2.52,-4.08,-2.52,-4.08,4.08,4.12,5.26,1.56,1.56,1.56
36.70,-2.49,-4.03,-2.49,-4.03,4.03,4.07,5.16,1.54,1.54,1.54
37.06,-2.45,-3.96,-2.45,-3.97,3.97,4.02,5.07,1.52,1.52,1.52
37.43,-2.42,-3.92,-2.42,-3.92,3.92,3.97,4.97,1.50,1.50,1.50
37.81,-2.39,-3.87,-2.39,-3.86,3.86,3.92,4.87,1.47,1.48,1.48
38.19,-2.35,-3.80,-2.36,-3.81,3.81,3.88,4.77,1.46,1.45,1.45
38.57,-2.33,-3.77,-2.32,-3.76,3.76,3.83,4.67,1.43,1.43,1.44
38.95,-2.29,-3.70,-2.29,-3.70,3.71,3.78,4.57,1.42,1.41,1.41
39.34,-2.26,-3.65,-2.26,-3.65,3.65,3.73,4.47,1.39,1.39,1.39
39.74,-2.23,-3.59,-2.23,-3.60,3.60,3.68,4.37,1.37,1.37,1.36
40.14,-2.21,-3.57,-2.21,-3.56,3.56,3.63,4.28,1.35,1.35,1.36
40.54,-2.18,-3.51,-2.18,-3.51,3.51,3.58,4.19,1.33,1.33,1.33
40.94,-2.15,-3.47,-2.15,-3.46,3.46,3.53,4.10,1.31,1.31,1.32
41.35,-2.12,-3.41,-2.12,-3.42,3.42,3.48,4.01,1.30,1.30,1.29
41.76,-2.09,-3.37,-2.09,-3.37,3.37,3.43,3.92,1.29,1.28,1.28
42.18,-2.07,-3.34,-2.07,-3.33,3.33,3.38,3.84,1.26,1.26,1.27
42.60,-2.04,-3.28,-2.04,-3.29,3.28,3.33,3.76,1.25,1.24,1.24
43.03,-2.02,-3.25,-2.02,-3.24,3.24,3.28,3.68,1.22,1.22,1.23
43.46,-1.99,-3.20,-1.99,-3.19,3.19,3.23,3.60,1.20,1.20,1.21
43.90,-1.96,-3.14,-1.96,-3.15,3.15,3.18,3.53,1.19,1.18,1.18
44.33,-1.94,-3.10,-1.94,-3.10,3.10,3.13,3.46,1.16,1.16,1.16
44.78,-1.92,-3.06,-1.92,-3.06,3.06,3.08,3.39,1.14,1.14,1.14
45.23,-1.89,-3.00,-1.89,-3.01,3.01,3.03,3.33,1.12,1.12,1.11
45.68,-1.87,-2.97,-1.87,-2.96,2.97,2.98,3.26,1.10,1.10,1.10
46.13,-1.84,-2.92,-1.84,-2.92,2.93,2.93,3.21,1.09,1.09,1.08
46.60,-1.82,-2.89,-1.82,-2.88,2.89,2.87,3.15,1.07,1.07,1.07
47.06,-1.80,-2.85,-1.80,-2.85,2.85,2.82,3.09,1.05,1.05,1.05
47.53,-1.78,-2.81,-1.78,-2.81,2.80,2.78,3.04,1.02,1.02,1.03
48.01,-1.76,-2.78,-1.76,-2.77,2.76,2.73,2.99,1.00,1.00,1.02
48.49,-1.74,-2.73,-1.74,-2.73,2.72,2.68,2.94,0.98,0.98,0.99
48.97,-1.72,-2.68,-1.72,-2.67,2.68,2.63,2.90,0.96,0.96,0.96
49.46,-1.70,-2.62,-1.70,-2.62,2.63,2.59,2.86,0.93,0.93,0.92
49.96,-1.68,-2.57,-1.68,-2.58,2.59,2.54,2.81,0.91,0.91,0.89
50.46,-1.66,-2.55,-1.66,-2.54,2.55,2.50,2.77,0.89,0.89,0.89
50.96,-1.64,-2.51,-1.64,-2.51,2.51,2.46,2.74,0.87,0.86,0.87
51.47,-1.63,-2.46,-1.63,-2.47,2.47,2.42,2.70,0.84,0.84,0.83
51.99,-1.62,-2.43,-1.62,-2.43,2.43,2.38,2.67,0.81,0.81,0.81
52.51,-1.60,-2.40,-1.60,-2.40,2.39,2.34,2.63,0.79,0.79,0.80
53.03,-1.59,-2.36,-1.59,-2.36,2.36,2.31,2.60,0.77,0.77,0.77
53.56,-1.58,-2.33,-1.58,-2.33,2.32,2.28,2.57,0.74,0.75,0.75
54.10,-1.56,-2.28,-1.57,-2.29,2.29,2.24,2.54,0.73,0.72,0.72
54.64,-1.56,-2.26,-1.56,-2.25,2.25,2.22,2.51,0.69,0.70,0.70
55.18,-1.55,-2.22,-1.55,-2.22,2.22,2.19,2.48,0.67,0.67,0.67
55.74,-1.53,-2.17,-1.54,-2.18,2.18,2.16,2.45,0.65,0.64,0.64
56.29,-1.53,-2.16,-1.53,-2.15,2.15,2.14,2.43,0.62,0.62,0.63
56.86,-1.52,-2.12,-1.52,-2.12,2.11,2.11,2.40,0.59,0.60,0.60
57.42,-1.51,-2.08,-1.51,-2.08,2.08,2.09,2.37,0.57,0.57,0.57
58.00,-1.50,-2.05,-1.50,-2.05,2.05,2.07,2.34,0.55,0.55,0.55
58.58,-1.50,-2.02,-1.50,-2.02,2.02,2.05,2.31,0.52,0.53,0.52
59.16,-1.49,-1.99,-1.49,-1.99,1.99,2.03,2.28,0.50,0.50,0.50
59.76,-1.49,-1.97,-1.49,-1.97,1.97,2.01,2.25,0.48,0.47,0.48
60.35,-1.49,-1.94,-1.49,-1.94,1.94,1.99,2.22,0.45,0.44,0.45
60.96,-1.50,-1.93,-1.49,-1.92,1.91,1.98,2.19,0.41,0.41,0.43
61.57,-1.49,-1.88,-1.49,-1.89,1.88,1.96,2.15,0.39,0.39,0.39
62.18,-1.49,-1.85,-1.49,-1.85,1.86,1.94,2.12,0.37,0.36,0.36
62.80,-1.49,-1.82,-1.49,-1.82,1.83,1.92,2.08,0.34,0.34,0.33
63.43,-1.50,-1.80,-1.50,-1.80,1.81,1.90,2.05,0.31,0.31,0.30
64.07,-1.51,-1.78,-1.51,-1.78,1.78,1.88,2.01,0.27,0.28,0.27
64.71,-1.51,-1.76,-1.51,-1.76,1.76,1.86,1.97,0.25,0.25,0.25
65.35,-1.52,-1.75,-1.52,-1.75,1.74,1.84,1.93,0.22,0.22,0.23
66.01,-1.52,-1.73,-1.52,-1.73,1.73,1.82,1.88,0.21,0.20,0.21
66.67,-1.53,-1.71,-1.53,-1.71,1.71,1.80,1.84,0.18,0.18,0.18
67.33,-1.53,-1.69,-1.53,-1.69,1.69,1.78,1.80,0.16,0.16,0.16
68.01,-1.54,-1.67,-1.54,-1.67,1.68,1.76,1.75,0.14,0.13,0.13
68.69,-1.55,-1.66,-1.55,-1.65,1.66,1.73,1.71,0.11,0.11,0.11
69.37,-1.56,-1.64,-1.56,-1.64,1.64,1.71,1.66,0.08,0.08,0.08
70.07,-1.57,-1.62,-1.57,-1.62,1.62,1.68,1.61,0.05,0.05,0.05
70.77,-1.58,-1.61,-1.58,-1.61,1.60,1.66,1.56,0.02,0.02,0.03
71.48,-1.58,-1.58,-1.59,-1.58,1.58,1.63,1.51,0.00,-0.00,-0.00
72.19,-1.60,-1.57,-1.59,-1.56,1.56,1.60,1.46,-0.04,-0.03,-0.03
72.91,-1.60,-1.53,-1.61,-1.54,1.54,1.57,1.41,-0.06,-0.06,-0.07
73.64,-1.62,-1.52,-1.62,-1.52,1.52,1.54,1.36,-0.10,-0.10,-0.10
74.38,-1.63,-1.50,-1.63,-1.49,1.49,1.51,1.31,-0.14,-0.13,-0.13
75.12,-1.64,-1.46,-1.64,-1.47,1.47,1.48,1.26,-0.17,-0.17,-0.18
75.87,-1.65,-1.44,-1.65,-1.45,1.45,1.45,1.21,-0.20,-0.21,-0.21
76.63,-1.67,-1.43,-1.67,-1.42,1.42,1.42,1.16,-0.25,-0.24,-0.24
77.40,-1.68,-1.40,-1.68,-1.40,1.40,1.38,1.11,-0.28,-0.28,-0.28
78.17,-1.69,-1.36,-1.69,-1.37,1.37,1.35,1.06,-0.32,-0.32,-0.33
78.95,-1.70,-1.35,-1.70,-1.34,1.34,1.32,1.01,-0.36,-0.36,-0.35
79.74,-1.72,-1.32,-1.72,-1.32,1.31,1.28,0.96,-0.41,-0.40,-0.40
80.54,-1.73,-1.29,-1.73,-1.29,1.28,1.24,0.91,-0.45,-0.44,-0.44
81.35,-1.73,-1.24,-1.73,-1.25,1.25,1.21,0.86,-0.48,-0.48,-0.49
82.16,-1.74,-1.21,-1.74,-1.21,1.22,1.17,0.81,-0.52,-0.52,-0.53
82.98,-1.76,-1.19,-1.76,-1.18,1.18,1.13,0.76,-0.58,-0.57,-0.57
83.81,-1.77,-1.15,-1.77,-1.15,1.15,1.10,0.71,-0.62,-0.62,-0.62
84.65,-1.79,-1.12,-1.78,-1.12,1.12,1.06,0.66,-0.67,-0.67,-0.67
85.50,-1.79,-1.08,-1.80,-1.08,1.08,1.02,0.61,-0.71,-0.71,-0.71
86.35,-1.81,-1.05,-1.81,-1.05,1.05,0.98,0.57,-0.76,-0.76,-0.76
87.22,-1.82,-1.01,-1.82,-1.01,1.01,0.94,0.52,-0.81,-0.81,-0.81
88.09,-1.83,-0.97,-1.83,-0.97,0.97,0.90,0.47,-0.86,-0.86,-0.86
88.97,-1.84,-0.94,-1.84,-0.93,0.93,0.85,0.42,-0.91,-0.91,-0.90
89.86,-1.85,-0.90,-1.85,-0.89,0.89,0.81,0.38,-0.96,-0.96,-0.95
90.76,-1.86,-0.84,-1.86,-0.85,0.85,0.77,0.33,-1.01,-1.01,-1.02
91.66,-1.87,-0.81,-1.87,-0.81,0.81,0.72,0.29,-1.06,-1.06,-1.06
92.58,-1.88,-0.76,-1.88,-0.77,0.77,0.68,0.24,-1.11,-1.11,-1.12
93.51,-1.89,-0.74,-1.89,-0.73,0.73,0.64,0.19,-1.16,-1.16,-1.15
94.44,-1.89,-0.68,-1.89,-0.68,0.68,0.59,0.15,-1.21,-1.21,-1.21
95.39,-1.90,-0.64,-1.90,-0.64,0.64,0.54,0.10,-1.26,-1.27,-1.26
96.34,-1.92,-0.59,-1.92,-0.59,0.59,0.50,0.06,-1.33,-1.33,-1.33
97.30,-1.93,-0.55,-1.93,-0.54,0.54,0.45,0.01,-1.39,-1.38,-1.38
98.28,-1.93,-0.49,-1.94,-0.49,0.49,0.40,-0.03,-1.44,-1.44,-1.44
99.26,-1.94,-0.44,-1.94,-0.44,0.44,0.35,-0.07,-1.50,-1.50,-1.50
100.25,-1.95,-0.39,-1.95,-0.39,0.39,0.30,-0.12,-1.56,-1.56,-1.56
101.25,-1.95,-0.33,-1.95,-0.33,0.34,0.25,-0.16,-1.61,-1.62,-1.62
102.27,-1.96,-0.28,-1.96,-0.28,0.28,0.19,-0.20,-1.68,-1.68,-1.68
103.29,-1.97,-0.22,-1.97,-0.22,0.23,0.14,-0.24,-1.74,-1.74,-1.75
104.32,-1.98,-0.18,-1.98,-0.17,0.17,0.08,-0.29,-1.81,-1.80,-1.80
105.37,-1.98,-0.12,-1.99,-0.12,0.12,0.03,-0.33,-1.86,-1.87,-1.86
106.42,-2.00,-0.07,-1.99,-0.07,0.06,-0.03,-0.37,-1.94,-1.93,-1.93
107.48,-2.00,-0.01,-2.00,-0.01,0.01,-0.09,-0.41,-1.99,-2.00,-1.99
108.56,-2.01,0.05,-2.01,0.05,-0.05,-0.14,-0.45,-2.06,-2.06,-2.06
109.64,-2.01,0.12,-2.01,0.11,-0.11,-0.20,-0.49,-2.12,-2.12,-2.13
110.74,-2.01,0.17,-2.01,0.17,-0.17,-0.26,-0.52,-2.18,-2.19,-2.18
111.85,-2.02,0.23,-2.02,0.23,-0.23,-0.32,-0.56,-2.25,-2.25,-2.25
112.97,-2.03,0.30,-2.03,0.29,-0.30,-0.38,-0.60,-2.33,-2.32,-2.33
114.10,-2.04,0.35,-2.03,0.36,-0.36,-0.44,-0.63,-2.40,-2.39,-2.39
115.24,-2.03,0.42,-2.04,0.42,-0.42,-0.50,-0.66,-2.45,-2.46,-2.45
116.39,-2.04,0.49,-2.04,0.48,-0.48,-0.56,-0.70,-2.52,-2.52,-2.53
117.55,-2.05,0.54,-2.04,0.55,-0.54,-0.62,-0.73,-2.59,-2.59,-2.59
118.73,-2.05,0.61,-2.05,0.60,-0.60,-0.68,-0.76,-2.65,-2.65,-2.66
119.92,-2.05,0.66,-2.05,0.66,-0.66,-0.74,-0.78,-2.71,-2.71,-2.71
121.12,-2.06,0.71,-2.06,0.71,-0.71,-0.80,-0.81,-2.77,-2.77,-2.77
122.33,-2.06,0.77,-2.06,0.77,-0.77,-0.86,-0.84,-2.83,-2.83,-2.83
123.55,-2.07,0.82,-2.07,0.82,-0.82,-0.92,-0.86,-2.89,-2.89,-2.89
124.79,-2.07,0.88,-2.07,0.87,-0.88,-0.98,-0.88,-2.95,-2.95,-2.95
126.03,-2.07,0.93,-2.07,0.93,-0.93,-1.04,-0.91,-3.00,-3.01,-3.00
127.29,-2.07,0.99,-2.07,0.99,-0.99,-1.09,-0.93,-3.06,-3.06,-3.06
128.57,-2.08,1.05,-2.07,1.04,-1.04,-1.15,-0.94,-3.12,-3.12,-3.13
129.85,-2.07,1.11,-2.08,1.10,-1.09,-1.20,-0.96,-3.16,-3.17,-3.18
131.15,-2.08,1.14,-2.08,1.15,-1.15,-1.25,-0.98,-3.23,-3.22,-3.22
132.46,-2.08,1.20,-2.08,1.20,-1.20,-1.31,-0.99,-3.28,-3.27,-3.28
133.79,-2.08,1.24,-2.08,1.24,-1.24,-1.36,-1.01,-3.32,-3.32,-3.32
135.12,-2.08,1.29,-2.08,1.29,-1.29,-1.40,-1.02,-3.37,-3.37,-3.37
136.48,-2.08,1.33,-2.08,1.33,-1.33,-1.45,-1.03,-3.41,-3.41,-3.41
137.84,-2.08,1.36,-2.08,1.37,-1.37,-1.50,-1.04,-3.45,-3.45,-3.44
139.22,-2.08,1.42,-2.08,1.41,-1.41,-1.54,-1.05,-3.49,-3.49,-3.50
140.61,-2.08,1.46,-2.08,1.45,-1.45,-1.59,-1.06,-3.53,-3.53,-3.54
142.02,-2.07,1.48,-2.07,1.49,-1.49,-1.63,-1.07,-3.56,-3.56,-3.55
143.44,-2.07,1.51,-2.07,1.52,-1.52,-1.67,-1.08,-3.59,-3.59,-3.58
144.87,-2.06,1.56,-2.06,1.56,-1.56,-1.71,-1.09,-3.62,-3.62,-3.62
146.32,-2.05,1.60,-2.05,1.60,-1.60,-1.74,-1.10,-3.65,-3.65,-3.65
147.78,-2.04,1.63,-2.04,1.63,-1.63,-1.78,-1.11,-3.67,-3.68,-3.67
149.26,-2.03,1.67,-2.03,1.67,-1.67,-1.81,-1.12,-3.70,-3.70,-3.70
150.75,-2.03,1.71,-2.02,1.71,-1.71,-1.85,-1.13,-3.74,-3.73,-3.74
152.26,-2.01,1.75,-2.01,1.75,-1.75,-1.88,-1.14,-3.76,-3.76,-3.76
153.78,-2.00,1.79,-2.00,1.79,-1.78,-1.91,-1.15,-3.78,-3.78,-3.79
155.32,-1.99,1.82,-1.99,1.82,-1.82,-1.94,-1.16,-3.81,-3.81,-3.81
156.88,-1.98,1.86,-1.98,1.86,-1.86,-1.96,-1.17,-3.84,-3.84,-3.84
158.44,-1.98,1.89,-1.98,1.89,-1.89,-1.99,-1.18,-3.87,-3.87,-3.87
160.03,-1.97,1.93,-1.97,1.93,-1.93,-2.01,-1.20,-3.90,-3.90,-3.90
161.63,-1.96,1.97,-1.96,1.97,-1.97,-2.03,-1.21,-3.93,-3.93,-3.93
163.24,-1.95,2.00,-1.95,2.00,-2.00,-2.06,-1.23,-3.95,-3.95,-3.95
164.88,-1.94,2.03,-1.94,2.04,-2.04,-2.08,-1.24,-3.98,-3.98,-3.97
166.53,-1.93,2.07,-1.93,2.07,-2.07,-2.09,-1.26,-4.00,-4.01,-4.00
168.19,-1.93,2.11,-1.93,2.11,-2.11,-2.11,-1.28,-4.04,-4.04,-4.04
169.87,-1.92,2.15,-1.92,2.15,-2.15,-2.13,-1.29,-4.07,-4.07,-4.07
171.57,-1.90,2.20,-1.91,2.19,-2.19,-2.14,-1.31,-4.09,-4.10,-4.10
173.29,-1.90,2.22,-1.89,2.23,-2.24,-2.15,-1.33,-4.14,-4.13,-4.12
175.02,-1.88,2.28,-1.88,2.28,-2.28,-2.16,-1.36,-4.16,-4.16,-4.16
176.77,-1.87,2.33,-1.87,2.33,-2.33,-2.18,-1.38,-4.20,-4.20,-4.20
178.54,-1.85,2.39,-1.85,2.38,-2.38,-2.18,-1.40,-4.23,-4.23,-4.24
180.32,-1.84,2.43,-1.84,2.43,-2.43,-2.19,-1.43,-4.27,-4.27,-4.27
182.13,-1.83,2.47,-1.83,2.48,-2.48,-2.20,-1.45,-4.31,-4.31,-4.30
183.95,-1.82,2.52,-1.81,2.53,-2.53,-2.21,-1.48,-4.35,-4.34,-4.34
185.79,-1.79,2.59,-1.80,2.58,-2.58,-2.21,-1.51,-4.37,-4.38,-4.38
187.65,-1.78,2.64,-1.78,2.63,-2.63,-2.21,-1.54,-4.41,-4.41,-4.42
189.52,-1.78,2.67,-1.77,2.67,-2.67,-2.22,-1.57,-4.45,-4.44,-4.45
191.42,-1.76,2.72,-1.76,2.71,-2.71,-2.22,-1.60,-4.47,-4.47,-4.48
193.33,-1.76,2.73,-1.76,2.74,-2.74,-2.22,-1.63,-4.50,-4.50,-4.49
195.27,-1.76,2.76,-1.76,2.76,-2.77,-2.22,-1.67,-4.53,-4.53,-4.52
197.22,-1.77,2.78,-1.77,2.79,-2.79,-2.22,-1.70,-4.56,-4.55,-4.55
199.19,-1.78,2.82,-1.78,2.81,-2.79,-2.22,-1.74,-4.57,-4.58,-4.60
201.18,-1.80,2.81,-1.81,2.81,-2.79,-2.21,-1.77,-4.59,-4.60,-4.61
203.19,-1.85,2.78,-1.84,2.79,-2.79,-2.21,-1.81,-4.64,-4.63,-4.63
205.23,-1.89,2.77,-1.89,2.76,-2.77,-2.21,-1.84,-4.66,-4.65,-4.66
207.28,-1.93,2.73,-1.94,2.74,-2.74,-2.20,-1.88,-4.67,-4.68,-4.66
209.35,-1.99,2.71,-1.99,2.71,-2.70,-2.19,-1.91,-4.69,-4.69,-4.70
211.44,-2.04,2.68,-2.04,2.67,-2.66,-2.19,-1.95,-4.70,-4.71,-4.72
213.56,-2.11,2.62,-2.11,2.62,-2.62,-2.18,-1.99,-4.73,-4.72,-4.73
215.69,-2.17,2.57,-2.17,2.57,-2.57,-2.17,-2.02,-4.74,-4.74,-4.74
217.85,-2.24,2.51,-2.24,2.52,-2.52,-2.16,-2.06,-4.76,-4.76,-4.75
220.03,-2.30,2.47,-2.30,2.47,-2.47,-2.15,-2.09,-4.77,-4.77,-4.77
222.23,-2.35,2.43,-2.35,2.43,-2.43,-2.14,-2.12,-4.78,-4.78,-4.78
224.45,-2.39,2.38,-2.40,2.39,-2.39,-2.13,-2.15,-4.78,-4.78,-4.77
226.70,-2.44,2.35,-2.43,2.35,-2.35,-2.12,-2.18,-4.79,-4.79,-4.79
228.96,-2.46,2.33,-2.46,2.32,-2.33,-2.11,-2.21,-4.79,-4.79,-4.79
231.25,-2.48,2.30,-2.48,2.30,-2.31,-2.10,-2.23,-4.79,-4.79,-4.78
233.57,-2.48,2.29,-2.48,2.29,-2.30,-2.09,-2.26,-4.78,-4.78,-4.77
235.90,-2.48,2.29,-2.48,2.29,-2.29,-2.07,-2.28,-4.77,-4.77,-4.77
238.26,-2.46,2.31,-2.46,2.30,-2.29,-2.06,-2.30,-4.75,-4.76,-4.77
240.64,-2.45,2.30,-2.45,2.30,-2.30,-2.05,-2.31,-4.75,-4.75,-4.75
243.05,-2.42,2.31,-2.43,2.31,-2.31,-2.03,-2.33,-4.73,-4.73,-4.73
245.48,-2.41,2.30,-2.40,2.31,-2.32,-2.02,-2.34,-4.73,-4.72,-4.71
247.93,-2.37,2.33,-2.37,2.33,-2.33,-2.00,-2.34,-4.70,-4.70,-4.70
250.41,-2.34,2.35,-2.34,2.34,-2.34,-1.99,-2.35,-4.68,-4.68,-4.69
252.92,-2.31,2.35,-2.31,2.35,-2.35,-1.97,-2.35,-4.66,-4.66,-4.66
255.45,-2.29,2.34,-2.29,2.35,-2.35,-1.95,-2.35,-4.64,-4.64,-4.63
258.00,-2.26,2.35,-2.26,2.35,-2.35,-1.94,-2.34,-4.61,-4.62,-4.61
260.58,-2.24,2.36,-2.24,2.35,-2.35,-1.92,-2.33,-4.59,-4.59,-4.60
263.19,-2.23,2.34,-2.22,2.35,-2.34,-1.91,-2.32,-4.57,-4.57,-4.57
265.82,-2.21,2.34,-2.21,2.34,-2.33,-1.89,-2.31,-4.54,-4.54,-4.55
268.48,-2.21,2.32,-2.21,2.31,-2.31,-1.87,-2.29,-4.52,-4.52,-4.53
271.16,-2.21,2.28,-2.21,2.28,-2.28,-1.85,-2.28,-4.49,-4.50,-4.49
273.87,-2.23,2.25,-2.22,2.25,-2.25,-1.84,-2.26,-4.48,-4.47,-4.48
276.61,-2.24,2.20,-2.24,2.21,-2.21,-1.82,-2.23,-4.45,-4.45,-4.44
279.38,-2.26,2.17,-2.26,2.16,-2.16,-1.80,-2.21,-4.42,-4.43,-4.43
282.17,-2.29,2.11,-2.29,2.11,-2.11,-1.78,-2.19,-4.40,-4.40,-4.40
284.99,-2.32,2.06,-2.32,2.06,-2.05,-1.77,-2.16,-4.37,-4.38,-4.38
287.84,-2.36,1.99,-2.36,1.99,-1.99,-1.75,-2.13,-4.35,-4.35,-4.35
290.72,-2.39,1.93,-2.40,1.93,-1.93,-1.73,-2.10,-4.32,-4.32,-4.32
293.63,-2.44,1.86,-2.44,1.86,-1.86,-1.71,-2.08,-4.30,-4.29,-4.30
296.57,-2.48,1.79,-2.48,1.79,-1.79,-1.69,-2.05,-4.27,-4.27,-4.27
299.53,-2.52,1.72,-2.53,1.72,-1.71,-1.68,-2.02,-4.23,-4.24,-4.24
302.53,-2.57,1.64,-2.57,1.64,-1.64,-1.66,-1.99,-4.21,-4.21,-4.21
305.55,-2.61,1.56,-2.61,1.57,-1.57,-1.64,-1.96,-4.18,-4.18,-4.17
308.61,-2.64,1.50,-2.64,1.50,-1.51,-1.62,-1.93,-4.15,-4.15,-4.14
311.69,-2.67,1.44,-2.67,1.43,-1.45,-1.60,-1.90,-4.12,-4.11,-4.11
314.81,-2.69,1.38,-2.69,1.38,-1.39,-1.58,-1.87,-4.08,-4.08,-4.07
317.96,-2.72,1.32,-2.72,1.33,-1.33,-1.57,-1.85,-4.05,-4.04,-4.04
321.14,-2.74,1.28,-2.74,1.27,-1.27,-1.55,-1.82,-4.01,-4.01,-4.02
324.35,-2.77,1.22,-2.77,1.21,-1.21,-1.53,-1.80,-3.98,-3.98,-3.99
327.59,-2.80,1.15,-2.80,1.16,-1.15,-1.51,-1.77,-3.95,-3.95,-3.95
330.87,-2.84,1.08,-2.84,1.09,-1.08,-1.49,-1.75,-3.92,-3.92,-3.92
334.18,-2.88,1.03,-2.88,1.02,-1.01,-1.48,-1.73,-3.89,-3.89,-3.91
337.52,-2.94,0.94,-2.94,0.94,-0.92,-1.46,-1.71,-3.86,-3.86,-3.88
340.90,-3.01,0.84,-3.01,0.85,-0.83,-1.44,-1.69,-3.84,-3.84,-3.85
344.30,-3.08,0.75,-3.09,0.75,-0.73,-1.42,-1.67,-3.81,-3.82,-3.83
347.75,-3.17,0.64,-3.17,0.64,-0.64,-1.40,-1.65,-3.81,-3.80,-3.81
351.23,-3.25,0.54,-3.25,0.54,-0.54,-1.39,-1.64,-3.79,-3.79,-3.79
354.74,-3.33,0.44,-3.33,0.45,-0.46,-1.37,-1.62,-3.79,-3.78,-3.77
358.28,-3.38,0.37,-3.38,0.37,-0.39,-1.35,-1.61,-3.77,-3.77,-3.75
361.87,-3.41,0.33,-3.41,0.32,-0.34,-1.34,-1.60,-3.75,-3.75,-3.74
365.49,-3.42,0.29,-3.42,0.29,-0.31,-1.32,-1.59,-3.73,-3.73,-3.71
369.14,-3.41,0.29,-3.41,0.29,-0.31,-1.30,-1.58,-3.72,-3.71,-3.70
372.83,-3.37,0.31,-3.37,0.31,-0.32,-1.29,-1.57,-3.69,-3.69,-3.68
376.56,-3.30,0.36,-3.31,0.35,-0.36,-1.27,-1.56,-3.66,-3.67,-3.66
380.33,-3.23,0.40,-3.22,0.41,-0.42,-1.26,-1.56,-3.65,-3.64,-3.63
384.13,-3.13,0.49,-3.13,0.49,-0.48,-1.24,-1.55,-3.61,-3.62,-3.62
387.97,-3.03,0.57,-3.03,0.56,-0.56,-1.22,-1.55,-3.59,-3.59,-3.60
391.85,-2.93,0.65,-2.93,0.65,-0.64,-1.21,-1.54,-3.57,-3.56,-3.58
395.77,-2.83,0.72,-2.83,0.72,-0.71,-1.19,-1.54,-3.54,-3.54,-3.55
399.73,-2.73,0.80,-2.74,0.80,-0.79,-1.18,-1.54,-3.52,-3.52,-3.53
403.72,-2.65,0.86,-2.65,0.86,-0.86,-1.17,-1.54,-3.51,-3.51,-3.51
407.76,-2.57,0.92,-2.57,0.92,-0.92,-1.15,-1.54,-3.49,-3.49,-3.49
411.84,-2.49,0.98,-2.49,0.98,-0.98,-1.14,-1.54,-3.47,-3.47,-3.47
415.96,-2.41,1.04,-2.41,1.03,-1.04,-1.13,-1.55,-3.45,-3.45,-3.45
420.12,-2.34,1.09,-2.34,1.08,-1.09,-1.11,-1.55,-3.43,-3.43,-3.43
424.32,-2.27,1.13,-2.27,1.13,-1.14,-1.10,-1.55,-3.41,-3.41,-3.40
428.56,-2.20,1.18,-2.20,1.18,-1.19,-1.09,-1.55,-3.39,-3.39,-3.38
432.85,-2.13,1.23,-2.13,1.23,-1.24,-1.08,-1.56,-3.37,-3.37,-3.36
437.18,-2.06,1.27,-2.05,1.28,-1.28,-1.07,-1.56,-3.34,-3.33,-3.33
441.55,-1.98,1.32,-1.98,1.32,-1.32,-1.06,-1.56,-3.30,-3.30,-3.30
445.96,-1.92,1.36,-1.93,1.36,-1.34,-1.05,-1.56,-3.26,-3.27,-3.28
450.42,-1.88,1.39,-1.88,1.38,-1.36,-1.04,-1.56,-3.24,-3.24,-3.27
454.93,-1.85,1.38,-1.85,1.39,-1.37,-1.03,-1.56,-3.22,-3.22,-3.23
459.48,-1.82,1.39,-1.82,1.38,-1.38,-1.03,-1.56,-3.20,-3.20,-3.21
