frequency,raw,error,smoothed,error_smoothed,equalization,parametric_eq,fixed_band_eq,equalized_raw,equalized_smoothed,target
20.00,6.06,2.23,6.05,2.22,-2.23,-2.29,-1.18,3.83,3.83,3.83
20.20,6.07,2.24,6.07,2.24,-2.25,-2.30,-1.21,3.82,3.83,3.83
20.40,6.09,2.26,6.09,2.26,-2.26,-2.31,-1.24,3.82,3.83,3.83
20.61,6.11,2.28,6.11,2.28,-2.28,-2.31,-1.28,3.83,3.83,3.83
20.81,6.13,2.31,6.13,2.31,-2.30,-2.32,-1.32,3.83,3.83,3.82
21.02,6.15,2.33,6.14,2.32,-2.32,-2.33,-1.36,3.83,3.83,3.82
21.23,6.15,2.33,6.16,2.34,-2.33,-2.34,-1.39,3.82,3.82,3.82
21.44,6.17,2.34,6.17,2.35,-2.35,-2.35,-1.43,3.82,3.82,3.83
21.66,6.18,2.36,6.18,2.36,-2.36,-2.35,-1.47,3.82,3.81,3.82
21.87,6.19,2.37,6.19,2.37,-2.38,-2.36,-1.52,3.81,3.81,3.82
22.09,6.20,2.39,6.20,2.39,-2.39,-2.37,-1.56,3.81,3.81,3.81
22.31,6.21,2.40,6.21,2.41,-2.40,-2.38,-1.61,3.81,3.81,3.81
22.54,6.22,2.42,6.22,2.42,-2.42,-2.39,-1.65,3.80,3.80,3.80
22.76,6.23,2.43,6.23,2.43,-2.44,-2.40,-1.70,3.79,3.79,3.80
22.99,6.24,2.44,6.24,2.45,-2.45,-2.41,-1.75,3.79,3.79,3.79
23.22,6.25,2.47,6.25,2.46,-2.47,-2.42,-1.80,3.78,3.78,3.78
23.45,6.27,2.49,6.27,2.49,-2.49,-2.43,-1.85,3.78,3.78,3.78
23.69,6.28,2.51,6.28,2.51,-2.50,-2.44,-1.90,3.78,3.78,3.77
23.92,6.29,2.53,6.29,2.52,-2.52,-2.44,-1.95,3.77,3.77,3.76
24.16,6.30,2.54,6.30,2.53,-2.53,-2.45,-2.00,3.77,3.77,3.76
24.40,6.30,2.54,6.30,2.54,-2.54,-2.46,-2.06,3.76,3.76,3.76
24.65,6.31,2.55,6.31,2.55,-2.56,-2.47,-2.11,3.75,3.75,3.76
24.89,6.32,2.56,6.32,2.56,-2.57,-2.48,-2.17,3.75,3.75,3.76
25.14,6.33,2.57,6.33,2.57,-2.58,-2.50,-2.22,3.75,3.75,3.76
25.39,6.34,2.59,6.34,2.59,-2.59,-2.51,-2.28,3.75,3.75,3.75
25.65,6.35,2.60,6.35,2.60,-2.60,-2.52,-2.34,3.75,3.75,3.75
25.91,6.36,2.61,6.36,2.61,-2.61,-2.53,-2.39,3.75,3.75,3.75
26.16,6.37,2.61,6.37,2.62,-2.62,-2.54,-2.45,3.75,3.75,3.76
26.43,6.38,2.62,6.38,2.62,-2.63,-2.55,-2.51,3.75,3.75,3.75
26.69,6.39,2.64,6.39,2.63,-2.63,-2.56,-2.56,3.76,3.75,3.75
26.96,6.39,2.64,6.39,2.64,-2.64,-2.57,-2.62,3.75,3.75,3.75
27.23,6.40,2.65,6.40,2.64,-2.64,-2.59,-2.67,3.75,3.75,3.75
27.50,6.40,2.65,6.40,2.65,-2.65,-2.60,-2.73,3.75,3.75,3.75
27.77,6.41,2.65,6.41,2.66,-2.66,-2.61,-2.78,3.75,3.75,3.76
28.05,6.42,2.67,6.42,2.67,-2.67,-2.62,-2.83,3.75,3.75,3.75
28.33,6.42,2.67,6.42,2.68,-2.68,-2.63,-2.88,3.74,3.75,3.75
28.62,6.43,2.69,6.43,2.69,-2.69,-2.65,-2.93,3.74,3.74,3.74
28.90,6.43,2.69,6.43,2.69,-2.70,-2.66,-2.97,3.73,3.74,3.74
29.19,6.44,2.71,6.44,2.71,-2.71,-2.67,-3.02,3.73,3.73,3.73
29.48,6.44,2.72,6.44,2.71,-2.72,-2.69,-3.06,3.72,3.72,3.72
29.78,6.45,2.73,6.45,2.73,-2.73,-2.70,-3.09,3.72,3.72,3.72
30.08,6.45,2.73,6.45,2.74,-2.74,-2.71,-3.13,3.71,3.72,3.72
30.38,6.46,2.75,6.46,2.75,-2.75,-2.73,-3.16,3.71,3.71,3.71
30.68,6.46,2.75,6.46,2.75,-2.75,-2.74,-3.18,3.71,3.71,3.70
30.99,6.46,2.76,6.46,2.76,-2.76,-2.76,-3.21,3.70,3.70,3.70
31.30,6.47,2.77,6.47,2.77,-2.77,-2.77,-3.23,3.70,3.70,3.70
31.61,6.47,2.77,6.47,2.77,-2.77,-2.78,-3.25,3.70,3.70,3.70
31.93,6.48,2.78,6.48,2.78,-2.77,-2.80,-3.26,3.70,3.70,3.70
32.24,6.48,2.77,6.48,2.78,-2.78,-2.81,-3.27,3.70,3.70,3.70
32.57,6.48,2.79,6.48,2.78,-2.78,-2.83,-3.28,3.70,3.70,3.69
32.89,6.49,2.79,6.48,2.79,-2.79,-2.84,-3.29,3.70,3.70,3.70
33.22,6.49,2.79,6.49,2.79,-2.80,-2.86,-3.29,3.69,3.69,3.70
33.55,6.49,2.79,6.49,2.80,-2.80,-2.88,-3.29,3.69,3.69,3.70
33.89,6.50,2.82,6.50,2.81,-2.81,-2.89,-3.28,3.69,3.68,3.68
34.23,6.50,2.83,6.50,2.83,-2.82,-2.91,-3.28,3.68,3.68,3.67
34.57,6.50,2.83,6.50,2.84,-2.84,-2.92,-3.27,3.66,3.66,3.67
34.92,6.50,2.85,6.50,2.85,-2.85,-2.94,-3.27,3.65,3.65,3.64
35.27,6.50,2.86,6.50,2.87,-2.87,-2.96,-3.26,3.63,3.63,3.64
35.62,6.51,2.90,6.50,2.89,-2.89,-2.97,-3.25,3.62,3.61,3.61
35.97,6.50,2.90,6.50,2.91,-2.91,-2.99,-3.23,3.59,3.59,3.59
36.33,6.50,2.93,6.50,2.93,-2.94,-3.01,-3.22,3.56,3.57,3.57
36.70,6.50,2.96,6.50,2.96,-2.96,-3.03,-3.21,3.54,3.54,3.54
37.06,6.50,2.99,6.50,2.99,-2.99,-3.04,-3.20,3.51,3.51,3.51
37.43,6.50,3.02,6.50,3.02,-3.02,-3.06,-3.19,3.48,3.48,3.48
37.81,6.51,3.05,6.50,3.05,-3.05,-3.08,-3.18,3.46,3.46,3.46
38.19,6.50,3.08,6.50,3.08,-3.08,-3.10,-3.17,3.42,3.43,3.42
38.57,6.50,3.10,6.50,3.10,-3.10,-3.12,-3.16,3.40,3.40,3.40
38.95,6.50,3.13,6.50,3.13,-3.13,-3.13,-3.15,3.37,3.37,3.37
39.34,6.50,3.16,6.50,3.16,-3.16,-3.15,-3.15,3.34,3.35,3.34
39.74,6.50,3.19,6.50,3.18,-3.18,-3.17,-3.14,3.32,3.32,3.31
40.14,6.50,3.21,6.49,3.20,-3.20,-3.19,-3.14,3.30,3.29,3.29
40.54,6.48,3.21,6.49,3.22,-3.22,-3.21,-3.14,3.26,3.27,3.27
40.94,6.49,3.24,6.48,3.24,-3.24,-3.23,-3.14,3.25,3.24,3.25
41.35,6.48,3.26,6.48,3.26,-3.26,-3.25,-3.14,3.22,3.22,3.22
41.76,6.48,3.28,6.48,3.28,-3.28,-3.27,-3.15,3.20,3.20,3.20
42.18,6.48,3.29,6.48,3.29,-3.29,-3.29,-3.16,3.19,3.18,3.19
42.60,6.47,3.30,6.47,3.31,-3.31,-3.31,-3.17,3.16,3.16,3.16
43.03,6.47,3.33,6.47,3.32,-3.32,-3.33,-3.18,3.15,3.15,3.14
43.46,6.46,3.34,6.46,3.34,-3.34,-3.35,-3.19,3.12,3.12,3.12
43.90,6.46,3.36,6.45,3.36,-3.35,-3.37,-3.21,3.11,3.10,3.10
44.33,6.44,3.36,6.44,3.36,-3.37,-3.39,-3.23,3.07,3.08,3.08
44.78,6.44,3.38,6.44,3.37,-3.38,-3.41,-3.25,3.06,3.06,3.06
45.23,6.43,3.38,6.43,3.39,-3.40,-3.43,-3.28,3.03,3.03,3.05
45.68,6.43,3.42,6.43,3.41,-3.41,-3.45,-3.30,3.02,3.01,3.01
46.13,6.42,3.44,6.42,3.44,-3.43,-3.47,-3.33,2.99,2.99,2.97
46.60,6.41,3.45,6.41,3.46,-3.45,-3.49,-3.36,2.96,2.96,2.96
47.06,6.41,3.48,6.40,3.48,-3.48,-3.51,-3.40,2.93,2.92,2.93
47.53,6.39,3.49,6.39,3.50,-3.50,-3.54,-3.43,2.88,2.89,2.90
48.01,6.38,3.53,6.38,3.53,-3.53,-3.56,-3.47,2.85,2.85,2.85
48.49,6.37,3.55,6.37,3.55,-3.56,-3.58,-3.51,2.81,2.81,2.82
48.97,6.37,3.59,6.37,3.59,-3.59,-3.60,-3.55,2.78,2.78,2.78
49.46,6.36,3.61,6.36,3.62,-3.62,-3.62,-3.60,2.74,2.74,2.75
49.96,6.35,3.66,6.35,3.65,-3.65,-3.64,-3.64,2.70,2.70,2.68
50.46,6.33,3.68,6.33,3.68,-3.68,-3.67,-3.69,2.65,2.65,2.65
50.96,6.32,3.71,6.32,3.71,-3.71,-3.69,-3.74,2.61,2.61,2.61
51.47,6.31,3.73,6.31,3.74,-3.73,-3.71,-3.79,2.58,2.58,2.58
51.99,6.30,3.76,6.30,3.76,-3.76,-3.73,-3.84,2.54,2.54,2.53
52.51,6.29,3.79,6.29,3.78,-3.78,-3.75,-3.89,2.51,2.50,2.50
53.03,6.27,3.79,6.27,3.80,-3.81,-3.78,-3.94,2.46,2.46,2.48
53.56,6.26,3.83,6.26,3.83,-3.83,-3.80,-3.99,2.43,2.43,2.43
54.10,6.25,3.86,6.25,3.85,-3.86,-3.82,-4.04,2.39,2.39,2.39
54.64,6.23,3.88,6.23,3.89,-3.88,-3.84,-4.09,2.35,2.35,2.35
55.18,6.22,3.91,6.22,3.91,-3.91,-3.86,-4.14,2.31,2.31,2.31
55.74,6.20,3.93,6.20,3.93,-3.93,-3.88,-4.19,2.27,2.27,2.27
56.29,6.19,3.95,6.19,3.95,-3.95,-3.91,-4.24,2.24,2.24,2.24
56.86,6.17,3.96,6.17,3.97,-3.96,-3.93,-4.28,2.21,2.21,2.21
57.42,6.16,3.99,6.16,3.99,-3.98,-3.95,-4.32,2.18,2.18,2.17
58.00,6.14,4.00,6.14,4.00,-3.99,-3.97,-4.36,2.15,2.15,2.14
58.58,6.13,4.01,6.12,4.01,-4.01,-3.99,-4.40,2.12,2.12,2.12
59.16,6.10,4.01,6.10,4.02,-4.03,-4.01,-4.43,2.07,2.08,2.09
59.76,6.08,4.02,6.08,4.03,-4.05,-4.04,-4.46,2.03,2.04,2.06
60.35,6.07,4.06,6.06,4.06,-4.07,-4.06,-4.49,2.00,1.99,2.00
60.96,6.05,4.09,6.05,4.09,-4.10,-4.08,-4.51,1.95,1.95,1.96
61.57,6.03,4.13,6.03,4.13,-4.13,-4.10,-4.53,1.90,1.90,1.90
62.18,6.01,4.16,6.01,4.16,-4.16,-4.12,-4.54,1.85,1.85,1.85
62.80,6.00,4.20,6.00,4.20,-4.19,-4.14,-4.55,1.81,1.81,1.80
63.43,5.98,4.23,5.98,4.23,-4.22,-4.16,-4.55,1.76,1.76,1.75
64.07,5.96,4.25,5.96,4.25,-4.24,-4.18,-4.56,1.72,1.72,1.71
64.71,5.94,4.27,5.94,4.27,-4.26,-4.20,-4.55,1.67,1.67,1.67
65.35,5.91,4.27,5.92,4.28,-4.28,-4.22,-4.54,1.62,1.63,1.64
66.01,5.90,4.30,5.90,4.29,-4.30,-4.24,-4.53,1.60,1.59,1.60
66.67,5.88,4.31,5.87,4.31,-4.32,-4.26,-4.52,1.56,1.56,1.57
67.33,5.85,4.33,5.85,4.33,-4.33,-4.28,-4.50,1.52,1.52,1.52
68.01,5.83,4.35,5.83,4.35,-4.35,-4.29,-4.48,1.48,1.48,1.48
68.69,5.81,4.37,5.80,4.36,-4.36,-4.31,-4.46,1.45,1.44,1.44
69.37,5.78,4.37,5.78,4.38,-4.38,-4.33,-4.43,1.40,1.40,1.41
70.07,5.76,4.39,5.76,4.39,-4.40,-4.35,-4.40,1.36,1.36,1.37
70.77,5.74,4.41,5.74,4.41,-4.42,-4.37,-4.38,1.32,1.32,1.33
71.48,5.72,4.44,5.72,4.43,-4.43,-4.38,-4.35,1.29,1.28,1.28
72.19,5.69,4.45,5.69,4.45,-4.45,-4.40,-4.32,1.24,1.24,1.24
72.91,5.67,4.47,5.67,4.47,-4.46,-4.42,-4.28,1.20,1.20,1.20
73.64,5.64,4.48,5.64,4.48,-4.48,-4.43,-4.25,1.16,1.16,1.15
74.38,5.61,4.49,5.61,4.49,-4.49,-4.45,-4.22,1.12,1.12,1.12
75.12,5.59,4.51,5.59,4.50,-4.50,-4.46,-4.19,1.08,1.08,1.08
75.87,5.56,4.50,5.56,4.51,-4.51,-4.48,-4.16,1.05,1.05,1.06
76.63,5.54,4.52,5.54,4.52,-4.52,-4.49,-4.13,1.02,1.02,1.02
77.40,5.51,4.52,5.51,4.52,-4.52,-4.51,-4.11,0.99,0.99,0.99
78.17,5.48,4.54,5.48,4.53,-4.53,-4.52,-4.08,0.95,0.96,0.94
78.95,5.45,4.52,5.45,4.53,-4.53,-4.53,-4.06,0.92,0.92,0.93
79.74,5.43,4.53,5.42,4.53,-4.53,-4.55,-4.04,0.90,0.89,0.90
80.54,5.39,4.53,5.40,4.53,-4.53,-4.56,-4.02,0.86,0.86,0.86
81.35,5.37,4.53,5.37,4.53,-4.54,-4.57,-4.00,0.83,0.83,0.84
82.16,5.34,4.53,5.34,4.53,-4.54,-4.58,-3.99,0.80,0.80,0.81
82.98,5.31,4.54,5.31,4.54,-4.54,-4.59,-3.98,0.77,0.78,0.77
83.81,5.29,4.55,5.28,4.54,-4.54,-4.60,-3.97,0.75,0.74,0.74
84.65,5.25,4.54,5.25,4.54,-4.54,-4.61,-3.96,0.71,0.71,0.70
85.50,5.22,4.54,5.22,4.54,-4.54,-4.62,-3.96,0.68,0.68,0.68
86.35,5.19,4.53,5.19,4.54,-4.54,-4.63,-3.96,0.65,0.65,0.65
87.22,5.16,4.54,5.16,4.53,-4.54,-4.64,-3.96,0.62,0.62,0.62
88.09,5.13,4.54,5.13,4.53,-4.54,-4.65,-3.96,0.59,0.59,0.59
88.97,5.09,4.53,5.10,4.54,-4.54,-4.65,-3.97,0.55,0.56,0.56
89.86,5.07,4.54,5.06,4.54,-4.54,-4.66,-3.98,0.53,0.53,0.53
90.76,5.03,4.54,5.03,4.54,-4.54,-4.67,-4.00,0.49,0.50,0.49
91.66,5.00,4.54,5.00,4.54,-4.54,-4.67,-4.02,0.46,0.46,0.46
92.58,4.97,4.54,4.97,4.54,-4.54,-4.68,-4.04,0.43,0.43,0.43
93.51,4.94,4.55,4.94,4.54,-4.55,-4.69,-4.06,0.39,0.39,0.39
94.44,4.90,4.54,4.90,4.55,-4.55,-4.69,-4.09,0.34,0.35,0.36
95.39,4.87,4.56,4.87,4.56,-4.56,-4.69,-4.11,0.31,0.31,0.31
96.34,4.84,4.58,4.84,4.57,-4.57,-4.70,-4.15,0.27,0.26,0.26
97.30,4.80,4.57,4.80,4.58,-4.58,-4.70,-4.18,0.22,0.22,0.23
98.28,4.77,4.60,4.77,4.59,-4.59,-4.70,-4.22,0.18,0.18,0.17
99.26,4.73,4.61,4.73,4.60,-4.60,-4.71,-4.25,0.13,0.13,0.12
100.25,4.70,4.61,4.70,4.61,-4.61,-4.71,-4.30,0.09,0.09,0.09
101.25,4.66,4.61,4.66,4.61,-4.61,-4.71,-4.34,0.05,0.05,0.05
102.27,4.63,4.62,4.63,4.62,-4.62,-4.71,-4.38,0.01,0.01,0.01
103.29,4.59,4.62,4.59,4.62,-4.62,-4.71,-4.43,-0.03,-0.03,-0.03
104.32,4.56,4.61,4.56,4.61,-4.62,-4.72,-4.47,-0.06,-0.06,-0.06
105.37,4.52,4.61,4.52,4.61,-4.62,-4.72,-4.52,-0.10,-0.09,-0.09
106.42,4.49,4.61,4.49,4.61,-4.61,-4.72,-4.57,-0.12,-0.13,-0.12
107.48,4.45,4.62,4.45,4.61,-4.61,-4.72,-4.61,-0.16,-0.16,-0.17
108.56,4.42,4.62,4.42,4.61,-4.61,-4.72,-4.66,-0.19,-0.19,-0.20
109.64,4.38,4.60,4.38,4.61,-4.61,-4.72,-4.71,-0.23,-0.23,-0.22
110.74,4.34,4.60,4.34,4.60,-4.61,-4.71,-4.75,-0.27,-0.26,-0.26
111.85,4.31,4.61,4.31,4.60,-4.61,-4.71,-4.80,-0.30,-0.30,-0.30
112.97,4.27,4.60,4.27,4.60,-4.61,-4.71,-4.84,-0.34,-0.34,-0.34
114.10,4.24,4.61,4.23,4.61,-4.61,-4.71,-4.88,-0.37,-0.38,-0.37
115.24,4.19,4.61,4.19,4.61,-4.62,-4.71,-4.92,-0.43,-0.42,-0.42
116.39,4.16,4.63,4.16,4.63,-4.63,-4.71,-4.95,-0.47,-0.47,-0.47
117.55,4.12,4.63,4.12,4.64,-4.63,-4.70,-4.98,-0.51,-0.51,-0.51
118.73,4.09,4.65,4.09,4.65,-4.64,-4.70,-5.01,-0.55,-0.55,-0.57
119.92,4.05,4.66,4.05,4.65,-4.65,-4.70,-5.04,-0.60,-0.60,-0.61
121.12,4.01,4.65,4.01,4.66,-4.66,-4.70,-5.06,-0.65,-0.65,-0.64
122.33,3.97,4.67,3.97,4.67,-4.67,-4.69,-5.07,-0.70,-0.70,-0.70
123.55,3.94,4.68,3.94,4.67,-4.68,-4.69,-5.09,-0.74,-0.74,-0.74
124.79,3.90,4.68,3.90,4.68,-4.69,-4.69,-5.09,-0.79,-0.79,-0.78
126.03,3.86,4.69,3.86,4.70,-4.70,-4.69,-5.10,-0.84,-0.84,-0.83
127.29,3.82,4.71,3.82,4.71,-4.72,-4.68,-5.09,-0.90,-0.89,-0.90
128.57,3.79,4.74,3.79,4.73,-4.73,-4.68,-5.09,-0.94,-0.94,-0.95
129.85,3.75,4.74,3.75,4.75,-4.74,-4.68,-5.07,-0.99,-0.99,-1.00
131.15,3.71,4.75,3.71,4.75,-4.75,-4.67,-5.06,-1.04,-1.04,-1.04
132.46,3.67,4.76,3.67,4.76,-4.76,-4.67,-5.04,-1.09,-1.09,-1.09
133.79,3.63,4.76,3.63,4.76,-4.76,-4.67,-5.02,-1.13,-1.13,-1.13
135.12,3.59,4.77,3.59,4.76,-4.76,-4.66,-4.99,-1.18,-1.17,-1.18
136.48,3.56,4.76,3.56,4.76,-4.76,-4.66,-4.96,-1.20,-1.21,-1.20
137.84,3.52,4.76,3.52,4.76,-4.76,-4.66,-4.93,-1.24,-1.24,-1.24
139.22,3.48,4.76,3.48,4.76,-4.76,-4.66,-4.90,-1.28,-1.28,-1.28
140.61,3.44,4.75,3.44,4.75,-4.75,-4.65,-4.86,-1.31,-1.31,-1.31
142.02,3.41,4.75,3.41,4.75,-4.74,-4.65,-4.82,-1.33,-1.34,-1.34
143.44,3.37,4.74,3.37,4.73,-4.73,-4.65,-4.79,-1.37,-1.37,-1.37
144.87,3.33,4.72,3.33,4.73,-4.73,-4.64,-4.75,-1.40,-1.40,-1.39
146.32,3.29,4.71,3.29,4.71,-4.72,-4.64,-4.71,-1.43,-1.43,-1.42
147.78,3.26,4.71,3.25,4.71,-4.71,-4.64,-4.67,-1.45,-1.45,-1.45
149.26,3.22,4.70,3.22,4.70,-4.70,-4.64,-4.63,-1.48,-1.48,-1.48
150.75,3.18,4.70,3.18,4.69,-4.69,-4.63,-4.59,-1.51,-1.51,-1.52
152.26,3.15,4.68,3.14,4.68,-4.68,-4.63,-4.56,-1.53,-1.54,-1.53
153.78,3.10,4.67,3.11,4.67,-4.67,-4.63,-4.52,-1.57,-1.57,-1.57
155.32,3.07,4.66,3.07,4.66,-4.67,-4.63,-4.49,-1.60,-1.60,-1.59
156.88,3.03,4.66,3.03,4.66,-4.66,-4.63,-4.46,-1.63,-1.63,-1.63
158.44,2.99,4.65,2.99,4.65,-4.66,-4.63,-4.43,-1.67,-1.66,-1.66
160.03,2.96,4.65,2.95,4.65,-4.65,-4.62,-4.40,-1.69,-1.70,-1.69
161.63,2.92,4.64,2.92,4.65,-4.65,-4.62,-4.38,-1.73,-1.73,-1.73
163.24,2.88,4.66,2.88,4.65,-4.65,-4.62,-4.35,-1.77,-1.77,-1.78
164.88,2.85,4.66,2.84,4.65,-4.65,-4.62,-4.34,-1.80,-1.80,-1.81
166.53,2.81,4.65,2.81,4.65,-4.65,-4.62,-4.32,-1.84,-1.84,-1.85
168.19,2.77,4.64,2.77,4.65,-4.65,-4.62,-4.31,-1.88,-1.88,-1.87
169.87,2.74,4.65,2.74,4.65,-4.65,-4.62,-4.29,-1.92,-1.92,-1.91
171.57,2.70,4.66,2.70,4.65,-4.66,-4.62,-4.29,-1.96,-1.95,-1.96
173.29,2.67,4.66,2.67,4.66,-4.66,-4.62,-4.28,-1.99,-1.99,-1.99
175.02,2.63,4.66,2.63,4.66,-4.66,-4.62,-4.28,-2.03,-2.03,-2.03
176.77,2.60,4.66,2.60,4.66,-4.66,-4.62,-4.29,-2.06,-2.06,-2.06
178.54,2.56,4.66,2.56,4.66,-4.66,-4.62,-4.29,-2.10,-2.10,-2.10
180.32,2.53,4.67,2.53,4.66,-4.66,-4.62,-4.30,-2.14,-2.14,-2.14
182.13,2.49,4.66,2.49,4.66,-4.67,-4.62,-4.31,-2.18,-2.17,-2.17
183.95,2.46,4.66,2.46,4.67,-4.67,-4.62,-4.33,-2.21,-2.21,-2.21
185.79,2.43,4.68,2.43,4.67,-4.67,-4.62,-4.35,-2.24,-2.24,-2.25
187.65,2.40,4.68,2.40,4.67,-4.68,-4.63,-4.37,-2.28,-2.28,-2.28
189.52,2.36,4.68,2.36,4.68,-4.68,-4.63,-4.39,-2.32,-2.32,-2.32
191.42,2.33,4.68,2.33,4.68,-4.69,-4.63,-4.42,-2.36,-2.36,-2.36
193.33,2.30,4.69,2.30,4.69,-4.69,-4.63,-4.45,-2.39,-2.39,-2.39
195.27,2.27,4.70,2.27,4.70,-4.70,-4.63,-4.48,-2.43,-2.43,-2.43
197.22,2.24,4.71,2.23,4.70,-4.70,-4.64,-4.52,-2.46,-2.46,-2.47
199.19,2.20,4.70,2.20,4.70,-4.70,-4.64,-4.55,-2.50,-2.50,-2.50
201.18,2.17,4.70,2.17,4.70,-4.70,-4.64,-4.59,-2.53,-2.53,-2.53
203.19,2.15,4.71,2.14,4.70,-4.70,-4.64,-4.64,-2.55,-2.56,-2.56
205.23,2.11,4.69,2.12,4.70,-4.70,-4.65,-4.68,-2.59,-2.59,-2.58
207.28,2.09,4.70,2.09,4.70,-4.70,-4.65,-4.72,-2.61,-2.61,-2.61
209.35,2.06,4.70,2.06,4.70,-4.70,-4.65,-4.77,-2.64,-2.64,-2.64
211.44,2.03,4.70,2.03,4.70,-4.70,-4.66,-4.81,-2.67,-2.67,-2.67
213.56,2.01,4.71,2.01,4.70,-4.70,-4.66,-4.86,-2.70,-2.70,-2.70
215.69,1.99,4.71,1.98,4.71,-4.71,-4.66,-4.91,-2.72,-2.72,-2.72
217.85,1.96,4.70,1.96,4.71,-4.71,-4.67,-4.95,-2.75,-2.75,-2.74
220.03,1.94,4.72,1.94,4.71,-4.71,-4.67,-5.00,-2.77,-2.77,-2.78
222.23,1.92,4.72,1.92,4.72,-4.71,-4.67,-5.04,-2.79,-2.80,-2.80
224.45,1.90,4.72,1.90,4.72,-4.71,-4.68,-5.08,-2.81,-2.82,-2.82
226.70,1.87,4.71,1.88,4.71,-4.71,-4.68,-5.12,-2.84,-2.84,-2.84
228.96,1.86,4.71,1.86,4.71,-4.71,-4.68,-5.16,-2.85,-2.86,-2.85
231.25,1.84,4.71,1.84,4.71,-4.71,-4.69,-5.19,-2.87,-2.88,-2.87
233.57,1.82,4.71,1.82,4.71,-4.71,-4.69,-5.22,-2.90,-2.89,-2.89
235.90,1.80,4.72,1.80,4.72,-4.71,-4.69,-5.25,-2.92,-2.91,-2.92
238.26,1.79,4.73,1.79,4.72,-4.71,-4.70,-5.27,-2.92,-2.93,-2.94
240.64,1.77,4.71,1.77,4.72,-4.71,-4.70,-5.29,-2.94,-2.94,-2.94
243.05,1.76,4.71,1.76,4.71,-4.71,-4.71,-5.31,-2.95,-2.96,-2.95
245.48,1.74,4.71,1.74,4.71,-4.71,-4.71,-5.31,-2.97,-2.97,-2.97
247.93,1.72,4.71,1.72,4.71,-4.71,-4.71,-5.32,-2.99,-2.98,-2.99
250.41,1.71,4.70,1.71,4.70,-4.70,-4.72,-5.32,-2.99,-2.99,-2.99
252.92,1.70,4.69,1.69,4.69,-4.70,-4.72,-5.31,-3.00,-3.00,-2.99
255.45,1.68,4.69,1.68,4.69,-4.69,-4.72,-5.30,-3.01,-3.01,-3.01
258.00,1.67,4.69,1.67,4.69,-4.69,-4.73,-5.28,-3.02,-3.02,-3.02
260.58,1.66,4.68,1.66,4.69,-4.69,-4.73,-5.26,-3.03,-3.03,-3.02
263.19,1.65,4.69,1.65,4.68,-4.68,-4.73,-5.23,-3.03,-3.04,-3.04
265.82,1.64,4.69,1.64,4.68,-4.68,-4.74,-5.20,-3.04,-3.05,-3.05
268.48,1.62,4.67,1.63,4.68,-4.68,-4.74,-5.17,-3.06,-3.06,-3.05
271.16,1.62,4.69,1.61,4.68,-4.68,-4.74,-5.13,-3.06,-3.07,-3.07
273.87,1.60,4.67,1.60,4.68,-4.68,-4.74,-5.09,-3.08,-3.08,-3.07
276.61,1.59,4.68,1.59,4.68,-4.68,-4.75,-5.04,-3.09,-3.09,-3.09
279.38,1.58,4.68,1.58,4.68,-4.68,-4.75,-4.99,-3.10,-3.09,-3.10
282.17,1.58,4.69,1.57,4.67,-4.67,-4.75,-4.95,-3.10,-3.10,-3.11
284.99,1.56,4.66,1.56,4.67,-4.67,-4.75,-4.89,-3.11,-3.11,-3.10
287.84,1.55,4.66,1.55,4.67,-4.67,-4.75,-4.84,-3.12,-3.12,-3.11
290.72,1.55,4.68,1.55,4.67,-4.67,-4.75,-4.79,-3.12,-3.12,-3.13
293.63,1.54,4.66,1.54,4.67,-4.67,-4.75,-4.74,-3.13,-3.12,-3.12
296.57,1.54,4.67,1.54,4.67,-4.66,-4.75,-4.68,-3.12,-3.12,-3.13
299.53,1.53,4.66,1.53,4.66,-4.66,-4.75,-4.63,-3.13,-3.13,-3.13
302.53,1.52,4.66,1.52,4.66,-4.66,-4.75,-4.58,-3.14,-3.14,-3.14
305.55,1.51,4.65,1.51,4.65,-4.65,-4.75,-4.53,-3.14,-3.15,-3.14
308.61,1.50,4.64,1.50,4.65,-4.65,-4.75,-4.48,-3.15,-3.15,-3.14
311.69,1.50,4.65,1.50,4.65,-4.65,-4.75,-4.43,-3.15,-3.15,-3.15
314.81,1.50,4.65,1.50,4.64,-4.64,-4.75,-4.38,-3.14,-3.15,-3.15
317.96,1.49,4.64,1.49,4.64,-4.64,-4.74,-4.34,-3.15,-3.14,-3.15
321.14,1.49,4.63,1.49,4.64,-4.63,-4.74,-4.30,-3.14,-3.15,-3.14
324.35,1.48,4.64,1.48,4.63,-4.63,-4.74,-4.26,-3.15,-3.15,-3.16
327.59,1.47,4.61,1.47,4.62,-4.62,-4.73,-4.22,-3.16,-3.15,-3.14
330.87,1.47,4.61,1.47,4.62,-4.62,-4.73,-4.18,-3.15,-3.15,-3.14
334.18,1.47,4.62,1.47,4.61,-4.61,-4.72,-4.15,-3.14,-3.15,-3.16
337.52,1.46,4.61,1.46,4.61,-4.61,-4.72,-4.12,-3.15,-3.15,-3.15
340.90,1.46,4.61,1.46,4.60,-4.60,-4.71,-4.10,-3.14,-3.15,-3.15
344.30,1.45,4.59,1.45,4.59,-4.60,-4.70,-4.07,-3.15,-3.15,-3.14
347.75,1.45,4.58,1.45,4.59,-4.59,-4.69,-4.05,-3.14,-3.14,-3.13
351.23,1.45,4.60,1.45,4.58,-4.59,-4.68,-4.04,-3.14,-3.14,-3.15
354.74,1.45,4.58,1.45,4.58,-4.58,-4.68,-4.02,-3.13,-3.14,-3.13
358.28,1.44,4.58,1.44,4.58,-4.58,-4.67,-4.01,-3.14,-3.13,-3.14
361.87,1.44,4.57,1.44,4.57,-4.57,-4.65,-4.01,-3.13,-3.13,-3.13
365.49,1.44,4.57,1.44,4.57,-4.57,-4.64,-4.00,-3.13,-3.13,-3.13
369.14,1.43,4.55,1.43,4.56,-4.56,-4.63,-4.00,-3.13,-3.13,-3.12
372.83,1.43,4.56,1.43,4.55,-4.56,-4.62,-4.00,-3.13,-3.13,-3.13
376.56,1.42,4.55,1.42,4.55,-4.55,-4.60,-4.00,-3.13,-3.13,-3.13
380.33,1.42,4.55,1.42,4.55,-4.54,-4.59,-4.01,-3.12,-3.13,-3.13
384.13,1.41,4.54,1.41,4.54,-4.53,-4.58,-4.02,-3.13,-3.13,-3.13
387.97,1.40,4.52,1.40,4.53,-4.53,-4.56,-4.03,-3.13,-3.13,-3.12
391.85,1.39,4.51,1.39,4.52,-4.52,-4.54,-4.05,-3.13,-3.13,-3.12
395.77,1.39,4.51,1.39,4.51,-4.51,-4.52,-4.06,-3.12,-3.12,-3.12
399.73,1.38,4.50,1.38,4.50,-4.50,-4.51,-4.08,-3.12,-3.12,-3.13
403.72,1.37,4.49,1.37,4.49,-4.49,-4.49,-4.10,-3.12,-3.12,-3.12
407.76,1.36,4.48,1.36,4.48,-4.48,-4.47,-4.12,-3.12,-3.12,-3.12
411.84,1.35,4.47,1.35,4.47,-4.47,-4.45,-4.15,-3.12,-3.12,-3.12
415.96,1.35,4.46,1.34,4.46,-4.46,-4.42,-4.17,-3.11,-3.11,-3.11
420.12,1.33,4.45,1.33,4.45,-4.45,-4.40,-4.20,-3.12,-3.11,-3.12
424.32,1.32,4.44,1.32,4.43,-4.43,-4.38,-4.22,-3.12,-3.12,-3.12
428.56,1.30,4.41,1.30,4.42,-4.42,-4.35,-4.25,-3.12,-3.12,-3.11
432.85,1.29,4.40,1.29,4.40,-4.41,-4.33,-4.27,-3.12,-3.12,-3.11
437.18,1.27,4.39,1.27,4.39,-4.39,-4.30,-4.30,-3.12,-3.12,-3.12
441.55,1.26,4.38,1.26,4.38,-4.38,-4.27,-4.32,-3.12,-3.12,-3.13
445.96,1.24,4.36,1.24,4.36,-4.36,-4.25,-4.34,-3.12,-3.12,-3.13
450.42,1.21,4.34,1.21,4.34,-4.34,-4.22,-4.36,-3.13,-3.12,-3.13
454.93,1.19,4.32,1.19,4.32,-4.32,-4.19,-4.38,-3.13,-3.13,-3.13
459.48,1.17,4.30,1.17,4.29,-4.30,-4.16,-4.39,-3.13,-3.13,-3.13
464.07,1.15,4.27,1.15,4.27,-4.28,-4.12,-4.41,-3.13,-3.13,-3.12
468.71,1.13,4.25,1.13,4.25,-4.25,-4.09,-4.42,-3.12,-3.13,-3.12
473.40,1.11,4.23,1.11,4.23,-4.23,-4.06,-4.42,-3.12,-3.12,-3.12
478.13,1.08,4.20,1.09,4.21,-4.21,-4.02,-4.42,-3.13,-3.12,-3.12
482.91,1.07,4.19,1.06,4.18,-4.18,-3.99,-4.42,-3.11,-3.11,-3.12
487.74,1.04,4.15,1.04,4.15,-4.15,-3.95,-4.41,-3.11,-3.11,-3.11
492.62,1.00,4.11,1.01,4.12,-4.11,-3.92,-4.40,-3.11,-3.11,-3.11
497.55,0.97,4.08,0.96,4.07,-4.07,-3.88,-4.38,-3.10,-3.11,-3.11
502.52,0.92,4.03,0.92,4.03,-4.03,-3.84,-4.35,-3.11,-3.11,-3.11
