frequency,raw,error,smoothed,error_smoothed,equalization,parametric_eq,equalized_raw,equalized_smoothed,target
20,4.70,1.44,4.59,1.33,-1.33,-1.55,3.36,3.26,3.26
21,4.81,1.55,4.85,1.59,-1.59,-1.79,3.21,3.26,3.26
22,5.02,1.76,5.11,1.85,-1.85,-2.06,3.17,3.26,3.26
23,5.29,2.03,5.36,2.10,-2.10,-2.34,3.19,3.25,3.25
24,5.55,2.30,5.60,2.35,-2.35,-2.64,3.20,3.25,3.25
25,5.85,2.60,5.84,2.59,-2.59,-2.95,3.25,3.25,3.25
26,6.09,2.84,6.08,2.84,-2.84,-3.27,3.25,3.25,3.25
27,6.33,3.08,6.31,3.07,-3.07,-3.56,3.26,3.24,3.24
28,6.57,3.33,6.53,3.29,-3.29,-3.83,3.28,3.24,3.24
29,6.75,3.51,6.73,3.49,-3.49,-4.06,3.25,3.23,3.23
30,6.93,3.70,6.91,3.68,-3.68,-4.23,3.25,3.23,3.23
31,7.08,3.85,7.07,3.84,-3.84,-4.35,3.23,3.22,3.22
32,7.22,4.00,7.20,3.98,-3.98,-4.41,3.23,3.22,3.22
33,7.30,4.09,7.32,4.11,-4.11,-4.42,3.19,3.21,3.21
34,7.42,4.21,7.42,4.21,-4.21,-4.39,3.20,3.20,3.20
35,7.53,4.33,7.51,4.31,-4.31,-4.33,3.22,3.20,3.20
36,7.56,4.37,7.58,4.39,-4.39,-4.27,3.17,3.19,3.19
37,7.63,4.45,7.64,4.46,-4.46,-4.19,3.17,3.18,3.18
38,7.69,4.52,7.70,4.53,-4.53,-4.12,3.16,3.17,3.17
39,7.77,4.61,7.74,4.58,-4.58,-4.06,3.18,3.16,3.16
40,7.77,4.62,7.78,4.63,-4.63,-4.01,3.13,3.15,3.15
41,7.80,4.66,7.82,4.68,-4.68,-3.97,3.12,3.14,3.14
42,7.88,4.75,7.84,4.71,-4.71,-3.95,3.16,3.13,3.13
43,7.87,4.75,7.86,4.75,-4.75,-3.95,3.12,3.11,3.11
44,7.87,4.77,7.87,4.77,-4.77,-3.96,3.09,3.10,3.10
45,7.87,4.78,7.88,4.80,-4.80,-3.99,3.07,3.09,3.09
46,7.87,4.80,7.88,4.81,-4.81,-4.03,3.06,3.07,3.07
47,7.87,4.81,7.88,4.82,-4.82,-4.08,3.04,3.05,3.05
48,7.87,4.83,7.87,4.83,-4.83,-4.15,3.04,3.04,3.04
49,7.87,4.85,7.85,4.83,-4.83,-4.22,3.04,3.02,3.02
50,7.85,4.85,7.82,4.82,-4.82,-4.31,3.02,3.00,3.00
51,7.81,4.83,7.79,4.81,-4.81,-4.40,2.99,2.98,2.98
52,7.75,4.79,7.76,4.80,-4.80,-4.49,2.95,2.96,2.96
53,7.70,4.76,7.72,4.78,-4.78,-4.58,2.92,2.94,2.94
54,7.67,4.75,7.67,4.76,-4.76,-4.67,2.91,2.91,2.91
55,7.64,4.75,7.63,4.73,-4.73,-4.76,2.90,2.89,2.89
56,7.58,4.71,7.58,4.71,-4.71,-4.84,2.87,2.87,2.87
57,7.52,4.68,7.53,4.68,-4.68,-4.91,2.83,2.84,2.84
58,7.49,4.67,7.47,4.66,-4.66,-4.97,2.83,2.82,2.82
59,7.41,4.62,7.42,4.63,-4.63,-5.02,2.77,2.79,2.79
60,7.37,4.61,7.37,4.61,-4.61,-5.05,2.76,2.76,2.76
61,7.32,4.59,7.32,4.59,-4.59,-5.07,2.73,2.73,2.73
62,7.25,4.55,7.26,4.56,-4.56,-5.08,2.69,2.70,2.70
63,7.22,4.55,7.21,4.54,-4.54,-5.07,2.68,2.67,2.67
64,7.16,4.52,7.15,4.51,-4.51,-5.04,2.65,2.64,2.64
65,7.09,4.48,7.09,4.48,-4.48,-5.01,2.60,2.61,2.61
66,7.05,4.47,7.03,4.45,-4.45,-4.96,2.59,2.57,2.57
67,6.96,4.42,6.96,4.42,-4.42,-4.91,2.53,2.54,2.54
68,6.89,4.38,6.89,4.39,-4.39,-4.84,2.50,2.51,2.51
69,6.84,4.37,6.82,4.35,-4.35,-4.77,2.49,2.47,2.47
70,6.75,4.31,6.74,4.31,-4.31,-4.69,2.44,2.43,2.43
71,6.65,4.25,6.66,4.27,-4.27,-4.61,2.38,2.40,2.40
72,6.60,4.24,6.58,4.22,-4.22,-4.53,2.37,2.36,2.36
73,6.49,4.16,6.50,4.18,-4.18,-4.45,2.31,2.32,2.32
74,6.43,4.14,6.42,4.14,-4.14,-4.36,2.29,2.28,2.28
75,6.36,4.11,6.34,4.10,-4.10,-4.28,2.26,2.25,2.25
76,6.24,4.03,6.26,4.06,-4.06,-4.20,2.18,2.21,2.21
77,6.18,4.01,6.18,4.02,-4.02,-4.12,2.16,2.17,2.17
78,6.15,4.02,6.11,3.98,-3.98,-4.05,2.17,2.13,2.13
79,6.01,3.92,6.03,3.95,-3.95,-3.98,2.06,2.09,2.09
80,5.96,3.91,5.96,3.92,-3.92,-3.91,2.04,2.05,2.05
81,5.92,3.91,5.89,3.89,-3.89,-3.85,2.03,2.00,2.00
82,5.82,3.85,5.83,3.86,-3.86,-3.79,1.95,1.96,1.96
83,5.74,3.81,5.77,3.84,-3.84,-3.73,1.89,1.92,1.92
84,5.71,3.83,5.71,3.83,-3.83,-3.68,1.88,1.88,1.88
85,5.67,3.83,5.65,3.82,-3.82,-3.63,1.85,1.84,1.84
86,5.63,3.83,5.60,3.81,-3.81,-3.59,1.82,1.80,1.80
87,5.55,3.79,5.56,3.80,-3.80,-3.55,1.75,1.76,1.76
88,5.49,3.77,5.51,3.79,-3.79,-3.52,1.69,1.71,1.71
89,5.45,3.77,5.46,3.79,-3.79,-3.49,1.66,1.67,1.67
90,5.42,3.79,5.41,3.78,-3.78,-3.46,1.63,1.63,1.63
91,5.38,3.79,5.36,3.77,-3.77,-3.44,1.60,1.59,1.59
92,5.34,3.79,5.31,3.76,-3.76,-3.42,1.57,1.55,1.55
93,5.29,3.78,5.26,3.75,-3.75,-3.40,1.54,1.51,1.51
94,5.22,3.75,5.20,3.74,-3.74,-3.39,1.48,1.47,1.47
95,5.13,3.70,5.15,3.72,-3.72,-3.38,1.41,1.43,1.43
96,5.07,3.68,5.10,3.71,-3.71,-3.37,1.36,1.39,1.39
97,5.03,3.68,5.04,3.70,-3.70,-3.37,1.33,1.35,1.35
98,5.00,3.69,5.00,3.69,-3.69,-3.36,1.31,1.31,1.31
99,4.96,3.69,4.95,3.69,-3.69,-3.36,1.27,1.27,1.27
100,4.92,3.69,4.91,3.69,-3.69,-3.36,1.23,1.22,1.23
101,4.88,3.69,4.88,3.69,-3.69,-3.37,1.18,1.18,1.19
102,4.85,3.69,4.84,3.70,-3.70,-3.37,1.14,1.14,1.15
104,4.81,3.73,4.81,3.71,-3.71,-3.38,1.09,1.10,1.08
105,4.77,3.72,4.77,3.72,-3.72,-3.39,1.05,1.05,1.04
106,4.74,3.73,4.74,3.73,-3.73,-3.39,1.01,1.01,1.01
107,4.70,3.72,4.70,3.73,-3.73,-3.40,0.97,0.97,0.97
108,4.67,3.73,4.66,3.73,-3.73,-3.41,0.94,0.94,0.94
109,4.63,3.72,4.62,3.72,-3.72,-3.41,0.91,0.90,0.90
110,4.60,3.73,4.57,3.70,-3.70,-3.42,0.89,0.87,0.87
111,4.54,3.70,4.52,3.69,-3.69,-3.42,0.85,0.83,0.84
112,4.47,3.66,4.47,3.67,-3.67,-3.43,0.80,0.80,0.80
113,4.42,3.65,4.42,3.65,-3.65,-3.43,0.77,0.77,0.77
114,4.32,3.58,4.36,3.63,-3.63,-3.43,0.69,0.73,0.74
115,4.29,3.58,4.30,3.61,-3.61,-3.43,0.68,0.70,0.71
117,4.25,3.60,4.25,3.58,-3.58,-3.43,0.66,0.66,0.65
118,4.22,3.60,4.19,3.56,-3.56,-3.42,0.66,0.63,0.62
119,4.16,3.57,4.12,3.53,-3.53,-3.41,0.62,0.59,0.59
120,4.06,3.50,4.06,3.50,-3.50,-3.40,0.55,0.56,0.56
121,3.98,3.44,3.99,3.47,-3.47,-3.39,0.51,0.52,0.53
123,3.91,3.43,3.92,3.44,-3.44,-3.36,0.47,0.49,0.48
124,3.85,3.39,3.85,3.40,-3.40,-3.34,0.45,0.46,0.45
125,3.78,3.35,3.78,3.35,-3.35,-3.32,0.42,0.42,0.43
126,3.74,3.33,3.70,3.31,-3.31,-3.30,0.43,0.39,0.40
128,3.60,3.24,3.62,3.26,-3.26,-3.24,0.34,0.36,0.35
129,3.53,3.20,3.54,3.20,-3.20,-3.21,0.32,0.33,0.33
130,3.47,3.16,3.45,3.15,-3.15,-3.18,0.32,0.30,0.31
131,3.37,3.08,3.36,3.08,-3.08,-3.15,0.28,0.28,0.28
133,3.26,3.02,3.27,3.02,-3.02,-3.07,0.24,0.25,0.24
134,3.17,2.95,3.17,2.95,-2.95,-3.03,0.22,0.22,0.22
135,3.10,2.90,3.07,2.88,-2.88,-2.99,0.22,0.19,0.20
137,2.94,2.78,2.97,2.81,-2.81,-2.91,0.13,0.16,0.16
138,2.86,2.72,2.87,2.73,-2.73,-2.86,0.13,0.14,0.14
140,2.79,2.68,2.76,2.65,-2.65,-2.77,0.14,0.11,0.10
141,2.64,2.55,2.65,2.56,-2.56,-2.73,0.08,0.09,0.09
142,2.56,2.49,2.53,2.47,-2.47,-2.68,0.09,0.06,0.07
144,2.41,2.37,2.41,2.38,-2.38,-2.58,0.03,0.04,0.03
145,2.30,2.28,2.29,2.28,-2.28,-2.53,0.02,0.01,0.02
147,2.17,2.18,2.17,2.18,-2.18,-2.44,-0.01,-0.01,-0.01
148,2.06,2.09,2.05,2.08,-2.08,-2.39,-0.02,-0.03,-0.03
150,1.91,1.97,1.92,1.98,-1.98,-2.29,-0.07,-0.05,-0.06
151,1.81,1.88,1.80,1.87,-1.87,-2.24,-0.07,-0.08,-0.07
153,1.66,1.76,1.68,1.77,-1.77,-2.14,-0.12,-0.10,-0.10
154,1.57,1.68,1.56,1.68,-1.68,-2.10,-0.11,-0.12,-0.11
156,1.47,1.61,1.45,1.58,-1.58,-2.00,-0.12,-0.14,-0.14
157,1.36,1.51,1.34,1.50,-1.50,-1.95,-0.14,-0.15,-0.15
159,1.22,1.39,1.24,1.42,-1.42,-1.86,-0.20,-0.17,-0.17
160,1.15,1.33,1.15,1.34,-1.34,-1.82,-0.20,-0.19,-0.19
162,1.06,1.27,1.07,1.28,-1.28,-1.73,-0.22,-0.21,-0.21
164,0.97,1.20,1.00,1.23,-1.23,-1.64,-0.26,-0.23,-0.23
165,0.94,1.18,0.94,1.18,-1.18,-1.60,-0.24,-0.24,-0.24
167,0.90,1.16,0.88,1.14,-1.14,-1.51,-0.24,-0.26,-0.26
169,0.85,1.12,0.83,1.10,-1.10,-1.43,-0.26,-0.27,-0.28
170,0.80,1.08,0.78,1.07,-1.07,-1.39,-0.27,-0.29,-0.29
172,0.74,1.04,0.73,1.04,-1.04,-1.31,-0.30,-0.30,-0.30
174,0.68,1.00,0.68,1.00,-1.00,-1.23,-0.32,-0.32,-0.32
175,0.64,0.97,0.63,0.96,-0.96,-1.20,-0.33,-0.33,-0.33
177,0.59,0.93,0.58,0.93,-0.93,-1.12,-0.34,-0.35,-0.34
179,0.54,0.90,0.53,0.89,-0.89,-1.05,-0.36,-0.36,-0.36
181,0.48,0.85,0.49,0.86,-0.86,-0.98,-0.38,-0.37,-0.37
183,0.43,0.81,0.44,0.82,-0.82,-0.91,-0.40,-0.38,-0.39
184,0.39,0.78,0.40,0.79,-0.79,-0.88,-0.40,-0.40,-0.39
186,0.35,0.75,0.35,0.76,-0.76,-0.81,-0.41,-0.41,-0.41
188,0.31,0.73,0.31,0.73,-0.73,-0.75,-0.42,-0.42,-0.42
190,0.26,0.69,0.26,0.69,-0.69,-0.68,-0.43,-0.43,-0.43
192,0.24,0.68,0.21,0.65,-0.65,-0.62,-0.42,-0.44,-0.44
194,0.20,0.65,0.16,0.61,-0.61,-0.56,-0.41,-0.45,-0.45
196,0.10,0.56,0.10,0.56,-0.56,-0.50,-0.47,-0.46,-0.46
198,0.01,0.48,0.04,0.51,-0.51,-0.45,-0.50,-0.47,-0.47
200,-0.02,0.46,-0.02,0.46,-0.46,-0.39,-0.48,-0.48,-0.48
202,-0.06,0.43,-0.09,0.40,-0.40,-0.34,-0.46,-0.49,-0.49
204,-0.15,0.34,-0.15,0.34,-0.34,-0.28,-0.50,-0.50,-0.50
206,-0.23,0.27,-0.22,0.29,-0.29,-0.23,-0.52,-0.51,-0.51
208,-0.28,0.23,-0.28,0.24,-0.24,-0.18,-0.52,-0.51,-0.51
210,-0.32,0.20,-0.33,0.19,-0.19,-0.13,-0.51,-0.52,-0.52
212,-0.37,0.16,-0.38,0.15,-0.15,-0.09,-0.52,-0.53,-0.53
214,-0.45,0.08,-0.42,0.11,-0.11,-0.04,-0.57,-0.54,-0.53
216,-0.48,0.06,-0.46,0.08,-0.08,0.00,-0.57,-0.54,-0.54
218,-0.50,0.04,-0.49,0.06,-0.06,0.05,-0.57,-0.55,-0.55
221,-0.51,0.04,-0.51,0.04,-0.04,0.11,-0.56,-0.56,-0.56
223,-0.52,0.04,-0.54,0.03,-0.03,0.15,-0.55,-0.56,-0.56
225,-0.54,0.02,-0.56,0.01,-0.01,0.19,-0.55,-0.57,-0.57
227,-0.55,0.02,-0.59,-0.01,0.01,0.23,-0.54,-0.57,-0.57
229,-0.59,-0.01,-0.62,-0.04,0.04,0.26,-0.55,-0.58,-0.58
232,-0.69,-0.11,-0.65,-0.07,0.07,0.31,-0.62,-0.58,-0.59
234,-0.70,-0.11,-0.69,-0.10,0.10,0.34,-0.60,-0.59,-0.59
236,-0.72,-0.13,-0.73,-0.14,0.14,0.38,-0.58,-0.60,-0.59
239,-0.76,-0.16,-0.78,-0.18,0.18,0.42,-0.59,-0.60,-0.60
241,-0.80,-0.20,-0.82,-0.21,0.21,0.45,-0.59,-0.60,-0.60
244,-0.88,-0.27,-0.86,-0.25,0.25,0.49,-0.64,-0.61,-0.61
246,-0.91,-0.30,-0.89,-0.28,0.28,0.51,-0.63,-0.61,-0.61
248,-0.93,-0.32,-0.93,-0.31,0.31,0.53,-0.62,-0.62,-0.62
251,-0.95,-0.33,-0.96,-0.34,0.34,0.57,-0.61,-0.62,-0.62
253,-1.00,-0.38,-1.00,-0.37,0.37,0.59,-0.63,-0.63,-0.63
256,-1.03,-0.40,-1.03,-0.40,0.40,0.61,-0.64,-0.63,-0.63
259,-1.03,-0.40,-1.06,-0.42,0.42,0.64,-0.61,-0.63,-0.63
261,-1.06,-0.43,-1.09,-0.45,0.45,0.66,-0.61,-0.64,-0.64
264,-1.14,-0.50,-1.12,-0.48,0.48,0.68,-0.67,-0.64,-0.64
266,-1.17,-0.53,-1.15,-0.50,0.50,0.69,-0.67,-0.64,-0.64
269,-1.18,-0.54,-1.17,-0.53,0.53,0.71,-0.66,-0.65,-0.65
272,-1.18,-0.53,-1.20,-0.55,0.55,0.73,-0.63,-0.65,-0.65
274,-1.18,-0.53,-1.23,-0.58,0.58,0.74,-0.60,-0.65,-0.65
277,-1.29,-0.64,-1.26,-0.61,0.61,0.75,-0.69,-0.66,-0.66
280,-1.32,-0.66,-1.29,-0.63,0.63,0.77,-0.69,-0.66,-0.66
283,-1.32,-0.66,-1.32,-0.66,0.66,0.78,-0.66,-0.66,-0.66
286,-1.32,-0.66,-1.36,-0.69,0.69,0.79,-0.63,-0.66,-0.66
288,-1.37,-0.71,-1.39,-0.72,0.72,0.80,-0.65,-0.67,-0.67
291,-1.46,-0.79,-1.42,-0.75,0.75,0.81,-0.71,-0.67,-0.67
294,-1.47,-0.80,-1.46,-0.79,0.79,0.83,-0.69,-0.67,-0.67
297,-1.47,-0.80,-1.49,-0.82,0.82,0.84,-0.65,-0.67,-0.67
300,-1.50,-0.83,-1.53,-0.85,0.85,0.85,-0.65,-0.68,-0.68
303,-1.56,-0.89,-1.56,-0.88,0.88,0.86,-0.68,-0.68,-0.68
306,-1.61,-0.93,-1.60,-0.92,0.92,0.87,-0.70,-0.68,-0.68
309,-1.62,-0.94,-1.63,-0.95,0.95,0.88,-0.67,-0.68,-0.68
312,-1.68,-1.00,-1.67,-0.98,0.98,0.89,-0.70,-0.68,-0.68
316,-1.70,-1.02,-1.70,-1.02,1.02,0.91,-0.69,-0.69,-0.69
319,-1.73,-1.05,-1.74,-1.05,1.05,0.92,-0.68,-0.69,-0.69
322,-1.77,-1.08,-1.77,-1.08,1.08,0.93,-0.69,-0.69,-0.69
325,-1.80,-1.11,-1.80,-1.11,1.11,0.95,-0.69,-0.69,-0.69
328,-1.83,-1.14,-1.84,-1.14,1.14,0.96,-0.69,-0.69,-0.69
332,-1.86,-1.17,-1.87,-1.18,1.18,0.98,-0.68,-0.69,-0.69
335,-1.90,-1.21,-1.91,-1.22,1.22,1.00,-0.69,-0.69,-0.69
338,-1.96,-1.27,-1.95,-1.25,1.25,1.01,-0.71,-0.70,-0.70
342,-1.97,-1.28,-1.99,-1.29,1.29,1.03,-0.68,-0.70,-0.70
345,-2.00,-1.31,-2.03,-1.33,1.33,1.05,-0.67,-0.70,-0.70
349,-2.11,-1.41,-2.07,-1.37,1.37,1.07,-0.74,-0.70,-0.70
352,-2.12,-1.42,-2.11,-1.41,1.41,1.09,-0.71,-0.70,-0.70
356,-2.13,-1.43,-2.15,-1.45,1.45,1.11,-0.68,-0.70,-0.70
359,-2.16,-1.46,-2.19,-1.49,1.49,1.13,-0.68,-0.70,-0.70
363,-2.27,-1.57,-2.22,-1.52,1.52,1.16,-0.75,-0.70,-0.70
366,-2.27,-1.57,-2.25,-1.55,1.55,1.18,-0.73,-0.71,-0.71
370,-2.27,-1.57,-2.28,-1.57,1.57,1.21,-0.70,-0.71,-0.71
374,-2.28,-1.57,-2.30,-1.59,1.59,1.23,-0.69,-0.71,-0.71
377,-2.31,-1.60,-2.32,-1.61,1.61,1.26,-0.70,-0.71,-0.71
381,-2.32,-1.61,-2.34,-1.63,1.63,1.29,-0.70,-0.71,-0.71
385,-2.36,-1.65,-2.35,-1.64,1.64,1.32,-0.72,-0.71,-0.71
389,-2.38,-1.67,-2.36,-1.65,1.65,1.35,-0.73,-0.71,-0.71
393,-2.38,-1.67,-2.38,-1.66,1.66,1.38,-0.72,-0.72,-0.72
397,-2.38,-1.67,-2.39,-1.67,1.67,1.41,-0.71,-0.72,-0.72
401,-2.38,-1.67,-2.39,-1.68,1.68,1.44,-0.71,-0.72,-0.72
405,-2.38,-1.66,-2.40,-1.68,1.68,1.47,-0.70,-0.72,-0.72
409,-2.41,-1.69,-2.41,-1.69,1.69,1.50,-0.73,-0.72,-0.72
413,-2.41,-1.69,-2.41,-1.69,1.69,1.53,-0.72,-0.72,-0.72
417,-2.42,-1.70,-2.42,-1.69,1.69,1.57,-0.73,-0.72,-0.72
421,-2.42,-1.70,-2.42,-1.70,1.70,1.60,-0.73,-0.72,-0.72
425,-2.42,-1.70,-2.42,-1.70,1.70,1.63,-0.73,-0.72,-0.72
430,-2.42,-1.70,-2.42,-1.70,1.70,1.67,-0.72,-0.72,-0.72
434,-2.42,-1.70,-2.42,-1.70,1.70,1.69,-0.72,-0.72,-0.72
438,-2.39,-1.68,-2.42,-1.70,1.70,1.72,-0.69,-0.72,-0.72
443,-2.40,-1.69,-2.42,-1.70,1.70,1.76,-0.70,-0.71,-0.71
447,-2.40,-1.69,-2.42,-1.71,1.71,1.79,-0.70,-0.71,-0.71
451,-2.41,-1.71,-2.41,-1.71,1.71,1.81,-0.71,-0.71,-0.71
456,-2.42,-1.72,-2.41,-1.71,1.71,1.84,-0.72,-0.70,-0.70
460,-2.42,-1.73,-2.40,-1.70,1.70,1.87,-0.72,-0.69,-0.69
465,-2.41,-1.73,-2.38,-1.69,1.69,1.89,-0.72,-0.69,-0.69
470,-2.38,-1.70,-2.36,-1.68,1.68,1.92,-0.70,-0.68,-0.68
474,-2.35,-1.68,-2.35,-1.68,1.68,1.94,-0.68,-0.67,-0.67
479,-2.31,-1.65,-2.34,-1.68,1.68,1.96,-0.64,-0.66,-0.66
484,-2.31,-1.66,-2.33,-1.68,1.68,1.98,-0.63,-0.65,-0.65
489,-2.31,-1.68,-2.34,-1.70,1.70,1.99,-0.61,-0.64,-0.64
494,-2.30,-1.68,-2.35,-1.73,1.73,2.01,-0.57,-0.62,-0.62
499,-2.36,-1.75,-2.38,-1.77,1.77,2.02,-0.59,-0.61,-0.61
504,-2.43,-1.84,-2.42,-1.83,1.83,2.03,-0.60,-0.59,-0.59
509,-2.49,-1.91,-2.47,-1.89,1.89,2.04,-0.60,-0.58,-0.58
514,-2.54,-1.98,-2.52,-1.96,1.96,2.04,-0.58,-0.56,-0.56
519,-2.55,-2.01,-2.57,-2.03,2.03,2.05,-0.52,-0.54,-0.54
524,-2.58,-2.06,-2.62,-2.09,2.09,2.05,-0.49,-0.52,-0.52
529,-2.64,-2.14,-2.65,-2.15,2.15,2.05,-0.50,-0.50,-0.50
535,-2.70,-2.22,-2.67,-2.19,2.19,2.05,-0.51,-0.48,-0.48
540,-2.72,-2.26,-2.67,-2.21,2.21,2.04,-0.51,-0.46,-0.46
545,-2.72,-2.29,-2.66,-2.22,2.22,2.04,-0.50,-0.44,-0.44
551,-2.64,-2.23,-2.63,-2.21,2.21,2.03,-0.43,-0.41,-0.41
556,-2.58,-2.20,-2.58,-2.19,2.19,2.03,-0.39,-0.39,-0.39
562,-2.51,-2.15,-2.52,-2.16,2.16,2.02,-0.35,-0.36,-0.36
568,-2.41,-2.08,-2.47,-2.13,2.13,2.01,-0.28,-0.33,-0.33
573,-2.38,-2.08,-2.41,-2.10,2.10,2.01,-0.28,-0.31,-0.31
579,-2.38,-2.10,-2.36,-2.08,2.08,2.00,-0.31,-0.28,-0.28
585,-2.31,-2.06,-2.32,-2.07,2.07,1.99,-0.25,-0.25,-0.25
591,-2.27,-2.05,-2.29,-2.07,2.07,1.98,-0.21,-0.22,-0.22
596,-2.26,-2.07,-2.27,-2.08,2.08,1.97,-0.18,-0.19,-0.19
602,-2.21,-2.05,-2.27,-2.11,2.11,1.96,-0.10,-0.16,-0.16
608,-2.24,-2.11,-2.28,-2.15,2.15,1.96,-0.09,-0.13,-0.13
615,-2.30,-2.21,-2.30,-2.20,2.20,1.95,-0.10,-0.10,-0.10
621,-2.32,-2.26,-2.32,-2.25,2.25,1.94,-0.07,-0.06,-0.06
627,-2.35,-2.32,-2.33,-2.30,2.30,1.94,-0.06,-0.03,-0.03
633,-2.36,-2.37,-2.33,-2.33,2.33,1.93,-0.03,0.00,0.00
639,-2.34,-2.38,-2.32,-2.35,2.35,1.93,0.01,0.04,0.04
646,-2.30,-2.37,-2.29,-2.36,2.36,1.93,0.05,0.07,0.07
652,-2.25,-2.36,-2.24,-2.34,2.34,1.93,0.09,0.11,0.11
659,-2.19,-2.33,-2.17,-2.32,2.32,1.93,0.12,0.14,0.14
665,-2.11,-2.29,-2.10,-2.27,2.27,1.93,0.16,0.18,0.18
672,-2.00,-2.22,-2.01,-2.22,2.22,1.94,0.22,0.21,0.21
679,-1.88,-2.13,-1.92,-2.17,2.17,1.94,0.29,0.25,0.25
686,-1.80,-2.09,-1.83,-2.11,2.11,1.95,0.31,0.29,0.29
692,-1.71,-2.04,-1.74,-2.06,2.06,1.96,0.35,0.32,0.32
699,-1.65,-2.02,-1.65,-2.01,2.01,1.97,0.36,0.36,0.36
706,-1.55,-1.95,-1.56,-1.96,1.96,1.98,0.41,0.40,0.40
713,-1.48,-1.92,-1.47,-1.91,1.91,1.99,0.43,0.44,0.44
721,-1.39,-1.87,-1.39,-1.87,1.87,2.01,0.47,0.48,0.48
728,-1.32,-1.84,-1.31,-1.82,1.82,2.03,0.50,0.51,0.51
735,-1.24,-1.80,-1.22,-1.77,1.77,2.04,0.53,0.55,0.55
742,-1.12,-1.71,-1.14,-1.73,1.73,2.06,0.60,0.59,0.59
750,-1.04,-1.67,-1.05,-1.68,1.68,2.08,0.64,0.63,0.63
757,-0.98,-1.65,-0.97,-1.64,1.64,2.11,0.65,0.67,0.67
765,-0.88,-1.59,-0.89,-1.59,1.59,2.13,0.71,0.70,0.70
773,-0.78,-1.52,-0.81,-1.55,1.55,2.16,0.77,0.74,0.74
780,-0.73,-1.51,-0.74,-1.51,1.51,2.18,0.78,0.78,0.78
788,-0.67,-1.48,-0.66,-1.47,1.47,2.21,0.80,0.81,0.81
796,-0.61,-1.46,-0.59,-1.44,1.44,2.24,0.82,0.85,0.85
804,-0.52,-1.40,-0.52,-1.40,1.40,2.27,0.87,0.88,0.88
812,-0.43,-1.35,-0.44,-1.36,1.36,2.30,0.93,0.91,0.91
820,-0.37,-1.32,-0.37,-1.32,1.32,2.32,0.95,0.95,0.95
828,-0.31,-1.29,-0.30,-1.28,1.28,2.35,0.97,0.98,0.98
837,-0.23,-1.25,-0.23,-1.24,1.24,2.39,1.01,1.01,1.01
845,-0.15,-1.20,-0.16,-1.20,1.20,2.41,1.05,1.04,1.04
853,-0.09,-1.17,-0.09,-1.17,1.17,2.44,1.07,1.07,1.07
862,-0.02,-1.13,-0.03,-1.14,1.14,2.47,1.12,1.10,1.10
871,0.02,-1.12,0.02,-1.12,1.12,2.50,1.13,1.13,1.13
879,0.07,-1.10,0.06,-1.10,1.10,2.52,1.17,1.16,1.16
888,0.10,-1.10,0.09,-1.10,1.10,2.54,1.20,1.19,1.19
897,0.13,-1.09,0.12,-1.10,1.10,2.56,1.23,1.22,1.22
906,0.15,-1.10,0.13,-1.12,1.12,2.58,1.26,1.25,1.25
915,0.18,-1.10,0.14,-1.14,1.14,2.60,1.31,1.28,1.28
924,0.10,-1.21,0.14,-1.16,1.16,2.61,1.26,1.30,1.30
933,0.09,-1.24,0.13,-1.19,1.19,2.62,1.28,1.33,1.33
943,0.11,-1.25,0.13,-1.23,1.23,2.62,1.34,1.36,1.36
952,0.14,-1.25,0.11,-1.27,1.27,2.62,1.41,1.38,1.38
962,0.12,-1.29,0.10,-1.31,1.31,2.62,1.43,1.41,1.41
971,0.09,-1.35,0.08,-1.36,1.36,2.61,1.45,1.44,1.44
981,0.05,-1.42,0.05,-1.41,1.41,2.60,1.46,1.46,1.46
991,0.03,-1.46,0.01,-1.48,1.48,2.58,1.50,1.49,1.49
1001,-0.00,-1.52,-0.02,-1.54,1.54,2.56,1.54,1.52,1.52
1011,-0.07,-1.62,-0.07,-1.61,1.61,2.53,1.54,1.54,1.54
1021,-0.13,-1.70,-0.11,-1.68,1.68,2.50,1.55,1.57,1.57
1031,-0.15,-1.75,-0.15,-1.75,1.75,2.46,1.60,1.60,1.60
1041,-0.18,-1.81,-0.19,-1.82,1.82,2.42,1.64,1.63,1.63
1052,-0.26,-1.92,-0.23,-1.88,1.88,2.37,1.62,1.65,1.65
1062,-0.27,-1.96,-0.26,-1.94,1.94,2.32,1.67,1.68,1.68
1073,-0.26,-1.97,-0.29,-2.00,2.00,2.26,1.73,1.71,1.71
1084,-0.31,-2.05,-0.31,-2.05,2.05,2.20,1.74,1.74,1.74
1094,-0.34,-2.11,-0.33,-2.10,2.10,2.14,1.75,1.77,1.77
1105,-0.31,-2.11,-0.34,-2.14,2.14,2.07,1.83,1.80,1.80
1116,-0.36,-2.19,-0.36,-2.19,2.19,2.00,1.82,1.83,1.83
1128,-0.38,-2.24,-0.37,-2.23,2.23,1.92,1.85,1.86,1.86
1139,-0.36,-2.25,-0.38,-2.27,2.27,1.84,1.91,1.89,1.89
1150,-0.36,-2.28,-0.38,-2.31,2.31,1.76,1.94,1.92,1.92
1162,-0.39,-2.35,-0.39,-2.34,2.34,1.68,1.95,1.95,1.95
1173,-0.39,-2.38,-0.38,-2.37,2.37,1.60,1.97,1.98,1.98
1185,-0.39,-2.41,-0.37,-2.39,2.39,1.51,2.00,2.02,2.02
1197,-0.37,-2.42,-0.36,-2.41,2.41,1.42,2.03,2.05,2.05
1209,-0.34,-2.42,-0.34,-2.42,2.42,1.33,2.07,2.08,2.08
1221,-0.31,-2.43,-0.31,-2.43,2.43,1.24,2.11,2.11,2.11
1233,-0.24,-2.39,-0.28,-2.43,2.43,1.15,2.19,2.15,2.15
1246,-0.24,-2.42,-0.25,-2.43,2.43,1.05,2.19,2.18,2.18
1258,-0.21,-2.43,-0.21,-2.43,2.43,0.96,2.22,2.21,2.21
1271,-0.17,-2.42,-0.17,-2.42,2.42,0.86,2.25,2.25,2.25
1283,-0.13,-2.42,-0.13,-2.41,2.41,0.77,2.28,2.28,2.28
1296,-0.06,-2.38,-0.08,-2.40,2.40,0.68,2.33,2.32,2.32
1309,-0.05,-2.41,-0.02,-2.37,2.37,0.58,2.32,2.35,2.35
1322,-0.00,-2.39,0.05,-2.34,2.34,0.48,2.34,2.39,2.39
1335,0.10,-2.33,0.12,-2.31,2.31,0.39,2.41,2.43,2.43
1349,0.22,-2.24,0.19,-2.27,2.27,0.29,2.49,2.46,2.46
1362,0.30,-2.20,0.27,-2.23,2.23,0.19,2.53,2.50,2.50
1376,0.38,-2.16,0.34,-2.19,2.19,0.09,2.57,2.54,2.54
1390,0.47,-2.11,0.42,-2.16,2.16,-0.01,2.63,2.57,2.57
1404,0.52,-2.09,0.49,-2.12,2.12,-0.11,2.64,2.61,2.61
1418,0.58,-2.07,0.57,-2.08,2.08,-0.20,2.65,2.65,2.65
1432,0.63,-2.06,0.67,-2.02,2.02,-0.30,2.65,2.69,2.69
1446,0.77,-1.96,0.78,-1.95,1.95,-0.40,2.72,2.73,2.73
1461,0.86,-1.91,0.91,-1.86,1.86,-0.50,2.72,2.77,2.77
1475,1.01,-1.80,1.06,-1.75,1.75,-0.60,2.75,2.81,2.81
1490,1.21,-1.64,1.24,-1.61,1.61,-0.70,2.81,2.85,2.85
1505,1.45,-1.44,1.45,-1.44,1.44,-0.80,2.89,2.89,2.89
1520,1.68,-1.25,1.67,-1.26,1.26,-0.90,2.94,2.93,2.93
1535,1.90,-1.07,1.90,-1.07,1.07,-0.99,2.97,2.97,2.97
1550,2.16,-0.86,2.14,-0.87,0.87,-1.09,3.03,3.01,3.01
1566,2.44,-0.62,2.38,-0.67,0.67,-1.19,3.11,3.06,3.06
1582,2.66,-0.44,2.63,-0.47,0.47,-1.29,3.13,3.10,3.10
1597,2.86,-0.29,2.86,-0.28,0.28,-1.39,3.14,3.14,3.14
1613,3.08,-0.11,3.09,-0.09,0.09,-1.48,3.17,3.19,3.19
1629,3.30,0.07,3.32,0.09,-0.09,-1.58,3.21,3.23,3.23
1646,3.59,0.31,3.54,0.26,-0.26,-1.68,3.32,3.27,3.27
1662,3.77,0.45,3.76,0.44,-0.44,-1.77,3.33,3.32,3.32
1679,3.99,0.62,3.98,0.62,-0.62,-1.86,3.37,3.37,3.37
1696,4.20,0.79,4.21,0.80,-0.80,-1.95,3.40,3.41,3.41
1713,4.40,0.94,4.44,0.98,-0.98,-2.04,3.41,3.46,3.46
1730,4.67,1.16,4.68,1.18,-1.18,-2.13,3.49,3.51,3.51
1747,4.91,1.35,4.93,1.37,-1.37,-2.21,3.54,3.55,3.55
1764,5.14,1.53,5.18,1.57,-1.57,-2.28,3.57,3.60,3.60
1782,5.43,1.77,5.43,1.77,-1.77,-2.36,3.66,3.65,3.65
1800,5.72,2.01,5.67,1.97,-1.97,-2.43,3.75,3.71,3.71
1818,5.96,2.20,5.91,2.15,-2.15,-2.50,3.80,3.76,3.76
1836,6.17,2.35,6.15,2.33,-2.33,-2.56,3.84,3.82,3.82
1854,6.38,2.50,6.37,2.50,-2.50,-2.61,3.88,3.87,3.87
