frequency,raw
20.00,5.83
20.20,5.84
20.40,5.85
20.61,5.86
20.81,5.87
21.02,5.88
21.23,5.90
21.44,5.92
21.66,5.94
21.87,5.96
22.09,5.97
22.31,5.97
22.54,5.97
22.76,5.97
22.99,5.97
23.22,5.97
23.45,5.97
23.69,5.97
23.92,5.97
24.16,5.97
24.40,5.97
24.65,5.97
24.89,5.97
25.14,5.97
25.39,5.98
25.65,5.99
25.91,6.00
26.16,6.00
26.43,6.01
26.69,6.01
26.96,6.02
27.23,6.02
27.50,6.02
27.77,6.02
28.05,6.02
28.33,6.04
28.62,6.05
28.90,6.07
29.19,6.07
29.48,6.07
29.78,6.07
30.08,6.07
30.38,6.07
30.68,6.07
30.99,6.07
31.30,6.08
31.61,6.09
31.93,6.11
32.24,6.11
32.57,6.11
32.89,6.11
33.22,6.11
33.55,6.11
33.89,6.11
34.23,6.11
34.57,6.11
34.92,6.11
35.27,6.11
35.62,6.11
35.97,6.11
36.33,6.11
36.70,6.11
37.06,6.11
37.43,6.11
37.81,6.11
38.19,6.11
38.57,6.11
38.95,6.11
39.34,6.11
39.74,6.11
40.14,6.11
40.54,6.11
40.94,6.11
41.35,6.11
41.76,6.11
42.18,6.11
42.60,6.11
43.03,6.11
43.46,6.11
43.90,6.11
44.33,6.11
44.78,6.11
45.23,6.11
45.68,6.11
46.13,6.11
46.60,6.09
47.06,6.08
47.53,6.07
48.01,6.07
48.49,6.06
48.97,6.04
49.46,6.04
49.96,6.04
50.46,6.04
50.96,6.04
51.47,6.04
51.99,6.04
52.51,6.04
53.03,6.04
53.56,6.04
54.10,6.04
54.64,6.04
55.18,6.04
55.74,6.03
56.29,6.02
56.86,6.02
57.42,6.00
58.00,5.97
58.58,5.96
59.16,5.95
59.76,5.93
60.35,5.92
60.96,5.89
61.57,5.88
62.18,5.88
62.80,5.88
63.43,5.88
64.07,5.88
64.71,5.87
65.35,5.85
66.01,5.83
66.67,5.83
67.33,5.83
68.01,5.83
68.69,5.83
69.37,5.81
70.07,5.79
70.77,5.79
71.48,5.79
72.19,5.79
72.91,5.79
73.64,5.76
74.38,5.74
75.12,5.73
75.87,5.70
76.63,5.69
77.40,5.69
78.17,5.68
78.95,5.65
79.74,5.65
80.54,5.62
81.35,5.60
82.16,5.60
82.98,5.60
83.81,5.56
84.65,5.55
85.50,5.53
86.35,5.51
87.22,5.51
88.09,5.51
88.97,5.46
89.86,5.46
90.76,5.42
91.66,5.41
92.58,5.40
93.51,5.38
94.44,5.37
95.39,5.35
96.34,5.32
97.30,5.31
98.28,5.28
99.26,5.26
100.25,5.24
101.25,5.22
102.27,5.17
103.29,5.15
104.32,5.14
105.37,5.12
106.42,5.09
107.48,5.07
108.56,5.04
109.64,5.01
110.74,4.99
111.85,4.96
112.97,4.95
114.10,4.90
115.24,4.89
116.39,4.87
117.55,4.85
118.73,4.85
119.92,4.81
121.12,4.80
122.33,4.77
123.55,4.74
124.79,4.70
126.03,4.67
127.29,4.64
128.57,4.60
129.85,4.57
131.15,4.54
132.46,4.52
133.79,4.49
135.12,4.46
136.48,4.44
137.84,4.40
139.22,4.37
140.61,4.34
142.02,4.32
143.44,4.30
144.87,4.26
146.32,4.24
147.78,4.21
149.26,4.17
150.75,4.15
152.26,4.12
153.78,4.08
155.32,4.05
156.88,4.01
158.44,3.98
160.03,3.97
161.63,3.93
163.24,3.89
164.88,3.85
166.53,3.83
168.19,3.80
169.87,3.76
171.57,3.73
173.29,3.69
175.02,3.65
176.77,3.61
178.54,3.56
180.32,3.52
182.13,3.48
183.95,3.43
185.79,3.39
187.65,3.36
189.52,3.32
191.42,3.27
193.33,3.23
195.27,3.20
197.22,3.15
199.19,3.11
201.18,3.08
203.19,3.05
205.23,3.01
207.28,2.97
209.35,2.95
211.44,2.91
213.56,2.88
215.69,2.83
217.85,2.79
220.03,2.75
222.23,2.71
224.45,2.65
226.70,2.61
228.96,2.57
231.25,2.52
233.57,2.48
235.90,2.43
238.26,2.39
240.64,2.35
243.05,2.33
245.48,2.30
247.93,2.29
250.41,2.24
252.92,2.20
255.45,2.14
258.00,2.10
260.58,2.05
263.19,2.00
265.82,1.96
268.48,1.91
271.16,1.87
273.87,1.82
276.61,1.79
279.38,1.76
282.17,1.72
284.99,1.68
287.84,1.64
290.72,1.59
293.63,1.55
296.57,1.52
299.53,1.48
302.53,1.44
305.55,1.39
308.61,1.34
311.69,1.28
314.81,1.23
317.96,1.18
321.14,1.13
324.35,1.08
327.59,1.03
330.87,0.99
334.18,0.95
337.52,0.91
340.90,0.87
344.30,0.83
347.75,0.79
351.23,0.74
354.74,0.70
358.28,0.66
361.87,0.61
365.49,0.57
369.14,0.51
372.83,0.46
376.56,0.42
380.33,0.38
384.13,0.32
387.97,0.27
391.85,0.23
395.77,0.20
399.73,0.17
403.72,0.14
407.76,0.11
411.84,0.08
415.96,0.06
420.12,0.02
424.32,0.00
428.56,0.00
432.85,0.00
437.18,-0.03
441.55,-0.04
445.96,-0.04
450.42,-0.04
454.93,-0.08
459.48,-0.10
464.07,-0.13
468.71,-0.17
473.40,-0.18
478.13,-0.22
482.91,-0.24
487.74,-0.27
492.62,-0.31
497.55,-0.35
502.52,-0.37
507.55,-0.41
512.62,-0.43
517.75,-0.45
522.93,-0.48
528.16,-0.51
533.44,-0.55
538.77,-0.56
544.16,-0.59
549.60,-0.60
555.10,-0.64
560.65,-0.66
566.25,-0.69
571.92,-0.72
577.64,-0.74
583.41,-0.78
589.25,-0.80
595.14,-0.83
601.09,-0.87
607.10,-0.89
613.17,-0.92
619.30,-0.94
625.50,-0.97
631.75,-0.98
638.07,-1.01
644.45,-1.02
650.89,-1.03
657.40,-1.06
663.98,-1.07
670.62,-1.08
677.32,-1.11
684.10,-1.12
690.94,-1.12
697.85,-1.12
704.83,-1.12
711.87,-1.15
718.99,-1.16
726.18,-1.16
733.44,-1.16
740.78,-1.16
748.19,-1.16
755.67,-1.16
763.23,-1.16
770.86,-1.16
778.57,-1.16
786.35,-1.16
794.22,-1.15
802.16,-1.13
810.18,-1.08
818.28,-1.06
826.46,-1.03
834.73,-1.01
843.08,-0.98
851.51,-0.94
860.02,-0.91
868.62,-0.87
877.31,-0.82
886.08,-0.78
894.94,-0.72
903.89,-0.67
912.93,-0.61
922.06,-0.58
931.28,-0.52
940.59,-0.46
950.00,-0.40
959.50,-0.33
969.09,-0.25
978.78,-0.17
988.57,-0.09
998.46,-0.01
1008.44,0.08
1018.53,0.16
1028.71,0.23
1039.00,0.32
1049.39,0.42
1059.88,0.52
1070.48,0.61
1081.19,0.71
1092.00,0.80
1102.92,0.91
1113.95,1.02
1125.09,1.12
1136.34,1.23
1147.70,1.34
1159.18,1.45
1170.77,1.56
1182.48,1.68
1194.30,1.80
1206.25,1.93
1218.31,2.05
1230.49,2.17
1242.80,2.30
1255.22,2.41
1267.78,2.55
1280.45,2.67
1293.26,2.78
1306.19,2.91
1319.25,3.03
1332.45,3.16
1345.77,3.27
1359.23,3.38
1372.82,3.49
1386.55,3.60
1400.41,3.72
1414.42,3.85
1428.56,3.97
1442.85,4.09
1457.28,4.21
1471.85,4.36
1486.57,4.48
1501.43,4.62
1516.45,4.77
1531.61,4.93
1546.93,5.05
1562.40,5.18
1578.02,5.29
1593.80,5.42
1609.74,5.55
1625.84,5.67
1642.10,5.80
1658.52,5.92
1675.10,6.05
1691.85,6.17
1708.77,6.30
1725.86,6.43
1743.12,6.54
1760.55,6.67
1778.15,6.80
1795.94,6.93
1813.90,7.07
1832.03,7.21
1850.36,7.34
1868.86,7.49
1887.55,7.60
1906.42,7.75
1925.49,7.87
1944.74,8.02
1964.19,8.16
1983.83,8.29
2003.67,8.42
2023.71,8.53
2043.94,8.66
2064.38,8.79
2085.03,8.90
2105.88,9.01
2126.94,9.12
2148.20,9.21
2169.69,9.29
2191.38,9.37
2213.30,9.45
2235.43,9.52
2257.78,9.59
2280.36,9.67
2303.17,9.72
2326.20,9.78
2349.46,9.80
2372.95,9.83
2396.68,9.86
2420.65,9.88
2444.86,9.93
2469.31,9.95
2494.00,9.97
2518.94,10.00
2544.13,10.01
2569.57,9.99
2595.27,9.98
2621.22,9.98
2647.43,9.98
2673.90,9.98
2700.64,9.96
2727.65,9.94
2754.93,9.93
2782.48,9.89
2810.30,9.83
2838.40,9.80
2866.79,9.75
2895.46,9.69
2924.41,9.66
2953.65,9.61
2983.19,9.58
3013.02,9.54
3043.15,9.50
3073.58,9.46
3104.32,9.43
3135.36,9.39
3166.72,9.34
3198.38,9.31
3230.37,9.26
3262.67,9.23
3295.30,9.18
3328.25,9.14
3361.53,9.09
3395.15,9.05
3429.10,9.01
3463.39,8.97
3498.03,8.94
3533.01,8.88
3568.34,8.85
3604.02,8.80
3640.06,8.77
3676.46,8.73
3713.22,8.69
3750.36,8.65
3787.86,8.63
3825.74,8.60
3864.00,8.56
3902.64,8.53
3941.66,8.49
3981.08,8.46
4020.89,8.43
4061.10,8.40
4101.71,8.36
4142.73,8.33
4184.15,8.31
4226.00,8.25
4268.26,8.22
4310.94,8.17
4354.05,8.12
4397.59,8.06
4441.56,7.98
4485.98,7.91
4530.84,7.81
4576.15,7.73
4621.91,7.62
4668.13,7.52
4714.81,7.39
4761.96,7.24
4809.58,7.12
4857.67,6.96
4906.25,6.80
4955.31,6.65
5004.87,6.49
5054.91,6.31
5105.46,6.15
5156.52,5.96
5208.08,5.80
5260.16,5.64
5312.77,5.47
5365.89,5.31
5419.55,5.14
5473.75,4.98
5528.49,4.83
5583.77,4.71
5639.61,4.60
5696.00,4.51
5752.96,4.43
5810.49,4.35
5868.60,4.28
5927.28,4.20
5986.56,4.14
6046.42,4.10
6106.89,4.05
6167.96,3.99
6229.64,3.97
6291.93,3.97
6354.85,3.99
6418.40,4.03
6482.58,4.09
6547.41,4.20
6612.88,4.34
6679.01,4.52
6745.80,4.73
6813.26,4.97
6881.39,5.24
6950.21,5.52
7019.71,5.82
7089.91,6.15
7160.81,6.52
7232.41,6.89
7304.74,7.26
7377.79,7.61
7451.56,7.93
7526.08,8.17
7601.34,8.38
7677.35,8.49
7754.13,8.49
7831.67,8.39
7909.98,8.17
7989.08,7.89
8068.98,7.52
8149.67,7.07
8231.16,6.53
8313.47,5.97
8396.61,5.35
8480.57,4.72
8565.38,4.10
8651.03,3.49
8737.54,2.91
8824.92,2.34
8913.17,1.78
9002.30,1.21
9092.32,0.63
9183.25,0.04
9275.08,-0.58
9367.83,-1.22
9461.51,-1.88
9556.12,-2.58
9651.68,-3.29
9748.20,-4.02
9845.68,-4.80
9944.14,-5.57
10043.58,-6.31
10144.02,-7.05
10245.46,-7.77
10347.91,-8.46
10451.39,-9.07
10555.91,-9.67
10661.46,-10.19
10768.08,-10.63
10875.76,-11.04
10984.52,-11.40
11094.36,-11.73
11205.31,-12.00
11317.36,-12.21
11430.53,-12.35
11544.84,-12.42
11660.29,-12.43
11776.89,-12.38
11894.66,-12.30
12013.60,-12.23
12133.74,-12.13
12255.08,-12.06
12377.63,-11.98
12501.41,-11.91
12626.42,-11.83
12752.68,-11.72
12880.21,-11.58
13009.01,-11.43
13139.10,-11.19
13270.49,-10.91
13403.20,-10.58
13537.23,-10.13
13672.60,-9.53
13809.33,-8.84
13947.42,-8.01
14086.90,-7.09
14227.77,-6.09
14370.04,-5.18
14513.74,-4.41
14658.88,-3.83
14805.47,-3.48
14953.52,-3.50
15103.06,-3.79
15254.09,-4.33
15406.63,-5.14
15560.70,-6.29
15716.30,-7.65
15873.47,-9.20
16032.20,-10.88
16192.52,-12.52
16354.45,-14.15
16517.99,-15.76
16683.17,-16.99
16850.01,-17.86
17018.51,-18.64
17188.69,-19.41
17360.58,-20.17
17534.18,-20.93
17709.53,-21.69
17886.62,-22.45
18065.49,-23.22
18246.14,-23.98
18428.60,-24.75
18612.89,-25.50
18799.02,-26.27
18987.01,-27.03
19176.88,-27.80
19368.65,-28.56
19562.33,-29.32
19757.96,-30.08
19955.54,-30.84
