frequency,raw,error,smoothed,error_smoothed,equalization,parametric_eq,equalized_raw,equalized_smoothed,target
20,-6.76,-8.59,-6.79,-8.61,6.00,1.97,-0.76,-0.79,1.83
21,-6.37,-8.20,-6.33,-8.15,6.00,2.28,-0.37,-0.33,1.83
22,-5.91,-7.74,-5.88,-7.71,6.00,2.61,0.09,0.12,1.83
23,-5.45,-7.27,-5.44,-7.27,6.00,2.98,0.55,0.56,1.83
24,-5.00,-6.82,-5.02,-6.85,6.00,3.37,1.00,0.98,1.82
25,-4.60,-6.42,-4.61,-6.43,5.91,3.77,1.32,1.30,1.82
26,-4.22,-6.03,-4.21,-6.03,5.74,4.16,1.52,1.52,1.82
27,-3.83,-5.64,-3.83,-5.64,5.48,4.52,1.65,1.66,1.82
28,-3.45,-5.26,-3.45,-5.26,5.18,4.84,1.74,1.73,1.81
29,-3.09,-4.89,-3.09,-4.90,4.87,5.07,1.78,1.78,1.81
30,-2.74,-4.54,-2.74,-4.54,4.54,5.21,1.80,1.80,1.80
31,-2.40,-4.19,-2.40,-4.20,4.20,5.24,1.80,1.80,1.80
32,-2.07,-3.86,-2.08,-3.87,3.87,5.16,1.80,1.79,1.79
33,-1.75,-3.53,-1.77,-3.55,3.55,4.97,1.80,1.78,1.78
34,-1.46,-3.23,-1.47,-3.24,3.24,4.71,1.78,1.77,1.78
35,-1.18,-2.95,-1.18,-2.94,2.94,4.40,1.77,1.77,1.77
36,-0.91,-2.67,-0.90,-2.66,2.66,4.05,1.75,1.76,1.76
37,-0.65,-2.40,-0.63,-2.38,2.38,3.68,1.73,1.75,1.75
38,-0.38,-2.12,-0.37,-2.10,2.10,3.30,1.73,1.74,1.74
39,-0.12,-1.85,-0.11,-1.84,1.84,2.93,1.73,1.73,1.73
40,0.12,-1.60,0.13,-1.59,1.59,2.57,1.71,1.72,1.72
41,0.37,-1.34,0.37,-1.34,1.34,2.21,1.71,1.71,1.71
42,0.60,-1.10,0.60,-1.10,1.10,1.87,1.70,1.69,1.70
43,0.80,-0.88,0.82,-0.86,0.86,1.54,1.67,1.68,1.69
44,1.02,-0.65,1.04,-0.63,0.63,1.22,1.66,1.67,1.67
45,1.25,-0.40,1.24,-0.41,0.41,0.92,1.67,1.66,1.66
46,1.46,-0.18,1.44,-0.20,0.20,0.62,1.66,1.64,1.64
47,1.64,0.02,1.64,0.01,-0.01,0.34,1.63,1.63,1.63
48,1.81,0.20,1.82,0.21,-0.21,0.07,1.60,1.61,1.61
49,1.98,0.39,1.99,0.40,-0.40,-0.20,1.58,1.59,1.59
50,2.15,0.58,2.16,0.59,-0.59,-0.45,1.57,1.57,1.57
51,2.31,0.76,2.32,0.77,-0.77,-0.69,1.55,1.55,1.55
52,2.47,0.94,2.47,0.94,-0.94,-0.92,1.54,1.53,1.53
53,2.60,1.09,2.61,1.10,-1.10,-1.14,1.50,1.51,1.51
54,2.74,1.26,2.74,1.26,-1.26,-1.35,1.49,1.49,1.49
55,2.87,1.41,2.87,1.40,-1.40,-1.54,1.47,1.46,1.46
56,2.99,1.55,2.98,1.54,-1.54,-1.72,1.45,1.44,1.44
57,3.09,1.68,3.09,1.68,-1.68,-1.88,1.42,1.41,1.41
58,3.19,1.81,3.19,1.81,-1.81,-2.03,1.39,1.39,1.39
59,3.28,1.92,3.28,1.93,-1.93,-2.15,1.36,1.36,1.36
60,3.37,2.04,3.37,2.04,-2.04,-2.26,1.33,1.33,1.33
61,3.44,2.14,3.45,2.15,-2.15,-2.36,1.29,1.30,1.30
62,3.50,2.23,3.52,2.25,-2.25,-2.43,1.25,1.27,1.27
63,3.56,2.32,3.58,2.35,-2.35,-2.49,1.22,1.23,1.24
64,3.62,2.41,3.64,2.44,-2.44,-2.53,1.19,1.20,1.21
65,3.67,2.49,3.69,2.52,-2.52,-2.56,1.15,1.17,1.18
66,3.71,2.57,3.74,2.60,-2.60,-2.57,1.12,1.14,1.15
67,3.75,2.64,3.77,2.67,-2.67,-2.57,1.09,1.10,1.11
68,3.80,2.73,3.79,2.72,-2.72,-2.56,1.08,1.07,1.08
69,3.80,2.76,3.80,2.77,-2.77,-2.54,1.04,1.04,1.04
70,3.80,2.80,3.80,2.79,-2.79,-2.52,1.01,1.01,1.01
71,3.80,2.83,3.78,2.80,-2.80,-2.49,1.00,0.98,0.97
72,3.75,2.82,3.73,2.79,-2.79,-2.45,0.96,0.94,0.93
73,3.70,2.81,3.67,2.76,-2.76,-2.42,0.94,0.91,0.90
74,3.63,2.78,3.58,2.72,-2.72,-2.38,0.92,0.87,0.86
75,3.54,2.73,3.48,2.66,-2.66,-2.34,0.89,0.82,0.82
76,3.40,2.62,3.36,2.58,-2.58,-2.29,0.82,0.77,0.78
77,3.27,2.53,3.22,2.50,-2.50,-2.25,0.77,0.72,0.74
78,3.10,2.40,3.08,2.41,-2.41,-2.21,0.69,0.67,0.70
79,2.94,2.28,2.94,2.32,-2.32,-2.17,0.63,0.62,0.66
80,2.75,2.14,2.80,2.23,-2.23,-2.13,0.52,0.57,0.62
81,2.60,2.03,2.68,2.15,-2.15,-2.10,0.46,0.53,0.58
82,2.46,1.93,2.56,2.08,-2.08,-2.06,0.39,0.49,0.54
83,2.36,1.87,2.46,2.02,-2.02,-2.03,0.35,0.44,0.50
84,2.26,1.81,2.37,1.97,-1.97,-2.00,0.29,0.40,0.45
85,2.22,1.81,2.30,1.93,-1.93,-1.97,0.29,0.36,0.41
86,2.19,1.82,2.23,1.90,-1.90,-1.95,0.29,0.33,0.37
87,2.19,1.87,2.17,1.88,-1.88,-1.93,0.32,0.30,0.33
88,2.15,1.87,2.12,1.85,-1.85,-1.91,0.30,0.26,0.29
89,2.13,1.89,2.05,1.82,-1.82,-1.89,0.31,0.23,0.25
90,2.07,1.87,1.98,1.78,-1.78,-1.87,0.30,0.20,0.20
91,1.97,1.81,1.89,1.73,-1.73,-1.86,0.25,0.17,0.16
92,1.88,1.76,1.79,1.67,-1.67,-1.85,0.22,0.13,0.12
93,1.74,1.66,1.68,1.60,-1.60,-1.84,0.15,0.09,0.08
94,1.59,1.55,1.55,1.51,-1.51,-1.83,0.08,0.04,0.04
95,1.43,1.43,1.42,1.42,-1.42,-1.83,0.01,-0.01,0.00
96,1.24,1.28,1.27,1.33,-1.33,-1.82,-0.09,-0.06,-0.04
97,1.09,1.17,1.13,1.24,-1.24,-1.82,-0.14,-0.11,-0.08
98,0.94,1.06,0.99,1.15,-1.15,-1.82,-0.20,-0.15,-0.12
99,0.81,0.97,0.87,1.07,-1.07,-1.82,-0.25,-0.20,-0.16
100,0.71,0.91,0.76,1.00,-1.00,-1.82,-0.29,-0.24,-0.20
101,0.63,0.87,0.67,0.95,-0.95,-1.82,-0.32,-0.28,-0.24
102,0.57,0.85,0.60,0.92,-0.92,-1.82,-0.35,-0.32,-0.27
104,0.50,0.85,0.55,0.91,-0.91,-1.83,-0.41,-0.36,-0.35
105,0.50,0.89,0.52,0.92,-0.92,-1.84,-0.41,-0.40,-0.38
106,0.48,0.90,0.51,0.94,-0.94,-1.84,-0.46,-0.43,-0.42
107,0.50,0.96,0.52,0.98,-0.98,-1.84,-0.48,-0.46,-0.45
108,0.51,1.00,0.54,1.03,-1.03,-1.85,-0.52,-0.49,-0.49
109,0.55,1.08,0.56,1.09,-1.09,-1.85,-0.53,-0.53,-0.52
110,0.59,1.15,0.59,1.15,-1.15,-1.86,-0.55,-0.56,-0.56
111,0.63,1.23,0.62,1.21,-1.21,-1.86,-0.58,-0.59,-0.59
112,0.67,1.30,0.65,1.27,-1.27,-1.86,-0.59,-0.62,-0.62
113,0.70,1.36,0.66,1.32,-1.32,-1.87,-0.62,-0.66,-0.66
114,0.72,1.41,0.67,1.37,-1.37,-1.87,-0.64,-0.69,-0.69
115,0.72,1.44,0.67,1.40,-1.40,-1.87,-0.68,-0.73,-0.72
117,0.71,1.49,0.67,1.43,-1.43,-1.86,-0.72,-0.77,-0.78
118,0.67,1.48,0.65,1.46,-1.46,-1.86,-0.78,-0.81,-0.81
119,0.65,1.49,0.63,1.47,-1.47,-1.86,-0.82,-0.84,-0.84
120,0.60,1.47,0.60,1.48,-1.48,-1.85,-0.88,-0.88,-0.87
121,0.56,1.46,0.57,1.49,-1.49,-1.85,-0.93,-0.92,-0.89
123,0.50,1.45,0.55,1.50,-1.50,-1.83,-1.00,-0.95,-0.95
124,0.46,1.44,0.52,1.51,-1.51,-1.82,-1.04,-0.99,-0.97
125,0.46,1.46,0.50,1.52,-1.52,-1.80,-1.06,-1.02,-1.00
126,0.46,1.49,0.49,1.54,-1.54,-1.79,-1.07,-1.05,-1.02
128,0.46,1.54,0.48,1.56,-1.56,-1.76,-1.10,-1.08,-1.07
129,0.46,1.56,0.48,1.59,-1.59,-1.74,-1.13,-1.11,-1.10
130,0.48,1.60,0.49,1.63,-1.63,-1.72,-1.14,-1.14,-1.12
131,0.50,1.65,0.50,1.67,-1.67,-1.70,-1.16,-1.16,-1.14
133,0.52,1.71,0.52,1.71,-1.71,-1.66,-1.18,-1.19,-1.19
134,0.55,1.76,0.54,1.75,-1.75,-1.64,-1.20,-1.21,-1.21
135,0.55,1.78,0.56,1.79,-1.79,-1.61,-1.24,-1.23,-1.23
137,0.59,1.86,0.57,1.83,-1.83,-1.56,-1.24,-1.26,-1.27
138,0.59,1.88,0.59,1.87,-1.87,-1.53,-1.28,-1.29,-1.29
140,0.59,1.92,0.59,1.91,-1.91,-1.48,-1.31,-1.31,-1.32
141,0.59,1.94,0.60,1.94,-1.94,-1.45,-1.34,-1.34,-1.34
142,0.59,1.95,0.59,1.95,-1.95,-1.42,-1.36,-1.36,-1.36
144,0.59,1.99,0.58,1.97,-1.97,-1.37,-1.37,-1.39,-1.39
145,0.56,1.97,0.56,1.97,-1.97,-1.34,-1.41,-1.41,-1.41
147,0.55,1.99,0.53,1.96,-1.96,-1.28,-1.41,-1.43,-1.44
148,0.51,1.97,0.49,1.95,-1.95,-1.25,-1.44,-1.46,-1.46
150,0.45,1.94,0.45,1.93,-1.93,-1.19,-1.48,-1.48,-1.49
151,0.42,1.92,0.40,1.91,-1.91,-1.16,-1.48,-1.51,-1.50
153,0.34,1.87,0.34,1.88,-1.88,-1.10,-1.53,-1.53,-1.53
154,0.31,1.85,0.29,1.84,-1.84,-1.08,-1.53,-1.56,-1.54
156,0.20,1.77,0.23,1.81,-1.81,-1.02,-1.60,-1.58,-1.57
157,0.16,1.74,0.17,1.77,-1.77,-0.99,-1.61,-1.60,-1.58
159,0.06,1.67,0.11,1.74,-1.74,-0.93,-1.67,-1.63,-1.60
160,0.02,1.64,0.06,1.70,-1.70,-0.91,-1.68,-1.64,-1.61
162,-0.04,1.60,0.01,1.67,-1.67,-0.85,-1.70,-1.66,-1.64
164,-0.11,1.55,-0.04,1.62,-1.62,-0.80,-1.73,-1.66,-1.66
165,-0.13,1.54,-0.10,1.57,-1.57,-0.77,-1.70,-1.67,-1.67
167,-0.17,1.52,-0.17,1.51,-1.51,-0.72,-1.68,-1.69,-1.69
169,-0.22,1.49,-0.25,1.45,-1.45,-0.67,-1.67,-1.70,-1.70
170,-0.26,1.46,-0.35,1.38,-1.38,-0.64,-1.63,-1.73,-1.71
172,-0.34,1.40,-0.46,1.30,-1.30,-0.59,-1.63,-1.75,-1.73
174,-0.46,1.29,-0.57,1.21,-1.21,-0.55,-1.67,-1.78,-1.75
175,-0.57,1.19,-0.68,1.12,-1.12,-0.52,-1.68,-1.80,-1.76
177,-0.73,1.05,-0.79,1.03,-1.03,-0.48,-1.76,-1.82,-1.77
179,-0.95,0.84,-0.89,0.94,-0.94,-0.43,-1.89,-1.84,-1.79
181,-1.11,0.69,-0.99,0.87,-0.87,-0.39,-1.97,-1.86,-1.80
183,-1.26,0.56,-1.07,0.80,-0.80,-0.34,-2.06,-1.87,-1.81
184,-1.31,0.51,-1.14,0.75,-0.75,-0.32,-2.05,-1.89,-1.82
186,-1.36,0.48,-1.20,0.70,-0.70,-0.28,-2.05,-1.90,-1.83
188,-1.31,0.54,-1.24,0.66,-0.66,-0.24,-1.97,-1.90,-1.85
190,-1.25,0.61,-1.27,0.64,-0.64,-0.20,-1.88,-1.91,-1.86
192,-1.23,0.64,-1.29,0.62,-0.62,-0.16,-1.85,-1.91,-1.87
194,-1.19,0.69,-1.31,0.61,-0.61,-0.12,-1.79,-1.91,-1.88
196,-1.22,0.67,-1.31,0.60,-0.60,-0.08,-1.81,-1.91,-1.89
198,-1.25,0.65,-1.32,0.58,-0.58,-0.04,-1.82,-1.90,-1.90
200,-1.30,0.61,-1.34,0.56,-0.56,-0.01,-1.85,-1.90,-1.91
202,-1.36,0.56,-1.38,0.53,-0.53,0.03,-1.88,-1.90,-1.92
204,-1.43,0.50,-1.42,0.49,-0.49,0.06,-1.92,-1.92,-1.92
206,-1.50,0.44,-1.48,0.45,-0.45,0.10,-1.95,-1.93,-1.93
208,-1.57,0.37,-1.55,0.40,-0.40,0.13,-1.96,-1.95,-1.94
210,-1.65,0.30,-1.63,0.34,-0.34,0.16,-1.99,-1.97,-1.95
212,-1.73,0.23,-1.70,0.28,-0.28,0.19,-2.01,-1.98,-1.96
214,-1.79,0.18,-1.77,0.22,-0.22,0.23,-2.01,-1.99,-1.96
216,-1.86,0.12,-1.83,0.16,-0.16,0.26,-2.02,-1.99,-1.97
218,-1.91,0.07,-1.89,0.11,-0.11,0.29,-2.01,-2.00,-1.98
221,-1.99,0.00,-1.94,0.05,-0.05,0.33,-2.04,-2.00,-1.99
223,-2.02,-0.02,-2.00,-0.00,0.00,0.36,-2.02,-2.00,-1.99
225,-2.07,-0.07,-2.06,-0.06,0.06,0.38,-2.01,-2.00,-1.99
227,-2.11,-0.11,-2.12,-0.12,0.12,0.41,-1.99,-2.00,-2.00
229,-2.16,-0.16,-2.18,-0.19,0.19,0.43,-1.97,-1.99,-1.99
232,-2.23,-0.23,-2.25,-0.26,0.26,0.47,-1.97,-1.99,-2.00
234,-2.27,-0.27,-2.32,-0.34,0.34,0.49,-1.93,-1.98,-1.99
236,-2.36,-0.37,-2.40,-0.42,0.42,0.51,-1.93,-1.98,-1.99
239,-2.47,-0.48,-2.49,-0.51,0.51,0.55,-1.96,-1.98,-1.98
241,-2.56,-0.58,-2.58,-0.60,0.60,0.57,-1.95,-1.98,-1.97
244,-2.69,-0.72,-2.68,-0.70,0.70,0.59,-1.99,-1.98,-1.96
246,-2.77,-0.81,-2.77,-0.79,0.79,0.61,-1.97,-1.97,-1.95
248,-2.85,-0.90,-2.85,-0.88,0.88,0.63,-1.96,-1.97,-1.94
251,-2.98,-1.04,-2.93,-0.97,0.97,0.65,-2.01,-1.96,-1.93
253,-3.04,-1.12,-3.00,-1.05,1.05,0.67,-1.99,-1.95,-1.92
256,-3.14,-1.23,-3.06,-1.12,1.12,0.69,-2.02,-1.94,-1.91
259,-3.18,-1.28,-3.11,-1.18,1.18,0.71,-2.00,-1.93,-1.90
261,-3.18,-1.29,-3.15,-1.23,1.23,0.73,-1.95,-1.92,-1.89
264,-3.18,-1.30,-3.18,-1.27,1.27,0.74,-1.90,-1.90,-1.88
266,-3.18,-1.31,-3.20,-1.31,1.31,0.76,-1.86,-1.89,-1.87
269,-3.18,-1.32,-3.22,-1.35,1.35,0.77,-1.83,-1.87,-1.86
272,-3.22,-1.37,-3.23,-1.38,1.38,0.79,-1.83,-1.85,-1.85
274,-3.22,-1.38,-3.25,-1.42,1.42,0.80,-1.80,-1.83,-1.83
277,-3.25,-1.43,-3.27,-1.46,1.46,0.81,-1.79,-1.81,-1.82
280,-3.29,-1.48,-3.29,-1.50,1.50,0.83,-1.78,-1.79,-1.80
283,-3.32,-1.53,-3.32,-1.55,1.55,0.84,-1.76,-1.77,-1.78
286,-3.36,-1.59,-3.36,-1.61,1.61,0.86,-1.75,-1.75,-1.76
288,-3.39,-1.64,-3.41,-1.67,1.67,0.87,-1.71,-1.73,-1.74
291,-3.43,-1.71,-3.46,-1.75,1.75,0.88,-1.68,-1.71,-1.72
294,-3.49,-1.79,-3.51,-1.82,1.82,0.89,-1.67,-1.69,-1.70
297,-3.55,-1.87,-3.56,-1.89,1.89,0.91,-1.65,-1.67,-1.68
300,-3.61,-1.95,-3.62,-1.97,1.97,0.92,-1.64,-1.65,-1.66
303,-3.65,-2.01,-3.67,-2.03,2.03,0.94,-1.62,-1.64,-1.63
306,-3.70,-2.08,-3.71,-2.08,2.08,0.95,-1.61,-1.62,-1.62
309,-3.73,-2.13,-3.73,-2.12,2.12,0.97,-1.61,-1.62,-1.60
312,-3.74,-2.16,-3.74,-2.13,2.13,0.98,-1.61,-1.61,-1.58
316,-3.74,-2.17,-3.73,-2.12,2.12,1.00,-1.62,-1.61,-1.56
319,-3.74,-2.19,-3.69,-2.08,2.08,1.02,-1.65,-1.60,-1.54
322,-3.67,-2.14,-3.61,-2.02,2.02,1.03,-1.65,-1.59,-1.53
325,-3.60,-2.09,-3.49,-1.92,1.92,1.05,-1.68,-1.58,-1.51
328,-3.49,-2.00,-3.34,-1.78,1.78,1.07,-1.70,-1.56,-1.49
332,-3.27,-1.80,-3.16,-1.63,1.63,1.10,-1.64,-1.53,-1.47
335,-3.08,-1.63,-2.95,-1.45,1.45,1.11,-1.63,-1.50,-1.44
338,-2.85,-1.42,-2.73,-1.26,1.26,1.13,-1.59,-1.47,-1.42
342,-2.53,-1.13,-2.51,-1.07,1.07,1.16,-1.46,-1.44,-1.40
345,-2.28,-0.90,-2.29,-0.89,0.89,1.18,-1.39,-1.41,-1.38
349,-1.98,-0.62,-2.09,-0.72,0.72,1.21,-1.26,-1.37,-1.35
352,-1.78,-0.44,-1.92,-0.58,0.58,1.24,-1.20,-1.34,-1.33
356,-1.58,-0.26,-1.78,-0.47,0.47,1.27,-1.11,-1.31,-1.31
359,-1.48,-0.18,-1.68,-0.39,0.39,1.29,-1.09,-1.29,-1.30
363,-1.47,-0.19,-1.62,-0.35,0.35,1.32,-1.12,-1.27,-1.28
366,-1.51,-0.24,-1.61,-0.35,0.35,1.35,-1.16,-1.26,-1.27
370,-1.63,-0.37,-1.63,-0.38,0.38,1.38,-1.25,-1.25,-1.25
374,-1.74,-0.50,-1.69,-0.44,0.44,1.42,-1.29,-1.25,-1.24
377,-1.84,-0.61,-1.78,-0.53,0.53,1.45,-1.30,-1.25,-1.22
381,-1.95,-0.73,-1.89,-0.64,0.64,1.48,-1.30,-1.24,-1.21
385,-2.08,-0.88,-2.01,-0.77,0.77,1.52,-1.31,-1.24,-1.20
389,-2.19,-1.00,-2.12,-0.89,0.89,1.56,-1.29,-1.23,-1.19
393,-2.29,-1.11,-2.24,-1.01,1.01,1.59,-1.27,-1.23,-1.18
397,-2.38,-1.21,-2.34,-1.13,1.13,1.63,-1.25,-1.21,-1.17
401,-2.46,-1.29,-2.43,-1.23,1.23,1.67,-1.22,-1.20,-1.16
405,-2.52,-1.36,-2.51,-1.32,1.32,1.71,-1.19,-1.19,-1.16
409,-2.59,-1.44,-2.58,-1.41,1.41,1.74,-1.18,-1.17,-1.15
413,-2.64,-1.49,-2.64,-1.48,1.48,1.78,-1.16,-1.16,-1.15
417,-2.69,-1.54,-2.69,-1.54,1.54,1.82,-1.15,-1.15,-1.14
421,-2.74,-1.60,-2.73,-1.59,1.59,1.85,-1.14,-1.14,-1.14
425,-2.76,-1.62,-2.77,-1.64,1.64,1.89,-1.12,-1.13,-1.13
430,-2.80,-1.67,-2.80,-1.68,1.68,1.93,-1.12,-1.12,-1.13
434,-2.83,-1.70,-2.83,-1.71,1.71,1.96,-1.12,-1.12,-1.12
438,-2.86,-1.74,-2.85,-1.74,1.74,1.99,-1.11,-1.11,-1.12
443,-2.88,-1.77,-2.87,-1.77,1.77,2.03,-1.10,-1.10,-1.11
447,-2.88,-1.78,-2.89,-1.80,1.80,2.06,-1.08,-1.09,-1.10
451,-2.92,-1.83,-2.91,-1.82,1.82,2.09,-1.09,-1.08,-1.09
456,-2.92,-1.84,-2.92,-1.85,1.85,2.12,-1.07,-1.07,-1.07
460,-2.92,-1.86,-2.93,-1.87,1.87,2.14,-1.05,-1.06,-1.06
465,-2.93,-1.88,-2.94,-1.89,1.89,2.17,-1.03,-1.05,-1.04
470,-2.96,-1.93,-2.95,-1.91,1.91,2.19,-1.04,-1.04,-1.03
474,-2.96,-1.94,-2.95,-1.93,1.93,2.20,-1.03,-1.02,-1.01
479,-2.96,-1.96,-2.95,-1.95,1.95,2.22,-1.01,-1.01,-1.00
484,-2.96,-1.97,-2.95,-1.96,1.96,2.23,-1.00,-0.99,-0.99
489,-2.96,-1.98,-2.95,-1.97,1.97,2.23,-0.98,-0.98,-0.97
494,-2.96,-2.00,-2.95,-1.99,1.99,2.24,-0.97,-0.96,-0.96
499,-2.96,-2.01,-2.95,-2.00,2.00,2.24,-0.96,-0.95,-0.95
504,-2.94,-2.00,-2.94,-2.01,2.01,2.24,-0.93,-0.94,-0.93
509,-2.92,-2.00,-2.93,-2.02,2.02,2.23,-0.90,-0.92,-0.92
514,-2.92,-2.01,-2.93,-2.02,2.02,2.22,-0.89,-0.90,-0.90
519,-2.92,-2.03,-2.91,-2.03,2.03,2.20,-0.88,-0.88,-0.89
524,-2.92,-2.05,-2.90,-2.04,2.04,2.19,-0.88,-0.86,-0.87
529,-2.88,-2.03,-2.89,-2.05,2.05,2.17,-0.83,-0.84,-0.85
535,-2.88,-2.05,-2.88,-2.05,2.05,2.14,-0.82,-0.82,-0.82
540,-2.88,-2.08,-2.86,-2.06,2.06,2.12,-0.81,-0.80,-0.80
545,-2.85,-2.07,-2.84,-2.07,2.07,2.09,-0.78,-0.78,-0.78
551,-2.83,-2.07,-2.83,-2.07,2.07,2.06,-0.75,-0.75,-0.75
556,-2.81,-2.08,-2.81,-2.08,2.08,2.03,-0.73,-0.73,-0.73
562,-2.79,-2.08,-2.79,-2.08,2.08,1.99,-0.71,-0.71,-0.71
568,-2.76,-2.07,-2.76,-2.08,2.08,1.95,-0.68,-0.69,-0.68
573,-2.75,-2.09,-2.74,-2.08,2.08,1.91,-0.67,-0.66,-0.66
579,-2.71,-2.07,-2.72,-2.07,2.07,1.87,-0.63,-0.64,-0.64
585,-2.70,-2.08,-2.69,-2.07,2.07,1.83,-0.63,-0.63,-0.62
591,-2.66,-2.05,-2.66,-2.06,2.06,1.78,-0.60,-0.61,-0.60
596,-2.65,-2.06,-2.64,-2.05,2.05,1.75,-0.60,-0.59,-0.59
602,-2.62,-2.04,-2.61,-2.03,2.03,1.70,-0.58,-0.58,-0.57
608,-2.57,-2.01,-2.58,-2.02,2.02,1.66,-0.55,-0.56,-0.56
615,-2.55,-2.00,-2.55,-2.00,2.00,1.61,-0.55,-0.55,-0.55
621,-2.52,-1.98,-2.51,-1.98,1.98,1.57,-0.53,-0.53,-0.53
627,-2.49,-1.97,-2.48,-1.96,1.96,1.53,-0.53,-0.52,-0.52
633,-2.44,-1.93,-2.44,-1.94,1.94,1.48,-0.50,-0.50,-0.51
639,-2.41,-1.91,-2.40,-1.91,1.91,1.44,-0.49,-0.49,-0.49
646,-2.36,-1.88,-2.36,-1.89,1.89,1.40,-0.47,-0.47,-0.48
652,-2.33,-1.86,-2.32,-1.86,1.86,1.36,-0.47,-0.46,-0.46
659,-2.28,-1.83,-2.27,-1.83,1.83,1.31,-0.45,-0.45,-0.45
665,-2.23,-1.79,-2.23,-1.80,1.80,1.28,-0.43,-0.43,-0.43
672,-2.19,-1.77,-2.18,-1.76,1.76,1.23,-0.42,-0.42,-0.42
679,-2.14,-1.73,-2.14,-1.73,1.73,1.19,-0.41,-0.41,-0.41
686,-2.09,-1.69,-2.09,-1.69,1.69,1.15,-0.39,-0.40,-0.39
692,-2.04,-1.65,-2.04,-1.66,1.66,1.12,-0.38,-0.39,-0.38
699,-2.00,-1.62,-2.00,-1.62,1.62,1.08,-0.38,-0.38,-0.38
706,-1.95,-1.58,-1.95,-1.58,1.58,1.05,-0.37,-0.37,-0.37
713,-1.91,-1.54,-1.91,-1.54,1.54,1.01,-0.37,-0.37,-0.37
721,-1.86,-1.49,-1.86,-1.50,1.50,0.98,-0.36,-0.36,-0.36
728,-1.82,-1.46,-1.81,-1.46,1.46,0.94,-0.36,-0.35,-0.36
735,-1.77,-1.41,-1.77,-1.42,1.42,0.91,-0.35,-0.35,-0.35
742,-1.73,-1.38,-1.72,-1.38,1.38,0.88,-0.35,-0.34,-0.35
750,-1.67,-1.32,-1.67,-1.33,1.33,0.85,-0.33,-0.34,-0.34
757,-1.64,-1.30,-1.62,-1.29,1.29,0.82,-0.35,-0.33,-0.33
765,-1.58,-1.25,-1.57,-1.25,1.25,0.79,-0.33,-0.32,-0.33
773,-1.52,-1.20,-1.52,-1.20,1.20,0.76,-0.31,-0.32,-0.32
780,-1.47,-1.16,-1.46,-1.15,1.15,0.73,-0.31,-0.31,-0.31
788,-1.41,-1.11,-1.41,-1.11,1.11,0.71,-0.30,-0.30,-0.30
796,-1.34,-1.05,-1.35,-1.06,1.06,0.68,-0.28,-0.29,-0.29
804,-1.30,-1.02,-1.29,-1.01,1.01,0.65,-0.29,-0.28,-0.28
812,-1.24,-0.96,-1.23,-0.95,0.95,0.63,-0.28,-0.28,-0.27
820,-1.17,-0.90,-1.17,-0.90,0.90,0.60,-0.27,-0.27,-0.26
828,-1.12,-0.86,-1.11,-0.84,0.84,0.58,-0.27,-0.27,-0.26
837,-1.04,-0.78,-1.05,-0.79,0.79,0.55,-0.25,-0.26,-0.26
845,-0.99,-0.73,-0.99,-0.73,0.73,0.53,-0.26,-0.26,-0.25
853,-0.94,-0.68,-0.93,-0.67,0.67,0.51,-0.27,-0.26,-0.25
862,-0.86,-0.60,-0.87,-0.61,0.61,0.48,-0.25,-0.26,-0.26
871,-0.81,-0.55,-0.81,-0.55,0.55,0.46,-0.26,-0.26,-0.26
879,-0.75,-0.49,-0.75,-0.49,0.49,0.44,-0.26,-0.26,-0.26
888,-0.69,-0.43,-0.69,-0.43,0.43,0.42,-0.26,-0.26,-0.26
897,-0.64,-0.38,-0.63,-0.37,0.37,0.39,-0.27,-0.26,-0.26
906,-0.56,-0.30,-0.57,-0.31,0.31,0.37,-0.24,-0.25,-0.26
915,-0.52,-0.26,-0.51,-0.26,0.26,0.35,-0.26,-0.25,-0.25
924,-0.46,-0.21,-0.45,-0.20,0.20,0.33,-0.25,-0.25,-0.25
933,-0.39,-0.14,-0.39,-0.15,0.15,0.30,-0.23,-0.24,-0.24
943,-0.34,-0.10,-0.33,-0.10,0.10,0.28,-0.23,-0.23,-0.24
952,-0.28,-0.05,-0.28,-0.05,0.05,0.26,-0.22,-0.22,-0.23
962,-0.21,0.01,-0.22,-0.01,0.01,0.23,-0.20,-0.21,-0.21
971,-0.17,0.03,-0.16,0.03,-0.03,0.21,-0.20,-0.20,-0.20
981,-0.11,0.07,-0.10,0.08,-0.08,0.19,-0.18,-0.18,-0.18
991,-0.04,0.12,-0.04,0.12,-0.12,0.16,-0.15,-0.16,-0.16
1001,0.00,0.14,0.02,0.16,-0.16,0.13,-0.15,-0.14,-0.14
1011,0.07,0.19,0.08,0.19,-0.19,0.11,-0.12,-0.12,-0.11
1021,0.13,0.22,0.14,0.23,-0.23,0.08,-0.10,-0.10,-0.09
1031,0.19,0.26,0.20,0.27,-0.27,0.06,-0.08,-0.07,-0.06
1041,0.26,0.30,0.26,0.31,-0.31,0.03,-0.04,-0.05,-0.04
1052,0.31,0.32,0.32,0.35,-0.35,0.00,-0.03,-0.02,-0.01
1062,0.37,0.36,0.39,0.38,-0.38,-0.03,-0.01,0.01,0.02
1073,0.44,0.40,0.45,0.41,-0.41,-0.06,0.03,0.04,0.05
1084,0.48,0.41,0.51,0.43,-0.43,-0.09,0.05,0.07,0.08
1094,0.52,0.42,0.56,0.45,-0.45,-0.11,0.08,0.11,0.11
1105,0.60,0.47,0.61,0.45,-0.45,-0.15,0.15,0.16,0.14
1116,0.64,0.48,0.64,0.44,-0.44,-0.18,0.20,0.20,0.17
1128,0.68,0.49,0.65,0.42,-0.42,-0.21,0.27,0.24,0.20
1139,0.71,0.48,0.65,0.38,-0.38,-0.24,0.33,0.27,0.23
1150,0.72,0.46,0.63,0.34,-0.34,-0.28,0.39,0.29,0.27
1162,0.71,0.41,0.60,0.28,-0.28,-0.31,0.43,0.32,0.30
1173,0.66,0.32,0.56,0.22,-0.22,-0.34,0.44,0.34,0.34
1185,0.61,0.23,0.52,0.17,-0.17,-0.38,0.45,0.36,0.38
1197,0.52,0.10,0.49,0.11,-0.11,-0.42,0.41,0.38,0.43
1209,0.46,-0.01,0.48,0.07,-0.07,-0.45,0.39,0.41,0.47
1221,0.37,-0.15,0.48,0.04,-0.04,-0.49,0.33,0.44,0.52
1233,0.33,-0.24,0.51,0.03,-0.03,-0.53,0.30,0.48,0.57
1246,0.40,-0.22,0.58,0.05,-0.05,-0.57,0.36,0.53,0.62
1258,0.51,-0.16,0.67,0.09,-0.09,-0.61,0.42,0.58,0.68
1271,0.70,-0.03,0.80,0.16,-0.16,-0.65,0.54,0.64,0.73
1283,0.90,0.11,0.96,0.25,-0.25,-0.69,0.65,0.71,0.79
1296,1.15,0.30,1.16,0.37,-0.37,-0.73,0.78,0.79,0.85
1309,1.42,0.51,1.37,0.50,-0.50,-0.78,0.92,0.87,0.92
1322,1.68,0.70,1.61,0.65,-0.65,-0.82,1.03,0.95,0.98
1335,1.91,0.87,1.85,0.81,-0.81,-0.86,1.11,1.04,1.05
1349,2.18,1.07,2.09,0.97,-0.97,-0.91,1.22,1.13,1.12
1362,2.38,1.20,2.33,1.13,-1.13,-0.96,1.26,1.21,1.19
1376,2.61,1.36,2.56,1.28,-1.28,-1.01,1.33,1.28,1.25
1390,2.80,1.48,2.78,1.43,-1.43,-1.06,1.37,1.35,1.32
1404,2.98,1.59,2.99,1.57,-1.57,-1.11,1.41,1.42,1.40
1418,3.17,1.71,3.19,1.70,-1.70,-1.16,1.47,1.48,1.47
1432,3.34,1.81,3.37,1.82,-1.82,-1.21,1.52,1.55,1.54
1446,3.52,1.91,3.55,1.93,-1.93,-1.26,1.59,1.62,1.61
1461,3.70,2.02,3.71,2.03,-2.03,-1.31,1.68,1.68,1.68
1475,3.88,2.13,3.87,2.12,-2.12,-1.37,1.77,1.76,1.76
1490,4.04,2.21,4.02,2.19,-2.19,-1.42,1.85,1.83,1.83
1505,4.19,2.29,4.17,2.27,-2.27,-1.48,1.93,1.91,1.91
1520,4.33,2.35,4.32,2.33,-2.33,-1.54,2.00,1.98,1.98
1535,4.49,2.43,4.46,2.40,-2.40,-1.59,2.10,2.07,2.06
1550,4.59,2.45,4.60,2.45,-2.45,-1.65,2.14,2.15,2.15
1566,4.72,2.49,4.74,2.50,-2.50,-1.71,2.22,2.23,2.23
1582,4.83,2.52,4.87,2.55,-2.55,-1.77,2.28,2.32,2.32
1597,4.96,2.56,5.00,2.60,-2.60,-1.83,2.37,2.40,2.40
1613,5.11,2.62,5.13,2.64,-2.64,-1.89,2.47,2.49,2.49
1629,5.26,2.68,5.26,2.68,-2.68,-1.94,2.58,2.58,2.58
1646,5.40,2.73,5.39,2.72,-2.72,-2.01,2.68,2.67,2.68
1662,5.53,2.76,5.53,2.76,-2.76,-2.06,2.78,2.77,2.78
1679,5.66,2.79,5.66,2.79,-2.79,-2.12,2.87,2.87,2.88
1696,5.78,2.80,5.80,2.82,-2.82,-2.18,2.96,2.98,2.98
1713,5.93,2.85,5.94,2.85,-2.85,-2.24,3.09,3.10,3.09
1730,6.05,2.86,6.08,2.87,-2.87,-2.29,3.19,3.21,3.20
1747,6.20,2.89,6.21,2.88,-2.88,-2.34,3.32,3.33,3.31
