frequency,raw,smoothed,error,error_smoothed,equalization,parametric_eq,fixed_band_eq,equalized_raw,equalized_smoothed,target
20.00,-1.41,-1.41,-3.95,-3.95,3.95,2.19,0.47,2.55,2.55,2.54
20.20,-1.31,-1.31,-3.88,-3.88,3.88,2.16,0.49,2.57,2.57,2.57
20.40,-1.21,-1.21,-3.81,-3.81,3.81,2.13,0.50,2.60,2.60,2.60
20.61,-1.11,-1.11,-3.73,-3.73,3.73,2.10,0.52,2.62,2.63,2.62
20.81,-1.01,-1.01,-3.66,-3.66,3.66,2.07,0.54,2.65,2.65,2.65
21.02,-0.91,-0.91,-3.59,-3.58,3.57,2.04,0.56,2.67,2.67,2.68
21.23,-0.81,-0.81,-3.50,-3.50,3.49,2.01,0.57,2.68,2.68,2.69
21.44,-0.71,-0.71,-3.41,-3.41,3.41,1.98,0.59,2.70,2.70,2.70
21.66,-0.61,-0.61,-3.32,-3.31,3.32,1.95,0.61,2.71,2.71,2.71
21.87,-0.51,-0.51,-3.21,-3.22,3.22,1.92,0.63,2.72,2.72,2.71
22.09,-0.42,-0.41,-3.13,-3.13,3.13,1.88,0.65,2.71,2.72,2.72
22.31,-0.32,-0.32,-3.03,-3.04,3.03,1.85,0.67,2.72,2.72,2.72
22.54,-0.23,-0.22,-2.95,-2.94,2.94,1.82,0.69,2.71,2.71,2.72
22.76,-0.13,-0.13,-2.84,-2.84,2.84,1.79,0.71,2.72,2.71,2.72
22.99,-0.04,-0.04,-2.74,-2.75,2.75,1.76,0.74,2.71,2.71,2.71
23.22,0.05,0.05,-2.65,-2.65,2.66,1.73,0.76,2.71,2.71,2.70
23.45,0.14,0.14,-2.56,-2.56,2.56,1.69,0.78,2.71,2.71,2.70
23.69,0.23,0.23,-2.47,-2.47,2.47,1.66,0.81,2.70,2.70,2.70
23.92,0.32,0.32,-2.38,-2.38,2.38,1.63,0.83,2.71,2.70,2.70
24.16,0.41,0.41,-2.30,-2.30,2.29,1.60,0.85,2.71,2.70,2.71
24.40,0.49,0.50,-2.22,-2.21,2.21,1.56,0.88,2.70,2.70,2.71
24.65,0.58,0.58,-2.12,-2.12,2.12,1.53,0.90,2.70,2.70,2.70
24.89,0.66,0.66,-2.03,-2.04,2.04,1.50,0.93,2.70,2.70,2.70
25.14,0.74,0.74,-1.95,-1.95,1.96,1.46,0.95,2.70,2.70,2.70
25.39,0.82,0.82,-1.87,-1.88,1.87,1.43,0.98,2.70,2.70,2.70
25.65,0.89,0.90,-1.80,-1.80,1.80,1.40,1.00,2.69,2.69,2.70
25.91,0.97,0.97,-1.71,-1.72,1.72,1.36,1.03,2.69,2.69,2.68
26.16,1.04,1.04,-1.64,-1.64,1.64,1.33,1.05,2.69,2.68,2.68
26.43,1.11,1.11,-1.57,-1.57,1.57,1.30,1.08,2.68,2.68,2.68
26.69,1.18,1.18,-1.50,-1.50,1.50,1.26,1.10,2.68,2.68,2.68
26.96,1.25,1.25,-1.43,-1.43,1.43,1.23,1.12,2.68,2.68,2.68
27.23,1.31,1.32,-1.37,-1.36,1.36,1.20,1.14,2.67,2.68,2.68
27.50,1.38,1.38,-1.30,-1.30,1.29,1.16,1.16,2.68,2.67,2.68
27.77,1.44,1.44,-1.22,-1.23,1.23,1.13,1.18,2.67,2.67,2.67
28.05,1.49,1.50,-1.17,-1.16,1.17,1.09,1.20,2.66,2.66,2.66
28.33,1.55,1.55,-1.10,-1.10,1.10,1.06,1.22,2.66,2.66,2.65
28.62,1.61,1.61,-1.04,-1.04,1.05,1.03,1.23,2.66,2.65,2.65
28.90,1.66,1.66,-0.99,-0.98,0.99,0.99,1.24,2.65,2.65,2.65
29.19,1.71,1.71,-0.93,-0.93,0.93,0.96,1.25,2.64,2.64,2.64
29.48,1.76,1.76,-0.88,-0.88,0.87,0.92,1.26,2.64,2.64,2.65
29.78,1.81,1.81,-0.82,-0.82,0.82,0.89,1.27,2.63,2.63,2.63
30.08,1.86,1.86,-0.77,-0.77,0.77,0.85,1.27,2.63,2.63,2.63
30.38,1.91,1.91,-0.71,-0.71,0.71,0.82,1.27,2.62,2.62,2.62
30.68,1.96,1.96,-0.66,-0.65,0.66,0.78,1.27,2.62,2.62,2.62
30.99,2.01,2.01,-0.59,-0.60,0.61,0.75,1.27,2.62,2.61,2.61
31.30,2.05,2.05,-0.55,-0.55,0.55,0.71,1.26,2.60,2.60,2.60
31.61,2.09,2.10,-0.51,-0.50,0.50,0.68,1.25,2.59,2.59,2.60
31.93,2.14,2.14,-0.45,-0.45,0.45,0.64,1.24,2.59,2.58,2.59
32.24,2.18,2.18,-0.39,-0.40,0.39,0.61,1.22,2.58,2.58,2.58
32.57,2.23,2.23,-0.34,-0.34,0.34,0.57,1.20,2.57,2.57,2.57
32.89,2.27,2.28,-0.30,-0.29,0.29,0.54,1.18,2.57,2.57,2.57
33.22,2.32,2.32,-0.24,-0.24,0.25,0.50,1.16,2.57,2.57,2.56
33.55,2.36,2.36,-0.19,-0.20,0.20,0.47,1.13,2.57,2.56,2.56
33.89,2.39,2.39,-0.15,-0.16,0.16,0.43,1.10,2.55,2.55,2.54
34.23,2.41,2.42,-0.13,-0.12,0.12,0.39,1.08,2.53,2.54,2.54
34.57,2.44,2.44,-0.09,-0.09,0.08,0.36,1.04,2.52,2.52,2.53
34.92,2.47,2.47,-0.04,-0.05,0.05,0.32,1.01,2.52,2.51,2.51
35.27,2.49,2.50,-0.02,-0.01,0.01,0.28,0.97,2.50,2.50,2.51
35.62,2.52,2.52,0.02,0.03,-0.03,0.25,0.94,2.50,2.50,2.50
35.97,2.55,2.55,0.07,0.06,-0.06,0.21,0.90,2.49,2.49,2.48
36.33,2.58,2.58,0.10,0.10,-0.10,0.17,0.86,2.48,2.48,2.48
36.70,2.60,2.61,0.14,0.14,-0.14,0.13,0.82,2.46,2.47,2.47
37.06,2.63,2.63,0.18,0.17,-0.18,0.10,0.78,2.45,2.45,2.45
37.43,2.65,2.66,0.20,0.21,-0.22,0.06,0.73,2.44,2.44,2.45
37.81,2.68,2.68,0.25,0.25,-0.25,0.02,0.69,2.43,2.43,2.43
38.19,2.71,2.71,0.29,0.29,-0.29,-0.02,0.64,2.43,2.42,2.42
38.57,2.73,2.73,0.32,0.32,-0.32,-0.06,0.60,2.42,2.42,2.41
38.95,2.75,2.75,0.35,0.35,-0.34,-0.10,0.55,2.41,2.41,2.40
39.34,2.76,2.76,0.38,0.38,-0.37,-0.14,0.51,2.39,2.39,2.38
39.74,2.77,2.77,0.40,0.40,-0.39,-0.18,0.46,2.38,2.38,2.37
40.14,2.77,2.78,0.41,0.41,-0.42,-0.22,0.42,2.36,2.36,2.36
40.54,2.78,2.78,0.43,0.43,-0.44,-0.26,0.37,2.35,2.35,2.35
40.94,2.79,2.79,0.45,0.45,-0.46,-0.30,0.33,2.34,2.34,2.34
41.35,2.80,2.80,0.48,0.47,-0.48,-0.34,0.28,2.33,2.33,2.33
41.76,2.82,2.82,0.50,0.50,-0.50,-0.38,0.23,2.32,2.32,2.32
42.18,2.83,2.83,0.52,0.52,-0.52,-0.42,0.19,2.31,2.31,2.31
42.60,2.85,2.85,0.56,0.55,-0.55,-0.46,0.14,2.30,2.30,2.30
43.03,2.86,2.86,0.57,0.58,-0.58,-0.51,0.09,2.28,2.28,2.29
43.46,2.88,2.88,0.61,0.61,-0.61,-0.55,0.05,2.27,2.27,2.27
43.90,2.89,2.89,0.65,0.64,-0.65,-0.59,-0.00,2.24,2.25,2.25
44.33,2.91,2.91,0.68,0.68,-0.69,-0.63,-0.05,2.23,2.23,2.23
44.78,2.93,2.93,0.72,0.72,-0.72,-0.68,-0.09,2.21,2.21,2.21
45.23,2.95,2.96,0.76,0.77,-0.76,-0.72,-0.14,2.19,2.19,2.19
45.68,2.98,2.98,0.81,0.81,-0.80,-0.76,-0.19,2.18,2.18,2.17
46.13,3.00,3.00,0.85,0.85,-0.84,-0.81,-0.23,2.16,2.16,2.15
46.60,3.02,3.02,0.88,0.88,-0.87,-0.85,-0.28,2.15,2.15,2.14
47.06,3.04,3.04,0.92,0.91,-0.91,-0.89,-0.33,2.13,2.13,2.12
47.53,3.05,3.05,0.95,0.94,-0.95,-0.94,-0.37,2.11,2.11,2.10
48.01,3.06,3.06,0.97,0.97,-0.98,-0.98,-0.42,2.08,2.08,2.09
48.49,3.07,3.07,1.01,1.01,-1.02,-1.02,-0.46,2.05,2.05,2.06
48.97,3.08,3.09,1.05,1.05,-1.06,-1.06,-0.51,2.02,2.03,2.03
49.46,3.10,3.10,1.10,1.10,-1.10,-1.11,-0.56,2.01,2.01,2.00
49.96,3.12,3.12,1.15,1.14,-1.14,-1.15,-0.60,1.99,1.98,1.97
50.46,3.13,3.13,1.17,1.18,-1.18,-1.19,-0.65,1.96,1.96,1.96
50.96,3.14,3.15,1.21,1.22,-1.22,-1.23,-0.69,1.93,1.93,1.93
51.47,3.16,3.16,1.26,1.25,-1.25,-1.26,-0.74,1.91,1.91,1.90
51.99,3.17,3.17,1.29,1.29,-1.29,-1.30,-0.78,1.88,1.88,1.88
52.51,3.18,3.18,1.32,1.32,-1.32,-1.34,-0.83,1.86,1.86,1.86
53.03,3.19,3.19,1.35,1.35,-1.36,-1.37,-0.87,1.84,1.84,1.84
53.56,3.20,3.20,1.39,1.38,-1.39,-1.40,-0.92,1.82,1.81,1.81
54.10,3.20,3.21,1.41,1.42,-1.42,-1.43,-0.96,1.79,1.79,1.79
54.64,3.21,3.21,1.45,1.45,-1.44,-1.46,-1.00,1.77,1.77,1.76
55.18,3.21,3.21,1.48,1.47,-1.47,-1.49,-1.04,1.74,1.74,1.74
55.74,3.20,3.21,1.49,1.49,-1.49,-1.51,-1.08,1.71,1.71,1.71
56.29,3.20,3.20,1.51,1.51,-1.52,-1.53,-1.12,1.69,1.69,1.69
56.86,3.20,3.20,1.54,1.54,-1.54,-1.55,-1.16,1.67,1.66,1.66
57.42,3.19,3.20,1.56,1.56,-1.55,-1.57,-1.20,1.64,1.64,1.64
58.00,3.19,3.19,1.58,1.57,-1.57,-1.59,-1.23,1.62,1.62,1.62
58.58,3.18,3.19,1.59,1.59,-1.59,-1.60,-1.27,1.59,1.60,1.60
59.16,3.18,3.18,1.61,1.60,-1.61,-1.61,-1.30,1.57,1.57,1.58
59.76,3.17,3.17,1.62,1.62,-1.63,-1.62,-1.33,1.55,1.55,1.55
60.35,3.16,3.16,1.64,1.64,-1.64,-1.63,-1.36,1.52,1.52,1.52
60.96,3.15,3.15,1.65,1.66,-1.66,-1.64,-1.39,1.49,1.49,1.50
61.57,3.14,3.14,1.68,1.68,-1.68,-1.64,-1.42,1.47,1.46,1.46
62.18,3.12,3.12,1.70,1.70,-1.69,-1.64,-1.44,1.43,1.43,1.42
62.80,3.10,3.10,1.70,1.71,-1.70,-1.64,-1.47,1.40,1.40,1.40
63.43,3.08,3.08,1.72,1.71,-1.71,-1.64,-1.49,1.37,1.37,1.36
64.07,3.05,3.05,1.71,1.71,-1.71,-1.64,-1.51,1.34,1.34,1.34
64.71,3.02,3.02,1.71,1.71,-1.71,-1.64,-1.53,1.31,1.31,1.31
65.35,2.99,2.99,1.71,1.71,-1.71,-1.63,-1.55,1.28,1.28,1.28
66.01,2.96,2.96,1.71,1.70,-1.70,-1.63,-1.57,1.26,1.25,1.26
66.67,2.92,2.92,1.70,1.70,-1.70,-1.62,-1.58,1.23,1.23,1.23
67.33,2.88,2.88,1.68,1.69,-1.69,-1.62,-1.60,1.20,1.20,1.20
68.01,2.84,2.84,1.68,1.67,-1.67,-1.61,-1.61,1.17,1.17,1.17
68.69,2.79,2.80,1.66,1.66,-1.66,-1.60,-1.63,1.13,1.14,1.14
69.37,2.75,2.75,1.65,1.65,-1.64,-1.60,-1.64,1.11,1.11,1.10
70.07,2.70,2.70,1.63,1.63,-1.63,-1.59,-1.65,1.07,1.07,1.07
70.77,2.65,2.65,1.61,1.61,-1.61,-1.58,-1.66,1.04,1.04,1.05
71.48,2.60,2.60,1.59,1.59,-1.59,-1.57,-1.67,1.01,1.01,1.01
72.19,2.55,2.55,1.57,1.57,-1.57,-1.56,-1.68,0.98,0.98,0.98
72.91,2.49,2.49,1.55,1.55,-1.55,-1.55,-1.70,0.94,0.94,0.94
73.64,2.44,2.44,1.54,1.53,-1.53,-1.55,-1.71,0.91,0.91,0.90
74.38,2.38,2.38,1.51,1.51,-1.51,-1.54,-1.72,0.87,0.88,0.88
75.12,2.33,2.33,1.49,1.49,-1.49,-1.53,-1.73,0.85,0.84,0.84
75.87,2.27,2.27,1.46,1.46,-1.46,-1.52,-1.75,0.81,0.81,0.81
76.63,2.22,2.22,1.44,1.45,-1.45,-1.51,-1.76,0.78,0.78,0.78
77.40,2.17,2.17,1.42,1.43,-1.43,-1.50,-1.77,0.74,0.74,0.75
78.17,2.12,2.12,1.42,1.41,-1.41,-1.50,-1.79,0.71,0.71,0.71
78.95,2.08,2.08,1.40,1.40,-1.40,-1.49,-1.81,0.68,0.68,0.68
79.74,2.04,2.04,1.39,1.39,-1.40,-1.48,-1.82,0.64,0.64,0.65
80.54,2.01,2.01,1.40,1.40,-1.40,-1.48,-1.84,0.61,0.61,0.62
81.35,1.98,1.98,1.40,1.40,-1.40,-1.47,-1.86,0.58,0.58,0.58
82.16,1.96,1.96,1.42,1.41,-1.41,-1.47,-1.89,0.55,0.55,0.55
82.98,1.93,1.94,1.41,1.42,-1.42,-1.47,-1.91,0.51,0.51,0.52
83.81,1.91,1.92,1.44,1.44,-1.44,-1.47,-1.93,0.47,0.48,0.47
84.65,1.90,1.90,1.47,1.46,-1.46,-1.47,-1.96,0.45,0.44,0.43
85.50,1.88,1.88,1.48,1.48,-1.47,-1.47,-1.99,0.41,0.41,0.41
86.35,1.86,1.86,1.50,1.50,-1.49,-1.47,-2.02,0.37,0.37,0.37
87.22,1.84,1.84,1.52,1.52,-1.52,-1.48,-2.05,0.32,0.33,0.33
88.09,1.83,1.83,1.55,1.54,-1.54,-1.49,-2.08,0.29,0.29,0.29
88.97,1.81,1.81,1.56,1.56,-1.57,-1.51,-2.12,0.24,0.25,0.26
89.86,1.80,1.80,1.59,1.59,-1.59,-1.52,-2.15,0.21,0.21,0.21
90.76,1.79,1.79,1.63,1.62,-1.62,-1.54,-2.19,0.17,0.17,0.16
91.66,1.78,1.78,1.65,1.66,-1.65,-1.56,-2.23,0.13,0.13,0.13
92.58,1.77,1.77,1.70,1.69,-1.69,-1.59,-2.27,0.08,0.08,0.08
93.51,1.76,1.76,1.72,1.72,-1.72,-1.62,-2.31,0.04,0.04,0.04
94.44,1.75,1.75,1.75,1.75,-1.76,-1.65,-2.36,-0.01,-0.01,-0.00
95.39,1.74,1.74,1.79,1.79,-1.80,-1.68,-2.40,-0.05,-0.05,-0.05
96.34,1.73,1.74,1.83,1.83,-1.83,-1.72,-2.45,-0.10,-0.10,-0.10
97.30,1.73,1.73,1.88,1.87,-1.87,-1.76,-2.50,-0.14,-0.14,-0.15
98.28,1.72,1.72,1.91,1.91,-1.91,-1.81,-2.54,-0.19,-0.19,-0.19
99.26,1.71,1.71,1.95,1.95,-1.95,-1.85,-2.59,-0.24,-0.24,-0.24
100.25,1.70,1.71,1.98,1.99,-1.99,-1.90,-2.65,-0.29,-0.28,-0.28
101.25,1.70,1.70,2.03,2.03,-2.03,-1.95,-2.70,-0.33,-0.33,-0.33
102.27,1.69,1.69,2.07,2.07,-2.07,-2.00,-2.75,-0.37,-0.37,-0.37
103.29,1.68,1.68,2.11,2.11,-2.10,-2.06,-2.80,-0.42,-0.42,-0.43
104.32,1.66,1.67,2.13,2.14,-2.13,-2.11,-2.85,-0.47,-0.47,-0.47
105.37,1.65,1.65,2.17,2.16,-2.17,-2.17,-2.91,-0.51,-0.52,-0.51
106.42,1.63,1.64,2.19,2.19,-2.20,-2.22,-2.96,-0.57,-0.56,-0.56
107.48,1.62,1.62,2.23,2.23,-2.23,-2.28,-3.01,-0.61,-0.61,-0.61
108.56,1.60,1.60,2.26,2.26,-2.26,-2.33,-3.06,-0.66,-0.66,-0.66
109.64,1.58,1.58,2.29,2.29,-2.29,-2.39,-3.11,-0.71,-0.71,-0.71
110.74,1.56,1.56,2.32,2.32,-2.32,-2.45,-3.16,-0.76,-0.76,-0.75
111.85,1.54,1.54,2.34,2.35,-2.36,-2.50,-3.21,-0.81,-0.81,-0.80
112.97,1.53,1.53,2.40,2.39,-2.39,-2.56,-3.25,-0.86,-0.86,-0.87
114.10,1.51,1.51,2.42,2.43,-2.43,-2.61,-3.29,-0.92,-0.92,-0.91
115.24,1.50,1.50,2.47,2.47,-2.47,-2.66,-3.33,-0.97,-0.97,-0.97
116.39,1.49,1.49,2.51,2.51,-2.51,-2.71,-3.36,-1.02,-1.02,-1.02
117.55,1.48,1.48,2.56,2.56,-2.55,-2.76,-3.39,-1.07,-1.07,-1.07
118.73,1.47,1.47,2.60,2.60,-2.59,-2.81,-3.42,-1.12,-1.12,-1.13
119.92,1.46,1.46,2.63,2.64,-2.63,-2.86,-3.45,-1.17,-1.17,-1.17
121.12,1.45,1.45,2.68,2.68,-2.68,-2.91,-3.47,-1.22,-1.22,-1.22
122.33,1.44,1.45,2.72,2.72,-2.72,-2.95,-3.48,-1.28,-1.27,-1.28
123.55,1.44,1.44,2.76,2.76,-2.76,-2.99,-3.49,-1.32,-1.32,-1.32
124.79,1.43,1.43,2.80,2.80,-2.81,-3.04,-3.50,-1.37,-1.37,-1.37
126.03,1.42,1.43,2.84,2.85,-2.85,-3.08,-3.50,-1.43,-1.42,-1.42
127.29,1.42,1.42,2.89,2.89,-2.90,-3.11,-3.50,-1.47,-1.47,-1.47
128.57,1.42,1.42,2.95,2.94,-2.94,-3.15,-3.49,-1.52,-1.52,-1.53
129.85,1.41,1.42,2.99,2.99,-2.99,-3.19,-3.48,-1.58,-1.57,-1.58
131.15,1.41,1.41,3.04,3.04,-3.04,-3.22,-3.47,-1.63,-1.63,-1.63
132.46,1.41,1.41,3.09,3.08,-3.09,-3.25,-3.45,-1.67,-1.68,-1.67
133.79,1.41,1.42,3.12,3.13,-3.14,-3.28,-3.42,-1.72,-1.72,-1.71
135.12,1.42,1.42,3.19,3.18,-3.18,-3.31,-3.40,-1.76,-1.76,-1.77
136.48,1.42,1.42,3.22,3.23,-3.23,-3.34,-3.37,-1.80,-1.80,-1.80
137.84,1.42,1.42,3.27,3.27,-3.27,-3.36,-3.33,-1.85,-1.84,-1.85
139.22,1.42,1.42,3.32,3.31,-3.31,-3.39,-3.30,-1.88,-1.89,-1.90
140.61,1.41,1.42,3.35,3.35,-3.34,-3.41,-3.26,-1.93,-1.93,-1.94
142.02,1.41,1.41,3.38,3.38,-3.38,-3.43,-3.22,-1.97,-1.97,-1.96
143.44,1.40,1.40,3.41,3.41,-3.41,-3.45,-3.18,-2.01,-2.01,-2.00
144.87,1.39,1.40,3.44,3.44,-3.44,-3.47,-3.14,-2.05,-2.05,-2.05
146.32,1.39,1.39,3.48,3.47,-3.47,-3.48,-3.10,-2.08,-2.08,-2.08
147.78,1.38,1.39,3.50,3.50,-3.50,-3.50,-3.05,-2.12,-2.12,-2.11
149.26,1.38,1.38,3.53,3.54,-3.53,-3.51,-3.01,-2.15,-2.15,-2.15
150.75,1.37,1.37,3.57,3.57,-3.56,-3.52,-2.96,-2.19,-2.19,-2.20
152.26,1.36,1.36,3.60,3.60,-3.59,-3.53,-2.92,-2.23,-2.23,-2.24
153.78,1.35,1.35,3.62,3.63,-3.63,-3.54,-2.88,-2.27,-2.27,-2.27
155.32,1.34,1.34,3.66,3.65,-3.66,-3.55,-2.83,-2.32,-2.32,-2.32
156.88,1.33,1.33,3.68,3.68,-3.69,-3.55,-2.79,-2.36,-2.36,-2.35
158.44,1.32,1.32,3.71,3.72,-3.72,-3.56,-2.75,-2.40,-2.40,-2.39
160.03,1.31,1.31,3.75,3.75,-3.75,-3.56,-2.71,-2.44,-2.44,-2.43
161.63,1.30,1.30,3.78,3.78,-3.78,-3.56,-2.67,-2.47,-2.47,-2.48
163.24,1.29,1.29,3.81,3.81,-3.80,-3.56,-2.64,-2.51,-2.51,-2.52
164.88,1.28,1.28,3.83,3.83,-3.83,-3.56,-2.60,-2.54,-2.55,-2.55
166.53,1.26,1.26,3.85,3.85,-3.85,-3.56,-2.57,-2.59,-2.58,-2.59
168.19,1.24,1.24,3.87,3.87,-3.87,-3.55,-2.54,-2.63,-2.62,-2.62
169.87,1.22,1.22,3.88,3.88,-3.89,-3.55,-2.51,-2.66,-2.66,-2.66
171.57,1.20,1.20,3.90,3.90,-3.90,-3.54,-2.48,-2.70,-2.70,-2.70
173.29,1.18,1.18,3.92,3.91,-3.92,-3.53,-2.45,-2.74,-2.74,-2.73
175.02,1.15,1.16,3.92,3.93,-3.93,-3.52,-2.43,-2.78,-2.78,-2.77
176.77,1.13,1.13,3.95,3.94,-3.94,-3.51,-2.40,-2.81,-2.81,-2.81
178.54,1.10,1.10,3.96,3.96,-3.95,-3.49,-2.38,-2.85,-2.85,-2.86
180.32,1.07,1.07,3.96,3.97,-3.96,-3.48,-2.37,-2.89,-2.89,-2.89
182.13,1.04,1.04,3.97,3.97,-3.97,-3.46,-2.35,-2.92,-2.93,-2.92
183.95,1.00,1.00,3.97,3.97,-3.97,-3.45,-2.33,-2.96,-2.96,-2.97
185.79,0.96,0.96,3.96,3.96,-3.96,-3.43,-2.32,-3.00,-3.00,-3.00
187.65,0.92,0.92,3.96,3.96,-3.95,-3.41,-2.31,-3.03,-3.03,-3.04
189.52,0.87,0.88,3.94,3.94,-3.94,-3.39,-2.30,-3.07,-3.07,-3.07
191.42,0.83,0.83,3.93,3.93,-3.93,-3.36,-2.29,-3.10,-3.10,-3.10
193.33,0.78,0.78,3.91,3.91,-3.91,-3.34,-2.29,-3.13,-3.13,-3.13
195.27,0.73,0.73,3.89,3.89,-3.89,-3.31,-2.28,-3.16,-3.16,-3.16
197.22,0.68,0.68,3.87,3.87,-3.87,-3.29,-2.28,-3.19,-3.19,-3.18
199.19,0.63,0.63,3.85,3.85,-3.84,-3.26,-2.27,-3.21,-3.21,-3.22
201.18,0.58,0.58,3.82,3.82,-3.82,-3.23,-2.27,-3.24,-3.24,-3.24
203.19,0.53,0.53,3.79,3.79,-3.79,-3.20,-2.27,-3.26,-3.26,-3.25
205.23,0.48,0.48,3.76,3.75,-3.76,-3.17,-2.27,-3.28,-3.28,-3.28
207.28,0.43,0.44,3.72,3.73,-3.73,-3.13,-2.27,-3.30,-3.30,-3.28
209.35,0.39,0.39,3.70,3.70,-3.70,-3.10,-2.27,-3.31,-3.31,-3.31
211.44,0.34,0.34,3.67,3.67,-3.66,-3.06,-2.27,-3.32,-3.32,-3.33
213.56,0.29,0.29,3.63,3.63,-3.63,-3.02,-2.27,-3.34,-3.33,-3.34
215.69,0.24,0.24,3.58,3.59,-3.59,-2.98,-2.28,-3.35,-3.35,-3.34
217.85,0.19,0.19,3.54,3.54,-3.54,-2.94,-2.27,-3.35,-3.35,-3.35
220.03,0.13,0.13,3.50,3.50,-3.49,-2.90,-2.27,-3.36,-3.36,-3.36
222.23,0.07,0.07,3.45,3.44,-3.44,-2.85,-2.27,-3.36,-3.36,-3.38
224.45,0.01,0.01,3.38,3.38,-3.38,-2.80,-2.27,-3.36,-3.37,-3.37
226.70,-0.06,-0.06,3.31,3.31,-3.31,-2.75,-2.26,-3.37,-3.37,-3.37
228.96,-0.13,-0.13,3.24,3.24,-3.25,-2.70,-2.26,-3.38,-3.38,-3.37
231.25,-0.20,-0.20,3.16,3.17,-3.18,-2.65,-2.25,-3.38,-3.37,-3.36
233.57,-0.27,-0.26,3.09,3.10,-3.10,-2.60,-2.24,-3.37,-3.37,-3.36
235.90,-0.33,-0.33,3.03,3.03,-3.03,-2.54,-2.22,-3.35,-3.36,-3.36
238.26,-0.41,-0.41,2.95,2.95,-2.94,-2.49,-2.21,-3.35,-3.35,-3.36
240.64,-0.49,-0.48,2.86,2.86,-2.85,-2.42,-2.19,-3.34,-3.34,-3.35
243.05,-0.57,-0.57,2.77,2.76,-2.76,-2.36,-2.16,-3.32,-3.33,-3.34
245.48,-0.67,-0.67,2.66,2.66,-2.66,-2.30,-2.14,-3.32,-3.32,-3.33
247.93,-0.77,-0.77,2.55,2.55,-2.55,-2.23,-2.11,-3.32,-3.32,-3.31
250.41,-0.88,-0.87,2.43,2.43,-2.44,-2.16,-2.07,-3.31,-3.31,-3.31
252.92,-0.98,-0.98,2.31,2.31,-2.32,-2.09,-2.04,-3.30,-3.30,-3.29
255.45,-1.08,-1.08,2.19,2.19,-2.20,-2.02,-2.00,-3.28,-3.28,-3.27
258.00,-1.18,-1.18,2.08,2.07,-2.07,-1.94,-1.95,-3.25,-3.25,-3.25
260.58,-1.29,-1.29,1.95,1.95,-1.95,-1.86,-1.90,-3.24,-3.23,-3.24
263.19,-1.40,-1.40,1.82,1.82,-1.82,-1.78,-1.85,-3.22,-3.21,-3.22
265.82,-1.51,-1.51,1.70,1.69,-1.69,-1.70,-1.80,-3.19,-3.20,-3.20
268.48,-1.63,-1.63,1.55,1.55,-1.55,-1.61,-1.74,-3.18,-3.18,-3.18
271.16,-1.75,-1.75,1.41,1.41,-1.41,-1.52,-1.68,-3.16,-3.16,-3.16
273.87,-1.87,-1.87,1.27,1.27,-1.27,-1.43,-1.62,-3.14,-3.14,-3.14
276.61,-1.99,-1.99,1.13,1.13,-1.13,-1.33,-1.55,-3.12,-3.12,-3.12
279.38,-2.12,-2.11,0.98,0.99,-0.99,-1.23,-1.48,-3.11,-3.10,-3.10
282.17,-2.24,-2.24,0.85,0.85,-0.85,-1.12,-1.41,-3.09,-3.09,-3.09
284.99,-2.36,-2.36,0.70,0.71,-0.71,-1.01,-1.34,-3.06,-3.06,-3.06
287.84,-2.48,-2.48,0.57,0.57,-0.56,-0.90,-1.26,-3.04,-3.04,-3.05
290.72,-2.60,-2.60,0.42,0.42,-0.42,-0.78,-1.18,-3.02,-3.02,-3.02
293.63,-2.73,-2.72,0.28,0.28,-0.28,-0.66,-1.10,-3.01,-3.00,-3.01
296.57,-2.85,-2.85,0.13,0.13,-0.13,-0.54,-1.02,-2.98,-2.98,-2.98
299.53,-2.98,-2.97,-0.01,-0.01,0.02,-0.40,-0.94,-2.96,-2.96,-2.96
302.53,-3.10,-3.10,-0.15,-0.16,0.16,-0.27,-0.86,-2.93,-2.94,-2.95
305.55,-3.23,-3.23,-0.32,-0.31,0.31,-0.13,-0.77,-2.91,-2.91,-2.91
308.61,-3.36,-3.35,-0.46,-0.46,0.46,0.02,-0.69,-2.89,-2.89,-2.89
311.69,-3.48,-3.48,-0.61,-0.62,0.61,0.17,-0.60,-2.87,-2.87,-2.87
314.81,-3.61,-3.61,-0.78,-0.77,0.76,0.33,-0.51,-2.85,-2.85,-2.83
317.96,-3.73,-3.73,-0.91,-0.91,0.90,0.49,-0.42,-2.82,-2.82,-2.82
321.14,-3.85,-3.85,-1.05,-1.05,1.05,0.66,-0.34,-2.80,-2.80,-2.80
324.35,-3.97,-3.97,-1.19,-1.19,1.19,0.84,-0.25,-2.78,-2.78,-2.78
327.59,-4.09,-4.09,-1.33,-1.33,1.33,1.02,-0.16,-2.76,-2.76,-2.75
330.87,-4.21,-4.21,-1.47,-1.47,1.47,1.20,-0.07,-2.73,-2.73,-2.74
334.18,-4.33,-4.33,-1.61,-1.61,1.62,1.40,0.03,-2.71,-2.71,-2.72
337.52,-4.46,-4.46,-1.76,-1.76,1.76,1.60,0.12,-2.69,-2.69,-2.70
340.90,-4.59,-4.59,-1.91,-1.91,1.91,1.80,0.21,-2.67,-2.68,-2.68
344.30,-4.73,-4.73,-2.07,-2.07,2.07,2.01,0.30,-2.66,-2.66,-2.66
347.75,-4.87,-4.87,-2.23,-2.23,2.22,2.22,0.40,-2.64,-2.64,-2.64
351.23,-5.01,-5.01,-2.39,-2.39,2.38,2.43,0.49,-2.62,-2.62,-2.62
354.74,-5.15,-5.15,-2.54,-2.55,2.55,2.65,0.58,-2.60,-2.60,-2.60
358.28,-5.30,-5.30,-2.71,-2.71,2.71,2.87,0.68,-2.59,-2.59,-2.59
361.87,-5.45,-5.45,-2.88,-2.88,2.88,3.09,0.78,-2.57,-2.57,-2.57
365.49,-5.60,-5.60,-3.05,-3.04,3.05,3.31,0.87,-2.55,-2.55,-2.55
369.14,-5.75,-5.75,-3.21,-3.21,3.22,3.52,0.97,-2.53,-2.53,-2.54
372.83,-5.91,-5.91,-3.38,-3.38,3.39,3.73,1.06,-2.52,-2.52,-2.52
376.56,-6.07,-6.07,-3.55,-3.56,3.57,3.93,1.16,-2.50,-2.50,-2.52
380.33,-6.23,-6.23,-3.74,-3.74,3.74,4.12,1.26,-2.49,-2.49,-2.49
384.13,-6.39,-6.39,-3.91,-3.90,3.91,4.29,1.36,-2.48,-2.48,-2.48
387.97,-6.54,-6.54,-4.07,-4.07,4.08,4.44,1.45,-2.46,-2.46,-2.47
391.85,-6.69,-6.69,-4.23,-4.23,4.23,4.58,1.55,-2.46,-2.46,-2.46
395.77,-6.83,-6.83,-4.38,-4.38,4.38,4.69,1.65,-2.45,-2.45,-2.44
399.73,-6.95,-6.94,-4.51,-4.51,4.50,4.78,1.74,-2.45,-2.44,-2.44
403.72,-7.04,-7.04,-4.61,-4.61,4.61,4.85,1.84,-2.43,-2.43,-2.43
407.76,-7.11,-7.11,-4.69,-4.70,4.69,4.88,1.94,-2.42,-2.42,-2.42
411.84,-7.16,-7.15,-4.76,-4.75,4.75,4.89,2.03,-2.41,-2.41,-2.40
415.96,-7.18,-7.17,-4.79,-4.78,4.77,4.87,2.12,-2.40,-2.40,-2.39
420.12,-7.16,-7.16,-4.78,-4.78,4.77,4.82,2.22,-2.39,-2.39,-2.38
424.32,-7.13,-7.12,-4.76,-4.75,4.74,4.75,2.31,-2.39,-2.39,-2.37
428.56,-7.05,-7.05,-4.68,-4.68,4.67,4.66,2.39,-2.38,-2.38,-2.36
432.85,-6.94,-6.94,-4.58,-4.59,4.58,4.54,2.48,-2.36,-2.36,-2.35
437.18,-6.81,-6.81,-4.46,-4.46,4.46,4.41,2.56,-2.35,-2.35,-2.35
441.55,-6.65,-6.65,-4.32,-4.32,4.32,4.27,2.64,-2.33,-2.33,-2.33
445.96,-6.48,-6.48,-4.16,-4.16,4.16,4.12,2.72,-2.32,-2.32,-2.32
450.42,-6.29,-6.29,-3.98,-3.99,3.99,3.95,2.79,-2.30,-2.30,-2.31
454.93,-6.10,-6.10,-3.81,-3.80,3.81,3.78,2.85,-2.29,-2.29,-2.29
459.48,-5.90,-5.90,-3.62,-3.62,3.63,3.61,2.91,-2.27,-2.27,-2.28
464.07,-5.70,-5.70,-3.44,-3.44,3.44,3.43,2.97,-2.25,-2.25,-2.26
468.71,-5.50,-5.50,-3.26,-3.26,3.26,3.26,3.02,-2.23,-2.24,-2.24
473.40,-5.31,-5.31,-3.08,-3.08,3.09,3.08,3.06,-2.22,-2.22,-2.23
478.13,-5.13,-5.13,-2.91,-2.91,2.91,2.91,3.09,-2.21,-2.21,-2.21
482.91,-4.95,-4.95,-2.74,-2.75,2.75,2.74,3.12,-2.20,-2.20,-2.20
487.74,-4.77,-4.77,-2.58,-2.59,2.58,2.58,3.14,-2.18,-2.19,-2.18
492.62,-4.60,-4.60,-2.43,-2.43,2.43,2.42,3.16,-2.17,-2.17,-2.17
497.55,-4.43,-4.43,-2.27,-2.28,2.28,2.26,3.16,-2.15,-2.15,-2.16
