frequency,raw
10,-8.37996701652644
11,-7.449878643465923
12,-6.453128803379461
13,-5.764542032799012
14,-4.806631201562345
15,-4.07190461669984
16,-3.4725394402269902
17,-3.0123018295166193
18,-2.4719246746853285
19,-2.0006153157718423
20,-1.6598854953070235
21,-1.2242558426623058
22,-0.9934632558641545
23,-0.7473788737259537
24,-0.49782662978909675
25,-0.22089253413131926
26,-0.039306025338996076
27,0.02326577879012337
28,0.21650046285498714
29,0.4280982202293395
30,0.6178523816841901
31,0.7930081815112162
32,0.9508363182465613
33,1.0650620100428396
34,1.0338300870041026
35,1.1945041492923005
36,1.1607083073234223
37,1.240857085293121
38,1.423169301671126
39,1.4476684481567137
40,1.4685590038375835
41,1.5856470411244237
42,1.696861575608441
43,1.7031041636928839
44,1.797578457171423
45,1.7901540903591853
46,1.7812914456998614
47,1.7752846807805032
48,1.8719935927076685
49,1.880166436600006
50,1.9917872394881764
51,2.0109053710360287
52,2.0295812865044036
53,2.0437003250035772
54,2.0507128015935505
55,2.0502350985413944
56,2.14019943123958
57,2.13033315444945
58,2.1197283860481475
59,2.110478302781128
60,2.103752009972168
61,2.099727856680495
62,2.0977486360546624
63,2.096709120666028
64,2.095633337057227
65,2.094230715071986
66,2.093113617248732
67,2.0934786877520937
68,2.0963722185667386
69,2.1019552401196044
70,2.10921312640214
71,2.116280526895273
72,2.1211683404783033
73,2.122454094592185
74,2.119584157249103
75,2.1127549909245715
76,2.1026371675462503
77,2.0902541511990185
78,2.046626697148607
79,1.9687725707360402
80,1.947260376202819
81,1.8612841199142807
82,1.8647761989052425
83,1.8737329817022275
84,1.8862935355716415
85,1.900517441938093
86,1.9151808156763943
87,1.929772619930577
88,1.9437055882744252
89,1.9554427863378612
90,1.9624227776648935
91,1.9621430348277658
92,1.9538833927622274
93,1.939941546750246
94,1.9253676385769678
95,1.9160093537240428
96,1.915725054975014
97,1.9242491723085218
98,1.9136598110743401
99,1.8507038675092735
100,1.7951976886475913
101,1.7478829926713884
102,1.7331615132930827
104,1.7187560644910072
105,1.711572842161404
106,1.7152458211073167
107,1.7285697502451844
108,1.7463707096489482
109,1.7621413835628283
110,1.7709096225357
111,1.7397430328878105
112,1.6670201827302016
113,1.6551360741595929
114,1.6419542409849788
115,1.629708693359487
117,1.5243830083274608
118,1.5158578136217384
119,1.5114330805980138
120,1.5096879865567239
121,1.4548543487547567
123,1.413987331127621
124,1.413960746119348
125,1.408033078799403
126,1.3365845748395975
128,1.3161803039983235
129,1.2774577456462906
130,1.2298070689945577
131,1.2371907089018466
133,1.2427151418263183
134,1.244224665288944
135,1.2415534077128267
137,1.2367772551468432
138,1.2331541587314563
140,1.2333537732949065
141,1.23802475922232
142,1.2455192053146789
144,1.252857216787711
145,1.2572864449464944
147,1.257552456723709
148,1.2543333408378396
150,1.2242196752433863
151,1.1627729348769344
153,1.1526552863536415
154,1.1266507186618187
156,1.1977552683541637
157,1.2872318392140043
159,1.3123527922575233
160,1.3279039017294663
162,1.335215088201374
164,1.3333972376252303
165,1.3248596788922518
167,1.3141490148520978
169,1.2865137726437537
170,1.230803613946561
172,1.0982706561433426
174,0.9814528990664098
175,0.9341399556931771
177,0.8837927416994882
179,0.8303629449829897
181,0.8306422589985667
183,0.8314557338920965
184,0.832735229132985
186,0.8336237908828892
188,0.8333031909191737
190,0.8319437557141791
192,0.8310865151387086
194,0.8331177262361082
196,0.8400776927642726
198,0.8524968023544366
200,0.8689701461175963
202,0.8867432436535845
204,0.9029720986119889
206,0.9159386650393584
208,0.9255775959960646
210,0.922246758297149
212,0.8455048722856802
214,0.8182699367861153
216,0.7628414352712958
218,0.7700322927369889
221,0.7747274178138808
223,0.7753692975090556
225,0.7712830180853549
227,0.7631769526625618
229,0.7532439849387145
232,0.6482991539034879
234,0.6444806955796811
236,0.617278492911105
239,0.5611080181286083
241,0.5050320403305024
244,0.491855118773425
246,0.5141425811467473
248,0.5200699792757111
251,0.33611440796232994
253,0.33392371657804754
256,0.3005828553153762
259,0.2135949604066707
261,0.20742992656775439
264,0.1458410101200167
266,0.1155133266679691
269,-0.005868818099230122
272,-0.10633869369242577
274,-0.15209608003127073
277,-0.21829577090114505
280,-0.26481949488115
283,-0.3035256230857728
286,-0.39495633568403976
288,-0.556547216782771
291,-0.6864102902211155
294,-0.7749082121341715
297,-0.8846799023186573
300,-1.0145825943770426
303,-1.0954723892487852
306,-1.1117984085714565
309,-1.1498782325504058
312,-1.3670042463334358
316,-1.5727244148418054
319,-1.5410752371111989
322,-1.4798665830040472
325,-1.4542900071935532
328,-1.286393404633068
332,-1.5730438146871424
335,-1.7028280821118644
338,-1.7574907197443494
342,-1.6079979040522172
345,-1.5549901377608992
349,-1.6844216175128532
352,-1.7797398595257827
356,-1.8250344367129452
359,-1.775153546217173
363,-1.9495586060623555
366,-1.8628606395196181
370,-1.848296022001955
374,-1.9273511865933919
377,-1.8550545258212516
381,-1.924444682531288
385,-1.9857789936808177
389,-1.86928690147159
393,-1.9781587533267184
397,-1.9671023325550245
401,-1.9549005616900763
405,-1.9438296168909845
409,-1.9367252937950998
413,-1.954649971058769
417,-1.9586262945918207
421,-1.8783761830877486
425,-1.8564668253634045
430,-1.859669697426718
434,-1.8569055010272293
438,-1.8500429176597077
443,-1.8414466432840495
447,-1.8324240316255822
451,-1.8226934923444245
456,-1.811153419163953
460,-1.797235113000512
465,-1.7816802939196967
470,-1.766058657235282
474,-1.7513813392994306
479,-1.7369441929092377
484,-1.7204047645020708
489,-1.6991553225995624
494,-1.6720681622833533
499,-1.6404336399872101
504,-1.607535989124584
509,-1.5772640599029017
514,-1.5526852010631016
519,-1.5353113268256693
524,-1.5251645860345233
529,-1.5813117623935158
535,-1.5851496739159612
540,-1.5256232122880824
545,-1.5299483882648173
551,-1.53285852261965
556,-1.532308062975555
562,-1.5265549787705925
568,-1.5143935100132007
573,-1.4954948811008255
579,-1.4708586739926541
585,-1.4431576390426986
591,-1.4165647569722184
596,-1.3957267274740475
602,-1.383989319828335
608,-1.3815897988579762
615,-1.3848859285397352
621,-1.387414941381959
627,-1.3826575883658627
633,-1.3672926771434728
639,-1.330581690746296
646,-1.2203960937192786
652,-1.1998600284444805
659,-1.1909074537996487
665,-1.1942299032424308
672,-1.205404721571803
679,-1.2173680972754441
686,-1.2105844796605882
692,-1.13140667389423
699,-1.1146495493944797
706,-1.0017322370031405
713,-0.9821878640740285
721,-0.962340391352688
728,-0.9451911462824722
735,-0.9345119883787121
742,-0.9023704877766756
750,-0.772117346595717
757,-0.7627391625483804
765,-0.7131557922297567
773,-0.7420255082098318
780,-0.7614718083241167
788,-0.7350270577278962
796,-0.6691608244714392
804,-0.5800382171211633
812,-0.47469895909436266
820,-0.44426901272147856
828,-0.4287678234234805
837,-0.4738476711988707
845,-0.5230776079961758
853,-0.5090297940730322
862,-0.5060511006598393
871,-0.4714853538306608
879,-0.3438491381892138
888,-0.34474484742962497
897,-0.31988011097789915
906,-0.2405454963335342
915,-0.23142589914222927
924,-0.23149632425138955
933,-0.2239936554769061
943,-0.11751372700967519
952,-0.077704357523568
962,-0.07052039024482679
971,-0.04137546098287179
981,-0.011913281167095197
991,0.01474006580453227
1001,-0.001629589292492739
1011,-0.09064965927507895
1021,-0.0683028839908246
1031,-0.1380496203863083
1041,-0.1910029092134617
1052,-0.379693328008181
1062,-0.4614696890821528
1073,-0.46100104219351334
1084,-0.289248679284146
1094,-0.16661999237435043
1105,-0.15228111976771752
1116,-0.10749101657782045
1128,-0.05311724498942327
1139,-0.0017578988643141003
1150,0.048889715624082175
1162,0.10388523285192353
1173,0.21949639903823548
1185,0.26965063870659356
1197,0.14125705000620947
1209,0.21515863965991533
1221,0.4342069156258187
1233,0.5595816415741247
1246,0.5552246933930656
1258,0.6807658149219035
1271,0.6414211362525941
1283,0.7788258663809244
1296,0.9675200395930377
1309,1.0589838702466166
1322,1.027447114679341
1335,1.0767221272752863
1349,1.20693888162586
1362,1.2131874728928744
1376,1.3119767375740705
1390,1.3669301440588784
1404,1.4499730530129442
1418,1.6827527302892742
1432,1.7600175351759328
1446,1.8253914251747412
1461,1.8808471564854847
1475,1.9306306868141565
1490,1.9775056055725175
1505,2.069518425982253
1520,2.155314299891368
1535,2.2308327070032115
1550,2.2939118211356164
1566,2.3461073980586997
1582,2.463735569440944
1597,2.5456650326641475
1613,2.6839979716429054
1629,2.743122997048473
1646,2.880658464830791
1662,2.973602373383326
1679,3.082645953387426
1696,3.2162360569053807
1713,3.2973843239124094
1730,3.388222564087978
1747,3.4905901958766936
1764,3.6035073603028933
1782,3.723299255158884
1800,3.837963320046574
1818,3.9172801118689997
1836,3.986839198205934
1854,4.0280638071264345
1873,4.1047390153575325
1892,4.151153223705026
1911,4.17274725444293
1930,4.16392355181189
1949,4.195915452917555
1969,4.258079585690941
1988,4.33345786954612
2008,4.3467435986613605
2028,4.358481115488568
2048,4.3725411145921615
2069,4.3824087301116865
2090,4.686853767999562
2111,4.913909114855231
2132,4.96787210776092
2153,4.996149682668402
2175,4.907988002989853
2196,5.015510408050212
2218,5.326409565009731
2240,5.548356928037501
2263,5.722454679704566
2285,5.990188013477136
2308,6.003573258528972
2331,6.21323863628
2355,6.383773927762128
2378,6.518189863293689
2402,6.979034825191272
2426,7.293015706654446
2450,7.470847075352232
2475,7.59364079374868
2500,7.625381626942305
2525,7.711549643663313
2550,7.859103763398922
2575,7.928740091655714
2601,7.913792027618303
2627,7.8537807968993025
2653,7.833514990995891
2680,7.857175478195172
2707,7.903914339242912
2734,7.778817295783606
2761,7.82550339928655
2789,7.89375947492708
2817,7.677405900829896
2845,7.664431839657144
2873,7.517298904060911
2902,7.4777066768342
2931,7.169753622067195
2960,6.703432537128907
2990,6.30637829579079
3020,5.465264362731844
3050,5.113135600863268
3080,4.87900115769273
3111,4.6229292884741255
3142,4.446077596428752
3174,4.2288538578046655
3206,4.268398249703915
3238,4.363984257418997
3270,4.520263457255396
3303,4.85566282103362
3336,5.091281251603958
3369,5.217951699916922
3403,5.42609559978699
3437,5.65159156589981
3471,5.821306685084136
3506,6.099194655706725
3541,6.284114044887682
3576,6.458739178856006
3612,6.779106000175395
3648,6.9771221457103625
3685,7.129841315252907
3721,7.274106051536753
3759,7.427948307519987
3796,7.720214074932121
3834,7.954611295449483
3873,8.074051768221887
3911,8.169039024238394
3950,8.216163065568422
3990,8.278723006472786
4030,8.163323488142375
4070,7.872960786882011
4111,7.405593879462363
4152,6.96079726622917
4193,6.563634997770586
4235,6.263228094766944
4278,6.14212350493995
4321,5.797975060901732
4364,5.5292731121758845
4407,5.106003933829075
4451,4.977395307022847
4496,4.705699766994307
4541,4.580122093829167
4586,4.449937932846392
4632,4.224731013777706
4679,4.011435991179464
4725,3.822530443335035
4773,3.507026114960331
4820,3.4975713000598914
4868,3.608600275914382
4917,3.5930608605728365
4966,3.479945838533445
5016,3.5063366140293555
5066,3.335880367394094
5117,3.0942079001554506
5168,2.8459975582700707
5220,2.5405612290880084
5272,2.333793289856751
5325,2.1436036764278485
5378,1.770227242834994
5432,1.5997359887615836
5486,1.563724697023483
5541,1.4968599183065185
5596,1.5095545815164657
5652,1.6893367455430726
5709,1.7352231332448698
5766,1.7883219197577764
5823,1.8283345193376404
5882,1.912650851496017
5940,1.8879423593476448
6000,2.1027498220903063
6060,2.064457195515015
6120,2.0065479017390047
6182,1.8516805578124966
6244,1.3550036226594147
6306,0.8798789061419177
6369,0.3638551769020424
6433,-0.4589606768283305
6497,-1.5362311570490297
6562,-2.70052913836828
6628,-3.533860594340494
6694,-4.576744445519485
6761,-5.356814555455168
6828,-6.712121846011633
6897,-7.528907851190268
6966,-8.776155724115505
7035,-8.941830143664188
7106,-9.206062628640058
7177,-9.645379909848087
7249,-10.018561259174223
7321,-9.861106010042079
7394,-9.408831447398368
7468,-9.096433920522234
7543,-8.479305242836475
7618,-8.001056618060817
7694,-7.2233800242530615
7771,-6.8354602049315565
7849,-6.046149745961903
7928,-5.295084511235774
8007,-5.208496729863346
8087,-5.3132225674022475
8168,-5.192401637378659
8250,-4.819668045808092
8332,-4.3757562857408026
8415,-3.721816058035545
8499,-3.2093569021470754
8584,-3.623836919389246
8670,-3.838630048842964
8757,-4.492713983013365
8845,-3.6030594458670873
8933,-2.6161196698518587
9022,-2.2663116960211016
9113,-1.5679042831621688
9204,-1.0953526537272253
9296,-1.4075882876007504
9389,-1.6905768969305073
9483,-1.7797585794679671
9577,-1.75714759870668
9673,-1.490327378696242
9770,-1.3267205160498756
9868,-1.122049972091038
9966,-1.046003247076416
10066,-1.287384017063586
10167,-1.6082960128940615
10268,-1.8689118101755104
10371,-2.1777213146591494
10475,-2.1788448889761627
10579,-2.146694549199146
10685,-2.374002211319802
10792,-2.7886062471266237
10900,-3.1849398311314046
11009,-3.5897610475765394
11119,-4.3988513838600225
11230,-4.889201768325691
11343,-5.343368659465229
11456,-5.757272341945642
11571,-6.043136828262506
11686,-6.2860369030164485
11803,-6.377372690398175
11921,-6.262642143017479
12040,-7.304842798951494
12161,-8.366762151322003
12282,-8.996286235848416
12405,-10.085114940383733
12529,-10.697143714569005
12655,-12.167713611172886
12781,-13.332285408339139
12909,-14.890684469829345
13038,-16.444875757848884
13168,-16.669657366528998
13300,-16.802856275117698
13433,-17.412127016286462
13567,-18.60532616989722
13703,-17.255184811275512
13840,-15.645272770343563
13978,-13.653261988750184
14118,-11.254068565452362
14259,-10.225062520465368
14402,-8.85072874123963
14546,-7.4490894497664195
14692,-6.720037744376603
14838,-6.484271663057225
14987,-6.354435267107629
15137,-6.884119094840227
15288,-7.98618567880628
15441,-8.710382398070092
15595,-9.456133795660342
15751,-9.732302010454244
15909,-10.14382214051821
16068,-10.247875664544583
16229,-10.393538624947
16391,-10.194715052642163
16555,-9.710489607880483
16720,-9.744003158968717
16888,-9.830575231340045
17056,-10.084031759781316
17227,-10.980951083748547
17399,-11.805082185311619
17573,-12.884843074028542
17749,-13.772973492175439
17926,-14.61809960272598
18106,-15.020770308588812
18287,-15.19681386919849
18470,-15.100702472023347
18654,-15.032505659819266
18841,-15.109935027352538
19029,-14.883361749083853
19220,-16.28516521851007
19412,-18.797520888360246
19606,-20.3628880009441
19802,-22.091030936938267
20000,-24.14373633353519
20200,-25.736379831914224
20402,-26.664846226695722
20606,-27.963962646355952
20812,-28.289012057553958
21020,-29.95967278193381
21230,-31.593637926460815
21443,-35.44165337389868
21657,-37.38495171571057
21874,-38.29901587319098
22092,-38.733820101114695
22313,-38.88119560360762
22537,-39.02980981884536
22762,-39.17681971438992
22989,-39.2719984285818
23219,-38.93689101819522
23452,-38.72993417918249
23686,-38.57082224562612
23923,-38.604995032170855
24162,-38.623290523904004
24404,-38.64289475781026
24648,-38.662933584839024
24894,-38.68320102268779
25143,-38.704172846998325
25395,-38.72562339058595
25649,-38.7466880273062
25905,-38.76727085793842
26164,-38.78800542040662
26426,-38.80887124227928
26690,-38.82921351492
26957,-38.8497291088038
27227,-38.87044009011836
27499,-38.890713730925526
27774,-38.91120003283114
28052,-38.9318783293015
28332,-38.95209493638806
28615,-38.97244963554997
28902,-38.99353358537301
29191,-39.01409517931476
29482,-39.03413428001894
29777,-39.054836981357184
