frequency,raw
20,-21.73
21,-20.63
22,-19.58
23,-18.69
24,-17.77
25,-16.85
26,-16.01
27,-15.28
28,-14.62
29,-13.97
30,-13.22
31,-12.56
32,-11.93
33,-11.39
34,-10.72
35,-10.22
36,-9.59
37,-9.13
38,-8.64
39,-8.11
40,-7.70
41,-7.30
42,-6.92
43,-6.71
44,-6.49
45,-6.16
46,-6.00
47,-5.76
48,-5.52
49,-5.45
50,-5.22
51,-5.00
52,-4.86
53,-4.59
54,-4.49
55,-4.22
56,-3.99
57,-3.74
58,-3.52
59,-3.24
60,-3.08
61,-2.92
62,-2.67
63,-2.45
64,-2.27
65,-1.95
66,-1.92
67,-1.75
68,-1.59
69,-1.42
70,-1.26
71,-1.10
72,-0.97
73,-0.97
74,-0.94
75,-0.65
76,-0.65
77,-0.65
78,-0.40
79,-0.32
80,-0.32
81,-0.32
82,-0.28
83,-0.15
84,-0.01
85,0.00
86,0.00
87,0.00
88,0.03
89,0.15
90,0.28
91,0.32
92,0.32
93,0.32
94,0.32
95,0.40
96,0.49
97,0.49
98,0.59
99,0.65
100,0.65
101,0.65
102,0.65
104,0.65
105,0.65
106,0.65
107,0.65
108,0.65
109,0.65
110,0.65
111,0.65
112,0.65
113,0.65
114,0.65
115,0.65
117,0.65
118,0.65
119,0.65
120,0.65
121,0.65
123,0.65
124,0.65
125,0.65
126,0.65
128,0.65
129,0.65
130,0.65
131,0.65
133,0.65
134,0.65
135,0.65
137,0.65
138,0.65
140,0.65
141,0.65
142,0.65
144,0.65
145,0.65
147,0.65
148,0.65
150,0.65
151,0.65
153,0.87
154,0.97
156,0.97
157,0.97
159,0.97
160,0.97
162,0.97
164,0.97
165,0.97
167,0.85
169,0.71
170,0.65
172,0.65
174,0.65
175,0.65
177,0.65
179,0.65
181,0.65
183,0.65
184,0.65
186,0.65
188,0.65
190,0.65
192,0.65
194,0.65
196,0.65
198,0.65
200,0.65
202,0.64
204,0.42
206,0.32
208,0.32
210,0.32
212,0.32
214,0.32
216,0.32
218,0.32
221,0.28
223,0.18
225,0.16
227,0.14
229,0.04
232,0.00
234,-0.04
236,-0.14
239,-0.28
241,-0.32
244,-0.32
246,-0.32
248,-0.32
251,-0.37
253,-0.55
256,-0.65
259,-0.65
261,-0.65
264,-0.76
266,-0.84
269,-0.97
272,-0.97
274,-0.97
277,-0.97
280,-0.97
283,-1.05
286,-1.17
288,-1.25
291,-1.30
294,-1.30
297,-1.30
300,-1.30
303,-1.30
306,-1.30
309,-1.40
312,-1.51
316,-1.62
319,-1.62
322,-1.62
325,-1.62
328,-1.62
332,-1.62
335,-1.62
338,-1.62
342,-1.62
345,-1.62
349,-1.62
352,-1.62
356,-1.62
359,-1.62
363,-1.62
366,-1.62
370,-1.62
374,-1.62
377,-1.62
381,-1.62
385,-1.62
389,-1.62
393,-1.62
397,-1.62
401,-1.62
405,-1.62
409,-1.62
413,-1.62
417,-1.62
421,-1.62
425,-1.62
430,-1.62
434,-1.62
438,-1.62
443,-1.62
447,-1.62
451,-1.62
456,-1.62
460,-1.62
465,-1.62
470,-1.62
474,-1.62
479,-1.62
484,-1.62
489,-1.62
494,-1.62
499,-1.62
504,-1.73
509,-1.78
514,-1.79
519,-1.90
524,-1.95
529,-1.95
535,-1.95
540,-1.95
545,-1.95
551,-1.95
556,-1.95
562,-1.99
568,-2.11
573,-2.01
579,-2.00
585,-2.11
591,-2.11
596,-2.17
602,-2.26
608,-2.15
615,-2.11
621,-2.07
627,-1.96
633,-1.95
639,-1.95
646,-1.95
652,-1.95
659,-1.95
665,-1.95
672,-1.95
679,-1.95
686,-1.95
692,-1.95
699,-1.87
706,-1.76
713,-1.65
721,-1.62
728,-1.62
735,-1.62
742,-1.62
750,-1.62
757,-1.62
765,-1.50
773,-1.38
780,-1.30
788,-1.30
796,-1.30
804,-1.30
812,-1.30
820,-1.20
828,-1.09
837,-0.97
845,-0.97
853,-0.97
862,-0.97
871,-0.97
879,-0.84
888,-0.65
897,-0.65
906,-0.65
915,-0.61
924,-0.50
933,-0.39
943,-0.32
952,-0.32
962,-0.21
971,-0.11
981,0.00
991,0.00
1001,0.00
1011,0.03
1021,0.14
1031,0.25
1041,0.32
1052,0.32
1062,0.32
1073,0.32
1084,0.32
1094,0.32
1105,0.32
1116,0.32
1128,0.32
1139,0.32
1150,0.32
1162,0.32
1173,0.16
1185,0.00
1197,0.00
1209,-0.20
1221,-0.37
1233,-0.48
1246,-0.72
1258,-0.94
1271,-1.17
1283,-1.38
1296,-1.61
1309,-1.83
1322,-2.06
1335,-2.45
1349,-2.84
1362,-3.05
1376,-3.39
1390,-3.73
1404,-4.06
1418,-4.29
1432,-4.58
1446,-4.89
1461,-5.12
1475,-5.34
1490,-5.54
1505,-5.65
1520,-5.77
1535,-5.84
1550,-5.84
1566,-5.84
1582,-5.78
1597,-5.68
1613,-5.56
1629,-5.51
1646,-5.48
1662,-5.26
1679,-5.19
1696,-5.13
1713,-4.90
1730,-4.77
1747,-4.66
1764,-4.55
1782,-4.34
1800,-4.16
1818,-4.05
1836,-3.94
1854,-3.89
1873,-3.88
1892,-3.76
1911,-3.65
1930,-3.57
1949,-3.57
1969,-3.57
1988,-3.57
2008,-3.57
2028,-3.57
2048,-3.57
2069,-3.57
2090,-3.57
2111,-3.71
2132,-3.89
2153,-3.89
2175,-3.89
2196,-3.92
2218,-4.03
2240,-4.14
2263,-4.30
2285,-4.52
2308,-4.54
2331,-4.65
2355,-4.86
2378,-4.86
2402,-5.00
2426,-5.19
2450,-5.19
2475,-5.35
2500,-5.51
2525,-5.51
2550,-5.51
2575,-5.60
2601,-5.83
2627,-5.84
2653,-5.89
2680,-6.01
2707,-6.12
2734,-6.16
2761,-6.20
2789,-6.43
2817,-6.49
2845,-6.49
2873,-6.49
2902,-6.49
2931,-6.53
2960,-6.64
2990,-6.76
3020,-6.81
3050,-6.81
3080,-6.81
3111,-6.81
3142,-6.83
3174,-6.94
3206,-6.97
3238,-6.94
3270,-6.83
3303,-6.81
3336,-6.81
3369,-6.81
3403,-6.81
3437,-6.69
3471,-6.49
3506,-6.49
3541,-6.34
3576,-6.14
3612,-6.03
3648,-5.83
3685,-5.60
3721,-5.38
3759,-5.16
3796,-4.93
3834,-4.71
3873,-4.26
3911,-3.94
3950,-3.70
3990,-3.36
4030,-3.02
4070,-2.69
4111,-2.35
4152,-2.01
4193,-1.65
4235,-1.20
4278,-0.94
4321,-0.61
4364,-0.16
4407,0.06
4451,0.40
4496,0.83
4541,1.06
4586,1.28
4632,1.51
4679,1.73
4725,2.04
4773,2.35
4820,2.57
4868,2.69
4917,2.81
4966,2.92
5016,3.03
5066,3.14
5117,3.24
5168,3.24
5220,3.32
5272,3.43
5325,3.54
5378,3.57
5432,3.53
5486,3.42
5541,3.30
5596,3.24
5652,3.24
5709,3.24
5766,3.18
5823,3.07
5882,2.95
5940,2.92
6000,2.89
6060,2.78
6120,2.67
6182,2.59
6244,2.59
6306,2.59
6369,2.54
6433,2.43
6497,2.32
6562,2.27
6628,2.27
6694,2.27
6761,2.27
6828,2.27
6897,2.27
6966,2.27
7035,2.27
7106,2.27
7177,2.27
7249,2.38
7321,2.59
7394,2.59
7468,2.59
7543,2.61
7618,2.72
7694,2.83
7771,2.92
7849,2.92
7928,2.92
8007,2.96
8087,3.07
8168,3.19
8250,3.24
8332,3.24
8415,3.24
8499,3.24
8584,3.24
8670,3.24
8757,3.24
8845,3.24
8933,3.24
9022,3.15
9113,3.04
9204,2.93
9296,2.92
9389,2.92
9483,2.92
9577,2.92
9673,2.92
9770,2.92
9868,2.92
9966,2.76
10066,2.56
10167,2.45
10268,2.34
10371,2.18
10475,1.96
10579,1.73
10685,1.51
10792,1.28
10900,1.06
11009,0.83
11119,0.61
11230,0.39
11343,0.24
11456,0.13
11571,0.02
11686,-0.09
11803,-0.21
11921,-0.32
12040,-0.43
12161,-0.54
12282,-0.66
12405,-0.77
12529,-0.88
12655,-0.97
12781,-0.97
12909,-0.97
13038,-0.97
13168,-0.97
13300,-0.97
13433,-0.93
13567,-0.81
13703,-0.70
13840,-0.77
13978,-0.97
14118,-0.97
14259,-1.12
14402,-1.34
14546,-1.57
14692,-1.71
14838,-1.82
14987,-1.93
15137,-2.04
15288,-2.16
15441,-2.27
15595,-2.27
15751,-2.39
15909,-2.61
16068,-2.72
16229,-2.90
16391,-3.17
16555,-3.62
16720,-3.99
16888,-4.36
17056,-4.81
17227,-5.26
17399,-5.66
17573,-6.00
17749,-6.22
17926,-6.39
18106,-6.51
18287,-6.73
18470,-6.89
18654,-7.00
18841,-7.11
19029,-7.14
19220,-7.21
19412,-7.43
19606,-7.46
19802,-7.46
20000,-7.46
