frequency,raw,error,smoothed,error_smoothed,equalization,parametric_eq,fixed_band_eq,equalized_raw,equalized_smoothed,target
20.00,0.43,1.74,0.37,1.66,-1.66,-1.65,-0.59,-1.23,-1.30,-1.32
20.20,0.44,1.72,0.40,1.67,-1.67,-1.67,-0.61,-1.24,-1.27,-1.29
20.40,0.44,1.69,0.43,1.69,-1.69,-1.69,-0.63,-1.25,-1.25,-1.26
20.61,0.45,1.68,0.46,1.70,-1.70,-1.70,-0.65,-1.25,-1.23,-1.24
20.81,0.45,1.65,0.49,1.70,-1.70,-1.72,-0.67,-1.26,-1.22,-1.21
21.02,0.46,1.63,0.51,1.71,-1.71,-1.73,-0.69,-1.26,-1.20,-1.18
21.23,0.49,1.66,0.53,1.72,-1.72,-1.74,-0.71,-1.23,-1.19,-1.17
21.44,0.52,1.68,0.55,1.72,-1.72,-1.75,-0.74,-1.21,-1.17,-1.16
21.66,0.55,1.70,0.57,1.73,-1.73,-1.76,-0.76,-1.18,-1.16,-1.15
21.87,0.57,1.72,0.58,1.73,-1.73,-1.76,-0.79,-1.17,-1.15,-1.15
22.09,0.59,1.73,0.59,1.73,-1.73,-1.77,-0.81,-1.15,-1.15,-1.14
22.31,0.61,1.75,0.60,1.74,-1.74,-1.77,-0.84,-1.13,-1.14,-1.14
22.54,0.62,1.76,0.61,1.75,-1.75,-1.78,-0.86,-1.13,-1.14,-1.14
22.76,0.63,1.77,0.61,1.75,-1.75,-1.78,-0.89,-1.13,-1.14,-1.14
22.99,0.64,1.79,0.62,1.76,-1.76,-1.78,-0.92,-1.12,-1.14,-1.15
23.22,0.63,1.78,0.61,1.75,-1.75,-1.77,-0.94,-1.13,-1.14,-1.15
23.45,0.62,1.77,0.60,1.75,-1.75,-1.77,-0.97,-1.13,-1.14,-1.15
23.69,0.61,1.76,0.59,1.74,-1.74,-1.77,-1.00,-1.13,-1.15,-1.15
23.92,0.59,1.74,0.57,1.72,-1.72,-1.76,-1.03,-1.13,-1.15,-1.15
24.16,0.57,1.71,0.56,1.70,-1.70,-1.75,-1.06,-1.14,-1.15,-1.14
24.40,0.53,1.67,0.53,1.68,-1.68,-1.74,-1.09,-1.16,-1.15,-1.14
24.65,0.50,1.65,0.51,1.66,-1.66,-1.73,-1.12,-1.17,-1.15,-1.15
24.89,0.46,1.61,0.49,1.64,-1.64,-1.71,-1.15,-1.18,-1.15,-1.15
25.14,0.44,1.59,0.46,1.62,-1.62,-1.70,-1.19,-1.18,-1.16,-1.15
25.39,0.43,1.58,0.44,1.59,-1.59,-1.68,-1.22,-1.16,-1.16,-1.15
25.65,0.41,1.56,0.41,1.57,-1.57,-1.67,-1.25,-1.16,-1.16,-1.16
25.91,0.40,1.56,0.39,1.55,-1.55,-1.65,-1.28,-1.15,-1.16,-1.17
26.16,0.38,1.54,0.37,1.53,-1.53,-1.63,-1.31,-1.15,-1.16,-1.17
26.43,0.36,1.52,0.35,1.51,-1.51,-1.61,-1.34,-1.16,-1.16,-1.17
26.69,0.33,1.49,0.33,1.50,-1.50,-1.59,-1.37,-1.17,-1.17,-1.17
26.96,0.31,1.48,0.32,1.49,-1.49,-1.57,-1.40,-1.18,-1.17,-1.17
27.23,0.30,1.47,0.30,1.48,-1.48,-1.54,-1.43,-1.18,-1.17,-1.17
27.50,0.28,1.45,0.29,1.47,-1.47,-1.52,-1.46,-1.19,-1.18,-1.17
27.77,0.27,1.45,0.28,1.46,-1.46,-1.50,-1.48,-1.19,-1.18,-1.18
28.05,0.26,1.44,0.26,1.44,-1.44,-1.47,-1.51,-1.19,-1.18,-1.18
28.33,0.25,1.44,0.24,1.43,-1.43,-1.45,-1.53,-1.18,-1.19,-1.19
28.62,0.24,1.43,0.22,1.41,-1.41,-1.42,-1.55,-1.18,-1.19,-1.19
28.90,0.22,1.41,0.20,1.40,-1.40,-1.39,-1.57,-1.18,-1.19,-1.19
29.19,0.20,1.40,0.18,1.38,-1.38,-1.37,-1.59,-1.18,-1.20,-1.20
29.48,0.18,1.37,0.16,1.36,-1.36,-1.34,-1.61,-1.18,-1.20,-1.20
29.78,0.15,1.35,0.13,1.34,-1.34,-1.32,-1.62,-1.19,-1.21,-1.21
30.08,0.12,1.33,0.11,1.32,-1.32,-1.29,-1.63,-1.20,-1.21,-1.21
30.38,0.09,1.31,0.08,1.30,-1.30,-1.26,-1.64,-1.21,-1.22,-1.22
30.68,0.05,1.27,0.06,1.28,-1.28,-1.24,-1.64,-1.23,-1.22,-1.22
30.99,0.02,1.25,0.03,1.26,-1.26,-1.21,-1.65,-1.24,-1.23,-1.23
31.30,-0.00,1.23,0.01,1.25,-1.25,-1.18,-1.65,-1.25,-1.23,-1.23
31.61,-0.03,1.20,-0.00,1.23,-1.23,-1.16,-1.64,-1.27,-1.24,-1.23
31.93,-0.05,1.19,-0.02,1.22,-1.22,-1.13,-1.64,-1.28,-1.24,-1.24
32.24,-0.06,1.19,-0.03,1.22,-1.22,-1.10,-1.63,-1.28,-1.25,-1.26
32.57,-0.06,1.19,-0.05,1.21,-1.21,-1.08,-1.62,-1.27,-1.26,-1.26
32.89,-0.06,1.20,-0.06,1.20,-1.20,-1.05,-1.60,-1.27,-1.26,-1.26
33.22,-0.06,1.21,-0.07,1.20,-1.20,-1.03,-1.59,-1.26,-1.27,-1.27
33.55,-0.06,1.21,-0.09,1.19,-1.19,-1.00,-1.57,-1.25,-1.28,-1.27
33.89,-0.06,1.22,-0.10,1.18,-1.18,-0.98,-1.55,-1.24,-1.28,-1.28
34.23,-0.08,1.20,-0.12,1.17,-1.17,-0.95,-1.53,-1.25,-1.29,-1.29
34.57,-0.12,1.17,-0.14,1.15,-1.15,-0.93,-1.50,-1.28,-1.30,-1.30
34.92,-0.15,1.16,-0.17,1.14,-1.14,-0.91,-1.48,-1.29,-1.31,-1.31
35.27,-0.19,1.12,-0.20,1.12,-1.12,-0.88,-1.45,-1.31,-1.31,-1.31
35.62,-0.23,1.09,-0.23,1.10,-1.10,-0.86,-1.42,-1.33,-1.32,-1.32
35.97,-0.27,1.06,-0.26,1.07,-1.07,-0.84,-1.39,-1.35,-1.33,-1.34
36.33,-0.30,1.03,-0.29,1.05,-1.05,-0.82,-1.36,-1.35,-1.34,-1.34
36.70,-0.34,1.01,-0.33,1.02,-1.02,-0.80,-1.33,-1.37,-1.35,-1.35
37.06,-0.37,0.99,-0.36,1.00,-1.00,-0.77,-1.29,-1.37,-1.36,-1.36
37.43,-0.40,0.96,-0.39,0.98,-0.98,-0.75,-1.26,-1.38,-1.37,-1.36
37.81,-0.43,0.94,-0.42,0.96,-0.96,-0.73,-1.23,-1.39,-1.38,-1.38
38.19,-0.45,0.94,-0.45,0.94,-0.94,-0.71,-1.19,-1.39,-1.39,-1.39
38.57,-0.47,0.92,-0.47,0.92,-0.92,-0.69,-1.16,-1.40,-1.40,-1.39
38.95,-0.50,0.90,-0.50,0.91,-0.91,-0.68,-1.12,-1.41,-1.41,-1.41
39.34,-0.52,0.90,-0.52,0.89,-0.89,-0.66,-1.09,-1.42,-1.42,-1.42
39.74,-0.54,0.89,-0.54,0.88,-0.88,-0.64,-1.06,-1.42,-1.42,-1.43
40.14,-0.57,0.86,-0.57,0.86,-0.86,-0.62,-1.02,-1.44,-1.43,-1.43
40.54,-0.59,0.85,-0.59,0.85,-0.85,-0.60,-0.99,-1.44,-1.44,-1.45
40.94,-0.62,0.83,-0.62,0.83,-0.83,-0.59,-0.96,-1.45,-1.45,-1.45
41.35,-0.64,0.82,-0.65,0.81,-0.81,-0.57,-0.92,-1.45,-1.46,-1.46
41.76,-0.67,0.80,-0.69,0.78,-0.78,-0.55,-0.89,-1.45,-1.47,-1.47
42.18,-0.71,0.76,-0.73,0.75,-0.75,-0.54,-0.86,-1.47,-1.48,-1.47
42.60,-0.75,0.73,-0.77,0.72,-0.72,-0.52,-0.83,-1.48,-1.49,-1.49
43.03,-0.79,0.70,-0.81,0.69,-0.69,-0.51,-0.80,-1.48,-1.50,-1.49
43.46,-0.85,0.65,-0.86,0.66,-0.66,-0.49,-0.77,-1.51,-1.52,-1.51
43.90,-0.90,0.63,-0.91,0.62,-0.62,-0.48,-0.74,-1.52,-1.53,-1.53
44.33,-0.95,0.59,-0.95,0.58,-0.58,-0.46,-0.71,-1.54,-1.54,-1.54
44.78,-1.01,0.55,-1.00,0.55,-0.55,-0.45,-0.68,-1.56,-1.55,-1.56
45.23,-1.07,0.50,-1.05,0.52,-0.52,-0.43,-0.65,-1.59,-1.57,-1.57
45.68,-1.12,0.47,-1.10,0.49,-0.49,-0.42,-0.62,-1.61,-1.58,-1.59
46.13,-1.17,0.43,-1.14,0.45,-0.45,-0.41,-0.59,-1.63,-1.60,-1.61
46.60,-1.20,0.41,-1.19,0.42,-0.42,-0.39,-0.57,-1.63,-1.61,-1.61
47.06,-1.24,0.38,-1.24,0.39,-0.39,-0.38,-0.54,-1.64,-1.63,-1.63
47.53,-1.28,0.36,-1.29,0.36,-0.36,-0.37,-0.52,-1.65,-1.65,-1.64
48.01,-1.32,0.33,-1.33,0.34,-0.34,-0.36,-0.49,-1.66,-1.67,-1.65
48.49,-1.35,0.32,-1.38,0.31,-0.31,-0.34,-0.47,-1.66,-1.69,-1.68
48.97,-1.39,0.31,-1.43,0.28,-0.28,-0.33,-0.44,-1.67,-1.70,-1.70
49.46,-1.46,0.27,-1.48,0.25,-0.25,-0.32,-0.42,-1.71,-1.72,-1.73
49.96,-1.52,0.23,-1.53,0.21,-0.21,-0.31,-0.39,-1.74,-1.74,-1.76
50.46,-1.58,0.18,-1.58,0.18,-0.18,-0.30,-0.37,-1.76,-1.76,-1.76
50.96,-1.64,0.14,-1.64,0.15,-0.15,-0.29,-0.35,-1.79,-1.78,-1.78
51.47,-1.70,0.11,-1.69,0.11,-0.11,-0.28,-0.33,-1.81,-1.80,-1.81
51.99,-1.76,0.07,-1.75,0.07,-0.07,-0.27,-0.31,-1.83,-1.82,-1.83
52.51,-1.81,0.03,-1.81,0.03,-0.03,-0.26,-0.29,-1.85,-1.84,-1.84
53.03,-1.86,-0.01,-1.87,-0.00,0.00,-0.25,-0.27,-1.86,-1.86,-1.86
53.56,-1.91,-0.04,-1.92,-0.04,0.04,-0.24,-0.25,-1.87,-1.88,-1.88
54.10,-1.96,-0.07,-1.98,-0.08,0.08,-0.23,-0.23,-1.89,-1.90,-1.90
54.64,-2.04,-0.13,-2.03,-0.11,0.11,-0.22,-0.21,-1.93,-1.92,-1.92
55.18,-2.10,-0.17,-2.07,-0.14,0.14,-0.21,-0.19,-1.96,-1.93,-1.94
55.74,-2.14,-0.18,-2.12,-0.17,0.17,-0.20,-0.17,-1.97,-1.95,-1.96
56.29,-2.17,-0.20,-2.17,-0.20,0.20,-0.19,-0.15,-1.98,-1.97,-1.97
56.86,-2.20,-0.21,-2.21,-0.22,0.22,-0.18,-0.13,-1.98,-1.99,-1.99
57.42,-2.24,-0.23,-2.25,-0.25,0.25,-0.17,-0.11,-1.99,-2.00,-2.01
58.00,-2.28,-0.26,-2.30,-0.27,0.27,-0.16,-0.10,-2.01,-2.02,-2.02
58.58,-2.32,-0.29,-2.34,-0.30,0.30,-0.15,-0.08,-2.03,-2.04,-2.04
59.16,-2.36,-0.31,-2.38,-0.32,0.32,-0.14,-0.06,-2.05,-2.06,-2.05
59.76,-2.40,-0.34,-2.41,-0.34,0.34,-0.13,-0.05,-2.07,-2.08,-2.06
60.35,-2.44,-0.35,-2.45,-0.35,0.35,-0.12,-0.03,-2.09,-2.10,-2.09
60.96,-2.48,-0.38,-2.48,-0.36,0.36,-0.11,-0.02,-2.12,-2.12,-2.10
61.57,-2.51,-0.37,-2.51,-0.38,0.38,-0.10,-0.00,-2.14,-2.14,-2.14
62.18,-2.55,-0.39,-2.54,-0.39,0.39,-0.10,0.02,-2.16,-2.16,-2.16
62.80,-2.57,-0.39,-2.57,-0.40,0.40,-0.09,0.03,-2.18,-2.18,-2.18
63.43,-2.60,-0.40,-2.60,-0.40,0.40,-0.08,0.04,-2.20,-2.20,-2.21
64.07,-2.63,-0.41,-2.62,-0.40,0.40,-0.07,0.06,-2.23,-2.22,-2.22
64.71,-2.63,-0.39,-2.63,-0.40,0.40,-0.06,0.07,-2.24,-2.24,-2.24
65.35,-2.63,-0.37,-2.64,-0.38,0.38,-0.05,0.09,-2.25,-2.26,-2.26
66.01,-2.63,-0.36,-2.64,-0.37,0.37,-0.04,0.10,-2.27,-2.28,-2.28
66.67,-2.63,-0.34,-2.64,-0.34,0.34,-0.03,0.12,-2.29,-2.30,-2.30
67.33,-2.63,-0.32,-2.62,-0.31,0.31,-0.03,0.13,-2.33,-2.32,-2.32
68.01,-2.63,-0.30,-2.60,-0.26,0.26,-0.02,0.14,-2.37,-2.34,-2.34
68.69,-2.60,-0.25,-2.57,-0.21,0.21,-0.01,0.16,-2.39,-2.36,-2.36
69.37,-2.56,-0.19,-2.53,-0.15,0.15,0.00,0.17,-2.41,-2.38,-2.38
70.07,-2.52,-0.12,-2.48,-0.09,0.09,0.01,0.18,-2.44,-2.40,-2.40
70.77,-2.47,-0.06,-2.43,-0.02,0.02,0.02,0.20,-2.46,-2.42,-2.41
71.48,-2.41,0.02,-2.38,0.06,-0.06,0.03,0.21,-2.47,-2.44,-2.43
72.19,-2.34,0.12,-2.33,0.13,-0.13,0.04,0.23,-2.47,-2.46,-2.46
72.91,-2.29,0.19,-2.28,0.20,-0.20,0.05,0.24,-2.49,-2.48,-2.48
73.64,-2.22,0.28,-2.25,0.26,-0.26,0.06,0.25,-2.48,-2.50,-2.51
74.38,-2.16,0.36,-2.22,0.30,-0.30,0.07,0.27,-2.47,-2.52,-2.52
75.12,-2.12,0.43,-2.20,0.34,-0.34,0.07,0.28,-2.46,-2.54,-2.55
75.87,-2.12,0.44,-2.19,0.37,-0.37,0.08,0.30,-2.49,-2.56,-2.57
76.63,-2.12,0.46,-2.20,0.38,-0.38,0.09,0.31,-2.51,-2.58,-2.58
77.40,-2.15,0.45,-2.21,0.39,-0.39,0.10,0.33,-2.55,-2.60,-2.60
78.17,-2.20,0.43,-2.23,0.39,-0.39,0.11,0.34,-2.59,-2.62,-2.63
78.95,-2.26,0.37,-2.27,0.38,-0.38,0.12,0.36,-2.64,-2.64,-2.64
79.74,-2.36,0.29,-2.31,0.35,-0.35,0.14,0.38,-2.72,-2.66,-2.66
80.54,-2.44,0.23,-2.36,0.32,-0.32,0.15,0.39,-2.76,-2.68,-2.68
81.35,-2.49,0.21,-2.42,0.28,-0.28,0.16,0.41,-2.77,-2.70,-2.70
82.16,-2.53,0.19,-2.49,0.23,-0.23,0.17,0.43,-2.76,-2.72,-2.72
82.98,-2.54,0.19,-2.56,0.18,-0.18,0.18,0.44,-2.73,-2.74,-2.73
83.81,-2.58,0.18,-2.62,0.14,-0.14,0.19,0.46,-2.72,-2.76,-2.76
84.65,-2.64,0.14,-2.69,0.09,-0.09,0.20,0.48,-2.73,-2.78,-2.79
85.50,-2.71,0.09,-2.75,0.05,-0.05,0.22,0.50,-2.76,-2.80,-2.80
86.35,-2.80,0.02,-2.81,0.01,-0.01,0.23,0.52,-2.81,-2.82,-2.82
87.22,-2.87,-0.02,-2.87,-0.03,0.03,0.24,0.54,-2.85,-2.85,-2.85
88.09,-2.95,-0.08,-2.93,-0.06,0.06,0.25,0.56,-2.89,-2.87,-2.87
88.97,-3.03,-0.14,-2.99,-0.09,0.09,0.27,0.58,-2.94,-2.89,-2.89
89.86,-3.06,-0.15,-3.04,-0.12,0.12,0.28,0.60,-2.94,-2.92,-2.91
90.76,-3.12,-0.17,-3.10,-0.16,0.16,0.30,0.62,-2.97,-2.94,-2.95
91.66,-3.16,-0.20,-3.15,-0.18,0.18,0.31,0.64,-2.98,-2.97,-2.97
92.58,-3.20,-0.20,-3.20,-0.21,0.21,0.33,0.67,-3.00,-3.00,-3.00
93.51,-3.24,-0.22,-3.25,-0.22,0.22,0.34,0.69,-3.02,-3.02,-3.02
94.44,-3.29,-0.24,-3.29,-0.23,0.23,0.36,0.71,-3.06,-3.05,-3.05
95.39,-3.34,-0.27,-3.33,-0.24,0.24,0.37,0.74,-3.10,-3.08,-3.08
96.34,-3.39,-0.28,-3.37,-0.25,0.25,0.39,0.76,-3.14,-3.11,-3.11
97.30,-3.43,-0.29,-3.41,-0.27,0.27,0.41,0.79,-3.16,-3.14,-3.14
98.28,-3.46,-0.29,-3.46,-0.29,0.29,0.43,0.81,-3.18,-3.17,-3.17
99.26,-3.48,-0.28,-3.51,-0.31,0.31,0.45,0.84,-3.17,-3.20,-3.20
100.25,-3.52,-0.29,-3.57,-0.34,0.34,0.47,0.86,-3.18,-3.23,-3.23
101.25,-3.57,-0.31,-3.63,-0.37,0.37,0.49,0.89,-3.20,-3.26,-3.26
102.27,-3.64,-0.35,-3.70,-0.41,0.41,0.51,0.91,-3.23,-3.29,-3.29
103.29,-3.73,-0.41,-3.77,-0.46,0.46,0.53,0.94,-3.28,-3.32,-3.33
104.32,-3.84,-0.50,-3.85,-0.50,0.50,0.55,0.96,-3.34,-3.35,-3.35
105.37,-3.95,-0.58,-3.93,-0.56,0.56,0.57,0.99,-3.40,-3.38,-3.38
106.42,-4.04,-0.64,-4.02,-0.61,0.61,0.60,1.02,-3.43,-3.41,-3.41
107.48,-4.13,-0.70,-4.11,-0.67,0.67,0.62,1.04,-3.47,-3.44,-3.44
108.56,-4.22,-0.75,-4.20,-0.73,0.73,0.65,1.06,-3.50,-3.47,-3.47
109.64,-4.31,-0.81,-4.29,-0.79,0.79,0.67,1.09,-3.52,-3.50,-3.50
110.74,-4.39,-0.86,-4.39,-0.85,0.85,0.70,1.11,-3.54,-3.54,-3.53
111.85,-4.48,-0.92,-4.48,-0.91,0.91,0.73,1.13,-3.57,-3.57,-3.56
112.97,-4.57,-0.96,-4.57,-0.97,0.97,0.76,1.15,-3.61,-3.61,-3.61
114.10,-4.65,-1.01,-4.66,-1.02,1.02,0.79,1.17,-3.63,-3.64,-3.64
115.24,-4.72,-1.05,-4.74,-1.06,1.06,0.82,1.19,-3.66,-3.68,-3.68
116.39,-4.79,-1.08,-4.82,-1.10,1.10,0.85,1.21,-3.69,-3.71,-3.72
117.55,-4.89,-1.14,-4.89,-1.14,1.14,0.88,1.22,-3.75,-3.75,-3.75
118.73,-4.96,-1.17,-4.96,-1.18,1.18,0.92,1.24,-3.79,-3.78,-3.79
119.92,-5.05,-1.24,-5.02,-1.21,1.21,0.95,1.25,-3.85,-3.82,-3.82
121.12,-5.12,-1.27,-5.09,-1.23,1.23,0.99,1.26,-3.89,-3.85,-3.85
122.33,-5.17,-1.28,-5.15,-1.26,1.26,1.02,1.27,-3.92,-3.89,-3.89
123.55,-5.21,-1.30,-5.20,-1.28,1.28,1.06,1.28,-3.94,-3.92,-3.92
124.79,-5.24,-1.29,-5.25,-1.29,1.29,1.10,1.28,-3.95,-3.96,-3.95
126.03,-5.28,-1.30,-5.30,-1.31,1.31,1.14,1.29,-3.98,-3.99,-3.99
127.29,-5.33,-1.31,-5.34,-1.32,1.32,1.18,1.29,-4.02,-4.03,-4.02
128.57,-5.38,-1.32,-5.39,-1.33,1.33,1.21,1.29,-4.06,-4.06,-4.07
129.85,-5.42,-1.32,-5.43,-1.33,1.33,1.25,1.29,-4.09,-4.09,-4.10
131.15,-5.46,-1.33,-5.46,-1.34,1.34,1.29,1.29,-4.13,-4.13,-4.13
132.46,-5.51,-1.35,-5.50,-1.34,1.34,1.34,1.28,-4.17,-4.16,-4.16
133.79,-5.55,-1.37,-5.54,-1.35,1.35,1.38,1.28,-4.20,-4.19,-4.19
135.12,-5.57,-1.35,-5.58,-1.36,1.36,1.41,1.27,-4.21,-4.22,-4.23
136.48,-5.61,-1.36,-5.62,-1.37,1.37,1.45,1.26,-4.24,-4.25,-4.25
137.84,-5.65,-1.37,-5.67,-1.39,1.39,1.49,1.25,-4.26,-4.28,-4.28
139.22,-5.70,-1.38,-5.72,-1.41,1.41,1.53,1.24,-4.29,-4.31,-4.32
140.61,-5.76,-1.42,-5.76,-1.43,1.43,1.56,1.23,-4.33,-4.33,-4.35
142.02,-5.81,-1.46,-5.81,-1.45,1.45,1.60,1.21,-4.36,-4.36,-4.36
143.44,-5.85,-1.47,-5.86,-1.48,1.48,1.63,1.20,-4.37,-4.39,-4.38
144.87,-5.90,-1.49,-5.91,-1.50,1.50,1.66,1.19,-4.40,-4.41,-4.41
146.32,-5.96,-1.52,-5.97,-1.53,1.53,1.69,1.17,-4.43,-4.44,-4.44
147.78,-6.02,-1.57,-6.02,-1.55,1.55,1.71,1.16,-4.47,-4.46,-4.45
149.26,-6.07,-1.59,-6.07,-1.58,1.58,1.74,1.14,-4.49,-4.49,-4.48
150.75,-6.14,-1.63,-6.12,-1.61,1.61,1.75,1.13,-4.54,-4.51,-4.52
152.26,-6.19,-1.65,-6.18,-1.64,1.64,1.77,1.11,-4.56,-4.54,-4.54
153.78,-6.24,-1.68,-6.24,-1.67,1.67,1.78,1.10,-4.57,-4.57,-4.56
155.32,-6.27,-1.68,-6.29,-1.70,1.70,1.79,1.09,-4.57,-4.59,-4.60
156.88,-6.32,-1.70,-6.35,-1.73,1.73,1.79,1.07,-4.59,-4.62,-4.62
158.44,-6.36,-1.71,-6.40,-1.75,1.75,1.79,1.06,-4.61,-4.65,-4.65
160.03,-6.40,-1.72,-6.45,-1.77,1.77,1.79,1.04,-4.63,-4.68,-4.68
161.63,-6.46,-1.75,-6.48,-1.78,1.78,1.78,1.03,-4.69,-4.71,-4.71
163.24,-6.52,-1.78,-6.51,-1.78,1.78,1.76,1.02,-4.75,-4.74,-4.74
164.88,-6.57,-1.81,-6.53,-1.77,1.77,1.75,1.01,-4.80,-4.76,-4.76
166.53,-6.62,-1.83,-6.55,-1.75,1.75,1.73,1.00,-4.87,-4.79,-4.79
168.19,-6.66,-1.84,-6.56,-1.73,1.73,1.71,0.99,-4.93,-4.82,-4.82
169.87,-6.64,-1.79,-6.56,-1.71,1.71,1.68,0.98,-4.94,-4.85,-4.85
171.57,-6.59,-1.72,-6.55,-1.67,1.67,1.65,0.97,-4.92,-4.88,-4.88
173.29,-6.53,-1.63,-6.55,-1.64,1.64,1.62,0.96,-4.89,-4.91,-4.90
175.02,-6.48,-1.55,-6.54,-1.60,1.60,1.59,0.96,-4.88,-4.94,-4.93
176.77,-6.45,-1.49,-6.53,-1.56,1.56,1.55,0.95,-4.90,-4.97,-4.97
178.54,-6.45,-1.45,-6.51,-1.51,1.51,1.52,0.95,-4.94,-5.00,-5.00
180.32,-6.44,-1.42,-6.49,-1.47,1.47,1.48,0.94,-4.97,-5.03,-5.03
182.13,-6.43,-1.38,-6.48,-1.42,1.42,1.44,0.94,-5.01,-5.06,-5.05
183.95,-6.44,-1.36,-6.46,-1.38,1.38,1.40,0.93,-5.07,-5.08,-5.09
185.79,-6.45,-1.34,-6.45,-1.33,1.33,1.36,0.93,-5.12,-5.11,-5.11
187.65,-6.45,-1.31,-6.43,-1.29,1.29,1.32,0.93,-5.16,-5.14,-5.14
189.52,-6.45,-1.29,-6.43,-1.26,1.26,1.28,0.93,-5.19,-5.16,-5.17
191.42,-6.45,-1.26,-6.42,-1.23,1.23,1.23,0.93,-5.22,-5.19,-5.19
193.33,-6.45,-1.24,-6.41,-1.20,1.20,1.19,0.93,-5.25,-5.21,-5.21
195.27,-6.42,-1.19,-6.40,-1.17,1.17,1.15,0.93,-5.26,-5.24,-5.23
197.22,-6.39,-1.14,-6.39,-1.13,1.13,1.11,0.93,-5.26,-5.26,-5.25
199.19,-6.37,-1.09,-6.37,-1.09,1.09,1.07,0.94,-5.28,-5.27,-5.29
201.18,-6.33,-1.04,-6.34,-1.05,1.05,1.03,0.94,-5.28,-5.29,-5.30
203.19,-6.30,-1.00,-6.32,-1.01,1.01,1.00,0.94,-5.29,-5.31,-5.31
205.23,-6.28,-0.96,-6.30,-0.97,0.97,0.96,0.94,-5.31,-5.32,-5.33
207.28,-6.27,-0.95,-6.27,-0.94,0.94,0.92,0.95,-5.34,-5.34,-5.33
209.35,-6.24,-0.90,-6.25,-0.90,0.90,0.89,0.95,-5.34,-5.35,-5.34
211.44,-6.22,-0.86,-6.23,-0.87,0.87,0.85,0.95,-5.35,-5.35,-5.36
213.56,-6.18,-0.82,-6.20,-0.84,0.84,0.82,0.96,-5.34,-5.36,-5.36
215.69,-6.17,-0.81,-6.18,-0.82,0.82,0.79,0.96,-5.36,-5.37,-5.36
217.85,-6.17,-0.80,-6.16,-0.79,0.79,0.75,0.96,-5.38,-5.37,-5.37
220.03,-6.14,-0.77,-6.15,-0.78,0.78,0.72,0.96,-5.37,-5.37,-5.38
222.23,-6.13,-0.75,-6.13,-0.76,0.76,0.69,0.96,-5.37,-5.37,-5.38
224.45,-6.13,-0.76,-6.12,-0.75,0.75,0.66,0.97,-5.39,-5.37,-5.37
226.70,-6.13,-0.77,-6.10,-0.74,0.74,0.63,0.97,-5.40,-5.37,-5.37
228.96,-6.08,-0.72,-6.09,-0.73,0.73,0.61,0.96,-5.36,-5.36,-5.36
231.25,-6.08,-0.73,-6.08,-0.72,0.72,0.58,0.96,-5.36,-5.36,-5.35
233.57,-6.04,-0.70,-6.07,-0.72,0.72,0.55,0.96,-5.33,-5.35,-5.35
235.90,-6.03,-0.69,-6.06,-0.71,0.71,0.53,0.95,-5.32,-5.34,-5.34
238.26,-6.03,-0.69,-6.05,-0.71,0.71,0.50,0.95,-5.32,-5.33,-5.34
240.64,-6.03,-0.71,-6.03,-0.71,0.71,0.48,0.94,-5.32,-5.32,-5.32
243.05,-6.03,-0.72,-6.02,-0.71,0.71,0.46,0.93,-5.32,-5.31,-5.31
245.48,-6.00,-0.71,-6.01,-0.71,0.71,0.44,0.92,-5.29,-5.29,-5.29
247.93,-5.99,-0.71,-5.99,-0.71,0.71,0.41,0.91,-5.28,-5.28,-5.28
250.41,-5.99,-0.72,-5.98,-0.71,0.71,0.39,0.89,-5.28,-5.26,-5.27
252.92,-5.97,-0.72,-5.96,-0.71,0.71,0.37,0.88,-5.26,-5.25,-5.25
255.45,-5.95,-0.73,-5.94,-0.72,0.72,0.35,0.86,-5.24,-5.23,-5.22
258.00,-5.91,-0.71,-5.92,-0.71,0.71,0.33,0.84,-5.20,-5.21,-5.21
260.58,-5.89,-0.70,-5.90,-0.71,0.71,0.31,0.82,-5.18,-5.19,-5.19
263.19,-5.87,-0.71,-5.88,-0.71,0.71,0.30,0.80,-5.16,-5.17,-5.17
265.82,-5.85,-0.70,-5.85,-0.70,0.70,0.28,0.78,-5.15,-5.15,-5.15
268.48,-5.82,-0.70,-5.82,-0.70,0.70,0.26,0.75,-5.13,-5.12,-5.12
271.16,-5.78,-0.69,-5.79,-0.69,0.69,0.24,0.72,-5.10,-5.10,-5.10
273.87,-5.75,-0.67,-5.76,-0.67,0.67,0.23,0.69,-5.08,-5.08,-5.08
276.61,-5.72,-0.67,-5.72,-0.66,0.66,0.21,0.66,-5.06,-5.06,-5.05
279.38,-5.67,-0.64,-5.68,-0.64,0.64,0.20,0.63,-5.03,-5.04,-5.04
282.17,-5.63,-0.61,-5.64,-0.62,0.62,0.18,0.60,-5.01,-5.02,-5.02
284.99,-5.60,-0.61,-5.59,-0.60,0.60,0.16,0.57,-5.01,-5.00,-4.99
287.84,-5.54,-0.57,-5.54,-0.57,0.57,0.15,0.53,-4.97,-4.97,-4.97
290.72,-5.49,-0.55,-5.49,-0.54,0.54,0.13,0.50,-4.95,-4.95,-4.95
293.63,-5.43,-0.50,-5.43,-0.50,0.50,0.12,0.46,-4.93,-4.93,-4.93
296.57,-5.37,-0.47,-5.37,-0.46,0.46,0.11,0.43,-4.91,-4.90,-4.90
299.53,-5.31,-0.43,-5.30,-0.42,0.42,0.09,0.39,-4.89,-4.88,-4.88
302.53,-5.22,-0.36,-5.23,-0.37,0.37,0.08,0.35,-4.85,-4.86,-4.87
305.55,-5.16,-0.33,-5.15,-0.32,0.32,0.06,0.31,-4.85,-4.83,-4.83
308.61,-5.08,-0.27,-5.07,-0.26,0.26,0.05,0.27,-4.82,-4.81,-4.81
311.69,-4.99,-0.21,-4.98,-0.20,0.20,0.04,0.23,-4.80,-4.78,-4.78
314.81,-4.90,-0.16,-4.89,-0.13,0.13,0.02,0.19,-4.77,-4.76,-4.75
317.96,-4.82,-0.10,-4.80,-0.07,0.07,0.01,0.15,-4.76,-4.74,-4.73
321.14,-4.72,-0.01,-4.71,-0.00,0.00,-0.00,0.11,-4.72,-4.71,-4.71
324.35,-4.60,0.09,-4.63,0.06,-0.06,-0.02,0.07,-4.66,-4.69,-4.69
327.59,-4.52,0.14,-4.54,0.12,-0.12,-0.03,0.03,-4.65,-4.67,-4.66
330.87,-4.43,0.21,-4.46,0.18,-0.18,-0.04,-0.01,-4.61,-4.64,-4.64
334.18,-4.35,0.27,-4.38,0.24,-0.24,-0.06,-0.05,-4.59,-4.62,-4.63
337.52,-4.28,0.32,-4.31,0.29,-0.29,-0.07,-0.09,-4.57,-4.60,-4.61
340.90,-4.21,0.37,-4.24,0.34,-0.34,-0.08,-0.13,-4.55,-4.58,-4.58
344.30,-4.15,0.41,-4.18,0.39,-0.39,-0.09,-0.18,-4.54,-4.56,-4.56
347.75,-4.11,0.43,-4.11,0.43,-0.43,-0.11,-0.22,-4.54,-4.54,-4.54
351.23,-4.06,0.46,-4.05,0.47,-0.47,-0.12,-0.26,-4.53,-4.52,-4.52
354.74,-4.00,0.50,-3.99,0.51,-0.51,-0.13,-0.30,-4.52,-4.50,-4.50
358.28,-3.95,0.53,-3.93,0.55,-0.55,-0.15,-0.35,-4.51,-4.49,-4.49
361.87,-3.88,0.58,-3.87,0.60,-0.60,-0.16,-0.39,-4.48,-4.47,-4.47
365.49,-3.83,0.61,-3.80,0.65,-0.65,-0.17,-0.43,-4.48,-4.45,-4.45
369.14,-3.76,0.68,-3.74,0.70,-0.70,-0.19,-0.47,-4.46,-4.43,-4.44
372.83,-3.68,0.74,-3.67,0.75,-0.75,-0.20,-0.52,-4.44,-4.42,-4.42
376.56,-3.60,0.81,-3.59,0.81,-0.81,-0.21,-0.56,-4.41,-4.40,-4.41
380.33,-3.52,0.86,-3.52,0.87,-0.87,-0.23,-0.61,-4.40,-4.39,-4.38
384.13,-3.45,0.92,-3.44,0.94,-0.94,-0.24,-0.65,-4.39,-4.38,-4.37
387.97,-3.35,1.01,-3.36,1.01,-1.01,-0.26,-0.69,-4.36,-4.36,-4.36
391.85,-3.27,1.08,-3.28,1.07,-1.07,-0.27,-0.74,-4.34,-4.35,-4.35
395.77,-3.19,1.14,-3.21,1.13,-1.13,-0.28,-0.78,-4.32,-4.34,-4.33
399.73,-3.11,1.21,-3.13,1.19,-1.19,-0.30,-0.83,-4.30,-4.33,-4.33
403.72,-3.05,1.26,-3.07,1.25,-1.25,-0.31,-0.87,-4.30,-4.31,-4.32
407.76,-3.00,1.30,-3.00,1.30,-1.30,-0.33,-0.92,-4.30,-4.30,-4.31
411.84,-2.94,1.34,-2.95,1.35,-1.35,-0.34,-0.96,-4.29,-4.29,-4.29
415.96,-2.88,1.39,-2.90,1.38,-1.38,-0.36,-1.00,-4.27,-4.28,-4.28
420.12,-2.83,1.44,-2.85,1.42,-1.42,-0.38,-1.05,-4.25,-4.27,-4.27
424.32,-2.81,1.45,-2.82,1.44,-1.44,-0.39,-1.09,-4.25,-4.26,-4.26
428.56,-2.78,1.47,-2.79,1.46,-1.46,-0.41,-1.13,-4.24,-4.25,-4.25
432.85,-2.77,1.47,-2.77,1.47,-1.47,-0.43,-1.18,-4.24,-4.24,-4.24
437.18,-2.73,1.50,-2.75,1.47,-1.47,-0.45,-1.22,-4.20,-4.23,-4.23
441.55,-2.72,1.49,-2.74,1.47,-1.47,-0.46,-1.26,-4.19,-4.21,-4.21
