frequency,raw
20.00,6.93
20.20,6.97
20.40,7.01
20.61,7.05
20.81,7.08
21.02,7.12
21.23,7.16
21.44,7.20
21.66,7.24
21.87,7.28
22.09,7.32
22.31,7.35
22.54,7.39
22.76,7.42
22.99,7.46
23.22,7.49
23.45,7.52
23.69,7.56
23.92,7.59
24.16,7.62
24.40,7.66
24.65,7.69
24.89,7.73
25.14,7.76
25.39,7.78
25.65,7.81
25.91,7.84
26.16,7.87
26.43,7.90
26.69,7.93
26.96,7.96
27.23,7.98
27.50,8.01
27.77,8.03
28.05,8.05
28.33,8.07
28.62,8.09
28.90,8.11
29.19,8.13
29.48,8.15
29.78,8.17
30.08,8.18
30.38,8.19
30.68,8.20
30.99,8.21
31.30,8.21
31.61,8.22
31.93,8.22
32.24,8.22
32.57,8.23
32.89,8.24
33.22,8.24
33.55,8.23
33.89,8.22
34.23,8.22
34.57,8.21
34.92,8.21
35.27,8.20
35.62,8.20
35.97,8.19
36.33,8.19
36.70,8.18
37.06,8.18
37.43,8.17
37.81,8.16
38.19,8.16
38.57,8.16
38.95,8.16
39.34,8.17
39.74,8.17
40.14,8.18
40.54,8.19
40.94,8.19
41.35,8.20
41.76,8.21
42.18,8.23
42.60,8.26
43.03,8.29
43.46,8.33
43.90,8.37
44.33,8.42
44.78,8.47
45.23,8.51
45.68,8.55
46.13,8.59
46.60,8.63
47.06,8.67
47.53,8.71
48.01,8.75
48.49,8.78
48.97,8.82
49.46,8.84
49.96,8.87
50.46,8.88
50.96,8.90
51.47,8.90
51.99,8.91
52.51,8.89
53.03,8.88
53.56,8.86
54.10,8.84
54.64,8.81
55.18,8.78
55.74,8.75
56.29,8.73
56.86,8.70
57.42,8.67
58.00,8.64
58.58,8.61
59.16,8.58
59.76,8.54
60.35,8.51
60.96,8.47
61.57,8.45
62.18,8.43
62.80,8.42
63.43,8.42
64.07,8.41
64.71,8.41
65.35,8.40
66.01,8.39
66.67,8.39
67.33,8.39
68.01,8.40
68.69,8.41
69.37,8.41
70.07,8.42
70.77,8.44
71.48,8.45
72.19,8.47
72.91,8.49
73.64,8.51
74.38,8.53
75.12,8.55
75.87,8.58
76.63,8.61
77.40,8.63
78.17,8.65
78.95,8.67
79.74,8.69
80.54,8.71
81.35,8.73
82.16,8.75
82.98,8.78
83.81,8.80
84.65,8.82
85.50,8.83
86.35,8.85
87.22,8.88
88.09,8.90
88.97,8.93
89.86,8.96
90.76,8.99
91.66,9.02
92.58,9.04
93.51,9.06
94.44,9.08
95.39,9.09
96.34,9.10
97.30,9.10
98.28,9.09
99.26,9.08
100.25,9.07
101.25,9.06
102.27,9.06
103.29,9.06
104.32,9.06
105.37,9.08
106.42,9.11
107.48,9.14
108.56,9.17
109.64,9.20
110.74,9.22
111.85,9.23
112.97,9.24
114.10,9.24
115.24,9.23
116.39,9.23
117.55,9.22
118.73,9.20
119.92,9.16
121.12,9.13
122.33,9.12
123.55,9.09
124.79,9.06
126.03,9.05
127.29,9.05
128.57,9.06
129.85,9.09
131.15,9.10
132.46,9.10
133.79,9.09
135.12,9.08
136.48,9.07
137.84,9.03
139.22,9.01
140.61,8.98
142.02,8.93
143.44,8.91
144.87,8.87
146.32,8.86
147.78,8.83
149.26,8.81
150.75,8.77
152.26,8.74
153.78,8.71
155.32,8.69
156.88,8.67
158.44,8.66
160.03,8.61
161.63,8.58
163.24,8.54
164.88,8.48
166.53,8.43
168.19,8.38
169.87,8.29
171.57,8.24
173.29,8.19
175.02,8.11
176.77,8.06
178.54,8.01
180.32,7.95
182.13,7.89
183.95,7.79
185.79,7.73
187.65,7.67
189.52,7.61
191.42,7.54
193.33,7.47
195.27,7.38
197.22,7.30
199.19,7.22
201.18,7.14
203.19,7.04
205.23,6.94
207.28,6.85
209.35,6.75
211.44,6.65
213.56,6.53
215.69,6.43
217.85,6.33
220.03,6.25
222.23,6.14
224.45,6.03
226.70,5.91
228.96,5.78
231.25,5.70
233.57,5.58
235.90,5.45
238.26,5.34
240.64,5.21
243.05,5.11
245.48,4.97
247.93,4.81
250.41,4.70
252.92,4.53
255.45,4.41
258.00,4.28
260.58,4.10
263.19,3.95
265.82,3.76
268.48,3.61
271.16,3.46
273.87,3.29
276.61,3.15
279.38,3.01
282.17,2.88
284.99,2.75
287.84,2.56
290.72,2.42
293.63,2.30
296.57,2.16
299.53,2.04
302.53,1.90
305.55,1.76
308.61,1.64
311.69,1.51
314.81,1.41
317.96,1.28
321.14,1.15
324.35,1.03
327.59,0.90
330.87,0.81
334.18,0.71
337.52,0.60
340.90,0.50
344.30,0.39
347.75,0.30
351.23,0.20
354.74,0.12
358.28,0.03
361.87,-0.04
365.49,-0.12
369.14,-0.19
372.83,-0.26
376.56,-0.33
380.33,-0.40
384.13,-0.46
387.97,-0.51
391.85,-0.54
395.77,-0.56
399.73,-0.58
403.72,-0.57
407.76,-0.56
411.84,-0.55
415.96,-0.54
420.12,-0.53
424.32,-0.51
428.56,-0.46
432.85,-0.41
437.18,-0.36
441.55,-0.33
445.96,-0.29
450.42,-0.25
454.93,-0.21
459.48,-0.17
464.07,-0.13
468.71,-0.09
473.40,-0.04
478.13,0.02
482.91,0.08
487.74,0.14
492.62,0.21
497.55,0.27
502.52,0.32
507.55,0.37
512.62,0.42
517.75,0.48
522.93,0.56
528.16,0.62
533.44,0.67
538.77,0.71
544.16,0.75
549.60,0.81
555.10,0.86
560.65,0.91
566.25,0.96
571.92,0.99
577.64,1.04
583.41,1.09
589.25,1.13
595.14,1.17
601.09,1.20
607.10,1.22
613.17,1.24
619.30,1.26
625.50,1.29
631.75,1.31
638.07,1.32
644.45,1.32
650.89,1.31
657.40,1.30
663.98,1.29
670.62,1.30
677.32,1.31
684.10,1.32
690.94,1.32
697.85,1.31
704.83,1.29
711.87,1.27
718.99,1.25
726.18,1.22
733.44,1.19
740.78,1.16
748.19,1.14
755.67,1.12
763.23,1.08
770.86,1.03
778.57,0.99
786.35,0.94
794.22,0.90
802.16,0.87
810.18,0.84
818.28,0.82
826.46,0.79
834.73,0.75
843.08,0.70
851.51,0.65
860.02,0.59
868.62,0.55
877.31,0.51
886.08,0.48
894.94,0.45
903.89,0.42
912.93,0.39
922.06,0.34
931.28,0.30
940.59,0.26
950.00,0.22
959.50,0.18
969.09,0.14
978.78,0.10
988.57,0.05
998.46,0.01
1008.44,-0.04
1018.53,-0.10
1028.71,-0.15
1039.00,-0.20
1049.39,-0.25
1059.88,-0.30
1070.48,-0.35
1081.19,-0.41
1092.00,-0.48
1102.92,-0.54
1113.95,-0.60
1125.09,-0.66
1136.34,-0.73
1147.70,-0.80
1159.18,-0.86
1170.77,-0.94
1182.48,-1.01
1194.30,-1.07
1206.25,-1.14
1218.31,-1.20
1230.49,-1.25
1242.80,-1.30
1255.22,-1.36
1267.78,-1.42
1280.45,-1.48
1293.26,-1.54
1306.19,-1.59
1319.25,-1.64
1332.45,-1.69
1345.77,-1.75
1359.23,-1.81
1372.82,-1.87
1386.55,-1.93
1400.41,-1.98
1414.42,-2.03
1428.56,-2.09
1442.85,-2.15
1457.28,-2.22
1471.85,-2.29
1486.57,-2.35
1501.43,-2.41
1516.45,-2.49
1531.61,-2.57
1546.93,-2.65
1562.40,-2.74
1578.02,-2.82
1593.80,-2.90
1609.74,-2.98
1625.84,-3.07
1642.10,-3.16
1658.52,-3.25
1675.10,-3.33
1691.85,-3.40
1708.77,-3.48
1725.86,-3.55
1743.12,-3.62
1760.55,-3.70
1778.15,-3.77
1795.94,-3.84
1813.90,-3.92
1832.03,-3.99
1850.36,-4.07
1868.86,-4.13
1887.55,-4.21
1906.42,-4.28
1925.49,-4.35
1944.74,-4.42
1964.19,-4.49
1983.83,-4.57
2003.67,-4.64
2023.71,-4.72
2043.94,-4.80
2064.38,-4.86
2085.03,-4.93
2105.88,-5.01
2126.94,-5.10
2148.20,-5.18
2169.69,-5.27
2191.38,-5.36
2213.30,-5.46
2235.43,-5.54
2257.78,-5.63
2280.36,-5.72
2303.17,-5.81
2326.20,-5.88
2349.46,-5.94
2372.95,-6.01
2396.68,-6.06
2420.65,-6.10
2444.86,-6.14
2469.31,-6.18
2494.00,-6.20
2518.94,-6.20
2544.13,-6.19
2569.57,-6.18
2595.27,-6.16
2621.22,-6.13
2647.43,-6.10
2673.90,-6.06
2700.64,-6.01
2727.65,-5.96
2754.93,-5.90
2782.48,-5.84
2810.30,-5.78
2838.40,-5.71
2866.79,-5.66
2895.46,-5.62
2924.41,-5.58
2953.65,-5.55
2983.19,-5.55
3013.02,-5.56
3043.15,-5.58
3073.58,-5.62
3104.32,-5.69
3135.36,-5.79
3166.72,-5.92
3198.38,-6.06
3230.37,-6.24
3262.67,-6.42
3295.30,-6.61
3328.25,-6.83
3361.53,-7.05
3395.15,-7.27
3429.10,-7.50
3463.39,-7.75
3498.03,-8.01
3533.01,-8.26
3568.34,-8.49
3604.02,-8.72
3640.06,-8.94
3676.46,-9.13
3713.22,-9.31
3750.36,-9.47
3787.86,-9.59
3825.74,-9.67
3864.00,-9.72
3902.64,-9.71
3941.66,-9.66
3981.08,-9.56
4020.89,-9.41
4061.10,-9.21
4101.71,-8.98
4142.73,-8.70
4184.15,-8.41
4226.00,-8.11
4268.26,-7.78
4310.94,-7.44
4354.05,-7.10
4397.59,-6.76
4441.56,-6.42
4485.98,-6.09
4530.84,-5.79
4576.15,-5.51
4621.91,-5.25
4668.13,-5.00
4714.81,-4.75
4761.96,-4.53
4809.58,-4.32
4857.67,-4.13
4906.25,-3.95
4955.31,-3.78
5004.87,-3.63
5054.91,-3.51
5105.46,-3.39
5156.52,-3.28
5208.08,-3.18
5260.16,-3.10
5312.77,-3.02
5365.89,-2.95
5419.55,-2.87
5473.75,-2.80
5528.49,-2.73
5583.77,-2.67
5639.61,-2.60
5696.00,-2.53
5752.96,-2.47
5810.49,-2.42
5868.60,-2.39
5927.28,-2.36
5986.56,-2.35
6046.42,-2.35
6106.89,-2.37
6167.96,-2.41
6229.64,-2.47
6291.93,-2.54
6354.85,-2.65
6418.40,-2.76
6482.58,-2.91
6547.41,-3.09
6612.88,-3.31
6679.01,-3.57
6745.80,-3.87
6813.26,-4.22
6881.39,-4.61
6950.21,-5.06
7019.71,-5.56
7089.91,-6.09
7160.81,-6.68
7232.41,-7.32
7304.74,-8.00
7377.79,-8.72
7451.56,-9.47
7526.08,-10.26
7601.34,-11.08
7677.35,-11.90
7754.13,-12.72
7831.67,-13.52
7909.98,-14.30
7989.08,-15.05
8068.98,-15.74
8149.67,-16.34
8231.16,-16.84
8313.47,-17.23
8396.61,-17.49
8480.57,-17.62
8565.38,-17.62
8651.03,-17.49
8737.54,-17.24
8824.92,-16.90
8913.17,-16.47
9002.30,-15.97
9092.32,-15.44
9183.25,-14.89
9275.08,-14.33
9367.83,-13.77
9461.51,-13.25
9556.12,-12.75
9651.68,-12.30
9748.20,-11.90
9845.68,-11.53
9944.14,-11.21
10043.58,-10.91
10144.02,-10.65
10245.46,-10.41
10347.91,-10.19
10451.39,-9.98
10555.91,-9.78
10661.46,-9.60
10768.08,-9.43
10875.76,-9.27
10984.52,-9.14
11094.36,-9.02
11205.31,-8.93
11317.36,-8.86
11430.53,-8.81
11544.84,-8.79
11660.29,-8.81
11776.89,-8.85
11894.66,-8.90
12013.60,-8.96
12133.74,-9.01
12255.08,-9.07
12377.63,-9.13
12501.41,-9.20
12626.42,-9.26
12752.68,-9.32
12880.21,-9.38
13009.01,-9.44
13139.10,-9.53
13270.49,-9.64
13403.20,-9.77
13537.23,-9.93
13672.60,-10.12
13809.33,-10.33
13947.42,-10.57
14086.90,-10.84
14227.77,-11.13
14370.04,-11.43
14513.74,-11.76
14658.88,-12.09
14805.47,-12.44
14953.52,-12.81
15103.06,-13.19
15254.09,-13.61
15406.63,-14.05
15560.70,-14.52
15716.30,-15.03
15873.47,-15.57
16032.20,-16.17
16192.52,-16.84
16354.45,-17.58
16517.99,-18.39
16683.17,-19.26
16850.01,-20.17
17018.51,-21.10
17188.69,-22.02
17360.58,-22.91
17534.18,-23.75
17709.53,-24.51
17886.62,-25.19
18065.49,-25.76
18246.14,-26.22
18428.60,-26.59
18612.89,-26.88
18799.02,-27.09
18987.01,-27.22
19176.88,-27.26
19368.65,-27.23
19562.33,-27.11
19757.96,-26.91
19955.54,-26.63
