frequency,raw,error,smoothed,error_smoothed,equalization,parametric_eq,equalized_raw,equalized_smoothed,target
20,-7.67,-9.86,-7.65,-9.84,6.00,5.65,-1.67,-1.65,2.19
21,-7.13,-9.28,-7.17,-9.31,6.00,5.82,-1.13,-1.17,2.15
22,-6.70,-8.81,-6.70,-8.81,6.00,5.97,-0.70,-0.70,2.11
23,-6.28,-8.35,-6.25,-8.32,6.00,6.09,-0.28,-0.25,2.07
24,-5.83,-7.86,-5.83,-7.86,6.00,6.17,0.17,0.17,2.03
25,-5.43,-7.42,-5.43,-7.42,6.00,6.18,0.57,0.57,1.99
26,-5.02,-6.97,-5.04,-7.00,6.00,6.14,0.98,0.96,1.95
27,-4.71,-6.62,-4.68,-6.60,5.94,6.04,1.23,1.26,1.91
28,-4.36,-6.24,-4.35,-6.22,5.82,5.89,1.46,1.48,1.88
29,-4.06,-5.90,-4.04,-5.88,5.65,5.71,1.59,1.61,1.84
30,-3.72,-5.52,-3.75,-5.56,5.45,5.51,1.73,1.69,1.80
31,-3.47,-5.24,-3.50,-5.26,5.23,5.29,1.76,1.73,1.77
32,-3.19,-4.92,-3.27,-5.00,5.00,5.08,1.81,1.73,1.73
33,-3.08,-4.77,-3.07,-4.77,4.77,4.87,1.69,1.69,1.69
34,-2.93,-4.59,-2.90,-4.56,4.56,4.66,1.63,1.66,1.66
35,-2.76,-4.38,-2.75,-4.37,4.37,4.47,1.61,1.62,1.62
36,-2.63,-4.22,-2.61,-4.20,4.20,4.29,1.57,1.59,1.59
37,-2.51,-4.06,-2.50,-4.05,4.05,4.13,1.54,1.55,1.55
38,-2.37,-3.89,-2.39,-3.91,3.91,3.98,1.54,1.52,1.52
39,-2.32,-3.80,-2.30,-3.78,3.78,3.84,1.46,1.48,1.48
40,-2.19,-3.64,-2.22,-3.67,3.67,3.72,1.48,1.45,1.45
41,-2.19,-3.61,-2.15,-3.56,3.56,3.61,1.37,1.42,1.42
42,-2.05,-3.43,-2.09,-3.47,3.47,3.51,1.42,1.38,1.38
43,-2.06,-3.41,-2.04,-3.39,3.39,3.42,1.33,1.35,1.35
44,-2.03,-3.35,-2.01,-3.33,3.33,3.35,1.30,1.32,1.32
45,-1.95,-3.24,-1.99,-3.28,3.28,3.28,1.33,1.29,1.29
46,-1.92,-3.18,-1.98,-3.24,3.24,3.22,1.32,1.26,1.26
47,-1.92,-3.15,-1.97,-3.21,3.21,3.17,1.29,1.23,1.23
48,-1.95,-3.15,-1.96,-3.17,3.17,3.13,1.22,1.20,1.20
49,-1.95,-3.13,-1.94,-3.12,3.12,3.10,1.17,1.18,1.18
50,-1.99,-3.14,-1.90,-3.05,3.05,3.07,1.06,1.15,1.15
51,-1.99,-3.12,-1.84,-2.97,2.97,3.05,0.98,1.13,1.13
52,-1.91,-3.01,-1.77,-2.87,2.87,3.03,0.96,1.10,1.10
53,-1.76,-2.84,-1.68,-2.76,2.76,3.02,1.00,1.08,1.08
54,-1.55,-2.61,-1.59,-2.65,2.65,3.01,1.10,1.06,1.06
55,-1.37,-2.41,-1.52,-2.56,2.56,3.01,1.19,1.04,1.04
56,-1.25,-2.27,-1.47,-2.49,2.49,3.01,1.24,1.02,1.02
57,-1.36,-2.36,-1.45,-2.45,2.45,3.01,1.09,1.00,1.00
58,-1.46,-2.45,-1.46,-2.45,2.45,3.02,0.99,0.99,0.99
59,-1.56,-2.53,-1.50,-2.48,2.48,3.03,0.92,0.97,0.97
60,-1.62,-2.58,-1.57,-2.52,2.52,3.05,0.90,0.96,0.96
61,-1.70,-2.65,-1.64,-2.59,2.59,3.06,0.89,0.95,0.95
62,-1.73,-2.67,-1.72,-2.65,2.65,3.08,0.92,0.94,0.94
63,-1.83,-2.75,-1.80,-2.72,2.72,3.10,0.89,0.92,0.92
64,-1.88,-2.79,-1.87,-2.79,2.79,3.12,0.91,0.91,0.91
65,-1.92,-2.83,-1.95,-2.85,2.85,3.14,0.93,0.91,0.91
66,-2.02,-2.92,-2.02,-2.91,2.91,3.17,0.89,0.90,0.90
67,-2.09,-2.98,-2.09,-2.98,2.98,3.19,0.89,0.89,0.89
68,-2.14,-3.02,-2.17,-3.05,3.05,3.22,0.91,0.88,0.88
69,-2.25,-3.12,-2.25,-3.12,3.12,3.25,0.87,0.87,0.87
70,-2.33,-3.19,-2.33,-3.20,3.20,3.28,0.87,0.86,0.86
71,-2.43,-3.28,-2.42,-3.28,3.28,3.31,0.85,0.85,0.85
72,-2.52,-3.36,-2.51,-3.36,3.36,3.34,0.84,0.84,0.84
73,-2.59,-3.43,-2.61,-3.44,3.44,3.37,0.85,0.84,0.84
74,-2.72,-3.55,-2.70,-3.52,3.52,3.40,0.80,0.82,0.83
75,-2.79,-3.60,-2.79,-3.60,3.60,3.43,0.81,0.81,0.81
76,-2.87,-3.67,-2.88,-3.68,3.68,3.46,0.81,0.80,0.80
77,-2.98,-3.77,-2.97,-3.76,3.76,3.49,0.78,0.79,0.79
78,-3.03,-3.81,-3.06,-3.83,3.83,3.52,0.80,0.77,0.78
79,-3.13,-3.89,-3.14,-3.90,3.90,3.55,0.77,0.76,0.76
80,-3.24,-3.98,-3.21,-3.96,3.96,3.58,0.72,0.74,0.74
81,-3.30,-4.03,-3.28,-4.01,4.01,3.61,0.71,0.73,0.73
82,-3.36,-4.07,-3.35,-4.05,4.05,3.63,0.69,0.71,0.71
83,-3.41,-4.10,-3.40,-4.09,4.09,3.66,0.68,0.69,0.69
84,-3.44,-4.10,-3.45,-4.12,4.12,3.69,0.68,0.66,0.66
85,-3.50,-4.14,-3.50,-4.14,4.14,3.72,0.64,0.64,0.64
86,-3.54,-4.16,-3.54,-4.16,4.16,3.74,0.62,0.62,0.62
87,-3.58,-4.17,-3.58,-4.17,4.17,3.77,0.59,0.59,0.59
88,-3.61,-4.17,-3.62,-4.18,4.18,3.79,0.57,0.56,0.56
89,-3.65,-4.19,-3.65,-4.19,4.19,3.82,0.54,0.54,0.54
90,-3.68,-4.19,-3.69,-4.19,4.19,3.84,0.51,0.51,0.51
91,-3.72,-4.20,-3.72,-4.20,4.20,3.86,0.48,0.48,0.48
92,-3.76,-4.21,-3.75,-4.20,4.20,3.88,0.44,0.45,0.45
93,-3.79,-4.21,-3.78,-4.19,4.19,3.90,0.40,0.42,0.42
94,-3.80,-4.18,-3.81,-4.19,4.19,3.92,0.39,0.38,0.38
95,-3.82,-4.17,-3.83,-4.18,4.18,3.94,0.36,0.35,0.35
96,-3.86,-4.18,-3.85,-4.17,4.17,3.95,0.31,0.32,0.32
97,-3.87,-4.15,-3.87,-4.15,4.15,3.97,0.28,0.28,0.28
98,-3.86,-4.11,-3.88,-4.13,4.13,3.98,0.27,0.25,0.25
99,-3.90,-4.11,-3.90,-4.11,4.11,3.99,0.21,0.21,0.21
100,-3.94,-4.12,-3.91,-4.08,4.08,4.01,0.14,0.17,0.18
101,-3.95,-4.10,-3.91,-4.05,4.05,4.02,0.10,0.14,0.15
102,-3.89,-4.00,-3.92,-4.02,4.02,4.03,0.13,0.10,0.11
104,-3.89,-3.93,-3.93,-3.98,3.98,4.04,0.09,0.06,0.04
105,-3.91,-3.92,-3.93,-3.95,3.95,4.05,0.04,0.02,0.01
106,-3.94,-3.92,-3.94,-3.92,3.92,4.06,-0.02,-0.02,-0.02
107,-3.98,-3.92,-3.94,-3.89,3.89,4.06,-0.09,-0.05,-0.06
108,-3.96,-3.87,-3.95,-3.86,3.86,4.06,-0.10,-0.09,-0.09
109,-3.93,-3.81,-3.95,-3.83,3.83,4.07,-0.10,-0.12,-0.12
110,-3.94,-3.79,-3.95,-3.80,3.80,4.07,-0.14,-0.15,-0.15
111,-3.95,-3.77,-3.95,-3.77,3.77,4.07,-0.18,-0.18,-0.18
112,-3.95,-3.74,-3.95,-3.73,3.73,4.07,-0.22,-0.21,-0.21
113,-3.95,-3.71,-3.94,-3.70,3.70,4.07,-0.25,-0.24,-0.24
114,-3.95,-3.68,-3.94,-3.66,3.66,4.07,-0.29,-0.28,-0.27
115,-3.95,-3.65,-3.93,-3.63,3.63,4.07,-0.32,-0.31,-0.30
117,-3.92,-3.56,-3.93,-3.59,3.59,4.06,-0.33,-0.34,-0.36
118,-3.92,-3.54,-3.93,-3.56,3.56,4.06,-0.36,-0.38,-0.38
119,-3.93,-3.52,-3.94,-3.53,3.53,4.05,-0.40,-0.41,-0.41
120,-3.94,-3.50,-3.95,-3.51,3.51,4.05,-0.43,-0.44,-0.44
121,-3.96,-3.50,-3.96,-3.49,3.49,4.04,-0.47,-0.47,-0.46
123,-3.99,-3.47,-3.98,-3.48,3.48,4.03,-0.51,-0.51,-0.52
124,-4.00,-3.46,-4.01,-3.47,3.47,4.02,-0.53,-0.54,-0.54
125,-4.04,-3.47,-4.04,-3.47,3.47,4.01,-0.57,-0.57,-0.57
126,-4.08,-3.49,-4.07,-3.48,3.48,4.01,-0.60,-0.60,-0.59
128,-4.11,-3.47,-4.11,-3.48,3.48,3.99,-0.63,-0.63,-0.64
129,-4.15,-3.49,-4.15,-3.50,3.50,3.98,-0.65,-0.66,-0.66
130,-4.19,-3.51,-4.20,-3.51,3.51,3.97,-0.68,-0.68,-0.68
131,-4.23,-3.53,-4.24,-3.53,3.53,3.97,-0.70,-0.71,-0.70
133,-4.30,-3.56,-4.29,-3.55,3.55,3.95,-0.75,-0.74,-0.74
134,-4.34,-3.58,-4.33,-3.57,3.57,3.94,-0.77,-0.76,-0.76
135,-4.38,-3.60,-4.38,-3.59,3.59,3.93,-0.79,-0.79,-0.78
137,-4.42,-3.60,-4.42,-3.61,3.61,3.91,-0.81,-0.81,-0.82
138,-4.47,-3.64,-4.46,-3.62,3.62,3.90,-0.85,-0.84,-0.83
140,-4.50,-3.63,-4.50,-3.64,3.64,3.89,-0.86,-0.86,-0.87
141,-4.54,-3.66,-4.54,-3.66,3.66,3.88,-0.88,-0.88,-0.88
142,-4.58,-3.69,-4.58,-3.68,3.68,3.87,-0.90,-0.90,-0.89
144,-4.62,-3.70,-4.62,-3.70,3.70,3.85,-0.92,-0.92,-0.92
145,-4.66,-3.73,-4.67,-3.73,3.73,3.84,-0.93,-0.94,-0.93
147,-4.70,-3.74,-4.71,-3.76,3.76,3.83,-0.94,-0.95,-0.96
148,-4.74,-3.77,-4.76,-3.79,3.79,3.82,-0.95,-0.97,-0.97
150,-4.81,-3.82,-4.81,-3.82,3.82,3.81,-0.99,-0.98,-0.99
151,-4.86,-3.87,-4.85,-3.86,3.86,3.80,-1.00,-1.00,-0.99
153,-4.93,-3.91,-4.90,-3.89,3.89,3.79,-1.04,-1.01,-1.02
154,-4.96,-3.94,-4.95,-3.93,3.93,3.79,-1.03,-1.02,-1.02
156,-5.00,-3.96,-5.00,-3.96,3.96,3.78,-1.04,-1.04,-1.04
157,-5.04,-3.99,-5.05,-4.00,4.00,3.77,-1.04,-1.05,-1.05
159,-5.08,-4.01,-5.10,-4.04,4.04,3.77,-1.04,-1.06,-1.07
160,-5.13,-4.06,-5.15,-4.07,4.07,3.76,-1.06,-1.08,-1.07
162,-5.22,-4.13,-5.20,-4.11,4.11,3.76,-1.11,-1.09,-1.09
164,-5.27,-4.16,-5.25,-4.14,4.14,3.76,-1.13,-1.10,-1.11
165,-5.30,-4.18,-5.30,-4.18,4.18,3.76,-1.12,-1.12,-1.12
167,-5.34,-4.20,-5.35,-4.21,4.21,3.76,-1.13,-1.14,-1.14
169,-5.39,-4.24,-5.40,-4.25,4.25,3.76,-1.14,-1.15,-1.15
170,-5.44,-4.28,-5.45,-4.28,4.28,3.76,-1.16,-1.17,-1.16
172,-5.52,-4.34,-5.50,-4.32,4.32,3.77,-1.20,-1.18,-1.18
174,-5.56,-4.36,-5.55,-4.35,4.35,3.78,-1.21,-1.20,-1.20
175,-5.59,-4.37,-5.60,-4.38,4.38,3.79,-1.21,-1.22,-1.22
177,-5.63,-4.39,-5.65,-4.41,4.41,3.80,-1.22,-1.24,-1.24
179,-5.68,-4.42,-5.70,-4.44,4.44,3.81,-1.24,-1.26,-1.26
181,-5.76,-4.48,-5.74,-4.46,4.46,3.83,-1.30,-1.28,-1.28
183,-5.80,-4.50,-5.78,-4.49,4.49,3.85,-1.31,-1.29,-1.30
184,-5.83,-4.52,-5.82,-4.51,4.51,3.86,-1.32,-1.31,-1.31
186,-5.86,-4.53,-5.86,-4.52,4.52,3.89,-1.34,-1.33,-1.33
188,-5.88,-4.53,-5.89,-4.54,4.54,3.91,-1.34,-1.35,-1.35
190,-5.94,-4.57,-5.92,-4.55,4.55,3.94,-1.39,-1.37,-1.37
192,-5.97,-4.58,-5.96,-4.57,4.57,3.97,-1.40,-1.39,-1.39
194,-5.96,-4.55,-5.99,-4.58,4.58,4.01,-1.38,-1.41,-1.41
196,-6.00,-4.57,-6.03,-4.60,4.60,4.04,-1.40,-1.43,-1.43
198,-6.07,-4.62,-6.07,-4.62,4.62,4.08,-1.45,-1.45,-1.45
200,-6.12,-4.66,-6.11,-4.65,4.65,4.12,-1.47,-1.46,-1.46
202,-6.15,-4.67,-6.15,-4.67,4.67,4.17,-1.48,-1.48,-1.48
204,-6.20,-4.70,-6.20,-4.70,4.70,4.22,-1.50,-1.50,-1.50
206,-6.26,-4.75,-6.24,-4.73,4.73,4.26,-1.53,-1.51,-1.51
208,-6.30,-4.77,-6.29,-4.76,4.76,4.32,-1.54,-1.53,-1.53
210,-6.32,-4.78,-6.33,-4.79,4.79,4.37,-1.53,-1.54,-1.54
212,-6.37,-4.82,-6.37,-4.82,4.82,4.43,-1.55,-1.55,-1.55
214,-6.42,-4.86,-6.41,-4.85,4.85,4.48,-1.57,-1.57,-1.56
216,-6.46,-4.88,-6.45,-4.88,4.88,4.54,-1.58,-1.58,-1.58
218,-6.49,-4.91,-6.49,-4.91,4.91,4.61,-1.58,-1.59,-1.58
221,-6.50,-4.90,-6.53,-4.94,4.94,4.70,-1.56,-1.59,-1.60
223,-6.58,-4.98,-6.57,-4.97,4.97,4.77,-1.61,-1.60,-1.60
225,-6.64,-5.03,-6.61,-5.01,5.01,4.83,-1.63,-1.61,-1.61
227,-6.65,-5.04,-6.65,-5.04,5.04,4.90,-1.61,-1.61,-1.61
229,-6.66,-5.05,-6.68,-5.07,5.07,4.97,-1.59,-1.61,-1.61
232,-6.72,-5.10,-6.71,-5.10,5.10,5.07,-1.62,-1.62,-1.62
234,-6.76,-5.14,-6.74,-5.13,5.13,5.14,-1.63,-1.62,-1.62
236,-6.78,-5.17,-6.77,-5.15,5.15,5.20,-1.63,-1.61,-1.61
239,-6.79,-5.18,-6.79,-5.18,5.18,5.30,-1.61,-1.61,-1.61
241,-6.81,-5.20,-6.81,-5.21,5.21,5.37,-1.60,-1.61,-1.61
244,-6.82,-5.22,-6.84,-5.23,5.23,5.46,-1.59,-1.60,-1.60
246,-6.85,-5.25,-6.85,-5.26,5.26,5.52,-1.59,-1.60,-1.60
248,-6.87,-5.28,-6.87,-5.28,5.28,5.58,-1.59,-1.59,-1.59
251,-6.90,-5.32,-6.89,-5.31,5.31,5.66,-1.59,-1.58,-1.58
253,-6.92,-5.35,-6.91,-5.33,5.33,5.70,-1.59,-1.57,-1.57
256,-6.93,-5.37,-6.92,-5.36,5.36,5.77,-1.57,-1.56,-1.56
259,-6.94,-5.39,-6.94,-5.39,5.39,5.82,-1.55,-1.55,-1.55
261,-6.94,-5.40,-6.96,-5.42,5.42,5.85,-1.52,-1.54,-1.54
264,-6.95,-5.42,-6.97,-5.44,5.44,5.88,-1.51,-1.53,-1.53
266,-6.98,-5.46,-6.99,-5.47,5.47,5.90,-1.51,-1.52,-1.52
269,-6.99,-5.48,-7.00,-5.49,5.49,5.91,-1.50,-1.51,-1.51
272,-7.00,-5.50,-7.00,-5.51,5.51,5.91,-1.49,-1.50,-1.50
274,-7.02,-5.54,-7.00,-5.51,5.51,5.90,-1.51,-1.48,-1.48
277,-7.02,-5.55,-6.98,-5.51,5.51,5.88,-1.51,-1.47,-1.47
280,-6.98,-5.52,-6.95,-5.49,5.49,5.85,-1.49,-1.46,-1.46
283,-6.92,-5.47,-6.91,-5.46,5.46,5.80,-1.46,-1.45,-1.45
286,-6.86,-5.43,-6.86,-5.43,5.43,5.74,-1.43,-1.43,-1.43
288,-6.80,-5.38,-6.80,-5.38,5.38,5.70,-1.42,-1.42,-1.42
291,-6.73,-5.32,-6.75,-5.34,5.34,5.63,-1.39,-1.41,-1.41
294,-6.67,-5.27,-6.70,-5.30,5.30,5.54,-1.37,-1.40,-1.40
297,-6.61,-5.23,-6.65,-5.26,5.26,5.45,-1.35,-1.38,-1.38
300,-6.59,-5.22,-6.60,-5.23,5.23,5.36,-1.36,-1.37,-1.37
303,-6.56,-5.20,-6.57,-5.21,5.21,5.26,-1.35,-1.36,-1.36
306,-6.54,-5.19,-6.53,-5.18,5.18,5.16,-1.36,-1.35,-1.35
309,-6.51,-5.17,-6.50,-5.16,5.16,5.05,-1.35,-1.34,-1.34
312,-6.49,-5.16,-6.47,-5.14,5.14,4.94,-1.35,-1.33,-1.33
316,-6.45,-5.13,-6.43,-5.11,5.11,4.79,-1.34,-1.32,-1.32
319,-6.41,-5.10,-6.39,-5.08,5.08,4.68,-1.33,-1.31,-1.31
322,-6.33,-5.03,-6.34,-5.04,5.04,4.57,-1.29,-1.30,-1.30
325,-6.27,-4.98,-6.29,-5.00,5.00,4.46,-1.27,-1.29,-1.29
328,-6.23,-4.95,-6.24,-4.96,4.96,4.35,-1.27,-1.28,-1.28
332,-6.19,-4.92,-6.18,-4.91,4.91,4.21,-1.28,-1.27,-1.27
335,-6.14,-4.88,-6.12,-4.86,4.86,4.10,-1.28,-1.26,-1.26
338,-6.07,-4.81,-6.06,-4.80,4.80,4.00,-1.27,-1.26,-1.26
342,-5.98,-4.73,-6.00,-4.75,4.75,3.86,-1.23,-1.25,-1.25
345,-5.91,-4.67,-5.93,-4.69,4.69,3.76,-1.22,-1.24,-1.24
349,-5.89,-4.66,-5.86,-4.62,4.62,3.64,-1.27,-1.23,-1.23
352,-5.77,-4.54,-5.79,-4.56,4.56,3.55,-1.21,-1.23,-1.23
356,-5.68,-4.46,-5.71,-4.49,4.49,3.43,-1.19,-1.22,-1.22
359,-5.68,-4.46,-5.63,-4.42,4.42,3.34,-1.26,-1.22,-1.22
363,-5.53,-4.32,-5.55,-4.34,4.34,3.23,-1.19,-1.21,-1.21
366,-5.47,-4.27,-5.47,-4.26,4.26,3.15,-1.21,-1.21,-1.20
370,-5.38,-4.18,-5.38,-4.18,4.18,3.05,-1.20,-1.20,-1.20
374,-5.27,-4.07,-5.29,-4.09,4.09,2.95,-1.18,-1.20,-1.20
377,-5.20,-4.01,-5.19,-3.99,3.99,2.88,-1.21,-1.19,-1.19
381,-5.09,-3.90,-5.08,-3.89,3.89,2.79,-1.20,-1.19,-1.19
385,-4.98,-3.79,-4.97,-3.78,3.78,2.70,-1.20,-1.19,-1.19
389,-4.84,-3.66,-4.85,-3.66,3.66,2.61,-1.18,-1.18,-1.18
393,-4.72,-3.54,-4.72,-3.53,3.53,2.53,-1.19,-1.18,-1.18
397,-4.58,-3.40,-4.58,-3.40,3.40,2.46,-1.18,-1.18,-1.18
401,-4.46,-3.28,-4.44,-3.26,3.26,2.38,-1.20,-1.18,-1.18
405,-4.31,-3.13,-4.29,-3.12,3.12,2.31,-1.19,-1.18,-1.18
409,-4.16,-2.99,-4.15,-2.97,2.97,2.24,-1.19,-1.17,-1.17
413,-3.95,-2.78,-4.00,-2.83,2.83,2.17,-1.12,-1.17,-1.17
417,-3.84,-2.68,-3.85,-2.69,2.69,2.11,-1.15,-1.16,-1.16
421,-3.72,-2.56,-3.71,-2.55,2.55,2.04,-1.17,-1.16,-1.16
425,-3.57,-2.42,-3.57,-2.42,2.42,1.98,-1.15,-1.15,-1.15
430,-3.43,-2.29,-3.44,-2.30,2.30,1.91,-1.13,-1.14,-1.14
434,-3.32,-2.18,-3.31,-2.18,2.18,1.85,-1.14,-1.14,-1.14
438,-3.18,-2.05,-3.19,-2.06,2.06,1.80,-1.12,-1.12,-1.13
443,-3.05,-1.94,-3.06,-1.95,1.95,1.73,-1.10,-1.11,-1.11
447,-2.95,-1.85,-2.94,-1.84,1.84,1.68,-1.11,-1.10,-1.10
451,-2.83,-1.74,-2.82,-1.73,1.73,1.63,-1.10,-1.09,-1.09
456,-2.69,-1.62,-2.69,-1.62,1.62,1.56,-1.07,-1.07,-1.07
460,-2.59,-1.54,-2.57,-1.52,1.52,1.52,-1.07,-1.05,-1.05
465,-2.43,-1.39,-2.44,-1.41,1.41,1.45,-1.02,-1.04,-1.04
470,-2.33,-1.31,-2.32,-1.30,1.30,1.39,-1.03,-1.02,-1.02
474,-2.20,-1.20,-2.20,-1.20,1.20,1.34,-1.00,-1.00,-1.00
479,-2.08,-1.10,-2.08,-1.10,1.10,1.28,-0.98,-0.98,-0.98
484,-1.95,-0.99,-1.97,-1.00,1.00,1.22,-0.95,-0.96,-0.96
489,-1.86,-0.92,-1.85,-0.91,0.91,1.16,-0.95,-0.95,-0.94
494,-1.73,-0.80,-1.75,-0.82,0.82,1.10,-0.91,-0.93,-0.93
499,-1.64,-0.73,-1.65,-0.73,0.73,1.04,-0.91,-0.91,-0.91
504,-1.55,-0.66,-1.55,-0.65,0.65,0.97,-0.90,-0.89,-0.89
509,-1.46,-0.58,-1.45,-0.57,0.57,0.91,-0.89,-0.88,-0.88
514,-1.37,-0.51,-1.36,-0.49,0.49,0.84,-0.88,-0.86,-0.86
519,-1.26,-0.41,-1.26,-0.42,0.42,0.77,-0.84,-0.85,-0.85
524,-1.16,-0.32,-1.17,-0.34,0.34,0.69,-0.82,-0.84,-0.84
529,-1.10,-0.28,-1.08,-0.26,0.26,0.62,-0.84,-0.82,-0.82
535,-1.00,-0.19,-1.00,-0.19,0.19,0.52,-0.81,-0.81,-0.81
540,-0.90,-0.10,-0.91,-0.11,0.11,0.44,-0.79,-0.80,-0.80
545,-0.83,-0.05,-0.82,-0.04,0.04,0.35,-0.79,-0.78,-0.78
551,-0.72,0.05,-0.74,0.03,-0.03,0.24,-0.75,-0.77,-0.77
556,-0.66,0.10,-0.66,0.10,-0.10,0.15,-0.76,-0.76,-0.76
562,-0.59,0.15,-0.57,0.17,-0.17,0.03,-0.76,-0.74,-0.74
568,-0.46,0.27,-0.49,0.23,-0.23,-0.09,-0.69,-0.73,-0.73
573,-0.43,0.28,-0.42,0.29,-0.29,-0.19,-0.72,-0.71,-0.71
579,-0.38,0.31,-0.34,0.35,-0.35,-0.32,-0.73,-0.69,-0.69
585,-0.24,0.43,-0.26,0.41,-0.41,-0.44,-0.65,-0.67,-0.67
591,-0.18,0.47,-0.19,0.46,-0.46,-0.55,-0.64,-0.65,-0.65
596,-0.13,0.49,-0.12,0.51,-0.51,-0.64,-0.64,-0.62,-0.62
602,-0.03,0.57,-0.05,0.55,-0.55,-0.73,-0.58,-0.60,-0.60
608,0.03,0.60,0.02,0.59,-0.59,-0.81,-0.56,-0.57,-0.57
615,0.07,0.62,0.08,0.62,-0.62,-0.87,-0.55,-0.55,-0.55
621,0.12,0.64,0.13,0.65,-0.65,-0.90,-0.53,-0.52,-0.52
627,0.17,0.66,0.18,0.67,-0.67,-0.91,-0.50,-0.49,-0.49
633,0.23,0.69,0.23,0.69,-0.69,-0.89,-0.46,-0.46,-0.46
639,0.28,0.71,0.27,0.70,-0.70,-0.85,-0.42,-0.43,-0.43
646,0.31,0.72,0.30,0.71,-0.71,-0.78,-0.40,-0.41,-0.41
652,0.33,0.71,0.33,0.71,-0.71,-0.71,-0.38,-0.38,-0.38
659,0.31,0.67,0.34,0.70,-0.70,-0.62,-0.39,-0.36,-0.36
665,0.35,0.68,0.35,0.68,-0.68,-0.53,-0.33,-0.33,-0.33
672,0.36,0.67,0.34,0.65,-0.65,-0.43,-0.29,-0.31,-0.31
679,0.35,0.64,0.32,0.62,-0.62,-0.33,-0.27,-0.29,-0.29
686,0.27,0.55,0.29,0.57,-0.57,-0.23,-0.30,-0.28,-0.28
692,0.24,0.50,0.25,0.52,-0.52,-0.15,-0.28,-0.26,-0.26
699,0.20,0.45,0.20,0.45,-0.45,-0.06,-0.25,-0.25,-0.25
706,0.15,0.39,0.13,0.38,-0.38,0.02,-0.23,-0.24,-0.24
713,0.07,0.31,0.05,0.29,-0.29,0.09,-0.22,-0.24,-0.24
721,-0.03,0.20,-0.04,0.19,-0.19,0.17,-0.22,-0.23,-0.23
728,-0.16,0.07,-0.14,0.09,-0.09,0.23,-0.25,-0.23,-0.23
735,-0.26,-0.03,-0.26,-0.03,0.03,0.29,-0.23,-0.23,-0.23
742,-0.35,-0.12,-0.39,-0.16,0.16,0.34,-0.19,-0.23,-0.23
750,-0.48,-0.25,-0.52,-0.29,0.29,0.38,-0.19,-0.23,-0.23
757,-0.63,-0.40,-0.66,-0.42,0.42,0.42,-0.21,-0.23,-0.23
765,-0.83,-0.59,-0.79,-0.55,0.55,0.46,-0.28,-0.24,-0.24
773,-0.93,-0.69,-0.91,-0.67,0.67,0.49,-0.26,-0.24,-0.24
780,-1.03,-0.78,-1.02,-0.77,0.77,0.51,-0.26,-0.25,-0.25
788,-1.11,-0.86,-1.11,-0.86,0.86,0.54,-0.25,-0.25,-0.25
796,-1.16,-0.91,-1.17,-0.92,0.92,0.55,-0.24,-0.25,-0.25
804,-1.26,-1.00,-1.21,-0.95,0.95,0.57,-0.31,-0.26,-0.26
812,-1.23,-0.97,-1.21,-0.95,0.95,0.58,-0.28,-0.26,-0.26
820,-1.23,-0.97,-1.19,-0.93,0.93,0.58,-0.30,-0.26,-0.26
828,-1.18,-0.92,-1.14,-0.88,0.88,0.58,-0.30,-0.26,-0.26
837,-1.07,-0.81,-1.06,-0.81,0.81,0.58,-0.26,-0.26,-0.26
845,-0.95,-0.69,-0.97,-0.72,0.72,0.57,-0.23,-0.26,-0.26
853,-0.84,-0.59,-0.87,-0.62,0.62,0.56,-0.22,-0.25,-0.25
862,-0.76,-0.51,-0.76,-0.51,0.51,0.54,-0.25,-0.25,-0.25
871,-0.64,-0.40,-0.65,-0.41,0.41,0.52,-0.23,-0.24,-0.24
879,-0.51,-0.28,-0.54,-0.31,0.31,0.49,-0.20,-0.23,-0.23
888,-0.44,-0.22,-0.44,-0.22,0.22,0.46,-0.22,-0.23,-0.22
897,-0.35,-0.14,-0.35,-0.13,0.13,0.42,-0.22,-0.21,-0.21
906,-0.29,-0.09,-0.26,-0.06,0.06,0.38,-0.23,-0.20,-0.20
915,-0.19,-0.00,-0.19,0.00,-0.00,0.34,-0.19,-0.19,-0.19
924,-0.09,0.08,-0.12,0.05,-0.05,0.29,-0.14,-0.17,-0.17
933,-0.06,0.10,-0.07,0.09,-0.09,0.24,-0.15,-0.16,-0.16
943,-0.04,0.10,-0.03,0.11,-0.11,0.19,-0.15,-0.14,-0.14
952,0.01,0.13,0.01,0.12,-0.12,0.14,-0.11,-0.12,-0.12
962,0.02,0.11,0.03,0.12,-0.12,0.09,-0.10,-0.09,-0.09
971,0.06,0.13,0.04,0.10,-0.10,0.05,-0.04,-0.07,-0.07
981,0.03,0.07,0.03,0.07,-0.07,0.02,-0.04,-0.04,-0.04
991,0.00,0.01,0.02,0.03,-0.03,-0.00,-0.03,-0.01,-0.01
1001,0.00,-0.02,-0.01,-0.03,0.03,-0.01,0.03,0.02,0.02
1011,-0.04,-0.09,-0.05,-0.10,0.10,0.00,0.06,0.05,0.05
1021,-0.09,-0.17,-0.09,-0.18,0.18,0.04,0.09,0.08,0.08
1031,-0.14,-0.26,-0.15,-0.27,0.27,0.09,0.13,0.12,0.12
1041,-0.19,-0.35,-0.21,-0.37,0.37,0.16,0.18,0.16,0.16
1052,-0.27,-0.47,-0.27,-0.47,0.47,0.26,0.20,0.20,0.20
1062,-0.32,-0.56,-0.34,-0.58,0.58,0.37,0.26,0.24,0.24
1073,-0.45,-0.74,-0.41,-0.69,0.69,0.51,0.24,0.29,0.29
1084,-0.52,-0.85,-0.47,-0.80,0.80,0.66,0.28,0.33,0.33
1094,-0.55,-0.93,-0.54,-0.92,0.92,0.80,0.37,0.38,0.38
1105,-0.60,-1.02,-0.60,-1.03,1.03,0.97,0.43,0.42,0.42
1116,-0.67,-1.14,-0.67,-1.14,1.14,1.14,0.47,0.47,0.47
1128,-0.73,-1.25,-0.75,-1.27,1.27,1.32,0.54,0.52,0.52
1139,-0.78,-1.35,-0.83,-1.39,1.39,1.49,0.61,0.57,0.57
1150,-0.89,-1.50,-0.92,-1.53,1.53,1.66,0.64,0.61,0.61
1162,-1.02,-1.68,-1.01,-1.67,1.67,1.83,0.65,0.66,0.66
1173,-1.13,-1.83,-1.12,-1.82,1.82,1.99,0.69,0.70,0.70
1185,-1.24,-1.99,-1.22,-1.97,1.97,2.15,0.73,0.75,0.75
1197,-1.35,-2.14,-1.34,-2.12,2.12,2.30,0.77,0.79,0.79
1209,-1.47,-2.29,-1.45,-2.28,2.28,2.45,0.81,0.82,0.82
1221,-1.56,-2.42,-1.57,-2.43,2.43,2.59,0.87,0.86,0.86
1233,-1.70,-2.59,-1.69,-2.58,2.58,2.72,0.88,0.89,0.89
1246,-1.80,-2.72,-1.82,-2.74,2.74,2.86,0.94,0.92,0.92
1258,-1.95,-2.90,-1.95,-2.90,2.90,2.97,0.95,0.95,0.95
1271,-2.07,-3.04,-2.09,-3.06,3.06,3.09,0.99,0.97,0.97
1283,-2.19,-3.18,-2.23,-3.22,3.22,3.19,1.03,0.99,0.99
1296,-2.35,-3.35,-2.37,-3.38,3.38,3.29,1.03,1.00,1.00
1309,-2.52,-3.54,-2.51,-3.53,3.53,3.39,1.01,1.01,1.02
1322,-2.63,-3.65,-2.64,-3.67,3.67,3.47,1.04,1.02,1.02
1335,-2.79,-3.82,-2.76,-3.79,3.79,3.55,1.00,1.03,1.03
1349,-2.91,-3.94,-2.85,-3.89,3.89,3.63,0.98,1.03,1.03
1362,-2.98,-4.01,-2.93,-3.96,3.96,3.69,0.98,1.03,1.03
1376,-3.02,-4.05,-2.98,-4.01,4.01,3.75,0.99,1.03,1.03
1390,-3.03,-4.06,-3.01,-4.04,4.04,3.81,1.01,1.03,1.03
1404,-3.00,-4.03,-3.02,-4.05,4.05,3.86,1.05,1.03,1.03
1418,-3.00,-4.03,-3.03,-4.05,4.05,3.90,1.05,1.03,1.03
1432,-3.00,-4.02,-3.03,-4.05,4.05,3.94,1.05,1.02,1.02
1446,-2.99,-4.01,-3.02,-4.05,4.05,3.97,1.06,1.02,1.02
1461,-3.00,-4.02,-3.02,-4.05,4.05,4.00,1.05,1.02,1.02
1475,-3.03,-4.06,-3.02,-4.05,4.05,4.03,1.02,1.03,1.03
1490,-3.03,-4.06,-3.03,-4.06,4.06,4.05,1.03,1.03,1.03
1505,-3.03,-4.07,-3.03,-4.07,4.07,4.07,1.04,1.04,1.04
1520,-3.05,-4.10,-3.03,-4.08,4.08,4.09,1.03,1.05,1.05
1535,-3.02,-4.09,-3.03,-4.10,4.10,4.11,1.08,1.07,1.07
1550,-3.02,-4.11,-3.02,-4.11,4.11,4.12,1.09,1.09,1.09
1566,-3.02,-4.14,-3.01,-4.13,4.13,4.14,1.11,1.12,1.12
1582,-3.00,-4.15,-2.99,-4.14,4.14,4.15,1.14,1.16,1.15
1597,-2.94,-4.13,-2.96,-4.16,4.16,4.16,1.22,1.19,1.19
1613,-2.88,-4.12,-2.93,-4.17,4.17,4.18,1.29,1.24,1.24
1629,-2.90,-4.19,-2.88,-4.17,4.17,4.19,1.27,1.29,1.29
1646,-2.87,-4.22,-2.82,-4.18,4.18,4.21,1.31,1.35,1.35
1662,-2.78,-4.19,-2.76,-4.17,4.17,4.22,1.39,1.41,1.41
