frequency,raw,error,smoothed,error_smoothed,equalization,parametric_eq,equalized_raw,equalized_smoothed,target
20,0.41,-4.68,0.50,-4.57,4.57,1.00,4.98,5.06,5.09
21,0.77,-4.31,0.78,-4.28,4.28,1.17,5.05,5.06,5.08
22,1.08,-3.99,1.06,-3.99,3.99,1.34,5.08,5.05,5.07
23,1.28,-3.78,1.32,-3.72,3.72,1.54,5.00,5.05,5.06
24,1.61,-3.44,1.57,-3.46,3.46,1.74,5.07,5.04,5.05
25,1.90,-3.14,1.82,-3.21,3.21,1.94,5.11,5.03,5.04
26,2.13,-2.89,2.05,-2.97,2.97,2.14,5.10,5.02,5.02
27,2.23,-2.78,2.27,-2.74,2.74,2.32,4.97,5.00,5.01
28,2.52,-2.47,2.47,-2.52,2.52,2.48,5.04,4.99,4.99
29,2.71,-2.27,2.67,-2.30,2.30,2.58,5.01,4.97,4.98
30,2.90,-2.06,2.86,-2.10,2.10,2.64,5.00,4.96,4.96
31,3.03,-1.91,3.02,-1.91,1.91,2.64,4.94,4.94,4.94
32,3.12,-1.80,3.18,-1.74,1.74,2.58,4.86,4.91,4.92
33,3.28,-1.62,3.32,-1.57,1.57,2.48,4.85,4.89,4.90
34,3.47,-1.41,3.46,-1.41,1.41,2.33,4.88,4.87,4.88
35,3.57,-1.29,3.59,-1.26,1.26,2.15,4.83,4.84,4.86
36,3.68,-1.15,3.72,-1.11,1.11,1.96,4.79,4.82,4.83
37,3.86,-0.94,3.84,-0.97,0.97,1.75,4.83,4.80,4.81
38,3.92,-0.86,3.94,-0.83,0.83,1.54,4.75,4.77,4.78
39,4.05,-0.70,4.05,-0.69,0.69,1.32,4.74,4.74,4.75
40,4.22,-0.50,4.16,-0.56,0.56,1.11,4.78,4.72,4.72
41,4.24,-0.45,4.25,-0.43,0.43,0.91,4.67,4.69,4.69
42,4.36,-0.30,4.35,-0.31,0.31,0.70,4.67,4.66,4.66
43,4.43,-0.20,4.44,-0.19,0.19,0.51,4.62,4.63,4.63
44,4.48,-0.11,4.51,-0.08,0.08,0.32,4.56,4.59,4.59
45,4.63,0.07,4.59,0.03,-0.03,0.14,4.60,4.55,4.56
46,4.63,0.11,4.66,0.14,-0.14,-0.04,4.49,4.52,4.52
47,4.72,0.24,4.73,0.25,-0.25,-0.21,4.47,4.48,4.48
48,4.82,0.38,4.79,0.35,-0.35,-0.37,4.47,4.44,4.44
49,4.82,0.42,4.85,0.45,-0.45,-0.54,4.37,4.40,4.41
50,4.89,0.53,4.91,0.56,-0.56,-0.69,4.34,4.36,4.36
51,5.01,0.69,4.98,0.65,-0.65,-0.84,4.36,4.32,4.32
52,5.01,0.73,5.03,0.75,-0.75,-0.99,4.26,4.28,4.28
53,5.05,0.81,5.09,0.85,-0.85,-1.13,4.20,4.23,4.24
54,5.20,1.01,5.13,0.95,-0.95,-1.26,4.25,4.19,4.19
55,5.20,1.05,5.18,1.04,-1.04,-1.39,4.16,4.14,4.15
56,5.20,1.10,5.23,1.14,-1.14,-1.51,4.06,4.10,4.10
57,5.21,1.16,5.28,1.23,-1.23,-1.62,3.98,4.05,4.05
58,5.39,1.39,5.33,1.32,-1.32,-1.72,4.07,4.01,4.00
59,5.39,1.43,5.37,1.41,-1.41,-1.82,3.98,3.96,3.96
60,5.39,1.48,5.40,1.50,-1.50,-1.91,3.89,3.91,3.91
61,5.39,1.53,5.43,1.58,-1.58,-1.99,3.81,3.85,3.86
62,5.49,1.68,5.47,1.67,-1.67,-2.06,3.82,3.80,3.81
63,5.49,1.74,5.50,1.75,-1.75,-2.12,3.74,3.75,3.76
64,5.58,1.88,5.53,1.84,-1.84,-2.18,3.75,3.69,3.70
65,5.58,1.93,5.56,1.92,-1.92,-2.23,3.66,3.64,3.65
66,5.58,1.98,5.60,2.00,-2.00,-2.27,3.58,3.60,3.60
67,5.58,2.03,5.62,2.08,-2.08,-2.31,3.50,3.54,3.55
68,5.58,2.09,5.65,2.16,-2.16,-2.35,3.42,3.48,3.49
69,5.68,2.24,5.68,2.24,-2.24,-2.38,3.44,3.43,3.44
70,5.68,2.30,5.70,2.32,-2.32,-2.41,3.36,3.38,3.39
71,5.75,2.42,5.71,2.39,-2.39,-2.44,3.36,3.32,3.33
72,5.78,2.50,5.73,2.46,-2.46,-2.47,3.32,3.26,3.28
73,5.78,2.56,5.75,2.54,-2.54,-2.49,3.24,3.21,3.22
74,5.78,2.61,5.76,2.61,-2.61,-2.52,3.17,3.16,3.17
75,5.78,2.67,5.78,2.68,-2.68,-2.54,3.10,3.11,3.11
76,5.78,2.72,5.80,2.74,-2.74,-2.57,3.04,3.06,3.06
77,5.78,2.77,5.81,2.81,-2.81,-2.60,2.97,3.01,3.01
78,5.78,2.83,5.82,2.87,-2.87,-2.63,2.91,2.95,2.95
79,5.78,2.88,5.82,2.94,-2.94,-2.67,2.85,2.89,2.90
80,5.87,3.03,5.83,3.00,-3.00,-2.70,2.87,2.83,2.84
81,5.87,3.08,5.84,3.06,-3.06,-2.74,2.81,2.78,2.79
82,5.87,3.13,5.85,3.12,-3.12,-2.78,2.75,2.72,2.74
83,5.87,3.19,5.86,3.19,-3.19,-2.82,2.68,2.67,2.68
84,5.87,3.24,5.88,3.25,-3.25,-2.87,2.62,2.62,2.63
85,5.87,3.29,5.89,3.32,-3.32,-2.92,2.55,2.57,2.58
86,5.87,3.34,5.91,3.38,-3.38,-2.97,2.49,2.52,2.53
87,5.87,3.40,5.92,3.45,-3.45,-3.02,2.42,2.47,2.47
88,5.94,3.52,5.93,3.51,-3.51,-3.07,2.43,2.42,2.42
89,5.97,3.60,5.94,3.58,-3.58,-3.13,2.40,2.37,2.37
90,5.97,3.65,5.95,3.64,-3.64,-3.19,2.34,2.31,2.32
91,5.97,3.70,5.96,3.69,-3.69,-3.26,2.28,2.27,2.27
92,5.97,3.75,5.97,3.75,-3.75,-3.32,2.22,2.22,2.22
93,5.98,3.81,5.98,3.80,-3.80,-3.39,2.18,2.17,2.17
94,5.98,3.86,5.98,3.85,-3.85,-3.46,2.13,2.13,2.12
95,5.97,3.90,5.98,3.90,-3.90,-3.53,2.07,2.08,2.08
96,5.97,3.94,5.98,3.94,-3.94,-3.60,2.03,2.03,2.03
97,5.97,3.99,5.97,3.99,-3.99,-3.67,1.98,1.98,1.98
98,5.96,4.03,5.95,4.02,-4.02,-3.75,1.94,1.93,1.93
99,5.95,4.06,5.94,4.06,-4.06,-3.82,1.89,1.88,1.89
100,5.93,4.09,5.93,4.09,-4.09,-3.90,1.84,1.83,1.84
101,5.91,4.11,5.91,4.13,-4.13,-3.98,1.79,1.78,1.80
102,5.89,4.14,5.89,4.15,-4.15,-4.06,1.74,1.73,1.75
104,5.87,4.20,5.87,4.18,-4.18,-4.21,1.69,1.68,1.67
105,5.85,4.23,5.85,4.21,-4.21,-4.29,1.64,1.64,1.63
106,5.82,4.24,5.83,4.23,-4.23,-4.36,1.59,1.59,1.58
107,5.80,4.26,5.81,4.26,-4.26,-4.44,1.54,1.55,1.54
108,5.77,4.27,5.79,4.28,-4.28,-4.51,1.49,1.51,1.50
109,5.75,4.29,5.76,4.30,-4.30,-4.58,1.45,1.46,1.46
110,5.73,4.31,5.74,4.32,-4.32,-4.65,1.41,1.42,1.42
111,5.72,4.34,5.72,4.34,-4.34,-4.72,1.38,1.38,1.38
112,5.71,4.37,5.70,4.36,-4.36,-4.79,1.35,1.34,1.35
113,5.70,4.39,5.68,4.39,-4.39,-4.85,1.32,1.30,1.31
114,5.69,4.42,5.67,4.41,-4.41,-4.91,1.28,1.26,1.28
115,5.69,4.45,5.65,4.43,-4.43,-4.96,1.26,1.22,1.24
117,5.61,4.43,5.64,4.45,-4.45,-5.06,1.16,1.19,1.18
118,5.60,4.45,5.63,4.48,-4.48,-5.11,1.12,1.15,1.15
119,5.60,4.48,5.63,4.51,-4.51,-5.15,1.09,1.12,1.12
120,5.61,4.52,5.63,4.54,-4.54,-5.18,1.07,1.09,1.10
121,5.62,4.55,5.62,4.57,-4.57,-5.21,1.05,1.06,1.07
123,5.63,4.61,5.62,4.60,-4.60,-5.26,1.03,1.02,1.02
124,5.63,4.63,5.63,4.63,-4.63,-5.28,1.00,0.99,1.00
125,5.64,4.66,5.63,4.67,-4.67,-5.29,0.97,0.96,0.98
126,5.65,4.69,5.64,4.70,-4.70,-5.31,0.95,0.94,0.96
128,5.65,4.74,5.66,4.74,-4.74,-5.31,0.91,0.91,0.91
129,5.66,4.77,5.67,4.78,-4.78,-5.31,0.89,0.89,0.89
130,5.67,4.80,5.68,4.81,-4.81,-5.31,0.86,0.87,0.87
131,5.67,4.82,5.68,4.84,-4.84,-5.30,0.83,0.84,0.85
133,5.68,4.87,5.68,4.87,-4.87,-5.27,0.82,0.81,0.81
134,5.68,4.89,5.68,4.89,-4.89,-5.26,0.79,0.78,0.79
135,5.68,4.91,5.67,4.91,-4.91,-5.24,0.77,0.75,0.77
137,5.69,4.97,5.65,4.93,-4.93,-5.19,0.76,0.72,0.72
138,5.69,4.99,5.64,4.95,-4.95,-5.17,0.74,0.69,0.70
140,5.62,4.96,5.62,4.96,-4.96,-5.11,0.66,0.66,0.66
141,5.60,4.96,5.60,4.97,-4.97,-5.09,0.63,0.63,0.64
142,5.60,4.98,5.58,4.99,-4.99,-5.06,0.62,0.60,0.62
144,5.53,4.95,5.57,5.00,-5.00,-5.00,0.53,0.57,0.58
145,5.50,4.94,5.56,5.01,-5.01,-4.96,0.49,0.54,0.56
147,5.50,4.98,5.54,5.02,-5.02,-4.90,0.48,0.52,0.52
148,5.50,4.99,5.53,5.04,-5.04,-4.87,0.47,0.50,0.51
150,5.50,5.03,5.51,5.05,-5.05,-4.81,0.45,0.47,0.47
151,5.50,5.05,5.50,5.06,-5.06,-4.78,0.44,0.44,0.46
153,5.50,5.08,5.48,5.07,-5.07,-4.72,0.43,0.41,0.42
154,5.50,5.09,5.47,5.08,-5.08,-4.70,0.42,0.39,0.41
156,5.51,5.13,5.45,5.09,-5.09,-4.64,0.42,0.36,0.38
157,5.51,5.15,5.44,5.10,-5.10,-4.62,0.41,0.34,0.36
159,5.46,5.13,5.42,5.10,-5.10,-4.57,0.36,0.32,0.33
160,5.36,5.04,5.41,5.11,-5.11,-4.55,0.25,0.30,0.32
162,5.31,5.02,5.39,5.11,-5.11,-4.51,0.20,0.28,0.29
164,5.31,5.05,5.37,5.12,-5.12,-4.48,0.20,0.25,0.26
165,5.31,5.07,5.34,5.12,-5.12,-4.46,0.20,0.22,0.24
167,5.30,5.09,5.31,5.11,-5.11,-4.43,0.19,0.20,0.21
169,5.30,5.12,5.28,5.11,-5.11,-4.41,0.19,0.17,0.18
170,5.29,5.12,5.25,5.11,-5.11,-4.40,0.18,0.14,0.17
172,5.28,5.14,5.23,5.10,-5.10,-4.38,0.18,0.12,0.14
174,5.26,5.15,5.20,5.10,-5.10,-4.37,0.16,0.10,0.11
175,5.20,5.10,5.18,5.10,-5.10,-4.37,0.10,0.09,0.10
177,5.15,5.07,5.17,5.09,-5.09,-4.37,0.06,0.08,0.08
179,5.07,5.01,5.15,5.09,-5.09,-4.37,-0.02,0.06,0.06
181,5.08,5.03,5.13,5.08,-5.08,-4.37,0.00,0.05,0.05
183,5.08,5.05,5.11,5.07,-5.07,-4.38,0.01,0.04,0.04
184,5.09,5.05,5.10,5.06,-5.06,-4.38,0.03,0.03,0.04
186,5.11,5.08,5.08,5.05,-5.05,-4.40,0.06,0.02,0.03
188,5.09,5.06,5.06,5.04,-5.04,-4.42,0.05,0.02,0.03
190,5.02,4.99,5.05,5.03,-5.03,-4.44,-0.01,0.02,0.03
192,5.05,5.02,5.05,5.02,-5.02,-4.46,0.03,0.02,0.03
194,5.09,5.06,5.04,5.01,-5.01,-4.49,0.08,0.03,0.03
196,5.04,5.01,5.03,5.00,-5.00,-4.52,0.04,0.03,0.03
198,5.00,4.97,5.02,4.99,-4.99,-4.55,0.02,0.03,0.03
200,5.01,4.98,4.99,4.97,-4.97,-4.58,0.04,0.02,0.03
202,4.93,4.91,4.96,4.95,-4.95,-4.62,-0.02,0.01,0.02
204,4.92,4.90,4.93,4.93,-4.93,-4.65,-0.01,-0.00,0.02
206,4.95,4.94,4.91,4.91,-4.91,-4.69,0.04,-0.01,0.01
208,4.95,4.95,4.89,4.90,-4.90,-4.73,0.06,-0.01,-0.00
210,4.83,4.84,4.86,4.88,-4.88,-4.77,-0.05,-0.02,-0.01
212,4.80,4.83,4.82,4.86,-4.86,-4.81,-0.06,-0.04,-0.03
214,4.71,4.75,4.78,4.84,-4.84,-4.84,-0.13,-0.06,-0.04
216,4.71,4.77,4.76,4.82,-4.82,-4.88,-0.11,-0.06,-0.05
218,4.72,4.79,4.73,4.80,-4.80,-4.92,-0.08,-0.07,-0.07
221,4.74,4.83,4.70,4.78,-4.78,-4.97,-0.04,-0.08,-0.08
223,4.74,4.84,4.67,4.76,-4.76,-5.00,-0.02,-0.09,-0.09
225,4.70,4.80,4.63,4.74,-4.74,-5.03,-0.04,-0.11,-0.10
227,4.57,4.68,4.59,4.72,-4.72,-5.06,-0.15,-0.12,-0.11
229,4.51,4.62,4.57,4.69,-4.69,-5.08,-0.18,-0.12,-0.11
232,4.53,4.64,4.56,4.67,-4.67,-5.11,-0.14,-0.11,-0.11
234,4.55,4.66,4.53,4.64,-4.64,-5.12,-0.09,-0.11,-0.11
236,4.58,4.68,4.51,4.62,-4.62,-5.14,-0.04,-0.11,-0.10
239,4.40,4.50,4.49,4.59,-4.59,-5.15,-0.19,-0.10,-0.10
241,4.38,4.47,4.47,4.56,-4.56,-5.15,-0.18,-0.09,-0.09
244,4.42,4.50,4.45,4.54,-4.54,-5.15,-0.12,-0.09,-0.08
246,4.44,4.51,4.43,4.51,-4.51,-5.14,-0.07,-0.08,-0.07
248,4.48,4.53,4.41,4.48,-4.48,-5.12,0.00,-0.06,-0.05
251,4.48,4.53,4.40,4.45,-4.45,-5.10,0.03,-0.05,-0.05
253,4.37,4.41,4.37,4.42,-4.42,-5.08,-0.05,-0.05,-0.03
256,4.30,4.33,4.33,4.38,-4.38,-5.04,-0.08,-0.05,-0.03
259,4.34,4.37,4.31,4.35,-4.35,-4.99,-0.01,-0.04,-0.03
261,4.35,4.38,4.28,4.31,-4.31,-4.95,0.04,-0.03,-0.02
264,4.23,4.26,4.25,4.28,-4.28,-4.89,-0.05,-0.03,-0.03
266,4.12,4.15,4.20,4.24,-4.24,-4.84,-0.12,-0.04,-0.03
269,4.12,4.15,4.16,4.20,-4.20,-4.77,-0.08,-0.05,-0.03
272,4.13,4.17,4.12,4.16,-4.16,-4.69,-0.03,-0.05,-0.04
274,4.04,4.08,4.07,4.13,-4.13,-4.64,-0.08,-0.05,-0.04
277,4.01,4.05,4.03,4.09,-4.09,-4.56,-0.08,-0.05,-0.04
280,4.07,4.12,4.01,4.05,-4.05,-4.47,0.02,-0.04,-0.05
283,4.04,4.09,3.97,4.01,-4.01,-4.38,0.03,-0.04,-0.05
286,3.86,3.91,3.94,3.98,-3.98,-4.29,-0.11,-0.04,-0.04
288,3.82,3.86,3.90,3.94,-3.94,-4.22,-0.12,-0.04,-0.04
291,3.89,3.92,3.87,3.90,-3.90,-4.13,-0.00,-0.03,-0.03
294,3.92,3.95,3.83,3.85,-3.85,-4.03,0.07,-0.02,-0.03
297,3.79,3.81,3.78,3.81,-3.81,-3.94,-0.02,-0.03,-0.02
300,3.68,3.69,3.74,3.76,-3.76,-3.85,-0.08,-0.02,-0.01
303,3.73,3.73,3.70,3.71,-3.71,-3.75,0.02,-0.01,-0.00
306,3.74,3.74,3.66,3.66,-3.66,-3.66,0.08,-0.01,0.01
309,3.56,3.55,3.61,3.61,-3.61,-3.57,-0.05,-0.00,0.01
312,3.52,3.50,3.56,3.56,-3.56,-3.48,-0.04,0.01,0.02
316,3.49,3.47,3.52,3.51,-3.51,-3.36,-0.02,0.02,0.02
319,3.46,3.44,3.47,3.46,-3.46,-3.27,0.01,0.02,0.02
322,3.38,3.36,3.41,3.40,-3.40,-3.19,-0.02,0.01,0.02
325,3.39,3.37,3.35,3.35,-3.35,-3.11,0.04,0.00,0.02
328,3.41,3.39,3.30,3.30,-3.30,-3.03,0.11,0.00,0.02
332,3.28,3.26,3.25,3.25,-3.25,-2.92,0.04,0.01,0.02
335,3.14,3.12,3.20,3.20,-3.20,-2.85,-0.05,0.00,0.02
338,3.14,3.13,3.15,3.15,-3.15,-2.77,-0.01,0.00,0.01
342,3.08,3.07,3.11,3.10,-3.10,-2.68,-0.01,0.01,0.01
345,3.05,3.04,3.06,3.04,-3.04,-2.61,0.01,0.01,0.01
349,2.98,2.97,3.00,2.99,-2.99,-2.52,-0.01,0.01,0.01
352,2.89,2.88,2.95,2.94,-2.94,-2.46,-0.05,0.01,0.01
356,2.83,2.82,2.89,2.89,-2.89,-2.37,-0.06,0.01,0.02
359,2.91,2.89,2.85,2.83,-2.83,-2.31,0.08,0.01,0.02
363,2.95,2.93,2.80,2.78,-2.78,-2.24,0.17,0.02,0.02
366,2.72,2.69,2.76,2.73,-2.73,-2.18,-0.01,0.03,0.03
370,2.72,2.68,2.70,2.67,-2.67,-2.11,0.05,0.03,0.04
374,2.67,2.63,2.66,2.62,-2.62,-2.04,0.05,0.04,0.04
377,2.51,2.46,2.61,2.57,-2.57,-1.99,-0.06,0.05,0.05
381,2.51,2.45,2.55,2.51,-2.51,-1.93,-0.00,0.04,0.06
385,2.56,2.50,2.51,2.46,-2.46,-1.86,0.10,0.04,0.06
389,2.49,2.43,2.47,2.41,-2.41,-1.81,0.09,0.06,0.07
393,2.45,2.38,2.41,2.35,-2.35,-1.75,0.10,0.06,0.07
397,2.27,2.20,2.34,2.29,-2.29,-1.69,-0.02,0.05,0.07
401,2.20,2.14,2.28,2.23,-2.23,-1.64,-0.03,0.04,0.07
405,2.30,2.24,2.24,2.18,-2.18,-1.59,0.12,0.06,0.06
409,2.30,2.24,2.17,2.12,-2.12,-1.54,0.18,0.06,0.06
413,2.06,2.00,2.11,2.06,-2.06,-1.49,0.00,0.05,0.06
417,2.04,1.98,2.06,2.00,-2.00,-1.45,0.04,0.06,0.06
421,2.15,2.08,2.00,1.94,-1.94,-1.40,0.21,0.06,0.07
425,1.97,1.89,1.94,1.88,-1.88,-1.36,0.09,0.07,0.08
430,1.70,1.60,1.91,1.82,-1.82,-1.30,-0.12,0.10,0.10
434,1.75,1.63,1.88,1.76,-1.76,-1.26,-0.01,0.12,0.12
438,1.92,1.77,1.85,1.70,-1.70,-1.23,0.22,0.16,0.15
443,1.85,1.66,1.83,1.64,-1.64,-1.18,0.21,0.19,0.19
447,1.66,1.43,1.81,1.57,-1.57,-1.14,0.09,0.23,0.23
451,1.79,1.51,1.79,1.51,-1.51,-1.10,0.28,0.28,0.28
456,1.95,1.62,1.77,1.45,-1.45,-1.06,0.50,0.32,0.34
460,1.72,1.33,1.76,1.38,-1.38,-1.03,0.34,0.37,0.39
465,1.79,1.34,1.75,1.32,-1.32,-0.98,0.47,0.44,0.45
470,1.85,1.34,1.75,1.25,-1.25,-0.94,0.60,0.50,0.51
474,1.66,1.10,1.75,1.18,-1.18,-0.91,0.48,0.56,0.57
479,1.69,1.07,1.72,1.12,-1.12,-0.87,0.57,0.61,0.62
484,1.74,1.07,1.69,1.05,-1.05,-0.83,0.69,0.64,0.67
489,1.66,0.94,1.68,0.98,-0.98,-0.80,0.68,0.69,0.72
494,1.48,0.72,1.66,0.92,-0.92,-0.76,0.56,0.74,0.76
499,1.62,0.83,1.63,0.85,-0.85,-0.72,0.77,0.77,0.79
504,1.75,0.93,1.59,0.79,-0.79,-0.69,0.96,0.80,0.82
509,1.55,0.72,1.54,0.73,-0.73,-0.65,0.82,0.81,0.83
514,1.37,0.53,1.48,0.67,-0.67,-0.61,0.70,0.82,0.84
519,1.54,0.70,1.43,0.60,-0.60,-0.58,0.94,0.82,0.85
524,1.41,0.57,1.36,0.54,-0.54,-0.55,0.87,0.81,0.84
529,1.28,0.46,1.29,0.48,-0.48,-0.51,0.80,0.81,0.82
535,1.27,0.47,1.21,0.41,-0.41,-0.47,0.86,0.80,0.80
540,1.17,0.40,1.12,0.34,-0.34,-0.44,0.83,0.78,0.77
545,1.00,0.26,1.01,0.27,-0.27,-0.40,0.73,0.74,0.74
551,0.73,0.02,0.90,0.20,-0.20,-0.36,0.53,0.70,0.71
556,0.72,0.05,0.79,0.12,-0.12,-0.33,0.60,0.66,0.67
562,0.79,0.15,0.69,0.04,-0.04,-0.29,0.75,0.65,0.64
568,0.62,0.01,0.58,-0.04,0.04,-0.25,0.66,0.62,0.61
573,0.44,-0.15,0.47,-0.12,0.12,-0.22,0.56,0.59,0.59
579,0.56,-0.01,0.37,-0.20,0.20,-0.18,0.76,0.57,0.57
585,0.20,-0.36,0.28,-0.28,0.28,-0.14,0.48,0.56,0.56
591,0.02,-0.53,0.19,-0.36,0.36,-0.10,0.38,0.54,0.55
596,0.07,-0.48,0.12,-0.44,0.44,-0.07,0.51,0.55,0.55
602,0.15,-0.41,0.06,-0.51,0.51,-0.03,0.66,0.57,0.56
608,-0.02,-0.60,0.00,-0.58,0.58,0.01,0.56,0.58,0.58
615,-0.06,-0.66,-0.06,-0.65,0.65,0.05,0.59,0.59,0.60
621,-0.12,-0.75,-0.09,-0.71,0.71,0.09,0.60,0.62,0.63
627,-0.13,-0.79,-0.11,-0.78,0.78,0.13,0.65,0.67,0.66
633,-0.17,-0.87,-0.13,-0.84,0.84,0.17,0.67,0.71,0.70
639,-0.19,-0.94,-0.16,-0.90,0.90,0.21,0.71,0.74,0.75
646,-0.19,-0.98,-0.16,-0.95,0.95,0.25,0.77,0.80,0.80
652,-0.03,-0.87,-0.15,-1.01,1.01,0.29,0.98,0.86,0.85
659,-0.18,-1.08,-0.16,-1.07,1.07,0.33,0.89,0.90,0.90
665,-0.23,-1.18,-0.18,-1.12,1.12,0.37,0.89,0.94,0.95
672,-0.09,-1.09,-0.18,-1.17,1.17,0.42,1.08,0.99,1.00
679,-0.04,-1.09,-0.19,-1.22,1.22,0.46,1.18,1.03,1.05
686,-0.33,-1.42,-0.20,-1.27,1.27,0.51,0.95,1.07,1.09
692,-0.38,-1.51,-0.21,-1.32,1.32,0.55,0.94,1.11,1.13
699,-0.21,-1.37,-0.23,-1.37,1.37,0.59,1.16,1.14,1.16
706,-0.07,-1.25,-0.25,-1.41,1.41,0.64,1.34,1.16,1.18
713,-0.22,-1.42,-0.28,-1.45,1.45,0.69,1.23,1.17,1.20
721,-0.39,-1.60,-0.31,-1.49,1.49,0.74,1.10,1.18,1.21
728,-0.44,-1.65,-0.32,-1.52,1.52,0.79,1.09,1.20,1.21
735,-0.35,-1.56,-0.35,-1.55,1.55,0.83,1.21,1.20,1.21
742,-0.28,-1.49,-0.38,-1.58,1.58,0.88,1.30,1.20,1.21
750,-0.38,-1.59,-0.40,-1.61,1.61,0.93,1.23,1.21,1.21
757,-0.43,-1.64,-0.41,-1.64,1.64,0.98,1.21,1.23,1.21
765,-0.46,-1.67,-0.43,-1.66,1.66,1.03,1.20,1.23,1.21
773,-0.47,-1.69,-0.46,-1.68,1.68,1.09,1.21,1.23,1.22
780,-0.48,-1.70,-0.47,-1.70,1.70,1.13,1.22,1.24,1.23
788,-0.49,-1.73,-0.47,-1.72,1.72,1.19,1.23,1.25,1.24
796,-0.49,-1.74,-0.48,-1.74,1.74,1.24,1.25,1.26,1.25
804,-0.49,-1.76,-0.50,-1.76,1.76,1.29,1.27,1.26,1.27
812,-0.48,-1.76,-0.51,-1.77,1.77,1.34,1.29,1.26,1.28
820,-0.48,-1.78,-0.50,-1.79,1.79,1.39,1.31,1.28,1.30
828,-0.47,-1.79,-0.49,-1.79,1.79,1.44,1.32,1.30,1.32
837,-0.47,-1.80,-0.48,-1.80,1.80,1.49,1.33,1.32,1.33
845,-0.47,-1.82,-0.47,-1.80,1.80,1.54,1.33,1.33,1.35
853,-0.53,-1.89,-0.45,-1.80,1.80,1.58,1.27,1.34,1.36
862,-0.56,-1.92,-0.43,-1.79,1.79,1.63,1.23,1.35,1.37
871,-0.41,-1.78,-0.42,-1.78,1.78,1.68,1.37,1.36,1.37
879,-0.40,-1.78,-0.40,-1.77,1.77,1.72,1.37,1.37,1.38
888,-0.24,-1.62,-0.38,-1.75,1.75,1.76,1.51,1.37,1.38
897,-0.25,-1.64,-0.36,-1.73,1.73,1.80,1.49,1.38,1.39
906,-0.40,-1.79,-0.33,-1.72,1.72,1.83,1.32,1.39,1.39
915,-0.34,-1.74,-0.30,-1.70,1.70,1.86,1.36,1.40,1.40
924,-0.24,-1.64,-0.27,-1.68,1.68,1.89,1.44,1.41,1.40
933,-0.24,-1.65,-0.24,-1.66,1.66,1.92,1.42,1.42,1.41
943,-0.24,-1.66,-0.21,-1.63,1.63,1.94,1.39,1.42,1.42
952,-0.23,-1.66,-0.18,-1.61,1.61,1.96,1.38,1.43,1.43
962,-0.14,-1.58,-0.15,-1.58,1.58,1.97,1.44,1.43,1.44
971,-0.13,-1.58,-0.12,-1.56,1.56,1.98,1.43,1.44,1.45
981,-0.03,-1.49,-0.08,-1.53,1.53,1.98,1.50,1.45,1.46
991,-0.01,-1.49,-0.02,-1.50,1.50,1.98,1.49,1.48,1.48
1001,0.00,-1.50,0.04,-1.47,1.47,1.98,1.47,1.51,1.50
1011,0.02,-1.50,0.08,-1.44,1.44,1.97,1.46,1.52,1.52
1021,0.13,-1.41,0.13,-1.41,1.41,1.95,1.54,1.54,1.54
1031,0.20,-1.37,0.20,-1.38,1.38,1.93,1.58,1.57,1.57
1041,0.29,-1.30,0.26,-1.35,1.35,1.91,1.64,1.60,1.59
1052,0.33,-1.29,0.31,-1.32,1.32,1.88,1.65,1.63,1.62
1062,0.37,-1.28,0.35,-1.29,1.29,1.85,1.66,1.65,1.65
1073,0.41,-1.26,0.40,-1.27,1.27,1.81,1.68,1.67,1.68
1084,0.46,-1.24,0.45,-1.25,1.25,1.77,1.71,1.69,1.71
1094,0.51,-1.22,0.51,-1.22,1.22,1.72,1.73,1.73,1.74
1105,0.57,-1.20,0.57,-1.20,1.20,1.68,1.77,1.77,1.77
1116,0.64,-1.16,0.63,-1.18,1.18,1.62,1.82,1.81,1.80
1128,0.70,-1.14,0.68,-1.16,1.16,1.57,1.86,1.84,1.84
1139,0.62,-1.25,0.72,-1.14,1.14,1.51,1.76,1.86,1.87
1150,0.71,-1.20,0.79,-1.11,1.11,1.45,1.82,1.90,1.91
1162,0.85,-1.09,0.86,-1.08,1.08,1.39,1.94,1.94,1.94
1173,0.95,-1.03,0.92,-1.06,1.06,1.33,2.01,1.98,1.98
1185,1.05,-0.96,0.99,-1.03,1.03,1.26,2.08,2.01,2.01
1197,1.11,-0.94,1.06,-0.99,0.99,1.19,2.10,2.05,2.05
1209,1.17,-0.92,1.13,-0.96,0.96,1.12,2.13,2.09,2.09
1221,1.15,-0.97,1.20,-0.92,0.92,1.05,2.07,2.12,2.13
1233,1.13,-1.03,1.27,-0.88,0.88,0.98,2.01,2.15,2.16
1246,1.33,-0.86,1.34,-0.84,0.84,0.91,2.17,2.18,2.19
1258,1.58,-0.63,1.42,-0.79,0.79,0.84,2.37,2.21,2.21
1271,1.46,-0.77,1.47,-0.74,0.74,0.76,2.20,2.21,2.23
1283,1.48,-0.76,1.52,-0.69,0.69,0.69,2.17,2.20,2.24
1296,1.63,-0.62,1.59,-0.63,0.63,0.62,2.26,2.22,2.25
1309,1.67,-0.58,1.66,-0.57,0.57,0.54,2.24,2.23,2.25
1322,1.74,-0.50,1.72,-0.50,0.50,0.47,2.24,2.22,2.24
1335,1.70,-0.53,1.78,-0.43,0.43,0.40,2.13,2.21,2.23
1349,1.81,-0.40,1.84,-0.35,0.35,0.32,2.16,2.19,2.21
1362,1.98,-0.21,1.91,-0.27,0.27,0.24,2.25,2.18,2.20
1376,1.88,-0.29,1.97,-0.19,0.19,0.17,2.07,2.16,2.17
1390,2.01,-0.14,2.03,-0.11,0.11,0.09,2.12,2.14,2.15
1404,2.16,0.03,2.12,-0.02,0.02,0.01,2.18,2.14,2.13
1418,2.33,0.21,2.19,0.06,-0.06,-0.06,2.27,2.13,2.12
1432,2.18,0.08,2.26,0.14,-0.14,-0.14,2.04,2.12,2.10
1446,2.17,0.08,2.33,0.22,-0.22,-0.21,1.95,2.11,2.09
1461,2.38,0.29,2.40,0.29,-0.29,-0.29,2.09,2.11,2.09
1475,2.56,0.47,2.47,0.36,-0.36,-0.36,2.20,2.11,2.09
1490,2.70,0.60,2.53,0.43,-0.43,-0.44,2.27,2.10,2.10
1505,2.60,0.50,2.60,0.50,-0.50,-0.52,2.10,2.10,2.10
1520,2.66,0.55,2.67,0.56,-0.56,-0.59,2.10,2.11,2.11
1535,2.74,0.62,2.73,0.62,-0.62,-0.67,2.12,2.11,2.12
1550,2.80,0.66,2.80,0.68,-0.68,-0.74,2.12,2.12,2.14
1566,2.78,0.62,2.88,0.74,-0.74,-0.82,2.04,2.14,2.16
1582,2.94,0.76,2.97,0.80,-0.80,-0.89,2.14,2.18,2.18
1597,3.05,0.85,3.06,0.86,-0.86,-0.96,2.19,2.21,2.20
1613,3.09,0.86,3.14,0.92,-0.92,-1.04,2.18,2.23,2.24
1629,3.20,0.93,3.23,0.98,-0.98,-1.11,2.23,2.25,2.27
1646,3.39,1.08,3.33,1.03,-1.03,-1.18,2.36,2.30,2.31
1662,3.46,1.11,3.45,1.09,-1.09,-1.25,2.37,2.36,2.35
1679,3.57,1.17,3.56,1.15,-1.15,-1.32,2.42,2.41,2.40
1696,3.70,1.24,3.68,1.20,-1.20,-1.39,2.50,2.47,2.46
1713,3.84,1.32,3.80,1.26,-1.26,-1.45,2.59,2.54,2.52
1730,3.95,1.35,3.92,1.30,-1.30,-1.52,2.65,2.62,2.60
1747,4.04,1.36,4.04,1.34,-1.34,-1.57,2.70,2.69,2.68
1764,4.08,1.31,4.16,1.38,-1.38,-1.63,2.70,2.78,2.77
1782,4.23,1.36,4.28,1.42,-1.42,-1.69,2.81,2.87,2.87
1800,4.43,1.46,4.41,1.45,-1.45,-1.74,2.98,2.96,2.97
1818,4.55,1.48,4.53,1.47,-1.47,-1.78,3.08,3.05,3.08
1836,4.66,1.48,4.66,1.50,-1.50,-1.82,3.16,3.16,3.18
1854,4.79,1.50,4.79,1.52,-1.52,-1.86,3.27,3.26,3.29
1873,4.91,1.51,4.91,1.54,-1.54,-1.89,3.37,3.37,3.40
1892,5.04,1.52,5.03,1.57,-1.57,-1.92,3.47,3.46,3.52
1911,5.17,1.54,5.15,1.59,-1.59,-1.94,3.58,3.56,3.63
1930,5.31,1.56,5.29,1.62,-1.62,-1.96,3.69,3.67,3.75
1949,5.44,1.58,5.43,1.64,-1.64,-1.97,3.80,3.78,3.86
1969,5.57,1.60,5.56,1.67,-1.67,-1.97,3.90,3.89,3.97
1988,5.70,1.63,5.69,1.70,-1.70,-1.97,4.00,3.99,4.07
2008,5.82,1.64,5.84,1.74,-1.74,-1.96,4.08,4.10,4.18
2028,5.95,1.67,5.98,1.78,-1.78,-1.95,4.17,4.21,4.28
2048,6.05,1.67,6.14,1.82,-1.82,-1.93,4.23,4.32,4.38
2069,6.17,1.68,6.30,1.86,-1.86,-1.90,4.31,4.44,4.49
