frequency,raw
10,-22.012205213426604
11,-21.8742593829716
12,-19.621982944551288
13,-17.483061849370927
14,-15.154404008802416
15,-12.797232876735801
16,-10.84342638845639
17,-8.881277900625818
18,-7.23432012008464
19,-5.5220855870866075
20,-4.360522448706945
21,-3.139101320653755
22,-2.4199161610736355
23,-1.6912501879114608
24,-1.5132801767510045
25,-1.1419277925558204
26,-0.8639225509811252
27,-0.3499564376729971
28,-0.9745072473601435
29,-0.8400444762116868
30,-0.35048180183524824
31,-0.30158079592154996
32,-0.7439172913371044
33,-0.6143835255921561
34,-0.7849597298694437
35,-0.7908823764393165
36,-0.9035531731985542
37,-0.8564867130762814
38,-1.0298567318941827
39,-0.9675668868778668
40,-1.053027218774246
41,-1.1559315312994811
42,-1.24896707124581
43,-1.3122899481203665
44,-1.4375063880299326
45,-1.444930754842169
46,-1.4927764164902912
47,-1.5562188972032236
48,-1.6631557257698861
49,-1.7405933397308284
50,-1.8218100024073967
51,-1.8026918708595443
52,-1.7840159553911694
53,-1.9521676880743017
54,-1.9557219058667599
55,-2.052618341701287
56,-2.1495255780795057
57,-2.1653577513579667
58,-2.254098932375927
59,-2.3780500685910293
60,-2.3847763613999895
61,-2.463866740005421
62,-2.5836172008822307
63,-2.5846567162708647
64,-2.585732499879666
65,-2.606662691771796
66,-2.684670952470533
67,-2.7807246147495395
68,-2.848966115499286
69,-2.868666795164396
70,-2.861408908881861
71,-2.854341508388728
72,-2.9416079275755025
73,-3.041005406256555
74,-3.043875343599637
75,-3.0507045099241683
76,-3.060822333302489
77,-3.0732053496497214
78,-3.116832803700133
79,-3.1946869301127
80,-3.299406111402113
81,-3.3021753809344623
82,-3.2986833019435005
83,-3.289726519146515
84,-3.2771659652771015
85,-3.262942058910649
86,-3.248278685172348
87,-3.265218699755667
88,-3.3161726453566858
89,-3.305392257907045
90,-3.2974554559662166
91,-3.2977351988033456
92,-3.3059948408688835
93,-3.3199366868808657
94,-3.3345105950541423
95,-3.343868879907068
96,-3.3441531786560965
97,-3.338861799923985
98,-3.322881374077625
99,-3.1514685181152386
100,-3.1181359284703087
101,-3.1263203098302452
102,-3.1410417892085505
104,-3.1554472380106255
105,-3.162630460340229
106,-3.1589574813943155
107,-3.145633552256448
108,-3.127832592852685
109,-3.1120619189388044
110,-3.1032936799659327
111,-3.103301785402617
112,-3.110764386989063
113,-3.1226484955596723
114,-3.1358303287342855
115,-3.1480758763597785
117,-3.158159124346386
118,-3.1339214206916073
119,-3.0542302770000433
120,-3.0579607071580615
121,-3.0751657830084134
123,-3.0745410402445366
124,-3.074567625252809
125,-3.0755489350491003
126,-3.0765637351801876
128,-3.093449013763157
129,-3.0916073298653326
130,-3.0110715848140894
131,-2.9620814641232056
133,-2.9565570311987344
134,-2.9550475077361096
135,-2.957718765312226
137,-2.962494917878209
138,-2.966118014293597
140,-2.9659183997301466
141,-2.9612474138027336
142,-2.9537529677103738
144,-2.946414956237341
145,-2.9419857280785586
147,-2.9417197163013435
148,-2.944938832187213
150,-2.949405150281986
151,-2.952118232289105
153,-2.95019815388904
154,-2.94174415175949
156,-3.0266163135049604
157,-3.022674643720225
159,-2.983338113549897
160,-2.9619151169552116
162,-2.94233907271277
164,-3.042406257529011
165,-3.1158212675054258
167,-3.2330318109456173
169,-3.279176982694674
170,-3.3384097645863915
172,-3.3974229696726046
174,-3.379630458228467
175,-3.371378319763033
177,-3.3694862844184432
179,-3.368909228042059
181,-3.368629914026482
183,-3.367816439132952
184,-3.3665369438920645
186,-3.365648382142161
188,-3.3659689821058754
190,-3.3673284173108713
192,-3.489761758940268
194,-3.4929521351220116
196,-3.4220491072250843
198,-3.4331785840057276
200,-3.523139492472194
202,-3.5818057072889675
204,-3.654852279241134
206,-3.6723526672787856
208,-3.7302831844384796
210,-3.7482454583125255
212,-3.741201095567164
214,-3.707220860287714
216,-3.6871194429879144
218,-3.6908227507539246
221,-3.8102196863406457
223,-3.809577806645471
225,-3.813664086069171
227,-3.8457922013148687
229,-3.928121851998179
232,-4.008628670439083
234,-4.0368851413572155
236,-4.033839844719008
239,-4.117534068579676
241,-4.128124430215205
244,-4.185547974873838
246,-4.1713126757653285
248,-4.16129585766118
251,-4.19107862572973
253,-4.251023387576483
256,-4.356171460033944
259,-4.341162461627922
261,-4.33739179388532
264,-4.421348013022262
266,-4.554954814797556
269,-4.581007707163945
272,-4.54587129352921
274,-4.54107707646127
277,-4.707812806553546
280,-4.7548967783198695
283,-4.707169193974444
286,-4.697135794795868
288,-4.805659932663843
291,-4.8017463907207
294,-4.904013865639031
297,-4.898204778686759
300,-4.8544218287944325
303,-4.870073830327073
306,-4.953743074053488
309,-4.94962010747718
312,-4.942499916381566
316,-4.950485643168616
319,-5.027542591910657
322,-5.023532566694489
325,-5.012321867310082
328,-5.002305590799322
332,-4.995741151365788
335,-4.993058977660976
338,-4.99257556494571
342,-4.991364226628038
345,-4.998733652096744
349,-5.0562820512417535
352,-4.967078539657706
356,-4.947853500182819
359,-4.931455755639361
363,-4.915906802240809
366,-4.90153820179548
370,-4.88811826751979
374,-4.875495228970741
377,-4.863928923906402
381,-4.810620215119964
385,-4.748675928431572
389,-4.740393445094785
393,-4.731149934616232
397,-4.720093513844538
401,-4.667933979986371
405,-4.617335869255278
409,-4.571566669679698
413,-4.495519940227073
417,-4.451165019782822
421,-4.409944228851556
425,-4.416620541088176
430,-4.419823413151489
434,-4.4170592167519995
438,-4.410196633384478
443,-4.392688160697015
447,-4.296159014567985
451,-4.286428475286828
456,-4.274888402106356
460,-4.260970095942916
465,-4.245415276862101
470,-4.117486902689716
474,-4.101001704959178
479,-4.104260443069272
484,-4.087721014662105
489,-4.00830801151934
494,-3.939506928742608
499,-3.8188547048711174
504,-3.730045792232213
509,-3.616756618602883
514,-3.6133002693063583
519,-3.613371378638599
524,-3.603224637847452
529,-3.4729243302283543
535,-3.45988458003577
540,-3.5072645313186386
545,-3.511589707295372
551,-3.415693567319397
556,-3.340395662997847
562,-3.39819433938203
568,-3.399616096261389
573,-3.380717467349014
579,-3.3472921543006646
585,-3.231961492508519
591,-3.1598805671376597
596,-3.088111848157497
602,-3.0763744405117848
608,-3.073974919541426
615,-2.953441416731752
621,-2.887800264773311
627,-3.0122538490641
633,-3.0596777978269225
639,-2.9179033921318798
646,-2.816362481620363
652,-2.7958264163455646
659,-2.786873841700733
665,-2.7143138773870352
672,-2.6811382314279104
679,-2.620497019611789
686,-2.626951859736483
692,-2.6667556374411148
699,-2.691332190739089
706,-2.542826002476905
713,-2.4496119334742827
721,-2.2883343274631365
728,-2.316514309841976
735,-2.412598565488294
742,-2.359915820970936
750,-2.1752462689320615
757,-2.1658680848847256
765,-2.228783696708536
773,-2.2078902235572824
780,-2.125156703613127
788,-2.2654533002581596
796,-2.025540496916949
804,-1.9257695493432205
812,-1.8859890107289288
820,-1.8565512356586749
828,-1.7148178924977606
837,-1.5996646775966052
845,-1.540531599203046
853,-1.530630312976006
862,-1.4327534153327983
871,-1.3514012843851808
879,-1.2796926876902588
888,-1.0923610185488069
897,-0.9998685374464764
906,-0.9071955233165969
915,-0.8637895110063512
924,-0.8150660179375961
933,-0.6474086950779694
943,-0.5539233814902191
952,-0.5347809659409819
962,-0.44807397168995244
971,-0.33661655155898895
981,-0.16837676363521448
991,-0.1002830991710777
1001,0.011086806992204323
1011,0.13701707268818275
1021,0.20863490357289183
1031,0.2796489985493158
1041,0.26792094115206355
1052,0.3815295981333804
1062,0.5600693561999823
1073,0.7407472170710345
1084,0.7703772473643182
1094,0.8697329033395458
1105,1.016751900217191
1116,0.9962750726186478
1128,0.9949195642184572
1139,1.1975693716992608
1150,1.248917870255716
1162,1.246210855970126
1173,0.9514197872479087
1185,0.569322776064054
1197,0.17105095849333107
1209,-0.05155305201580784
1221,-0.052782993568325054
1233,0.24699509814125387
1246,0.1027393328012094
1258,0.33157398333215626
1271,0.35568393563649314
1283,0.7526089954307209
1296,1.155140396817838
1309,1.0806918677949269
1322,1.2351305641028552
1335,1.672194742753622
1349,1.876432776671178
1362,2.044460286331002
1376,2.154296670794039
1390,2.1103668727625213
1404,1.9584251678024036
1418,1.828573611353379
1432,1.7749675486020182
1446,2.012607807813819
1461,2.025718583219253
1475,2.087620913898535
1490,2.2787706860203047
1505,2.4059859135466595
1520,2.374076795458668
1535,2.351119762628302
1550,2.495737507368162
1566,2.890636877926211
1582,2.857505694742822
1597,2.8533714254719986
1613,2.8042850272679956
1629,2.9478247130279
1646,3.213066732577092
1662,3.3332875607848083
1679,3.224953954619098
1696,3.0727588514602924
1713,3.058964292557955
1730,3.055797292885485
1747,3.131687066402788
1764,2.9340335883620914
1782,2.353581712078551
1800,2.179351520035472
1818,2.0022499813387236
1836,2.1042607205599273
1854,2.218503354027385
1873,2.2442164708307875
1892,2.2534484132673667
1911,2.6342623373346945
1930,2.8951554752549247
1949,2.937414629754766
1969,3.1114607182514287
1988,3.1459652270720126
2008,3.226734532880665
2028,3.3587833550173634
2048,3.4358654690731547
2069,3.4460501244773156
2090,3.418873047677024
2111,3.47365111204951
2132,3.545459438868104
2153,3.7091444113223146
2175,3.828990915159911
2196,3.8168583791121304
2218,3.847937847080466
2240,3.865667219070688
2263,3.8465297847499302
2285,3.936651951253774
2308,4.011304416764765
2331,3.9922979868989907
2355,4.051589862943211
2378,4.137050742975807
2402,4.152606279587526
2426,4.2933448444216475
2450,4.415901246640501
2475,4.299969120916718
2500,4.310850263263234
2525,4.305255685499669
2550,4.2852836187143115
2575,4.066450606237891
2601,4.003776052940361
2627,4.037078551761144
2653,4.068127115491503
2680,4.043578236299599
2707,4.090317097347338
2734,4.147831471694032
2761,4.204743622955713
2789,4.342412184101495
2817,4.564908478209605
2845,4.7709047850001305
2873,4.965061635549699
2902,5.118406903161874
2931,5.341377571292653
2960,5.4474158340945085
2990,5.433171614473427
3020,5.425004861091077
3050,5.615586376391768
3080,5.689221112651453
3111,5.715508035204158
3142,5.671920938436257
3174,5.718710133568511
3206,5.700675461964212
3238,5.799570056467855
3270,5.809335831531538
3303,5.7643994410732375
3336,5.7434908818671495
3369,5.745828178286109
3403,5.721743889737857
3437,5.683358061874406
3471,5.794568637539103
3506,6.07534150679731
3541,6.3695805640838135
3576,6.4558800765903355
3612,6.587513081052938
3648,6.811510221553638
3685,7.075364650715818
3721,7.211452560026612
3759,7.126347909716244
3796,6.756550530658716
3834,6.25494515029186
3873,5.93395214344217
3911,5.332423458826405
3950,4.847496905483941
3990,3.925143119508215
4030,3.140545082991573
4070,2.09808013580761
4111,1.0399230818000085
4152,-0.07128761540253947
4193,-1.5325454315233458
4235,-2.5396599997998663
4278,-3.782022977002949
4321,-4.506525201860496
4364,-5.358941499013248
4407,-4.451330046064406
4451,-3.061685917637508
4496,-1.9824678972082417
4541,-1.0863218147324805
4586,0.6285893373740556
4632,1.7959851927071098
4679,2.7116291957263456
4725,3.8019904565663936
4773,4.567541872955065
4820,5.463863696895124
4868,6.540449120524883
4917,7.416973983291133
4966,8.111647546039219
5016,8.440280390904753
5066,8.248903696910837
5117,7.988076727539286
5168,7.400378134570239
5220,6.714348231631845
5272,6.192120466819568
5325,5.353885683116123
5378,4.231743257476645
5432,3.5710580384930566
5486,2.9370164225070283
5541,2.30473160491979
5596,1.7581885751215358
5652,1.0871023666689803
5709,0.42497757151647786
5766,0.03361305346245391
5823,-0.14601435060873857
5882,-0.5123114969069702
5940,-1.0027330670246544
6000,-0.9775441429314355
6060,-1.206378727176153
6120,-1.384665086078538
6182,-1.484705979419589
6244,-1.5587513071487349
6306,-1.7515312678073682
6369,-1.907709836213849
6433,-2.0728769868213943
6497,-2.2204348109424297
6562,-2.3798585323397
6628,-2.1686148771254263
6694,-2.235876459905021
6761,-2.11349461767915
6828,-1.8935273909909602
6897,-1.9011479107291018
6966,-1.7029551518102526
7035,-1.498490566374524
7106,-1.0615007999741222
7177,-0.9988951384574025
7249,-0.8967345501628725
7321,-0.8846774392156718
7394,-0.8492097102755447
7468,-0.76392961623917
7543,-0.8383673042973148
7618,-0.5337334937079121
7694,-0.4443396963436461
7771,-0.27876150626781193
7849,0.0945565861572133
7928,0.5932215857092826
8007,0.47885290995749896
8087,0.6698713418549946
8168,0.9174870685054111
8250,0.9762896559901297
8332,1.0080022123519004
8415,1.0338237448127212
8499,1.0378719760544097
8584,0.9176211663571179
8670,0.9619533137264664
8757,1.0159134696891523
8845,1.327151736063199
8933,2.1795727301305994
9022,2.8310728678177206
9113,3.3593494099737717
9204,3.913388752797554
9296,4.069062369247292
9389,4.4289535307957735
9483,4.883839500619472
9577,5.003077159806722
9673,4.883841965624458
9770,4.632485218796647
9868,4.07875567539684
9966,3.899392771880437
10066,4.775710721505272
10167,4.917644288443341
10268,4.253207844715204
10371,2.5517923351461334
10475,0.5177963714408156
10579,-0.1585657325804073
10685,-1.613943913693896
10792,-2.8546025403011095
10900,-3.8425577779719307
11009,-4.903347959077452
11119,-6.670394421264938
11230,-7.409515590449542
11343,-7.3014537767399705
11456,-6.907344931776581
11571,-5.8474640055928155
11686,-4.4074961219801665
11803,-2.7309234679638617
11921,-1.6061658014599862
12040,-0.9855731598119735
12161,-2.9047715607408753
12282,-3.3524587702981568
12405,-4.319882365826583
12529,-3.2800396205792604
12655,-4.322087127844601
12781,-5.48983519584169
12909,-6.4190085608849925
13038,-5.749118538141743
13168,-4.685887044278394
13300,-4.332322848647269
13433,-3.8444087217003227
13567,-3.5286942864840825
13703,-4.02807452337962
13840,-4.413011960611123
13978,-5.472868352596682
14118,-6.247778807488508
14259,-7.113302729386025
14402,-7.936792775257557
14546,-8.301939699492447
14692,-8.12882538028136
14838,-7.11605072313462
14987,-7.819791817824363
15137,-8.752522595019428
15288,-9.522042472690867
15441,-10.353379044907104
15595,-12.709710851003052
15751,-14.741042047398953
15909,-15.427153671777342
16068,-16.40280992477718
16229,-17.734049002122795
16391,-19.5143656805667
16555,-19.31057936695308
16720,-17.857262430905834
16888,-16.04747903643539
17056,-14.943233544697822
17227,-14.049729382866012
17399,-13.455188710030338
17573,-12.778890036256662
17749,-12.574313033088377
17926,-10.978455262144074
18106,-9.968575760163144
18287,-9.258024379471344
18470,-8.345316701708487
18654,-7.046959930536966
18841,-6.7512772599193305
19029,-5.808678536827493
19220,-5.866046970268427
19412,-7.10333949729687
19606,-7.8809289616570615
19802,-8.786857229369513
20000,-10.022387288133775
20200,-11.85444479991073
20402,-14.097730627952302
20606,-16.263073392375496
20812,-18.679125377535872
21020,-20.0857027381235
21230,-21.619756297027187
21443,-22.477500903254764
21657,-23.376632629508592
21874,-23.670077543341087
22092,-24.28618411917373
22313,-24.635296211624517
22537,-25.18975008246517
22762,-25.6501180862177
22989,-26.090553879656895
23219,-26.843309907373794
23452,-26.778700748582636
23686,-26.668128980235064
23923,-26.529120913694126
24162,-26.371675118206117
24404,-26.2150944980496
24648,-26.059252443034616
24894,-25.903951183226628
25143,-25.748971247760636
25395,-25.594115408566147
25649,-25.439236010375538
25905,-25.28424366443126
26164,-25.1291024393906
26426,-24.973817850725986
26690,-24.818422767806318
26957,-24.662963208211302
27227,-24.5074854119763
27499,-24.352023059582258
27774,-24.19659342426401
28052,-24.041198292306113
28332,-23.88582979703818
28615,-23.7304726237804
28902,-23.57512706622785
29191,-23.419791200641413
29482,-23.264466398868034
29777,-23.109152660907714
