frequency,raw,error,smoothed,error_smoothed,equalization,parametric_eq,fixed_band_eq,equalized_raw,equalized_smoothed,target
20.00,6.07,7.92,6.07,7.93,-7.92,-6.42,-2.53,-1.85,-1.85,-1.86
20.20,6.01,7.86,6.01,7.86,-7.86,-6.55,-2.61,-1.85,-1.85,-1.86
20.40,5.95,7.80,5.95,7.80,-7.80,-6.69,-2.68,-1.86,-1.85,-1.86
20.61,5.89,7.75,5.89,7.74,-7.75,-6.81,-2.76,-1.86,-1.86,-1.86
20.81,5.83,7.68,5.83,7.69,-7.69,-6.94,-2.84,-1.86,-1.86,-1.86
21.02,5.77,7.63,5.77,7.63,-7.63,-7.05,-2.92,-1.87,-1.87,-1.86
21.23,5.71,7.59,5.71,7.58,-7.58,-7.16,-3.00,-1.87,-1.87,-1.88
21.44,5.64,7.53,5.64,7.53,-7.53,-7.26,-3.09,-1.89,-1.89,-1.89
21.66,5.57,7.48,5.57,7.48,-7.47,-7.35,-3.18,-1.90,-1.90,-1.91
21.87,5.50,7.43,5.50,7.42,-7.42,-7.43,-3.27,-1.92,-1.92,-1.93
22.09,5.43,7.37,5.43,7.37,-7.37,-7.50,-3.36,-1.94,-1.94,-1.94
22.31,5.36,7.33,5.36,7.32,-7.32,-7.55,-3.46,-1.96,-1.97,-1.97
22.54,5.28,7.27,5.28,7.27,-7.27,-7.59,-3.56,-1.99,-1.99,-1.99
22.76,5.21,7.22,5.21,7.22,-7.22,-7.62,-3.66,-2.01,-2.01,-2.01
22.99,5.13,7.17,5.13,7.17,-7.17,-7.63,-3.76,-2.04,-2.04,-2.04
23.22,5.05,7.12,5.05,7.12,-7.11,-7.63,-3.87,-2.06,-2.06,-2.07
23.45,4.98,7.07,4.98,7.06,-7.06,-7.61,-3.98,-2.08,-2.08,-2.09
23.69,4.90,7.00,4.90,7.01,-7.00,-7.58,-4.09,-2.10,-2.10,-2.10
23.92,4.83,6.95,4.82,6.94,-6.94,-7.54,-4.20,-2.11,-2.12,-2.12
24.16,4.75,6.88,4.75,6.88,-6.88,-7.48,-4.31,-2.13,-2.14,-2.13
24.40,4.66,6.81,4.67,6.82,-6.82,-7.41,-4.43,-2.16,-2.16,-2.15
24.65,4.59,6.76,4.59,6.76,-6.76,-7.32,-4.55,-2.17,-2.17,-2.17
24.89,4.51,6.70,4.51,6.70,-6.70,-7.23,-4.67,-2.19,-2.19,-2.19
25.14,4.43,6.63,4.43,6.63,-6.64,-7.12,-4.78,-2.21,-2.21,-2.20
25.39,4.35,6.57,4.35,6.57,-6.57,-7.01,-4.91,-2.22,-2.22,-2.22
25.65,4.27,6.50,4.27,6.51,-6.51,-6.89,-5.03,-2.24,-2.24,-2.23
25.91,4.19,6.45,4.19,6.45,-6.44,-6.76,-5.15,-2.25,-2.26,-2.26
26.16,4.11,6.38,4.11,6.38,-6.38,-6.62,-5.27,-2.27,-2.27,-2.27
26.43,4.02,6.31,4.02,6.31,-6.31,-6.48,-5.39,-2.29,-2.29,-2.29
26.69,3.94,6.25,3.94,6.24,-6.24,-6.34,-5.50,-2.30,-2.30,-2.31
26.96,3.85,6.17,3.85,6.16,-6.16,-6.19,-5.62,-2.31,-2.31,-2.32
27.23,3.76,6.09,3.76,6.09,-6.09,-6.04,-5.73,-2.33,-2.33,-2.33
27.50,3.67,6.01,3.67,6.01,-6.01,-5.89,-5.84,-2.34,-2.34,-2.34
27.77,3.58,5.94,3.58,5.93,-5.94,-5.74,-5.94,-2.36,-2.36,-2.36
28.05,3.49,5.86,3.49,5.86,-5.86,-5.59,-6.04,-2.37,-2.37,-2.37
28.33,3.39,5.78,3.40,5.78,-5.78,-5.44,-6.14,-2.39,-2.38,-2.39
28.62,3.31,5.71,3.30,5.70,-5.70,-5.29,-6.22,-2.39,-2.40,-2.40
28.90,3.21,5.62,3.21,5.62,-5.62,-5.15,-6.30,-2.41,-2.41,-2.41
29.19,3.11,5.54,3.12,5.54,-5.54,-5.00,-6.37,-2.43,-2.43,-2.43
29.48,3.03,5.46,3.03,5.46,-5.46,-4.86,-6.43,-2.44,-2.44,-2.43
29.78,2.94,5.38,2.93,5.38,-5.38,-4.71,-6.48,-2.44,-2.45,-2.44
30.08,2.84,5.30,2.84,5.30,-5.30,-4.58,-6.52,-2.46,-2.46,-2.46
30.38,2.74,5.22,2.75,5.22,-5.22,-4.44,-6.55,-2.48,-2.47,-2.48
30.68,2.65,5.14,2.65,5.14,-5.14,-4.30,-6.57,-2.49,-2.49,-2.49
30.99,2.56,5.07,2.55,5.06,-5.06,-4.17,-6.58,-2.50,-2.50,-2.51
31.30,2.45,4.97,2.45,4.97,-4.97,-4.04,-6.57,-2.52,-2.52,-2.52
31.61,2.35,4.88,2.35,4.89,-4.89,-3.92,-6.55,-2.54,-2.54,-2.53
31.93,2.25,4.80,2.25,4.80,-4.80,-3.80,-6.52,-2.55,-2.56,-2.55
32.24,2.14,4.72,2.14,4.72,-4.72,-3.68,-6.48,-2.58,-2.57,-2.58
32.57,2.04,4.64,2.04,4.63,-4.63,-3.56,-6.43,-2.59,-2.59,-2.60
32.89,1.93,4.54,1.93,4.55,-4.55,-3.45,-6.36,-2.62,-2.62,-2.61
33.22,1.83,4.47,1.83,4.46,-4.46,-3.34,-6.29,-2.63,-2.64,-2.64
33.55,1.72,4.37,1.72,4.37,-4.38,-3.23,-6.20,-2.66,-2.66,-2.65
33.89,1.62,4.29,1.62,4.29,-4.29,-3.12,-6.11,-2.67,-2.67,-2.67
34.23,1.52,4.21,1.52,4.21,-4.21,-3.02,-6.01,-2.69,-2.69,-2.69
34.57,1.42,4.13,1.42,4.13,-4.13,-2.92,-5.90,-2.71,-2.71,-2.72
34.92,1.31,4.05,1.31,4.05,-4.04,-2.83,-5.78,-2.73,-2.73,-2.74
35.27,1.21,3.96,1.21,3.96,-3.96,-2.73,-5.66,-2.75,-2.75,-2.75
35.62,1.11,3.88,1.11,3.88,-3.88,-2.64,-5.54,-2.77,-2.78,-2.77
35.97,1.01,3.80,1.01,3.80,-3.80,-2.55,-5.41,-2.80,-2.79,-2.79
36.33,0.92,3.72,0.92,3.73,-3.73,-2.47,-5.27,-2.81,-2.81,-2.81
36.70,0.82,3.65,0.82,3.65,-3.65,-2.38,-5.13,-2.83,-2.83,-2.83
37.06,0.73,3.58,0.73,3.57,-3.57,-2.30,-5.00,-2.84,-2.84,-2.85
37.43,0.63,3.49,0.63,3.50,-3.49,-2.22,-4.86,-2.87,-2.87,-2.86
37.81,0.53,3.41,0.53,3.42,-3.42,-2.14,-4.71,-2.89,-2.89,-2.89
38.19,0.44,3.35,0.44,3.34,-3.34,-2.07,-4.57,-2.90,-2.91,-2.91
38.57,0.34,3.26,0.34,3.26,-3.27,-2.00,-4.43,-2.93,-2.93,-2.92
38.95,0.25,3.19,0.25,3.19,-3.19,-1.92,-4.29,-2.94,-2.94,-2.94
39.34,0.15,3.11,0.15,3.12,-3.11,-1.85,-4.14,-2.96,-2.96,-2.97
39.74,0.06,3.05,0.06,3.04,-3.04,-1.79,-4.00,-2.98,-2.98,-2.99
40.14,-0.04,2.95,-0.04,2.96,-2.96,-1.72,-3.86,-3.00,-3.00,-2.99
40.54,-0.14,2.88,-0.14,2.88,-2.88,-1.66,-3.72,-3.02,-3.02,-3.02
40.94,-0.23,2.80,-0.23,2.80,-2.80,-1.60,-3.59,-3.03,-3.03,-3.03
41.35,-0.32,2.73,-0.32,2.73,-2.72,-1.53,-3.45,-3.04,-3.04,-3.05
41.76,-0.41,2.65,-0.41,2.65,-2.65,-1.47,-3.32,-3.06,-3.06,-3.06
42.18,-0.50,2.57,-0.50,2.57,-2.57,-1.42,-3.18,-3.07,-3.07,-3.07
42.60,-0.60,2.49,-0.60,2.49,-2.49,-1.36,-3.05,-3.09,-3.09,-3.09
43.03,-0.69,2.41,-0.69,2.42,-2.42,-1.31,-2.92,-3.11,-3.11,-3.10
43.46,-0.78,2.34,-0.78,2.34,-2.35,-1.25,-2.79,-3.13,-3.13,-3.12
43.90,-0.87,2.28,-0.87,2.27,-2.27,-1.20,-2.67,-3.14,-3.14,-3.15
44.33,-0.96,2.20,-0.96,2.20,-2.20,-1.15,-2.55,-3.16,-3.16,-3.16
44.78,-1.05,2.13,-1.05,2.13,-2.13,-1.10,-2.42,-3.18,-3.18,-3.18
45.23,-1.14,2.06,-1.14,2.06,-2.06,-1.05,-2.30,-3.20,-3.20,-3.20
45.68,-1.23,1.99,-1.23,1.99,-1.98,-1.00,-2.18,-3.22,-3.21,-3.22
46.13,-1.31,1.92,-1.31,1.92,-1.91,-0.95,-2.07,-3.22,-3.23,-3.23
46.60,-1.40,1.84,-1.40,1.84,-1.84,-0.91,-1.95,-3.24,-3.24,-3.24
47.06,-1.49,1.76,-1.49,1.76,-1.77,-0.86,-1.84,-3.26,-3.26,-3.26
47.53,-1.58,1.69,-1.58,1.69,-1.69,-0.82,-1.73,-3.28,-3.27,-3.27
48.01,-1.67,1.61,-1.67,1.62,-1.62,-0.78,-1.62,-3.29,-3.29,-3.28
48.49,-1.75,1.55,-1.75,1.55,-1.56,-0.73,-1.51,-3.31,-3.31,-3.30
48.97,-1.84,1.49,-1.84,1.49,-1.49,-0.69,-1.41,-3.33,-3.33,-3.33
49.46,-1.93,1.43,-1.93,1.43,-1.42,-0.65,-1.30,-3.35,-3.35,-3.36
49.96,-2.02,1.36,-2.01,1.36,-1.36,-0.61,-1.20,-3.38,-3.37,-3.39
50.46,-2.09,1.29,-2.10,1.29,-1.29,-0.57,-1.10,-3.38,-3.39,-3.38
50.96,-2.18,1.22,-2.18,1.23,-1.22,-0.53,-1.00,-3.41,-3.41,-3.40
51.47,-2.27,1.16,-2.27,1.16,-1.16,-0.50,-0.90,-3.43,-3.42,-3.43
51.99,-2.35,1.10,-2.35,1.09,-1.09,-0.46,-0.81,-3.44,-3.45,-3.45
52.51,-2.44,1.02,-2.44,1.02,-1.02,-0.42,-0.72,-3.46,-3.46,-3.46
53.03,-2.52,0.95,-2.52,0.96,-0.96,-0.39,-0.63,-3.48,-3.48,-3.48
53.56,-2.60,0.89,-2.60,0.89,-0.89,-0.35,-0.54,-3.49,-3.50,-3.49
54.10,-2.68,0.83,-2.68,0.83,-0.83,-0.32,-0.45,-3.51,-3.51,-3.51
54.64,-2.77,0.76,-2.77,0.77,-0.77,-0.28,-0.36,-3.54,-3.53,-3.53
55.18,-2.85,0.70,-2.85,0.70,-0.70,-0.25,-0.28,-3.56,-3.55,-3.56
55.74,-2.93,0.65,-2.93,0.64,-0.64,-0.21,-0.20,-3.57,-3.57,-3.58
56.29,-3.01,0.58,-3.01,0.58,-0.58,-0.18,-0.12,-3.59,-3.59,-3.59
56.86,-3.09,0.52,-3.09,0.52,-0.52,-0.15,-0.05,-3.61,-3.61,-3.61
57.42,-3.17,0.46,-3.17,0.46,-0.45,-0.12,0.03,-3.63,-3.63,-3.63
58.00,-3.25,0.39,-3.25,0.39,-0.39,-0.08,0.10,-3.64,-3.64,-3.64
58.58,-3.34,0.33,-3.34,0.33,-0.33,-0.05,0.16,-3.67,-3.66,-3.67
59.16,-3.41,0.27,-3.42,0.26,-0.26,-0.02,0.23,-3.67,-3.68,-3.68
59.76,-3.50,0.19,-3.50,0.20,-0.20,0.01,0.29,-3.70,-3.70,-3.69
60.35,-3.57,0.15,-3.58,0.13,-0.14,0.04,0.35,-3.71,-3.72,-3.72
60.96,-3.66,0.06,-3.66,0.07,-0.08,0.07,0.40,-3.74,-3.74,-3.72
61.57,-3.74,0.02,-3.74,0.02,-0.02,0.10,0.46,-3.76,-3.76,-3.76
62.18,-3.81,-0.03,-3.82,-0.04,0.04,0.13,0.51,-3.77,-3.78,-3.78
62.80,-3.89,-0.09,-3.89,-0.09,0.10,0.16,0.55,-3.80,-3.80,-3.80
63.43,-3.97,-0.15,-3.97,-0.15,0.16,0.19,0.60,-3.82,-3.81,-3.82
64.07,-4.05,-0.21,-4.05,-0.21,0.21,0.22,0.64,-3.84,-3.83,-3.84
64.71,-4.12,-0.27,-4.13,-0.27,0.27,0.25,0.68,-3.85,-3.85,-3.85
65.35,-4.20,-0.33,-4.20,-0.34,0.33,0.27,0.72,-3.87,-3.87,-3.87
66.01,-4.28,-0.41,-4.28,-0.40,0.40,0.30,0.75,-3.89,-3.88,-3.88
66.67,-4.35,-0.46,-4.35,-0.46,0.46,0.33,0.78,-3.89,-3.89,-3.89
67.33,-4.42,-0.52,-4.42,-0.52,0.52,0.36,0.81,-3.90,-3.91,-3.90
68.01,-4.50,-0.58,-4.50,-0.58,0.58,0.39,0.84,-3.92,-3.92,-3.92
68.69,-4.57,-0.64,-4.57,-0.64,0.64,0.41,0.86,-3.93,-3.94,-3.93
69.37,-4.65,-0.70,-4.65,-0.70,0.70,0.44,0.89,-3.96,-3.95,-3.96
70.07,-4.72,-0.75,-4.72,-0.75,0.75,0.47,0.91,-3.97,-3.97,-3.97
70.77,-4.79,-0.81,-4.79,-0.81,0.81,0.50,0.93,-3.98,-3.98,-3.98
71.48,-4.86,-0.86,-4.86,-0.86,0.86,0.52,0.95,-4.00,-4.00,-4.00
72.19,-4.94,-0.92,-4.94,-0.92,0.92,0.55,0.97,-4.02,-4.02,-4.02
72.91,-5.01,-0.97,-5.01,-0.97,0.97,0.58,0.99,-4.04,-4.04,-4.04
73.64,-5.08,-1.02,-5.08,-1.02,1.02,0.61,1.00,-4.06,-4.06,-4.07
74.38,-5.15,-1.07,-5.15,-1.06,1.07,0.63,1.02,-4.08,-4.08,-4.08
75.12,-5.22,-1.10,-5.22,-1.11,1.11,0.66,1.04,-4.11,-4.11,-4.12
75.87,-5.29,-1.16,-5.29,-1.16,1.16,0.69,1.05,-4.13,-4.13,-4.13
76.63,-5.36,-1.21,-5.36,-1.20,1.20,0.71,1.07,-4.16,-4.16,-4.15
77.40,-5.43,-1.25,-5.43,-1.25,1.25,0.74,1.09,-4.18,-4.18,-4.18
78.17,-5.49,-1.27,-5.50,-1.29,1.29,0.77,1.10,-4.20,-4.21,-4.22
78.95,-5.56,-1.34,-5.56,-1.33,1.33,0.79,1.12,-4.23,-4.23,-4.23
79.74,-5.63,-1.38,-5.63,-1.37,1.37,0.82,1.14,-4.26,-4.26,-4.26
80.54,-5.69,-1.41,-5.69,-1.41,1.40,0.85,1.16,-4.29,-4.29,-4.29
81.35,-5.75,-1.43,-5.75,-1.44,1.44,0.87,1.18,-4.31,-4.31,-4.32
82.16,-5.81,-1.46,-5.81,-1.47,1.47,0.90,1.20,-4.34,-4.34,-4.35
82.98,-5.88,-1.51,-5.88,-1.50,1.50,0.93,1.22,-4.38,-4.37,-4.37
83.81,-5.94,-1.53,-5.94,-1.54,1.54,0.95,1.24,-4.40,-4.41,-4.41
84.65,-6.01,-1.57,-6.01,-1.57,1.57,0.98,1.26,-4.44,-4.44,-4.44
85.50,-6.07,-1.60,-6.07,-1.60,1.60,1.01,1.28,-4.47,-4.47,-4.47
86.35,-6.13,-1.63,-6.13,-1.63,1.63,1.03,1.31,-4.50,-4.50,-4.50
87.22,-6.19,-1.65,-6.19,-1.66,1.66,1.06,1.33,-4.54,-4.54,-4.54
88.09,-6.25,-1.68,-6.25,-1.68,1.68,1.09,1.36,-4.57,-4.57,-4.57
88.97,-6.31,-1.71,-6.31,-1.71,1.71,1.11,1.39,-4.60,-4.60,-4.60
89.86,-6.37,-1.74,-6.37,-1.74,1.74,1.14,1.42,-4.63,-4.63,-4.63
90.76,-6.43,-1.75,-6.43,-1.76,1.76,1.17,1.45,-4.67,-4.67,-4.68
91.66,-6.49,-1.79,-6.49,-1.78,1.78,1.19,1.48,-4.71,-4.71,-4.71
92.58,-6.55,-1.80,-6.55,-1.81,1.81,1.22,1.51,-4.74,-4.74,-4.75
93.51,-6.61,-1.84,-6.60,-1.83,1.83,1.25,1.55,-4.78,-4.78,-4.77
94.44,-6.65,-1.84,-6.66,-1.85,1.85,1.27,1.58,-4.80,-4.81,-4.81
95.39,-6.71,-1.87,-6.71,-1.87,1.87,1.30,1.62,-4.85,-4.85,-4.84
96.34,-6.77,-1.88,-6.77,-1.88,1.88,1.33,1.65,-4.89,-4.89,-4.89
97.30,-6.83,-1.90,-6.83,-1.90,1.90,1.35,1.69,-4.93,-4.93,-4.93
98.28,-6.88,-1.91,-6.88,-1.91,1.91,1.38,1.73,-4.97,-4.98,-4.97
99.26,-6.94,-1.92,-6.94,-1.92,1.92,1.41,1.77,-5.02,-5.02,-5.02
100.25,-6.99,-1.93,-6.99,-1.93,1.93,1.43,1.81,-5.06,-5.06,-5.06
101.25,-7.04,-1.94,-7.05,-1.94,1.94,1.46,1.85,-5.10,-5.10,-5.10
102.27,-7.10,-1.95,-7.10,-1.95,1.95,1.49,1.89,-5.15,-5.14,-5.15
103.29,-7.15,-1.96,-7.15,-1.96,1.96,1.51,1.93,-5.19,-5.19,-5.20
104.32,-7.20,-1.97,-7.21,-1.97,1.97,1.54,1.98,-5.23,-5.23,-5.24
105.37,-7.26,-1.99,-7.26,-1.98,1.98,1.57,2.02,-5.28,-5.28,-5.27
106.42,-7.32,-2.00,-7.32,-1.99,1.99,1.60,2.06,-5.33,-5.33,-5.32
107.48,-7.37,-2.00,-7.37,-2.00,1.99,1.62,2.10,-5.38,-5.38,-5.37
108.56,-7.42,-2.00,-7.42,-2.00,2.00,1.65,2.14,-5.42,-5.42,-5.42
109.64,-7.47,-2.00,-7.47,-2.00,2.00,1.68,2.18,-5.47,-5.47,-5.47
110.74,-7.52,-2.01,-7.52,-2.00,2.00,1.70,2.22,-5.52,-5.52,-5.51
111.85,-7.57,-2.01,-7.57,-2.01,2.00,1.73,2.26,-5.57,-5.57,-5.56
112.97,-7.62,-1.99,-7.62,-2.01,2.00,1.76,2.30,-5.62,-5.62,-5.63
114.10,-7.68,-2.01,-7.67,-2.00,2.00,1.79,2.33,-5.68,-5.67,-5.67
115.24,-7.72,-2.01,-7.72,-2.00,2.01,1.81,2.37,-5.72,-5.72,-5.72
116.39,-7.77,-2.00,-7.78,-2.01,2.01,1.84,2.40,-5.76,-5.77,-5.77
117.55,-7.83,-2.01,-7.83,-2.01,2.01,1.87,2.43,-5.82,-5.82,-5.82
118.73,-7.88,-2.01,-7.88,-2.01,2.02,1.89,2.46,-5.87,-5.86,-5.87
119.92,-7.93,-2.03,-7.93,-2.02,2.02,1.92,2.49,-5.91,-5.91,-5.91
121.12,-7.98,-2.03,-7.98,-2.03,2.03,1.95,2.51,-5.95,-5.95,-5.95
122.33,-8.03,-2.03,-8.03,-2.04,2.04,1.98,2.53,-5.99,-5.99,-6.00
123.55,-8.09,-2.06,-8.09,-2.05,2.05,2.00,2.55,-6.04,-6.04,-6.03
124.79,-8.14,-2.06,-8.14,-2.06,2.06,2.03,2.57,-6.08,-6.08,-6.08
126.03,-8.19,-2.08,-8.19,-2.07,2.07,2.06,2.58,-6.12,-6.13,-6.11
127.29,-8.24,-2.08,-8.24,-2.08,2.08,2.08,2.59,-6.17,-6.17,-6.16
128.57,-8.29,-2.08,-8.29,-2.09,2.09,2.11,2.60,-6.20,-6.20,-6.21
129.85,-8.34,-2.09,-8.34,-2.09,2.10,2.14,2.61,-6.24,-6.24,-6.25
131.15,-8.39,-2.11,-8.39,-2.11,2.11,2.17,2.61,-6.28,-6.28,-6.28
132.46,-8.44,-2.12,-8.44,-2.12,2.13,2.19,2.61,-6.31,-6.31,-6.32
133.79,-8.49,-2.15,-8.49,-2.14,2.14,2.22,2.61,-6.35,-6.35,-6.34
135.12,-8.55,-2.17,-8.55,-2.17,2.16,2.25,2.61,-6.39,-6.38,-6.39
136.48,-8.60,-2.19,-8.60,-2.19,2.19,2.27,2.61,-6.41,-6.41,-6.41
137.84,-8.65,-2.22,-8.65,-2.22,2.21,2.30,2.60,-6.44,-6.44,-6.43
139.22,-8.70,-2.23,-8.70,-2.24,2.24,2.33,2.59,-6.46,-6.46,-6.47
140.61,-8.76,-2.26,-8.75,-2.27,2.27,2.35,2.59,-6.49,-6.48,-6.50
142.02,-8.80,-2.31,-8.81,-2.30,2.31,2.38,2.58,-6.50,-6.50,-6.49
143.44,-8.86,-2.35,-8.86,-2.34,2.34,2.41,2.57,-6.52,-6.52,-6.51
144.87,-8.91,-2.37,-8.91,-2.38,2.37,2.43,2.56,-6.54,-6.54,-6.54
146.32,-8.96,-2.40,-8.96,-2.41,2.41,2.46,2.55,-6.55,-6.55,-6.56
147.78,-9.02,-2.46,-9.02,-2.45,2.45,2.49,2.54,-6.57,-6.57,-6.56
149.26,-9.07,-2.49,-9.07,-2.49,2.49,2.51,2.53,-6.58,-6.58,-6.58
150.75,-9.13,-2.53,-9.13,-2.53,2.53,2.54,2.52,-6.60,-6.60,-6.60
152.26,-9.19,-2.57,-9.19,-2.57,2.57,2.56,2.51,-6.62,-6.62,-6.62
153.78,-9.24,-2.61,-9.24,-2.61,2.61,2.59,2.51,-6.63,-6.63,-6.63
155.32,-9.30,-2.66,-9.30,-2.66,2.66,2.62,2.50,-6.64,-6.65,-6.64
156.88,-9.36,-2.70,-9.36,-2.70,2.70,2.64,2.49,-6.66,-6.66,-6.66
158.44,-9.43,-2.75,-9.43,-2.75,2.75,2.67,2.49,-6.68,-6.68,-6.68
160.03,-9.49,-2.79,-9.49,-2.79,2.79,2.69,2.49,-6.70,-6.70,-6.70
161.63,-9.56,-2.84,-9.56,-2.84,2.84,2.72,2.49,-6.72,-6.72,-6.72
163.24,-9.63,-2.90,-9.63,-2.90,2.90,2.74,2.49,-6.74,-6.73,-6.73
164.88,-9.69,-2.95,-9.70,-2.95,2.95,2.77,2.49,-6.74,-6.75,-6.74
166.53,-9.77,-3.01,-9.77,-3.01,3.01,2.79,2.49,-6.76,-6.76,-6.76
168.19,-9.85,-3.06,-9.85,-3.07,3.07,2.82,2.50,-6.78,-6.78,-6.79
169.87,-9.94,-3.13,-9.94,-3.13,3.13,2.84,2.50,-6.81,-6.81,-6.81
171.57,-10.02,-3.20,-10.02,-3.20,3.20,2.87,2.51,-6.82,-6.82,-6.83
173.29,-10.12,-3.28,-10.12,-3.27,3.27,2.89,2.53,-6.85,-6.84,-6.84
175.02,-10.21,-3.34,-10.22,-3.34,3.35,2.92,2.54,-6.86,-6.86,-6.87
176.77,-10.32,-3.42,-10.32,-3.42,3.43,2.94,2.55,-6.89,-6.89,-6.91
178.54,-10.43,-3.50,-10.43,-3.50,3.52,2.96,2.57,-6.91,-6.91,-6.93
180.32,-10.54,-3.59,-10.55,-3.59,3.60,2.99,2.59,-6.94,-6.95,-6.96
182.13,-10.66,-3.68,-10.66,-3.67,3.67,3.01,2.61,-6.99,-6.99,-6.98
183.95,-10.76,-3.75,-10.76,-3.75,3.74,3.03,2.63,-7.03,-7.02,-7.01
185.79,-10.84,-3.80,-10.85,-3.80,3.79,3.06,2.66,-7.06,-7.06,-7.04
187.65,-10.91,-3.84,-10.91,-3.84,3.82,3.08,2.69,-7.09,-7.09,-7.07
189.52,-10.95,-3.86,-10.94,-3.85,3.83,3.10,2.72,-7.12,-7.11,-7.09
191.42,-10.95,-3.83,-10.95,-3.84,3.82,3.13,2.75,-7.13,-7.13,-7.12
193.33,-10.94,-3.81,-10.94,-3.81,3.79,3.15,2.78,-7.15,-7.15,-7.13
195.27,-10.92,-3.77,-10.92,-3.77,3.76,3.17,2.81,-7.17,-7.16,-7.15
197.22,-10.89,-3.72,-10.88,-3.71,3.71,3.19,2.85,-7.18,-7.17,-7.17
199.19,-10.84,-3.63,-10.85,-3.64,3.66,3.21,2.89,-7.18,-7.18,-7.21
201.18,-10.81,-3.59,-10.82,-3.59,3.62,3.23,2.92,-7.19,-7.19,-7.22
203.19,-10.80,-3.57,-10.80,-3.56,3.59,3.26,2.96,-7.21,-7.21,-7.23
205.23,-10.80,-3.55,-10.80,-3.55,3.56,3.28,3.00,-7.24,-7.23,-7.25
207.28,-10.80,-3.55,-10.81,-3.55,3.55,3.30,3.04,-7.25,-7.26,-7.25
209.35,-10.83,-3.55,-10.83,-3.54,3.54,3.32,3.09,-7.29,-7.28,-7.28
211.44,-10.84,-3.54,-10.84,-3.55,3.54,3.34,3.13,-7.30,-7.30,-7.30
213.56,-10.86,-3.55,-10.86,-3.55,3.54,3.36,3.17,-7.32,-7.32,-7.31
215.69,-10.86,-3.55,-10.87,-3.55,3.54,3.38,3.21,-7.32,-7.33,-7.31
217.85,-10.87,-3.55,-10.86,-3.54,3.53,3.40,3.25,-7.34,-7.33,-7.32
220.03,-10.85,-3.52,-10.85,-3.52,3.51,3.41,3.30,-7.34,-7.34,-7.33
222.23,-10.83,-3.49,-10.83,-3.50,3.50,3.43,3.34,-7.33,-7.34,-7.34
224.45,-10.81,-3.48,-10.81,-3.47,3.48,3.45,3.37,-7.33,-7.33,-7.33
226.70,-10.78,-3.45,-10.78,-3.45,3.45,3.47,3.41,-7.33,-7.33,-7.34
228.96,-10.75,-3.42,-10.75,-3.42,3.43,3.49,3.45,-7.32,-7.32,-7.33
231.25,-10.72,-3.40,-10.72,-3.40,3.40,3.50,3.48,-7.32,-7.32,-7.32
233.57,-10.69,-3.39,-10.69,-3.38,3.38,3.52,3.52,-7.31,-7.31,-7.30
235.90,-10.66,-3.36,-10.66,-3.36,3.36,3.54,3.54,-7.30,-7.30,-7.30
238.26,-10.63,-3.33,-10.63,-3.34,3.34,3.55,3.57,-7.29,-7.29,-7.30
240.64,-10.60,-3.33,-10.60,-3.32,3.33,3.57,3.60,-7.27,-7.27,-7.27
243.05,-10.56,-3.30,-10.57,-3.31,3.31,3.59,3.62,-7.25,-7.26,-7.26
245.48,-10.54,-3.31,-10.54,-3.30,3.30,3.60,3.64,-7.24,-7.24,-7.23
247.93,-10.50,-3.28,-10.50,-3.28,3.28,3.62,3.65,-7.22,-7.22,-7.22
250.41,-10.46,-3.26,-10.46,-3.27,3.27,3.63,3.66,-7.19,-7.20,-7.20
252.92,-10.42,-3.25,-10.43,-3.26,3.26,3.65,3.67,-7.16,-7.17,-7.17
255.45,-10.40,-3.26,-10.39,-3.25,3.24,3.66,3.68,-7.16,-7.15,-7.14
258.00,-10.35,-3.24,-10.35,-3.24,3.23,3.67,3.68,-7.12,-7.12,-7.12
260.58,-10.31,-3.21,-10.32,-3.22,3.22,3.69,3.68,-7.09,-7.10,-7.10
263.19,-10.28,-3.21,-10.28,-3.20,3.21,3.70,3.68,-7.07,-7.07,-7.07
265.82,-10.24,-3.19,-10.24,-3.20,3.20,3.71,3.67,-7.04,-7.04,-7.05
268.48,-10.21,-3.19,-10.21,-3.19,3.19,3.72,3.66,-7.03,-7.02,-7.02
271.16,-10.16,-3.18,-10.17,-3.18,3.17,3.74,3.65,-6.99,-6.99,-6.98
273.87,-10.13,-3.16,-10.13,-3.17,3.16,3.75,3.64,-6.97,-6.97,-6.97
276.61,-10.09,-3.16,-10.09,-3.15,3.15,3.76,3.63,-6.94,-6.94,-6.93
279.38,-10.05,-3.14,-10.05,-3.14,3.14,3.77,3.61,-6.91,-6.91,-6.91
282.17,-10.01,-3.12,-10.01,-3.13,3.13,3.78,3.59,-6.88,-6.89,-6.89
284.99,-9.98,-3.12,-9.98,-3.12,3.12,3.79,3.58,-6.86,-6.86,-6.86
287.84,-9.95,-3.12,-9.95,-3.11,3.11,3.80,3.56,-6.84,-6.83,-6.83
290.72,-9.91,-3.12,-9.92,-3.11,3.11,3.81,3.54,-6.80,-6.80,-6.80
293.63,-9.89,-3.11,-9.89,-3.12,3.12,3.82,3.53,-6.77,-6.77,-6.78
296.57,-9.87,-3.13,-9.87,-3.13,3.14,3.82,3.51,-6.73,-6.73,-6.74
299.53,-9.86,-3.15,-9.86,-3.15,3.16,3.83,3.49,-6.70,-6.71,-6.71
302.53,-9.86,-3.18,-9.86,-3.18,3.19,3.84,3.48,-6.67,-6.67,-6.69
305.55,-9.87,-3.23,-9.87,-3.22,3.23,3.85,3.46,-6.65,-6.64,-6.64
308.61,-9.87,-3.26,-9.87,-3.27,3.27,3.85,3.45,-6.60,-6.61,-6.61
311.69,-9.89,-3.32,-9.89,-3.32,3.32,3.86,3.44,-6.57,-6.57,-6.57
314.81,-9.90,-3.37,-9.91,-3.37,3.37,3.86,3.43,-6.53,-6.54,-6.53
317.96,-9.93,-3.43,-9.93,-3.42,3.42,3.87,3.42,-6.51,-6.51,-6.51
321.14,-9.94,-3.46,-9.94,-3.47,3.47,3.87,3.42,-6.47,-6.48,-6.48
324.35,-9.96,-3.51,-9.96,-3.51,3.51,3.88,3.41,-6.45,-6.45,-6.45
327.59,-9.97,-3.56,-9.97,-3.56,3.55,3.88,3.41,-6.42,-6.42,-6.41
330.87,-9.97,-3.59,-9.98,-3.59,3.58,3.88,3.41,-6.39,-6.39,-6.38
334.18,-9.98,-3.62,-9.97,-3.61,3.60,3.88,3.42,-6.38,-6.37,-6.36
337.52,-9.96,-3.63,-9.96,-3.63,3.62,3.89,3.43,-6.34,-6.34,-6.34
340.90,-9.94,-3.63,-9.95,-3.63,3.63,3.89,3.43,-6.32,-6.32,-6.31
344.30,-9.92,-3.63,-9.92,-3.63,3.63,3.89,3.45,-6.29,-6.29,-6.29
347.75,-9.89,-3.63,-9.89,-3.62,3.63,3.89,3.46,-6.26,-6.26,-6.26
351.23,-9.85,-3.61,-9.85,-3.61,3.63,3.89,3.48,-6.22,-6.23,-6.24
354.74,-9.82,-3.60,-9.83,-3.61,3.63,3.89,3.50,-6.20,-6.21,-6.22
358.28,-9.82,-3.62,-9.82,-3.61,3.62,3.89,3.52,-6.20,-6.19,-6.20
361.87,-9.81,-3.63,-9.81,-3.62,3.62,3.89,3.55,-6.19,-6.18,-6.18
365.49,-9.79,-3.64,-9.80,-3.63,3.62,3.88,3.58,-6.17,-6.17,-6.16
369.14,-9.78,-3.63,-9.78,-3.63,3.63,3.88,3.61,-6.15,-6.15,-6.15
372.83,-9.76,-3.63,-9.76,-3.63,3.63,3.88,3.64,-6.13,-6.13,-6.13
376.56,-9.73,-3.62,-9.73,-3.63,3.63,3.87,3.68,-6.10,-6.11,-6.11
380.33,-9.71,-3.63,-9.71,-3.63,3.63,3.87,3.72,-6.08,-6.08,-6.08
384.13,-9.68,-3.62,-9.68,-3.62,3.62,3.86,3.76,-6.06,-6.06,-6.06
387.97,-9.66,-3.62,-9.66,-3.62,3.62,3.86,3.80,-6.04,-6.04,-6.04
391.85,-9.63,-3.61,-9.63,-3.61,3.61,3.85,3.85,-6.02,-6.02,-6.02
395.77,-9.61,-3.62,-9.61,-3.61,3.61,3.84,3.89,-6.00,-6.00,-5.99
399.73,-9.57,-3.60,-9.58,-3.60,3.60,3.83,3.94,-5.97,-5.98,-5.97
403.72,-9.55,-3.60,-9.55,-3.60,3.59,3.83,3.99,-5.96,-5.96,-5.95
407.76,-9.52,-3.59,-9.52,-3.59,3.59,3.82,4.04,-5.93,-5.93,-5.93
411.84,-9.49,-3.59,-9.49,-3.58,3.58,3.81,4.09,-5.91,-5.91,-5.91
415.96,-9.45,-3.56,-9.46,-3.57,3.57,3.80,4.14,-5.88,-5.88,-5.89
420.12,-9.43,-3.56,-9.43,-3.57,3.57,3.78,4.19,-5.86,-5.86,-5.87
424.32,-9.40,-3.56,-9.40,-3.56,3.56,3.77,4.24,-5.84,-5.84,-5.84
428.56,-9.37,-3.55,-9.37,-3.55,3.56,3.76,4.29,-5.81,-5.82,-5.82
432.85,-9.34,-3.54,-9.34,-3.55,3.55,3.75,4.34,-5.79,-5.79,-5.80
437.18,-9.31,-3.54,-9.31,-3.54,3.54,3.73,4.39,-5.77,-5.77,-5.77
441.55,-9.27,-3.53,-9.28,-3.53,3.53,3.72,4.43,-5.74,-5.75,-5.74
