frequency,raw
20.00,-0.21
20.20,-0.18
20.40,-0.14
20.61,-0.10
20.81,-0.04
21.02,0.02
21.23,0.09
21.44,0.16
21.66,0.23
21.87,0.31
22.09,0.40
22.31,0.48
22.54,0.57
22.76,0.67
22.99,0.77
23.22,0.87
23.45,0.98
23.69,1.10
23.92,1.22
24.16,1.35
24.40,1.47
24.65,1.60
24.89,1.74
25.14,1.88
25.39,2.02
25.65,2.17
25.91,2.31
26.16,2.46
26.43,2.62
26.69,2.77
26.96,2.93
27.23,3.09
27.50,3.25
27.77,3.42
28.05,3.59
28.33,3.75
28.62,3.92
28.90,4.09
29.19,4.25
29.48,4.43
29.78,4.61
30.08,4.79
30.38,4.96
30.68,5.14
30.99,5.33
31.30,5.50
31.61,5.69
31.93,5.87
32.24,6.05
32.57,6.24
32.89,6.42
33.22,6.61
33.55,6.79
33.89,6.97
34.23,7.15
34.57,7.34
34.92,7.51
35.27,7.69
35.62,7.86
35.97,8.04
36.33,8.21
36.70,8.38
37.06,8.55
37.43,8.72
37.81,8.88
38.19,9.05
38.57,9.21
38.95,9.38
39.34,9.54
39.74,9.69
40.14,9.85
40.54,10.00
40.94,10.16
41.35,10.30
41.76,10.46
42.18,10.60
42.60,10.74
43.03,10.89
43.46,11.03
43.90,11.18
44.33,11.32
44.78,11.46
45.23,11.61
45.68,11.75
46.13,11.90
46.60,12.04
47.06,12.18
47.53,12.32
48.01,12.45
48.49,12.59
48.97,12.72
49.46,12.85
49.96,12.98
50.46,13.12
50.96,13.24
51.47,13.36
51.99,13.48
52.51,13.59
53.03,13.70
53.56,13.82
54.10,13.93
54.64,14.02
55.18,14.12
55.74,14.21
56.29,14.30
56.86,14.39
57.42,14.47
58.00,14.55
58.58,14.63
59.16,14.71
59.76,14.77
60.35,14.85
60.96,14.90
61.57,14.97
62.18,15.03
62.80,15.09
63.43,15.14
64.07,15.18
64.71,15.23
65.35,15.27
66.01,15.30
66.67,15.34
67.33,15.37
68.01,15.39
68.69,15.41
69.37,15.42
70.07,15.43
70.77,15.44
71.48,15.44
72.19,15.44
72.91,15.44
73.64,15.42
74.38,15.40
75.12,15.39
75.87,15.36
76.63,15.33
77.40,15.30
78.17,15.26
78.95,15.22
79.74,15.17
80.54,15.12
81.35,15.08
82.16,15.02
82.98,14.95
83.81,14.89
84.65,14.81
85.50,14.74
86.35,14.66
87.22,14.57
88.09,14.49
88.97,14.40
89.86,14.31
90.76,14.21
91.66,14.11
92.58,14.01
93.51,13.90
94.44,13.80
95.39,13.68
96.34,13.56
97.30,13.44
98.28,13.33
99.26,13.20
100.25,13.08
101.25,12.95
102.27,12.82
103.29,12.69
104.32,12.55
105.37,12.42
106.42,12.27
107.48,12.13
108.56,11.99
109.64,11.84
110.74,11.69
111.85,11.54
112.97,11.39
114.10,11.23
115.24,11.08
116.39,10.92
117.55,10.75
118.73,10.59
119.92,10.42
121.12,10.25
122.33,10.08
123.55,9.92
124.79,9.75
126.03,9.58
127.29,9.41
128.57,9.24
129.85,9.07
131.15,8.90
132.46,8.73
133.79,8.56
135.12,8.38
136.48,8.21
137.84,8.04
139.22,7.87
140.61,7.70
142.02,7.53
143.44,7.36
144.87,7.19
146.32,7.02
147.78,6.85
149.26,6.69
150.75,6.51
152.26,6.35
153.78,6.18
155.32,6.02
156.88,5.85
158.44,5.68
160.03,5.53
161.63,5.36
163.24,5.20
164.88,5.05
166.53,4.89
168.19,4.73
169.87,4.57
171.57,4.42
173.29,4.27
175.02,4.13
176.77,3.98
178.54,3.85
180.32,3.71
182.13,3.58
183.95,3.46
185.79,3.35
187.65,3.24
189.52,3.13
191.42,3.04
193.33,2.94
195.27,2.85
197.22,2.76
199.19,2.68
201.18,2.60
203.19,2.52
205.23,2.44
207.28,2.37
209.35,2.30
211.44,2.23
213.56,2.16
215.69,2.09
217.85,2.02
220.03,1.96
222.23,1.90
224.45,1.84
226.70,1.78
228.96,1.74
231.25,1.70
233.57,1.67
235.90,1.64
238.26,1.63
240.64,1.62
243.05,1.63
245.48,1.62
247.93,1.64
250.41,1.65
252.92,1.67
255.45,1.67
258.00,1.69
260.58,1.71
263.19,1.72
265.82,1.74
268.48,1.75
271.16,1.77
273.87,1.77
276.61,1.78
279.38,1.80
282.17,1.80
284.99,1.81
287.84,1.82
290.72,1.84
293.63,1.85
296.57,1.85
299.53,1.86
302.53,1.87
305.55,1.88
308.61,1.90
311.69,1.91
314.81,1.93
317.96,1.94
321.14,1.96
324.35,1.97
327.59,1.99
330.87,2.01
334.18,2.04
337.52,2.07
340.90,2.10
344.30,2.13
347.75,2.16
351.23,2.20
354.74,2.23
358.28,2.26
361.87,2.29
365.49,2.33
369.14,2.38
372.83,2.44
376.56,2.51
380.33,2.57
384.13,2.65
387.97,2.72
391.85,2.80
395.77,2.88
399.73,2.97
403.72,3.05
407.76,3.14
411.84,3.22
415.96,3.32
420.12,3.40
424.32,3.48
428.56,3.56
432.85,3.64
437.18,3.72
441.55,3.79
445.96,3.85
450.42,3.88
454.93,3.90
459.48,3.93
464.07,3.94
468.71,3.96
473.40,3.97
478.13,3.99
482.91,3.99
487.74,4.00
492.62,4.02
497.55,4.02
502.52,4.02
507.55,4.03
512.62,4.03
517.75,4.05
522.93,4.05
528.16,4.06
533.44,4.07
538.77,4.07
544.16,4.08
549.60,4.09
555.10,4.10
560.65,4.11
566.25,4.13
571.92,4.15
577.64,4.16
583.41,4.18
589.25,4.21
595.14,4.23
601.09,4.25
607.10,4.28
613.17,4.31
619.30,4.34
625.50,4.38
631.75,4.40
638.07,4.44
644.45,4.47
650.89,4.50
657.40,4.53
663.98,4.56
670.62,4.58
677.32,4.61
684.10,4.61
690.94,4.62
697.85,4.62
704.83,4.59
711.87,4.55
718.99,4.50
726.18,4.40
733.44,4.31
740.78,4.19
748.19,4.07
755.67,3.95
763.23,3.83
770.86,3.70
778.57,3.57
786.35,3.43
794.22,3.28
802.16,3.10
810.18,2.89
818.28,2.67
826.46,2.42
834.73,2.17
843.08,1.93
851.51,1.72
860.02,1.53
868.62,1.38
877.31,1.26
886.08,1.16
894.94,1.07
903.89,0.98
912.93,0.89
922.06,0.79
931.28,0.68
940.59,0.59
950.00,0.48
959.50,0.38
969.09,0.28
978.78,0.19
988.57,0.10
998.46,0.01
1008.44,-0.08
1018.53,-0.17
1028.71,-0.26
1039.00,-0.36
1049.39,-0.46
1059.88,-0.55
1070.48,-0.65
1081.19,-0.75
1092.00,-0.84
1102.92,-0.93
1113.95,-1.01
1125.09,-1.08
1136.34,-1.13
1147.70,-1.15
1159.18,-1.17
1170.77,-1.15
1182.48,-1.11
1194.30,-1.06
1206.25,-1.00
1218.31,-0.94
1230.49,-0.89
1242.80,-0.85
1255.22,-0.82
1267.78,-0.82
1280.45,-0.83
1293.26,-0.87
1306.19,-0.92
1319.25,-0.98
1332.45,-1.04
1345.77,-1.11
1359.23,-1.17
1372.82,-1.22
1386.55,-1.27
1400.41,-1.30
1414.42,-1.34
1428.56,-1.35
1442.85,-1.35
1457.28,-1.34
1471.85,-1.30
1486.57,-1.24
1501.43,-1.18
1516.45,-1.08
1531.61,-0.96
1546.93,-0.82
1562.40,-0.67
1578.02,-0.49
1593.80,-0.29
1609.74,-0.07
1625.84,0.17
1642.10,0.42
1658.52,0.68
1675.10,0.96
1691.85,1.25
1708.77,1.55
1725.86,1.84
1743.12,2.13
1760.55,2.42
1778.15,2.72
1795.94,3.03
1813.90,3.36
1832.03,3.70
1850.36,4.09
1868.86,4.48
1887.55,4.89
1906.42,5.32
1925.49,5.76
1944.74,6.19
1964.19,6.61
1983.83,7.02
2003.67,7.42
2023.71,7.82
2043.94,8.20
2064.38,8.58
2085.03,8.95
2105.88,9.32
2126.94,9.68
2148.20,10.03
2169.69,10.38
2191.38,10.72
2213.30,11.06
2235.43,11.39
2257.78,11.74
2280.36,12.07
2303.17,12.41
2326.20,12.75
2349.46,13.08
2372.95,13.41
2396.68,13.73
2420.65,14.04
2444.86,14.33
2469.31,14.59
2494.00,14.85
2518.94,15.06
2544.13,15.25
2569.57,15.41
2595.27,15.56
2621.22,15.67
2647.43,15.78
2673.90,15.87
2700.64,15.96
2727.65,16.05
2754.93,16.15
2782.48,16.23
2810.30,16.30
2838.40,16.36
2866.79,16.39
2895.46,16.38
2924.41,16.34
2953.65,16.26
2983.19,16.14
3013.02,16.00
3043.15,15.85
3073.58,15.70
3104.32,15.55
3135.36,15.41
3166.72,15.27
3198.38,15.15
3230.37,15.02
3262.67,14.89
3295.30,14.76
3328.25,14.62
3361.53,14.48
3395.15,14.35
3429.10,14.22
3463.39,14.10
3498.03,14.01
3533.01,13.94
3568.34,13.90
3604.02,13.90
3640.06,13.92
3676.46,13.94
3713.22,13.98
3750.36,14.02
3787.86,14.04
3825.74,14.02
3864.00,13.97
3902.64,13.88
3941.66,13.74
3981.08,13.55
4020.89,13.33
4061.10,13.10
4101.71,12.84
4142.73,12.62
4184.15,12.40
4226.00,12.22
4268.26,12.07
4310.94,11.96
4354.05,11.88
4397.59,11.84
4441.56,11.82
4485.98,11.82
4530.84,11.82
4576.15,11.83
4621.91,11.86
4668.13,11.88
4714.81,11.92
4761.96,11.96
4809.58,11.99
4857.67,12.02
4906.25,12.04
4955.31,12.04
5004.87,12.03
5054.91,12.00
5105.46,11.94
5156.52,11.86
5208.08,11.76
5260.16,11.64
5312.77,11.51
5365.89,11.38
5419.55,11.25
5473.75,11.11
5528.49,10.97
5583.77,10.82
5639.61,10.67
5696.00,10.53
5752.96,10.38
5810.49,10.25
5868.60,10.13
5927.28,10.01
5986.56,9.91
6046.42,9.81
6106.89,9.74
6167.96,9.68
6229.64,9.63
6291.93,9.59
6354.85,9.57
6418.40,9.56
6482.58,9.58
6547.41,9.60
6612.88,9.64
6679.01,9.69
6745.80,9.76
6813.26,9.85
6881.39,9.94
6950.21,10.02
7019.71,10.12
7089.91,10.22
7160.81,10.32
7232.41,10.43
7304.74,10.54
7377.79,10.64
7451.56,10.75
7526.08,10.86
7601.34,10.98
7677.35,11.10
7754.13,11.25
7831.67,11.41
7909.98,11.60
7989.08,11.83
8068.98,12.10
8149.67,12.39
8231.16,12.73
8313.47,13.08
8396.61,13.43
8480.57,13.78
8565.38,14.05
8651.03,14.27
8737.54,14.42
8824.92,14.41
8913.17,14.31
9002.30,14.11
9092.32,13.76
9183.25,13.31
9275.08,12.80
9367.83,12.21
9461.51,11.57
9556.12,10.92
9651.68,10.27
9748.20,9.63
9845.68,9.03
9944.14,8.45
10043.58,7.91
10144.02,7.43
10245.46,6.96
10347.91,6.56
10451.39,6.19
10555.91,5.86
10661.46,5.57
10768.08,5.31
10875.76,5.08
10984.52,4.88
11094.36,4.71
11205.31,4.55
11317.36,4.42
11430.53,4.28
11544.84,4.13
11660.29,3.97
11776.89,3.80
11894.66,3.64
12013.60,3.47
12133.74,3.31
12255.08,3.15
12377.63,3.00
12501.41,2.87
12626.42,2.77
12752.68,2.68
12880.21,2.64
13009.01,2.64
13139.10,2.69
13270.49,2.78
13403.20,2.96
13537.23,3.19
13672.60,3.47
13809.33,3.81
13947.42,4.17
14086.90,4.53
14227.77,4.84
14370.04,5.09
14513.74,5.28
14658.88,5.32
14805.47,5.20
14953.52,4.94
15103.06,4.51
15254.09,3.85
15406.63,3.06
15560.70,2.16
15716.30,1.13
15873.47,0.06
16032.20,-1.05
16192.52,-2.20
16354.45,-3.36
16517.99,-4.54
16683.17,-5.62
16850.01,-6.59
17018.51,-7.42
17188.69,-8.06
17360.58,-8.43
17534.18,-8.65
17709.53,-8.68
17886.62,-8.56
18065.49,-8.42
18246.14,-8.25
18428.60,-8.17
18612.89,-8.16
18799.02,-8.19
18987.01,-8.21
19176.88,-8.11
19368.65,-7.90
19562.33,-7.50
19757.96,-7.00
19955.54,-6.70
