frequency,raw,error,smoothed,error_smoothed,equalization,parametric_eq,fixed_band_eq,equalized_raw,equalized_smoothed,target
20.00,8.58,4.98,8.58,4.98,-4.99,-5.30,-2.96,3.59,3.59,3.60
20.20,8.63,5.03,8.63,5.03,-5.03,-5.33,-3.05,3.60,3.60,3.60
20.40,8.68,5.08,8.68,5.08,-5.07,-5.36,-3.13,3.61,3.61,3.60
20.61,8.72,5.12,8.72,5.12,-5.11,-5.40,-3.22,3.61,3.61,3.60
20.81,8.76,5.17,8.76,5.17,-5.15,-5.43,-3.30,3.61,3.61,3.59
21.02,8.80,5.21,8.80,5.20,-5.20,-5.47,-3.40,3.60,3.60,3.59
21.23,8.83,5.24,8.84,5.24,-5.24,-5.50,-3.49,3.59,3.59,3.59
21.44,8.87,5.27,8.87,5.28,-5.29,-5.54,-3.59,3.58,3.59,3.60
21.66,8.92,5.33,8.92,5.32,-5.33,-5.57,-3.69,3.59,3.58,3.59
21.87,8.96,5.37,8.96,5.37,-5.38,-5.61,-3.79,3.58,3.58,3.59
22.09,9.01,5.43,9.01,5.43,-5.43,-5.64,-3.89,3.58,3.58,3.58
22.31,9.06,5.48,9.06,5.48,-5.48,-5.68,-4.00,3.58,3.58,3.58
22.54,9.11,5.54,9.11,5.54,-5.53,-5.72,-4.11,3.58,3.58,3.57
22.76,9.16,5.59,9.16,5.59,-5.59,-5.75,-4.23,3.57,3.57,3.57
22.99,9.21,5.64,9.21,5.64,-5.64,-5.79,-4.34,3.57,3.56,3.57
23.22,9.25,5.69,9.25,5.69,-5.70,-5.83,-4.46,3.55,3.56,3.56
23.45,9.30,5.74,9.30,5.75,-5.75,-5.87,-4.58,3.55,3.55,3.56
23.69,9.35,5.80,9.35,5.80,-5.80,-5.90,-4.71,3.55,3.55,3.55
23.92,9.40,5.87,9.40,5.86,-5.85,-5.94,-4.83,3.55,3.55,3.54
24.16,9.44,5.91,9.44,5.91,-5.90,-5.98,-4.96,3.54,3.54,3.54
24.40,9.48,5.95,9.49,5.95,-5.95,-6.02,-5.09,3.53,3.53,3.54
24.65,9.53,6.00,9.53,5.99,-6.00,-6.06,-5.23,3.53,3.53,3.53
24.89,9.57,6.04,9.57,6.04,-6.05,-6.10,-5.36,3.53,3.53,3.53
25.14,9.62,6.09,9.62,6.09,-6.09,-6.14,-5.50,3.53,3.53,3.53
25.39,9.66,6.14,9.67,6.14,-6.14,-6.18,-5.64,3.52,3.53,3.52
25.65,9.71,6.19,9.71,6.19,-6.19,-6.22,-5.78,3.53,3.53,3.52
25.91,9.76,6.24,9.76,6.24,-6.23,-6.26,-5.92,3.53,3.53,3.52
26.16,9.80,6.27,9.80,6.28,-6.28,-6.30,-6.06,3.52,3.53,3.53
26.43,9.85,6.32,9.85,6.32,-6.32,-6.34,-6.20,3.53,3.53,3.53
26.69,9.89,6.36,9.89,6.37,-6.37,-6.38,-6.34,3.52,3.53,3.53
26.96,9.94,6.41,9.94,6.41,-6.41,-6.42,-6.48,3.53,3.53,3.53
27.23,9.98,6.46,9.98,6.45,-6.45,-6.46,-6.62,3.53,3.53,3.53
27.50,10.02,6.50,10.02,6.50,-6.50,-6.50,-6.76,3.52,3.53,3.52
27.77,10.06,6.53,10.06,6.54,-6.54,-6.54,-6.89,3.52,3.52,3.53
28.05,10.11,6.59,10.11,6.58,-6.58,-6.58,-7.02,3.53,3.52,3.52
28.33,10.14,6.62,10.15,6.63,-6.63,-6.62,-7.14,3.51,3.52,3.52
28.62,10.19,6.68,10.19,6.67,-6.67,-6.67,-7.26,3.52,3.52,3.51
28.90,10.22,6.70,10.22,6.71,-6.71,-6.71,-7.38,3.51,3.51,3.52
29.19,10.26,6.75,10.26,6.76,-6.76,-6.75,-7.49,3.50,3.51,3.51
29.48,10.30,6.81,10.30,6.80,-6.80,-6.79,-7.59,3.50,3.50,3.50
29.78,10.34,6.85,10.34,6.84,-6.84,-6.84,-7.68,3.50,3.50,3.49
30.08,10.37,6.88,10.37,6.88,-6.88,-6.88,-7.77,3.49,3.49,3.49
30.38,10.40,6.92,10.40,6.92,-6.92,-6.92,-7.85,3.48,3.48,3.48
30.68,10.44,6.96,10.44,6.96,-6.96,-6.96,-7.91,3.48,3.48,3.48
30.99,10.47,6.99,10.47,7.00,-7.00,-7.01,-7.97,3.47,3.48,3.48
31.30,10.51,7.04,10.51,7.04,-7.03,-7.05,-8.02,3.48,3.47,3.47
31.61,10.54,7.07,10.54,7.07,-7.07,-7.09,-8.07,3.47,3.47,3.47
31.93,10.58,7.11,10.58,7.11,-7.10,-7.13,-8.10,3.48,3.48,3.47
32.24,10.61,7.13,10.61,7.14,-7.14,-7.18,-8.12,3.47,3.48,3.48
32.57,10.65,7.18,10.65,7.18,-7.17,-7.22,-8.14,3.48,3.48,3.47
32.89,10.68,7.21,10.68,7.21,-7.21,-7.26,-8.15,3.47,3.47,3.47
33.22,10.71,7.24,10.71,7.24,-7.24,-7.31,-8.15,3.47,3.47,3.47
33.55,10.74,7.27,10.74,7.28,-7.28,-7.35,-8.14,3.46,3.46,3.47
33.89,10.77,7.31,10.77,7.32,-7.32,-7.39,-8.13,3.45,3.46,3.46
34.23,10.81,7.37,10.81,7.36,-7.36,-7.44,-8.11,3.45,3.45,3.44
34.57,10.84,7.40,10.84,7.40,-7.40,-7.48,-8.09,3.44,3.44,3.44
34.92,10.87,7.45,10.87,7.45,-7.44,-7.52,-8.06,3.43,3.43,3.42
35.27,10.89,7.48,10.89,7.49,-7.49,-7.57,-8.03,3.40,3.41,3.42
35.62,10.92,7.54,10.92,7.53,-7.53,-7.61,-8.00,3.39,3.39,3.38
35.97,10.94,7.57,10.94,7.58,-7.58,-7.65,-7.97,3.36,3.36,3.37
36.33,10.97,7.63,10.97,7.63,-7.63,-7.70,-7.93,3.34,3.34,3.35
36.70,10.99,7.68,10.99,7.68,-7.68,-7.74,-7.90,3.31,3.31,3.31
37.06,11.02,7.73,11.02,7.73,-7.73,-7.78,-7.87,3.29,3.29,3.29
37.43,11.04,7.79,11.04,7.79,-7.79,-7.83,-7.83,3.26,3.26,3.25
37.81,11.07,7.84,11.07,7.84,-7.84,-7.87,-7.80,3.23,3.23,3.23
38.19,11.09,7.89,11.09,7.89,-7.89,-7.91,-7.77,3.20,3.20,3.20
38.57,11.11,7.94,11.12,7.94,-7.94,-7.95,-7.75,3.17,3.17,3.17
38.95,11.14,7.99,11.14,7.99,-7.99,-8.00,-7.73,3.15,3.14,3.15
39.34,11.16,8.05,11.16,8.05,-8.04,-8.04,-7.71,3.12,3.12,3.11
39.74,11.18,8.09,11.18,8.09,-8.09,-8.08,-7.69,3.09,3.09,3.09
40.14,11.20,8.14,11.20,8.13,-8.13,-8.12,-7.68,3.07,3.06,3.06
40.54,11.21,8.16,11.22,8.17,-8.18,-8.17,-7.67,3.03,3.04,3.05
40.94,11.24,8.22,11.24,8.22,-8.22,-8.21,-7.67,3.02,3.02,3.02
41.35,11.26,8.26,11.26,8.26,-8.26,-8.25,-7.67,3.00,3.00,3.00
41.76,11.28,8.31,11.28,8.30,-8.30,-8.29,-7.68,2.98,2.98,2.97
42.18,11.30,8.34,11.30,8.34,-8.34,-8.33,-7.70,2.96,2.96,2.96
42.60,11.31,8.37,11.31,8.38,-8.38,-8.37,-7.71,2.93,2.94,2.94
43.03,11.33,8.42,11.33,8.41,-8.41,-8.41,-7.74,2.92,2.92,2.91
43.46,11.34,8.45,11.34,8.45,-8.45,-8.45,-7.77,2.89,2.90,2.90
43.90,11.36,8.48,11.36,8.49,-8.48,-8.50,-7.80,2.88,2.88,2.88
44.33,11.37,8.52,11.37,8.51,-8.52,-8.54,-7.84,2.86,2.85,2.85
44.78,11.38,8.55,11.38,8.54,-8.55,-8.58,-7.89,2.83,2.83,2.83
45.23,11.39,8.57,11.40,8.58,-8.59,-8.61,-7.94,2.81,2.81,2.83
45.68,11.41,8.62,11.41,8.62,-8.62,-8.65,-8.00,2.79,2.79,2.79
46.13,11.42,8.67,11.42,8.66,-8.66,-8.69,-8.06,2.76,2.76,2.75
46.60,11.42,8.69,11.43,8.70,-8.70,-8.73,-8.13,2.72,2.73,2.73
47.06,11.44,8.74,11.44,8.74,-8.74,-8.77,-8.21,2.70,2.70,2.70
47.53,11.44,8.77,11.44,8.78,-8.78,-8.81,-8.29,2.66,2.66,2.67
48.01,11.45,8.83,11.45,8.82,-8.82,-8.85,-8.37,2.63,2.63,2.62
48.49,11.45,8.86,11.45,8.86,-8.87,-8.88,-8.46,2.58,2.59,2.59
48.97,11.46,8.91,11.46,8.91,-8.91,-8.92,-8.56,2.55,2.55,2.55
49.46,11.47,8.95,11.47,8.96,-8.96,-8.96,-8.66,2.51,2.51,2.52
49.96,11.47,9.01,11.47,9.01,-9.00,-8.99,-8.77,2.47,2.47,2.46
50.46,11.47,9.04,11.48,9.05,-9.05,-9.03,-8.87,2.42,2.43,2.43
50.96,11.48,9.10,11.48,9.09,-9.09,-9.06,-8.99,2.39,2.39,2.38
51.47,11.48,9.13,11.48,9.13,-9.13,-9.10,-9.10,2.35,2.35,2.35
51.99,11.48,9.17,11.49,9.17,-9.17,-9.13,-9.22,2.31,2.32,2.31
52.51,11.49,9.22,11.48,9.20,-9.21,-9.16,-9.34,2.28,2.27,2.28
53.03,11.48,9.23,11.49,9.24,-9.25,-9.20,-9.47,2.23,2.24,2.25
53.56,11.48,9.28,11.49,9.28,-9.29,-9.23,-9.59,2.20,2.20,2.21
54.10,11.49,9.33,11.48,9.32,-9.32,-9.26,-9.71,2.17,2.16,2.16
54.64,11.48,9.36,11.49,9.36,-9.36,-9.29,-9.84,2.12,2.13,2.13
55.18,11.48,9.40,11.48,9.40,-9.39,-9.32,-9.96,2.09,2.09,2.08
55.74,11.48,9.44,11.48,9.43,-9.43,-9.35,-10.07,2.05,2.05,2.04
56.29,11.47,9.46,11.47,9.46,-9.46,-9.38,-10.19,2.01,2.01,2.02
56.86,11.46,9.47,11.47,9.49,-9.48,-9.41,-10.30,1.98,1.98,1.99
57.42,11.46,9.52,11.46,9.52,-9.51,-9.44,-10.40,1.95,1.95,1.94
58.00,11.46,9.55,11.46,9.54,-9.53,-9.47,-10.50,1.93,1.92,1.91
58.58,11.45,9.56,11.45,9.56,-9.56,-9.50,-10.59,1.89,1.89,1.89
59.16,11.43,9.57,11.44,9.58,-9.59,-9.52,-10.67,1.84,1.85,1.86
59.76,11.43,9.60,11.43,9.60,-9.62,-9.55,-10.74,1.81,1.81,1.83
60.35,11.42,9.64,11.42,9.64,-9.65,-9.57,-10.80,1.77,1.77,1.78
60.96,11.41,9.68,11.41,9.68,-9.69,-9.60,-10.85,1.73,1.73,1.74
61.57,11.40,9.73,11.40,9.72,-9.72,-9.62,-10.89,1.68,1.68,1.67
62.18,11.38,9.76,11.38,9.76,-9.76,-9.65,-10.91,1.62,1.63,1.62
62.80,11.37,9.80,11.37,9.80,-9.79,-9.67,-10.92,1.58,1.58,1.58
63.43,11.36,9.84,11.36,9.84,-9.83,-9.69,-10.92,1.53,1.53,1.52
64.07,11.35,9.87,11.35,9.86,-9.86,-9.71,-10.91,1.49,1.49,1.48
64.71,11.33,9.88,11.33,9.89,-9.88,-9.73,-10.88,1.45,1.45,1.45
65.35,11.31,9.90,11.32,9.90,-9.91,-9.75,-10.85,1.40,1.41,1.41
66.01,11.30,9.93,11.30,9.92,-9.93,-9.77,-10.80,1.37,1.37,1.37
66.67,11.28,9.94,11.28,9.94,-9.95,-9.79,-10.74,1.33,1.33,1.34
67.33,11.25,9.96,11.26,9.96,-9.96,-9.80,-10.68,1.29,1.30,1.29
68.01,11.24,9.99,11.24,9.98,-9.98,-9.82,-10.60,1.26,1.26,1.25
68.69,11.22,10.01,11.22,10.00,-10.00,-9.83,-10.52,1.22,1.22,1.21
69.37,11.19,10.01,11.20,10.02,-10.02,-9.85,-10.44,1.17,1.18,1.18
70.07,11.17,10.02,11.17,10.03,-10.03,-9.86,-10.35,1.14,1.14,1.15
70.77,11.15,10.05,11.15,10.05,-10.05,-9.87,-10.25,1.10,1.10,1.10
71.48,11.13,10.07,11.13,10.07,-10.07,-9.88,-10.16,1.06,1.06,1.06
72.19,11.09,10.08,11.10,10.08,-10.08,-9.89,-10.06,1.01,1.02,1.01
72.91,11.07,10.10,11.07,10.10,-10.10,-9.90,-9.96,0.97,0.97,0.98
73.64,11.04,10.11,11.04,10.11,-10.11,-9.91,-9.86,0.93,0.93,0.93
74.38,11.01,10.12,11.02,10.12,-10.12,-9.92,-9.76,0.89,0.89,0.89
75.12,10.99,10.14,10.99,10.13,-10.13,-9.93,-9.67,0.86,0.86,0.85
75.87,10.96,10.13,10.96,10.13,-10.13,-9.93,-9.58,0.83,0.83,0.83
76.63,10.93,10.14,10.93,10.14,-10.14,-9.94,-9.49,0.80,0.79,0.79
77.40,10.89,10.13,10.89,10.14,-10.14,-9.94,-9.40,0.76,0.76,0.76
78.17,10.86,10.14,10.86,10.13,-10.13,-9.95,-9.32,0.73,0.73,0.72
78.95,10.82,10.12,10.82,10.13,-10.13,-9.95,-9.24,0.69,0.70,0.70
79.74,10.79,10.12,10.79,10.12,-10.12,-9.95,-9.17,0.67,0.67,0.67
80.54,10.75,10.12,10.75,10.11,-10.12,-9.95,-9.10,0.63,0.64,0.64
81.35,10.72,10.11,10.72,10.11,-10.11,-9.95,-9.04,0.61,0.61,0.61
82.16,10.68,10.10,10.68,10.10,-10.10,-9.95,-8.98,0.58,0.58,0.58
82.98,10.64,10.10,10.65,10.10,-10.10,-9.94,-8.93,0.54,0.55,0.55
83.81,10.61,10.09,10.60,10.09,-10.09,-9.94,-8.89,0.52,0.52,0.52
84.65,10.56,10.08,10.57,10.08,-10.08,-9.94,-8.85,0.48,0.49,0.48
85.50,10.52,10.07,10.52,10.07,-10.07,-9.93,-8.81,0.46,0.46,0.45
86.35,10.48,10.05,10.48,10.05,-10.05,-9.92,-8.79,0.43,0.42,0.43
87.22,10.43,10.03,10.43,10.04,-10.04,-9.92,-8.77,0.39,0.39,0.40
88.09,10.39,10.02,10.39,10.02,-10.03,-9.91,-8.75,0.37,0.36,0.37
88.97,10.34,10.01,10.34,10.01,-10.01,-9.90,-8.75,0.33,0.33,0.33
89.86,10.30,10.00,10.30,10.00,-10.00,-9.89,-8.74,0.31,0.30,0.30
90.76,10.25,9.98,10.25,9.98,-9.98,-9.88,-8.75,0.27,0.27,0.27
91.66,10.20,9.97,10.20,9.97,-9.97,-9.87,-8.76,0.24,0.24,0.23
92.58,10.15,9.95,10.15,9.95,-9.95,-9.85,-8.78,0.20,0.20,0.20
93.51,10.10,9.94,10.10,9.94,-9.94,-9.84,-8.80,0.16,0.16,0.16
94.44,10.05,9.92,10.05,9.93,-9.93,-9.82,-8.83,0.12,0.12,0.13
95.39,10.00,9.92,10.00,9.91,-9.92,-9.81,-8.87,0.08,0.08,0.08
96.34,9.94,9.90,9.95,9.90,-9.91,-9.79,-8.91,0.03,0.04,0.04
97.30,9.89,9.89,9.89,9.90,-9.90,-9.78,-8.96,-0.01,-0.01,0.00
98.28,9.84,9.90,9.84,9.89,-9.89,-9.76,-9.01,-0.05,-0.05,-0.06
99.26,9.78,9.88,9.79,9.88,-9.88,-9.74,-9.06,-0.10,-0.09,-0.10
100.25,9.73,9.87,9.73,9.87,-9.86,-9.72,-9.13,-0.13,-0.13,-0.14
101.25,9.67,9.85,9.67,9.85,-9.85,-9.70,-9.19,-0.18,-0.18,-0.18
102.27,9.61,9.83,9.61,9.83,-9.83,-9.68,-9.26,-0.22,-0.21,-0.22
103.29,9.55,9.80,9.55,9.81,-9.81,-9.66,-9.33,-0.25,-0.25,-0.25
104.32,9.50,9.78,9.49,9.78,-9.78,-9.64,-9.41,-0.28,-0.29,-0.28
105.37,9.43,9.75,9.43,9.75,-9.75,-9.62,-9.49,-0.32,-0.32,-0.32
106.42,9.37,9.72,9.37,9.73,-9.73,-9.59,-9.57,-0.35,-0.35,-0.35
107.48,9.31,9.71,9.31,9.70,-9.70,-9.57,-9.65,-0.38,-0.38,-0.39
108.56,9.25,9.67,9.25,9.67,-9.67,-9.54,-9.73,-0.41,-0.42,-0.42
109.64,9.18,9.63,9.18,9.64,-9.64,-9.52,-9.81,-0.45,-0.45,-0.45
110.74,9.11,9.60,9.11,9.60,-9.61,-9.49,-9.88,-0.49,-0.49,-0.49
111.85,9.05,9.58,9.05,9.57,-9.58,-9.47,-9.96,-0.52,-0.53,-0.52
112.97,8.98,9.54,8.98,9.54,-9.55,-9.44,-10.03,-0.57,-0.56,-0.56
114.10,8.92,9.52,8.92,9.52,-9.52,-9.41,-10.10,-0.60,-0.60,-0.60
115.24,8.84,9.49,8.84,9.49,-9.49,-9.39,-10.16,-0.65,-0.65,-0.64
116.39,8.77,9.47,8.77,9.47,-9.47,-9.36,-10.22,-0.69,-0.69,-0.70
117.55,8.70,9.44,8.70,9.44,-9.44,-9.33,-10.26,-0.74,-0.74,-0.74
118.73,8.63,9.42,8.63,9.42,-9.41,-9.30,-10.31,-0.78,-0.78,-0.79
119.92,8.55,9.39,8.55,9.38,-9.38,-9.27,-10.33,-0.83,-0.83,-0.84
121.12,8.47,9.34,8.48,9.35,-9.35,-9.24,-10.36,-0.88,-0.87,-0.87
122.33,8.40,9.32,8.40,9.32,-9.32,-9.21,-10.36,-0.92,-0.92,-0.92
123.55,8.32,9.29,8.32,9.28,-9.29,-9.18,-10.37,-0.97,-0.97,-0.97
124.79,8.24,9.25,8.24,9.25,-9.26,-9.15,-10.35,-1.01,-1.02,-1.01
126.03,8.15,9.21,8.16,9.22,-9.23,-9.12,-10.33,-1.07,-1.07,-1.06
127.29,8.07,9.19,8.07,9.19,-9.19,-9.09,-10.29,-1.12,-1.12,-1.12
128.57,8.00,9.17,8.00,9.17,-9.16,-9.06,-10.24,-1.16,-1.17,-1.17
129.85,7.91,9.13,7.92,9.14,-9.13,-9.03,-10.18,-1.22,-1.22,-1.22
131.15,7.84,9.11,7.84,9.11,-9.10,-8.99,-10.12,-1.26,-1.27,-1.27
132.46,7.75,9.07,7.75,9.07,-9.07,-8.96,-10.04,-1.32,-1.32,-1.32
133.79,7.67,9.03,7.68,9.03,-9.03,-8.93,-9.95,-1.36,-1.36,-1.36
135.12,7.60,9.00,7.60,8.99,-9.00,-8.89,-9.85,-1.40,-1.40,-1.40
136.48,7.52,8.95,7.53,8.96,-8.96,-8.86,-9.75,-1.43,-1.43,-1.43
137.84,7.45,8.92,7.45,8.91,-8.91,-8.83,-9.64,-1.46,-1.47,-1.46
139.22,7.37,8.88,7.37,8.87,-8.87,-8.79,-9.53,-1.50,-1.50,-1.51
140.61,7.28,8.81,7.29,8.83,-8.83,-8.76,-9.41,-1.54,-1.53,-1.53
142.02,7.22,8.79,7.21,8.78,-8.78,-8.72,-9.29,-1.56,-1.57,-1.56
143.44,7.14,8.74,7.14,8.73,-8.73,-8.69,-9.17,-1.59,-1.59,-1.60
144.87,7.06,8.68,7.07,8.69,-8.69,-8.65,-9.04,-1.62,-1.62,-1.62
146.32,6.99,8.64,6.99,8.64,-8.64,-8.62,-8.92,-1.65,-1.65,-1.65
147.78,6.91,8.59,6.91,8.59,-8.59,-8.58,-8.79,-1.68,-1.68,-1.68
149.26,6.84,8.55,6.84,8.55,-8.54,-8.55,-8.67,-1.70,-1.71,-1.70
150.75,6.76,8.50,6.76,8.50,-8.50,-8.51,-8.54,-1.74,-1.73,-1.74
152.26,6.69,8.45,6.69,8.45,-8.45,-8.48,-8.42,-1.76,-1.76,-1.76
153.78,6.61,8.41,6.61,8.41,-8.41,-8.44,-8.30,-1.79,-1.79,-1.79
155.32,6.54,8.36,6.54,8.36,-8.36,-8.40,-8.19,-1.82,-1.82,-1.82
156.88,6.46,8.32,6.46,8.32,-8.32,-8.37,-8.08,-1.86,-1.86,-1.85
158.44,6.38,8.27,6.39,8.27,-8.27,-8.33,-7.97,-1.89,-1.89,-1.89
160.03,6.31,8.23,6.31,8.23,-8.23,-8.29,-7.86,-1.92,-1.92,-1.92
161.63,6.23,8.18,6.23,8.19,-8.19,-8.25,-7.76,-1.96,-1.96,-1.95
163.24,6.15,8.15,6.16,8.15,-8.15,-8.22,-7.67,-2.00,-1.99,-2.00
164.88,6.08,8.11,6.08,8.11,-8.11,-8.18,-7.58,-2.03,-2.03,-2.03
166.53,6.01,8.08,6.00,8.07,-8.07,-8.14,-7.49,-2.06,-2.07,-2.07
168.19,5.92,8.02,5.93,8.03,-8.03,-8.10,-7.41,-2.11,-2.10,-2.10
169.87,5.85,7.99,5.85,7.99,-7.99,-8.06,-7.33,-2.14,-2.14,-2.14
171.57,5.77,7.96,5.77,7.95,-7.95,-8.02,-7.26,-2.18,-2.18,-2.18
173.29,5.69,7.91,5.69,7.91,-7.91,-7.98,-7.19,-2.22,-2.22,-2.22
175.02,5.61,7.87,5.61,7.87,-7.87,-7.94,-7.13,-2.26,-2.25,-2.26
176.77,5.54,7.83,5.54,7.83,-7.83,-7.90,-7.08,-2.29,-2.29,-2.29
178.54,5.46,7.79,5.46,7.79,-7.79,-7.86,-7.03,-2.32,-2.32,-2.32
180.32,5.38,7.75,5.38,7.74,-7.74,-7.82,-6.98,-2.36,-2.36,-2.37
182.13,5.30,7.70,5.30,7.70,-7.70,-7.78,-6.94,-2.40,-2.40,-2.40
183.95,5.22,7.65,5.22,7.66,-7.66,-7.74,-6.90,-2.44,-2.43,-2.43
185.79,5.15,7.62,5.15,7.62,-7.62,-7.70,-6.87,-2.47,-2.47,-2.47
187.65,5.07,7.57,5.07,7.58,-7.58,-7.66,-6.85,-2.51,-2.51,-2.50
189.52,4.99,7.53,5.00,7.54,-7.54,-7.61,-6.83,-2.55,-2.55,-2.54
191.42,4.92,7.50,4.92,7.50,-7.50,-7.57,-6.81,-2.58,-2.58,-2.58
193.33,4.85,7.47,4.85,7.47,-7.47,-7.53,-6.80,-2.61,-2.62,-2.62
195.27,4.77,7.43,4.77,7.43,-7.43,-7.49,-6.79,-2.66,-2.65,-2.66
197.22,4.70,7.40,4.70,7.39,-7.39,-7.44,-6.79,-2.69,-2.69,-2.70
199.19,4.62,7.34,4.63,7.35,-7.35,-7.40,-6.79,-2.73,-2.72,-2.72
201.18,4.55,7.31,4.55,7.31,-7.31,-7.36,-6.79,-2.76,-2.75,-2.76
203.19,4.49,7.28,4.48,7.27,-7.27,-7.31,-6.80,-2.78,-2.78,-2.78
205.23,4.41,7.22,4.41,7.22,-7.23,-7.27,-6.81,-2.81,-2.81,-2.81
207.28,4.34,7.18,4.34,7.18,-7.18,-7.22,-6.82,-2.84,-2.84,-2.83
209.35,4.27,7.14,4.27,7.14,-7.14,-7.18,-6.83,-2.87,-2.87,-2.87
211.44,4.21,7.10,4.21,7.10,-7.10,-7.13,-6.85,-2.89,-2.90,-2.89
213.56,4.14,7.07,4.14,7.06,-7.06,-7.09,-6.86,-2.92,-2.92,-2.93
215.69,4.07,7.02,4.07,7.02,-7.02,-7.05,-6.88,-2.95,-2.95,-2.95
217.85,4.01,6.98,4.01,6.98,-6.98,-7.00,-6.90,-2.97,-2.97,-2.97
220.03,3.94,6.94,3.94,6.94,-6.94,-6.96,-6.92,-3.00,-2.99,-3.00
222.23,3.88,6.90,3.88,6.90,-6.90,-6.91,-6.93,-3.02,-3.02,-3.02
224.45,3.81,6.86,3.81,6.85,-6.85,-6.87,-6.95,-3.04,-3.04,-3.04
226.70,3.74,6.81,3.75,6.81,-6.81,-6.82,-6.96,-3.07,-3.06,-3.07
228.96,3.68,6.76,3.68,6.76,-6.77,-6.78,-6.97,-3.09,-3.08,-3.08
231.25,3.63,6.73,3.62,6.72,-6.72,-6.73,-6.98,-3.09,-3.10,-3.10
233.57,3.56,6.68,3.56,6.68,-6.68,-6.69,-6.99,-3.12,-3.12,-3.12
235.90,3.50,6.65,3.50,6.64,-6.64,-6.64,-6.99,-3.14,-3.14,-3.14
238.26,3.44,6.60,3.44,6.60,-6.60,-6.60,-6.98,-3.16,-3.16,-3.16
240.64,3.38,6.54,3.38,6.55,-6.55,-6.56,-6.98,-3.17,-3.17,-3.16
243.05,3.33,6.51,3.33,6.51,-6.51,-6.51,-6.96,-3.18,-3.18,-3.18
245.48,3.27,6.47,3.27,6.47,-6.47,-6.47,-6.94,-3.19,-3.19,-3.20
247.93,3.21,6.43,3.22,6.42,-6.42,-6.43,-6.92,-3.21,-3.20,-3.22
250.41,3.16,6.37,3.16,6.37,-6.37,-6.38,-6.89,-3.21,-3.22,-3.21
252.92,3.10,6.32,3.10,6.33,-6.33,-6.34,-6.86,-3.23,-3.23,-3.22
255.45,3.04,6.28,3.05,6.28,-6.28,-6.30,-6.81,-3.24,-3.24,-3.24
258.00,2.99,6.24,2.99,6.24,-6.24,-6.26,-6.77,-3.25,-3.25,-3.24
260.58,2.94,6.19,2.94,6.20,-6.19,-6.21,-6.71,-3.25,-3.25,-3.25
263.19,2.89,6.16,2.89,6.15,-6.15,-6.17,-6.66,-3.26,-3.26,-3.27
265.82,2.84,6.11,2.84,6.11,-6.11,-6.13,-6.59,-3.27,-3.27,-3.27
268.48,2.79,6.07,2.79,6.07,-6.07,-6.09,-6.53,-3.28,-3.28,-3.28
271.16,2.74,6.04,2.74,6.03,-6.04,-6.05,-6.46,-3.29,-3.29,-3.29
273.87,2.69,5.99,2.69,6.00,-6.00,-6.01,-6.38,-3.31,-3.30,-3.30
276.61,2.65,5.97,2.65,5.96,-5.96,-5.97,-6.30,-3.31,-3.31,-3.31
279.38,2.60,5.93,2.60,5.93,-5.92,-5.93,-6.22,-3.32,-3.32,-3.33
282.17,2.56,5.90,2.56,5.89,-5.89,-5.89,-6.14,-3.32,-3.33,-3.33
284.99,2.51,5.84,2.51,5.85,-5.85,-5.85,-6.06,-3.34,-3.34,-3.33
287.84,2.46,5.79,2.47,5.81,-5.81,-5.81,-5.97,-3.35,-3.34,-3.33
290.72,2.43,5.79,2.43,5.77,-5.78,-5.77,-5.88,-3.34,-3.35,-3.36
293.63,2.39,5.74,2.39,5.74,-5.74,-5.73,-5.80,-3.35,-3.35,-3.35
296.57,2.35,5.71,2.35,5.71,-5.70,-5.69,-5.71,-3.35,-3.35,-3.35
299.53,2.30,5.66,2.31,5.66,-5.66,-5.65,-5.62,-3.36,-3.36,-3.36
302.53,2.26,5.62,2.26,5.63,-5.63,-5.61,-5.54,-3.37,-3.37,-3.36
305.55,2.23,5.60,2.22,5.59,-5.59,-5.57,-5.45,-3.36,-3.37,-3.37
308.61,2.18,5.55,2.19,5.56,-5.56,-5.54,-5.37,-3.38,-3.37,-3.37
311.69,2.15,5.52,2.15,5.52,-5.52,-5.50,-5.29,-3.37,-3.37,-3.37
314.81,2.11,5.49,2.11,5.48,-5.48,-5.46,-5.21,-3.37,-3.37,-3.37
317.96,2.07,5.45,2.07,5.45,-5.45,-5.42,-5.13,-3.37,-3.37,-3.38
321.14,2.04,5.41,2.04,5.41,-5.41,-5.38,-5.06,-3.37,-3.37,-3.37
324.35,1.99,5.37,2.00,5.37,-5.37,-5.34,-4.99,-3.38,-3.38,-3.38
327.59,1.96,5.33,1.96,5.33,-5.34,-5.30,-4.92,-3.37,-3.38,-3.37
330.87,1.92,5.29,1.92,5.30,-5.30,-5.26,-4.85,-3.38,-3.38,-3.37
334.18,1.89,5.27,1.89,5.26,-5.26,-5.22,-4.79,-3.37,-3.37,-3.38
337.52,1.85,5.22,1.85,5.23,-5.23,-5.18,-4.73,-3.37,-3.37,-3.37
340.90,1.82,5.20,1.82,5.19,-5.19,-5.14,-4.67,-3.37,-3.37,-3.38
344.30,1.78,5.15,1.78,5.15,-5.15,-5.10,-4.62,-3.37,-3.37,-3.37
347.75,1.75,5.11,1.75,5.12,-5.12,-5.07,-4.57,-3.37,-3.37,-3.36
351.23,1.72,5.09,1.72,5.08,-5.08,-5.03,-4.53,-3.36,-3.36,-3.37
354.74,1.69,5.05,1.69,5.05,-5.05,-4.99,-4.48,-3.36,-3.36,-3.35
358.28,1.65,5.02,1.66,5.02,-5.01,-4.95,-4.44,-3.36,-3.36,-3.37
361.87,1.62,4.98,1.62,4.98,-4.98,-4.91,-4.41,-3.36,-3.36,-3.36
365.49,1.59,4.95,1.59,4.94,-4.94,-4.87,-4.37,-3.35,-3.36,-3.36
369.14,1.55,4.90,1.56,4.91,-4.91,-4.84,-4.34,-3.36,-3.35,-3.35
372.83,1.52,4.87,1.52,4.87,-4.88,-4.80,-4.32,-3.35,-3.35,-3.35
376.56,1.49,4.84,1.49,4.84,-4.84,-4.76,-4.29,-3.35,-3.35,-3.35
380.33,1.45,4.81,1.46,4.81,-4.81,-4.73,-4.27,-3.36,-3.35,-3.35
384.13,1.42,4.78,1.42,4.77,-4.77,-4.69,-4.26,-3.35,-3.35,-3.36
387.97,1.39,4.74,1.39,4.74,-4.74,-4.66,-4.24,-3.35,-3.35,-3.35
391.85,1.35,4.70,1.36,4.71,-4.70,-4.62,-4.23,-3.35,-3.35,-3.35
395.77,1.32,4.67,1.32,4.67,-4.67,-4.59,-4.22,-3.35,-3.35,-3.35
399.73,1.29,4.64,1.29,4.64,-4.64,-4.56,-4.21,-3.34,-3.35,-3.35
403.72,1.25,4.59,1.25,4.60,-4.60,-4.52,-4.21,-3.35,-3.35,-3.34
407.76,1.22,4.56,1.22,4.57,-4.57,-4.49,-4.20,-3.34,-3.34,-3.34
411.84,1.19,4.54,1.19,4.53,-4.53,-4.46,-4.20,-3.34,-3.34,-3.34
415.96,1.16,4.50,1.16,4.50,-4.50,-4.43,-4.20,-3.34,-3.34,-3.34
420.12,1.12,4.47,1.12,4.47,-4.47,-4.40,-4.20,-3.35,-3.34,-3.35
424.32,1.09,4.44,1.09,4.43,-4.44,-4.38,-4.20,-3.34,-3.34,-3.35
428.56,1.06,4.40,1.06,4.40,-4.41,-4.35,-4.20,-3.34,-3.35,-3.34
432.85,1.03,4.37,1.03,4.37,-4.38,-4.33,-4.21,-3.34,-3.34,-3.34
437.18,1.00,4.35,1.00,4.35,-4.35,-4.31,-4.21,-3.35,-3.35,-3.35
441.55,0.97,4.32,0.97,4.32,-4.32,-4.29,-4.21,-3.35,-3.35,-3.35
445.96,0.94,4.29,0.94,4.29,-4.29,-4.27,-4.21,-3.35,-3.35,-3.35
450.42,0.91,4.26,0.91,4.27,-4.26,-4.25,-4.21,-3.35,-3.35,-3.35
454.93,0.89,4.24,0.89,4.24,-4.24,-4.23,-4.21,-3.35,-3.35,-3.35
459.48,0.86,4.22,0.86,4.21,-4.22,-4.22,-4.21,-3.36,-3.35,-3.35
464.07,0.84,4.19,0.84,4.19,-4.20,-4.21,-4.20,-3.35,-3.35,-3.34
468.71,0.82,4.17,0.82,4.17,-4.17,-4.19,-4.19,-3.35,-3.35,-3.34
473.40,0.81,4.16,0.81,4.15,-4.16,-4.18,-4.18,-3.34,-3.35,-3.35
