frequency,raw
20.00,8.04
20.20,8.04
20.40,8.05
20.61,8.05
20.81,8.05
21.02,8.05
21.23,8.05
21.44,8.05
21.66,8.05
21.87,8.05
22.09,8.05
22.31,8.04
22.54,8.04
22.76,8.03
22.99,8.02
23.22,8.02
23.45,8.01
23.69,7.99
23.92,7.98
24.16,7.97
24.40,7.95
24.65,7.93
24.89,7.91
25.14,7.89
25.39,7.86
25.65,7.84
25.91,7.81
26.16,7.78
26.43,7.76
26.69,7.73
26.96,7.70
27.23,7.68
27.50,7.65
27.77,7.62
28.05,7.59
28.33,7.56
28.62,7.52
28.90,7.48
29.19,7.44
29.48,7.40
29.78,7.36
30.08,7.32
30.38,7.27
30.68,7.23
30.99,7.18
31.30,7.14
31.61,7.09
31.93,7.04
32.24,7.00
32.57,6.96
32.89,6.92
33.22,6.88
33.55,6.84
33.89,6.80
34.23,6.77
34.57,6.73
34.92,6.70
35.27,6.66
35.62,6.63
35.97,6.60
36.33,6.58
36.70,6.55
37.06,6.53
37.43,6.51
37.81,6.49
38.19,6.48
38.57,6.47
38.95,6.46
39.34,6.46
39.74,6.46
40.14,6.46
40.54,6.47
40.94,6.48
41.35,6.50
41.76,6.51
42.18,6.53
42.60,6.55
43.03,6.58
43.46,6.60
43.90,6.63
44.33,6.66
44.78,6.69
45.23,6.72
45.68,6.76
46.13,6.80
46.60,6.84
47.06,6.88
47.53,6.92
48.01,6.96
48.49,7.00
48.97,7.04
49.46,7.08
49.96,7.12
50.46,7.16
50.96,7.20
51.47,7.24
51.99,7.28
52.51,7.31
53.03,7.34
53.56,7.37
54.10,7.40
54.64,7.43
55.18,7.45
55.74,7.47
56.29,7.49
56.86,7.50
57.42,7.52
58.00,7.53
58.58,7.54
59.16,7.54
59.76,7.55
60.35,7.55
60.96,7.55
61.57,7.54
62.18,7.54
62.80,7.53
63.43,7.51
64.07,7.50
64.71,7.48
65.35,7.46
66.01,7.44
66.67,7.42
67.33,7.39
68.01,7.36
68.69,7.33
69.37,7.29
70.07,7.25
70.77,7.21
71.48,7.17
72.19,7.13
72.91,7.08
73.64,7.04
74.38,6.99
75.12,6.93
75.87,6.88
76.63,6.83
77.40,6.77
78.17,6.71
78.95,6.65
79.74,6.58
80.54,6.51
81.35,6.45
82.16,6.38
82.98,6.30
83.81,6.23
84.65,6.16
85.50,6.08
86.35,6.00
87.22,5.92
88.09,5.84
88.97,5.76
89.86,5.67
90.76,5.59
91.66,5.50
92.58,5.41
93.51,5.32
94.44,5.23
95.39,5.14
96.34,5.04
97.30,4.95
98.28,4.85
99.26,4.76
100.25,4.66
101.25,4.56
102.27,4.46
103.29,4.36
104.32,4.26
105.37,4.16
106.42,4.05
107.48,3.95
108.56,3.84
109.64,3.74
110.74,3.63
111.85,3.52
112.97,3.41
114.10,3.30
115.24,3.19
116.39,3.08
117.55,2.96
118.73,2.85
119.92,2.74
121.12,2.62
122.33,2.50
123.55,2.39
124.79,2.27
126.03,2.15
127.29,2.03
128.57,1.91
129.85,1.79
131.15,1.67
132.46,1.54
133.79,1.42
135.12,1.30
136.48,1.18
137.84,1.05
139.22,0.93
140.61,0.81
142.02,0.69
143.44,0.56
144.87,0.44
146.32,0.31
147.78,0.19
149.26,0.06
150.75,-0.06
152.26,-0.19
153.78,-0.31
155.32,-0.44
156.88,-0.57
158.44,-0.69
160.03,-0.82
161.63,-0.95
163.24,-1.08
164.88,-1.20
166.53,-1.33
168.19,-1.45
169.87,-1.58
171.57,-1.70
173.29,-1.83
175.02,-1.95
176.77,-2.07
178.54,-2.19
180.32,-2.31
182.13,-2.42
183.95,-2.54
185.79,-2.65
187.65,-2.75
189.52,-2.86
191.42,-2.96
193.33,-3.06
195.27,-3.16
197.22,-3.26
199.19,-3.36
201.18,-3.45
203.19,-3.54
205.23,-3.62
207.28,-3.70
209.35,-3.78
211.44,-3.86
213.56,-3.93
215.69,-4.00
217.85,-4.07
220.03,-4.15
222.23,-4.22
224.45,-4.30
226.70,-4.38
228.96,-4.46
231.25,-4.54
233.57,-4.62
235.90,-4.70
238.26,-4.78
240.64,-4.85
243.05,-4.93
245.48,-5.00
247.93,-5.07
250.41,-5.14
252.92,-5.21
255.45,-5.28
258.00,-5.35
260.58,-5.42
263.19,-5.49
265.82,-5.55
268.48,-5.62
271.16,-5.68
273.87,-5.74
276.61,-5.81
279.38,-5.87
282.17,-5.93
284.99,-5.99
287.84,-6.05
290.72,-6.10
293.63,-6.15
296.57,-6.20
299.53,-6.24
302.53,-6.28
305.55,-6.31
308.61,-6.34
311.69,-6.36
314.81,-6.37
317.96,-6.37
321.14,-6.37
324.35,-6.36
327.59,-6.34
330.87,-6.32
334.18,-6.29
337.52,-6.25
340.90,-6.20
344.30,-6.14
347.75,-6.08
351.23,-6.01
354.74,-5.93
358.28,-5.85
361.87,-5.76
365.49,-5.66
369.14,-5.55
372.83,-5.44
376.56,-5.32
380.33,-5.20
384.13,-5.07
387.97,-4.94
391.85,-4.81
395.77,-4.67
399.73,-4.52
403.72,-4.38
407.76,-4.23
411.84,-4.08
415.96,-3.94
420.12,-3.79
424.32,-3.64
428.56,-3.50
432.85,-3.36
437.18,-3.22
441.55,-3.09
445.96,-2.96
450.42,-2.85
454.93,-2.74
459.48,-2.64
464.07,-2.54
468.71,-2.46
473.40,-2.39
478.13,-2.32
482.91,-2.27
487.74,-2.23
492.62,-2.19
497.55,-2.17
502.52,-2.16
507.55,-2.15
512.62,-2.15
517.75,-2.16
522.93,-2.18
528.16,-2.20
533.44,-2.23
538.77,-2.25
544.16,-2.29
549.60,-2.32
555.10,-2.35
560.65,-2.39
566.25,-2.42
571.92,-2.45
577.64,-2.48
583.41,-2.50
589.25,-2.52
595.14,-2.54
601.09,-2.56
607.10,-2.57
613.17,-2.57
619.30,-2.57
625.50,-2.57
631.75,-2.56
638.07,-2.55
644.45,-2.53
650.89,-2.50
657.40,-2.47
663.98,-2.44
670.62,-2.40
677.32,-2.36
684.10,-2.31
690.94,-2.25
697.85,-2.20
704.83,-2.13
711.87,-2.07
718.99,-2.00
726.18,-1.92
733.44,-1.85
740.78,-1.76
748.19,-1.68
755.67,-1.59
763.23,-1.50
770.86,-1.41
778.57,-1.31
786.35,-1.22
794.22,-1.12
802.16,-1.02
810.18,-0.92
818.28,-0.82
826.46,-0.72
834.73,-0.63
843.08,-0.53
851.51,-0.44
860.02,-0.35
868.62,-0.26
877.31,-0.18
886.08,-0.10
894.94,-0.03
903.89,0.04
912.93,0.10
922.06,0.15
931.28,0.19
940.59,0.22
950.00,0.23
959.50,0.23
969.09,0.21
978.78,0.16
988.57,0.11
998.46,0.02
1008.44,-0.10
1018.53,-0.23
1028.71,-0.39
1039.00,-0.57
1049.39,-0.75
1059.88,-0.93
1070.48,-1.08
1081.19,-1.21
1092.00,-1.31
1102.92,-1.36
1113.95,-1.38
1125.09,-1.36
1136.34,-1.30
1147.70,-1.22
1159.18,-1.11
1170.77,-0.99
1182.48,-0.84
1194.30,-0.69
1206.25,-0.52
1218.31,-0.34
1230.49,-0.14
1242.80,0.05
1255.22,0.25
1267.78,0.45
1280.45,0.64
1293.26,0.82
1306.19,0.99
1319.25,1.16
1332.45,1.30
1345.77,1.43
1359.23,1.55
1372.82,1.65
1386.55,1.73
1400.41,1.81
1414.42,1.88
1428.56,1.94
1442.85,2.00
1457.28,2.06
1471.85,2.12
1486.57,2.18
1501.43,2.24
1516.45,2.30
1531.61,2.36
1546.93,2.43
1562.40,2.49
1578.02,2.55
1593.80,2.60
1609.74,2.66
1625.84,2.71
1642.10,2.76
1658.52,2.81
1675.10,2.87
1691.85,2.93
1708.77,2.99
1725.86,3.06
1743.12,3.14
1760.55,3.23
1778.15,3.33
1795.94,3.45
1813.90,3.58
1832.03,3.74
1850.36,3.92
1868.86,4.12
1887.55,4.32
1906.42,4.51
1925.49,4.69
1944.74,4.85
1964.19,4.97
1983.83,5.06
2003.67,5.13
2023.71,5.16
2043.94,5.19
2064.38,5.20
2085.03,5.22
2105.88,5.25
2126.94,5.28
2148.20,5.33
2169.69,5.38
2191.38,5.43
2213.30,5.48
2235.43,5.51
2257.78,5.54
2280.36,5.56
2303.17,5.57
2326.20,5.58
2349.46,5.59
2372.95,5.62
2396.68,5.65
2420.65,5.70
2444.86,5.77
2469.31,5.87
2494.00,5.97
2518.94,6.10
2544.13,6.24
2569.57,6.40
2595.27,6.56
2621.22,6.74
2647.43,6.91
2673.90,7.08
2700.64,7.22
2727.65,7.33
2754.93,7.41
2782.48,7.43
2810.30,7.40
2838.40,7.36
2866.79,7.28
2895.46,7.21
2924.41,7.15
2953.65,7.12
2983.19,7.16
3013.02,7.25
3043.15,7.39
3073.58,7.61
3104.32,7.87
3135.36,8.16
3166.72,8.51
3198.38,8.87
3230.37,9.24
3262.67,9.61
3295.30,9.96
3328.25,10.28
3361.53,10.53
3395.15,10.67
3429.10,10.72
3463.39,10.67
3498.03,10.48
3533.01,10.23
3568.34,9.93
3604.02,9.58
3640.06,9.27
3676.46,8.98
3713.22,8.78
3750.36,8.67
3787.86,8.61
3825.74,8.63
3864.00,8.69
3902.64,8.76
3941.66,8.83
3981.08,8.86
4020.89,8.86
4061.10,8.81
4101.71,8.69
4142.73,8.51
4184.15,8.28
4226.00,7.98
4268.26,7.65
4310.94,7.28
4354.05,6.89
4397.59,6.48
4441.56,6.07
4485.98,5.68
4530.84,5.31
4576.15,4.96
4621.91,4.65
4668.13,4.39
4714.81,4.18
4761.96,4.01
4809.58,3.91
4857.67,3.86
4906.25,3.84
4955.31,3.87
5004.87,3.92
5054.91,3.98
5105.46,4.05
5156.52,4.09
5208.08,4.11
5260.16,4.10
5312.77,4.04
5365.89,3.96
5419.55,3.85
5473.75,3.71
5528.49,3.57
5583.77,3.44
5639.61,3.35
5696.00,3.28
5752.96,3.25
5810.49,3.27
5868.60,3.30
5927.28,3.34
5986.56,3.38
6046.42,3.39
6106.89,3.36
6167.96,3.29
6229.64,3.15
6291.93,2.98
6354.85,2.79
6418.40,2.61
6482.58,2.47
6547.41,2.38
6612.88,2.43
6679.01,2.60
6745.80,2.86
6813.26,3.29
6881.39,3.82
6950.21,4.41
7019.71,5.05
7089.91,5.69
7160.81,6.29
7232.41,6.85
7304.74,7.29
7377.79,7.64
7451.56,7.91
7526.08,8.02
7601.34,8.05
7677.35,7.99
7754.13,7.82
7831.67,7.59
7909.98,7.34
7989.08,7.06
8068.98,6.81
8149.67,6.61
8231.16,6.49
8313.47,6.50
8396.61,6.59
8480.57,6.77
8565.38,7.06
8651.03,7.37
8737.54,7.69
8824.92,7.96
8913.17,8.14
9002.30,8.23
9092.32,8.13
9183.25,7.90
9275.08,7.56
9367.83,7.07
9461.51,6.46
9556.12,5.78
9651.68,5.00
9748.20,4.14
9845.68,3.21
9944.14,2.22
10043.58,1.14
10144.02,0.02
10245.46,-1.15
10347.91,-2.29
10451.39,-3.32
10555.91,-4.24
10661.46,-4.94
10768.08,-5.36
10875.76,-5.57
10984.52,-5.48
11094.36,-5.14
11205.31,-4.62
11317.36,-3.92
11430.53,-3.08
11544.84,-2.24
11660.29,-1.44
11776.89,-0.76
11894.66,-0.15
12013.60,0.40
12133.74,0.86
12255.08,1.32
12377.63,1.79
12501.41,2.28
12626.42,2.71
12752.68,3.09
12880.21,3.37
13009.01,3.48
13139.10,3.46
13270.49,3.26
13403.20,2.83
13537.23,2.30
13672.60,1.68
13809.33,0.96
13947.42,0.25
14086.90,-0.44
14227.77,-1.10
14370.04,-1.79
14513.74,-2.52
14658.88,-3.32
14805.47,-4.21
14953.52,-5.18
15103.06,-6.24
15254.09,-7.42
15406.63,-8.70
15560.70,-10.06
15716.30,-11.59
15873.47,-13.07
16032.20,-14.48
16192.52,-15.65
16354.45,-16.58
16517.99,-17.28
16683.17,-17.59
16850.01,-17.56
17018.51,-17.31
17188.69,-16.75
17360.58,-15.95
17534.18,-15.04
17709.53,-14.02
17886.62,-13.01
18065.49,-12.03
18246.14,-11.09
18428.60,-10.37
18612.89,-9.85
18799.02,-9.53
18987.01,-9.60
19176.88,-9.89
19368.65,-10.34
19562.33,-10.92
19757.96,-11.48
19955.54,-12.00
