frequency,raw
20.00,5.82
20.20,5.78
20.40,5.76
20.61,5.73
20.81,5.71
21.02,5.70
21.23,5.69
21.44,5.69
21.66,5.69
21.87,5.69
22.09,5.70
22.31,5.71
22.54,5.73
22.76,5.74
22.99,5.77
23.22,5.79
23.45,5.82
23.69,5.84
23.92,5.88
24.16,5.91
24.40,5.94
24.65,5.98
24.89,6.01
25.14,6.05
25.39,6.09
25.65,6.12
25.91,6.16
26.16,6.20
26.43,6.24
26.69,6.28
26.96,6.32
27.23,6.36
27.50,6.39
27.77,6.43
28.05,6.46
28.33,6.49
28.62,6.53
28.90,6.56
29.19,6.59
29.48,6.62
29.78,6.65
30.08,6.68
30.38,6.71
30.68,6.73
30.99,6.76
31.30,6.78
31.61,6.80
31.93,6.83
32.24,6.85
32.57,6.86
32.89,6.88
33.22,6.90
33.55,6.91
33.89,6.92
34.23,6.93
34.57,6.94
34.92,6.95
35.27,6.95
35.62,6.96
35.97,6.96
36.33,6.96
36.70,6.96
37.06,6.95
37.43,6.95
37.81,6.94
38.19,6.93
38.57,6.92
38.95,6.90
39.34,6.89
39.74,6.87
40.14,6.85
40.54,6.83
40.94,6.81
41.35,6.79
41.76,6.76
42.18,6.73
42.60,6.71
43.03,6.68
43.46,6.64
43.90,6.61
44.33,6.57
44.78,6.54
45.23,6.50
45.68,6.46
46.13,6.42
46.60,6.38
47.06,6.34
47.53,6.30
48.01,6.25
48.49,6.21
48.97,6.16
49.46,6.11
49.96,6.06
50.46,6.01
50.96,5.96
51.47,5.90
51.99,5.85
52.51,5.79
53.03,5.73
53.56,5.67
54.10,5.61
54.64,5.54
55.18,5.48
55.74,5.42
56.29,5.35
56.86,5.29
57.42,5.22
58.00,5.16
58.58,5.09
59.16,5.02
59.76,4.96
60.35,4.89
60.96,4.82
61.57,4.75
62.18,4.67
62.80,4.60
63.43,4.53
64.07,4.45
64.71,4.38
65.35,4.30
66.01,4.22
66.67,4.14
67.33,4.06
68.01,3.98
68.69,3.90
69.37,3.81
70.07,3.73
70.77,3.65
71.48,3.57
72.19,3.49
72.91,3.40
73.64,3.32
74.38,3.24
75.12,3.16
75.87,3.08
76.63,3.00
77.40,2.92
78.17,2.84
78.95,2.76
79.74,2.68
80.54,2.60
81.35,2.52
82.16,2.44
82.98,2.36
83.81,2.28
84.65,2.21
85.50,2.13
86.35,2.06
87.22,1.98
88.09,1.91
88.97,1.84
89.86,1.77
90.76,1.70
91.66,1.63
92.58,1.57
93.51,1.50
94.44,1.44
95.39,1.38
96.34,1.32
97.30,1.27
98.28,1.21
99.26,1.15
100.25,1.10
101.25,1.04
102.27,0.99
103.29,0.94
104.32,0.89
105.37,0.84
106.42,0.80
107.48,0.75
108.56,0.70
109.64,0.65
110.74,0.61
111.85,0.57
112.97,0.53
114.10,0.50
115.24,0.46
116.39,0.43
117.55,0.40
118.73,0.37
119.92,0.34
121.12,0.31
122.33,0.29
123.55,0.26
124.79,0.24
126.03,0.22
127.29,0.20
128.57,0.19
129.85,0.17
131.15,0.16
132.46,0.15
133.79,0.14
135.12,0.13
136.48,0.13
137.84,0.12
139.22,0.12
140.61,0.12
142.02,0.12
143.44,0.12
144.87,0.13
146.32,0.14
147.78,0.14
149.26,0.15
150.75,0.16
152.26,0.16
153.78,0.17
155.32,0.18
156.88,0.19
158.44,0.20
160.03,0.21
161.63,0.23
163.24,0.24
164.88,0.26
166.53,0.28
168.19,0.31
169.87,0.33
171.57,0.36
173.29,0.39
175.02,0.42
176.77,0.45
178.54,0.48
180.32,0.51
182.13,0.54
183.95,0.57
185.79,0.60
187.65,0.64
189.52,0.67
191.42,0.71
193.33,0.75
195.27,0.79
197.22,0.83
199.19,0.87
201.18,0.91
203.19,0.95
205.23,0.99
207.28,1.02
209.35,1.06
211.44,1.09
213.56,1.13
215.69,1.16
217.85,1.20
220.03,1.23
222.23,1.27
224.45,1.30
226.70,1.33
228.96,1.35
231.25,1.38
233.57,1.41
235.90,1.43
238.26,1.46
240.64,1.49
243.05,1.51
245.48,1.54
247.93,1.56
250.41,1.59
252.92,1.61
255.45,1.64
258.00,1.66
260.58,1.68
263.19,1.70
265.82,1.72
268.48,1.74
271.16,1.75
273.87,1.76
276.61,1.77
279.38,1.78
282.17,1.79
284.99,1.80
287.84,1.80
290.72,1.80
293.63,1.80
296.57,1.80
299.53,1.80
302.53,1.79
305.55,1.78
308.61,1.77
311.69,1.76
314.81,1.75
317.96,1.73
321.14,1.72
324.35,1.70
327.59,1.68
330.87,1.66
334.18,1.63
337.52,1.61
340.90,1.58
344.30,1.56
347.75,1.53
351.23,1.50
354.74,1.47
358.28,1.43
361.87,1.40
365.49,1.37
369.14,1.34
372.83,1.30
376.56,1.27
380.33,1.23
384.13,1.20
387.97,1.16
391.85,1.12
395.77,1.08
399.73,1.04
403.72,1.00
407.76,0.96
411.84,0.92
415.96,0.88
420.12,0.83
424.32,0.79
428.56,0.75
432.85,0.70
437.18,0.66
441.55,0.61
445.96,0.57
450.42,0.53
454.93,0.48
459.48,0.44
464.07,0.39
468.71,0.35
473.40,0.30
478.13,0.26
482.91,0.21
487.74,0.16
492.62,0.12
497.55,0.07
502.52,0.02
507.55,-0.03
512.62,-0.08
517.75,-0.13
522.93,-0.17
528.16,-0.22
533.44,-0.27
538.77,-0.32
544.16,-0.37
549.60,-0.42
555.10,-0.47
560.65,-0.52
566.25,-0.57
571.92,-0.62
577.64,-0.67
583.41,-0.72
589.25,-0.77
595.14,-0.82
601.09,-0.87
607.10,-0.93
613.17,-0.98
619.30,-1.03
625.50,-1.08
631.75,-1.13
638.07,-1.19
644.45,-1.24
650.89,-1.29
657.40,-1.34
663.98,-1.39
670.62,-1.44
677.32,-1.49
684.10,-1.54
690.94,-1.59
697.85,-1.63
704.83,-1.68
711.87,-1.72
718.99,-1.76
726.18,-1.80
733.44,-1.84
740.78,-1.88
748.19,-1.91
755.67,-1.94
763.23,-1.96
770.86,-1.98
778.57,-1.99
786.35,-1.99
794.22,-1.99
802.16,-1.98
810.18,-1.96
818.28,-1.93
826.46,-1.89
834.73,-1.85
843.08,-1.80
851.51,-1.73
860.02,-1.67
868.62,-1.59
877.31,-1.51
886.08,-1.42
894.94,-1.33
903.89,-1.23
912.93,-1.12
922.06,-1.01
931.28,-0.90
940.59,-0.78
950.00,-0.66
959.50,-0.54
969.09,-0.41
978.78,-0.28
988.57,-0.15
998.46,-0.02
1008.44,0.11
1018.53,0.24
1028.71,0.37
1039.00,0.50
1049.39,0.63
1059.88,0.75
1070.48,0.88
1081.19,1.00
1092.00,1.11
1102.92,1.23
1113.95,1.34
1125.09,1.46
1136.34,1.56
1147.70,1.67
1159.18,1.77
1170.77,1.86
1182.48,1.95
1194.30,2.03
1206.25,2.11
1218.31,2.19
1230.49,2.26
1242.80,2.33
1255.22,2.40
1267.78,2.46
1280.45,2.52
1293.26,2.58
1306.19,2.64
1319.25,2.70
1332.45,2.75
1345.77,2.81
1359.23,2.86
1372.82,2.92
1386.55,2.97
1400.41,3.02
1414.42,3.07
1428.56,3.12
1442.85,3.16
1457.28,3.21
1471.85,3.25
1486.57,3.29
1501.43,3.34
1516.45,3.38
1531.61,3.41
1546.93,3.45
1562.40,3.49
1578.02,3.52
1593.80,3.56
1609.74,3.59
1625.84,3.62
1642.10,3.65
1658.52,3.67
1675.10,3.69
1691.85,3.71
1708.77,3.73
1725.86,3.74
1743.12,3.74
1760.55,3.74
1778.15,3.73
1795.94,3.70
1813.90,3.67
1832.03,3.63
1850.36,3.57
1868.86,3.50
1887.55,3.42
1906.42,3.32
1925.49,3.20
1944.74,3.08
1964.19,2.93
1983.83,2.78
2003.67,2.62
2023.71,2.45
2043.94,2.28
2064.38,2.12
2085.03,1.97
2105.88,1.84
2126.94,1.72
2148.20,1.63
2169.69,1.57
2191.38,1.54
2213.30,1.54
2235.43,1.58
2257.78,1.64
2280.36,1.72
2303.17,1.84
2326.20,1.96
2349.46,2.10
2372.95,2.25
2396.68,2.40
2420.65,2.56
2444.86,2.72
2469.31,2.87
2494.00,3.03
2518.94,3.18
2544.13,3.33
2569.57,3.48
2595.27,3.63
2621.22,3.77
2647.43,3.91
2673.90,4.05
2700.64,4.18
2727.65,4.30
2754.93,4.42
2782.48,4.53
2810.30,4.63
2838.40,4.73
2866.79,4.82
2895.46,4.89
2924.41,4.96
2953.65,5.02
2983.19,5.06
3013.02,5.09
3043.15,5.12
3073.58,5.12
3104.32,5.12
3135.36,5.11
3166.72,5.07
3198.38,5.03
3230.37,4.98
3262.67,4.90
3295.30,4.81
3328.25,4.71
3361.53,4.59
3395.15,4.46
3429.10,4.32
3463.39,4.16
3498.03,4.00
3533.01,3.84
3568.34,3.67
3604.02,3.49
3640.06,3.32
3676.46,3.15
3713.22,2.98
3750.36,2.82
3787.86,2.67
3825.74,2.52
3864.00,2.38
3902.64,2.25
3941.66,2.14
3981.08,2.03
4020.89,1.94
4061.10,1.85
4101.71,1.79
4142.73,1.73
4184.15,1.68
4226.00,1.65
4268.26,1.63
4310.94,1.61
4354.05,1.62
4397.59,1.63
4441.56,1.65
4485.98,1.68
4530.84,1.72
4576.15,1.76
4621.91,1.82
4668.13,1.88
4714.81,1.95
4761.96,2.03
4809.58,2.11
4857.67,2.20
4906.25,2.29
4955.31,2.40
5004.87,2.51
5054.91,2.64
5105.46,2.77
5156.52,2.92
5208.08,3.07
5260.16,3.23
5312.77,3.40
5365.89,3.58
5419.55,3.77
5473.75,3.98
5528.49,4.19
5583.77,4.42
5639.61,4.66
5696.00,4.91
5752.96,5.18
5810.49,5.46
5868.60,5.76
5927.28,6.08
5986.56,6.41
6046.42,6.77
6106.89,7.14
6167.96,7.54
6229.64,7.96
6291.93,8.40
6354.85,8.86
6418.40,9.35
6482.58,9.85
6547.41,10.36
6612.88,10.88
6679.01,11.39
6745.80,11.88
6813.26,12.33
6881.39,12.71
6950.21,13.03
7019.71,13.25
7089.91,13.34
7160.81,13.34
7232.41,13.24
7304.74,13.00
7377.79,12.69
7451.56,12.32
7526.08,11.87
7601.34,11.40
7677.35,10.92
7754.13,10.43
7831.67,9.95
7909.98,9.49
7989.08,9.05
8068.98,8.65
8149.67,8.27
8231.16,7.92
8313.47,7.62
8396.61,7.34
8480.57,7.10
8565.38,6.91
8651.03,6.75
8737.54,6.62
8824.92,6.55
8913.17,6.51
9002.30,6.49
9092.32,6.53
9183.25,6.61
9275.08,6.72
9367.83,6.89
9461.51,7.11
9556.12,7.35
9651.68,7.64
9748.20,7.96
9845.68,8.29
9944.14,8.62
10043.58,8.90
10144.02,9.13
10245.46,9.30
10347.91,9.30
10451.39,9.16
10555.91,8.90
10661.46,8.43
10768.08,7.81
10875.76,7.09
10984.52,6.24
11094.36,5.33
11205.31,4.38
11317.36,3.42
11430.53,2.47
11544.84,1.55
11660.29,0.65
11776.89,-0.19
11894.66,-0.99
12013.60,-1.76
12133.74,-2.48
12255.08,-3.16
12377.63,-3.80
12501.41,-4.40
12626.42,-4.96
12752.68,-5.48
12880.21,-5.97
13009.01,-6.42
13139.10,-6.84
13270.49,-7.23
13403.20,-7.59
13537.23,-7.92
13672.60,-8.22
13809.33,-8.49
13947.42,-8.74
14086.90,-8.96
14227.77,-9.14
14370.04,-9.30
14513.74,-9.42
14658.88,-9.50
14805.47,-9.54
14953.52,-9.55
15103.06,-9.51
15254.09,-9.43
15406.63,-9.32
15560.70,-9.17
15716.30,-8.98
15873.47,-8.77
16032.20,-8.53
16192.52,-8.24
16354.45,-7.91
16517.99,-7.54
16683.17,-7.11
16850.01,-6.60
17018.51,-6.04
17188.69,-5.42
17360.58,-4.75
17534.18,-4.10
17709.53,-3.48
17886.62,-3.10
18065.49,-2.93
18246.14,-2.99
18428.60,-3.60
18612.89,-4.47
18799.02,-5.59
18987.01,-7.00
19176.88,-8.45
19368.65,-9.91
19562.33,-11.29
19757.96,-12.54
19955.54,-13.71
