frequency,raw
20.00,8.92
20.20,8.93
20.40,8.95
20.61,8.96
20.81,8.98
21.02,8.99
21.23,9.01
21.44,9.02
21.66,9.04
21.87,9.05
22.09,9.06
22.31,9.08
22.54,9.09
22.76,9.10
22.99,9.12
23.22,9.13
23.45,9.14
23.69,9.16
23.92,9.17
24.16,9.18
24.40,9.19
24.65,9.20
24.89,9.21
25.14,9.22
25.39,9.23
25.65,9.24
25.91,9.26
26.16,9.27
26.43,9.28
26.69,9.29
26.96,9.29
27.23,9.30
27.50,9.31
27.77,9.32
28.05,9.33
28.33,9.34
28.62,9.35
28.90,9.35
29.19,9.36
29.48,9.37
29.78,9.37
30.08,9.38
30.38,9.39
30.68,9.39
30.99,9.40
31.30,9.40
31.61,9.41
31.93,9.41
32.24,9.42
32.57,9.42
32.89,9.42
33.22,9.42
33.55,9.43
33.89,9.43
34.23,9.43
34.57,9.43
34.92,9.43
35.27,9.43
35.62,9.43
35.97,9.43
36.33,9.43
36.70,9.42
37.06,9.42
37.43,9.41
37.81,9.41
38.19,9.40
38.57,9.39
38.95,9.38
39.34,9.37
39.74,9.36
40.14,9.35
40.54,9.34
40.94,9.33
41.35,9.31
41.76,9.30
42.18,9.28
42.60,9.27
43.03,9.25
43.46,9.23
43.90,9.21
44.33,9.18
44.78,9.16
45.23,9.13
45.68,9.11
46.13,9.08
46.60,9.05
47.06,9.02
47.53,8.99
48.01,8.96
48.49,8.93
48.97,8.89
49.46,8.86
49.96,8.82
50.46,8.78
50.96,8.75
51.47,8.71
51.99,8.67
52.51,8.62
53.03,8.58
53.56,8.54
54.10,8.49
54.64,8.45
55.18,8.40
55.74,8.36
56.29,8.31
56.86,8.26
57.42,8.22
58.00,8.17
58.58,8.12
59.16,8.07
59.76,8.02
60.35,7.96
60.96,7.91
61.57,7.85
62.18,7.79
62.80,7.74
63.43,7.68
64.07,7.62
64.71,7.56
65.35,7.51
66.01,7.45
66.67,7.39
67.33,7.33
68.01,7.27
68.69,7.21
69.37,7.15
70.07,7.09
70.77,7.03
71.48,6.97
72.19,6.90
72.91,6.84
73.64,6.78
74.38,6.71
75.12,6.65
75.87,6.59
76.63,6.52
77.40,6.46
78.17,6.39
78.95,6.32
79.74,6.26
80.54,6.19
81.35,6.12
82.16,6.06
82.98,5.99
83.81,5.92
84.65,5.85
85.50,5.78
86.35,5.71
87.22,5.65
88.09,5.58
88.97,5.51
89.86,5.44
90.76,5.37
91.66,5.30
92.58,5.22
93.51,5.15
94.44,5.08
95.39,5.01
96.34,4.93
97.30,4.86
98.28,4.78
99.26,4.71
100.25,4.63
101.25,4.55
102.27,4.48
103.29,4.40
104.32,4.32
105.37,4.24
106.42,4.16
107.48,4.08
108.56,4.00
109.64,3.91
110.74,3.83
111.85,3.75
112.97,3.66
114.10,3.58
115.24,3.49
116.39,3.41
117.55,3.33
118.73,3.24
119.92,3.16
121.12,3.08
122.33,3.00
123.55,2.92
124.79,2.84
126.03,2.76
127.29,2.68
128.57,2.60
129.85,2.52
131.15,2.44
132.46,2.37
133.79,2.29
135.12,2.21
136.48,2.13
137.84,2.05
139.22,1.97
140.61,1.89
142.02,1.80
143.44,1.72
144.87,1.64
146.32,1.56
147.78,1.47
149.26,1.39
150.75,1.31
152.26,1.23
153.78,1.15
155.32,1.07
156.88,0.99
158.44,0.91
160.03,0.83
161.63,0.75
163.24,0.68
164.88,0.60
166.53,0.52
168.19,0.44
169.87,0.36
171.57,0.27
173.29,0.19
175.02,0.11
176.77,0.03
178.54,-0.05
180.32,-0.13
182.13,-0.21
183.95,-0.29
185.79,-0.37
187.65,-0.45
189.52,-0.53
191.42,-0.61
193.33,-0.69
195.27,-0.77
197.22,-0.85
199.19,-0.93
201.18,-1.00
203.19,-1.08
205.23,-1.16
207.28,-1.23
209.35,-1.30
211.44,-1.37
213.56,-1.44
215.69,-1.51
217.85,-1.58
220.03,-1.65
222.23,-1.72
224.45,-1.78
226.70,-1.84
228.96,-1.91
231.25,-1.97
233.57,-2.03
235.90,-2.09
238.26,-2.15
240.64,-2.21
243.05,-2.26
245.48,-2.32
247.93,-2.38
250.41,-2.43
252.92,-2.48
255.45,-2.54
258.00,-2.59
260.58,-2.64
263.19,-2.69
265.82,-2.74
268.48,-2.79
271.16,-2.84
273.87,-2.88
276.61,-2.93
279.38,-2.98
282.17,-3.02
284.99,-3.07
287.84,-3.11
290.72,-3.16
293.63,-3.20
296.57,-3.25
299.53,-3.29
302.53,-3.33
305.55,-3.37
308.61,-3.42
311.69,-3.46
314.81,-3.50
317.96,-3.55
321.14,-3.59
324.35,-3.63
327.59,-3.67
330.87,-3.72
334.18,-3.76
337.52,-3.80
340.90,-3.84
344.30,-3.89
347.75,-3.93
351.23,-3.97
354.74,-4.02
358.28,-4.06
361.87,-4.11
365.49,-4.15
369.14,-4.19
372.83,-4.24
376.56,-4.28
380.33,-4.32
384.13,-4.37
387.97,-4.41
391.85,-4.45
395.77,-4.49
399.73,-4.53
403.72,-4.57
407.76,-4.61
411.84,-4.65
415.96,-4.69
420.12,-4.74
424.32,-4.78
428.56,-4.83
432.85,-4.88
437.18,-4.92
441.55,-4.97
445.96,-5.01
450.42,-5.05
454.93,-5.08
459.48,-5.12
464.07,-5.14
468.71,-5.14
473.40,-5.14
478.13,-5.12
482.91,-5.09
487.74,-5.06
492.62,-5.02
497.55,-4.98
502.52,-4.94
507.55,-4.91
512.62,-4.87
517.75,-4.83
522.93,-4.80
528.16,-4.76
533.44,-4.72
538.77,-4.68
544.16,-4.64
549.60,-4.60
555.10,-4.56
560.65,-4.51
566.25,-4.46
571.92,-4.40
577.64,-4.35
583.41,-4.29
589.25,-4.23
595.14,-4.16
601.09,-4.10
607.10,-4.03
613.17,-3.96
619.30,-3.88
625.50,-3.81
631.75,-3.73
638.07,-3.65
644.45,-3.57
650.89,-3.48
657.40,-3.40
663.98,-3.32
670.62,-3.23
677.32,-3.15
684.10,-3.07
690.94,-2.99
697.85,-2.91
704.83,-2.83
711.87,-2.76
718.99,-2.69
726.18,-2.62
733.44,-2.55
740.78,-2.49
748.19,-2.42
755.67,-2.37
763.23,-2.31
770.86,-2.25
778.57,-2.20
786.35,-2.15
794.22,-2.09
802.16,-2.04
810.18,-1.98
818.28,-1.93
826.46,-1.87
834.73,-1.80
843.08,-1.74
851.51,-1.67
860.02,-1.59
868.62,-1.51
877.31,-1.42
886.08,-1.33
894.94,-1.23
903.89,-1.13
912.93,-1.03
922.06,-0.92
931.28,-0.81
940.59,-0.70
950.00,-0.59
959.50,-0.48
969.09,-0.36
978.78,-0.25
988.57,-0.13
998.46,-0.02
1008.44,0.10
1018.53,0.21
1028.71,0.32
1039.00,0.43
1049.39,0.54
1059.88,0.65
1070.48,0.76
1081.19,0.88
1092.00,0.99
1102.92,1.10
1113.95,1.21
1125.09,1.32
1136.34,1.43
1147.70,1.54
1159.18,1.66
1170.77,1.77
1182.48,1.88
1194.30,1.99
1206.25,2.10
1218.31,2.20
1230.49,2.31
1242.80,2.41
1255.22,2.51
1267.78,2.60
1280.45,2.70
1293.26,2.79
1306.19,2.87
1319.25,2.96
1332.45,3.04
1345.77,3.12
1359.23,3.19
1372.82,3.27
1386.55,3.34
1400.41,3.41
1414.42,3.48
1428.56,3.54
1442.85,3.61
1457.28,3.67
1471.85,3.73
1486.57,3.79
1501.43,3.85
1516.45,3.90
1531.61,3.95
1546.93,4.01
1562.40,4.06
1578.02,4.10
1593.80,4.15
1609.74,4.19
1625.84,4.23
1642.10,4.27
1658.52,4.30
1675.10,4.34
1691.85,4.37
1708.77,4.40
1725.86,4.42
1743.12,4.45
1760.55,4.48
1778.15,4.51
1795.94,4.54
1813.90,4.58
1832.03,4.61
1850.36,4.66
1868.86,4.71
1887.55,4.77
1906.42,4.84
1925.49,4.92
1944.74,5.01
1964.19,5.11
1983.83,5.22
2003.67,5.34
2023.71,5.47
2043.94,5.61
2064.38,5.76
2085.03,5.90
2105.88,6.05
2126.94,6.20
2148.20,6.34
2169.69,6.47
2191.38,6.60
2213.30,6.72
2235.43,6.83
2257.78,6.93
2280.36,7.02
2303.17,7.09
2326.20,7.16
2349.46,7.22
2372.95,7.28
2396.68,7.32
2420.65,7.36
2444.86,7.38
2469.31,7.40
2494.00,7.41
2518.94,7.42
2544.13,7.40
2569.57,7.38
2595.27,7.35
2621.22,7.30
2647.43,7.24
2673.90,7.16
2700.64,7.07
2727.65,6.95
2754.93,6.83
2782.48,6.69
2810.30,6.53
2838.40,6.37
2866.79,6.19
2895.46,6.01
2924.41,5.82
2953.65,5.63
2983.19,5.44
3013.02,5.24
3043.15,5.05
3073.58,4.85
3104.32,4.66
3135.36,4.47
3166.72,4.28
3198.38,4.10
3230.37,3.93
3262.67,3.78
3295.30,3.63
3328.25,3.49
3361.53,3.36
3395.15,3.23
3429.10,3.10
3463.39,2.98
3498.03,2.87
3533.01,2.76
3568.34,2.65
3604.02,2.55
3640.06,2.46
3676.46,2.37
3713.22,2.29
3750.36,2.21
3787.86,2.14
3825.74,2.08
3864.00,2.02
3902.64,1.98
3941.66,1.94
3981.08,1.91
4020.89,1.89
4061.10,1.88
4101.71,1.88
4142.73,1.89
4184.15,1.90
4226.00,1.94
4268.26,1.99
4310.94,2.04
4354.05,2.12
4397.59,2.20
4441.56,2.30
4485.98,2.42
4530.84,2.56
4576.15,2.70
4621.91,2.86
4668.13,3.04
4714.81,3.23
4761.96,3.42
4809.58,3.62
4857.67,3.82
4906.25,4.01
4955.31,4.18
5004.87,4.33
5054.91,4.45
5105.46,4.53
5156.52,4.55
5208.08,4.53
5260.16,4.44
5312.77,4.27
5365.89,4.05
5419.55,3.78
5473.75,3.44
5528.49,3.07
5583.77,2.67
5639.61,2.25
5696.00,1.82
5752.96,1.40
5810.49,0.98
5868.60,0.59
5927.28,0.21
5986.56,-0.14
6046.42,-0.46
6106.89,-0.75
6167.96,-1.01
6229.64,-1.24
6291.93,-1.43
6354.85,-1.60
6418.40,-1.72
6482.58,-1.82
6547.41,-1.89
6612.88,-1.92
6679.01,-1.93
6745.80,-1.91
6813.26,-1.87
6881.39,-1.82
6950.21,-1.76
7019.71,-1.68
7089.91,-1.59
7160.81,-1.48
7232.41,-1.33
7304.74,-1.12
7377.79,-0.87
7451.56,-0.57
7526.08,-0.22
7601.34,0.14
7677.35,0.51
7754.13,0.90
7831.67,1.30
7909.98,1.69
7989.08,2.04
8068.98,2.31
8149.67,2.50
8231.16,2.57
8313.47,2.50
8396.61,2.35
8480.57,2.12
8565.38,1.82
8651.03,1.49
8737.54,1.15
8824.92,0.78
8913.17,0.42
9002.30,0.04
9092.32,-0.35
9183.25,-0.75
9275.08,-1.16
9367.83,-1.58
9461.51,-1.99
9556.12,-2.39
9651.68,-2.79
9748.20,-3.15
9845.68,-3.49
9944.14,-3.80
10043.58,-4.05
10144.02,-4.25
10245.46,-4.41
10347.91,-4.47
10451.39,-4.46
10555.91,-4.37
10661.46,-4.17
10768.08,-3.88
10875.76,-3.52
10984.52,-3.12
11094.36,-2.79
11205.31,-2.59
11317.36,-2.61
11430.53,-3.14
11544.84,-4.00
11660.29,-5.20
11776.89,-6.81
11894.66,-8.44
12013.60,-10.04
12133.74,-11.30
12255.08,-12.16
12377.63,-12.67
12501.41,-12.65
12626.42,-12.26
12752.68,-11.68
12880.21,-10.94
13009.01,-10.28
13139.10,-9.74
13270.49,-9.38
13403.20,-9.37
13537.23,-9.57
13672.60,-9.99
13809.33,-10.73
13947.42,-11.58
14086.90,-12.53
14227.77,-13.52
14370.04,-14.48
14513.74,-15.41
14658.88,-16.26
14805.47,-17.05
14953.52,-17.79
15103.06,-18.45
15254.09,-19.00
15406.63,-19.45
15560.70,-19.81
15716.30,-19.99
15873.47,-20.07
16032.20,-20.06
16192.52,-19.88
16354.45,-19.60
16517.99,-19.22
16683.17,-18.70
16850.01,-18.07
17018.51,-17.37
17188.69,-16.60
17360.58,-15.82
17534.18,-15.11
17709.53,-14.49
17886.62,-14.19
18065.49,-14.15
18246.14,-14.36
18428.60,-15.08
18612.89,-16.03
18799.02,-17.21
18987.01,-18.64
19176.88,-20.15
19368.65,-21.70
19562.33,-23.24
19757.96,-24.75
19955.54,-26.25
