frequency,raw
20.00,2.28
20.20,2.43
20.40,2.57
20.61,2.71
20.81,2.86
21.02,3.00
21.23,3.13
21.44,3.27
21.66,3.40
21.87,3.54
22.09,3.68
22.31,3.81
22.54,3.94
22.76,4.07
22.99,4.20
23.22,4.32
23.45,4.45
23.69,4.57
23.92,4.69
24.16,4.81
24.40,4.92
24.65,5.03
24.89,5.15
25.14,5.26
25.39,5.37
25.65,5.48
25.91,5.58
26.16,5.69
26.43,5.79
26.69,5.89
26.96,5.99
27.23,6.09
27.50,6.18
27.77,6.27
28.05,6.37
28.33,6.45
28.62,6.54
28.90,6.62
29.19,6.71
29.48,6.79
29.78,6.87
30.08,6.95
30.38,7.03
30.68,7.10
30.99,7.17
31.30,7.25
31.61,7.32
31.93,7.39
32.24,7.46
32.57,7.53
32.89,7.59
33.22,7.65
33.55,7.71
33.89,7.77
34.23,7.83
34.57,7.88
34.92,7.93
35.27,7.99
35.62,8.04
35.97,8.08
36.33,8.12
36.70,8.17
37.06,8.21
37.43,8.25
37.81,8.30
38.19,8.33
38.57,8.37
38.95,8.40
39.34,8.43
39.74,8.46
40.14,8.49
40.54,8.51
40.94,8.54
41.35,8.57
41.76,8.59
42.18,8.62
42.60,8.63
43.03,8.67
43.46,8.69
43.90,8.71
44.33,8.73
44.78,8.74
45.23,8.76
45.68,8.78
46.13,8.79
46.60,8.80
47.06,8.81
47.53,8.81
48.01,8.81
48.49,8.81
48.97,8.82
49.46,8.81
49.96,8.81
50.46,8.80
50.96,8.80
51.47,8.79
51.99,8.79
52.51,8.78
53.03,8.76
53.56,8.75
54.10,8.75
54.64,8.73
55.18,8.73
55.74,8.72
56.29,8.71
56.86,8.71
57.42,8.70
58.00,8.70
58.58,8.70
59.16,8.68
59.76,8.68
60.35,8.67
60.96,8.67
61.57,8.66
62.18,8.64
62.80,8.63
63.43,8.61
64.07,8.59
64.71,8.57
65.35,8.54
66.01,8.52
66.67,8.50
67.33,8.46
68.01,8.44
68.69,8.42
69.37,8.39
70.07,8.36
70.77,8.34
71.48,8.32
72.19,8.29
72.91,8.28
73.64,8.25
74.38,8.23
75.12,8.22
75.87,8.20
76.63,8.18
77.40,8.16
78.17,8.14
78.95,8.11
79.74,8.09
80.54,8.06
81.35,8.04
82.16,8.01
82.98,7.97
83.81,7.95
84.65,7.92
85.50,7.88
86.35,7.85
87.22,7.81
88.09,7.78
88.97,7.74
89.86,7.71
90.76,7.67
91.66,7.63
92.58,7.59
93.51,7.56
94.44,7.52
95.39,7.47
96.34,7.43
97.30,7.39
98.28,7.35
99.26,7.30
100.25,7.27
101.25,7.23
102.27,7.19
103.29,7.15
104.32,7.12
105.37,7.08
106.42,7.04
107.48,7.00
108.56,6.96
109.64,6.91
110.74,6.87
111.85,6.84
112.97,6.80
114.10,6.75
115.24,6.70
116.39,6.66
117.55,6.62
118.73,6.57
119.92,6.52
121.12,6.48
122.33,6.44
123.55,6.40
124.79,6.36
126.03,6.31
127.29,6.28
128.57,6.24
129.85,6.20
131.15,6.16
132.46,6.11
133.79,6.07
135.12,6.03
136.48,5.99
137.84,5.96
139.22,5.92
140.61,5.88
142.02,5.85
143.44,5.81
144.87,5.77
146.32,5.74
147.78,5.71
149.26,5.67
150.75,5.63
152.26,5.60
153.78,5.56
155.32,5.53
156.88,5.49
158.44,5.45
160.03,5.41
161.63,5.36
163.24,5.31
164.88,5.27
166.53,5.22
168.19,5.17
169.87,5.12
171.57,5.07
173.29,5.03
175.02,4.98
176.77,4.94
178.54,4.89
180.32,4.85
182.13,4.80
183.95,4.75
185.79,4.72
187.65,4.67
189.52,4.62
191.42,4.59
193.33,4.55
195.27,4.51
197.22,4.47
199.19,4.43
201.18,4.40
203.19,4.37
205.23,4.34
207.28,4.31
209.35,4.27
211.44,4.25
213.56,4.22
215.69,4.18
217.85,4.15
220.03,4.11
222.23,4.07
224.45,4.03
226.70,3.98
228.96,3.95
231.25,3.91
233.57,3.86
235.90,3.82
238.26,3.77
240.64,3.73
243.05,3.70
245.48,3.66
247.93,3.62
250.41,3.59
252.92,3.55
255.45,3.52
258.00,3.48
260.58,3.45
263.19,3.41
265.82,3.37
268.48,3.32
271.16,3.28
273.87,3.23
276.61,3.18
279.38,3.13
282.17,3.08
284.99,3.03
287.84,2.97
290.72,2.93
293.63,2.88
296.57,2.82
299.53,2.77
302.53,2.71
305.55,2.66
308.61,2.60
311.69,2.55
314.81,2.50
317.96,2.45
321.14,2.40
324.35,2.35
327.59,2.30
330.87,2.26
334.18,2.22
337.52,2.18
340.90,2.14
344.30,2.10
347.75,2.06
351.23,2.03
354.74,2.00
358.28,1.96
361.87,1.93
365.49,1.89
369.14,1.86
372.83,1.83
376.56,1.79
380.33,1.76
384.13,1.73
387.97,1.70
391.85,1.66
395.77,1.63
399.73,1.59
403.72,1.55
407.76,1.51
411.84,1.47
415.96,1.43
420.12,1.37
424.32,1.32
428.56,1.28
432.85,1.23
437.18,1.17
441.55,1.12
445.96,1.06
450.42,1.01
454.93,0.95
459.48,0.90
464.07,0.85
468.71,0.80
473.40,0.75
478.13,0.70
482.91,0.65
487.74,0.60
492.62,0.55
497.55,0.51
502.52,0.46
507.55,0.40
512.62,0.36
517.75,0.32
522.93,0.26
528.16,0.23
533.44,0.18
538.77,0.13
544.16,0.09
549.60,0.04
555.10,0.01
560.65,-0.04
566.25,-0.08
571.92,-0.13
577.64,-0.17
583.41,-0.21
589.25,-0.25
595.14,-0.29
601.09,-0.33
607.10,-0.37
613.17,-0.41
619.30,-0.45
625.50,-0.48
631.75,-0.51
638.07,-0.54
644.45,-0.56
650.89,-0.59
657.40,-0.62
663.98,-0.64
670.62,-0.65
677.32,-0.68
684.10,-0.69
690.94,-0.70
697.85,-0.72
704.83,-0.73
711.87,-0.73
718.99,-0.75
726.18,-0.76
733.44,-0.77
740.78,-0.78
748.19,-0.79
755.67,-0.81
763.23,-0.82
770.86,-0.83
778.57,-0.84
786.35,-0.85
794.22,-0.85
802.16,-0.86
810.18,-0.87
818.28,-0.88
826.46,-0.88
834.73,-0.88
843.08,-0.88
851.51,-0.88
860.02,-0.86
868.62,-0.85
877.31,-0.84
886.08,-0.81
894.94,-0.79
903.89,-0.76
912.93,-0.72
922.06,-0.66
931.28,-0.61
940.59,-0.55
950.00,-0.48
959.50,-0.40
969.09,-0.32
978.78,-0.23
988.57,-0.13
998.46,-0.02
1008.44,0.09
1018.53,0.22
1028.71,0.35
1039.00,0.48
1049.39,0.62
1059.88,0.76
1070.48,0.91
1081.19,1.06
1092.00,1.20
1102.92,1.34
1113.95,1.49
1125.09,1.62
1136.34,1.77
1147.70,1.90
1159.18,2.02
1170.77,2.15
1182.48,2.28
1194.30,2.40
1206.25,2.51
1218.31,2.63
1230.49,2.73
1242.80,2.84
1255.22,2.94
1267.78,3.03
1280.45,3.13
1293.26,3.21
1306.19,3.29
1319.25,3.37
1332.45,3.44
1345.77,3.51
1359.23,3.58
1372.82,3.64
1386.55,3.69
1400.41,3.76
1414.42,3.81
1428.56,3.86
1442.85,3.91
1457.28,3.97
1471.85,4.02
1486.57,4.07
1501.43,4.13
1516.45,4.17
1531.61,4.23
1546.93,4.28
1562.40,4.34
1578.02,4.38
1593.80,4.44
1609.74,4.50
1625.84,4.56
1642.10,4.61
1658.52,4.68
1675.10,4.74
1691.85,4.81
1708.77,4.87
1725.86,4.94
1743.12,5.01
1760.55,5.08
1778.15,5.14
1795.94,5.21
1813.90,5.29
1832.03,5.35
1850.36,5.43
1868.86,5.51
1887.55,5.58
1906.42,5.66
1925.49,5.74
1944.74,5.82
1964.19,5.91
1983.83,5.99
2003.67,6.09
2023.71,6.18
2043.94,6.27
2064.38,6.35
2085.03,6.45
2105.88,6.54
2126.94,6.63
2148.20,6.72
2169.69,6.80
2191.38,6.89
2213.30,6.98
2235.43,7.07
2257.78,7.15
2280.36,7.23
2303.17,7.31
2326.20,7.39
2349.46,7.46
2372.95,7.53
2396.68,7.60
2420.65,7.67
2444.86,7.73
2469.31,7.79
2494.00,7.84
2518.94,7.88
2544.13,7.92
2569.57,7.97
2595.27,7.99
2621.22,8.01
2647.43,8.03
2673.90,8.05
2700.64,8.05
2727.65,8.04
2754.93,8.04
2782.48,8.03
2810.30,8.01
2838.40,7.98
2866.79,7.96
2895.46,7.92
2924.41,7.88
2953.65,7.83
2983.19,7.79
3013.02,7.73
3043.15,7.68
3073.58,7.62
3104.32,7.56
3135.36,7.49
3166.72,7.43
3198.38,7.35
3230.37,7.29
3262.67,7.21
3295.30,7.14
3328.25,7.07
3361.53,6.99
3395.15,6.92
3429.10,6.85
3463.39,6.79
3498.03,6.72
3533.01,6.66
3568.34,6.61
3604.02,6.55
3640.06,6.50
3676.46,6.45
3713.22,6.41
3750.36,6.37
3787.86,6.34
3825.74,6.30
3864.00,6.27
3902.64,6.24
3941.66,6.21
3981.08,6.19
4020.89,6.16
4061.10,6.14
4101.71,6.12
4142.73,6.11
4184.15,6.10
4226.00,6.09
4268.26,6.10
4310.94,6.11
4354.05,6.12
4397.59,6.14
4441.56,6.16
4485.98,6.19
4530.84,6.22
4576.15,6.25
4621.91,6.28
4668.13,6.32
4714.81,6.35
4761.96,6.37
4809.58,6.39
4857.67,6.40
4906.25,6.40
4955.31,6.39
5004.87,6.37
5054.91,6.35
5105.46,6.30
5156.52,6.25
5208.08,6.17
5260.16,6.08
5312.77,5.97
5365.89,5.85
5419.55,5.71
5473.75,5.55
5528.49,5.39
5583.77,5.21
5639.61,5.00
5696.00,4.80
5752.96,4.58
5810.49,4.35
5868.60,4.12
5927.28,3.88
5986.56,3.64
6046.42,3.40
6106.89,3.16
6167.96,2.92
6229.64,2.69
6291.93,2.45
6354.85,2.22
6418.40,2.01
6482.58,1.80
6547.41,1.61
6612.88,1.43
6679.01,1.27
6745.80,1.13
6813.26,1.01
6881.39,0.93
6950.21,0.89
7019.71,0.89
7089.91,0.96
7160.81,1.07
7232.41,1.24
7304.74,1.53
7377.79,1.88
7451.56,2.31
7526.08,2.87
7601.34,3.52
7677.35,4.25
7754.13,5.09
7831.67,5.96
7909.98,6.86
7989.08,7.74
8068.98,8.54
8149.67,9.25
8231.16,9.84
8313.47,10.21
8396.61,10.44
8480.57,10.51
8565.38,10.39
8651.03,10.18
8737.54,9.89
8824.92,9.52
8913.17,9.17
9002.30,8.81
9092.32,8.50
9183.25,8.22
9275.08,7.99
9367.83,7.81
9461.51,7.70
9556.12,7.62
9651.68,7.59
9748.20,7.61
9845.68,7.66
9944.14,7.75
10043.58,7.88
10144.02,8.03
10245.46,8.21
10347.91,8.39
10451.39,8.58
10555.91,8.74
10661.46,8.89
10768.08,9.00
10875.76,9.06
10984.52,9.05
11094.36,8.95
11205.31,8.80
11317.36,8.54
11430.53,8.20
11544.84,7.78
11660.29,7.31
11776.89,6.77
11894.66,6.21
12013.60,5.61
12133.74,5.00
12255.08,4.39
12377.63,3.78
12501.41,3.19
12626.42,2.63
12752.68,2.08
12880.21,1.55
13009.01,1.04
13139.10,0.56
13270.49,0.11
13403.20,-0.32
13537.23,-0.71
13672.60,-1.09
13809.33,-1.43
13947.42,-1.75
14086.90,-2.04
14227.77,-2.30
14370.04,-2.53
14513.74,-2.74
14658.88,-2.92
14805.47,-3.07
14953.52,-3.19
15103.06,-3.29
15254.09,-3.34
15406.63,-3.37
15560.70,-3.36
15716.30,-3.29
15873.47,-3.17
16032.20,-3.02
16192.52,-2.79
16354.45,-2.51
16517.99,-2.18
16683.17,-1.81
16850.01,-1.45
17018.51,-1.12
17188.69,-0.86
17360.58,-0.80
17534.18,-0.89
17709.53,-1.19
17886.62,-1.83
18065.49,-2.67
18246.14,-3.72
18428.60,-5.07
18612.89,-6.53
18799.02,-8.08
18987.01,-9.70
19176.88,-11.32
19368.65,-12.94
19562.33,-14.50
19757.96,-16.03
19955.54,-17.52
