frequency,raw
20.00,6.95
20.20,6.98
20.40,7.00
20.61,7.02
20.81,7.04
21.02,7.06
21.23,7.07
21.44,7.09
21.66,7.11
21.87,7.13
22.09,7.15
22.31,7.17
22.54,7.19
22.76,7.20
22.99,7.22
23.22,7.24
23.45,7.25
23.69,7.27
23.92,7.28
24.16,7.30
24.40,7.30
24.65,7.32
24.89,7.33
25.14,7.34
25.39,7.36
25.65,7.37
25.91,7.38
26.16,7.39
26.43,7.41
26.69,7.42
26.96,7.43
27.23,7.44
27.50,7.45
27.77,7.46
28.05,7.48
28.33,7.49
28.62,7.50
28.90,7.51
29.19,7.52
29.48,7.52
29.78,7.53
30.08,7.54
30.38,7.54
30.68,7.54
30.99,7.55
31.30,7.55
31.61,7.55
31.93,7.56
32.24,7.56
32.57,7.57
32.89,7.57
33.22,7.58
33.55,7.57
33.89,7.58
34.23,7.58
34.57,7.59
34.92,7.59
35.27,7.59
35.62,7.59
35.97,7.58
36.33,7.58
36.70,7.58
37.06,7.58
37.43,7.58
37.81,7.58
38.19,7.57
38.57,7.57
38.95,7.57
39.34,7.56
39.74,7.56
40.14,7.55
40.54,7.54
40.94,7.54
41.35,7.54
41.76,7.53
42.18,7.52
42.60,7.51
43.03,7.50
43.46,7.49
43.90,7.48
44.33,7.47
44.78,7.45
45.23,7.45
45.68,7.44
46.13,7.44
46.60,7.42
47.06,7.42
47.53,7.41
48.01,7.40
48.49,7.38
48.97,7.37
49.46,7.36
49.96,7.34
50.46,7.32
50.96,7.30
51.47,7.29
51.99,7.27
52.51,7.26
53.03,7.23
53.56,7.21
54.10,7.20
54.64,7.18
55.18,7.17
55.74,7.15
56.29,7.13
56.86,7.11
57.42,7.09
58.00,7.08
58.58,7.06
59.16,7.03
59.76,7.01
60.35,6.99
60.96,6.97
61.57,6.94
62.18,6.92
62.80,6.90
63.43,6.87
64.07,6.84
64.71,6.82
65.35,6.78
66.01,6.76
66.67,6.74
67.33,6.70
68.01,6.68
68.69,6.66
69.37,6.62
70.07,6.60
70.77,6.57
71.48,6.54
72.19,6.51
72.91,6.48
73.64,6.45
74.38,6.42
75.12,6.39
75.87,6.36
76.63,6.33
77.40,6.29
78.17,6.26
78.95,6.22
79.74,6.19
80.54,6.15
81.35,6.13
82.16,6.09
82.98,6.05
83.81,6.02
84.65,5.98
85.50,5.94
86.35,5.91
87.22,5.87
88.09,5.83
88.97,5.79
89.86,5.76
90.76,5.72
91.66,5.68
92.58,5.64
93.51,5.60
94.44,5.56
95.39,5.52
96.34,5.48
97.30,5.44
98.28,5.40
99.26,5.35
100.25,5.32
101.25,5.27
102.27,5.23
103.29,5.18
104.32,5.14
105.37,5.10
106.42,5.05
107.48,5.01
108.56,4.96
109.64,4.92
110.74,4.87
111.85,4.83
112.97,4.78
114.10,4.73
115.24,4.68
116.39,4.63
117.55,4.58
118.73,4.53
119.92,4.48
121.12,4.44
122.33,4.39
123.55,4.34
124.79,4.30
126.03,4.24
127.29,4.20
128.57,4.15
129.85,4.10
131.15,4.07
132.46,4.02
133.79,3.98
135.12,3.94
136.48,3.91
137.84,3.88
139.22,3.85
140.61,3.81
142.02,3.78
143.44,3.76
144.87,3.72
146.32,3.70
147.78,3.67
149.26,3.64
150.75,3.61
152.26,3.58
153.78,3.55
155.32,3.52
156.88,3.48
158.44,3.45
160.03,3.41
161.63,3.36
163.24,3.32
164.88,3.28
166.53,3.24
168.19,3.19
169.87,3.14
171.57,3.09
173.29,3.05
175.02,2.99
176.77,2.95
178.54,2.90
180.32,2.85
182.13,2.79
183.95,2.74
185.79,2.70
187.65,2.65
189.52,2.59
191.42,2.54
193.33,2.49
195.27,2.43
197.22,2.39
199.19,2.33
201.18,2.28
203.19,2.23
205.23,2.17
207.28,2.12
209.35,2.07
211.44,2.02
213.56,1.97
215.69,1.92
217.85,1.87
220.03,1.81
222.23,1.76
224.45,1.71
226.70,1.66
228.96,1.62
231.25,1.58
233.57,1.53
235.90,1.49
238.26,1.45
240.64,1.40
243.05,1.37
245.48,1.32
247.93,1.28
250.41,1.24
252.92,1.20
255.45,1.15
258.00,1.11
260.58,1.06
263.19,1.02
265.82,0.97
268.48,0.92
271.16,0.88
273.87,0.82
276.61,0.77
279.38,0.72
282.17,0.67
284.99,0.62
287.84,0.57
290.72,0.52
293.63,0.47
296.57,0.42
299.53,0.37
302.53,0.32
305.55,0.27
308.61,0.21
311.69,0.17
314.81,0.12
317.96,0.07
321.14,0.02
324.35,-0.03
327.59,-0.08
330.87,-0.13
334.18,-0.17
337.52,-0.22
340.90,-0.27
344.30,-0.32
347.75,-0.37
351.23,-0.41
354.74,-0.46
358.28,-0.51
361.87,-0.55
365.49,-0.60
369.14,-0.65
372.83,-0.69
376.56,-0.74
380.33,-0.79
384.13,-0.84
387.97,-0.88
391.85,-0.93
395.77,-0.98
399.73,-1.02
403.72,-1.07
407.76,-1.12
411.84,-1.16
415.96,-1.20
420.12,-1.26
424.32,-1.30
428.56,-1.34
432.85,-1.38
437.18,-1.43
441.55,-1.47
445.96,-1.52
450.42,-1.56
454.93,-1.60
459.48,-1.65
464.07,-1.69
468.71,-1.72
473.40,-1.76
478.13,-1.80
482.91,-1.82
487.74,-1.86
492.62,-1.89
497.55,-1.92
502.52,-1.95
507.55,-1.98
512.62,-2.00
517.75,-2.03
522.93,-2.06
528.16,-2.07
533.44,-2.10
538.77,-2.13
544.16,-2.15
549.60,-2.18
555.10,-2.20
560.65,-2.23
566.25,-2.26
571.92,-2.29
577.64,-2.32
583.41,-2.35
589.25,-2.38
595.14,-2.40
601.09,-2.43
607.10,-2.46
613.17,-2.49
619.30,-2.52
625.50,-2.54
631.75,-2.56
638.07,-2.58
644.45,-2.60
650.89,-2.62
657.40,-2.64
663.98,-2.65
670.62,-2.66
677.32,-2.68
684.10,-2.68
690.94,-2.69
697.85,-2.69
704.83,-2.69
711.87,-2.67
718.99,-2.67
726.18,-2.65
733.44,-2.63
740.78,-2.60
748.19,-2.56
755.67,-2.53
763.23,-2.49
770.86,-2.43
778.57,-2.37
786.35,-2.31
794.22,-2.24
802.16,-2.18
810.18,-2.11
818.28,-2.03
826.46,-1.95
834.73,-1.86
843.08,-1.78
851.51,-1.69
860.02,-1.59
868.62,-1.50
877.31,-1.41
886.08,-1.31
894.94,-1.22
903.89,-1.12
912.93,-1.02
922.06,-0.91
931.28,-0.81
940.59,-0.71
950.00,-0.60
959.50,-0.49
969.09,-0.38
978.78,-0.27
988.57,-0.16
998.46,-0.02
1008.44,0.11
1018.53,0.26
1028.71,0.40
1039.00,0.56
1049.39,0.72
1059.88,0.90
1070.48,1.07
1081.19,1.25
1092.00,1.42
1102.92,1.59
1113.95,1.77
1125.09,1.93
1136.34,2.10
1147.70,2.25
1159.18,2.40
1170.77,2.55
1182.48,2.69
1194.30,2.82
1206.25,2.94
1218.31,3.05
1230.49,3.14
1242.80,3.24
1255.22,3.31
1267.78,3.38
1280.45,3.45
1293.26,3.50
1306.19,3.55
1319.25,3.61
1332.45,3.66
1345.77,3.72
1359.23,3.78
1372.82,3.84
1386.55,3.91
1400.41,3.98
1414.42,4.05
1428.56,4.12
1442.85,4.19
1457.28,4.27
1471.85,4.34
1486.57,4.41
1501.43,4.49
1516.45,4.57
1531.61,4.64
1546.93,4.73
1562.40,4.82
1578.02,4.90
1593.80,5.00
1609.74,5.10
1625.84,5.21
1642.10,5.32
1658.52,5.44
1675.10,5.55
1691.85,5.68
1708.77,5.81
1725.86,5.94
1743.12,6.08
1760.55,6.21
1778.15,6.35
1795.94,6.50
1813.90,6.65
1832.03,6.79
1850.36,6.94
1868.86,7.10
1887.55,7.26
1906.42,7.42
1925.49,7.58
1944.74,7.74
1964.19,7.91
1983.83,8.08
2003.67,8.25
2023.71,8.42
2043.94,8.59
2064.38,8.76
2085.03,8.94
2105.88,9.11
2126.94,9.28
2148.20,9.45
2169.69,9.61
2191.38,9.77
2213.30,9.93
2235.43,10.09
2257.78,10.24
2280.36,10.38
2303.17,10.51
2326.20,10.63
2349.46,10.75
2372.95,10.84
2396.68,10.93
2420.65,11.00
2444.86,11.06
2469.31,11.10
2494.00,11.13
2518.94,11.13
2544.13,11.12
2569.57,11.10
2595.27,11.05
2621.22,10.98
2647.43,10.90
2673.90,10.82
2700.64,10.70
2727.65,10.57
2754.93,10.43
2782.48,10.28
2810.30,10.11
2838.40,9.94
2866.79,9.76
2895.46,9.56
2924.41,9.36
2953.65,9.15
2983.19,8.95
3013.02,8.73
3043.15,8.52
3073.58,8.30
3104.32,8.09
3135.36,7.86
3166.72,7.65
3198.38,7.43
3230.37,7.22
3262.67,7.00
3295.30,6.79
3328.25,6.58
3361.53,6.36
3395.15,6.16
3429.10,5.96
3463.39,5.76
3498.03,5.56
3533.01,5.36
3568.34,5.17
3604.02,4.98
3640.06,4.79
3676.46,4.60
3713.22,4.42
3750.36,4.25
3787.86,4.08
3825.74,3.92
3864.00,3.77
3902.64,3.62
3941.66,3.48
3981.08,3.34
4020.89,3.20
4061.10,3.08
4101.71,2.96
4142.73,2.85
4184.15,2.74
4226.00,2.63
4268.26,2.54
4310.94,2.45
4354.05,2.36
4397.59,2.29
4441.56,2.21
4485.98,2.14
4530.84,2.08
4576.15,2.03
4621.91,1.98
4668.13,1.95
4714.81,1.92
4761.96,1.89
4809.58,1.88
4857.67,1.86
4906.25,1.86
4955.31,1.87
5004.87,1.88
5054.91,1.91
5105.46,1.94
5156.52,1.99
5208.08,2.03
5260.16,2.10
5312.77,2.17
5365.89,2.25
5419.55,2.34
5473.75,2.44
5528.49,2.55
5583.77,2.67
5639.61,2.80
5696.00,2.94
5752.96,3.09
5810.49,3.25
5868.60,3.44
5927.28,3.62
5986.56,3.83
6046.42,4.05
6106.89,4.29
6167.96,4.54
6229.64,4.83
6291.93,5.12
6354.85,5.43
6418.40,5.79
6482.58,6.16
6547.41,6.56
6612.88,6.99
6679.01,7.45
6745.80,7.93
6813.26,8.44
6881.39,8.97
6950.21,9.51
7019.71,10.05
7089.91,10.59
7160.81,11.10
7232.41,11.58
7304.74,12.00
7377.79,12.36
7451.56,12.66
7526.08,12.83
7601.34,12.94
7677.35,12.98
7754.13,12.91
7831.67,12.77
7909.98,12.60
7989.08,12.36
8068.98,12.10
8149.67,11.83
8231.16,11.57
8313.47,11.31
8396.61,11.06
8480.57,10.84
8565.38,10.67
8651.03,10.52
8737.54,10.39
8824.92,10.30
8913.17,10.24
9002.30,10.18
9092.32,10.12
9183.25,10.04
9275.08,9.95
9367.83,9.79
9461.51,9.58
9556.12,9.30
9651.68,8.94
9748.20,8.46
9845.68,7.92
9944.14,7.31
10043.58,6.60
10144.02,5.84
10245.46,5.05
10347.91,4.21
10451.39,3.37
10555.91,2.51
10661.46,1.67
10768.08,0.85
10875.76,0.04
10984.52,-0.74
11094.36,-1.48
11205.31,-2.20
11317.36,-2.90
11430.53,-3.54
11544.84,-4.17
11660.29,-4.77
11776.89,-5.33
11894.66,-5.86
12013.60,-6.38
12133.74,-6.84
12255.08,-7.28
12377.63,-7.71
12501.41,-8.10
12626.42,-8.44
12752.68,-8.77
12880.21,-9.07
13009.01,-9.34
13139.10,-9.58
13270.49,-9.80
13403.20,-9.98
13537.23,-10.12
13672.60,-10.24
13809.33,-10.32
13947.42,-10.37
14086.90,-10.38
14227.77,-10.35
14370.04,-10.28
14513.74,-10.18
14658.88,-10.01
14805.47,-9.79
14953.52,-9.52
15103.06,-9.19
15254.09,-8.77
15406.63,-8.28
15560.70,-7.74
15716.30,-7.06
15873.47,-6.33
16032.20,-5.56
16192.52,-4.75
16354.45,-3.98
16517.99,-3.26
16683.17,-2.70
16850.01,-2.33
17018.51,-2.13
17188.69,-2.17
17360.58,-2.49
17534.18,-2.98
17709.53,-3.65
17886.62,-4.47
18065.49,-5.35
18246.14,-6.28
18428.60,-7.21
18612.89,-8.12
18799.02,-9.02
18987.01,-9.88
19176.88,-10.74
19368.65,-11.62
19562.33,-12.54
19757.96,-13.61
19955.54,-14.82
