frequency,raw
20.00,15.61
20.20,15.64
20.40,15.66
20.61,15.68
20.81,15.70
21.02,15.71
21.23,15.73
21.44,15.75
21.66,15.77
21.87,15.79
22.09,15.81
22.31,15.82
22.54,15.84
22.76,15.86
22.99,15.87
23.22,15.89
23.45,15.91
23.69,15.93
23.92,15.95
24.16,15.97
24.40,15.98
24.65,16.00
24.89,16.01
25.14,16.02
25.39,16.03
25.65,16.04
25.91,16.05
26.16,16.06
26.43,16.08
26.69,16.09
26.96,16.10
27.23,16.11
27.50,16.12
27.77,16.13
28.05,16.14
28.33,16.15
28.62,16.16
28.90,16.17
29.19,16.18
29.48,16.19
29.78,16.19
30.08,16.19
30.38,16.20
30.68,16.20
30.99,16.20
31.30,16.21
31.61,16.22
31.93,16.23
32.24,16.24
32.57,16.26
32.89,16.27
33.22,16.29
33.55,16.30
33.89,16.32
34.23,16.33
34.57,16.33
34.92,16.33
35.27,16.33
35.62,16.32
35.97,16.31
36.33,16.30
36.70,16.29
37.06,16.29
37.43,16.28
37.81,16.27
38.19,16.26
38.57,16.25
38.95,16.24
39.34,16.23
39.74,16.23
40.14,16.22
40.54,16.21
40.94,16.21
41.35,16.21
41.76,16.21
42.18,16.20
42.60,16.20
43.03,16.19
43.46,16.19
43.90,16.18
44.33,16.17
44.78,16.16
45.23,16.16
45.68,16.15
46.13,16.14
46.60,16.13
47.06,16.12
47.53,16.11
48.01,16.09
48.49,16.08
48.97,16.06
49.46,16.04
49.96,16.02
50.46,16.00
50.96,15.99
51.47,15.98
51.99,15.96
52.51,15.95
53.03,15.94
53.56,15.93
54.10,15.92
54.64,15.90
55.18,15.88
55.74,15.86
56.29,15.84
56.86,15.81
57.42,15.78
58.00,15.75
58.58,15.72
59.16,15.68
59.76,15.64
60.35,15.60
60.96,15.55
61.57,15.51
62.18,15.47
62.80,15.43
63.43,15.39
64.07,15.35
64.71,15.31
65.35,15.27
66.01,15.23
66.67,15.19
67.33,15.15
68.01,15.11
68.69,15.08
69.37,15.04
70.07,15.01
70.77,14.98
71.48,14.95
72.19,14.91
72.91,14.87
73.64,14.83
74.38,14.78
75.12,14.73
75.87,14.67
76.63,14.62
77.40,14.56
78.17,14.50
78.95,14.45
79.74,14.40
80.54,14.34
81.35,14.30
82.16,14.25
82.98,14.20
83.81,14.16
84.65,14.11
85.50,14.06
86.35,14.00
87.22,13.95
88.09,13.89
88.97,13.83
89.86,13.76
90.76,13.70
91.66,13.63
92.58,13.57
93.51,13.50
94.44,13.44
95.39,13.38
96.34,13.32
97.30,13.25
98.28,13.19
99.26,13.12
100.25,13.06
101.25,12.99
102.27,12.92
103.29,12.84
104.32,12.77
105.37,12.70
106.42,12.62
107.48,12.55
108.56,12.47
109.64,12.39
110.74,12.32
111.85,12.24
112.97,12.16
114.10,12.09
115.24,12.01
116.39,11.93
117.55,11.85
118.73,11.77
119.92,11.70
121.12,11.62
122.33,11.54
123.55,11.45
124.79,11.37
126.03,11.29
127.29,11.20
128.57,11.12
129.85,11.03
131.15,10.95
132.46,10.87
133.79,10.79
135.12,10.71
136.48,10.64
137.84,10.56
139.22,10.48
140.61,10.41
142.02,10.34
143.44,10.27
144.87,10.21
146.32,10.16
147.78,10.10
149.26,10.05
150.75,10.01
152.26,9.98
153.78,9.94
155.32,9.91
156.88,9.89
158.44,9.86
160.03,9.84
161.63,9.81
163.24,9.78
164.88,9.75
166.53,9.71
168.19,9.66
169.87,9.61
171.57,9.55
173.29,9.49
175.02,9.41
176.77,9.34
178.54,9.25
180.32,9.16
182.13,9.08
183.95,8.98
185.79,8.89
187.65,8.79
189.52,8.70
191.42,8.61
193.33,8.51
195.27,8.42
197.22,8.33
199.19,8.23
201.18,8.14
203.19,8.04
205.23,7.95
207.28,7.85
209.35,7.75
211.44,7.66
213.56,7.56
215.69,7.47
217.85,7.37
220.03,7.28
222.23,7.19
224.45,7.09
226.70,7.00
228.96,6.91
231.25,6.82
233.57,6.73
235.90,6.64
238.26,6.55
240.64,6.47
243.05,6.38
245.48,6.29
247.93,6.21
250.41,6.12
252.92,6.04
255.45,5.95
258.00,5.87
260.58,5.78
263.19,5.69
265.82,5.61
268.48,5.52
271.16,5.44
273.87,5.35
276.61,5.26
279.38,5.17
282.17,5.09
284.99,5.00
287.84,4.91
290.72,4.82
293.63,4.73
296.57,4.65
299.53,4.56
302.53,4.47
305.55,4.38
308.61,4.29
311.69,4.20
314.81,4.12
317.96,4.03
321.14,3.94
324.35,3.85
327.59,3.76
330.87,3.68
334.18,3.59
337.52,3.50
340.90,3.41
344.30,3.33
347.75,3.24
351.23,3.15
354.74,3.07
358.28,2.98
361.87,2.90
365.49,2.81
369.14,2.73
372.83,2.64
376.56,2.56
380.33,2.47
384.13,2.39
387.97,2.31
391.85,2.22
395.77,2.14
399.73,2.06
403.72,1.97
407.76,1.89
411.84,1.81
415.96,1.72
420.12,1.64
424.32,1.56
428.56,1.48
432.85,1.39
437.18,1.31
441.55,1.23
445.96,1.15
450.42,1.07
454.93,0.99
459.48,0.91
464.07,0.84
468.71,0.76
473.40,0.68
478.13,0.61
482.91,0.54
487.74,0.46
492.62,0.39
497.55,0.32
502.52,0.25
507.55,0.18
512.62,0.11
517.75,0.04
522.93,-0.03
528.16,-0.10
533.44,-0.16
538.77,-0.23
544.16,-0.30
549.60,-0.36
555.10,-0.42
560.65,-0.49
566.25,-0.55
571.92,-0.61
577.64,-0.67
583.41,-0.73
589.25,-0.79
595.14,-0.85
601.09,-0.90
607.10,-0.96
613.17,-1.02
619.30,-1.08
625.50,-1.13
631.75,-1.19
638.07,-1.25
644.45,-1.30
650.89,-1.36
657.40,-1.41
663.98,-1.47
670.62,-1.52
677.32,-1.57
684.10,-1.61
690.94,-1.66
697.85,-1.70
704.83,-1.74
711.87,-1.77
718.99,-1.80
726.18,-1.83
733.44,-1.85
740.78,-1.86
748.19,-1.87
755.67,-1.87
763.23,-1.86
770.86,-1.85
778.57,-1.83
786.35,-1.80
794.22,-1.77
802.16,-1.73
810.18,-1.68
818.28,-1.63
826.46,-1.57
834.73,-1.51
843.08,-1.45
851.51,-1.38
860.02,-1.31
868.62,-1.24
877.31,-1.17
886.08,-1.10
894.94,-1.02
903.89,-0.95
912.93,-0.87
922.06,-0.78
931.28,-0.70
940.59,-0.61
950.00,-0.52
959.50,-0.43
969.09,-0.33
978.78,-0.23
988.57,-0.13
998.46,-0.02
1008.44,0.09
1018.53,0.20
1028.71,0.31
1039.00,0.41
1049.39,0.51
1059.88,0.61
1070.48,0.72
1081.19,0.84
1092.00,0.97
1102.92,1.13
1113.95,1.28
1125.09,1.45
1136.34,1.61
1147.70,1.75
1159.18,1.88
1170.77,1.99
1182.48,2.09
1194.30,2.19
1206.25,2.27
1218.31,2.35
1230.49,2.43
1242.80,2.51
1255.22,2.58
1267.78,2.66
1280.45,2.73
1293.26,2.80
1306.19,2.87
1319.25,2.94
1332.45,3.01
1345.77,3.08
1359.23,3.15
1372.82,3.22
1386.55,3.29
1400.41,3.36
1414.42,3.43
1428.56,3.50
1442.85,3.57
1457.28,3.64
1471.85,3.70
1486.57,3.76
1501.43,3.81
1516.45,3.86
1531.61,3.90
1546.93,3.93
1562.40,3.95
1578.02,3.98
1593.80,4.01
1609.74,4.04
1625.84,4.08
1642.10,4.14
1658.52,4.20
1675.10,4.28
1691.85,4.37
1708.77,4.47
1725.86,4.58
1743.12,4.69
1760.55,4.81
1778.15,4.94
1795.94,5.07
1813.90,5.21
1832.03,5.36
1850.36,5.51
1868.86,5.67
1887.55,5.83
1906.42,6.00
1925.49,6.18
1944.74,6.36
1964.19,6.55
1983.83,6.75
2003.67,6.96
2023.71,7.17
2043.94,7.40
2064.38,7.63
2085.03,7.87
2105.88,8.13
2126.94,8.39
2148.20,8.66
2169.69,8.93
2191.38,9.21
2213.30,9.50
2235.43,9.79
2257.78,10.08
2280.36,10.37
2303.17,10.65
2326.20,10.94
2349.46,11.22
2372.95,11.49
2396.68,11.76
2420.65,12.02
2444.86,12.26
2469.31,12.49
2494.00,12.70
2518.94,12.89
2544.13,13.05
2569.57,13.18
2595.27,13.29
2621.22,13.35
2647.43,13.39
2673.90,13.39
2700.64,13.34
2727.65,13.26
2754.93,13.15
2782.48,13.00
2810.30,12.82
2838.40,12.62
2866.79,12.39
2895.46,12.14
2924.41,11.88
2953.65,11.61
2983.19,11.33
3013.02,11.04
3043.15,10.75
3073.58,10.45
3104.32,10.16
3135.36,9.86
3166.72,9.58
3198.38,9.29
3230.37,9.01
3262.67,8.73
3295.30,8.46
3328.25,8.20
3361.53,7.94
3395.15,7.70
3429.10,7.46
3463.39,7.22
3498.03,7.00
3533.01,6.78
3568.34,6.57
3604.02,6.38
3640.06,6.19
3676.46,6.00
3713.22,5.83
3750.36,5.66
3787.86,5.50
3825.74,5.35
3864.00,5.20
3902.64,5.06
3941.66,4.92
3981.08,4.80
4020.89,4.68
4061.10,4.56
4101.71,4.45
4142.73,4.35
4184.15,4.25
4226.00,4.17
4268.26,4.09
4310.94,4.02
4354.05,3.95
4397.59,3.90
4441.56,3.86
4485.98,3.82
4530.84,3.79
4576.15,3.78
4621.91,3.77
4668.13,3.77
4714.81,3.78
4761.96,3.79
4809.58,3.83
4857.67,3.87
4906.25,3.92
4955.31,3.98
5004.87,4.05
5054.91,4.13
5105.46,4.23
5156.52,4.33
5208.08,4.45
5260.16,4.58
5312.77,4.72
5365.89,4.88
5419.55,5.05
5473.75,5.24
5528.49,5.44
5583.77,5.66
5639.61,5.91
5696.00,6.18
5752.96,6.46
5810.49,6.78
5868.60,7.11
5927.28,7.47
5986.56,7.86
6046.42,8.29
6106.89,8.73
6167.96,9.22
6229.64,9.74
6291.93,10.28
6354.85,10.86
6418.40,11.46
6482.58,12.07
6547.41,12.68
6612.88,13.26
6679.01,13.79
6745.80,14.27
6813.26,14.66
6881.39,14.93
6950.21,15.12
7019.71,15.18
7089.91,15.11
7160.81,14.95
7232.41,14.69
7304.74,14.31
7377.79,13.88
7451.56,13.38
7526.08,12.81
7601.34,12.21
7677.35,11.59
7754.13,10.96
7831.67,10.35
7909.98,9.74
7989.08,9.17
8068.98,8.64
8149.67,8.13
8231.16,7.66
8313.47,7.23
8396.61,6.83
8480.57,6.46
8565.38,6.14
8651.03,5.84
8737.54,5.56
8824.92,5.33
8913.17,5.12
9002.30,4.94
9092.32,4.79
9183.25,4.67
9275.08,4.57
9367.83,4.51
9461.51,4.49
9556.12,4.49
9651.68,4.53
9748.20,4.61
9845.68,4.72
9944.14,4.87
10043.58,5.07
10144.02,5.31
10245.46,5.59
10347.91,5.93
10451.39,6.31
10555.91,6.72
10661.46,7.17
10768.08,7.62
10875.76,8.06
10984.52,8.47
11094.36,8.80
11205.31,9.05
11317.36,9.19
11430.53,9.13
11544.84,8.95
11660.29,8.64
11776.89,8.09
11894.66,7.45
12013.60,6.71
12133.74,5.87
12255.08,5.01
12377.63,4.13
12501.41,3.29
12626.42,2.48
12752.68,1.72
12880.21,1.03
13009.01,0.40
13139.10,-0.17
13270.49,-0.69
13403.20,-1.13
13537.23,-1.52
13672.60,-1.85
13809.33,-2.10
13947.42,-2.30
14086.90,-2.44
14227.77,-2.49
14370.04,-2.47
14513.74,-2.37
14658.88,-2.18
14805.47,-1.89
14953.52,-1.54
15103.06,-1.13
15254.09,-0.70
15406.63,-0.31
15560.70,0.04
15716.30,0.22
15873.47,0.28
16032.20,0.21
16192.52,-0.08
16354.45,-0.49
16517.99,-1.00
16683.17,-1.65
16850.01,-2.40
17018.51,-3.22
17188.69,-4.13
17360.58,-5.14
17534.18,-6.20
17709.53,-7.32
17886.62,-8.46
18065.49,-9.59
18246.14,-10.69
18428.60,-11.69
18612.89,-12.63
18799.02,-13.49
18987.01,-14.25
19176.88,-14.95
19368.65,-15.60
19562.33,-16.21
19757.96,-16.80
19955.54,-17.40
