frequency,raw
20.00,8.29
20.20,8.33
20.40,8.36
20.61,8.40
20.81,8.43
21.02,8.46
21.23,8.47
21.44,8.50
21.66,8.53
21.87,8.56
22.09,8.59
22.31,8.63
22.54,8.67
22.76,8.71
22.99,8.76
23.22,8.80
23.45,8.85
23.69,8.89
23.92,8.92
24.16,8.96
24.40,8.98
24.65,9.01
24.89,9.03
25.14,9.06
25.39,9.09
25.65,9.11
25.91,9.14
26.16,9.17
26.43,9.20
26.69,9.23
26.96,9.25
27.23,9.28
27.50,9.30
27.77,9.33
28.05,9.36
28.33,9.37
28.62,9.40
28.90,9.42
29.19,9.44
29.48,9.45
29.78,9.48
30.08,9.49
30.38,9.50
30.68,9.52
30.99,9.54
31.30,9.55
31.61,9.57
31.93,9.59
32.24,9.61
32.57,9.64
32.89,9.66
33.22,9.67
33.55,9.68
33.89,9.71
34.23,9.72
34.57,9.73
34.92,9.74
35.27,9.75
35.62,9.77
35.97,9.77
36.33,9.78
36.70,9.80
37.06,9.81
37.43,9.82
37.81,9.83
38.19,9.83
38.57,9.84
38.95,9.85
39.34,9.85
39.74,9.86
40.14,9.86
40.54,9.86
40.94,9.87
41.35,9.88
41.76,9.88
42.18,9.89
42.60,9.89
43.03,9.90
43.46,9.90
43.90,9.91
44.33,9.90
44.78,9.90
45.23,9.90
45.68,9.90
46.13,9.91
46.60,9.90
47.06,9.90
47.53,9.90
48.01,9.89
48.49,9.89
48.97,9.88
49.46,9.88
49.96,9.88
50.46,9.86
50.96,9.86
51.47,9.85
51.99,9.85
52.51,9.84
53.03,9.83
53.56,9.81
54.10,9.81
54.64,9.80
55.18,9.79
55.74,9.78
56.29,9.77
56.86,9.76
57.42,9.75
58.00,9.74
58.58,9.73
59.16,9.71
59.76,9.70
60.35,9.68
60.96,9.67
61.57,9.65
62.18,9.63
62.80,9.62
63.43,9.60
64.07,9.58
64.71,9.56
65.35,9.54
66.01,9.52
66.67,9.51
67.33,9.48
68.01,9.46
68.69,9.44
69.37,9.42
70.07,9.40
70.77,9.38
71.48,9.36
72.19,9.33
72.91,9.31
73.64,9.28
74.38,9.26
75.12,9.23
75.87,9.21
76.63,9.18
77.40,9.15
78.17,9.13
78.95,9.09
79.74,9.07
80.54,9.04
81.35,9.02
82.16,8.99
82.98,8.95
83.81,8.93
84.65,8.90
85.50,8.86
86.35,8.84
87.22,8.80
88.09,8.77
88.97,8.74
89.86,8.71
90.76,8.67
91.66,8.64
92.58,8.60
93.51,8.57
94.44,8.53
95.39,8.50
96.34,8.46
97.30,8.42
98.28,8.39
99.26,8.35
100.25,8.32
101.25,8.27
102.27,8.23
103.29,8.19
104.32,8.16
105.37,8.12
106.42,8.08
107.48,8.04
108.56,7.99
109.64,7.95
110.74,7.91
111.85,7.87
112.97,7.83
114.10,7.78
115.24,7.73
116.39,7.69
117.55,7.65
118.73,7.60
119.92,7.55
121.12,7.51
122.33,7.47
123.55,7.42
124.79,7.38
126.03,7.32
127.29,7.28
128.57,7.23
129.85,7.17
131.15,7.13
132.46,7.08
133.79,7.03
135.12,6.98
136.48,6.93
137.84,6.89
139.22,6.83
140.61,6.78
142.02,6.73
143.44,6.68
144.87,6.62
146.32,6.57
147.78,6.51
149.26,6.46
150.75,6.40
152.26,6.35
153.78,6.29
155.32,6.24
156.88,6.18
158.44,6.13
160.03,6.08
161.63,6.02
163.24,5.96
164.88,5.91
166.53,5.86
168.19,5.80
169.87,5.74
171.57,5.69
173.29,5.64
175.02,5.58
176.77,5.53
178.54,5.47
180.32,5.43
182.13,5.37
183.95,5.31
185.79,5.27
187.65,5.22
189.52,5.16
191.42,5.12
193.33,5.08
195.27,5.03
197.22,4.99
199.19,4.95
201.18,4.91
203.19,4.87
205.23,4.83
207.28,4.80
209.35,4.75
211.44,4.72
213.56,4.68
215.69,4.63
217.85,4.59
220.03,4.54
222.23,4.49
224.45,4.44
226.70,4.38
228.96,4.33
231.25,4.28
233.57,4.22
235.90,4.16
238.26,4.10
240.64,4.04
243.05,3.99
245.48,3.92
247.93,3.86
250.41,3.81
252.92,3.74
255.45,3.67
258.00,3.61
260.58,3.55
263.19,3.49
265.82,3.43
268.48,3.36
271.16,3.30
273.87,3.23
276.61,3.17
279.38,3.11
282.17,3.05
284.99,2.98
287.84,2.92
290.72,2.86
293.63,2.80
296.57,2.74
299.53,2.68
302.53,2.61
305.55,2.56
308.61,2.49
311.69,2.43
314.81,2.38
317.96,2.31
321.14,2.25
324.35,2.19
327.59,2.12
330.87,2.06
334.18,2.01
337.52,1.94
340.90,1.89
344.30,1.82
347.75,1.76
351.23,1.71
354.74,1.65
358.28,1.58
361.87,1.53
365.49,1.47
369.14,1.40
372.83,1.35
376.56,1.29
380.33,1.23
384.13,1.16
387.97,1.10
391.85,1.03
395.77,0.98
399.73,0.92
403.72,0.85
407.76,0.79
411.84,0.73
415.96,0.67
420.12,0.60
424.32,0.54
428.56,0.48
432.85,0.43
437.18,0.36
441.55,0.30
445.96,0.23
450.42,0.17
454.93,0.10
459.48,0.04
464.07,-0.02
468.71,-0.09
473.40,-0.14
478.13,-0.21
482.91,-0.26
487.74,-0.33
492.62,-0.39
497.55,-0.44
502.52,-0.51
507.55,-0.57
512.62,-0.63
517.75,-0.68
522.93,-0.75
528.16,-0.80
533.44,-0.87
538.77,-0.93
544.16,-0.99
549.60,-1.05
555.10,-1.10
560.65,-1.17
566.25,-1.22
571.92,-1.28
577.64,-1.34
583.41,-1.39
589.25,-1.44
595.14,-1.49
601.09,-1.54
607.10,-1.59
613.17,-1.64
619.30,-1.68
625.50,-1.72
631.75,-1.76
638.07,-1.80
644.45,-1.84
650.89,-1.88
657.40,-1.92
663.98,-1.96
670.62,-1.99
677.32,-2.04
684.10,-2.08
690.94,-2.12
697.85,-2.17
704.83,-2.22
711.87,-2.25
718.99,-2.30
726.18,-2.34
733.44,-2.37
740.78,-2.41
748.19,-2.44
755.67,-2.47
763.23,-2.49
770.86,-2.50
778.57,-2.51
786.35,-2.51
794.22,-2.50
802.16,-2.49
810.18,-2.46
818.28,-2.43
826.46,-2.37
834.73,-2.31
843.08,-2.24
851.51,-2.16
860.02,-2.05
868.62,-1.95
877.31,-1.84
886.08,-1.72
894.94,-1.60
903.89,-1.46
912.93,-1.33
922.06,-1.18
931.28,-1.05
940.59,-0.90
950.00,-0.75
959.50,-0.60
969.09,-0.46
978.78,-0.32
988.57,-0.17
998.46,-0.02
1008.44,0.12
1018.53,0.26
1028.71,0.39
1039.00,0.52
1049.39,0.65
1059.88,0.79
1070.48,0.91
1081.19,1.04
1092.00,1.16
1102.92,1.27
1113.95,1.39
1125.09,1.50
1136.34,1.62
1147.70,1.73
1159.18,1.83
1170.77,1.94
1182.48,2.05
1194.30,2.14
1206.25,2.24
1218.31,2.34
1230.49,2.43
1242.80,2.53
1255.22,2.62
1267.78,2.71
1280.45,2.80
1293.26,2.89
1306.19,2.97
1319.25,3.06
1332.45,3.14
1345.77,3.22
1359.23,3.30
1372.82,3.38
1386.55,3.46
1400.41,3.54
1414.42,3.61
1428.56,3.69
1442.85,3.76
1457.28,3.84
1471.85,3.92
1486.57,3.99
1501.43,4.07
1516.45,4.14
1531.61,4.22
1546.93,4.31
1562.40,4.40
1578.02,4.48
1593.80,4.56
1609.74,4.66
1625.84,4.75
1642.10,4.84
1658.52,4.94
1675.10,5.02
1691.85,5.13
1708.77,5.22
1725.86,5.33
1743.12,5.43
1760.55,5.54
1778.15,5.65
1795.94,5.76
1813.90,5.88
1832.03,5.99
1850.36,6.12
1868.86,6.25
1887.55,6.37
1906.42,6.50
1925.49,6.64
1944.74,6.77
1964.19,6.92
1983.83,7.06
2003.67,7.21
2023.71,7.36
2043.94,7.51
2064.38,7.66
2085.03,7.82
2105.88,7.98
2126.94,8.14
2148.20,8.31
2169.69,8.47
2191.38,8.65
2213.30,8.82
2235.43,9.00
2257.78,9.17
2280.36,9.35
2303.17,9.52
2326.20,9.70
2349.46,9.87
2372.95,10.04
2396.68,10.21
2420.65,10.38
2444.86,10.55
2469.31,10.71
2494.00,10.87
2518.94,11.01
2544.13,11.15
2569.57,11.29
2595.27,11.41
2621.22,11.52
2647.43,11.63
2673.90,11.72
2700.64,11.80
2727.65,11.86
2754.93,11.92
2782.48,11.97
2810.30,11.99
2838.40,12.02
2866.79,12.03
2895.46,12.02
2924.41,12.01
2953.65,11.99
2983.19,11.97
3013.02,11.92
3043.15,11.88
3073.58,11.84
3104.32,11.79
3135.36,11.72
3166.72,11.67
3198.38,11.60
3230.37,11.55
3262.67,11.49
3295.30,11.43
3328.25,11.37
3361.53,11.31
3395.15,11.26
3429.10,11.22
3463.39,11.17
3498.03,11.14
3533.01,11.10
3568.34,11.08
3604.02,11.06
3640.06,11.04
3676.46,11.04
3713.22,11.04
3750.36,11.06
3787.86,11.08
3825.74,11.11
3864.00,11.15
3902.64,11.21
3941.66,11.27
3981.08,11.34
4020.89,11.42
4061.10,11.52
4101.71,11.62
4142.73,11.74
4184.15,11.86
4226.00,11.99
4268.26,12.12
4310.94,12.26
4354.05,12.39
4397.59,12.52
4441.56,12.64
4485.98,12.75
4530.84,12.83
4576.15,12.89
4621.91,12.93
4668.13,12.93
4714.81,12.88
4761.96,12.80
4809.58,12.65
4857.67,12.46
4906.25,12.23
4955.31,11.94
5004.87,11.60
5054.91,11.24
5105.46,10.83
5156.52,10.40
5208.08,9.93
5260.16,9.46
5312.77,8.97
5365.89,8.47
5419.55,7.97
5473.75,7.46
5528.49,6.97
5583.77,6.48
5639.61,6.00
5696.00,5.54
5752.96,5.08
5810.49,4.64
5868.60,4.22
5927.28,3.80
5986.56,3.41
6046.42,3.02
6106.89,2.65
6167.96,2.30
6229.64,1.96
6291.93,1.64
6354.85,1.32
6418.40,1.03
6482.58,0.75
6547.41,0.49
6612.88,0.24
6679.01,0.01
6745.80,-0.21
6813.26,-0.41
6881.39,-0.59
6950.21,-0.76
7019.71,-0.91
7089.91,-1.03
7160.81,-1.15
7232.41,-1.25
7304.74,-1.32
7377.79,-1.38
7451.56,-1.43
7526.08,-1.45
7601.34,-1.44
7677.35,-1.42
7754.13,-1.36
7831.67,-1.29
7909.98,-1.18
7989.08,-1.05
8068.98,-0.88
8149.67,-0.68
8231.16,-0.44
8313.47,-0.16
8396.61,0.15
8480.57,0.50
8565.38,0.93
8651.03,1.38
8737.54,1.88
8824.92,2.45
8913.17,3.05
9002.30,3.68
9092.32,4.35
9183.25,5.04
9275.08,5.72
9367.83,6.40
9461.51,7.03
9556.12,7.58
9651.68,8.04
9748.20,8.29
9845.68,8.42
9944.14,8.39
10043.58,8.11
10144.02,7.70
10245.46,7.18
10347.91,6.53
10451.39,5.85
10555.91,5.15
10661.46,4.50
10768.08,3.93
10875.76,3.41
10984.52,3.00
11094.36,2.68
11205.31,2.45
11317.36,2.27
11430.53,2.21
11544.84,2.20
11660.29,2.22
11776.89,2.31
11894.66,2.39
12013.60,2.45
12133.74,2.46
12255.08,2.37
12377.63,2.19
12501.41,1.86
12626.42,1.38
12752.68,0.78
12880.21,0.04
13009.01,-0.82
13139.10,-1.72
13270.49,-2.68
13403.20,-3.65
13537.23,-4.59
13672.60,-5.52
13809.33,-6.38
13947.42,-7.18
14086.90,-7.93
14227.77,-8.60
14370.04,-9.20
14513.74,-9.76
14658.88,-10.25
14805.47,-10.66
14953.52,-11.02
15103.06,-11.31
15254.09,-11.53
15406.63,-11.70
15560.70,-11.82
15716.30,-11.83
15873.47,-11.80
16032.20,-11.72
16192.52,-11.55
16354.45,-11.33
16517.99,-11.06
16683.17,-10.73
16850.01,-10.37
17018.51,-9.99
17188.69,-9.59
17360.58,-9.22
17534.18,-8.88
17709.53,-8.58
17886.62,-8.35
18065.49,-8.17
18246.14,-8.05
18428.60,-8.03
18612.89,-8.06
18799.02,-8.14
18987.01,-8.32
19176.88,-8.60
19368.65,-9.00
19562.33,-9.61
19757.96,-10.53
19955.54,-11.70
