frequency,raw
20.00,3.42
20.20,3.44
20.40,3.46
20.61,3.48
20.81,3.50
21.02,3.52
21.23,3.54
21.44,3.56
21.66,3.57
21.87,3.59
22.09,3.61
22.31,3.63
22.54,3.64
22.76,3.66
22.99,3.68
23.22,3.69
23.45,3.70
23.69,3.72
23.92,3.73
24.16,3.75
24.40,3.76
24.65,3.78
24.89,3.79
25.14,3.81
25.39,3.82
25.65,3.84
25.91,3.85
26.16,3.86
26.43,3.88
26.69,3.89
26.96,3.90
27.23,3.92
27.50,3.93
27.77,3.95
28.05,3.96
28.33,3.97
28.62,3.99
28.90,4.00
29.19,4.01
29.48,4.02
29.78,4.03
30.08,4.05
30.38,4.06
30.68,4.07
30.99,4.08
31.30,4.09
31.61,4.10
31.93,4.11
32.24,4.12
32.57,4.12
32.89,4.13
33.22,4.14
33.55,4.15
33.89,4.15
34.23,4.16
34.57,4.17
34.92,4.18
35.27,4.18
35.62,4.19
35.97,4.20
36.33,4.20
36.70,4.21
37.06,4.22
37.43,4.22
37.81,4.23
38.19,4.23
38.57,4.24
38.95,4.24
39.34,4.25
39.74,4.25
40.14,4.26
40.54,4.26
40.94,4.27
41.35,4.27
41.76,4.28
42.18,4.28
42.60,4.28
43.03,4.29
43.46,4.29
43.90,4.29
44.33,4.29
44.78,4.29
45.23,4.29
45.68,4.29
46.13,4.29
46.60,4.29
47.06,4.29
47.53,4.29
48.01,4.29
48.49,4.29
48.97,4.29
49.46,4.29
49.96,4.29
50.46,4.29
50.96,4.29
51.47,4.29
51.99,4.29
52.51,4.28
53.03,4.28
53.56,4.28
54.10,4.28
54.64,4.27
55.18,4.27
55.74,4.26
56.29,4.26
56.86,4.25
57.42,4.25
58.00,4.24
58.58,4.24
59.16,4.23
59.76,4.23
60.35,4.22
60.96,4.22
61.57,4.21
62.18,4.20
62.80,4.20
63.43,4.19
64.07,4.19
64.71,4.18
65.35,4.17
66.01,4.16
66.67,4.15
67.33,4.15
68.01,4.14
68.69,4.13
69.37,4.12
70.07,4.11
70.77,4.10
71.48,4.09
72.19,4.08
72.91,4.07
73.64,4.06
74.38,4.05
75.12,4.04
75.87,4.02
76.63,4.01
77.40,3.99
78.17,3.98
78.95,3.97
79.74,3.95
80.54,3.94
81.35,3.93
82.16,3.92
82.98,3.91
83.81,3.90
84.65,3.89
85.50,3.88
86.35,3.86
87.22,3.85
88.09,3.84
88.97,3.82
89.86,3.81
90.76,3.79
91.66,3.77
92.58,3.75
93.51,3.73
94.44,3.71
95.39,3.69
96.34,3.67
97.30,3.66
98.28,3.64
99.26,3.62
100.25,3.60
101.25,3.58
102.27,3.56
103.29,3.54
104.32,3.52
105.37,3.50
106.42,3.48
107.48,3.46
108.56,3.44
109.64,3.42
110.74,3.40
111.85,3.37
112.97,3.35
114.10,3.33
115.24,3.31
116.39,3.28
117.55,3.26
118.73,3.24
119.92,3.22
121.12,3.19
122.33,3.17
123.55,3.14
124.79,3.11
126.03,3.08
127.29,3.05
128.57,3.02
129.85,2.99
131.15,2.96
132.46,2.93
133.79,2.90
135.12,2.87
136.48,2.84
137.84,2.81
139.22,2.78
140.61,2.75
142.02,2.72
143.44,2.69
144.87,2.66
146.32,2.63
147.78,2.60
149.26,2.56
150.75,2.53
152.26,2.50
153.78,2.46
155.32,2.43
156.88,2.39
158.44,2.35
160.03,2.32
161.63,2.28
163.24,2.24
164.88,2.20
166.53,2.16
168.19,2.12
169.87,2.08
171.57,2.04
173.29,2.00
175.02,1.96
176.77,1.92
178.54,1.88
180.32,1.83
182.13,1.79
183.95,1.75
185.79,1.71
187.65,1.68
189.52,1.64
191.42,1.62
193.33,1.59
195.27,1.57
197.22,1.56
199.19,1.55
201.18,1.54
203.19,1.53
205.23,1.53
207.28,1.52
209.35,1.52
211.44,1.52
213.56,1.51
215.69,1.51
217.85,1.50
220.03,1.49
222.23,1.47
224.45,1.45
226.70,1.43
228.96,1.41
231.25,1.38
233.57,1.36
235.90,1.33
238.26,1.30
240.64,1.27
243.05,1.24
245.48,1.21
247.93,1.17
250.41,1.14
252.92,1.11
255.45,1.07
258.00,1.04
260.58,1.00
263.19,0.97
265.82,0.93
268.48,0.89
271.16,0.86
273.87,0.82
276.61,0.78
279.38,0.75
282.17,0.71
284.99,0.67
287.84,0.64
290.72,0.60
293.63,0.57
296.57,0.53
299.53,0.50
302.53,0.46
305.55,0.43
308.61,0.39
311.69,0.36
314.81,0.33
317.96,0.29
321.14,0.26
324.35,0.22
327.59,0.19
330.87,0.16
334.18,0.12
337.52,0.09
340.90,0.06
344.30,0.03
347.75,-0.01
351.23,-0.04
354.74,-0.07
358.28,-0.10
361.87,-0.13
365.49,-0.17
369.14,-0.20
372.83,-0.23
376.56,-0.26
380.33,-0.29
384.13,-0.32
387.97,-0.36
391.85,-0.39
395.77,-0.42
399.73,-0.45
403.72,-0.48
407.76,-0.51
411.84,-0.54
415.96,-0.57
420.12,-0.61
424.32,-0.64
428.56,-0.67
432.85,-0.70
437.18,-0.73
441.55,-0.76
445.96,-0.80
450.42,-0.83
454.93,-0.86
459.48,-0.89
464.07,-0.92
468.71,-0.95
473.40,-0.98
478.13,-1.01
482.91,-1.04
487.74,-1.06
492.62,-1.09
497.55,-1.12
502.52,-1.15
507.55,-1.17
512.62,-1.20
517.75,-1.23
522.93,-1.25
528.16,-1.28
533.44,-1.30
538.77,-1.33
544.16,-1.35
549.60,-1.37
555.10,-1.40
560.65,-1.42
566.25,-1.44
571.92,-1.46
577.64,-1.47
583.41,-1.49
589.25,-1.50
595.14,-1.52
601.09,-1.53
607.10,-1.54
613.17,-1.55
619.30,-1.56
625.50,-1.57
631.75,-1.57
638.07,-1.58
644.45,-1.58
650.89,-1.59
657.40,-1.59
663.98,-1.59
670.62,-1.59
677.32,-1.59
684.10,-1.60
690.94,-1.60
697.85,-1.60
704.83,-1.60
711.87,-1.60
718.99,-1.60
726.18,-1.60
733.44,-1.60
740.78,-1.60
748.19,-1.59
755.67,-1.59
763.23,-1.58
770.86,-1.57
778.57,-1.56
786.35,-1.54
794.22,-1.52
802.16,-1.50
810.18,-1.47
818.28,-1.44
826.46,-1.41
834.73,-1.38
843.08,-1.34
851.51,-1.30
860.02,-1.26
868.62,-1.22
877.31,-1.17
886.08,-1.12
894.94,-1.06
903.89,-1.01
912.93,-0.94
922.06,-0.86
931.28,-0.79
940.59,-0.70
950.00,-0.60
959.50,-0.50
969.09,-0.39
978.78,-0.27
988.57,-0.15
998.46,-0.02
1008.44,0.11
1018.53,0.25
1028.71,0.39
1039.00,0.53
1049.39,0.67
1059.88,0.82
1070.48,0.97
1081.19,1.12
1092.00,1.28
1102.92,1.43
1113.95,1.58
1125.09,1.73
1136.34,1.88
1147.70,2.03
1159.18,2.18
1170.77,2.33
1182.48,2.47
1194.30,2.61
1206.25,2.75
1218.31,2.88
1230.49,3.01
1242.80,3.14
1255.22,3.27
1267.78,3.39
1280.45,3.51
1293.26,3.63
1306.19,3.74
1319.25,3.85
1332.45,3.96
1345.77,4.07
1359.23,4.17
1372.82,4.27
1386.55,4.37
1400.41,4.47
1414.42,4.57
1428.56,4.67
1442.85,4.76
1457.28,4.86
1471.85,4.95
1486.57,5.04
1501.43,5.14
1516.45,5.23
1531.61,5.33
1546.93,5.42
1562.40,5.52
1578.02,5.62
1593.80,5.71
1609.74,5.81
1625.84,5.91
1642.10,6.01
1658.52,6.12
1675.10,6.22
1691.85,6.33
1708.77,6.44
1725.86,6.55
1743.12,6.66
1760.55,6.78
1778.15,6.90
1795.94,7.02
1813.90,7.14
1832.03,7.27
1850.36,7.40
1868.86,7.53
1887.55,7.66
1906.42,7.80
1925.49,7.94
1944.74,8.08
1964.19,8.23
1983.83,8.38
2003.67,8.53
2023.71,8.69
2043.94,8.85
2064.38,9.02
2085.03,9.19
2105.88,9.36
2126.94,9.54
2148.20,9.72
2169.69,9.91
2191.38,10.10
2213.30,10.29
2235.43,10.49
2257.78,10.69
2280.36,10.89
2303.17,11.10
2326.20,11.32
2349.46,11.53
2372.95,11.75
2396.68,11.97
2420.65,12.19
2444.86,12.41
2469.31,12.63
2494.00,12.86
2518.94,13.09
2544.13,13.32
2569.57,13.55
2595.27,13.79
2621.22,14.02
2647.43,14.25
2673.90,14.48
2700.64,14.69
2727.65,14.88
2754.93,15.05
2782.48,15.20
2810.30,15.33
2838.40,15.43
2866.79,15.51
2895.46,15.57
2924.41,15.61
2953.65,15.63
2983.19,15.62
3013.02,15.60
3043.15,15.57
3073.58,15.51
3104.32,15.45
3135.36,15.37
3166.72,15.28
3198.38,15.18
3230.37,15.08
3262.67,14.96
3295.30,14.84
3328.25,14.71
3361.53,14.58
3395.15,14.44
3429.10,14.30
3463.39,14.17
3498.03,14.03
3533.01,13.89
3568.34,13.75
3604.02,13.62
3640.06,13.48
3676.46,13.34
3713.22,13.19
3750.36,13.04
3787.86,12.90
3825.74,12.74
3864.00,12.59
3902.64,12.44
3941.66,12.29
3981.08,12.16
4020.89,12.03
4061.10,11.90
4101.71,11.78
4142.73,11.66
4184.15,11.54
4226.00,11.42
4268.26,11.29
4310.94,11.16
4354.05,11.03
4397.59,10.90
4441.56,10.78
4485.98,10.65
4530.84,10.54
4576.15,10.42
4621.91,10.32
4668.13,10.22
4714.81,10.13
4761.96,10.04
4809.58,9.96
4857.67,9.89
4906.25,9.82
4955.31,9.77
5004.87,9.71
5054.91,9.67
5105.46,9.63
5156.52,9.59
5208.08,9.55
5260.16,9.52
5312.77,9.48
5365.89,9.44
5419.55,9.38
5473.75,9.32
5528.49,9.24
5583.77,9.15
5639.61,9.03
5696.00,8.90
5752.96,8.74
5810.49,8.56
5868.60,8.36
5927.28,8.14
5986.56,7.90
6046.42,7.63
6106.89,7.36
6167.96,7.06
6229.64,6.74
6291.93,6.40
6354.85,6.05
6418.40,5.67
6482.58,5.28
6547.41,4.87
6612.88,4.45
6679.01,4.02
6745.80,3.60
6813.26,3.20
6881.39,2.83
6950.21,2.48
7019.71,2.18
7089.91,1.92
7160.81,1.70
7232.41,1.51
7304.74,1.37
7377.79,1.26
7451.56,1.18
7526.08,1.15
7601.34,1.15
7677.35,1.18
7754.13,1.25
7831.67,1.37
7909.98,1.52
7989.08,1.72
8068.98,1.97
8149.67,2.27
8231.16,2.63
8313.47,3.05
8396.61,3.53
8480.57,4.06
8565.38,4.69
8651.03,5.38
8737.54,6.12
8824.92,6.95
8913.17,7.80
9002.30,8.66
9092.32,9.48
9183.25,10.19
9275.08,10.80
9367.83,11.19
9461.51,11.33
9556.12,11.30
9651.68,11.04
9748.20,10.58
9845.68,10.05
9944.14,9.45
10043.58,8.85
10144.02,8.28
10245.46,7.75
10347.91,7.31
10451.39,6.93
10555.91,6.61
10661.46,6.37
10768.08,6.19
10875.76,6.06
10984.52,5.97
11094.36,5.92
11205.31,5.89
11317.36,5.87
11430.53,5.84
11544.84,5.79
11660.29,5.71
11776.89,5.55
11894.66,5.34
12013.60,5.08
12133.74,4.73
12255.08,4.33
12377.63,3.89
12501.41,3.39
12626.42,2.88
12752.68,2.36
12880.21,1.85
13009.01,1.35
13139.10,0.87
13270.49,0.42
13403.20,0.01
13537.23,-0.36
13672.60,-0.69
13809.33,-0.95
13947.42,-1.17
14086.90,-1.35
14227.77,-1.45
14370.04,-1.49
14513.74,-1.47
14658.88,-1.37
14805.47,-1.19
14953.52,-0.94
15103.06,-0.60
15254.09,-0.13
15406.63,0.42
15560.70,1.07
15716.30,1.86
15873.47,2.70
16032.20,3.58
16192.52,4.39
16354.45,5.04
16517.99,5.51
16683.17,5.60
16850.01,5.31
17018.51,4.74
17188.69,3.81
17360.58,2.66
17534.18,1.42
17709.53,0.12
17886.62,-1.10
18065.49,-2.25
18246.14,-3.32
18428.60,-4.22
18612.89,-5.04
18799.02,-5.77
18987.01,-6.38
19176.88,-6.96
19368.65,-7.55
19562.33,-8.26
19757.96,-9.39
19955.54,-10.96
