frequency,raw
20.00,19.12
20.20,19.10
20.40,19.08
20.61,19.05
20.81,19.03
21.02,19.00
21.23,18.97
21.44,18.93
21.66,18.90
21.87,18.86
22.09,18.82
22.31,18.78
22.54,18.74
22.76,18.69
22.99,18.65
23.22,18.60
23.45,18.55
23.69,18.50
23.92,18.44
24.16,18.39
24.40,18.34
24.65,18.28
24.89,18.22
25.14,18.16
25.39,18.10
25.65,18.05
25.91,17.98
26.16,17.92
26.43,17.86
26.69,17.80
26.96,17.73
27.23,17.67
27.50,17.61
27.77,17.54
28.05,17.47
28.33,17.41
28.62,17.34
28.90,17.27
29.19,17.21
29.48,17.14
29.78,17.07
30.08,17.00
30.38,16.94
30.68,16.87
30.99,16.80
31.30,16.73
31.61,16.66
31.93,16.59
32.24,16.53
32.57,16.46
32.89,16.39
33.22,16.32
33.55,16.26
33.89,16.19
34.23,16.12
34.57,16.06
34.92,15.99
35.27,15.93
35.62,15.86
35.97,15.79
36.33,15.73
36.70,15.66
37.06,15.60
37.43,15.53
37.81,15.47
38.19,15.40
38.57,15.34
38.95,15.27
39.34,15.21
39.74,15.15
40.14,15.08
40.54,15.02
40.94,14.96
41.35,14.89
41.76,14.83
42.18,14.77
42.60,14.71
43.03,14.65
43.46,14.58
43.90,14.52
44.33,14.46
44.78,14.40
45.23,14.34
45.68,14.28
46.13,14.22
46.60,14.16
47.06,14.09
47.53,14.03
48.01,13.97
48.49,13.91
48.97,13.85
49.46,13.79
49.96,13.73
50.46,13.67
50.96,13.61
51.47,13.55
51.99,13.49
52.51,13.43
53.03,13.36
53.56,13.30
54.10,13.24
54.64,13.18
55.18,13.12
55.74,13.06
56.29,13.00
56.86,12.94
57.42,12.88
58.00,12.82
58.58,12.76
59.16,12.69
59.76,12.63
60.35,12.57
60.96,12.51
61.57,12.45
62.18,12.39
62.80,12.32
63.43,12.26
64.07,12.20
64.71,12.14
65.35,12.07
66.01,12.01
66.67,11.95
67.33,11.88
68.01,11.82
68.69,11.75
69.37,11.69
70.07,11.63
70.77,11.56
71.48,11.50
72.19,11.43
72.91,11.36
73.64,11.30
74.38,11.23
75.12,11.17
75.87,11.10
76.63,11.03
77.40,10.96
78.17,10.90
78.95,10.83
79.74,10.76
80.54,10.69
81.35,10.62
82.16,10.55
82.98,10.48
83.81,10.41
84.65,10.34
85.50,10.27
86.35,10.20
87.22,10.13
88.09,10.06
88.97,9.99
89.86,9.91
90.76,9.84
91.66,9.77
92.58,9.69
93.51,9.62
94.44,9.54
95.39,9.47
96.34,9.39
97.30,9.31
98.28,9.23
99.26,9.15
100.25,9.07
101.25,8.99
102.27,8.91
103.29,8.83
104.32,8.75
105.37,8.67
106.42,8.58
107.48,8.50
108.56,8.42
109.64,8.33
110.74,8.25
111.85,8.17
112.97,8.08
114.10,7.99
115.24,7.91
116.39,7.82
117.55,7.73
118.73,7.64
119.92,7.55
121.12,7.46
122.33,7.37
123.55,7.27
124.79,7.18
126.03,7.09
127.29,6.99
128.57,6.90
129.85,6.80
131.15,6.71
132.46,6.61
133.79,6.51
135.12,6.42
136.48,6.32
137.84,6.22
139.22,6.13
140.61,6.03
142.02,5.93
143.44,5.84
144.87,5.74
146.32,5.64
147.78,5.55
149.26,5.45
150.75,5.35
152.26,5.25
153.78,5.15
155.32,5.05
156.88,4.95
158.44,4.85
160.03,4.75
161.63,4.66
163.24,4.56
164.88,4.46
166.53,4.37
168.19,4.28
169.87,4.19
171.57,4.10
173.29,4.01
175.02,3.93
176.77,3.84
178.54,3.76
180.32,3.69
182.13,3.61
183.95,3.54
185.79,3.47
187.65,3.41
189.52,3.35
191.42,3.29
193.33,3.23
195.27,3.17
197.22,3.12
199.19,3.06
201.18,3.00
203.19,2.94
205.23,2.87
207.28,2.81
209.35,2.74
211.44,2.67
213.56,2.61
215.69,2.53
217.85,2.46
220.03,2.39
222.23,2.32
224.45,2.25
226.70,2.18
228.96,2.11
231.25,2.04
233.57,1.97
235.90,1.90
238.26,1.83
240.64,1.76
243.05,1.69
245.48,1.62
247.93,1.55
250.41,1.49
252.92,1.42
255.45,1.36
258.00,1.29
260.58,1.22
263.19,1.16
265.82,1.09
268.48,1.03
271.16,0.96
273.87,0.90
276.61,0.83
279.38,0.77
282.17,0.70
284.99,0.63
287.84,0.57
290.72,0.50
293.63,0.43
296.57,0.36
299.53,0.30
302.53,0.23
305.55,0.16
308.61,0.10
311.69,0.03
314.81,-0.03
317.96,-0.10
321.14,-0.17
324.35,-0.23
327.59,-0.30
330.87,-0.36
334.18,-0.43
337.52,-0.49
340.90,-0.56
344.30,-0.62
347.75,-0.68
351.23,-0.74
354.74,-0.81
358.28,-0.87
361.87,-0.93
365.49,-0.99
369.14,-1.04
372.83,-1.10
376.56,-1.16
380.33,-1.21
384.13,-1.26
387.97,-1.32
391.85,-1.37
395.77,-1.42
399.73,-1.47
403.72,-1.51
407.76,-1.56
411.84,-1.60
415.96,-1.64
420.12,-1.69
424.32,-1.73
428.56,-1.76
432.85,-1.80
437.18,-1.84
441.55,-1.87
445.96,-1.91
450.42,-1.94
454.93,-1.97
459.48,-2.00
464.07,-2.03
468.71,-2.05
473.40,-2.08
478.13,-2.11
482.91,-2.13
487.74,-2.16
492.62,-2.18
497.55,-2.20
502.52,-2.23
507.55,-2.25
512.62,-2.27
517.75,-2.29
522.93,-2.32
528.16,-2.34
533.44,-2.36
538.77,-2.38
544.16,-2.40
549.60,-2.42
555.10,-2.43
560.65,-2.45
566.25,-2.47
571.92,-2.49
577.64,-2.50
583.41,-2.52
589.25,-2.54
595.14,-2.55
601.09,-2.57
607.10,-2.58
613.17,-2.60
619.30,-2.61
625.50,-2.62
631.75,-2.64
638.07,-2.65
644.45,-2.66
650.89,-2.67
657.40,-2.67
663.98,-2.68
670.62,-2.69
677.32,-2.69
684.10,-2.69
690.94,-2.70
697.85,-2.70
704.83,-2.70
711.87,-2.70
718.99,-2.70
726.18,-2.70
733.44,-2.70
740.78,-2.69
748.19,-2.69
755.67,-2.68
763.23,-2.67
770.86,-2.65
778.57,-2.63
786.35,-2.60
794.22,-2.57
802.16,-2.53
810.18,-2.48
818.28,-2.42
826.46,-2.35
834.73,-2.27
843.08,-2.17
851.51,-2.07
860.02,-1.95
868.62,-1.83
877.31,-1.70
886.08,-1.56
894.94,-1.42
903.89,-1.28
912.93,-1.14
922.06,-1.00
931.28,-0.86
940.59,-0.73
950.00,-0.60
959.50,-0.48
969.09,-0.36
978.78,-0.24
988.57,-0.13
998.46,-0.02
1008.44,0.09
1018.53,0.20
1028.71,0.31
1039.00,0.42
1049.39,0.52
1059.88,0.63
1070.48,0.74
1081.19,0.85
1092.00,0.95
1102.92,1.06
1113.95,1.17
1125.09,1.27
1136.34,1.38
1147.70,1.48
1159.18,1.58
1170.77,1.67
1182.48,1.77
1194.30,1.86
1206.25,1.94
1218.31,2.03
1230.49,2.11
1242.80,2.18
1255.22,2.26
1267.78,2.33
1280.45,2.40
1293.26,2.47
1306.19,2.53
1319.25,2.60
1332.45,2.66
1345.77,2.72
1359.23,2.79
1372.82,2.85
1386.55,2.91
1400.41,2.97
1414.42,3.03
1428.56,3.09
1442.85,3.15
1457.28,3.22
1471.85,3.28
1486.57,3.35
1501.43,3.41
1516.45,3.48
1531.61,3.55
1546.93,3.63
1562.40,3.70
1578.02,3.78
1593.80,3.86
1609.74,3.94
1625.84,4.02
1642.10,4.11
1658.52,4.20
1675.10,4.29
1691.85,4.38
1708.77,4.48
1725.86,4.58
1743.12,4.68
1760.55,4.78
1778.15,4.89
1795.94,5.00
1813.90,5.12
1832.03,5.24
1850.36,5.36
1868.86,5.48
1887.55,5.61
1906.42,5.75
1925.49,5.88
1944.74,6.02
1964.19,6.17
1983.83,6.32
2003.67,6.47
2023.71,6.63
2043.94,6.79
2064.38,6.96
2085.03,7.13
2105.88,7.31
2126.94,7.49
2148.20,7.68
2169.69,7.87
2191.38,8.06
2213.30,8.27
2235.43,8.47
2257.78,8.69
2280.36,8.90
2303.17,9.13
2326.20,9.36
2349.46,9.59
2372.95,9.83
2396.68,10.08
2420.65,10.33
2444.86,10.58
2469.31,10.84
2494.00,11.11
2518.94,11.38
2544.13,11.66
2569.57,11.94
2595.27,12.23
2621.22,12.52
2647.43,12.81
2673.90,13.11
2700.64,13.41
2727.65,13.70
2754.93,14.00
2782.48,14.29
2810.30,14.57
2838.40,14.85
2866.79,15.11
2895.46,15.36
2924.41,15.59
2953.65,15.81
2983.19,15.99
3013.02,16.15
3043.15,16.28
3073.58,16.37
3104.32,16.44
3135.36,16.47
3166.72,16.47
3198.38,16.43
3230.37,16.36
3262.67,16.27
3295.30,16.14
3328.25,16.00
3361.53,15.84
3395.15,15.67
3429.10,15.49
3463.39,15.30
3498.03,15.10
3533.01,14.91
3568.34,14.72
3604.02,14.54
3640.06,14.37
3676.46,14.20
3713.22,14.05
3750.36,13.91
3787.86,13.79
3825.74,13.68
3864.00,13.60
3902.64,13.53
3941.66,13.48
3981.08,13.46
4020.89,13.46
4061.10,13.47
4101.71,13.52
4142.73,13.59
4184.15,13.67
4226.00,13.79
4268.26,13.93
4310.94,14.08
4354.05,14.25
4397.59,14.44
4441.56,14.63
4485.98,14.82
4530.84,15.00
4576.15,15.16
4621.91,15.30
4668.13,15.37
4714.81,15.40
4761.96,15.37
4809.58,15.24
4857.67,15.05
4906.25,14.79
4955.31,14.44
5004.87,14.04
5054.91,13.59
5105.46,13.08
5156.52,12.55
5208.08,12.00
5260.16,11.43
5312.77,10.87
5365.89,10.31
5419.55,9.76
5473.75,9.24
5528.49,8.73
5583.77,8.24
5639.61,7.78
5696.00,7.34
5752.96,6.92
5810.49,6.53
5868.60,6.16
5927.28,5.81
5986.56,5.49
6046.42,5.19
6106.89,4.90
6167.96,4.64
6229.64,4.40
6291.93,4.17
6354.85,3.97
6418.40,3.78
6482.58,3.61
6547.41,3.46
6612.88,3.33
6679.01,3.22
6745.80,3.12
6813.26,3.04
6881.39,2.98
6950.21,2.94
7019.71,2.91
7089.91,2.91
7160.81,2.92
7232.41,2.95
7304.74,3.00
7377.79,3.07
7451.56,3.15
7526.08,3.25
7601.34,3.37
7677.35,3.51
7754.13,3.66
7831.67,3.84
7909.98,4.02
7989.08,4.24
8068.98,4.48
8149.67,4.74
8231.16,5.03
8313.47,5.37
8396.61,5.74
8480.57,6.15
8565.38,6.62
8651.03,7.14
8737.54,7.70
8824.92,8.32
8913.17,8.96
9002.30,9.61
9092.32,10.23
9183.25,10.79
9275.08,11.25
9367.83,11.55
9461.51,11.63
9556.12,11.53
9651.68,11.21
9748.20,10.62
9845.68,9.88
9944.14,9.00
10043.58,7.99
10144.02,6.95
10245.46,5.90
10347.91,4.90
10451.39,3.95
10555.91,3.06
10661.46,2.27
10768.08,1.55
10875.76,0.89
10984.52,0.29
11094.36,-0.24
11205.31,-0.73
11317.36,-1.17
11430.53,-1.55
11544.84,-1.90
11660.29,-2.21
11776.89,-2.47
11894.66,-2.70
12013.60,-2.89
12133.74,-3.04
12255.08,-3.16
12377.63,-3.25
12501.41,-3.30
12626.42,-3.31
12752.68,-3.29
12880.21,-3.24
13009.01,-3.14
13139.10,-3.01
13270.49,-2.85
13403.20,-2.62
13537.23,-2.36
13672.60,-2.06
13809.33,-1.67
13947.42,-1.24
14086.90,-0.75
14227.77,-0.15
14370.04,0.53
14513.74,1.30
14658.88,2.21
14805.47,3.29
14953.52,4.49
15103.06,5.83
15254.09,7.18
15406.63,8.43
15560.70,9.55
15716.30,10.22
15873.47,10.57
16032.20,10.60
16192.52,10.07
16354.45,9.27
16517.99,8.25
16683.17,7.04
16850.01,5.84
17018.51,4.72
17188.69,3.77
17360.58,3.04
17534.18,2.46
17709.53,2.03
17886.62,1.81
18065.49,1.70
18246.14,1.71
18428.60,1.95
18612.89,2.30
18799.02,2.78
18987.01,3.41
19176.88,4.09
19368.65,4.75
19562.33,5.25
19757.96,5.31
19955.54,4.93
