frequency,raw,smoothed,error,error_smoothed,equalization,parametric_eq,fixed_band_eq,equalized_raw,equalized_smoothed,target
20.00,12.13,12.13,5.45,5.45,-5.46,-5.36,-2.08,6.67,6.68,6.68
20.20,12.12,12.12,5.44,5.44,-5.44,-5.35,-2.14,6.68,6.68,6.68
20.40,12.10,12.10,5.42,5.42,-5.42,-5.34,-2.20,6.68,6.68,6.68
20.61,12.08,12.08,5.40,5.40,-5.40,-5.32,-2.26,6.68,6.68,6.68
20.81,12.06,12.06,5.38,5.38,-5.38,-5.31,-2.33,6.68,6.68,6.68
21.02,12.04,12.04,5.36,5.36,-5.37,-5.30,-2.40,6.68,6.68,6.68
21.23,12.02,12.02,5.35,5.35,-5.35,-5.28,-2.47,6.67,6.67,6.68
21.44,12.00,12.00,5.33,5.33,-5.33,-5.27,-2.54,6.67,6.67,6.67
21.66,11.98,11.98,5.31,5.31,-5.31,-5.25,-2.62,6.68,6.68,6.67
21.87,11.96,11.96,5.29,5.29,-5.29,-5.24,-2.69,6.68,6.67,6.67
22.09,11.94,11.94,5.27,5.27,-5.26,-5.22,-2.77,6.68,6.67,6.67
22.31,11.91,11.91,5.24,5.24,-5.24,-5.20,-2.85,6.67,6.67,6.67
22.54,11.89,11.89,5.22,5.22,-5.22,-5.19,-2.93,6.67,6.67,6.67
22.76,11.87,11.87,5.20,5.20,-5.20,-5.17,-3.02,6.67,6.67,6.67
22.99,11.85,11.85,5.18,5.18,-5.18,-5.15,-3.10,6.67,6.67,6.67
23.22,11.83,11.83,5.16,5.16,-5.16,-5.14,-3.19,6.67,6.67,6.67
23.45,11.81,11.81,5.14,5.14,-5.14,-5.12,-3.28,6.67,6.67,6.67
23.69,11.78,11.79,5.12,5.12,-5.12,-5.10,-3.38,6.66,6.67,6.67
23.92,11.76,11.76,5.10,5.10,-5.10,-5.08,-3.47,6.66,6.66,6.66
24.16,11.74,11.74,5.08,5.07,-5.07,-5.06,-3.57,6.67,6.66,6.66
24.40,11.71,11.71,5.05,5.05,-5.05,-5.05,-3.67,6.66,6.66,6.66
24.65,11.69,11.69,5.03,5.03,-5.03,-5.03,-3.76,6.66,6.66,6.66
24.89,11.66,11.66,5.00,5.00,-5.00,-5.01,-3.86,6.66,6.66,6.66
25.14,11.64,11.64,4.98,4.98,-4.98,-4.99,-3.97,6.66,6.66,6.66
25.39,11.61,11.61,4.95,4.96,-4.96,-4.97,-4.07,6.65,6.66,6.66
25.65,11.59,11.59,4.94,4.93,-4.93,-4.95,-4.17,6.66,6.65,6.66
25.91,11.56,11.56,4.91,4.91,-4.91,-4.92,-4.27,6.65,6.65,6.65
26.16,11.54,11.54,4.89,4.89,-4.89,-4.90,-4.37,6.65,6.65,6.65
26.43,11.51,11.51,4.86,4.86,-4.86,-4.88,-4.47,6.65,6.65,6.65
26.69,11.49,11.49,4.84,4.84,-4.84,-4.86,-4.57,6.65,6.65,6.65
26.96,11.46,11.46,4.81,4.81,-4.81,-4.84,-4.67,6.65,6.65,6.65
27.23,11.43,11.43,4.79,4.79,-4.78,-4.81,-4.77,6.65,6.65,6.65
27.50,11.40,11.40,4.76,4.75,-4.75,-4.79,-4.86,6.65,6.64,6.64
27.77,11.36,11.36,4.72,4.72,-4.73,-4.77,-4.95,6.64,6.64,6.64
28.05,11.33,11.33,4.69,4.69,-4.69,-4.74,-5.04,6.64,6.64,6.64
28.33,11.30,11.30,4.66,4.66,-4.66,-4.72,-5.12,6.64,6.64,6.64
28.62,11.27,11.27,4.64,4.64,-4.63,-4.69,-5.19,6.64,6.64,6.64
28.90,11.24,11.24,4.61,4.60,-4.60,-4.67,-5.26,6.64,6.63,6.63
29.19,11.20,11.20,4.57,4.57,-4.57,-4.64,-5.33,6.63,6.63,6.63
29.48,11.17,11.17,4.54,4.54,-4.55,-4.61,-5.38,6.62,6.63,6.63
29.78,11.14,11.14,4.52,4.51,-4.52,-4.59,-5.44,6.62,6.62,6.63
30.08,11.11,11.11,4.49,4.49,-4.49,-4.56,-5.48,6.62,6.62,6.62
30.38,11.08,11.08,4.46,4.46,-4.46,-4.53,-5.51,6.62,6.62,6.62
30.68,11.05,11.05,4.43,4.43,-4.43,-4.50,-5.54,6.62,6.62,6.62
30.99,11.02,11.02,4.41,4.40,-4.40,-4.47,-5.56,6.62,6.62,6.61
31.30,10.98,10.98,4.37,4.37,-4.37,-4.44,-5.56,6.61,6.61,6.61
31.61,10.95,10.95,4.34,4.34,-4.34,-4.41,-5.56,6.61,6.61,6.61
31.93,10.91,10.91,4.31,4.31,-4.31,-4.38,-5.55,6.60,6.60,6.60
32.24,10.88,10.88,4.28,4.28,-4.28,-4.35,-5.54,6.60,6.60,6.60
32.57,10.84,10.84,4.24,4.25,-4.25,-4.32,-5.51,6.60,6.60,6.60
32.89,10.81,10.81,4.22,4.21,-4.21,-4.29,-5.48,6.60,6.59,6.59
33.22,10.77,10.77,4.18,4.18,-4.18,-4.26,-5.43,6.59,6.59,6.59
33.55,10.73,10.73,4.14,4.15,-4.15,-4.23,-5.39,6.58,6.59,6.59
33.89,10.70,10.70,4.12,4.11,-4.12,-4.20,-5.33,6.58,6.58,6.58
34.23,10.66,10.66,4.08,4.08,-4.08,-4.16,-5.27,6.58,6.58,6.58
34.57,10.62,10.63,4.05,4.05,-4.05,-4.13,-5.20,6.57,6.57,6.57
34.92,10.59,10.59,4.02,4.02,-4.02,-4.09,-5.13,6.57,6.57,6.57
35.27,10.55,10.55,3.99,3.99,-3.98,-4.06,-5.05,6.57,6.57,6.56
35.62,10.51,10.51,3.95,3.95,-3.95,-4.03,-4.97,6.56,6.56,6.56
35.97,10.47,10.47,3.92,3.92,-3.92,-3.99,-4.89,6.55,6.55,6.55
36.33,10.43,10.43,3.88,3.88,-3.88,-3.95,-4.80,6.55,6.55,6.55
36.70,10.39,10.39,3.85,3.85,-3.85,-3.92,-4.72,6.54,6.54,6.54
37.06,10.35,10.35,3.81,3.81,-3.81,-3.88,-4.63,6.54,6.54,6.54
37.43,10.31,10.31,3.78,3.78,-3.78,-3.84,-4.54,6.53,6.53,6.53
37.81,10.27,10.27,3.74,3.75,-3.74,-3.81,-4.45,6.53,6.53,6.53
38.19,10.23,10.23,3.71,3.71,-3.71,-3.77,-4.36,6.52,6.52,6.52
38.57,10.19,10.19,3.68,3.67,-3.67,-3.73,-4.27,6.52,6.51,6.51
38.95,10.14,10.14,3.63,3.64,-3.64,-3.69,-4.18,6.50,6.50,6.51
39.34,10.10,10.10,3.60,3.60,-3.60,-3.66,-4.09,6.50,6.50,6.50
39.74,10.06,10.06,3.57,3.57,-3.57,-3.62,-4.01,6.49,6.49,6.49
40.14,10.02,10.02,3.54,3.54,-3.53,-3.58,-3.92,6.49,6.49,6.48
40.54,9.98,9.98,3.50,3.50,-3.50,-3.54,-3.84,6.48,6.48,6.48
40.94,9.93,9.93,3.46,3.46,-3.46,-3.50,-3.76,6.47,6.47,6.47
41.35,9.89,9.89,3.43,3.43,-3.43,-3.46,-3.68,6.46,6.46,6.46
41.76,9.84,9.84,3.39,3.39,-3.39,-3.42,-3.60,6.45,6.45,6.45
42.18,9.80,9.80,3.36,3.36,-3.36,-3.38,-3.52,6.44,6.44,6.44
42.60,9.76,9.76,3.33,3.32,-3.32,-3.34,-3.45,6.44,6.43,6.43
43.03,9.71,9.71,3.29,3.29,-3.29,-3.30,-3.38,6.42,6.43,6.42
43.46,9.67,9.67,3.26,3.25,-3.25,-3.26,-3.31,6.42,6.41,6.41
43.90,9.62,9.62,3.22,3.22,-3.22,-3.22,-3.24,6.40,6.40,6.40
44.33,9.57,9.57,3.18,3.18,-3.18,-3.18,-3.18,6.39,6.39,6.39
44.78,9.53,9.53,3.15,3.15,-3.15,-3.14,-3.12,6.38,6.38,6.38
45.23,9.48,9.48,3.11,3.11,-3.11,-3.10,-3.06,6.37,6.37,6.37
45.68,9.44,9.44,3.08,3.08,-3.08,-3.06,-3.00,6.36,6.36,6.36
46.13,9.39,9.39,3.05,3.04,-3.04,-3.02,-2.95,6.35,6.35,6.34
46.60,9.34,9.34,3.01,3.01,-3.01,-2.98,-2.90,6.33,6.33,6.33
47.06,9.29,9.29,2.97,2.98,-2.98,-2.94,-2.85,6.31,6.32,6.32
47.53,9.25,9.25,2.95,2.94,-2.94,-2.90,-2.80,6.31,6.30,6.30
48.01,9.20,9.20,2.91,2.91,-2.91,-2.87,-2.76,6.29,6.29,6.29
48.49,9.15,9.15,2.88,2.88,-2.88,-2.83,-2.71,6.27,6.28,6.28
48.97,9.10,9.10,2.84,2.84,-2.84,-2.79,-2.67,6.26,6.26,6.26
49.46,9.06,9.06,2.82,2.81,-2.81,-2.75,-2.63,6.25,6.24,6.24
49.96,9.01,9.01,2.78,2.78,-2.78,-2.72,-2.60,6.23,6.23,6.23
50.46,8.96,8.96,2.75,2.75,-2.75,-2.68,-2.56,6.21,6.21,6.21
50.96,8.91,8.91,2.72,2.72,-2.72,-2.64,-2.53,6.19,6.19,6.19
51.47,8.86,8.86,2.68,2.69,-2.68,-2.61,-2.50,6.18,6.18,6.18
51.99,8.81,8.81,2.65,2.65,-2.65,-2.58,-2.47,6.16,6.16,6.16
52.51,8.76,8.76,2.62,2.62,-2.62,-2.54,-2.44,6.14,6.14,6.14
53.03,8.71,8.71,2.59,2.59,-2.59,-2.51,-2.42,6.12,6.12,6.12
53.56,8.65,8.65,2.55,2.56,-2.56,-2.48,-2.39,6.09,6.09,6.10
54.10,8.60,8.60,2.53,2.52,-2.53,-2.45,-2.37,6.07,6.07,6.08
54.64,8.55,8.55,2.50,2.50,-2.50,-2.42,-2.35,6.05,6.05,6.05
55.18,8.50,8.51,2.47,2.47,-2.47,-2.39,-2.32,6.03,6.03,6.03
55.74,8.46,8.46,2.45,2.45,-2.44,-2.36,-2.30,6.02,6.01,6.01
56.29,8.41,8.41,2.43,2.42,-2.42,-2.33,-2.28,5.99,5.99,5.98
56.86,8.35,8.35,2.39,2.39,-2.39,-2.31,-2.27,5.96,5.96,5.96
57.42,8.30,8.30,2.37,2.37,-2.37,-2.28,-2.25,5.93,5.93,5.93
58.00,8.24,8.25,2.33,2.34,-2.35,-2.26,-2.23,5.90,5.90,5.91
58.58,8.20,8.20,2.32,2.32,-2.32,-2.24,-2.22,5.88,5.88,5.88
59.16,8.15,8.15,2.30,2.30,-2.30,-2.22,-2.20,5.85,5.85,5.85
59.76,8.10,8.10,2.28,2.28,-2.27,-2.20,-2.18,5.83,5.83,5.82
60.35,8.05,8.05,2.26,2.25,-2.25,-2.18,-2.17,5.80,5.80,5.79
60.96,7.99,7.99,2.23,2.23,-2.23,-2.16,-2.15,5.76,5.76,5.76
61.57,7.93,7.93,2.20,2.20,-2.21,-2.14,-2.14,5.73,5.73,5.73
62.18,7.88,7.88,2.18,2.18,-2.18,-2.13,-2.13,5.70,5.69,5.70
62.80,7.82,7.82,2.16,2.16,-2.16,-2.12,-2.11,5.66,5.66,5.67
63.43,7.77,7.77,2.14,2.14,-2.14,-2.10,-2.10,5.63,5.63,5.63
64.07,7.72,7.72,2.13,2.12,-2.12,-2.09,-2.08,5.60,5.60,5.60
64.71,7.66,7.66,2.10,2.10,-2.10,-2.08,-2.07,5.56,5.56,5.56
65.35,7.61,7.61,2.09,2.09,-2.09,-2.07,-2.06,5.52,5.52,5.52
66.01,7.55,7.55,2.07,2.07,-2.07,-2.06,-2.04,5.48,5.48,5.48
66.67,7.50,7.50,2.06,2.06,-2.06,-2.06,-2.03,5.45,5.45,5.45
67.33,7.45,7.45,2.04,2.04,-2.04,-2.05,-2.02,5.41,5.41,5.41
68.01,7.39,7.39,2.03,2.03,-2.03,-2.05,-2.01,5.36,5.37,5.36
68.69,7.34,7.34,2.02,2.02,-2.02,-2.04,-1.99,5.33,5.32,5.32
69.37,7.28,7.28,2.00,2.00,-2.00,-2.04,-1.98,5.28,5.28,5.28
70.07,7.23,7.23,2.00,1.99,-1.99,-2.04,-1.97,5.24,5.24,5.24
70.77,7.17,7.17,1.98,1.98,-1.98,-2.04,-1.96,5.19,5.19,5.19
71.48,7.12,7.12,1.98,1.97,-1.97,-2.04,-1.95,5.15,5.14,5.14
72.19,7.06,7.06,1.96,1.97,-1.97,-2.04,-1.94,5.09,5.10,5.10
72.91,7.01,7.01,1.96,1.96,-1.96,-2.04,-1.94,5.05,5.05,5.05
73.64,6.95,6.95,1.95,1.95,-1.95,-2.04,-1.93,5.00,5.00,5.00
74.38,6.90,6.90,1.95,1.95,-1.95,-2.05,-1.92,4.95,4.95,4.95
75.12,6.84,6.84,1.94,1.94,-1.95,-2.05,-1.92,4.90,4.90,4.90
75.87,6.79,6.79,1.94,1.94,-1.94,-2.05,-1.91,4.85,4.85,4.85
76.63,6.73,6.73,1.94,1.94,-1.94,-2.06,-1.91,4.79,4.79,4.79
77.40,6.68,6.68,1.94,1.94,-1.94,-2.06,-1.91,4.74,4.74,4.74
78.17,6.62,6.62,1.94,1.94,-1.94,-2.07,-1.91,4.68,4.68,4.68
78.95,6.57,6.57,1.94,1.94,-1.94,-2.08,-1.91,4.63,4.63,4.63
79.74,6.51,6.51,1.94,1.94,-1.94,-2.08,-1.91,4.57,4.57,4.57
80.54,6.46,6.46,1.95,1.95,-1.95,-2.09,-1.91,4.51,4.51,4.51
81.35,6.40,6.40,1.95,1.95,-1.95,-2.10,-1.91,4.45,4.45,4.45
82.16,6.34,6.35,1.95,1.95,-1.95,-2.11,-1.92,4.39,4.39,4.39
82.98,6.29,6.29,1.96,1.96,-1.96,-2.11,-1.93,4.33,4.33,4.33
83.81,6.24,6.24,1.97,1.97,-1.97,-2.12,-1.94,4.27,4.27,4.27
84.65,6.18,6.18,1.97,1.97,-1.98,-2.13,-1.95,4.21,4.21,4.21
85.50,6.12,6.13,1.98,1.98,-1.98,-2.14,-1.96,4.14,4.14,4.14
86.35,6.07,6.07,1.99,1.99,-1.99,-2.15,-1.97,4.08,4.08,4.08
87.22,6.02,6.02,2.01,2.01,-2.00,-2.15,-1.98,4.02,4.01,4.01
88.09,5.96,5.96,2.01,2.02,-2.02,-2.16,-2.00,3.95,3.95,3.95
88.97,5.91,5.91,2.03,2.03,-2.03,-2.17,-2.02,3.88,3.88,3.88
89.86,5.85,5.85,2.04,2.04,-2.04,-2.18,-2.04,3.81,3.81,3.81
90.76,5.80,5.80,2.06,2.05,-2.05,-2.19,-2.06,3.75,3.74,3.74
91.66,5.74,5.74,2.06,2.06,-2.07,-2.20,-2.08,3.67,3.67,3.68
92.58,5.68,5.69,2.07,2.08,-2.08,-2.21,-2.10,3.60,3.61,3.61
93.51,5.63,5.63,2.09,2.09,-2.09,-2.21,-2.13,3.54,3.54,3.54
94.44,5.58,5.58,2.11,2.11,-2.11,-2.22,-2.15,3.47,3.47,3.47
95.39,5.52,5.52,2.13,2.13,-2.13,-2.23,-2.18,3.39,3.40,3.40
96.34,5.47,5.47,2.15,2.14,-2.14,-2.24,-2.21,3.33,3.32,3.32
97.30,5.41,5.41,2.16,2.16,-2.16,-2.25,-2.24,3.25,3.25,3.25
98.28,5.36,5.36,2.18,2.18,-2.18,-2.26,-2.27,3.18,3.18,3.18
99.26,5.31,5.31,2.20,2.20,-2.20,-2.26,-2.30,3.11,3.11,3.11
100.25,5.25,5.25,2.21,2.22,-2.22,-2.27,-2.33,3.03,3.04,3.04
101.25,5.20,5.20,2.24,2.23,-2.23,-2.28,-2.36,2.97,2.96,2.96
102.27,5.14,5.14,2.25,2.25,-2.25,-2.29,-2.40,2.89,2.89,2.89
103.29,5.09,5.09,2.27,2.27,-2.27,-2.30,-2.43,2.82,2.82,2.82
104.32,5.04,5.04,2.30,2.29,-2.29,-2.31,-2.47,2.75,2.74,2.75
105.37,4.98,4.98,2.31,2.31,-2.31,-2.31,-2.50,2.67,2.67,2.67
106.42,4.93,4.93,2.33,2.33,-2.33,-2.32,-2.53,2.60,2.60,2.60
107.48,4.88,4.88,2.35,2.35,-2.35,-2.33,-2.57,2.53,2.53,2.53
108.56,4.82,4.82,2.37,2.37,-2.37,-2.34,-2.60,2.45,2.45,2.45
109.64,4.77,4.77,2.39,2.39,-2.39,-2.35,-2.63,2.38,2.38,2.38
110.74,4.72,4.72,2.41,2.41,-2.41,-2.36,-2.67,2.31,2.31,2.31
111.85,4.66,4.67,2.43,2.43,-2.43,-2.36,-2.70,2.23,2.24,2.24
112.97,4.61,4.61,2.45,2.45,-2.45,-2.37,-2.73,2.16,2.16,2.16
114.10,4.56,4.56,2.47,2.46,-2.46,-2.38,-2.76,2.10,2.09,2.09
115.24,4.50,4.51,2.48,2.48,-2.48,-2.39,-2.78,2.02,2.02,2.02
116.39,4.45,4.45,2.50,2.50,-2.50,-2.40,-2.81,1.95,1.95,1.95
117.55,4.40,4.39,2.52,2.52,-2.52,-2.41,-2.83,1.88,1.88,1.88
118.73,4.34,4.34,2.53,2.53,-2.54,-2.42,-2.85,1.80,1.80,1.81
119.92,4.28,4.29,2.54,2.55,-2.55,-2.43,-2.86,1.73,1.73,1.74
121.12,4.24,4.24,2.57,2.57,-2.57,-2.44,-2.88,1.67,1.67,1.67
122.33,4.20,4.20,2.60,2.59,-2.59,-2.45,-2.89,1.61,1.60,1.60
123.55,4.15,4.15,2.62,2.62,-2.61,-2.46,-2.90,1.54,1.54,1.54
124.79,4.10,4.10,2.63,2.63,-2.63,-2.47,-2.90,1.48,1.48,1.47
126.03,4.05,4.05,2.65,2.65,-2.64,-2.48,-2.91,1.41,1.40,1.40
127.29,3.99,3.99,2.65,2.66,-2.66,-2.49,-2.91,1.33,1.34,1.34
128.57,3.94,3.94,2.67,2.67,-2.67,-2.50,-2.90,1.27,1.27,1.27
129.85,3.89,3.89,2.68,2.68,-2.69,-2.52,-2.90,1.20,1.20,1.21
131.15,3.84,3.84,2.70,2.70,-2.70,-2.53,-2.89,1.14,1.14,1.15
132.46,3.80,3.80,2.72,2.71,-2.71,-2.54,-2.88,1.09,1.09,1.08
133.79,3.75,3.75,2.73,2.73,-2.72,-2.55,-2.87,1.03,1.03,1.02
135.12,3.70,3.70,2.74,2.74,-2.74,-2.56,-2.85,0.96,0.97,0.96
136.48,3.65,3.65,2.75,2.75,-2.75,-2.58,-2.83,0.90,0.90,0.90
137.84,3.60,3.60,2.76,2.76,-2.76,-2.59,-2.81,0.84,0.84,0.84
139.22,3.55,3.55,2.76,2.77,-2.77,-2.60,-2.79,0.78,0.78,0.79
140.61,3.50,3.50,2.77,2.77,-2.78,-2.61,-2.77,0.72,0.73,0.73
142.02,3.46,3.46,2.79,2.78,-2.78,-2.63,-2.75,0.68,0.67,0.67
143.44,3.41,3.41,2.79,2.79,-2.79,-2.64,-2.72,0.62,0.62,0.62
144.87,3.36,3.36,2.80,2.80,-2.80,-2.65,-2.70,0.56,0.57,0.57
146.32,3.32,3.32,2.81,2.80,-2.80,-2.66,-2.67,0.52,0.51,0.51
147.78,3.27,3.27,2.81,2.81,-2.81,-2.67,-2.65,0.46,0.46,0.46
149.26,3.22,3.22,2.81,2.81,-2.81,-2.69,-2.62,0.41,0.41,0.41
150.75,3.18,3.18,2.82,2.82,-2.82,-2.70,-2.60,0.36,0.36,0.36
152.26,3.13,3.13,2.82,2.82,-2.82,-2.71,-2.58,0.31,0.31,0.31
153.78,3.09,3.09,2.83,2.82,-2.82,-2.72,-2.55,0.27,0.27,0.27
155.32,3.04,3.04,2.82,2.82,-2.82,-2.73,-2.53,0.22,0.22,0.22
156.88,3.00,3.00,2.83,2.82,-2.83,-2.74,-2.51,0.17,0.17,0.17
158.44,2.95,2.95,2.82,2.83,-2.83,-2.75,-2.49,0.12,0.13,0.13
160.03,2.91,2.91,2.83,2.83,-2.83,-2.76,-2.47,0.08,0.08,0.09
161.63,2.87,2.87,2.84,2.83,-2.83,-2.77,-2.45,0.04,0.04,0.03
163.24,2.82,2.83,2.83,2.83,-2.83,-2.78,-2.43,-0.01,-0.00,-0.01
164.88,2.78,2.78,2.83,2.83,-2.83,-2.79,-2.42,-0.05,-0.05,-0.05
166.53,2.74,2.74,2.83,2.82,-2.82,-2.79,-2.40,-0.08,-0.09,-0.09
168.19,2.69,2.69,2.82,2.82,-2.82,-2.80,-2.39,-0.13,-0.13,-0.13
169.87,2.65,2.65,2.81,2.81,-2.82,-2.81,-2.38,-0.17,-0.17,-0.16
171.57,2.61,2.61,2.81,2.81,-2.81,-2.81,-2.38,-0.20,-0.20,-0.20
173.29,2.57,2.57,2.81,2.81,-2.81,-2.82,-2.37,-0.24,-0.24,-0.24
175.02,2.53,2.53,2.80,2.80,-2.80,-2.82,-2.36,-0.27,-0.27,-0.27
176.77,2.49,2.49,2.79,2.80,-2.79,-2.82,-2.36,-0.30,-0.30,-0.30
178.54,2.45,2.45,2.79,2.79,-2.78,-2.82,-2.36,-0.33,-0.33,-0.34
180.32,2.41,2.41,2.78,2.78,-2.77,-2.82,-2.36,-0.36,-0.37,-0.37
182.13,2.36,2.36,2.76,2.76,-2.76,-2.82,-2.36,-0.40,-0.40,-0.40
183.95,2.32,2.32,2.75,2.75,-2.75,-2.82,-2.37,-0.43,-0.43,-0.43
185.79,2.28,2.28,2.74,2.74,-2.74,-2.82,-2.37,-0.46,-0.46,-0.46
187.65,2.24,2.24,2.73,2.73,-2.73,-2.82,-2.38,-0.49,-0.49,-0.49
189.52,2.21,2.20,2.72,2.72,-2.72,-2.81,-2.39,-0.51,-0.51,-0.51
191.42,2.16,2.17,2.70,2.71,-2.71,-2.81,-2.40,-0.54,-0.54,-0.54
193.33,2.13,2.13,2.70,2.70,-2.69,-2.80,-2.41,-0.56,-0.56,-0.57
195.27,2.09,2.09,2.68,2.68,-2.68,-2.79,-2.43,-0.59,-0.59,-0.59
197.22,2.05,2.05,2.67,2.67,-2.67,-2.78,-2.44,-0.62,-0.62,-0.62
199.19,2.01,2.01,2.65,2.65,-2.65,-2.77,-2.46,-0.64,-0.64,-0.64
201.18,1.97,1.97,2.63,2.64,-2.64,-2.76,-2.48,-0.67,-0.66,-0.66
203.19,1.94,1.94,2.63,2.62,-2.62,-2.75,-2.49,-0.68,-0.69,-0.68
205.23,1.90,1.90,2.61,2.61,-2.61,-2.74,-2.51,-0.71,-0.71,-0.71
207.28,1.86,1.87,2.59,2.59,-2.59,-2.73,-2.53,-0.73,-0.73,-0.73
209.35,1.83,1.83,2.58,2.57,-2.57,-2.71,-2.55,-0.74,-0.75,-0.75
211.44,1.79,1.79,2.56,2.56,-2.56,-2.69,-2.57,-0.77,-0.77,-0.77
213.56,1.75,1.75,2.54,2.54,-2.54,-2.68,-2.59,-0.79,-0.78,-0.79
215.69,1.72,1.72,2.52,2.52,-2.52,-2.66,-2.61,-0.80,-0.80,-0.80
217.85,1.68,1.68,2.50,2.50,-2.50,-2.64,-2.63,-0.82,-0.82,-0.82
220.03,1.64,1.64,2.48,2.48,-2.48,-2.62,-2.65,-0.84,-0.84,-0.84
222.23,1.61,1.61,2.47,2.46,-2.46,-2.60,-2.67,-0.85,-0.86,-0.85
224.45,1.57,1.57,2.44,2.44,-2.44,-2.58,-2.68,-0.87,-0.87,-0.87
226.70,1.54,1.54,2.43,2.43,-2.42,-2.56,-2.70,-0.88,-0.88,-0.89
228.96,1.51,1.51,2.41,2.41,-2.41,-2.53,-2.71,-0.89,-0.90,-0.90
231.25,1.47,1.47,2.39,2.39,-2.39,-2.51,-2.72,-0.92,-0.91,-0.92
233.57,1.44,1.44,2.37,2.37,-2.37,-2.49,-2.73,-0.93,-0.93,-0.93
235.90,1.40,1.40,2.35,2.35,-2.35,-2.46,-2.74,-0.95,-0.95,-0.95
238.26,1.37,1.37,2.34,2.34,-2.34,-2.44,-2.74,-0.97,-0.97,-0.97
240.64,1.34,1.34,2.32,2.32,-2.33,-2.41,-2.74,-0.99,-0.99,-0.98
243.05,1.33,1.33,2.32,2.32,-2.33,-2.38,-2.74,-0.99,-1.00,-0.99
245.48,1.31,1.31,2.31,2.32,-2.32,-2.36,-2.74,-1.01,-1.01,-1.00
247.93,1.30,1.30,2.31,2.32,-2.31,-2.33,-2.73,-1.01,-1.01,-1.01
250.41,1.29,1.29,2.32,2.31,-2.30,-2.30,-2.72,-1.01,-1.02,-1.02
252.92,1.27,1.27,2.31,2.30,-2.29,-2.27,-2.70,-1.02,-1.03,-1.04
255.45,1.24,1.24,2.29,2.29,-2.28,-2.24,-2.68,-1.04,-1.04,-1.05
258.00,1.21,1.21,2.27,2.27,-2.27,-2.21,-2.66,-1.06,-1.06,-1.06
260.58,1.18,1.18,2.25,2.25,-2.25,-2.18,-2.64,-1.07,-1.07,-1.06
263.19,1.15,1.15,2.22,2.23,-2.23,-2.15,-2.61,-1.08,-1.08,-1.07
265.82,1.12,1.12,2.20,2.20,-2.20,-2.12,-2.58,-1.08,-1.08,-1.08
268.48,1.09,1.09,2.18,2.18,-2.18,-2.09,-2.55,-1.09,-1.09,-1.09
271.16,1.05,1.05,2.15,2.15,-2.16,-2.06,-2.51,-1.10,-1.10,-1.10
273.87,1.02,1.02,2.13,2.13,-2.13,-2.03,-2.47,-1.11,-1.11,-1.11
276.61,0.99,0.99,2.11,2.11,-2.10,-2.00,-2.43,-1.11,-1.12,-1.12
279.38,0.96,0.96,2.08,2.08,-2.08,-1.97,-2.39,-1.12,-1.12,-1.12
282.17,0.93,0.93,2.06,2.06,-2.05,-1.94,-2.35,-1.12,-1.12,-1.13
284.99,0.90,0.90,2.03,2.03,-2.03,-1.91,-2.30,-1.13,-1.13,-1.13
287.84,0.87,0.87,1.99,2.00,-2.00,-1.88,-2.26,-1.13,-1.13,-1.12
290.72,0.84,0.84,1.97,1.97,-1.98,-1.85,-2.21,-1.14,-1.13,-1.13
293.63,0.82,0.82,1.96,1.95,-1.95,-1.82,-2.16,-1.13,-1.13,-1.14
296.57,0.80,0.80,1.93,1.93,-1.93,-1.79,-2.11,-1.13,-1.13,-1.13
299.53,0.78,0.78,1.91,1.91,-1.91,-1.76,-2.06,-1.13,-1.13,-1.13
302.53,0.76,0.76,1.89,1.89,-1.89,-1.73,-2.01,-1.13,-1.13,-1.13
305.55,0.74,0.74,1.87,1.87,-1.87,-1.70,-1.96,-1.13,-1.13,-1.13
308.61,0.73,0.73,1.86,1.86,-1.86,-1.67,-1.91,-1.13,-1.13,-1.13
311.69,0.71,0.71,1.84,1.84,-1.85,-1.64,-1.86,-1.14,-1.14,-1.13
314.81,0.70,0.70,1.83,1.83,-1.84,-1.61,-1.82,-1.14,-1.14,-1.13
317.96,0.70,0.70,1.83,1.83,-1.84,-1.58,-1.77,-1.14,-1.14,-1.13
321.14,0.70,0.70,1.83,1.83,-1.84,-1.55,-1.72,-1.14,-1.13,-1.13
324.35,0.71,0.71,1.84,1.83,-1.84,-1.52,-1.67,-1.12,-1.13,-1.13
327.59,0.71,0.71,1.83,1.84,-1.83,-1.49,-1.62,-1.12,-1.12,-1.12
330.87,0.71,0.71,1.84,1.83,-1.83,-1.47,-1.58,-1.12,-1.12,-1.12
334.18,0.71,0.71,1.83,1.83,-1.82,-1.44,-1.53,-1.11,-1.11,-1.12
337.52,0.70,0.70,1.82,1.82,-1.81,-1.41,-1.49,-1.11,-1.11,-1.12
340.90,0.68,0.68,1.80,1.79,-1.79,-1.38,-1.45,-1.11,-1.11,-1.12
344.30,0.65,0.65,1.76,1.77,-1.76,-1.36,-1.40,-1.11,-1.11,-1.11
347.75,0.63,0.63,1.73,1.73,-1.74,-1.33,-1.36,-1.11,-1.11,-1.10
351.23,0.60,0.60,1.71,1.70,-1.71,-1.30,-1.32,-1.11,-1.10,-1.11
354.74,0.58,0.58,1.67,1.67,-1.67,-1.27,-1.28,-1.09,-1.10,-1.09
358.28,0.55,0.55,1.64,1.64,-1.64,-1.25,-1.24,-1.09,-1.09,-1.09
361.87,0.52,0.52,1.61,1.61,-1.61,-1.22,-1.21,-1.09,-1.08,-1.08
365.49,0.50,0.50,1.58,1.58,-1.58,-1.20,-1.17,-1.08,-1.08,-1.08
369.14,0.47,0.47,1.55,1.54,-1.54,-1.17,-1.14,-1.07,-1.07,-1.08
372.83,0.44,0.44,1.50,1.51,-1.51,-1.15,-1.10,-1.07,-1.07,-1.06
376.56,0.42,0.42,1.49,1.48,-1.48,-1.12,-1.07,-1.06,-1.07,-1.06
380.33,0.39,0.39,1.45,1.45,-1.45,-1.10,-1.03,-1.06,-1.06,-1.06
384.13,0.37,0.37,1.43,1.43,-1.42,-1.07,-1.00,-1.05,-1.05,-1.06
387.97,0.35,0.35,1.40,1.40,-1.39,-1.05,-0.97,-1.04,-1.05,-1.05
391.85,0.33,0.33,1.36,1.37,-1.37,-1.02,-0.94,-1.04,-1.04,-1.03
395.77,0.30,0.30,1.34,1.34,-1.34,-1.00,-0.91,-1.04,-1.04,-1.04
399.73,0.28,0.28,1.31,1.31,-1.32,-0.98,-0.89,-1.04,-1.03,-1.03
403.72,0.27,0.27,1.29,1.29,-1.29,-0.95,-0.86,-1.02,-1.03,-1.02
407.76,0.25,0.25,1.27,1.27,-1.27,-0.93,-0.83,-1.02,-1.02,-1.02
411.84,0.23,0.23,1.24,1.24,-1.24,-0.91,-0.81,-1.01,-1.01,-1.01
415.96,0.21,0.21,1.22,1.22,-1.22,-0.88,-0.78,-1.01,-1.01,-1.00
420.12,0.19,0.19,1.20,1.19,-1.19,-0.86,-0.76,-1.00,-1.00,-1.01
424.32,0.17,0.17,1.17,1.17,-1.17,-0.84,-0.73,-0.99,-1.00,-1.00
428.56,0.14,0.14,1.13,1.14,-1.13,-0.82,-0.71,-0.99,-0.99,-0.99
432.85,0.12,0.12,1.10,1.10,-1.10,-0.80,-0.69,-0.98,-0.98,-0.98
437.18,0.09,0.09,1.07,1.07,-1.07,-0.78,-0.67,-0.98,-0.98,-0.98
441.55,0.06,0.06,1.03,1.03,-1.03,-0.75,-0.65,-0.97,-0.97,-0.97
445.96,0.03,0.03,1.00,0.99,-0.99,-0.73,-0.63,-0.96,-0.96,-0.97
450.42,0.00,0.00,0.95,0.95,-0.95,-0.71,-0.61,-0.95,-0.95,-0.95
454.93,-0.03,-0.03,0.91,0.91,-0.91,-0.69,-0.59,-0.94,-0.94,-0.94
459.48,-0.06,-0.06,0.87,0.87,-0.87,-0.67,-0.57,-0.93,-0.93,-0.93
464.07,-0.09,-0.09,0.84,0.84,-0.84,-0.65,-0.55,-0.93,-0.93,-0.93
468.71,-0.12,-0.12,0.80,0.80,-0.80,-0.63,-0.54,-0.92,-0.92,-0.92
473.40,-0.14,-0.14,0.77,0.77,-0.77,-0.61,-0.52,-0.91,-0.92,-0.91
478.13,-0.17,-0.16,0.73,0.74,-0.75,-0.59,-0.50,-0.92,-0.91,-0.90
482.91,-0.18,-0.18,0.71,0.71,-0.72,-0.57,-0.49,-0.90,-0.90,-0.89
487.74,-0.19,-0.19,0.70,0.70,-0.70,-0.55,-0.47,-0.89,-0.89,-0.89
492.62,-0.20,-0.20,0.68,0.68,-0.67,-0.53,-0.46,-0.87,-0.87,-0.88
497.55,-0.21,-0.21,0.66,0.65,-0.64,-0.51,-0.45,-0.85,-0.86,-0.87
502.52,-0.24,-0.24,0.62,0.62,-0.61,-0.49,-0.43,-0.85,-0.85,-0.86
