frequency,raw
20.00,-3.94
20.20,-3.84
20.40,-3.74
20.61,-3.63
20.81,-3.53
21.02,-3.43
21.23,-3.33
21.44,-3.22
21.66,-3.12
21.87,-3.01
22.09,-2.90
22.31,-2.80
22.54,-2.69
22.76,-2.58
22.99,-2.47
23.22,-2.37
23.45,-2.26
23.69,-2.15
23.92,-2.04
24.16,-1.94
24.40,-1.83
24.65,-1.72
24.89,-1.61
25.14,-1.50
25.39,-1.38
25.65,-1.27
25.91,-1.16
26.16,-1.05
26.43,-0.94
26.69,-0.83
26.96,-0.72
27.23,-0.61
27.50,-0.49
27.77,-0.38
28.05,-0.27
28.33,-0.16
28.62,-0.04
28.90,0.07
29.19,0.18
29.48,0.29
29.78,0.41
30.08,0.52
30.38,0.63
30.68,0.74
30.99,0.86
31.30,0.96
31.61,1.07
31.93,1.18
32.24,1.30
32.57,1.41
32.89,1.52
33.22,1.64
33.55,1.75
33.89,1.86
34.23,1.97
34.57,2.08
34.92,2.18
35.27,2.29
35.62,2.40
35.97,2.50
36.33,2.60
36.70,2.70
37.06,2.80
37.43,2.89
37.81,2.99
38.19,3.09
38.57,3.19
38.95,3.29
39.34,3.38
39.74,3.47
40.14,3.56
40.54,3.65
40.94,3.74
41.35,3.82
41.76,3.91
42.18,4.00
42.60,4.08
43.03,4.17
43.46,4.25
43.90,4.33
44.33,4.41
44.78,4.50
45.23,4.58
45.68,4.67
46.13,4.75
46.60,4.84
47.06,4.92
47.53,5.01
48.01,5.10
48.49,5.19
48.97,5.28
49.46,5.36
49.96,5.44
50.46,5.53
50.96,5.62
51.47,5.71
51.99,5.79
52.51,5.87
53.03,5.95
53.56,6.03
54.10,6.10
54.64,6.17
55.18,6.25
55.74,6.32
56.29,6.40
56.86,6.46
57.42,6.53
58.00,6.60
58.58,6.68
59.16,6.75
59.76,6.83
60.35,6.91
60.96,6.98
61.57,7.05
62.18,7.12
62.80,7.20
63.43,7.26
64.07,7.32
64.71,7.38
65.35,7.44
66.01,7.50
66.67,7.56
67.33,7.62
68.01,7.68
68.69,7.73
69.37,7.78
70.07,7.83
70.77,7.87
71.48,7.90
72.19,7.93
72.91,7.97
73.64,8.00
74.38,8.03
75.12,8.06
75.87,8.09
76.63,8.13
77.40,8.16
78.17,8.19
78.95,8.22
79.74,8.24
80.54,8.27
81.35,8.30
82.16,8.34
82.98,8.37
83.81,8.40
84.65,8.44
85.50,8.47
86.35,8.51
87.22,8.55
88.09,8.60
88.97,8.65
89.86,8.69
90.76,8.74
91.66,8.78
92.58,8.82
93.51,8.87
94.44,8.91
95.39,8.96
96.34,9.01
97.30,9.05
98.28,9.09
99.26,9.13
100.25,9.18
101.25,9.23
102.27,9.26
103.29,9.28
104.32,9.30
105.37,9.33
106.42,9.35
107.48,9.38
108.56,9.40
109.64,9.41
110.74,9.41
111.85,9.41
112.97,9.41
114.10,9.42
115.24,9.44
116.39,9.45
117.55,9.48
118.73,9.52
119.92,9.56
121.12,9.60
122.33,9.62
123.55,9.65
124.79,9.68
126.03,9.73
127.29,9.75
128.57,9.77
129.85,9.77
131.15,9.76
132.46,9.74
133.79,9.70
135.12,9.66
136.48,9.64
137.84,9.60
139.22,9.57
140.61,9.54
142.02,9.49
143.44,9.47
144.87,9.44
146.32,9.43
147.78,9.42
149.26,9.41
150.75,9.40
152.26,9.39
153.78,9.37
155.32,9.37
156.88,9.34
158.44,9.32
160.03,9.27
161.63,9.24
163.24,9.20
164.88,9.14
166.53,9.08
168.19,9.03
169.87,8.95
171.57,8.90
173.29,8.85
175.02,8.77
176.77,8.72
178.54,8.66
180.32,8.60
182.13,8.54
183.95,8.45
185.79,8.39
187.65,8.33
189.52,8.28
191.42,8.23
193.33,8.16
195.27,8.10
197.22,8.03
199.19,7.98
201.18,7.92
203.19,7.85
205.23,7.77
207.28,7.70
209.35,7.64
211.44,7.56
213.56,7.48
215.69,7.39
217.85,7.32
220.03,7.28
222.23,7.22
224.45,7.14
226.70,7.05
228.96,6.97
231.25,6.93
233.57,6.87
235.90,6.79
238.26,6.75
240.64,6.69
243.05,6.64
245.48,6.58
247.93,6.49
250.41,6.46
252.92,6.41
255.45,6.38
258.00,6.34
260.58,6.27
263.19,6.23
265.82,6.17
268.48,6.14
271.16,6.09
273.87,6.03
276.61,5.99
279.38,5.96
282.17,5.93
284.99,5.91
287.84,5.88
290.72,5.86
293.63,5.84
296.57,5.83
299.53,5.84
302.53,5.85
305.55,5.85
308.61,5.85
311.69,5.84
314.81,5.82
317.96,5.80
321.14,5.77
324.35,5.73
327.59,5.69
330.87,5.67
334.18,5.63
337.52,5.59
340.90,5.57
344.30,5.54
347.75,5.53
351.23,5.51
354.74,5.50
358.28,5.50
361.87,5.51
365.49,5.52
369.14,5.52
372.83,5.52
376.56,5.52
380.33,5.52
384.13,5.52
387.97,5.52
391.85,5.52
395.77,5.52
399.73,5.53
403.72,5.53
407.76,5.54
411.84,5.54
415.96,5.53
420.12,5.52
424.32,5.50
428.56,5.49
432.85,5.47
437.18,5.44
441.55,5.41
445.96,5.37
450.42,5.31
454.93,5.26
459.48,5.20
464.07,5.13
468.71,5.06
473.40,4.97
478.13,4.89
482.91,4.79
487.74,4.70
492.62,4.61
497.55,4.52
502.52,4.41
507.55,4.29
512.62,4.18
517.75,4.07
522.93,3.98
528.16,3.89
533.44,3.81
538.77,3.74
544.16,3.68
549.60,3.62
555.10,3.59
560.65,3.56
566.25,3.56
571.92,3.57
577.64,3.59
583.41,3.60
589.25,3.64
595.14,3.69
601.09,3.73
607.10,3.77
613.17,3.80
619.30,3.83
625.50,3.86
631.75,3.88
638.07,3.91
644.45,3.92
650.89,3.92
657.40,3.92
663.98,3.92
670.62,3.92
677.32,3.92
684.10,3.92
690.94,3.91
697.85,3.90
704.83,3.89
711.87,3.86
718.99,3.84
726.18,3.80
733.44,3.75
740.78,3.69
748.19,3.63
755.67,3.56
763.23,3.48
770.86,3.40
778.57,3.31
786.35,3.21
794.22,3.10
802.16,3.00
810.18,2.88
818.28,2.77
826.46,2.63
834.73,2.52
843.08,2.39
851.51,2.25
860.02,2.12
868.62,1.99
877.31,1.85
886.08,1.70
894.94,1.55
903.89,1.41
912.93,1.26
922.06,1.12
931.28,0.98
940.59,0.85
950.00,0.71
959.50,0.57
969.09,0.42
978.78,0.28
988.57,0.14
998.46,0.02
1008.44,-0.10
1018.53,-0.23
1028.71,-0.35
1039.00,-0.48
1049.39,-0.59
1059.88,-0.71
1070.48,-0.82
1081.19,-0.94
1092.00,-1.07
1102.92,-1.19
1113.95,-1.30
1125.09,-1.40
1136.34,-1.49
1147.70,-1.57
1159.18,-1.65
1170.77,-1.73
1182.48,-1.81
1194.30,-1.87
1206.25,-1.94
1218.31,-2.00
1230.49,-2.05
1242.80,-2.10
1255.22,-2.14
1267.78,-2.17
1280.45,-2.20
1293.26,-2.23
1306.19,-2.24
1319.25,-2.26
1332.45,-2.28
1345.77,-2.29
1359.23,-2.29
1372.82,-2.28
1386.55,-2.27
1400.41,-2.26
1414.42,-2.26
1428.56,-2.26
1442.85,-2.26
1457.28,-2.26
1471.85,-2.27
1486.57,-2.28
1501.43,-2.28
1516.45,-2.29
1531.61,-2.28
1546.93,-2.27
1562.40,-2.25
1578.02,-2.23
1593.80,-2.22
1609.74,-2.20
1625.84,-2.17
1642.10,-2.14
1658.52,-2.10
1675.10,-2.04
1691.85,-1.99
1708.77,-1.93
1725.86,-1.87
1743.12,-1.79
1760.55,-1.70
1778.15,-1.60
1795.94,-1.50
1813.90,-1.40
1832.03,-1.28
1850.36,-1.14
1868.86,-0.98
1887.55,-0.83
1906.42,-0.66
1925.49,-0.47
1944.74,-0.29
1964.19,-0.10
1983.83,0.11
2003.67,0.32
2023.71,0.54
2043.94,0.76
2064.38,0.98
2085.03,1.21
2105.88,1.43
2126.94,1.66
2148.20,1.90
2169.69,2.11
2191.38,2.31
2213.30,2.49
2235.43,2.66
2257.78,2.82
2280.36,2.95
2303.17,3.07
2326.20,3.15
2349.46,3.22
2372.95,3.28
2396.68,3.30
2420.65,3.29
2444.86,3.27
2469.31,3.21
2494.00,3.14
2518.94,3.05
2544.13,2.94
2569.57,2.80
2595.27,2.65
2621.22,2.47
2647.43,2.26
2673.90,2.03
2700.64,1.76
2727.65,1.45
2754.93,1.12
2782.48,0.77
2810.30,0.41
2838.40,0.02
2866.79,-0.37
2895.46,-0.75
2924.41,-1.13
2953.65,-1.47
2983.19,-1.77
3013.02,-2.03
3043.15,-2.24
3073.58,-2.37
3104.32,-2.41
3135.36,-2.39
3166.72,-2.29
3198.38,-2.12
3230.37,-1.89
3262.67,-1.59
3295.30,-1.25
3328.25,-0.88
3361.53,-0.46
3395.15,-0.05
3429.10,0.37
3463.39,0.76
3498.03,1.14
3533.01,1.50
3568.34,1.83
3604.02,2.12
3640.06,2.36
3676.46,2.54
3713.22,2.68
3750.36,2.78
3787.86,2.83
3825.74,2.83
3864.00,2.78
3902.64,2.68
3941.66,2.55
3981.08,2.37
4020.89,2.15
4061.10,1.91
4101.71,1.63
4142.73,1.35
4184.15,1.06
4226.00,0.80
4268.26,0.58
4310.94,0.40
4354.05,0.26
4397.59,0.18
4441.56,0.15
4485.98,0.18
4530.84,0.26
4576.15,0.39
4621.91,0.58
4668.13,0.80
4714.81,1.07
4761.96,1.36
4809.58,1.69
4857.67,2.03
4906.25,2.38
4955.31,2.76
5004.87,3.15
5054.91,3.58
5105.46,4.02
5156.52,4.48
5208.08,4.96
5260.16,5.46
5312.77,5.95
5365.89,6.44
5419.55,6.92
5473.75,7.40
5528.49,7.87
5583.77,8.32
5639.61,8.76
5696.00,9.18
5752.96,9.59
5810.49,9.98
5868.60,10.36
5927.28,10.72
5986.56,11.07
6046.42,11.40
6106.89,11.70
6167.96,11.99
6229.64,12.24
6291.93,12.48
6354.85,12.68
6418.40,12.84
6482.58,12.96
6547.41,13.03
6612.88,13.06
6679.01,13.04
6745.80,12.97
6813.26,12.85
6881.39,12.68
6950.21,12.48
7019.71,12.24
7089.91,11.96
7160.81,11.63
7232.41,11.27
7304.74,10.84
7377.79,10.35
7451.56,9.79
7526.08,9.15
7601.34,8.42
7677.35,7.60
7754.13,6.73
7831.67,5.82
7909.98,4.88
7989.08,3.97
8068.98,3.10
8149.67,2.34
8231.16,1.70
8313.47,1.20
8396.61,0.86
8480.57,0.68
8565.38,0.67
8651.03,0.80
8737.54,1.06
8824.92,1.41
8913.17,1.84
9002.30,2.31
9092.32,2.78
9183.25,3.24
9275.08,3.67
9367.83,4.07
9461.51,4.44
9556.12,4.77
9651.68,5.09
9748.20,5.40
9845.68,5.72
9944.14,6.03
10043.58,6.33
10144.02,6.62
10245.46,6.89
10347.91,7.14
10451.39,7.35
10555.91,7.52
10661.46,7.65
10768.08,7.74
10875.76,7.79
10984.52,7.82
11094.36,7.80
11205.31,7.77
11317.36,7.71
11430.53,7.63
11544.84,7.53
11660.29,7.42
11776.89,7.28
11894.66,7.12
12013.60,6.92
12133.74,6.70
12255.08,6.46
12377.63,6.19
12501.41,5.90
12626.42,5.61
12752.68,5.30
12880.21,5.00
13009.01,4.72
13139.10,4.45
13270.49,4.20
13403.20,3.98
13537.23,3.78
13672.60,3.61
13809.33,3.47
13947.42,3.35
14086.90,3.26
14227.77,3.19
14370.04,3.11
14513.74,3.02
14658.88,2.93
14805.47,2.84
14953.52,2.74
15103.06,2.63
15254.09,2.50
15406.63,2.35
15560.70,2.17
15716.30,1.96
15873.47,1.70
16032.20,1.38
16192.52,1.01
16354.45,0.57
16517.99,0.07
16683.17,-0.52
16850.01,-1.16
17018.51,-1.87
17188.69,-2.62
17360.58,-3.41
17534.18,-4.24
17709.53,-5.08
17886.62,-5.95
18065.49,-6.82
18246.14,-7.72
18428.60,-8.62
18612.89,-9.56
18799.02,-10.52
18987.01,-11.48
19176.88,-12.48
19368.65,-13.49
19562.33,-14.53
19757.96,-15.58
19955.54,-16.66
