frequency,raw,error,smoothed,error_smoothed,equalization,parametric_eq,equalized_raw,equalized_smoothed,target
20.00,-6.72,-10.59,-6.72,-10.59,6.00,2.32,-0.72,-0.72,3.87
20.20,-6.60,-10.47,-6.60,-10.46,6.00,2.39,-0.60,-0.60,3.87
20.40,-6.48,-10.35,-6.47,-10.34,6.00,2.46,-0.48,-0.47,3.87
20.61,-6.36,-10.23,-6.35,-10.21,6.00,2.53,-0.36,-0.35,3.87
20.81,-6.24,-10.10,-6.23,-10.09,6.00,2.60,-0.24,-0.23,3.87
21.02,-6.12,-9.98,-6.10,-9.96,6.00,2.68,-0.12,-0.10,3.87
21.23,-5.99,-9.85,-5.98,-9.84,6.00,2.75,0.01,0.02,3.86
21.44,-5.87,-9.73,-5.86,-9.71,6.00,2.84,0.13,0.14,3.86
21.66,-5.74,-9.60,-5.74,-9.59,6.00,2.92,0.26,0.26,3.86
21.87,-5.61,-9.47,-5.62,-9.47,6.00,3.00,0.39,0.38,3.86
22.09,-5.48,-9.34,-5.50,-9.35,6.00,3.09,0.52,0.50,3.86
22.31,-5.35,-9.21,-5.39,-9.23,6.00,3.18,0.65,0.61,3.86
22.54,-5.22,-9.08,-5.28,-9.11,6.00,3.27,0.78,0.72,3.86
22.76,-5.09,-8.95,-5.17,-9.00,6.00,3.37,0.91,0.83,3.86
22.99,-4.96,-8.82,-5.05,-8.88,6.00,3.46,1.04,0.95,3.86
23.22,-4.90,-8.75,-4.93,-8.77,6.00,3.56,1.10,1.07,3.85
23.45,-4.84,-8.69,-4.82,-8.65,6.00,3.67,1.16,1.18,3.85
23.69,-4.79,-8.64,-4.70,-8.53,6.00,3.77,1.21,1.30,3.85
23.92,-4.74,-8.59,-4.59,-8.41,6.00,3.87,1.26,1.41,3.85
24.16,-4.59,-8.44,-4.47,-8.29,6.00,3.98,1.41,1.53,3.85
24.40,-4.39,-8.23,-4.35,-8.17,6.00,4.09,1.61,1.65,3.85
24.65,-4.20,-8.05,-4.22,-8.04,6.00,4.20,1.80,1.78,3.85
24.89,-4.00,-7.84,-4.08,-7.90,6.00,4.31,2.00,1.92,3.85
25.14,-3.86,-7.70,-3.94,-7.77,6.00,4.43,2.14,2.06,3.84
25.39,-3.77,-7.61,-3.80,-7.63,6.00,4.54,2.23,2.20,3.84
25.65,-3.67,-7.51,-3.66,-7.50,6.00,4.66,2.33,2.34,3.84
25.91,-3.58,-7.42,-3.52,-7.36,6.00,4.77,2.42,2.48,3.84
26.16,-3.43,-7.26,-3.38,-7.23,6.00,4.88,2.57,2.62,3.84
26.43,-3.27,-7.11,-3.26,-7.11,6.00,5.00,2.73,2.74,3.84
26.69,-3.10,-6.93,-3.14,-6.98,6.00,5.11,2.90,2.86,3.83
26.96,-2.94,-6.77,-3.04,-6.87,6.00,5.22,3.06,2.96,3.83
27.23,-2.85,-6.68,-2.94,-6.75,6.00,5.33,3.15,3.06,3.83
27.50,-2.78,-6.61,-2.84,-6.64,6.00,5.43,3.22,3.16,3.83
27.77,-2.72,-6.54,-2.74,-6.53,6.00,5.53,3.28,3.26,3.83
28.05,-2.65,-6.47,-2.63,-6.42,6.00,5.62,3.35,3.37,3.82
28.33,-2.57,-6.39,-2.52,-6.31,5.99,5.71,3.42,3.47,3.82
28.62,-2.49,-6.31,-2.40,-6.20,5.96,5.79,3.47,3.56,3.82
28.90,-2.42,-6.24,-2.29,-6.09,5.92,5.87,3.51,3.63,3.82
29.19,-2.28,-6.09,-2.19,-5.98,5.87,5.94,3.59,3.68,3.82
29.48,-2.12,-5.93,-2.09,-5.87,5.81,5.99,3.69,3.72,3.81
29.78,-1.95,-5.76,-1.98,-5.76,5.73,6.04,3.78,3.74,3.81
30.08,-1.80,-5.61,-1.87,-5.64,5.63,6.08,3.83,3.76,3.81
30.38,-1.67,-5.48,-1.75,-5.52,5.52,6.11,3.85,3.77,3.81
30.68,-1.54,-5.34,-1.62,-5.40,5.40,6.12,3.86,3.78,3.80
30.99,-1.41,-5.21,-1.49,-5.28,5.28,6.13,3.86,3.78,3.80
31.30,-1.35,-5.15,-1.36,-5.15,5.15,6.12,3.80,3.79,3.80
31.61,-1.29,-5.08,-1.24,-5.03,5.03,6.10,3.74,3.79,3.80
31.93,-1.23,-5.02,-1.12,-4.91,4.91,6.07,3.68,3.79,3.79
32.24,-1.09,-4.88,-1.00,-4.79,4.79,6.02,3.70,3.79,3.79
32.57,-0.91,-4.70,-0.89,-4.66,4.66,5.97,3.75,3.78,3.79
32.89,-0.74,-4.52,-0.77,-4.54,4.54,5.90,3.80,3.77,3.78
33.22,-0.61,-4.39,-0.66,-4.42,4.42,5.83,3.81,3.77,3.78
33.55,-0.50,-4.27,-0.54,-4.30,4.30,5.74,3.81,3.76,3.78
33.89,-0.39,-4.16,-0.43,-4.18,4.18,5.65,3.79,3.75,3.77
34.23,-0.30,-4.07,-0.32,-4.06,4.06,5.54,3.76,3.74,3.77
34.57,-0.21,-3.98,-0.19,-3.94,3.94,5.43,3.73,3.75,3.77
34.92,-0.11,-3.87,-0.06,-3.82,3.82,5.31,3.71,3.76,3.76
35.27,0.02,-3.74,0.06,-3.71,3.71,5.19,3.72,3.77,3.76
35.62,0.16,-3.59,0.17,-3.59,3.59,5.06,3.75,3.76,3.75
35.97,0.30,-3.45,0.27,-3.48,3.48,4.93,3.78,3.75,3.75
36.33,0.38,-3.36,0.36,-3.37,3.37,4.79,3.75,3.73,3.75
36.70,0.45,-3.29,0.45,-3.26,3.26,4.65,3.71,3.72,3.74
37.06,0.54,-3.20,0.55,-3.16,3.16,4.51,3.70,3.71,3.74
37.43,0.70,-3.03,0.66,-3.05,3.05,4.37,3.76,3.71,3.73
37.81,0.87,-2.86,0.76,-2.95,2.95,4.22,3.82,3.71,3.73
38.19,0.94,-2.78,0.87,-2.85,2.85,4.07,3.79,3.71,3.72
38.57,0.92,-2.80,0.97,-2.74,2.74,3.93,3.66,3.71,3.72
38.95,0.90,-2.81,1.07,-2.64,2.64,3.78,3.54,3.70,3.71
39.34,1.05,-2.66,1.16,-2.53,2.53,3.63,3.58,3.69,3.71
39.74,1.22,-2.48,1.26,-2.42,2.42,3.49,3.64,3.68,3.70
40.14,1.38,-2.32,1.36,-2.31,2.31,3.34,3.69,3.67,3.70
40.54,1.51,-2.18,1.48,-2.20,2.20,3.20,3.71,3.68,3.69
40.94,1.65,-2.03,1.59,-2.09,2.09,3.05,3.74,3.68,3.69
41.35,1.73,-1.95,1.70,-1.98,1.98,2.91,3.72,3.68,3.68
41.76,1.81,-1.86,1.79,-1.88,1.88,2.77,3.69,3.67,3.67
42.18,1.88,-1.79,1.88,-1.77,1.77,2.63,3.65,3.65,3.67
42.60,1.95,-1.71,1.99,-1.67,1.67,2.49,3.62,3.66,3.66
43.03,2.02,-1.63,2.09,-1.57,1.57,2.35,3.59,3.66,3.65
43.46,2.20,-1.45,2.18,-1.48,1.48,2.22,3.68,3.66,3.65
43.90,2.38,-1.26,2.26,-1.38,1.38,2.08,3.76,3.64,3.64
44.33,2.42,-1.21,2.33,-1.29,1.29,1.95,3.71,3.62,3.63
44.78,2.43,-1.19,2.40,-1.20,1.20,1.82,3.64,3.60,3.62
45.23,2.43,-1.19,2.47,-1.12,1.12,1.69,3.55,3.59,3.62
45.68,2.44,-1.17,2.55,-1.04,1.04,1.56,3.48,3.59,3.61
46.13,2.50,-1.10,2.63,-0.95,0.95,1.44,3.46,3.58,3.60
46.60,2.70,-0.89,2.70,-0.87,0.87,1.31,3.57,3.57,3.59
47.06,2.87,-0.71,2.78,-0.80,0.80,1.19,3.67,3.57,3.58
47.53,2.83,-0.74,2.85,-0.72,0.72,1.07,3.56,3.57,3.57
48.01,2.79,-0.77,2.90,-0.66,0.66,0.95,3.45,3.56,3.56
48.49,2.92,-0.63,2.95,-0.59,0.59,0.83,3.51,3.54,3.55
48.97,3.05,-0.49,3.00,-0.53,0.53,0.71,3.58,3.52,3.54
49.46,3.13,-0.40,3.04,-0.47,0.47,0.59,3.60,3.51,3.53
49.96,3.21,-0.31,3.08,-0.42,0.42,0.48,3.63,3.50,3.52
50.46,3.20,-0.31,3.12,-0.37,0.37,0.37,3.57,3.49,3.51
50.96,3.17,-0.33,3.16,-0.32,0.32,0.26,3.50,3.48,3.50
51.47,3.20,-0.29,3.19,-0.28,0.28,0.15,3.48,3.47,3.49
51.99,3.23,-0.25,3.21,-0.24,0.24,0.04,3.47,3.45,3.48
52.51,3.18,-0.29,3.25,-0.19,0.19,-0.07,3.37,3.44,3.47
53.03,3.14,-0.32,3.29,-0.15,0.15,-0.17,3.29,3.43,3.46
53.56,3.21,-0.23,3.32,-0.10,0.10,-0.27,3.31,3.42,3.44
54.10,3.27,-0.16,3.35,-0.05,0.05,-0.37,3.32,3.40,3.43
54.64,3.34,-0.08,3.38,-0.00,0.00,-0.47,3.34,3.38,3.42
55.18,3.43,0.03,3.43,0.05,-0.05,-0.56,3.38,3.37,3.40
55.74,3.56,0.17,3.47,0.11,-0.11,-0.65,3.45,3.37,3.39
56.29,3.62,0.24,3.52,0.16,-0.16,-0.74,3.46,3.36,3.38
56.86,3.63,0.27,3.57,0.22,-0.22,-0.82,3.41,3.35,3.36
57.42,3.62,0.27,3.61,0.28,-0.28,-0.91,3.34,3.34,3.35
58.00,3.61,0.28,3.66,0.33,-0.33,-0.98,3.28,3.33,3.33
58.58,3.68,0.37,3.70,0.38,-0.38,-1.06,3.30,3.32,3.32
59.16,3.74,0.44,3.74,0.42,-0.42,-1.13,3.32,3.32,3.30
59.76,3.80,0.52,3.75,0.46,-0.46,-1.20,3.34,3.30,3.28
60.35,3.81,0.54,3.76,0.49,-0.49,-1.26,3.32,3.28,3.27
60.96,3.78,0.53,3.77,0.52,-0.52,-1.32,3.26,3.25,3.25
61.57,3.75,0.52,3.77,0.55,-0.55,-1.37,3.21,3.22,3.23
62.18,3.75,0.54,3.77,0.57,-0.57,-1.42,3.18,3.20,3.21
62.80,3.81,0.62,3.77,0.60,-0.60,-1.47,3.21,3.17,3.19
63.43,3.83,0.65,3.79,0.63,-0.63,-1.51,3.20,3.16,3.18
64.07,3.83,0.67,3.81,0.67,-0.67,-1.55,3.16,3.14,3.16
64.71,3.82,0.68,3.83,0.72,-0.72,-1.58,3.10,3.11,3.14
65.35,3.81,0.69,3.85,0.77,-0.77,-1.61,3.04,3.08,3.12
66.01,3.78,0.68,3.89,0.83,-0.83,-1.64,2.95,3.05,3.10
66.67,3.87,0.80,3.94,0.91,-0.91,-1.67,2.96,3.04,3.08
67.33,3.95,0.90,4.01,0.99,-0.99,-1.69,2.97,3.03,3.05
68.01,4.02,0.99,4.08,1.07,-1.07,-1.70,2.95,3.01,3.03
68.69,4.10,1.09,4.15,1.16,-1.16,-1.72,2.94,2.99,3.01
69.37,4.22,1.23,4.22,1.25,-1.25,-1.73,2.97,2.97,2.99
70.07,4.37,1.41,4.30,1.35,-1.35,-1.74,3.02,2.95,2.96
70.77,4.39,1.45,4.36,1.45,-1.45,-1.75,2.94,2.92,2.94
71.48,4.46,1.54,4.43,1.54,-1.54,-1.76,2.92,2.89,2.92
72.19,4.58,1.69,4.49,1.63,-1.63,-1.77,2.95,2.86,2.89
72.91,4.71,1.84,4.56,1.71,-1.71,-1.77,3.00,2.84,2.87
73.64,4.70,1.86,4.62,1.80,-1.80,-1.78,2.90,2.82,2.84
74.38,4.64,1.83,4.67,1.87,-1.87,-1.78,2.77,2.80,2.82
75.12,4.60,1.81,4.72,1.94,-1.94,-1.78,2.66,2.78,2.79
75.87,4.71,1.95,4.76,2.01,-2.01,-1.79,2.70,2.75,2.76
76.63,4.73,1.99,4.79,2.06,-2.06,-1.79,2.67,2.72,2.74
77.40,4.70,1.99,4.80,2.11,-2.11,-1.80,2.59,2.69,2.71
78.17,4.69,2.01,4.81,2.15,-2.15,-1.80,2.54,2.66,2.68
78.95,4.87,2.22,4.82,2.18,-2.18,-1.81,2.69,2.64,2.65
79.74,4.96,2.34,4.81,2.21,-2.21,-1.81,2.75,2.60,2.62
80.54,4.96,2.37,4.80,2.24,-2.24,-1.82,2.72,2.56,2.60
81.35,4.91,2.34,4.79,2.26,-2.26,-1.83,2.65,2.53,2.57
82.16,4.85,2.31,4.79,2.28,-2.28,-1.84,2.57,2.51,2.54
82.98,4.73,2.22,4.79,2.30,-2.30,-1.85,2.43,2.49,2.51
83.81,4.70,2.22,4.78,2.32,-2.32,-1.86,2.39,2.47,2.48
84.65,4.66,2.21,4.76,2.33,-2.33,-1.87,2.33,2.43,2.45
85.50,4.68,2.27,4.75,2.36,-2.36,-1.89,2.33,2.39,2.42
86.35,4.73,2.35,4.74,2.38,-2.38,-1.90,2.35,2.36,2.38
87.22,4.70,2.35,4.73,2.41,-2.41,-1.92,2.29,2.33,2.35
88.09,4.62,2.30,4.73,2.44,-2.44,-1.94,2.18,2.29,2.32
88.97,4.75,2.46,4.73,2.47,-2.47,-1.96,2.28,2.26,2.29
89.86,4.83,2.57,4.75,2.52,-2.52,-1.99,2.31,2.23,2.26
90.76,4.84,2.61,4.78,2.57,-2.57,-2.01,2.27,2.21,2.23
91.66,4.77,2.58,4.80,2.62,-2.62,-2.04,2.15,2.18,2.19
92.58,4.74,2.58,4.84,2.67,-2.67,-2.06,2.07,2.16,2.16
93.51,4.84,2.71,4.86,2.73,-2.73,-2.09,2.11,2.14,2.13
94.44,4.94,2.85,4.88,2.78,-2.78,-2.12,2.16,2.11,2.10
95.39,4.94,2.88,4.90,2.83,-2.83,-2.16,2.11,2.07,2.06
96.34,4.94,2.91,4.90,2.87,-2.87,-2.19,2.07,2.03,2.03
97.30,4.93,2.93,4.90,2.91,-2.91,-2.23,2.02,1.99,2.00
98.28,4.92,2.96,4.90,2.94,-2.94,-2.26,1.98,1.96,1.96
99.26,4.90,2.97,4.89,2.97,-2.97,-2.30,1.93,1.92,1.93
100.25,4.86,2.96,4.88,2.99,-2.99,-2.34,1.87,1.88,1.90
101.25,4.85,2.99,4.86,3.01,-3.01,-2.38,1.85,1.86,1.86
102.27,4.91,3.08,4.85,3.01,-3.01,-2.42,1.90,1.83,1.83
103.29,4.78,2.98,4.82,3.02,-3.02,-2.46,1.76,1.80,1.80
104.32,4.70,2.94,4.77,3.01,-3.01,-2.50,1.69,1.76,1.76
105.37,4.70,2.97,4.72,3.01,-3.01,-2.54,1.69,1.71,1.73
106.42,4.68,2.98,4.68,3.00,-3.00,-2.58,1.68,1.68,1.70
107.48,4.68,3.02,4.64,2.99,-2.99,-2.62,1.69,1.65,1.66
108.56,4.68,3.05,4.60,2.97,-2.97,-2.66,1.71,1.63,1.63
109.64,4.57,2.97,4.55,2.96,-2.96,-2.69,1.61,1.59,1.60
110.74,4.49,2.92,4.50,2.94,-2.94,-2.73,1.55,1.56,1.57
111.85,4.46,2.93,4.45,2.93,-2.93,-2.76,1.53,1.52,1.53
112.97,4.36,2.86,4.41,2.91,-2.91,-2.79,1.45,1.50,1.50
114.10,4.31,2.84,4.36,2.89,-2.89,-2.82,1.42,1.47,1.48
115.24,4.25,2.80,4.32,2.87,-2.87,-2.85,1.38,1.44,1.45
116.39,4.26,2.84,4.27,2.86,-2.86,-2.88,1.40,1.42,1.42
117.55,4.29,2.89,4.23,2.84,-2.84,-2.90,1.45,1.39,1.40
118.73,4.26,2.89,4.19,2.83,-2.83,-2.91,1.43,1.37,1.37
119.92,4.08,2.73,4.15,2.81,-2.81,-2.93,1.27,1.34,1.35
121.12,4.04,2.71,4.11,2.79,-2.79,-2.94,1.25,1.32,1.33
122.33,4.07,2.76,4.08,2.78,-2.78,-2.94,1.29,1.31,1.31
123.55,4.11,2.82,4.04,2.76,-2.76,-2.95,1.35,1.29,1.29
124.79,4.05,2.78,4.00,2.73,-2.73,-2.94,1.32,1.27,1.27
126.03,3.90,2.65,3.96,2.71,-2.71,-2.94,1.19,1.25,1.25
127.29,3.93,2.70,3.92,2.68,-2.68,-2.93,1.25,1.23,1.23
128.57,3.92,2.71,3.86,2.65,-2.65,-2.91,1.27,1.21,1.21
129.85,3.87,2.68,3.81,2.62,-2.62,-2.89,1.25,1.19,1.19
131.15,3.75,2.58,3.75,2.59,-2.59,-2.87,1.16,1.16,1.17
132.46,3.66,2.51,3.70,2.55,-2.55,-2.84,1.11,1.14,1.16
133.79,3.65,2.52,3.65,2.52,-2.52,-2.81,1.13,1.13,1.14
135.12,3.59,2.48,3.59,2.48,-2.48,-2.78,1.11,1.10,1.12
136.48,3.48,2.39,3.53,2.45,-2.45,-2.74,1.03,1.07,1.09
137.84,3.45,2.38,3.47,2.42,-2.42,-2.70,1.03,1.05,1.07
139.22,3.39,2.34,3.42,2.39,-2.39,-2.66,1.01,1.04,1.05
140.61,3.35,2.32,3.37,2.35,-2.35,-2.61,1.00,1.02,1.03
142.02,3.28,2.27,3.32,2.32,-2.32,-2.57,0.96,1.00,1.01
143.44,3.26,2.27,3.26,2.28,-2.28,-2.52,0.98,0.98,0.99
144.87,3.19,2.22,3.21,2.25,-2.25,-2.47,0.95,0.96,0.97
146.32,3.16,2.21,3.15,2.20,-2.20,-2.42,0.96,0.95,0.95
147.78,3.13,2.20,3.09,2.16,-2.16,-2.37,0.97,0.93,0.93
149.26,3.07,2.16,3.02,2.10,-2.10,-2.31,0.97,0.91,0.91
150.75,2.99,2.10,2.94,2.05,-2.05,-2.26,0.94,0.90,0.89
152.26,2.93,2.05,2.87,1.99,-1.99,-2.21,0.95,0.88,0.88
153.78,2.81,1.95,2.78,1.92,-1.92,-2.15,0.89,0.86,0.86
155.32,2.70,1.86,2.68,1.85,-1.85,-2.10,0.85,0.83,0.84
156.88,2.57,1.75,2.59,1.78,-1.78,-2.05,0.79,0.81,0.83
158.44,2.47,1.66,2.50,1.71,-1.71,-2.00,0.76,0.79,0.81
160.03,2.37,1.58,2.40,1.63,-1.63,-1.94,0.74,0.77,0.79
161.63,2.31,1.54,2.32,1.57,-1.57,-1.89,0.74,0.75,0.77
163.24,2.23,1.47,2.23,1.50,-1.50,-1.84,0.73,0.73,0.76
164.88,2.11,1.37,2.15,1.44,-1.44,-1.79,0.67,0.71,0.74
166.53,2.02,1.30,2.08,1.39,-1.39,-1.75,0.63,0.69,0.72
168.19,1.96,1.26,2.02,1.34,-1.34,-1.70,0.62,0.68,0.70
169.87,1.92,1.24,1.96,1.30,-1.30,-1.65,0.62,0.66,0.68
171.57,1.91,1.25,1.92,1.27,-1.27,-1.61,0.64,0.65,0.66
173.29,1.91,1.26,1.87,1.24,-1.24,-1.57,0.67,0.64,0.65
175.02,1.87,1.24,1.83,1.21,-1.21,-1.52,0.66,0.62,0.63
176.77,1.81,1.19,1.80,1.18,-1.18,-1.48,0.63,0.61,0.62
178.54,1.80,1.19,1.77,1.16,-1.16,-1.44,0.64,0.61,0.61
180.32,1.73,1.13,1.74,1.13,-1.13,-1.41,0.60,0.61,0.60
182.13,1.70,1.11,1.71,1.11,-1.11,-1.37,0.59,0.60,0.59
183.95,1.71,1.12,1.68,1.08,-1.08,-1.33,0.63,0.60,0.59
185.79,1.65,1.06,1.65,1.05,-1.05,-1.30,0.61,0.60,0.59
187.65,1.56,0.96,1.61,1.01,-1.01,-1.26,0.55,0.60,0.60
189.52,1.56,0.96,1.57,0.97,-0.97,-1.23,0.59,0.60,0.60
191.42,1.52,0.91,1.53,0.93,-0.93,-1.20,0.60,0.60,0.61
193.33,1.49,0.88,1.48,0.88,-0.88,-1.17,0.61,0.61,0.61
195.27,1.50,0.89,1.43,0.83,-0.83,-1.14,0.67,0.61,0.62
197.22,1.46,0.84,1.38,0.78,-0.78,-1.11,0.69,0.61,0.62
199.19,1.33,0.71,1.33,0.72,-0.72,-1.08,0.61,0.61,0.62
201.18,1.24,0.62,1.28,0.66,-0.66,-1.06,0.58,0.62,0.62
203.19,1.24,0.62,1.23,0.61,-0.61,-1.03,0.63,0.62,0.62
205.23,1.21,0.59,1.17,0.55,-0.55,-1.00,0.66,0.62,0.62
207.28,1.10,0.49,1.11,0.50,-0.50,-0.98,0.60,0.61,0.61
209.35,1.04,0.44,1.05,0.45,-0.45,-0.95,0.59,0.60,0.60
211.44,1.02,0.42,1.00,0.41,-0.41,-0.93,0.61,0.59,0.60
213.56,0.93,0.34,0.95,0.38,-0.38,-0.91,0.55,0.57,0.59
215.69,0.90,0.32,0.90,0.35,-0.35,-0.88,0.55,0.55,0.58
217.85,0.94,0.37,0.87,0.34,-0.34,-0.86,0.60,0.53,0.57
220.03,0.88,0.32,0.85,0.34,-0.34,-0.83,0.54,0.52,0.56
222.23,0.83,0.28,0.86,0.35,-0.35,-0.81,0.48,0.51,0.55
224.45,0.81,0.27,0.89,0.38,-0.38,-0.79,0.43,0.51,0.54
226.70,0.78,0.24,0.93,0.42,-0.42,-0.76,0.36,0.50,0.54
228.96,0.87,0.33,0.98,0.48,-0.48,-0.74,0.39,0.50,0.54
231.25,1.01,0.47,1.06,0.55,-0.55,-0.71,0.46,0.51,0.54
233.57,1.04,0.49,1.14,0.62,-0.62,-0.69,0.42,0.52,0.55
235.90,1.14,0.59,1.22,0.70,-0.70,-0.66,0.45,0.53,0.56
238.26,1.27,0.71,1.31,0.77,-0.77,-0.63,0.50,0.54,0.56
240.64,1.45,0.88,1.39,0.84,-0.84,-0.61,0.61,0.55,0.58
243.05,1.58,0.99,1.47,0.90,-0.90,-0.58,0.68,0.57,0.59
245.48,1.69,1.09,1.54,0.95,-0.95,-0.55,0.74,0.59,0.60
247.93,1.73,1.12,1.59,0.98,-0.98,-0.51,0.75,0.61,0.61
250.41,1.67,1.05,1.63,0.99,-0.99,-0.48,0.68,0.63,0.63
252.92,1.68,1.04,1.64,0.99,-0.99,-0.45,0.69,0.65,0.64
255.45,1.67,1.02,1.61,0.96,-0.96,-0.42,0.71,0.65,0.65
258.00,1.60,0.95,1.58,0.92,-0.92,-0.38,0.68,0.65,0.65
260.58,1.54,0.88,1.52,0.86,-0.86,-0.34,0.68,0.66,0.66
263.19,1.45,0.79,1.44,0.79,-0.79,-0.30,0.66,0.66,0.66
265.82,1.32,0.66,1.35,0.70,-0.70,-0.27,0.62,0.65,0.66
268.48,1.26,0.60,1.24,0.60,-0.60,-0.22,0.66,0.64,0.66
271.16,1.13,0.47,1.14,0.50,-0.50,-0.18,0.63,0.63,0.66
273.87,1.00,0.34,1.03,0.40,-0.40,-0.14,0.60,0.63,0.66
276.61,0.89,0.23,0.93,0.30,-0.30,-0.10,0.59,0.64,0.66
279.38,0.77,0.11,0.84,0.20,-0.20,-0.05,0.57,0.64,0.66
282.17,0.70,0.04,0.75,0.11,-0.11,-0.01,0.59,0.64,0.66
284.99,0.67,0.01,0.67,0.02,-0.02,0.04,0.65,0.65,0.66
287.84,0.56,-0.11,0.59,-0.06,0.06,0.09,0.62,0.65,0.67
290.72,0.47,-0.20,0.53,-0.13,0.13,0.14,0.60,0.66,0.67
293.63,0.43,-0.25,0.47,-0.20,0.20,0.19,0.64,0.67,0.68
296.57,0.44,-0.25,0.41,-0.27,0.27,0.24,0.71,0.68,0.69
299.53,0.37,-0.33,0.36,-0.33,0.33,0.29,0.70,0.69,0.70
302.53,0.33,-0.38,0.31,-0.39,0.39,0.34,0.72,0.70,0.71
305.55,0.28,-0.44,0.26,-0.45,0.45,0.40,0.73,0.71,0.72
308.61,0.28,-0.45,0.22,-0.50,0.50,0.45,0.78,0.72,0.73
311.69,0.21,-0.52,0.18,-0.55,0.55,0.51,0.76,0.73,0.73
314.81,0.12,-0.62,0.13,-0.60,0.60,0.56,0.72,0.73,0.74
317.96,0.09,-0.65,0.08,-0.65,0.65,0.62,0.74,0.73,0.74
321.14,0.03,-0.71,0.03,-0.71,0.71,0.68,0.74,0.74,0.74
324.35,-0.08,-0.83,-0.02,-0.76,0.76,0.74,0.68,0.74,0.75
327.59,-0.12,-0.87,-0.07,-0.81,0.81,0.80,0.69,0.74,0.75
330.87,-0.11,-0.86,-0.12,-0.86,0.86,0.86,0.75,0.74,0.75
334.18,-0.12,-0.86,-0.17,-0.92,0.92,0.92,0.80,0.74,0.75
337.52,-0.20,-0.94,-0.23,-0.97,0.97,0.99,0.77,0.74,0.74
340.90,-0.29,-1.03,-0.29,-1.02,1.02,1.05,0.73,0.74,0.74
344.30,-0.32,-1.06,-0.34,-1.07,1.07,1.12,0.75,0.73,0.74
347.75,-0.38,-1.12,-0.39,-1.12,1.12,1.18,0.74,0.73,0.75
351.23,-0.43,-1.18,-0.43,-1.17,1.17,1.25,0.74,0.74,0.75
354.74,-0.49,-1.24,-0.48,-1.22,1.22,1.32,0.73,0.74,0.75
358.28,-0.51,-1.27,-0.51,-1.27,1.27,1.39,0.76,0.75,0.76
361.87,-0.57,-1.33,-0.55,-1.31,1.31,1.46,0.74,0.76,0.76
365.49,-0.66,-1.43,-0.60,-1.36,1.36,1.53,0.70,0.76,0.77
369.14,-0.72,-1.50,-0.64,-1.40,1.40,1.60,0.68,0.77,0.78
372.83,-0.72,-1.50,-0.68,-1.45,1.45,1.67,0.73,0.77,0.78
376.56,-0.69,-1.48,-0.72,-1.49,1.49,1.75,0.80,0.78,0.79
380.33,-0.71,-1.51,-0.76,-1.54,1.54,1.82,0.83,0.78,0.80
384.13,-0.75,-1.55,-0.80,-1.58,1.58,1.90,0.84,0.78,0.80
387.97,-0.72,-1.52,-0.84,-1.63,1.63,1.97,0.91,0.79,0.81
391.85,-0.85,-1.66,-0.88,-1.68,1.68,2.05,0.83,0.79,0.81
395.77,-0.94,-1.75,-0.93,-1.72,1.72,2.13,0.78,0.79,0.81
399.73,-1.00,-1.81,-0.98,-1.77,1.77,2.21,0.77,0.79,0.81
403.72,-1.05,-1.86,-1.02,-1.82,1.82,2.28,0.77,0.80,0.81
407.76,-1.06,-1.87,-1.06,-1.86,1.86,2.36,0.80,0.80,0.81
411.84,-1.15,-1.96,-1.11,-1.91,1.91,2.44,0.76,0.80,0.81
415.96,-1.19,-2.00,-1.15,-1.95,1.95,2.52,0.76,0.81,0.81
420.12,-1.18,-2.00,-1.18,-2.00,2.00,2.60,0.82,0.81,0.82
424.32,-1.15,-1.98,-1.21,-2.04,2.04,2.67,0.89,0.83,0.83
428.56,-1.23,-2.08,-1.23,-2.08,2.08,2.75,0.85,0.85,0.85
432.85,-1.33,-2.20,-1.25,-2.12,2.12,2.82,0.79,0.87,0.87
437.18,-1.31,-2.21,-1.25,-2.16,2.16,2.89,0.85,0.91,0.90
441.55,-1.26,-2.20,-1.24,-2.19,2.19,2.96,0.93,0.95,0.94
445.96,-1.22,-2.20,-1.24,-2.23,2.23,3.03,1.01,0.99,0.98
450.42,-1.25,-2.28,-1.23,-2.27,2.27,3.10,1.02,1.04,1.03
454.93,-1.22,-2.30,-1.22,-2.31,2.31,3.16,1.09,1.09,1.08
459.48,-1.16,-2.29,-1.21,-2.35,2.35,3.22,1.19,1.14,1.13
464.07,-1.20,-2.39,-1.20,-2.40,2.40,3.27,1.20,1.19,1.19
468.71,-1.22,-2.47,-1.20,-2.44,2.44,3.32,1.22,1.24,1.25
473.40,-1.18,-2.48,-1.20,-2.49,2.49,3.37,1.31,1.30,1.30
478.13,-1.19,-2.55,-1.20,-2.55,2.55,3.41,1.36,1.35,1.36
482.91,-1.18,-2.59,-1.20,-2.60,2.60,3.45,1.42,1.40,1.41
487.74,-1.16,-2.62,-1.21,-2.66,2.66,3.48,1.50,1.45,1.46
492.62,-1.23,-2.73,-1.23,-2.72,2.72,3.50,1.49,1.49,1.50
497.55,-1.31,-2.84,-1.26,-2.78,2.78,3.53,1.47,1.52,1.53
502.52,-1.34,-2.90,-1.30,-2.85,2.85,3.54,1.51,1.55,1.56
507.55,-1.34,-2.92,-1.35,-2.91,2.91,3.55,1.57,1.56,1.58
512.62,-1.35,-2.94,-1.40,-2.98,2.98,3.56,1.63,1.57,1.59
517.75,-1.47,-3.06,-1.47,-3.05,3.05,3.56,1.58,1.58,1.60
522.93,-1.52,-3.11,-1.54,-3.12,3.12,3.55,1.60,1.57,1.59
528.16,-1.57,-3.15,-1.63,-3.18,3.18,3.54,1.61,1.55,1.58
533.44,-1.63,-3.19,-1.72,-3.25,3.25,3.53,1.62,1.53,1.56
538.77,-1.73,-3.26,-1.81,-3.32,3.32,3.51,1.59,1.51,1.53
544.16,-1.93,-3.43,-1.90,-3.38,3.38,3.49,1.45,1.49,1.50
549.60,-2.05,-3.52,-1.98,-3.44,3.44,3.46,1.39,1.46,1.47
555.10,-2.11,-3.55,-2.06,-3.50,3.50,3.44,1.39,1.44,1.44
560.65,-2.16,-3.57,-2.15,-3.55,3.55,3.41,1.39,1.41,1.41
566.25,-2.28,-3.66,-2.22,-3.60,3.60,3.37,1.32,1.38,1.38
571.92,-2.35,-3.71,-2.29,-3.65,3.65,3.34,1.30,1.35,1.36
577.64,-2.39,-3.73,-2.35,-3.68,3.68,3.30,1.30,1.33,1.34
583.41,-2.41,-3.73,-2.40,-3.72,3.72,3.26,1.31,1.32,1.33
589.25,-2.43,-3.75,-2.44,-3.75,3.75,3.22,1.32,1.30,1.32
595.14,-2.44,-3.76,-2.47,-3.77,3.77,3.18,1.33,1.30,1.32
601.09,-2.44,-3.76,-2.47,-3.79,3.79,3.14,1.35,1.32,1.32
607.10,-2.47,-3.80,-2.47,-3.81,3.81,3.10,1.34,1.34,1.34
613.17,-2.50,-3.86,-2.45,-3.82,3.82,3.07,1.32,1.37,1.36
619.30,-2.50,-3.88,-2.44,-3.84,3.84,3.03,1.34,1.40,1.38
625.50,-2.47,-3.89,-2.43,-3.87,3.87,2.99,1.40,1.44,1.42
631.75,-2.45,-3.91,-2.41,-3.89,3.89,2.95,1.44,1.48,1.46
638.07,-2.41,-3.91,-2.41,-3.93,3.93,2.92,1.52,1.52,1.50
644.45,-2.38,-3.93,-2.41,-3.96,3.96,2.88,1.58,1.56,1.55
650.89,-2.33,-3.93,-2.40,-4.01,4.01,2.85,1.68,1.60,1.60
657.40,-2.29,-3.94,-2.40,-4.05,4.05,2.82,1.76,1.65,1.65
663.98,-2.28,-3.98,-2.41,-4.10,4.10,2.79,1.82,1.69,1.70
670.62,-2.36,-4.11,-2.42,-4.16,4.16,2.77,1.80,1.73,1.75
677.32,-2.39,-4.18,-2.44,-4.21,4.21,2.74,1.82,1.77,1.80
684.10,-2.49,-4.33,-2.45,-4.26,4.26,2.72,1.77,1.81,1.84
690.94,-2.54,-4.41,-2.46,-4.30,4.30,2.70,1.76,1.84,1.87
697.85,-2.52,-4.42,-2.47,-4.33,4.33,2.68,1.81,1.86,1.91
704.83,-2.51,-4.44,-2.47,-4.36,4.36,2.66,1.85,1.88,1.93
711.87,-2.50,-4.45,-2.47,-4.37,4.37,2.65,1.87,1.90,1.95
718.99,-2.45,-4.41,-2.46,-4.37,4.37,2.64,1.92,1.91,1.96
726.18,-2.48,-4.45,-2.43,-4.35,4.35,2.63,1.87,1.92,1.97
733.44,-2.45,-4.42,-2.39,-4.31,4.31,2.62,1.87,1.93,1.97
740.78,-2.37,-4.34,-2.33,-4.26,4.26,2.61,1.89,1.94,1.97
748.19,-2.27,-4.24,-2.25,-4.20,4.20,2.61,1.93,1.95,1.97
