frequency,raw,smoothed,error,error_smoothed,equalization,parametric_eq,fixed_band_eq,equalized_raw,equalized_smoothed,target
20.00,5.54,5.54,0.59,0.60,-0.54,-0.87,-0.53,5.00,5.00,4.94
20.20,5.56,5.55,0.58,0.58,-0.56,-0.87,-0.55,4.99,4.99,4.97
20.40,5.58,5.57,0.57,0.57,-0.58,-0.88,-0.56,4.99,4.99,5.00
20.61,5.60,5.59,0.57,0.57,-0.60,-0.89,-0.58,4.99,4.99,5.02
20.81,5.62,5.62,0.57,0.56,-0.62,-0.89,-0.59,5.00,5.00,5.05
21.02,5.64,5.65,0.56,0.57,-0.63,-0.90,-0.61,5.01,5.02,5.08
21.23,5.69,5.69,0.60,0.59,-0.64,-0.91,-0.62,5.05,5.05,5.09
21.44,5.74,5.74,0.64,0.64,-0.64,-0.91,-0.64,5.10,5.10,5.10
21.66,5.79,5.79,0.68,0.69,-0.65,-0.92,-0.66,5.14,5.14,5.11
21.87,5.83,5.82,0.72,0.71,-0.65,-0.93,-0.68,5.18,5.17,5.11
22.09,5.84,5.82,0.72,0.70,-0.64,-0.93,-0.70,5.20,5.18,5.12
22.31,5.78,5.79,0.66,0.67,-0.63,-0.94,-0.71,5.15,5.16,5.12
22.54,5.73,5.72,0.61,0.60,-0.62,-0.95,-0.73,5.10,5.10,5.12
22.76,5.68,5.67,0.56,0.55,-0.62,-0.96,-0.75,5.05,5.04,5.12
22.99,5.62,5.66,0.51,0.55,-0.63,-0.97,-0.77,4.98,5.02,5.11
23.22,5.69,5.68,0.58,0.58,-0.64,-0.98,-0.80,5.04,5.04,5.10
23.45,5.77,5.76,0.66,0.66,-0.66,-0.98,-0.82,5.11,5.10,5.10
23.69,5.84,5.85,0.73,0.74,-0.68,-0.99,-0.84,5.16,5.17,5.10
23.92,5.92,5.89,0.81,0.79,-0.70,-1.00,-0.86,5.21,5.19,5.10
24.16,5.92,5.91,0.80,0.80,-0.73,-1.01,-0.88,5.19,5.18,5.11
24.40,5.88,5.88,0.77,0.77,-0.75,-1.02,-0.91,5.13,5.13,5.11
24.65,5.85,5.84,0.75,0.73,-0.77,-1.03,-0.93,5.08,5.07,5.10
24.89,5.81,5.83,0.71,0.73,-0.79,-1.04,-0.95,5.02,5.04,5.10
25.14,5.85,5.86,0.75,0.76,-0.82,-1.05,-0.98,5.03,5.04,5.10
25.39,5.94,5.92,0.84,0.83,-0.87,-1.06,-1.00,5.07,5.05,5.10
25.65,6.02,6.02,0.92,0.92,-0.95,-1.07,-1.03,5.07,5.07,5.10
25.91,6.11,6.11,1.02,1.02,-1.04,-1.08,-1.05,5.07,5.07,5.09
26.16,6.21,6.21,1.12,1.12,-1.13,-1.09,-1.08,5.08,5.08,5.08
26.43,6.31,6.32,1.22,1.24,-1.21,-1.10,-1.10,5.09,5.11,5.08
26.69,6.42,6.42,1.34,1.34,-1.28,-1.11,-1.13,5.14,5.14,5.08
26.96,6.52,6.48,1.44,1.40,-1.33,-1.13,-1.15,5.19,5.15,5.08
27.23,6.49,6.49,1.41,1.41,-1.36,-1.14,-1.18,5.13,5.13,5.08
27.50,6.44,6.44,1.36,1.37,-1.37,-1.15,-1.20,5.07,5.07,5.08
27.77,6.38,6.38,1.31,1.31,-1.36,-1.16,-1.23,5.01,5.02,5.07
28.05,6.34,6.35,1.27,1.29,-1.34,-1.18,-1.25,5.00,5.01,5.06
28.33,6.34,6.34,1.28,1.28,-1.30,-1.19,-1.27,5.04,5.04,5.05
28.62,6.34,6.34,1.29,1.29,-1.25,-1.20,-1.30,5.08,5.09,5.05
28.90,6.34,6.33,1.29,1.28,-1.21,-1.22,-1.32,5.12,5.11,5.05
29.19,6.30,6.29,1.26,1.24,-1.20,-1.23,-1.34,5.10,5.09,5.04
29.48,6.23,6.22,1.18,1.17,-1.20,-1.24,-1.36,5.02,5.01,5.05
29.78,6.16,6.17,1.12,1.13,-1.22,-1.26,-1.39,4.93,4.94,5.03
30.08,6.14,6.18,1.10,1.14,-1.26,-1.27,-1.41,4.88,4.92,5.03
30.38,6.26,6.27,1.24,1.24,-1.30,-1.29,-1.43,4.97,4.97,5.02
30.68,6.40,6.39,1.38,1.37,-1.35,-1.31,-1.44,5.05,5.04,5.02
30.99,6.53,6.49,1.52,1.48,-1.41,-1.32,-1.46,5.12,5.09,5.01
31.30,6.54,6.54,1.53,1.53,-1.47,-1.34,-1.48,5.07,5.07,5.00
31.61,6.54,6.55,1.53,1.55,-1.53,-1.35,-1.50,5.01,5.02,5.00
31.93,6.54,6.54,1.55,1.55,-1.55,-1.37,-1.51,4.98,4.98,4.99
32.24,6.54,6.54,1.56,1.56,-1.55,-1.39,-1.53,4.99,4.99,4.98
32.57,6.54,6.54,1.56,1.57,-1.52,-1.41,-1.54,5.01,5.02,4.98
32.89,6.54,6.52,1.56,1.55,-1.49,-1.42,-1.55,5.05,5.03,4.97
33.22,6.48,6.45,1.52,1.49,-1.46,-1.44,-1.57,5.01,4.99,4.96
33.55,6.38,6.37,1.42,1.42,-1.46,-1.46,-1.58,4.91,4.91,4.96
33.89,6.29,6.33,1.34,1.38,-1.49,-1.48,-1.59,4.79,4.84,4.94
34.23,6.35,6.36,1.41,1.42,-1.55,-1.50,-1.60,4.80,4.81,4.94
34.57,6.48,6.46,1.55,1.53,-1.62,-1.52,-1.61,4.85,4.84,4.93
34.92,6.62,6.61,1.70,1.69,-1.70,-1.54,-1.62,4.91,4.90,4.92
35.27,6.75,6.77,1.83,1.86,-1.79,-1.57,-1.64,4.96,4.98,4.91
35.62,6.88,6.89,1.98,1.99,-1.87,-1.59,-1.65,5.00,5.01,4.90
35.97,7.01,6.94,2.12,2.06,-1.95,-1.61,-1.66,5.06,5.00,4.88
36.33,6.93,6.92,2.05,2.05,-1.99,-1.63,-1.67,4.94,4.93,4.88
36.70,6.83,6.85,1.96,1.98,-1.99,-1.66,-1.68,4.84,4.86,4.87
37.06,6.75,6.78,1.89,1.92,-1.96,-1.68,-1.70,4.79,4.82,4.85
37.43,6.75,6.75,1.90,1.91,-1.91,-1.70,-1.71,4.84,4.84,4.85
37.81,6.75,6.73,1.91,1.89,-1.86,-1.73,-1.72,4.88,4.86,4.83
38.19,6.70,6.66,1.88,1.83,-1.84,-1.75,-1.74,4.86,4.82,4.82
38.57,6.58,6.58,1.76,1.76,-1.83,-1.78,-1.75,4.74,4.74,4.82
38.95,6.47,6.55,1.67,1.75,-1.85,-1.81,-1.77,4.62,4.69,4.80
39.34,6.60,6.60,1.81,1.82,-1.89,-1.83,-1.79,4.71,4.71,4.79
39.74,6.75,6.71,1.98,1.94,-1.93,-1.86,-1.81,4.81,4.78,4.77
40.14,6.85,6.82,2.08,2.06,-1.98,-1.89,-1.83,4.87,4.84,4.76
40.54,6.85,6.86,2.10,2.10,-2.03,-1.92,-1.85,4.82,4.83,4.75
40.94,6.85,6.86,2.10,2.12,-2.07,-1.95,-1.87,4.78,4.78,4.74
41.35,6.85,6.85,2.12,2.12,-2.11,-1.98,-1.90,4.74,4.74,4.73
41.76,6.85,6.85,2.13,2.13,-2.13,-2.01,-1.92,4.72,4.72,4.72
42.18,6.85,6.85,2.13,2.14,-2.14,-2.04,-1.95,4.70,4.70,4.71
42.60,6.85,6.85,2.15,2.14,-2.16,-2.07,-1.98,4.68,4.68,4.70
43.03,6.85,6.84,2.16,2.15,-2.20,-2.10,-2.01,4.65,4.63,4.69
43.46,6.85,6.84,2.17,2.17,-2.25,-2.14,-2.04,4.60,4.59,4.67
43.90,6.85,6.89,2.20,2.24,-2.29,-2.17,-2.07,4.55,4.60,4.65
44.33,6.96,6.99,2.33,2.36,-2.33,-2.20,-2.11,4.63,4.66,4.63
44.78,7.12,7.07,2.51,2.46,-2.36,-2.24,-2.15,4.76,4.71,4.61
45.23,7.14,7.10,2.54,2.50,-2.39,-2.27,-2.18,4.75,4.71,4.59
45.68,7.03,7.05,2.45,2.47,-2.41,-2.31,-2.22,4.62,4.64,4.57
46.13,6.94,6.95,2.38,2.39,-2.44,-2.35,-2.26,4.50,4.52,4.55
46.60,6.90,6.89,2.35,2.35,-2.45,-2.38,-2.31,4.44,4.44,4.54
47.06,6.88,6.91,2.35,2.38,-2.47,-2.42,-2.35,4.41,4.44,4.53
47.53,6.97,6.96,2.46,2.45,-2.48,-2.46,-2.40,4.49,4.48,4.51
48.01,7.05,7.01,2.55,2.53,-2.50,-2.50,-2.44,4.54,4.51,4.50
48.49,7.05,7.05,2.58,2.59,-2.54,-2.54,-2.49,4.51,4.51,4.46
48.97,7.05,7.05,2.61,2.62,-2.59,-2.58,-2.54,4.46,4.47,4.43
49.46,7.05,7.05,2.64,2.64,-2.63,-2.61,-2.59,4.42,4.42,4.40
49.96,7.05,7.05,2.68,2.67,-2.66,-2.65,-2.64,4.39,4.39,4.37
50.46,7.05,7.05,2.69,2.69,-2.68,-2.70,-2.69,4.36,4.36,4.36
50.96,7.05,7.05,2.71,2.72,-2.72,-2.74,-2.75,4.33,4.33,4.34
51.47,7.05,7.05,2.74,2.74,-2.77,-2.78,-2.80,4.28,4.28,4.30
51.99,7.05,7.03,2.77,2.75,-2.82,-2.82,-2.85,4.22,4.20,4.28
52.51,7.05,7.05,2.78,2.79,-2.87,-2.86,-2.91,4.18,4.18,4.26
53.03,7.06,7.14,2.82,2.90,-2.90,-2.90,-2.96,4.15,4.24,4.24
53.56,7.26,7.24,3.04,3.03,-2.93,-2.94,-3.02,4.33,4.32,4.22
54.10,7.40,7.30,3.21,3.11,-2.95,-2.99,-3.07,4.44,4.35,4.19
54.64,7.25,7.25,3.08,3.08,-2.98,-3.03,-3.12,4.27,4.27,4.16
55.18,7.10,7.10,2.96,2.96,-3.01,-3.07,-3.18,4.08,4.08,4.14
55.74,6.94,7.00,2.83,2.89,-3.04,-3.11,-3.23,3.89,3.96,4.11
56.29,6.98,7.03,2.88,2.94,-3.07,-3.15,-3.28,3.91,3.96,4.09
56.86,7.20,7.12,3.13,3.06,-3.09,-3.19,-3.32,4.10,4.03,4.06
57.42,7.25,7.22,3.21,3.18,-3.12,-3.23,-3.37,4.13,4.11,4.04
58.00,7.25,7.26,3.23,3.25,-3.16,-3.27,-3.41,4.09,4.11,4.02
58.58,7.25,7.25,3.25,3.25,-3.21,-3.31,-3.46,4.04,4.04,4.00
59.16,7.25,7.25,3.27,3.27,-3.27,-3.35,-3.49,3.98,3.98,3.98
59.76,7.25,7.25,3.29,3.29,-3.32,-3.39,-3.53,3.93,3.93,3.96
60.35,7.25,7.25,3.32,3.32,-3.34,-3.43,-3.56,3.90,3.90,3.92
60.96,7.25,7.25,3.35,3.35,-3.37,-3.47,-3.59,3.88,3.88,3.90
61.57,7.25,7.25,3.39,3.39,-3.39,-3.50,-3.62,3.86,3.86,3.86
62.18,7.25,7.25,3.42,3.42,-3.41,-3.54,-3.64,3.83,3.83,3.82
62.80,7.25,7.25,3.45,3.45,-3.45,-3.57,-3.67,3.80,3.80,3.80
63.43,7.25,7.25,3.48,3.48,-3.48,-3.61,-3.68,3.77,3.77,3.76
64.07,7.25,7.25,3.51,3.51,-3.51,-3.64,-3.70,3.74,3.74,3.74
64.71,7.25,7.25,3.53,3.54,-3.53,-3.67,-3.71,3.71,3.71,3.71
65.35,7.25,7.25,3.56,3.56,-3.56,-3.70,-3.72,3.69,3.69,3.68
66.01,7.25,7.25,3.59,3.59,-3.59,-3.73,-3.72,3.66,3.66,3.66
66.67,7.25,7.25,3.62,3.62,-3.62,-3.76,-3.72,3.63,3.63,3.63
67.33,7.25,7.24,3.65,3.65,-3.65,-3.79,-3.73,3.59,3.59,3.60
68.01,7.25,7.24,3.68,3.68,-3.69,-3.81,-3.72,3.55,3.55,3.57
68.69,7.25,7.24,3.71,3.71,-3.73,-3.84,-3.72,3.51,3.51,3.54
69.37,7.27,7.29,3.76,3.79,-3.78,-3.86,-3.72,3.48,3.51,3.50
70.07,7.31,7.34,3.84,3.87,-3.84,-3.89,-3.71,3.46,3.50,3.47
70.77,7.45,7.33,4.00,3.89,-3.90,-3.91,-3.70,3.54,3.43,3.45
71.48,7.33,7.34,3.91,3.92,-3.96,-3.93,-3.69,3.37,3.38,3.41
72.19,7.22,7.37,3.84,3.99,-4.00,-3.95,-3.69,3.22,3.37,3.38
72.91,7.48,7.40,4.13,4.06,-4.03,-3.97,-3.68,3.45,3.37,3.34
73.64,7.51,7.43,4.20,4.13,-4.06,-3.99,-3.67,3.45,3.38,3.31
74.38,7.41,7.41,4.13,4.14,-4.07,-4.01,-3.66,3.34,3.34,3.28
75.12,7.25,7.31,4.01,4.07,-4.08,-4.02,-3.66,3.16,3.23,3.24
75.87,7.25,7.24,4.04,4.03,-4.10,-4.04,-3.65,3.15,3.15,3.21
76.63,7.25,7.23,4.07,4.05,-4.11,-4.05,-3.65,3.14,3.13,3.18
77.40,7.25,7.25,4.10,4.10,-4.11,-4.07,-3.64,3.13,3.13,3.15
78.17,7.25,7.25,4.14,4.13,-4.13,-4.08,-3.64,3.12,3.12,3.11
78.95,7.25,7.25,4.16,4.17,-4.15,-4.10,-3.64,3.10,3.10,3.08
79.74,7.25,7.25,4.20,4.20,-4.19,-4.11,-3.65,3.06,3.06,3.05
80.54,7.25,7.25,4.23,4.23,-4.23,-4.13,-3.65,3.02,3.02,3.02
81.35,7.25,7.25,4.27,4.26,-4.27,-4.14,-3.66,2.97,2.97,2.98
82.16,7.25,7.25,4.30,4.30,-4.31,-4.15,-3.67,2.94,2.94,2.95
82.98,7.25,7.25,4.33,4.33,-4.34,-4.17,-3.68,2.90,2.90,2.92
83.81,7.25,7.25,4.37,4.37,-4.37,-4.18,-3.69,2.88,2.88,2.87
84.65,7.25,7.25,4.41,4.41,-4.39,-4.19,-3.71,2.86,2.87,2.83
85.50,7.25,7.23,4.44,4.43,-4.40,-4.21,-3.73,2.85,2.83,2.81
86.35,7.21,7.20,4.44,4.43,-4.41,-4.22,-3.75,2.79,2.78,2.77
87.22,7.14,7.14,4.41,4.41,-4.43,-4.24,-3.78,2.71,2.72,2.73
88.09,7.09,7.09,4.40,4.40,-4.44,-4.25,-3.81,2.65,2.65,2.69
88.97,7.05,7.06,4.39,4.41,-4.44,-4.27,-3.84,2.61,2.62,2.66
89.86,7.05,7.05,4.43,4.44,-4.44,-4.28,-3.87,2.60,2.60,2.61
90.76,7.05,7.04,4.48,4.47,-4.45,-4.30,-3.91,2.60,2.59,2.56
91.66,7.03,7.02,4.50,4.49,-4.46,-4.32,-3.95,2.56,2.56,2.53
92.58,6.98,6.97,4.50,4.49,-4.48,-4.33,-3.99,2.50,2.49,2.48
93.51,6.91,6.91,4.46,4.47,-4.49,-4.35,-4.04,2.41,2.42,2.44
94.44,6.86,6.87,4.46,4.47,-4.50,-4.37,-4.09,2.36,2.37,2.40
95.39,6.85,6.85,4.49,4.50,-4.50,-4.39,-4.14,2.35,2.35,2.35
96.34,6.85,6.85,4.55,4.55,-4.50,-4.41,-4.19,2.35,2.35,2.30
97.30,6.84,6.83,4.58,4.57,-4.53,-4.43,-4.25,2.31,2.30,2.25
98.28,6.80,6.72,4.59,4.51,-4.56,-4.45,-4.31,2.23,2.16,2.21
99.26,6.62,6.64,4.45,4.47,-4.59,-4.48,-4.37,2.02,2.04,2.16
100.25,6.50,6.66,4.38,4.54,-4.61,-4.50,-4.43,1.89,2.04,2.12
101.25,6.76,6.71,4.69,4.64,-4.61,-4.52,-4.49,2.15,2.10,2.07
102.27,6.90,6.76,4.87,4.74,-4.59,-4.55,-4.56,2.30,2.17,2.03
103.29,6.69,6.74,4.72,4.76,-4.58,-4.58,-4.62,2.11,2.16,1.97
104.32,6.54,6.54,4.60,4.61,-4.57,-4.60,-4.69,1.97,1.97,1.93
105.37,6.39,6.34,4.50,4.46,-4.57,-4.63,-4.76,1.82,1.77,1.89
106.42,6.16,6.26,4.32,4.42,-4.57,-4.66,-4.83,1.59,1.69,1.84
107.48,6.25,6.24,4.45,4.45,-4.56,-4.69,-4.90,1.68,1.68,1.79
108.56,6.34,6.27,4.60,4.53,-4.56,-4.72,-4.96,1.78,1.72,1.74
109.64,6.32,6.32,4.62,4.63,-4.56,-4.75,-5.03,1.75,1.76,1.69
110.74,6.30,6.31,4.65,4.66,-4.58,-4.78,-5.09,1.72,1.73,1.65
111.85,6.28,6.30,4.68,4.71,-4.62,-4.81,-5.16,1.65,1.68,1.60
112.97,6.27,6.24,4.73,4.70,-4.67,-4.85,-5.22,1.60,1.58,1.53
114.10,6.24,6.16,4.75,4.67,-4.70,-4.88,-5.28,1.53,1.46,1.49
115.24,6.00,6.10,4.56,4.67,-4.73,-4.92,-5.33,1.26,1.37,1.43
116.39,6.07,6.08,4.69,4.70,-4.76,-4.95,-5.38,1.30,1.32,1.38
117.55,6.14,6.10,4.81,4.77,-4.79,-4.99,-5.43,1.34,1.30,1.33
118.73,6.18,6.17,4.90,4.89,-4.84,-5.02,-5.47,1.33,1.32,1.27
119.92,6.18,6.18,4.95,4.96,-4.91,-5.06,-5.51,1.26,1.27,1.23
121.12,6.19,6.19,5.01,5.01,-5.00,-5.10,-5.55,1.19,1.19,1.18
122.33,6.20,6.18,5.07,5.05,-5.10,-5.14,-5.57,1.10,1.08,1.12
123.55,6.21,6.21,5.12,5.13,-5.19,-5.18,-5.60,1.01,1.01,1.08
124.79,6.21,6.28,5.18,5.25,-5.28,-5.21,-5.61,0.93,1.01,1.03
126.03,6.41,6.37,5.43,5.39,-5.34,-5.25,-5.62,1.06,1.03,0.98
127.29,6.49,6.42,5.56,5.50,-5.41,-5.29,-5.63,1.08,1.01,0.93
128.57,6.42,6.43,5.55,5.55,-5.48,-5.33,-5.63,0.94,0.95,0.87
129.85,6.34,6.37,5.51,5.55,-5.56,-5.37,-5.62,0.78,0.82,0.82
131.15,6.34,6.33,5.56,5.56,-5.64,-5.41,-5.62,0.69,0.69,0.77
132.46,6.35,6.32,5.62,5.59,-5.71,-5.45,-5.60,0.64,0.61,0.73
133.79,6.35,6.38,5.66,5.69,-5.75,-5.49,-5.58,0.59,0.63,0.69
135.12,6.38,6.45,5.74,5.81,-5.77,-5.53,-5.56,0.61,0.68,0.63
136.48,6.60,6.48,6.00,5.88,-5.77,-5.56,-5.53,0.83,0.71,0.60
137.84,6.48,6.48,5.92,5.94,-5.76,-5.60,-5.50,0.72,0.72,0.56
139.22,6.33,6.38,5.83,5.87,-5.76,-5.64,-5.47,0.57,0.62,0.50
140.61,6.27,6.16,5.81,5.70,-5.75,-5.68,-5.44,0.52,0.41,0.46
142.02,5.97,6.02,5.53,5.59,-5.74,-5.71,-5.40,0.23,0.28,0.44
143.44,5.88,5.97,5.48,5.58,-5.72,-5.75,-5.36,0.15,0.25,0.40
144.87,6.04,5.99,5.68,5.64,-5.72,-5.78,-5.33,0.31,0.27,0.36
146.32,6.14,6.10,5.82,5.78,-5.76,-5.82,-5.29,0.38,0.34,0.32
147.78,6.17,6.17,5.88,5.88,-5.83,-5.85,-5.25,0.34,0.34,0.29
149.26,6.17,6.17,5.92,5.93,-5.92,-5.88,-5.21,0.25,0.26,0.25
150.75,6.17,6.15,5.97,5.94,-5.99,-5.91,-5.17,0.17,0.16,0.20
152.26,6.17,6.18,6.00,6.02,-6.03,-5.94,-5.14,0.14,0.16,0.17
153.78,6.17,6.28,6.04,6.16,-6.03,-5.97,-5.11,0.14,0.26,0.13
155.32,6.36,6.26,6.27,6.17,-6.00,-5.99,-5.08,0.35,0.26,0.09
156.88,6.30,6.10,6.25,6.05,-5.96,-6.02,-5.04,0.33,0.14,0.05
158.44,5.72,5.87,5.71,5.87,-5.91,-6.04,-5.02,-0.19,-0.04,0.01
160.03,5.55,5.66,5.58,5.69,-5.85,-6.06,-4.99,-0.30,-0.19,-0.03
161.63,5.63,5.58,5.70,5.65,-5.79,-6.08,-4.97,-0.16,-0.21,-0.08
163.24,5.68,5.62,5.79,5.74,-5.74,-6.10,-4.95,-0.06,-0.11,-0.12
164.88,5.63,5.62,5.77,5.77,-5.72,-6.11,-4.94,-0.09,-0.10,-0.15
166.53,5.54,5.55,5.72,5.73,-5.74,-6.13,-4.93,-0.20,-0.19,-0.19
168.19,5.48,5.47,5.70,5.69,-5.77,-6.14,-4.92,-0.29,-0.30,-0.22
169.87,5.44,5.47,5.70,5.73,-5.79,-6.15,-4.91,-0.35,-0.31,-0.26
171.57,5.49,5.55,5.79,5.85,-5.77,-6.15,-4.92,-0.29,-0.22,-0.30
173.29,5.67,5.61,6.00,5.95,-5.75,-6.15,-4.92,-0.08,-0.14,-0.33
175.02,5.63,5.53,6.00,5.90,-5.73,-6.16,-4.93,-0.11,-0.21,-0.37
176.77,5.36,5.32,5.77,5.74,-5.74,-6.15,-4.93,-0.38,-0.42,-0.41
178.54,4.97,5.11,5.43,5.57,-5.76,-6.15,-4.95,-0.80,-0.65,-0.46
180.32,4.99,5.01,5.48,5.50,-5.77,-6.14,-4.97,-0.79,-0.77,-0.49
182.13,5.15,5.09,5.67,5.62,-5.76,-6.13,-4.99,-0.62,-0.67,-0.52
183.95,5.23,5.32,5.79,5.89,-5.75,-6.12,-5.01,-0.52,-0.42,-0.57
185.79,5.46,5.41,6.05,6.01,-5.75,-6.11,-5.04,-0.29,-0.34,-0.60
187.65,5.52,5.30,6.15,5.93,-5.77,-6.09,-5.08,-0.25,-0.47,-0.64
189.52,5.01,5.14,5.68,5.80,-5.80,-6.07,-5.11,-0.79,-0.67,-0.67
191.42,4.82,4.98,5.51,5.68,-5.82,-6.05,-5.15,-1.01,-0.84,-0.70
193.33,5.01,4.93,5.73,5.65,-5.82,-6.03,-5.20,-0.82,-0.89,-0.73
195.27,5.07,5.01,5.82,5.76,-5.79,-6.00,-5.24,-0.73,-0.79,-0.76
197.22,5.03,5.04,5.81,5.82,-5.75,-5.97,-5.29,-0.72,-0.71,-0.78
199.19,4.97,4.99,5.79,5.80,-5.73,-5.94,-5.34,-0.76,-0.74,-0.82
201.18,4.95,4.95,5.78,5.79,-5.74,-5.90,-5.39,-0.79,-0.79,-0.84
203.19,4.92,4.91,5.77,5.77,-5.76,-5.87,-5.45,-0.84,-0.85,-0.85
205.23,4.88,4.86,5.76,5.73,-5.78,-5.83,-5.50,-0.90,-0.92,-0.88
207.28,4.80,4.79,5.68,5.68,-5.77,-5.79,-5.56,-0.97,-0.98,-0.88
209.35,4.76,4.81,5.66,5.71,-5.75,-5.74,-5.62,-0.99,-0.94,-0.91
211.44,4.80,4.87,5.73,5.80,-5.74,-5.70,-5.68,-0.94,-0.86,-0.93
213.56,5.03,4.89,5.96,5.83,-5.75,-5.65,-5.73,-0.72,-0.86,-0.94
215.69,4.92,4.85,5.86,5.79,-5.77,-5.60,-5.79,-0.85,-0.92,-0.94
217.85,4.66,4.77,5.61,5.72,-5.79,-5.55,-5.84,-1.13,-1.02,-0.95
220.03,4.68,4.71,5.64,5.67,-5.79,-5.50,-5.90,-1.12,-1.08,-0.96
222.23,4.78,4.78,5.75,5.75,-5.79,-5.44,-5.95,-1.01,-1.01,-0.98
224.45,4.92,4.89,5.88,5.87,-5.77,-5.38,-5.99,-0.85,-0.87,-0.97
226.70,4.94,4.87,5.91,5.84,-5.74,-5.32,-6.03,-0.80,-0.87,-0.97
228.96,4.81,4.77,5.78,5.73,-5.70,-5.26,-6.07,-0.90,-0.94,-0.97
231.25,4.53,4.67,5.49,5.64,-5.66,-5.20,-6.10,-1.13,-0.98,-0.96
233.57,4.60,4.58,5.56,5.54,-5.59,-5.14,-6.12,-1.00,-1.01,-0.96
235.90,4.65,4.54,5.61,5.50,-5.51,-5.08,-6.14,-0.87,-0.97,-0.96
238.26,4.44,4.52,5.40,5.47,-5.42,-5.01,-6.15,-0.99,-0.91,-0.96
240.64,4.44,4.40,5.38,5.34,-5.34,-4.94,-6.15,-0.90,-0.94,-0.95
243.05,4.29,4.27,5.22,5.21,-5.27,-4.88,-6.14,-0.98,-1.00,-0.94
245.48,4.16,4.20,5.08,5.13,-5.20,-4.81,-6.12,-1.04,-1.00,-0.93
247.93,4.15,4.17,5.06,5.09,-5.12,-4.74,-6.10,-0.97,-0.95,-0.91
250.41,4.17,4.18,5.08,5.08,-5.03,-4.67,-6.05,-0.86,-0.85,-0.91
252.92,4.23,4.12,5.12,5.01,-4.93,-4.60,-6.01,-0.70,-0.81,-0.89
255.45,4.01,4.01,4.87,4.88,-4.83,-4.53,-5.95,-0.82,-0.82,-0.87
258.00,3.77,3.89,4.62,4.75,-4.73,-4.45,-5.88,-0.96,-0.84,-0.85
260.58,3.80,3.74,4.64,4.57,-4.63,-4.38,-5.81,-0.83,-0.89,-0.84
263.19,3.72,3.64,4.53,4.46,-4.51,-4.31,-5.72,-0.79,-0.87,-0.82
265.82,3.46,3.56,4.26,4.36,-4.39,-4.23,-5.62,-0.93,-0.82,-0.80
268.48,3.48,3.48,4.26,4.26,-4.26,-4.16,-5.52,-0.78,-0.78,-0.78
271.16,3.44,3.40,4.19,4.16,-4.14,-4.08,-5.41,-0.70,-0.74,-0.75
273.87,3.36,3.32,4.10,4.05,-4.01,-4.01,-5.29,-0.65,-0.69,-0.74
276.61,3.16,3.20,3.87,3.92,-3.88,-3.93,-5.17,-0.73,-0.68,-0.72
279.38,3.05,3.09,3.75,3.79,-3.76,-3.86,-5.04,-0.72,-0.67,-0.70
282.17,3.04,2.95,3.72,3.64,-3.65,-3.78,-4.90,-0.61,-0.70,-0.69
284.99,2.86,2.85,3.52,3.52,-3.55,-3.70,-4.77,-0.69,-0.70,-0.66
287.84,2.67,2.74,3.31,3.38,-3.46,-3.63,-4.62,-0.79,-0.72,-0.65
290.72,2.72,2.68,3.34,3.30,-3.37,-3.55,-4.47,-0.66,-0.69,-0.62
293.63,2.65,2.69,3.25,3.29,-3.30,-3.47,-4.32,-0.66,-0.62,-0.60
296.57,2.76,2.70,3.34,3.29,-3.25,-3.39,-4.17,-0.49,-0.54,-0.58
299.53,2.68,2.70,3.24,3.26,-3.20,-3.32,-4.02,-0.52,-0.50,-0.56
302.53,2.65,2.64,3.19,3.18,-3.14,-3.24,-3.86,-0.50,-0.50,-0.55
305.55,2.60,2.56,3.11,3.08,-3.08,-3.16,-3.71,-0.48,-0.52,-0.51
308.61,2.43,2.53,2.92,3.02,-3.01,-3.08,-3.55,-0.59,-0.49,-0.49
311.69,2.52,2.48,2.98,2.94,-2.93,-3.01,-3.39,-0.42,-0.45,-0.47
314.81,2.49,2.42,2.92,2.86,-2.85,-2.93,-3.24,-0.36,-0.43,-0.43
317.96,2.32,2.34,2.73,2.76,-2.76,-2.85,-3.08,-0.44,-0.42,-0.41
321.14,2.22,2.26,2.61,2.65,-2.68,-2.77,-2.92,-0.47,-0.43,-0.40
324.35,2.20,2.22,2.58,2.60,-2.62,-2.69,-2.77,-0.43,-0.40,-0.38
327.59,2.26,2.21,2.61,2.56,-2.58,-2.61,-2.61,-0.33,-0.38,-0.35
330.87,2.21,2.16,2.54,2.50,-2.55,-2.53,-2.46,-0.34,-0.39,-0.34
334.18,2.09,2.14,2.41,2.46,-2.51,-2.45,-2.30,-0.42,-0.37,-0.32
337.52,2.07,2.14,2.37,2.44,-2.45,-2.37,-2.15,-0.39,-0.31,-0.30
340.90,2.24,2.17,2.51,2.44,-2.37,-2.29,-2.00,-0.13,-0.21,-0.27
344.30,2.21,2.17,2.46,2.42,-2.27,-2.21,-1.85,-0.07,-0.11,-0.26
347.75,2.05,2.09,2.29,2.32,-2.17,-2.13,-1.70,-0.12,-0.08,-0.24
351.23,1.90,1.87,2.12,2.09,-2.07,-2.05,-1.55,-0.18,-0.20,-0.22
354.74,1.69,1.64,1.89,1.84,-1.98,-1.97,-1.40,-0.29,-0.34,-0.20
358.28,1.40,1.49,1.58,1.67,-1.88,-1.89,-1.25,-0.49,-0.40,-0.19
361.87,1.40,1.46,1.56,1.63,-1.78,-1.81,-1.11,-0.38,-0.32,-0.17
365.49,1.55,1.52,1.71,1.68,-1.67,-1.72,-0.96,-0.12,-0.15,-0.16
369.14,1.65,1.57,1.80,1.72,-1.56,-1.64,-0.82,0.08,0.00,-0.15
372.83,1.51,1.49,1.64,1.63,-1.47,-1.56,-0.67,0.04,0.02,-0.13
376.56,1.29,1.32,1.41,1.44,-1.38,-1.47,-0.53,-0.09,-0.06,-0.13
380.33,1.11,1.14,1.20,1.24,-1.28,-1.39,-0.39,-0.17,-0.14,-0.10
384.13,1.01,0.99,1.10,1.08,-1.15,-1.30,-0.25,-0.14,-0.16,-0.09
387.97,0.89,0.87,0.97,0.95,-1.00,-1.21,-0.11,-0.12,-0.13,-0.08
391.85,0.74,0.76,0.81,0.83,-0.84,-1.13,0.02,-0.11,-0.09,-0.07
395.77,0.64,0.63,0.69,0.68,-0.68,-1.04,0.16,-0.05,-0.06,-0.05
399.73,0.51,0.50,0.55,0.55,-0.54,-0.95,0.30,-0.03,-0.04,-0.04
403.72,0.37,0.38,0.40,0.42,-0.39,-0.86,0.43,-0.03,-0.01,-0.04
407.76,0.26,0.25,0.28,0.28,-0.24,-0.77,0.56,0.01,0.01,-0.03
411.84,0.13,0.11,0.14,0.12,-0.09,-0.67,0.69,0.03,0.01,-0.01
415.96,-0.05,-0.05,-0.05,-0.05,0.05,-0.58,0.82,0.00,0.00,0.00
420.12,-0.22,-0.20,-0.23,-0.21,0.19,-0.48,0.94,-0.03,-0.01,0.01
424.32,-0.34,-0.34,-0.36,-0.36,0.33,-0.38,1.07,-0.02,-0.02,0.02
428.56,-0.45,-0.48,-0.48,-0.50,0.45,-0.29,1.19,0.00,-0.02,0.03
432.85,-0.57,-0.57,-0.61,-0.61,0.58,-0.19,1.31,0.01,0.01,0.04
437.18,-0.68,-0.60,-0.73,-0.64,0.70,-0.08,1.42,0.02,0.11,0.04
441.55,-0.61,-0.67,-0.68,-0.73,0.80,0.02,1.53,0.19,0.13,0.06
445.96,-0.65,-0.78,-0.73,-0.85,0.88,0.13,1.64,0.22,0.10,0.07
450.42,-1.00,-0.87,-1.09,-0.96,0.93,0.23,1.74,-0.07,0.06,0.08
454.93,-0.99,-0.97,-1.09,-1.07,0.98,0.34,1.84,-0.02,0.01,0.10
459.48,-0.93,-1.01,-1.04,-1.12,1.01,0.45,1.94,0.08,0.00,0.11
464.07,-0.95,-0.92,-1.08,-1.05,1.04,0.57,2.02,0.08,0.12,0.13
468.71,-0.91,-0.84,-1.06,-0.99,1.05,0.68,2.11,0.14,0.21,0.15
473.40,-0.73,-0.84,-0.89,-1.00,1.05,0.80,2.19,0.32,0.21,0.16
478.13,-0.80,-0.86,-0.98,-1.04,1.05,0.92,2.26,0.24,0.19,0.18
482.91,-1.03,-0.88,-1.22,-1.07,1.06,1.04,2.33,0.03,0.18,0.19
487.74,-0.90,-0.90,-1.11,-1.11,1.09,1.17,2.38,0.19,0.19,0.21
492.62,-0.82,-0.91,-1.05,-1.14,1.16,1.29,2.44,0.33,0.24,0.23
497.55,-0.92,-0.94,-1.16,-1.18,1.25,1.42,2.49,0.33,0.31,0.23
502.52,-1.12,-1.05,-1.38,-1.30,1.36,1.55,2.53,0.24,0.31,0.25
507.55,-1.19,-1.20,-1.46,-1.47,1.47,1.69,2.56,0.27,0.26,0.26
512.62,-1.28,-1.35,-1.57,-1.64,1.58,1.82,2.59,0.30,0.23,0.28
517.75,-1.52,-1.47,-1.83,-1.77,1.70,1.96,2.61,0.18,0.24,0.30
