frequency,raw
20.00,-18.95
20.20,-18.79
20.40,-18.64
20.61,-18.48
20.81,-18.32
21.02,-18.16
21.23,-18.00
21.44,-17.84
21.66,-17.68
21.87,-17.52
22.09,-17.36
22.31,-17.20
22.54,-17.04
22.76,-16.88
22.99,-16.72
23.22,-16.55
23.45,-16.39
23.69,-16.22
23.92,-16.05
24.16,-15.89
24.40,-15.72
24.65,-15.56
24.89,-15.39
25.14,-15.23
25.39,-15.06
25.65,-14.90
25.91,-14.73
26.16,-14.56
26.43,-14.39
26.69,-14.23
26.96,-14.06
27.23,-13.89
27.50,-13.72
27.77,-13.56
28.05,-13.39
28.33,-13.22
28.62,-13.05
28.90,-12.89
29.19,-12.72
29.48,-12.55
29.78,-12.39
30.08,-12.22
30.38,-12.06
30.68,-11.90
30.99,-11.75
31.30,-11.58
31.61,-11.42
31.93,-11.26
32.24,-11.10
32.57,-10.94
32.89,-10.78
33.22,-10.62
33.55,-10.47
33.89,-10.31
34.23,-10.15
34.57,-9.99
34.92,-9.83
35.27,-9.68
35.62,-9.53
35.97,-9.38
36.33,-9.23
36.70,-9.08
37.06,-8.92
37.43,-8.77
37.81,-8.62
38.19,-8.47
38.57,-8.33
38.95,-8.19
39.34,-8.05
39.74,-7.91
40.14,-7.77
40.54,-7.64
40.94,-7.51
41.35,-7.38
41.76,-7.24
42.18,-7.11
42.60,-6.98
43.03,-6.84
43.46,-6.71
43.90,-6.58
44.33,-6.45
44.78,-6.31
45.23,-6.17
45.68,-6.04
46.13,-5.91
46.60,-5.79
47.06,-5.66
47.53,-5.52
48.01,-5.39
48.49,-5.26
48.97,-5.13
49.46,-5.00
49.96,-4.88
50.46,-4.76
50.96,-4.63
51.47,-4.51
51.99,-4.39
52.51,-4.28
53.03,-4.16
53.56,-4.05
54.10,-3.93
54.64,-3.82
55.18,-3.72
55.74,-3.62
56.29,-3.52
56.86,-3.42
57.42,-3.32
58.00,-3.23
58.58,-3.15
59.16,-3.08
59.76,-2.99
60.35,-2.90
60.96,-2.83
61.57,-2.76
62.18,-2.69
62.80,-2.61
63.43,-2.54
64.07,-2.47
64.71,-2.40
65.35,-2.34
66.01,-2.28
66.67,-2.22
67.33,-2.16
68.01,-2.09
68.69,-2.02
69.37,-1.96
70.07,-1.90
70.77,-1.85
71.48,-1.79
72.19,-1.73
72.91,-1.67
73.64,-1.60
74.38,-1.54
75.12,-1.49
75.87,-1.43
76.63,-1.38
77.40,-1.33
78.17,-1.28
78.95,-1.22
79.74,-1.17
80.54,-1.11
81.35,-1.06
82.16,-1.01
82.98,-0.96
83.81,-0.91
84.65,-0.87
85.50,-0.84
86.35,-0.81
87.22,-0.78
88.09,-0.75
88.97,-0.72
89.86,-0.69
90.76,-0.66
91.66,-0.62
92.58,-0.59
93.51,-0.55
94.44,-0.52
95.39,-0.49
96.34,-0.47
97.30,-0.44
98.28,-0.41
99.26,-0.38
100.25,-0.37
101.25,-0.35
102.27,-0.34
103.29,-0.33
104.32,-0.33
105.37,-0.32
106.42,-0.31
107.48,-0.29
108.56,-0.26
109.64,-0.23
110.74,-0.19
111.85,-0.15
112.97,-0.12
114.10,-0.09
115.24,-0.06
116.39,-0.04
117.55,-0.02
118.73,-0.00
119.92,0.01
121.12,0.00
122.33,0.00
123.55,0.00
124.79,-0.01
126.03,-0.01
127.29,-0.01
128.57,-0.01
129.85,-0.01
131.15,-0.01
132.46,-0.01
133.79,-0.01
135.12,-0.01
136.48,-0.01
137.84,-0.01
139.22,-0.01
140.61,-0.01
142.02,-0.01
143.44,-0.01
144.87,-0.01
146.32,-0.01
147.78,-0.01
149.26,-0.01
150.75,-0.01
152.26,-0.01
153.78,-0.01
155.32,-0.01
156.88,-0.01
158.44,-0.01
160.03,-0.01
161.63,-0.01
163.24,0.00
164.88,0.01
166.53,0.01
168.19,-0.00
169.87,-0.01
171.57,-0.03
173.29,-0.05
175.02,-0.08
176.77,-0.10
178.54,-0.12
180.32,-0.16
182.13,-0.20
183.95,-0.28
185.79,-0.32
187.65,-0.38
189.52,-0.43
191.42,-0.48
193.33,-0.52
195.27,-0.56
197.22,-0.58
199.19,-0.60
201.18,-0.62
203.19,-0.65
205.23,-0.67
207.28,-0.68
209.35,-0.68
211.44,-0.68
213.56,-0.67
215.69,-0.66
217.85,-0.66
220.03,-0.66
222.23,-0.66
224.45,-0.66
226.70,-0.66
228.96,-0.66
231.25,-0.66
233.57,-0.66
235.90,-0.66
238.26,-0.66
240.64,-0.66
243.05,-0.66
245.48,-0.66
247.93,-0.66
250.41,-0.66
252.92,-0.66
255.45,-0.66
258.00,-0.66
260.58,-0.66
263.19,-0.66
265.82,-0.66
268.48,-0.66
271.16,-0.66
273.87,-0.66
276.61,-0.66
279.38,-0.66
282.17,-0.66
284.99,-0.66
287.84,-0.66
290.72,-0.66
293.63,-0.66
296.57,-0.66
299.53,-0.66
302.53,-0.66
305.55,-0.66
308.61,-0.66
311.69,-0.66
314.81,-0.66
317.96,-0.66
321.14,-0.66
324.35,-0.66
327.59,-0.66
330.87,-0.66
334.18,-0.66
337.52,-0.66
340.90,-0.66
344.30,-0.66
347.75,-0.67
351.23,-0.68
354.74,-0.68
358.28,-0.68
361.87,-0.67
365.49,-0.65
369.14,-0.63
372.83,-0.61
376.56,-0.57
380.33,-0.55
384.13,-0.51
387.97,-0.48
391.85,-0.44
395.77,-0.41
399.73,-0.38
403.72,-0.36
407.76,-0.34
411.84,-0.32
415.96,-0.31
420.12,-0.32
424.32,-0.33
428.56,-0.33
432.85,-0.34
437.18,-0.34
441.55,-0.34
445.96,-0.34
450.42,-0.34
454.93,-0.34
459.48,-0.34
464.07,-0.34
468.71,-0.34
473.40,-0.34
478.13,-0.34
482.91,-0.34
487.74,-0.34
492.62,-0.34
497.55,-0.34
502.52,-0.34
507.55,-0.34
512.62,-0.34
517.75,-0.34
522.93,-0.34
528.16,-0.34
533.44,-0.34
538.77,-0.34
544.16,-0.34
549.60,-0.34
555.10,-0.34
560.65,-0.34
566.25,-0.34
571.92,-0.34
577.64,-0.34
583.41,-0.34
589.25,-0.34
595.14,-0.34
601.09,-0.34
607.10,-0.34
613.17,-0.34
619.30,-0.34
625.50,-0.34
631.75,-0.34
638.07,-0.34
644.45,-0.34
650.89,-0.34
657.40,-0.34
663.98,-0.34
670.62,-0.34
677.32,-0.34
684.10,-0.34
690.94,-0.34
697.85,-0.34
704.83,-0.34
711.87,-0.34
718.99,-0.34
726.18,-0.34
733.44,-0.34
740.78,-0.34
748.19,-0.34
755.67,-0.34
763.23,-0.34
770.86,-0.34
778.57,-0.34
786.35,-0.34
794.22,-0.34
802.16,-0.34
810.18,-0.34
818.28,-0.35
826.46,-0.36
834.73,-0.36
843.08,-0.35
851.51,-0.33
860.02,-0.31
868.62,-0.29
877.31,-0.26
886.08,-0.23
894.94,-0.19
903.89,-0.16
912.93,-0.13
922.06,-0.09
931.28,-0.06
940.59,-0.03
950.00,-0.02
959.50,-0.01
969.09,-0.01
978.78,-0.01
988.57,-0.01
998.46,-0.00
1008.44,0.01
1018.53,0.04
1028.71,0.07
1039.00,0.10
1049.39,0.14
1059.88,0.17
1070.48,0.19
1081.19,0.21
1092.00,0.24
1102.92,0.27
1113.95,0.30
1125.09,0.34
1136.34,0.37
1147.70,0.40
1159.18,0.42
1170.77,0.44
1182.48,0.46
1194.30,0.49
1206.25,0.53
1218.31,0.58
1230.49,0.63
1242.80,0.67
1255.22,0.71
1267.78,0.74
1280.45,0.78
1293.26,0.81
1306.19,0.85
1319.25,0.89
1332.45,0.94
1345.77,0.99
1359.23,1.04
1372.82,1.10
1386.55,1.15
1400.41,1.20
1414.42,1.24
1428.56,1.29
1442.85,1.35
1457.28,1.41
1471.85,1.47
1486.57,1.53
1501.43,1.59
1516.45,1.65
1531.61,1.71
1546.93,1.77
1562.40,1.83
1578.02,1.89
1593.80,1.97
1609.74,2.03
1625.84,2.10
1642.10,2.16
1658.52,2.24
1675.10,2.31
1691.85,2.39
1708.77,2.46
1725.86,2.53
1743.12,2.62
1760.55,2.72
1778.15,2.81
1795.94,2.89
1813.90,2.99
1832.03,3.09
1850.36,3.18
1868.86,3.27
1887.55,3.35
1906.42,3.45
1925.49,3.55
1944.74,3.64
1964.19,3.74
1983.83,3.84
2003.67,3.94
2023.71,4.04
2043.94,4.15
2064.38,4.26
2085.03,4.37
2105.88,4.50
2126.94,4.62
2148.20,4.75
2169.69,4.87
2191.38,5.00
2213.30,5.13
2235.43,5.24
2257.78,5.34
2280.36,5.43
2303.17,5.52
2326.20,5.61
2349.46,5.70
2372.95,5.77
2396.68,5.83
2420.65,5.90
2444.86,5.95
2469.31,6.00
2494.00,6.04
2518.94,6.07
2544.13,6.10
2569.57,6.13
2595.27,6.14
2621.22,6.16
2647.43,6.19
2673.90,6.20
2700.64,6.19
2727.65,6.17
2754.93,6.16
2782.48,6.14
2810.30,6.12
2838.40,6.08
2866.79,6.04
2895.46,5.99
2924.41,5.93
2953.65,5.87
2983.19,5.81
3013.02,5.75
3043.15,5.66
3073.58,5.57
3104.32,5.47
3135.36,5.36
3166.72,5.25
3198.38,5.14
3230.37,5.00
3262.67,4.86
3295.30,4.73
3328.25,4.60
3361.53,4.48
3395.15,4.34
3429.10,4.22
3463.39,4.11
3498.03,4.01
3533.01,3.91
3568.34,3.81
3604.02,3.74
3640.06,3.67
3676.46,3.60
3713.22,3.53
3750.36,3.48
3787.86,3.45
3825.74,3.43
3864.00,3.44
3902.64,3.47
3941.66,3.54
3981.08,3.63
4020.89,3.75
4061.10,3.91
4101.71,4.09
4142.73,4.29
4184.15,4.52
4226.00,4.75
4268.26,4.99
4310.94,5.23
4354.05,5.47
4397.59,5.72
4441.56,5.96
4485.98,6.18
4530.84,6.39
4576.15,6.60
4621.91,6.77
4668.13,6.93
4714.81,7.08
4761.96,7.19
4809.58,7.30
4857.67,7.38
4906.25,7.44
4955.31,7.49
5004.87,7.52
5054.91,7.51
5105.46,7.49
5156.52,7.46
5208.08,7.40
5260.16,7.33
5312.77,7.23
5365.89,7.11
5419.55,6.98
5473.75,6.83
5528.49,6.66
5583.77,6.47
5639.61,6.26
5696.00,6.02
5752.96,5.78
5810.49,5.51
5868.60,5.24
5927.28,4.95
5986.56,4.64
6046.42,4.33
6106.89,4.01
6167.96,3.68
6229.64,3.35
6291.93,3.01
6354.85,2.67
6418.40,2.36
6482.58,2.06
6547.41,1.76
6612.88,1.48
6679.01,1.19
6745.80,0.91
6813.26,0.62
6881.39,0.35
6950.21,0.08
7019.71,-0.18
7089.91,-0.43
7160.81,-0.67
7232.41,-0.91
7304.74,-1.15
7377.79,-1.36
7451.56,-1.57
7526.08,-1.76
7601.34,-1.92
7677.35,-2.07
7754.13,-2.17
7831.67,-2.23
7909.98,-2.26
7989.08,-2.26
8068.98,-2.24
8149.67,-2.20
8231.16,-2.14
8313.47,-2.01
8396.61,-1.82
8480.57,-1.58
8565.38,-1.32
8651.03,-1.01
8737.54,-0.68
8824.92,-0.31
8913.17,0.10
9002.30,0.52
9092.32,0.94
9183.25,1.37
9275.08,1.81
9367.83,2.25
9461.51,2.68
9556.12,3.10
9651.68,3.49
9748.20,3.86
9845.68,4.20
9944.14,4.52
10043.58,4.82
10144.02,5.10
10245.46,5.35
10347.91,5.56
10451.39,5.73
10555.91,5.88
10661.46,6.01
10768.08,6.12
10875.76,6.18
10984.52,6.21
11094.36,6.22
11205.31,6.21
11317.36,6.17
11430.53,6.11
11544.84,6.03
11660.29,5.93
11776.89,5.82
11894.66,5.69
12013.60,5.54
12133.74,5.38
12255.08,5.18
12377.63,4.98
12501.41,4.75
12626.42,4.52
12752.68,4.28
12880.21,4.02
13009.01,3.75
13139.10,3.46
13270.49,3.17
13403.20,2.88
13537.23,2.59
13672.60,2.30
13809.33,2.03
13947.42,1.75
14086.90,1.49
14227.77,1.24
14370.04,1.00
14513.74,0.76
14658.88,0.53
14805.47,0.29
14953.52,0.05
15103.06,-0.20
15254.09,-0.46
15406.63,-0.73
15560.70,-1.02
15716.30,-1.31
15873.47,-1.60
16032.20,-1.88
16192.52,-2.16
16354.45,-2.42
16517.99,-2.67
16683.17,-2.92
16850.01,-3.16
17018.51,-3.40
17188.69,-3.66
17360.58,-3.94
17534.18,-4.26
17709.53,-4.62
17886.62,-5.02
18065.49,-5.47
18246.14,-5.95
18428.60,-6.47
18612.89,-7.03
18799.02,-7.62
18987.01,-8.24
19176.88,-8.90
19368.65,-9.60
19562.33,-10.34
19757.96,-11.12
19955.54,-11.93
