frequency,raw
20,-10.38
21,-9.34
22,-8.65
23,-7.83
24,-7.18
25,-6.56
26,-5.79
27,-5.22
28,-4.73
29,-4.24
30,-3.69
31,-3.32
32,-2.80
33,-2.31
34,-1.96
35,-1.63
36,-1.15
37,-0.84
38,-0.54
39,-0.16
40,0.09
41,0.32
42,0.59
43,0.86
44,1.12
45,1.30
46,1.62
47,1.62
48,1.93
49,2.01
50,2.24
51,2.27
52,2.36
53,2.57
54,2.62
55,2.83
56,2.92
57,2.92
58,2.92
59,3.03
60,3.24
61,3.24
62,3.24
63,3.39
64,3.57
65,3.58
66,3.75
67,3.89
68,3.89
69,3.93
70,4.09
71,4.22
72,4.22
73,4.24
74,4.38
75,4.38
76,4.53
77,4.54
78,4.54
79,4.54
80,4.54
81,4.60
82,4.74
83,4.86
84,4.86
85,4.86
86,4.86
87,4.86
88,4.86
89,4.86
90,4.86
91,4.86
92,4.86
93,4.86
94,4.86
95,4.86
96,4.86
97,4.86
98,4.97
99,5.03
100,5.02
101,4.90
102,4.86
104,4.99
105,5.10
106,5.19
107,5.19
108,5.12
109,5.03
110,5.03
111,5.03
112,5.03
113,5.03
114,5.00
115,4.90
117,4.86
118,4.86
119,4.86
120,4.86
121,4.86
123,4.86
124,4.86
125,4.86
126,4.86
128,4.86
129,4.86
130,4.86
131,4.86
133,4.86
134,4.79
135,4.71
137,4.54
138,4.54
140,4.54
141,4.54
142,4.54
144,4.54
145,4.54
147,4.54
148,4.54
150,4.54
151,4.54
153,4.43
154,4.38
156,4.37
157,4.30
159,4.22
160,4.22
162,4.22
164,4.22
165,4.22
167,4.22
169,4.22
170,4.22
172,4.22
174,4.11
175,4.05
177,3.92
179,3.89
181,3.89
183,3.89
184,3.89
186,3.89
188,3.89
190,3.89
192,3.81
194,3.73
196,3.73
198,3.63
200,3.57
202,3.57
204,3.57
206,3.57
208,3.57
210,3.57
212,3.50
214,3.40
216,3.29
218,3.24
221,3.24
223,3.24
225,3.24
227,3.24
229,3.24
232,3.13
234,3.04
236,2.94
239,2.92
241,2.92
244,2.92
246,2.92
248,2.92
251,2.89
253,2.81
256,2.67
259,2.59
261,2.59
264,2.59
266,2.59
269,2.59
272,2.59
274,2.55
277,2.43
280,2.31
283,2.27
286,2.27
288,2.27
291,2.27
294,2.24
297,2.13
300,2.02
303,1.95
306,1.95
309,1.95
312,1.95
316,1.95
319,1.95
322,1.95
325,1.92
328,1.82
332,1.68
335,1.62
338,1.62
342,1.62
345,1.62
349,1.62
352,1.62
356,1.54
359,1.46
363,1.46
366,1.39
370,1.30
374,1.30
377,1.30
381,1.30
385,1.30
389,1.30
393,1.30
397,1.29
401,1.17
405,1.14
409,1.11
413,1.00
417,0.97
421,0.97
425,0.97
430,0.97
434,0.97
438,0.97
443,0.97
447,0.92
451,0.82
456,0.69
460,0.65
465,0.65
470,0.65
474,0.65
479,0.65
484,0.65
489,0.55
494,0.44
499,0.32
504,0.32
509,0.32
514,0.31
519,0.09
524,0.00
529,-0.01
535,-0.14
540,-0.24
545,-0.32
551,-0.32
556,-0.50
562,-0.65
568,-0.65
573,-0.65
579,-0.65
585,-0.66
591,-0.78
596,-0.87
602,-0.97
608,-0.97
615,-0.97
621,-0.97
627,-0.97
633,-0.97
639,-0.97
646,-0.97
652,-0.77
659,-0.65
665,-0.65
672,-0.65
679,-0.65
686,-0.62
692,-0.52
699,-0.41
706,-0.32
713,-0.32
721,-0.32
728,-0.32
735,-0.32
742,-0.32
750,-0.32
757,-0.32
765,-0.32
773,-0.32
780,-0.32
788,-0.32
796,-0.24
804,-0.16
812,-0.16
820,-0.07
828,0.00
837,0.00
845,0.00
853,0.00
862,0.00
871,0.00
879,0.00
888,0.00
897,0.00
906,-0.00
915,0.00
924,0.00
933,-0.00
943,-0.00
952,0.00
962,0.00
971,0.00
981,0.00
991,-0.00
1001,0.00
1011,-0.00
1021,-0.00
1031,0.00
1041,-0.00
1052,0.00
1062,0.00
1073,0.00
1084,-0.00
1094,0.00
1105,-0.00
1116,0.00
1128,0.00
1139,0.00
1150,0.00
1162,0.00
1173,0.00
1185,0.00
1197,0.00
1209,0.10
1221,0.21
1233,0.32
1246,0.32
1258,0.32
1271,0.32
1283,0.32
1296,0.32
1309,0.35
1322,0.46
1335,0.57
1349,0.65
1362,0.65
1376,0.65
1390,0.65
1404,0.65
1418,0.77
1432,0.88
1446,0.97
1461,0.97
1475,0.97
1490,0.97
1505,0.97
1520,0.97
1535,0.97
1550,0.97
1566,0.97
1582,0.92
1597,0.81
1613,0.70
1629,0.65
1646,0.65
1662,0.65
1679,0.49
1696,0.29
1713,0.18
1730,0.07
1747,-0.08
1764,-0.30
1782,-0.53
1800,-0.76
1818,-0.98
1836,-1.32
1854,-1.59
1873,-1.82
1892,-2.04
1911,-2.27
1930,-2.55
1949,-3.00
1969,-3.27
1988,-3.53
2008,-3.86
2028,-4.20
2048,-4.48
2069,-4.71
2090,-4.94
2111,-5.10
2132,-5.19
2153,-5.19
2175,-5.19
2196,-5.19
2218,-5.19
2240,-5.01
2263,-4.82
2285,-4.71
2308,-4.50
2331,-4.27
2355,-4.04
2378,-3.82
2402,-3.59
2426,-3.39
2450,-3.28
2475,-3.08
2500,-2.89
2525,-2.77
2550,-2.66
2575,-2.59
2601,-2.59
2627,-2.38
2653,-2.27
2680,-2.27
2707,-2.27
2734,-2.27
2761,-2.27
2789,-2.27
2817,-2.19
2845,-2.07
2873,-1.96
2902,-1.95
2931,-1.95
2960,-1.95
2990,-1.95
3020,-1.83
3050,-1.61
3080,-1.50
3111,-1.32
3142,-1.10
3174,-0.87
3206,-0.64
3238,-0.42
3270,-0.19
3303,0.13
3336,0.47
3369,0.80
3403,1.03
3437,1.25
3471,1.48
3506,1.70
3541,1.93
3576,2.15
3612,2.38
3648,2.52
3685,2.67
3721,2.89
3759,3.02
3796,3.13
3834,3.24
3873,3.24
3911,3.36
3950,3.57
3990,3.57
4030,3.57
4070,3.57
4111,3.57
4152,3.65
4193,3.73
4235,3.73
4278,3.73
4321,3.68
4364,3.57
4407,3.57
4451,3.57
4496,3.57
4541,3.57
4586,3.57
4632,3.54
4679,3.43
4725,3.32
4773,3.28
4820,3.39
4868,3.50
4917,3.57
4966,3.57
5016,3.57
5066,3.57
5117,3.58
5168,3.69
5220,3.81
5272,3.97
5325,4.31
5378,4.64
5432,5.02
5486,5.47
5541,5.92
5596,6.41
5652,6.98
5709,7.54
5766,8.10
5823,8.66
5882,9.23
5940,9.71
6000,10.13
6060,10.47
6120,10.81
6182,11.11
6244,11.33
6306,11.56
6369,11.68
6433,11.68
6497,11.90
6562,12.00
6628,12.00
6694,12.00
6761,12.00
6828,11.95
6897,11.72
6966,11.58
7035,11.43
7106,11.21
7177,10.98
7249,10.65
7321,10.21
7394,9.87
7468,9.47
7543,8.98
7618,8.31
7694,7.72
7771,7.16
7849,6.59
7928,5.93
8007,5.26
8087,4.59
8168,4.12
8250,3.67
8332,3.23
8415,2.89
8499,2.56
8584,2.25
8670,2.14
8757,2.03
8845,1.98
8933,2.09
9022,2.20
9113,2.27
9204,2.27
9296,2.48
9389,2.71
9483,2.93
9577,3.15
9673,3.38
9770,3.59
9868,3.70
9966,3.89
10066,4.09
10167,4.20
10268,4.40
10371,4.58
10475,4.70
10579,4.81
10685,4.98
10792,5.20
10900,5.43
11009,5.65
11119,5.86
11230,5.97
11343,6.08
11456,6.23
11571,6.45
11686,6.68
11803,6.86
11921,6.97
12040,7.08
12161,7.19
12282,7.31
12405,7.42
12529,7.46
12655,7.46
12781,7.46
12909,7.46
13038,7.39
13168,7.17
13300,7.04
13433,6.88
13567,6.66
13703,6.43
13840,6.15
13978,5.81
14118,5.47
14259,4.99
14402,4.47
14546,4.14
14692,3.63
14838,3.14
14987,2.80
15137,2.37
15288,1.92
15441,1.47
15595,1.13
15751,0.79
15909,0.47
16068,0.24
16229,-0.13
16391,-0.53
16555,-0.76
16720,-0.98
16888,-1.24
17056,-1.58
17227,-1.92
17399,-2.25
17573,-2.59
17749,-2.93
17926,-3.20
18106,-3.43
18287,-3.65
18470,-3.95
18654,-4.26
18841,-4.49
19029,-4.63
19220,-4.78
19412,-5.00
19606,-5.23
19802,-5.45
20000,-5.68
