frequency,raw
20.00,13.05
20.20,13.04
20.40,13.03
20.61,13.03
20.81,13.02
21.02,13.00
21.23,12.94
21.44,12.88
21.66,12.82
21.87,12.76
22.09,12.71
22.31,12.67
22.54,12.64
22.76,12.61
22.99,12.57
23.22,12.53
23.45,12.48
23.69,12.44
23.92,12.39
24.16,12.32
24.40,12.24
24.65,12.16
24.89,12.08
25.14,12.01
25.39,11.95
25.65,11.89
25.91,11.83
26.16,11.74
26.43,11.63
26.69,11.53
26.96,11.42
27.23,11.34
27.50,11.27
27.77,11.21
28.05,11.13
28.33,11.05
28.62,10.97
28.90,10.89
29.19,10.80
29.48,10.71
29.78,10.63
30.08,10.54
30.38,10.45
30.68,10.36
30.99,10.26
31.30,10.19
31.61,10.11
31.93,10.03
32.24,9.94
32.57,9.84
32.89,9.75
33.22,9.66
33.55,9.58
33.89,9.50
34.23,9.43
34.57,9.37
34.92,9.30
35.27,9.25
35.62,9.20
35.97,9.14
36.33,9.05
36.70,8.96
37.06,8.86
37.43,8.74
37.81,8.63
38.19,8.55
38.57,8.51
38.95,8.46
39.34,8.41
39.74,8.36
40.14,8.29
40.54,8.22
40.94,8.14
41.35,8.07
41.76,8.01
42.18,7.93
42.60,7.83
43.03,7.73
43.46,7.63
43.90,7.53
44.33,7.50
44.78,7.49
45.23,7.46
45.68,7.41
46.13,7.33
46.60,7.21
47.06,7.11
47.53,7.07
48.01,7.03
48.49,7.00
48.97,6.97
49.46,6.85
49.96,6.72
50.46,6.70
50.96,6.69
51.47,6.62
51.99,6.54
52.51,6.45
53.03,6.37
53.56,6.32
54.10,6.28
54.64,6.19
55.18,6.11
55.74,6.01
56.29,5.96
56.86,5.97
57.42,5.87
58.00,5.73
58.58,5.75
59.16,5.72
59.76,5.58
60.35,5.48
60.96,5.41
61.57,5.31
62.18,5.22
62.80,5.16
63.43,5.08
64.07,5.01
64.71,4.97
65.35,4.90
66.01,4.81
66.67,4.70
67.33,4.62
68.01,4.56
68.69,4.45
69.37,4.37
70.07,4.32
70.77,4.27
71.48,4.18
72.19,4.06
72.91,3.93
73.64,3.94
74.38,3.89
75.12,3.76
75.87,3.61
76.63,3.54
77.40,3.47
78.17,3.39
78.95,3.32
79.74,3.31
80.54,3.19
81.35,3.03
82.16,2.91
82.98,2.87
83.81,2.82
84.65,2.74
85.50,2.68
86.35,2.60
87.22,2.52
88.09,2.44
88.97,2.32
89.86,2.19
90.76,2.13
91.66,2.05
92.58,1.95
93.51,1.86
94.44,1.79
95.39,1.71
96.34,1.60
97.30,1.49
98.28,1.44
99.26,1.38
100.25,1.29
101.25,1.17
102.27,1.06
103.29,0.94
104.32,0.83
105.37,0.75
106.42,0.68
107.48,0.56
108.56,0.42
109.64,0.33
110.74,0.17
111.85,0.09
112.97,0.03
114.10,-0.03
115.24,-0.09
116.39,-0.23
117.55,-0.28
118.73,-0.27
119.92,-0.42
121.12,-0.54
122.33,-0.54
123.55,-0.58
124.79,-0.63
126.03,-0.61
127.29,-0.76
128.57,-0.87
129.85,-0.92
131.15,-0.91
132.46,-1.04
133.79,-1.11
135.12,-1.18
136.48,-1.17
137.84,-1.17
139.22,-1.30
140.61,-1.39
142.02,-1.37
143.44,-1.50
144.87,-1.59
146.32,-1.58
147.78,-1.62
149.26,-1.67
150.75,-1.69
152.26,-1.71
153.78,-1.77
155.32,-1.83
156.88,-1.89
158.44,-1.89
160.03,-1.88
161.63,-1.98
163.24,-2.06
164.88,-2.09
166.53,-2.10
168.19,-2.10
169.87,-2.14
171.57,-2.21
173.29,-2.29
175.02,-2.36
176.77,-2.44
178.54,-2.43
180.32,-2.49
182.13,-2.52
183.95,-2.52
185.79,-2.56
187.65,-2.67
189.52,-2.68
191.42,-2.67
193.33,-2.72
195.27,-2.80
197.22,-2.82
199.19,-2.84
201.18,-2.88
203.19,-2.90
205.23,-2.90
207.28,-2.94
209.35,-3.00
211.44,-3.08
213.56,-3.11
215.69,-3.11
217.85,-3.11
220.03,-3.12
222.23,-3.12
224.45,-3.25
226.70,-3.32
228.96,-3.32
231.25,-3.31
233.57,-3.30
235.90,-3.29
238.26,-3.27
240.64,-3.25
243.05,-3.24
245.48,-3.28
247.93,-3.29
250.41,-3.30
252.92,-3.36
255.45,-3.35
258.00,-3.34
260.58,-3.37
263.19,-3.42
265.82,-3.44
268.48,-3.44
271.16,-3.44
273.87,-3.44
276.61,-3.45
279.38,-3.47
282.17,-3.54
284.99,-3.53
287.84,-3.56
290.72,-3.61
293.63,-3.61
296.57,-3.59
299.53,-3.67
302.53,-3.69
305.55,-3.66
308.61,-3.65
311.69,-3.72
314.81,-3.76
317.96,-3.75
321.14,-3.76
324.35,-3.87
327.59,-3.90
330.87,-3.83
334.18,-3.84
337.52,-4.03
340.90,-4.06
344.30,-4.05
347.75,-4.05
351.23,-4.07
354.74,-4.18
358.28,-4.20
361.87,-4.15
365.49,-4.13
369.14,-4.12
372.83,-4.11
376.56,-4.11
380.33,-4.10
384.13,-4.09
387.97,-4.09
391.85,-4.08
395.77,-4.08
399.73,-4.08
403.72,-4.09
407.76,-4.17
411.84,-4.26
415.96,-4.23
420.12,-4.19
424.32,-4.19
428.56,-4.18
432.85,-4.19
437.18,-4.32
441.55,-4.27
445.96,-4.17
450.42,-4.11
454.93,-4.05
459.48,-4.15
464.07,-4.13
468.71,-3.99
473.40,-3.91
478.13,-3.85
482.91,-3.94
487.74,-3.99
492.62,-3.87
497.55,-3.80
502.52,-3.78
507.55,-3.76
512.62,-3.74
517.75,-3.74
522.93,-3.74
528.16,-3.75
533.44,-3.76
538.77,-3.79
544.16,-3.83
549.60,-3.88
555.10,-3.93
560.65,-3.98
566.25,-4.03
571.92,-4.07
577.64,-4.11
583.41,-4.13
589.25,-4.15
595.14,-4.16
601.09,-4.20
607.10,-4.24
613.17,-4.31
619.30,-4.32
625.50,-4.29
631.75,-4.26
638.07,-4.23
644.45,-4.19
650.89,-4.15
657.40,-4.07
663.98,-4.04
670.62,-4.11
677.32,-3.99
684.10,-3.90
690.94,-3.77
697.85,-3.77
704.83,-3.71
711.87,-3.62
718.99,-3.62
726.18,-3.55
733.44,-3.57
740.78,-3.65
748.19,-3.62
755.67,-3.47
763.23,-3.46
770.86,-3.34
778.57,-3.13
786.35,-3.09
794.22,-3.06
802.16,-2.89
810.18,-2.70
818.28,-2.52
826.46,-2.43
834.73,-2.37
843.08,-2.20
851.51,-1.98
860.02,-1.85
868.62,-1.81
877.31,-1.65
886.08,-1.46
894.94,-1.34
903.89,-1.23
912.93,-1.18
922.06,-1.19
931.28,-1.09
940.59,-0.86
950.00,-0.49
959.50,-0.40
969.09,-0.42
978.78,-0.40
988.57,-0.21
998.46,-0.02
1008.44,0.16
1018.53,0.12
1028.71,0.36
1039.00,0.54
1049.39,0.49
1059.88,0.57
1070.48,0.64
1081.19,0.75
1092.00,0.78
1102.92,0.77
1113.95,0.90
1125.09,1.10
1136.34,1.14
1147.70,1.16
1159.18,1.34
1170.77,1.51
1182.48,1.66
1194.30,1.88
1206.25,2.03
1218.31,2.25
1230.49,2.36
1242.80,2.46
1255.22,2.59
1267.78,2.67
1280.45,2.74
1293.26,2.83
1306.19,2.89
1319.25,2.99
1332.45,3.08
1345.77,3.22
1359.23,3.37
1372.82,3.52
1386.55,3.64
1400.41,3.72
1414.42,3.84
1428.56,4.05
1442.85,4.32
1457.28,4.55
1471.85,4.72
1486.57,4.87
1501.43,5.11
1516.45,5.33
1531.61,5.60
1546.93,5.93
1562.40,6.26
1578.02,6.63
1593.80,6.76
1609.74,6.93
1625.84,7.31
1642.10,7.69
1658.52,7.83
1675.10,8.03
1691.85,8.41
1708.77,8.67
1725.86,8.92
1743.12,9.25
1760.55,9.44
1778.15,9.64
1795.94,9.70
1813.90,9.65
1832.03,9.56
1850.36,9.58
1868.86,9.67
1887.55,9.74
1906.42,9.80
1925.49,9.81
1944.74,9.54
1964.19,9.78
1983.83,10.51
2003.67,10.15
2023.71,9.75
2043.94,10.10
2064.38,10.40
2085.03,10.38
2105.88,10.30
2126.94,10.19
2148.20,10.21
2169.69,10.33
2191.38,10.39
2213.30,10.11
2235.43,10.12
2257.78,10.24
2280.36,10.55
2303.17,10.73
2326.20,10.80
2349.46,10.66
2372.95,10.61
2396.68,10.57
2420.65,10.54
2444.86,10.44
2469.31,10.05
2494.00,9.92
2518.94,9.82
2544.13,9.72
2569.57,9.57
2595.27,9.22
2621.22,8.86
2647.43,8.72
2673.90,8.59
2700.64,8.27
2727.65,8.16
2754.93,8.18
2782.48,7.66
2810.30,7.34
2838.40,7.15
2866.79,7.27
2895.46,7.63
2924.41,7.77
2953.65,7.31
2983.19,6.84
3013.02,6.69
3043.15,6.51
3073.58,5.90
3104.32,5.48
3135.36,5.20
3166.72,4.91
3198.38,4.52
3230.37,4.19
3262.67,3.57
3295.30,2.83
3328.25,2.80
3361.53,3.21
3395.15,2.70
3429.10,2.41
3463.39,2.99
3498.03,3.37
3533.01,4.57
3568.34,4.88
3604.02,4.30
3640.06,4.14
3676.46,3.95
3713.22,3.65
3750.36,3.22
3787.86,2.71
3825.74,2.16
3864.00,2.12
3902.64,1.90
3941.66,1.83
3981.08,1.82
4020.89,1.58
4061.10,1.18
4101.71,0.81
4142.73,0.45
4184.15,-0.01
4226.00,-0.57
4268.26,-1.29
4310.94,-2.23
4354.05,-3.11
4397.59,-4.23
4441.56,-5.30
4485.98,-6.59
4530.84,-7.38
4576.15,-7.39
4621.91,-3.98
4668.13,-4.06
4714.81,-2.58
4761.96,-1.07
4809.58,-0.40
4857.67,0.86
4906.25,2.17
4955.31,3.04
5004.87,3.85
5054.91,4.61
5105.46,4.77
5156.52,4.55
5208.08,3.67
5260.16,3.14
5312.77,2.93
5365.89,3.40
5419.55,3.35
5473.75,3.27
5528.49,3.39
5583.77,3.41
5639.61,3.22
5696.00,2.68
5752.96,2.39
5810.49,2.25
5868.60,2.18
5927.28,2.11
5986.56,1.94
6046.42,1.61
6106.89,1.04
6167.96,0.44
6229.64,-0.13
6291.93,-0.55
6354.85,-0.92
6418.40,-1.43
6482.58,-1.95
6547.41,-2.47
6612.88,-3.01
6679.01,-3.55
6745.80,-4.17
6813.26,-4.88
6881.39,-5.58
6950.21,-6.40
7019.71,-7.29
7089.91,-8.12
7160.81,-9.14
7232.41,-10.01
7304.74,-11.85
7377.79,-13.92
7451.56,-15.90
7526.08,-18.64
7601.34,-20.95
7677.35,-22.32
7754.13,-23.05
7831.67,-20.76
7909.98,-18.37
7989.08,-15.23
8068.98,-12.09
8149.67,-10.42
8231.16,-8.59
8313.47,-6.27
8396.61,-4.99
8480.57,-3.59
8565.38,-1.76
8651.03,-0.77
8737.54,0.42
8824.92,1.42
8913.17,2.56
9002.30,3.35
9092.32,4.22
9183.25,4.89
9275.08,5.46
9367.83,5.88
9461.51,6.12
9556.12,6.39
9651.68,6.51
9748.20,6.38
9845.68,5.96
9944.14,5.70
10043.58,5.83
10144.02,6.24
10245.46,6.26
10347.91,6.04
10451.39,5.97
10555.91,5.87
10661.46,6.11
10768.08,6.55
10875.76,7.01
10984.52,7.24
11094.36,7.47
11205.31,7.38
11317.36,7.30
11430.53,7.26
11544.84,7.10
11660.29,6.98
11776.89,6.86
11894.66,6.54
12013.60,6.09
12133.74,5.75
12255.08,5.35
12377.63,4.78
12501.41,4.29
12626.42,3.78
12752.68,3.23
12880.21,2.49
13009.01,1.69
13139.10,1.05
13270.49,0.42
13403.20,-0.19
13537.23,-0.66
13672.60,-1.02
13809.33,-1.26
13947.42,-1.47
14086.90,-1.88
14227.77,-2.55
14370.04,-2.91
14513.74,-3.34
14658.88,-4.42
14805.47,-5.00
14953.52,-5.42
15103.06,-6.42
15254.09,-7.64
15406.63,-8.42
15560.70,-9.51
15716.30,-11.18
15873.47,-13.07
16032.20,-15.99
16192.52,-18.41
16354.45,-19.50
16517.99,-20.17
16683.17,-17.61
16850.01,-16.84
17018.51,-19.48
17188.69,-20.70
17360.58,-21.68
17534.18,-22.03
17709.53,-20.83
17886.62,-20.04
18065.49,-19.43
18246.14,-17.65
18428.60,-15.93
18612.89,-15.76
18799.02,-16.52
18987.01,-16.94
19176.88,-17.49
19368.65,-18.30
19562.33,-19.74
19757.96,-21.11
19955.54,-22.07
