frequency,raw
20.00,-21.06
20.20,-20.92
20.40,-20.78
20.61,-20.64
20.81,-20.50
21.02,-20.36
21.23,-20.21
21.44,-20.07
21.66,-19.93
21.87,-19.78
22.09,-19.64
22.31,-19.49
22.54,-19.34
22.76,-19.19
22.99,-19.05
23.22,-18.90
23.45,-18.75
23.69,-18.60
23.92,-18.46
24.16,-18.31
24.40,-18.16
24.65,-18.01
24.89,-17.85
25.14,-17.70
25.39,-17.55
25.65,-17.40
25.91,-17.25
26.16,-17.09
26.43,-16.94
26.69,-16.79
26.96,-16.63
27.23,-16.48
27.50,-16.32
27.77,-16.17
28.05,-16.01
28.33,-15.86
28.62,-15.70
28.90,-15.54
29.19,-15.39
29.48,-15.24
29.78,-15.08
30.08,-14.93
30.38,-14.77
30.68,-14.61
30.99,-14.46
31.30,-14.31
31.61,-14.16
31.93,-14.01
32.24,-13.86
32.57,-13.71
32.89,-13.57
33.22,-13.42
33.55,-13.27
33.89,-13.12
34.23,-12.97
34.57,-12.83
34.92,-12.68
35.27,-12.53
35.62,-12.38
35.97,-12.23
36.33,-12.08
36.70,-11.93
37.06,-11.78
37.43,-11.63
37.81,-11.48
38.19,-11.32
38.57,-11.17
38.95,-11.02
39.34,-10.87
39.74,-10.72
40.14,-10.57
40.54,-10.42
40.94,-10.27
41.35,-10.12
41.76,-9.97
42.18,-9.83
42.60,-9.68
43.03,-9.53
43.46,-9.38
43.90,-9.23
44.33,-9.08
44.78,-8.93
45.23,-8.78
45.68,-8.63
46.13,-8.48
46.60,-8.33
47.06,-8.18
47.53,-8.04
48.01,-7.90
48.49,-7.76
48.97,-7.62
49.46,-7.48
49.96,-7.34
50.46,-7.20
50.96,-7.06
51.47,-6.93
51.99,-6.79
52.51,-6.67
53.03,-6.55
53.56,-6.42
54.10,-6.29
54.64,-6.18
55.18,-6.06
55.74,-5.95
56.29,-5.83
56.86,-5.72
57.42,-5.60
58.00,-5.49
58.58,-5.38
59.16,-5.27
59.76,-5.15
60.35,-5.04
60.96,-4.93
61.57,-4.81
62.18,-4.69
62.80,-4.56
63.43,-4.43
64.07,-4.30
64.71,-4.18
65.35,-4.05
66.01,-3.92
66.67,-3.79
67.33,-3.67
68.01,-3.55
68.69,-3.44
69.37,-3.33
70.07,-3.22
70.77,-3.11
71.48,-3.00
72.19,-2.90
72.91,-2.81
73.64,-2.72
74.38,-2.63
75.12,-2.56
75.87,-2.47
76.63,-2.40
77.40,-2.32
78.17,-2.25
78.95,-2.16
79.74,-2.09
80.54,-2.01
81.35,-1.94
82.16,-1.86
82.98,-1.78
83.81,-1.69
84.65,-1.61
85.50,-1.53
86.35,-1.45
87.22,-1.37
88.09,-1.29
88.97,-1.20
89.86,-1.11
90.76,-1.04
91.66,-0.97
92.58,-0.91
93.51,-0.84
94.44,-0.78
95.39,-0.71
96.34,-0.65
97.30,-0.59
98.28,-0.53
99.26,-0.47
100.25,-0.42
101.25,-0.38
102.27,-0.35
103.29,-0.33
104.32,-0.31
105.37,-0.28
106.42,-0.25
107.48,-0.22
108.56,-0.18
109.64,-0.14
110.74,-0.11
111.85,-0.08
112.97,-0.06
114.10,-0.04
115.24,-0.00
116.39,0.03
117.55,0.07
118.73,0.13
119.92,0.18
121.12,0.23
122.33,0.25
123.55,0.28
124.79,0.31
126.03,0.34
127.29,0.36
128.57,0.39
129.85,0.42
131.15,0.44
132.46,0.45
133.79,0.46
135.12,0.45
136.48,0.44
137.84,0.44
139.22,0.43
140.61,0.44
142.02,0.44
143.44,0.45
144.87,0.45
146.32,0.45
147.78,0.43
149.26,0.42
150.75,0.38
152.26,0.35
153.78,0.32
155.32,0.31
156.88,0.28
158.44,0.27
160.03,0.27
161.63,0.27
163.24,0.28
164.88,0.29
166.53,0.30
168.19,0.32
169.87,0.35
171.57,0.38
173.29,0.40
175.02,0.44
176.77,0.45
178.54,0.46
180.32,0.45
182.13,0.44
183.95,0.44
185.79,0.43
187.65,0.43
189.52,0.43
191.42,0.43
193.33,0.43
195.27,0.43
197.22,0.43
199.19,0.43
201.18,0.43
203.19,0.43
205.23,0.43
207.28,0.43
209.35,0.43
211.44,0.43
213.56,0.43
215.69,0.43
217.85,0.43
220.03,0.43
222.23,0.43
224.45,0.43
226.70,0.43
228.96,0.43
231.25,0.43
233.57,0.43
235.90,0.43
238.26,0.43
240.64,0.43
243.05,0.43
245.48,0.44
247.93,0.45
250.41,0.46
252.92,0.46
255.45,0.45
258.00,0.44
260.58,0.41
263.19,0.39
265.82,0.35
268.48,0.33
271.16,0.30
273.87,0.26
276.61,0.23
279.38,0.21
282.17,0.19
284.99,0.16
287.84,0.12
290.72,0.08
293.63,0.05
296.57,0.02
299.53,-0.00
302.53,-0.02
305.55,-0.04
308.61,-0.07
311.69,-0.09
314.81,-0.12
317.96,-0.16
321.14,-0.20
324.35,-0.24
327.59,-0.28
330.87,-0.32
334.18,-0.35
337.52,-0.39
340.90,-0.40
344.30,-0.43
347.75,-0.44
351.23,-0.47
354.74,-0.50
358.28,-0.53
361.87,-0.57
365.49,-0.60
369.14,-0.63
372.83,-0.65
376.56,-0.68
380.33,-0.70
384.13,-0.74
387.97,-0.77
391.85,-0.80
395.77,-0.83
399.73,-0.85
403.72,-0.87
407.76,-0.89
411.84,-0.89
415.96,-0.88
420.12,-0.87
424.32,-0.86
428.56,-0.86
432.85,-0.86
437.18,-0.86
441.55,-0.86
445.96,-0.86
450.42,-0.86
454.93,-0.86
459.48,-0.86
464.07,-0.86
468.71,-0.86
473.40,-0.87
478.13,-0.88
482.91,-0.88
487.74,-0.89
492.62,-0.88
497.55,-0.87
502.52,-0.86
507.55,-0.83
512.62,-0.81
517.75,-0.77
522.93,-0.74
528.16,-0.71
533.44,-0.67
538.77,-0.64
544.16,-0.61
549.60,-0.58
555.10,-0.55
560.65,-0.53
566.25,-0.52
571.92,-0.52
577.64,-0.52
583.41,-0.53
589.25,-0.54
595.14,-0.54
601.09,-0.54
607.10,-0.54
613.17,-0.54
619.30,-0.54
625.50,-0.54
631.75,-0.54
638.07,-0.54
644.45,-0.54
650.89,-0.54
657.40,-0.54
663.98,-0.54
670.62,-0.54
677.32,-0.54
684.10,-0.54
690.94,-0.54
697.85,-0.54
704.83,-0.54
711.87,-0.54
718.99,-0.54
726.18,-0.54
733.44,-0.55
740.78,-0.56
748.19,-0.56
755.67,-0.56
763.23,-0.55
770.86,-0.54
778.57,-0.51
786.35,-0.49
794.22,-0.46
802.16,-0.43
810.18,-0.39
818.28,-0.36
826.46,-0.33
834.73,-0.29
843.08,-0.26
851.51,-0.24
860.02,-0.21
868.62,-0.20
877.31,-0.20
886.08,-0.21
894.94,-0.22
903.89,-0.23
912.93,-0.23
922.06,-0.22
931.28,-0.20
940.59,-0.18
950.00,-0.16
959.50,-0.13
969.09,-0.09
978.78,-0.06
988.57,-0.03
998.46,-0.01
1008.44,0.02
1018.53,0.05
1028.71,0.08
1039.00,0.11
1049.39,0.14
1059.88,0.17
1070.48,0.20
1081.19,0.21
1092.00,0.23
1102.92,0.26
1113.95,0.30
1125.09,0.35
1136.34,0.40
1147.70,0.45
1159.18,0.50
1170.77,0.54
1182.48,0.57
1194.30,0.61
1206.25,0.64
1218.31,0.68
1230.49,0.72
1242.80,0.76
1255.22,0.81
1267.78,0.86
1280.45,0.91
1293.26,0.96
1306.19,1.00
1319.25,1.04
1332.45,1.10
1345.77,1.16
1359.23,1.23
1372.82,1.28
1386.55,1.34
1400.41,1.39
1414.42,1.44
1428.56,1.51
1442.85,1.56
1457.28,1.62
1471.85,1.69
1486.57,1.75
1501.43,1.81
1516.45,1.88
1531.61,1.95
1546.93,2.03
1562.40,2.11
1578.02,2.19
1593.80,2.28
1609.74,2.36
1625.84,2.45
1642.10,2.54
1658.52,2.62
1675.10,2.69
1691.85,2.78
1708.77,2.88
1725.86,2.97
1743.12,3.04
1760.55,3.13
1778.15,3.22
1795.94,3.30
1813.90,3.39
1832.03,3.47
1850.36,3.56
1868.86,3.66
1887.55,3.75
1906.42,3.85
1925.49,3.95
1944.74,4.07
1964.19,4.16
1983.83,4.25
2003.67,4.35
2023.71,4.45
2043.94,4.55
2064.38,4.66
2085.03,4.76
2105.88,4.86
2126.94,4.96
2148.20,5.06
2169.69,5.15
2191.38,5.23
2213.30,5.31
2235.43,5.39
2257.78,5.45
2280.36,5.51
2303.17,5.55
2326.20,5.59
2349.46,5.62
2372.95,5.64
2396.68,5.64
2420.65,5.64
2444.86,5.66
2469.31,5.66
2494.00,5.66
2518.94,5.66
2544.13,5.65
2569.57,5.63
2595.27,5.61
2621.22,5.59
2647.43,5.54
2673.90,5.48
2700.64,5.42
2727.65,5.35
2754.93,5.25
2782.48,5.15
2810.30,5.04
2838.40,4.92
2866.79,4.79
2895.46,4.66
2924.41,4.52
2953.65,4.38
2983.19,4.23
3013.02,4.08
3043.15,3.91
3073.58,3.73
3104.32,3.54
3135.36,3.34
3166.72,3.14
3198.38,2.92
3230.37,2.70
3262.67,2.49
3295.30,2.26
3328.25,2.03
3361.53,1.79
3395.15,1.56
3429.10,1.34
3463.39,1.12
3498.03,0.90
3533.01,0.67
3568.34,0.43
3604.02,0.20
3640.06,-0.03
3676.46,-0.26
3713.22,-0.51
3750.36,-0.76
3787.86,-1.02
3825.74,-1.26
3864.00,-1.49
3902.64,-1.71
3941.66,-1.91
3981.08,-2.07
4020.89,-2.21
4061.10,-2.31
4101.71,-2.36
4142.73,-2.36
4184.15,-2.31
4226.00,-2.19
4268.26,-2.01
4310.94,-1.78
4354.05,-1.49
4397.59,-1.13
4441.56,-0.74
4485.98,-0.31
4530.84,0.14
4576.15,0.62
4621.91,1.10
4668.13,1.58
4714.81,2.06
4761.96,2.53
4809.58,3.00
4857.67,3.45
4906.25,3.86
4955.31,4.25
5004.87,4.62
5054.91,4.97
5105.46,5.31
5156.52,5.64
5208.08,5.94
5260.16,6.22
5312.77,6.47
5365.89,6.70
5419.55,6.91
5473.75,7.10
5528.49,7.26
5583.77,7.41
5639.61,7.53
5696.00,7.64
5752.96,7.72
5810.49,7.78
5868.60,7.83
5927.28,7.86
5986.56,7.88
6046.42,7.87
6106.89,7.85
6167.96,7.81
6229.64,7.76
6291.93,7.70
6354.85,7.61
6418.40,7.52
6482.58,7.41
6547.41,7.27
6612.88,7.12
6679.01,6.94
6745.80,6.74
6813.26,6.50
6881.39,6.25
6950.21,5.97
7019.71,5.68
7089.91,5.37
7160.81,5.04
7232.41,4.67
7304.74,4.28
7377.79,3.86
7451.56,3.43
7526.08,2.99
7601.34,2.53
7677.35,2.05
7754.13,1.57
7831.67,1.09
7909.98,0.59
7989.08,0.10
8068.98,-0.37
8149.67,-0.80
8231.16,-1.19
8313.47,-1.52
8396.61,-1.77
8480.57,-1.93
8565.38,-1.99
8651.03,-1.98
8737.54,-1.88
8824.92,-1.69
8913.17,-1.42
9002.30,-1.08
9092.32,-0.70
9183.25,-0.28
9275.08,0.18
9367.83,0.64
9461.51,1.10
9556.12,1.55
9651.68,1.99
9748.20,2.42
9845.68,2.80
9944.14,3.16
10043.58,3.50
10144.02,3.81
10245.46,4.10
10347.91,4.35
10451.39,4.58
10555.91,4.78
10661.46,4.94
10768.08,5.06
10875.76,5.16
10984.52,5.23
11094.36,5.28
11205.31,5.30
11317.36,5.30
11430.53,5.27
11544.84,5.21
11660.29,5.13
11776.89,5.03
11894.66,4.90
12013.60,4.73
12133.74,4.54
12255.08,4.34
12377.63,4.12
12501.41,3.88
12626.42,3.63
12752.68,3.36
12880.21,3.07
13009.01,2.78
13139.10,2.48
13270.49,2.18
13403.20,1.89
13537.23,1.61
13672.60,1.35
13809.33,1.10
13947.42,0.86
14086.90,0.63
14227.77,0.41
14370.04,0.20
14513.74,-0.00
14658.88,-0.19
14805.47,-0.35
14953.52,-0.51
15103.06,-0.67
15254.09,-0.84
15406.63,-1.01
15560.70,-1.18
15716.30,-1.35
15873.47,-1.53
16032.20,-1.71
16192.52,-1.90
16354.45,-2.11
16517.99,-2.32
16683.17,-2.56
16850.01,-2.83
17018.51,-3.13
17188.69,-3.47
17360.58,-3.84
17534.18,-4.25
17709.53,-4.68
17886.62,-5.15
18065.49,-5.65
18246.14,-6.10
18428.60,-6.56
18612.89,-7.03
18799.02,-7.49
18987.01,-7.98
19176.88,-8.48
19368.65,-8.99
19562.33,-9.50
19757.96,-10.04
19955.54,-10.58
