frequency,raw,smoothed,error,error_smoothed,equalization,parametric_eq,fixed_band_eq,equalized_raw,equalized_smoothed,target
20.00,5.03,5.02,0.74,0.74,-0.78,-0.96,-0.61,4.25,4.24,4.28
20.20,5.07,5.07,0.75,0.76,-0.77,-0.96,-0.62,4.29,4.30,4.31
20.40,5.12,5.12,0.78,0.78,-0.77,-0.96,-0.64,4.35,4.35,4.34
20.61,5.16,5.17,0.80,0.80,-0.77,-0.97,-0.66,4.39,4.39,4.36
20.81,5.21,5.21,0.82,0.81,-0.78,-0.97,-0.68,4.43,4.43,4.39
21.02,5.25,5.24,0.83,0.82,-0.78,-0.98,-0.70,4.47,4.45,4.42
21.23,5.25,5.25,0.82,0.82,-0.79,-0.98,-0.72,4.46,4.46,4.43
21.44,5.25,5.25,0.81,0.81,-0.81,-0.98,-0.74,4.44,4.44,4.44
21.66,5.25,5.24,0.80,0.80,-0.81,-0.99,-0.76,4.43,4.43,4.45
21.87,5.25,5.25,0.80,0.80,-0.83,-0.99,-0.78,4.42,4.42,4.45
22.09,5.27,5.28,0.81,0.82,-0.86,-1.00,-0.80,4.41,4.42,4.46
22.31,5.32,5.32,0.86,0.86,-0.88,-1.00,-0.83,4.44,4.43,4.46
22.54,5.37,5.37,0.91,0.92,-0.92,-1.01,-0.85,4.45,4.46,4.46
22.76,5.43,5.43,0.97,0.97,-0.95,-1.01,-0.88,4.48,4.48,4.46
22.99,5.48,5.46,1.03,1.01,-0.98,-1.01,-0.90,4.50,4.48,4.45
23.22,5.48,5.48,1.03,1.04,-1.01,-1.02,-0.93,4.47,4.47,4.45
23.45,5.48,5.48,1.03,1.04,-1.02,-1.02,-0.95,4.45,4.46,4.44
23.69,5.48,5.48,1.03,1.03,-1.03,-1.03,-0.98,4.45,4.45,4.44
23.92,5.48,5.48,1.04,1.03,-1.03,-1.03,-1.01,4.45,4.45,4.44
24.16,5.48,5.48,1.03,1.03,-1.03,-1.04,-1.03,4.45,4.45,4.45
24.40,5.48,5.48,1.03,1.03,-1.04,-1.04,-1.06,4.44,4.44,4.45
24.65,5.48,5.47,1.04,1.03,-1.05,-1.05,-1.09,4.43,4.42,4.44
24.89,5.48,5.49,1.04,1.05,-1.08,-1.05,-1.12,4.40,4.41,4.44
25.14,5.51,5.52,1.07,1.08,-1.11,-1.06,-1.15,4.40,4.41,4.44
25.39,5.57,5.57,1.13,1.13,-1.14,-1.07,-1.18,4.43,4.42,4.44
25.65,5.63,5.63,1.19,1.20,-1.18,-1.07,-1.21,4.45,4.45,4.44
25.91,5.69,5.68,1.26,1.25,-1.22,-1.08,-1.23,4.47,4.46,4.43
26.16,5.71,5.70,1.28,1.28,-1.25,-1.08,-1.26,4.46,4.46,4.42
26.43,5.71,5.71,1.29,1.29,-1.27,-1.09,-1.29,4.44,4.44,4.42
26.69,5.71,5.71,1.29,1.29,-1.29,-1.09,-1.32,4.42,4.42,4.42
26.96,5.71,5.71,1.29,1.29,-1.30,-1.10,-1.35,4.41,4.41,4.42
27.23,5.71,5.71,1.29,1.29,-1.30,-1.11,-1.38,4.41,4.41,4.42
27.50,5.71,5.71,1.29,1.29,-1.30,-1.11,-1.40,4.41,4.41,4.42
27.77,5.71,5.71,1.30,1.30,-1.30,-1.12,-1.43,4.41,4.41,4.41
28.05,5.71,5.71,1.30,1.31,-1.30,-1.13,-1.46,4.40,4.40,4.41
28.33,5.71,5.71,1.31,1.31,-1.31,-1.13,-1.48,4.40,4.40,4.39
28.62,5.71,5.71,1.32,1.32,-1.31,-1.14,-1.50,4.39,4.39,4.39
28.90,5.71,5.71,1.32,1.32,-1.32,-1.15,-1.53,4.39,4.39,4.39
29.19,5.71,5.71,1.33,1.32,-1.32,-1.15,-1.55,4.38,4.38,4.38
29.48,5.71,5.71,1.32,1.33,-1.33,-1.16,-1.57,4.38,4.38,4.39
29.78,5.71,5.71,1.33,1.33,-1.33,-1.17,-1.58,4.38,4.38,4.38
30.08,5.71,5.71,1.33,1.34,-1.34,-1.18,-1.60,4.37,4.37,4.37
30.38,5.71,5.71,1.35,1.34,-1.34,-1.18,-1.61,4.36,4.36,4.36
30.68,5.71,5.71,1.35,1.35,-1.35,-1.19,-1.63,4.36,4.36,4.36
30.99,5.71,5.71,1.36,1.36,-1.35,-1.20,-1.64,4.36,4.36,4.35
31.30,5.71,5.71,1.36,1.36,-1.35,-1.21,-1.64,4.36,4.36,4.35
31.61,5.71,5.71,1.37,1.37,-1.36,-1.21,-1.65,4.35,4.35,4.34
31.93,5.71,5.71,1.38,1.38,-1.37,-1.22,-1.66,4.34,4.34,4.33
32.24,5.71,5.70,1.39,1.38,-1.39,-1.23,-1.66,4.32,4.31,4.32
32.57,5.71,5.70,1.39,1.39,-1.42,-1.24,-1.66,4.29,4.29,4.32
32.89,5.71,5.72,1.40,1.41,-1.45,-1.25,-1.66,4.26,4.27,4.31
33.22,5.76,5.77,1.46,1.47,-1.49,-1.26,-1.66,4.27,4.28,4.30
33.55,5.84,5.83,1.54,1.54,-1.53,-1.27,-1.65,4.31,4.30,4.30
33.89,5.91,5.90,1.62,1.61,-1.58,-1.28,-1.65,4.33,4.32,4.29
34.23,5.94,5.93,1.66,1.65,-1.62,-1.29,-1.64,4.32,4.32,4.28
34.57,5.94,5.94,1.67,1.67,-1.65,-1.29,-1.64,4.28,4.29,4.27
34.92,5.94,5.94,1.68,1.68,-1.69,-1.30,-1.63,4.25,4.25,4.26
35.27,5.94,5.94,1.69,1.69,-1.71,-1.31,-1.62,4.23,4.23,4.25
35.62,5.94,5.94,1.70,1.70,-1.72,-1.32,-1.61,4.22,4.22,4.24
35.97,5.94,5.94,1.71,1.71,-1.71,-1.33,-1.60,4.23,4.23,4.23
36.33,5.93,5.94,1.71,1.72,-1.70,-1.34,-1.59,4.23,4.24,4.22
36.70,5.92,5.92,1.71,1.71,-1.68,-1.36,-1.58,4.24,4.24,4.21
37.06,5.90,5.88,1.70,1.68,-1.65,-1.37,-1.57,4.24,4.22,4.19
37.43,5.82,5.82,1.63,1.63,-1.63,-1.38,-1.56,4.19,4.19,4.19
37.81,5.75,5.76,1.57,1.59,-1.61,-1.39,-1.54,4.14,4.15,4.18
38.19,5.71,5.72,1.55,1.55,-1.59,-1.40,-1.53,4.12,4.12,4.16
38.57,5.71,5.70,1.55,1.55,-1.58,-1.41,-1.52,4.13,4.12,4.16
38.95,5.71,5.70,1.57,1.57,-1.57,-1.42,-1.51,4.14,4.13,4.14
39.34,5.71,5.71,1.58,1.58,-1.57,-1.43,-1.50,4.14,4.14,4.13
39.74,5.71,5.71,1.60,1.60,-1.58,-1.45,-1.50,4.13,4.13,4.11
40.14,5.71,5.71,1.60,1.61,-1.60,-1.46,-1.49,4.11,4.11,4.11
40.54,5.71,5.71,1.62,1.62,-1.61,-1.47,-1.48,4.10,4.10,4.09
40.94,5.71,5.71,1.62,1.63,-1.62,-1.48,-1.47,4.08,4.08,4.08
41.35,5.71,5.71,1.64,1.64,-1.64,-1.50,-1.47,4.07,4.07,4.07
41.76,5.71,5.71,1.65,1.65,-1.65,-1.51,-1.46,4.06,4.06,4.06
42.18,5.71,5.71,1.65,1.66,-1.66,-1.52,-1.46,4.04,4.04,4.05
42.60,5.71,5.71,1.67,1.67,-1.68,-1.54,-1.46,4.03,4.03,4.04
43.03,5.71,5.71,1.68,1.68,-1.70,-1.55,-1.46,4.01,4.01,4.03
43.46,5.71,5.71,1.69,1.70,-1.71,-1.56,-1.46,4.00,4.00,4.01
43.90,5.71,5.71,1.72,1.72,-1.71,-1.58,-1.46,3.99,4.00,3.99
44.33,5.71,5.72,1.74,1.75,-1.72,-1.59,-1.46,3.99,4.00,3.97
44.78,5.71,5.69,1.76,1.74,-1.71,-1.61,-1.46,4.00,3.98,3.95
45.23,5.66,5.64,1.73,1.70,-1.70,-1.62,-1.46,3.96,3.94,3.93
45.68,5.55,5.57,1.64,1.65,-1.67,-1.64,-1.47,3.88,3.89,3.91
46.13,5.48,5.51,1.58,1.61,-1.64,-1.65,-1.47,3.84,3.88,3.89
46.60,5.48,5.47,1.59,1.59,-1.59,-1.67,-1.48,3.89,3.88,3.89
47.06,5.46,5.42,1.59,1.55,-1.53,-1.68,-1.49,3.92,3.89,3.87
47.53,5.34,5.34,1.49,1.49,-1.47,-1.70,-1.50,3.86,3.87,3.85
48.01,5.21,5.23,1.37,1.40,-1.41,-1.71,-1.51,3.80,3.82,3.84
48.49,5.12,5.12,1.31,1.31,-1.34,-1.73,-1.52,3.78,3.78,3.81
48.97,5.03,5.02,1.25,1.25,-1.25,-1.75,-1.53,3.77,3.77,3.77
49.46,4.92,4.92,1.18,1.18,-1.16,-1.76,-1.54,3.76,3.76,3.74
49.96,4.81,4.81,1.10,1.09,-1.05,-1.78,-1.56,3.76,3.76,3.71
50.46,4.68,4.68,0.98,0.98,-0.94,-1.80,-1.57,3.74,3.74,3.70
50.96,4.54,4.53,0.86,0.86,-0.83,-1.81,-1.59,3.71,3.70,3.68
51.47,4.39,4.39,0.75,0.74,-0.74,-1.83,-1.60,3.65,3.65,3.64
51.99,4.24,4.26,0.62,0.63,-0.65,-1.85,-1.62,3.59,3.60,3.62
52.51,4.17,4.16,0.56,0.56,-0.59,-1.87,-1.64,3.58,3.57,3.61
53.03,4.11,4.11,0.53,0.53,-0.57,-1.89,-1.66,3.54,3.54,3.58
53.56,4.11,4.11,0.55,0.55,-0.59,-1.90,-1.68,3.52,3.52,3.56
54.10,4.13,4.15,0.60,0.62,-0.66,-1.92,-1.69,3.47,3.49,3.53
54.64,4.26,4.24,0.75,0.74,-0.78,-1.94,-1.71,3.48,3.46,3.50
55.18,4.38,4.36,0.90,0.88,-0.93,-1.96,-1.73,3.45,3.43,3.48
55.74,4.51,4.53,1.06,1.08,-1.11,-1.98,-1.75,3.40,3.43,3.45
56.29,4.71,4.73,1.28,1.30,-1.29,-2.00,-1.77,3.42,3.44,3.43
56.86,4.96,4.94,1.55,1.53,-1.46,-2.02,-1.79,3.49,3.47,3.41
57.42,5.12,5.11,1.74,1.73,-1.63,-2.04,-1.81,3.49,3.48,3.38
58.00,5.25,5.21,1.89,1.85,-1.78,-2.06,-1.83,3.46,3.43,3.36
58.58,5.25,5.27,1.91,1.93,-1.92,-2.08,-1.85,3.33,3.35,3.34
59.16,5.29,5.33,1.97,2.02,-2.04,-2.10,-1.87,3.25,3.29,3.32
59.76,5.42,5.38,2.12,2.09,-2.15,-2.13,-1.88,3.27,3.23,3.30
60.35,5.48,5.45,2.21,2.18,-2.24,-2.15,-1.90,3.24,3.22,3.26
60.96,5.48,5.54,2.24,2.30,-2.32,-2.17,-1.92,3.16,3.22,3.24
61.57,5.61,5.60,2.41,2.40,-2.39,-2.19,-1.94,3.22,3.21,3.20
62.18,5.71,5.67,2.54,2.50,-2.47,-2.21,-1.95,3.24,3.20,3.17
62.80,5.71,5.72,2.57,2.58,-2.53,-2.24,-1.97,3.18,3.18,3.14
63.43,5.71,5.72,2.60,2.61,-2.59,-2.26,-1.98,3.12,3.13,3.11
64.07,5.71,5.71,2.63,2.63,-2.64,-2.28,-2.00,3.07,3.07,3.08
64.71,5.71,5.71,2.66,2.66,-2.67,-2.30,-2.01,3.04,3.04,3.05
65.35,5.71,5.71,2.68,2.68,-2.70,-2.33,-2.02,3.01,3.01,3.03
66.01,5.71,5.71,2.71,2.71,-2.72,-2.35,-2.04,2.99,2.99,3.00
66.67,5.71,5.71,2.74,2.74,-2.74,-2.37,-2.05,2.96,2.96,2.97
67.33,5.71,5.71,2.77,2.77,-2.77,-2.40,-2.06,2.94,2.94,2.94
68.01,5.71,5.71,2.80,2.80,-2.80,-2.42,-2.08,2.91,2.91,2.91
68.69,5.71,5.71,2.83,2.83,-2.83,-2.45,-2.09,2.88,2.88,2.88
69.37,5.71,5.71,2.86,2.86,-2.87,-2.47,-2.10,2.84,2.84,2.84
70.07,5.71,5.71,2.90,2.89,-2.91,-2.50,-2.12,2.80,2.80,2.81
70.77,5.71,5.71,2.92,2.92,-2.94,-2.52,-2.13,2.77,2.77,2.79
71.48,5.71,5.71,2.95,2.95,-2.96,-2.55,-2.14,2.74,2.74,2.75
72.19,5.71,5.71,2.99,3.00,-2.98,-2.57,-2.16,2.73,2.73,2.72
72.91,5.71,5.72,3.03,3.03,-2.99,-2.60,-2.18,2.72,2.73,2.68
73.64,5.71,5.69,3.06,3.04,-2.99,-2.63,-2.19,2.72,2.69,2.65
74.38,5.65,5.63,3.03,3.01,-2.99,-2.65,-2.21,2.66,2.63,2.62
75.12,5.53,5.56,2.95,2.98,-2.99,-2.68,-2.23,2.54,2.57,2.58
75.87,5.49,5.50,2.94,2.95,-2.99,-2.71,-2.25,2.50,2.51,2.55
76.63,5.48,5.47,2.96,2.95,-3.00,-2.73,-2.27,2.48,2.47,2.52
77.40,5.48,5.48,2.99,2.99,-3.01,-2.76,-2.29,2.47,2.46,2.49
78.17,5.48,5.48,3.03,3.02,-3.03,-2.79,-2.32,2.45,2.45,2.45
78.95,5.48,5.48,3.05,3.06,-3.06,-2.81,-2.34,2.42,2.42,2.42
79.74,5.48,5.48,3.09,3.09,-3.08,-2.84,-2.37,2.39,2.40,2.39
80.54,5.48,5.49,3.12,3.13,-3.11,-2.87,-2.40,2.37,2.38,2.36
81.35,5.48,5.48,3.16,3.15,-3.12,-2.90,-2.43,2.36,2.36,2.32
82.16,5.46,5.43,3.17,3.15,-3.12,-2.92,-2.46,2.34,2.32,2.29
82.98,5.38,5.37,3.12,3.12,-3.10,-2.95,-2.50,2.27,2.27,2.26
83.81,5.27,5.31,3.06,3.09,-3.08,-2.98,-2.53,2.19,2.23,2.21
84.65,5.25,5.23,3.07,3.05,-3.06,-3.01,-2.57,2.19,2.18,2.18
85.50,5.19,5.16,3.04,3.02,-3.03,-3.04,-2.61,2.16,2.13,2.15
86.35,5.09,5.10,2.98,3.00,-3.02,-3.07,-2.65,2.07,2.09,2.11
87.22,5.03,5.05,2.96,2.98,-3.01,-3.10,-2.70,2.02,2.04,2.07
88.09,5.03,5.02,3.00,2.99,-3.02,-3.12,-2.74,2.01,2.00,2.03
88.97,5.03,5.02,3.03,3.03,-3.04,-3.15,-2.79,1.99,1.99,2.00
89.86,5.03,5.03,3.07,3.08,-3.07,-3.18,-2.84,1.96,1.96,1.96
90.76,5.03,5.03,3.13,3.12,-3.11,-3.21,-2.90,1.92,1.92,1.90
91.66,5.03,5.03,3.16,3.16,-3.15,-3.24,-2.95,1.88,1.88,1.87
92.58,5.03,5.03,3.21,3.21,-3.20,-3.27,-3.01,1.83,1.83,1.82
93.51,5.03,5.03,3.24,3.25,-3.25,-3.30,-3.07,1.78,1.78,1.78
94.44,5.03,5.03,3.29,3.29,-3.29,-3.33,-3.13,1.74,1.74,1.74
95.39,5.03,5.03,3.33,3.34,-3.34,-3.36,-3.19,1.69,1.69,1.70
96.34,5.03,5.03,3.39,3.38,-3.39,-3.39,-3.26,1.64,1.64,1.64
97.30,5.03,5.03,3.43,3.43,-3.44,-3.42,-3.32,1.59,1.59,1.60
98.28,5.03,5.03,3.48,3.48,-3.49,-3.45,-3.39,1.54,1.54,1.55
99.26,5.03,5.03,3.52,3.52,-3.54,-3.48,-3.46,1.49,1.49,1.50
100.25,5.03,5.03,3.57,3.57,-3.58,-3.50,-3.53,1.45,1.45,1.46
101.25,5.03,5.03,3.62,3.62,-3.61,-3.53,-3.60,1.42,1.42,1.41
102.27,5.03,5.04,3.66,3.67,-3.63,-3.56,-3.68,1.40,1.41,1.37
103.29,5.03,5.01,3.72,3.70,-3.65,-3.59,-3.75,1.38,1.37,1.31
104.32,4.98,4.95,3.70,3.68,-3.66,-3.62,-3.82,1.32,1.29,1.27
105.37,4.86,4.88,3.63,3.65,-3.68,-3.65,-3.90,1.18,1.20,1.23
106.42,4.80,4.82,3.62,3.64,-3.70,-3.68,-3.97,1.10,1.12,1.18
107.48,4.80,4.79,3.66,3.66,-3.72,-3.71,-4.04,1.08,1.07,1.13
108.56,4.80,4.79,3.72,3.71,-3.73,-3.74,-4.11,1.06,1.06,1.08
109.64,4.80,4.80,3.77,3.77,-3.75,-3.77,-4.18,1.05,1.05,1.03
110.74,4.80,4.82,3.81,3.83,-3.76,-3.79,-4.25,1.03,1.05,0.99
111.85,4.80,4.78,3.86,3.85,-3.79,-3.82,-4.31,1.01,1.00,0.94
112.97,4.78,4.72,3.90,3.83,-3.81,-3.85,-4.37,0.97,0.90,0.88
114.10,4.57,4.64,3.74,3.81,-3.83,-3.88,-4.43,0.73,0.81,0.83
115.24,4.57,4.58,3.79,3.80,-3.86,-3.90,-4.49,0.71,0.72,0.78
116.39,4.57,4.55,3.85,3.83,-3.88,-3.93,-4.54,0.69,0.67,0.72
117.55,4.57,4.57,3.90,3.90,-3.90,-3.96,-4.59,0.66,0.66,0.67
118.73,4.57,4.57,3.96,3.95,-3.94,-3.98,-4.63,0.63,0.63,0.61
119.92,4.57,4.57,4.00,4.00,-3.99,-4.01,-4.67,0.58,0.58,0.57
121.12,4.57,4.57,4.05,4.05,-4.05,-4.04,-4.70,0.52,0.52,0.52
122.33,4.57,4.57,4.10,4.10,-4.11,-4.06,-4.73,0.46,0.46,0.46
123.55,4.57,4.57,4.15,4.15,-4.16,-4.09,-4.75,0.41,0.41,0.42
124.79,4.57,4.57,4.20,4.20,-4.19,-4.11,-4.77,0.38,0.38,0.37
126.03,4.57,4.58,4.25,4.26,-4.21,-4.13,-4.78,0.35,0.37,0.32
127.29,4.57,4.55,4.30,4.28,-4.23,-4.16,-4.78,0.34,0.31,0.27
128.57,4.52,4.48,4.31,4.27,-4.25,-4.18,-4.78,0.27,0.23,0.21
129.85,4.36,4.41,4.20,4.24,-4.26,-4.20,-4.77,0.09,0.14,0.16
131.15,4.34,4.35,4.22,4.23,-4.28,-4.22,-4.76,0.06,0.07,0.12
132.46,4.34,4.32,4.27,4.25,-4.31,-4.24,-4.74,0.03,0.02,0.07
133.79,4.34,4.34,4.31,4.31,-4.33,-4.26,-4.73,0.00,0.00,0.03
135.12,4.34,4.34,4.36,4.36,-4.36,-4.28,-4.70,-0.02,-0.02,-0.02
136.48,4.34,4.34,4.40,4.40,-4.39,-4.30,-4.67,-0.05,-0.05,-0.06
137.84,4.34,4.35,4.44,4.46,-4.42,-4.32,-4.64,-0.08,-0.07,-0.10
139.22,4.34,4.34,4.50,4.49,-4.45,-4.33,-4.60,-0.11,-0.11,-0.16
140.61,4.34,4.30,4.54,4.49,-4.46,-4.35,-4.56,-0.13,-0.16,-0.20
142.02,4.23,4.23,4.45,4.46,-4.46,-4.36,-4.52,-0.24,-0.23,-0.22
143.44,4.14,4.17,4.40,4.43,-4.45,-4.38,-4.48,-0.32,-0.29,-0.26
144.87,4.11,4.12,4.41,4.42,-4.44,-4.39,-4.44,-0.33,-0.32,-0.30
146.32,4.11,4.09,4.45,4.42,-4.43,-4.40,-4.39,-0.32,-0.34,-0.34
147.78,4.06,4.03,4.43,4.41,-4.41,-4.41,-4.35,-0.35,-0.38,-0.37
149.26,3.95,3.97,4.36,4.38,-4.40,-4.42,-4.31,-0.45,-0.43,-0.41
150.75,3.89,3.91,4.35,4.37,-4.39,-4.43,-4.26,-0.50,-0.48,-0.46
152.26,3.89,3.89,4.38,4.39,-4.38,-4.44,-4.22,-0.49,-0.49,-0.49
153.78,3.89,3.86,4.42,4.39,-4.37,-4.45,-4.18,-0.48,-0.51,-0.53
155.32,3.84,3.81,4.41,4.38,-4.35,-4.45,-4.14,-0.51,-0.54,-0.57
156.88,3.68,3.74,4.29,4.35,-4.33,-4.46,-4.10,-0.65,-0.59,-0.61
158.44,3.66,3.64,4.31,4.30,-4.30,-4.46,-4.06,-0.64,-0.66,-0.65
160.03,3.60,3.56,4.29,4.25,-4.27,-4.46,-4.03,-0.67,-0.71,-0.69
161.63,3.46,3.51,4.19,4.25,-4.23,-4.46,-3.99,-0.77,-0.72,-0.73
163.24,3.43,3.44,4.20,4.21,-4.19,-4.46,-3.96,-0.76,-0.76,-0.78
164.88,3.43,3.35,4.23,4.16,-4.16,-4.46,-3.93,-0.73,-0.81,-0.81
166.53,3.25,3.29,4.09,4.13,-4.14,-4.46,-3.91,-0.89,-0.85,-0.84
168.19,3.20,3.22,4.08,4.11,-4.14,-4.46,-3.89,-0.94,-0.91,-0.88
169.87,3.20,3.18,4.12,4.10,-4.15,-4.45,-3.87,-0.95,-0.96,-0.92
171.57,3.20,3.19,4.16,4.15,-4.17,-4.44,-3.85,-0.97,-0.97,-0.96
173.29,3.20,3.20,4.19,4.19,-4.20,-4.44,-3.84,-1.00,-1.00,-0.99
175.02,3.20,3.20,4.23,4.23,-4.23,-4.43,-3.83,-1.03,-1.03,-1.03
176.77,3.20,3.20,4.27,4.27,-4.26,-4.42,-3.82,-1.06,-1.06,-1.07
178.54,3.20,3.21,4.32,4.32,-4.28,-4.40,-3.81,-1.09,-1.08,-1.12
180.32,3.20,3.21,4.35,4.36,-4.31,-4.39,-3.81,-1.11,-1.10,-1.15
182.13,3.20,3.16,4.38,4.35,-4.32,-4.38,-3.81,-1.12,-1.16,-1.18
183.95,3.11,3.09,4.33,4.32,-4.33,-4.36,-3.82,-1.22,-1.23,-1.23
185.79,2.98,3.02,4.24,4.28,-4.33,-4.34,-3.82,-1.35,-1.30,-1.26
187.65,2.97,2.97,4.27,4.26,-4.32,-4.33,-3.83,-1.35,-1.35,-1.30
189.52,2.97,2.97,4.30,4.29,-4.31,-4.31,-3.85,-1.34,-1.34,-1.33
191.42,2.97,2.97,4.33,4.33,-4.30,-4.29,-3.86,-1.33,-1.33,-1.36
193.33,2.97,2.93,4.35,4.32,-4.29,-4.26,-3.88,-1.32,-1.35,-1.39
195.27,2.87,2.87,4.28,4.28,-4.27,-4.24,-3.90,-1.40,-1.41,-1.41
197.22,2.77,2.80,4.21,4.25,-4.26,-4.22,-3.92,-1.49,-1.45,-1.44
199.19,2.75,2.76,4.23,4.23,-4.23,-4.19,-3.94,-1.48,-1.47,-1.48
201.18,2.75,2.72,4.24,4.22,-4.20,-4.16,-3.97,-1.45,-1.48,-1.50
203.19,2.70,2.67,4.21,4.19,-4.17,-4.13,-3.99,-1.47,-1.50,-1.51
205.23,2.58,2.60,4.12,4.13,-4.15,-4.10,-4.02,-1.57,-1.55,-1.54
207.28,2.52,2.54,4.06,4.09,-4.14,-4.07,-4.05,-1.62,-1.60,-1.54
209.35,2.52,2.51,4.09,4.08,-4.12,-4.04,-4.08,-1.61,-1.61,-1.57
211.44,2.52,2.51,4.11,4.10,-4.11,-4.01,-4.11,-1.59,-1.60,-1.59
213.56,2.52,2.53,4.11,4.12,-4.10,-3.97,-4.13,-1.58,-1.57,-1.59
215.69,2.52,2.52,4.12,4.13,-4.08,-3.94,-4.16,-1.56,-1.56,-1.60
217.85,2.52,2.49,4.13,4.10,-4.06,-3.90,-4.19,-1.55,-1.58,-1.61
220.03,2.43,2.42,4.05,4.05,-4.04,-3.87,-4.21,-1.61,-1.62,-1.62
222.23,2.33,2.35,3.96,3.98,-4.00,-3.83,-4.23,-1.67,-1.65,-1.64
224.45,2.29,2.31,3.92,3.95,-3.95,-3.79,-4.25,-1.66,-1.63,-1.63
226.70,2.29,2.28,3.92,3.91,-3.89,-3.75,-4.26,-1.61,-1.62,-1.63
228.96,2.29,2.23,3.92,3.85,-3.84,-3.71,-4.27,-1.56,-1.62,-1.63
231.25,2.12,2.16,3.74,3.78,-3.80,-3.66,-4.28,-1.68,-1.64,-1.62
233.57,2.06,2.09,3.68,3.71,-3.75,-3.62,-4.28,-1.69,-1.66,-1.62
235.90,2.06,2.05,3.68,3.66,-3.70,-3.57,-4.28,-1.65,-1.66,-1.62
238.26,2.06,2.07,3.68,3.68,-3.66,-3.53,-4.27,-1.60,-1.59,-1.62
240.64,2.06,2.06,3.67,3.66,-3.61,-3.48,-4.25,-1.56,-1.56,-1.61
243.05,2.06,2.00,3.65,3.60,-3.57,-3.44,-4.23,-1.51,-1.57,-1.60
245.48,1.90,1.93,3.48,3.52,-3.53,-3.39,-4.20,-1.63,-1.59,-1.58
247.93,1.84,1.87,3.41,3.44,-3.48,-3.34,-4.16,-1.64,-1.61,-1.57
250.41,1.84,1.84,3.41,3.40,-3.42,-3.29,-4.12,-1.58,-1.58,-1.57
252.92,1.84,1.83,3.39,3.38,-3.36,-3.24,-4.07,-1.52,-1.53,-1.55
255.45,1.84,1.79,3.36,3.32,-3.29,-3.19,-4.01,-1.45,-1.51,-1.53
258.00,1.70,1.72,3.21,3.23,-3.23,-3.13,-3.94,-1.53,-1.51,-1.51
260.58,1.61,1.65,3.11,3.15,-3.16,-3.08,-3.87,-1.55,-1.51,-1.50
263.19,1.61,1.61,3.08,3.09,-3.10,-3.03,-3.79,-1.49,-1.49,-1.48
265.82,1.61,1.58,3.07,3.04,-3.03,-2.97,-3.70,-1.42,-1.45,-1.46
268.48,1.55,1.52,2.99,2.96,-2.95,-2.91,-3.61,-1.41,-1.43,-1.44
271.16,1.42,1.45,2.83,2.87,-2.88,-2.86,-3.51,-1.46,-1.43,-1.41
273.87,1.38,1.41,2.78,2.80,-2.81,-2.80,-3.41,-1.43,-1.40,-1.40
276.61,1.38,1.37,2.75,2.74,-2.74,-2.74,-3.29,-1.36,-1.37,-1.38
279.38,1.38,1.32,2.74,2.68,-2.67,-2.68,-3.18,-1.29,-1.35,-1.36
282.17,1.21,1.25,2.55,2.59,-2.59,-2.62,-3.06,-1.38,-1.34,-1.35
284.99,1.15,1.19,2.47,2.51,-2.51,-2.56,-2.94,-1.36,-1.33,-1.32
287.84,1.15,1.14,2.45,2.44,-2.44,-2.50,-2.81,-1.29,-1.30,-1.31
290.72,1.15,1.10,2.43,2.38,-2.38,-2.44,-2.68,-1.23,-1.27,-1.28
293.63,1.04,1.04,2.30,2.30,-2.31,-2.37,-2.55,-1.27,-1.27,-1.26
296.57,0.94,0.97,2.18,2.21,-2.24,-2.31,-2.41,-1.30,-1.27,-1.24
299.53,0.92,0.92,2.14,2.15,-2.17,-2.24,-2.28,-1.25,-1.25,-1.22
302.53,0.92,0.92,2.12,2.12,-2.11,-2.18,-2.14,-1.19,-1.18,-1.21
305.55,0.92,0.89,2.09,2.07,-2.04,-2.11,-2.00,-1.12,-1.14,-1.17
308.61,0.87,0.83,2.02,1.98,-1.97,-2.04,-1.86,-1.10,-1.14,-1.15
311.69,0.72,0.77,1.85,1.89,-1.90,-1.97,-1.71,-1.18,-1.14,-1.13
314.81,0.70,0.72,1.79,1.82,-1.83,-1.90,-1.57,-1.13,-1.11,-1.09
317.96,0.70,0.68,1.77,1.75,-1.76,-1.83,-1.43,-1.06,-1.08,-1.07
321.14,0.69,0.63,1.75,1.69,-1.68,-1.76,-1.28,-0.99,-1.05,-1.06
324.35,0.52,0.57,1.56,1.61,-1.59,-1.68,-1.14,-1.08,-1.02,-1.04
327.59,0.47,0.50,1.48,1.51,-1.51,-1.61,-0.99,-1.04,-1.01,-1.01
330.87,0.47,0.41,1.46,1.41,-1.42,-1.53,-0.85,-0.95,-1.00,-1.00
334.18,0.36,0.37,1.34,1.35,-1.32,-1.45,-0.70,-0.97,-0.95,-0.98
337.52,0.25,0.28,1.21,1.24,-1.23,-1.37,-0.55,-0.98,-0.94,-0.96
340.90,0.24,0.17,1.17,1.11,-1.13,-1.29,-0.41,-0.89,-0.95,-0.93
344.30,0.06,0.10,0.97,1.02,-1.03,-1.21,-0.26,-0.97,-0.93,-0.92
347.75,0.01,0.04,0.91,0.94,-0.94,-1.12,-0.11,-0.93,-0.90,-0.90
351.23,0.01,-0.04,0.89,0.84,-0.86,-1.04,0.03,-0.85,-0.90,-0.88
354.74,-0.09,-0.10,0.77,0.76,-0.78,-0.95,0.18,-0.87,-0.88,-0.86
358.28,-0.20,-0.16,0.64,0.68,-0.71,-0.86,0.33,-0.91,-0.87,-0.85
361.87,-0.22,-0.21,0.61,0.62,-0.64,-0.77,0.48,-0.86,-0.85,-0.83
365.49,-0.22,-0.24,0.60,0.58,-0.57,-0.67,0.62,-0.79,-0.81,-0.82
369.14,-0.24,-0.28,0.57,0.53,-0.49,-0.57,0.77,-0.73,-0.76,-0.81
372.83,-0.38,-0.35,0.41,0.45,-0.40,-0.47,0.92,-0.78,-0.75,-0.79
376.56,-0.44,-0.44,0.34,0.34,-0.31,-0.37,1.07,-0.75,-0.75,-0.78
380.33,-0.54,-0.56,0.21,0.21,-0.21,-0.27,1.21,-0.76,-0.77,-0.76
384.13,-0.65,-0.67,0.10,0.07,-0.11,-0.16,1.36,-0.76,-0.78,-0.75
387.97,-0.82,-0.79,-0.08,-0.05,0.01,-0.05,1.51,-0.82,-0.78,-0.74
391.85,-0.89,-0.86,-0.16,-0.13,0.13,0.06,1.65,-0.77,-0.73,-0.73
395.77,-0.90,-0.93,-0.19,-0.21,0.24,0.18,1.80,-0.66,-0.69,-0.71
399.73,-0.96,-1.02,-0.26,-0.32,0.35,0.30,1.95,-0.62,-0.68,-0.70
403.72,-1.17,-1.15,-0.48,-0.46,0.45,0.43,2.09,-0.72,-0.71,-0.70
407.76,-1.33,-1.27,-0.65,-0.58,0.54,0.55,2.24,-0.79,-0.72,-0.69
411.84,-1.36,-1.37,-0.69,-0.69,0.65,0.69,2.38,-0.71,-0.72,-0.67
415.96,-1.36,-1.42,-0.70,-0.76,0.76,0.82,2.52,-0.60,-0.66,-0.66
420.12,-1.53,-1.49,-0.88,-0.84,0.89,0.96,2.66,-0.64,-0.61,-0.65
424.32,-1.60,-1.61,-0.96,-0.97,1.02,1.11,2.80,-0.58,-0.58,-0.64
428.56,-1.75,-1.76,-1.12,-1.13,1.16,1.25,2.93,-0.59,-0.60,-0.63
432.85,-1.90,-1.91,-1.28,-1.29,1.30,1.41,3.06,-0.60,-0.61,-0.62
437.18,-2.12,-2.10,-1.51,-1.49,1.45,1.56,3.19,-0.67,-0.64,-0.61
441.55,-2.24,-2.26,-1.65,-1.66,1.62,1.73,3.31,-0.63,-0.64,-0.60
445.96,-2.43,-2.41,-1.85,-1.82,1.79,1.89,3.43,-0.64,-0.62,-0.59
450.42,-2.50,-2.52,-1.92,-1.94,1.95,2.07,3.54,-0.55,-0.56,-0.58
454.93,-2.67,-2.66,-2.11,-2.10,2.12,2.24,3.65,-0.55,-0.55,-0.56
459.48,-2.77,-2.81,-2.22,-2.26,2.28,2.42,3.75,-0.50,-0.53,-0.55
464.07,-3.02,-2.99,-2.49,-2.46,2.44,2.61,3.84,-0.58,-0.55,-0.53
468.71,-3.15,-3.15,-2.64,-2.63,2.62,2.80,3.93,-0.53,-0.53,-0.51
473.40,-3.32,-3.29,-2.82,-2.80,2.81,2.99,4.01,-0.51,-0.48,-0.50
478.13,-3.40,-3.44,-2.92,-2.95,3.01,3.18,4.08,-0.39,-0.43,-0.48
482.91,-3.61,-3.64,-3.14,-3.17,3.20,3.38,4.14,-0.41,-0.43,-0.47
487.74,-3.87,-3.86,-3.42,-3.41,3.40,3.58,4.19,-0.47,-0.46,-0.45
492.62,-4.13,-4.10,-3.70,-3.67,3.60,3.78,4.24,-0.53,-0.51,-0.43
497.55,-4.29,-4.29,-3.87,-3.87,3.81,3.98,4.27,-0.49,-0.49,-0.42
502.52,-4.45,-4.43,-4.05,-4.02,4.02,4.17,4.29,-0.43,-0.41,-0.41
507.55,-4.54,-4.57,-4.15,-4.17,4.24,4.36,4.30,-0.30,-0.33,-0.40
