frequency,raw,error,smoothed,error_smoothed,equalization,parametric_eq,equalized_raw,equalized_smoothed,target
20,-6.44,-8.37,-6.43,-8.34,6.00,2.40,-0.44,-0.43,1.93
21,-6.14,-8.07,-6.11,-8.03,6.00,2.76,-0.14,-0.11,1.93
22,-5.82,-7.75,-5.81,-7.72,6.00,3.15,0.18,0.19,1.92
23,-5.50,-7.42,-5.51,-7.43,6.00,3.57,0.50,0.49,1.92
24,-5.21,-7.13,-5.23,-7.15,6.00,4.01,0.79,0.77,1.92
25,-4.94,-6.86,-4.96,-6.88,6.00,4.46,1.06,1.04,1.92
26,-4.68,-6.60,-4.70,-6.62,6.00,4.91,1.32,1.30,1.91
27,-4.43,-6.34,-4.45,-6.36,5.96,5.34,1.53,1.51,1.91
28,-4.20,-6.11,-4.22,-6.12,5.88,5.71,1.67,1.66,1.91
29,-3.98,-5.88,-3.99,-5.89,5.76,6.00,1.77,1.77,1.90
30,-3.76,-5.66,-3.78,-5.67,5.61,6.20,1.85,1.84,1.90
31,-3.58,-5.47,-3.58,-5.47,5.45,6.28,1.87,1.87,1.89
32,-3.39,-5.28,-3.39,-5.28,5.28,6.27,1.88,1.88,1.89
33,-3.21,-5.09,-3.22,-5.09,5.09,6.16,1.88,1.88,1.88
34,-3.06,-4.93,-3.05,-4.92,4.92,5.98,1.86,1.87,1.87
35,-2.89,-4.76,-2.89,-4.75,4.75,5.75,1.86,1.86,1.87
36,-2.75,-4.61,-2.74,-4.59,4.59,5.49,1.84,1.85,1.86
37,-2.60,-4.45,-2.60,-4.44,4.44,5.22,1.84,1.84,1.85
38,-2.46,-4.30,-2.46,-4.29,4.29,4.96,1.83,1.83,1.84
39,-2.34,-4.17,-2.33,-4.15,4.15,4.70,1.81,1.82,1.83
40,-2.21,-4.03,-2.20,-4.01,4.01,4.46,1.80,1.81,1.82
41,-2.08,-3.89,-2.08,-3.88,3.88,4.24,1.80,1.80,1.81
42,-1.97,-3.77,-1.97,-3.76,3.76,4.04,1.79,1.79,1.79
43,-1.87,-3.65,-1.87,-3.64,3.64,3.86,1.77,1.78,1.78
44,-1.77,-3.54,-1.77,-3.54,3.54,3.69,1.77,1.77,1.77
45,-1.68,-3.44,-1.69,-3.44,3.44,3.55,1.76,1.75,1.75
46,-1.60,-3.34,-1.62,-3.36,3.36,3.42,1.76,1.74,1.74
47,-1.54,-3.26,-1.56,-3.28,3.28,3.31,1.74,1.72,1.72
48,-1.47,-3.18,-1.51,-3.21,3.21,3.21,1.74,1.70,1.70
49,-1.43,-3.12,-1.47,-3.16,3.16,3.12,1.72,1.68,1.69
50,-1.43,-3.10,-1.44,-3.10,3.10,3.05,1.67,1.66,1.67
51,-1.41,-3.06,-1.42,-3.06,3.06,2.98,1.65,1.64,1.65
52,-1.39,-3.02,-1.40,-3.02,3.02,2.92,1.63,1.62,1.63
53,-1.39,-3.00,-1.39,-2.98,2.98,2.87,1.59,1.59,1.61
54,-1.39,-2.98,-1.37,-2.94,2.94,2.82,1.55,1.57,1.58
55,-1.39,-2.95,-1.36,-2.91,2.91,2.77,1.51,1.55,1.56
56,-1.39,-2.93,-1.34,-2.87,2.87,2.73,1.47,1.52,1.54
57,-1.35,-2.86,-1.32,-2.82,2.82,2.68,1.47,1.50,1.51
58,-1.30,-2.79,-1.30,-2.77,2.77,2.63,1.47,1.47,1.48
59,-1.26,-2.72,-1.27,-2.71,2.71,2.59,1.45,1.44,1.46
60,-1.22,-2.65,-1.23,-2.65,2.65,2.53,1.42,1.41,1.43
61,-1.17,-2.57,-1.19,-2.57,2.57,2.48,1.40,1.38,1.40
62,-1.13,-2.50,-1.14,-2.50,2.50,2.42,1.36,1.36,1.37
63,-1.09,-2.43,-1.08,-2.41,2.41,2.36,1.32,1.33,1.34
64,-1.04,-2.35,-1.02,-2.32,2.32,2.29,1.28,1.30,1.31
65,-0.98,-2.26,-0.96,-2.23,2.23,2.22,1.24,1.27,1.28
66,-0.93,-2.17,-0.89,-2.13,2.13,2.15,1.20,1.24,1.24
67,-0.85,-2.06,-0.83,-2.03,2.03,2.07,1.18,1.20,1.21
68,-0.77,-1.95,-0.77,-1.93,1.93,1.99,1.16,1.17,1.17
69,-0.67,-1.81,-0.71,-1.84,1.84,1.91,1.17,1.13,1.14
70,-0.62,-1.72,-0.65,-1.75,1.75,1.83,1.12,1.10,1.10
71,-0.57,-1.64,-0.59,-1.66,1.66,1.74,1.08,1.06,1.07
72,-0.52,-1.55,-0.55,-1.57,1.57,1.66,1.05,1.03,1.03
73,-0.48,-1.47,-0.50,-1.49,1.49,1.58,1.01,0.99,0.99
74,-0.44,-1.39,-0.47,-1.42,1.42,1.49,0.98,0.96,0.95
75,-0.44,-1.36,-0.44,-1.36,1.36,1.41,0.92,0.92,0.91
76,-0.43,-1.31,-0.42,-1.30,1.30,1.32,0.87,0.88,0.87
77,-0.39,-1.23,-0.41,-1.24,1.24,1.24,0.85,0.84,0.83
78,-0.39,-1.19,-0.40,-1.19,1.19,1.16,0.80,0.79,0.79
79,-0.39,-1.15,-0.39,-1.14,1.14,1.07,0.75,0.75,0.75
80,-0.39,-1.11,-0.39,-1.10,1.10,0.99,0.70,0.71,0.71
81,-0.39,-1.06,-0.38,-1.05,1.05,0.91,0.66,0.67,0.67
82,-0.37,-1.00,-0.37,-1.00,1.00,0.84,0.63,0.62,0.63
83,-0.37,-0.96,-0.36,-0.95,0.95,0.76,0.57,0.58,0.59
84,-0.35,-0.90,-0.35,-0.89,0.89,0.68,0.54,0.54,0.55
85,-0.35,-0.86,-0.33,-0.83,0.83,0.61,0.48,0.50,0.51
86,-0.32,-0.79,-0.31,-0.76,0.76,0.54,0.44,0.46,0.47
87,-0.30,-0.73,-0.28,-0.69,0.69,0.46,0.39,0.41,0.42
88,-0.26,-0.64,-0.25,-0.62,0.62,0.39,0.36,0.37,0.38
89,-0.22,-0.56,-0.21,-0.54,0.54,0.32,0.32,0.33,0.34
90,-0.16,-0.46,-0.17,-0.46,0.46,0.25,0.30,0.29,0.30
91,-0.13,-0.39,-0.13,-0.38,0.38,0.18,0.25,0.25,0.26
92,-0.07,-0.29,-0.09,-0.30,0.30,0.12,0.23,0.21,0.22
93,-0.04,-0.22,-0.05,-0.22,0.22,0.05,0.18,0.18,0.18
94,-0.00,-0.14,-0.01,-0.15,0.15,-0.01,0.14,0.14,0.14
95,0.04,-0.06,0.03,-0.07,0.07,-0.08,0.11,0.10,0.10
96,0.08,0.02,0.06,0.00,-0.00,-0.14,0.07,0.06,0.06
97,0.09,0.07,0.09,0.08,-0.08,-0.20,0.01,0.01,0.02
98,0.13,0.15,0.12,0.15,-0.15,-0.26,-0.02,-0.03,-0.02
99,0.14,0.20,0.14,0.21,-0.21,-0.32,-0.07,-0.07,-0.06
100,0.17,0.27,0.16,0.28,-0.28,-0.38,-0.11,-0.11,-0.10
101,0.17,0.31,0.18,0.34,-0.34,-0.44,-0.17,-0.16,-0.14
102,0.19,0.37,0.19,0.39,-0.39,-0.50,-0.20,-0.20,-0.18
104,0.21,0.46,0.21,0.45,-0.45,-0.61,-0.24,-0.24,-0.25
105,0.21,0.50,0.22,0.50,-0.50,-0.66,-0.29,-0.28,-0.29
106,0.25,0.57,0.23,0.55,-0.55,-0.71,-0.30,-0.32,-0.32
107,0.26,0.62,0.25,0.60,-0.60,-0.76,-0.34,-0.36,-0.36
108,0.26,0.65,0.26,0.65,-0.65,-0.81,-0.39,-0.39,-0.39
109,0.26,0.69,0.26,0.69,-0.69,-0.86,-0.44,-0.43,-0.43
110,0.26,0.72,0.27,0.74,-0.74,-0.91,-0.48,-0.47,-0.46
111,0.27,0.76,0.28,0.78,-0.78,-0.95,-0.51,-0.50,-0.50
112,0.30,0.83,0.29,0.82,-0.82,-0.99,-0.52,-0.54,-0.53
113,0.30,0.86,0.29,0.86,-0.86,-1.03,-0.56,-0.57,-0.56
114,0.30,0.89,0.29,0.90,-0.90,-1.07,-0.60,-0.61,-0.59
115,0.30,0.92,0.30,0.94,-0.94,-1.11,-0.64,-0.64,-0.62
117,0.30,0.98,0.30,0.97,-0.97,-1.18,-0.68,-0.67,-0.68
118,0.30,1.01,0.30,1.01,-1.01,-1.21,-0.71,-0.71,-0.71
119,0.30,1.04,0.30,1.04,-1.04,-1.23,-0.75,-0.74,-0.74
120,0.30,1.07,0.30,1.08,-1.08,-1.26,-0.78,-0.77,-0.77
121,0.30,1.10,0.30,1.11,-1.11,-1.29,-0.81,-0.81,-0.80
123,0.30,1.15,0.30,1.14,-1.14,-1.33,-0.84,-0.84,-0.85
124,0.30,1.18,0.29,1.17,-1.17,-1.35,-0.87,-0.88,-0.88
125,0.30,1.20,0.28,1.19,-1.19,-1.36,-0.90,-0.91,-0.90
126,0.30,1.23,0.28,1.22,-1.22,-1.38,-0.92,-0.94,-0.93
128,0.26,1.24,0.27,1.24,-1.24,-1.40,-0.98,-0.97,-0.98
129,0.26,1.26,0.26,1.26,-1.26,-1.41,-1.00,-1.00,-1.00
130,0.26,1.28,0.25,1.28,-1.28,-1.42,-1.02,-1.03,-1.02
131,0.26,1.31,0.24,1.30,-1.30,-1.42,-1.04,-1.06,-1.05
133,0.21,1.30,0.23,1.32,-1.32,-1.43,-1.11,-1.09,-1.09
134,0.21,1.32,0.22,1.34,-1.34,-1.43,-1.13,-1.12,-1.11
135,0.21,1.34,0.21,1.36,-1.36,-1.43,-1.15,-1.14,-1.13
137,0.21,1.38,0.20,1.37,-1.37,-1.43,-1.17,-1.17,-1.17
138,0.21,1.40,0.20,1.39,-1.39,-1.42,-1.18,-1.20,-1.19
140,0.19,1.42,0.19,1.41,-1.41,-1.42,-1.22,-1.22,-1.23
141,0.17,1.41,0.18,1.43,-1.43,-1.41,-1.26,-1.25,-1.25
142,0.17,1.43,0.18,1.45,-1.45,-1.41,-1.28,-1.27,-1.26
144,0.17,1.47,0.17,1.46,-1.46,-1.39,-1.30,-1.30,-1.30
145,0.17,1.48,0.16,1.48,-1.48,-1.39,-1.31,-1.32,-1.31
147,0.17,1.51,0.16,1.50,-1.50,-1.37,-1.33,-1.34,-1.35
148,0.16,1.52,0.15,1.51,-1.51,-1.36,-1.35,-1.36,-1.36
150,0.13,1.52,0.14,1.53,-1.53,-1.35,-1.40,-1.39,-1.39
151,0.13,1.53,0.13,1.54,-1.54,-1.34,-1.41,-1.41,-1.40
153,0.13,1.56,0.12,1.55,-1.55,-1.33,-1.42,-1.43,-1.43
154,0.13,1.57,0.11,1.56,-1.56,-1.32,-1.43,-1.45,-1.44
156,0.08,1.55,0.10,1.57,-1.57,-1.30,-1.49,-1.47,-1.47
157,0.08,1.56,0.09,1.58,-1.58,-1.30,-1.50,-1.49,-1.48
159,0.08,1.58,0.08,1.58,-1.58,-1.28,-1.51,-1.51,-1.51
160,0.08,1.60,0.06,1.59,-1.59,-1.28,-1.51,-1.53,-1.52
162,0.04,1.58,0.05,1.59,-1.59,-1.27,-1.55,-1.54,-1.54
164,0.04,1.60,0.04,1.59,-1.59,-1.26,-1.56,-1.56,-1.56
165,0.04,1.61,0.02,1.60,-1.60,-1.25,-1.56,-1.57,-1.57
167,-0.00,1.59,0.01,1.60,-1.60,-1.24,-1.60,-1.59,-1.59
169,-0.00,1.61,-0.01,1.60,-1.60,-1.24,-1.60,-1.61,-1.61
170,-0.03,1.59,-0.03,1.59,-1.59,-1.24,-1.63,-1.62,-1.62
172,-0.05,1.58,-0.05,1.59,-1.59,-1.23,-1.64,-1.63,-1.64
174,-0.05,1.60,-0.06,1.59,-1.59,-1.23,-1.64,-1.65,-1.65
175,-0.09,1.57,-0.08,1.58,-1.58,-1.23,-1.67,-1.66,-1.66
177,-0.09,1.58,-0.10,1.57,-1.57,-1.23,-1.67,-1.68,-1.68
179,-0.13,1.56,-0.12,1.57,-1.57,-1.23,-1.70,-1.69,-1.69
181,-0.13,1.57,-0.14,1.56,-1.56,-1.23,-1.69,-1.71,-1.71
183,-0.18,1.54,-0.16,1.56,-1.56,-1.23,-1.74,-1.72,-1.72
184,-0.18,1.54,-0.18,1.55,-1.55,-1.23,-1.73,-1.73,-1.73
186,-0.18,1.56,-0.20,1.55,-1.55,-1.24,-1.73,-1.74,-1.74
188,-0.22,1.53,-0.21,1.54,-1.54,-1.24,-1.76,-1.75,-1.75
190,-0.22,1.54,-0.23,1.54,-1.54,-1.25,-1.76,-1.76,-1.76
192,-0.25,1.52,-0.24,1.54,-1.54,-1.26,-1.79,-1.77,-1.77
194,-0.26,1.52,-0.25,1.53,-1.53,-1.27,-1.80,-1.78,-1.78
196,-0.26,1.53,-0.26,1.53,-1.53,-1.27,-1.79,-1.80,-1.79
198,-0.26,1.54,-0.27,1.53,-1.53,-1.28,-1.79,-1.81,-1.80
200,-0.26,1.55,-0.28,1.53,-1.53,-1.29,-1.79,-1.81,-1.81
202,-0.30,1.52,-0.29,1.53,-1.53,-1.30,-1.83,-1.82,-1.82
204,-0.31,1.52,-0.30,1.53,-1.53,-1.32,-1.84,-1.83,-1.83
206,-0.31,1.53,-0.31,1.53,-1.53,-1.33,-1.84,-1.84,-1.84
208,-0.31,1.53,-0.32,1.53,-1.53,-1.34,-1.84,-1.85,-1.85
210,-0.31,1.54,-0.33,1.53,-1.53,-1.35,-1.84,-1.86,-1.85
212,-0.35,1.51,-0.34,1.53,-1.53,-1.36,-1.88,-1.86,-1.86
214,-0.35,1.52,-0.35,1.52,-1.52,-1.37,-1.88,-1.87,-1.87
216,-0.35,1.52,-0.36,1.52,-1.52,-1.38,-1.87,-1.88,-1.88
218,-0.35,1.53,-0.37,1.51,-1.51,-1.39,-1.86,-1.89,-1.88
221,-0.39,1.50,-0.39,1.50,-1.50,-1.41,-1.90,-1.89,-1.89
223,-0.39,1.50,-0.40,1.49,-1.49,-1.42,-1.89,-1.89,-1.90
225,-0.42,1.48,-0.42,1.48,-1.48,-1.42,-1.90,-1.90,-1.90
227,-0.44,1.46,-0.43,1.47,-1.47,-1.43,-1.91,-1.90,-1.90
229,-0.44,1.46,-0.45,1.45,-1.45,-1.44,-1.89,-1.90,-1.90
232,-0.48,1.42,-0.46,1.44,-1.44,-1.44,-1.92,-1.90,-1.90
234,-0.48,1.41,-0.48,1.42,-1.42,-1.45,-1.90,-1.89,-1.90
236,-0.48,1.41,-0.49,1.40,-1.40,-1.45,-1.88,-1.89,-1.89
239,-0.52,1.36,-0.51,1.37,-1.37,-1.45,-1.90,-1.88,-1.89
241,-0.52,1.36,-0.53,1.35,-1.35,-1.45,-1.87,-1.88,-1.88
244,-0.52,1.35,-0.54,1.33,-1.33,-1.44,-1.85,-1.87,-1.87
246,-0.57,1.29,-0.56,1.30,-1.30,-1.44,-1.87,-1.86,-1.86
248,-0.57,1.27,-0.57,1.28,-1.28,-1.43,-1.85,-1.85,-1.85
251,-0.57,1.26,-0.59,1.25,-1.25,-1.42,-1.82,-1.84,-1.84
253,-0.61,1.21,-0.61,1.22,-1.22,-1.41,-1.83,-1.83,-1.82
256,-0.61,1.20,-0.62,1.20,-1.20,-1.40,-1.81,-1.82,-1.81
259,-0.65,1.15,-0.64,1.17,-1.17,-1.38,-1.82,-1.81,-1.80
261,-0.65,1.14,-0.66,1.14,-1.14,-1.36,-1.79,-1.80,-1.79
264,-0.69,1.09,-0.67,1.12,-1.12,-1.34,-1.81,-1.79,-1.78
266,-0.70,1.07,-0.69,1.09,-1.09,-1.32,-1.79,-1.78,-1.77
269,-0.70,1.06,-0.70,1.06,-1.06,-1.30,-1.77,-1.77,-1.76
272,-0.70,1.05,-0.71,1.04,-1.04,-1.27,-1.74,-1.75,-1.75
274,-0.73,1.01,-0.72,1.01,-1.01,-1.25,-1.74,-1.74,-1.74
277,-0.74,0.98,-0.74,0.98,-0.98,-1.22,-1.73,-1.72,-1.72
280,-0.74,0.96,-0.75,0.96,-0.96,-1.19,-1.70,-1.70,-1.71
283,-0.74,0.95,-0.76,0.93,-0.93,-1.15,-1.67,-1.68,-1.69
286,-0.76,0.91,-0.76,0.90,-0.90,-1.12,-1.66,-1.66,-1.67
288,-0.78,0.86,-0.77,0.87,-0.87,-1.10,-1.65,-1.65,-1.65
291,-0.78,0.84,-0.78,0.84,-0.84,-1.06,-1.62,-1.63,-1.62
294,-0.78,0.82,-0.79,0.81,-0.81,-1.02,-1.60,-1.61,-1.60
297,-0.78,0.80,-0.80,0.78,-0.78,-0.99,-1.57,-1.59,-1.58
300,-0.83,0.73,-0.81,0.75,-0.75,-0.95,-1.58,-1.57,-1.56
303,-0.83,0.71,-0.82,0.72,-0.72,-0.92,-1.55,-1.54,-1.54
306,-0.83,0.69,-0.83,0.69,-0.69,-0.88,-1.53,-1.53,-1.52
309,-0.83,0.67,-0.84,0.66,-0.66,-0.85,-1.50,-1.51,-1.50
312,-0.86,0.62,-0.85,0.64,-0.64,-0.81,-1.50,-1.49,-1.48
316,-0.87,0.60,-0.86,0.61,-0.61,-0.76,-1.48,-1.47,-1.47
319,-0.87,0.58,-0.87,0.58,-0.58,-0.73,-1.45,-1.45,-1.45
322,-0.87,0.56,-0.88,0.55,-0.55,-0.69,-1.42,-1.43,-1.43
325,-0.87,0.54,-0.89,0.52,-0.52,-0.66,-1.40,-1.41,-1.41
328,-0.89,0.50,-0.89,0.50,-0.50,-0.63,-1.39,-1.39,-1.39
332,-0.91,0.46,-0.90,0.47,-0.47,-0.58,-1.38,-1.37,-1.37
335,-0.91,0.44,-0.91,0.44,-0.44,-0.55,-1.35,-1.35,-1.35
338,-0.91,0.41,-0.92,0.41,-0.41,-0.52,-1.32,-1.33,-1.33
342,-0.91,0.39,-0.93,0.38,-0.38,-0.48,-1.29,-1.31,-1.30
345,-0.91,0.37,-0.93,0.35,-0.35,-0.44,-1.26,-1.28,-1.28
349,-0.96,0.30,-0.94,0.32,-0.32,-0.40,-1.28,-1.26,-1.26
352,-0.96,0.28,-0.95,0.29,-0.29,-0.37,-1.26,-1.24,-1.24
356,-0.96,0.26,-0.96,0.27,-0.27,-0.33,-1.23,-1.23,-1.22
359,-0.96,0.24,-0.97,0.24,-0.24,-0.31,-1.20,-1.21,-1.20
363,-0.96,0.22,-0.97,0.21,-0.21,-0.27,-1.18,-1.19,-1.19
366,-1.00,0.17,-0.98,0.19,-0.19,-0.24,-1.19,-1.17,-1.17
370,-1.00,0.15,-0.99,0.16,-0.16,-0.20,-1.17,-1.16,-1.16
374,-1.00,0.14,-1.00,0.14,-0.14,-0.17,-1.14,-1.14,-1.14
377,-1.00,0.13,-1.01,0.12,-0.12,-0.14,-1.12,-1.13,-1.13
381,-1.00,0.11,-1.02,0.10,-0.10,-0.11,-1.10,-1.12,-1.12
385,-1.04,0.06,-1.03,0.07,-0.07,-0.07,-1.12,-1.10,-1.10
389,-1.04,0.05,-1.04,0.05,-0.05,-0.04,-1.10,-1.09,-1.09
393,-1.04,0.04,-1.05,0.04,-0.04,-0.01,-1.08,-1.09,-1.08
397,-1.04,0.03,-1.06,0.02,-0.02,0.02,-1.06,-1.08,-1.07
401,-1.09,-0.03,-1.07,-0.00,0.00,0.05,-1.09,-1.07,-1.07
405,-1.09,-0.03,-1.08,-0.02,0.02,0.08,-1.08,-1.06,-1.06
409,-1.09,-0.04,-1.09,-0.03,0.03,0.11,-1.06,-1.06,-1.06
413,-1.09,-0.04,-1.10,-0.05,0.05,0.14,-1.05,-1.05,-1.05
417,-1.09,-0.05,-1.11,-0.06,0.06,0.17,-1.03,-1.05,-1.05
421,-1.12,-0.08,-1.12,-0.07,0.07,0.20,-1.05,-1.04,-1.04
425,-1.13,-0.09,-1.12,-0.08,0.08,0.22,-1.05,-1.04,-1.04
430,-1.13,-0.10,-1.13,-0.09,0.09,0.25,-1.04,-1.03,-1.03
434,-1.13,-0.10,-1.13,-0.10,0.10,0.28,-1.03,-1.03,-1.03
438,-1.13,-0.11,-1.13,-0.11,0.11,0.30,-1.02,-1.02,-1.02
443,-1.13,-0.12,-1.13,-0.13,0.13,0.33,-1.01,-1.01,-1.01
447,-1.13,-0.13,-1.13,-0.14,0.14,0.35,-1.00,-1.00,-1.00
451,-1.13,-0.14,-1.14,-0.15,0.15,0.37,-0.98,-0.99,-0.99
456,-1.13,-0.15,-1.14,-0.16,0.16,0.39,-0.97,-0.98,-0.98
460,-1.13,-0.17,-1.14,-0.17,0.17,0.41,-0.96,-0.97,-0.96
465,-1.13,-0.18,-1.14,-0.18,0.18,0.43,-0.95,-0.95,-0.95
470,-1.13,-0.20,-1.13,-0.19,0.19,0.45,-0.94,-0.94,-0.93
474,-1.13,-0.21,-1.13,-0.21,0.21,0.46,-0.93,-0.93,-0.92
479,-1.13,-0.23,-1.13,-0.22,0.22,0.48,-0.92,-0.91,-0.91
484,-1.13,-0.24,-1.13,-0.23,0.23,0.49,-0.90,-0.90,-0.89
489,-1.13,-0.25,-1.12,-0.24,0.24,0.50,-0.89,-0.88,-0.88
494,-1.13,-0.27,-1.12,-0.25,0.25,0.51,-0.88,-0.87,-0.87
499,-1.12,-0.27,-1.12,-0.26,0.26,0.52,-0.86,-0.85,-0.85
504,-1.11,-0.27,-1.11,-0.27,0.27,0.53,-0.84,-0.84,-0.84
509,-1.09,-0.27,-1.11,-0.29,0.29,0.53,-0.81,-0.82,-0.82
514,-1.09,-0.28,-1.11,-0.30,0.30,0.54,-0.79,-0.81,-0.81
519,-1.09,-0.30,-1.10,-0.31,0.31,0.54,-0.78,-0.79,-0.79
524,-1.09,-0.32,-1.10,-0.33,0.33,0.54,-0.76,-0.77,-0.77
529,-1.09,-0.34,-1.09,-0.34,0.34,0.54,-0.75,-0.75,-0.75
535,-1.09,-0.36,-1.09,-0.36,0.36,0.54,-0.73,-0.73,-0.73
540,-1.09,-0.39,-1.08,-0.38,0.38,0.54,-0.71,-0.71,-0.71
545,-1.09,-0.41,-1.08,-0.40,0.40,0.53,-0.70,-0.68,-0.68
551,-1.09,-0.43,-1.07,-0.41,0.41,0.53,-0.68,-0.66,-0.66
556,-1.08,-0.45,-1.07,-0.43,0.43,0.52,-0.65,-0.64,-0.63
562,-1.04,-0.43,-1.06,-0.44,0.44,0.51,-0.60,-0.62,-0.61
568,-1.04,-0.46,-1.05,-0.46,0.46,0.50,-0.58,-0.59,-0.59
573,-1.04,-0.48,-1.04,-0.47,0.47,0.50,-0.57,-0.57,-0.56
579,-1.04,-0.50,-1.03,-0.48,0.48,0.49,-0.56,-0.55,-0.54
585,-1.00,-0.48,-1.02,-0.49,0.49,0.48,-0.51,-0.53,-0.53
591,-1.00,-0.49,-1.01,-0.50,0.50,0.47,-0.50,-0.51,-0.51
596,-1.00,-0.51,-1.00,-0.51,0.51,0.46,-0.49,-0.50,-0.49
602,-1.00,-0.52,-0.99,-0.51,0.51,0.45,-0.49,-0.48,-0.48
608,-1.00,-0.54,-0.98,-0.52,0.52,0.43,-0.48,-0.47,-0.46
615,-0.97,-0.52,-0.97,-0.52,0.52,0.42,-0.45,-0.45,-0.45
621,-0.96,-0.52,-0.96,-0.53,0.53,0.41,-0.44,-0.44,-0.44
627,-0.96,-0.54,-0.95,-0.53,0.53,0.40,-0.43,-0.42,-0.43
633,-0.96,-0.55,-0.94,-0.53,0.53,0.39,-0.43,-0.41,-0.41
639,-0.91,-0.52,-0.93,-0.54,0.54,0.38,-0.38,-0.39,-0.40
646,-0.91,-0.53,-0.92,-0.54,0.54,0.36,-0.37,-0.38,-0.38
652,-0.91,-0.55,-0.91,-0.54,0.54,0.35,-0.37,-0.36,-0.37
659,-0.87,-0.52,-0.90,-0.54,0.54,0.34,-0.33,-0.35,-0.35
665,-0.87,-0.54,-0.89,-0.55,0.55,0.33,-0.33,-0.34,-0.34
672,-0.87,-0.55,-0.88,-0.55,0.55,0.32,-0.32,-0.33,-0.32
679,-0.87,-0.56,-0.87,-0.55,0.55,0.31,-0.32,-0.32,-0.31
686,-0.87,-0.57,-0.86,-0.55,0.55,0.30,-0.32,-0.31,-0.30
692,-0.85,-0.56,-0.85,-0.55,0.55,0.29,-0.30,-0.30,-0.29
699,-0.85,-0.57,-0.84,-0.55,0.55,0.28,-0.31,-0.29,-0.28
706,-0.84,-0.57,-0.83,-0.54,0.54,0.26,-0.30,-0.29,-0.28
713,-0.83,-0.56,-0.82,-0.54,0.54,0.26,-0.29,-0.28,-0.27
721,-0.83,-0.57,-0.81,-0.54,0.54,0.24,-0.30,-0.27,-0.27
728,-0.80,-0.54,-0.80,-0.53,0.53,0.23,-0.27,-0.27,-0.26
735,-0.78,-0.52,-0.79,-0.54,0.54,0.23,-0.25,-0.26,-0.26
742,-0.78,-0.53,-0.79,-0.54,0.54,0.22,-0.24,-0.25,-0.25
750,-0.78,-0.54,-0.79,-0.56,0.56,0.21,-0.23,-0.23,-0.25
757,-0.78,-0.54,-0.80,-0.57,0.57,0.20,-0.21,-0.22,-0.24
765,-0.78,-0.55,-0.81,-0.60,0.60,0.19,-0.18,-0.22,-0.23
773,-0.82,-0.60,-0.84,-0.63,0.63,0.18,-0.19,-0.21,-0.22
780,-0.83,-0.62,-0.87,-0.66,0.66,0.18,-0.17,-0.20,-0.21
788,-0.87,-0.67,-0.90,-0.70,0.70,0.17,-0.17,-0.20,-0.20
796,-0.91,-0.72,-0.94,-0.74,0.74,0.16,-0.17,-0.20,-0.19
804,-0.96,-0.78,-0.98,-0.78,0.78,0.15,-0.18,-0.20,-0.18
812,-1.01,-0.84,-1.01,-0.82,0.82,0.15,-0.20,-0.20,-0.18
820,-1.06,-0.89,-1.04,-0.85,0.85,0.14,-0.21,-0.19,-0.17
828,-1.09,-0.93,-1.06,-0.87,0.87,0.13,-0.22,-0.19,-0.16
837,-1.13,-0.97,-1.07,-0.88,0.88,0.13,-0.25,-0.19,-0.16
845,-1.12,-0.96,-1.08,-0.89,0.89,0.12,-0.24,-0.19,-0.16
853,-1.09,-0.93,-1.06,-0.88,0.88,0.11,-0.22,-0.19,-0.16
862,-1.06,-0.90,-1.04,-0.85,0.85,0.11,-0.21,-0.19,-0.16
871,-1.00,-0.84,-1.00,-0.82,0.82,0.10,-0.19,-0.18,-0.16
879,-0.95,-0.79,-0.95,-0.77,0.77,0.10,-0.18,-0.18,-0.16
888,-0.89,-0.73,-0.89,-0.71,0.71,0.09,-0.18,-0.18,-0.17
897,-0.81,-0.65,-0.82,-0.65,0.65,0.09,-0.16,-0.17,-0.16
906,-0.74,-0.58,-0.74,-0.58,0.58,0.08,-0.16,-0.16,-0.16
915,-0.65,-0.49,-0.66,-0.51,0.51,0.08,-0.14,-0.15,-0.16
924,-0.58,-0.43,-0.58,-0.44,0.44,0.07,-0.15,-0.15,-0.16
933,-0.48,-0.33,-0.50,-0.36,0.36,0.07,-0.12,-0.14,-0.15
943,-0.42,-0.28,-0.42,-0.29,0.29,0.06,-0.13,-0.13,-0.14
952,-0.33,-0.20,-0.35,-0.23,0.23,0.06,-0.11,-0.12,-0.13
962,-0.26,-0.14,-0.27,-0.16,0.16,0.05,-0.10,-0.11,-0.12
971,-0.19,-0.09,-0.20,-0.10,0.10,0.05,-0.09,-0.09,-0.10
981,-0.12,-0.04,-0.13,-0.05,0.05,0.05,-0.07,-0.08,-0.09
991,-0.07,-0.01,-0.07,-0.01,0.01,0.04,-0.07,-0.06,-0.07
1001,0.01,0.05,-0.00,0.04,-0.04,0.04,-0.03,-0.04,-0.04
1011,0.06,0.08,0.06,0.07,-0.07,0.04,-0.02,-0.02,-0.02
1021,0.11,0.10,0.11,0.11,-0.11,0.03,0.00,0.01,0.01
1031,0.17,0.14,0.17,0.14,-0.14,0.03,0.03,0.03,0.03
1041,0.24,0.18,0.22,0.17,-0.17,0.03,0.07,0.06,0.06
1052,0.28,0.19,0.27,0.19,-0.19,0.02,0.09,0.08,0.09
1062,0.32,0.20,0.33,0.22,-0.22,0.02,0.10,0.11,0.11
1073,0.38,0.24,0.38,0.24,-0.24,0.02,0.14,0.14,0.14
1084,0.44,0.27,0.43,0.27,-0.27,0.01,0.17,0.17,0.17
1094,0.49,0.29,0.49,0.29,-0.29,0.01,0.20,0.20,0.20
1105,0.54,0.31,0.54,0.32,-0.32,0.01,0.22,0.23,0.23
1116,0.58,0.32,0.60,0.34,-0.34,0.01,0.24,0.26,0.26
1128,0.65,0.35,0.66,0.37,-0.37,0.00,0.28,0.29,0.29
1139,0.73,0.40,0.72,0.40,-0.40,0.00,0.33,0.32,0.33
1150,0.78,0.42,0.79,0.43,-0.43,-0.00,0.35,0.36,0.36
1162,0.86,0.46,0.86,0.46,-0.46,-0.00,0.40,0.40,0.40
1173,0.92,0.48,0.93,0.49,-0.49,-0.01,0.43,0.44,0.44
1185,1.00,0.52,1.00,0.52,-0.52,-0.01,0.47,0.48,0.48
1197,1.07,0.55,1.08,0.55,-0.55,-0.01,0.51,0.52,0.52
1209,1.16,0.59,1.15,0.58,-0.58,-0.01,0.57,0.57,0.57
1221,1.22,0.60,1.23,0.61,-0.61,-0.02,0.61,0.62,0.62
1233,1.32,0.65,1.30,0.64,-0.64,-0.02,0.68,0.67,0.67
1246,1.39,0.67,1.38,0.66,-0.66,-0.02,0.73,0.72,0.72
1258,1.47,0.70,1.45,0.67,-0.67,-0.02,0.79,0.78,0.77
1271,1.53,0.70,1.52,0.69,-0.69,-0.02,0.84,0.83,0.83
1283,1.58,0.69,1.59,0.70,-0.70,-0.03,0.88,0.89,0.89
1296,1.64,0.69,1.65,0.70,-0.70,-0.03,0.94,0.95,0.95
1309,1.71,0.70,1.71,0.70,-0.70,-0.03,1.01,1.02,1.01
1322,1.78,0.70,1.77,0.69,-0.69,-0.03,1.09,1.08,1.08
1335,1.84,0.69,1.82,0.68,-0.68,-0.04,1.16,1.15,1.14
1349,1.88,0.67,1.87,0.66,-0.66,-0.04,1.22,1.21,1.21
1362,1.93,0.65,1.92,0.64,-0.64,-0.04,1.29,1.28,1.28
1376,1.97,0.62,1.96,0.61,-0.61,-0.04,1.36,1.35,1.35
1390,2.00,0.58,2.00,0.58,-0.58,-0.05,1.41,1.42,1.42
1404,2.05,0.56,2.04,0.55,-0.55,-0.05,1.49,1.49,1.49
1418,2.08,0.52,2.08,0.52,-0.52,-0.05,1.56,1.56,1.56
1432,2.12,0.48,2.12,0.49,-0.49,-0.05,1.63,1.63,1.63
1446,2.15,0.44,2.15,0.46,-0.46,-0.06,1.69,1.70,1.71
1461,2.17,0.39,2.19,0.42,-0.42,-0.06,1.74,1.77,1.78
1475,2.22,0.36,2.23,0.39,-0.39,-0.06,1.83,1.84,1.85
1490,2.27,0.34,2.28,0.36,-0.36,-0.06,1.91,1.92,1.93
1505,2.33,0.32,2.32,0.33,-0.33,-0.07,2.00,1.99,2.00
1520,2.39,0.31,2.37,0.29,-0.29,-0.07,2.09,2.07,2.08
1535,2.42,0.26,2.42,0.26,-0.26,-0.07,2.16,2.15,2.16
1550,2.45,0.21,2.46,0.23,-0.23,-0.08,2.22,2.23,2.24
1566,2.52,0.19,2.52,0.20,-0.20,-0.08,2.32,2.32,2.33
1582,2.58,0.17,2.57,0.16,-0.16,-0.08,2.41,2.41,2.41
1597,2.64,0.14,2.63,0.13,-0.13,-0.09,2.51,2.49,2.50
1613,2.70,0.11,2.68,0.10,-0.10,-0.09,2.60,2.58,2.59
1629,2.75,0.07,2.74,0.07,-0.07,-0.09,2.68,2.67,2.68
1646,2.81,0.04,2.80,0.04,-0.04,-0.09,2.77,2.76,2.77
1662,2.86,-0.01,2.86,0.01,-0.01,-0.10,2.85,2.85,2.87
1679,2.95,-0.02,2.94,-0.01,0.01,-0.10,2.96,2.95,2.97
1696,3.02,-0.06,3.03,-0.03,0.03,-0.10,3.05,3.06,3.08
1713,3.10,-0.09,3.12,-0.04,0.04,-0.11,3.14,3.17,3.18
