frequency,raw
20.00,0.24
20.20,0.30
20.40,0.36
20.61,0.42
20.81,0.48
21.02,0.54
21.23,0.59
21.44,0.65
21.66,0.71
21.87,0.77
22.09,0.82
22.31,0.88
22.54,0.94
22.76,1.00
22.99,1.06
23.22,1.12
23.45,1.17
23.69,1.23
23.92,1.29
24.16,1.35
24.40,1.41
24.65,1.47
24.89,1.53
25.14,1.58
25.39,1.64
25.65,1.70
25.91,1.76
26.16,1.82
26.43,1.87
26.69,1.93
26.96,1.98
27.23,2.04
27.50,2.09
27.77,2.15
28.05,2.20
28.33,2.25
28.62,2.30
28.90,2.35
29.19,2.40
29.48,2.45
29.78,2.50
30.08,2.55
30.38,2.60
30.68,2.64
30.99,2.69
31.30,2.73
31.61,2.77
31.93,2.81
32.24,2.85
32.57,2.89
32.89,2.94
33.22,2.97
33.55,3.01
33.89,3.04
34.23,3.08
34.57,3.11
34.92,3.15
35.27,3.19
35.62,3.22
35.97,3.26
36.33,3.30
36.70,3.34
37.06,3.38
37.43,3.42
37.81,3.46
38.19,3.50
38.57,3.54
38.95,3.58
39.34,3.62
39.74,3.66
40.14,3.70
40.54,3.74
40.94,3.77
41.35,3.81
41.76,3.84
42.18,3.87
42.60,3.91
43.03,3.94
43.46,3.97
43.90,3.99
44.33,4.02
44.78,4.04
45.23,4.06
45.68,4.07
46.13,4.08
46.60,4.09
47.06,4.10
47.53,4.11
48.01,4.12
48.49,4.13
48.97,4.15
49.46,4.15
49.96,4.16
50.46,4.17
50.96,4.18
51.47,4.19
51.99,4.21
52.51,4.22
53.03,4.23
53.56,4.24
54.10,4.25
54.64,4.27
55.18,4.29
55.74,4.30
56.29,4.32
56.86,4.34
57.42,4.37
58.00,4.39
58.58,4.41
59.16,4.43
59.76,4.45
60.35,4.47
60.96,4.48
61.57,4.49
62.18,4.49
62.80,4.49
63.43,4.49
64.07,4.48
64.71,4.45
65.35,4.42
66.01,4.39
66.67,4.35
67.33,4.31
68.01,4.27
68.69,4.23
69.37,4.19
70.07,4.15
70.77,4.10
71.48,4.07
72.19,4.03
72.91,3.99
73.64,3.95
74.38,3.91
75.12,3.88
75.87,3.85
76.63,3.82
77.40,3.79
78.17,3.76
78.95,3.73
79.74,3.70
80.54,3.67
81.35,3.64
82.16,3.60
82.98,3.57
83.81,3.51
84.65,3.44
85.50,3.37
86.35,3.29
87.22,3.21
88.09,3.13
88.97,3.04
89.86,2.96
90.76,2.87
91.66,2.79
92.58,2.70
93.51,2.59
94.44,2.50
95.39,2.44
96.34,2.38
97.30,2.32
98.28,2.28
99.26,2.27
100.25,2.28
101.25,2.30
102.27,2.33
103.29,2.36
104.32,2.40
105.37,2.46
106.42,2.53
107.48,2.62
108.56,2.73
109.64,2.83
110.74,2.93
111.85,3.03
112.97,3.14
114.10,3.23
115.24,3.33
116.39,3.40
117.55,3.48
118.73,3.59
119.92,3.69
121.12,3.81
122.33,3.86
123.55,3.93
124.79,4.04
126.03,4.14
127.29,4.19
128.57,4.24
129.85,4.34
131.15,4.41
132.46,4.45
133.79,4.52
135.12,4.58
136.48,4.62
137.84,4.66
139.22,4.69
140.61,4.73
142.02,4.76
143.44,4.77
144.87,4.80
146.32,4.81
147.78,4.82
149.26,4.82
150.75,4.81
152.26,4.82
153.78,4.82
155.32,4.82
156.88,4.81
158.44,4.80
160.03,4.77
161.63,4.76
163.24,4.74
164.88,4.70
166.53,4.66
168.19,4.62
169.87,4.56
171.57,4.50
173.29,4.45
175.02,4.38
176.77,4.34
178.54,4.30
180.32,4.26
182.13,4.21
183.95,4.16
185.79,4.12
187.65,4.09
189.52,4.05
191.42,4.02
193.33,3.98
195.27,3.94
197.22,3.91
199.19,3.86
201.18,3.81
203.19,3.77
205.23,3.72
207.28,3.67
209.35,3.62
211.44,3.58
213.56,3.54
215.69,3.50
217.85,3.44
220.03,3.40
222.23,3.35
224.45,3.29
226.70,3.24
228.96,3.18
231.25,3.13
233.57,3.06
235.90,2.95
238.26,2.90
240.64,2.81
243.05,2.74
245.48,2.64
247.93,2.53
250.41,2.46
252.92,2.36
255.45,2.29
258.00,2.22
260.58,2.13
263.19,2.04
265.82,1.95
268.48,1.88
271.16,1.83
273.87,1.75
276.61,1.71
279.38,1.67
282.17,1.63
284.99,1.60
287.84,1.56
290.72,1.56
293.63,1.54
296.57,1.53
299.53,1.53
302.53,1.54
305.55,1.56
308.61,1.57
311.69,1.56
314.81,1.55
317.96,1.54
321.14,1.51
324.35,1.48
327.59,1.45
330.87,1.42
334.18,1.39
337.52,1.35
340.90,1.32
344.30,1.29
347.75,1.28
351.23,1.26
354.74,1.24
358.28,1.21
361.87,1.19
365.49,1.17
369.14,1.15
372.83,1.13
376.56,1.09
380.33,1.06
384.13,1.03
387.97,1.00
391.85,0.96
395.77,0.93
399.73,0.90
403.72,0.88
407.76,0.86
411.84,0.87
415.96,0.89
420.12,0.92
424.32,0.95
428.56,0.98
432.85,1.02
437.18,1.05
441.55,1.09
445.96,1.12
450.42,1.16
454.93,1.18
459.48,1.21
464.07,1.23
468.71,1.24
473.40,1.25
478.13,1.25
482.91,1.24
487.74,1.23
492.62,1.23
497.55,1.23
502.52,1.23
507.55,1.23
512.62,1.23
517.75,1.23
522.93,1.23
528.16,1.23
533.44,1.23
538.77,1.23
544.16,1.23
549.60,1.23
555.10,1.23
560.65,1.23
566.25,1.24
571.92,1.24
577.64,1.24
583.41,1.24
589.25,1.23
595.14,1.20
601.09,1.17
607.10,1.14
613.17,1.13
619.30,1.10
625.50,1.07
631.75,1.04
638.07,1.00
644.45,0.96
650.89,0.92
657.40,0.88
663.98,0.84
670.62,0.81
677.32,0.78
684.10,0.75
690.94,0.71
697.85,0.67
704.83,0.62
711.87,0.58
718.99,0.53
726.18,0.48
733.44,0.41
740.78,0.35
748.19,0.30
755.67,0.26
763.23,0.22
770.86,0.17
778.57,0.11
786.35,0.05
794.22,-0.01
802.16,-0.06
810.18,-0.10
818.28,-0.15
826.46,-0.20
834.73,-0.25
843.08,-0.29
851.51,-0.33
860.02,-0.36
868.62,-0.37
877.31,-0.39
886.08,-0.38
894.94,-0.37
903.89,-0.35
912.93,-0.32
922.06,-0.28
931.28,-0.25
940.59,-0.22
950.00,-0.19
959.50,-0.16
969.09,-0.13
978.78,-0.09
988.57,-0.05
998.46,-0.01
1008.44,0.03
1018.53,0.06
1028.71,0.09
1039.00,0.10
1049.39,0.11
1059.88,0.12
1070.48,0.12
1081.19,0.11
1092.00,0.11
1102.92,0.10
1113.95,0.08
1125.09,0.06
1136.34,0.02
1147.70,-0.03
1159.18,-0.08
1170.77,-0.12
1182.48,-0.16
1194.30,-0.19
1206.25,-0.22
1218.31,-0.25
1230.49,-0.28
1242.80,-0.31
1255.22,-0.34
1267.78,-0.37
1280.45,-0.39
1293.26,-0.42
1306.19,-0.44
1319.25,-0.44
1332.45,-0.42
1345.77,-0.40
1359.23,-0.38
1372.82,-0.35
1386.55,-0.32
1400.41,-0.28
1414.42,-0.24
1428.56,-0.20
1442.85,-0.17
1457.28,-0.14
1471.85,-0.13
1486.57,-0.13
1501.43,-0.13
1516.45,-0.15
1531.61,-0.17
1546.93,-0.20
1562.40,-0.24
1578.02,-0.28
1593.80,-0.32
1609.74,-0.35
1625.84,-0.37
1642.10,-0.38
1658.52,-0.39
1675.10,-0.40
1691.85,-0.42
1708.77,-0.43
1725.86,-0.45
1743.12,-0.47
1760.55,-0.50
1778.15,-0.53
1795.94,-0.55
1813.90,-0.58
1832.03,-0.61
1850.36,-0.65
1868.86,-0.69
1887.55,-0.73
1906.42,-0.77
1925.49,-0.81
1944.74,-0.84
1964.19,-0.86
1983.83,-0.88
2003.67,-0.90
2023.71,-0.94
2043.94,-0.99
2064.38,-1.04
2085.03,-1.09
2105.88,-1.13
2126.94,-1.17
2148.20,-1.21
2169.69,-1.24
2191.38,-1.27
2213.30,-1.29
2235.43,-1.32
2257.78,-1.35
2280.36,-1.37
2303.17,-1.40
2326.20,-1.41
2349.46,-1.41
2372.95,-1.39
2396.68,-1.37
2420.65,-1.34
2444.86,-1.32
2469.31,-1.29
2494.00,-1.26
2518.94,-1.22
2544.13,-1.19
2569.57,-1.15
2595.27,-1.12
2621.22,-1.09
2647.43,-1.06
2673.90,-1.03
2700.64,-1.00
2727.65,-1.01
2754.93,-1.02
2782.48,-1.04
2810.30,-1.08
2838.40,-1.11
2866.79,-1.14
2895.46,-1.18
2924.41,-1.21
2953.65,-1.25
2983.19,-1.28
3013.02,-1.31
3043.15,-1.34
3073.58,-1.36
3104.32,-1.39
3135.36,-1.40
3166.72,-1.41
3198.38,-1.41
3230.37,-1.39
3262.67,-1.37
3295.30,-1.35
3328.25,-1.33
3361.53,-1.29
3395.15,-1.26
3429.10,-1.23
3463.39,-1.19
3498.03,-1.16
3533.01,-1.15
3568.34,-1.14
3604.02,-1.15
3640.06,-1.17
3676.46,-1.20
3713.22,-1.26
3750.36,-1.33
3787.86,-1.44
3825.74,-1.56
3864.00,-1.71
3902.64,-1.86
3941.66,-2.06
3981.08,-2.26
4020.89,-2.47
4061.10,-2.71
4101.71,-2.98
4142.73,-3.25
4184.15,-3.51
4226.00,-3.75
4268.26,-3.97
4310.94,-4.14
4354.05,-4.24
4397.59,-4.27
4441.56,-4.22
4485.98,-4.10
4530.84,-3.90
4576.15,-3.63
4621.91,-3.30
4668.13,-2.90
4714.81,-2.47
4761.96,-2.02
4809.58,-1.56
4857.67,-1.11
4906.25,-0.68
4955.31,-0.27
5004.87,0.12
5054.91,0.49
5105.46,0.83
5156.52,1.14
5208.08,1.42
5260.16,1.69
5312.77,1.95
5365.89,2.20
5419.55,2.43
5473.75,2.65
5528.49,2.87
5583.77,3.08
5639.61,3.26
5696.00,3.44
5752.96,3.60
5810.49,3.72
5868.60,3.83
5927.28,3.92
5986.56,4.00
6046.42,4.07
6106.89,4.14
6167.96,4.19
6229.64,4.22
6291.93,4.23
6354.85,4.21
6418.40,4.19
6482.58,4.17
6547.41,4.10
6612.88,3.99
6679.01,3.84
6745.80,3.67
6813.26,3.44
6881.39,3.17
6950.21,2.84
7019.71,2.46
7089.91,2.04
7160.81,1.56
7232.41,1.04
7304.74,0.47
7377.79,-0.16
7451.56,-0.83
7526.08,-1.54
7601.34,-2.28
7677.35,-3.03
7754.13,-3.76
7831.67,-4.46
7909.98,-5.11
7989.08,-5.72
8068.98,-6.25
8149.67,-6.69
8231.16,-7.02
8313.47,-7.24
8396.61,-7.35
8480.57,-7.34
8565.38,-7.22
8651.03,-7.02
8737.54,-6.73
8824.92,-6.37
8913.17,-5.98
9002.30,-5.57
9092.32,-5.16
9183.25,-4.74
9275.08,-4.34
9367.83,-3.96
9461.51,-3.60
9556.12,-3.27
9651.68,-2.98
9748.20,-2.72
9845.68,-2.49
9944.14,-2.28
10043.58,-2.10
10144.02,-1.94
10245.46,-1.81
10347.91,-1.70
10451.39,-1.59
10555.91,-1.52
10661.46,-1.45
10768.08,-1.41
10875.76,-1.38
10984.52,-1.36
11094.36,-1.36
11205.31,-1.37
11317.36,-1.40
11430.53,-1.46
11544.84,-1.52
11660.29,-1.62
11776.89,-1.73
11894.66,-1.84
12013.60,-1.98
12133.74,-2.13
12255.08,-2.31
12377.63,-2.51
12501.41,-2.74
12626.42,-2.98
12752.68,-3.25
12880.21,-3.54
13009.01,-3.85
13139.10,-4.18
13270.49,-4.51
13403.20,-4.86
13537.23,-5.23
13672.60,-5.61
13809.33,-5.99
13947.42,-6.40
14086.90,-6.82
14227.77,-7.25
14370.04,-7.69
14513.74,-8.14
14658.88,-8.59
14805.47,-9.04
14953.52,-9.47
15103.06,-9.90
15254.09,-10.31
15406.63,-10.69
15560.70,-11.04
15716.30,-11.36
15873.47,-11.65
16032.20,-11.91
16192.52,-12.14
16354.45,-12.35
16517.99,-12.56
16683.17,-12.76
16850.01,-12.97
17018.51,-13.21
17188.69,-13.48
17360.58,-13.78
17534.18,-14.14
17709.53,-14.56
17886.62,-15.06
18065.49,-15.61
18246.14,-16.19
18428.60,-16.80
18612.89,-17.46
18799.02,-18.17
18987.01,-18.91
19176.88,-19.71
19368.65,-20.55
19562.33,-21.43
19757.96,-22.36
19955.54,-23.34
