frequency,raw,error,smoothed,error_smoothed,equalization,parametric_eq,equalized_raw,equalized_smoothed,target
20,-51.40,-40.97,-51.49,-41.06,6.00,2.60,-45.40,-45.49,-10.43
21,-50.53,-40.10,-50.66,-40.23,6.00,2.99,-44.53,-44.66,-10.43
22,-49.84,-39.41,-49.84,-39.41,6.00,3.42,-43.84,-43.84,-10.43
23,-49.17,-38.74,-49.02,-38.59,6.00,3.88,-43.17,-43.02,-10.43
24,-48.37,-37.94,-48.22,-37.79,6.00,4.36,-42.37,-42.22,-10.43
25,-47.66,-37.23,-47.43,-37.00,6.00,4.87,-41.66,-41.43,-10.43
26,-46.77,-36.34,-46.64,-36.22,6.00,5.37,-40.77,-40.64,-10.43
27,-45.92,-35.49,-45.87,-35.44,6.00,5.85,-39.92,-39.87,-10.43
28,-45.10,-34.67,-45.10,-34.67,6.00,6.28,-39.10,-39.10,-10.43
29,-44.31,-33.88,-44.35,-33.92,6.00,6.64,-38.31,-38.35,-10.43
30,-43.54,-33.11,-43.61,-33.18,6.00,6.91,-37.54,-37.61,-10.43
31,-42.80,-32.37,-42.88,-32.45,6.00,7.08,-36.80,-36.88,-10.43
32,-42.08,-31.65,-42.17,-31.75,6.00,7.14,-36.08,-36.17,-10.43
33,-41.53,-31.10,-41.49,-31.06,6.00,7.11,-35.53,-35.49,-10.43
34,-40.87,-30.44,-40.83,-30.40,6.00,7.01,-34.87,-34.83,-10.43
35,-40.22,-29.79,-40.20,-29.77,6.00,6.87,-34.22,-34.20,-10.43
36,-39.59,-29.16,-39.60,-29.17,6.00,6.69,-33.59,-33.60,-10.43
37,-38.97,-28.54,-39.03,-28.60,6.00,6.51,-32.97,-33.03,-10.43
38,-38.53,-28.10,-38.49,-28.06,6.00,6.34,-32.53,-32.49,-10.43
39,-37.94,-27.51,-37.98,-27.55,6.00,6.18,-31.94,-31.98,-10.43
40,-37.41,-26.98,-37.50,-27.07,6.00,6.04,-31.41,-31.50,-10.43
41,-36.97,-26.54,-37.05,-26.63,6.00,5.92,-30.97,-31.05,-10.43
42,-36.59,-26.16,-36.63,-26.21,6.00,5.82,-30.59,-30.63,-10.43
43,-36.27,-25.84,-36.24,-25.81,6.00,5.75,-30.27,-30.24,-10.43
44,-35.87,-25.44,-35.87,-25.45,6.00,5.71,-29.87,-29.87,-10.43
45,-35.43,-25.00,-35.52,-25.10,6.00,5.69,-29.43,-29.52,-10.43
46,-35.19,-24.76,-35.19,-24.76,6.00,5.68,-29.19,-29.19,-10.43
47,-34.94,-24.51,-34.87,-24.44,6.00,5.70,-28.94,-28.87,-10.43
48,-34.55,-24.12,-34.56,-24.13,6.00,5.74,-28.55,-28.56,-10.43
49,-34.31,-23.88,-34.25,-23.82,6.00,5.79,-28.31,-28.25,-10.43
50,-33.95,-23.52,-33.94,-23.51,6.00,5.85,-27.95,-27.94,-10.43
51,-33.70,-23.27,-33.63,-23.20,6.00,5.92,-27.70,-27.63,-10.43
52,-33.39,-22.96,-33.31,-22.88,6.00,6.00,-27.39,-27.31,-10.43
53,-33.10,-22.67,-32.99,-22.56,6.00,6.09,-27.10,-26.99,-10.43
54,-32.70,-22.27,-32.66,-22.23,6.00,6.17,-26.70,-26.66,-10.43
55,-32.36,-21.93,-32.33,-21.90,6.00,6.26,-26.36,-26.33,-10.43
56,-32.04,-21.61,-31.99,-21.56,6.00,6.33,-26.04,-25.99,-10.43
57,-31.64,-21.21,-31.65,-21.22,6.00,6.41,-25.64,-25.65,-10.43
58,-31.27,-20.84,-31.31,-20.88,6.00,6.47,-25.27,-25.31,-10.43
59,-31.03,-20.60,-30.97,-20.54,6.00,6.52,-25.03,-24.97,-10.43
60,-30.65,-20.22,-30.64,-20.21,6.00,6.56,-24.65,-24.64,-10.43
61,-30.27,-19.84,-30.32,-19.89,6.00,6.58,-24.27,-24.32,-10.43
62,-29.90,-19.47,-30.01,-19.58,6.00,6.59,-23.90,-24.01,-10.43
63,-29.69,-19.26,-29.71,-19.29,6.00,6.58,-23.69,-23.71,-10.43
64,-29.35,-18.92,-29.43,-19.00,6.00,6.56,-23.35,-23.43,-10.43
65,-29.16,-18.73,-29.16,-18.74,6.00,6.53,-23.16,-23.16,-10.43
66,-28.84,-18.41,-28.91,-18.48,6.00,6.48,-22.84,-22.91,-10.43
67,-28.67,-18.24,-28.67,-18.25,6.00,6.43,-22.67,-22.67,-10.43
68,-28.50,-18.07,-28.45,-18.02,6.00,6.37,-22.50,-22.45,-10.43
69,-28.30,-17.87,-28.23,-17.80,6.00,6.30,-22.30,-22.23,-10.43
70,-28.01,-17.58,-28.03,-17.60,6.00,6.23,-22.01,-22.03,-10.43
71,-27.85,-17.42,-27.83,-17.40,6.00,6.16,-21.85,-21.83,-10.43
72,-27.66,-17.23,-27.63,-17.20,6.00,6.08,-21.66,-21.63,-10.43
73,-27.38,-16.95,-27.44,-17.01,6.00,6.00,-21.38,-21.44,-10.43
74,-27.22,-16.79,-27.25,-16.82,6.00,5.93,-21.22,-21.25,-10.43
75,-27.07,-16.64,-27.06,-16.64,6.00,5.86,-21.07,-21.06,-10.43
76,-26.92,-16.49,-26.87,-16.45,6.00,5.79,-20.92,-20.87,-10.43
77,-26.77,-16.34,-26.68,-16.26,6.00,5.73,-20.77,-20.68,-10.43
78,-26.50,-16.07,-26.49,-16.06,6.00,5.67,-20.50,-20.49,-10.43
79,-26.32,-15.89,-26.30,-15.87,6.00,5.61,-20.32,-20.30,-10.43
80,-26.18,-15.75,-26.10,-15.68,6.00,5.57,-20.18,-20.10,-10.43
81,-25.98,-15.55,-25.91,-15.48,6.00,5.52,-19.98,-19.91,-10.43
82,-25.70,-15.27,-25.72,-15.29,6.00,5.48,-19.70,-19.72,-10.43
83,-25.44,-15.01,-25.52,-15.10,6.00,5.45,-19.44,-19.52,-10.43
84,-25.31,-14.88,-25.33,-14.91,6.00,5.43,-19.31,-19.33,-10.43
85,-25.17,-14.74,-25.15,-14.72,6.00,5.40,-19.17,-19.15,-10.43
86,-24.95,-14.52,-24.97,-14.55,6.00,5.39,-18.95,-18.97,-10.43
87,-24.75,-14.32,-24.80,-14.38,6.00,5.38,-18.75,-18.80,-10.43
88,-24.62,-14.19,-24.64,-14.21,6.00,5.38,-18.62,-18.64,-10.43
89,-24.49,-14.06,-24.49,-14.06,6.00,5.38,-18.49,-18.49,-10.43
90,-24.36,-13.93,-24.34,-13.91,6.00,5.38,-18.36,-18.34,-10.43
91,-24.24,-13.81,-24.20,-13.77,6.00,5.40,-18.24,-18.20,-10.43
92,-24.07,-13.64,-24.07,-13.64,6.00,5.41,-18.07,-18.07,-10.43
93,-23.83,-13.40,-23.94,-13.51,6.00,5.43,-17.83,-17.94,-10.43
94,-23.83,-13.40,-23.82,-13.39,6.00,5.46,-17.83,-17.82,-10.43
95,-23.67,-13.24,-23.70,-13.27,6.00,5.48,-17.67,-17.70,-10.43
96,-23.51,-13.08,-23.57,-13.15,6.00,5.52,-17.51,-17.57,-10.43
97,-23.51,-13.08,-23.45,-13.02,6.00,5.55,-17.51,-17.45,-10.43
98,-23.40,-12.97,-23.33,-12.90,6.00,5.59,-17.40,-17.33,-10.43
99,-23.29,-12.86,-23.20,-12.77,6.00,5.63,-17.29,-17.20,-10.43
100,-23.16,-12.73,-23.07,-12.64,6.00,5.68,-17.16,-17.07,-10.43
101,-22.94,-12.51,-22.94,-12.51,6.00,5.72,-16.94,-16.94,-10.43
102,-22.86,-12.43,-22.80,-12.37,6.00,5.77,-16.86,-16.80,-10.43
104,-22.60,-12.17,-22.66,-12.23,6.00,5.87,-16.60,-16.66,-10.43
105,-22.46,-12.03,-22.52,-12.09,6.00,5.92,-16.46,-16.52,-10.43
106,-22.35,-11.92,-22.38,-11.95,6.00,5.97,-16.35,-16.38,-10.43
107,-22.25,-11.82,-22.23,-11.81,6.00,6.02,-16.25,-16.23,-10.43
108,-22.07,-11.64,-22.09,-11.66,6.00,6.07,-16.07,-16.09,-10.43
109,-21.88,-11.45,-21.94,-11.52,6.00,6.12,-15.88,-15.94,-10.43
110,-21.77,-11.34,-21.80,-11.37,6.00,6.17,-15.77,-15.80,-10.43
111,-21.67,-11.24,-21.65,-11.22,6.00,6.22,-15.67,-15.65,-10.43
112,-21.57,-11.14,-21.50,-11.07,6.00,6.27,-15.57,-15.50,-10.43
113,-21.38,-10.95,-21.35,-10.92,6.00,6.31,-15.38,-15.35,-10.43
114,-21.21,-10.78,-21.19,-10.76,6.00,6.35,-15.21,-15.19,-10.43
115,-21.11,-10.68,-21.03,-10.61,6.00,6.39,-15.11,-15.03,-10.43
117,-20.92,-10.49,-20.87,-10.45,6.00,6.46,-14.92,-14.87,-10.43
118,-20.72,-10.29,-20.71,-10.28,6.00,6.49,-14.72,-14.71,-10.43
119,-20.53,-10.10,-20.55,-10.12,6.00,6.51,-14.53,-14.55,-10.43
120,-20.34,-9.91,-20.38,-9.96,6.00,6.53,-14.34,-14.38,-10.43
121,-20.21,-9.78,-20.22,-9.79,6.00,6.55,-14.21,-14.22,-10.43
123,-20.03,-9.60,-20.06,-9.64,6.00,6.57,-14.03,-14.06,-10.43
124,-19.93,-9.50,-19.91,-9.48,6.00,6.57,-13.93,-13.91,-10.43
125,-19.75,-9.32,-19.76,-9.33,6.00,6.58,-13.75,-13.76,-10.43
126,-19.59,-9.16,-19.61,-9.18,6.00,6.57,-13.59,-13.61,-10.43
128,-19.41,-8.98,-19.47,-9.04,6.00,6.55,-13.41,-13.47,-10.43
129,-19.33,-8.90,-19.34,-8.91,6.00,6.54,-13.33,-13.34,-10.43
130,-19.24,-8.81,-19.21,-8.78,6.00,6.52,-13.24,-13.21,-10.43
131,-19.15,-8.72,-19.08,-8.66,6.00,6.50,-13.15,-13.08,-10.43
133,-18.98,-8.55,-18.96,-8.54,6.00,6.45,-12.98,-12.96,-10.43
134,-18.82,-8.39,-18.85,-8.42,6.00,6.43,-12.82,-12.85,-10.43
135,-18.66,-8.23,-18.73,-8.31,6.00,6.39,-12.66,-12.73,-10.43
137,-18.64,-8.21,-18.62,-8.19,6.00,6.33,-12.64,-12.62,-10.43
138,-18.56,-8.13,-18.51,-8.08,6.00,6.29,-12.56,-12.51,-10.43
140,-18.40,-7.97,-18.40,-7.98,6.00,6.22,-12.40,-12.40,-10.43
141,-18.32,-7.89,-18.30,-7.87,6.00,6.18,-12.32,-12.30,-10.43
142,-18.24,-7.81,-18.19,-7.76,6.00,6.14,-12.24,-12.19,-10.43
144,-18.08,-7.65,-18.09,-7.66,6.00,6.06,-12.08,-12.09,-10.43
145,-18.01,-7.58,-17.98,-7.56,6.00,6.02,-12.01,-11.98,-10.43
147,-17.85,-7.42,-17.88,-7.45,6.00,5.94,-11.85,-11.88,-10.43
148,-17.77,-7.34,-17.78,-7.35,6.00,5.90,-11.77,-11.78,-10.43
150,-17.67,-7.24,-17.68,-7.26,6.00,5.83,-11.67,-11.68,-10.43
151,-17.67,-7.24,-17.59,-7.16,6.00,5.79,-11.67,-11.59,-10.43
153,-17.45,-7.02,-17.49,-7.07,6.00,5.72,-11.45,-11.49,-10.43
154,-17.35,-6.92,-17.40,-6.97,6.00,5.69,-11.35,-11.40,-10.43
156,-17.34,-6.91,-17.31,-6.89,6.00,5.62,-11.34,-11.31,-10.43
157,-17.27,-6.84,-17.23,-6.80,6.00,5.59,-11.27,-11.23,-10.43
159,-17.13,-6.70,-17.15,-6.72,6.00,5.54,-11.13,-11.15,-10.43
160,-17.06,-6.63,-17.07,-6.64,6.00,5.51,-11.06,-11.07,-10.43
162,-17.02,-6.59,-17.00,-6.57,6.00,5.46,-11.02,-11.00,-10.43
164,-16.94,-6.51,-16.93,-6.50,6.00,5.42,-10.94,-10.93,-10.43
165,-16.87,-6.44,-16.86,-6.43,6.00,5.40,-10.87,-10.86,-10.43
167,-16.74,-6.31,-16.80,-6.37,6.00,5.37,-10.74,-10.80,-10.43
169,-16.70,-6.27,-16.74,-6.31,6.00,5.34,-10.70,-10.74,-10.43
170,-16.70,-6.27,-16.68,-6.25,6.00,5.33,-10.70,-10.68,-10.43
172,-16.70,-6.27,-16.62,-6.20,6.00,5.31,-10.70,-10.62,-10.43
174,-16.60,-6.17,-16.57,-6.14,6.00,5.30,-10.60,-10.57,-10.43
175,-16.53,-6.10,-16.52,-6.09,6.00,5.30,-10.53,-10.53,-10.43
177,-16.40,-5.97,-16.47,-6.05,5.98,5.29,-10.42,-10.49,-10.43
179,-16.37,-5.94,-16.43,-6.00,5.96,5.29,-10.41,-10.47,-10.43
181,-16.37,-5.94,-16.38,-5.95,5.92,5.30,-10.44,-10.46,-10.43
183,-16.37,-5.94,-16.34,-5.91,5.88,5.31,-10.48,-10.45,-10.43
184,-16.37,-5.94,-16.29,-5.86,5.86,5.32,-10.50,-10.43,-10.43
186,-16.33,-5.90,-16.25,-5.82,5.82,5.33,-10.51,-10.43,-10.43
188,-16.21,-5.78,-16.20,-5.77,5.77,5.36,-10.44,-10.43,-10.43
190,-16.09,-5.66,-16.15,-5.72,5.72,5.38,-10.36,-10.43,-10.43
192,-16.05,-5.62,-16.11,-5.68,5.68,5.41,-10.37,-10.43,-10.43
194,-16.05,-5.62,-16.06,-5.63,5.63,5.45,-10.42,-10.43,-10.43
196,-16.05,-5.62,-16.01,-5.59,5.59,5.48,-10.46,-10.43,-10.43
198,-16.05,-5.62,-15.97,-5.54,5.54,5.52,-10.51,-10.43,-10.43
200,-16.00,-5.57,-15.93,-5.50,5.50,5.56,-10.50,-10.43,-10.43
202,-15.88,-5.45,-15.89,-5.46,5.46,5.60,-10.42,-10.43,-10.43
204,-15.77,-5.34,-15.85,-5.42,5.42,5.65,-10.35,-10.43,-10.43
206,-15.73,-5.30,-15.81,-5.39,5.39,5.69,-10.34,-10.43,-10.43
208,-15.73,-5.30,-15.78,-5.36,5.36,5.74,-10.37,-10.43,-10.43
210,-15.73,-5.30,-15.75,-5.33,5.33,5.79,-10.40,-10.43,-10.43
212,-15.73,-5.30,-15.73,-5.30,5.30,5.83,-10.43,-10.43,-10.43
214,-15.73,-5.30,-15.70,-5.27,5.27,5.88,-10.45,-10.43,-10.43
216,-15.73,-5.30,-15.67,-5.25,5.25,5.92,-10.48,-10.43,-10.43
218,-15.73,-5.30,-15.65,-5.22,5.22,5.97,-10.51,-10.43,-10.43
221,-15.68,-5.25,-15.62,-5.20,5.20,6.03,-10.48,-10.43,-10.43
223,-15.58,-5.15,-15.60,-5.17,5.17,6.07,-10.41,-10.43,-10.43
225,-15.56,-5.13,-15.57,-5.14,5.14,6.10,-10.41,-10.43,-10.43
227,-15.56,-5.13,-15.54,-5.12,5.12,6.13,-10.44,-10.43,-10.43
229,-15.56,-5.13,-15.52,-5.09,5.09,6.16,-10.47,-10.43,-10.43
232,-15.46,-5.03,-15.50,-5.07,5.07,6.19,-10.39,-10.43,-10.43
234,-15.40,-4.97,-15.47,-5.05,5.05,6.21,-10.35,-10.43,-10.43
236,-15.40,-4.97,-15.45,-5.03,5.03,6.22,-10.37,-10.43,-10.43
239,-15.40,-4.97,-15.43,-5.01,5.01,6.23,-10.39,-10.43,-10.43
241,-15.40,-4.97,-15.41,-4.99,4.99,6.23,-10.41,-10.43,-10.43
244,-15.40,-4.97,-15.40,-4.97,4.97,6.21,-10.43,-10.43,-10.43
246,-15.40,-4.97,-15.37,-4.95,4.95,6.20,-10.45,-10.43,-10.43
248,-15.40,-4.97,-15.35,-4.92,4.92,6.17,-10.47,-10.43,-10.43
251,-15.40,-4.97,-15.33,-4.90,4.90,6.13,-10.50,-10.43,-10.43
253,-15.40,-4.97,-15.30,-4.87,4.87,6.10,-10.52,-10.43,-10.43
256,-15.32,-4.89,-15.27,-4.84,4.84,6.03,-10.47,-10.43,-10.43
259,-15.24,-4.81,-15.24,-4.81,4.81,5.96,-10.42,-10.43,-10.43
261,-15.24,-4.81,-15.21,-4.78,4.78,5.90,-10.45,-10.43,-10.43
264,-15.13,-4.70,-15.18,-4.75,4.75,5.81,-10.37,-10.43,-10.43
266,-15.08,-4.65,-15.16,-4.73,4.73,5.75,-10.35,-10.43,-10.43
269,-15.08,-4.65,-15.13,-4.70,4.70,5.64,-10.37,-10.43,-10.43
272,-15.08,-4.65,-15.11,-4.69,4.69,5.53,-10.39,-10.43,-10.43
274,-15.08,-4.65,-15.10,-4.67,4.67,5.45,-10.41,-10.43,-10.43
277,-15.08,-4.65,-15.09,-4.66,4.66,5.33,-10.41,-10.43,-10.43
280,-15.08,-4.65,-15.08,-4.66,4.66,5.20,-10.42,-10.43,-10.43
283,-15.08,-4.65,-15.08,-4.65,4.65,5.07,-10.42,-10.43,-10.43
286,-15.08,-4.65,-15.08,-4.65,4.65,4.94,-10.43,-10.43,-10.43
288,-15.08,-4.65,-15.07,-4.65,4.65,4.85,-10.43,-10.43,-10.43
291,-15.08,-4.65,-15.07,-4.64,4.64,4.72,-10.44,-10.43,-10.43
294,-15.08,-4.65,-15.06,-4.63,4.63,4.58,-10.45,-10.43,-10.43
297,-15.08,-4.65,-15.04,-4.62,4.62,4.45,-10.46,-10.43,-10.43
300,-15.08,-4.65,-15.02,-4.60,4.60,4.32,-10.48,-10.43,-10.43
303,-15.08,-4.65,-15.00,-4.57,4.57,4.18,-10.51,-10.43,-10.43
306,-15.08,-4.65,-14.97,-4.54,4.54,4.05,-10.53,-10.43,-10.43
309,-14.98,-4.55,-14.94,-4.51,4.51,3.92,-10.46,-10.43,-10.43
312,-14.87,-4.44,-14.91,-4.48,4.48,3.79,-10.39,-10.43,-10.43
316,-14.75,-4.32,-14.88,-4.45,4.45,3.62,-10.30,-10.43,-10.43
319,-14.75,-4.32,-14.84,-4.42,4.42,3.50,-10.33,-10.43,-10.43
322,-14.75,-4.32,-14.81,-4.39,4.39,3.38,-10.36,-10.43,-10.43
325,-14.75,-4.32,-14.79,-4.36,4.36,3.26,-10.39,-10.43,-10.43
328,-14.75,-4.32,-14.76,-4.33,4.33,3.14,-10.42,-10.43,-10.43
332,-14.75,-4.32,-14.73,-4.31,4.31,2.99,-10.44,-10.43,-10.43
335,-14.75,-4.32,-14.71,-4.28,4.28,2.88,-10.47,-10.43,-10.43
338,-14.75,-4.32,-14.68,-4.25,4.25,2.78,-10.49,-10.43,-10.43
342,-14.75,-4.32,-14.65,-4.23,4.23,2.64,-10.52,-10.43,-10.43
345,-14.70,-4.27,-14.62,-4.20,4.20,2.53,-10.50,-10.43,-10.43
349,-14.57,-4.14,-14.59,-4.16,4.16,2.40,-10.40,-10.43,-10.43
352,-14.48,-4.05,-14.56,-4.13,4.13,2.31,-10.35,-10.43,-10.43
356,-14.43,-4.00,-14.52,-4.09,4.09,2.18,-10.34,-10.43,-10.43
359,-14.43,-4.00,-14.47,-4.05,4.05,2.09,-10.38,-10.43,-10.43
363,-14.43,-4.00,-14.43,-4.00,4.00,1.98,-10.43,-10.43,-10.43
366,-14.43,-4.00,-14.38,-3.95,3.95,1.89,-10.48,-10.43,-10.43
370,-14.40,-3.97,-14.32,-3.90,3.90,1.78,-10.50,-10.43,-10.43
374,-14.28,-3.85,-14.27,-3.84,3.84,1.67,-10.44,-10.43,-10.43
377,-14.19,-3.76,-14.21,-3.78,3.78,1.59,-10.41,-10.43,-10.43
381,-14.10,-3.67,-14.14,-3.71,3.71,1.49,-10.39,-10.43,-10.43
385,-14.10,-3.67,-14.07,-3.64,3.64,1.39,-10.46,-10.43,-10.43
389,-14.00,-3.57,-13.99,-3.56,3.56,1.29,-10.43,-10.43,-10.43
393,-13.88,-3.45,-13.91,-3.48,3.48,1.20,-10.40,-10.43,-10.43
397,-13.78,-3.35,-13.82,-3.39,3.39,1.11,-10.38,-10.43,-10.43
401,-13.78,-3.35,-13.72,-3.30,3.30,1.02,-10.48,-10.43,-10.43
405,-13.63,-3.20,-13.62,-3.19,3.19,0.93,-10.44,-10.43,-10.43
409,-13.46,-3.03,-13.51,-3.08,3.08,0.84,-10.38,-10.43,-10.43
413,-13.46,-3.03,-13.39,-2.96,2.96,0.76,-10.50,-10.43,-10.43
417,-13.29,-2.86,-13.26,-2.83,2.83,0.67,-10.46,-10.43,-10.43
421,-13.11,-2.68,-13.12,-2.70,2.70,0.59,-10.41,-10.43,-10.43
425,-13.00,-2.57,-12.98,-2.55,2.55,0.51,-10.44,-10.43,-10.43
430,-12.87,-2.44,-12.83,-2.40,2.40,0.41,-10.46,-10.43,-10.43
434,-12.72,-2.29,-12.67,-2.25,2.25,0.33,-10.47,-10.43,-10.43
438,-12.51,-2.08,-12.51,-2.08,2.08,0.25,-10.42,-10.43,-10.43
443,-12.25,-1.82,-12.34,-1.91,1.91,0.16,-10.33,-10.43,-10.43
447,-12.10,-1.67,-12.17,-1.74,1.74,0.08,-10.36,-10.43,-10.43
451,-12.00,-1.57,-11.99,-1.56,1.56,0.00,-10.43,-10.43,-10.43
456,-11.76,-1.33,-11.81,-1.38,1.38,-0.10,-10.38,-10.43,-10.43
460,-11.62,-1.19,-11.62,-1.19,1.19,-0.17,-10.43,-10.43,-10.43
465,-11.48,-1.05,-11.42,-0.99,0.99,-0.27,-10.48,-10.43,-10.43
470,-11.24,-0.81,-11.22,-0.79,0.79,-0.37,-10.45,-10.43,-10.43
474,-11.05,-0.62,-11.01,-0.58,0.58,-0.45,-10.47,-10.43,-10.43
479,-10.81,-0.38,-10.79,-0.37,0.37,-0.55,-10.44,-10.43,-10.43
484,-10.58,-0.15,-10.57,-0.14,0.14,-0.64,-10.44,-10.43,-10.43
489,-10.35,0.08,-10.34,0.09,-0.09,-0.75,-10.44,-10.43,-10.43
494,-10.12,0.31,-10.10,0.33,-0.33,-0.85,-10.45,-10.43,-10.43
499,-9.89,0.54,-9.85,0.58,-0.58,-0.95,-10.46,-10.43,-10.43
504,-9.55,0.88,-9.60,0.83,-0.83,-1.05,-10.38,-10.43,-10.43
509,-9.28,1.15,-9.34,1.09,-1.09,-1.16,-10.36,-10.43,-10.43
514,-9.06,1.37,-9.08,1.35,-1.35,-1.26,-10.41,-10.43,-10.43
519,-8.84,1.59,-8.81,1.62,-1.62,-1.37,-10.46,-10.43,-10.43
524,-8.62,1.81,-8.54,1.89,-1.89,-1.48,-10.51,-10.43,-10.43
529,-8.39,2.04,-8.26,2.17,-2.17,-1.59,-10.55,-10.43,-10.43
535,-7.88,2.55,-7.99,2.44,-2.44,-1.72,-10.32,-10.43,-10.43
540,-7.62,2.81,-7.71,2.72,-2.72,-1.83,-10.34,-10.43,-10.43
545,-7.41,3.02,-7.43,3.00,-3.00,-1.95,-10.41,-10.43,-10.43
551,-7.16,3.27,-7.15,3.28,-3.28,-2.08,-10.43,-10.43,-10.43
556,-6.96,3.47,-6.87,3.55,-3.55,-2.20,-10.51,-10.43,-10.43
562,-6.67,3.76,-6.60,3.83,-3.83,-2.34,-10.50,-10.43,-10.43
568,-6.31,4.12,-6.33,4.10,-4.10,-2.48,-10.41,-10.43,-10.43
573,-6.02,4.41,-6.06,4.37,-4.37,-2.60,-10.39,-10.43,-10.43
579,-5.72,4.71,-5.79,4.64,-4.64,-2.74,-10.35,-10.43,-10.43
585,-5.49,4.94,-5.53,4.90,-4.90,-2.89,-10.38,-10.43,-10.43
591,-5.26,5.17,-5.27,5.15,-5.15,-3.03,-10.41,-10.43,-10.43
596,-5.07,5.36,-5.02,5.41,-5.41,-3.15,-10.47,-10.43,-10.43
602,-4.84,5.59,-4.77,5.65,-5.65,-3.30,-10.49,-10.43,-10.43
608,-4.62,5.81,-4.53,5.90,-5.90,-3.45,-10.51,-10.43,-10.43
615,-4.27,6.16,-4.30,6.13,-6.13,-3.63,-10.40,-10.43,-10.43
621,-3.98,6.45,-4.07,6.36,-6.36,-3.78,-10.34,-10.43,-10.43
627,-3.76,6.67,-3.84,6.59,-6.59,-3.93,-10.34,-10.43,-10.43
633,-3.64,6.79,-3.62,6.81,-6.81,-4.08,-10.44,-10.43,-10.43
639,-3.49,6.94,-3.41,7.02,-7.02,-4.24,-10.50,-10.43,-10.43
646,-3.25,7.18,-3.21,7.22,-7.22,-4.42,-10.47,-10.43,-10.43
652,-3.04,7.39,-3.01,7.42,-7.42,-4.58,-10.46,-10.43,-10.43
659,-2.80,7.63,-2.82,7.61,-7.61,-4.76,-10.41,-10.43,-10.43
665,-2.59,7.84,-2.64,7.79,-7.79,-4.92,-10.38,-10.43,-10.43
672,-2.47,7.96,-2.46,7.96,-7.96,-5.11,-10.43,-10.43,-10.43
679,-2.28,8.15,-2.30,8.13,-8.13,-5.30,-10.41,-10.43,-10.43
686,-2.08,8.35,-2.14,8.29,-8.29,-5.49,-10.37,-10.43,-10.43
692,-1.98,8.45,-1.99,8.44,-8.44,-5.66,-10.42,-10.43,-10.43
699,-1.87,8.56,-1.85,8.58,-8.58,-5.85,-10.45,-10.43,-10.43
706,-1.75,8.68,-1.71,8.72,-8.72,-6.05,-10.46,-10.43,-10.43
713,-1.64,8.79,-1.58,8.84,-8.84,-6.25,-10.48,-10.43,-10.43
721,-1.52,8.91,-1.46,8.96,-8.96,-6.48,-10.48,-10.43,-10.43
728,-1.36,9.07,-1.35,9.08,-9.08,-6.69,-10.43,-10.43,-10.43
735,-1.14,9.29,-1.24,9.18,-9.18,-6.89,-10.32,-10.43,-10.43
742,-1.13,9.30,-1.15,9.28,-9.28,-7.10,-10.41,-10.43,-10.43
750,-1.07,9.36,-1.05,9.37,-9.37,-7.34,-10.44,-10.43,-10.43
757,-0.97,9.46,-0.97,9.46,-9.46,-7.55,-10.42,-10.43,-10.43
765,-0.85,9.58,-0.89,9.53,-9.53,-7.80,-10.38,-10.43,-10.43
773,-0.81,9.62,-0.82,9.61,-9.61,-8.04,-10.41,-10.43,-10.43
780,-0.81,9.62,-0.76,9.67,-9.67,-8.26,-10.48,-10.43,-10.43
788,-0.81,9.62,-0.70,9.73,-9.73,-8.52,-10.54,-10.43,-10.43
796,-0.64,9.79,-0.64,9.79,-9.79,-8.77,-10.42,-10.43,-10.43
804,-0.48,9.95,-0.59,9.84,-9.84,-9.03,-10.32,-10.43,-10.43
812,-0.48,9.95,-0.54,9.89,-9.89,-9.29,-10.36,-10.43,-10.43
820,-0.48,9.95,-0.50,9.93,-9.93,-9.55,-10.41,-10.43,-10.43
828,-0.48,9.95,-0.45,9.98,-9.98,-9.81,-10.45,-10.43,-10.43
837,-0.48,9.95,-0.41,10.02,-10.02,-10.10,-10.50,-10.43,-10.43
845,-0.48,9.95,-0.37,10.06,-10.06,-10.36,-10.53,-10.43,-10.43
853,-0.43,10.00,-0.33,10.10,-10.10,-10.62,-10.52,-10.43,-10.43
862,-0.31,10.12,-0.30,10.13,-10.13,-10.91,-10.44,-10.43,-10.43
871,-0.19,10.24,-0.27,10.16,-10.16,-11.20,-10.35,-10.43,-10.43
879,-0.16,10.27,-0.24,10.19,-10.19,-11.45,-10.34,-10.43,-10.43
888,-0.16,10.27,-0.22,10.21,-10.21,-11.73,-10.37,-10.43,-10.43
897,-0.16,10.27,-0.20,10.23,-10.23,-11.99,-10.39,-10.43,-10.43
906,-0.16,10.27,-0.18,10.25,-10.25,-12.25,-10.40,-10.43,-10.43
915,-0.16,10.27,-0.17,10.26,-10.26,-12.50,-10.42,-10.43,-10.43
924,-0.16,10.27,-0.16,10.27,-10.27,-12.73,-10.43,-10.43,-10.43
933,-0.16,10.27,-0.15,10.28,-10.28,-12.94,-10.44,-10.43,-10.43
943,-0.16,10.27,-0.14,10.29,-10.29,-13.15,-10.45,-10.43,-10.43
952,-0.16,10.27,-0.12,10.31,-10.31,-13.32,-10.46,-10.43,-10.43
962,-0.16,10.27,-0.10,10.32,-10.32,-13.48,-10.48,-10.43,-10.43
971,-0.16,10.27,-0.09,10.34,-10.34,-13.60,-10.50,-10.43,-10.43
981,-0.15,10.28,-0.06,10.37,-10.37,-13.70,-10.51,-10.43,-10.43
991,-0.03,10.40,-0.04,10.39,-10.39,-13.76,-10.42,-10.43,-10.43
1001,0.00,10.43,-0.01,10.42,-10.42,-13.78,-10.42,-10.43,-10.43
1011,0.03,10.46,0.02,10.45,-10.45,-13.78,-10.42,-10.43,-10.43
1021,0.14,10.57,0.05,10.48,-10.48,-13.74,-10.34,-10.43,-10.43
1031,0.17,10.60,0.09,10.51,-10.51,-13.67,-10.34,-10.43,-10.43
1041,0.17,10.60,0.12,10.55,-10.55,-13.57,-10.37,-10.43,-10.43
1052,0.17,10.60,0.15,10.58,-10.58,-13.43,-10.41,-10.43,-10.43
1062,0.17,10.60,0.18,10.61,-10.61,-13.28,-10.44,-10.43,-10.43
1073,0.17,10.60,0.22,10.64,-10.64,-13.10,-10.47,-10.43,-10.43
1084,0.17,10.60,0.25,10.68,-10.68,-12.90,-10.50,-10.43,-10.43
1094,0.17,10.60,0.28,10.71,-10.71,-12.71,-10.54,-10.43,-10.43
1105,0.22,10.65,0.32,10.74,-10.74,-12.48,-10.52,-10.43,-10.43
1116,0.34,10.77,0.35,10.78,-10.78,-12.25,-10.43,-10.43,-10.43
1128,0.46,10.89,0.38,10.81,-10.81,-12.00,-10.34,-10.43,-10.43
