frequency,raw,smoothed,error,error_smoothed,equalization,parametric_eq,fixed_band_eq,equalized_raw,equalized_smoothed,target
20.00,0.91,0.91,-1.86,-1.85,1.84,1.88,0.75,2.75,2.75,2.77
20.20,0.91,0.91,-1.89,-1.89,1.88,1.87,0.77,2.79,2.79,2.80
20.40,0.91,0.91,-1.91,-1.91,1.92,1.87,0.80,2.83,2.83,2.83
20.61,0.91,0.91,-1.93,-1.94,1.95,1.86,0.82,2.87,2.87,2.85
20.81,0.91,0.91,-1.96,-1.97,1.98,1.85,0.85,2.89,2.89,2.88
21.02,0.91,0.91,-1.99,-1.99,2.00,1.84,0.88,2.91,2.91,2.91
21.23,0.91,0.91,-2.00,-2.00,2.00,1.83,0.90,2.92,2.92,2.91
21.44,0.92,0.92,-2.00,-2.01,2.01,1.83,0.93,2.93,2.92,2.92
21.66,0.92,0.92,-2.01,-2.01,2.00,1.82,0.96,2.92,2.92,2.93
21.87,0.93,0.94,-2.00,-2.00,1.98,1.81,0.99,2.92,2.92,2.93
22.09,0.95,0.96,-1.99,-1.98,1.96,1.80,1.02,2.91,2.92,2.94
22.31,1.00,1.00,-1.94,-1.95,1.93,1.79,1.05,2.93,2.92,2.94
22.54,1.04,1.05,-1.90,-1.89,1.89,1.78,1.08,2.94,2.94,2.94
22.76,1.09,1.10,-1.85,-1.84,1.86,1.77,1.12,2.96,2.96,2.94
22.99,1.14,1.13,-1.79,-1.81,1.83,1.76,1.15,2.98,2.96,2.93
23.22,1.14,1.14,-1.79,-1.78,1.81,1.75,1.18,2.95,2.95,2.93
23.45,1.14,1.15,-1.79,-1.78,1.79,1.74,1.22,2.94,2.94,2.93
23.69,1.14,1.14,-1.79,-1.79,1.78,1.73,1.26,2.93,2.93,2.93
23.92,1.14,1.14,-1.78,-1.79,1.78,1.72,1.29,2.92,2.92,2.93
24.16,1.14,1.14,-1.79,-1.79,1.78,1.71,1.33,2.93,2.93,2.94
24.40,1.14,1.14,-1.79,-1.79,1.78,1.70,1.37,2.93,2.93,2.94
24.65,1.14,1.14,-1.78,-1.79,1.78,1.69,1.41,2.92,2.92,2.92
24.89,1.14,1.15,-1.78,-1.78,1.77,1.68,1.44,2.92,2.92,2.92
25.14,1.15,1.16,-1.77,-1.76,1.76,1.67,1.48,2.91,2.92,2.92
25.39,1.18,1.18,-1.74,-1.74,1.74,1.66,1.52,2.92,2.91,2.92
25.65,1.20,1.20,-1.72,-1.72,1.71,1.65,1.56,2.91,2.91,2.92
25.91,1.22,1.23,-1.69,-1.69,1.68,1.64,1.60,2.90,2.91,2.91
26.16,1.25,1.26,-1.66,-1.65,1.65,1.63,1.64,2.90,2.90,2.91
26.43,1.29,1.29,-1.62,-1.61,1.62,1.61,1.67,2.91,2.91,2.91
26.69,1.33,1.33,-1.57,-1.58,1.59,1.60,1.71,2.92,2.92,2.91
26.96,1.36,1.36,-1.54,-1.55,1.56,1.59,1.75,2.92,2.92,2.90
27.23,1.37,1.37,-1.53,-1.53,1.54,1.58,1.78,2.91,2.91,2.90
27.50,1.37,1.37,-1.53,-1.53,1.52,1.56,1.81,2.89,2.89,2.90
27.77,1.37,1.37,-1.52,-1.52,1.51,1.55,1.85,2.88,2.88,2.89
28.05,1.37,1.37,-1.52,-1.51,1.50,1.54,1.88,2.87,2.87,2.89
28.33,1.37,1.38,-1.51,-1.50,1.50,1.53,1.90,2.87,2.88,2.88
28.62,1.37,1.38,-1.50,-1.50,1.51,1.51,1.93,2.89,2.89,2.88
28.90,1.37,1.36,-1.50,-1.51,1.53,1.50,1.95,2.91,2.90,2.87
29.19,1.33,1.33,-1.53,-1.54,1.56,1.48,1.97,2.90,2.89,2.86
29.48,1.27,1.28,-1.60,-1.59,1.60,1.47,1.99,2.87,2.88,2.87
29.78,1.21,1.21,-1.65,-1.65,1.65,1.46,2.01,2.86,2.86,2.86
30.08,1.15,1.15,-1.70,-1.70,1.70,1.44,2.02,2.85,2.85,2.86
30.38,1.09,1.09,-1.75,-1.75,1.75,1.43,2.02,2.85,2.85,2.85
30.68,1.04,1.04,-1.80,-1.80,1.80,1.41,2.03,2.85,2.84,2.84
30.99,0.98,0.99,-1.85,-1.84,1.85,1.40,2.03,2.83,2.84,2.83
31.30,0.96,0.96,-1.87,-1.87,1.87,1.38,2.03,2.84,2.83,2.83
31.61,0.94,0.93,-1.88,-1.89,1.88,1.37,2.02,2.82,2.81,2.83
31.93,0.92,0.94,-1.89,-1.88,1.86,1.35,2.01,2.78,2.80,2.81
32.24,0.96,0.96,-1.84,-1.84,1.81,1.33,2.00,2.77,2.77,2.80
32.57,1.03,1.02,-1.77,-1.78,1.73,1.32,1.98,2.76,2.75,2.80
32.89,1.10,1.12,-1.69,-1.68,1.64,1.30,1.96,2.74,2.75,2.80
33.22,1.23,1.25,-1.55,-1.54,1.52,1.28,1.94,2.76,2.77,2.78
33.55,1.39,1.39,-1.39,-1.39,1.41,1.27,1.91,2.80,2.80,2.78
33.89,1.55,1.53,-1.22,-1.24,1.29,1.25,1.88,2.84,2.82,2.77
34.23,1.64,1.64,-1.12,-1.13,1.18,1.23,1.85,2.82,2.81,2.77
34.57,1.69,1.71,-1.06,-1.05,1.08,1.21,1.81,2.77,2.79,2.75
34.92,1.75,1.75,-0.99,-1.00,1.00,1.20,1.78,2.76,2.75,2.74
35.27,1.78,1.78,-0.95,-0.95,0.95,1.18,1.74,2.73,2.73,2.74
35.62,1.80,1.81,-0.92,-0.91,0.91,1.16,1.70,2.71,2.72,2.72
35.97,1.83,1.82,-0.88,-0.89,0.88,1.14,1.66,2.72,2.71,2.71
36.33,1.83,1.83,-0.87,-0.87,0.87,1.12,1.61,2.70,2.70,2.71
36.70,1.83,1.84,-0.86,-0.86,0.85,1.10,1.57,2.69,2.69,2.69
37.06,1.83,1.83,-0.84,-0.85,0.84,1.08,1.52,2.68,2.68,2.68
37.43,1.83,1.83,-0.84,-0.84,0.83,1.06,1.47,2.66,2.66,2.67
37.81,1.83,1.83,-0.83,-0.83,0.82,1.04,1.43,2.65,2.65,2.66
38.19,1.83,1.83,-0.81,-0.82,0.81,1.02,1.38,2.64,2.64,2.64
38.57,1.83,1.83,-0.81,-0.80,0.80,1.00,1.33,2.63,2.63,2.64
38.95,1.83,1.83,-0.79,-0.79,0.79,0.98,1.28,2.62,2.62,2.62
39.34,1.83,1.83,-0.78,-0.78,0.78,0.96,1.24,2.61,2.61,2.61
39.74,1.83,1.83,-0.76,-0.76,0.77,0.93,1.19,2.60,2.60,2.59
40.14,1.83,1.83,-0.76,-0.75,0.76,0.91,1.14,2.59,2.59,2.59
40.54,1.83,1.83,-0.74,-0.74,0.75,0.89,1.09,2.59,2.59,2.57
40.94,1.83,1.83,-0.74,-0.73,0.75,0.87,1.05,2.58,2.58,2.57
41.35,1.83,1.83,-0.72,-0.72,0.74,0.84,1.00,2.57,2.57,2.55
41.76,1.83,1.83,-0.71,-0.71,0.72,0.82,0.95,2.55,2.55,2.55
42.18,1.83,1.82,-0.71,-0.71,0.68,0.80,0.91,2.52,2.51,2.54
42.60,1.83,1.83,-0.69,-0.70,0.64,0.77,0.86,2.48,2.48,2.52
43.03,1.84,1.87,-0.67,-0.64,0.60,0.75,0.82,2.44,2.47,2.52
43.46,1.93,1.94,-0.57,-0.56,0.55,0.72,0.77,2.48,2.49,2.50
43.90,2.03,2.00,-0.44,-0.47,0.50,0.70,0.73,2.53,2.50,2.47
44.33,2.05,2.05,-0.40,-0.40,0.45,0.67,0.69,2.51,2.50,2.45
44.78,2.05,2.06,-0.38,-0.37,0.41,0.65,0.65,2.46,2.47,2.43
45.23,2.05,2.05,-0.36,-0.36,0.37,0.62,0.60,2.42,2.42,2.42
45.68,2.05,2.05,-0.35,-0.35,0.34,0.60,0.56,2.39,2.39,2.40
46.13,2.05,2.05,-0.33,-0.33,0.32,0.57,0.52,2.37,2.37,2.38
46.60,2.05,2.05,-0.32,-0.31,0.31,0.54,0.48,2.36,2.36,2.37
47.06,2.05,2.05,-0.30,-0.30,0.29,0.52,0.44,2.35,2.35,2.35
47.53,2.05,2.05,-0.28,-0.28,0.28,0.49,0.41,2.33,2.33,2.33
48.01,2.05,2.05,-0.27,-0.26,0.27,0.46,0.37,2.32,2.32,2.32
48.49,2.05,2.05,-0.24,-0.24,0.24,0.43,0.33,2.29,2.29,2.29
48.97,2.05,2.05,-0.21,-0.21,0.20,0.41,0.29,2.25,2.25,2.26
49.46,2.05,2.05,-0.17,-0.18,0.16,0.38,0.26,2.21,2.21,2.23
49.96,2.05,2.05,-0.14,-0.15,0.11,0.35,0.22,2.16,2.16,2.19
50.46,2.07,2.07,-0.11,-0.11,0.07,0.32,0.18,2.14,2.14,2.18
50.96,2.10,2.14,-0.06,-0.02,0.03,0.29,0.15,2.13,2.17,2.16
51.47,2.19,2.20,0.07,0.07,-0.00,0.26,0.11,2.19,2.20,2.13
51.99,2.28,2.21,0.18,0.10,-0.02,0.23,0.08,2.26,2.18,2.10
52.51,2.16,2.17,0.07,0.09,-0.04,0.20,0.05,2.12,2.13,2.09
53.03,2.05,2.10,-0.01,0.04,-0.06,0.17,0.01,2.00,2.05,2.06
53.56,2.05,2.05,0.01,0.01,-0.07,0.14,-0.02,1.99,1.98,2.04
54.10,2.05,2.04,0.04,0.03,-0.08,0.10,-0.05,1.98,1.97,2.01
54.64,2.05,2.05,0.06,0.06,-0.08,0.07,-0.09,1.97,1.97,1.99
55.18,2.05,2.05,0.09,0.09,-0.10,0.04,-0.12,1.96,1.96,1.96
55.74,2.05,2.05,0.12,0.11,-0.12,0.01,-0.15,1.94,1.94,1.94
56.29,2.05,2.05,0.13,0.14,-0.14,-0.03,-0.18,1.92,1.92,1.92
56.86,2.05,2.06,0.16,0.18,-0.15,-0.06,-0.21,1.90,1.91,1.89
57.42,2.05,2.05,0.19,0.19,-0.16,-0.09,-0.25,1.89,1.90,1.86
58.00,2.05,2.00,0.21,0.16,-0.15,-0.13,-0.28,1.91,1.86,1.84
58.58,1.92,1.94,0.10,0.12,-0.12,-0.16,-0.31,1.81,1.83,1.82
59.16,1.83,1.88,0.03,0.08,-0.08,-0.20,-0.34,1.76,1.80,1.80
59.76,1.83,1.80,0.05,0.03,-0.02,-0.23,-0.37,1.81,1.78,1.78
60.35,1.75,1.73,0.00,-0.02,0.04,-0.27,-0.40,1.79,1.77,1.75
60.96,1.61,1.61,-0.11,-0.11,0.11,-0.31,-0.42,1.72,1.72,1.73
61.57,1.47,1.49,-0.21,-0.19,0.18,-0.34,-0.45,1.65,1.67,1.68
62.18,1.37,1.41,-0.28,-0.25,0.24,-0.38,-0.48,1.61,1.65,1.65
62.80,1.37,1.32,-0.25,-0.30,0.30,-0.42,-0.51,1.67,1.62,1.62
63.43,1.27,1.25,-0.32,-0.34,0.34,-0.45,-0.54,1.62,1.60,1.59
64.07,1.14,1.19,-0.42,-0.37,0.37,-0.49,-0.57,1.52,1.56,1.56
64.71,1.14,1.14,-0.39,-0.40,0.38,-0.53,-0.60,1.52,1.52,1.54
65.35,1.14,1.12,-0.37,-0.39,0.36,-0.57,-0.63,1.50,1.48,1.51
66.01,1.14,1.13,-0.34,-0.35,0.32,-0.61,-0.65,1.46,1.45,1.48
66.67,1.14,1.17,-0.31,-0.28,0.26,-0.64,-0.68,1.40,1.43,1.45
67.33,1.22,1.24,-0.20,-0.18,0.18,-0.68,-0.71,1.40,1.42,1.42
68.01,1.37,1.32,-0.02,-0.07,0.09,-0.72,-0.74,1.46,1.41,1.39
68.69,1.39,1.42,0.03,0.06,-0.02,-0.76,-0.77,1.37,1.40,1.36
69.37,1.48,1.50,0.15,0.17,-0.14,-0.80,-0.80,1.34,1.35,1.33
70.07,1.60,1.55,0.31,0.25,-0.27,-0.85,-0.83,1.33,1.28,1.30
70.77,1.60,1.63,0.33,0.37,-0.40,-0.89,-0.86,1.20,1.23,1.27
71.48,1.71,1.75,0.47,0.51,-0.53,-0.93,-0.89,1.18,1.22,1.24
72.19,1.87,1.86,0.67,0.66,-0.66,-0.97,-0.92,1.22,1.21,1.20
72.91,2.03,1.98,0.87,0.81,-0.78,-1.01,-0.95,1.25,1.20,1.17
73.64,2.05,2.08,0.92,0.94,-0.92,-1.05,-0.98,1.14,1.16,1.13
74.38,2.11,2.14,1.01,1.04,-1.04,-1.10,-1.02,1.07,1.09,1.10
75.12,2.23,2.20,1.17,1.14,-1.16,-1.14,-1.05,1.07,1.04,1.06
75.87,2.27,2.30,1.24,1.27,-1.27,-1.18,-1.08,1.00,1.03,1.03
76.63,2.39,2.39,1.39,1.39,-1.37,-1.22,-1.12,1.03,1.03,1.00
77.40,2.48,2.46,1.51,1.49,-1.46,-1.27,-1.16,1.03,1.00,0.97
78.17,2.51,2.50,1.58,1.56,-1.54,-1.31,-1.19,0.97,0.96,0.93
78.95,2.51,2.51,1.60,1.61,-1.63,-1.36,-1.23,0.88,0.88,0.91
79.74,2.51,2.54,1.64,1.67,-1.71,-1.40,-1.27,0.80,0.83,0.88
80.54,2.59,2.60,1.75,1.76,-1.79,-1.44,-1.31,0.80,0.81,0.84
81.35,2.68,2.67,1.88,1.86,-1.86,-1.49,-1.35,0.83,0.81,0.81
82.16,2.74,2.73,1.97,1.95,-1.92,-1.53,-1.39,0.82,0.81,0.77
82.98,2.74,2.75,2.00,2.01,-1.98,-1.58,-1.44,0.76,0.77,0.74
83.81,2.74,2.75,2.05,2.05,-2.03,-1.62,-1.48,0.71,0.72,0.70
84.65,2.74,2.74,2.08,2.08,-2.08,-1.67,-1.53,0.66,0.66,0.66
85.50,2.74,2.74,2.11,2.12,-2.12,-1.71,-1.58,0.63,0.63,0.63
86.35,2.74,2.74,2.15,2.15,-2.15,-1.76,-1.62,0.59,0.59,0.59
87.22,2.74,2.74,2.19,2.19,-2.19,-1.80,-1.68,0.56,0.56,0.55
88.09,2.74,2.74,2.23,2.22,-2.23,-1.85,-1.73,0.51,0.51,0.51
88.97,2.74,2.73,2.26,2.26,-2.29,-1.89,-1.78,0.45,0.44,0.48
89.86,2.74,2.75,2.30,2.31,-2.37,-1.94,-1.83,0.38,0.38,0.44
90.76,2.76,2.80,2.38,2.41,-2.45,-1.99,-1.89,0.32,0.36,0.39
91.66,2.89,2.87,2.54,2.52,-2.52,-2.03,-1.95,0.37,0.35,0.35
92.58,2.96,2.93,2.66,2.63,-2.59,-2.08,-2.00,0.37,0.34,0.30
93.51,2.96,2.97,2.70,2.71,-2.65,-2.12,-2.06,0.31,0.32,0.27
94.44,2.96,2.98,2.74,2.76,-2.70,-2.17,-2.12,0.26,0.28,0.22
95.39,2.96,2.95,2.78,2.78,-2.74,-2.21,-2.19,0.22,0.22,0.18
96.34,2.93,2.90,2.81,2.77,-2.76,-2.25,-2.25,0.17,0.14,0.12
97.30,2.82,2.83,2.74,2.75,-2.77,-2.30,-2.31,0.05,0.06,0.08
98.28,2.74,2.77,2.71,2.74,-2.78,-2.34,-2.38,-0.04,-0.01,0.03
99.26,2.74,2.74,2.75,2.75,-2.80,-2.39,-2.44,-0.05,-0.06,-0.01
100.25,2.74,2.73,2.80,2.79,-2.81,-2.43,-2.51,-0.07,-0.08,-0.06
101.25,2.74,2.74,2.85,2.85,-2.84,-2.47,-2.58,-0.10,-0.10,-0.10
102.27,2.74,2.74,2.89,2.90,-2.88,-2.52,-2.65,-0.14,-0.14,-0.15
103.29,2.74,2.74,2.95,2.94,-2.93,-2.56,-2.71,-0.19,-0.19,-0.21
104.32,2.74,2.74,2.98,2.99,-2.98,-2.60,-2.78,-0.24,-0.24,-0.24
105.37,2.74,2.74,3.03,3.03,-3.03,-2.64,-2.85,-0.29,-0.29,-0.29
106.42,2.74,2.74,3.08,3.08,-3.08,-2.68,-2.91,-0.34,-0.34,-0.34
107.48,2.74,2.74,3.12,3.13,-3.13,-2.73,-2.98,-0.39,-0.39,-0.38
108.56,2.74,2.74,3.18,3.18,-3.19,-2.77,-3.04,-0.44,-0.44,-0.44
109.64,2.74,2.74,3.23,3.22,-3.24,-2.81,-3.11,-0.50,-0.50,-0.48
110.74,2.74,2.74,3.27,3.27,-3.28,-2.84,-3.17,-0.54,-0.54,-0.53
111.85,2.74,2.75,3.32,3.33,-3.32,-2.88,-3.23,-0.58,-0.58,-0.58
112.97,2.74,2.75,3.38,3.39,-3.35,-2.92,-3.28,-0.61,-0.60,-0.64
114.10,2.74,2.73,3.43,3.42,-3.38,-2.96,-3.34,-0.64,-0.65,-0.69
115.24,2.71,2.68,3.45,3.42,-3.41,-3.00,-3.39,-0.69,-0.73,-0.74
116.39,2.58,2.60,3.38,3.40,-3.43,-3.03,-3.44,-0.84,-0.82,-0.80
117.55,2.51,2.54,3.36,3.39,-3.44,-3.07,-3.48,-0.92,-0.90,-0.85
118.73,2.51,2.52,3.42,3.42,-3.44,-3.10,-3.52,-0.93,-0.92,-0.90
119.92,2.51,2.50,3.46,3.45,-3.44,-3.13,-3.56,-0.93,-0.93,-0.95
121.12,2.50,2.46,3.50,3.45,-3.43,-3.17,-3.59,-0.93,-0.97,-1.00
122.33,2.36,2.40,3.41,3.44,-3.42,-3.20,-3.62,-1.05,-1.02,-1.05
123.55,2.28,2.31,3.38,3.41,-3.40,-3.23,-3.65,-1.12,-1.09,-1.09
124.79,2.28,2.23,3.43,3.37,-3.38,-3.26,-3.66,-1.10,-1.15,-1.14
126.03,2.13,2.17,3.33,3.36,-3.36,-3.29,-3.68,-1.23,-1.20,-1.20
127.29,2.08,2.07,3.33,3.32,-3.34,-3.32,-3.69,-1.26,-1.27,-1.25
128.57,2.00,1.97,3.31,3.27,-3.32,-3.35,-3.69,-1.32,-1.35,-1.30
129.85,1.85,1.91,3.21,3.26,-3.29,-3.37,-3.69,-1.43,-1.38,-1.35
131.15,1.83,1.84,3.23,3.24,-3.24,-3.40,-3.69,-1.41,-1.40,-1.40
132.46,1.83,1.79,3.28,3.23,-3.19,-3.42,-3.68,-1.36,-1.40,-1.45
133.79,1.69,1.71,3.18,3.20,-3.12,-3.45,-3.67,-1.42,-1.41,-1.49
135.12,1.58,1.56,3.12,3.09,-3.03,-3.47,-3.66,-1.45,-1.47,-1.54
136.48,1.37,1.37,2.95,2.94,-2.94,-3.49,-3.64,-1.56,-1.57,-1.58
137.84,1.16,1.19,2.78,2.82,-2.84,-3.51,-3.62,-1.68,-1.65,-1.62
139.22,1.02,1.03,2.70,2.70,-2.74,-3.53,-3.60,-1.72,-1.71,-1.67
140.61,0.93,0.90,2.65,2.61,-2.65,-3.55,-3.57,-1.72,-1.74,-1.72
142.02,0.80,0.81,2.54,2.56,-2.57,-3.57,-3.54,-1.77,-1.76,-1.74
143.44,0.72,0.74,2.50,2.52,-2.52,-3.58,-3.52,-1.80,-1.79,-1.78
144.87,0.69,0.69,2.51,2.51,-2.52,-3.60,-3.49,-1.82,-1.82,-1.82
146.32,0.69,0.68,2.55,2.53,-2.55,-3.61,-3.46,-1.86,-1.87,-1.86
147.78,0.69,0.68,2.58,2.58,-2.62,-3.62,-3.43,-1.92,-1.93,-1.89
149.26,0.69,0.71,2.62,2.65,-2.71,-3.63,-3.40,-2.02,-2.00,-1.93
150.75,0.79,0.80,2.77,2.77,-2.82,-3.65,-3.37,-2.03,-2.03,-1.97
152.26,0.90,0.92,2.91,2.93,-2.94,-3.65,-3.34,-2.04,-2.02,-2.01
153.78,1.07,1.04,3.12,3.09,-3.05,-3.66,-3.31,-1.98,-2.01,-2.05
155.32,1.13,1.12,3.22,3.21,-3.13,-3.67,-3.28,-2.00,-2.01,-2.09
156.88,1.14,1.16,3.27,3.29,-3.19,-3.68,-3.25,-2.04,-2.02,-2.12
158.44,1.14,1.14,3.31,3.30,-3.21,-3.68,-3.23,-2.07,-2.07,-2.17
160.03,1.08,1.06,3.29,3.27,-3.20,-3.68,-3.21,-2.12,-2.15,-2.21
161.63,0.94,0.93,3.19,3.18,-3.18,-3.69,-3.18,-2.24,-2.25,-2.25
163.24,0.77,0.80,3.06,3.09,-3.16,-3.69,-3.16,-2.38,-2.35,-2.29
164.88,0.69,0.71,3.01,3.03,-3.14,-3.69,-3.15,-2.45,-2.43,-2.32
166.53,0.69,0.67,3.05,3.03,-3.14,-3.69,-3.13,-2.45,-2.47,-2.36
168.19,0.69,0.71,3.09,3.10,-3.16,-3.68,-3.12,-2.47,-2.46,-2.40
169.87,0.74,0.77,3.18,3.21,-3.21,-3.68,-3.11,-2.46,-2.43,-2.44
171.57,0.88,0.84,3.36,3.32,-3.27,-3.68,-3.10,-2.39,-2.43,-2.47
173.29,0.91,0.90,3.42,3.41,-3.35,-3.67,-3.09,-2.43,-2.45,-2.51
175.02,0.91,0.92,3.46,3.47,-3.43,-3.66,-3.09,-2.52,-2.50,-2.55
176.77,0.91,0.92,3.50,3.51,-3.50,-3.65,-3.09,-2.59,-2.59,-2.59
178.54,0.91,0.91,3.55,3.54,-3.56,-3.65,-3.09,-2.65,-2.65,-2.63
180.32,0.91,0.91,3.58,3.58,-3.60,-3.64,-3.09,-2.69,-2.69,-2.67
182.13,0.91,0.91,3.61,3.62,-3.62,-3.62,-3.10,-2.71,-2.71,-2.70
183.95,0.91,0.93,3.65,3.67,-3.63,-3.61,-3.10,-2.72,-2.70,-2.74
185.79,0.91,0.91,3.69,3.69,-3.64,-3.60,-3.12,-2.73,-2.73,-2.77
187.65,0.91,0.85,3.73,3.66,-3.65,-3.58,-3.13,-2.73,-2.79,-2.81
189.52,0.74,0.78,3.59,3.63,-3.65,-3.56,-3.14,-2.91,-2.87,-2.84
191.42,0.69,0.72,3.57,3.59,-3.65,-3.55,-3.16,-2.95,-2.93,-2.87
193.33,0.69,0.68,3.59,3.58,-3.63,-3.53,-3.18,-2.94,-2.95,-2.90
195.27,0.69,0.70,3.62,3.63,-3.61,-3.51,-3.20,-2.92,-2.92,-2.93
197.22,0.69,0.69,3.65,3.65,-3.60,-3.49,-3.22,-2.90,-2.90,-2.96
199.19,0.68,0.64,3.68,3.63,-3.58,-3.47,-3.25,-2.90,-2.94,-3.00
201.18,0.55,0.57,3.56,3.58,-3.56,-3.44,-3.27,-3.01,-3.00,-3.01
203.19,0.46,0.50,3.49,3.53,-3.55,-3.42,-3.30,-3.09,-3.05,-3.03
205.23,0.46,0.45,3.52,3.50,-3.54,-3.39,-3.33,-3.08,-3.09,-3.05
207.28,0.46,0.45,3.52,3.52,-3.54,-3.37,-3.35,-3.08,-3.08,-3.06
209.35,0.46,0.46,3.55,3.55,-3.55,-3.34,-3.38,-3.09,-3.09,-3.08
211.44,0.46,0.44,3.57,3.54,-3.58,-3.31,-3.41,-3.12,-3.14,-3.11
213.56,0.46,0.47,3.57,3.58,-3.62,-3.28,-3.44,-3.16,-3.15,-3.11
215.69,0.46,0.53,3.58,3.65,-3.67,-3.25,-3.47,-3.21,-3.14,-3.11
217.85,0.67,0.61,3.80,3.74,-3.73,-3.22,-3.49,-3.05,-3.12,-3.13
220.03,0.69,0.68,3.83,3.81,-3.78,-3.19,-3.52,-3.08,-3.10,-3.14
222.23,0.69,0.71,3.84,3.86,-3.81,-3.15,-3.54,-3.12,-3.10,-3.15
224.45,0.69,0.69,3.84,3.84,-3.84,-3.12,-3.56,-3.15,-3.14,-3.14
226.70,0.69,0.70,3.84,3.84,-3.85,-3.08,-3.58,-3.15,-3.15,-3.14
228.96,0.69,0.71,3.84,3.85,-3.83,-3.05,-3.59,-3.14,-3.12,-3.14
231.25,0.69,0.67,3.83,3.81,-3.79,-3.01,-3.61,-3.10,-3.12,-3.14
233.57,0.65,0.61,3.79,3.74,-3.73,-2.97,-3.61,-3.08,-3.13,-3.14
235.90,0.47,0.55,3.61,3.68,-3.67,-2.93,-3.62,-3.19,-3.12,-3.14
238.26,0.46,0.47,3.60,3.60,-3.59,-2.89,-3.62,-3.13,-3.13,-3.13
240.64,0.46,0.39,3.59,3.51,-3.53,-2.85,-3.61,-3.06,-3.14,-3.12
243.05,0.30,0.33,3.41,3.44,-3.46,-2.80,-3.61,-3.16,-3.13,-3.11
245.48,0.23,0.26,3.33,3.37,-3.40,-2.76,-3.59,-3.17,-3.14,-3.10
247.93,0.23,0.22,3.32,3.31,-3.35,-2.71,-3.57,-3.12,-3.13,-3.09
250.41,0.23,0.23,3.32,3.31,-3.31,-2.67,-3.54,-3.08,-3.09,-3.09
252.92,0.23,0.23,3.30,3.30,-3.28,-2.62,-3.51,-3.05,-3.05,-3.06
255.45,0.23,0.23,3.27,3.28,-3.27,-2.57,-3.48,-3.04,-3.04,-3.04
258.00,0.23,0.23,3.26,3.26,-3.26,-2.53,-3.44,-3.03,-3.03,-3.03
260.58,0.23,0.23,3.25,3.24,-3.25,-2.48,-3.39,-3.02,-3.02,-3.02
263.19,0.23,0.23,3.22,3.23,-3.24,-2.43,-3.34,-3.00,-3.00,-2.99
265.82,0.23,0.23,3.21,3.21,-3.21,-2.37,-3.28,-2.97,-2.97,-2.98
268.48,0.23,0.24,3.19,3.20,-3.17,-2.32,-3.22,-2.93,-2.92,-2.95
271.16,0.23,0.23,3.16,3.17,-3.12,-2.27,-3.15,-2.89,-2.89,-2.93
273.87,0.23,0.19,3.15,3.10,-3.08,-2.21,-3.09,-2.84,-2.89,-2.92
276.61,0.10,0.12,2.99,3.01,-3.03,-2.16,-3.01,-2.92,-2.91,-2.89
279.38,0.02,0.05,2.90,2.93,-2.97,-2.10,-2.94,-2.95,-2.92,-2.88
282.17,0.00,0.00,2.86,2.86,-2.92,-2.05,-2.85,-2.91,-2.91,-2.86
284.99,0.00,0.01,2.84,2.85,-2.86,-1.99,-2.77,-2.85,-2.85,-2.84
287.84,0.00,0.00,2.82,2.82,-2.80,-1.93,-2.69,-2.80,-2.79,-2.82
290.72,0.00,-0.04,2.80,2.76,-2.74,-1.87,-2.60,-2.74,-2.78,-2.80
293.63,-0.11,-0.11,2.67,2.67,-2.67,-1.81,-2.51,-2.78,-2.78,-2.78
296.57,-0.21,-0.16,2.55,2.60,-2.60,-1.74,-2.42,-2.81,-2.76,-2.75
299.53,-0.23,-0.23,2.51,2.51,-2.50,-1.68,-2.33,-2.73,-2.73,-2.74
302.53,-0.23,-0.29,2.49,2.43,-2.39,-1.61,-2.23,-2.62,-2.68,-2.72
305.55,-0.42,-0.38,2.27,2.32,-2.27,-1.55,-2.14,-2.69,-2.65,-2.69
308.61,-0.51,-0.52,2.16,2.15,-2.14,-1.48,-2.05,-2.65,-2.66,-2.67
311.69,-0.66,-0.68,1.99,1.96,-2.02,-1.41,-1.95,-2.67,-2.69,-2.64
314.81,-0.82,-0.78,1.79,1.84,-1.89,-1.34,-1.86,-2.70,-2.66,-2.61
317.96,-0.90,-0.88,1.69,1.71,-1.74,-1.27,-1.76,-2.64,-2.63,-2.59
321.14,-0.92,-0.97,1.66,1.60,-1.60,-1.20,-1.67,-2.51,-2.56,-2.57
324.35,-1.09,-1.06,1.47,1.50,-1.44,-1.12,-1.57,-2.53,-2.50,-2.56
327.59,-1.17,-1.17,1.36,1.36,-1.30,-1.04,-1.48,-2.46,-2.47,-2.53
330.87,-1.32,-1.33,1.19,1.18,-1.16,-0.96,-1.38,-2.48,-2.49,-2.51
334.18,-1.47,-1.50,1.03,1.00,-1.03,-0.88,-1.29,-2.50,-2.53,-2.49
337.52,-1.70,-1.66,0.78,0.82,-0.89,-0.79,-1.19,-2.59,-2.55,-2.48
340.90,-1.80,-1.76,0.65,0.69,-0.75,-0.71,-1.10,-2.55,-2.52,-2.45
344.30,-1.82,-1.84,0.61,0.59,-0.61,-0.61,-1.01,-2.42,-2.45,-2.43
347.75,-1.88,-1.90,0.54,0.52,-0.46,-0.52,-0.91,-2.34,-2.35,-2.41
351.23,-2.01,-2.01,0.39,0.39,-0.31,-0.42,-0.82,-2.32,-2.32,-2.40
354.74,-2.15,-2.16,0.23,0.22,-0.17,-0.32,-0.73,-2.32,-2.33,-2.38
358.28,-2.37,-2.34,-0.01,0.02,-0.03,-0.21,-0.64,-2.40,-2.37,-2.36
361.87,-2.48,-2.50,-0.13,-0.15,0.11,-0.09,-0.55,-2.36,-2.38,-2.34
365.49,-2.67,-2.65,-0.33,-0.31,0.26,0.03,-0.46,-2.41,-2.39,-2.34
369.14,-2.75,-2.77,-0.42,-0.44,0.41,0.15,-0.37,-2.34,-2.36,-2.33
372.83,-2.90,-2.88,-0.59,-0.56,0.55,0.29,-0.28,-2.35,-2.33,-2.31
376.56,-2.96,-2.96,-0.66,-0.66,0.68,0.43,-0.20,-2.27,-2.27,-2.30
380.33,-3.05,-3.07,-0.78,-0.79,0.82,0.57,-0.11,-2.23,-2.25,-2.27
384.13,-3.16,-3.17,-0.89,-0.90,0.95,0.72,-0.02,-2.21,-2.22,-2.26
387.97,-3.34,-3.30,-1.08,-1.05,1.08,0.88,0.06,-2.25,-2.22,-2.26
391.85,-3.42,-3.44,-1.17,-1.20,1.22,1.04,0.15,-2.20,-2.23,-2.25
395.77,-3.58,-3.58,-1.35,-1.35,1.34,1.20,0.23,-2.24,-2.24,-2.23
399.73,-3.71,-3.71,-1.49,-1.48,1.45,1.35,0.32,-2.26,-2.26,-2.22
403.72,-3.83,-3.81,-1.62,-1.60,1.54,1.49,0.40,-2.28,-2.27,-2.21
407.76,-3.87,-3.86,-1.66,-1.66,1.62,1.62,0.48,-2.25,-2.24,-2.20
411.84,-3.87,-3.88,-1.68,-1.69,1.68,1.73,0.56,-2.19,-2.20,-2.18
415.96,-3.87,-3.87,-1.69,-1.70,1.72,1.81,0.64,-2.15,-2.16,-2.18
420.12,-3.87,-3.87,-1.70,-1.70,1.74,1.86,0.71,-2.13,-2.13,-2.17
424.32,-3.87,-3.87,-1.71,-1.71,1.74,1.88,0.79,-2.12,-2.12,-2.16
428.56,-3.87,-3.87,-1.72,-1.72,1.74,1.87,0.86,-2.13,-2.13,-2.15
432.85,-3.87,-3.88,-1.73,-1.74,1.73,1.83,0.93,-2.14,-2.15,-2.14
437.18,-3.87,-3.87,-1.74,-1.74,1.72,1.77,1.00,-2.15,-2.15,-2.13
441.55,-3.87,-3.81,-1.76,-1.70,1.69,1.69,1.07,-2.17,-2.12,-2.11
445.96,-3.71,-3.74,-1.61,-1.64,1.65,1.60,1.13,-2.05,-2.09,-2.10
450.42,-3.64,-3.69,-1.54,-1.60,1.60,1.51,1.19,-2.04,-2.09,-2.09
454.93,-3.64,-3.61,-1.56,-1.53,1.52,1.41,1.25,-2.12,-2.09,-2.07
459.48,-3.60,-3.53,-1.53,-1.47,1.43,1.31,1.30,-2.17,-2.10,-2.07
464.07,-3.35,-3.39,-1.30,-1.34,1.32,1.21,1.35,-2.02,-2.06,-2.05
468.71,-3.22,-3.23,-1.19,-1.20,1.21,1.11,1.39,-2.01,-2.02,-2.03
473.40,-3.05,-3.06,-1.03,-1.05,1.08,1.01,1.43,-1.97,-1.98,-2.02
478.13,-2.97,-2.94,-0.97,-0.94,0.95,0.91,1.47,-2.02,-2.00,-2.00
482.91,-2.78,-2.80,-0.79,-0.81,0.80,0.81,1.50,-1.97,-1.99,-1.99
487.74,-2.68,-2.65,-0.71,-0.68,0.67,0.71,1.53,-2.01,-1.98,-1.97
492.62,-2.46,-2.47,-0.51,-0.52,0.53,0.61,1.55,-1.93,-1.94,-1.95
497.55,-2.31,-2.32,-0.37,-0.38,0.40,0.50,1.57,-1.91,-1.92,-1.94
502.52,-2.15,-2.16,-0.23,-0.23,0.26,0.38,1.58,-1.89,-1.90,-1.92
