frequency,raw,error,smoothed,error_smoothed,equalization,parametric_eq,fixed_band_eq,equalized_raw,equalized_smoothed,target
20.00,-1.50,-6.33,-1.51,-6.34,5.97,5.91,1.92,4.46,4.46,4.83
20.20,-1.47,-6.33,-1.47,-6.33,5.99,5.87,1.98,4.52,4.52,4.86
20.40,-1.42,-6.31,-1.43,-6.31,6.01,5.83,2.04,4.59,4.59,4.89
20.61,-1.38,-6.28,-1.37,-6.28,6.02,5.79,2.10,4.65,4.65,4.91
20.81,-1.30,-6.24,-1.30,-6.24,6.03,5.75,2.16,4.72,4.73,4.94
21.02,-1.22,-6.19,-1.23,-6.19,6.02,5.71,2.23,4.80,4.79,4.97
21.23,-1.15,-6.13,-1.16,-6.14,6.01,5.67,2.29,4.86,4.85,4.98
21.44,-1.09,-6.08,-1.09,-6.08,5.99,5.63,2.36,4.90,4.90,4.99
21.66,-1.04,-6.03,-1.03,-6.02,5.97,5.58,2.43,4.93,4.94,4.99
21.87,-0.95,-5.95,-0.96,-5.96,5.94,5.54,2.50,4.98,4.97,4.99
22.09,-0.90,-5.91,-0.90,-5.90,5.89,5.50,2.57,4.99,4.99,5.00
22.31,-0.83,-5.84,-0.83,-5.84,5.84,5.46,2.65,5.00,5.01,5.00
22.54,-0.77,-5.77,-0.77,-5.77,5.78,5.42,2.73,5.01,5.01,5.00
22.76,-0.70,-5.71,-0.70,-5.70,5.71,5.38,2.81,5.01,5.01,5.00
22.99,-0.63,-5.63,-0.64,-5.63,5.64,5.33,2.89,5.01,5.00,4.99
23.22,-0.57,-5.56,-0.58,-5.57,5.57,5.29,2.97,5.00,5.00,4.99
23.45,-0.51,-5.50,-0.51,-5.50,5.51,5.25,3.06,4.99,4.99,4.99
23.69,-0.46,-5.44,-0.45,-5.44,5.45,5.21,3.15,4.99,4.99,4.99
23.92,-0.39,-5.38,-0.39,-5.39,5.38,5.16,3.23,4.99,4.99,4.99
24.16,-0.33,-5.33,-0.33,-5.33,5.32,5.12,3.33,4.99,4.99,5.00
24.40,-0.27,-5.27,-0.27,-5.27,5.26,5.08,3.42,4.99,4.99,5.00
24.65,-0.22,-5.20,-0.21,-5.20,5.20,5.04,3.51,4.99,4.99,4.99
24.89,-0.15,-5.14,-0.15,-5.14,5.14,4.99,3.60,4.99,4.99,4.98
25.14,-0.08,-5.07,-0.09,-5.07,5.08,4.95,3.70,4.99,4.99,4.98
25.39,-0.03,-5.02,-0.03,-5.01,5.01,4.91,3.79,4.98,4.98,4.98
25.65,0.03,-4.96,0.03,-4.95,4.95,4.87,3.89,4.98,4.98,4.98
25.91,0.08,-4.89,0.08,-4.89,4.89,4.82,3.99,4.97,4.97,4.97
26.16,0.15,-4.82,0.15,-4.82,4.82,4.78,4.08,4.97,4.97,4.97
26.43,0.20,-4.76,0.20,-4.76,4.76,4.74,4.17,4.97,4.97,4.97
26.69,0.27,-4.70,0.26,-4.70,4.70,4.69,4.27,4.97,4.97,4.97
26.96,0.31,-4.65,0.32,-4.64,4.64,4.65,4.36,4.96,4.97,4.97
27.23,0.38,-4.58,0.38,-4.58,4.58,4.61,4.45,4.97,4.97,4.96
27.50,0.45,-4.52,0.44,-4.52,4.53,4.56,4.54,4.97,4.96,4.96
27.77,0.49,-4.47,0.49,-4.47,4.47,4.52,4.62,4.95,4.96,4.95
28.05,0.54,-4.41,0.53,-4.41,4.41,4.48,4.70,4.95,4.94,4.95
28.33,0.58,-4.36,0.58,-4.36,4.36,4.43,4.77,4.93,4.94,4.94
28.62,0.63,-4.30,0.64,-4.30,4.30,4.39,4.84,4.93,4.93,4.94
28.90,0.70,-4.24,0.69,-4.24,4.24,4.35,4.91,4.94,4.94,4.94
29.19,0.75,-4.18,0.74,-4.19,4.19,4.31,4.97,4.93,4.93,4.92
29.48,0.80,-4.14,0.79,-4.13,4.13,4.26,5.02,4.93,4.92,4.93
29.78,0.83,-4.09,0.84,-4.08,4.08,4.22,5.07,4.91,4.92,4.92
30.08,0.89,-4.02,0.89,-4.02,4.02,4.18,5.10,4.91,4.91,4.92
30.38,0.95,-3.95,0.94,-3.96,3.97,4.13,5.13,4.92,4.91,4.91
30.68,0.99,-3.92,0.99,-3.91,3.91,4.09,5.15,4.90,4.91,4.90
30.99,1.04,-3.85,1.04,-3.85,3.86,4.05,5.17,4.90,4.90,4.89
31.30,1.08,-3.81,1.09,-3.81,3.80,4.01,5.17,4.89,4.89,4.89
31.61,1.14,-3.75,1.13,-3.75,3.75,3.96,5.17,4.88,4.88,4.89
31.93,1.17,-3.70,1.18,-3.70,3.70,3.92,5.16,4.87,4.87,4.88
32.24,1.23,-3.64,1.22,-3.64,3.65,3.88,5.14,4.87,4.87,4.86
32.57,1.26,-3.60,1.27,-3.59,3.59,3.84,5.11,4.86,4.86,4.86
32.89,1.32,-3.54,1.31,-3.54,3.54,3.80,5.08,4.86,4.86,4.86
33.22,1.36,-3.49,1.35,-3.49,3.49,3.75,5.03,4.85,4.85,4.85
33.55,1.40,-3.45,1.40,-3.44,3.44,3.71,4.98,4.84,4.84,4.84
33.89,1.44,-3.39,1.44,-3.39,3.39,3.67,4.92,4.83,4.83,4.83
34.23,1.49,-3.34,1.48,-3.34,3.34,3.63,4.86,4.83,4.82,4.83
34.57,1.53,-3.29,1.52,-3.29,3.29,3.59,4.80,4.82,4.81,4.81
34.92,1.56,-3.25,1.56,-3.24,3.24,3.55,4.72,4.80,4.81,4.80
35.27,1.60,-3.19,1.60,-3.19,3.20,3.51,4.65,4.80,4.79,4.80
35.62,1.64,-3.15,1.64,-3.15,3.15,3.47,4.57,4.78,4.79,4.78
35.97,1.67,-3.10,1.67,-3.10,3.10,3.43,4.49,4.77,4.77,4.77
36.33,1.71,-3.06,1.70,-3.06,3.06,3.39,4.40,4.77,4.76,4.77
36.70,1.73,-3.03,1.73,-3.02,3.02,3.34,4.31,4.74,4.75,4.75
37.06,1.77,-2.97,1.77,-2.98,2.98,3.30,4.23,4.74,4.74,4.74
37.43,1.81,-2.93,1.80,-2.93,2.94,3.26,4.14,4.74,4.73,4.73
37.81,1.82,-2.90,1.83,-2.89,2.90,3.22,4.05,4.71,4.72,4.72
38.19,1.86,-2.85,1.85,-2.86,2.86,3.18,3.96,4.72,4.71,4.71
38.57,1.88,-2.82,1.87,-2.82,2.82,3.15,3.87,4.70,4.70,4.70
38.95,1.90,-2.79,1.90,-2.79,2.79,3.11,3.78,4.69,4.69,4.69
39.34,1.91,-2.76,1.91,-2.76,2.76,3.07,3.69,4.66,4.67,4.67
39.74,1.94,-2.72,1.93,-2.73,2.73,3.03,3.60,4.66,4.65,4.66
40.14,1.94,-2.71,1.95,-2.70,2.70,2.99,3.52,4.63,4.65,4.65
40.54,1.98,-2.65,1.97,-2.67,2.67,2.95,3.43,4.65,4.64,4.63
40.94,1.99,-2.64,1.98,-2.64,2.64,2.91,3.35,4.63,4.63,4.63
41.35,1.99,-2.63,2.00,-2.61,2.62,2.87,3.27,4.61,4.62,4.61
41.76,2.03,-2.58,2.01,-2.59,2.60,2.83,3.19,4.62,4.61,4.61
42.18,2.03,-2.57,2.02,-2.57,2.57,2.79,3.11,4.60,4.60,4.60
42.60,2.03,-2.56,2.03,-2.56,2.55,2.76,3.04,4.58,4.58,4.58
43.03,2.03,-2.55,2.03,-2.54,2.53,2.72,2.96,4.56,4.56,4.58
43.46,2.04,-2.52,2.04,-2.51,2.51,2.68,2.89,4.54,4.55,4.56
43.90,2.07,-2.47,2.05,-2.48,2.48,2.64,2.82,4.55,4.54,4.53
44.33,2.07,-2.45,2.06,-2.45,2.46,2.60,2.76,4.52,4.52,4.51
44.78,2.07,-2.43,2.06,-2.43,2.43,2.57,2.69,4.50,4.49,4.50
45.23,2.07,-2.41,2.07,-2.41,2.40,2.53,2.63,4.47,4.47,4.48
45.68,2.07,-2.39,2.08,-2.38,2.38,2.49,2.57,4.44,4.46,4.46
46.13,2.11,-2.33,2.10,-2.35,2.35,2.45,2.51,4.46,4.45,4.44
46.60,2.12,-2.31,2.11,-2.32,2.33,2.42,2.45,4.44,4.44,4.43
47.06,2.12,-2.30,2.12,-2.29,2.30,2.38,2.40,4.42,4.42,4.41
47.53,2.12,-2.28,2.11,-2.28,2.27,2.34,2.35,4.39,4.39,4.39
48.01,2.12,-2.26,2.12,-2.26,2.24,2.30,2.30,4.36,4.36,4.38
48.49,2.12,-2.23,2.12,-2.23,2.21,2.27,2.25,4.33,4.34,4.35
48.97,2.14,-2.18,2.13,-2.19,2.19,2.23,2.20,4.32,4.32,4.32
49.46,2.14,-2.15,2.14,-2.15,2.16,2.19,2.16,4.30,4.30,4.29
49.96,2.14,-2.12,2.14,-2.13,2.13,2.15,2.12,4.27,4.27,4.26
50.46,2.14,-2.11,2.13,-2.11,2.11,2.12,2.07,4.25,4.24,4.24
50.96,2.12,-2.11,2.13,-2.09,2.09,2.08,2.03,4.21,4.22,4.22
51.47,2.12,-2.07,2.11,-2.08,2.08,2.04,1.99,4.20,4.19,4.19
51.99,2.11,-2.06,2.10,-2.07,2.08,2.00,1.96,4.18,4.17,4.16
52.51,2.07,-2.08,2.08,-2.07,2.08,1.97,1.92,4.14,4.15,4.15
53.03,2.05,-2.08,2.04,-2.08,2.08,1.93,1.88,4.13,4.13,4.13
53.56,2.02,-2.09,2.01,-2.09,2.09,1.89,1.85,4.11,4.10,4.10
54.10,1.97,-2.11,1.97,-2.10,2.10,1.85,1.81,4.07,4.07,4.08
54.64,1.94,-2.11,1.93,-2.12,2.12,1.81,1.78,4.05,4.05,4.05
55.18,1.89,-2.14,1.89,-2.13,2.13,1.77,1.75,4.02,4.02,4.02
55.74,1.86,-2.14,1.85,-2.15,2.15,1.74,1.71,4.00,4.00,4.00
56.29,1.81,-2.17,1.81,-2.16,2.17,1.70,1.68,3.97,3.98,3.98
56.86,1.78,-2.17,1.78,-2.17,2.18,1.66,1.65,3.96,3.96,3.95
57.42,1.75,-2.18,1.74,-2.19,2.19,1.62,1.61,3.94,3.93,3.92
58.00,1.72,-2.19,1.71,-2.19,2.20,1.58,1.58,3.91,3.91,3.90
58.58,1.68,-2.21,1.69,-2.20,2.19,1.54,1.55,3.87,3.88,3.88
59.16,1.68,-2.19,1.67,-2.19,2.18,1.50,1.51,3.85,3.85,3.86
59.76,1.68,-2.17,1.67,-2.17,2.15,1.46,1.48,3.83,3.82,3.84
60.35,1.68,-2.13,1.69,-2.12,2.11,1.42,1.44,3.79,3.80,3.81
60.96,1.73,-2.06,1.71,-2.07,2.06,1.37,1.40,3.79,3.77,3.79
61.57,1.75,-2.00,1.75,-2.00,2.00,1.33,1.37,3.74,3.75,3.74
62.18,1.80,-1.91,1.80,-1.92,1.92,1.29,1.33,3.71,3.72,3.71
62.80,1.86,-1.83,1.85,-1.83,1.83,1.25,1.29,3.69,3.68,3.68
63.43,1.92,-1.73,1.92,-1.73,1.73,1.20,1.25,3.65,3.65,3.65
64.07,1.99,-1.63,1.99,-1.63,1.63,1.16,1.20,3.63,3.62,3.62
64.71,2.07,-1.53,2.07,-1.52,1.53,1.12,1.16,3.59,3.60,3.60
65.35,2.16,-1.41,2.15,-1.42,1.42,1.07,1.12,3.57,3.57,3.57
66.01,2.25,-1.30,2.24,-1.30,1.30,1.03,1.07,3.55,3.54,3.54
66.67,2.32,-1.20,2.33,-1.19,1.19,0.98,1.02,3.51,3.52,3.51
67.33,2.42,-1.07,2.41,-1.08,1.08,0.94,0.97,3.49,3.49,3.48
68.01,2.49,-0.97,2.49,-0.97,0.97,0.89,0.93,3.45,3.45,3.45
68.69,2.57,-0.86,2.57,-0.86,0.86,0.84,0.88,3.42,3.42,3.42
69.37,2.64,-0.75,2.64,-0.75,0.75,0.80,0.82,3.39,3.39,3.39
70.07,2.72,-0.64,2.71,-0.65,0.65,0.75,0.77,3.36,3.36,3.36
70.77,2.79,-0.55,2.78,-0.55,0.54,0.70,0.72,3.33,3.33,3.33
71.48,2.85,-0.45,2.85,-0.45,0.45,0.65,0.67,3.29,3.30,3.30
72.19,2.91,-0.36,2.91,-0.36,0.35,0.60,0.61,3.26,3.26,3.26
72.91,2.97,-0.26,2.96,-0.26,0.27,0.55,0.56,3.23,3.23,3.23
73.64,3.02,-0.17,3.02,-0.18,0.18,0.50,0.50,3.20,3.20,3.19
74.38,3.07,-0.10,3.06,-0.10,0.10,0.45,0.44,3.17,3.17,3.16
75.12,3.10,-0.03,3.10,-0.03,0.03,0.40,0.39,3.13,3.13,3.12
75.87,3.13,0.03,3.13,0.03,-0.03,0.35,0.33,3.09,3.10,3.09
76.63,3.16,0.09,3.16,0.10,-0.09,0.30,0.27,3.06,3.06,3.06
77.40,3.19,0.15,3.18,0.15,-0.15,0.24,0.21,3.04,3.03,3.03
78.17,3.20,0.20,3.20,0.20,-0.20,0.19,0.15,3.00,3.00,2.99
78.95,3.20,0.23,3.21,0.24,-0.24,0.13,0.09,2.95,2.97,2.97
79.74,3.24,0.30,3.22,0.29,-0.29,0.08,0.03,2.95,2.94,2.94
80.54,3.24,0.33,3.23,0.33,-0.33,0.03,-0.03,2.91,2.91,2.90
81.35,3.24,0.37,3.24,0.37,-0.36,-0.03,-0.09,2.87,2.87,2.87
82.16,3.24,0.40,3.24,0.40,-0.40,-0.09,-0.15,2.83,2.83,2.83
82.98,3.24,0.43,3.23,0.44,-0.44,-0.14,-0.21,2.79,2.79,2.80
83.81,3.24,0.48,3.23,0.47,-0.48,-0.20,-0.27,2.75,2.75,2.76
84.65,3.24,0.52,3.25,0.52,-0.53,-0.26,-0.34,2.71,2.72,2.72
85.50,3.27,0.57,3.26,0.57,-0.57,-0.31,-0.40,2.69,2.69,2.69
86.35,3.29,0.63,3.27,0.62,-0.62,-0.37,-0.47,2.67,2.65,2.65
87.22,3.29,0.67,3.29,0.68,-0.67,-0.43,-0.53,2.62,2.62,2.61
88.09,3.29,0.71,3.30,0.72,-0.72,-0.49,-0.60,2.56,2.58,2.57
88.97,3.33,0.78,3.31,0.77,-0.78,-0.54,-0.66,2.55,2.53,2.54
89.86,3.33,0.83,3.33,0.83,-0.83,-0.60,-0.73,2.49,2.49,2.50
90.76,3.33,0.88,3.34,0.89,-0.89,-0.66,-0.79,2.44,2.46,2.45
91.66,3.37,0.95,3.35,0.94,-0.94,-0.72,-0.86,2.42,2.41,2.41
92.58,3.37,1.00,3.36,1.00,-1.00,-0.78,-0.93,2.37,2.36,2.36
93.51,3.37,1.04,3.38,1.05,-1.06,-0.84,-1.00,2.31,2.32,2.33
94.44,3.40,1.11,3.39,1.11,-1.11,-0.90,-1.07,2.28,2.28,2.28
95.39,3.42,1.18,3.41,1.17,-1.17,-0.96,-1.14,2.25,2.24,2.24
96.34,3.42,1.23,3.42,1.23,-1.22,-1.02,-1.20,2.19,2.20,2.18
97.30,3.42,1.28,3.42,1.28,-1.27,-1.08,-1.27,2.14,2.14,2.14
98.28,3.42,1.32,3.42,1.32,-1.32,-1.13,-1.34,2.09,2.09,2.09
99.26,3.42,1.37,3.42,1.37,-1.37,-1.19,-1.41,2.05,2.05,2.05
100.25,3.42,1.41,3.42,1.41,-1.41,-1.25,-1.49,2.00,2.00,2.00
101.25,3.42,1.46,3.42,1.46,-1.45,-1.31,-1.56,1.96,1.96,1.96
102.27,3.42,1.50,3.41,1.50,-1.49,-1.37,-1.62,1.92,1.92,1.91
103.29,3.40,1.54,3.39,1.53,-1.53,-1.42,-1.69,1.87,1.86,1.85
104.32,3.37,1.55,3.38,1.56,-1.57,-1.48,-1.76,1.80,1.81,1.82
105.37,3.37,1.59,3.36,1.59,-1.61,-1.54,-1.83,1.76,1.76,1.77
106.42,3.37,1.64,3.37,1.64,-1.64,-1.59,-1.90,1.72,1.72,1.73
107.48,3.37,1.69,3.36,1.69,-1.68,-1.65,-1.97,1.68,1.68,1.68
108.56,3.37,1.74,3.35,1.73,-1.72,-1.70,-2.03,1.64,1.63,1.62
109.64,3.34,1.76,3.34,1.76,-1.76,-1.76,-2.09,1.57,1.58,1.58
110.74,3.33,1.79,3.33,1.80,-1.80,-1.81,-2.15,1.52,1.53,1.53
111.85,3.33,1.84,3.32,1.84,-1.85,-1.86,-2.21,1.48,1.47,1.49
112.97,3.33,1.91,3.31,1.88,-1.89,-1.92,-2.27,1.44,1.42,1.42
114.10,3.29,1.91,3.30,1.93,-1.93,-1.97,-2.33,1.36,1.37,1.37
115.24,3.29,1.97,3.29,1.97,-1.97,-2.02,-2.38,1.32,1.32,1.32
116.39,3.29,2.02,3.27,2.01,-2.01,-2.07,-2.43,1.28,1.27,1.27
117.55,3.27,2.05,3.26,2.05,-2.05,-2.12,-2.47,1.22,1.22,1.21
118.73,3.24,2.08,3.25,2.09,-2.08,-2.16,-2.51,1.15,1.16,1.16
119.92,3.24,2.12,3.23,2.12,-2.12,-2.21,-2.55,1.12,1.11,1.11
121.12,3.21,2.14,3.21,2.15,-2.15,-2.26,-2.58,1.06,1.06,1.06
122.33,3.20,2.19,3.19,2.18,-2.18,-2.30,-2.61,1.02,1.02,1.01
123.55,3.17,2.20,3.17,2.21,-2.21,-2.34,-2.64,0.96,0.96,0.97
124.79,3.16,2.24,3.15,2.23,-2.24,-2.39,-2.66,0.92,0.91,0.92
126.03,3.13,2.26,3.13,2.26,-2.26,-2.43,-2.68,0.86,0.86,0.87
127.29,3.11,2.29,3.10,2.29,-2.29,-2.47,-2.69,0.81,0.81,0.82
128.57,3.08,2.32,3.08,2.32,-2.32,-2.51,-2.70,0.75,0.76,0.76
129.85,3.07,2.36,3.06,2.35,-2.35,-2.54,-2.71,0.71,0.71,0.71
131.15,3.05,2.39,3.05,2.39,-2.38,-2.58,-2.71,0.66,0.67,0.66
132.46,3.03,2.41,3.03,2.42,-2.41,-2.61,-2.71,0.61,0.62,0.61
133.79,3.03,2.45,3.01,2.44,-2.44,-2.65,-2.70,0.58,0.57,0.58
135.12,2.98,2.46,2.99,2.47,-2.47,-2.68,-2.69,0.50,0.52,0.52
136.48,2.98,2.49,2.98,2.49,-2.50,-2.71,-2.68,0.47,0.48,0.48
137.84,2.98,2.54,2.96,2.52,-2.53,-2.74,-2.67,0.45,0.43,0.44
139.22,2.94,2.55,2.95,2.56,-2.55,-2.77,-2.66,0.38,0.40,0.39
140.61,2.94,2.59,2.94,2.58,-2.58,-2.79,-2.64,0.36,0.36,0.34
142.02,2.94,2.61,2.92,2.61,-2.60,-2.82,-2.62,0.33,0.32,0.32
143.44,2.90,2.61,2.91,2.63,-2.62,-2.84,-2.60,0.27,0.28,0.28
144.87,2.90,2.65,2.89,2.64,-2.64,-2.86,-2.57,0.25,0.24,0.24
146.32,2.86,2.65,2.86,2.66,-2.66,-2.88,-2.55,0.19,0.20,0.20
147.78,2.85,2.67,2.84,2.68,-2.68,-2.90,-2.53,0.17,0.17,0.17
149.26,2.82,2.68,2.82,2.69,-2.69,-2.92,-2.50,0.12,0.12,0.13
150.75,2.81,2.72,2.80,2.71,-2.71,-2.93,-2.48,0.10,0.09,0.09
152.26,2.77,2.71,2.77,2.72,-2.72,-2.95,-2.46,0.04,0.05,0.05
153.78,2.77,2.75,2.75,2.74,-2.74,-2.96,-2.43,0.03,0.01,0.02
155.32,2.72,2.75,2.73,2.75,-2.76,-2.97,-2.41,-0.04,-0.03,-0.03
156.88,2.72,2.78,2.71,2.77,-2.77,-2.98,-2.39,-0.06,-0.07,-0.06
158.44,2.68,2.78,2.68,2.79,-2.79,-2.99,-2.37,-0.11,-0.11,-0.11
160.03,2.66,2.80,2.66,2.81,-2.80,-3.00,-2.35,-0.15,-0.15,-0.15
161.63,2.64,2.83,2.63,2.82,-2.82,-3.00,-2.33,-0.18,-0.19,-0.19
163.24,2.60,2.83,2.60,2.83,-2.83,-3.01,-2.31,-0.23,-0.22,-0.23
164.88,2.59,2.85,2.58,2.84,-2.84,-3.01,-2.30,-0.26,-0.26,-0.26
166.53,2.55,2.85,2.55,2.85,-2.85,-3.01,-2.28,-0.31,-0.30,-0.30
168.19,2.53,2.86,2.53,2.86,-2.87,-3.01,-2.27,-0.34,-0.34,-0.34
169.87,2.51,2.88,2.50,2.88,-2.88,-3.01,-2.26,-0.37,-0.38,-0.38
171.57,2.47,2.88,2.47,2.89,-2.89,-3.00,-2.25,-0.42,-0.41,-0.41
173.29,2.46,2.90,2.45,2.90,-2.90,-3.00,-2.24,-0.44,-0.45,-0.45
175.02,2.42,2.90,2.42,2.91,-2.91,-2.99,-2.24,-0.50,-0.49,-0.48
176.77,2.40,2.92,2.39,2.92,-2.92,-2.98,-2.23,-0.52,-0.53,-0.53
178.54,2.37,2.94,2.36,2.93,-2.93,-2.98,-2.23,-0.56,-0.57,-0.57
180.32,2.33,2.93,2.33,2.94,-2.93,-2.97,-2.23,-0.60,-0.60,-0.61
182.13,2.29,2.92,2.29,2.93,-2.93,-2.95,-2.23,-0.64,-0.64,-0.64
183.95,2.26,2.94,2.25,2.93,-2.92,-2.94,-2.24,-0.67,-0.67,-0.68
185.79,2.21,2.92,2.21,2.92,-2.92,-2.93,-2.24,-0.71,-0.71,-0.71
187.65,2.16,2.91,2.16,2.91,-2.91,-2.91,-2.25,-0.76,-0.75,-0.75
189.52,2.13,2.91,2.11,2.90,-2.91,-2.89,-2.26,-0.79,-0.80,-0.78
191.42,2.07,2.88,2.08,2.90,-2.91,-2.88,-2.27,-0.85,-0.83,-0.81
193.33,2.07,2.91,2.06,2.90,-2.92,-2.86,-2.28,-0.85,-0.86,-0.84
195.27,2.06,2.93,2.05,2.92,-2.92,-2.84,-2.29,-0.87,-0.88,-0.87
197.22,2.03,2.92,2.03,2.94,-2.93,-2.82,-2.30,-0.90,-0.89,-0.90
199.19,2.03,2.96,2.02,2.94,-2.93,-2.79,-2.32,-0.91,-0.92,-0.93
201.18,1.99,2.94,1.99,2.95,-2.93,-2.77,-2.34,-0.95,-0.94,-0.95
203.19,1.98,2.94,1.97,2.94,-2.93,-2.75,-2.35,-0.96,-0.96,-0.97
205.23,1.94,2.93,1.93,2.92,-2.92,-2.72,-2.37,-0.99,-0.99,-0.99
207.28,1.90,2.89,1.90,2.91,-2.91,-2.69,-2.39,-1.01,-1.01,-1.00
209.35,1.87,2.89,1.87,2.89,-2.89,-2.67,-2.41,-1.02,-1.02,-1.02
211.44,1.84,2.88,1.83,2.86,-2.86,-2.64,-2.42,-1.03,-1.04,-1.05
213.56,1.79,2.84,1.79,2.84,-2.84,-2.61,-2.44,-1.05,-1.05,-1.05
215.69,1.74,2.79,1.74,2.80,-2.80,-2.58,-2.46,-1.07,-1.06,-1.05
217.85,1.71,2.77,1.70,2.77,-2.77,-2.55,-2.48,-1.06,-1.07,-1.07
220.03,1.66,2.73,1.66,2.73,-2.73,-2.51,-2.49,-1.08,-1.08,-1.08
222.23,1.62,2.71,1.61,2.70,-2.69,-2.48,-2.51,-1.08,-1.08,-1.09
224.45,1.57,2.65,1.57,2.65,-2.65,-2.45,-2.52,-1.09,-1.09,-1.08
226.70,1.53,2.61,1.53,2.61,-2.61,-2.41,-2.53,-1.09,-1.09,-1.08
228.96,1.49,2.57,1.48,2.56,-2.57,-2.38,-2.54,-1.09,-1.09,-1.08
231.25,1.45,2.52,1.45,2.52,-2.53,-2.34,-2.55,-1.08,-1.08,-1.07
233.57,1.41,2.48,1.41,2.48,-2.49,-2.30,-2.56,-1.08,-1.08,-1.07
235.90,1.38,2.45,1.37,2.44,-2.44,-2.27,-2.56,-1.07,-1.07,-1.07
238.26,1.33,2.40,1.33,2.40,-2.40,-2.23,-2.56,-1.07,-1.07,-1.07
240.64,1.30,2.36,1.29,2.35,-2.35,-2.19,-2.55,-1.06,-1.06,-1.06
243.05,1.25,2.30,1.25,2.30,-2.30,-2.15,-2.55,-1.06,-1.05,-1.05
245.48,1.22,2.26,1.21,2.25,-2.25,-2.11,-2.54,-1.04,-1.04,-1.04
247.93,1.17,2.19,1.17,2.20,-2.20,-2.07,-2.52,-1.04,-1.03,-1.03
250.41,1.14,2.16,1.13,2.15,-2.15,-2.03,-2.50,-1.02,-1.02,-1.03
252.92,1.10,2.10,1.10,2.10,-2.10,-1.99,-2.48,-1.00,-1.00,-1.00
255.45,1.06,2.04,1.06,2.04,-2.04,-1.95,-2.46,-0.99,-0.98,-0.98
258.00,1.03,1.99,1.02,1.98,-1.98,-1.90,-2.43,-0.96,-0.97,-0.97
260.58,0.97,1.92,0.97,1.93,-1.93,-1.86,-2.40,-0.96,-0.95,-0.95
263.19,0.94,1.87,0.93,1.87,-1.87,-1.82,-2.36,-0.93,-0.93,-0.93
265.82,0.90,1.81,0.89,1.81,-1.81,-1.77,-2.32,-0.91,-0.91,-0.92
268.48,0.86,1.75,0.86,1.75,-1.75,-1.73,-2.28,-0.90,-0.89,-0.89
271.16,0.83,1.69,0.82,1.69,-1.69,-1.69,-2.23,-0.87,-0.88,-0.87
273.87,0.78,1.63,0.78,1.63,-1.64,-1.64,-2.18,-0.86,-0.86,-0.86
276.61,0.75,1.58,0.75,1.58,-1.58,-1.60,-2.13,-0.84,-0.83,-0.83
279.38,0.72,1.53,0.71,1.53,-1.53,-1.55,-2.08,-0.81,-0.82,-0.82
282.17,0.69,1.49,0.68,1.48,-1.48,-1.50,-2.02,-0.79,-0.80,-0.80
284.99,0.64,1.41,0.64,1.42,-1.42,-1.46,-1.97,-0.79,-0.78,-0.78
287.84,0.61,1.37,0.61,1.37,-1.37,-1.41,-1.91,-0.76,-0.76,-0.76
290.72,0.58,1.31,0.57,1.31,-1.31,-1.37,-1.85,-0.73,-0.74,-0.74
293.63,0.54,1.25,0.54,1.25,-1.25,-1.32,-1.78,-0.71,-0.71,-0.72
296.57,0.50,1.19,0.50,1.19,-1.18,-1.27,-1.72,-0.69,-0.69,-0.69
299.53,0.45,1.12,0.45,1.13,-1.11,-1.23,-1.66,-0.67,-0.66,-0.68
302.53,0.41,1.07,0.40,1.05,-1.04,-1.18,-1.59,-0.63,-0.65,-0.66
305.55,0.34,0.96,0.34,0.97,-0.97,-1.13,-1.53,-0.64,-0.63,-0.63
308.61,0.29,0.89,0.29,0.89,-0.91,-1.09,-1.46,-0.62,-0.62,-0.61
311.69,0.25,0.83,0.24,0.82,-0.85,-1.04,-1.40,-0.60,-0.60,-0.58
314.81,0.21,0.75,0.22,0.77,-0.79,-0.99,-1.33,-0.59,-0.58,-0.55
317.96,0.21,0.73,0.19,0.72,-0.74,-0.95,-1.27,-0.53,-0.55,-0.53
321.14,0.18,0.69,0.18,0.69,-0.69,-0.90,-1.20,-0.52,-0.51,-0.51
324.35,0.17,0.66,0.17,0.66,-0.65,-0.85,-1.13,-0.48,-0.48,-0.50
327.59,0.16,0.62,0.15,0.62,-0.60,-0.81,-1.07,-0.45,-0.46,-0.47
330.87,0.12,0.57,0.12,0.57,-0.55,-0.76,-1.00,-0.43,-0.43,-0.45
334.18,0.08,0.51,0.07,0.51,-0.49,-0.71,-0.94,-0.41,-0.41,-0.43
337.52,0.03,0.44,0.02,0.44,-0.42,-0.67,-0.87,-0.40,-0.40,-0.42
340.90,-0.03,0.35,-0.03,0.36,-0.36,-0.62,-0.81,-0.39,-0.39,-0.39
344.30,-0.08,0.29,-0.09,0.28,-0.29,-0.58,-0.75,-0.37,-0.38,-0.37
347.75,-0.15,0.20,-0.15,0.20,-0.22,-0.53,-0.68,-0.37,-0.37,-0.35
351.23,-0.20,0.13,-0.20,0.14,-0.16,-0.48,-0.62,-0.37,-0.36,-0.34
354.74,-0.22,0.09,-0.23,0.09,-0.11,-0.44,-0.56,-0.34,-0.34,-0.32
358.28,-0.24,0.06,-0.24,0.06,-0.07,-0.39,-0.50,-0.31,-0.31,-0.30
361.87,-0.24,0.04,-0.25,0.03,-0.03,-0.35,-0.44,-0.28,-0.28,-0.28
365.49,-0.26,0.00,-0.26,0.01,-0.00,-0.30,-0.37,-0.27,-0.26,-0.26
369.14,-0.26,-0.01,-0.26,-0.01,0.03,-0.26,-0.31,-0.24,-0.24,-0.26
372.83,-0.26,-0.03,-0.28,-0.04,0.05,-0.22,-0.25,-0.21,-0.23,-0.24
376.56,-0.30,-0.07,-0.29,-0.07,0.08,-0.17,-0.19,-0.22,-0.21,-0.23
380.33,-0.31,-0.11,-0.31,-0.11,0.11,-0.13,-0.14,-0.21,-0.21,-0.20
384.13,-0.32,-0.13,-0.33,-0.14,0.13,-0.09,-0.08,-0.19,-0.20,-0.19
387.97,-0.35,-0.17,-0.35,-0.16,0.16,-0.04,-0.02,-0.20,-0.19,-0.18
391.85,-0.35,-0.18,-0.36,-0.18,0.17,-0.00,0.04,-0.18,-0.18,-0.18
395.77,-0.35,-0.20,-0.36,-0.20,0.18,0.04,0.10,-0.17,-0.17,-0.16
399.73,-0.35,-0.21,-0.35,-0.20,0.19,0.08,0.15,-0.17,-0.16,-0.15
403.72,-0.32,-0.18,-0.33,-0.19,0.19,0.12,0.21,-0.14,-0.14,-0.14
407.76,-0.31,-0.18,-0.31,-0.18,0.18,0.16,0.26,-0.14,-0.13,-0.13
411.84,-0.26,-0.15,-0.28,-0.16,0.17,0.20,0.32,-0.10,-0.11,-0.11
415.96,-0.26,-0.16,-0.26,-0.15,0.15,0.24,0.37,-0.11,-0.10,-0.10
420.12,-0.22,-0.13,-0.23,-0.14,0.14,0.28,0.42,-0.09,-0.09,-0.10
424.32,-0.22,-0.14,-0.22,-0.13,0.13,0.32,0.47,-0.10,-0.09,-0.09
428.56,-0.19,-0.12,-0.20,-0.12,0.12,0.36,0.52,-0.07,-0.07,-0.08
432.85,-0.18,-0.12,-0.19,-0.12,0.12,0.39,0.57,-0.06,-0.06,-0.07
437.18,-0.18,-0.12,-0.18,-0.12,0.13,0.43,0.62,-0.05,-0.05,-0.06
441.55,-0.18,-0.14,-0.19,-0.14,0.15,0.47,0.67,-0.04,-0.04,-0.04
445.96,-0.19,-0.16,-0.20,-0.17,0.17,0.50,0.71,-0.03,-0.03,-0.03
450.42,-0.22,-0.20,-0.21,-0.19,0.19,0.54,0.75,-0.03,-0.02,-0.02
454.93,-0.22,-0.22,-0.24,-0.23,0.23,0.57,0.80,0.00,-0.01,-0.00
459.48,-0.26,-0.27,-0.26,-0.27,0.27,0.60,0.84,0.00,0.01,0.01
464.07,-0.28,-0.31,-0.28,-0.31,0.31,0.64,0.87,0.03,0.03,0.02
468.71,-0.31,-0.36,-0.32,-0.36,0.36,0.67,0.91,0.05,0.04,0.04
473.40,-0.35,-0.41,-0.35,-0.41,0.41,0.70,0.94,0.05,0.05,0.05
478.13,-0.39,-0.47,-0.39,-0.46,0.46,0.73,0.97,0.06,0.07,0.07
482.91,-0.42,-0.51,-0.43,-0.51,0.50,0.76,1.00,0.08,0.08,0.08
487.74,-0.45,-0.56,-0.46,-0.56,0.55,0.79,1.03,0.10,0.09,0.10
492.62,-0.48,-0.61,-0.48,-0.60,0.60,0.82,1.05,0.11,0.12,0.12
497.55,-0.51,-0.64,-0.51,-0.64,0.64,0.85,1.07,0.13,0.14,0.13
502.52,-0.52,-0.67,-0.54,-0.69,0.69,0.88,1.09,0.16,0.15,0.15
507.55,-0.57,-0.73,-0.57,-0.73,0.73,0.91,1.11,0.16,0.17,0.16
512.62,-0.60,-0.78,-0.60,-0.78,0.78,0.93,1.12,0.17,0.18,0.18
517.75,-0.61,-0.81,-0.63,-0.82,0.82,0.96,1.13,0.21,0.19,0.20
522.93,-0.65,-0.87,-0.65,-0.86,0.86,0.98,1.14,0.21,0.21,0.22
