frequency,raw,error,smoothed,error_smoothed,equalization,parametric_eq,fixed_band_eq,equalized_raw,equalized_smoothed,target
20.00,3.00,-5.64,3.00,-5.64,5.64,5.53,0.49,8.64,8.64,8.64
20.20,3.11,-5.53,3.11,-5.54,5.54,5.41,0.51,8.64,8.64,8.64
20.40,3.22,-5.42,3.22,-5.43,5.43,5.29,0.53,8.64,8.64,8.64
20.61,3.32,-5.32,3.33,-5.31,5.31,5.16,0.55,8.64,8.64,8.64
20.81,3.45,-5.19,3.44,-5.20,5.20,5.04,0.57,8.65,8.64,8.64
21.02,3.55,-5.09,3.55,-5.08,5.08,4.92,0.59,8.63,8.63,8.64
21.23,3.67,-4.95,3.66,-4.96,4.96,4.79,0.61,8.63,8.62,8.62
21.44,3.77,-4.84,3.77,-4.84,4.84,4.67,0.64,8.61,8.61,8.61
21.66,3.87,-4.71,3.88,-4.71,4.71,4.55,0.66,8.59,8.59,8.59
21.87,3.98,-4.59,3.98,-4.59,4.59,4.43,0.68,8.57,8.57,8.57
22.09,4.10,-4.46,4.09,-4.46,4.46,4.30,0.71,8.56,8.55,8.56
22.31,4.21,-4.32,4.21,-4.33,4.33,4.18,0.73,8.53,8.53,8.53
22.54,4.31,-4.19,4.32,-4.19,4.19,4.06,0.76,8.51,8.51,8.51
22.76,4.43,-4.06,4.42,-4.06,4.06,3.93,0.79,8.48,8.48,8.49
22.99,4.54,-3.92,4.54,-3.92,3.92,3.81,0.82,8.46,8.46,8.46
23.22,4.65,-3.78,4.65,-3.78,3.78,3.69,0.84,8.43,8.43,8.43
23.45,4.78,-3.63,4.77,-3.64,3.64,3.56,0.87,8.42,8.41,8.41
23.69,4.88,-3.51,4.89,-3.50,3.50,3.44,0.90,8.39,8.40,8.40
23.92,5.02,-3.36,5.02,-3.36,3.36,3.32,0.93,8.38,8.38,8.38
24.16,5.15,-3.22,5.14,-3.22,3.22,3.20,0.96,8.37,8.36,8.36
24.40,5.26,-3.09,5.26,-3.08,3.08,3.07,0.99,8.33,8.34,8.34
24.65,5.38,-2.94,5.39,-2.94,2.93,2.95,1.02,8.32,8.32,8.32
24.89,5.52,-2.79,5.52,-2.79,2.79,2.83,1.05,8.31,8.31,8.30
25.14,5.65,-2.65,5.65,-2.65,2.65,2.70,1.08,8.30,8.29,8.29
25.39,5.77,-2.50,5.77,-2.50,2.51,2.58,1.11,8.27,8.28,8.27
25.65,5.90,-2.37,5.89,-2.36,2.36,2.46,1.14,8.26,8.26,8.26
25.91,6.01,-2.22,6.02,-2.22,2.22,2.34,1.17,8.24,8.24,8.23
26.16,6.14,-2.08,6.14,-2.08,2.08,2.21,1.19,8.22,8.22,8.22
26.43,6.26,-1.95,6.26,-1.94,1.95,2.09,1.22,8.21,8.21,8.21
26.69,6.39,-1.80,6.39,-1.81,1.81,1.97,1.25,8.19,8.19,8.19
26.96,6.50,-1.67,6.51,-1.67,1.67,1.85,1.27,8.18,8.18,8.18
27.23,6.63,-1.53,6.63,-1.54,1.53,1.73,1.29,8.17,8.16,8.17
27.50,6.75,-1.41,6.75,-1.40,1.40,1.61,1.31,8.14,8.15,8.16
27.77,6.88,-1.26,6.87,-1.26,1.26,1.49,1.32,8.14,8.14,8.14
28.05,7.00,-1.13,7.00,-1.13,1.13,1.36,1.34,8.12,8.12,8.13
28.33,7.12,-0.99,7.12,-0.99,0.99,1.24,1.35,8.11,8.11,8.11
28.62,7.23,-0.86,7.24,-0.86,0.86,1.12,1.36,8.09,8.10,8.09
28.90,7.36,-0.73,7.35,-0.73,0.73,1.00,1.36,8.09,8.08,8.08
29.19,7.47,-0.60,7.47,-0.60,0.60,0.88,1.36,8.07,8.07,8.06
29.48,7.59,-0.47,7.58,-0.48,0.48,0.76,1.35,8.06,8.06,8.06
29.78,7.70,-0.36,7.69,-0.36,0.36,0.64,1.35,8.05,8.05,8.05
30.08,7.79,-0.25,7.80,-0.24,0.24,0.52,1.33,8.03,8.03,8.04
30.38,7.89,-0.12,7.90,-0.12,0.12,0.41,1.31,8.02,8.02,8.02
30.68,8.00,-0.01,8.00,-0.01,0.01,0.29,1.29,8.01,8.01,8.01
30.99,8.09,0.11,8.09,0.10,-0.10,0.17,1.26,8.00,7.99,7.99
31.30,8.18,0.20,8.18,0.20,-0.20,0.05,1.23,7.97,7.98,7.98
31.61,8.27,0.30,8.26,0.30,-0.31,-0.07,1.19,7.96,7.96,7.96
31.93,8.34,0.40,8.35,0.41,-0.41,-0.18,1.14,7.93,7.94,7.94
32.24,8.43,0.52,8.43,0.51,-0.51,-0.30,1.09,7.92,7.92,7.91
32.57,8.52,0.62,8.51,0.61,-0.61,-0.41,1.04,7.90,7.90,7.90
32.89,8.59,0.70,8.59,0.71,-0.71,-0.53,0.98,7.87,7.88,7.89
33.22,8.68,0.82,8.67,0.81,-0.81,-0.65,0.91,7.86,7.86,7.86
33.55,8.76,0.91,8.75,0.91,-0.91,-0.76,0.84,7.85,7.84,7.85
33.89,8.83,1.00,8.83,1.01,-1.01,-0.87,0.76,7.82,7.83,7.82
34.23,8.91,1.10,8.90,1.10,-1.10,-0.99,0.69,7.81,7.81,7.80
34.57,8.98,1.20,8.97,1.19,-1.19,-1.10,0.60,7.79,7.79,7.78
34.92,9.04,1.28,9.04,1.28,-1.27,-1.21,0.51,7.76,7.77,7.76
35.27,9.11,1.36,9.10,1.36,-1.36,-1.32,0.42,7.75,7.74,7.75
35.62,9.17,1.44,9.17,1.44,-1.44,-1.44,0.33,7.72,7.72,7.72
35.97,9.23,1.52,9.23,1.52,-1.53,-1.55,0.23,7.70,7.70,7.70
36.33,9.30,1.61,9.30,1.61,-1.61,-1.66,0.13,7.68,7.68,7.69
36.70,9.37,1.70,9.37,1.70,-1.71,-1.77,0.02,7.66,7.66,7.67
37.06,9.45,1.80,9.45,1.80,-1.80,-1.87,-0.08,7.65,7.65,7.65
37.43,9.53,1.89,9.52,1.90,-1.90,-1.98,-0.19,7.63,7.63,7.63
37.81,9.61,2.00,9.61,2.00,-2.00,-2.09,-0.31,7.61,7.61,7.61
38.19,9.70,2.11,9.70,2.10,-2.11,-2.20,-0.42,7.59,7.59,7.59
38.57,9.79,2.21,9.79,2.21,-2.21,-2.30,-0.54,7.57,7.57,7.57
38.95,9.88,2.33,9.88,2.33,-2.32,-2.41,-0.65,7.56,7.55,7.55
39.34,9.97,2.44,9.97,2.44,-2.43,-2.51,-0.77,7.53,7.53,7.53
39.74,10.06,2.55,10.06,2.55,-2.55,-2.61,-0.90,7.51,7.51,7.51
40.14,10.15,2.65,10.15,2.65,-2.66,-2.72,-1.02,7.50,7.49,7.50
40.54,10.25,2.77,10.25,2.77,-2.77,-2.82,-1.15,7.47,7.48,7.48
40.94,10.35,2.88,10.35,2.88,-2.88,-2.92,-1.27,7.46,7.46,7.47
41.35,10.45,3.00,10.45,3.00,-3.00,-3.02,-1.40,7.45,7.45,7.44
41.76,10.55,3.11,10.54,3.11,-3.11,-3.12,-1.53,7.44,7.44,7.44
42.18,10.64,3.21,10.64,3.22,-3.22,-3.21,-1.66,7.42,7.42,7.42
42.60,10.74,3.34,10.73,3.33,-3.33,-3.31,-1.80,7.41,7.40,7.40
43.03,10.83,3.43,10.83,3.44,-3.44,-3.40,-1.93,7.39,7.39,7.40
43.46,10.92,3.54,10.92,3.55,-3.54,-3.50,-2.07,7.37,7.37,7.37
43.90,11.01,3.66,11.00,3.65,-3.65,-3.59,-2.21,7.36,7.35,7.35
44.33,11.09,3.75,11.08,3.75,-3.75,-3.69,-2.35,7.34,7.34,7.33
44.78,11.16,3.84,11.16,3.85,-3.84,-3.78,-2.49,7.31,7.32,7.32
45.23,11.24,3.94,11.23,3.94,-3.93,-3.87,-2.63,7.30,7.30,7.29
45.68,11.30,4.02,11.30,4.02,-4.02,-3.96,-2.78,7.27,7.28,7.28
46.13,11.38,4.11,11.37,4.11,-4.11,-4.04,-2.92,7.27,7.27,7.26
46.60,11.45,4.19,11.44,4.19,-4.19,-4.13,-3.07,7.26,7.25,7.26
47.06,11.51,4.27,11.51,4.27,-4.27,-4.22,-3.22,7.23,7.24,7.24
47.53,11.58,4.35,11.57,4.34,-4.35,-4.30,-3.37,7.22,7.22,7.22
48.01,11.64,4.42,11.64,4.43,-4.44,-4.38,-3.52,7.20,7.20,7.22
48.49,11.71,4.51,11.70,4.51,-4.52,-4.47,-3.68,7.19,7.19,7.19
48.97,11.77,4.60,11.76,4.60,-4.60,-4.55,-3.83,7.17,7.17,7.16
49.46,11.83,4.69,11.82,4.69,-4.68,-4.63,-3.99,7.15,7.14,7.14
49.96,11.88,4.77,11.88,4.76,-4.76,-4.70,-4.14,7.12,7.12,7.11
50.46,11.95,4.83,11.94,4.84,-4.84,-4.78,-4.30,7.11,7.11,7.11
50.96,12.01,4.91,12.00,4.91,-4.91,-4.86,-4.46,7.09,7.09,7.09
51.47,12.06,4.99,12.06,4.99,-4.99,-4.93,-4.62,7.07,7.07,7.07
51.99,12.11,5.06,12.11,5.05,-5.05,-5.00,-4.77,7.05,7.05,7.05
52.51,12.16,5.12,12.15,5.12,-5.12,-5.08,-4.93,7.04,7.03,7.04
53.03,12.20,5.18,12.20,5.18,-5.18,-5.15,-5.08,7.01,7.02,7.02
53.56,12.25,5.25,12.24,5.24,-5.24,-5.22,-5.24,7.00,7.00,7.00
54.10,12.29,5.30,12.28,5.30,-5.30,-5.29,-5.39,6.99,6.98,6.98
54.64,12.32,5.36,12.32,5.36,-5.35,-5.35,-5.54,6.96,6.97,6.96
55.18,12.35,5.41,12.35,5.41,-5.40,-5.42,-5.68,6.95,6.95,6.94
55.74,12.38,5.46,12.37,5.45,-5.45,-5.48,-5.83,6.93,6.92,6.92
56.29,12.40,5.49,12.40,5.49,-5.49,-5.55,-5.96,6.90,6.90,6.91
56.86,12.42,5.53,12.42,5.53,-5.54,-5.61,-6.09,6.88,6.88,6.89
57.42,12.45,5.58,12.45,5.58,-5.58,-5.67,-6.22,6.86,6.86,6.86
58.00,12.48,5.62,12.48,5.63,-5.62,-5.73,-6.34,6.85,6.85,6.85
58.58,12.51,5.68,12.51,5.67,-5.67,-5.79,-6.45,6.84,6.84,6.83
59.16,12.54,5.72,12.54,5.72,-5.72,-5.85,-6.56,6.82,6.82,6.82
59.76,12.57,5.76,12.57,5.76,-5.77,-5.90,-6.65,6.80,6.80,6.80
60.35,12.60,5.82,12.60,5.81,-5.82,-5.96,-6.74,6.78,6.78,6.78
60.96,12.63,5.85,12.63,5.86,-5.87,-6.01,-6.82,6.75,6.76,6.77
61.57,12.67,5.93,12.67,5.92,-5.93,-6.07,-6.89,6.74,6.74,6.74
62.18,12.71,5.99,12.71,5.99,-5.99,-6.12,-6.95,6.72,6.72,6.71
62.80,12.75,6.05,12.74,6.05,-6.05,-6.17,-7.00,6.70,6.70,6.70
63.43,12.79,6.11,12.79,6.11,-6.11,-6.22,-7.03,6.68,6.68,6.67
64.07,12.83,6.17,12.83,6.18,-6.17,-6.27,-7.07,6.65,6.66,6.65
64.71,12.89,6.24,12.88,6.24,-6.23,-6.32,-7.09,6.65,6.65,6.65
65.35,12.93,6.30,12.93,6.29,-6.29,-6.37,-7.10,6.63,6.63,6.63
66.01,12.97,6.35,12.97,6.35,-6.35,-6.41,-7.10,6.61,6.62,6.62
66.67,13.02,6.41,13.01,6.41,-6.41,-6.46,-7.10,6.60,6.60,6.60
67.33,13.06,6.46,13.06,6.47,-6.47,-6.50,-7.09,6.59,6.59,6.59
68.01,13.10,6.52,13.10,6.53,-6.53,-6.55,-7.07,6.57,6.57,6.57
68.69,13.15,6.59,13.14,6.58,-6.58,-6.59,-7.05,6.56,6.56,6.56
69.37,13.19,6.65,13.18,6.64,-6.64,-6.63,-7.02,6.55,6.55,6.54
70.07,13.22,6.69,13.22,6.69,-6.69,-6.67,-6.99,6.53,6.53,6.53
70.77,13.26,6.74,13.26,6.74,-6.74,-6.71,-6.95,6.51,6.51,6.52
71.48,13.30,6.80,13.29,6.79,-6.79,-6.75,-6.91,6.50,6.49,6.49
72.19,13.32,6.84,13.32,6.85,-6.84,-6.79,-6.87,6.47,6.48,6.48
72.91,13.35,6.89,13.35,6.89,-6.89,-6.83,-6.83,6.45,6.45,6.45
73.64,13.38,6.95,13.37,6.94,-6.94,-6.87,-6.79,6.43,6.43,6.43
74.38,13.40,6.98,13.40,6.99,-6.99,-6.91,-6.75,6.40,6.41,6.41
75.12,13.43,7.05,13.43,7.04,-7.04,-6.94,-6.70,6.38,6.39,6.38
75.87,13.46,7.09,13.45,7.09,-7.09,-6.98,-6.66,6.37,6.36,6.36
76.63,13.48,7.13,13.48,7.14,-7.14,-7.01,-6.63,6.34,6.34,6.34
77.40,13.50,7.18,13.50,7.18,-7.18,-7.05,-6.59,6.32,6.32,6.32
78.17,13.52,7.24,13.52,7.23,-7.22,-7.08,-6.56,6.29,6.29,6.28
78.95,13.54,7.27,13.53,7.27,-7.27,-7.11,-6.53,6.27,6.26,6.27
79.74,13.55,7.31,13.54,7.31,-7.31,-7.15,-6.50,6.24,6.24,6.24
80.54,13.55,7.34,13.55,7.34,-7.35,-7.18,-6.47,6.20,6.21,6.21
81.35,13.57,7.39,13.56,7.38,-7.39,-7.21,-6.45,6.18,6.18,6.18
82.16,13.58,7.43,13.57,7.42,-7.42,-7.24,-6.44,6.15,6.15,6.15
82.98,13.58,7.45,13.58,7.46,-7.46,-7.27,-6.43,6.12,6.12,6.13
83.81,13.59,7.50,13.58,7.49,-7.49,-7.30,-6.42,6.09,6.09,6.08
84.65,13.58,7.53,13.58,7.53,-7.52,-7.32,-6.41,6.05,6.06,6.05
85.50,13.58,7.55,13.58,7.56,-7.55,-7.35,-6.42,6.02,6.03,6.03
86.35,13.58,7.58,13.57,7.58,-7.57,-7.38,-6.42,6.00,6.00,5.99
87.22,13.56,7.60,13.56,7.60,-7.59,-7.40,-6.44,5.96,5.97,5.96
88.09,13.54,7.61,13.54,7.61,-7.60,-7.43,-6.45,5.93,5.93,5.92
88.97,13.51,7.61,13.51,7.61,-7.61,-7.45,-6.47,5.89,5.89,5.90
89.86,13.48,7.61,13.48,7.62,-7.62,-7.48,-6.50,5.86,5.86,5.86
90.76,13.45,7.63,13.44,7.62,-7.62,-7.50,-6.53,5.83,5.82,5.82
91.66,13.41,7.62,13.41,7.62,-7.62,-7.52,-6.56,5.78,5.79,5.79
92.58,13.38,7.63,13.37,7.62,-7.62,-7.55,-6.61,5.75,5.75,5.74
93.51,13.34,7.61,13.34,7.62,-7.62,-7.57,-6.65,5.71,5.72,5.73
94.44,13.31,7.62,13.31,7.62,-7.62,-7.59,-6.70,5.68,5.69,5.69
95.39,13.28,7.63,13.27,7.62,-7.62,-7.61,-6.75,5.65,5.65,5.65
96.34,13.24,7.63,13.24,7.63,-7.63,-7.62,-6.81,5.61,5.61,5.60
97.30,13.20,7.63,13.20,7.63,-7.63,-7.64,-6.88,5.56,5.56,5.56
98.28,13.16,7.63,13.16,7.64,-7.64,-7.66,-6.94,5.51,5.52,5.53
99.26,13.13,7.65,13.13,7.65,-7.66,-7.68,-7.01,5.47,5.47,5.48
100.25,13.11,7.67,13.10,7.66,-7.67,-7.69,-7.09,5.44,5.43,5.44
101.25,13.08,7.68,13.08,7.69,-7.68,-7.71,-7.16,5.39,5.39,5.40
102.27,13.06,7.71,13.05,7.70,-7.70,-7.72,-7.24,5.36,5.35,5.35
103.29,13.03,7.73,13.03,7.72,-7.71,-7.73,-7.33,5.31,5.31,5.30
104.32,13.00,7.74,13.00,7.74,-7.73,-7.74,-7.41,5.27,5.27,5.26
105.37,12.97,7.75,12.96,7.74,-7.74,-7.75,-7.50,5.22,5.22,5.22
106.42,12.92,7.74,12.92,7.75,-7.75,-7.76,-7.58,5.16,5.17,5.17
107.48,12.89,7.76,12.88,7.76,-7.76,-7.77,-7.67,5.12,5.12,5.12
108.56,12.85,7.77,12.84,7.77,-7.77,-7.78,-7.75,5.07,5.07,5.07
109.64,12.81,7.78,12.81,7.78,-7.78,-7.79,-7.84,5.03,5.03,5.02
110.74,12.77,7.78,12.77,7.79,-7.79,-7.79,-7.92,4.98,4.98,4.98
111.85,12.73,7.79,12.72,7.79,-7.80,-7.80,-7.99,4.93,4.93,4.94
112.97,12.68,7.81,12.68,7.80,-7.80,-7.80,-8.07,4.87,4.87,4.87
114.10,12.63,7.80,12.63,7.81,-7.81,-7.80,-8.14,4.82,4.82,4.83
115.24,12.59,7.81,12.58,7.81,-7.81,-7.80,-8.20,4.78,4.78,4.78
116.39,12.54,7.81,12.53,7.81,-7.80,-7.80,-8.26,4.73,4.73,4.72
117.55,12.48,7.80,12.48,7.80,-7.79,-7.80,-8.31,4.68,4.68,4.67
118.73,12.42,7.79,12.42,7.79,-7.78,-7.80,-8.35,4.64,4.64,4.63
119.92,12.36,7.77,12.35,7.77,-7.76,-7.79,-8.38,4.60,4.59,4.59
121.12,12.28,7.73,12.28,7.74,-7.73,-7.79,-8.41,4.54,4.55,4.54
122.33,12.21,7.71,12.21,7.70,-7.71,-7.78,-8.42,4.50,4.50,4.50
123.55,12.13,7.66,12.13,7.67,-7.67,-7.77,-8.42,4.45,4.45,4.46
124.79,12.06,7.64,12.05,7.63,-7.64,-7.77,-8.41,4.41,4.41,4.42
126.03,11.98,7.60,11.98,7.60,-7.61,-7.76,-8.39,4.37,4.37,4.38
127.29,11.91,7.57,11.90,7.57,-7.57,-7.74,-8.36,4.33,4.33,4.34
128.57,11.83,7.54,11.83,7.54,-7.54,-7.73,-8.32,4.29,4.29,4.28
129.85,11.77,7.52,11.76,7.51,-7.51,-7.71,-8.27,4.26,4.25,4.25
131.15,11.69,7.47,11.69,7.48,-7.47,-7.70,-8.21,4.21,4.22,4.22
132.46,11.62,7.44,11.62,7.44,-7.44,-7.68,-8.14,4.18,4.18,4.17
133.79,11.56,7.41,11.55,7.41,-7.41,-7.66,-8.06,4.15,4.14,4.15
135.12,11.49,7.38,11.48,7.37,-7.37,-7.64,-7.97,4.11,4.11,4.11
136.48,11.42,7.33,11.42,7.33,-7.34,-7.62,-7.88,4.07,4.08,4.09
137.84,11.37,7.30,11.37,7.31,-7.31,-7.59,-7.78,4.05,4.05,4.07
139.22,11.32,7.29,11.31,7.28,-7.28,-7.57,-7.67,4.03,4.03,4.03
140.61,11.27,7.27,11.27,7.25,-7.25,-7.54,-7.56,4.01,4.01,4.00
142.02,11.22,7.22,11.22,7.22,-7.22,-7.51,-7.45,4.00,4.00,4.00
143.44,11.17,7.18,11.17,7.19,-7.18,-7.48,-7.33,3.98,3.98,3.98
144.87,11.12,7.16,11.11,7.15,-7.15,-7.45,-7.22,3.97,3.97,3.96
146.32,11.06,7.12,11.05,7.11,-7.11,-7.41,-7.09,3.95,3.95,3.94
147.78,10.99,7.05,10.99,7.06,-7.06,-7.37,-6.97,3.93,3.93,3.93
149.26,10.93,7.01,10.92,7.01,-7.01,-7.34,-6.85,3.91,3.91,3.92
150.75,10.86,6.96,10.86,6.96,-6.96,-7.30,-6.73,3.89,3.89,3.89
152.26,10.79,6.91,10.79,6.91,-6.91,-7.25,-6.61,3.87,3.88,3.88
153.78,10.73,6.86,10.72,6.86,-6.86,-7.21,-6.50,3.87,3.86,3.86
155.32,10.66,6.81,10.66,6.80,-6.81,-7.16,-6.38,3.85,3.85,3.85
156.88,10.59,6.75,10.59,6.75,-6.75,-7.12,-6.27,3.83,3.83,3.84
158.44,10.52,6.70,10.52,6.70,-6.70,-7.07,-6.16,3.81,3.81,3.82
160.03,10.45,6.65,10.45,6.65,-6.65,-7.02,-6.05,3.80,3.80,3.79
161.63,10.38,6.60,10.38,6.60,-6.59,-6.96,-5.95,3.78,3.78,3.77
163.24,10.31,6.54,10.30,6.54,-6.54,-6.91,-5.84,3.77,3.77,3.76
164.88,10.23,6.47,10.23,6.48,-6.48,-6.85,-5.75,3.75,3.75,3.75
166.53,10.16,6.42,10.15,6.42,-6.42,-6.79,-5.65,3.73,3.73,3.73
168.19,10.08,6.37,10.08,6.37,-6.37,-6.73,-5.57,3.71,3.71,3.71
169.87,10.00,6.31,10.00,6.31,-6.31,-6.67,-5.48,3.69,3.69,3.69
171.57,9.93,6.26,9.92,6.25,-6.25,-6.60,-5.40,3.67,3.67,3.67
173.29,9.85,6.19,9.85,6.20,-6.20,-6.53,-5.32,3.65,3.65,3.65
175.02,9.78,6.15,9.77,6.15,-6.15,-6.46,-5.25,3.63,3.62,3.63
176.77,9.69,6.10,9.69,6.09,-6.10,-6.39,-5.18,3.59,3.59,3.59
178.54,9.61,6.04,9.61,6.04,-6.05,-6.32,-5.11,3.56,3.56,3.56
180.32,9.54,6.00,9.53,5.99,-6.00,-6.25,-5.05,3.54,3.53,3.54
182.13,9.46,5.94,9.46,5.94,-5.95,-6.17,-4.99,3.51,3.51,3.51
183.95,9.38,5.90,9.38,5.90,-5.90,-6.09,-4.94,3.48,3.48,3.48
185.79,9.31,5.85,9.30,5.85,-5.84,-6.01,-4.89,3.46,3.46,3.46
187.65,9.23,5.80,9.22,5.80,-5.79,-5.92,-4.84,3.44,3.43,3.42
189.52,9.14,5.74,9.14,5.74,-5.73,-5.84,-4.80,3.40,3.41,3.40
191.42,9.06,5.68,9.06,5.68,-5.68,-5.75,-4.76,3.38,3.38,3.38
193.33,8.98,5.61,8.97,5.61,-5.61,-5.66,-4.72,3.36,3.36,3.37
195.27,8.89,5.54,8.89,5.54,-5.55,-5.57,-4.69,3.34,3.34,3.34
197.22,8.80,5.47,8.80,5.48,-5.48,-5.48,-4.66,3.31,3.32,3.32
199.19,8.71,5.42,8.71,5.42,-5.41,-5.38,-4.63,3.29,3.30,3.28
201.18,8.63,5.35,8.62,5.35,-5.34,-5.29,-4.60,3.28,3.28,3.27
203.19,8.53,5.26,8.53,5.27,-5.27,-5.19,-4.58,3.26,3.26,3.26
205.23,8.44,5.19,8.44,5.19,-5.20,-5.09,-4.55,3.24,3.24,3.24
207.28,8.36,5.11,8.35,5.12,-5.12,-4.99,-4.53,3.23,3.23,3.24
209.35,8.26,5.04,8.26,5.05,-5.05,-4.88,-4.51,3.21,3.22,3.21
211.44,8.18,4.98,8.17,4.97,-4.97,-4.78,-4.49,3.21,3.20,3.19
213.56,8.08,4.89,8.08,4.89,-4.89,-4.67,-4.47,3.19,3.19,3.19
215.69,7.99,4.80,7.99,4.80,-4.81,-4.56,-4.45,3.18,3.18,3.19
217.85,7.90,4.72,7.90,4.72,-4.73,-4.45,-4.43,3.17,3.17,3.18
220.03,7.81,4.64,7.81,4.64,-4.64,-4.34,-4.41,3.16,3.16,3.16
222.23,7.73,4.57,7.72,4.56,-4.56,-4.22,-4.39,3.17,3.16,3.15
224.45,7.64,4.47,7.64,4.48,-4.47,-4.11,-4.36,3.16,3.16,3.17
226.70,7.55,4.39,7.55,4.39,-4.39,-3.99,-4.34,3.16,3.17,3.16
228.96,7.48,4.31,7.47,4.30,-4.30,-3.87,-4.31,3.17,3.17,3.16
231.25,7.39,4.21,7.38,4.21,-4.21,-3.75,-4.27,3.17,3.17,3.18
233.57,7.30,4.11,7.30,4.12,-4.12,-3.63,-4.23,3.17,3.18,3.19
235.90,7.22,4.02,7.22,4.02,-4.03,-3.50,-4.19,3.19,3.19,3.19
238.26,7.15,3.95,7.14,3.94,-3.93,-3.38,-4.14,3.21,3.21,3.20
240.64,7.06,3.83,7.06,3.84,-3.83,-3.25,-4.09,3.22,3.23,3.22
243.05,6.98,3.74,6.97,3.73,-3.73,-3.13,-4.03,3.25,3.24,3.24
245.48,6.88,3.61,6.88,3.62,-3.62,-3.00,-3.96,3.26,3.26,3.26
247.93,6.79,3.51,6.79,3.51,-3.50,-2.87,-3.89,3.28,3.28,3.28
250.41,6.69,3.39,6.69,3.39,-3.38,-2.74,-3.81,3.31,3.31,3.29
252.92,6.59,3.26,6.58,3.25,-3.25,-2.61,-3.73,3.33,3.33,3.33
255.45,6.47,3.11,6.47,3.12,-3.12,-2.47,-3.64,3.35,3.35,3.35
258.00,6.36,2.98,6.36,2.98,-2.98,-2.34,-3.54,3.37,3.37,3.38
260.58,6.25,2.85,6.24,2.84,-2.84,-2.20,-3.44,3.40,3.40,3.40
263.19,6.13,2.70,6.13,2.70,-2.70,-2.07,-3.33,3.42,3.42,3.42
265.82,6.01,2.56,6.01,2.56,-2.56,-1.93,-3.21,3.44,3.45,3.45
268.48,5.90,2.42,5.90,2.42,-2.42,-1.80,-3.09,3.47,3.47,3.47
271.16,5.79,2.27,5.78,2.28,-2.28,-1.66,-2.97,3.50,3.50,3.51
273.87,5.67,2.14,5.67,2.14,-2.14,-1.52,-2.83,3.52,3.53,3.53
276.61,5.56,1.99,5.56,2.00,-2.00,-1.38,-2.70,3.56,3.56,3.56
279.38,5.45,1.86,5.44,1.86,-1.86,-1.24,-2.56,3.59,3.59,3.58
282.17,5.33,1.72,5.32,1.71,-1.71,-1.10,-2.41,3.62,3.61,3.61
284.99,5.20,1.56,5.20,1.56,-1.56,-0.96,-2.26,3.63,3.64,3.64
287.84,5.07,1.40,5.07,1.41,-1.41,-0.82,-2.11,3.65,3.66,3.66
290.72,4.95,1.25,4.94,1.25,-1.25,-0.68,-1.95,3.69,3.69,3.70
293.63,4.82,1.10,4.81,1.09,-1.09,-0.53,-1.79,3.72,3.72,3.72
296.57,4.68,0.92,4.68,0.93,-0.92,-0.39,-1.63,3.76,3.76,3.75
299.53,4.54,0.75,4.53,0.75,-0.74,-0.25,-1.47,3.79,3.79,3.78
302.53,4.38,0.57,4.38,0.56,-0.56,-0.11,-1.30,3.82,3.82,3.81
305.55,4.22,0.36,4.22,0.37,-0.36,0.04,-1.13,3.86,3.86,3.86
308.61,4.06,0.17,4.05,0.16,-0.16,0.18,-0.97,3.90,3.90,3.89
311.69,3.88,-0.05,3.88,-0.05,0.05,0.32,-0.79,3.93,3.93,3.92
314.81,3.70,-0.27,3.69,-0.26,0.27,0.47,-0.62,3.97,3.96,3.96
317.96,3.50,-0.49,3.50,-0.49,0.49,0.61,-0.45,3.98,3.99,3.99
321.14,3.32,-0.70,3.31,-0.71,0.70,0.75,-0.27,4.02,4.01,4.02
324.35,3.12,-0.93,3.12,-0.93,0.91,0.89,-0.10,4.03,4.03,4.05
327.59,2.95,-1.14,2.95,-1.14,1.12,1.03,0.08,4.06,4.06,4.08
330.87,2.78,-1.34,2.77,-1.34,1.32,1.18,0.26,4.10,4.10,4.11
334.18,2.61,-1.53,2.61,-1.53,1.53,1.32,0.44,4.13,4.14,4.13
337.52,2.45,-1.71,2.45,-1.71,1.73,1.46,0.62,4.18,4.18,4.16
340.90,2.28,-1.91,2.27,-1.91,1.93,1.60,0.80,4.21,4.21,4.19
344.30,2.10,-2.11,2.09,-2.12,2.14,1.74,0.98,4.24,4.23,4.21
347.75,1.90,-2.34,1.90,-2.34,2.34,1.88,1.17,4.24,4.24,4.24
351.23,1.70,-2.56,1.70,-2.56,2.55,2.01,1.35,4.25,4.25,4.25
354.74,1.50,-2.78,1.51,-2.77,2.76,2.15,1.54,4.25,4.26,4.27
358.28,1.33,-2.97,1.33,-2.97,2.96,2.29,1.72,4.28,4.29,4.29
361.87,1.17,-3.14,1.16,-3.16,3.16,2.42,1.91,4.32,4.31,4.31
365.49,1.00,-3.34,1.00,-3.34,3.34,2.55,2.10,4.34,4.34,4.34
369.14,0.84,-3.51,0.84,-3.51,3.52,2.69,2.29,4.36,4.36,4.35
372.83,0.69,-3.68,0.69,-3.68,3.68,2.82,2.48,4.37,4.37,4.37
376.56,0.56,-3.83,0.55,-3.84,3.83,2.95,2.68,4.39,4.39,4.39
380.33,0.43,-3.99,0.43,-3.98,3.97,3.08,2.87,4.40,4.40,4.42
384.13,0.34,-4.10,0.33,-4.10,4.09,3.21,3.06,4.42,4.42,4.44
387.97,0.25,-4.21,0.25,-4.21,4.19,3.33,3.26,4.44,4.44,4.45
391.85,0.19,-4.29,0.19,-4.29,4.28,3.46,3.46,4.46,4.47,4.47
395.77,0.15,-4.36,0.14,-4.36,4.35,3.58,3.65,4.49,4.49,4.50
399.73,0.12,-4.41,0.11,-4.41,4.41,3.70,3.85,4.52,4.52,4.52
403.72,0.09,-4.46,0.09,-4.46,4.46,3.82,4.05,4.54,4.55,4.54
407.76,0.07,-4.49,0.06,-4.50,4.51,3.94,4.24,4.57,4.57,4.56
411.84,0.04,-4.55,0.04,-4.55,4.55,4.06,4.44,4.59,4.59,4.59
415.96,0.02,-4.59,0.02,-4.59,4.60,4.17,4.64,4.62,4.62,4.61
420.12,-0.01,-4.64,-0.02,-4.65,4.65,4.28,4.83,4.64,4.63,4.63
424.32,-0.05,-4.71,-0.06,-4.71,4.71,4.39,5.03,4.65,4.65,4.66
428.56,-0.11,-4.79,-0.11,-4.79,4.78,4.50,5.22,4.66,4.67,4.68
432.85,-0.17,-4.87,-0.17,-4.87,4.86,4.61,5.40,4.69,4.69,4.70
437.18,-0.23,-4.96,-0.23,-4.96,4.98,4.71,5.59,4.75,4.75,4.73
441.55,-0.31,-5.07,-0.31,-5.06,5.12,4.81,5.77,4.81,4.81,4.76
445.96,-0.40,-5.18,-0.42,-5.20,5.27,4.91,5.94,4.87,4.85,4.78
450.42,-0.56,-5.36,-0.57,-5.37,5.43,5.01,6.11,4.86,4.86,4.80
454.93,-0.74,-5.58,-0.73,-5.56,5.58,5.11,6.27,4.83,4.84,4.83
459.48,-0.92,-5.78,-0.92,-5.78,5.71,5.20,6.42,4.79,4.79,4.85
464.07,-1.10,-5.99,-1.11,-6.00,5.83,5.29,6.57,4.73,4.72,4.88
468.71,-1.30,-6.23,-1.30,-6.21,5.93,5.37,6.70,4.62,4.63,4.92
473.40,-1.49,-6.44,-1.49,-6.44,5.99,5.46,6.83,4.50,4.50,4.94
478.13,-1.69,-6.67,-1.70,-6.67,6.03,5.54,6.94,4.34,4.33,4.97
482.91,-1.90,-6.91,-1.90,-6.91,6.04,5.62,7.05,4.14,4.14,5.00
487.74,-2.12,-7.16,-2.12,-7.15,6.03,5.69,7.13,3.91,3.91,5.03
492.62,-2.34,-7.41,-2.35,-7.41,6.02,5.77,7.21,3.67,3.67,5.06
497.55,-2.57,-7.66,-2.58,-7.67,6.00,5.84,7.28,3.43,3.42,5.08
502.52,-2.81,-7.94,-2.81,-7.93,6.00,5.91,7.33,3.19,3.19,5.12
507.55,-3.03,-8.17,-3.03,-8.17,6.00,5.97,7.36,2.97,2.97,5.14
512.62,-3.22,-8.39,-3.23,-8.40,6.00,6.03,7.39,2.78,2.77,5.17
517.75,-3.38,-8.58,-3.38,-8.58,6.00,6.09,7.40,2.62,2.62,5.20
522.93,-3.50,-8.73,-3.49,-8.72,6.00,6.15,7.40,2.50,2.51,5.23
528.16,-3.55,-8.80,-3.56,-8.81,6.00,6.20,7.39,2.45,2.44,5.25
