frequency,raw,error,smoothed,error_smoothed,equalization,parametric_eq,fixed_band_eq,equalized_raw,equalized_smoothed,target
20.00,12.53,6.54,12.53,6.53,-6.58,-5.15,-2.58,5.96,5.95,5.99
20.20,12.53,6.55,12.54,6.55,-6.57,-5.15,-2.66,5.97,5.97,5.98
20.40,12.53,6.55,12.54,6.56,-6.55,-5.15,-2.73,5.98,5.99,5.98
20.61,12.53,6.55,12.54,6.56,-6.54,-5.15,-2.81,5.99,6.00,5.98
20.81,12.53,6.57,12.54,6.57,-6.52,-5.15,-2.89,6.01,6.01,5.96
21.02,12.53,6.57,12.52,6.56,-6.51,-5.15,-2.97,6.03,6.01,5.96
21.23,12.48,6.52,12.49,6.52,-6.49,-5.15,-3.06,6.00,6.00,5.96
21.44,12.43,6.46,12.44,6.47,-6.47,-5.15,-3.15,5.97,5.97,5.97
21.66,12.38,6.42,12.38,6.41,-6.44,-5.15,-3.23,5.95,5.94,5.96
21.87,12.33,6.36,12.34,6.37,-6.41,-5.15,-3.33,5.92,5.93,5.97
22.09,12.30,6.34,12.31,6.35,-6.38,-5.15,-3.42,5.92,5.93,5.96
22.31,12.30,6.33,12.30,6.34,-6.36,-5.15,-3.52,5.95,5.94,5.97
22.54,12.30,6.34,12.31,6.34,-6.33,-5.15,-3.62,5.97,5.97,5.96
22.76,12.30,6.34,12.31,6.34,-6.31,-5.15,-3.72,6.00,6.00,5.97
22.99,12.30,6.34,12.29,6.32,-6.28,-5.15,-3.83,6.02,6.01,5.97
23.22,12.25,6.29,12.25,6.28,-6.25,-5.15,-3.94,6.00,6.00,5.97
23.45,12.19,6.22,12.20,6.23,-6.22,-5.15,-4.04,5.97,5.98,5.98
23.69,12.14,6.17,12.14,6.17,-6.19,-5.15,-4.16,5.95,5.95,5.98
23.92,12.09,6.12,12.10,6.12,-6.16,-5.15,-4.27,5.93,5.94,5.98
24.16,12.07,6.09,12.08,6.09,-6.13,-5.15,-4.39,5.95,5.95,5.98
24.40,12.07,6.08,12.07,6.08,-6.10,-5.15,-4.51,5.98,5.98,5.99
24.65,12.07,6.08,12.08,6.08,-6.06,-5.15,-4.63,6.01,6.01,5.99
24.89,12.07,6.08,12.07,6.07,-6.03,-5.15,-4.75,6.04,6.04,5.99
25.14,12.04,6.05,12.04,6.04,-6.00,-5.15,-4.87,6.04,6.03,5.99
25.39,11.98,5.98,11.98,5.99,-5.97,-5.15,-5.00,6.01,6.01,6.00
25.65,11.92,5.92,11.92,5.93,-5.95,-5.15,-5.12,5.98,5.98,6.00
25.91,11.86,5.88,11.87,5.88,-5.92,-5.15,-5.25,5.94,5.95,5.99
26.16,11.84,5.85,11.85,5.85,-5.89,-5.15,-5.37,5.95,5.96,6.00
26.43,11.84,5.85,11.84,5.85,-5.86,-5.15,-5.50,5.99,5.99,6.00
26.69,11.84,5.85,11.85,5.85,-5.83,-5.15,-5.62,6.02,6.02,6.00
26.96,11.84,5.86,11.83,5.84,-5.80,-5.15,-5.74,6.05,6.03,5.99
27.23,11.79,5.81,11.79,5.81,-5.77,-5.15,-5.86,6.02,6.02,5.98
27.50,11.73,5.75,11.74,5.75,-5.75,-5.15,-5.98,5.98,5.99,5.98
27.77,11.68,5.69,11.68,5.70,-5.73,-5.15,-6.09,5.95,5.95,5.99
28.05,11.63,5.65,11.64,5.66,-5.70,-5.15,-6.20,5.93,5.94,5.98
28.33,11.62,5.64,11.63,5.65,-5.67,-5.14,-6.31,5.96,5.96,5.98
28.62,11.62,5.66,11.62,5.65,-5.63,-5.14,-6.41,5.99,5.99,5.97
28.90,11.61,5.64,11.61,5.64,-5.60,-5.14,-6.50,6.01,6.01,5.98
29.19,11.57,5.61,11.57,5.60,-5.58,-5.14,-6.58,6.00,5.99,5.97
29.48,11.51,5.56,11.51,5.55,-5.56,-5.14,-6.66,5.96,5.96,5.95
29.78,11.45,5.50,11.46,5.51,-5.54,-5.14,-6.73,5.92,5.92,5.95
30.08,11.41,5.46,11.42,5.48,-5.51,-5.14,-6.79,5.90,5.91,5.95
30.38,11.40,5.47,11.41,5.47,-5.48,-5.14,-6.84,5.92,5.93,5.93
30.68,11.40,5.48,11.40,5.48,-5.45,-5.13,-6.88,5.96,5.95,5.93
30.99,11.39,5.48,11.38,5.46,-5.42,-5.13,-6.91,5.98,5.96,5.92
31.30,11.32,5.42,11.32,5.42,-5.39,-5.13,-6.93,5.94,5.94,5.90
31.61,11.25,5.35,11.26,5.36,-5.36,-5.13,-6.94,5.89,5.89,5.90
31.93,11.18,5.30,11.20,5.31,-5.35,-5.13,-6.93,5.84,5.85,5.88
32.24,11.16,5.28,11.17,5.29,-5.33,-5.13,-6.93,5.83,5.84,5.89
32.57,11.16,5.29,11.16,5.28,-5.31,-5.12,-6.90,5.85,5.85,5.88
32.89,11.16,5.29,11.16,5.29,-5.29,-5.12,-6.88,5.87,5.87,5.87
33.22,11.16,5.29,11.17,5.30,-5.27,-5.12,-6.84,5.89,5.89,5.87
33.55,11.16,5.30,11.17,5.30,-5.26,-5.12,-6.79,5.91,5.91,5.87
33.89,11.16,5.29,11.15,5.28,-5.24,-5.11,-6.73,5.93,5.91,5.88
34.23,11.11,5.25,11.10,5.23,-5.21,-5.11,-6.68,5.90,5.89,5.86
34.57,11.03,5.16,11.04,5.16,-5.19,-5.11,-6.61,5.85,5.85,5.87
34.92,10.95,5.09,10.97,5.10,-5.15,-5.10,-6.54,5.81,5.83,5.87
35.27,10.93,5.06,10.94,5.08,-5.10,-5.10,-6.46,5.83,5.84,5.87
35.62,10.93,5.08,10.93,5.07,-5.06,-5.10,-6.38,5.87,5.87,5.85
35.97,10.93,5.08,10.91,5.06,-5.03,-5.09,-6.30,5.90,5.88,5.85
36.33,10.85,5.01,10.85,5.01,-5.00,-5.09,-6.21,5.85,5.85,5.84
36.70,10.77,4.95,10.78,4.96,-4.97,-5.08,-6.12,5.80,5.81,5.82
37.06,10.70,4.90,10.73,4.92,-4.94,-5.08,-6.04,5.76,5.78,5.81
37.43,10.70,4.91,10.71,4.92,-4.91,-5.07,-5.95,5.79,5.79,5.79
37.81,10.70,4.93,10.69,4.91,-4.89,-5.07,-5.86,5.82,5.80,5.77
38.19,10.66,4.91,10.64,4.89,-4.86,-5.06,-5.78,5.80,5.78,5.76
38.57,10.57,4.84,10.58,4.85,-4.85,-5.05,-5.69,5.72,5.72,5.73
38.95,10.48,4.78,10.51,4.81,-4.85,-5.05,-5.60,5.63,5.66,5.71
39.34,10.47,4.81,10.47,4.80,-4.85,-5.04,-5.52,5.62,5.62,5.66
39.74,10.47,4.84,10.47,4.83,-4.85,-5.03,-5.44,5.62,5.61,5.64
40.14,10.47,4.86,10.48,4.87,-4.85,-5.03,-5.36,5.63,5.63,5.61
40.54,10.47,4.89,10.48,4.89,-4.85,-5.02,-5.29,5.63,5.63,5.59
40.94,10.47,4.92,10.45,4.89,-4.85,-5.01,-5.22,5.63,5.60,5.55
41.35,10.39,4.86,10.39,4.85,-4.84,-5.00,-5.15,5.55,5.54,5.54
41.76,10.30,4.79,10.32,4.81,-4.83,-4.99,-5.08,5.47,5.49,5.51
42.18,10.25,4.76,10.28,4.78,-4.81,-4.98,-5.02,5.45,5.47,5.49
42.60,10.25,4.79,10.25,4.78,-4.78,-4.97,-4.96,5.48,5.47,5.47
43.03,10.24,4.80,10.21,4.76,-4.75,-4.96,-4.90,5.50,5.46,5.44
43.46,10.14,4.73,10.14,4.73,-4.72,-4.95,-4.85,5.42,5.42,5.41
43.90,10.04,4.65,10.08,4.68,-4.70,-4.94,-4.80,5.34,5.37,5.40
44.33,10.02,4.65,10.03,4.66,-4.69,-4.92,-4.76,5.34,5.34,5.37
44.78,10.02,4.68,10.01,4.66,-4.67,-4.91,-4.72,5.35,5.34,5.34
45.23,10.00,4.67,10.00,4.68,-4.66,-4.90,-4.68,5.34,5.34,5.33
45.68,9.97,4.68,9.97,4.68,-4.65,-4.88,-4.64,5.32,5.32,5.30
46.13,9.93,4.68,9.92,4.65,-4.64,-4.87,-4.61,5.29,5.27,5.26
46.60,9.85,4.63,9.86,4.63,-4.64,-4.86,-4.58,5.21,5.22,5.23
47.06,9.79,4.58,9.82,4.62,-4.64,-4.84,-4.56,5.16,5.18,5.21
47.53,9.79,4.61,9.79,4.62,-4.63,-4.83,-4.54,5.16,5.16,5.18
48.01,9.79,4.66,9.77,4.63,-4.62,-4.81,-4.52,5.17,5.15,5.13
48.49,9.73,4.63,9.73,4.63,-4.62,-4.79,-4.51,5.12,5.12,5.10
48.97,9.66,4.60,9.67,4.61,-4.61,-4.78,-4.49,5.05,5.06,5.06
49.46,9.61,4.59,9.61,4.59,-4.60,-4.76,-4.49,5.01,5.01,5.03
49.96,9.56,4.59,9.58,4.59,-4.59,-4.74,-4.48,4.98,4.99,4.98
50.46,9.54,4.60,9.55,4.60,-4.57,-4.72,-4.48,4.97,4.97,4.95
50.96,9.52,4.60,9.49,4.57,-4.56,-4.71,-4.47,4.96,4.93,4.92
51.47,9.43,4.54,9.43,4.54,-4.56,-4.69,-4.48,4.87,4.87,4.89
51.99,9.33,4.49,9.37,4.52,-4.55,-4.67,-4.48,4.78,4.82,4.85
52.51,9.33,4.52,9.33,4.51,-4.55,-4.65,-4.48,4.78,4.78,4.81
53.03,9.33,4.54,9.33,4.56,-4.55,-4.64,-4.49,4.79,4.79,4.79
53.56,9.33,4.60,9.33,4.59,-4.55,-4.62,-4.50,4.78,4.78,4.74
54.10,9.31,4.62,9.28,4.58,-4.56,-4.60,-4.50,4.76,4.72,4.69
54.64,9.19,4.54,9.21,4.56,-4.56,-4.59,-4.51,4.63,4.65,4.65
55.18,9.11,4.51,9.14,4.54,-4.56,-4.57,-4.52,4.55,4.58,4.61
55.74,9.11,4.54,9.12,4.54,-4.56,-4.56,-4.53,4.56,4.56,4.57
56.29,9.11,4.58,9.11,4.57,-4.55,-4.55,-4.54,4.57,4.57,4.53
56.86,9.11,4.60,9.07,4.57,-4.54,-4.53,-4.55,4.58,4.54,4.52
57.42,9.01,4.54,9.00,4.53,-4.52,-4.52,-4.56,4.49,4.48,4.47
58.00,8.88,4.44,8.93,4.49,-4.51,-4.51,-4.56,4.38,4.42,4.44
58.58,8.88,4.46,8.89,4.47,-4.49,-4.51,-4.57,4.39,4.39,4.42
59.16,8.88,4.48,8.88,4.49,-4.48,-4.50,-4.57,4.40,4.40,4.40
59.76,8.88,4.52,8.85,4.49,-4.47,-4.49,-4.58,4.41,4.38,4.36
60.35,8.80,4.50,8.78,4.47,-4.47,-4.49,-4.58,4.33,4.31,4.31
60.96,8.66,4.40,8.71,4.45,-4.48,-4.49,-4.57,4.19,4.24,4.27
61.57,8.65,4.44,8.66,4.45,-4.48,-4.49,-4.57,4.17,4.18,4.21
62.18,8.65,4.50,8.65,4.48,-4.48,-4.49,-4.56,4.17,4.16,4.16
62.80,8.65,4.54,8.64,4.53,-4.49,-4.49,-4.56,4.17,4.16,4.11
63.43,8.61,4.54,8.60,4.53,-4.49,-4.49,-4.54,4.12,4.11,4.07
64.07,8.54,4.51,8.54,4.51,-4.50,-4.49,-4.53,4.04,4.04,4.03
64.71,8.46,4.47,8.48,4.48,-4.52,-4.50,-4.52,3.95,3.96,4.00
65.35,8.42,4.47,8.44,4.49,-4.52,-4.50,-4.50,3.90,3.91,3.95
66.01,8.42,4.52,8.42,4.52,-4.53,-4.51,-4.48,3.89,3.89,3.90
66.67,8.42,4.56,8.42,4.56,-4.53,-4.51,-4.46,3.89,3.88,3.86
67.33,8.39,4.58,8.38,4.57,-4.54,-4.52,-4.43,3.85,3.84,3.81
68.01,8.33,4.56,8.32,4.55,-4.55,-4.53,-4.41,3.79,3.78,3.77
68.69,8.24,4.52,8.26,4.53,-4.55,-4.53,-4.38,3.69,3.71,3.72
69.37,8.20,4.52,8.23,4.54,-4.55,-4.54,-4.36,3.65,3.68,3.69
70.07,8.20,4.57,8.20,4.57,-4.55,-4.55,-4.33,3.65,3.65,3.64
70.77,8.20,4.61,8.16,4.57,-4.55,-4.55,-4.30,3.65,3.61,3.59
71.48,8.09,4.56,8.09,4.55,-4.56,-4.56,-4.27,3.54,3.53,3.54
72.19,7.97,4.48,8.02,4.53,-4.57,-4.57,-4.25,3.41,3.45,3.49
72.91,7.97,4.53,7.97,4.53,-4.58,-4.57,-4.22,3.40,3.39,3.45
73.64,7.97,4.59,7.97,4.57,-4.58,-4.58,-4.19,3.39,3.39,3.39
74.38,7.97,4.62,7.98,4.63,-4.58,-4.58,-4.17,3.39,3.40,3.35
75.12,7.96,4.65,7.95,4.64,-4.58,-4.59,-4.14,3.38,3.37,3.31
75.87,7.91,4.62,7.89,4.61,-4.59,-4.59,-4.12,3.32,3.30,3.29
76.63,7.80,4.55,7.82,4.57,-4.59,-4.59,-4.10,3.21,3.23,3.25
77.40,7.74,4.53,7.76,4.54,-4.59,-4.60,-4.08,3.15,3.17,3.22
78.17,7.74,4.56,7.74,4.56,-4.58,-4.60,-4.06,3.17,3.17,3.19
78.95,7.74,4.58,7.74,4.58,-4.56,-4.60,-4.04,3.19,3.19,3.16
79.74,7.74,4.61,7.72,4.59,-4.54,-4.60,-4.03,3.20,3.18,3.13
80.54,7.66,4.56,7.65,4.55,-4.54,-4.60,-4.02,3.13,3.12,3.10
81.35,7.56,4.50,7.58,4.51,-4.53,-4.60,-4.01,3.03,3.05,3.07
82.16,7.51,4.46,7.53,4.48,-4.53,-4.60,-4.00,2.98,2.99,3.05
82.98,7.51,4.50,7.51,4.50,-4.53,-4.60,-4.00,2.98,2.98,3.01
83.81,7.51,4.54,7.52,4.54,-4.52,-4.60,-4.00,2.99,2.99,2.98
84.65,7.51,4.58,7.49,4.56,-4.52,-4.60,-4.00,2.99,2.98,2.94
85.50,7.45,4.57,7.43,4.54,-4.52,-4.59,-4.01,2.94,2.92,2.89
86.35,7.34,4.49,7.36,4.51,-4.51,-4.59,-4.01,2.83,2.85,2.86
87.22,7.28,4.47,7.32,4.50,-4.50,-4.59,-4.03,2.78,2.81,2.82
88.09,7.28,4.51,7.27,4.50,-4.50,-4.59,-4.04,2.79,2.78,2.78
88.97,7.28,4.55,7.23,4.49,-4.49,-4.58,-4.06,2.79,2.74,2.73
89.86,7.13,4.44,7.16,4.47,-4.48,-4.58,-4.08,2.65,2.68,2.69
90.76,7.07,4.43,7.10,4.45,-4.48,-4.58,-4.10,2.59,2.61,2.65
91.66,7.06,4.46,7.06,4.45,-4.49,-4.57,-4.13,2.58,2.57,2.60
92.58,7.06,4.49,7.07,4.50,-4.49,-4.57,-4.16,2.58,2.58,2.57
93.51,7.06,4.54,7.07,4.54,-4.49,-4.57,-4.19,2.57,2.57,2.52
94.44,7.05,4.57,7.02,4.54,-4.51,-4.56,-4.22,2.55,2.52,2.49
95.39,6.96,4.53,6.95,4.52,-4.52,-4.56,-4.26,2.44,2.43,2.43
96.34,6.83,4.46,6.88,4.50,-4.54,-4.56,-4.30,2.30,2.34,2.38
97.30,6.83,4.49,6.83,4.50,-4.55,-4.55,-4.34,2.29,2.28,2.34
98.28,6.83,4.55,6.83,4.54,-4.55,-4.55,-4.39,2.29,2.28,2.28
99.26,6.83,4.60,6.84,4.60,-4.55,-4.55,-4.43,2.29,2.29,2.24
100.25,6.82,4.62,6.80,4.60,-4.55,-4.55,-4.48,2.27,2.25,2.20
101.25,6.75,4.59,6.73,4.57,-4.56,-4.55,-4.53,2.19,2.17,2.16
102.27,6.60,4.48,6.66,4.53,-4.57,-4.55,-4.59,2.04,2.09,2.12
103.29,6.60,4.52,6.60,4.52,-4.57,-4.55,-4.64,2.04,2.04,2.09
104.32,6.60,4.55,6.60,4.54,-4.56,-4.55,-4.69,2.05,2.04,2.06
105.37,6.60,4.58,6.61,4.59,-4.54,-4.55,-4.75,2.06,2.07,2.02
106.42,6.60,4.61,6.57,4.58,-4.53,-4.55,-4.80,2.07,2.03,1.99
107.48,6.50,4.56,6.50,4.54,-4.54,-4.55,-4.86,1.97,1.96,1.94
108.56,6.38,4.46,6.43,4.50,-4.54,-4.55,-4.91,1.85,1.89,1.93
109.64,6.37,4.48,6.37,4.48,-4.54,-4.55,-4.97,1.84,1.84,1.89
110.74,6.37,4.51,6.37,4.51,-4.52,-4.55,-5.02,1.85,1.84,1.86
111.85,6.37,4.55,6.39,4.56,-4.51,-4.55,-5.07,1.86,1.88,1.82
112.97,6.37,4.58,6.35,4.56,-4.51,-4.55,-5.12,1.87,1.84,1.80
114.10,6.33,4.57,6.28,4.53,-4.51,-4.56,-5.16,1.82,1.77,1.76
115.24,6.14,4.43,6.21,4.49,-4.53,-4.56,-5.20,1.62,1.68,1.71
116.39,6.14,4.48,6.15,4.48,-4.53,-4.56,-5.24,1.61,1.61,1.67
117.55,6.14,4.51,6.13,4.50,-4.53,-4.56,-5.28,1.61,1.59,1.63
118.73,6.14,4.56,6.16,4.57,-4.53,-4.56,-5.31,1.61,1.62,1.59
119.92,6.14,4.60,6.14,4.59,-4.53,-4.56,-5.33,1.61,1.61,1.54
121.12,6.13,4.61,6.09,4.58,-4.55,-4.56,-5.36,1.59,1.54,1.52
122.33,5.99,4.53,6.02,4.55,-4.56,-4.55,-5.37,1.44,1.46,1.47
123.55,5.92,4.49,5.95,4.52,-4.57,-4.55,-5.39,1.36,1.39,1.43
124.79,5.92,4.53,5.92,4.53,-4.56,-4.55,-5.39,1.36,1.35,1.39
126.03,5.92,4.58,5.93,4.58,-4.56,-4.54,-5.39,1.36,1.37,1.35
127.29,5.92,4.63,5.90,4.60,-4.56,-4.54,-5.38,1.36,1.34,1.30
128.57,5.87,4.62,5.84,4.58,-4.57,-4.53,-5.38,1.31,1.27,1.26
129.85,5.71,4.51,5.76,4.55,-4.58,-4.53,-5.36,1.14,1.19,1.21
131.15,5.69,4.53,5.70,4.54,-4.58,-4.52,-5.34,1.11,1.12,1.17
132.46,5.69,4.57,5.68,4.56,-4.58,-4.52,-5.31,1.11,1.10,1.12
133.79,5.69,4.61,5.70,4.62,-4.58,-4.51,-5.29,1.12,1.12,1.08
135.12,5.68,4.65,5.67,4.62,-4.57,-4.50,-5.25,1.11,1.09,1.04
136.48,5.63,4.62,5.60,4.59,-4.58,-4.50,-5.22,1.05,1.02,1.01
137.84,5.48,4.51,5.53,4.56,-4.59,-4.49,-5.17,0.90,0.94,0.97
139.22,5.46,4.53,5.47,4.54,-4.59,-4.49,-5.13,0.87,0.88,0.93
140.61,5.46,4.57,5.45,4.55,-4.59,-4.49,-5.09,0.87,0.86,0.90
142.02,5.46,4.60,5.48,4.61,-4.58,-4.48,-5.04,0.89,0.90,0.86
143.44,5.46,4.63,5.46,4.63,-4.57,-4.48,-4.99,0.90,0.90,0.83
144.87,5.46,4.65,5.41,4.60,-4.57,-4.48,-4.94,0.90,0.84,0.81
146.32,5.31,4.53,5.34,4.56,-4.57,-4.48,-4.89,0.74,0.77,0.78
147.78,5.23,4.49,5.27,4.52,-4.57,-4.48,-4.84,0.66,0.69,0.74
149.26,5.23,4.52,5.22,4.51,-4.57,-4.48,-4.80,0.67,0.65,0.71
150.75,5.23,4.56,5.23,4.55,-4.55,-4.48,-4.75,0.68,0.68,0.68
152.26,5.23,4.57,5.25,4.59,-4.54,-4.48,-4.70,0.70,0.71,0.66
153.78,5.23,4.61,5.21,4.58,-4.53,-4.48,-4.65,0.71,0.68,0.62
155.32,5.18,4.58,5.15,4.55,-4.53,-4.49,-4.61,0.66,0.62,0.60
156.88,5.02,4.46,5.07,4.51,-4.54,-4.49,-4.56,0.49,0.54,0.56
158.44,5.00,4.47,5.01,4.48,-4.54,-4.50,-4.52,0.46,0.47,0.53
160.03,5.00,4.50,4.99,4.49,-4.55,-4.51,-4.48,0.46,0.44,0.50
161.63,5.00,4.54,5.00,4.54,-4.54,-4.51,-4.45,0.47,0.47,0.47
163.24,5.00,4.58,5.01,4.59,-4.53,-4.52,-4.41,0.47,0.48,0.43
164.88,5.00,4.61,4.99,4.60,-4.54,-4.53,-4.38,0.47,0.46,0.40
166.53,4.97,4.62,4.94,4.58,-4.55,-4.54,-4.36,0.42,0.39,0.36
168.19,4.85,4.51,4.87,4.54,-4.56,-4.55,-4.33,0.29,0.31,0.34
169.87,4.78,4.48,4.81,4.51,-4.56,-4.56,-4.31,0.22,0.25,0.30
171.57,4.78,4.52,4.78,4.51,-4.55,-4.57,-4.29,0.23,0.22,0.27
173.29,4.78,4.55,4.79,4.57,-4.54,-4.58,-4.27,0.24,0.25,0.23
175.02,4.78,4.59,4.78,4.59,-4.54,-4.59,-4.26,0.25,0.24,0.19
176.77,4.78,4.63,4.72,4.57,-4.54,-4.60,-4.25,0.24,0.18,0.15
178.54,4.60,4.49,4.65,4.54,-4.55,-4.61,-4.25,0.05,0.10,0.12
180.32,4.55,4.48,4.58,4.51,-4.56,-4.62,-4.25,-0.00,0.02,0.07
182.13,4.55,4.52,4.54,4.51,-4.55,-4.63,-4.25,-0.00,-0.02,0.03
183.95,4.55,4.56,4.57,4.57,-4.55,-4.64,-4.25,0.01,0.02,-0.00
185.79,4.55,4.61,4.55,4.60,-4.54,-4.65,-4.26,0.01,0.01,-0.05
187.65,4.55,4.64,4.49,4.58,-4.54,-4.66,-4.27,0.01,-0.05,-0.08
189.52,4.37,4.50,4.42,4.54,-4.55,-4.67,-4.28,-0.18,-0.13,-0.12
191.42,4.32,4.48,4.35,4.50,-4.56,-4.68,-4.30,-0.23,-0.21,-0.15
193.33,4.32,4.51,4.31,4.50,-4.55,-4.68,-4.31,-0.23,-0.24,-0.19
195.27,4.32,4.55,4.33,4.56,-4.54,-4.69,-4.34,-0.22,-0.21,-0.23
197.22,4.32,4.59,4.32,4.59,-4.53,-4.70,-4.36,-0.21,-0.21,-0.27
199.19,4.31,4.61,4.27,4.57,-4.53,-4.70,-4.38,-0.21,-0.26,-0.29
201.18,4.18,4.51,4.20,4.52,-4.53,-4.70,-4.41,-0.34,-0.33,-0.33
203.19,4.09,4.45,4.13,4.48,-4.52,-4.71,-4.44,-0.43,-0.39,-0.36
205.23,4.09,4.46,4.09,4.46,-4.51,-4.71,-4.47,-0.42,-0.43,-0.37
207.28,4.09,4.49,4.10,4.50,-4.49,-4.71,-4.50,-0.40,-0.39,-0.39
209.35,4.09,4.52,4.09,4.52,-4.47,-4.71,-4.54,-0.38,-0.38,-0.43
211.44,4.09,4.55,4.04,4.49,-4.46,-4.70,-4.57,-0.37,-0.42,-0.45
213.56,3.94,4.42,3.97,4.45,-4.45,-4.70,-4.60,-0.51,-0.48,-0.48
215.69,3.87,4.37,3.90,4.40,-4.44,-4.70,-4.63,-0.56,-0.54,-0.50
217.85,3.86,4.39,3.87,4.39,-4.42,-4.69,-4.67,-0.55,-0.55,-0.52
220.03,3.86,4.42,3.86,4.42,-4.39,-4.68,-4.70,-0.53,-0.53,-0.55
222.23,3.86,4.45,3.83,4.41,-4.37,-4.67,-4.73,-0.51,-0.55,-0.58
224.45,3.76,4.37,3.76,4.37,-4.36,-4.66,-4.76,-0.60,-0.60,-0.61
226.70,3.65,4.28,3.69,4.32,-4.35,-4.64,-4.78,-0.69,-0.66,-0.63
228.96,3.64,4.29,3.64,4.29,-4.33,-4.63,-4.80,-0.69,-0.69,-0.65
231.25,3.64,4.31,3.64,4.31,-4.31,-4.61,-4.82,-0.67,-0.67,-0.67
233.57,3.64,4.33,3.65,4.34,-4.29,-4.59,-4.83,-0.64,-0.64,-0.69
235.90,3.64,4.35,3.60,4.31,-4.27,-4.57,-4.84,-0.62,-0.66,-0.71
238.26,3.53,4.27,3.53,4.26,-4.25,-4.55,-4.85,-0.72,-0.72,-0.73
240.64,3.42,4.16,3.46,4.20,-4.24,-4.52,-4.85,-0.82,-0.78,-0.73
243.05,3.41,4.17,3.41,4.17,-4.22,-4.50,-4.85,-0.81,-0.81,-0.75
245.48,3.41,4.18,3.41,4.18,-4.19,-4.47,-4.84,-0.78,-0.78,-0.77
247.93,3.41,4.20,3.42,4.21,-4.16,-4.44,-4.82,-0.75,-0.74,-0.79
250.41,3.41,4.20,3.39,4.18,-4.13,-4.41,-4.80,-0.72,-0.74,-0.78
252.92,3.36,4.17,3.33,4.13,-4.12,-4.38,-4.77,-0.75,-0.79,-0.80
255.45,3.21,4.03,3.26,4.07,-4.10,-4.34,-4.74,-0.88,-0.84,-0.82
258.00,3.18,4.01,3.20,4.02,-4.07,-4.31,-4.70,-0.89,-0.88,-0.83
260.58,3.18,4.02,3.18,4.01,-4.04,-4.27,-4.65,-0.86,-0.87,-0.83
263.19,3.18,4.02,3.19,4.03,-4.00,-4.23,-4.61,-0.82,-0.81,-0.84
265.82,3.18,4.03,3.17,4.01,-3.97,-4.19,-4.55,-0.78,-0.80,-0.84
268.48,3.13,3.98,3.10,3.95,-3.93,-4.15,-4.49,-0.80,-0.83,-0.85
271.16,3.00,3.85,3.03,3.88,-3.89,-4.11,-4.43,-0.88,-0.86,-0.84
273.87,2.95,3.80,2.99,3.84,-3.84,-4.06,-4.36,-0.89,-0.86,-0.85
276.61,2.95,3.81,2.94,3.80,-3.80,-4.01,-4.29,-0.84,-0.86,-0.86
279.38,2.95,3.82,2.89,3.76,-3.75,-3.97,-4.21,-0.80,-0.86,-0.87
282.17,2.79,3.66,2.83,3.69,-3.70,-3.92,-4.13,-0.91,-0.88,-0.86
284.99,2.73,3.59,2.76,3.62,-3.66,-3.87,-4.05,-0.93,-0.90,-0.86
287.84,2.73,3.59,2.72,3.58,-3.62,-3.82,-3.97,-0.88,-0.89,-0.85
290.72,2.73,3.59,2.75,3.60,-3.57,-3.77,-3.89,-0.84,-0.83,-0.86
293.63,2.73,3.59,2.73,3.58,-3.53,-3.71,-3.80,-0.80,-0.80,-0.85
296.57,2.73,3.58,2.67,3.52,-3.49,-3.66,-3.71,-0.76,-0.82,-0.85
299.53,2.55,3.40,2.60,3.44,-3.45,-3.60,-3.63,-0.90,-0.85,-0.85
302.53,2.50,3.34,2.53,3.37,-3.41,-3.55,-3.54,-0.90,-0.88,-0.83
305.55,2.50,3.34,2.50,3.34,-3.36,-3.49,-3.45,-0.85,-0.85,-0.84
308.61,2.50,3.33,2.50,3.33,-3.30,-3.43,-3.37,-0.80,-0.80,-0.83
311.69,2.50,3.34,2.45,3.29,-3.25,-3.38,-3.28,-0.75,-0.80,-0.83
314.81,2.36,3.19,2.38,3.21,-3.21,-3.32,-3.19,-0.85,-0.83,-0.83
317.96,2.28,3.11,2.31,3.14,-3.18,-3.26,-3.11,-0.89,-0.86,-0.83
321.14,2.27,3.10,2.27,3.09,-3.14,-3.20,-3.02,-0.86,-0.87,-0.82
324.35,2.27,3.10,2.28,3.09,-3.10,-3.14,-2.94,-0.82,-0.82,-0.82
327.59,2.27,3.07,2.28,3.09,-3.05,-3.08,-2.86,-0.78,-0.77,-0.80
330.87,2.27,3.07,2.24,3.04,-3.00,-3.02,-2.78,-0.73,-0.77,-0.80
334.18,2.17,2.98,2.17,2.96,-2.95,-2.96,-2.70,-0.78,-0.78,-0.80
337.52,2.05,2.85,2.10,2.89,-2.90,-2.90,-2.63,-0.84,-0.79,-0.79
340.90,2.04,2.82,2.05,2.83,-2.84,-2.83,-2.55,-0.79,-0.78,-0.78
344.30,2.04,2.81,2.01,2.78,-2.78,-2.77,-2.48,-0.73,-0.77,-0.77
347.75,1.98,2.74,1.96,2.72,-2.72,-2.71,-2.41,-0.73,-0.76,-0.76
351.23,1.85,2.62,1.89,2.64,-2.66,-2.65,-2.34,-0.81,-0.78,-0.76
354.74,1.81,2.55,1.83,2.57,-2.62,-2.59,-2.27,-0.80,-0.79,-0.73
358.28,1.81,2.55,1.81,2.54,-2.56,-2.52,-2.20,-0.75,-0.76,-0.74
361.87,1.81,2.54,1.82,2.55,-2.52,-2.46,-2.14,-0.70,-0.69,-0.73
365.49,1.81,2.53,1.81,2.53,-2.47,-2.40,-2.07,-0.66,-0.67,-0.72
369.14,1.79,2.51,1.75,2.46,-2.44,-2.34,-2.01,-0.64,-0.69,-0.71
372.83,1.65,2.36,1.68,2.39,-2.40,-2.27,-1.95,-0.75,-0.72,-0.70
376.56,1.59,2.30,1.62,2.32,-2.37,-2.21,-1.90,-0.77,-0.75,-0.70
380.33,1.59,2.29,1.58,2.28,-2.33,-2.15,-1.84,-0.73,-0.74,-0.70
384.13,1.59,2.28,1.60,2.29,-2.28,-2.09,-1.79,-0.69,-0.68,-0.69
387.97,1.59,2.28,1.59,2.27,-2.24,-2.03,-1.73,-0.64,-0.65,-0.69
391.85,1.58,2.26,1.53,2.22,-2.19,-1.97,-1.68,-0.60,-0.66,-0.68
395.77,1.42,2.12,1.46,2.14,-2.14,-1.90,-1.63,-0.71,-0.68,-0.69
399.73,1.36,2.05,1.40,2.08,-2.08,-1.84,-1.58,-0.72,-0.68,-0.68
403.72,1.36,2.03,1.35,2.02,-2.02,-1.78,-1.53,-0.66,-0.67,-0.66
407.76,1.36,2.03,1.31,1.97,-1.96,-1.72,-1.49,-0.60,-0.66,-0.66
411.84,1.22,1.87,1.24,1.89,-1.91,-1.66,-1.44,-0.68,-0.66,-0.65
415.96,1.14,1.78,1.17,1.82,-1.85,-1.60,-1.40,-0.71,-0.68,-0.64
420.12,1.13,1.77,1.13,1.76,-1.80,-1.54,-1.35,-0.66,-0.67,-0.64
424.32,1.13,1.75,1.14,1.76,-1.75,-1.48,-1.31,-0.61,-0.61,-0.62
428.56,1.13,1.73,1.14,1.74,-1.70,-1.43,-1.27,-0.56,-0.56,-0.60
432.85,1.13,1.72,1.10,1.69,-1.65,-1.37,-1.23,-0.52,-0.56,-0.59
437.18,1.02,1.61,1.03,1.61,-1.61,-1.31,-1.19,-0.58,-0.58,-0.58
441.55,0.93,1.51,0.96,1.53,-1.56,-1.25,-1.15,-0.62,-0.60,-0.57
445.96,0.90,1.46,0.91,1.47,-1.50,-1.19,-1.11,-0.59,-0.58,-0.55
450.42,0.90,1.45,0.91,1.45,-1.43,-1.14,-1.08,-0.53,-0.53,-0.54
454.93,0.90,1.43,0.88,1.41,-1.37,-1.08,-1.04,-0.47,-0.49,-0.52
459.48,0.85,1.37,0.82,1.33,-1.32,-1.02,-1.00,-0.46,-0.50,-0.51
464.07,0.70,1.20,0.75,1.24,-1.26,-0.97,-0.97,-0.56,-0.52,-0.50
468.71,0.67,1.15,0.69,1.17,-1.21,-0.91,-0.93,-0.54,-0.53,-0.48
473.40,0.67,1.14,0.67,1.13,-1.16,-0.86,-0.90,-0.48,-0.49,-0.47
478.13,0.67,1.12,0.68,1.13,-1.10,-0.80,-0.86,-0.42,-0.42,-0.45
482.91,0.67,1.11,0.65,1.09,-1.04,-0.75,-0.82,-0.37,-0.39,-0.44
487.74,0.62,1.04,0.60,1.01,-1.00,-0.70,-0.79,-0.37,-0.40,-0.42
492.62,0.49,0.89,0.53,0.93,-0.95,-0.64,-0.76,-0.46,-0.42,-0.40
497.55,0.45,0.84,0.47,0.85,-0.90,-0.59,-0.72,-0.44,-0.43,-0.39
502.52,0.45,0.82,0.45,0.81,-0.84,-0.54,-0.69,-0.38,-0.39,-0.37
507.55,0.45,0.79,0.46,0.81,-0.77,-0.49,-0.65,-0.32,-0.31,-0.34
