frequency,raw,error,smoothed,error_smoothed,equalization,parametric_eq,fixed_band_eq,equalized_raw,equalized_smoothed,target
20.00,-15.45,-16.92,-15.46,-16.92,6.00,6.62,2.88,-9.45,-9.46,1.47
20.20,-15.36,-16.86,-15.37,-16.87,6.00,6.61,2.96,-9.36,-9.37,1.50
20.40,-15.30,-16.83,-15.27,-16.79,6.00,6.60,3.05,-9.30,-9.27,1.53
20.61,-15.14,-16.69,-15.15,-16.71,6.00,6.59,3.14,-9.14,-9.15,1.55
20.81,-15.01,-16.59,-15.02,-16.60,6.00,6.58,3.22,-9.01,-9.02,1.58
21.02,-14.87,-16.48,-14.87,-16.47,6.00,6.57,3.32,-8.87,-8.87,1.61
21.23,-14.73,-16.35,-14.73,-16.34,6.00,6.56,3.41,-8.73,-8.73,1.62
21.44,-14.57,-16.20,-14.59,-16.21,6.00,6.55,3.51,-8.57,-8.59,1.63
21.66,-14.45,-16.09,-14.44,-16.07,6.00,6.54,3.61,-8.45,-8.44,1.64
21.87,-14.31,-15.94,-14.30,-15.94,6.00,6.53,3.71,-8.31,-8.30,1.63
22.09,-14.15,-15.79,-14.17,-15.81,6.00,6.51,3.82,-8.15,-8.17,1.64
22.31,-14.04,-15.68,-14.03,-15.67,6.00,6.50,3.92,-8.04,-8.03,1.64
22.54,-13.89,-15.54,-13.89,-15.53,6.00,6.49,4.04,-7.89,-7.89,1.64
22.76,-13.75,-15.39,-13.76,-15.39,6.00,6.48,4.15,-7.75,-7.76,1.64
22.99,-13.62,-15.25,-13.62,-15.25,6.00,6.47,4.27,-7.62,-7.62,1.63
23.22,-13.48,-15.11,-13.49,-15.12,6.00,6.46,4.39,-7.48,-7.49,1.63
23.45,-13.36,-14.99,-13.35,-14.98,6.00,6.44,4.51,-7.36,-7.35,1.63
23.69,-13.20,-14.83,-13.21,-14.84,6.00,6.43,4.63,-7.20,-7.21,1.63
23.92,-13.06,-14.69,-13.07,-14.70,6.00,6.42,4.76,-7.06,-7.07,1.63
24.16,-12.94,-14.58,-12.92,-14.56,6.00,6.40,4.89,-6.94,-6.92,1.64
24.40,-12.78,-14.42,-12.79,-14.42,6.00,6.39,5.02,-6.78,-6.79,1.64
24.65,-12.64,-14.27,-12.65,-14.28,6.00,6.38,5.16,-6.64,-6.65,1.63
24.89,-12.52,-14.14,-12.50,-14.13,6.00,6.37,5.29,-6.52,-6.50,1.62
25.14,-12.37,-13.99,-12.37,-13.99,6.00,6.35,5.43,-6.37,-6.37,1.62
25.39,-12.22,-13.84,-12.23,-13.86,6.00,6.34,5.57,-6.22,-6.23,1.62
25.65,-12.10,-13.72,-12.09,-13.71,6.00,6.32,5.71,-6.10,-6.09,1.62
25.91,-11.95,-13.56,-11.95,-13.57,6.00,6.31,5.85,-5.95,-5.95,1.61
26.16,-11.80,-13.41,-11.81,-13.42,6.00,6.30,5.99,-5.80,-5.81,1.61
26.43,-11.68,-13.29,-11.67,-13.28,6.00,6.28,6.13,-5.68,-5.67,1.61
26.69,-11.53,-13.14,-11.53,-13.14,6.00,6.27,6.27,-5.53,-5.53,1.61
26.96,-11.38,-12.99,-11.39,-13.00,6.00,6.25,6.41,-5.38,-5.39,1.61
27.23,-11.24,-12.85,-11.24,-12.85,6.00,6.24,6.54,-5.24,-5.24,1.60
27.50,-11.10,-12.70,-11.09,-12.69,6.00,6.22,6.67,-5.10,-5.09,1.60
27.77,-10.93,-12.52,-10.93,-12.53,6.00,6.21,6.80,-4.93,-4.93,1.59
28.05,-10.77,-12.36,-10.77,-12.36,6.00,6.19,6.92,-4.77,-4.77,1.59
28.33,-10.62,-12.20,-10.62,-12.20,6.00,6.18,7.04,-4.62,-4.62,1.58
28.62,-10.46,-12.04,-10.46,-12.04,6.00,6.16,7.15,-4.46,-4.46,1.58
28.90,-10.31,-11.89,-10.31,-11.88,6.00,6.14,7.25,-4.31,-4.31,1.58
29.19,-10.15,-11.71,-10.15,-11.72,6.00,6.13,7.34,-4.15,-4.15,1.56
29.48,-10.00,-11.57,-10.00,-11.57,6.00,6.11,7.42,-4.00,-4.00,1.57
29.78,-9.84,-11.40,-9.85,-11.41,6.00,6.10,7.50,-3.84,-3.85,1.56
30.08,-9.70,-11.26,-9.70,-11.25,6.00,6.08,7.56,-3.70,-3.70,1.56
30.38,-9.55,-11.10,-9.55,-11.10,6.00,6.07,7.61,-3.55,-3.55,1.55
30.68,-9.40,-10.95,-9.41,-10.96,6.00,6.05,7.65,-3.40,-3.41,1.54
30.99,-9.29,-10.83,-9.28,-10.82,6.00,6.03,7.68,-3.29,-3.28,1.53
31.30,-9.14,-10.67,-9.15,-10.68,6.00,6.02,7.69,-3.14,-3.15,1.53
31.61,-9.02,-10.55,-9.02,-10.54,6.00,6.00,7.69,-3.02,-3.02,1.53
31.93,-8.88,-10.40,-8.89,-10.40,6.00,5.99,7.67,-2.88,-2.89,1.52
32.24,-8.76,-10.26,-8.76,-10.27,6.00,5.97,7.65,-2.76,-2.76,1.50
32.57,-8.63,-10.13,-8.63,-10.13,6.00,5.96,7.61,-2.63,-2.63,1.50
32.89,-8.50,-10.00,-8.50,-9.99,6.00,5.95,7.56,-2.50,-2.50,1.50
33.22,-8.37,-9.86,-8.37,-9.86,6.00,5.93,7.50,-2.37,-2.37,1.49
33.55,-8.23,-9.71,-8.24,-9.72,6.00,5.92,7.43,-2.23,-2.24,1.48
33.89,-8.11,-9.58,-8.10,-9.58,6.00,5.91,7.35,-2.11,-2.10,1.47
34.23,-7.97,-9.44,-7.97,-9.44,6.00,5.90,7.27,-1.97,-1.97,1.47
34.57,-7.84,-9.29,-7.84,-9.30,6.00,5.89,7.17,-1.84,-1.84,1.45
34.92,-7.71,-9.15,-7.71,-9.16,6.00,5.88,7.07,-1.71,-1.71,1.44
35.27,-7.58,-9.02,-7.58,-9.01,6.00,5.87,6.96,-1.58,-1.58,1.44
35.62,-7.44,-8.87,-7.44,-8.87,6.00,5.86,6.86,-1.44,-1.44,1.42
35.97,-7.31,-8.72,-7.31,-8.73,6.00,5.86,6.74,-1.31,-1.31,1.41
36.33,-7.18,-8.59,-7.19,-8.59,6.00,5.86,6.62,-1.18,-1.19,1.41
36.70,-7.07,-8.46,-7.06,-8.45,6.00,5.85,6.50,-1.07,-1.06,1.39
37.06,-6.94,-8.32,-6.94,-8.32,6.00,5.86,6.38,-0.94,-0.94,1.38
37.43,-6.81,-8.18,-6.81,-8.18,6.00,5.86,6.26,-0.81,-0.81,1.37
37.81,-6.69,-8.05,-6.69,-8.05,6.00,5.87,6.14,-0.69,-0.69,1.36
38.19,-6.56,-7.91,-6.57,-7.92,6.00,5.88,6.02,-0.56,-0.57,1.35
38.57,-6.46,-7.80,-6.45,-7.78,6.00,5.89,5.90,-0.46,-0.45,1.34
38.95,-6.32,-7.65,-6.32,-7.65,6.00,5.90,5.79,-0.32,-0.32,1.33
39.34,-6.19,-7.50,-6.20,-7.51,6.00,5.92,5.67,-0.19,-0.20,1.31
39.74,-6.08,-7.38,-6.08,-7.38,6.00,5.94,5.56,-0.08,-0.08,1.30
40.14,-5.97,-7.26,-5.97,-7.26,6.00,5.96,5.44,0.03,0.03,1.29
40.54,-5.87,-7.15,-5.87,-7.14,6.00,5.98,5.34,0.13,0.13,1.27
40.94,-5.76,-7.03,-5.76,-7.03,6.00,6.00,5.23,0.24,0.24,1.27
41.35,-5.65,-6.90,-5.65,-6.91,6.00,6.01,5.13,0.35,0.35,1.25
41.76,-5.54,-6.79,-5.54,-6.79,6.01,6.02,5.03,0.47,0.47,1.25
42.18,-5.43,-6.67,-5.43,-6.67,6.02,6.02,4.93,0.59,0.59,1.24
42.60,-5.32,-6.54,-5.32,-6.55,6.02,6.01,4.84,0.70,0.70,1.22
43.03,-5.21,-6.43,-5.21,-6.42,6.02,5.98,4.75,0.81,0.81,1.22
43.46,-5.10,-6.30,-5.10,-6.30,6.01,5.94,4.66,0.91,0.90,1.20
43.90,-5.00,-6.17,-5.00,-6.17,5.98,5.89,4.58,0.98,0.98,1.17
44.33,-4.89,-6.04,-4.89,-6.05,5.93,5.82,4.50,1.04,1.04,1.15
44.78,-4.78,-5.92,-4.78,-5.92,5.87,5.74,4.42,1.09,1.09,1.14
45.23,-4.67,-5.79,-4.67,-5.79,5.78,5.65,4.35,1.11,1.11,1.12
45.68,-4.56,-5.66,-4.57,-5.67,5.69,5.54,4.28,1.13,1.12,1.10
46.13,-4.47,-5.55,-4.47,-5.55,5.58,5.44,4.21,1.11,1.11,1.08
46.60,-4.37,-5.44,-4.36,-5.43,5.45,5.33,4.15,1.08,1.09,1.07
47.06,-4.26,-5.31,-4.26,-5.31,5.32,5.22,4.09,1.06,1.06,1.05
47.53,-4.15,-5.18,-4.16,-5.20,5.19,5.10,4.03,1.04,1.03,1.03
48.01,-4.06,-5.08,-4.06,-5.07,5.06,4.99,3.98,1.00,1.01,1.02
48.49,-3.96,-4.95,-3.96,-4.95,4.94,4.88,3.93,0.98,0.98,0.99
48.97,-3.85,-4.81,-3.86,-4.81,4.82,4.77,3.88,0.96,0.96,0.96
49.46,-3.76,-4.69,-3.76,-4.68,4.69,4.67,3.83,0.93,0.94,0.93
49.96,-3.65,-4.55,-3.66,-4.56,4.57,4.56,3.79,0.92,0.91,0.90
50.46,-3.58,-4.47,-3.57,-4.45,4.46,4.46,3.75,0.88,0.88,0.88
50.96,-3.48,-4.34,-3.48,-4.34,4.35,4.35,3.71,0.87,0.86,0.86
51.47,-3.41,-4.24,-3.40,-4.24,4.24,4.25,3.67,0.83,0.84,0.83
51.99,-3.31,-4.12,-3.32,-4.13,4.13,4.15,3.64,0.82,0.81,0.80
52.51,-3.25,-4.04,-3.25,-4.04,4.03,4.05,3.61,0.78,0.78,0.79
53.03,-3.18,-3.95,-3.17,-3.94,3.93,3.95,3.57,0.75,0.76,0.77
53.56,-3.10,-3.84,-3.10,-3.84,3.83,3.86,3.54,0.73,0.73,0.74
54.10,-3.02,-3.74,-3.02,-3.74,3.73,3.76,3.51,0.71,0.71,0.72
54.64,-2.94,-3.63,-2.94,-3.63,3.63,3.66,3.48,0.69,0.69,0.69
55.18,-2.87,-3.53,-2.86,-3.53,3.53,3.56,3.45,0.66,0.67,0.66
55.74,-2.79,-3.43,-2.79,-3.43,3.43,3.46,3.43,0.64,0.64,0.64
56.29,-2.71,-3.33,-2.72,-3.34,3.33,3.37,3.40,0.62,0.61,0.62
56.86,-2.66,-3.25,-2.65,-3.24,3.24,3.27,3.37,0.58,0.59,0.59
57.42,-2.58,-3.14,-2.58,-3.14,3.15,3.18,3.34,0.57,0.57,0.56
58.00,-2.51,-3.05,-2.52,-3.06,3.07,3.08,3.31,0.56,0.55,0.54
58.58,-2.45,-2.97,-2.46,-2.98,2.99,2.99,3.27,0.54,0.53,0.52
59.16,-2.42,-2.92,-2.41,-2.91,2.91,2.91,3.24,0.49,0.50,0.50
59.76,-2.36,-2.84,-2.36,-2.84,2.83,2.82,3.21,0.47,0.47,0.48
60.35,-2.31,-2.76,-2.31,-2.76,2.76,2.74,3.17,0.45,0.44,0.45
60.96,-2.26,-2.69,-2.26,-2.68,2.68,2.67,3.13,0.42,0.42,0.43
61.57,-2.22,-2.61,-2.22,-2.61,2.61,2.60,3.10,0.39,0.39,0.38
62.18,-2.19,-2.54,-2.18,-2.54,2.54,2.54,3.05,0.35,0.36,0.35
62.80,-2.14,-2.47,-2.14,-2.46,2.47,2.48,3.01,0.33,0.33,0.33
63.43,-2.10,-2.39,-2.11,-2.40,2.40,2.42,2.96,0.30,0.29,0.29
64.07,-2.07,-2.34,-2.07,-2.33,2.34,2.37,2.92,0.27,0.27,0.26
64.71,-2.05,-2.29,-2.04,-2.28,2.28,2.32,2.87,0.23,0.24,0.24
65.35,-2.00,-2.21,-2.02,-2.23,2.23,2.28,2.82,0.23,0.21,0.21
66.01,-2.00,-2.18,-2.00,-2.18,2.18,2.24,2.76,0.18,0.18,0.18
66.67,-2.00,-2.15,-1.98,-2.14,2.13,2.20,2.71,0.13,0.15,0.15
67.33,-1.96,-2.08,-1.97,-2.10,2.09,2.16,2.65,0.13,0.12,0.12
68.01,-1.96,-2.05,-1.96,-2.06,2.06,2.12,2.59,0.10,0.09,0.09
68.69,-1.96,-2.02,-1.96,-2.02,2.02,2.09,2.53,0.06,0.07,0.06
69.37,-1.96,-1.99,-1.96,-1.99,2.00,2.05,2.47,0.04,0.04,0.03
70.07,-1.96,-1.96,-1.96,-1.96,1.97,2.01,2.40,0.01,0.01,-0.00
70.77,-1.96,-1.93,-1.97,-1.94,1.94,1.98,2.34,-0.02,-0.03,-0.03
71.48,-1.98,-1.92,-1.98,-1.92,1.92,1.94,2.27,-0.06,-0.06,-0.06
72.19,-2.00,-1.90,-1.99,-1.90,1.89,1.89,2.21,-0.11,-0.10,-0.10
72.91,-2.00,-1.87,-2.00,-1.87,1.86,1.85,2.14,-0.14,-0.15,-0.13
73.64,-2.00,-1.83,-2.00,-1.84,1.83,1.81,2.07,-0.17,-0.17,-0.17
74.38,-2.00,-1.80,-1.99,-1.79,1.79,1.76,2.01,-0.21,-0.20,-0.20
75.12,-1.97,-1.74,-1.98,-1.74,1.75,1.72,1.94,-0.22,-0.23,-0.24
75.87,-1.96,-1.70,-1.97,-1.71,1.71,1.67,1.87,-0.25,-0.26,-0.26
76.63,-1.96,-1.67,-1.96,-1.66,1.66,1.62,1.80,-0.30,-0.29,-0.29
77.40,-1.96,-1.64,-1.95,-1.62,1.62,1.57,1.74,-0.35,-0.33,-0.33
78.17,-1.92,-1.55,-1.93,-1.57,1.57,1.52,1.67,-0.35,-0.37,-0.37
78.95,-1.91,-1.52,-1.91,-1.51,1.52,1.47,1.60,-0.39,-0.39,-0.39
79.74,-1.89,-1.47,-1.89,-1.46,1.47,1.41,1.54,-0.42,-0.42,-0.42
80.54,-1.86,-1.40,-1.87,-1.41,1.41,1.36,1.47,-0.45,-0.46,-0.46
81.35,-1.86,-1.37,-1.85,-1.36,1.36,1.30,1.40,-0.50,-0.49,-0.49
82.16,-1.82,-1.29,-1.83,-1.30,1.30,1.25,1.34,-0.52,-0.53,-0.53
82.98,-1.82,-1.27,-1.81,-1.25,1.24,1.19,1.27,-0.58,-0.56,-0.55
83.81,-1.77,-1.17,-1.79,-1.19,1.19,1.13,1.21,-0.58,-0.60,-0.60
84.65,-1.77,-1.13,-1.77,-1.13,1.13,1.07,1.15,-0.64,-0.63,-0.64
85.50,-1.75,-1.08,-1.75,-1.07,1.08,1.02,1.08,-0.67,-0.67,-0.67
86.35,-1.72,-1.01,-1.73,-1.02,1.03,0.96,1.02,-0.70,-0.71,-0.71
87.22,-1.72,-0.97,-1.71,-0.96,0.97,0.90,0.96,-0.75,-0.74,-0.75
88.09,-1.69,-0.90,-1.70,-0.92,0.91,0.84,0.90,-0.78,-0.79,-0.79
88.97,-1.68,-0.86,-1.68,-0.86,0.85,0.78,0.84,-0.83,-0.83,-0.82
89.86,-1.68,-0.82,-1.67,-0.80,0.80,0.72,0.78,-0.88,-0.87,-0.86
90.76,-1.63,-0.72,-1.64,-0.74,0.74,0.66,0.72,-0.90,-0.91,-0.91
91.66,-1.63,-0.69,-1.62,-0.67,0.67,0.60,0.66,-0.96,-0.95,-0.94
92.58,-1.58,-0.58,-1.59,-0.60,0.60,0.55,0.60,-0.98,-0.99,-1.00
93.51,-1.58,-0.55,-1.57,-0.54,0.54,0.49,0.54,-1.04,-1.04,-1.03
94.44,-1.54,-0.47,-1.54,-0.47,0.47,0.43,0.49,-1.07,-1.08,-1.08
95.39,-1.53,-0.41,-1.53,-0.41,0.40,0.38,0.43,-1.13,-1.13,-1.12
96.34,-1.49,-0.32,-1.50,-0.33,0.33,0.32,0.37,-1.16,-1.17,-1.17
97.30,-1.49,-0.27,-1.48,-0.26,0.26,0.26,0.32,-1.23,-1.21,-1.22
98.28,-1.44,-0.18,-1.46,-0.19,0.20,0.21,0.26,-1.25,-1.26,-1.26
99.26,-1.44,-0.13,-1.44,-0.13,0.13,0.16,0.21,-1.31,-1.31,-1.31
100.25,-1.44,-0.08,-1.43,-0.07,0.07,0.10,0.15,-1.37,-1.36,-1.36
101.25,-1.41,-0.01,-1.42,-0.01,0.01,0.05,0.10,-1.40,-1.40,-1.40
102.27,-1.40,0.05,-1.41,0.05,-0.04,0.00,0.05,-1.44,-1.45,-1.45
103.29,-1.40,0.10,-1.40,0.10,-0.10,-0.05,-0.00,-1.50,-1.49,-1.50
104.32,-1.40,0.14,-1.40,0.14,-0.15,-0.10,-0.05,-1.55,-1.55,-1.54
105.37,-1.40,0.19,-1.40,0.19,-0.20,-0.14,-0.10,-1.60,-1.60,-1.59
106.42,-1.40,0.23,-1.40,0.23,-0.24,-0.19,-0.15,-1.64,-1.64,-1.63
107.48,-1.40,0.28,-1.40,0.28,-0.28,-0.23,-0.20,-1.68,-1.68,-1.68
108.56,-1.40,0.34,-1.41,0.33,-0.32,-0.28,-0.25,-1.72,-1.73,-1.74
109.64,-1.42,0.36,-1.42,0.36,-0.35,-0.32,-0.29,-1.77,-1.77,-1.78
110.74,-1.44,0.39,-1.44,0.39,-0.38,-0.36,-0.34,-1.82,-1.82,-1.83
111.85,-1.47,0.40,-1.47,0.41,-0.41,-0.40,-0.38,-1.88,-1.88,-1.87
112.97,-1.49,0.45,-1.50,0.43,-0.43,-0.43,-0.42,-1.92,-1.93,-1.94
114.10,-1.54,0.44,-1.54,0.45,-0.45,-0.47,-0.47,-1.99,-1.99,-1.98
115.24,-1.58,0.46,-1.57,0.47,-0.47,-0.50,-0.50,-2.05,-2.05,-2.04
116.39,-1.61,0.48,-1.61,0.48,-0.49,-0.53,-0.54,-2.10,-2.10,-2.09
117.55,-1.63,0.52,-1.64,0.51,-0.51,-0.56,-0.58,-2.14,-2.15,-2.15
118.73,-1.67,0.53,-1.67,0.53,-0.53,-0.59,-0.61,-2.20,-2.19,-2.20
119.92,-1.70,0.54,-1.70,0.55,-0.55,-0.62,-0.65,-2.25,-2.25,-2.25
121.12,-1.72,0.58,-1.73,0.57,-0.57,-0.64,-0.68,-2.29,-2.29,-2.30
122.33,-1.76,0.59,-1.76,0.59,-0.59,-0.67,-0.71,-2.35,-2.35,-2.35
123.55,-1.77,0.62,-1.78,0.62,-0.62,-0.69,-0.74,-2.39,-2.40,-2.39
124.79,-1.82,0.62,-1.81,0.63,-0.64,-0.72,-0.76,-2.46,-2.45,-2.44
126.03,-1.82,0.67,-1.83,0.66,-0.67,-0.74,-0.78,-2.49,-2.50,-2.49
127.29,-1.86,0.68,-1.85,0.69,-0.70,-0.76,-0.81,-2.56,-2.55,-2.54
128.57,-1.86,0.74,-1.87,0.73,-0.72,-0.79,-0.83,-2.58,-2.59,-2.60
129.85,-1.90,0.75,-1.89,0.76,-0.75,-0.81,-0.85,-2.65,-2.65,-2.65
131.15,-1.91,0.79,-1.91,0.78,-0.78,-0.84,-0.86,-2.69,-2.69,-2.70
132.46,-1.94,0.81,-1.94,0.81,-0.81,-0.86,-0.88,-2.75,-2.75,-2.75
133.79,-1.96,0.82,-1.96,0.83,-0.83,-0.89,-0.89,-2.79,-2.79,-2.78
135.12,-1.98,0.86,-1.98,0.85,-0.86,-0.92,-0.91,-2.84,-2.84,-2.84
136.48,-2.00,0.87,-2.00,0.88,-0.88,-0.95,-0.92,-2.88,-2.88,-2.87
137.84,-2.00,0.92,-2.02,0.91,-0.91,-0.98,-0.93,-2.91,-2.93,-2.92
139.22,-2.05,0.92,-2.04,0.93,-0.93,-1.01,-0.94,-2.98,-2.97,-2.97
140.61,-2.05,0.96,-2.04,0.96,-0.96,-1.04,-0.95,-3.01,-3.00,-3.02
142.02,-2.05,0.99,-2.06,0.99,-0.98,-1.08,-0.95,-3.03,-3.04,-3.04
143.44,-2.05,1.03,-2.07,1.01,-1.01,-1.11,-0.96,-3.06,-3.08,-3.08
144.87,-2.10,1.02,-2.08,1.03,-1.03,-1.14,-0.97,-3.14,-3.12,-3.12
146.32,-2.10,1.06,-2.10,1.06,-1.06,-1.17,-0.98,-3.16,-3.16,-3.16
147.78,-2.10,1.09,-2.11,1.08,-1.08,-1.20,-0.98,-3.19,-3.20,-3.19
149.26,-2.12,1.10,-2.12,1.11,-1.11,-1.23,-0.99,-3.23,-3.23,-3.23
150.75,-2.14,1.13,-2.13,1.14,-1.13,-1.26,-1.00,-3.27,-3.26,-3.27
152.26,-2.14,1.17,-2.14,1.16,-1.16,-1.29,-1.00,-3.30,-3.30,-3.31
153.78,-2.14,1.20,-2.16,1.19,-1.19,-1.32,-1.01,-3.33,-3.35,-3.34
155.32,-2.19,1.20,-2.17,1.21,-1.21,-1.34,-1.02,-3.41,-3.39,-3.39
156.88,-2.19,1.23,-2.18,1.24,-1.24,-1.37,-1.03,-3.43,-3.43,-3.42
158.44,-2.19,1.28,-2.20,1.27,-1.27,-1.39,-1.03,-3.46,-3.47,-3.47
160.03,-2.19,1.32,-2.20,1.30,-1.30,-1.41,-1.04,-3.49,-3.51,-3.51
161.63,-2.23,1.32,-2.22,1.33,-1.33,-1.43,-1.05,-3.56,-3.55,-3.55
163.24,-2.23,1.36,-2.23,1.36,-1.36,-1.44,-1.06,-3.59,-3.59,-3.59
164.88,-2.23,1.39,-2.23,1.39,-1.39,-1.46,-1.07,-3.62,-3.63,-3.62
166.53,-2.23,1.43,-2.23,1.43,-1.42,-1.47,-1.09,-3.65,-3.65,-3.66
168.19,-2.23,1.47,-2.24,1.46,-1.45,-1.48,-1.10,-3.68,-3.69,-3.70
169.87,-2.25,1.48,-2.25,1.49,-1.48,-1.50,-1.11,-3.73,-3.73,-3.74
171.57,-2.26,1.51,-2.26,1.51,-1.51,-1.50,-1.13,-3.77,-3.77,-3.77
173.29,-2.27,1.54,-2.27,1.54,-1.54,-1.51,-1.14,-3.82,-3.82,-3.81
175.02,-2.28,1.56,-2.28,1.57,-1.58,-1.52,-1.16,-3.86,-3.86,-3.84
176.77,-2.28,1.61,-2.28,1.61,-1.61,-1.53,-1.18,-3.89,-3.89,-3.89
178.54,-2.28,1.65,-2.28,1.65,-1.65,-1.53,-1.20,-3.93,-3.93,-3.93
180.32,-2.28,1.69,-2.28,1.69,-1.68,-1.53,-1.22,-3.97,-3.97,-3.97
182.13,-2.28,1.72,-2.28,1.72,-1.72,-1.53,-1.24,-4.00,-4.00,-4.00
183.95,-2.28,1.76,-2.28,1.76,-1.75,-1.54,-1.26,-4.03,-4.03,-4.04
185.79,-2.28,1.79,-2.28,1.79,-1.78,-1.54,-1.28,-4.06,-4.06,-4.07
187.65,-2.28,1.83,-2.29,1.82,-1.81,-1.54,-1.30,-4.09,-4.10,-4.11
189.52,-2.32,1.82,-2.31,1.83,-1.84,-1.53,-1.33,-4.16,-4.15,-4.14
191.42,-2.33,1.84,-2.33,1.85,-1.86,-1.53,-1.35,-4.19,-4.18,-4.17
193.33,-2.33,1.87,-2.33,1.87,-1.88,-1.53,-1.38,-4.21,-4.21,-4.20
195.27,-2.33,1.90,-2.33,1.90,-1.90,-1.52,-1.41,-4.23,-4.23,-4.23
197.22,-2.33,1.93,-2.34,1.92,-1.91,-1.52,-1.43,-4.24,-4.26,-4.26
199.19,-2.37,1.92,-2.35,1.93,-1.92,-1.51,-1.46,-4.29,-4.28,-4.29
201.18,-2.37,1.94,-2.37,1.94,-1.93,-1.51,-1.49,-4.30,-4.30,-4.31
203.19,-2.37,1.96,-2.39,1.94,-1.94,-1.50,-1.52,-4.31,-4.33,-4.33
205.23,-2.42,1.93,-2.40,1.94,-1.94,-1.49,-1.55,-4.36,-4.35,-4.35
207.28,-2.42,1.94,-2.43,1.94,-1.94,-1.49,-1.58,-4.36,-4.37,-4.36
209.35,-2.44,1.94,-2.45,1.94,-1.94,-1.48,-1.61,-4.38,-4.39,-4.38
211.44,-2.47,1.94,-2.46,1.94,-1.94,-1.47,-1.63,-4.41,-4.40,-4.41
213.56,-2.47,1.94,-2.47,1.94,-1.94,-1.46,-1.66,-4.41,-4.41,-4.41
215.69,-2.47,1.94,-2.48,1.93,-1.94,-1.45,-1.69,-4.41,-4.42,-4.41
217.85,-2.50,1.92,-2.49,1.93,-1.94,-1.44,-1.72,-4.44,-4.43,-4.43
220.03,-2.51,1.93,-2.50,1.93,-1.93,-1.43,-1.74,-4.44,-4.43,-4.44
222.23,-2.51,1.94,-2.52,1.93,-1.92,-1.42,-1.77,-4.43,-4.44,-4.45
224.45,-2.52,1.92,-2.53,1.92,-1.91,-1.41,-1.79,-4.43,-4.44,-4.44
226.70,-2.56,1.88,-2.55,1.90,-1.89,-1.40,-1.81,-4.45,-4.44,-4.44
228.96,-2.56,1.88,-2.57,1.87,-1.87,-1.38,-1.83,-4.43,-4.44,-4.44
231.25,-2.59,1.84,-2.59,1.85,-1.85,-1.37,-1.85,-4.44,-4.44,-4.43
233.57,-2.61,1.82,-2.61,1.82,-1.83,-1.36,-1.87,-4.44,-4.44,-4.43
235.90,-2.63,1.80,-2.63,1.80,-1.81,-1.35,-1.88,-4.44,-4.43,-4.43
238.26,-2.65,1.78,-2.65,1.78,-1.78,-1.34,-1.90,-4.43,-4.43,-4.43
240.64,-2.65,1.77,-2.67,1.76,-1.76,-1.32,-1.90,-4.41,-4.42,-4.42
243.05,-2.69,1.72,-2.68,1.73,-1.73,-1.31,-1.91,-4.42,-4.42,-4.41
245.48,-2.70,1.70,-2.69,1.71,-1.71,-1.30,-1.91,-4.41,-4.40,-4.40
247.93,-2.70,1.69,-2.70,1.69,-1.68,-1.28,-1.92,-4.38,-4.39,-4.39
250.41,-2.70,1.68,-2.71,1.67,-1.66,-1.27,-1.91,-4.36,-4.37,-4.39
252.92,-2.73,1.63,-2.73,1.63,-1.63,-1.26,-1.91,-4.37,-4.36,-4.36
255.45,-2.75,1.59,-2.74,1.60,-1.61,-1.24,-1.90,-4.36,-4.35,-4.34
258.00,-2.75,1.58,-2.75,1.57,-1.59,-1.23,-1.89,-4.34,-4.34,-4.33
260.58,-2.75,1.56,-2.75,1.56,-1.56,-1.22,-1.88,-4.31,-4.31,-4.31
263.19,-2.75,1.54,-2.75,1.54,-1.53,-1.20,-1.86,-4.28,-4.28,-4.29
265.82,-2.75,1.53,-2.76,1.51,-1.50,-1.19,-1.84,-4.26,-4.26,-4.28
268.48,-2.77,1.48,-2.77,1.48,-1.48,-1.18,-1.82,-4.25,-4.25,-4.25
271.16,-2.79,1.44,-2.78,1.45,-1.45,-1.16,-1.80,-4.25,-4.24,-4.23
273.87,-2.79,1.42,-2.79,1.42,-1.43,-1.15,-1.77,-4.22,-4.22,-4.21
276.61,-2.79,1.40,-2.79,1.40,-1.41,-1.14,-1.74,-4.20,-4.20,-4.19
279.38,-2.79,1.38,-2.79,1.38,-1.38,-1.12,-1.71,-4.17,-4.17,-4.18
282.17,-2.79,1.37,-2.79,1.37,-1.36,-1.11,-1.68,-4.15,-4.15,-4.16
284.99,-2.79,1.34,-2.79,1.35,-1.34,-1.10,-1.65,-4.13,-4.13,-4.14
287.84,-2.79,1.33,-2.79,1.33,-1.32,-1.08,-1.62,-4.12,-4.12,-4.12
290.72,-2.79,1.30,-2.79,1.31,-1.31,-1.07,-1.58,-4.10,-4.10,-4.09
293.63,-2.79,1.29,-2.79,1.29,-1.29,-1.06,-1.55,-4.08,-4.08,-4.08
296.57,-2.79,1.26,-2.79,1.27,-1.27,-1.05,-1.51,-4.06,-4.06,-4.05
299.53,-2.79,1.25,-2.79,1.25,-1.24,-1.03,-1.47,-4.03,-4.03,-4.04
302.53,-2.79,1.23,-2.79,1.22,-1.22,-1.02,-1.44,-4.01,-4.01,-4.02
305.55,-2.79,1.19,-2.79,1.20,-1.20,-1.01,-1.40,-3.99,-3.99,-3.98
308.61,-2.79,1.18,-2.79,1.17,-1.17,-0.99,-1.36,-3.96,-3.96,-3.97
311.69,-2.79,1.15,-2.79,1.15,-1.15,-0.98,-1.32,-3.94,-3.94,-3.94
314.81,-2.79,1.11,-2.79,1.12,-1.13,-0.97,-1.29,-3.92,-3.92,-3.91
317.96,-2.79,1.10,-2.79,1.10,-1.11,-0.96,-1.25,-3.90,-3.90,-3.89
321.14,-2.79,1.08,-2.79,1.08,-1.08,-0.95,-1.21,-3.87,-3.87,-3.87
324.35,-2.79,1.06,-2.79,1.06,-1.06,-0.93,-1.18,-3.85,-3.84,-3.86
327.59,-2.79,1.04,-2.79,1.04,-1.03,-0.92,-1.14,-3.82,-3.82,-3.83
330.87,-2.79,1.02,-2.80,1.01,-1.00,-0.91,-1.10,-3.79,-3.80,-3.81
334.18,-2.82,0.97,-2.81,0.98,-0.98,-0.90,-1.07,-3.80,-3.79,-3.79
337.52,-2.82,0.96,-2.83,0.95,-0.95,-0.89,-1.03,-3.77,-3.78,-3.78
340.90,-2.84,0.91,-2.84,0.91,-0.92,-0.88,-1.00,-3.77,-3.76,-3.75
344.30,-2.84,0.89,-2.84,0.89,-0.90,-0.87,-0.97,-3.74,-3.74,-3.73
347.75,-2.84,0.87,-2.84,0.87,-0.87,-0.85,-0.93,-3.71,-3.72,-3.71
351.23,-2.84,0.85,-2.84,0.85,-0.85,-0.84,-0.90,-3.69,-3.69,-3.70
354.74,-2.84,0.84,-2.84,0.84,-0.83,-0.83,-0.87,-3.67,-3.67,-3.68
358.28,-2.84,0.82,-2.84,0.82,-0.82,-0.82,-0.84,-3.66,-3.66,-3.66
361.87,-2.84,0.80,-2.84,0.80,-0.80,-0.81,-0.81,-3.65,-3.65,-3.64
365.49,-2.84,0.78,-2.84,0.79,-0.79,-0.80,-0.78,-3.63,-3.63,-3.62
369.14,-2.84,0.78,-2.83,0.78,-0.78,-0.79,-0.75,-3.62,-3.61,-3.62
372.83,-2.82,0.78,-2.83,0.77,-0.77,-0.78,-0.73,-3.59,-3.59,-3.60
376.56,-2.82,0.77,-2.82,0.76,-0.75,-0.78,-0.70,-3.58,-3.58,-3.59
380.33,-2.82,0.74,-2.82,0.75,-0.74,-0.77,-0.67,-3.56,-3.56,-3.56
384.13,-2.82,0.73,-2.82,0.73,-0.74,-0.76,-0.65,-3.56,-3.56,-3.55
387.97,-2.82,0.72,-2.82,0.72,-0.73,-0.75,-0.62,-3.55,-3.55,-3.54
391.85,-2.82,0.71,-2.82,0.71,-0.72,-0.74,-0.60,-3.54,-3.54,-3.54
395.77,-2.82,0.70,-2.81,0.71,-0.71,-0.73,-0.57,-3.53,-3.53,-3.52
399.73,-2.80,0.71,-2.80,0.71,-0.70,-0.72,-0.55,-3.50,-3.51,-3.51
403.72,-2.79,0.71,-2.80,0.70,-0.70,-0.72,-0.53,-3.49,-3.49,-3.50
407.76,-2.79,0.70,-2.79,0.70,-0.69,-0.71,-0.51,-3.48,-3.48,-3.49
411.84,-2.79,0.68,-2.79,0.69,-0.68,-0.70,-0.49,-3.47,-3.47,-3.47
415.96,-2.79,0.67,-2.79,0.67,-0.68,-0.69,-0.47,-3.47,-3.47,-3.46
420.12,-2.79,0.66,-2.79,0.66,-0.67,-0.69,-0.45,-3.46,-3.46,-3.46
424.32,-2.79,0.66,-2.79,0.66,-0.66,-0.68,-0.43,-3.45,-3.45,-3.45
428.56,-2.79,0.65,-2.79,0.65,-0.65,-0.67,-0.42,-3.44,-3.44,-3.44
432.85,-2.79,0.64,-2.79,0.64,-0.63,-0.67,-0.40,-3.43,-3.43,-3.43
437.18,-2.79,0.63,-2.79,0.63,-0.62,-0.66,-0.38,-3.41,-3.41,-3.42
