frequency,raw,error,smoothed,error_smoothed,equalization,parametric_eq,equalized_raw,equalized_smoothed,target
20,-8.90,-10.53,-8.91,-10.54,6.00,2.59,-2.90,-2.91,1.63
21,-8.43,-10.06,-8.42,-10.05,6.00,2.98,-2.43,-2.42,1.63
22,-7.97,-9.60,-7.95,-9.58,6.00,3.41,-1.97,-1.95,1.63
23,-7.47,-9.11,-7.49,-9.13,6.00,3.87,-1.47,-1.49,1.64
24,-7.07,-8.71,-7.06,-8.69,6.00,4.35,-1.07,-1.06,1.64
25,-6.65,-8.29,-6.64,-8.28,6.00,4.85,-0.65,-0.64,1.64
26,-6.15,-7.79,-6.25,-7.89,6.00,5.34,-0.15,-0.25,1.64
27,-5.84,-7.48,-5.87,-7.51,6.00,5.80,0.16,0.13,1.64
28,-5.59,-7.23,-5.51,-7.15,6.00,6.20,0.41,0.49,1.64
29,-5.24,-6.88,-5.15,-6.79,6.00,6.51,0.76,0.85,1.64
30,-4.80,-6.44,-4.81,-6.45,5.94,6.70,1.14,1.13,1.64
31,-4.48,-6.12,-4.47,-6.11,5.81,6.75,1.33,1.33,1.64
32,-4.10,-5.74,-4.14,-5.79,5.61,6.67,1.51,1.47,1.64
33,-3.87,-5.51,-3.83,-5.47,5.38,6.46,1.51,1.56,1.64
34,-3.42,-5.06,-3.52,-5.16,5.13,6.17,1.71,1.61,1.64
35,-3.22,-4.85,-3.23,-4.86,4.86,5.81,1.64,1.63,1.63
36,-2.97,-4.60,-2.94,-4.57,4.57,5.41,1.60,1.63,1.63
37,-2.72,-4.34,-2.67,-4.29,4.29,5.00,1.57,1.62,1.62
38,-2.37,-3.99,-2.40,-4.02,4.02,4.58,1.65,1.62,1.62
39,-2.17,-3.78,-2.14,-3.76,3.76,4.16,1.59,1.61,1.61
40,-1.92,-3.52,-1.89,-3.50,3.50,3.76,1.58,1.60,1.60
41,-1.60,-3.19,-1.65,-3.25,3.25,3.38,1.65,1.59,1.59
42,-1.39,-2.97,-1.42,-3.00,3.00,3.01,1.61,1.58,1.58
43,-1.25,-2.82,-1.19,-2.76,2.76,2.66,1.51,1.57,1.57
44,-0.91,-2.47,-0.97,-2.53,2.53,2.33,1.62,1.56,1.56
45,-0.80,-2.34,-0.76,-2.31,2.31,2.01,1.51,1.54,1.54
46,-0.57,-2.10,-0.55,-2.08,2.08,1.71,1.51,1.53,1.53
47,-0.34,-1.85,-0.35,-1.86,1.86,1.42,1.52,1.51,1.51
48,-0.18,-1.67,-0.15,-1.65,1.65,1.14,1.47,1.49,1.49
49,0.07,-1.41,0.04,-1.43,1.43,0.88,1.50,1.48,1.48
50,0.23,-1.23,0.23,-1.22,1.22,0.63,1.45,1.46,1.46
51,0.39,-1.04,0.42,-1.01,1.01,0.39,1.40,1.43,1.43
52,0.62,-0.79,0.60,-0.81,0.81,0.16,1.43,1.41,1.41
53,0.80,-0.59,0.78,-0.61,0.61,-0.06,1.41,1.39,1.39
54,0.91,-0.45,0.95,-0.41,0.41,-0.27,1.32,1.36,1.36
55,1.14,-0.20,1.12,-0.22,0.22,-0.46,1.36,1.34,1.34
56,1.25,-0.06,1.28,-0.04,0.04,-0.65,1.29,1.31,1.31
57,1.48,0.19,1.43,0.14,-0.14,-0.82,1.34,1.29,1.29
58,1.60,0.34,1.57,0.31,-0.31,-0.98,1.29,1.26,1.26
59,1.71,0.48,1.70,0.47,-0.47,-1.13,1.24,1.23,1.23
60,1.82,0.61,1.84,0.63,-0.63,-1.26,1.19,1.21,1.21
61,1.94,0.76,1.97,0.79,-0.79,-1.39,1.15,1.18,1.18
62,2.05,0.90,2.09,0.95,-0.95,-1.50,1.10,1.15,1.15
63,2.17,1.05,2.22,1.10,-1.10,-1.60,1.07,1.12,1.12
64,2.44,1.35,2.35,1.26,-1.26,-1.70,1.18,1.09,1.09
65,2.51,1.45,2.47,1.41,-1.41,-1.78,1.10,1.06,1.06
66,2.51,1.48,2.60,1.57,-1.57,-1.86,0.94,1.03,1.03
67,2.74,1.74,2.72,1.71,-1.71,-1.92,1.03,1.00,1.00
68,2.90,1.93,2.83,1.86,-1.86,-1.99,1.04,0.97,0.97
69,2.96,2.02,2.95,2.00,-2.00,-2.04,0.96,0.94,0.94
70,2.96,2.05,3.05,2.14,-2.14,-2.10,0.82,0.91,0.91
71,3.19,2.31,3.16,2.28,-2.28,-2.15,0.91,0.88,0.88
72,3.20,2.35,3.26,2.41,-2.41,-2.20,0.79,0.85,0.85
73,3.42,2.60,3.36,2.54,-2.54,-2.24,0.88,0.82,0.82
74,3.42,2.63,3.45,2.66,-2.66,-2.29,0.76,0.79,0.79
75,3.59,2.82,3.54,2.77,-2.77,-2.33,0.82,0.77,0.77
76,3.65,2.91,3.61,2.88,-2.88,-2.38,0.77,0.74,0.74
77,3.65,2.94,3.68,2.98,-2.98,-2.43,0.67,0.71,0.71
78,3.71,3.03,3.75,3.07,-3.07,-2.48,0.64,0.68,0.68
79,3.87,3.22,3.80,3.16,-3.16,-2.53,0.71,0.65,0.65
80,3.87,3.25,3.86,3.24,-3.24,-2.58,0.63,0.62,0.62
81,3.87,3.28,3.92,3.33,-3.33,-2.63,0.54,0.59,0.59
82,3.89,3.33,3.98,3.41,-3.41,-2.69,0.48,0.56,0.56
83,4.10,3.57,4.03,3.50,-3.50,-2.75,0.60,0.53,0.53
84,4.10,3.60,4.09,3.59,-3.59,-2.81,0.51,0.50,0.50
85,4.10,3.62,4.15,3.67,-3.67,-2.87,0.43,0.48,0.48
86,4.23,3.78,4.21,3.76,-3.76,-2.94,0.47,0.45,0.45
87,4.33,3.91,4.26,3.84,-3.84,-3.00,0.49,0.42,0.42
88,4.33,3.94,4.31,3.91,-3.91,-3.08,0.42,0.39,0.39
89,4.33,3.96,4.36,3.99,-3.99,-3.15,0.34,0.37,0.37
90,4.33,3.99,4.40,4.06,-4.06,-3.22,0.27,0.34,0.34
91,4.35,4.03,4.44,4.12,-4.12,-3.30,0.23,0.32,0.32
92,4.56,4.27,4.48,4.18,-4.18,-3.38,0.38,0.29,0.29
93,4.56,4.29,4.51,4.24,-4.24,-3.46,0.32,0.27,0.27
94,4.56,4.31,4.53,4.28,-4.28,-3.55,0.28,0.25,0.25
95,4.56,4.34,4.54,4.32,-4.32,-3.63,0.24,0.23,0.22
96,4.56,4.36,4.55,4.35,-4.35,-3.72,0.21,0.20,0.20
97,4.56,4.38,4.56,4.38,-4.38,-3.81,0.18,0.18,0.18
98,4.56,4.40,4.57,4.41,-4.41,-3.90,0.15,0.16,0.16
99,4.56,4.42,4.59,4.45,-4.45,-3.99,0.11,0.14,0.14
100,4.56,4.44,4.61,4.49,-4.49,-4.08,0.07,0.12,0.12
101,4.57,4.46,4.64,4.55,-4.55,-4.17,0.02,0.10,0.11
102,4.67,4.58,4.68,4.60,-4.60,-4.27,0.07,0.07,0.09
104,4.79,4.76,4.71,4.66,-4.66,-4.45,0.13,0.05,0.03
105,4.79,4.77,4.75,4.72,-4.72,-4.54,0.07,0.03,0.02
106,4.79,4.79,4.78,4.77,-4.77,-4.63,0.02,0.01,0.00
107,4.79,4.80,4.80,4.81,-4.81,-4.72,-0.02,-0.01,-0.01
108,4.79,4.82,4.81,4.84,-4.84,-4.80,-0.05,-0.03,-0.03
109,4.79,4.83,4.81,4.85,-4.85,-4.88,-0.06,-0.05,-0.04
110,4.79,4.85,4.79,4.86,-4.86,-4.96,-0.07,-0.06,-0.06
111,4.79,4.87,4.77,4.85,-4.85,-5.04,-0.06,-0.08,-0.08
112,4.79,4.88,4.74,4.84,-4.84,-5.12,-0.05,-0.10,-0.09
113,4.78,4.89,4.71,4.82,-4.82,-5.19,-0.04,-0.12,-0.11
114,4.66,4.79,4.67,4.81,-4.81,-5.25,-0.15,-0.14,-0.13
115,4.56,4.71,4.63,4.79,-4.79,-5.31,-0.23,-0.16,-0.15
117,4.56,4.76,4.61,4.79,-4.79,-5.42,-0.23,-0.18,-0.20
118,4.56,4.77,4.58,4.79,-4.79,-5.47,-0.23,-0.21,-0.21
119,4.56,4.79,4.57,4.80,-4.80,-5.51,-0.24,-0.23,-0.23
120,4.56,4.81,4.56,4.82,-4.82,-5.55,-0.26,-0.26,-0.25
121,4.56,4.83,4.56,4.84,-4.84,-5.58,-0.28,-0.28,-0.27
123,4.56,4.88,4.56,4.86,-4.86,-5.63,-0.30,-0.31,-0.32
124,4.56,4.90,4.55,4.89,-4.89,-5.64,-0.33,-0.33,-0.34
125,4.56,4.92,4.54,4.90,-4.90,-5.65,-0.34,-0.36,-0.36
126,4.56,4.94,4.52,4.91,-4.91,-5.65,-0.35,-0.38,-0.38
128,4.56,4.98,4.49,4.90,-4.90,-5.65,-0.34,-0.41,-0.42
129,4.47,4.91,4.46,4.90,-4.90,-5.63,-0.43,-0.43,-0.44
130,4.33,4.79,4.42,4.88,-4.88,-5.62,-0.55,-0.46,-0.46
131,4.33,4.80,4.38,4.86,-4.86,-5.60,-0.53,-0.48,-0.47
133,4.33,4.84,4.34,4.84,-4.84,-5.55,-0.51,-0.51,-0.51
134,4.33,4.86,4.29,4.82,-4.82,-5.51,-0.49,-0.53,-0.53
135,4.33,4.88,4.25,4.80,-4.80,-5.48,-0.47,-0.56,-0.55
137,4.25,4.83,4.21,4.79,-4.79,-5.40,-0.54,-0.58,-0.58
138,4.10,4.70,4.17,4.77,-4.77,-5.36,-0.67,-0.60,-0.60
140,4.10,4.73,4.14,4.77,-4.77,-5.27,-0.67,-0.62,-0.63
141,4.10,4.75,4.12,4.77,-4.77,-5.22,-0.67,-0.64,-0.65
142,4.10,4.76,4.11,4.77,-4.77,-5.17,-0.67,-0.66,-0.66
144,4.10,4.79,4.10,4.79,-4.79,-5.07,-0.69,-0.68,-0.69
145,4.10,4.80,4.10,4.80,-4.80,-5.02,-0.70,-0.70,-0.70
147,4.10,4.83,4.10,4.82,-4.82,-4.92,-0.72,-0.72,-0.73
148,4.10,4.84,4.09,4.83,-4.83,-4.87,-0.73,-0.74,-0.74
150,4.10,4.86,4.09,4.85,-4.85,-4.76,-0.75,-0.76,-0.76
151,4.10,4.87,4.08,4.85,-4.85,-4.71,-0.75,-0.77,-0.77
153,4.09,4.88,4.06,4.85,-4.85,-4.61,-0.76,-0.79,-0.79
154,4.01,4.81,4.03,4.83,-4.83,-4.56,-0.82,-0.81,-0.80
156,3.99,4.81,3.99,4.81,-4.81,-4.47,-0.82,-0.82,-0.82
157,3.98,4.81,3.96,4.79,-4.79,-4.42,-0.81,-0.83,-0.83
159,3.87,4.72,3.91,4.76,-4.76,-4.33,-0.89,-0.85,-0.85
160,3.87,4.73,3.87,4.73,-4.73,-4.29,-0.86,-0.86,-0.86
162,3.87,4.74,3.83,4.70,-4.70,-4.20,-0.83,-0.87,-0.87
164,3.76,4.65,3.79,4.68,-4.68,-4.12,-0.92,-0.89,-0.89
165,3.76,4.66,3.76,4.66,-4.66,-4.08,-0.90,-0.90,-0.90
167,3.74,4.65,3.73,4.64,-4.64,-4.01,-0.90,-0.91,-0.91
169,3.65,4.57,3.70,4.62,-4.62,-3.94,-0.97,-0.92,-0.92
170,3.65,4.58,3.68,4.61,-4.61,-3.91,-0.96,-0.93,-0.93
172,3.65,4.59,3.65,4.59,-4.59,-3.85,-0.94,-0.94,-0.94
174,3.65,4.60,3.62,4.57,-4.57,-3.80,-0.92,-0.95,-0.95
175,3.65,4.60,3.58,4.54,-4.54,-3.77,-0.89,-0.96,-0.95
177,3.54,4.50,3.54,4.50,-4.50,-3.72,-0.96,-0.97,-0.96
179,3.53,4.50,3.49,4.46,-4.46,-3.68,-0.93,-0.97,-0.97
181,3.42,4.40,3.44,4.42,-4.42,-3.63,-1.00,-0.98,-0.98
183,3.30,4.29,3.38,4.37,-4.37,-3.60,-1.07,-0.99,-0.99
184,3.30,4.29,3.32,4.32,-4.32,-3.58,-1.02,-0.99,-0.99
186,3.30,4.29,3.27,4.26,-4.26,-3.55,-0.96,-1.00,-0.99
188,3.30,4.30,3.21,4.22,-4.22,-3.52,-0.92,-1.00,-1.00
190,3.08,4.08,3.16,4.17,-4.17,-3.50,-1.09,-1.00,-1.00
192,3.08,4.09,3.11,4.12,-4.12,-3.48,-1.04,-1.01,-1.01
194,3.08,4.09,3.06,4.07,-4.07,-3.46,-0.99,-1.01,-1.01
196,3.00,4.01,3.00,4.02,-4.02,-3.44,-1.02,-1.01,-1.01
198,2.96,3.98,2.95,3.96,-3.96,-3.43,-1.00,-1.02,-1.02
200,2.96,3.98,2.89,3.91,-3.91,-3.42,-0.95,-1.02,-1.02
202,2.85,3.87,2.83,3.85,-3.85,-3.41,-1.00,-1.02,-1.02
204,2.77,3.79,2.77,3.79,-3.79,-3.40,-1.02,-1.02,-1.02
206,2.62,3.64,2.71,3.73,-3.73,-3.39,-1.11,-1.02,-1.02
208,2.62,3.64,2.66,3.68,-3.68,-3.39,-1.06,-1.02,-1.02
210,2.62,3.64,2.61,3.63,-3.63,-3.39,-1.01,-1.02,-1.02
212,2.62,3.64,2.56,3.58,-3.58,-3.38,-0.96,-1.02,-1.02
214,2.52,3.54,2.52,3.54,-3.54,-3.38,-1.02,-1.02,-1.02
216,2.51,3.53,2.49,3.51,-3.51,-3.38,-1.00,-1.02,-1.02
218,2.39,3.40,2.46,3.47,-3.47,-3.37,-1.08,-1.02,-1.01
221,2.39,3.41,2.42,3.44,-3.44,-3.37,-1.05,-1.01,-1.02
223,2.39,3.40,2.39,3.40,-3.40,-3.37,-1.01,-1.01,-1.01
225,2.39,3.40,2.35,3.36,-3.36,-3.36,-0.97,-1.01,-1.01
227,2.39,3.40,2.30,3.31,-3.31,-3.36,-0.92,-1.01,-1.01
229,2.24,3.25,2.25,3.25,-3.25,-3.35,-1.01,-1.01,-1.01
232,2.17,3.18,2.19,3.19,-3.19,-3.34,-1.02,-1.01,-1.01
234,2.14,3.14,2.12,3.13,-3.13,-3.33,-0.99,-1.00,-1.00
236,2.05,3.05,2.06,3.06,-3.06,-3.32,-1.01,-1.00,-1.00
239,1.98,2.98,2.00,3.00,-3.00,-3.30,-1.02,-1.00,-1.00
241,1.94,2.94,1.94,2.94,-2.94,-3.29,-1.00,-1.00,-1.00
244,1.82,2.81,1.89,2.88,-2.88,-3.26,-1.06,-0.99,-0.99
246,1.82,2.81,1.85,2.84,-2.84,-3.24,-1.02,-0.99,-0.99
248,1.82,2.81,1.81,2.80,-2.80,-3.22,-0.98,-0.99,-0.99
251,1.82,2.80,1.77,2.76,-2.76,-3.18,-0.94,-0.98,-0.98
253,1.80,2.78,1.74,2.72,-2.72,-3.15,-0.92,-0.98,-0.98
256,1.71,2.69,1.70,2.68,-2.68,-3.11,-0.97,-0.98,-0.98
259,1.61,2.58,1.67,2.64,-2.64,-3.06,-1.03,-0.97,-0.97
261,1.60,2.57,1.63,2.60,-2.60,-3.03,-1.00,-0.97,-0.97
264,1.60,2.56,1.59,2.56,-2.56,-2.98,-0.96,-0.96,-0.96
266,1.60,2.56,1.56,2.51,-2.51,-2.94,-0.91,-0.96,-0.96
269,1.56,2.51,1.52,2.47,-2.47,-2.88,-0.91,-0.95,-0.95
272,1.48,2.42,1.49,2.43,-2.43,-2.82,-0.95,-0.94,-0.94
274,1.43,2.37,1.46,2.39,-2.39,-2.78,-0.96,-0.94,-0.94
277,1.37,2.30,1.43,2.35,-2.35,-2.71,-0.98,-0.93,-0.93
280,1.37,2.29,1.40,2.31,-2.31,-2.65,-0.94,-0.92,-0.92
283,1.37,2.28,1.37,2.28,-2.28,-2.58,-0.91,-0.91,-0.91
286,1.37,2.27,1.34,2.23,-2.23,-2.51,-0.86,-0.90,-0.90
288,1.37,2.26,1.30,2.19,-2.19,-2.46,-0.82,-0.89,-0.89
291,1.33,2.20,1.27,2.14,-2.14,-2.40,-0.81,-0.87,-0.87
294,1.19,2.05,1.23,2.09,-2.09,-2.33,-0.90,-0.86,-0.86
297,1.14,1.99,1.20,2.04,-2.04,-2.26,-0.90,-0.85,-0.85
300,1.14,1.97,1.16,1.99,-1.99,-2.19,-0.85,-0.83,-0.83
303,1.14,1.95,1.13,1.94,-1.94,-2.12,-0.80,-0.81,-0.81
306,1.03,1.83,1.09,1.89,-1.89,-2.05,-0.86,-0.80,-0.80
309,1.06,1.84,1.06,1.84,-1.84,-1.98,-0.78,-0.78,-0.78
312,1.14,1.90,1.02,1.78,-1.78,-1.92,-0.64,-0.76,-0.76
316,1.04,1.78,0.98,1.72,-1.72,-1.83,-0.68,-0.74,-0.74
319,0.91,1.63,0.94,1.66,-1.66,-1.76,-0.75,-0.72,-0.72
322,0.91,1.61,0.90,1.60,-1.60,-1.70,-0.69,-0.70,-0.70
325,0.80,1.48,0.87,1.55,-1.55,-1.64,-0.75,-0.68,-0.68
328,0.80,1.46,0.84,1.50,-1.50,-1.58,-0.70,-0.66,-0.66
332,0.80,1.44,0.82,1.46,-1.46,-1.50,-0.66,-0.64,-0.64
335,0.80,1.42,0.81,1.43,-1.43,-1.44,-0.63,-0.62,-0.62
338,0.80,1.40,0.80,1.41,-1.41,-1.38,-0.61,-0.60,-0.60
342,0.80,1.38,0.80,1.38,-1.38,-1.30,-0.58,-0.58,-0.58
345,0.80,1.36,0.79,1.35,-1.35,-1.25,-0.55,-0.56,-0.56
349,0.80,1.34,0.77,1.31,-1.31,-1.18,-0.51,-0.54,-0.54
352,0.80,1.32,0.73,1.26,-1.26,-1.12,-0.46,-0.52,-0.52
356,0.72,1.22,0.69,1.19,-1.19,-1.06,-0.47,-0.50,-0.50
359,0.61,1.10,0.63,1.12,-1.12,-1.01,-0.51,-0.49,-0.49
363,0.57,1.04,0.57,1.04,-1.04,-0.94,-0.47,-0.47,-0.47
366,0.47,0.92,0.50,0.95,-0.95,-0.89,-0.48,-0.45,-0.45
370,0.44,0.88,0.43,0.87,-0.87,-0.83,-0.43,-0.44,-0.44
374,0.34,0.76,0.36,0.78,-0.78,-0.77,-0.44,-0.42,-0.42
377,0.31,0.72,0.30,0.71,-0.71,-0.72,-0.40,-0.41,-0.41
381,0.23,0.62,0.24,0.64,-0.64,-0.67,-0.41,-0.39,-0.39
385,0.23,0.61,0.20,0.58,-0.58,-0.61,-0.35,-0.38,-0.38
389,0.13,0.50,0.16,0.53,-0.53,-0.55,-0.40,-0.37,-0.37
393,0.11,0.46,0.14,0.49,-0.49,-0.50,-0.38,-0.35,-0.35
397,0.11,0.45,0.12,0.47,-0.47,-0.45,-0.36,-0.34,-0.34
401,0.11,0.44,0.12,0.45,-0.45,-0.39,-0.34,-0.33,-0.33
405,0.11,0.43,0.11,0.43,-0.43,-0.34,-0.32,-0.32,-0.32
409,0.11,0.42,0.11,0.42,-0.42,-0.30,-0.31,-0.31,-0.31
413,0.11,0.41,0.10,0.40,-0.40,-0.25,-0.29,-0.30,-0.30
417,0.11,0.41,0.09,0.38,-0.38,-0.20,-0.27,-0.30,-0.30
421,0.11,0.40,0.07,0.36,-0.36,-0.16,-0.25,-0.29,-0.29
425,0.10,0.38,0.04,0.32,-0.32,-0.11,-0.22,-0.28,-0.28
430,0.00,0.27,0.01,0.28,-0.28,-0.06,-0.28,-0.27,-0.27
434,-0.06,0.20,-0.02,0.24,-0.24,-0.02,-0.30,-0.26,-0.26
438,-0.11,0.14,-0.06,0.19,-0.19,0.02,-0.30,-0.25,-0.25
443,-0.11,0.13,-0.09,0.15,-0.15,0.07,-0.26,-0.24,-0.24
447,-0.11,0.12,-0.13,0.11,-0.11,0.10,-0.22,-0.23,-0.23
451,-0.11,0.12,-0.16,0.07,-0.07,0.14,-0.18,-0.23,-0.23
456,-0.23,-0.01,-0.19,0.03,-0.03,0.18,-0.26,-0.22,-0.22
460,-0.23,-0.02,-0.21,-0.01,0.01,0.21,-0.22,-0.21,-0.21
465,-0.23,-0.04,-0.24,-0.05,0.05,0.25,-0.18,-0.19,-0.19
470,-0.23,-0.05,-0.27,-0.08,0.08,0.29,-0.15,-0.18,-0.18
474,-0.31,-0.14,-0.29,-0.12,0.12,0.32,-0.19,-0.17,-0.17
479,-0.34,-0.18,-0.32,-0.17,0.17,0.35,-0.17,-0.16,-0.16
484,-0.34,-0.20,-0.35,-0.21,0.21,0.38,-0.13,-0.14,-0.14
489,-0.34,-0.21,-0.38,-0.25,0.25,0.41,-0.09,-0.13,-0.13
494,-0.40,-0.29,-0.40,-0.29,0.29,0.44,-0.11,-0.11,-0.11
499,-0.46,-0.36,-0.42,-0.33,0.33,0.46,-0.13,-0.10,-0.10
504,-0.46,-0.38,-0.44,-0.36,0.36,0.48,-0.10,-0.08,-0.08
509,-0.46,-0.40,-0.45,-0.39,0.39,0.51,-0.07,-0.06,-0.06
514,-0.46,-0.42,-0.46,-0.42,0.42,0.52,-0.04,-0.04,-0.04
519,-0.46,-0.44,-0.47,-0.44,0.44,0.54,-0.02,-0.02,-0.02
524,-0.46,-0.46,-0.47,-0.46,0.46,0.56,0.00,-0.00,-0.00
529,-0.46,-0.48,-0.47,-0.48,0.48,0.57,0.02,0.02,0.02
535,-0.46,-0.50,-0.46,-0.50,0.50,0.59,0.04,0.04,0.04
540,-0.46,-0.52,-0.46,-0.52,0.52,0.60,0.06,0.06,0.06
545,-0.46,-0.54,-0.45,-0.54,0.54,0.62,0.08,0.08,0.08
551,-0.46,-0.57,-0.45,-0.56,0.56,0.63,0.10,0.11,0.11
556,-0.46,-0.59,-0.45,-0.58,0.58,0.64,0.12,0.13,0.13
562,-0.46,-0.62,-0.45,-0.61,0.61,0.65,0.15,0.16,0.16
568,-0.46,-0.64,-0.46,-0.64,0.64,0.66,0.18,0.18,0.18
573,-0.46,-0.67,-0.47,-0.68,0.68,0.67,0.22,0.21,0.21
579,-0.46,-0.69,-0.50,-0.73,0.73,0.68,0.27,0.23,0.23
585,-0.46,-0.72,-0.52,-0.78,0.78,0.68,0.32,0.26,0.26
591,-0.57,-0.85,-0.56,-0.84,0.84,0.69,0.27,0.28,0.28
596,-0.59,-0.89,-0.59,-0.90,0.90,0.70,0.31,0.30,0.30
602,-0.68,-1.01,-0.62,-0.95,0.95,0.71,0.27,0.33,0.33
608,-0.68,-1.03,-0.65,-1.00,1.00,0.71,0.32,0.35,0.35
615,-0.68,-1.05,-0.67,-1.05,1.05,0.72,0.37,0.37,0.37
621,-0.68,-1.08,-0.68,-1.08,1.08,0.73,0.40,0.40,0.40
627,-0.68,-1.10,-0.69,-1.10,1.10,0.74,0.42,0.42,0.42
633,-0.68,-1.12,-0.68,-1.12,1.12,0.75,0.44,0.44,0.44
639,-0.68,-1.14,-0.67,-1.13,1.13,0.76,0.45,0.46,0.46
646,-0.68,-1.16,-0.65,-1.13,1.13,0.77,0.45,0.48,0.48
652,-0.62,-1.12,-0.63,-1.13,1.13,0.78,0.51,0.50,0.50
659,-0.57,-1.09,-0.61,-1.13,1.13,0.79,0.56,0.52,0.52
665,-0.57,-1.11,-0.59,-1.13,1.13,0.80,0.56,0.54,0.54
672,-0.57,-1.13,-0.57,-1.13,1.13,0.82,0.56,0.56,0.56
679,-0.57,-1.15,-0.55,-1.13,1.13,0.83,0.56,0.58,0.58
686,-0.57,-1.17,-0.53,-1.13,1.13,0.85,0.56,0.60,0.60
692,-0.52,-1.14,-0.51,-1.13,1.13,0.86,0.61,0.62,0.62
699,-0.46,-1.10,-0.49,-1.13,1.13,0.88,0.67,0.64,0.64
706,-0.46,-1.12,-0.48,-1.14,1.14,0.89,0.68,0.66,0.66
713,-0.46,-1.14,-0.47,-1.14,1.14,0.91,0.68,0.68,0.68
721,-0.46,-1.16,-0.46,-1.16,1.16,0.93,0.70,0.70,0.70
728,-0.46,-1.18,-0.46,-1.17,1.17,0.95,0.71,0.72,0.72
735,-0.46,-1.20,-0.46,-1.19,1.19,0.97,0.73,0.74,0.74
742,-0.46,-1.22,-0.46,-1.21,1.21,0.99,0.75,0.76,0.76
750,-0.46,-1.24,-0.46,-1.24,1.24,1.01,0.78,0.78,0.78
757,-0.46,-1.26,-0.46,-1.26,1.26,1.03,0.80,0.80,0.80
765,-0.46,-1.28,-0.47,-1.28,1.28,1.06,0.82,0.82,0.82
773,-0.46,-1.30,-0.47,-1.30,1.30,1.08,0.84,0.84,0.84
780,-0.46,-1.31,-0.47,-1.32,1.32,1.10,0.86,0.85,0.85
788,-0.46,-1.33,-0.46,-1.33,1.33,1.13,0.87,0.87,0.87
796,-0.46,-1.35,-0.45,-1.34,1.34,1.15,0.88,0.89,0.89
804,-0.46,-1.36,-0.43,-1.33,1.33,1.18,0.87,0.90,0.90
812,-0.46,-1.38,-0.41,-1.32,1.32,1.20,0.86,0.92,0.92
820,-0.34,-1.27,-0.38,-1.31,1.31,1.22,0.97,0.93,0.93
828,-0.34,-1.28,-0.35,-1.29,1.29,1.25,0.95,0.94,0.94
837,-0.34,-1.29,-0.32,-1.27,1.27,1.27,0.93,0.95,0.95
845,-0.28,-1.24,-0.29,-1.25,1.25,1.30,0.97,0.96,0.96
853,-0.23,-1.20,-0.27,-1.24,1.24,1.32,1.01,0.97,0.97
862,-0.23,-1.21,-0.25,-1.23,1.23,1.34,1.00,0.98,0.98
871,-0.23,-1.22,-0.24,-1.23,1.23,1.36,1.00,0.99,0.99
879,-0.23,-1.23,-0.23,-1.23,1.23,1.38,1.00,1.00,1.00
888,-0.23,-1.23,-0.23,-1.23,1.23,1.40,1.00,1.00,1.00
897,-0.23,-1.24,-0.22,-1.23,1.23,1.41,1.00,1.01,1.01
906,-0.23,-1.24,-0.21,-1.23,1.23,1.43,1.00,1.01,1.01
915,-0.23,-1.25,-0.20,-1.21,1.21,1.44,0.98,1.02,1.02
924,-0.23,-1.25,-0.17,-1.20,1.20,1.45,0.97,1.02,1.02
933,-0.12,-1.15,-0.15,-1.18,1.18,1.45,1.06,1.03,1.03
943,-0.11,-1.15,-0.12,-1.15,1.15,1.46,1.04,1.04,1.04
952,-0.08,-1.12,-0.09,-1.13,1.13,1.46,1.05,1.04,1.04
962,0.00,-1.05,-0.06,-1.11,1.11,1.45,1.11,1.05,1.05
971,0.00,-1.06,-0.03,-1.09,1.09,1.45,1.09,1.06,1.06
981,0.00,-1.07,-0.00,-1.08,1.08,1.44,1.08,1.07,1.07
991,0.00,-1.08,0.02,-1.06,1.06,1.43,1.06,1.08,1.08
1001,0.00,-1.09,0.05,-1.04,1.04,1.41,1.04,1.09,1.09
1011,0.02,-1.09,0.08,-1.03,1.03,1.39,1.05,1.11,1.11
1021,0.11,-1.01,0.11,-1.01,1.01,1.36,1.12,1.12,1.12
1031,0.17,-0.97,0.14,-1.00,1.00,1.34,1.17,1.14,1.14
1041,0.23,-0.93,0.17,-0.99,0.99,1.31,1.22,1.16,1.16
1052,0.23,-0.94,0.19,-0.98,0.98,1.27,1.21,1.17,1.17
1062,0.23,-0.96,0.22,-0.97,0.97,1.23,1.20,1.19,1.19
1073,0.23,-0.98,0.25,-0.97,0.97,1.19,1.20,1.21,1.21
1084,0.23,-1.01,0.28,-0.96,0.96,1.14,1.19,1.24,1.24
1094,0.27,-0.99,0.31,-0.95,0.95,1.10,1.22,1.26,1.26
1105,0.34,-0.94,0.35,-0.93,0.93,1.05,1.27,1.28,1.28
1116,0.41,-0.89,0.39,-0.91,0.91,0.99,1.32,1.30,1.30
1128,0.46,-0.87,0.44,-0.89,0.89,0.93,1.35,1.33,1.33
1139,0.46,-0.89,0.49,-0.86,0.86,0.87,1.32,1.35,1.35
1150,0.57,-0.80,0.54,-0.83,0.83,0.82,1.40,1.37,1.37
1162,0.60,-0.79,0.59,-0.80,0.80,0.75,1.40,1.39,1.39
1173,0.68,-0.74,0.64,-0.78,0.78,0.69,1.46,1.41,1.42
1185,0.68,-0.75,0.69,-0.75,0.75,0.62,1.43,1.43,1.43
1197,0.68,-0.77,0.74,-0.71,0.71,0.55,1.39,1.45,1.45
1209,0.78,-0.69,0.79,-0.68,0.68,0.48,1.46,1.47,1.47
1221,0.91,-0.57,0.85,-0.64,0.64,0.41,1.55,1.48,1.48
1233,0.91,-0.59,0.91,-0.59,0.59,0.34,1.50,1.50,1.50
1246,0.91,-0.60,0.97,-0.53,0.53,0.26,1.44,1.50,1.51
1258,1.02,-0.49,1.04,-0.47,0.47,0.19,1.49,1.51,1.51
1271,1.14,-0.38,1.11,-0.40,0.40,0.11,1.54,1.52,1.52
1283,1.14,-0.38,1.19,-0.33,0.33,0.04,1.47,1.52,1.52
1296,1.35,-0.17,1.26,-0.26,0.26,-0.03,1.61,1.52,1.52
1309,1.37,-0.15,1.34,-0.18,0.18,-0.11,1.55,1.52,1.52
1322,1.37,-0.14,1.41,-0.10,0.10,-0.19,1.47,1.51,1.51
1335,1.44,-0.06,1.49,-0.02,0.02,-0.27,1.46,1.50,1.50
1349,1.60,0.11,1.56,0.07,-0.07,-0.35,1.53,1.49,1.49
1362,1.60,0.12,1.64,0.15,-0.15,-0.43,1.45,1.48,1.48
1376,1.78,0.31,1.71,0.24,-0.24,-0.51,1.54,1.47,1.47
1390,1.82,0.36,1.79,0.33,-0.33,-0.60,1.49,1.46,1.46
1404,1.82,0.38,1.87,0.43,-0.43,-0.68,1.39,1.44,1.44
1418,1.89,0.46,1.96,0.53,-0.53,-0.76,1.36,1.43,1.43
1432,2.05,0.63,2.05,0.64,-0.64,-0.84,1.41,1.42,1.42
1446,2.18,0.78,2.14,0.74,-0.74,-0.93,1.44,1.40,1.40
1461,2.28,0.89,2.24,0.85,-0.85,-1.01,1.43,1.39,1.39
1475,2.28,0.90,2.34,0.95,-0.95,-1.10,1.33,1.38,1.38
1490,2.51,1.13,2.44,1.06,-1.06,-1.18,1.45,1.38,1.38
1505,2.53,1.16,2.53,1.16,-1.16,-1.27,1.37,1.37,1.37
1520,2.62,1.25,2.63,1.26,-1.26,-1.36,1.36,1.37,1.37
1535,2.67,1.30,2.73,1.36,-1.36,-1.44,1.31,1.37,1.37
1550,2.87,1.49,2.83,1.45,-1.45,-1.53,1.42,1.38,1.38
1566,2.96,1.57,2.94,1.55,-1.55,-1.62,1.41,1.39,1.39
1582,3.07,1.66,3.05,1.64,-1.64,-1.71,1.43,1.41,1.41
1597,3.08,1.65,3.16,1.73,-1.73,-1.79,1.35,1.43,1.43
1613,3.30,1.85,3.28,1.82,-1.82,-1.88,1.48,1.45,1.45
1629,3.38,1.89,3.40,1.91,-1.91,-1.96,1.47,1.49,1.49
1646,3.53,2.01,3.52,2.00,-2.00,-2.05,1.53,1.52,1.52
1662,3.68,2.11,3.65,2.09,-2.09,-2.14,1.59,1.57,1.57
1679,3.85,2.23,3.79,2.17,-2.17,-2.22,1.68,1.62,1.62
1696,3.87,2.20,3.93,2.26,-2.26,-2.30,1.61,1.67,1.67
1713,4.10,2.37,4.08,2.34,-2.34,-2.38,1.76,1.73,1.73
1730,4.16,2.36,4.23,2.43,-2.43,-2.46,1.73,1.80,1.80
1747,4.35,2.48,4.39,2.52,-2.52,-2.53,1.83,1.87,1.87
1764,4.54,2.60,4.56,2.62,-2.62,-2.60,1.92,1.94,1.94
1782,4.83,2.81,4.73,2.71,-2.71,-2.67,2.12,2.02,2.02
1800,4.90,2.79,4.90,2.80,-2.80,-2.73,2.10,2.11,2.11
1818,5.13,2.94,5.08,2.88,-2.88,-2.79,2.25,2.19,2.19
1836,5.16,2.88,5.25,2.96,-2.96,-2.84,2.20,2.28,2.28
1854,5.39,3.01,5.42,3.04,-3.04,-2.89,2.35,2.38,2.38
1873,5.57,3.09,5.59,3.11,-3.11,-2.93,2.46,2.47,2.48
1892,5.84,3.27,5.75,3.18,-3.18,-2.96,2.66,2.57,2.57
