frequency,raw,error,smoothed,error_smoothed,equalization,parametric_eq,fixed_band_eq,equalized_raw,equalized_smoothed,target
20.00,-14.75,-18.01,-14.76,-18.01,6.00,5.27,2.94,-8.75,-8.76,3.26
20.20,-14.56,-17.87,-14.56,-17.87,6.00,5.29,3.03,-8.56,-8.56,3.31
20.40,-14.37,-17.73,-14.37,-17.72,6.00,5.30,3.11,-8.37,-8.37,3.36
20.61,-14.20,-17.58,-14.19,-17.58,6.00,5.32,3.20,-8.20,-8.19,3.39
20.81,-14.00,-17.44,-14.01,-17.44,6.00,5.34,3.29,-8.00,-8.01,3.44
21.02,-13.82,-17.30,-13.83,-17.30,6.00,5.37,3.39,-7.82,-7.83,3.47
21.23,-13.67,-17.17,-13.67,-17.17,6.00,5.39,3.48,-7.67,-7.67,3.49
21.44,-13.52,-17.04,-13.52,-17.03,6.00,5.41,3.58,-7.52,-7.52,3.51
21.66,-13.38,-16.91,-13.37,-16.90,6.00,5.43,3.68,-7.38,-7.37,3.53
21.87,-13.23,-16.77,-13.24,-16.78,6.00,5.45,3.79,-7.23,-7.24,3.54
22.09,-13.11,-16.68,-13.13,-16.69,6.00,5.47,3.90,-7.11,-7.13,3.56
22.31,-13.04,-16.61,-13.04,-16.61,6.00,5.50,4.01,-7.04,-7.04,3.57
22.54,-12.98,-16.55,-12.97,-16.55,6.00,5.52,4.12,-6.98,-6.97,3.57
22.76,-12.89,-16.46,-12.90,-16.47,6.00,5.54,4.24,-6.89,-6.90,3.57
22.99,-12.82,-16.38,-12.80,-16.36,6.00,5.57,4.36,-6.82,-6.80,3.56
23.22,-12.66,-16.22,-12.67,-16.23,6.00,5.59,4.48,-6.66,-6.67,3.56
23.45,-12.50,-16.06,-12.51,-16.07,6.00,5.61,4.60,-6.50,-6.51,3.56
23.69,-12.34,-15.90,-12.33,-15.90,6.00,5.64,4.73,-6.34,-6.33,3.57
23.92,-12.16,-15.73,-12.17,-15.74,6.00,5.66,4.86,-6.16,-6.17,3.57
24.16,-12.02,-15.60,-12.02,-15.60,6.00,5.69,5.00,-6.02,-6.02,3.58
24.40,-11.88,-15.47,-11.88,-15.46,6.00,5.71,5.13,-5.88,-5.88,3.58
24.65,-11.75,-15.32,-11.75,-15.32,6.00,5.74,5.27,-5.75,-5.75,3.57
24.89,-11.61,-15.18,-11.61,-15.18,6.00,5.76,5.41,-5.61,-5.61,3.57
25.14,-11.47,-15.04,-11.47,-15.04,6.00,5.79,5.55,-5.47,-5.47,3.57
25.39,-11.32,-14.90,-11.33,-14.90,6.00,5.82,5.69,-5.32,-5.33,3.58
25.65,-11.18,-14.76,-11.18,-14.75,6.00,5.84,5.83,-5.18,-5.18,3.58
25.91,-11.04,-14.61,-11.04,-14.61,6.00,5.87,5.98,-5.04,-5.04,3.57
26.16,-10.90,-14.47,-10.91,-14.48,6.00,5.90,6.12,-4.90,-4.91,3.57
26.43,-10.80,-14.36,-10.79,-14.36,6.00,5.92,6.26,-4.80,-4.79,3.57
26.69,-10.67,-14.24,-10.67,-14.24,6.00,5.95,6.41,-4.67,-4.67,3.57
26.96,-10.56,-14.13,-10.55,-14.13,6.00,5.98,6.55,-4.56,-4.55,3.57
27.23,-10.43,-14.00,-10.42,-13.99,6.00,6.00,6.68,-4.43,-4.42,3.57
27.50,-10.28,-13.86,-10.29,-13.86,6.00,6.03,6.82,-4.28,-4.29,3.57
27.77,-10.14,-13.70,-10.14,-13.71,6.00,6.06,6.95,-4.14,-4.14,3.56
28.05,-10.00,-13.56,-10.00,-13.56,6.00,6.08,7.07,-4.00,-4.00,3.56
28.33,-9.86,-13.41,-9.86,-13.41,6.00,6.11,7.19,-3.86,-3.86,3.55
28.62,-9.72,-13.26,-9.72,-13.26,6.00,6.13,7.30,-3.72,-3.72,3.55
28.90,-9.57,-13.13,-9.57,-13.12,6.00,6.16,7.40,-3.57,-3.57,3.55
29.19,-9.42,-12.97,-9.43,-12.98,6.00,6.18,7.50,-3.42,-3.43,3.54
29.48,-9.28,-12.84,-9.28,-12.83,6.00,6.21,7.58,-3.28,-3.28,3.56
29.78,-9.14,-12.68,-9.14,-12.69,6.00,6.23,7.66,-3.14,-3.14,3.55
30.08,-9.00,-12.55,-9.00,-12.55,6.00,6.26,7.71,-3.00,-3.00,3.56
30.38,-8.87,-12.41,-8.87,-12.41,6.00,6.28,7.77,-2.87,-2.87,3.55
30.68,-8.73,-12.28,-8.74,-12.28,6.00,6.30,7.80,-2.73,-2.74,3.54
30.99,-8.61,-12.15,-8.60,-12.14,6.00,6.32,7.82,-2.61,-2.60,3.54
31.30,-8.45,-11.98,-8.45,-11.98,6.00,6.34,7.83,-2.45,-2.45,3.54
31.61,-8.28,-11.82,-8.29,-11.82,6.00,6.36,7.83,-2.28,-2.29,3.54
31.93,-8.13,-11.66,-8.13,-11.66,6.00,6.38,7.80,-2.13,-2.13,3.53
32.24,-7.98,-11.50,-7.99,-11.52,6.00,6.40,7.77,-1.98,-1.99,3.52
32.57,-7.87,-11.39,-7.86,-11.38,6.00,6.41,7.73,-1.87,-1.86,3.53
32.89,-7.73,-11.26,-7.73,-11.25,6.00,6.42,7.67,-1.73,-1.73,3.53
33.22,-7.60,-11.12,-7.61,-11.12,6.00,6.44,7.60,-1.60,-1.61,3.51
33.55,-7.48,-10.99,-7.48,-10.99,6.00,6.45,7.52,-1.48,-1.48,3.51
33.89,-7.35,-10.85,-7.36,-10.86,6.00,6.46,7.43,-1.35,-1.36,3.50
34.23,-7.23,-10.74,-7.23,-10.73,6.00,6.46,7.34,-1.23,-1.23,3.51
34.57,-7.10,-10.60,-7.11,-10.60,6.00,6.47,7.23,-1.10,-1.11,3.49
34.92,-6.99,-10.47,-6.98,-10.47,6.00,6.47,7.12,-0.99,-0.98,3.49
35.27,-6.84,-10.32,-6.84,-10.32,6.00,6.47,7.00,-0.84,-0.84,3.49
35.62,-6.68,-10.17,-6.69,-10.17,6.00,6.47,6.88,-0.68,-0.69,3.48
35.97,-6.52,-10.00,-6.52,-10.00,6.00,6.47,6.75,-0.52,-0.52,3.48
36.33,-6.35,-9.84,-6.35,-9.83,6.00,6.46,6.62,-0.35,-0.35,3.48
36.70,-6.18,-9.65,-6.18,-9.65,6.00,6.45,6.49,-0.18,-0.18,3.47
37.06,-6.00,-9.47,-5.99,-9.47,6.00,6.44,6.35,-0.00,0.01,3.47
37.43,-5.82,-9.30,-5.81,-9.29,6.00,6.43,6.22,0.18,0.19,3.48
37.81,-5.64,-9.12,-5.66,-9.14,6.00,6.41,6.09,0.36,0.34,3.48
38.19,-5.53,-9.01,-5.57,-9.05,6.00,6.39,5.95,0.47,0.43,3.47
38.57,-5.49,-8.97,-5.49,-8.97,6.00,6.37,5.82,0.51,0.51,3.48
38.95,-5.45,-8.94,-5.39,-8.87,6.00,6.34,5.69,0.55,0.61,3.48
39.34,-5.24,-8.72,-5.23,-8.71,6.00,6.32,5.56,0.76,0.77,3.48
39.74,-5.01,-8.48,-5.03,-8.51,6.00,6.28,5.43,0.99,0.97,3.47
40.14,-4.81,-8.28,-4.83,-8.30,6.00,6.25,5.30,1.19,1.17,3.48
40.54,-4.70,-8.18,-4.69,-8.16,6.00,6.21,5.18,1.30,1.31,3.47
40.94,-4.59,-8.06,-4.62,-8.09,6.00,6.17,5.06,1.41,1.38,3.47
41.35,-4.58,-8.04,-4.60,-8.06,6.00,6.12,4.94,1.42,1.40,3.46
41.76,-4.57,-8.03,-4.54,-8.00,6.00,6.07,4.83,1.43,1.46,3.45
42.18,-4.45,-7.91,-4.40,-7.86,6.00,6.02,4.71,1.55,1.60,3.46
42.60,-4.18,-7.62,-4.19,-7.64,6.00,5.96,4.60,1.82,1.81,3.44
43.03,-3.91,-7.35,-3.96,-7.39,6.00,5.90,4.50,2.09,2.04,3.43
43.46,-3.75,-7.18,-3.75,-7.17,6.00,5.84,4.40,2.25,2.25,3.43
43.90,-3.60,-7.00,-3.59,-6.99,6.00,5.77,4.30,2.40,2.41,3.40
44.33,-3.46,-6.84,-3.47,-6.85,6.01,5.71,4.20,2.55,2.54,3.38
44.78,-3.34,-6.71,-3.34,-6.71,6.02,5.63,4.11,2.67,2.67,3.36
45.23,-3.23,-6.58,-3.22,-6.57,6.02,5.56,4.02,2.79,2.80,3.36
45.68,-3.09,-6.43,-3.10,-6.43,6.02,5.48,3.93,2.92,2.92,3.34
46.13,-2.96,-6.28,-2.96,-6.29,6.01,5.40,3.85,3.04,3.04,3.32
46.60,-2.84,-6.15,-2.83,-6.14,5.98,5.31,3.77,3.15,3.15,3.32
47.06,-2.69,-5.99,-2.69,-5.99,5.94,5.23,3.69,3.25,3.25,3.30
47.53,-2.57,-5.86,-2.57,-5.86,5.87,5.14,3.62,3.30,3.30,3.29
48.01,-2.45,-5.74,-2.50,-5.78,5.77,5.04,3.55,3.32,3.27,3.29
48.49,-2.42,-5.69,-2.43,-5.70,5.65,4.95,3.48,3.23,3.22,3.27
48.97,-2.39,-5.64,-2.30,-5.54,5.51,4.85,3.41,3.12,3.22,3.25
49.46,-2.12,-5.35,-2.12,-5.34,5.35,4.75,3.35,3.22,3.23,3.23
49.96,-1.84,-5.04,-1.93,-5.14,5.16,4.65,3.29,3.33,3.23,3.20
50.46,-1.75,-4.96,-1.76,-4.96,4.99,4.55,3.23,3.23,3.22,3.20
50.96,-1.69,-4.88,-1.62,-4.81,4.82,4.44,3.17,3.12,3.19,3.19
51.47,-1.48,-4.65,-1.48,-4.65,4.65,4.33,3.11,3.17,3.17,3.17
51.99,-1.26,-4.41,-1.28,-4.44,4.48,4.23,3.06,3.23,3.20,3.15
52.51,-1.12,-4.26,-1.12,-4.27,4.32,4.11,3.00,3.21,3.20,3.15
53.03,-0.99,-4.14,-1.05,-4.20,4.17,4.00,2.95,3.18,3.12,3.14
53.56,-1.00,-4.13,-0.98,-4.11,4.03,3.89,2.90,3.02,3.05,3.13
54.10,-0.94,-4.06,-0.81,-3.93,3.89,3.77,2.85,2.94,3.08,3.11
54.64,-0.58,-3.67,-0.64,-3.74,3.75,3.66,2.80,3.17,3.11,3.10
55.18,-0.34,-3.44,-0.47,-3.56,3.61,3.54,2.76,3.27,3.14,3.09
55.74,-0.42,-3.50,-0.35,-3.43,3.48,3.42,2.71,3.06,3.13,3.07
56.29,-0.35,-3.42,-0.29,-3.36,3.34,3.30,2.66,2.99,3.05,3.07
56.86,-0.18,-3.22,-0.22,-3.26,3.21,3.19,2.61,3.03,2.99,3.05
57.42,-0.06,-3.08,-0.08,-3.10,3.09,3.07,2.56,3.03,3.02,3.02
58.00,0.03,-2.98,0.08,-2.94,2.98,2.94,2.51,3.01,3.06,3.01
58.58,0.20,-2.81,0.17,-2.82,2.87,2.82,2.46,3.06,3.04,3.00
59.16,0.32,-2.66,0.24,-2.74,2.74,2.70,2.41,3.06,2.99,2.98
59.76,0.26,-2.70,0.31,-2.64,2.61,2.58,2.36,2.87,2.93,2.96
60.35,0.35,-2.57,0.39,-2.53,2.46,2.46,2.31,2.81,2.86,2.92
60.96,0.55,-2.34,0.51,-2.38,2.32,2.34,2.25,2.86,2.82,2.89
61.57,0.68,-2.17,0.68,-2.17,2.17,2.21,2.20,2.85,2.85,2.84
62.18,0.81,-1.99,0.82,-1.98,2.02,2.09,2.14,2.83,2.84,2.80
62.80,0.95,-1.81,0.91,-1.85,1.87,1.97,2.08,2.82,2.78,2.75
63.43,1.01,-1.70,1.01,-1.69,1.73,1.85,2.02,2.73,2.74,2.71
64.07,1.05,-1.62,1.13,-1.53,1.58,1.73,1.96,2.62,2.71,2.66
64.71,1.27,-1.35,1.17,-1.45,1.44,1.61,1.89,2.70,2.61,2.62
65.35,1.30,-1.28,1.24,-1.34,1.30,1.49,1.82,2.60,2.54,2.58
66.01,1.17,-1.36,1.33,-1.20,1.18,1.37,1.76,2.34,2.51,2.53
66.67,1.46,-1.03,1.40,-1.08,1.05,1.25,1.69,2.50,2.45,2.48
67.33,1.60,-0.84,1.52,-0.91,0.91,1.13,1.61,2.51,2.43,2.43
68.01,1.59,-0.81,1.67,-0.72,0.77,1.01,1.54,2.35,2.44,2.39
68.69,1.76,-0.58,1.71,-0.63,0.62,0.89,1.46,2.37,2.33,2.34
69.37,1.82,-0.47,1.78,-0.51,0.47,0.77,1.39,2.29,2.25,2.29
70.07,1.80,-0.44,1.90,-0.34,0.33,0.66,1.31,2.13,2.23,2.24
70.77,2.04,-0.16,2.01,-0.18,0.20,0.54,1.23,2.23,2.20,2.19
71.48,2.16,0.02,2.12,-0.02,0.07,0.43,1.15,2.22,2.18,2.14
72.19,2.20,0.12,2.18,0.10,-0.06,0.31,1.07,2.14,2.12,2.07
72.91,2.17,0.15,2.17,0.16,-0.17,0.20,0.99,1.99,2.00,2.02
73.64,2.16,0.20,2.22,0.26,-0.29,0.09,0.90,1.86,1.93,1.96
74.38,2.27,0.36,2.27,0.37,-0.40,-0.02,0.82,1.86,1.87,1.90
75.12,2.44,0.59,2.35,0.50,-0.51,-0.13,0.73,1.93,1.84,1.84
75.87,2.35,0.56,2.42,0.64,-0.61,-0.24,0.64,1.73,1.81,1.78
76.63,2.47,0.73,2.44,0.71,-0.71,-0.34,0.56,1.76,1.73,1.73
77.40,2.50,0.81,2.47,0.79,-0.80,-0.45,0.47,1.69,1.67,1.68
78.17,2.47,0.85,2.55,0.92,-0.89,-0.55,0.38,1.57,1.65,1.62
78.95,2.64,1.05,2.59,1.01,-0.98,-0.65,0.29,1.66,1.61,1.59
79.74,2.65,1.11,2.62,1.09,-1.06,-0.76,0.20,1.59,1.56,1.53
80.54,2.62,1.13,2.62,1.13,-1.13,-0.86,0.11,1.48,1.48,1.49
81.35,2.59,1.15,2.60,1.16,-1.21,-0.95,0.02,1.37,1.38,1.44
82.16,2.59,1.20,2.64,1.25,-1.30,-1.05,-0.07,1.29,1.35,1.39
82.98,2.75,1.39,2.72,1.38,-1.38,-1.15,-0.16,1.37,1.34,1.35
83.81,2.85,1.55,2.79,1.49,-1.47,-1.24,-0.26,1.38,1.32,1.30
84.65,2.83,1.58,2.83,1.57,-1.56,-1.33,-0.35,1.27,1.27,1.25
85.50,2.81,1.60,2.85,1.64,-1.65,-1.42,-0.44,1.16,1.20,1.21
86.35,2.88,1.72,2.90,1.74,-1.75,-1.51,-0.54,1.13,1.16,1.16
87.22,3.01,1.89,2.96,1.85,-1.84,-1.60,-0.63,1.16,1.12,1.11
88.09,3.04,1.98,3.00,1.94,-1.93,-1.68,-0.73,1.11,1.07,1.06
88.97,2.99,1.98,3.02,2.01,-2.01,-1.76,-0.83,0.98,1.01,1.01
89.86,2.99,2.03,3.04,2.08,-2.09,-1.85,-0.92,0.89,0.95,0.96
90.76,3.12,2.21,3.08,2.17,-2.18,-1.92,-1.02,0.94,0.90,0.91
91.66,3.16,2.29,3.12,2.27,-2.26,-2.00,-1.12,0.89,0.86,0.86
92.58,3.14,2.34,3.15,2.34,-2.34,-2.08,-1.22,0.79,0.81,0.80
93.51,3.14,2.38,3.16,2.40,-2.42,-2.15,-1.32,0.72,0.74,0.76
94.44,3.19,2.47,3.19,2.48,-2.49,-2.22,-1.42,0.70,0.70,0.71
95.39,3.26,2.59,3.23,2.56,-2.55,-2.30,-1.52,0.70,0.67,0.67
96.34,3.25,2.63,3.25,2.64,-2.61,-2.36,-1.62,0.64,0.64,0.61
97.30,3.25,2.68,3.25,2.68,-2.66,-2.43,-1.72,0.59,0.59,0.57
98.28,3.24,2.71,3.23,2.71,-2.70,-2.49,-1.82,0.53,0.53,0.52
99.26,3.22,2.74,3.22,2.74,-2.75,-2.56,-1.93,0.47,0.47,0.48
100.25,3.20,2.76,3.19,2.76,-2.79,-2.62,-2.03,0.41,0.40,0.43
101.25,3.17,2.78,3.18,2.79,-2.82,-2.68,-2.13,0.35,0.36,0.39
102.27,3.17,2.83,3.18,2.84,-2.85,-2.73,-2.23,0.32,0.33,0.34
103.29,3.19,2.90,3.17,2.88,-2.87,-2.79,-2.33,0.31,0.30,0.28
104.32,3.18,2.93,3.16,2.91,-2.90,-2.84,-2.44,0.28,0.26,0.25
105.37,3.11,2.91,3.13,2.93,-2.92,-2.89,-2.54,0.19,0.22,0.20
106.42,3.10,2.94,3.09,2.94,-2.93,-2.94,-2.63,0.17,0.16,0.15
107.48,3.06,2.96,3.04,2.94,-2.94,-2.99,-2.73,0.12,0.10,0.10
108.56,2.98,2.93,2.99,2.95,-2.94,-3.03,-2.82,0.04,0.05,0.04
109.64,2.93,2.93,2.94,2.95,-2.94,-3.08,-2.92,-0.02,-0.00,-0.00
110.74,2.91,2.97,2.88,2.94,-2.95,-3.12,-3.01,-0.04,-0.07,-0.06
111.85,2.84,2.93,2.83,2.93,-2.95,-3.16,-3.09,-0.12,-0.13,-0.10
112.97,2.76,2.92,2.78,2.94,-2.97,-3.20,-3.18,-0.21,-0.18,-0.16
114.10,2.76,2.96,2.76,2.97,-2.98,-3.23,-3.26,-0.23,-0.22,-0.21
115.24,2.77,3.02,2.76,3.02,-3.00,-3.27,-3.33,-0.24,-0.24,-0.25
116.39,2.78,3.08,2.75,3.05,-3.03,-3.30,-3.41,-0.26,-0.28,-0.31
117.55,2.72,3.06,2.72,3.06,-3.06,-3.33,-3.47,-0.35,-0.34,-0.34
118.73,2.68,3.06,2.70,3.08,-3.09,-3.36,-3.53,-0.41,-0.39,-0.38
119.92,2.69,3.09,2.69,3.10,-3.11,-3.39,-3.59,-0.43,-0.43,-0.41
121.12,2.70,3.15,2.69,3.14,-3.12,-3.41,-3.64,-0.43,-0.43,-0.45
122.33,2.70,3.18,2.69,3.17,-3.13,-3.44,-3.68,-0.44,-0.44,-0.48
123.55,2.67,3.17,2.66,3.17,-3.14,-3.46,-3.73,-0.47,-0.48,-0.50
124.79,2.62,3.15,2.61,3.14,-3.15,-3.48,-3.76,-0.53,-0.54,-0.54
126.03,2.55,3.11,2.57,3.13,-3.16,-3.50,-3.79,-0.62,-0.60,-0.57
127.29,2.54,3.12,2.54,3.13,-3.18,-3.52,-3.81,-0.64,-0.64,-0.59
128.57,2.54,3.16,2.53,3.15,-3.19,-3.53,-3.82,-0.65,-0.65,-0.63
129.85,2.54,3.19,2.54,3.19,-3.19,-3.55,-3.83,-0.65,-0.65,-0.65
131.15,2.55,3.23,2.55,3.23,-3.19,-3.56,-3.84,-0.65,-0.64,-0.68
132.46,2.55,3.26,2.54,3.25,-3.20,-3.57,-3.83,-0.65,-0.66,-0.71
133.79,2.54,3.27,2.50,3.24,-3.21,-3.58,-3.83,-0.67,-0.70,-0.74
135.12,2.43,3.20,2.44,3.21,-3.21,-3.59,-3.82,-0.79,-0.77,-0.77
136.48,2.38,3.16,2.39,3.18,-3.22,-3.60,-3.81,-0.84,-0.83,-0.79
137.84,2.36,3.18,2.36,3.18,-3.23,-3.61,-3.79,-0.87,-0.87,-0.82
139.22,2.37,3.22,2.36,3.21,-3.24,-3.61,-3.77,-0.87,-0.88,-0.85
140.61,2.37,3.25,2.36,3.24,-3.25,-3.62,-3.74,-0.89,-0.89,-0.89
142.02,2.37,3.27,2.37,3.27,-3.27,-3.62,-3.72,-0.90,-0.90,-0.90
143.44,2.37,3.30,2.37,3.31,-3.28,-3.62,-3.69,-0.92,-0.91,-0.93
144.87,2.37,3.34,2.37,3.34,-3.30,-3.62,-3.66,-0.93,-0.93,-0.97
146.32,2.37,3.38,2.35,3.35,-3.31,-3.62,-3.63,-0.95,-0.97,-1.01
147.78,2.31,3.35,2.29,3.34,-3.33,-3.62,-3.60,-1.02,-1.03,-1.04
149.26,2.21,3.29,2.23,3.32,-3.34,-3.62,-3.57,-1.13,-1.10,-1.09
150.75,2.16,3.31,2.16,3.31,-3.35,-3.61,-3.53,-1.19,-1.19,-1.15
152.26,2.14,3.36,2.11,3.33,-3.37,-3.61,-3.50,-1.23,-1.26,-1.22
153.78,2.07,3.35,2.10,3.38,-3.40,-3.60,-3.47,-1.33,-1.30,-1.29
155.32,2.07,3.43,2.07,3.43,-3.43,-3.60,-3.44,-1.37,-1.36,-1.36
156.88,2.09,3.52,2.04,3.48,-3.48,-3.59,-3.41,-1.40,-1.44,-1.43
158.44,2.00,3.51,2.02,3.53,-3.53,-3.58,-3.39,-1.54,-1.52,-1.52
160.03,1.97,3.57,1.99,3.59,-3.59,-3.57,-3.36,-1.62,-1.60,-1.60
161.63,1.97,3.64,1.96,3.63,-3.63,-3.56,-3.34,-1.66,-1.67,-1.67
163.24,1.97,3.70,1.94,3.67,-3.66,-3.55,-3.31,-1.70,-1.72,-1.73
164.88,1.90,3.68,1.92,3.70,-3.68,-3.54,-3.29,-1.78,-1.76,-1.78
166.53,1.87,3.70,1.87,3.70,-3.68,-3.53,-3.27,-1.81,-1.80,-1.83
168.19,1.84,3.71,1.80,3.67,-3.66,-3.52,-3.26,-1.82,-1.86,-1.87
169.87,1.72,3.62,1.74,3.64,-3.62,-3.50,-3.24,-1.91,-1.89,-1.91
171.57,1.64,3.56,1.67,3.59,-3.58,-3.49,-3.23,-1.94,-1.91,-1.92
173.29,1.63,3.57,1.59,3.53,-3.53,-3.47,-3.22,-1.90,-1.94,-1.94
175.02,1.54,3.48,1.52,3.47,-3.48,-3.46,-3.22,-1.95,-1.96,-1.95
176.77,1.42,3.38,1.46,3.42,-3.45,-3.44,-3.22,-2.03,-1.99,-1.96
178.54,1.42,3.38,1.41,3.37,-3.42,-3.43,-3.22,-2.00,-2.01,-1.96
180.32,1.42,3.37,1.41,3.37,-3.40,-3.41,-3.22,-1.99,-2.00,-1.96
182.13,1.43,3.38,1.42,3.38,-3.39,-3.40,-3.22,-1.97,-1.97,-1.95
183.95,1.44,3.40,1.44,3.40,-3.38,-3.38,-3.23,-1.95,-1.94,-1.96
185.79,1.45,3.41,1.46,3.43,-3.38,-3.36,-3.24,-1.93,-1.92,-1.96
187.65,1.48,3.46,1.45,3.43,-3.38,-3.34,-3.25,-1.90,-1.93,-1.98
189.52,1.44,3.43,1.40,3.40,-3.38,-3.32,-3.26,-1.95,-1.98,-1.99
191.42,1.32,3.33,1.35,3.36,-3.39,-3.31,-3.28,-2.07,-2.03,-2.01
193.33,1.29,3.32,1.31,3.34,-3.39,-3.29,-3.30,-2.10,-2.08,-2.03
195.27,1.32,3.37,1.30,3.35,-3.40,-3.27,-3.32,-2.08,-2.09,-2.05
197.22,1.34,3.41,1.33,3.40,-3.41,-3.25,-3.34,-2.07,-2.08,-2.07
199.19,1.35,3.44,1.35,3.44,-3.43,-3.23,-3.36,-2.08,-2.08,-2.10
201.18,1.35,3.46,1.35,3.46,-3.46,-3.21,-3.39,-2.11,-2.11,-2.11
203.19,1.36,3.48,1.35,3.49,-3.48,-3.19,-3.41,-2.13,-2.13,-2.13
205.23,1.36,3.51,1.37,3.51,-3.50,-3.17,-3.44,-2.14,-2.13,-2.15
207.28,1.37,3.53,1.36,3.53,-3.51,-3.15,-3.47,-2.14,-2.14,-2.16
209.35,1.37,3.55,1.34,3.53,-3.50,-3.13,-3.50,-2.13,-2.16,-2.18
211.44,1.29,3.50,1.31,3.51,-3.49,-3.11,-3.53,-2.20,-2.18,-2.22
213.56,1.25,3.47,1.25,3.47,-3.47,-3.09,-3.56,-2.22,-2.22,-2.22
215.69,1.21,3.44,1.19,3.42,-3.45,-3.06,-3.59,-2.25,-2.27,-2.24
217.85,1.13,3.37,1.15,3.40,-3.43,-3.04,-3.62,-2.31,-2.28,-2.25
220.03,1.13,3.39,1.13,3.39,-3.42,-3.02,-3.65,-2.29,-2.29,-2.26
222.23,1.14,3.42,1.13,3.40,-3.41,-3.00,-3.67,-2.27,-2.29,-2.28
224.45,1.14,3.41,1.13,3.41,-3.41,-2.98,-3.70,-2.27,-2.27,-2.27
226.70,1.14,3.41,1.14,3.41,-3.41,-2.96,-3.72,-2.27,-2.27,-2.27
228.96,1.14,3.40,1.15,3.41,-3.41,-2.94,-3.74,-2.27,-2.26,-2.27
231.25,1.16,3.41,1.16,3.42,-3.40,-2.92,-3.75,-2.24,-2.24,-2.26
233.57,1.18,3.42,1.16,3.40,-3.39,-2.89,-3.77,-2.21,-2.23,-2.25
235.90,1.15,3.38,1.14,3.38,-3.36,-2.87,-3.78,-2.22,-2.22,-2.24
238.26,1.10,3.32,1.12,3.35,-3.33,-2.85,-3.79,-2.24,-2.21,-2.23
240.64,1.11,3.31,1.11,3.31,-3.30,-2.83,-3.79,-2.20,-2.20,-2.20
243.05,1.12,3.29,1.09,3.26,-3.28,-2.81,-3.79,-2.16,-2.19,-2.17
245.48,1.07,3.22,1.07,3.22,-3.25,-2.79,-3.78,-2.18,-2.17,-2.15
247.93,1.05,3.17,1.06,3.19,-3.22,-2.77,-3.77,-2.17,-2.15,-2.12
250.41,1.07,3.17,1.07,3.17,-3.19,-2.74,-3.76,-2.12,-2.12,-2.11
252.92,1.10,3.17,1.10,3.17,-3.16,-2.72,-3.74,-2.06,-2.06,-2.07
255.45,1.12,3.17,1.11,3.16,-3.13,-2.70,-3.71,-2.01,-2.02,-2.05
258.00,1.12,3.15,1.09,3.12,-3.10,-2.68,-3.68,-1.98,-2.01,-2.03
260.58,1.05,3.06,1.07,3.08,-3.07,-2.66,-3.65,-2.02,-2.00,-2.02
263.19,1.03,3.01,1.04,3.03,-3.04,-2.64,-3.61,-2.01,-2.00,-1.98
265.82,1.03,2.99,1.02,2.98,-3.00,-2.62,-3.57,-1.98,-1.99,-1.97
268.48,1.02,2.96,1.02,2.96,-2.97,-2.60,-3.52,-1.95,-1.95,-1.94
271.16,1.02,2.93,1.02,2.93,-2.94,-2.58,-3.47,-1.92,-1.92,-1.91
273.87,1.02,2.91,1.01,2.90,-2.91,-2.55,-3.42,-1.89,-1.89,-1.90
276.61,1.01,2.87,1.01,2.87,-2.88,-2.53,-3.36,-1.87,-1.87,-1.86
279.38,1.01,2.84,1.01,2.85,-2.84,-2.51,-3.31,-1.84,-1.83,-1.84
282.17,1.02,2.83,1.02,2.83,-2.81,-2.49,-3.24,-1.79,-1.79,-1.81
284.99,1.02,2.79,1.01,2.80,-2.77,-2.47,-3.18,-1.76,-1.76,-1.78
287.84,1.03,2.79,0.99,2.75,-2.73,-2.45,-3.12,-1.71,-1.74,-1.76
290.72,0.94,2.66,0.97,2.69,-2.69,-2.43,-3.05,-1.76,-1.73,-1.73
293.63,0.94,2.64,0.95,2.65,-2.66,-2.41,-2.98,-1.72,-1.71,-1.70
296.57,0.97,2.63,0.95,2.62,-2.64,-2.39,-2.91,-1.67,-1.68,-1.67
299.53,0.98,2.62,0.97,2.61,-2.62,-2.37,-2.84,-1.64,-1.65,-1.64
302.53,0.99,2.61,0.97,2.59,-2.62,-2.35,-2.78,-1.63,-1.64,-1.62
305.55,1.00,2.57,1.01,2.60,-2.63,-2.33,-2.71,-1.63,-1.62,-1.58
308.61,1.04,2.60,1.08,2.64,-2.66,-2.31,-2.64,-1.62,-1.57,-1.56
311.69,1.21,2.74,1.16,2.69,-2.69,-2.29,-2.57,-1.48,-1.53,-1.53
314.81,1.26,2.76,1.22,2.73,-2.72,-2.27,-2.50,-1.47,-1.50,-1.51
317.96,1.24,2.73,1.26,2.76,-2.74,-2.25,-2.43,-1.51,-1.48,-1.49
321.14,1.25,2.73,1.30,2.78,-2.76,-2.23,-2.36,-1.51,-1.45,-1.48
324.35,1.37,2.83,1.34,2.80,-2.76,-2.21,-2.29,-1.39,-1.42,-1.47
327.59,1.40,2.85,1.32,2.77,-2.75,-2.19,-2.23,-1.35,-1.43,-1.45
330.87,1.26,2.70,1.30,2.74,-2.72,-2.17,-2.16,-1.47,-1.43,-1.44
334.18,1.17,2.59,1.24,2.67,-2.69,-2.15,-2.10,-1.52,-1.45,-1.43
337.52,1.27,2.68,1.19,2.60,-2.65,-2.13,-2.04,-1.38,-1.46,-1.42
340.90,1.18,2.58,1.18,2.59,-2.60,-2.11,-1.98,-1.43,-1.42,-1.40
344.30,1.13,2.52,1.17,2.57,-2.56,-2.09,-1.92,-1.43,-1.39,-1.39
347.75,1.17,2.56,1.13,2.52,-2.52,-2.07,-1.86,-1.35,-1.39,-1.40
351.23,1.11,2.49,1.10,2.48,-2.48,-2.05,-1.80,-1.37,-1.38,-1.39
354.74,1.04,2.43,1.07,2.45,-2.44,-2.03,-1.75,-1.40,-1.37,-1.39
358.28,1.02,2.40,1.02,2.40,-2.40,-2.01,-1.69,-1.39,-1.38,-1.38
361.87,1.02,2.40,0.99,2.37,-2.37,-1.99,-1.64,-1.35,-1.38,-1.38
365.49,0.95,2.32,0.95,2.33,-2.34,-1.97,-1.59,-1.39,-1.38,-1.38
369.14,0.91,2.29,0.90,2.29,-2.31,-1.95,-1.54,-1.40,-1.41,-1.39
372.83,0.86,2.25,0.87,2.26,-2.28,-1.93,-1.49,-1.43,-1.41,-1.39
376.56,0.85,2.24,0.87,2.26,-2.26,-1.91,-1.44,-1.41,-1.38,-1.39
380.33,0.90,2.28,0.87,2.26,-2.24,-1.89,-1.39,-1.34,-1.37,-1.38
384.13,0.89,2.27,0.86,2.25,-2.22,-1.87,-1.35,-1.34,-1.37,-1.38
387.97,0.80,2.19,0.82,2.22,-2.21,-1.85,-1.30,-1.42,-1.39,-1.40
391.85,0.78,2.18,0.79,2.19,-2.21,-1.83,-1.26,-1.43,-1.42,-1.41
395.77,0.78,2.18,0.77,2.17,-2.20,-1.81,-1.22,-1.43,-1.44,-1.40
399.73,0.78,2.19,0.77,2.18,-2.20,-1.79,-1.18,-1.42,-1.43,-1.41
403.72,0.77,2.18,0.78,2.19,-2.19,-1.76,-1.14,-1.42,-1.41,-1.41
407.76,0.78,2.20,0.77,2.19,-2.17,-1.74,-1.10,-1.40,-1.40,-1.42
411.84,0.77,2.19,0.75,2.17,-2.15,-1.72,-1.07,-1.38,-1.40,-1.42
415.96,0.70,2.12,0.72,2.15,-2.12,-1.69,-1.03,-1.42,-1.40,-1.43
420.12,0.67,2.09,0.67,2.10,-2.08,-1.67,-1.00,-1.42,-1.41,-1.43
424.32,0.65,2.07,0.62,2.04,-2.04,-1.65,-0.96,-1.40,-1.42,-1.43
428.56,0.56,1.98,0.56,1.98,-1.99,-1.62,-0.93,-1.44,-1.44,-1.42
432.85,0.49,1.90,0.49,1.90,-1.94,-1.59,-0.90,-1.45,-1.45,-1.41
437.18,0.44,1.84,0.46,1.85,-1.88,-1.57,-0.87,-1.45,-1.42,-1.40
441.55,0.46,1.82,0.46,1.83,-1.82,-1.54,-0.85,-1.37,-1.36,-1.36
445.96,0.50,1.83,0.46,1.80,-1.77,-1.51,-0.82,-1.27,-1.31,-1.33
450.42,0.45,1.75,0.44,1.74,-1.71,-1.48,-0.80,-1.27,-1.27,-1.30
454.93,0.38,1.63,0.39,1.65,-1.66,-1.45,-0.77,-1.29,-1.27,-1.26
459.48,0.36,1.56,0.36,1.57,-1.60,-1.42,-0.75,-1.25,-1.24,-1.21
464.07,0.35,1.50,0.36,1.52,-1.54,-1.39,-0.73,-1.19,-1.18,-1.16
468.71,0.39,1.48,0.37,1.47,-1.46,-1.35,-0.71,-1.07,-1.09,-1.10
473.40,0.39,1.44,0.37,1.42,-1.37,-1.32,-0.69,-0.99,-1.00,-1.06
478.13,0.32,1.31,0.33,1.33,-1.29,-1.28,-0.68,-0.97,-0.96,-1.00
