frequency,raw,error,smoothed,error_smoothed,equalization,parametric_eq,equalized_raw,equalized_smoothed,target
20,-6.97,-6.01,-6.96,-6.01,6.02,2.00,-0.95,-0.94,-0.96
21,-6.80,-5.84,-6.80,-5.84,5.84,2.31,-0.96,-0.96,-0.96
22,-6.61,-5.64,-6.65,-5.67,5.67,2.64,-0.94,-0.98,-0.96
23,-6.44,-5.47,-6.50,-5.50,5.50,3.00,-0.93,-0.99,-0.97
24,-6.32,-5.34,-6.35,-5.35,5.35,3.38,-0.97,-1.01,-0.98
25,-6.17,-5.19,-6.21,-5.19,5.19,3.78,-0.98,-1.02,-0.98
26,-6.05,-5.06,-6.08,-5.04,5.04,4.17,-1.00,-1.03,-0.99
27,-5.96,-4.96,-5.94,-4.90,4.90,4.54,-1.06,-1.04,-0.99
28,-5.96,-4.96,-5.82,-4.76,4.76,4.87,-1.20,-1.05,-1.00
29,-5.92,-4.91,-5.69,-4.63,4.63,5.13,-1.29,-1.06,-1.01
30,-5.80,-4.78,-5.57,-4.50,4.50,5.31,-1.30,-1.07,-1.02
31,-5.56,-4.53,-5.45,-4.37,4.37,5.41,-1.19,-1.08,-1.02
32,-5.31,-4.27,-5.32,-4.24,4.24,5.41,-1.06,-1.08,-1.03
33,-5.04,-3.99,-5.21,-4.12,4.12,5.34,-0.91,-1.09,-1.04
34,-4.93,-3.87,-5.10,-4.01,4.01,5.21,-0.91,-1.09,-1.05
35,-4.89,-3.82,-5.01,-3.91,3.91,5.03,-0.97,-1.10,-1.06
36,-4.85,-3.77,-4.93,-3.83,3.83,4.83,-1.02,-1.10,-1.08
37,-4.84,-3.75,-4.85,-3.75,3.75,4.61,-1.08,-1.10,-1.09
38,-4.80,-3.70,-4.79,-3.69,3.69,4.40,-1.11,-1.10,-1.10
39,-4.76,-3.64,-4.75,-3.64,3.64,4.20,-1.12,-1.11,-1.11
40,-4.75,-3.62,-4.73,-3.60,3.60,4.01,-1.15,-1.13,-1.13
41,-4.75,-3.61,-4.73,-3.56,3.56,3.84,-1.19,-1.16,-1.14
42,-4.79,-3.63,-4.72,-3.53,3.53,3.68,-1.26,-1.19,-1.16
43,-4.77,-3.60,-4.71,-3.51,3.51,3.54,-1.26,-1.21,-1.17
44,-4.75,-3.56,-4.70,-3.48,3.48,3.42,-1.27,-1.22,-1.19
45,-4.70,-3.49,-4.67,-3.44,3.44,3.32,-1.25,-1.23,-1.21
46,-4.66,-3.43,-4.64,-3.41,3.41,3.23,-1.25,-1.24,-1.22
47,-4.61,-3.37,-4.62,-3.36,3.36,3.15,-1.24,-1.25,-1.24
48,-4.56,-3.30,-4.59,-3.32,3.32,3.09,-1.24,-1.27,-1.26
49,-4.56,-3.28,-4.56,-3.28,3.28,3.04,-1.28,-1.29,-1.28
50,-4.52,-3.21,-4.54,-3.23,3.23,2.99,-1.29,-1.31,-1.30
51,-4.47,-3.14,-4.51,-3.18,3.18,2.96,-1.29,-1.33,-1.32
52,-4.47,-3.12,-4.48,-3.13,3.13,2.93,-1.33,-1.35,-1.35
53,-4.45,-3.08,-4.46,-3.08,3.08,2.91,-1.36,-1.37,-1.37
54,-4.42,-3.02,-4.43,-3.03,3.03,2.88,-1.38,-1.40,-1.39
55,-4.42,-3.00,-4.41,-2.98,2.98,2.87,-1.44,-1.43,-1.42
56,-4.42,-2.97,-4.38,-2.93,2.93,2.85,-1.49,-1.46,-1.44
57,-4.38,-2.91,-4.35,-2.87,2.87,2.82,-1.51,-1.48,-1.47
58,-4.34,-2.84,-4.32,-2.81,2.81,2.80,-1.53,-1.51,-1.49
59,-4.32,-2.80,-4.28,-2.75,2.75,2.77,-1.57,-1.53,-1.52
60,-4.27,-2.72,-4.24,-2.68,2.68,2.74,-1.59,-1.56,-1.55
61,-4.20,-2.62,-4.20,-2.61,2.61,2.71,-1.59,-1.59,-1.58
62,-4.16,-2.55,-4.16,-2.54,2.54,2.67,-1.62,-1.62,-1.61
63,-4.10,-2.46,-4.11,-2.47,2.47,2.62,-1.63,-1.65,-1.64
64,-4.05,-2.38,-4.07,-2.40,2.40,2.57,-1.65,-1.67,-1.67
65,-4.00,-2.30,-4.03,-2.33,2.33,2.52,-1.67,-1.70,-1.70
66,-3.96,-2.23,-3.99,-2.26,2.26,2.46,-1.70,-1.73,-1.73
67,-3.96,-2.20,-3.95,-2.19,2.19,2.39,-1.77,-1.76,-1.76
68,-3.91,-2.11,-3.92,-2.13,2.13,2.33,-1.78,-1.79,-1.79
69,-3.91,-2.08,-3.90,-2.07,2.07,2.26,-1.84,-1.83,-1.83
70,-3.88,-2.02,-3.87,-2.01,2.01,2.19,-1.86,-1.86,-1.86
71,-3.86,-1.96,-3.85,-1.96,1.96,2.12,-1.90,-1.89,-1.89
72,-3.86,-1.93,-3.84,-1.91,1.91,2.05,-1.95,-1.93,-1.93
73,-3.82,-1.86,-3.83,-1.86,1.86,1.97,-1.96,-1.97,-1.96
74,-3.82,-1.82,-3.82,-1.81,1.81,1.90,-2.00,-2.00,-2.00
75,-3.82,-1.79,-3.80,-1.77,1.77,1.83,-2.05,-2.04,-2.03
76,-3.79,-1.72,-3.79,-1.72,1.72,1.76,-2.06,-2.07,-2.07
77,-3.77,-1.66,-3.78,-1.68,1.68,1.69,-2.09,-2.10,-2.10
78,-3.77,-1.63,-3.77,-1.63,1.63,1.62,-2.13,-2.14,-2.14
79,-3.77,-1.59,-3.76,-1.59,1.59,1.55,-2.18,-2.18,-2.17
80,-3.77,-1.56,-3.76,-1.55,1.55,1.49,-2.22,-2.21,-2.21
81,-3.77,-1.52,-3.75,-1.50,1.50,1.42,-2.27,-2.25,-2.25
82,-3.75,-1.46,-3.74,-1.46,1.46,1.36,-2.29,-2.28,-2.28
83,-3.72,-1.40,-3.73,-1.41,1.41,1.30,-2.30,-2.32,-2.32
84,-3.72,-1.36,-3.73,-1.37,1.37,1.24,-2.35,-2.36,-2.36
85,-3.72,-1.33,-3.72,-1.32,1.32,1.19,-2.39,-2.39,-2.39
86,-3.72,-1.29,-3.71,-1.28,1.28,1.13,-2.44,-2.43,-2.43
87,-3.72,-1.25,-3.70,-1.23,1.23,1.08,-2.48,-2.47,-2.46
88,-3.69,-1.19,-3.69,-1.19,1.19,1.02,-2.50,-2.50,-2.50
89,-3.68,-1.14,-3.68,-1.15,1.15,0.97,-2.53,-2.54,-2.54
90,-3.68,-1.10,-3.67,-1.10,1.10,0.92,-2.58,-2.57,-2.57
91,-3.68,-1.07,-3.67,-1.06,1.06,0.88,-2.62,-2.61,-2.61
92,-3.68,-1.03,-3.66,-1.01,1.01,0.83,-2.66,-2.65,-2.64
93,-3.64,-0.96,-3.65,-0.97,0.97,0.79,-2.67,-2.68,-2.68
94,-3.63,-0.91,-3.65,-0.93,0.93,0.74,-2.70,-2.72,-2.71
95,-3.63,-0.88,-3.64,-0.88,0.88,0.70,-2.74,-2.75,-2.75
96,-3.63,-0.84,-3.63,-0.84,0.84,0.66,-2.78,-2.79,-2.78
97,-3.63,-0.81,-3.62,-0.80,0.80,0.62,-2.83,-2.82,-2.82
98,-3.63,-0.77,-3.62,-0.76,0.76,0.58,-2.87,-2.86,-2.85
99,-3.63,-0.74,-3.61,-0.71,0.71,0.54,-2.91,-2.90,-2.89
100,-3.62,-0.70,-3.61,-0.67,0.67,0.51,-2.94,-2.93,-2.92
101,-3.61,-0.65,-3.60,-0.63,0.63,0.47,-2.97,-2.97,-2.95
102,-3.61,-0.62,-3.60,-0.60,0.60,0.44,-3.01,-3.00,-2.99
104,-3.58,-0.53,-3.60,-0.56,0.56,0.37,-3.02,-3.04,-3.05
105,-3.58,-0.49,-3.60,-0.52,0.52,0.34,-3.05,-3.08,-3.08
106,-3.59,-0.47,-3.60,-0.49,0.49,0.31,-3.10,-3.11,-3.11
107,-3.61,-0.46,-3.60,-0.46,0.46,0.28,-3.15,-3.14,-3.14
108,-3.61,-0.43,-3.60,-0.43,0.43,0.25,-3.18,-3.18,-3.18
109,-3.61,-0.40,-3.61,-0.40,0.40,0.22,-3.21,-3.21,-3.21
110,-3.61,-0.37,-3.61,-0.37,0.37,0.19,-3.24,-3.24,-3.24
111,-3.63,-0.36,-3.61,-0.34,0.34,0.17,-3.28,-3.27,-3.26
112,-3.63,-0.33,-3.62,-0.32,0.32,0.14,-3.31,-3.30,-3.29
113,-3.63,-0.31,-3.62,-0.29,0.29,0.12,-3.34,-3.33,-3.32
114,-3.63,-0.28,-3.63,-0.26,0.26,0.09,-3.37,-3.36,-3.35
115,-3.63,-0.25,-3.63,-0.23,0.23,0.07,-3.39,-3.39,-3.38
117,-3.63,-0.20,-3.63,-0.21,0.21,0.03,-3.42,-3.42,-3.43
118,-3.63,-0.17,-3.63,-0.18,0.18,0.01,-3.45,-3.45,-3.46
119,-3.63,-0.14,-3.63,-0.15,0.15,-0.01,-3.48,-3.48,-3.48
120,-3.63,-0.12,-3.63,-0.11,0.11,-0.03,-3.51,-3.51,-3.51
121,-3.63,-0.09,-3.63,-0.08,0.08,-0.05,-3.54,-3.54,-3.53
123,-3.63,-0.04,-3.63,-0.05,0.05,-0.08,-3.57,-3.57,-3.58
124,-3.63,-0.02,-3.63,-0.02,0.02,-0.10,-3.60,-3.60,-3.61
125,-3.63,0.00,-3.63,0.00,-0.00,-0.12,-3.63,-3.63,-3.63
126,-3.63,0.03,-3.63,0.03,-0.03,-0.13,-3.66,-3.66,-3.65
128,-3.63,0.07,-3.63,0.06,-0.06,-0.16,-3.69,-3.69,-3.70
129,-3.63,0.09,-3.63,0.09,-0.09,-0.17,-3.72,-3.72,-3.72
130,-3.63,0.11,-3.63,0.12,-0.12,-0.18,-3.74,-3.74,-3.74
131,-3.63,0.13,-3.63,0.14,-0.14,-0.19,-3.77,-3.77,-3.76
133,-3.63,0.18,-3.63,0.17,-0.17,-0.21,-3.80,-3.80,-3.80
134,-3.63,0.19,-3.63,0.20,-0.20,-0.22,-3.82,-3.82,-3.82
135,-3.63,0.21,-3.63,0.22,-0.22,-0.23,-3.85,-3.85,-3.84
137,-3.63,0.25,-3.63,0.25,-0.25,-0.25,-3.87,-3.87,-3.88
138,-3.63,0.27,-3.63,0.27,-0.27,-0.26,-3.90,-3.90,-3.90
140,-3.63,0.31,-3.63,0.30,-0.30,-0.27,-3.92,-3.92,-3.93
141,-3.63,0.32,-3.63,0.32,-0.32,-0.28,-3.95,-3.95,-3.95
142,-3.63,0.34,-3.63,0.34,-0.34,-0.29,-3.97,-3.97,-3.97
144,-3.63,0.37,-3.63,0.37,-0.37,-0.30,-4.00,-4.00,-4.00
145,-3.63,0.39,-3.63,0.39,-0.39,-0.31,-4.02,-4.02,-4.02
147,-3.63,0.42,-3.63,0.41,-0.41,-0.32,-4.04,-4.04,-4.05
148,-3.63,0.43,-3.63,0.44,-0.44,-0.33,-4.07,-4.07,-4.06
150,-3.63,0.46,-3.63,0.46,-0.46,-0.34,-4.09,-4.09,-4.09
151,-3.63,0.48,-3.62,0.49,-0.49,-0.35,-4.11,-4.11,-4.10
153,-3.63,0.50,-3.62,0.51,-0.51,-0.36,-4.14,-4.13,-4.13
154,-3.63,0.52,-3.61,0.54,-0.54,-0.36,-4.16,-4.15,-4.14
156,-3.61,0.56,-3.61,0.56,-0.56,-0.38,-4.17,-4.17,-4.17
157,-3.61,0.58,-3.60,0.58,-0.58,-0.38,-4.19,-4.19,-4.18
159,-3.61,0.60,-3.60,0.61,-0.61,-0.40,-4.21,-4.21,-4.21
160,-3.59,0.63,-3.59,0.63,-0.63,-0.40,-4.22,-4.22,-4.22
162,-3.58,0.66,-3.59,0.65,-0.65,-0.41,-4.23,-4.24,-4.24
164,-3.58,0.69,-3.59,0.67,-0.67,-0.43,-4.25,-4.26,-4.26
165,-3.58,0.70,-3.58,0.70,-0.70,-0.43,-4.27,-4.28,-4.27
167,-3.58,0.72,-3.58,0.71,-0.71,-0.45,-4.29,-4.30,-4.29
169,-3.58,0.74,-3.58,0.73,-0.73,-0.46,-4.31,-4.31,-4.31
170,-3.58,0.75,-3.58,0.75,-0.75,-0.47,-4.33,-4.33,-4.32
172,-3.58,0.77,-3.58,0.77,-0.77,-0.48,-4.35,-4.35,-4.34
174,-3.58,0.78,-3.57,0.79,-0.79,-0.50,-4.36,-4.36,-4.36
175,-3.58,0.79,-3.57,0.80,-0.80,-0.51,-4.38,-4.38,-4.37
177,-3.58,0.81,-3.57,0.82,-0.82,-0.52,-4.40,-4.39,-4.39
179,-3.58,0.82,-3.57,0.84,-0.84,-0.54,-4.42,-4.40,-4.40
181,-3.57,0.85,-3.56,0.86,-0.86,-0.56,-4.42,-4.42,-4.42
183,-3.56,0.88,-3.56,0.87,-0.87,-0.57,-4.43,-4.43,-4.43
184,-3.55,0.89,-3.56,0.89,-0.89,-0.58,-4.44,-4.45,-4.44
186,-3.54,0.92,-3.55,0.91,-0.91,-0.60,-4.44,-4.46,-4.45
188,-3.54,0.93,-3.55,0.92,-0.92,-0.62,-4.46,-4.47,-4.47
190,-3.54,0.94,-3.54,0.94,-0.94,-0.63,-4.48,-4.48,-4.48
192,-3.54,0.96,-3.54,0.96,-0.96,-0.65,-4.49,-4.50,-4.49
194,-3.54,0.97,-3.53,0.97,-0.97,-0.67,-4.51,-4.51,-4.50
196,-3.54,0.98,-3.53,0.99,-0.99,-0.69,-4.53,-4.52,-4.52
198,-3.54,0.99,-3.52,1.01,-1.01,-0.71,-4.54,-4.53,-4.53
200,-3.54,1.00,-3.52,1.02,-1.02,-0.73,-4.56,-4.54,-4.54
202,-3.53,1.02,-3.52,1.04,-1.04,-0.75,-4.56,-4.55,-4.55
204,-3.50,1.06,-3.51,1.05,-1.05,-0.77,-4.55,-4.56,-4.56
206,-3.49,1.08,-3.51,1.07,-1.07,-0.78,-4.56,-4.57,-4.57
208,-3.49,1.09,-3.50,1.08,-1.08,-0.80,-4.57,-4.58,-4.58
210,-3.49,1.10,-3.49,1.10,-1.10,-0.82,-4.59,-4.59,-4.59
212,-3.49,1.11,-3.49,1.12,-1.12,-0.84,-4.60,-4.60,-4.60
214,-3.49,1.12,-3.48,1.13,-1.13,-0.86,-4.62,-4.61,-4.61
216,-3.49,1.13,-3.47,1.15,-1.15,-0.87,-4.64,-4.62,-4.62
218,-3.49,1.14,-3.46,1.16,-1.16,-0.89,-4.65,-4.63,-4.62
221,-3.45,1.19,-3.46,1.18,-1.18,-0.91,-4.63,-4.63,-4.63
223,-3.44,1.20,-3.45,1.19,-1.19,-0.93,-4.63,-4.64,-4.64
225,-3.44,1.21,-3.44,1.20,-1.20,-0.94,-4.64,-4.65,-4.64
227,-3.44,1.21,-3.44,1.21,-1.21,-0.96,-4.65,-4.65,-4.65
229,-3.44,1.21,-3.43,1.22,-1.22,-0.97,-4.66,-4.65,-4.65
232,-3.44,1.21,-3.43,1.22,-1.22,-0.99,-4.66,-4.65,-4.65
234,-3.42,1.23,-3.42,1.22,-1.22,-1.00,-4.64,-4.65,-4.65
236,-3.42,1.23,-3.42,1.22,-1.22,-1.01,-4.64,-4.64,-4.64
239,-3.44,1.20,-3.42,1.21,-1.21,-1.02,-4.65,-4.64,-4.64
241,-3.44,1.20,-3.43,1.20,-1.20,-1.03,-4.64,-4.63,-4.63
244,-3.44,1.19,-3.45,1.18,-1.18,-1.04,-4.62,-4.63,-4.63
246,-3.44,1.18,-3.46,1.16,-1.16,-1.04,-4.59,-4.62,-4.62
248,-3.47,1.14,-3.48,1.13,-1.13,-1.05,-4.60,-4.61,-4.61
251,-3.49,1.11,-3.51,1.10,-1.10,-1.05,-4.58,-4.60,-4.60
253,-3.52,1.07,-3.53,1.06,-1.06,-1.06,-4.58,-4.59,-4.59
256,-3.56,1.02,-3.56,1.02,-1.02,-1.06,-4.58,-4.58,-4.58
259,-3.61,0.96,-3.60,0.98,-0.98,-1.06,-4.59,-4.58,-4.57
261,-3.64,0.92,-3.63,0.94,-0.94,-1.06,-4.57,-4.57,-4.56
264,-3.68,0.88,-3.66,0.89,-0.89,-1.05,-4.57,-4.56,-4.55
266,-3.70,0.85,-3.70,0.85,-0.85,-1.05,-4.55,-4.55,-4.54
269,-3.74,0.80,-3.73,0.81,-0.81,-1.04,-4.55,-4.54,-4.53
272,-3.77,0.76,-3.76,0.77,-0.77,-1.04,-4.54,-4.53,-4.52
274,-3.77,0.74,-3.78,0.73,-0.73,-1.03,-4.50,-4.51,-4.51
277,-3.82,0.68,-3.80,0.70,-0.70,-1.02,-4.52,-4.50,-4.50
280,-3.82,0.67,-3.81,0.67,-0.67,-1.02,-4.49,-4.48,-4.48
283,-3.82,0.65,-3.82,0.65,-0.65,-1.01,-4.47,-4.47,-4.47
286,-3.82,0.63,-3.82,0.63,-0.63,-1.00,-4.45,-4.45,-4.45
288,-3.82,0.61,-3.82,0.62,-0.62,-0.99,-4.43,-4.43,-4.43
291,-3.82,0.59,-3.81,0.61,-0.61,-0.98,-4.42,-4.41,-4.41
294,-3.82,0.57,-3.79,0.60,-0.60,-0.97,-4.42,-4.39,-4.39
297,-3.77,0.60,-3.77,0.60,-0.60,-0.96,-4.37,-4.37,-4.37
300,-3.77,0.58,-3.75,0.60,-0.60,-0.94,-4.37,-4.36,-4.35
303,-3.72,0.61,-3.73,0.61,-0.61,-0.93,-4.33,-4.34,-4.33
306,-3.70,0.61,-3.70,0.62,-0.62,-0.92,-4.31,-4.32,-4.31
309,-3.68,0.61,-3.67,0.62,-0.62,-0.91,-4.30,-4.30,-4.29
312,-3.64,0.64,-3.65,0.63,-0.63,-0.90,-4.27,-4.28,-4.27
316,-3.62,0.64,-3.62,0.64,-0.64,-0.89,-4.26,-4.26,-4.26
319,-3.58,0.67,-3.59,0.65,-0.65,-0.88,-4.22,-4.24,-4.24
322,-3.56,0.67,-3.57,0.65,-0.65,-0.87,-4.21,-4.22,-4.23
325,-3.54,0.67,-3.55,0.65,-0.65,-0.86,-4.19,-4.20,-4.21
328,-3.54,0.65,-3.53,0.65,-0.65,-0.86,-4.19,-4.18,-4.19
332,-3.49,0.68,-3.51,0.65,-0.65,-0.85,-4.14,-4.17,-4.17
335,-3.49,0.66,-3.50,0.65,-0.65,-0.84,-4.14,-4.15,-4.15
338,-3.49,0.64,-3.48,0.65,-0.65,-0.83,-4.13,-4.13,-4.13
342,-3.49,0.62,-3.47,0.64,-0.64,-0.83,-4.13,-4.11,-4.10
345,-3.46,0.63,-3.46,0.64,-0.64,-0.82,-4.10,-4.10,-4.08
349,-3.44,0.63,-3.44,0.64,-0.64,-0.82,-4.08,-4.08,-4.06
352,-3.44,0.61,-3.42,0.64,-0.64,-0.81,-4.08,-4.06,-4.04
356,-3.44,0.59,-3.40,0.64,-0.64,-0.81,-4.08,-4.04,-4.02
359,-3.40,0.61,-3.38,0.64,-0.64,-0.80,-4.04,-4.02,-4.01
363,-3.40,0.60,-3.36,0.64,-0.64,-0.80,-4.03,-4.00,-3.99
366,-3.35,0.63,-3.35,0.63,-0.63,-0.80,-3.98,-3.98,-3.98
370,-3.34,0.63,-3.34,0.63,-0.63,-0.80,-3.96,-3.97,-3.97
374,-3.30,0.66,-3.34,0.61,-0.61,-0.80,-3.91,-3.95,-3.95
377,-3.30,0.64,-3.34,0.60,-0.60,-0.80,-3.90,-3.94,-3.94
381,-3.30,0.63,-3.35,0.58,-0.58,-0.80,-3.88,-3.93,-3.93
385,-3.32,0.60,-3.36,0.56,-0.56,-0.80,-3.87,-3.92,-3.92
389,-3.36,0.55,-3.38,0.53,-0.53,-0.80,-3.89,-3.91,-3.91
393,-3.39,0.51,-3.40,0.50,-0.50,-0.81,-3.89,-3.90,-3.90
397,-3.44,0.45,-3.42,0.48,-0.48,-0.81,-3.91,-3.90,-3.89
401,-3.48,0.40,-3.44,0.45,-0.45,-0.81,-3.93,-3.90,-3.88
405,-3.49,0.39,-3.46,0.43,-0.43,-0.82,-3.92,-3.90,-3.88
409,-3.51,0.37,-3.48,0.42,-0.42,-0.82,-3.92,-3.90,-3.87
413,-3.53,0.34,-3.48,0.41,-0.41,-0.82,-3.94,-3.89,-3.87
417,-3.49,0.38,-3.48,0.41,-0.41,-0.83,-3.90,-3.89,-3.86
421,-3.49,0.38,-3.46,0.42,-0.42,-0.84,-3.91,-3.88,-3.86
425,-3.44,0.42,-3.43,0.45,-0.45,-0.84,-3.88,-3.88,-3.86
430,-3.40,0.46,-3.39,0.48,-0.48,-0.85,-3.87,-3.87,-3.85
434,-3.37,0.48,-3.34,0.51,-0.51,-0.85,-3.88,-3.86,-3.85
438,-3.30,0.55,-3.29,0.55,-0.55,-0.86,-3.85,-3.84,-3.84
443,-3.24,0.60,-3.23,0.60,-0.60,-0.87,-3.83,-3.83,-3.84
447,-3.17,0.66,-3.18,0.64,-0.64,-0.87,-3.81,-3.82,-3.83
451,-3.09,0.73,-3.12,0.68,-0.68,-0.88,-3.77,-3.81,-3.81
456,-3.05,0.75,-3.07,0.73,-0.73,-0.89,-3.77,-3.80,-3.80
460,-2.99,0.80,-3.02,0.76,-0.76,-0.90,-3.75,-3.79,-3.79
465,-2.95,0.83,-2.97,0.80,-0.80,-0.90,-3.75,-3.77,-3.77
470,-2.91,0.85,-2.93,0.83,-0.83,-0.91,-3.74,-3.76,-3.76
474,-2.88,0.87,-2.89,0.86,-0.86,-0.92,-3.74,-3.75,-3.75
479,-2.88,0.86,-2.86,0.89,-0.89,-0.92,-3.76,-3.74,-3.73
484,-2.84,0.88,-2.82,0.91,-0.91,-0.93,-3.75,-3.73,-3.72
489,-2.79,0.92,-2.78,0.94,-0.94,-0.94,-3.72,-3.72,-3.71
494,-2.77,0.93,-2.75,0.96,-0.96,-0.94,-3.73,-3.71,-3.69
499,-2.73,0.96,-2.71,0.99,-0.99,-0.95,-3.71,-3.69,-3.68
504,-2.67,1.00,-2.66,1.02,-1.02,-0.96,-3.68,-3.68,-3.67
509,-2.63,1.03,-2.61,1.05,-1.05,-0.96,-3.67,-3.66,-3.66
514,-2.58,1.06,-2.56,1.08,-1.08,-0.97,-3.66,-3.64,-3.64
519,-2.51,1.12,-2.51,1.11,-1.11,-0.97,-3.62,-3.62,-3.62
524,-2.44,1.17,-2.45,1.15,-1.15,-0.98,-3.59,-3.60,-3.60
529,-2.39,1.20,-2.40,1.18,-1.18,-0.98,-3.57,-3.58,-3.58
535,-2.34,1.22,-2.34,1.22,-1.22,-0.99,-3.56,-3.56,-3.56
540,-2.27,1.27,-2.29,1.26,-1.26,-0.99,-3.52,-3.54,-3.54
545,-2.22,1.30,-2.22,1.30,-1.30,-1.00,-3.51,-3.52,-3.52
551,-2.16,1.34,-2.16,1.33,-1.33,-1.00,-3.49,-3.49,-3.49
556,-2.11,1.36,-2.10,1.37,-1.37,-1.01,-3.48,-3.47,-3.47
562,-2.07,1.38,-2.04,1.41,-1.41,-1.02,-3.47,-3.45,-3.45
568,-2.02,1.41,-1.98,1.44,-1.44,-1.02,-3.46,-3.42,-3.42
573,-1.95,1.45,-1.92,1.48,-1.48,-1.03,-3.43,-3.41,-3.40
579,-1.87,1.51,-1.87,1.53,-1.53,-1.03,-3.39,-3.40,-3.38
585,-1.79,1.58,-1.81,1.57,-1.57,-1.04,-3.36,-3.38,-3.36
591,-1.72,1.63,-1.76,1.62,-1.62,-1.05,-3.33,-3.38,-3.35
596,-1.68,1.65,-1.70,1.66,-1.66,-1.06,-3.34,-3.36,-3.33
602,-1.63,1.69,-1.64,1.71,-1.71,-1.07,-3.34,-3.35,-3.32
608,-1.62,1.69,-1.58,1.76,-1.76,-1.07,-3.38,-3.34,-3.30
615,-1.58,1.71,-1.51,1.81,-1.81,-1.09,-3.39,-3.32,-3.29
621,-1.53,1.75,-1.45,1.85,-1.85,-1.10,-3.38,-3.30,-3.28
627,-1.49,1.78,-1.40,1.87,-1.87,-1.11,-3.36,-3.27,-3.26
633,-1.44,1.81,-1.37,1.87,-1.87,-1.12,-3.31,-3.24,-3.25
639,-1.38,1.86,-1.36,1.84,-1.84,-1.13,-3.22,-3.20,-3.24
646,-1.34,1.88,-1.38,1.79,-1.79,-1.15,-3.13,-3.17,-3.22
652,-1.30,1.91,-1.45,1.71,-1.71,-1.16,-3.00,-3.16,-3.21
659,-1.37,1.83,-1.56,1.60,-1.60,-1.18,-2.97,-3.16,-3.19
665,-1.44,1.74,-1.71,1.47,-1.47,-1.20,-2.91,-3.18,-3.18
672,-1.61,1.56,-1.87,1.33,-1.33,-1.22,-2.93,-3.20,-3.16
679,-1.84,1.32,-2.04,1.18,-1.18,-1.24,-3.01,-3.22,-3.15
686,-2.13,1.01,-2.21,1.03,-1.03,-1.26,-3.15,-3.23,-3.14
692,-2.39,0.74,-2.35,0.90,-0.90,-1.28,-3.28,-3.25,-3.13
699,-2.68,0.45,-2.47,0.79,-0.79,-1.30,-3.47,-3.27,-3.12
706,-2.92,0.20,-2.55,0.72,-0.72,-1.32,-3.64,-3.28,-3.12
713,-3.06,0.06,-2.59,0.70,-0.70,-1.35,-3.75,-3.28,-3.11
721,-2.92,0.19,-2.57,0.72,-0.72,-1.37,-3.63,-3.28,-3.11
728,-2.71,0.40,-2.48,0.78,-0.78,-1.40,-3.49,-3.27,-3.11
735,-2.45,0.65,-2.35,0.89,-0.89,-1.43,-3.33,-3.24,-3.10
742,-2.16,0.94,-2.18,1.02,-1.02,-1.45,-3.18,-3.20,-3.10
750,-1.89,1.20,-1.98,1.16,-1.16,-1.49,-3.05,-3.14,-3.09
757,-1.63,1.46,-1.77,1.31,-1.31,-1.51,-2.93,-3.08,-3.08
765,-1.41,1.67,-1.59,1.44,-1.44,-1.55,-2.84,-3.02,-3.08
773,-1.24,1.83,-1.44,1.54,-1.54,-1.58,-2.78,-2.98,-3.07
780,-1.12,1.94,-1.34,1.62,-1.62,-1.61,-2.74,-2.97,-3.06
788,-1.02,2.03,-1.30,1.68,-1.68,-1.64,-2.69,-2.98,-3.05
796,-1.05,1.99,-1.32,1.70,-1.70,-1.68,-2.75,-3.02,-3.04
804,-1.18,1.85,-1.37,1.69,-1.69,-1.71,-2.87,-3.06,-3.03
812,-1.34,1.69,-1.43,1.66,-1.66,-1.75,-3.00,-3.09,-3.02
820,-1.58,1.44,-1.50,1.62,-1.62,-1.78,-3.20,-3.12,-3.02
828,-1.76,1.25,-1.56,1.58,-1.58,-1.81,-3.33,-3.13,-3.01
837,-1.93,1.08,-1.59,1.54,-1.54,-1.85,-3.47,-3.14,-3.01
845,-1.98,1.03,-1.61,1.52,-1.52,-1.88,-3.50,-3.13,-3.01
853,-1.89,1.12,-1.59,1.53,-1.53,-1.91,-3.41,-3.12,-3.01
862,-1.72,1.29,-1.55,1.55,-1.55,-1.95,-3.27,-3.11,-3.01
871,-1.53,1.48,-1.49,1.61,-1.61,-1.98,-3.13,-3.10,-3.01
879,-1.33,1.69,-1.40,1.68,-1.68,-2.01,-3.01,-3.09,-3.01
888,-1.11,1.91,-1.29,1.77,-1.77,-2.03,-2.88,-3.07,-3.01
897,-0.92,2.10,-1.17,1.88,-1.88,-2.06,-2.79,-3.05,-3.01
906,-0.81,2.20,-1.04,1.98,-1.98,-2.08,-2.79,-3.02,-3.01
915,-0.74,2.27,-0.91,2.09,-2.09,-2.11,-2.82,-3.00,-3.01
924,-0.75,2.26,-0.79,2.19,-2.19,-2.12,-2.94,-2.98,-3.00
933,-0.74,2.26,-0.68,2.29,-2.29,-2.14,-3.03,-2.98,-3.00
943,-0.74,2.25,-0.59,2.39,-2.39,-2.15,-3.13,-2.99,-2.99
952,-0.66,2.32,-0.51,2.49,-2.49,-2.16,-3.15,-3.00,-2.98
962,-0.56,2.41,-0.43,2.58,-2.58,-2.17,-3.14,-3.01,-2.97
971,-0.41,2.55,-0.33,2.67,-2.67,-2.17,-3.08,-3.00,-2.95
981,-0.28,2.66,-0.23,2.76,-2.76,-2.16,-3.03,-2.99,-2.94
991,-0.12,2.80,-0.12,2.84,-2.84,-2.16,-2.96,-2.96,-2.92
1001,0.01,2.91,-0.01,2.92,-2.92,-2.15,-2.90,-2.92,-2.89
1011,0.12,2.99,0.10,2.99,-2.99,-2.13,-2.86,-2.89,-2.87
1021,0.21,3.06,0.19,3.04,-3.04,-2.11,-2.83,-2.85,-2.84
1031,0.27,3.09,0.27,3.08,-3.08,-2.09,-2.80,-2.80,-2.82
1041,0.37,3.17,0.33,3.08,-3.08,-2.07,-2.71,-2.75,-2.79
1052,0.45,3.22,0.36,3.07,-3.07,-2.03,-2.62,-2.71,-2.77
1062,0.52,3.26,0.36,3.03,-3.03,-2.00,-2.51,-2.68,-2.74
1073,0.38,3.09,0.31,2.97,-2.97,-1.96,-2.59,-2.66,-2.71
1084,0.25,2.93,0.22,2.88,-2.88,-1.92,-2.63,-2.66,-2.68
1094,0.10,2.75,0.11,2.77,-2.77,-1.88,-2.67,-2.66,-2.65
1105,-0.02,2.60,-0.03,2.65,-2.65,-1.83,-2.66,-2.67,-2.62
1116,-0.05,2.54,-0.15,2.51,-2.51,-1.78,-2.56,-2.66,-2.59
1128,-0.21,2.35,-0.27,2.37,-2.37,-1.73,-2.57,-2.63,-2.56
1139,-0.41,2.12,-0.37,2.22,-2.22,-1.68,-2.63,-2.59,-2.52
1150,-0.64,1.85,-0.47,2.07,-2.07,-1.62,-2.71,-2.54,-2.49
1162,-0.84,1.62,-0.57,1.92,-1.92,-1.56,-2.75,-2.48,-2.45
1173,-1.01,1.41,-0.67,1.76,-1.76,-1.50,-2.77,-2.43,-2.41
1185,-1.02,1.36,-0.77,1.60,-1.60,-1.44,-2.61,-2.37,-2.37
1197,-0.92,1.41,-0.89,1.43,-1.43,-1.38,-2.35,-2.32,-2.33
1209,-0.81,1.48,-1.02,1.26,-1.26,-1.31,-2.07,-2.28,-2.28
1221,-0.72,1.52,-1.16,1.08,-1.08,-1.25,-1.80,-2.25,-2.24
1233,-0.86,1.33,-1.32,0.89,-0.89,-1.19,-1.75,-2.21,-2.19
1246,-1.20,0.94,-1.47,0.69,-0.69,-1.12,-1.89,-2.17,-2.13
1258,-1.54,0.54,-1.63,0.49,-0.49,-1.05,-2.03,-2.12,-2.08
1271,-1.88,0.15,-1.77,0.29,-0.29,-0.99,-2.16,-2.06,-2.02
1283,-2.18,-0.21,-1.92,0.09,-0.09,-0.92,-2.26,-2.01,-1.97
1296,-2.32,-0.41,-2.06,-0.10,0.10,-0.86,-2.22,-1.96,-1.91
1309,-2.40,-0.55,-2.20,-0.27,0.27,-0.79,-2.12,-1.93,-1.84
1322,-2.47,-0.69,-2.33,-0.43,0.43,-0.72,-2.04,-1.90,-1.78
1335,-2.57,-0.86,-2.41,-0.56,0.56,-0.66,-2.01,-1.85,-1.71
1349,-2.50,-0.86,-2.45,-0.66,0.66,-0.59,-1.84,-1.79,-1.64
1362,-2.41,-0.83,-2.43,-0.73,0.73,-0.52,-1.67,-1.70,-1.57
1376,-2.29,-0.78,-2.38,-0.78,0.78,-0.45,-1.50,-1.59,-1.50
1390,-2.21,-0.77,-2.30,-0.81,0.81,-0.39,-1.40,-1.49,-1.43
1404,-2.17,-0.80,-2.21,-0.82,0.82,-0.32,-1.34,-1.38,-1.36
1418,-2.10,-0.81,-2.10,-0.82,0.82,-0.26,-1.27,-1.28,-1.29
1432,-2.01,-0.79,-2.01,-0.81,0.81,-0.19,-1.20,-1.19,-1.22
1446,-1.91,-0.76,-1.92,-0.80,0.80,-0.13,-1.11,-1.12,-1.15
1461,-1.80,-0.72,-1.84,-0.78,0.78,-0.06,-1.02,-1.06,-1.07
1475,-1.76,-0.76,-1.77,-0.77,0.77,0.00,-0.98,-1.00,-1.00
1490,-1.71,-0.78,-1.70,-0.77,0.77,0.07,-0.93,-0.93,-0.93
1505,-1.63,-0.78,-1.64,-0.79,0.79,0.14,-0.84,-0.85,-0.85
1520,-1.55,-0.77,-1.57,-0.82,0.82,0.20,-0.73,-0.75,-0.77
1535,-1.46,-0.76,-1.52,-0.87,0.87,0.26,-0.59,-0.65,-0.69
