frequency,raw,error,smoothed,error_smoothed,equalization,parametric_eq,fixed_band_eq,equalized_raw,equalized_smoothed,target
20.00,-6.98,-6.02,-6.97,-6.02,6.01,5.97,2.24,-0.97,-0.96,-0.95
20.20,-6.94,-6.01,-6.94,-6.02,6.01,5.97,2.30,-0.93,-0.93,-0.92
20.40,-6.91,-6.01,-6.91,-6.01,6.00,5.96,2.37,-0.91,-0.91,-0.89
20.61,-6.87,-5.99,-6.87,-6.00,5.99,5.95,2.44,-0.88,-0.88,-0.87
20.81,-6.83,-5.98,-6.83,-5.99,5.98,5.93,2.51,-0.85,-0.85,-0.84
21.02,-6.80,-5.98,-6.79,-5.97,5.96,5.92,2.58,-0.84,-0.83,-0.81
21.23,-6.74,-5.93,-6.75,-5.95,5.94,5.90,2.65,-0.80,-0.81,-0.80
21.44,-6.71,-5.91,-6.71,-5.91,5.91,5.88,2.73,-0.79,-0.79,-0.79
21.66,-6.68,-5.89,-6.66,-5.88,5.88,5.86,2.81,-0.79,-0.78,-0.78
21.87,-6.62,-5.83,-6.63,-5.85,5.85,5.84,2.89,-0.77,-0.78,-0.78
22.09,-6.59,-5.81,-6.59,-5.81,5.81,5.82,2.97,-0.77,-0.78,-0.78
22.31,-6.56,-5.78,-6.55,-5.78,5.78,5.79,3.06,-0.78,-0.77,-0.78
22.54,-6.52,-5.74,-6.52,-5.74,5.74,5.77,3.15,-0.78,-0.78,-0.78
22.76,-6.48,-5.70,-6.48,-5.70,5.70,5.74,3.24,-0.77,-0.78,-0.78
22.99,-6.45,-5.66,-6.45,-5.67,5.67,5.71,3.33,-0.78,-0.78,-0.79
23.22,-6.43,-5.64,-6.41,-5.63,5.64,5.68,3.42,-0.79,-0.78,-0.79
23.45,-6.38,-5.59,-6.39,-5.60,5.60,5.65,3.52,-0.77,-0.78,-0.79
23.69,-6.35,-5.56,-6.35,-5.57,5.57,5.62,3.62,-0.78,-0.79,-0.79
23.92,-6.34,-5.55,-6.32,-5.54,5.54,5.59,3.72,-0.80,-0.79,-0.79
24.16,-6.29,-5.51,-6.30,-5.51,5.50,5.56,3.82,-0.79,-0.79,-0.78
24.40,-6.26,-5.48,-6.26,-5.47,5.47,5.52,3.92,-0.79,-0.79,-0.78
24.65,-6.23,-5.44,-6.22,-5.43,5.43,5.49,4.03,-0.80,-0.79,-0.79
24.89,-6.17,-5.38,-6.18,-5.39,5.39,5.45,4.13,-0.77,-0.79,-0.79
25.14,-6.15,-5.36,-6.14,-5.35,5.36,5.41,4.24,-0.79,-0.79,-0.79
25.39,-6.11,-5.32,-6.11,-5.32,5.32,5.38,4.35,-0.79,-0.79,-0.79
25.65,-6.08,-5.29,-6.08,-5.28,5.29,5.34,4.45,-0.79,-0.79,-0.79
25.91,-6.06,-5.26,-6.05,-5.25,5.25,5.30,4.56,-0.80,-0.79,-0.80
26.16,-6.02,-5.21,-6.03,-5.23,5.23,5.26,4.67,-0.79,-0.80,-0.80
26.43,-6.01,-5.20,-6.01,-5.20,5.20,5.22,4.78,-0.80,-0.80,-0.80
26.69,-6.01,-5.20,-5.99,-5.18,5.19,5.18,4.88,-0.82,-0.80,-0.80
26.96,-5.96,-5.15,-5.97,-5.17,5.17,5.14,4.99,-0.79,-0.80,-0.80
27.23,-5.96,-5.15,-5.96,-5.15,5.16,5.10,5.09,-0.80,-0.80,-0.80
27.50,-5.96,-5.15,-5.95,-5.14,5.15,5.06,5.19,-0.80,-0.80,-0.81
27.77,-5.96,-5.14,-5.96,-5.14,5.15,5.02,5.28,-0.81,-0.81,-0.82
28.05,-5.96,-5.14,-5.96,-5.14,5.14,4.98,5.37,-0.82,-0.82,-0.82
28.33,-5.96,-5.13,-5.96,-5.13,5.13,4.94,5.46,-0.83,-0.83,-0.83
28.62,-5.96,-5.13,-5.95,-5.12,5.12,4.90,5.54,-0.84,-0.83,-0.83
28.90,-5.92,-5.09,-5.93,-5.10,5.10,4.85,5.62,-0.82,-0.83,-0.83
29.19,-5.92,-5.08,-5.91,-5.08,5.07,4.81,5.69,-0.84,-0.84,-0.84
29.48,-5.88,-5.05,-5.88,-5.04,5.04,4.77,5.75,-0.84,-0.84,-0.83
29.78,-5.85,-5.00,-5.84,-5.00,5.00,4.73,5.80,-0.85,-0.85,-0.84
30.08,-5.79,-4.94,-5.80,-4.95,4.94,4.69,5.85,-0.85,-0.86,-0.84
30.38,-5.74,-4.88,-5.73,-4.88,4.88,4.65,5.88,-0.86,-0.86,-0.85
30.68,-5.68,-4.82,-5.67,-4.81,4.80,4.61,5.91,-0.88,-0.87,-0.86
30.99,-5.57,-4.70,-5.58,-4.72,4.71,4.57,5.93,-0.85,-0.87,-0.87
31.30,-5.51,-4.64,-5.50,-4.63,4.62,4.53,5.94,-0.89,-0.87,-0.87
31.61,-5.40,-4.53,-5.41,-4.53,4.53,4.49,5.94,-0.87,-0.88,-0.87
31.93,-5.32,-4.44,-5.31,-4.43,4.43,4.45,5.93,-0.89,-0.88,-0.88
32.24,-5.23,-4.33,-5.22,-4.33,4.34,4.42,5.91,-0.89,-0.88,-0.89
32.57,-5.12,-4.22,-5.14,-4.24,4.25,4.38,5.89,-0.86,-0.88,-0.89
32.89,-5.07,-4.17,-5.06,-4.16,4.18,4.34,5.85,-0.89,-0.88,-0.89
33.22,-5.01,-4.10,-5.01,-4.10,4.11,4.30,5.81,-0.90,-0.90,-0.91
33.55,-4.96,-4.05,-4.96,-4.05,4.06,4.27,5.76,-0.90,-0.91,-0.91
33.89,-4.94,-4.02,-4.92,-4.01,4.02,4.23,5.70,-0.92,-0.91,-0.92
34.23,-4.89,-3.97,-4.90,-3.98,3.98,4.19,5.63,-0.90,-0.92,-0.92
34.57,-4.89,-3.95,-4.89,-3.95,3.96,4.16,5.57,-0.93,-0.93,-0.93
34.92,-4.89,-3.94,-4.89,-3.94,3.94,4.12,5.49,-0.95,-0.95,-0.94
35.27,-4.89,-3.94,-4.89,-3.94,3.92,4.09,5.41,-0.97,-0.97,-0.95
35.62,-4.89,-3.93,-4.88,-3.92,3.91,4.05,5.33,-0.98,-0.97,-0.96
35.97,-4.86,-3.89,-4.86,-3.89,3.89,4.02,5.24,-0.97,-0.97,-0.97
36.33,-4.84,-3.86,-4.85,-3.87,3.88,3.99,5.16,-0.96,-0.97,-0.97
36.70,-4.84,-3.85,-4.84,-3.85,3.86,3.95,5.07,-0.98,-0.98,-0.99
37.06,-4.84,-3.84,-4.83,-3.84,3.84,3.92,4.98,-1.00,-0.99,-1.00
37.43,-4.84,-3.84,-4.82,-3.82,3.82,3.89,4.88,-1.02,-1.01,-1.00
37.81,-4.80,-3.78,-4.81,-3.80,3.79,3.86,4.79,-1.00,-1.02,-1.01
38.19,-4.80,-3.77,-4.80,-3.78,3.77,3.83,4.70,-1.03,-1.03,-1.03
38.57,-4.80,-3.77,-4.78,-3.75,3.75,3.80,4.61,-1.05,-1.03,-1.03
38.95,-4.77,-3.73,-4.77,-3.73,3.73,3.77,4.52,-1.04,-1.04,-1.04
39.34,-4.75,-3.69,-4.76,-3.70,3.71,3.74,4.43,-1.04,-1.05,-1.05
39.74,-4.75,-3.68,-4.75,-3.68,3.69,3.71,4.34,-1.06,-1.05,-1.07
40.14,-4.75,-3.68,-4.74,-3.67,3.68,3.68,4.25,-1.07,-1.06,-1.07
40.54,-4.75,-3.66,-4.75,-3.66,3.67,3.65,4.17,-1.07,-1.07,-1.08
40.94,-4.75,-3.66,-4.75,-3.66,3.67,3.62,4.09,-1.08,-1.08,-1.09
41.35,-4.76,-3.66,-4.76,-3.66,3.67,3.59,4.01,-1.09,-1.09,-1.10
41.76,-4.77,-3.66,-4.78,-3.67,3.67,3.56,3.93,-1.10,-1.11,-1.10
42.18,-4.80,-3.69,-4.79,-3.68,3.66,3.54,3.85,-1.14,-1.13,-1.11
42.60,-4.80,-3.67,-4.79,-3.67,3.65,3.51,3.78,-1.15,-1.14,-1.12
43.03,-4.77,-3.64,-4.77,-3.64,3.63,3.48,3.71,-1.13,-1.14,-1.13
43.46,-4.75,-3.61,-4.76,-3.61,3.61,3.46,3.64,-1.14,-1.15,-1.14
43.90,-4.75,-3.58,-4.74,-3.58,3.58,3.43,3.58,-1.16,-1.16,-1.17
44.33,-4.74,-3.56,-4.73,-3.55,3.55,3.40,3.52,-1.19,-1.18,-1.18
44.78,-4.70,-3.50,-4.71,-3.51,3.51,3.38,3.46,-1.18,-1.19,-1.20
45.23,-4.70,-3.49,-4.69,-3.48,3.48,3.35,3.40,-1.22,-1.21,-1.21
45.68,-4.66,-3.43,-4.66,-3.44,3.44,3.33,3.34,-1.21,-1.22,-1.23
46.13,-4.66,-3.42,-4.64,-3.40,3.41,3.30,3.29,-1.24,-1.23,-1.24
46.60,-4.61,-3.36,-4.62,-3.37,3.38,3.28,3.24,-1.23,-1.24,-1.25
47.06,-4.61,-3.34,-4.61,-3.35,3.35,3.25,3.20,-1.26,-1.26,-1.26
47.53,-4.61,-3.33,-4.59,-3.31,3.31,3.23,3.15,-1.29,-1.28,-1.28
48.01,-4.57,-3.28,-4.59,-3.29,3.28,3.20,3.11,-1.29,-1.31,-1.29
48.49,-4.57,-3.26,-4.57,-3.25,3.24,3.17,3.07,-1.32,-1.32,-1.31
48.97,-4.57,-3.23,-4.55,-3.21,3.21,3.15,3.03,-1.36,-1.34,-1.34
49.46,-4.52,-3.15,-4.54,-3.17,3.17,3.12,3.00,-1.35,-1.37,-1.37
49.96,-4.52,-3.12,-4.52,-3.13,3.14,3.10,2.96,-1.38,-1.38,-1.39
50.46,-4.52,-3.12,-4.50,-3.09,3.10,3.07,2.93,-1.42,-1.40,-1.40
50.96,-4.47,-3.05,-4.48,-3.06,3.07,3.05,2.90,-1.40,-1.42,-1.42
51.47,-4.47,-3.02,-4.47,-3.03,3.03,3.02,2.87,-1.44,-1.44,-1.45
51.99,-4.47,-3.00,-4.46,-3.00,3.00,2.99,2.85,-1.47,-1.46,-1.47
52.51,-4.47,-2.99,-4.46,-2.98,2.97,2.97,2.82,-1.49,-1.48,-1.47
53.03,-4.45,-2.95,-4.45,-2.95,2.95,2.94,2.80,-1.50,-1.50,-1.49
53.56,-4.43,-2.91,-4.43,-2.92,2.93,2.91,2.77,-1.50,-1.51,-1.51
54.10,-4.43,-2.89,-4.43,-2.89,2.90,2.88,2.75,-1.52,-1.52,-1.53
54.64,-4.43,-2.87,-4.43,-2.87,2.88,2.86,2.73,-1.55,-1.55,-1.55
55.18,-4.43,-2.85,-4.43,-2.86,2.85,2.83,2.71,-1.57,-1.58,-1.57
55.74,-4.43,-2.83,-4.42,-2.83,2.82,2.80,2.69,-1.60,-1.60,-1.59
56.29,-4.43,-2.82,-4.41,-2.81,2.79,2.77,2.67,-1.63,-1.62,-1.60
56.86,-4.38,-2.75,-4.39,-2.77,2.76,2.74,2.64,-1.61,-1.63,-1.63
57.42,-4.38,-2.73,-4.37,-2.72,2.73,2.71,2.62,-1.65,-1.64,-1.65
58.00,-4.34,-2.68,-4.34,-2.68,2.69,2.68,2.60,-1.64,-1.65,-1.66
58.58,-4.33,-2.65,-4.33,-2.65,2.65,2.65,2.58,-1.67,-1.67,-1.67
59.16,-4.30,-2.61,-4.30,-2.61,2.61,2.62,2.55,-1.69,-1.69,-1.69
59.76,-4.29,-2.59,-4.28,-2.57,2.56,2.59,2.53,-1.73,-1.71,-1.70
60.35,-4.24,-2.51,-4.24,-2.52,2.51,2.56,2.50,-1.72,-1.73,-1.72
60.96,-4.21,-2.47,-4.21,-2.46,2.46,2.53,2.48,-1.75,-1.75,-1.74
61.57,-4.18,-2.40,-4.18,-2.41,2.41,2.49,2.45,-1.77,-1.77,-1.77
62.18,-4.15,-2.35,-4.15,-2.35,2.35,2.46,2.42,-1.79,-1.79,-1.80
62.80,-4.12,-2.30,-4.11,-2.29,2.30,2.43,2.39,-1.82,-1.82,-1.82
63.43,-4.08,-2.24,-4.08,-2.24,2.24,2.39,2.35,-1.83,-1.83,-1.84
64.07,-4.05,-2.19,-4.05,-2.19,2.19,2.36,2.32,-1.85,-1.86,-1.86
64.71,-4.02,-2.14,-4.02,-2.14,2.15,2.32,2.28,-1.87,-1.87,-1.88
65.35,-4.01,-2.11,-3.99,-2.10,2.10,2.29,2.25,-1.90,-1.89,-1.89
66.01,-3.96,-2.04,-3.98,-2.06,2.06,2.25,2.21,-1.90,-1.92,-1.91
66.67,-3.96,-2.03,-3.96,-2.02,2.02,2.22,2.17,-1.94,-1.93,-1.93
67.33,-3.96,-2.01,-3.94,-1.98,1.98,2.18,2.13,-1.97,-1.95,-1.95
68.01,-3.91,-1.94,-3.93,-1.96,1.95,2.14,2.09,-1.96,-1.98,-1.97
68.69,-3.91,-1.91,-3.91,-1.91,1.92,2.11,2.04,-1.99,-1.99,-1.99
69.37,-3.91,-1.89,-3.89,-1.88,1.88,2.07,2.00,-2.02,-2.01,-2.01
70.07,-3.87,-1.83,-3.88,-1.85,1.85,2.03,1.95,-2.02,-2.03,-2.04
70.77,-3.87,-1.82,-3.87,-1.82,1.82,1.99,1.91,-2.05,-2.06,-2.05
71.48,-3.87,-1.80,-3.86,-1.79,1.78,1.96,1.86,-2.08,-2.08,-2.07
72.19,-3.87,-1.77,-3.85,-1.76,1.75,1.92,1.82,-2.12,-2.10,-2.09
72.91,-3.82,-1.70,-3.83,-1.72,1.72,1.88,1.77,-2.10,-2.12,-2.12
73.64,-3.82,-1.67,-3.82,-1.68,1.69,1.84,1.72,-2.13,-2.14,-2.14
74.38,-3.82,-1.66,-3.81,-1.65,1.65,1.80,1.68,-2.16,-2.16,-2.16
75.12,-3.82,-1.63,-3.81,-1.63,1.62,1.76,1.63,-2.20,-2.19,-2.18
75.87,-3.80,-1.60,-3.79,-1.59,1.59,1.72,1.58,-2.21,-2.20,-2.20
76.63,-3.77,-1.55,-3.78,-1.56,1.56,1.68,1.54,-2.20,-2.21,-2.22
77.40,-3.77,-1.53,-3.77,-1.53,1.54,1.65,1.49,-2.23,-2.23,-2.24
78.17,-3.77,-1.50,-3.76,-1.51,1.52,1.61,1.44,-2.25,-2.25,-2.26
78.95,-3.77,-1.49,-3.77,-1.49,1.49,1.57,1.40,-2.28,-2.28,-2.27
79.74,-3.77,-1.47,-3.77,-1.48,1.46,1.53,1.35,-2.30,-2.31,-2.29
80.54,-3.77,-1.45,-3.77,-1.45,1.44,1.49,1.31,-2.33,-2.33,-2.31
81.35,-3.77,-1.43,-3.76,-1.42,1.42,1.45,1.27,-2.35,-2.34,-2.33
82.16,-3.74,-1.38,-3.74,-1.39,1.39,1.41,1.22,-2.34,-2.35,-2.36
82.98,-3.73,-1.36,-3.73,-1.36,1.37,1.37,1.18,-2.36,-2.36,-2.37
83.81,-3.73,-1.33,-3.72,-1.33,1.34,1.33,1.14,-2.39,-2.38,-2.40
84.65,-3.73,-1.30,-3.73,-1.31,1.31,1.29,1.10,-2.42,-2.41,-2.42
85.50,-3.73,-1.29,-3.73,-1.29,1.28,1.25,1.06,-2.44,-2.45,-2.44
86.35,-3.73,-1.27,-3.73,-1.27,1.25,1.21,1.02,-2.47,-2.47,-2.46
87.22,-3.73,-1.24,-3.71,-1.23,1.22,1.17,0.98,-2.50,-2.49,-2.48
88.09,-3.69,-1.18,-3.70,-1.19,1.20,1.13,0.94,-2.49,-2.50,-2.51
88.97,-3.68,-1.15,-3.68,-1.15,1.16,1.09,0.90,-2.51,-2.52,-2.52
89.86,-3.68,-1.13,-3.67,-1.12,1.13,1.06,0.86,-2.55,-2.55,-2.55
90.76,-3.68,-1.09,-3.68,-1.10,1.09,1.02,0.83,-2.59,-2.59,-2.59
91.66,-3.68,-1.07,-3.67,-1.06,1.06,0.98,0.79,-2.62,-2.62,-2.60
92.58,-3.67,-1.03,-3.66,-1.02,1.02,0.94,0.76,-2.65,-2.64,-2.64
93.51,-3.63,-0.97,-3.64,-0.98,0.98,0.90,0.72,-2.64,-2.66,-2.66
94.44,-3.63,-0.94,-3.63,-0.94,0.95,0.87,0.69,-2.68,-2.68,-2.68
95.39,-3.63,-0.91,-3.62,-0.91,0.92,0.83,0.66,-2.71,-2.71,-2.71
96.34,-3.63,-0.88,-3.63,-0.88,0.88,0.79,0.62,-2.74,-2.74,-2.75
97.30,-3.63,-0.85,-3.63,-0.85,0.85,0.76,0.59,-2.78,-2.78,-2.78
98.28,-3.63,-0.82,-3.63,-0.82,0.81,0.72,0.56,-2.81,-2.81,-2.81
99.26,-3.63,-0.79,-3.62,-0.78,0.78,0.69,0.53,-2.85,-2.84,-2.84
100.25,-3.61,-0.74,-3.62,-0.75,0.74,0.65,0.50,-2.86,-2.87,-2.87
101.25,-3.61,-0.71,-3.61,-0.71,0.71,0.62,0.47,-2.90,-2.90,-2.89
102.27,-3.61,-0.68,-3.60,-0.67,0.68,0.58,0.44,-2.93,-2.92,-2.92
103.29,-3.59,-0.62,-3.59,-0.64,0.64,0.55,0.41,-2.94,-2.95,-2.96
104.32,-3.59,-0.60,-3.59,-0.60,0.61,0.51,0.38,-2.98,-2.98,-2.98
105.37,-3.59,-0.57,-3.59,-0.58,0.58,0.48,0.35,-3.00,-3.01,-3.01
106.42,-3.61,-0.57,-3.60,-0.56,0.55,0.44,0.33,-3.05,-3.05,-3.04
107.48,-3.61,-0.54,-3.60,-0.53,0.53,0.41,0.30,-3.08,-3.08,-3.07
108.56,-3.61,-0.50,-3.61,-0.50,0.50,0.38,0.27,-3.10,-3.11,-3.11
109.64,-3.61,-0.47,-3.61,-0.48,0.48,0.35,0.25,-3.13,-3.14,-3.14
110.74,-3.63,-0.46,-3.62,-0.45,0.45,0.32,0.22,-3.18,-3.17,-3.17
111.85,-3.63,-0.43,-3.63,-0.42,0.42,0.28,0.20,-3.21,-3.21,-3.20
112.97,-3.63,-0.38,-3.63,-0.39,0.38,0.25,0.17,-3.24,-3.25,-3.25
114.10,-3.63,-0.35,-3.63,-0.35,0.35,0.22,0.15,-3.28,-3.28,-3.27
115.24,-3.63,-0.31,-3.63,-0.31,0.31,0.19,0.13,-3.31,-3.31,-3.31
116.39,-3.63,-0.28,-3.63,-0.28,0.28,0.16,0.11,-3.35,-3.35,-3.35
117.55,-3.63,-0.24,-3.63,-0.24,0.24,0.13,0.08,-3.38,-3.38,-3.39
118.73,-3.63,-0.20,-3.63,-0.20,0.21,0.10,0.06,-3.42,-3.42,-3.43
119.92,-3.63,-0.17,-3.63,-0.17,0.17,0.07,0.04,-3.46,-3.46,-3.45
121.12,-3.63,-0.14,-3.63,-0.14,0.14,0.05,0.02,-3.49,-3.49,-3.49
122.33,-3.63,-0.10,-3.63,-0.11,0.10,0.02,0.00,-3.52,-3.52,-3.53
123.55,-3.63,-0.07,-3.63,-0.07,0.07,-0.01,-0.02,-3.56,-3.56,-3.55
124.79,-3.63,-0.04,-3.63,-0.04,0.04,-0.04,-0.04,-3.59,-3.59,-3.59
126.03,-3.63,-0.00,-3.63,-0.00,0.00,-0.06,-0.06,-3.63,-3.63,-3.62
127.29,-3.63,0.03,-3.63,0.03,-0.03,-0.09,-0.07,-3.66,-3.66,-3.66
128.57,-3.63,0.07,-3.63,0.07,-0.07,-0.12,-0.09,-3.70,-3.70,-3.70
129.85,-3.63,0.11,-3.63,0.11,-0.10,-0.14,-0.11,-3.73,-3.73,-3.73
131.15,-3.63,0.14,-3.63,0.14,-0.14,-0.17,-0.13,-3.76,-3.76,-3.77
132.46,-3.63,0.17,-3.63,0.17,-0.17,-0.19,-0.14,-3.80,-3.80,-3.80
133.79,-3.63,0.20,-3.63,0.20,-0.20,-0.21,-0.16,-3.83,-3.83,-3.82
135.12,-3.63,0.24,-3.63,0.23,-0.23,-0.24,-0.17,-3.86,-3.86,-3.86
136.48,-3.63,0.26,-3.63,0.26,-0.26,-0.26,-0.19,-3.89,-3.89,-3.88
137.84,-3.63,0.29,-3.63,0.29,-0.29,-0.29,-0.20,-3.92,-3.92,-3.91
139.22,-3.63,0.33,-3.63,0.32,-0.32,-0.31,-0.22,-3.95,-3.95,-3.95
140.61,-3.63,0.36,-3.63,0.35,-0.35,-0.33,-0.23,-3.97,-3.97,-3.98
142.02,-3.63,0.37,-3.63,0.37,-0.37,-0.35,-0.25,-4.00,-4.00,-3.99
143.44,-3.63,0.39,-3.63,0.39,-0.40,-0.37,-0.26,-4.02,-4.02,-4.02
144.87,-3.63,0.42,-3.63,0.42,-0.42,-0.40,-0.28,-4.05,-4.05,-4.05
146.32,-3.63,0.45,-3.63,0.44,-0.44,-0.42,-0.29,-4.07,-4.07,-4.07
147.78,-3.63,0.46,-3.63,0.47,-0.47,-0.44,-0.31,-4.09,-4.09,-4.09
149.26,-3.63,0.49,-3.63,0.49,-0.49,-0.46,-0.32,-4.12,-4.12,-4.12
150.75,-3.63,0.52,-3.63,0.52,-0.52,-0.48,-0.34,-4.15,-4.15,-4.15
152.26,-3.63,0.55,-3.63,0.55,-0.55,-0.50,-0.35,-4.18,-4.18,-4.18
153.78,-3.63,0.57,-3.62,0.58,-0.58,-0.52,-0.37,-4.21,-4.20,-4.20
155.32,-3.61,0.63,-3.62,0.61,-0.62,-0.54,-0.39,-4.22,-4.23,-4.23
156.88,-3.61,0.65,-3.61,0.65,-0.65,-0.55,-0.40,-4.26,-4.26,-4.25
158.44,-3.61,0.68,-3.60,0.69,-0.69,-0.57,-0.42,-4.29,-4.29,-4.29
160.03,-3.59,0.73,-3.59,0.72,-0.72,-0.59,-0.44,-4.31,-4.31,-4.32
161.63,-3.59,0.76,-3.59,0.76,-0.75,-0.61,-0.45,-4.34,-4.34,-4.35
163.24,-3.59,0.79,-3.59,0.79,-0.79,-0.62,-0.47,-4.37,-4.37,-4.38
164.88,-3.59,0.81,-3.59,0.82,-0.82,-0.64,-0.49,-4.40,-4.40,-4.40
166.53,-3.59,0.84,-3.59,0.84,-0.84,-0.66,-0.51,-4.43,-4.43,-4.43
168.19,-3.59,0.87,-3.59,0.87,-0.87,-0.67,-0.53,-4.46,-4.46,-4.46
169.87,-3.59,0.90,-3.59,0.90,-0.90,-0.69,-0.55,-4.48,-4.48,-4.49
171.57,-3.59,0.93,-3.59,0.93,-0.92,-0.71,-0.57,-4.51,-4.51,-4.51
173.29,-3.59,0.95,-3.59,0.95,-0.95,-0.72,-0.59,-4.54,-4.54,-4.54
175.02,-3.59,0.98,-3.59,0.98,-0.98,-0.74,-0.61,-4.57,-4.57,-4.57
176.77,-3.59,1.02,-3.59,1.01,-1.02,-0.75,-0.63,-4.61,-4.61,-4.60
178.54,-3.59,1.05,-3.59,1.05,-1.06,-0.77,-0.65,-4.64,-4.64,-4.64
180.32,-3.59,1.08,-3.58,1.09,-1.09,-0.78,-0.67,-4.68,-4.67,-4.66
182.13,-3.56,1.13,-3.56,1.13,-1.13,-0.79,-0.70,-4.69,-4.69,-4.69
183.95,-3.55,1.18,-3.55,1.17,-1.17,-0.81,-0.72,-4.71,-4.71,-4.72
185.79,-3.54,1.21,-3.54,1.21,-1.20,-0.82,-0.75,-4.74,-4.74,-4.75
187.65,-3.54,1.24,-3.54,1.24,-1.23,-0.83,-0.77,-4.77,-4.77,-4.78
189.52,-3.54,1.27,-3.54,1.27,-1.26,-0.85,-0.80,-4.80,-4.80,-4.80
191.42,-3.54,1.29,-3.54,1.29,-1.29,-0.86,-0.82,-4.83,-4.83,-4.82
193.33,-3.54,1.31,-3.54,1.31,-1.31,-0.87,-0.85,-4.85,-4.85,-4.85
195.27,-3.54,1.33,-3.54,1.33,-1.34,-0.88,-0.87,-4.87,-4.87,-4.87
197.22,-3.54,1.35,-3.54,1.35,-1.36,-0.89,-0.90,-4.90,-4.90,-4.89
199.19,-3.54,1.38,-3.54,1.37,-1.38,-0.91,-0.93,-4.92,-4.92,-4.92
201.18,-3.54,1.39,-3.53,1.40,-1.41,-0.92,-0.95,-4.95,-4.94,-4.93
203.19,-3.52,1.42,-3.51,1.43,-1.43,-0.93,-0.98,-4.95,-4.94,-4.94
205.23,-3.49,1.47,-3.50,1.46,-1.45,-0.94,-1.01,-4.94,-4.95,-4.96
207.28,-3.49,1.47,-3.49,1.48,-1.47,-0.95,-1.04,-4.96,-4.96,-4.96
209.35,-3.49,1.49,-3.48,1.50,-1.49,-0.96,-1.06,-4.97,-4.97,-4.98
211.44,-3.49,1.51,-3.49,1.50,-1.50,-0.97,-1.09,-4.99,-4.99,-5.00
213.56,-3.49,1.51,-3.49,1.51,-1.52,-0.98,-1.12,-5.00,-5.01,-5.00
215.69,-3.49,1.51,-3.49,1.51,-1.53,-0.99,-1.14,-5.01,-5.01,-5.00
217.85,-3.49,1.52,-3.48,1.53,-1.54,-1.00,-1.17,-5.02,-5.01,-5.00
220.03,-3.47,1.54,-3.47,1.54,-1.54,-1.01,-1.19,-5.01,-5.01,-5.01
222.23,-3.45,1.57,-3.45,1.56,-1.55,-1.01,-1.22,-5.00,-5.00,-5.02
224.45,-3.45,1.56,-3.45,1.56,-1.55,-1.02,-1.24,-5.00,-5.00,-5.01
226.70,-3.45,1.56,-3.45,1.56,-1.56,-1.03,-1.26,-5.01,-5.01,-5.00
228.96,-3.45,1.55,-3.45,1.55,-1.56,-1.04,-1.28,-5.01,-5.01,-5.00
231.25,-3.45,1.54,-3.43,1.56,-1.56,-1.05,-1.30,-5.01,-4.99,-4.99
233.57,-3.42,1.57,-3.43,1.56,-1.55,-1.05,-1.32,-4.97,-4.98,-4.98
235.90,-3.42,1.56,-3.43,1.55,-1.55,-1.06,-1.34,-4.96,-4.97,-4.98
238.26,-3.45,1.53,-3.43,1.54,-1.54,-1.07,-1.35,-4.98,-4.97,-4.97
240.64,-3.45,1.51,-3.44,1.52,-1.52,-1.08,-1.36,-4.97,-4.97,-4.96
243.05,-3.45,1.50,-3.45,1.50,-1.50,-1.08,-1.37,-4.95,-4.95,-4.95
245.48,-3.45,1.48,-3.45,1.48,-1.48,-1.09,-1.38,-4.92,-4.93,-4.93
247.93,-3.47,1.45,-3.47,1.45,-1.44,-1.09,-1.39,-4.91,-4.91,-4.92
250.41,-3.49,1.42,-3.49,1.42,-1.40,-1.10,-1.39,-4.89,-4.89,-4.91
252.92,-3.52,1.37,-3.52,1.37,-1.36,-1.11,-1.40,-4.87,-4.88,-4.88
255.45,-3.55,1.31,-3.56,1.31,-1.31,-1.11,-1.40,-4.85,-4.86,-4.86
258.00,-3.61,1.24,-3.60,1.25,-1.25,-1.12,-1.40,-4.86,-4.85,-4.84
260.58,-3.64,1.19,-3.64,1.19,-1.20,-1.12,-1.39,-4.83,-4.83,-4.83
263.19,-3.67,1.13,-3.67,1.14,-1.14,-1.13,-1.39,-4.80,-4.81,-4.80
265.82,-3.70,1.09,-3.70,1.08,-1.08,-1.13,-1.38,-4.78,-4.78,-4.79
268.48,-3.73,1.03,-3.73,1.03,-1.03,-1.14,-1.37,-4.75,-4.75,-4.76
271.16,-3.77,0.97,-3.76,0.98,-0.98,-1.14,-1.36,-4.75,-4.74,-4.73
273.87,-3.77,0.95,-3.78,0.93,-0.94,-1.15,-1.35,-4.70,-4.72,-4.72
276.61,-3.82,0.87,-3.80,0.89,-0.90,-1.15,-1.34,-4.71,-4.70,-4.69
279.38,-3.82,0.85,-3.81,0.86,-0.86,-1.16,-1.32,-4.68,-4.67,-4.67
282.17,-3.82,0.84,-3.82,0.83,-0.83,-1.16,-1.31,-4.65,-4.65,-4.66
284.99,-3.82,0.81,-3.82,0.81,-0.80,-1.16,-1.29,-4.62,-4.62,-4.63
287.84,-3.82,0.79,-3.82,0.79,-0.79,-1.17,-1.28,-4.60,-4.61,-4.61
290.72,-3.82,0.77,-3.82,0.77,-0.77,-1.17,-1.26,-4.59,-4.59,-4.58
293.63,-3.82,0.75,-3.81,0.76,-0.77,-1.17,-1.24,-4.58,-4.57,-4.57
296.57,-3.78,0.76,-3.79,0.76,-0.76,-1.18,-1.22,-4.54,-4.55,-4.54
299.53,-3.77,0.75,-3.76,0.76,-0.76,-1.18,-1.21,-4.53,-4.52,-4.52
302.53,-3.73,0.78,-3.73,0.76,-0.76,-1.18,-1.19,-4.49,-4.49,-4.50
305.55,-3.71,0.76,-3.71,0.77,-0.76,-1.18,-1.17,-4.47,-4.46,-4.47
308.61,-3.68,0.77,-3.68,0.77,-0.76,-1.19,-1.15,-4.44,-4.44,-4.45
311.69,-3.65,0.77,-3.65,0.77,-0.77,-1.19,-1.13,-4.41,-4.42,-4.42
314.81,-3.63,0.75,-3.62,0.77,-0.77,-1.19,-1.12,-4.40,-4.39,-4.38
317.96,-3.59,0.78,-3.59,0.77,-0.78,-1.19,-1.10,-4.36,-4.37,-4.36
321.14,-3.58,0.77,-3.57,0.77,-0.78,-1.19,-1.08,-4.35,-4.35,-4.35
324.35,-3.54,0.79,-3.54,0.78,-0.78,-1.19,-1.07,-4.31,-4.32,-4.33
327.59,-3.54,0.76,-3.52,0.78,-0.77,-1.20,-1.05,-4.31,-4.29,-4.30
330.87,-3.49,0.79,-3.50,0.78,-0.77,-1.20,-1.03,-4.26,-4.27,-4.28
334.18,-3.49,0.77,-3.49,0.77,-0.76,-1.20,-1.02,-4.25,-4.25,-4.26
337.52,-3.49,0.76,-3.48,0.76,-0.75,-1.20,-1.01,-4.24,-4.24,-4.24
340.90,-3.49,0.73,-3.48,0.74,-0.74,-1.20,-0.99,-4.23,-4.22,-4.21
344.30,-3.47,0.73,-3.47,0.73,-0.73,-1.20,-0.98,-4.20,-4.20,-4.20
347.75,-3.45,0.73,-3.46,0.72,-0.72,-1.20,-0.97,-4.17,-4.18,-4.18
351.23,-3.45,0.71,-3.44,0.71,-0.72,-1.20,-0.96,-4.16,-4.16,-4.16
354.74,-3.45,0.69,-3.43,0.71,-0.72,-1.20,-0.95,-4.16,-4.15,-4.14
358.28,-3.40,0.72,-3.41,0.71,-0.72,-1.20,-0.94,-4.12,-4.13,-4.12
361.87,-3.40,0.71,-3.39,0.71,-0.72,-1.20,-0.93,-4.12,-4.11,-4.10
365.49,-3.36,0.73,-3.36,0.73,-0.73,-1.20,-0.92,-4.09,-4.09,-4.08
369.14,-3.35,0.73,-3.34,0.73,-0.73,-1.20,-0.91,-4.08,-4.07,-4.07
372.83,-3.31,0.75,-3.32,0.74,-0.73,-1.20,-0.90,-4.04,-4.05,-4.06
376.56,-3.31,0.74,-3.30,0.74,-0.72,-1.20,-0.90,-4.03,-4.03,-4.05
380.33,-3.31,0.71,-3.30,0.72,-0.70,-1.20,-0.89,-4.01,-4.01,-4.02
384.13,-3.31,0.70,-3.32,0.69,-0.68,-1.20,-0.89,-3.98,-3.99,-4.01
387.97,-3.35,0.65,-3.34,0.65,-0.64,-1.19,-0.88,-3.99,-3.98,-4.00
391.85,-3.38,0.61,-3.38,0.61,-0.60,-1.19,-0.88,-3.98,-3.98,-3.99
395.77,-3.43,0.54,-3.42,0.55,-0.55,-1.19,-0.88,-3.98,-3.98,-3.97
399.73,-3.46,0.50,-3.45,0.51,-0.51,-1.19,-0.88,-3.97,-3.97,-3.96
403.72,-3.49,0.46,-3.49,0.46,-0.47,-1.19,-0.88,-3.96,-3.96,-3.95
407.76,-3.50,0.45,-3.51,0.43,-0.44,-1.19,-0.88,-3.94,-3.95,-3.94
411.84,-3.54,0.39,-3.51,0.41,-0.43,-1.18,-0.87,-3.96,-3.94,-3.92
415.96,-3.49,0.43,-3.50,0.41,-0.42,-1.18,-0.88,-3.91,-3.92,-3.91
420.12,-3.49,0.42,-3.48,0.42,-0.42,-1.18,-0.88,-3.91,-3.91,-3.90
424.32,-3.45,0.45,-3.45,0.44,-0.44,-1.18,-0.88,-3.89,-3.89,-3.90
428.56,-3.42,0.47,-3.42,0.47,-0.47,-1.18,-0.88,-3.89,-3.89,-3.89
432.85,-3.38,0.50,-3.37,0.51,-0.51,-1.17,-0.88,-3.89,-3.88,-3.88
437.18,-3.31,0.56,-3.32,0.55,-0.56,-1.17,-0.88,-3.87,-3.87,-3.87
