frequency,raw,error,smoothed,error_smoothed,equalization,parametric_eq,equalized_raw,equalized_smoothed,target
20,-9.15,-12.21,-9.20,-12.26,6.00,2.41,-3.15,-3.20,3.06
21,-8.81,-11.87,-8.77,-11.83,6.00,2.76,-2.81,-2.77,3.06
22,-8.39,-11.45,-8.36,-11.42,6.00,3.16,-2.39,-2.36,3.06
23,-8.00,-11.06,-7.99,-11.04,6.00,3.58,-2.00,-1.99,3.06
24,-7.65,-10.70,-7.64,-10.69,6.00,4.02,-1.65,-1.64,3.05
25,-7.32,-10.37,-7.31,-10.36,6.00,4.48,-1.32,-1.31,3.05
26,-6.99,-10.04,-7.02,-10.06,6.00,4.95,-0.99,-1.02,3.05
27,-6.69,-9.73,-6.75,-9.80,6.00,5.39,-0.69,-0.75,3.04
28,-6.45,-9.49,-6.51,-9.55,6.00,5.79,-0.45,-0.51,3.04
29,-6.23,-9.26,-6.30,-9.34,6.00,6.13,-0.23,-0.30,3.04
30,-6.09,-9.12,-6.12,-9.15,6.00,6.40,-0.09,-0.12,3.03
31,-5.94,-8.96,-5.95,-8.98,6.00,6.58,0.06,0.05,3.03
32,-5.83,-8.85,-5.81,-8.83,6.00,6.67,0.17,0.19,3.02
33,-5.73,-8.74,-5.68,-8.69,6.00,6.69,0.27,0.32,3.01
34,-5.64,-8.65,-5.57,-8.57,6.00,6.65,0.36,0.43,3.01
35,-5.55,-8.55,-5.47,-8.47,6.00,6.57,0.45,0.53,3.00
36,-5.44,-8.43,-5.39,-8.38,6.00,6.48,0.56,0.61,2.99
37,-5.36,-8.34,-5.31,-8.30,6.00,6.38,0.64,0.69,2.98
38,-5.27,-8.24,-5.25,-8.23,6.00,6.28,0.73,0.75,2.97
39,-5.18,-8.14,-5.21,-8.17,6.00,6.20,0.82,0.79,2.96
40,-5.13,-8.08,-5.17,-8.12,6.00,6.14,0.87,0.83,2.95
41,-5.09,-8.03,-5.15,-8.09,6.00,6.10,0.91,0.85,2.94
42,-5.04,-7.97,-5.14,-8.07,6.00,6.09,0.96,0.86,2.93
43,-5.04,-7.95,-5.14,-8.05,6.00,6.10,0.96,0.86,2.92
44,-5.09,-7.99,-5.15,-8.05,6.00,6.14,0.91,0.85,2.90
45,-5.13,-8.02,-5.16,-8.04,6.00,6.20,0.87,0.84,2.89
46,-5.18,-8.05,-5.17,-8.04,6.00,6.28,0.82,0.83,2.87
47,-5.23,-8.08,-5.18,-8.04,6.00,6.38,0.77,0.82,2.86
48,-5.27,-8.11,-5.19,-8.03,6.00,6.50,0.73,0.81,2.84
49,-5.32,-8.14,-5.19,-8.01,6.00,6.64,0.68,0.81,2.82
50,-5.32,-8.12,-5.18,-7.98,6.00,6.78,0.68,0.82,2.80
51,-5.27,-8.05,-5.16,-7.94,6.00,6.94,0.73,0.84,2.78
52,-5.23,-7.99,-5.13,-7.89,6.00,7.09,0.77,0.87,2.76
53,-5.15,-7.89,-5.10,-7.84,6.00,7.25,0.85,0.90,2.74
54,-5.07,-7.79,-5.06,-7.78,6.00,7.40,0.93,0.94,2.72
55,-4.99,-7.68,-5.03,-7.72,6.00,7.54,1.01,0.97,2.69
56,-4.95,-7.62,-5.00,-7.67,6.00,7.67,1.05,1.00,2.67
57,-4.90,-7.54,-4.98,-7.63,6.00,7.77,1.10,1.02,2.64
58,-4.90,-7.52,-4.98,-7.60,6.00,7.85,1.10,1.02,2.62
59,-4.90,-7.49,-4.99,-7.58,6.00,7.89,1.10,1.01,2.59
60,-4.96,-7.52,-5.03,-7.59,6.00,7.90,1.04,0.97,2.56
61,-5.04,-7.57,-5.08,-7.61,6.00,7.87,0.96,0.92,2.53
62,-5.14,-7.64,-5.15,-7.66,6.00,7.79,0.86,0.85,2.50
63,-5.27,-7.74,-5.25,-7.73,6.00,7.68,0.73,0.75,2.47
64,-5.40,-7.84,-5.37,-7.81,6.00,7.53,0.60,0.63,2.44
65,-5.54,-7.95,-5.52,-7.93,6.00,7.34,0.46,0.48,2.41
66,-5.69,-8.06,-5.68,-8.06,6.00,7.13,0.31,0.32,2.38
67,-5.83,-8.17,-5.86,-8.21,6.00,6.88,0.17,0.14,2.34
68,-5.99,-8.30,-6.06,-8.37,6.00,6.61,0.01,-0.06,2.31
69,-6.15,-8.42,-6.27,-8.55,6.00,6.32,-0.15,-0.27,2.27
70,-6.33,-8.57,-6.49,-8.73,6.00,6.02,-0.33,-0.49,2.24
71,-6.51,-8.71,-6.70,-8.90,6.00,5.71,-0.51,-0.70,2.20
72,-6.73,-8.89,-6.91,-9.07,6.00,5.39,-0.73,-0.91,2.16
73,-6.94,-9.06,-7.08,-9.21,6.00,5.06,-0.94,-1.08,2.12
74,-7.19,-9.28,-7.22,-9.31,6.00,4.73,-1.19,-1.22,2.09
75,-7.39,-9.44,-7.31,-9.36,6.00,4.40,-1.39,-1.31,2.05
76,-7.56,-9.57,-7.35,-9.35,6.00,4.08,-1.56,-1.35,2.01
77,-7.65,-9.62,-7.31,-9.28,6.00,3.75,-1.65,-1.31,1.97
78,-7.60,-9.53,-7.19,-9.12,6.00,3.43,-1.60,-1.19,1.93
79,-7.38,-9.27,-7.00,-8.89,6.00,3.11,-1.38,-1.00,1.89
80,-7.03,-8.88,-6.73,-8.58,6.00,2.79,-1.03,-0.73,1.85
81,-6.56,-8.37,-6.38,-8.19,6.00,2.48,-0.56,-0.38,1.81
82,-6.02,-7.78,-5.96,-7.73,6.00,2.17,-0.02,0.04,1.77
83,-5.41,-7.13,-5.49,-7.21,6.00,1.87,0.59,0.51,1.72
84,-4.81,-6.49,-4.96,-6.64,5.87,1.57,1.06,0.91,1.68
85,-4.20,-5.84,-4.40,-6.04,5.59,1.27,1.39,1.19,1.64
86,-3.59,-5.19,-3.81,-5.41,5.16,0.98,1.57,1.35,1.60
87,-3.03,-4.59,-3.21,-4.77,4.64,0.69,1.62,1.43,1.56
88,-2.47,-3.99,-2.60,-4.12,4.08,0.41,1.61,1.48,1.52
89,-1.90,-3.37,-1.98,-3.46,3.46,0.13,1.56,1.48,1.47
90,-1.35,-2.78,-1.37,-2.80,2.80,-0.15,1.45,1.43,1.43
91,-0.75,-2.14,-0.75,-2.14,2.14,-0.42,1.39,1.39,1.39
92,-0.17,-1.52,-0.13,-1.48,1.48,-0.69,1.31,1.35,1.35
93,0.41,-0.90,0.49,-0.82,0.82,-0.96,1.23,1.31,1.31
94,1.03,-0.24,1.11,-0.16,0.16,-1.23,1.19,1.27,1.27
95,1.64,0.41,1.74,0.51,-0.51,-1.49,1.13,1.23,1.23
96,2.29,1.10,2.36,1.18,-1.18,-1.75,1.12,1.19,1.19
97,2.92,1.77,2.99,1.84,-1.84,-2.01,1.08,1.15,1.15
98,3.55,2.44,3.61,2.50,-2.50,-2.26,1.05,1.11,1.11
99,4.15,3.08,4.22,3.16,-3.16,-2.51,1.00,1.06,1.07
100,4.75,3.72,4.81,3.79,-3.79,-2.76,0.96,1.02,1.03
101,5.30,4.31,5.38,4.40,-4.40,-3.00,0.90,0.98,0.99
102,5.82,4.87,5.91,4.97,-4.97,-3.24,0.85,0.94,0.96
104,6.72,5.84,6.41,5.51,-5.51,-3.71,1.21,0.90,0.88
105,7.09,6.25,6.85,5.99,-5.99,-3.94,1.10,0.86,0.85
106,7.43,6.62,7.25,6.43,-6.43,-4.17,1.00,0.82,0.81
107,7.71,6.94,7.59,6.81,-6.81,-4.39,0.90,0.78,0.77
108,7.94,7.20,7.87,7.13,-7.13,-4.60,0.81,0.74,0.74
109,8.11,7.41,8.10,7.39,-7.39,-4.81,0.72,0.71,0.70
110,8.26,7.59,8.27,7.60,-7.60,-5.01,0.66,0.67,0.67
111,8.39,7.75,8.39,7.76,-7.76,-5.20,0.64,0.63,0.64
112,8.44,7.84,8.46,7.86,-7.86,-5.39,0.58,0.60,0.60
113,8.49,7.92,8.49,7.93,-7.93,-5.57,0.57,0.56,0.57
114,8.49,7.95,8.48,7.95,-7.95,-5.74,0.54,0.53,0.54
115,8.45,7.94,8.43,7.94,-7.94,-5.90,0.51,0.50,0.51
117,8.33,7.88,8.36,7.90,-7.90,-6.19,0.43,0.46,0.45
118,8.22,7.80,8.26,7.84,-7.84,-6.32,0.38,0.43,0.42
119,8.14,7.75,8.14,7.75,-7.75,-6.44,0.39,0.39,0.39
120,8.01,7.65,8.01,7.65,-7.65,-6.54,0.36,0.36,0.36
121,7.90,7.57,7.86,7.53,-7.53,-6.64,0.37,0.33,0.33
123,7.62,7.34,7.70,7.41,-7.41,-6.80,0.22,0.29,0.28
124,7.49,7.24,7.53,7.27,-7.27,-6.86,0.22,0.26,0.25
125,7.34,7.11,7.35,7.12,-7.12,-6.91,0.22,0.23,0.23
126,7.20,7.00,7.17,6.98,-6.98,-6.95,0.22,0.20,0.20
128,6.92,6.77,6.99,6.83,-6.83,-6.99,0.10,0.17,0.16
129,6.79,6.66,6.81,6.67,-6.67,-7.00,0.12,0.14,0.13
130,6.67,6.56,6.63,6.52,-6.52,-7.00,0.15,0.11,0.11
131,6.52,6.43,6.45,6.38,-6.38,-6.99,0.14,0.08,0.09
133,6.26,6.22,6.28,6.24,-6.24,-6.95,0.03,0.05,0.04
134,6.12,6.10,6.12,6.10,-6.10,-6.91,0.02,0.02,0.02
135,6.00,6.00,5.97,5.98,-5.98,-6.87,0.02,-0.01,0.00
137,5.78,5.82,5.83,5.86,-5.86,-6.78,-0.08,-0.03,-0.04
138,5.66,5.72,5.70,5.76,-5.76,-6.72,-0.10,-0.06,-0.06
140,5.50,5.60,5.59,5.68,-5.68,-6.60,-0.18,-0.09,-0.09
141,5.40,5.51,5.49,5.60,-5.60,-6.54,-0.20,-0.11,-0.11
142,5.34,5.47,5.40,5.54,-5.54,-6.47,-0.20,-0.14,-0.13
144,5.27,5.44,5.32,5.48,-5.48,-6.33,-0.21,-0.16,-0.16
145,5.25,5.43,5.26,5.44,-5.44,-6.26,-0.19,-0.18,-0.18
147,5.22,5.43,5.19,5.40,-5.40,-6.11,-0.18,-0.21,-0.21
148,5.19,5.42,5.14,5.37,-5.37,-6.04,-0.18,-0.23,-0.23
150,5.12,5.38,5.08,5.33,-5.33,-5.89,-0.21,-0.25,-0.26
151,5.10,5.37,5.03,5.30,-5.30,-5.81,-0.20,-0.27,-0.27
153,5.00,5.30,4.97,5.26,-5.26,-5.67,-0.26,-0.29,-0.30
154,4.95,5.26,4.91,5.22,-5.22,-5.59,-0.27,-0.31,-0.31
156,4.85,5.19,4.84,5.18,-5.18,-5.45,-0.32,-0.33,-0.34
157,4.79,5.14,4.77,5.12,-5.12,-5.38,-0.33,-0.35,-0.35
159,4.70,5.07,4.70,5.07,-5.07,-5.25,-0.37,-0.37,-0.37
160,4.63,5.02,4.62,5.01,-5.01,-5.19,-0.38,-0.39,-0.38
162,4.53,4.94,4.54,4.95,-4.95,-5.06,-0.42,-0.41,-0.41
164,4.42,4.85,4.46,4.88,-4.88,-4.94,-0.46,-0.42,-0.43
165,4.38,4.82,4.38,4.82,-4.82,-4.88,-0.44,-0.44,-0.44
167,4.29,4.75,4.30,4.76,-4.76,-4.77,-0.47,-0.46,-0.46
169,4.19,4.67,4.22,4.69,-4.69,-4.66,-0.50,-0.47,-0.48
170,4.15,4.64,4.15,4.63,-4.63,-4.61,-0.48,-0.49,-0.48
172,4.06,4.56,4.07,4.57,-4.57,-4.51,-0.51,-0.50,-0.50
174,3.99,4.51,4.00,4.52,-4.52,-4.42,-0.53,-0.52,-0.52
175,3.95,4.48,3.93,4.46,-4.46,-4.38,-0.51,-0.53,-0.53
177,3.87,4.41,3.86,4.41,-4.41,-4.30,-0.54,-0.54,-0.54
179,3.80,4.36,3.80,4.36,-4.36,-4.22,-0.56,-0.56,-0.56
181,3.72,4.29,3.74,4.31,-4.31,-4.14,-0.59,-0.57,-0.57
183,3.66,4.25,3.67,4.26,-4.26,-4.08,-0.60,-0.58,-0.59
184,3.63,4.22,3.61,4.21,-4.21,-4.04,-0.58,-0.60,-0.59
186,3.56,4.17,3.55,4.16,-4.16,-3.98,-0.60,-0.61,-0.61
188,3.49,4.11,3.49,4.11,-4.11,-3.92,-0.62,-0.62,-0.62
190,3.43,4.06,3.44,4.07,-4.07,-3.87,-0.64,-0.63,-0.63
192,3.38,4.02,3.38,4.02,-4.02,-3.82,-0.64,-0.64,-0.64
194,3.33,3.98,3.32,3.97,-3.97,-3.78,-0.64,-0.65,-0.65
196,3.27,3.93,3.26,3.93,-3.93,-3.73,-0.66,-0.66,-0.66
198,3.20,3.88,3.21,3.88,-3.88,-3.69,-0.68,-0.67,-0.67
200,3.15,3.83,3.15,3.84,-3.84,-3.66,-0.69,-0.68,-0.68
202,3.10,3.79,3.10,3.79,-3.79,-3.62,-0.69,-0.69,-0.69
204,3.05,3.75,3.05,3.75,-3.75,-3.59,-0.70,-0.70,-0.70
206,3.00,3.71,3.00,3.71,-3.71,-3.56,-0.71,-0.71,-0.71
208,2.94,3.66,2.95,3.67,-3.67,-3.54,-0.72,-0.72,-0.72
210,2.90,3.63,2.90,3.62,-3.62,-3.51,-0.72,-0.73,-0.73
212,2.85,3.58,2.85,3.59,-3.59,-3.49,-0.73,-0.73,-0.73
214,2.80,3.54,2.81,3.55,-3.55,-3.46,-0.75,-0.74,-0.74
216,2.77,3.51,2.77,3.51,-3.51,-3.44,-0.74,-0.74,-0.74
218,2.72,3.47,2.73,3.47,-3.47,-3.42,-0.75,-0.75,-0.75
221,2.67,3.42,2.69,3.44,-3.44,-3.39,-0.77,-0.75,-0.75
223,2.64,3.40,2.65,3.40,-3.40,-3.37,-0.76,-0.75,-0.75
225,2.61,3.37,2.62,3.37,-3.37,-3.35,-0.76,-0.75,-0.76
227,2.59,3.35,2.58,3.34,-3.34,-3.33,-0.75,-0.76,-0.76
229,2.56,3.32,2.55,3.30,-3.30,-3.31,-0.74,-0.76,-0.75
232,2.52,3.28,2.51,3.27,-3.27,-3.27,-0.74,-0.75,-0.76
234,2.47,3.22,2.48,3.23,-3.23,-3.25,-0.76,-0.75,-0.75
236,2.45,3.20,2.44,3.19,-3.19,-3.23,-0.74,-0.75,-0.75
239,2.40,3.15,2.41,3.15,-3.15,-3.19,-0.75,-0.75,-0.75
241,2.38,3.12,2.37,3.11,-3.11,-3.17,-0.73,-0.74,-0.74
244,2.33,3.07,2.33,3.07,-3.07,-3.13,-0.74,-0.73,-0.74
246,2.29,3.02,2.29,3.02,-3.02,-3.10,-0.73,-0.73,-0.73
248,2.27,2.99,2.26,2.98,-2.98,-3.07,-0.71,-0.72,-0.72
251,2.21,2.92,2.22,2.93,-2.93,-3.03,-0.72,-0.71,-0.71
253,2.18,2.88,2.18,2.88,-2.88,-3.00,-0.70,-0.70,-0.70
256,2.14,2.83,2.14,2.83,-2.83,-2.95,-0.69,-0.69,-0.69
259,2.10,2.78,2.10,2.78,-2.78,-2.90,-0.68,-0.68,-0.68
261,2.06,2.73,2.07,2.73,-2.73,-2.86,-0.67,-0.67,-0.67
264,2.02,2.67,2.03,2.68,-2.68,-2.81,-0.66,-0.65,-0.65
266,2.00,2.64,1.99,2.63,-2.63,-2.77,-0.63,-0.64,-0.64
269,1.96,2.59,1.96,2.58,-2.58,-2.71,-0.62,-0.63,-0.63
272,1.91,2.52,1.92,2.53,-2.53,-2.65,-0.62,-0.61,-0.61
274,1.89,2.49,1.89,2.48,-2.48,-2.61,-0.59,-0.60,-0.59
277,1.85,2.43,1.85,2.43,-2.43,-2.55,-0.58,-0.58,-0.58
280,1.82,2.38,1.82,2.38,-2.38,-2.49,-0.56,-0.56,-0.56
283,1.77,2.32,1.78,2.33,-2.33,-2.42,-0.56,-0.55,-0.55
286,1.75,2.28,1.75,2.28,-2.28,-2.36,-0.53,-0.53,-0.53
288,1.72,2.23,1.72,2.23,-2.23,-2.32,-0.51,-0.51,-0.51
291,1.68,2.17,1.69,2.18,-2.18,-2.25,-0.50,-0.49,-0.49
294,1.66,2.13,1.66,2.13,-2.13,-2.19,-0.47,-0.47,-0.47
297,1.63,2.08,1.63,2.08,-2.08,-2.13,-0.45,-0.45,-0.45
300,1.60,2.03,1.60,2.03,-2.03,-2.07,-0.43,-0.43,-0.43
303,1.57,1.98,1.57,1.98,-1.98,-2.00,-0.41,-0.41,-0.41
306,1.54,1.93,1.53,1.93,-1.93,-1.94,-0.39,-0.39,-0.39
309,1.51,1.88,1.50,1.88,-1.88,-1.88,-0.37,-0.37,-0.37
312,1.48,1.83,1.47,1.82,-1.82,-1.82,-0.34,-0.35,-0.35
316,1.43,1.76,1.44,1.77,-1.77,-1.75,-0.34,-0.33,-0.33
319,1.40,1.71,1.41,1.72,-1.72,-1.69,-0.32,-0.31,-0.31
322,1.38,1.67,1.38,1.67,-1.67,-1.64,-0.29,-0.29,-0.29
325,1.35,1.62,1.35,1.62,-1.62,-1.58,-0.27,-0.27,-0.27
328,1.30,1.55,1.32,1.57,-1.57,-1.53,-0.26,-0.25,-0.25
332,1.28,1.51,1.29,1.51,-1.51,-1.46,-0.23,-0.23,-0.23
335,1.26,1.47,1.26,1.46,-1.46,-1.41,-0.20,-0.21,-0.21
338,1.23,1.42,1.23,1.42,-1.42,-1.36,-0.18,-0.19,-0.19
342,1.21,1.38,1.20,1.37,-1.37,-1.29,-0.16,-0.17,-0.17
345,1.16,1.31,1.17,1.32,-1.32,-1.25,-0.16,-0.15,-0.15
349,1.15,1.28,1.14,1.27,-1.27,-1.18,-0.12,-0.13,-0.13
352,1.12,1.23,1.12,1.23,-1.23,-1.14,-0.11,-0.11,-0.11
356,1.08,1.17,1.09,1.19,-1.19,-1.08,-0.10,-0.09,-0.09
359,1.07,1.15,1.06,1.14,-1.14,-1.04,-0.07,-0.08,-0.08
363,1.02,1.08,1.04,1.10,-1.10,-0.98,-0.08,-0.06,-0.06
366,1.02,1.07,1.01,1.06,-1.06,-0.94,-0.04,-0.05,-0.05
370,0.98,1.01,0.99,1.02,-1.02,-0.89,-0.04,-0.03,-0.03
374,0.98,1.00,0.96,0.98,-0.98,-0.84,-0.00,-0.02,-0.02
377,0.93,0.93,0.94,0.94,-0.94,-0.80,-0.01,-0.00,-0.00
381,0.92,0.91,0.91,0.91,-0.91,-0.75,0.01,0.01,0.01
385,0.88,0.86,0.89,0.87,-0.87,-0.70,0.01,0.02,0.02
389,0.87,0.84,0.86,0.83,-0.83,-0.66,0.04,0.03,0.03
393,0.84,0.80,0.84,0.80,-0.80,-0.61,0.04,0.04,0.04
397,0.81,0.76,0.81,0.77,-0.77,-0.57,0.04,0.05,0.05
401,0.79,0.73,0.79,0.73,-0.73,-0.53,0.06,0.06,0.06
405,0.76,0.70,0.77,0.70,-0.70,-0.48,0.06,0.07,0.07
409,0.74,0.67,0.74,0.67,-0.67,-0.44,0.07,0.07,0.07
413,0.71,0.63,0.72,0.64,-0.64,-0.40,0.08,0.08,0.08
417,0.70,0.61,0.69,0.60,-0.60,-0.37,0.10,0.09,0.09
421,0.66,0.57,0.67,0.57,-0.57,-0.33,0.09,0.10,0.10
425,0.65,0.55,0.64,0.54,-0.54,-0.29,0.11,0.10,0.10
430,0.60,0.49,0.62,0.51,-0.51,-0.25,0.09,0.11,0.11
434,0.60,0.48,0.59,0.48,-0.48,-0.21,0.13,0.12,0.12
438,0.56,0.44,0.57,0.44,-0.44,-0.18,0.12,0.13,0.13
443,0.56,0.43,0.54,0.41,-0.41,-0.14,0.15,0.13,0.13
447,0.51,0.37,0.52,0.38,-0.38,-0.11,0.14,0.14,0.14
451,0.51,0.36,0.49,0.34,-0.34,-0.08,0.17,0.15,0.15
456,0.46,0.30,0.47,0.30,-0.30,-0.05,0.16,0.16,0.16
460,0.45,0.28,0.44,0.27,-0.27,-0.02,0.18,0.17,0.17
465,0.42,0.24,0.42,0.23,-0.23,0.01,0.19,0.18,0.18
470,0.37,0.17,0.39,0.19,-0.19,0.04,0.18,0.20,0.20
474,0.37,0.16,0.36,0.15,-0.15,0.07,0.22,0.21,0.21
479,0.32,0.10,0.34,0.12,-0.12,0.10,0.21,0.22,0.22
484,0.32,0.08,0.31,0.08,-0.08,0.12,0.25,0.24,0.24
489,0.28,0.03,0.29,0.04,-0.04,0.15,0.25,0.25,0.25
494,0.27,0.00,0.26,-0.00,0.00,0.17,0.28,0.27,0.27
499,0.23,-0.05,0.24,-0.05,0.05,0.19,0.28,0.28,0.28
504,0.23,-0.07,0.21,-0.09,0.09,0.22,0.32,0.30,0.30
509,0.18,-0.14,0.19,-0.13,0.13,0.24,0.31,0.32,0.32
514,0.17,-0.17,0.17,-0.17,0.17,0.26,0.34,0.34,0.34
519,0.14,-0.21,0.14,-0.21,0.21,0.27,0.35,0.36,0.36
524,0.13,-0.24,0.12,-0.25,0.25,0.29,0.39,0.38,0.37
529,0.09,-0.30,0.10,-0.30,0.30,0.31,0.39,0.39,0.39
535,0.09,-0.32,0.08,-0.34,0.34,0.32,0.43,0.41,0.41
540,0.04,-0.39,0.05,-0.38,0.38,0.34,0.42,0.43,0.43
545,0.04,-0.41,0.03,-0.42,0.42,0.35,0.46,0.45,0.45
551,0.00,-0.47,0.01,-0.46,0.46,0.37,0.46,0.48,0.48
556,0.00,-0.49,-0.01,-0.50,0.50,0.38,0.50,0.50,0.50
562,-0.03,-0.54,-0.02,-0.54,0.54,0.39,0.51,0.52,0.52
568,-0.05,-0.58,-0.04,-0.58,0.58,0.40,0.53,0.54,0.54
573,-0.05,-0.60,-0.06,-0.62,0.62,0.42,0.57,0.56,0.56
579,-0.08,-0.65,-0.08,-0.65,0.65,0.43,0.57,0.57,0.58
585,-0.10,-0.69,-0.09,-0.69,0.69,0.44,0.59,0.59,0.59
591,-0.10,-0.71,-0.11,-0.72,0.72,0.45,0.62,0.61,0.61
596,-0.11,-0.74,-0.12,-0.75,0.75,0.46,0.64,0.63,0.63
602,-0.14,-0.79,-0.13,-0.78,0.78,0.47,0.64,0.65,0.65
608,-0.14,-0.81,-0.14,-0.81,0.81,0.48,0.67,0.67,0.67
615,-0.14,-0.82,-0.15,-0.83,0.83,0.50,0.70,0.68,0.68
621,-0.17,-0.87,-0.16,-0.86,0.86,0.51,0.69,0.70,0.70
627,-0.19,-0.90,-0.17,-0.88,0.88,0.52,0.69,0.71,0.71
633,-0.19,-0.92,-0.18,-0.91,0.91,0.53,0.72,0.73,0.73
639,-0.19,-0.93,-0.18,-0.93,0.93,0.55,0.74,0.74,0.74
646,-0.19,-0.95,-0.19,-0.95,0.95,0.56,0.76,0.76,0.76
652,-0.19,-0.96,-0.20,-0.96,0.96,0.57,0.78,0.77,0.77
659,-0.19,-0.97,-0.20,-0.98,0.98,0.59,0.79,0.78,0.78
665,-0.19,-0.98,-0.21,-1.00,1.00,0.60,0.81,0.79,0.79
672,-0.21,-1.01,-0.21,-1.02,1.02,0.62,0.81,0.80,0.80
679,-0.21,-1.02,-0.21,-1.03,1.03,0.63,0.82,0.82,0.82
686,-0.22,-1.04,-0.22,-1.04,1.04,0.65,0.82,0.83,0.83
692,-0.23,-1.06,-0.22,-1.06,1.06,0.67,0.83,0.84,0.84
699,-0.23,-1.07,-0.22,-1.07,1.07,0.68,0.84,0.84,0.84
706,-0.23,-1.08,-0.22,-1.08,1.08,0.70,0.85,0.85,0.85
713,-0.23,-1.09,-0.22,-1.09,1.09,0.72,0.86,0.86,0.86
721,-0.23,-1.10,-0.22,-1.09,1.09,0.74,0.87,0.87,0.87
728,-0.23,-1.11,-0.22,-1.10,1.10,0.76,0.87,0.88,0.88
735,-0.23,-1.12,-0.22,-1.11,1.11,0.78,0.88,0.89,0.89
742,-0.23,-1.12,-0.22,-1.11,1.11,0.80,0.88,0.89,0.89
750,-0.21,-1.11,-0.21,-1.11,1.11,0.83,0.91,0.90,0.90
757,-0.21,-1.12,-0.21,-1.12,1.12,0.85,0.91,0.91,0.91
765,-0.19,-1.10,-0.21,-1.12,1.12,0.87,0.93,0.91,0.91
773,-0.19,-1.11,-0.21,-1.13,1.13,0.90,0.94,0.92,0.92
780,-0.19,-1.11,-0.20,-1.13,1.13,0.92,0.94,0.92,0.92
788,-0.19,-1.12,-0.20,-1.13,1.13,0.94,0.94,0.93,0.93
796,-0.19,-1.12,-0.20,-1.13,1.13,0.97,0.94,0.93,0.93
804,-0.19,-1.13,-0.20,-1.14,1.14,0.99,0.95,0.94,0.94
812,-0.23,-1.17,-0.20,-1.14,1.14,1.02,0.91,0.94,0.94
820,-0.23,-1.17,-0.19,-1.14,1.14,1.04,0.91,0.94,0.94
828,-0.23,-1.18,-0.19,-1.14,1.14,1.06,0.91,0.95,0.95
837,-0.19,-1.14,-0.18,-1.13,1.13,1.09,0.94,0.95,0.95
845,-0.19,-1.14,-0.18,-1.13,1.13,1.11,0.94,0.95,0.95
853,-0.14,-1.10,-0.17,-1.13,1.13,1.13,0.99,0.96,0.96
862,-0.14,-1.10,-0.17,-1.12,1.12,1.16,0.99,0.96,0.96
871,-0.14,-1.10,-0.16,-1.12,1.12,1.18,0.98,0.96,0.96
879,-0.14,-1.11,-0.15,-1.12,1.12,1.20,0.98,0.97,0.97
888,-0.14,-1.11,-0.15,-1.12,1.12,1.22,0.98,0.97,0.97
897,-0.14,-1.11,-0.14,-1.12,1.12,1.24,0.98,0.98,0.98
906,-0.14,-1.12,-0.14,-1.12,1.12,1.25,0.98,0.98,0.98
915,-0.14,-1.13,-0.13,-1.12,1.12,1.27,0.98,0.99,0.99
924,-0.14,-1.13,-0.13,-1.12,1.12,1.28,0.98,0.99,0.99
933,-0.14,-1.14,-0.12,-1.12,1.12,1.29,0.98,1.00,1.00
943,-0.10,-1.11,-0.11,-1.12,1.12,1.30,1.02,1.01,1.01
952,-0.10,-1.12,-0.10,-1.12,1.12,1.31,1.02,1.02,1.02
962,-0.10,-1.13,-0.08,-1.12,1.12,1.31,1.02,1.04,1.03
971,-0.05,-1.10,-0.07,-1.11,1.11,1.31,1.07,1.05,1.05
981,-0.05,-1.11,-0.04,-1.11,1.11,1.31,1.06,1.06,1.06
991,-0.01,-1.09,-0.02,-1.10,1.10,1.31,1.09,1.08,1.08
1001,0.00,-1.10,0.01,-1.08,1.08,1.30,1.08,1.10,1.10
1011,0.04,-1.07,0.05,-1.07,1.07,1.29,1.11,1.12,1.12
1021,0.09,-1.05,0.09,-1.05,1.05,1.28,1.14,1.14,1.14
1031,0.12,-1.04,0.14,-1.02,1.02,1.27,1.14,1.16,1.16
1041,0.18,-1.00,0.19,-1.00,1.00,1.25,1.18,1.18,1.18
1052,0.24,-0.97,0.24,-0.97,0.97,1.23,1.21,1.21,1.21
1062,0.30,-0.93,0.30,-0.93,0.93,1.21,1.23,1.23,1.23
1073,0.36,-0.90,0.36,-0.90,0.90,1.18,1.26,1.26,1.26
1084,0.41,-0.88,0.43,-0.86,0.86,1.15,1.27,1.29,1.29
1094,0.49,-0.83,0.50,-0.82,0.82,1.13,1.31,1.32,1.32
1105,0.57,-0.78,0.58,-0.78,0.78,1.10,1.35,1.35,1.35
1116,0.65,-0.74,0.65,-0.73,0.73,1.06,1.38,1.39,1.39
1128,0.75,-0.67,0.73,-0.69,0.69,1.02,1.44,1.42,1.42
1139,0.82,-0.64,0.81,-0.65,0.65,0.99,1.47,1.46,1.46
1150,0.90,-0.60,0.89,-0.61,0.61,0.95,1.51,1.50,1.50
1162,0.98,-0.56,0.97,-0.57,0.57,0.91,1.55,1.54,1.54
1173,1.04,-0.54,1.04,-0.53,0.53,0.87,1.58,1.58,1.58
1185,1.11,-0.51,1.12,-0.50,0.50,0.83,1.61,1.62,1.62
1197,1.19,-0.48,1.19,-0.47,0.47,0.78,1.66,1.67,1.67
1209,1.27,-0.44,1.27,-0.45,0.45,0.74,1.72,1.71,1.71
1221,1.34,-0.42,1.34,-0.43,0.43,0.70,1.77,1.76,1.76
1233,1.42,-0.39,1.40,-0.41,0.41,0.65,1.83,1.81,1.81
1246,1.49,-0.37,1.47,-0.40,0.40,0.60,1.89,1.86,1.86
1258,1.55,-0.37,1.53,-0.39,0.39,0.56,1.94,1.92,1.92
1271,1.61,-0.36,1.60,-0.38,0.38,0.51,1.99,1.97,1.97
1283,1.65,-0.38,1.66,-0.37,0.37,0.47,2.02,2.03,2.03
1296,1.70,-0.39,1.72,-0.37,0.37,0.42,2.07,2.09,2.09
1309,1.77,-0.38,1.78,-0.37,0.37,0.37,2.14,2.15,2.15
1322,1.84,-0.37,1.85,-0.36,0.36,0.32,2.20,2.21,2.21
1335,1.90,-0.37,1.91,-0.36,0.36,0.27,2.26,2.27,2.27
1349,1.98,-0.36,1.98,-0.36,0.36,0.22,2.34,2.34,2.34
1362,2.05,-0.35,2.05,-0.35,0.35,0.18,2.40,2.40,2.40
1376,2.12,-0.35,2.13,-0.34,0.34,0.12,2.46,2.47,2.47
1390,2.20,-0.34,2.20,-0.34,0.34,0.07,2.54,2.54,2.54
1404,2.27,-0.34,2.28,-0.33,0.33,0.03,2.60,2.61,2.61
1418,2.37,-0.31,2.36,-0.32,0.32,-0.02,2.69,2.68,2.68
1432,2.43,-0.32,2.44,-0.30,0.30,-0.07,2.74,2.75,2.75
1446,2.54,-0.28,2.53,-0.29,0.29,-0.12,2.83,2.82,2.82
1461,2.65,-0.25,2.62,-0.28,0.28,-0.17,2.93,2.90,2.90
1475,2.71,-0.26,2.71,-0.26,0.26,-0.22,2.98,2.97,2.97
1490,2.82,-0.23,2.80,-0.25,0.25,-0.27,3.07,3.05,3.05
1505,2.93,-0.20,2.90,-0.23,0.23,-0.32,3.16,3.13,3.13
1520,2.99,-0.22,3.00,-0.21,0.21,-0.37,3.20,3.21,3.21
1535,3.10,-0.19,3.11,-0.18,0.18,-0.42,3.28,3.29,3.29
1550,3.20,-0.17,3.22,-0.15,0.15,-0.47,3.36,3.38,3.38
1566,3.32,-0.14,3.34,-0.12,0.12,-0.52,3.44,3.46,3.46
1582,3.45,-0.10,3.47,-0.08,0.08,-0.57,3.53,3.55,3.55
1597,3.58,-0.06,3.60,-0.04,0.04,-0.61,3.62,3.64,3.64
1613,3.71,-0.02,3.74,0.01,-0.01,-0.66,3.70,3.73,3.73
1629,3.87,0.04,3.89,0.06,-0.06,-0.71,3.81,3.83,3.83
1646,4.05,0.13,4.05,0.12,-0.12,-0.75,3.93,3.93,3.93
1662,4.21,0.18,4.21,0.19,-0.19,-0.80,4.03,4.03,4.03
1679,4.38,0.25,4.38,0.25,-0.25,-0.84,4.13,4.13,4.13
1696,4.56,0.32,4.56,0.32,-0.32,-0.88,4.24,4.24,4.24
1713,4.75,0.41,4.73,0.38,-0.38,-0.92,4.37,4.35,4.34
1730,4.92,0.47,4.91,0.45,-0.45,-0.96,4.47,4.46,4.46
1747,5.11,0.54,5.09,0.52,-0.52,-1.00,4.59,4.57,4.57
1764,5.28,0.60,5.27,0.59,-0.59,-1.03,4.70,4.69,4.69
1782,5.45,0.65,5.45,0.65,-0.65,-1.06,4.80,4.80,4.80
1800,5.63,0.71,5.64,0.71,-0.71,-1.08,4.92,4.92,4.92
1818,5.80,0.76,5.82,0.77,-0.77,-1.11,5.03,5.04,5.04
1836,5.98,0.81,5.99,0.83,-0.83,-1.13,5.15,5.17,5.17
1854,6.14,0.85,6.17,0.88,-0.88,-1.14,5.26,5.29,5.29
1873,6.33,0.92,6.34,0.93,-0.93,-1.15,5.40,5.41,5.41
1892,6.52,0.98,6.51,0.98,-0.98,-1.16,5.55,5.54,5.54
1911,6.68,1.02,6.68,1.01,-1.01,-1.16,5.67,5.66,5.66
