frequency,raw,error,smoothed,error_smoothed,equalization,parametric_eq,fixed_band_eq,equalized_raw,equalized_smoothed,target
20.00,4.22,-1.20,4.22,-1.20,1.20,1.20,0.19,5.43,5.43,5.43
20.20,4.24,-1.17,4.24,-1.17,1.17,1.18,0.19,5.42,5.42,5.42
20.40,4.26,-1.14,4.26,-1.15,1.15,1.16,0.20,5.41,5.41,5.41
20.61,4.28,-1.12,4.28,-1.12,1.12,1.15,0.21,5.40,5.40,5.41
20.81,4.30,-1.08,4.30,-1.09,1.09,1.13,0.21,5.39,5.39,5.39
21.02,4.32,-1.06,4.32,-1.06,1.06,1.11,0.22,5.39,5.38,5.39
21.23,4.34,-1.03,4.34,-1.04,1.03,1.10,0.23,5.38,5.38,5.38
21.44,4.36,-1.02,4.37,-1.01,1.01,1.08,0.24,5.37,5.37,5.38
21.66,4.39,-0.98,4.39,-0.98,0.98,1.06,0.24,5.37,5.37,5.37
21.87,4.41,-0.95,4.41,-0.95,0.96,1.04,0.25,5.37,5.37,5.36
22.09,4.43,-0.92,4.43,-0.92,0.93,1.03,0.26,5.36,5.36,5.35
22.31,4.45,-0.90,4.45,-0.90,0.90,1.01,0.27,5.36,5.35,5.35
22.54,4.46,-0.88,4.47,-0.88,0.88,0.99,0.28,5.34,5.34,5.34
22.76,4.48,-0.86,4.48,-0.85,0.85,0.97,0.29,5.33,5.33,5.34
22.99,4.50,-0.83,4.50,-0.83,0.82,0.95,0.30,5.32,5.32,5.33
23.22,4.53,-0.79,4.53,-0.80,0.79,0.93,0.31,5.33,5.32,5.32
23.45,4.55,-0.78,4.56,-0.77,0.77,0.92,0.32,5.32,5.33,5.33
23.69,4.58,-0.74,4.59,-0.74,0.75,0.90,0.33,5.34,5.34,5.32
23.92,4.61,-0.71,4.61,-0.72,0.74,0.88,0.34,5.35,5.35,5.32
24.16,4.62,-0.71,4.62,-0.71,0.73,0.86,0.35,5.35,5.35,5.33
24.40,4.62,-0.71,4.62,-0.71,0.71,0.84,0.36,5.33,5.33,5.34
24.65,4.62,-0.71,4.62,-0.72,0.69,0.82,0.37,5.32,5.31,5.34
24.89,4.62,-0.71,4.63,-0.71,0.67,0.80,0.38,5.30,5.30,5.34
25.14,4.65,-0.68,4.66,-0.68,0.65,0.78,0.39,5.30,5.31,5.34
25.39,4.70,-0.63,4.70,-0.63,0.63,0.76,0.40,5.33,5.33,5.34
25.65,4.75,-0.58,4.75,-0.58,0.60,0.74,0.41,5.35,5.35,5.33
25.91,4.80,-0.54,4.80,-0.55,0.58,0.72,0.42,5.38,5.37,5.34
26.16,4.82,-0.53,4.82,-0.53,0.55,0.70,0.43,5.38,5.37,5.35
26.43,4.82,-0.53,4.83,-0.53,0.54,0.68,0.44,5.36,5.36,5.35
26.69,4.82,-0.53,4.83,-0.53,0.53,0.66,0.45,5.35,5.35,5.35
26.96,4.82,-0.53,4.82,-0.53,0.52,0.63,0.46,5.35,5.35,5.35
27.23,4.82,-0.53,4.82,-0.53,0.52,0.61,0.47,5.35,5.35,5.35
27.50,4.82,-0.52,4.82,-0.53,0.52,0.59,0.48,5.34,5.34,5.35
27.77,4.82,-0.53,4.82,-0.53,0.52,0.57,0.48,5.34,5.34,5.36
28.05,4.83,-0.52,4.84,-0.52,0.50,0.55,0.49,5.34,5.34,5.35
28.33,4.85,-0.49,4.85,-0.49,0.48,0.53,0.49,5.34,5.34,5.34
28.62,4.88,-0.46,4.88,-0.46,0.46,0.50,0.50,5.34,5.34,5.34
28.90,4.91,-0.44,4.91,-0.43,0.44,0.48,0.50,5.35,5.35,5.35
29.19,4.94,-0.41,4.94,-0.40,0.41,0.46,0.50,5.35,5.35,5.35
29.48,4.97,-0.37,4.98,-0.37,0.38,0.44,0.50,5.36,5.36,5.35
29.78,5.00,-0.34,5.00,-0.35,0.36,0.42,0.50,5.36,5.36,5.35
30.08,5.02,-0.33,5.02,-0.33,0.34,0.39,0.50,5.36,5.36,5.35
30.38,5.02,-0.32,5.02,-0.32,0.32,0.37,0.50,5.35,5.35,5.34
30.68,5.02,-0.31,5.02,-0.31,0.31,0.35,0.50,5.33,5.34,5.33
30.99,5.02,-0.31,5.02,-0.30,0.30,0.32,0.49,5.32,5.32,5.33
31.30,5.02,-0.29,5.02,-0.30,0.29,0.30,0.48,5.32,5.32,5.32
31.61,5.02,-0.29,5.02,-0.29,0.29,0.28,0.47,5.31,5.31,5.32
31.93,5.02,-0.28,5.02,-0.28,0.28,0.25,0.46,5.31,5.31,5.30
32.24,5.02,-0.28,5.02,-0.28,0.28,0.23,0.45,5.30,5.30,5.30
32.57,5.02,-0.27,5.02,-0.27,0.28,0.21,0.44,5.30,5.30,5.29
32.89,5.02,-0.26,5.02,-0.26,0.27,0.18,0.42,5.29,5.29,5.29
33.22,5.02,-0.26,5.02,-0.26,0.26,0.16,0.41,5.28,5.28,5.28
33.55,5.02,-0.26,5.02,-0.27,0.25,0.14,0.39,5.27,5.27,5.28
33.89,5.02,-0.27,5.03,-0.25,0.23,0.11,0.37,5.26,5.26,5.29
34.23,5.04,-0.23,5.05,-0.23,0.22,0.09,0.35,5.26,5.27,5.28
34.57,5.08,-0.19,5.08,-0.20,0.20,0.07,0.33,5.29,5.28,5.27
34.92,5.11,-0.16,5.11,-0.17,0.19,0.04,0.31,5.30,5.29,5.27
35.27,5.12,-0.16,5.12,-0.15,0.17,0.02,0.28,5.29,5.29,5.28
35.62,5.12,-0.14,5.13,-0.14,0.15,-0.01,0.26,5.27,5.28,5.27
35.97,5.12,-0.14,5.12,-0.14,0.14,-0.03,0.23,5.26,5.26,5.26
36.33,5.12,-0.13,5.12,-0.13,0.12,-0.05,0.21,5.25,5.25,5.25
36.70,5.12,-0.11,5.12,-0.11,0.11,-0.08,0.18,5.23,5.23,5.24
37.06,5.12,-0.10,5.12,-0.10,0.09,-0.10,0.16,5.22,5.22,5.22
37.43,5.12,-0.07,5.12,-0.08,0.07,-0.13,0.13,5.20,5.20,5.20
37.81,5.12,-0.06,5.12,-0.06,0.05,-0.15,0.10,5.17,5.17,5.18
38.19,5.13,-0.03,5.13,-0.03,0.02,-0.18,0.07,5.15,5.15,5.16
38.57,5.14,0.01,5.15,0.01,-0.02,-0.20,0.04,5.12,5.13,5.14
38.95,5.16,0.05,5.16,0.06,-0.06,-0.23,0.01,5.11,5.11,5.11
39.34,5.18,0.11,5.18,0.10,-0.10,-0.25,-0.02,5.09,5.09,5.08
39.74,5.20,0.14,5.20,0.15,-0.13,-0.27,-0.05,5.07,5.07,5.06
40.14,5.22,0.19,5.22,0.18,-0.17,-0.30,-0.08,5.05,5.05,5.04
40.54,5.22,0.21,5.22,0.21,-0.21,-0.32,-0.11,5.02,5.02,5.01
40.94,5.22,0.24,5.22,0.24,-0.24,-0.35,-0.15,4.99,4.99,4.99
41.35,5.22,0.25,5.22,0.26,-0.26,-0.37,-0.18,4.96,4.96,4.97
41.76,5.22,0.29,5.22,0.28,-0.29,-0.40,-0.21,4.94,4.94,4.93
42.18,5.22,0.31,5.22,0.30,-0.31,-0.42,-0.24,4.92,4.92,4.92
42.60,5.22,0.32,5.22,0.33,-0.33,-0.45,-0.28,4.90,4.90,4.90
43.03,5.22,0.35,5.22,0.35,-0.35,-0.47,-0.31,4.87,4.87,4.88
43.46,5.22,0.37,5.22,0.37,-0.37,-0.50,-0.34,4.85,4.85,4.85
43.90,5.22,0.39,5.22,0.40,-0.39,-0.52,-0.38,4.83,4.83,4.83
44.33,5.22,0.42,5.22,0.42,-0.42,-0.55,-0.41,4.81,4.81,4.80
44.78,5.22,0.45,5.22,0.44,-0.44,-0.57,-0.45,4.78,4.78,4.78
45.23,5.22,0.45,5.22,0.47,-0.47,-0.59,-0.48,4.75,4.75,4.77
45.68,5.22,0.49,5.22,0.49,-0.50,-0.62,-0.51,4.72,4.72,4.73
46.13,5.22,0.53,5.22,0.53,-0.53,-0.64,-0.55,4.69,4.69,4.69
46.60,5.22,0.56,5.22,0.56,-0.56,-0.67,-0.59,4.66,4.66,4.66
47.06,5.22,0.59,5.23,0.59,-0.59,-0.69,-0.62,4.64,4.64,4.63
47.53,5.22,0.62,5.23,0.63,-0.62,-0.72,-0.66,4.61,4.61,4.60
48.01,5.22,0.67,5.21,0.66,-0.64,-0.74,-0.69,4.58,4.57,4.55
48.49,5.19,0.68,5.19,0.67,-0.67,-0.77,-0.73,4.53,4.52,4.51
48.97,5.15,0.68,5.16,0.69,-0.69,-0.79,-0.77,4.46,4.47,4.47
49.46,5.14,0.70,5.14,0.71,-0.72,-0.82,-0.80,4.42,4.42,4.44
49.96,5.12,0.74,5.13,0.74,-0.75,-0.84,-0.84,4.38,4.38,4.38
50.46,5.12,0.77,5.12,0.77,-0.77,-0.87,-0.88,4.35,4.35,4.35
50.96,5.12,0.81,5.12,0.81,-0.80,-0.89,-0.91,4.32,4.32,4.32
51.47,5.12,0.84,5.12,0.84,-0.84,-0.91,-0.95,4.29,4.29,4.28
51.99,5.12,0.88,5.12,0.88,-0.87,-0.94,-0.99,4.25,4.25,4.24
52.51,5.12,0.92,5.12,0.91,-0.91,-0.96,-1.02,4.21,4.21,4.21
53.03,5.12,0.94,5.12,0.95,-0.95,-0.99,-1.06,4.17,4.17,4.18
53.56,5.12,0.98,5.12,0.98,-0.99,-1.01,-1.09,4.13,4.13,4.14
54.10,5.12,1.03,5.12,1.02,-1.03,-1.04,-1.13,4.09,4.09,4.09
54.64,5.12,1.06,5.12,1.07,-1.07,-1.06,-1.16,4.05,4.05,4.06
55.18,5.12,1.11,5.12,1.11,-1.11,-1.08,-1.20,4.01,4.01,4.01
55.74,5.12,1.15,5.12,1.14,-1.15,-1.11,-1.23,3.98,3.98,3.98
56.29,5.12,1.17,5.12,1.18,-1.17,-1.13,-1.26,3.95,3.95,3.95
56.86,5.12,1.20,5.13,1.22,-1.19,-1.16,-1.29,3.93,3.93,3.92
57.42,5.12,1.25,5.12,1.24,-1.21,-1.18,-1.33,3.91,3.91,3.87
58.00,5.12,1.27,5.10,1.25,-1.23,-1.21,-1.35,3.90,3.87,3.85
58.58,5.06,1.23,5.07,1.24,-1.24,-1.23,-1.38,3.82,3.83,3.83
59.16,5.02,1.22,5.04,1.24,-1.26,-1.26,-1.41,3.76,3.78,3.80
59.76,5.02,1.25,5.02,1.25,-1.29,-1.28,-1.44,3.73,3.73,3.77
60.35,5.02,1.30,5.02,1.29,-1.32,-1.30,-1.46,3.70,3.70,3.72
60.96,5.02,1.34,5.02,1.35,-1.35,-1.33,-1.48,3.67,3.67,3.68
61.57,5.02,1.40,5.02,1.40,-1.39,-1.35,-1.50,3.63,3.63,3.63
62.18,5.02,1.45,5.02,1.45,-1.43,-1.38,-1.52,3.59,3.59,3.57
62.80,5.02,1.50,5.02,1.50,-1.47,-1.40,-1.54,3.55,3.55,3.52
63.43,5.01,1.54,5.01,1.53,-1.51,-1.42,-1.56,3.50,3.50,3.47
64.07,4.99,1.56,4.98,1.55,-1.55,-1.45,-1.57,3.45,3.44,3.44
64.71,4.94,1.55,4.95,1.56,-1.57,-1.47,-1.59,3.37,3.38,3.39
65.35,4.92,1.57,4.93,1.58,-1.60,-1.50,-1.60,3.33,3.33,3.35
66.01,4.92,1.62,4.92,1.61,-1.62,-1.52,-1.61,3.31,3.30,3.31
66.67,4.92,1.65,4.92,1.65,-1.64,-1.55,-1.62,3.29,3.28,3.28
67.33,4.90,1.69,4.90,1.68,-1.66,-1.57,-1.63,3.24,3.24,3.22
68.01,4.86,1.69,4.87,1.69,-1.69,-1.60,-1.64,3.17,3.18,3.18
68.69,4.83,1.71,4.84,1.71,-1.72,-1.62,-1.65,3.11,3.12,3.12
69.37,4.82,1.73,4.82,1.74,-1.76,-1.64,-1.65,3.06,3.06,3.09
70.07,4.82,1.78,4.82,1.78,-1.80,-1.67,-1.66,3.03,3.02,3.04
70.77,4.82,1.83,4.82,1.83,-1.83,-1.69,-1.67,2.99,2.99,3.00
71.48,4.82,1.87,4.83,1.88,-1.87,-1.72,-1.67,2.96,2.96,2.95
72.19,4.82,1.93,4.82,1.93,-1.90,-1.74,-1.68,2.92,2.92,2.90
72.91,4.82,1.97,4.80,1.95,-1.94,-1.77,-1.68,2.89,2.86,2.85
73.64,4.76,1.96,4.77,1.97,-1.97,-1.79,-1.69,2.80,2.80,2.80
74.38,4.72,1.96,4.74,1.98,-1.99,-1.82,-1.70,2.74,2.76,2.76
75.12,4.72,2.01,4.72,2.00,-2.00,-1.84,-1.70,2.72,2.72,2.71
75.87,4.72,2.04,4.71,2.02,-2.02,-1.86,-1.71,2.71,2.69,2.68
76.63,4.68,2.04,4.68,2.04,-2.03,-1.89,-1.72,2.65,2.65,2.64
77.40,4.64,2.03,4.65,2.04,-2.05,-1.91,-1.73,2.59,2.60,2.61
78.17,4.62,2.05,4.63,2.05,-2.07,-1.94,-1.74,2.55,2.55,2.57
78.95,4.62,2.08,4.62,2.08,-2.10,-1.96,-1.75,2.52,2.52,2.55
79.74,4.62,2.11,4.62,2.11,-2.12,-1.99,-1.76,2.50,2.50,2.51
80.54,4.62,2.15,4.63,2.15,-2.14,-2.01,-1.77,2.48,2.49,2.48
81.35,4.62,2.18,4.63,2.18,-2.15,-2.04,-1.79,2.47,2.47,2.44
82.16,4.62,2.21,4.62,2.21,-2.17,-2.06,-1.80,2.46,2.45,2.42
82.98,4.59,2.21,4.58,2.20,-2.18,-2.09,-1.82,2.42,2.40,2.38
83.81,4.53,2.19,4.53,2.19,-2.19,-2.11,-1.84,2.34,2.34,2.34
84.65,4.45,2.15,4.47,2.17,-2.20,-2.13,-1.85,2.25,2.27,2.30
85.50,4.42,2.17,4.43,2.17,-2.21,-2.16,-1.88,2.21,2.22,2.25
86.35,4.42,2.20,4.42,2.20,-2.23,-2.18,-1.90,2.20,2.19,2.22
87.22,4.42,2.23,4.42,2.23,-2.24,-2.21,-1.92,2.18,2.18,2.19
88.09,4.42,2.27,4.43,2.28,-2.26,-2.23,-1.95,2.17,2.17,2.15
88.97,4.42,2.31,4.43,2.31,-2.27,-2.26,-1.97,2.15,2.15,2.12
89.86,4.42,2.36,4.40,2.33,-2.29,-2.28,-2.00,2.14,2.11,2.06
90.76,4.34,2.31,4.35,2.32,-2.31,-2.30,-2.03,2.04,2.04,2.03
91.66,4.28,2.31,4.29,2.31,-2.33,-2.33,-2.06,1.96,1.97,1.98
92.58,4.24,2.30,4.24,2.30,-2.35,-2.35,-2.10,1.89,1.90,1.94
93.51,4.22,2.33,4.23,2.33,-2.37,-2.37,-2.13,1.85,1.85,1.90
94.44,4.22,2.37,4.22,2.37,-2.40,-2.40,-2.17,1.83,1.83,1.85
95.39,4.22,2.43,4.22,2.43,-2.42,-2.42,-2.20,1.80,1.80,1.80
96.34,4.22,2.48,4.22,2.48,-2.44,-2.44,-2.24,1.78,1.78,1.74
97.30,4.20,2.52,4.20,2.52,-2.47,-2.47,-2.28,1.73,1.73,1.68
98.28,4.16,2.54,4.15,2.53,-2.50,-2.49,-2.32,1.67,1.65,1.63
99.26,4.07,2.51,4.08,2.51,-2.52,-2.51,-2.36,1.55,1.55,1.56
100.25,4.00,2.50,4.01,2.50,-2.54,-2.53,-2.40,1.46,1.47,1.50
101.25,3.95,2.50,3.96,2.51,-2.56,-2.55,-2.45,1.40,1.41,1.46
102.27,3.94,2.55,3.94,2.55,-2.56,-2.58,-2.49,1.38,1.38,1.40
103.29,3.93,2.59,3.93,2.59,-2.56,-2.60,-2.53,1.37,1.37,1.34
104.32,3.91,2.62,3.90,2.61,-2.56,-2.62,-2.58,1.35,1.34,1.29
105.37,3.85,2.62,3.83,2.60,-2.57,-2.64,-2.62,1.28,1.26,1.23
106.42,3.73,2.56,3.74,2.57,-2.58,-2.66,-2.67,1.15,1.16,1.18
107.48,3.63,2.52,3.66,2.54,-2.58,-2.68,-2.71,1.05,1.08,1.11
108.56,3.61,2.54,3.61,2.55,-2.58,-2.70,-2.75,1.03,1.03,1.07
109.64,3.59,2.58,3.59,2.58,-2.57,-2.72,-2.80,1.02,1.02,1.01
110.74,3.57,2.62,3.57,2.60,-2.57,-2.74,-2.84,1.00,1.00,0.96
111.85,3.52,2.61,3.51,2.60,-2.58,-2.75,-2.88,0.95,0.94,0.91
112.97,3.44,2.58,3.44,2.58,-2.59,-2.77,-2.91,0.85,0.85,0.86
114.10,3.37,2.56,3.38,2.57,-2.61,-2.79,-2.95,0.76,0.77,0.81
115.24,3.33,2.57,3.35,2.59,-2.62,-2.80,-2.98,0.71,0.72,0.76
116.39,3.34,2.64,3.34,2.63,-2.63,-2.82,-3.01,0.71,0.71,0.70
117.55,3.34,2.68,3.34,2.68,-2.64,-2.84,-3.04,0.70,0.69,0.67
118.73,3.33,2.72,3.32,2.70,-2.66,-2.85,-3.07,0.68,0.66,0.61
119.92,3.26,2.69,3.27,2.69,-2.68,-2.87,-3.09,0.59,0.60,0.58
121.12,3.22,2.67,3.22,2.68,-2.70,-2.88,-3.11,0.52,0.53,0.55
122.33,3.18,2.67,3.19,2.67,-2.71,-2.89,-3.12,0.47,0.47,0.51
123.55,3.17,2.70,3.18,2.71,-2.72,-2.91,-3.14,0.45,0.46,0.48
124.79,3.18,2.74,3.18,2.74,-2.73,-2.92,-3.15,0.46,0.46,0.44
126.03,3.19,2.79,3.17,2.77,-2.74,-2.93,-3.15,0.46,0.44,0.40
127.29,3.13,2.77,3.13,2.77,-2.75,-2.94,-3.15,0.38,0.38,0.36
128.57,3.07,2.75,3.08,2.76,-2.77,-2.95,-3.15,0.30,0.31,0.32
129.85,3.01,2.73,3.03,2.75,-2.79,-2.96,-3.15,0.23,0.24,0.28
131.15,3.01,2.77,3.01,2.77,-2.80,-2.97,-3.14,0.22,0.22,0.24
132.46,3.01,2.81,3.01,2.81,-2.80,-2.98,-3.13,0.21,0.21,0.20
133.79,3.02,2.86,3.01,2.84,-2.81,-2.99,-3.11,0.22,0.21,0.17
135.12,2.98,2.85,2.97,2.84,-2.81,-3.00,-3.09,0.17,0.16,0.13
136.48,2.92,2.82,2.92,2.82,-2.81,-3.01,-3.08,0.11,0.11,0.10
137.84,2.84,2.77,2.87,2.81,-2.82,-3.01,-3.05,0.02,0.05,0.07
139.22,2.83,2.82,2.82,2.80,-2.82,-3.02,-3.03,0.01,-0.00,0.01
140.61,2.80,2.81,2.78,2.80,-2.82,-3.02,-3.01,-0.02,-0.04,-0.01
142.02,2.73,2.78,2.76,2.82,-2.81,-3.03,-2.98,-0.08,-0.05,-0.05
143.44,2.73,2.83,2.73,2.82,-2.81,-3.03,-2.95,-0.08,-0.08,-0.09
144.87,2.73,2.86,2.71,2.83,-2.81,-3.03,-2.92,-0.08,-0.11,-0.12
146.32,2.66,2.82,2.67,2.83,-2.82,-3.04,-2.89,-0.16,-0.15,-0.15
147.78,2.62,2.82,2.62,2.81,-2.83,-3.04,-2.86,-0.20,-0.21,-0.19
149.26,2.56,2.80,2.57,2.80,-2.83,-3.04,-2.84,-0.26,-0.26,-0.23
150.75,2.53,2.81,2.55,2.82,-2.82,-3.04,-2.81,-0.29,-0.28,-0.28
152.26,2.53,2.84,2.54,2.84,-2.82,-3.04,-2.78,-0.29,-0.29,-0.31
153.78,2.53,2.87,2.51,2.85,-2.83,-3.04,-2.75,-0.29,-0.32,-0.34
155.32,2.47,2.85,2.46,2.84,-2.83,-3.04,-2.72,-0.36,-0.38,-0.38
156.88,2.36,2.78,2.40,2.82,-2.84,-3.04,-2.70,-0.47,-0.44,-0.42
158.44,2.34,2.81,2.35,2.81,-2.84,-3.04,-2.67,-0.50,-0.49,-0.46
160.03,2.33,2.84,2.34,2.84,-2.84,-3.03,-2.65,-0.51,-0.51,-0.51
161.63,2.33,2.88,2.32,2.87,-2.85,-3.03,-2.63,-0.51,-0.53,-0.55
163.24,2.30,2.90,2.27,2.87,-2.85,-3.02,-2.60,-0.55,-0.58,-0.60
164.88,2.18,2.82,2.21,2.85,-2.85,-3.02,-2.59,-0.67,-0.64,-0.64
166.53,2.13,2.82,2.15,2.84,-2.85,-3.01,-2.57,-0.72,-0.70,-0.69
168.19,2.11,2.84,2.12,2.84,-2.85,-3.01,-2.55,-0.73,-0.73,-0.73
169.87,2.10,2.88,2.09,2.86,-2.84,-3.00,-2.54,-0.74,-0.76,-0.77
171.57,2.05,2.87,2.03,2.85,-2.84,-2.99,-2.53,-0.79,-0.81,-0.82
173.29,1.94,2.81,1.96,2.83,-2.84,-2.99,-2.52,-0.90,-0.88,-0.87
175.02,1.89,2.80,1.91,2.82,-2.84,-2.98,-2.51,-0.95,-0.93,-0.90
176.77,1.88,2.83,1.88,2.83,-2.84,-2.97,-2.50,-0.96,-0.96,-0.95
178.54,1.88,2.87,1.87,2.86,-2.85,-2.96,-2.50,-0.97,-0.98,-0.99
180.32,1.85,2.89,1.85,2.88,-2.86,-2.95,-2.50,-1.00,-1.01,-1.03
182.13,1.81,2.88,1.80,2.87,-2.87,-2.94,-2.50,-1.05,-1.06,-1.07
183.95,1.75,2.85,1.76,2.86,-2.87,-2.93,-2.50,-1.12,-1.11,-1.10
185.79,1.71,2.85,1.74,2.87,-2.88,-2.92,-2.50,-1.17,-1.14,-1.14
187.65,1.73,2.90,1.73,2.90,-2.89,-2.91,-2.51,-1.16,-1.16,-1.17
189.52,1.73,2.94,1.71,2.91,-2.90,-2.90,-2.51,-1.17,-1.19,-1.21
191.42,1.68,2.91,1.67,2.91,-2.91,-2.88,-2.52,-1.23,-1.24,-1.23
193.33,1.60,2.87,1.63,2.89,-2.92,-2.87,-2.53,-1.32,-1.29,-1.27
195.27,1.58,2.89,1.60,2.90,-2.93,-2.86,-2.54,-1.35,-1.33,-1.30
197.22,1.60,2.95,1.60,2.94,-2.93,-2.84,-2.56,-1.33,-1.34,-1.34
199.19,1.61,2.98,1.59,2.97,-2.93,-2.83,-2.57,-1.32,-1.34,-1.37
201.18,1.56,2.97,1.56,2.96,-2.93,-2.81,-2.59,-1.37,-1.37,-1.41
203.19,1.50,2.93,1.51,2.94,-2.93,-2.80,-2.61,-1.42,-1.42,-1.43
205.23,1.44,2.90,1.46,2.91,-2.93,-2.78,-2.62,-1.48,-1.47,-1.46
207.28,1.42,2.90,1.41,2.89,-2.92,-2.77,-2.64,-1.50,-1.51,-1.48
209.35,1.37,2.89,1.37,2.88,-2.91,-2.75,-2.66,-1.54,-1.54,-1.52
211.44,1.32,2.87,1.35,2.89,-2.90,-2.74,-2.68,-1.57,-1.55,-1.55
213.56,1.32,2.90,1.32,2.89,-2.88,-2.72,-2.70,-1.56,-1.56,-1.57
215.69,1.31,2.92,1.29,2.89,-2.88,-2.70,-2.72,-1.56,-1.59,-1.60
217.85,1.24,2.87,1.24,2.88,-2.87,-2.68,-2.74,-1.62,-1.62,-1.63
220.03,1.17,2.84,1.18,2.84,-2.85,-2.67,-2.75,-1.68,-1.67,-1.67
222.23,1.12,2.81,1.14,2.83,-2.83,-2.65,-2.77,-1.71,-1.69,-1.69
224.45,1.10,2.81,1.11,2.82,-2.81,-2.63,-2.79,-1.71,-1.70,-1.71
226.70,1.10,2.84,1.07,2.80,-2.79,-2.61,-2.80,-1.68,-1.72,-1.73
228.96,1.01,2.76,1.01,2.76,-2.76,-2.59,-2.81,-1.75,-1.75,-1.74
231.25,0.93,2.69,0.96,2.71,-2.74,-2.57,-2.82,-1.80,-1.78,-1.75
233.57,0.91,2.69,0.93,2.70,-2.71,-2.55,-2.83,-1.80,-1.78,-1.77
235.90,0.93,2.71,0.92,2.71,-2.69,-2.53,-2.83,-1.76,-1.76,-1.78
238.26,0.94,2.73,0.91,2.69,-2.67,-2.51,-2.84,-1.73,-1.76,-1.79
240.64,0.86,2.64,0.87,2.65,-2.65,-2.49,-2.84,-1.79,-1.79,-1.78
243.05,0.80,2.59,0.82,2.61,-2.64,-2.47,-2.84,-1.84,-1.82,-1.79
245.48,0.79,2.59,0.81,2.60,-2.63,-2.45,-2.83,-1.84,-1.82,-1.80
247.93,0.82,2.63,0.82,2.61,-2.62,-2.43,-2.82,-1.79,-1.80,-1.80
250.41,0.84,2.63,0.83,2.62,-2.60,-2.41,-2.81,-1.75,-1.77,-1.79
252.92,0.81,2.60,0.81,2.61,-2.58,-2.39,-2.79,-1.76,-1.77,-1.79
255.45,0.77,2.58,0.77,2.57,-2.56,-2.37,-2.77,-1.78,-1.79,-1.80
258.00,0.71,2.51,0.73,2.53,-2.54,-2.34,-2.75,-1.82,-1.81,-1.80
260.58,0.68,2.49,0.68,2.49,-2.51,-2.32,-2.72,-1.82,-1.82,-1.81
263.19,0.67,2.49,0.65,2.46,-2.47,-2.30,-2.70,-1.79,-1.82,-1.81
265.82,0.58,2.41,0.61,2.44,-2.42,-2.28,-2.66,-1.84,-1.81,-1.83
268.48,0.58,2.42,0.57,2.41,-2.39,-2.25,-2.63,-1.80,-1.82,-1.84
271.16,0.51,2.36,0.50,2.35,-2.36,-2.23,-2.59,-1.84,-1.85,-1.85
273.87,0.45,2.31,0.45,2.31,-2.33,-2.21,-2.55,-1.88,-1.89,-1.86
276.61,0.36,2.23,0.39,2.26,-2.30,-2.19,-2.51,-1.94,-1.91,-1.87
279.38,0.36,2.26,0.37,2.26,-2.27,-2.16,-2.47,-1.91,-1.90,-1.90
282.17,0.37,2.26,0.38,2.27,-2.24,-2.14,-2.42,-1.87,-1.86,-1.89
284.99,0.39,2.29,0.37,2.27,-2.22,-2.12,-2.37,-1.83,-1.85,-1.90
287.84,0.36,2.25,0.32,2.21,-2.20,-2.09,-2.33,-1.83,-1.88,-1.89
290.72,0.21,2.12,0.26,2.16,-2.17,-2.07,-2.28,-1.96,-1.91,-1.90
293.63,0.19,2.09,0.22,2.12,-2.15,-2.05,-2.23,-1.96,-1.93,-1.90
296.57,0.22,2.11,0.20,2.10,-2.12,-2.02,-2.18,-1.90,-1.92,-1.89
299.53,0.23,2.13,0.21,2.11,-2.09,-2.00,-2.13,-1.86,-1.87,-1.90
302.53,0.18,2.07,0.19,2.08,-2.06,-1.97,-2.07,-1.87,-1.87,-1.89
305.55,0.14,2.04,0.14,2.03,-2.03,-1.95,-2.02,-1.89,-1.89,-1.89
308.61,0.07,1.96,0.10,1.99,-2.00,-1.92,-1.97,-1.93,-1.90,-1.89
311.69,0.07,1.97,0.07,1.97,-1.97,-1.90,-1.92,-1.90,-1.90,-1.90
314.81,0.07,1.97,0.04,1.94,-1.94,-1.88,-1.87,-1.86,-1.89,-1.89
317.96,0.00,1.91,0.01,1.91,-1.90,-1.85,-1.82,-1.89,-1.88,-1.90
321.14,-0.05,1.85,-0.03,1.87,-1.85,-1.83,-1.77,-1.90,-1.88,-1.90
324.35,-0.08,1.82,-0.09,1.81,-1.81,-1.80,-1.72,-1.89,-1.90,-1.90
327.59,-0.12,1.78,-0.14,1.76,-1.77,-1.78,-1.67,-1.89,-1.91,-1.89
330.87,-0.20,1.70,-0.18,1.72,-1.74,-1.75,-1.63,-1.93,-1.91,-1.90
334.18,-0.23,1.68,-0.21,1.69,-1.70,-1.73,-1.58,-1.93,-1.91,-1.91
337.52,-0.23,1.67,-0.26,1.65,-1.66,-1.70,-1.53,-1.88,-1.92,-1.90
340.90,-0.28,1.63,-0.28,1.62,-1.61,-1.68,-1.49,-1.89,-1.90,-1.90
344.30,-0.36,1.54,-0.31,1.59,-1.57,-1.65,-1.45,-1.92,-1.87,-1.89
347.75,-0.32,1.57,-0.34,1.56,-1.52,-1.63,-1.40,-1.84,-1.86,-1.89
351.23,-0.36,1.54,-0.38,1.50,-1.48,-1.60,-1.36,-1.83,-1.86,-1.90
354.74,-0.44,1.44,-0.45,1.44,-1.44,-1.58,-1.32,-1.88,-1.89,-1.88
358.28,-0.56,1.33,-0.52,1.36,-1.41,-1.55,-1.28,-1.97,-1.93,-1.88
361.87,-0.57,1.31,-0.55,1.32,-1.38,-1.53,-1.24,-1.95,-1.94,-1.87
365.49,-0.53,1.34,-0.55,1.32,-1.36,-1.50,-1.21,-1.88,-1.90,-1.87
369.14,-0.51,1.35,-0.51,1.35,-1.33,-1.48,-1.17,-1.84,-1.84,-1.86
372.83,-0.50,1.35,-0.49,1.36,-1.31,-1.45,-1.14,-1.81,-1.81,-1.85
376.56,-0.49,1.36,-0.50,1.35,-1.30,-1.43,-1.10,-1.78,-1.80,-1.85
380.33,-0.55,1.31,-0.54,1.31,-1.28,-1.40,-1.07,-1.83,-1.82,-1.85
384.13,-0.59,1.26,-0.59,1.25,-1.26,-1.37,-1.03,-1.85,-1.86,-1.84
387.97,-0.66,1.19,-0.64,1.21,-1.24,-1.35,-1.00,-1.90,-1.88,-1.84
391.85,-0.67,1.18,-0.66,1.19,-1.22,-1.32,-0.97,-1.88,-1.87,-1.85
395.77,-0.67,1.19,-0.67,1.18,-1.19,-1.30,-0.94,-1.86,-1.86,-1.86
399.73,-0.67,1.19,-0.70,1.15,-1.16,-1.27,-0.91,-1.82,-1.86,-1.86
403.72,-0.75,1.10,-0.73,1.13,-1.12,-1.24,-0.89,-1.87,-1.85,-1.85
407.76,-0.80,1.07,-0.75,1.11,-1.08,-1.22,-0.86,-1.88,-1.83,-1.87
411.84,-0.74,1.13,-0.78,1.09,-1.05,-1.19,-0.83,-1.78,-1.83,-1.87
415.96,-0.82,1.06,-0.84,1.04,-1.01,-1.17,-0.81,-1.83,-1.85,-1.87
420.12,-0.92,0.97,-0.92,0.96,-0.97,-1.14,-0.78,-1.89,-1.89,-1.88
424.32,-1.04,0.84,-0.99,0.88,-0.95,-1.11,-0.76,-1.98,-1.93,-1.87
428.56,-1.00,0.86,-1.00,0.86,-0.92,-1.09,-0.73,-1.92,-1.92,-1.86
432.85,-0.96,0.88,-0.98,0.87,-0.90,-1.06,-0.71,-1.86,-1.88,-1.84
437.18,-0.93,0.90,-0.92,0.90,-0.88,-1.03,-0.69,-1.81,-1.80,-1.83
441.55,-0.89,0.90,-0.89,0.90,-0.86,-1.00,-0.67,-1.75,-1.75,-1.79
445.96,-0.85,0.90,-0.87,0.89,-0.84,-0.98,-0.65,-1.69,-1.71,-1.75
450.42,-0.87,0.84,-0.86,0.84,-0.81,-0.95,-0.63,-1.68,-1.68,-1.71
454.93,-0.87,0.79,-0.85,0.80,-0.78,-0.92,-0.61,-1.65,-1.64,-1.66
459.48,-0.87,0.73,-0.85,0.75,-0.75,-0.89,-0.59,-1.61,-1.60,-1.60
464.07,-0.81,0.72,-0.86,0.68,-0.71,-0.86,-0.57,-1.51,-1.57,-1.53
468.71,-0.88,0.61,-0.86,0.62,-0.66,-0.83,-0.55,-1.54,-1.52,-1.48
473.40,-0.88,0.55,-0.83,0.59,-0.63,-0.81,-0.53,-1.51,-1.46,-1.42
478.13,-0.76,0.61,-0.78,0.59,-0.60,-0.78,-0.51,-1.36,-1.38,-1.36
482.91,-0.70,0.62,-0.71,0.60,-0.58,-0.75,-0.49,-1.28,-1.29,-1.31
487.74,-0.66,0.62,-0.69,0.58,-0.56,-0.72,-0.48,-1.22,-1.26,-1.27
492.62,-0.72,0.52,-0.68,0.55,-0.55,-0.69,-0.46,-1.26,-1.23,-1.23
497.55,-0.73,0.47,-0.67,0.53,-0.52,-0.66,-0.44,-1.25,-1.20,-1.20
502.52,-0.60,0.58,-0.67,0.50,-0.49,-0.63,-0.43,-1.09,-1.17,-1.18
507.55,-0.68,0.47,-0.67,0.48,-0.45,-0.59,-0.41,-1.13,-1.12,-1.15
