frequency,raw
20.00,-12.83
20.20,-12.70
20.40,-12.58
20.61,-12.45
20.81,-12.32
21.02,-12.20
21.23,-12.07
21.44,-11.95
21.66,-11.82
21.87,-11.69
22.09,-11.57
22.31,-11.44
22.54,-11.31
22.76,-11.18
22.99,-11.05
23.22,-10.92
23.45,-10.79
23.69,-10.66
23.92,-10.53
24.16,-10.40
24.40,-10.27
24.65,-10.14
24.89,-10.01
25.14,-9.87
25.39,-9.74
25.65,-9.61
25.91,-9.48
26.16,-9.35
26.43,-9.21
26.69,-9.08
26.96,-8.95
27.23,-8.82
27.50,-8.68
27.77,-8.55
28.05,-8.42
28.33,-8.29
28.62,-8.16
28.90,-8.02
29.19,-7.90
29.48,-7.77
29.78,-7.64
30.08,-7.51
30.38,-7.39
30.68,-7.27
30.99,-7.15
31.30,-7.02
31.61,-6.89
31.93,-6.77
32.24,-6.65
32.57,-6.52
32.89,-6.40
33.22,-6.27
33.55,-6.15
33.89,-6.02
34.23,-5.90
34.57,-5.77
34.92,-5.65
35.27,-5.53
35.62,-5.40
35.97,-5.28
36.33,-5.16
36.70,-5.05
37.06,-4.93
37.43,-4.81
37.81,-4.70
38.19,-4.58
38.57,-4.46
38.95,-4.34
39.34,-4.23
39.74,-4.12
40.14,-4.01
40.54,-3.90
40.94,-3.79
41.35,-3.68
41.76,-3.58
42.18,-3.47
42.60,-3.37
43.03,-3.26
43.46,-3.16
43.90,-3.05
44.33,-2.95
44.78,-2.85
45.23,-2.75
45.68,-2.66
46.13,-2.56
46.60,-2.47
47.06,-2.38
47.53,-2.28
48.01,-2.19
48.49,-2.10
48.97,-2.01
49.46,-1.92
49.96,-1.83
50.46,-1.73
50.96,-1.64
51.47,-1.54
51.99,-1.45
52.51,-1.36
53.03,-1.26
53.56,-1.17
54.10,-1.08
54.64,-0.99
55.18,-0.90
55.74,-0.80
56.29,-0.71
56.86,-0.62
57.42,-0.54
58.00,-0.45
58.58,-0.36
59.16,-0.27
59.76,-0.18
60.35,-0.10
60.96,-0.02
61.57,0.06
62.18,0.13
62.80,0.21
63.43,0.28
64.07,0.36
64.71,0.43
65.35,0.50
66.01,0.57
66.67,0.63
67.33,0.69
68.01,0.76
68.69,0.81
69.37,0.86
70.07,0.90
70.77,0.95
71.48,0.99
72.19,1.04
72.91,1.08
73.64,1.13
74.38,1.17
75.12,1.22
75.87,1.25
76.63,1.29
77.40,1.32
78.17,1.35
78.95,1.38
79.74,1.40
80.54,1.42
81.35,1.44
82.16,1.45
82.98,1.47
83.81,1.49
84.65,1.50
85.50,1.51
86.35,1.52
87.22,1.51
88.09,1.50
88.97,1.49
89.86,1.49
90.76,1.49
91.66,1.49
92.58,1.49
93.51,1.49
94.44,1.49
95.39,1.49
96.34,1.49
97.30,1.49
98.28,1.49
99.26,1.49
100.25,1.49
101.25,1.50
102.27,1.51
103.29,1.51
104.32,1.51
105.37,1.51
106.42,1.49
107.48,1.47
108.56,1.44
109.64,1.41
110.74,1.38
111.85,1.34
112.97,1.30
114.10,1.26
115.24,1.24
116.39,1.22
117.55,1.20
118.73,1.19
119.92,1.17
121.12,1.16
122.33,1.15
123.55,1.13
124.79,1.11
126.03,1.08
127.29,1.06
128.57,1.03
129.85,0.99
131.15,0.96
132.46,0.95
133.79,0.92
135.12,0.88
136.48,0.86
137.84,0.82
139.22,0.79
140.61,0.77
142.02,0.73
143.44,0.71
144.87,0.67
146.32,0.66
147.78,0.63
149.26,0.60
150.75,0.57
152.26,0.55
153.78,0.52
155.32,0.50
156.88,0.46
158.44,0.45
160.03,0.42
161.63,0.40
163.24,0.38
164.88,0.33
166.53,0.31
168.19,0.28
169.87,0.25
171.57,0.23
173.29,0.22
175.02,0.20
176.77,0.18
178.54,0.16
180.32,0.15
182.13,0.13
183.95,0.10
185.79,0.07
187.65,0.05
189.52,0.02
191.42,-0.01
193.33,-0.04
195.27,-0.07
197.22,-0.10
199.19,-0.14
201.18,-0.18
203.19,-0.22
205.23,-0.25
207.28,-0.27
209.35,-0.30
211.44,-0.33
213.56,-0.36
215.69,-0.40
217.85,-0.43
220.03,-0.44
222.23,-0.46
224.45,-0.47
226.70,-0.47
228.96,-0.47
231.25,-0.46
233.57,-0.46
235.90,-0.45
238.26,-0.45
240.64,-0.45
243.05,-0.45
245.48,-0.45
247.93,-0.45
250.41,-0.44
252.92,-0.43
255.45,-0.43
258.00,-0.44
260.58,-0.45
263.19,-0.46
265.82,-0.49
268.48,-0.51
271.16,-0.54
273.87,-0.58
276.61,-0.61
279.38,-0.64
282.17,-0.67
284.99,-0.71
287.84,-0.74
290.72,-0.77
293.63,-0.79
296.57,-0.80
299.53,-0.80
302.53,-0.80
305.55,-0.79
308.61,-0.78
311.69,-0.78
314.81,-0.78
317.96,-0.78
321.14,-0.78
324.35,-0.78
327.59,-0.78
330.87,-0.78
334.18,-0.78
337.52,-0.78
340.90,-0.77
344.30,-0.77
347.75,-0.76
351.23,-0.76
354.74,-0.76
358.28,-0.78
361.87,-0.79
365.49,-0.82
369.14,-0.84
372.83,-0.87
376.56,-0.91
380.33,-0.94
384.13,-0.98
387.97,-1.03
391.85,-1.06
395.77,-1.09
399.73,-1.11
403.72,-1.11
407.76,-1.10
411.84,-1.08
415.96,-1.05
420.12,-1.02
424.32,-0.98
428.56,-0.95
432.85,-0.90
437.18,-0.86
441.55,-0.82
445.96,-0.77
450.42,-0.72
454.93,-0.66
459.48,-0.60
464.07,-0.55
468.71,-0.50
473.40,-0.44
478.13,-0.38
482.91,-0.32
487.74,-0.27
492.62,-0.22
497.55,-0.18
502.52,-0.16
507.55,-0.14
512.62,-0.13
517.75,-0.11
522.93,-0.11
528.16,-0.11
533.44,-0.12
538.77,-0.13
544.16,-0.13
549.60,-0.13
555.10,-0.13
560.65,-0.13
566.25,-0.13
571.92,-0.13
577.64,-0.13
583.41,-0.13
589.25,-0.13
595.14,-0.13
601.09,-0.13
607.10,-0.13
613.17,-0.13
619.30,-0.13
625.50,-0.13
631.75,-0.13
638.07,-0.13
644.45,-0.13
650.89,-0.13
657.40,-0.13
663.98,-0.13
670.62,-0.13
677.32,-0.13
684.10,-0.13
690.94,-0.13
697.85,-0.13
704.83,-0.13
711.87,-0.13
718.99,-0.13
726.18,-0.13
733.44,-0.13
740.78,-0.13
748.19,-0.13
755.67,-0.13
763.23,-0.13
770.86,-0.13
778.57,-0.13
786.35,-0.13
794.22,-0.13
802.16,-0.13
810.18,-0.13
818.28,-0.13
826.46,-0.13
834.73,-0.13
843.08,-0.13
851.51,-0.13
860.02,-0.13
868.62,-0.13
877.31,-0.13
886.08,-0.13
894.94,-0.13
903.89,-0.13
912.93,-0.14
922.06,-0.15
931.28,-0.15
940.59,-0.15
950.00,-0.13
959.50,-0.11
969.09,-0.09
978.78,-0.07
988.57,-0.04
998.46,-0.01
1008.44,0.02
1018.53,0.05
1028.71,0.07
1039.00,0.11
1049.39,0.15
1059.88,0.19
1070.48,0.23
1081.19,0.27
1092.00,0.31
1102.92,0.34
1113.95,0.36
1125.09,0.38
1136.34,0.40
1147.70,0.43
1159.18,0.47
1170.77,0.51
1182.48,0.55
1194.30,0.59
1206.25,0.62
1218.31,0.64
1230.49,0.66
1242.80,0.69
1255.22,0.73
1267.78,0.78
1280.45,0.82
1293.26,0.86
1306.19,0.91
1319.25,0.96
1332.45,1.01
1345.77,1.04
1359.23,1.09
1372.82,1.14
1386.55,1.19
1400.41,1.26
1414.42,1.33
1428.56,1.40
1442.85,1.47
1457.28,1.56
1471.85,1.64
1486.57,1.74
1501.43,1.84
1516.45,1.95
1531.61,2.07
1546.93,2.18
1562.40,2.30
1578.02,2.45
1593.80,2.63
1609.74,2.81
1625.84,3.00
1642.10,3.21
1658.52,3.43
1675.10,3.67
1691.85,3.92
1708.77,4.18
1725.86,4.45
1743.12,4.73
1760.55,5.02
1778.15,5.32
1795.94,5.61
1813.90,5.89
1832.03,6.15
1850.36,6.41
1868.86,6.64
1887.55,6.86
1906.42,7.08
1925.49,7.28
1944.74,7.46
1964.19,7.62
1983.83,7.77
2003.67,7.91
2023.71,8.03
2043.94,8.14
2064.38,8.24
2085.03,8.33
2105.88,8.41
2126.94,8.47
2148.20,8.52
2169.69,8.55
2191.38,8.58
2213.30,8.59
2235.43,8.57
2257.78,8.55
2280.36,8.51
2303.17,8.46
2326.20,8.40
2349.46,8.34
2372.95,8.26
2396.68,8.18
2420.65,8.11
2444.86,8.02
2469.31,7.93
2494.00,7.85
2518.94,7.77
2544.13,7.67
2569.57,7.56
2595.27,7.45
2621.22,7.33
2647.43,7.22
2673.90,7.09
2700.64,6.96
2727.65,6.83
2754.93,6.70
2782.48,6.57
2810.30,6.43
2838.40,6.29
2866.79,6.14
2895.46,5.99
2924.41,5.82
2953.65,5.64
2983.19,5.45
3013.02,5.26
3043.15,5.06
3073.58,4.85
3104.32,4.64
3135.36,4.42
3166.72,4.23
3198.38,4.02
3230.37,3.83
3262.67,3.65
3295.30,3.50
3328.25,3.38
3361.53,3.29
3395.15,3.22
3429.10,3.19
3463.39,3.17
3498.03,3.19
3533.01,3.22
3568.34,3.29
3604.02,3.40
3640.06,3.54
3676.46,3.71
3713.22,3.94
3750.36,4.19
3787.86,4.48
3825.74,4.80
3864.00,5.13
3902.64,5.48
3941.66,5.86
3981.08,6.24
4020.89,6.61
4061.10,6.98
4101.71,7.32
4142.73,7.64
4184.15,7.93
4226.00,8.18
4268.26,8.40
4310.94,8.59
4354.05,8.75
4397.59,8.87
4441.56,8.97
4485.98,9.05
4530.84,9.13
4576.15,9.20
4621.91,9.26
4668.13,9.31
4714.81,9.36
4761.96,9.41
4809.58,9.45
4857.67,9.48
4906.25,9.52
4955.31,9.55
5004.87,9.57
5054.91,9.59
5105.46,9.61
5156.52,9.64
5208.08,9.64
5260.16,9.63
5312.77,9.61
5365.89,9.58
5419.55,9.57
5473.75,9.56
5528.49,9.54
5583.77,9.52
5639.61,9.47
5696.00,9.41
5752.96,9.34
5810.49,9.25
5868.60,9.14
5927.28,9.00
5986.56,8.85
6046.42,8.69
6106.89,8.51
6167.96,8.32
6229.64,8.10
6291.93,7.86
6354.85,7.62
6418.40,7.39
6482.58,7.16
6547.41,6.94
6612.88,6.73
6679.01,6.51
6745.80,6.29
6813.26,6.07
6881.39,5.85
6950.21,5.63
7019.71,5.41
7089.91,5.19
7160.81,4.96
7232.41,4.73
7304.74,4.50
7377.79,4.26
7451.56,4.00
7526.08,3.73
7601.34,3.46
7677.35,3.18
7754.13,2.91
7831.67,2.66
7909.98,2.40
7989.08,2.15
8068.98,1.90
8149.67,1.67
8231.16,1.47
8313.47,1.31
8396.61,1.21
8480.57,1.17
8565.38,1.20
8651.03,1.30
8737.54,1.49
8824.92,1.76
8913.17,2.09
9002.30,2.50
9092.32,2.95
9183.25,3.43
9275.08,3.94
9367.83,4.46
9461.51,4.99
9556.12,5.49
9651.68,5.96
9748.20,6.38
9845.68,6.75
9944.14,7.07
10043.58,7.34
10144.02,7.57
10245.46,7.77
10347.91,7.93
10451.39,8.07
10555.91,8.19
10661.46,8.29
10768.08,8.39
10875.76,8.46
10984.52,8.53
11094.36,8.58
11205.31,8.61
11317.36,8.61
11430.53,8.61
11544.84,8.60
11660.29,8.55
11776.89,8.49
11894.66,8.42
12013.60,8.32
12133.74,8.21
12255.08,8.10
12377.63,7.98
12501.41,7.84
12626.42,7.70
12752.68,7.55
12880.21,7.40
13009.01,7.25
13139.10,7.07
13270.49,6.87
13403.20,6.65
13537.23,6.41
13672.60,6.13
13809.33,5.82
13947.42,5.49
14086.90,5.11
14227.77,4.70
14370.04,4.27
14513.74,3.80
14658.88,3.33
14805.47,2.83
14953.52,2.32
15103.06,1.80
15254.09,1.27
15406.63,0.73
15560.70,0.19
15716.30,-0.36
15873.47,-0.91
16032.20,-1.47
16192.52,-2.03
16354.45,-2.55
16517.99,-3.07
16683.17,-3.57
16850.01,-4.04
17018.51,-4.50
17188.69,-4.93
17360.58,-5.35
17534.18,-5.78
17709.53,-6.24
17886.62,-6.72
18065.49,-7.23
18246.14,-7.82
18428.60,-8.43
18612.89,-9.08
18799.02,-9.77
18987.01,-10.48
19176.88,-11.22
19368.65,-11.99
19562.33,-12.81
19757.96,-13.65
19955.54,-14.52
