frequency,raw,error,smoothed,error_smoothed,equalization,equalized_raw,equalized_smoothed,target
20,-7.953995886018454,-9.601839641487802,-7.911086860441215,-9.558915269243435,5.999999999999998,-1.9539958860184559,-1.911086860441217,1.647843755469347
21,-7.264869596602153,-8.912694392620331,-7.303229010064552,-8.951056160233584,5.999999999999999,-1.2648695966021535,-1.3032290100645527,1.6478247960181784
22,-6.672937204605183,-8.320737203090525,-6.720082528133036,-8.367894840538419,6.0,-0.6729372046051827,-0.7200825281330356,1.6477999984853424
23,-6.188356075574375,-7.836124032216349,-6.161647414646666,-7.809431310157941,5.999999999999999,-0.18835607557437584,-0.16164741464666665,1.6477679566419732
24,-5.65406513256664,-7.3017921439054865,-5.627923669605433,-7.2756655690921415,5.999999999999999,0.34593486743335955,0.3720763303945658,1.647727011338847
25,-5.050616856704568,-6.698292075764742,-5.119764898069093,-6.767452698718568,5.922095067715781,0.8714782110112127,0.8023301696466882,1.647675219060174
26,-4.664921381411908,-6.312531699591906,-4.636249829904719,-6.283869974407038,5.762812006693708,1.0978906252818001,1.1265621767889895,1.6476103181799977
27,-4.190055374854384,-5.8375850680546755,-4.176426380531495,-5.823963742959303,5.531702786038049,1.341647411183665,1.3552764055065536,1.647529693200291
28,-3.692088595319853,-5.33951893083121,-3.7388487306432197,-5.38628560142224,5.249153463620728,1.5570648683008752,1.5103047329775086,1.6474303355113573
29,-3.3177197771103746,-4.965028580035643,-3.3217079807491334,-4.969023030538841,4.92732414919352,1.6096043720831457,1.6056161684443868,1.6473088029252683
30,-2.967017377666952,-4.614178553768699,-2.923350746209689,-4.570518566370575,4.570518566370575,1.603501188703623,1.6471678201608864,1.6471611761017466
31,-2.537135197965205,-4.184118210563348,-2.542358194041669,-4.189348629856465,4.189348629856465,1.6522134318912598,1.6469904358147955,1.6469830125981426
32,-2.2060507237124893,-3.852820022128971,-2.1777920497991383,-3.824569691958996,3.8245696919589958,1.6185189682465064,1.6467776421598574,1.6467692984164817
33,-1.8368207652191846,-3.4833351622793787,-1.8292599677053225,-3.475783642473293,3.4757836424732926,1.638962877254108,1.6465236747679701,1.6465143970601943
34,-1.4640896256189022,-3.11030162179334,-1.496814644382491,-3.143036799827022,3.1430367998270206,1.6789471742081183,1.6462221554445295,1.6462119961744381
35,-1.2287777762447798,-2.874632827960859,-1.1807871934773337,-2.826653236262172,2.8266532362621724,1.5978754600173926,1.6458660427848386,1.645855051716079
36,-0.8063639831413353,-2.4517997129522286,-0.8815437109798326,-2.5269912405685777,2.526991240568577,1.7206272574272417,1.6454475295887443,1.6454357298108935
37,-0.5904831081020105,-2.23542845445217,-0.5992564541372704,-2.24421441225749,2.2442144122574903,1.6537313041554798,1.6449579581202198,1.6449453463501595
38,-0.35632896851991397,-2.000703272962378,-0.3337342466956569,-1.9781219971901356,1.9781219971901356,1.6217930286702216,1.6443877504944786,1.6443743044424641
39,-0.09910419581839625,-1.7428162256716782,-0.08433313149200995,-1.7280594699172416,1.7280594699172414,1.628955274098845,1.6437263384252314,1.643712029853282
40,0.12898084444484145,-1.513966060143746,0.1500357544082207,-1.4929263472828418,1.4929263472828413,1.6219071917276828,1.642962101691062,1.6429469045885874
41,0.3798699326865269,-1.2621962661230062,0.37080224870993284,-1.2712800558825332,1.2712800558825328,1.6511499885690597,1.6420823045924657,1.642066198809533
42,0.5916365652208055,-1.0494194360654583,0.5795425340275355,-1.0615304950845301,1.0615304950845306,1.6531670603053361,1.641073029112066,1.6410560012862638
43,0.8694630422857856,-0.7704381063507282,0.7777150044982124,-0.8622041013266408,0.8622041013266408,1.7316671436124265,1.6399191058248532,1.6399011486365138
44,0.8772552256917134,-0.7613299279408003,0.9663758792688694,-0.6722281625918245,0.6722281625918244,1.5494833882835377,1.6386040418606937,1.6385851536325138
45,1.1543737768673672,-0.48271635604074015,1.1459496869960413,-0.4911602608471659,0.49116026084716585,1.645534037714533,1.6371099478432072,1.6370901329081073
46,1.2109497099567563,-0.4244470245014469,1.316138189977282,-0.31927927468912626,0.31927927468912626,1.5302289846458825,1.6354174646664081,1.6353967344582032
47,1.4697760184277986,-0.16370804697047503,1.4760264038330106,-0.15747928683177087,0.1574792868317709,1.6272553052595695,1.6335056906647816,1.6334840653982736
48,1.7281187753756642,0.09678915482924988,1.6243857970968256,-0.006966312781923897,0.006966312781923889,1.735085088157588,1.6313521098787496,1.6313296205464143
49,1.7884636029943297,0.159554390487326,1.760101954678901,0.13116943278614795,-0.13116943278614793,1.6572941702081818,1.628932521892753,1.6289092125070037
50,1.8852405073638046,0.2590436032879866,1.8825996492029273,0.25637867519679647,-0.25637867519679647,1.628861832167008,1.6262209740061309,1.626196904075818
51,1.9896130290762912,0.36644808512366445,1.9921298543523653,0.36894015762160604,-0.368940157621606,1.6206728714546852,1.6231896967307593,1.6231649439526268
52,2.0901877423319,0.4704040353937602,2.089826434757992,0.470017390942597,-0.470017390942597,1.6201703513893033,1.619809043815395,1.61978370693814
53,2.146100259509628,0.5300786195049971,2.1775158889927493,0.5614684507403069,-0.561468450740307,1.5846318087693212,1.6160474382524423,1.616021640004631
54,2.2756755185254303,0.6638303026674333,2.2573412996387785,0.6454699737079501,-0.6454699737079501,1.6302055448174801,1.6118713259308284,1.611845215857997
55,2.291337161328572,0.6841182654838263,2.331312208052039,0.724067069229442,-0.7240670692294419,1.5672700920991298,1.6072451388225972,1.6072188958447455
56,2.4522566947189532,0.8501515904302339,2.4009013718298875,0.7987701020157496,-0.7987701020157498,1.6534865927032034,1.6021312698141377,1.6021051042887193
57,2.3342037370601,0.7377395205053547,2.466784080672112,0.8702940191818221,-0.8702940191818219,1.4639097178782783,1.5964900614902904,1.5964642165547454
58,2.6534061156438,1.0631515523309223,2.5287761042450985,0.9384962929007254,-0.9384962929007256,1.7149098227430741,1.5902798113443728,1.5902545633128775
59,2.6152051043058444,1.0317726507068476,2.585986167537383,1.0025293715453365,-1.0025293715453367,1.6126757327605077,1.5834567959920465,1.5834324535989968
60,2.5930613532654188,1.0171091339488378,2.6371601551611477,1.0611848381663496,-1.0611848381663496,1.5318765150990692,1.575975316994798,1.575952219316581
61,2.5327165986038267,0.9649503148211962,2.681153003659198,1.113365232823907,-1.1133652328239076,1.419351365779919,1.5677877708352903,1.5677662837826305
62,2.8545557597406472,1.2957305029673165,2.717423089969581,1.158578344551544,-1.158578344551544,1.6959774151891032,1.5588447454180367,1.5588252567733307
63,2.7942109714008465,1.245132913139099,2.7464135193249826,1.1973183741394664,-1.1973183741394666,1.5968925972613799,1.549095145185516,1.5490780582617476
64,2.7942108875125893,1.2557388148556297,2.769684710855043,1.231198364277823,-1.2311983642778233,1.563012523234766,1.5384863465772198,1.5384720726569596
65,2.7942105811285045,1.267257246272817,2.7897115241803405,1.2627471392896432,-1.2627471392896432,1.5314634418388613,1.5269643848906973,1.5269533348556874
66,2.794209976483005,1.27974322766593,2.809356728367101,1.2948825550373178,-1.294882555037318,1.499327421445687,1.514474173329783,1.514466748817075
67,2.7942090916317266,1.2932527529398494,2.8311489185313787,1.3301891641049206,-1.3301891641049204,1.4640199275268062,1.5009597544264583,1.5009563386918772
68,2.794208127357666,1.307842595546064,2.8565788146727384,1.370214232139921,-1.3702142321399213,1.4239938952177447,1.4863645825328171,1.486365531811602
69,2.733862718686752,1.2632252465745197,2.885642294950912,1.4150104599576812,-1.4150104599576812,1.318852258729071,1.4706318349932308,1.4706374721122324
70,3.055702347494455,1.6019869856158815,2.9167895297174344,1.4630847792199293,-1.4630847792199295,1.5926175682745256,1.453704750497505,1.4537153618785736
71,2.9953601322954486,1.5598173031954823,2.947308325606934,1.5117813306181438,-1.5117813306181438,1.4835788016773048,1.43552699498879,1.4355428290999663
72,2.995365664115925,1.5793013468394594,2.974025924043749,1.5579828692809294,-1.5579828692809294,1.4373827948349955,1.4160430547628198,1.4160643172764655
73,2.9953744273640925,1.6001489331120982,2.9941132329100233,1.5989145834154912,-1.5989145834154912,1.3964598439486013,1.395198649494532,1.3952254942519944
74,2.9953855678140497,1.622411891201386,3.0057547575242016,1.6328136047148476,-1.6328136047148476,1.3625719630992021,1.372941152809354,1.3729736766126637
75,2.9953964112020532,1.6461381448072512,3.008503452581387,1.6592834481463843,-1.659283448146384,1.3361129630556692,1.3492200044350031,1.349258266394802
76,2.9954020065711666,1.6713708092721022,3.003244857053222,1.6792577509961673,-1.6792577509961677,1.316144255574999,1.3239871060570545,1.3240311972990644
77,3.0181902739563458,1.7209428856742135,2.991811555461556,1.694614326466768,-1.694614326466768,1.3235759474895779,1.2971972289947882,1.2972473882821323
78,3.051714454209714,1.7828492509608926,2.9763837685317664,1.7075752541016014,-1.707575254101601,1.344139200108113,1.2688085144301655,1.2688652032488212
79,2.8947361166376195,1.6558892001154324,2.958862420136864,1.7200792643129224,-1.720079264312923,1.1746568523246965,1.2387831558239408,1.2388469165221871
80,2.8946466635806742,1.6874874788490675,2.940400442909856,1.733312197308647,-1.733312197308647,1.1613344662720273,1.2070882456012089,1.2071591847316068
81,2.8945281062568045,1.7207545796428967,2.921230192518574,1.7475336538164603,-1.7475336538164605,1.146994452440344,1.1736965387021134,1.1737735266139078
82,2.894396353337063,1.755729540493841,2.9008389972511988,1.7622523251713729,-1.762252325171373,1.13214402816569,1.1385866720798257,1.1386668128432222
83,2.8942829270828496,1.7924611588218027,2.8784356040632897,1.7766932247751788,-1.7766932247751788,1.1175897023076709,1.101742379288111,1.101821768261047
84,2.8942362647066764,1.8310087760605902,2.85354677977512,1.790396071722813,-1.7903960717228136,1.1038401929838628,1.0631507080523066,1.0632274886460862
85,2.89431941213453,1.8714394387941988,2.8265219807621174,1.8037217167857698,-1.8037217167857695,1.0905976953487604,1.0228002639763478,1.022879973340331
86,2.807367275201341,1.826584601639833,2.798734711843382,1.8180530417454732,-1.8180530417454728,0.9893142334558682,0.9806816700979093,0.980782673561508
87,2.746961652017865,1.8100145979645732,2.77235975027792,1.835566916451485,-1.8355669164514847,0.9113947355663801,0.9367928338264353,0.9369470540532916
88,2.6948619145485964,1.8034687516714154,2.749753503872176,1.8586032466718585,-1.8586032466718587,0.8362586678767376,0.8911502572003174,0.891393162877181
89,2.6960304279235427,1.8518802272070953,2.7326199155232844,1.8888157279459272,-1.8888157279459274,0.8072146999776153,0.843804187577357,0.8441502007164474
90,2.697444385459089,1.9021873082705265,2.7212447622363185,1.926393917340903,-1.926393917340903,0.771050468118186,0.7948508448954155,0.7952570771885625
91,2.6989566482591703,1.954193710704713,2.7140809918166644,1.9696495088731347,-1.969649508873134,0.7293071393860362,0.7444314829435303,0.7447629375544573
92,2.7003255525641428,2.007597913432484,2.7078611184322905,2.015152488691282,-2.0151524886912817,0.685173063872861,0.6927086297410088,0.6927276391316588
93,2.7012138573448445,2.0619917043770877,2.69823642252483,2.0584198608127977,-2.058419860812798,0.6427939965320464,0.6398165617120317,0.6392221529677569
94,2.7222834405156022,2.137954577275079,2.680761881395811,2.0949667283409696,-2.0949667283409696,0.6273167121746326,0.5857951530548413,0.5843288632405232
95,2.7400375710774347,2.2118958363204695,2.651928202086755,2.121398814006078,-2.1213988140060778,0.618638757071357,0.5305293880806774,0.5281417347569652
96,2.6117126842174123,2.140946366075004,2.6099317660820054,2.136207294630787,-2.1362072946307866,0.4755053895866257,0.47372447145121876,0.4707663181424082
97,2.551820807379933,2.1395012442645593,2.5549710436819115,2.140028326586455,-2.140028326586455,0.4117924807934781,0.4149427170954567,0.41231956311537354
98,2.4814131699183597,2.1284837570802786,2.48902374098172,2.1353125057965743,-2.1353125057965747,0.346100664121785,0.35371123518514525,0.3529294128380811
99,2.397267433237713,2.104533276411186,2.4152289058604115,2.125546108380056,-2.125546108380056,0.2717213248576571,0.2896827974803555,0.29273415682652715
100,2.3751524186486908,2.1432708923512758,2.3371107465399845,2.114304774047632,-2.1143047740476324,0.26084764460105836,0.22280597249235212,0.23188152629741499
101,2.237234300267109,2.066706776271235,2.257899068355723,2.104452532753023,-2.1044525327530232,0.13278176751408566,0.15344653560269972,0.17052752399587412
102,2.096225631102149,1.9873906408707804,2.1801259043244414,2.0977172419224983,-2.097717241922498,-0.0014916108203486544,0.08240866240194356,0.10883499023136878
104,2.0957117482627607,2.1107044557581127,2.105546789735123,2.0947148565674776,-2.094714856567477,0.0009968916952836082,0.010831933167645857,-0.014992707495351976
105,2.0901313884906703,2.1670673550206505,2.0353059454033184,2.0953255923906386,-2.095325592390638,-0.005194203899967942,-0.060019646987319764,-0.07693596652998025
106,2.021784313174253,2.1603680014630453,1.9701893259164764,2.0992112835602548,-2.099211283560254,-0.07742697038600088,-0.12902195764377744,-0.1385836882887923
107,1.9207824336904986,2.120549681907076,1.910813192737784,2.1062451399909268,-2.1062451399909268,-0.18546270630042816,-0.19543194725314272,-0.19976724821657754
108,1.816959087385195,2.077281403158908,1.8576678112309533,2.1167011288465813,-2.1167011288465813,-0.2997420414613863,-0.2590333176156281,-0.2603223157737129
109,1.7554602909331343,2.0755514378546844,1.8110348253843944,2.131178276995864,-2.131178276995864,-0.37571798606272955,-0.3201434516114694,-0.32009114692155016
110,1.7534538813527722,2.132378705697846,1.7708718016587652,2.1503538393062858,-2.1503538393062858,-0.3968999579535135,-0.37948203764752053,-0.3789248243450736
111,1.7403373024152726,2.17702267878295,1.7367723172835097,2.1747168047485856,-2.174716804748586,-0.43437950233331346,-0.4379444874650764,-0.43668537636767724
112,1.7278488315711749,2.2210965381264556,1.7080619776206794,2.2044121911784895,-2.20441219117849,-0.4765633596073151,-0.4963502135578106,-0.4932477065552807
113,1.7189728244267846,2.2674740948003125,1.6840096730193066,2.239248216394529,-2.2392482163945284,-0.5202753919677439,-0.5552385433752218,-0.5485012703735279
114,1.7136692036723828,2.3160206465520266,1.664064022298948,2.278827959641106,-2.278827959641106,-0.565158755968723,-0.6147639373421578,-0.6023514428796437
115,1.616067289694935,2.270787821711842,1.648004054743313,2.3227103343363797,-2.3227103343363806,-0.7066430446414456,-0.6747062795930676,-0.6547205320169067
117,1.6019839382951495,2.3622450595529356,1.6359309168197402,2.370505962392488,-2.3705059623924876,-0.768522024097338,-0.7345750455727473,-0.7602611212577859
118,1.615593799309295,2.423974617067114,1.6281023053712944,2.421863259120399,-2.421863259120398,-0.8062694598111031,-0.7937609537491037,-0.8083808177578189
119,1.6209495372716791,2.4757949463442817,1.6246835878034434,2.4763660523846536,-2.4763660523846527,-0.8554165151129736,-0.8516824645812093,-0.8548454090726025
120,1.6276279637917757,2.5272820573808454,1.625523152250053,2.5334100167357354,-2.533410016735735,-0.9057820529439593,-0.9078868644856819,-0.8996540935890698
121,1.6350928478124154,2.5779147903795696,1.6300417952972737,2.59213154693298,-2.59213154693298,-0.9570386991205646,-0.9620897516357063,-0.942821942567154
123,1.6428847449761301,2.674661725523121,1.63727123233215,2.651432939408955,-2.651432939408955,-1.0085481944328247,-1.0141617070768048,-1.031776980546991
124,1.6506462079551993,2.72110498563425,1.6460155448985545,2.7101024093774635,-2.7101024093774626,-1.0594562014222633,-1.064086864478908,-1.0704587776790508
125,1.65813083099989,2.765747518709304,1.6550709051617045,2.7669910838971714,-2.766991083897171,-1.108860252897281,-1.1119201787354664,-1.1076166877094145
126,1.66519639322051,2.808515449584573,1.6634361842639642,2.821196500727151,-2.821196500727151,-1.1560001075066408,-1.1577603164631867,-1.1433190563640632
128,1.6717849178957411,2.890249823064279,1.6704711792493208,2.8722113942400416,-2.8722113942400425,-1.2004264763443013,-1.2017402149907217,-1.218464905168538
129,1.6778945085384525,2.928076527213456,1.6759883576533716,2.9200136854777567,-2.920013685477757,-1.2421191769393047,-1.2440253278243856,-1.2501820186750034
130,1.683548916987848,2.9642441908780226,1.6802791415415443,2.965085118578906,-2.9650851185789064,-1.2815362015910585,-1.284805977037362,-1.2806952738901747
131,1.6887707085617043,2.998863350360678,1.6840729279501638,3.0083489086757265,-3.0083489086757265,-1.3195782001140222,-1.3242759807255626,-1.3100926417989736
133,1.693562655189688,3.066475862735584,1.6884177013767583,3.0510182136140163,-3.0510182136140163,-1.3574555584243282,-1.362600512237258,-1.3729132075458956
134,1.6978999301492281,3.0970233172403274,1.6944727957255403,3.0943580328073255,-3.0943580328073264,-1.3964581026580982,-1.399885237081786,-1.3991233870910995
135,1.7017332775754683,3.1262290791610354,1.7032283071579708,3.1393892021663223,-3.1393892021663223,-1.437655924590854,-1.4361608950083515,-1.424495801585567
137,1.705001098755982,3.1838585769940897,1.7152069557645966,3.1865985795554606,-3.18659857955546,-1.481597480799478,-1.4713916237908635,-1.4788574782381079
138,1.7076467794932673,3.209321542727375,1.7302410679421252,3.2357459236618213,-3.235745923661822,-1.5280991441685545,-1.5055048557196966,-1.5016747632341079
140,1.70963686828699,3.2600539101832307,1.7474228029176544,3.2858535422008748,-3.285853542200874,-1.5762166739138839,-1.5384307392832195,-1.5504170418962406
141,1.7394264465995126,3.3105116804364245,1.7652840777471006,3.335418897856176,-3.335418897856176,-1.5959924512566632,-1.5701348201090752,-1.5710852338369121
142,1.8488657707930578,3.440159038929551,1.7821811884807597,3.382812504804991,-3.382812504804992,-1.5339467340119342,-1.6006313163242323,-1.5912932681364933
144,1.8372475880932098,3.470969665493294,1.796767568386893,3.426741246012572,-3.426741246012571,-1.5894936579193613,-1.629973677625678,-1.6337220774000842
145,1.8124014089513563,3.464621863392101,1.8083772669221827,3.4666066108382356,-3.4666066108382356,-1.6542052018868794,-1.658229343916053,-1.6522204544407448
147,1.8120739272749198,3.5025028861391783,1.8171462781698842,3.5025980840859,-3.5025980840858995,-1.6905241568109797,-1.6854518059160153,-1.6904289588642585
148,1.8117132137079555,3.519146378234082,1.823779565113747,3.5354423344329695,-3.535442334432969,-1.7237291207250136,-1.7116627693192221,-1.7074331645261265
150,1.8114705034566618,3.5533265493567994,1.8290059474245433,3.565857224157467,-3.565857224157467,-1.7543867207008053,-1.7368512767329238,-1.7418560459001373
151,1.8114578702417723,3.5689387935327646,1.8329015334311438,3.593889543151403,-3.5938895431514037,-1.7824316729096314,-1.76098800972026,-1.7574809232909923
153,1.811728174931849,3.600162684369899,1.8343478980392294,3.6183938995014424,-3.6183938995014424,-1.8066657245695934,-1.784046001462213,-1.78843450943805
154,1.8122598203064721,3.6149504519694324,1.8308820349423187,3.6368988219232268,-3.6368988219232268,-1.8246390016167546,-1.806016786980908,-1.8026906316629603
156,1.8129487859593403,3.643319167237275,1.8190822145181755,3.6459963431136986,-3.645996343113699,-1.8330475571543587,-1.8269141285955235,-1.8303703812779348
157,1.8136102994965198,3.656780886101091,1.7954483235851848,3.6422121959580522,-3.642212195958052,-1.828601896461532,-1.846763872372867,-1.8431705866045713
159,1.813992091617424,3.6816539085859734,1.7575413976668879,3.6231263819148083,-3.6231263819148083,-1.8091342902973844,-1.8655849842479204,-1.8676618169685493
