frequency,raw,error,smoothed,error_smoothed,equalization,equalized_raw,equalized_smoothed,target
20,-3.568371634526569,-7.688992385134482,-3.5178891323722077,-7.638528127550464,5.999999999999999,2.43162836547343,2.4821108676277914,4.120620750607913
21,-3.1826967033970854,-7.334931848106417,-3.251238789091077,-7.4034633096046845,6.0,2.8173032966029146,2.748761210908923,4.152235144709332
22,-2.989859237832346,-7.170307717855842,-2.9998057117141537,-7.180232130075265,6.0,3.010140762167654,3.0001942882858463,4.180448480023496
23,-2.797021772267599,-7.002281122589137,-2.7635899002414366,-6.968834588962206,5.999999999999999,3.2029782277324,3.2364100997585625,4.205259350321538
24,-2.507765573920489,-6.7344316703747245,-2.5425913546729224,-6.769270686265502,5.999999999999998,3.4922344260795093,3.457408645327076,4.2266660964542355
25,-2.3149281083557463,-6.5595948832615445,-2.3379218507709347,-6.582660551505307,5.999999999999998,3.685071891644252,3.6620781492290635,4.244666774905798
26,-2.1220906427910045,-6.381349766841265,-2.1482183966646216,-6.407636802906082,5.999999999999999,3.8779093572089947,3.8517816033353776,4.259259124050261
27,-2.0200436949742735,-6.290553168684815,-1.9722817731844575,-6.242991870913938,5.974477278787769,3.9544335838134956,4.002195505603312,4.270509473710542
28,-1.8328344444438909,-6.111196085029839,-1.8085386210431205,-6.087132922232078,5.922059359205589,4.089224914761698,4.113520738162468,4.278361640585948
29,-1.6399969788791489,-5.92278367039086,-1.655294072327811,-5.938330093219179,5.845671558358648,4.205674579479499,4.190377486030837,4.282786691511712
30,-1.4743966686387786,-5.758134357299573,-1.5114154171383043,-5.795398871776069,5.75172701202275,4.277330343383971,4.240311594884446,4.2837376886607945
31,-1.4256016961409912,-5.7067485630158705,-1.376177347761157,-5.657542374601075,5.644173344038794,4.218571647897803,4.267995996277637,4.281146866874879
32,-1.2543220477496702,-5.529246329276135,-1.2493068779306096,-5.52439641089722,5.52439641089722,4.2700743631475495,4.27508953296661,4.274924281526465
33,-1.1579033149673017,-5.422861935375495,-1.1307803064742956,-5.39582827485933,5.395828274859328,4.237924959892027,4.265047968385033,4.264958620408194
34,-0.9650658494025626,-5.216197905337601,-1.020508741412172,-5.271626045780237,5.271626045780236,4.306560196377673,4.251117304368064,4.251132055935038
35,-0.8686471166201947,-5.1019616778783305,-0.9181469996605106,-5.151313779468115,5.151313779468114,4.2826666628479195,4.233166779807603,4.233314561258136
36,-0.8686471166201948,-5.080022234123519,-0.8229896249826318,-5.034055965158869,5.034055965158869,4.165408848538674,4.211066340176237,4.211375117503325
37,-0.7294119864078578,-4.914604191344679,-0.7340463856888488,-4.918743738051895,4.918743738051894,4.189331751644037,4.184697352363045,4.185192204936822
38,-0.6758096510554555,-4.8304761021949,-0.6502635781018511,-4.804229050867612,4.804229050867612,4.128419399812156,4.15396547276576,4.154666451139444
39,-0.5764952672078195,-4.696230357053585,-0.5708031810256123,-4.689618577709968,4.689618577709968,4.113123310502148,4.118815396684356,4.119735089845765
40,-0.5223737211978176,-4.602761483117281,-0.4952986964366446,-4.57454582803557,4.5745458280355695,4.052172106837752,4.079247131598925,4.0803877619194635
41,-0.3865534527085633,-4.4232383647496265,-0.42399531647674377,-4.459328516705771,4.459328516705773,4.072775063997209,4.0353332002290285,4.036684912041063
42,-0.3803549688141113,-4.369130396767698,-0.35772370794818015,-4.344959710602694,4.344959710602694,3.964604741788583,3.987236002654514,3.9887754279535863
43,-0.2901347199245046,-4.227048605303891,-0.29770211128399215,-4.232926511768608,4.232926511768609,3.942791791844104,3.935224400484617,3.9369138853793864
44,-0.2266711379362259,-4.108147240753585,-0.24520293065492932,-4.1248913874328785,4.1248913874328785,3.8982202494966525,3.879688456777949,3.881476102817359
45,-0.19371598713790047,-4.016687827636971,-0.20115867492524375,-4.022309881553515,4.0223098815535145,3.828593894415614,3.821151206628271,3.8229718404990702
46,-0.194741137087392,-3.95679457221176,-0.1658046564376502,-3.9260809951569255,3.9260809951569247,3.7313398580695325,3.7602763387192746,3.762053435124368
47,-0.09729725441520716,-3.7968164431422133,-0.13846223058051538,-3.836332977725964,3.836332977725964,3.7390357233107565,3.6978707471454486,3.699519188727006
48,-0.09729725446493473,-3.73360798776858,-0.11754969105903969,-3.7524307558712096,3.7524307558712096,3.655133501406275,3.63488106481217,3.6363107333036453
49,-0.09729725443247557,-3.670800795599103,-0.10086200574741018,-3.6732455157716433,3.673245515771643,3.575948261339167,3.5723835100242325,3.573503541166627
50,-0.09729725417974763,-3.609587408588828,-0.08608853412192252,-3.5976551945087305,3.59765519450873,3.5003579403289824,3.5115666603868076,3.5122901544090803
51,-0.09729725363786897,-3.551253292241332,-0.07145328222807557,-3.5251603836353596,3.5251603836353596,3.4278631299974904,3.453707101407284,3.453956038603463
52,-0.09729725302593668,-3.4971456045043845,-0.056293213921202415,-3.456431479682787,3.4564314796827866,3.35913422665685,3.4001382657615844,3.3998483514784477
53,-0.09729725304783804,-3.448635568683144,-0.04136979723262983,-3.393582961192915,3.3935829611929167,3.2962857081450787,3.352213163960287,3.351338315635306
54,0.00023615911059509444,-3.3095421088734778,-0.028760199227667198,-3.3400222855391712,3.340022285539171,3.340258444649766,3.3112620863115034,3.309778267984073
55,-0.0008785265342558602,-3.2773333733968415,-0.021295420630299447,-3.2998421272834104,3.29984212728341,3.298963600749154,3.2785467066531107,3.2764548468625856
56,-0.0008785333737589352,-3.2534186199872868,-0.021670104819165814,-3.2768824225036726,3.2768824225036735,3.2760038891299144,3.255212317684508,3.2525400866135277
57,-0.0008785394090040166,-3.239920973231957,-0.0314868245781942,-3.273726979692613,3.2737269796926127,3.272848440283609,3.2422401551144184,3.239042433822953
58,-0.0008785377362697321,-3.237638388358598,-0.0505579772533713,-3.290959883025777,3.290959883025777,3.290081345289507,3.240401905772406,3.2367598506223283
59,-0.04375785569942153,-3.2899950714780446,-0.07673524442825377,-3.3269537747766864,3.326953774776687,3.2831959190772655,3.250218530348433,3.2462372157786232
60,-0.09729720531081237,-3.3650273701628524,-0.10637655866535364,-3.378302015735481,3.378302015735481,3.2810048104246685,3.2719254570701275,3.26773016485204
61,-0.17236335769995645,-3.4735406805508218,-0.13534376551902738,-3.4407897827023994,3.4407897827023994,3.268426425002443,3.305446017183372,3.301177322850865
62,-0.29013451727388406,-3.6363171029705867,-0.16022763420361932,-3.510602336139236,3.5106023361392356,3.2204678188653517,3.3503747019356163,3.346182585696703
63,-0.19371574524510732,-3.595724455128273,-0.17939517332375707,-3.585366609039739,3.58536660903974,3.3916508637946325,3.405971435715983,3.4020087098831655
64,-0.19371582913336455,-3.6612988212986584,-0.19348989736333871,-3.664657496286742,3.6646574962867424,3.4709416671533777,3.4711675989234037,3.4675829921652936
65,-0.19798786678831043,-3.7395031535269996,-0.20518220384617397,-3.7497662234711573,3.7497662234711564,3.551778356682846,3.5445840196249825,3.541515286738689
66,-0.19371674016294835,-3.815844784291064,-0.21820964487038547,-3.842770257280829,3.8427702572808298,3.6490535171178813,3.6245606124104444,3.6221280441281154
67,-0.19500782727972013,-3.9025053215029284,-0.23598284084050314,-3.945179644926665,3.945179644926664,3.750171817646944,3.7091968040861607,3.707497494223208
68,-0.1909092891529583,-3.986413855287552,-0.26018204561010433,-4.056583423235051,4.056583423235052,3.8656741340820937,3.7964013776249477,3.7955045661345936
69,-0.24927048308655114,-4.133164152512835,-0.2897823255630691,-4.173732242817467,4.173732242817467,3.9244617597309155,3.8839499172543976,3.8838936694262842
70,-0.29013735480743114,-4.260474435785103,-0.3208193310626145,-4.290367006153637,4.290367006153638,4.000229651346207,3.969547675091024,3.970337080977672
71,-0.3865534752025992,-4.439055885790753,-0.34698596668316617,-4.397881389158538,4.397881389158539,4.01132791395594,4.050895422475373,4.052502410588154
72,-0.38654794338212267,-4.514668414950428,-0.3609052504492216,-4.486660958260558,4.486660958260558,4.100113014878435,4.1257557078113365,4.128120471568305
73,-0.38653918013395516,-4.581590048032737,-0.3557334555409226,-4.547750376737159,4.547750376737159,4.161211196603205,4.192016921196236,4.195050867898782
74,-0.3917747411031105,-4.643117468462189,-0.3266660439822949,-4.574418716632543,4.574418716632543,4.182643975529433,4.247752672650249,4.251342727359079
75,-0.3652737641383716,-4.660562017063742,-0.2719649227864771,-4.563239140899908,4.563239140899907,4.197965376761536,4.29127421811343,4.295288252925371
76,-0.19997916939717447,-4.525446287575193,-0.19327658775736967,-4.514450599778229,4.51445059977823,4.314471430381055,4.32117401202086,4.325467118178018
77,-0.08443686320355187,-4.425217038945203,-0.09521413127974583,-4.4315730552047805,4.431573055204781,4.34713619200123,4.336358923925036,4.340780175741651
78,0.06005827927666968,-4.28041317612433,0.015631527381857163,-4.320440666603389,4.320440666603388,4.380498945880058,4.336072193985245,4.3404714554009995
79,0.142142056520223,-4.181995915327072,0.13195814843737946,-4.187945582381465,4.187945582381467,4.33008763890169,4.319903730818846,4.3241379718472945
80,0.26645302386406006,-4.025274387194096,0.24696894107929418,-4.040819833090774,4.040819833090774,4.307272856954834,4.287788774170068,4.291727411058156
81,0.38749467656151754,-3.8560296131538503,0.35526803264524465,-3.8847271881542964,3.884727188154297,4.2722218647158146,4.239995220799542,4.243524289715368
82,0.4606277352358475,-3.719497921563246,0.4532818949809292,-3.72381826220734,3.72381826220734,4.184445997443188,4.177100157188269,4.180125656799094
83,0.5300809853992233,-3.572326822095696,0.5391960099968137,-3.5607605226921653,3.560760522692166,4.09084150809139,4.09995653268898,4.102407807494919
84,0.6358964633036118,-3.375589325667011,0.612522186447541,-3.397129493176907,3.3971294931769083,4.03302595648052,4.009651679624449,4.011485788970623
85,0.6735865778862217,-3.235081105812315,0.6734925519939678,-3.233968056912566,3.233968056912566,3.907554634798788,3.907460608906534,3.908667683698537
86,0.6996301103315102,-3.095775643328706,0.7224962960131798,-3.0723019845121646,3.0723019845121637,3.771932094843674,3.7947982805253435,3.795405753660216
87,0.7708383586034553,-2.9024081607786707,0.7597349670111855,-2.9134404855421376,2.9134404855421376,3.684278844145593,3.6731754525533233,3.673246519382126
88,0.7690236776725005,-2.7747580611827036,0.7851849407735549,-2.758976323288194,2.758976323288194,3.5280000009606947,3.5441612640617493,3.543781738855204
89,0.7728657517449579,-2.635736304093948,0.7988453761761729,-2.610506716219671,2.610506716219671,3.383372467964629,3.409352092395844,3.4086020558389056
90,0.8644334978053274,-2.404821324069495,0.8011486028437702,-2.4691928174471585,2.4691928174471585,3.333626315252486,3.2703414202909284,3.2692548218748225
91,0.8290112806907615,-2.2981960007153344,0.7933505287660481,-2.335331147369331,2.335331147369331,3.1643424280600927,3.128681676135379,3.1272072814060956
92,0.7771608763855576,-2.2066550895840775,0.7777239108090145,-2.2081053643197706,2.20810536431977,2.985266240705328,2.9858292751287845,2.9838159659696353
93,0.7774181435939315,-2.062884649088296,0.7574479846422881,-2.085622480886153,2.085622480886153,2.8630406244800843,2.843070465528441,2.8403027926822273
94,0.7283514500584289,-1.969386573883315,0.736200163365252,-1.9652371830380273,1.9652371830380273,2.6935886330964562,2.7014373464032793,2.697738023941744
95,0.660940530502535,-1.8960894060948887,0.7175668436848496,-1.8440694264731186,1.8440694264731183,2.505009956975653,2.561636270157968,2.5570299365974236
96,0.6721878720358573,-1.7467329114880812,0.7044551584813168,-1.7195630703380713,1.7195630703380713,2.3917509423739287,2.424018228819388,2.4189207835239386
97,0.6713350818343095,-1.6126533363908302,0.6986781660524133,-1.589938689021316,1.589938689021316,2.2612737708556256,2.2886168550737294,2.2839884182251398
98,0.6629791862447649,-1.4896736129053791,0.7008085852319477,-1.4544537616333777,1.4544537616333775,2.117432947878142,2.1552623468653254,2.152652799150144
99,0.7866105361318451,-1.2385759598146713,0.7102891288618627,-1.3134637503579425,1.3134637503579425,2.1000742864897877,2.0237528792198054,2.0251864959465165
100,0.7721644309853513,-1.1295638511665242,0.7257019993461744,-1.1683367253925587,1.168336725392559,1.9405011563779102,1.8940387247387334,1.9017282821518755
101,0.7161630566566751,-1.0661358551666655,0.7450743091695662,-1.0212859031178132,1.0212859031178134,1.7374489597744884,1.7663602122873796,1.7822989118233408
102,0.6960494606706891,-0.9707687721636007,0.76613689255953,-0.8751502987642745,0.8751502987642743,1.5711997594349634,1.6412871913238043,1.6668182328342898
104,0.7951324683205405,-0.6980257834712045,0.78653173826318,-0.733103517108675,0.7331035171086752,1.5282359854292156,1.5196352553718553,1.493158251791745
105,0.8490044429981729,-0.5359339272303498,0.8040268399230721,-0.598247403325193,0.598247403325193,1.447251846323366,1.402274243248265,1.3849383702285227
106,0.7797120270015812,-0.5004077326048215,0.8168037711030489,-0.473079316889769,0.473079316889769,1.2527913438913503,1.289883087992818,1.2801197596064027
107,0.8620371205785706,-0.31635251407409903,0.8238243899044286,-0.3589025992947001,0.35890259929470003,1.2209397198732708,1.1827269891991286,1.1783896346526697
108,0.8669538770478158,-0.212462576265402,0.8251909490741527,-0.25533795700383316,0.25533795700383316,1.122291834051649,1.080528906077986,1.0794164533132178
109,0.8454072640633912,-0.13745589795178526,0.8223438919584705,-0.16013445310853264,0.16013445310853267,1.0055417171719239,0.9824783450670032,0.9828631620151764
110,0.8263888510484891,-0.06200998045151129,0.8179431446127312,-0.0694336423422659,0.06943364234226589,0.895822493390755,0.8873767869549971,0.8883988315000004
111,0.8104518130895431,0.014743176487406195,0.8153684611795988,0.021491938001439025,-0.021491938001439025,0.7889598750881041,0.7938765231781598,0.7957086366021369
112,0.7979633422454453,0.09346116104112623,0.8179219681331515,0.11717921266491367,-0.11717921266491371,0.6807841295805316,0.7007427554682378,0.7045021812043191
113,0.7794868472017853,0.1649666459481416,0.8279549403836834,0.22088879643103734,-0.22088879643103732,0.558598050770748,0.6070661439526461,0.6145202012536437
114,0.7644999677901783,0.2389602704712981,0.8462027492999524,0.33382861829916743,-0.33382861829916743,0.4306713494910108,0.512374131000785,0.5255396973188802
115,0.8087733468693946,0.37139578928493766,0.8715614940930971,0.4549362025469863,-0.4549362025469864,0.3538371443224082,0.4166252915461107,0.43737755758445696
117,0.9949451040877183,0.6997650836850712,0.9013921880059312,0.5812842409229368,-0.5812842409229366,0.4136608631647817,0.3201079470829946,0.2951800204026471
118,0.9865757490007984,0.7771767978913687,0.9322522677265014,0.7089627692745337,-0.7089627692745336,0.27761297972626475,0.22328949845196777,0.20939895110942963
119,0.9844762261543628,0.860288224227214,0.9608063553858914,0.8341371562332112,-0.8341371562332112,0.15033906992115165,0.12666919915268027,0.12418800192714885
120,0.9911546526744596,0.9516295655925208,0.984619026937229,0.9539442852207809,-0.9539442852207809,0.03721036745367867,0.03067474171644813,0.0395250870819388
121,0.9986195366950992,1.043193394129059,1.0025970749873323,1.066978095792353,-1.066978095792353,-0.06835855909725375,-0.06438102080502062,-0.04457385743395981
123,1.0064114338588142,1.1818684889296889,1.0149924299215813,1.1732842615584778,-1.1732842615584778,-0.1668728276996636,-0.15829183163689642,-0.17545705507087472
124,1.0141728968378831,1.2711146044471446,1.0230357312152938,1.2739585075983628,-1.273958507598363,-0.2597856107604799,-0.25092277638306926,-0.2569417076092615
125,1.0216575198825735,1.3592768735102572,1.0283819338344828,1.370556519175941,-1.370556519175941,-0.34889899929336754,-0.34217458534145817,-0.3376193536276837
126,1.0287230821031939,1.4460959103952575,1.032577614497232,1.4645417691775684,-1.4645417691775682,-0.4358186870743743,-0.4319641546803361,-0.4173728282920637
128,1.035311606778425,1.5722076491042214,1.0367074222208101,1.5569304744750934,-1.5569304744750938,-0.5216188676966689,-0.5202230522542837,-0.5368960423257965
129,1.0414211974211363,1.6545214041548901,1.0412794737211282,1.6481832078708925,-1.648183207870893,-0.6067620104497566,-0.6069037341497647,-0.6131002067337539
130,1.0470756058705315,1.735065644671085,1.0463138059560864,1.7382934068240847,-1.7382934068240854,-0.6912178009535539,-0.691979600867999,-0.6879900388005535
131,1.0522973974443879,1.8137344854811017,1.0515402500861286,1.8269710330479707,-1.8269710330479711,-0.7746736356035833,-0.7754307829618425,-0.7614370880367138
133,1.0570893440723719,1.9248636080375596,1.0566039691737814,1.9138223302489692,-1.9138223302489692,-0.8567329861765973,-0.8572183610751878,-0.8677742639651878
134,1.0614266190319115,1.998204138456855,1.0612080520906404,1.998466906052092,-1.9984669060520925,-0.937040287020181,-0.9372588539614521,-0.9367775194249435
135,1.065259966458152,2.069308945844978,1.0651701008402437,2.080583081281573,-2.0805830812815733,-1.0153231148234214,-1.0154129804413297,-1.0040489793868261
137,1.0685277876386658,2.167795863087647,1.0684107803958771,2.1599076704546394,-2.1599076704546394,-1.0913798828159735,-1.0914968900587623,-1.0992680754489812
138,1.071173468375951,2.2329515003139724,1.0709132810731243,2.236226938271796,-2.236226938271796,-1.165053469895845,-1.1653136571986717,-1.161778031938021
140,1.073163557169674,2.3221133876504396,1.0726920586945163,2.3093850812257277,-2.309385081225728,-1.2362215240560541,-1.2366930225312118,-1.2489498304807656
141,1.0745026565289564,2.381212378374997,1.0737935798133382,2.379316792770907,-2.3793167927709074,-1.304814136241951,-1.3055232129575691,-1.3067097218460408
142,1.0752419297581883,2.437860584102867,1.0743295655304146,2.4460918977188006,-2.446091897718801,-1.3708499679606128,-1.3717623321883865,-1.3626186543446788
144,1.0754796053949824,2.51480298042238,1.0745213703657104,2.5099475889361247,-2.5099475889361242,-1.4344679835411418,-1.4354262185704139,-1.4393233750273977
145,1.0753533851903623,2.566007189780005,1.0747187919170254,2.5712787229953817,-2.5712787229953813,-1.495925337805019,-1.496559931078356,-1.4906538045896425
147,1.075025903513926,2.6352690579047753,1.075353820726138,2.630560054480231,-2.630560054480231,-1.555534150966305,-1.555206233754093,-1.5602431543908493
148,1.0746651899469615,2.681842554370439,1.076804921871556,2.6881890763994134,-2.6881890763994125,-1.613523886452451,-1.6113841545278564,-1.6071773644234773
150,1.0744224796956687,2.7445064169901956,1.0791817611743815,2.744266498050966,-2.7442664980509672,-1.6698440183552985,-1.6650847368765858,-1.6700839372945269
151,1.0744098464807783,2.7871616840230935,1.0820868170993427,2.798369261843138,-2.7983692618431384,-1.72395941536236,-1.7162824447437957,-1.7127518375423154
153,1.074680151170856,2.843992356809684,1.084451834509818,2.849405483514733,-2.849405483514733,-1.7747253323438772,-1.7649536490049151,-1.769312205638828
154,1.0752117965454788,2.882952409401879,1.084560409865182,2.895651778063029,-2.895651778063029,-1.8204399815175503,-1.811091368197847,-1.8077406128564002
156,1.0759007621983467,2.9340574594741575,1.0803336910397863,2.935042177677039,-2.935042177677039,-1.8591414154786923,-1.8547084866372527,-1.8581566972758106
157,1.076562275735526,2.968815373435101,1.0698718833628318,2.9656999096055325,-2.965699909605531,-1.8891376338700052,-1.8958280262426994,-1.8922530976995748
159,1.07694406785643,3.0135389125334062,1.052133013128235,2.9865984890681903,-2.986598489068191,-1.9096544212117612,-1.9344654759399562,-1.9365948446769763
