frequency,raw
20.00,-6.04
20.20,-6.00
20.40,-5.96
20.61,-5.92
20.81,-5.88
21.02,-5.84
21.23,-5.79
21.44,-5.75
21.66,-5.71
21.87,-5.66
22.09,-5.62
22.31,-5.58
22.54,-5.53
22.76,-5.49
22.99,-5.44
23.22,-5.40
23.45,-5.35
23.69,-5.30
23.92,-5.26
24.16,-5.21
24.40,-5.17
24.65,-5.14
24.89,-5.10
25.14,-5.07
25.39,-5.06
25.65,-5.05
25.91,-5.04
26.16,-5.02
26.43,-4.99
26.69,-4.96
26.96,-4.93
27.23,-4.90
27.50,-4.87
27.77,-4.85
28.05,-4.82
28.33,-4.80
28.62,-4.77
28.90,-4.74
29.19,-4.71
29.48,-4.68
29.78,-4.65
30.08,-4.62
30.38,-4.59
30.68,-4.56
30.99,-4.53
31.30,-4.50
31.61,-4.47
31.93,-4.44
32.24,-4.41
32.57,-4.37
32.89,-4.34
33.22,-4.31
33.55,-4.27
33.89,-4.24
34.23,-4.18
34.57,-4.12
34.92,-4.05
35.27,-3.98
35.62,-3.92
35.97,-3.86
36.33,-3.85
36.70,-3.84
37.06,-3.82
37.43,-3.74
37.81,-3.67
38.19,-3.63
38.57,-3.63
38.95,-3.63
39.34,-3.63
39.74,-3.63
40.14,-3.63
40.54,-3.63
40.94,-3.63
41.35,-3.63
41.76,-3.63
42.18,-3.61
42.60,-3.55
43.03,-3.49
43.46,-3.37
43.90,-3.26
44.33,-3.16
44.78,-3.06
45.23,-2.97
45.68,-2.89
46.13,-2.81
46.60,-2.72
47.06,-2.64
47.53,-2.58
48.01,-2.52
48.49,-2.47
48.97,-2.42
49.46,-2.39
49.96,-2.35
50.46,-2.34
50.96,-2.32
51.47,-2.28
51.99,-2.23
52.51,-2.17
53.03,-2.12
53.56,-2.06
54.10,-2.01
54.64,-1.96
55.18,-1.90
55.74,-1.85
56.29,-1.81
56.86,-1.79
57.42,-1.70
58.00,-1.58
58.58,-1.51
59.16,-1.45
59.76,-1.43
60.35,-1.42
60.96,-1.42
61.57,-1.40
62.18,-1.38
62.80,-1.33
63.43,-1.31
64.07,-1.31
64.71,-1.31
65.35,-1.31
66.01,-1.31
66.67,-1.31
67.33,-1.31
68.01,-1.31
68.69,-1.31
69.37,-1.31
70.07,-1.31
70.77,-1.31
71.48,-1.31
72.19,-1.31
72.91,-1.31
73.64,-1.31
74.38,-1.35
75.12,-1.42
75.87,-1.42
76.63,-1.42
77.40,-1.42
78.17,-1.42
78.95,-1.42
79.74,-1.42
80.54,-1.42
81.35,-1.42
82.16,-1.42
82.98,-1.42
83.81,-1.42
84.65,-1.42
85.50,-1.42
86.35,-1.42
87.22,-1.41
88.09,-1.41
88.97,-1.41
89.86,-1.41
90.76,-1.41
91.66,-1.41
92.58,-1.41
93.51,-1.41
94.44,-1.41
95.39,-1.41
96.34,-1.41
97.30,-1.42
98.28,-1.43
99.26,-1.44
100.25,-1.47
101.25,-1.54
102.27,-1.59
103.29,-1.60
104.32,-1.62
105.37,-1.65
106.42,-1.67
107.48,-1.70
108.56,-1.72
109.64,-1.74
110.74,-1.76
111.85,-1.78
112.97,-1.79
114.10,-1.69
115.24,-1.69
116.39,-1.69
117.55,-1.69
118.73,-1.70
119.92,-1.77
121.12,-1.77
122.33,-1.76
123.55,-1.75
124.79,-1.75
126.03,-1.74
127.29,-1.73
128.57,-1.73
129.85,-1.72
131.15,-1.72
132.46,-1.71
133.79,-1.71
135.12,-1.70
136.48,-1.70
137.84,-1.70
139.22,-1.70
140.61,-1.69
142.02,-1.69
143.44,-1.69
144.87,-1.69
146.32,-1.69
147.78,-1.69
149.26,-1.69
150.75,-1.69
152.26,-1.69
153.78,-1.69
155.32,-1.69
156.88,-1.69
158.44,-1.73
160.03,-1.79
161.63,-1.79
163.24,-1.80
164.88,-1.79
166.53,-1.72
168.19,-1.71
169.87,-1.72
171.57,-1.72
173.29,-1.73
175.02,-1.73
176.77,-1.74
178.54,-1.74
180.32,-1.73
182.13,-1.73
183.95,-1.72
185.79,-1.71
187.65,-1.69
189.52,-1.68
191.42,-1.67
193.33,-1.65
195.27,-1.63
197.22,-1.62
199.19,-1.61
201.18,-1.60
203.19,-1.60
205.23,-1.60
207.28,-1.60
209.35,-1.60
211.44,-1.60
213.56,-1.60
215.69,-1.61
217.85,-1.61
220.03,-1.61
222.23,-1.62
224.45,-1.62
226.70,-1.62
228.96,-1.61
231.25,-1.61
233.57,-1.60
235.90,-1.58
238.26,-1.57
240.64,-1.55
243.05,-1.47
245.48,-1.42
247.93,-1.39
250.41,-1.37
252.92,-1.35
255.45,-1.34
258.00,-1.33
260.58,-1.33
263.19,-1.33
265.82,-1.33
268.48,-1.33
271.16,-1.33
273.87,-1.34
276.61,-1.34
279.38,-1.34
282.17,-1.34
284.99,-1.33
287.84,-1.32
290.72,-1.31
293.63,-1.30
296.57,-1.29
299.53,-1.27
302.53,-1.26
305.55,-1.25
308.61,-1.24
311.69,-1.24
314.81,-1.23
317.96,-1.23
321.14,-1.23
324.35,-1.23
327.59,-1.15
330.87,-1.13
334.18,-1.14
337.52,-1.14
340.90,-1.14
344.30,-1.14
347.75,-1.14
351.23,-1.14
354.74,-1.14
358.28,-1.13
361.87,-1.13
365.49,-1.12
369.14,-1.11
372.83,-1.10
376.56,-1.10
380.33,-1.09
384.13,-1.08
387.97,-1.08
391.85,-1.02
395.77,-0.98
399.73,-0.97
403.72,-0.97
407.76,-0.98
411.84,-0.98
415.96,-1.01
420.12,-1.07
424.32,-1.08
428.56,-1.07
432.85,-1.05
437.18,-1.02
441.55,-0.99
445.96,-0.95
450.42,-0.89
454.93,-0.84
459.48,-0.77
464.07,-0.71
468.71,-0.66
473.40,-0.59
478.13,-0.54
482.91,-0.50
487.74,-0.45
492.62,-0.42
497.55,-0.43
502.52,-0.45
507.55,-0.45
512.62,-0.43
517.75,-0.42
522.93,-0.43
528.16,-0.44
533.44,-0.45
538.77,-0.48
544.16,-0.52
549.60,-0.66
555.10,-0.73
560.65,-0.77
566.25,-0.82
571.92,-0.86
577.64,-0.89
583.41,-0.92
589.25,-0.94
595.14,-0.95
601.09,-0.94
607.10,-0.93
613.17,-0.92
619.30,-0.90
625.50,-0.77
631.75,-0.72
638.07,-0.75
644.45,-0.63
650.89,-0.54
657.40,-0.49
663.98,-0.44
670.62,-0.37
677.32,-0.38
684.10,-0.47
690.94,-0.47
697.85,-0.41
704.83,-0.42
711.87,-0.49
718.99,-0.51
726.18,-0.52
733.44,-0.54
740.78,-0.57
748.19,-0.58
755.67,-0.54
763.23,-0.47
770.86,-0.46
778.57,-0.48
786.35,-0.38
794.22,-0.32
802.16,-0.23
810.18,-0.19
818.28,-0.09
826.46,-0.02
834.73,0.02
843.08,0.03
851.51,0.03
860.02,0.09
868.62,0.11
877.31,0.11
886.08,0.10
894.94,0.09
903.89,0.08
912.93,0.08
922.06,0.08
931.28,0.07
940.59,0.08
950.00,0.12
959.50,0.09
969.09,0.06
978.78,0.01
988.57,0.01
998.46,0.00
1008.44,-0.04
1018.53,-0.04
1028.71,-0.02
1039.00,-0.07
1049.39,-0.09
1059.88,-0.10
1070.48,-0.07
1081.19,-0.02
1092.00,0.05
1102.92,0.18
1113.95,0.24
1125.09,0.24
1136.34,0.25
1147.70,0.28
1159.18,0.28
1170.77,0.28
1182.48,0.24
1194.30,0.26
1206.25,0.29
1218.31,0.36
1230.49,0.40
1242.80,0.47
1255.22,0.56
1267.78,0.61
1280.45,0.74
1293.26,0.90
1306.19,1.05
1319.25,1.30
1332.45,1.49
1345.77,1.54
1359.23,1.60
1372.82,1.63
1386.55,1.65
1400.41,1.69
1414.42,1.74
1428.56,1.86
1442.85,1.94
1457.28,2.02
1471.85,2.07
1486.57,2.11
1501.43,2.14
1516.45,2.19
1531.61,2.29
1546.93,2.41
1562.40,2.45
1578.02,2.48
1593.80,2.54
1609.74,2.61
1625.84,2.67
1642.10,2.66
1658.52,2.67
1675.10,2.68
1691.85,2.70
1708.77,2.67
1725.86,2.64
1743.12,2.61
1760.55,2.59
1778.15,2.55
1795.94,2.47
1813.90,2.38
1832.03,2.41
1850.36,2.52
1868.86,2.62
1887.55,2.66
1906.42,2.70
1925.49,2.70
1944.74,2.74
1964.19,2.89
1983.83,3.02
2003.67,3.19
2023.71,3.37
2043.94,3.51
2064.38,3.69
2085.03,3.85
2105.88,3.92
2126.94,3.89
2148.20,3.86
2169.69,3.90
2191.38,3.90
2213.30,3.90
2235.43,3.91
2257.78,3.85
2280.36,3.78
2303.17,3.79
2326.20,3.81
2349.46,3.76
2372.95,3.81
2396.68,3.89
2420.65,4.05
2444.86,4.20
2469.31,4.20
2494.00,4.21
2518.94,4.29
2544.13,4.36
2569.57,4.41
2595.27,4.44
2621.22,4.64
2647.43,4.90
2673.90,5.03
2700.64,5.27
2727.65,5.45
2754.93,5.56
2782.48,5.62
2810.30,5.68
2838.40,5.70
2866.79,5.70
2895.46,5.62
2924.41,5.72
2953.65,5.91
2983.19,6.03
3013.02,6.07
3043.15,6.17
3073.58,6.22
3104.32,6.27
3135.36,6.41
3166.72,6.47
3198.38,6.45
3230.37,6.40
3262.67,6.44
3295.30,6.37
3328.25,6.17
3361.53,6.12
3395.15,6.11
3429.10,6.06
3463.39,6.06
3498.03,6.01
3533.01,5.80
3568.34,5.61
3604.02,5.41
3640.06,5.07
3676.46,4.77
3713.22,4.47
3750.36,3.92
3787.86,3.52
3825.74,3.23
3864.00,2.86
3902.64,2.56
3941.66,2.32
3981.08,2.03
4020.89,1.80
4061.10,1.68
4101.71,1.61
4142.73,1.45
4184.15,1.27
4226.00,1.07
4268.26,0.79
4310.94,0.44
4354.05,0.14
4397.59,-0.13
4441.56,-0.50
4485.98,-0.77
4530.84,-0.99
4576.15,-0.84
4621.91,-0.53
4668.13,-0.24
4714.81,0.06
4761.96,0.43
4809.58,0.84
4857.67,1.37
4906.25,1.89
4955.31,2.25
5004.87,2.65
5054.91,3.12
5105.46,3.45
5156.52,3.64
5208.08,3.88
5260.16,2.90
5312.77,1.58
5365.89,0.21
5419.55,-1.70
5473.75,-2.88
5528.49,-3.31
5583.77,-3.69
5639.61,-4.09
5696.00,-5.16
5752.96,-6.09
5810.49,-6.48
5868.60,-6.30
5927.28,-5.99
5986.56,-6.00
6046.42,-6.07
6106.89,-6.29
6167.96,-6.74
6229.64,-6.92
6291.93,-7.04
6354.85,-6.98
6418.40,-6.83
6482.58,-6.64
6547.41,-6.45
6612.88,-6.19
6679.01,-6.11
6745.80,-6.12
6813.26,-6.05
6881.39,-5.98
6950.21,-5.88
7019.71,-5.80
7089.91,-5.70
7160.81,-5.50
7232.41,-5.43
7304.74,-5.59
7377.79,-5.84
7451.56,-6.16
7526.08,-6.49
7601.34,-6.65
7677.35,-6.73
7754.13,-6.93
7831.67,-7.19
7909.98,-7.47
7989.08,-7.86
8068.98,-8.28
8149.67,-8.57
8231.16,-8.84
8313.47,-9.15
8396.61,-9.24
8480.57,-9.19
8565.38,-8.47
8651.03,-7.98
8737.54,-7.38
8824.92,-6.47
8913.17,-5.62
9002.30,-4.88
9092.32,-3.78
9183.25,-2.82
9275.08,-2.10
9367.83,-1.54
9461.51,-0.93
9556.12,-0.43
9651.68,-0.13
9748.20,-0.00
9845.68,-0.50
9944.14,-0.92
10043.58,-1.62
10144.02,-2.51
10245.46,-3.12
10347.91,-3.69
10451.39,-4.14
10555.91,-5.12
10661.46,-5.77
10768.08,-6.41
10875.76,-6.93
10984.52,-7.08
11094.36,-7.16
11205.31,-7.84
11317.36,-8.39
11430.53,-8.87
11544.84,-9.30
11660.29,-8.93
11776.89,-7.87
11894.66,-6.74
12013.60,-6.47
12133.74,-6.24
12255.08,-5.46
12377.63,-4.71
12501.41,-4.26
12626.42,-4.03
12752.68,-4.11
12880.21,-4.18
13009.01,-4.71
13139.10,-5.00
13270.49,-4.47
13403.20,-4.61
13537.23,-4.51
13672.60,-6.75
13809.33,-9.21
13947.42,-10.71
14086.90,-11.11
14227.77,-10.28
14370.04,-7.97
14513.74,-5.95
14658.88,-5.43
14805.47,-5.68
14953.52,-6.51
15103.06,-7.42
15254.09,-8.27
15406.63,-9.30
15560.70,-10.92
15716.30,-11.92
15873.47,-11.49
16032.20,-10.65
16192.52,-10.08
16354.45,-9.62
16517.99,-8.54
16683.17,-7.36
16850.01,-6.91
17018.51,-7.09
17188.69,-6.79
17360.58,-6.62
17534.18,-6.02
17709.53,-5.93
17886.62,-7.38
18065.49,-8.76
18246.14,-9.37
18428.60,-9.28
18612.89,-7.53
18799.02,-5.81
18987.01,-2.99
19176.88,-2.76
19368.65,-3.10
19562.33,-3.68
19757.96,-4.16
19955.54,-4.31
