frequency,raw,error,smoothed,error_smoothed,equalization,parametric_eq,fixed_band_eq,equalized_raw,equalized_smoothed,target
20.00,13.04,9.10,13.04,9.10,-9.08,-9.02,-3.97,3.96,3.96,3.94
20.20,13.04,9.11,13.04,9.11,-9.10,-9.01,-4.07,3.94,3.94,3.93
20.40,13.04,9.11,13.04,9.11,-9.12,-9.00,-4.18,3.92,3.92,3.93
20.61,13.04,9.11,13.04,9.12,-9.13,-8.99,-4.30,3.91,3.91,3.93
20.81,13.04,9.13,13.04,9.13,-9.14,-8.98,-4.41,3.90,3.90,3.91
21.02,13.04,9.13,13.04,9.13,-9.14,-8.97,-4.53,3.90,3.90,3.91
21.23,13.04,9.13,13.04,9.13,-9.14,-8.96,-4.66,3.90,3.90,3.91
21.44,13.04,9.12,13.04,9.13,-9.13,-8.95,-4.78,3.91,3.91,3.92
21.66,13.04,9.13,13.04,9.13,-9.12,-8.94,-4.91,3.92,3.92,3.91
21.87,13.04,9.12,13.04,9.12,-9.10,-8.93,-5.05,3.94,3.93,3.92
22.09,13.02,9.11,13.01,9.10,-9.07,-8.92,-5.18,3.95,3.94,3.91
22.31,12.97,9.05,12.97,9.06,-9.04,-8.91,-5.32,3.93,3.93,3.92
22.54,12.92,9.02,12.92,9.01,-9.01,-8.90,-5.47,3.91,3.91,3.91
22.76,12.87,8.95,12.87,8.96,-8.98,-8.89,-5.62,3.89,3.89,3.92
22.99,12.82,8.91,12.84,8.92,-8.95,-8.88,-5.77,3.87,3.89,3.91
23.22,12.82,8.91,12.82,8.90,-8.92,-8.86,-5.93,3.90,3.90,3.91
23.45,12.82,8.90,12.82,8.90,-8.91,-8.85,-6.08,3.92,3.91,3.92
23.69,12.82,8.90,12.82,8.90,-8.90,-8.84,-6.25,3.92,3.92,3.92
23.92,12.82,8.90,12.82,8.89,-8.89,-8.83,-6.41,3.93,3.93,3.92
24.16,12.82,8.89,12.82,8.89,-8.89,-8.81,-6.58,3.93,3.93,3.93
24.40,12.82,8.88,12.82,8.89,-8.88,-8.80,-6.76,3.94,3.94,3.94
24.65,12.82,8.88,12.82,8.88,-8.87,-8.79,-6.93,3.95,3.96,3.94
24.89,12.82,8.88,12.81,8.87,-8.84,-8.77,-7.11,3.98,3.97,3.94
25.14,12.79,8.85,12.78,8.84,-8.81,-8.76,-7.30,3.98,3.97,3.94
25.39,12.73,8.78,12.73,8.79,-8.77,-8.75,-7.48,3.95,3.96,3.95
25.65,12.67,8.72,12.67,8.73,-8.74,-8.73,-7.67,3.93,3.93,3.95
25.91,12.61,8.68,12.62,8.68,-8.71,-8.72,-7.85,3.90,3.91,3.94
26.16,12.59,8.65,12.59,8.65,-8.68,-8.70,-8.04,3.91,3.91,3.95
26.43,12.59,8.65,12.59,8.64,-8.67,-8.69,-8.23,3.92,3.92,3.94
26.69,12.59,8.65,12.59,8.65,-8.66,-8.67,-8.42,3.93,3.93,3.94
26.96,12.59,8.66,12.59,8.66,-8.65,-8.66,-8.61,3.94,3.94,3.93
27.23,12.59,8.66,12.59,8.66,-8.65,-8.64,-8.79,3.94,3.94,3.93
27.50,12.59,8.66,12.60,8.66,-8.64,-8.62,-8.98,3.95,3.96,3.93
27.77,12.59,8.65,12.59,8.66,-8.62,-8.61,-9.15,3.97,3.97,3.94
28.05,12.58,8.65,12.56,8.63,-8.60,-8.59,-9.33,3.98,3.96,3.93
28.33,12.51,8.58,12.51,8.59,-8.58,-8.57,-9.49,3.93,3.94,3.93
28.62,12.45,8.54,12.45,8.53,-8.55,-8.56,-9.65,3.90,3.90,3.92
28.90,12.38,8.46,12.39,8.48,-8.52,-8.54,-9.80,3.86,3.87,3.92
29.19,12.36,8.45,12.37,8.46,-8.49,-8.52,-9.94,3.87,3.88,3.91
29.48,12.36,8.46,12.36,8.45,-8.45,-8.50,-10.07,3.91,3.91,3.90
29.78,12.36,8.46,12.36,8.46,-8.42,-8.49,-10.18,3.94,3.94,3.90
30.08,12.34,8.44,12.33,8.44,-8.39,-8.47,-10.28,3.95,3.94,3.90
30.38,12.27,8.40,12.27,8.39,-8.36,-8.45,-10.37,3.91,3.90,3.88
30.68,12.20,8.33,12.20,8.33,-8.35,-8.43,-10.43,3.86,3.86,3.87
30.99,12.13,8.27,12.15,8.29,-8.33,-8.41,-10.49,3.80,3.82,3.86
31.30,12.13,8.28,12.13,8.27,-8.32,-8.39,-10.52,3.81,3.81,3.85
31.61,12.13,8.28,12.12,8.28,-8.31,-8.37,-10.54,3.82,3.82,3.85
31.93,12.13,8.30,12.13,8.30,-8.30,-8.35,-10.54,3.84,3.84,3.83
32.24,12.13,8.30,12.14,8.31,-8.28,-8.33,-10.53,3.85,3.85,3.83
32.57,12.13,8.31,12.14,8.31,-8.27,-8.31,-10.50,3.86,3.87,3.82
32.89,12.13,8.31,12.12,8.30,-8.25,-8.29,-10.45,3.88,3.86,3.82
33.22,12.08,8.26,12.07,8.25,-8.23,-8.27,-10.39,3.85,3.84,3.82
33.55,12.00,8.18,12.00,8.19,-8.20,-8.25,-10.32,3.80,3.80,3.82
33.89,11.93,8.11,11.94,8.13,-8.17,-8.23,-10.24,3.76,3.78,3.82
34.23,11.90,8.09,11.91,8.10,-8.12,-8.21,-10.15,3.78,3.79,3.81
34.57,11.90,8.08,11.90,8.08,-8.07,-8.19,-10.05,3.83,3.83,3.82
34.92,11.90,8.09,11.88,8.07,-8.03,-8.17,-9.94,3.87,3.85,3.81
35.27,11.84,8.02,11.83,8.02,-7.99,-8.15,-9.83,3.85,3.84,3.82
35.62,11.76,7.96,11.77,7.96,-7.97,-8.13,-9.71,3.79,3.80,3.80
35.97,11.69,7.90,11.71,7.91,-7.95,-8.11,-9.59,3.74,3.76,3.80
36.33,11.68,7.89,11.68,7.90,-7.94,-8.08,-9.47,3.74,3.75,3.79
36.70,11.68,7.91,11.68,7.90,-7.92,-8.06,-9.35,3.76,3.76,3.77
37.06,11.68,7.93,11.68,7.92,-7.90,-8.04,-9.23,3.78,3.77,3.75
37.43,11.66,7.92,11.67,7.93,-7.89,-8.02,-9.11,3.77,3.77,3.74
37.81,11.64,7.92,11.64,7.92,-7.89,-8.00,-8.99,3.75,3.75,3.72
38.19,11.60,7.90,11.59,7.89,-7.89,-7.98,-8.87,3.72,3.70,3.70
38.57,11.53,7.85,11.53,7.85,-7.88,-7.96,-8.75,3.65,3.65,3.68
38.95,11.46,7.81,11.48,7.84,-7.86,-7.94,-8.64,3.60,3.62,3.65
39.34,11.45,7.84,11.46,7.84,-7.84,-7.91,-8.54,3.61,3.62,3.61
39.74,11.45,7.87,11.44,7.85,-7.82,-7.89,-8.43,3.63,3.62,3.58
40.14,11.42,7.86,11.40,7.84,-7.80,-7.87,-8.33,3.62,3.59,3.56
40.54,11.33,7.80,11.33,7.80,-7.80,-7.85,-8.24,3.53,3.53,3.53
40.94,11.23,7.73,11.26,7.76,-7.79,-7.83,-8.15,3.44,3.47,3.50
41.35,11.22,7.74,11.22,7.74,-7.79,-7.81,-8.06,3.43,3.43,3.48
41.76,11.22,7.76,11.21,7.75,-7.78,-7.79,-7.98,3.44,3.43,3.46
42.18,11.22,7.78,11.23,7.79,-7.77,-7.78,-7.91,3.45,3.46,3.44
42.60,11.22,7.81,11.22,7.81,-7.75,-7.76,-7.84,3.47,3.47,3.41
43.03,11.21,7.82,11.18,7.79,-7.75,-7.74,-7.78,3.46,3.43,3.39
43.46,11.11,7.75,11.11,7.75,-7.74,-7.72,-7.72,3.37,3.37,3.36
43.90,11.01,7.67,11.04,7.70,-7.74,-7.70,-7.67,3.28,3.31,3.34
44.33,10.99,7.67,11.00,7.68,-7.72,-7.69,-7.62,3.27,3.27,3.32
44.78,10.99,7.70,10.98,7.68,-7.70,-7.67,-7.58,3.29,3.28,3.29
45.23,10.98,7.70,10.98,7.71,-7.69,-7.66,-7.55,3.29,3.29,3.28
45.68,10.95,7.71,10.95,7.71,-7.67,-7.64,-7.52,3.28,3.28,3.24
46.13,10.91,7.71,10.89,7.68,-7.67,-7.62,-7.50,3.24,3.23,3.20
46.60,10.83,7.66,10.83,7.65,-7.66,-7.61,-7.48,3.17,3.17,3.18
47.06,10.76,7.60,10.79,7.64,-7.66,-7.60,-7.46,3.10,3.13,3.16
47.53,10.76,7.63,10.76,7.64,-7.65,-7.58,-7.45,3.11,3.11,3.13
48.01,10.76,7.68,10.73,7.65,-7.65,-7.57,-7.45,3.11,3.09,3.08
48.49,10.70,7.65,10.70,7.65,-7.64,-7.56,-7.45,3.06,3.06,3.05
48.97,10.63,7.62,10.64,7.64,-7.63,-7.55,-7.46,3.00,3.01,3.01
49.46,10.59,7.62,10.59,7.62,-7.62,-7.54,-7.47,2.97,2.97,2.98
49.96,10.54,7.62,10.55,7.62,-7.61,-7.53,-7.48,2.93,2.94,2.92
50.46,10.52,7.63,10.52,7.62,-7.60,-7.52,-7.50,2.92,2.92,2.89
50.96,10.49,7.62,10.46,7.60,-7.59,-7.51,-7.52,2.90,2.87,2.87
51.47,10.40,7.56,10.40,7.57,-7.59,-7.50,-7.54,2.81,2.81,2.84
51.99,10.31,7.52,10.34,7.54,-7.59,-7.50,-7.57,2.73,2.76,2.79
52.51,10.31,7.55,10.31,7.54,-7.59,-7.49,-7.60,2.72,2.72,2.76
53.03,10.31,7.57,10.31,7.59,-7.59,-7.48,-7.63,2.73,2.73,2.74
53.56,10.31,7.63,10.31,7.62,-7.58,-7.48,-7.66,2.73,2.72,2.68
54.10,10.29,7.65,10.25,7.61,-7.57,-7.47,-7.69,2.72,2.68,2.64
54.64,10.16,7.56,10.19,7.59,-7.56,-7.47,-7.72,2.60,2.62,2.60
55.18,10.08,7.53,10.12,7.56,-7.55,-7.47,-7.76,2.53,2.57,2.56
55.74,10.08,7.56,10.05,7.52,-7.54,-7.46,-7.79,2.54,2.51,2.52
56.29,10.01,7.53,9.98,7.50,-7.52,-7.46,-7.82,2.49,2.47,2.48
56.86,9.88,7.42,9.92,7.46,-7.49,-7.46,-7.85,2.39,2.43,2.46
57.42,9.85,7.44,9.86,7.44,-7.46,-7.46,-7.87,2.39,2.40,2.42
58.00,9.85,7.46,9.85,7.46,-7.45,-7.46,-7.90,2.41,2.40,2.39
58.58,9.85,7.48,9.83,7.47,-7.44,-7.45,-7.92,2.41,2.40,2.37
59.16,9.81,7.46,9.78,7.44,-7.43,-7.45,-7.93,2.38,2.35,2.35
59.76,9.68,7.38,9.71,7.40,-7.43,-7.45,-7.94,2.25,2.28,2.31
60.35,9.63,7.38,9.65,7.39,-7.42,-7.45,-7.95,2.21,2.23,2.25
60.96,9.63,7.42,9.63,7.42,-7.42,-7.45,-7.95,2.21,2.22,2.21
61.57,9.63,7.47,9.61,7.45,-7.42,-7.45,-7.94,2.21,2.19,2.16
62.18,9.59,7.48,9.55,7.44,-7.42,-7.45,-7.93,2.17,2.13,2.11
62.80,9.44,7.38,9.48,7.42,-7.43,-7.46,-7.91,2.01,2.05,2.06
63.43,9.40,7.38,9.42,7.40,-7.44,-7.46,-7.89,1.96,1.98,2.02
64.07,9.40,7.42,9.39,7.41,-7.45,-7.46,-7.86,1.95,1.94,1.98
64.71,9.40,7.46,9.41,7.47,-7.46,-7.46,-7.82,1.94,1.95,1.94
65.35,9.40,7.50,9.40,7.50,-7.46,-7.46,-7.78,1.94,1.94,1.90
66.01,9.40,7.55,9.35,7.50,-7.46,-7.46,-7.74,1.94,1.89,1.85
66.67,9.25,7.44,9.28,7.47,-7.46,-7.46,-7.69,1.79,1.81,1.81
67.33,9.17,7.41,9.21,7.45,-7.46,-7.46,-7.63,1.71,1.75,1.76
68.01,9.17,7.45,9.16,7.44,-7.46,-7.46,-7.57,1.71,1.70,1.72
68.69,9.15,7.48,9.11,7.44,-7.45,-7.45,-7.51,1.71,1.67,1.67
69.37,9.06,7.42,9.05,7.42,-7.43,-7.45,-7.45,1.63,1.62,1.64
70.07,8.94,7.36,8.99,7.40,-7.42,-7.45,-7.38,1.53,1.57,1.58
70.77,8.94,7.40,8.95,7.41,-7.41,-7.45,-7.31,1.53,1.54,1.54
71.48,8.94,7.46,8.91,7.42,-7.41,-7.45,-7.24,1.53,1.50,1.48
72.19,8.89,7.45,8.85,7.42,-7.41,-7.44,-7.17,1.48,1.44,1.44
72.91,8.73,7.34,8.78,7.39,-7.41,-7.44,-7.10,1.32,1.37,1.39
73.64,8.71,7.38,8.72,7.38,-7.41,-7.44,-7.03,1.30,1.32,1.33
74.38,8.71,7.41,8.70,7.40,-7.40,-7.43,-6.96,1.31,1.30,1.30
75.12,8.70,7.44,8.69,7.43,-7.40,-7.43,-6.89,1.30,1.29,1.26
75.87,8.66,7.42,8.63,7.40,-7.39,-7.42,-6.83,1.27,1.24,1.24
76.63,8.55,7.35,8.57,7.37,-7.37,-7.41,-6.76,1.18,1.19,1.20
77.40,8.49,7.33,8.53,7.36,-7.36,-7.41,-6.70,1.13,1.17,1.17
78.17,8.49,7.36,8.48,7.35,-7.34,-7.40,-6.64,1.15,1.14,1.13
78.95,8.49,7.38,8.43,7.32,-7.31,-7.39,-6.59,1.18,1.11,1.11
79.74,8.32,7.24,8.36,7.28,-7.28,-7.38,-6.54,1.04,1.08,1.08
80.54,8.26,7.21,8.30,7.25,-7.25,-7.37,-6.49,1.01,1.05,1.05
81.35,8.26,7.25,8.25,7.22,-7.23,-7.36,-6.44,1.03,1.02,1.02
82.16,8.24,7.24,8.21,7.22,-7.21,-7.35,-6.40,1.03,1.00,1.00
82.98,8.15,7.19,8.15,7.19,-7.20,-7.34,-6.37,0.95,0.95,0.96
83.81,8.05,7.13,8.08,7.16,-7.18,-7.32,-6.33,0.87,0.89,0.92
84.65,8.03,7.15,8.04,7.16,-7.18,-7.31,-6.30,0.86,0.86,0.88
85.50,8.03,7.20,8.04,7.19,-7.17,-7.30,-6.28,0.86,0.87,0.84
86.35,8.03,7.23,8.00,7.20,-7.17,-7.28,-6.26,0.86,0.84,0.81
87.22,7.98,7.22,7.94,7.17,-7.16,-7.27,-6.25,0.82,0.78,0.76
88.09,7.80,7.08,7.87,7.14,-7.15,-7.25,-6.24,0.65,0.71,0.72
88.97,7.80,7.12,7.82,7.14,-7.15,-7.24,-6.23,0.65,0.67,0.68
89.86,7.80,7.16,7.78,7.14,-7.14,-7.22,-6.23,0.66,0.64,0.64
90.76,7.78,7.19,7.74,7.14,-7.13,-7.20,-6.24,0.65,0.61,0.59
91.66,7.64,7.09,7.66,7.11,-7.11,-7.19,-6.24,0.53,0.55,0.55
92.58,7.57,7.05,7.61,7.09,-7.10,-7.17,-6.26,0.47,0.50,0.52
93.51,7.57,7.10,7.57,7.09,-7.10,-7.15,-6.27,0.47,0.47,0.47
94.44,7.57,7.13,7.53,7.10,-7.10,-7.13,-6.29,0.47,0.43,0.44
95.39,7.48,7.10,7.47,7.09,-7.09,-7.11,-6.32,0.39,0.37,0.38
96.34,7.35,7.03,7.40,7.07,-7.09,-7.09,-6.35,0.27,0.32,0.32
97.30,7.35,7.06,7.36,7.08,-7.08,-7.07,-6.38,0.27,0.29,0.29
98.28,7.35,7.12,7.31,7.08,-7.06,-7.05,-6.42,0.29,0.25,0.23
99.26,7.29,7.11,7.26,7.07,-7.05,-7.03,-6.46,0.24,0.21,0.18
100.25,7.12,6.97,7.19,7.05,-7.03,-7.01,-6.50,0.09,0.16,0.15
101.25,7.12,7.01,7.12,7.01,-7.01,-6.99,-6.54,0.11,0.10,0.11
102.27,7.09,7.02,7.04,6.97,-6.99,-6.97,-6.59,0.10,0.05,0.07
103.29,6.97,6.94,6.99,6.95,-6.96,-6.95,-6.64,0.01,0.02,0.03
104.32,6.89,6.89,6.93,6.93,-6.93,-6.93,-6.70,-0.04,-0.00,0.01
105.37,6.89,6.92,6.89,6.92,-6.91,-6.91,-6.75,-0.02,-0.02,-0.03
106.42,6.89,6.95,6.84,6.91,-6.90,-6.89,-6.81,-0.00,-0.05,-0.06
107.48,6.79,6.90,6.78,6.88,-6.88,-6.87,-6.86,-0.09,-0.10,-0.11
108.56,6.67,6.80,6.71,6.84,-6.87,-6.85,-6.92,-0.20,-0.16,-0.13
109.64,6.66,6.82,6.66,6.83,-6.86,-6.83,-6.97,-0.20,-0.19,-0.16
110.74,6.66,6.85,6.67,6.86,-6.85,-6.81,-7.02,-0.18,-0.18,-0.19
111.85,6.66,6.89,6.64,6.87,-6.83,-6.79,-7.08,-0.17,-0.19,-0.23
112.97,6.64,6.90,6.58,6.83,-6.82,-6.77,-7.12,-0.18,-0.24,-0.26
114.10,6.43,6.72,6.50,6.80,-6.81,-6.75,-7.17,-0.38,-0.31,-0.29
115.24,6.43,6.77,6.45,6.79,-6.80,-6.73,-7.21,-0.37,-0.35,-0.34
116.39,6.43,6.81,6.40,6.78,-6.79,-6.71,-7.25,-0.36,-0.39,-0.38
117.55,6.42,6.84,6.37,6.79,-6.78,-6.69,-7.28,-0.36,-0.41,-0.42
118.73,6.26,6.73,6.30,6.76,-6.76,-6.68,-7.31,-0.50,-0.47,-0.46
119.92,6.21,6.72,6.24,6.75,-6.75,-6.66,-7.34,-0.54,-0.51,-0.51
121.12,6.21,6.74,6.20,6.75,-6.74,-6.64,-7.35,-0.53,-0.54,-0.53
122.33,6.21,6.80,6.17,6.75,-6.74,-6.63,-7.36,-0.53,-0.57,-0.59
123.55,6.11,6.73,6.10,6.72,-6.72,-6.61,-7.37,-0.61,-0.62,-0.62
124.79,5.99,6.65,6.04,6.70,-6.71,-6.60,-7.36,-0.72,-0.67,-0.66
126.03,5.98,6.68,5.99,6.70,-6.70,-6.58,-7.36,-0.72,-0.70,-0.70
127.29,5.98,6.74,5.95,6.70,-6.69,-6.57,-7.34,-0.71,-0.75,-0.76
128.57,5.93,6.73,5.89,6.69,-6.69,-6.56,-7.32,-0.76,-0.80,-0.80
129.85,5.77,6.62,5.82,6.66,-6.69,-6.54,-7.28,-0.91,-0.87,-0.85
131.15,5.75,6.64,5.76,6.65,-6.68,-6.53,-7.25,-0.93,-0.92,-0.88
132.46,5.75,6.68,5.75,6.68,-6.68,-6.52,-7.21,-0.93,-0.93,-0.93
133.79,5.75,6.72,5.74,6.72,-6.68,-6.51,-7.16,-0.93,-0.93,-0.97
135.12,5.74,6.76,5.69,6.70,-6.67,-6.50,-7.11,-0.93,-0.98,-1.02
136.48,5.58,6.62,5.61,6.66,-6.66,-6.49,-7.05,-1.08,-1.05,-1.04
137.84,5.52,6.60,5.56,6.64,-6.65,-6.48,-6.99,-1.13,-1.10,-1.08
139.22,5.52,6.64,5.51,6.63,-6.64,-6.47,-6.93,-1.12,-1.13,-1.12
140.61,5.52,6.68,5.48,6.63,-6.62,-6.46,-6.86,-1.10,-1.15,-1.16
142.02,5.41,6.60,5.42,6.60,-6.60,-6.46,-6.79,-1.19,-1.18,-1.19
143.44,5.32,6.54,5.35,6.57,-6.57,-6.45,-6.72,-1.25,-1.22,-1.22
144.87,5.29,6.53,5.30,6.55,-6.55,-6.44,-6.65,-1.26,-1.25,-1.24
146.32,5.29,6.56,5.27,6.54,-6.54,-6.44,-6.58,-1.25,-1.27,-1.27
147.78,5.24,6.55,5.21,6.52,-6.52,-6.43,-6.50,-1.28,-1.31,-1.31
149.26,5.13,6.47,5.15,6.49,-6.50,-6.43,-6.43,-1.37,-1.35,-1.34
150.75,5.07,6.45,5.10,6.47,-6.47,-6.42,-6.36,-1.40,-1.38,-1.38
152.26,5.07,6.46,5.08,6.47,-6.45,-6.42,-6.30,-1.38,-1.38,-1.39
153.78,5.07,6.50,5.04,6.47,-6.44,-6.42,-6.23,-1.37,-1.40,-1.43
155.32,5.02,6.47,4.98,6.44,-6.43,-6.41,-6.17,-1.41,-1.45,-1.45
156.88,4.86,6.35,4.91,6.40,-6.43,-6.41,-6.10,-1.57,-1.52,-1.49
158.44,4.84,6.36,4.85,6.37,-6.42,-6.41,-6.04,-1.58,-1.57,-1.52
160.03,4.84,6.39,4.83,6.38,-6.42,-6.40,-5.99,-1.58,-1.59,-1.55
161.63,4.84,6.43,4.86,6.44,-6.42,-6.40,-5.94,-1.57,-1.56,-1.59
163.24,4.84,6.47,4.84,6.46,-6.41,-6.40,-5.89,-1.57,-1.57,-1.63
164.88,4.84,6.50,4.78,6.44,-6.40,-6.40,-5.84,-1.56,-1.62,-1.66
166.53,4.66,6.36,4.70,6.39,-6.39,-6.39,-5.80,-1.73,-1.69,-1.70
168.19,4.61,6.32,4.65,6.37,-6.38,-6.39,-5.76,-1.77,-1.73,-1.71
169.87,4.61,6.36,4.60,6.35,-6.36,-6.39,-5.73,-1.75,-1.77,-1.75
171.57,4.61,6.40,4.55,6.34,-6.34,-6.39,-5.70,-1.73,-1.79,-1.79
173.29,4.47,6.29,4.49,6.31,-6.32,-6.38,-5.67,-1.85,-1.83,-1.82
175.02,4.38,6.24,4.42,6.29,-6.30,-6.38,-5.65,-1.92,-1.87,-1.86
176.77,4.38,6.28,4.38,6.28,-6.29,-6.38,-5.63,-1.91,-1.91,-1.90
178.54,4.38,6.32,4.35,6.29,-6.28,-6.37,-5.62,-1.90,-1.93,-1.94
180.32,4.31,6.29,4.30,6.28,-6.27,-6.37,-5.61,-1.96,-1.97,-1.98
182.13,4.21,6.23,4.23,6.25,-6.25,-6.36,-5.61,-2.04,-2.02,-2.02
183.95,4.16,6.22,4.19,6.25,-6.24,-6.36,-5.61,-2.08,-2.04,-2.05
185.79,4.16,6.27,4.15,6.25,-6.23,-6.35,-5.61,-2.07,-2.08,-2.11
187.65,4.16,6.30,4.09,6.23,-6.22,-6.34,-5.62,-2.06,-2.13,-2.14
189.52,3.98,6.16,4.02,6.20,-6.22,-6.34,-5.63,-2.24,-2.19,-2.18
191.42,3.93,6.14,3.96,6.16,-6.21,-6.33,-5.65,-2.28,-2.26,-2.21
193.33,3.93,6.17,3.92,6.16,-6.20,-6.32,-5.67,-2.27,-2.29,-2.24
195.27,3.93,6.21,3.94,6.22,-6.20,-6.31,-5.69,-2.27,-2.26,-2.28
197.22,3.93,6.25,3.93,6.25,-6.19,-6.30,-5.71,-2.26,-2.26,-2.32
199.19,3.92,6.27,3.88,6.23,-6.19,-6.29,-5.74,-2.27,-2.31,-2.35
201.18,3.79,6.17,3.80,6.18,-6.18,-6.27,-5.77,-2.39,-2.38,-2.38
203.19,3.70,6.11,3.74,6.14,-6.17,-6.26,-5.81,-2.47,-2.44,-2.41
205.23,3.70,6.12,3.71,6.13,-6.16,-6.24,-5.84,-2.46,-2.45,-2.42
207.28,3.70,6.15,3.69,6.15,-6.14,-6.23,-5.88,-2.44,-2.44,-2.45
209.35,3.70,6.18,3.65,6.13,-6.11,-6.21,-5.92,-2.41,-2.45,-2.48
211.44,3.57,6.08,3.58,6.09,-6.08,-6.19,-5.96,-2.51,-2.50,-2.51
213.56,3.48,6.01,3.52,6.05,-6.05,-6.18,-6.00,-2.57,-2.53,-2.53
215.69,3.47,6.02,3.47,6.02,-6.03,-6.16,-6.04,-2.55,-2.55,-2.55
217.85,3.47,6.04,3.43,6.01,-6.00,-6.13,-6.08,-2.53,-2.57,-2.57
220.03,3.38,5.99,3.37,5.98,-5.98,-6.11,-6.11,-2.60,-2.61,-2.61
222.23,3.28,5.92,3.31,5.94,-5.96,-6.09,-6.15,-2.68,-2.66,-2.64
224.45,3.24,5.90,3.25,5.91,-5.95,-6.06,-6.18,-2.71,-2.70,-2.66
226.70,3.24,5.92,3.24,5.92,-5.93,-6.04,-6.22,-2.69,-2.70,-2.68
228.96,3.24,5.94,3.25,5.95,-5.92,-6.01,-6.25,-2.68,-2.67,-2.70
231.25,3.24,5.96,3.22,5.94,-5.90,-5.98,-6.27,-2.66,-2.68,-2.72
233.57,3.21,5.95,3.16,5.90,-5.88,-5.95,-6.29,-2.67,-2.72,-2.74
235.90,3.03,5.79,3.09,5.85,-5.85,-5.92,-6.30,-2.82,-2.76,-2.76
238.26,3.02,5.81,3.04,5.82,-5.82,-5.89,-6.32,-2.80,-2.78,-2.79
240.64,3.02,5.81,3.00,5.79,-5.79,-5.86,-6.32,-2.77,-2.79,-2.79
243.05,3.01,5.82,2.96,5.77,-5.75,-5.83,-6.32,-2.74,-2.80,-2.80
245.48,2.85,5.67,2.88,5.70,-5.72,-5.79,-6.31,-2.87,-2.84,-2.82
247.93,2.79,5.63,2.82,5.65,-5.69,-5.76,-6.30,-2.90,-2.88,-2.84
250.41,2.79,5.63,2.78,5.62,-5.66,-5.72,-6.27,-2.87,-2.89,-2.84
252.92,2.79,5.65,2.80,5.65,-5.64,-5.68,-6.25,-2.85,-2.84,-2.85
255.45,2.79,5.66,2.79,5.66,-5.61,-5.64,-6.21,-2.82,-2.82,-2.87
258.00,2.79,5.67,2.74,5.62,-5.58,-5.60,-6.17,-2.79,-2.84,-2.88
260.58,2.65,5.54,2.67,5.56,-5.56,-5.56,-6.12,-2.91,-2.89,-2.88
263.19,2.57,5.46,2.60,5.49,-5.53,-5.52,-6.07,-2.95,-2.92,-2.89
265.82,2.56,5.46,2.56,5.46,-5.49,-5.48,-6.00,-2.92,-2.92,-2.90
268.48,2.56,5.46,2.56,5.46,-5.44,-5.43,-5.94,-2.88,-2.88,-2.90
271.16,2.56,5.46,2.53,5.43,-5.40,-5.39,-5.87,-2.84,-2.87,-2.90
273.87,2.48,5.38,2.46,5.37,-5.36,-5.34,-5.79,-2.88,-2.90,-2.90
276.61,2.35,5.26,2.39,5.30,-5.33,-5.30,-5.71,-2.98,-2.94,-2.91
279.38,2.33,5.25,2.34,5.25,-5.30,-5.25,-5.63,-2.96,-2.96,-2.92
282.17,2.33,5.25,2.33,5.24,-5.26,-5.20,-5.54,-2.93,-2.93,-2.92
284.99,2.33,5.24,2.34,5.25,-5.22,-5.16,-5.46,-2.89,-2.88,-2.91
287.84,2.33,5.24,2.30,5.21,-5.18,-5.11,-5.36,-2.84,-2.87,-2.91
290.72,2.26,5.17,2.24,5.14,-5.13,-5.06,-5.27,-2.87,-2.89,-2.91
293.63,2.12,5.03,2.16,5.07,-5.08,-5.01,-5.18,-2.96,-2.91,-2.90
296.57,2.10,5.00,2.13,5.03,-5.03,-4.96,-5.09,-2.92,-2.90,-2.90
299.53,2.10,5.00,2.08,4.98,-4.97,-4.91,-4.99,-2.87,-2.89,-2.90
302.53,2.10,4.99,2.03,4.93,-4.92,-4.86,-4.90,-2.82,-2.89,-2.89
305.55,1.91,4.80,1.96,4.85,-4.87,-4.81,-4.81,-2.96,-2.91,-2.89
308.61,1.88,4.76,1.90,4.78,-4.83,-4.75,-4.72,-2.95,-2.93,-2.88
311.69,1.88,4.77,1.87,4.75,-4.79,-4.70,-4.62,-2.91,-2.92,-2.89
314.81,1.88,4.76,1.89,4.77,-4.75,-4.65,-4.54,-2.87,-2.85,-2.88
317.96,1.88,4.76,1.87,4.76,-4.71,-4.60,-4.45,-2.82,-2.83,-2.88
321.14,1.87,4.75,1.82,4.69,-4.66,-4.54,-4.36,-2.79,-2.85,-2.87
324.35,1.70,4.58,1.74,4.61,-4.61,-4.49,-4.28,-2.91,-2.87,-2.88
327.59,1.65,4.50,1.69,4.55,-4.56,-4.44,-4.20,-2.90,-2.87,-2.85
330.87,1.65,4.50,1.64,4.49,-4.50,-4.38,-4.12,-2.85,-2.86,-2.85
334.18,1.65,4.51,1.60,4.45,-4.44,-4.33,-4.04,-2.79,-2.84,-2.85
337.52,1.52,4.37,1.54,4.38,-4.38,-4.28,-3.97,-2.86,-2.85,-2.85
340.90,1.44,4.27,1.47,4.30,-4.33,-4.22,-3.90,-2.89,-2.87,-2.83
344.30,1.42,4.24,1.42,4.24,-4.28,-4.17,-3.83,-2.86,-2.86,-2.82
347.75,1.42,4.23,1.42,4.24,-4.23,-4.12,-3.77,-2.81,-2.81,-2.81
351.23,1.42,4.24,1.42,4.23,-4.19,-4.06,-3.70,-2.77,-2.77,-2.82
354.74,1.42,4.21,1.38,4.18,-4.14,-4.01,-3.64,-2.72,-2.76,-2.79
358.28,1.31,4.10,1.32,4.10,-4.10,-3.95,-3.59,-2.79,-2.78,-2.79
361.87,1.22,4.00,1.25,4.02,-4.05,-3.90,-3.53,-2.83,-2.81,-2.78
365.49,1.19,3.96,1.20,3.97,-4.00,-3.85,-3.48,-2.81,-2.80,-2.77
369.14,1.19,3.96,1.20,3.96,-3.95,-3.79,-3.43,-2.76,-2.75,-2.76
372.83,1.19,3.95,1.17,3.93,-3.89,-3.74,-3.38,-2.70,-2.73,-2.76
376.56,1.14,3.90,1.11,3.86,-3.85,-3.69,-3.34,-2.70,-2.74,-2.76
380.33,0.99,3.74,1.03,3.78,-3.81,-3.63,-3.30,-2.81,-2.77,-2.75
384.13,0.96,3.70,0.97,3.72,-3.76,-3.58,-3.26,-2.80,-2.79,-2.74
387.97,0.96,3.70,0.95,3.69,-3.72,-3.53,-3.22,-2.76,-2.76,-2.74
391.85,0.96,3.69,0.97,3.71,-3.67,-3.48,-3.19,-2.71,-2.70,-2.73
395.77,0.96,3.70,0.94,3.68,-3.63,-3.42,-3.15,-2.67,-2.69,-2.74
399.73,0.90,3.64,0.88,3.61,-3.59,-3.37,-3.12,-2.69,-2.71,-2.74
403.72,0.78,3.50,0.81,3.53,-3.56,-3.32,-3.09,-2.77,-2.75,-2.72
407.76,0.74,3.46,0.75,3.46,-3.52,-3.27,-3.07,-2.78,-2.76,-2.72
411.84,0.74,3.44,0.73,3.43,-3.47,-3.22,-3.04,-2.73,-2.73,-2.70
415.96,0.74,3.43,0.75,3.45,-3.41,-3.16,-3.02,-2.67,-2.66,-2.69
420.12,0.74,3.43,0.73,3.42,-3.36,-3.11,-3.00,-2.62,-2.63,-2.69
424.32,0.72,3.39,0.67,3.35,-3.32,-3.06,-2.97,-2.60,-2.64,-2.67
428.56,0.57,3.22,0.60,3.26,-3.28,-3.01,-2.95,-2.71,-2.68,-2.65
432.85,0.51,3.15,0.54,3.18,-3.23,-2.96,-2.93,-2.72,-2.70,-2.64
437.18,0.51,3.14,0.50,3.13,-3.18,-2.91,-2.91,-2.67,-2.68,-2.63
441.55,0.51,3.14,0.52,3.14,-3.12,-2.86,-2.89,-2.61,-2.60,-2.62
445.96,0.51,3.12,0.51,3.12,-3.06,-2.81,-2.87,-2.55,-2.55,-2.61
450.42,0.51,3.11,0.45,3.04,-3.01,-2.76,-2.85,-2.50,-2.56,-2.60
454.93,0.33,2.91,0.37,2.95,-2.97,-2.72,-2.83,-2.64,-2.59,-2.58
459.48,0.28,2.85,0.31,2.87,-2.92,-2.67,-2.81,-2.64,-2.61,-2.57
464.07,0.28,2.83,0.27,2.81,-2.86,-2.62,-2.79,-2.58,-2.60,-2.55
468.71,0.28,2.81,0.29,2.83,-2.80,-2.57,-2.77,-2.52,-2.51,-2.53
473.40,0.28,2.80,0.28,2.79,-2.74,-2.52,-2.75,-2.46,-2.46,-2.52
478.13,0.28,2.78,0.22,2.72,-2.69,-2.48,-2.72,-2.41,-2.47,-2.50
482.91,0.10,2.59,0.14,2.63,-2.65,-2.43,-2.70,-2.54,-2.50,-2.49
487.74,0.05,2.52,0.08,2.55,-2.60,-2.38,-2.67,-2.55,-2.52,-2.47
