frequency,raw,smoothed,error,error_smoothed,equalization,parametric_eq,fixed_band_eq,equalized_raw,equalized_smoothed,target
20.00,7.64,7.64,0.03,0.03,-0.03,-0.06,-0.11,7.61,7.61,7.61
20.20,7.65,7.65,0.04,0.04,-0.04,-0.06,-0.11,7.61,7.61,7.61
20.40,7.66,7.66,0.06,0.06,-0.06,-0.06,-0.12,7.61,7.61,7.61
20.61,7.67,7.67,0.07,0.07,-0.07,-0.06,-0.12,7.60,7.60,7.61
20.81,7.68,7.68,0.08,0.08,-0.08,-0.07,-0.12,7.60,7.60,7.61
21.02,7.69,7.69,0.09,0.09,-0.09,-0.07,-0.13,7.60,7.60,7.61
21.23,7.70,7.70,0.10,0.10,-0.10,-0.07,-0.13,7.60,7.60,7.60
21.44,7.71,7.71,0.11,0.11,-0.11,-0.07,-0.13,7.60,7.60,7.60
21.66,7.72,7.72,0.12,0.12,-0.12,-0.08,-0.14,7.60,7.60,7.60
21.87,7.73,7.73,0.13,0.13,-0.13,-0.08,-0.14,7.60,7.60,7.60
22.09,7.74,7.74,0.14,0.14,-0.14,-0.08,-0.14,7.61,7.60,7.60
22.31,7.74,7.75,0.14,0.15,-0.14,-0.08,-0.15,7.60,7.60,7.60
22.54,7.75,7.75,0.15,0.15,-0.15,-0.09,-0.15,7.60,7.60,7.60
22.76,7.75,7.75,0.15,0.15,-0.15,-0.09,-0.15,7.60,7.60,7.60
22.99,7.75,7.75,0.15,0.16,-0.16,-0.09,-0.16,7.59,7.60,7.60
23.22,7.75,7.76,0.16,0.16,-0.16,-0.10,-0.16,7.59,7.60,7.60
23.45,7.76,7.76,0.17,0.16,-0.16,-0.10,-0.17,7.60,7.60,7.60
23.69,7.76,7.76,0.17,0.17,-0.17,-0.10,-0.17,7.60,7.59,7.59
23.92,7.76,7.76,0.17,0.17,-0.17,-0.11,-0.18,7.59,7.59,7.59
24.16,7.76,7.77,0.17,0.17,-0.17,-0.11,-0.18,7.59,7.59,7.59
24.40,7.77,7.77,0.18,0.18,-0.18,-0.11,-0.19,7.59,7.59,7.59
24.65,7.77,7.77,0.18,0.18,-0.18,-0.12,-0.19,7.59,7.59,7.59
24.89,7.77,7.78,0.18,0.19,-0.19,-0.12,-0.19,7.58,7.59,7.59
25.14,7.78,7.78,0.20,0.20,-0.20,-0.12,-0.20,7.58,7.58,7.59
25.39,7.79,7.79,0.21,0.21,-0.21,-0.13,-0.20,7.58,7.58,7.59
25.65,7.80,7.80,0.22,0.22,-0.22,-0.13,-0.21,7.58,7.58,7.58
25.91,7.81,7.81,0.23,0.23,-0.23,-0.13,-0.21,7.58,7.58,7.58
26.16,7.82,7.82,0.24,0.24,-0.24,-0.14,-0.22,7.58,7.58,7.58
26.43,7.83,7.83,0.25,0.25,-0.24,-0.14,-0.22,7.59,7.59,7.58
26.69,7.83,7.83,0.25,0.25,-0.24,-0.14,-0.23,7.59,7.59,7.58
26.96,7.82,7.82,0.25,0.25,-0.23,-0.15,-0.23,7.59,7.59,7.58
27.23,7.80,7.80,0.23,0.23,-0.21,-0.15,-0.24,7.59,7.59,7.57
27.50,7.77,7.77,0.20,0.20,-0.19,-0.15,-0.24,7.58,7.58,7.57
27.77,7.74,7.74,0.17,0.17,-0.17,-0.16,-0.25,7.57,7.57,7.57
28.05,7.71,7.71,0.14,0.15,-0.15,-0.16,-0.25,7.56,7.56,7.57
28.33,7.69,7.69,0.13,0.13,-0.14,-0.17,-0.26,7.55,7.55,7.57
28.62,7.68,7.68,0.12,0.12,-0.14,-0.17,-0.26,7.55,7.55,7.56
28.90,7.68,7.69,0.12,0.12,-0.14,-0.17,-0.26,7.54,7.55,7.56
29.19,7.70,7.70,0.14,0.14,-0.15,-0.18,-0.27,7.55,7.55,7.56
29.48,7.72,7.72,0.17,0.17,-0.17,-0.18,-0.27,7.55,7.55,7.56
29.78,7.75,7.75,0.20,0.20,-0.20,-0.19,-0.27,7.56,7.56,7.55
30.08,7.78,7.78,0.23,0.23,-0.22,-0.19,-0.28,7.56,7.56,7.55
30.38,7.81,7.81,0.26,0.26,-0.24,-0.19,-0.28,7.57,7.56,7.55
30.68,7.82,7.82,0.28,0.27,-0.26,-0.20,-0.28,7.56,7.56,7.55
30.99,7.82,7.83,0.28,0.28,-0.27,-0.20,-0.28,7.55,7.55,7.54
31.30,7.82,7.82,0.28,0.28,-0.28,-0.21,-0.28,7.55,7.54,7.54
31.61,7.81,7.81,0.28,0.28,-0.28,-0.21,-0.29,7.54,7.54,7.54
31.93,7.80,7.80,0.27,0.27,-0.27,-0.22,-0.29,7.53,7.53,7.53
32.24,7.79,7.79,0.26,0.26,-0.27,-0.22,-0.29,7.52,7.52,7.53
32.57,7.78,7.78,0.26,0.26,-0.26,-0.22,-0.29,7.52,7.52,7.53
32.89,7.78,7.78,0.26,0.26,-0.26,-0.23,-0.29,7.52,7.52,7.52
33.22,7.77,7.77,0.25,0.25,-0.25,-0.23,-0.29,7.52,7.52,7.52
33.55,7.77,7.77,0.26,0.25,-0.25,-0.24,-0.29,7.52,7.52,7.52
33.89,7.76,7.76,0.25,0.25,-0.26,-0.24,-0.29,7.51,7.51,7.51
34.23,7.76,7.76,0.25,0.26,-0.26,-0.25,-0.29,7.50,7.50,7.51
34.57,7.76,7.76,0.26,0.26,-0.26,-0.25,-0.29,7.50,7.50,7.50
34.92,7.76,7.76,0.26,0.26,-0.26,-0.26,-0.29,7.50,7.50,7.50
35.27,7.76,7.76,0.27,0.27,-0.27,-0.26,-0.28,7.50,7.50,7.49
35.62,7.76,7.76,0.27,0.27,-0.27,-0.26,-0.28,7.49,7.49,7.49
35.97,7.76,7.76,0.28,0.28,-0.27,-0.27,-0.28,7.49,7.49,7.48
36.33,7.75,7.75,0.27,0.27,-0.27,-0.27,-0.28,7.48,7.48,7.48
36.70,7.74,7.74,0.27,0.27,-0.27,-0.28,-0.28,7.47,7.47,7.47
37.06,7.73,7.73,0.26,0.26,-0.27,-0.28,-0.28,7.46,7.46,7.47
37.43,7.72,7.73,0.26,0.26,-0.27,-0.29,-0.28,7.45,7.46,7.46
37.81,7.72,7.72,0.27,0.27,-0.27,-0.29,-0.27,7.45,7.45,7.46
38.19,7.72,7.72,0.27,0.27,-0.27,-0.30,-0.27,7.46,7.45,7.45
38.57,7.71,7.71,0.27,0.27,-0.27,-0.30,-0.27,7.45,7.45,7.44
38.95,7.70,7.71,0.27,0.27,-0.27,-0.31,-0.27,7.44,7.44,7.44
39.34,7.70,7.70,0.27,0.27,-0.27,-0.31,-0.27,7.43,7.43,7.43
39.74,7.69,7.69,0.27,0.27,-0.27,-0.31,-0.27,7.42,7.42,7.42
40.14,7.68,7.69,0.27,0.27,-0.28,-0.32,-0.27,7.40,7.41,7.41
40.54,7.68,7.68,0.28,0.28,-0.28,-0.32,-0.26,7.40,7.40,7.41
40.94,7.68,7.69,0.28,0.29,-0.29,-0.33,-0.26,7.39,7.40,7.40
41.35,7.69,7.69,0.30,0.30,-0.30,-0.33,-0.26,7.40,7.39,7.39
41.76,7.69,7.69,0.31,0.31,-0.30,-0.33,-0.26,7.39,7.39,7.38
42.18,7.68,7.68,0.31,0.31,-0.31,-0.34,-0.26,7.38,7.38,7.37
42.60,7.67,7.67,0.31,0.31,-0.31,-0.34,-0.26,7.36,7.36,7.36
43.03,7.66,7.66,0.31,0.31,-0.31,-0.35,-0.26,7.35,7.35,7.35
43.46,7.65,7.65,0.31,0.31,-0.31,-0.35,-0.26,7.34,7.34,7.34
43.90,7.64,7.64,0.31,0.31,-0.31,-0.35,-0.26,7.33,7.33,7.33
44.33,7.63,7.63,0.31,0.31,-0.31,-0.36,-0.26,7.32,7.32,7.32
44.78,7.61,7.62,0.30,0.31,-0.30,-0.36,-0.26,7.31,7.31,7.31
45.23,7.60,7.60,0.30,0.30,-0.30,-0.36,-0.26,7.30,7.30,7.30
45.68,7.58,7.58,0.30,0.30,-0.30,-0.37,-0.26,7.29,7.29,7.29
46.13,7.56,7.57,0.29,0.29,-0.29,-0.37,-0.26,7.27,7.27,7.27
46.60,7.55,7.55,0.29,0.29,-0.29,-0.37,-0.26,7.26,7.26,7.26
47.06,7.53,7.53,0.28,0.29,-0.29,-0.38,-0.26,7.24,7.25,7.25
47.53,7.52,7.52,0.29,0.29,-0.29,-0.38,-0.26,7.24,7.23,7.23
48.01,7.50,7.50,0.28,0.29,-0.29,-0.38,-0.26,7.22,7.22,7.22
48.49,7.49,7.49,0.29,0.29,-0.29,-0.38,-0.27,7.20,7.21,7.20
48.97,7.48,7.48,0.29,0.29,-0.29,-0.39,-0.27,7.19,7.19,7.19
49.46,7.47,7.47,0.30,0.30,-0.29,-0.39,-0.27,7.18,7.17,7.17
49.96,7.45,7.46,0.30,0.30,-0.30,-0.39,-0.27,7.15,7.16,7.16
50.46,7.44,7.44,0.30,0.30,-0.30,-0.39,-0.27,7.14,7.14,7.14
50.96,7.43,7.43,0.31,0.31,-0.31,-0.39,-0.28,7.12,7.12,7.12
51.47,7.42,7.42,0.32,0.32,-0.32,-0.40,-0.28,7.11,7.11,7.10
51.99,7.41,7.41,0.33,0.32,-0.32,-0.40,-0.28,7.09,7.09,7.09
52.51,7.39,7.40,0.33,0.33,-0.33,-0.40,-0.29,7.06,7.07,7.07
53.03,7.38,7.38,0.34,0.34,-0.34,-0.40,-0.29,7.04,7.05,7.05
53.56,7.37,7.37,0.35,0.34,-0.35,-0.40,-0.30,7.03,7.03,7.03
54.10,7.36,7.36,0.36,0.36,-0.35,-0.41,-0.30,7.01,7.01,7.00
54.64,7.34,7.35,0.36,0.36,-0.36,-0.41,-0.31,6.98,6.98,6.98
55.18,7.33,7.33,0.37,0.37,-0.37,-0.41,-0.31,6.96,6.96,6.96
55.74,7.31,7.31,0.38,0.38,-0.38,-0.41,-0.32,6.93,6.94,6.94
56.29,7.30,7.30,0.39,0.39,-0.39,-0.42,-0.33,6.91,6.91,6.91
56.86,7.28,7.28,0.39,0.40,-0.40,-0.42,-0.34,6.88,6.89,6.89
57.42,7.27,7.27,0.41,0.41,-0.41,-0.42,-0.34,6.86,6.86,6.86
58.00,7.25,7.25,0.42,0.42,-0.42,-0.43,-0.35,6.83,6.83,6.84
58.58,7.24,7.24,0.43,0.43,-0.43,-0.43,-0.36,6.81,6.81,6.81
59.16,7.22,7.23,0.44,0.44,-0.44,-0.43,-0.37,6.78,6.78,6.78
59.76,7.21,7.21,0.46,0.46,-0.46,-0.44,-0.39,6.76,6.75,6.75
60.35,7.19,7.19,0.47,0.47,-0.47,-0.45,-0.40,6.72,6.72,6.72
60.96,7.17,7.17,0.48,0.48,-0.48,-0.45,-0.41,6.69,6.69,6.69
61.57,7.15,7.15,0.49,0.49,-0.49,-0.46,-0.42,6.66,6.66,6.66
62.18,7.13,7.13,0.50,0.50,-0.51,-0.47,-0.44,6.63,6.63,6.63
62.80,7.11,7.11,0.52,0.52,-0.52,-0.48,-0.46,6.59,6.59,6.59
63.43,7.09,7.09,0.53,0.53,-0.53,-0.49,-0.47,6.56,6.56,6.56
64.07,7.07,7.07,0.55,0.55,-0.55,-0.50,-0.49,6.52,6.52,6.52
64.71,7.05,7.06,0.56,0.57,-0.57,-0.51,-0.51,6.48,6.49,6.49
65.35,7.04,7.04,0.59,0.59,-0.59,-0.53,-0.53,6.46,6.45,6.45
66.01,7.02,7.02,0.61,0.61,-0.61,-0.54,-0.55,6.42,6.42,6.41
66.67,7.00,7.00,0.63,0.63,-0.63,-0.56,-0.57,6.38,6.38,6.37
67.33,6.98,6.98,0.65,0.65,-0.65,-0.58,-0.59,6.33,6.33,6.33
68.01,6.96,6.96,0.67,0.67,-0.67,-0.60,-0.61,6.29,6.29,6.29
68.69,6.94,6.94,0.69,0.69,-0.69,-0.62,-0.64,6.25,6.25,6.25
69.37,6.92,6.92,0.71,0.71,-0.71,-0.64,-0.66,6.21,6.21,6.21
70.07,6.90,6.90,0.74,0.74,-0.74,-0.67,-0.69,6.16,6.17,6.16
70.77,6.88,6.88,0.76,0.76,-0.76,-0.70,-0.71,6.12,6.12,6.12
71.48,6.86,6.86,0.79,0.79,-0.78,-0.72,-0.74,6.08,6.07,6.07
72.19,6.83,6.84,0.81,0.81,-0.81,-0.75,-0.77,6.02,6.03,6.03
72.91,6.81,6.81,0.83,0.83,-0.84,-0.79,-0.80,5.98,5.98,5.98
73.64,6.79,6.79,0.86,0.86,-0.86,-0.82,-0.83,5.93,5.93,5.93
74.38,6.76,6.77,0.88,0.89,-0.89,-0.85,-0.86,5.87,5.88,5.88
75.12,6.74,6.74,0.92,0.92,-0.92,-0.89,-0.90,5.83,5.83,5.83
75.87,6.72,6.72,0.95,0.95,-0.95,-0.92,-0.93,5.78,5.77,5.77
76.63,6.70,6.70,0.98,0.98,-0.98,-0.96,-0.96,5.73,5.72,5.72
77.40,6.67,6.68,1.01,1.01,-1.01,-1.00,-1.00,5.66,5.67,5.67
78.17,6.65,6.65,1.04,1.04,-1.04,-1.04,-1.04,5.61,5.61,5.61
78.95,6.62,6.63,1.07,1.07,-1.07,-1.08,-1.07,5.55,5.55,5.56
79.74,6.60,6.60,1.10,1.10,-1.10,-1.12,-1.11,5.50,5.50,5.50
80.54,6.58,6.58,1.14,1.14,-1.14,-1.17,-1.15,5.44,5.44,5.44
81.35,6.55,6.56,1.17,1.18,-1.17,-1.21,-1.19,5.38,5.38,5.38
82.16,6.53,6.53,1.21,1.21,-1.21,-1.25,-1.24,5.33,5.32,5.32
82.98,6.50,6.50,1.24,1.24,-1.24,-1.30,-1.28,5.26,5.26,5.26
83.81,6.47,6.48,1.27,1.28,-1.28,-1.34,-1.32,5.19,5.19,5.20
84.65,6.45,6.45,1.32,1.32,-1.32,-1.39,-1.37,5.13,5.13,5.13
85.50,6.43,6.43,1.36,1.36,-1.36,-1.43,-1.42,5.07,5.07,5.07
86.35,6.41,6.41,1.41,1.41,-1.41,-1.48,-1.46,5.01,5.01,5.01
87.22,6.39,6.39,1.45,1.45,-1.45,-1.53,-1.51,4.94,4.94,4.94
88.09,6.37,6.37,1.50,1.50,-1.50,-1.57,-1.56,4.88,4.88,4.88
88.97,6.35,6.35,1.54,1.54,-1.54,-1.62,-1.61,4.81,4.81,4.81
89.86,6.33,6.33,1.59,1.59,-1.59,-1.66,-1.67,4.74,4.74,4.74
90.76,6.31,6.31,1.64,1.64,-1.64,-1.71,-1.72,4.67,4.67,4.67
91.66,6.29,6.29,1.69,1.69,-1.68,-1.76,-1.77,4.61,4.61,4.60
92.58,6.27,6.27,1.74,1.73,-1.73,-1.80,-1.83,4.54,4.54,4.54
93.51,6.24,6.24,1.78,1.78,-1.78,-1.85,-1.89,4.47,4.47,4.47
94.44,6.21,6.22,1.82,1.82,-1.82,-1.89,-1.95,4.39,4.40,4.40
95.39,6.19,6.19,1.87,1.86,-1.87,-1.94,-2.01,4.33,4.32,4.32
96.34,6.16,6.16,1.91,1.91,-1.91,-1.98,-2.07,4.25,4.25,4.25
97.30,6.13,6.14,1.95,1.95,-1.95,-2.03,-2.13,4.18,4.18,4.18
98.28,6.11,6.11,2.00,2.00,-2.00,-2.07,-2.19,4.12,4.11,4.11
99.26,6.08,6.08,2.04,2.04,-2.04,-2.11,-2.25,4.04,4.04,4.04
100.25,6.05,6.05,2.09,2.09,-2.09,-2.16,-2.31,3.97,3.97,3.97
101.25,6.02,6.02,2.13,2.13,-2.13,-2.20,-2.38,3.89,3.89,3.89
102.27,5.99,5.99,2.17,2.17,-2.18,-2.24,-2.44,3.82,3.82,3.82
103.29,5.96,5.97,2.22,2.22,-2.22,-2.29,-2.50,3.74,3.74,3.75
104.32,5.94,5.94,2.27,2.27,-2.27,-2.33,-2.57,3.67,3.67,3.67
105.37,5.92,5.92,2.32,2.32,-2.32,-2.37,-2.63,3.61,3.60,3.60
106.42,5.89,5.89,2.36,2.37,-2.36,-2.41,-2.69,3.53,3.53,3.53
107.48,5.86,5.87,2.41,2.41,-2.41,-2.45,-2.76,3.45,3.46,3.45
108.56,5.84,5.84,2.46,2.46,-2.46,-2.49,-2.82,3.39,3.38,3.38
109.64,5.81,5.81,2.50,2.50,-2.50,-2.53,-2.88,3.31,3.31,3.31
110.74,5.78,5.78,2.55,2.55,-2.55,-2.57,-2.94,3.24,3.24,3.24
111.85,5.75,5.75,2.59,2.59,-2.59,-2.61,-2.99,3.16,3.16,3.16
112.97,5.72,5.73,2.63,2.63,-2.63,-2.65,-3.05,3.09,3.09,3.09
114.10,5.70,5.70,2.68,2.68,-2.68,-2.69,-3.10,3.02,3.02,3.02
115.24,5.67,5.67,2.72,2.72,-2.72,-2.73,-3.15,2.95,2.95,2.95
116.39,5.64,5.65,2.76,2.77,-2.77,-2.76,-3.20,2.88,2.88,2.88
117.55,5.62,5.62,2.81,2.81,-2.81,-2.80,-3.24,2.81,2.81,2.81
118.73,5.59,5.59,2.85,2.85,-2.85,-2.84,-3.28,2.74,2.74,2.74
119.92,5.56,5.57,2.89,2.90,-2.90,-2.87,-3.31,2.67,2.67,2.67
121.12,5.54,5.54,2.94,2.94,-2.94,-2.91,-3.35,2.60,2.60,2.60
122.33,5.51,5.51,2.98,2.98,-2.98,-2.94,-3.38,2.53,2.53,2.53
123.55,5.48,5.48,3.02,3.02,-3.02,-2.98,-3.40,2.47,2.47,2.46
124.79,5.45,5.45,3.05,3.05,-3.05,-3.01,-3.42,2.40,2.40,2.40
126.03,5.42,5.42,3.09,3.09,-3.09,-3.04,-3.44,2.33,2.33,2.33
127.29,5.39,5.39,3.13,3.13,-3.13,-3.07,-3.45,2.27,2.27,2.27
128.57,5.36,5.36,3.16,3.16,-3.16,-3.11,-3.46,2.20,2.20,2.20
129.85,5.33,5.33,3.19,3.19,-3.20,-3.14,-3.46,2.14,2.13,2.14
131.15,5.30,5.30,3.23,3.23,-3.23,-3.17,-3.47,2.07,2.07,2.07
132.46,5.27,5.28,3.26,3.26,-3.26,-3.20,-3.46,2.01,2.01,2.01
133.79,5.25,5.25,3.30,3.30,-3.30,-3.23,-3.46,1.96,1.95,1.95
135.12,5.22,5.22,3.33,3.33,-3.33,-3.26,-3.45,1.89,1.89,1.89
136.48,5.19,5.19,3.36,3.36,-3.36,-3.29,-3.44,1.83,1.83,1.83
137.84,5.16,5.16,3.39,3.39,-3.39,-3.31,-3.42,1.77,1.77,1.77
139.22,5.13,5.13,3.42,3.42,-3.42,-3.34,-3.41,1.71,1.71,1.71
140.61,5.10,5.10,3.44,3.44,-3.45,-3.37,-3.39,1.66,1.65,1.66
142.02,5.07,5.07,3.47,3.47,-3.47,-3.39,-3.37,1.60,1.60,1.60
143.44,5.04,5.05,3.49,3.50,-3.50,-3.42,-3.35,1.54,1.55,1.55
144.87,5.02,5.02,3.53,3.52,-3.52,-3.44,-3.33,1.50,1.49,1.49
146.32,4.99,4.99,3.55,3.55,-3.55,-3.46,-3.31,1.44,1.44,1.44
147.78,4.96,4.96,3.57,3.57,-3.57,-3.49,-3.29,1.39,1.39,1.39
149.26,4.93,4.93,3.59,3.59,-3.59,-3.51,-3.26,1.34,1.34,1.34
150.75,4.90,4.90,3.61,3.61,-3.61,-3.53,-3.24,1.29,1.29,1.29
152.26,4.86,4.87,3.62,3.62,-3.62,-3.55,-3.22,1.24,1.24,1.24
153.78,4.83,4.83,3.64,3.64,-3.64,-3.57,-3.20,1.19,1.19,1.19
155.32,4.80,4.80,3.65,3.65,-3.66,-3.59,-3.18,1.15,1.14,1.15
156.88,4.77,4.77,3.67,3.67,-3.67,-3.61,-3.17,1.10,1.10,1.10
158.44,4.74,4.74,3.68,3.69,-3.69,-3.63,-3.15,1.06,1.06,1.06
160.03,4.71,4.71,3.70,3.70,-3.70,-3.64,-3.14,1.01,1.01,1.01
161.63,4.68,4.68,3.72,3.72,-3.72,-3.66,-3.12,0.97,0.97,0.96
163.24,4.65,4.65,3.73,3.73,-3.73,-3.67,-3.11,0.92,0.92,0.92
164.88,4.62,4.62,3.74,3.74,-3.74,-3.69,-3.11,0.88,0.88,0.88
166.53,4.59,4.59,3.75,3.75,-3.75,-3.70,-3.10,0.84,0.84,0.84
168.19,4.56,4.56,3.76,3.76,-3.76,-3.71,-3.09,0.80,0.80,0.80
169.87,4.53,4.53,3.77,3.77,-3.77,-3.72,-3.09,0.76,0.76,0.77
171.57,4.50,4.50,3.77,3.77,-3.77,-3.73,-3.09,0.73,0.73,0.73
173.29,4.47,4.47,3.78,3.78,-3.78,-3.74,-3.09,0.70,0.69,0.69
175.02,4.44,4.44,3.78,3.78,-3.78,-3.75,-3.10,0.66,0.66,0.66
176.77,4.40,4.41,3.78,3.78,-3.78,-3.76,-3.11,0.62,0.62,0.63
178.54,4.37,4.37,3.78,3.78,-3.78,-3.77,-3.12,0.59,0.59,0.59
180.32,4.34,4.34,3.78,3.78,-3.78,-3.77,-3.13,0.56,0.56,0.56
182.13,4.31,4.31,3.78,3.78,-3.78,-3.78,-3.15,0.53,0.53,0.53
183.95,4.28,4.28,3.78,3.78,-3.78,-3.78,-3.16,0.50,0.50,0.50
185.79,4.24,4.25,3.77,3.77,-3.78,-3.79,-3.18,0.47,0.47,0.47
187.65,4.21,4.21,3.77,3.77,-3.77,-3.79,-3.20,0.44,0.44,0.44
189.52,4.18,4.18,3.77,3.77,-3.77,-3.79,-3.23,0.41,0.41,0.42
191.42,4.15,4.15,3.76,3.76,-3.76,-3.79,-3.25,0.39,0.39,0.39
193.33,4.12,4.12,3.76,3.76,-3.76,-3.79,-3.28,0.37,0.36,0.36
195.27,4.08,4.09,3.74,3.75,-3.75,-3.79,-3.31,0.33,0.34,0.34
197.22,4.05,4.05,3.74,3.74,-3.74,-3.79,-3.34,0.31,0.31,0.31
199.19,4.02,4.02,3.73,3.73,-3.73,-3.78,-3.38,0.29,0.29,0.29
201.18,3.98,3.99,3.72,3.72,-3.72,-3.78,-3.41,0.26,0.27,0.27
203.19,3.95,3.95,3.71,3.71,-3.71,-3.78,-3.45,0.24,0.24,0.24
205.23,3.92,3.92,3.70,3.70,-3.70,-3.77,-3.48,0.22,0.22,0.22
207.28,3.89,3.89,3.69,3.69,-3.69,-3.76,-3.52,0.21,0.20,0.20
209.35,3.85,3.86,3.67,3.67,-3.67,-3.75,-3.56,0.18,0.18,0.18
211.44,3.82,3.82,3.66,3.66,-3.66,-3.75,-3.60,0.16,0.16,0.16
213.56,3.79,3.79,3.65,3.65,-3.65,-3.74,-3.63,0.15,0.14,0.14
215.69,3.76,3.76,3.64,3.63,-3.63,-3.73,-3.67,0.13,0.13,0.13
217.85,3.72,3.73,3.61,3.62,-3.62,-3.71,-3.71,0.11,0.11,0.11
220.03,3.69,3.69,3.60,3.60,-3.60,-3.70,-3.74,0.09,0.09,0.09
222.23,3.66,3.66,3.59,3.58,-3.58,-3.69,-3.78,0.08,0.07,0.07
224.45,3.62,3.63,3.56,3.57,-3.57,-3.68,-3.81,0.05,0.06,0.06
226.70,3.59,3.59,3.55,3.55,-3.55,-3.66,-3.84,0.04,0.04,0.04
228.96,3.56,3.56,3.53,3.53,-3.54,-3.64,-3.87,0.03,0.02,0.03
231.25,3.53,3.53,3.52,3.52,-3.52,-3.63,-3.89,0.01,0.01,0.01
233.57,3.50,3.50,3.50,3.51,-3.51,-3.61,-3.91,-0.00,-0.00,-0.00
235.90,3.47,3.47,3.50,3.49,-3.49,-3.59,-3.92,-0.02,-0.02,-0.02
238.26,3.44,3.44,3.48,3.48,-3.47,-3.57,-3.94,-0.03,-0.03,-0.04
240.64,3.40,3.41,3.45,3.46,-3.46,-3.55,-3.95,-0.05,-0.05,-0.05
243.05,3.37,3.37,3.43,3.43,-3.44,-3.53,-3.95,-0.06,-0.06,-0.06
245.48,3.34,3.34,3.42,3.42,-3.42,-3.51,-3.95,-0.07,-0.07,-0.07
247.93,3.31,3.31,3.40,3.40,-3.40,-3.49,-3.94,-0.08,-0.08,-0.08
250.41,3.28,3.28,3.38,3.37,-3.37,-3.47,-3.93,-0.09,-0.09,-0.10
252.92,3.24,3.25,3.35,3.35,-3.35,-3.44,-3.91,-0.11,-0.10,-0.11
255.45,3.21,3.21,3.33,3.33,-3.33,-3.42,-3.89,-0.12,-0.12,-0.12
258.00,3.18,3.18,3.31,3.30,-3.31,-3.39,-3.87,-0.12,-0.13,-0.13
260.58,3.14,3.15,3.28,3.28,-3.28,-3.37,-3.83,-0.14,-0.14,-0.14
263.19,3.11,3.11,3.26,3.26,-3.26,-3.34,-3.80,-0.15,-0.15,-0.15
265.82,3.08,3.08,3.24,3.24,-3.24,-3.31,-3.76,-0.16,-0.16,-0.15
268.48,3.05,3.05,3.21,3.21,-3.21,-3.28,-3.71,-0.16,-0.16,-0.16
271.16,3.02,3.02,3.19,3.19,-3.19,-3.25,-3.66,-0.17,-0.17,-0.17
273.87,2.98,2.99,3.16,3.16,-3.16,-3.23,-3.61,-0.18,-0.18,-0.18
276.61,2.95,2.95,3.14,3.14,-3.13,-3.20,-3.56,-0.18,-0.18,-0.19
279.38,2.91,2.91,3.11,3.11,-3.10,-3.17,-3.50,-0.19,-0.19,-0.19
282.17,2.88,2.88,3.08,3.08,-3.07,-3.13,-3.44,-0.19,-0.20,-0.20
284.99,2.84,2.84,3.04,3.04,-3.04,-3.10,-3.38,-0.20,-0.20,-0.20
287.84,2.81,2.81,3.01,3.01,-3.02,-3.07,-3.31,-0.20,-0.20,-0.19
290.72,2.78,2.78,2.98,2.98,-2.99,-3.04,-3.25,-0.20,-0.20,-0.20
293.63,2.75,2.75,2.96,2.96,-2.96,-3.00,-3.18,-0.21,-0.20,-0.21
296.57,2.73,2.73,2.94,2.93,-2.93,-2.97,-3.11,-0.20,-0.20,-0.20
299.53,2.70,2.71,2.90,2.91,-2.91,-2.94,-3.04,-0.20,-0.20,-0.20
302.53,2.68,2.68,2.89,2.88,-2.88,-2.90,-2.97,-0.20,-0.20,-0.20
305.55,2.66,2.66,2.86,2.86,-2.86,-2.87,-2.90,-0.20,-0.20,-0.20
308.61,2.63,2.64,2.84,2.84,-2.84,-2.83,-2.84,-0.21,-0.20,-0.20
311.69,2.61,2.61,2.81,2.81,-2.81,-2.79,-2.77,-0.20,-0.20,-0.20
314.81,2.59,2.59,2.80,2.79,-2.79,-2.76,-2.70,-0.20,-0.20,-0.20
317.96,2.56,2.57,2.76,2.77,-2.76,-2.72,-2.63,-0.20,-0.20,-0.20
321.14,2.54,2.54,2.75,2.74,-2.74,-2.68,-2.57,-0.20,-0.20,-0.20
324.35,2.51,2.51,2.71,2.71,-2.71,-2.65,-2.50,-0.20,-0.20,-0.20
327.59,2.48,2.48,2.67,2.68,-2.68,-2.61,-2.44,-0.20,-0.19,-0.19
330.87,2.45,2.45,2.65,2.64,-2.65,-2.57,-2.38,-0.19,-0.19,-0.20
334.18,2.42,2.42,2.61,2.61,-2.61,-2.53,-2.31,-0.19,-0.19,-0.19
337.52,2.38,2.39,2.58,2.58,-2.57,-2.49,-2.25,-0.19,-0.19,-0.19
340.90,2.35,2.35,2.54,2.54,-2.54,-2.45,-2.20,-0.18,-0.19,-0.19
344.30,2.31,2.31,2.49,2.50,-2.50,-2.41,-2.14,-0.18,-0.18,-0.18
347.75,2.28,2.28,2.46,2.46,-2.46,-2.37,-2.08,-0.17,-0.18,-0.17
351.23,2.24,2.25,2.42,2.42,-2.42,-2.33,-2.03,-0.17,-0.17,-0.18
354.74,2.21,2.21,2.37,2.37,-2.37,-2.29,-1.98,-0.16,-0.17,-0.16
358.28,2.17,2.17,2.33,2.33,-2.33,-2.25,-1.93,-0.16,-0.16,-0.16
361.87,2.13,2.14,2.29,2.29,-2.29,-2.21,-1.88,-0.16,-0.15,-0.16
365.49,2.10,2.10,2.25,2.25,-2.25,-2.17,-1.83,-0.15,-0.15,-0.15
369.14,2.06,2.06,2.21,2.21,-2.21,-2.13,-1.78,-0.15,-0.15,-0.15
372.83,2.02,2.03,2.16,2.16,-2.17,-2.09,-1.74,-0.15,-0.14,-0.13
376.56,1.99,1.99,2.13,2.12,-2.13,-2.04,-1.70,-0.13,-0.14,-0.14
380.33,1.95,1.96,2.08,2.09,-2.08,-2.00,-1.66,-0.13,-0.13,-0.13
384.13,1.92,1.92,2.05,2.05,-2.04,-1.96,-1.61,-0.12,-0.12,-0.13
387.97,1.88,1.88,2.00,2.00,-2.00,-1.92,-1.58,-0.12,-0.12,-0.12
391.85,1.84,1.85,1.95,1.96,-1.96,-1.88,-1.54,-0.12,-0.11,-0.10
395.77,1.81,1.81,1.92,1.91,-1.92,-1.83,-1.50,-0.10,-0.11,-0.11
399.73,1.77,1.77,1.87,1.87,-1.87,-1.79,-1.47,-0.10,-0.10,-0.10
403.72,1.73,1.74,1.82,1.83,-1.83,-1.75,-1.43,-0.10,-0.09,-0.09
407.76,1.70,1.70,1.79,1.79,-1.79,-1.71,-1.40,-0.09,-0.09,-0.09
411.84,1.66,1.66,1.75,1.75,-1.75,-1.66,-1.37,-0.08,-0.08,-0.08
415.96,1.62,1.63,1.70,1.71,-1.70,-1.62,-1.34,-0.08,-0.08,-0.08
420.12,1.59,1.59,1.67,1.66,-1.66,-1.58,-1.31,-0.07,-0.08,-0.08
424.32,1.55,1.55,1.62,1.62,-1.62,-1.54,-1.28,-0.07,-0.07,-0.07
428.56,1.52,1.52,1.58,1.58,-1.58,-1.49,-1.25,-0.06,-0.06,-0.06
432.85,1.48,1.49,1.53,1.54,-1.54,-1.45,-1.22,-0.06,-0.06,-0.05
437.18,1.45,1.45,1.51,1.50,-1.50,-1.41,-1.19,-0.05,-0.05,-0.05
441.55,1.42,1.42,1.47,1.46,-1.46,-1.36,-1.16,-0.04,-0.04,-0.04
445.96,1.38,1.39,1.42,1.42,-1.42,-1.32,-1.14,-0.03,-0.03,-0.04
450.42,1.35,1.35,1.37,1.37,-1.37,-1.28,-1.11,-0.02,-0.02,-0.02
454.93,1.31,1.32,1.32,1.32,-1.33,-1.23,-1.09,-0.02,-0.01,-0.01
459.48,1.28,1.28,1.28,1.28,-1.28,-1.19,-1.06,-0.00,-0.00,0.00
464.07,1.24,1.24,1.24,1.24,-1.24,-1.15,-1.03,0.00,0.00,-0.00
468.71,1.20,1.20,1.19,1.20,-1.19,-1.11,-1.01,0.01,0.01,0.01
473.40,1.16,1.17,1.15,1.15,-1.15,-1.06,-0.98,0.01,0.02,0.02
478.13,1.13,1.13,1.11,1.10,-1.10,-1.02,-0.96,0.03,0.02,0.03
482.91,1.09,1.09,1.06,1.06,-1.06,-0.98,-0.93,0.03,0.03,0.03
487.74,1.05,1.06,1.01,1.01,-1.01,-0.94,-0.90,0.04,0.04,0.04
492.62,1.02,1.02,0.97,0.97,-0.96,-0.89,-0.88,0.06,0.06,0.05
497.55,0.98,0.98,0.92,0.92,-0.91,-0.85,-0.85,0.07,0.07,0.06
502.52,0.94,0.94,0.87,0.87,-0.87,-0.81,-0.82,0.08,0.08,0.07
507.55,0.90,0.90,0.81,0.81,-0.82,-0.77,-0.80,0.08,0.08,0.09
512.62,0.86,0.86,0.76,0.76,-0.77,-0.72,-0.77,0.09,0.09,0.10
517.75,0.82,0.83,0.71,0.72,-0.72,-0.68,-0.74,0.10,0.10,0.11
522.93,0.79,0.79,0.67,0.67,-0.67,-0.64,-0.71,0.12,0.12,0.12
528.16,0.75,0.75,0.62,0.63,-0.62,-0.60,-0.68,0.13,0.13,0.13
