frequency,raw
20,-13.68
21,-12.99
22,-12.06
23,-11.35
24,-10.71
25,-10.06
26,-9.49
27,-8.95
28,-8.22
29,-7.75
30,-7.09
31,-6.68
32,-5.93
33,-5.49
34,-5.01
35,-4.62
36,-4.11
37,-3.85
38,-3.14
39,-2.74
40,-2.48
41,-2.28
42,-1.88
43,-1.48
44,-0.91
45,-0.68
46,-0.62
47,-0.23
48,0.04
49,0.36
50,0.68
51,0.96
52,1.24
53,1.60
54,1.82
55,2.05
56,2.28
57,2.74
58,2.96
59,3.19
60,3.19
61,3.42
62,3.65
63,3.87
64,3.97
65,4.10
66,4.10
67,4.33
68,4.33
69,4.33
70,4.33
71,4.56
72,4.56
73,4.56
74,4.56
75,4.39
76,4.33
77,4.15
78,4.04
79,3.87
80,3.87
81,3.87
82,3.89
83,4.10
84,4.10
85,4.33
86,4.14
87,3.89
88,3.60
89,3.42
90,3.42
91,3.42
92,3.42
93,3.42
94,3.61
95,3.65
96,3.65
97,3.65
98,3.65
99,3.83
100,3.87
101,3.87
102,3.87
104,3.87
105,3.87
106,3.87
107,3.87
108,3.87
109,3.87
110,3.65
111,3.65
112,3.65
113,3.65
114,3.65
115,3.65
117,3.42
118,3.42
119,3.42
120,3.41
121,3.19
123,3.19
124,3.00
125,2.96
126,2.96
128,2.96
129,2.87
130,2.74
131,2.74
133,2.74
134,2.74
135,2.74
137,2.74
138,2.74
140,2.54
141,2.51
142,2.51
144,2.51
145,2.51
147,2.51
148,2.45
150,2.28
151,2.28
153,2.28
154,2.28
156,2.20
157,2.05
159,2.05
160,2.05
162,2.05
164,1.82
165,1.82
167,1.60
169,1.60
170,1.53
172,1.37
174,1.37
175,1.37
177,1.37
179,1.14
181,1.14
183,1.14
184,1.05
186,0.91
188,0.91
190,0.91
192,0.91
194,0.91
196,0.91
198,0.91
200,0.91
202,0.91
204,0.84
206,0.68
208,0.68
210,0.68
212,0.68
214,0.68
216,0.68
218,0.46
221,0.32
223,0.23
225,0.23
227,0.23
229,0.07
232,-0.23
234,-0.23
236,-0.23
239,-0.23
241,-0.23
244,-0.23
246,-0.23
248,-0.23
251,0.00
253,0.00
256,0.00
259,0.00
261,0.00
264,0.00
266,0.00
269,0.00
272,0.00
274,0.00
277,0.00
280,0.00
283,0.00
286,0.00
288,0.00
291,0.00
294,0.00
297,0.00
300,0.00
303,-0.01
306,-0.23
309,-0.23
312,-0.23
316,-0.23
319,-0.23
322,-0.24
325,-0.46
328,-0.46
332,-0.46
335,-0.46
338,-0.46
342,-0.46
345,-0.68
349,-0.68
352,-0.68
356,-0.68
359,-0.68
363,-0.68
366,-0.68
370,-0.68
374,-0.68
377,-0.68
381,-0.68
385,-0.68
389,-0.68
393,-0.68
397,-0.68
401,-0.68
405,-0.68
409,-0.68
413,-0.68
417,-0.68
421,-0.68
425,-0.68
430,-0.68
434,-0.68
438,-0.68
443,-0.68
447,-0.68
451,-0.68
456,-0.68
460,-0.68
465,-0.68
470,-0.68
474,-0.68
479,-0.68
484,-0.68
489,-0.68
494,-0.68
499,-0.68
504,-0.68
509,-0.68
514,-0.68
519,-0.68
524,-0.68
529,-0.68
535,-0.68
540,-0.68
545,-0.68
551,-0.68
556,-0.68
562,-0.68
568,-0.68
573,-0.68
579,-0.68
585,-0.68
591,-0.68
596,-0.68
602,-0.76
608,-0.91
615,-1.09
621,-1.14
627,-1.38
633,-1.63
639,-1.77
646,-1.60
652,-1.47
659,-1.37
665,-1.37
672,-1.36
679,-1.14
686,-1.14
692,-1.14
699,-1.14
706,-1.14
713,-1.14
721,-0.91
728,-0.91
735,-0.91
742,-0.91
750,-0.91
757,-0.91
765,-0.91
773,-0.68
780,-0.68
788,-0.68
796,-0.68
804,-0.68
812,-0.68
820,-0.46
828,-0.46
837,-0.46
845,-0.46
853,-0.46
862,-0.46
871,-0.46
879,-0.46
888,-0.46
897,-0.46
906,-0.46
915,-0.30
924,-0.23
933,-0.23
943,-0.23
952,-0.17
962,0.00
971,0.00
981,0.00
991,0.00
1001,0.00
1011,0.00
1021,0.00
1031,0.11
1041,0.23
1052,0.23
1062,0.23
1073,0.23
1084,0.23
1094,0.23
1105,0.23
1116,0.37
1128,0.46
1139,0.46
1150,0.68
1162,0.75
1173,0.91
1185,0.91
1197,0.91
1209,0.91
1221,0.91
1233,0.95
1246,1.14
1258,1.14
1271,1.14
1283,1.31
1296,1.37
1309,1.38
1322,1.60
1335,1.67
1349,1.82
1362,1.97
1376,2.24
1390,2.28
1404,2.51
1418,2.51
1432,2.51
1446,2.63
1461,2.91
1475,3.16
1490,3.42
1505,3.46
1520,3.65
1535,3.75
1550,4.01
1566,4.10
1582,4.32
1597,4.57
1613,4.79
1629,4.79
1646,4.79
1662,4.93
1679,5.01
1696,5.01
1713,5.24
1730,5.33
1747,5.68
1764,5.99
1782,6.31
1800,6.58
1818,6.84
1836,6.87
1854,7.07
1873,7.17
1892,7.43
1911,7.52
1930,7.52
1949,7.52
1969,7.52
1988,7.60
2008,7.86
2028,7.98
2048,8.15
2069,8.21
2090,8.43
2111,8.43
2132,8.43
2153,8.43
2175,8.43
2196,8.43
2218,8.65
2240,8.69
2263,8.89
2285,8.89
2308,8.89
2331,8.89
2355,9.09
2378,9.12
2402,9.34
2426,9.34
2450,9.34
2475,9.34
2500,9.53
2525,9.57
2550,9.82
2575,10.08
2601,10.26
2627,10.26
2653,10.26
2680,10.26
2707,10.26
2734,10.26
2761,10.26
2789,10.26
2817,10.39
2845,10.48
2873,10.68
2902,10.71
2931,10.71
2960,10.71
2990,10.71
3020,10.71
3050,10.71
3080,10.71
3111,10.94
3142,10.94
3174,10.94
3206,10.94
3238,10.94
3270,10.94
3303,11.16
3336,11.17
3369,11.17
3403,11.17
3437,11.04
3471,10.94
3506,10.74
3541,10.48
3576,10.45
3612,10.26
3648,10.15
3685,9.89
3721,9.63
3759,9.57
3796,9.56
3834,9.34
3873,9.26
3911,9.12
3950,8.97
3990,8.89
4030,8.67
4070,8.41
4111,8.15
4152,7.98
4193,8.10
4235,8.21
4278,8.21
4321,7.98
4364,7.72
4407,7.46
4451,7.29
4496,7.29
4541,7.29
4586,7.29
4632,7.52
4679,7.52
4725,7.45
4773,7.29
4820,7.01
4868,6.48
4917,5.85
4966,5.21
5016,4.68
5066,4.24
5117,3.92
5168,4.23
5220,5.31
5272,6.82
5325,8.53
5378,10.22
5432,12.08
5486,13.90
5541,15.31
5596,16.31
5652,16.28
5709,15.51
5766,14.82
5823,14.04
5882,13.32
5940,12.58
6000,12.00
6060,11.25
6120,10.68
6182,9.97
6244,9.32
6306,8.62
6369,7.97
6433,7.42
6497,7.27
6562,7.00
6628,6.74
6694,6.61
6761,6.45
6828,6.19
6897,5.92
6966,5.66
7035,5.40
7106,5.24
7177,5.24
7249,5.51
7321,5.90
7394,6.29
7468,6.79
7543,7.23
7618,7.69
7694,7.94
7771,7.98
7849,7.98
7928,7.98
8007,7.92
8087,7.56
8168,7.10
8250,6.87
8332,6.64
8415,6.38
8499,6.77
8584,7.23
8670,7.89
8757,8.41
8845,8.81
8933,8.89
9022,9.12
9113,9.09
9204,8.84
9296,8.15
9389,7.23
9483,6.40
9577,5.73
9673,5.51
9770,6.07
9868,6.72
9966,7.37
10066,7.87
10167,8.17
10268,8.21
10371,7.56
10475,6.86
10579,6.08
10685,5.56
10792,5.30
10900,5.04
11009,4.30
11119,3.39
11230,2.43
11343,1.43
11456,0.52
11571,-0.49
11686,-1.64
11803,-2.63
11921,-2.55
12040,-1.64
12161,-0.71
12282,0.12
12405,1.19
12529,2.70
12655,4.78
12781,6.61
12909,7.62
13038,7.42
13168,6.44
13300,5.16
13433,4.08
13567,3.29
13703,3.30
13840,3.69
13978,4.02
14118,4.10
14259,3.79
14402,3.49
14546,2.89
14692,2.45
14838,1.93
14987,1.40
15137,0.51
15288,-0.65
15441,-2.20
15595,-3.51
15751,-4.10
15909,-4.10
16068,-3.45
16229,-2.11
16391,-0.32
16555,1.53
16720,2.60
16888,3.24
17056,3.56
17227,3.82
17399,4.08
17573,3.60
17749,2.48
17926,1.00
18106,-0.64
18287,-2.42
18470,-3.97
18654,-5.19
18841,-5.93
19029,-7.32
19220,-9.17
19412,-11.45
19606,-12.74
19802,-10.74
20000,-7.75
