frequency,raw,smoothed,error,error_smoothed,equalization,parametric_eq,fixed_band_eq,equalized_raw,equalized_smoothed,target
20.00,-6.77,-6.77,-11.91,-11.91,6.00,6.36,2.66,-0.77,-0.77,5.15
20.20,-6.70,-6.70,-11.84,-11.84,6.00,6.36,2.74,-0.70,-0.70,5.15
20.40,-6.63,-6.63,-11.77,-11.77,6.00,6.36,2.82,-0.63,-0.63,5.15
20.61,-6.56,-6.56,-11.70,-11.70,6.00,6.36,2.90,-0.56,-0.56,5.15
20.81,-6.49,-6.48,-11.63,-11.63,6.00,6.36,2.98,-0.49,-0.48,5.14
21.02,-6.41,-6.41,-11.55,-11.55,6.00,6.36,3.06,-0.41,-0.41,5.14
21.23,-6.34,-6.34,-11.48,-11.48,6.00,6.36,3.15,-0.34,-0.34,5.14
21.44,-6.27,-6.27,-11.41,-11.41,6.00,6.36,3.24,-0.27,-0.27,5.14
21.66,-6.20,-6.20,-11.34,-11.34,6.00,6.36,3.33,-0.20,-0.20,5.14
21.87,-6.13,-6.13,-11.27,-11.27,6.00,6.36,3.43,-0.13,-0.13,5.14
22.09,-6.07,-6.07,-11.21,-11.21,6.00,6.36,3.52,-0.07,-0.07,5.14
22.31,-6.01,-6.01,-11.15,-11.15,6.00,6.36,3.63,-0.01,-0.01,5.14
22.54,-5.96,-5.95,-11.10,-11.09,6.00,6.36,3.73,0.04,0.05,5.14
22.76,-5.90,-5.90,-11.03,-11.04,6.00,6.36,3.83,0.10,0.10,5.14
22.99,-5.85,-5.84,-10.98,-10.98,6.00,6.36,3.94,0.15,0.16,5.14
23.22,-5.79,-5.79,-10.92,-10.92,6.00,6.36,4.05,0.21,0.21,5.14
23.45,-5.74,-5.74,-10.87,-10.87,6.00,6.36,4.16,0.26,0.26,5.13
23.69,-5.69,-5.69,-10.82,-10.82,6.00,6.36,4.28,0.31,0.31,5.13
23.92,-5.64,-5.64,-10.77,-10.77,6.00,6.35,4.40,0.36,0.36,5.13
24.16,-5.59,-5.59,-10.72,-10.72,6.00,6.35,4.52,0.41,0.41,5.13
24.40,-5.55,-5.54,-10.68,-10.67,6.00,6.35,4.64,0.45,0.46,5.13
24.65,-5.50,-5.50,-10.63,-10.62,6.00,6.35,4.76,0.50,0.50,5.13
24.89,-5.45,-5.45,-10.57,-10.58,6.00,6.35,4.89,0.55,0.55,5.13
25.14,-5.41,-5.41,-10.53,-10.53,6.00,6.35,5.01,0.59,0.59,5.13
25.39,-5.37,-5.37,-10.49,-10.49,6.00,6.35,5.14,0.63,0.63,5.12
25.65,-5.33,-5.33,-10.45,-10.45,6.00,6.35,5.27,0.67,0.67,5.12
25.91,-5.29,-5.29,-10.41,-10.41,6.00,6.35,5.40,0.71,0.71,5.12
26.16,-5.25,-5.25,-10.37,-10.37,6.00,6.35,5.53,0.75,0.75,5.12
26.43,-5.21,-5.21,-10.33,-10.33,6.00,6.35,5.66,0.79,0.79,5.12
26.69,-5.17,-5.16,-10.28,-10.28,6.00,6.35,5.79,0.83,0.84,5.12
26.96,-5.12,-5.12,-10.23,-10.23,6.00,6.35,5.91,0.88,0.88,5.11
27.23,-5.07,-5.07,-10.18,-10.18,6.00,6.35,6.04,0.93,0.93,5.11
27.50,-5.02,-5.01,-10.13,-10.12,6.00,6.34,6.16,0.98,0.99,5.11
27.77,-4.96,-4.96,-10.07,-10.07,6.00,6.34,6.28,1.04,1.04,5.11
28.05,-4.90,-4.90,-10.00,-10.01,6.00,6.34,6.39,1.10,1.10,5.11
28.33,-4.85,-4.85,-9.95,-9.95,6.00,6.34,6.50,1.15,1.15,5.10
28.62,-4.80,-4.79,-9.90,-9.90,6.00,6.34,6.61,1.20,1.21,5.10
28.90,-4.75,-4.75,-9.85,-9.85,6.00,6.34,6.71,1.25,1.25,5.10
29.19,-4.70,-4.70,-9.80,-9.80,6.00,6.34,6.80,1.30,1.30,5.10
29.48,-4.67,-4.66,-9.76,-9.76,6.00,6.34,6.88,1.33,1.34,5.10
29.78,-4.63,-4.63,-9.72,-9.72,6.00,6.33,6.96,1.37,1.37,5.09
30.08,-4.59,-4.59,-9.68,-9.68,6.00,6.33,7.03,1.41,1.41,5.09
30.38,-4.55,-4.55,-9.64,-9.64,6.00,6.33,7.09,1.45,1.45,5.09
30.68,-4.51,-4.50,-9.59,-9.59,6.00,6.33,7.14,1.49,1.50,5.09
30.99,-4.45,-4.45,-9.53,-9.53,6.00,6.33,7.18,1.55,1.55,5.08
31.30,-4.40,-4.40,-9.48,-9.48,6.00,6.33,7.21,1.60,1.60,5.08
31.61,-4.35,-4.35,-9.42,-9.42,6.00,6.33,7.23,1.65,1.65,5.08
31.93,-4.31,-4.30,-9.38,-9.38,6.00,6.32,7.24,1.69,1.70,5.07
32.24,-4.26,-4.26,-9.33,-9.33,6.00,6.32,7.25,1.74,1.74,5.07
32.57,-4.23,-4.23,-9.29,-9.29,6.00,6.32,7.24,1.77,1.77,5.07
32.89,-4.20,-4.20,-9.26,-9.26,6.00,6.32,7.22,1.80,1.80,5.06
33.22,-4.17,-4.17,-9.23,-9.23,6.00,6.32,7.20,1.83,1.83,5.06
33.55,-4.15,-4.14,-9.20,-9.19,6.00,6.31,7.17,1.85,1.86,5.05
33.89,-4.11,-4.11,-9.16,-9.16,6.00,6.31,7.13,1.89,1.89,5.05
34.23,-4.08,-4.08,-9.12,-9.13,6.00,6.31,7.09,1.92,1.92,5.05
34.57,-4.05,-4.05,-9.09,-9.09,6.00,6.31,7.04,1.95,1.95,5.04
34.92,-4.02,-4.01,-9.05,-9.05,6.00,6.31,6.98,1.98,1.99,5.04
35.27,-3.98,-3.98,-9.01,-9.01,6.00,6.30,6.93,2.02,2.02,5.03
35.62,-3.95,-3.95,-8.97,-8.98,6.00,6.30,6.87,2.05,2.05,5.03
35.97,-3.92,-3.92,-8.94,-8.94,6.00,6.30,6.80,2.08,2.08,5.02
36.33,-3.90,-3.89,-8.91,-8.91,6.00,6.29,6.74,2.10,2.11,5.02
36.70,-3.87,-3.86,-8.88,-8.87,6.00,6.29,6.67,2.13,2.14,5.01
37.06,-3.83,-3.83,-8.83,-8.84,6.00,6.29,6.61,2.17,2.17,5.01
37.43,-3.80,-3.80,-8.80,-8.80,6.00,6.29,6.54,2.20,2.20,5.00
37.81,-3.77,-3.77,-8.76,-8.76,6.00,6.28,6.48,2.23,2.23,4.99
38.19,-3.75,-3.74,-8.74,-8.73,6.00,6.28,6.41,2.25,2.26,4.99
38.57,-3.72,-3.72,-8.70,-8.70,6.00,6.28,6.35,2.28,2.28,4.98
38.95,-3.69,-3.69,-8.66,-8.67,6.00,6.27,6.29,2.31,2.31,4.97
39.34,-3.67,-3.67,-8.63,-8.63,6.00,6.27,6.24,2.33,2.33,4.97
39.74,-3.65,-3.65,-8.61,-8.61,6.00,6.26,6.18,2.35,2.35,4.96
40.14,-3.63,-3.62,-8.58,-8.58,6.00,6.26,6.13,2.37,2.38,4.95
40.54,-3.60,-3.60,-8.54,-8.54,6.00,6.26,6.08,2.40,2.40,4.94
40.94,-3.57,-3.57,-8.50,-8.51,6.00,6.25,6.04,2.43,2.43,4.94
41.35,-3.55,-3.54,-8.48,-8.47,6.00,6.25,6.00,2.45,2.46,4.93
41.76,-3.52,-3.52,-8.44,-8.44,6.00,6.24,5.96,2.48,2.48,4.92
42.18,-3.50,-3.49,-8.41,-8.40,6.00,6.24,5.93,2.50,2.51,4.91
42.60,-3.47,-3.47,-8.37,-8.37,6.00,6.23,5.91,2.53,2.53,4.90
43.03,-3.44,-3.44,-8.33,-8.33,6.00,6.23,5.88,2.56,2.56,4.89
43.46,-3.42,-3.41,-8.30,-8.30,6.00,6.22,5.86,2.58,2.59,4.88
43.90,-3.39,-3.39,-8.26,-8.26,6.00,6.22,5.85,2.61,2.61,4.87
44.33,-3.37,-3.36,-8.23,-8.22,6.00,6.21,5.84,2.63,2.64,4.86
44.78,-3.34,-3.34,-8.19,-8.19,6.00,6.21,5.84,2.66,2.66,4.85
45.23,-3.32,-3.32,-8.15,-8.15,6.00,6.20,5.83,2.68,2.68,4.84
45.68,-3.30,-3.30,-8.12,-8.12,6.00,6.20,5.84,2.70,2.70,4.82
46.13,-3.28,-3.28,-8.09,-8.09,6.00,6.19,5.84,2.72,2.72,4.81
46.60,-3.26,-3.26,-8.06,-8.06,6.00,6.18,5.86,2.74,2.74,4.80
47.06,-3.24,-3.24,-8.02,-8.02,6.00,6.18,5.87,2.76,2.76,4.79
47.53,-3.22,-3.22,-7.99,-7.99,6.00,6.17,5.89,2.78,2.78,4.77
48.01,-3.20,-3.20,-7.96,-7.96,6.00,6.16,5.92,2.80,2.80,4.76
48.49,-3.18,-3.18,-7.92,-7.92,6.00,6.16,5.95,2.82,2.82,4.74
48.97,-3.16,-3.16,-7.89,-7.88,6.00,6.15,5.98,2.84,2.84,4.73
49.46,-3.14,-3.13,-7.85,-7.85,6.00,6.14,6.01,2.86,2.87,4.71
49.96,-3.11,-3.11,-7.80,-7.81,6.00,6.14,6.05,2.89,2.89,4.70
50.46,-3.09,-3.09,-7.77,-7.77,6.00,6.13,6.09,2.91,2.91,4.68
50.96,-3.07,-3.06,-7.73,-7.72,6.00,6.12,6.13,2.93,2.94,4.66
51.47,-3.04,-3.04,-7.68,-7.68,6.00,6.11,6.18,2.96,2.96,4.64
51.99,-3.02,-3.02,-7.64,-7.64,6.00,6.11,6.22,2.98,2.98,4.62
52.51,-3.00,-3.00,-7.60,-7.60,6.00,6.10,6.27,3.00,3.00,4.61
53.03,-2.98,-2.98,-7.56,-7.56,6.00,6.09,6.32,3.02,3.02,4.59
53.56,-2.96,-2.96,-7.52,-7.52,6.00,6.08,6.37,3.04,3.04,4.56
54.10,-2.95,-2.94,-7.49,-7.49,6.00,6.07,6.42,3.05,3.06,4.54
54.64,-2.93,-2.93,-7.45,-7.45,6.00,6.06,6.47,3.07,3.07,4.52
55.18,-2.92,-2.92,-7.42,-7.42,6.00,6.06,6.51,3.08,3.08,4.50
55.74,-2.91,-2.90,-7.38,-7.38,6.00,6.05,6.56,3.09,3.10,4.48
56.29,-2.89,-2.89,-7.34,-7.34,6.00,6.04,6.60,3.11,3.11,4.45
56.86,-2.88,-2.88,-7.30,-7.30,6.00,6.03,6.64,3.12,3.12,4.43
57.42,-2.87,-2.87,-7.27,-7.27,6.00,6.02,6.67,3.13,3.13,4.40
58.00,-2.86,-2.86,-7.23,-7.23,6.00,6.01,6.70,3.14,3.14,4.37
58.58,-2.85,-2.85,-7.19,-7.19,6.00,6.01,6.72,3.15,3.15,4.35
59.16,-2.84,-2.83,-7.16,-7.15,6.00,6.00,6.74,3.16,3.17,4.32
59.76,-2.82,-2.82,-7.11,-7.11,6.00,5.99,6.76,3.18,3.18,4.29
60.35,-2.81,-2.81,-7.07,-7.07,6.00,5.98,6.76,3.19,3.19,4.26
60.96,-2.79,-2.79,-7.02,-7.02,6.00,5.97,6.76,3.21,3.21,4.23
61.57,-2.78,-2.78,-6.98,-6.97,6.00,5.97,6.75,3.22,3.22,4.20
62.18,-2.76,-2.76,-6.92,-6.93,6.00,5.96,6.73,3.24,3.24,4.17
62.80,-2.75,-2.75,-6.88,-6.88,6.00,5.95,6.71,3.25,3.25,4.13
63.43,-2.73,-2.73,-6.83,-6.83,6.00,5.95,6.68,3.27,3.27,4.10
64.07,-2.72,-2.72,-6.78,-6.78,6.00,5.94,6.64,3.28,3.28,4.06
64.71,-2.70,-2.70,-6.72,-6.73,6.00,5.93,6.59,3.30,3.30,4.03
65.35,-2.69,-2.68,-6.68,-6.67,6.00,5.93,6.54,3.31,3.32,3.99
66.01,-2.67,-2.67,-6.62,-6.62,6.00,5.92,6.47,3.33,3.33,3.95
66.67,-2.66,-2.66,-6.57,-6.57,6.00,5.91,6.41,3.34,3.34,3.91
67.33,-2.65,-2.65,-6.52,-6.52,6.00,5.91,6.33,3.35,3.35,3.87
68.01,-2.64,-2.64,-6.47,-6.47,6.00,5.90,6.25,3.36,3.36,3.83
68.69,-2.63,-2.63,-6.42,-6.42,6.00,5.90,6.17,3.37,3.37,3.79
69.37,-2.62,-2.62,-6.36,-6.36,6.00,5.89,6.08,3.39,3.39,3.75
70.07,-2.61,-2.61,-6.31,-6.31,6.01,5.88,5.98,3.40,3.40,3.70
70.77,-2.60,-2.60,-6.25,-6.25,6.01,5.87,5.89,3.41,3.41,3.66
71.48,-2.59,-2.58,-6.20,-6.20,6.01,5.86,5.79,3.42,3.43,3.61
72.19,-2.57,-2.57,-6.13,-6.13,6.00,5.85,5.69,3.44,3.43,3.56
72.91,-2.56,-2.56,-6.07,-6.07,5.99,5.84,5.59,3.43,3.43,3.52
73.64,-2.55,-2.55,-6.01,-6.01,5.97,5.82,5.48,3.42,3.42,3.47
74.38,-2.54,-2.54,-5.95,-5.95,5.93,5.80,5.38,3.40,3.40,3.42
75.12,-2.53,-2.53,-5.89,-5.90,5.89,5.78,5.27,3.37,3.36,3.37
75.87,-2.53,-2.52,-5.84,-5.84,5.84,5.76,5.17,3.32,3.32,3.31
76.63,-2.52,-2.52,-5.78,-5.78,5.79,5.73,5.06,3.27,3.27,3.26
77.40,-2.51,-2.51,-5.71,-5.71,5.72,5.69,4.96,3.22,3.22,3.21
78.17,-2.50,-2.50,-5.65,-5.65,5.66,5.66,4.86,3.16,3.16,3.15
78.95,-2.50,-2.49,-5.59,-5.59,5.59,5.61,4.76,3.09,3.09,3.09
79.74,-2.49,-2.49,-5.52,-5.52,5.52,5.56,4.66,3.03,3.03,3.04
80.54,-2.48,-2.48,-5.46,-5.46,5.45,5.51,4.57,2.98,2.98,2.98
81.35,-2.47,-2.47,-5.39,-5.39,5.39,5.45,4.48,2.92,2.92,2.92
82.16,-2.46,-2.46,-5.32,-5.32,5.32,5.39,4.39,2.86,2.86,2.86
82.98,-2.45,-2.45,-5.25,-5.25,5.25,5.32,4.30,2.80,2.80,2.80
83.81,-2.44,-2.44,-5.17,-5.18,5.18,5.25,4.21,2.74,2.74,2.74
84.65,-2.44,-2.43,-5.11,-5.11,5.11,5.18,4.13,2.67,2.67,2.67
85.50,-2.43,-2.43,-5.04,-5.04,5.04,5.10,4.05,2.61,2.61,2.61
86.35,-2.42,-2.42,-4.96,-4.96,4.96,5.02,3.97,2.55,2.54,2.55
87.22,-2.41,-2.41,-4.89,-4.89,4.89,4.94,3.90,2.48,2.48,2.48
88.09,-2.41,-2.40,-4.82,-4.82,4.82,4.86,3.83,2.41,2.41,2.41
88.97,-2.40,-2.40,-4.74,-4.74,4.74,4.77,3.76,2.35,2.35,2.35
89.86,-2.39,-2.39,-4.67,-4.67,4.67,4.69,3.69,2.28,2.28,2.28
90.76,-2.38,-2.38,-4.59,-4.59,4.59,4.60,3.63,2.21,2.21,2.21
91.66,-2.37,-2.37,-4.51,-4.51,4.52,4.51,3.57,2.15,2.14,2.14
92.58,-2.37,-2.36,-4.44,-4.44,4.44,4.43,3.51,2.07,2.08,2.07
93.51,-2.36,-2.36,-4.36,-4.36,4.36,4.34,3.46,2.01,2.01,2.00
94.44,-2.35,-2.35,-4.28,-4.28,4.29,4.25,3.40,1.94,1.94,1.93
95.39,-2.35,-2.34,-4.21,-4.21,4.21,4.17,3.35,1.86,1.86,1.86
96.34,-2.34,-2.34,-4.13,-4.13,4.13,4.08,3.31,1.79,1.79,1.79
97.30,-2.34,-2.33,-4.06,-4.06,4.05,4.00,3.26,1.71,1.72,1.72
98.28,-2.33,-2.33,-3.98,-3.97,3.97,3.91,3.22,1.65,1.65,1.65
99.26,-2.32,-2.32,-3.89,-3.90,3.89,3.83,3.18,1.58,1.58,1.58
100.25,-2.31,-2.31,-3.81,-3.81,3.81,3.75,3.14,1.51,1.50,1.50
101.25,-2.31,-2.30,-3.74,-3.73,3.74,3.66,3.10,1.43,1.43,1.43
102.27,-2.30,-2.30,-3.66,-3.66,3.66,3.58,3.07,1.36,1.36,1.36
103.29,-2.29,-2.29,-3.57,-3.58,3.58,3.50,3.04,1.30,1.29,1.29
104.32,-2.30,-2.29,-3.51,-3.51,3.51,3.42,3.00,1.21,1.22,1.21
105.37,-2.30,-2.30,-3.44,-3.44,3.44,3.34,2.97,1.14,1.14,1.14
106.42,-2.30,-2.30,-3.36,-3.36,3.36,3.27,2.94,1.06,1.06,1.07
107.48,-2.30,-2.30,-3.29,-3.29,3.29,3.19,2.92,0.99,0.99,0.99
108.56,-2.30,-2.30,-3.22,-3.22,3.22,3.11,2.89,0.92,0.92,0.92
109.64,-2.30,-2.29,-3.15,-3.14,3.14,3.04,2.86,0.84,0.85,0.85
110.74,-2.29,-2.29,-3.06,-3.07,3.07,2.96,2.83,0.78,0.78,0.78
111.85,-2.29,-2.29,-2.99,-2.99,2.99,2.89,2.81,0.70,0.70,0.70
112.97,-2.28,-2.28,-2.91,-2.91,2.91,2.81,2.78,0.63,0.63,0.63
114.10,-2.28,-2.27,-2.84,-2.83,2.83,2.74,2.75,0.56,0.56,0.56
115.24,-2.27,-2.27,-2.76,-2.75,2.75,2.67,2.73,0.49,0.49,0.49
116.39,-2.26,-2.26,-2.67,-2.68,2.68,2.60,2.70,0.42,0.42,0.42
117.55,-2.25,-2.25,-2.59,-2.60,2.60,2.53,2.67,0.35,0.35,0.35
118.73,-2.25,-2.24,-2.52,-2.52,2.52,2.46,2.64,0.27,0.28,0.28
119.92,-2.24,-2.24,-2.44,-2.44,2.44,2.39,2.61,0.21,0.21,0.21
121.12,-2.23,-2.23,-2.37,-2.37,2.37,2.32,2.57,0.14,0.14,0.14
122.33,-2.22,-2.22,-2.29,-2.29,2.29,2.25,2.54,0.08,0.07,0.07
123.55,-2.22,-2.21,-2.22,-2.22,2.22,2.19,2.51,0.00,0.01,0.00
124.79,-2.21,-2.21,-2.14,-2.15,2.15,2.12,2.47,-0.06,-0.06,-0.06
126.03,-2.21,-2.21,-2.08,-2.08,2.08,2.06,2.43,-0.13,-0.13,-0.13
127.29,-2.21,-2.20,-2.01,-2.01,2.01,1.99,2.39,-0.20,-0.20,-0.20
128.57,-2.20,-2.20,-1.94,-1.94,1.94,1.93,2.35,-0.26,-0.26,-0.26
129.85,-2.20,-2.20,-1.87,-1.87,1.87,1.87,2.30,-0.32,-0.32,-0.32
131.15,-2.20,-2.19,-1.81,-1.81,1.81,1.80,2.26,-0.39,-0.39,-0.39
132.46,-2.19,-2.19,-1.74,-1.74,1.74,1.74,2.21,-0.45,-0.45,-0.45
133.79,-2.19,-2.19,-1.68,-1.68,1.68,1.68,2.16,-0.51,-0.51,-0.51
135.12,-2.19,-2.18,-1.62,-1.61,1.61,1.62,2.11,-0.57,-0.57,-0.57
136.48,-2.18,-2.18,-1.55,-1.55,1.55,1.57,2.06,-0.63,-0.63,-0.63
137.84,-2.18,-2.18,-1.49,-1.49,1.49,1.51,2.01,-0.69,-0.69,-0.69
139.22,-2.18,-2.18,-1.43,-1.43,1.43,1.45,1.96,-0.75,-0.75,-0.75
140.61,-2.18,-2.17,-1.37,-1.37,1.37,1.40,1.90,-0.81,-0.80,-0.80
142.02,-2.17,-2.17,-1.31,-1.31,1.31,1.34,1.85,-0.86,-0.86,-0.86
143.44,-2.17,-2.17,-1.25,-1.26,1.25,1.29,1.79,-0.91,-0.91,-0.91
144.87,-2.17,-2.17,-1.20,-1.20,1.20,1.24,1.74,-0.97,-0.97,-0.97
146.32,-2.17,-2.16,-1.15,-1.14,1.14,1.18,1.68,-1.02,-1.02,-1.02
147.78,-2.16,-2.16,-1.09,-1.09,1.09,1.13,1.62,-1.07,-1.07,-1.07
149.26,-2.16,-2.16,-1.04,-1.04,1.04,1.08,1.56,-1.12,-1.12,-1.12
150.75,-2.16,-2.16,-0.99,-0.98,0.99,1.03,1.50,-1.17,-1.17,-1.17
152.26,-2.16,-2.16,-0.94,-0.94,0.94,0.98,1.45,-1.22,-1.22,-1.22
153.78,-2.16,-2.16,-0.89,-0.89,0.89,0.94,1.39,-1.27,-1.27,-1.27
155.32,-2.16,-2.16,-0.84,-0.84,0.84,0.89,1.33,-1.31,-1.31,-1.31
156.88,-2.16,-2.16,-0.80,-0.80,0.80,0.84,1.27,-1.36,-1.36,-1.36
158.44,-2.16,-2.16,-0.75,-0.75,0.75,0.80,1.21,-1.41,-1.41,-1.40
160.03,-2.16,-2.16,-0.71,-0.71,0.71,0.75,1.16,-1.45,-1.45,-1.45
161.63,-2.16,-2.16,-0.66,-0.66,0.66,0.71,1.10,-1.49,-1.49,-1.50
163.24,-2.16,-2.16,-0.62,-0.62,0.62,0.67,1.04,-1.54,-1.54,-1.54
164.88,-2.16,-2.16,-0.58,-0.58,0.58,0.62,0.98,-1.58,-1.58,-1.58
166.53,-2.16,-2.16,-0.54,-0.54,0.54,0.58,0.93,-1.62,-1.62,-1.62
168.19,-2.16,-2.16,-0.50,-0.50,0.50,0.54,0.87,-1.66,-1.66,-1.66
169.87,-2.16,-2.16,-0.46,-0.46,0.46,0.50,0.82,-1.70,-1.70,-1.70
171.57,-2.16,-2.15,-0.42,-0.42,0.42,0.46,0.76,-1.74,-1.73,-1.73
173.29,-2.15,-2.15,-0.38,-0.38,0.38,0.43,0.71,-1.76,-1.77,-1.77
175.02,-2.15,-2.15,-0.34,-0.35,0.35,0.39,0.65,-1.80,-1.80,-1.80
176.77,-2.15,-2.15,-0.31,-0.31,0.31,0.35,0.60,-1.83,-1.83,-1.84
178.54,-2.15,-2.15,-0.28,-0.28,0.28,0.32,0.54,-1.87,-1.87,-1.87
180.32,-2.15,-2.15,-0.25,-0.25,0.25,0.28,0.49,-1.90,-1.90,-1.90
182.13,-2.15,-2.15,-0.22,-0.22,0.22,0.25,0.43,-1.93,-1.93,-1.93
183.95,-2.15,-2.15,-0.19,-0.19,0.19,0.21,0.38,-1.96,-1.96,-1.96
185.79,-2.15,-2.15,-0.16,-0.16,0.16,0.18,0.33,-1.99,-1.99,-1.99
187.65,-2.15,-2.15,-0.13,-0.13,0.13,0.15,0.28,-2.02,-2.02,-2.02
189.52,-2.15,-2.15,-0.10,-0.10,0.10,0.12,0.22,-2.05,-2.05,-2.05
191.42,-2.15,-2.15,-0.07,-0.07,0.07,0.09,0.17,-2.07,-2.07,-2.07
193.33,-2.15,-2.15,-0.05,-0.05,0.05,0.06,0.12,-2.10,-2.10,-2.10
195.27,-2.15,-2.15,-0.02,-0.02,0.02,0.03,0.07,-2.12,-2.12,-2.12
197.22,-2.15,-2.15,0.00,0.00,-0.00,0.00,0.02,-2.15,-2.15,-2.15
199.19,-2.15,-2.15,0.02,0.02,-0.02,-0.03,-0.03,-2.17,-2.17,-2.17
201.18,-2.15,-2.15,0.05,0.05,-0.05,-0.05,-0.08,-2.20,-2.20,-2.19
203.19,-2.15,-2.15,0.07,0.07,-0.07,-0.08,-0.13,-2.22,-2.22,-2.22
205.23,-2.15,-2.15,0.09,0.09,-0.09,-0.10,-0.17,-2.24,-2.24,-2.24
207.28,-2.15,-2.15,0.11,0.11,-0.11,-0.13,-0.22,-2.26,-2.26,-2.26
209.35,-2.15,-2.15,0.13,0.13,-0.13,-0.15,-0.27,-2.28,-2.28,-2.28
211.44,-2.15,-2.15,0.15,0.15,-0.15,-0.18,-0.31,-2.30,-2.30,-2.30
213.56,-2.15,-2.15,0.17,0.17,-0.17,-0.20,-0.35,-2.31,-2.32,-2.32
215.69,-2.16,-2.15,0.18,0.18,-0.18,-0.22,-0.40,-2.34,-2.34,-2.34
217.85,-2.16,-2.16,0.20,0.20,-0.20,-0.24,-0.44,-2.36,-2.36,-2.35
220.03,-2.16,-2.16,0.21,0.21,-0.21,-0.26,-0.48,-2.37,-2.37,-2.37
222.23,-2.16,-2.16,0.23,0.23,-0.23,-0.28,-0.52,-2.39,-2.39,-2.39
224.45,-2.16,-2.16,0.25,0.25,-0.25,-0.29,-0.55,-2.40,-2.40,-2.40
226.70,-2.16,-2.16,0.26,0.26,-0.26,-0.31,-0.59,-2.42,-2.42,-2.42
228.96,-2.16,-2.16,0.28,0.28,-0.28,-0.33,-0.62,-2.43,-2.43,-2.43
231.25,-2.16,-2.16,0.29,0.29,-0.29,-0.34,-0.65,-2.45,-2.45,-2.45
233.57,-2.16,-2.16,0.30,0.31,-0.31,-0.36,-0.68,-2.46,-2.46,-2.46
235.90,-2.16,-2.16,0.33,0.32,-0.32,-0.37,-0.71,-2.48,-2.48,-2.49
238.26,-2.16,-2.16,0.34,0.34,-0.33,-0.38,-0.73,-2.49,-2.49,-2.50
240.64,-2.17,-2.16,0.34,0.35,-0.35,-0.39,-0.76,-2.51,-2.51,-2.51
243.05,-2.17,-2.17,0.36,0.36,-0.36,-0.41,-0.78,-2.53,-2.53,-2.52
245.48,-2.17,-2.17,0.37,0.37,-0.37,-0.42,-0.79,-2.54,-2.54,-2.53
247.93,-2.17,-2.17,0.38,0.38,-0.38,-0.43,-0.81,-2.55,-2.55,-2.55
250.41,-2.17,-2.17,0.39,0.39,-0.39,-0.43,-0.82,-2.56,-2.56,-2.56
252.92,-2.17,-2.17,0.40,0.40,-0.40,-0.44,-0.83,-2.57,-2.57,-2.57
255.45,-2.17,-2.17,0.41,0.41,-0.41,-0.45,-0.83,-2.58,-2.57,-2.58
258.00,-2.17,-2.17,0.42,0.42,-0.42,-0.45,-0.84,-2.58,-2.58,-2.59
260.58,-2.17,-2.17,0.43,0.43,-0.43,-0.46,-0.84,-2.59,-2.60,-2.60
263.19,-2.18,-2.17,0.43,0.43,-0.43,-0.46,-0.84,-2.61,-2.61,-2.61
265.82,-2.18,-2.18,0.44,0.44,-0.44,-0.47,-0.84,-2.62,-2.62,-2.62
268.48,-2.18,-2.18,0.45,0.45,-0.45,-0.47,-0.83,-2.63,-2.63,-2.62
271.16,-2.18,-2.18,0.45,0.45,-0.46,-0.47,-0.82,-2.63,-2.63,-2.63
273.87,-2.18,-2.18,0.46,0.46,-0.46,-0.48,-0.81,-2.64,-2.64,-2.64
276.61,-2.18,-2.18,0.47,0.47,-0.47,-0.48,-0.80,-2.65,-2.65,-2.65
279.38,-2.18,-2.18,0.48,0.48,-0.47,-0.48,-0.79,-2.65,-2.65,-2.65
282.17,-2.18,-2.18,0.48,0.48,-0.48,-0.48,-0.77,-2.65,-2.65,-2.66
284.99,-2.18,-2.18,0.48,0.48,-0.48,-0.48,-0.76,-2.66,-2.66,-2.66
287.84,-2.19,-2.18,0.47,0.48,-0.48,-0.48,-0.74,-2.67,-2.66,-2.66
290.72,-2.19,-2.19,0.47,0.48,-0.48,-0.47,-0.72,-2.67,-2.67,-2.66
293.63,-2.19,-2.19,0.48,0.48,-0.48,-0.47,-0.70,-2.67,-2.67,-2.67
296.57,-2.19,-2.19,0.48,0.48,-0.48,-0.47,-0.68,-2.66,-2.66,-2.66
299.53,-2.19,-2.19,0.47,0.48,-0.48,-0.47,-0.66,-2.66,-2.66,-2.66
302.53,-2.19,-2.19,0.48,0.48,-0.48,-0.46,-0.64,-2.66,-2.66,-2.67
305.55,-2.19,-2.19,0.47,0.47,-0.47,-0.46,-0.62,-2.66,-2.66,-2.66
308.61,-2.19,-2.19,0.48,0.47,-0.47,-0.46,-0.60,-2.66,-2.66,-2.67
311.69,-2.20,-2.19,0.46,0.47,-0.47,-0.45,-0.57,-2.67,-2.66,-2.66
314.81,-2.20,-2.20,0.47,0.47,-0.47,-0.45,-0.55,-2.66,-2.66,-2.67
317.96,-2.20,-2.20,0.46,0.46,-0.46,-0.44,-0.53,-2.66,-2.66,-2.66
321.14,-2.20,-2.20,0.47,0.46,-0.46,-0.44,-0.51,-2.66,-2.66,-2.66
324.35,-2.21,-2.20,0.45,0.45,-0.46,-0.43,-0.48,-2.66,-2.66,-2.66
327.59,-2.21,-2.21,0.45,0.45,-0.45,-0.42,-0.46,-2.66,-2.66,-2.65
330.87,-2.21,-2.21,0.45,0.45,-0.45,-0.42,-0.44,-2.66,-2.66,-2.66
334.18,-2.21,-2.21,0.44,0.45,-0.44,-0.41,-0.41,-2.65,-2.65,-2.65
337.52,-2.21,-2.21,0.45,0.44,-0.44,-0.41,-0.39,-2.65,-2.65,-2.65
340.90,-2.22,-2.21,0.43,0.43,-0.43,-0.40,-0.37,-2.65,-2.65,-2.65
344.30,-2.22,-2.22,0.42,0.43,-0.43,-0.39,-0.35,-2.64,-2.64,-2.64
347.75,-2.22,-2.22,0.42,0.42,-0.42,-0.39,-0.32,-2.64,-2.64,-2.63
351.23,-2.22,-2.22,0.42,0.41,-0.41,-0.38,-0.30,-2.63,-2.63,-2.64
354.74,-2.23,-2.22,0.39,0.40,-0.40,-0.37,-0.28,-2.63,-2.63,-2.62
358.28,-2.23,-2.23,0.40,0.40,-0.40,-0.37,-0.26,-2.62,-2.62,-2.62
361.87,-2.23,-2.23,0.39,0.39,-0.39,-0.36,-0.24,-2.62,-2.62,-2.62
365.49,-2.23,-2.23,0.38,0.38,-0.38,-0.35,-0.22,-2.61,-2.61,-2.61
369.14,-2.24,-2.23,0.37,0.37,-0.37,-0.34,-0.20,-2.61,-2.61,-2.61
372.83,-2.24,-2.24,0.36,0.36,-0.36,-0.34,-0.17,-2.60,-2.60,-2.59
376.56,-2.24,-2.24,0.36,0.36,-0.36,-0.33,-0.15,-2.59,-2.60,-2.60
380.33,-2.25,-2.24,0.34,0.35,-0.35,-0.32,-0.13,-2.59,-2.59,-2.59
384.13,-2.25,-2.25,0.34,0.34,-0.34,-0.31,-0.12,-2.58,-2.59,-2.59
387.97,-2.26,-2.25,0.33,0.33,-0.33,-0.31,-0.10,-2.58,-2.58,-2.58
391.85,-2.26,-2.26,0.31,0.32,-0.32,-0.30,-0.08,-2.57,-2.57,-2.57
395.77,-2.26,-2.26,0.31,0.30,-0.31,-0.29,-0.06,-2.56,-2.57,-2.57
399.73,-2.27,-2.26,0.29,0.30,-0.30,-0.29,-0.04,-2.56,-2.56,-2.56
403.72,-2.27,-2.27,0.28,0.29,-0.29,-0.28,-0.02,-2.56,-2.56,-2.55
407.76,-2.27,-2.27,0.29,0.28,-0.28,-0.27,-0.01,-2.55,-2.55,-2.55
411.84,-2.28,-2.27,0.27,0.27,-0.27,-0.26,0.01,-2.55,-2.55,-2.55
415.96,-2.28,-2.28,0.26,0.27,-0.26,-0.26,0.03,-2.54,-2.54,-2.54
420.12,-2.28,-2.28,0.26,0.26,-0.26,-0.25,0.04,-2.53,-2.54,-2.54
424.32,-2.28,-2.28,0.25,0.25,-0.25,-0.24,0.06,-2.53,-2.53,-2.53
428.56,-2.29,-2.28,0.23,0.24,-0.24,-0.23,0.07,-2.53,-2.52,-2.52
432.85,-2.29,-2.29,0.23,0.23,-0.23,-0.23,0.09,-2.52,-2.52,-2.51
437.18,-2.30,-2.29,0.22,0.22,-0.22,-0.22,0.10,-2.51,-2.51,-2.51
441.55,-2.30,-2.30,0.21,0.21,-0.20,-0.21,0.11,-2.50,-2.50,-2.51
445.96,-2.30,-2.30,0.20,0.19,-0.19,-0.20,0.12,-2.49,-2.49,-2.50
450.42,-2.31,-2.30,0.17,0.18,-0.18,-0.19,0.14,-2.49,-2.48,-2.48
454.93,-2.31,-2.31,0.16,0.16,-0.17,-0.19,0.15,-2.47,-2.47,-2.47
459.48,-2.32,-2.32,0.14,0.15,-0.15,-0.18,0.15,-2.47,-2.47,-2.46
464.07,-2.32,-2.32,0.15,0.14,-0.14,-0.17,0.16,-2.46,-2.46,-2.46
468.71,-2.33,-2.33,0.13,0.13,-0.13,-0.16,0.17,-2.45,-2.45,-2.45
473.40,-2.33,-2.33,0.12,0.12,-0.11,-0.15,0.18,-2.44,-2.44,-2.44
