frequency,raw,error,smoothed,error_smoothed,equalization,parametric_eq,fixed_band_eq,equalized_raw,equalized_smoothed,target
20.00,-11.46,-15.86,-11.47,-15.87,6.00,6.59,2.83,-5.46,-5.47,4.40
20.20,-11.26,-15.71,-11.26,-15.71,6.00,6.58,2.91,-5.26,-5.26,4.45
20.40,-11.06,-15.56,-11.05,-15.55,6.00,6.57,2.99,-5.06,-5.05,4.50
20.61,-10.86,-15.39,-10.85,-15.39,6.00,6.57,3.08,-4.86,-4.85,4.53
20.81,-10.65,-15.23,-10.65,-15.23,6.00,6.56,3.16,-4.65,-4.65,4.58
21.02,-10.46,-15.08,-10.48,-15.09,6.00,6.55,3.25,-4.46,-4.48,4.62
21.23,-10.33,-14.97,-10.33,-14.97,6.00,6.55,3.35,-4.33,-4.33,4.64
21.44,-10.20,-14.86,-10.20,-14.86,6.00,6.54,3.44,-4.20,-4.20,4.66
21.66,-10.07,-14.75,-10.07,-14.75,6.00,6.53,3.54,-4.07,-4.07,4.68
21.87,-9.94,-14.63,-9.94,-14.64,6.00,6.53,3.64,-3.94,-3.94,4.69
22.09,-9.82,-14.53,-9.83,-14.54,6.00,6.52,3.74,-3.82,-3.83,4.71
22.31,-9.72,-14.44,-9.72,-14.43,6.00,6.51,3.85,-3.72,-3.72,4.72
22.54,-9.61,-14.33,-9.61,-14.33,6.00,6.50,3.96,-3.61,-3.61,4.72
22.76,-9.50,-14.22,-9.51,-14.22,6.00,6.49,4.07,-3.50,-3.51,4.72
22.99,-9.39,-14.10,-9.39,-14.10,6.00,6.48,4.19,-3.39,-3.39,4.71
23.22,-9.27,-13.98,-9.27,-13.98,6.00,6.48,4.31,-3.27,-3.27,4.71
23.45,-9.14,-13.85,-9.15,-13.86,6.00,6.47,4.43,-3.14,-3.15,4.71
23.69,-9.03,-13.74,-9.02,-13.73,6.00,6.46,4.55,-3.03,-3.02,4.72
23.92,-8.89,-13.61,-8.89,-13.61,6.00,6.45,4.68,-2.89,-2.89,4.72
24.16,-8.75,-13.48,-8.75,-13.48,6.00,6.44,4.81,-2.75,-2.75,4.73
24.40,-8.60,-13.34,-8.60,-13.33,6.00,6.43,4.94,-2.60,-2.60,4.74
24.65,-8.46,-13.19,-8.46,-13.19,6.00,6.42,5.07,-2.46,-2.46,4.72
24.89,-8.31,-13.04,-8.32,-13.04,6.00,6.41,5.20,-2.31,-2.32,4.72
25.14,-8.18,-12.91,-8.18,-12.91,6.00,6.40,5.34,-2.18,-2.18,4.72
25.39,-8.05,-12.78,-8.05,-12.78,6.00,6.39,5.48,-2.05,-2.05,4.73
25.65,-7.93,-12.67,-7.93,-12.66,6.00,6.38,5.61,-1.93,-1.93,4.73
25.91,-7.82,-12.54,-7.81,-12.54,6.00,6.37,5.75,-1.82,-1.81,4.72
26.16,-7.68,-12.40,-7.69,-12.41,6.00,6.36,5.89,-1.68,-1.69,4.72
26.43,-7.56,-12.29,-7.56,-12.28,6.00,6.35,6.03,-1.56,-1.56,4.72
26.69,-7.44,-12.16,-7.44,-12.17,6.00,6.33,6.16,-1.44,-1.44,4.72
26.96,-7.32,-12.05,-7.33,-12.05,6.00,6.32,6.30,-1.32,-1.33,4.73
27.23,-7.21,-11.94,-7.21,-11.94,6.00,6.31,6.43,-1.21,-1.21,4.73
27.50,-7.09,-11.82,-7.09,-11.82,6.00,6.30,6.56,-1.09,-1.09,4.73
27.77,-6.98,-11.70,-6.98,-11.70,6.00,6.28,6.69,-0.98,-0.98,4.72
28.05,-6.87,-11.59,-6.88,-11.59,6.00,6.27,6.81,-0.87,-0.88,4.72
28.33,-6.79,-11.50,-6.80,-11.51,6.00,6.26,6.92,-0.79,-0.80,4.71
28.62,-6.70,-11.41,-6.71,-11.42,6.00,6.24,7.03,-0.70,-0.71,4.71
28.90,-6.62,-11.34,-6.60,-11.31,6.00,6.23,7.13,-0.62,-0.60,4.71
29.19,-6.45,-11.16,-6.44,-11.15,6.00,6.21,7.22,-0.45,-0.44,4.70
29.48,-6.23,-10.95,-6.24,-10.96,6.00,6.20,7.30,-0.23,-0.24,4.72
29.78,-6.03,-10.74,-6.03,-10.75,6.00,6.18,7.38,-0.03,-0.03,4.71
30.08,-5.84,-10.56,-5.85,-10.57,6.00,6.17,7.44,0.16,0.15,4.72
30.38,-5.70,-10.41,-5.70,-10.41,6.00,6.15,7.49,0.30,0.30,4.71
30.68,-5.57,-10.28,-5.57,-10.28,6.00,6.14,7.53,0.43,0.43,4.71
30.99,-5.44,-10.15,-5.45,-10.16,6.00,6.12,7.56,0.56,0.55,4.71
31.30,-5.33,-10.04,-5.34,-10.04,6.00,6.10,7.57,0.67,0.66,4.71
31.61,-5.23,-9.94,-5.23,-9.94,6.00,6.08,7.57,0.77,0.77,4.70
31.93,-5.13,-9.84,-5.13,-9.83,6.00,6.07,7.56,0.87,0.87,4.70
32.24,-5.02,-9.71,-5.02,-9.72,6.00,6.05,7.54,0.98,0.98,4.69
32.57,-4.90,-9.60,-4.91,-9.60,6.00,6.03,7.50,1.10,1.09,4.70
32.89,-4.78,-9.48,-4.78,-9.48,6.00,6.01,7.46,1.22,1.22,4.70
33.22,-4.65,-9.34,-4.65,-9.34,6.00,5.99,7.40,1.35,1.35,4.69
33.55,-4.51,-9.20,-4.51,-9.20,6.00,5.97,7.33,1.49,1.49,4.69
33.89,-4.37,-9.05,-4.38,-9.06,6.00,5.95,7.26,1.63,1.62,4.67
34.23,-4.26,-8.95,-4.27,-8.94,6.00,5.93,7.18,1.74,1.73,4.68
34.57,-4.15,-8.82,-4.16,-8.83,6.00,5.91,7.08,1.85,1.84,4.67
34.92,-4.05,-8.72,-4.04,-8.71,6.00,5.88,6.99,1.95,1.96,4.67
35.27,-3.91,-8.58,-3.91,-8.57,6.00,5.86,6.89,2.09,2.09,4.67
35.62,-3.77,-8.44,-3.77,-8.44,6.00,5.84,6.78,2.23,2.23,4.67
35.97,-3.63,-8.30,-3.66,-8.33,6.00,5.81,6.67,2.37,2.34,4.66
36.33,-3.59,-8.26,-3.60,-8.27,6.00,5.79,6.56,2.41,2.40,4.67
36.70,-3.56,-8.22,-3.55,-8.21,6.00,5.76,6.45,2.44,2.45,4.66
37.06,-3.50,-8.16,-3.46,-8.13,6.00,5.74,6.33,2.50,2.54,4.66
37.43,-3.32,-7.99,-3.32,-7.99,6.00,5.71,6.22,2.68,2.68,4.67
37.81,-3.14,-7.81,-3.17,-7.84,6.00,5.68,6.10,2.86,2.83,4.67
38.19,-3.02,-7.69,-3.05,-7.73,6.00,5.66,5.99,2.98,2.95,4.67
38.57,-2.95,-7.63,-2.96,-7.63,6.00,5.63,5.88,3.05,3.04,4.68
38.95,-2.88,-7.56,-2.81,-7.49,6.00,5.60,5.77,3.12,3.19,4.68
39.34,-2.62,-7.30,-2.60,-7.28,6.00,5.57,5.66,3.38,3.40,4.68
39.74,-2.34,-7.02,-2.38,-7.06,6.00,5.54,5.55,3.66,3.62,4.68
40.14,-2.17,-6.85,-2.23,-6.91,6.00,5.51,5.44,3.83,3.77,4.68
40.54,-2.17,-6.85,-2.16,-6.84,6.00,5.47,5.34,3.83,3.84,4.68
40.94,-2.18,-6.86,-2.13,-6.81,6.01,5.44,5.24,3.83,3.88,4.68
41.35,-2.06,-6.74,-2.06,-6.74,6.02,5.41,5.15,3.96,3.96,4.67
41.76,-1.92,-6.59,-1.94,-6.61,6.02,5.37,5.05,4.10,4.08,4.67
42.18,-1.78,-6.46,-1.78,-6.45,6.01,5.34,4.96,4.22,4.22,4.68
42.60,-1.64,-6.30,-1.64,-6.31,5.98,5.30,4.88,4.34,4.34,4.66
43.03,-1.50,-6.16,-1.50,-6.16,5.95,5.26,4.80,4.45,4.45,4.66
43.46,-1.37,-6.03,-1.37,-6.02,5.93,5.22,4.72,4.55,4.55,4.65
43.90,-1.24,-5.87,-1.25,-5.88,5.89,5.18,4.64,4.65,4.64,4.63
44.33,-1.15,-5.77,-1.14,-5.76,5.84,5.14,4.57,4.69,4.70,4.61
44.78,-1.06,-5.66,-1.09,-5.69,5.77,5.10,4.50,4.71,4.68,4.60
45.23,-1.05,-5.65,-1.10,-5.69,5.68,5.06,4.44,4.63,4.58,4.59
45.68,-1.12,-5.70,-1.09,-5.67,5.59,5.02,4.38,4.46,4.50,4.58
46.13,-1.08,-5.64,-1.00,-5.57,5.48,4.97,4.32,4.40,4.49,4.56
46.60,-0.83,-5.39,-0.84,-5.40,5.37,4.93,4.26,4.55,4.53,4.57
47.06,-0.58,-5.13,-0.66,-5.21,5.25,4.88,4.21,4.67,4.59,4.55
47.53,-0.52,-5.07,-0.51,-5.06,5.12,4.83,4.16,4.60,4.61,4.55
48.01,-0.45,-5.00,-0.43,-4.97,4.98,4.78,4.12,4.53,4.55,4.55
48.49,-0.34,-4.88,-0.35,-4.88,4.84,4.73,4.07,4.50,4.50,4.53
48.97,-0.23,-4.75,-0.20,-4.71,4.71,4.68,4.03,4.48,4.52,4.52
49.46,-0.05,-4.55,-0.05,-4.55,4.59,4.62,4.00,4.54,4.55,4.50
49.96,0.12,-4.37,0.03,-4.46,4.49,4.57,3.96,4.60,4.52,4.48
50.46,0.09,-4.40,0.08,-4.40,4.39,4.51,3.93,4.47,4.46,4.48
50.96,0.04,-4.44,0.15,-4.32,4.29,4.46,3.90,4.33,4.44,4.48
51.47,0.24,-4.22,0.24,-4.22,4.20,4.40,3.87,4.43,4.44,4.46
51.99,0.45,-3.99,0.35,-4.10,4.11,4.34,3.84,4.56,4.46,4.45
52.51,0.45,-4.00,0.45,-4.00,4.03,4.27,3.81,4.48,4.48,4.45
53.03,0.44,-4.01,0.50,-3.95,3.96,4.21,3.79,4.39,4.46,4.45
53.56,0.55,-3.89,0.54,-3.90,3.88,4.15,3.76,4.42,4.41,4.44
54.10,0.65,-3.79,0.61,-3.82,3.80,4.08,3.73,4.45,4.41,4.43
54.64,0.68,-3.74,0.69,-3.73,3.73,4.01,3.71,4.41,4.43,4.42
55.18,0.74,-3.68,0.77,-3.65,3.67,3.94,3.68,4.41,4.43,4.42
55.74,0.85,-3.56,0.81,-3.60,3.60,3.87,3.65,4.45,4.41,4.41
56.29,0.88,-3.53,0.85,-3.56,3.54,3.80,3.63,4.42,4.39,4.41
56.86,0.84,-3.56,0.89,-3.51,3.48,3.72,3.59,4.32,4.37,4.40
57.42,0.91,-3.47,0.93,-3.46,3.44,3.64,3.56,4.35,4.37,4.38
58.00,1.02,-3.36,0.98,-3.39,3.41,3.56,3.53,4.42,4.39,4.37
58.58,1.03,-3.34,1.02,-3.35,3.39,3.48,3.49,4.42,4.41,4.37
59.16,1.01,-3.35,1.00,-3.36,3.39,3.40,3.45,4.40,4.39,4.36
59.76,0.92,-3.43,0.94,-3.40,3.41,3.31,3.41,4.33,4.35,4.34
60.35,0.87,-3.44,0.88,-3.44,3.44,3.23,3.36,4.31,4.32,4.31
60.96,0.82,-3.47,0.80,-3.48,3.49,3.14,3.31,4.31,4.29,4.29
61.57,0.72,-3.53,0.71,-3.54,3.55,3.05,3.25,4.27,4.26,4.25
62.18,0.60,-3.62,0.60,-3.62,3.62,2.96,3.19,4.22,4.22,4.21
62.80,0.48,-3.70,0.49,-3.69,3.69,2.86,3.13,4.16,4.18,4.18
63.43,0.40,-3.75,0.40,-3.75,3.74,2.76,3.06,4.14,4.14,4.14
64.07,0.33,-3.78,0.32,-3.78,3.79,2.66,2.99,4.11,4.11,4.11
64.71,0.27,-3.80,0.26,-3.81,3.80,2.56,2.91,4.07,4.07,4.07
65.35,0.23,-3.81,0.22,-3.82,3.80,2.46,2.83,4.02,4.02,4.04
66.01,0.20,-3.80,0.21,-3.79,3.75,2.35,2.75,3.95,3.96,4.00
66.67,0.24,-3.73,0.25,-3.72,3.68,2.24,2.66,3.92,3.93,3.96
67.33,0.33,-3.59,0.34,-3.59,3.57,2.13,2.57,3.90,3.91,3.92
68.01,0.48,-3.42,0.46,-3.43,3.43,2.02,2.47,3.91,3.90,3.89
68.69,0.61,-3.25,0.59,-3.26,3.27,1.91,2.37,3.87,3.86,3.85
69.37,0.75,-3.06,0.76,-3.05,3.07,1.79,2.27,3.82,3.83,3.81
70.07,0.90,-2.87,0.93,-2.84,2.85,1.67,2.16,3.75,3.79,3.77
70.77,1.17,-2.57,1.11,-2.63,2.62,1.55,2.06,3.79,3.73,3.74
71.48,1.32,-2.38,1.32,-2.37,2.37,1.42,1.95,3.69,3.69,3.69
72.19,1.48,-2.16,1.55,-2.10,2.10,1.30,1.83,3.58,3.65,3.64
72.91,1.83,-1.77,1.77,-1.83,1.82,1.17,1.72,3.64,3.58,3.60
73.64,2.03,-1.52,2.01,-1.54,1.51,1.04,1.60,3.54,3.52,3.55
74.38,2.26,-1.25,2.29,-1.21,1.19,0.91,1.48,3.44,3.48,3.51
75.12,2.54,-0.92,2.56,-0.90,0.86,0.77,1.36,3.40,3.42,3.46
75.87,2.91,-0.50,2.86,-0.56,0.54,0.64,1.24,3.44,3.39,3.41
76.63,3.15,-0.23,3.17,-0.20,0.23,0.50,1.11,3.38,3.40,3.38
77.40,3.44,0.10,3.48,0.14,-0.06,0.36,0.99,3.38,3.42,3.34
78.17,3.77,0.48,3.71,0.41,-0.33,0.22,0.87,3.43,3.37,3.29
78.95,3.93,0.66,3.90,0.63,-0.59,0.07,0.74,3.34,3.31,3.27
79.74,3.99,0.76,4.04,0.81,-0.82,-0.07,0.61,3.17,3.22,3.23
80.54,4.15,0.95,4.16,0.96,-1.03,-0.22,0.48,3.12,3.13,3.20
81.35,4.34,1.18,4.33,1.17,-1.22,-0.37,0.36,3.12,3.11,3.16
82.16,4.52,1.39,4.52,1.39,-1.39,-0.51,0.23,3.13,3.13,3.13
82.98,4.72,1.61,4.68,1.58,-1.55,-0.66,0.10,3.16,3.12,3.11
83.81,4.79,1.72,4.82,1.75,-1.71,-0.81,-0.03,3.07,3.11,3.06
84.65,4.93,1.90,4.93,1.90,-1.87,-0.96,-0.17,3.06,3.06,3.03
85.50,5.05,2.04,5.00,2.00,-2.02,-1.11,-0.30,3.03,2.98,3.01
86.35,5.10,2.12,5.12,2.14,-2.16,-1.26,-0.43,2.94,2.95,2.97
87.22,5.16,2.22,5.22,2.28,-2.29,-1.41,-0.56,2.86,2.93,2.94
88.09,5.39,2.48,5.31,2.41,-2.42,-1.56,-0.70,2.97,2.89,2.91
88.97,5.42,2.55,5.40,2.53,-2.54,-1.71,-0.83,2.87,2.86,2.87
89.86,5.45,2.61,5.50,2.66,-2.66,-1.86,-0.97,2.78,2.84,2.83
90.76,5.57,2.77,5.57,2.78,-2.78,-2.01,-1.10,2.79,2.80,2.80
91.66,5.71,2.94,5.67,2.90,-2.89,-2.15,-1.24,2.82,2.78,2.77
92.58,5.75,3.02,5.74,3.01,-2.99,-2.29,-1.37,2.76,2.75,2.72
93.51,5.77,3.07,5.79,3.09,-3.09,-2.44,-1.51,2.68,2.70,2.70
94.44,5.83,3.16,5.83,3.16,-3.17,-2.57,-1.65,2.66,2.65,2.67
95.39,5.88,3.24,5.87,3.23,-3.25,-2.71,-1.79,2.63,2.62,2.64
96.34,5.92,3.31,5.92,3.31,-3.31,-2.84,-1.93,2.60,2.61,2.60
97.30,5.95,3.37,5.96,3.39,-3.37,-2.97,-2.07,2.57,2.59,2.57
98.28,6.01,3.46,5.99,3.44,-3.43,-3.09,-2.21,2.58,2.56,2.55
99.26,6.01,3.49,6.00,3.48,-3.48,-3.21,-2.35,2.53,2.52,2.52
100.25,5.99,3.50,6.00,3.51,-3.52,-3.32,-2.48,2.47,2.48,2.49
101.25,5.99,3.53,6.00,3.54,-3.56,-3.43,-2.62,2.43,2.45,2.46
102.27,6.03,3.60,6.02,3.59,-3.59,-3.53,-2.76,2.44,2.43,2.43
103.29,6.04,3.65,6.03,3.63,-3.61,-3.63,-2.90,2.42,2.42,2.39
104.32,6.03,3.66,6.02,3.66,-3.64,-3.72,-3.03,2.39,2.39,2.37
105.37,6.00,3.66,6.00,3.66,-3.67,-3.81,-3.17,2.33,2.33,2.34
106.42,5.98,3.66,5.98,3.67,-3.69,-3.89,-3.30,2.28,2.28,2.31
107.48,5.96,3.68,5.97,3.70,-3.72,-3.96,-3.43,2.24,2.25,2.27
108.56,5.99,3.75,5.98,3.75,-3.75,-4.03,-3.55,2.24,2.24,2.23
109.64,6.01,3.80,5.99,3.79,-3.77,-4.09,-3.68,2.23,2.22,2.20
110.74,5.99,3.82,5.99,3.82,-3.80,-4.14,-3.80,2.18,2.18,2.17
111.85,5.97,3.82,5.97,3.84,-3.84,-4.19,-3.91,2.13,2.14,2.15
112.97,5.96,3.86,5.96,3.86,-3.87,-4.23,-4.02,2.09,2.09,2.10
114.10,5.96,3.89,5.96,3.89,-3.90,-4.26,-4.12,2.06,2.06,2.07
115.24,5.96,3.92,5.95,3.92,-3.92,-4.29,-4.22,2.03,2.03,2.04
116.39,5.96,3.95,5.96,3.96,-3.94,-4.31,-4.31,2.02,2.02,2.00
117.55,5.96,3.97,5.96,3.98,-3.96,-4.33,-4.39,2.00,2.00,1.99
118.73,5.97,4.01,5.94,3.98,-3.97,-4.34,-4.47,1.99,1.97,1.96
119.92,5.91,3.96,5.92,3.97,-3.98,-4.34,-4.53,1.92,1.93,1.95
121.12,5.88,3.95,5.90,3.97,-3.99,-4.34,-4.59,1.89,1.91,1.92
122.33,5.89,3.98,5.88,3.97,-3.98,-4.33,-4.64,1.90,1.90,1.91
123.55,5.89,3.99,5.87,3.98,-3.97,-4.32,-4.68,1.92,1.91,1.90
124.79,5.85,3.96,5.85,3.96,-3.94,-4.31,-4.71,1.91,1.91,1.89
126.03,5.81,3.94,5.81,3.93,-3.91,-4.29,-4.73,1.90,1.90,1.87
127.29,5.75,3.88,5.75,3.89,-3.87,-4.26,-4.74,1.88,1.88,1.87
128.57,5.68,3.83,5.67,3.83,-3.82,-4.24,-4.74,1.85,1.85,1.84
129.85,5.60,3.77,5.58,3.75,-3.77,-4.21,-4.73,1.83,1.81,1.83
131.15,5.49,3.67,5.51,3.70,-3.72,-4.18,-4.72,1.77,1.80,1.82
132.46,5.45,3.64,5.46,3.66,-3.66,-4.14,-4.69,1.79,1.80,1.80
133.79,5.44,3.65,5.41,3.62,-3.61,-4.10,-4.66,1.82,1.80,1.79
135.12,5.38,3.61,5.36,3.58,-3.58,-4.06,-4.62,1.80,1.78,1.77
136.48,5.29,3.52,5.31,3.54,-3.55,-4.02,-4.57,1.73,1.75,1.77
137.84,5.25,3.50,5.26,3.51,-3.54,-3.98,-4.52,1.71,1.72,1.75
139.22,5.25,3.52,5.24,3.51,-3.54,-3.93,-4.46,1.71,1.70,1.73
140.61,5.25,3.54,5.24,3.53,-3.54,-3.89,-4.40,1.71,1.71,1.71
142.02,5.25,3.54,5.25,3.55,-3.54,-3.84,-4.33,1.71,1.72,1.71
143.44,5.25,3.55,5.25,3.56,-3.54,-3.79,-4.26,1.71,1.71,1.69
144.87,5.25,3.58,5.23,3.56,-3.54,-3.74,-4.19,1.70,1.68,1.67
146.32,5.18,3.54,5.19,3.54,-3.54,-3.69,-4.11,1.64,1.65,1.64
147.78,5.13,3.50,5.14,3.52,-3.52,-3.64,-4.03,1.61,1.62,1.62
149.26,5.08,3.49,5.08,3.50,-3.49,-3.59,-3.95,1.59,1.59,1.59
150.75,5.03,3.49,4.99,3.45,-3.44,-3.54,-3.87,1.59,1.55,1.53
152.26,4.88,3.40,4.88,3.40,-3.39,-3.49,-3.79,1.49,1.49,1.48
153.78,4.72,3.29,4.75,3.33,-3.33,-3.44,-3.71,1.38,1.42,1.42
155.32,4.64,3.28,4.61,3.25,-3.28,-3.39,-3.63,1.36,1.33,1.36
156.88,4.48,3.18,4.47,3.18,-3.22,-3.34,-3.55,1.25,1.25,1.30
158.44,4.33,3.10,4.34,3.11,-3.15,-3.29,-3.47,1.17,1.18,1.23
160.03,4.19,3.03,4.20,3.04,-3.06,-3.24,-3.39,1.13,1.14,1.16
161.63,4.08,2.98,4.08,2.98,-2.94,-3.20,-3.31,1.14,1.14,1.09
163.24,3.94,2.89,3.95,2.90,-2.78,-3.15,-3.24,1.16,1.17,1.04
164.88,3.79,2.78,3.75,2.74,-2.60,-3.10,-3.16,1.19,1.15,1.00
166.53,3.50,2.53,3.48,2.51,-2.41,-3.06,-3.09,1.09,1.07,0.97
168.19,3.15,2.21,3.17,2.23,-2.23,-3.01,-3.02,0.92,0.93,0.94
169.87,2.87,1.96,2.88,1.96,-2.07,-2.97,-2.95,0.79,0.80,0.91
171.57,2.66,1.76,2.67,1.77,-1.95,-2.93,-2.89,0.71,0.72,0.90
173.29,2.60,1.70,2.59,1.70,-1.87,-2.88,-2.82,0.73,0.73,0.89
175.02,2.61,1.71,2.64,1.74,-1.83,-2.84,-2.76,0.78,0.81,0.90
176.77,2.75,1.86,2.75,1.86,-1.83,-2.80,-2.70,0.92,0.92,0.89
178.54,2.92,2.02,2.86,1.96,-1.87,-2.77,-2.64,1.04,0.99,0.90
180.32,2.96,2.05,2.97,2.06,-1.94,-2.73,-2.59,1.02,1.03,0.91
182.13,3.00,2.07,3.03,2.11,-2.02,-2.69,-2.53,0.97,1.01,0.93
183.95,3.11,2.19,3.06,2.13,-2.11,-2.66,-2.48,0.99,0.95,0.92
185.79,3.10,2.17,3.09,2.16,-2.20,-2.63,-2.43,0.89,0.88,0.93
187.65,3.09,2.17,3.13,2.21,-2.29,-2.60,-2.39,0.79,0.84,0.91
189.52,3.20,2.29,3.20,2.29,-2.38,-2.57,-2.34,0.81,0.82,0.91
191.42,3.34,2.44,3.33,2.44,-2.48,-2.55,-2.30,0.86,0.85,0.90
193.33,3.49,2.60,3.50,2.61,-2.58,-2.52,-2.26,0.91,0.92,0.89
195.27,3.65,2.77,3.62,2.75,-2.68,-2.50,-2.22,0.96,0.94,0.88
197.22,3.72,2.85,3.70,2.84,-2.78,-2.48,-2.18,0.94,0.92,0.86
199.19,3.73,2.88,3.73,2.89,-2.86,-2.46,-2.14,0.87,0.87,0.84
201.18,3.73,2.89,3.75,2.92,-2.91,-2.45,-2.11,0.81,0.84,0.83
203.19,3.76,2.93,3.76,2.94,-2.94,-2.44,-2.08,0.82,0.82,0.82
205.23,3.79,2.98,3.75,2.94,-2.94,-2.43,-2.04,0.85,0.81,0.80
207.28,3.71,2.90,3.72,2.93,-2.91,-2.42,-2.01,0.79,0.81,0.80
209.35,3.65,2.86,3.67,2.89,-2.88,-2.41,-1.98,0.76,0.79,0.78
211.44,3.63,2.87,3.61,2.84,-2.85,-2.41,-1.96,0.78,0.76,0.75
213.56,3.55,2.79,3.55,2.79,-2.81,-2.40,-1.93,0.74,0.74,0.76
215.69,3.49,2.74,3.49,2.74,-2.77,-2.40,-1.90,0.72,0.72,0.75
217.85,3.42,2.68,3.44,2.70,-2.73,-2.39,-1.88,0.69,0.71,0.74
220.03,3.42,2.68,3.41,2.68,-2.69,-2.39,-1.85,0.73,0.72,0.73
222.23,3.41,2.69,3.39,2.67,-2.65,-2.38,-1.83,0.76,0.74,0.71
224.45,3.35,2.62,3.34,2.62,-2.60,-2.36,-1.80,0.75,0.74,0.73
226.70,3.30,2.57,3.29,2.56,-2.55,-2.35,-1.78,0.75,0.74,0.73
228.96,3.22,2.47,3.27,2.52,-2.50,-2.33,-1.75,0.72,0.77,0.74
231.25,3.25,2.49,3.22,2.46,-2.45,-2.30,-1.73,0.79,0.77,0.76
233.57,3.23,2.46,3.15,2.38,-2.40,-2.26,-1.70,0.82,0.75,0.77
235.90,3.03,2.24,3.10,2.32,-2.35,-2.22,-1.68,0.68,0.75,0.79
238.26,3.04,2.24,3.07,2.27,-2.30,-2.18,-1.65,0.74,0.77,0.80
240.64,3.10,2.27,3.06,2.24,-2.25,-2.12,-1.63,0.85,0.81,0.82
243.05,3.12,2.26,3.09,2.23,-2.20,-2.07,-1.60,0.92,0.89,0.86
245.48,3.05,2.16,3.07,2.18,-2.15,-2.00,-1.57,0.90,0.92,0.88
247.93,3.02,2.10,3.01,2.10,-2.09,-1.94,-1.54,0.93,0.93,0.92
250.41,2.97,2.03,2.96,2.02,-2.03,-1.87,-1.52,0.94,0.93,0.93
252.92,2.92,1.95,2.94,1.97,-1.97,-1.80,-1.49,0.95,0.97,0.97
255.45,2.90,1.90,2.89,1.90,-1.90,-1.74,-1.45,1.00,0.99,0.99
258.00,2.88,1.86,2.84,1.82,-1.83,-1.67,-1.42,1.05,1.01,1.02
260.58,2.76,1.72,2.77,1.73,-1.75,-1.60,-1.39,1.01,1.02,1.04
263.19,2.70,1.62,2.73,1.66,-1.68,-1.54,-1.35,1.02,1.05,1.07
265.82,2.70,1.61,2.71,1.62,-1.61,-1.47,-1.32,1.09,1.10,1.09
268.48,2.72,1.60,2.68,1.57,-1.54,-1.41,-1.28,1.18,1.15,1.12
271.16,2.67,1.51,2.63,1.48,-1.46,-1.35,-1.25,1.20,1.16,1.15
273.87,2.51,1.34,2.55,1.38,-1.39,-1.29,-1.21,1.12,1.16,1.17
276.61,2.47,1.26,2.50,1.29,-1.32,-1.24,-1.17,1.15,1.18,1.21
279.38,2.49,1.25,2.48,1.25,-1.25,-1.18,-1.13,1.24,1.24,1.23
282.17,2.50,1.24,2.46,1.20,-1.18,-1.13,-1.09,1.32,1.28,1.26
284.99,2.44,1.14,2.40,1.11,-1.11,-1.08,-1.05,1.32,1.29,1.30
287.84,2.29,0.97,2.34,1.02,-1.05,-1.03,-1.01,1.23,1.29,1.31
290.72,2.29,0.94,2.31,0.96,-0.99,-0.98,-0.97,1.29,1.32,1.35
293.63,2.33,0.95,2.31,0.93,-0.94,-0.94,-0.93,1.39,1.37,1.38
296.57,2.36,0.94,2.32,0.91,-0.87,-0.89,-0.89,1.48,1.45,1.42
299.53,2.28,0.83,2.29,0.85,-0.81,-0.85,-0.85,1.47,1.49,1.44
302.53,2.23,0.77,2.23,0.76,-0.74,-0.81,-0.81,1.48,1.49,1.46
305.55,2.18,0.67,2.17,0.67,-0.69,-0.77,-0.77,1.49,1.48,1.51
308.61,2.12,0.59,2.13,0.60,-0.63,-0.73,-0.72,1.49,1.50,1.53
311.69,2.09,0.53,2.10,0.54,-0.57,-0.69,-0.68,1.52,1.53,1.55
314.81,2.09,0.50,2.06,0.49,-0.51,-0.66,-0.64,1.58,1.56,1.58
317.96,2.04,0.44,2.04,0.45,-0.45,-0.62,-0.60,1.59,1.60,1.60
321.14,2.00,0.39,2.01,0.40,-0.39,-0.58,-0.56,1.61,1.62,1.61
324.35,1.99,0.36,1.96,0.34,-0.33,-0.55,-0.52,1.66,1.64,1.63
327.59,1.91,0.26,1.92,0.27,-0.25,-0.51,-0.48,1.65,1.66,1.65
330.87,1.85,0.19,1.86,0.20,-0.17,-0.48,-0.44,1.68,1.69,1.65
334.18,1.80,0.12,1.78,0.11,-0.08,-0.45,-0.39,1.72,1.70,1.67
337.52,1.71,0.03,1.69,0.01,0.01,-0.42,-0.35,1.72,1.70,1.68
340.90,1.58,-0.12,1.58,-0.11,0.10,-0.38,-0.31,1.68,1.68,1.70
344.30,1.47,-0.24,1.48,-0.23,0.18,-0.35,-0.27,1.65,1.66,1.71
347.75,1.40,-0.31,1.41,-0.30,0.26,-0.32,-0.23,1.65,1.67,1.71
351.23,1.38,-0.34,1.37,-0.34,0.32,-0.29,-0.19,1.70,1.69,1.72
354.74,1.37,-0.35,1.34,-0.37,0.37,-0.26,-0.15,1.74,1.72,1.71
358.28,1.31,-0.42,1.32,-0.40,0.41,-0.23,-0.11,1.72,1.74,1.72
361.87,1.29,-0.43,1.30,-0.42,0.44,-0.20,-0.07,1.73,1.74,1.72
365.49,1.30,-0.43,1.28,-0.45,0.45,-0.17,-0.03,1.75,1.73,1.73
369.14,1.27,-0.45,1.26,-0.46,0.46,-0.14,0.01,1.73,1.72,1.72
372.83,1.22,-0.50,1.24,-0.49,0.47,-0.11,0.05,1.69,1.71,1.72
376.56,1.22,-0.50,1.22,-0.50,0.49,-0.08,0.09,1.70,1.71,1.72
380.33,1.23,-0.50,1.23,-0.50,0.50,-0.05,0.13,1.72,1.72,1.73
384.13,1.24,-0.49,1.23,-0.49,0.51,-0.02,0.17,1.74,1.74,1.73
387.97,1.24,-0.48,1.22,-0.50,0.51,0.00,0.21,1.75,1.73,1.72
391.85,1.19,-0.52,1.19,-0.52,0.52,0.03,0.25,1.71,1.71,1.70
395.77,1.16,-0.56,1.16,-0.54,0.53,0.06,0.28,1.69,1.69,1.71
399.73,1.14,-0.57,1.14,-0.56,0.54,0.09,0.32,1.68,1.69,1.70
403.72,1.14,-0.57,1.14,-0.56,0.56,0.12,0.36,1.70,1.70,1.70
407.76,1.14,-0.55,1.12,-0.57,0.58,0.14,0.40,1.72,1.70,1.69
411.84,1.10,-0.59,1.10,-0.59,0.61,0.17,0.44,1.70,1.70,1.69
415.96,1.05,-0.64,1.06,-0.63,0.63,0.20,0.48,1.68,1.69,1.69
420.12,1.04,-0.65,1.02,-0.67,0.66,0.23,0.51,1.70,1.68,1.69
424.32,0.98,-0.71,0.99,-0.70,0.70,0.26,0.55,1.68,1.69,1.69
428.56,0.96,-0.74,0.96,-0.74,0.74,0.28,0.59,1.70,1.70,1.70
432.85,0.95,-0.76,0.92,-0.79,0.79,0.31,0.62,1.73,1.70,1.71
437.18,0.86,-0.86,0.88,-0.85,0.84,0.34,0.66,1.70,1.72,1.72
441.55,0.84,-0.92,0.85,-0.90,0.90,0.37,0.69,1.73,1.75,1.76
445.96,0.83,-0.96,0.83,-0.96,0.96,0.40,0.72,1.79,1.79,1.79
450.42,0.84,-0.98,0.81,-1.02,1.03,0.43,0.76,1.87,1.84,1.82
454.93,0.77,-1.10,0.78,-1.08,1.10,0.45,0.79,1.87,1.88,1.87
459.48,0.72,-1.20,0.74,-1.18,1.18,0.48,0.82,1.90,1.92,1.91
464.07,0.73,-1.24,0.70,-1.27,1.26,0.51,0.85,1.98,1.96,1.96
468.71,0.66,-1.37,0.68,-1.34,1.34,0.54,0.88,2.00,2.02,2.02
473.40,0.66,-1.41,0.65,-1.42,1.42,0.57,0.90,2.08,2.07,2.06
478.13,0.64,-1.49,0.63,-1.48,1.50,0.60,0.93,2.14,2.14,2.12
482.91,0.61,-1.56,0.62,-1.54,1.57,0.62,0.95,2.18,2.19,2.16
487.74,0.64,-1.57,0.60,-1.61,1.61,0.65,0.98,2.25,2.22,2.20
492.62,0.58,-1.68,0.59,-1.66,1.63,0.68,1.00,2.21,2.22,2.25
497.55,0.58,-1.70,0.59,-1.68,1.62,0.71,1.02,2.20,2.22,2.27
502.52,0.64,-1.67,0.64,-1.66,1.59,0.74,1.03,2.22,2.22,2.30
507.55,0.74,-1.57,0.74,-1.57,1.53,0.77,1.05,2.26,2.27,2.31
512.62,0.87,-1.45,0.87,-1.45,1.45,0.80,1.07,2.32,2.33,2.32
517.75,1.02,-1.31,1.00,-1.32,1.36,0.83,1.08,2.38,2.36,2.33
522.93,1.12,-1.20,1.10,-1.21,1.26,0.86,1.09,2.38,2.37,2.32
528.16,1.17,-1.12,1.17,-1.12,1.16,0.89,1.11,2.33,2.34,2.29
