frequency,raw,error,smoothed,error_smoothed,equalization,parametric_eq,fixed_band_eq,equalized_raw,equalized_smoothed,target
20.00,-2.01,-5.06,-2.01,-5.06,5.06,4.51,2.34,3.04,3.05,3.05
20.20,-2.00,-5.09,-2.00,-5.09,5.09,4.56,2.41,3.09,3.09,3.09
20.40,-1.99,-5.12,-2.00,-5.12,5.12,4.60,2.48,3.13,3.12,3.13
20.61,-1.99,-5.15,-1.99,-5.15,5.15,4.64,2.55,3.16,3.16,3.15
20.81,-1.98,-5.18,-1.98,-5.18,5.17,4.68,2.62,3.19,3.19,3.19
21.02,-1.97,-5.21,-1.97,-5.20,5.19,4.72,2.70,3.22,3.22,3.23
21.23,-1.96,-5.22,-1.96,-5.22,5.21,4.76,2.77,3.25,3.25,3.25
21.44,-1.95,-5.23,-1.95,-5.23,5.23,4.80,2.85,3.28,3.28,3.27
21.66,-1.94,-5.24,-1.94,-5.23,5.24,4.84,2.93,3.30,3.30,3.29
21.87,-1.93,-5.24,-1.94,-5.24,5.25,4.88,3.02,3.31,3.31,3.30
22.09,-1.93,-5.26,-1.93,-5.25,5.25,4.92,3.10,3.32,3.32,3.32
22.31,-1.92,-5.25,-1.92,-5.26,5.25,4.95,3.19,3.33,3.33,3.33
22.54,-1.91,-5.25,-1.91,-5.26,5.25,4.99,3.28,3.34,3.34,3.34
22.76,-1.90,-5.25,-1.90,-5.25,5.25,5.03,3.37,3.35,3.35,3.35
22.99,-1.89,-5.24,-1.89,-5.25,5.25,5.06,3.47,3.36,3.36,3.35
23.22,-1.88,-5.24,-1.88,-5.24,5.25,5.10,3.57,3.37,3.37,3.36
23.45,-1.87,-5.24,-1.87,-5.24,5.25,5.13,3.66,3.38,3.38,3.37
23.69,-1.86,-5.24,-1.86,-5.24,5.25,5.16,3.77,3.39,3.39,3.38
23.92,-1.85,-5.24,-1.86,-5.25,5.25,5.20,3.87,3.40,3.40,3.39
24.16,-1.85,-5.26,-1.85,-5.26,5.25,5.23,3.97,3.40,3.41,3.41
24.40,-1.84,-5.27,-1.84,-5.26,5.26,5.26,4.08,3.42,3.42,3.43
24.65,-1.83,-5.26,-1.83,-5.27,5.26,5.29,4.19,3.43,3.43,3.43
24.89,-1.82,-5.26,-1.82,-5.26,5.26,5.32,4.30,3.44,3.44,3.44
25.14,-1.81,-5.26,-1.81,-5.26,5.26,5.35,4.40,3.45,3.45,3.45
25.39,-1.80,-5.26,-1.80,-5.26,5.26,5.37,4.52,3.46,3.46,3.46
25.65,-1.79,-5.27,-1.79,-5.26,5.26,5.40,4.63,3.47,3.47,3.48
25.91,-1.78,-5.26,-1.78,-5.26,5.26,5.43,4.74,3.48,3.48,3.48
26.16,-1.77,-5.26,-1.77,-5.26,5.26,5.45,4.85,3.49,3.49,3.49
26.43,-1.76,-5.26,-1.76,-5.26,5.26,5.47,4.96,3.50,3.50,3.49
26.69,-1.75,-5.26,-1.75,-5.26,5.26,5.49,5.07,3.51,3.51,3.50
26.96,-1.74,-5.27,-1.74,-5.26,5.26,5.52,5.17,3.52,3.52,3.52
27.23,-1.73,-5.27,-1.73,-5.26,5.26,5.54,5.28,3.53,3.53,3.53
27.50,-1.72,-5.26,-1.72,-5.26,5.26,5.55,5.38,3.54,3.54,3.54
27.77,-1.71,-5.25,-1.71,-5.26,5.26,5.57,5.48,3.55,3.55,3.54
28.05,-1.70,-5.26,-1.70,-5.26,5.26,5.59,5.57,3.56,3.56,3.56
28.33,-1.69,-5.25,-1.69,-5.26,5.26,5.60,5.66,3.56,3.56,3.56
28.62,-1.68,-5.25,-1.68,-5.25,5.25,5.62,5.75,3.57,3.57,3.57
28.90,-1.67,-5.25,-1.67,-5.25,5.25,5.63,5.83,3.58,3.58,3.58
29.19,-1.66,-5.24,-1.66,-5.25,5.25,5.64,5.90,3.59,3.59,3.58
29.48,-1.65,-5.26,-1.65,-5.25,5.25,5.65,5.97,3.60,3.60,3.61
29.78,-1.64,-5.25,-1.64,-5.25,5.25,5.66,6.02,3.60,3.60,3.61
30.08,-1.63,-5.25,-1.63,-5.25,5.24,5.67,6.08,3.61,3.61,3.61
30.38,-1.62,-5.24,-1.62,-5.24,5.24,5.68,6.12,3.62,3.62,3.61
30.68,-1.61,-5.24,-1.61,-5.24,5.24,5.68,6.15,3.63,3.63,3.63
30.99,-1.60,-5.23,-1.60,-5.24,5.24,5.69,6.18,3.63,3.63,3.63
31.30,-1.59,-5.23,-1.59,-5.23,5.23,5.69,6.19,3.64,3.64,3.64
31.61,-1.58,-5.23,-1.58,-5.23,5.23,5.69,6.20,3.65,3.65,3.65
31.93,-1.57,-5.23,-1.57,-5.23,5.23,5.69,6.20,3.65,3.65,3.66
32.24,-1.56,-5.22,-1.56,-5.22,5.22,5.69,6.19,3.66,3.66,3.66
32.57,-1.55,-5.23,-1.55,-5.22,5.22,5.69,6.18,3.67,3.67,3.67
32.89,-1.53,-5.22,-1.54,-5.22,5.22,5.68,6.15,3.69,3.68,3.68
33.22,-1.52,-5.21,-1.52,-5.22,5.22,5.68,6.12,3.70,3.69,3.69
33.55,-1.51,-5.21,-1.51,-5.21,5.21,5.67,6.08,3.70,3.70,3.70
33.89,-1.50,-5.21,-1.50,-5.21,5.21,5.66,6.03,3.71,3.71,3.71
34.23,-1.49,-5.21,-1.49,-5.21,5.21,5.66,5.98,3.71,3.71,3.72
34.57,-1.48,-5.21,-1.48,-5.20,5.20,5.65,5.93,3.72,3.72,3.72
34.92,-1.46,-5.19,-1.47,-5.19,5.19,5.63,5.87,3.73,3.72,3.72
35.27,-1.45,-5.18,-1.45,-5.18,5.18,5.62,5.80,3.73,3.73,3.73
35.62,-1.43,-5.17,-1.43,-5.17,5.17,5.61,5.74,3.73,3.74,3.74
35.97,-1.41,-5.15,-1.41,-5.15,5.15,5.59,5.67,3.74,3.74,3.74
36.33,-1.39,-5.14,-1.39,-5.13,5.14,5.58,5.59,3.75,3.75,3.74
36.70,-1.37,-5.12,-1.37,-5.12,5.12,5.56,5.52,3.75,3.75,3.74
37.06,-1.35,-5.10,-1.35,-5.10,5.10,5.54,5.45,3.75,3.75,3.75
37.43,-1.33,-5.09,-1.33,-5.09,5.08,5.52,5.37,3.75,3.75,3.76
37.81,-1.31,-5.07,-1.31,-5.07,5.06,5.50,5.30,3.75,3.75,3.76
38.19,-1.29,-5.05,-1.29,-5.05,5.04,5.48,5.23,3.75,3.75,3.75
38.57,-1.27,-5.02,-1.27,-5.02,5.02,5.46,5.16,3.75,3.75,3.75
38.95,-1.25,-5.00,-1.25,-5.00,5.00,5.44,5.08,3.75,3.75,3.75
39.34,-1.23,-4.98,-1.23,-4.98,4.98,5.41,5.02,3.75,3.75,3.74
39.74,-1.21,-4.95,-1.21,-4.96,4.96,5.39,4.95,3.74,3.74,3.74
40.14,-1.19,-4.94,-1.19,-4.94,4.93,5.36,4.88,3.74,3.74,3.75
40.54,-1.17,-4.92,-1.17,-4.91,4.91,5.33,4.82,3.74,3.74,3.74
40.94,-1.14,-4.88,-1.15,-4.89,4.89,5.31,4.76,3.74,3.74,3.74
41.35,-1.12,-4.86,-1.12,-4.86,4.86,5.28,4.70,3.74,3.74,3.74
41.76,-1.09,-4.84,-1.09,-4.83,4.84,5.25,4.65,3.75,3.75,3.74
42.18,-1.06,-4.81,-1.07,-4.81,4.81,5.22,4.60,3.75,3.75,3.75
42.60,-1.04,-4.79,-1.04,-4.79,4.79,5.19,4.55,3.75,3.75,3.75
43.03,-1.02,-4.77,-1.02,-4.77,4.77,5.16,4.51,3.74,3.75,3.75
43.46,-1.00,-4.75,-1.00,-4.75,4.75,5.12,4.46,3.74,3.74,3.75
43.90,-0.98,-4.72,-0.99,-4.73,4.73,5.09,4.43,3.74,3.74,3.73
44.33,-0.97,-4.71,-0.97,-4.71,4.71,5.06,4.39,3.74,3.74,3.74
44.78,-0.96,-4.70,-0.96,-4.69,4.69,5.02,4.36,3.73,3.73,3.73
45.23,-0.95,-4.68,-0.95,-4.68,4.68,4.99,4.33,3.73,3.73,3.73
45.68,-0.93,-4.66,-0.94,-4.67,4.67,4.95,4.31,3.73,3.73,3.73
46.13,-0.92,-4.65,-0.92,-4.66,4.66,4.92,4.28,3.73,3.73,3.73
46.60,-0.91,-4.65,-0.91,-4.64,4.65,4.88,4.27,3.73,3.74,3.74
47.06,-0.90,-4.64,-0.90,-4.64,4.64,4.84,4.25,3.73,3.73,3.74
47.53,-0.89,-4.62,-0.90,-4.63,4.63,4.81,4.24,3.73,3.73,3.73
48.01,-0.89,-4.64,-0.89,-4.62,4.62,4.77,4.23,3.73,3.73,3.74
48.49,-0.89,-4.62,-0.89,-4.61,4.61,4.73,4.22,3.72,3.72,3.73
48.97,-0.88,-4.59,-0.89,-4.60,4.60,4.69,4.22,3.72,3.72,3.71
49.46,-0.88,-4.58,-0.89,-4.58,4.60,4.65,4.21,3.71,3.71,3.70
49.96,-0.89,-4.58,-0.89,-4.58,4.59,4.62,4.21,3.70,3.70,3.69
50.46,-0.90,-4.59,-0.90,-4.58,4.58,4.58,4.22,3.68,3.68,3.69
50.96,-0.91,-4.59,-0.91,-4.58,4.58,4.54,4.22,3.67,3.67,3.68
51.47,-0.91,-4.56,-0.92,-4.58,4.57,4.50,4.23,3.66,3.66,3.65
51.99,-0.92,-4.57,-0.92,-4.57,4.57,4.46,4.23,3.64,3.64,3.64
52.51,-0.93,-4.58,-0.93,-4.57,4.56,4.42,4.24,3.63,3.63,3.64
53.03,-0.93,-4.56,-0.94,-4.56,4.56,4.38,4.25,3.63,3.62,3.62
53.56,-0.94,-4.56,-0.94,-4.55,4.55,4.34,4.26,3.61,3.61,3.62
54.10,-0.94,-4.54,-0.94,-4.54,4.55,4.30,4.27,3.61,3.60,3.60
54.64,-0.95,-4.54,-0.96,-4.54,4.55,4.25,4.28,3.59,3.59,3.59
55.18,-0.97,-4.54,-0.97,-4.54,4.54,4.21,4.29,3.57,3.57,3.57
55.74,-0.99,-4.54,-0.99,-4.54,4.54,4.17,4.30,3.55,3.55,3.54
56.29,-1.01,-4.56,-1.01,-4.55,4.54,4.13,4.30,3.53,3.53,3.54
56.86,-1.02,-4.54,-1.02,-4.54,4.54,4.09,4.31,3.52,3.52,3.52
57.42,-1.03,-4.53,-1.03,-4.54,4.54,4.05,4.31,3.51,3.51,3.50
58.00,-1.04,-4.53,-1.04,-4.53,4.54,4.01,4.31,3.49,3.49,3.49
58.58,-1.05,-4.53,-1.05,-4.52,4.52,3.97,4.31,3.47,3.47,3.47
59.16,-1.05,-4.51,-1.05,-4.51,4.50,3.93,4.30,3.45,3.45,3.46
59.76,-1.04,-4.49,-1.04,-4.49,4.47,3.88,4.29,3.43,3.43,3.45
60.35,-1.03,-4.46,-1.03,-4.45,4.44,3.84,4.28,3.41,3.41,3.42
60.96,-1.00,-4.40,-1.01,-4.40,4.40,3.80,4.27,3.40,3.39,3.40
61.57,-0.98,-4.35,-0.98,-4.35,4.35,3.76,4.25,3.37,3.37,3.36
62.18,-0.95,-4.28,-0.95,-4.29,4.30,3.72,4.22,3.35,3.35,3.33
62.80,-0.93,-4.24,-0.93,-4.24,4.25,3.68,4.19,3.31,3.31,3.31
63.43,-0.90,-4.18,-0.90,-4.18,4.19,3.64,4.16,3.28,3.28,3.28
64.07,-0.88,-4.13,-0.88,-4.13,4.13,3.60,4.12,3.24,3.25,3.25
64.71,-0.84,-4.06,-0.85,-4.07,4.06,3.56,4.08,3.22,3.22,3.22
65.35,-0.81,-4.01,-0.81,-4.00,4.00,3.51,4.04,3.19,3.19,3.19
66.01,-0.76,-3.93,-0.76,-3.93,3.93,3.47,3.99,3.17,3.17,3.17
66.67,-0.71,-3.86,-0.72,-3.86,3.86,3.43,3.94,3.15,3.14,3.15
67.33,-0.67,-3.79,-0.67,-3.79,3.79,3.39,3.88,3.11,3.12,3.12
68.01,-0.62,-3.71,-0.62,-3.71,3.71,3.35,3.82,3.08,3.08,3.09
68.69,-0.57,-3.63,-0.57,-3.63,3.62,3.31,3.76,3.05,3.05,3.06
69.37,-0.52,-3.55,-0.52,-3.54,3.54,3.27,3.70,3.01,3.02,3.02
70.07,-0.45,-3.45,-0.46,-3.45,3.45,3.23,3.63,3.00,2.99,2.99
70.77,-0.39,-3.36,-0.39,-3.36,3.36,3.19,3.56,2.97,2.97,2.97
71.48,-0.33,-3.28,-0.33,-3.27,3.28,3.15,3.49,2.94,2.95,2.95
72.19,-0.26,-3.18,-0.27,-3.18,3.19,3.10,3.42,2.93,2.92,2.91
72.91,-0.21,-3.10,-0.21,-3.10,3.11,3.06,3.35,2.90,2.90,2.89
73.64,-0.15,-3.02,-0.16,-3.02,3.03,3.02,3.27,2.88,2.87,2.86
74.38,-0.11,-2.96,-0.11,-2.95,2.96,2.98,3.20,2.84,2.85,2.85
75.12,-0.06,-2.89,-0.06,-2.89,2.88,2.94,3.12,2.82,2.82,2.82
75.87,-0.01,-2.82,-0.01,-2.82,2.81,2.90,3.05,2.80,2.80,2.81
76.63,0.04,-2.75,0.04,-2.75,2.74,2.86,2.98,2.78,2.78,2.79
77.40,0.10,-2.67,0.10,-2.68,2.67,2.82,2.90,2.77,2.77,2.77
78.17,0.15,-2.61,0.15,-2.61,2.61,2.77,2.83,2.75,2.76,2.75
78.95,0.21,-2.54,0.20,-2.54,2.54,2.73,2.76,2.75,2.75,2.74
79.74,0.25,-2.49,0.26,-2.48,2.48,2.69,2.69,2.73,2.74,2.73
80.54,0.31,-2.42,0.31,-2.42,2.42,2.65,2.61,2.73,2.73,2.72
81.35,0.36,-2.36,0.35,-2.36,2.37,2.60,2.55,2.73,2.72,2.71
82.16,0.39,-2.32,0.39,-2.32,2.32,2.56,2.48,2.71,2.71,2.70
82.98,0.42,-2.28,0.42,-2.28,2.27,2.52,2.41,2.69,2.69,2.70
83.81,0.45,-2.24,0.45,-2.24,2.23,2.47,2.35,2.68,2.68,2.69
84.65,0.49,-2.19,0.49,-2.19,2.19,2.43,2.28,2.68,2.68,2.68
85.50,0.53,-2.15,0.53,-2.15,2.15,2.38,2.22,2.68,2.68,2.68
86.35,0.58,-2.10,0.57,-2.11,2.11,2.33,2.16,2.69,2.68,2.68
87.22,0.61,-2.07,0.60,-2.07,2.08,2.29,2.10,2.68,2.68,2.67
88.09,0.63,-2.04,0.64,-2.04,2.04,2.24,2.04,2.67,2.67,2.67
88.97,0.67,-2.01,0.66,-2.01,2.00,2.19,1.98,2.67,2.67,2.67
89.86,0.70,-1.98,0.70,-1.97,1.97,2.14,1.93,2.66,2.67,2.68
90.76,0.74,-1.92,0.74,-1.93,1.93,2.09,1.87,2.67,2.67,2.66
91.66,0.78,-1.89,0.78,-1.89,1.90,2.04,1.82,2.68,2.67,2.67
92.58,0.82,-1.84,0.81,-1.85,1.86,1.99,1.77,2.68,2.67,2.66
93.51,0.85,-1.82,0.85,-1.82,1.81,1.94,1.72,2.66,2.66,2.67
94.44,0.89,-1.78,0.89,-1.78,1.77,1.88,1.67,2.65,2.65,2.66
95.39,0.93,-1.74,0.93,-1.73,1.71,1.83,1.63,2.64,2.64,2.67
96.34,0.99,-1.66,0.99,-1.66,1.65,1.77,1.58,2.64,2.64,2.65
97.30,1.05,-1.59,1.05,-1.59,1.58,1.71,1.54,2.63,2.64,2.64
98.28,1.12,-1.51,1.12,-1.51,1.52,1.65,1.50,2.64,2.64,2.63
99.26,1.19,-1.43,1.18,-1.44,1.45,1.59,1.45,2.64,2.63,2.62
100.25,1.24,-1.37,1.24,-1.37,1.38,1.53,1.41,2.62,2.63,2.61
101.25,1.30,-1.31,1.30,-1.30,1.32,1.47,1.37,2.62,2.62,2.60
102.27,1.35,-1.24,1.34,-1.25,1.26,1.40,1.34,2.60,2.59,2.58
103.29,1.37,-1.20,1.37,-1.20,1.20,1.33,1.30,2.56,2.57,2.56
104.32,1.40,-1.16,1.40,-1.15,1.14,1.26,1.26,2.54,2.54,2.56
105.37,1.44,-1.10,1.44,-1.09,1.08,1.19,1.23,2.52,2.52,2.54
106.42,1.49,-1.02,1.48,-1.03,1.02,1.12,1.19,2.51,2.50,2.51
107.48,1.53,-0.96,1.53,-0.95,0.95,1.05,1.16,2.48,2.48,2.49
108.56,1.57,-0.88,1.57,-0.88,0.89,0.97,1.12,2.45,2.45,2.45
109.64,1.61,-0.81,1.60,-0.82,0.82,0.89,1.09,2.42,2.42,2.42
110.74,1.64,-0.75,1.64,-0.74,0.74,0.81,1.06,2.38,2.39,2.39
111.85,1.68,-0.67,1.68,-0.67,0.67,0.73,1.03,2.35,2.35,2.35
112.97,1.72,-0.58,1.71,-0.60,0.60,0.65,1.00,2.32,2.31,2.30
114.10,1.75,-0.53,1.74,-0.52,0.53,0.57,0.97,2.27,2.27,2.27
115.24,1.77,-0.46,1.77,-0.46,0.45,0.49,0.94,2.22,2.22,2.22
116.39,1.79,-0.39,1.79,-0.39,0.38,0.41,0.91,2.17,2.17,2.18
117.55,1.82,-0.32,1.82,-0.32,0.31,0.33,0.88,2.13,2.13,2.14
118.73,1.85,-0.24,1.85,-0.25,0.24,0.25,0.85,2.09,2.10,2.09
119.92,1.89,-0.18,1.88,-0.18,0.18,0.17,0.82,2.07,2.06,2.06
121.12,1.91,-0.11,1.91,-0.11,0.13,0.10,0.79,2.03,2.03,2.02
122.33,1.92,-0.06,1.92,-0.06,0.07,0.02,0.76,1.99,2.00,1.98
123.55,1.94,-0.02,1.93,-0.02,0.03,-0.05,0.73,1.97,1.96,1.96
124.79,1.94,0.02,1.93,0.01,-0.01,-0.11,0.70,1.93,1.92,1.92
126.03,1.93,0.04,1.93,0.04,-0.05,-0.17,0.67,1.88,1.88,1.89
127.29,1.92,0.07,1.92,0.07,-0.08,-0.22,0.64,1.84,1.84,1.85
128.57,1.91,0.10,1.91,0.10,-0.11,-0.27,0.61,1.80,1.80,1.81
129.85,1.92,0.13,1.91,0.13,-0.14,-0.31,0.58,1.78,1.77,1.78
131.15,1.92,0.17,1.92,0.17,-0.17,-0.35,0.55,1.75,1.75,1.75
132.46,1.93,0.20,1.93,0.20,-0.20,-0.37,0.52,1.73,1.73,1.73
133.79,1.94,0.23,1.93,0.23,-0.22,-0.39,0.49,1.71,1.71,1.71
135.12,1.93,0.25,1.93,0.25,-0.25,-0.39,0.46,1.68,1.68,1.67
136.48,1.92,0.26,1.92,0.27,-0.27,-0.39,0.43,1.65,1.65,1.65
137.84,1.90,0.27,1.90,0.28,-0.28,-0.38,0.40,1.62,1.62,1.62
139.22,1.89,0.29,1.88,0.29,-0.29,-0.36,0.37,1.60,1.60,1.59
140.61,1.87,0.30,1.87,0.29,-0.29,-0.33,0.34,1.58,1.57,1.56
142.02,1.84,0.28,1.84,0.29,-0.29,-0.29,0.31,1.55,1.55,1.56
143.44,1.82,0.28,1.81,0.28,-0.28,-0.25,0.28,1.53,1.53,1.54
144.87,1.78,0.27,1.78,0.27,-0.27,-0.20,0.24,1.51,1.51,1.51
146.32,1.75,0.26,1.74,0.25,-0.26,-0.14,0.21,1.49,1.49,1.48
147.78,1.69,0.22,1.69,0.23,-0.23,-0.08,0.18,1.45,1.46,1.47
149.26,1.65,0.21,1.64,0.21,-0.20,-0.02,0.15,1.44,1.44,1.44
150.75,1.58,0.18,1.58,0.17,-0.17,0.05,0.11,1.41,1.41,1.40
152.26,1.52,0.14,1.51,0.14,-0.13,0.12,0.08,1.39,1.38,1.37
153.78,1.43,0.08,1.43,0.09,-0.08,0.20,0.05,1.34,1.35,1.35
155.32,1.35,0.04,1.34,0.03,-0.03,0.27,0.01,1.31,1.31,1.31
156.88,1.24,-0.05,1.25,-0.04,0.02,0.35,-0.02,1.26,1.27,1.28
158.44,1.16,-0.09,1.15,-0.10,0.09,0.42,-0.06,1.24,1.24,1.25
160.03,1.05,-0.16,1.06,-0.15,0.15,0.49,-0.09,1.20,1.21,1.21
161.63,0.96,-0.21,0.96,-0.22,0.22,0.57,-0.13,1.18,1.18,1.17
163.24,0.87,-0.27,0.84,-0.30,0.30,0.64,-0.16,1.17,1.14,1.14
164.88,0.71,-0.40,0.73,-0.37,0.38,0.70,-0.20,1.09,1.11,1.11
166.53,0.60,-0.47,0.60,-0.47,0.47,0.77,-0.23,1.06,1.07,1.07
168.19,0.50,-0.53,0.47,-0.56,0.56,0.83,-0.27,1.05,1.03,1.03
169.87,0.33,-0.67,0.35,-0.64,0.65,0.89,-0.31,0.98,1.00,0.99
171.57,0.22,-0.74,0.21,-0.74,0.74,0.94,-0.35,0.96,0.95,0.95
173.29,0.09,-0.82,0.06,-0.85,0.84,0.99,-0.39,0.92,0.90,0.91
175.02,-0.10,-0.97,-0.08,-0.94,0.93,1.04,-0.42,0.83,0.86,0.87
176.77,-0.22,-1.04,-0.22,-1.04,1.03,1.08,-0.46,0.81,0.81,0.82
178.54,-0.35,-1.12,-0.35,-1.12,1.13,1.12,-0.50,0.78,0.78,0.77
180.32,-0.48,-1.21,-0.48,-1.21,1.23,1.15,-0.54,0.75,0.75,0.72
182.13,-0.61,-1.29,-0.64,-1.32,1.34,1.18,-0.58,0.72,0.70,0.68
183.95,-0.82,-1.45,-0.80,-1.43,1.43,1.20,-0.63,0.61,0.64,0.63
185.79,-0.96,-1.54,-0.96,-1.54,1.53,1.22,-0.67,0.57,0.57,0.58
187.65,-1.10,-1.62,-1.11,-1.63,1.62,1.24,-0.71,0.51,0.51,0.52
189.52,-1.23,-1.71,-1.23,-1.70,1.69,1.25,-0.75,0.46,0.47,0.48
191.42,-1.33,-1.77,-1.33,-1.76,1.76,1.25,-0.79,0.43,0.43,0.43
193.33,-1.42,-1.81,-1.42,-1.81,1.81,1.25,-0.84,0.39,0.39,0.39
195.27,-1.49,-1.84,-1.50,-1.84,1.84,1.24,-0.88,0.35,0.34,0.35
197.22,-1.56,-1.86,-1.56,-1.86,1.86,1.23,-0.92,0.29,0.30,0.30
199.19,-1.60,-1.85,-1.60,-1.85,1.85,1.21,-0.97,0.25,0.25,0.25
201.18,-1.61,-1.82,-1.62,-1.82,1.83,1.19,-1.01,0.21,0.21,0.21
203.19,-1.61,-1.79,-1.61,-1.78,1.78,1.16,-1.05,0.17,0.16,0.18
205.23,-1.59,-1.72,-1.59,-1.73,1.71,1.13,-1.09,0.12,0.12,0.13
207.28,-1.54,-1.65,-1.54,-1.64,1.62,1.09,-1.13,0.08,0.08,0.11
209.35,-1.47,-1.53,-1.47,-1.52,1.52,1.05,-1.18,0.04,0.04,0.06
211.44,-1.37,-1.38,-1.38,-1.40,1.39,1.00,-1.22,0.02,0.02,0.01
213.56,-1.27,-1.25,-1.26,-1.25,1.26,0.94,-1.25,-0.01,-0.01,-0.02
215.69,-1.14,-1.10,-1.14,-1.09,1.11,0.88,-1.29,-0.03,-0.03,-0.04
217.85,-1.00,-0.93,-1.02,-0.94,0.95,0.81,-1.33,-0.05,-0.07,-0.08
220.03,-0.90,-0.79,-0.90,-0.79,0.79,0.74,-1.36,-0.11,-0.11,-0.11
222.23,-0.78,-0.64,-0.77,-0.63,0.62,0.66,-1.40,-0.16,-0.15,-0.14
224.45,-0.62,-0.46,-0.62,-0.46,0.45,0.57,-1.43,-0.17,-0.17,-0.16
226.70,-0.45,-0.28,-0.46,-0.28,0.28,0.48,-1.45,-0.17,-0.18,-0.18
228.96,-0.28,-0.08,-0.30,-0.11,0.12,0.38,-1.48,-0.17,-0.19,-0.20
231.25,-0.17,0.04,-0.15,0.06,-0.05,0.27,-1.50,-0.22,-0.20,-0.21
233.57,-0.01,0.21,-0.00,0.22,-0.22,0.16,-1.52,-0.23,-0.22,-0.22
235.90,0.17,0.41,0.14,0.38,-0.38,0.04,-1.54,-0.21,-0.24,-0.24
238.26,0.29,0.53,0.30,0.55,-0.54,-0.08,-1.55,-0.26,-0.24,-0.25
240.64,0.45,0.70,0.44,0.69,-0.70,-0.21,-1.56,-0.25,-0.26,-0.25
243.05,0.59,0.83,0.59,0.84,-0.86,-0.35,-1.56,-0.27,-0.26,-0.25
245.48,0.74,0.99,0.75,1.00,-1.00,-0.49,-1.56,-0.27,-0.26,-0.25
247.93,0.93,1.18,0.91,1.16,-1.15,-0.64,-1.56,-0.22,-0.24,-0.25
250.41,1.05,1.30,1.06,1.31,-1.29,-0.79,-1.55,-0.25,-0.23,-0.25
252.92,1.22,1.45,1.20,1.44,-1.43,-0.94,-1.54,-0.21,-0.23,-0.24
255.45,1.34,1.56,1.33,1.56,-1.56,-1.10,-1.52,-0.23,-0.23,-0.22
258.00,1.45,1.66,1.47,1.68,-1.69,-1.26,-1.50,-0.24,-0.23,-0.22
260.58,1.61,1.82,1.60,1.81,-1.81,-1.43,-1.48,-0.21,-0.22,-0.21
263.19,1.73,1.92,1.74,1.93,-1.93,-1.59,-1.45,-0.20,-0.19,-0.19
265.82,1.88,2.06,1.86,2.04,-2.04,-1.76,-1.42,-0.16,-0.18,-0.19
268.48,1.98,2.14,1.98,2.14,-2.14,-1.92,-1.38,-0.17,-0.16,-0.16
271.16,2.08,2.22,2.10,2.25,-2.24,-2.08,-1.34,-0.17,-0.15,-0.14
273.87,2.22,2.36,2.20,2.33,-2.34,-2.24,-1.30,-0.12,-0.13,-0.14
276.61,2.32,2.43,2.31,2.43,-2.43,-2.39,-1.26,-0.11,-0.11,-0.11
279.38,2.40,2.50,2.40,2.50,-2.51,-2.53,-1.21,-0.11,-0.10,-0.10
282.17,2.49,2.57,2.49,2.57,-2.58,-2.67,-1.16,-0.09,-0.09,-0.09
284.99,2.56,2.63,2.57,2.64,-2.65,-2.79,-1.11,-0.09,-0.08,-0.07
287.84,2.66,2.72,2.65,2.71,-2.71,-2.89,-1.05,-0.05,-0.06,-0.06
290.72,2.72,2.76,2.71,2.76,-2.76,-2.99,-0.99,-0.04,-0.04,-0.05
293.63,2.77,2.80,2.77,2.80,-2.80,-3.06,-0.94,-0.03,-0.03,-0.03
296.57,2.82,2.83,2.82,2.83,-2.83,-3.12,-0.87,-0.02,-0.01,-0.01
299.53,2.86,2.86,2.86,2.86,-2.86,-3.17,-0.81,0.00,0.00,-0.00
302.53,2.90,2.89,2.89,2.88,-2.87,-3.19,-0.75,0.03,0.02,0.00
305.55,2.91,2.87,2.91,2.88,-2.88,-3.19,-0.68,0.03,0.03,0.03
308.61,2.91,2.87,2.91,2.87,-2.87,-3.18,-0.62,0.04,0.04,0.04
311.69,2.90,2.85,2.91,2.85,-2.86,-3.15,-0.55,0.04,0.05,0.05
314.81,2.90,2.82,2.90,2.83,-2.83,-3.10,-0.49,0.06,0.06,0.08
317.96,2.89,2.81,2.88,2.80,-2.80,-3.04,-0.42,0.08,0.08,0.07
321.14,2.85,2.76,2.85,2.77,-2.77,-2.96,-0.35,0.08,0.08,0.08
324.35,2.81,2.73,2.81,2.72,-2.72,-2.87,-0.28,0.09,0.09,0.08
327.59,2.76,2.66,2.76,2.67,-2.67,-2.77,-0.21,0.09,0.09,0.10
330.87,2.71,2.61,2.71,2.61,-2.61,-2.67,-0.14,0.10,0.10,0.10
334.18,2.66,2.56,2.65,2.55,-2.54,-2.55,-0.07,0.12,0.11,0.10
337.52,2.57,2.46,2.58,2.47,-2.47,-2.43,-0.00,0.10,0.11,0.10
340.90,2.50,2.38,2.50,2.39,-2.39,-2.31,0.07,0.11,0.11,0.11
344.30,2.41,2.30,2.41,2.29,-2.30,-2.18,0.14,0.11,0.11,0.11
347.75,2.32,2.21,2.32,2.21,-2.21,-2.05,0.21,0.11,0.11,0.11
351.23,2.22,2.11,2.22,2.11,-2.12,-1.92,0.28,0.10,0.10,0.11
354.74,2.13,2.02,2.12,2.02,-2.02,-1.79,0.35,0.11,0.10,0.11
358.28,2.02,1.92,2.02,1.92,-1.92,-1.66,0.43,0.10,0.10,0.10
361.87,1.92,1.82,1.91,1.82,-1.81,-1.53,0.50,0.10,0.10,0.10
365.49,1.80,1.70,1.80,1.71,-1.71,-1.41,0.57,0.09,0.10,0.09
369.14,1.69,1.60,1.69,1.60,-1.60,-1.28,0.64,0.09,0.09,0.08
372.83,1.58,1.49,1.56,1.48,-1.49,-1.16,0.72,0.09,0.08,0.08
376.56,1.43,1.36,1.44,1.36,-1.37,-1.04,0.79,0.05,0.07,0.07
380.33,1.31,1.24,1.31,1.25,-1.26,-0.93,0.86,0.05,0.06,0.07
384.13,1.20,1.14,1.19,1.13,-1.14,-0.81,0.94,0.06,0.05,0.06
387.97,1.08,1.03,1.08,1.02,-1.02,-0.70,1.01,0.06,0.06,0.05
391.85,0.95,0.91,0.95,0.91,-0.89,-0.59,1.08,0.05,0.06,0.04
395.77,0.82,0.77,0.82,0.77,-0.77,-0.48,1.16,0.05,0.05,0.05
399.73,0.68,0.64,0.67,0.64,-0.64,-0.38,1.23,0.04,0.04,0.04
403.72,0.53,0.50,0.53,0.50,-0.50,-0.28,1.30,0.02,0.03,0.03
407.76,0.39,0.37,0.39,0.37,-0.37,-0.18,1.37,0.02,0.02,0.02
411.84,0.25,0.22,0.25,0.23,-0.23,-0.08,1.44,0.02,0.02,0.02
415.96,0.11,0.09,0.11,0.09,-0.09,0.02,1.51,0.01,0.01,0.01
420.12,-0.03,-0.05,-0.03,-0.05,0.04,0.11,1.58,0.01,0.01,0.01
424.32,-0.18,-0.20,-0.17,-0.18,0.18,0.21,1.65,-0.00,0.01,0.01
428.56,-0.30,-0.30,-0.31,-0.32,0.31,0.30,1.72,0.01,0.00,0.00
432.85,-0.44,-0.44,-0.44,-0.45,0.45,0.39,1.78,0.01,0.01,0.00
437.18,-0.58,-0.58,-0.57,-0.58,0.58,0.49,1.85,0.00,0.01,0.00
441.55,-0.70,-0.71,-0.71,-0.72,0.72,0.58,1.91,0.02,0.01,0.01
445.96,-0.84,-0.85,-0.85,-0.85,0.85,0.67,1.97,0.01,0.00,0.01
450.42,-0.99,-0.99,-0.98,-0.99,0.99,0.76,2.02,-0.01,0.00,-0.00
454.93,-1.12,-1.13,-1.12,-1.13,1.12,0.85,2.07,0.00,0.00,0.01
459.48,-1.25,-1.26,-1.25,-1.26,1.26,0.95,2.13,0.01,0.01,0.01
464.07,-1.38,-1.40,-1.38,-1.40,1.40,1.04,2.17,0.02,0.02,0.02
468.71,-1.50,-1.53,-1.52,-1.54,1.55,1.14,2.21,0.04,0.03,0.03
473.40,-1.66,-1.69,-1.65,-1.69,1.69,1.23,2.25,0.03,0.04,0.03
478.13,-1.80,-1.84,-1.80,-1.83,1.83,1.33,2.29,0.03,0.04,0.04
482.91,-1.93,-1.97,-1.94,-1.98,1.98,1.43,2.32,0.05,0.04,0.04
487.74,-2.08,-2.13,-2.08,-2.13,2.12,1.53,2.35,0.04,0.04,0.05
492.62,-2.22,-2.28,-2.22,-2.27,2.27,1.63,2.37,0.05,0.05,0.06
497.55,-2.35,-2.41,-2.35,-2.41,2.41,1.74,2.39,0.06,0.06,0.06
502.52,-2.48,-2.55,-2.49,-2.55,2.56,1.85,2.40,0.07,0.07,0.07
507.55,-2.62,-2.69,-2.62,-2.69,2.69,1.96,2.41,0.07,0.07,0.07
512.62,-2.76,-2.83,-2.76,-2.83,2.83,2.07,2.41,0.06,0.07,0.07
517.75,-2.88,-2.96,-2.89,-2.96,2.95,2.18,2.41,0.07,0.07,0.08
522.93,-3.01,-3.09,-3.01,-3.08,3.08,2.30,2.41,0.07,0.07,0.07
528.16,-3.13,-3.21,-3.12,-3.20,3.20,2.42,2.40,0.07,0.07,0.07
