frequency,raw
10,-30.1414513427042
11,-28.89800288621899
12,-27.73885536205842
13,-26.62100353547391
14,-25.26562063243668
15,-24.333320890056285
16,-23.616102826999825
17,-22.547573891826776
18,-21.620194705835424
19,-20.969614354913155
20,-20.02420380865027
21,-19.222155052229816
22,-18.684109500969974
23,-17.781430799433046
24,-17.276161222745152
25,-16.51585670335006
26,-15.836698110129799
27,-15.368185639294545
28,-14.994140352123104
29,-14.034879919551962
30,-13.593129839965318
31,-13.148063955642446
32,-12.7379584334724
33,-12.163227754780877
34,-11.8210965980618
35,-11.463779574085443
36,-10.948352945584883
37,-10.628052370185813
38,-10.2881054168361
39,-10.059835651638465
40,-9.508424833053532
41,-9.099292008694475
42,-8.77215486181495
43,-8.469096847369553
44,-8.17447795105178
45,-7.890147806928097
46,-7.636863808887129
47,-7.3798513213915875
48,-7.074968475111732
49,-7.063900440754763
50,-6.565810136264381
51,-6.305856444563788
52,-6.0232436217663
53,-5.862065351723295
54,-5.6812538220367355
55,-5.380846591184668
56,-5.2724640837753665
57,-5.274657613040402
58,-4.971613922124492
59,-4.699459881720681
60,-4.59474922231098
61,-4.439124255682261
62,-4.360982709355867
63,-4.171454986586955
64,-3.8623133135455596
65,-3.86560719704424
66,-3.696636395558122
67,-3.721062945110777
68,-3.482463156218841
69,-3.341041626139535
70,-3.364013385758499
71,-3.020293312694889
72,-3.0739748802022793
73,-2.773521578028194
74,-2.768852058263469
75,-2.8667094323503997
76,-2.7235426645627783
77,-2.6394492599689943
78,-2.552037226446256
79,-2.628992042639424
80,-2.5755690506803592
81,-2.4606852532910737
82,-2.370365608766998
83,-2.2638201647033984
84,-2.248273559456922
85,-2.2340496530904694
86,-2.2637242383282783
87,-2.2651393026841937
88,-2.090286794110461
89,-2.078549596047025
90,-2.0715696047199916
91,-2.0718493475571207
92,-2.0801089896226586
93,-2.09405083563464
94,-2.1086247438079173
95,-2.096205747322936
96,-2.078037442352397
97,-2.1933249213697676
98,-2.144645652225768
99,-2.0466398970357664
100,-2.073754896262166
101,-2.093271924148759
102,-2.107993403527065
104,-2.162628737386611
105,-2.106399897280095
106,-2.0253343830691493
107,-2.0120104539312815
108,-1.961957795442985
109,-1.8778641079699607
110,-1.8690958689970891
111,-1.7685292617900958
112,-1.7759918633765421
113,-1.7878759719471513
114,-1.7172633626916438
115,-1.6957575678345398
117,-1.6222371754465104
118,-1.6340308519815903
119,-1.6537231856527446
120,-1.569203121500665
121,-1.414398199074812
123,-1.4338883988396707
124,-1.4339149838479432
125,-1.4348962936442344
126,-1.449606883782581
128,-1.3058084027078691
129,-1.210406574087906
130,-1.2039668275919064
131,-1.216698130213353
133,-1.2111736972888818
134,-1.2196548097400814
135,-1.2324503739311052
137,-1.1268215924112859
138,-1.1201599677400633
140,-1.1199603531766127
141,-1.1152893672491997
142,-1.1077949211568403
144,-1.1004569096838077
145,-1.1656441939715845
147,-1.1963363823914905
148,-1.1995554982773604
150,-1.2040218163721335
151,-1.2067348983792523
153,-1.3037983418240584
154,-1.3077436536085532
156,-1.3823922774178876
157,-1.408330644122925
159,-1.5100816369094405
160,-1.5814343373716477
162,-1.7126166020279774
164,-1.8875418903030377
165,-1.996469113396234
167,-2.1817932246692164
169,-2.3047230729356447
170,-2.4153424124922607
172,-2.4581334896622495
174,-2.4547152718899365
175,-2.451372586309153
177,-2.449480550964563
179,-2.5494769179986365
181,-2.5491988932162792
183,-2.6101797727614184
184,-2.647680635725539
186,-2.646792073975635
188,-2.64711267393935
190,-2.648472109144345
192,-2.7204999604473166
194,-2.7678959625532302
196,-2.8414875973816094
198,-2.859579281874132
200,-2.913169856671964
202,-2.8953967591359753
204,-2.930242772132304
206,-2.9667760503938787
208,-3.0441979223081126
210,-3.0501690494525424
212,-3.043124686707182
214,-3.0355694767969297
216,-3.0276105272408786
218,-3.1067317240255865
221,-3.120033663180361
223,-3.11844897176275
225,-3.208449838455609
227,-3.2514228187753496
229,-3.3389321155044955
232,-3.446014576657762
234,-3.471065248440161
236,-3.4956497598847465
239,-3.555187143178775
241,-3.6205117988630158
244,-3.4680215802629317
246,-3.4537862811544233
248,-3.483999348107746
251,-3.420998047899336
253,-3.301438071229226
256,-3.2295064037516164
259,-3.227527645915049
261,-3.256280821510689
264,-3.2908164251768346
266,-3.2960568606304714
269,-3.2996109213394753
272,-3.2999357827464912
274,-3.3709473615732484
277,-3.4494919463525786
280,-3.2801514274598906
283,-3.1678363520268222
286,-3.280692954875403
288,-3.252272400485376
291,-3.080685211139178
294,-3.1166972534724247
297,-3.057347298596265
300,-3.001626731756564
303,-2.869250286583906
306,-2.809224011407912
309,-2.7223494230222984
312,-2.5310184925286108
316,-2.4638048004663777
319,-2.379754164111125
322,-2.207698820950976
325,-2.157541114892254
328,-2.103637845376214
332,-1.8856223946795838
335,-1.8429544506286746
338,-1.7789008843607617
342,-1.6962689659226737
345,-1.607582609831716
349,-1.5255290374202968
352,-1.5119840453217037
356,-1.3894043008044958
359,-1.2784776653886691
363,-1.2126413556682785
366,-1.1116837653146403
370,-1.0339907519817384
374,-1.0213677134326913
377,-0.9832948397860886
381,-0.8991201530973507
385,-0.8903924330322148
389,-0.8821099496954279
393,-0.8728664392168746
397,-0.7612353058015033
401,-0.7490335349365549
405,-0.7379625901374633
409,-0.7237167775465458
413,-0.6297664826113198
417,-0.6366623110902059
421,-0.5814916218084352
425,-0.545869106104893
430,-0.5490719781682065
434,-0.4570836617407128
438,-0.419507267557909
443,-0.5299186738484325
447,-0.5606280542254494
451,-0.5171008122146135
456,-0.5005556999054415
460,-0.48663739374200077
465,-0.4710825746611853
470,-0.45546093797677045
474,-0.4407836200409192
479,-0.4263464736507263
484,-0.4098070452435594
489,-0.38855760334105094
494,-0.3614704430248419
499,-0.3298359207286987
504,-0.2969382698660725
509,-0.2666663406443903
514,-0.24208748180459017
519,-0.22471360756715786
524,-0.2145668667760119
529,-0.21065826578060065
535,-0.3340268979191734
540,-0.3699381008084064
545,-0.31992538164998674
551,-0.3228355160048193
556,-0.32228505636072446
562,-0.316531972155762
568,-0.30437050339837013
573,-0.285471874485995
579,-0.4418701501364426
585,-0.41416911518648725
591,-0.27938573880115447
596,-0.22121455360765996
602,-0.46952569015357914
608,-0.5242466447534468
615,-0.47658705985593675
621,-0.4791160726981605
627,-0.4743587196820642
633,-0.4589938084596743
639,-0.3697068997264219
646,-0.5226808694111342
652,-0.6591116844155667
659,-0.642250889691987
665,-0.6532091706945885
672,-0.49409929831405686
679,-0.547542128866959
686,-0.5671532270040189
692,-0.4315022838109104
699,-0.39918814627542076
706,-0.4229194517239243
713,-0.4033750787948125
721,-0.24272300837231997
728,-0.08476916560095593
735,-0.07409000769719576
742,-0.1141263887638484
750,-0.12687583407775715
757,-0.15140656691106047
765,-0.18221989495281887
773,-0.2110896109328939
780,-0.23053591104717874
788,-0.23741482336862907
796,-0.2346436599768728
804,-0.19665853456289584
812,-0.24414530834414966
820,-0.3582314270052616
828,-0.28350685727602176
837,-0.32858670505141196
845,-0.377816641848717
853,-0.4227837474108913
862,-0.4572088672947485
871,-0.4785201265749768
879,-0.3872696577451853
888,-0.38816536698559645
897,-0.36523195760261395
906,-0.27981003602819277
915,-0.27556983065467733
924,-0.27076086394604815
933,-0.1708567622845113
943,-0.1500903468109177
952,-0.13094793126168058
962,-0.10562895007817585
971,-0.07648402081622097
981,-0.047021841000444264
991,-0.020368494028816908
1001,0.0022518406779008515
1011,0.0221371907927832
1021,0.042408732740381816
1031,0.06640214342145523
1041,0.09617305333421067
1052,0.22700997317307658
1062,0.2737912341693589
1073,0.3195351296832727
1084,0.3695202257861667
1094,0.42338183902038473
1105,0.4798373334905821
1116,0.5364875329267229
1128,0.5908613045151201
1139,0.6375567078032283
1150,0.5957212439638874
1162,0.6472890697127895
1173,0.7125098882805991
1185,0.7921399355295762
1197,0.8067993027728999
1209,0.8692231456072206
1221,0.9119150367364806
1233,1.0368222790429504
1246,1.1038630391612216
1258,1.1996298737507176
1271,1.2490913979779972
1283,1.3554865382118146
1296,1.4515764840344105
1309,1.6052217016470332
1322,1.7496493083069768
1335,1.817259862177619
1349,1.906060466342736
1362,1.9685462826804985
1376,2.1065944294407677
1390,2.2562645300146533
1404,2.3981693283653045
1418,2.483418039097879
1432,2.559429731493432
1446,2.6729085830808934
1461,2.8872098780550797
1475,3.0758204075925657
1490,3.170904692742111
1505,3.262917513151846
1520,3.3990007433828033
1535,3.5939027200153033
1550,3.789035046236245
1566,3.8412306231593285
1582,3.9357160376271016
1597,4.1116489017861255
1613,4.254943169008193
1629,4.425578439321088
1646,4.59062009150082
1662,4.702331883492363
1679,4.871654733765291
1696,5.093695271803006
1713,5.270813995506135
1730,5.503417984495912
1747,5.605785616284628
1764,5.798618993617581
1782,5.939069388210499
1800,6.060951475957607
1818,6.181259611311798
1836,6.226135326242974
1854,6.315340093465875
1873,6.3836445425604165
1892,6.45503012981639
1911,6.523058272848063
1930,6.602044072351318
1949,6.723074004464512
1969,6.7922982495659525
1988,6.803567427424421
2008,6.842093106499185
2028,6.991442677160852
2048,7.14043098832897
2069,7.295555506841435
2090,7.330718630719642
2111,7.303488463940369
2132,7.3909798717276445
2153,7.441374860398775
2175,7.446201535247635
2196,7.461346942724388
2218,7.443190633613175
2240,7.4119264988698
2263,7.3901515977419345
2285,7.45590007042774
2308,7.547435104338433
2331,7.640239930479606
2355,7.740252196062617
2378,7.82225418964012
2402,7.894699755799415
2426,8.001741785927917
2450,8.076040121529333
2475,8.06536653177287
2500,8.060301292970504
2525,8.118561339269728
2550,8.201352570151503
2575,8.2197597750112
2601,8.198771514040551
2627,8.156312055626039
2653,8.148229482520138
2680,8.16347202275756
2707,8.16985868943392
2734,8.163621836116153
2761,8.231298379752182
2789,8.379377819127289
2817,8.476727930049677
2845,8.566996136862848
2873,8.571484305674844
2902,8.636265772973294
2931,8.667683914462003
2960,8.714187276066156
2990,8.763380438653659
3020,8.791270426346507
3050,8.830790569031395
3080,8.776260002968021
3111,8.790567469086396
3142,8.825810270862899
3174,8.67165187066164
3206,8.696358226191188
3238,8.415465762958661
3270,8.254856706189676
3303,8.103607424757827
3336,7.874416322302338
3369,7.477321635275116
3403,7.087995267947948
3437,6.715254682441067
3471,6.306898532935832
3506,5.856964934719116
3541,5.625692619938961
3576,5.376384462388166
3612,4.848568811418206
3648,4.608120869659674
3685,4.386795081790288
3721,3.7333670016617466
3759,3.397080441123207
3796,3.085573996879031
3834,2.329474849107992
3873,1.82919841254167
3911,1.349534684680176
3950,0.4834195099826566
3990,-0.21336335570247833
4030,-0.9895233234383092
4070,-1.8745771431025666
4111,-2.874311255377606
4152,-3.6019608498331728
4193,-4.4193085634482365
4235,-5.046122267500671
4278,-5.630132878329142
4321,-6.072031808770619
4364,-6.519226654491803
4407,-6.9156286341656354
4451,-7.192409791246607
4496,-7.415457034702367
4541,-7.820569445451515
4586,-7.978220747353298
4632,-8.077380071980134
4679,-8.189604427749664
4725,-7.956081157014456
4773,-7.705520327626276
4820,-7.286789848537176
4868,-6.787427757353414
4917,-6.329270817431307
4966,-5.684686726705194
5016,-5.20666105505842
5066,-4.602978491737862
5117,-4.177841642561153
5168,-3.564234157451236
5220,-3.0267832767223544
5272,-2.736670396627477
5325,-2.545842038323957
5378,-2.2617312219853103
5432,-2.0394260367990746
5486,-1.47452204346148
5541,-1.2557927337560821
5596,-1.1000459545947967
5652,-0.9676753325654817
5709,-1.2485876542123515
5766,-1.6126140645932443
5823,-2.0141596513537907
5882,-2.436954651239586
5940,-2.731257627793773
6000,-3.0428693983314883
6060,-3.528476074974602
6120,-3.8681402291842275
6182,-4.07121184726649
6244,-4.291200338329564
6306,-4.579913343289053
6369,-4.816679524144318
6433,-5.094376336027454
6497,-5.317871283746308
6562,-5.426931797323299
6628,-5.639015363171506
6694,-5.645663265378626
6761,-5.424403033531471
6828,-5.382737374274304
6897,-5.303418341006361
6966,-4.981417295052417
7035,-4.58816604759914
7106,-4.370200241438051
7177,-4.156613948207086
7249,-3.617321174715848
7321,-3.310563767832763
7394,-3.0213781746603945
7468,-2.2279130801315548
7543,-1.7893865889770653
7618,-1.5495410520752428
7694,-0.8645750814886384
7771,-0.26847986511079736
7849,0.3535473049034028
7928,1.1041356102406814
8007,1.9231609279016153
8087,2.8790728921609325
8168,3.2076603826409125
8250,4.120925957979583
8332,4.432830408135209
8415,4.292085118315695
8499,3.566562077632008
8584,3.061709047875226
8670,3.25259655063841
8757,3.9185202836484336
8845,4.1790164752367
8933,4.493295985153084
9022,4.004242054234906
9113,3.9486565892709597
9204,4.243280012793051
9296,4.968815151564625
9389,5.7312558398827385
9483,6.319078678082473
9577,7.132614960366729
9673,7.7650219167723975
9770,7.543225278341092
9868,7.110064289382967
9966,6.660505477084684
10066,5.871815070422695
10167,4.769942797116682
10268,4.019266958236786
10371,3.0802454783261597
10475,1.9652966038412254
10579,0.9690454475686723
10685,-0.8662925801674315
10792,-3.173208139237592
10900,-4.014285664494275
11009,-6.147083301199979
11119,-7.6868790176369535
11230,-8.291692233281651
11343,-8.61868258284826
11456,-8.578879737533711
11571,-9.607414698794562
11686,-10.354190317478531
11803,-11.251395453121841
11921,-11.744446637344197
12040,-12.363848133929398
12161,-12.965143954625617
12282,-14.062201895889238
12405,-14.80644265632258
12529,-15.20416485443737
12655,-16.71243207297323
12781,-17.217182163726207
12909,-17.23254331822235
13038,-17.955686504148616
13168,-21.105895207701057
13300,-21.773655213064917
13433,-22.572463310308663
13567,-24.30355263171182
13703,-24.016788578524196
13840,-23.931149409866972
13978,-23.162142244793113
14118,-21.87456112464423
14259,-20.769348158834905
14402,-19.910264743648284
14546,-18.371354110255513
14692,-17.20033239807119
14838,-16.59129666784827
14987,-16.2623593378227
15137,-16.10872395540296
15288,-14.946351580830765
15441,-14.053468252119128
15595,-14.185591004597427
15751,-13.922237787689483
15909,-14.15847595016202
16068,-14.282001489936619
16229,-14.233661027394158
16391,-14.15779735815789
16555,-14.18208527623204
16720,-14.198279839800694
16888,-15.215542466766733
17056,-16.374712131458228
17227,-18.705422583411558
17399,-19.51329999849026
17573,-20.062567155983384
17749,-20.4026558706008
17926,-20.399646414212654
18106,-20.897345374651213
18287,-21.57560561227607
18470,-22.037503437482933
18654,-22.17489511888587
18841,-21.651908339483988
19029,-21.73904418552406
19220,-21.871660448489592
19412,-21.763332481422786
19606,-19.740159120545144
19802,-18.048182093681664
20000,-16.596859782882643
20200,-16.421834953691793
20402,-18.372653121780566
20606,-19.82663332640564
20812,-22.32876056379381
21020,-24.9768391380097
21230,-26.19757253970308
21443,-27.42193257015839
21657,-26.86101643952928
21874,-26.62953281436618
22092,-25.75774368049812
22313,-23.576260805952213
22537,-21.176759856954387
22762,-20.792626408791875
22989,-21.233985109737986
23219,-20.767349719944733
23452,-23.1089493208533
23686,-24.56395838868605
23923,-26.855143165507112
24162,-28.438942311048446
24404,-30.29616922317165
24648,-32.150660274983146
24894,-34.002123828499606
25143,-35.85828713823814
25395,-37.718627914691474
25649,-39.5748034658486
25905,-41.42664998782076
26164,-43.28178363864735
26426,-45.139912889902696
26690,-46.9932103941702
26957,-48.849161471743024
27227,-50.70753605356717
27499,-52.56075071648144
27774,-54.41605487161272
28052,-56.273193667667485
28332,-58.124777492785846
28615,-59.97782163229652
28902,-61.8390800147286
29191,-63.69426673799409
29482,-65.5433659236169
29777,-67.39993472318048
