frequency,raw,smoothed,error,error_smoothed,equalization,parametric_eq,fixed_band_eq,equalized_raw,equalized_smoothed,target
20.00,7.98,7.98,1.00,1.00,-0.98,-1.86,-0.82,7.00,7.00,6.98
20.20,7.99,7.99,1.01,1.01,-1.01,-1.86,-0.84,6.99,6.99,6.98
20.40,8.00,8.01,1.02,1.02,-1.03,-1.86,-0.86,6.97,6.98,6.98
20.61,8.02,8.03,1.04,1.04,-1.06,-1.86,-0.89,6.97,6.97,6.98
20.81,8.05,8.05,1.07,1.07,-1.08,-1.87,-0.91,6.97,6.97,6.98
21.02,8.08,8.08,1.10,1.10,-1.11,-1.87,-0.94,6.97,6.97,6.98
21.23,8.11,8.12,1.13,1.14,-1.14,-1.87,-0.97,6.97,6.98,6.98
21.44,8.15,8.15,1.17,1.17,-1.17,-1.88,-0.99,6.98,6.98,6.98
21.66,8.18,8.19,1.20,1.21,-1.20,-1.88,-1.02,6.98,6.98,6.98
21.87,8.22,8.22,1.25,1.24,-1.24,-1.88,-1.05,6.98,6.98,6.98
22.09,8.25,8.25,1.28,1.28,-1.27,-1.88,-1.08,6.98,6.98,6.98
22.31,8.28,8.28,1.31,1.31,-1.31,-1.89,-1.11,6.98,6.98,6.98
22.54,8.31,8.31,1.34,1.34,-1.34,-1.89,-1.14,6.97,6.98,6.98
22.76,8.34,8.34,1.37,1.37,-1.37,-1.89,-1.18,6.97,6.98,6.97
22.99,8.37,8.37,1.40,1.40,-1.40,-1.90,-1.21,6.97,6.97,6.97
23.22,8.40,8.40,1.43,1.43,-1.43,-1.90,-1.24,6.98,6.97,6.97
23.45,8.42,8.43,1.45,1.45,-1.46,-1.91,-1.28,6.97,6.97,6.97
23.69,8.45,8.45,1.48,1.48,-1.49,-1.91,-1.32,6.97,6.97,6.97
23.92,8.48,8.48,1.51,1.51,-1.52,-1.91,-1.35,6.97,6.97,6.97
24.16,8.51,8.51,1.55,1.55,-1.55,-1.92,-1.39,6.97,6.97,6.97
24.40,8.54,8.54,1.58,1.58,-1.58,-1.92,-1.43,6.97,6.97,6.97
24.65,8.57,8.57,1.61,1.61,-1.61,-1.92,-1.46,6.97,6.97,6.97
24.89,8.60,8.60,1.64,1.64,-1.64,-1.93,-1.50,6.96,6.96,6.96
25.14,8.63,8.63,1.67,1.67,-1.67,-1.93,-1.54,6.96,6.96,6.96
25.39,8.66,8.66,1.70,1.70,-1.70,-1.94,-1.58,6.96,6.96,6.96
25.65,8.69,8.69,1.73,1.73,-1.73,-1.94,-1.62,6.96,6.96,6.96
25.91,8.72,8.72,1.76,1.76,-1.77,-1.94,-1.66,6.96,6.96,6.96
26.16,8.75,8.75,1.80,1.80,-1.80,-1.95,-1.70,6.96,6.96,6.96
26.43,8.78,8.78,1.83,1.83,-1.83,-1.95,-1.74,6.96,6.96,6.96
26.69,8.81,8.81,1.86,1.86,-1.86,-1.96,-1.78,6.96,6.95,6.95
26.96,8.84,8.84,1.89,1.89,-1.89,-1.96,-1.82,6.96,6.95,6.95
27.23,8.86,8.87,1.91,1.92,-1.92,-1.97,-1.85,6.95,6.95,6.95
27.50,8.89,8.89,1.94,1.94,-1.94,-1.97,-1.89,6.95,6.95,6.95
27.77,8.91,8.92,1.97,1.97,-1.97,-1.98,-1.93,6.94,6.95,6.95
28.05,8.94,8.94,2.00,2.00,-2.00,-1.98,-1.96,6.95,6.95,6.94
28.33,8.96,8.96,2.02,2.02,-2.02,-1.99,-2.00,6.94,6.94,6.94
28.62,8.98,8.98,2.04,2.04,-2.04,-1.99,-2.03,6.94,6.94,6.94
28.90,9.00,9.00,2.07,2.07,-2.07,-2.00,-2.06,6.94,6.94,6.94
29.19,9.02,9.02,2.09,2.09,-2.09,-2.00,-2.09,6.93,6.94,6.94
29.48,9.04,9.04,2.11,2.11,-2.11,-2.01,-2.12,6.93,6.93,6.93
29.78,9.06,9.06,2.13,2.13,-2.13,-2.01,-2.14,6.93,6.93,6.93
30.08,9.07,9.08,2.15,2.15,-2.15,-2.02,-2.17,6.92,6.93,6.93
30.38,9.09,9.09,2.17,2.17,-2.17,-2.02,-2.19,6.92,6.92,6.92
30.68,9.11,9.11,2.19,2.19,-2.19,-2.03,-2.21,6.93,6.92,6.92
30.99,9.12,9.13,2.20,2.21,-2.21,-2.04,-2.22,6.92,6.92,6.92
31.30,9.14,9.14,2.23,2.22,-2.22,-2.04,-2.24,6.92,6.92,6.92
31.61,9.15,9.16,2.24,2.24,-2.24,-2.05,-2.25,6.91,6.91,6.91
31.93,9.17,9.17,2.26,2.26,-2.26,-2.05,-2.26,6.91,6.91,6.91
32.24,9.18,9.18,2.28,2.28,-2.28,-2.06,-2.27,6.91,6.91,6.91
32.57,9.19,9.20,2.29,2.29,-2.29,-2.07,-2.27,6.90,6.90,6.90
32.89,9.21,9.21,2.31,2.31,-2.31,-2.07,-2.28,6.90,6.90,6.90
33.22,9.22,9.22,2.33,2.33,-2.33,-2.08,-2.28,6.89,6.89,6.90
33.55,9.23,9.24,2.34,2.35,-2.35,-2.09,-2.28,6.89,6.89,6.89
33.89,9.25,9.25,2.37,2.36,-2.36,-2.09,-2.28,6.89,6.89,6.89
34.23,9.26,9.26,2.38,2.38,-2.38,-2.10,-2.27,6.89,6.88,6.88
34.57,9.27,9.27,2.39,2.40,-2.39,-2.11,-2.27,6.88,6.88,6.88
34.92,9.28,9.28,2.41,2.41,-2.41,-2.12,-2.26,6.87,6.87,6.87
35.27,9.29,9.29,2.42,2.42,-2.42,-2.12,-2.26,6.87,6.87,6.87
35.62,9.30,9.30,2.44,2.44,-2.44,-2.13,-2.25,6.86,6.86,6.86
35.97,9.31,9.31,2.45,2.45,-2.45,-2.14,-2.24,6.86,6.86,6.86
36.33,9.32,9.32,2.47,2.47,-2.47,-2.15,-2.23,6.85,6.86,6.85
36.70,9.33,9.33,2.48,2.48,-2.48,-2.15,-2.22,6.85,6.85,6.85
37.06,9.34,9.34,2.50,2.50,-2.50,-2.16,-2.22,6.85,6.84,6.84
37.43,9.34,9.35,2.51,2.51,-2.51,-2.17,-2.21,6.83,6.84,6.84
37.81,9.35,9.35,2.52,2.52,-2.52,-2.18,-2.20,6.83,6.83,6.83
38.19,9.35,9.36,2.53,2.53,-2.53,-2.19,-2.19,6.82,6.82,6.82
38.57,9.36,9.36,2.54,2.54,-2.54,-2.19,-2.19,6.82,6.82,6.82
38.95,9.36,9.36,2.55,2.55,-2.55,-2.20,-2.18,6.81,6.81,6.81
39.34,9.36,9.36,2.56,2.56,-2.56,-2.21,-2.18,6.81,6.81,6.80
39.74,9.36,9.36,2.57,2.57,-2.56,-2.22,-2.18,6.80,6.80,6.80
40.14,9.36,9.36,2.57,2.57,-2.57,-2.23,-2.17,6.79,6.79,6.79
40.54,9.35,9.36,2.57,2.57,-2.58,-2.24,-2.17,6.78,6.78,6.78
40.94,9.35,9.35,2.58,2.58,-2.58,-2.25,-2.17,6.77,6.77,6.77
41.35,9.35,9.35,2.59,2.59,-2.59,-2.26,-2.17,6.76,6.76,6.77
41.76,9.35,9.35,2.60,2.60,-2.60,-2.27,-2.18,6.76,6.76,6.76
42.18,9.35,9.35,2.61,2.61,-2.60,-2.28,-2.18,6.75,6.75,6.75
42.60,9.35,9.35,2.61,2.61,-2.61,-2.29,-2.19,6.74,6.74,6.74
43.03,9.35,9.35,2.62,2.62,-2.62,-2.30,-2.20,6.73,6.73,6.73
43.46,9.34,9.35,2.62,2.63,-2.63,-2.31,-2.21,6.71,6.72,6.72
43.90,9.34,9.34,2.64,2.64,-2.64,-2.32,-2.22,6.70,6.70,6.71
44.33,9.34,9.34,2.65,2.65,-2.65,-2.33,-2.23,6.70,6.70,6.70
44.78,9.34,9.34,2.66,2.66,-2.66,-2.34,-2.25,6.69,6.69,6.69
45.23,9.34,9.34,2.67,2.67,-2.66,-2.35,-2.26,6.68,6.68,6.67
45.68,9.33,9.34,2.67,2.67,-2.67,-2.36,-2.28,6.66,6.66,6.66
46.13,9.33,9.33,2.68,2.68,-2.68,-2.37,-2.30,6.65,6.65,6.65
46.60,9.32,9.32,2.69,2.69,-2.69,-2.38,-2.32,6.63,6.63,6.64
47.06,9.31,9.32,2.69,2.69,-2.69,-2.39,-2.35,6.62,6.62,6.62
47.53,9.31,9.31,2.70,2.70,-2.70,-2.41,-2.37,6.61,6.61,6.61
48.01,9.30,9.30,2.71,2.71,-2.70,-2.42,-2.40,6.60,6.60,6.60
48.49,9.29,9.29,2.71,2.71,-2.71,-2.43,-2.43,6.58,6.58,6.58
48.97,9.27,9.28,2.71,2.71,-2.71,-2.44,-2.45,6.56,6.57,6.57
49.46,9.26,9.26,2.71,2.71,-2.71,-2.45,-2.49,6.55,6.55,6.55
49.96,9.25,9.25,2.72,2.72,-2.72,-2.47,-2.52,6.54,6.53,6.53
50.46,9.23,9.24,2.72,2.72,-2.72,-2.48,-2.55,6.51,6.52,6.52
50.96,9.22,9.22,2.72,2.72,-2.72,-2.49,-2.58,6.50,6.50,6.50
51.47,9.20,9.20,2.72,2.72,-2.73,-2.50,-2.62,6.48,6.48,6.48
51.99,9.19,9.19,2.73,2.73,-2.73,-2.52,-2.65,6.46,6.46,6.46
52.51,9.17,9.18,2.73,2.73,-2.73,-2.53,-2.69,6.44,6.44,6.44
53.03,9.16,9.16,2.74,2.74,-2.74,-2.54,-2.72,6.43,6.42,6.42
53.56,9.14,9.14,2.74,2.74,-2.74,-2.56,-2.76,6.40,6.40,6.40
54.10,9.12,9.12,2.74,2.74,-2.74,-2.57,-2.79,6.38,6.38,6.38
54.64,9.10,9.10,2.74,2.74,-2.75,-2.58,-2.83,6.36,6.36,6.36
55.18,9.08,9.08,2.75,2.75,-2.75,-2.60,-2.86,6.33,6.33,6.34
55.74,9.06,9.06,2.75,2.75,-2.75,-2.61,-2.90,6.31,6.31,6.31
56.29,9.04,9.04,2.75,2.75,-2.75,-2.63,-2.93,6.29,6.29,6.29
56.86,9.02,9.02,2.76,2.76,-2.75,-2.64,-2.96,6.27,6.27,6.26
57.42,8.99,9.00,2.75,2.76,-2.76,-2.66,-2.99,6.24,6.24,6.24
58.00,8.97,8.97,2.76,2.76,-2.76,-2.67,-3.02,6.21,6.21,6.21
58.58,8.94,8.94,2.76,2.76,-2.76,-2.69,-3.05,6.18,6.18,6.18
59.16,8.92,8.92,2.77,2.76,-2.77,-2.70,-3.07,6.16,6.16,6.16
59.76,8.89,8.90,2.77,2.77,-2.77,-2.72,-3.09,6.12,6.13,6.13
60.35,8.87,8.87,2.78,2.77,-2.77,-2.73,-3.12,6.10,6.10,6.10
60.96,8.84,8.84,2.78,2.78,-2.78,-2.75,-3.13,6.07,6.07,6.07
61.57,8.81,8.82,2.78,2.78,-2.78,-2.76,-3.15,6.03,6.04,6.04
62.18,8.79,8.79,2.79,2.79,-2.79,-2.78,-3.16,6.01,6.00,6.00
62.80,8.76,8.76,2.79,2.79,-2.79,-2.79,-3.17,5.97,5.97,5.97
63.43,8.73,8.73,2.80,2.80,-2.80,-2.81,-3.18,5.94,5.94,5.94
64.07,8.70,8.70,2.80,2.80,-2.80,-2.83,-3.18,5.90,5.90,5.90
64.71,8.67,8.67,2.81,2.81,-2.81,-2.84,-3.19,5.86,5.86,5.86
65.35,8.64,8.64,2.82,2.82,-2.82,-2.86,-3.19,5.83,5.83,5.83
66.01,8.61,8.61,2.82,2.82,-2.82,-2.87,-3.18,5.79,5.79,5.79
66.67,8.58,8.58,2.83,2.83,-2.83,-2.89,-3.18,5.75,5.75,5.75
67.33,8.54,8.55,2.83,2.84,-2.84,-2.91,-3.17,5.71,5.71,5.71
68.01,8.51,8.51,2.84,2.85,-2.85,-2.93,-3.16,5.67,5.67,5.67
68.69,8.48,8.48,2.86,2.85,-2.86,-2.94,-3.16,5.63,5.63,5.63
69.37,8.45,8.45,2.87,2.87,-2.86,-2.96,-3.14,5.59,5.59,5.58
70.07,8.41,8.42,2.87,2.88,-2.87,-2.98,-3.13,5.54,5.54,5.54
70.77,8.38,8.38,2.89,2.89,-2.89,-2.99,-3.12,5.50,5.50,5.49
71.48,8.34,8.34,2.89,2.90,-2.90,-3.01,-3.11,5.45,5.45,5.45
72.19,8.31,8.31,2.91,2.91,-2.91,-3.03,-3.09,5.40,5.40,5.40
72.91,8.27,8.28,2.92,2.92,-2.92,-3.05,-3.08,5.35,5.35,5.35
73.64,8.24,8.24,2.94,2.94,-2.94,-3.06,-3.07,5.31,5.30,5.30
74.38,8.20,8.20,2.95,2.95,-2.95,-3.08,-3.06,5.25,5.25,5.25
75.12,8.16,8.17,2.96,2.96,-2.96,-3.10,-3.04,5.20,5.20,5.20
75.87,8.13,8.13,2.98,2.98,-2.98,-3.12,-3.03,5.15,5.15,5.15
76.63,8.09,8.10,3.00,3.00,-3.00,-3.14,-3.02,5.09,5.10,5.10
77.40,8.06,8.06,3.02,3.02,-3.02,-3.15,-3.01,5.05,5.04,5.04
78.17,8.02,8.02,3.04,3.03,-3.03,-3.17,-3.01,4.99,4.99,4.99
78.95,7.98,7.98,3.05,3.05,-3.05,-3.19,-3.00,4.93,4.93,4.93
79.74,7.94,7.95,3.07,3.07,-3.07,-3.21,-3.00,4.87,4.87,4.87
80.54,7.91,7.91,3.10,3.09,-3.09,-3.23,-2.99,4.82,4.81,4.82
81.35,7.87,7.87,3.12,3.12,-3.12,-3.25,-2.99,4.76,4.76,4.76
82.16,7.83,7.83,3.14,3.14,-3.14,-3.26,-2.99,4.70,4.70,4.70
82.98,7.79,7.79,3.16,3.16,-3.16,-3.28,-3.00,4.64,4.64,4.64
83.81,7.75,7.75,3.18,3.18,-3.18,-3.30,-3.00,4.57,4.57,4.57
84.65,7.71,7.71,3.20,3.20,-3.20,-3.32,-3.01,4.51,4.51,4.51
85.50,7.67,7.67,3.23,3.22,-3.22,-3.34,-3.02,4.45,4.45,4.45
86.35,7.62,7.63,3.24,3.24,-3.25,-3.36,-3.03,4.38,4.38,4.38
87.22,7.58,7.58,3.27,3.27,-3.27,-3.38,-3.05,4.32,4.32,4.32
88.09,7.54,7.54,3.29,3.29,-3.29,-3.39,-3.06,4.25,4.25,4.25
88.97,7.49,7.50,3.31,3.31,-3.31,-3.41,-3.08,4.18,4.19,4.18
89.86,7.45,7.45,3.34,3.33,-3.33,-3.43,-3.10,4.12,4.12,4.12
90.76,7.40,7.40,3.35,3.35,-3.35,-3.45,-3.13,4.05,4.05,4.05
91.66,7.35,7.35,3.37,3.37,-3.38,-3.47,-3.15,3.98,3.98,3.98
92.58,7.30,7.31,3.39,3.39,-3.40,-3.49,-3.18,3.91,3.91,3.91
93.51,7.26,7.26,3.42,3.42,-3.42,-3.51,-3.21,3.84,3.84,3.84
94.44,7.21,7.21,3.44,3.44,-3.44,-3.52,-3.25,3.77,3.77,3.77
95.39,7.16,7.16,3.46,3.46,-3.46,-3.54,-3.28,3.70,3.70,3.70
96.34,7.11,7.11,3.48,3.48,-3.48,-3.56,-3.32,3.63,3.63,3.63
97.30,7.06,7.06,3.50,3.51,-3.51,-3.58,-3.36,3.56,3.56,3.56
98.28,7.01,7.01,3.53,3.53,-3.53,-3.60,-3.40,3.48,3.48,3.49
99.26,6.96,6.96,3.55,3.55,-3.55,-3.62,-3.44,3.41,3.41,3.41
100.25,6.91,6.91,3.57,3.57,-3.57,-3.63,-3.49,3.34,3.34,3.34
101.25,6.86,6.86,3.59,3.60,-3.59,-3.65,-3.53,3.27,3.27,3.27
102.27,6.81,6.81,3.62,3.62,-3.61,-3.67,-3.58,3.20,3.20,3.20
103.29,6.76,6.76,3.64,3.64,-3.64,-3.69,-3.62,3.13,3.12,3.12
104.32,6.70,6.71,3.65,3.66,-3.66,-3.70,-3.67,3.05,3.05,3.05
105.37,6.65,6.65,3.68,3.68,-3.68,-3.72,-3.72,2.97,2.97,2.98
106.42,6.60,6.60,3.70,3.70,-3.70,-3.74,-3.77,2.90,2.90,2.90
107.48,6.55,6.55,3.72,3.72,-3.72,-3.76,-3.81,2.83,2.83,2.83
108.56,6.50,6.50,3.75,3.75,-3.74,-3.77,-3.86,2.76,2.76,2.76
109.64,6.45,6.45,3.77,3.77,-3.77,-3.79,-3.90,2.69,2.69,2.69
110.74,6.40,6.40,3.79,3.79,-3.79,-3.80,-3.95,2.61,2.61,2.61
111.85,6.35,6.35,3.81,3.81,-3.81,-3.82,-3.99,2.54,2.54,2.54
112.97,6.30,6.30,3.83,3.83,-3.84,-3.83,-4.03,2.47,2.47,2.47
114.10,6.25,6.25,3.86,3.86,-3.86,-3.85,-4.07,2.40,2.40,2.40
115.24,6.20,6.20,3.88,3.88,-3.88,-3.86,-4.10,2.32,2.32,2.33
116.39,6.15,6.15,3.90,3.90,-3.90,-3.88,-4.14,2.25,2.25,2.25
117.55,6.10,6.10,3.92,3.92,-3.92,-3.89,-4.16,2.18,2.19,2.18
118.73,6.05,6.05,3.94,3.94,-3.94,-3.90,-4.19,2.12,2.12,2.11
119.92,6.00,6.00,3.96,3.96,-3.95,-3.92,-4.21,2.05,2.05,2.04
121.12,5.94,5.95,3.97,3.97,-3.97,-3.93,-4.22,1.97,1.98,1.98
122.33,5.89,5.89,3.99,3.98,-3.98,-3.94,-4.23,1.91,1.91,1.91
123.55,5.83,5.84,3.99,4.00,-4.00,-3.95,-4.24,1.84,1.84,1.84
124.79,5.78,5.78,4.01,4.01,-4.01,-3.96,-4.24,1.78,1.77,1.77
126.03,5.72,5.72,4.02,4.02,-4.02,-3.97,-4.24,1.71,1.71,1.71
127.29,5.66,5.67,4.02,4.03,-4.03,-3.98,-4.23,1.64,1.64,1.64
128.57,5.61,5.61,4.04,4.03,-4.03,-3.98,-4.22,1.58,1.58,1.58
129.85,5.55,5.55,4.04,4.04,-4.04,-3.99,-4.20,1.51,1.51,1.51
131.15,5.49,5.49,4.04,4.04,-4.04,-4.00,-4.18,1.45,1.45,1.45
132.46,5.43,5.43,4.04,4.04,-4.05,-4.00,-4.15,1.39,1.39,1.39
133.79,5.37,5.37,4.05,4.05,-4.05,-4.01,-4.12,1.33,1.33,1.33
135.12,5.31,5.31,4.05,4.05,-4.05,-4.01,-4.09,1.26,1.27,1.27
136.48,5.25,5.25,4.05,4.05,-4.05,-4.01,-4.05,1.21,1.21,1.21
137.84,5.19,5.19,4.04,4.04,-4.05,-4.01,-4.01,1.15,1.15,1.15
139.22,5.13,5.13,4.04,4.04,-4.04,-4.01,-3.97,1.09,1.09,1.09
140.61,5.07,5.07,4.04,4.04,-4.04,-4.01,-3.92,1.04,1.04,1.03
142.02,5.01,5.01,4.03,4.03,-4.03,-4.01,-3.87,0.98,0.98,0.98
143.44,4.95,4.95,4.03,4.03,-4.02,-4.01,-3.83,0.93,0.93,0.92
144.87,4.88,4.89,4.01,4.02,-4.02,-4.01,-3.78,0.87,0.87,0.87
146.32,4.82,4.82,4.01,4.01,-4.01,-4.00,-3.72,0.82,0.82,0.82
147.78,4.76,4.76,4.00,4.00,-4.00,-4.00,-3.67,0.76,0.76,0.77
149.26,4.70,4.70,3.99,3.99,-3.99,-3.99,-3.62,0.71,0.71,0.72
150.75,4.64,4.64,3.98,3.98,-3.98,-3.98,-3.57,0.67,0.67,0.67
152.26,4.58,4.59,3.97,3.97,-3.97,-3.97,-3.52,0.62,0.62,0.62
153.78,4.53,4.53,3.96,3.96,-3.96,-3.96,-3.47,0.57,0.57,0.57
155.32,4.47,4.47,3.95,3.95,-3.95,-3.95,-3.42,0.52,0.52,0.52
156.88,4.41,4.42,3.94,3.94,-3.94,-3.94,-3.37,0.47,0.48,0.48
158.44,4.36,4.36,3.93,3.93,-3.93,-3.92,-3.33,0.43,0.43,0.43
160.03,4.30,4.30,3.91,3.92,-3.92,-3.91,-3.28,0.38,0.39,0.39
161.63,4.25,4.25,3.92,3.91,-3.91,-3.89,-3.24,0.34,0.34,0.34
163.24,4.19,4.19,3.90,3.90,-3.90,-3.87,-3.19,0.30,0.30,0.30
164.88,4.14,4.14,3.89,3.89,-3.88,-3.86,-3.16,0.26,0.26,0.26
166.53,4.08,4.09,3.87,3.87,-3.87,-3.84,-3.12,0.22,0.22,0.22
168.19,4.03,4.03,3.85,3.85,-3.85,-3.81,-3.08,0.18,0.18,0.18
169.87,3.97,3.97,3.83,3.83,-3.83,-3.79,-3.05,0.14,0.14,0.14
171.57,3.91,3.92,3.81,3.81,-3.81,-3.77,-3.02,0.10,0.10,0.10
173.29,3.86,3.86,3.79,3.79,-3.79,-3.75,-2.99,0.07,0.07,0.07
175.02,3.80,3.80,3.77,3.77,-3.77,-3.72,-2.96,0.03,0.03,0.03
176.77,3.75,3.75,3.75,3.75,-3.75,-3.69,-2.93,0.00,0.00,0.00
178.54,3.69,3.70,3.72,3.73,-3.73,-3.67,-2.91,-0.03,-0.03,-0.03
180.32,3.64,3.64,3.71,3.70,-3.70,-3.64,-2.89,-0.06,-0.06,-0.06
182.13,3.58,3.58,3.68,3.68,-3.68,-3.61,-2.87,-0.09,-0.09,-0.09
183.95,3.52,3.53,3.65,3.65,-3.65,-3.58,-2.86,-0.13,-0.12,-0.12
185.79,3.47,3.47,3.63,3.62,-3.62,-3.55,-2.84,-0.15,-0.16,-0.15
187.65,3.41,3.41,3.59,3.59,-3.60,-3.52,-2.83,-0.18,-0.18,-0.18
189.52,3.35,3.36,3.56,3.57,-3.57,-3.48,-2.82,-0.21,-0.21,-0.21
191.42,3.30,3.30,3.54,3.54,-3.53,-3.45,-2.82,-0.23,-0.24,-0.24
193.33,3.24,3.24,3.50,3.50,-3.50,-3.42,-2.81,-0.26,-0.26,-0.26
195.27,3.18,3.18,3.47,3.47,-3.47,-3.38,-2.81,-0.29,-0.28,-0.29
197.22,3.12,3.12,3.43,3.43,-3.43,-3.34,-2.80,-0.31,-0.31,-0.31
199.19,3.06,3.06,3.40,3.40,-3.40,-3.31,-2.80,-0.34,-0.34,-0.33
201.18,3.00,3.00,3.36,3.36,-3.36,-3.27,-2.80,-0.36,-0.36,-0.36
203.19,2.94,2.94,3.32,3.32,-3.32,-3.23,-2.81,-0.38,-0.38,-0.38
205.23,2.88,2.88,3.28,3.28,-3.28,-3.19,-2.81,-0.40,-0.40,-0.40
207.28,2.82,2.82,3.24,3.24,-3.24,-3.16,-2.81,-0.42,-0.42,-0.42
209.35,2.76,2.76,3.20,3.20,-3.20,-3.12,-2.82,-0.44,-0.44,-0.44
211.44,2.70,2.70,3.16,3.16,-3.16,-3.08,-2.82,-0.46,-0.46,-0.46
213.56,2.64,2.64,3.12,3.12,-3.12,-3.04,-2.83,-0.48,-0.48,-0.48
215.69,2.58,2.58,3.08,3.08,-3.08,-3.00,-2.83,-0.50,-0.50,-0.50
217.85,2.52,2.52,3.04,3.04,-3.04,-2.95,-2.84,-0.52,-0.52,-0.52
220.03,2.46,2.46,3.00,3.00,-3.00,-2.91,-2.84,-0.53,-0.53,-0.53
222.23,2.40,2.40,2.95,2.95,-2.95,-2.87,-2.85,-0.55,-0.55,-0.55
224.45,2.34,2.34,2.91,2.91,-2.91,-2.83,-2.85,-0.57,-0.57,-0.57
226.70,2.28,2.28,2.86,2.86,-2.87,-2.79,-2.85,-0.58,-0.58,-0.58
228.96,2.22,2.22,2.82,2.82,-2.82,-2.74,-2.85,-0.60,-0.60,-0.60
231.25,2.16,2.16,2.77,2.77,-2.78,-2.70,-2.85,-0.61,-0.61,-0.61
233.57,2.10,2.10,2.73,2.73,-2.73,-2.66,-2.84,-0.63,-0.63,-0.62
235.90,2.04,2.04,2.69,2.69,-2.68,-2.61,-2.84,-0.64,-0.64,-0.65
238.26,1.98,1.98,2.64,2.64,-2.64,-2.57,-2.83,-0.65,-0.66,-0.66
240.64,1.91,1.92,2.59,2.59,-2.59,-2.53,-2.81,-0.68,-0.67,-0.67
243.05,1.85,1.85,2.54,2.54,-2.54,-2.48,-2.80,-0.69,-0.69,-0.69
245.48,1.79,1.79,2.49,2.49,-2.49,-2.44,-2.78,-0.70,-0.70,-0.70
247.93,1.73,1.73,2.44,2.44,-2.44,-2.40,-2.76,-0.71,-0.71,-0.71
250.41,1.67,1.67,2.39,2.39,-2.39,-2.35,-2.74,-0.72,-0.72,-0.72
252.92,1.61,1.61,2.34,2.34,-2.34,-2.31,-2.71,-0.73,-0.73,-0.73
255.45,1.55,1.55,2.29,2.29,-2.29,-2.26,-2.68,-0.74,-0.74,-0.74
258.00,1.49,1.49,2.24,2.24,-2.24,-2.22,-2.65,-0.75,-0.75,-0.75
260.58,1.43,1.43,2.19,2.19,-2.19,-2.18,-2.61,-0.76,-0.76,-0.76
263.19,1.37,1.37,2.14,2.14,-2.14,-2.13,-2.57,-0.77,-0.77,-0.77
265.82,1.31,1.31,2.09,2.09,-2.09,-2.09,-2.52,-0.78,-0.78,-0.78
268.48,1.25,1.25,2.04,2.04,-2.04,-2.04,-2.48,-0.79,-0.79,-0.79
271.16,1.19,1.19,1.99,1.99,-1.99,-2.00,-2.43,-0.79,-0.79,-0.79
273.87,1.13,1.13,1.94,1.93,-1.93,-1.96,-2.38,-0.80,-0.80,-0.80
276.61,1.07,1.07,1.88,1.88,-1.88,-1.91,-2.33,-0.81,-0.81,-0.81
279.38,1.01,1.02,1.83,1.83,-1.83,-1.87,-2.27,-0.82,-0.81,-0.82
282.17,0.96,0.96,1.79,1.78,-1.78,-1.83,-2.21,-0.82,-0.82,-0.82
284.99,0.90,0.90,1.72,1.73,-1.73,-1.78,-2.16,-0.83,-0.82,-0.82
287.84,0.85,0.85,1.67,1.68,-1.68,-1.74,-2.09,-0.83,-0.83,-0.82
290.72,0.80,0.81,1.63,1.63,-1.63,-1.69,-2.03,-0.83,-0.83,-0.82
293.63,0.76,0.76,1.59,1.59,-1.59,-1.65,-1.97,-0.83,-0.83,-0.83
296.57,0.72,0.72,1.55,1.55,-1.55,-1.61,-1.91,-0.82,-0.83,-0.83
299.53,0.67,0.68,1.50,1.51,-1.50,-1.56,-1.84,-0.83,-0.82,-0.82
302.53,0.64,0.64,1.47,1.47,-1.47,-1.52,-1.78,-0.82,-0.83,-0.83
305.55,0.60,0.60,1.43,1.43,-1.43,-1.48,-1.71,-0.82,-0.83,-0.82
308.61,0.56,0.56,1.39,1.39,-1.39,-1.44,-1.65,-0.83,-0.83,-0.83
311.69,0.52,0.53,1.35,1.35,-1.35,-1.39,-1.58,-0.83,-0.83,-0.82
314.81,0.49,0.49,1.32,1.32,-1.32,-1.35,-1.52,-0.82,-0.83,-0.83
317.96,0.45,0.46,1.28,1.28,-1.28,-1.31,-1.45,-0.83,-0.82,-0.82
321.14,0.42,0.42,1.25,1.24,-1.24,-1.26,-1.39,-0.82,-0.82,-0.83
324.35,0.38,0.38,1.20,1.20,-1.20,-1.22,-1.33,-0.82,-0.82,-0.82
327.59,0.34,0.34,1.16,1.16,-1.16,-1.18,-1.26,-0.82,-0.82,-0.82
330.87,0.30,0.30,1.12,1.12,-1.12,-1.14,-1.20,-0.82,-0.82,-0.82
334.18,0.26,0.26,1.08,1.08,-1.08,-1.09,-1.13,-0.81,-0.82,-0.81
337.52,0.22,0.22,1.04,1.04,-1.03,-1.05,-1.07,-0.81,-0.81,-0.82
340.90,0.17,0.18,0.98,0.99,-0.98,-1.01,-1.01,-0.81,-0.81,-0.81
344.30,0.13,0.13,0.94,0.94,-0.94,-0.97,-0.95,-0.80,-0.80,-0.80
347.75,0.08,0.09,0.88,0.89,-0.89,-0.92,-0.89,-0.80,-0.80,-0.80
351.23,0.04,0.04,0.84,0.83,-0.84,-0.88,-0.83,-0.79,-0.80,-0.80
354.74,-0.01,-0.01,0.78,0.78,-0.78,-0.84,-0.77,-0.79,-0.79,-0.78
358.28,-0.06,-0.05,0.73,0.73,-0.73,-0.80,-0.71,-0.79,-0.78,-0.79
361.87,-0.10,-0.10,0.68,0.68,-0.68,-0.76,-0.65,-0.78,-0.78,-0.78
365.49,-0.15,-0.15,0.63,0.63,-0.63,-0.71,-0.59,-0.77,-0.77,-0.77
369.14,-0.20,-0.19,0.58,0.58,-0.58,-0.67,-0.53,-0.77,-0.77,-0.77
372.83,-0.24,-0.24,0.52,0.52,-0.52,-0.63,-0.47,-0.76,-0.76,-0.76
376.56,-0.29,-0.29,0.47,0.47,-0.47,-0.59,-0.42,-0.76,-0.76,-0.76
380.33,-0.33,-0.33,0.43,0.43,-0.42,-0.54,-0.36,-0.75,-0.75,-0.75
384.13,-0.38,-0.37,0.38,0.38,-0.38,-0.50,-0.31,-0.75,-0.75,-0.75
387.97,-0.42,-0.42,0.33,0.33,-0.33,-0.46,-0.25,-0.74,-0.74,-0.75
391.85,-0.46,-0.46,0.27,0.28,-0.28,-0.42,-0.20,-0.74,-0.74,-0.73
395.77,-0.50,-0.50,0.23,0.23,-0.23,-0.37,-0.14,-0.73,-0.73,-0.73
399.73,-0.54,-0.54,0.19,0.18,-0.19,-0.33,-0.09,-0.72,-0.72,-0.72
403.72,-0.58,-0.58,0.14,0.14,-0.14,-0.29,-0.04,-0.72,-0.72,-0.71
407.76,-0.62,-0.62,0.10,0.10,-0.09,-0.25,0.02,-0.71,-0.71,-0.72
411.84,-0.66,-0.66,0.05,0.05,-0.05,-0.20,0.07,-0.71,-0.71,-0.71
415.96,-0.70,-0.70,0.00,0.01,-0.01,-0.16,0.12,-0.70,-0.70,-0.70
420.12,-0.74,-0.74,-0.04,-0.04,0.04,-0.12,0.17,-0.70,-0.70,-0.70
424.32,-0.78,-0.77,-0.08,-0.08,0.08,-0.08,0.21,-0.70,-0.70,-0.69
428.56,-0.81,-0.81,-0.12,-0.12,0.12,-0.03,0.26,-0.68,-0.69,-0.68
432.85,-0.85,-0.85,-0.17,-0.17,0.17,0.01,0.31,-0.68,-0.68,-0.68
437.18,-0.88,-0.88,-0.20,-0.20,0.21,0.05,0.35,-0.67,-0.67,-0.68
441.55,-0.92,-0.91,-0.25,-0.25,0.25,0.10,0.40,-0.67,-0.66,-0.67
445.96,-0.95,-0.95,-0.29,-0.29,0.29,0.14,0.44,-0.66,-0.65,-0.66
450.42,-0.98,-0.98,-0.34,-0.33,0.33,0.18,0.48,-0.64,-0.65,-0.64
454.93,-1.01,-1.01,-0.37,-0.38,0.37,0.22,0.52,-0.63,-0.64,-0.63
459.48,-1.05,-1.04,-0.42,-0.42,0.41,0.27,0.56,-0.63,-0.63,-0.62
464.07,-1.08,-1.08,-0.45,-0.45,0.45,0.31,0.59,-0.62,-0.62,-0.63
468.71,-1.11,-1.11,-0.49,-0.49,0.49,0.35,0.63,-0.61,-0.62,-0.62
473.40,-1.14,-1.14,-0.53,-0.53,0.53,0.40,0.66,-0.61,-0.61,-0.61
478.13,-1.17,-1.17,-0.57,-0.57,0.57,0.44,0.69,-0.60,-0.60,-0.60
482.91,-1.20,-1.20,-0.61,-0.61,0.61,0.48,0.72,-0.59,-0.59,-0.59
487.74,-1.23,-1.22,-0.65,-0.64,0.64,0.53,0.74,-0.58,-0.58,-0.58
492.62,-1.25,-1.25,-0.68,-0.68,0.68,0.57,0.77,-0.57,-0.57,-0.57
497.55,-1.28,-1.28,-0.71,-0.72,0.72,0.61,0.79,-0.56,-0.56,-0.56
502.52,-1.31,-1.31,-0.75,-0.76,0.76,0.65,0.81,-0.55,-0.55,-0.55
507.55,-1.34,-1.34,-0.80,-0.80,0.80,0.70,0.83,-0.54,-0.54,-0.53
512.62,-1.37,-1.36,-0.84,-0.84,0.84,0.74,0.84,-0.53,-0.53,-0.52
