frequency,raw,smoothed,error,error_smoothed,equalization,parametric_eq,fixed_band_eq,equalized_raw,equalized_smoothed,target
20.00,-3.13,-3.13,-5.65,-5.66,5.64,5.17,2.26,2.51,2.51,2.52
20.20,-3.08,-3.08,-5.65,-5.65,5.65,5.16,2.33,2.57,2.57,2.57
20.40,-3.03,-3.03,-5.65,-5.65,5.65,5.15,2.39,2.62,2.62,2.62
20.61,-2.98,-2.98,-5.63,-5.64,5.65,5.14,2.46,2.67,2.67,2.65
20.81,-2.93,-2.94,-5.63,-5.64,5.64,5.13,2.53,2.71,2.71,2.70
21.02,-2.89,-2.89,-5.63,-5.62,5.63,5.12,2.61,2.74,2.74,2.74
21.23,-2.85,-2.85,-5.61,-5.61,5.61,5.11,2.68,2.76,2.76,2.76
21.44,-2.80,-2.81,-5.58,-5.59,5.59,5.10,2.76,2.78,2.78,2.78
21.66,-2.76,-2.76,-5.56,-5.56,5.56,5.09,2.84,2.79,2.79,2.80
21.87,-2.72,-2.72,-5.53,-5.53,5.52,5.08,2.93,2.80,2.80,2.81
22.09,-2.67,-2.67,-5.50,-5.49,5.48,5.07,3.01,2.80,2.81,2.83
22.31,-2.61,-2.62,-5.45,-5.45,5.43,5.06,3.10,2.82,2.81,2.84
22.54,-2.55,-2.55,-5.39,-5.39,5.38,5.05,3.19,2.83,2.83,2.83
22.76,-2.49,-2.49,-5.33,-5.32,5.34,5.04,3.28,2.84,2.85,2.83
22.99,-2.42,-2.44,-5.25,-5.26,5.29,5.03,3.37,2.87,2.85,2.82
23.22,-2.40,-2.40,-5.23,-5.22,5.25,5.02,3.47,2.84,2.85,2.82
23.45,-2.37,-2.37,-5.19,-5.19,5.20,5.01,3.57,2.83,2.83,2.82
23.69,-2.34,-2.35,-5.17,-5.18,5.16,5.00,3.67,2.82,2.81,2.83
23.92,-2.32,-2.32,-5.15,-5.15,5.12,4.99,3.77,2.80,2.80,2.83
24.16,-2.28,-2.28,-5.12,-5.12,5.09,4.98,3.87,2.80,2.81,2.84
24.40,-2.22,-2.22,-5.07,-5.07,5.06,4.97,3.98,2.84,2.83,2.85
24.65,-2.17,-2.17,-5.01,-5.01,5.04,4.96,4.09,2.86,2.86,2.84
24.89,-2.12,-2.13,-4.96,-4.97,5.01,4.94,4.19,2.89,2.88,2.84
25.14,-2.11,-2.12,-4.95,-4.96,4.99,4.93,4.31,2.88,2.88,2.84
25.39,-2.12,-2.12,-4.97,-4.96,4.97,4.92,4.42,2.85,2.85,2.84
25.65,-2.13,-2.13,-4.98,-4.97,4.95,4.91,4.53,2.82,2.82,2.84
25.91,-2.14,-2.13,-4.98,-4.97,4.93,4.90,4.64,2.78,2.80,2.83
26.16,-2.10,-2.10,-4.93,-4.93,4.90,4.88,4.75,2.80,2.80,2.83
26.43,-2.05,-2.05,-4.88,-4.88,4.87,4.87,4.86,2.82,2.82,2.83
26.69,-1.99,-2.00,-4.82,-4.83,4.83,4.86,4.97,2.84,2.83,2.83
26.96,-1.94,-1.95,-4.78,-4.78,4.79,4.85,5.08,2.84,2.84,2.84
27.23,-1.90,-1.90,-4.74,-4.74,4.74,4.83,5.18,2.84,2.84,2.84
27.50,-1.86,-1.86,-4.70,-4.69,4.71,4.82,5.28,2.85,2.85,2.84
27.77,-1.82,-1.82,-4.65,-4.65,4.69,4.81,5.38,2.86,2.86,2.82
28.05,-1.79,-1.81,-4.62,-4.63,4.67,4.79,5.48,2.87,2.86,2.82
28.33,-1.82,-1.82,-4.63,-4.64,4.65,4.78,5.57,2.83,2.83,2.81
28.62,-1.84,-1.84,-4.65,-4.65,4.63,4.76,5.65,2.79,2.79,2.81
28.90,-1.86,-1.85,-4.68,-4.66,4.61,4.75,5.73,2.75,2.76,2.82
29.19,-1.83,-1.82,-4.64,-4.64,4.59,4.73,5.81,2.75,2.76,2.81
29.48,-1.76,-1.76,-4.59,-4.58,4.56,4.72,5.87,2.80,2.80,2.82
29.78,-1.69,-1.70,-4.51,-4.52,4.54,4.71,5.93,2.85,2.84,2.81
30.08,-1.64,-1.66,-4.46,-4.47,4.51,4.69,5.97,2.87,2.86,2.82
30.38,-1.64,-1.64,-4.45,-4.45,4.49,4.68,6.02,2.85,2.85,2.81
30.68,-1.64,-1.64,-4.45,-4.45,4.47,4.66,6.05,2.82,2.83,2.81
30.99,-1.64,-1.64,-4.45,-4.45,4.45,4.64,6.07,2.80,2.80,2.80
31.30,-1.64,-1.65,-4.45,-4.45,4.43,4.63,6.08,2.78,2.78,2.80
31.61,-1.64,-1.65,-4.44,-4.44,4.41,4.61,6.09,2.77,2.77,2.80
31.93,-1.64,-1.63,-4.44,-4.43,4.39,4.60,6.08,2.75,2.76,2.80
32.24,-1.60,-1.60,-4.39,-4.39,4.37,4.58,6.06,2.77,2.78,2.79
32.57,-1.55,-1.55,-4.35,-4.34,4.35,4.56,6.04,2.80,2.80,2.79
32.89,-1.50,-1.51,-4.29,-4.30,4.33,4.55,6.01,2.83,2.82,2.79
33.22,-1.49,-1.50,-4.27,-4.28,4.31,4.53,5.96,2.82,2.81,2.78
33.55,-1.51,-1.51,-4.29,-4.28,4.30,4.51,5.92,2.79,2.79,2.77
33.89,-1.53,-1.53,-4.30,-4.30,4.29,4.49,5.86,2.76,2.76,2.76
34.23,-1.54,-1.54,-4.31,-4.30,4.29,4.48,5.80,2.74,2.75,2.77
34.57,-1.54,-1.54,-4.30,-4.30,4.29,4.46,5.73,2.75,2.74,2.76
34.92,-1.54,-1.54,-4.30,-4.30,4.29,4.44,5.66,2.75,2.75,2.75
35.27,-1.54,-1.54,-4.29,-4.29,4.30,4.42,5.59,2.75,2.75,2.75
35.62,-1.54,-1.54,-4.29,-4.29,4.29,4.40,5.51,2.75,2.75,2.75
35.97,-1.54,-1.54,-4.29,-4.29,4.29,4.38,5.42,2.74,2.74,2.74
36.33,-1.54,-1.54,-4.29,-4.28,4.27,4.36,5.34,2.73,2.73,2.75
36.70,-1.53,-1.53,-4.27,-4.27,4.26,4.34,5.25,2.73,2.73,2.73
37.06,-1.52,-1.52,-4.25,-4.26,4.25,4.32,5.16,2.73,2.73,2.73
37.43,-1.49,-1.50,-4.24,-4.23,4.24,4.30,5.08,2.74,2.74,2.75
37.81,-1.47,-1.47,-4.22,-4.21,4.22,4.28,4.99,2.75,2.75,2.74
38.19,-1.45,-1.46,-4.19,-4.20,4.21,4.26,4.90,2.76,2.75,2.74
38.57,-1.45,-1.45,-4.20,-4.19,4.20,4.24,4.81,2.75,2.75,2.74
38.95,-1.45,-1.45,-4.20,-4.19,4.19,4.22,4.72,2.74,2.74,2.75
39.34,-1.45,-1.45,-4.20,-4.20,4.19,4.20,4.64,2.74,2.74,2.74
39.74,-1.45,-1.45,-4.19,-4.19,4.19,4.18,4.56,2.74,2.74,2.74
40.14,-1.45,-1.45,-4.20,-4.19,4.19,4.16,4.47,2.74,2.74,2.74
40.54,-1.45,-1.45,-4.19,-4.19,4.20,4.13,4.40,2.75,2.75,2.74
40.94,-1.45,-1.46,-4.18,-4.19,4.20,4.11,4.32,2.75,2.74,2.73
41.35,-1.48,-1.49,-4.21,-4.21,4.21,4.09,4.24,2.73,2.72,2.72
41.76,-1.52,-1.51,-4.24,-4.23,4.22,4.07,4.17,2.69,2.70,2.72
42.18,-1.53,-1.52,-4.25,-4.24,4.23,4.04,4.10,2.70,2.71,2.72
42.60,-1.52,-1.52,-4.23,-4.23,4.24,4.02,4.04,2.72,2.72,2.71
43.03,-1.50,-1.53,-4.20,-4.23,4.25,3.99,3.97,2.74,2.71,2.70
43.46,-1.56,-1.57,-4.25,-4.25,4.25,3.97,3.91,2.69,2.68,2.69
43.90,-1.63,-1.61,-4.30,-4.27,4.25,3.95,3.85,2.62,2.64,2.66
44.33,-1.64,-1.64,-4.29,-4.29,4.26,3.92,3.80,2.61,2.61,2.65
44.78,-1.64,-1.65,-4.27,-4.28,4.27,3.89,3.75,2.63,2.62,2.63
45.23,-1.64,-1.64,-4.26,-4.25,4.29,3.87,3.70,2.65,2.65,2.62
45.68,-1.65,-1.66,-4.25,-4.26,4.32,3.84,3.65,2.67,2.66,2.60
46.13,-1.68,-1.71,-4.27,-4.30,4.34,3.82,3.61,2.66,2.63,2.58
46.60,-1.78,-1.78,-4.36,-4.35,4.35,3.79,3.57,2.57,2.58,2.58
47.06,-1.86,-1.84,-4.43,-4.41,4.36,3.76,3.53,2.49,2.51,2.56
47.53,-1.87,-1.88,-4.43,-4.44,4.36,3.73,3.50,2.48,2.48,2.55
48.01,-1.87,-1.85,-4.43,-4.40,4.35,3.70,3.47,2.48,2.50,2.55
48.49,-1.80,-1.80,-4.34,-4.34,4.34,3.68,3.44,2.54,2.53,2.53
48.97,-1.73,-1.76,-4.24,-4.27,4.31,3.65,3.41,2.58,2.55,2.51
49.46,-1.73,-1.73,-4.22,-4.22,4.27,3.62,3.38,2.54,2.54,2.49
49.96,-1.73,-1.73,-4.20,-4.21,4.23,3.59,3.36,2.50,2.50,2.47
50.46,-1.73,-1.74,-4.20,-4.20,4.18,3.56,3.34,2.45,2.44,2.47
50.96,-1.73,-1.70,-4.19,-4.15,4.14,3.52,3.32,2.40,2.43,2.45
51.47,-1.66,-1.66,-4.09,-4.09,4.09,3.49,3.30,2.43,2.43,2.43
51.99,-1.58,-1.63,-4.00,-4.05,4.04,3.46,3.28,2.46,2.41,2.42
52.51,-1.60,-1.60,-4.02,-4.01,3.99,3.43,3.27,2.39,2.39,2.41
53.03,-1.61,-1.55,-4.02,-3.95,3.94,3.39,3.26,2.32,2.39,2.41
53.56,-1.47,-1.48,-3.87,-3.88,3.89,3.36,3.24,2.41,2.40,2.39
54.10,-1.36,-1.42,-3.74,-3.80,3.84,3.32,3.23,2.48,2.42,2.38
54.64,-1.39,-1.38,-3.75,-3.74,3.80,3.29,3.22,2.41,2.42,2.36
55.18,-1.41,-1.38,-3.77,-3.73,3.76,3.25,3.20,2.35,2.39,2.36
55.74,-1.36,-1.39,-3.70,-3.73,3.72,3.21,3.19,2.36,2.33,2.34
56.29,-1.35,-1.38,-3.68,-3.70,3.67,3.17,3.18,2.32,2.29,2.33
56.86,-1.37,-1.33,-3.69,-3.64,3.61,3.13,3.16,2.23,2.27,2.31
57.42,-1.27,-1.26,-3.56,-3.56,3.52,3.09,3.14,2.25,2.26,2.28
58.00,-1.13,-1.16,-3.41,-3.44,3.41,3.05,3.13,2.27,2.25,2.27
58.58,-1.03,-1.03,-3.30,-3.30,3.26,3.01,3.11,2.23,2.23,2.26
59.16,-0.91,-0.91,-3.16,-3.15,3.10,2.97,3.09,2.19,2.20,2.24
59.76,-0.76,-0.74,-2.99,-2.96,2.93,2.92,3.07,2.17,2.19,2.22
60.35,-0.58,-0.57,-2.76,-2.75,2.77,2.88,3.04,2.19,2.20,2.18
60.96,-0.37,-0.41,-2.52,-2.56,2.63,2.83,3.02,2.25,2.21,2.15
61.57,-0.31,-0.31,-2.42,-2.42,2.51,2.78,2.99,2.19,2.19,2.11
62.18,-0.28,-0.28,-2.35,-2.34,2.42,2.73,2.95,2.13,2.14,2.06
62.80,-0.30,-0.30,-2.32,-2.32,2.35,2.68,2.92,2.05,2.05,2.02
63.43,-0.33,-0.33,-2.31,-2.30,2.31,2.63,2.88,1.97,1.97,1.97
64.07,-0.38,-0.37,-2.31,-2.30,2.28,2.58,2.84,1.90,1.91,1.93
64.71,-0.40,-0.43,-2.28,-2.31,2.26,2.52,2.80,1.86,1.83,1.88
65.35,-0.45,-0.46,-2.30,-2.30,2.24,2.47,2.76,1.79,1.78,1.84
66.01,-0.52,-0.44,-2.32,-2.23,2.21,2.41,2.71,1.68,1.77,1.79
66.67,-0.37,-0.41,-2.12,-2.16,2.15,2.35,2.66,1.78,1.74,1.75
67.33,-0.32,-0.38,-2.02,-2.08,2.08,2.29,2.61,1.75,1.69,1.70
68.01,-0.38,-0.35,-2.04,-2.00,1.99,2.23,2.56,1.61,1.64,1.66
68.69,-0.35,-0.31,-1.96,-1.91,1.90,2.17,2.50,1.55,1.59,1.60
69.37,-0.25,-0.25,-1.80,-1.81,1.81,2.11,2.44,1.56,1.55,1.55
70.07,-0.13,-0.19,-1.63,-1.69,1.73,2.04,2.38,1.59,1.53,1.50
70.77,-0.18,-0.16,-1.64,-1.62,1.66,1.98,2.32,1.47,1.49,1.46
71.48,-0.19,-0.18,-1.59,-1.57,1.60,1.92,2.26,1.41,1.43,1.40
72.19,-0.20,-0.21,-1.54,-1.55,1.55,1.85,2.20,1.35,1.35,1.34
72.91,-0.22,-0.23,-1.50,-1.51,1.51,1.79,2.14,1.29,1.28,1.28
73.64,-0.27,-0.28,-1.50,-1.50,1.48,1.73,2.07,1.21,1.21,1.22
74.38,-0.32,-0.33,-1.49,-1.49,1.46,1.67,2.01,1.14,1.14,1.16
75.12,-0.38,-0.36,-1.49,-1.47,1.45,1.62,1.94,1.07,1.09,1.11
75.87,-0.38,-0.38,-1.43,-1.43,1.44,1.57,1.88,1.05,1.06,1.05
76.63,-0.38,-0.39,-1.38,-1.38,1.42,1.52,1.81,1.03,1.03,1.00
77.40,-0.40,-0.43,-1.35,-1.37,1.39,1.47,1.75,0.98,0.96,0.95
78.17,-0.46,-0.47,-1.35,-1.37,1.35,1.43,1.68,0.89,0.88,0.88
78.95,-0.55,-0.51,-1.40,-1.35,1.31,1.38,1.62,0.75,0.80,0.85
79.74,-0.50,-0.52,-1.30,-1.32,1.26,1.34,1.55,0.76,0.75,0.80
80.54,-0.48,-0.49,-1.24,-1.25,1.22,1.31,1.49,0.74,0.73,0.75
81.35,-0.46,-0.44,-1.16,-1.14,1.19,1.27,1.43,0.73,0.75,0.70
82.16,-0.42,-0.43,-1.08,-1.09,1.15,1.23,1.37,0.73,0.72,0.65
82.98,-0.40,-0.46,-1.02,-1.07,1.12,1.19,1.30,0.71,0.66,0.62
83.81,-0.55,-0.51,-1.11,-1.07,1.08,1.16,1.24,0.53,0.57,0.56
84.65,-0.58,-0.56,-1.10,-1.08,1.05,1.12,1.18,0.47,0.48,0.51
85.50,-0.58,-0.60,-1.06,-1.07,1.02,1.08,1.12,0.43,0.42,0.47
86.35,-0.58,-0.59,-1.01,-1.01,0.99,1.04,1.06,0.41,0.40,0.42
87.22,-0.58,-0.58,-0.96,-0.96,0.96,1.00,1.00,0.37,0.37,0.37
88.09,-0.58,-0.58,-0.91,-0.91,0.91,0.96,0.95,0.33,0.33,0.32
88.97,-0.58,-0.58,-0.86,-0.85,0.86,0.92,0.89,0.28,0.28,0.27
89.86,-0.57,-0.58,-0.80,-0.80,0.81,0.88,0.83,0.23,0.23,0.22
90.76,-0.57,-0.57,-0.74,-0.75,0.75,0.83,0.78,0.18,0.18,0.17
91.66,-0.57,-0.57,-0.70,-0.69,0.69,0.79,0.72,0.12,0.12,0.13
92.58,-0.57,-0.57,-0.64,-0.64,0.64,0.74,0.67,0.07,0.07,0.06
93.51,-0.57,-0.57,-0.59,-0.60,0.59,0.69,0.61,0.02,0.02,0.02
94.44,-0.57,-0.57,-0.55,-0.55,0.55,0.65,0.56,-0.03,-0.03,-0.02
95.39,-0.57,-0.57,-0.51,-0.50,0.50,0.60,0.51,-0.07,-0.07,-0.07
96.34,-0.57,-0.58,-0.45,-0.46,0.46,0.55,0.45,-0.11,-0.11,-0.12
97.30,-0.58,-0.58,-0.42,-0.41,0.42,0.50,0.40,-0.16,-0.16,-0.17
98.28,-0.59,-0.59,-0.38,-0.38,0.38,0.44,0.35,-0.22,-0.22,-0.21
99.26,-0.60,-0.61,-0.34,-0.35,0.33,0.39,0.30,-0.27,-0.28,-0.26
100.25,-0.62,-0.63,-0.32,-0.32,0.29,0.34,0.25,-0.33,-0.33,-0.30
101.25,-0.64,-0.64,-0.29,-0.29,0.27,0.29,0.20,-0.38,-0.37,-0.35
102.27,-0.65,-0.64,-0.26,-0.24,0.26,0.23,0.15,-0.40,-0.38,-0.40
103.29,-0.64,-0.63,-0.19,-0.19,0.26,0.18,0.11,-0.38,-0.37,-0.45
104.32,-0.64,-0.68,-0.15,-0.19,0.26,0.13,0.06,-0.38,-0.41,-0.49
105.37,-0.73,-0.77,-0.20,-0.23,0.27,0.07,0.01,-0.46,-0.50,-0.54
106.42,-0.93,-0.89,-0.35,-0.30,0.27,0.02,-0.03,-0.66,-0.62,-0.58
107.48,-1.00,-0.99,-0.36,-0.36,0.27,-0.04,-0.08,-0.74,-0.73,-0.64
108.56,-1.02,-1.03,-0.33,-0.34,0.26,-0.09,-0.12,-0.76,-0.77,-0.69
109.64,-1.02,-1.00,-0.28,-0.26,0.24,-0.15,-0.16,-0.78,-0.76,-0.74
110.74,-0.94,-0.97,-0.15,-0.18,0.20,-0.20,-0.21,-0.74,-0.77,-0.80
111.85,-0.94,-0.95,-0.11,-0.11,0.14,-0.25,-0.25,-0.80,-0.81,-0.83
112.97,-0.94,-0.95,-0.05,-0.05,0.07,-0.31,-0.29,-0.88,-0.88,-0.90
114.10,-0.95,-0.95,-0.01,-0.00,-0.02,-0.36,-0.33,-0.97,-0.96,-0.94
115.24,-0.93,-0.91,0.05,0.09,-0.10,-0.41,-0.37,-1.03,-1.00,-0.99
116.39,-0.85,-0.87,0.19,0.17,-0.17,-0.46,-0.40,-1.02,-1.03,-1.04
117.55,-0.79,-0.83,0.28,0.25,-0.23,-0.52,-0.44,-1.03,-1.06,-1.08
118.73,-0.83,-0.80,0.29,0.31,-0.30,-0.57,-0.47,-1.13,-1.10,-1.12
119.92,-0.80,-0.80,0.34,0.35,-0.36,-0.62,-0.51,-1.16,-1.15,-1.14
121.12,-0.77,-0.79,0.41,0.40,-0.41,-0.67,-0.54,-1.18,-1.20,-1.19
122.33,-0.77,-0.78,0.45,0.44,-0.45,-0.72,-0.57,-1.22,-1.23,-1.22
123.55,-0.77,-0.77,0.47,0.48,-0.47,-0.77,-0.60,-1.24,-1.24,-1.24
124.79,-0.79,-0.76,0.48,0.51,-0.48,-0.81,-0.63,-1.27,-1.24,-1.27
126.03,-0.74,-0.77,0.56,0.53,-0.47,-0.86,-0.66,-1.22,-1.24,-1.30
127.29,-0.79,-0.82,0.53,0.50,-0.47,-0.91,-0.68,-1.26,-1.30,-1.32
128.57,-0.90,-0.90,0.46,0.46,-0.47,-0.96,-0.71,-1.37,-1.37,-1.36
129.85,-1.02,-0.98,0.37,0.41,-0.47,-1.00,-0.73,-1.49,-1.45,-1.39
131.15,-1.01,-1.01,0.40,0.41,-0.47,-1.04,-0.75,-1.48,-1.48,-1.42
132.46,-0.98,-1.00,0.46,0.45,-0.48,-1.09,-0.78,-1.46,-1.48,-1.45
133.79,-0.96,-0.97,0.51,0.50,-0.49,-1.13,-0.80,-1.46,-1.46,-1.47
135.12,-0.96,-0.96,0.54,0.54,-0.52,-1.17,-0.82,-1.48,-1.48,-1.51
136.48,-0.95,-0.95,0.57,0.57,-0.55,-1.21,-0.84,-1.51,-1.51,-1.52
137.84,-0.95,-0.95,0.60,0.61,-0.59,-1.25,-0.86,-1.55,-1.55,-1.56
139.22,-0.95,-0.95,0.64,0.64,-0.63,-1.29,-0.87,-1.58,-1.58,-1.59
140.61,-0.95,-0.95,0.67,0.66,-0.66,-1.33,-0.89,-1.62,-1.62,-1.62
142.02,-0.95,-0.95,0.68,0.69,-0.69,-1.37,-0.91,-1.64,-1.64,-1.64
143.44,-0.95,-0.95,0.71,0.72,-0.72,-1.40,-0.93,-1.67,-1.67,-1.67
144.87,-0.95,-0.95,0.75,0.75,-0.75,-1.44,-0.95,-1.70,-1.70,-1.71
146.32,-0.95,-0.95,0.79,0.79,-0.78,-1.47,-0.96,-1.74,-1.74,-1.75
147.78,-0.95,-0.95,0.82,0.83,-0.82,-1.51,-0.98,-1.78,-1.78,-1.78
149.26,-0.95,-0.95,0.87,0.88,-0.87,-1.54,-1.00,-1.83,-1.82,-1.82
150.75,-0.95,-0.96,0.94,0.93,-0.94,-1.57,-1.02,-1.89,-1.89,-1.89
152.26,-0.95,-0.97,1.00,0.98,-1.01,-1.60,-1.04,-1.96,-1.98,-1.96
153.78,-0.98,-0.96,1.04,1.06,-1.09,-1.63,-1.05,-2.08,-2.06,-2.02
155.32,-0.96,-0.94,1.13,1.16,-1.18,-1.66,-1.07,-2.15,-2.12,-2.10
156.88,-0.87,-0.90,1.30,1.27,-1.27,-1.69,-1.09,-2.15,-2.18,-2.17
158.44,-0.85,-0.86,1.40,1.39,-1.37,-1.71,-1.12,-2.22,-2.23,-2.25
160.03,-0.85,-0.84,1.48,1.49,-1.45,-1.74,-1.14,-2.31,-2.30,-2.34
161.63,-0.85,-0.85,1.55,1.55,-1.54,-1.76,-1.16,-2.39,-2.39,-2.41
163.24,-0.85,-0.86,1.62,1.61,-1.61,-1.79,-1.18,-2.46,-2.46,-2.47
164.88,-0.86,-0.86,1.66,1.66,-1.66,-1.81,-1.21,-2.53,-2.52,-2.52
166.53,-0.86,-0.87,1.70,1.70,-1.71,-1.83,-1.23,-2.57,-2.57,-2.57
168.19,-0.87,-0.87,1.73,1.74,-1.74,-1.85,-1.26,-2.61,-2.61,-2.61
169.87,-0.87,-0.88,1.77,1.76,-1.76,-1.87,-1.29,-2.63,-2.63,-2.64
171.57,-0.88,-0.88,1.78,1.78,-1.77,-1.89,-1.32,-2.66,-2.66,-2.66
173.29,-0.89,-0.89,1.78,1.79,-1.78,-1.91,-1.35,-2.68,-2.67,-2.68
175.02,-0.89,-0.90,1.79,1.79,-1.79,-1.92,-1.38,-2.68,-2.69,-2.68
176.77,-0.90,-0.90,1.79,1.79,-1.80,-1.94,-1.41,-2.70,-2.70,-2.70
178.54,-0.90,-0.90,1.80,1.80,-1.80,-1.96,-1.44,-2.70,-2.70,-2.70
180.32,-0.89,-0.90,1.80,1.80,-1.80,-1.97,-1.48,-2.69,-2.70,-2.69
182.13,-0.89,-0.89,1.79,1.80,-1.80,-1.98,-1.51,-2.69,-2.69,-2.69
183.95,-0.88,-0.88,1.82,1.82,-1.81,-2.00,-1.55,-2.69,-2.69,-2.70
185.79,-0.87,-0.87,1.83,1.83,-1.83,-2.01,-1.59,-2.70,-2.70,-2.70
187.65,-0.85,-0.87,1.87,1.85,-1.86,-2.02,-1.63,-2.71,-2.73,-2.72
189.52,-0.87,-0.87,1.86,1.86,-1.90,-2.03,-1.67,-2.77,-2.76,-2.73
191.42,-0.86,-0.84,1.89,1.91,-1.94,-2.04,-1.71,-2.80,-2.78,-2.75
193.33,-0.79,-0.79,1.98,1.98,-1.99,-2.05,-1.75,-2.78,-2.78,-2.77
195.27,-0.71,-0.73,2.07,2.06,-2.04,-2.06,-1.79,-2.75,-2.77,-2.79
197.22,-0.68,-0.69,2.12,2.12,-2.09,-2.06,-1.83,-2.77,-2.77,-2.81
199.19,-0.67,-0.67,2.16,2.16,-2.13,-2.07,-1.88,-2.80,-2.79,-2.83
201.18,-0.66,-0.66,2.19,2.19,-2.16,-2.08,-1.92,-2.83,-2.83,-2.85
203.19,-0.66,-0.66,2.20,2.21,-2.20,-2.08,-1.97,-2.86,-2.86,-2.87
205.23,-0.66,-0.66,2.23,2.22,-2.23,-2.09,-2.01,-2.89,-2.89,-2.89
207.28,-0.66,-0.67,2.23,2.23,-2.26,-2.09,-2.06,-2.92,-2.93,-2.90
209.35,-0.66,-0.67,2.26,2.26,-2.29,-2.09,-2.10,-2.96,-2.96,-2.92
211.44,-0.66,-0.65,2.29,2.30,-2.33,-2.10,-2.15,-2.99,-2.98,-2.95
213.56,-0.60,-0.60,2.35,2.36,-2.37,-2.10,-2.19,-2.97,-2.98,-2.96
215.69,-0.55,-0.55,2.42,2.42,-2.41,-2.10,-2.24,-2.96,-2.96,-2.97
217.85,-0.49,-0.51,2.49,2.48,-2.45,-2.10,-2.28,-2.94,-2.95,-2.98
220.03,-0.48,-0.49,2.51,2.51,-2.47,-2.10,-2.32,-2.96,-2.96,-3.00
222.23,-0.49,-0.49,2.53,2.52,-2.50,-2.10,-2.37,-2.99,-2.98,-3.02
224.45,-0.49,-0.49,2.52,2.52,-2.51,-2.10,-2.41,-3.01,-3.00,-3.01
226.70,-0.49,-0.49,2.52,2.52,-2.53,-2.10,-2.44,-3.02,-3.02,-3.01
228.96,-0.48,-0.50,2.52,2.50,-2.53,-2.10,-2.48,-3.02,-3.03,-3.00
231.25,-0.49,-0.49,2.50,2.51,-2.54,-2.10,-2.51,-3.03,-3.03,-2.99
233.57,-0.48,-0.46,2.50,2.52,-2.54,-2.09,-2.54,-3.03,-3.00,-2.98
235.90,-0.40,-0.41,2.57,2.56,-2.55,-2.09,-2.57,-2.96,-2.97,-2.97
238.26,-0.35,-0.37,2.61,2.59,-2.57,-2.09,-2.60,-2.92,-2.93,-2.96
240.64,-0.32,-0.33,2.62,2.61,-2.59,-2.08,-2.62,-2.91,-2.92,-2.94
243.05,-0.31,-0.30,2.60,2.61,-2.61,-2.08,-2.64,-2.92,-2.91,-2.91
245.48,-0.28,-0.26,2.60,2.63,-2.64,-2.07,-2.66,-2.92,-2.90,-2.89
247.93,-0.18,-0.22,2.67,2.64,-2.67,-2.07,-2.67,-2.85,-2.88,-2.86
250.41,-0.16,-0.17,2.68,2.67,-2.70,-2.06,-2.68,-2.86,-2.86,-2.84
252.92,-0.13,-0.10,2.68,2.71,-2.72,-2.06,-2.69,-2.86,-2.83,-2.81
255.45,-0.04,-0.04,2.75,2.75,-2.74,-2.05,-2.69,-2.79,-2.79,-2.79
258.00,0.05,0.03,2.81,2.79,-2.76,-2.04,-2.70,-2.72,-2.73,-2.77
260.58,0.09,0.08,2.84,2.82,-2.78,-2.03,-2.69,-2.69,-2.70,-2.75
263.19,0.09,0.09,2.81,2.82,-2.78,-2.03,-2.69,-2.70,-2.69,-2.72
265.82,0.09,0.09,2.79,2.79,-2.79,-2.02,-2.68,-2.70,-2.70,-2.71
268.48,0.09,0.07,2.77,2.75,-2.79,-2.01,-2.67,-2.70,-2.71,-2.68
271.16,0.08,0.10,2.72,2.75,-2.78,-2.00,-2.65,-2.71,-2.68,-2.65
273.87,0.13,0.15,2.76,2.78,-2.79,-1.99,-2.64,-2.66,-2.64,-2.63
276.61,0.25,0.20,2.84,2.80,-2.81,-1.98,-2.62,-2.56,-2.60,-2.60
279.38,0.27,0.25,2.84,2.82,-2.85,-1.97,-2.60,-2.58,-2.60,-2.57
282.17,0.27,0.31,2.82,2.85,-2.91,-1.96,-2.58,-2.64,-2.60,-2.55
284.99,0.36,0.38,2.87,2.90,-2.97,-1.95,-2.56,-2.61,-2.59,-2.51
287.84,0.52,0.47,3.02,2.97,-3.01,-1.93,-2.54,-2.50,-2.54,-2.50
290.72,0.58,0.57,3.04,3.04,-3.02,-1.92,-2.52,-2.45,-2.45,-2.46
293.63,0.60,0.66,3.03,3.09,-3.00,-1.91,-2.49,-2.40,-2.34,-2.44
296.57,0.68,0.68,3.08,3.08,-2.93,-1.89,-2.47,-2.25,-2.25,-2.40
299.53,0.62,0.53,2.99,2.91,-2.81,-1.88,-2.45,-2.19,-2.27,-2.38
302.53,0.28,0.22,2.64,2.57,-2.65,-1.86,-2.42,-2.37,-2.42,-2.36
305.55,-0.33,-0.23,1.98,2.10,-2.42,-1.85,-2.40,-2.76,-2.65,-2.31
308.61,-0.77,-0.81,1.52,1.48,-2.16,-1.83,-2.38,-2.93,-2.97,-2.30
311.69,-1.26,-1.42,1.01,0.85,-1.86,-1.81,-2.35,-3.12,-3.27,-2.27
314.81,-1.92,-1.77,0.32,0.48,-1.56,-1.79,-2.33,-3.48,-3.32,-2.24
317.96,-2.08,-1.86,0.14,0.37,-1.29,-1.77,-2.31,-3.37,-3.15,-2.23
321.14,-1.55,-1.72,0.67,0.50,-1.09,-1.75,-2.30,-2.65,-2.81,-2.22
324.35,-1.39,-1.53,0.81,0.68,-0.99,-1.72,-2.28,-2.38,-2.52,-2.20
327.59,-1.38,-1.41,0.80,0.78,-0.99,-1.70,-2.26,-2.37,-2.40,-2.19
330.87,-1.52,-1.35,0.66,0.82,-1.08,-1.67,-2.25,-2.60,-2.43,-2.18
334.18,-1.14,-1.14,1.02,1.02,-1.25,-1.64,-2.24,-2.39,-2.39,-2.16
337.52,-0.74,-0.77,1.41,1.38,-1.45,-1.60,-2.22,-2.20,-2.22,-2.15
340.90,-0.35,-0.34,1.78,1.80,-1.67,-1.56,-2.21,-2.02,-2.01,-2.14
344.30,0.01,-0.04,2.14,2.09,-1.85,-1.51,-2.21,-1.85,-1.90,-2.13
347.75,0.11,0.15,2.24,2.27,-1.98,-1.46,-2.20,-1.88,-1.84,-2.13
351.23,0.14,0.15,2.26,2.28,-2.03,-1.40,-2.20,-1.89,-1.88,-2.12
354.74,-0.03,-0.10,2.09,2.02,-1.98,-1.34,-2.19,-2.01,-2.08,-2.13
358.28,-0.56,-0.66,1.55,1.46,-1.83,-1.26,-2.19,-2.40,-2.49,-2.12
361.87,-1.38,-1.43,0.74,0.69,-1.58,-1.18,-2.19,-2.97,-3.01,-2.12
365.49,-2.26,-2.11,-0.15,0.00,-1.27,-1.09,-2.20,-3.53,-3.38,-2.11
369.14,-2.60,-2.44,-0.48,-0.32,-0.94,-1.00,-2.20,-3.55,-3.39,-2.12
372.83,-2.44,-2.47,-0.32,-0.35,-0.65,-0.90,-2.21,-3.09,-3.12,-2.13
376.56,-2.15,-2.36,-0.03,-0.24,-0.44,-0.81,-2.21,-2.59,-2.80,-2.13
380.33,-2.30,-2.30,-0.18,-0.17,-0.32,-0.73,-2.22,-2.62,-2.61,-2.12
384.13,-2.34,-2.22,-0.22,-0.10,-0.29,-0.67,-2.23,-2.63,-2.51,-2.12
387.97,-2.13,-2.08,-0.00,0.05,-0.34,-0.63,-2.25,-2.48,-2.42,-2.13
391.85,-1.69,-1.81,0.45,0.32,-0.47,-0.64,-2.26,-2.16,-2.28,-2.14
395.77,-1.49,-1.49,0.64,0.65,-0.62,-0.67,-2.28,-2.11,-2.11,-2.14
399.73,-1.29,-1.19,0.85,0.96,-0.78,-0.73,-2.29,-2.07,-1.96,-2.15
403.72,-0.92,-0.97,1.23,1.18,-0.92,-0.82,-2.31,-1.84,-1.89,-2.15
407.76,-0.76,-0.83,1.40,1.33,-1.03,-0.92,-2.32,-1.79,-1.86,-2.16
411.84,-0.85,-0.86,1.31,1.30,-1.10,-1.02,-2.34,-1.96,-1.96,-2.16
415.96,-1.02,-1.04,1.14,1.13,-1.13,-1.12,-2.36,-2.15,-2.16,-2.16
420.12,-1.26,-1.21,0.90,0.95,-1.12,-1.21,-2.38,-2.39,-2.33,-2.16
424.32,-1.30,-1.28,0.86,0.88,-1.12,-1.30,-2.40,-2.43,-2.41,-2.16
428.56,-1.21,-1.20,0.94,0.96,-1.14,-1.38,-2.42,-2.36,-2.35,-2.16
432.85,-1.02,-1.01,1.12,1.14,-1.20,-1.45,-2.43,-2.23,-2.21,-2.15
437.18,-0.73,-0.79,1.40,1.34,-1.31,-1.52,-2.45,-2.04,-2.09,-2.14
441.55,-0.56,-0.57,1.54,1.53,-1.45,-1.58,-2.47,-2.01,-2.02,-2.10
445.96,-0.40,-0.37,1.67,1.70,-1.63,-1.64,-2.48,-2.03,-2.00,-2.07
450.42,-0.19,-0.19,1.85,1.84,-1.80,-1.69,-2.50,-2.00,-2.00,-2.04
454.93,0.01,-0.02,2.00,1.98,-1.96,-1.74,-2.51,-1.96,-1.98,-1.99
459.48,0.15,0.15,2.09,2.09,-2.09,-1.78,-2.52,-1.95,-1.95,-1.94
464.07,0.29,0.30,2.18,2.19,-2.20,-1.83,-2.53,-1.91,-1.89,-1.89
468.71,0.44,0.45,2.27,2.29,-2.28,-1.87,-2.53,-1.84,-1.83,-1.83
