frequency,raw,error,smoothed,error_smoothed,equalization,parametric_eq,fixed_band_eq,equalized_raw,equalized_smoothed,target
20.00,3.20,-4.68,3.20,-4.68,4.69,4.32,1.28,7.89,7.89,7.87
20.20,3.26,-4.61,3.25,-4.61,4.61,4.28,1.32,7.87,7.87,7.86
20.40,3.32,-4.54,3.31,-4.54,4.54,4.25,1.36,7.85,7.85,7.85
20.61,3.37,-4.48,3.38,-4.47,4.46,4.22,1.40,7.84,7.84,7.85
20.81,3.44,-4.40,3.44,-4.40,4.39,4.18,1.44,7.82,7.83,7.83
21.02,3.51,-4.33,3.50,-4.33,4.32,4.15,1.48,7.82,7.82,7.83
21.23,3.57,-4.26,3.57,-4.26,4.25,4.11,1.53,7.82,7.82,7.82
21.44,3.64,-4.20,3.64,-4.19,4.19,4.07,1.57,7.82,7.82,7.83
21.66,3.70,-4.12,3.70,-4.11,4.12,4.03,1.62,7.82,7.82,7.82
21.87,3.77,-4.04,3.77,-4.05,4.06,4.00,1.67,7.82,7.82,7.81
22.09,3.83,-3.97,3.82,-3.99,4.00,3.96,1.72,7.82,7.81,7.80
22.31,3.86,-3.94,3.86,-3.94,3.94,3.92,1.77,7.80,7.80,7.80
22.54,3.89,-3.90,3.90,-3.89,3.89,3.87,1.83,7.79,7.79,7.79
22.76,3.94,-3.85,3.93,-3.85,3.85,3.83,1.88,7.79,7.79,7.79
22.99,3.98,-3.80,3.97,-3.81,3.81,3.79,1.94,7.79,7.79,7.78
23.22,4.01,-3.76,4.01,-3.77,3.78,3.75,1.99,7.78,7.78,7.77
23.45,4.04,-3.74,4.03,-3.74,3.74,3.71,2.05,7.77,7.77,7.78
23.69,4.06,-3.70,4.06,-3.71,3.69,3.66,2.11,7.76,7.76,7.77
23.92,4.10,-3.67,4.10,-3.67,3.64,3.62,2.17,7.74,7.75,7.77
24.16,4.16,-3.62,4.16,-3.61,3.59,3.57,2.23,7.75,7.75,7.78
24.40,4.24,-3.55,4.23,-3.55,3.53,3.53,2.30,7.77,7.77,7.78
24.65,4.31,-3.47,4.32,-3.47,3.47,3.48,2.36,7.79,7.79,7.78
24.89,4.40,-3.39,4.39,-3.39,3.41,3.44,2.42,7.81,7.80,7.78
25.14,4.46,-3.33,4.45,-3.33,3.35,3.39,2.49,7.81,7.80,7.78
25.39,4.50,-3.29,4.50,-3.28,3.30,3.34,2.55,7.79,7.80,7.78
25.65,4.55,-3.24,4.54,-3.24,3.25,3.30,2.61,7.79,7.79,7.78
25.91,4.58,-3.21,4.59,-3.21,3.21,3.25,2.68,7.79,7.79,7.79
26.16,4.63,-3.17,4.62,-3.17,3.17,3.20,2.74,7.80,7.80,7.80
26.43,4.65,-3.14,4.65,-3.14,3.14,3.16,2.80,7.79,7.79,7.80
26.69,4.69,-3.11,4.68,-3.11,3.10,3.11,2.86,7.79,7.79,7.80
26.96,4.72,-3.08,4.72,-3.08,3.07,3.06,2.92,7.78,7.78,7.80
27.23,4.75,-3.04,4.76,-3.03,3.03,3.01,2.98,7.78,7.79,7.80
27.50,4.82,-2.98,4.81,-2.99,2.98,2.96,3.04,7.80,7.79,7.79
27.77,4.87,-2.94,4.86,-2.93,2.94,2.92,3.09,7.81,7.80,7.80
28.05,4.92,-2.89,4.91,-2.88,2.89,2.87,3.14,7.81,7.81,7.80
28.33,4.96,-2.83,4.96,-2.84,2.85,2.82,3.19,7.80,7.80,7.79
28.62,4.99,-2.79,5.00,-2.80,2.80,2.77,3.23,7.80,7.80,7.79
28.90,5.04,-2.76,5.03,-2.76,2.76,2.72,3.27,7.79,7.79,7.80
29.19,5.08,-2.72,5.08,-2.72,2.71,2.67,3.30,7.79,7.79,7.80
29.48,5.13,-2.67,5.13,-2.67,2.67,2.62,3.33,7.79,7.79,7.80
29.78,5.17,-2.62,5.18,-2.62,2.62,2.57,3.35,7.80,7.80,7.79
30.08,5.22,-2.58,5.22,-2.57,2.58,2.52,3.37,7.80,7.80,7.80
30.38,5.26,-2.53,5.26,-2.53,2.53,2.48,3.38,7.79,7.79,7.79
30.68,5.30,-2.48,5.30,-2.49,2.47,2.43,3.39,7.77,7.77,7.78
30.99,5.33,-2.44,5.34,-2.44,2.42,2.38,3.39,7.76,7.76,7.78
31.30,5.38,-2.38,5.39,-2.38,2.38,2.33,3.38,7.76,7.77,7.76
31.61,5.45,-2.32,5.45,-2.32,2.33,2.28,3.36,7.78,7.78,7.76
31.93,5.50,-2.25,5.49,-2.26,2.29,2.23,3.34,7.79,7.78,7.75
32.24,5.52,-2.23,5.51,-2.23,2.25,2.18,3.32,7.76,7.76,7.75
32.57,5.53,-2.21,5.53,-2.21,2.21,2.13,3.29,7.73,7.73,7.74
32.89,5.54,-2.20,5.54,-2.19,2.17,2.08,3.25,7.70,7.71,7.73
33.22,5.58,-2.16,5.58,-2.15,2.13,2.03,3.20,7.70,7.71,7.73
33.55,5.64,-2.09,5.63,-2.10,2.09,1.99,3.15,7.73,7.73,7.73
33.89,5.70,-2.04,5.69,-2.04,2.05,1.94,3.10,7.75,7.74,7.74
34.23,5.74,-1.99,5.73,-2.00,2.01,1.89,3.04,7.75,7.74,7.72
34.57,5.76,-1.97,5.76,-1.97,1.97,1.84,2.98,7.73,7.73,7.72
34.92,5.78,-1.94,5.78,-1.94,1.93,1.79,2.91,7.70,7.71,7.72
35.27,5.81,-1.91,5.82,-1.90,1.89,1.74,2.84,7.71,7.71,7.73
35.62,5.87,-1.85,5.87,-1.85,1.86,1.70,2.77,7.72,7.72,7.71
35.97,5.92,-1.79,5.90,-1.81,1.83,1.65,2.69,7.74,7.73,7.71
36.33,5.92,-1.78,5.91,-1.78,1.80,1.60,2.61,7.71,7.71,7.70
36.70,5.92,-1.77,5.92,-1.76,1.76,1.55,2.53,7.68,7.68,7.68
37.06,5.92,-1.75,5.92,-1.74,1.72,1.50,2.45,7.64,7.65,7.67
37.43,5.95,-1.70,5.94,-1.71,1.68,1.46,2.37,7.63,7.62,7.64
37.81,5.98,-1.66,5.97,-1.66,1.64,1.41,2.28,7.61,7.61,7.63
38.19,6.01,-1.60,6.01,-1.59,1.59,1.36,2.20,7.60,7.61,7.61
38.57,6.06,-1.53,6.06,-1.52,1.54,1.31,2.11,7.59,7.60,7.58
38.95,6.11,-1.45,6.09,-1.46,1.48,1.27,2.03,7.58,7.57,7.56
39.34,6.13,-1.40,6.12,-1.41,1.41,1.22,1.94,7.53,7.53,7.52
39.74,6.14,-1.37,6.14,-1.36,1.34,1.17,1.85,7.48,7.49,7.51
40.14,6.17,-1.32,6.18,-1.30,1.28,1.13,1.77,7.44,7.46,7.48
40.54,6.23,-1.22,6.24,-1.23,1.22,1.08,1.68,7.46,7.46,7.46
40.94,6.31,-1.13,6.28,-1.15,1.17,1.03,1.60,7.48,7.46,7.43
41.35,6.32,-1.10,6.32,-1.09,1.13,0.99,1.51,7.45,7.45,7.42
41.76,6.32,-1.07,6.32,-1.07,1.09,0.94,1.43,7.41,7.41,7.38
42.18,6.32,-1.05,6.31,-1.05,1.05,0.89,1.35,7.37,7.37,7.36
42.60,6.32,-1.03,6.31,-1.03,1.01,0.85,1.26,7.33,7.33,7.35
43.03,6.32,-1.01,6.32,-1.00,0.98,0.80,1.18,7.29,7.29,7.32
43.46,6.34,-0.96,6.33,-0.97,0.93,0.76,1.10,7.27,7.27,7.30
43.90,6.36,-0.92,6.36,-0.91,0.89,0.71,1.02,7.25,7.26,7.28
44.33,6.41,-0.84,6.41,-0.84,0.84,0.67,0.94,7.25,7.25,7.25
44.78,6.47,-0.76,6.45,-0.78,0.79,0.62,0.87,7.25,7.24,7.22
45.23,6.50,-0.72,6.49,-0.71,0.74,0.57,0.79,7.23,7.23,7.22
45.68,6.51,-0.67,6.51,-0.67,0.69,0.53,0.71,7.19,7.20,7.18
46.13,6.52,-0.62,6.51,-0.63,0.64,0.48,0.64,7.16,7.16,7.14
46.60,6.52,-0.59,6.52,-0.60,0.60,0.44,0.56,7.12,7.12,7.11
47.06,6.52,-0.57,6.52,-0.56,0.57,0.39,0.49,7.08,7.08,7.08
47.53,6.52,-0.54,6.52,-0.53,0.53,0.35,0.41,7.04,7.04,7.05
48.01,6.52,-0.49,6.51,-0.49,0.48,0.30,0.34,6.99,6.99,7.00
48.49,6.52,-0.45,6.51,-0.45,0.42,0.26,0.27,6.94,6.94,6.96
48.97,6.52,-0.40,6.53,-0.39,0.36,0.21,0.20,6.88,6.89,6.92
49.46,6.57,-0.32,6.56,-0.32,0.29,0.17,0.13,6.86,6.86,6.89
49.96,6.62,-0.21,6.62,-0.22,0.22,0.13,0.06,6.84,6.84,6.83
50.46,6.67,-0.13,6.67,-0.13,0.15,0.08,-0.01,6.82,6.83,6.80
50.96,6.73,-0.04,6.71,-0.05,0.09,0.04,-0.07,6.81,6.80,6.76
51.47,6.73,-0.01,6.73,0.00,0.03,-0.01,-0.14,6.75,6.75,6.73
51.99,6.73,0.04,6.73,0.04,-0.03,-0.05,-0.21,6.70,6.70,6.69
52.51,6.73,0.07,6.73,0.07,-0.08,-0.10,-0.27,6.65,6.65,6.65
53.03,6.73,0.09,6.73,0.10,-0.12,-0.14,-0.33,6.61,6.61,6.63
53.56,6.73,0.14,6.73,0.14,-0.15,-0.18,-0.40,6.58,6.58,6.59
54.10,6.73,0.18,6.73,0.18,-0.18,-0.23,-0.46,6.54,6.54,6.54
54.64,6.73,0.22,6.73,0.22,-0.21,-0.27,-0.52,6.51,6.51,6.51
55.18,6.73,0.27,6.73,0.26,-0.25,-0.31,-0.58,6.47,6.47,6.46
55.74,6.73,0.30,6.72,0.29,-0.30,-0.36,-0.63,6.43,6.42,6.42
56.29,6.73,0.33,6.72,0.33,-0.35,-0.40,-0.69,6.38,6.38,6.40
56.86,6.73,0.36,6.74,0.38,-0.40,-0.45,-0.74,6.33,6.34,6.37
57.42,6.77,0.45,6.77,0.44,-0.45,-0.49,-0.79,6.31,6.32,6.32
58.00,6.83,0.52,6.81,0.51,-0.51,-0.53,-0.85,6.32,6.30,6.30
58.58,6.86,0.57,6.86,0.58,-0.57,-0.58,-0.89,6.29,6.29,6.28
59.16,6.90,0.64,6.89,0.64,-0.63,-0.62,-0.94,6.27,6.26,6.25
59.76,6.92,0.70,6.91,0.70,-0.69,-0.66,-0.99,6.22,6.22,6.22
60.35,6.93,0.76,6.92,0.75,-0.75,-0.71,-1.03,6.17,6.17,6.17
60.96,6.93,0.80,6.93,0.80,-0.81,-0.75,-1.07,6.12,6.12,6.13
61.57,6.93,0.85,6.93,0.85,-0.86,-0.79,-1.11,6.07,6.07,6.07
62.18,6.93,0.91,6.93,0.91,-0.91,-0.83,-1.15,6.02,6.02,6.02
62.80,6.93,0.96,6.93,0.96,-0.95,-0.88,-1.18,5.97,5.97,5.97
63.43,6.93,1.01,6.93,1.00,-1.00,-0.92,-1.22,5.93,5.93,5.92
64.07,6.93,1.04,6.93,1.04,-1.04,-0.96,-1.25,5.88,5.88,5.88
64.71,6.93,1.09,6.93,1.09,-1.09,-1.01,-1.28,5.84,5.84,5.84
65.35,6.93,1.13,6.93,1.13,-1.13,-1.05,-1.31,5.80,5.80,5.80
66.01,6.93,1.17,6.93,1.17,-1.17,-1.09,-1.34,5.75,5.75,5.75
66.67,6.93,1.20,6.93,1.21,-1.21,-1.14,-1.36,5.71,5.71,5.72
67.33,6.93,1.26,6.93,1.26,-1.26,-1.18,-1.39,5.67,5.67,5.66
68.01,6.93,1.30,6.93,1.30,-1.30,-1.22,-1.41,5.62,5.62,5.62
68.69,6.93,1.35,6.93,1.35,-1.35,-1.26,-1.43,5.58,5.58,5.57
69.37,6.93,1.39,6.93,1.39,-1.39,-1.31,-1.45,5.53,5.53,5.54
70.07,6.93,1.44,6.93,1.44,-1.44,-1.35,-1.48,5.49,5.49,5.49
70.77,6.93,1.48,6.93,1.48,-1.49,-1.39,-1.50,5.44,5.44,5.44
71.48,6.93,1.53,6.93,1.53,-1.53,-1.43,-1.52,5.39,5.39,5.40
72.19,6.93,1.58,6.93,1.58,-1.58,-1.48,-1.54,5.34,5.34,5.34
72.91,6.93,1.63,6.93,1.63,-1.63,-1.52,-1.55,5.30,5.30,5.30
73.64,6.93,1.68,6.93,1.68,-1.67,-1.56,-1.57,5.25,5.25,5.25
74.38,6.93,1.71,6.93,1.72,-1.72,-1.60,-1.59,5.21,5.21,5.21
75.12,6.93,1.76,6.93,1.76,-1.76,-1.65,-1.61,5.17,5.17,5.16
75.87,6.93,1.79,6.93,1.80,-1.80,-1.69,-1.64,5.13,5.13,5.13
76.63,6.93,1.83,6.93,1.83,-1.83,-1.73,-1.66,5.09,5.09,5.09
77.40,6.93,1.87,6.93,1.87,-1.87,-1.77,-1.68,5.06,5.06,5.06
78.17,6.93,1.91,6.93,1.90,-1.90,-1.81,-1.70,5.02,5.02,5.02
78.95,6.93,1.93,6.93,1.93,-1.93,-1.86,-1.73,4.99,4.99,4.99
79.74,6.93,1.97,6.93,1.97,-1.97,-1.90,-1.75,4.96,4.96,4.96
80.54,6.93,2.00,6.93,2.00,-2.00,-1.94,-1.78,4.93,4.93,4.92
81.35,6.93,2.04,6.93,2.03,-2.03,-1.98,-1.80,4.89,4.89,4.89
82.16,6.93,2.06,6.93,2.07,-2.07,-2.02,-1.83,4.86,4.86,4.86
82.98,6.93,2.10,6.93,2.10,-2.10,-2.06,-1.86,4.82,4.82,4.83
83.81,6.93,2.14,6.93,2.14,-2.14,-2.10,-1.89,4.79,4.79,4.79
84.65,6.93,2.18,6.93,2.18,-2.18,-2.14,-1.93,4.75,4.75,4.75
85.50,6.93,2.23,6.93,2.22,-2.21,-2.19,-1.96,4.71,4.71,4.70
86.35,6.93,2.26,6.93,2.26,-2.25,-2.23,-2.00,4.67,4.67,4.67
87.22,6.93,2.29,6.93,2.29,-2.29,-2.27,-2.04,4.63,4.63,4.64
88.09,6.93,2.33,6.93,2.33,-2.33,-2.31,-2.07,4.60,4.60,4.60
88.97,6.93,2.36,6.93,2.37,-2.37,-2.35,-2.12,4.56,4.56,4.56
89.86,6.93,2.41,6.93,2.41,-2.41,-2.39,-2.16,4.52,4.52,4.51
90.76,6.93,2.45,6.93,2.45,-2.45,-2.43,-2.20,4.47,4.47,4.48
91.66,6.93,2.50,6.93,2.50,-2.50,-2.47,-2.25,4.43,4.43,4.42
92.58,6.93,2.54,6.93,2.54,-2.55,-2.51,-2.30,4.38,4.38,4.39
93.51,6.93,2.58,6.93,2.58,-2.60,-2.55,-2.34,4.33,4.33,4.34
94.44,6.93,2.63,6.93,2.63,-2.64,-2.58,-2.39,4.28,4.28,4.30
95.39,6.93,2.68,6.93,2.68,-2.68,-2.62,-2.45,4.24,4.24,4.24
96.34,6.93,2.74,6.93,2.74,-2.72,-2.66,-2.50,4.21,4.21,4.19
97.30,6.92,2.78,6.91,2.78,-2.75,-2.70,-2.56,4.17,4.16,4.13
98.28,6.89,2.81,6.87,2.80,-2.77,-2.74,-2.61,4.12,4.11,4.07
99.26,6.80,2.79,6.81,2.80,-2.79,-2.78,-2.67,4.01,4.02,4.01
100.25,6.76,2.81,6.74,2.78,-2.80,-2.81,-2.73,3.95,3.94,3.95
101.25,6.66,2.75,6.68,2.78,-2.82,-2.85,-2.78,3.84,3.86,3.90
102.27,6.65,2.80,6.65,2.80,-2.83,-2.89,-2.84,3.82,3.82,3.84
103.29,6.64,2.85,6.62,2.83,-2.85,-2.92,-2.90,3.79,3.78,3.79
104.32,6.62,2.88,6.61,2.88,-2.87,-2.96,-2.96,3.74,3.74,3.74
105.37,6.59,2.90,6.59,2.91,-2.90,-2.99,-3.02,3.69,3.69,3.68
106.42,6.57,2.94,6.57,2.94,-2.94,-3.03,-3.08,3.63,3.63,3.62
107.48,6.55,2.99,6.54,2.98,-2.97,-3.06,-3.14,3.57,3.57,3.56
108.56,6.52,3.00,6.52,3.01,-3.01,-3.10,-3.20,3.50,3.51,3.52
109.64,6.50,3.04,6.49,3.04,-3.05,-3.13,-3.26,3.45,3.45,3.46
110.74,6.48,3.07,6.47,3.07,-3.07,-3.17,-3.32,3.40,3.40,3.40
111.85,6.46,3.10,6.46,3.11,-3.10,-3.20,-3.37,3.36,3.37,3.36
112.97,6.45,3.14,6.45,3.14,-3.11,-3.23,-3.42,3.33,3.33,3.31
114.10,6.44,3.17,6.41,3.16,-3.13,-3.27,-3.47,3.30,3.28,3.26
115.24,6.37,3.16,6.36,3.16,-3.15,-3.30,-3.52,3.22,3.21,3.21
116.39,6.30,3.15,6.31,3.15,-3.17,-3.33,-3.56,3.13,3.14,3.15
117.55,6.26,3.14,6.26,3.16,-3.19,-3.36,-3.60,3.07,3.08,3.11
118.73,6.26,3.20,6.25,3.18,-3.21,-3.39,-3.64,3.05,3.04,3.06
119.92,6.26,3.23,6.25,3.23,-3.24,-3.42,-3.68,3.02,3.02,3.02
121.12,6.27,3.27,6.27,3.27,-3.27,-3.45,-3.71,2.99,2.99,3.00
122.33,6.28,3.32,6.27,3.31,-3.32,-3.48,-3.73,2.96,2.96,2.96
123.55,6.29,3.36,6.28,3.36,-3.36,-3.51,-3.76,2.93,2.92,2.92
124.79,6.29,3.39,6.29,3.40,-3.40,-3.53,-3.77,2.89,2.89,2.89
126.03,6.30,3.45,6.30,3.45,-3.43,-3.56,-3.79,2.87,2.87,2.85
127.29,6.31,3.50,6.29,3.48,-3.45,-3.59,-3.80,2.85,2.84,2.81
128.57,6.28,3.51,6.26,3.50,-3.47,-3.61,-3.80,2.81,2.79,2.77
129.85,6.22,3.49,6.22,3.49,-3.49,-3.64,-3.80,2.73,2.73,2.73
131.15,6.16,3.47,6.17,3.48,-3.50,-3.66,-3.80,2.65,2.67,2.69
132.46,6.14,3.48,6.14,3.49,-3.52,-3.68,-3.79,2.62,2.62,2.65
133.79,6.13,3.51,6.13,3.51,-3.54,-3.71,-3.78,2.58,2.59,2.61
135.12,6.14,3.56,6.13,3.55,-3.56,-3.73,-3.77,2.57,2.57,2.58
136.48,6.14,3.58,6.13,3.59,-3.59,-3.75,-3.76,2.55,2.54,2.55
137.84,6.14,3.62,6.14,3.63,-3.62,-3.77,-3.74,2.52,2.53,2.52
139.22,6.14,3.67,6.13,3.66,-3.64,-3.79,-3.72,2.50,2.50,2.46
140.61,6.14,3.70,6.12,3.69,-3.66,-3.81,-3.70,2.48,2.47,2.44
142.02,6.08,3.68,6.09,3.70,-3.67,-3.83,-3.67,2.41,2.42,2.40
143.44,6.06,3.70,6.04,3.68,-3.68,-3.85,-3.65,2.38,2.36,2.35
144.87,5.99,3.66,5.99,3.67,-3.69,-3.86,-3.62,2.29,2.30,2.32
146.32,5.95,3.65,5.96,3.67,-3.70,-3.88,-3.60,2.24,2.25,2.29
147.78,5.94,3.68,5.93,3.68,-3.72,-3.90,-3.57,2.22,2.22,2.25
149.26,5.94,3.72,5.93,3.72,-3.73,-3.91,-3.55,2.20,2.20,2.21
150.75,5.94,3.77,5.94,3.77,-3.75,-3.92,-3.52,2.19,2.19,2.17
152.26,5.94,3.79,5.94,3.80,-3.76,-3.94,-3.50,2.17,2.17,2.14
153.78,5.94,3.83,5.92,3.82,-3.78,-3.95,-3.47,2.15,2.14,2.10
155.32,5.89,3.82,5.89,3.82,-3.80,-3.96,-3.45,2.08,2.09,2.07
156.88,5.85,3.82,5.83,3.81,-3.82,-3.97,-3.43,2.03,2.01,2.03
158.44,5.77,3.78,5.78,3.79,-3.83,-3.98,-3.41,1.93,1.95,1.98
160.03,5.74,3.80,5.75,3.81,-3.84,-3.99,-3.40,1.89,1.91,1.94
161.63,5.74,3.84,5.73,3.84,-3.85,-4.00,-3.38,1.89,1.89,1.90
163.24,5.74,3.89,5.73,3.88,-3.85,-4.00,-3.37,1.88,1.88,1.85
164.88,5.72,3.91,5.70,3.89,-3.86,-4.01,-3.36,1.86,1.84,1.81
166.53,5.65,3.89,5.64,3.88,-3.87,-4.01,-3.35,1.78,1.77,1.76
168.19,5.57,3.84,5.58,3.86,-3.87,-4.02,-3.34,1.69,1.70,1.72
169.87,5.52,3.84,5.53,3.86,-3.87,-4.02,-3.34,1.64,1.66,1.67
171.57,5.51,3.88,5.50,3.87,-3.87,-4.02,-3.34,1.63,1.63,1.63
173.29,5.49,3.91,5.47,3.88,-3.87,-4.02,-3.34,1.62,1.60,1.58
175.02,5.42,3.87,5.42,3.88,-3.87,-4.02,-3.34,1.55,1.55,1.54
176.77,5.36,3.86,5.36,3.86,-3.88,-4.02,-3.35,1.48,1.48,1.50
178.54,5.31,3.85,5.32,3.86,-3.89,-4.02,-3.36,1.42,1.43,1.46
180.32,5.30,3.88,5.30,3.89,-3.90,-4.02,-3.37,1.40,1.41,1.41
182.13,5.31,3.92,5.30,3.92,-3.90,-4.02,-3.38,1.40,1.39,1.38
183.95,5.31,3.96,5.29,3.95,-3.91,-4.01,-3.40,1.39,1.38,1.35
185.79,5.27,3.96,5.26,3.95,-3.93,-4.01,-3.42,1.34,1.33,1.31
187.65,5.23,3.95,5.22,3.94,-3.95,-4.00,-3.44,1.27,1.27,1.28
189.52,5.17,3.93,5.18,3.94,-3.97,-4.00,-3.46,1.19,1.21,1.24
191.42,5.17,3.95,5.17,3.96,-3.99,-3.99,-3.49,1.17,1.18,1.22
193.33,5.18,4.00,5.18,4.00,-4.01,-3.98,-3.52,1.17,1.17,1.18
195.27,5.20,4.05,5.18,4.04,-4.02,-3.97,-3.55,1.17,1.16,1.14
197.22,5.19,4.08,5.18,4.07,-4.04,-3.96,-3.58,1.15,1.14,1.10
199.19,5.14,4.06,5.15,4.07,-4.05,-3.95,-3.62,1.08,1.09,1.08
201.18,5.12,4.07,5.11,4.06,-4.07,-3.94,-3.65,1.05,1.04,1.04
203.19,5.07,4.05,5.07,4.05,-4.07,-3.92,-3.69,0.99,1.00,1.02
205.23,5.04,4.04,5.05,4.06,-4.07,-3.91,-3.73,0.96,0.98,0.99
207.28,5.04,4.07,5.03,4.07,-4.06,-3.90,-3.77,0.97,0.97,0.97
209.35,5.02,4.08,5.00,4.06,-4.05,-3.88,-3.81,0.97,0.95,0.93
211.44,4.95,4.05,4.94,4.04,-4.03,-3.87,-3.85,0.91,0.91,0.90
213.56,4.88,4.00,4.89,4.02,-4.02,-3.85,-3.89,0.86,0.87,0.87
215.69,4.83,3.98,4.84,4.00,-4.00,-3.83,-3.93,0.83,0.84,0.84
217.85,4.82,4.00,4.79,3.98,-3.98,-3.81,-3.96,0.84,0.81,0.82
220.03,4.75,3.97,4.74,3.96,-3.96,-3.79,-4.00,0.79,0.78,0.78
222.23,4.68,3.92,4.68,3.92,-3.94,-3.77,-4.03,0.74,0.74,0.76
224.45,4.62,3.88,4.63,3.90,-3.91,-3.75,-4.07,0.70,0.72,0.74
226.70,4.61,3.89,4.61,3.89,-3.89,-3.73,-4.10,0.71,0.71,0.71
228.96,4.62,3.91,4.59,3.89,-3.88,-3.71,-4.12,0.74,0.72,0.70
231.25,4.56,3.86,4.56,3.87,-3.85,-3.69,-4.15,0.70,0.70,0.69
233.57,4.52,3.84,4.51,3.84,-3.83,-3.67,-4.17,0.69,0.68,0.67
235.90,4.45,3.78,4.47,3.80,-3.80,-3.64,-4.18,0.64,0.67,0.67
238.26,4.46,3.80,4.45,3.79,-3.78,-3.62,-4.20,0.67,0.67,0.66
240.64,4.44,3.77,4.42,3.76,-3.76,-3.59,-4.20,0.67,0.66,0.67
243.05,4.40,3.74,4.39,3.73,-3.74,-3.57,-4.20,0.65,0.65,0.66
245.48,4.35,3.69,4.36,3.71,-3.73,-3.54,-4.20,0.61,0.63,0.65
247.93,4.34,3.69,4.35,3.69,-3.72,-3.51,-4.19,0.62,0.63,0.64
250.41,4.36,3.70,4.35,3.70,-3.70,-3.48,-4.18,0.65,0.65,0.66
252.92,4.37,3.71,4.36,3.71,-3.69,-3.46,-4.15,0.68,0.67,0.66
255.45,4.36,3.71,4.35,3.69,-3.66,-3.43,-4.13,0.69,0.68,0.64
258.00,4.31,3.66,4.31,3.66,-3.63,-3.40,-4.10,0.67,0.67,0.65
260.58,4.25,3.61,4.25,3.61,-3.60,-3.37,-4.06,0.64,0.65,0.64
263.19,4.20,3.56,4.19,3.55,-3.56,-3.34,-4.02,0.63,0.62,0.63
265.82,4.12,3.50,4.12,3.50,-3.52,-3.31,-3.97,0.60,0.60,0.62
268.48,4.06,3.44,4.06,3.45,-3.47,-3.28,-3.92,0.58,0.59,0.61
271.16,4.01,3.41,4.01,3.41,-3.42,-3.25,-3.87,0.58,0.59,0.60
273.87,3.99,3.39,3.97,3.38,-3.38,-3.21,-3.81,0.61,0.59,0.59
276.61,3.92,3.34,3.91,3.34,-3.34,-3.18,-3.74,0.58,0.58,0.58
279.38,3.86,3.30,3.86,3.30,-3.30,-3.15,-3.68,0.56,0.57,0.55
282.17,3.81,3.25,3.81,3.26,-3.26,-3.11,-3.61,0.55,0.56,0.56
284.99,3.79,3.23,3.78,3.23,-3.22,-3.08,-3.54,0.56,0.56,0.55
287.84,3.75,3.19,3.74,3.19,-3.19,-3.05,-3.46,0.56,0.55,0.56
290.72,3.71,3.16,3.69,3.14,-3.16,-3.01,-3.39,0.55,0.53,0.54
293.63,3.63,3.08,3.65,3.10,-3.13,-2.98,-3.31,0.50,0.53,0.55
296.57,3.63,3.07,3.63,3.08,-3.10,-2.94,-3.23,0.53,0.54,0.56
299.53,3.65,3.09,3.63,3.07,-3.06,-2.90,-3.16,0.58,0.56,0.55
302.53,3.62,3.06,3.61,3.05,-3.03,-2.87,-3.08,0.59,0.58,0.56
305.55,3.58,3.02,3.57,3.02,-2.99,-2.83,-3.00,0.58,0.58,0.55
308.61,3.51,2.94,3.52,2.96,-2.95,-2.80,-2.92,0.55,0.56,0.56
311.69,3.47,2.92,3.46,2.91,-2.91,-2.76,-2.84,0.56,0.55,0.55
314.81,3.41,2.85,3.40,2.85,-2.86,-2.72,-2.76,0.54,0.54,0.55
317.96,3.34,2.79,3.35,2.80,-2.81,-2.68,-2.69,0.53,0.54,0.54
321.14,3.30,2.75,3.30,2.75,-2.75,-2.65,-2.61,0.54,0.55,0.55
324.35,3.28,2.73,3.25,2.70,-2.70,-2.61,-2.54,0.57,0.55,0.55
327.59,3.20,2.64,3.20,2.65,-2.65,-2.57,-2.46,0.54,0.54,0.55
330.87,3.14,2.58,3.15,2.60,-2.61,-2.53,-2.39,0.53,0.54,0.55
334.18,3.09,2.55,3.10,2.55,-2.56,-2.49,-2.32,0.53,0.54,0.54
337.52,3.08,2.53,3.06,2.51,-2.50,-2.45,-2.25,0.57,0.55,0.55
340.90,3.01,2.46,3.01,2.46,-2.44,-2.41,-2.18,0.56,0.57,0.54
344.30,2.96,2.40,2.96,2.41,-2.39,-2.37,-2.11,0.57,0.57,0.55
347.75,2.90,2.34,2.89,2.34,-2.33,-2.33,-2.05,0.56,0.56,0.56
351.23,2.83,2.28,2.82,2.27,-2.28,-2.29,-1.98,0.55,0.55,0.55
354.74,2.77,2.20,2.76,2.20,-2.23,-2.25,-1.92,0.54,0.53,0.57
358.28,2.70,2.13,2.71,2.15,-2.18,-2.21,-1.86,0.52,0.53,0.56
361.87,2.69,2.11,2.69,2.12,-2.13,-2.17,-1.80,0.55,0.56,0.57
365.49,2.70,2.11,2.68,2.10,-2.08,-2.13,-1.74,0.61,0.60,0.58
369.14,2.67,2.08,2.66,2.07,-2.04,-2.08,-1.69,0.63,0.62,0.59
372.83,2.62,2.02,2.61,2.02,-1.99,-2.04,-1.63,0.62,0.62,0.60
376.56,2.55,1.95,2.56,1.96,-1.95,-2.00,-1.58,0.59,0.61,0.60
380.33,2.51,1.91,2.50,1.90,-1.91,-1.96,-1.53,0.60,0.59,0.59
384.13,2.45,1.84,2.44,1.84,-1.86,-1.92,-1.48,0.59,0.58,0.60
387.97,2.38,1.77,2.39,1.79,-1.81,-1.87,-1.43,0.57,0.58,0.60
391.85,2.35,1.74,2.35,1.75,-1.76,-1.83,-1.38,0.59,0.60,0.60
395.77,2.33,1.74,2.31,1.71,-1.70,-1.79,-1.33,0.62,0.60,0.59
399.73,2.27,1.68,2.27,1.67,-1.65,-1.74,-1.29,0.61,0.61,0.59
403.72,2.20,1.60,2.20,1.62,-1.61,-1.70,-1.24,0.59,0.59,0.60
407.76,2.15,1.57,2.13,1.55,-1.56,-1.65,-1.20,0.59,0.57,0.58
411.84,2.06,1.48,2.07,1.50,-1.51,-1.61,-1.15,0.55,0.56,0.58
415.96,2.03,1.45,2.02,1.45,-1.46,-1.56,-1.11,0.57,0.57,0.57
420.12,1.98,1.41,1.97,1.40,-1.40,-1.52,-1.07,0.58,0.57,0.56
424.32,1.94,1.36,1.93,1.36,-1.34,-1.47,-1.03,0.59,0.59,0.57
428.56,1.88,1.28,1.88,1.30,-1.28,-1.43,-0.99,0.59,0.60,0.59
432.85,1.85,1.23,1.84,1.23,-1.23,-1.38,-0.95,0.62,0.61,0.61
437.18,1.80,1.18,1.80,1.17,-1.17,-1.34,-0.91,0.62,0.63,0.62
441.55,1.77,1.11,1.77,1.11,-1.12,-1.29,-0.87,0.64,0.65,0.66
445.96,1.77,1.07,1.75,1.05,-1.08,-1.24,-0.83,0.69,0.67,0.70
450.42,1.74,1.00,1.75,1.01,-1.04,-1.19,-0.80,0.70,0.71,0.74
454.93,1.77,0.98,1.78,0.99,-1.00,-1.15,-0.76,0.77,0.78,0.79
459.48,1.83,0.98,1.81,0.96,-0.96,-1.10,-0.72,0.86,0.85,0.85
464.07,1.86,0.94,1.85,0.94,-0.92,-1.05,-0.69,0.94,0.93,0.92
468.71,1.87,0.90,1.87,0.90,-0.87,-1.00,-0.65,0.99,1.00,0.96
473.40,1.86,0.83,1.86,0.84,-0.81,-0.95,-0.61,1.04,1.05,1.02
478.13,1.86,0.77,1.85,0.77,-0.75,-0.90,-0.57,1.11,1.10,1.08
482.91,1.83,0.69,1.82,0.69,-0.68,-0.85,-0.53,1.15,1.14,1.13
487.74,1.79,0.61,1.78,0.60,-0.61,-0.80,-0.50,1.18,1.17,1.17
492.62,1.72,0.50,1.72,0.51,-0.54,-0.74,-0.46,1.17,1.18,1.21
497.55,1.68,0.42,1.68,0.43,-0.48,-0.69,-0.42,1.20,1.20,1.25
502.52,1.66,0.38,1.66,0.39,-0.42,-0.64,-0.38,1.24,1.24,1.27
507.55,1.66,0.35,1.66,0.36,-0.37,-0.58,-0.34,1.29,1.30,1.30
512.62,1.68,0.36,1.65,0.34,-0.32,-0.53,-0.30,1.36,1.33,1.31
517.75,1.62,0.30,1.62,0.30,-0.27,-0.47,-0.26,1.34,1.34,1.32
522.93,1.56,0.24,1.56,0.24,-0.23,-0.42,-0.22,1.33,1.33,1.32
528.16,1.48,0.18,1.48,0.18,-0.18,-0.36,-0.18,1.30,1.30,1.30
533.44,1.40,0.12,1.40,0.12,-0.12,-0.30,-0.14,1.28,1.28,1.28
538.77,1.32,0.07,1.30,0.05,-0.05,-0.24,-0.09,1.27,1.25,1.25
544.16,1.20,-0.03,1.21,-0.02,0.03,-0.18,-0.05,1.22,1.23,1.23
549.60,1.10,-0.10,1.10,-0.10,0.11,-0.12,-0.00,1.20,1.20,1.20
555.10,1.00,-0.17,0.98,-0.18,0.19,-0.06,0.04,1.18,1.17,1.17
