frequency,raw
20,-30.06
21,-29.19
22,-28.34
23,-27.53
24,-26.74
25,-25.98
26,-25.24
27,-24.53
28,-23.86
29,-23.20
30,-22.58
31,-21.99
32,-21.40
33,-20.86
34,-20.34
35,-19.86
36,-19.41
37,-18.99
38,-18.57
39,-18.19
40,-17.82
41,-17.45
42,-17.10
43,-16.74
44,-16.39
45,-16.05
46,-15.71
47,-15.36
48,-15.03
49,-14.70
50,-14.36
51,-14.04
52,-13.70
53,-13.38
54,-13.07
55,-12.75
56,-12.45
57,-12.14
58,-11.86
59,-11.59
60,-11.31
61,-11.05
62,-10.81
63,-10.56
64,-10.34
65,-10.14
66,-9.92
67,-9.74
68,-9.55
69,-9.37
70,-9.19
71,-9.02
72,-8.85
73,-8.69
74,-8.53
75,-8.36
76,-8.22
77,-8.06
78,-7.92
79,-7.78
80,-7.62
81,-7.47
82,-7.33
83,-7.19
84,-7.06
85,-6.93
86,-6.80
87,-6.68
88,-6.55
89,-6.44
90,-6.32
91,-6.22
92,-6.12
93,-6.02
94,-5.94
95,-5.86
96,-5.79
97,-5.71
98,-5.63
99,-5.55
100,-5.47
101,-5.41
102,-5.35
104,-5.29
105,-5.22
106,-5.16
107,-5.10
108,-5.04
109,-4.98
110,-4.92
111,-4.87
112,-4.81
113,-4.75
114,-4.69
115,-4.65
117,-4.61
118,-4.56
119,-4.51
120,-4.45
121,-4.41
123,-4.37
124,-4.32
125,-4.28
126,-4.23
128,-4.19
129,-4.16
130,-4.14
131,-4.12
133,-4.09
134,-4.07
135,-4.05
137,-4.04
138,-4.04
140,-4.04
141,-4.05
142,-4.06
144,-4.06
145,-4.06
147,-4.06
148,-4.06
150,-4.06
151,-4.05
153,-4.04
154,-4.04
156,-4.04
157,-4.05
159,-4.06
160,-4.09
162,-4.11
164,-4.14
165,-4.18
167,-4.21
169,-4.23
170,-4.26
172,-4.29
174,-4.33
175,-4.37
177,-4.41
179,-4.45
181,-4.48
183,-4.50
184,-4.51
186,-4.54
188,-4.59
190,-4.64
192,-4.69
194,-4.74
196,-4.78
198,-4.82
200,-4.86
202,-4.90
204,-4.94
206,-4.99
208,-5.03
210,-5.08
212,-5.13
214,-5.17
216,-5.21
218,-5.25
221,-5.28
223,-5.31
225,-5.36
227,-5.40
229,-5.46
232,-5.51
234,-5.56
236,-5.61
239,-5.65
241,-5.69
244,-5.74
246,-5.81
248,-5.87
251,-5.93
253,-5.98
256,-6.02
259,-6.07
261,-6.12
264,-6.18
266,-6.25
269,-6.30
272,-6.36
274,-6.41
277,-6.46
280,-6.51
283,-6.54
286,-6.57
288,-6.60
291,-6.62
294,-6.65
297,-6.69
300,-6.72
303,-6.76
306,-6.78
309,-6.80
312,-6.83
316,-6.87
319,-6.90
322,-6.93
325,-6.95
328,-6.98
332,-6.99
335,-7.00
338,-6.98
342,-6.97
345,-6.96
349,-6.96
352,-6.98
356,-7.00
359,-7.03
363,-7.04
366,-7.07
370,-7.10
374,-7.14
377,-7.19
381,-7.24
385,-7.29
389,-7.34
393,-7.39
397,-7.44
401,-7.49
405,-7.54
409,-7.59
413,-7.62
417,-7.67
421,-7.72
425,-7.78
430,-7.84
434,-7.89
438,-7.93
443,-7.97
447,-8.01
451,-8.07
456,-8.13
460,-8.19
465,-8.24
470,-8.29
474,-8.34
479,-8.38
484,-8.42
489,-8.46
494,-8.51
499,-8.55
504,-8.58
509,-8.62
514,-8.67
519,-8.72
524,-8.76
529,-8.79
535,-8.82
540,-8.85
545,-8.89
551,-8.91
556,-8.93
562,-8.93
568,-8.93
573,-8.91
579,-8.88
585,-8.84
591,-8.80
596,-8.76
602,-8.71
608,-8.66
615,-8.59
621,-8.53
627,-8.45
633,-8.37
639,-8.28
646,-8.17
652,-8.06
659,-7.93
665,-7.78
672,-7.61
679,-7.43
686,-7.24
692,-7.05
699,-6.85
706,-6.64
713,-6.42
721,-6.21
728,-5.99
735,-5.76
742,-5.53
750,-5.30
757,-5.07
765,-4.84
773,-4.61
780,-4.38
788,-4.13
796,-3.89
804,-3.65
812,-3.42
820,-3.21
828,-3.00
837,-2.78
845,-2.59
853,-2.40
862,-2.22
871,-2.03
879,-1.86
888,-1.69
897,-1.52
906,-1.36
915,-1.20
924,-1.05
933,-0.90
943,-0.76
952,-0.61
962,-0.47
971,-0.35
981,-0.23
991,-0.11
1001,0.01
1011,0.12
1021,0.23
1031,0.34
1041,0.44
1052,0.54
1062,0.65
1073,0.74
1084,0.82
1094,0.90
1105,0.96
1116,1.01
1128,1.06
1139,1.09
1150,1.12
1162,1.14
1173,1.14
1185,1.15
1197,1.16
1209,1.15
1221,1.14
1233,1.13
1246,1.13
1258,1.13
1271,1.13
1283,1.13
1296,1.13
1309,1.13
1322,1.13
1335,1.13
1349,1.13
1362,1.13
1376,1.13
1390,1.13
1404,1.13
1418,1.13
1432,1.14
1446,1.15
1461,1.16
1475,1.15
1490,1.14
1505,1.14
1520,1.12
1535,1.10
1550,1.08
1566,1.05
1582,1.00
1597,0.94
1613,0.87
1629,0.78
1646,0.68
1662,0.57
1679,0.46
1696,0.33
1713,0.19
1730,0.04
1747,-0.11
1764,-0.28
1782,-0.47
1800,-0.66
1818,-0.86
1836,-1.06
1854,-1.28
1873,-1.49
1892,-1.70
1911,-1.92
1930,-2.15
1949,-2.38
1969,-2.63
1988,-2.87
2008,-3.10
2028,-3.32
2048,-3.53
2069,-3.73
2090,-3.95
2111,-4.16
2132,-4.36
2153,-4.55
2175,-4.74
2196,-4.92
2218,-5.10
2240,-5.25
2263,-5.40
2285,-5.51
2308,-5.62
2331,-5.71
2355,-5.79
2378,-5.86
2402,-5.93
2426,-5.99
2450,-6.05
2475,-6.11
2500,-6.18
2525,-6.27
2550,-6.39
2575,-6.51
2601,-6.66
2627,-6.84
2653,-7.04
2680,-7.27
2707,-7.52
2734,-7.79
2761,-8.07
2789,-8.37
2817,-8.71
2845,-9.05
2873,-9.42
2902,-9.80
2931,-10.19
2960,-10.60
2990,-11.01
3020,-11.41
3050,-11.79
3080,-12.15
3111,-12.48
3142,-12.76
3174,-13.00
3206,-13.19
3238,-13.34
3270,-13.44
3303,-13.48
3336,-13.47
3369,-13.42
3403,-13.34
3437,-13.22
3471,-13.06
3506,-12.88
3541,-12.67
3576,-12.44
3612,-12.20
3648,-11.95
3685,-11.68
3721,-11.42
3759,-11.16
3796,-10.88
3834,-10.60
3873,-10.34
3911,-10.09
3950,-9.84
3990,-9.60
4030,-9.37
4070,-9.16
4111,-8.97
4152,-8.81
4193,-8.67
4235,-8.54
4278,-8.43
4321,-8.35
4364,-8.31
4407,-8.30
4451,-8.31
4496,-8.38
4541,-8.46
4586,-8.59
4632,-8.75
4679,-8.94
4725,-9.19
4773,-9.47
4820,-9.78
4868,-10.14
4917,-10.55
4966,-11.00
5016,-11.49
5066,-12.02
5117,-12.57
5168,-13.13
5220,-13.69
5272,-14.23
5325,-14.74
5378,-15.19
5432,-15.57
5486,-15.86
5541,-16.06
5596,-16.16
5652,-16.13
5709,-16.00
5766,-15.78
5823,-15.45
5882,-15.03
5940,-14.55
6000,-14.02
6060,-13.46
6120,-12.88
6182,-12.30
6244,-11.73
6306,-11.18
6369,-10.65
6433,-10.14
6497,-9.66
6562,-9.22
6628,-8.80
6694,-8.41
6761,-8.04
6828,-7.69
6897,-7.36
6966,-7.05
7035,-6.76
7106,-6.47
7177,-6.20
7249,-5.94
7321,-5.69
7394,-5.46
7468,-5.23
7543,-5.00
7618,-4.77
7694,-4.53
7771,-4.29
7849,-4.05
7928,-3.81
8007,-3.56
8087,-3.29
8168,-3.02
8250,-2.75
8332,-2.49
8415,-2.23
8499,-1.96
8584,-1.70
8670,-1.45
8757,-1.21
8845,-0.98
8933,-0.76
9022,-0.55
9113,-0.36
9204,-0.19
9296,-0.03
9389,0.10
9483,0.21
9577,0.32
9673,0.41
9770,0.49
9868,0.54
9966,0.57
10066,0.56
10167,0.53
10268,0.47
10371,0.39
10475,0.29
10579,0.15
10685,-0.01
10792,-0.19
10900,-0.39
11009,-0.59
11119,-0.81
11230,-1.03
11343,-1.25
11456,-1.46
11571,-1.66
11686,-1.83
11803,-2.00
11921,-2.16
12040,-2.34
12161,-2.53
12282,-2.75
12405,-3.00
12529,-3.29
12655,-3.61
12781,-3.97
12909,-4.37
13038,-4.79
13168,-5.25
13300,-5.72
13433,-6.21
13567,-6.71
13703,-7.21
13840,-7.70
13978,-8.18
14118,-8.64
14259,-9.08
14402,-9.50
14546,-9.90
14692,-10.29
14838,-10.66
14987,-11.01
15137,-11.32
15288,-11.60
15441,-11.85
15595,-12.06
15751,-12.22
15909,-12.35
16068,-12.45
16229,-12.51
16391,-12.53
16555,-12.51
16720,-12.45
16888,-12.36
17056,-12.25
17227,-12.10
17399,-11.95
17573,-11.81
17749,-11.66
17926,-11.51
18106,-11.36
18287,-11.24
18470,-11.13
18654,-11.03
18841,-10.93
19029,-10.83
19220,-10.74
19412,-10.65
19606,-10.57
19802,-10.49
20000,-10.42
