frequency,raw,smoothed,error,error_smoothed,equalization,parametric_eq,fixed_band_eq,equalized_raw,equalized_smoothed,target
20.00,14.77,14.77,4.35,4.35,-4.35,-4.72,-2.37,10.43,10.43,10.42
20.20,14.79,14.80,4.37,4.37,-4.37,-4.73,-2.44,10.42,10.42,10.42
20.40,14.82,14.82,4.40,4.40,-4.40,-4.73,-2.51,10.42,10.42,10.42
20.61,14.85,14.85,4.43,4.43,-4.43,-4.74,-2.58,10.42,10.42,10.42
20.81,14.87,14.88,4.45,4.46,-4.46,-4.75,-2.65,10.42,10.42,10.42
21.02,14.90,14.90,4.48,4.48,-4.48,-4.76,-2.73,10.42,10.42,10.42
21.23,14.93,14.93,4.51,4.51,-4.51,-4.77,-2.80,10.42,10.42,10.42
21.44,14.95,14.96,4.54,4.54,-4.54,-4.78,-2.88,10.42,10.42,10.42
21.66,14.98,14.98,4.57,4.56,-4.56,-4.78,-2.96,10.42,10.42,10.42
21.87,15.00,15.01,4.59,4.59,-4.59,-4.79,-3.05,10.41,10.42,10.42
22.09,15.03,15.03,4.62,4.61,-4.62,-4.80,-3.14,10.42,10.41,10.42
22.31,15.05,15.05,4.64,4.64,-4.64,-4.81,-3.23,10.41,10.41,10.41
22.54,15.07,15.08,4.66,4.66,-4.66,-4.82,-3.32,10.41,10.41,10.41
22.76,15.10,15.10,4.69,4.69,-4.69,-4.83,-3.41,10.42,10.41,10.41
22.99,15.12,15.12,4.71,4.71,-4.71,-4.84,-3.50,10.41,10.41,10.41
23.22,15.14,15.14,4.73,4.73,-4.73,-4.85,-3.60,10.41,10.41,10.41
23.45,15.16,15.16,4.75,4.75,-4.76,-4.86,-3.70,10.41,10.41,10.41
23.69,15.18,15.18,4.77,4.78,-4.78,-4.87,-3.81,10.40,10.41,10.41
23.92,15.20,15.21,4.80,4.80,-4.80,-4.88,-3.91,10.40,10.41,10.41
24.16,15.23,15.23,4.83,4.82,-4.82,-4.89,-4.02,10.41,10.41,10.41
24.40,15.25,15.25,4.85,4.85,-4.85,-4.91,-4.12,10.41,10.41,10.41
24.65,15.27,15.27,4.87,4.87,-4.87,-4.92,-4.23,10.40,10.41,10.40
24.89,15.29,15.29,4.89,4.89,-4.89,-4.93,-4.34,10.40,10.40,10.40
25.14,15.31,15.31,4.91,4.91,-4.91,-4.94,-4.46,10.40,10.40,10.40
25.39,15.33,15.33,4.93,4.93,-4.93,-4.95,-4.57,10.40,10.40,10.40
25.65,15.35,15.35,4.95,4.95,-4.96,-4.97,-4.68,10.40,10.40,10.40
25.91,15.37,15.37,4.98,4.98,-4.98,-4.98,-4.80,10.40,10.40,10.40
26.16,15.39,15.39,5.00,5.00,-5.00,-4.99,-4.91,10.39,10.39,10.40
26.43,15.41,15.41,5.02,5.02,-5.02,-5.01,-5.03,10.39,10.39,10.39
26.69,15.43,15.43,5.04,5.04,-5.04,-5.02,-5.14,10.39,10.39,10.39
26.96,15.45,15.45,5.06,5.06,-5.06,-5.04,-5.25,10.39,10.39,10.39
27.23,15.47,15.47,5.08,5.08,-5.08,-5.05,-5.36,10.39,10.39,10.39
27.50,15.49,15.49,5.11,5.10,-5.10,-5.06,-5.47,10.39,10.39,10.39
27.77,15.50,15.51,5.12,5.12,-5.12,-5.08,-5.57,10.38,10.38,10.38
28.05,15.52,15.52,5.14,5.14,-5.14,-5.10,-5.68,10.38,10.38,10.38
28.33,15.54,15.54,5.16,5.16,-5.16,-5.11,-5.77,10.38,10.38,10.38
28.62,15.56,15.56,5.18,5.18,-5.18,-5.13,-5.87,10.38,10.38,10.38
28.90,15.57,15.58,5.20,5.20,-5.20,-5.14,-5.95,10.37,10.38,10.38
29.19,15.59,15.59,5.22,5.22,-5.22,-5.16,-6.03,10.37,10.37,10.37
29.48,15.61,15.61,5.24,5.24,-5.24,-5.18,-6.11,10.37,10.37,10.37
29.78,15.62,15.63,5.25,5.26,-5.26,-5.20,-6.18,10.37,10.37,10.37
30.08,15.64,15.64,5.28,5.27,-5.27,-5.21,-6.24,10.37,10.37,10.37
30.38,15.65,15.66,5.29,5.29,-5.29,-5.23,-6.29,10.36,10.36,10.36
30.68,15.67,15.67,5.31,5.31,-5.31,-5.25,-6.34,10.36,10.36,10.36
30.99,15.68,15.68,5.33,5.33,-5.33,-5.27,-6.38,10.36,10.36,10.36
31.30,15.69,15.70,5.34,5.34,-5.34,-5.29,-6.40,10.35,10.36,10.35
31.61,15.71,15.71,5.36,5.36,-5.36,-5.31,-6.43,10.36,10.35,10.35
31.93,15.72,15.72,5.37,5.37,-5.37,-5.33,-6.44,10.35,10.35,10.35
32.24,15.73,15.73,5.39,5.39,-5.39,-5.35,-6.44,10.34,10.34,10.34
32.57,15.74,15.75,5.40,5.40,-5.41,-5.37,-6.44,10.34,10.34,10.34
32.89,15.76,15.76,5.43,5.42,-5.42,-5.39,-6.43,10.34,10.34,10.34
33.22,15.77,15.78,5.44,5.44,-5.44,-5.41,-6.41,10.33,10.33,10.33
33.55,15.79,15.79,5.46,5.46,-5.46,-5.43,-6.39,10.33,10.33,10.33
33.89,15.80,15.80,5.48,5.48,-5.48,-5.45,-6.36,10.33,10.33,10.33
34.23,15.81,15.81,5.49,5.49,-5.49,-5.47,-6.33,10.32,10.32,10.32
34.57,15.82,15.83,5.51,5.51,-5.51,-5.49,-6.29,10.31,10.32,10.32
34.92,15.84,15.84,5.53,5.53,-5.53,-5.51,-6.25,10.32,10.31,10.31
35.27,15.85,15.85,5.55,5.54,-5.54,-5.52,-6.20,10.31,10.31,10.31
35.62,15.86,15.86,5.56,5.56,-5.56,-5.54,-6.15,10.30,10.30,10.30
35.97,15.87,15.87,5.58,5.58,-5.57,-5.56,-6.10,10.30,10.30,10.30
36.33,15.88,15.88,5.59,5.59,-5.59,-5.58,-6.05,10.29,10.29,10.29
36.70,15.89,15.89,5.61,5.60,-5.60,-5.60,-6.00,10.29,10.29,10.29
37.06,15.89,15.90,5.61,5.62,-5.62,-5.61,-5.94,10.28,10.28,10.28
37.43,15.90,15.90,5.63,5.63,-5.63,-5.63,-5.89,10.27,10.27,10.28
37.81,15.91,15.91,5.64,5.64,-5.64,-5.64,-5.84,10.27,10.27,10.27
38.19,15.91,15.92,5.65,5.65,-5.65,-5.66,-5.79,10.26,10.26,10.26
38.57,15.92,15.92,5.67,5.66,-5.66,-5.67,-5.74,10.26,10.26,10.26
38.95,15.92,15.93,5.67,5.68,-5.68,-5.69,-5.69,10.25,10.25,10.25
39.34,15.93,15.93,5.69,5.69,-5.69,-5.70,-5.64,10.25,10.24,10.24
39.74,15.93,15.93,5.70,5.70,-5.70,-5.72,-5.60,10.23,10.24,10.24
40.14,15.94,15.94,5.71,5.71,-5.71,-5.73,-5.56,10.23,10.23,10.23
40.54,15.94,15.94,5.72,5.72,-5.73,-5.74,-5.52,10.22,10.22,10.22
40.94,15.95,15.95,5.74,5.74,-5.74,-5.75,-5.49,10.21,10.21,10.21
41.35,15.95,15.96,5.75,5.75,-5.75,-5.77,-5.46,10.20,10.20,10.20
41.76,15.96,15.96,5.77,5.77,-5.77,-5.78,-5.43,10.19,10.19,10.19
42.18,15.97,15.97,5.79,5.78,-5.78,-5.79,-5.41,10.19,10.19,10.19
42.60,15.97,15.98,5.80,5.80,-5.80,-5.80,-5.39,10.18,10.18,10.18
43.03,15.98,15.98,5.82,5.81,-5.81,-5.82,-5.37,10.17,10.17,10.17
43.46,15.98,15.98,5.83,5.83,-5.83,-5.83,-5.36,10.16,10.16,10.16
43.90,15.98,15.99,5.84,5.84,-5.84,-5.84,-5.35,10.14,10.15,10.15
44.33,15.99,15.99,5.86,5.85,-5.86,-5.85,-5.35,10.14,10.13,10.14
44.78,15.99,15.99,5.87,5.87,-5.87,-5.87,-5.35,10.13,10.12,10.12
45.23,15.99,15.99,5.88,5.88,-5.88,-5.88,-5.35,10.11,10.11,10.11
45.68,15.99,15.99,5.89,5.89,-5.89,-5.89,-5.36,10.10,10.10,10.10
46.13,15.99,15.99,5.91,5.90,-5.90,-5.90,-5.37,10.09,10.09,10.09
46.60,15.99,15.99,5.92,5.91,-5.92,-5.92,-5.38,10.08,10.07,10.08
47.06,15.98,15.99,5.92,5.92,-5.93,-5.93,-5.40,10.06,10.06,10.06
47.53,15.98,15.98,5.94,5.94,-5.94,-5.94,-5.43,10.05,10.05,10.05
48.01,15.98,15.98,5.95,5.95,-5.95,-5.96,-5.45,10.03,10.03,10.03
48.49,15.98,15.98,5.96,5.96,-5.96,-5.97,-5.48,10.02,10.02,10.02
48.97,15.97,15.98,5.97,5.97,-5.97,-5.99,-5.51,10.00,10.00,10.00
49.46,15.97,15.97,5.99,5.98,-5.98,-6.00,-5.55,9.99,9.99,9.99
49.96,15.96,15.97,5.99,6.00,-6.00,-6.01,-5.59,9.97,9.97,9.97
50.46,15.96,15.96,6.01,6.01,-6.01,-6.03,-5.63,9.95,9.95,9.95
50.96,15.96,15.96,6.03,6.02,-6.02,-6.04,-5.68,9.94,9.94,9.94
51.47,15.95,15.96,6.03,6.04,-6.04,-6.05,-5.72,9.92,9.92,9.92
51.99,15.95,15.95,6.05,6.05,-6.05,-6.07,-5.77,9.90,9.90,9.90
52.51,15.95,15.95,6.07,6.07,-6.07,-6.08,-5.82,9.88,9.88,9.88
53.03,15.94,15.95,6.08,6.09,-6.09,-6.10,-5.87,9.86,9.86,9.86
53.56,15.94,15.94,6.10,6.10,-6.10,-6.11,-5.93,9.84,9.84,9.84
54.10,15.94,15.94,6.12,6.12,-6.12,-6.12,-5.98,9.82,9.82,9.82
54.64,15.93,15.93,6.14,6.14,-6.14,-6.14,-6.03,9.80,9.80,9.80
55.18,15.92,15.93,6.15,6.15,-6.15,-6.15,-6.09,9.77,9.77,9.77
55.74,15.92,15.92,6.17,6.17,-6.17,-6.16,-6.14,9.75,9.75,9.75
56.29,15.91,15.91,6.19,6.19,-6.18,-6.18,-6.19,9.73,9.73,9.73
56.86,15.90,15.90,6.20,6.20,-6.20,-6.19,-6.24,9.70,9.70,9.70
57.42,15.89,15.89,6.22,6.21,-6.21,-6.20,-6.29,9.68,9.68,9.68
58.00,15.87,15.88,6.22,6.23,-6.23,-6.22,-6.33,9.65,9.65,9.65
58.58,15.86,15.86,6.24,6.24,-6.24,-6.23,-6.37,9.62,9.62,9.62
59.16,15.85,15.85,6.26,6.25,-6.26,-6.25,-6.41,9.60,9.59,9.59
59.76,15.83,15.84,6.27,6.27,-6.27,-6.26,-6.45,9.56,9.57,9.57
60.35,15.82,15.82,6.29,6.28,-6.29,-6.28,-6.48,9.54,9.54,9.54
60.96,15.80,15.81,6.30,6.30,-6.30,-6.30,-6.51,9.50,9.50,9.51
61.57,15.79,15.79,6.32,6.32,-6.32,-6.31,-6.54,9.47,9.47,9.47
62.18,15.78,15.78,6.34,6.34,-6.34,-6.33,-6.55,9.44,9.44,9.44
62.80,15.76,15.77,6.35,6.36,-6.36,-6.35,-6.57,9.40,9.41,9.41
63.43,15.75,15.75,6.38,6.38,-6.38,-6.37,-6.58,9.37,9.37,9.37
64.07,15.74,15.74,6.40,6.40,-6.40,-6.39,-6.59,9.34,9.34,9.34
64.71,15.72,15.73,6.42,6.42,-6.42,-6.42,-6.59,9.30,9.30,9.30
65.35,15.71,15.71,6.45,6.45,-6.45,-6.44,-6.59,9.27,9.27,9.27
66.01,15.70,15.70,6.48,6.47,-6.47,-6.47,-6.59,9.23,9.23,9.23
66.67,15.68,15.69,6.49,6.50,-6.50,-6.50,-6.58,9.19,9.19,9.19
67.33,15.67,15.67,6.52,6.52,-6.52,-6.52,-6.57,9.15,9.15,9.15
68.01,15.65,15.66,6.55,6.55,-6.55,-6.55,-6.55,9.10,9.11,9.11
68.69,15.64,15.64,6.58,6.58,-6.57,-6.58,-6.54,9.07,9.07,9.07
69.37,15.62,15.62,6.60,6.60,-6.60,-6.62,-6.52,9.02,9.02,9.02
70.07,15.60,15.60,6.62,6.63,-6.62,-6.65,-6.50,8.98,8.98,8.98
70.77,15.58,15.58,6.65,6.65,-6.65,-6.68,-6.48,8.93,8.93,8.93
71.48,15.56,15.56,6.68,6.68,-6.67,-6.71,-6.46,8.89,8.89,8.89
72.19,15.54,15.54,6.70,6.70,-6.70,-6.75,-6.44,8.84,8.84,8.84
72.91,15.51,15.52,6.72,6.73,-6.73,-6.78,-6.42,8.79,8.79,8.79
73.64,15.49,15.49,6.75,6.75,-6.75,-6.81,-6.40,8.74,8.74,8.74
74.38,15.47,15.47,6.78,6.78,-6.78,-6.85,-6.39,8.70,8.69,8.69
75.12,15.44,15.45,6.80,6.80,-6.80,-6.88,-6.37,8.64,8.64,8.64
75.87,15.42,15.42,6.83,6.83,-6.83,-6.91,-6.36,8.59,8.59,8.59
76.63,15.39,15.40,6.86,6.86,-6.86,-6.94,-6.35,8.53,8.53,8.54
77.40,15.37,15.37,6.89,6.89,-6.89,-6.98,-6.34,8.48,8.48,8.48
78.17,15.35,15.35,6.93,6.92,-6.92,-7.01,-6.33,8.43,8.43,8.43
78.95,15.32,15.33,6.95,6.96,-6.96,-7.04,-6.33,8.37,8.37,8.37
79.74,15.30,15.30,6.99,6.99,-6.99,-7.07,-6.33,8.31,8.31,8.31
80.54,15.27,15.27,7.02,7.02,-7.02,-7.10,-6.34,8.25,8.25,8.25
81.35,15.25,15.25,7.06,7.06,-7.06,-7.13,-6.34,8.20,8.19,8.19
82.16,15.22,15.23,7.09,7.09,-7.09,-7.16,-6.36,8.13,8.14,8.13
82.98,15.20,15.20,7.13,7.13,-7.12,-7.19,-6.38,8.08,8.08,8.07
83.81,15.17,15.17,7.16,7.16,-7.16,-7.22,-6.40,8.01,8.01,8.01
84.65,15.14,15.14,7.19,7.20,-7.19,-7.25,-6.42,7.95,7.95,7.95
85.50,15.11,15.11,7.23,7.23,-7.23,-7.27,-6.46,7.88,7.88,7.89
86.35,15.08,15.08,7.26,7.26,-7.26,-7.30,-6.49,7.82,7.82,7.82
87.22,15.05,15.05,7.30,7.30,-7.30,-7.33,-6.53,7.75,7.75,7.76
88.09,15.02,15.02,7.33,7.33,-7.33,-7.36,-6.58,7.69,7.69,7.69
88.97,14.99,14.99,7.37,7.37,-7.37,-7.38,-6.63,7.62,7.62,7.62
89.86,14.96,14.96,7.41,7.41,-7.41,-7.41,-6.68,7.56,7.56,7.56
90.76,14.93,14.93,7.45,7.44,-7.44,-7.43,-6.74,7.49,7.49,7.49
91.66,14.89,14.90,7.47,7.48,-7.48,-7.46,-6.80,7.42,7.42,7.42
92.58,14.86,14.86,7.51,7.51,-7.51,-7.49,-6.88,7.35,7.35,7.35
93.51,14.83,14.83,7.55,7.55,-7.55,-7.51,-6.95,7.28,7.28,7.28
94.44,14.79,14.80,7.58,7.59,-7.59,-7.54,-7.03,7.21,7.21,7.21
95.39,14.76,14.76,7.62,7.62,-7.62,-7.56,-7.11,7.14,7.14,7.14
96.34,14.73,14.73,7.67,7.66,-7.66,-7.59,-7.20,7.07,7.07,7.07
97.30,14.69,14.70,7.70,7.70,-7.70,-7.61,-7.29,6.99,7.00,7.00
98.28,14.66,14.66,7.74,7.74,-7.74,-7.64,-7.39,6.93,6.93,6.92
99.26,14.62,14.62,7.77,7.77,-7.77,-7.66,-7.49,6.85,6.85,6.85
100.25,14.59,14.59,7.81,7.81,-7.81,-7.68,-7.59,6.78,6.78,6.78
101.25,14.55,14.55,7.85,7.85,-7.85,-7.71,-7.69,6.70,6.71,6.71
102.27,14.52,14.52,7.89,7.89,-7.89,-7.73,-7.80,6.64,6.63,6.63
103.29,14.48,14.49,7.92,7.92,-7.93,-7.76,-7.91,6.56,6.56,6.56
104.32,14.45,14.45,7.96,7.96,-7.96,-7.78,-8.03,6.49,6.49,6.49
105.37,14.41,14.42,8.00,8.00,-8.00,-7.81,-8.14,6.41,6.42,6.42
106.42,14.38,14.38,8.04,8.04,-8.04,-7.83,-8.26,6.35,6.34,6.34
107.48,14.34,14.34,8.07,8.07,-8.07,-7.85,-8.37,6.27,6.27,6.27
108.56,14.30,14.30,8.11,8.11,-8.11,-7.88,-8.49,6.20,6.20,6.20
109.64,14.26,14.26,8.14,8.14,-8.14,-7.90,-8.60,6.12,6.12,6.12
110.74,14.22,14.22,8.17,8.17,-8.17,-7.93,-8.71,6.05,6.05,6.05
111.85,14.18,14.18,8.20,8.20,-8.20,-7.95,-8.82,5.98,5.98,5.98
112.97,14.13,14.14,8.23,8.23,-8.23,-7.97,-8.92,5.90,5.91,5.91
114.10,14.09,14.09,8.26,8.26,-8.26,-8.00,-9.02,5.84,5.83,5.84
115.24,14.04,14.05,8.28,8.28,-8.28,-8.02,-9.11,5.76,5.76,5.76
116.39,14.00,14.00,8.31,8.31,-8.31,-8.05,-9.20,5.69,5.69,5.69
117.55,13.95,13.96,8.33,8.33,-8.34,-8.07,-9.27,5.62,5.62,5.62
118.73,13.91,13.91,8.36,8.36,-8.36,-8.09,-9.34,5.55,5.55,5.55
119.92,13.87,13.87,8.39,8.39,-8.39,-8.12,-9.40,5.49,5.48,5.48
121.12,13.82,13.83,8.41,8.41,-8.41,-8.14,-9.45,5.41,5.42,5.41
122.33,13.78,13.78,8.44,8.43,-8.44,-8.17,-9.48,5.35,5.35,5.35
123.55,13.73,13.74,8.45,8.46,-8.46,-8.19,-9.51,5.27,5.28,5.28
124.79,13.69,13.69,8.48,8.48,-8.48,-8.21,-9.52,5.21,5.21,5.21
126.03,13.65,13.65,8.51,8.50,-8.50,-8.24,-9.53,5.15,5.15,5.15
127.29,13.60,13.61,8.52,8.53,-8.53,-8.26,-9.52,5.08,5.08,5.08
128.57,13.56,13.56,8.55,8.55,-8.54,-8.28,-9.50,5.02,5.02,5.02
129.85,13.51,13.52,8.56,8.56,-8.56,-8.30,-9.47,4.95,4.95,4.95
131.15,13.47,13.47,8.58,8.58,-8.58,-8.32,-9.43,4.89,4.89,4.89
132.46,13.42,13.42,8.60,8.60,-8.60,-8.35,-9.38,4.83,4.82,4.83
133.79,13.37,13.37,8.61,8.61,-8.61,-8.37,-9.32,4.76,4.76,4.77
135.12,13.32,13.33,8.62,8.62,-8.62,-8.39,-9.25,4.70,4.70,4.70
136.48,13.28,13.28,8.64,8.64,-8.63,-8.41,-9.18,4.65,4.65,4.65
137.84,13.23,13.23,8.65,8.65,-8.64,-8.43,-9.09,4.59,4.59,4.59
139.22,13.18,13.18,8.65,8.65,-8.65,-8.45,-9.01,4.53,4.53,4.53
140.61,13.12,13.13,8.65,8.65,-8.66,-8.46,-8.92,4.47,4.47,4.47
142.02,13.07,13.07,8.66,8.66,-8.66,-8.48,-8.82,4.41,4.41,4.42
143.44,13.02,13.02,8.66,8.66,-8.66,-8.50,-8.72,4.36,4.36,4.36
144.87,12.97,12.97,8.66,8.66,-8.66,-8.51,-8.63,4.31,4.31,4.31
146.32,12.92,12.92,8.67,8.66,-8.66,-8.53,-8.53,4.26,4.26,4.26
147.78,12.86,12.87,8.66,8.66,-8.66,-8.54,-8.43,4.20,4.21,4.20
149.26,12.81,12.81,8.66,8.66,-8.66,-8.56,-8.33,4.15,4.15,4.15
150.75,12.76,12.76,8.66,8.65,-8.66,-8.57,-8.23,4.11,4.10,4.10
152.26,12.70,12.71,8.65,8.65,-8.65,-8.58,-8.14,4.05,4.06,4.06
153.78,12.65,12.65,8.64,8.64,-8.64,-8.59,-8.05,4.01,4.01,4.01
155.32,12.60,12.60,8.64,8.64,-8.64,-8.60,-7.96,3.96,3.96,3.96
156.88,12.54,12.55,8.63,8.63,-8.63,-8.60,-7.87,3.91,3.92,3.92
158.44,12.49,12.49,8.62,8.62,-8.62,-8.61,-7.79,3.87,3.87,3.87
160.03,12.44,12.44,8.61,8.61,-8.62,-8.61,-7.71,3.83,3.82,3.83
161.63,12.38,12.39,8.61,8.61,-8.61,-8.61,-7.64,3.78,3.78,3.78
163.24,12.33,12.33,8.60,8.60,-8.60,-8.62,-7.56,3.74,3.74,3.73
164.88,12.28,12.28,8.59,8.59,-8.58,-8.62,-7.50,3.70,3.70,3.69
166.53,12.22,12.23,8.57,8.57,-8.57,-8.61,-7.44,3.65,3.66,3.66
168.19,12.17,12.17,8.56,8.55,-8.55,-8.61,-7.39,3.62,3.62,3.62
169.87,12.11,12.11,8.53,8.53,-8.53,-8.61,-7.33,3.58,3.58,3.58
171.57,12.05,12.05,8.51,8.51,-8.51,-8.60,-7.29,3.54,3.54,3.54
173.29,11.99,12.00,8.49,8.49,-8.49,-8.59,-7.25,3.50,3.51,3.51
175.02,11.94,11.94,8.47,8.47,-8.47,-8.58,-7.22,3.48,3.47,3.47
176.77,11.88,11.88,8.44,8.44,-8.44,-8.57,-7.19,3.44,3.44,3.44
178.54,11.82,11.82,8.42,8.42,-8.41,-8.55,-7.17,3.41,3.41,3.41
180.32,11.76,11.76,8.39,8.39,-8.39,-8.53,-7.15,3.38,3.38,3.38
182.13,11.70,11.70,8.36,8.36,-8.36,-8.52,-7.14,3.34,3.34,3.34
183.95,11.64,11.64,8.33,8.33,-8.33,-8.50,-7.13,3.31,3.31,3.31
185.79,11.58,11.58,8.30,8.30,-8.30,-8.47,-7.13,3.28,3.28,3.29
187.65,11.52,11.53,8.27,8.27,-8.27,-8.45,-7.13,3.25,3.26,3.26
189.52,11.47,11.47,8.24,8.24,-8.24,-8.42,-7.14,3.23,3.23,3.23
191.42,11.41,11.41,8.21,8.21,-8.21,-8.40,-7.15,3.20,3.20,3.20
193.33,11.35,11.35,8.18,8.18,-8.18,-8.37,-7.17,3.18,3.18,3.18
195.27,11.29,11.29,8.14,8.14,-8.14,-8.34,-7.19,3.15,3.15,3.15
197.22,11.23,11.23,8.11,8.11,-8.10,-8.30,-7.21,3.13,3.13,3.13
199.19,11.17,11.17,8.07,8.07,-8.07,-8.27,-7.24,3.11,3.10,3.10
201.18,11.10,11.11,8.02,8.03,-8.03,-8.23,-7.27,3.08,3.08,3.08
203.19,11.04,11.04,7.98,7.98,-7.99,-8.19,-7.31,3.06,3.06,3.06
205.23,10.98,10.98,7.95,7.94,-7.94,-8.15,-7.35,3.04,3.04,3.04
207.28,10.91,10.92,7.90,7.90,-7.90,-8.11,-7.39,3.01,3.02,3.02
209.35,10.85,10.85,7.86,7.86,-7.86,-8.06,-7.43,3.00,3.00,3.00
211.44,10.79,10.79,7.82,7.81,-7.81,-8.02,-7.48,2.98,2.98,2.98
213.56,10.72,10.73,7.77,7.77,-7.77,-7.97,-7.52,2.95,2.96,2.96
215.69,10.66,10.66,7.72,7.72,-7.72,-7.92,-7.57,2.94,2.94,2.94
217.85,10.60,10.60,7.68,7.68,-7.68,-7.87,-7.61,2.93,2.92,2.92
220.03,10.53,10.54,7.63,7.63,-7.63,-7.82,-7.65,2.90,2.91,2.91
222.23,10.47,10.47,7.58,7.58,-7.58,-7.76,-7.69,2.89,2.89,2.89
224.45,10.40,10.41,7.53,7.53,-7.53,-7.71,-7.73,2.87,2.87,2.87
226.70,10.34,10.34,7.49,7.48,-7.48,-7.65,-7.77,2.86,2.86,2.86
228.96,10.27,10.28,7.43,7.43,-7.43,-7.59,-7.80,2.84,2.84,2.84
231.25,10.21,10.21,7.39,7.38,-7.38,-7.53,-7.83,2.83,2.83,2.83
233.57,10.14,10.14,7.33,7.33,-7.33,-7.47,-7.85,2.81,2.81,2.81
235.90,10.07,10.08,7.28,7.28,-7.28,-7.41,-7.86,2.79,2.79,2.79
238.26,10.01,10.01,7.24,7.23,-7.23,-7.35,-7.87,2.78,2.78,2.78
240.64,9.94,9.94,7.18,7.18,-7.18,-7.28,-7.87,2.76,2.76,2.76
243.05,9.88,9.88,7.13,7.13,-7.13,-7.22,-7.86,2.75,2.75,2.75
245.48,9.81,9.82,7.07,7.08,-7.07,-7.15,-7.84,2.74,2.74,2.74
247.93,9.75,9.75,7.02,7.02,-7.02,-7.08,-7.82,2.73,2.73,2.73
250.41,9.68,9.68,6.96,6.96,-6.96,-7.02,-7.78,2.72,2.72,2.72
252.92,9.61,9.61,6.91,6.91,-6.90,-6.95,-7.74,2.71,2.71,2.71
255.45,9.54,9.54,6.85,6.85,-6.85,-6.88,-7.68,2.70,2.70,2.70
258.00,9.47,9.47,6.79,6.79,-6.79,-6.81,-7.62,2.69,2.69,2.69
260.58,9.40,9.40,6.72,6.72,-6.72,-6.74,-7.55,2.68,2.68,2.68
263.19,9.33,9.33,6.66,6.66,-6.66,-6.67,-7.47,2.67,2.67,2.67
265.82,9.26,9.26,6.60,6.60,-6.60,-6.59,-7.39,2.66,2.66,2.66
268.48,9.19,9.19,6.54,6.54,-6.54,-6.52,-7.29,2.65,2.65,2.65
271.16,9.12,9.12,6.48,6.48,-6.48,-6.45,-7.19,2.64,2.64,2.64
273.87,9.05,9.06,6.42,6.42,-6.42,-6.37,-7.09,2.63,2.63,2.64
276.61,8.99,8.99,6.37,6.36,-6.36,-6.30,-6.97,2.63,2.63,2.63
279.38,8.92,8.92,6.30,6.30,-6.30,-6.22,-6.86,2.62,2.62,2.62
282.17,8.85,8.86,6.24,6.24,-6.24,-6.15,-6.74,2.62,2.62,2.61
284.99,8.79,8.79,6.18,6.17,-6.17,-6.07,-6.62,2.62,2.62,2.62
287.84,8.72,8.72,6.10,6.11,-6.11,-6.00,-6.49,2.62,2.62,2.62
290.72,8.65,8.65,6.04,6.04,-6.04,-5.92,-6.36,2.61,2.61,2.61
293.63,8.58,8.58,5.98,5.97,-5.97,-5.85,-6.23,2.61,2.61,2.61
296.57,8.51,8.51,5.90,5.90,-5.90,-5.77,-6.10,2.61,2.61,2.61
299.53,8.44,8.44,5.83,5.83,-5.83,-5.69,-5.97,2.61,2.61,2.62
302.53,8.37,8.37,5.76,5.76,-5.76,-5.62,-5.84,2.61,2.61,2.61
305.55,8.30,8.30,5.69,5.69,-5.69,-5.54,-5.72,2.61,2.61,2.61
308.61,8.23,8.23,5.62,5.62,-5.62,-5.46,-5.59,2.61,2.61,2.61
311.69,8.16,8.16,5.55,5.55,-5.55,-5.38,-5.46,2.61,2.61,2.61
314.81,8.09,8.09,5.48,5.48,-5.48,-5.31,-5.34,2.62,2.61,2.61
317.96,8.02,8.02,5.41,5.41,-5.41,-5.23,-5.21,2.62,2.61,2.62
321.14,7.94,7.95,5.33,5.33,-5.33,-5.15,-5.09,2.61,2.62,2.61
324.35,7.87,7.87,5.26,5.26,-5.26,-5.07,-4.98,2.62,2.62,2.62
327.59,7.80,7.80,5.18,5.18,-5.18,-5.00,-4.86,2.62,2.62,2.62
330.87,7.72,7.73,5.10,5.11,-5.11,-4.92,-4.75,2.62,2.62,2.62
334.18,7.65,7.65,5.03,5.03,-5.03,-4.84,-4.64,2.62,2.62,2.62
337.52,7.58,7.58,4.96,4.96,-4.95,-4.76,-4.53,2.63,2.62,2.62
340.90,7.50,7.51,4.88,4.88,-4.88,-4.69,-4.43,2.62,2.63,2.63
344.30,7.43,7.43,4.80,4.80,-4.80,-4.61,-4.33,2.63,2.63,2.63
347.75,7.36,7.36,4.72,4.72,-4.73,-4.53,-4.23,2.64,2.64,2.64
351.23,7.29,7.29,4.66,4.65,-4.65,-4.46,-4.13,2.65,2.64,2.64
354.74,7.22,7.22,4.57,4.57,-4.57,-4.38,-4.04,2.65,2.65,2.65
358.28,7.14,7.15,4.49,4.49,-4.49,-4.30,-3.95,2.65,2.66,2.65
361.87,7.07,7.07,4.41,4.41,-4.41,-4.22,-3.87,2.66,2.66,2.66
365.49,6.99,7.00,4.33,4.33,-4.33,-4.15,-3.79,2.66,2.66,2.67
369.14,6.92,6.92,4.26,4.25,-4.25,-4.07,-3.71,2.67,2.67,2.66
372.83,6.84,6.85,4.16,4.17,-4.17,-3.99,-3.63,2.67,2.67,2.68
376.56,6.77,6.77,4.09,4.09,-4.09,-3.92,-3.56,2.68,2.68,2.68
380.33,6.70,6.70,4.02,4.02,-4.02,-3.84,-3.48,2.69,2.68,2.69
384.13,6.62,6.63,3.94,3.94,-3.94,-3.76,-3.42,2.69,2.69,2.68
387.97,6.55,6.55,3.86,3.86,-3.86,-3.69,-3.35,2.70,2.70,2.69
391.85,6.48,6.48,3.77,3.78,-3.78,-3.61,-3.29,2.71,2.70,2.71
395.77,6.40,6.41,3.70,3.69,-3.70,-3.54,-3.22,2.71,2.71,2.71
399.73,6.33,6.33,3.62,3.61,-3.62,-3.46,-3.16,2.72,2.71,2.72
403.72,6.25,6.25,3.53,3.54,-3.54,-3.38,-3.11,2.72,2.72,2.72
407.76,6.18,6.18,3.46,3.46,-3.46,-3.31,-3.05,2.73,2.73,2.72
411.84,6.10,6.11,3.37,3.38,-3.38,-3.23,-3.00,2.73,2.73,2.73
415.96,6.03,6.03,3.29,3.30,-3.30,-3.16,-2.94,2.74,2.74,2.74
420.12,5.95,5.96,3.22,3.22,-3.22,-3.08,-2.89,2.74,2.74,2.74
424.32,5.88,5.88,3.14,3.13,-3.13,-3.00,-2.84,2.75,2.75,2.75
428.56,5.80,5.80,3.05,3.05,-3.05,-2.93,-2.79,2.75,2.75,2.75
432.85,5.72,5.73,2.96,2.97,-2.97,-2.85,-2.74,2.76,2.76,2.76
437.18,5.65,5.65,2.89,2.89,-2.88,-2.78,-2.69,2.77,2.76,2.76
441.55,5.57,5.57,2.80,2.80,-2.80,-2.70,-2.65,2.77,2.77,2.77
445.96,5.49,5.50,2.72,2.72,-2.71,-2.63,-2.60,2.78,2.78,2.78
450.42,5.42,5.42,2.63,2.62,-2.63,-2.55,-2.55,2.79,2.79,2.80
454.93,5.34,5.34,2.54,2.54,-2.54,-2.48,-2.50,2.80,2.80,2.81
459.48,5.26,5.27,2.45,2.46,-2.46,-2.40,-2.45,2.81,2.81,2.81
464.07,5.19,5.19,2.38,2.37,-2.37,-2.32,-2.40,2.82,2.82,2.81
468.71,5.11,5.11,2.29,2.29,-2.29,-2.25,-2.35,2.83,2.82,2.82
473.40,5.03,5.03,2.20,2.20,-2.20,-2.17,-2.29,2.83,2.83,2.83
478.13,4.95,4.96,2.11,2.12,-2.12,-2.10,-2.24,2.84,2.84,2.84
482.91,4.88,4.88,2.03,2.03,-2.03,-2.02,-2.18,2.85,2.85,2.85
