frequency,raw,smoothed,error,error_smoothed,equalization,parametric_eq,fixed_band_eq,equalized_raw,equalized_smoothed,target
20.00,5.50,5.50,-0.38,-0.38,0.38,0.30,-0.72,5.88,5.88,5.88
20.20,5.56,5.55,-0.37,-0.37,0.38,0.25,-0.74,5.94,5.93,5.93
20.40,5.61,5.61,-0.37,-0.37,0.37,0.21,-0.76,5.98,5.98,5.98
20.61,5.67,5.66,-0.34,-0.35,0.35,0.16,-0.78,6.02,6.02,6.01
20.81,5.72,5.72,-0.34,-0.34,0.33,0.12,-0.80,6.05,6.05,6.06
21.02,5.78,5.78,-0.32,-0.31,0.30,0.07,-0.82,6.08,6.08,6.10
21.23,5.85,5.85,-0.27,-0.27,0.26,0.03,-0.84,6.11,6.11,6.12
21.44,5.92,5.92,-0.22,-0.22,0.22,-0.02,-0.87,6.14,6.14,6.14
21.66,5.99,5.99,-0.17,-0.17,0.17,-0.07,-0.89,6.16,6.16,6.15
21.87,6.06,6.06,-0.11,-0.11,0.11,-0.11,-0.92,6.17,6.17,6.16
22.09,6.13,6.13,-0.05,-0.05,0.04,-0.16,-0.94,6.17,6.18,6.18
22.31,6.21,6.21,0.02,0.01,-0.03,-0.21,-0.97,6.18,6.18,6.19
22.54,6.28,6.28,0.08,0.09,-0.10,-0.26,-0.99,6.18,6.19,6.19
22.76,6.36,6.36,0.17,0.17,-0.17,-0.30,-1.02,6.19,6.19,6.19
22.99,6.44,6.43,0.26,0.24,-0.23,-0.35,-1.05,6.21,6.20,6.18
23.22,6.49,6.49,0.31,0.31,-0.30,-0.40,-1.08,6.19,6.20,6.18
23.45,6.55,6.55,0.37,0.37,-0.36,-0.45,-1.11,6.19,6.19,6.18
23.69,6.61,6.60,0.42,0.42,-0.41,-0.50,-1.14,6.19,6.19,6.19
23.92,6.66,6.66,0.47,0.47,-0.47,-0.55,-1.17,6.19,6.19,6.19
24.16,6.71,6.71,0.51,0.51,-0.52,-0.60,-1.20,6.19,6.19,6.20
24.40,6.77,6.76,0.56,0.56,-0.57,-0.65,-1.23,6.20,6.19,6.21
24.65,6.82,6.82,0.62,0.62,-0.63,-0.70,-1.26,6.19,6.19,6.20
24.89,6.87,6.88,0.67,0.68,-0.69,-0.75,-1.30,6.18,6.18,6.19
25.14,6.94,6.94,0.75,0.74,-0.76,-0.80,-1.33,6.18,6.18,6.19
25.39,7.02,7.02,0.82,0.82,-0.83,-0.85,-1.36,6.19,6.19,6.20
25.65,7.10,7.10,0.90,0.90,-0.90,-0.90,-1.40,6.20,6.20,6.20
25.91,7.18,7.17,0.99,0.98,-0.96,-0.95,-1.43,6.21,6.21,6.19
26.16,7.24,7.24,1.05,1.05,-1.03,-1.00,-1.46,6.21,6.21,6.19
26.43,7.30,7.30,1.11,1.11,-1.10,-1.05,-1.50,6.20,6.20,6.19
26.69,7.35,7.35,1.16,1.16,-1.16,-1.10,-1.53,6.19,6.19,6.19
26.96,7.40,7.40,1.20,1.21,-1.22,-1.15,-1.57,6.18,6.19,6.20
27.23,7.46,7.46,1.26,1.26,-1.27,-1.20,-1.60,6.18,6.18,6.19
27.50,7.51,7.51,1.31,1.32,-1.33,-1.25,-1.64,6.18,6.18,6.19
27.77,7.57,7.57,1.39,1.38,-1.38,-1.30,-1.67,6.18,6.18,6.18
28.05,7.62,7.62,1.44,1.44,-1.44,-1.35,-1.70,6.18,6.18,6.18
28.33,7.68,7.68,1.51,1.50,-1.50,-1.40,-1.74,6.18,6.18,6.17
28.62,7.73,7.73,1.56,1.56,-1.56,-1.45,-1.77,6.17,6.17,6.17
28.90,7.79,7.79,1.61,1.62,-1.61,-1.51,-1.80,6.18,6.17,6.18
29.19,7.84,7.84,1.67,1.67,-1.67,-1.56,-1.83,6.17,6.17,6.16
29.48,7.90,7.90,1.72,1.72,-1.72,-1.61,-1.86,6.17,6.17,6.18
29.78,7.95,7.95,1.78,1.77,-1.78,-1.66,-1.89,6.17,6.17,6.17
30.08,8.00,8.00,1.82,1.82,-1.83,-1.71,-1.91,6.17,6.17,6.18
30.38,8.05,8.05,1.88,1.88,-1.88,-1.76,-1.94,6.17,6.17,6.17
30.68,8.10,8.10,1.93,1.93,-1.92,-1.81,-1.97,6.17,6.17,6.16
30.99,8.15,8.14,1.98,1.98,-1.97,-1.86,-1.99,6.18,6.17,6.16
31.30,8.18,8.18,2.02,2.02,-2.01,-1.91,-2.01,6.16,6.17,6.16
31.61,8.22,8.22,2.06,2.06,-2.06,-1.96,-2.03,6.16,6.16,6.16
31.93,8.25,8.25,2.09,2.10,-2.11,-2.01,-2.05,6.14,6.14,6.16
32.24,8.30,8.30,2.16,2.15,-2.16,-2.06,-2.07,6.14,6.13,6.14
32.57,8.35,8.35,2.20,2.20,-2.22,-2.11,-2.09,6.13,6.13,6.15
32.89,8.40,8.40,2.25,2.26,-2.27,-2.16,-2.11,6.13,6.13,6.15
33.22,8.46,8.47,2.32,2.33,-2.32,-2.21,-2.13,6.14,6.14,6.14
33.55,8.53,8.53,2.40,2.40,-2.37,-2.26,-2.14,6.16,6.16,6.13
33.89,8.60,8.58,2.48,2.46,-2.42,-2.31,-2.16,6.18,6.16,6.12
34.23,8.62,8.61,2.49,2.49,-2.47,-2.36,-2.17,6.15,6.14,6.13
34.57,8.62,8.62,2.50,2.50,-2.51,-2.41,-2.19,6.11,6.11,6.11
34.92,8.62,8.63,2.51,2.52,-2.55,-2.45,-2.20,6.07,6.08,6.11
35.27,8.67,8.67,2.56,2.56,-2.59,-2.50,-2.22,6.07,6.08,6.11
35.62,8.73,8.72,2.62,2.62,-2.63,-2.55,-2.23,6.09,6.09,6.10
35.97,8.79,8.78,2.69,2.68,-2.68,-2.60,-2.24,6.11,6.11,6.10
36.33,8.83,8.83,2.72,2.74,-2.72,-2.64,-2.26,6.11,6.11,6.11
36.70,8.88,8.88,2.79,2.78,-2.77,-2.69,-2.28,6.11,6.11,6.09
37.06,8.93,8.92,2.84,2.82,-2.82,-2.73,-2.29,6.11,6.10,6.09
37.43,8.96,8.96,2.85,2.87,-2.86,-2.78,-2.31,6.10,6.10,6.10
37.81,9.00,9.00,2.90,2.90,-2.90,-2.82,-2.33,6.09,6.10,6.10
38.19,9.04,9.04,2.94,2.94,-2.94,-2.87,-2.35,6.10,6.10,6.10
38.57,9.08,9.08,2.98,2.98,-2.98,-2.91,-2.37,6.10,6.10,6.10
38.95,9.12,9.12,3.01,3.01,-3.02,-2.95,-2.39,6.10,6.10,6.11
39.34,9.15,9.15,3.05,3.05,-3.06,-3.00,-2.42,6.09,6.10,6.10
39.74,9.19,9.19,3.09,3.09,-3.09,-3.04,-2.44,6.09,6.10,6.10
40.14,9.23,9.23,3.13,3.13,-3.12,-3.08,-2.47,6.10,6.10,6.10
40.54,9.26,9.26,3.16,3.17,-3.15,-3.12,-2.50,6.11,6.11,6.09
40.94,9.29,9.28,3.20,3.19,-3.17,-3.16,-2.53,6.12,6.11,6.09
41.35,9.30,9.30,3.22,3.22,-3.20,-3.20,-2.56,6.10,6.10,6.08
41.76,9.31,9.31,3.23,3.23,-3.23,-3.24,-2.59,6.08,6.08,6.08
42.18,9.32,9.31,3.24,3.23,-3.26,-3.28,-2.63,6.06,6.05,6.08
42.60,9.32,9.32,3.26,3.25,-3.30,-3.32,-2.67,6.02,6.02,6.06
43.03,9.33,9.36,3.27,3.30,-3.34,-3.35,-2.71,5.99,6.02,6.06
43.46,9.41,9.41,3.36,3.37,-3.38,-3.39,-2.75,6.03,6.03,6.05
43.90,9.50,9.47,3.48,3.45,-3.42,-3.42,-2.80,6.07,6.05,6.02
44.33,9.52,9.51,3.51,3.51,-3.47,-3.46,-2.84,6.05,6.05,6.00
44.78,9.52,9.53,3.53,3.54,-3.50,-3.49,-2.89,6.01,6.02,5.99
45.23,9.52,9.52,3.54,3.55,-3.54,-3.52,-2.94,5.98,5.98,5.98
45.68,9.52,9.52,3.56,3.56,-3.56,-3.56,-3.00,5.96,5.96,5.96
46.13,9.52,9.52,3.58,3.57,-3.58,-3.59,-3.05,5.94,5.94,5.94
46.60,9.52,9.52,3.58,3.59,-3.59,-3.62,-3.11,5.93,5.93,5.94
47.06,9.52,9.51,3.60,3.59,-3.61,-3.65,-3.17,5.91,5.91,5.92
47.53,9.52,9.52,3.61,3.60,-3.63,-3.68,-3.23,5.89,5.89,5.91
48.01,9.52,9.54,3.61,3.63,-3.66,-3.70,-3.30,5.86,5.88,5.91
48.49,9.57,9.57,3.68,3.68,-3.68,-3.73,-3.36,5.88,5.88,5.89
48.97,9.62,9.60,3.75,3.73,-3.71,-3.76,-3.43,5.90,5.88,5.87
49.46,9.62,9.62,3.77,3.77,-3.74,-3.78,-3.50,5.87,5.88,5.85
49.96,9.62,9.62,3.79,3.79,-3.77,-3.81,-3.56,5.85,5.85,5.83
50.46,9.62,9.62,3.79,3.80,-3.80,-3.83,-3.64,5.82,5.82,5.82
50.96,9.62,9.62,3.81,3.81,-3.82,-3.85,-3.71,5.80,5.80,5.81
51.47,9.62,9.62,3.83,3.83,-3.83,-3.87,-3.78,5.79,5.79,5.79
51.99,9.62,9.62,3.84,3.84,-3.84,-3.90,-3.85,5.78,5.78,5.77
52.51,9.62,9.62,3.85,3.85,-3.85,-3.91,-3.92,5.77,5.77,5.77
53.03,9.62,9.62,3.85,3.86,-3.86,-3.93,-4.00,5.76,5.76,5.77
53.56,9.62,9.62,3.87,3.87,-3.87,-3.95,-4.07,5.75,5.75,5.75
54.10,9.62,9.62,3.88,3.88,-3.88,-3.97,-4.14,5.74,5.74,5.74
54.64,9.62,9.62,3.90,3.90,-3.89,-3.98,-4.21,5.72,5.72,5.72
55.18,9.62,9.62,3.91,3.91,-3.91,-4.00,-4.27,5.71,5.71,5.71
55.74,9.62,9.62,3.92,3.92,-3.92,-4.01,-4.34,5.70,5.70,5.70
56.29,9.62,9.62,3.93,3.93,-3.94,-4.03,-4.40,5.68,5.68,5.69
56.86,9.62,9.62,3.95,3.95,-3.96,-4.04,-4.46,5.66,5.66,5.67
57.42,9.62,9.62,3.98,3.97,-3.97,-4.05,-4.51,5.65,5.65,5.64
58.00,9.62,9.62,3.99,3.99,-3.99,-4.06,-4.57,5.63,5.63,5.63
58.58,9.62,9.62,4.00,4.00,-4.00,-4.07,-4.61,5.62,5.62,5.62
59.16,9.62,9.62,4.02,4.02,-4.01,-4.08,-4.66,5.61,5.62,5.60
59.76,9.62,9.61,4.04,4.03,-4.01,-4.08,-4.69,5.61,5.60,5.58
60.35,9.58,9.57,4.04,4.03,-4.02,-4.09,-4.73,5.56,5.56,5.54
60.96,9.52,9.52,4.01,4.01,-4.02,-4.10,-4.75,5.50,5.50,5.51
61.57,9.46,9.47,3.99,4.00,-4.02,-4.10,-4.77,5.44,5.44,5.46
62.18,9.42,9.43,4.00,4.01,-4.03,-4.11,-4.79,5.39,5.40,5.42
62.80,9.42,9.40,4.04,4.03,-4.04,-4.11,-4.79,5.38,5.36,5.38
63.43,9.39,9.38,4.06,4.05,-4.05,-4.11,-4.80,5.34,5.33,5.33
64.07,9.34,9.35,4.05,4.07,-4.06,-4.11,-4.79,5.27,5.29,5.28
64.71,9.33,9.33,4.09,4.09,-4.08,-4.12,-4.78,5.25,5.25,5.24
65.35,9.31,9.31,4.11,4.11,-4.09,-4.12,-4.77,5.21,5.21,5.20
66.01,9.29,9.28,4.14,4.13,-4.11,-4.12,-4.75,5.18,5.17,5.15
66.67,9.23,9.23,4.13,4.12,-4.13,-4.12,-4.72,5.10,5.10,5.10
67.33,9.17,9.17,4.11,4.12,-4.14,-4.11,-4.69,5.03,5.04,5.05
68.01,9.12,9.13,4.11,4.12,-4.15,-4.11,-4.66,4.97,4.99,5.01
68.69,9.12,9.12,4.16,4.16,-4.16,-4.11,-4.62,4.96,4.96,4.96
69.37,9.10,9.09,4.19,4.18,-4.16,-4.11,-4.58,4.94,4.93,4.91
70.07,9.07,9.04,4.21,4.18,-4.16,-4.10,-4.54,4.91,4.88,4.86
70.77,8.96,8.99,4.14,4.18,-4.16,-4.10,-4.49,4.80,4.83,4.81
71.48,8.92,8.92,4.16,4.16,-4.17,-4.09,-4.44,4.75,4.75,4.76
72.19,8.88,8.84,4.18,4.14,-4.17,-4.09,-4.39,4.71,4.67,4.69
72.91,8.75,8.78,4.11,4.15,-4.17,-4.08,-4.34,4.58,4.62,4.64
73.64,8.72,8.72,4.14,4.14,-4.16,-4.07,-4.29,4.56,4.56,4.58
74.38,8.68,8.67,4.16,4.15,-4.15,-4.07,-4.23,4.53,4.52,4.52
75.12,8.62,8.63,4.15,4.17,-4.14,-4.06,-4.18,4.48,4.49,4.46
75.87,8.59,8.56,4.18,4.16,-4.13,-4.05,-4.13,4.46,4.44,4.41
76.63,8.48,8.48,4.12,4.13,-4.11,-4.04,-4.08,4.37,4.37,4.36
77.40,8.38,8.38,4.07,4.08,-4.09,-4.04,-4.03,4.29,4.29,4.30
78.17,8.29,8.30,4.05,4.05,-4.06,-4.03,-3.98,4.23,4.24,4.24
78.95,8.22,8.24,4.01,4.03,-4.03,-4.02,-3.93,4.19,4.21,4.21
79.74,8.20,8.16,4.04,4.00,-4.00,-4.01,-3.88,4.20,4.16,4.16
80.54,8.08,8.07,3.97,3.96,-3.97,-4.00,-3.84,4.11,4.10,4.11
81.35,7.96,7.99,3.90,3.93,-3.94,-3.99,-3.79,4.02,4.05,4.06
82.16,7.91,7.92,3.90,3.90,-3.92,-3.98,-3.75,3.99,4.00,4.01
82.98,7.89,7.86,3.91,3.90,-3.90,-3.97,-3.72,3.99,3.97,3.98
83.81,7.82,7.82,3.90,3.89,-3.88,-3.96,-3.68,3.94,3.94,3.92
84.65,7.74,7.75,3.87,3.87,-3.86,-3.95,-3.65,3.88,3.89,3.87
85.50,7.68,7.67,3.85,3.84,-3.84,-3.94,-3.62,3.84,3.83,3.83
86.35,7.60,7.60,3.82,3.81,-3.83,-3.92,-3.59,3.77,3.77,3.78
87.22,7.52,7.52,3.79,3.79,-3.81,-3.91,-3.57,3.71,3.72,3.73
88.09,7.46,7.47,3.78,3.79,-3.79,-3.90,-3.54,3.67,3.68,3.68
88.97,7.41,7.41,3.78,3.78,-3.77,-3.89,-3.52,3.64,3.64,3.63
89.86,7.38,7.34,3.80,3.76,-3.74,-3.88,-3.51,3.63,3.60,3.58
90.76,7.24,7.26,3.71,3.73,-3.72,-3.87,-3.49,3.52,3.54,3.53
91.66,7.17,7.18,3.68,3.71,-3.70,-3.85,-3.48,3.46,3.48,3.49
92.58,7.12,7.11,3.70,3.68,-3.69,-3.84,-3.47,3.43,3.42,3.42
93.51,7.06,7.04,3.68,3.66,-3.67,-3.83,-3.47,3.39,3.37,3.38
94.44,6.98,6.98,3.64,3.65,-3.66,-3.82,-3.46,3.32,3.32,3.33
95.39,6.90,6.93,3.61,3.64,-3.65,-3.80,-3.46,3.25,3.28,3.29
96.34,6.89,6.88,3.65,3.64,-3.64,-3.79,-3.46,3.25,3.24,3.24
97.30,6.87,6.83,3.68,3.64,-3.63,-3.78,-3.47,3.23,3.20,3.19
98.28,6.77,6.80,3.62,3.66,-3.63,-3.77,-3.47,3.14,3.17,3.15
99.26,6.74,6.75,3.64,3.65,-3.64,-3.75,-3.48,3.10,3.12,3.10
100.25,6.74,6.68,3.68,3.63,-3.65,-3.74,-3.49,3.09,3.04,3.05
101.25,6.62,6.64,3.61,3.63,-3.66,-3.73,-3.50,2.96,2.97,3.01
102.27,6.56,6.60,3.60,3.64,-3.67,-3.71,-3.51,2.89,2.92,2.96
103.29,6.59,6.58,3.68,3.66,-3.68,-3.70,-3.53,2.91,2.89,2.91
104.32,6.60,6.59,3.73,3.72,-3.68,-3.68,-3.54,2.91,2.91,2.87
105.37,6.58,6.58,3.76,3.76,-3.69,-3.67,-3.56,2.88,2.89,2.82
106.42,6.55,6.52,3.77,3.74,-3.71,-3.66,-3.57,2.84,2.81,2.78
107.48,6.44,6.43,3.72,3.71,-3.73,-3.64,-3.59,2.71,2.70,2.72
108.56,6.31,6.36,3.64,3.69,-3.74,-3.63,-3.61,2.57,2.62,2.66
109.64,6.31,6.32,3.69,3.70,-3.76,-3.61,-3.62,2.55,2.56,2.62
110.74,6.35,6.33,3.79,3.76,-3.78,-3.60,-3.64,2.57,2.55,2.56
111.85,6.34,6.35,3.81,3.83,-3.80,-3.58,-3.65,2.54,2.55,2.53
112.97,6.34,6.30,3.88,3.84,-3.82,-3.56,-3.66,2.51,2.48,2.46
114.10,6.28,6.26,3.86,3.84,-3.85,-3.55,-3.68,2.43,2.41,2.42
115.24,6.14,6.24,3.77,3.87,-3.86,-3.53,-3.69,2.28,2.38,2.37
116.39,6.26,6.22,3.94,3.90,-3.86,-3.52,-3.69,2.40,2.36,2.32
117.55,6.23,6.17,3.95,3.89,-3.84,-3.50,-3.70,2.38,2.32,2.28
118.73,6.10,6.10,3.86,3.86,-3.83,-3.48,-3.70,2.27,2.27,2.24
119.92,5.93,6.00,3.71,3.80,-3.82,-3.46,-3.70,2.10,2.18,2.21
121.12,5.96,5.94,3.79,3.76,-3.83,-3.45,-3.70,2.12,2.10,2.17
122.33,5.95,5.89,3.81,3.75,-3.84,-3.43,-3.69,2.11,2.05,2.14
123.55,5.88,5.92,3.76,3.81,-3.85,-3.41,-3.68,2.03,2.07,2.12
124.79,5.88,5.96,3.79,3.87,-3.86,-3.39,-3.67,2.02,2.10,2.09
126.03,6.09,6.00,4.03,3.94,-3.87,-3.37,-3.65,2.22,2.13,2.06
127.29,6.01,5.99,3.97,3.96,-3.87,-3.35,-3.63,2.14,2.12,2.04
128.57,5.92,5.91,3.92,3.91,-3.86,-3.33,-3.61,2.06,2.05,2.00
129.85,5.75,5.79,3.78,3.82,-3.83,-3.31,-3.58,1.92,1.95,1.97
131.15,5.67,5.72,3.73,3.78,-3.79,-3.29,-3.55,1.87,1.93,1.94
132.46,5.71,5.64,3.80,3.73,-3.75,-3.27,-3.51,1.96,1.89,1.91
133.79,5.60,5.58,3.71,3.69,-3.71,-3.25,-3.48,1.89,1.87,1.89
135.12,5.43,5.46,3.58,3.60,-3.66,-3.23,-3.43,1.77,1.80,1.85
136.48,5.38,5.36,3.54,3.54,-3.61,-3.21,-3.39,1.77,1.76,1.84
137.84,5.27,5.35,3.47,3.55,-3.55,-3.19,-3.35,1.72,1.80,1.80
139.22,5.39,5.36,3.62,3.59,-3.49,-3.17,-3.30,1.89,1.86,1.77
140.61,5.36,5.28,3.62,3.54,-3.43,-3.14,-3.25,1.93,1.85,1.73
142.02,5.15,5.13,3.43,3.42,-3.37,-3.12,-3.20,1.78,1.76,1.72
143.44,4.87,4.94,3.18,3.26,-3.31,-3.10,-3.15,1.56,1.63,1.69
144.87,4.77,4.80,3.12,3.15,-3.26,-3.07,-3.10,1.51,1.55,1.65
146.32,4.77,4.73,3.16,3.11,-3.19,-3.05,-3.05,1.58,1.54,1.61
147.78,4.71,4.69,3.13,3.11,-3.12,-3.03,-3.00,1.59,1.57,1.58
149.26,4.59,4.60,3.05,3.07,-3.04,-3.00,-2.94,1.55,1.56,1.53
150.75,4.47,4.48,3.00,3.01,-2.96,-2.98,-2.89,1.51,1.52,1.47
152.26,4.32,4.33,2.92,2.93,-2.87,-2.95,-2.84,1.45,1.46,1.40
153.78,4.19,4.16,2.85,2.82,-2.76,-2.93,-2.79,1.43,1.39,1.34
155.32,3.93,3.92,2.67,2.66,-2.63,-2.90,-2.74,1.30,1.29,1.26
156.88,3.66,3.66,2.47,2.48,-2.47,-2.87,-2.68,1.19,1.19,1.19
158.44,3.37,3.40,2.26,2.30,-2.31,-2.85,-2.64,1.06,1.09,1.10
160.03,3.18,3.16,2.16,2.13,-2.15,-2.82,-2.59,1.03,1.01,1.02
161.63,2.95,2.94,2.00,1.99,-2.00,-2.79,-2.54,0.95,0.94,0.95
163.24,2.75,2.76,1.86,1.87,-1.88,-2.77,-2.49,0.87,0.88,0.89
164.88,2.61,2.60,1.77,1.76,-1.80,-2.74,-2.45,0.81,0.80,0.84
166.53,2.49,2.50,1.70,1.71,-1.77,-2.71,-2.41,0.72,0.73,0.79
168.19,2.45,2.47,1.70,1.72,-1.78,-2.69,-2.37,0.67,0.69,0.75
169.87,2.50,2.48,1.78,1.76,-1.82,-2.66,-2.32,0.68,0.66,0.71
171.57,2.56,2.55,1.86,1.86,-1.89,-2.63,-2.29,0.67,0.66,0.70
173.29,2.63,2.66,1.95,1.98,-1.97,-2.60,-2.25,0.66,0.69,0.68
175.02,2.79,2.79,2.11,2.12,-2.05,-2.58,-2.22,0.74,0.74,0.68
176.77,2.90,2.88,2.24,2.22,-2.12,-2.55,-2.18,0.78,0.76,0.66
178.54,2.97,2.91,2.31,2.24,-2.18,-2.52,-2.15,0.79,0.73,0.66
180.32,2.85,2.89,2.18,2.23,-2.21,-2.49,-2.12,0.64,0.68,0.66
182.13,2.81,2.86,2.14,2.19,-2.23,-2.46,-2.09,0.58,0.63,0.67
183.95,2.88,2.84,2.22,2.17,-2.22,-2.43,-2.07,0.66,0.62,0.66
185.79,2.84,2.83,2.18,2.17,-2.19,-2.41,-2.04,0.65,0.64,0.66
187.65,2.79,2.80,2.15,2.16,-2.15,-2.38,-2.02,0.64,0.65,0.64
189.52,2.73,2.75,2.10,2.12,-2.10,-2.35,-2.00,0.63,0.65,0.63
191.42,2.70,2.69,2.09,2.09,-2.06,-2.32,-1.97,0.64,0.64,0.61
193.33,2.66,2.63,2.07,2.04,-2.01,-2.29,-1.96,0.65,0.61,0.59
195.27,2.53,2.55,1.96,1.98,-1.98,-2.26,-1.94,0.55,0.57,0.57
197.22,2.45,2.45,1.90,1.90,-1.94,-2.23,-1.92,0.51,0.51,0.55
199.19,2.38,2.38,1.85,1.85,-1.91,-2.21,-1.91,0.46,0.46,0.53
201.18,2.33,2.36,1.82,1.85,-1.89,-2.18,-1.89,0.44,0.47,0.51
203.19,2.37,2.36,1.88,1.87,-1.87,-2.15,-1.88,0.50,0.49,0.49
205.23,2.38,2.35,1.91,1.88,-1.84,-2.12,-1.87,0.53,0.51,0.47
207.28,2.33,2.33,1.87,1.88,-1.82,-2.09,-1.86,0.51,0.51,0.46
209.35,2.27,2.27,1.83,1.84,-1.80,-2.06,-1.85,0.47,0.47,0.44
211.44,2.21,2.20,1.80,1.79,-1.77,-2.04,-1.84,0.44,0.43,0.40
213.56,2.12,2.12,1.72,1.73,-1.74,-2.01,-1.83,0.38,0.38,0.40
215.69,2.06,2.05,1.67,1.67,-1.70,-1.98,-1.82,0.36,0.35,0.39
217.85,1.99,2.01,1.61,1.64,-1.66,-1.95,-1.81,0.33,0.35,0.37
220.03,1.98,1.98,1.62,1.62,-1.63,-1.92,-1.80,0.35,0.35,0.36
222.23,1.98,1.94,1.64,1.59,-1.60,-1.90,-1.79,0.38,0.34,0.34
224.45,1.91,1.94,1.56,1.59,-1.58,-1.87,-1.78,0.33,0.36,0.35
226.70,1.89,1.93,1.54,1.58,-1.56,-1.84,-1.77,0.33,0.36,0.35
228.96,1.98,1.91,1.62,1.56,-1.56,-1.81,-1.76,0.42,0.36,0.36
231.25,1.90,1.91,1.53,1.55,-1.55,-1.79,-1.75,0.35,0.36,0.37
233.57,1.88,1.91,1.50,1.53,-1.54,-1.76,-1.74,0.33,0.36,0.38
235.90,1.91,1.90,1.52,1.51,-1.53,-1.73,-1.73,0.37,0.36,0.39
238.26,1.93,1.92,1.53,1.52,-1.52,-1.71,-1.72,0.41,0.40,0.40
240.64,1.95,1.95,1.53,1.53,-1.51,-1.68,-1.70,0.44,0.45,0.42
243.05,1.96,1.96,1.51,1.52,-1.49,-1.66,-1.69,0.47,0.47,0.45
245.48,1.98,1.95,1.51,1.48,-1.47,-1.63,-1.67,0.51,0.48,0.47
247.93,1.92,1.93,1.42,1.44,-1.44,-1.61,-1.65,0.48,0.49,0.50
250.41,1.90,1.92,1.38,1.40,-1.42,-1.58,-1.64,0.48,0.51,0.51
252.92,1.94,1.93,1.39,1.38,-1.39,-1.56,-1.62,0.54,0.54,0.55
255.45,1.95,1.95,1.38,1.38,-1.38,-1.53,-1.59,0.57,0.57,0.57
258.00,1.96,1.92,1.37,1.33,-1.35,-1.51,-1.57,0.61,0.57,0.59
260.58,1.90,1.91,1.29,1.29,-1.32,-1.49,-1.55,0.58,0.58,0.61
263.19,1.85,1.94,1.21,1.30,-1.29,-1.46,-1.52,0.56,0.65,0.64
265.82,2.01,1.97,1.36,1.31,-1.26,-1.44,-1.50,0.75,0.72,0.65
268.48,2.04,1.97,1.36,1.28,-1.22,-1.42,-1.47,0.81,0.74,0.68
271.16,1.92,1.92,1.21,1.22,-1.19,-1.40,-1.44,0.73,0.73,0.71
273.87,1.77,1.83,1.04,1.10,-1.16,-1.37,-1.41,0.61,0.67,0.73
276.61,1.81,1.81,1.05,1.06,-1.13,-1.35,-1.38,0.68,0.68,0.76
279.38,1.85,1.87,1.06,1.09,-1.10,-1.33,-1.35,0.75,0.77,0.78
282.17,2.00,1.94,1.19,1.12,-1.08,-1.31,-1.32,0.92,0.85,0.81
284.99,1.98,1.96,1.13,1.12,-1.08,-1.30,-1.28,0.90,0.88,0.84
287.84,1.92,1.96,1.06,1.09,-1.10,-1.28,-1.25,0.82,0.86,0.86
290.72,1.97,1.97,1.07,1.07,-1.14,-1.26,-1.22,0.83,0.83,0.90
293.63,2.03,2.05,1.11,1.13,-1.18,-1.24,-1.18,0.85,0.87,0.92
296.57,2.17,2.17,1.21,1.22,-1.21,-1.23,-1.15,0.95,0.95,0.96
299.53,2.30,2.26,1.32,1.28,-1.24,-1.21,-1.12,1.06,1.02,0.98
302.53,2.33,2.33,1.33,1.32,-1.26,-1.20,-1.08,1.07,1.07,1.00
305.55,2.34,2.37,1.29,1.34,-1.28,-1.18,-1.05,1.05,1.09,1.05
308.61,2.40,2.39,1.34,1.32,-1.31,-1.17,-1.01,1.09,1.08,1.06
311.69,2.43,2.38,1.34,1.29,-1.33,-1.16,-0.98,1.10,1.06,1.09
314.81,2.36,2.38,1.24,1.27,-1.33,-1.14,-0.95,1.03,1.05,1.11
317.96,2.36,2.41,1.23,1.29,-1.32,-1.13,-0.91,1.04,1.09,1.13
321.14,2.47,2.46,1.33,1.31,-1.32,-1.12,-0.88,1.15,1.14,1.14
324.35,2.57,2.50,1.41,1.35,-1.31,-1.11,-0.85,1.26,1.19,1.15
327.59,2.49,2.51,1.32,1.34,-1.31,-1.10,-0.81,1.18,1.21,1.17
330.87,2.47,2.49,1.29,1.30,-1.30,-1.10,-0.78,1.17,1.19,1.18
334.18,2.46,2.46,1.26,1.26,-1.28,-1.09,-0.75,1.17,1.17,1.20
337.52,2.46,2.46,1.25,1.25,-1.26,-1.08,-0.72,1.20,1.21,1.20
340.90,2.46,2.45,1.24,1.24,-1.21,-1.07,-0.69,1.25,1.24,1.22
344.30,2.44,2.43,1.21,1.20,-1.17,-1.07,-0.66,1.27,1.25,1.23
347.75,2.38,2.38,1.15,1.14,-1.14,-1.06,-0.63,1.24,1.24,1.23
351.23,2.31,2.32,1.07,1.09,-1.12,-1.05,-0.60,1.19,1.20,1.23
354.74,2.27,2.28,1.04,1.04,-1.10,-1.04,-0.57,1.17,1.18,1.23
358.28,2.26,2.25,1.02,1.01,-1.08,-1.03,-0.54,1.18,1.18,1.24
361.87,2.27,2.27,1.03,1.03,-1.05,-1.02,-0.51,1.22,1.23,1.24
365.49,2.28,2.33,1.03,1.09,-1.01,-1.00,-0.49,1.26,1.31,1.25
369.14,2.37,2.32,1.13,1.09,-0.99,-0.99,-0.46,1.38,1.33,1.23
372.83,2.34,2.25,1.11,1.01,-0.97,-0.97,-0.43,1.37,1.28,1.23
376.56,2.08,2.16,0.85,0.92,-0.95,-0.95,-0.41,1.13,1.20,1.23
380.33,2.02,2.08,0.78,0.84,-0.93,-0.92,-0.38,1.09,1.15,1.24
384.13,2.09,2.06,0.85,0.82,-0.90,-0.89,-0.35,1.19,1.16,1.24
387.97,2.12,2.09,0.89,0.86,-0.86,-0.86,-0.33,1.26,1.23,1.23
391.85,2.09,2.09,0.87,0.87,-0.82,-0.83,-0.30,1.27,1.27,1.21
395.77,2.04,2.05,0.82,0.83,-0.78,-0.79,-0.28,1.25,1.27,1.22
399.73,2.00,1.99,0.79,0.78,-0.76,-0.75,-0.25,1.24,1.23,1.21
403.72,1.94,1.94,0.73,0.73,-0.74,-0.71,-0.23,1.20,1.20,1.21
407.76,1.88,1.87,0.68,0.67,-0.70,-0.67,-0.21,1.18,1.17,1.20
411.84,1.82,1.80,0.62,0.60,-0.65,-0.63,-0.18,1.17,1.15,1.20
415.96,1.74,1.78,0.54,0.59,-0.59,-0.58,-0.16,1.15,1.19,1.20
420.12,1.74,1.77,0.54,0.58,-0.53,-0.54,-0.13,1.21,1.24,1.20
424.32,1.82,1.72,0.62,0.53,-0.48,-0.49,-0.11,1.34,1.25,1.19
428.56,1.67,1.64,0.47,0.44,-0.43,-0.44,-0.09,1.24,1.22,1.20
432.85,1.48,1.56,0.27,0.35,-0.38,-0.40,-0.07,1.09,1.18,1.21
437.18,1.49,1.51,0.27,0.28,-0.35,-0.35,-0.04,1.14,1.16,1.22
441.55,1.57,1.52,0.31,0.27,-0.31,-0.30,-0.02,1.26,1.21,1.26
445.96,1.56,1.55,0.27,0.26,-0.28,-0.25,0.00,1.28,1.27,1.29
450.42,1.57,1.58,0.25,0.26,-0.24,-0.21,0.02,1.33,1.34,1.32
454.93,1.56,1.61,0.19,0.24,-0.20,-0.16,0.05,1.36,1.41,1.37
459.48,1.70,1.62,0.28,0.20,-0.16,-0.12,0.07,1.53,1.45,1.42
464.07,1.62,1.62,0.15,0.15,-0.12,-0.07,0.09,1.50,1.50,1.47
468.71,1.55,1.61,0.02,0.09,-0.07,-0.03,0.11,1.48,1.55,1.52
473.40,1.60,1.57,0.03,-0.00,-0.01,0.02,0.13,1.59,1.56,1.56
478.13,1.57,1.52,-0.05,-0.10,0.05,0.06,0.15,1.62,1.57,1.62
482.91,1.47,1.51,-0.19,-0.16,0.11,0.11,0.18,1.58,1.62,1.66
487.74,1.44,1.52,-0.26,-0.18,0.17,0.15,0.20,1.61,1.70,1.70
492.62,1.60,1.52,-0.15,-0.22,0.23,0.20,0.22,1.83,1.75,1.75
497.55,1.60,1.52,-0.17,-0.26,0.29,0.24,0.24,1.88,1.80,1.77
502.52,1.39,1.52,-0.41,-0.28,0.33,0.29,0.26,1.72,1.85,1.80
507.55,1.45,1.44,-0.36,-0.37,0.37,0.33,0.29,1.82,1.81,1.81
512.62,1.49,1.36,-0.33,-0.46,0.41,0.38,0.31,1.90,1.77,1.82
517.75,1.25,1.34,-0.58,-0.48,0.45,0.43,0.33,1.70,1.80,1.83
522.93,1.24,1.30,-0.58,-0.51,0.50,0.47,0.35,1.74,1.80,1.82
528.16,1.35,1.27,-0.44,-0.53,0.54,0.52,0.37,1.89,1.81,1.79
533.44,1.24,1.20,-0.52,-0.56,0.59,0.57,0.40,1.83,1.79,1.76
538.77,1.09,1.09,-0.64,-0.63,0.63,0.62,0.42,1.72,1.73,1.73
544.16,0.88,0.99,-0.80,-0.68,0.68,0.67,0.44,1.56,1.68,1.68
549.60,0.94,0.89,-0.69,-0.74,0.74,0.72,0.47,1.67,1.62,1.63
