frequency,raw,error,smoothed,error_smoothed,equalization,parametric_eq,fixed_band_eq,equalized_raw,equalized_smoothed,target
20.00,-11.92,-11.24,-11.92,-11.25,6.00,7.03,2.51,-5.92,-5.92,-0.68
20.20,-11.76,-11.17,-11.76,-11.17,6.00,7.00,2.58,-5.76,-5.76,-0.59
20.40,-11.60,-11.09,-11.60,-11.09,6.00,6.96,2.66,-5.60,-5.60,-0.51
20.61,-11.45,-11.01,-11.44,-11.01,6.00,6.93,2.74,-5.45,-5.44,-0.44
20.81,-11.28,-10.93,-11.28,-10.93,6.00,6.89,2.81,-5.28,-5.28,-0.35
21.02,-11.12,-10.85,-11.13,-10.85,6.00,6.86,2.90,-5.12,-5.13,-0.27
21.23,-10.97,-10.76,-10.97,-10.76,6.00,6.82,2.98,-4.97,-4.97,-0.21
21.44,-10.81,-10.66,-10.81,-10.66,6.00,6.79,3.07,-4.81,-4.81,-0.15
21.66,-10.65,-10.55,-10.65,-10.55,6.00,6.75,3.16,-4.65,-4.65,-0.10
21.87,-10.49,-10.44,-10.49,-10.44,6.00,6.71,3.25,-4.49,-4.49,-0.05
22.09,-10.33,-10.33,-10.33,-10.33,6.00,6.67,3.34,-4.33,-4.33,0.00
22.31,-10.17,-10.22,-10.17,-10.22,6.00,6.63,3.44,-4.17,-4.17,0.05
22.54,-10.01,-10.10,-10.01,-10.10,6.00,6.59,3.54,-4.01,-4.01,0.09
22.76,-9.85,-9.98,-9.85,-9.98,6.00,6.55,3.64,-3.85,-3.85,0.13
22.99,-9.69,-9.85,-9.69,-9.85,6.00,6.51,3.74,-3.69,-3.69,0.16
23.22,-9.53,-9.73,-9.53,-9.73,6.00,6.47,3.85,-3.53,-3.53,0.20
23.45,-9.37,-9.61,-9.37,-9.61,6.00,6.43,3.96,-3.37,-3.37,0.24
23.69,-9.21,-9.49,-9.21,-9.49,6.00,6.39,4.07,-3.21,-3.21,0.28
23.92,-9.05,-9.37,-9.05,-9.37,6.00,6.35,4.19,-3.05,-3.05,0.32
24.16,-8.89,-9.26,-8.89,-9.25,6.00,6.30,4.30,-2.89,-2.89,0.37
24.40,-8.73,-9.13,-8.73,-9.13,6.00,6.26,4.42,-2.73,-2.73,0.40
24.65,-8.58,-9.01,-8.58,-9.01,6.00,6.22,4.54,-2.58,-2.58,0.43
24.89,-8.42,-8.88,-8.42,-8.88,6.00,6.17,4.66,-2.42,-2.42,0.46
25.14,-8.26,-8.76,-8.26,-8.75,6.00,6.13,4.78,-2.26,-2.26,0.50
25.39,-8.10,-8.62,-8.10,-8.63,6.00,6.08,4.90,-2.10,-2.10,0.52
25.65,-7.95,-8.52,-7.95,-8.50,6.00,6.03,5.03,-1.95,-1.95,0.56
25.91,-7.80,-8.38,-7.79,-8.38,6.00,5.99,5.15,-1.80,-1.79,0.58
26.16,-7.63,-8.24,-7.64,-8.25,6.00,5.94,5.27,-1.63,-1.64,0.61
26.43,-7.48,-8.14,-7.48,-8.13,6.00,5.89,5.40,-1.48,-1.48,0.65
26.69,-7.32,-8.00,-7.32,-8.00,6.00,5.84,5.52,-1.32,-1.32,0.68
26.96,-7.16,-7.87,-7.17,-7.88,6.00,5.79,5.64,-1.16,-1.17,0.71
27.23,-7.01,-7.76,-7.01,-7.76,6.00,5.74,5.75,-1.01,-1.01,0.75
27.50,-6.86,-7.64,-6.86,-7.64,6.00,5.69,5.87,-0.86,-0.86,0.78
27.77,-6.71,-7.51,-6.71,-7.52,6.00,5.64,5.97,-0.71,-0.71,0.80
28.05,-6.56,-7.40,-6.56,-7.39,6.00,5.59,6.08,-0.56,-0.56,0.84
28.33,-6.41,-7.27,-6.41,-7.27,6.00,5.54,6.17,-0.41,-0.41,0.86
28.62,-6.26,-7.15,-6.26,-7.15,6.00,5.48,6.27,-0.26,-0.26,0.89
28.90,-6.11,-7.04,-6.11,-7.03,6.00,5.43,6.35,-0.11,-0.11,0.93
29.19,-5.97,-6.92,-5.97,-6.92,6.00,5.38,6.42,0.03,0.03,0.94
29.48,-5.82,-6.81,-5.82,-6.81,6.00,5.32,6.49,0.18,0.18,0.99
29.78,-5.68,-6.70,-5.68,-6.70,6.00,5.27,6.54,0.32,0.32,1.01
30.08,-5.54,-6.59,-5.54,-6.59,6.01,5.21,6.58,0.47,0.47,1.04
30.38,-5.40,-6.47,-5.40,-6.47,6.02,5.16,6.62,0.61,0.61,1.07
30.68,-5.26,-6.36,-5.27,-6.36,6.02,5.10,6.64,0.76,0.75,1.10
30.99,-5.13,-6.25,-5.13,-6.25,6.01,5.04,6.65,0.87,0.88,1.12
31.30,-5.00,-6.15,-5.00,-6.15,5.99,4.98,6.64,0.98,0.99,1.15
31.61,-4.87,-6.05,-4.88,-6.05,5.95,4.92,6.63,1.08,1.08,1.18
31.93,-4.75,-5.95,-4.75,-5.95,5.90,4.87,6.60,1.15,1.15,1.19
32.24,-4.63,-5.84,-4.63,-5.85,5.84,4.81,6.56,1.21,1.21,1.21
32.57,-4.50,-5.74,-4.51,-5.75,5.75,4.75,6.51,1.25,1.25,1.24
32.89,-4.38,-5.65,-4.38,-5.65,5.66,4.68,6.45,1.28,1.28,1.27
33.22,-4.26,-5.55,-4.26,-5.55,5.56,4.62,6.37,1.30,1.30,1.29
33.55,-4.13,-5.44,-4.13,-5.44,5.45,4.56,6.29,1.32,1.32,1.31
33.89,-4.01,-5.33,-4.01,-5.33,5.34,4.50,6.20,1.33,1.33,1.32
34.23,-3.89,-5.24,-3.89,-5.23,5.24,4.43,6.10,1.34,1.34,1.34
34.57,-3.78,-5.13,-3.78,-5.13,5.14,4.37,5.99,1.35,1.35,1.35
34.92,-3.67,-5.03,-3.67,-5.04,5.04,4.31,5.87,1.36,1.36,1.36
35.27,-3.56,-4.94,-3.56,-4.93,4.94,4.24,5.75,1.37,1.37,1.38
35.62,-3.45,-4.83,-3.45,-4.84,4.84,4.18,5.63,1.38,1.38,1.38
35.97,-3.35,-4.74,-3.35,-4.74,4.74,4.11,5.49,1.38,1.39,1.38
36.33,-3.24,-4.64,-3.24,-4.64,4.64,4.04,5.36,1.39,1.39,1.40
36.70,-3.14,-4.54,-3.14,-4.54,4.54,3.98,5.22,1.39,1.40,1.40
37.06,-3.03,-4.43,-3.03,-4.44,4.44,3.91,5.09,1.40,1.40,1.40
37.43,-2.93,-4.34,-2.93,-4.33,4.33,3.84,4.95,1.40,1.41,1.40
37.81,-2.82,-4.22,-2.82,-4.23,4.23,3.77,4.81,1.41,1.41,1.40
38.19,-2.72,-4.12,-2.73,-4.13,4.13,3.70,4.66,1.41,1.40,1.40
38.57,-2.63,-4.04,-2.63,-4.03,4.02,3.63,4.52,1.39,1.40,1.41
38.95,-2.53,-3.93,-2.53,-3.93,3.92,3.56,4.38,1.39,1.39,1.40
39.34,-2.42,-3.81,-2.42,-3.82,3.81,3.49,4.24,1.39,1.39,1.39
39.74,-2.31,-3.70,-2.32,-3.70,3.71,3.42,4.10,1.40,1.39,1.39
40.14,-2.21,-3.60,-2.21,-3.60,3.60,3.35,3.96,1.39,1.39,1.38
40.54,-2.11,-3.49,-2.11,-3.49,3.50,3.28,3.82,1.38,1.39,1.38
40.94,-2.01,-3.39,-2.01,-3.39,3.39,3.20,3.69,1.38,1.38,1.38
41.35,-1.91,-3.29,-1.91,-3.29,3.28,3.13,3.55,1.37,1.37,1.37
41.76,-1.81,-3.18,-1.81,-3.18,3.18,3.06,3.42,1.37,1.37,1.37
42.18,-1.71,-3.08,-1.71,-3.07,3.07,2.98,3.29,1.36,1.36,1.37
42.60,-1.60,-2.95,-1.61,-2.97,2.96,2.91,3.16,1.36,1.36,1.35
43.03,-1.50,-2.86,-1.50,-2.85,2.85,2.83,3.04,1.35,1.35,1.36
43.46,-1.40,-2.75,-1.40,-2.74,2.74,2.76,2.91,1.34,1.34,1.34
43.90,-1.29,-2.62,-1.30,-2.63,2.63,2.68,2.79,1.33,1.33,1.33
44.33,-1.19,-2.51,-1.19,-2.51,2.51,2.61,2.67,1.32,1.32,1.31
44.78,-1.09,-2.40,-1.09,-2.40,2.40,2.53,2.55,1.31,1.31,1.31
45.23,-0.99,-2.29,-0.99,-2.29,2.29,2.45,2.43,1.30,1.30,1.29
45.68,-0.88,-2.17,-0.89,-2.18,2.18,2.38,2.32,1.30,1.29,1.29
46.13,-0.78,-2.07,-0.78,-2.07,2.07,2.30,2.21,1.29,1.29,1.28
46.60,-0.68,-1.97,-0.68,-1.97,1.96,2.22,2.10,1.28,1.28,1.29
47.06,-0.58,-1.86,-0.58,-1.86,1.85,2.15,1.99,1.27,1.28,1.28
47.53,-0.47,-1.75,-0.47,-1.75,1.75,2.07,1.88,1.28,1.27,1.28
48.01,-0.36,-1.64,-0.37,-1.64,1.64,1.99,1.78,1.28,1.27,1.28
48.49,-0.26,-1.54,-0.26,-1.53,1.53,1.91,1.68,1.27,1.27,1.27
48.97,-0.16,-1.43,-0.16,-1.42,1.43,1.83,1.57,1.26,1.26,1.27
49.46,-0.06,-1.31,-0.06,-1.31,1.32,1.76,1.48,1.26,1.26,1.25
49.96,0.04,-1.20,0.04,-1.21,1.22,1.68,1.38,1.25,1.25,1.24
50.46,0.14,-1.12,0.14,-1.11,1.12,1.60,1.28,1.25,1.25,1.25
50.96,0.24,-1.03,0.24,-1.02,1.02,1.52,1.19,1.26,1.26,1.27
51.47,0.34,-0.92,0.34,-0.92,0.92,1.44,1.10,1.26,1.26,1.26
51.99,0.44,-0.82,0.43,-0.83,0.83,1.36,1.01,1.27,1.27,1.26
52.51,0.53,-0.74,0.53,-0.74,0.75,1.29,0.92,1.27,1.27,1.27
53.03,0.61,-0.66,0.61,-0.66,0.66,1.21,0.83,1.27,1.27,1.27
53.56,0.70,-0.57,0.70,-0.58,0.57,1.13,0.75,1.27,1.27,1.27
54.10,0.78,-0.50,0.78,-0.49,0.49,1.05,0.66,1.26,1.27,1.27
54.64,0.87,-0.40,0.86,-0.40,0.40,0.97,0.58,1.27,1.26,1.26
55.18,0.95,-0.31,0.94,-0.32,0.31,0.90,0.50,1.26,1.26,1.26
55.74,1.02,-0.23,1.02,-0.23,0.23,0.82,0.42,1.25,1.25,1.25
56.29,1.10,-0.15,1.10,-0.15,0.15,0.74,0.35,1.24,1.24,1.25
56.86,1.18,-0.06,1.18,-0.06,0.06,0.67,0.28,1.24,1.24,1.24
57.42,1.26,0.03,1.25,0.02,-0.02,0.59,0.20,1.24,1.23,1.23
58.00,1.33,0.10,1.33,0.10,-0.10,0.52,0.14,1.23,1.23,1.22
58.58,1.39,0.18,1.39,0.18,-0.18,0.44,0.07,1.21,1.21,1.21
59.16,1.46,0.25,1.46,0.25,-0.26,0.37,0.00,1.20,1.20,1.21
59.76,1.52,0.32,1.52,0.33,-0.33,0.29,-0.06,1.19,1.19,1.19
60.35,1.58,0.41,1.58,0.40,-0.40,0.22,-0.12,1.18,1.17,1.17
60.96,1.63,0.46,1.62,0.47,-0.47,0.15,-0.18,1.16,1.15,1.17
61.57,1.67,0.54,1.67,0.54,-0.54,0.07,-0.23,1.13,1.13,1.13
62.18,1.71,0.60,1.71,0.60,-0.60,0.00,-0.29,1.11,1.11,1.11
62.80,1.76,0.66,1.75,0.66,-0.65,-0.07,-0.34,1.10,1.10,1.10
63.43,1.79,0.71,1.79,0.71,-0.70,-0.14,-0.39,1.09,1.08,1.07
64.07,1.81,0.74,1.81,0.75,-0.74,-0.21,-0.44,1.07,1.07,1.07
64.71,1.84,0.78,1.84,0.78,-0.78,-0.28,-0.48,1.06,1.06,1.06
65.35,1.86,0.81,1.85,0.80,-0.80,-0.34,-0.53,1.05,1.05,1.05
66.01,1.87,0.82,1.87,0.82,-0.82,-0.41,-0.57,1.05,1.05,1.05
66.67,1.88,0.82,1.88,0.83,-0.83,-0.47,-0.61,1.04,1.05,1.05
67.33,1.90,0.84,1.89,0.84,-0.84,-0.54,-0.65,1.06,1.05,1.05
68.01,1.91,0.85,1.90,0.85,-0.84,-0.60,-0.69,1.07,1.06,1.05
68.69,1.90,0.85,1.90,0.85,-0.84,-0.67,-0.73,1.06,1.07,1.05
69.37,1.90,0.84,1.90,0.84,-0.83,-0.73,-0.76,1.07,1.06,1.06
70.07,1.89,0.83,1.89,0.82,-0.82,-0.79,-0.80,1.06,1.06,1.06
70.77,1.88,0.80,1.88,0.81,-0.82,-0.85,-0.83,1.06,1.07,1.08
71.48,1.88,0.80,1.87,0.80,-0.81,-0.91,-0.87,1.07,1.06,1.07
72.19,1.87,0.80,1.87,0.79,-0.80,-0.96,-0.90,1.06,1.07,1.07
72.91,1.87,0.79,1.87,0.80,-0.80,-1.02,-0.93,1.07,1.07,1.08
73.64,1.88,0.81,1.88,0.80,-0.80,-1.08,-0.97,1.07,1.07,1.07
74.38,1.89,0.81,1.89,0.81,-0.81,-1.13,-1.00,1.08,1.08,1.08
75.12,1.90,0.83,1.90,0.83,-0.82,-1.18,-1.03,1.07,1.08,1.07
75.87,1.92,0.84,1.91,0.84,-0.84,-1.24,-1.07,1.08,1.07,1.07
76.63,1.93,0.85,1.93,0.86,-0.86,-1.29,-1.10,1.07,1.07,1.08
77.40,1.95,0.88,1.95,0.88,-0.89,-1.34,-1.13,1.06,1.06,1.07
78.17,1.98,0.92,1.98,0.91,-0.91,-1.39,-1.17,1.06,1.07,1.06
78.95,2.02,0.94,2.02,0.94,-0.94,-1.44,-1.20,1.08,1.07,1.08
79.74,2.06,0.98,2.06,0.98,-0.97,-1.48,-1.24,1.08,1.08,1.08
80.54,2.10,1.02,2.10,1.01,-1.01,-1.53,-1.28,1.09,1.09,1.08
81.35,2.14,1.05,2.14,1.05,-1.04,-1.57,-1.32,1.10,1.10,1.09
82.16,2.18,1.08,2.18,1.08,-1.07,-1.62,-1.36,1.10,1.10,1.10
82.98,2.22,1.10,2.22,1.11,-1.11,-1.66,-1.40,1.11,1.11,1.12
83.81,2.27,1.14,2.27,1.14,-1.15,-1.70,-1.44,1.12,1.12,1.13
84.65,2.32,1.19,2.32,1.18,-1.18,-1.74,-1.48,1.14,1.14,1.13
85.50,2.37,1.21,2.37,1.22,-1.22,-1.78,-1.53,1.15,1.16,1.16
86.35,2.43,1.25,2.43,1.25,-1.25,-1.82,-1.57,1.18,1.18,1.18
87.22,2.48,1.30,2.48,1.29,-1.28,-1.86,-1.62,1.19,1.19,1.18
88.09,2.53,1.33,2.53,1.33,-1.32,-1.90,-1.67,1.21,1.21,1.20
88.97,2.57,1.36,2.56,1.36,-1.36,-1.94,-1.72,1.21,1.21,1.21
89.86,2.60,1.38,2.60,1.39,-1.39,-1.97,-1.77,1.20,1.21,1.21
90.76,2.64,1.43,2.64,1.43,-1.43,-2.01,-1.82,1.21,1.21,1.21
91.66,2.68,1.47,2.68,1.47,-1.47,-2.04,-1.87,1.20,1.21,1.21
92.58,2.73,1.53,2.72,1.52,-1.52,-2.07,-1.93,1.21,1.20,1.20
93.51,2.77,1.57,2.77,1.57,-1.57,-2.11,-1.99,1.19,1.19,1.20
94.44,2.81,1.63,2.81,1.63,-1.63,-2.14,-2.04,1.18,1.18,1.18
95.39,2.85,1.69,2.85,1.69,-1.70,-2.17,-2.10,1.15,1.15,1.16
96.34,2.89,1.75,2.89,1.76,-1.77,-2.20,-2.16,1.12,1.12,1.13
97.30,2.94,1.84,2.93,1.83,-1.84,-2.23,-2.22,1.10,1.10,1.10
98.28,2.98,1.91,2.98,1.91,-1.91,-2.25,-2.29,1.07,1.07,1.07
99.26,3.02,1.99,3.02,1.99,-1.98,-2.28,-2.35,1.04,1.04,1.03
100.25,3.06,2.07,3.05,2.06,-2.05,-2.31,-2.41,1.01,1.00,0.99
101.25,3.08,2.13,3.08,2.13,-2.12,-2.34,-2.48,0.96,0.96,0.95
102.27,3.10,2.19,3.10,2.19,-2.18,-2.36,-2.54,0.91,0.91,0.91
103.29,3.11,2.25,3.11,2.24,-2.24,-2.39,-2.61,0.86,0.87,0.86
104.32,3.13,2.30,3.12,2.30,-2.30,-2.41,-2.67,0.83,0.82,0.83
105.37,3.14,2.36,3.14,2.35,-2.36,-2.43,-2.73,0.78,0.78,0.78
106.42,3.15,2.40,3.15,2.41,-2.41,-2.45,-2.80,0.74,0.74,0.74
107.48,3.17,2.46,3.17,2.47,-2.46,-2.48,-2.86,0.70,0.71,0.70
108.56,3.19,2.52,3.19,2.52,-2.52,-2.50,-2.92,0.67,0.67,0.66
109.64,3.21,2.58,3.20,2.57,-2.57,-2.52,-2.98,0.63,0.63,0.63
110.74,3.22,2.62,3.22,2.63,-2.63,-2.54,-3.03,0.59,0.59,0.60
111.85,3.24,2.67,3.24,2.68,-2.69,-2.56,-3.09,0.55,0.55,0.57
112.97,3.27,2.75,3.27,2.74,-2.75,-2.57,-3.14,0.52,0.52,0.52
114.10,3.31,2.81,3.30,2.81,-2.81,-2.59,-3.19,0.50,0.49,0.50
115.24,3.34,2.88,3.34,2.87,-2.87,-2.61,-3.23,0.47,0.47,0.46
116.39,3.37,2.93,3.37,2.93,-2.93,-2.62,-3.28,0.44,0.44,0.43
117.55,3.40,2.98,3.40,2.99,-2.98,-2.64,-3.31,0.41,0.42,0.42
118.73,3.43,3.04,3.43,3.04,-3.03,-2.65,-3.35,0.39,0.40,0.39
119.92,3.47,3.09,3.46,3.08,-3.08,-2.66,-3.37,0.39,0.38,0.38
121.12,3.49,3.12,3.49,3.12,-3.12,-2.68,-3.40,0.37,0.37,0.36
122.33,3.50,3.15,3.50,3.15,-3.15,-2.69,-3.41,0.35,0.35,0.35
123.55,3.52,3.17,3.52,3.18,-3.18,-2.70,-3.43,0.34,0.34,0.34
124.79,3.53,3.20,3.53,3.20,-3.20,-2.71,-3.43,0.33,0.33,0.33
126.03,3.54,3.22,3.54,3.22,-3.22,-2.72,-3.44,0.32,0.32,0.32
127.29,3.54,3.23,3.54,3.23,-3.23,-2.72,-3.43,0.31,0.31,0.31
128.57,3.53,3.24,3.53,3.24,-3.24,-2.73,-3.42,0.29,0.29,0.28
129.85,3.52,3.24,3.52,3.24,-3.24,-2.74,-3.41,0.28,0.28,0.28
131.15,3.50,3.23,3.50,3.24,-3.23,-2.74,-3.39,0.26,0.27,0.27
132.46,3.49,3.24,3.48,3.23,-3.23,-2.75,-3.37,0.26,0.25,0.24
133.79,3.46,3.22,3.46,3.22,-3.22,-2.75,-3.34,0.24,0.24,0.24
135.12,3.43,3.21,3.43,3.20,-3.21,-2.75,-3.30,0.22,0.22,0.22
136.48,3.40,3.19,3.39,3.19,-3.19,-2.75,-3.27,0.21,0.20,0.21
137.84,3.36,3.17,3.37,3.18,-3.18,-2.76,-3.23,0.18,0.19,0.19
139.22,3.34,3.18,3.33,3.17,-3.16,-2.76,-3.19,0.17,0.17,0.16
140.61,3.31,3.17,3.30,3.15,-3.15,-2.75,-3.14,0.15,0.15,0.14
142.02,3.26,3.13,3.27,3.14,-3.14,-2.75,-3.09,0.11,0.13,0.13
143.44,3.25,3.13,3.24,3.13,-3.14,-2.75,-3.04,0.11,0.10,0.11
144.87,3.22,3.13,3.22,3.13,-3.14,-2.74,-2.99,0.08,0.08,0.09
146.32,3.21,3.15,3.20,3.14,-3.14,-2.74,-2.93,0.07,0.06,0.06
147.78,3.18,3.13,3.18,3.14,-3.15,-2.73,-2.88,0.03,0.04,0.04
149.26,3.17,3.15,3.16,3.15,-3.15,-2.72,-2.82,0.01,0.01,0.02
150.75,3.14,3.15,3.15,3.16,-3.16,-2.72,-2.76,-0.03,-0.02,-0.02
152.26,3.14,3.18,3.14,3.18,-3.17,-2.71,-2.71,-0.04,-0.03,-0.04
153.78,3.13,3.19,3.12,3.19,-3.18,-2.69,-2.65,-0.05,-0.06,-0.06
155.32,3.11,3.21,3.10,3.20,-3.19,-2.68,-2.59,-0.08,-0.08,-0.10
156.88,3.06,3.18,3.06,3.19,-3.19,-2.67,-2.54,-0.13,-0.12,-0.12
158.44,3.02,3.18,3.02,3.18,-3.18,-2.65,-2.48,-0.16,-0.16,-0.16
160.03,2.97,3.16,2.97,3.16,-3.17,-2.64,-2.43,-0.20,-0.20,-0.19
161.63,2.92,3.15,2.92,3.15,-3.15,-2.62,-2.37,-0.23,-0.23,-0.23
163.24,2.87,3.13,2.86,3.13,-3.12,-2.60,-2.32,-0.26,-0.26,-0.26
164.88,2.80,3.09,2.80,3.10,-3.09,-2.58,-2.27,-0.29,-0.29,-0.29
166.53,2.74,3.06,2.74,3.06,-3.06,-2.56,-2.22,-0.32,-0.32,-0.32
168.19,2.67,3.02,2.66,3.01,-3.02,-2.54,-2.17,-0.35,-0.36,-0.35
169.87,2.58,2.96,2.59,2.97,-2.97,-2.52,-2.12,-0.40,-0.39,-0.38
171.57,2.51,2.92,2.51,2.92,-2.93,-2.49,-2.07,-0.42,-0.41,-0.41
173.29,2.45,2.88,2.43,2.87,-2.87,-2.47,-2.03,-0.42,-0.44,-0.44
175.02,2.35,2.81,2.35,2.81,-2.81,-2.44,-1.98,-0.46,-0.46,-0.46
176.77,2.26,2.75,2.26,2.75,-2.74,-2.41,-1.94,-0.49,-0.48,-0.49
178.54,2.17,2.68,2.17,2.68,-2.67,-2.38,-1.90,-0.51,-0.50,-0.51
180.32,2.08,2.61,2.08,2.61,-2.60,-2.34,-1.86,-0.52,-0.52,-0.53
182.13,1.99,2.53,1.97,2.51,-2.51,-2.31,-1.82,-0.52,-0.54,-0.54
183.95,1.85,2.41,1.86,2.42,-2.42,-2.27,-1.79,-0.58,-0.56,-0.56
185.79,1.75,2.32,1.76,2.33,-2.33,-2.23,-1.75,-0.58,-0.58,-0.57
187.65,1.66,2.24,1.65,2.23,-2.24,-2.18,-1.72,-0.58,-0.59,-0.58
189.52,1.56,2.15,1.55,2.14,-2.14,-2.14,-1.69,-0.59,-0.59,-0.59
191.42,1.45,2.05,1.45,2.05,-2.05,-2.09,-1.66,-0.60,-0.60,-0.60
193.33,1.35,1.95,1.35,1.95,-1.96,-2.04,-1.63,-0.61,-0.60,-0.60
195.27,1.26,1.86,1.25,1.86,-1.86,-1.98,-1.60,-0.60,-0.61,-0.60
197.22,1.16,1.77,1.16,1.78,-1.77,-1.92,-1.58,-0.61,-0.61,-0.62
199.19,1.06,1.69,1.06,1.69,-1.68,-1.86,-1.55,-0.62,-0.62,-0.64
201.18,0.96,1.59,0.95,1.59,-1.59,-1.80,-1.53,-0.63,-0.63,-0.64
203.19,0.86,1.49,0.86,1.50,-1.50,-1.73,-1.51,-0.64,-0.65,-0.64
205.23,0.76,1.40,0.77,1.41,-1.42,-1.66,-1.48,-0.66,-0.65,-0.65
207.28,0.69,1.33,0.68,1.33,-1.34,-1.58,-1.46,-0.65,-0.66,-0.65
209.35,0.61,1.26,0.61,1.27,-1.27,-1.51,-1.45,-0.66,-0.66,-0.66
211.44,0.54,1.21,0.54,1.20,-1.20,-1.43,-1.43,-0.66,-0.66,-0.67
213.56,0.47,1.14,0.46,1.14,-1.13,-1.35,-1.41,-0.67,-0.67,-0.67
215.69,0.40,1.07,0.40,1.08,-1.07,-1.28,-1.40,-0.67,-0.67,-0.67
217.85,0.33,1.02,0.33,1.02,-1.01,-1.20,-1.38,-0.69,-0.68,-0.69
220.03,0.28,0.97,0.27,0.97,-0.96,-1.13,-1.37,-0.68,-0.69,-0.70
222.23,0.22,0.93,0.21,0.92,-0.91,-1.08,-1.35,-0.70,-0.70,-0.71
224.45,0.15,0.86,0.16,0.87,-0.87,-1.02,-1.34,-0.72,-0.72,-0.71
226.70,0.11,0.83,0.11,0.83,-0.84,-0.99,-1.33,-0.73,-0.73,-0.72
228.96,0.08,0.80,0.08,0.80,-0.82,-0.95,-1.32,-0.74,-0.74,-0.72
231.25,0.06,0.79,0.06,0.80,-0.80,-0.94,-1.31,-0.75,-0.74,-0.73
233.57,0.06,0.81,0.05,0.80,-0.80,-0.93,-1.30,-0.74,-0.75,-0.75
235.90,0.05,0.81,0.05,0.81,-0.80,-0.94,-1.29,-0.76,-0.76,-0.76
238.26,0.05,0.83,0.05,0.83,-0.82,-0.96,-1.28,-0.77,-0.77,-0.78
240.64,0.06,0.85,0.05,0.84,-0.85,-0.99,-1.27,-0.79,-0.80,-0.79
243.05,0.07,0.87,0.07,0.87,-0.88,-1.02,-1.26,-0.81,-0.81,-0.80
245.48,0.10,0.90,0.10,0.91,-0.92,-1.05,-1.25,-0.82,-0.82,-0.81
247.93,0.16,0.97,0.15,0.96,-0.96,-1.09,-1.24,-0.81,-0.82,-0.81
250.41,0.19,1.01,0.20,1.01,-1.01,-1.13,-1.24,-0.82,-0.81,-0.83
252.92,0.26,1.07,0.25,1.07,-1.06,-1.17,-1.23,-0.80,-0.81,-0.81
255.45,0.31,1.11,0.31,1.11,-1.11,-1.20,-1.22,-0.80,-0.80,-0.80
258.00,0.36,1.16,0.36,1.16,-1.15,-1.24,-1.22,-0.79,-0.79,-0.80
260.58,0.42,1.21,0.42,1.21,-1.20,-1.27,-1.21,-0.78,-0.78,-0.79
263.19,0.47,1.24,0.47,1.25,-1.24,-1.30,-1.20,-0.77,-0.77,-0.78
265.82,0.52,1.29,0.51,1.28,-1.28,-1.32,-1.20,-0.76,-0.76,-0.77
268.48,0.56,1.30,0.56,1.31,-1.32,-1.35,-1.19,-0.76,-0.76,-0.74
271.16,0.61,1.34,0.62,1.34,-1.36,-1.37,-1.19,-0.75,-0.74,-0.73
273.87,0.69,1.40,0.68,1.39,-1.40,-1.39,-1.18,-0.71,-0.72,-0.71
276.61,0.75,1.43,0.75,1.44,-1.44,-1.40,-1.18,-0.70,-0.70,-0.68
279.38,0.82,1.49,0.82,1.49,-1.49,-1.42,-1.18,-0.67,-0.67,-0.68
282.17,0.88,1.54,0.88,1.54,-1.53,-1.43,-1.17,-0.65,-0.65,-0.66
284.99,0.94,1.58,0.94,1.58,-1.57,-1.44,-1.17,-0.63,-0.63,-0.64
287.84,1.00,1.62,0.99,1.62,-1.61,-1.45,-1.17,-0.61,-0.62,-0.63
290.72,1.04,1.64,1.04,1.64,-1.64,-1.45,-1.17,-0.61,-0.60,-0.60
293.63,1.08,1.67,1.08,1.67,-1.67,-1.46,-1.17,-0.60,-0.59,-0.59
296.57,1.13,1.69,1.12,1.69,-1.70,-1.46,-1.17,-0.57,-0.57,-0.56
299.53,1.17,1.71,1.17,1.72,-1.72,-1.47,-1.17,-0.55,-0.55,-0.55
302.53,1.22,1.76,1.21,1.74,-1.74,-1.47,-1.17,-0.52,-0.53,-0.54
305.55,1.26,1.76,1.26,1.76,-1.76,-1.47,-1.17,-0.50,-0.50,-0.50
308.61,1.29,1.77,1.30,1.78,-1.77,-1.48,-1.17,-0.48,-0.47,-0.48
311.69,1.34,1.79,1.33,1.78,-1.78,-1.48,-1.18,-0.44,-0.45,-0.45
314.81,1.37,1.78,1.37,1.79,-1.79,-1.48,-1.18,-0.43,-0.43,-0.42
317.96,1.40,1.80,1.40,1.79,-1.80,-1.48,-1.19,-0.40,-0.41,-0.40
321.14,1.42,1.80,1.42,1.80,-1.81,-1.49,-1.19,-0.39,-0.39,-0.38
324.35,1.45,1.81,1.45,1.81,-1.81,-1.49,-1.20,-0.37,-0.36,-0.36
327.59,1.49,1.82,1.48,1.82,-1.82,-1.49,-1.21,-0.33,-0.34,-0.33
330.87,1.51,1.82,1.51,1.82,-1.82,-1.49,-1.22,-0.31,-0.31,-0.32
334.18,1.53,1.81,1.53,1.82,-1.82,-1.49,-1.23,-0.29,-0.29,-0.29
337.52,1.56,1.83,1.55,1.82,-1.81,-1.50,-1.24,-0.25,-0.26,-0.27
340.90,1.57,1.81,1.57,1.81,-1.80,-1.50,-1.25,-0.23,-0.23,-0.24
344.30,1.58,1.79,1.58,1.79,-1.78,-1.50,-1.27,-0.20,-0.20,-0.21
347.75,1.58,1.77,1.57,1.76,-1.76,-1.51,-1.28,-0.18,-0.19,-0.19
351.23,1.57,1.73,1.57,1.73,-1.74,-1.51,-1.30,-0.17,-0.17,-0.16
354.74,1.56,1.69,1.56,1.70,-1.71,-1.52,-1.31,-0.15,-0.15,-0.13
358.28,1.56,1.67,1.56,1.67,-1.68,-1.53,-1.33,-0.12,-0.12,-0.12
361.87,1.56,1.64,1.56,1.65,-1.65,-1.54,-1.35,-0.09,-0.09,-0.09
365.49,1.56,1.62,1.56,1.62,-1.61,-1.54,-1.37,-0.06,-0.06,-0.06
369.14,1.56,1.61,1.55,1.60,-1.58,-1.55,-1.39,-0.03,-0.03,-0.05
372.83,1.55,1.57,1.54,1.56,-1.56,-1.56,-1.41,-0.01,-0.01,-0.02
376.56,1.53,1.53,1.53,1.53,-1.53,-1.58,-1.43,-0.00,0.00,-0.00
380.33,1.53,1.49,1.53,1.50,-1.51,-1.59,-1.46,0.02,0.02,0.04
384.13,1.54,1.49,1.53,1.49,-1.50,-1.60,-1.48,0.04,0.04,0.05
387.97,1.55,1.48,1.55,1.48,-1.49,-1.62,-1.51,0.06,0.06,0.07
391.85,1.57,1.49,1.57,1.49,-1.49,-1.63,-1.53,0.08,0.08,0.08
395.77,1.60,1.49,1.60,1.50,-1.50,-1.65,-1.56,0.10,0.10,0.10
399.73,1.63,1.51,1.63,1.52,-1.52,-1.67,-1.58,0.11,0.11,0.11
403.72,1.66,1.54,1.66,1.54,-1.54,-1.69,-1.61,0.12,0.12,0.11
407.76,1.69,1.57,1.69,1.57,-1.57,-1.71,-1.64,0.12,0.12,0.12
411.84,1.73,1.60,1.72,1.60,-1.60,-1.73,-1.66,0.13,0.13,0.13
415.96,1.76,1.63,1.76,1.63,-1.63,-1.75,-1.69,0.13,0.13,0.13
420.12,1.79,1.66,1.79,1.66,-1.66,-1.77,-1.72,0.13,0.13,0.13
424.32,1.82,1.69,1.82,1.69,-1.69,-1.80,-1.74,0.13,0.13,0.13
428.56,1.85,1.72,1.85,1.72,-1.71,-1.82,-1.77,0.14,0.14,0.13
432.85,1.87,1.75,1.86,1.74,-1.73,-1.84,-1.79,0.14,0.13,0.12
437.18,1.88,1.76,1.88,1.76,-1.75,-1.87,-1.82,0.13,0.13,0.12
441.55,1.88,1.76,1.88,1.77,-1.77,-1.89,-1.84,0.11,0.12,0.12
445.96,1.89,1.78,1.89,1.77,-1.78,-1.91,-1.86,0.10,0.10,0.11
450.42,1.90,1.79,1.90,1.79,-1.80,-1.93,-1.88,0.09,0.09,0.11
454.93,1.91,1.80,1.91,1.81,-1.82,-1.95,-1.90,0.09,0.09,0.11
459.48,1.94,1.84,1.94,1.83,-1.84,-1.97,-1.92,0.09,0.09,0.10
464.07,1.97,1.86,1.97,1.87,-1.87,-1.98,-1.93,0.10,0.10,0.11
468.71,2.00,1.89,2.00,1.89,-1.89,-2.00,-1.95,0.11,0.11,0.11
473.40,2.03,1.92,2.03,1.92,-1.91,-2.01,-1.96,0.12,0.11,0.10
478.13,2.05,1.93,2.05,1.94,-1.93,-2.01,-1.96,0.12,0.11,0.11
482.91,2.06,1.95,2.06,1.95,-1.95,-2.02,-1.97,0.11,0.11,0.10
487.74,2.07,1.95,2.07,1.95,-1.95,-2.02,-1.97,0.11,0.11,0.11
492.62,2.07,1.94,2.07,1.95,-1.95,-2.01,-1.97,0.11,0.12,0.12
497.55,2.07,1.95,2.07,1.95,-1.95,-2.00,-1.97,0.12,0.12,0.11
502.52,2.06,1.93,2.06,1.94,-1.93,-1.99,-1.96,0.13,0.13,0.12
