frequency,raw,error,smoothed,error_smoothed,equalization,parametric_eq,fixed_band_eq,equalized_raw,equalized_smoothed,target
20.00,-11.92,-11.24,-11.92,-11.27,6.00,4.26,2.63,-5.92,-5.92,-0.68
20.20,-11.76,-11.17,-11.76,-11.19,6.00,4.39,2.71,-5.76,-5.76,-0.59
20.40,-11.60,-11.09,-11.60,-11.10,6.00,4.51,2.79,-5.60,-5.60,-0.51
20.61,-11.45,-11.01,-11.44,-11.01,6.00,4.63,2.87,-5.45,-5.44,-0.44
20.81,-11.28,-10.93,-11.29,-10.92,6.00,4.76,2.95,-5.28,-5.29,-0.35
21.02,-11.12,-10.85,-11.13,-10.83,6.00,4.89,3.03,-5.12,-5.13,-0.27
21.23,-10.97,-10.76,-10.97,-10.73,6.00,5.02,3.12,-4.97,-4.97,-0.21
21.44,-10.81,-10.66,-10.81,-10.64,6.00,5.15,3.21,-4.81,-4.81,-0.15
21.66,-10.65,-10.55,-10.65,-10.53,6.00,5.28,3.31,-4.65,-4.65,-0.10
21.87,-10.49,-10.44,-10.49,-10.43,6.00,5.42,3.40,-4.49,-4.49,-0.05
22.09,-10.33,-10.33,-10.33,-10.33,6.00,5.55,3.50,-4.33,-4.33,0.00
22.31,-10.17,-10.22,-10.17,-10.22,6.00,5.67,3.60,-4.17,-4.17,0.05
22.54,-10.01,-10.10,-10.01,-10.10,6.00,5.80,3.70,-4.01,-4.01,0.09
22.76,-9.85,-9.98,-9.85,-9.98,6.00,5.93,3.81,-3.85,-3.85,0.13
22.99,-9.69,-9.85,-9.69,-9.86,6.00,6.05,3.92,-3.69,-3.69,0.16
23.22,-9.53,-9.73,-9.53,-9.74,6.00,6.16,4.03,-3.53,-3.53,0.20
23.45,-9.37,-9.61,-9.37,-9.62,6.00,6.27,4.15,-3.37,-3.37,0.24
23.69,-9.21,-9.49,-9.21,-9.50,6.00,6.38,4.26,-3.21,-3.21,0.28
23.92,-9.05,-9.37,-9.05,-9.37,6.00,6.48,4.38,-3.05,-3.05,0.32
24.16,-8.89,-9.26,-8.89,-9.25,6.00,6.57,4.50,-2.89,-2.89,0.37
24.40,-8.73,-9.13,-8.74,-9.13,6.00,6.64,4.62,-2.73,-2.74,0.40
24.65,-8.58,-9.01,-8.58,-9.00,6.00,6.71,4.75,-2.58,-2.58,0.43
24.89,-8.42,-8.88,-8.42,-8.88,6.00,6.77,4.88,-2.42,-2.42,0.46
25.14,-8.26,-8.76,-8.26,-8.75,6.00,6.82,5.00,-2.26,-2.26,0.50
25.39,-8.10,-8.62,-8.10,-8.63,6.00,6.85,5.13,-2.10,-2.10,0.52
25.65,-7.95,-8.52,-7.95,-8.51,6.00,6.88,5.26,-1.95,-1.95,0.56
25.91,-7.80,-8.38,-7.79,-8.38,6.00,6.89,5.39,-1.80,-1.79,0.58
26.16,-7.63,-8.24,-7.63,-8.26,6.00,6.88,5.52,-1.63,-1.63,0.61
26.43,-7.48,-8.14,-7.48,-8.13,6.00,6.86,5.65,-1.48,-1.48,0.65
26.69,-7.32,-8.00,-7.32,-8.01,6.00,6.83,5.78,-1.32,-1.32,0.68
26.96,-7.16,-7.87,-7.17,-7.88,6.00,6.79,5.90,-1.16,-1.17,0.71
27.23,-7.01,-7.76,-7.02,-7.76,6.00,6.73,6.02,-1.01,-1.02,0.75
27.50,-6.86,-7.64,-6.86,-7.64,6.00,6.67,6.14,-0.86,-0.86,0.78
27.77,-6.71,-7.51,-6.71,-7.51,6.00,6.59,6.26,-0.71,-0.71,0.80
28.05,-6.56,-7.40,-6.56,-7.39,6.00,6.50,6.36,-0.56,-0.56,0.84
28.33,-6.41,-7.27,-6.41,-7.27,6.00,6.40,6.47,-0.41,-0.41,0.86
28.62,-6.26,-7.15,-6.26,-7.15,6.00,6.30,6.56,-0.26,-0.26,0.89
28.90,-6.11,-7.04,-6.11,-7.04,6.00,6.19,6.65,-0.11,-0.11,0.93
29.19,-5.97,-6.92,-5.97,-6.92,6.00,6.07,6.73,0.03,0.03,0.94
29.48,-5.82,-6.81,-5.82,-6.81,6.00,5.95,6.80,0.18,0.18,0.99
29.78,-5.68,-6.70,-5.68,-6.69,6.00,5.82,6.85,0.32,0.32,1.01
30.08,-5.54,-6.59,-5.54,-6.58,6.00,5.69,6.90,0.46,0.46,1.04
30.38,-5.40,-6.47,-5.41,-6.47,6.00,5.55,6.93,0.60,0.59,1.07
30.68,-5.26,-6.36,-5.27,-6.37,6.00,5.42,6.96,0.74,0.73,1.10
30.99,-5.13,-6.25,-5.14,-6.26,5.99,5.28,6.97,0.85,0.85,1.12
31.30,-5.00,-6.15,-5.01,-6.15,5.96,5.15,6.96,0.96,0.95,1.15
31.61,-4.87,-6.05,-4.88,-6.05,5.92,5.01,6.94,1.05,1.04,1.18
31.93,-4.75,-5.95,-4.75,-5.95,5.86,4.87,6.91,1.11,1.11,1.19
32.24,-4.63,-5.84,-4.62,-5.84,5.79,4.74,6.87,1.16,1.17,1.21
32.57,-4.50,-5.74,-4.50,-5.74,5.72,4.60,6.81,1.21,1.22,1.24
32.89,-4.38,-5.65,-4.37,-5.64,5.63,4.47,6.74,1.25,1.26,1.27
33.22,-4.26,-5.55,-4.25,-5.54,5.54,4.34,6.66,1.28,1.28,1.29
33.55,-4.13,-5.44,-4.14,-5.44,5.44,4.21,6.57,1.31,1.30,1.31
33.89,-4.01,-5.33,-4.02,-5.34,5.34,4.09,6.47,1.33,1.32,1.32
34.23,-3.89,-5.24,-3.90,-5.24,5.24,3.96,6.37,1.35,1.34,1.34
34.57,-3.78,-5.13,-3.79,-5.14,5.14,3.84,6.25,1.36,1.35,1.35
34.92,-3.67,-5.03,-3.68,-5.04,5.04,3.72,6.13,1.36,1.36,1.36
35.27,-3.56,-4.94,-3.56,-4.94,4.94,3.61,6.00,1.37,1.37,1.38
35.62,-3.45,-4.83,-3.46,-4.84,4.84,3.49,5.86,1.38,1.38,1.38
35.97,-3.35,-4.74,-3.35,-4.74,4.74,3.38,5.72,1.39,1.39,1.38
36.33,-3.24,-4.64,-3.24,-4.64,4.64,3.28,5.58,1.39,1.39,1.40
36.70,-3.14,-4.54,-3.14,-4.53,4.53,3.17,5.44,1.39,1.40,1.40
37.06,-3.03,-4.43,-3.03,-4.43,4.43,3.07,5.29,1.40,1.40,1.40
37.43,-2.93,-4.34,-2.93,-4.33,4.33,2.97,5.14,1.40,1.40,1.40
37.81,-2.82,-4.22,-2.83,-4.23,4.23,2.87,4.99,1.41,1.40,1.40
38.19,-2.72,-4.12,-2.73,-4.13,4.13,2.78,4.84,1.40,1.40,1.40
38.57,-2.63,-4.04,-2.62,-4.02,4.02,2.69,4.69,1.39,1.40,1.41
38.95,-2.53,-3.93,-2.52,-3.92,3.92,2.60,4.54,1.39,1.40,1.40
39.34,-2.42,-3.81,-2.42,-3.82,3.82,2.51,4.39,1.39,1.40,1.39
39.74,-2.31,-3.70,-2.32,-3.71,3.71,2.43,4.24,1.40,1.39,1.39
40.14,-2.21,-3.60,-2.22,-3.61,3.61,2.34,4.10,1.39,1.39,1.38
40.54,-2.11,-3.49,-2.11,-3.50,3.50,2.26,3.95,1.39,1.38,1.38
40.94,-2.01,-3.39,-2.01,-3.39,3.39,2.19,3.81,1.38,1.38,1.38
41.35,-1.91,-3.29,-1.91,-3.29,3.29,2.11,3.67,1.37,1.37,1.37
41.76,-1.81,-3.18,-1.81,-3.18,3.18,2.04,3.53,1.36,1.37,1.37
42.18,-1.71,-3.08,-1.71,-3.07,3.07,1.97,3.39,1.35,1.36,1.37
42.60,-1.60,-2.95,-1.60,-2.96,2.96,1.90,3.25,1.35,1.35,1.35
43.03,-1.50,-2.86,-1.50,-2.85,2.85,1.83,3.12,1.34,1.34,1.36
43.46,-1.40,-2.75,-1.40,-2.74,2.74,1.76,2.99,1.33,1.34,1.34
43.90,-1.29,-2.62,-1.30,-2.63,2.63,1.70,2.86,1.33,1.33,1.33
44.33,-1.19,-2.51,-1.19,-2.52,2.52,1.64,2.73,1.33,1.32,1.31
44.78,-1.09,-2.40,-1.09,-2.41,2.41,1.58,2.60,1.31,1.31,1.31
45.23,-0.99,-2.29,-0.99,-2.29,2.29,1.52,2.48,1.30,1.31,1.29
45.68,-0.88,-2.17,-0.88,-2.18,2.18,1.46,2.36,1.30,1.30,1.29
46.13,-0.78,-2.07,-0.78,-2.07,2.07,1.40,2.24,1.29,1.29,1.28
46.60,-0.68,-1.97,-0.68,-1.96,1.96,1.35,2.12,1.28,1.28,1.29
47.06,-0.58,-1.86,-0.57,-1.85,1.85,1.30,2.01,1.27,1.28,1.28
47.53,-0.47,-1.75,-0.47,-1.74,1.74,1.24,1.89,1.27,1.27,1.28
48.01,-0.36,-1.64,-0.37,-1.63,1.63,1.19,1.78,1.27,1.27,1.28
48.49,-0.26,-1.54,-0.26,-1.53,1.53,1.14,1.67,1.27,1.26,1.27
48.97,-0.16,-1.43,-0.16,-1.43,1.43,1.09,1.56,1.26,1.26,1.27
49.46,-0.06,-1.31,-0.06,-1.32,1.32,1.05,1.46,1.26,1.26,1.25
49.96,0.04,-1.20,0.04,-1.22,1.22,1.00,1.35,1.26,1.26,1.24
50.46,0.14,-1.12,0.14,-1.12,1.12,0.95,1.25,1.26,1.26,1.25
50.96,0.24,-1.03,0.24,-1.03,1.03,0.91,1.15,1.26,1.26,1.27
51.47,0.34,-0.92,0.33,-0.93,0.93,0.86,1.05,1.27,1.26,1.26
51.99,0.44,-0.82,0.43,-0.84,0.84,0.82,0.96,1.27,1.26,1.26
52.51,0.53,-0.74,0.52,-0.75,0.75,0.78,0.86,1.27,1.26,1.27
53.03,0.61,-0.66,0.61,-0.66,0.66,0.74,0.77,1.26,1.26,1.27
53.56,0.70,-0.57,0.70,-0.57,0.57,0.69,0.68,1.26,1.26,1.27
54.10,0.78,-0.50,0.78,-0.48,0.48,0.65,0.59,1.26,1.26,1.27
54.64,0.87,-0.40,0.87,-0.39,0.39,0.61,0.50,1.26,1.26,1.26
55.18,0.95,-0.31,0.95,-0.31,0.31,0.57,0.42,1.26,1.26,1.26
55.74,1.02,-0.23,1.03,-0.23,0.23,0.53,0.34,1.24,1.26,1.25
56.29,1.10,-0.15,1.11,-0.14,0.14,0.50,0.25,1.24,1.25,1.25
56.86,1.18,-0.06,1.18,-0.06,0.06,0.46,0.18,1.24,1.24,1.24
57.42,1.26,0.03,1.25,0.02,-0.02,0.42,0.10,1.24,1.23,1.23
58.00,1.33,0.10,1.32,0.10,-0.10,0.38,0.03,1.23,1.22,1.22
58.58,1.39,0.18,1.39,0.18,-0.18,0.35,-0.04,1.21,1.21,1.21
59.16,1.46,0.25,1.45,0.26,-0.26,0.31,-0.11,1.20,1.19,1.21
59.76,1.52,0.32,1.51,0.34,-0.34,0.27,-0.18,1.18,1.18,1.19
60.35,1.58,0.41,1.57,0.41,-0.41,0.24,-0.24,1.17,1.16,1.17
60.96,1.63,0.46,1.62,0.47,-0.47,0.20,-0.30,1.15,1.15,1.17
61.57,1.67,0.54,1.67,0.54,-0.54,0.16,-0.36,1.13,1.13,1.13
62.18,1.71,0.60,1.71,0.59,-0.59,0.13,-0.41,1.11,1.12,1.11
62.80,1.76,0.66,1.75,0.65,-0.65,0.09,-0.47,1.11,1.10,1.10
63.43,1.79,0.71,1.78,0.69,-0.69,0.06,-0.52,1.09,1.09,1.07
64.07,1.81,0.74,1.81,0.73,-0.73,0.02,-0.57,1.07,1.08,1.07
64.71,1.84,0.78,1.84,0.77,-0.77,-0.01,-0.61,1.07,1.07,1.06
65.35,1.86,0.81,1.85,0.79,-0.79,-0.05,-0.65,1.06,1.06,1.05
66.01,1.87,0.82,1.87,0.81,-0.81,-0.09,-0.70,1.05,1.06,1.05
66.67,1.88,0.82,1.88,0.83,-0.83,-0.12,-0.74,1.05,1.05,1.05
67.33,1.90,0.84,1.88,0.83,-0.83,-0.16,-0.77,1.07,1.05,1.05
68.01,1.91,0.85,1.89,0.84,-0.84,-0.19,-0.81,1.07,1.05,1.05
68.69,1.90,0.85,1.89,0.83,-0.83,-0.23,-0.84,1.06,1.06,1.05
69.37,1.90,0.84,1.89,0.83,-0.83,-0.27,-0.88,1.07,1.06,1.06
70.07,1.89,0.83,1.89,0.82,-0.82,-0.30,-0.91,1.06,1.06,1.06
70.77,1.88,0.80,1.88,0.82,-0.82,-0.34,-0.94,1.06,1.06,1.08
71.48,1.88,0.80,1.88,0.82,-0.82,-0.38,-0.97,1.06,1.07,1.07
72.19,1.87,0.80,1.88,0.81,-0.81,-0.42,-1.00,1.06,1.07,1.07
72.91,1.87,0.79,1.88,0.81,-0.81,-0.45,-1.03,1.06,1.07,1.08
73.64,1.88,0.81,1.89,0.81,-0.81,-0.49,-1.06,1.06,1.07,1.07
74.38,1.89,0.81,1.89,0.82,-0.82,-0.53,-1.09,1.07,1.07,1.08
75.12,1.90,0.83,1.90,0.83,-0.83,-0.57,-1.11,1.07,1.07,1.07
75.87,1.92,0.84,1.92,0.85,-0.85,-0.61,-1.14,1.07,1.07,1.07
76.63,1.93,0.85,1.94,0.87,-0.87,-0.65,-1.17,1.06,1.07,1.08
77.40,1.95,0.88,1.96,0.89,-0.89,-0.70,-1.20,1.06,1.07,1.07
78.17,1.98,0.92,1.99,0.91,-0.91,-0.74,-1.23,1.07,1.07,1.06
78.95,2.02,0.94,2.02,0.94,-0.94,-0.78,-1.26,1.08,1.08,1.08
79.74,2.06,0.98,2.05,0.97,-0.97,-0.82,-1.29,1.09,1.08,1.08
80.54,2.10,1.02,2.09,1.01,-1.01,-0.87,-1.32,1.09,1.09,1.08
81.35,2.14,1.05,2.14,1.04,-1.04,-0.91,-1.36,1.10,1.10,1.09
82.16,2.18,1.08,2.18,1.07,-1.07,-0.96,-1.39,1.11,1.11,1.10
82.98,2.22,1.10,2.23,1.11,-1.11,-1.00,-1.43,1.11,1.12,1.12
83.81,2.27,1.14,2.27,1.14,-1.14,-1.05,-1.46,1.13,1.13,1.13
84.65,2.32,1.19,2.32,1.18,-1.18,-1.10,-1.50,1.14,1.15,1.13
85.50,2.37,1.21,2.37,1.21,-1.21,-1.15,-1.54,1.16,1.16,1.16
86.35,2.43,1.25,2.42,1.24,-1.24,-1.20,-1.58,1.18,1.17,1.18
87.22,2.48,1.30,2.46,1.28,-1.28,-1.25,-1.62,1.20,1.18,1.18
88.09,2.53,1.33,2.51,1.31,-1.31,-1.30,-1.67,1.21,1.19,1.20
88.97,2.57,1.36,2.55,1.35,-1.35,-1.36,-1.71,1.22,1.20,1.21
89.86,2.60,1.38,2.60,1.39,-1.39,-1.41,-1.76,1.21,1.21,1.21
90.76,2.64,1.43,2.64,1.44,-1.44,-1.47,-1.80,1.20,1.21,1.21
91.66,2.68,1.47,2.69,1.48,-1.48,-1.52,-1.85,1.19,1.20,1.21
92.58,2.73,1.53,2.73,1.54,-1.54,-1.58,-1.90,1.19,1.20,1.20
93.51,2.77,1.57,2.78,1.59,-1.59,-1.64,-1.95,1.18,1.19,1.20
94.44,2.81,1.63,2.82,1.65,-1.65,-1.70,-2.01,1.16,1.17,1.18
95.39,2.85,1.69,2.86,1.71,-1.71,-1.76,-2.06,1.14,1.15,1.16
96.34,2.89,1.75,2.90,1.77,-1.77,-1.82,-2.12,1.12,1.12,1.13
97.30,2.94,1.84,2.93,1.84,-1.84,-1.88,-2.17,1.10,1.10,1.10
98.28,2.98,1.91,2.97,1.90,-1.90,-1.94,-2.23,1.07,1.06,1.07
99.26,3.02,1.99,3.00,1.97,-1.97,-2.01,-2.29,1.04,1.03,1.03
100.25,3.06,2.07,3.03,2.04,-2.04,-2.07,-2.35,1.02,0.99,0.99
101.25,3.08,2.13,3.06,2.11,-2.11,-2.13,-2.41,0.97,0.95,0.95
102.27,3.10,2.19,3.08,2.17,-2.17,-2.20,-2.47,0.93,0.91,0.91
103.29,3.11,2.25,3.10,2.23,-2.23,-2.27,-2.53,0.87,0.87,0.86
104.32,3.13,2.30,3.12,2.29,-2.29,-2.33,-2.58,0.83,0.83,0.83
105.37,3.14,2.36,3.14,2.35,-2.35,-2.40,-2.64,0.78,0.79,0.78
106.42,3.15,2.40,3.16,2.41,-2.41,-2.46,-2.70,0.73,0.75,0.74
107.48,3.17,2.46,3.18,2.47,-2.47,-2.53,-2.76,0.70,0.71,0.70
108.56,3.19,2.52,3.19,2.53,-2.53,-2.59,-2.82,0.66,0.67,0.66
109.64,3.21,2.58,3.21,2.58,-2.58,-2.66,-2.87,0.62,0.63,0.63
110.74,3.22,2.62,3.23,2.64,-2.64,-2.72,-2.92,0.58,0.59,0.60
111.85,3.24,2.67,3.26,2.70,-2.70,-2.78,-2.98,0.54,0.56,0.57
112.97,3.27,2.75,3.28,2.76,-2.76,-2.84,-3.02,0.51,0.53,0.52
114.10,3.31,2.81,3.31,2.82,-2.82,-2.90,-3.07,0.49,0.50,0.50
115.24,3.34,2.88,3.34,2.87,-2.87,-2.95,-3.11,0.47,0.47,0.46
116.39,3.37,2.93,3.37,2.93,-2.93,-3.01,-3.15,0.44,0.44,0.43
117.55,3.40,2.98,3.40,2.98,-2.98,-3.06,-3.19,0.42,0.42,0.42
118.73,3.43,3.04,3.43,3.03,-3.03,-3.11,-3.22,0.40,0.40,0.39
119.92,3.47,3.09,3.45,3.07,-3.07,-3.15,-3.24,0.40,0.38,0.38
121.12,3.49,3.12,3.48,3.11,-3.11,-3.19,-3.27,0.38,0.37,0.36
122.33,3.50,3.15,3.50,3.14,-3.14,-3.23,-3.28,0.35,0.35,0.35
123.55,3.52,3.17,3.51,3.18,-3.18,-3.27,-3.29,0.34,0.34,0.34
124.79,3.53,3.20,3.52,3.20,-3.20,-3.29,-3.30,0.33,0.32,0.33
126.03,3.54,3.22,3.53,3.21,-3.21,-3.32,-3.30,0.33,0.31,0.32
127.29,3.54,3.23,3.53,3.23,-3.23,-3.34,-3.30,0.31,0.30,0.31
128.57,3.53,3.24,3.52,3.23,-3.23,-3.36,-3.29,0.30,0.29,0.28
129.85,3.52,3.24,3.51,3.23,-3.23,-3.37,-3.28,0.28,0.28,0.28
131.15,3.50,3.23,3.49,3.23,-3.23,-3.37,-3.27,0.27,0.26,0.27
132.46,3.49,3.24,3.47,3.22,-3.22,-3.38,-3.24,0.26,0.25,0.24
133.79,3.46,3.22,3.45,3.22,-3.22,-3.37,-3.22,0.24,0.24,0.24
135.12,3.43,3.21,3.43,3.21,-3.21,-3.37,-3.19,0.22,0.22,0.22
136.48,3.40,3.19,3.40,3.19,-3.19,-3.35,-3.16,0.20,0.20,0.21
137.84,3.36,3.17,3.37,3.18,-3.18,-3.34,-3.12,0.18,0.19,0.19
139.22,3.34,3.18,3.34,3.17,-3.17,-3.32,-3.08,0.17,0.17,0.16
140.61,3.31,3.17,3.31,3.16,-3.16,-3.30,-3.04,0.15,0.15,0.14
142.02,3.26,3.13,3.29,3.16,-3.16,-3.27,-2.99,0.10,0.13,0.13
143.44,3.25,3.13,3.26,3.15,-3.15,-3.24,-2.95,0.10,0.11,0.11
144.87,3.22,3.13,3.24,3.15,-3.15,-3.21,-2.90,0.07,0.09,0.09
146.32,3.21,3.15,3.22,3.15,-3.15,-3.17,-2.85,0.05,0.06,0.06
147.78,3.18,3.13,3.20,3.16,-3.16,-3.13,-2.80,0.02,0.04,0.04
149.26,3.17,3.15,3.18,3.16,-3.16,-3.09,-2.75,0.01,0.01,0.02
150.75,3.14,3.15,3.15,3.17,-3.17,-3.05,-2.70,-0.03,-0.01,-0.02
152.26,3.14,3.18,3.13,3.17,-3.17,-3.01,-2.65,-0.03,-0.04,-0.04
153.78,3.13,3.19,3.11,3.18,-3.18,-2.96,-2.60,-0.05,-0.07,-0.06
155.32,3.11,3.21,3.08,3.18,-3.18,-2.92,-2.54,-0.07,-0.10,-0.10
156.88,3.06,3.18,3.04,3.17,-3.17,-2.87,-2.49,-0.12,-0.13,-0.12
158.44,3.02,3.18,3.01,3.17,-3.17,-2.83,-2.44,-0.15,-0.16,-0.16
160.03,2.97,3.16,2.96,3.16,-3.16,-2.78,-2.39,-0.19,-0.19,-0.19
161.63,2.92,3.15,2.91,3.14,-3.14,-2.73,-2.35,-0.22,-0.23,-0.23
163.24,2.87,3.13,2.86,3.12,-3.12,-2.69,-2.30,-0.25,-0.26,-0.26
164.88,2.80,3.09,2.80,3.09,-3.09,-2.64,-2.25,-0.30,-0.29,-0.29
166.53,2.74,3.06,2.74,3.06,-3.06,-2.60,-2.21,-0.32,-0.32,-0.32
168.19,2.67,3.02,2.67,3.02,-3.02,-2.55,-2.17,-0.35,-0.35,-0.35
169.87,2.58,2.96,2.59,2.98,-2.98,-2.51,-2.12,-0.40,-0.38,-0.38
171.57,2.51,2.92,2.51,2.92,-2.92,-2.46,-2.08,-0.42,-0.41,-0.41
173.29,2.45,2.88,2.43,2.87,-2.87,-2.42,-2.04,-0.42,-0.44,-0.44
175.02,2.35,2.81,2.34,2.81,-2.81,-2.38,-2.01,-0.46,-0.46,-0.46
176.77,2.26,2.75,2.25,2.74,-2.74,-2.34,-1.97,-0.48,-0.48,-0.49
178.54,2.17,2.68,2.16,2.66,-2.66,-2.30,-1.94,-0.50,-0.50,-0.51
180.32,2.08,2.61,2.06,2.59,-2.59,-2.26,-1.90,-0.51,-0.52,-0.53
182.13,1.99,2.53,1.97,2.51,-2.51,-2.22,-1.87,-0.52,-0.54,-0.54
183.95,1.85,2.41,1.87,2.42,-2.42,-2.18,-1.84,-0.57,-0.55,-0.56
185.79,1.75,2.32,1.76,2.33,-2.33,-2.15,-1.81,-0.59,-0.57,-0.57
187.65,1.66,2.24,1.66,2.24,-2.24,-2.11,-1.79,-0.58,-0.58,-0.58
189.52,1.56,2.15,1.56,2.15,-2.15,-2.08,-1.76,-0.59,-0.59,-0.59
191.42,1.45,2.05,1.45,2.05,-2.05,-2.05,-1.74,-0.60,-0.60,-0.60
193.33,1.35,1.95,1.35,1.96,-1.96,-2.02,-1.72,-0.61,-0.61,-0.60
195.27,1.26,1.86,1.25,1.86,-1.86,-1.99,-1.70,-0.61,-0.61,-0.60
197.22,1.16,1.77,1.15,1.77,-1.77,-1.96,-1.68,-0.61,-0.62,-0.62
199.19,1.06,1.69,1.05,1.68,-1.68,-1.93,-1.66,-0.62,-0.63,-0.64
201.18,0.96,1.59,0.96,1.59,-1.59,-1.90,-1.64,-0.63,-0.63,-0.64
203.19,0.86,1.49,0.87,1.51,-1.51,-1.88,-1.63,-0.65,-0.64,-0.64
205.23,0.76,1.40,0.78,1.43,-1.43,-1.85,-1.61,-0.67,-0.65,-0.65
207.28,0.69,1.33,0.69,1.35,-1.35,-1.83,-1.60,-0.66,-0.65,-0.65
209.35,0.61,1.26,0.61,1.27,-1.27,-1.80,-1.58,-0.66,-0.66,-0.66
211.44,0.54,1.21,0.53,1.20,-1.20,-1.78,-1.57,-0.66,-0.67,-0.67
213.56,0.47,1.14,0.46,1.13,-1.13,-1.76,-1.56,-0.66,-0.67,-0.67
215.69,0.40,1.07,0.39,1.07,-1.07,-1.74,-1.55,-0.67,-0.68,-0.67
217.85,0.33,1.02,0.32,1.01,-1.01,-1.72,-1.54,-0.68,-0.69,-0.69
220.03,0.28,0.97,0.26,0.96,-0.96,-1.70,-1.53,-0.68,-0.69,-0.70
222.23,0.22,0.93,0.21,0.91,-0.91,-1.68,-1.53,-0.70,-0.70,-0.71
224.45,0.15,0.86,0.16,0.88,-0.88,-1.67,-1.52,-0.73,-0.71,-0.71
226.70,0.11,0.83,0.13,0.85,-0.85,-1.65,-1.51,-0.74,-0.72,-0.72
228.96,0.08,0.80,0.09,0.83,-0.83,-1.64,-1.50,-0.75,-0.74,-0.72
231.25,0.06,0.79,0.07,0.82,-0.82,-1.62,-1.50,-0.76,-0.75,-0.73
233.57,0.06,0.81,0.06,0.81,-0.81,-1.61,-1.49,-0.76,-0.76,-0.75
235.90,0.05,0.81,0.05,0.82,-0.82,-1.59,-1.48,-0.77,-0.77,-0.76
238.26,0.05,0.83,0.06,0.83,-0.83,-1.58,-1.48,-0.79,-0.78,-0.78
240.64,0.06,0.85,0.07,0.86,-0.86,-1.57,-1.47,-0.80,-0.79,-0.79
243.05,0.07,0.87,0.09,0.89,-0.89,-1.56,-1.46,-0.82,-0.79,-0.80
245.48,0.10,0.90,0.12,0.92,-0.92,-1.54,-1.46,-0.82,-0.80,-0.81
247.93,0.16,0.97,0.16,0.96,-0.96,-1.53,-1.45,-0.80,-0.81,-0.81
250.41,0.19,1.01,0.20,1.00,-1.00,-1.52,-1.45,-0.82,-0.81,-0.83
252.92,0.26,1.07,0.24,1.05,-1.05,-1.51,-1.44,-0.79,-0.81,-0.81
255.45,0.31,1.11,0.29,1.09,-1.09,-1.51,-1.43,-0.78,-0.80,-0.80
258.00,0.36,1.16,0.34,1.14,-1.14,-1.50,-1.42,-0.78,-0.80,-0.80
260.58,0.42,1.21,0.40,1.18,-1.18,-1.49,-1.42,-0.77,-0.79,-0.79
263.19,0.47,1.24,0.46,1.23,-1.23,-1.48,-1.41,-0.76,-0.78,-0.78
265.82,0.52,1.29,0.52,1.28,-1.28,-1.47,-1.40,-0.76,-0.76,-0.77
268.48,0.56,1.30,0.58,1.32,-1.32,-1.47,-1.40,-0.77,-0.75,-0.74
271.16,0.61,1.34,0.64,1.37,-1.37,-1.46,-1.39,-0.76,-0.73,-0.73
273.87,0.69,1.40,0.70,1.41,-1.41,-1.45,-1.38,-0.72,-0.71,-0.71
276.61,0.75,1.43,0.75,1.45,-1.45,-1.45,-1.37,-0.70,-0.70,-0.68
279.38,0.82,1.49,0.81,1.49,-1.49,-1.44,-1.37,-0.67,-0.68,-0.68
282.17,0.88,1.54,0.87,1.53,-1.53,-1.44,-1.36,-0.65,-0.66,-0.66
284.99,0.94,1.58,0.92,1.57,-1.57,-1.43,-1.36,-0.63,-0.64,-0.64
287.84,1.00,1.62,0.98,1.60,-1.60,-1.43,-1.35,-0.60,-0.62,-0.63
290.72,1.04,1.64,1.03,1.63,-1.63,-1.42,-1.34,-0.60,-0.60,-0.60
293.63,1.08,1.67,1.08,1.66,-1.66,-1.42,-1.34,-0.59,-0.58,-0.59
296.57,1.13,1.69,1.13,1.69,-1.69,-1.41,-1.34,-0.57,-0.56,-0.56
299.53,1.17,1.71,1.18,1.72,-1.72,-1.41,-1.33,-0.55,-0.54,-0.55
302.53,1.22,1.76,1.22,1.74,-1.74,-1.41,-1.33,-0.52,-0.52,-0.54
305.55,1.26,1.76,1.26,1.76,-1.76,-1.40,-1.33,-0.50,-0.50,-0.50
308.61,1.29,1.77,1.30,1.77,-1.77,-1.40,-1.32,-0.49,-0.48,-0.48
311.69,1.34,1.79,1.33,1.79,-1.79,-1.40,-1.32,-0.45,-0.45,-0.45
314.81,1.37,1.78,1.37,1.80,-1.80,-1.39,-1.32,-0.43,-0.43,-0.42
317.96,1.40,1.80,1.40,1.81,-1.81,-1.39,-1.33,-0.41,-0.41,-0.40
321.14,1.42,1.80,1.43,1.82,-1.82,-1.39,-1.33,-0.40,-0.38,-0.38
324.35,1.45,1.81,1.46,1.82,-1.82,-1.39,-1.33,-0.37,-0.36,-0.36
327.59,1.49,1.82,1.48,1.82,-1.82,-1.38,-1.33,-0.33,-0.34,-0.33
330.87,1.51,1.82,1.51,1.82,-1.82,-1.38,-1.34,-0.31,-0.31,-0.32
334.18,1.53,1.81,1.52,1.81,-1.81,-1.38,-1.35,-0.28,-0.29,-0.29
337.52,1.56,1.83,1.54,1.80,-1.80,-1.38,-1.35,-0.24,-0.26,-0.27
340.90,1.57,1.81,1.55,1.79,-1.79,-1.38,-1.36,-0.22,-0.24,-0.24
344.30,1.58,1.79,1.56,1.77,-1.77,-1.37,-1.37,-0.20,-0.21,-0.21
347.75,1.58,1.77,1.56,1.75,-1.75,-1.37,-1.38,-0.18,-0.19,-0.19
351.23,1.57,1.73,1.57,1.73,-1.73,-1.37,-1.39,-0.16,-0.16,-0.16
354.74,1.56,1.69,1.56,1.70,-1.70,-1.37,-1.41,-0.15,-0.14,-0.13
358.28,1.56,1.67,1.56,1.67,-1.67,-1.37,-1.42,-0.12,-0.11,-0.12
361.87,1.56,1.64,1.56,1.64,-1.64,-1.37,-1.43,-0.09,-0.09,-0.09
365.49,1.56,1.62,1.55,1.61,-1.61,-1.37,-1.45,-0.06,-0.06,-0.06
369.14,1.56,1.61,1.55,1.59,-1.59,-1.37,-1.47,-0.03,-0.04,-0.05
372.83,1.55,1.57,1.54,1.56,-1.56,-1.37,-1.48,-0.01,-0.02,-0.02
376.56,1.53,1.53,1.54,1.54,-1.54,-1.36,-1.50,-0.01,0.01,-0.00
380.33,1.53,1.49,1.55,1.52,-1.52,-1.36,-1.52,0.01,0.03,0.04
384.13,1.54,1.49,1.56,1.51,-1.51,-1.36,-1.54,0.03,0.05,0.05
387.97,1.55,1.48,1.57,1.51,-1.51,-1.36,-1.56,0.04,0.06,0.07
391.85,1.57,1.49,1.59,1.51,-1.51,-1.36,-1.59,0.06,0.08,0.08
395.77,1.60,1.49,1.61,1.52,-1.52,-1.36,-1.61,0.08,0.09,0.10
399.73,1.63,1.51,1.63,1.53,-1.53,-1.36,-1.63,0.10,0.10,0.11
403.72,1.66,1.54,1.66,1.55,-1.55,-1.36,-1.66,0.11,0.11,0.11
407.76,1.69,1.57,1.69,1.57,-1.57,-1.36,-1.68,0.12,0.12,0.12
411.84,1.73,1.60,1.72,1.59,-1.59,-1.36,-1.70,0.14,0.13,0.13
415.96,1.76,1.63,1.74,1.62,-1.62,-1.36,-1.73,0.14,0.13,0.13
420.12,1.79,1.66,1.77,1.64,-1.64,-1.36,-1.75,0.14,0.13,0.13
424.32,1.82,1.69,1.80,1.67,-1.67,-1.36,-1.78,0.15,0.13,0.13
428.56,1.85,1.72,1.82,1.69,-1.69,-1.36,-1.80,0.15,0.13,0.13
432.85,1.87,1.75,1.84,1.72,-1.72,-1.35,-1.82,0.15,0.12,0.12
437.18,1.88,1.76,1.86,1.74,-1.74,-1.35,-1.84,0.13,0.12,0.12
441.55,1.88,1.76,1.89,1.77,-1.77,-1.35,-1.87,0.11,0.12,0.12
445.96,1.89,1.78,1.91,1.79,-1.79,-1.35,-1.88,0.10,0.11,0.11
450.42,1.90,1.79,1.93,1.82,-1.82,-1.35,-1.90,0.08,0.11,0.11
454.93,1.91,1.80,1.95,1.84,-1.84,-1.35,-1.92,0.07,0.11,0.11
459.48,1.94,1.84,1.96,1.86,-1.86,-1.35,-1.93,0.08,0.11,0.10
464.07,1.97,1.86,1.98,1.88,-1.88,-1.35,-1.95,0.09,0.11,0.11
468.71,2.00,1.89,2.00,1.90,-1.90,-1.35,-1.96,0.10,0.10,0.11
473.40,2.03,1.92,2.02,1.91,-1.91,-1.35,-1.97,0.12,0.11,0.10
478.13,2.05,1.93,2.03,1.92,-1.92,-1.35,-1.97,0.12,0.11,0.11
482.91,2.06,1.95,2.04,1.93,-1.93,-1.34,-1.98,0.13,0.11,0.10
487.74,2.07,1.95,2.05,1.94,-1.94,-1.34,-1.98,0.13,0.11,0.11
492.62,2.07,1.94,2.05,1.94,-1.94,-1.34,-1.97,0.13,0.11,0.12
497.55,2.07,1.95,2.04,1.93,-1.93,-1.34,-1.97,0.14,0.12,0.11
502.52,2.06,1.93,2.03,1.91,-1.91,-1.34,-1.96,0.15,0.12,0.12
