frequency,raw,error,smoothed,error_smoothed,equalization,parametric_eq,fixed_band_eq,equalized_raw,equalized_smoothed,target
20.00,4.56,-5.16,4.56,-5.16,5.17,4.59,1.71,9.73,9.74,9.72
20.20,4.61,-5.09,4.61,-5.09,5.10,4.58,1.76,9.71,9.71,9.70
20.40,4.65,-5.04,4.65,-5.03,5.03,4.56,1.81,9.68,9.68,9.69
20.61,4.70,-4.98,4.70,-4.97,4.96,4.55,1.87,9.66,9.66,9.68
20.81,4.75,-4.90,4.75,-4.91,4.90,4.53,1.92,9.65,9.64,9.65
21.02,4.79,-4.85,4.79,-4.85,4.84,4.52,1.98,9.63,9.63,9.64
21.23,4.84,-4.79,4.84,-4.79,4.78,4.50,2.04,9.62,9.62,9.63
21.44,4.89,-4.73,4.89,-4.73,4.73,4.48,2.10,9.62,9.62,9.62
21.66,4.94,-4.67,4.94,-4.67,4.68,4.47,2.16,9.62,9.62,9.61
21.87,4.98,-4.63,4.98,-4.63,4.64,4.45,2.23,9.62,9.62,9.61
22.09,5.01,-4.59,5.01,-4.59,4.61,4.43,2.29,9.62,9.62,9.60
22.31,5.03,-4.57,5.03,-4.57,4.58,4.41,2.36,9.61,9.61,9.60
22.54,5.04,-4.55,5.04,-4.55,4.55,4.39,2.43,9.59,9.59,9.59
22.76,5.05,-4.54,5.05,-4.54,4.53,4.38,2.50,9.58,9.57,9.59
22.99,5.06,-4.52,5.07,-4.51,4.50,4.36,2.57,9.56,9.57,9.58
23.22,5.10,-4.48,5.10,-4.49,4.47,4.34,2.65,9.57,9.57,9.58
23.45,5.14,-4.44,5.14,-4.44,4.43,4.32,2.73,9.57,9.57,9.58
23.69,5.18,-4.40,5.18,-4.40,4.39,4.30,2.80,9.57,9.58,9.58
23.92,5.23,-4.35,5.23,-4.35,4.35,4.28,2.88,9.58,9.58,9.58
24.16,5.27,-4.31,5.27,-4.31,4.30,4.26,2.96,9.57,9.58,9.58
24.40,5.32,-4.26,5.32,-4.26,4.26,4.24,3.05,9.58,9.58,9.58
24.65,5.36,-4.21,5.37,-4.21,4.22,4.21,3.13,9.58,9.59,9.57
24.89,5.41,-4.16,5.41,-4.17,4.19,4.19,3.21,9.60,9.59,9.57
25.14,5.44,-4.13,5.43,-4.14,4.16,4.17,3.30,9.60,9.59,9.57
25.39,5.45,-4.13,5.45,-4.12,4.13,4.15,3.38,9.58,9.58,9.58
25.65,5.46,-4.12,5.46,-4.11,4.10,4.12,3.47,9.56,9.56,9.58
25.91,5.47,-4.10,5.47,-4.10,4.07,4.10,3.55,9.54,9.54,9.57
26.16,5.50,-4.06,5.50,-4.06,4.04,4.08,3.64,9.54,9.54,9.56
26.43,5.54,-4.02,5.54,-4.02,4.01,4.05,3.72,9.55,9.55,9.56
26.69,5.59,-3.97,5.59,-3.97,3.97,4.03,3.81,9.56,9.56,9.56
26.96,5.63,-3.92,5.62,-3.93,3.94,4.00,3.89,9.57,9.56,9.55
27.23,5.65,-3.90,5.65,-3.89,3.91,3.97,3.97,9.56,9.56,9.55
27.50,5.67,-3.87,5.67,-3.87,3.89,3.95,4.04,9.56,9.56,9.54
27.77,5.69,-3.85,5.69,-3.85,3.87,3.92,4.12,9.56,9.55,9.54
28.05,5.70,-3.83,5.70,-3.83,3.84,3.89,4.19,9.54,9.54,9.53
28.33,5.70,-3.83,5.70,-3.83,3.82,3.87,4.26,9.52,9.52,9.53
28.62,5.70,-3.81,5.70,-3.82,3.79,3.84,4.32,9.49,9.49,9.51
28.90,5.70,-3.81,5.71,-3.80,3.75,3.81,4.38,9.45,9.46,9.51
29.19,5.74,-3.76,5.75,-3.75,3.71,3.78,4.43,9.45,9.46,9.50
29.48,5.81,-3.67,5.81,-3.68,3.67,3.75,4.48,9.48,9.48,9.48
29.78,5.88,-3.60,5.87,-3.60,3.63,3.72,4.52,9.51,9.51,9.48
30.08,5.93,-3.54,5.92,-3.55,3.59,3.69,4.55,9.52,9.51,9.47
30.38,5.93,-3.52,5.93,-3.52,3.56,3.66,4.58,9.49,9.49,9.45
30.68,5.93,-3.52,5.93,-3.51,3.53,3.63,4.60,9.46,9.47,9.45
30.99,5.93,-3.51,5.93,-3.51,3.50,3.59,4.62,9.43,9.43,9.44
31.30,5.93,-3.49,5.93,-3.50,3.48,3.56,4.62,9.41,9.41,9.42
31.61,5.93,-3.49,5.93,-3.49,3.46,3.53,4.63,9.39,9.38,9.42
31.93,5.93,-3.48,5.94,-3.46,3.43,3.50,4.62,9.36,9.37,9.41
32.24,5.98,-3.42,5.98,-3.42,3.39,3.46,4.60,9.37,9.38,9.40
32.57,6.04,-3.36,6.04,-3.35,3.36,3.43,4.58,9.40,9.40,9.40
32.89,6.11,-3.28,6.09,-3.30,3.32,3.40,4.55,9.43,9.42,9.39
33.22,6.13,-3.26,6.13,-3.26,3.29,3.36,4.52,9.42,9.42,9.39
33.55,6.14,-3.24,6.15,-3.24,3.26,3.33,4.48,9.40,9.41,9.38
33.89,6.15,-3.24,6.15,-3.24,3.24,3.30,4.43,9.39,9.39,9.39
34.23,6.15,-3.23,6.15,-3.24,3.23,3.27,4.38,9.38,9.38,9.38
34.57,6.15,-3.24,6.15,-3.24,3.23,3.23,4.33,9.38,9.38,9.39
34.92,6.15,-3.24,6.15,-3.24,3.24,3.20,4.27,9.39,9.39,9.39
35.27,6.15,-3.24,6.15,-3.24,3.24,3.17,4.20,9.39,9.39,9.39
35.62,6.15,-3.23,6.15,-3.23,3.23,3.14,4.14,9.38,9.38,9.38
35.97,6.15,-3.22,6.15,-3.22,3.22,3.11,4.07,9.37,9.37,9.37
36.33,6.16,-3.22,6.15,-3.22,3.19,3.08,4.00,9.35,9.35,9.38
36.70,6.17,-3.19,6.17,-3.19,3.16,3.05,3.93,9.33,9.33,9.36
37.06,6.19,-3.16,6.21,-3.14,3.12,3.02,3.85,9.31,9.33,9.35
37.43,6.27,-3.07,6.27,-3.07,3.07,2.99,3.78,9.34,9.34,9.34
37.81,6.34,-2.99,6.33,-3.00,3.03,2.96,3.71,9.37,9.36,9.33
38.19,6.38,-2.94,6.37,-2.95,2.98,2.94,3.63,9.36,9.35,9.32
38.57,6.38,-2.92,6.38,-2.92,2.94,2.91,3.56,9.32,9.32,9.30
38.95,6.38,-2.90,6.38,-2.90,2.90,2.89,3.48,9.28,9.28,9.28
39.34,6.38,-2.87,6.38,-2.88,2.87,2.86,3.41,9.25,9.25,9.25
39.74,6.38,-2.86,6.38,-2.86,2.85,2.84,3.34,9.23,9.23,9.24
40.14,6.38,-2.84,6.38,-2.83,2.83,2.82,3.27,9.21,9.21,9.22
40.54,6.38,-2.82,6.38,-2.82,2.82,2.79,3.20,9.20,9.20,9.20
40.94,6.38,-2.80,6.38,-2.80,2.82,2.77,3.13,9.20,9.20,9.18
41.35,6.38,-2.79,6.38,-2.79,2.80,2.75,3.07,9.18,9.18,9.17
41.76,6.38,-2.77,6.38,-2.77,2.77,2.73,3.00,9.15,9.15,9.15
42.18,6.38,-2.76,6.37,-2.77,2.74,2.71,2.94,9.12,9.11,9.14
42.60,6.38,-2.75,6.38,-2.75,2.70,2.68,2.88,9.08,9.08,9.13
43.03,6.39,-2.73,6.42,-2.70,2.66,2.66,2.83,9.05,9.08,9.12
43.46,6.49,-2.62,6.49,-2.62,2.62,2.64,2.77,9.11,9.11,9.11
43.90,6.59,-2.52,6.56,-2.54,2.57,2.62,2.72,9.16,9.13,9.10
44.33,6.61,-2.48,6.61,-2.48,2.53,2.60,2.67,9.14,9.14,9.09
44.78,6.61,-2.47,6.62,-2.46,2.49,2.58,2.62,9.10,9.11,9.08
45.23,6.61,-2.46,6.61,-2.46,2.46,2.55,2.57,9.07,9.07,9.07
45.68,6.61,-2.45,6.61,-2.45,2.44,2.53,2.52,9.05,9.05,9.06
46.13,6.61,-2.43,6.61,-2.43,2.42,2.51,2.48,9.03,9.03,9.04
46.60,6.61,-2.42,6.61,-2.42,2.41,2.49,2.44,9.02,9.02,9.03
47.06,6.61,-2.41,6.61,-2.41,2.40,2.46,2.40,9.01,9.01,9.02
47.53,6.61,-2.39,6.61,-2.39,2.39,2.44,2.36,9.00,9.00,9.00
48.01,6.61,-2.38,6.61,-2.38,2.37,2.41,2.33,8.98,8.98,8.99
48.49,6.61,-2.36,6.61,-2.36,2.36,2.39,2.30,8.97,8.97,8.97
48.97,6.61,-2.34,6.61,-2.34,2.34,2.36,2.26,8.95,8.95,8.95
49.46,6.61,-2.32,6.61,-2.32,2.32,2.34,2.23,8.93,8.93,8.93
49.96,6.61,-2.30,6.61,-2.30,2.30,2.31,2.21,8.91,8.91,8.91
50.46,6.61,-2.28,6.61,-2.28,2.28,2.29,2.18,8.89,8.89,8.89
50.96,6.61,-2.27,6.61,-2.26,2.26,2.26,2.15,8.87,8.87,8.88
51.47,6.61,-2.24,6.61,-2.24,2.24,2.23,2.13,8.85,8.85,8.85
51.99,6.61,-2.22,6.61,-2.22,2.22,2.20,2.10,8.83,8.83,8.83
52.51,6.61,-2.20,6.61,-2.20,2.20,2.18,2.08,8.81,8.81,8.81
53.03,6.61,-2.17,6.61,-2.17,2.17,2.15,2.06,8.78,8.78,8.78
53.56,6.61,-2.14,6.61,-2.14,2.14,2.12,2.03,8.75,8.75,8.75
54.10,6.61,-2.11,6.61,-2.11,2.11,2.09,2.01,8.72,8.72,8.72
54.64,6.61,-2.09,6.61,-2.09,2.09,2.06,1.99,8.70,8.70,8.70
55.18,6.61,-2.06,6.61,-2.06,2.06,2.03,1.97,8.67,8.67,8.67
55.74,6.61,-2.03,6.61,-2.03,2.03,1.99,1.95,8.64,8.64,8.64
56.29,6.61,-1.99,6.61,-2.00,2.00,1.96,1.92,8.61,8.61,8.60
56.86,6.61,-1.97,6.61,-1.97,1.97,1.93,1.90,8.58,8.58,8.58
57.42,6.61,-1.94,6.61,-1.94,1.94,1.90,1.87,8.55,8.55,8.55
58.00,6.61,-1.91,6.61,-1.91,1.91,1.86,1.85,8.52,8.52,8.52
58.58,6.61,-1.87,6.61,-1.88,1.87,1.83,1.82,8.48,8.48,8.48
59.16,6.61,-1.85,6.61,-1.84,1.84,1.79,1.79,8.45,8.45,8.46
59.76,6.61,-1.80,6.61,-1.81,1.81,1.76,1.76,8.42,8.42,8.41
60.35,6.61,-1.77,6.61,-1.77,1.77,1.72,1.73,8.38,8.38,8.38
60.96,6.61,-1.73,6.61,-1.73,1.73,1.68,1.70,8.34,8.34,8.34
61.57,6.61,-1.69,6.61,-1.69,1.70,1.65,1.66,8.31,8.31,8.30
62.18,6.61,-1.65,6.61,-1.65,1.66,1.61,1.63,8.27,8.27,8.26
62.80,6.61,-1.61,6.61,-1.61,1.61,1.57,1.59,8.22,8.22,8.22
63.43,6.61,-1.57,6.61,-1.57,1.57,1.52,1.55,8.18,8.18,8.18
64.07,6.61,-1.53,6.61,-1.53,1.53,1.48,1.50,8.14,8.14,8.14
64.71,6.61,-1.49,6.61,-1.48,1.48,1.44,1.46,8.09,8.09,8.10
65.35,6.61,-1.43,6.61,-1.43,1.43,1.39,1.41,8.04,8.04,8.04
66.01,6.61,-1.38,6.61,-1.38,1.38,1.35,1.36,7.99,7.99,7.99
66.67,6.61,-1.32,6.61,-1.32,1.33,1.30,1.31,7.94,7.94,7.93
67.33,6.61,-1.27,6.61,-1.27,1.27,1.25,1.25,7.88,7.88,7.88
68.01,6.61,-1.22,6.61,-1.22,1.22,1.20,1.20,7.83,7.83,7.83
68.69,6.61,-1.16,6.61,-1.16,1.16,1.15,1.14,7.77,7.77,7.77
69.37,6.61,-1.11,6.61,-1.11,1.11,1.09,1.08,7.72,7.72,7.72
70.07,6.61,-1.05,6.61,-1.05,1.05,1.04,1.02,7.66,7.66,7.66
70.77,6.61,-0.99,6.61,-0.99,0.99,0.98,0.96,7.60,7.60,7.60
71.48,6.61,-0.93,6.61,-0.93,0.93,0.93,0.90,7.54,7.54,7.54
72.19,6.61,-0.87,6.61,-0.87,0.87,0.87,0.83,7.48,7.48,7.48
72.91,6.61,-0.82,6.61,-0.81,0.81,0.81,0.77,7.42,7.42,7.43
73.64,6.61,-0.75,6.61,-0.75,0.75,0.75,0.70,7.36,7.36,7.36
74.38,6.61,-0.69,6.61,-0.69,0.69,0.69,0.63,7.30,7.30,7.30
75.12,6.61,-0.63,6.61,-0.63,0.63,0.62,0.56,7.24,7.24,7.24
75.87,6.61,-0.58,6.61,-0.57,0.57,0.56,0.49,7.18,7.18,7.19
76.63,6.61,-0.51,6.61,-0.51,0.51,0.49,0.42,7.12,7.12,7.12
77.40,6.61,-0.45,6.61,-0.45,0.45,0.43,0.35,7.06,7.06,7.06
78.17,6.61,-0.39,6.61,-0.39,0.39,0.36,0.28,7.00,7.00,7.00
78.95,6.61,-0.33,6.61,-0.33,0.33,0.29,0.21,6.94,6.94,6.94
79.74,6.61,-0.26,6.61,-0.26,0.26,0.23,0.14,6.87,6.87,6.87
80.54,6.61,-0.20,6.61,-0.20,0.20,0.16,0.06,6.81,6.81,6.81
81.35,6.61,-0.13,6.61,-0.13,0.13,0.09,-0.01,6.74,6.74,6.74
82.16,6.61,-0.07,6.61,-0.07,0.07,0.02,-0.08,6.68,6.68,6.68
82.98,6.61,0.00,6.61,0.00,-0.00,-0.05,-0.16,6.61,6.61,6.61
83.81,6.61,0.07,6.61,0.07,-0.08,-0.12,-0.23,6.53,6.53,6.54
84.65,6.61,0.15,6.61,0.15,-0.15,-0.19,-0.31,6.46,6.46,6.46
85.50,6.61,0.23,6.61,0.23,-0.23,-0.26,-0.39,6.38,6.38,6.38
86.35,6.61,0.31,6.61,0.31,-0.32,-0.33,-0.46,6.29,6.29,6.30
87.22,6.61,0.39,6.61,0.39,-0.40,-0.40,-0.54,6.21,6.21,6.22
88.09,6.61,0.47,6.61,0.47,-0.48,-0.48,-0.62,6.13,6.13,6.14
88.97,6.61,0.56,6.61,0.56,-0.56,-0.55,-0.70,6.05,6.05,6.05
89.86,6.61,0.64,6.62,0.65,-0.62,-0.62,-0.77,5.99,5.99,5.97
90.76,6.61,0.73,6.62,0.73,-0.68,-0.69,-0.85,5.93,5.94,5.88
91.66,6.61,0.80,6.58,0.78,-0.73,-0.76,-0.93,5.87,5.85,5.80
92.58,6.53,0.81,6.52,0.80,-0.79,-0.83,-1.01,5.74,5.73,5.72
93.51,6.42,0.79,6.45,0.81,-0.84,-0.91,-1.09,5.58,5.61,5.63
94.44,6.38,0.83,6.39,0.84,-0.89,-0.98,-1.18,5.49,5.50,5.55
95.39,6.38,0.92,6.37,0.91,-0.95,-1.05,-1.26,5.43,5.42,5.46
96.34,6.38,1.01,6.38,1.01,-1.01,-1.12,-1.34,5.37,5.36,5.37
97.30,6.38,1.10,6.38,1.10,-1.09,-1.19,-1.42,5.29,5.29,5.28
98.28,6.38,1.19,6.38,1.19,-1.17,-1.26,-1.50,5.21,5.21,5.19
99.26,6.38,1.27,6.38,1.27,-1.26,-1.33,-1.59,5.12,5.12,5.11
100.25,6.38,1.36,6.38,1.36,-1.36,-1.40,-1.67,5.02,5.02,5.02
101.25,6.38,1.45,6.38,1.45,-1.45,-1.47,-1.75,4.93,4.93,4.93
102.27,6.38,1.54,6.38,1.54,-1.54,-1.54,-1.83,4.84,4.84,4.84
103.29,6.38,1.62,6.38,1.62,-1.63,-1.61,-1.92,4.75,4.75,4.76
104.32,6.38,1.70,6.38,1.70,-1.72,-1.67,-2.00,4.66,4.66,4.68
105.37,6.38,1.79,6.38,1.79,-1.80,-1.74,-2.08,4.58,4.58,4.59
106.42,6.38,1.87,6.38,1.87,-1.88,-1.81,-2.16,4.50,4.50,4.51
107.48,6.38,1.96,6.38,1.96,-1.95,-1.87,-2.24,4.43,4.43,4.42
108.56,6.38,2.03,6.40,2.05,-2.00,-1.94,-2.31,4.38,4.39,4.35
109.64,6.38,2.12,6.37,2.11,-2.05,-2.00,-2.39,4.33,4.32,4.26
110.74,6.37,2.18,6.31,2.12,-2.10,-2.07,-2.46,4.27,4.21,4.19
111.85,6.18,2.08,6.23,2.13,-2.14,-2.13,-2.53,4.04,4.09,4.11
112.97,6.15,2.12,6.17,2.14,-2.19,-2.19,-2.60,3.96,3.98,4.03
114.10,6.15,2.20,6.13,2.19,-2.24,-2.26,-2.67,3.91,3.90,3.95
115.24,6.15,2.28,6.15,2.28,-2.29,-2.32,-2.73,3.86,3.85,3.87
116.39,6.15,2.37,6.15,2.37,-2.36,-2.38,-2.79,3.79,3.79,3.78
117.55,6.15,2.45,6.15,2.45,-2.44,-2.44,-2.85,3.71,3.71,3.70
118.73,6.15,2.53,6.15,2.53,-2.53,-2.49,-2.90,3.62,3.62,3.62
119.92,6.15,2.62,6.15,2.62,-2.62,-2.55,-2.95,3.53,3.53,3.53
121.12,6.15,2.70,6.15,2.70,-2.70,-2.61,-3.00,3.45,3.45,3.45
122.33,6.15,2.79,6.16,2.80,-2.76,-2.66,-3.04,3.39,3.40,3.36
123.55,6.15,2.87,6.15,2.87,-2.82,-2.72,-3.08,3.33,3.33,3.28
124.79,6.15,2.96,6.10,2.90,-2.87,-2.77,-3.11,3.28,3.23,3.19
126.03,6.00,2.88,6.03,2.92,-2.92,-2.82,-3.14,3.08,3.11,3.12
127.29,5.95,2.92,5.97,2.93,-2.98,-2.87,-3.16,2.97,2.99,3.03
128.57,5.93,2.98,5.92,2.97,-3.04,-2.92,-3.18,2.89,2.89,2.95
129.85,5.93,3.06,5.93,3.05,-3.09,-2.97,-3.20,2.84,2.84,2.87
131.15,5.93,3.13,5.93,3.13,-3.14,-3.02,-3.21,2.79,2.79,2.80
132.46,5.93,3.22,5.93,3.22,-3.19,-3.07,-3.22,2.74,2.75,2.71
133.79,5.93,3.29,5.94,3.30,-3.24,-3.11,-3.22,2.69,2.70,2.64
135.12,5.92,3.36,5.90,3.34,-3.28,-3.16,-3.22,2.63,2.62,2.56
136.48,5.87,3.38,5.84,3.34,-3.33,-3.20,-3.22,2.54,2.51,2.49
137.84,5.72,3.30,5.76,3.34,-3.37,-3.24,-3.22,2.35,2.39,2.42
139.22,5.70,3.35,5.71,3.36,-3.41,-3.28,-3.22,2.29,2.30,2.35
140.61,5.70,3.42,5.69,3.41,-3.46,-3.32,-3.21,2.24,2.23,2.28
142.02,5.70,3.49,5.70,3.49,-3.50,-3.36,-3.20,2.20,2.19,2.21
143.44,5.70,3.55,5.70,3.55,-3.56,-3.39,-3.19,2.14,2.14,2.15
144.87,5.70,3.62,5.70,3.62,-3.61,-3.43,-3.18,2.09,2.09,2.08
146.32,5.70,3.68,5.71,3.69,-3.66,-3.46,-3.17,2.04,2.05,2.02
147.78,5.70,3.75,5.70,3.75,-3.70,-3.50,-3.16,2.00,2.01,1.95
149.26,5.70,3.81,5.67,3.77,-3.73,-3.53,-3.15,1.97,1.93,1.89
150.75,5.60,3.77,5.60,3.77,-3.76,-3.56,-3.14,1.84,1.84,1.83
152.26,5.51,3.74,5.53,3.76,-3.79,-3.59,-3.13,1.72,1.74,1.77
153.78,5.47,3.75,5.48,3.76,-3.82,-3.61,-3.12,1.65,1.65,1.72
155.32,5.47,3.81,5.46,3.80,-3.85,-3.64,-3.11,1.62,1.61,1.66
156.88,5.47,3.86,5.47,3.86,-3.87,-3.67,-3.10,1.60,1.60,1.61
158.44,5.47,3.91,5.48,3.93,-3.89,-3.69,-3.09,1.58,1.60,1.56
160.03,5.47,3.97,5.47,3.97,-3.91,-3.71,-3.09,1.56,1.57,1.50
161.63,5.47,4.03,5.42,3.97,-3.93,-3.73,-3.09,1.54,1.49,1.44
163.24,5.33,3.94,5.35,3.95,-3.95,-3.75,-3.09,1.38,1.40,1.39
164.88,5.24,3.89,5.28,3.93,-3.97,-3.77,-3.09,1.27,1.31,1.35
166.53,5.24,3.94,5.23,3.93,-3.99,-3.79,-3.09,1.25,1.24,1.30
168.19,5.24,3.98,5.23,3.97,-4.02,-3.81,-3.10,1.22,1.22,1.26
169.87,5.24,4.02,5.24,4.02,-4.03,-3.82,-3.11,1.21,1.21,1.22
171.57,5.24,4.07,5.24,4.06,-4.05,-3.84,-3.12,1.19,1.19,1.17
173.29,5.24,4.11,5.26,4.13,-4.07,-3.85,-3.13,1.17,1.19,1.13
175.02,5.24,4.15,5.24,4.15,-4.09,-3.86,-3.15,1.15,1.14,1.09
176.77,5.24,4.20,5.18,4.13,-4.12,-3.87,-3.17,1.12,1.06,1.04
178.54,5.06,4.06,5.10,4.10,-4.13,-3.88,-3.19,0.93,0.97,1.00
180.32,5.01,4.05,5.04,4.08,-4.14,-3.89,-3.21,0.87,0.90,0.96
182.13,5.01,4.10,5.00,4.08,-4.13,-3.89,-3.24,0.88,0.86,0.91
183.95,5.01,4.13,5.02,4.15,-4.12,-3.90,-3.27,0.89,0.90,0.88
185.79,5.01,4.18,5.01,4.17,-4.11,-3.91,-3.30,0.90,0.89,0.83
187.65,5.01,4.21,4.95,4.15,-4.11,-3.91,-3.33,0.90,0.84,0.80
189.52,4.84,4.08,4.88,4.12,-4.12,-3.91,-3.37,0.72,0.76,0.76
191.42,4.79,4.06,4.81,4.08,-4.13,-3.91,-3.41,0.66,0.68,0.73
193.33,4.79,4.09,4.78,4.08,-4.14,-3.91,-3.45,0.65,0.63,0.70
195.27,4.79,4.12,4.79,4.12,-4.14,-3.91,-3.49,0.65,0.64,0.67
197.22,4.79,4.15,4.79,4.15,-4.13,-3.91,-3.53,0.66,0.66,0.64
199.19,4.79,4.18,4.80,4.19,-4.13,-3.91,-3.58,0.66,0.67,0.61
201.18,4.79,4.21,4.77,4.19,-4.13,-3.91,-3.62,0.66,0.64,0.58
203.19,4.74,4.18,4.71,4.15,-4.14,-3.90,-3.67,0.60,0.58,0.56
205.23,4.62,4.08,4.64,4.11,-4.14,-3.90,-3.72,0.48,0.50,0.54
207.28,4.56,4.05,4.58,4.07,-4.12,-3.89,-3.77,0.44,0.46,0.51
209.35,4.56,4.07,4.55,4.06,-4.10,-3.88,-3.82,0.46,0.45,0.49
211.44,4.56,4.09,4.57,4.11,-4.08,-3.88,-3.87,0.48,0.50,0.47
213.56,4.56,4.12,4.55,4.11,-4.06,-3.87,-3.92,0.50,0.49,0.44
215.69,4.56,4.14,4.49,4.07,-4.05,-3.86,-3.96,0.51,0.44,0.42
217.85,4.35,3.95,4.41,4.02,-4.03,-3.85,-4.01,0.32,0.38,0.40
220.03,4.33,3.95,4.35,3.97,-4.01,-3.83,-4.06,0.32,0.33,0.38
222.23,4.33,3.98,4.33,3.97,-3.99,-3.82,-4.10,0.34,0.34,0.35
224.45,4.33,4.00,4.33,4.00,-3.96,-3.81,-4.14,0.37,0.36,0.33
226.70,4.33,4.02,4.28,3.97,-3.94,-3.79,-4.18,0.39,0.33,0.31
228.96,4.17,3.89,4.21,3.92,-3.93,-3.78,-4.21,0.24,0.28,0.28
231.25,4.12,3.86,4.14,3.87,-3.91,-3.76,-4.24,0.21,0.22,0.26
233.57,4.10,3.85,4.09,3.85,-3.90,-3.75,-4.27,0.20,0.20,0.25
235.90,4.10,3.88,4.11,3.89,-3.88,-3.73,-4.29,0.22,0.23,0.22
238.26,4.10,3.91,4.10,3.90,-3.86,-3.71,-4.31,0.24,0.24,0.19
240.64,4.10,3.92,4.04,3.87,-3.83,-3.69,-4.32,0.27,0.21,0.18
243.05,3.94,3.78,3.97,3.81,-3.81,-3.67,-4.33,0.13,0.16,0.16
245.48,3.87,3.72,3.90,3.76,-3.79,-3.65,-4.33,0.08,0.12,0.15
247.93,3.87,3.74,3.87,3.74,-3.76,-3.63,-4.32,0.11,0.11,0.13
250.41,3.87,3.75,3.85,3.73,-3.72,-3.61,-4.31,0.15,0.12,0.12
252.92,3.83,3.73,3.79,3.69,-3.68,-3.59,-4.29,0.15,0.11,0.10
255.45,3.68,3.60,3.72,3.64,-3.64,-3.56,-4.26,0.04,0.09,0.08
258.00,3.65,3.58,3.68,3.61,-3.60,-3.54,-4.24,0.05,0.08,0.07
260.58,3.65,3.59,3.62,3.56,-3.56,-3.51,-4.20,0.09,0.06,0.06
263.19,3.63,3.58,3.57,3.52,-3.52,-3.49,-4.16,0.11,0.05,0.05
265.82,3.44,3.40,3.50,3.46,-3.47,-3.46,-4.11,-0.03,0.03,0.04
268.48,3.42,3.39,3.45,3.42,-3.42,-3.43,-4.06,-0.00,0.02,0.03
271.16,3.42,3.39,3.40,3.38,-3.38,-3.41,-4.00,0.04,0.02,0.03
273.87,3.42,3.40,3.37,3.36,-3.34,-3.38,-3.94,0.08,0.03,0.02
276.61,3.29,3.28,3.31,3.30,-3.31,-3.35,-3.87,-0.02,-0.00,0.01
279.38,3.21,3.21,3.24,3.24,-3.27,-3.32,-3.80,-0.06,-0.04,-0.00
282.17,3.19,3.20,3.19,3.20,-3.23,-3.29,-3.73,-0.04,-0.04,-0.01
284.99,3.19,3.20,3.19,3.20,-3.18,-3.26,-3.66,0.01,0.01,-0.01
287.84,3.19,3.20,3.16,3.17,-3.12,-3.23,-3.58,0.07,0.04,-0.01
290.72,3.12,3.12,3.11,3.12,-3.06,-3.20,-3.50,0.06,0.05,-0.00
293.63,2.98,2.99,3.02,3.03,-3.00,-3.17,-3.42,-0.02,0.02,-0.01
296.57,2.96,2.97,2.91,2.92,-2.94,-3.13,-3.34,0.02,-0.04,-0.01
299.53,2.79,2.80,2.82,2.82,-2.88,-3.10,-3.25,-0.09,-0.07,-0.01
302.53,2.74,2.74,2.76,2.77,-2.82,-3.07,-3.17,-0.08,-0.06,-0.00
305.55,2.74,2.74,2.74,2.74,-2.75,-3.03,-3.09,-0.01,-0.01,-0.00
308.61,2.74,2.75,2.73,2.74,-2.69,-3.00,-3.00,0.05,0.04,-0.01
311.69,2.74,2.74,2.69,2.69,-2.64,-2.96,-2.92,0.10,0.04,-0.00
314.81,2.59,2.60,2.62,2.62,-2.61,-2.92,-2.84,-0.02,0.01,-0.01
317.96,2.52,2.52,2.55,2.56,-2.58,-2.89,-2.76,-0.06,-0.03,-0.00
321.14,2.51,2.52,2.50,2.51,-2.55,-2.85,-2.67,-0.04,-0.05,-0.01
324.35,2.51,2.52,2.50,2.51,-2.53,-2.81,-2.59,-0.02,-0.02,-0.01
327.59,2.51,2.50,2.51,2.51,-2.51,-2.77,-2.52,0.00,0.00,0.01
330.87,2.51,2.51,2.51,2.50,-2.49,-2.73,-2.44,0.02,0.02,0.00
334.18,2.51,2.50,2.51,2.50,-2.49,-2.69,-2.36,0.02,0.02,0.01
337.52,2.51,2.50,2.51,2.50,-2.49,-2.65,-2.29,0.02,0.02,0.01
340.90,2.51,2.49,2.51,2.49,-2.50,-2.61,-2.21,0.01,0.01,0.02
344.30,2.51,2.48,2.51,2.49,-2.50,-2.57,-2.14,0.01,0.01,0.03
347.75,2.51,2.48,2.51,2.48,-2.49,-2.53,-2.07,0.02,0.02,0.03
351.23,2.51,2.48,2.51,2.47,-2.47,-2.49,-2.00,0.04,0.04,0.03
354.74,2.51,2.46,2.53,2.48,-2.44,-2.45,-1.93,0.07,0.09,0.05
358.28,2.51,2.46,2.51,2.45,-2.41,-2.40,-1.87,0.10,0.10,0.05
361.87,2.51,2.45,2.45,2.39,-2.38,-2.36,-1.80,0.13,0.08,0.06
365.49,2.34,2.28,2.38,2.32,-2.34,-2.32,-1.74,0.00,0.04,0.06
369.14,2.29,2.23,2.31,2.24,-2.30,-2.27,-1.68,-0.01,0.01,0.06
372.83,2.28,2.20,2.27,2.20,-2.25,-2.23,-1.62,0.03,0.02,0.08
376.56,2.28,2.21,2.29,2.21,-2.21,-2.18,-1.56,0.07,0.08,0.07
380.33,2.28,2.20,2.28,2.20,-2.16,-2.13,-1.50,0.12,0.12,0.08
384.13,2.28,2.20,2.23,2.15,-2.12,-2.09,-1.45,0.16,0.11,0.08
387.97,2.13,2.05,2.16,2.07,-2.07,-2.04,-1.39,0.06,0.09,0.08
391.85,2.06,1.97,2.09,2.01,-2.02,-1.99,-1.34,0.04,0.07,0.09
395.77,2.05,1.97,2.05,1.96,-1.97,-1.95,-1.29,0.08,0.08,0.08
399.73,2.05,1.96,2.01,1.93,-1.92,-1.90,-1.24,0.13,0.10,0.09
403.72,1.97,1.87,1.95,1.86,-1.86,-1.85,-1.19,0.11,0.09,0.10
407.76,1.85,1.76,1.88,1.78,-1.81,-1.80,-1.14,0.04,0.08,0.09
411.84,1.82,1.71,1.83,1.72,-1.76,-1.75,-1.09,0.06,0.07,0.11
415.96,1.82,1.70,1.82,1.71,-1.71,-1.70,-1.05,0.11,0.11,0.12
420.12,1.82,1.70,1.81,1.68,-1.66,-1.65,-1.00,0.16,0.15,0.12
424.32,1.80,1.66,1.76,1.62,-1.60,-1.60,-0.96,0.20,0.15,0.14
428.56,1.66,1.52,1.69,1.55,-1.54,-1.54,-0.92,0.12,0.15,0.14
432.85,1.60,1.45,1.64,1.49,-1.48,-1.49,-0.87,0.12,0.16,0.15
437.18,1.60,1.44,1.59,1.43,-1.42,-1.44,-0.83,0.18,0.17,0.16
441.55,1.60,1.43,1.54,1.37,-1.36,-1.39,-0.79,0.24,0.18,0.17
445.96,1.44,1.25,1.47,1.28,-1.30,-1.33,-0.75,0.14,0.17,0.19
450.42,1.37,1.17,1.40,1.20,-1.24,-1.28,-0.72,0.13,0.16,0.20
454.93,1.37,1.15,1.36,1.14,-1.19,-1.22,-0.68,0.18,0.17,0.22
459.48,1.37,1.14,1.38,1.15,-1.14,-1.17,-0.64,0.23,0.24,0.23
464.07,1.37,1.14,1.37,1.13,-1.09,-1.11,-0.60,0.28,0.28,0.23
468.71,1.37,1.12,1.32,1.07,-1.04,-1.05,-0.57,0.33,0.28,0.25
473.40,1.23,0.97,1.25,0.99,-0.98,-1.00,-0.53,0.25,0.27,0.26
478.13,1.15,0.87,1.19,0.91,-0.92,-0.94,-0.50,0.23,0.27,0.28
482.91,1.14,0.85,1.14,0.85,-0.86,-0.88,-0.47,0.28,0.28,0.29
487.74,1.14,0.84,1.10,0.80,-0.79,-0.82,-0.43,0.35,0.31,0.30
492.62,1.06,0.74,1.04,0.73,-0.73,-0.77,-0.40,0.33,0.32,0.32
497.55,0.94,0.61,0.97,0.64,-0.66,-0.71,-0.37,0.28,0.31,0.33
502.52,0.91,0.56,0.92,0.56,-0.60,-0.65,-0.34,0.31,0.32,0.35
507.55,0.91,0.53,0.91,0.53,-0.54,-0.59,-0.30,0.37,0.37,0.38
512.62,0.91,0.51,0.92,0.52,-0.48,-0.53,-0.27,0.43,0.44,0.40
517.75,0.91,0.49,0.89,0.47,-0.42,-0.47,-0.24,0.49,0.46,0.42
522.93,0.85,0.41,0.82,0.38,-0.37,-0.40,-0.21,0.48,0.45,0.44
528.16,0.71,0.25,0.75,0.29,-0.32,-0.34,-0.18,0.39,0.43,0.46
533.44,0.68,0.20,0.69,0.22,-0.27,-0.28,-0.15,0.41,0.42,0.48
538.77,0.68,0.20,0.67,0.18,-0.21,-0.22,-0.12,0.47,0.46,0.48
544.16,0.68,0.17,0.69,0.18,-0.14,-0.16,-0.09,0.54,0.55,0.51
549.60,0.68,0.14,0.67,0.13,-0.08,-0.09,-0.06,0.60,0.59,0.54
555.10,0.66,0.09,0.61,0.04,-0.02,-0.03,-0.03,0.64,0.59,0.57
