frequency,raw,error,smoothed,error_smoothed,equalization,parametric_eq,fixed_band_eq,equalized_raw,equalized_smoothed,target
20.00,-4.98,-6.85,-5.00,-6.89,6.00,5.42,1.70,1.02,1.00,1.87
20.20,-4.90,-6.80,-4.91,-6.82,6.00,5.62,1.75,1.10,1.09,1.90
20.40,-4.81,-6.74,-4.82,-6.75,6.00,5.83,1.80,1.19,1.18,1.93
20.61,-4.74,-6.69,-4.73,-6.68,6.00,6.03,1.86,1.26,1.27,1.95
20.81,-4.65,-6.63,-4.64,-6.61,6.00,6.22,1.91,1.35,1.36,1.98
21.02,-4.56,-6.57,-4.55,-6.54,6.00,6.40,1.97,1.44,1.45,2.01
21.23,-4.47,-6.49,-4.47,-6.47,6.00,6.57,2.03,1.53,1.53,2.02
21.44,-4.38,-6.41,-4.38,-6.39,6.00,6.71,2.09,1.62,1.62,2.03
21.66,-4.30,-6.33,-4.29,-6.31,6.00,6.83,2.15,1.70,1.71,2.04
21.87,-4.20,-6.24,-4.20,-6.24,5.99,6.92,2.21,1.79,1.79,2.04
22.09,-4.11,-6.16,-4.12,-6.16,5.97,6.98,2.28,1.86,1.85,2.05
22.31,-4.03,-6.08,-4.03,-6.08,5.94,7.01,2.35,1.91,1.91,2.05
22.54,-3.95,-5.99,-3.94,-5.99,5.90,7.00,2.42,1.96,1.96,2.05
22.76,-3.85,-5.90,-3.86,-5.91,5.85,6.96,2.49,2.00,1.99,2.05
22.99,-3.76,-5.80,-3.77,-5.82,5.79,6.88,2.56,2.03,2.02,2.04
23.22,-3.68,-5.72,-3.69,-5.73,5.73,6.78,2.63,2.04,2.04,2.04
23.45,-3.60,-5.64,-3.61,-5.65,5.65,6.65,2.71,2.05,2.04,2.04
23.69,-3.52,-5.55,-3.52,-5.57,5.57,6.49,2.79,2.05,2.04,2.04
23.92,-3.43,-5.47,-3.44,-5.48,5.48,6.31,2.86,2.05,2.04,2.03
24.16,-3.35,-5.40,-3.36,-5.40,5.40,6.12,2.94,2.04,2.04,2.04
24.40,-3.27,-5.32,-3.28,-5.31,5.31,5.92,3.02,2.04,2.04,2.04
24.65,-3.20,-5.23,-3.19,-5.22,5.22,5.70,3.11,2.03,2.03,2.03
24.89,-3.11,-5.15,-3.10,-5.13,5.13,5.49,3.19,2.02,2.03,2.03
25.14,-3.03,-5.07,-3.01,-5.05,5.05,5.27,3.27,2.01,2.03,2.03
25.39,-2.94,-4.97,-2.93,-4.96,4.96,5.05,3.35,2.01,2.03,2.03
25.65,-2.85,-4.88,-2.84,-4.86,4.86,4.83,3.44,2.02,2.03,2.03
25.91,-2.76,-4.78,-2.74,-4.77,4.77,4.62,3.52,2.01,2.03,2.02
26.16,-2.65,-4.67,-2.65,-4.68,4.68,4.41,3.60,2.02,2.03,2.02
26.43,-2.56,-4.58,-2.56,-4.58,4.58,4.20,3.68,2.03,2.02,2.02
26.69,-2.45,-4.47,-2.47,-4.49,4.49,4.01,3.76,2.03,2.02,2.02
26.96,-2.36,-4.37,-2.38,-4.39,4.39,3.82,3.84,2.04,2.02,2.02
27.23,-2.27,-4.28,-2.29,-4.30,4.30,3.63,3.91,2.03,2.01,2.02
27.50,-2.18,-4.20,-2.19,-4.20,4.20,3.46,3.98,2.02,2.01,2.02
27.77,-2.10,-4.11,-2.10,-4.11,4.11,3.29,4.05,2.01,2.01,2.01
28.05,-2.01,-4.02,-2.01,-4.02,4.02,3.12,4.11,2.00,2.00,2.01
28.33,-1.93,-3.93,-1.92,-3.92,3.92,2.97,4.17,1.99,2.00,1.99
28.62,-1.85,-3.84,-1.84,-3.83,3.83,2.82,4.22,1.99,2.00,1.99
28.90,-1.76,-3.76,-1.75,-3.74,3.74,2.68,4.27,1.98,1.99,1.99
29.19,-1.67,-3.66,-1.66,-3.65,3.65,2.55,4.31,1.98,1.99,1.98
29.48,-1.57,-3.57,-1.57,-3.56,3.56,2.42,4.34,1.98,1.98,1.99
29.78,-1.49,-3.47,-1.49,-3.47,3.47,2.30,4.37,1.98,1.98,1.98
30.08,-1.40,-3.38,-1.40,-3.38,3.38,2.18,4.39,1.98,1.97,1.98
30.38,-1.31,-3.27,-1.32,-3.29,3.29,2.07,4.40,1.98,1.97,1.97
30.68,-1.22,-3.19,-1.23,-3.20,3.20,1.96,4.40,1.97,1.96,1.97
30.99,-1.14,-3.09,-1.15,-3.11,3.11,1.86,4.39,1.97,1.96,1.96
31.30,-1.06,-3.01,-1.06,-3.02,3.02,1.76,4.38,1.96,1.95,1.95
31.61,-0.97,-2.93,-0.98,-2.93,2.93,1.67,4.35,1.95,1.95,1.95
31.93,-0.90,-2.84,-0.89,-2.84,2.84,1.58,4.32,1.94,1.94,1.94
32.24,-0.81,-2.74,-0.81,-2.75,2.75,1.50,4.28,1.94,1.94,1.93
32.57,-0.74,-2.66,-0.73,-2.66,2.66,1.42,4.23,1.93,1.93,1.93
32.89,-0.66,-2.59,-0.65,-2.58,2.58,1.34,4.17,1.91,1.92,1.93
33.22,-0.57,-2.49,-0.57,-2.49,2.49,1.26,4.10,1.92,1.92,1.92
33.55,-0.49,-2.41,-0.49,-2.40,2.40,1.19,4.03,1.91,1.91,1.91
33.89,-0.40,-2.31,-0.41,-2.31,2.31,1.12,3.95,1.91,1.90,1.90
34.23,-0.33,-2.23,-0.33,-2.22,2.22,1.06,3.86,1.90,1.90,1.90
34.57,-0.24,-2.13,-0.24,-2.13,2.13,0.99,3.77,1.89,1.89,1.89
34.92,-0.17,-2.04,-0.16,-2.04,2.04,0.93,3.67,1.88,1.88,1.88
35.27,-0.09,-1.96,-0.08,-1.95,1.95,0.87,3.57,1.86,1.87,1.88
35.62,0.00,-1.86,0.01,-1.86,1.86,0.82,3.46,1.86,1.86,1.86
35.97,0.09,-1.77,0.09,-1.77,1.77,0.76,3.35,1.85,1.86,1.85
36.33,0.18,-1.67,0.17,-1.68,1.68,0.71,3.23,1.85,1.85,1.85
36.70,0.25,-1.58,0.25,-1.59,1.59,0.66,3.12,1.84,1.84,1.84
37.06,0.34,-1.49,0.33,-1.50,1.50,0.60,3.00,1.83,1.83,1.82
37.43,0.42,-1.41,0.41,-1.41,1.41,0.56,2.88,1.82,1.82,1.82
37.81,0.50,-1.31,0.49,-1.32,1.32,0.51,2.75,1.81,1.81,1.81
38.19,0.57,-1.22,0.57,-1.23,1.23,0.46,2.63,1.81,1.80,1.80
38.57,0.65,-1.15,0.65,-1.14,1.14,0.42,2.50,1.79,1.79,1.79
38.95,0.72,-1.07,0.73,-1.05,1.05,0.37,2.38,1.77,1.78,1.78
39.34,0.80,-0.97,0.80,-0.97,0.97,0.33,2.25,1.77,1.77,1.77
39.74,0.86,-0.89,0.88,-0.89,0.89,0.29,2.12,1.75,1.76,1.76
40.14,0.94,-0.81,0.95,-0.80,0.80,0.25,2.00,1.75,1.75,1.75
40.54,1.02,-0.71,1.03,-0.72,0.72,0.21,1.87,1.74,1.75,1.74
40.94,1.11,-0.63,1.10,-0.64,0.64,0.17,1.75,1.74,1.74,1.74
41.35,1.18,-0.55,1.17,-0.56,0.56,0.13,1.62,1.73,1.73,1.72
41.76,1.26,-0.46,1.24,-0.47,0.47,0.09,1.49,1.73,1.72,1.72
42.18,1.33,-0.39,1.31,-0.39,0.39,0.05,1.37,1.72,1.71,1.71
42.60,1.39,-0.31,1.38,-0.31,0.31,0.01,1.24,1.70,1.69,1.70
43.03,1.45,-0.25,1.45,-0.23,0.23,-0.02,1.12,1.68,1.68,1.70
43.46,1.52,-0.17,1.52,-0.15,0.15,-0.06,1.00,1.67,1.67,1.68
43.90,1.57,-0.08,1.58,-0.08,0.08,-0.10,0.87,1.65,1.66,1.66
44.33,1.65,0.00,1.65,-0.00,0.00,-0.13,0.75,1.65,1.65,1.64
44.78,1.71,0.08,1.71,0.07,-0.07,-0.17,0.63,1.63,1.63,1.63
45.23,1.76,0.15,1.77,0.15,-0.15,-0.20,0.51,1.62,1.62,1.61
45.68,1.83,0.24,1.83,0.22,-0.22,-0.24,0.39,1.61,1.60,1.60
46.13,1.89,0.30,1.89,0.30,-0.30,-0.28,0.27,1.59,1.59,1.58
46.60,1.94,0.37,1.94,0.37,-0.37,-0.31,0.15,1.58,1.57,1.58
47.06,2.00,0.44,2.00,0.44,-0.44,-0.35,0.03,1.55,1.55,1.56
47.53,2.05,0.50,2.05,0.51,-0.51,-0.38,-0.08,1.53,1.54,1.54
48.01,2.10,0.56,2.10,0.58,-0.58,-0.42,-0.20,1.51,1.52,1.54
48.49,2.15,0.63,2.15,0.65,-0.65,-0.45,-0.32,1.50,1.50,1.51
48.97,2.21,0.72,2.20,0.71,-0.71,-0.49,-0.43,1.49,1.48,1.48
49.46,2.25,0.79,2.24,0.78,-0.78,-0.53,-0.55,1.47,1.46,1.46
49.96,2.30,0.87,2.28,0.84,-0.84,-0.56,-0.66,1.46,1.44,1.43
50.46,2.33,0.90,2.33,0.90,-0.90,-0.60,-0.77,1.42,1.42,1.42
50.96,2.37,0.96,2.37,0.96,-0.96,-0.63,-0.88,1.40,1.40,1.40
51.47,2.40,1.02,2.41,1.02,-1.02,-0.67,-0.99,1.37,1.38,1.38
51.99,2.44,1.08,2.44,1.08,-1.08,-0.71,-1.10,1.36,1.36,1.36
52.51,2.47,1.13,2.48,1.13,-1.13,-0.75,-1.21,1.34,1.34,1.35
53.03,2.51,1.18,2.51,1.19,-1.19,-0.78,-1.31,1.32,1.32,1.33
53.56,2.55,1.24,2.54,1.24,-1.24,-0.82,-1.41,1.31,1.30,1.31
54.10,2.58,1.28,2.57,1.29,-1.29,-0.86,-1.51,1.29,1.29,1.29
54.64,2.61,1.33,2.60,1.33,-1.33,-0.90,-1.61,1.28,1.27,1.27
55.18,2.64,1.39,2.63,1.37,-1.37,-0.94,-1.70,1.26,1.25,1.25
55.74,2.66,1.43,2.65,1.42,-1.42,-0.98,-1.79,1.24,1.24,1.23
56.29,2.68,1.46,2.68,1.46,-1.46,-1.02,-1.88,1.21,1.22,1.22
56.86,2.70,1.50,2.70,1.50,-1.50,-1.06,-1.96,1.19,1.20,1.20
57.42,2.72,1.54,2.73,1.54,-1.54,-1.10,-2.04,1.17,1.18,1.17
58.00,2.75,1.58,2.75,1.58,-1.58,-1.14,-2.11,1.17,1.17,1.16
58.58,2.77,1.62,2.76,1.62,-1.62,-1.18,-2.18,1.15,1.15,1.15
59.16,2.79,1.65,2.78,1.65,-1.65,-1.22,-2.25,1.14,1.13,1.14
59.76,2.79,1.66,2.79,1.68,-1.68,-1.26,-2.30,1.11,1.11,1.12
60.35,2.81,1.71,2.80,1.71,-1.71,-1.30,-2.36,1.09,1.09,1.10
60.96,2.84,1.75,2.81,1.74,-1.74,-1.35,-2.41,1.09,1.07,1.08
61.57,2.84,1.79,2.82,1.77,-1.77,-1.39,-2.45,1.06,1.05,1.05
62.18,2.84,1.81,2.83,1.80,-1.80,-1.43,-2.48,1.03,1.03,1.02
62.80,2.84,1.83,2.84,1.83,-1.83,-1.48,-2.52,1.00,1.01,1.01
63.43,2.84,1.85,2.85,1.86,-1.86,-1.52,-2.54,0.98,0.99,0.98
64.07,2.84,1.87,2.86,1.89,-1.89,-1.56,-2.56,0.95,0.97,0.96
64.71,2.85,1.90,2.86,1.91,-1.91,-1.61,-2.57,0.93,0.95,0.95
65.35,2.86,1.93,2.87,1.94,-1.94,-1.65,-2.58,0.92,0.93,0.93
66.01,2.89,1.98,2.87,1.96,-1.96,-1.69,-2.59,0.92,0.91,0.91
66.67,2.89,1.99,2.88,1.99,-1.99,-1.73,-2.58,0.90,0.89,0.89
67.33,2.89,2.01,2.88,2.01,-2.01,-1.78,-2.58,0.87,0.87,0.87
68.01,2.89,2.03,2.88,2.03,-2.03,-1.82,-2.57,0.85,0.85,0.85
68.69,2.89,2.05,2.89,2.06,-2.06,-1.86,-2.55,0.83,0.83,0.83
69.37,2.89,2.08,2.89,2.08,-2.08,-1.90,-2.53,0.81,0.81,0.81
70.07,2.89,2.10,2.89,2.10,-2.10,-1.94,-2.51,0.79,0.79,0.79
70.77,2.89,2.11,2.88,2.11,-2.11,-1.98,-2.49,0.77,0.77,0.77
71.48,2.89,2.13,2.88,2.13,-2.13,-2.02,-2.46,0.76,0.75,0.75
72.19,2.88,2.15,2.87,2.14,-2.14,-2.06,-2.43,0.73,0.73,0.73
72.91,2.86,2.15,2.86,2.15,-2.15,-2.09,-2.40,0.70,0.71,0.70
73.64,2.85,2.17,2.85,2.16,-2.16,-2.13,-2.37,0.69,0.68,0.68
74.38,2.84,2.17,2.83,2.17,-2.17,-2.16,-2.34,0.67,0.66,0.66
75.12,2.83,2.19,2.82,2.17,-2.17,-2.19,-2.30,0.65,0.64,0.64
75.87,2.80,2.17,2.80,2.18,-2.18,-2.22,-2.27,0.62,0.62,0.62
76.63,2.79,2.18,2.79,2.18,-2.18,-2.25,-2.23,0.60,0.60,0.60
77.40,2.77,2.18,2.77,2.19,-2.19,-2.28,-2.20,0.58,0.58,0.59
78.17,2.75,2.19,2.75,2.19,-2.19,-2.30,-2.16,0.56,0.57,0.56
78.95,2.75,2.20,2.74,2.19,-2.19,-2.33,-2.13,0.55,0.55,0.55
79.74,2.71,2.18,2.72,2.19,-2.19,-2.35,-2.09,0.51,0.53,0.53
80.54,2.70,2.19,2.70,2.20,-2.20,-2.36,-2.06,0.50,0.51,0.51
81.35,2.69,2.20,2.69,2.20,-2.20,-2.38,-2.03,0.49,0.49,0.49
82.16,2.66,2.19,2.67,2.20,-2.20,-2.39,-1.99,0.45,0.47,0.47
82.98,2.65,2.19,2.65,2.20,-2.20,-2.40,-1.96,0.44,0.45,0.46
83.81,2.65,2.22,2.63,2.21,-2.21,-2.41,-1.93,0.44,0.43,0.42
84.65,2.62,2.21,2.61,2.21,-2.21,-2.42,-1.91,0.41,0.41,0.40
85.50,2.60,2.21,2.59,2.20,-2.20,-2.42,-1.88,0.39,0.38,0.39
86.35,2.57,2.20,2.56,2.19,-2.19,-2.42,-1.85,0.37,0.36,0.36
87.22,2.53,2.19,2.52,2.18,-2.18,-2.42,-1.83,0.34,0.34,0.34
88.09,2.51,2.19,2.49,2.17,-2.17,-2.41,-1.81,0.33,0.32,0.31
88.97,2.47,2.17,2.45,2.16,-2.16,-2.40,-1.78,0.31,0.29,0.30
89.86,2.44,2.16,2.41,2.14,-2.14,-2.39,-1.77,0.29,0.27,0.27
90.76,2.38,2.14,2.37,2.12,-2.12,-2.38,-1.75,0.25,0.24,0.24
91.66,2.33,2.11,2.32,2.10,-2.10,-2.37,-1.73,0.22,0.22,0.22
92.58,2.27,2.08,2.27,2.08,-2.08,-2.35,-1.71,0.18,0.19,0.18
93.51,2.21,2.04,2.23,2.06,-2.06,-2.33,-1.70,0.14,0.16,0.17
94.44,2.16,2.02,2.18,2.05,-2.05,-2.31,-1.69,0.11,0.13,0.14
95.39,2.12,2.01,2.13,2.03,-2.03,-2.29,-1.68,0.09,0.10,0.11
96.34,2.08,2.00,2.09,2.01,-2.01,-2.26,-1.67,0.06,0.08,0.07
97.30,2.04,1.99,2.04,2.00,-2.00,-2.24,-1.66,0.04,0.05,0.04
98.28,2.00,1.98,2.00,1.98,-1.98,-2.21,-1.65,0.01,0.02,0.01
99.26,1.97,1.98,1.96,1.97,-1.97,-2.18,-1.64,-0.00,-0.01,-0.01
100.25,1.92,1.96,1.91,1.96,-1.96,-2.15,-1.64,-0.04,-0.04,-0.04
101.25,1.88,1.95,1.87,1.95,-1.95,-2.12,-1.63,-0.07,-0.07,-0.07
102.27,1.85,1.95,1.83,1.94,-1.94,-2.09,-1.63,-0.09,-0.10,-0.10
103.29,1.81,1.95,1.80,1.93,-1.93,-2.06,-1.63,-0.12,-0.13,-0.14
104.32,1.76,1.92,1.76,1.92,-1.92,-2.02,-1.63,-0.16,-0.16,-0.16
105.37,1.71,1.90,1.71,1.91,-1.91,-1.99,-1.63,-0.20,-0.19,-0.19
106.42,1.68,1.89,1.67,1.89,-1.89,-1.96,-1.63,-0.22,-0.22,-0.22
107.48,1.64,1.88,1.63,1.88,-1.88,-1.92,-1.63,-0.25,-0.25,-0.25
108.56,1.59,1.87,1.58,1.87,-1.87,-1.89,-1.63,-0.28,-0.29,-0.29
109.64,1.54,1.85,1.54,1.86,-1.86,-1.85,-1.63,-0.32,-0.32,-0.32
110.74,1.50,1.84,1.49,1.85,-1.85,-1.82,-1.63,-0.35,-0.35,-0.35
111.85,1.45,1.82,1.45,1.84,-1.84,-1.78,-1.63,-0.39,-0.39,-0.37
112.97,1.42,1.84,1.41,1.83,-1.83,-1.75,-1.63,-0.41,-0.42,-0.42
114.10,1.37,1.82,1.36,1.82,-1.82,-1.72,-1.63,-0.45,-0.45,-0.45
115.24,1.31,1.80,1.32,1.81,-1.81,-1.68,-1.63,-0.50,-0.49,-0.49
116.39,1.27,1.79,1.28,1.80,-1.80,-1.65,-1.63,-0.54,-0.52,-0.53
117.55,1.23,1.79,1.23,1.79,-1.79,-1.62,-1.63,-0.57,-0.56,-0.57
118.73,1.19,1.79,1.19,1.78,-1.78,-1.58,-1.63,-0.60,-0.60,-0.60
119.92,1.14,1.77,1.14,1.78,-1.78,-1.55,-1.63,-0.64,-0.63,-0.63
121.12,1.11,1.77,1.10,1.76,-1.76,-1.52,-1.63,-0.66,-0.67,-0.67
122.33,1.06,1.76,1.05,1.75,-1.75,-1.49,-1.62,-0.70,-0.70,-0.70
123.55,1.02,1.74,1.00,1.74,-1.74,-1.46,-1.62,-0.72,-0.74,-0.73
124.79,0.97,1.73,0.95,1.72,-1.72,-1.43,-1.61,-0.76,-0.77,-0.76
126.03,0.92,1.72,0.90,1.70,-1.70,-1.40,-1.61,-0.79,-0.80,-0.80
127.29,0.86,1.69,0.84,1.68,-1.68,-1.37,-1.60,-0.83,-0.84,-0.83
128.57,0.79,1.66,0.79,1.66,-1.66,-1.34,-1.59,-0.88,-0.87,-0.88
129.85,0.73,1.64,0.73,1.64,-1.64,-1.31,-1.58,-0.91,-0.91,-0.91
131.15,0.67,1.61,0.67,1.61,-1.61,-1.29,-1.57,-0.95,-0.94,-0.95
132.46,0.61,1.58,0.61,1.59,-1.59,-1.26,-1.56,-0.98,-0.97,-0.98
133.79,0.54,1.54,0.55,1.56,-1.56,-1.24,-1.55,-1.02,-1.01,-1.00
135.12,0.49,1.53,0.49,1.53,-1.53,-1.21,-1.54,-1.04,-1.04,-1.04
136.48,0.44,1.50,0.43,1.49,-1.49,-1.19,-1.53,-1.06,-1.06,-1.06
137.84,0.38,1.47,0.37,1.46,-1.46,-1.17,-1.51,-1.09,-1.09,-1.09
139.22,0.32,1.45,0.31,1.43,-1.43,-1.14,-1.50,-1.11,-1.12,-1.13
140.61,0.26,1.42,0.25,1.39,-1.39,-1.12,-1.49,-1.14,-1.15,-1.16
142.02,0.19,1.35,0.19,1.36,-1.36,-1.10,-1.47,-1.17,-1.17,-1.17
143.44,0.13,1.32,0.13,1.32,-1.32,-1.08,-1.46,-1.20,-1.20,-1.20
144.87,0.08,1.30,0.07,1.29,-1.29,-1.06,-1.44,-1.22,-1.22,-1.22
146.32,0.01,1.26,0.01,1.26,-1.26,-1.05,-1.43,-1.25,-1.25,-1.25
147.78,-0.06,1.20,-0.05,1.23,-1.23,-1.03,-1.42,-1.29,-1.28,-1.27
149.26,-0.11,1.18,-0.10,1.20,-1.20,-1.01,-1.40,-1.31,-1.30,-1.29
150.75,-0.16,1.16,-0.16,1.17,-1.17,-1.00,-1.39,-1.33,-1.33,-1.33
152.26,-0.21,1.14,-0.22,1.14,-1.14,-0.98,-1.38,-1.35,-1.35,-1.35
153.78,-0.27,1.10,-0.27,1.11,-1.11,-0.97,-1.36,-1.39,-1.38,-1.38
155.32,-0.33,1.07,-0.32,1.09,-1.09,-0.96,-1.35,-1.42,-1.41,-1.41
156.88,-0.36,1.07,-0.37,1.06,-1.06,-0.94,-1.34,-1.43,-1.44,-1.43
158.44,-0.41,1.05,-0.42,1.04,-1.04,-0.93,-1.33,-1.46,-1.46,-1.46
160.03,-0.45,1.04,-0.47,1.02,-1.02,-0.92,-1.32,-1.47,-1.49,-1.50
161.63,-0.52,1.00,-0.52,1.00,-1.00,-0.91,-1.31,-1.52,-1.52,-1.53
163.24,-0.57,0.98,-0.57,0.98,-0.98,-0.90,-1.30,-1.56,-1.55,-1.56
164.88,-0.61,0.96,-0.62,0.96,-0.96,-0.89,-1.30,-1.58,-1.58,-1.58
166.53,-0.66,0.94,-0.66,0.94,-0.94,-0.89,-1.29,-1.61,-1.61,-1.61
168.19,-0.71,0.92,-0.71,0.92,-0.92,-0.88,-1.28,-1.64,-1.64,-1.63
169.87,-0.75,0.91,-0.76,0.90,-0.90,-0.88,-1.28,-1.66,-1.66,-1.66
171.57,-0.80,0.89,-0.81,0.88,-0.88,-0.87,-1.28,-1.69,-1.69,-1.69
173.29,-0.84,0.87,-0.86,0.86,-0.86,-0.87,-1.27,-1.71,-1.72,-1.72
175.02,-0.89,0.85,-0.91,0.85,-0.85,-0.87,-1.27,-1.74,-1.75,-1.74
176.77,-0.93,0.85,-0.95,0.83,-0.83,-0.87,-1.27,-1.76,-1.78,-1.78
178.54,-0.98,0.83,-1.00,0.81,-0.81,-0.87,-1.27,-1.80,-1.81,-1.82
180.32,-1.03,0.81,-1.03,0.81,-0.81,-0.87,-1.27,-1.84,-1.84,-1.84
182.13,-1.07,0.79,-1.07,0.80,-0.80,-0.87,-1.27,-1.87,-1.87,-1.87
183.95,-1.11,0.79,-1.10,0.80,-0.80,-0.87,-1.28,-1.91,-1.90,-1.90
185.79,-1.15,0.77,-1.13,0.80,-0.80,-0.88,-1.28,-1.95,-1.93,-1.92
187.65,-1.17,0.78,-1.15,0.81,-0.81,-0.89,-1.29,-1.98,-1.95,-1.96
189.52,-1.17,0.81,-1.16,0.81,-0.81,-0.89,-1.29,-1.99,-1.98,-1.98
191.42,-1.18,0.82,-1.17,0.83,-0.83,-0.90,-1.30,-2.01,-2.00,-2.00
193.33,-1.17,0.85,-1.18,0.85,-0.85,-0.92,-1.31,-2.03,-2.03,-2.02
195.27,-1.17,0.87,-1.17,0.88,-0.88,-0.93,-1.32,-2.05,-2.05,-2.05
197.22,-1.17,0.89,-1.17,0.90,-0.90,-0.94,-1.33,-2.08,-2.07,-2.07
199.19,-1.14,0.95,-1.15,0.93,-0.93,-0.96,-1.34,-2.08,-2.09,-2.10
201.18,-1.12,0.98,-1.14,0.97,-0.97,-0.98,-1.35,-2.09,-2.11,-2.11
203.19,-1.12,0.99,-1.12,1.00,-1.00,-1.00,-1.36,-2.13,-2.12,-2.12
205.23,-1.10,1.03,-1.10,1.03,-1.03,-1.03,-1.37,-2.14,-2.14,-2.14
207.28,-1.07,1.06,-1.08,1.07,-1.07,-1.05,-1.38,-2.14,-2.15,-2.14
209.35,-1.04,1.11,-1.06,1.10,-1.10,-1.08,-1.39,-2.14,-2.16,-2.16
211.44,-1.02,1.15,-1.05,1.12,-1.12,-1.11,-1.40,-2.15,-2.17,-2.18
213.56,-0.99,1.18,-1.03,1.15,-1.15,-1.15,-1.41,-2.14,-2.17,-2.18
215.69,-0.98,1.19,-1.01,1.17,-1.17,-1.19,-1.43,-2.15,-2.18,-2.17
217.85,-0.98,1.20,-0.99,1.20,-1.20,-1.23,-1.44,-2.18,-2.18,-2.18
220.03,-0.95,1.23,-0.96,1.22,-1.22,-1.27,-1.45,-2.18,-2.18,-2.19
222.23,-0.93,1.26,-0.94,1.25,-1.25,-1.32,-1.46,-2.18,-2.19,-2.20
224.45,-0.91,1.27,-0.90,1.28,-1.28,-1.37,-1.47,-2.20,-2.18,-2.18
226.70,-0.87,1.31,-0.86,1.32,-1.32,-1.42,-1.48,-2.19,-2.18,-2.18
228.96,-0.84,1.33,-0.81,1.36,-1.36,-1.48,-1.48,-2.21,-2.18,-2.18
231.25,-0.79,1.37,-0.76,1.41,-1.41,-1.54,-1.49,-2.21,-2.17,-2.16
233.57,-0.73,1.43,-0.69,1.47,-1.47,-1.60,-1.50,-2.21,-2.16,-2.16
235.90,-0.66,1.49,-0.62,1.54,-1.54,-1.66,-1.50,-2.20,-2.16,-2.16
238.26,-0.55,1.60,-0.53,1.61,-1.61,-1.72,-1.50,-2.17,-2.15,-2.15
240.64,-0.46,1.67,-0.44,1.69,-1.69,-1.78,-1.50,-2.16,-2.14,-2.14
243.05,-0.37,1.75,-0.35,1.78,-1.78,-1.84,-1.50,-2.15,-2.12,-2.12
245.48,-0.27,1.83,-0.25,1.86,-1.86,-1.89,-1.50,-2.13,-2.11,-2.11
247.93,-0.15,1.94,-0.15,1.94,-1.94,-1.94,-1.50,-2.09,-2.09,-2.09
250.41,-0.05,2.03,-0.06,2.01,-2.01,-1.99,-1.49,-2.07,-2.08,-2.09
252.92,0.06,2.12,0.02,2.08,-2.08,-2.03,-1.48,-2.02,-2.06,-2.06
255.45,0.14,2.17,0.09,2.13,-2.13,-2.06,-1.47,-1.99,-2.04,-2.04
258.00,0.19,2.21,0.14,2.17,-2.17,-2.07,-1.46,-1.98,-2.02,-2.02
260.58,0.23,2.23,0.18,2.19,-2.19,-2.08,-1.45,-1.96,-2.00,-2.00
263.19,0.27,2.24,0.21,2.19,-2.19,-2.08,-1.44,-1.92,-1.98,-1.98
265.82,0.28,2.24,0.21,2.17,-2.17,-2.06,-1.42,-1.90,-1.96,-1.96
268.48,0.26,2.19,0.20,2.14,-2.14,-2.03,-1.40,-1.89,-1.94,-1.94
271.16,0.21,2.11,0.18,2.10,-2.10,-1.99,-1.38,-1.89,-1.92,-1.91
273.87,0.14,2.03,0.14,2.04,-2.04,-1.95,-1.36,-1.90,-1.89,-1.89
276.61,0.09,1.95,0.10,1.97,-1.97,-1.89,-1.34,-1.88,-1.87,-1.87
279.38,0.02,1.86,0.04,1.89,-1.89,-1.83,-1.32,-1.87,-1.85,-1.85
282.17,-0.05,1.78,-0.02,1.81,-1.81,-1.77,-1.30,-1.86,-1.83,-1.83
284.99,-0.10,1.70,-0.09,1.72,-1.72,-1.70,-1.27,-1.82,-1.81,-1.81
287.84,-0.18,1.60,-0.16,1.63,-1.63,-1.62,-1.25,-1.81,-1.79,-1.79
290.72,-0.25,1.51,-0.22,1.54,-1.54,-1.55,-1.22,-1.79,-1.76,-1.76
293.63,-0.30,1.44,-0.29,1.45,-1.45,-1.48,-1.20,-1.75,-1.74,-1.74
296.57,-0.34,1.37,-0.35,1.37,-1.37,-1.41,-1.17,-1.71,-1.72,-1.72
299.53,-0.40,1.29,-0.40,1.29,-1.29,-1.34,-1.14,-1.69,-1.69,-1.70
302.53,-0.45,1.23,-0.45,1.22,-1.22,-1.27,-1.12,-1.67,-1.67,-1.68
305.55,-0.51,1.13,-0.50,1.15,-1.15,-1.21,-1.09,-1.66,-1.64,-1.64
308.61,-0.55,1.07,-0.54,1.08,-1.08,-1.15,-1.06,-1.63,-1.62,-1.62
311.69,-0.58,1.01,-0.58,1.02,-1.02,-1.09,-1.04,-1.60,-1.60,-1.60
314.81,-0.61,0.94,-0.61,0.96,-0.96,-1.03,-1.01,-1.57,-1.57,-1.56
317.96,-0.65,0.89,-0.65,0.90,-0.90,-0.98,-0.98,-1.56,-1.55,-1.54
321.14,-0.66,0.86,-0.67,0.85,-0.85,-0.93,-0.96,-1.51,-1.52,-1.52
324.35,-0.69,0.81,-0.70,0.80,-0.80,-0.89,-0.93,-1.49,-1.50,-1.50
327.59,-0.71,0.76,-0.73,0.75,-0.75,-0.84,-0.91,-1.47,-1.48,-1.48
330.87,-0.74,0.71,-0.75,0.71,-0.71,-0.80,-0.88,-1.46,-1.46,-1.46
334.18,-0.75,0.68,-0.76,0.67,-0.67,-0.76,-0.86,-1.43,-1.43,-1.44
337.52,-0.79,0.63,-0.78,0.63,-0.63,-0.72,-0.84,-1.43,-1.41,-1.42
340.90,-0.80,0.59,-0.80,0.60,-0.60,-0.69,-0.81,-1.40,-1.39,-1.39
344.30,-0.80,0.57,-0.81,0.56,-0.56,-0.66,-0.79,-1.37,-1.37,-1.37
347.75,-0.83,0.52,-0.82,0.53,-0.53,-0.63,-0.77,-1.36,-1.36,-1.35
351.23,-0.84,0.49,-0.84,0.50,-0.50,-0.60,-0.75,-1.34,-1.34,-1.34
354.74,-0.84,0.47,-0.85,0.47,-0.47,-0.57,-0.73,-1.31,-1.32,-1.32
358.28,-0.84,0.45,-0.86,0.44,-0.44,-0.54,-0.71,-1.28,-1.30,-1.30
361.87,-0.84,0.43,-0.87,0.41,-0.41,-0.52,-0.69,-1.26,-1.28,-1.28
365.49,-0.86,0.40,-0.87,0.39,-0.39,-0.50,-0.67,-1.26,-1.26,-1.26
369.14,-0.89,0.36,-0.88,0.37,-0.37,-0.48,-0.65,-1.26,-1.25,-1.25
372.83,-0.89,0.34,-0.88,0.35,-0.35,-0.46,-0.63,-1.24,-1.23,-1.23
376.56,-0.89,0.33,-0.89,0.33,-0.33,-0.44,-0.61,-1.22,-1.22,-1.22
380.33,-0.89,0.30,-0.89,0.31,-0.31,-0.42,-0.60,-1.20,-1.20,-1.19
384.13,-0.89,0.29,-0.90,0.29,-0.29,-0.40,-0.58,-1.19,-1.19,-1.19
387.97,-0.89,0.28,-0.90,0.28,-0.28,-0.39,-0.56,-1.17,-1.18,-1.18
391.85,-0.89,0.27,-0.90,0.26,-0.26,-0.37,-0.55,-1.16,-1.16,-1.17
395.77,-0.89,0.25,-0.90,0.25,-0.25,-0.36,-0.53,-1.14,-1.15,-1.15
399.73,-0.89,0.24,-0.90,0.24,-0.24,-0.34,-0.52,-1.13,-1.14,-1.14
403.72,-0.89,0.23,-0.90,0.23,-0.23,-0.33,-0.50,-1.12,-1.13,-1.13
407.76,-0.89,0.23,-0.89,0.22,-0.22,-0.32,-0.49,-1.12,-1.12,-1.12
411.84,-0.89,0.21,-0.89,0.22,-0.22,-0.30,-0.48,-1.11,-1.10,-1.10
415.96,-0.89,0.20,-0.88,0.21,-0.21,-0.29,-0.46,-1.11,-1.09,-1.09
420.12,-0.87,0.21,-0.87,0.21,-0.21,-0.28,-0.45,-1.09,-1.08,-1.08
424.32,-0.85,0.22,-0.86,0.21,-0.21,-0.27,-0.44,-1.07,-1.07,-1.07
428.56,-0.84,0.22,-0.85,0.21,-0.21,-0.26,-0.43,-1.06,-1.06,-1.06
432.85,-0.84,0.21,-0.84,0.21,-0.21,-0.25,-0.42,-1.06,-1.05,-1.05
437.18,-0.81,0.23,-0.82,0.22,-0.22,-0.24,-0.41,-1.03,-1.04,-1.04
441.55,-0.80,0.22,-0.81,0.22,-0.22,-0.23,-0.40,-1.03,-1.03,-1.02
445.96,-0.80,0.21,-0.79,0.23,-0.23,-0.22,-0.39,-1.03,-1.01,-1.01
450.42,-0.76,0.24,-0.77,0.23,-0.23,-0.22,-0.38,-1.00,-1.00,-1.01
454.93,-0.75,0.23,-0.75,0.24,-0.24,-0.21,-0.37,-0.99,-0.99,-0.99
459.48,-0.72,0.25,-0.73,0.24,-0.24,-0.20,-0.36,-0.97,-0.97,-0.98
464.07,-0.70,0.25,-0.71,0.25,-0.25,-0.19,-0.35,-0.95,-0.96,-0.96
468.71,-0.68,0.25,-0.69,0.25,-0.25,-0.19,-0.34,-0.94,-0.94,-0.94
473.40,-0.66,0.26,-0.67,0.26,-0.26,-0.18,-0.33,-0.92,-0.93,-0.93
478.13,-0.65,0.25,-0.65,0.26,-0.26,-0.17,-0.33,-0.92,-0.91,-0.91
482.91,-0.62,0.27,-0.63,0.27,-0.27,-0.17,-0.32,-0.89,-0.90,-0.90
