frequency,raw,error,smoothed,error_smoothed,equalization,parametric_eq,fixed_band_eq,equalized_raw,equalized_smoothed,target
20.00,-5.69,-11.30,-5.69,-11.30,6.00,5.94,2.69,0.31,0.31,5.61
20.20,-5.65,-11.25,-5.64,-11.24,6.00,5.94,2.76,0.35,0.36,5.60
20.40,-5.59,-11.19,-5.60,-11.19,6.00,5.94,2.84,0.41,0.40,5.59
20.61,-5.56,-11.14,-5.56,-11.13,6.00,5.95,2.92,0.44,0.44,5.58
20.81,-5.51,-11.08,-5.52,-11.08,6.00,5.95,3.01,0.49,0.48,5.56
21.02,-5.48,-11.03,-5.47,-11.03,6.00,5.95,3.09,0.52,0.53,5.55
21.23,-5.44,-10.98,-5.43,-10.98,6.00,5.95,3.18,0.56,0.57,5.54
21.44,-5.38,-10.94,-5.39,-10.93,6.00,5.95,3.27,0.62,0.61,5.55
21.66,-5.35,-10.88,-5.35,-10.88,6.00,5.95,3.36,0.65,0.65,5.53
21.87,-5.30,-10.83,-5.30,-10.83,6.00,5.96,3.46,0.70,0.70,5.53
22.09,-5.26,-10.77,-5.27,-10.78,6.00,5.96,3.56,0.74,0.73,5.51
22.31,-5.22,-10.73,-5.22,-10.73,6.00,5.96,3.66,0.78,0.78,5.51
22.54,-5.19,-10.68,-5.18,-10.68,6.00,5.96,3.76,0.81,0.82,5.50
22.76,-5.14,-10.63,-5.14,-10.63,6.00,5.96,3.87,0.86,0.86,5.50
22.99,-5.10,-10.58,-5.10,-10.58,6.00,5.96,3.98,0.90,0.90,5.49
23.22,-5.06,-10.53,-5.05,-10.54,6.00,5.97,4.09,0.94,0.95,5.48
23.45,-5.02,-10.50,-5.02,-10.49,6.00,5.97,4.20,0.98,0.98,5.49
23.69,-4.98,-10.45,-4.98,-10.45,6.00,5.97,4.32,1.02,1.02,5.48
23.92,-4.93,-10.40,-4.94,-10.41,6.00,5.97,4.44,1.07,1.06,5.47
24.16,-4.89,-10.37,-4.90,-10.37,6.00,5.97,4.56,1.11,1.10,5.47
24.40,-4.85,-10.33,-4.85,-10.33,6.00,5.98,4.68,1.15,1.15,5.47
24.65,-4.82,-10.29,-4.82,-10.29,6.00,5.98,4.80,1.18,1.18,5.47
24.89,-4.77,-10.25,-4.77,-10.24,6.00,5.98,4.93,1.23,1.23,5.47
25.14,-4.73,-10.20,-4.74,-10.20,6.00,5.98,5.06,1.27,1.26,5.46
25.39,-4.69,-10.16,-4.69,-10.15,6.00,5.98,5.19,1.31,1.31,5.46
25.65,-4.66,-10.12,-4.65,-10.11,6.00,5.98,5.32,1.34,1.35,5.46
25.91,-4.61,-10.07,-4.61,-10.07,6.00,5.99,5.45,1.39,1.39,5.46
26.16,-4.56,-10.03,-4.57,-10.03,6.00,5.99,5.58,1.44,1.43,5.47
26.43,-4.54,-10.00,-4.53,-10.00,6.00,5.99,5.71,1.46,1.47,5.47
26.69,-4.50,-9.96,-4.50,-9.96,6.00,5.99,5.84,1.50,1.50,5.47
26.96,-4.46,-9.92,-4.46,-9.92,6.00,5.99,5.97,1.54,1.54,5.47
27.23,-4.42,-9.88,-4.42,-9.88,6.00,6.00,6.09,1.58,1.58,5.46
27.50,-4.38,-9.84,-4.38,-9.84,6.00,6.00,6.22,1.62,1.62,5.46
27.77,-4.34,-9.82,-4.34,-9.81,6.00,6.00,6.33,1.66,1.66,5.47
28.05,-4.31,-9.78,-4.31,-9.78,6.00,6.00,6.45,1.69,1.69,5.47
28.33,-4.28,-9.75,-4.27,-9.75,6.00,6.01,6.56,1.72,1.73,5.48
28.62,-4.24,-9.71,-4.24,-9.72,6.00,6.01,6.67,1.76,1.76,5.48
28.90,-4.20,-9.68,-4.20,-9.68,6.00,6.01,6.76,1.80,1.80,5.49
29.19,-4.17,-9.65,-4.16,-9.65,6.00,6.01,6.86,1.83,1.84,5.49
29.48,-4.13,-9.61,-4.13,-9.61,6.00,6.01,6.94,1.87,1.87,5.48
29.78,-4.10,-9.58,-4.09,-9.58,6.00,6.02,7.02,1.90,1.91,5.48
30.08,-4.06,-9.54,-4.06,-9.54,6.00,6.02,7.08,1.94,1.94,5.48
30.38,-4.03,-9.49,-4.02,-9.50,6.00,6.02,7.15,1.97,1.98,5.47
30.68,-3.99,-9.45,-3.99,-9.46,6.00,6.02,7.19,2.01,2.01,5.47
30.99,-3.96,-9.42,-3.96,-9.42,6.00,6.02,7.23,2.04,2.04,5.47
31.30,-3.93,-9.39,-3.92,-9.39,6.00,6.03,7.26,2.07,2.08,5.46
31.61,-3.90,-9.36,-3.90,-9.35,6.00,6.03,7.28,2.10,2.10,5.46
31.93,-3.87,-9.31,-3.86,-9.31,6.00,6.03,7.28,2.13,2.14,5.44
32.24,-3.83,-9.28,-3.84,-9.28,6.00,6.03,7.29,2.17,2.16,5.45
32.57,-3.81,-9.24,-3.81,-9.24,6.00,6.03,7.27,2.19,2.19,5.44
32.89,-3.79,-9.22,-3.78,-9.22,6.00,6.04,7.26,2.21,2.22,5.43
33.22,-3.76,-9.19,-3.76,-9.19,6.00,6.04,7.23,2.24,2.24,5.43
33.55,-3.74,-9.16,-3.73,-9.16,6.00,6.04,7.19,2.26,2.27,5.43
33.89,-3.71,-9.12,-3.70,-9.12,6.00,6.04,7.15,2.29,2.30,5.42
34.23,-3.68,-9.08,-3.68,-9.08,6.00,6.04,7.10,2.32,2.32,5.40
34.57,-3.65,-9.05,-3.65,-9.05,6.00,6.05,7.04,2.35,2.35,5.40
34.92,-3.63,-9.01,-3.62,-9.02,6.00,6.05,6.98,2.37,2.38,5.39
35.27,-3.60,-9.00,-3.60,-8.99,6.00,6.05,6.92,2.40,2.40,5.40
35.62,-3.58,-8.96,-3.57,-8.96,6.00,6.05,6.85,2.42,2.43,5.38
35.97,-3.55,-8.92,-3.55,-8.92,6.00,6.05,6.78,2.45,2.45,5.38
36.33,-3.53,-8.89,-3.52,-8.88,6.00,6.06,6.71,2.47,2.48,5.36
36.70,-3.50,-8.84,-3.50,-8.84,6.00,6.06,6.64,2.50,2.50,5.34
37.06,-3.48,-8.80,-3.47,-8.80,6.00,6.06,6.57,2.52,2.53,5.33
37.43,-3.44,-8.76,-3.44,-8.76,6.00,6.06,6.50,2.56,2.56,5.31
37.81,-3.42,-8.71,-3.42,-8.72,6.00,6.06,6.43,2.58,2.58,5.30
38.19,-3.40,-8.67,-3.40,-8.68,6.00,6.06,6.36,2.60,2.60,5.28
38.57,-3.39,-8.65,-3.38,-8.64,6.00,6.06,6.29,2.61,2.62,5.26
38.95,-3.37,-8.61,-3.36,-8.61,6.00,6.07,6.22,2.63,2.64,5.25
39.34,-3.35,-8.57,-3.35,-8.57,6.00,6.07,6.16,2.65,2.65,5.22
39.74,-3.33,-8.52,-3.33,-8.53,6.00,6.07,6.10,2.67,2.67,5.20
40.14,-3.31,-8.49,-3.31,-8.49,6.00,6.07,6.04,2.69,2.69,5.18
40.54,-3.29,-8.45,-3.29,-8.45,6.00,6.07,5.98,2.71,2.71,5.17
40.94,-3.27,-8.41,-3.27,-8.41,6.00,6.07,5.93,2.73,2.73,5.14
41.35,-3.25,-8.37,-3.25,-8.37,6.00,6.07,5.88,2.75,2.75,5.13
41.76,-3.23,-8.32,-3.23,-8.33,6.00,6.07,5.84,2.77,2.77,5.10
42.18,-3.21,-8.30,-3.21,-8.29,6.00,6.07,5.80,2.79,2.79,5.09
42.60,-3.19,-8.25,-3.18,-8.25,6.00,6.07,5.76,2.81,2.82,5.07
43.03,-3.17,-8.22,-3.16,-8.21,6.00,6.07,5.73,2.83,2.84,5.05
43.46,-3.14,-8.16,-3.14,-8.16,6.00,6.07,5.70,2.86,2.86,5.02
43.90,-3.12,-8.12,-3.11,-8.12,6.00,6.07,5.68,2.88,2.89,5.01
44.33,-3.09,-8.06,-3.09,-8.07,6.00,6.07,5.66,2.91,2.91,4.98
44.78,-3.07,-8.03,-3.07,-8.03,6.00,6.07,5.65,2.93,2.93,4.96
45.23,-3.05,-7.99,-3.04,-7.98,6.00,6.07,5.64,2.95,2.96,4.94
45.68,-3.03,-7.93,-3.03,-7.94,6.00,6.07,5.63,2.97,2.97,4.91
46.13,-3.01,-7.88,-3.01,-7.88,6.00,6.07,5.63,2.99,2.99,4.88
46.60,-2.99,-7.83,-2.99,-7.83,6.00,6.06,5.63,3.01,3.01,4.85
47.06,-2.97,-7.78,-2.97,-7.78,6.00,6.06,5.64,3.03,3.03,4.82
47.53,-2.95,-7.73,-2.95,-7.73,6.00,6.06,5.65,3.05,3.05,4.79
48.01,-2.93,-7.67,-2.92,-7.67,6.00,6.06,5.66,3.07,3.08,4.74
48.49,-2.91,-7.62,-2.90,-7.61,6.00,6.06,5.68,3.09,3.10,4.71
48.97,-2.88,-7.54,-2.88,-7.55,6.00,6.05,5.70,3.12,3.12,4.67
49.46,-2.87,-7.50,-2.87,-7.50,6.00,6.05,5.73,3.13,3.13,4.64
49.96,-2.86,-7.44,-2.86,-7.45,6.00,6.05,5.76,3.14,3.14,4.59
50.46,-2.86,-7.42,-2.85,-7.42,6.00,6.04,5.79,3.14,3.15,4.57
50.96,-2.85,-7.38,-2.84,-7.37,6.00,6.04,5.82,3.15,3.16,4.53
51.47,-2.84,-7.34,-2.84,-7.33,6.00,6.03,5.85,3.16,3.16,4.50
51.99,-2.83,-7.28,-2.83,-7.29,6.00,6.03,5.89,3.17,3.17,4.46
52.51,-2.82,-7.25,-2.82,-7.25,6.00,6.02,5.93,3.18,3.18,4.43
53.03,-2.81,-7.21,-2.80,-7.21,6.00,6.02,5.97,3.19,3.20,4.41
53.56,-2.79,-7.16,-2.79,-7.16,6.00,6.01,6.00,3.21,3.21,4.37
54.10,-2.77,-7.10,-2.77,-7.10,6.00,6.01,6.04,3.23,3.23,4.33
54.64,-2.75,-7.05,-2.75,-7.05,6.00,6.00,6.08,3.25,3.25,4.30
55.18,-2.73,-6.99,-2.73,-7.00,6.00,5.99,6.12,3.27,3.27,4.27
55.74,-2.72,-6.95,-2.71,-6.95,6.00,5.98,6.16,3.28,3.29,4.23
56.29,-2.70,-6.91,-2.70,-6.91,6.00,5.98,6.19,3.30,3.30,4.21
56.86,-2.68,-6.86,-2.68,-6.86,6.00,5.97,6.22,3.32,3.32,4.19
57.42,-2.67,-6.81,-2.66,-6.81,6.00,5.96,6.25,3.33,3.34,4.15
58.00,-2.65,-6.76,-2.65,-6.77,6.00,5.95,6.28,3.35,3.35,4.12
58.58,-2.64,-6.74,-2.64,-6.74,6.00,5.94,6.30,3.36,3.36,4.10
59.16,-2.64,-6.71,-2.63,-6.71,6.00,5.93,6.31,3.36,3.37,4.08
59.76,-2.62,-6.66,-2.61,-6.66,6.00,5.92,6.32,3.38,3.39,4.05
60.35,-2.60,-6.60,-2.59,-6.60,6.00,5.90,6.33,3.40,3.41,4.01
60.96,-2.57,-6.53,-2.57,-6.53,6.00,5.89,6.33,3.43,3.43,3.97
61.57,-2.55,-6.46,-2.55,-6.46,6.00,5.88,6.32,3.45,3.45,3.91
62.18,-2.53,-6.39,-2.53,-6.40,6.00,5.86,6.30,3.47,3.47,3.87
62.80,-2.52,-6.34,-2.51,-6.33,6.00,5.85,6.29,3.49,3.49,3.82
63.43,-2.50,-6.27,-2.49,-6.28,6.00,5.83,6.26,3.51,3.51,3.78
64.07,-2.48,-6.22,-2.48,-6.22,6.01,5.82,6.23,3.53,3.53,3.74
64.71,-2.46,-6.16,-2.45,-6.16,6.01,5.80,6.19,3.55,3.55,3.71
65.35,-2.44,-6.10,-2.44,-6.11,6.00,5.78,6.14,3.57,3.56,3.67
66.01,-2.43,-6.06,-2.42,-6.06,5.99,5.77,6.09,3.57,3.57,3.63
66.67,-2.42,-6.02,-2.42,-6.01,5.98,5.75,6.04,3.57,3.56,3.60
67.33,-2.42,-5.97,-2.42,-5.98,5.97,5.73,5.98,3.55,3.55,3.55
68.01,-2.43,-5.95,-2.42,-5.94,5.94,5.71,5.91,3.52,3.52,3.52
68.69,-2.43,-5.91,-2.43,-5.91,5.92,5.69,5.84,3.49,3.49,3.48
69.37,-2.43,-5.87,-2.43,-5.88,5.88,5.66,5.77,3.45,3.45,3.45
70.07,-2.44,-5.84,-2.43,-5.84,5.84,5.64,5.69,3.40,3.41,3.41
70.77,-2.44,-5.80,-2.43,-5.80,5.79,5.62,5.61,3.36,3.36,3.36
71.48,-2.43,-5.75,-2.43,-5.75,5.74,5.59,5.53,3.32,3.32,3.33
72.19,-2.42,-5.70,-2.41,-5.69,5.69,5.57,5.45,3.28,3.28,3.28
72.91,-2.40,-5.63,-2.40,-5.63,5.64,5.54,5.37,3.24,3.24,3.23
73.64,-2.38,-5.57,-2.38,-5.57,5.58,5.51,5.28,3.20,3.20,3.20
74.38,-2.36,-5.51,-2.36,-5.52,5.52,5.48,5.20,3.17,3.16,3.16
75.12,-2.34,-5.47,-2.33,-5.46,5.46,5.46,5.12,3.13,3.13,3.13
75.87,-2.31,-5.41,-2.31,-5.40,5.40,5.43,5.03,3.10,3.10,3.10
76.63,-2.28,-5.34,-2.28,-5.34,5.34,5.39,4.95,3.07,3.07,3.06
77.40,-2.26,-5.29,-2.25,-5.29,5.29,5.36,4.87,3.03,3.03,3.04
78.17,-2.23,-5.22,-2.23,-5.23,5.23,5.33,4.79,3.01,3.00,3.00
78.95,-2.21,-5.19,-2.20,-5.18,5.18,5.30,4.71,2.97,2.98,2.98
79.74,-2.18,-5.12,-2.17,-5.12,5.12,5.26,4.64,2.95,2.95,2.95
80.54,-2.15,-5.07,-2.15,-5.07,5.07,5.23,4.57,2.93,2.92,2.92
81.35,-2.13,-5.01,-2.13,-5.02,5.02,5.19,4.50,2.90,2.89,2.89
82.16,-2.12,-4.99,-2.11,-4.98,4.97,5.15,4.43,2.86,2.86,2.87
82.98,-2.10,-4.93,-2.10,-4.93,4.93,5.11,4.36,2.83,2.83,2.83
83.81,-2.09,-4.89,-2.09,-4.89,4.89,5.07,4.30,2.80,2.80,2.81
84.65,-2.08,-4.84,-2.08,-4.85,4.85,5.03,4.24,2.78,2.78,2.77
85.50,-2.08,-4.81,-2.07,-4.81,4.82,4.99,4.18,2.75,2.75,2.74
86.35,-2.08,-4.78,-2.08,-4.78,4.80,4.95,4.13,2.72,2.72,2.71
87.22,-2.09,-4.76,-2.09,-4.77,4.77,4.91,4.08,2.69,2.68,2.68
88.09,-2.11,-4.75,-2.10,-4.75,4.75,4.87,4.03,2.64,2.64,2.65
88.97,-2.12,-4.73,-2.12,-4.73,4.72,4.82,3.99,2.61,2.60,2.61
89.86,-2.13,-4.71,-2.12,-4.70,4.69,4.78,3.95,2.57,2.57,2.58
90.76,-2.13,-4.67,-2.12,-4.67,4.66,4.73,3.91,2.54,2.54,2.55
91.66,-2.12,-4.62,-2.12,-4.63,4.62,4.68,3.87,2.51,2.51,2.50
92.58,-2.11,-4.58,-2.10,-4.58,4.58,4.64,3.84,2.47,2.48,2.48
93.51,-2.09,-4.53,-2.09,-4.53,4.53,4.59,3.81,2.44,2.44,2.44
94.44,-2.07,-4.47,-2.07,-4.47,4.47,4.54,3.78,2.40,2.40,2.41
95.39,-2.05,-4.41,-2.04,-4.41,4.40,4.49,3.76,2.36,2.36,2.36
96.34,-2.02,-4.34,-2.01,-4.34,4.33,4.44,3.74,2.32,2.32,2.33
97.30,-1.98,-4.27,-1.98,-4.27,4.26,4.39,3.72,2.29,2.28,2.29
98.28,-1.95,-4.19,-1.95,-4.19,4.19,4.33,3.70,2.25,2.25,2.24
99.26,-1.92,-4.12,-1.91,-4.12,4.12,4.28,3.69,2.21,2.21,2.21
100.25,-1.88,-4.04,-1.88,-4.05,4.06,4.23,3.68,2.18,2.18,2.17
101.25,-1.85,-3.99,-1.85,-3.99,3.99,4.18,3.66,2.15,2.14,2.14
102.27,-1.83,-3.94,-1.82,-3.93,3.93,4.12,3.66,2.11,2.11,2.11
103.29,-1.81,-3.88,-1.80,-3.88,3.88,4.07,3.65,2.08,2.08,2.08
104.32,-1.79,-3.83,-1.79,-3.84,3.83,4.01,3.64,2.05,2.05,2.05
105.37,-1.78,-3.80,-1.77,-3.79,3.80,3.96,3.64,2.02,2.02,2.02
106.42,-1.77,-3.76,-1.76,-3.75,3.76,3.90,3.63,2.00,2.00,1.99
107.48,-1.76,-3.71,-1.76,-3.72,3.73,3.85,3.63,1.98,1.97,1.95
108.56,-1.77,-3.69,-1.77,-3.69,3.70,3.79,3.62,1.94,1.94,1.93
109.64,-1.78,-3.67,-1.78,-3.67,3.67,3.73,3.62,1.90,1.89,1.90
110.74,-1.80,-3.66,-1.79,-3.65,3.64,3.68,3.61,1.85,1.85,1.86
111.85,-1.80,-3.62,-1.79,-3.62,3.61,3.62,3.61,1.81,1.81,1.82
112.97,-1.79,-3.58,-1.79,-3.58,3.57,3.56,3.60,1.78,1.78,1.80
114.10,-1.78,-3.54,-1.77,-3.53,3.52,3.51,3.59,1.75,1.75,1.76
115.24,-1.75,-3.46,-1.75,-3.47,3.47,3.45,3.58,1.72,1.72,1.71
116.39,-1.74,-3.41,-1.73,-3.41,3.41,3.39,3.57,1.68,1.68,1.68
117.55,-1.71,-3.35,-1.70,-3.35,3.35,3.33,3.55,1.64,1.65,1.64
118.73,-1.68,-3.28,-1.67,-3.28,3.28,3.28,3.54,1.61,1.61,1.61
119.92,-1.63,-3.21,-1.63,-3.21,3.22,3.22,3.52,1.59,1.59,1.58
121.12,-1.60,-3.15,-1.60,-3.15,3.16,3.16,3.50,1.56,1.56,1.56
122.33,-1.57,-3.09,-1.56,-3.09,3.09,3.10,3.47,1.53,1.53,1.53
123.55,-1.54,-3.04,-1.53,-3.03,3.03,3.05,3.44,1.50,1.50,1.50
124.79,-1.51,-2.98,-1.51,-2.98,2.97,2.99,3.41,1.47,1.47,1.47
126.03,-1.48,-2.91,-1.48,-2.92,2.92,2.93,3.38,1.44,1.44,1.44
127.29,-1.47,-2.87,-1.46,-2.87,2.87,2.88,3.34,1.40,1.41,1.41
128.57,-1.45,-2.81,-1.45,-2.82,2.83,2.82,3.30,1.38,1.38,1.37
129.85,-1.44,-2.77,-1.44,-2.77,2.79,2.76,3.25,1.35,1.35,1.34
131.15,-1.44,-2.73,-1.44,-2.74,2.75,2.71,3.20,1.32,1.32,1.30
132.46,-1.45,-2.72,-1.45,-2.72,2.72,2.65,3.15,1.28,1.27,1.27
133.79,-1.47,-2.70,-1.46,-2.70,2.69,2.60,3.10,1.23,1.23,1.23
135.12,-1.48,-2.68,-1.47,-2.68,2.66,2.54,3.04,1.18,1.19,1.21
136.48,-1.47,-2.65,-1.46,-2.64,2.63,2.49,2.98,1.16,1.16,1.18
137.84,-1.45,-2.59,-1.45,-2.60,2.59,2.43,2.92,1.14,1.13,1.14
139.22,-1.44,-2.55,-1.43,-2.55,2.54,2.38,2.85,1.11,1.11,1.11
140.61,-1.42,-2.50,-1.41,-2.49,2.50,2.32,2.79,1.08,1.09,1.09
142.02,-1.38,-2.43,-1.38,-2.44,2.44,2.27,2.72,1.07,1.06,1.05
143.44,-1.36,-2.39,-1.35,-2.38,2.38,2.22,2.65,1.03,1.03,1.03
144.87,-1.32,-2.33,-1.32,-2.33,2.33,2.17,2.58,1.01,1.01,1.01
146.32,-1.29,-2.27,-1.29,-2.27,2.27,2.11,2.51,0.98,0.98,0.98
147.78,-1.26,-2.22,-1.25,-2.21,2.21,2.06,2.43,0.96,0.96,0.96
149.26,-1.23,-2.16,-1.22,-2.16,2.16,2.01,2.36,0.93,0.93,0.93
150.75,-1.20,-2.10,-1.19,-2.10,2.11,1.96,2.29,0.91,0.91,0.91
152.26,-1.17,-2.05,-1.17,-2.05,2.06,1.91,2.21,0.90,0.89,0.89
153.78,-1.15,-2.01,-1.15,-2.01,2.02,1.86,2.14,0.88,0.87,0.86
155.32,-1.14,-1.97,-1.13,-1.97,1.98,1.81,2.07,0.85,0.85,0.84
156.88,-1.13,-1.94,-1.13,-1.94,1.95,1.76,1.99,0.82,0.82,0.81
158.44,-1.13,-1.91,-1.13,-1.91,1.91,1.71,1.92,0.78,0.78,0.78
160.03,-1.13,-1.88,-1.12,-1.88,1.87,1.66,1.85,0.75,0.75,0.76
161.63,-1.12,-1.84,-1.12,-1.84,1.83,1.62,1.78,0.72,0.72,0.73
163.24,-1.11,-1.80,-1.10,-1.80,1.79,1.57,1.70,0.68,0.69,0.70
164.88,-1.08,-1.74,-1.08,-1.75,1.74,1.52,1.63,0.66,0.66,0.67
166.53,-1.06,-1.68,-1.05,-1.69,1.68,1.48,1.56,0.63,0.63,0.63
168.19,-1.03,-1.63,-1.02,-1.62,1.62,1.43,1.49,0.60,0.60,0.61
169.87,-0.99,-1.56,-0.99,-1.56,1.56,1.38,1.43,0.57,0.57,0.57
171.57,-0.96,-1.49,-0.95,-1.49,1.50,1.34,1.36,0.54,0.54,0.53
173.29,-0.93,-1.43,-0.92,-1.43,1.43,1.30,1.29,0.51,0.51,0.51
175.02,-0.89,-1.36,-0.89,-1.36,1.37,1.25,1.22,0.49,0.48,0.47
176.77,-0.87,-1.30,-0.86,-1.30,1.31,1.21,1.16,0.45,0.45,0.44
178.54,-0.85,-1.25,-0.85,-1.25,1.26,1.16,1.09,0.41,0.41,0.41
180.32,-0.84,-1.20,-0.83,-1.20,1.20,1.12,1.03,0.37,0.37,0.36
182.13,-0.83,-1.16,-0.82,-1.15,1.15,1.08,0.97,0.32,0.33,0.34
183.95,-0.80,-1.10,-0.80,-1.10,1.10,1.04,0.91,0.30,0.30,0.31
185.79,-0.78,-1.04,-0.78,-1.05,1.05,0.99,0.84,0.27,0.27,0.27
187.65,-0.76,-0.99,-0.76,-0.99,0.99,0.95,0.78,0.24,0.24,0.24
189.52,-0.74,-0.94,-0.74,-0.95,0.94,0.91,0.72,0.20,0.20,0.21
191.42,-0.73,-0.90,-0.72,-0.89,0.88,0.87,0.67,0.16,0.17,0.18
193.33,-0.69,-0.83,-0.69,-0.83,0.83,0.83,0.61,0.14,0.14,0.15
195.27,-0.66,-0.77,-0.66,-0.77,0.77,0.79,0.55,0.12,0.11,0.11
197.22,-0.63,-0.70,-0.63,-0.71,0.72,0.75,0.49,0.09,0.09,0.07
199.19,-0.61,-0.66,-0.60,-0.65,0.66,0.71,0.44,0.06,0.06,0.06
201.18,-0.58,-0.60,-0.58,-0.61,0.61,0.67,0.38,0.03,0.03,0.02
203.19,-0.56,-0.56,-0.55,-0.56,0.55,0.63,0.33,-0.00,0.00,0.00
205.23,-0.53,-0.51,-0.52,-0.51,0.50,0.59,0.27,-0.03,-0.02,-0.01
207.28,-0.49,-0.45,-0.49,-0.45,0.45,0.55,0.22,-0.04,-0.04,-0.04
209.35,-0.46,-0.40,-0.46,-0.40,0.40,0.51,0.17,-0.06,-0.06,-0.06
211.44,-0.43,-0.34,-0.42,-0.34,0.35,0.47,0.12,-0.08,-0.08,-0.08
213.56,-0.40,-0.30,-0.39,-0.29,0.30,0.43,0.07,-0.10,-0.10,-0.10
215.69,-0.37,-0.25,-0.36,-0.25,0.25,0.40,0.02,-0.12,-0.12,-0.12
217.85,-0.34,-0.19,-0.34,-0.20,0.20,0.36,-0.02,-0.14,-0.14,-0.14
220.03,-0.32,-0.15,-0.32,-0.15,0.15,0.32,-0.07,-0.16,-0.16,-0.16
222.23,-0.30,-0.11,-0.29,-0.11,0.11,0.28,-0.11,-0.19,-0.18,-0.18
224.45,-0.27,-0.07,-0.26,-0.07,0.07,0.24,-0.16,-0.20,-0.20,-0.20
226.70,-0.24,-0.02,-0.24,-0.03,0.02,0.21,-0.20,-0.21,-0.22,-0.22
228.96,-0.21,0.01,-0.21,0.01,-0.02,0.17,-0.24,-0.23,-0.23,-0.22
231.25,-0.19,0.05,-0.18,0.06,-0.06,0.13,-0.28,-0.25,-0.24,-0.24
233.57,-0.15,0.10,-0.15,0.10,-0.10,0.09,-0.32,-0.25,-0.25,-0.25
235.90,-0.11,0.15,-0.11,0.15,-0.14,0.06,-0.35,-0.24,-0.25,-0.26
238.26,-0.09,0.19,-0.08,0.18,-0.17,0.02,-0.39,-0.26,-0.26,-0.27
240.64,-0.06,0.21,-0.06,0.21,-0.21,-0.02,-0.42,-0.26,-0.27,-0.26
243.05,-0.05,0.23,-0.04,0.24,-0.24,-0.05,-0.45,-0.28,-0.28,-0.27
245.48,-0.02,0.26,-0.02,0.26,-0.27,-0.09,-0.48,-0.28,-0.28,-0.28
247.93,0.01,0.30,0.01,0.29,-0.29,-0.13,-0.50,-0.28,-0.28,-0.29
250.41,0.03,0.31,0.04,0.32,-0.32,-0.17,-0.53,-0.29,-0.28,-0.27
252.92,0.07,0.35,0.07,0.35,-0.35,-0.20,-0.55,-0.27,-0.28,-0.27
255.45,0.09,0.37,0.10,0.37,-0.38,-0.24,-0.57,-0.28,-0.28,-0.28
258.00,0.13,0.41,0.13,0.41,-0.41,-0.28,-0.59,-0.28,-0.28,-0.28
260.58,0.16,0.44,0.17,0.44,-0.44,-0.31,-0.61,-0.28,-0.27,-0.27
263.19,0.20,0.47,0.21,0.48,-0.47,-0.35,-0.63,-0.27,-0.27,-0.27
265.82,0.24,0.52,0.24,0.51,-0.50,-0.39,-0.64,-0.26,-0.27,-0.27
268.48,0.26,0.53,0.27,0.54,-0.53,-0.42,-0.66,-0.27,-0.26,-0.27
271.16,0.29,0.56,0.30,0.56,-0.56,-0.46,-0.67,-0.27,-0.26,-0.27
273.87,0.32,0.59,0.32,0.59,-0.59,-0.50,-0.68,-0.26,-0.27,-0.27
276.61,0.34,0.61,0.34,0.62,-0.61,-0.53,-0.69,-0.27,-0.27,-0.27
279.38,0.36,0.64,0.36,0.64,-0.64,-0.57,-0.70,-0.28,-0.28,-0.28
282.17,0.38,0.66,0.39,0.66,-0.67,-0.60,-0.71,-0.28,-0.28,-0.27
284.99,0.42,0.68,0.42,0.69,-0.70,-0.64,-0.72,-0.27,-0.27,-0.26
287.84,0.46,0.72,0.46,0.72,-0.73,-0.68,-0.72,-0.26,-0.26,-0.25
290.72,0.50,0.76,0.51,0.76,-0.75,-0.71,-0.73,-0.25,-0.25,-0.26
293.63,0.54,0.79,0.54,0.79,-0.78,-0.75,-0.74,-0.24,-0.24,-0.24
296.57,0.57,0.81,0.58,0.81,-0.81,-0.78,-0.74,-0.23,-0.23,-0.24
299.53,0.60,0.83,0.61,0.83,-0.83,-0.81,-0.75,-0.22,-0.22,-0.23
302.53,0.63,0.85,0.63,0.85,-0.85,-0.85,-0.76,-0.21,-0.22,-0.21
305.55,0.65,0.87,0.66,0.87,-0.87,-0.88,-0.76,-0.21,-0.21,-0.22
308.61,0.68,0.88,0.68,0.88,-0.88,-0.92,-0.77,-0.20,-0.20,-0.20
311.69,0.70,0.90,0.70,0.89,-0.90,-0.95,-0.77,-0.19,-0.20,-0.19
314.81,0.71,0.90,0.72,0.91,-0.91,-0.98,-0.78,-0.20,-0.19,-0.19
317.96,0.74,0.92,0.75,0.93,-0.93,-1.01,-0.79,-0.19,-0.19,-0.18
321.14,0.78,0.95,0.78,0.95,-0.95,-1.04,-0.80,-0.17,-0.17,-0.16
324.35,0.81,0.98,0.82,0.97,-0.97,-1.07,-0.81,-0.16,-0.15,-0.16
327.59,0.85,0.99,0.85,1.00,-0.99,-1.10,-0.81,-0.14,-0.14,-0.14
330.87,0.88,1.02,0.88,1.02,-1.01,-1.13,-0.82,-0.13,-0.13,-0.14
334.18,0.90,1.04,0.91,1.04,-1.04,-1.16,-0.83,-0.13,-0.12,-0.13
337.52,0.94,1.07,0.93,1.06,-1.06,-1.19,-0.84,-0.11,-0.12,-0.12
340.90,0.95,1.06,0.96,1.07,-1.08,-1.21,-0.86,-0.12,-0.12,-0.11
344.30,0.98,1.08,0.99,1.09,-1.10,-1.24,-0.87,-0.11,-0.11,-0.10
347.75,1.02,1.12,1.02,1.11,-1.12,-1.26,-0.88,-0.09,-0.10,-0.09
351.23,1.05,1.15,1.06,1.14,-1.13,-1.28,-0.90,-0.08,-0.08,-0.09
354.74,1.08,1.15,1.08,1.16,-1.15,-1.31,-0.91,-0.06,-0.07,-0.06
358.28,1.10,1.17,1.10,1.17,-1.16,-1.33,-0.93,-0.05,-0.06,-0.07
361.87,1.11,1.17,1.12,1.18,-1.17,-1.34,-0.94,-0.06,-0.05,-0.06
365.49,1.13,1.18,1.13,1.18,-1.18,-1.36,-0.96,-0.04,-0.05,-0.05
369.14,1.14,1.18,1.14,1.18,-1.18,-1.38,-0.98,-0.04,-0.04,-0.03
372.83,1.15,1.18,1.16,1.19,-1.19,-1.39,-1.00,-0.03,-0.03,-0.02
376.56,1.17,1.20,1.17,1.19,-1.19,-1.41,-1.02,-0.02,-0.02,-0.02
380.33,1.18,1.20,1.19,1.20,-1.20,-1.42,-1.04,-0.02,-0.02,-0.02
384.13,1.20,1.20,1.21,1.21,-1.21,-1.43,-1.06,-0.01,-0.01,0.00
387.97,1.23,1.22,1.23,1.22,-1.23,-1.44,-1.08,0.01,0.00,0.01
391.85,1.26,1.24,1.26,1.25,-1.25,-1.45,-1.10,0.02,0.02,0.02
395.77,1.29,1.27,1.30,1.27,-1.27,-1.45,-1.12,0.03,0.03,0.03
399.73,1.33,1.30,1.33,1.29,-1.29,-1.46,-1.15,0.05,0.04,0.04
403.72,1.36,1.30,1.37,1.31,-1.31,-1.46,-1.17,0.06,0.06,0.07
407.76,1.39,1.33,1.40,1.33,-1.33,-1.46,-1.19,0.06,0.07,0.07
411.84,1.42,1.35,1.42,1.34,-1.35,-1.46,-1.21,0.08,0.08,0.07
415.96,1.44,1.35,1.45,1.36,-1.36,-1.46,-1.24,0.09,0.09,0.09
420.12,1.47,1.38,1.47,1.38,-1.37,-1.45,-1.26,0.11,0.11,0.09
424.32,1.48,1.38,1.49,1.38,-1.37,-1.45,-1.28,0.12,0.12,0.10
428.56,1.49,1.37,1.49,1.38,-1.37,-1.44,-1.31,0.13,0.13,0.12
432.85,1.48,1.36,1.48,1.36,-1.36,-1.43,-1.33,0.13,0.13,0.13
437.18,1.47,1.35,1.48,1.34,-1.35,-1.42,-1.35,0.12,0.13,0.13
441.55,1.46,1.33,1.47,1.33,-1.34,-1.41,-1.37,0.13,0.13,0.14
445.96,1.46,1.32,1.46,1.32,-1.32,-1.40,-1.39,0.14,0.14,0.15
450.42,1.46,1.31,1.46,1.31,-1.31,-1.39,-1.40,0.16,0.15,0.16
454.93,1.46,1.30,1.46,1.30,-1.30,-1.37,-1.42,0.17,0.17,0.17
459.48,1.46,1.29,1.46,1.29,-1.28,-1.35,-1.43,0.18,0.18,0.18
464.07,1.46,1.27,1.46,1.27,-1.27,-1.34,-1.44,0.19,0.19,0.19
468.71,1.46,1.26,1.46,1.26,-1.26,-1.32,-1.45,0.20,0.20,0.20
473.40,1.46,1.25,1.46,1.25,-1.25,-1.30,-1.46,0.21,0.21,0.21
478.13,1.46,1.24,1.46,1.24,-1.24,-1.28,-1.47,0.22,0.22,0.22
482.91,1.46,1.23,1.46,1.23,-1.23,-1.26,-1.47,0.23,0.23,0.23
487.74,1.46,1.22,1.46,1.22,-1.22,-1.24,-1.47,0.24,0.24,0.24
492.62,1.46,1.21,1.46,1.21,-1.21,-1.21,-1.47,0.25,0.25,0.25
497.55,1.46,1.20,1.46,1.20,-1.20,-1.19,-1.46,0.26,0.26,0.26
502.52,1.46,1.19,1.46,1.19,-1.19,-1.16,-1.45,0.28,0.28,0.27
