frequency,raw,smoothed,error,error_smoothed,equalization,parametric_eq,fixed_band_eq,equalized_raw,equalized_smoothed,target
20.00,8.19,8.19,-1.08,-1.07,1.09,0.83,-0.20,9.28,9.28,9.27
20.20,8.21,8.20,-1.06,-1.06,1.07,0.79,-0.21,9.28,9.27,9.27
20.40,8.22,8.22,-1.05,-1.05,1.04,0.76,-0.21,9.26,9.26,9.27
20.61,8.24,8.24,-1.03,-1.02,1.01,0.73,-0.21,9.25,9.25,9.27
20.81,8.27,8.27,-0.99,-0.99,0.98,0.70,-0.22,9.25,9.25,9.27
21.02,8.31,8.31,-0.95,-0.95,0.94,0.67,-0.22,9.26,9.25,9.26
21.23,8.35,8.35,-0.91,-0.91,0.91,0.64,-0.23,9.26,9.26,9.26
21.44,8.40,8.40,-0.86,-0.87,0.87,0.61,-0.23,9.27,9.27,9.26
21.66,8.44,8.44,-0.82,-0.82,0.82,0.57,-0.24,9.26,9.27,9.26
21.87,8.49,8.49,-0.77,-0.77,0.78,0.54,-0.24,9.27,9.27,9.26
22.09,8.53,8.53,-0.73,-0.73,0.73,0.51,-0.25,9.26,9.26,9.26
22.31,8.58,8.58,-0.68,-0.68,0.68,0.48,-0.26,9.26,9.26,9.26
22.54,8.62,8.62,-0.64,-0.63,0.63,0.45,-0.26,9.25,9.26,9.26
22.76,8.67,8.67,-0.59,-0.59,0.59,0.41,-0.27,9.26,9.26,9.26
22.99,8.72,8.72,-0.54,-0.54,0.54,0.38,-0.27,9.26,9.26,9.26
23.22,8.76,8.76,-0.50,-0.49,0.49,0.35,-0.28,9.25,9.26,9.26
23.45,8.81,8.81,-0.44,-0.45,0.45,0.32,-0.29,9.26,9.26,9.25
23.69,8.85,8.85,-0.40,-0.40,0.40,0.28,-0.29,9.25,9.25,9.25
23.92,8.89,8.90,-0.36,-0.36,0.36,0.25,-0.30,9.25,9.25,9.25
24.16,8.94,8.94,-0.31,-0.31,0.31,0.22,-0.31,9.25,9.25,9.25
24.40,8.98,8.98,-0.27,-0.27,0.27,0.19,-0.31,9.25,9.25,9.25
24.65,9.02,9.03,-0.23,-0.22,0.22,0.15,-0.32,9.24,9.25,9.25
24.89,9.07,9.07,-0.18,-0.18,0.18,0.12,-0.33,9.25,9.25,9.25
25.14,9.11,9.11,-0.14,-0.14,0.14,0.09,-0.34,9.25,9.25,9.25
25.39,9.15,9.15,-0.09,-0.09,0.09,0.06,-0.34,9.24,9.24,9.24
25.65,9.19,9.19,-0.05,-0.05,0.05,0.02,-0.35,9.24,9.24,9.24
25.91,9.24,9.24,-0.00,-0.00,0.00,-0.01,-0.36,9.24,9.24,9.24
26.16,9.28,9.28,0.04,0.04,-0.04,-0.04,-0.37,9.24,9.24,9.24
26.43,9.32,9.32,0.08,0.08,-0.08,-0.08,-0.38,9.24,9.24,9.24
26.69,9.36,9.36,0.12,0.12,-0.12,-0.11,-0.39,9.24,9.24,9.24
26.96,9.40,9.40,0.16,0.16,-0.17,-0.14,-0.40,9.23,9.23,9.24
27.23,9.44,9.44,0.21,0.21,-0.21,-0.18,-0.41,9.23,9.23,9.23
27.50,9.48,9.48,0.25,0.25,-0.25,-0.21,-0.42,9.23,9.23,9.23
27.77,9.52,9.52,0.29,0.29,-0.29,-0.24,-0.43,9.24,9.23,9.23
28.05,9.55,9.55,0.32,0.33,-0.32,-0.27,-0.44,9.23,9.23,9.23
28.33,9.59,9.59,0.37,0.36,-0.36,-0.31,-0.45,9.23,9.23,9.23
28.62,9.62,9.62,0.40,0.40,-0.40,-0.34,-0.46,9.22,9.22,9.22
28.90,9.66,9.66,0.44,0.44,-0.44,-0.37,-0.47,9.22,9.22,9.22
29.19,9.69,9.69,0.47,0.47,-0.48,-0.41,-0.48,9.21,9.22,9.22
29.48,9.73,9.73,0.51,0.52,-0.52,-0.44,-0.49,9.21,9.22,9.22
29.78,9.77,9.77,0.56,0.56,-0.56,-0.47,-0.51,9.21,9.21,9.21
30.08,9.81,9.81,0.60,0.60,-0.60,-0.51,-0.52,9.21,9.21,9.21
30.38,9.84,9.84,0.63,0.64,-0.63,-0.54,-0.53,9.21,9.21,9.21
30.68,9.88,9.88,0.68,0.68,-0.67,-0.57,-0.54,9.21,9.21,9.21
30.99,9.92,9.92,0.72,0.71,-0.71,-0.60,-0.56,9.21,9.20,9.20
31.30,9.95,9.95,0.75,0.75,-0.75,-0.64,-0.57,9.20,9.20,9.20
31.61,9.98,9.98,0.78,0.79,-0.79,-0.67,-0.59,9.19,9.20,9.20
31.93,10.01,10.01,0.82,0.82,-0.82,-0.70,-0.60,9.19,9.19,9.19
32.24,10.05,10.05,0.86,0.86,-0.86,-0.74,-0.62,9.19,9.19,9.19
32.57,10.08,10.08,0.89,0.89,-0.89,-0.77,-0.63,9.19,9.19,9.19
32.89,10.11,10.11,0.93,0.93,-0.93,-0.80,-0.65,9.18,9.18,9.18
33.22,10.14,10.14,0.96,0.96,-0.96,-0.83,-0.67,9.18,9.18,9.18
33.55,10.17,10.17,1.00,1.00,-1.00,-0.87,-0.68,9.17,9.17,9.18
33.89,10.21,10.21,1.04,1.04,-1.04,-0.90,-0.70,9.17,9.17,9.17
34.23,10.24,10.24,1.07,1.07,-1.07,-0.93,-0.72,9.17,9.17,9.17
34.57,10.27,10.27,1.11,1.11,-1.11,-0.96,-0.74,9.16,9.16,9.16
34.92,10.30,10.30,1.14,1.14,-1.14,-1.00,-0.76,9.16,9.16,9.16
35.27,10.33,10.33,1.18,1.18,-1.18,-1.03,-0.78,9.15,9.15,9.15
35.62,10.36,10.36,1.21,1.21,-1.21,-1.06,-0.80,9.15,9.15,9.15
35.97,10.39,10.39,1.25,1.24,-1.24,-1.09,-0.82,9.15,9.14,9.14
36.33,10.41,10.41,1.27,1.27,-1.27,-1.12,-0.84,9.14,9.14,9.14
36.70,10.43,10.44,1.30,1.30,-1.30,-1.16,-0.86,9.13,9.13,9.13
37.06,10.46,10.46,1.33,1.33,-1.33,-1.19,-0.89,9.13,9.13,9.13
37.43,10.48,10.48,1.36,1.36,-1.36,-1.22,-0.91,9.12,9.12,9.12
37.81,10.50,10.50,1.39,1.38,-1.38,-1.25,-0.94,9.12,9.12,9.11
38.19,10.51,10.52,1.40,1.41,-1.40,-1.28,-0.96,9.11,9.11,9.11
38.57,10.53,10.53,1.43,1.43,-1.42,-1.32,-0.99,9.11,9.11,9.10
38.95,10.54,10.54,1.45,1.44,-1.44,-1.35,-1.01,9.10,9.09,9.10
39.34,10.54,10.55,1.45,1.46,-1.46,-1.38,-1.04,9.08,9.08,9.09
39.74,10.56,10.56,1.48,1.48,-1.49,-1.41,-1.07,9.07,9.07,9.08
40.14,10.58,10.58,1.51,1.51,-1.51,-1.44,-1.10,9.07,9.06,9.07
40.54,10.60,10.60,1.54,1.54,-1.54,-1.48,-1.13,9.06,9.06,9.07
40.94,10.63,10.63,1.57,1.57,-1.58,-1.51,-1.16,9.06,9.05,9.06
41.35,10.66,10.66,1.61,1.61,-1.61,-1.54,-1.20,9.05,9.05,9.05
41.76,10.69,10.69,1.65,1.65,-1.64,-1.57,-1.23,9.05,9.05,9.04
42.18,10.72,10.72,1.69,1.69,-1.68,-1.60,-1.26,9.04,9.04,9.03
42.60,10.74,10.74,1.72,1.72,-1.72,-1.63,-1.30,9.02,9.02,9.02
43.03,10.76,10.76,1.75,1.75,-1.75,-1.66,-1.34,9.01,9.01,9.01
43.46,10.78,10.78,1.78,1.78,-1.79,-1.70,-1.37,9.00,9.00,9.00
43.90,10.81,10.81,1.82,1.82,-1.82,-1.73,-1.41,8.99,8.99,8.99
44.33,10.83,10.83,1.85,1.85,-1.85,-1.76,-1.45,8.98,8.98,8.98
44.78,10.85,10.85,1.88,1.88,-1.88,-1.79,-1.49,8.97,8.97,8.97
45.23,10.87,10.87,1.91,1.91,-1.91,-1.82,-1.53,8.96,8.96,8.96
45.68,10.89,10.89,1.95,1.94,-1.94,-1.85,-1.58,8.95,8.95,8.95
46.13,10.91,10.91,1.98,1.97,-1.97,-1.88,-1.62,8.94,8.93,8.93
46.60,10.92,10.93,2.00,2.00,-2.01,-1.91,-1.66,8.92,8.92,8.92
47.06,10.94,10.94,2.03,2.03,-2.04,-1.95,-1.71,8.90,8.90,8.91
47.53,10.96,10.96,2.07,2.06,-2.07,-1.98,-1.76,8.89,8.89,8.89
48.01,10.97,10.97,2.09,2.10,-2.10,-2.01,-1.80,8.87,8.88,8.88
48.49,10.99,10.99,2.13,2.13,-2.13,-2.04,-1.85,8.86,8.86,8.86
48.97,11.01,11.01,2.16,2.16,-2.16,-2.07,-1.90,8.85,8.85,8.85
49.46,11.02,11.02,2.19,2.19,-2.19,-2.10,-1.95,8.84,8.84,8.83
49.96,11.03,11.03,2.21,2.22,-2.21,-2.13,-2.00,8.82,8.82,8.82
50.46,11.04,11.04,2.24,2.24,-2.24,-2.17,-2.05,8.80,8.80,8.80
50.96,11.05,11.05,2.27,2.27,-2.27,-2.20,-2.10,8.79,8.78,8.78
51.47,11.05,11.05,2.29,2.29,-2.29,-2.23,-2.16,8.76,8.76,8.76
51.99,11.06,11.06,2.32,2.31,-2.31,-2.26,-2.21,8.75,8.74,8.75
52.51,11.06,11.06,2.33,2.34,-2.34,-2.29,-2.26,8.72,8.72,8.73
53.03,11.07,11.07,2.36,2.36,-2.36,-2.32,-2.31,8.71,8.70,8.71
53.56,11.07,11.07,2.39,2.39,-2.39,-2.36,-2.37,8.68,8.68,8.69
54.10,11.08,11.08,2.42,2.41,-2.41,-2.39,-2.42,8.67,8.66,8.66
54.64,11.08,11.08,2.44,2.44,-2.44,-2.42,-2.47,8.64,8.64,8.64
55.18,11.09,11.09,2.47,2.47,-2.47,-2.45,-2.52,8.62,8.62,8.62
55.74,11.09,11.09,2.49,2.49,-2.49,-2.48,-2.57,8.60,8.60,8.60
56.29,11.09,11.09,2.52,2.52,-2.52,-2.52,-2.62,8.57,8.57,8.57
56.86,11.09,11.09,2.54,2.54,-2.54,-2.55,-2.67,8.55,8.55,8.55
57.42,11.09,11.09,2.57,2.57,-2.57,-2.58,-2.71,8.52,8.52,8.52
58.00,11.09,11.09,2.60,2.60,-2.60,-2.61,-2.76,8.49,8.49,8.50
58.58,11.09,11.09,2.62,2.62,-2.62,-2.65,-2.80,8.47,8.47,8.47
59.16,11.09,11.09,2.65,2.65,-2.65,-2.68,-2.84,8.44,8.44,8.44
59.76,11.09,11.09,2.68,2.68,-2.68,-2.71,-2.88,8.41,8.41,8.41
60.35,11.08,11.08,2.70,2.70,-2.70,-2.74,-2.92,8.38,8.38,8.38
60.96,11.08,11.08,2.73,2.73,-2.73,-2.78,-2.95,8.35,8.35,8.35
61.57,11.08,11.08,2.76,2.76,-2.76,-2.81,-2.98,8.32,8.32,8.32
62.18,11.07,11.07,2.78,2.79,-2.79,-2.84,-3.01,8.28,8.29,8.29
62.80,11.07,11.07,2.82,2.82,-2.82,-2.88,-3.04,8.25,8.25,8.25
63.43,11.07,11.07,2.85,2.85,-2.85,-2.91,-3.07,8.22,8.22,8.22
64.07,11.06,11.06,2.88,2.88,-2.88,-2.95,-3.09,8.18,8.18,8.18
64.71,11.06,11.06,2.91,2.91,-2.91,-2.98,-3.11,8.15,8.15,8.15
65.35,11.05,11.05,2.94,2.94,-2.94,-3.01,-3.13,8.11,8.11,8.11
66.01,11.05,11.05,2.98,2.98,-2.97,-3.05,-3.15,8.08,8.07,8.07
66.67,11.04,11.04,3.01,3.01,-3.00,-3.08,-3.16,8.04,8.04,8.03
67.33,11.03,11.03,3.04,3.04,-3.04,-3.12,-3.17,7.99,7.99,7.99
68.01,11.02,11.02,3.07,3.07,-3.07,-3.15,-3.19,7.95,7.95,7.95
68.69,11.01,11.01,3.10,3.10,-3.10,-3.19,-3.20,7.91,7.91,7.91
69.37,11.00,11.00,3.13,3.13,-3.13,-3.22,-3.21,7.87,7.87,7.87
70.07,10.99,10.99,3.17,3.17,-3.17,-3.26,-3.22,7.82,7.82,7.82
70.77,10.98,10.98,3.20,3.20,-3.20,-3.30,-3.23,7.78,7.78,7.78
71.48,10.97,10.97,3.24,3.24,-3.24,-3.33,-3.24,7.73,7.73,7.73
72.19,10.96,10.96,3.28,3.27,-3.27,-3.37,-3.25,7.69,7.69,7.69
72.91,10.94,10.94,3.30,3.31,-3.31,-3.41,-3.26,7.63,7.64,7.64
73.64,10.93,10.93,3.34,3.34,-3.34,-3.44,-3.27,7.59,7.59,7.59
74.38,10.92,10.92,3.38,3.38,-3.38,-3.48,-3.28,7.54,7.54,7.54
75.12,10.90,10.90,3.41,3.42,-3.42,-3.52,-3.29,7.48,7.49,7.49
75.87,10.89,10.89,3.46,3.45,-3.45,-3.55,-3.30,7.44,7.43,7.43
76.63,10.87,10.87,3.49,3.49,-3.49,-3.59,-3.32,7.38,7.38,7.38
77.40,10.86,10.86,3.53,3.53,-3.53,-3.63,-3.33,7.33,7.33,7.33
78.17,10.84,10.84,3.57,3.57,-3.57,-3.67,-3.35,7.27,7.27,7.27
78.95,10.82,10.82,3.61,3.61,-3.61,-3.71,-3.37,7.21,7.21,7.21
79.74,10.81,10.81,3.65,3.65,-3.65,-3.74,-3.39,7.16,7.16,7.16
80.54,10.79,10.79,3.69,3.69,-3.69,-3.78,-3.42,7.10,7.10,7.10
81.35,10.77,10.77,3.73,3.73,-3.73,-3.82,-3.44,7.04,7.04,7.04
82.16,10.75,10.75,3.77,3.77,-3.77,-3.86,-3.47,6.98,6.98,6.98
82.98,10.73,10.73,3.81,3.81,-3.81,-3.90,-3.50,6.92,6.92,6.92
83.81,10.71,10.71,3.85,3.85,-3.85,-3.94,-3.54,6.86,6.86,6.86
84.65,10.69,10.69,3.90,3.90,-3.90,-3.98,-3.57,6.80,6.79,6.79
85.50,10.67,10.67,3.94,3.94,-3.94,-4.02,-3.61,6.74,6.73,6.73
86.35,10.64,10.64,3.97,3.98,-3.98,-4.05,-3.65,6.67,6.67,6.67
87.22,10.62,10.62,4.02,4.02,-4.01,-4.09,-3.70,6.61,6.60,6.60
88.09,10.59,10.59,4.06,4.05,-4.06,-4.13,-3.74,6.54,6.53,6.53
88.97,10.56,10.56,4.09,4.09,-4.10,-4.17,-3.80,6.47,6.47,6.47
89.86,10.53,10.53,4.13,4.13,-4.14,-4.21,-3.85,6.39,6.40,6.40
90.76,10.51,10.51,4.18,4.17,-4.18,-4.25,-3.91,6.33,6.33,6.33
91.66,10.48,10.48,4.22,4.22,-4.22,-4.29,-3.96,6.26,6.26,6.26
92.58,10.46,10.46,4.27,4.27,-4.27,-4.33,-4.03,6.20,6.20,6.19
93.51,10.44,10.44,4.32,4.31,-4.31,-4.37,-4.09,6.13,6.13,6.13
94.44,10.41,10.41,4.36,4.36,-4.35,-4.40,-4.16,6.06,6.06,6.05
95.39,10.38,10.38,4.40,4.40,-4.40,-4.44,-4.23,5.98,5.99,5.98
96.34,10.35,10.35,4.44,4.44,-4.44,-4.48,-4.30,5.91,5.91,5.91
97.30,10.32,10.32,4.48,4.48,-4.48,-4.52,-4.37,5.84,5.84,5.84
98.28,10.29,10.29,4.52,4.52,-4.52,-4.56,-4.45,5.77,5.77,5.77
99.26,10.26,10.26,4.56,4.56,-4.56,-4.59,-4.53,5.70,5.70,5.70
100.25,10.22,10.22,4.60,4.60,-4.60,-4.63,-4.61,5.62,5.62,5.62
101.25,10.19,10.19,4.64,4.64,-4.64,-4.67,-4.69,5.55,5.55,5.55
102.27,10.15,10.15,4.67,4.67,-4.68,-4.70,-4.78,5.47,5.48,5.48
103.29,10.12,10.12,4.71,4.71,-4.72,-4.74,-4.86,5.41,5.41,5.41
104.32,10.09,10.09,4.76,4.75,-4.75,-4.78,-4.95,5.34,5.33,5.33
105.37,10.05,10.05,4.79,4.79,-4.79,-4.81,-5.03,5.26,5.26,5.26
106.42,10.02,10.02,4.83,4.83,-4.83,-4.84,-5.11,5.19,5.19,5.19
107.48,9.98,9.98,4.87,4.87,-4.87,-4.88,-5.20,5.11,5.11,5.11
108.56,9.95,9.95,4.91,4.91,-4.91,-4.91,-5.28,5.04,5.04,5.04
109.64,9.91,9.91,4.94,4.95,-4.95,-4.94,-5.36,4.96,4.97,4.97
110.74,9.88,9.88,4.98,4.98,-4.98,-4.98,-5.44,4.90,4.90,4.90
111.85,9.85,9.85,5.03,5.02,-5.02,-5.01,-5.52,4.83,4.82,4.82
112.97,9.81,9.81,5.06,5.06,-5.06,-5.04,-5.59,4.75,4.75,4.75
114.10,9.78,9.78,5.10,5.10,-5.10,-5.07,-5.66,4.68,4.68,4.68
115.24,9.75,9.75,5.14,5.14,-5.14,-5.10,-5.72,4.61,4.61,4.61
116.39,9.72,9.72,5.18,5.18,-5.18,-5.13,-5.79,4.54,4.54,4.54
117.55,9.69,9.69,5.22,5.22,-5.22,-5.15,-5.84,4.47,4.47,4.47
118.73,9.65,9.66,5.25,5.26,-5.25,-5.18,-5.89,4.40,4.40,4.40
119.92,9.62,9.62,5.29,5.29,-5.28,-5.21,-5.93,4.34,4.33,4.33
121.12,9.57,9.57,5.31,5.31,-5.31,-5.23,-5.97,4.26,4.26,4.26
122.33,9.52,9.52,5.33,5.33,-5.33,-5.26,-5.99,4.19,4.19,4.19
123.55,9.47,9.47,5.35,5.35,-5.35,-5.28,-6.01,4.12,4.12,4.12
124.79,9.42,9.42,5.36,5.36,-5.37,-5.30,-6.02,4.05,4.05,4.06
126.03,9.37,9.37,5.38,5.38,-5.38,-5.32,-6.03,3.99,3.99,3.99
127.29,9.32,9.32,5.40,5.40,-5.40,-5.34,-6.03,3.92,3.92,3.93
128.57,9.27,9.27,5.41,5.41,-5.41,-5.36,-6.02,3.86,3.86,3.86
129.85,9.22,9.22,5.42,5.42,-5.42,-5.38,-6.00,3.80,3.80,3.80
131.15,9.17,9.17,5.44,5.44,-5.44,-5.40,-5.98,3.73,3.73,3.73
132.46,9.12,9.12,5.45,5.45,-5.45,-5.41,-5.95,3.67,3.67,3.67
133.79,9.07,9.07,5.46,5.46,-5.46,-5.43,-5.92,3.61,3.61,3.61
135.12,9.02,9.02,5.47,5.47,-5.47,-5.44,-5.88,3.55,3.55,3.55
136.48,8.97,8.97,5.48,5.48,-5.48,-5.46,-5.83,3.49,3.49,3.49
137.84,8.93,8.93,5.50,5.49,-5.50,-5.47,-5.78,3.43,3.43,3.43
139.22,8.88,8.88,5.51,5.51,-5.51,-5.48,-5.73,3.37,3.37,3.37
140.61,8.83,8.84,5.51,5.52,-5.52,-5.49,-5.67,3.31,3.32,3.32
142.02,8.79,8.79,5.53,5.53,-5.52,-5.50,-5.61,3.27,3.26,3.26
143.44,8.74,8.74,5.53,5.53,-5.53,-5.50,-5.55,3.21,3.21,3.21
144.87,8.69,8.69,5.54,5.54,-5.54,-5.51,-5.48,3.15,3.16,3.15
146.32,8.64,8.64,5.54,5.54,-5.54,-5.51,-5.42,3.10,3.10,3.10
147.78,8.59,8.59,5.54,5.54,-5.54,-5.52,-5.35,3.05,3.05,3.05
149.26,8.54,8.54,5.54,5.54,-5.54,-5.52,-5.29,3.00,3.00,3.00
150.75,8.49,8.49,5.54,5.54,-5.54,-5.52,-5.22,2.95,2.95,2.95
152.26,8.44,8.44,5.54,5.54,-5.54,-5.52,-5.16,2.90,2.90,2.90
153.78,8.39,8.39,5.54,5.54,-5.54,-5.52,-5.10,2.85,2.85,2.85
155.32,8.34,8.34,5.53,5.53,-5.53,-5.51,-5.03,2.81,2.81,2.81
156.88,8.29,8.29,5.53,5.53,-5.53,-5.51,-4.97,2.76,2.76,2.76
158.44,8.24,8.24,5.52,5.52,-5.53,-5.51,-4.92,2.71,2.71,2.72
160.03,8.19,8.19,5.52,5.52,-5.52,-5.50,-4.86,2.67,2.67,2.67
161.63,8.14,8.14,5.52,5.52,-5.52,-5.49,-4.81,2.62,2.62,2.62
163.24,8.10,8.10,5.52,5.52,-5.52,-5.48,-4.76,2.58,2.58,2.58
164.88,8.05,8.05,5.51,5.52,-5.51,-5.47,-4.71,2.54,2.54,2.54
166.53,8.01,8.01,5.51,5.51,-5.51,-5.46,-4.67,2.50,2.50,2.50
168.19,7.97,7.97,5.51,5.50,-5.50,-5.45,-4.63,2.47,2.47,2.46
169.87,7.92,7.92,5.50,5.50,-5.49,-5.44,-4.59,2.43,2.43,2.42
171.57,7.87,7.87,5.48,5.48,-5.48,-5.42,-4.56,2.39,2.39,2.39
173.29,7.82,7.82,5.47,5.47,-5.47,-5.41,-4.52,2.35,2.35,2.35
175.02,7.77,7.77,5.45,5.45,-5.45,-5.39,-4.50,2.32,2.32,2.32
176.77,7.72,7.72,5.44,5.44,-5.44,-5.37,-4.47,2.28,2.28,2.28
178.54,7.67,7.67,5.42,5.42,-5.42,-5.35,-4.45,2.25,2.25,2.25
180.32,7.62,7.62,5.40,5.40,-5.40,-5.33,-4.44,2.22,2.22,2.22
182.13,7.57,7.57,5.38,5.38,-5.38,-5.31,-4.42,2.19,2.19,2.19
183.95,7.51,7.51,5.35,5.35,-5.35,-5.29,-4.41,2.16,2.16,2.16
185.79,7.46,7.46,5.33,5.33,-5.33,-5.27,-4.41,2.13,2.13,2.13
187.65,7.40,7.40,5.30,5.30,-5.30,-5.24,-4.40,2.10,2.10,2.10
189.52,7.35,7.35,5.28,5.27,-5.27,-5.21,-4.40,2.08,2.07,2.07
191.42,7.29,7.29,5.24,5.24,-5.25,-5.19,-4.40,2.04,2.05,2.05
193.33,7.24,7.24,5.22,5.22,-5.22,-5.16,-4.41,2.02,2.02,2.02
195.27,7.18,7.18,5.18,5.19,-5.19,-5.13,-4.42,1.99,1.99,2.00
197.22,7.13,7.13,5.16,5.16,-5.16,-5.10,-4.43,1.97,1.97,1.97
199.19,7.07,7.07,5.12,5.12,-5.12,-5.07,-4.44,1.95,1.95,1.95
201.18,7.02,7.02,5.09,5.09,-5.09,-5.04,-4.46,1.93,1.93,1.93
203.19,6.96,6.96,5.06,5.06,-5.05,-5.00,-4.47,1.91,1.91,1.90
205.23,6.90,6.90,5.02,5.02,-5.01,-4.97,-4.49,1.89,1.88,1.88
207.28,6.83,6.83,4.97,4.97,-4.97,-4.93,-4.51,1.86,1.86,1.86
209.35,6.77,6.77,4.93,4.93,-4.93,-4.90,-4.53,1.84,1.84,1.84
211.44,6.71,6.71,4.89,4.89,-4.89,-4.86,-4.56,1.82,1.82,1.82
213.56,6.65,6.65,4.85,4.85,-4.85,-4.82,-4.58,1.80,1.80,1.80
215.69,6.59,6.59,4.81,4.81,-4.80,-4.78,-4.60,1.79,1.79,1.78
217.85,6.53,6.53,4.76,4.76,-4.76,-4.74,-4.62,1.77,1.77,1.77
220.03,6.46,6.46,4.71,4.71,-4.71,-4.70,-4.64,1.75,1.75,1.75
222.23,6.40,6.40,4.67,4.66,-4.66,-4.66,-4.66,1.74,1.74,1.73
224.45,6.33,6.33,4.61,4.61,-4.61,-4.62,-4.67,1.72,1.72,1.72
226.70,6.26,6.26,4.56,4.56,-4.56,-4.57,-4.69,1.70,1.70,1.70
228.96,6.19,6.19,4.50,4.50,-4.50,-4.53,-4.70,1.69,1.69,1.69
231.25,6.12,6.12,4.45,4.45,-4.45,-4.48,-4.71,1.67,1.67,1.67
233.57,6.05,6.05,4.39,4.39,-4.40,-4.44,-4.71,1.65,1.65,1.66
235.90,5.98,5.98,4.35,4.34,-4.34,-4.39,-4.71,1.64,1.64,1.64
238.26,5.91,5.91,4.29,4.29,-4.29,-4.34,-4.71,1.62,1.62,1.62
240.64,5.85,5.85,4.24,4.24,-4.24,-4.29,-4.70,1.61,1.61,1.61
243.05,5.78,5.78,4.18,4.19,-4.19,-4.25,-4.68,1.59,1.60,1.60
245.48,5.72,5.72,4.13,4.13,-4.13,-4.19,-4.66,1.59,1.59,1.59
247.93,5.66,5.66,4.09,4.08,-4.08,-4.14,-4.64,1.58,1.58,1.57
250.41,5.59,5.59,4.03,4.03,-4.03,-4.09,-4.60,1.56,1.56,1.56
252.92,5.53,5.53,3.98,3.98,-3.98,-4.04,-4.57,1.55,1.55,1.55
255.45,5.46,5.46,3.92,3.92,-3.92,-3.99,-4.53,1.54,1.54,1.54
258.00,5.40,5.40,3.87,3.87,-3.87,-3.93,-4.48,1.53,1.53,1.53
260.58,5.33,5.33,3.81,3.81,-3.81,-3.88,-4.42,1.52,1.52,1.52
263.19,5.27,5.27,3.76,3.75,-3.75,-3.82,-4.37,1.52,1.51,1.51
265.82,5.20,5.20,3.70,3.70,-3.70,-3.77,-4.30,1.51,1.51,1.51
268.48,5.13,5.13,3.63,3.64,-3.63,-3.71,-4.23,1.50,1.50,1.50
271.16,5.06,5.06,3.57,3.57,-3.57,-3.65,-4.16,1.49,1.49,1.49
273.87,4.98,4.98,3.50,3.50,-3.50,-3.59,-4.08,1.48,1.48,1.48
276.61,4.90,4.90,3.43,3.43,-3.42,-3.54,-4.00,1.48,1.48,1.47
279.38,4.82,4.82,3.35,3.35,-3.35,-3.48,-3.91,1.47,1.47,1.47
282.17,4.73,4.73,3.27,3.27,-3.27,-3.42,-3.83,1.46,1.46,1.46
284.99,4.65,4.65,3.19,3.19,-3.19,-3.36,-3.74,1.46,1.46,1.46
287.84,4.56,4.56,3.10,3.10,-3.10,-3.30,-3.64,1.46,1.46,1.47
290.72,4.48,4.48,3.02,3.02,-3.02,-3.23,-3.55,1.46,1.46,1.46
293.63,4.40,4.40,2.95,2.94,-2.94,-3.17,-3.45,1.46,1.46,1.45
296.57,4.33,4.33,2.87,2.87,-2.87,-3.11,-3.35,1.47,1.46,1.46
299.53,4.25,4.25,2.79,2.79,-2.80,-3.05,-3.26,1.46,1.46,1.46
302.53,4.18,4.18,2.73,2.72,-2.73,-2.98,-3.16,1.45,1.45,1.46
305.55,4.12,4.12,2.66,2.67,-2.68,-2.92,-3.06,1.44,1.45,1.46
308.61,4.08,4.08,2.63,2.62,-2.63,-2.86,-2.96,1.45,1.45,1.45
311.69,4.04,4.04,2.58,2.58,-2.59,-2.79,-2.86,1.45,1.45,1.46
314.81,4.01,4.01,2.56,2.56,-2.56,-2.73,-2.76,1.45,1.45,1.46
317.96,3.99,3.99,2.53,2.53,-2.53,-2.66,-2.67,1.46,1.46,1.46
321.14,3.97,3.97,2.51,2.51,-2.51,-2.60,-2.57,1.46,1.46,1.46
324.35,3.95,3.95,2.49,2.49,-2.48,-2.53,-2.47,1.47,1.47,1.46
327.59,3.92,3.92,2.45,2.46,-2.45,-2.46,-2.38,1.47,1.47,1.47
330.87,3.89,3.89,2.43,2.43,-2.42,-2.40,-2.28,1.47,1.47,1.46
334.18,3.86,3.86,2.39,2.39,-2.38,-2.33,-2.19,1.48,1.47,1.47
337.52,3.81,3.81,2.34,2.34,-2.34,-2.26,-2.10,1.47,1.48,1.47
340.90,3.76,3.76,2.29,2.29,-2.29,-2.19,-2.01,1.47,1.48,1.47
344.30,3.71,3.71,2.23,2.23,-2.23,-2.13,-1.92,1.48,1.48,1.48
347.75,3.65,3.65,2.16,2.17,-2.17,-2.06,-1.83,1.48,1.48,1.49
351.23,3.59,3.59,2.11,2.10,-2.11,-1.99,-1.74,1.49,1.49,1.48
354.74,3.53,3.53,2.03,2.04,-2.04,-1.92,-1.66,1.49,1.49,1.50
358.28,3.47,3.47,1.97,1.97,-1.97,-1.85,-1.57,1.50,1.50,1.50
361.87,3.40,3.40,1.90,1.90,-1.90,-1.78,-1.49,1.50,1.50,1.50
365.49,3.34,3.34,1.83,1.83,-1.83,-1.71,-1.41,1.51,1.51,1.51
369.14,3.28,3.28,1.77,1.76,-1.76,-1.64,-1.33,1.52,1.51,1.51
372.83,3.21,3.21,1.68,1.69,-1.69,-1.57,-1.25,1.52,1.52,1.53
376.56,3.15,3.15,1.63,1.62,-1.62,-1.51,-1.17,1.53,1.52,1.52
380.33,3.08,3.08,1.55,1.55,-1.55,-1.44,-1.09,1.53,1.53,1.53
384.13,3.02,3.02,1.49,1.49,-1.48,-1.37,-1.02,1.54,1.54,1.53
387.97,2.95,2.95,1.41,1.41,-1.41,-1.30,-0.94,1.54,1.54,1.54
391.85,2.89,2.89,1.34,1.34,-1.34,-1.23,-0.87,1.55,1.55,1.55
395.77,2.82,2.82,1.27,1.27,-1.27,-1.16,-0.80,1.55,1.55,1.55
399.73,2.76,2.76,1.20,1.20,-1.20,-1.09,-0.72,1.56,1.56,1.56
403.72,2.69,2.69,1.12,1.13,-1.13,-1.02,-0.65,1.56,1.56,1.57
407.76,2.63,2.63,1.06,1.06,-1.06,-0.95,-0.59,1.57,1.57,1.57
411.84,2.57,2.57,1.00,0.99,-1.00,-0.88,-0.52,1.58,1.57,1.58
415.96,2.51,2.51,0.93,0.93,-0.93,-0.81,-0.45,1.58,1.58,1.58
420.12,2.45,2.45,0.87,0.87,-0.87,-0.74,-0.39,1.59,1.59,1.58
424.32,2.39,2.39,0.80,0.80,-0.80,-0.67,-0.32,1.59,1.59,1.59
428.56,2.33,2.33,0.73,0.73,-0.73,-0.60,-0.26,1.60,1.60,1.60
432.85,2.27,2.27,0.66,0.67,-0.67,-0.53,-0.19,1.60,1.60,1.61
437.18,2.21,2.21,0.60,0.60,-0.60,-0.46,-0.13,1.61,1.61,1.61
441.55,2.15,2.15,0.54,0.53,-0.53,-0.39,-0.07,1.62,1.62,1.61
445.96,2.09,2.09,0.47,0.46,-0.46,-0.32,-0.02,1.63,1.63,1.62
450.42,2.02,2.02,0.38,0.39,-0.39,-0.26,0.04,1.63,1.63,1.64
454.93,1.96,1.96,0.31,0.31,-0.32,-0.19,0.10,1.64,1.64,1.65
459.48,1.91,1.91,0.25,0.25,-0.26,-0.12,0.15,1.65,1.65,1.66
464.07,1.85,1.85,0.19,0.19,-0.19,-0.05,0.20,1.66,1.66,1.66
468.71,1.79,1.79,0.12,0.13,-0.13,0.02,0.26,1.66,1.67,1.67
473.40,1.74,1.74,0.06,0.06,-0.06,0.08,0.31,1.68,1.68,1.68
478.13,1.68,1.68,-0.00,-0.00,0.00,0.15,0.35,1.68,1.69,1.69
482.91,1.63,1.63,-0.06,-0.06,0.07,0.22,0.40,1.70,1.70,1.69
487.74,1.57,1.57,-0.13,-0.13,0.14,0.28,0.45,1.71,1.71,1.70
492.62,1.51,1.51,-0.20,-0.20,0.21,0.35,0.49,1.72,1.72,1.71
497.55,1.44,1.44,-0.28,-0.28,0.29,0.41,0.53,1.73,1.73,1.72
502.52,1.37,1.37,-0.36,-0.36,0.36,0.48,0.57,1.73,1.74,1.73
507.55,1.30,1.30,-0.45,-0.44,0.44,0.54,0.61,1.74,1.74,1.75
512.62,1.24,1.24,-0.52,-0.52,0.52,0.61,0.65,1.76,1.75,1.76
517.75,1.17,1.17,-0.60,-0.60,0.59,0.67,0.69,1.76,1.76,1.77
522.93,1.11,1.11,-0.67,-0.67,0.66,0.74,0.72,1.77,1.77,1.78
528.16,1.05,1.05,-0.74,-0.74,0.73,0.80,0.76,1.78,1.78,1.79
