frequency,raw,smoothed,error,error_smoothed,equalization,parametric_eq,fixed_band_eq,equalized_raw,equalized_smoothed,target
20.00,-2.11,-2.11,-4.59,-4.59,4.60,5.07,1.88,2.48,2.48,2.48
20.20,-2.13,-2.14,-4.66,-4.66,4.67,5.05,1.94,2.53,2.53,2.53
20.40,-2.15,-2.16,-4.73,-4.73,4.73,5.03,1.99,2.58,2.57,2.58
20.61,-2.17,-2.18,-4.78,-4.79,4.79,5.01,2.05,2.61,2.61,2.60
20.81,-2.19,-2.19,-4.85,-4.85,4.84,4.99,2.11,2.64,2.64,2.66
21.02,-2.21,-2.21,-4.91,-4.90,4.88,4.97,2.18,2.67,2.67,2.69
21.23,-2.21,-2.21,-4.93,-4.93,4.92,4.94,2.24,2.71,2.70,2.71
21.44,-2.21,-2.22,-4.95,-4.95,4.95,4.92,2.31,2.74,2.73,2.73
21.66,-2.21,-2.21,-4.97,-4.96,4.97,4.90,2.37,2.76,2.76,2.75
21.87,-2.21,-2.21,-4.98,-4.98,4.99,4.88,2.44,2.77,2.77,2.76
22.09,-2.21,-2.21,-5.00,-4.99,4.99,4.86,2.51,2.78,2.78,2.78
22.31,-2.21,-2.21,-5.00,-5.00,5.00,4.84,2.59,2.78,2.78,2.79
22.54,-2.21,-2.21,-5.00,-5.01,5.00,4.81,2.66,2.79,2.79,2.79
22.76,-2.21,-2.21,-5.00,-5.00,5.00,4.79,2.74,2.79,2.79,2.79
22.99,-2.21,-2.21,-4.99,-5.00,5.00,4.77,2.82,2.79,2.79,2.78
23.22,-2.21,-2.21,-4.99,-4.99,5.00,4.75,2.90,2.79,2.79,2.78
23.45,-2.21,-2.21,-4.99,-4.99,5.00,4.72,2.98,2.79,2.79,2.78
23.69,-2.21,-2.21,-5.00,-5.00,5.00,4.70,3.07,2.79,2.79,2.79
23.92,-2.21,-2.21,-5.00,-5.00,5.00,4.68,3.16,2.79,2.79,2.79
24.16,-2.21,-2.21,-5.01,-5.01,5.00,4.66,3.24,2.79,2.79,2.80
24.40,-2.21,-2.21,-5.02,-5.01,5.01,4.63,3.33,2.79,2.79,2.80
24.65,-2.21,-2.21,-5.01,-5.01,5.01,4.61,3.42,2.80,2.80,2.79
24.89,-2.21,-2.21,-5.01,-5.01,5.01,4.59,3.52,2.80,2.80,2.79
25.14,-2.21,-2.21,-5.01,-5.01,5.01,4.57,3.61,2.80,2.80,2.79
25.39,-2.21,-2.21,-5.01,-5.01,5.01,4.54,3.70,2.79,2.79,2.80
25.65,-2.21,-2.21,-5.01,-5.01,5.01,4.52,3.79,2.79,2.79,2.80
25.91,-2.21,-2.21,-5.00,-5.01,5.01,4.50,3.89,2.79,2.79,2.79
26.16,-2.21,-2.21,-5.00,-5.00,5.01,4.47,3.98,2.79,2.79,2.79
26.43,-2.21,-2.21,-5.00,-5.00,5.01,4.45,4.07,2.80,2.80,2.79
26.69,-2.21,-2.21,-5.00,-5.00,5.01,4.43,4.16,2.80,2.80,2.79
26.96,-2.21,-2.21,-5.01,-5.01,5.01,4.41,4.25,2.80,2.80,2.79
27.23,-2.21,-2.21,-5.01,-5.01,5.01,4.38,4.34,2.79,2.79,2.79
27.50,-2.21,-2.22,-5.00,-5.01,4.99,4.36,4.43,2.78,2.78,2.79
27.77,-2.21,-2.21,-4.99,-4.99,4.98,4.34,4.51,2.76,2.76,2.78
28.05,-2.20,-2.19,-4.98,-4.96,4.95,4.31,4.59,2.75,2.76,2.78
28.33,-2.14,-2.15,-4.91,-4.92,4.91,4.29,4.66,2.77,2.76,2.77
28.62,-2.09,-2.10,-4.86,-4.86,4.87,4.27,4.73,2.78,2.78,2.77
28.90,-2.03,-2.03,-4.81,-4.80,4.82,4.24,4.79,2.79,2.79,2.77
29.19,-1.97,-1.98,-4.74,-4.75,4.76,4.22,4.85,2.79,2.79,2.76
29.48,-1.91,-1.92,-4.69,-4.69,4.70,4.20,4.91,2.78,2.78,2.78
29.78,-1.85,-1.85,-4.62,-4.63,4.62,4.17,4.95,2.77,2.77,2.77
30.08,-1.78,-1.78,-4.56,-4.55,4.54,4.15,4.99,2.76,2.77,2.78
30.38,-1.69,-1.69,-4.45,-4.46,4.45,4.13,5.03,2.76,2.76,2.76
30.68,-1.58,-1.59,-4.35,-4.36,4.34,4.10,5.05,2.75,2.75,2.76
30.99,-1.48,-1.47,-4.25,-4.23,4.21,4.08,5.07,2.73,2.74,2.76
31.30,-1.34,-1.33,-4.09,-4.09,4.07,4.06,5.08,2.74,2.74,2.76
31.61,-1.17,-1.18,-3.93,-3.94,3.92,4.03,5.08,2.74,2.74,2.76
31.93,-1.02,-1.01,-3.77,-3.77,3.76,4.01,5.07,2.74,2.74,2.75
32.24,-0.85,-0.85,-3.59,-3.59,3.60,3.99,5.06,2.74,2.75,2.74
32.57,-0.69,-0.68,-3.43,-3.43,3.44,3.96,5.04,2.76,2.76,2.75
32.89,-0.52,-0.54,-3.27,-3.28,3.30,3.94,5.01,2.78,2.76,2.75
33.22,-0.41,-0.41,-3.15,-3.15,3.18,3.92,4.97,2.77,2.76,2.73
33.55,-0.33,-0.32,-3.06,-3.05,3.08,3.89,4.93,2.74,2.76,2.73
33.89,-0.25,-0.26,-2.97,-2.99,3.00,3.87,4.89,2.75,2.74,2.72
34.23,-0.22,-0.23,-2.95,-2.94,2.95,3.85,4.83,2.72,2.72,2.72
34.57,-0.21,-0.21,-2.93,-2.92,2.91,3.82,4.78,2.70,2.71,2.71
34.92,-0.20,-0.21,-2.91,-2.92,2.91,3.80,4.72,2.70,2.70,2.71
35.27,-0.21,-0.21,-2.92,-2.91,2.92,3.78,4.65,2.70,2.71,2.71
35.62,-0.22,-0.22,-2.93,-2.93,2.94,3.75,4.58,2.71,2.72,2.70
35.97,-0.24,-0.26,-2.94,-2.96,2.97,3.73,4.51,2.73,2.71,2.70
36.33,-0.31,-0.31,-3.02,-3.01,3.01,3.71,4.44,2.70,2.70,2.70
36.70,-0.38,-0.38,-3.07,-3.08,3.06,3.68,4.36,2.68,2.68,2.69
37.06,-0.45,-0.44,-3.14,-3.13,3.12,3.66,4.29,2.66,2.68,2.69
37.43,-0.48,-0.48,-3.19,-3.18,3.18,3.64,4.21,2.69,2.69,2.70
37.81,-0.51,-0.53,-3.21,-3.22,3.23,3.61,4.14,2.72,2.71,2.70
38.19,-0.57,-0.58,-3.27,-3.28,3.29,3.59,4.06,2.71,2.71,2.69
38.57,-0.64,-0.64,-3.34,-3.34,3.33,3.57,3.98,2.69,2.69,2.70
38.95,-0.71,-0.70,-3.42,-3.39,3.37,3.54,3.91,2.66,2.68,2.70
39.34,-0.72,-0.72,-3.42,-3.42,3.40,3.52,3.83,2.68,2.68,2.70
39.74,-0.72,-0.73,-3.42,-3.43,3.43,3.50,3.76,2.71,2.70,2.69
40.14,-0.73,-0.74,-3.43,-3.44,3.45,3.47,3.69,2.72,2.71,2.70
40.54,-0.76,-0.77,-3.46,-3.46,3.47,3.45,3.62,2.71,2.70,2.69
40.94,-0.80,-0.79,-3.49,-3.48,3.48,3.43,3.55,2.67,2.69,2.69
41.35,-0.80,-0.80,-3.48,-3.49,3.48,3.40,3.49,2.68,2.68,2.68
41.76,-0.80,-0.81,-3.48,-3.48,3.48,3.38,3.42,2.68,2.68,2.67
42.18,-0.80,-0.80,-3.48,-3.48,3.48,3.36,3.36,2.68,2.68,2.68
42.60,-0.80,-0.80,-3.46,-3.47,3.47,3.33,3.30,2.67,2.67,2.66
43.03,-0.80,-0.81,-3.46,-3.46,3.46,3.31,3.24,2.65,2.65,2.65
43.46,-0.80,-0.81,-3.45,-3.45,3.43,3.28,3.19,2.63,2.62,2.65
43.90,-0.80,-0.79,-3.42,-3.42,3.40,3.26,3.14,2.60,2.61,2.62
44.33,-0.77,-0.77,-3.37,-3.37,3.37,3.24,3.09,2.60,2.60,2.60
44.78,-0.72,-0.74,-3.31,-3.32,3.33,3.21,3.04,2.61,2.60,2.58
45.23,-0.70,-0.71,-3.28,-3.28,3.29,3.19,2.99,2.59,2.58,2.58
45.68,-0.69,-0.69,-3.25,-3.25,3.25,3.16,2.95,2.55,2.56,2.56
46.13,-0.67,-0.67,-3.21,-3.21,3.20,3.14,2.91,2.53,2.53,2.54
46.60,-0.63,-0.64,-3.17,-3.17,3.15,3.11,2.87,2.52,2.52,2.54
47.06,-0.59,-0.59,-3.11,-3.11,3.11,3.09,2.84,2.52,2.52,2.52
47.53,-0.55,-0.55,-3.06,-3.06,3.08,3.06,2.80,2.52,2.53,2.51
48.01,-0.50,-0.52,-3.01,-3.02,3.04,3.04,2.77,2.54,2.53,2.51
48.49,-0.50,-0.50,-2.99,-2.99,3.01,3.01,2.74,2.50,2.51,2.49
48.97,-0.50,-0.50,-2.97,-2.97,2.97,2.99,2.72,2.47,2.47,2.47
49.46,-0.50,-0.51,-2.95,-2.95,2.93,2.96,2.69,2.43,2.42,2.45
49.96,-0.50,-0.49,-2.93,-2.92,2.89,2.94,2.67,2.39,2.40,2.42
50.46,-0.45,-0.46,-2.88,-2.87,2.85,2.91,2.64,2.40,2.39,2.42
50.96,-0.40,-0.40,-2.81,-2.81,2.81,2.88,2.62,2.41,2.41,2.41
51.47,-0.35,-0.35,-2.74,-2.74,2.77,2.86,2.60,2.41,2.42,2.39
51.99,-0.30,-0.32,-2.68,-2.70,2.72,2.83,2.59,2.42,2.40,2.37
52.51,-0.30,-0.30,-2.67,-2.67,2.68,2.80,2.57,2.37,2.37,2.37
53.03,-0.30,-0.28,-2.67,-2.64,2.63,2.78,2.55,2.33,2.36,2.36
53.56,-0.24,-0.25,-2.59,-2.60,2.59,2.75,2.54,2.35,2.34,2.35
54.10,-0.20,-0.22,-2.54,-2.56,2.55,2.72,2.52,2.35,2.33,2.33
54.64,-0.20,-0.19,-2.52,-2.51,2.51,2.69,2.51,2.31,2.32,2.32
55.18,-0.18,-0.17,-2.49,-2.48,2.47,2.67,2.49,2.29,2.30,2.31
55.74,-0.13,-0.14,-2.43,-2.44,2.42,2.64,2.48,2.29,2.28,2.29
56.29,-0.09,-0.10,-2.38,-2.38,2.38,2.61,2.46,2.29,2.28,2.29
56.86,-0.06,-0.06,-2.33,-2.32,2.34,2.58,2.44,2.27,2.28,2.27
57.42,-0.03,-0.03,-2.27,-2.28,2.29,2.55,2.43,2.26,2.26,2.24
58.00,-0.00,-0.01,-2.23,-2.24,2.26,2.52,2.41,2.25,2.24,2.23
58.58,-0.00,-0.00,-2.22,-2.22,2.22,2.49,2.39,2.22,2.22,2.22
59.16,-0.00,-0.00,-2.20,-2.20,2.19,2.46,2.37,2.19,2.19,2.20
59.76,-0.00,0.00,-2.18,-2.17,2.17,2.42,2.35,2.17,2.17,2.18
60.35,-0.00,-0.00,-2.14,-2.14,2.15,2.39,2.33,2.15,2.15,2.14
60.96,-0.00,-0.03,-2.11,-2.13,2.14,2.36,2.30,2.14,2.12,2.10
61.57,-0.06,-0.06,-2.13,-2.12,2.13,2.33,2.28,2.07,2.07,2.06
62.18,-0.11,-0.10,-2.13,-2.11,2.12,2.29,2.25,2.00,2.02,2.02
62.80,-0.12,-0.14,-2.10,-2.11,2.10,2.26,2.22,1.98,1.96,1.97
63.43,-0.16,-0.17,-2.09,-2.10,2.08,2.23,2.18,1.92,1.91,1.93
64.07,-0.20,-0.19,-2.09,-2.07,2.06,2.19,2.15,1.86,1.87,1.88
64.71,-0.20,-0.21,-2.04,-2.04,2.03,2.16,2.11,1.83,1.83,1.84
65.35,-0.20,-0.21,-2.00,-2.00,2.00,2.12,2.07,1.79,1.79,1.80
66.01,-0.20,-0.20,-1.95,-1.95,1.96,2.08,2.03,1.75,1.75,1.75
66.67,-0.20,-0.20,-1.91,-1.91,1.91,2.05,1.99,1.71,1.71,1.70
67.33,-0.20,-0.20,-1.86,-1.86,1.86,2.01,1.95,1.66,1.66,1.65
68.01,-0.20,-0.20,-1.81,-1.81,1.82,1.97,1.90,1.61,1.61,1.61
68.69,-0.20,-0.20,-1.76,-1.76,1.76,1.93,1.86,1.56,1.56,1.56
69.37,-0.20,-0.20,-1.71,-1.71,1.71,1.89,1.81,1.51,1.51,1.51
70.07,-0.20,-0.20,-1.66,-1.66,1.66,1.85,1.76,1.46,1.46,1.46
70.77,-0.20,-0.20,-1.62,-1.61,1.61,1.81,1.71,1.40,1.40,1.41
71.48,-0.20,-0.20,-1.56,-1.56,1.55,1.77,1.66,1.35,1.35,1.36
72.19,-0.20,-0.20,-1.50,-1.50,1.49,1.73,1.61,1.29,1.29,1.29
72.91,-0.20,-0.20,-1.44,-1.44,1.43,1.69,1.55,1.23,1.23,1.24
73.64,-0.20,-0.20,-1.38,-1.38,1.38,1.65,1.50,1.18,1.18,1.18
74.38,-0.20,-0.20,-1.32,-1.32,1.33,1.60,1.44,1.13,1.14,1.12
75.12,-0.20,-0.20,-1.27,-1.26,1.29,1.56,1.39,1.09,1.09,1.06
75.87,-0.20,-0.23,-1.21,-1.23,1.25,1.51,1.34,1.04,1.02,1.00
76.63,-0.26,-0.26,-1.22,-1.21,1.21,1.47,1.28,0.95,0.95,0.95
77.40,-0.30,-0.29,-1.21,-1.19,1.17,1.42,1.23,0.87,0.88,0.90
78.17,-0.30,-0.31,-1.14,-1.16,1.13,1.38,1.17,0.83,0.83,0.84
78.95,-0.30,-0.31,-1.11,-1.11,1.10,1.33,1.12,0.79,0.79,0.81
79.74,-0.30,-0.30,-1.06,-1.06,1.06,1.29,1.06,0.75,0.75,0.75
80.54,-0.30,-0.30,-1.01,-1.01,1.02,1.24,1.01,0.71,0.71,0.71
81.35,-0.30,-0.30,-0.96,-0.96,0.97,1.19,0.96,0.67,0.67,0.66
82.16,-0.30,-0.30,-0.91,-0.92,0.92,1.14,0.90,0.62,0.62,0.61
82.98,-0.30,-0.30,-0.88,-0.87,0.87,1.09,0.85,0.57,0.57,0.57
83.81,-0.30,-0.30,-0.82,-0.82,0.82,1.04,0.80,0.52,0.52,0.52
84.65,-0.30,-0.30,-0.77,-0.78,0.78,0.99,0.74,0.47,0.47,0.47
85.50,-0.30,-0.30,-0.73,-0.73,0.73,0.94,0.69,0.43,0.43,0.43
86.35,-0.30,-0.30,-0.68,-0.68,0.68,0.89,0.64,0.38,0.38,0.38
87.22,-0.30,-0.30,-0.63,-0.64,0.63,0.84,0.59,0.33,0.33,0.33
88.09,-0.30,-0.30,-0.58,-0.59,0.58,0.79,0.54,0.28,0.28,0.28
88.97,-0.30,-0.30,-0.53,-0.53,0.53,0.74,0.49,0.23,0.23,0.23
89.86,-0.30,-0.30,-0.48,-0.48,0.48,0.69,0.44,0.17,0.18,0.18
90.76,-0.29,-0.30,-0.42,-0.42,0.43,0.64,0.39,0.13,0.13,0.13
91.66,-0.29,-0.29,-0.38,-0.37,0.37,0.59,0.34,0.08,0.08,0.08
92.58,-0.29,-0.29,-0.31,-0.32,0.32,0.54,0.29,0.03,0.03,0.02
93.51,-0.29,-0.29,-0.27,-0.27,0.27,0.49,0.24,-0.02,-0.02,-0.02
94.44,-0.29,-0.29,-0.23,-0.22,0.22,0.44,0.19,-0.07,-0.07,-0.07
95.39,-0.29,-0.30,-0.18,-0.18,0.18,0.39,0.14,-0.11,-0.12,-0.11
96.34,-0.30,-0.30,-0.14,-0.14,0.14,0.34,0.09,-0.17,-0.16,-0.17
97.30,-0.30,-0.31,-0.09,-0.10,0.09,0.29,0.05,-0.21,-0.21,-0.21
98.28,-0.31,-0.32,-0.06,-0.06,0.06,0.24,0.00,-0.26,-0.26,-0.26
99.26,-0.33,-0.33,-0.03,-0.03,0.02,0.19,-0.05,-0.31,-0.31,-0.30
100.25,-0.34,-0.35,0.00,0.00,-0.00,0.14,-0.09,-0.35,-0.35,-0.35
101.25,-0.36,-0.36,0.03,0.03,-0.02,0.09,-0.14,-0.39,-0.38,-0.39
102.27,-0.38,-0.38,0.06,0.06,-0.04,0.04,-0.18,-0.42,-0.42,-0.44
103.29,-0.41,-0.42,0.08,0.07,-0.05,-0.01,-0.23,-0.47,-0.47,-0.50
104.32,-0.46,-0.47,0.07,0.06,-0.07,-0.05,-0.27,-0.53,-0.54,-0.53
105.37,-0.53,-0.52,0.05,0.06,-0.08,-0.10,-0.32,-0.61,-0.60,-0.58
106.42,-0.56,-0.56,0.06,0.07,-0.09,-0.15,-0.36,-0.65,-0.65,-0.63
107.48,-0.58,-0.59,0.10,0.09,-0.11,-0.19,-0.40,-0.69,-0.70,-0.68
108.56,-0.60,-0.60,0.13,0.13,-0.13,-0.23,-0.44,-0.73,-0.73,-0.74
109.64,-0.62,-0.62,0.16,0.16,-0.16,-0.28,-0.48,-0.78,-0.78,-0.78
110.74,-0.64,-0.64,0.20,0.19,-0.19,-0.32,-0.52,-0.84,-0.84,-0.84
111.85,-0.66,-0.66,0.21,0.22,-0.23,-0.36,-0.56,-0.89,-0.89,-0.88
112.97,-0.67,-0.67,0.27,0.26,-0.26,-0.40,-0.60,-0.94,-0.94,-0.94
114.10,-0.68,-0.68,0.30,0.31,-0.29,-0.44,-0.64,-0.98,-0.97,-0.99
115.24,-0.68,-0.69,0.35,0.35,-0.32,-0.47,-0.67,-1.01,-1.01,-1.03
116.39,-0.69,-0.71,0.39,0.37,-0.35,-0.51,-0.71,-1.05,-1.06,-1.09
117.55,-0.73,-0.74,0.39,0.38,-0.39,-0.55,-0.74,-1.13,-1.13,-1.12
118.73,-0.77,-0.75,0.39,0.41,-0.44,-0.59,-0.77,-1.21,-1.19,-1.16
119.92,-0.76,-0.74,0.42,0.45,-0.49,-0.62,-0.80,-1.25,-1.23,-1.19
121.12,-0.67,-0.71,0.56,0.52,-0.54,-0.66,-0.83,-1.22,-1.26,-1.23
122.33,-0.66,-0.66,0.60,0.59,-0.60,-0.69,-0.86,-1.27,-1.27,-1.26
123.55,-0.64,-0.61,0.64,0.68,-0.66,-0.73,-0.89,-1.31,-1.28,-1.28
124.79,-0.56,-0.58,0.75,0.74,-0.72,-0.77,-0.91,-1.29,-1.30,-1.32
126.03,-0.52,-0.53,0.82,0.81,-0.77,-0.80,-0.93,-1.30,-1.31,-1.35
127.29,-0.52,-0.51,0.84,0.86,-0.82,-0.84,-0.95,-1.34,-1.33,-1.37
128.57,-0.51,-0.54,0.89,0.87,-0.85,-0.88,-0.98,-1.36,-1.39,-1.41
129.85,-0.57,-0.56,0.86,0.87,-0.88,-0.92,-0.99,-1.45,-1.44,-1.43
131.15,-0.60,-0.59,0.86,0.88,-0.90,-0.96,-1.01,-1.50,-1.48,-1.46
132.46,-0.59,-0.60,0.90,0.89,-0.92,-1.01,-1.03,-1.51,-1.52,-1.49
133.79,-0.59,-0.60,0.92,0.92,-0.94,-1.05,-1.05,-1.53,-1.53,-1.52
135.12,-0.59,-0.59,0.96,0.96,-0.96,-1.10,-1.06,-1.55,-1.55,-1.55
136.48,-0.58,-0.59,0.98,0.99,-0.98,-1.14,-1.08,-1.56,-1.57,-1.57
137.84,-0.58,-0.58,1.02,1.02,-1.01,-1.19,-1.09,-1.59,-1.59,-1.60
139.22,-0.58,-0.58,1.05,1.05,-1.04,-1.24,-1.10,-1.62,-1.62,-1.63
140.61,-0.58,-0.58,1.08,1.08,-1.07,-1.28,-1.11,-1.65,-1.65,-1.67
142.02,-0.58,-0.58,1.10,1.10,-1.10,-1.33,-1.13,-1.68,-1.68,-1.68
143.44,-0.58,-0.58,1.13,1.13,-1.13,-1.37,-1.14,-1.72,-1.72,-1.71
144.87,-0.58,-0.58,1.17,1.16,-1.17,-1.42,-1.15,-1.75,-1.75,-1.75
146.32,-0.58,-0.58,1.21,1.20,-1.21,-1.46,-1.16,-1.79,-1.79,-1.79
147.78,-0.58,-0.58,1.24,1.24,-1.25,-1.51,-1.17,-1.84,-1.84,-1.82
149.26,-0.58,-0.58,1.28,1.29,-1.30,-1.55,-1.18,-1.89,-1.89,-1.87
150.75,-0.58,-0.58,1.35,1.35,-1.36,-1.59,-1.20,-1.94,-1.94,-1.93
152.26,-0.58,-0.58,1.42,1.41,-1.42,-1.63,-1.21,-2.00,-2.00,-2.00
153.78,-0.58,-0.58,1.48,1.49,-1.48,-1.67,-1.22,-2.06,-2.05,-2.07
155.32,-0.58,-0.58,1.56,1.56,-1.54,-1.70,-1.23,-2.12,-2.12,-2.14
156.88,-0.58,-0.61,1.63,1.61,-1.60,-1.73,-1.25,-2.18,-2.21,-2.22
158.44,-0.65,-0.64,1.64,1.66,-1.66,-1.77,-1.26,-2.31,-2.30,-2.30
160.03,-0.68,-0.67,1.70,1.71,-1.72,-1.80,-1.28,-2.40,-2.39,-2.38
161.63,-0.68,-0.69,1.77,1.76,-1.77,-1.83,-1.30,-2.46,-2.46,-2.45
163.24,-0.68,-0.69,1.83,1.82,-1.83,-1.86,-1.31,-2.51,-2.52,-2.51
164.88,-0.68,-0.69,1.88,1.88,-1.89,-1.88,-1.33,-2.57,-2.57,-2.56
166.53,-0.69,-0.67,1.92,1.94,-1.94,-1.91,-1.35,-2.64,-2.61,-2.61
168.19,-0.64,-0.65,2.01,2.00,-2.00,-1.93,-1.37,-2.65,-2.65,-2.65
169.87,-0.60,-0.63,2.08,2.05,-2.06,-1.95,-1.39,-2.66,-2.68,-2.69
171.57,-0.61,-0.60,2.09,2.11,-2.10,-1.97,-1.42,-2.71,-2.70,-2.70
173.29,-0.59,-0.57,2.13,2.15,-2.14,-1.99,-1.44,-2.73,-2.71,-2.72
175.02,-0.52,-0.55,2.20,2.19,-2.16,-2.01,-1.47,-2.69,-2.71,-2.73
176.77,-0.52,-0.53,2.22,2.21,-2.18,-2.03,-1.49,-2.71,-2.71,-2.74
178.54,-0.52,-0.53,2.22,2.21,-2.20,-2.04,-1.52,-2.72,-2.73,-2.74
180.32,-0.56,-0.54,2.17,2.20,-2.21,-2.05,-1.55,-2.78,-2.76,-2.74
182.13,-0.54,-0.54,2.19,2.20,-2.23,-2.07,-1.58,-2.77,-2.76,-2.73
183.95,-0.50,-0.52,2.24,2.22,-2.24,-2.08,-1.61,-2.74,-2.76,-2.74
185.79,-0.49,-0.49,2.25,2.25,-2.26,-2.09,-1.64,-2.75,-2.75,-2.74
187.65,-0.48,-0.48,2.28,2.28,-2.28,-2.10,-1.67,-2.76,-2.76,-2.76
189.52,-0.46,-0.47,2.31,2.31,-2.31,-2.11,-1.71,-2.77,-2.77,-2.77
191.42,-0.45,-0.45,2.34,2.34,-2.34,-2.12,-1.75,-2.80,-2.79,-2.79
193.33,-0.43,-0.44,2.38,2.38,-2.38,-2.12,-1.78,-2.81,-2.81,-2.81
195.27,-0.42,-0.42,2.41,2.41,-2.41,-2.13,-1.82,-2.83,-2.83,-2.83
197.22,-0.40,-0.41,2.45,2.45,-2.44,-2.13,-1.86,-2.85,-2.85,-2.85
199.19,-0.39,-0.40,2.48,2.48,-2.47,-2.14,-1.90,-2.86,-2.87,-2.88
201.18,-0.39,-0.39,2.50,2.50,-2.50,-2.14,-1.94,-2.89,-2.89,-2.89
203.19,-0.38,-0.39,2.53,2.53,-2.52,-2.14,-1.98,-2.91,-2.91,-2.91
205.23,-0.38,-0.38,2.55,2.54,-2.55,-2.15,-2.02,-2.93,-2.93,-2.93
207.28,-0.38,-0.38,2.56,2.57,-2.57,-2.15,-2.06,-2.95,-2.95,-2.94
209.35,-0.38,-0.38,2.58,2.58,-2.58,-2.15,-2.10,-2.97,-2.97,-2.96
211.44,-0.38,-0.39,2.61,2.60,-2.60,-2.15,-2.14,-2.98,-2.99,-3.00
213.56,-0.39,-0.39,2.61,2.62,-2.62,-2.15,-2.18,-3.01,-3.01,-3.00
215.69,-0.39,-0.39,2.62,2.62,-2.63,-2.14,-2.21,-3.02,-3.02,-3.02
217.85,-0.39,-0.40,2.63,2.63,-2.64,-2.14,-2.25,-3.03,-3.04,-3.03
220.03,-0.40,-0.40,2.64,2.64,-2.64,-2.14,-2.29,-3.05,-3.04,-3.04
222.23,-0.40,-0.40,2.66,2.65,-2.64,-2.14,-2.33,-3.04,-3.04,-3.06
224.45,-0.40,-0.40,2.65,2.65,-2.63,-2.13,-2.36,-3.03,-3.03,-3.05
226.70,-0.40,-0.42,2.65,2.64,-2.62,-2.13,-2.39,-3.02,-3.04,-3.05
228.96,-0.44,-0.44,2.60,2.60,-2.60,-2.12,-2.42,-3.05,-3.05,-3.05
231.25,-0.48,-0.47,2.55,2.57,-2.59,-2.12,-2.45,-3.07,-3.06,-3.04
233.57,-0.48,-0.48,2.54,2.54,-2.58,-2.11,-2.48,-3.06,-3.06,-3.03
235.90,-0.47,-0.47,2.54,2.54,-2.56,-2.10,-2.50,-3.04,-3.04,-3.02
238.26,-0.45,-0.46,2.55,2.55,-2.55,-2.10,-2.52,-3.00,-3.00,-3.01
240.64,-0.43,-0.44,2.55,2.54,-2.53,-2.09,-2.54,-2.97,-2.97,-2.98
243.05,-0.42,-0.41,2.53,2.54,-2.52,-2.08,-2.55,-2.94,-2.93,-2.95
245.48,-0.40,-0.41,2.53,2.52,-2.50,-2.08,-2.56,-2.91,-2.91,-2.93
247.93,-0.38,-0.41,2.52,2.49,-2.48,-2.07,-2.57,-2.87,-2.90,-2.90
250.41,-0.44,-0.42,2.44,2.46,-2.46,-2.06,-2.57,-2.91,-2.89,-2.89
252.92,-0.44,-0.44,2.41,2.42,-2.44,-2.05,-2.57,-2.88,-2.88,-2.86
255.45,-0.43,-0.44,2.40,2.40,-2.42,-2.04,-2.57,-2.85,-2.86,-2.83
258.00,-0.42,-0.42,2.39,2.39,-2.39,-2.03,-2.56,-2.81,-2.82,-2.81
260.58,-0.41,-0.42,2.38,2.37,-2.37,-2.02,-2.55,-2.78,-2.78,-2.80
263.19,-0.41,-0.41,2.35,2.36,-2.34,-2.01,-2.54,-2.76,-2.76,-2.76
265.82,-0.41,-0.42,2.34,2.33,-2.32,-2.00,-2.52,-2.74,-2.74,-2.75
268.48,-0.42,-0.42,2.30,2.30,-2.30,-1.99,-2.50,-2.72,-2.72,-2.73
271.16,-0.42,-0.42,2.27,2.27,-2.27,-1.98,-2.48,-2.70,-2.70,-2.69
273.87,-0.42,-0.42,2.25,2.25,-2.25,-1.97,-2.46,-2.67,-2.67,-2.68
276.61,-0.42,-0.42,2.22,2.22,-2.22,-1.96,-2.43,-2.65,-2.65,-2.64
279.38,-0.42,-0.42,2.19,2.19,-2.20,-1.95,-2.40,-2.62,-2.62,-2.62
282.17,-0.42,-0.42,2.17,2.17,-2.18,-1.94,-2.37,-2.60,-2.60,-2.59
284.99,-0.42,-0.42,2.13,2.14,-2.15,-1.93,-2.34,-2.58,-2.57,-2.56
287.84,-0.41,-0.41,2.13,2.12,-2.13,-1.92,-2.31,-2.54,-2.54,-2.54
290.72,-0.40,-0.39,2.10,2.11,-2.10,-1.91,-2.28,-2.50,-2.49,-2.51
293.63,-0.38,-0.39,2.10,2.09,-2.07,-1.90,-2.24,-2.45,-2.46,-2.48
296.57,-0.37,-0.40,2.07,2.05,-2.04,-1.89,-2.21,-2.41,-2.44,-2.45
299.53,-0.43,-0.42,1.99,2.00,-2.01,-1.88,-2.17,-2.44,-2.43,-2.42
302.53,-0.45,-0.44,1.95,1.95,-1.97,-1.86,-2.14,-2.43,-2.41,-2.40
305.55,-0.44,-0.44,1.91,1.92,-1.93,-1.85,-2.10,-2.38,-2.38,-2.36
308.61,-0.43,-0.44,1.91,1.90,-1.89,-1.84,-2.07,-2.32,-2.33,-2.34
311.69,-0.43,-0.45,1.88,1.86,-1.84,-1.83,-2.04,-2.28,-2.30,-2.31
314.81,-0.49,-0.48,1.79,1.82,-1.80,-1.82,-2.00,-2.29,-2.27,-2.29
317.96,-0.52,-0.52,1.75,1.76,-1.75,-1.81,-1.97,-2.28,-2.27,-2.27
321.14,-0.53,-0.56,1.73,1.70,-1.72,-1.80,-1.94,-2.25,-2.28,-2.26
324.35,-0.60,-0.59,1.64,1.66,-1.68,-1.79,-1.91,-2.28,-2.27,-2.25
327.59,-0.62,-0.61,1.61,1.62,-1.64,-1.78,-1.87,-2.26,-2.25,-2.23
330.87,-0.62,-0.63,1.60,1.59,-1.60,-1.76,-1.85,-2.22,-2.23,-2.22
334.18,-0.62,-0.62,1.58,1.59,-1.56,-1.75,-1.82,-2.19,-2.18,-2.21
337.52,-0.62,-0.63,1.57,1.56,-1.53,-1.74,-1.79,-2.16,-2.17,-2.20
340.90,-0.65,-0.66,1.53,1.52,-1.51,-1.73,-1.76,-2.16,-2.17,-2.18
344.30,-0.71,-0.70,1.46,1.48,-1.49,-1.72,-1.74,-2.20,-2.19,-2.17
347.75,-0.73,-0.73,1.44,1.45,-1.47,-1.71,-1.72,-2.20,-2.19,-2.18
351.23,-0.73,-0.74,1.43,1.43,-1.45,-1.70,-1.69,-2.19,-2.19,-2.17
354.74,-0.72,-0.73,1.45,1.44,-1.44,-1.69,-1.67,-2.17,-2.17,-2.17
358.28,-0.72,-0.72,1.44,1.44,-1.43,-1.68,-1.65,-2.16,-2.16,-2.16
361.87,-0.71,-0.72,1.45,1.45,-1.43,-1.67,-1.64,-2.15,-2.15,-2.16
365.49,-0.71,-0.71,1.44,1.45,-1.44,-1.66,-1.62,-2.16,-2.15,-2.16
369.14,-0.70,-0.70,1.46,1.46,-1.46,-1.65,-1.60,-2.16,-2.16,-2.17
372.83,-0.69,-0.70,1.48,1.47,-1.48,-1.64,-1.59,-2.17,-2.18,-2.17
376.56,-0.68,-0.69,1.49,1.48,-1.50,-1.63,-1.58,-2.19,-2.19,-2.17
380.33,-0.68,-0.67,1.48,1.50,-1.53,-1.62,-1.56,-2.21,-2.20,-2.16
384.13,-0.63,-0.63,1.53,1.54,-1.55,-1.61,-1.55,-2.19,-2.19,-2.17
387.97,-0.58,-0.59,1.59,1.58,-1.57,-1.60,-1.54,-2.16,-2.17,-2.18
391.85,-0.56,-0.56,1.62,1.62,-1.58,-1.59,-1.54,-2.15,-2.15,-2.19
395.77,-0.56,-0.57,1.62,1.62,-1.58,-1.58,-1.53,-2.15,-2.15,-2.18
399.73,-0.59,-0.60,1.60,1.59,-1.57,-1.57,-1.52,-2.16,-2.17,-2.19
403.72,-0.64,-0.64,1.55,1.55,-1.54,-1.57,-1.52,-2.19,-2.18,-2.19
407.76,-0.70,-0.70,1.50,1.50,-1.50,-1.56,-1.51,-2.20,-2.20,-2.20
411.84,-0.76,-0.77,1.44,1.44,-1.44,-1.55,-1.51,-2.20,-2.21,-2.20
415.96,-0.84,-0.83,1.36,1.37,-1.37,-1.54,-1.51,-2.21,-2.20,-2.21
420.12,-0.89,-0.90,1.31,1.31,-1.30,-1.53,-1.50,-2.19,-2.20,-2.21
424.32,-0.96,-0.97,1.24,1.24,-1.24,-1.53,-1.50,-2.20,-2.20,-2.21
428.56,-1.02,-1.02,1.18,1.19,-1.18,-1.52,-1.50,-2.21,-2.20,-2.20
432.85,-1.05,-1.06,1.14,1.13,-1.15,-1.51,-1.50,-2.20,-2.21,-2.19
437.18,-1.07,-1.08,1.11,1.10,-1.14,-1.50,-1.50,-2.21,-2.21,-2.18
441.55,-1.07,-1.05,1.07,1.10,-1.14,-1.50,-1.50,-2.21,-2.19,-2.14
445.96,-0.97,-0.98,1.14,1.13,-1.16,-1.49,-1.50,-2.13,-2.14,-2.11
450.42,-0.88,-0.88,1.20,1.19,-1.20,-1.48,-1.50,-2.08,-2.08,-2.08
454.93,-0.76,-0.77,1.27,1.27,-1.24,-1.48,-1.50,-2.01,-2.01,-2.04
459.48,-0.66,-0.66,1.32,1.32,-1.30,-1.47,-1.50,-1.97,-1.97,-1.99
464.07,-0.55,-0.56,1.38,1.38,-1.36,-1.47,-1.50,-1.92,-1.92,-1.94
