frequency,raw,error,smoothed,error_smoothed,equalization,parametric_eq,fixed_band_eq,equalized_raw,equalized_smoothed,target
20.00,2.17,-4.64,2.17,-4.64,4.64,4.48,1.71,6.81,6.81,6.81
20.20,2.19,-4.61,2.19,-4.61,4.61,4.47,1.76,6.80,6.80,6.80
20.40,2.21,-4.58,2.21,-4.58,4.57,4.45,1.82,6.78,6.78,6.79
20.61,2.23,-4.55,2.23,-4.54,4.54,4.43,1.87,6.77,6.77,6.78
20.81,2.25,-4.51,2.25,-4.51,4.51,4.41,1.93,6.76,6.76,6.76
21.02,2.27,-4.48,2.27,-4.47,4.48,4.39,1.98,6.75,6.75,6.75
21.23,2.30,-4.44,2.30,-4.44,4.45,4.37,2.04,6.75,6.74,6.74
21.44,2.32,-4.42,2.32,-4.42,4.41,4.35,2.10,6.73,6.73,6.74
21.66,2.34,-4.39,2.34,-4.38,4.38,4.33,2.16,6.72,6.73,6.72
21.87,2.37,-4.35,2.37,-4.35,4.35,4.31,2.23,6.72,6.72,6.72
22.09,2.39,-4.31,2.39,-4.32,4.32,4.29,2.29,6.71,6.71,6.70
22.31,2.41,-4.29,2.41,-4.29,4.29,4.27,2.36,6.70,6.70,6.70
22.54,2.43,-4.26,2.43,-4.26,4.26,4.25,2.43,6.69,6.69,6.69
22.76,2.46,-4.23,2.46,-4.23,4.23,4.23,2.50,6.69,6.69,6.69
22.99,2.48,-4.20,2.48,-4.20,4.20,4.21,2.58,6.68,6.68,6.68
23.22,2.50,-4.17,2.50,-4.18,4.18,4.19,2.65,6.68,6.68,6.67
23.45,2.52,-4.16,2.52,-4.15,4.15,4.17,2.73,6.67,6.67,6.68
23.69,2.54,-4.13,2.54,-4.13,4.13,4.15,2.80,6.67,6.67,6.67
23.92,2.56,-4.10,2.56,-4.11,4.11,4.13,2.88,6.67,6.67,6.66
24.16,2.58,-4.09,2.58,-4.08,4.08,4.11,2.96,6.66,6.66,6.67
24.40,2.61,-4.06,2.61,-4.06,4.06,4.09,3.05,6.67,6.66,6.67
24.65,2.63,-4.04,2.63,-4.04,4.03,4.06,3.13,6.66,6.66,6.67
24.89,2.65,-4.02,2.65,-4.01,4.01,4.04,3.21,6.66,6.66,6.67
25.14,2.67,-3.99,2.67,-3.99,3.99,4.02,3.30,6.66,6.66,6.66
25.39,2.69,-3.96,2.69,-3.96,3.97,4.00,3.38,6.66,6.66,6.65
25.65,2.71,-3.94,2.71,-3.94,3.95,3.98,3.47,6.66,6.66,6.65
25.91,2.73,-3.92,2.73,-3.93,3.93,3.95,3.55,6.66,6.66,6.65
26.16,2.75,-3.91,2.75,-3.91,3.91,3.93,3.64,6.66,6.66,6.66
26.43,2.77,-3.89,2.77,-3.89,3.89,3.91,3.72,6.66,6.66,6.66
26.69,2.79,-3.87,2.79,-3.87,3.87,3.89,3.80,6.66,6.66,6.66
26.96,2.81,-3.85,2.81,-3.85,3.85,3.87,3.89,6.66,6.66,6.66
27.23,2.83,-3.83,2.83,-3.83,3.83,3.84,3.96,6.66,6.66,6.66
27.50,2.85,-3.81,2.85,-3.81,3.82,3.82,4.04,6.67,6.66,6.66
27.77,2.86,-3.81,2.86,-3.80,3.80,3.80,4.11,6.66,6.66,6.67
28.05,2.88,-3.78,2.88,-3.79,3.79,3.77,4.19,6.67,6.67,6.66
28.33,2.90,-3.77,2.90,-3.77,3.77,3.75,4.25,6.67,6.67,6.67
28.62,2.92,-3.75,2.92,-3.76,3.75,3.73,4.32,6.67,6.67,6.67
28.90,2.94,-3.74,2.94,-3.74,3.74,3.70,4.37,6.68,6.68,6.68
29.19,2.96,-3.72,2.96,-3.72,3.72,3.68,4.43,6.68,6.68,6.68
29.48,2.98,-3.70,2.98,-3.70,3.70,3.66,4.47,6.68,6.68,6.68
29.78,3.00,-3.68,3.00,-3.68,3.67,3.63,4.51,6.67,6.67,6.68
30.08,3.02,-3.66,3.02,-3.65,3.65,3.61,4.54,6.67,6.67,6.67
30.38,3.04,-3.62,3.04,-3.63,3.63,3.59,4.57,6.67,6.67,6.66
30.68,3.06,-3.60,3.06,-3.60,3.61,3.56,4.59,6.67,6.67,6.66
30.99,3.08,-3.58,3.08,-3.58,3.58,3.54,4.61,6.66,6.66,6.66
31.30,3.09,-3.57,3.09,-3.56,3.56,3.52,4.61,6.65,6.65,6.66
31.61,3.11,-3.55,3.11,-3.54,3.54,3.49,4.61,6.65,6.65,6.66
31.93,3.13,-3.50,3.13,-3.52,3.52,3.47,4.60,6.65,6.64,6.63
32.24,3.14,-3.50,3.14,-3.50,3.50,3.44,4.58,6.64,6.64,6.64
32.57,3.15,-3.48,3.15,-3.48,3.48,3.42,4.56,6.63,6.63,6.63
32.89,3.17,-3.46,3.17,-3.46,3.46,3.40,4.53,6.63,6.62,6.63
33.22,3.18,-3.44,3.18,-3.44,3.44,3.37,4.49,6.62,6.62,6.62
33.55,3.19,-3.43,3.19,-3.42,3.42,3.35,4.45,6.61,6.61,6.62
33.89,3.21,-3.40,3.21,-3.40,3.40,3.32,4.40,6.61,6.61,6.61
34.23,3.22,-3.38,3.22,-3.38,3.39,3.30,4.35,6.61,6.61,6.60
34.57,3.23,-3.36,3.23,-3.36,3.37,3.28,4.29,6.60,6.60,6.59
34.92,3.24,-3.34,3.24,-3.35,3.35,3.25,4.23,6.59,6.59,6.58
35.27,3.25,-3.35,3.25,-3.34,3.34,3.23,4.17,6.59,6.58,6.60
35.62,3.25,-3.33,3.25,-3.33,3.32,3.20,4.10,6.57,6.58,6.58
35.97,3.26,-3.31,3.26,-3.31,3.31,3.18,4.03,6.57,6.57,6.57
36.33,3.26,-3.30,3.26,-3.29,3.29,3.15,3.95,6.55,6.55,6.56
36.70,3.26,-3.28,3.26,-3.28,3.28,3.13,3.88,6.54,6.54,6.54
37.06,3.26,-3.26,3.26,-3.26,3.26,3.10,3.80,6.52,6.52,6.52
37.43,3.26,-3.25,3.26,-3.25,3.25,3.08,3.73,6.51,6.51,6.51
37.81,3.26,-3.23,3.26,-3.23,3.23,3.06,3.65,6.49,6.49,6.49
38.19,3.26,-3.21,3.26,-3.21,3.21,3.03,3.57,6.47,6.47,6.47
38.57,3.26,-3.20,3.26,-3.20,3.19,3.01,3.49,6.45,6.45,6.46
38.95,3.26,-3.18,3.26,-3.18,3.17,2.98,3.42,6.43,6.43,6.44
39.34,3.26,-3.16,3.26,-3.15,3.15,2.96,3.34,6.41,6.41,6.42
39.74,3.27,-3.12,3.27,-3.13,3.13,2.93,3.26,6.40,6.40,6.39
40.14,3.27,-3.11,3.27,-3.10,3.11,2.91,3.19,6.38,6.38,6.38
40.54,3.28,-3.08,3.28,-3.08,3.09,2.88,3.12,6.37,6.36,6.36
40.94,3.28,-3.06,3.28,-3.06,3.06,2.86,3.04,6.34,6.34,6.34
41.35,3.28,-3.04,3.28,-3.04,3.04,2.83,2.97,6.32,6.32,6.32
41.76,3.28,-3.01,3.28,-3.02,3.01,2.81,2.91,6.29,6.30,6.29
42.18,3.29,-3.00,3.29,-2.99,2.99,2.78,2.84,6.28,6.28,6.29
42.60,3.30,-2.96,3.30,-2.96,2.96,2.76,2.77,6.26,6.26,6.26
43.03,3.31,-2.93,3.31,-2.93,2.93,2.74,2.71,6.24,6.24,6.24
43.46,3.32,-2.90,3.32,-2.90,2.90,2.71,2.65,6.22,6.22,6.22
43.90,3.34,-2.86,3.34,-2.86,2.87,2.69,2.59,6.21,6.20,6.20
44.33,3.35,-2.82,3.35,-2.83,2.83,2.66,2.53,6.18,6.18,6.17
44.78,3.36,-2.80,3.36,-2.79,2.79,2.64,2.48,6.15,6.16,6.16
45.23,3.38,-2.76,3.38,-2.75,2.75,2.61,2.43,6.13,6.13,6.14
45.68,3.39,-2.71,3.39,-2.71,2.71,2.59,2.38,6.10,6.10,6.10
46.13,3.41,-2.66,3.41,-2.67,2.67,2.56,2.33,6.08,6.07,6.07
46.60,3.42,-2.62,3.42,-2.62,2.62,2.54,2.28,6.04,6.04,6.04
47.06,3.44,-2.57,3.44,-2.57,2.57,2.51,2.23,6.01,6.01,6.01
47.53,3.46,-2.52,3.46,-2.52,2.52,2.49,2.19,5.98,5.98,5.98
48.01,3.47,-2.46,3.47,-2.47,2.47,2.46,2.15,5.94,5.94,5.93
48.49,3.48,-2.42,3.48,-2.42,2.42,2.43,2.11,5.90,5.90,5.90
48.97,3.50,-2.36,3.50,-2.36,2.36,2.41,2.07,5.86,5.86,5.86
49.46,3.52,-2.31,3.52,-2.31,2.31,2.38,2.04,5.83,5.83,5.83
49.96,3.54,-2.24,3.54,-2.25,2.26,2.36,2.00,5.80,5.80,5.78
50.46,3.55,-2.21,3.55,-2.21,2.21,2.33,1.97,5.76,5.76,5.76
50.96,3.56,-2.17,3.56,-2.16,2.16,2.31,1.93,5.72,5.72,5.73
51.47,3.57,-2.12,3.57,-2.12,2.12,2.28,1.90,5.69,5.69,5.69
51.99,3.59,-2.06,3.59,-2.07,2.07,2.25,1.87,5.66,5.66,5.65
52.51,3.60,-2.03,3.60,-2.03,2.03,2.23,1.85,5.63,5.63,5.63
53.03,3.60,-2.00,3.60,-1.99,1.99,2.20,1.82,5.59,5.59,5.60
53.56,3.61,-1.96,3.61,-1.96,1.95,2.18,1.79,5.56,5.56,5.57
54.10,3.61,-1.91,3.61,-1.92,1.92,2.15,1.77,5.53,5.53,5.52
54.64,3.62,-1.88,3.62,-1.88,1.89,2.12,1.74,5.51,5.50,5.50
55.18,3.62,-1.84,3.62,-1.84,1.86,2.09,1.72,5.47,5.47,5.46
55.74,3.61,-1.82,3.61,-1.82,1.83,2.07,1.69,5.44,5.44,5.43
56.29,3.60,-1.81,3.60,-1.80,1.80,2.04,1.67,5.40,5.40,5.41
56.86,3.59,-1.79,3.59,-1.78,1.78,2.01,1.64,5.37,5.37,5.38
57.42,3.59,-1.75,3.59,-1.76,1.76,1.99,1.62,5.35,5.34,5.34
58.00,3.59,-1.72,3.59,-1.73,1.73,1.96,1.60,5.32,5.32,5.31
58.58,3.59,-1.70,3.59,-1.70,1.71,1.93,1.57,5.30,5.30,5.29
59.16,3.59,-1.68,3.59,-1.68,1.68,1.90,1.55,5.27,5.27,5.27
59.76,3.59,-1.65,3.59,-1.65,1.64,1.87,1.52,5.23,5.23,5.24
60.35,3.59,-1.61,3.59,-1.61,1.60,1.84,1.50,5.19,5.19,5.20
60.96,3.59,-1.57,3.59,-1.57,1.56,1.81,1.48,5.15,5.15,5.16
61.57,3.59,-1.52,3.59,-1.52,1.52,1.78,1.45,5.11,5.11,5.11
62.18,3.59,-1.47,3.59,-1.47,1.48,1.75,1.42,5.07,5.07,5.06
62.80,3.59,-1.43,3.59,-1.43,1.43,1.72,1.40,5.02,5.02,5.02
63.43,3.59,-1.38,3.59,-1.39,1.39,1.69,1.37,4.98,4.98,4.97
64.07,3.59,-1.35,3.59,-1.35,1.35,1.66,1.34,4.94,4.94,4.94
64.71,3.59,-1.31,3.59,-1.31,1.31,1.63,1.31,4.90,4.90,4.90
65.35,3.59,-1.27,3.59,-1.27,1.27,1.60,1.29,4.86,4.86,4.86
66.01,3.59,-1.24,3.59,-1.24,1.24,1.57,1.26,4.83,4.83,4.83
66.67,3.59,-1.21,3.59,-1.20,1.20,1.54,1.23,4.79,4.79,4.80
67.33,3.59,-1.16,3.59,-1.16,1.16,1.51,1.20,4.75,4.75,4.75
68.01,3.59,-1.13,3.59,-1.12,1.13,1.47,1.16,4.72,4.72,4.72
68.69,3.59,-1.08,3.59,-1.09,1.09,1.44,1.13,4.68,4.67,4.67
69.37,3.59,-1.05,3.59,-1.05,1.04,1.41,1.10,4.63,4.63,4.64
70.07,3.59,-1.01,3.59,-1.01,1.00,1.37,1.07,4.59,4.59,4.60
70.77,3.60,-0.96,3.60,-0.96,0.96,1.34,1.04,4.56,4.55,4.56
71.48,3.60,-0.92,3.60,-0.91,0.91,1.30,1.00,4.51,4.52,4.52
72.19,3.61,-0.87,3.61,-0.87,0.87,1.27,0.97,4.48,4.48,4.48
72.91,3.61,-0.82,3.61,-0.82,0.83,1.23,0.94,4.44,4.44,4.43
73.64,3.60,-0.79,3.61,-0.79,0.79,1.20,0.90,4.39,4.40,4.39
74.38,3.60,-0.75,3.60,-0.76,0.76,1.16,0.87,4.36,4.36,4.35
75.12,3.59,-0.73,3.59,-0.74,0.74,1.13,0.83,4.33,4.33,4.32
75.87,3.57,-0.72,3.57,-0.72,0.72,1.09,0.80,4.29,4.29,4.29
76.63,3.55,-0.70,3.55,-0.71,0.71,1.05,0.77,4.26,4.26,4.25
77.40,3.53,-0.70,3.53,-0.70,0.70,1.01,0.73,4.23,4.23,4.23
78.17,3.50,-0.69,3.50,-0.69,0.69,0.98,0.70,4.19,4.20,4.19
78.95,3.48,-0.70,3.48,-0.69,0.69,0.94,0.67,4.17,4.17,4.18
79.74,3.46,-0.68,3.46,-0.69,0.69,0.90,0.63,4.15,4.14,4.14
80.54,3.43,-0.69,3.43,-0.69,0.69,0.86,0.60,4.12,4.12,4.12
81.35,3.40,-0.68,3.40,-0.68,0.68,0.82,0.57,4.08,4.09,4.08
82.16,3.38,-0.69,3.38,-0.68,0.68,0.78,0.54,4.06,4.06,4.07
82.98,3.35,-0.68,3.35,-0.68,0.68,0.74,0.50,4.03,4.03,4.03
83.81,3.33,-0.67,3.33,-0.67,0.67,0.70,0.47,4.00,4.00,4.00
84.65,3.30,-0.66,3.30,-0.66,0.67,0.66,0.44,3.97,3.97,3.96
85.50,3.28,-0.65,3.28,-0.65,0.65,0.62,0.41,3.93,3.93,3.93
86.35,3.26,-0.64,3.26,-0.64,0.64,0.58,0.38,3.90,3.90,3.90
87.22,3.25,-0.62,3.25,-0.62,0.61,0.54,0.35,3.86,3.86,3.87
88.09,3.24,-0.60,3.24,-0.60,0.59,0.49,0.32,3.83,3.83,3.84
88.97,3.24,-0.57,3.24,-0.57,0.56,0.45,0.28,3.80,3.80,3.81
89.86,3.25,-0.52,3.25,-0.52,0.52,0.41,0.25,3.77,3.77,3.77
90.76,3.26,-0.48,3.26,-0.48,0.49,0.37,0.22,3.75,3.75,3.74
91.66,3.27,-0.43,3.27,-0.44,0.45,0.32,0.19,3.72,3.71,3.70
92.58,3.27,-0.40,3.27,-0.40,0.41,0.28,0.16,3.68,3.68,3.67
93.51,3.27,-0.37,3.27,-0.37,0.37,0.24,0.13,3.64,3.64,3.64
94.44,3.27,-0.33,3.27,-0.33,0.33,0.20,0.10,3.60,3.60,3.60
95.39,3.27,-0.29,3.27,-0.29,0.29,0.15,0.07,3.56,3.56,3.56
96.34,3.27,-0.25,3.27,-0.25,0.25,0.11,0.04,3.52,3.52,3.52
97.30,3.27,-0.21,3.27,-0.21,0.21,0.07,0.02,3.48,3.48,3.48
98.28,3.27,-0.17,3.27,-0.17,0.17,0.03,-0.01,3.44,3.44,3.44
99.26,3.27,-0.13,3.27,-0.13,0.14,-0.02,-0.04,3.41,3.41,3.40
100.25,3.27,-0.09,3.27,-0.10,0.10,-0.06,-0.07,3.37,3.37,3.36
101.25,3.27,-0.07,3.27,-0.06,0.07,-0.10,-0.10,3.34,3.34,3.34
102.27,3.27,-0.04,3.27,-0.03,0.03,-0.14,-0.13,3.30,3.30,3.31
103.29,3.27,0.00,3.27,-0.00,0.00,-0.18,-0.16,3.27,3.27,3.27
104.32,3.27,0.03,3.27,0.03,-0.03,-0.22,-0.18,3.24,3.24,3.24
105.37,3.27,0.06,3.27,0.06,-0.06,-0.27,-0.21,3.21,3.21,3.21
106.42,3.27,0.08,3.27,0.09,-0.09,-0.31,-0.24,3.18,3.18,3.19
107.48,3.27,0.12,3.27,0.12,-0.12,-0.35,-0.26,3.15,3.15,3.15
108.56,3.27,0.15,3.27,0.15,-0.15,-0.39,-0.29,3.12,3.12,3.12
109.64,3.27,0.18,3.27,0.18,-0.18,-0.43,-0.32,3.09,3.09,3.09
110.74,3.27,0.21,3.27,0.21,-0.21,-0.46,-0.34,3.06,3.06,3.06
111.85,3.27,0.25,3.27,0.25,-0.25,-0.50,-0.37,3.02,3.02,3.02
112.97,3.27,0.28,3.27,0.28,-0.29,-0.54,-0.39,2.98,2.98,2.99
114.10,3.27,0.32,3.27,0.32,-0.32,-0.58,-0.41,2.95,2.95,2.95
115.24,3.27,0.36,3.27,0.36,-0.36,-0.62,-0.44,2.91,2.91,2.91
116.39,3.27,0.40,3.27,0.40,-0.39,-0.65,-0.46,2.88,2.88,2.87
117.55,3.27,0.43,3.27,0.43,-0.43,-0.69,-0.48,2.84,2.84,2.84
118.73,3.27,0.47,3.27,0.46,-0.46,-0.72,-0.50,2.81,2.81,2.80
119.92,3.27,0.49,3.27,0.49,-0.49,-0.76,-0.52,2.78,2.78,2.78
121.12,3.27,0.52,3.27,0.52,-0.52,-0.79,-0.54,2.75,2.75,2.75
122.33,3.27,0.55,3.27,0.55,-0.55,-0.82,-0.56,2.72,2.72,2.72
123.55,3.27,0.57,3.27,0.58,-0.59,-0.85,-0.57,2.68,2.68,2.70
124.79,3.27,0.61,3.27,0.61,-0.62,-0.88,-0.59,2.65,2.65,2.66
126.03,3.28,0.65,3.28,0.65,-0.65,-0.92,-0.61,2.63,2.63,2.63
127.29,3.29,0.69,3.29,0.69,-0.68,-0.94,-0.62,2.61,2.60,2.60
128.57,3.29,0.73,3.29,0.72,-0.71,-0.97,-0.64,2.58,2.57,2.56
129.85,3.28,0.75,3.28,0.75,-0.74,-1.00,-0.65,2.54,2.54,2.53
131.15,3.26,0.77,3.27,0.77,-0.76,-1.03,-0.66,2.50,2.50,2.49
132.46,3.25,0.79,3.24,0.78,-0.78,-1.05,-0.67,2.47,2.46,2.46
133.79,3.22,0.79,3.22,0.79,-0.79,-1.08,-0.69,2.43,2.43,2.43
135.12,3.19,0.79,3.19,0.79,-0.80,-1.10,-0.70,2.39,2.40,2.40
136.48,3.17,0.80,3.16,0.79,-0.80,-1.13,-0.71,2.37,2.37,2.37
137.84,3.13,0.79,3.13,0.79,-0.79,-1.15,-0.72,2.34,2.34,2.34
139.22,3.10,0.80,3.10,0.79,-0.79,-1.17,-0.73,2.31,2.31,2.30
140.61,3.07,0.79,3.06,0.79,-0.78,-1.19,-0.74,2.29,2.28,2.28
142.02,3.02,0.77,3.03,0.78,-0.77,-1.21,-0.75,2.25,2.25,2.25
143.44,3.00,0.77,2.99,0.77,-0.77,-1.23,-0.76,2.23,2.22,2.23
144.87,2.96,0.75,2.97,0.76,-0.77,-1.25,-0.76,2.19,2.20,2.21
146.32,2.95,0.77,2.95,0.77,-0.78,-1.26,-0.77,2.17,2.17,2.18
147.78,2.93,0.77,2.93,0.78,-0.79,-1.28,-0.78,2.14,2.14,2.16
149.26,2.92,0.79,2.92,0.79,-0.80,-1.29,-0.79,2.12,2.12,2.13
150.75,2.92,0.82,2.92,0.82,-0.82,-1.31,-0.80,2.10,2.10,2.10
152.26,2.93,0.85,2.93,0.85,-0.84,-1.32,-0.81,2.09,2.08,2.08
153.78,2.94,0.88,2.94,0.88,-0.87,-1.33,-0.83,2.07,2.06,2.06
155.32,2.94,0.91,2.94,0.91,-0.90,-1.34,-0.84,2.04,2.04,2.03
156.88,2.94,0.93,2.94,0.93,-0.93,-1.35,-0.85,2.01,2.01,2.01
158.44,2.94,0.96,2.94,0.96,-0.96,-1.36,-0.86,1.98,1.98,1.98
160.03,2.94,0.99,2.94,0.99,-0.99,-1.37,-0.87,1.95,1.95,1.95
161.63,2.94,1.02,2.94,1.02,-1.02,-1.38,-0.89,1.92,1.92,1.92
163.24,2.94,1.05,2.94,1.05,-1.06,-1.38,-0.90,1.88,1.88,1.89
164.88,2.94,1.08,2.94,1.08,-1.09,-1.39,-0.92,1.85,1.85,1.86
166.53,2.95,1.13,2.95,1.12,-1.12,-1.39,-0.94,1.83,1.83,1.82
168.19,2.96,1.16,2.96,1.16,-1.16,-1.40,-0.95,1.80,1.80,1.80
169.87,2.96,1.19,2.96,1.20,-1.19,-1.40,-0.97,1.77,1.77,1.77
171.57,2.96,1.23,2.96,1.23,-1.22,-1.40,-0.99,1.74,1.74,1.73
173.29,2.96,1.26,2.95,1.25,-1.25,-1.41,-1.01,1.71,1.70,1.70
175.02,2.94,1.27,2.94,1.27,-1.27,-1.41,-1.03,1.67,1.67,1.67
176.77,2.92,1.29,2.92,1.29,-1.29,-1.41,-1.05,1.63,1.64,1.63
178.54,2.90,1.30,2.90,1.30,-1.30,-1.41,-1.07,1.60,1.60,1.60
180.32,2.87,1.31,2.87,1.31,-1.30,-1.40,-1.10,1.57,1.57,1.56
182.13,2.84,1.31,2.84,1.31,-1.31,-1.40,-1.12,1.53,1.53,1.53
183.95,2.80,1.30,2.80,1.30,-1.31,-1.40,-1.14,1.49,1.49,1.50
185.79,2.76,1.30,2.77,1.30,-1.31,-1.40,-1.17,1.45,1.46,1.46
187.65,2.74,1.31,2.74,1.31,-1.31,-1.39,-1.20,1.43,1.43,1.43
189.52,2.71,1.31,2.71,1.31,-1.31,-1.39,-1.22,1.40,1.40,1.40
191.42,2.68,1.31,2.68,1.31,-1.31,-1.38,-1.25,1.37,1.37,1.37
193.33,2.65,1.31,2.65,1.31,-1.32,-1.38,-1.28,1.33,1.34,1.34
195.27,2.63,1.32,2.63,1.32,-1.33,-1.37,-1.31,1.30,1.30,1.31
197.22,2.61,1.34,2.61,1.34,-1.34,-1.36,-1.34,1.27,1.27,1.27
199.19,2.60,1.35,2.60,1.36,-1.36,-1.36,-1.37,1.24,1.24,1.25
201.18,2.59,1.38,2.59,1.37,-1.38,-1.35,-1.40,1.21,1.22,1.21
203.19,2.60,1.40,2.60,1.40,-1.40,-1.34,-1.43,1.20,1.20,1.20
205.23,2.61,1.43,2.61,1.43,-1.43,-1.33,-1.46,1.18,1.18,1.18
207.28,2.62,1.46,2.62,1.46,-1.45,-1.32,-1.49,1.17,1.16,1.16
209.35,2.62,1.49,2.62,1.48,-1.48,-1.31,-1.52,1.14,1.14,1.13
211.44,2.62,1.51,2.62,1.51,-1.50,-1.30,-1.55,1.12,1.12,1.11
213.56,2.62,1.52,2.62,1.53,-1.53,-1.29,-1.58,1.09,1.09,1.10
215.69,2.62,1.54,2.62,1.55,-1.55,-1.28,-1.61,1.07,1.07,1.08
217.85,2.62,1.57,2.62,1.57,-1.57,-1.27,-1.63,1.05,1.05,1.05
220.03,2.62,1.59,2.62,1.59,-1.59,-1.26,-1.66,1.03,1.03,1.03
222.23,2.62,1.61,2.62,1.61,-1.61,-1.24,-1.68,1.01,1.01,1.01
224.45,2.63,1.63,2.63,1.63,-1.63,-1.23,-1.71,1.00,1.00,1.00
226.70,2.63,1.65,2.63,1.65,-1.65,-1.22,-1.73,0.98,0.98,0.98
228.96,2.64,1.66,2.63,1.66,-1.66,-1.20,-1.75,0.98,0.97,0.98
231.25,2.63,1.67,2.63,1.67,-1.67,-1.19,-1.77,0.96,0.96,0.96
233.57,2.62,1.67,2.62,1.68,-1.67,-1.18,-1.78,0.95,0.95,0.95
235.90,2.61,1.67,2.61,1.67,-1.67,-1.16,-1.79,0.94,0.94,0.94
238.26,2.59,1.67,2.59,1.66,-1.65,-1.15,-1.80,0.94,0.93,0.92
240.64,2.56,1.63,2.57,1.64,-1.64,-1.13,-1.81,0.92,0.93,0.93
243.05,2.54,1.62,2.53,1.61,-1.61,-1.12,-1.81,0.93,0.92,0.92
245.48,2.50,1.59,2.50,1.59,-1.58,-1.10,-1.81,0.92,0.92,0.91
247.93,2.46,1.55,2.47,1.55,-1.55,-1.09,-1.81,0.91,0.91,0.91
250.41,2.44,1.52,2.43,1.51,-1.52,-1.07,-1.80,0.92,0.91,0.92
252.92,2.39,1.47,2.40,1.48,-1.49,-1.06,-1.80,0.90,0.91,0.92
255.45,2.37,1.45,2.37,1.45,-1.46,-1.04,-1.78,0.91,0.91,0.92
258.00,2.36,1.44,2.35,1.43,-1.44,-1.02,-1.77,0.92,0.91,0.92
260.58,2.33,1.41,2.34,1.42,-1.41,-1.01,-1.75,0.92,0.92,0.92
263.19,2.32,1.39,2.32,1.39,-1.39,-0.99,-1.73,0.93,0.92,0.93
265.82,2.30,1.38,2.30,1.38,-1.38,-0.97,-1.70,0.92,0.92,0.92
268.48,2.28,1.36,2.28,1.36,-1.36,-0.96,-1.67,0.92,0.92,0.92
271.16,2.27,1.34,2.26,1.34,-1.34,-0.94,-1.64,0.93,0.92,0.93
273.87,2.24,1.32,2.24,1.32,-1.32,-0.92,-1.61,0.92,0.92,0.92
276.61,2.22,1.29,2.22,1.30,-1.29,-0.90,-1.57,0.93,0.93,0.93
279.38,2.20,1.29,2.20,1.28,-1.26,-0.89,-1.54,0.94,0.93,0.91
282.17,2.17,1.25,2.17,1.24,-1.23,-0.87,-1.50,0.94,0.93,0.92
284.99,2.13,1.20,2.13,1.20,-1.20,-0.85,-1.46,0.93,0.94,0.93
287.84,2.09,1.15,2.09,1.16,-1.16,-0.83,-1.42,0.93,0.94,0.94
290.72,2.06,1.12,2.06,1.11,-1.12,-0.81,-1.37,0.94,0.94,0.94
293.63,2.03,1.08,2.03,1.08,-1.08,-0.79,-1.33,0.95,0.94,0.95
296.57,2.00,1.04,2.00,1.04,-1.05,-0.78,-1.28,0.95,0.95,0.96
299.53,1.98,1.02,1.98,1.01,-1.02,-0.76,-1.23,0.96,0.96,0.96
302.53,1.97,0.99,1.97,0.99,-1.00,-0.74,-1.19,0.97,0.96,0.98
305.55,1.96,0.98,1.96,0.98,-0.99,-0.72,-1.14,0.97,0.97,0.98
308.61,1.96,0.97,1.96,0.97,-0.98,-0.70,-1.09,0.98,0.99,0.99
311.69,1.97,0.97,1.97,0.97,-0.96,-0.68,-1.04,1.01,1.00,1.00
314.81,1.97,0.96,1.97,0.96,-0.95,-0.66,-0.99,1.02,1.02,1.01
317.96,1.96,0.94,1.96,0.95,-0.93,-0.64,-0.95,1.03,1.03,1.02
321.14,1.95,0.92,1.94,0.92,-0.91,-0.62,-0.90,1.04,1.04,1.03
324.35,1.92,0.89,1.92,0.88,-0.88,-0.60,-0.85,1.04,1.04,1.03
327.59,1.88,0.82,1.89,0.84,-0.84,-0.58,-0.80,1.04,1.05,1.06
330.87,1.86,0.81,1.86,0.80,-0.80,-0.56,-0.75,1.06,1.05,1.05
334.18,1.83,0.77,1.83,0.76,-0.76,-0.54,-0.70,1.07,1.06,1.06
337.52,1.79,0.72,1.79,0.72,-0.72,-0.52,-0.66,1.07,1.07,1.07
340.90,1.76,0.67,1.76,0.68,-0.68,-0.50,-0.61,1.08,1.08,1.09
344.30,1.73,0.63,1.73,0.64,-0.65,-0.48,-0.56,1.08,1.09,1.10
347.75,1.71,0.61,1.71,0.61,-0.61,-0.46,-0.51,1.10,1.10,1.10
351.23,1.69,0.59,1.69,0.58,-0.58,-0.44,-0.47,1.11,1.11,1.10
354.74,1.67,0.54,1.67,0.55,-0.55,-0.42,-0.42,1.12,1.12,1.13
358.28,1.65,0.52,1.65,0.53,-0.52,-0.40,-0.38,1.13,1.13,1.13
361.87,1.64,0.50,1.64,0.50,-0.50,-0.38,-0.33,1.14,1.14,1.14
365.49,1.62,0.48,1.62,0.47,-0.47,-0.36,-0.29,1.15,1.15,1.14
369.14,1.60,0.44,1.60,0.44,-0.44,-0.34,-0.24,1.16,1.16,1.16
372.83,1.59,0.42,1.58,0.41,-0.41,-0.31,-0.20,1.18,1.17,1.17
376.56,1.55,0.38,1.56,0.38,-0.38,-0.29,-0.15,1.17,1.18,1.17
380.33,1.53,0.35,1.53,0.35,-0.34,-0.27,-0.11,1.19,1.19,1.18
384.13,1.50,0.30,1.50,0.30,-0.30,-0.25,-0.07,1.20,1.20,1.20
387.97,1.46,0.25,1.46,0.26,-0.26,-0.22,-0.03,1.20,1.21,1.21
391.85,1.43,0.22,1.43,0.22,-0.22,-0.20,0.02,1.21,1.21,1.21
395.77,1.40,0.18,1.40,0.17,-0.18,-0.18,0.06,1.22,1.22,1.22
399.73,1.37,0.14,1.37,0.13,-0.14,-0.16,0.10,1.23,1.23,1.23
403.72,1.35,0.09,1.35,0.10,-0.11,-0.13,0.14,1.24,1.24,1.26
407.76,1.34,0.08,1.34,0.07,-0.08,-0.11,0.18,1.26,1.26,1.26
411.84,1.33,0.06,1.33,0.05,-0.06,-0.08,0.22,1.27,1.27,1.27
415.96,1.31,0.02,1.31,0.03,-0.03,-0.06,0.26,1.28,1.28,1.29
420.12,1.30,0.01,1.30,0.01,-0.01,-0.04,0.30,1.29,1.29,1.29
424.32,1.29,-0.01,1.29,-0.01,0.02,-0.01,0.34,1.31,1.31,1.30
428.56,1.28,-0.03,1.27,-0.04,0.04,0.01,0.38,1.32,1.32,1.31
432.85,1.25,-0.07,1.25,-0.07,0.07,0.04,0.41,1.32,1.32,1.32
437.18,1.22,-0.10,1.22,-0.11,0.10,0.06,0.45,1.32,1.32,1.32
441.55,1.19,-0.14,1.19,-0.14,0.14,0.09,0.49,1.33,1.33,1.33
445.96,1.16,-0.18,1.16,-0.18,0.18,0.12,0.52,1.34,1.34,1.34
450.42,1.13,-0.22,1.13,-0.22,0.22,0.14,0.55,1.35,1.35,1.35
454.93,1.11,-0.25,1.10,-0.26,0.26,0.17,0.59,1.37,1.37,1.36
459.48,1.07,-0.30,1.07,-0.30,0.31,0.20,0.62,1.38,1.38,1.37
464.07,1.03,-0.36,1.03,-0.35,0.36,0.23,0.65,1.39,1.39,1.39
468.71,0.99,-0.41,0.99,-0.41,0.41,0.26,0.68,1.40,1.39,1.40
473.40,0.94,-0.47,0.94,-0.46,0.45,0.28,0.71,1.39,1.40,1.41
478.13,0.91,-0.51,0.91,-0.51,0.50,0.31,0.73,1.41,1.41,1.42
482.91,0.87,-0.56,0.87,-0.55,0.55,0.34,0.76,1.42,1.42,1.43
487.74,0.85,-0.59,0.85,-0.59,0.59,0.37,0.79,1.44,1.44,1.44
492.62,0.82,-0.63,0.82,-0.63,0.63,0.40,0.81,1.45,1.45,1.45
497.55,0.79,-0.66,0.79,-0.67,0.67,0.44,0.83,1.46,1.46,1.45
502.52,0.76,-0.70,0.76,-0.71,0.71,0.47,0.85,1.47,1.47,1.46
507.55,0.73,-0.75,0.73,-0.75,0.75,0.50,0.87,1.48,1.48,1.48
512.62,0.71,-0.78,0.71,-0.79,0.78,0.53,0.89,1.49,1.49,1.49
517.75,0.69,-0.82,0.69,-0.82,0.81,0.57,0.91,1.50,1.50,1.51
522.93,0.68,-0.84,0.68,-0.84,0.84,0.60,0.92,1.52,1.52,1.52
528.16,0.67,-0.86,0.67,-0.86,0.86,0.63,0.94,1.53,1.53,1.53
533.44,0.66,-0.88,0.66,-0.88,0.89,0.67,0.95,1.55,1.55,1.54
538.77,0.64,-0.91,0.64,-0.91,0.92,0.70,0.97,1.56,1.56,1.55
544.16,0.63,-0.94,0.63,-0.94,0.95,0.74,0.98,1.58,1.58,1.57
549.60,0.61,-0.97,0.61,-0.98,0.98,0.78,0.99,1.59,1.59,1.58
555.10,0.59,-1.01,0.58,-1.01,1.01,0.82,1.00,1.60,1.60,1.60
560.65,0.55,-1.06,0.55,-1.05,1.05,0.85,1.01,1.60,1.61,1.61
566.25,0.52,-1.09,0.52,-1.09,1.09,0.89,1.03,1.61,1.61,1.61
