frequency,raw
20,-1.5716782705048955
21,-1.1107632190141
22,-0.714383581062285
23,-0.46902617065181007
24,-0.2525651503493441
25,0.1510793530808192
26,0.322714429326454
27,0.5212978784338606
28,0.7441015276400503
29,0.9437116715373101
30,1.0551953191020886
31,1.245435809468348
32,1.2454358094683484
33,1.4465852347557036
34,1.4465852347557036
35,1.4465852347557036
36,1.4465852347557033
37,1.446585234755703
38,1.5646670446390774
39,1.6735322349775696
40,1.7625514077359599
41,1.929612723098196
42,2.1613952858498444
43,2.371872591079017
44,2.42199415575573
45,2.5403741604597916
46,2.7041392598394864
47,2.9552059243569104
48,3.05578063695086
49,3.1563553496269967
50,3.403994322961991
51,3.458079488352639
52,3.6592289142519254
53,3.726391753185227
54,3.860378337740512
55,4.061527758535952
56,4.061527751696449
57,4.262868236423112
58,4.262677172621296
59,4.408467124775648
60,4.4638266631164765
61,4.564401448684768
62,4.664976242005502
63,4.664976281251907
64,4.7655509100073274
65,4.86612531626692
66,4.8661247116214215
67,4.963067361222129
68,4.966697575139759
69,5.067271706698732
70,5.067272255046667
71,5.1678495800775455
72,5.167855111898022
73,5.268438587789866
74,5.2684497282398235
75,5.295970461769985
76,5.369040879640617
77,5.369034049448211
78,5.369006278855746
79,5.443849210858685
80,5.469434961937484
81,5.469316404613615
82,5.56975936433755
83,5.569645938083336
84,5.569599275707163
85,5.569682423135016
86,5.569965941670425
87,5.570515471069882
88,5.671949063480114
89,5.738283884870665
90,5.775106247034286
91,5.776618509834366
92,5.777987414139339
93,5.77887571892004
94,5.77886260804182
95,5.77746954759516
96,5.774198686035001
97,5.76858035237046
98,5.760224456780915
99,5.748869580772681
100,5.764312068200044
101,5.817564307054134
102,5.867025438507392
104,5.875734615106446
105,5.851935160442891
106,5.827418017590931
107,5.803041996415124
108,5.779673641741848
109,5.758127028757423
110,5.739108615742522
111,5.723171577783575
112,5.710683106939477
113,5.701807099795087
114,5.696503479040684
115,5.694544088826148
117,5.69554365666054
118,5.699002787321275
119,5.704358525283659
120,5.711036951803756
121,5.718501835824395
123,5.72629373298811
124,5.734055195967179
125,5.741539819011869
126,5.74860538123249
128,5.755193905907721
129,5.761303496550433
130,5.766957904999828
131,5.7721796965736845
133,5.710321786347906
134,5.600474941454207
135,5.583992840300091
137,5.587260661480604
138,5.58990634221789
140,5.591896431011612
141,5.593235530370896
142,5.593974803600127
144,5.594212479236921
145,5.5940862590323
147,5.593758777355864
148,5.5933980637889
150,5.593155353537607
151,5.593142720322716
153,5.5934130250127945
154,5.593944670387417
156,5.509951535601045
157,5.494720436933786
159,5.394527516411014
160,5.367760411368031
162,5.292697921724809
164,5.18993494592433
165,5.18646264243974
167,5.18169113821674
169,5.175785847737781
170,5.169109677842188
172,5.162213441073682
174,5.155796757430601
175,5.150641149440891
177,5.147522181100121
179,5.147112048700394
181,5.149886960090509
183,5.156054141749839
184,5.165511055454743
186,5.177844643369482
188,5.172922983567744
190,5.036655403241536
192,5.023260386883074
194,5.038849129580729
196,5.052997904625188
198,5.034554852484735
200,4.9740753542506715
202,4.967900946171593
204,4.884816606027144
206,4.88684967594948
208,4.886893642674556
210,4.885352508512205
212,4.863730524813486
214,4.719622928681908
216,4.674196732486159
218,4.670414697853111
221,4.667113166224819
223,4.6116906266514395
225,4.563329439047309
227,4.491196105482793
229,4.4675895209676515
232,4.4742212224046245
234,4.4705395423253975
236,4.356582776293987
239,4.3119876463788245
241,4.330424616586249
244,4.336570048264127
246,4.27862217506847
248,4.290529405207032
251,4.274289304014188
253,4.2240565720617695
256,4.162859708669352
259,4.144419385508403
261,4.149223764948919
264,4.132979327420248
266,4.059032225238354
269,3.998313750722881
272,3.941280230595874
274,3.937932735721512
277,3.830547207363475
280,3.735087175852504
283,3.737990397928425
286,3.7437052210339545
288,3.701764315817327
291,3.6620094477541967
294,3.5734675508804155
297,3.5862137328586234
300,3.5077748644088675
303,3.474117930584935
306,3.4198661581737815
309,3.428359288279529
312,3.3686009510584167
316,3.300652033803978
319,3.2403945120522333
322,3.173135008783903
325,3.1400606988632904
328,3.1386224124015794
332,3.126357967392983
335,3.037677732523794
338,3.0002334233779147
342,2.929978210170706
345,2.9292598308954494
349,2.841004623965498
352,2.8103535757072797
356,2.7325014370544727
359,2.6779208573361686
363,2.6413105702582653
366,2.6477874793359386
370,2.655140697721047
374,2.612798471273953
377,2.4935532798731073
381,2.4772436835632843
385,2.456344643672768
389,2.3882597192979307
393,2.3915491604602837
397,2.3928565612611967
401,2.3250239491019276
405,2.2775693961924453
409,2.1856690578819826
413,2.18255645240346
417,2.180815807659226
421,2.116665987697723
425,2.0137961419598094
430,1.9985065899573469
434,1.9943753147168488
438,1.8836854833552876
443,1.8813012992158669
447,1.9262924354864341
451,1.9785457863532816
456,1.9895339887761985
460,1.9968798431755257
465,1.9749563415347096
470,2.019076995943707
474,2.0763971635248275
479,2.111438719351171
484,2.074992994750501
489,2.0351851720783007
494,1.9491678586587613
499,1.9745122211626
504,1.9976025135169493
509,1.8718331208657961
514,1.8258909276654676
519,1.8358141910119614
524,1.7563338299864235
529,1.7036568842536668
535,1.5992329801349037
540,1.5039089031027013
545,1.375675302201327
551,1.1807151968935772
556,1.0863445613662794
562,0.9818472621721521
568,0.8810310106436233
573,0.7853949261757128
579,0.6687822341459624
585,0.6250034725476608
591,0.613433066668077
596,0.6055346552005104
602,0.5550260977163619
608,0.5196649543089571
615,0.43558292768979046
621,0.4511243599215915
627,0.4814907103940541
633,0.5103606728134865
639,0.5435567355817603
646,0.5815283278482636
652,0.6280835265557261
659,0.6521896809834784
665,0.6218952006385983
672,0.6736839338631118
679,0.7238719987358604
686,0.7693604682652695
692,0.8071303972629555
699,0.7341123018736788
706,0.7498638665376127
713,0.7533654649448269
721,0.6651379005869575
728,0.6272167965534812
735,0.6026959333216343
742,0.5743815186317218
750,0.5383226450708225
757,0.42215006251516807
765,0.39560605720008635
773,0.37874141434341535
780,0.36790057793350367
788,0.36269396761862244
796,0.36210221675055965
804,0.364709419118741
812,0.368952617709639
820,0.3733501280368931
828,0.3766804322747631
837,0.37809529395928776
845,0.3771630844366705
853,0.37384911938820675
862,0.32954656857744424
871,0.2609104461425919
879,0.25303851295587243
888,0.24493657113509876
897,0.23723478506560203
906,0.23046576524938078
915,0.12447090733215077
924,0.12070561062639465
933,0.11881508789603606
943,0.11873520793619033
952,0.1603407673172992
962,0.22655577084908338
971,0.15541789182040405
981,0.14017379402517077
991,0.06726498381974431
1001,-0.007436486298363909
1011,-0.05008310636773808
1021,0.015443158097318777
1031,0.013024103016115868
1041,-0.1161870956992038
1052,-0.18445827494738928
1062,-0.2767357853594481
1073,-0.3807099486787121
1084,-0.3906878735403049
1094,-0.3912708051072904
1105,-0.4894868416686392
1116,-0.5002968167731788
1128,-0.5339988382413935
1139,-0.657790505219877
1150,-0.6683604646417
1162,-0.7242273030329777
1173,-0.8124733744400259
1185,-0.9590677676040017
1197,-1.0467991040813371
1209,-1.1762794187350312
1221,-1.2272330745607665
1233,-1.2964755020601324
1246,-1.316487825012698
1258,-1.3280238033961964
1271,-1.4427838641167512
1283,-1.6159439744677306
1296,-1.6687540225571893
1309,-1.6607714955605788
1322,-1.5992166686145795
1335,-1.58547664360405
1349,-1.5606576293578684
1362,-1.5834351417548618
1376,-1.6160971336942156
1390,-1.6154907557094114
1404,-1.5590288361493854
1418,-1.468285576745588
1432,-1.5191520480148575
1446,-1.4634640033327115
1461,-1.3519677864534851
1475,-1.2554880096360281
1490,-1.2382277674125248
1505,-1.1135163554664933
1520,-1.0431533032916196
1535,-1.0855993084339746
1550,-1.0665385900624829
1566,-1.0476489566224698
1582,-1.0114472734936646
1597,-0.8795873147218414
1613,-0.8890438689279687
1629,-0.7944215799952996
1646,-0.48882757249927966
1662,-0.4565656839192558
1679,-0.3924966826498286
1696,-0.2550466777552627
1713,-0.2413120118823402
1730,-0.15167476500135013
1747,0.07705838194797288
1764,0.27425671348900593
1782,0.4614033882138173
1800,0.7144005187844105
1818,0.8938560583749977
1836,1.0619056053731137
1854,1.3011286086861045
1873,1.5762917659912592
1892,1.8433665873337306
1911,2.080824275415594
1930,2.358113621232646
1949,2.627812835676602
1969,2.904025128600389
1988,3.133342180398352
2008,3.4558991725814243
2028,3.692264272011422
2048,4.024399326945946
2069,4.31092337305949
2090,4.432639125941436
2111,4.688817420130732
2132,5.024302095948271
2153,5.3315873875789075
2175,5.546835437756076
2196,5.766801912177299
2218,6.184499148488222
2240,6.39763764521808
2263,6.510267513442547
2285,6.729618880290735
2308,6.957905140308546
2331,7.272010688651018
2355,7.429342767666124
2378,7.367200249773348
2402,7.5463477074509955
2426,7.850452621031947
2450,8.210093599343779
2475,8.228120607162413
2500,8.36768874029682
2525,8.667375605908916
2550,8.948087468455771
2575,9.05568308942576
2601,9.076602645189741
2627,9.406082434622768
2653,9.763317256551801
2680,10.090147660565574
2707,10.328572017987831
2734,10.594256254195429
2761,10.759669736743888
2789,10.943139492521698
2817,11.314615176242384
2845,11.54802689804902
2873,11.532849939983269
2902,11.667930217744527
2931,11.660510039242268
2960,11.734331303876578
2990,11.724089130257642
3020,11.809256924958493
3050,12.063349569517687
3080,11.9361683905077
3111,12.001909579197466
3142,12.075200340054767
3174,12.017178090360453
3206,11.861253903904643
3238,11.435238370179125
3270,11.331503800088125
3303,11.383541793234684
3336,11.222867030411496
3369,10.78947051767922
3403,10.258626838818437
3437,9.997028734145275
3471,10.091974419092587
3506,10.126506307645979
3541,10.001514109441864
3576,9.706161507596818
3612,9.621875027471908
3648,9.564044081178377
3685,9.29445599972339
3721,8.824138334996888
3759,8.533853882109344
3796,8.396499760326268
3834,8.067040015126999
3873,7.782635872938092
3911,7.422446453860609
3950,7.309581630292471
3990,7.339822431882447
4030,7.410573044087255
4070,7.424680445705266
4111,7.297763427364834
4152,6.979041065993001
4193,6.975494770954948
4235,7.047707563184617
4278,6.975972676117803
4321,7.028305622679592
4364,7.190161979449207
4407,7.120289006037692
4451,6.991102489965088
4496,7.072024081669833
4541,7.074767396208743
4586,7.091845486425163
4632,7.196680282024132
4679,7.302529040616482
4725,7.464837683339373
4773,7.554095805710948
4820,7.751987800415784
4868,7.9338411701074785
4917,8.057586111896637
4966,8.212639357916085
5016,8.313005033937756
5066,8.298354292363701
5117,8.346955767061221
5168,8.452087746407251
5220,8.602675911057428
5272,8.77277976771165
5325,9.050889973554494
5378,9.464786883131481
5432,9.689256609185598
5486,9.99160625705456
5541,10.519868910021415
5596,10.89028453502823
5652,11.289783290102953
5709,11.77097524005912
5766,13.298359823345521
5823,13.86443625095072
5882,14.798541511111916
5940,15.854553344068554
6000,16.08944847325501
6060,16.441948308747083
6120,16.15283500450824
6182,16.124640400676633
6244,15.281585098801648
6306,14.37673208046904
6369,13.292271775561034
6433,12.153532105262759
6497,10.843857145293029
6562,9.681321554274337
6628,8.867778710649764
6694,7.987033933000976
6761,7.028737219953146
6828,6.009177758881042
6897,5.440918442133389
6966,4.778437296539873
7035,4.105250354084917
7106,3.6529695850331017
7177,3.324655871457158
7249,3.1570843491132194
7321,3.0408279568963863
7394,2.965132115528288
7468,2.978447954302786
7543,3.0323179553085087
7618,3.061009570012197
7694,3.204681431971081
7771,3.5032076323435426
7849,3.9161351262088635
7928,4.450314162826093
8007,4.896146539952745
8087,5.429883348126427
8168,5.719471028001117
8250,5.4153976834382105
8332,4.459534312997196
8415,2.4996072266399176
8499,0.8040494107771821
8584,-0.962076904256457
8670,-1.5477451092542331
8757,-2.2981281942326923
8845,-2.3620407737097597
8933,-2.648013282557576
9022,-2.7498766849734757
9113,-1.587153856443412
9204,-0.7433559136448693
9296,0.7487319789159885
9389,2.3381209991197327
9483,3.4839613373989566
9577,3.7953482510807017
9673,2.9852200093576355
9770,2.463290296217801
9868,2.2450695434770704
9966,2.203186462319872
10066,1.841116060112041
10167,0.4924927274893829
10268,-0.06459720808378311
10371,-1.0965963693738798
10475,-3.171757331736565
10579,-4.741655279246903
10685,-6.1687484375567525
10792,-5.923046170313959
10900,-5.735497380599792
11009,-5.87725115125977
11119,-5.322451341417976
11230,-4.711289029805718
11343,-3.8525171107905525
11456,-3.071319658946541
11571,-2.122903929638058
11686,-1.3140939921590853
11803,-1.4830849335112983
11921,-2.7387583511287197
12040,-3.898632428985069
12161,-4.510063799248194
12282,-4.832004974282272
12405,-4.821811297745361
12529,-5.623364095734887
12655,-6.1082512179408965
12781,-5.138000712257888
12909,-4.3661583071614665
13038,-3.700256985557635
13168,-6.590061617872628
13300,-8.589897559632
13433,-8.82093474497471
13567,-9.662463888286407
13703,-9.813911883667817
13840,-10.098409242332195
13978,-9.18860721210054
14118,-9.101491291958862
14259,-8.700860592433223
14402,-8.698243810988783
14546,-8.45550175772517
14692,-8.200044022033126
14838,-8.395473818173883
14987,-7.67618929405954
15137,-5.8448477569527295
15288,-5.497583436116075
15441,-6.041830253087215
15595,-6.663295062613558
15751,-6.604577312089128
15909,-6.299661424549859
16068,-6.065661943105257
16229,-5.882325329182828
16391,-5.71039816202341
16555,-5.7297521648676
16720,-5.078960279218575
16888,-4.279809909736581
17056,-2.845947400240239
17227,-1.0942038429880876
17399,-0.026864863397580763
17573,1.398995424708981
17749,3.2058852605252444
17926,4.67928142600833
18106,5.511713098133618
18287,6.232128763395307
18470,7.037150895012634
18654,7.434865409421663
18841,7.193030983734077
19029,6.31612610269845
19220,5.6330351725618995
19412,4.90655272948882
19606,4.267424890071118
19802,4.114765679049246
20000,3.85573625104747
