frequency,raw,error,smoothed,error_smoothed,equalization,parametric_eq,fixed_band_eq,equalized_raw,equalized_smoothed,target
20.00,4.33,-1.91,4.30,-1.94,1.82,1.40,0.19,6.15,6.12,6.24
20.20,4.51,-1.72,4.53,-1.70,1.65,1.38,0.20,6.16,6.18,6.23
20.40,4.70,-1.52,4.73,-1.49,1.51,1.36,0.20,6.21,6.24,6.22
20.61,4.88,-1.34,4.90,-1.32,1.38,1.34,0.21,6.25,6.28,6.22
20.81,5.06,-1.14,5.07,-1.14,1.27,1.31,0.22,6.33,6.33,6.20
21.02,5.23,-0.97,5.17,-1.03,1.17,1.29,0.23,6.40,6.34,6.20
21.23,5.19,-1.00,5.20,-0.99,1.10,1.27,0.24,6.29,6.30,6.19
21.44,5.15,-1.05,5.17,-1.03,1.04,1.25,0.24,6.19,6.20,6.20
21.66,5.11,-1.08,5.10,-1.08,1.03,1.23,0.25,6.14,6.13,6.19
21.87,5.07,-1.11,5.08,-1.10,1.03,1.20,0.26,6.10,6.10,6.18
22.09,5.06,-1.11,5.07,-1.10,1.03,1.18,0.27,6.09,6.10,6.17
22.31,5.09,-1.08,5.08,-1.08,1.04,1.16,0.28,6.13,6.12,6.17
22.54,5.12,-1.04,5.12,-1.04,1.04,1.14,0.29,6.16,6.16,6.16
22.76,5.15,-1.01,5.15,-1.00,1.04,1.11,0.30,6.19,6.19,6.16
22.99,5.18,-0.97,5.16,-0.98,1.03,1.09,0.31,6.21,6.19,6.15
23.22,5.15,-0.99,5.16,-0.99,1.02,1.07,0.32,6.17,6.18,6.13
23.45,5.13,-1.02,5.13,-1.01,1.03,1.04,0.33,6.16,6.16,6.14
23.69,5.10,-1.03,5.09,-1.04,1.04,1.02,0.34,6.14,6.13,6.13
23.92,5.07,-1.06,5.08,-1.06,1.05,0.99,0.35,6.12,6.13,6.13
24.16,5.07,-1.07,5.08,-1.06,1.05,0.97,0.36,6.12,6.13,6.14
24.40,5.10,-1.05,5.09,-1.06,1.04,0.94,0.38,6.14,6.13,6.15
24.65,5.12,-1.03,5.11,-1.04,1.01,0.92,0.39,6.13,6.12,6.15
24.89,5.14,-1.01,5.15,-1.00,0.96,0.90,0.40,6.10,6.11,6.15
25.14,5.21,-0.94,5.22,-0.93,0.89,0.87,0.41,6.10,6.11,6.15
25.39,5.32,-0.83,5.32,-0.83,0.82,0.84,0.42,6.14,6.14,6.15
25.65,5.43,-0.72,5.43,-0.72,0.74,0.82,0.43,6.17,6.17,6.15
25.91,5.54,-0.62,5.52,-0.64,0.67,0.79,0.44,6.21,6.19,6.16
26.16,5.59,-0.58,5.58,-0.58,0.61,0.77,0.45,6.20,6.19,6.17
26.43,5.61,-0.56,5.62,-0.54,0.57,0.74,0.46,6.18,6.20,6.17
26.69,5.64,-0.52,5.64,-0.52,0.56,0.71,0.47,6.19,6.20,6.16
26.96,5.66,-0.50,5.64,-0.52,0.55,0.69,0.48,6.21,6.20,6.16
27.23,5.63,-0.53,5.62,-0.54,0.55,0.66,0.49,6.18,6.18,6.16
27.50,5.58,-0.58,5.58,-0.59,0.56,0.63,0.50,6.13,6.13,6.16
27.77,5.54,-0.63,5.54,-0.62,0.55,0.61,0.50,6.09,6.09,6.17
28.05,5.52,-0.65,5.54,-0.62,0.55,0.58,0.51,6.07,6.09,6.17
28.33,5.59,-0.57,5.59,-0.57,0.55,0.55,0.52,6.14,6.14,6.16
28.62,5.66,-0.50,5.66,-0.50,0.54,0.52,0.52,6.20,6.20,6.16
28.90,5.74,-0.43,5.71,-0.45,0.53,0.50,0.52,6.27,6.25,6.16
29.19,5.73,-0.43,5.72,-0.44,0.51,0.47,0.52,6.24,6.23,6.16
29.48,5.69,-0.47,5.69,-0.48,0.47,0.44,0.52,6.16,6.16,6.16
29.78,5.65,-0.51,5.66,-0.51,0.43,0.41,0.52,6.08,6.09,6.16
30.08,5.65,-0.52,5.67,-0.49,0.40,0.38,0.52,6.04,6.07,6.17
30.38,5.75,-0.41,5.75,-0.41,0.37,0.36,0.51,6.11,6.12,6.16
30.68,5.85,-0.30,5.85,-0.30,0.34,0.33,0.51,6.19,6.19,6.15
30.99,5.96,-0.19,5.92,-0.22,0.30,0.30,0.50,6.26,6.22,6.14
31.30,5.94,-0.19,5.94,-0.20,0.26,0.27,0.49,6.20,6.19,6.13
31.61,5.91,-0.22,5.92,-0.21,0.21,0.24,0.48,6.12,6.13,6.13
31.93,5.89,-0.23,5.90,-0.22,0.16,0.21,0.46,6.05,6.06,6.12
32.24,5.92,-0.20,5.93,-0.18,0.13,0.18,0.45,6.05,6.05,6.12
32.57,5.98,-0.12,5.98,-0.13,0.11,0.15,0.43,6.08,6.08,6.10
32.89,6.04,-0.06,6.03,-0.07,0.10,0.12,0.41,6.14,6.12,6.10
33.22,6.06,-0.04,6.06,-0.04,0.09,0.09,0.39,6.15,6.15,6.10
33.55,6.06,-0.04,6.07,-0.03,0.09,0.06,0.37,6.15,6.16,6.10
33.89,6.06,-0.04,6.05,-0.04,0.08,0.03,0.35,6.14,6.14,6.10
34.23,6.03,-0.06,6.01,-0.08,0.08,0.00,0.32,6.11,6.09,6.09
34.57,5.97,-0.12,5.97,-0.12,0.07,-0.03,0.29,6.04,6.04,6.09
34.92,5.92,-0.17,5.95,-0.13,0.06,-0.06,0.27,5.98,6.01,6.09
35.27,5.98,-0.11,5.99,-0.10,0.04,-0.09,0.24,6.02,6.03,6.09
35.62,6.07,-0.01,6.06,-0.02,0.02,-0.12,0.21,6.09,6.08,6.08
35.97,6.15,0.07,6.13,0.05,-0.01,-0.15,0.18,6.14,6.11,6.08
36.33,6.16,0.10,6.16,0.10,-0.05,-0.18,0.14,6.11,6.11,6.06
36.70,6.16,0.11,6.17,0.12,-0.09,-0.21,0.11,6.07,6.08,6.05
37.06,6.16,0.12,6.16,0.13,-0.12,-0.24,0.08,6.04,6.04,6.03
37.43,6.16,0.15,6.16,0.15,-0.14,-0.27,0.04,6.02,6.02,6.01
37.81,6.16,0.16,6.16,0.16,-0.16,-0.30,0.01,6.00,5.99,6.00
38.19,6.15,0.18,6.14,0.17,-0.18,-0.33,-0.03,5.97,5.96,5.97
38.57,6.13,0.18,6.13,0.18,-0.21,-0.36,-0.07,5.92,5.92,5.95
38.95,6.11,0.19,6.13,0.21,-0.24,-0.39,-0.10,5.87,5.89,5.92
39.34,6.16,0.27,6.16,0.27,-0.28,-0.42,-0.14,5.88,5.88,5.89
39.74,6.22,0.34,6.21,0.34,-0.33,-0.45,-0.18,5.89,5.88,5.87
40.14,6.26,0.41,6.25,0.40,-0.37,-0.48,-0.22,5.89,5.88,5.85
40.54,6.26,0.43,6.26,0.44,-0.41,-0.52,-0.26,5.85,5.85,5.82
40.94,6.26,0.46,6.26,0.46,-0.45,-0.55,-0.30,5.81,5.81,5.80
41.35,6.26,0.48,6.26,0.48,-0.48,-0.58,-0.34,5.77,5.77,5.78
41.76,6.26,0.51,6.26,0.50,-0.51,-0.61,-0.38,5.75,5.75,5.75
42.18,6.26,0.53,6.26,0.53,-0.52,-0.64,-0.42,5.74,5.74,5.73
42.60,6.26,0.54,6.26,0.55,-0.53,-0.67,-0.46,5.73,5.73,5.72
43.03,6.26,0.57,6.24,0.55,-0.55,-0.70,-0.50,5.71,5.69,5.69
43.46,6.22,0.56,6.22,0.55,-0.57,-0.73,-0.55,5.65,5.65,5.66
43.90,6.19,0.54,6.21,0.57,-0.60,-0.76,-0.59,5.59,5.61,5.64
44.33,6.22,0.60,6.23,0.61,-0.64,-0.80,-0.63,5.58,5.59,5.62
44.78,6.28,0.69,6.27,0.67,-0.68,-0.83,-0.68,5.60,5.59,5.59
45.23,6.32,0.74,6.31,0.74,-0.73,-0.86,-0.72,5.59,5.59,5.58
45.68,6.34,0.80,6.34,0.80,-0.77,-0.89,-0.77,5.57,5.57,5.54
46.13,6.36,0.85,6.36,0.84,-0.82,-0.92,-0.81,5.54,5.53,5.51
46.60,6.36,0.88,6.36,0.88,-0.87,-0.95,-0.86,5.49,5.49,5.48
47.06,6.36,0.91,6.36,0.91,-0.92,-0.98,-0.90,5.44,5.44,5.45
47.53,6.36,0.94,6.36,0.95,-0.96,-1.02,-0.95,5.40,5.40,5.42
48.01,6.36,0.99,6.36,0.99,-1.00,-1.05,-1.00,5.36,5.36,5.37
48.49,6.36,1.03,6.36,1.03,-1.03,-1.08,-1.04,5.33,5.33,5.33
48.97,6.36,1.07,6.36,1.07,-1.07,-1.11,-1.09,5.29,5.29,5.29
49.46,6.36,1.10,6.36,1.11,-1.11,-1.14,-1.14,5.25,5.25,5.26
49.96,6.36,1.16,6.36,1.16,-1.15,-1.17,-1.18,5.21,5.21,5.20
50.46,6.36,1.20,6.36,1.19,-1.19,-1.20,-1.23,5.17,5.17,5.16
50.96,6.36,1.23,6.36,1.23,-1.23,-1.23,-1.28,5.13,5.13,5.13
51.47,6.36,1.26,6.36,1.27,-1.26,-1.27,-1.33,5.10,5.10,5.10
51.99,6.36,1.30,6.36,1.30,-1.30,-1.30,-1.38,5.06,5.06,5.06
52.51,6.36,1.34,6.36,1.33,-1.34,-1.33,-1.42,5.02,5.02,5.02
53.03,6.36,1.36,6.36,1.37,-1.38,-1.36,-1.47,4.98,4.98,5.00
53.56,6.36,1.41,6.36,1.41,-1.42,-1.39,-1.52,4.94,4.94,4.95
54.10,6.36,1.45,6.36,1.45,-1.46,-1.42,-1.56,4.90,4.90,4.91
54.64,6.36,1.49,6.36,1.49,-1.49,-1.45,-1.61,4.87,4.87,4.87
55.18,6.36,1.53,6.36,1.53,-1.51,-1.49,-1.65,4.85,4.85,4.83
55.74,6.36,1.57,6.36,1.57,-1.53,-1.52,-1.70,4.83,4.83,4.79
56.29,6.36,1.60,6.36,1.60,-1.56,-1.55,-1.74,4.80,4.80,4.76
56.86,6.36,1.62,6.33,1.60,-1.60,-1.58,-1.78,4.76,4.73,4.73
57.42,6.30,1.61,6.29,1.59,-1.64,-1.61,-1.82,4.66,4.65,4.69
58.00,6.22,1.55,6.27,1.60,-1.68,-1.64,-1.86,4.53,4.59,4.67
58.58,6.31,1.66,6.32,1.67,-1.73,-1.67,-1.90,4.58,4.59,4.65
59.16,6.40,1.78,6.41,1.79,-1.77,-1.71,-1.93,4.63,4.64,4.62
59.76,6.53,1.94,6.47,1.89,-1.82,-1.74,-1.96,4.71,4.66,4.59
60.35,6.50,1.96,6.47,1.93,-1.86,-1.77,-2.00,4.63,4.60,4.53
60.96,6.37,1.88,6.42,1.93,-1.92,-1.80,-2.02,4.45,4.51,4.49
61.57,6.36,1.92,6.37,1.93,-1.96,-1.83,-2.05,4.40,4.40,4.44
62.18,6.36,1.97,6.35,1.96,-2.00,-1.86,-2.08,4.35,4.34,4.39
62.80,6.36,2.03,6.36,2.02,-2.04,-1.90,-2.10,4.32,4.32,4.33
63.43,6.36,2.07,6.36,2.07,-2.07,-1.93,-2.12,4.29,4.29,4.29
64.07,6.36,2.11,6.36,2.11,-2.10,-1.96,-2.14,4.26,4.26,4.25
64.71,6.36,2.15,6.36,2.15,-2.14,-1.99,-2.16,4.22,4.22,4.20
65.35,6.36,2.19,6.36,2.19,-2.19,-2.02,-2.18,4.17,4.17,4.17
66.01,6.36,2.24,6.36,2.24,-2.24,-2.05,-2.19,4.12,4.12,4.12
66.67,6.36,2.27,6.36,2.28,-2.29,-2.09,-2.21,4.07,4.07,4.09
67.33,6.36,2.33,6.36,2.32,-2.33,-2.12,-2.22,4.02,4.02,4.03
68.01,6.36,2.37,6.36,2.37,-2.38,-2.15,-2.23,3.98,3.97,3.99
68.69,6.36,2.42,6.36,2.42,-2.43,-2.18,-2.24,3.93,3.93,3.94
69.37,6.37,2.46,6.38,2.48,-2.47,-2.21,-2.25,3.90,3.91,3.91
70.07,6.38,2.53,6.40,2.54,-2.51,-2.25,-2.25,3.87,3.89,3.85
70.77,6.43,2.62,6.38,2.57,-2.54,-2.28,-2.26,3.89,3.84,3.81
71.48,6.36,2.59,6.35,2.59,-2.57,-2.31,-2.27,3.79,3.77,3.76
72.19,6.26,2.55,6.30,2.59,-2.61,-2.34,-2.27,3.65,3.69,3.71
72.91,6.26,2.60,6.26,2.59,-2.64,-2.38,-2.28,3.62,3.62,3.66
73.64,6.26,2.64,6.25,2.63,-2.67,-2.41,-2.29,3.59,3.58,3.62
74.38,6.26,2.68,6.26,2.69,-2.69,-2.44,-2.30,3.57,3.57,3.58
75.12,6.26,2.73,6.26,2.73,-2.71,-2.47,-2.30,3.55,3.56,3.53
75.87,6.26,2.76,6.26,2.77,-2.73,-2.51,-2.31,3.53,3.53,3.50
76.63,6.26,2.80,6.25,2.79,-2.76,-2.54,-2.32,3.50,3.49,3.46
77.40,6.22,2.79,6.19,2.77,-2.78,-2.57,-2.33,3.44,3.41,3.43
78.17,6.14,2.75,6.16,2.77,-2.80,-2.60,-2.35,3.34,3.36,3.38
78.95,6.08,2.72,6.15,2.79,-2.81,-2.64,-2.36,3.27,3.34,3.36
79.74,6.21,2.88,6.15,2.83,-2.82,-2.67,-2.37,3.39,3.33,3.33
80.54,6.18,2.89,6.15,2.86,-2.83,-2.70,-2.39,3.35,3.32,3.29
81.35,6.11,2.85,6.13,2.87,-2.84,-2.74,-2.41,3.27,3.29,3.26
82.16,6.06,2.83,6.08,2.85,-2.86,-2.77,-2.43,3.20,3.21,3.23
82.98,6.06,2.87,6.05,2.86,-2.89,-2.80,-2.45,3.17,3.16,3.19
83.81,6.06,2.90,6.05,2.90,-2.92,-2.83,-2.47,3.14,3.13,3.15
84.65,6.06,2.94,6.06,2.95,-2.96,-2.87,-2.50,3.10,3.10,3.12
85.50,6.06,2.99,6.06,2.98,-2.99,-2.90,-2.52,3.07,3.07,3.07
86.35,6.06,3.02,6.05,3.02,-3.03,-2.93,-2.55,3.03,3.03,3.04
87.22,6.06,3.05,6.08,3.08,-3.06,-2.97,-2.58,3.00,3.02,3.00
88.09,6.08,3.12,6.09,3.13,-3.09,-3.00,-2.62,2.99,3.00,2.96
88.97,6.14,3.21,6.08,3.15,-3.12,-3.03,-2.65,3.02,2.96,2.93
89.86,6.03,3.15,6.04,3.16,-3.14,-3.06,-2.69,2.89,2.90,2.88
90.76,5.97,3.12,6.00,3.16,-3.17,-3.10,-2.73,2.80,2.83,2.84
91.66,5.96,3.17,5.95,3.16,-3.20,-3.13,-2.77,2.76,2.76,2.79
92.58,5.96,3.20,5.95,3.20,-3.24,-3.16,-2.81,2.72,2.72,2.76
93.51,5.96,3.25,5.96,3.25,-3.28,-3.19,-2.85,2.68,2.68,2.71
94.44,5.96,3.29,5.96,3.29,-3.31,-3.22,-2.90,2.65,2.64,2.67
95.39,5.96,3.35,5.97,3.36,-3.35,-3.25,-2.95,2.61,2.62,2.61
96.34,5.97,3.41,5.99,3.43,-3.37,-3.29,-3.00,2.60,2.61,2.55
97.30,5.99,3.49,5.97,3.47,-3.40,-3.32,-3.05,2.59,2.57,2.50
98.28,5.95,3.51,5.90,3.46,-3.42,-3.35,-3.11,2.53,2.48,2.44
99.26,5.77,3.40,5.80,3.42,-3.44,-3.38,-3.16,2.33,2.36,2.37
100.25,5.67,3.35,5.71,3.39,-3.46,-3.41,-3.22,2.21,2.25,2.32
101.25,5.68,3.41,5.66,3.40,-3.47,-3.44,-3.27,2.21,2.19,2.27
102.27,5.68,3.47,5.67,3.46,-3.48,-3.47,-3.33,2.20,2.18,2.21
103.29,5.67,3.52,5.68,3.52,-3.49,-3.50,-3.39,2.17,2.19,2.15
104.32,5.67,3.56,5.67,3.57,-3.51,-3.53,-3.45,2.16,2.16,2.11
105.37,5.66,3.61,5.63,3.58,-3.54,-3.56,-3.51,2.12,2.09,2.05
106.42,5.56,3.57,5.57,3.58,-3.57,-3.58,-3.56,1.99,1.99,1.99
107.48,5.48,3.56,5.50,3.57,-3.60,-3.61,-3.62,1.88,1.90,1.92
108.56,5.45,3.56,5.45,3.57,-3.62,-3.64,-3.68,1.83,1.83,1.88
109.64,5.43,3.60,5.43,3.61,-3.62,-3.67,-3.74,1.81,1.81,1.83
110.74,5.42,3.65,5.43,3.66,-3.62,-3.69,-3.79,1.79,1.80,1.77
111.85,5.43,3.71,5.41,3.68,-3.63,-3.72,-3.85,1.80,1.78,1.72
112.97,5.36,3.68,5.35,3.67,-3.64,-3.74,-3.90,1.72,1.71,1.68
114.10,5.27,3.64,5.27,3.65,-3.66,-3.77,-3.95,1.61,1.61,1.63
115.24,5.18,3.61,5.20,3.63,-3.68,-3.79,-3.99,1.50,1.52,1.57
116.39,5.17,3.65,5.17,3.65,-3.70,-3.82,-4.04,1.47,1.47,1.52
117.55,5.18,3.70,5.17,3.69,-3.72,-3.84,-4.07,1.46,1.44,1.48
118.73,5.19,3.76,5.19,3.76,-3.75,-3.86,-4.11,1.44,1.44,1.43
119.92,5.19,3.80,5.21,3.81,-3.78,-3.88,-4.14,1.41,1.43,1.39
121.12,5.23,3.86,5.20,3.84,-3.81,-3.91,-4.17,1.42,1.39,1.37
122.33,5.19,3.87,5.18,3.85,-3.84,-3.93,-4.19,1.35,1.34,1.32
123.55,5.14,3.85,5.16,3.87,-3.86,-3.95,-4.21,1.27,1.30,1.29
124.79,5.12,3.86,5.13,3.87,-3.88,-3.96,-4.23,1.24,1.25,1.26
126.03,5.13,3.91,5.11,3.89,-3.88,-3.98,-4.24,1.25,1.22,1.22
127.29,5.07,3.89,5.07,3.90,-3.89,-4.00,-4.24,1.18,1.19,1.18
128.57,5.03,3.89,5.02,3.89,-3.90,-4.02,-4.24,1.13,1.13,1.13
129.85,4.97,3.87,4.98,3.88,-3.91,-4.03,-4.24,1.06,1.07,1.10
131.15,4.95,3.89,4.96,3.90,-3.93,-4.05,-4.23,1.02,1.02,1.06
132.46,4.96,3.94,4.95,3.93,-3.95,-4.06,-4.22,1.00,1.00,1.02
133.79,4.96,3.98,4.97,3.98,-3.98,-4.08,-4.21,0.98,0.99,0.98
135.12,4.97,4.03,4.97,4.02,-4.00,-4.09,-4.19,0.97,0.97,0.94
136.48,4.98,4.06,4.96,4.05,-4.02,-4.11,-4.17,0.96,0.94,0.92
137.84,4.93,4.05,4.94,4.06,-4.04,-4.12,-4.14,0.89,0.90,0.88
139.22,4.89,4.06,4.90,4.06,-4.05,-4.13,-4.12,0.84,0.85,0.83
140.61,4.87,4.06,4.85,4.05,-4.06,-4.14,-4.09,0.81,0.79,0.80
142.02,4.79,4.03,4.81,4.05,-4.06,-4.15,-4.06,0.73,0.75,0.76
143.44,4.78,4.06,4.77,4.05,-4.06,-4.16,-4.03,0.72,0.71,0.72
144.87,4.75,4.06,4.73,4.04,-4.07,-4.16,-3.99,0.68,0.67,0.69
146.32,4.70,4.04,4.71,4.05,-4.06,-4.17,-3.96,0.63,0.64,0.66
147.78,4.67,4.05,4.69,4.07,-4.06,-4.18,-3.93,0.61,0.63,0.62
149.26,4.67,4.09,4.68,4.10,-4.06,-4.18,-3.90,0.61,0.62,0.58
150.75,4.68,4.14,4.64,4.10,-4.06,-4.19,-3.86,0.62,0.58,0.53
152.26,4.59,4.08,4.58,4.08,-4.07,-4.19,-3.83,0.52,0.51,0.51
153.78,4.48,4.01,4.52,4.05,-4.08,-4.19,-3.80,0.40,0.44,0.47
155.32,4.47,4.03,4.47,4.03,-4.09,-4.20,-3.77,0.38,0.38,0.44
156.88,4.47,4.08,4.46,4.07,-4.11,-4.20,-3.75,0.36,0.35,0.39
158.44,4.47,4.12,4.48,4.13,-4.12,-4.20,-3.72,0.35,0.36,0.35
160.03,4.48,4.17,4.48,4.17,-4.14,-4.20,-3.70,0.34,0.34,0.31
161.63,4.47,4.20,4.46,4.19,-4.15,-4.20,-3.68,0.31,0.30,0.27
163.24,4.41,4.19,4.41,4.19,-4.17,-4.20,-3.66,0.24,0.24,0.21
164.88,4.35,4.17,4.35,4.18,-4.18,-4.19,-3.64,0.16,0.16,0.17
166.53,4.28,4.15,4.30,4.17,-4.19,-4.19,-3.62,0.09,0.12,0.13
168.19,4.26,4.17,4.26,4.18,-4.17,-4.19,-3.61,0.08,0.09,0.09
169.87,4.25,4.21,4.21,4.17,-4.16,-4.18,-3.60,0.09,0.05,0.04
171.57,4.15,4.16,4.15,4.16,-4.15,-4.18,-3.60,0.00,0.01,-0.01
173.29,4.06,4.11,4.09,4.14,-4.14,-4.17,-3.59,-0.08,-0.05,-0.05
175.02,4.03,4.12,4.02,4.11,-4.14,-4.17,-3.59,-0.11,-0.12,-0.09
176.77,3.99,4.12,3.98,4.11,-4.14,-4.16,-3.59,-0.15,-0.17,-0.13
178.54,3.93,4.11,3.95,4.12,-4.14,-4.15,-3.60,-0.21,-0.20,-0.18
180.32,3.93,4.15,3.93,4.15,-4.15,-4.14,-3.61,-0.22,-0.21,-0.22
182.13,3.93,4.18,3.93,4.19,-4.16,-4.13,-3.62,-0.23,-0.23,-0.25
183.95,3.94,4.22,3.91,4.20,-4.17,-4.12,-3.63,-0.23,-0.26,-0.28
185.79,3.88,4.20,3.87,4.19,-4.18,-4.11,-3.65,-0.30,-0.32,-0.33
187.65,3.79,4.15,3.82,4.18,-4.19,-4.10,-3.66,-0.40,-0.37,-0.36
189.52,3.78,4.17,3.79,4.18,-4.20,-4.09,-3.68,-0.42,-0.41,-0.40
191.42,3.79,4.20,3.78,4.20,-4.21,-4.08,-3.71,-0.42,-0.42,-0.41
193.33,3.80,4.25,3.76,4.22,-4.21,-4.06,-3.73,-0.41,-0.45,-0.45
195.27,3.71,4.20,3.72,4.21,-4.21,-4.05,-3.76,-0.50,-0.49,-0.49
197.22,3.65,4.18,3.68,4.21,-4.21,-4.03,-3.79,-0.56,-0.53,-0.53
199.19,3.65,4.20,3.65,4.21,-4.21,-4.02,-3.82,-0.56,-0.56,-0.56
201.18,3.65,4.24,3.63,4.22,-4.21,-4.00,-3.85,-0.56,-0.58,-0.59
203.19,3.60,4.22,3.59,4.21,-4.20,-3.99,-3.89,-0.60,-0.61,-0.62
205.23,3.54,4.18,3.54,4.18,-4.20,-3.97,-3.92,-0.66,-0.66,-0.64
207.28,3.48,4.15,3.50,4.17,-4.19,-3.95,-3.96,-0.71,-0.69,-0.67
209.35,3.46,4.16,3.47,4.17,-4.18,-3.93,-4.00,-0.72,-0.71,-0.70
211.44,3.46,4.19,3.44,4.18,-4.16,-3.92,-4.03,-0.70,-0.72,-0.74
213.56,3.41,4.17,3.41,4.17,-4.14,-3.90,-4.07,-0.74,-0.74,-0.76
215.69,3.36,4.15,3.35,4.14,-4.12,-3.88,-4.11,-0.77,-0.77,-0.79
217.85,3.27,4.08,3.28,4.10,-4.10,-3.86,-4.14,-0.83,-0.83,-0.81
220.03,3.21,4.06,3.22,4.07,-4.08,-3.84,-4.17,-0.87,-0.86,-0.86
222.23,3.16,4.04,3.16,4.04,-4.05,-3.82,-4.21,-0.89,-0.89,-0.88
224.45,3.14,4.04,3.13,4.03,-4.02,-3.79,-4.24,-0.88,-0.90,-0.90
226.70,3.08,4.00,3.08,3.99,-3.99,-3.77,-4.26,-0.91,-0.91,-0.92
228.96,3.04,3.97,3.03,3.96,-3.96,-3.75,-4.29,-0.92,-0.93,-0.93
231.25,2.97,3.91,2.99,3.93,-3.93,-3.73,-4.31,-0.96,-0.94,-0.94
233.57,2.96,3.92,2.96,3.91,-3.91,-3.70,-4.32,-0.95,-0.95,-0.96
235.90,2.93,3.90,2.91,3.88,-3.88,-3.68,-4.33,-0.95,-0.97,-0.97
238.26,2.88,3.86,2.87,3.85,-3.86,-3.66,-4.34,-0.98,-0.98,-0.98
240.64,2.82,3.78,2.85,3.82,-3.83,-3.63,-4.34,-1.01,-0.98,-0.97
243.05,2.82,3.79,2.83,3.81,-3.80,-3.60,-4.34,-0.98,-0.97,-0.97
245.48,2.84,3.82,2.80,3.78,-3.77,-3.58,-4.33,-0.93,-0.97,-0.98
247.93,2.78,3.77,2.78,3.76,-3.74,-3.55,-4.32,-0.96,-0.96,-0.99
250.41,2.70,3.68,2.73,3.71,-3.71,-3.53,-4.29,-1.01,-0.97,-0.98
252.92,2.70,3.67,2.69,3.67,-3.67,-3.50,-4.27,-0.97,-0.99,-0.97
255.45,2.65,3.64,2.64,3.62,-3.64,-3.47,-4.23,-0.99,-1.00,-0.99
258.00,2.61,3.60,2.60,3.59,-3.60,-3.44,-4.20,-0.99,-1.00,-0.99
260.58,2.53,3.52,2.56,3.56,-3.56,-3.42,-4.15,-1.03,-0.99,-0.99
263.19,2.53,3.53,2.53,3.53,-3.52,-3.39,-4.10,-0.99,-0.99,-1.00
265.82,2.52,3.54,2.47,3.49,-3.48,-3.36,-4.05,-0.96,-1.00,-1.02
268.48,2.40,3.42,2.42,3.44,-3.44,-3.33,-3.99,-1.04,-1.02,-1.02
271.16,2.34,3.38,2.36,3.39,-3.40,-3.30,-3.92,-1.06,-1.05,-1.04
273.87,2.31,3.35,2.30,3.35,-3.36,-3.27,-3.86,-1.05,-1.06,-1.04
276.61,2.28,3.34,2.26,3.33,-3.32,-3.24,-3.78,-1.04,-1.06,-1.06
279.38,2.22,3.30,2.22,3.29,-3.28,-3.21,-3.71,-1.06,-1.06,-1.08
282.17,2.15,3.23,2.16,3.24,-3.24,-3.18,-3.63,-1.09,-1.07,-1.08
284.99,2.12,3.20,2.12,3.20,-3.20,-3.14,-3.55,-1.08,-1.08,-1.08
287.84,2.08,3.16,2.07,3.15,-3.16,-3.11,-3.46,-1.08,-1.09,-1.08
290.72,2.04,3.13,2.02,3.11,-3.12,-3.08,-3.38,-1.08,-1.10,-1.09
293.63,1.96,3.04,1.99,3.08,-3.08,-3.05,-3.29,-1.12,-1.09,-1.08
296.57,1.96,3.04,1.96,3.05,-3.04,-3.01,-3.20,-1.08,-1.07,-1.08
299.53,1.97,3.05,1.93,3.00,-3.00,-2.98,-3.11,-1.03,-1.08,-1.08
302.53,1.88,2.95,1.89,2.96,-2.96,-2.95,-3.02,-1.08,-1.08,-1.08
305.55,1.81,2.89,1.84,2.92,-2.93,-2.91,-2.93,-1.12,-1.09,-1.08
308.61,1.80,2.87,1.80,2.87,-2.89,-2.88,-2.84,-1.09,-1.09,-1.07
311.69,1.79,2.87,1.77,2.85,-2.84,-2.84,-2.75,-1.06,-1.08,-1.09
314.81,1.73,2.81,1.73,2.81,-2.80,-2.81,-2.65,-1.07,-1.07,-1.08
317.96,1.66,2.75,1.67,2.75,-2.75,-2.77,-2.56,-1.09,-1.09,-1.09
321.14,1.61,2.69,1.61,2.69,-2.70,-2.74,-2.47,-1.09,-1.09,-1.08
324.35,1.54,2.63,1.55,2.64,-2.64,-2.70,-2.39,-1.10,-1.09,-1.09
327.59,1.51,2.59,1.49,2.58,-2.56,-2.66,-2.30,-1.05,-1.07,-1.08
330.87,1.42,2.50,1.42,2.50,-2.47,-2.63,-2.21,-1.05,-1.05,-1.08
334.18,1.33,2.42,1.33,2.42,-2.38,-2.59,-2.12,-1.05,-1.04,-1.09
337.52,1.23,2.32,1.23,2.32,-2.29,-2.55,-2.04,-1.06,-1.05,-1.09
340.90,1.14,2.23,1.12,2.21,-2.21,-2.51,-1.96,-1.07,-1.09,-1.09
344.30,1.02,2.10,1.01,2.09,-2.15,-2.47,-1.87,-1.13,-1.14,-1.08
347.75,0.91,1.98,0.93,2.01,-2.11,-2.44,-1.79,-1.20,-1.18,-1.07
351.23,0.89,1.97,0.92,2.00,-2.08,-2.40,-1.71,-1.19,-1.16,-1.09
354.74,0.96,2.03,0.97,2.04,-2.07,-2.36,-1.63,-1.11,-1.10,-1.07
358.28,1.08,2.15,1.03,2.10,-2.06,-2.32,-1.56,-0.98,-1.03,-1.07
361.87,1.07,2.13,1.07,2.13,-2.05,-2.27,-1.48,-0.98,-0.98,-1.06
365.49,1.03,2.08,1.06,2.11,-2.03,-2.23,-1.41,-1.00,-0.97,-1.05
369.14,1.03,2.07,1.02,2.07,-2.00,-2.19,-1.33,-0.97,-0.98,-1.04
372.83,0.97,2.00,0.95,1.99,-1.96,-2.15,-1.26,-0.99,-1.01,-1.04
376.56,0.88,1.92,0.85,1.89,-1.91,-2.11,-1.19,-1.03,-1.06,-1.04
380.33,0.70,1.74,0.75,1.78,-1.84,-2.06,-1.12,-1.14,-1.10,-1.04
384.13,0.66,1.69,0.68,1.71,-1.78,-2.02,-1.05,-1.12,-1.10,-1.03
387.97,0.66,1.69,0.64,1.67,-1.72,-1.97,-0.98,-1.06,-1.08,-1.03
391.85,0.65,1.68,0.63,1.67,-1.67,-1.93,-0.91,-1.02,-1.04,-1.03
395.77,0.59,1.63,0.61,1.65,-1.62,-1.88,-0.85,-1.03,-1.01,-1.04
399.73,0.57,1.61,0.56,1.60,-1.57,-1.84,-0.78,-1.00,-1.01,-1.04
403.72,0.52,1.55,0.50,1.55,-1.51,-1.79,-0.72,-0.99,-1.01,-1.04
407.76,0.40,1.46,0.44,1.49,-1.45,-1.74,-0.66,-1.05,-1.01,-1.06
411.84,0.36,1.42,0.34,1.40,-1.37,-1.69,-0.60,-1.01,-1.02,-1.06
415.96,0.26,1.32,0.22,1.29,-1.29,-1.64,-0.54,-1.03,-1.06,-1.06
420.12,0.10,1.17,0.11,1.18,-1.20,-1.59,-0.48,-1.10,-1.09,-1.07
424.32,-0.02,1.04,0.02,1.07,-1.13,-1.54,-0.42,-1.15,-1.11,-1.06
428.56,-0.03,1.01,-0.03,1.01,-1.06,-1.49,-0.37,-1.09,-1.09,-1.04
432.85,-0.02,1.00,-0.04,0.98,-1.01,-1.44,-0.31,-1.03,-1.05,-1.02
437.18,-0.03,0.98,-0.04,0.97,-0.96,-1.38,-0.26,-0.99,-1.00,-1.01
441.55,-0.05,0.92,-0.03,0.95,-0.93,-1.33,-0.21,-0.98,-0.95,-0.97
445.96,-0.01,0.92,-0.02,0.92,-0.90,-1.27,-0.16,-0.91,-0.92,-0.93
450.42,0.01,0.90,0.00,0.90,-0.88,-1.22,-0.11,-0.87,-0.87,-0.90
454.93,0.01,0.86,0.03,0.87,-0.86,-1.16,-0.06,-0.85,-0.83,-0.85
459.48,0.06,0.85,0.04,0.82,-0.84,-1.10,-0.02,-0.78,-0.81,-0.79
464.07,0.05,0.77,0.06,0.78,-0.83,-1.04,0.03,-0.78,-0.77,-0.72
468.71,0.08,0.75,0.09,0.76,-0.81,-0.97,0.07,-0.73,-0.72,-0.67
473.40,0.14,0.75,0.14,0.75,-0.78,-0.91,0.11,-0.64,-0.64,-0.61
478.13,0.19,0.74,0.19,0.74,-0.72,-0.84,0.15,-0.54,-0.54,-0.55
482.91,0.22,0.72,0.19,0.69,-0.63,-0.78,0.19,-0.41,-0.44,-0.50
487.74,0.14,0.60,0.16,0.62,-0.50,-0.71,0.22,-0.36,-0.34,-0.46
492.62,0.04,0.46,0.05,0.47,-0.35,-0.64,0.25,-0.31,-0.30,-0.42
497.55,-0.08,0.30,-0.13,0.26,-0.18,-0.57,0.28,-0.26,-0.31,-0.38
502.52,-0.38,-0.02,-0.38,-0.02,-0.01,-0.49,0.31,-0.39,-0.38,-0.36
507.55,-0.62,-0.29,-0.63,-0.29,0.17,-0.42,0.34,-0.46,-0.46,-0.33
512.62,-0.88,-0.56,-0.81,-0.49,0.34,-0.34,0.37,-0.55,-0.48,-0.32
517.75,-0.90,-0.59,-0.89,-0.58,0.49,-0.26,0.39,-0.41,-0.40,-0.31
522.93,-0.87,-0.56,-0.91,-0.59,0.61,-0.18,0.42,-0.26,-0.30,-0.31
