frequency,raw,error,smoothed,error_smoothed,equalization,parametric_eq,fixed_band_eq,equalized_raw,equalized_smoothed,target
20.00,4.33,-1.91,4.56,-1.68,1.68,1.05,0.32,6.01,6.24,6.24
20.20,4.51,-1.72,4.65,-1.58,1.58,1.08,0.33,6.09,6.23,6.23
20.40,4.70,-1.52,4.73,-1.49,1.49,1.11,0.34,6.19,6.22,6.22
20.61,4.88,-1.34,4.81,-1.41,1.41,1.14,0.35,6.28,6.22,6.22
20.81,5.06,-1.14,4.88,-1.33,1.33,1.16,0.36,6.39,6.21,6.20
21.02,5.23,-0.97,4.94,-1.26,1.26,1.18,0.37,6.49,6.20,6.20
21.23,5.19,-1.00,5.00,-1.20,1.20,1.20,0.38,6.38,6.19,6.19
21.44,5.15,-1.05,5.05,-1.14,1.14,1.22,0.39,6.29,6.18,6.20
21.66,5.11,-1.08,5.09,-1.09,1.09,1.24,0.41,6.20,6.18,6.19
21.87,5.07,-1.11,5.12,-1.05,1.05,1.25,0.42,6.12,6.17,6.18
22.09,5.06,-1.11,5.15,-1.01,1.01,1.26,0.43,6.07,6.17,6.17
22.31,5.09,-1.08,5.18,-0.99,0.99,1.26,0.44,6.08,6.16,6.17
22.54,5.12,-1.04,5.16,-1.00,1.00,1.26,0.45,6.12,6.16,6.16
22.76,5.15,-1.01,5.13,-1.02,1.02,1.26,0.47,6.17,6.15,6.16
22.99,5.18,-0.97,5.11,-1.04,1.04,1.26,0.48,6.22,6.15,6.15
23.22,5.15,-0.99,5.08,-1.06,1.06,1.25,0.49,6.21,6.15,6.13
23.45,5.13,-1.02,5.08,-1.07,1.07,1.24,0.51,6.20,6.14,6.14
23.69,5.10,-1.03,5.09,-1.05,1.05,1.22,0.52,6.15,6.14,6.13
23.92,5.07,-1.06,5.11,-1.03,1.03,1.20,0.53,6.10,6.14,6.13
24.16,5.07,-1.07,5.14,-1.01,1.01,1.18,0.55,6.07,6.14,6.14
24.40,5.10,-1.05,5.17,-0.97,0.97,1.15,0.56,6.07,6.14,6.15
24.65,5.12,-1.03,5.21,-0.93,0.93,1.13,0.57,6.05,6.15,6.15
24.89,5.14,-1.01,5.25,-0.89,0.89,1.10,0.59,6.03,6.15,6.15
25.14,5.21,-0.94,5.30,-0.85,0.85,1.06,0.60,6.06,6.15,6.15
25.39,5.32,-0.83,5.34,-0.81,0.81,1.03,0.62,6.13,6.15,6.15
25.65,5.43,-0.72,5.38,-0.77,0.77,1.00,0.63,6.20,6.16,6.15
25.91,5.54,-0.62,5.43,-0.73,0.73,0.96,0.64,6.27,6.16,6.16
26.16,5.59,-0.58,5.47,-0.69,0.69,0.92,0.65,6.28,6.16,6.17
26.43,5.61,-0.56,5.51,-0.65,0.65,0.88,0.67,6.26,6.16,6.17
26.69,5.64,-0.52,5.56,-0.60,0.60,0.85,0.68,6.24,6.16,6.16
26.96,5.66,-0.50,5.59,-0.57,0.57,0.81,0.69,6.23,6.16,6.16
27.23,5.63,-0.53,5.61,-0.55,0.55,0.77,0.70,6.18,6.16,6.16
27.50,5.58,-0.58,5.63,-0.54,0.54,0.73,0.71,6.12,6.16,6.16
27.77,5.54,-0.63,5.63,-0.54,0.54,0.69,0.71,6.07,6.17,6.17
28.05,5.52,-0.65,5.63,-0.53,0.53,0.65,0.72,6.05,6.17,6.17
28.33,5.59,-0.57,5.64,-0.53,0.53,0.61,0.72,6.12,6.17,6.16
28.62,5.66,-0.50,5.65,-0.52,0.52,0.58,0.73,6.18,6.17,6.16
28.90,5.74,-0.43,5.66,-0.50,0.50,0.54,0.73,6.24,6.16,6.16
29.19,5.73,-0.43,5.68,-0.49,0.49,0.50,0.73,6.22,6.16,6.16
29.48,5.69,-0.47,5.70,-0.47,0.47,0.47,0.73,6.15,6.16,6.16
29.78,5.65,-0.51,5.72,-0.44,0.44,0.43,0.73,6.09,6.16,6.16
30.08,5.65,-0.52,5.75,-0.41,0.41,0.40,0.72,6.05,6.15,6.17
30.38,5.75,-0.41,5.78,-0.37,0.37,0.36,0.71,6.11,6.15,6.16
30.68,5.85,-0.30,5.82,-0.32,0.32,0.33,0.71,6.17,6.14,6.15
30.99,5.96,-0.19,5.86,-0.28,0.28,0.30,0.69,6.24,6.14,6.14
31.30,5.94,-0.19,5.89,-0.24,0.24,0.27,0.68,6.18,6.13,6.13
31.61,5.91,-0.22,5.92,-0.21,0.21,0.23,0.67,6.12,6.13,6.13
31.93,5.89,-0.23,5.93,-0.19,0.19,0.20,0.65,6.08,6.12,6.12
32.24,5.92,-0.20,5.95,-0.17,0.17,0.18,0.63,6.09,6.12,6.12
32.57,5.98,-0.12,5.97,-0.15,0.15,0.15,0.61,6.12,6.11,6.10
32.89,6.04,-0.06,5.99,-0.12,0.12,0.12,0.59,6.16,6.11,6.10
33.22,6.06,-0.04,6.00,-0.10,0.10,0.09,0.56,6.16,6.10,6.10
33.55,6.06,-0.04,6.01,-0.09,0.09,0.06,0.53,6.15,6.10,6.10
33.89,6.06,-0.04,6.02,-0.08,0.08,0.04,0.51,6.14,6.10,6.10
34.23,6.03,-0.06,6.03,-0.07,0.07,0.01,0.48,6.10,6.10,6.09
34.57,5.97,-0.12,6.04,-0.05,0.05,-0.01,0.44,6.02,6.09,6.09
34.92,5.92,-0.17,6.06,-0.03,0.03,-0.04,0.41,5.95,6.09,6.09
35.27,5.98,-0.11,6.07,-0.01,0.01,-0.06,0.38,5.99,6.08,6.09
35.62,6.07,-0.01,6.08,0.01,-0.01,-0.09,0.34,6.06,6.08,6.08
35.97,6.15,0.07,6.09,0.02,-0.02,-0.11,0.30,6.13,6.07,6.08
36.33,6.16,0.10,6.09,0.03,-0.03,-0.13,0.26,6.12,6.06,6.06
36.70,6.16,0.11,6.10,0.06,-0.06,-0.16,0.23,6.10,6.04,6.05
37.06,6.16,0.12,6.11,0.09,-0.09,-0.18,0.19,6.07,6.03,6.03
37.43,6.16,0.15,6.13,0.12,-0.12,-0.20,0.15,6.04,6.01,6.01
37.81,6.16,0.16,6.15,0.16,-0.16,-0.23,0.10,6.00,5.99,6.00
38.19,6.15,0.18,6.17,0.20,-0.20,-0.25,0.06,5.95,5.97,5.97
38.57,6.13,0.18,6.19,0.24,-0.24,-0.27,0.02,5.89,5.95,5.95
38.95,6.11,0.19,6.20,0.28,-0.28,-0.29,-0.02,5.83,5.93,5.92
39.34,6.16,0.27,6.21,0.31,-0.31,-0.31,-0.07,5.85,5.90,5.89
39.74,6.22,0.34,6.21,0.33,-0.33,-0.33,-0.11,5.88,5.88,5.87
40.14,6.26,0.41,6.21,0.36,-0.36,-0.35,-0.16,5.90,5.85,5.85
40.54,6.26,0.43,6.22,0.39,-0.39,-0.38,-0.20,5.87,5.83,5.82
40.94,6.26,0.46,6.22,0.42,-0.42,-0.40,-0.25,5.84,5.80,5.80
41.35,6.26,0.48,6.23,0.45,-0.45,-0.42,-0.29,5.81,5.78,5.78
41.76,6.26,0.51,6.24,0.48,-0.48,-0.44,-0.34,5.78,5.76,5.75
42.18,6.26,0.53,6.24,0.51,-0.51,-0.46,-0.39,5.75,5.73,5.73
42.60,6.26,0.54,6.25,0.54,-0.54,-0.48,-0.44,5.72,5.71,5.72
43.03,6.26,0.57,6.26,0.57,-0.57,-0.50,-0.48,5.69,5.69,5.69
43.46,6.22,0.56,6.27,0.60,-0.60,-0.52,-0.53,5.62,5.67,5.66
43.90,6.19,0.54,6.27,0.63,-0.63,-0.54,-0.58,5.56,5.64,5.64
44.33,6.22,0.60,6.28,0.66,-0.66,-0.56,-0.63,5.56,5.62,5.62
44.78,6.28,0.69,6.29,0.69,-0.69,-0.58,-0.68,5.59,5.59,5.59
45.23,6.32,0.74,6.30,0.73,-0.73,-0.61,-0.73,5.59,5.57,5.58
45.68,6.34,0.80,6.31,0.77,-0.77,-0.63,-0.78,5.57,5.54,5.54
46.13,6.36,0.85,6.32,0.81,-0.81,-0.65,-0.83,5.55,5.51,5.51
46.60,6.36,0.88,6.33,0.86,-0.86,-0.67,-0.88,5.50,5.47,5.48
47.06,6.36,0.91,6.34,0.90,-0.90,-0.69,-0.93,5.46,5.44,5.45
47.53,6.36,0.94,6.35,0.95,-0.95,-0.71,-0.98,5.41,5.40,5.42
48.01,6.36,0.99,6.36,0.99,-0.99,-0.73,-1.03,5.37,5.37,5.37
48.49,6.36,1.03,6.37,1.04,-1.04,-0.76,-1.09,5.32,5.33,5.33
48.97,6.36,1.07,6.37,1.08,-1.08,-0.78,-1.14,5.28,5.29,5.29
49.46,6.36,1.10,6.37,1.12,-1.12,-0.80,-1.19,5.24,5.25,5.26
49.96,6.36,1.16,6.36,1.15,-1.15,-0.82,-1.24,5.21,5.21,5.20
50.46,6.36,1.20,6.36,1.19,-1.19,-0.85,-1.30,5.17,5.17,5.16
50.96,6.36,1.23,6.36,1.23,-1.23,-0.87,-1.35,5.13,5.14,5.13
51.47,6.36,1.26,6.36,1.27,-1.27,-0.89,-1.40,5.09,5.10,5.10
51.99,6.36,1.30,6.37,1.31,-1.31,-0.92,-1.45,5.05,5.06,5.06
52.51,6.36,1.34,6.37,1.35,-1.35,-0.94,-1.51,5.01,5.02,5.02
53.03,6.36,1.36,6.36,1.38,-1.38,-0.96,-1.56,4.98,4.98,5.00
53.56,6.36,1.41,6.34,1.40,-1.40,-0.99,-1.61,4.96,4.94,4.95
54.10,6.36,1.45,6.34,1.43,-1.43,-1.01,-1.66,4.93,4.91,4.91
54.64,6.36,1.49,6.34,1.47,-1.47,-1.04,-1.71,4.89,4.87,4.87
55.18,6.36,1.53,6.35,1.51,-1.51,-1.06,-1.76,4.85,4.84,4.83
55.74,6.36,1.57,6.35,1.54,-1.54,-1.09,-1.80,4.82,4.81,4.79
56.29,6.36,1.60,6.35,1.58,-1.58,-1.11,-1.85,4.78,4.77,4.76
56.86,6.36,1.62,6.36,1.62,-1.62,-1.14,-1.90,4.74,4.74,4.73
57.42,6.30,1.61,6.36,1.66,-1.66,-1.16,-1.94,4.64,4.71,4.69
58.00,6.22,1.55,6.36,1.69,-1.69,-1.19,-1.98,4.52,4.67,4.67
58.58,6.31,1.66,6.37,1.73,-1.73,-1.22,-2.02,4.57,4.63,4.65
59.16,6.40,1.78,6.37,1.77,-1.77,-1.24,-2.06,4.63,4.60,4.62
59.76,6.53,1.94,6.37,1.82,-1.82,-1.27,-2.10,4.71,4.56,4.59
60.35,6.50,1.96,6.37,1.86,-1.86,-1.30,-2.13,4.64,4.52,4.53
60.96,6.37,1.88,6.38,1.90,-1.90,-1.33,-2.16,4.47,4.48,4.49
61.57,6.36,1.92,6.38,1.94,-1.94,-1.36,-2.19,4.42,4.44,4.44
62.18,6.36,1.97,6.38,1.98,-1.98,-1.39,-2.22,4.37,4.39,4.39
62.80,6.36,2.03,6.38,2.03,-2.03,-1.42,-2.24,4.33,4.35,4.33
63.43,6.36,2.07,6.38,2.07,-2.07,-1.45,-2.27,4.29,4.30,4.29
64.07,6.36,2.11,6.38,2.12,-2.12,-1.48,-2.29,4.24,4.26,4.25
64.71,6.36,2.15,6.38,2.17,-2.17,-1.51,-2.30,4.19,4.21,4.20
65.35,6.36,2.19,6.37,2.21,-2.21,-1.54,-2.32,4.15,4.17,4.17
66.01,6.36,2.24,6.36,2.24,-2.24,-1.57,-2.33,4.11,4.12,4.12
66.67,6.36,2.27,6.36,2.28,-2.28,-1.60,-2.35,4.08,4.08,4.09
67.33,6.36,2.33,6.36,2.33,-2.33,-1.63,-2.36,4.03,4.03,4.03
68.01,6.36,2.37,6.36,2.38,-2.38,-1.67,-2.37,3.98,3.99,3.99
68.69,6.36,2.42,6.36,2.42,-2.42,-1.70,-2.38,3.94,3.94,3.94
69.37,6.37,2.46,6.35,2.46,-2.46,-1.73,-2.38,3.91,3.90,3.91
70.07,6.38,2.53,6.35,2.50,-2.50,-1.77,-2.39,3.88,3.85,3.85
70.77,6.43,2.62,6.35,2.54,-2.54,-1.80,-2.40,3.89,3.80,3.81
71.48,6.36,2.59,6.33,2.57,-2.57,-1.84,-2.40,3.79,3.76,3.76
72.19,6.26,2.55,6.32,2.60,-2.60,-1.87,-2.41,3.66,3.71,3.71
72.91,6.26,2.60,6.30,2.64,-2.64,-1.91,-2.41,3.62,3.67,3.66
73.64,6.26,2.64,6.29,2.67,-2.67,-1.94,-2.42,3.59,3.62,3.62
74.38,6.26,2.68,6.27,2.69,-2.69,-1.98,-2.42,3.57,3.58,3.58
75.12,6.26,2.73,6.26,2.71,-2.71,-2.02,-2.43,3.54,3.54,3.53
75.87,6.26,2.76,6.24,2.73,-2.73,-2.06,-2.43,3.53,3.50,3.50
76.63,6.26,2.80,6.21,2.75,-2.75,-2.09,-2.44,3.51,3.46,3.46
77.40,6.22,2.79,6.19,2.77,-2.77,-2.13,-2.45,3.45,3.43,3.43
78.17,6.14,2.75,6.17,2.78,-2.78,-2.17,-2.46,3.36,3.39,3.38
78.95,6.08,2.72,6.15,2.80,-2.80,-2.21,-2.47,3.28,3.36,3.36
79.74,6.21,2.88,6.14,2.82,-2.82,-2.25,-2.49,3.39,3.32,3.33
80.54,6.18,2.89,6.13,2.84,-2.84,-2.29,-2.50,3.34,3.29,3.29
81.35,6.11,2.85,6.12,2.87,-2.87,-2.33,-2.52,3.24,3.25,3.26
82.16,6.06,2.83,6.11,2.89,-2.89,-2.37,-2.53,3.17,3.22,3.23
82.98,6.06,2.87,6.10,2.91,-2.91,-2.42,-2.55,3.15,3.19,3.19
83.81,6.06,2.90,6.08,2.93,-2.93,-2.46,-2.57,3.13,3.15,3.15
84.65,6.06,2.94,6.07,2.96,-2.96,-2.50,-2.60,3.10,3.11,3.12
85.50,6.06,2.99,6.06,2.99,-2.99,-2.54,-2.62,3.07,3.08,3.07
86.35,6.06,3.02,6.06,3.01,-3.01,-2.59,-2.65,3.05,3.04,3.04
87.22,6.06,3.05,6.05,3.04,-3.04,-2.63,-2.68,3.02,3.00,3.00
88.09,6.08,3.12,6.04,3.07,-3.07,-2.67,-2.71,3.01,2.96,2.96
88.97,6.14,3.21,6.03,3.11,-3.11,-2.72,-2.74,3.03,2.93,2.93
89.86,6.03,3.15,6.04,3.15,-3.15,-2.76,-2.78,2.88,2.88,2.88
90.76,5.97,3.12,6.03,3.19,-3.19,-2.81,-2.82,2.78,2.84,2.84
91.66,5.96,3.17,6.02,3.23,-3.23,-2.85,-2.86,2.73,2.80,2.79
92.58,5.96,3.20,6.00,3.25,-3.25,-2.90,-2.90,2.71,2.75,2.76
93.51,5.96,3.25,5.98,3.28,-3.28,-2.94,-2.94,2.68,2.70,2.71
94.44,5.96,3.29,5.96,3.30,-3.30,-2.99,-2.99,2.66,2.65,2.67
95.39,5.96,3.35,5.93,3.33,-3.33,-3.03,-3.04,2.63,2.60,2.61
96.34,5.97,3.41,5.91,3.36,-3.36,-3.08,-3.09,2.61,2.55,2.55
97.30,5.99,3.49,5.88,3.38,-3.38,-3.13,-3.14,2.60,2.50,2.50
98.28,5.95,3.51,5.85,3.41,-3.41,-3.17,-3.19,2.54,2.44,2.44
99.26,5.77,3.40,5.81,3.43,-3.43,-3.22,-3.25,2.34,2.38,2.37
100.25,5.67,3.35,5.78,3.46,-3.46,-3.26,-3.30,2.21,2.33,2.32
101.25,5.68,3.41,5.75,3.48,-3.48,-3.31,-3.36,2.20,2.27,2.27
102.27,5.68,3.47,5.71,3.50,-3.50,-3.36,-3.42,2.18,2.21,2.21
103.29,5.67,3.52,5.68,3.52,-3.52,-3.40,-3.47,2.15,2.16,2.15
104.32,5.67,3.56,5.64,3.54,-3.54,-3.45,-3.53,2.13,2.10,2.11
105.37,5.66,3.61,5.59,3.55,-3.55,-3.49,-3.59,2.11,2.04,2.05
106.42,5.56,3.57,5.55,3.56,-3.56,-3.54,-3.65,2.00,1.99,1.99
107.48,5.48,3.56,5.50,3.57,-3.57,-3.59,-3.71,1.91,1.93,1.92
108.56,5.45,3.56,5.46,3.58,-3.58,-3.63,-3.77,1.87,1.88,1.88
109.64,5.43,3.60,5.43,3.60,-3.60,-3.68,-3.82,1.83,1.83,1.83
110.74,5.42,3.65,5.40,3.63,-3.63,-3.72,-3.88,1.79,1.77,1.77
111.85,5.43,3.71,5.37,3.65,-3.65,-3.76,-3.93,1.78,1.72,1.72
112.97,5.36,3.68,5.33,3.66,-3.66,-3.81,-3.98,1.70,1.67,1.68
114.10,5.27,3.64,5.30,3.67,-3.67,-3.85,-4.03,1.59,1.62,1.63
115.24,5.18,3.61,5.27,3.69,-3.69,-3.89,-4.08,1.49,1.57,1.57
116.39,5.17,3.65,5.24,3.71,-3.71,-3.93,-4.12,1.45,1.53,1.52
117.55,5.18,3.70,5.22,3.74,-3.74,-3.97,-4.16,1.44,1.49,1.48
118.73,5.19,3.76,5.20,3.76,-3.76,-4.01,-4.20,1.43,1.44,1.43
119.92,5.19,3.80,5.18,3.78,-3.78,-4.05,-4.23,1.41,1.40,1.39
121.12,5.23,3.86,5.16,3.80,-3.80,-4.09,-4.26,1.43,1.36,1.37
122.33,5.19,3.87,5.13,3.81,-3.81,-4.13,-4.28,1.38,1.32,1.32
123.55,5.14,3.85,5.11,3.83,-3.83,-4.16,-4.30,1.31,1.28,1.29
124.79,5.12,3.86,5.10,3.85,-3.85,-4.20,-4.31,1.27,1.25,1.26
126.03,5.13,3.91,5.08,3.88,-3.88,-4.23,-4.32,1.25,1.21,1.22
127.29,5.07,3.89,5.07,3.90,-3.90,-4.26,-4.32,1.17,1.17,1.18
128.57,5.03,3.89,5.06,3.92,-3.92,-4.29,-4.32,1.11,1.13,1.13
129.85,4.97,3.87,5.04,3.94,-3.94,-4.32,-4.32,1.03,1.10,1.10
131.15,4.95,3.89,5.01,3.95,-3.95,-4.35,-4.31,1.00,1.06,1.06
132.46,4.96,3.94,4.99,3.97,-3.97,-4.38,-4.30,0.99,1.02,1.02
133.79,4.96,3.98,4.96,3.98,-3.98,-4.40,-4.28,0.98,0.99,0.98
135.12,4.97,4.03,4.93,3.99,-3.99,-4.42,-4.26,0.98,0.95,0.94
136.48,4.98,4.06,4.91,4.00,-4.00,-4.45,-4.24,0.98,0.91,0.92
137.84,4.93,4.05,4.90,4.02,-4.02,-4.46,-4.21,0.91,0.87,0.88
139.22,4.89,4.06,4.87,4.04,-4.04,-4.48,-4.18,0.85,0.84,0.83
140.61,4.87,4.06,4.85,4.05,-4.05,-4.50,-4.15,0.82,0.80,0.80
142.02,4.79,4.03,4.82,4.06,-4.06,-4.51,-4.12,0.73,0.76,0.76
143.44,4.78,4.06,4.79,4.06,-4.06,-4.53,-4.09,0.72,0.73,0.72
144.87,4.75,4.06,4.75,4.06,-4.06,-4.54,-4.05,0.69,0.69,0.69
146.32,4.70,4.04,4.72,4.06,-4.06,-4.55,-4.02,0.64,0.66,0.66
147.78,4.67,4.05,4.68,4.06,-4.06,-4.55,-3.98,0.60,0.62,0.62
149.26,4.67,4.09,4.65,4.07,-4.07,-4.56,-3.95,0.60,0.58,0.58
150.75,4.68,4.14,4.62,4.07,-4.07,-4.56,-3.92,0.61,0.54,0.53
152.26,4.59,4.08,4.58,4.08,-4.08,-4.56,-3.88,0.51,0.51,0.51
153.78,4.48,4.01,4.56,4.09,-4.09,-4.56,-3.85,0.39,0.47,0.47
155.32,4.47,4.03,4.53,4.11,-4.11,-4.56,-3.82,0.36,0.43,0.44
156.88,4.47,4.08,4.51,4.12,-4.12,-4.55,-3.79,0.35,0.39,0.39
158.44,4.47,4.12,4.48,4.13,-4.13,-4.54,-3.76,0.34,0.35,0.35
160.03,4.48,4.17,4.44,4.14,-4.14,-4.54,-3.74,0.34,0.30,0.31
161.63,4.47,4.20,4.41,4.14,-4.14,-4.52,-3.71,0.32,0.26,0.27
163.24,4.41,4.19,4.37,4.15,-4.15,-4.51,-3.69,0.26,0.22,0.21
164.88,4.35,4.17,4.32,4.15,-4.15,-4.50,-3.67,0.20,0.17,0.17
166.53,4.28,4.15,4.28,4.15,-4.15,-4.48,-3.66,0.13,0.13,0.13
168.19,4.26,4.17,4.24,4.16,-4.16,-4.46,-3.64,0.10,0.08,0.09
169.87,4.25,4.21,4.20,4.16,-4.16,-4.44,-3.63,0.08,0.04,0.04
171.57,4.15,4.16,4.16,4.17,-4.17,-4.42,-3.62,-0.02,-0.01,-0.01
173.29,4.06,4.11,4.11,4.16,-4.16,-4.40,-3.62,-0.10,-0.05,-0.05
175.02,4.03,4.12,4.07,4.16,-4.16,-4.37,-3.61,-0.13,-0.09,-0.09
176.77,3.99,4.12,4.03,4.16,-4.16,-4.34,-3.61,-0.17,-0.13,-0.13
178.54,3.93,4.11,3.98,4.16,-4.16,-4.32,-3.62,-0.23,-0.17,-0.18
180.32,3.93,4.15,3.94,4.16,-4.16,-4.29,-3.62,-0.23,-0.21,-0.22
182.13,3.93,4.18,3.91,4.16,-4.16,-4.25,-3.63,-0.23,-0.25,-0.25
183.95,3.94,4.22,3.88,4.17,-4.17,-4.22,-3.64,-0.23,-0.29,-0.28
185.79,3.88,4.20,3.86,4.18,-4.18,-4.19,-3.66,-0.30,-0.32,-0.33
187.65,3.79,4.15,3.83,4.18,-4.18,-4.15,-3.67,-0.40,-0.36,-0.36
189.52,3.78,4.17,3.80,4.19,-4.19,-4.12,-3.69,-0.41,-0.39,-0.40
191.42,3.79,4.20,3.77,4.20,-4.20,-4.08,-3.71,-0.41,-0.43,-0.41
193.33,3.80,4.25,3.75,4.21,-4.21,-4.04,-3.74,-0.41,-0.46,-0.45
195.27,3.71,4.20,3.72,4.21,-4.21,-4.00,-3.76,-0.50,-0.49,-0.49
197.22,3.65,4.18,3.69,4.21,-4.21,-3.96,-3.79,-0.56,-0.52,-0.53
199.19,3.65,4.20,3.66,4.21,-4.21,-3.92,-3.82,-0.56,-0.55,-0.56
201.18,3.65,4.24,3.62,4.21,-4.21,-3.88,-3.85,-0.56,-0.58,-0.59
203.19,3.60,4.22,3.58,4.20,-4.20,-3.83,-3.88,-0.60,-0.62,-0.62
205.23,3.54,4.18,3.54,4.19,-4.19,-3.79,-3.92,-0.65,-0.65,-0.64
207.28,3.48,4.15,3.51,4.19,-4.19,-3.75,-3.95,-0.71,-0.68,-0.67
209.35,3.46,4.16,3.47,4.18,-4.18,-3.70,-3.99,-0.72,-0.71,-0.70
211.44,3.46,4.19,3.42,4.16,-4.16,-3.66,-4.02,-0.70,-0.74,-0.74
213.56,3.41,4.17,3.37,4.14,-4.14,-3.61,-4.06,-0.73,-0.77,-0.76
215.69,3.36,4.15,3.33,4.12,-4.12,-3.57,-4.09,-0.76,-0.79,-0.79
217.85,3.27,4.08,3.28,4.10,-4.10,-3.52,-4.13,-0.83,-0.82,-0.81
220.03,3.21,4.06,3.23,4.07,-4.07,-3.47,-4.16,-0.87,-0.85,-0.86
222.23,3.16,4.04,3.18,4.05,-4.05,-3.43,-4.19,-0.89,-0.87,-0.88
224.45,3.14,4.04,3.13,4.02,-4.02,-3.38,-4.22,-0.88,-0.89,-0.90
226.70,3.08,4.00,3.09,4.00,-4.00,-3.33,-4.24,-0.92,-0.91,-0.92
228.96,3.04,3.97,3.05,3.97,-3.97,-3.28,-4.27,-0.93,-0.93,-0.93
231.25,2.97,3.91,3.00,3.95,-3.95,-3.24,-4.29,-0.98,-0.94,-0.94
233.57,2.96,3.92,2.96,3.92,-3.92,-3.19,-4.30,-0.96,-0.95,-0.96
235.90,2.93,3.90,2.92,3.88,-3.88,-3.14,-4.31,-0.96,-0.96,-0.97
238.26,2.88,3.86,2.89,3.85,-3.85,-3.10,-4.32,-0.97,-0.97,-0.98
240.64,2.82,3.78,2.85,3.83,-3.83,-3.05,-4.32,-1.01,-0.97,-0.97
243.05,2.82,3.79,2.82,3.80,-3.80,-3.00,-4.32,-0.98,-0.98,-0.97
245.48,2.84,3.82,2.79,3.77,-3.77,-2.95,-4.31,-0.93,-0.98,-0.98
247.93,2.78,3.77,2.75,3.74,-3.74,-2.91,-4.29,-0.96,-0.98,-0.99
250.41,2.70,3.68,2.72,3.70,-3.70,-2.86,-4.27,-1.00,-0.98,-0.98
252.92,2.70,3.67,2.68,3.67,-3.67,-2.81,-4.25,-0.97,-0.99,-0.97
255.45,2.65,3.64,2.64,3.63,-3.63,-2.77,-4.21,-0.99,-0.99,-0.99
258.00,2.61,3.60,2.60,3.60,-3.60,-2.72,-4.18,-0.99,-1.00,-0.99
260.58,2.53,3.52,2.56,3.56,-3.56,-2.67,-4.13,-1.03,-1.00,-0.99
263.19,2.53,3.53,2.51,3.52,-3.52,-2.63,-4.08,-0.99,-1.01,-1.00
265.82,2.52,3.54,2.47,3.48,-3.48,-2.58,-4.03,-0.97,-1.02,-1.02
268.48,2.40,3.42,2.41,3.44,-3.44,-2.54,-3.97,-1.04,-1.03,-1.02
271.16,2.34,3.38,2.36,3.40,-3.40,-2.49,-3.91,-1.06,-1.04,-1.04
273.87,2.31,3.35,2.31,3.36,-3.36,-2.45,-3.84,-1.05,-1.05,-1.04
276.61,2.28,3.34,2.27,3.32,-3.32,-2.40,-3.77,-1.04,-1.05,-1.06
279.38,2.22,3.30,2.22,3.28,-3.28,-2.36,-3.69,-1.06,-1.06,-1.08
282.17,2.15,3.23,2.17,3.24,-3.24,-2.32,-3.62,-1.09,-1.07,-1.08
284.99,2.12,3.20,2.13,3.20,-3.20,-2.27,-3.53,-1.08,-1.07,-1.08
287.84,2.08,3.16,2.08,3.16,-3.16,-2.23,-3.45,-1.08,-1.08,-1.08
290.72,2.04,3.13,2.04,3.12,-3.12,-2.19,-3.37,-1.09,-1.08,-1.09
293.63,1.96,3.04,2.00,3.08,-3.08,-2.15,-3.28,-1.12,-1.08,-1.08
296.57,1.96,3.04,1.96,3.04,-3.04,-2.10,-3.19,-1.09,-1.08,-1.08
299.53,1.97,3.05,1.93,3.01,-3.01,-2.06,-3.11,-1.04,-1.08,-1.08
302.53,1.88,2.95,1.89,2.97,-2.97,-2.02,-3.02,-1.09,-1.08,-1.08
305.55,1.81,2.89,1.85,2.93,-2.93,-1.98,-2.93,-1.12,-1.08,-1.08
308.61,1.80,2.87,1.81,2.89,-2.89,-1.94,-2.84,-1.09,-1.08,-1.07
311.69,1.79,2.87,1.76,2.85,-2.85,-1.90,-2.75,-1.06,-1.08,-1.09
314.81,1.73,2.81,1.71,2.80,-2.80,-1.86,-2.66,-1.07,-1.08,-1.08
317.96,1.66,2.75,1.65,2.73,-2.73,-1.82,-2.57,-1.07,-1.08,-1.09
321.14,1.61,2.69,1.57,2.66,-2.66,-1.78,-2.49,-1.05,-1.08,-1.08
324.35,1.54,2.63,1.50,2.58,-2.58,-1.75,-2.40,-1.04,-1.08,-1.09
327.59,1.51,2.59,1.43,2.51,-2.51,-1.71,-2.31,-1.01,-1.09,-1.08
330.87,1.42,2.50,1.36,2.44,-2.44,-1.67,-2.23,-1.02,-1.09,-1.08
334.18,1.33,2.42,1.29,2.38,-2.38,-1.63,-2.14,-1.05,-1.09,-1.09
337.52,1.23,2.32,1.24,2.32,-2.32,-1.60,-2.06,-1.10,-1.09,-1.09
340.90,1.14,2.23,1.19,2.28,-2.28,-1.56,-1.98,-1.14,-1.08,-1.09
344.30,1.02,2.10,1.15,2.23,-2.23,-1.52,-1.90,-1.21,-1.08,-1.08
347.75,0.91,1.98,1.10,2.18,-2.18,-1.49,-1.82,-1.27,-1.08,-1.07
351.23,0.89,1.97,1.06,2.13,-2.13,-1.45,-1.74,-1.24,-1.07,-1.09
354.74,0.96,2.03,1.02,2.09,-2.09,-1.42,-1.67,-1.13,-1.07,-1.07
358.28,1.08,2.15,0.98,2.04,-2.04,-1.38,-1.59,-0.97,-1.06,-1.07
361.87,1.07,2.13,0.95,2.01,-2.01,-1.35,-1.52,-0.94,-1.06,-1.06
365.49,1.03,2.08,0.92,1.97,-1.97,-1.31,-1.45,-0.94,-1.05,-1.05
369.14,1.03,2.07,0.89,1.94,-1.94,-1.28,-1.37,-0.91,-1.05,-1.04
372.83,0.97,2.00,0.87,1.91,-1.91,-1.24,-1.30,-0.94,-1.04,-1.04
376.56,0.88,1.92,0.85,1.89,-1.89,-1.21,-1.24,-1.01,-1.04,-1.04
380.33,0.70,1.74,0.82,1.86,-1.86,-1.18,-1.17,-1.16,-1.04,-1.04
384.13,0.66,1.69,0.78,1.82,-1.82,-1.14,-1.10,-1.16,-1.04,-1.03
387.97,0.66,1.69,0.72,1.76,-1.76,-1.11,-1.04,-1.11,-1.04,-1.03
391.85,0.65,1.68,0.65,1.69,-1.69,-1.08,-0.97,-1.05,-1.04,-1.03
395.77,0.59,1.63,0.57,1.62,-1.62,-1.04,-0.91,-1.03,-1.05,-1.04
399.73,0.57,1.61,0.49,1.54,-1.54,-1.01,-0.85,-0.97,-1.05,-1.04
403.72,0.52,1.55,0.41,1.47,-1.47,-0.98,-0.79,-0.95,-1.05,-1.04
407.76,0.40,1.46,0.34,1.40,-1.40,-0.95,-0.73,-1.00,-1.06,-1.06
411.84,0.36,1.42,0.27,1.34,-1.34,-0.91,-0.67,-0.98,-1.06,-1.06
415.96,0.26,1.32,0.22,1.28,-1.28,-0.88,-0.61,-1.02,-1.06,-1.06
420.12,0.10,1.17,0.17,1.22,-1.22,-0.85,-0.56,-1.12,-1.06,-1.07
424.32,-0.02,1.04,0.12,1.17,-1.17,-0.82,-0.50,-1.19,-1.05,-1.06
428.56,-0.03,1.01,0.07,1.10,-1.10,-0.79,-0.45,-1.13,-1.03,-1.04
432.85,-0.02,1.00,0.03,1.04,-1.04,-0.75,-0.40,-1.06,-1.01,-1.02
437.18,-0.03,0.98,0.00,0.99,-0.99,-0.72,-0.34,-1.02,-0.99,-1.01
441.55,-0.05,0.92,-0.00,0.95,-0.95,-0.69,-0.30,-1.00,-0.96,-0.97
445.96,-0.01,0.92,0.00,0.92,-0.92,-0.66,-0.25,-0.93,-0.92,-0.93
450.42,0.01,0.90,0.03,0.90,-0.90,-0.62,-0.20,-0.89,-0.88,-0.90
454.93,0.01,0.86,0.06,0.89,-0.89,-0.59,-0.15,-0.88,-0.83,-0.85
459.48,0.06,0.85,0.10,0.87,-0.87,-0.56,-0.11,-0.82,-0.78,-0.79
464.07,0.05,0.77,0.12,0.84,-0.84,-0.52,-0.07,-0.79,-0.72,-0.72
468.71,0.08,0.75,0.11,0.79,-0.79,-0.49,-0.03,-0.71,-0.67,-0.67
473.40,0.14,0.75,0.09,0.71,-0.71,-0.46,0.01,-0.57,-0.62,-0.61
478.13,0.19,0.74,0.05,0.61,-0.61,-0.42,0.05,-0.43,-0.56,-0.55
482.91,0.22,0.72,0.00,0.51,-0.51,-0.39,0.09,-0.29,-0.51,-0.50
487.74,0.14,0.60,-0.06,0.41,-0.41,-0.35,0.12,-0.27,-0.47,-0.46
492.62,0.04,0.46,-0.14,0.28,-0.28,-0.32,0.15,-0.24,-0.43,-0.42
497.55,-0.08,0.30,-0.25,0.14,-0.14,-0.28,0.19,-0.22,-0.39,-0.38
502.52,-0.38,-0.02,-0.36,0.00,-0.00,-0.24,0.22,-0.38,-0.37,-0.36
507.55,-0.62,-0.29,-0.47,-0.13,0.13,-0.21,0.24,-0.49,-0.35,-0.33
512.62,-0.88,-0.56,-0.59,-0.25,0.25,-0.17,0.27,-0.63,-0.34,-0.32
517.75,-0.90,-0.59,-0.70,-0.37,0.37,-0.13,0.30,-0.53,-0.33,-0.31
522.93,-0.87,-0.56,-0.83,-0.49,0.49,-0.09,0.32,-0.38,-0.34,-0.31
