frequency,raw
20.00,-9.06
20.20,-8.98
20.40,-8.90
20.61,-8.82
20.81,-8.74
21.02,-8.66
21.23,-8.58
21.44,-8.49
21.66,-8.41
21.87,-8.32
22.09,-8.23
22.31,-8.15
22.54,-8.06
22.76,-7.97
22.99,-7.88
23.22,-7.79
23.45,-7.70
23.69,-7.61
23.92,-7.52
24.16,-7.42
24.40,-7.33
24.65,-7.23
24.89,-7.13
25.14,-7.04
25.39,-6.94
25.65,-6.85
25.91,-6.75
26.16,-6.66
26.43,-6.57
26.69,-6.47
26.96,-6.38
27.23,-6.28
27.50,-6.19
27.77,-6.10
28.05,-6.00
28.33,-5.91
28.62,-5.81
28.90,-5.71
29.19,-5.62
29.48,-5.52
29.78,-5.43
30.08,-5.34
30.38,-5.25
30.68,-5.16
30.99,-5.06
31.30,-4.98
31.61,-4.90
31.93,-4.82
32.24,-4.74
32.57,-4.66
32.89,-4.59
33.22,-4.51
33.55,-4.43
33.89,-4.35
34.23,-4.27
34.57,-4.20
34.92,-4.13
35.27,-4.06
35.62,-3.99
35.97,-3.92
36.33,-3.85
36.70,-3.78
37.06,-3.71
37.43,-3.64
37.81,-3.57
38.19,-3.51
38.57,-3.44
38.95,-3.37
39.34,-3.30
39.74,-3.24
40.14,-3.18
40.54,-3.11
40.94,-3.05
41.35,-2.99
41.76,-2.92
42.18,-2.86
42.60,-2.80
43.03,-2.74
43.46,-2.67
43.90,-2.61
44.33,-2.54
44.78,-2.47
45.23,-2.41
45.68,-2.34
46.13,-2.28
46.60,-2.22
47.06,-2.15
47.53,-2.09
48.01,-2.03
48.49,-1.97
48.97,-1.90
49.46,-1.84
49.96,-1.78
50.46,-1.71
50.96,-1.65
51.47,-1.58
51.99,-1.52
52.51,-1.46
53.03,-1.40
53.56,-1.34
54.10,-1.28
54.64,-1.22
55.18,-1.16
55.74,-1.10
56.29,-1.04
56.86,-0.98
57.42,-0.92
58.00,-0.86
58.58,-0.80
59.16,-0.74
59.76,-0.68
60.35,-0.62
60.96,-0.56
61.57,-0.50
62.18,-0.44
62.80,-0.38
63.43,-0.31
64.07,-0.24
64.71,-0.19
65.35,-0.15
66.01,-0.10
66.67,-0.06
67.33,-0.02
68.01,0.01
68.69,0.04
69.37,0.08
70.07,0.11
70.77,0.15
71.48,0.19
72.19,0.24
72.91,0.28
73.64,0.34
74.38,0.38
75.12,0.43
75.87,0.46
76.63,0.50
77.40,0.53
78.17,0.56
78.95,0.60
79.74,0.64
80.54,0.69
81.35,0.73
82.16,0.77
82.98,0.80
83.81,0.83
84.65,0.87
85.50,0.89
86.35,0.92
87.22,0.95
88.09,0.97
88.97,1.02
89.86,1.05
90.76,1.07
91.66,1.10
92.58,1.12
93.51,1.15
94.44,1.17
95.39,1.19
96.34,1.22
97.30,1.25
98.28,1.27
99.26,1.28
100.25,1.29
101.25,1.29
102.27,1.30
103.29,1.31
104.32,1.33
105.37,1.35
106.42,1.37
107.48,1.40
108.56,1.43
109.64,1.45
110.74,1.47
111.85,1.48
112.97,1.49
114.10,1.50
115.24,1.51
116.39,1.51
117.55,1.51
118.73,1.52
119.92,1.55
121.12,1.56
122.33,1.59
123.55,1.63
124.79,1.64
126.03,1.65
127.29,1.64
128.57,1.63
129.85,1.60
131.15,1.61
132.46,1.61
133.79,1.63
135.12,1.65
136.48,1.66
137.84,1.67
139.22,1.66
140.61,1.65
142.02,1.64
143.44,1.64
144.87,1.64
146.32,1.65
147.78,1.67
149.26,1.69
150.75,1.70
152.26,1.70
153.78,1.69
155.32,1.67
156.88,1.66
158.44,1.65
160.03,1.64
161.63,1.65
163.24,1.66
164.88,1.66
166.53,1.67
168.19,1.66
169.87,1.64
171.57,1.61
173.29,1.58
175.02,1.56
176.77,1.52
178.54,1.50
180.32,1.47
182.13,1.45
183.95,1.43
185.79,1.43
187.65,1.43
189.52,1.41
191.42,1.39
193.33,1.36
195.27,1.32
197.22,1.28
199.19,1.24
201.18,1.21
203.19,1.18
205.23,1.16
207.28,1.13
209.35,1.11
211.44,1.10
213.56,1.08
215.69,1.07
217.85,1.06
220.03,1.04
222.23,1.01
224.45,0.97
226.70,0.93
228.96,0.88
231.25,0.84
233.57,0.81
235.90,0.79
238.26,0.77
240.64,0.74
243.05,0.73
245.48,0.71
247.93,0.70
250.41,0.68
252.92,0.67
255.45,0.65
258.00,0.64
260.58,0.62
263.19,0.61
265.82,0.58
268.48,0.56
271.16,0.54
273.87,0.51
276.61,0.49
279.38,0.47
282.17,0.45
284.99,0.43
287.84,0.41
290.72,0.39
293.63,0.37
296.57,0.35
299.53,0.34
302.53,0.32
305.55,0.30
308.61,0.28
311.69,0.26
314.81,0.25
317.96,0.23
321.14,0.21
324.35,0.19
327.59,0.17
330.87,0.15
334.18,0.13
337.52,0.09
340.90,0.07
344.30,0.04
347.75,0.00
351.23,-0.03
354.74,-0.06
358.28,-0.09
361.87,-0.12
365.49,-0.15
369.14,-0.17
372.83,-0.20
376.56,-0.23
380.33,-0.25
384.13,-0.28
387.97,-0.30
391.85,-0.32
395.77,-0.35
399.73,-0.37
403.72,-0.39
407.76,-0.42
411.84,-0.44
415.96,-0.46
420.12,-0.48
424.32,-0.50
428.56,-0.51
432.85,-0.52
437.18,-0.54
441.55,-0.55
445.96,-0.56
450.42,-0.56
454.93,-0.53
459.48,-0.49
464.07,-0.44
468.71,-0.39
473.40,-0.36
478.13,-0.34
482.91,-0.32
487.74,-0.33
492.62,-0.32
497.55,-0.31
502.52,-0.31
507.55,-0.30
512.62,-0.29
517.75,-0.28
522.93,-0.30
528.16,-0.34
533.44,-0.41
538.77,-0.49
544.16,-0.60
549.60,-0.72
555.10,-0.83
560.65,-0.93
566.25,-1.00
571.92,-1.04
577.64,-1.07
583.41,-1.06
589.25,-1.05
595.14,-1.04
601.09,-1.01
607.10,-0.98
613.17,-0.93
619.30,-0.88
625.50,-0.82
631.75,-0.78
638.07,-0.74
644.45,-0.70
650.89,-0.67
657.40,-0.64
663.98,-0.62
670.62,-0.61
677.32,-0.59
684.10,-0.59
690.94,-0.58
697.85,-0.59
704.83,-0.58
711.87,-0.57
718.99,-0.56
726.18,-0.55
733.44,-0.52
740.78,-0.48
748.19,-0.45
755.67,-0.42
763.23,-0.40
770.86,-0.39
778.57,-0.39
786.35,-0.39
794.22,-0.40
802.16,-0.42
810.18,-0.42
818.28,-0.44
826.46,-0.45
834.73,-0.45
843.08,-0.44
851.51,-0.42
860.02,-0.40
868.62,-0.37
877.31,-0.35
886.08,-0.33
894.94,-0.32
903.89,-0.30
912.93,-0.29
922.06,-0.27
931.28,-0.25
940.59,-0.23
950.00,-0.21
959.50,-0.18
969.09,-0.13
978.78,-0.08
988.57,-0.04
998.46,-0.01
1008.44,0.03
1018.53,0.04
1028.71,0.05
1039.00,0.04
1049.39,0.04
1059.88,0.03
1070.48,0.04
1081.19,0.04
1092.00,0.06
1102.92,0.07
1113.95,0.09
1125.09,0.11
1136.34,0.13
1147.70,0.16
1159.18,0.20
1170.77,0.24
1182.48,0.30
1194.30,0.36
1206.25,0.42
1218.31,0.48
1230.49,0.54
1242.80,0.59
1255.22,0.64
1267.78,0.70
1280.45,0.76
1293.26,0.80
1306.19,0.85
1319.25,0.90
1332.45,0.94
1345.77,0.98
1359.23,1.01
1372.82,1.05
1386.55,1.09
1400.41,1.13
1414.42,1.17
1428.56,1.23
1442.85,1.27
1457.28,1.30
1471.85,1.34
1486.57,1.37
1501.43,1.38
1516.45,1.40
1531.61,1.42
1546.93,1.44
1562.40,1.46
1578.02,1.49
1593.80,1.53
1609.74,1.57
1625.84,1.61
1642.10,1.66
1658.52,1.72
1675.10,1.78
1691.85,1.85
1708.77,1.92
1725.86,1.98
1743.12,2.05
1760.55,2.13
1778.15,2.21
1795.94,2.32
1813.90,2.43
1832.03,2.54
1850.36,2.69
1868.86,2.86
1887.55,3.04
1906.42,3.21
1925.49,3.39
1944.74,3.55
1964.19,3.71
1983.83,3.86
2003.67,4.02
2023.71,4.18
2043.94,4.34
2064.38,4.51
2085.03,4.68
2105.88,4.87
2126.94,5.09
2148.20,5.32
2169.69,5.58
2191.38,5.84
2213.30,6.12
2235.43,6.39
2257.78,6.64
2280.36,6.87
2303.17,7.05
2326.20,7.21
2349.46,7.35
2372.95,7.47
2396.68,7.62
2420.65,7.76
2444.86,7.91
2469.31,8.07
2494.00,8.23
2518.94,8.38
2544.13,8.53
2569.57,8.65
2595.27,8.75
2621.22,8.84
2647.43,8.92
2673.90,8.99
2700.64,9.06
2727.65,9.13
2754.93,9.20
2782.48,9.26
2810.30,9.29
2838.40,9.31
2866.79,9.28
2895.46,9.23
2924.41,9.18
2953.65,9.12
2983.19,9.10
3013.02,9.12
3043.15,9.16
3073.58,9.22
3104.32,9.28
3135.36,9.34
3166.72,9.37
3198.38,9.37
3230.37,9.36
3262.67,9.34
3295.30,9.31
3328.25,9.26
3361.53,9.22
3395.15,9.19
3429.10,9.16
3463.39,9.14
3498.03,9.11
3533.01,9.05
3568.34,8.99
3604.02,8.91
3640.06,8.80
3676.46,8.66
3713.22,8.51
3750.36,8.37
3787.86,8.25
3825.74,8.16
3864.00,8.12
3902.64,8.13
3941.66,8.15
3981.08,8.21
4020.89,8.28
4061.10,8.36
4101.71,8.43
4142.73,8.46
4184.15,8.48
4226.00,8.46
4268.26,8.38
4310.94,8.29
4354.05,8.19
4397.59,8.04
4441.56,7.88
4485.98,7.72
4530.84,7.51
4576.15,7.29
4621.91,7.05
4668.13,6.79
4714.81,6.52
4761.96,6.24
4809.58,5.94
4857.67,5.67
4906.25,5.41
4955.31,5.18
5004.87,4.99
5054.91,4.83
5105.46,4.69
5156.52,4.57
5208.08,4.47
5260.16,4.38
5312.77,4.32
5365.89,4.30
5419.55,4.32
5473.75,4.36
5528.49,4.43
5583.77,4.50
5639.61,4.57
5696.00,4.61
5752.96,4.64
5810.49,4.67
5868.60,4.69
5927.28,4.67
5986.56,4.61
6046.42,4.47
6106.89,4.25
6167.96,3.95
6229.64,3.55
6291.93,3.07
6354.85,2.57
6418.40,2.09
6482.58,1.65
6547.41,1.28
6612.88,0.98
6679.01,0.79
6745.80,0.66
6813.26,0.62
6881.39,0.64
6950.21,0.69
7019.71,0.78
7089.91,0.85
7160.81,0.93
7232.41,0.99
7304.74,1.00
7377.79,1.01
7451.56,1.03
7526.08,1.08
7601.34,1.20
7677.35,1.39
7754.13,1.67
7831.67,2.04
7909.98,2.46
7989.08,2.93
8068.98,3.47
8149.67,4.06
8231.16,4.65
8313.47,5.25
8396.61,5.81
8480.57,6.34
8565.38,6.81
8651.03,7.18
8737.54,7.42
8824.92,7.48
8913.17,7.44
9002.30,7.19
9092.32,6.56
9183.25,5.90
9275.08,5.31
9367.83,4.33
9461.51,3.28
9556.12,2.39
9651.68,1.63
9748.20,0.94
9845.68,0.27
9944.14,-0.39
10043.58,-1.03
10144.02,-1.71
10245.46,-2.40
10347.91,-3.17
10451.39,-4.04
10555.91,-4.92
10661.46,-5.79
10768.08,-6.67
10875.76,-7.51
10984.52,-8.33
11094.36,-8.92
11205.31,-9.30
11317.36,-9.35
11430.53,-9.06
11544.84,-9.03
11660.29,-9.11
11776.89,-8.46
11894.66,-7.88
12013.60,-7.54
12133.74,-7.02
12255.08,-6.91
12377.63,-7.08
12501.41,-7.41
12626.42,-7.85
12752.68,-8.24
12880.21,-8.51
13009.01,-8.53
13139.10,-8.42
13270.49,-8.18
13403.20,-7.90
13537.23,-7.73
13672.60,-7.68
13809.33,-7.81
13947.42,-7.97
14086.90,-8.10
14227.77,-8.17
14370.04,-8.20
14513.74,-8.18
14658.88,-8.16
14805.47,-8.13
14953.52,-8.13
15103.06,-8.16
15254.09,-8.29
15406.63,-8.59
15560.70,-9.05
15716.30,-9.77
15873.47,-10.65
16032.20,-11.57
16192.52,-12.40
16354.45,-12.79
16517.99,-12.71
16683.17,-12.09
16850.01,-10.82
17018.51,-9.26
17188.69,-7.55
17360.58,-6.02
17534.18,-4.83
17709.53,-3.95
17886.62,-3.56
18065.49,-3.52
18246.14,-3.71
18428.60,-4.08
18612.89,-4.51
18799.02,-4.95
18987.01,-5.34
19176.88,-5.64
19368.65,-5.87
19562.33,-6.06
19757.96,-6.23
19955.54,-6.43
