frequency,raw
20,-9.572344902129245
21,-9.088456541801163
22,-8.697673575091546
23,-8.266260319550396
24,-7.980525640984041
25,-7.585772679146165
26,-7.293106027760345
27,-6.918814733846497
28,-6.6227670202943685
29,-6.334623078198427
30,-6.0084098095112
31,-5.743181363338486
32,-5.459496823275758
33,-5.307846540264685
34,-4.953612972413936
35,-4.778439588841147
36,-4.420180813397813
37,-4.318014593964056
38,-3.9939798889914027
39,-3.8196440660745967
40,-3.6132925577769304
41,-3.555364675439472
42,-3.2210430803119148
43,-3.024427301263517
44,-3.0584006850245373
45,-2.7959431263313292
46,-2.6217172095360297
47,-2.519963096063694
48,-2.3910334723107183
49,-2.3234916154714127
50,-2.14909121173266
51,-2.0466175942836387
52,-1.9140167775785275
53,-1.7271493491415444
54,-1.6704214903875272
55,-1.4833992091577928
56,-1.6040888711697088
57,-1.443169336975071
58,-1.3425946226586594
59,-1.2420198907328035
60,-1.0811003045772725
61,-1.2017898868250674
62,-1.0408702659181306
63,-0.8799506864418412
64,-0.9402955979163052
65,-0.9402959043003898
66,-1.000641336532095
67,-0.845532566260195
68,-0.7727804237048401
69,-0.6913780044516759
70,-0.7391489655206456
71,-0.7391463531334451
72,-0.7391408213129691
73,-0.7391320580648016
74,-0.7391209176148446
75,-0.7391100742268398
76,-0.7391044788577277
77,-0.7391113090501343
78,-0.7391390796425994
79,-0.7391956561475973
80,-0.7392851092045425
81,-0.7394036665284125
82,-0.7395354194481537
83,-0.7396488457023673
84,-0.8648394448076496
85,-0.8429625612296245
86,-0.9404782674026335
87,-1.1163923965312006
88,-1.0764815980982563
89,-0.958016287390409
90,-1.083861115929746
91,-1.1361245498134056
92,-1.134755645508432
93,-1.1338673407277309
94,-1.1338804516059522
95,-1.1352735120526112
96,-1.1385443736127698
97,-1.1441627072773122
98,-1.1525186028668566
99,-1.163873478875091
100,-1.1783195840215845
101,-1.1957534652373145
102,-1.2522987622228365
104,-1.3840339890824196
105,-1.362532037135916
106,-1.3143142290369658
107,-1.3774896857591994
108,-1.535368268480636
109,-1.5569148814650609
110,-1.5759332944799627
111,-1.6453865799994394
112,-1.7718471817409749
113,-1.6830617262908523
114,-1.695987721051373
115,-1.8216472466836908
117,-1.8526637205350007
118,-1.9177632608322448
119,-1.9566564144667804
120,-2.0063038089934415
121,-1.9988389249728016
123,-2.00140826936287
124,-2.0715611579892834
125,-2.0910777053865877
126,-2.160684818552001
128,-2.3297426167133026
129,-2.2693100542710036
130,-2.1814768849032324
131,-2.2774948869091083
133,-2.451654225011029
134,-2.5193651759693245
135,-2.483480798897979
137,-2.3513444671326833
138,-2.4560509164877224
140,-2.5277431803602948
141,-2.526404081001012
142,-2.5952364634863336
144,-2.6260018447786666
145,-2.6957445774298447
147,-2.7427917934828576
148,-2.808389162685361
150,-2.887505782744813
151,-2.9287957416239028
153,-2.9285254369338256
154,-2.9279937915592025
156,-3.011986926345574
157,-3.0272180250128327
159,-3.1274109455356096
160,-3.154178050578592
162,-3.2292405402218147
164,-3.332003516022289
165,-3.3564232368481663
167,-3.4408220363735564
169,-3.547299619435198
170,-3.553978209391789
172,-3.5465256597563295
174,-3.555120438017606
175,-3.7003076032724067
177,-3.8190128608966107
179,-3.7167809805776466
181,-3.801680002274175
183,-3.8802648815320016
184,-3.9232460804328997
186,-3.9646517693604175
188,-4.0335894770809695
190,-4.017744731321603
192,-4.072722249009441
194,-4.106560719515099
196,-4.17296354582718
198,-4.1914065979676325
200,-4.251886096201696
202,-4.258060504280775
204,-4.313014921402825
206,-4.3626243737546035
208,-4.56103622953998
210,-4.553984936941201
212,-4.5339604425675315
214,-4.507706353013231
216,-4.576484035778837
218,-4.777592237122088
221,-4.737489277617793
223,-4.794311021441226
225,-4.863781436692417
227,-4.966441909471395
229,-4.998081448311737
232,-4.91725347044729
234,-4.921147202028389
236,-5.068232309763254
239,-5.130930330502457
241,-5.192680239752132
244,-5.2686899705569665
246,-5.297431916303128
248,-5.243439850740826
251,-5.178551502737072
253,-5.24602636753301
256,-5.324877170875488
259,-5.405150270302699
261,-5.3604035890520425
264,-5.430481058685531
266,-5.478971972363606
269,-5.618830319023763
272,-5.61082476233901
274,-5.556102099695736
277,-5.588847461944716
280,-5.67526124777994
283,-5.669005535282563
286,-5.797388981319504
288,-5.876208628887917
291,-5.965395402643813
294,-6.052054424841604
297,-6.086710759615421
300,-6.161282964113183
303,-6.204429726763987
306,-6.208394142853299
309,-6.2736874861026175
312,-6.376128947245225
316,-6.4908579029715545
319,-6.488440501618527
322,-6.555700004886856
325,-6.595174678124031
328,-6.685027398413828
332,-6.753339115243294
335,-6.795446487149959
338,-6.911248736034684
342,-7.094709606138636
345,-7.129179327896486
349,-7.201614671216397
352,-7.270492932216352
356,-7.301187335552495
359,-7.289350556283809
363,-7.367731114102525
366,-7.476353523541847
370,-7.4763237851474935
374,-7.5183353929715215
377,-7.5607866594682624
381,-7.631090977601801
385,-7.674789220572703
389,-7.7428741449475424
393,-7.814028042467488
397,-7.8388520156279515
401,-7.839482493120452
405,-7.840399753778468
409,-7.844890093719808
413,-7.897207487297889
417,-7.950318056586246
421,-7.981805031867644
425,-8.043969878809929
430,-8.032052561644447
434,-8.036183836884945
438,-8.08531044698778
443,-8.04868313974225
447,-8.003692003471683
451,-7.951438652604835
456,-7.893655726720827
460,-7.83252988313891
465,-7.770455398315624
470,-7.709758017727051
474,-7.635416622523235
479,-7.49940488682883
484,-7.452692593632902
489,-7.396962149629403
494,-7.201711116906372
499,-7.088213037708739
504,-7.0190342095425535
509,-6.9060344626868995
514,-6.84221224131983
519,-6.751846954898558
524,-6.599973283210211
529,-6.544012578932596
535,-6.490517745950236
540,-6.352850917843032
545,-6.314502342265497
551,-6.335476138616262
556,-6.2985810859305715
562,-6.193806371181566
568,-6.088641078661258
573,-6.0636839948123695
579,-5.948337553327633
585,-5.774919105359088
591,-5.643481460295568
596,-5.58674320308551
602,-5.440449931915252
608,-5.238696770794617
615,-5.001902124044012
621,-4.79407509878556
627,-4.62764930946089
633,-4.446199475437275
639,-4.20844013638633
646,-4.025436850122047
652,-3.8624243420014674
659,-3.646392780255112
665,-3.418186202661847
672,-3.2233099818937974
679,-3.0789155765893947
686,-2.8735436786233053
692,-2.6287817223791747
699,-2.332336281794555
706,-2.171239697778944
713,-2.0397581080956804
721,-1.8832975376198258
728,-1.846012014100161
735,-1.8318908320113947
742,-1.7154215445187848
750,-1.6260755411415544
757,-1.5202873592554897
765,-1.4416041090042064
773,-1.2749781402107967
780,-1.310105192479028
788,-1.3096724123429482
796,-1.176141146223913
804,-1.0575686457536886
812,-1.0159934325195474
820,-1.015130343064712
828,-0.8395478513959118
837,-0.8025382402648379
845,-0.7634056305530892
853,-0.5848709517538178
862,-0.606591886652131
871,-0.5620692683089699
879,-0.4844171903700565
888,-0.5176559909193608
897,-0.5404508033177978
906,-0.5472198231340191
915,-0.391720428177688
924,-0.397884000167534
933,-0.5113043713511903
943,-0.4439917198814377
952,-0.3546573526002855
962,-0.37791781242575895
971,-0.3830217339452375
981,-0.24904299404127617
991,-0.09164611822507286
1001,0.010131944791741065
1011,0.01705889145575526
1021,0.04008681214709586
1031,0.0669563852832015
1041,0.09786312258931693
1052,0.14788346870220345
1062,0.1881332525834117
1073,0.10209952367241032
1084,0.03283224287351541
1094,0.05047559808185187
1105,0.06493454883477473
1116,0.029488859211233343
1128,0.034216128824618
1139,-0.03209405942878463
1150,-0.1351470971783464
1162,-0.1985569419940365
1173,-0.2826876984556126
1185,-0.4629042744633235
1197,-0.5373016643105941
1209,-0.49510114510446934
1221,-0.4261398629700386
1233,-0.30070052113509527
1246,-0.1695041850408574
1258,0.03337391668093592
1271,0.3089149330690366
1283,0.45355496203493884
1296,0.6011592556802561
1309,0.7151465225426317
1322,0.8015208542542287
1335,0.9532938936349042
1349,1.0072120778782718
1362,1.0389470615748895
1376,1.126332220451121
1390,1.18806930831542
1404,1.278049973001845
1418,1.2745103895951022
1432,1.2165796533012863
1446,1.0651500532658353
1461,0.9708728597463994
1475,0.8956299628283224
1490,0.8256438928998486
1505,0.7913343788265519
1520,0.7593802497069642
1535,0.6919658471579262
1550,0.6198562813242297
1566,0.48788384579872623
1582,0.40632833436158133
1597,0.33775620071966905
1613,0.3087676107780988
1629,0.2319931256150376
1646,0.11943544824064034
1662,0.027514642875580364
1679,-0.11587443880722414
1696,-0.2692362932858945
1713,-0.3331672520626112
1730,-0.3400893975654675
1747,-0.39302935059824673
1764,-0.482770375157469
1782,-0.6154373366693493
1800,-0.7663531542557331
1818,-0.8457572515606397
1836,-1.013098060634837
1854,-1.1837643157274558
1873,-1.2532163027285508
1892,-1.3780732922916918
1911,-1.5240751515407487
1930,-1.5381223936108572
1949,-1.7338041543445355
1969,-1.9046229903642349
1988,-2.0031075961750275
2008,-2.1147740867188975
2028,-2.224399420575139
2048,-2.241301436243244
2069,-2.1542897642904775
2090,-2.142191046500649
2111,-2.1899044411944155
2132,-2.143749234092443
2153,-2.1330648381043398
2175,-2.118227483814385
2196,-2.1225207020450743
2218,-2.128452769420317
2240,-2.146151359038166
2263,-2.2088702679434533
2285,-2.175705170103381
2308,-2.1904485755511267
2331,-2.139530297815723
2355,-2.0522347638156226
2378,-2.0436305019959295
2402,-1.9961034245306148
2426,-2.197392663521633
2450,-2.265559432448361
2475,-2.425141899653509
2500,-2.588243403779119
2525,-2.6720033387265776
2550,-2.5851017999511434
2575,-2.435256037507223
2601,-2.366141040687639
2627,-2.13312927541147
2653,-1.8195637215154399
2680,-1.700844792130603
2707,-1.5844672328235525
2734,-1.3729563021858837
2761,-1.3475438973250462
2789,-1.3177866087305272
2817,-1.2486088289453665
2845,-1.1026399784636194
2873,-1.0175281317268592
2902,-0.9319771831323767
2931,-0.9014540080936229
2960,-0.7939921917305828
2990,-0.5999305468485883
3020,-0.38984903119935765
3050,-0.238125487840259
3080,-0.055834233322276106
3111,0.1287047737373026
3142,0.38586684314290487
3174,0.4449613611919023
3206,0.5207351953985206
3238,0.6849911080729125
3270,0.7459298603335291
3303,0.6205076491254093
3336,0.3979814878282273
3369,0.42100862548030094
3403,0.5699667026271396
3437,0.8164296503774775
3471,0.988835784721461
3506,0.8732169165879515
3541,0.6764690727300984
3576,0.3305142120122717
3612,-0.2723610188817549
3648,-0.580677688396122
3685,-1.2651350491263553
3721,-2.20638945603217
3759,-2.653170501150191
3796,-2.8916800306848742
3834,-2.5551475883112946
3873,-2.5837296760357926
3911,-3.302818025416867
3950,-3.1468746615809042
3990,-2.9461704596240175
4030,-3.025281186689723
4070,-2.6249845223455885
4111,-2.219887761089158
4152,-2.833972253486353
4193,-3.3983518566294286
4235,-3.9518161101999603
4278,-4.459032532696728
4321,-4.727737692997808
4364,-4.629821815559083
4407,-4.36887983085726
4451,-4.29214358509401
4496,-4.22502643948186
4541,-4.293131849996097
4586,-4.195897573222606
4632,-4.2800104913287065
4679,-4.76040817751789
4725,-4.949059584539388
4773,-5.218689367265734
4820,-5.4201605001420905
4868,-5.945331583104283
4917,-6.155272292277665
4966,-6.255839361797021
5016,-6.0804994644432995
5066,-5.9910840555409735
5117,-6.255393203178999
5168,-6.639621898822842
5220,-6.513966884351795
5272,-5.976559057664261
5325,-5.316624973478852
5378,-4.710822832511047
5432,-4.576995100005082
5486,-4.763858536489007
5541,-4.37502259679721
5596,-4.515743526685974
5652,-5.426025317914531
5709,-5.937115848392519
5766,-6.42729613095333
5823,-6.857647380596438
5882,-7.46023559808048
5940,-7.953466741639215
6000,-8.258122736396562
6060,-8.62757032333241
6120,-9.024442351848442
6182,-9.24791106780212
6244,-9.48088525301434
6306,-9.674785634280635
6369,-9.746546645760272
6433,-9.802983546351834
6497,-9.686174177141751
6562,-9.493731687863585
6628,-9.526490855650247
6694,-9.397785933139302
6761,-9.00401266846227
6828,-8.59459286772902
6897,-8.312074656896066
6966,-7.9161090529569424
7035,-7.463123650114018
7106,-7.239022550615659
7177,-6.901088493015539
7249,-6.260267084590942
7321,-5.779586173854052
7394,-5.384162190088538
7468,-4.446309755004924
7543,-4.050614370443536
7618,-3.3128928071468025
7694,-3.4495606705785473
7771,-4.3182199666740795
7849,-4.509304908096371
7928,-4.10054213134859
8007,-4.512897365968305
8087,-4.3558215308373835
8168,-4.380451876007923
8250,-4.91842874971765
8332,-5.186677990147977
8415,-5.214629422880979
8499,-4.955775330055448
8584,-4.6851316790262825
8670,-4.454887186912603
8757,-4.258675272154124
8845,-3.8340064842366184
8933,-3.427516768203292
9022,-3.0634577591614853
9113,-2.5680195641216557
9204,-2.1524912153673297
9296,-1.680730306741471
9389,-1.7173660335785597
9483,-1.7554832525223656
9577,-1.7377040064482143
9673,-1.7539306525969849
9770,-1.9570792533255341
9868,-2.3471665427171446
9966,-2.862113161709453
10066,-3.2470586291673795
10167,-2.983386854292097
10268,-3.0500421443134034
10371,-2.9695176937426897
10475,-3.0604461899845035
10579,-3.087054444418003
10685,-3.0164194417343673
10792,-3.135498170960834
10900,-3.1164760355857233
11009,-3.0762882099512012
11119,-2.9668741612891942
11230,-2.880403468903653
11343,-3.033632803085073
11456,-3.192970929606176
11571,-3.88910653369002
11686,-4.222277029924371
11803,-4.851202060738743
11921,-5.481061911038996
12040,-6.09093656925849
12161,-6.622243903786767
12282,-7.360679065364669
12405,-8.211805777600391
12529,-8.731025858602203
12655,-9.658542061385798
12781,-10.500332010275649
12909,-11.337973039242726
13038,-12.142571442383078
13168,-12.527495699079505
13300,-13.138987947081517
13433,-13.41482132463701
13567,-13.893937225388608
13703,-14.058906026383621
13840,-14.355262724311086
13978,-14.209172690172016
14118,-13.767120657042007
14259,-13.376796841496049
14402,-12.914437533201466
14546,-12.62744883834247
14692,-12.33379644204605
14838,-12.396612854242498
14987,-12.745421125380105
15137,-13.870097815860602
15288,-14.180296322788442
15441,-15.208548216254528
15595,-17.312490867048822
15751,-18.20947886818082
15909,-20.52968775443218
16068,-22.316806990698666
16229,-22.61060054008589
16391,-23.382135375243685
16555,-23.87573528908611
16720,-25.556894847075906
16888,-26.408333674655655
17056,-27.0586798419818
17227,-27.233943002313733
17399,-27.43735218170928
17573,-27.819182004994765
17749,-27.92009984466801
17926,-27.98471990550831
18106,-27.66287091799714
18287,-26.869093846532188
18470,-25.227018341034338
18654,-24.00143084923826
18841,-22.579070138164084
19029,-22.42120908923897
19220,-22.923063481499156
19412,-23.830097846704028
19606,-25.166093138349304
19802,-26.153948859214488
20000,-26.99378841779571
