frequency,raw,error,smoothed,error_smoothed,equalization,parametric_eq,fixed_band_eq,equalized_raw,equalized_smoothed,target
20.00,6.95,1.42,6.95,1.42,-1.42,-1.28,-0.90,5.52,5.53,5.53
20.20,6.98,1.45,6.98,1.45,-1.45,-1.30,-0.92,5.53,5.53,5.53
20.40,7.00,1.47,7.00,1.47,-1.47,-1.32,-0.95,5.53,5.53,5.53
20.61,7.02,1.49,7.02,1.49,-1.49,-1.34,-0.98,5.53,5.52,5.53
20.81,7.04,1.53,7.04,1.52,-1.52,-1.35,-1.01,5.52,5.52,5.52
21.02,7.06,1.55,7.06,1.54,-1.54,-1.37,-1.04,5.52,5.52,5.51
21.23,7.07,1.56,7.08,1.56,-1.56,-1.39,-1.07,5.51,5.52,5.51
21.44,7.09,1.57,7.10,1.58,-1.58,-1.41,-1.10,5.51,5.51,5.52
21.66,7.11,1.60,7.11,1.61,-1.61,-1.43,-1.13,5.50,5.51,5.51
21.87,7.13,1.62,7.13,1.63,-1.63,-1.45,-1.16,5.50,5.51,5.51
22.09,7.15,1.65,7.15,1.65,-1.65,-1.47,-1.20,5.50,5.50,5.50
22.31,7.17,1.67,7.17,1.67,-1.67,-1.48,-1.23,5.50,5.50,5.50
22.54,7.19,1.70,7.19,1.69,-1.69,-1.50,-1.27,5.50,5.49,5.49
22.76,7.20,1.71,7.20,1.71,-1.71,-1.52,-1.31,5.49,5.49,5.49
22.99,7.22,1.73,7.22,1.73,-1.73,-1.54,-1.34,5.49,5.49,5.49
23.22,7.24,1.76,7.23,1.75,-1.75,-1.56,-1.38,5.49,5.48,5.48
23.45,7.25,1.77,7.25,1.77,-1.77,-1.58,-1.42,5.48,5.48,5.48
23.69,7.27,1.80,7.27,1.80,-1.80,-1.60,-1.46,5.47,5.47,5.47
23.92,7.28,1.82,7.28,1.81,-1.81,-1.62,-1.50,5.47,5.47,5.46
24.16,7.30,1.84,7.29,1.83,-1.83,-1.64,-1.55,5.47,5.46,5.46
24.40,7.30,1.84,7.31,1.85,-1.85,-1.66,-1.59,5.45,5.46,5.46
24.65,7.32,1.86,7.32,1.86,-1.86,-1.68,-1.63,5.46,5.46,5.46
24.89,7.33,1.87,7.33,1.88,-1.88,-1.70,-1.67,5.45,5.45,5.46
25.14,7.34,1.89,7.34,1.89,-1.89,-1.72,-1.72,5.45,5.45,5.45
25.39,7.36,1.92,7.36,1.91,-1.91,-1.74,-1.76,5.45,5.45,5.44
25.65,7.37,1.93,7.37,1.92,-1.92,-1.76,-1.81,5.45,5.45,5.44
25.91,7.38,1.94,7.38,1.93,-1.93,-1.78,-1.85,5.45,5.45,5.44
26.16,7.39,1.94,7.39,1.95,-1.95,-1.80,-1.90,5.45,5.45,5.45
26.43,7.41,1.96,7.41,1.96,-1.96,-1.82,-1.94,5.45,5.45,5.45
26.69,7.42,1.97,7.42,1.97,-1.97,-1.84,-1.99,5.45,5.45,5.45
26.96,7.43,1.98,7.43,1.98,-1.98,-1.86,-2.03,5.45,5.45,5.45
27.23,7.44,1.99,7.44,2.00,-2.00,-1.88,-2.07,5.44,5.45,5.45
27.50,7.45,2.00,7.45,2.01,-2.01,-1.90,-2.12,5.44,5.45,5.45
27.77,7.46,2.01,7.47,2.02,-2.02,-1.92,-2.16,5.44,5.44,5.45
28.05,7.48,2.04,7.48,2.04,-2.04,-1.94,-2.20,5.44,5.44,5.44
28.33,7.49,2.05,7.49,2.05,-2.05,-1.96,-2.24,5.44,5.44,5.44
28.62,7.50,2.07,7.50,2.06,-2.06,-1.99,-2.28,5.44,5.44,5.43
28.90,7.51,2.07,7.51,2.08,-2.08,-2.01,-2.31,5.43,5.43,5.44
29.19,7.52,2.09,7.51,2.09,-2.09,-2.03,-2.35,5.43,5.43,5.43
29.48,7.52,2.10,7.52,2.10,-2.10,-2.05,-2.38,5.42,5.42,5.42
29.78,7.53,2.11,7.53,2.11,-2.11,-2.07,-2.41,5.42,5.42,5.42
30.08,7.54,2.13,7.53,2.12,-2.12,-2.09,-2.43,5.42,5.41,5.41
30.38,7.54,2.14,7.54,2.13,-2.13,-2.11,-2.46,5.41,5.41,5.40
30.68,7.54,2.14,7.54,2.14,-2.14,-2.13,-2.48,5.40,5.41,5.40
30.99,7.55,2.15,7.55,2.15,-2.15,-2.15,-2.50,5.40,5.40,5.40
31.30,7.55,2.15,7.55,2.15,-2.15,-2.17,-2.52,5.40,5.40,5.40
31.61,7.55,2.16,7.56,2.16,-2.16,-2.19,-2.54,5.39,5.40,5.39
31.93,7.56,2.17,7.56,2.16,-2.16,-2.21,-2.55,5.40,5.40,5.39
32.24,7.56,2.16,7.56,2.17,-2.17,-2.23,-2.56,5.39,5.40,5.40
32.57,7.57,2.18,7.57,2.17,-2.17,-2.25,-2.57,5.40,5.39,5.39
32.89,7.57,2.17,7.57,2.18,-2.18,-2.28,-2.57,5.39,5.39,5.40
33.22,7.58,2.19,7.57,2.19,-2.19,-2.30,-2.58,5.39,5.39,5.39
33.55,7.57,2.18,7.58,2.19,-2.19,-2.32,-2.58,5.38,5.38,5.39
33.89,7.58,2.20,7.58,2.20,-2.20,-2.34,-2.58,5.38,5.38,5.38
34.23,7.58,2.21,7.58,2.21,-2.21,-2.36,-2.58,5.36,5.37,5.37
34.57,7.59,2.23,7.58,2.23,-2.23,-2.38,-2.57,5.36,5.36,5.36
34.92,7.59,2.25,7.58,2.24,-2.24,-2.40,-2.57,5.35,5.34,5.34
35.27,7.59,2.25,7.59,2.26,-2.26,-2.42,-2.56,5.33,5.32,5.34
35.62,7.59,2.29,7.59,2.28,-2.28,-2.44,-2.56,5.31,5.31,5.30
35.97,7.58,2.29,7.59,2.30,-2.30,-2.46,-2.55,5.28,5.28,5.29
36.33,7.58,2.31,7.58,2.32,-2.32,-2.48,-2.54,5.26,5.26,5.27
36.70,7.58,2.35,7.58,2.35,-2.35,-2.50,-2.54,5.23,5.23,5.23
37.06,7.58,2.37,7.58,2.37,-2.37,-2.52,-2.53,5.21,5.21,5.21
37.43,7.58,2.40,7.58,2.40,-2.40,-2.54,-2.52,5.18,5.18,5.18
37.81,7.58,2.43,7.58,2.42,-2.42,-2.56,-2.52,5.16,5.15,5.15
38.19,7.57,2.45,7.57,2.45,-2.45,-2.58,-2.51,5.12,5.12,5.12
38.57,7.57,2.48,7.57,2.47,-2.47,-2.60,-2.51,5.10,5.10,5.09
38.95,7.57,2.50,7.57,2.50,-2.50,-2.62,-2.50,5.07,5.07,5.07
39.34,7.56,2.53,7.56,2.52,-2.52,-2.63,-2.50,5.04,5.04,5.03
39.74,7.56,2.55,7.56,2.54,-2.54,-2.65,-2.50,5.02,5.02,5.01
40.14,7.55,2.56,7.55,2.56,-2.56,-2.67,-2.50,4.99,4.99,4.99
40.54,7.54,2.57,7.55,2.58,-2.58,-2.69,-2.50,4.96,4.97,4.97
40.94,7.54,2.60,7.54,2.60,-2.60,-2.71,-2.50,4.94,4.94,4.94
41.35,7.54,2.62,7.53,2.61,-2.61,-2.73,-2.51,4.93,4.92,4.92
41.76,7.53,2.64,7.52,2.62,-2.62,-2.75,-2.51,4.91,4.90,4.89
42.18,7.52,2.63,7.52,2.64,-2.64,-2.77,-2.52,4.88,4.88,4.89
42.60,7.51,2.65,7.51,2.65,-2.65,-2.78,-2.53,4.86,4.86,4.86
43.03,7.50,2.67,7.50,2.66,-2.66,-2.80,-2.54,4.84,4.84,4.83
43.46,7.49,2.67,7.49,2.67,-2.67,-2.82,-2.56,4.82,4.82,4.82
43.90,7.48,2.68,7.48,2.68,-2.68,-2.84,-2.57,4.80,4.80,4.80
44.33,7.47,2.70,7.47,2.70,-2.70,-2.86,-2.59,4.77,4.78,4.77
44.78,7.45,2.69,7.46,2.71,-2.71,-2.87,-2.61,4.74,4.75,4.76
45.23,7.45,2.70,7.45,2.72,-2.72,-2.89,-2.63,4.73,4.73,4.75
45.68,7.44,2.73,7.44,2.74,-2.74,-2.91,-2.65,4.70,4.70,4.71
46.13,7.44,2.77,7.43,2.76,-2.76,-2.92,-2.68,4.68,4.68,4.67
46.60,7.42,2.77,7.43,2.78,-2.78,-2.94,-2.71,4.64,4.65,4.65
47.06,7.42,2.80,7.41,2.80,-2.80,-2.96,-2.74,4.62,4.61,4.62
47.53,7.41,2.82,7.40,2.82,-2.82,-2.97,-2.77,4.59,4.58,4.59
48.01,7.40,2.86,7.39,2.85,-2.85,-2.99,-2.80,4.55,4.55,4.54
48.49,7.38,2.87,7.38,2.87,-2.87,-3.01,-2.83,4.51,4.51,4.51
48.97,7.37,2.90,7.37,2.90,-2.90,-3.02,-2.87,4.47,4.47,4.47
49.46,7.36,2.92,7.35,2.92,-2.92,-3.04,-2.91,4.44,4.43,4.44
49.96,7.34,2.96,7.34,2.94,-2.94,-3.05,-2.95,4.40,4.39,4.38
50.46,7.32,2.97,7.32,2.97,-2.97,-3.07,-2.98,4.35,4.35,4.35
50.96,7.30,2.99,7.31,2.99,-2.99,-3.08,-3.03,4.31,4.32,4.31
51.47,7.29,3.02,7.29,3.01,-3.01,-3.10,-3.07,4.28,4.28,4.27
51.99,7.27,3.04,7.27,3.04,-3.04,-3.11,-3.11,4.23,4.24,4.23
52.51,7.26,3.06,7.25,3.06,-3.06,-3.13,-3.15,4.20,4.20,4.20
53.03,7.23,3.06,7.24,3.08,-3.08,-3.14,-3.19,4.15,4.16,4.17
53.56,7.21,3.08,7.22,3.10,-3.10,-3.16,-3.24,4.11,4.12,4.13
54.10,7.20,3.12,7.20,3.12,-3.12,-3.17,-3.28,4.08,4.08,4.08
54.64,7.18,3.13,7.18,3.14,-3.14,-3.18,-3.32,4.04,4.05,4.05
55.18,7.17,3.17,7.17,3.15,-3.15,-3.20,-3.36,4.02,4.01,4.00
55.74,7.15,3.19,7.15,3.17,-3.17,-3.21,-3.40,3.98,3.98,3.96
56.29,7.13,3.19,7.13,3.18,-3.18,-3.22,-3.44,3.95,3.95,3.94
56.86,7.11,3.20,7.11,3.20,-3.20,-3.24,-3.47,3.91,3.91,3.91
57.42,7.09,3.23,7.09,3.22,-3.22,-3.25,-3.51,3.87,3.88,3.86
58.00,7.08,3.25,7.07,3.23,-3.23,-3.26,-3.54,3.85,3.84,3.83
58.58,7.06,3.25,7.05,3.25,-3.25,-3.27,-3.57,3.81,3.80,3.81
59.16,7.03,3.25,7.03,3.27,-3.27,-3.29,-3.60,3.76,3.76,3.78
59.76,7.01,3.26,7.01,3.29,-3.29,-3.30,-3.62,3.72,3.72,3.75
60.35,6.99,3.29,6.99,3.31,-3.31,-3.31,-3.64,3.68,3.68,3.70
60.96,6.97,3.31,6.97,3.33,-3.33,-3.32,-3.66,3.64,3.64,3.66
61.57,6.94,3.34,6.94,3.34,-3.34,-3.33,-3.67,3.60,3.60,3.60
62.18,6.92,3.38,6.92,3.36,-3.36,-3.34,-3.68,3.56,3.55,3.54
62.80,6.90,3.40,6.89,3.38,-3.38,-3.35,-3.69,3.52,3.51,3.50
63.43,6.87,3.43,6.87,3.40,-3.40,-3.36,-3.69,3.47,3.47,3.44
64.07,6.84,3.43,6.84,3.42,-3.42,-3.37,-3.69,3.42,3.42,3.41
64.71,6.82,3.45,6.82,3.44,-3.44,-3.38,-3.69,3.38,3.38,3.37
65.35,6.78,3.45,6.79,3.45,-3.45,-3.39,-3.68,3.33,3.33,3.33
66.01,6.76,3.47,6.76,3.47,-3.47,-3.40,-3.67,3.29,3.29,3.29
66.67,6.74,3.47,6.74,3.48,-3.48,-3.41,-3.66,3.26,3.25,3.27
67.33,6.70,3.48,6.71,3.49,-3.49,-3.42,-3.64,3.20,3.21,3.22
68.01,6.68,3.50,6.68,3.51,-3.51,-3.43,-3.62,3.17,3.17,3.17
68.69,6.66,3.53,6.65,3.52,-3.52,-3.44,-3.60,3.14,3.14,3.13
69.37,6.62,3.52,6.62,3.53,-3.53,-3.45,-3.58,3.09,3.10,3.10
70.07,6.60,3.53,6.60,3.54,-3.54,-3.45,-3.55,3.06,3.06,3.07
70.77,6.57,3.55,6.57,3.55,-3.55,-3.46,-3.53,3.02,3.02,3.02
71.48,6.54,3.56,6.54,3.56,-3.56,-3.47,-3.50,2.98,2.98,2.98
72.19,6.51,3.58,6.51,3.57,-3.57,-3.48,-3.47,2.94,2.94,2.93
72.91,6.48,3.58,6.48,3.58,-3.58,-3.48,-3.44,2.90,2.90,2.90
73.64,6.45,3.60,6.45,3.59,-3.59,-3.49,-3.42,2.86,2.86,2.85
74.38,6.42,3.61,6.42,3.60,-3.60,-3.50,-3.39,2.82,2.82,2.81
75.12,6.39,3.62,6.39,3.60,-3.60,-3.50,-3.36,2.79,2.79,2.77
75.87,6.36,3.61,6.36,3.61,-3.61,-3.51,-3.33,2.75,2.75,2.75
76.63,6.33,3.62,6.32,3.61,-3.61,-3.51,-3.31,2.72,2.72,2.71
77.40,6.29,3.61,6.29,3.61,-3.61,-3.52,-3.28,2.68,2.68,2.68
78.17,6.26,3.62,6.26,3.61,-3.61,-3.53,-3.26,2.65,2.65,2.64
78.95,6.22,3.59,6.23,3.61,-3.61,-3.53,-3.24,2.61,2.62,2.63
79.74,6.19,3.60,6.19,3.60,-3.60,-3.54,-3.22,2.58,2.59,2.59
80.54,6.15,3.59,6.16,3.60,-3.60,-3.54,-3.20,2.55,2.56,2.56
81.35,6.13,3.60,6.12,3.59,-3.59,-3.54,-3.18,2.54,2.53,2.53
82.16,6.09,3.59,6.09,3.59,-3.59,-3.55,-3.17,2.50,2.50,2.50
82.98,6.05,3.58,6.05,3.58,-3.58,-3.55,-3.15,2.47,2.47,2.47
83.81,6.02,3.58,6.02,3.58,-3.58,-3.56,-3.14,2.44,2.44,2.44
84.65,5.98,3.58,5.98,3.57,-3.57,-3.56,-3.13,2.41,2.41,2.40
85.50,5.94,3.57,5.94,3.56,-3.56,-3.56,-3.13,2.38,2.38,2.37
86.35,5.91,3.56,5.91,3.56,-3.56,-3.57,-3.12,2.35,2.35,2.35
87.22,5.87,3.55,5.87,3.55,-3.55,-3.57,-3.12,2.32,2.32,2.32
88.09,5.83,3.54,5.83,3.55,-3.55,-3.57,-3.12,2.28,2.29,2.29
88.97,5.79,3.53,5.80,3.54,-3.54,-3.57,-3.13,2.25,2.26,2.26
89.86,5.76,3.54,5.76,3.53,-3.53,-3.57,-3.13,2.23,2.22,2.22
90.76,5.72,3.53,5.72,3.53,-3.53,-3.58,-3.14,2.19,2.19,2.19
91.66,5.68,3.52,5.68,3.53,-3.53,-3.58,-3.15,2.15,2.15,2.16
92.58,5.64,3.52,5.64,3.52,-3.52,-3.58,-3.17,2.12,2.12,2.12
93.51,5.60,3.51,5.60,3.52,-3.52,-3.58,-3.18,2.08,2.08,2.09
94.44,5.56,3.51,5.56,3.52,-3.52,-3.58,-3.20,2.04,2.04,2.05
95.39,5.52,3.51,5.52,3.52,-3.52,-3.58,-3.22,2.00,2.00,2.01
96.34,5.48,3.52,5.48,3.52,-3.52,-3.58,-3.24,1.96,1.96,1.96
97.30,5.44,3.52,5.44,3.52,-3.52,-3.58,-3.26,1.92,1.92,1.92
98.28,5.40,3.53,5.40,3.52,-3.52,-3.58,-3.29,1.88,1.87,1.87
99.26,5.35,3.53,5.36,3.52,-3.52,-3.58,-3.31,1.83,1.83,1.82
100.25,5.32,3.54,5.31,3.52,-3.52,-3.58,-3.34,1.80,1.79,1.78
101.25,5.27,3.53,5.27,3.52,-3.52,-3.58,-3.37,1.75,1.75,1.74
102.27,5.23,3.52,5.23,3.51,-3.51,-3.58,-3.40,1.72,1.71,1.71
103.29,5.18,3.51,5.18,3.51,-3.51,-3.57,-3.44,1.67,1.68,1.67
104.32,5.14,3.50,5.14,3.50,-3.50,-3.57,-3.47,1.64,1.64,1.64
105.37,5.10,3.50,5.10,3.49,-3.49,-3.57,-3.50,1.61,1.60,1.60
106.42,5.05,3.47,5.05,3.48,-3.48,-3.57,-3.54,1.57,1.57,1.57
107.48,5.01,3.48,5.01,3.47,-3.47,-3.57,-3.57,1.54,1.54,1.53
108.56,4.96,3.46,4.96,3.46,-3.46,-3.56,-3.60,1.50,1.50,1.50
109.64,4.92,3.45,4.92,3.45,-3.45,-3.56,-3.64,1.47,1.47,1.47
110.74,4.87,3.44,4.87,3.44,-3.44,-3.56,-3.67,1.43,1.43,1.43
111.85,4.83,3.43,4.82,3.43,-3.43,-3.55,-3.70,1.40,1.39,1.40
112.97,4.78,3.42,4.78,3.42,-3.42,-3.55,-3.73,1.36,1.35,1.36
114.10,4.73,3.41,4.73,3.42,-3.42,-3.54,-3.76,1.31,1.31,1.32
115.24,4.68,3.40,4.68,3.41,-3.41,-3.54,-3.78,1.27,1.27,1.28
116.39,4.63,3.41,4.63,3.40,-3.40,-3.54,-3.80,1.23,1.23,1.22
117.55,4.58,3.39,4.58,3.40,-3.40,-3.53,-3.82,1.18,1.19,1.19
118.73,4.53,3.40,4.53,3.39,-3.39,-3.53,-3.84,1.14,1.14,1.13
119.92,4.48,3.39,4.48,3.39,-3.39,-3.52,-3.85,1.09,1.09,1.09
121.12,4.44,3.39,4.44,3.39,-3.39,-3.51,-3.86,1.05,1.05,1.05
122.33,4.39,3.39,4.39,3.39,-3.39,-3.51,-3.87,1.00,1.00,1.00
123.55,4.34,3.38,4.34,3.39,-3.39,-3.50,-3.87,0.95,0.95,0.96
124.79,4.30,3.39,4.29,3.39,-3.39,-3.50,-3.87,0.91,0.90,0.91
126.03,4.24,3.38,4.24,3.39,-3.39,-3.49,-3.86,0.85,0.85,0.86
127.29,4.20,3.40,4.20,3.40,-3.40,-3.48,-3.86,0.80,0.80,0.80
128.57,4.15,3.40,4.15,3.40,-3.40,-3.47,-3.84,0.75,0.75,0.75
129.85,4.10,3.40,4.11,3.40,-3.40,-3.47,-3.83,0.70,0.71,0.70
131.15,4.07,3.42,4.07,3.41,-3.41,-3.46,-3.81,0.66,0.66,0.65
132.46,4.02,3.42,4.03,3.41,-3.41,-3.45,-3.78,0.61,0.62,0.60
133.79,3.98,3.41,3.99,3.41,-3.41,-3.44,-3.76,0.57,0.57,0.57
135.12,3.94,3.42,3.95,3.42,-3.42,-3.43,-3.73,0.52,0.53,0.52
136.48,3.91,3.42,3.91,3.42,-3.42,-3.43,-3.70,0.49,0.49,0.49
137.84,3.88,3.42,3.88,3.42,-3.42,-3.42,-3.66,0.46,0.46,0.46
139.22,3.85,3.44,3.85,3.42,-3.42,-3.41,-3.62,0.43,0.42,0.41
140.61,3.81,3.42,3.81,3.43,-3.43,-3.40,-3.59,0.38,0.39,0.39
142.02,3.78,3.42,3.78,3.43,-3.43,-3.39,-3.55,0.35,0.36,0.36
143.44,3.76,3.43,3.75,3.43,-3.43,-3.38,-3.51,0.33,0.33,0.33
144.87,3.72,3.42,3.73,3.43,-3.43,-3.37,-3.46,0.29,0.30,0.30
146.32,3.70,3.43,3.70,3.43,-3.43,-3.36,-3.42,0.27,0.27,0.27
147.78,3.67,3.42,3.67,3.43,-3.43,-3.35,-3.38,0.24,0.24,0.25
149.26,3.64,3.42,3.64,3.42,-3.42,-3.33,-3.34,0.22,0.22,0.22
150.75,3.61,3.43,3.61,3.42,-3.42,-3.32,-3.30,0.19,0.19,0.18
152.26,3.58,3.42,3.58,3.42,-3.42,-3.31,-3.26,0.16,0.16,0.16
153.78,3.55,3.42,3.55,3.42,-3.42,-3.30,-3.22,0.13,0.13,0.13
155.32,3.52,3.42,3.51,3.42,-3.42,-3.29,-3.18,0.10,0.10,0.10
156.88,3.48,3.41,3.48,3.41,-3.41,-3.27,-3.14,0.07,0.06,0.07
158.44,3.45,3.42,3.44,3.41,-3.41,-3.26,-3.10,0.04,0.03,0.03
160.03,3.41,3.41,3.40,3.41,-3.41,-3.25,-3.07,0.00,-0.00,0.00
161.63,3.36,3.39,3.36,3.40,-3.40,-3.24,-3.03,-0.04,-0.04,-0.03
163.24,3.32,3.40,3.32,3.39,-3.39,-3.22,-3.00,-0.08,-0.07,-0.08
164.88,3.28,3.39,3.28,3.39,-3.39,-3.21,-2.97,-0.11,-0.11,-0.11
166.53,3.24,3.39,3.23,3.38,-3.38,-3.19,-2.94,-0.14,-0.15,-0.15
168.19,3.19,3.37,3.19,3.37,-3.37,-3.18,-2.92,-0.18,-0.18,-0.18
169.87,3.14,3.36,3.14,3.36,-3.36,-3.17,-2.89,-0.22,-0.22,-0.22
171.57,3.09,3.35,3.09,3.35,-3.35,-3.15,-2.87,-0.26,-0.26,-0.26
173.29,3.05,3.35,3.05,3.34,-3.34,-3.14,-2.85,-0.29,-0.29,-0.30
175.02,2.99,3.32,3.00,3.33,-3.33,-3.12,-2.83,-0.34,-0.33,-0.33
176.77,2.95,3.32,2.95,3.31,-3.31,-3.10,-2.82,-0.36,-0.37,-0.37
178.54,2.90,3.30,2.90,3.30,-3.30,-3.09,-2.80,-0.40,-0.40,-0.40
180.32,2.85,3.29,2.85,3.29,-3.29,-3.07,-2.79,-0.44,-0.44,-0.45
182.13,2.79,3.27,2.80,3.27,-3.27,-3.06,-2.78,-0.48,-0.48,-0.48
183.95,2.74,3.25,2.75,3.26,-3.26,-3.04,-2.78,-0.52,-0.52,-0.51
185.79,2.70,3.25,2.69,3.25,-3.25,-3.02,-2.77,-0.55,-0.55,-0.55
187.65,2.65,3.23,2.64,3.23,-3.23,-3.01,-2.77,-0.58,-0.59,-0.58
189.52,2.59,3.21,2.59,3.22,-3.22,-2.99,-2.77,-0.63,-0.63,-0.62
191.42,2.54,3.20,2.54,3.20,-3.20,-2.97,-2.77,-0.66,-0.66,-0.66
193.33,2.49,3.19,2.49,3.18,-3.18,-2.95,-2.77,-0.69,-0.70,-0.70
195.27,2.43,3.17,2.44,3.17,-3.17,-2.93,-2.78,-0.74,-0.73,-0.74
197.22,2.39,3.16,2.38,3.15,-3.15,-2.92,-2.78,-0.76,-0.76,-0.77
199.19,2.33,3.13,2.33,3.13,-3.13,-2.90,-2.79,-0.80,-0.80,-0.80
201.18,2.28,3.12,2.28,3.11,-3.11,-2.88,-2.80,-0.83,-0.83,-0.84
203.19,2.23,3.09,2.23,3.09,-3.09,-2.86,-2.81,-0.86,-0.86,-0.86
205.23,2.17,3.06,2.17,3.07,-3.07,-2.84,-2.82,-0.90,-0.89,-0.89
207.28,2.12,3.03,2.12,3.04,-3.04,-2.82,-2.83,-0.92,-0.92,-0.91
209.35,2.07,3.02,2.07,3.02,-3.02,-2.80,-2.84,-0.95,-0.95,-0.95
211.44,2.02,2.99,2.02,2.99,-2.99,-2.78,-2.86,-0.97,-0.98,-0.97
213.56,1.97,2.97,1.97,2.97,-2.97,-2.76,-2.87,-1.00,-1.00,-1.00
215.69,1.92,2.95,1.91,2.94,-2.94,-2.74,-2.88,-1.02,-1.03,-1.03
217.85,1.87,2.92,1.86,2.91,-2.91,-2.72,-2.89,-1.04,-1.05,-1.05
220.03,1.81,2.89,1.81,2.89,-2.89,-2.70,-2.90,-1.08,-1.07,-1.08
222.23,1.76,2.86,1.76,2.86,-2.86,-2.68,-2.91,-1.10,-1.10,-1.10
224.45,1.71,2.83,1.72,2.84,-2.84,-2.65,-2.92,-1.13,-1.12,-1.12
226.70,1.66,2.80,1.67,2.81,-2.81,-2.63,-2.93,-1.15,-1.14,-1.14
228.96,1.62,2.77,1.62,2.79,-2.79,-2.61,-2.94,-1.17,-1.16,-1.15
231.25,1.58,2.75,1.58,2.76,-2.76,-2.59,-2.94,-1.18,-1.18,-1.17
233.57,1.53,2.72,1.53,2.73,-2.73,-2.56,-2.94,-1.20,-1.20,-1.19
235.90,1.49,2.71,1.49,2.71,-2.71,-2.54,-2.94,-1.22,-1.22,-1.22
238.26,1.45,2.69,1.45,2.68,-2.68,-2.52,-2.93,-1.23,-1.23,-1.24
240.64,1.40,2.64,1.40,2.65,-2.65,-2.49,-2.92,-1.25,-1.25,-1.24
243.05,1.37,2.63,1.36,2.62,-2.62,-2.47,-2.91,-1.25,-1.26,-1.26
245.48,1.32,2.60,1.32,2.59,-2.59,-2.45,-2.90,-1.27,-1.27,-1.28
247.93,1.28,2.57,1.28,2.56,-2.56,-2.42,-2.88,-1.28,-1.28,-1.29
250.41,1.24,2.53,1.24,2.53,-2.53,-2.40,-2.86,-1.29,-1.29,-1.29
252.92,1.20,2.50,1.20,2.50,-2.50,-2.37,-2.83,-1.30,-1.30,-1.30
255.45,1.15,2.47,1.15,2.47,-2.47,-2.35,-2.80,-1.32,-1.32,-1.32
258.00,1.11,2.43,1.11,2.43,-2.43,-2.32,-2.77,-1.32,-1.33,-1.32
260.58,1.06,2.39,1.06,2.40,-2.40,-2.30,-2.73,-1.34,-1.33,-1.33
263.19,1.02,2.36,1.01,2.36,-2.36,-2.27,-2.69,-1.34,-1.34,-1.34
265.82,0.97,2.32,0.97,2.32,-2.32,-2.25,-2.65,-1.35,-1.35,-1.35
268.48,0.92,2.28,0.92,2.28,-2.28,-2.22,-2.60,-1.36,-1.36,-1.36
271.16,0.88,2.25,0.87,2.24,-2.24,-2.19,-2.55,-1.36,-1.37,-1.37
273.87,0.82,2.20,0.82,2.20,-2.20,-2.17,-2.50,-1.38,-1.38,-1.38
276.61,0.77,2.16,0.77,2.16,-2.16,-2.14,-2.44,-1.39,-1.39,-1.39
279.38,0.72,2.13,0.72,2.12,-2.12,-2.11,-2.39,-1.40,-1.40,-1.41
282.17,0.67,2.08,0.67,2.08,-2.08,-2.09,-2.33,-1.41,-1.40,-1.41
284.99,0.62,2.03,0.62,2.03,-2.03,-2.06,-2.27,-1.41,-1.41,-1.41
287.84,0.57,1.98,0.57,1.99,-1.99,-2.03,-2.20,-1.42,-1.42,-1.41
290.72,0.52,1.95,0.52,1.94,-1.94,-2.00,-2.14,-1.42,-1.42,-1.43
293.63,0.47,1.90,0.47,1.90,-1.90,-1.97,-2.08,-1.43,-1.43,-1.43
296.57,0.42,1.85,0.42,1.85,-1.85,-1.94,-2.01,-1.43,-1.44,-1.43
299.53,0.37,1.81,0.37,1.81,-1.81,-1.91,-1.94,-1.44,-1.44,-1.44
302.53,0.32,1.76,0.32,1.76,-1.76,-1.88,-1.88,-1.44,-1.44,-1.44
305.55,0.27,1.71,0.27,1.71,-1.71,-1.85,-1.81,-1.44,-1.44,-1.44
308.61,0.21,1.66,0.22,1.67,-1.67,-1.82,-1.74,-1.46,-1.45,-1.45
311.69,0.17,1.62,0.17,1.62,-1.62,-1.79,-1.67,-1.45,-1.45,-1.45
314.81,0.12,1.57,0.12,1.57,-1.57,-1.76,-1.60,-1.45,-1.45,-1.45
317.96,0.07,1.53,0.07,1.52,-1.52,-1.73,-1.54,-1.45,-1.45,-1.46
321.14,0.02,1.47,0.02,1.47,-1.47,-1.70,-1.47,-1.45,-1.45,-1.45
324.35,-0.03,1.43,-0.03,1.42,-1.42,-1.67,-1.40,-1.45,-1.45,-1.46
327.59,-0.08,1.36,-0.08,1.37,-1.37,-1.64,-1.33,-1.46,-1.45,-1.44
330.87,-0.13,1.32,-0.13,1.33,-1.33,-1.60,-1.27,-1.46,-1.45,-1.45
334.18,-0.17,1.29,-0.18,1.28,-1.28,-1.57,-1.20,-1.45,-1.45,-1.46
337.52,-0.22,1.23,-0.22,1.23,-1.23,-1.54,-1.14,-1.45,-1.45,-1.45
340.90,-0.27,1.18,-0.27,1.18,-1.18,-1.50,-1.07,-1.45,-1.45,-1.45
344.30,-0.32,1.13,-0.32,1.13,-1.13,-1.47,-1.01,-1.45,-1.45,-1.45
347.75,-0.37,1.07,-0.37,1.08,-1.08,-1.43,-0.94,-1.45,-1.44,-1.44
351.23,-0.41,1.04,-0.41,1.03,-1.03,-1.40,-0.88,-1.44,-1.44,-1.45
354.74,-0.46,0.97,-0.46,0.98,-0.98,-1.36,-0.82,-1.44,-1.44,-1.43
358.28,-0.51,0.93,-0.51,0.93,-0.93,-1.33,-0.75,-1.44,-1.44,-1.44
361.87,-0.55,0.89,-0.55,0.88,-0.88,-1.29,-0.69,-1.43,-1.44,-1.44
365.49,-0.60,0.84,-0.60,0.84,-0.84,-1.25,-0.63,-1.44,-1.44,-1.44
369.14,-0.65,0.78,-0.65,0.79,-0.79,-1.21,-0.57,-1.44,-1.43,-1.43
372.83,-0.69,0.74,-0.70,0.74,-0.74,-1.18,-0.51,-1.43,-1.43,-1.43
376.56,-0.74,0.69,-0.74,0.69,-0.69,-1.14,-0.45,-1.43,-1.43,-1.43
380.33,-0.79,0.64,-0.79,0.64,-0.64,-1.10,-0.40,-1.43,-1.43,-1.43
384.13,-0.84,0.59,-0.84,0.59,-0.59,-1.06,-0.34,-1.43,-1.43,-1.43
387.97,-0.88,0.55,-0.88,0.55,-0.55,-1.02,-0.28,-1.43,-1.43,-1.43
391.85,-0.93,0.50,-0.93,0.50,-0.50,-0.98,-0.22,-1.43,-1.43,-1.43
395.77,-0.98,0.45,-0.98,0.45,-0.45,-0.93,-0.17,-1.43,-1.43,-1.43
399.73,-1.02,0.41,-1.02,0.40,-0.40,-0.89,-0.11,-1.42,-1.42,-1.43
403.72,-1.07,0.35,-1.07,0.35,-0.35,-0.85,-0.06,-1.42,-1.42,-1.42
407.76,-1.12,0.30,-1.12,0.31,-0.31,-0.80,-0.01,-1.43,-1.42,-1.42
411.84,-1.16,0.26,-1.16,0.26,-0.26,-0.76,0.05,-1.42,-1.42,-1.42
415.96,-1.20,0.21,-1.21,0.22,-0.22,-0.71,0.10,-1.42,-1.42,-1.41
420.12,-1.26,0.16,-1.25,0.17,-0.17,-0.67,0.15,-1.43,-1.42,-1.42
424.32,-1.30,0.13,-1.30,0.13,-0.13,-0.62,0.20,-1.43,-1.42,-1.43
428.56,-1.34,0.08,-1.34,0.08,-0.08,-0.57,0.25,-1.42,-1.42,-1.42
432.85,-1.38,0.04,-1.39,0.04,-0.04,-0.52,0.30,-1.42,-1.42,-1.42
437.18,-1.43,-0.00,-1.43,-0.01,0.01,-0.47,0.34,-1.42,-1.43,-1.43
441.55,-1.47,-0.04,-1.48,-0.05,0.05,-0.42,0.39,-1.42,-1.43,-1.43
445.96,-1.52,-0.09,-1.52,-0.09,0.09,-0.37,0.43,-1.43,-1.43,-1.43
450.42,-1.56,-0.13,-1.56,-0.13,0.13,-0.31,0.47,-1.43,-1.43,-1.43
454.93,-1.60,-0.17,-1.60,-0.17,0.17,-0.26,0.52,-1.43,-1.43,-1.43
459.48,-1.65,-0.22,-1.64,-0.22,0.22,-0.20,0.55,-1.43,-1.43,-1.43
464.07,-1.69,-0.27,-1.68,-0.25,0.25,-0.15,0.59,-1.44,-1.43,-1.42
468.71,-1.72,-0.30,-1.72,-0.29,0.29,-0.09,0.63,-1.43,-1.43,-1.42
473.40,-1.76,-0.34,-1.76,-0.33,0.33,-0.03,0.66,-1.43,-1.43,-1.42
478.13,-1.80,-0.38,-1.79,-0.37,0.37,0.03,0.69,-1.43,-1.42,-1.42
482.91,-1.82,-0.40,-1.83,-0.41,0.41,0.09,0.72,-1.41,-1.42,-1.42
487.74,-1.86,-0.44,-1.86,-0.44,0.44,0.15,0.75,-1.42,-1.42,-1.42
492.62,-1.89,-0.47,-1.89,-0.47,0.47,0.21,0.78,-1.42,-1.42,-1.42
497.55,-1.92,-0.50,-1.92,-0.51,0.51,0.27,0.80,-1.41,-1.41,-1.42
502.52,-1.95,-0.53,-1.95,-0.54,0.54,0.34,0.82,-1.41,-1.41,-1.42
507.55,-1.98,-0.57,-1.98,-0.57,0.57,0.40,0.84,-1.41,-1.41,-1.41
