frequency,raw,error,smoothed,error_smoothed,equalization,parametric_eq,fixed_band_eq,equalized_raw,equalized_smoothed,target
20.00,-6.78,-8.79,-6.77,-8.78,6.00,5.73,2.66,-0.78,-0.77,2.01
20.20,-6.71,-8.70,-6.72,-8.71,6.00,5.73,2.74,-0.71,-0.72,1.99
20.40,-6.65,-8.62,-6.66,-8.64,6.00,5.72,2.81,-0.65,-0.66,1.97
20.61,-6.59,-8.54,-6.59,-8.55,6.00,5.72,2.89,-0.59,-0.59,1.96
20.81,-6.51,-8.45,-6.52,-8.46,6.00,5.71,2.98,-0.51,-0.52,1.94
21.02,-6.43,-8.36,-6.41,-8.33,6.00,5.71,3.06,-0.43,-0.41,1.93
21.23,-6.27,-8.18,-6.27,-8.18,6.00,5.70,3.15,-0.27,-0.27,1.91
21.44,-6.10,-8.00,-6.11,-8.00,6.00,5.69,3.24,-0.10,-0.11,1.90
21.66,-5.95,-7.83,-5.93,-7.81,6.00,5.69,3.33,0.05,0.07,1.89
21.87,-5.78,-7.65,-5.80,-7.67,6.00,5.68,3.43,0.22,0.20,1.86
22.09,-5.69,-7.55,-5.73,-7.58,6.00,5.68,3.53,0.31,0.27,1.85
22.31,-5.72,-7.57,-5.71,-7.55,6.00,5.67,3.63,0.28,0.29,1.84
22.54,-5.75,-7.59,-5.75,-7.58,6.00,5.66,3.73,0.25,0.25,1.83
22.76,-5.77,-7.60,-5.78,-7.60,6.00,5.66,3.84,0.23,0.22,1.82
22.99,-5.80,-7.62,-5.78,-7.59,6.00,5.65,3.95,0.20,0.22,1.81
23.22,-5.75,-7.56,-5.76,-7.56,6.00,5.64,4.06,0.25,0.24,1.80
23.45,-5.70,-7.50,-5.71,-7.51,6.00,5.63,4.17,0.30,0.29,1.80
23.69,-5.65,-7.44,-5.66,-7.45,6.00,5.63,4.29,0.35,0.34,1.79
23.92,-5.61,-7.40,-5.61,-7.40,6.00,5.62,4.41,0.39,0.39,1.79
24.16,-5.57,-7.36,-5.57,-7.36,6.00,5.61,4.53,0.43,0.43,1.79
24.40,-5.53,-7.32,-5.55,-7.34,6.00,5.60,4.65,0.47,0.45,1.79
24.65,-5.50,-7.29,-5.52,-7.30,6.00,5.60,4.78,0.50,0.48,1.79
24.89,-5.46,-7.25,-5.42,-7.21,6.00,5.59,4.90,0.54,0.58,1.79
25.14,-5.28,-7.06,-5.25,-7.04,6.00,5.58,5.03,0.72,0.75,1.78
25.39,-4.98,-6.76,-4.99,-6.77,6.00,5.57,5.16,1.02,1.01,1.78
25.65,-4.71,-6.49,-4.69,-6.48,6.00,5.56,5.29,1.29,1.31,1.78
25.91,-4.43,-6.22,-4.48,-6.26,6.00,5.55,5.42,1.57,1.52,1.79
26.16,-4.36,-6.15,-4.39,-6.18,6.00,5.55,5.55,1.64,1.61,1.79
26.43,-4.43,-6.22,-4.41,-6.20,6.00,5.54,5.68,1.57,1.59,1.79
26.69,-4.52,-6.31,-4.50,-6.29,6.00,5.53,5.81,1.48,1.50,1.79
26.96,-4.60,-6.39,-4.61,-6.39,6.00,5.52,5.93,1.40,1.39,1.79
27.23,-4.70,-6.49,-4.71,-6.50,6.00,5.51,6.06,1.30,1.29,1.79
27.50,-4.81,-6.60,-4.84,-6.62,6.00,5.50,6.18,1.19,1.16,1.78
27.77,-4.91,-6.70,-4.91,-6.69,6.00,5.49,6.30,1.09,1.09,1.78
28.05,-4.95,-6.73,-4.88,-6.66,6.00,5.48,6.41,1.05,1.12,1.78
28.33,-4.71,-6.48,-4.71,-6.48,6.00,5.47,6.52,1.29,1.29,1.77
28.62,-4.48,-6.25,-4.47,-6.24,6.00,5.46,6.62,1.52,1.53,1.77
28.90,-4.22,-5.99,-4.30,-6.06,6.00,5.45,6.71,1.78,1.70,1.77
29.19,-4.25,-6.02,-4.29,-6.05,6.00,5.43,6.80,1.75,1.71,1.76
29.48,-4.42,-6.18,-4.40,-6.16,6.00,5.42,6.87,1.59,1.60,1.76
29.78,-4.57,-6.33,-4.55,-6.31,6.01,5.41,6.95,1.44,1.46,1.76
30.08,-4.67,-6.43,-4.62,-6.38,6.02,5.40,7.00,1.35,1.39,1.76
30.38,-4.59,-6.35,-4.61,-6.37,6.02,5.39,7.05,1.42,1.41,1.76
30.68,-4.51,-6.26,-4.53,-6.28,6.00,5.38,7.09,1.49,1.47,1.75
30.99,-4.43,-6.18,-4.43,-6.17,5.98,5.36,7.12,1.54,1.55,1.74
31.30,-4.33,-6.06,-4.32,-6.06,5.94,5.35,7.13,1.61,1.61,1.73
31.61,-4.21,-5.94,-4.22,-5.94,5.88,5.34,7.14,1.67,1.67,1.73
31.93,-4.11,-5.83,-4.11,-5.83,5.82,5.32,7.13,1.71,1.71,1.73
32.24,-4.01,-5.73,-4.01,-5.73,5.74,5.31,7.11,1.73,1.73,1.71
32.57,-3.93,-5.65,-3.93,-5.64,5.67,5.30,7.08,1.73,1.74,1.71
32.89,-3.86,-5.57,-3.87,-5.57,5.61,5.28,7.04,1.75,1.74,1.71
33.22,-3.81,-5.52,-3.81,-5.51,5.57,5.27,6.99,1.76,1.76,1.71
33.55,-3.77,-5.48,-3.77,-5.48,5.54,5.25,6.94,1.77,1.77,1.70
33.89,-3.74,-5.45,-3.76,-5.47,5.51,5.24,6.87,1.77,1.75,1.71
34.23,-3.78,-5.49,-3.80,-5.51,5.49,5.22,6.80,1.70,1.69,1.71
34.57,-3.84,-5.55,-3.85,-5.56,5.47,5.21,6.72,1.62,1.61,1.70
34.92,-3.91,-5.62,-3.87,-5.57,5.46,5.19,6.63,1.55,1.59,1.71
35.27,-3.82,-5.52,-3.77,-5.49,5.46,5.17,6.54,1.64,1.68,1.71
35.62,-3.64,-5.36,-3.65,-5.36,5.45,5.16,6.45,1.80,1.79,1.71
35.97,-3.49,-5.20,-3.58,-5.29,5.41,5.14,6.35,1.93,1.84,1.71
36.33,-3.61,-5.31,-3.63,-5.33,5.37,5.12,6.25,1.77,1.75,1.71
36.70,-3.74,-5.45,-3.71,-5.41,5.33,5.10,6.15,1.59,1.62,1.70
37.06,-3.82,-5.52,-3.73,-5.42,5.31,5.09,6.05,1.49,1.58,1.70
37.43,-3.62,-5.31,-3.62,-5.31,5.30,5.07,5.95,1.67,1.68,1.68
37.81,-3.42,-5.10,-3.49,-5.17,5.28,5.05,5.84,1.86,1.79,1.68
38.19,-3.40,-5.07,-3.47,-5.14,5.25,5.03,5.74,1.85,1.78,1.67
38.57,-3.55,-5.20,-3.55,-5.20,5.20,5.01,5.64,1.64,1.65,1.65
38.95,-3.71,-5.35,-3.60,-5.24,5.11,4.99,5.54,1.40,1.51,1.64
39.34,-3.55,-5.17,-3.54,-5.17,5.01,4.97,5.44,1.46,1.47,1.62
39.74,-3.34,-4.96,-3.39,-5.00,4.92,4.95,5.35,1.57,1.53,1.62
40.14,-3.19,-4.79,-3.20,-4.80,4.84,4.93,5.25,1.66,1.64,1.60
40.54,-3.10,-4.69,-3.10,-4.69,4.79,4.90,5.16,1.68,1.69,1.59
40.94,-3.03,-4.61,-3.04,-4.61,4.74,4.88,5.07,1.71,1.71,1.58
41.35,-3.02,-4.60,-3.01,-4.58,4.70,4.86,4.99,1.68,1.69,1.57
41.76,-3.02,-4.58,-3.04,-4.60,4.67,4.83,4.91,1.65,1.64,1.56
42.18,-3.09,-4.65,-3.15,-4.70,4.65,4.81,4.83,1.56,1.50,1.55
42.60,-3.26,-4.81,-3.25,-4.80,4.65,4.78,4.75,1.39,1.39,1.55
43.03,-3.39,-4.94,-3.27,-4.82,4.65,4.76,4.68,1.26,1.38,1.55
43.46,-3.18,-4.72,-3.19,-4.73,4.66,4.73,4.61,1.48,1.47,1.54
43.90,-2.98,-4.52,-3.04,-4.58,4.67,4.71,4.55,1.69,1.63,1.54
44.33,-2.92,-4.46,-2.92,-4.45,4.65,4.68,4.48,1.73,1.73,1.53
44.78,-2.92,-4.45,-2.94,-4.47,4.59,4.65,4.43,1.67,1.65,1.53
45.23,-3.00,-4.53,-3.06,-4.58,4.51,4.62,4.37,1.51,1.45,1.53
45.68,-3.16,-4.68,-3.12,-4.64,4.44,4.59,4.32,1.27,1.31,1.52
46.13,-3.18,-4.69,-3.04,-4.55,4.39,4.56,4.27,1.21,1.35,1.51
46.60,-2.85,-4.35,-2.87,-4.37,4.38,4.53,4.23,1.53,1.50,1.50
47.06,-2.55,-4.05,-2.69,-4.18,4.37,4.50,4.18,1.81,1.68,1.49
47.53,-2.64,-4.13,-2.62,-4.10,4.34,4.47,4.15,1.69,1.72,1.48
48.01,-2.72,-4.19,-2.75,-4.22,4.28,4.44,4.11,1.56,1.53,1.47
48.49,-2.90,-4.35,-2.92,-4.37,4.23,4.40,4.08,1.32,1.31,1.45
48.97,-3.07,-4.51,-2.94,-4.38,4.20,4.37,4.05,1.12,1.26,1.44
49.46,-2.87,-4.30,-2.87,-4.30,4.19,4.33,4.02,1.32,1.32,1.43
49.96,-2.65,-4.05,-2.73,-4.14,4.19,4.30,3.99,1.55,1.46,1.41
50.46,-2.62,-4.02,-2.62,-4.01,4.17,4.26,3.97,1.55,1.55,1.39
50.96,-2.62,-4.01,-2.67,-4.05,4.12,4.22,3.95,1.50,1.46,1.38
51.47,-2.74,-4.11,-2.75,-4.12,4.06,4.19,3.93,1.32,1.31,1.37
51.99,-2.87,-4.23,-2.76,-4.11,4.01,4.15,3.91,1.14,1.26,1.35
52.51,-2.70,-4.04,-2.70,-4.04,3.99,4.11,3.90,1.30,1.29,1.34
53.03,-2.52,-3.85,-2.59,-3.91,3.99,4.07,3.88,1.46,1.40,1.33
53.56,-2.52,-3.84,-2.53,-3.84,3.98,4.03,3.87,1.46,1.45,1.31
54.10,-2.55,-3.85,-2.61,-3.90,3.95,3.98,3.85,1.40,1.34,1.30
54.64,-2.72,-4.00,-2.68,-3.96,3.89,3.94,3.84,1.16,1.21,1.28
55.18,-2.76,-4.03,-2.66,-3.93,3.80,3.90,3.83,1.04,1.14,1.26
55.74,-2.54,-3.78,-2.61,-3.85,3.71,3.85,3.81,1.18,1.11,1.25
56.29,-2.42,-3.65,-2.49,-3.72,3.64,3.81,3.80,1.22,1.15,1.23
56.86,-2.42,-3.63,-2.32,-3.54,3.59,3.76,3.78,1.17,1.26,1.21
57.42,-2.24,-3.43,-2.20,-3.40,3.54,3.72,3.76,1.30,1.34,1.19
58.00,-2.00,-3.19,-2.11,-3.29,3.48,3.67,3.75,1.48,1.37,1.18
58.58,-2.12,-3.29,-2.14,-3.31,3.44,3.62,3.72,1.31,1.29,1.16
59.16,-2.28,-3.42,-2.30,-3.45,3.40,3.58,3.70,1.13,1.10,1.14
59.76,-2.53,-3.65,-2.43,-3.55,3.38,3.53,3.68,0.84,0.95,1.12
60.35,-2.49,-3.59,-2.42,-3.52,3.36,3.48,3.65,0.87,0.94,1.10
60.96,-2.25,-3.32,-2.35,-3.43,3.36,3.43,3.62,1.12,1.02,1.08
61.57,-2.22,-3.28,-2.24,-3.29,3.36,3.39,3.58,1.14,1.12,1.05
62.18,-2.22,-3.25,-2.20,-3.23,3.35,3.34,3.55,1.12,1.15,1.03
62.80,-2.22,-3.22,-2.20,-3.21,3.31,3.29,3.50,1.08,1.10,1.00
63.43,-2.22,-3.19,-2.24,-3.22,3.25,3.24,3.46,1.02,1.00,0.97
64.07,-2.24,-3.19,-2.32,-3.26,3.19,3.19,3.41,0.95,0.87,0.94
64.71,-2.43,-3.34,-2.34,-3.25,3.15,3.15,3.36,0.71,0.81,0.91
65.35,-2.38,-3.26,-2.31,-3.19,3.10,3.10,3.31,0.72,0.79,0.88
66.01,-2.12,-2.97,-2.23,-3.08,3.05,3.05,3.25,0.93,0.82,0.84
66.67,-2.12,-2.94,-2.13,-2.94,3.00,3.00,3.19,0.88,0.87,0.81
67.33,-2.12,-2.90,-2.10,-2.88,2.96,2.96,3.13,0.83,0.86,0.77
68.01,-2.12,-2.87,-2.12,-2.86,2.91,2.91,3.07,0.79,0.79,0.74
68.69,-2.12,-2.83,-2.11,-2.81,2.87,2.86,3.00,0.75,0.76,0.70
69.37,-2.12,-2.79,-2.15,-2.81,2.83,2.82,2.93,0.70,0.68,0.67
70.07,-2.14,-2.77,-2.22,-2.85,2.79,2.77,2.86,0.65,0.57,0.63
70.77,-2.34,-2.94,-2.25,-2.85,2.75,2.73,2.79,0.41,0.50,0.59
71.48,-2.27,-2.83,-2.23,-2.79,2.71,2.68,2.71,0.43,0.48,0.56
72.19,-2.10,-2.62,-2.16,-2.68,2.65,2.63,2.64,0.55,0.49,0.51
72.91,-2.03,-2.51,-2.06,-2.53,2.58,2.59,2.56,0.55,0.53,0.48
73.64,-2.02,-2.47,-2.01,-2.45,2.51,2.54,2.48,0.49,0.50,0.44
74.38,-2.02,-2.43,-2.02,-2.42,2.45,2.49,2.41,0.42,0.43,0.40
75.12,-2.02,-2.38,-2.02,-2.38,2.39,2.44,2.33,0.37,0.37,0.36
75.87,-2.02,-2.34,-2.02,-2.34,2.35,2.40,2.25,0.33,0.33,0.32
76.63,-2.02,-2.30,-2.01,-2.28,2.33,2.35,2.17,0.30,0.32,0.28
77.40,-2.02,-2.26,-2.05,-2.28,2.30,2.30,2.09,0.28,0.25,0.23
78.17,-2.05,-2.25,-2.11,-2.30,2.27,2.25,2.01,0.21,0.16,0.19
78.95,-2.21,-2.36,-2.14,-2.29,2.22,2.20,1.94,0.01,0.08,0.15
79.74,-2.15,-2.26,-2.12,-2.23,2.15,2.15,1.86,-0.00,0.03,0.11
80.54,-2.02,-2.09,-2.05,-2.11,2.07,2.10,1.78,0.05,0.02,0.06
81.35,-1.92,-1.94,-1.97,-1.99,1.99,2.04,1.70,0.06,0.02,0.02
82.16,-1.92,-1.90,-1.91,-1.88,1.90,1.99,1.63,-0.02,-0.01,-0.03
82.98,-1.92,-1.85,-1.85,-1.78,1.82,1.94,1.55,-0.10,-0.03,-0.07
83.81,-1.78,-1.66,-1.81,-1.69,1.76,1.88,1.48,-0.02,-0.05,-0.12
84.65,-1.75,-1.58,-1.82,-1.65,1.72,1.83,1.41,-0.03,-0.10,-0.17
85.50,-1.88,-1.66,-1.87,-1.65,1.71,1.77,1.33,-0.18,-0.17,-0.23
86.35,-2.02,-1.75,-1.95,-1.67,1.70,1.71,1.26,-0.32,-0.25,-0.28
87.22,-2.02,-1.70,-2.04,-1.71,1.69,1.65,1.19,-0.34,-0.35,-0.33
88.09,-2.03,-1.66,-2.13,-1.75,1.66,1.59,1.12,-0.37,-0.47,-0.38
88.97,-2.22,-1.80,-2.16,-1.73,1.63,1.53,1.05,-0.60,-0.53,-0.43
89.86,-2.23,-1.74,-2.14,-1.65,1.57,1.47,0.98,-0.66,-0.56,-0.49
90.76,-1.99,-1.45,-2.06,-1.52,1.50,1.41,0.91,-0.49,-0.56,-0.54
91.66,-1.91,-1.31,-1.95,-1.35,1.42,1.35,0.85,-0.50,-0.54,-0.60
92.58,-1.91,-1.26,-1.89,-1.24,1.32,1.29,0.78,-0.59,-0.57,-0.66
93.51,-1.91,-1.19,-1.91,-1.18,1.22,1.22,0.71,-0.69,-0.69,-0.72
94.44,-1.91,-1.13,-1.91,-1.13,1.12,1.16,0.65,-0.79,-0.79,-0.78
95.39,-1.91,-1.06,-1.91,-1.06,1.05,1.10,0.58,-0.87,-0.87,-0.85
96.34,-1.91,-1.00,-1.92,-1.00,0.99,1.03,0.52,-0.93,-0.93,-0.91
97.30,-1.92,-0.93,-1.92,-0.94,0.94,0.97,0.46,-0.98,-0.98,-0.99
98.28,-1.93,-0.88,-1.93,-0.87,0.90,0.90,0.40,-1.03,-1.03,-1.05
99.26,-1.94,-0.81,-1.94,-0.81,0.85,0.84,0.34,-1.10,-1.09,-1.13
100.25,-1.96,-0.76,-2.00,-0.80,0.78,0.77,0.27,-1.18,-1.22,-1.21
101.25,-2.03,-0.75,-2.05,-0.77,0.71,0.70,0.22,-1.32,-1.34,-1.28
102.27,-2.15,-0.80,-2.06,-0.70,0.64,0.64,0.16,-1.51,-1.42,-1.36
103.29,-2.01,-0.58,-2.03,-0.60,0.57,0.57,0.10,-1.44,-1.46,-1.43
104.32,-1.92,-0.41,-1.98,-0.47,0.49,0.50,0.04,-1.43,-1.48,-1.51
105.37,-1.94,-0.36,-1.94,-0.34,0.41,0.44,-0.02,-1.53,-1.53,-1.59
106.42,-1.97,-0.30,-1.96,-0.29,0.32,0.37,-0.07,-1.65,-1.64,-1.67
107.48,-1.99,-0.24,-2.00,-0.26,0.23,0.30,-0.13,-1.76,-1.77,-1.75
108.56,-2.02,-0.21,-2.03,-0.21,0.16,0.24,-0.18,-1.86,-1.87,-1.82
109.64,-2.04,-0.15,-2.01,-0.12,0.10,0.17,-0.23,-1.94,-1.91,-1.89
110.74,-2.01,-0.05,-1.99,-0.02,0.06,0.10,-0.28,-1.96,-1.93,-1.97
111.85,-1.92,0.11,-2.00,0.03,0.02,0.04,-0.33,-1.90,-1.98,-2.03
112.97,-2.03,0.07,-2.05,0.05,-0.00,-0.03,-0.38,-2.04,-2.05,-2.10
114.10,-2.19,-0.03,-2.13,0.04,-0.03,-0.09,-0.43,-2.22,-2.16,-2.16
115.24,-2.19,0.04,-2.19,0.04,-0.06,-0.16,-0.48,-2.26,-2.25,-2.23
116.39,-2.19,0.10,-2.22,0.07,-0.10,-0.22,-0.52,-2.30,-2.32,-2.29
117.55,-2.20,0.14,-2.25,0.10,-0.15,-0.29,-0.56,-2.35,-2.40,-2.35
118.73,-2.30,0.11,-2.26,0.15,-0.21,-0.35,-0.61,-2.51,-2.46,-2.41
119.92,-2.29,0.17,-2.22,0.24,-0.28,-0.41,-0.65,-2.57,-2.50,-2.46
121.12,-2.07,0.44,-2.15,0.36,-0.36,-0.48,-0.69,-2.43,-2.51,-2.52
122.33,-2.06,0.51,-2.07,0.50,-0.44,-0.54,-0.72,-2.51,-2.52,-2.57
123.55,-2.05,0.57,-2.04,0.58,-0.53,-0.60,-0.76,-2.58,-2.57,-2.62
124.79,-2.05,0.62,-2.05,0.62,-0.61,-0.66,-0.79,-2.66,-2.66,-2.67
126.03,-2.04,0.68,-2.04,0.68,-0.68,-0.72,-0.83,-2.72,-2.72,-2.72
127.29,-2.03,0.74,-2.04,0.74,-0.75,-0.78,-0.86,-2.78,-2.78,-2.77
128.57,-2.03,0.79,-2.03,0.79,-0.81,-0.83,-0.89,-2.84,-2.84,-2.82
129.85,-2.02,0.85,-2.02,0.85,-0.86,-0.89,-0.92,-2.89,-2.89,-2.87
131.15,-2.01,0.91,-2.02,0.90,-0.91,-0.95,-0.94,-2.93,-2.93,-2.92
132.46,-2.01,0.95,-2.02,0.95,-0.96,-1.00,-0.97,-2.97,-2.98,-2.97
133.79,-2.01,1.00,-1.99,1.02,-1.00,-1.06,-0.99,-3.02,-3.00,-3.01
135.12,-1.99,1.07,-1.96,1.10,-1.05,-1.11,-1.02,-3.04,-3.01,-3.06
136.48,-1.90,1.20,-1.97,1.13,-1.09,-1.16,-1.04,-2.99,-3.06,-3.10
137.84,-1.99,1.15,-2.02,1.13,-1.13,-1.21,-1.06,-3.13,-3.16,-3.15
139.22,-2.13,1.07,-2.06,1.13,-1.18,-1.26,-1.09,-3.31,-3.24,-3.20
140.61,-2.12,1.12,-2.09,1.16,-1.23,-1.31,-1.11,-3.35,-3.31,-3.25
142.02,-1.99,1.30,-2.05,1.25,-1.27,-1.36,-1.13,-3.27,-3.32,-3.30
143.44,-1.99,1.35,-2.00,1.35,-1.32,-1.41,-1.15,-3.32,-3.32,-3.35
144.87,-1.99,1.40,-1.98,1.41,-1.37,-1.46,-1.17,-3.37,-3.36,-3.40
146.32,-1.99,1.44,-1.99,1.45,-1.43,-1.50,-1.19,-3.43,-3.43,-3.44
147.78,-1.99,1.49,-1.99,1.49,-1.49,-1.55,-1.21,-3.48,-3.48,-3.49
149.26,-1.99,1.54,-1.99,1.54,-1.55,-1.59,-1.23,-3.54,-3.54,-3.53
150.75,-1.99,1.59,-1.99,1.59,-1.59,-1.63,-1.25,-3.59,-3.59,-3.58
152.26,-1.99,1.63,-1.99,1.63,-1.63,-1.67,-1.27,-3.63,-3.63,-3.63
153.78,-1.99,1.67,-1.99,1.67,-1.67,-1.71,-1.29,-3.67,-3.67,-3.66
155.32,-1.99,1.71,-1.99,1.72,-1.72,-1.75,-1.32,-3.71,-3.71,-3.71
156.88,-1.99,1.76,-1.99,1.76,-1.77,-1.79,-1.34,-3.76,-3.76,-3.75
158.44,-1.99,1.80,-1.99,1.80,-1.81,-1.83,-1.36,-3.81,-3.81,-3.80
160.03,-1.99,1.84,-2.00,1.85,-1.85,-1.86,-1.39,-3.85,-3.85,-3.84
161.63,-1.99,1.90,-1.99,1.89,-1.89,-1.90,-1.41,-3.88,-3.88,-3.89
163.24,-1.99,1.94,-1.97,1.96,-1.92,-1.93,-1.44,-3.92,-3.90,-3.93
164.88,-1.97,2.00,-1.98,1.99,-1.96,-1.96,-1.47,-3.93,-3.93,-3.97
166.53,-1.95,2.06,-2.02,1.99,-1.99,-2.00,-1.50,-3.94,-4.00,-4.01
168.19,-2.09,1.95,-2.05,2.00,-2.02,-2.03,-1.53,-4.11,-4.07,-4.05
169.87,-2.11,1.97,-2.07,2.01,-2.05,-2.06,-1.56,-4.16,-4.12,-4.09
171.57,-2.04,2.08,-2.08,2.05,-2.08,-2.09,-1.59,-4.12,-4.15,-4.12
173.29,-2.03,2.12,-2.04,2.11,-2.10,-2.12,-1.63,-4.14,-4.15,-4.16
175.02,-2.03,2.15,-2.03,2.16,-2.13,-2.15,-1.66,-4.17,-4.16,-4.18
176.77,-2.04,2.17,-2.04,2.18,-2.17,-2.17,-1.70,-4.21,-4.21,-4.22
178.54,-2.04,2.21,-2.04,2.21,-2.20,-2.20,-1.74,-4.25,-4.24,-4.25
180.32,-2.03,2.24,-2.04,2.24,-2.24,-2.23,-1.78,-4.27,-4.28,-4.28
182.13,-2.03,2.26,-2.03,2.27,-2.27,-2.25,-1.82,-4.31,-4.31,-4.30
183.95,-2.02,2.30,-2.02,2.30,-2.31,-2.28,-1.86,-4.33,-4.33,-4.32
185.79,-2.01,2.33,-2.01,2.33,-2.33,-2.30,-1.91,-4.35,-4.35,-4.34
187.65,-1.99,2.37,-2.00,2.36,-2.36,-2.33,-1.95,-4.36,-4.36,-4.36
189.52,-1.98,2.40,-1.98,2.39,-2.39,-2.35,-2.00,-4.37,-4.37,-4.38
191.42,-1.97,2.42,-1.97,2.43,-2.41,-2.38,-2.04,-4.39,-4.38,-4.39
193.33,-1.95,2.46,-1.95,2.46,-2.44,-2.40,-2.09,-4.40,-4.39,-4.41
195.27,-1.93,2.49,-1.95,2.48,-2.48,-2.42,-2.14,-4.41,-4.42,-4.43
197.22,-1.94,2.50,-1.95,2.49,-2.52,-2.44,-2.19,-4.46,-4.47,-4.45
199.19,-1.96,2.50,-1.95,2.51,-2.56,-2.47,-2.24,-4.52,-4.51,-4.46
201.18,-1.95,2.53,-1.93,2.56,-2.60,-2.49,-2.30,-4.55,-4.52,-4.48
203.19,-1.86,2.63,-1.86,2.63,-2.63,-2.51,-2.35,-4.49,-4.49,-4.50
205.23,-1.78,2.73,-1.80,2.71,-2.65,-2.53,-2.40,-4.44,-4.46,-4.51
207.28,-1.76,2.76,-1.79,2.74,-2.68,-2.56,-2.46,-4.44,-4.46,-4.53
209.35,-1.82,2.72,-1.82,2.72,-2.69,-2.58,-2.51,-4.52,-4.51,-4.54
211.44,-1.89,2.67,-1.87,2.69,-2.71,-2.60,-2.56,-4.60,-4.58,-4.57
213.56,-1.90,2.68,-1.91,2.68,-2.71,-2.62,-2.62,-4.62,-4.62,-4.58
215.69,-1.91,2.69,-1.92,2.69,-2.72,-2.64,-2.67,-4.63,-4.63,-4.60
217.85,-1.91,2.70,-1.91,2.70,-2.71,-2.66,-2.72,-4.63,-4.63,-4.62
220.03,-1.91,2.72,-1.92,2.72,-2.71,-2.69,-2.77,-4.63,-4.63,-4.64
222.23,-1.92,2.73,-1.92,2.73,-2.72,-2.71,-2.82,-4.64,-4.64,-4.65
224.45,-1.92,2.74,-1.92,2.74,-2.73,-2.73,-2.87,-4.65,-4.65,-4.66
226.70,-1.91,2.76,-1.92,2.75,-2.74,-2.75,-2.92,-4.66,-4.66,-4.67
228.96,-1.91,2.77,-1.91,2.77,-2.76,-2.77,-2.96,-4.68,-4.67,-4.68
231.25,-1.90,2.78,-1.91,2.78,-2.78,-2.79,-3.00,-4.69,-4.69,-4.68
233.57,-1.90,2.79,-1.91,2.78,-2.81,-2.82,-3.04,-4.71,-4.72,-4.69
235.90,-1.90,2.80,-1.89,2.81,-2.84,-2.84,-3.08,-4.74,-4.72,-4.70
238.26,-1.86,2.84,-1.85,2.86,-2.87,-2.86,-3.12,-4.73,-4.71,-4.70
240.64,-1.77,2.93,-1.80,2.90,-2.90,-2.88,-3.15,-4.67,-4.70,-4.70
243.05,-1.74,2.96,-1.75,2.95,-2.93,-2.90,-3.18,-4.68,-4.68,-4.70
245.48,-1.72,2.97,-1.71,2.98,-2.97,-2.92,-3.20,-4.69,-4.68,-4.70
247.93,-1.69,3.00,-1.70,3.00,-3.00,-2.94,-3.22,-4.69,-4.69,-4.70
250.41,-1.67,3.02,-1.67,3.02,-3.02,-2.96,-3.24,-4.69,-4.69,-4.69
252.92,-1.65,3.04,-1.65,3.04,-3.04,-2.98,-3.26,-4.69,-4.70,-4.69
255.45,-1.64,3.06,-1.64,3.05,-3.06,-3.00,-3.27,-4.70,-4.70,-4.70
258.00,-1.63,3.06,-1.63,3.06,-3.06,-3.02,-3.28,-4.70,-4.70,-4.70
260.58,-1.63,3.07,-1.63,3.07,-3.07,-3.04,-3.28,-4.70,-4.70,-4.70
263.19,-1.62,3.09,-1.63,3.08,-3.08,-3.06,-3.28,-4.70,-4.71,-4.71
265.82,-1.63,3.09,-1.63,3.09,-3.09,-3.08,-3.28,-4.72,-4.72,-4.73
268.48,-1.63,3.10,-1.63,3.10,-3.10,-3.10,-3.28,-4.73,-4.73,-4.73
271.16,-1.63,3.11,-1.64,3.10,-3.12,-3.12,-3.27,-4.75,-4.76,-4.75
273.87,-1.64,3.11,-1.64,3.11,-3.14,-3.14,-3.26,-4.78,-4.78,-4.75
276.61,-1.64,3.13,-1.63,3.15,-3.16,-3.15,-3.25,-4.81,-4.79,-4.77
279.38,-1.59,3.19,-1.60,3.19,-3.19,-3.17,-3.24,-4.78,-4.78,-4.78
282.17,-1.54,3.25,-1.56,3.23,-3.21,-3.19,-3.23,-4.76,-4.77,-4.79
284.99,-1.53,3.26,-1.53,3.26,-3.24,-3.21,-3.22,-4.77,-4.77,-4.79
287.84,-1.52,3.27,-1.52,3.27,-3.26,-3.22,-3.20,-4.78,-4.78,-4.79
290.72,-1.51,3.28,-1.51,3.28,-3.28,-3.24,-3.19,-4.80,-4.80,-4.79
293.63,-1.50,3.29,-1.50,3.29,-3.30,-3.26,-3.17,-4.80,-4.80,-4.80
296.57,-1.49,3.30,-1.49,3.30,-3.31,-3.27,-3.16,-4.80,-4.80,-4.79
299.53,-1.47,3.31,-1.48,3.31,-3.31,-3.29,-3.14,-4.79,-4.79,-4.79
302.53,-1.46,3.33,-1.46,3.32,-3.32,-3.30,-3.13,-4.78,-4.78,-4.79
305.55,-1.45,3.33,-1.45,3.33,-3.33,-3.32,-3.12,-4.78,-4.78,-4.78
308.61,-1.44,3.34,-1.45,3.34,-3.34,-3.33,-3.11,-4.79,-4.79,-4.79
311.69,-1.44,3.35,-1.45,3.34,-3.36,-3.35,-3.10,-4.81,-4.81,-4.79
314.81,-1.43,3.36,-1.44,3.36,-3.38,-3.36,-3.09,-4.81,-4.82,-4.80
317.96,-1.43,3.36,-1.41,3.39,-3.40,-3.38,-3.08,-4.83,-4.81,-4.80
321.14,-1.36,3.44,-1.38,3.42,-3.42,-3.39,-3.07,-4.78,-4.79,-4.80
324.35,-1.33,3.46,-1.35,3.45,-3.43,-3.40,-3.07,-4.77,-4.78,-4.79
327.59,-1.33,3.46,-1.33,3.47,-3.45,-3.41,-3.07,-4.78,-4.78,-4.80
330.87,-1.33,3.47,-1.33,3.47,-3.46,-3.43,-3.07,-4.79,-4.79,-4.80
334.18,-1.33,3.47,-1.34,3.47,-3.46,-3.44,-3.07,-4.80,-4.80,-4.80
337.52,-1.34,3.46,-1.34,3.47,-3.46,-3.45,-3.07,-4.81,-4.80,-4.81
340.90,-1.34,3.46,-1.34,3.46,-3.46,-3.46,-3.08,-4.80,-4.80,-4.81
344.30,-1.34,3.46,-1.35,3.46,-3.46,-3.48,-3.09,-4.80,-4.80,-4.80
347.75,-1.34,3.45,-1.34,3.45,-3.46,-3.49,-3.10,-4.80,-4.81,-4.79
351.23,-1.34,3.46,-1.35,3.45,-3.47,-3.50,-3.12,-4.81,-4.81,-4.81
354.74,-1.33,3.45,-1.33,3.46,-3.48,-3.51,-3.13,-4.81,-4.81,-4.79
358.28,-1.32,3.47,-1.30,3.48,-3.49,-3.52,-3.15,-4.82,-4.80,-4.79
361.87,-1.25,3.53,-1.27,3.51,-3.51,-3.53,-3.17,-4.76,-4.78,-4.78
365.49,-1.22,3.55,-1.23,3.54,-3.52,-3.54,-3.20,-4.75,-4.76,-4.77
369.14,-1.21,3.56,-1.21,3.56,-3.54,-3.55,-3.22,-4.75,-4.74,-4.78
372.83,-1.20,3.55,-1.20,3.56,-3.55,-3.56,-3.25,-4.75,-4.75,-4.76
376.56,-1.19,3.57,-1.20,3.56,-3.56,-3.58,-3.28,-4.76,-4.76,-4.76
380.33,-1.19,3.57,-1.19,3.57,-3.58,-3.59,-3.31,-4.77,-4.77,-4.76
384.13,-1.18,3.58,-1.19,3.57,-3.59,-3.60,-3.35,-4.78,-4.78,-4.76
387.97,-1.17,3.59,-1.18,3.58,-3.61,-3.61,-3.39,-4.78,-4.78,-4.76
391.85,-1.17,3.58,-1.15,3.61,-3.62,-3.62,-3.43,-4.80,-4.77,-4.76
395.77,-1.10,3.66,-1.12,3.65,-3.64,-3.63,-3.47,-4.75,-4.76,-4.77
399.73,-1.07,3.69,-1.09,3.68,-3.66,-3.64,-3.51,-4.74,-4.75,-4.77
403.72,-1.07,3.70,-1.07,3.71,-3.68,-3.65,-3.55,-4.76,-4.75,-4.77
407.76,-1.08,3.71,-1.08,3.71,-3.70,-3.66,-3.60,-4.78,-4.78,-4.79
411.84,-1.08,3.71,-1.08,3.71,-3.71,-3.67,-3.64,-4.79,-4.79,-4.79
415.96,-1.08,3.71,-1.09,3.71,-3.71,-3.68,-3.69,-4.80,-4.80,-4.79
420.12,-1.08,3.72,-1.08,3.72,-3.72,-3.69,-3.74,-4.80,-4.80,-4.80
424.32,-1.07,3.72,-1.08,3.72,-3.72,-3.70,-3.78,-4.79,-4.79,-4.80
428.56,-1.06,3.72,-1.07,3.72,-3.72,-3.71,-3.83,-4.78,-4.79,-4.79
432.85,-1.05,3.71,-1.05,3.72,-3.73,-3.72,-3.87,-4.78,-4.78,-4.77
437.18,-1.02,3.74,-1.03,3.72,-3.75,-3.73,-3.92,-4.77,-4.78,-4.76
441.55,-0.99,3.73,-0.98,3.74,-3.76,-3.74,-3.96,-4.76,-4.74,-4.72
445.96,-0.91,3.77,-0.90,3.78,-3.78,-3.75,-4.01,-4.70,-4.69,-4.68
450.42,-0.79,3.84,-0.82,3.81,-3.80,-3.77,-4.05,-4.60,-4.62,-4.63
454.93,-0.73,3.85,-0.73,3.85,-3.82,-3.78,-4.08,-4.56,-4.56,-4.58
459.48,-0.67,3.85,-0.67,3.86,-3.84,-3.79,-4.12,-4.52,-4.51,-4.52
464.07,-0.61,3.86,-0.62,3.86,-3.86,-3.80,-4.15,-4.47,-4.47,-4.47
