frequency,raw,smoothed,error,error_smoothed,equalization,parametric_eq,fixed_band_eq,equalized_raw,equalized_smoothed,target
20.00,-6.78,-6.77,-9.65,-9.64,6.00,5.95,2.77,-0.78,-0.77,2.87
20.20,-6.71,-6.72,-9.58,-9.59,6.00,5.95,2.85,-0.71,-0.72,2.87
20.40,-6.65,-6.66,-9.52,-9.53,6.00,5.95,2.93,-0.65,-0.66,2.87
20.61,-6.59,-6.59,-9.45,-9.46,6.00,5.95,3.01,-0.59,-0.59,2.86
20.81,-6.51,-6.52,-9.38,-9.38,6.00,5.94,3.10,-0.51,-0.52,2.86
21.02,-6.43,-6.41,-9.30,-9.27,6.00,5.94,3.19,-0.43,-0.41,2.86
21.23,-6.27,-6.27,-9.14,-9.14,6.00,5.94,3.28,-0.27,-0.27,2.86
21.44,-6.10,-6.11,-8.96,-8.97,6.00,5.93,3.37,-0.10,-0.11,2.86
21.66,-5.95,-5.93,-8.81,-8.79,6.00,5.93,3.46,0.05,0.07,2.86
21.87,-5.78,-5.80,-8.64,-8.66,6.00,5.93,3.57,0.22,0.20,2.86
22.09,-5.69,-5.73,-8.55,-8.58,6.00,5.92,3.67,0.31,0.27,2.86
22.31,-5.72,-5.71,-8.58,-8.57,6.00,5.92,3.77,0.28,0.29,2.86
22.54,-5.75,-5.75,-8.61,-8.60,6.00,5.92,3.88,0.25,0.25,2.86
22.76,-5.77,-5.78,-8.63,-8.64,6.00,5.91,3.99,0.23,0.22,2.86
22.99,-5.80,-5.78,-8.66,-8.64,6.00,5.91,4.10,0.20,0.22,2.86
23.22,-5.75,-5.76,-8.61,-8.61,6.00,5.90,4.22,0.25,0.24,2.85
23.45,-5.70,-5.71,-8.56,-8.56,6.00,5.90,4.33,0.30,0.29,2.85
23.69,-5.65,-5.66,-8.51,-8.51,6.00,5.90,4.45,0.35,0.34,2.85
23.92,-5.61,-5.61,-8.46,-8.46,6.00,5.89,4.58,0.39,0.39,2.85
24.16,-5.57,-5.57,-8.42,-8.42,6.00,5.89,4.70,0.43,0.43,2.85
24.40,-5.53,-5.55,-8.38,-8.40,6.00,5.88,4.83,0.47,0.45,2.85
24.65,-5.50,-5.52,-8.35,-8.37,6.00,5.88,4.96,0.50,0.48,2.85
24.89,-5.46,-5.42,-8.31,-8.27,6.00,5.87,5.09,0.54,0.58,2.85
25.14,-5.28,-5.25,-8.12,-8.10,6.00,5.87,5.22,0.72,0.75,2.84
25.39,-4.98,-4.99,-7.82,-7.83,6.00,5.87,5.35,1.02,1.01,2.84
25.65,-4.71,-4.69,-7.55,-7.53,6.00,5.86,5.49,1.29,1.31,2.84
25.91,-4.43,-4.48,-7.27,-7.32,6.00,5.86,5.62,1.57,1.52,2.84
26.16,-4.36,-4.39,-7.19,-7.23,6.00,5.85,5.76,1.64,1.61,2.84
26.43,-4.43,-4.41,-7.27,-7.25,6.00,5.85,5.89,1.57,1.59,2.84
26.69,-4.52,-4.50,-7.36,-7.34,6.00,5.84,6.03,1.48,1.50,2.84
26.96,-4.60,-4.61,-7.44,-7.44,6.00,5.83,6.16,1.40,1.39,2.83
27.23,-4.70,-4.71,-7.53,-7.54,6.00,5.83,6.29,1.30,1.29,2.83
27.50,-4.81,-4.84,-7.64,-7.67,6.00,5.82,6.42,1.19,1.16,2.83
27.77,-4.91,-4.91,-7.74,-7.74,6.00,5.82,6.54,1.09,1.09,2.83
28.05,-4.95,-4.88,-7.78,-7.70,6.00,5.81,6.66,1.05,1.12,2.83
28.33,-4.71,-4.71,-7.54,-7.53,6.00,5.81,6.77,1.29,1.29,2.82
28.62,-4.48,-4.47,-7.30,-7.29,6.00,5.80,6.88,1.52,1.53,2.82
28.90,-4.22,-4.30,-7.04,-7.12,6.00,5.79,6.97,1.78,1.70,2.82
29.19,-4.25,-4.29,-7.07,-7.10,6.00,5.79,7.07,1.75,1.71,2.82
29.48,-4.42,-4.40,-7.23,-7.22,6.00,5.78,7.15,1.58,1.60,2.81
29.78,-4.57,-4.55,-7.38,-7.36,6.00,5.77,7.23,1.43,1.45,2.81
30.08,-4.67,-4.62,-7.48,-7.43,6.00,5.77,7.29,1.33,1.38,2.81
30.38,-4.59,-4.61,-7.40,-7.42,6.00,5.76,7.35,1.41,1.39,2.81
30.68,-4.51,-4.53,-7.32,-7.34,6.00,5.75,7.39,1.49,1.47,2.80
30.99,-4.43,-4.43,-7.24,-7.23,6.00,5.74,7.42,1.57,1.57,2.80
31.30,-4.33,-4.32,-7.12,-7.12,6.00,5.74,7.44,1.67,1.68,2.80
31.61,-4.21,-4.22,-7.01,-7.01,6.00,5.73,7.45,1.79,1.78,2.80
31.93,-4.11,-4.11,-6.90,-6.90,6.00,5.72,7.45,1.89,1.89,2.79
32.24,-4.01,-4.01,-6.80,-6.80,6.00,5.71,7.44,1.99,1.99,2.79
32.57,-3.93,-3.93,-6.72,-6.72,6.00,5.70,7.41,2.07,2.07,2.78
32.89,-3.86,-3.87,-6.64,-6.65,6.00,5.69,7.38,2.14,2.13,2.78
33.22,-3.81,-3.81,-6.59,-6.59,6.00,5.69,7.33,2.19,2.19,2.78
33.55,-3.77,-3.77,-6.55,-6.54,6.00,5.68,7.29,2.23,2.23,2.77
33.89,-3.74,-3.76,-6.51,-6.53,6.00,5.67,7.22,2.26,2.24,2.77
34.23,-3.78,-3.80,-6.55,-6.57,6.00,5.66,7.16,2.22,2.20,2.77
34.57,-3.84,-3.85,-6.60,-6.61,6.00,5.65,7.08,2.16,2.15,2.76
34.92,-3.91,-3.87,-6.67,-6.62,6.00,5.64,7.01,2.09,2.13,2.76
35.27,-3.82,-3.77,-6.57,-6.53,6.00,5.63,6.92,2.18,2.23,2.75
35.62,-3.64,-3.65,-6.39,-6.40,6.00,5.62,6.83,2.36,2.35,2.75
35.97,-3.49,-3.58,-6.23,-6.32,6.00,5.61,6.74,2.51,2.42,2.74
36.33,-3.61,-3.63,-6.34,-6.36,6.00,5.59,6.65,2.39,2.37,2.74
36.70,-3.74,-3.71,-6.47,-6.44,6.00,5.58,6.56,2.26,2.29,2.73
37.06,-3.82,-3.73,-6.55,-6.45,6.00,5.57,6.46,2.18,2.27,2.73
37.43,-3.62,-3.62,-6.34,-6.34,6.01,5.56,6.37,2.39,2.39,2.72
37.81,-3.42,-3.49,-6.14,-6.21,6.02,5.55,6.27,2.59,2.53,2.71
38.19,-3.40,-3.47,-6.11,-6.18,6.02,5.53,6.18,2.62,2.55,2.71
38.57,-3.55,-3.55,-6.25,-6.25,6.01,5.52,6.09,2.46,2.46,2.70
38.95,-3.71,-3.60,-6.41,-6.30,5.98,5.51,6.00,2.27,2.38,2.69
39.34,-3.55,-3.54,-6.24,-6.23,5.94,5.50,5.91,2.39,2.40,2.69
39.74,-3.34,-3.39,-6.02,-6.07,5.89,5.48,5.82,2.54,2.50,2.68
40.14,-3.19,-3.20,-5.86,-5.88,5.84,5.47,5.74,2.66,2.64,2.67
40.54,-3.10,-3.10,-5.77,-5.76,5.81,5.45,5.66,2.71,2.72,2.66
40.94,-3.03,-3.04,-5.69,-5.69,5.80,5.44,5.58,2.76,2.76,2.66
41.35,-3.02,-3.01,-5.67,-5.66,5.79,5.42,5.51,2.77,2.78,2.65
41.76,-3.02,-3.04,-5.66,-5.67,5.77,5.41,5.44,2.75,2.74,2.64
42.18,-3.09,-3.15,-5.72,-5.78,5.74,5.39,5.37,2.65,2.59,2.63
42.60,-3.26,-3.25,-5.88,-5.87,5.72,5.37,5.31,2.46,2.47,2.62
43.03,-3.39,-3.27,-6.00,-5.88,5.72,5.36,5.25,2.32,2.45,2.61
43.46,-3.18,-3.19,-5.78,-5.79,5.72,5.34,5.20,2.54,2.53,2.60
43.90,-2.98,-3.04,-5.57,-5.63,5.72,5.32,5.15,2.74,2.68,2.59
44.33,-2.92,-2.92,-5.50,-5.50,5.69,5.30,5.10,2.77,2.78,2.58
44.78,-2.92,-2.94,-5.49,-5.51,5.63,5.28,5.06,2.71,2.69,2.57
45.23,-3.00,-3.06,-5.56,-5.61,5.54,5.26,5.02,2.54,2.48,2.56
45.68,-3.16,-3.12,-5.71,-5.67,5.46,5.24,4.98,2.30,2.34,2.54
46.13,-3.18,-3.04,-5.71,-5.57,5.41,5.22,4.95,2.23,2.37,2.53
46.60,-2.85,-2.87,-5.37,-5.39,5.39,5.20,4.92,2.55,2.52,2.52
47.06,-2.55,-2.69,-5.06,-5.19,5.38,5.18,4.90,2.83,2.69,2.51
47.53,-2.64,-2.62,-5.14,-5.11,5.35,5.16,4.88,2.70,2.73,2.49
48.01,-2.72,-2.75,-5.20,-5.23,5.29,5.14,4.86,2.57,2.54,2.48
48.49,-2.90,-2.92,-5.37,-5.38,5.23,5.11,4.85,2.33,2.32,2.46
48.97,-3.07,-2.94,-5.52,-5.39,5.20,5.09,4.84,2.13,2.26,2.45
49.46,-2.87,-2.87,-5.30,-5.30,5.20,5.06,4.83,2.32,2.33,2.43
49.96,-2.65,-2.73,-5.06,-5.14,5.20,5.04,4.82,2.55,2.47,2.42
50.46,-2.62,-2.62,-5.02,-5.01,5.17,5.01,4.82,2.55,2.56,2.40
50.96,-2.62,-2.67,-5.00,-5.05,5.12,4.99,4.82,2.50,2.45,2.38
51.47,-2.74,-2.75,-5.11,-5.12,5.06,4.96,4.82,2.31,2.30,2.36
51.99,-2.87,-2.76,-5.22,-5.10,5.00,4.93,4.82,2.13,2.25,2.34
52.51,-2.70,-2.70,-5.02,-5.02,4.98,4.90,4.83,2.28,2.28,2.32
53.03,-2.52,-2.59,-4.83,-4.89,4.97,4.87,4.83,2.44,2.38,2.30
53.56,-2.52,-2.53,-4.81,-4.81,4.95,4.84,4.84,2.43,2.42,2.28
54.10,-2.55,-2.61,-4.82,-4.87,4.92,4.81,4.84,2.37,2.31,2.26
54.64,-2.72,-2.68,-4.96,-4.92,4.85,4.78,4.85,2.13,2.17,2.24
55.18,-2.76,-2.66,-4.98,-4.88,4.75,4.75,4.85,1.99,2.09,2.22
55.74,-2.54,-2.61,-4.73,-4.80,4.66,4.71,4.86,2.13,2.06,2.19
56.29,-2.42,-2.49,-4.59,-4.66,4.58,4.68,4.86,2.16,2.09,2.17
56.86,-2.42,-2.32,-4.57,-4.47,4.52,4.64,4.86,2.10,2.20,2.15
57.42,-2.24,-2.20,-4.36,-4.32,4.46,4.61,4.86,2.22,2.26,2.12
58.00,-2.00,-2.11,-4.10,-4.21,4.40,4.57,4.85,2.39,2.28,2.09
58.58,-2.12,-2.14,-4.19,-4.21,4.34,4.53,4.84,2.22,2.20,2.07
59.16,-2.28,-2.30,-4.31,-4.34,4.30,4.49,4.83,2.02,1.99,2.04
59.76,-2.53,-2.43,-4.54,-4.44,4.26,4.45,4.81,1.73,1.84,2.01
60.35,-2.49,-2.42,-4.47,-4.40,4.24,4.41,4.79,1.75,1.82,1.98
60.96,-2.25,-2.35,-4.19,-4.30,4.23,4.37,4.77,1.99,1.89,1.95
61.57,-2.22,-2.24,-4.14,-4.16,4.22,4.33,4.74,2.00,1.99,1.92
62.18,-2.22,-2.20,-4.11,-4.08,4.20,4.28,4.71,1.98,2.00,1.89
62.80,-2.22,-2.20,-4.08,-4.06,4.16,4.24,4.67,1.93,1.95,1.85
63.43,-2.22,-2.24,-4.04,-4.06,4.09,4.19,4.62,1.87,1.85,1.82
64.07,-2.24,-2.32,-4.03,-4.10,4.03,4.14,4.58,1.79,1.71,1.78
64.71,-2.43,-2.34,-4.18,-4.09,3.98,4.09,4.52,1.55,1.64,1.75
65.35,-2.38,-2.31,-4.09,-4.02,3.93,4.05,4.47,1.55,1.62,1.71
66.01,-2.12,-2.23,-3.80,-3.90,3.88,3.99,4.40,1.75,1.65,1.67
66.67,-2.12,-2.13,-3.76,-3.76,3.83,3.94,4.34,1.70,1.69,1.63
67.33,-2.12,-2.10,-3.72,-3.69,3.77,3.89,4.26,1.65,1.67,1.59
68.01,-2.12,-2.12,-3.68,-3.67,3.72,3.83,4.19,1.60,1.60,1.55
68.69,-2.12,-2.11,-3.63,-3.62,3.67,3.78,4.11,1.55,1.57,1.51
69.37,-2.12,-2.15,-3.59,-3.61,3.63,3.72,4.03,1.50,1.48,1.47
70.07,-2.14,-2.22,-3.57,-3.64,3.58,3.66,3.95,1.44,1.36,1.42
70.77,-2.34,-2.25,-3.72,-3.63,3.53,3.61,3.86,1.19,1.28,1.38
71.48,-2.27,-2.23,-3.61,-3.56,3.48,3.55,3.77,1.21,1.25,1.33
72.19,-2.10,-2.16,-3.39,-3.44,3.42,3.48,3.68,1.31,1.26,1.28
72.91,-2.03,-2.06,-3.27,-3.29,3.34,3.42,3.59,1.31,1.28,1.24
73.64,-2.02,-2.01,-3.21,-3.20,3.26,3.36,3.50,1.24,1.25,1.19
74.38,-2.02,-2.02,-3.16,-3.15,3.19,3.29,3.40,1.16,1.17,1.14
75.12,-2.02,-2.02,-3.11,-3.11,3.12,3.23,3.31,1.10,1.10,1.08
75.87,-2.02,-2.02,-3.06,-3.05,3.07,3.16,3.21,1.05,1.05,1.03
76.63,-2.02,-2.01,-3.00,-2.99,3.03,3.10,3.12,1.00,1.02,0.98
77.40,-2.02,-2.05,-2.95,-2.97,2.99,3.03,3.03,0.97,0.94,0.92
78.17,-2.05,-2.11,-2.92,-2.98,2.95,2.96,2.93,0.89,0.84,0.87
78.95,-2.21,-2.14,-3.03,-2.96,2.88,2.89,2.84,0.67,0.74,0.81
79.74,-2.15,-2.12,-2.91,-2.88,2.80,2.82,2.75,0.65,0.68,0.76
80.54,-2.02,-2.05,-2.72,-2.75,2.71,2.75,2.66,0.68,0.66,0.70
81.35,-1.92,-1.97,-2.56,-2.61,2.61,2.68,2.57,0.68,0.64,0.64
82.16,-1.92,-1.91,-2.50,-2.49,2.51,2.61,2.48,0.58,0.59,0.58
82.98,-1.92,-1.85,-2.44,-2.37,2.41,2.54,2.39,0.49,0.56,0.52
83.81,-1.78,-1.81,-2.24,-2.27,2.34,2.47,2.31,0.55,0.53,0.46
84.65,-1.75,-1.82,-2.15,-2.21,2.29,2.39,2.22,0.53,0.47,0.39
85.50,-1.88,-1.87,-2.21,-2.20,2.26,2.32,2.14,0.38,0.38,0.33
86.35,-2.02,-1.95,-2.29,-2.21,2.24,2.25,2.06,0.21,0.29,0.26
87.22,-2.02,-2.04,-2.22,-2.24,2.21,2.18,1.97,0.19,0.17,0.20
88.09,-2.03,-2.13,-2.17,-2.26,2.17,2.10,1.90,0.14,0.04,0.13
88.97,-2.22,-2.16,-2.29,-2.23,2.12,2.03,1.82,-0.10,-0.03,0.07
89.86,-2.23,-2.14,-2.23,-2.14,2.06,1.96,1.74,-0.17,-0.08,-0.00
90.76,-1.99,-2.06,-1.93,-2.00,1.98,1.89,1.67,-0.02,-0.09,-0.07
91.66,-1.91,-1.95,-1.78,-1.82,1.88,1.82,1.59,-0.03,-0.07,-0.14
92.58,-1.91,-1.89,-1.71,-1.69,1.78,1.75,1.52,-0.14,-0.12,-0.21
93.51,-1.91,-1.91,-1.64,-1.63,1.67,1.68,1.45,-0.25,-0.24,-0.28
94.44,-1.91,-1.91,-1.57,-1.57,1.56,1.61,1.38,-0.35,-0.35,-0.35
95.39,-1.91,-1.91,-1.50,-1.50,1.48,1.54,1.31,-0.44,-0.43,-0.42
96.34,-1.91,-1.92,-1.43,-1.43,1.42,1.47,1.24,-0.50,-0.50,-0.49
97.30,-1.92,-1.92,-1.36,-1.36,1.37,1.40,1.18,-0.56,-0.55,-0.56
98.28,-1.93,-1.93,-1.30,-1.30,1.33,1.33,1.11,-0.61,-0.60,-0.63
99.26,-1.94,-1.94,-1.24,-1.24,1.27,1.26,1.05,-0.67,-0.67,-0.70
100.25,-1.96,-2.00,-1.19,-1.22,1.21,1.19,0.99,-0.75,-0.79,-0.78
101.25,-2.03,-2.05,-1.19,-1.20,1.14,1.12,0.92,-0.89,-0.91,-0.85
102.27,-2.15,-2.06,-1.23,-1.14,1.08,1.05,0.86,-1.08,-0.98,-0.92
103.29,-2.01,-2.03,-1.02,-1.03,1.01,0.99,0.80,-1.00,-1.02,-1.00
104.32,-1.92,-1.98,-0.86,-0.91,0.94,0.92,0.75,-0.98,-1.04,-1.07
105.37,-1.94,-1.94,-0.80,-0.80,0.86,0.85,0.69,-1.08,-1.08,-1.14
106.42,-1.97,-1.96,-0.76,-0.75,0.78,0.78,0.63,-1.20,-1.18,-1.21
107.48,-1.99,-2.00,-0.71,-0.71,0.69,0.71,0.58,-1.30,-1.31,-1.29
108.56,-2.02,-2.03,-0.66,-0.67,0.62,0.65,0.52,-1.41,-1.41,-1.36
109.64,-2.04,-2.01,-0.61,-0.58,0.56,0.58,0.47,-1.48,-1.45,-1.43
110.74,-2.01,-1.99,-0.51,-0.48,0.51,0.51,0.42,-1.50,-1.47,-1.51
111.85,-1.92,-2.00,-0.35,-0.42,0.48,0.44,0.37,-1.44,-1.52,-1.58
112.97,-2.03,-2.05,-0.38,-0.40,0.45,0.38,0.32,-1.58,-1.60,-1.65
114.10,-2.19,-2.13,-0.47,-0.40,0.41,0.31,0.27,-1.78,-1.71,-1.72
115.24,-2.19,-2.19,-0.40,-0.39,0.37,0.24,0.22,-1.82,-1.81,-1.79
116.39,-2.19,-2.22,-0.33,-0.35,0.32,0.18,0.17,-1.87,-1.89,-1.86
117.55,-2.20,-2.25,-0.27,-0.32,0.27,0.11,0.12,-1.94,-1.99,-1.93
118.73,-2.30,-2.26,-0.30,-0.25,0.20,0.05,0.08,-2.11,-2.06,-2.00
119.92,-2.29,-2.22,-0.22,-0.15,0.11,-0.02,0.03,-2.18,-2.11,-2.07
121.12,-2.07,-2.15,0.07,-0.01,0.02,-0.09,-0.01,-2.06,-2.13,-2.14
122.33,-2.06,-2.07,0.15,0.14,-0.08,-0.15,-0.05,-2.15,-2.16,-2.21
123.55,-2.05,-2.04,0.22,0.24,-0.18,-0.22,-0.10,-2.24,-2.22,-2.28
124.79,-2.05,-2.05,0.29,0.30,-0.28,-0.28,-0.14,-2.33,-2.33,-2.34
126.03,-2.04,-2.04,0.37,0.37,-0.37,-0.34,-0.18,-2.41,-2.41,-2.41
127.29,-2.03,-2.04,0.44,0.44,-0.45,-0.41,-0.22,-2.48,-2.49,-2.48
128.57,-2.03,-2.03,0.51,0.51,-0.53,-0.47,-0.26,-2.56,-2.56,-2.54
129.85,-2.02,-2.02,0.58,0.58,-0.60,-0.53,-0.30,-2.62,-2.62,-2.60
131.15,-2.01,-2.02,0.65,0.65,-0.66,-0.60,-0.33,-2.68,-2.68,-2.67
132.46,-2.01,-2.02,0.72,0.71,-0.73,-0.66,-0.37,-2.74,-2.75,-2.73
133.79,-2.01,-1.99,0.78,0.80,-0.78,-0.72,-0.41,-2.80,-2.78,-2.79
135.12,-1.99,-1.96,0.86,0.89,-0.84,-0.78,-0.45,-2.83,-2.80,-2.85
136.48,-1.90,-1.97,1.01,0.94,-0.89,-0.84,-0.48,-2.80,-2.87,-2.91
137.84,-1.99,-2.02,0.98,0.94,-0.95,-0.90,-0.52,-2.94,-2.97,-2.97
139.22,-2.13,-2.06,0.89,0.96,-1.01,-0.95,-0.56,-3.14,-3.07,-3.03
140.61,-2.12,-2.09,0.96,1.00,-1.06,-1.01,-0.59,-3.19,-3.15,-3.08
142.02,-1.99,-2.05,1.15,1.09,-1.12,-1.07,-0.63,-3.11,-3.17,-3.14
143.44,-1.99,-2.00,1.20,1.20,-1.17,-1.13,-0.67,-3.16,-3.17,-3.19
144.87,-1.99,-1.98,1.25,1.27,-1.23,-1.18,-0.70,-3.22,-3.21,-3.25
146.32,-1.99,-1.99,1.31,1.30,-1.29,-1.23,-0.74,-3.28,-3.28,-3.30
147.78,-1.99,-1.99,1.35,1.35,-1.35,-1.29,-0.78,-3.34,-3.34,-3.34
149.26,-1.99,-1.99,1.40,1.40,-1.41,-1.34,-0.81,-3.40,-3.40,-3.39
150.75,-1.99,-1.99,1.45,1.45,-1.46,-1.39,-0.85,-3.45,-3.45,-3.44
152.26,-1.99,-1.99,1.50,1.50,-1.50,-1.45,-0.89,-3.49,-3.49,-3.49
153.78,-1.99,-1.99,1.54,1.54,-1.54,-1.50,-0.93,-3.54,-3.54,-3.54
155.32,-1.99,-1.99,1.59,1.59,-1.59,-1.55,-0.97,-3.59,-3.59,-3.58
156.88,-1.99,-1.99,1.64,1.64,-1.64,-1.59,-1.01,-3.64,-3.64,-3.63
158.44,-1.99,-1.99,1.68,1.68,-1.69,-1.64,-1.05,-3.69,-3.69,-3.67
160.03,-1.99,-2.00,1.72,1.73,-1.73,-1.69,-1.09,-3.73,-3.73,-3.72
161.63,-1.99,-1.99,1.78,1.77,-1.77,-1.74,-1.14,-3.77,-3.77,-3.77
163.24,-1.99,-1.97,1.82,1.84,-1.80,-1.78,-1.18,-3.80,-3.78,-3.81
164.88,-1.97,-1.98,1.88,1.87,-1.84,-1.83,-1.23,-3.81,-3.82,-3.85
166.53,-1.95,-2.02,1.94,1.88,-1.87,-1.87,-1.27,-3.82,-3.88,-3.89
168.19,-2.09,-2.05,1.84,1.88,-1.90,-1.91,-1.32,-3.99,-3.95,-3.93
169.87,-2.11,-2.07,1.85,1.89,-1.93,-1.95,-1.37,-4.04,-4.00,-3.97
171.57,-2.04,-2.08,1.96,1.93,-1.96,-2.00,-1.42,-4.00,-4.03,-4.00
173.29,-2.03,-2.04,2.00,2.00,-1.99,-2.04,-1.47,-4.02,-4.03,-4.04
175.02,-2.03,-2.03,2.04,2.04,-2.02,-2.08,-1.53,-4.05,-4.05,-4.07
176.77,-2.04,-2.04,2.06,2.07,-2.05,-2.11,-1.58,-4.10,-4.09,-4.11
178.54,-2.04,-2.04,2.10,2.10,-2.10,-2.15,-1.63,-4.14,-4.14,-4.14
180.32,-2.03,-2.04,2.14,2.13,-2.14,-2.19,-1.69,-4.17,-4.18,-4.17
182.13,-2.03,-2.03,2.17,2.17,-2.18,-2.23,-1.75,-4.21,-4.21,-4.20
183.95,-2.02,-2.02,2.21,2.21,-2.22,-2.26,-1.81,-4.24,-4.24,-4.23
185.79,-2.01,-2.01,2.25,2.25,-2.25,-2.30,-1.87,-4.27,-4.27,-4.26
187.65,-1.99,-2.00,2.30,2.29,-2.29,-2.33,-1.93,-4.29,-4.29,-4.29
189.52,-1.98,-1.98,2.33,2.33,-2.33,-2.36,-1.99,-4.31,-4.31,-4.32
191.42,-1.97,-1.97,2.37,2.38,-2.36,-2.40,-2.05,-4.33,-4.33,-4.34
193.33,-1.95,-1.95,2.42,2.42,-2.40,-2.43,-2.12,-4.35,-4.35,-4.37
195.27,-1.93,-1.95,2.46,2.45,-2.44,-2.46,-2.18,-4.38,-4.39,-4.39
197.22,-1.94,-1.95,2.48,2.46,-2.49,-2.49,-2.25,-4.43,-4.45,-4.42
199.19,-1.96,-1.95,2.48,2.49,-2.54,-2.52,-2.32,-4.50,-4.49,-4.44
201.18,-1.95,-1.93,2.51,2.54,-2.58,-2.55,-2.38,-4.54,-4.51,-4.47
203.19,-1.86,-1.86,2.62,2.62,-2.62,-2.58,-2.45,-4.48,-4.48,-4.49
205.23,-1.78,-1.80,2.73,2.71,-2.65,-2.61,-2.52,-4.43,-4.45,-4.51
207.28,-1.76,-1.79,2.77,2.74,-2.68,-2.64,-2.59,-4.44,-4.46,-4.53
209.35,-1.82,-1.82,2.73,2.73,-2.70,-2.66,-2.66,-4.52,-4.52,-4.55
211.44,-1.89,-1.87,2.68,2.70,-2.71,-2.69,-2.73,-4.61,-4.58,-4.57
213.56,-1.90,-1.91,2.68,2.68,-2.72,-2.72,-2.79,-4.62,-4.63,-4.59
215.69,-1.91,-1.92,2.69,2.69,-2.72,-2.74,-2.86,-4.64,-4.64,-4.61
217.85,-1.91,-1.91,2.71,2.71,-2.72,-2.77,-2.93,-4.63,-4.63,-4.62
220.03,-1.91,-1.92,2.73,2.72,-2.72,-2.79,-2.99,-4.63,-4.64,-4.64
222.23,-1.92,-1.92,2.73,2.74,-2.73,-2.82,-3.05,-4.65,-4.65,-4.66
224.45,-1.92,-1.92,2.75,2.75,-2.74,-2.84,-3.11,-4.67,-4.66,-4.67
226.70,-1.91,-1.92,2.78,2.77,-2.76,-2.87,-3.17,-4.68,-4.68,-4.69
228.96,-1.91,-1.91,2.79,2.79,-2.79,-2.89,-3.23,-4.70,-4.70,-4.70
231.25,-1.90,-1.91,2.81,2.81,-2.82,-2.92,-3.28,-4.72,-4.73,-4.72
233.57,-1.90,-1.91,2.83,2.82,-2.85,-2.94,-3.33,-4.75,-4.76,-4.73
235.90,-1.90,-1.89,2.85,2.86,-2.89,-2.96,-3.38,-4.79,-4.78,-4.76
238.26,-1.86,-1.85,2.91,2.92,-2.93,-2.98,-3.42,-4.80,-4.78,-4.77
240.64,-1.77,-1.80,3.01,2.99,-2.98,-3.01,-3.46,-4.75,-4.78,-4.78
243.05,-1.74,-1.75,3.05,3.05,-3.03,-3.03,-3.50,-4.77,-4.77,-4.79
245.48,-1.72,-1.71,3.08,3.09,-3.07,-3.05,-3.53,-4.80,-4.79,-4.81
247.93,-1.69,-1.70,3.12,3.12,-3.11,-3.07,-3.56,-4.81,-4.81,-4.82
250.41,-1.67,-1.67,3.15,3.15,-3.15,-3.09,-3.58,-4.82,-4.82,-4.83
252.92,-1.65,-1.65,3.18,3.18,-3.18,-3.12,-3.60,-4.83,-4.83,-4.84
255.45,-1.64,-1.64,3.19,3.20,-3.20,-3.14,-3.62,-4.84,-4.84,-4.84
258.00,-1.63,-1.63,3.21,3.21,-3.21,-3.16,-3.63,-4.85,-4.85,-4.85
260.58,-1.63,-1.63,3.22,3.23,-3.22,-3.18,-3.64,-4.86,-4.85,-4.86
263.19,-1.62,-1.63,3.24,3.24,-3.23,-3.20,-3.64,-4.85,-4.86,-4.87
265.82,-1.63,-1.63,3.24,3.25,-3.24,-3.22,-3.64,-4.87,-4.87,-4.88
268.48,-1.63,-1.63,3.25,3.25,-3.25,-3.24,-3.64,-4.88,-4.88,-4.88
271.16,-1.63,-1.64,3.26,3.25,-3.27,-3.26,-3.63,-4.90,-4.91,-4.89
273.87,-1.64,-1.64,3.26,3.26,-3.28,-3.28,-3.62,-4.93,-4.93,-4.90
276.61,-1.64,-1.63,3.26,3.28,-3.30,-3.30,-3.61,-4.95,-4.93,-4.91
279.38,-1.59,-1.60,3.32,3.32,-3.32,-3.32,-3.60,-4.92,-4.92,-4.92
282.17,-1.54,-1.56,3.38,3.36,-3.34,-3.34,-3.59,-4.89,-4.90,-4.92
284.99,-1.53,-1.53,3.39,3.39,-3.37,-3.36,-3.57,-4.90,-4.90,-4.92
287.84,-1.52,-1.52,3.39,3.40,-3.39,-3.38,-3.56,-4.91,-4.91,-4.92
290.72,-1.51,-1.51,3.41,3.41,-3.41,-3.39,-3.54,-4.92,-4.93,-4.92
293.63,-1.50,-1.50,3.43,3.42,-3.43,-3.41,-3.52,-4.93,-4.93,-4.93
296.57,-1.49,-1.49,3.43,3.44,-3.44,-3.43,-3.50,-4.93,-4.93,-4.92
299.53,-1.47,-1.48,3.45,3.45,-3.45,-3.45,-3.49,-4.92,-4.92,-4.92
302.53,-1.46,-1.46,3.46,3.46,-3.45,-3.47,-3.47,-4.92,-4.92,-4.93
305.55,-1.45,-1.45,3.47,3.47,-3.46,-3.48,-3.46,-4.92,-4.92,-4.92
308.61,-1.44,-1.45,3.48,3.48,-3.48,-3.50,-3.44,-4.92,-4.92,-4.93
311.69,-1.44,-1.45,3.48,3.48,-3.49,-3.52,-3.43,-4.94,-4.94,-4.92
314.81,-1.43,-1.44,3.49,3.49,-3.51,-3.53,-3.42,-4.94,-4.95,-4.93
317.96,-1.43,-1.41,3.49,3.52,-3.53,-3.55,-3.41,-4.96,-4.93,-4.92
321.14,-1.36,-1.38,3.56,3.55,-3.54,-3.57,-3.40,-4.90,-4.92,-4.93
324.35,-1.33,-1.35,3.59,3.57,-3.55,-3.58,-3.39,-4.88,-4.90,-4.92
327.59,-1.33,-1.33,3.57,3.58,-3.56,-3.60,-3.39,-4.89,-4.89,-4.90
330.87,-1.33,-1.33,3.57,3.57,-3.57,-3.61,-3.39,-4.90,-4.90,-4.91
334.18,-1.33,-1.34,3.57,3.57,-3.57,-3.63,-3.39,-4.90,-4.90,-4.90
337.52,-1.34,-1.34,3.56,3.56,-3.56,-3.64,-3.39,-4.91,-4.90,-4.91
340.90,-1.34,-1.34,3.55,3.55,-3.55,-3.65,-3.40,-4.90,-4.90,-4.90
344.30,-1.34,-1.35,3.55,3.55,-3.55,-3.67,-3.40,-4.89,-4.89,-4.89
347.75,-1.34,-1.34,3.54,3.54,-3.55,-3.68,-3.41,-4.89,-4.89,-4.89
351.23,-1.34,-1.35,3.54,3.54,-3.56,-3.69,-3.43,-4.90,-4.90,-4.89
354.74,-1.33,-1.33,3.54,3.54,-3.57,-3.71,-3.44,-4.90,-4.90,-4.87
358.28,-1.32,-1.30,3.55,3.57,-3.58,-3.72,-3.46,-4.90,-4.88,-4.87
361.87,-1.25,-1.27,3.61,3.60,-3.60,-3.73,-3.48,-4.85,-4.86,-4.87
365.49,-1.22,-1.23,3.64,3.63,-3.61,-3.74,-3.51,-4.83,-4.84,-4.86
369.14,-1.21,-1.21,3.65,3.65,-3.62,-3.75,-3.54,-4.84,-4.83,-4.86
372.83,-1.20,-1.20,3.64,3.65,-3.64,-3.76,-3.57,-4.84,-4.84,-4.85
376.56,-1.19,-1.20,3.65,3.65,-3.65,-3.77,-3.60,-4.84,-4.84,-4.85
380.33,-1.19,-1.19,3.65,3.65,-3.66,-3.79,-3.63,-4.85,-4.85,-4.84
384.13,-1.18,-1.19,3.66,3.65,-3.66,-3.80,-3.67,-4.85,-4.85,-4.84
387.97,-1.17,-1.18,3.65,3.65,-3.67,-3.80,-3.71,-4.85,-4.85,-4.82
391.85,-1.17,-1.15,3.63,3.67,-3.68,-3.81,-3.75,-4.85,-4.83,-4.81
395.77,-1.10,-1.12,3.71,3.69,-3.69,-3.82,-3.79,-4.79,-4.80,-4.81
399.73,-1.07,-1.09,3.73,3.71,-3.69,-3.83,-3.84,-4.77,-4.78,-4.80
403.72,-1.07,-1.07,3.72,3.73,-3.70,-3.84,-3.88,-4.77,-4.77,-4.79
407.76,-1.08,-1.08,3.71,3.71,-3.70,-3.85,-3.93,-4.79,-4.78,-4.79
411.84,-1.08,-1.08,3.70,3.70,-3.70,-3.86,-3.98,-4.79,-4.79,-4.79
415.96,-1.08,-1.09,3.69,3.70,-3.70,-3.86,-4.03,-4.78,-4.78,-4.78
420.12,-1.08,-1.08,3.70,3.70,-3.69,-3.87,-4.08,-4.78,-4.77,-4.78
424.32,-1.07,-1.08,3.70,3.69,-3.69,-3.88,-4.13,-4.76,-4.77,-4.77
428.56,-1.06,-1.07,3.70,3.70,-3.70,-3.88,-4.18,-4.76,-4.76,-4.76
432.85,-1.05,-1.05,3.70,3.70,-3.72,-3.89,-4.23,-4.77,-4.77,-4.75
437.18,-1.02,-1.03,3.72,3.72,-3.75,-3.89,-4.28,-4.77,-4.78,-4.75
441.55,-0.99,-0.98,3.74,3.76,-3.78,-3.90,-4.33,-4.78,-4.76,-4.74
445.96,-0.91,-0.90,3.81,3.82,-3.83,-3.90,-4.37,-4.75,-4.73,-4.73
450.42,-0.79,-0.82,3.92,3.89,-3.89,-3.91,-4.42,-4.68,-4.71,-4.71
454.93,-0.73,-0.73,3.97,3.97,-3.95,-3.91,-4.46,-4.68,-4.68,-4.70
459.48,-0.67,-0.67,4.02,4.02,-4.01,-3.92,-4.50,-4.68,-4.68,-4.69
464.07,-0.61,-0.62,4.08,4.07,-4.07,-3.92,-4.54,-4.68,-4.69,-4.69
