frequency,raw,smoothed,error,error_smoothed,equalization,parametric_eq,fixed_band_eq,equalized_raw,equalized_smoothed,target
20.00,-8.67,-8.67,-12.97,-12.97,6.00,6.08,2.74,-2.67,-2.67,4.30
20.20,-8.58,-8.57,-12.91,-12.91,6.00,6.08,2.82,-2.58,-2.57,4.34
20.40,-8.49,-8.48,-12.85,-12.85,6.00,6.08,2.90,-2.49,-2.48,4.37
20.61,-8.39,-8.39,-12.79,-12.79,6.00,6.08,2.98,-2.39,-2.39,4.40
20.81,-8.30,-8.29,-12.73,-12.73,6.00,6.08,3.07,-2.30,-2.29,4.44
21.02,-8.21,-8.22,-12.68,-12.68,6.00,6.08,3.16,-2.21,-2.22,4.48
21.23,-8.16,-8.15,-12.64,-12.65,6.00,6.08,3.25,-2.16,-2.15,4.49
21.44,-8.11,-8.10,-12.61,-12.61,6.00,6.08,3.34,-2.11,-2.10,4.51
21.66,-8.05,-8.05,-12.57,-12.58,6.00,6.08,3.43,-2.05,-2.05,4.52
21.87,-7.99,-7.99,-12.53,-12.53,6.00,6.08,3.53,-1.99,-1.99,4.53
22.09,-7.91,-7.91,-12.47,-12.46,6.00,6.07,3.63,-1.91,-1.91,4.55
22.31,-7.80,-7.81,-12.36,-12.37,6.00,6.07,3.73,-1.80,-1.81,4.55
22.54,-7.70,-7.70,-12.26,-12.26,6.00,6.07,3.84,-1.70,-1.70,4.56
22.76,-7.59,-7.59,-12.16,-12.16,6.00,6.07,3.95,-1.59,-1.59,4.57
22.99,-7.49,-7.49,-12.06,-12.06,6.00,6.07,4.06,-1.49,-1.49,4.57
23.22,-7.39,-7.39,-11.97,-11.97,6.00,6.07,4.17,-1.39,-1.39,4.58
23.45,-7.30,-7.29,-11.89,-11.88,6.00,6.07,4.29,-1.30,-1.29,4.59
23.69,-7.20,-7.20,-11.80,-11.79,6.00,6.07,4.41,-1.20,-1.20,4.60
23.92,-7.11,-7.11,-11.71,-11.72,6.00,6.06,4.53,-1.11,-1.11,4.61
24.16,-7.04,-7.04,-11.65,-11.66,6.00,6.06,4.65,-1.04,-1.04,4.62
24.40,-6.99,-6.98,-11.61,-11.60,6.00,6.06,4.78,-0.99,-0.98,4.63
24.65,-6.93,-6.93,-11.54,-11.55,6.00,6.06,4.91,-0.93,-0.93,4.62
24.89,-6.86,-6.86,-11.48,-11.48,6.00,6.06,5.04,-0.86,-0.86,4.61
25.14,-6.80,-6.79,-11.41,-11.41,6.00,6.06,5.17,-0.80,-0.79,4.61
25.39,-6.71,-6.72,-11.33,-11.33,6.00,6.05,5.30,-0.71,-0.72,4.61
25.65,-6.64,-6.64,-11.25,-11.25,6.00,6.05,5.43,-0.64,-0.64,4.61
25.91,-6.56,-6.56,-11.16,-11.16,6.00,6.05,5.56,-0.56,-0.56,4.60
26.16,-6.47,-6.48,-11.08,-11.08,6.00,6.05,5.70,-0.47,-0.48,4.61
26.43,-6.40,-6.39,-11.01,-11.00,6.00,6.05,5.83,-0.40,-0.39,4.61
26.69,-6.31,-6.31,-10.91,-10.92,6.00,6.04,5.96,-0.31,-0.31,4.61
26.96,-6.23,-6.23,-10.83,-10.84,6.00,6.04,6.09,-0.23,-0.23,4.61
27.23,-6.16,-6.15,-10.76,-10.76,6.00,6.04,6.22,-0.16,-0.15,4.60
27.50,-6.08,-6.08,-10.68,-10.68,6.00,6.04,6.35,-0.08,-0.08,4.60
27.77,-6.01,-6.01,-10.60,-10.60,6.00,6.04,6.47,-0.01,-0.01,4.59
28.05,-5.94,-5.93,-10.53,-10.52,6.00,6.03,6.59,0.06,0.07,4.59
28.33,-5.87,-5.87,-10.44,-10.45,6.00,6.03,6.70,0.13,0.13,4.58
28.62,-5.80,-5.80,-10.38,-10.38,6.00,6.03,6.81,0.20,0.20,4.59
28.90,-5.73,-5.73,-10.31,-10.31,6.00,6.02,6.91,0.27,0.27,4.59
29.19,-5.67,-5.67,-10.24,-10.25,6.00,6.02,7.00,0.33,0.33,4.57
29.48,-5.61,-5.61,-10.19,-10.19,6.00,6.02,7.09,0.39,0.39,4.58
29.78,-5.55,-5.55,-10.13,-10.12,6.00,6.02,7.17,0.45,0.45,4.58
30.08,-5.49,-5.49,-10.07,-10.06,6.00,6.01,7.23,0.51,0.51,4.58
30.38,-5.43,-5.43,-9.99,-10.00,6.00,6.01,7.29,0.57,0.57,4.57
30.68,-5.38,-5.37,-9.94,-9.94,6.00,6.01,7.34,0.62,0.63,4.56
30.99,-5.32,-5.31,-9.87,-9.86,6.00,6.00,7.38,0.68,0.69,4.55
31.30,-5.23,-5.23,-9.78,-9.78,6.00,6.00,7.40,0.77,0.77,4.55
31.61,-5.14,-5.13,-9.68,-9.68,6.00,6.00,7.42,0.86,0.87,4.55
31.93,-5.04,-5.05,-9.57,-9.58,6.00,5.99,7.42,0.96,0.95,4.54
32.24,-4.97,-4.97,-9.49,-9.50,6.00,5.99,7.42,1.03,1.03,4.52
32.57,-4.91,-4.90,-9.43,-9.42,6.00,5.99,7.40,1.09,1.10,4.52
32.89,-4.84,-4.83,-9.35,-9.35,6.00,5.98,7.38,1.16,1.17,4.52
33.22,-4.76,-4.75,-9.27,-9.27,6.00,5.98,7.35,1.24,1.25,4.52
33.55,-4.68,-4.67,-9.19,-9.19,6.00,5.97,7.31,1.32,1.33,4.51
33.89,-4.60,-4.61,-9.11,-9.12,6.00,5.97,7.26,1.40,1.39,4.51
34.23,-4.57,-4.58,-9.07,-9.08,6.00,5.96,7.20,1.43,1.42,4.51
34.57,-4.57,-4.57,-9.06,-9.06,6.00,5.96,7.14,1.43,1.43,4.49
34.92,-4.57,-4.55,-9.06,-9.04,6.00,5.95,7.08,1.43,1.45,4.49
35.27,-4.51,-4.50,-8.99,-8.99,6.00,5.95,7.01,1.49,1.50,4.49
35.62,-4.43,-4.43,-8.90,-8.91,6.00,5.94,6.93,1.57,1.57,4.47
35.97,-4.35,-4.34,-8.82,-8.82,6.00,5.94,6.86,1.65,1.66,4.47
36.33,-4.26,-4.25,-8.72,-8.72,6.00,5.93,6.78,1.74,1.75,4.47
36.70,-4.18,-4.18,-8.64,-8.64,6.00,5.93,6.70,1.82,1.82,4.46
37.06,-4.11,-4.12,-8.55,-8.57,6.00,5.92,6.62,1.89,1.88,4.45
37.43,-4.09,-4.09,-8.53,-8.53,6.00,5.91,6.54,1.91,1.91,4.44
37.81,-4.07,-4.06,-8.51,-8.49,6.00,5.91,6.46,1.93,1.94,4.44
38.19,-4.03,-4.02,-8.45,-8.45,6.00,5.90,6.38,1.97,1.98,4.43
38.57,-3.96,-3.96,-8.38,-8.38,6.00,5.89,6.31,2.04,2.04,4.42
38.95,-3.89,-3.88,-8.30,-8.29,6.00,5.89,6.23,2.11,2.12,4.42
39.34,-3.80,-3.79,-8.20,-8.19,6.00,5.88,6.16,2.20,2.21,4.40
39.74,-3.72,-3.72,-8.10,-8.11,6.00,5.87,6.09,2.28,2.28,4.39
40.14,-3.66,-3.68,-8.05,-8.07,6.00,5.86,6.03,2.34,2.32,4.39
40.54,-3.66,-3.66,-8.04,-8.04,6.00,5.85,5.97,2.34,2.34,4.38
40.94,-3.66,-3.63,-8.03,-8.00,6.00,5.85,5.91,2.34,2.37,4.38
41.35,-3.58,-3.57,-7.94,-7.94,6.00,5.84,5.85,2.42,2.43,4.36
41.76,-3.48,-3.49,-7.82,-7.83,6.00,5.83,5.80,2.52,2.51,4.35
42.18,-3.39,-3.37,-7.72,-7.70,6.00,5.82,5.75,2.61,2.63,4.33
42.60,-3.29,-3.28,-7.59,-7.59,6.00,5.81,5.71,2.71,2.72,4.30
43.03,-3.20,-3.23,-7.48,-7.51,6.00,5.80,5.67,2.80,2.77,4.29
43.46,-3.20,-3.20,-7.46,-7.45,6.00,5.79,5.63,2.80,2.80,4.26
43.90,-3.20,-3.16,-7.41,-7.38,6.00,5.78,5.60,2.80,2.84,4.21
44.33,-3.12,-3.11,-7.30,-7.29,6.00,5.76,5.58,2.88,2.89,4.18
44.78,-3.02,-3.04,-7.16,-7.19,6.00,5.75,5.55,2.98,2.96,4.15
45.23,-2.97,-2.99,-7.08,-7.10,6.00,5.74,5.54,3.03,3.01,4.12
45.68,-2.97,-2.95,-7.06,-7.04,6.00,5.73,5.52,3.03,3.05,4.09
46.13,-2.94,-2.90,-7.01,-6.98,6.00,5.71,5.51,3.06,3.10,4.07
46.60,-2.84,-2.84,-6.90,-6.90,6.00,5.70,5.51,3.16,3.16,4.06
47.06,-2.75,-2.78,-6.79,-6.83,6.00,5.69,5.50,3.25,3.22,4.04
47.53,-2.75,-2.74,-6.78,-6.78,6.00,5.67,5.51,3.25,3.26,4.03
48.01,-2.75,-2.71,-6.78,-6.74,6.00,5.66,5.51,3.25,3.29,4.03
48.49,-2.68,-2.68,-6.70,-6.70,6.00,5.64,5.52,3.32,3.32,4.02
48.97,-2.61,-2.62,-6.62,-6.63,6.00,5.62,5.53,3.39,3.38,4.01
49.46,-2.57,-2.56,-6.56,-6.56,6.00,5.61,5.55,3.43,3.44,4.00
49.96,-2.52,-2.53,-6.51,-6.53,6.00,5.59,5.57,3.48,3.47,4.00
50.46,-2.50,-2.50,-6.50,-6.50,6.00,5.57,5.59,3.50,3.50,4.00
50.96,-2.47,-2.44,-6.48,-6.44,6.00,5.55,5.61,3.54,3.56,4.01
51.47,-2.38,-2.38,-6.37,-6.38,6.01,5.53,5.64,3.63,3.63,4.00
51.99,-2.29,-2.32,-6.27,-6.31,6.02,5.51,5.67,3.73,3.70,3.98
52.51,-2.29,-2.28,-6.26,-6.25,6.02,5.49,5.69,3.74,3.74,3.97
53.03,-2.29,-2.29,-6.23,-6.23,6.02,5.47,5.72,3.73,3.73,3.95
53.56,-2.29,-2.28,-6.20,-6.19,6.00,5.45,5.75,3.71,3.72,3.91
54.10,-2.27,-2.23,-6.13,-6.09,5.96,5.42,5.78,3.69,3.73,3.87
54.64,-2.14,-2.16,-5.96,-5.98,5.90,5.40,5.81,3.76,3.74,3.82
55.18,-2.06,-2.10,-5.83,-5.87,5.82,5.37,5.84,3.77,3.73,3.77
55.74,-2.06,-2.02,-5.77,-5.74,5.74,5.34,5.87,3.68,3.71,3.72
56.29,-1.99,-1.96,-5.65,-5.62,5.64,5.31,5.89,3.65,3.68,3.67
56.86,-1.86,-1.89,-5.47,-5.50,5.54,5.28,5.91,3.68,3.64,3.61
57.42,-1.83,-1.84,-5.37,-5.38,5.44,5.25,5.93,3.61,3.60,3.54
58.00,-1.83,-1.82,-5.31,-5.30,5.34,5.22,5.94,3.52,3.53,3.48
58.58,-1.83,-1.82,-5.25,-5.25,5.26,5.19,5.95,3.44,3.44,3.42
59.16,-1.83,-1.83,-5.20,-5.19,5.19,5.15,5.96,3.37,3.37,3.37
59.76,-1.83,-1.83,-5.14,-5.14,5.12,5.11,5.96,3.30,3.30,3.31
60.35,-1.83,-1.83,-5.07,-5.08,5.05,5.07,5.95,3.22,3.22,3.24
60.96,-1.83,-1.84,-5.01,-5.02,4.97,5.03,5.94,3.14,3.13,3.19
61.57,-1.83,-1.81,-4.94,-4.93,4.88,4.99,5.92,3.06,3.07,3.11
62.18,-1.79,-1.75,-4.84,-4.81,4.80,4.95,5.90,3.01,3.04,3.05
62.80,-1.65,-1.68,-4.65,-4.68,4.71,4.90,5.86,3.06,3.02,3.01
63.43,-1.61,-1.62,-4.56,-4.57,4.62,4.85,5.83,3.01,3.00,2.95
64.07,-1.61,-1.59,-4.51,-4.50,4.54,4.80,5.78,2.93,2.95,2.90
64.71,-1.61,-1.60,-4.46,-4.46,4.47,4.74,5.73,2.86,2.87,2.86
65.35,-1.61,-1.61,-4.42,-4.42,4.41,4.68,5.67,2.81,2.81,2.81
66.01,-1.61,-1.61,-4.38,-4.38,4.37,4.62,5.61,2.76,2.76,2.77
66.67,-1.61,-1.61,-4.34,-4.34,4.33,4.56,5.54,2.73,2.73,2.73
67.33,-1.61,-1.61,-4.31,-4.31,4.31,4.49,5.47,2.70,2.70,2.70
68.01,-1.61,-1.61,-4.28,-4.28,4.29,4.42,5.39,2.68,2.68,2.67
68.69,-1.61,-1.61,-4.25,-4.25,4.26,4.34,5.31,2.66,2.66,2.64
69.37,-1.61,-1.61,-4.22,-4.22,4.23,4.27,5.22,2.62,2.62,2.61
70.07,-1.61,-1.61,-4.18,-4.19,4.18,4.19,5.13,2.57,2.57,2.58
70.77,-1.61,-1.62,-4.17,-4.18,4.12,4.11,5.03,2.52,2.51,2.56
71.48,-1.61,-1.58,-4.14,-4.11,4.07,4.03,4.94,2.46,2.48,2.53
72.19,-1.56,-1.52,-4.06,-4.02,4.01,3.95,4.84,2.45,2.49,2.50
72.91,-1.40,-1.45,-3.86,-3.92,3.95,3.88,4.74,2.55,2.50,2.47
73.64,-1.38,-1.39,-3.82,-3.83,3.89,3.81,4.64,2.51,2.50,2.44
74.38,-1.38,-1.36,-3.79,-3.77,3.82,3.75,4.54,2.45,2.46,2.41
75.12,-1.38,-1.38,-3.75,-3.75,3.75,3.69,4.44,2.38,2.38,2.37
75.87,-1.38,-1.38,-3.72,-3.73,3.68,3.65,4.34,2.30,2.30,2.35
76.63,-1.38,-1.37,-3.69,-3.69,3.61,3.62,4.23,2.23,2.23,2.32
77.40,-1.35,-1.33,-3.64,-3.62,3.54,3.62,4.13,2.20,2.22,2.29
78.17,-1.28,-1.25,-3.54,-3.52,3.49,3.62,4.03,2.22,2.24,2.26
78.95,-1.16,-1.19,-3.41,-3.44,3.46,3.65,3.94,2.31,2.27,2.25
79.74,-1.15,-1.17,-3.38,-3.40,3.46,3.69,3.84,2.32,2.29,2.24
80.54,-1.23,-1.20,-3.44,-3.41,3.50,3.75,3.74,2.28,2.30,2.21
81.35,-1.32,-1.31,-3.51,-3.51,3.60,3.82,3.65,2.28,2.29,2.20
82.16,-1.44,-1.47,-3.63,-3.67,3.75,3.91,3.56,2.31,2.27,2.19
82.98,-1.70,-1.69,-3.89,-3.88,3.94,4.02,3.47,2.25,2.25,2.20
83.81,-1.96,-1.95,-4.15,-4.14,4.17,4.13,3.38,2.21,2.22,2.19
84.65,-2.23,-2.23,-4.41,-4.42,4.40,4.25,3.29,2.17,2.17,2.18
85.50,-2.49,-2.47,-4.68,-4.66,4.61,4.37,3.21,2.12,2.14,2.19
86.35,-2.68,-2.68,-4.87,-4.87,4.78,4.48,3.13,2.10,2.09,2.19
87.22,-2.79,-2.81,-4.98,-5.01,4.89,4.56,3.05,2.10,2.07,2.19
88.09,-2.91,-2.83,-5.10,-5.03,4.94,4.63,2.97,2.03,2.11,2.19
88.97,-2.76,-2.76,-4.97,-4.97,4.93,4.63,2.89,2.17,2.16,2.21
89.86,-2.59,-2.64,-4.80,-4.85,4.85,4.60,2.82,2.27,2.21,2.21
90.76,-2.51,-2.49,-4.70,-4.69,4.73,4.51,2.75,2.23,2.24,2.20
91.66,-2.36,-2.35,-4.56,-4.55,4.58,4.40,2.68,2.23,2.23,2.21
92.58,-2.21,-2.19,-4.39,-4.38,4.41,4.25,2.62,2.21,2.22,2.18
93.51,-2.01,-2.02,-4.20,-4.21,4.24,4.09,2.55,2.23,2.21,2.19
94.44,-1.85,-1.86,-4.02,-4.03,4.06,3.93,2.49,2.22,2.20,2.17
95.39,-1.74,-1.71,-3.90,-3.87,3.88,3.77,2.43,2.15,2.17,2.16
96.34,-1.57,-1.59,-3.69,-3.72,3.70,3.62,2.37,2.13,2.11,2.13
97.30,-1.46,-1.46,-3.57,-3.56,3.52,3.47,2.31,2.07,2.07,2.11
98.28,-1.33,-1.29,-3.41,-3.37,3.35,3.33,2.26,2.02,2.06,2.08
99.26,-1.12,-1.13,-3.18,-3.19,3.18,3.20,2.21,2.06,2.05,2.06
100.25,-0.92,-0.95,-2.95,-2.98,3.02,3.09,2.15,2.10,2.07,2.03
101.25,-0.84,-0.81,-2.83,-2.80,2.86,2.97,2.10,2.02,2.05,2.00
102.27,-0.69,-0.73,-2.65,-2.69,2.71,2.87,2.06,2.03,1.98,1.96
103.29,-0.69,-0.67,-2.60,-2.59,2.58,2.76,2.01,1.90,1.91,1.92
104.32,-0.64,-0.60,-2.51,-2.47,2.47,2.67,1.96,1.83,1.87,1.88
105.37,-0.52,-0.54,-2.35,-2.37,2.37,2.57,1.92,1.85,1.83,1.83
106.42,-0.47,-0.48,-2.24,-2.26,2.28,2.48,1.88,1.81,1.79,1.78
107.48,-0.47,-0.46,-2.18,-2.17,2.18,2.39,1.83,1.71,1.72,1.71
108.56,-0.47,-0.48,-2.10,-2.12,2.08,2.31,1.79,1.61,1.60,1.63
109.64,-0.47,-0.46,-2.03,-2.03,1.97,2.22,1.75,1.50,1.51,1.57
110.74,-0.46,-0.39,-1.96,-1.89,1.86,2.14,1.71,1.40,1.46,1.50
111.85,-0.27,-0.32,-1.70,-1.75,1.75,2.06,1.67,1.49,1.43,1.44
112.97,-0.24,-0.25,-1.59,-1.61,1.65,1.98,1.64,1.41,1.40,1.35
114.10,-0.24,-0.22,-1.52,-1.50,1.55,1.90,1.60,1.31,1.33,1.29
115.24,-0.24,-0.23,-1.45,-1.44,1.46,1.82,1.56,1.22,1.22,1.21
116.39,-0.24,-0.24,-1.37,-1.37,1.37,1.75,1.53,1.13,1.13,1.14
117.55,-0.24,-0.24,-1.31,-1.31,1.30,1.67,1.49,1.06,1.06,1.07
118.73,-0.24,-0.24,-1.24,-1.25,1.24,1.59,1.45,1.01,1.01,1.01
119.92,-0.24,-0.24,-1.20,-1.19,1.20,1.52,1.42,0.96,0.96,0.96
121.12,-0.24,-0.24,-1.15,-1.15,1.15,1.44,1.38,0.92,0.92,0.91
122.33,-0.24,-0.24,-1.11,-1.11,1.11,1.37,1.34,0.88,0.88,0.87
123.55,-0.24,-0.24,-1.08,-1.08,1.07,1.30,1.31,0.84,0.84,0.85
124.79,-0.24,-0.24,-1.04,-1.05,1.04,1.22,1.27,0.81,0.81,0.81
126.03,-0.24,-0.24,-1.01,-1.01,1.01,1.15,1.24,0.78,0.78,0.78
127.29,-0.24,-0.24,-0.98,-0.98,0.99,1.08,1.20,0.75,0.75,0.75
128.57,-0.24,-0.24,-0.94,-0.95,0.96,1.01,1.16,0.73,0.73,0.71
129.85,-0.24,-0.24,-0.91,-0.91,0.93,0.94,1.12,0.69,0.69,0.68
131.15,-0.24,-0.24,-0.89,-0.88,0.88,0.87,1.09,0.64,0.64,0.65
132.46,-0.24,-0.25,-0.85,-0.87,0.82,0.80,1.05,0.59,0.57,0.61
133.79,-0.24,-0.23,-0.82,-0.81,0.76,0.73,1.01,0.52,0.53,0.59
135.12,-0.23,-0.17,-0.77,-0.72,0.69,0.66,0.97,0.46,0.52,0.54
136.48,-0.07,-0.10,-0.58,-0.61,0.62,0.59,0.93,0.55,0.52,0.52
137.84,-0.01,-0.03,-0.49,-0.50,0.55,0.53,0.89,0.54,0.52,0.48
139.22,-0.01,0.01,-0.43,-0.43,0.48,0.46,0.86,0.48,0.49,0.43
140.61,-0.01,-0.00,-0.39,-0.39,0.42,0.39,0.82,0.41,0.42,0.38
142.02,-0.01,-0.01,-0.37,-0.36,0.37,0.33,0.78,0.36,0.36,0.36
143.44,-0.01,-0.01,-0.33,-0.33,0.32,0.27,0.74,0.32,0.32,0.32
144.87,-0.01,-0.01,-0.29,-0.29,0.28,0.20,0.70,0.28,0.28,0.28
146.32,-0.01,-0.01,-0.24,-0.24,0.24,0.14,0.66,0.23,0.23,0.23
147.78,-0.01,-0.01,-0.20,-0.19,0.18,0.08,0.62,0.17,0.17,0.19
149.26,-0.01,-0.02,-0.13,-0.14,0.10,0.02,0.57,0.09,0.08,0.12
150.75,-0.01,-0.00,-0.05,-0.06,0.00,-0.04,0.53,-0.01,-0.00,0.05
152.26,0.00,0.05,0.02,0.07,-0.11,-0.09,0.49,-0.10,-0.06,-0.02
153.78,0.14,0.12,0.24,0.22,-0.22,-0.15,0.45,-0.08,-0.10,-0.09
155.32,0.21,0.19,0.40,0.37,-0.34,-0.21,0.41,-0.13,-0.15,-0.19
156.88,0.22,0.23,0.49,0.49,-0.45,-0.26,0.37,-0.23,-0.22,-0.26
158.44,0.22,0.23,0.56,0.57,-0.54,-0.31,0.33,-0.32,-0.31,-0.34
160.03,0.22,0.22,0.63,0.63,-0.61,-0.36,0.29,-0.39,-0.39,-0.41
161.63,0.22,0.24,0.69,0.71,-0.66,-0.41,0.24,-0.44,-0.42,-0.47
163.24,0.22,0.22,0.74,0.74,-0.69,-0.46,0.20,-0.47,-0.47,-0.52
164.88,0.22,0.16,0.78,0.72,-0.71,-0.51,0.16,-0.49,-0.56,-0.56
166.53,0.04,0.08,0.64,0.68,-0.73,-0.56,0.12,-0.69,-0.66,-0.60
168.19,-0.01,0.04,0.62,0.67,-0.75,-0.60,0.08,-0.76,-0.71,-0.63
169.87,0.04,0.06,0.69,0.71,-0.77,-0.64,0.03,-0.72,-0.71,-0.65
171.57,0.18,0.14,0.84,0.79,-0.79,-0.68,-0.01,-0.60,-0.64,-0.65
173.29,0.22,0.21,0.87,0.86,-0.80,-0.72,-0.05,-0.58,-0.59,-0.65
175.02,0.22,0.24,0.86,0.88,-0.82,-0.76,-0.09,-0.60,-0.58,-0.63
176.77,0.22,0.23,0.86,0.86,-0.84,-0.80,-0.14,-0.62,-0.61,-0.64
178.54,0.22,0.22,0.86,0.85,-0.86,-0.83,-0.18,-0.64,-0.64,-0.63
180.32,0.22,0.22,0.85,0.85,-0.88,-0.86,-0.23,-0.65,-0.65,-0.63
182.13,0.22,0.22,0.84,0.84,-0.88,-0.89,-0.27,-0.66,-0.66,-0.62
183.95,0.22,0.22,0.84,0.85,-0.87,-0.92,-0.31,-0.65,-0.65,-0.62
185.79,0.22,0.23,0.86,0.86,-0.86,-0.95,-0.36,-0.63,-0.63,-0.63
187.65,0.22,0.23,0.88,0.88,-0.84,-0.97,-0.40,-0.62,-0.61,-0.65
189.52,0.22,0.20,0.90,0.88,-0.82,-1.00,-0.45,-0.60,-0.62,-0.67
191.42,0.16,0.14,0.86,0.83,-0.81,-1.02,-0.49,-0.65,-0.67,-0.69
193.33,0.04,0.07,0.75,0.78,-0.79,-1.03,-0.54,-0.75,-0.72,-0.71
195.27,-0.01,0.01,0.71,0.74,-0.78,-1.05,-0.58,-0.79,-0.77,-0.72
197.22,-0.01,-0.02,0.73,0.73,-0.77,-1.07,-0.63,-0.78,-0.79,-0.74
199.19,-0.01,-0.01,0.77,0.75,-0.77,-1.08,-0.67,-0.77,-0.78,-0.77
201.18,-0.01,-0.01,0.77,0.78,-0.77,-1.09,-0.72,-0.77,-0.77,-0.78
203.19,-0.01,-0.01,0.79,0.79,-0.78,-1.10,-0.76,-0.79,-0.79,-0.80
205.23,-0.01,-0.01,0.82,0.81,-0.80,-1.11,-0.80,-0.81,-0.81,-0.82
207.28,-0.01,-0.01,0.82,0.83,-0.82,-1.12,-0.85,-0.83,-0.83,-0.83
209.35,-0.01,-0.01,0.85,0.85,-0.84,-1.12,-0.89,-0.85,-0.85,-0.85
211.44,-0.01,-0.01,0.87,0.86,-0.86,-1.13,-0.93,-0.86,-0.86,-0.88
213.56,-0.01,-0.01,0.87,0.87,-0.86,-1.13,-0.97,-0.87,-0.87,-0.88
215.69,-0.01,-0.01,0.88,0.88,-0.87,-1.13,-1.01,-0.88,-0.88,-0.88
217.85,-0.01,-0.01,0.90,0.90,-0.89,-1.13,-1.05,-0.90,-0.90,-0.91
220.03,-0.01,-0.01,0.91,0.91,-0.91,-1.12,-1.09,-0.92,-0.92,-0.92
222.23,-0.01,-0.02,0.93,0.91,-0.95,-1.12,-1.13,-0.95,-0.97,-0.94
224.45,-0.01,-0.00,0.94,0.94,-0.98,-1.11,-1.16,-0.99,-0.99,-0.94
226.70,-0.01,0.05,0.94,0.99,-1.03,-1.11,-1.19,-1.03,-0.98,-0.94
228.96,0.15,0.12,1.11,1.07,-1.07,-1.10,-1.23,-0.91,-0.95,-0.95
231.25,0.20,0.19,1.16,1.14,-1.11,-1.09,-1.25,-0.90,-0.92,-0.95
233.57,0.22,0.23,1.19,1.19,-1.14,-1.08,-1.28,-0.92,-0.91,-0.96
235.90,0.22,0.23,1.20,1.20,-1.17,-1.07,-1.30,-0.95,-0.95,-0.97
238.26,0.22,0.23,1.20,1.20,-1.19,-1.06,-1.32,-0.97,-0.97,-0.97
240.64,0.22,0.22,1.20,1.19,-1.20,-1.05,-1.34,-0.98,-0.98,-0.97
243.05,0.22,0.22,1.18,1.19,-1.20,-1.04,-1.36,-0.98,-0.98,-0.96
245.48,0.22,0.22,1.18,1.18,-1.19,-1.02,-1.37,-0.97,-0.97,-0.96
247.93,0.22,0.22,1.17,1.18,-1.18,-1.01,-1.38,-0.96,-0.96,-0.95
250.41,0.22,0.22,1.18,1.17,-1.17,-0.99,-1.38,-0.95,-0.95,-0.96
252.92,0.22,0.22,1.17,1.16,-1.16,-0.98,-1.39,-0.94,-0.94,-0.94
255.45,0.22,0.22,1.14,1.15,-1.15,-0.96,-1.39,-0.93,-0.93,-0.92
258.00,0.22,0.22,1.14,1.14,-1.15,-0.95,-1.39,-0.92,-0.92,-0.92
260.58,0.22,0.22,1.14,1.13,-1.14,-0.93,-1.38,-0.91,-0.91,-0.91
263.19,0.22,0.22,1.12,1.13,-1.13,-0.91,-1.37,-0.90,-0.90,-0.90
265.82,0.22,0.22,1.12,1.11,-1.11,-0.90,-1.36,-0.89,-0.89,-0.90
268.48,0.22,0.22,1.10,1.10,-1.10,-0.88,-1.35,-0.87,-0.87,-0.87
271.16,0.22,0.22,1.08,1.08,-1.08,-0.86,-1.33,-0.86,-0.86,-0.86
273.87,0.22,0.22,1.07,1.06,-1.06,-0.85,-1.31,-0.84,-0.84,-0.84
276.61,0.22,0.22,1.03,1.04,-1.04,-0.83,-1.29,-0.82,-0.82,-0.81
279.38,0.22,0.22,1.02,1.02,-1.02,-0.81,-1.27,-0.79,-0.79,-0.80
282.17,0.22,0.22,0.99,0.99,-0.99,-0.79,-1.24,-0.77,-0.77,-0.77
284.99,0.22,0.22,0.97,0.97,-0.97,-0.78,-1.22,-0.74,-0.74,-0.75
287.84,0.22,0.22,0.94,0.94,-0.94,-0.76,-1.19,-0.72,-0.72,-0.72
290.72,0.22,0.22,0.91,0.91,-0.91,-0.74,-1.16,-0.69,-0.69,-0.68
293.63,0.22,0.22,0.88,0.88,-0.89,-0.72,-1.13,-0.66,-0.66,-0.66
296.57,0.22,0.22,0.86,0.86,-0.86,-0.71,-1.10,-0.63,-0.63,-0.63
299.53,0.22,0.22,0.83,0.83,-0.83,-0.69,-1.07,-0.61,-0.61,-0.61
302.53,0.22,0.22,0.82,0.81,-0.80,-0.67,-1.04,-0.58,-0.58,-0.59
305.55,0.22,0.22,0.78,0.79,-0.78,-0.66,-1.01,-0.56,-0.56,-0.55
308.61,0.22,0.22,0.76,0.76,-0.77,-0.64,-0.97,-0.54,-0.54,-0.54
311.69,0.22,0.22,0.75,0.74,-0.76,-0.62,-0.94,-0.53,-0.53,-0.52
314.81,0.22,0.22,0.72,0.73,-0.75,-0.61,-0.91,-0.53,-0.53,-0.50
317.96,0.22,0.22,0.72,0.72,-0.74,-0.59,-0.88,-0.52,-0.52,-0.50
321.14,0.22,0.22,0.73,0.72,-0.72,-0.57,-0.84,-0.50,-0.50,-0.50
324.35,0.22,0.23,0.72,0.73,-0.69,-0.56,-0.81,-0.47,-0.46,-0.50
327.59,0.22,0.23,0.71,0.72,-0.66,-0.54,-0.78,-0.44,-0.43,-0.49
330.87,0.22,0.18,0.70,0.67,-0.62,-0.52,-0.75,-0.40,-0.44,-0.48
334.18,0.11,0.11,0.59,0.59,-0.58,-0.51,-0.72,-0.47,-0.47,-0.47
337.52,0.00,0.04,0.47,0.50,-0.53,-0.49,-0.68,-0.53,-0.49,-0.47
340.90,-0.01,-0.01,0.43,0.44,-0.48,-0.48,-0.65,-0.49,-0.49,-0.44
344.30,-0.01,-0.02,0.42,0.41,-0.43,-0.46,-0.62,-0.44,-0.45,-0.43
347.75,-0.01,-0.01,0.41,0.40,-0.39,-0.45,-0.59,-0.40,-0.40,-0.41
351.23,-0.01,-0.01,0.38,0.38,-0.37,-0.43,-0.56,-0.38,-0.38,-0.39
354.74,-0.01,-0.02,0.36,0.34,-0.37,-0.42,-0.54,-0.38,-0.39,-0.37
358.28,-0.01,-0.00,0.33,0.34,-0.38,-0.40,-0.51,-0.39,-0.39,-0.34
361.87,-0.01,0.05,0.32,0.37,-0.40,-0.39,-0.48,-0.40,-0.35,-0.32
365.49,0.15,0.12,0.45,0.42,-0.41,-0.38,-0.45,-0.25,-0.29,-0.29
369.14,0.21,0.19,0.49,0.46,-0.42,-0.36,-0.43,-0.21,-0.23,-0.28
372.83,0.22,0.23,0.47,0.48,-0.44,-0.35,-0.40,-0.21,-0.20,-0.25
376.56,0.22,0.23,0.45,0.45,-0.45,-0.33,-0.37,-0.22,-0.22,-0.23
380.33,0.22,0.22,0.43,0.43,-0.45,-0.32,-0.35,-0.23,-0.23,-0.20
384.13,0.22,0.22,0.41,0.41,-0.44,-0.31,-0.32,-0.21,-0.21,-0.18
387.97,0.22,0.23,0.40,0.40,-0.40,-0.29,-0.30,-0.18,-0.17,-0.17
391.85,0.22,0.23,0.39,0.40,-0.36,-0.28,-0.27,-0.14,-0.13,-0.17
395.77,0.22,0.20,0.38,0.36,-0.31,-0.27,-0.25,-0.09,-0.11,-0.16
399.73,0.16,0.14,0.31,0.29,-0.27,-0.26,-0.23,-0.10,-0.13,-0.15
403.72,0.03,0.07,0.17,0.21,-0.23,-0.24,-0.21,-0.19,-0.16,-0.14
407.76,-0.01,0.01,0.13,0.14,-0.19,-0.23,-0.18,-0.19,-0.18,-0.13
411.84,-0.01,-0.02,0.12,0.11,-0.15,-0.22,-0.16,-0.16,-0.17,-0.12
415.96,-0.01,-0.01,0.11,0.11,-0.12,-0.21,-0.14,-0.13,-0.13,-0.11
420.12,-0.01,-0.01,0.11,0.11,-0.10,-0.19,-0.12,-0.11,-0.11,-0.12
424.32,-0.01,-0.01,0.11,0.11,-0.10,-0.18,-0.10,-0.10,-0.10,-0.12
428.56,-0.01,-0.01,0.11,0.11,-0.10,-0.17,-0.08,-0.10,-0.10,-0.12
432.85,-0.01,-0.01,0.11,0.11,-0.10,-0.16,-0.06,-0.11,-0.11,-0.12
437.18,-0.01,-0.01,0.10,0.10,-0.10,-0.15,-0.04,-0.11,-0.11,-0.11
441.55,-0.01,-0.01,0.09,0.10,-0.10,-0.13,-0.02,-0.11,-0.11,-0.10
445.96,-0.01,-0.01,0.09,0.09,-0.09,-0.12,-0.00,-0.10,-0.10,-0.10
450.42,-0.01,-0.01,0.09,0.09,-0.09,-0.11,0.02,-0.09,-0.09,-0.09
454.93,-0.01,-0.01,0.08,0.08,-0.08,-0.10,0.03,-0.08,-0.08,-0.08
459.48,-0.01,-0.01,0.07,0.06,-0.06,-0.09,0.05,-0.07,-0.07,-0.07
464.07,-0.01,-0.01,0.05,0.05,-0.05,-0.08,0.07,-0.06,-0.06,-0.05
468.71,-0.01,-0.01,0.03,0.03,-0.03,-0.07,0.09,-0.04,-0.04,-0.04
473.40,-0.01,-0.01,0.02,0.01,-0.01,-0.05,0.10,-0.02,-0.02,-0.03
478.13,-0.01,-0.01,-0.01,-0.01,0.01,-0.04,0.12,0.00,0.00,0.00
482.91,-0.01,-0.01,-0.03,-0.03,0.03,-0.03,0.13,0.03,0.03,0.02
