frequency,raw
20,3.52
21,3.59
22,3.58
23,3.58
24,3.58
25,3.58
26,3.58
27,3.51
28,3.43
29,3.43
30,3.40
31,3.29
32,3.17
33,3.06
34,2.97
35,2.88
36,2.73
37,2.59
38,2.50
39,2.41
40,2.29
41,2.14
42,2.03
43,1.93
44,1.79
45,1.65
46,1.50
47,1.38
48,1.25
49,1.16
50,1.07
51,0.92
52,0.81
53,0.75
54,0.63
55,0.57
56,0.49
57,0.45
58,0.42
59,0.42
60,0.37
61,0.38
62,0.38
63,0.37
64,0.46
65,0.51
66,0.55
67,0.57
68,0.64
69,0.64
70,0.71
71,0.71
72,0.75
73,0.77
74,0.80
75,0.85
76,0.87
77,0.90
78,0.93
79,0.96
80,1.04
81,1.09
82,1.13
83,1.20
84,1.26
85,1.30
86,1.39
87,1.44
88,1.50
89,1.56
90,1.62
91,1.67
92,1.72
93,1.75
94,1.79
95,1.82
96,1.89
97,1.90
98,1.96
99,1.99
100,2.01
101,2.07
102,2.09
104,2.20
105,2.20
106,2.21
107,2.24
108,2.27
109,2.26
110,2.24
111,2.24
112,2.28
113,2.28
114,2.25
115,2.22
117,2.22
118,2.24
119,2.23
120,2.21
121,2.18
123,2.14
124,2.11
125,2.07
126,2.03
128,2.02
129,1.99
130,1.95
131,1.91
133,1.87
134,1.83
135,1.80
137,1.79
138,1.74
140,1.71
141,1.67
142,1.63
144,1.59
145,1.55
147,1.47
148,1.44
150,1.35
151,1.29
153,1.18
154,1.12
156,1.03
157,0.97
159,0.89
160,0.83
162,0.77
164,0.72
165,0.65
167,0.52
169,0.47
170,0.41
172,0.36
174,0.25
175,0.16
177,0.10
179,-0.02
181,-0.14
183,-0.26
184,-0.34
186,-0.46
188,-0.54
190,-0.68
192,-0.79
194,-0.93
196,-1.04
198,-1.16
200,-1.29
202,-1.43
204,-1.58
206,-1.69
208,-1.83
210,-1.94
212,-2.06
214,-2.21
216,-2.32
218,-2.47
221,-2.62
223,-2.77
225,-2.86
227,-3.00
229,-3.14
232,-3.29
234,-3.43
236,-3.58
239,-3.70
241,-3.81
244,-3.92
246,-3.98
248,-4.07
251,-4.14
253,-4.18
256,-4.24
259,-4.21
261,-4.24
264,-4.28
266,-4.25
269,-4.21
272,-4.25
274,-4.25
277,-4.11
280,-4.08
283,-4.09
286,-4.02
288,-3.98
291,-3.93
294,-3.92
297,-3.94
300,-3.89
303,-3.92
306,-3.91
309,-3.93
312,-3.97
316,-3.96
319,-4.01
322,-4.04
325,-4.14
328,-4.20
332,-4.29
335,-4.35
338,-4.40
342,-4.52
345,-4.57
349,-4.71
352,-4.75
356,-4.88
359,-5.01
363,-5.21
366,-5.31
370,-5.45
374,-5.65
377,-5.73
381,-5.91
385,-6.04
389,-6.17
393,-6.29
397,-6.37
401,-6.44
405,-6.51
409,-6.59
413,-6.66
417,-6.74
421,-6.82
425,-6.82
430,-6.88
434,-6.87
438,-6.92
443,-6.90
447,-6.90
451,-6.88
456,-6.82
460,-6.79
465,-6.74
470,-6.65
474,-6.58
479,-6.56
484,-6.47
489,-6.42
494,-6.30
499,-6.28
504,-6.21
509,-6.12
514,-6.06
519,-5.96
524,-5.90
529,-5.82
535,-5.73
540,-5.66
545,-5.57
551,-5.46
556,-5.40
562,-5.33
568,-5.23
573,-5.14
579,-5.02
585,-4.92
591,-4.86
596,-4.74
602,-4.66
608,-4.55
615,-4.47
621,-4.40
627,-4.32
633,-4.24
639,-4.17
646,-4.12
652,-4.04
659,-4.00
665,-4.05
672,-4.10
679,-4.07
686,-4.14
692,-4.10
699,-4.06
706,-4.03
713,-3.96
721,-3.86
728,-3.78
735,-3.66
742,-3.51
750,-3.38
757,-3.24
765,-3.11
773,-2.96
780,-2.83
788,-2.68
796,-2.53
804,-2.44
812,-2.31
820,-2.20
828,-2.11
837,-2.02
845,-1.90
853,-1.78
862,-1.64
871,-1.51
879,-1.41
888,-1.24
897,-1.12
906,-1.02
915,-0.88
924,-0.79
933,-0.65
943,-0.55
952,-0.43
962,-0.32
971,-0.23
981,-0.11
991,-0.04
1001,0.00
1011,0.06
1021,0.14
1031,0.19
1041,0.18
1052,0.14
1062,0.09
1073,-0.00
1084,-0.05
1094,-0.08
1105,-0.04
1116,-0.02
1128,-0.00
1139,0.06
1150,0.09
1162,0.16
1173,0.26
1185,0.33
1197,0.38
1209,0.43
1221,0.47
1233,0.60
1246,0.65
1258,0.70
1271,0.76
1283,0.84
1296,0.91
1309,0.94
1322,0.97
1335,0.94
1349,0.92
1362,0.95
1376,0.99
1390,0.95
1404,0.93
1418,0.88
1432,0.91
1446,0.90
1461,0.89
1475,0.86
1490,0.88
1505,0.85
1520,0.86
1535,0.82
1550,0.76
1566,0.65
1582,0.60
1597,0.53
1613,0.48
1629,0.41
1646,0.34
1662,0.29
1679,0.25
1696,0.23
1713,0.28
1730,0.34
1747,0.39
1764,0.44
1782,0.48
1800,0.52
1818,0.56
1836,0.61
1854,0.68
1873,0.74
1892,0.78
1911,0.79
1930,0.80
1949,0.80
1969,0.83
1988,0.92
2008,0.97
2028,1.07
2048,1.21
2069,1.28
2090,1.38
2111,1.49
2132,1.55
2153,1.62
2175,1.71
2196,1.73
2218,1.76
2240,1.78
2263,1.79
2285,1.86
2308,1.92
2331,1.90
2355,1.96
2378,2.17
2402,2.46
2426,2.72
2450,3.05
2475,3.37
2500,3.61
2525,3.79
2550,3.91
2575,3.99
2601,4.05
2627,4.12
2653,4.16
2680,4.17
2707,4.20
2734,4.21
2761,4.21
2789,4.15
2817,4.10
2845,4.06
2873,4.03
2902,4.00
2931,3.98
2960,3.96
2990,3.91
3020,3.83
3050,3.73
3080,3.59
3111,3.43
3142,3.21
3174,2.96
3206,2.77
3238,2.53
3270,2.31
3303,2.10
3336,1.91
3369,1.72
3403,1.51
3437,1.33
3471,1.10
3506,0.84
3541,0.57
3576,0.27
3612,-0.03
3648,-0.31
3685,-0.55
3721,-0.73
3759,-0.88
3796,-1.07
3834,-1.20
3873,-1.32
3911,-1.43
3950,-1.62
3990,-1.87
4030,-2.14
4070,-2.48
4111,-2.88
4152,-3.37
4193,-3.89
4235,-4.50
4278,-5.25
4321,-6.15
4364,-7.06
4407,-8.08
4451,-8.89
4496,-9.57
4541,-9.69
4586,-9.22
4632,-8.47
4679,-7.12
4725,-5.57
4773,-4.26
4820,-3.09
4868,-1.97
4917,-1.07
4966,-0.38
5016,0.08
5066,0.38
5117,0.56
5168,0.74
5220,0.87
5272,0.99
5325,1.05
5378,1.08
5432,1.09
5486,1.05
5541,1.02
5596,0.98
5652,0.88
5709,0.97
5766,1.13
5823,1.29
5882,1.48
5940,1.70
6000,1.95
6060,2.17
6120,2.43
6182,2.64
6244,2.77
6306,2.96
6369,3.13
6433,3.20
6497,3.27
6562,3.28
6628,3.20
6694,3.08
6761,2.87
6828,2.60
6897,2.22
6966,1.78
7035,1.27
7106,0.79
7177,0.31
7249,-0.24
7321,-0.65
7394,-1.01
7468,-1.33
7543,-1.64
7618,-1.93
7694,-2.16
7771,-2.28
7849,-2.41
7928,-2.44
8007,-2.29
8087,-2.03
8168,-1.57
8250,-0.88
8332,-0.22
8415,0.43
8499,1.07
8584,1.68
8670,2.22
8757,2.78
8845,3.24
8933,3.60
9022,4.03
9113,4.27
9204,4.07
9296,3.49
9389,2.55
9483,1.40
9577,0.31
9673,-0.84
9770,-1.94
9868,-3.07
9966,-4.05
10066,-4.83
10167,-5.48
10268,-5.90
10371,-6.13
10475,-6.20
10579,-6.04
10685,-5.87
10792,-5.54
10900,-5.28
11009,-4.98
11119,-4.74
11230,-4.47
11343,-4.23
11456,-4.35
11571,-4.88
11686,-5.04
11803,-4.83
11921,-4.46
12040,-4.09
12161,-3.66
12282,-3.72
12405,-4.30
12529,-5.16
12655,-6.22
12781,-7.26
12909,-8.16
13038,-8.68
13168,-9.00
13300,-9.18
13433,-9.13
13567,-8.94
13703,-8.79
13840,-8.67
13978,-8.65
14118,-8.62
14259,-8.46
14402,-8.30
14546,-8.21
14692,-8.20
14838,-8.39
14987,-8.81
15137,-9.45
15288,-10.15
15441,-11.09
15595,-12.18
15751,-13.33
15909,-14.54
16068,-15.75
16229,-16.96
16391,-18.13
16555,-18.93
16720,-19.34
16888,-19.54
17056,-19.47
17227,-19.36
17399,-19.15
17573,-18.89
17749,-18.74
17926,-18.58
18106,-18.44
18287,-18.31
18470,-18.20
18654,-18.11
18841,-18.02
19029,-18.36
19220,-18.64
19412,-19.03
19606,-19.54
19802,-20.10
20000,-20.65
