frequency,raw
20.00,-3.01
20.20,-2.77
20.40,-2.52
20.61,-2.27
20.81,-2.01
21.02,-1.75
21.23,-1.49
21.44,-1.24
21.66,-0.98
21.87,-0.73
22.09,-0.49
22.31,-0.25
22.54,-0.02
22.76,0.20
22.99,0.40
23.22,0.59
23.45,0.77
23.69,0.94
23.92,1.09
24.16,1.24
24.40,1.38
24.65,1.50
24.89,1.62
25.14,1.73
25.39,1.83
25.65,1.93
25.91,2.03
26.16,2.12
26.43,2.21
26.69,2.30
26.96,2.39
27.23,2.48
27.50,2.58
27.77,2.69
28.05,2.79
28.33,2.90
28.62,3.01
28.90,3.12
29.19,3.24
29.48,3.35
29.78,3.47
30.08,3.59
30.38,3.70
30.68,3.81
30.99,3.92
31.30,4.02
31.61,4.13
31.93,4.22
32.24,4.32
32.57,4.41
32.89,4.49
33.22,4.57
33.55,4.65
33.89,4.72
34.23,4.79
34.57,4.87
34.92,4.94
35.27,5.02
35.62,5.11
35.97,5.19
36.33,5.28
36.70,5.37
37.06,5.45
37.43,5.54
37.81,5.63
38.19,5.71
38.57,5.80
38.95,5.89
39.34,5.98
39.74,6.06
40.14,6.15
40.54,6.23
40.94,6.32
41.35,6.40
41.76,6.49
42.18,6.57
42.60,6.65
43.03,6.72
43.46,6.80
43.90,6.88
44.33,6.96
44.78,7.04
45.23,7.11
45.68,7.19
46.13,7.26
46.60,7.33
47.06,7.41
47.53,7.49
48.01,7.57
48.49,7.66
48.97,7.75
49.46,7.83
49.96,7.91
50.46,7.99
50.96,8.06
51.47,8.13
51.99,8.20
52.51,8.27
53.03,8.35
53.56,8.42
54.10,8.49
54.64,8.56
55.18,8.63
55.74,8.70
56.29,8.78
56.86,8.85
57.42,8.92
58.00,8.99
58.58,9.07
59.16,9.15
59.76,9.22
60.35,9.30
60.96,9.37
61.57,9.45
62.18,9.51
62.80,9.58
63.43,9.64
64.07,9.70
64.71,9.76
65.35,9.82
66.01,9.89
66.67,9.95
67.33,10.01
68.01,10.07
68.69,10.13
69.37,10.19
70.07,10.25
70.77,10.30
71.48,10.35
72.19,10.40
72.91,10.45
73.64,10.49
74.38,10.52
75.12,10.56
75.87,10.59
76.63,10.61
77.40,10.63
78.17,10.64
78.95,10.65
79.74,10.65
80.54,10.65
81.35,10.65
82.16,10.64
82.98,10.64
83.81,10.62
84.65,10.61
85.50,10.58
86.35,10.55
87.22,10.52
88.09,10.47
88.97,10.42
89.86,10.36
90.76,10.30
91.66,10.23
92.58,10.15
93.51,10.07
94.44,9.99
95.39,9.91
96.34,9.83
97.30,9.74
98.28,9.65
99.26,9.56
100.25,9.47
101.25,9.37
102.27,9.27
103.29,9.17
104.32,9.06
105.37,8.95
106.42,8.83
107.48,8.71
108.56,8.59
109.64,8.47
110.74,8.35
111.85,8.24
112.97,8.13
114.10,8.02
115.24,7.91
116.39,7.80
117.55,7.69
118.73,7.58
119.92,7.47
121.12,7.36
122.33,7.26
123.55,7.17
124.79,7.07
126.03,6.97
127.29,6.87
128.57,6.77
129.85,6.67
131.15,6.57
132.46,6.48
133.79,6.39
135.12,6.32
136.48,6.25
137.84,6.18
139.22,6.11
140.61,6.05
142.02,5.99
143.44,5.93
144.87,5.88
146.32,5.82
147.78,5.77
149.26,5.72
150.75,5.67
152.26,5.63
153.78,5.60
155.32,5.57
156.88,5.54
158.44,5.51
160.03,5.48
161.63,5.45
163.24,5.43
164.88,5.41
166.53,5.40
168.19,5.38
169.87,5.36
171.57,5.35
173.29,5.33
175.02,5.32
176.77,5.31
178.54,5.29
180.32,5.28
182.13,5.25
183.95,5.22
185.79,5.18
187.65,5.14
189.52,5.09
191.42,5.05
193.33,5.01
195.27,4.97
197.22,4.94
199.19,4.92
201.18,4.90
203.19,4.89
205.23,4.89
207.28,4.89
209.35,4.89
211.44,4.88
213.56,4.87
215.69,4.86
217.85,4.84
220.03,4.82
222.23,4.79
224.45,4.77
226.70,4.74
228.96,4.70
231.25,4.66
233.57,4.62
235.90,4.59
238.26,4.54
240.64,4.49
243.05,4.44
245.48,4.40
247.93,4.36
250.41,4.34
252.92,4.34
255.45,4.34
258.00,4.35
260.58,4.24
263.19,4.05
265.82,3.75
268.48,3.38
271.16,3.10
273.87,3.04
276.61,3.12
279.38,3.37
282.17,3.56
284.99,3.73
287.84,3.66
290.72,3.52
293.63,3.18
296.57,2.80
299.53,2.38
302.53,2.30
305.55,2.48
308.61,2.90
311.69,3.31
314.81,3.57
317.96,3.55
321.14,3.42
324.35,3.16
327.59,2.95
330.87,2.79
334.18,2.73
337.52,2.67
340.90,2.59
344.30,2.51
347.75,2.44
351.23,2.36
354.74,2.28
358.28,2.19
361.87,2.10
365.49,2.01
369.14,1.90
372.83,1.79
376.56,1.67
380.33,1.55
384.13,1.43
387.97,1.32
391.85,1.22
395.77,1.11
399.73,1.01
403.72,0.89
407.76,0.79
411.84,0.68
415.96,0.58
420.12,0.47
424.32,0.36
428.56,0.26
432.85,0.15
437.18,0.05
441.55,-0.04
445.96,-0.14
450.42,-0.23
454.93,-0.32
459.48,-0.40
464.07,-0.48
468.71,-0.57
473.40,-0.64
478.13,-0.70
482.91,-0.75
487.74,-0.80
492.62,-0.83
497.55,-0.86
502.52,-0.88
507.55,-0.90
512.62,-0.92
517.75,-0.93
522.93,-0.94
528.16,-0.94
533.44,-0.94
538.77,-0.94
544.16,-0.93
549.60,-0.91
555.10,-0.89
560.65,-0.86
566.25,-0.83
571.92,-0.80
577.64,-0.76
583.41,-0.72
589.25,-0.68
595.14,-0.65
601.09,-0.61
607.10,-0.59
613.17,-0.55
619.30,-0.52
625.50,-0.48
631.75,-0.44
638.07,-0.40
644.45,-0.36
650.89,-0.33
657.40,-0.29
663.98,-0.26
670.62,-0.22
677.32,-0.18
684.10,-0.15
690.94,-0.13
697.85,-0.11
704.83,-0.09
711.87,-0.08
718.99,-0.06
726.18,-0.04
733.44,-0.03
740.78,-0.01
748.19,0.01
755.67,0.04
763.23,0.06
770.86,0.08
778.57,0.10
786.35,0.12
794.22,0.12
802.16,0.12
810.18,0.11
818.28,0.10
826.46,0.10
834.73,0.10
843.08,0.10
851.51,0.10
860.02,0.10
868.62,0.10
877.31,0.09
886.08,0.08
894.94,0.07
903.89,0.06
912.93,0.06
922.06,0.05
931.28,0.04
940.59,0.02
950.00,0.01
959.50,0.01
969.09,0.01
978.78,0.01
988.57,0.01
998.46,0.00
1008.44,-0.01
1018.53,-0.03
1028.71,-0.05
1039.00,-0.07
1049.39,-0.08
1059.88,-0.09
1070.48,-0.10
1081.19,-0.11
1092.00,-0.12
1102.92,-0.13
1113.95,-0.14
1125.09,-0.15
1136.34,-0.15
1147.70,-0.15
1159.18,-0.15
1170.77,-0.15
1182.48,-0.16
1194.30,-0.17
1206.25,-0.18
1218.31,-0.18
1230.49,-0.17
1242.80,-0.16
1255.22,-0.14
1267.78,-0.11
1280.45,-0.08
1293.26,-0.06
1306.19,-0.04
1319.25,-0.02
1332.45,-0.04
1345.77,-0.07
1359.23,-0.12
1372.82,-0.19
1386.55,-0.26
1400.41,-0.33
1414.42,-0.38
1428.56,-0.44
1442.85,-0.46
1457.28,-0.48
1471.85,-0.48
1486.57,-0.47
1501.43,-0.45
1516.45,-0.41
1531.61,-0.36
1546.93,-0.29
1562.40,-0.22
1578.02,-0.13
1593.80,-0.04
1609.74,0.06
1625.84,0.16
1642.10,0.28
1658.52,0.41
1675.10,0.55
1691.85,0.70
1708.77,0.85
1725.86,1.00
1743.12,1.16
1760.55,1.32
1778.15,1.49
1795.94,1.67
1813.90,1.86
1832.03,2.06
1850.36,2.26
1868.86,2.46
1887.55,2.67
1906.42,2.87
1925.49,3.08
1944.74,3.29
1964.19,3.50
1983.83,3.70
2003.67,3.90
2023.71,4.09
2043.94,4.28
2064.38,4.46
2085.03,4.64
2105.88,4.81
2126.94,4.97
2148.20,5.12
2169.69,5.27
2191.38,5.40
2213.30,5.52
2235.43,5.63
2257.78,5.72
2280.36,5.80
2303.17,5.86
2326.20,5.90
2349.46,5.94
2372.95,5.96
2396.68,5.98
2420.65,5.98
2444.86,5.97
2469.31,5.96
2494.00,5.93
2518.94,5.88
2544.13,5.83
2569.57,5.76
2595.27,5.69
2621.22,5.60
2647.43,5.51
2673.90,5.42
2700.64,5.32
2727.65,5.23
2754.93,5.13
2782.48,5.03
2810.30,4.93
2838.40,4.83
2866.79,4.73
2895.46,4.62
2924.41,4.52
2953.65,4.42
2983.19,4.32
3013.02,4.23
3043.15,4.13
3073.58,4.04
3104.32,3.96
3135.36,3.88
3166.72,3.80
3198.38,3.72
3230.37,3.65
3262.67,3.58
3295.30,3.51
3328.25,3.43
3361.53,3.35
3395.15,3.26
3429.10,3.16
3463.39,3.07
3498.03,2.97
3533.01,2.87
3568.34,2.77
3604.02,2.67
3640.06,2.57
3676.46,2.47
3713.22,2.38
3750.36,2.29
3787.86,2.22
3825.74,2.15
3864.00,2.08
3902.64,2.01
3941.66,1.94
3981.08,1.87
4020.89,1.80
4061.10,1.72
4101.71,1.65
4142.73,1.58
4184.15,1.51
4226.00,1.44
4268.26,1.37
4310.94,1.29
4354.05,1.22
4397.59,1.16
4441.56,1.10
4485.98,1.06
4530.84,1.04
4576.15,1.03
4621.91,1.03
4668.13,1.06
4714.81,1.09
4761.96,1.13
4809.58,1.17
4857.67,1.22
4906.25,1.28
4955.31,1.35
5004.87,1.43
5054.91,1.52
5105.46,1.62
5156.52,1.72
5208.08,1.83
5260.16,1.94
5312.77,2.05
5365.89,2.16
5419.55,2.28
5473.75,2.41
5528.49,2.54
5583.77,2.68
5639.61,2.83
5696.00,2.98
5752.96,3.15
5810.49,3.33
5868.60,3.51
5927.28,3.71
5986.56,3.91
6046.42,4.11
6106.89,4.31
6167.96,4.51
6229.64,4.70
6291.93,4.87
6354.85,5.01
6418.40,5.12
6482.58,5.21
6547.41,5.25
6612.88,5.27
6679.01,5.24
6745.80,5.18
6813.26,5.09
6881.39,4.96
6950.21,4.82
7019.71,4.68
7089.91,4.53
7160.81,4.41
7232.41,4.30
7304.74,4.22
7377.79,4.17
7451.56,4.15
7526.08,4.16
7601.34,4.22
7677.35,4.31
7754.13,4.41
7831.67,4.51
7909.98,4.60
7989.08,4.67
8068.98,4.68
8149.67,4.68
8231.16,4.64
8313.47,4.56
8396.61,4.46
8480.57,4.33
8565.38,4.15
8651.03,3.95
8737.54,3.70
8824.92,3.39
8913.17,3.02
9002.30,2.62
9092.32,2.14
9183.25,1.61
9275.08,1.05
9367.83,0.45
9461.51,-0.18
9556.12,-0.82
9651.68,-1.46
9748.20,-2.09
9845.68,-2.72
9944.14,-3.33
10043.58,-3.93
10144.02,-4.51
10245.46,-5.06
10347.91,-5.58
10451.39,-6.07
10555.91,-6.50
10661.46,-6.87
10768.08,-7.18
10875.76,-7.40
10984.52,-7.55
11094.36,-7.67
11205.31,-7.75
11317.36,-7.82
11430.53,-7.89
11544.84,-7.97
11660.29,-8.07
11776.89,-8.17
11894.66,-8.29
12013.60,-8.41
12133.74,-8.52
12255.08,-8.63
12377.63,-8.74
12501.41,-8.83
12626.42,-8.91
12752.68,-8.99
12880.21,-9.06
13009.01,-9.13
13139.10,-9.20
13270.49,-9.25
13403.20,-9.29
13537.23,-9.28
13672.60,-9.24
13809.33,-9.16
13947.42,-9.05
14086.90,-8.95
14227.77,-8.85
14370.04,-8.80
14513.74,-8.80
14658.88,-8.94
14805.47,-9.16
14953.52,-9.51
15103.06,-10.02
15254.09,-10.61
15406.63,-11.40
15560.70,-12.25
15716.30,-13.20
15873.47,-14.19
16032.20,-15.17
16192.52,-16.09
16354.45,-16.91
16517.99,-17.65
16683.17,-18.24
16850.01,-18.75
17018.51,-19.21
17188.69,-19.60
17360.58,-19.98
17534.18,-20.33
17709.53,-20.68
17886.62,-21.04
18065.49,-21.44
18246.14,-21.87
18428.60,-22.37
18612.89,-22.90
18799.02,-23.44
18987.01,-23.97
19176.88,-24.48
19368.65,-24.96
19562.33,-25.40
19757.96,-25.79
19955.54,-26.18
