frequency,raw,error,smoothed,error_smoothed,equalization,parametric_eq,fixed_band_eq,equalized_raw,equalized_smoothed,target
20.00,1.14,-3.26,1.14,-3.26,3.26,2.82,0.50,4.40,4.40,4.40
20.20,1.21,-3.23,1.21,-3.23,3.23,2.78,0.51,4.44,4.44,4.44
20.40,1.27,-3.20,1.28,-3.20,3.20,2.74,0.53,4.48,4.48,4.48
20.61,1.34,-3.17,1.34,-3.17,3.17,2.70,0.55,4.51,4.51,4.51
20.81,1.41,-3.13,1.41,-3.14,3.13,2.66,0.56,4.55,4.55,4.55
21.02,1.48,-3.10,1.48,-3.10,3.10,2.62,0.58,4.58,4.58,4.59
21.23,1.54,-3.06,1.55,-3.06,3.06,2.58,0.60,4.60,4.60,4.61
21.44,1.61,-3.01,1.61,-3.02,3.01,2.54,0.62,4.63,4.63,4.63
21.66,1.68,-2.96,1.68,-2.97,2.97,2.50,0.64,4.65,4.64,4.65
21.87,1.74,-2.91,1.75,-2.91,2.92,2.46,0.66,4.66,4.66,4.66
22.09,1.81,-2.86,1.81,-2.86,2.86,2.42,0.68,4.68,4.67,4.68
22.31,1.88,-2.80,1.88,-2.81,2.81,2.38,0.70,4.69,4.68,4.69
22.54,1.94,-2.75,1.95,-2.75,2.75,2.34,0.72,4.69,4.69,4.70
22.76,2.01,-2.69,2.01,-2.69,2.69,2.30,0.74,4.70,4.70,4.71
22.99,2.08,-2.62,2.08,-2.63,2.63,2.25,0.77,4.71,4.71,4.71
23.22,2.14,-2.57,2.15,-2.57,2.57,2.21,0.79,4.71,4.72,4.71
23.45,2.21,-2.51,2.21,-2.51,2.51,2.17,0.81,4.73,4.73,4.72
23.69,2.28,-2.45,2.28,-2.45,2.46,2.13,0.84,4.74,4.74,4.73
23.92,2.35,-2.39,2.35,-2.40,2.40,2.10,0.86,4.75,4.75,4.74
24.16,2.42,-2.34,2.42,-2.34,2.34,2.06,0.89,4.76,4.76,4.76
24.40,2.48,-2.30,2.49,-2.29,2.28,2.02,0.91,4.77,4.77,4.78
24.65,2.55,-2.23,2.55,-2.23,2.23,1.98,0.94,4.78,4.78,4.78
24.89,2.62,-2.17,2.62,-2.17,2.17,1.94,0.96,4.79,4.79,4.79
25.14,2.69,-2.11,2.69,-2.11,2.11,1.90,0.99,4.80,4.81,4.80
25.39,2.76,-2.05,2.76,-2.05,2.05,1.86,1.01,4.82,4.82,4.81
25.65,2.83,-2.00,2.83,-1.99,1.99,1.82,1.04,4.83,4.82,4.83
25.91,2.89,-1.94,2.90,-1.94,1.94,1.78,1.07,4.83,4.83,4.83
26.16,2.96,-1.88,2.96,-1.88,1.88,1.74,1.09,4.84,4.84,4.84
26.43,3.03,-1.82,3.03,-1.82,1.82,1.71,1.12,4.85,4.85,4.85
26.69,3.09,-1.76,3.10,-1.77,1.77,1.67,1.14,4.86,4.86,4.86
26.96,3.16,-1.71,3.16,-1.71,1.71,1.63,1.16,4.87,4.87,4.88
27.23,3.23,-1.65,3.23,-1.65,1.65,1.59,1.19,4.88,4.88,4.89
27.50,3.30,-1.59,3.30,-1.60,1.59,1.56,1.21,4.89,4.89,4.90
27.77,3.36,-1.53,3.37,-1.53,1.53,1.52,1.23,4.90,4.90,4.90
28.05,3.43,-1.48,3.43,-1.47,1.48,1.48,1.25,4.91,4.91,4.91
28.33,3.50,-1.41,3.50,-1.42,1.42,1.44,1.27,4.92,4.92,4.91
28.62,3.56,-1.36,3.57,-1.36,1.36,1.41,1.28,4.92,4.93,4.92
28.90,3.63,-1.30,3.63,-1.30,1.30,1.37,1.30,4.94,4.93,4.93
29.19,3.69,-1.24,3.70,-1.25,1.25,1.34,1.31,4.94,4.94,4.93
29.48,3.76,-1.20,3.76,-1.19,1.19,1.30,1.32,4.95,4.95,4.96
29.78,3.82,-1.14,3.82,-1.13,1.13,1.26,1.33,4.95,4.95,4.96
30.08,3.89,-1.08,3.89,-1.08,1.07,1.23,1.34,4.96,4.96,4.97
30.38,3.96,-1.00,3.96,-1.01,1.01,1.19,1.34,4.97,4.97,4.97
30.68,4.03,-0.95,4.04,-0.94,0.95,1.16,1.34,4.98,4.98,4.99
30.99,4.11,-0.87,4.11,-0.88,0.89,1.12,1.34,5.00,4.99,4.98
31.30,4.17,-0.82,4.17,-0.82,0.83,1.09,1.34,5.00,5.00,4.99
31.61,4.23,-0.77,4.24,-0.76,0.77,1.06,1.33,5.00,5.00,5.00
31.93,4.30,-0.71,4.30,-0.71,0.71,1.02,1.32,5.01,5.01,5.01
32.24,4.36,-0.65,4.36,-0.65,0.65,0.99,1.31,5.02,5.02,5.01
32.57,4.42,-0.61,4.43,-0.60,0.60,0.96,1.30,5.02,5.03,5.03
32.89,4.49,-0.54,4.49,-0.55,0.55,0.92,1.28,5.04,5.04,5.04
33.22,4.55,-0.49,4.55,-0.50,0.49,0.89,1.26,5.05,5.04,5.05
33.55,4.60,-0.45,4.61,-0.44,0.44,0.86,1.24,5.05,5.05,5.05
33.89,4.66,-0.40,4.66,-0.40,0.40,0.83,1.22,5.06,5.06,5.06
34.23,4.72,-0.35,4.72,-0.35,0.35,0.80,1.19,5.07,5.07,5.07
34.57,4.77,-0.31,4.78,-0.30,0.30,0.76,1.17,5.07,5.08,5.08
34.92,4.83,-0.24,4.83,-0.25,0.26,0.73,1.14,5.09,5.08,5.08
35.27,4.87,-0.21,4.87,-0.21,0.21,0.70,1.11,5.08,5.09,5.08
35.62,4.91,-0.18,4.92,-0.17,0.17,0.67,1.08,5.08,5.09,5.09
35.97,4.96,-0.13,4.96,-0.13,0.13,0.64,1.05,5.09,5.09,5.09
36.33,5.00,-0.09,5.00,-0.09,0.09,0.61,1.01,5.10,5.10,5.10
36.70,5.04,-0.05,5.05,-0.05,0.06,0.58,0.98,5.10,5.11,5.10
37.06,5.09,-0.01,5.09,-0.02,0.02,0.55,0.94,5.11,5.11,5.10
37.43,5.12,0.01,5.12,0.01,-0.01,0.52,0.91,5.11,5.11,5.11
37.81,5.14,0.03,5.15,0.04,-0.04,0.49,0.87,5.10,5.10,5.11
38.19,5.17,0.07,5.17,0.07,-0.07,0.47,0.83,5.10,5.10,5.11
38.57,5.20,0.10,5.20,0.10,-0.10,0.44,0.80,5.10,5.10,5.10
38.95,5.23,0.13,5.23,0.13,-0.13,0.41,0.76,5.11,5.10,5.10
39.34,5.25,0.16,5.25,0.16,-0.15,0.38,0.72,5.10,5.10,5.10
39.74,5.27,0.18,5.27,0.18,-0.17,0.36,0.69,5.10,5.10,5.09
40.14,5.29,0.19,5.29,0.19,-0.19,0.33,0.65,5.10,5.10,5.10
40.54,5.30,0.21,5.31,0.21,-0.21,0.30,0.61,5.09,5.10,5.10
40.94,5.32,0.23,5.32,0.23,-0.22,0.28,0.57,5.10,5.10,5.09
41.35,5.33,0.24,5.33,0.24,-0.23,0.25,0.54,5.10,5.10,5.09
41.76,5.34,0.25,5.34,0.24,-0.24,0.22,0.50,5.10,5.10,5.10
42.18,5.34,0.24,5.35,0.25,-0.25,0.20,0.46,5.09,5.10,5.10
42.60,5.35,0.25,5.35,0.25,-0.26,0.17,0.43,5.10,5.10,5.10
43.03,5.36,0.26,5.36,0.26,-0.26,0.15,0.39,5.10,5.10,5.10
43.46,5.36,0.26,5.36,0.27,-0.27,0.12,0.36,5.10,5.10,5.10
43.90,5.36,0.28,5.36,0.27,-0.27,0.10,0.32,5.10,5.10,5.09
44.33,5.36,0.27,5.36,0.27,-0.27,0.07,0.28,5.09,5.09,5.09
44.78,5.35,0.27,5.36,0.27,-0.27,0.05,0.25,5.08,5.09,5.09
45.23,5.35,0.27,5.35,0.27,-0.27,0.02,0.21,5.08,5.08,5.08
45.68,5.35,0.27,5.35,0.27,-0.27,0.00,0.18,5.09,5.08,5.09
46.13,5.35,0.27,5.35,0.27,-0.27,-0.02,0.15,5.09,5.09,5.08
46.60,5.35,0.26,5.35,0.27,-0.27,-0.05,0.11,5.09,5.09,5.09
47.06,5.35,0.26,5.36,0.27,-0.27,-0.07,0.08,5.08,5.09,5.09
47.53,5.36,0.28,5.36,0.27,-0.27,-0.09,0.04,5.09,5.08,5.08
48.01,5.36,0.27,5.36,0.28,-0.28,-0.12,0.01,5.08,5.08,5.10
48.49,5.36,0.28,5.37,0.29,-0.29,-0.14,-0.02,5.07,5.07,5.08
48.97,5.37,0.31,5.37,0.30,-0.30,-0.16,-0.05,5.07,5.07,5.06
49.46,5.37,0.32,5.38,0.32,-0.32,-0.18,-0.09,5.06,5.06,5.06
49.96,5.38,0.34,5.38,0.33,-0.33,-0.20,-0.12,5.05,5.05,5.04
50.46,5.38,0.34,5.38,0.35,-0.34,-0.23,-0.15,5.04,5.04,5.04
50.96,5.38,0.35,5.38,0.36,-0.36,-0.25,-0.18,5.03,5.03,5.03
51.47,5.38,0.38,5.38,0.37,-0.37,-0.27,-0.22,5.01,5.01,5.00
51.99,5.38,0.39,5.38,0.38,-0.38,-0.29,-0.25,5.00,5.00,5.00
52.51,5.38,0.39,5.38,0.39,-0.39,-0.31,-0.28,4.99,4.99,5.00
53.03,5.38,0.40,5.38,0.40,-0.40,-0.33,-0.31,4.98,4.98,4.98
53.56,5.37,0.40,5.38,0.41,-0.41,-0.36,-0.34,4.96,4.96,4.97
54.10,5.37,0.42,5.38,0.42,-0.43,-0.38,-0.37,4.94,4.95,4.95
54.64,5.38,0.44,5.38,0.44,-0.45,-0.40,-0.40,4.94,4.93,4.94
55.18,5.38,0.46,5.39,0.47,-0.47,-0.42,-0.43,4.92,4.92,4.92
55.74,5.39,0.50,5.39,0.49,-0.49,-0.44,-0.46,4.91,4.91,4.90
56.29,5.40,0.51,5.40,0.51,-0.51,-0.46,-0.48,4.89,4.89,4.90
56.86,5.41,0.54,5.41,0.54,-0.54,-0.48,-0.51,4.88,4.88,4.88
57.42,5.42,0.57,5.42,0.57,-0.56,-0.50,-0.54,4.86,4.86,4.85
58.00,5.43,0.59,5.44,0.60,-0.59,-0.52,-0.57,4.84,4.84,4.84
58.58,5.45,0.63,5.45,0.62,-0.62,-0.54,-0.59,4.83,4.83,4.83
59.16,5.46,0.65,5.47,0.65,-0.66,-0.57,-0.62,4.81,4.81,4.81
59.76,5.48,0.68,5.48,0.68,-0.69,-0.59,-0.64,4.79,4.79,4.80
60.35,5.50,0.73,5.50,0.72,-0.73,-0.61,-0.67,4.77,4.77,4.78
60.96,5.51,0.76,5.51,0.77,-0.77,-0.63,-0.69,4.75,4.75,4.75
61.57,5.52,0.81,5.52,0.81,-0.80,-0.65,-0.72,4.72,4.72,4.72
62.18,5.53,0.85,5.53,0.84,-0.84,-0.67,-0.74,4.70,4.70,4.68
62.80,5.53,0.87,5.53,0.88,-0.87,-0.69,-0.76,4.67,4.67,4.67
63.43,5.53,0.90,5.53,0.90,-0.90,-0.71,-0.78,4.64,4.64,4.63
64.07,5.52,0.92,5.52,0.92,-0.92,-0.73,-0.80,4.60,4.60,4.60
64.71,5.51,0.94,5.51,0.94,-0.94,-0.75,-0.82,4.57,4.57,4.58
65.35,5.50,0.96,5.50,0.96,-0.96,-0.77,-0.84,4.55,4.55,4.55
66.01,5.49,0.97,5.49,0.97,-0.97,-0.79,-0.86,4.52,4.52,4.52
66.67,5.48,0.98,5.48,0.98,-0.99,-0.81,-0.88,4.50,4.49,4.50
67.33,5.46,0.99,5.47,1.00,-1.00,-0.83,-0.90,4.46,4.47,4.47
68.01,5.45,1.01,5.45,1.01,-1.01,-0.85,-0.92,4.44,4.44,4.44
68.69,5.43,1.02,5.43,1.03,-1.02,-0.87,-0.94,4.41,4.41,4.41
69.37,5.41,1.04,5.41,1.04,-1.03,-0.89,-0.96,4.38,4.38,4.38
70.07,5.39,1.05,5.39,1.04,-1.04,-0.91,-0.98,4.36,4.35,4.35
70.77,5.36,1.04,5.37,1.04,-1.04,-0.93,-1.00,4.32,4.32,4.32
71.48,5.34,1.04,5.34,1.04,-1.05,-0.95,-1.02,4.30,4.30,4.30
72.19,5.31,1.05,5.31,1.05,-1.05,-0.97,-1.04,4.27,4.27,4.27
72.91,5.29,1.05,5.29,1.05,-1.05,-0.98,-1.06,4.25,4.24,4.24
73.64,5.26,1.04,5.27,1.05,-1.04,-1.00,-1.08,4.22,4.22,4.22
74.38,5.24,1.04,5.24,1.04,-1.04,-1.02,-1.10,4.20,4.20,4.20
75.12,5.22,1.05,5.22,1.04,-1.04,-1.03,-1.12,4.18,4.18,4.18
75.87,5.19,1.03,5.20,1.04,-1.04,-1.05,-1.15,4.15,4.16,4.16
76.63,5.18,1.04,5.18,1.04,-1.04,-1.06,-1.17,4.14,4.14,4.14
77.40,5.16,1.04,5.16,1.04,-1.04,-1.07,-1.19,4.12,4.12,4.13
78.17,5.15,1.05,5.15,1.04,-1.05,-1.09,-1.22,4.11,4.11,4.11
78.95,5.14,1.05,5.15,1.05,-1.05,-1.10,-1.24,4.09,4.09,4.10
79.74,5.14,1.05,5.15,1.06,-1.06,-1.11,-1.27,4.08,4.08,4.09
80.54,5.15,1.07,5.15,1.07,-1.08,-1.11,-1.30,4.08,4.07,4.08
81.35,5.15,1.09,5.16,1.09,-1.09,-1.12,-1.33,4.06,4.07,4.07
82.16,5.16,1.11,5.16,1.10,-1.10,-1.13,-1.36,4.06,4.06,4.06
82.98,5.17,1.12,5.17,1.12,-1.12,-1.13,-1.39,4.06,4.05,4.05
83.81,5.17,1.13,5.17,1.13,-1.13,-1.13,-1.42,4.05,4.05,4.04
84.65,5.17,1.14,5.17,1.14,-1.13,-1.14,-1.45,4.04,4.04,4.03
85.50,5.17,1.14,5.17,1.14,-1.14,-1.14,-1.49,4.04,4.04,4.04
86.35,5.17,1.14,5.17,1.14,-1.14,-1.14,-1.52,4.04,4.04,4.03
87.22,5.17,1.15,5.17,1.14,-1.14,-1.15,-1.56,4.04,4.03,4.03
88.09,5.16,1.14,5.16,1.14,-1.13,-1.15,-1.60,4.03,4.03,4.02
88.97,5.15,1.13,5.15,1.13,-1.13,-1.16,-1.64,4.02,4.02,4.03
89.86,5.14,1.11,5.15,1.12,-1.13,-1.17,-1.68,4.01,4.02,4.03
90.76,5.14,1.13,5.14,1.12,-1.13,-1.19,-1.72,4.01,4.01,4.02
91.66,5.15,1.13,5.15,1.13,-1.13,-1.21,-1.77,4.02,4.02,4.02
92.58,5.16,1.15,5.16,1.15,-1.14,-1.24,-1.81,4.02,4.02,4.01
93.51,5.18,1.16,5.18,1.16,-1.15,-1.27,-1.86,4.03,4.02,4.02
94.44,5.19,1.18,5.19,1.18,-1.18,-1.31,-1.91,4.02,4.02,4.02
95.39,5.21,1.19,5.21,1.20,-1.20,-1.36,-1.95,4.01,4.01,4.02
96.34,5.23,1.23,5.23,1.23,-1.24,-1.41,-2.00,3.99,3.99,4.00
97.30,5.26,1.27,5.27,1.27,-1.28,-1.46,-2.05,3.98,3.98,3.99
98.28,5.30,1.32,5.31,1.32,-1.33,-1.51,-2.10,3.97,3.98,3.98
99.26,5.36,1.39,5.36,1.38,-1.38,-1.57,-2.16,3.98,3.97,3.97
100.25,5.41,1.45,5.42,1.45,-1.44,-1.63,-2.21,3.97,3.97,3.97
101.25,5.47,1.52,5.47,1.52,-1.51,-1.68,-2.26,3.97,3.96,3.96
102.27,5.52,1.59,5.52,1.58,-1.57,-1.74,-2.31,3.95,3.94,3.94
103.29,5.55,1.64,5.56,1.63,-1.64,-1.79,-2.37,3.92,3.92,3.92
104.32,5.59,1.68,5.60,1.69,-1.70,-1.85,-2.42,3.90,3.90,3.91
105.37,5.64,1.75,5.64,1.76,-1.76,-1.90,-2.47,3.88,3.88,3.89
106.42,5.69,1.83,5.69,1.82,-1.82,-1.95,-2.52,3.87,3.87,3.86
107.48,5.72,1.88,5.72,1.89,-1.88,-1.99,-2.57,3.85,3.85,3.84
108.56,5.75,1.95,5.75,1.94,-1.94,-2.04,-2.62,3.82,3.81,3.80
109.64,5.76,1.99,5.77,1.99,-2.00,-2.08,-2.67,3.76,3.77,3.77
110.74,5.78,2.04,5.79,2.05,-2.06,-2.12,-2.71,3.72,3.73,3.74
111.85,5.82,2.12,5.82,2.12,-2.12,-2.16,-2.76,3.70,3.70,3.70
112.97,5.85,2.20,5.85,2.19,-2.19,-2.19,-2.80,3.66,3.66,3.66
114.10,5.88,2.26,5.88,2.26,-2.25,-2.23,-2.84,3.63,3.63,3.63
115.24,5.90,2.32,5.90,2.32,-2.32,-2.26,-2.87,3.58,3.58,3.58
116.39,5.92,2.39,5.92,2.39,-2.39,-2.29,-2.91,3.53,3.53,3.53
117.55,5.94,2.45,5.95,2.46,-2.47,-2.32,-2.93,3.48,3.48,3.49
118.73,5.98,2.54,5.98,2.53,-2.54,-2.34,-2.96,3.45,3.45,3.45
119.92,6.02,2.60,6.02,2.61,-2.60,-2.37,-2.98,3.42,3.41,3.42
121.12,6.05,2.68,6.05,2.68,-2.67,-2.39,-2.99,3.38,3.38,3.37
122.33,6.07,2.74,6.08,2.74,-2.74,-2.41,-3.00,3.34,3.34,3.34
123.55,6.10,2.79,6.10,2.80,-2.80,-2.43,-3.01,3.30,3.31,3.31
124.79,6.13,2.86,6.13,2.86,-2.86,-2.44,-3.01,3.28,3.27,3.27
126.03,6.15,2.91,6.15,2.91,-2.91,-2.46,-3.01,3.25,3.24,3.24
127.29,6.16,2.96,6.16,2.96,-2.95,-2.47,-3.00,3.21,3.21,3.20
128.57,6.16,3.00,6.16,3.00,-2.99,-2.49,-2.99,3.17,3.17,3.16
129.85,6.16,3.03,6.16,3.03,-3.03,-2.49,-2.97,3.13,3.13,3.14
131.15,6.16,3.06,6.16,3.06,-3.06,-2.50,-2.95,3.10,3.10,3.10
132.46,6.16,3.08,6.16,3.08,-3.09,-2.51,-2.93,3.07,3.08,3.08
133.79,6.16,3.10,6.17,3.11,-3.11,-2.52,-2.90,3.05,3.05,3.06
135.12,6.16,3.14,6.16,3.13,-3.13,-2.52,-2.86,3.03,3.03,3.03
136.48,6.15,3.15,6.15,3.14,-3.14,-2.52,-2.83,3.01,3.00,3.01
137.84,6.12,3.15,6.13,3.16,-3.15,-2.52,-2.79,2.97,2.98,2.98
139.22,6.11,3.17,6.11,3.16,-3.16,-2.52,-2.74,2.95,2.95,2.95
140.61,6.09,3.18,6.09,3.17,-3.16,-2.52,-2.70,2.93,2.93,2.92
142.02,6.06,3.15,6.07,3.16,-3.16,-2.52,-2.65,2.90,2.91,2.91
143.44,6.04,3.15,6.04,3.15,-3.16,-2.51,-2.60,2.89,2.88,2.89
144.87,6.00,3.14,6.01,3.14,-3.15,-2.50,-2.55,2.86,2.86,2.86
146.32,5.97,3.14,5.97,3.13,-3.13,-2.49,-2.49,2.84,2.84,2.84
147.78,5.93,3.11,5.93,3.12,-3.11,-2.48,-2.44,2.82,2.82,2.82
149.26,5.89,3.10,5.89,3.10,-3.09,-2.47,-2.39,2.80,2.79,2.80
150.75,5.82,3.07,5.83,3.07,-3.07,-2.46,-2.33,2.75,2.76,2.75
152.26,5.77,3.05,5.77,3.04,-3.04,-2.45,-2.27,2.73,2.73,2.73
153.78,5.70,3.00,5.70,3.01,-3.01,-2.43,-2.22,2.69,2.69,2.70
155.32,5.64,2.98,5.64,2.98,-2.98,-2.41,-2.16,2.66,2.66,2.66
156.88,5.57,2.94,5.58,2.94,-2.95,-2.39,-2.11,2.62,2.63,2.64
158.44,5.52,2.92,5.51,2.91,-2.91,-2.37,-2.05,2.61,2.60,2.60
160.03,5.43,2.87,5.44,2.88,-2.87,-2.35,-2.00,2.56,2.57,2.56
161.63,5.36,2.84,5.37,2.84,-2.82,-2.33,-1.94,2.54,2.54,2.52
163.24,5.29,2.80,5.27,2.78,-2.78,-2.31,-1.89,2.52,2.50,2.49
164.88,5.17,2.71,5.19,2.73,-2.72,-2.28,-1.84,2.45,2.46,2.46
166.53,5.08,2.66,5.09,2.66,-2.67,-2.26,-1.78,2.42,2.42,2.42
168.19,5.00,2.62,4.99,2.60,-2.61,-2.23,-1.73,2.39,2.38,2.38
169.87,4.88,2.54,4.90,2.55,-2.56,-2.20,-1.69,2.33,2.34,2.35
171.57,4.80,2.49,4.80,2.50,-2.50,-2.17,-1.64,2.30,2.30,2.31
173.29,4.72,2.46,4.70,2.44,-2.45,-2.14,-1.59,2.27,2.25,2.26
175.02,4.60,2.38,4.61,2.40,-2.40,-2.11,-1.54,2.20,2.21,2.22
176.77,4.51,2.34,4.52,2.35,-2.35,-2.08,-1.50,2.16,2.17,2.17
178.54,4.44,2.32,4.44,2.31,-2.30,-2.04,-1.46,2.14,2.14,2.12
180.32,4.35,2.28,4.35,2.27,-2.26,-2.01,-1.41,2.10,2.09,2.08
182.13,4.26,2.23,4.25,2.21,-2.21,-1.98,-1.37,2.06,2.04,2.03
183.95,4.11,2.13,4.13,2.15,-2.16,-1.94,-1.33,1.96,1.98,1.98
185.79,4.02,2.09,4.02,2.10,-2.11,-1.90,-1.29,1.91,1.92,1.94
187.65,3.93,2.06,3.93,2.05,-2.06,-1.86,-1.26,1.87,1.87,1.87
189.52,3.83,2.00,3.84,2.01,-2.01,-1.83,-1.22,1.82,1.83,1.83
191.42,3.75,1.97,3.75,1.96,-1.96,-1.79,-1.18,1.79,1.79,1.79
193.33,3.65,1.91,3.66,1.91,-1.91,-1.75,-1.15,1.74,1.75,1.74
195.27,3.56,1.86,3.56,1.86,-1.86,-1.70,-1.12,1.70,1.70,1.70
197.22,3.46,1.81,3.46,1.81,-1.81,-1.66,-1.08,1.65,1.65,1.65
199.19,3.36,1.76,3.36,1.76,-1.75,-1.62,-1.05,1.61,1.61,1.60
201.18,3.26,1.70,3.26,1.70,-1.70,-1.58,-1.02,1.56,1.56,1.56
203.19,3.16,1.63,3.16,1.64,-1.64,-1.54,-0.99,1.52,1.52,1.53
205.23,3.06,1.58,3.06,1.57,-1.58,-1.49,-0.96,1.49,1.48,1.48
207.28,2.96,1.50,2.96,1.51,-1.52,-1.45,-0.94,1.45,1.45,1.46
209.35,2.86,1.45,2.86,1.46,-1.45,-1.40,-0.91,1.41,1.41,1.41
211.44,2.76,1.40,2.76,1.39,-1.39,-1.36,-0.88,1.37,1.37,1.36
213.56,2.66,1.33,2.66,1.32,-1.33,-1.31,-0.86,1.34,1.34,1.33
215.69,2.56,1.25,2.56,1.26,-1.26,-1.27,-0.83,1.30,1.30,1.32
217.85,2.46,1.19,2.47,1.19,-1.19,-1.22,-0.81,1.27,1.28,1.28
220.03,2.38,1.14,2.37,1.13,-1.12,-1.17,-0.78,1.26,1.25,1.24
222.23,2.28,1.07,2.28,1.06,-1.05,-1.13,-0.76,1.23,1.22,1.21
224.45,2.17,0.98,2.18,0.99,-0.99,-1.08,-0.74,1.19,1.19,1.20
226.70,2.08,0.90,2.08,0.91,-0.92,-1.03,-0.71,1.17,1.17,1.18
228.96,1.99,0.84,2.00,0.84,-0.85,-0.99,-0.69,1.14,1.15,1.15
231.25,1.93,0.79,1.92,0.78,-0.79,-0.94,-0.67,1.15,1.14,1.15
233.57,1.85,0.72,1.85,0.72,-0.72,-0.89,-0.65,1.13,1.12,1.13
235.90,1.76,0.65,1.78,0.66,-0.66,-0.84,-0.63,1.10,1.11,1.11
238.26,1.71,0.61,1.71,0.60,-0.60,-0.80,-0.61,1.11,1.11,1.11
240.64,1.64,0.54,1.65,0.55,-0.54,-0.75,-0.58,1.10,1.11,1.10
243.05,1.60,0.50,1.59,0.49,-0.48,-0.70,-0.56,1.12,1.11,1.11
245.48,1.53,0.43,1.53,0.43,-0.42,-0.65,-0.54,1.11,1.11,1.10
247.93,1.45,0.35,1.46,0.36,-0.36,-0.61,-0.52,1.10,1.11,1.11
250.41,1.40,0.30,1.40,0.29,-0.30,-0.56,-0.50,1.11,1.10,1.10
252.92,1.33,0.22,1.34,0.22,-0.24,-0.51,-0.48,1.10,1.10,1.12
255.45,1.29,0.16,1.29,0.17,-0.17,-0.47,-0.46,1.12,1.12,1.13
258.00,1.25,0.11,1.25,0.11,-0.11,-0.42,-0.44,1.14,1.14,1.14
260.58,1.20,0.06,1.21,0.06,-0.05,-0.37,-0.42,1.15,1.16,1.14
263.19,1.16,0.00,1.16,0.00,0.01,-0.33,-0.40,1.17,1.17,1.16
265.82,1.10,-0.06,1.11,-0.07,0.07,-0.28,-0.38,1.18,1.18,1.17
268.48,1.05,-0.14,1.05,-0.13,0.14,-0.24,-0.36,1.19,1.19,1.19
271.16,1.00,-0.21,1.00,-0.20,0.20,-0.19,-0.34,1.20,1.20,1.21
273.87,0.95,-0.26,0.96,-0.27,0.27,-0.15,-0.31,1.22,1.22,1.22
276.61,0.91,-0.33,0.91,-0.33,0.33,-0.10,-0.29,1.24,1.24,1.24
279.38,0.86,-0.39,0.86,-0.39,0.39,-0.06,-0.27,1.25,1.25,1.25
282.17,0.81,-0.45,0.82,-0.45,0.44,-0.01,-0.25,1.26,1.26,1.27
284.99,0.77,-0.51,0.78,-0.50,0.49,0.03,-0.23,1.27,1.27,1.28
287.84,0.74,-0.55,0.74,-0.55,0.54,0.07,-0.21,1.29,1.29,1.29
290.72,0.72,-0.59,0.72,-0.59,0.59,0.11,-0.19,1.31,1.31,1.31
293.63,0.69,-0.63,0.70,-0.63,0.63,0.15,-0.16,1.33,1.33,1.33
296.57,0.67,-0.67,0.67,-0.67,0.68,0.20,-0.14,1.35,1.35,1.34
299.53,0.64,-0.71,0.64,-0.71,0.72,0.24,-0.12,1.37,1.36,1.35
302.53,0.60,-0.76,0.60,-0.76,0.77,0.28,-0.10,1.37,1.37,1.36
305.55,0.56,-0.82,0.57,-0.81,0.81,0.31,-0.08,1.37,1.38,1.39
308.61,0.53,-0.86,0.53,-0.86,0.85,0.35,-0.05,1.39,1.39,1.39
311.69,0.50,-0.90,0.51,-0.90,0.90,0.39,-0.03,1.40,1.40,1.40
314.81,0.48,-0.95,0.48,-0.94,0.94,0.43,-0.01,1.42,1.42,1.43
317.96,0.45,-0.98,0.45,-0.98,0.98,0.46,0.01,1.43,1.43,1.43
321.14,0.42,-1.01,0.42,-1.02,1.02,0.50,0.04,1.44,1.44,1.44
324.35,0.39,-1.04,0.39,-1.05,1.05,0.54,0.06,1.45,1.44,1.43
327.59,0.35,-1.10,0.36,-1.08,1.09,0.57,0.08,1.44,1.45,1.45
330.87,0.34,-1.11,0.34,-1.11,1.11,0.60,0.11,1.46,1.45,1.45
334.18,0.32,-1.13,0.32,-1.14,1.14,0.64,0.13,1.46,1.45,1.45
337.52,0.29,-1.17,0.30,-1.16,1.15,0.67,0.15,1.45,1.45,1.46
340.90,0.28,-1.18,0.29,-1.18,1.17,0.70,0.18,1.45,1.45,1.47
344.30,0.28,-1.18,0.28,-1.18,1.17,0.73,0.20,1.46,1.46,1.47
347.75,0.29,-1.17,0.29,-1.18,1.17,0.76,0.23,1.47,1.46,1.46
351.23,0.29,-1.17,0.30,-1.17,1.17,0.79,0.25,1.46,1.47,1.46
354.74,0.30,-1.16,0.30,-1.16,1.17,0.82,0.28,1.47,1.47,1.46
358.28,0.30,-1.15,0.30,-1.15,1.16,0.85,0.30,1.46,1.46,1.45
361.87,0.30,-1.15,0.30,-1.15,1.15,0.87,0.33,1.45,1.45,1.45
365.49,0.30,-1.15,0.30,-1.14,1.14,0.90,0.35,1.45,1.45,1.45
369.14,0.30,-1.13,0.30,-1.14,1.14,0.92,0.38,1.44,1.44,1.44
372.83,0.30,-1.13,0.30,-1.13,1.13,0.95,0.40,1.43,1.43,1.44
376.56,0.30,-1.12,0.30,-1.13,1.12,0.97,0.43,1.43,1.43,1.43
380.33,0.30,-1.12,0.30,-1.12,1.12,0.99,0.46,1.42,1.42,1.42
384.13,0.30,-1.11,0.30,-1.11,1.11,1.02,0.48,1.41,1.41,1.41
387.97,0.30,-1.10,0.30,-1.10,1.10,1.04,0.51,1.41,1.41,1.40
391.85,0.30,-1.09,0.30,-1.10,1.10,1.06,0.54,1.40,1.40,1.39
395.77,0.30,-1.10,0.30,-1.09,1.09,1.08,0.56,1.39,1.39,1.40
399.73,0.30,-1.09,0.30,-1.08,1.08,1.09,0.59,1.39,1.39,1.39
403.72,0.30,-1.08,0.30,-1.08,1.08,1.11,0.62,1.38,1.38,1.38
407.76,0.30,-1.07,0.30,-1.07,1.07,1.13,0.65,1.38,1.38,1.37
411.84,0.30,-1.08,0.30,-1.07,1.07,1.14,0.67,1.37,1.37,1.38
415.96,0.30,-1.06,0.30,-1.07,1.07,1.16,0.70,1.37,1.37,1.37
420.12,0.30,-1.06,0.30,-1.06,1.06,1.17,0.73,1.37,1.37,1.37
424.32,0.30,-1.06,0.30,-1.06,1.06,1.19,0.75,1.36,1.36,1.37
428.56,0.30,-1.05,0.30,-1.06,1.06,1.20,0.78,1.36,1.36,1.36
432.85,0.30,-1.05,0.30,-1.05,1.06,1.21,0.81,1.36,1.36,1.36
437.18,0.30,-1.05,0.30,-1.06,1.05,1.22,0.83,1.36,1.36,1.35
441.55,0.30,-1.06,0.30,-1.06,1.05,1.23,0.86,1.36,1.36,1.36
445.96,0.30,-1.06,0.30,-1.06,1.06,1.24,0.88,1.36,1.36,1.36
450.42,0.30,-1.05,0.30,-1.06,1.06,1.25,0.91,1.36,1.36,1.35
454.93,0.30,-1.06,0.30,-1.06,1.06,1.26,0.93,1.36,1.36,1.36
459.48,0.30,-1.06,0.30,-1.06,1.06,1.26,0.95,1.37,1.37,1.36
464.07,0.30,-1.07,0.30,-1.07,1.07,1.27,0.97,1.37,1.37,1.37
468.71,0.30,-1.08,0.30,-1.08,1.07,1.27,0.99,1.38,1.38,1.38
473.40,0.30,-1.08,0.30,-1.08,1.08,1.28,1.01,1.38,1.38,1.38
478.13,0.30,-1.09,0.30,-1.09,1.09,1.28,1.03,1.39,1.39,1.39
482.91,0.30,-1.09,0.30,-1.09,1.09,1.28,1.05,1.40,1.40,1.39
487.74,0.30,-1.10,0.30,-1.10,1.10,1.28,1.06,1.40,1.40,1.40
492.62,0.30,-1.11,0.30,-1.10,1.10,1.29,1.08,1.41,1.41,1.41
497.55,0.30,-1.11,0.30,-1.11,1.11,1.29,1.09,1.41,1.41,1.41
502.52,0.30,-1.12,0.30,-1.11,1.11,1.29,1.10,1.42,1.42,1.42
507.55,0.30,-1.12,0.30,-1.12,1.12,1.28,1.11,1.42,1.42,1.42
512.62,0.30,-1.12,0.30,-1.12,1.12,1.28,1.12,1.42,1.42,1.42
517.75,0.30,-1.13,0.30,-1.12,1.12,1.28,1.13,1.43,1.43,1.43
522.93,0.30,-1.13,0.30,-1.12,1.12,1.28,1.14,1.43,1.43,1.43
528.16,0.30,-1.13,0.30,-1.13,1.12,1.27,1.15,1.43,1.43,1.43
533.44,0.30,-1.12,0.30,-1.12,1.12,1.27,1.15,1.43,1.43,1.43
538.77,0.30,-1.12,0.30,-1.13,1.12,1.26,1.16,1.43,1.43,1.43
544.16,0.30,-1.12,0.30,-1.12,1.12,1.26,1.16,1.43,1.43,1.43
549.60,0.30,-1.12,0.30,-1.12,1.12,1.25,1.16,1.42,1.42,1.43
555.10,0.30,-1.11,0.30,-1.12,1.12,1.24,1.16,1.42,1.42,1.42
560.65,0.30,-1.11,0.30,-1.12,1.12,1.24,1.17,1.42,1.42,1.42
