frequency,raw,smoothed,error,error_smoothed,equalization,parametric_eq,fixed_band_eq,equalized_raw,equalized_smoothed,target
20.00,-12.75,-12.75,-13.85,-13.84,6.00,6.05,2.68,-6.75,-6.75,1.09
20.20,-12.72,-12.72,-13.85,-13.84,6.00,6.05,2.76,-6.72,-6.72,1.12
20.40,-12.68,-12.69,-13.84,-13.84,6.00,6.05,2.83,-6.68,-6.69,1.15
20.61,-12.65,-12.66,-13.83,-13.83,6.00,6.05,2.92,-6.65,-6.66,1.17
20.81,-12.62,-12.62,-13.82,-13.83,6.00,6.05,3.00,-6.62,-6.62,1.20
21.02,-12.59,-12.59,-13.82,-13.81,6.00,6.05,3.08,-6.59,-6.59,1.23
21.23,-12.54,-12.54,-13.78,-13.79,6.00,6.06,3.17,-6.54,-6.54,1.24
21.44,-12.49,-12.50,-13.74,-13.75,6.00,6.06,3.26,-6.49,-6.50,1.25
21.66,-12.44,-12.45,-13.70,-13.70,6.00,6.06,3.35,-6.44,-6.45,1.26
21.87,-12.39,-12.39,-13.65,-13.65,6.00,6.06,3.45,-6.39,-6.39,1.26
22.09,-12.33,-12.33,-13.60,-13.60,6.00,6.06,3.55,-6.33,-6.33,1.27
22.31,-12.26,-12.26,-13.53,-13.53,6.00,6.06,3.65,-6.26,-6.26,1.27
22.54,-12.20,-12.19,-13.46,-13.46,6.00,6.06,3.75,-6.20,-6.19,1.27
22.76,-12.12,-12.12,-13.39,-13.38,6.00,6.06,3.86,-6.12,-6.12,1.27
22.99,-12.05,-12.06,-13.31,-13.32,6.00,6.06,3.96,-6.05,-6.06,1.25
23.22,-11.99,-12.00,-13.25,-13.25,6.00,6.06,4.07,-5.99,-6.00,1.25
23.45,-11.94,-11.94,-13.20,-13.19,6.00,6.06,4.19,-5.94,-5.94,1.25
23.69,-11.88,-11.88,-13.14,-13.14,6.00,6.06,4.30,-5.88,-5.88,1.25
23.92,-11.82,-11.82,-13.07,-13.08,6.00,6.06,4.42,-5.82,-5.82,1.25
24.16,-11.74,-11.74,-13.00,-13.00,6.00,6.06,4.54,-5.74,-5.74,1.26
24.40,-11.66,-11.66,-12.92,-12.92,6.00,6.06,4.66,-5.66,-5.66,1.26
24.65,-11.57,-11.57,-12.82,-12.83,6.00,6.06,4.79,-5.57,-5.57,1.25
24.89,-11.49,-11.50,-12.74,-12.75,6.00,6.06,4.91,-5.49,-5.50,1.25
25.14,-11.43,-11.44,-12.68,-12.68,6.00,6.06,5.04,-5.43,-5.44,1.25
25.39,-11.39,-11.39,-12.64,-12.64,6.00,6.06,5.17,-5.39,-5.39,1.25
25.65,-11.35,-11.35,-12.60,-12.59,6.00,6.06,5.30,-5.35,-5.35,1.25
25.91,-11.31,-11.31,-12.55,-12.55,6.00,6.06,5.43,-5.31,-5.31,1.23
26.16,-11.26,-11.26,-12.50,-12.50,6.00,6.06,5.56,-5.26,-5.26,1.23
26.43,-11.21,-11.21,-12.45,-12.45,6.00,6.06,5.69,-5.21,-5.21,1.23
26.69,-11.15,-11.16,-12.38,-12.39,6.00,6.06,5.82,-5.15,-5.16,1.23
26.96,-11.10,-11.10,-12.33,-12.33,6.00,6.06,5.95,-5.10,-5.10,1.23
27.23,-11.02,-11.02,-12.25,-12.25,6.00,6.06,6.07,-5.02,-5.02,1.23
27.50,-10.94,-10.95,-12.17,-12.17,6.00,6.06,6.19,-4.94,-4.95,1.23
27.77,-10.86,-10.87,-12.08,-12.08,6.00,6.06,6.31,-4.86,-4.87,1.22
28.05,-10.79,-10.80,-12.01,-12.01,6.00,6.07,6.43,-4.79,-4.80,1.21
28.33,-10.73,-10.74,-11.94,-11.94,6.00,6.07,6.54,-4.73,-4.74,1.20
28.62,-10.68,-10.68,-11.89,-11.88,6.00,6.07,6.64,-4.68,-4.68,1.20
28.90,-10.62,-10.62,-11.82,-11.82,6.00,6.07,6.74,-4.62,-4.62,1.20
29.19,-10.56,-10.56,-11.75,-11.76,6.00,6.07,6.84,-4.56,-4.56,1.19
29.48,-10.50,-10.50,-11.70,-11.69,6.00,6.07,6.92,-4.50,-4.50,1.20
29.78,-10.44,-10.45,-11.63,-11.63,6.00,6.07,7.00,-4.44,-4.45,1.18
30.08,-10.39,-10.40,-11.58,-11.58,6.00,6.07,7.06,-4.39,-4.40,1.18
30.38,-10.36,-10.37,-11.53,-11.54,6.00,6.07,7.12,-4.36,-4.37,1.17
30.68,-10.33,-10.33,-11.50,-11.50,6.00,6.07,7.17,-4.33,-4.33,1.17
30.99,-10.30,-10.30,-11.46,-11.46,6.00,6.07,7.21,-4.30,-4.30,1.16
31.30,-10.24,-10.24,-11.40,-11.40,6.00,6.07,7.24,-4.24,-4.24,1.15
31.61,-10.18,-10.19,-11.34,-11.33,6.00,6.07,7.26,-4.18,-4.19,1.15
31.93,-10.12,-10.13,-11.26,-11.27,6.00,6.07,7.27,-4.12,-4.13,1.14
32.24,-10.08,-10.09,-11.21,-11.22,6.00,6.07,7.27,-4.08,-4.09,1.13
32.57,-10.05,-10.05,-11.18,-11.17,6.00,6.07,7.26,-4.05,-4.05,1.12
32.89,-10.01,-10.01,-11.14,-11.13,6.00,6.07,7.25,-4.01,-4.01,1.12
33.22,-9.96,-9.96,-11.07,-11.07,6.00,6.07,7.22,-3.96,-3.96,1.11
33.55,-9.90,-9.90,-11.01,-11.01,6.00,6.07,7.19,-3.90,-3.90,1.11
33.89,-9.84,-9.85,-10.94,-10.94,6.00,6.07,7.15,-3.84,-3.85,1.09
34.23,-9.79,-9.80,-10.88,-10.88,6.00,6.07,7.10,-3.79,-3.80,1.09
34.57,-9.75,-9.75,-10.83,-10.83,6.00,6.07,7.05,-3.75,-3.75,1.08
34.92,-9.71,-9.71,-10.78,-10.78,6.00,6.07,7.00,-3.71,-3.71,1.06
35.27,-9.67,-9.68,-10.74,-10.74,6.00,6.07,6.93,-3.67,-3.68,1.06
35.62,-9.64,-9.64,-10.69,-10.69,6.00,6.06,6.87,-3.64,-3.64,1.05
35.97,-9.60,-9.59,-10.64,-10.63,6.00,6.06,6.81,-3.60,-3.59,1.03
36.33,-9.52,-9.52,-10.55,-10.54,6.00,6.06,6.74,-3.52,-3.52,1.03
36.70,-9.42,-9.43,-10.44,-10.45,6.00,6.06,6.67,-3.42,-3.43,1.02
37.06,-9.34,-9.35,-10.35,-10.36,6.00,6.06,6.60,-3.34,-3.35,1.00
37.43,-9.30,-9.29,-10.30,-10.29,6.00,6.06,6.53,-3.30,-3.29,1.00
37.81,-9.25,-9.26,-10.24,-10.24,6.00,6.06,6.47,-3.25,-3.26,0.98
38.19,-9.22,-9.23,-10.19,-10.20,6.00,6.06,6.40,-3.22,-3.23,0.97
38.57,-9.21,-9.21,-10.18,-10.17,6.00,6.06,6.33,-3.21,-3.21,0.96
38.95,-9.19,-9.19,-10.14,-10.14,6.00,6.06,6.27,-3.19,-3.19,0.95
39.34,-9.16,-9.16,-10.10,-10.10,6.00,6.06,6.21,-3.16,-3.16,0.93
39.74,-9.12,-9.12,-10.04,-10.05,6.00,6.06,6.16,-3.12,-3.12,0.92
40.14,-9.07,-9.06,-9.99,-9.97,6.00,6.06,6.10,-3.07,-3.06,0.91
40.54,-9.00,-9.00,-9.90,-9.90,6.00,6.05,6.05,-3.00,-3.00,0.90
40.94,-8.93,-8.96,-9.83,-9.85,6.00,6.05,6.00,-2.93,-2.96,0.89
41.35,-8.94,-8.96,-9.82,-9.84,6.00,6.05,5.96,-2.94,-2.96,0.88
41.76,-8.97,-8.95,-9.84,-9.82,6.00,6.05,5.92,-2.97,-2.95,0.87
42.18,-8.94,-8.91,-9.81,-9.77,6.00,6.05,5.89,-2.94,-2.91,0.86
42.60,-8.81,-8.82,-9.66,-9.68,6.00,6.05,5.85,-2.81,-2.82,0.85
43.03,-8.70,-8.75,-9.54,-9.58,6.00,6.04,5.83,-2.70,-2.75,0.84
43.46,-8.69,-8.69,-9.52,-9.51,6.00,6.04,5.80,-2.69,-2.69,0.82
43.90,-8.68,-8.66,-9.48,-9.46,6.00,6.04,5.79,-2.68,-2.66,0.80
44.33,-8.61,-8.61,-9.39,-9.39,6.00,6.04,5.77,-2.61,-2.61,0.78
44.78,-8.52,-8.53,-9.28,-9.29,6.00,6.04,5.76,-2.52,-2.53,0.76
45.23,-8.45,-8.45,-9.20,-9.19,6.00,6.03,5.76,-2.45,-2.45,0.74
45.68,-8.38,-8.39,-9.11,-9.11,6.00,6.03,5.76,-2.38,-2.39,0.72
46.13,-8.35,-8.37,-9.06,-9.08,6.00,6.03,5.76,-2.35,-2.37,0.70
46.60,-8.37,-8.37,-9.07,-9.06,6.00,6.02,5.77,-2.37,-2.37,0.69
47.06,-8.39,-8.37,-9.07,-9.04,6.00,6.02,5.78,-2.39,-2.37,0.67
47.53,-8.35,-8.36,-9.01,-9.02,6.00,6.02,5.80,-2.35,-2.36,0.65
48.01,-8.32,-8.34,-8.97,-8.98,6.00,6.01,5.82,-2.32,-2.34,0.64
48.49,-8.31,-8.31,-8.93,-8.93,6.00,6.01,5.84,-2.31,-2.31,0.61
48.97,-8.29,-8.25,-8.88,-8.83,6.00,6.01,5.87,-2.29,-2.25,0.58
49.46,-8.17,-8.17,-8.72,-8.72,6.00,6.00,5.90,-2.17,-2.17,0.55
49.96,-8.04,-8.11,-8.56,-8.64,6.00,6.00,5.93,-2.04,-2.11,0.52
50.46,-8.06,-8.07,-8.57,-8.57,6.00,6.00,5.96,-2.06,-2.07,0.51
50.96,-8.09,-8.02,-8.58,-8.50,6.00,5.99,6.00,-2.09,-2.02,0.48
51.47,-7.97,-7.97,-8.43,-8.43,6.00,5.99,6.04,-1.97,-1.97,0.45
51.99,-7.85,-7.94,-8.27,-8.37,6.00,5.98,6.09,-1.85,-1.94,0.43
52.51,-7.92,-7.91,-8.34,-8.32,6.00,5.98,6.13,-1.92,-1.91,0.41
53.03,-7.98,-7.88,-8.37,-8.27,6.00,5.97,6.18,-1.98,-1.88,0.39
53.56,-7.84,-7.88,-8.21,-8.24,6.00,5.97,6.22,-1.84,-1.88,0.36
54.10,-7.76,-7.90,-8.10,-8.23,6.00,5.96,6.27,-1.76,-1.90,0.34
54.64,-7.95,-7.88,-8.27,-8.19,6.00,5.96,6.31,-1.95,-1.88,0.31
55.18,-7.96,-7.83,-8.25,-8.12,6.00,5.95,6.36,-1.96,-1.83,0.29
55.74,-7.66,-7.73,-7.92,-8.00,6.00,5.94,6.40,-1.66,-1.73,0.26
56.29,-7.53,-7.60,-7.78,-7.84,6.00,5.94,6.44,-1.53,-1.60,0.24
56.86,-7.58,-7.56,-7.80,-7.78,6.00,5.93,6.48,-1.58,-1.56,0.21
57.42,-7.63,-7.62,-7.82,-7.81,6.00,5.92,6.51,-1.63,-1.62,0.19
58.00,-7.68,-7.68,-7.85,-7.84,6.00,5.92,6.54,-1.68,-1.68,0.17
58.58,-7.67,-7.66,-7.82,-7.80,6.00,5.91,6.57,-1.67,-1.66,0.15
59.16,-7.63,-7.59,-7.76,-7.71,6.00,5.90,6.59,-1.63,-1.59,0.13
59.76,-7.48,-7.55,-7.58,-7.65,6.00,5.89,6.61,-1.48,-1.55,0.10
60.35,-7.49,-7.55,-7.57,-7.62,6.00,5.89,6.62,-1.49,-1.55,0.07
60.96,-7.63,-7.57,-7.68,-7.61,6.00,5.88,6.63,-1.63,-1.57,0.05
61.57,-7.58,-7.55,-7.59,-7.56,6.00,5.87,6.63,-1.58,-1.55,0.01
62.18,-7.47,-7.44,-7.45,-7.42,6.00,5.86,6.62,-1.47,-1.44,-0.03
62.80,-7.25,-7.34,-7.20,-7.28,6.00,5.85,6.61,-1.25,-1.34,-0.05
63.43,-7.27,-7.31,-7.19,-7.23,6.00,5.85,6.58,-1.27,-1.31,-0.09
64.07,-7.38,-7.33,-7.27,-7.22,6.00,5.84,6.56,-1.38,-1.33,-0.11
64.71,-7.38,-7.36,-7.25,-7.22,6.00,5.83,6.53,-1.38,-1.36,-0.14
65.35,-7.32,-7.31,-7.16,-7.14,6.00,5.82,6.49,-1.32,-1.31,-0.17
66.01,-7.20,-7.20,-7.01,-7.01,6.00,5.81,6.44,-1.20,-1.20,-0.19
66.67,-7.11,-7.16,-6.89,-6.93,6.00,5.80,6.39,-1.11,-1.16,-0.22
67.33,-7.13,-7.17,-6.88,-6.92,6.00,5.79,6.34,-1.13,-1.17,-0.25
68.01,-7.28,-7.22,-7.00,-6.94,6.00,5.78,6.28,-1.28,-1.22,-0.28
68.69,-7.28,-7.28,-6.97,-6.96,6.00,5.77,6.22,-1.28,-1.28,-0.31
69.37,-7.28,-7.30,-6.94,-6.95,6.00,5.76,6.15,-1.28,-1.30,-0.35
70.07,-7.28,-7.28,-6.90,-6.91,6.00,5.75,6.08,-1.28,-1.28,-0.38
70.77,-7.28,-7.28,-6.88,-6.88,6.00,5.74,6.01,-1.28,-1.28,-0.40
71.48,-7.28,-7.30,-6.85,-6.87,6.00,5.73,5.94,-1.28,-1.30,-0.44
72.19,-7.28,-7.28,-6.81,-6.80,6.00,5.72,5.86,-1.28,-1.28,-0.47
72.91,-7.28,-7.19,-6.77,-6.69,6.00,5.71,5.79,-1.28,-1.19,-0.51
73.64,-7.06,-7.13,-6.52,-6.59,6.00,5.70,5.71,-1.06,-1.13,-0.55
74.38,-7.03,-7.12,-6.46,-6.54,6.00,5.69,5.64,-1.03,-1.12,-0.57
75.12,-7.18,-7.12,-6.57,-6.51,6.00,5.68,5.56,-1.18,-1.12,-0.61
75.87,-7.18,-7.13,-6.54,-6.49,6.00,5.67,5.49,-1.18,-1.12,-0.64
76.63,-7.05,-7.06,-6.38,-6.38,6.01,5.66,5.42,-1.04,-1.04,-0.67
77.40,-6.93,-6.96,-6.23,-6.26,6.01,5.65,5.34,-0.92,-0.95,-0.70
78.17,-6.91,-7.01,-6.17,-6.27,6.01,5.64,5.28,-0.91,-1.00,-0.74
78.95,-7.08,-7.09,-6.31,-6.32,6.00,5.63,5.21,-1.08,-1.09,-0.77
79.74,-7.27,-7.08,-6.47,-6.28,5.98,5.62,5.14,-1.29,-1.09,-0.80
80.54,-6.97,-6.96,-6.14,-6.13,5.95,5.61,5.08,-1.02,-1.01,-0.83
81.35,-6.66,-6.83,-5.80,-5.96,5.92,5.60,5.02,-0.75,-0.91,-0.87
82.16,-6.70,-6.75,-5.80,-5.85,5.88,5.60,4.97,-0.82,-0.87,-0.90
82.98,-6.88,-6.78,-5.95,-5.84,5.85,5.59,4.92,-1.03,-0.92,-0.93
83.81,-6.85,-6.79,-5.88,-5.81,5.83,5.58,4.87,-1.03,-0.96,-0.98
84.65,-6.68,-6.74,-5.67,-5.72,5.79,5.57,4.82,-0.90,-0.95,-1.02
85.50,-6.64,-6.72,-5.60,-5.67,5.73,5.56,4.78,-0.91,-0.99,-1.04
86.35,-6.77,-6.80,-5.69,-5.72,5.67,5.55,4.74,-1.10,-1.13,-1.08
87.22,-6.94,-6.85,-5.82,-5.73,5.62,5.54,4.70,-1.33,-1.24,-1.12
88.09,-6.91,-6.82,-5.75,-5.66,5.57,5.54,4.67,-1.35,-1.25,-1.16
88.97,-6.59,-6.71,-5.40,-5.51,5.52,5.53,4.64,-1.08,-1.19,-1.20
89.86,-6.57,-6.58,-5.34,-5.34,5.47,5.52,4.62,-1.11,-1.12,-1.24
90.76,-6.57,-6.56,-5.29,-5.28,5.41,5.51,4.60,-1.17,-1.15,-1.29
91.66,-6.60,-6.65,-5.28,-5.32,5.33,5.50,4.58,-1.28,-1.33,-1.32
92.58,-6.73,-6.70,-5.36,-5.33,5.23,5.49,4.56,-1.50,-1.47,-1.37
93.51,-6.75,-6.69,-5.35,-5.28,5.16,5.48,4.55,-1.60,-1.53,-1.41
94.44,-6.60,-6.62,-5.15,-5.17,5.10,5.47,4.54,-1.50,-1.52,-1.45
95.39,-6.47,-6.53,-4.98,-5.03,5.07,5.46,4.54,-1.40,-1.45,-1.50
96.34,-6.48,-6.46,-4.93,-4.91,5.04,5.45,4.54,-1.44,-1.42,-1.55
97.30,-6.48,-6.47,-4.89,-4.87,5.00,5.44,4.54,-1.48,-1.47,-1.60
98.28,-6.51,-6.57,-4.87,-4.93,4.94,5.42,4.54,-1.57,-1.63,-1.64
99.26,-6.65,-6.69,-4.97,-5.00,4.90,5.41,4.55,-1.75,-1.79,-1.69
100.25,-6.86,-6.74,-5.13,-5.01,4.88,5.39,4.56,-1.98,-1.86,-1.73
101.25,-6.77,-6.73,-4.99,-4.95,4.88,5.37,4.57,-1.89,-1.85,-1.78
102.27,-6.55,-6.68,-4.73,-4.85,4.89,5.35,4.58,-1.66,-1.79,-1.83
103.29,-6.65,-6.64,-4.77,-4.77,4.90,5.32,4.59,-1.75,-1.74,-1.88
104.32,-6.75,-6.72,-4.84,-4.80,4.89,5.30,4.61,-1.86,-1.82,-1.92
105.37,-6.83,-6.90,-4.87,-4.94,4.88,5.27,4.62,-1.95,-2.02,-1.96
106.42,-7.02,-7.00,-5.01,-4.99,4.90,5.24,4.64,-2.13,-2.10,-2.01
107.48,-7.16,-7.01,-5.11,-4.95,4.92,5.20,4.65,-2.24,-2.08,-2.06
108.56,-6.94,-7.07,-4.83,-4.96,4.96,5.16,4.67,-1.98,-2.10,-2.11
109.64,-6.99,-7.11,-4.83,-4.95,5.01,5.12,4.68,-1.97,-2.10,-2.16
110.74,-7.36,-7.17,-5.16,-4.97,5.05,5.08,4.70,-2.31,-2.12,-2.21
111.85,-7.29,-7.35,-5.04,-5.09,5.07,5.03,4.71,-2.22,-2.28,-2.25
112.97,-7.37,-7.47,-5.06,-5.16,5.08,4.98,4.72,-2.29,-2.39,-2.32
114.10,-7.61,-7.47,-5.25,-5.11,5.09,4.92,4.73,-2.53,-2.39,-2.36
115.24,-7.51,-7.53,-5.10,-5.11,5.10,4.86,4.73,-2.42,-2.43,-2.42
116.39,-7.47,-7.59,-5.00,-5.12,5.10,4.80,4.74,-2.37,-2.49,-2.47
117.55,-7.61,-7.58,-5.09,-5.06,5.09,4.73,4.73,-2.52,-2.49,-2.52
118.73,-7.73,-7.59,-5.16,-5.01,5.05,4.67,4.73,-2.68,-2.53,-2.58
119.92,-7.47,-7.58,-4.85,-4.95,4.98,4.59,4.72,-2.49,-2.60,-2.62
121.12,-7.53,-7.63,-4.86,-4.95,4.91,4.52,4.70,-2.62,-2.72,-2.67
122.33,-7.68,-7.68,-4.96,-4.95,4.86,4.44,4.68,-2.83,-2.82,-2.73
123.55,-7.84,-7.63,-5.08,-4.85,4.80,4.36,4.66,-3.05,-2.83,-2.77
124.79,-7.50,-7.49,-4.68,-4.67,4.74,4.27,4.62,-2.76,-2.75,-2.82
126.03,-7.13,-7.40,-4.26,-4.53,4.68,4.19,4.59,-2.45,-2.72,-2.87
127.29,-7.44,-7.41,-4.52,-4.49,4.61,4.10,4.55,-2.83,-2.80,-2.92
128.57,-7.65,-7.54,-4.67,-4.57,4.53,4.01,4.50,-3.12,-3.01,-2.98
129.85,-7.65,-7.59,-4.63,-4.56,4.43,3.92,4.45,-3.23,-3.17,-3.03
131.15,-7.44,-7.48,-4.37,-4.40,4.31,3.83,4.39,-3.14,-3.18,-3.08
132.46,-7.25,-7.35,-4.13,-4.23,4.18,3.74,4.33,-3.08,-3.18,-3.12
133.79,-7.26,-7.22,-4.10,-4.05,4.04,3.64,4.27,-3.22,-3.18,-3.16
135.12,-7.16,-7.08,-3.95,-3.87,3.89,3.55,4.19,-3.28,-3.19,-3.22
136.48,-6.87,-6.91,-3.62,-3.66,3.71,3.46,4.12,-3.16,-3.20,-3.25
137.84,-6.68,-6.75,-3.39,-3.45,3.53,3.36,4.04,-3.15,-3.22,-3.30
139.22,-6.64,-6.66,-3.29,-3.32,3.36,3.27,3.96,-3.28,-3.30,-3.35
140.61,-6.66,-6.59,-3.27,-3.21,3.21,3.18,3.88,-3.45,-3.38,-3.39
142.02,-6.56,-6.53,-3.15,-3.11,3.07,3.08,3.79,-3.50,-3.47,-3.41
143.44,-6.34,-6.44,-2.89,-2.99,2.93,2.99,3.70,-3.41,-3.51,-3.46
144.87,-6.37,-6.31,-2.88,-2.82,2.81,2.90,3.61,-3.56,-3.50,-3.50
146.32,-6.23,-6.21,-2.70,-2.68,2.69,2.81,3.52,-3.54,-3.52,-3.54
147.78,-6.07,-6.13,-2.51,-2.56,2.58,2.73,3.42,-3.50,-3.55,-3.56
149.26,-6.05,-6.03,-2.45,-2.42,2.46,2.64,3.33,-3.60,-3.57,-3.60
150.75,-5.97,-6.00,-2.32,-2.36,2.34,2.55,3.23,-3.64,-3.66,-3.65
152.26,-5.95,-5.96,-2.27,-2.27,2.22,2.47,3.14,-3.73,-3.74,-3.69
153.78,-5.95,-5.86,-2.23,-2.14,2.12,2.39,3.04,-3.83,-3.74,-3.72
155.32,-5.74,-5.79,-1.98,-2.03,2.03,2.31,2.95,-3.71,-3.76,-3.77
156.88,-5.67,-5.77,-1.87,-1.97,1.96,2.22,2.85,-3.71,-3.81,-3.80
158.44,-5.80,-5.75,-1.96,-1.91,1.93,2.15,2.76,-3.88,-3.82,-3.84
160.03,-5.85,-5.74,-1.97,-1.86,1.93,2.07,2.67,-3.92,-3.81,-3.89
161.63,-5.70,-5.78,-1.78,-1.85,1.96,1.99,2.58,-3.75,-3.82,-3.93
163.24,-5.74,-5.86,-1.77,-1.90,2.00,1.92,2.48,-3.74,-3.87,-3.97
164.88,-6.10,-6.00,-2.11,-2.00,2.04,1.85,2.39,-4.07,-3.96,-4.00
166.53,-6.22,-6.18,-2.19,-2.14,2.06,1.78,2.30,-4.16,-4.12,-4.04
168.19,-6.23,-6.32,-2.16,-2.25,2.07,1.71,2.22,-4.17,-4.26,-4.07
169.87,-6.33,-6.29,-2.22,-2.18,2.05,1.64,2.13,-4.28,-4.24,-4.11
171.57,-6.29,-6.20,-2.14,-2.05,2.00,1.57,2.04,-4.29,-4.19,-4.15
173.29,-5.97,-6.05,-1.79,-1.87,1.91,1.51,1.96,-4.07,-4.14,-4.19
175.02,-5.87,-5.92,-1.65,-1.70,1.77,1.44,1.87,-4.10,-4.15,-4.22
176.77,-5.83,-5.84,-1.57,-1.58,1.61,1.38,1.79,-4.23,-4.24,-4.27
178.54,-5.87,-5.81,-1.56,-1.50,1.44,1.32,1.71,-4.43,-4.37,-4.31
180.32,-5.70,-5.68,-1.36,-1.33,1.30,1.26,1.63,-4.40,-4.38,-4.34
182.13,-5.51,-5.51,-1.14,-1.13,1.19,1.20,1.55,-4.32,-4.32,-4.38
183.95,-5.30,-5.38,-0.89,-0.96,1.10,1.14,1.48,-4.21,-4.28,-4.42
185.79,-5.35,-5.37,-0.91,-0.92,1.02,1.08,1.40,-4.33,-4.35,-4.45
187.65,-5.44,-5.44,-0.95,-0.96,0.95,1.02,1.33,-4.49,-4.49,-4.49
189.52,-5.57,-5.50,-1.05,-0.98,0.89,0.97,1.26,-4.69,-4.62,-4.52
191.42,-5.49,-5.47,-0.95,-0.92,0.82,0.91,1.18,-4.67,-4.65,-4.55
193.33,-5.35,-5.40,-0.78,-0.82,0.77,0.86,1.11,-4.58,-4.62,-4.58
195.27,-5.29,-5.31,-0.69,-0.70,0.72,0.81,1.04,-4.57,-4.59,-4.61
197.22,-5.28,-5.29,-0.65,-0.65,0.67,0.75,0.98,-4.62,-4.62,-4.63
199.19,-5.26,-5.26,-0.59,-0.60,0.60,0.70,0.91,-4.66,-4.66,-4.67
201.18,-5.26,-5.19,-0.58,-0.50,0.55,0.65,0.85,-4.72,-4.64,-4.69
203.19,-5.10,-5.16,-0.40,-0.45,0.51,0.60,0.78,-4.60,-4.65,-4.70
205.23,-5.08,-5.17,-0.35,-0.45,0.48,0.55,0.72,-4.60,-4.69,-4.73
207.28,-5.26,-5.18,-0.53,-0.44,0.46,0.50,0.66,-4.81,-4.72,-4.73
209.35,-5.27,-5.21,-0.52,-0.45,0.42,0.45,0.60,-4.86,-4.79,-4.76
211.44,-5.12,-5.24,-0.34,-0.46,0.37,0.40,0.54,-4.75,-4.87,-4.78
213.56,-5.19,-5.20,-0.41,-0.41,0.32,0.36,0.48,-4.87,-4.87,-4.79
215.69,-5.22,-5.11,-0.43,-0.32,0.27,0.31,0.42,-4.95,-4.84,-4.79
217.85,-4.98,-4.98,-0.18,-0.18,0.21,0.27,0.37,-4.77,-4.77,-4.80
220.03,-4.79,-4.87,0.02,-0.06,0.15,0.22,0.32,-4.65,-4.73,-4.81
222.23,-4.75,-4.83,0.07,-0.01,0.09,0.18,0.27,-4.67,-4.74,-4.83
224.45,-4.96,-4.85,-0.15,-0.03,0.04,0.14,0.22,-4.92,-4.81,-4.82
226.70,-4.89,-4.86,-0.07,-0.04,0.01,0.10,0.17,-4.88,-4.85,-4.82
228.96,-4.76,-4.82,0.06,-0.01,-0.01,0.06,0.12,-4.77,-4.83,-4.82
231.25,-4.76,-4.76,0.05,0.05,-0.02,0.02,0.08,-4.78,-4.78,-4.81
233.57,-4.75,-4.79,0.06,0.03,-0.03,-0.01,0.04,-4.78,-4.81,-4.81
235.90,-4.83,-4.82,-0.02,-0.01,-0.04,-0.04,0.00,-4.88,-4.86,-4.81
238.26,-4.85,-4.79,-0.04,0.01,-0.07,-0.07,-0.04,-4.93,-4.86,-4.81
240.64,-4.70,-4.73,0.09,0.07,-0.11,-0.10,-0.07,-4.81,-4.84,-4.80
243.05,-4.61,-4.64,0.17,0.15,-0.14,-0.12,-0.11,-4.76,-4.78,-4.79
245.48,-4.57,-4.57,0.20,0.21,-0.16,-0.14,-0.14,-4.74,-4.73,-4.78
247.93,-4.54,-4.54,0.22,0.23,-0.18,-0.16,-0.17,-4.72,-4.72,-4.76
250.41,-4.52,-4.52,0.24,0.23,-0.19,-0.18,-0.19,-4.72,-4.71,-4.76
252.92,-4.51,-4.50,0.23,0.23,-0.20,-0.19,-0.22,-4.72,-4.71,-4.74
255.45,-4.49,-4.52,0.22,0.21,-0.20,-0.20,-0.24,-4.70,-4.72,-4.72
258.00,-4.53,-4.56,0.17,0.15,-0.20,-0.20,-0.26,-4.73,-4.76,-4.70
260.58,-4.59,-4.56,0.10,0.13,-0.19,-0.20,-0.28,-4.79,-4.75,-4.69
263.19,-4.57,-4.52,0.09,0.15,-0.19,-0.20,-0.30,-4.76,-4.71,-4.67
265.82,-4.40,-4.46,0.25,0.19,-0.18,-0.19,-0.31,-4.59,-4.65,-4.65
268.48,-4.38,-4.40,0.25,0.23,-0.18,-0.19,-0.33,-4.56,-4.58,-4.63
271.16,-4.39,-4.38,0.21,0.23,-0.18,-0.18,-0.34,-4.57,-4.56,-4.61
273.87,-4.39,-4.39,0.20,0.20,-0.18,-0.16,-0.35,-4.58,-4.58,-4.59
276.61,-4.39,-4.40,0.17,0.17,-0.19,-0.15,-0.36,-4.58,-4.58,-4.57
279.38,-4.39,-4.39,0.16,0.16,-0.18,-0.13,-0.37,-4.58,-4.58,-4.55
282.17,-4.39,-4.40,0.14,0.14,-0.17,-0.11,-0.37,-4.57,-4.57,-4.54
284.99,-4.38,-4.38,0.13,0.14,-0.15,-0.09,-0.38,-4.54,-4.53,-4.51
287.84,-4.37,-4.34,0.12,0.15,-0.14,-0.07,-0.38,-4.51,-4.48,-4.50
290.72,-4.28,-4.34,0.19,0.14,-0.12,-0.05,-0.39,-4.40,-4.45,-4.47
293.63,-4.32,-4.34,0.13,0.11,-0.10,-0.02,-0.39,-4.42,-4.44,-4.46
296.57,-4.42,-4.35,0.01,0.08,-0.06,0.01,-0.39,-4.49,-4.42,-4.43
299.53,-4.37,-4.40,0.04,0.02,-0.02,0.04,-0.39,-4.39,-4.42,-4.41
302.53,-4.38,-4.43,0.01,-0.04,0.04,0.07,-0.39,-4.35,-4.39,-4.40
305.55,-4.48,-4.44,-0.12,-0.07,0.10,0.09,-0.39,-4.38,-4.34,-4.36
308.61,-4.50,-4.49,-0.16,-0.15,0.17,0.12,-0.39,-4.34,-4.32,-4.35
311.69,-4.49,-4.54,-0.18,-0.23,0.22,0.15,-0.39,-4.27,-4.32,-4.32
314.81,-4.59,-4.58,-0.31,-0.29,0.27,0.18,-0.39,-4.33,-4.32,-4.28
317.96,-4.64,-4.64,-0.38,-0.37,0.31,0.21,-0.39,-4.33,-4.33,-4.27
321.14,-4.64,-4.63,-0.40,-0.38,0.35,0.24,-0.39,-4.30,-4.28,-4.25
324.35,-4.62,-4.58,-0.39,-0.35,0.38,0.26,-0.40,-4.25,-4.21,-4.23
327.59,-4.46,-4.55,-0.26,-0.34,0.39,0.28,-0.40,-4.07,-4.16,-4.20
330.87,-4.55,-4.55,-0.37,-0.36,0.40,0.29,-0.40,-4.15,-4.15,-4.19
334.18,-4.59,-4.56,-0.42,-0.39,0.40,0.30,-0.40,-4.20,-4.16,-4.17
337.52,-4.57,-4.58,-0.42,-0.43,0.38,0.31,-0.40,-4.19,-4.20,-4.15
340.90,-4.52,-4.53,-0.40,-0.40,0.36,0.30,-0.40,-4.17,-4.17,-4.13
344.30,-4.46,-4.45,-0.36,-0.34,0.33,0.30,-0.40,-4.13,-4.12,-4.11
347.75,-4.36,-4.39,-0.27,-0.31,0.30,0.28,-0.40,-4.07,-4.10,-4.09
351.23,-4.31,-4.32,-0.24,-0.25,0.25,0.26,-0.40,-4.06,-4.06,-4.07
354.74,-4.29,-4.23,-0.24,-0.18,0.20,0.24,-0.41,-4.09,-4.03,-4.05
358.28,-4.11,-4.17,-0.08,-0.13,0.14,0.21,-0.41,-3.98,-4.03,-4.04
361.87,-4.07,-4.11,-0.06,-0.08,0.08,0.17,-0.41,-4.00,-4.03,-4.02
365.49,-4.09,-4.04,-0.08,-0.03,0.02,0.14,-0.42,-4.07,-4.02,-4.01
369.14,-4.00,-3.99,-0.00,0.01,-0.02,0.10,-0.42,-4.03,-4.01,-4.00
372.83,-3.89,-3.92,0.09,0.07,-0.06,0.05,-0.42,-3.96,-3.98,-3.98
376.56,-3.83,-3.85,0.14,0.12,-0.09,0.01,-0.43,-3.93,-3.95,-3.98
380.33,-3.84,-3.82,0.10,0.13,-0.11,-0.03,-0.43,-3.96,-3.94,-3.95
384.13,-3.82,-3.82,0.12,0.12,-0.12,-0.08,-0.44,-3.94,-3.94,-3.94
387.97,-3.81,-3.82,0.12,0.11,-0.10,-0.12,-0.45,-3.92,-3.92,-3.93
391.85,-3.82,-3.81,0.10,0.11,-0.07,-0.17,-0.45,-3.90,-3.88,-3.92
395.77,-3.81,-3.82,0.09,0.08,-0.03,-0.21,-0.46,-3.85,-3.86,-3.90
399.73,-3.85,-3.87,0.04,0.03,0.00,-0.25,-0.47,-3.85,-3.86,-3.90
403.72,-3.91,-3.93,-0.03,-0.05,0.03,-0.29,-0.47,-3.89,-3.90,-3.89
407.76,-4.00,-3.98,-0.13,-0.11,0.04,-0.33,-0.48,-3.97,-3.94,-3.88
411.84,-4.00,-3.97,-0.14,-0.11,0.03,-0.37,-0.49,-3.98,-3.95,-3.86
415.96,-3.89,-3.91,-0.04,-0.06,-0.00,-0.40,-0.50,-3.90,-3.91,-3.85
420.12,-3.77,-3.79,0.07,0.05,-0.05,-0.44,-0.51,-3.82,-3.84,-3.84
424.32,-3.68,-3.67,0.15,0.16,-0.12,-0.48,-0.52,-3.80,-3.79,-3.83
428.56,-3.55,-3.58,0.27,0.25,-0.20,-0.51,-0.53,-3.76,-3.78,-3.82
432.85,-3.50,-3.48,0.31,0.33,-0.31,-0.54,-0.54,-3.81,-3.79,-3.82
