frequency,raw,error,smoothed,error_smoothed,equalization,parametric_eq,fixed_band_eq,equalized_raw,equalized_smoothed,target
20.00,-12.75,-13.58,-12.75,-13.57,6.00,6.04,2.64,-6.75,-6.75,0.82
20.20,-12.72,-13.60,-12.72,-13.59,6.00,6.04,2.72,-6.72,-6.72,0.87
20.40,-12.68,-13.61,-12.69,-13.61,6.00,6.04,2.79,-6.68,-6.69,0.92
20.61,-12.65,-13.60,-12.66,-13.62,6.00,6.05,2.87,-6.65,-6.66,0.95
20.81,-12.62,-13.62,-12.62,-13.62,6.00,6.05,2.95,-6.62,-6.62,1.00
21.02,-12.59,-13.63,-12.59,-13.62,6.00,6.05,3.04,-6.59,-6.59,1.04
21.23,-12.54,-13.60,-12.54,-13.61,6.00,6.05,3.12,-6.54,-6.54,1.06
21.44,-12.49,-13.57,-12.50,-13.58,6.00,6.05,3.21,-6.49,-6.50,1.08
21.66,-12.44,-13.54,-12.45,-13.54,6.00,6.05,3.30,-6.44,-6.45,1.10
21.87,-12.39,-13.50,-12.39,-13.50,6.00,6.05,3.40,-6.39,-6.39,1.11
22.09,-12.33,-13.46,-12.33,-13.46,6.00,6.05,3.49,-6.33,-6.33,1.13
22.31,-12.26,-13.40,-12.26,-13.40,6.00,6.05,3.59,-6.26,-6.26,1.14
22.54,-12.20,-13.33,-12.19,-13.33,6.00,6.05,3.69,-6.20,-6.19,1.14
22.76,-12.12,-13.26,-12.12,-13.26,6.00,6.05,3.80,-6.12,-6.12,1.14
22.99,-12.05,-13.18,-12.06,-13.18,6.00,6.05,3.91,-6.05,-6.06,1.12
23.22,-11.99,-13.12,-12.00,-13.12,6.00,6.05,4.02,-5.99,-6.00,1.12
23.45,-11.94,-13.07,-11.94,-13.07,6.00,6.05,4.13,-5.94,-5.94,1.12
23.69,-11.88,-13.02,-11.88,-13.01,6.00,6.05,4.24,-5.88,-5.88,1.13
23.92,-11.82,-12.95,-11.82,-12.96,6.00,6.05,4.36,-5.82,-5.82,1.13
24.16,-11.74,-12.88,-11.74,-12.88,6.00,6.05,4.48,-5.74,-5.74,1.14
24.40,-11.66,-12.81,-11.66,-12.80,6.00,6.05,4.60,-5.66,-5.66,1.15
24.65,-11.57,-12.71,-11.57,-12.72,6.00,6.05,4.72,-5.57,-5.57,1.14
24.89,-11.49,-12.63,-11.50,-12.64,6.00,6.05,4.84,-5.49,-5.50,1.14
25.14,-11.43,-12.57,-11.44,-12.58,6.00,6.05,4.97,-5.43,-5.44,1.14
25.39,-11.39,-12.54,-11.39,-12.53,6.00,6.05,5.10,-5.39,-5.39,1.15
25.65,-11.35,-12.50,-11.35,-12.49,6.00,6.06,5.22,-5.35,-5.35,1.14
25.91,-11.31,-12.45,-11.31,-12.45,6.00,6.06,5.35,-5.31,-5.31,1.13
26.16,-11.26,-12.40,-11.26,-12.40,6.00,6.06,5.48,-5.26,-5.26,1.13
26.43,-11.21,-12.35,-11.21,-12.35,6.00,6.06,5.61,-5.21,-5.21,1.13
26.69,-11.15,-12.28,-11.16,-12.29,6.00,6.06,5.73,-5.15,-5.16,1.13
26.96,-11.10,-12.24,-11.10,-12.23,6.00,6.06,5.86,-5.10,-5.10,1.14
27.23,-11.02,-12.16,-11.02,-12.16,6.00,6.06,5.98,-5.02,-5.02,1.14
27.50,-10.94,-12.08,-10.95,-12.08,6.00,6.06,6.11,-4.94,-4.95,1.14
27.77,-10.86,-11.99,-10.87,-11.99,6.00,6.06,6.22,-4.86,-4.87,1.13
28.05,-10.79,-11.92,-10.80,-11.92,6.00,6.06,6.34,-4.79,-4.80,1.12
28.33,-10.73,-11.85,-10.74,-11.85,6.00,6.06,6.44,-4.73,-4.74,1.11
28.62,-10.68,-11.80,-10.68,-11.79,6.00,6.06,6.55,-4.68,-4.68,1.11
28.90,-10.62,-11.74,-10.62,-11.74,6.00,6.06,6.65,-4.62,-4.62,1.12
29.19,-10.56,-11.67,-10.56,-11.68,6.00,6.06,6.74,-4.56,-4.56,1.11
29.48,-10.50,-11.63,-10.50,-11.62,6.00,6.06,6.82,-4.50,-4.50,1.13
29.78,-10.44,-11.56,-10.45,-11.56,6.00,6.06,6.90,-4.44,-4.45,1.11
30.08,-10.39,-11.52,-10.40,-11.52,6.00,6.06,6.96,-4.39,-4.40,1.12
30.38,-10.36,-11.47,-10.37,-11.48,6.00,6.06,7.02,-4.36,-4.37,1.11
30.68,-10.33,-11.44,-10.33,-11.44,6.00,6.06,7.07,-4.33,-4.33,1.11
30.99,-10.30,-11.41,-10.30,-11.40,6.00,6.06,7.11,-4.30,-4.30,1.11
31.30,-10.24,-11.35,-10.24,-11.35,6.00,6.06,7.14,-4.24,-4.24,1.10
31.61,-10.18,-11.29,-10.19,-11.29,6.00,6.06,7.16,-4.18,-4.19,1.10
31.93,-10.12,-11.22,-10.13,-11.23,6.00,6.06,7.17,-4.12,-4.13,1.10
32.24,-10.08,-11.17,-10.09,-11.18,6.00,6.06,7.17,-4.08,-4.09,1.09
32.57,-10.05,-11.15,-10.05,-11.14,6.00,6.06,7.16,-4.05,-4.05,1.09
32.89,-10.01,-11.11,-10.01,-11.10,6.00,6.06,7.15,-4.01,-4.01,1.09
33.22,-9.96,-11.04,-9.96,-11.04,6.00,6.06,7.12,-3.96,-3.96,1.08
33.55,-9.90,-10.98,-9.90,-10.98,6.00,6.06,7.09,-3.90,-3.90,1.08
33.89,-9.84,-10.91,-9.85,-10.92,6.00,6.06,7.05,-3.84,-3.85,1.06
34.23,-9.79,-10.86,-9.80,-10.86,6.00,6.06,7.01,-3.79,-3.80,1.07
34.57,-9.75,-10.81,-9.75,-10.81,6.00,6.06,6.96,-3.75,-3.75,1.06
34.92,-9.71,-10.77,-9.71,-10.77,6.00,6.06,6.91,-3.71,-3.71,1.05
35.27,-9.67,-10.73,-9.68,-10.73,6.00,6.06,6.85,-3.67,-3.68,1.05
35.62,-9.64,-10.69,-9.64,-10.69,6.00,6.06,6.79,-3.64,-3.64,1.05
35.97,-9.60,-10.65,-9.59,-10.64,6.00,6.06,6.72,-3.60,-3.59,1.04
36.33,-9.52,-10.57,-9.52,-10.56,6.00,6.06,6.66,-3.52,-3.52,1.05
36.70,-9.42,-10.46,-9.43,-10.47,6.00,6.06,6.59,-3.42,-3.43,1.04
37.06,-9.34,-10.38,-9.35,-10.39,6.00,6.06,6.52,-3.34,-3.35,1.03
37.43,-9.30,-10.35,-9.29,-10.33,6.00,6.06,6.46,-3.30,-3.29,1.05
37.81,-9.25,-10.30,-9.26,-10.30,6.00,6.06,6.39,-3.25,-3.26,1.04
38.19,-9.22,-10.26,-9.23,-10.28,6.00,6.06,6.33,-3.22,-3.23,1.04
38.57,-9.21,-10.26,-9.21,-10.25,6.00,6.06,6.27,-3.21,-3.21,1.04
38.95,-9.19,-10.24,-9.19,-10.24,6.00,6.06,6.21,-3.19,-3.19,1.05
39.34,-9.16,-10.21,-9.16,-10.21,6.00,6.06,6.15,-3.16,-3.16,1.04
39.74,-9.12,-10.16,-9.12,-10.17,6.00,6.05,6.09,-3.12,-3.12,1.04
40.14,-9.07,-10.12,-9.06,-10.10,6.00,6.05,6.04,-3.07,-3.06,1.04
40.54,-9.00,-10.04,-9.00,-10.04,6.00,6.05,5.99,-3.00,-3.00,1.04
40.94,-8.93,-9.97,-8.96,-10.00,6.00,6.05,5.95,-2.93,-2.96,1.03
41.35,-8.94,-9.97,-8.96,-9.99,6.00,6.05,5.90,-2.94,-2.96,1.03
41.76,-8.97,-9.99,-8.95,-9.97,6.00,6.05,5.87,-2.97,-2.95,1.02
42.18,-8.94,-9.97,-8.91,-9.92,6.00,6.05,5.83,-2.94,-2.91,1.02
42.60,-8.81,-9.82,-8.82,-9.84,6.00,6.04,5.80,-2.81,-2.82,1.01
43.03,-8.70,-9.70,-8.75,-9.75,6.00,6.04,5.78,-2.70,-2.75,1.00
43.46,-8.69,-9.69,-8.69,-9.68,6.00,6.04,5.76,-2.69,-2.69,0.99
43.90,-8.68,-9.65,-8.66,-9.62,6.00,6.04,5.74,-2.68,-2.66,0.97
44.33,-8.61,-9.56,-8.61,-9.56,6.00,6.04,5.73,-2.61,-2.61,0.95
44.78,-8.52,-9.45,-8.53,-9.46,6.00,6.03,5.72,-2.52,-2.53,0.93
45.23,-8.45,-9.38,-8.45,-9.36,6.00,6.03,5.72,-2.45,-2.45,0.92
45.68,-8.38,-9.29,-8.39,-9.29,6.00,6.03,5.72,-2.38,-2.39,0.90
46.13,-8.35,-9.24,-8.37,-9.26,6.00,6.03,5.72,-2.35,-2.37,0.88
46.60,-8.37,-9.26,-8.37,-9.25,6.00,6.02,5.73,-2.37,-2.37,0.88
47.06,-8.39,-9.26,-8.37,-9.24,6.00,6.02,5.75,-2.39,-2.37,0.86
47.53,-8.35,-9.21,-8.36,-9.22,6.00,6.02,5.76,-2.35,-2.36,0.85
48.01,-8.32,-9.18,-8.34,-9.19,6.00,6.01,5.78,-2.32,-2.34,0.85
48.49,-8.31,-9.15,-8.31,-9.15,6.00,6.01,5.81,-2.31,-2.31,0.83
48.97,-8.29,-9.11,-8.25,-9.06,6.00,6.01,5.84,-2.29,-2.25,0.81
49.46,-8.17,-8.96,-8.17,-8.96,6.00,6.00,5.87,-2.17,-2.17,0.79
49.96,-8.04,-8.81,-8.11,-8.89,6.00,6.00,5.90,-2.04,-2.11,0.77
50.46,-8.06,-8.83,-8.07,-8.83,6.00,6.00,5.94,-2.06,-2.07,0.77
50.96,-8.09,-8.85,-8.02,-8.77,6.00,5.99,5.98,-2.09,-2.02,0.75
51.47,-7.97,-8.70,-7.97,-8.70,6.00,5.99,6.02,-1.97,-1.97,0.73
51.99,-7.85,-8.56,-7.94,-8.66,6.00,5.98,6.06,-1.85,-1.94,0.72
52.51,-7.92,-8.64,-7.91,-8.63,6.00,5.98,6.11,-1.92,-1.91,0.71
53.03,-7.98,-8.69,-7.88,-8.58,6.00,5.97,6.16,-1.98,-1.88,0.71
53.56,-7.84,-8.54,-7.88,-8.57,6.00,5.97,6.20,-1.84,-1.88,0.69
54.10,-7.76,-8.44,-7.90,-8.58,6.00,5.96,6.25,-1.76,-1.90,0.68
54.64,-7.95,-8.62,-7.88,-8.55,6.00,5.96,6.29,-1.95,-1.88,0.66
55.18,-7.96,-8.62,-7.83,-8.48,6.00,5.95,6.34,-1.96,-1.83,0.66
55.74,-7.66,-8.30,-7.73,-8.38,6.00,5.94,6.38,-1.66,-1.73,0.64
56.29,-7.53,-8.17,-7.60,-8.23,6.00,5.94,6.42,-1.53,-1.60,0.63
56.86,-7.58,-8.20,-7.56,-8.17,6.00,5.93,6.46,-1.58,-1.56,0.61
57.42,-7.63,-8.22,-7.62,-8.22,6.00,5.92,6.50,-1.63,-1.62,0.59
58.00,-7.68,-8.26,-7.68,-8.26,6.00,5.92,6.53,-1.68,-1.68,0.58
58.58,-7.67,-8.24,-7.66,-8.22,6.00,5.91,6.56,-1.67,-1.66,0.57
59.16,-7.63,-8.18,-7.59,-8.13,6.00,5.90,6.58,-1.63,-1.59,0.55
59.76,-7.48,-8.00,-7.55,-8.07,6.00,5.89,6.60,-1.48,-1.55,0.52
60.35,-7.49,-7.98,-7.55,-8.03,6.00,5.88,6.61,-1.49,-1.55,0.48
60.96,-7.63,-8.08,-7.57,-8.02,6.00,5.88,6.61,-1.63,-1.57,0.45
61.57,-7.58,-7.99,-7.55,-7.95,6.00,5.87,6.61,-1.58,-1.55,0.41
62.18,-7.47,-7.84,-7.44,-7.81,6.00,5.86,6.60,-1.47,-1.44,0.36
62.80,-7.25,-7.57,-7.34,-7.66,6.00,5.85,6.59,-1.25,-1.34,0.32
63.43,-7.27,-7.55,-7.31,-7.58,6.00,5.84,6.57,-1.27,-1.31,0.27
64.07,-7.38,-7.61,-7.33,-7.56,6.00,5.83,6.54,-1.38,-1.33,0.23
64.71,-7.38,-7.57,-7.36,-7.55,6.00,5.82,6.51,-1.38,-1.36,0.18
65.35,-7.32,-7.47,-7.31,-7.45,6.00,5.81,6.47,-1.32,-1.31,0.14
66.01,-7.20,-7.30,-7.20,-7.30,6.00,5.80,6.42,-1.20,-1.20,0.10
66.67,-7.11,-7.16,-7.16,-7.21,6.00,5.79,6.37,-1.11,-1.16,0.05
67.33,-7.13,-7.13,-7.17,-7.17,6.00,5.78,6.32,-1.13,-1.17,-0.00
68.01,-7.28,-7.24,-7.22,-7.18,6.00,5.77,6.26,-1.28,-1.22,-0.04
68.69,-7.28,-7.19,-7.28,-7.18,6.00,5.76,6.19,-1.28,-1.28,-0.09
69.37,-7.28,-7.14,-7.30,-7.15,6.00,5.75,6.13,-1.28,-1.30,-0.15
70.07,-7.28,-7.08,-7.28,-7.09,6.00,5.73,6.05,-1.28,-1.28,-0.20
70.77,-7.28,-7.04,-7.28,-7.04,6.00,5.72,5.98,-1.28,-1.28,-0.24
71.48,-7.28,-6.99,-7.30,-7.00,6.00,5.71,5.91,-1.28,-1.30,-0.30
72.19,-7.28,-6.92,-7.28,-6.92,6.00,5.70,5.83,-1.28,-1.28,-0.36
72.91,-7.28,-6.86,-7.19,-6.78,6.00,5.69,5.75,-1.28,-1.19,-0.42
73.64,-7.06,-6.59,-7.13,-6.66,6.00,5.67,5.67,-1.06,-1.13,-0.48
74.38,-7.03,-6.50,-7.12,-6.58,6.00,5.66,5.60,-1.03,-1.12,-0.53
75.12,-7.18,-6.59,-7.12,-6.53,6.00,5.65,5.52,-1.18,-1.12,-0.59
75.87,-7.18,-6.53,-7.13,-6.48,6.01,5.64,5.44,-1.17,-1.11,-0.65
76.63,-7.05,-6.35,-7.06,-6.35,6.02,5.62,5.37,-1.03,-1.03,-0.70
77.40,-6.93,-6.18,-6.96,-6.21,6.02,5.61,5.29,-0.92,-0.94,-0.75
78.17,-6.91,-6.10,-7.01,-6.20,6.00,5.60,5.22,-0.91,-1.00,-0.81
78.95,-7.08,-6.23,-7.09,-6.24,5.98,5.58,5.15,-1.09,-1.11,-0.85
79.74,-7.27,-6.37,-7.08,-6.18,5.95,5.57,5.08,-1.32,-1.13,-0.90
80.54,-6.97,-6.03,-6.96,-6.01,5.90,5.56,5.02,-1.08,-1.06,-0.94
81.35,-6.66,-5.67,-6.83,-5.83,5.84,5.54,4.96,-0.83,-0.99,-1.00
82.16,-6.70,-5.66,-6.75,-5.71,5.78,5.53,4.90,-0.93,-0.98,-1.04
82.98,-6.88,-5.80,-6.78,-5.69,5.72,5.52,4.84,-1.16,-1.06,-1.08
83.81,-6.85,-5.72,-6.79,-5.65,5.67,5.50,4.79,-1.18,-1.12,-1.14
84.65,-6.68,-5.50,-6.74,-5.55,5.61,5.49,4.74,-1.07,-1.12,-1.19
85.50,-6.64,-5.42,-6.72,-5.49,5.54,5.47,4.70,-1.10,-1.18,-1.22
86.35,-6.77,-5.50,-6.80,-5.53,5.47,5.46,4.65,-1.30,-1.33,-1.27
87.22,-6.94,-5.62,-6.85,-5.53,5.41,5.45,4.62,-1.53,-1.44,-1.32
88.09,-6.91,-5.54,-6.82,-5.45,5.35,5.43,4.58,-1.56,-1.47,-1.37
88.97,-6.59,-5.17,-6.71,-5.28,5.29,5.42,4.55,-1.30,-1.42,-1.43
89.86,-6.57,-5.10,-6.58,-5.11,5.23,5.40,4.52,-1.34,-1.35,-1.48
90.76,-6.57,-5.05,-6.56,-5.03,5.16,5.39,4.49,-1.41,-1.40,-1.53
91.66,-6.60,-5.03,-6.65,-5.07,5.07,5.37,4.47,-1.53,-1.58,-1.57
92.58,-6.73,-5.10,-6.70,-5.07,4.97,5.36,4.45,-1.76,-1.73,-1.63
93.51,-6.75,-5.08,-6.69,-5.01,4.89,5.34,4.44,-1.86,-1.79,-1.68
94.44,-6.60,-4.88,-6.62,-4.90,4.84,5.32,4.43,-1.77,-1.79,-1.72
95.39,-6.47,-4.71,-6.53,-4.76,4.80,5.31,4.42,-1.67,-1.72,-1.77
96.34,-6.48,-4.66,-6.46,-4.64,4.77,5.29,4.41,-1.71,-1.69,-1.82
97.30,-6.48,-4.62,-6.47,-4.60,4.73,5.27,4.41,-1.76,-1.74,-1.87
98.28,-6.51,-4.60,-6.57,-4.66,4.67,5.25,4.41,-1.84,-1.90,-1.91
99.26,-6.65,-4.70,-6.69,-4.73,4.63,5.23,4.41,-2.03,-2.06,-1.96
100.25,-6.86,-4.86,-6.74,-4.74,4.61,5.21,4.41,-2.25,-2.13,-2.00
101.25,-6.77,-4.72,-6.73,-4.68,4.61,5.18,4.42,-2.16,-2.11,-2.05
102.27,-6.55,-4.46,-6.68,-4.58,4.62,5.16,4.43,-1.93,-2.06,-2.10
103.29,-6.65,-4.50,-6.64,-4.50,4.63,5.14,4.44,-2.02,-2.01,-2.15
104.32,-6.75,-4.57,-6.72,-4.53,4.62,5.11,4.45,-2.13,-2.10,-2.19
105.37,-6.83,-4.60,-6.90,-4.67,4.61,5.08,4.46,-2.22,-2.29,-2.23
106.42,-7.02,-4.74,-7.00,-4.71,4.62,5.05,4.47,-2.40,-2.38,-2.28
107.48,-7.16,-4.83,-7.01,-4.67,4.65,5.02,4.48,-2.52,-2.36,-2.34
108.56,-6.94,-4.55,-7.07,-4.68,4.68,4.99,4.49,-2.26,-2.38,-2.39
109.64,-6.99,-4.55,-7.11,-4.67,4.73,4.96,4.51,-2.26,-2.38,-2.44
110.74,-7.36,-4.87,-7.17,-4.68,4.77,4.92,4.52,-2.60,-2.41,-2.50
111.85,-7.29,-4.76,-7.35,-4.81,4.79,4.89,4.52,-2.50,-2.56,-2.53
112.97,-7.37,-4.78,-7.47,-4.88,4.80,4.85,4.53,-2.58,-2.67,-2.60
114.10,-7.61,-4.97,-7.47,-4.83,4.81,4.82,4.54,-2.80,-2.67,-2.64
115.24,-7.51,-4.83,-7.53,-4.83,4.82,4.78,4.54,-2.69,-2.70,-2.69
116.39,-7.47,-4.73,-7.59,-4.86,4.84,4.75,4.54,-2.64,-2.75,-2.74
117.55,-7.61,-4.84,-7.58,-4.80,4.84,4.71,4.53,-2.78,-2.74,-2.78
118.73,-7.73,-4.92,-7.59,-4.77,4.81,4.68,4.53,-2.92,-2.77,-2.82
119.92,-7.47,-4.63,-7.58,-4.73,4.76,4.64,4.52,-2.72,-2.82,-2.84
121.12,-7.53,-4.65,-7.63,-4.75,4.70,4.61,4.50,-2.83,-2.92,-2.88
122.33,-7.68,-4.77,-7.68,-4.76,4.67,4.58,4.48,-3.02,-3.01,-2.92
123.55,-7.84,-4.91,-7.63,-4.68,4.63,4.54,4.46,-3.21,-3.00,-2.94
124.79,-7.50,-4.53,-7.49,-4.52,4.59,4.50,4.42,-2.90,-2.90,-2.97
126.03,-7.13,-4.13,-7.40,-4.40,4.56,4.45,4.39,-2.58,-2.84,-3.00
127.29,-7.44,-4.42,-7.41,-4.39,4.51,4.39,4.35,-2.94,-2.91,-3.02
128.57,-7.65,-4.59,-7.54,-4.49,4.45,4.32,4.31,-3.20,-3.09,-3.06
129.85,-7.65,-4.56,-7.59,-4.51,4.36,4.23,4.26,-3.29,-3.23,-3.09
131.15,-7.44,-4.33,-7.48,-4.36,4.26,4.13,4.21,-3.18,-3.22,-3.12
132.46,-7.25,-4.11,-7.35,-4.21,4.15,4.02,4.15,-3.10,-3.20,-3.14
133.79,-7.26,-4.09,-7.22,-4.05,4.04,3.90,4.09,-3.23,-3.19,-3.17
135.12,-7.16,-3.96,-7.08,-3.88,3.90,3.79,4.02,-3.26,-3.18,-3.21
136.48,-6.87,-3.65,-6.91,-3.68,3.74,3.67,3.95,-3.13,-3.17,-3.22
137.84,-6.68,-3.43,-6.75,-3.49,3.57,3.55,3.88,-3.11,-3.17,-3.26
139.22,-6.64,-3.35,-6.66,-3.38,3.42,3.43,3.80,-3.22,-3.24,-3.29
140.61,-6.66,-3.34,-6.59,-3.28,3.28,3.32,3.72,-3.38,-3.31,-3.32
142.02,-6.56,-3.23,-6.53,-3.19,3.15,3.21,3.64,-3.42,-3.39,-3.33
143.44,-6.34,-2.98,-6.44,-3.07,3.02,3.11,3.56,-3.32,-3.42,-3.37
144.87,-6.37,-2.97,-6.31,-2.91,2.91,3.01,3.48,-3.47,-3.41,-3.41
146.32,-6.23,-2.79,-6.21,-2.77,2.79,2.91,3.39,-3.45,-3.43,-3.45
147.78,-6.07,-2.60,-6.13,-2.65,2.66,2.81,3.30,-3.41,-3.47,-3.47
149.26,-6.05,-2.53,-6.03,-2.50,2.53,2.72,3.22,-3.53,-3.50,-3.52
150.75,-5.97,-2.38,-6.00,-2.41,2.39,2.63,3.13,-3.59,-3.61,-3.59
152.26,-5.95,-2.30,-5.96,-2.31,2.25,2.54,3.04,-3.70,-3.71,-3.66
153.78,-5.95,-2.23,-5.86,-2.14,2.12,2.45,2.95,-3.84,-3.74,-3.72
155.32,-5.74,-1.95,-5.79,-2.00,1.99,2.37,2.87,-3.75,-3.80,-3.80
156.88,-5.67,-1.80,-5.77,-1.89,1.89,2.28,2.78,-3.79,-3.88,-3.87
158.44,-5.80,-1.85,-5.75,-1.80,1.82,2.20,2.69,-3.98,-3.93,-3.95
160.03,-5.85,-1.82,-5.74,-1.71,1.79,2.12,2.61,-4.07,-3.95,-4.04
161.63,-5.70,-1.60,-5.78,-1.68,1.78,2.04,2.52,-3.92,-4.00,-4.11
163.24,-5.74,-1.57,-5.86,-1.70,1.80,1.97,2.44,-3.94,-4.07,-4.17
164.88,-6.10,-1.89,-6.00,-1.78,1.82,1.89,2.35,-4.28,-4.18,-4.22
166.53,-6.22,-1.96,-6.18,-1.91,1.83,1.82,2.27,-4.39,-4.35,-4.27
168.19,-6.23,-1.93,-6.32,-2.02,1.84,1.75,2.19,-4.40,-4.49,-4.30
169.87,-6.33,-1.99,-6.29,-1.95,1.83,1.67,2.11,-4.51,-4.46,-4.34
171.57,-6.29,-1.93,-6.20,-1.84,1.80,1.60,2.03,-4.50,-4.40,-4.36
173.29,-5.97,-1.60,-6.05,-1.68,1.72,1.53,1.96,-4.25,-4.33,-4.38
175.02,-5.87,-1.49,-5.92,-1.54,1.61,1.47,1.88,-4.26,-4.31,-4.38
176.77,-5.83,-1.44,-5.84,-1.45,1.48,1.40,1.81,-4.35,-4.36,-4.40
178.54,-5.87,-1.47,-5.81,-1.41,1.35,1.34,1.74,-4.52,-4.45,-4.40
180.32,-5.70,-1.31,-5.68,-1.28,1.25,1.27,1.66,-4.46,-4.43,-4.39
182.13,-5.51,-1.13,-5.51,-1.12,1.17,1.21,1.59,-4.34,-4.34,-4.39
183.95,-5.30,-0.91,-5.38,-0.98,1.11,1.14,1.53,-4.19,-4.26,-4.40
185.79,-5.35,-0.96,-5.37,-0.97,1.06,1.08,1.46,-4.29,-4.31,-4.40
187.65,-5.44,-1.02,-5.44,-1.03,1.02,1.02,1.39,-4.43,-4.43,-4.42
189.52,-5.57,-1.14,-5.50,-1.07,0.97,0.96,1.33,-4.60,-4.53,-4.43
191.42,-5.49,-1.05,-5.47,-1.02,0.93,0.90,1.26,-4.57,-4.55,-4.45
193.33,-5.35,-0.89,-5.40,-0.93,0.89,0.85,1.20,-4.47,-4.51,-4.47
195.27,-5.29,-0.81,-5.31,-0.82,0.85,0.79,1.14,-4.45,-4.46,-4.49
197.22,-5.28,-0.78,-5.29,-0.78,0.80,0.73,1.08,-4.49,-4.49,-4.50
199.19,-5.26,-0.73,-5.26,-0.73,0.74,0.68,1.02,-4.52,-4.52,-4.53
201.18,-5.26,-0.72,-5.19,-0.64,0.69,0.63,0.96,-4.58,-4.51,-4.55
203.19,-5.10,-0.54,-5.16,-0.59,0.65,0.57,0.91,-4.46,-4.51,-4.56
205.23,-5.08,-0.49,-5.17,-0.59,0.62,0.53,0.85,-4.46,-4.55,-4.59
207.28,-5.26,-0.67,-5.18,-0.58,0.59,0.48,0.80,-4.67,-4.58,-4.59
209.35,-5.27,-0.65,-5.21,-0.59,0.55,0.43,0.75,-4.72,-4.66,-4.62
211.44,-5.12,-0.47,-5.24,-0.60,0.50,0.39,0.69,-4.62,-4.74,-4.65
213.56,-5.19,-0.54,-5.20,-0.54,0.45,0.35,0.65,-4.75,-4.75,-4.66
215.69,-5.22,-0.55,-5.11,-0.44,0.40,0.31,0.60,-4.83,-4.72,-4.67
217.85,-4.98,-0.30,-4.98,-0.30,0.33,0.27,0.55,-4.65,-4.65,-4.68
220.03,-4.79,-0.10,-4.87,-0.18,0.26,0.24,0.50,-4.53,-4.61,-4.70
222.23,-4.75,-0.04,-4.83,-0.12,0.20,0.21,0.46,-4.55,-4.63,-4.72
224.45,-4.96,-0.26,-4.85,-0.14,0.15,0.18,0.41,-4.81,-4.69,-4.71
226.70,-4.89,-0.18,-4.86,-0.15,0.12,0.15,0.37,-4.77,-4.74,-4.71
228.96,-4.76,-0.06,-4.82,-0.12,0.11,0.13,0.33,-4.65,-4.71,-4.70
231.25,-4.76,-0.07,-4.76,-0.07,0.11,0.11,0.29,-4.66,-4.66,-4.69
233.57,-4.75,-0.07,-4.79,-0.11,0.10,0.10,0.26,-4.65,-4.68,-4.68
235.90,-4.83,-0.16,-4.82,-0.14,0.10,0.08,0.22,-4.74,-4.72,-4.67
238.26,-4.85,-0.19,-4.79,-0.14,0.08,0.07,0.19,-4.77,-4.71,-4.66
240.64,-4.70,-0.06,-4.73,-0.09,0.06,0.06,0.16,-4.65,-4.68,-4.64
243.05,-4.61,-0.01,-4.64,-0.03,0.04,0.05,0.12,-4.58,-4.60,-4.61
245.48,-4.57,0.01,-4.57,0.02,0.03,0.05,0.10,-4.55,-4.54,-4.59
247.93,-4.54,0.01,-4.54,0.02,0.03,0.05,0.07,-4.52,-4.52,-4.55
250.41,-4.52,0.02,-4.52,0.02,0.02,0.05,0.04,-4.50,-4.50,-4.54
252.92,-4.51,-0.00,-4.50,0.01,0.02,0.05,0.02,-4.49,-4.48,-4.51
255.45,-4.49,-0.01,-4.52,-0.03,0.03,0.05,-0.00,-4.47,-4.49,-4.49
258.00,-4.53,-0.07,-4.56,-0.09,0.04,0.05,-0.02,-4.50,-4.52,-4.46
260.58,-4.59,-0.14,-4.56,-0.11,0.05,0.05,-0.04,-4.54,-4.51,-4.45
263.19,-4.57,-0.16,-4.52,-0.10,0.06,0.06,-0.06,-4.52,-4.46,-4.42
265.82,-4.40,-0.00,-4.46,-0.06,0.07,0.07,-0.08,-4.34,-4.40,-4.40
268.48,-4.38,-0.00,-4.40,-0.02,0.07,0.07,-0.09,-4.31,-4.33,-4.38
271.16,-4.39,-0.05,-4.38,-0.02,0.08,0.08,-0.11,-4.32,-4.30,-4.35
273.87,-4.39,-0.06,-4.39,-0.07,0.08,0.09,-0.12,-4.31,-4.31,-4.33
276.61,-4.39,-0.10,-4.40,-0.10,0.08,0.11,-0.13,-4.31,-4.31,-4.30
279.38,-4.39,-0.12,-4.39,-0.12,0.10,0.12,-0.14,-4.30,-4.30,-4.27
282.17,-4.39,-0.15,-4.40,-0.15,0.11,0.14,-0.15,-4.28,-4.28,-4.25
284.99,-4.38,-0.17,-4.38,-0.16,0.14,0.16,-0.16,-4.24,-4.24,-4.21
287.84,-4.37,-0.18,-4.34,-0.15,0.17,0.18,-0.17,-4.21,-4.17,-4.20
290.72,-4.28,-0.12,-4.34,-0.17,0.20,0.20,-0.18,-4.09,-4.14,-4.16
293.63,-4.32,-0.19,-4.34,-0.21,0.23,0.23,-0.18,-4.10,-4.12,-4.14
296.57,-4.42,-0.32,-4.35,-0.25,0.27,0.26,-0.19,-4.16,-4.09,-4.10
299.53,-4.37,-0.30,-4.40,-0.32,0.32,0.30,-0.20,-4.06,-4.08,-4.07
302.53,-4.38,-0.33,-4.43,-0.38,0.38,0.34,-0.20,-4.00,-4.05,-4.06
305.55,-4.48,-0.47,-4.44,-0.42,0.45,0.38,-0.21,-4.04,-3.99,-4.01
308.61,-4.50,-0.51,-4.49,-0.50,0.51,0.43,-0.21,-3.99,-3.98,-4.00
311.69,-4.49,-0.53,-4.54,-0.58,0.57,0.48,-0.22,-3.93,-3.98,-3.97
314.81,-4.59,-0.65,-4.58,-0.63,0.61,0.53,-0.22,-3.98,-3.97,-3.94
317.96,-4.64,-0.72,-4.64,-0.71,0.65,0.58,-0.23,-4.00,-3.99,-3.93
321.14,-4.64,-0.73,-4.63,-0.71,0.68,0.63,-0.23,-3.96,-3.95,-3.92
324.35,-4.62,-0.72,-4.58,-0.68,0.70,0.67,-0.24,-3.92,-3.88,-3.90
327.59,-4.46,-0.58,-4.55,-0.66,0.72,0.70,-0.24,-3.75,-3.83,-3.88
330.87,-4.55,-0.68,-4.55,-0.67,0.72,0.73,-0.25,-3.84,-3.83,-3.88
334.18,-4.59,-0.73,-4.56,-0.70,0.70,0.73,-0.25,-3.89,-3.86,-3.86
337.52,-4.57,-0.72,-4.58,-0.73,0.68,0.73,-0.26,-3.90,-3.90,-3.85
340.90,-4.52,-0.69,-4.53,-0.69,0.64,0.70,-0.26,-3.88,-3.88,-3.84
344.30,-4.46,-0.64,-4.45,-0.62,0.61,0.66,-0.27,-3.86,-3.85,-3.83
347.75,-4.36,-0.53,-4.39,-0.57,0.56,0.61,-0.27,-3.80,-3.83,-3.83
351.23,-4.31,-0.49,-4.32,-0.49,0.50,0.55,-0.28,-3.81,-3.81,-3.82
354.74,-4.29,-0.47,-4.23,-0.41,0.43,0.48,-0.28,-3.86,-3.79,-3.82
358.28,-4.11,-0.30,-4.17,-0.35,0.36,0.41,-0.29,-3.76,-3.81,-3.82
361.87,-4.07,-0.26,-4.11,-0.29,0.28,0.33,-0.30,-3.79,-3.82,-3.82
365.49,-4.09,-0.28,-4.04,-0.23,0.22,0.26,-0.30,-3.88,-3.83,-3.81
369.14,-4.00,-0.18,-3.99,-0.17,0.16,0.19,-0.31,-3.85,-3.83,-3.82
372.83,-3.89,-0.07,-3.92,-0.10,0.10,0.12,-0.32,-3.79,-3.82,-3.82
376.56,-3.83,-0.01,-3.85,-0.03,0.05,0.05,-0.32,-3.78,-3.80,-3.83
380.33,-3.84,-0.03,-3.82,-0.00,0.02,-0.01,-0.33,-3.83,-3.81,-3.82
384.13,-3.82,-0.00,-3.82,0.00,-0.00,-0.06,-0.34,-3.83,-3.82,-3.82
387.97,-3.81,0.02,-3.82,0.01,-0.00,-0.11,-0.35,-3.82,-3.82,-3.83
391.85,-3.82,0.02,-3.81,0.02,0.01,-0.16,-0.36,-3.81,-3.80,-3.84
395.77,-3.81,0.02,-3.82,0.02,0.03,-0.21,-0.37,-3.78,-3.79,-3.83
399.73,-3.85,-0.01,-3.87,-0.02,0.05,-0.25,-0.38,-3.80,-3.81,-3.85
403.72,-3.91,-0.07,-3.93,-0.08,0.06,-0.29,-0.39,-3.85,-3.87,-3.85
407.76,-4.00,-0.15,-3.98,-0.13,0.05,-0.33,-0.40,-3.95,-3.93,-3.86
411.84,-4.00,-0.14,-3.97,-0.11,0.03,-0.37,-0.41,-3.98,-3.94,-3.86
415.96,-3.89,-0.03,-3.91,-0.04,-0.01,-0.40,-0.42,-3.91,-3.92,-3.86
420.12,-3.77,0.09,-3.79,0.07,-0.07,-0.44,-0.43,-3.84,-3.86,-3.86
424.32,-3.68,0.18,-3.67,0.19,-0.15,-0.47,-0.44,-3.83,-3.82,-3.86
428.56,-3.55,0.30,-3.58,0.28,-0.24,-0.50,-0.45,-3.79,-3.82,-3.85
432.85,-3.50,0.34,-3.48,0.36,-0.33,-0.53,-0.47,-3.84,-3.82,-3.85
