frequency,raw,error,smoothed,error_smoothed,equalization,parametric_eq,fixed_band_eq,equalized_raw,equalized_smoothed,target
20.00,-0.51,-3.10,-0.52,-3.11,3.11,2.59,0.68,2.60,2.59,2.59
20.20,-0.48,-3.06,-0.48,-3.06,3.06,2.59,0.70,2.59,2.58,2.58
20.40,-0.44,-3.01,-0.45,-3.02,3.02,2.58,0.72,2.58,2.57,2.57
20.61,-0.41,-2.98,-0.41,-2.98,2.98,2.58,0.75,2.57,2.56,2.57
20.81,-0.38,-2.93,-0.37,-2.93,2.93,2.57,0.77,2.55,2.55,2.55
21.02,-0.35,-2.90,-0.34,-2.88,2.88,2.56,0.80,2.53,2.55,2.55
21.23,-0.30,-2.84,-0.30,-2.83,2.83,2.55,0.83,2.54,2.54,2.54
21.44,-0.26,-2.81,-0.25,-2.79,2.79,2.54,0.86,2.53,2.53,2.55
21.66,-0.22,-2.76,-0.21,-2.74,2.74,2.53,0.88,2.52,2.53,2.54
21.87,-0.17,-2.69,-0.17,-2.69,2.69,2.52,0.91,2.52,2.52,2.53
22.09,-0.13,-2.64,-0.12,-2.64,2.64,2.51,0.95,2.51,2.51,2.52
22.31,-0.08,-2.59,-0.07,-2.58,2.58,2.49,0.98,2.51,2.51,2.51
22.54,-0.03,-2.53,-0.02,-2.53,2.53,2.48,1.01,2.50,2.51,2.50
22.76,0.03,-2.47,0.03,-2.47,2.47,2.46,1.04,2.50,2.50,2.50
22.99,0.08,-2.41,0.08,-2.42,2.42,2.44,1.08,2.50,2.50,2.49
23.22,0.13,-2.35,0.14,-2.36,2.36,2.42,1.11,2.49,2.50,2.48
23.45,0.19,-2.30,0.19,-2.30,2.30,2.40,1.15,2.49,2.49,2.49
23.69,0.25,-2.23,0.25,-2.24,2.24,2.38,1.18,2.49,2.49,2.48
23.92,0.30,-2.18,0.31,-2.18,2.18,2.36,1.22,2.48,2.49,2.48
24.16,0.35,-2.14,0.37,-2.12,2.12,2.34,1.26,2.47,2.49,2.49
24.40,0.41,-2.09,0.42,-2.07,2.07,2.31,1.30,2.48,2.49,2.50
24.65,0.46,-2.04,0.46,-2.03,2.03,2.29,1.33,2.49,2.49,2.50
24.89,0.51,-1.99,0.50,-1.99,1.99,2.26,1.37,2.50,2.49,2.50
25.14,0.56,-1.94,0.54,-1.96,1.96,2.23,1.41,2.52,2.50,2.50
25.39,0.61,-1.89,0.57,-1.93,1.93,2.21,1.45,2.54,2.50,2.50
25.65,0.65,-1.85,0.60,-1.90,1.90,2.18,1.49,2.55,2.50,2.50
25.91,0.70,-1.80,0.64,-1.87,1.87,2.15,1.53,2.57,2.51,2.50
26.16,0.71,-1.80,0.67,-1.84,1.84,2.12,1.57,2.55,2.51,2.51
26.43,0.69,-1.82,0.70,-1.81,1.81,2.08,1.60,2.50,2.51,2.51
26.69,0.67,-1.84,0.73,-1.78,1.78,2.05,1.64,2.45,2.51,2.51
26.96,0.65,-1.86,0.77,-1.74,1.74,2.02,1.67,2.39,2.51,2.51
27.23,0.71,-1.80,0.80,-1.71,1.71,1.98,1.71,2.42,2.51,2.51
27.50,0.79,-1.72,0.82,-1.69,1.69,1.95,1.74,2.48,2.51,2.51
27.77,0.87,-1.65,0.85,-1.66,1.66,1.91,1.77,2.53,2.51,2.52
28.05,0.94,-1.58,0.88,-1.63,1.63,1.87,1.80,2.57,2.51,2.52
28.33,0.97,-1.53,0.92,-1.59,1.59,1.83,1.83,2.56,2.51,2.51
28.62,1.00,-1.50,0.97,-1.55,1.55,1.79,1.85,2.55,2.51,2.50
28.90,1.04,-1.47,1.01,-1.50,1.50,1.75,1.87,2.54,2.51,2.51
29.19,1.06,-1.45,1.05,-1.46,1.46,1.71,1.89,2.52,2.51,2.51
29.48,1.07,-1.44,1.09,-1.42,1.42,1.67,1.90,2.49,2.51,2.51
29.78,1.08,-1.43,1.13,-1.38,1.38,1.63,1.91,2.46,2.51,2.51
30.08,1.11,-1.41,1.16,-1.34,1.34,1.59,1.92,2.45,2.50,2.52
30.38,1.18,-1.33,1.20,-1.30,1.30,1.54,1.93,2.48,2.50,2.50
30.68,1.26,-1.23,1.23,-1.26,1.26,1.50,1.92,2.52,2.49,2.49
30.99,1.34,-1.15,1.26,-1.23,1.23,1.45,1.92,2.57,2.49,2.49
31.30,1.32,-1.16,1.29,-1.19,1.19,1.41,1.91,2.51,2.48,2.48
31.61,1.30,-1.18,1.32,-1.15,1.15,1.36,1.90,2.45,2.48,2.48
31.93,1.28,-1.18,1.36,-1.12,1.12,1.32,1.88,2.40,2.47,2.47
32.24,1.34,-1.12,1.39,-1.08,1.08,1.27,1.86,2.42,2.47,2.46
32.57,1.43,-1.02,1.42,-1.04,1.04,1.22,1.84,2.47,2.46,2.45
32.89,1.51,-0.94,1.45,-1.00,1.00,1.18,1.81,2.51,2.46,2.45
33.22,1.53,-0.92,1.48,-0.97,0.97,1.13,1.78,2.50,2.45,2.45
33.55,1.52,-0.92,1.51,-0.94,0.94,1.08,1.74,2.46,2.45,2.44
33.89,1.50,-0.95,1.53,-0.91,0.91,1.03,1.70,2.42,2.45,2.45
34.23,1.53,-0.91,1.55,-0.89,0.89,0.98,1.66,2.42,2.44,2.44
34.57,1.56,-0.87,1.58,-0.86,0.86,0.93,1.61,2.42,2.44,2.44
34.92,1.60,-0.83,1.60,-0.83,0.83,0.88,1.56,2.43,2.44,2.43
35.27,1.63,-0.81,1.63,-0.80,0.80,0.83,1.51,2.43,2.43,2.44
35.62,1.67,-0.76,1.65,-0.77,0.77,0.78,1.46,2.44,2.42,2.43
35.97,1.70,-0.72,1.67,-0.74,0.74,0.73,1.40,2.45,2.41,2.42
36.33,1.70,-0.71,1.69,-0.71,0.71,0.68,1.35,2.42,2.40,2.41
36.70,1.70,-0.70,1.71,-0.68,0.68,0.63,1.29,2.38,2.39,2.40
37.06,1.70,-0.68,1.74,-0.64,0.64,0.57,1.23,2.34,2.38,2.38
37.43,1.73,-0.63,1.76,-0.60,0.60,0.52,1.16,2.33,2.36,2.36
37.81,1.76,-0.58,1.78,-0.56,0.56,0.47,1.10,2.32,2.34,2.34
38.19,1.79,-0.53,1.80,-0.52,0.52,0.42,1.04,2.31,2.32,2.32
38.57,1.84,-0.46,1.82,-0.48,0.48,0.37,0.97,2.32,2.30,2.30
38.95,1.89,-0.38,1.84,-0.43,0.43,0.31,0.91,2.32,2.27,2.27
39.34,1.90,-0.34,1.86,-0.39,0.39,0.26,0.84,2.29,2.25,2.24
39.74,1.90,-0.32,1.89,-0.34,0.34,0.21,0.77,2.24,2.22,2.22
40.14,1.90,-0.30,1.91,-0.29,0.29,0.16,0.71,2.19,2.20,2.20
40.54,1.90,-0.27,1.94,-0.23,0.23,0.11,0.64,2.13,2.18,2.17
40.94,1.90,-0.25,1.97,-0.18,0.18,0.05,0.57,2.08,2.15,2.15
41.35,1.95,-0.18,1.99,-0.14,0.14,0.00,0.51,2.09,2.13,2.13
41.76,2.01,-0.08,2.01,-0.10,0.10,-0.05,0.44,2.11,2.11,2.10
42.18,2.05,-0.03,2.02,-0.06,0.06,-0.10,0.37,2.12,2.08,2.08
42.60,2.08,0.02,2.03,-0.03,0.03,-0.15,0.30,2.11,2.06,2.06
43.03,2.10,0.06,2.05,0.01,-0.01,-0.20,0.24,2.09,2.04,2.04
43.46,2.10,0.09,2.07,0.06,-0.06,-0.25,0.17,2.04,2.02,2.01
43.90,2.10,0.11,2.10,0.11,-0.11,-0.31,0.10,2.00,1.99,1.99
44.33,2.10,0.14,2.11,0.15,-0.15,-0.36,0.04,1.95,1.97,1.97
44.78,2.10,0.16,2.13,0.18,-0.18,-0.41,-0.03,1.92,1.94,1.94
45.23,2.10,0.17,2.14,0.22,-0.22,-0.46,-0.10,1.88,1.91,1.93
45.68,2.10,0.21,2.15,0.26,-0.26,-0.51,-0.17,1.84,1.89,1.89
46.13,2.12,0.27,2.15,0.30,-0.30,-0.56,-0.23,1.82,1.85,1.85
46.60,2.20,0.38,2.16,0.34,-0.34,-0.61,-0.30,1.86,1.82,1.82
47.06,2.26,0.47,2.17,0.39,-0.39,-0.66,-0.37,1.87,1.79,1.79
47.53,2.23,0.47,2.19,0.44,-0.44,-0.71,-0.43,1.79,1.75,1.77
48.01,2.20,0.48,2.20,0.49,-0.49,-0.75,-0.50,1.71,1.71,1.72
48.49,2.17,0.50,2.22,0.54,-0.54,-0.80,-0.57,1.63,1.68,1.68
48.97,2.14,0.51,2.23,0.59,-0.59,-0.85,-0.63,1.55,1.64,1.63
49.46,2.21,0.61,2.24,0.64,-0.64,-0.90,-0.70,1.58,1.60,1.60
49.96,2.29,0.75,2.25,0.69,-0.69,-0.95,-0.76,1.60,1.56,1.54
50.46,2.30,0.79,2.26,0.74,-0.74,-0.99,-0.83,1.56,1.52,1.51
50.96,2.30,0.82,2.28,0.79,-0.79,-1.04,-0.89,1.51,1.48,1.48
51.47,2.30,0.85,2.29,0.84,-0.84,-1.09,-0.96,1.46,1.44,1.45
51.99,2.30,0.90,2.30,0.89,-0.89,-1.13,-1.02,1.41,1.40,1.40
52.51,2.30,0.93,2.31,0.95,-0.95,-1.18,-1.09,1.35,1.37,1.37
53.03,2.30,0.96,2.33,1.01,-1.01,-1.23,-1.15,1.29,1.33,1.35
53.56,2.30,1.00,2.35,1.06,-1.06,-1.27,-1.21,1.24,1.29,1.30
54.10,2.32,1.06,2.37,1.11,-1.11,-1.31,-1.27,1.21,1.26,1.26
54.64,2.40,1.18,2.37,1.15,-1.15,-1.36,-1.33,1.25,1.22,1.22
55.18,2.45,1.28,2.38,1.19,-1.19,-1.40,-1.39,1.26,1.19,1.17
55.74,2.42,1.28,2.38,1.23,-1.23,-1.45,-1.45,1.19,1.16,1.14
56.29,2.40,1.29,2.39,1.27,-1.27,-1.49,-1.50,1.13,1.12,1.11
56.86,2.40,1.32,2.40,1.31,-1.31,-1.53,-1.56,1.09,1.09,1.08
57.42,2.40,1.37,2.40,1.35,-1.35,-1.57,-1.61,1.05,1.05,1.03
58.00,2.40,1.39,2.41,1.39,-1.39,-1.62,-1.66,1.01,1.02,1.02
58.58,2.40,1.41,2.41,1.43,-1.43,-1.66,-1.71,0.97,0.98,1.00
59.16,2.40,1.44,2.41,1.47,-1.47,-1.70,-1.75,0.93,0.94,0.97
59.76,2.40,1.47,2.41,1.50,-1.50,-1.74,-1.80,0.90,0.91,0.93
60.35,2.40,1.52,2.41,1.54,-1.54,-1.78,-1.84,0.86,0.87,0.88
60.96,2.40,1.56,2.40,1.57,-1.57,-1.82,-1.88,0.83,0.83,0.84
61.57,2.40,1.61,2.40,1.61,-1.61,-1.86,-1.92,0.79,0.79,0.79
62.18,2.40,1.67,2.40,1.66,-1.66,-1.90,-1.95,0.74,0.74,0.73
62.80,2.40,1.72,2.40,1.70,-1.70,-1.93,-1.98,0.70,0.70,0.68
63.43,2.40,1.77,2.40,1.75,-1.75,-1.97,-2.01,0.65,0.65,0.63
64.07,2.40,1.80,2.40,1.79,-1.79,-2.01,-2.04,0.61,0.61,0.60
64.71,2.40,1.85,2.40,1.84,-1.84,-2.05,-2.07,0.56,0.56,0.55
65.35,2.40,1.89,2.40,1.89,-1.89,-2.08,-2.09,0.51,0.51,0.51
66.01,2.40,1.93,2.40,1.93,-1.93,-2.12,-2.11,0.47,0.47,0.47
66.67,2.40,1.96,2.40,1.98,-1.98,-2.15,-2.13,0.42,0.42,0.44
67.33,2.40,2.02,2.40,2.02,-2.02,-2.19,-2.15,0.38,0.38,0.38
68.01,2.40,2.06,2.40,2.07,-2.07,-2.22,-2.17,0.33,0.33,0.34
68.69,2.40,2.11,2.40,2.11,-2.11,-2.26,-2.18,0.29,0.29,0.29
69.37,2.40,2.15,2.40,2.16,-2.16,-2.29,-2.20,0.24,0.24,0.25
70.07,2.40,2.20,2.40,2.20,-2.20,-2.33,-2.21,0.20,0.20,0.20
70.77,2.40,2.24,2.40,2.25,-2.25,-2.36,-2.23,0.15,0.15,0.16
71.48,2.40,2.29,2.40,2.30,-2.30,-2.39,-2.24,0.11,0.11,0.11
72.19,2.40,2.34,2.40,2.34,-2.34,-2.42,-2.25,0.06,0.06,0.06
72.91,2.40,2.39,2.40,2.39,-2.39,-2.46,-2.26,0.02,0.02,0.01
73.64,2.40,2.44,2.40,2.43,-2.43,-2.49,-2.28,-0.03,-0.03,-0.04
74.38,2.40,2.48,2.40,2.47,-2.47,-2.52,-2.29,-0.07,-0.07,-0.07
75.12,2.40,2.52,2.40,2.51,-2.51,-2.55,-2.30,-0.11,-0.11,-0.12
75.87,2.40,2.55,2.40,2.55,-2.55,-2.58,-2.32,-0.15,-0.15,-0.15
76.63,2.40,2.60,2.40,2.59,-2.59,-2.61,-2.33,-0.19,-0.19,-0.19
77.40,2.40,2.63,2.40,2.63,-2.63,-2.64,-2.35,-0.22,-0.22,-0.23
78.17,2.40,2.67,2.40,2.66,-2.66,-2.66,-2.36,-0.26,-0.26,-0.27
78.95,2.40,2.69,2.40,2.70,-2.70,-2.69,-2.38,-0.30,-0.30,-0.29
79.74,2.40,2.73,2.40,2.73,-2.73,-2.72,-2.40,-0.33,-0.33,-0.33
80.54,2.40,2.76,2.40,2.76,-2.76,-2.75,-2.42,-0.36,-0.36,-0.36
81.35,2.40,2.80,2.40,2.80,-2.80,-2.77,-2.44,-0.40,-0.40,-0.40
82.16,2.40,2.82,2.41,2.84,-2.84,-2.80,-2.47,-0.44,-0.43,-0.42
82.98,2.40,2.86,2.41,2.88,-2.88,-2.83,-2.49,-0.47,-0.47,-0.46
83.81,2.40,2.90,2.41,2.91,-2.91,-2.85,-2.52,-0.51,-0.50,-0.50
84.65,2.40,2.94,2.41,2.95,-2.95,-2.88,-2.55,-0.55,-0.54,-0.54
85.50,2.40,2.99,2.41,2.99,-2.99,-2.90,-2.58,-0.59,-0.57,-0.59
86.35,2.40,3.02,2.41,3.03,-3.03,-2.93,-2.62,-0.62,-0.61,-0.62
87.22,2.40,3.05,2.41,3.06,-3.06,-2.95,-2.65,-0.66,-0.65,-0.65
88.09,2.40,3.09,2.40,3.09,-3.09,-2.98,-2.69,-0.68,-0.69,-0.69
88.97,2.42,3.14,2.39,3.11,-3.11,-3.00,-2.73,-0.69,-0.73,-0.72
89.86,2.46,3.23,2.37,3.14,-3.14,-3.02,-2.77,-0.68,-0.77,-0.77
90.76,2.38,3.19,2.36,3.17,-3.17,-3.04,-2.82,-0.79,-0.81,-0.81
91.66,2.32,3.18,2.34,3.19,-3.19,-3.07,-2.86,-0.87,-0.86,-0.86
92.58,2.31,3.21,2.32,3.22,-3.22,-3.09,-2.91,-0.91,-0.90,-0.90
93.51,2.31,3.25,2.30,3.25,-3.25,-3.11,-2.96,-0.94,-0.95,-0.94
94.44,2.28,3.27,2.27,3.27,-3.27,-3.13,-3.01,-0.99,-1.00,-0.99
95.39,2.20,3.24,2.25,3.30,-3.30,-3.15,-3.07,-1.10,-1.05,-1.04
96.34,2.16,3.26,2.23,3.34,-3.34,-3.17,-3.12,-1.17,-1.10,-1.10
97.30,2.19,3.35,2.22,3.37,-3.37,-3.19,-3.18,-1.18,-1.16,-1.15
98.28,2.19,3.40,2.20,3.41,-3.41,-3.21,-3.24,-1.22,-1.21,-1.21
99.26,2.18,3.46,2.18,3.45,-3.45,-3.23,-3.30,-1.27,-1.27,-1.28
100.25,2.16,3.50,2.16,3.49,-3.49,-3.25,-3.36,-1.33,-1.32,-1.34
101.25,2.14,3.52,2.15,3.53,-3.53,-3.27,-3.43,-1.39,-1.38,-1.38
102.27,2.13,3.57,2.12,3.56,-3.56,-3.29,-3.49,-1.43,-1.44,-1.44
103.29,2.12,3.62,2.09,3.59,-3.59,-3.31,-3.56,-1.47,-1.50,-1.50
104.32,2.10,3.65,2.06,3.61,-3.61,-3.32,-3.62,-1.51,-1.55,-1.55
105.37,2.09,3.70,2.03,3.64,-3.64,-3.34,-3.69,-1.55,-1.61,-1.60
106.42,2.08,3.74,1.99,3.66,-3.66,-3.36,-3.75,-1.58,-1.66,-1.66
107.48,1.98,3.71,1.95,3.67,-3.67,-3.37,-3.82,-1.69,-1.72,-1.73
108.56,1.90,3.67,1.91,3.68,-3.68,-3.39,-3.88,-1.78,-1.77,-1.77
109.64,1.88,3.71,1.88,3.70,-3.70,-3.41,-3.94,-1.82,-1.83,-1.83
110.74,1.82,3.70,1.85,3.73,-3.73,-3.42,-4.01,-1.91,-1.88,-1.88
111.85,1.70,3.63,1.83,3.76,-3.76,-3.44,-4.07,-2.06,-1.93,-1.93
112.97,1.69,3.67,1.80,3.78,-3.78,-3.45,-4.12,-2.09,-1.98,-1.98
114.10,1.72,3.74,1.77,3.80,-3.80,-3.47,-4.18,-2.08,-2.03,-2.02
115.24,1.72,3.80,1.74,3.82,-3.82,-3.48,-4.23,-2.10,-2.08,-2.08
116.39,1.72,3.86,1.72,3.84,-3.84,-3.50,-4.28,-2.12,-2.12,-2.14
117.55,1.73,3.90,1.69,3.86,-3.86,-3.51,-4.32,-2.13,-2.17,-2.17
118.73,1.73,3.96,1.68,3.88,-3.88,-3.52,-4.37,-2.15,-2.21,-2.23
119.92,1.78,4.04,1.66,3.91,-3.91,-3.54,-4.40,-2.13,-2.25,-2.26
121.12,1.79,4.08,1.66,3.95,-3.95,-3.55,-4.44,-2.16,-2.29,-2.29
122.33,1.69,4.02,1.66,3.99,-3.99,-3.56,-4.46,-2.30,-2.33,-2.33
123.55,1.57,3.93,1.66,4.03,-4.03,-3.58,-4.49,-2.46,-2.37,-2.36
124.79,1.51,3.91,1.66,4.06,-4.06,-3.59,-4.51,-2.55,-2.41,-2.39
126.03,1.57,4.01,1.64,4.08,-4.08,-3.60,-4.52,-2.51,-2.44,-2.44
127.29,1.58,4.06,1.62,4.10,-4.10,-3.61,-4.53,-2.52,-2.48,-2.48
128.57,1.59,4.11,1.60,4.11,-4.11,-3.62,-4.54,-2.52,-2.52,-2.52
129.85,1.59,4.15,1.58,4.13,-4.13,-3.63,-4.54,-2.54,-2.55,-2.56
131.15,1.60,4.20,1.56,4.15,-4.15,-3.65,-4.53,-2.55,-2.59,-2.60
132.46,1.64,4.28,1.55,4.18,-4.18,-3.66,-4.53,-2.54,-2.63,-2.63
133.79,1.67,4.34,1.54,4.20,-4.20,-3.67,-4.51,-2.53,-2.67,-2.67
135.12,1.57,4.28,1.52,4.23,-4.23,-3.68,-4.50,-2.66,-2.70,-2.71
136.48,1.41,4.15,1.51,4.25,-4.25,-3.69,-4.48,-2.84,-2.74,-2.73
137.84,1.38,4.15,1.49,4.27,-4.27,-3.70,-4.46,-2.89,-2.78,-2.77
139.22,1.41,4.23,1.46,4.28,-4.28,-3.71,-4.44,-2.87,-2.82,-2.82
140.61,1.42,4.27,1.43,4.28,-4.28,-3.72,-4.41,-2.86,-2.85,-2.85
142.02,1.42,4.31,1.40,4.29,-4.29,-3.72,-4.38,-2.87,-2.89,-2.89
143.44,1.46,4.39,1.38,4.30,-4.30,-3.73,-4.36,-2.84,-2.92,-2.93
144.87,1.44,4.40,1.35,4.31,-4.31,-3.74,-4.33,-2.87,-2.96,-2.96
146.32,1.34,4.33,1.33,4.32,-4.32,-3.75,-4.30,-2.98,-3.00,-2.99
147.78,1.21,4.24,1.30,4.33,-4.33,-3.76,-4.27,-3.12,-3.03,-3.03
149.26,1.19,4.26,1.28,4.35,-4.35,-3.77,-4.24,-3.16,-3.07,-3.07
150.75,1.21,4.33,1.26,4.36,-4.36,-3.77,-4.21,-3.15,-3.11,-3.12
152.26,1.22,4.37,1.23,4.38,-4.38,-3.78,-4.18,-3.16,-3.15,-3.14
153.78,1.22,4.40,1.21,4.39,-4.39,-3.79,-4.16,-3.17,-3.18,-3.18
155.32,1.25,4.47,1.19,4.41,-4.41,-3.80,-4.13,-3.16,-3.22,-3.22
156.88,1.28,4.54,1.16,4.43,-4.43,-3.80,-4.11,-3.15,-3.26,-3.26
158.44,1.16,4.46,1.14,4.44,-4.44,-3.81,-4.09,-3.28,-3.31,-3.30
160.03,1.08,4.43,1.10,4.45,-4.45,-3.82,-4.07,-3.37,-3.35,-3.35
161.63,0.98,4.37,1.08,4.47,-4.47,-3.82,-4.05,-3.49,-3.39,-3.39
163.24,1.00,4.44,1.06,4.49,-4.49,-3.83,-4.04,-3.49,-3.43,-3.44
164.88,1.01,4.49,1.03,4.51,-4.51,-3.83,-4.03,-3.50,-3.48,-3.48
166.53,1.01,4.54,1.00,4.52,-4.52,-3.84,-4.02,-3.51,-3.52,-3.53
168.19,1.04,4.61,0.97,4.54,-4.54,-3.84,-4.01,-3.49,-3.57,-3.57
169.87,1.06,4.67,0.93,4.54,-4.54,-3.85,-4.01,-3.48,-3.61,-3.61
171.57,0.90,4.56,0.89,4.54,-4.54,-3.85,-4.01,-3.64,-3.66,-3.66
173.29,0.77,4.48,0.85,4.55,-4.55,-3.86,-4.01,-3.78,-3.70,-3.71
175.02,0.73,4.47,0.82,4.56,-4.56,-3.86,-4.02,-3.83,-3.74,-3.74
176.77,0.77,4.56,0.80,4.58,-4.58,-3.87,-4.03,-3.81,-3.78,-3.79
178.54,0.82,4.65,0.78,4.60,-4.60,-3.87,-4.04,-3.78,-3.82,-3.83
180.32,0.78,4.65,0.75,4.62,-4.62,-3.88,-4.05,-3.84,-3.86,-3.87
182.13,0.71,4.62,0.72,4.62,-4.62,-3.88,-4.07,-3.91,-3.90,-3.90
183.95,0.69,4.63,0.69,4.63,-4.63,-3.88,-4.09,-3.94,-3.94,-3.94
185.79,0.60,4.58,0.66,4.64,-4.64,-3.89,-4.12,-4.04,-3.98,-3.98
187.65,0.57,4.58,0.64,4.65,-4.65,-3.89,-4.14,-4.08,-4.01,-4.01
189.52,0.62,4.67,0.63,4.67,-4.67,-3.89,-4.17,-4.05,-4.04,-4.05
191.42,0.68,4.75,0.62,4.70,-4.70,-3.90,-4.21,-4.02,-4.08,-4.07
193.33,0.69,4.80,0.61,4.72,-4.72,-3.90,-4.24,-4.03,-4.11,-4.11
195.27,0.62,4.76,0.59,4.73,-4.73,-3.90,-4.28,-4.11,-4.14,-4.14
197.22,0.56,4.74,0.56,4.73,-4.73,-3.90,-4.32,-4.17,-4.17,-4.18
199.19,0.48,4.69,0.54,4.74,-4.74,-3.91,-4.36,-4.26,-4.21,-4.21
201.18,0.45,4.69,0.52,4.75,-4.75,-3.91,-4.41,-4.30,-4.24,-4.24
203.19,0.51,4.78,0.50,4.77,-4.77,-3.91,-4.45,-4.26,-4.27,-4.27
205.23,0.56,4.86,0.48,4.78,-4.78,-3.91,-4.50,-4.22,-4.30,-4.29
207.28,0.48,4.80,0.45,4.78,-4.78,-3.91,-4.55,-4.30,-4.33,-4.32
209.35,0.42,4.77,0.41,4.77,-4.77,-3.91,-4.60,-4.35,-4.36,-4.35
211.44,0.39,4.78,0.37,4.76,-4.76,-3.91,-4.65,-4.37,-4.39,-4.39
213.56,0.27,4.68,0.34,4.76,-4.76,-3.91,-4.70,-4.48,-4.42,-4.41
215.69,0.26,4.70,0.31,4.75,-4.75,-3.92,-4.75,-4.49,-4.45,-4.44
217.85,0.34,4.81,0.28,4.75,-4.75,-3.92,-4.79,-4.41,-4.47,-4.47
220.03,0.28,4.79,0.25,4.74,-4.74,-3.92,-4.84,-4.46,-4.50,-4.51
222.23,0.21,4.74,0.22,4.74,-4.74,-3.92,-4.89,-4.53,-4.52,-4.53
224.45,0.19,4.74,0.18,4.73,-4.73,-3.92,-4.93,-4.53,-4.54,-4.55
226.70,0.09,4.66,0.15,4.71,-4.71,-3.92,-4.97,-4.62,-4.56,-4.57
228.96,0.04,4.62,0.12,4.70,-4.70,-3.91,-5.01,-4.66,-4.58,-4.58
231.25,0.12,4.71,0.10,4.69,-4.69,-3.91,-5.04,-4.57,-4.59,-4.59
233.57,0.15,4.76,0.08,4.68,-4.68,-3.91,-5.07,-4.53,-4.60,-4.61
235.90,0.04,4.66,0.06,4.68,-4.68,-3.91,-5.10,-4.64,-4.61,-4.62
238.26,0.04,4.67,0.05,4.67,-4.67,-3.91,-5.12,-4.63,-4.62,-4.63
240.64,-0.01,4.61,0.02,4.65,-4.65,-3.91,-5.13,-4.66,-4.62,-4.62
243.05,-0.03,4.60,-0.00,4.62,-4.62,-3.91,-5.14,-4.65,-4.63,-4.63
245.48,0.03,4.66,-0.02,4.61,-4.61,-3.90,-5.15,-4.58,-4.63,-4.63
247.93,-0.03,4.61,-0.03,4.60,-4.60,-3.90,-5.15,-4.63,-4.63,-4.64
250.41,-0.06,4.57,-0.05,4.59,-4.59,-3.90,-5.14,-4.65,-4.64,-4.63
252.92,-0.05,4.58,-0.07,4.57,-4.57,-3.90,-5.13,-4.62,-4.64,-4.63
255.45,-0.06,4.58,-0.09,4.55,-4.55,-3.89,-5.11,-4.61,-4.64,-4.64
258.00,-0.11,4.53,-0.13,4.52,-4.52,-3.89,-5.08,-4.63,-4.65,-4.64
260.58,-0.17,4.48,-0.15,4.50,-4.50,-3.89,-5.05,-4.67,-4.66,-4.65
263.19,-0.21,4.44,-0.18,4.49,-4.49,-3.89,-5.01,-4.70,-4.66,-4.65
265.82,-0.22,4.45,-0.21,4.46,-4.46,-3.88,-4.97,-4.68,-4.67,-4.67
268.48,-0.23,4.44,-0.24,4.44,-4.44,-3.88,-4.93,-4.67,-4.68,-4.67
271.16,-0.23,4.46,-0.28,4.41,-4.41,-3.87,-4.88,-4.64,-4.69,-4.69
273.87,-0.30,4.40,-0.32,4.38,-4.38,-3.87,-4.82,-4.68,-4.70,-4.69
276.61,-0.36,4.35,-0.35,4.35,-4.35,-3.86,-4.76,-4.71,-4.71,-4.71
279.38,-0.43,4.31,-0.38,4.33,-4.33,-3.86,-4.70,-4.76,-4.71,-4.73
282.17,-0.43,4.30,-0.42,4.31,-4.31,-3.85,-4.64,-4.73,-4.72,-4.73
284.99,-0.43,4.30,-0.44,4.28,-4.28,-3.85,-4.57,-4.71,-4.72,-4.73
287.84,-0.47,4.26,-0.47,4.26,-4.26,-3.84,-4.50,-4.73,-4.73,-4.73
290.72,-0.51,4.23,-0.50,4.24,-4.24,-3.84,-4.43,-4.75,-4.73,-4.74
293.63,-0.59,4.15,-0.52,4.21,-4.21,-3.83,-4.36,-4.80,-4.74,-4.74
296.57,-0.59,4.14,-0.55,4.18,-4.18,-3.83,-4.29,-4.77,-4.74,-4.73
299.53,-0.57,4.16,-0.58,4.16,-4.16,-3.82,-4.22,-4.73,-4.74,-4.73
302.53,-0.56,4.17,-0.61,4.13,-4.13,-3.81,-4.15,-4.69,-4.74,-4.73
305.55,-0.58,4.15,-0.62,4.11,-4.11,-3.80,-4.07,-4.69,-4.74,-4.73
308.61,-0.63,4.10,-0.65,4.09,-4.09,-3.80,-4.00,-4.72,-4.73,-4.72
311.69,-0.69,4.05,-0.68,4.06,-4.06,-3.79,-3.93,-4.75,-4.73,-4.74
314.81,-0.72,4.01,-0.72,4.02,-4.02,-3.78,-3.87,-4.74,-4.74,-4.73
317.96,-0.73,4.01,-0.75,3.99,-3.99,-3.77,-3.80,-4.72,-4.74,-4.74
321.14,-0.75,3.99,-0.78,3.96,-3.96,-3.76,-3.73,-4.71,-4.74,-4.74
324.35,-0.86,3.88,-0.81,3.93,-3.93,-3.76,-3.67,-4.79,-4.74,-4.74
327.59,-0.83,3.90,-0.84,3.90,-3.90,-3.75,-3.61,-4.73,-4.74,-4.73
330.87,-0.86,3.87,-0.88,3.86,-3.86,-3.74,-3.55,-4.72,-4.74,-4.73
334.18,-0.92,3.83,-0.92,3.82,-3.82,-3.73,-3.49,-4.74,-4.74,-4.75
337.52,-0.94,3.80,-0.96,3.77,-3.77,-3.72,-3.44,-4.71,-4.74,-4.74
340.90,-1.05,3.69,-1.00,3.74,-3.74,-3.71,-3.39,-4.79,-4.74,-4.74
344.30,-1.09,3.64,-1.02,3.71,-3.71,-3.69,-3.34,-4.80,-4.73,-4.73
347.75,-1.02,3.71,-1.05,3.68,-3.68,-3.68,-3.29,-4.70,-4.73,-4.73
351.23,-1.00,3.74,-1.07,3.65,-3.65,-3.67,-3.24,-4.65,-4.72,-4.74
354.74,-1.10,3.62,-1.10,3.62,-3.62,-3.66,-3.20,-4.71,-4.72,-4.72
358.28,-1.13,3.59,-1.14,3.58,-3.58,-3.65,-3.16,-4.71,-4.71,-4.72
361.87,-1.21,3.50,-1.16,3.55,-3.55,-3.63,-3.12,-4.76,-4.71,-4.71
365.49,-1.27,3.44,-1.19,3.52,-3.52,-3.62,-3.09,-4.79,-4.71,-4.70
369.14,-1.23,3.47,-1.20,3.50,-3.50,-3.61,-3.05,-4.73,-4.70,-4.70
372.83,-1.18,3.51,-1.22,3.48,-3.48,-3.59,-3.02,-4.66,-4.70,-4.69
376.56,-1.14,3.55,-1.24,3.45,-3.45,-3.58,-2.99,-4.59,-4.69,-4.69
380.33,-1.24,3.45,-1.27,3.42,-3.42,-3.56,-2.97,-4.66,-4.69,-4.69
384.13,-1.31,3.37,-1.31,3.39,-3.39,-3.55,-2.94,-4.69,-4.69,-4.68
387.97,-1.41,3.27,-1.35,3.35,-3.35,-3.53,-2.92,-4.76,-4.69,-4.68
391.85,-1.41,3.28,-1.37,3.33,-3.33,-3.51,-2.90,-4.73,-4.69,-4.68
395.77,-1.37,3.33,-1.39,3.31,-3.31,-3.50,-2.88,-4.68,-4.70,-4.70
399.73,-1.33,3.37,-1.42,3.29,-3.29,-3.48,-2.87,-4.61,-4.70,-4.70
403.72,-1.39,3.30,-1.45,3.26,-3.26,-3.46,-2.85,-4.65,-4.71,-4.69
407.76,-1.46,3.25,-1.49,3.22,-3.22,-3.44,-2.84,-4.68,-4.71,-4.71
411.84,-1.59,3.12,-1.53,3.18,-3.18,-3.42,-2.83,-4.77,-4.71,-4.71
415.96,-1.65,3.06,-1.56,3.15,-3.15,-3.40,-2.82,-4.80,-4.71,-4.71
420.12,-1.62,3.10,-1.59,3.12,-3.12,-3.38,-2.81,-4.74,-4.71,-4.72
424.32,-1.59,3.12,-1.60,3.10,-3.10,-3.36,-2.80,-4.69,-4.70,-4.71
428.56,-1.54,3.15,-1.61,3.08,-3.08,-3.33,-2.80,-4.61,-4.69,-4.69
432.85,-1.53,3.15,-1.61,3.05,-3.05,-3.31,-2.79,-4.58,-4.67,-4.67
437.18,-1.69,2.98,-1.62,3.02,-3.02,-3.29,-2.79,-4.71,-4.64,-4.67
441.55,-1.74,2.89,-1.62,2.99,-2.99,-3.26,-2.78,-4.73,-4.61,-4.63
445.96,-1.67,2.92,-1.60,2.97,-2.97,-3.24,-2.78,-4.64,-4.57,-4.59
450.42,-1.60,2.95,-1.57,2.95,-2.95,-3.21,-2.77,-4.55,-4.53,-4.55
454.93,-1.54,2.96,-1.54,2.94,-2.94,-3.18,-2.77,-4.48,-4.48,-4.50
459.48,-1.48,2.96,-1.51,2.92,-2.92,-3.15,-2.76,-4.40,-4.43,-4.44
464.07,-1.47,2.90,-1.49,2.89,-2.89,-3.13,-2.76,-4.36,-4.38,-4.37
468.71,-1.49,2.83,-1.46,2.86,-2.86,-3.10,-2.75,-4.35,-4.32,-4.32
473.40,-1.36,2.90,-1.44,2.83,-2.83,-3.07,-2.75,-4.19,-4.27,-4.26
478.13,-1.37,2.83,-1.41,2.80,-2.80,-3.03,-2.74,-4.17,-4.22,-4.20
482.91,-1.39,2.76,-1.38,2.78,-2.78,-3.00,-2.73,-4.17,-4.16,-4.15
487.74,-1.36,2.75,-1.35,2.77,-2.77,-2.97,-2.72,-4.13,-4.12,-4.11
