frequency,raw,error,smoothed,error_smoothed,equalization,parametric_eq,fixed_band_eq,equalized_raw,equalized_smoothed,target
20.00,4.69,1.28,4.71,1.28,-1.28,-1.38,-0.84,3.40,3.43,3.40
20.20,4.75,1.30,4.76,1.30,-1.30,-1.40,-0.87,3.45,3.46,3.44
20.40,4.80,1.31,4.80,1.32,-1.32,-1.42,-0.89,3.48,3.49,3.48
20.61,4.85,1.33,4.85,1.33,-1.33,-1.43,-0.92,3.51,3.52,3.51
20.81,4.90,1.35,4.89,1.35,-1.35,-1.45,-0.94,3.55,3.54,3.55
21.02,4.95,1.36,4.94,1.37,-1.37,-1.46,-0.97,3.58,3.57,3.59
21.23,5.00,1.39,4.98,1.39,-1.39,-1.48,-1.00,3.61,3.59,3.61
21.44,5.04,1.41,5.02,1.41,-1.41,-1.49,-1.03,3.63,3.61,3.63
21.66,5.09,1.44,5.06,1.43,-1.43,-1.51,-1.06,3.66,3.64,3.65
21.87,5.13,1.47,5.10,1.45,-1.45,-1.52,-1.09,3.68,3.65,3.66
22.09,5.16,1.48,5.14,1.47,-1.47,-1.54,-1.12,3.69,3.67,3.68
22.31,5.20,1.51,5.18,1.49,-1.49,-1.55,-1.15,3.71,3.69,3.69
22.54,5.22,1.52,5.21,1.51,-1.51,-1.57,-1.18,3.71,3.70,3.70
22.76,5.24,1.53,5.25,1.53,-1.53,-1.58,-1.21,3.70,3.71,3.71
22.99,5.26,1.55,5.28,1.56,-1.56,-1.60,-1.25,3.70,3.72,3.71
23.22,5.29,1.57,5.31,1.58,-1.58,-1.61,-1.28,3.71,3.73,3.72
23.45,5.32,1.59,5.34,1.61,-1.61,-1.63,-1.32,3.71,3.74,3.73
23.69,5.36,1.62,5.38,1.63,-1.63,-1.64,-1.35,3.73,3.75,3.74
23.92,5.40,1.65,5.41,1.65,-1.65,-1.65,-1.39,3.75,3.76,3.75
24.16,5.44,1.67,5.44,1.67,-1.67,-1.67,-1.43,3.76,3.77,3.77
24.40,5.49,1.70,5.47,1.70,-1.70,-1.68,-1.47,3.79,3.78,3.79
24.65,5.52,1.73,5.51,1.72,-1.72,-1.70,-1.51,3.80,3.78,3.79
24.89,5.56,1.76,5.54,1.74,-1.74,-1.71,-1.54,3.82,3.80,3.80
25.14,5.58,1.77,5.57,1.76,-1.76,-1.72,-1.58,3.81,3.81,3.81
25.39,5.60,1.78,5.60,1.78,-1.78,-1.73,-1.62,3.82,3.82,3.82
25.65,5.63,1.79,5.62,1.80,-1.80,-1.75,-1.66,3.83,3.83,3.84
25.91,5.65,1.81,5.65,1.81,-1.81,-1.76,-1.70,3.84,3.84,3.83
26.16,5.68,1.83,5.67,1.82,-1.82,-1.77,-1.74,3.86,3.85,3.84
26.43,5.69,1.83,5.68,1.82,-1.82,-1.79,-1.78,3.86,3.86,3.85
26.69,5.71,1.85,5.70,1.83,-1.83,-1.80,-1.82,3.88,3.87,3.86
26.96,5.72,1.84,5.71,1.84,-1.84,-1.81,-1.85,3.88,3.88,3.88
27.23,5.73,1.84,5.73,1.84,-1.84,-1.82,-1.89,3.89,3.89,3.89
27.50,5.74,1.84,5.74,1.85,-1.85,-1.83,-1.93,3.89,3.89,3.90
27.77,5.75,1.85,5.76,1.85,-1.85,-1.84,-1.96,3.89,3.90,3.90
28.05,5.76,1.84,5.78,1.86,-1.86,-1.85,-1.99,3.89,3.91,3.92
28.33,5.78,1.86,5.80,1.87,-1.87,-1.86,-2.03,3.90,3.92,3.92
28.62,5.80,1.87,5.82,1.89,-1.89,-1.87,-2.05,3.91,3.93,3.93
28.90,5.83,1.89,5.84,1.90,-1.90,-1.88,-2.08,3.93,3.94,3.94
29.19,5.86,1.92,5.87,1.92,-1.92,-1.89,-2.11,3.94,3.95,3.94
29.48,5.89,1.92,5.89,1.94,-1.94,-1.90,-2.13,3.95,3.95,3.96
29.78,5.92,1.95,5.92,1.96,-1.96,-1.91,-2.15,3.96,3.96,3.96
30.08,5.95,1.97,5.95,1.98,-1.98,-1.92,-2.17,3.97,3.97,3.97
30.38,5.98,2.01,5.97,2.00,-2.00,-1.93,-2.18,3.98,3.98,3.97
30.68,6.01,2.02,5.99,2.01,-2.01,-1.94,-2.20,4.00,3.98,3.99
30.99,6.03,2.04,6.01,2.02,-2.02,-1.94,-2.21,4.00,3.99,3.99
31.30,6.05,2.05,6.03,2.03,-2.03,-1.95,-2.21,4.02,4.00,4.00
31.61,6.07,2.06,6.04,2.04,-2.04,-1.96,-2.22,4.03,4.01,4.01
31.93,6.07,2.05,6.05,2.04,-2.04,-1.97,-2.22,4.03,4.02,4.02
32.24,6.08,2.06,6.06,2.04,-2.04,-1.97,-2.22,4.04,4.03,4.01
32.57,6.07,2.04,6.06,2.03,-2.03,-1.98,-2.21,4.04,4.03,4.03
32.89,6.06,2.02,6.07,2.03,-2.03,-1.98,-2.21,4.03,4.04,4.04
33.22,6.06,2.01,6.07,2.02,-2.02,-1.99,-2.20,4.04,4.05,4.05
33.55,6.05,1.99,6.06,2.01,-2.01,-2.00,-2.19,4.04,4.06,4.06
33.89,6.05,1.98,6.06,2.00,-2.00,-2.00,-2.17,4.05,4.06,4.07
34.23,6.05,1.97,6.06,1.99,-1.99,-2.00,-2.16,4.06,4.07,4.07
34.57,6.05,1.96,6.05,1.97,-1.97,-2.01,-2.14,4.07,4.08,4.08
34.92,6.05,1.97,6.05,1.96,-1.96,-2.01,-2.12,4.08,4.08,4.08
35.27,6.05,1.96,6.05,1.96,-1.96,-2.02,-2.11,4.09,4.09,4.09
35.62,6.05,1.95,6.05,1.95,-1.95,-2.02,-2.08,4.10,4.10,4.10
35.97,6.05,1.95,6.05,1.95,-1.95,-2.02,-2.06,4.10,4.10,4.10
36.33,6.05,1.94,6.05,1.94,-1.94,-2.02,-2.04,4.10,4.10,4.10
36.70,6.05,1.95,6.05,1.94,-1.94,-2.03,-2.02,4.11,4.10,4.10
37.06,6.05,1.94,6.05,1.94,-1.94,-2.03,-2.00,4.11,4.11,4.11
37.43,6.05,1.93,6.05,1.94,-1.94,-2.03,-1.97,4.11,4.11,4.12
37.81,6.05,1.93,6.05,1.94,-1.94,-2.03,-1.95,4.11,4.11,4.11
38.19,6.05,1.94,6.05,1.94,-1.94,-2.03,-1.93,4.11,4.11,4.11
38.57,6.05,1.94,6.05,1.94,-1.94,-2.03,-1.90,4.11,4.11,4.11
38.95,6.05,1.94,6.05,1.94,-1.94,-2.03,-1.88,4.11,4.11,4.11
39.34,6.05,1.95,6.05,1.94,-1.94,-2.03,-1.86,4.11,4.11,4.10
39.74,6.05,1.95,6.05,1.94,-1.94,-2.03,-1.84,4.11,4.11,4.10
40.14,6.05,1.94,6.05,1.94,-1.94,-2.03,-1.82,4.11,4.11,4.11
40.54,6.05,1.95,6.05,1.94,-1.94,-2.03,-1.80,4.11,4.11,4.10
40.94,6.05,1.95,6.05,1.94,-1.94,-2.03,-1.78,4.10,4.10,4.10
41.35,6.05,1.95,6.05,1.94,-1.94,-2.03,-1.77,4.10,4.10,4.10
41.76,6.05,1.95,6.05,1.95,-1.95,-2.03,-1.75,4.10,4.10,4.10
42.18,6.05,1.94,6.05,1.95,-1.95,-2.02,-1.74,4.10,4.10,4.11
42.60,6.05,1.94,6.05,1.95,-1.95,-2.02,-1.72,4.10,4.10,4.10
43.03,6.05,1.94,6.05,1.95,-1.95,-2.02,-1.71,4.10,4.10,4.11
43.46,6.05,1.94,6.05,1.95,-1.95,-2.02,-1.70,4.10,4.10,4.11
43.90,6.05,1.96,6.05,1.95,-1.95,-2.01,-1.69,4.10,4.10,4.09
44.33,6.05,1.95,6.05,1.95,-1.95,-2.01,-1.68,4.10,4.10,4.10
44.78,6.05,1.96,6.05,1.95,-1.95,-2.01,-1.68,4.10,4.10,4.09
45.23,6.05,1.96,6.05,1.95,-1.95,-2.00,-1.67,4.10,4.10,4.09
45.68,6.05,1.96,6.05,1.96,-1.96,-2.00,-1.67,4.09,4.10,4.09
46.13,6.05,1.96,6.05,1.96,-1.96,-1.99,-1.66,4.09,4.10,4.09
46.60,6.05,1.95,6.06,1.97,-1.97,-1.99,-1.66,4.08,4.09,4.10
47.06,6.05,1.95,6.06,1.97,-1.97,-1.99,-1.66,4.07,4.09,4.09
47.53,6.05,1.96,6.06,1.98,-1.98,-1.98,-1.66,4.07,4.08,4.09
48.01,6.06,1.96,6.07,1.99,-1.99,-1.98,-1.66,4.07,4.08,4.10
48.49,6.07,1.98,6.07,1.99,-1.99,-1.97,-1.67,4.08,4.08,4.08
48.97,6.08,2.01,6.06,1.99,-1.99,-1.97,-1.67,4.08,4.07,4.07
49.46,6.08,2.02,6.06,2.00,-2.00,-1.96,-1.68,4.08,4.06,4.06
49.96,6.07,2.02,6.05,2.00,-2.00,-1.96,-1.68,4.07,4.05,4.04
50.46,6.06,2.01,6.04,2.00,-2.00,-1.95,-1.69,4.06,4.04,4.05
50.96,6.04,2.00,6.03,1.99,-1.99,-1.95,-1.70,4.04,4.03,4.04
51.47,6.02,2.01,6.01,1.99,-1.99,-1.94,-1.71,4.03,4.02,4.01
51.99,6.00,2.00,5.99,1.98,-1.98,-1.94,-1.72,4.02,4.01,4.00
52.51,5.97,1.97,5.96,1.97,-1.97,-1.93,-1.73,4.00,4.00,4.00
53.03,5.94,1.95,5.94,1.95,-1.95,-1.93,-1.74,3.98,3.98,3.98
53.56,5.91,1.93,5.90,1.94,-1.94,-1.92,-1.75,3.97,3.97,3.97
54.10,5.88,1.92,5.87,1.92,-1.92,-1.92,-1.76,3.96,3.95,3.95
54.64,5.85,1.90,5.85,1.91,-1.91,-1.91,-1.77,3.94,3.94,3.94
55.18,5.82,1.89,5.82,1.89,-1.89,-1.91,-1.78,3.92,3.93,3.92
55.74,5.79,1.89,5.80,1.89,-1.89,-1.90,-1.79,3.90,3.91,3.90
56.29,5.76,1.86,5.78,1.88,-1.88,-1.90,-1.81,3.87,3.90,3.90
56.86,5.74,1.86,5.77,1.88,-1.88,-1.89,-1.82,3.86,3.88,3.88
57.42,5.72,1.86,5.75,1.89,-1.89,-1.89,-1.83,3.83,3.87,3.86
58.00,5.72,1.87,5.74,1.89,-1.89,-1.89,-1.84,3.83,3.85,3.85
58.58,5.72,1.88,5.73,1.90,-1.90,-1.88,-1.85,3.82,3.83,3.83
59.16,5.73,1.91,5.72,1.91,-1.91,-1.88,-1.86,3.82,3.81,3.82
59.76,5.74,1.93,5.72,1.93,-1.93,-1.87,-1.87,3.81,3.79,3.81
60.35,5.74,1.96,5.71,1.94,-1.94,-1.87,-1.87,3.80,3.77,3.78
60.96,5.73,1.97,5.70,1.96,-1.96,-1.86,-1.88,3.77,3.75,3.76
61.57,5.71,1.99,5.69,1.97,-1.97,-1.86,-1.89,3.74,3.72,3.72
62.18,5.69,2.00,5.68,1.98,-1.98,-1.86,-1.89,3.71,3.70,3.69
62.80,5.67,2.00,5.66,1.99,-1.99,-1.85,-1.90,3.67,3.67,3.67
63.43,5.64,2.00,5.64,2.00,-2.00,-1.85,-1.90,3.64,3.64,3.63
64.07,5.61,2.00,5.62,2.00,-2.00,-1.85,-1.90,3.60,3.61,3.61
64.71,5.59,2.01,5.59,2.00,-2.00,-1.85,-1.90,3.58,3.59,3.58
65.35,5.57,2.02,5.56,2.00,-2.00,-1.84,-1.90,3.57,3.56,3.55
66.01,5.54,2.01,5.52,2.00,-2.00,-1.84,-1.90,3.54,3.53,3.52
66.67,5.50,1.99,5.49,1.99,-1.99,-1.84,-1.90,3.50,3.50,3.50
67.33,5.46,1.98,5.46,1.99,-1.99,-1.84,-1.90,3.47,3.47,3.47
68.01,5.42,1.97,5.42,1.98,-1.98,-1.84,-1.90,3.43,3.44,3.44
68.69,5.38,1.96,5.39,1.98,-1.98,-1.84,-1.90,3.40,3.41,3.41
69.37,5.34,1.95,5.36,1.97,-1.97,-1.84,-1.90,3.36,3.38,3.38
70.07,5.30,1.95,5.32,1.97,-1.97,-1.84,-1.89,3.33,3.36,3.35
70.77,5.28,1.95,5.29,1.96,-1.96,-1.84,-1.89,3.32,3.33,3.33
71.48,5.25,1.94,5.25,1.95,-1.95,-1.84,-1.89,3.30,3.30,3.31
72.19,5.23,1.96,5.22,1.94,-1.94,-1.84,-1.89,3.29,3.28,3.27
72.91,5.21,1.96,5.18,1.93,-1.93,-1.84,-1.89,3.28,3.25,3.25
73.64,5.17,1.94,5.14,1.92,-1.92,-1.84,-1.88,3.25,3.23,3.22
74.38,5.13,1.92,5.11,1.90,-1.90,-1.84,-1.88,3.22,3.20,3.21
75.12,5.08,1.90,5.07,1.89,-1.89,-1.84,-1.88,3.19,3.18,3.18
75.87,5.04,1.87,5.04,1.87,-1.87,-1.85,-1.88,3.17,3.17,3.16
76.63,5.00,1.85,5.00,1.85,-1.85,-1.85,-1.88,3.14,3.15,3.15
77.40,4.95,1.82,4.97,1.84,-1.84,-1.85,-1.89,3.11,3.13,3.13
78.17,4.92,1.81,4.93,1.82,-1.82,-1.86,-1.89,3.10,3.12,3.11
78.95,4.89,1.78,4.90,1.80,-1.80,-1.86,-1.89,3.09,3.10,3.10
79.74,4.87,1.77,4.87,1.78,-1.78,-1.87,-1.90,3.09,3.09,3.09
80.54,4.85,1.76,4.84,1.76,-1.76,-1.87,-1.91,3.09,3.08,3.08
81.35,4.82,1.75,4.81,1.74,-1.74,-1.88,-1.91,3.08,3.07,3.07
82.16,4.80,1.74,4.79,1.73,-1.73,-1.88,-1.92,3.07,3.06,3.06
82.98,4.77,1.71,4.77,1.72,-1.72,-1.89,-1.93,3.05,3.06,3.06
83.81,4.76,1.71,4.76,1.71,-1.71,-1.90,-1.95,3.05,3.05,3.05
84.65,4.74,1.70,4.74,1.70,-1.70,-1.91,-1.96,3.04,3.04,3.03
85.50,4.74,1.70,4.74,1.70,-1.70,-1.92,-1.97,3.04,3.04,3.04
86.35,4.73,1.69,4.73,1.69,-1.69,-1.92,-1.99,3.03,3.04,3.04
87.22,4.73,1.70,4.73,1.69,-1.69,-1.93,-2.01,3.04,3.03,3.03
88.09,4.72,1.69,4.73,1.70,-1.70,-1.94,-2.03,3.02,3.03,3.03
88.97,4.73,1.70,4.73,1.70,-1.70,-1.95,-2.05,3.03,3.03,3.03
89.86,4.74,1.70,4.74,1.71,-1.71,-1.97,-2.07,3.03,3.03,3.04
90.76,4.75,1.73,4.75,1.72,-1.72,-1.98,-2.10,3.02,3.03,3.02
91.66,4.76,1.73,4.77,1.74,-1.74,-1.99,-2.12,3.02,3.03,3.02
92.58,4.78,1.76,4.78,1.76,-1.76,-2.00,-2.15,3.02,3.02,3.02
93.51,4.81,1.78,4.80,1.78,-1.78,-2.02,-2.18,3.03,3.02,3.03
94.44,4.83,1.81,4.83,1.81,-1.81,-2.03,-2.21,3.02,3.02,3.02
95.39,4.86,1.83,4.85,1.84,-1.84,-2.05,-2.24,3.02,3.01,3.02
96.34,4.89,1.88,4.88,1.87,-1.87,-2.06,-2.27,3.02,3.01,3.01
97.30,4.91,1.91,4.91,1.91,-1.91,-2.08,-2.31,3.00,3.00,3.00
98.28,4.94,1.95,4.94,1.95,-1.95,-2.10,-2.34,2.99,2.99,2.99
99.26,4.97,1.99,4.97,1.99,-1.99,-2.11,-2.38,2.98,2.98,2.98
100.25,5.00,2.03,5.01,2.03,-2.03,-2.13,-2.42,2.96,2.97,2.97
101.25,5.04,2.08,5.04,2.08,-2.08,-2.15,-2.46,2.96,2.96,2.96
102.27,5.08,2.14,5.07,2.13,-2.13,-2.17,-2.49,2.95,2.94,2.94
103.29,5.11,2.18,5.11,2.18,-2.18,-2.19,-2.53,2.93,2.93,2.92
104.32,5.15,2.23,5.14,2.24,-2.24,-2.21,-2.57,2.91,2.91,2.91
105.37,5.19,2.29,5.18,2.29,-2.29,-2.23,-2.61,2.89,2.89,2.89
106.42,5.22,2.35,5.21,2.35,-2.35,-2.26,-2.65,2.87,2.86,2.86
107.48,5.24,2.39,5.25,2.41,-2.41,-2.28,-2.70,2.82,2.84,2.85
108.56,5.26,2.45,5.28,2.48,-2.48,-2.30,-2.73,2.78,2.81,2.81
109.64,5.29,2.51,5.31,2.54,-2.54,-2.33,-2.77,2.75,2.77,2.78
110.74,5.33,2.58,5.34,2.60,-2.60,-2.35,-2.81,2.73,2.74,2.75
111.85,5.36,2.65,5.36,2.65,-2.65,-2.38,-2.85,2.70,2.70,2.71
112.97,5.39,2.73,5.37,2.71,-2.71,-2.41,-2.89,2.68,2.66,2.66
114.10,5.41,2.78,5.38,2.75,-2.75,-2.43,-2.92,2.66,2.62,2.63
115.24,5.41,2.82,5.38,2.79,-2.79,-2.46,-2.95,2.62,2.58,2.58
116.39,5.41,2.87,5.37,2.83,-2.83,-2.49,-2.99,2.58,2.54,2.54
117.55,5.39,2.89,5.36,2.86,-2.86,-2.52,-3.01,2.53,2.50,2.50
118.73,5.37,2.92,5.35,2.88,-2.88,-2.55,-3.04,2.48,2.46,2.45
119.92,5.33,2.90,5.33,2.90,-2.90,-2.58,-3.07,2.42,2.42,2.42
121.12,5.30,2.92,5.30,2.92,-2.92,-2.61,-3.09,2.38,2.38,2.38
122.33,5.26,2.92,5.27,2.93,-2.93,-2.64,-3.11,2.33,2.35,2.34
123.55,5.23,2.91,5.24,2.93,-2.93,-2.68,-3.12,2.30,2.31,2.31
124.79,5.20,2.92,5.21,2.93,-2.93,-2.71,-3.14,2.26,2.27,2.28
126.03,5.17,2.92,5.18,2.94,-2.94,-2.74,-3.15,2.23,2.24,2.24
127.29,5.14,2.93,5.15,2.94,-2.94,-2.78,-3.16,2.19,2.21,2.21
128.57,5.12,2.95,5.13,2.95,-2.95,-2.81,-3.16,2.17,2.17,2.17
129.85,5.09,2.95,5.11,2.96,-2.96,-2.85,-3.17,2.13,2.14,2.14
131.15,5.08,2.97,5.09,2.98,-2.98,-2.89,-3.17,2.10,2.12,2.11
132.46,5.07,2.98,5.08,2.99,-2.99,-2.92,-3.16,2.07,2.09,2.09
133.79,5.06,2.99,5.07,3.01,-3.01,-2.96,-3.16,2.04,2.06,2.06
135.12,5.06,3.03,5.07,3.03,-3.03,-3.00,-3.15,2.02,2.03,2.03
136.48,5.07,3.06,5.06,3.06,-3.06,-3.04,-3.15,2.01,2.01,2.01
137.84,5.07,3.09,5.06,3.08,-3.08,-3.08,-3.14,1.99,1.98,1.98
139.22,5.08,3.13,5.06,3.10,-3.10,-3.11,-3.13,1.97,1.96,1.95
140.61,5.08,3.15,5.07,3.13,-3.13,-3.15,-3.11,1.95,1.94,1.92
142.02,5.08,3.16,5.07,3.16,-3.16,-3.19,-3.10,1.92,1.91,1.91
143.44,5.08,3.18,5.07,3.18,-3.18,-3.23,-3.09,1.90,1.89,1.90
144.87,5.08,3.21,5.07,3.21,-3.21,-3.27,-3.08,1.87,1.87,1.87
146.32,5.08,3.24,5.08,3.24,-3.24,-3.31,-3.06,1.84,1.84,1.84
147.78,5.08,3.25,5.08,3.26,-3.26,-3.35,-3.05,1.81,1.81,1.83
149.26,5.08,3.28,5.08,3.29,-3.29,-3.39,-3.04,1.79,1.79,1.80
150.75,5.08,3.32,5.08,3.32,-3.32,-3.43,-3.03,1.76,1.76,1.76
152.26,5.08,3.35,5.08,3.35,-3.35,-3.47,-3.02,1.73,1.73,1.73
153.78,5.08,3.37,5.08,3.37,-3.37,-3.51,-3.01,1.70,1.70,1.71
155.32,5.08,3.41,5.08,3.41,-3.41,-3.55,-3.00,1.67,1.67,1.66
156.88,5.08,3.44,5.08,3.44,-3.44,-3.59,-2.99,1.64,1.64,1.64
158.44,5.08,3.47,5.08,3.48,-3.48,-3.63,-2.99,1.60,1.61,1.61
160.03,5.08,3.51,5.09,3.51,-3.51,-3.67,-2.98,1.56,1.57,1.57
161.63,5.08,3.55,5.09,3.55,-3.55,-3.71,-2.98,1.53,1.54,1.53
163.24,5.08,3.58,5.09,3.59,-3.59,-3.74,-2.98,1.49,1.50,1.50
164.88,5.08,3.61,5.09,3.63,-3.63,-3.78,-2.98,1.45,1.46,1.47
166.53,5.09,3.66,5.09,3.67,-3.67,-3.81,-2.99,1.42,1.43,1.43
168.19,5.10,3.71,5.09,3.70,-3.70,-3.85,-2.99,1.40,1.39,1.39
169.87,5.10,3.75,5.09,3.74,-3.74,-3.88,-3.00,1.36,1.35,1.35
171.57,5.10,3.78,5.08,3.77,-3.77,-3.91,-3.01,1.33,1.31,1.31
173.29,5.09,3.82,5.07,3.80,-3.80,-3.94,-3.03,1.28,1.26,1.27
175.02,5.07,3.84,5.05,3.83,-3.83,-3.97,-3.04,1.23,1.22,1.23
176.77,5.05,3.87,5.04,3.86,-3.86,-4.00,-3.06,1.19,1.17,1.17
178.54,5.03,3.90,5.02,3.89,-3.89,-4.02,-3.08,1.14,1.13,1.13
180.32,5.00,3.91,4.99,3.91,-3.91,-4.05,-3.11,1.09,1.08,1.08
182.13,4.97,3.93,4.97,3.94,-3.94,-4.07,-3.13,1.03,1.03,1.04
183.95,4.94,3.95,4.94,3.96,-3.96,-4.09,-3.16,0.98,0.99,0.98
185.79,4.91,3.97,4.92,3.98,-3.98,-4.11,-3.19,0.93,0.94,0.94
187.65,4.88,4.00,4.89,4.00,-4.00,-4.12,-3.22,0.88,0.89,0.88
189.52,4.85,4.01,4.86,4.02,-4.02,-4.14,-3.26,0.83,0.84,0.83
191.42,4.83,4.04,4.84,4.04,-4.04,-4.15,-3.29,0.78,0.79,0.79
193.33,4.81,4.06,4.81,4.07,-4.07,-4.16,-3.33,0.74,0.75,0.75
195.27,4.79,4.08,4.79,4.09,-4.09,-4.17,-3.37,0.69,0.70,0.71
197.22,4.77,4.11,4.77,4.12,-4.12,-4.17,-3.42,0.65,0.66,0.66
199.19,4.75,4.14,4.76,4.14,-4.14,-4.17,-3.46,0.61,0.61,0.61
201.18,4.73,4.16,4.74,4.17,-4.17,-4.17,-3.50,0.56,0.57,0.56
203.19,4.71,4.17,4.72,4.19,-4.19,-4.17,-3.55,0.52,0.53,0.53
205.23,4.70,4.21,4.70,4.21,-4.21,-4.16,-3.59,0.49,0.49,0.48
207.28,4.69,4.22,4.68,4.23,-4.23,-4.15,-3.64,0.46,0.45,0.47
209.35,4.68,4.26,4.66,4.24,-4.24,-4.14,-3.69,0.43,0.41,0.42
211.44,4.65,4.28,4.63,4.25,-4.25,-4.12,-3.73,0.39,0.38,0.37
213.56,4.62,4.28,4.60,4.26,-4.26,-4.11,-3.78,0.36,0.34,0.34
215.69,4.58,4.26,4.57,4.26,-4.26,-4.09,-3.82,0.32,0.31,0.32
217.85,4.54,4.26,4.53,4.25,-4.25,-4.06,-3.86,0.28,0.28,0.28
220.03,4.50,4.25,4.50,4.24,-4.24,-4.04,-3.90,0.25,0.25,0.24
222.23,4.46,4.24,4.46,4.23,-4.23,-4.01,-3.94,0.23,0.23,0.22
224.45,4.41,4.21,4.41,4.21,-4.21,-3.98,-3.98,0.20,0.20,0.20
226.70,4.35,4.16,4.36,4.18,-4.18,-3.95,-4.01,0.16,0.18,0.18
228.96,4.30,4.14,4.31,4.15,-4.15,-3.91,-4.04,0.15,0.16,0.16
231.25,4.25,4.10,4.26,4.11,-4.11,-3.87,-4.06,0.13,0.15,0.15
233.57,4.20,4.06,4.20,4.07,-4.07,-3.83,-4.08,0.13,0.13,0.13
235.90,4.15,4.03,4.14,4.02,-4.02,-3.79,-4.09,0.13,0.12,0.12
238.26,4.10,3.99,4.08,3.97,-3.97,-3.75,-4.10,0.13,0.12,0.11
240.64,4.04,3.93,4.02,3.91,-3.91,-3.70,-4.10,0.13,0.11,0.11
243.05,3.98,3.87,3.96,3.85,-3.85,-3.65,-4.10,0.13,0.11,0.11
245.48,3.90,3.79,3.89,3.78,-3.78,-3.60,-4.09,0.11,0.11,0.11
247.93,3.82,3.71,3.82,3.71,-3.71,-3.55,-4.07,0.10,0.11,0.11
250.41,3.74,3.63,3.75,3.64,-3.64,-3.49,-4.05,0.10,0.12,0.11
252.92,3.67,3.55,3.68,3.56,-3.56,-3.43,-4.02,0.11,0.12,0.12
255.45,3.60,3.46,3.61,3.48,-3.48,-3.38,-3.98,0.12,0.13,0.14
258.00,3.54,3.39,3.53,3.39,-3.39,-3.32,-3.93,0.15,0.14,0.14
260.58,3.47,3.32,3.45,3.30,-3.30,-3.25,-3.88,0.17,0.15,0.15
263.19,3.39,3.22,3.38,3.21,-3.21,-3.19,-3.82,0.18,0.17,0.17
265.82,3.31,3.14,3.30,3.12,-3.12,-3.13,-3.76,0.19,0.18,0.17
268.48,3.23,3.03,3.22,3.03,-3.03,-3.06,-3.69,0.20,0.19,0.20
271.16,3.15,2.93,3.15,2.94,-2.94,-2.99,-3.61,0.21,0.21,0.21
273.87,3.07,2.85,3.07,2.85,-2.85,-2.93,-3.53,0.22,0.22,0.22
276.61,2.99,2.74,3.00,2.76,-2.76,-2.86,-3.45,0.22,0.24,0.25
279.38,2.92,2.66,2.93,2.68,-2.68,-2.79,-3.36,0.24,0.25,0.25
282.17,2.85,2.58,2.86,2.59,-2.59,-2.72,-3.26,0.26,0.27,0.27
284.99,2.79,2.50,2.79,2.51,-2.51,-2.64,-3.17,0.28,0.28,0.29
287.84,2.72,2.42,2.72,2.42,-2.42,-2.57,-3.07,0.29,0.30,0.30
290.72,2.66,2.34,2.66,2.34,-2.34,-2.50,-2.96,0.31,0.32,0.31
293.63,2.60,2.27,2.60,2.27,-2.27,-2.42,-2.86,0.33,0.33,0.33
296.57,2.54,2.19,2.54,2.19,-2.19,-2.35,-2.75,0.35,0.35,0.35
299.53,2.48,2.12,2.48,2.12,-2.12,-2.27,-2.64,0.36,0.36,0.36
302.53,2.42,2.05,2.42,2.05,-2.05,-2.19,-2.53,0.37,0.37,0.36
305.55,2.36,1.97,2.36,1.98,-1.98,-2.11,-2.42,0.38,0.39,0.39
308.61,2.30,1.90,2.30,1.90,-1.90,-2.04,-2.31,0.39,0.40,0.40
311.69,2.24,1.83,2.24,1.83,-1.83,-1.96,-2.20,0.41,0.41,0.41
314.81,2.18,1.74,2.18,1.76,-1.76,-1.88,-2.08,0.42,0.42,0.43
317.96,2.12,1.68,2.11,1.69,-1.69,-1.79,-1.97,0.43,0.43,0.43
321.14,2.06,1.62,2.05,1.61,-1.61,-1.71,-1.86,0.45,0.44,0.44
324.35,1.99,1.55,1.98,1.53,-1.53,-1.63,-1.74,0.45,0.45,0.44
327.59,1.92,1.46,1.91,1.46,-1.46,-1.55,-1.63,0.46,0.45,0.46
330.87,1.84,1.38,1.83,1.38,-1.38,-1.46,-1.52,0.46,0.46,0.46
334.18,1.76,1.30,1.76,1.29,-1.29,-1.38,-1.41,0.46,0.46,0.45
337.52,1.67,1.20,1.67,1.21,-1.21,-1.29,-1.30,0.46,0.47,0.46
340.90,1.59,1.12,1.59,1.12,-1.12,-1.21,-1.19,0.47,0.47,0.47
344.30,1.51,1.04,1.50,1.03,-1.03,-1.12,-1.07,0.48,0.47,0.47
347.75,1.42,0.95,1.40,0.94,-0.94,-1.03,-0.96,0.48,0.47,0.47
351.23,1.31,0.84,1.31,0.84,-0.84,-0.94,-0.85,0.47,0.46,0.47
354.74,1.21,0.74,1.20,0.74,-0.74,-0.85,-0.75,0.47,0.46,0.47
358.28,1.11,0.65,1.10,0.64,-0.64,-0.76,-0.64,0.47,0.46,0.46
361.87,1.00,0.54,0.99,0.54,-0.54,-0.67,-0.53,0.46,0.46,0.45
365.49,0.89,0.43,0.89,0.44,-0.44,-0.58,-0.42,0.45,0.45,0.45
369.14,0.78,0.34,0.78,0.34,-0.34,-0.48,-0.32,0.44,0.44,0.44
372.83,0.67,0.23,0.67,0.23,-0.23,-0.39,-0.21,0.43,0.44,0.44
376.56,0.57,0.14,0.57,0.13,-0.13,-0.29,-0.10,0.43,0.43,0.43
380.33,0.46,0.03,0.46,0.03,-0.03,-0.20,0.00,0.42,0.42,0.43
384.13,0.34,-0.08,0.35,-0.07,0.07,-0.10,0.10,0.40,0.42,0.42
387.97,0.24,-0.17,0.25,-0.16,0.16,-0.00,0.21,0.40,0.41,0.41
391.85,0.14,-0.26,0.15,-0.26,0.26,0.10,0.31,0.39,0.41,0.40
395.77,0.05,-0.36,0.05,-0.35,0.35,0.20,0.41,0.40,0.40,0.41
399.73,-0.05,-0.45,-0.05,-0.44,0.44,0.30,0.51,0.39,0.39,0.40
403.72,-0.13,-0.52,-0.14,-0.53,0.53,0.40,0.61,0.39,0.39,0.38
407.76,-0.23,-0.61,-0.23,-0.61,0.61,0.50,0.71,0.38,0.38,0.37
411.84,-0.32,-0.71,-0.32,-0.70,0.70,0.60,0.81,0.38,0.38,0.38
415.96,-0.41,-0.78,-0.41,-0.79,0.79,0.70,0.90,0.37,0.37,0.37
420.12,-0.49,-0.86,-0.50,-0.87,0.87,0.80,1.00,0.38,0.37,0.37
424.32,-0.57,-0.94,-0.59,-0.95,0.95,0.90,1.09,0.38,0.37,0.37
428.56,-0.65,-1.01,-0.67,-1.03,1.03,1.00,1.18,0.38,0.36,0.36
432.85,-0.74,-1.10,-0.75,-1.11,1.11,1.09,1.27,0.37,0.36,0.36
437.18,-0.82,-1.18,-0.83,-1.19,1.19,1.19,1.35,0.37,0.36,0.36
441.55,-0.90,-1.27,-0.90,-1.26,1.26,1.28,1.43,0.36,0.36,0.37
445.96,-0.99,-1.36,-0.97,-1.34,1.34,1.38,1.51,0.35,0.36,0.37
450.42,-1.06,-1.42,-1.04,-1.41,1.41,1.46,1.59,0.35,0.37,0.36
454.93,-1.12,-1.49,-1.11,-1.48,1.48,1.55,1.66,0.35,0.37,0.37
459.48,-1.17,-1.54,-1.17,-1.54,1.54,1.63,1.73,0.37,0.37,0.37
464.07,-1.22,-1.60,-1.22,-1.60,1.60,1.71,1.79,0.38,0.38,0.38
468.71,-1.28,-1.67,-1.28,-1.66,1.66,1.78,1.85,0.38,0.38,0.39
473.40,-1.32,-1.71,-1.33,-1.72,1.72,1.85,1.90,0.40,0.39,0.39
478.13,-1.37,-1.77,-1.38,-1.77,1.77,1.92,1.95,0.40,0.39,0.40
482.91,-1.41,-1.81,-1.42,-1.82,1.82,1.97,2.00,0.41,0.40,0.40
487.74,-1.46,-1.87,-1.47,-1.87,1.87,2.03,2.03,0.41,0.40,0.41
492.62,-1.49,-1.91,-1.51,-1.92,1.92,2.07,2.07,0.42,0.41,0.41
497.55,-1.53,-1.95,-1.55,-1.96,1.96,2.11,2.10,0.43,0.42,0.41
502.52,-1.57,-2.00,-1.58,-2.00,2.00,2.14,2.12,0.43,0.42,0.42
507.55,-1.61,-2.04,-1.62,-2.04,2.04,2.17,2.14,0.43,0.42,0.42
512.62,-1.64,-2.07,-1.64,-2.07,2.07,2.18,2.15,0.43,0.43,0.42
517.75,-1.67,-2.11,-1.67,-2.10,2.10,2.19,2.15,0.43,0.43,0.43
522.93,-1.69,-2.13,-1.69,-2.12,2.12,2.20,2.16,0.43,0.43,0.43
528.16,-1.71,-2.15,-1.70,-2.13,2.13,2.20,2.15,0.42,0.43,0.43
533.44,-1.73,-2.17,-1.71,-2.14,2.14,2.19,2.14,0.41,0.43,0.43
538.77,-1.73,-2.16,-1.71,-2.14,2.14,2.18,2.13,0.41,0.43,0.43
544.16,-1.72,-2.15,-1.71,-2.14,2.14,2.16,2.12,0.41,0.43,0.43
