frequency,raw,error,smoothed,error_smoothed,equalization,parametric_eq,equalized_raw,equalized_smoothed,target
20,-17.55,-19.64,-17.54,-19.63,6.00,2.64,-11.55,-11.54,2.09
21,-17.09,-19.18,-16.98,-19.08,6.00,3.04,-11.09,-10.98,2.10
22,-16.39,-18.49,-16.44,-18.54,6.00,3.47,-10.39,-10.44,2.10
23,-15.90,-18.00,-15.91,-18.01,6.00,3.95,-9.90,-9.91,2.10
24,-15.27,-17.37,-15.39,-17.49,6.00,4.45,-9.27,-9.39,2.10
25,-14.85,-16.95,-14.89,-17.00,6.00,4.97,-8.85,-8.89,2.10
26,-14.36,-16.46,-14.41,-16.51,6.00,5.49,-8.36,-8.41,2.11
27,-13.96,-16.06,-13.94,-16.04,6.00,6.00,-7.96,-7.94,2.11
28,-13.46,-15.56,-13.48,-15.59,6.00,6.46,-7.46,-7.48,2.11
29,-13.22,-15.32,-13.04,-15.15,6.00,6.84,-7.22,-7.04,2.11
30,-12.56,-14.66,-12.61,-14.72,6.00,7.13,-6.56,-6.61,2.11
31,-12.15,-14.25,-12.20,-14.31,6.00,7.30,-6.15,-6.20,2.11
32,-11.85,-13.95,-11.80,-13.91,6.00,7.35,-5.85,-5.80,2.10
33,-11.41,-13.51,-11.41,-13.52,6.00,7.31,-5.41,-5.41,2.10
34,-10.94,-13.04,-11.04,-13.14,6.00,7.18,-4.94,-5.04,2.10
35,-10.71,-12.81,-10.68,-12.77,6.00,7.01,-4.71,-4.68,2.10
36,-10.26,-12.35,-10.32,-12.42,6.00,6.81,-4.26,-4.32,2.09
37,-10.00,-12.09,-9.98,-12.07,6.00,6.60,-4.00,-3.98,2.09
38,-9.75,-11.83,-9.65,-11.73,6.00,6.39,-3.75,-3.65,2.08
39,-9.34,-11.41,-9.33,-11.40,6.00,6.20,-3.34,-3.33,2.08
40,-9.08,-11.15,-9.01,-11.08,6.00,6.03,-3.08,-3.01,2.07
41,-8.66,-10.72,-8.71,-10.77,6.00,5.89,-2.66,-2.71,2.06
42,-8.43,-10.48,-8.41,-10.46,6.00,5.77,-2.43,-2.41,2.05
43,-8.20,-10.23,-8.13,-10.17,6.00,5.68,-2.20,-2.13,2.04
44,-7.75,-9.77,-7.85,-9.88,6.00,5.62,-1.75,-1.85,2.02
45,-7.52,-9.53,-7.59,-9.59,6.00,5.57,-1.52,-1.59,2.01
46,-7.29,-9.28,-7.33,-9.32,6.00,5.56,-1.29,-1.33,1.99
47,-7.06,-9.04,-7.07,-9.05,6.00,5.56,-1.06,-1.07,1.98
48,-6.79,-8.75,-6.82,-8.78,6.00,5.57,-0.79,-0.82,1.96
49,-6.61,-8.55,-6.58,-8.52,6.00,5.61,-0.61,-0.58,1.94
50,-6.38,-8.30,-6.34,-8.26,6.00,5.65,-0.38,-0.34,1.92
51,-6.11,-8.01,-6.10,-8.00,6.00,5.71,-0.11,-0.10,1.90
52,-5.92,-7.80,-5.86,-7.74,6.00,5.77,0.08,0.14,1.88
53,-5.70,-7.55,-5.62,-7.47,6.00,5.84,0.30,0.38,1.85
54,-5.47,-7.30,-5.38,-7.21,6.00,5.90,0.53,0.62,1.83
55,-5.24,-7.04,-5.14,-6.95,6.00,5.96,0.76,0.86,1.80
56,-5.01,-6.79,-4.91,-6.69,6.00,6.02,0.99,1.09,1.78
57,-4.56,-6.31,-4.67,-6.43,5.96,6.06,1.40,1.29,1.75
58,-4.33,-6.05,-4.45,-6.17,5.88,6.09,1.55,1.43,1.73
59,-4.10,-5.80,-4.23,-5.93,5.76,6.11,1.66,1.53,1.70
60,-4.10,-5.77,-4.02,-5.69,5.61,6.11,1.51,1.59,1.67
61,-3.87,-5.51,-3.83,-5.47,5.44,6.09,1.57,1.62,1.64
62,-3.64,-5.25,-3.64,-5.26,5.26,6.05,1.62,1.61,1.61
63,-3.42,-5.00,-3.48,-5.06,5.06,5.99,1.65,1.59,1.58
64,-3.32,-4.87,-3.33,-4.88,4.88,5.92,1.57,1.56,1.56
65,-3.19,-4.71,-3.20,-4.72,4.72,5.83,1.54,1.53,1.53
66,-3.19,-4.68,-3.08,-4.58,4.58,5.72,1.39,1.50,1.50
67,-2.96,-4.42,-2.99,-4.46,4.46,5.60,1.50,1.47,1.47
68,-2.96,-4.40,-2.92,-4.36,4.36,5.47,1.40,1.44,1.44
69,-2.93,-4.34,-2.87,-4.28,4.28,5.34,1.35,1.41,1.41
70,-2.73,-4.11,-2.84,-4.22,4.22,5.19,1.49,1.38,1.38
71,-2.73,-4.08,-2.83,-4.18,4.18,5.04,1.45,1.35,1.35
72,-2.73,-4.05,-2.85,-4.17,4.17,4.89,1.44,1.32,1.32
73,-2.73,-4.02,-2.88,-4.17,4.17,4.73,1.44,1.29,1.29
74,-2.96,-4.22,-2.92,-4.18,4.18,4.58,1.22,1.26,1.26
75,-2.96,-4.19,-2.98,-4.21,4.21,4.42,1.25,1.23,1.23
76,-3.02,-4.22,-3.05,-4.25,4.25,4.27,1.23,1.20,1.20
77,-3.19,-4.36,-3.12,-4.29,4.29,4.12,1.10,1.17,1.17
78,-3.25,-4.39,-3.19,-4.33,4.33,3.97,1.08,1.14,1.14
79,-3.42,-4.53,-3.26,-4.37,4.37,3.83,0.96,1.11,1.11
80,-3.42,-4.50,-3.33,-4.41,4.41,3.69,0.99,1.08,1.08
81,-3.42,-4.47,-3.39,-4.44,4.44,3.55,1.02,1.05,1.06
82,-3.42,-4.44,-3.44,-4.46,4.46,3.42,1.04,1.03,1.03
83,-3.42,-4.42,-3.47,-4.47,4.47,3.29,1.05,1.00,1.00
84,-3.42,-4.39,-3.50,-4.46,4.46,3.16,1.05,0.97,0.97
85,-3.42,-4.36,-3.50,-4.44,4.44,3.04,1.02,0.94,0.94
86,-3.42,-4.33,-3.49,-4.40,4.40,2.93,0.99,0.91,0.91
87,-3.42,-4.30,-3.46,-4.34,4.34,2.82,0.93,0.89,0.89
88,-3.42,-4.28,-3.40,-4.26,4.26,2.71,0.85,0.86,0.86
89,-3.42,-4.25,-3.33,-4.16,4.16,2.60,0.74,0.83,0.83
90,-3.42,-4.23,-3.22,-4.03,4.03,2.50,0.61,0.81,0.81
91,-3.40,-4.18,-3.10,-3.88,3.88,2.41,0.48,0.78,0.78
92,-3.11,-3.87,-2.95,-3.71,3.71,2.31,0.60,0.76,0.76
93,-2.83,-3.56,-2.78,-3.52,3.52,2.22,0.69,0.74,0.73
94,-2.54,-3.25,-2.60,-3.31,3.31,2.13,0.77,0.71,0.71
95,-2.27,-2.96,-2.40,-3.09,3.09,2.05,0.83,0.69,0.69
96,-2.05,-2.71,-2.20,-2.87,2.87,1.97,0.82,0.67,0.67
97,-1.94,-2.58,-2.00,-2.64,2.64,1.89,0.71,0.65,0.65
98,-1.82,-2.44,-1.80,-2.42,2.42,1.82,0.60,0.62,0.63
99,-1.64,-2.25,-1.60,-2.21,2.21,1.74,0.57,0.60,0.61
100,-1.37,-1.96,-1.42,-2.00,2.00,1.67,0.63,0.58,0.59
101,-1.14,-1.71,-1.25,-1.81,1.81,1.60,0.67,0.56,0.57
102,-1.14,-1.69,-1.10,-1.64,1.64,1.54,0.50,0.54,0.55
104,-0.91,-1.41,-0.96,-1.47,1.47,1.41,0.57,0.52,0.50
105,-0.77,-1.25,-0.83,-1.33,1.33,1.35,0.56,0.50,0.48
106,-0.68,-1.15,-0.72,-1.20,1.20,1.29,0.52,0.48,0.47
107,-0.68,-1.13,-0.62,-1.08,1.08,1.24,0.40,0.46,0.45
108,-0.48,-0.91,-0.54,-0.98,0.98,1.18,0.50,0.44,0.44
109,-0.45,-0.87,-0.46,-0.88,0.88,1.13,0.43,0.42,0.42
110,-0.45,-0.85,-0.39,-0.79,0.79,1.08,0.35,0.40,0.40
111,-0.45,-0.84,-0.33,-0.71,0.71,1.03,0.27,0.38,0.39
112,-0.23,-0.60,-0.28,-0.64,0.64,0.98,0.41,0.36,0.37
113,-0.23,-0.58,-0.23,-0.57,0.57,0.94,0.34,0.35,0.35
114,-0.23,-0.56,-0.18,-0.51,0.51,0.89,0.28,0.32,0.34
115,-0.23,-0.55,-0.14,-0.45,0.45,0.85,0.22,0.30,0.32
117,0.00,-0.27,-0.11,-0.39,0.39,0.77,0.39,0.28,0.27
118,0.00,-0.25,-0.07,-0.33,0.33,0.73,0.33,0.26,0.25
119,0.00,-0.23,-0.04,-0.28,0.28,0.69,0.28,0.23,0.23
120,0.00,-0.21,-0.02,-0.22,0.22,0.66,0.23,0.21,0.21
121,0.00,-0.19,0.01,-0.17,0.17,0.62,0.18,0.18,0.19
123,0.00,-0.15,0.04,-0.12,0.12,0.56,0.13,0.16,0.15
124,0.00,-0.13,0.06,-0.07,0.07,0.52,0.08,0.13,0.13
125,0.00,-0.11,0.08,-0.02,0.02,0.49,0.03,0.11,0.11
126,0.00,-0.09,0.11,0.02,-0.02,0.47,-0.02,0.08,0.09
128,0.11,0.07,0.13,0.07,-0.07,0.41,0.04,0.06,0.05
129,0.23,0.21,0.15,0.12,-0.12,0.38,0.11,0.03,0.03
130,0.23,0.22,0.17,0.16,-0.16,0.36,0.07,0.01,0.01
131,0.23,0.24,0.19,0.21,-0.21,0.33,0.03,-0.02,-0.01
133,0.23,0.28,0.20,0.25,-0.25,0.29,-0.01,-0.04,-0.05
134,0.23,0.30,0.22,0.29,-0.29,0.27,-0.05,-0.07,-0.07
135,0.23,0.31,0.23,0.32,-0.32,0.24,-0.09,-0.09,-0.08
137,0.23,0.35,0.24,0.36,-0.36,0.20,-0.13,-0.11,-0.12
138,0.23,0.37,0.26,0.39,-0.39,0.18,-0.16,-0.14,-0.13
140,0.23,0.40,0.27,0.42,-0.42,0.14,-0.19,-0.16,-0.17
141,0.23,0.41,0.28,0.46,-0.46,0.13,-0.22,-0.18,-0.18
142,0.23,0.43,0.29,0.49,-0.49,0.11,-0.25,-0.20,-0.19
144,0.23,0.45,0.29,0.51,-0.51,0.07,-0.28,-0.22,-0.22
145,0.23,0.47,0.29,0.53,-0.53,0.06,-0.29,-0.24,-0.23
147,0.23,0.49,0.27,0.53,-0.53,0.02,-0.30,-0.26,-0.26
148,0.23,0.50,0.25,0.52,-0.52,0.01,-0.29,-0.28,-0.27
150,0.23,0.53,0.20,0.49,-0.49,-0.03,-0.26,-0.29,-0.30
151,0.23,0.54,0.14,0.45,-0.45,-0.04,-0.21,-0.31,-0.31
153,0.21,0.54,0.05,0.38,-0.38,-0.07,-0.16,-0.32,-0.33
154,0.04,0.38,-0.05,0.29,-0.29,-0.09,-0.25,-0.34,-0.34
156,0.00,0.36,-0.18,0.18,-0.18,-0.12,-0.18,-0.36,-0.36
157,-0.02,0.35,-0.31,0.06,-0.06,-0.13,-0.08,-0.37,-0.37
159,-0.23,0.16,-0.45,-0.07,0.07,-0.16,-0.16,-0.38,-0.38
160,-0.32,0.07,-0.58,-0.19,0.19,-0.18,-0.13,-0.40,-0.39
162,-0.81,-0.40,-0.71,-0.30,0.30,-0.21,-0.51,-0.41,-0.41
164,-1.27,-0.84,-0.81,-0.39,0.39,-0.24,-0.88,-0.42,-0.43
165,-1.35,-0.92,-0.89,-0.46,0.46,-0.25,-0.89,-0.43,-0.43
167,-1.32,-0.87,-0.94,-0.49,0.49,-0.28,-0.82,-0.44,-0.45
169,-1.14,-0.68,-0.95,-0.50,0.50,-0.31,-0.64,-0.46,-0.46
170,-1.08,-0.61,-0.93,-0.47,0.47,-0.33,-0.61,-0.47,-0.46
172,-0.91,-0.43,-0.88,-0.40,0.40,-0.36,-0.50,-0.48,-0.48
174,-0.69,-0.20,-0.80,-0.32,0.32,-0.39,-0.37,-0.48,-0.49
175,-0.68,-0.19,-0.71,-0.22,0.22,-0.41,-0.46,-0.49,-0.49
177,-0.47,0.03,-0.61,-0.11,0.11,-0.44,-0.36,-0.50,-0.50
179,-0.23,0.28,-0.50,0.01,-0.01,-0.47,-0.24,-0.51,-0.51
181,-0.23,0.29,-0.40,0.12,-0.12,-0.50,-0.35,-0.51,-0.52
183,-0.23,0.30,-0.30,0.22,-0.22,-0.53,-0.45,-0.52,-0.52
184,-0.23,0.30,-0.22,0.31,-0.31,-0.55,-0.54,-0.53,-0.52
186,-0.23,0.30,-0.15,0.38,-0.38,-0.58,-0.61,-0.53,-0.53
188,-0.02,0.52,-0.09,0.44,-0.44,-0.61,-0.46,-0.54,-0.53
190,0.00,0.54,-0.05,0.49,-0.49,-0.64,-0.49,-0.54,-0.54
192,0.00,0.55,-0.02,0.53,-0.53,-0.67,-0.52,-0.54,-0.54
194,0.00,0.55,0.01,0.55,-0.55,-0.71,-0.55,-0.55,-0.55
196,0.00,0.55,0.03,0.58,-0.58,-0.74,-0.58,-0.55,-0.55
198,0.00,0.55,0.05,0.60,-0.60,-0.77,-0.60,-0.55,-0.55
200,0.00,0.55,0.07,0.63,-0.63,-0.80,-0.62,-0.55,-0.55
202,0.00,0.56,0.10,0.65,-0.65,-0.83,-0.65,-0.55,-0.55
204,0.08,0.64,0.13,0.68,-0.68,-0.87,-0.60,-0.55,-0.55
206,0.23,0.79,0.16,0.71,-0.71,-0.90,-0.48,-0.55,-0.55
208,0.23,0.79,0.19,0.74,-0.74,-0.93,-0.51,-0.55,-0.55
210,0.23,0.79,0.22,0.78,-0.78,-0.96,-0.55,-0.55,-0.55
212,0.23,0.78,0.26,0.81,-0.81,-0.99,-0.58,-0.55,-0.55
214,0.23,0.78,0.30,0.85,-0.85,-1.02,-0.62,-0.55,-0.55
216,0.23,0.78,0.33,0.88,-0.88,-1.05,-0.65,-0.55,-0.55
218,0.46,1.01,0.36,0.91,-0.91,-1.08,-0.45,-0.55,-0.55
221,0.46,1.01,0.39,0.94,-0.94,-1.12,-0.48,-0.55,-0.55
223,0.46,1.01,0.42,0.96,-0.96,-1.14,-0.50,-0.55,-0.55
225,0.46,1.01,0.44,0.98,-0.98,-1.17,-0.52,-0.55,-0.55
227,0.46,1.01,0.45,1.00,-1.00,-1.19,-0.53,-0.54,-0.54
229,0.46,1.00,0.46,1.01,-1.01,-1.21,-0.54,-0.54,-0.54
232,0.46,1.00,0.47,1.01,-1.01,-1.24,-0.55,-0.54,-0.54
234,0.46,1.00,0.47,1.01,-1.01,-1.26,-0.55,-0.54,-0.54
236,0.46,1.00,0.48,1.01,-1.01,-1.28,-0.55,-0.54,-0.54
239,0.46,1.00,0.48,1.01,-1.01,-1.30,-0.55,-0.53,-0.53
241,0.46,0.99,0.47,1.01,-1.01,-1.32,-0.54,-0.53,-0.53
244,0.46,0.99,0.47,1.00,-1.00,-1.34,-0.54,-0.53,-0.53
246,0.46,0.99,0.47,0.99,-0.99,-1.35,-0.53,-0.53,-0.53
248,0.46,0.98,0.46,0.99,-0.99,-1.36,-0.53,-0.52,-0.52
251,0.46,0.98,0.46,0.98,-0.98,-1.37,-0.52,-0.52,-0.52
253,0.46,0.98,0.46,0.97,-0.97,-1.38,-0.51,-0.52,-0.52
256,0.46,0.97,0.45,0.96,-0.96,-1.39,-0.50,-0.51,-0.51
259,0.46,0.97,0.44,0.95,-0.95,-1.39,-0.49,-0.51,-0.51
261,0.46,0.96,0.44,0.94,-0.94,-1.39,-0.48,-0.50,-0.50
264,0.46,0.96,0.44,0.93,-0.93,-1.39,-0.47,-0.50,-0.50
266,0.46,0.95,0.43,0.93,-0.93,-1.39,-0.46,-0.49,-0.49
269,0.46,0.95,0.44,0.92,-0.92,-1.39,-0.46,-0.49,-0.49
272,0.46,0.94,0.45,0.93,-0.93,-1.39,-0.47,-0.48,-0.48
274,0.46,0.93,0.47,0.94,-0.94,-1.38,-0.48,-0.47,-0.47
277,0.46,0.92,0.49,0.96,-0.96,-1.38,-0.49,-0.46,-0.46
280,0.46,0.92,0.53,0.98,-0.98,-1.37,-0.52,-0.45,-0.45
283,0.46,0.91,0.57,1.02,-1.02,-1.36,-0.56,-0.44,-0.44
286,0.54,0.98,0.63,1.06,-1.06,-1.35,-0.52,-0.43,-0.43
288,0.69,1.11,0.69,1.11,-1.11,-1.35,-0.42,-0.42,-0.42
291,0.69,1.10,0.75,1.16,-1.16,-1.34,-0.47,-0.41,-0.41
294,0.81,1.21,0.82,1.21,-1.21,-1.33,-0.40,-0.39,-0.39
297,0.91,1.29,0.89,1.27,-1.27,-1.32,-0.36,-0.38,-0.38
300,1.11,1.48,0.97,1.33,-1.33,-1.31,-0.22,-0.36,-0.36
303,1.15,1.50,1.04,1.39,-1.39,-1.30,-0.24,-0.35,-0.35
306,1.37,1.70,1.13,1.46,-1.46,-1.29,-0.09,-0.33,-0.33
309,1.37,1.69,1.22,1.53,-1.53,-1.28,-0.16,-0.31,-0.31
312,1.37,1.67,1.32,1.61,-1.61,-1.28,-0.24,-0.30,-0.30
316,1.37,1.65,1.43,1.71,-1.71,-1.27,-0.34,-0.28,-0.28
319,1.37,1.63,1.56,1.82,-1.82,-1.26,-0.44,-0.26,-0.26
322,1.37,1.61,1.70,1.94,-1.94,-1.25,-0.56,-0.24,-0.24
325,1.37,1.59,1.85,2.06,-2.06,-1.25,-0.69,-0.22,-0.22
328,1.46,1.66,2.00,2.20,-2.20,-1.25,-0.74,-0.20,-0.20
332,2.03,2.21,2.15,2.33,-2.33,-1.24,-0.30,-0.18,-0.18
335,2.45,2.61,2.30,2.46,-2.46,-1.24,-0.00,-0.16,-0.16
338,2.85,2.99,2.43,2.56,-2.56,-1.24,0.29,-0.14,-0.14
342,3.19,3.31,2.54,2.65,-2.65,-1.24,0.54,-0.12,-0.12
345,2.96,3.06,2.61,2.71,-2.71,-1.24,0.25,-0.10,-0.10
349,2.88,2.96,2.66,2.74,-2.74,-1.24,0.14,-0.08,-0.08
352,2.74,2.80,2.68,2.74,-2.74,-1.24,0.00,-0.06,-0.06
356,2.59,2.63,2.67,2.71,-2.71,-1.25,-0.11,-0.04,-0.04
359,2.51,2.53,2.63,2.65,-2.65,-1.25,-0.14,-0.02,-0.02
363,2.51,2.52,2.57,2.57,-2.57,-1.26,-0.06,-0.00,-0.00
366,2.32,2.31,2.49,2.48,-2.48,-1.26,-0.16,0.01,0.01
370,2.28,2.25,2.42,2.39,-2.39,-1.27,-0.10,0.03,0.03
374,2.28,2.24,2.34,2.29,-2.29,-1.28,-0.01,0.04,0.04
377,2.28,2.22,2.26,2.20,-2.20,-1.29,0.08,0.06,0.06
381,2.17,2.10,2.20,2.12,-2.12,-1.30,0.05,0.07,0.07
385,2.05,1.97,2.14,2.06,-2.06,-1.31,-0.00,0.09,0.09
389,2.05,1.95,2.10,2.00,-2.00,-1.32,0.05,0.10,0.10
393,2.05,1.94,2.07,1.96,-1.96,-1.33,0.09,0.11,0.11
397,2.05,1.93,2.05,1.93,-1.93,-1.35,0.12,0.12,0.12
401,2.05,1.92,2.04,1.91,-1.91,-1.36,0.15,0.13,0.13
405,2.05,1.91,2.03,1.89,-1.89,-1.38,0.16,0.14,0.14
409,2.05,1.90,2.04,1.88,-1.88,-1.39,0.17,0.15,0.15
413,2.05,1.89,2.04,1.88,-1.88,-1.40,0.17,0.16,0.16
417,2.05,1.88,2.04,1.88,-1.88,-1.42,0.18,0.17,0.17
421,2.05,1.87,2.05,1.87,-1.87,-1.43,0.18,0.18,0.18
425,2.05,1.87,2.06,1.87,-1.87,-1.44,0.18,0.19,0.19
430,2.05,1.86,2.06,1.86,-1.86,-1.46,0.19,0.20,0.20
434,2.05,1.85,2.06,1.85,-1.85,-1.47,0.20,0.20,0.20
438,2.05,1.84,2.06,1.84,-1.84,-1.48,0.21,0.21,0.21
443,2.05,1.83,2.05,1.83,-1.83,-1.49,0.22,0.22,0.22
447,2.05,1.82,2.04,1.81,-1.81,-1.49,0.25,0.23,0.23
451,2.05,1.81,2.02,1.78,-1.78,-1.50,0.27,0.24,0.24
456,2.05,1.80,2.00,1.75,-1.75,-1.51,0.30,0.25,0.25
460,2.05,1.79,1.98,1.72,-1.72,-1.51,0.34,0.26,0.26
465,1.94,1.67,1.95,1.68,-1.68,-1.51,0.26,0.27,0.27
470,1.83,1.55,1.92,1.63,-1.63,-1.51,0.20,0.28,0.28
474,1.83,1.54,1.88,1.59,-1.59,-1.50,0.24,0.29,0.29
479,1.83,1.52,1.84,1.54,-1.54,-1.49,0.29,0.31,0.31
484,1.83,1.51,1.81,1.49,-1.49,-1.48,0.35,0.32,0.32
489,1.83,1.50,1.77,1.43,-1.43,-1.47,0.40,0.34,0.34
494,1.71,1.36,1.73,1.37,-1.37,-1.45,0.34,0.35,0.35
499,1.60,1.24,1.68,1.32,-1.32,-1.43,0.29,0.37,0.37
504,1.60,1.22,1.64,1.26,-1.26,-1.41,0.35,0.38,0.38
509,1.60,1.20,1.59,1.19,-1.19,-1.38,0.41,0.40,0.40
514,1.60,1.18,1.55,1.13,-1.13,-1.35,0.48,0.42,0.42
519,1.55,1.11,1.50,1.06,-1.06,-1.32,0.49,0.44,0.44
524,1.37,0.91,1.45,0.99,-0.99,-1.29,0.39,0.46,0.46
529,1.37,0.89,1.39,0.91,-0.91,-1.25,0.46,0.48,0.48
535,1.37,0.87,1.33,0.83,-0.83,-1.20,0.54,0.50,0.50
540,1.37,0.85,1.27,0.75,-0.75,-1.16,0.63,0.53,0.53
545,1.18,0.63,1.21,0.66,-0.66,-1.11,0.52,0.55,0.55
551,1.14,0.57,1.14,0.57,-0.57,-1.06,0.57,0.57,0.57
556,1.11,0.51,1.08,0.48,-0.48,-1.01,0.63,0.60,0.60
562,0.91,0.29,1.01,0.38,-0.38,-0.95,0.53,0.62,0.62
568,0.91,0.27,0.93,0.29,-0.29,-0.89,0.62,0.65,0.65
573,0.91,0.24,0.86,0.19,-0.19,-0.83,0.72,0.67,0.67
579,0.72,0.03,0.79,0.09,-0.09,-0.77,0.63,0.70,0.70
585,0.69,-0.03,0.72,-0.00,0.00,-0.70,0.69,0.72,0.72
591,0.69,-0.05,0.64,-0.10,0.10,-0.64,0.79,0.74,0.75
596,0.65,-0.12,0.57,-0.20,0.20,-0.58,0.85,0.77,0.77
602,0.46,-0.33,0.50,-0.30,0.30,-0.51,0.76,0.79,0.79
608,0.46,-0.35,0.42,-0.39,0.39,-0.44,0.86,0.82,0.82
615,0.28,-0.56,0.34,-0.49,0.49,-0.36,0.77,0.84,0.84
621,0.23,-0.63,0.27,-0.59,0.59,-0.29,0.82,0.86,0.86
627,0.23,-0.65,0.19,-0.69,0.69,-0.22,0.92,0.88,0.88
633,0.20,-0.70,0.12,-0.79,0.79,-0.15,0.99,0.90,0.90
639,0.00,-0.92,0.04,-0.88,0.88,-0.08,0.89,0.92,0.92
646,0.00,-0.94,-0.04,-0.98,0.98,0.00,0.98,0.94,0.94
652,-0.12,-1.08,-0.11,-1.07,1.07,0.07,0.95,0.96,0.96
659,-0.23,-1.21,-0.17,-1.16,1.16,0.15,0.93,0.98,0.98
665,-0.23,-1.23,-0.24,-1.24,1.24,0.22,1.01,1.00,1.00
672,-0.23,-1.25,-0.29,-1.32,1.32,0.31,1.09,1.02,1.02
679,-0.28,-1.32,-0.34,-1.38,1.38,0.39,1.10,1.04,1.04
686,-0.45,-1.51,-0.38,-1.44,1.44,0.47,0.99,1.06,1.06
692,-0.45,-1.53,-0.40,-1.48,1.48,0.54,1.03,1.08,1.08
699,-0.45,-1.55,-0.41,-1.52,1.52,0.62,1.07,1.10,1.10
706,-0.45,-1.57,-0.41,-1.54,1.54,0.70,1.09,1.12,1.12
713,-0.45,-1.59,-0.40,-1.54,1.54,0.79,1.10,1.14,1.14
721,-0.45,-1.61,-0.38,-1.54,1.54,0.88,1.09,1.16,1.16
728,-0.45,-1.63,-0.35,-1.53,1.53,0.96,1.08,1.18,1.18
735,-0.36,-1.56,-0.31,-1.51,1.51,1.04,1.15,1.20,1.20
742,-0.23,-1.45,-0.27,-1.49,1.49,1.12,1.26,1.22,1.22
750,-0.23,-1.47,-0.23,-1.47,1.47,1.21,1.24,1.24,1.24
757,-0.23,-1.49,-0.19,-1.46,1.46,1.29,1.23,1.26,1.26
765,0.00,-1.28,-0.16,-1.44,1.44,1.38,1.45,1.28,1.28
773,0.00,-1.30,-0.14,-1.44,1.44,1.47,1.44,1.30,1.30
780,0.00,-1.32,-0.13,-1.44,1.44,1.55,1.45,1.32,1.32
788,0.00,-1.33,-0.12,-1.46,1.46,1.64,1.46,1.33,1.34
796,-0.13,-1.48,-0.12,-1.48,1.48,1.73,1.35,1.35,1.35
804,-0.23,-1.60,-0.13,-1.50,1.50,1.81,1.27,1.37,1.37
812,-0.23,-1.61,-0.15,-1.53,1.53,1.90,1.30,1.38,1.38
820,-0.23,-1.62,-0.16,-1.56,1.56,1.98,1.33,1.39,1.40
828,-0.23,-1.64,-0.18,-1.59,1.59,2.06,1.36,1.41,1.41
837,-0.23,-1.65,-0.20,-1.62,1.62,2.15,1.39,1.42,1.42
845,-0.23,-1.66,-0.21,-1.64,1.64,2.22,1.41,1.43,1.43
853,-0.23,-1.67,-0.23,-1.66,1.66,2.30,1.43,1.44,1.44
862,-0.23,-1.67,-0.23,-1.68,1.68,2.37,1.45,1.45,1.45
871,-0.23,-1.68,-0.24,-1.69,1.69,2.45,1.47,1.45,1.45
879,-0.23,-1.69,-0.25,-1.70,1.70,2.51,1.48,1.46,1.46
888,-0.23,-1.69,-0.25,-1.71,1.71,2.57,1.49,1.47,1.47
897,-0.23,-1.70,-0.25,-1.72,1.72,2.63,1.49,1.47,1.47
906,-0.23,-1.71,-0.25,-1.72,1.72,2.69,1.50,1.48,1.48
915,-0.23,-1.71,-0.24,-1.73,1.73,2.74,1.50,1.48,1.48
924,-0.23,-1.72,-0.24,-1.73,1.73,2.78,1.50,1.49,1.49
933,-0.23,-1.72,-0.23,-1.73,1.73,2.81,1.50,1.50,1.50
943,-0.23,-1.73,-0.22,-1.72,1.72,2.84,1.49,1.50,1.50
952,-0.23,-1.74,-0.20,-1.71,1.71,2.86,1.49,1.51,1.51
962,-0.23,-1.75,-0.18,-1.70,1.70,2.88,1.47,1.52,1.52
971,-0.23,-1.75,-0.16,-1.69,1.69,2.88,1.46,1.53,1.53
981,-0.23,-1.76,-0.13,-1.67,1.67,2.88,1.44,1.54,1.54
991,-0.02,-1.57,-0.10,-1.65,1.65,2.86,1.63,1.55,1.55
1001,0.00,-1.56,-0.06,-1.62,1.62,2.84,1.62,1.56,1.56
1011,0.00,-1.57,-0.02,-1.60,1.60,2.81,1.60,1.57,1.57
1021,0.00,-1.59,0.01,-1.58,1.58,2.77,1.58,1.59,1.59
1031,0.00,-1.60,0.05,-1.56,1.56,2.73,1.56,1.61,1.60
1041,0.00,-1.62,0.08,-1.54,1.54,2.67,1.54,1.62,1.62
1052,0.19,-1.45,0.12,-1.53,1.53,2.60,1.72,1.64,1.64
1062,0.23,-1.43,0.14,-1.52,1.52,2.53,1.75,1.66,1.66
1073,0.23,-1.45,0.17,-1.51,1.51,2.45,1.74,1.68,1.68
1084,0.23,-1.47,0.19,-1.51,1.51,2.36,1.74,1.70,1.70
1094,0.23,-1.49,0.21,-1.51,1.51,2.27,1.74,1.72,1.72
1105,0.23,-1.51,0.23,-1.52,1.52,2.17,1.75,1.75,1.75
1116,0.23,-1.54,0.25,-1.52,1.52,2.06,1.75,1.77,1.77
1128,0.23,-1.56,0.27,-1.52,1.52,1.94,1.75,1.79,1.79
1139,0.23,-1.58,0.30,-1.52,1.52,1.83,1.75,1.81,1.81
1150,0.23,-1.61,0.33,-1.51,1.51,1.71,1.74,1.84,1.84
1162,0.30,-1.56,0.36,-1.50,1.50,1.57,1.80,1.86,1.86
1173,0.46,-1.42,0.39,-1.49,1.49,1.45,1.95,1.88,1.88
1185,0.46,-1.44,0.43,-1.47,1.47,1.31,1.93,1.90,1.90
1197,0.46,-1.46,0.47,-1.44,1.44,1.17,1.91,1.92,1.92
1209,0.46,-1.47,0.52,-1.41,1.41,1.03,1.88,1.93,1.93
1221,0.69,-1.26,0.57,-1.38,1.38,0.89,2.07,1.95,1.95
1233,0.69,-1.27,0.62,-1.34,1.34,0.75,2.03,1.96,1.96
1246,0.69,-1.28,0.67,-1.30,1.30,0.59,1.99,1.97,1.97
1258,0.69,-1.29,0.73,-1.25,1.25,0.45,1.94,1.97,1.98
1271,0.69,-1.29,0.78,-1.19,1.19,0.29,1.89,1.98,1.98
1283,0.85,-1.13,0.85,-1.13,1.13,0.15,1.99,1.98,1.98
1296,0.91,-1.07,0.91,-1.07,1.07,-0.00,1.98,1.98,1.98
1309,0.93,-1.05,0.98,-0.99,0.99,-0.16,1.93,1.98,1.98
1322,1.14,-0.83,1.06,-0.91,0.91,-0.31,2.05,1.97,1.98
1335,1.14,-0.83,1.14,-0.82,0.82,-0.47,1.96,1.96,1.97
1349,1.14,-0.82,1.23,-0.72,0.72,-0.63,1.87,1.96,1.96
1362,1.29,-0.66,1.33,-0.62,0.62,-0.79,1.91,1.94,1.95
1376,1.56,-0.37,1.43,-0.51,0.51,-0.95,2.07,1.93,1.93
1390,1.60,-0.32,1.53,-0.39,0.39,-1.11,1.99,1.92,1.92
1404,1.60,-0.31,1.65,-0.26,0.26,-1.28,1.86,1.91,1.91
1418,1.67,-0.22,1.77,-0.13,0.13,-1.44,1.80,1.89,1.89
1432,1.83,-0.05,1.89,0.01,-0.01,-1.60,1.82,1.88,1.88
1446,1.95,0.08,2.02,0.15,-0.15,-1.76,1.80,1.87,1.87
1461,2.22,0.37,2.15,0.29,-0.29,-1.94,1.93,1.86,1.86
1475,2.28,0.43,2.28,0.43,-0.43,-2.10,1.85,1.85,1.85
1490,2.51,0.67,2.42,0.57,-0.57,-2.27,1.94,1.84,1.84
1505,2.55,0.72,2.55,0.72,-0.72,-2.44,1.84,1.84,1.84
1520,2.74,0.91,2.70,0.86,-0.86,-2.61,1.88,1.84,1.84
1535,2.84,1.00,2.84,1.00,-1.00,-2.78,1.84,1.84,1.84
1550,3.10,1.26,3.00,1.15,-1.15,-2.95,1.95,1.85,1.84
1566,3.19,1.34,3.16,1.30,-1.30,-3.12,1.89,1.86,1.86
1582,3.41,1.54,3.33,1.46,-1.46,-3.30,1.95,1.87,1.87
1597,3.43,1.54,3.52,1.62,-1.62,-3.46,1.81,1.90,1.89
1613,3.65,1.73,3.72,1.80,-1.80,-3.64,1.86,1.92,1.92
1629,3.72,1.77,3.93,1.98,-1.98,-3.81,1.75,1.95,1.95
1646,3.94,1.95,4.16,2.17,-2.17,-3.99,1.78,1.99,1.99
1662,4.28,2.25,4.40,2.36,-2.36,-4.15,1.92,2.04,2.03
1679,4.63,2.55,4.64,2.56,-2.56,-4.33,2.07,2.08,2.08
1696,5.01,2.88,4.90,2.76,-2.76,-4.50,2.25,2.14,2.14
1713,5.27,3.08,5.16,2.96,-2.96,-4.66,2.32,2.20,2.20
1730,5.53,3.27,5.42,3.15,-3.15,-4.82,2.38,2.26,2.26
1747,5.79,3.46,5.67,3.34,-3.34,-4.97,2.45,2.33,2.33
1764,6.05,3.65,5.93,3.52,-3.52,-5.12,2.53,2.41,2.41
1782,6.31,3.83,6.19,3.70,-3.70,-5.26,2.61,2.49,2.49
1800,6.38,3.81,6.44,3.87,-3.87,-5.40,2.51,2.57,2.57
1818,6.61,3.95,6.70,4.04,-4.04,-5.53,2.57,2.66,2.66
1836,6.87,4.12,6.95,4.20,-4.20,-5.65,2.67,2.75,2.75
1854,7.13,4.29,7.21,4.37,-4.37,-5.75,2.76,2.84,2.84
