frequency,raw
10.0,-22.39224137931035
10.052397683113586,-22.39224137931035
10.10506991794674,-22.04022988505747
10.158018143086858,-21.989942528735632
10.21124380465921,-21.989942528735632
10.26474835636642,-21.939655172413794
10.318533259528179,-21.889367816091955
10.372599983121153,-21.839080459770116
10.42695000381911,-21.63793103448276
10.481584806033242,-21.537356321839084
10.536505881952712,-21.38649425287356
10.59171473158541,-21.235632183908045
10.647212862798922,-21.135057471264368
10.703001791361704,-21.03448275862069
10.759083040984494,-20.933908045977013
10.81545814336192,-20.783045977011497
10.872128638214331,-20.581896551724135
10.92909607332986,-20.43103448275862
10.986362004606688,-20.330459770114942
11.04392799609554,-20.229885057471265
11.101795620042408,-20.129310344827587
11.159966456931485,-20.02873563218391
11.218442095528339,-19.877873563218394
11.2772241329233,-19.727011494252878
11.336314174575078,-19.626436781609193
11.395713834354622,-19.525862068965516
11.455424734589183,-19.42528735632184
11.515448506106637,-19.274425287356323
11.575786788280015,-19.073275862068968
11.636441229072286,-18.922413793103452
11.697413485081364,-18.620689655172413
11.758705221585352,-18.520114942528735
11.820318112588021,-18.419540229885058
11.882253840864538,-18.268678160919542
11.944514098007417,-18.117816091954026
12.007100584472731,-18.01724137931035
12.070015009626546,-17.866379310344826
12.13325909179161,-17.71551724137931
12.196834558294283,-17.614942528735632
12.260743145511716,-17.514367816091955
12.324986598919274,-17.413793103448278
12.38956667313821,-17.26293103448276
12.454485131983583,-17.112068965517246
12.519743748512436,-17.01149425287356
12.585344305072221,-16.910919540229884
12.651288593349475,-16.810344827586206
12.71757841441876,-16.60919540229885
12.78421557879185,-16.458333333333336
12.85120190646718,-16.25718390804598
12.918539226979558,-16.106321839080458
12.986229379450128,-16.00574712643678
13.054274212636605,-15.905172413793103
13.122675584983762,-15.804597701149426
13.191435364674199,-15.704022988505749
13.260555429679354,-15.553160919540232
13.330037667810801,-15.402298850574716
13.399883976771811,-15.301724137931032
13.47009626420918,-15.201149425287355
13.540676447765334,-15.100574712643677
13.611626455130693,-14.949712643678161
13.682948224096336,-14.748563218390807
13.754643702606915,-14.59770114942529
13.826714848813861,-14.497126436781613
13.899163631128866,-14.396551724137929
13.971992028277642,-14.295977011494251
14.045202029353964,-14.145114942528735
14.118795633874003,-13.94396551724138
14.192774851830922,-13.793103448275865
14.267141703749791,-13.692528735632187
14.341898220742761,-13.591954022988503
14.417046444564539,-13.491379310344826
14.492588427668153,-13.34051724137931
14.568526233261009,-13.189655172413794
14.644861935361245,-13.089080459770116
14.721597618854371,-12.9382183908046
14.798735379550216,-12.787356321839084
14.876277324240164,-12.6867816091954
14.954225570754698,-12.586206896551722
15.032582248021246,-12.485632183908045
15.111349496122319,-12.334770114942529
15.190529466353965,-12.133620689655174
15.270124321284525,-11.982758620689655
15.350136234813696,-11.882183908045977
15.430567392231909,-11.7816091954023
15.511419990280007,-11.681034482758623
15.59269623720925,-11.530172413793103
15.674398352841617,-11.379310344827587
15.756528568630447,-11.27873563218391
15.839089127721373,-11.178160919540229
15.922082285013591,-11.077586206896552
16.00551030722145,-10.977011494252874
16.08937547293635,-10.876436781609197
16.17368007268899,-10.725574712643677
16.258426409011918,-10.574712643678161
16.343616796502413,-10.423850574712645
16.429253561885712,-10.272988505747126
16.515339044078555,-10.172413793103448
16.60187559425306,-10.021551724137932
16.68886557590094,-9.870689655172413
16.77631136489807,-9.719827586206897
16.86421534956935,-9.56896551724138
16.95257993075395,-9.468390804597703
17.041407521870887,-9.367816091954023
17.130700548984933,-9.267241379310345
17.220461450872875,-9.166666666666668
17.31069267909013,-9.06609195402299
17.401396698037694,-8.915229885057471
17.49257598502945,-8.764367816091955
17.58423303035984,-8.663793103448278
17.676370337371864,-8.563218390804597
17.768990422525462,-8.512931034482758
17.862095815466244,-8.362068965517242
17.955689059094574,-8.261494252873565
18.049772709635025,-8.110632183908045
18.144349336706195,-8.060344827586206
18.239421523390888,-7.959770114942529
18.334991866306662,-7.90948275862069
18.431062975676753,-7.758620689655174
18.527637475401356,-7.607758620689655
18.624718003129303,-7.456896551724139
18.72230721033009,-7.3563218390804614
18.820407762366298,-7.2557471264367805
18.91902233856639,-7.205459770114942
19.018153632297892,-7.1048850574712645
19.117804351040956,-7.004310344827587
19.21797721646229,-6.853448275862071
19.31867496448952,-6.75287356321839
19.419900345385887,-6.652298850574713
19.52165612382538,-6.602011494252874
19.623945078968237,-6.501436781609197
19.726770004536856,-6.400862068965516
19.830133708892088,-6.25
19.934039015109942,-6.149425287356323
20.038488761058698,-6.048850574712645
20.14348579947641,-5.948275862068964
20.249032998048804,-5.797413793103448
20.355133239487632,-5.646551724137932
20.461789421609378,-5.545977011494255
20.56900445741442,-5.445402298850574
20.676781275166572,-5.344827586206897
20.78512281847308,-5.2442528735632195
20.894032046365012,-5.143678160919542
21.003511933378064,-5.093390804597703
21.11356546963382,-4.9928160919540225
21.2241956609214,-4.942528735632184
21.335405528779567,-4.791666666666668
21.44719811057925,-4.741379310344829
21.559576459606493,-4.640804597701148
21.67254364514585,-4.59051724137931
21.786102752564222,-4.439655172413794
21.90025688339511,-4.389367816091955
22.015009155423336,-4.288793103448278
22.130362702770192,-4.238505747126439
22.24632067597904,-4.137931034482758
22.362886242101354,-4.087643678160919
22.480062584783234,-3.9367816091954033
22.597852904352337,-3.8864942528735646
22.716260417905303,-3.7859195402298873
22.835288359395612,-3.735632183908045
22.954939979721907,-3.6350574712643677
23.07521854681679,-3.584770114942529
23.196127345736073,-3.4841954022988517
23.317669678748498,-3.4841954022988517
23.43984886542593,-3.3836206896551744
23.56266824273402,-3.333333333333332
23.686131165123353,-3.232758620689655
23.810241004621048,-3.182471264367816
23.935001150922872,-3.081896551724139
24.06041501148581,-3.0316091954023
24.186486011621128,-2.9310344827586228
24.313217594587936,-2.830459770114942
24.440613221687222,-2.7298850574712645
24.56867637235639,-2.629310344827587
24.697410544264287,-2.52873563218391
24.826819253406736,-2.478448275862071
24.95690603420256,-2.3778735632183903
25.087674439590128,-2.3778735632183903
25.21912804112437,-2.3275862068965516
25.351270429074347,-2.3275862068965516
25.484105212521293,-2.2270114942528743
25.617636019457187,-2.2270114942528743
25.751866496883856,-2.1767241379310356
25.886800310912562,-2.1767241379310356
26.02244114686415,-2.0761494252873582
26.15879270936968,-2.025862068965516
26.295858722471632,-1.9252873563218387
26.4336429297256,-1.875
26.572149094302542,-1.7744252873563227
26.711380999091563,-1.7744252873563227
26.851342446803226,-1.724137931034484
26.99203726007342,-1.6738505747126453
27.133469281567763,-1.6235632183908066
27.27564237408654,-1.5229885057471257
27.41856042067023,-1.472701149425287
27.562227324705525,-1.472701149425287
27.706647010031975,-1.472701149425287
27.851823421049136,-1.472701149425287
27.997760522824304,-1.4224137931034484
28.144462301200804,-1.2715517241379324
28.29193276290686,-1.2715517241379324
28.440175935665025,-1.2715517241379324
28.589195868302184,-1.2715517241379324
28.738996630860136,-1.170977011494255
28.889582314706757,-1.170977011494255
29.040957032647743,-1.1206896551724128
29.193124919038937,-1.0704022988505741
29.34609012989925,-1.0704022988505741
29.499856843024165,-1.0704022988505741
29.654429258099857,-0.9698275862068968
29.80981159681787,-0.9698275862068968
29.966008102990443,-0.9698275862068968
30.123023042666407,-0.9698275862068968
30.280860704247694,-0.9698275862068968
30.439525398606474,-0.9698275862068968
30.599021459202884,-0.9698275862068968
30.759353242203396,-0.9698275862068968
30.920525126599777,-0.9698275862068968
31.0825415143287,-0.9195402298850581
31.245406830391964,-0.7686781609195421
31.40912552297736,-0.7686781609195421
31.57370206358014,-0.7630906768837811
31.73914094712516,-0.7686781609195421
31.90544669208965,-0.7686781609195421
32.0726238406266,-0.7686781609195421
32.24067695868884,-0.7686781609195421
32.40961063615372,-0.7686781609195421
32.579429486948506,-0.7686781609195421
32.75013814917636,-0.7686781609195421
32.92174128524302,-0.7686781609195421
33.09424358198418,-0.7686781609195421
33.26764975079344,-0.7686781609195421
33.44196452775102,-0.7686781609195421
33.6171926737531,-0.7686781609195421
33.79333897464187,-0.7686781609195421
33.970408241336195,-0.6479885057471293
34.14840530996306,-0.6479885057471293
34.327335041989635,-0.6479885057471293
34.50720232435604,-0.6479885057471293
34.68801206960883,-0.6681034482758612
34.86976921603519,-0.6681034482758612
35.052478727797755,-0.6681034482758612
35.23614559507024,-0.6681034482758612
35.420774834173706,-0.6681034482758612
35.606371487713574,-0.6681034482758612
35.79294062471735,-0.6681034482758612
35.98048734077308,-0.7407407407407405
36.1690167581685,-0.808908045977013
36.35853402603095,-0.7823928944618608
36.549044320468,-0.7549634273772234
36.74055284470882,-0.7284482758620676
36.93306482924632,-0.7966155810983402
37.126585531979956,-0.8692528735632195
37.32112023835936,-0.8692528735632195
37.51667426152872,-0.8692528735632195
37.71325294247184,-0.8692528735632195
37.910861650158054,-0.8692528735632195
38.10950578168885,-0.8692528735632195
38.30919076244528,-0.8692528735632195
38.509922046236134,-0.8692528735632195
38.71170511544689,-0.8692528735632195
38.914545481189464,-0.8692528735632195
39.11844868345272,-0.8692528735632195
39.32342029125378,-0.8692528735632195
39.52946590279013,-0.9418901660280987
39.7365911455925,-1.0100574712643677
39.94480167667859,-1.0100574712643677
40.15410318270755,-0.9977650063856949
40.36450138013532,-0.9698275862068968
40.57600201537074,-0.9698275862068968
40.7886108649325,-0.9698275862068968
41.00233373560691,-0.9698275862068968
41.21717646460649,-0.9418901660280987
41.43314491972941,-0.9295977011494259
41.65024499951973,-1.0018286311389772
41.86848263342853,-1.1389759665621746
42.087863781975834,-1.211206896551726
42.3083944369134,-1.1989144316730531
42.5300806213884,-1.170977011494255
42.752928390107876,-1.170977011494255
42.976943829504144,-1.170977011494255
43.202133057901015,-1.170977011494255
43.4285022256809,-1.170977011494255
43.65605751545279,-1.170977011494255
43.884805142221104,-1.170977011494255
44.114751353555455,-1.170977011494255
44.345902429761274,-1.2212643678160937
44.578264684051334,-1.2715517241379324
44.81184446271818,-1.2715517241379324
45.04664814530746,-1.321839080459771
45.282682144792155,-1.3721264367816097
45.51995290774776,-1.3721264367816097
45.758466914528306,-1.3721264367816097
45.9982306794434,-1.3721264367816097
46.23925075093611,-1.3721264367816097
46.48153371176183,-1.3721264367816097
46.72508617916806,-1.3721264367816097
46.96991480507516,-1.3721264367816097
47.216026276258006,-1.4224137931034484
47.463427314528616,-1.472701149425287
47.71212467691975,-1.472701149425287
47.96212515586946,-1.5229885057471257
48.21343557940659,-1.5732758620689644
48.466062811337295,-1.5732758620689644
48.720013751432454,-1.5732758620689644
48.97529533561616,-1.5732758620689644
49.231914536155145,-1.5732758620689644
49.4898783618492,-1.5732758620689644
49.749193858222604,-1.5732758620689644
50.00986810771655,-1.5732758620689644
50.271908229882584,-1.5732758620689644
50.53532138157705,-1.5732758620689644
50.80011475715656,-1.6235632183908066
51.066295588674485,-1.6738505747126453
51.333871146078486,-1.6738505747126453
51.60284873740907,-1.724137931034484
51.873235708999175,-1.7744252873563227
52.14503944567482,-1.7744252873563227
52.418267370956805,-1.7744252873563227
52.692926947263466,-1.7744252873563227
52.96902567611447,-1.7744252873563227
53.24657109833571,-1.7744252873563227
53.52557079426526,-1.7744252873563227
53.806032383960435,-1.7744252873563227
54.08796352740584,-1.7744252873563227
54.37137192472266,-1.7744252873563227
54.65626531637891,-1.7744252873563227
54.94265148340087,-1.7744252873563227
55.23053824758561,-1.7744252873563227
55.51993347171459,-1.7744252873563227
55.81084505976841,-1.7744252873563227
56.10328095714273,-1.7744252873563227
56.39724915086521,-1.7744252873563227
56.6927576698137,-1.7744252873563227
56.98981458493552,-1.8582375478927204
57.288428009467864,-1.9353448275862064
57.58860609915942,-1.9353448275862064
57.8903570524931,-1.8521421107628022
58.193689110909986,-1.8146551724137936
58.49861055903438,-1.8146551724137936
58.80512972490011,-1.8146551724137936
59.11325498017797,-1.9755747126436773
59.42299474040436,-1.9755747126436773
59.73435746521116,-1.9755747126436773
60.047351658556735,-1.9755747126436773
60.36198586895824,-1.9755747126436773
60.67826868972508,-1.9755747126436773
60.9962087591936,-1.9755747126436773
61.31581476096303,-1.9755747126436773
61.63709542413265,-1.9755747126436773
61.9600595235402,-1.9755747126436773
62.284715880001535,-1.9755747126436773
62.611073360551536,-1.9755747126436773
62.939140878686295,-1.9755747126436773
63.268927394606564,-1.9755747126436773
63.60044191546247,-1.875
63.933693495599506,-1.875
64.26869123680586,-1.875
64.60544428856096,-1.875
64.9439618482854,-1.7744252873563227
65.28425316159212,-1.7744252873563227
65.62632752253894,-1.7744252873563227
65.97019427388238,-1.7744252873563227
66.31586280733283,-1.7744252873563227
66.6633425638111,-1.7744252873563227
67.0126430337062,-1.7744252873563227
67.3637737571346,-1.7744252873563227
67.71674432420076,-1.7744252873563227
68.07156437525907,-1.7744252873563227
68.42824360117716,-1.7744252873563227
68.78679174360053,-1.7744252873563227
69.14721859521867,-1.7744252873563227
69.50953400003249,-1.7744252873563227
69.87374785362316,-1.7744252873563227
70.23987010342243,-1.7744252873563227
70.60791074898428,-1.7744252873563227
70.97787984225803,-1.7744252873563227
71.34978748786291,-1.7744252873563227
71.72364384336399,-1.724137931034484
72.0994591195496,-1.6738505747126453
72.47724358071031,-1.6738505747126453
72.85700754491913,-1.6235632183908066
73.2387613843134,-1.5732758620689644
73.62251552537808,-1.5732758620689644
74.00828044923045,-1.5732758620689644
74.39606669190647,-1.5732758620689644
74.78588484464844,-1.5732758620689644
75.17774555419433,-1.5732758620689644
75.57165952306858,-1.5732758620689644
75.96763750987432,-1.5732758620689644
76.36569032958734,-1.601213282247766
76.76582885385133,-1.613505747126439
77.16806401127491,-1.613505747126439
77.57240678773007,-1.4041274817136902
77.97886822665224,-1.3318965517241388
78.38745942934186,-1.3318965517241388
78.79819155526762,-1.3318965517241388
79.21107582237127,-1.3721264367816097
79.62612350737395,-1.3721264367816097
80.0433459460842,-1.3721264367816097
80.4627545337076,-1.3721264367816097
80.88436072515793,-1.3721264367816097
81.30817603537011,-1.3721264367816097
81.7342120396146,-1.3721264367816097
82.16248037381364,-1.3721264367816097
82.59299273485897,-1.3721264367816097
83.02576088093134,-1.4000638569604078
83.46079663182168,-1.2715517241379324
83.89811186925384,-1.2715517241379324
84.33771853720917,-1.202978056426332
84.77962864225272,-1.1307471264367805
85.22385425386113,-1.170977011494255
85.67040750475235,-1.170977011494255
86.11930059121693,-1.170977011494255
86.57054577345114,-1.170977011494255
87.02415537589188,-1.170977011494255
87.48014178755322,-1.170977011494255
87.9385174623648,-1.170977011494255
88.39929491951195,-1.170977011494255
88.86248674377764,-1.211206896551726
89.3281055858862,-1.211206896551726
89.79616416284883,-1.211206896551726
90.26667525831087,-1.211206896551726
90.73965172290106,-1.0704022988505741
91.21510647458243,-1.0704022988505741
91.69305249900513,-1.0704022988505741
92.17350284986115,-1.0704022988505741
92.65647064924077,-1.0704022988505741
93.14196908799099,-0.9977650063856949
93.63001142607578,-0.9295977011494259
94.12061099293827,-0.9295977011494259
94.61378118786477,-0.9418901660280987
95.10953548035076,-0.9698275862068968
95.60788741046873,-0.9698275862068968
96.10885058923805,-0.9698275862068968
96.61243869899663,-0.9698275862068968
97.1186654937747,-0.9698275862068968
97.6275447996704,-0.9698275862068968
98.13909051522745,-0.9698275862068968
98.65331661181469,-0.9698275862068968
99.17023713400769,-0.9698275862068968
99.68986619997237,-0.9698275862068968
100.21221800185056,-0.9698275862068968
100.73730680614761,-0.9698275862068968
101.26514695412207,-0.9698275862068968
101.79575286217735,-0.9698275862068968
102.32913902225548,-0.9698275862068968
102.86532000223289,-0.9698275862068968
103.40431044631835,-0.9698275862068968
103.94612507545284,-0.9698275862068968
104.49077868771171,-0.9698275862068968
105.03828615870876,-0.9698275862068968
105.58866244200257,-0.9698275862068968
106.14192256950491,-0.9698275862068968
106.69808165189127,-0.9698275862068968
107.2571548790136,-0.9698275862068968
107.81915752031513,-0.9698275862068968
108.38410492524746,-0.9698275862068968
108.95201252368973,-0.9698275862068968
109.5228958263701,-0.9698275862068968
110.09677042528934,-0.9698275862068968
110.67365199414668,-0.9698275862068968
111.25355628876794,-0.9418901660280987
111.83649914753576,-0.9295977011494259
112.4224964918223,-0.9295977011494259
113.01156432642397,-0.9977650063856949
113.60371873999861,-1.0704022988505741
114.19897590550494,-1.0704022988505741
114.7973520806442,-1.0704022988505741
115.39886360830423,-1.0704022988505741
116.0035269170058,-1.0704022988505741
116.61135852135135,-1.211206896551726
117.22237502247599,-1.211206896551726
117.83659310850094,-1.211206896551726
118.4540295549893,-1.211206896551726
119.07470122540427,-1.170977011494255
119.69862507156962,-1.170977011494255
120.32581813413282,-1.170977011494255
120.95629754303033,-1.1430395913154534
121.59008051795556,-1.1307471264367805
122.22718436882907,-1.1307471264367805
122.86762649627144,-1.1989144316730531
123.51142439207844,-1.2715517241379324
124.1585956396988,-1.2715517241379324
124.80915791471448,-1.3441890166028116
125.46312898532334,-1.4123563218390807
126.12052671282453,-1.4123563218390807
126.78136905210623,-1.4000638569604078
127.4456740521361,-1.3721264367816097
128.1134598564542,-1.3721264367816097
128.78474470366854,-1.3441890166028116
129.45954692795323,-1.3318965517241388
130.13788495954915,-1.3318965517241388
130.8197773252674,-1.4000638569604078
131.50524264899533,-1.472701149425287
132.19429965220505,-1.472701149425287
132.8869671544649,-1.5453384418901663
133.58326407395342,-1.613505747126439
134.28320942797595,-1.613505747126439
134.98682233348418,-1.601213282247766
135.69412200759817,-1.5732758620689644
136.4051277681312,-1.5732758620689644
137.11985903411747,-1.5453384418901663
137.8383353263424,-1.5330459770114935
138.56057626787577,-1.5330459770114935
139.28660158460778,-1.601213282247766
140.01643110578763,-1.6738505747126453
140.75008476456526,-1.6738505747126453
141.48758259853565,-1.6738505747126453
142.2289447502862,-1.6738505747126453
142.9741914679467,-1.7464878671775246
143.72334310574254,-1.8146551724137936
144.47642012455051,-1.8146551724137936
145.23344309245766,-1.8023627075351207
145.994432685323,-1.7744252873563227
146.75940968734233,-1.7744252873563227
147.52839499161576,-1.7464878671775246
148.30140960071842,-1.7341954022988517
149.07847462727406,-1.7341954022988517
149.85961129453173,-1.8023627075351207
150.64484093694531,-1.875
151.43418500075637,-1.875
152.22766504457974,-1.875
153.02530273999244,-1.875
153.8271198721255,-1.875
154.63313834025902,-1.875
155.44338015842024,-1.875
156.25786745598478,-1.875
157.0766224782811,-1.9476372924648793
