frequency,raw
20,-13.68
21,-12.99
22,-12.29
23,-11.62
24,-11.17
25,-10.52
26,-9.94
27,-9.41
28,-8.90
29,-8.66
30,-8.00
31,-7.59
32,-7.52
33,-7.29
34,-6.84
35,-6.45
36,-5.93
37,-5.67
38,-5.19
39,-5.01
40,-4.76
41,-4.56
42,-4.33
43,-4.33
44,-4.33
45,-4.33
46,-4.04
47,-3.65
48,-3.42
49,-3.29
50,-2.96
51,-2.69
52,-2.51
53,-2.28
54,-2.05
55,-1.82
56,-1.60
57,-1.37
58,-1.14
59,-0.91
60,-0.91
61,-0.91
62,-0.91
63,-1.14
64,-1.46
65,-1.87
66,-2.05
67,-2.05
68,-1.73
69,-1.57
70,-1.37
71,-1.37
72,-1.13
73,-0.91
74,-0.68
75,-0.68
76,-0.62
77,-0.28
78,-0.23
79,-0.23
80,-0.00
81,0.00
82,0.01
83,0.23
84,0.23
85,0.46
86,0.46
87,0.46
88,0.68
89,0.68
90,0.68
91,0.70
92,0.91
93,0.91
94,1.10
95,1.14
96,1.14
97,1.14
98,1.14
99,1.33
100,1.37
101,1.40
102,1.60
104,1.60
105,1.60
106,1.76
107,1.82
108,1.82
109,1.82
110,1.82
111,1.83
112,2.05
113,2.05
114,2.05
115,2.05
117,2.28
118,2.28
119,2.28
120,2.28
121,2.28
123,2.28
124,2.28
125,2.28
126,2.28
128,2.28
129,2.37
130,2.51
131,2.51
133,2.51
134,2.51
135,2.51
137,2.51
138,2.51
140,2.51
141,2.51
142,2.51
144,2.51
145,2.51
147,2.28
148,2.22
150,2.05
151,1.92
153,1.80
154,1.63
156,1.52
157,1.37
159,1.37
160,1.37
162,1.37
164,1.60
165,1.60
167,1.87
169,2.05
170,2.05
172,2.05
174,2.05
175,2.05
177,1.84
179,1.82
181,1.71
183,1.60
184,1.60
186,1.60
188,1.60
190,1.82
192,1.90
194,2.05
196,2.05
198,2.05
200,2.05
202,2.05
204,1.98
206,1.72
208,1.46
210,1.21
212,0.96
214,0.72
216,0.68
218,0.46
221,0.59
223,0.68
225,0.83
227,0.91
229,1.07
232,1.41
234,1.64
236,1.82
239,1.82
241,1.82
244,2.05
246,2.05
248,2.05
251,1.82
253,1.82
256,1.82
259,1.62
261,1.41
264,1.34
266,1.14
269,1.08
272,0.91
274,0.91
277,0.76
280,0.68
283,0.46
286,0.46
288,0.46
291,0.46
294,0.46
297,0.46
300,0.46
303,0.46
306,0.46
309,0.46
312,0.46
316,0.46
319,0.23
322,0.23
325,0.23
328,0.18
332,-0.00
335,-0.00
338,-0.15
342,-0.23
345,-0.23
349,-0.31
352,-0.46
356,-0.46
359,-0.60
363,-0.68
366,-0.88
370,-0.91
374,-0.91
377,-0.91
381,-1.02
385,-1.14
389,-1.14
393,-1.14
397,-1.14
401,-1.23
405,-1.37
409,-1.37
413,-1.37
417,-1.37
421,-1.37
425,-1.37
430,-1.37
434,-1.37
438,-1.50
443,-1.60
447,-1.60
451,-1.60
456,-1.60
460,-1.60
465,-1.71
470,-1.82
474,-1.82
479,-1.82
484,-1.82
489,-1.90
494,-2.05
499,-2.05
504,-2.05
509,-2.05
514,-2.05
519,-2.05
524,-2.05
529,-2.05
535,-2.05
540,-2.05
545,-2.05
551,-2.05
556,-2.05
562,-2.05
568,-2.05
573,-2.05
579,-1.86
585,-1.82
591,-1.82
596,-1.78
602,-1.52
608,-1.37
615,-1.19
621,-0.93
627,-0.68
633,-0.65
639,-0.41
646,-0.23
652,-0.23
659,-0.23
665,-0.23
672,-0.23
679,-0.23
686,-0.23
692,-0.33
699,-0.46
706,-0.46
713,-0.46
721,-0.46
728,-0.46
735,-0.46
742,-0.46
750,-0.46
757,-0.46
765,-0.46
773,-0.46
780,-0.46
788,-0.46
796,-0.46
804,-0.46
812,-0.25
820,-0.23
828,-0.23
837,-0.23
845,-0.11
853,0.00
862,0.00
871,-0.00
879,0.00
888,-0.00
897,-0.00
906,0.00
915,0.00
924,-0.00
933,-0.00
943,-0.00
952,0.00
962,-0.00
971,0.00
981,-0.00
991,-0.00
1001,0.00
1011,-0.00
1021,-0.00
1031,0.11
1041,0.23
1052,0.23
1062,0.43
1073,0.46
1084,0.46
1094,0.46
1105,0.46
1116,0.60
1128,0.68
1139,0.68
1150,0.68
1162,0.68
1173,0.68
1185,0.68
1197,0.68
1209,0.68
1221,0.91
1233,0.91
1246,0.91
1258,0.91
1271,0.91
1283,0.91
1296,0.91
1309,0.91
1322,0.91
1335,0.91
1349,0.91
1362,0.91
1376,0.91
1390,0.91
1404,0.91
1418,0.91
1432,0.91
1446,0.91
1461,0.91
1475,0.91
1490,0.91
1505,0.91
1520,0.91
1535,0.81
1550,0.68
1566,0.68
1582,0.68
1597,0.68
1613,0.68
1629,0.68
1646,0.68
1662,0.68
1679,0.68
1696,0.68
1713,0.68
1730,0.68
1747,0.68
1764,0.68
1782,0.68
1800,0.68
1818,0.91
1836,0.91
1854,0.91
1873,1.01
1892,1.00
1911,0.91
1930,0.70
1949,0.67
1969,0.15
1988,-0.30
2008,-0.85
2028,-1.31
2048,-1.74
2069,-2.25
2090,-2.67
2111,-3.11
2132,-3.10
2153,-2.96
2175,-2.80
2196,-2.64
2218,-2.40
2240,-2.01
2263,-1.61
2285,-1.23
2308,-0.83
2331,-0.44
2355,-0.14
2378,0.35
2402,0.90
2426,1.55
2450,2.20
2475,2.80
2500,3.42
2525,4.07
2550,4.97
2575,5.84
2601,6.64
2627,7.30
2653,7.75
2680,8.15
2707,8.43
2734,8.46
2761,8.72
2789,8.89
2817,8.75
2845,8.66
2873,8.66
2902,8.66
2931,8.66
2960,8.66
2990,8.66
3020,8.66
3050,8.66
3080,8.66
3111,8.89
3142,8.89
3174,8.97
3206,9.12
3238,9.12
3270,9.12
3303,9.34
3336,9.60
3369,9.86
3403,10.12
3437,10.39
3471,10.64
3506,10.91
3541,11.06
3576,11.43
3612,11.73
3648,12.07
3685,12.40
3721,12.79
3759,13.19
3796,13.69
3834,14.11
3873,14.56
3911,14.87
3950,14.83
3990,14.43
4030,13.82
4070,13.05
4111,12.36
4152,11.63
4193,10.92
4235,10.21
4278,9.54
4321,9.00
4364,8.84
4407,8.45
4451,8.06
4496,7.59
4541,7.24
4586,6.78
4632,6.60
4679,6.34
4725,6.08
4773,5.81
4820,5.55
4868,5.29
4917,5.03
4966,4.77
5016,4.48
5066,4.09
5117,3.63
5168,3.11
5220,2.58
5272,2.17
5325,1.68
5378,1.45
5432,1.22
5486,0.83
5541,0.27
5596,-0.38
5652,-0.55
5709,0.32
5766,1.82
5823,3.76
5882,5.68
5940,7.05
6000,7.82
6060,8.22
6120,8.38
6182,8.21
6244,8.08
6306,8.05
6369,8.37
6433,8.66
6497,8.89
6562,8.89
6628,8.79
6694,8.60
6761,8.30
6828,7.91
6897,7.40
6966,6.99
7035,6.47
7106,5.89
7177,5.30
7249,4.69
7321,4.14
7394,3.62
7468,3.07
7543,2.46
7618,1.99
7694,1.67
7771,1.41
7849,1.15
7928,1.11
8007,0.85
8087,0.50
8168,-0.03
8250,-0.55
8332,-1.07
8415,-1.37
8499,-1.63
8584,-1.89
8670,-2.15
8757,-2.42
8845,-2.68
8933,-2.74
9022,-2.49
9113,-2.10
9204,-1.62
9296,-1.03
9389,-0.43
9483,0.14
9577,0.76
9673,1.30
9770,1.74
9868,1.60
9966,0.82
10066,-0.18
10167,-1.13
10268,-1.93
10371,-2.22
10475,-1.59
10579,-0.73
10685,-0.07
10792,0.37
10900,0.25
11009,-0.24
11119,-0.77
11230,-1.29
11343,-1.71
11456,-1.97
11571,-2.23
11686,-2.92
11803,-5.18
11921,-9.11
12040,-11.74
12161,-9.86
12282,-5.58
12405,-1.97
12529,-0.04
12655,1.34
12781,2.13
12909,2.91
13038,3.63
13168,4.29
13300,4.94
13433,5.35
13567,5.01
13703,4.08
13840,2.61
13978,0.70
14118,-1.75
14259,-5.31
14402,-8.70
14546,-10.86
14692,-10.93
14838,-9.38
14987,-7.29
15137,-4.93
15288,-3.02
15441,-1.62
15595,-0.91
15751,-1.05
15909,-1.45
16068,-2.08
16229,-3.07
16391,-4.12
16555,-5.35
16720,-6.14
16888,-6.72
17056,-6.70
17227,-6.44
17399,-5.97
17573,-5.58
17749,-5.75
17926,-6.70
18106,-7.81
18287,-9.22
18470,-10.42
18654,-10.92
18841,-10.31
19029,-9.77
19220,-9.83
19412,-10.41
19606,-11.03
19802,-10.78
20000,-9.80
