frequency,raw
20.00,10.39
20.20,10.36
20.40,10.32
20.61,10.26
20.81,10.20
21.02,10.15
21.23,10.10
21.44,10.05
21.66,9.99
21.87,9.93
22.09,9.87
22.31,9.81
22.54,9.74
22.76,9.68
22.99,9.64
23.22,9.59
23.45,9.54
23.69,9.48
23.92,9.40
24.16,9.35
24.40,9.29
24.65,9.23
24.89,9.17
25.14,9.12
25.39,9.08
25.65,9.03
25.91,8.97
26.16,8.90
26.43,8.85
26.69,8.80
26.96,8.75
27.23,8.70
27.50,8.65
27.77,8.59
28.05,8.54
28.33,8.50
28.62,8.44
28.90,8.38
29.19,8.33
29.48,8.29
29.78,8.24
30.08,8.17
30.38,8.11
30.68,8.05
30.99,8.02
31.30,7.97
31.61,7.91
31.93,7.86
32.24,7.82
32.57,7.77
32.89,7.71
33.22,7.64
33.55,7.59
33.89,7.54
34.23,7.50
34.57,7.45
34.92,7.40
35.27,7.36
35.62,7.31
35.97,7.26
36.33,7.22
36.70,7.17
37.06,7.12
37.43,7.08
37.81,7.05
38.19,7.01
38.57,6.96
38.95,6.93
39.34,6.91
39.74,6.87
40.14,6.86
40.54,6.82
40.94,6.82
41.35,6.82
41.76,6.77
42.18,6.77
42.60,6.77
43.03,6.77
43.46,6.77
43.90,6.78
44.33,6.82
44.78,6.82
45.23,6.82
45.68,6.82
46.13,6.82
46.60,6.82
47.06,6.86
47.53,6.87
48.01,6.87
48.49,6.87
48.97,6.87
49.46,6.87
49.96,6.91
50.46,6.91
50.96,6.91
51.47,6.94
51.99,6.96
52.51,6.96
53.03,7.01
53.56,7.01
54.10,7.05
54.64,7.05
55.18,7.07
55.74,7.10
56.29,7.11
56.86,7.15
57.42,7.15
58.00,7.19
58.58,7.19
59.16,7.24
59.76,7.24
60.35,7.24
60.96,7.29
61.57,7.29
62.18,7.29
62.80,7.29
63.43,7.29
64.07,7.31
64.71,7.31
65.35,7.29
66.01,7.29
66.67,7.29
67.33,7.29
68.01,7.24
68.69,7.24
69.37,7.20
70.07,7.19
70.77,7.14
71.48,7.09
72.19,7.03
72.91,6.98
73.64,6.92
74.38,6.84
75.12,6.76
75.87,6.68
76.63,6.59
77.40,6.49
78.17,6.39
78.95,6.29
79.74,6.18
80.54,6.07
81.35,5.96
82.16,5.84
82.98,5.70
83.81,5.59
84.65,5.48
85.50,5.35
86.35,5.21
87.22,5.11
88.09,4.97
88.97,4.84
89.86,4.73
90.76,4.62
91.66,4.49
92.58,4.36
93.51,4.25
94.44,4.14
95.39,4.03
96.34,3.93
97.30,3.82
98.28,3.71
99.26,3.60
100.25,3.51
101.25,3.40
102.27,3.30
103.29,3.21
104.32,3.13
105.37,3.02
106.42,2.91
107.48,2.85
108.56,2.75
109.64,2.67
110.74,2.60
111.85,2.53
112.97,2.46
114.10,2.40
115.24,2.33
116.39,2.28
117.55,2.22
118.73,2.15
119.92,2.09
121.12,2.03
122.33,1.96
123.55,1.91
124.79,1.83
126.03,1.75
127.29,1.68
128.57,1.63
129.85,1.58
131.15,1.53
132.46,1.50
133.79,1.47
135.12,1.42
136.48,1.39
137.84,1.36
139.22,1.32
140.61,1.27
142.02,1.22
143.44,1.16
144.87,1.12
146.32,1.03
147.78,0.98
149.26,0.93
150.75,0.87
152.26,0.79
153.78,0.73
155.32,0.66
156.88,0.61
158.44,0.56
160.03,0.51
161.63,0.46
163.24,0.40
164.88,0.34
166.53,0.30
168.19,0.24
169.87,0.19
171.57,0.14
173.29,0.09
175.02,0.05
176.77,-0.00
178.54,-0.05
180.32,-0.09
182.13,-0.14
183.95,-0.20
185.79,-0.25
187.65,-0.29
189.52,-0.35
191.42,-0.41
193.33,-0.45
195.27,-0.50
197.22,-0.56
199.19,-0.61
201.18,-0.65
203.19,-0.70
205.23,-0.75
207.28,-0.80
209.35,-0.86
211.44,-0.89
213.56,-0.96
215.69,-1.02
217.85,-1.07
220.03,-1.11
222.23,-1.16
224.45,-1.21
226.70,-1.26
228.96,-1.30
231.25,-1.35
233.57,-1.40
235.90,-1.44
238.26,-1.47
240.64,-1.53
243.05,-1.56
245.48,-1.61
247.93,-1.64
250.41,-1.70
252.92,-1.73
255.45,-1.80
258.00,-1.84
260.58,-1.89
263.19,-1.95
265.82,-2.00
268.48,-2.03
271.16,-2.09
273.87,-2.14
276.61,-2.19
279.38,-2.23
282.17,-2.30
284.99,-2.38
287.84,-2.43
290.72,-2.51
293.63,-2.59
296.57,-2.66
299.53,-2.75
302.53,-2.83
305.55,-2.90
308.61,-3.00
311.69,-3.06
314.81,-3.17
317.96,-3.24
321.14,-3.34
324.35,-3.45
327.59,-3.51
330.87,-3.62
334.18,-3.69
337.52,-3.79
340.90,-3.85
344.30,-3.93
347.75,-4.00
351.23,-4.05
354.74,-4.10
358.28,-4.17
361.87,-4.24
365.49,-4.30
369.14,-4.35
372.83,-4.43
376.56,-4.50
380.33,-4.56
384.13,-4.61
387.97,-4.66
391.85,-4.70
395.77,-4.73
399.73,-4.77
403.72,-4.77
407.76,-4.77
411.84,-4.77
415.96,-4.73
420.12,-4.72
424.32,-4.68
428.56,-4.63
432.85,-4.59
437.18,-4.53
441.55,-4.47
445.96,-4.41
450.42,-4.34
454.93,-4.28
459.48,-4.21
464.07,-4.13
468.71,-4.07
473.40,-4.00
478.13,-3.93
482.91,-3.86
487.74,-3.79
492.62,-3.72
497.55,-3.65
502.52,-3.58
507.55,-3.52
512.62,-3.45
517.75,-3.40
522.93,-3.35
528.16,-3.30
533.44,-3.24
538.77,-3.20
544.16,-3.14
549.60,-3.10
555.10,-3.06
560.65,-3.00
566.25,-2.97
571.92,-2.92
577.64,-2.89
583.41,-2.83
589.25,-2.80
595.14,-2.77
601.09,-2.72
607.10,-2.68
613.17,-2.65
619.30,-2.62
625.50,-2.58
631.75,-2.56
638.07,-2.51
644.45,-2.49
650.89,-2.44
657.40,-2.41
663.98,-2.38
670.62,-2.35
677.32,-2.30
684.10,-2.26
690.94,-2.23
697.85,-2.20
704.83,-2.16
711.87,-2.12
718.99,-2.08
726.18,-2.05
733.44,-2.02
740.78,-1.97
748.19,-1.94
755.67,-1.88
763.23,-1.85
770.86,-1.80
778.57,-1.77
786.35,-1.71
794.22,-1.68
802.16,-1.62
810.18,-1.56
818.28,-1.50
826.46,-1.44
834.73,-1.40
843.08,-1.33
851.51,-1.26
860.02,-1.21
868.62,-1.15
877.31,-1.07
886.08,-1.00
894.94,-0.94
903.89,-0.86
912.93,-0.78
922.06,-0.70
931.28,-0.62
940.59,-0.56
950.00,-0.45
959.50,-0.39
969.09,-0.28
978.78,-0.21
988.57,-0.11
998.46,-0.01
1008.44,0.06
1018.53,0.17
1028.71,0.27
1039.00,0.37
1049.39,0.45
1059.88,0.56
1070.48,0.67
1081.19,0.75
1092.00,0.85
1102.92,0.95
1113.95,1.06
1125.09,1.14
1136.34,1.25
1147.70,1.34
1159.18,1.45
1170.77,1.53
1182.48,1.62
1194.30,1.72
1206.25,1.81
1218.31,1.90
1230.49,2.00
1242.80,2.07
1255.22,2.18
1267.78,2.26
1280.45,2.35
1293.26,2.43
1306.19,2.52
1319.25,2.58
1332.45,2.68
1345.77,2.75
1359.23,2.84
1372.82,2.92
1386.55,2.99
1400.41,3.09
1414.42,3.15
1428.56,3.23
1442.85,3.32
1457.28,3.39
1471.85,3.48
1486.57,3.56
1501.43,3.64
1516.45,3.73
1531.61,3.79
1546.93,3.89
1562.40,3.96
1578.02,4.07
1593.80,4.13
1609.74,4.24
1625.84,4.30
1642.10,4.41
1658.52,4.51
1675.10,4.58
1691.85,4.69
1708.77,4.79
1725.86,4.89
1743.12,5.00
1760.55,5.08
1778.15,5.19
1795.94,5.30
1813.90,5.41
1832.03,5.54
1850.36,5.65
1868.86,5.76
1887.55,5.86
1906.42,5.97
1925.49,6.10
1944.74,6.21
1964.19,6.35
1983.83,6.48
2003.67,6.61
2023.71,6.74
2043.94,6.87
2064.38,7.01
2085.03,7.13
2105.88,7.27
2126.94,7.43
2148.20,7.53
2169.69,7.68
2191.38,7.80
2213.30,7.93
2235.43,8.06
2257.78,8.19
2280.36,8.30
2303.17,8.41
2326.20,8.52
2349.46,8.63
2372.95,8.72
2396.68,8.82
2420.65,8.90
2444.86,8.98
2469.31,9.06
2494.00,9.12
2518.94,9.16
2544.13,9.22
2569.57,9.24
2595.27,9.28
2621.22,9.29
2647.43,9.29
2673.90,9.29
2700.64,9.29
2727.65,9.26
2754.93,9.24
2782.48,9.19
2810.30,9.16
2838.40,9.12
2866.79,9.08
2895.46,9.02
2924.41,8.98
2953.65,8.93
2983.19,8.87
3013.02,8.81
3043.15,8.75
3073.58,8.69
3104.32,8.62
3135.36,8.56
3166.72,8.49
3198.38,8.41
3230.37,8.33
3262.67,8.27
3295.30,8.18
3328.25,8.12
3361.53,8.04
3395.15,7.97
3429.10,7.91
3463.39,7.85
3498.03,7.78
3533.01,7.73
3568.34,7.68
3604.02,7.63
3640.06,7.59
3676.46,7.57
3713.22,7.52
3750.36,7.52
3787.86,7.47
3825.74,7.47
3864.00,7.47
3902.64,7.43
3941.66,7.43
3981.08,7.43
4020.89,7.43
4061.10,7.44
4101.71,7.47
4142.73,7.47
4184.15,7.47
4226.00,7.48
4268.26,7.52
4310.94,7.52
4354.05,7.52
4397.59,7.57
4441.56,7.57
4485.98,7.57
4530.84,7.61
4576.15,7.61
4621.91,7.62
4668.13,7.66
4714.81,7.66
4761.96,7.66
4809.58,7.67
4857.67,7.68
4906.25,7.68
4955.31,7.66
5004.87,7.66
5054.91,7.66
5105.46,7.66
5156.52,7.61
5208.08,7.61
5260.16,7.58
5312.77,7.57
5365.89,7.52
5419.55,7.51
5473.75,7.47
5528.49,7.44
5583.77,7.43
5639.61,7.40
5696.00,7.38
5752.96,7.38
5810.49,7.38
5868.60,7.38
5927.28,7.38
5986.56,7.40
6046.42,7.43
6106.89,7.48
6167.96,7.54
6229.64,7.60
6291.93,7.68
6354.85,7.77
6418.40,7.88
6482.58,7.99
6547.41,8.10
6612.88,8.20
6679.01,8.34
6745.80,8.47
6813.26,8.58
6881.39,8.69
6950.21,8.80
7019.71,8.88
7089.91,8.99
7160.81,9.08
7232.41,9.18
7304.74,9.31
7377.79,9.42
7451.56,9.56
7526.08,9.69
7601.34,9.82
7677.35,9.91
7754.13,9.98
7831.67,10.03
7909.98,9.98
7989.08,9.89
8068.98,9.76
8149.67,9.56
8231.16,9.33
8313.47,9.04
8396.61,8.73
8480.57,8.37
8565.38,7.99
8651.03,7.59
8737.54,7.18
8824.92,6.78
8913.17,6.37
9002.30,5.99
9092.32,5.61
9183.25,5.24
9275.08,4.90
9367.83,4.56
9461.51,4.26
9556.12,3.94
9651.68,3.66
9748.20,3.33
9845.68,3.00
9944.14,2.65
10043.58,2.30
10144.02,1.88
10245.46,1.47
10347.91,0.98
10451.39,0.46
10555.91,-0.05
10661.46,-0.62
10768.08,-1.18
10875.76,-1.77
10984.52,-2.34
11094.36,-2.90
11205.31,-3.45
11317.36,-3.99
11430.53,-4.50
11544.84,-4.99
11660.29,-5.42
11776.89,-5.86
11894.66,-6.22
12013.60,-6.59
12133.74,-6.91
12255.08,-7.20
12377.63,-7.45
12501.41,-7.68
12626.42,-7.87
12752.68,-8.03
12880.21,-8.15
13009.01,-8.24
13139.10,-8.30
13270.49,-8.29
13403.20,-8.21
13537.23,-8.12
13672.60,-7.96
13809.33,-7.75
13947.42,-7.50
14086.90,-7.19
14227.77,-6.85
14370.04,-6.45
14513.74,-6.05
14658.88,-5.62
14805.47,-5.18
14953.52,-4.73
15103.06,-4.32
15254.09,-3.96
15406.63,-3.61
15560.70,-3.32
15716.30,-3.07
15873.47,-2.90
16032.20,-2.79
16192.52,-2.79
16354.45,-2.92
16517.99,-3.13
16683.17,-3.41
16850.01,-3.78
17018.51,-4.24
17188.69,-4.75
17360.58,-5.30
17534.18,-5.87
17709.53,-6.45
17886.62,-7.02
18065.49,-7.62
18246.14,-8.39
18428.60,-9.67
18612.89,-11.46
18799.02,-14.04
18987.01,-17.24
19176.88,-19.08
19368.65,-21.02
19562.33,-23.08
19757.96,-25.15
19955.54,-27.21
