frequency,raw,error,smoothed,error_smoothed,equalization,parametric_eq,fixed_band_eq,equalized_raw,equalized_smoothed,target
20.00,0.29,0.30,0.29,0.30,-0.30,-0.12,-0.27,-0.01,-0.01,-0.01
20.20,0.35,0.27,0.35,0.27,-0.27,-0.12,-0.28,0.08,0.08,0.08
20.40,0.40,0.24,0.40,0.24,-0.24,-0.13,-0.29,0.16,0.16,0.16
20.61,0.46,0.23,0.46,0.22,-0.22,-0.14,-0.30,0.24,0.24,0.23
20.81,0.52,0.20,0.52,0.20,-0.20,-0.14,-0.31,0.32,0.32,0.32
21.02,0.58,0.18,0.58,0.18,-0.19,-0.15,-0.32,0.39,0.39,0.40
21.23,0.63,0.17,0.63,0.17,-0.18,-0.16,-0.33,0.45,0.45,0.46
21.44,0.69,0.17,0.69,0.17,-0.18,-0.16,-0.34,0.51,0.52,0.52
21.66,0.75,0.18,0.75,0.18,-0.18,-0.17,-0.35,0.57,0.57,0.57
21.87,0.81,0.19,0.81,0.19,-0.18,-0.18,-0.36,0.63,0.62,0.62
22.09,0.86,0.19,0.86,0.20,-0.19,-0.19,-0.37,0.67,0.67,0.67
22.31,0.92,0.20,0.92,0.20,-0.21,-0.20,-0.38,0.71,0.71,0.72
22.54,0.98,0.22,0.98,0.22,-0.22,-0.21,-0.39,0.76,0.75,0.76
22.76,1.03,0.23,1.03,0.24,-0.24,-0.22,-0.40,0.79,0.79,0.80
22.99,1.09,0.26,1.09,0.26,-0.25,-0.23,-0.42,0.84,0.84,0.83
23.22,1.14,0.27,1.14,0.28,-0.27,-0.24,-0.43,0.87,0.87,0.87
23.45,1.20,0.29,1.20,0.29,-0.28,-0.25,-0.44,0.92,0.91,0.91
23.69,1.25,0.30,1.25,0.30,-0.30,-0.26,-0.45,0.95,0.95,0.95
23.92,1.30,0.31,1.30,0.31,-0.32,-0.27,-0.47,0.98,0.99,0.99
24.16,1.35,0.31,1.35,0.32,-0.33,-0.28,-0.48,1.02,1.02,1.04
24.40,1.41,0.35,1.41,0.34,-0.35,-0.29,-0.49,1.06,1.06,1.07
24.65,1.46,0.37,1.46,0.36,-0.36,-0.30,-0.51,1.10,1.10,1.09
24.89,1.51,0.39,1.51,0.38,-0.38,-0.32,-0.52,1.13,1.13,1.12
25.14,1.56,0.40,1.56,0.40,-0.40,-0.33,-0.53,1.16,1.16,1.16
25.39,1.61,0.42,1.61,0.41,-0.42,-0.35,-0.55,1.19,1.19,1.19
25.65,1.66,0.43,1.66,0.43,-0.44,-0.36,-0.56,1.22,1.23,1.23
25.91,1.71,0.46,1.71,0.45,-0.45,-0.37,-0.57,1.26,1.26,1.25
26.16,1.76,0.48,1.76,0.47,-0.47,-0.39,-0.59,1.29,1.29,1.28
26.43,1.80,0.48,1.80,0.49,-0.48,-0.40,-0.60,1.32,1.32,1.32
26.69,1.85,0.50,1.85,0.50,-0.50,-0.42,-0.61,1.35,1.35,1.35
26.96,1.89,0.51,1.89,0.51,-0.51,-0.44,-0.62,1.38,1.38,1.38
27.23,1.94,0.52,1.94,0.52,-0.53,-0.45,-0.64,1.41,1.41,1.42
27.50,1.98,0.53,1.98,0.53,-0.54,-0.47,-0.65,1.44,1.44,1.45
27.77,2.02,0.55,2.02,0.55,-0.55,-0.49,-0.66,1.47,1.47,1.47
28.05,2.07,0.56,2.07,0.57,-0.56,-0.50,-0.67,1.51,1.50,1.51
28.33,2.11,0.58,2.11,0.58,-0.58,-0.52,-0.68,1.53,1.53,1.53
28.62,2.15,0.59,2.15,0.59,-0.59,-0.54,-0.68,1.56,1.56,1.55
28.90,2.19,0.60,2.19,0.60,-0.60,-0.56,-0.69,1.59,1.59,1.59
29.19,2.22,0.61,2.22,0.60,-0.60,-0.57,-0.70,1.62,1.62,1.61
29.48,2.26,0.60,2.26,0.60,-0.61,-0.59,-0.70,1.65,1.65,1.66
29.78,2.29,0.61,2.29,0.61,-0.61,-0.61,-0.71,1.68,1.68,1.68
30.08,2.33,0.62,2.33,0.61,-0.62,-0.62,-0.71,1.71,1.71,1.71
30.38,2.36,0.62,2.36,0.62,-0.62,-0.64,-0.71,1.74,1.74,1.74
30.68,2.39,0.62,2.39,0.63,-0.62,-0.65,-0.71,1.77,1.77,1.77
30.99,2.42,0.63,2.42,0.63,-0.62,-0.67,-0.71,1.80,1.79,1.79
31.30,2.44,0.62,2.44,0.62,-0.62,-0.68,-0.71,1.82,1.82,1.82
31.61,2.46,0.62,2.46,0.62,-0.62,-0.69,-0.70,1.84,1.84,1.84
31.93,2.48,0.62,2.48,0.62,-0.62,-0.70,-0.70,1.86,1.86,1.86
32.24,2.51,0.63,2.51,0.62,-0.62,-0.71,-0.69,1.89,1.89,1.88
32.57,2.53,0.62,2.53,0.62,-0.62,-0.71,-0.68,1.91,1.91,1.91
32.89,2.55,0.61,2.55,0.62,-0.62,-0.72,-0.67,1.93,1.94,1.94
33.22,2.57,0.61,2.57,0.61,-0.61,-0.72,-0.66,1.96,1.96,1.96
33.55,2.59,0.61,2.59,0.61,-0.61,-0.72,-0.65,1.98,1.97,1.98
33.89,2.60,0.62,2.60,0.61,-0.61,-0.72,-0.64,1.99,1.99,1.98
34.23,2.62,0.61,2.62,0.61,-0.61,-0.72,-0.62,2.01,2.01,2.01
34.57,2.63,0.61,2.63,0.61,-0.61,-0.72,-0.61,2.02,2.02,2.02
34.92,2.64,0.61,2.64,0.61,-0.61,-0.71,-0.59,2.03,2.03,2.03
35.27,2.65,0.60,2.65,0.61,-0.61,-0.70,-0.57,2.04,2.04,2.05
35.62,2.66,0.61,2.66,0.61,-0.61,-0.70,-0.55,2.05,2.05,2.05
35.97,2.67,0.62,2.67,0.61,-0.61,-0.68,-0.54,2.06,2.06,2.05
36.33,2.67,0.60,2.67,0.61,-0.61,-0.67,-0.52,2.06,2.06,2.07
36.70,2.68,0.61,2.68,0.61,-0.61,-0.66,-0.50,2.07,2.07,2.07
37.06,2.68,0.61,2.68,0.61,-0.61,-0.64,-0.48,2.07,2.07,2.07
37.43,2.68,0.61,2.68,0.61,-0.61,-0.63,-0.46,2.07,2.07,2.07
37.81,2.68,0.61,2.68,0.61,-0.61,-0.61,-0.43,2.07,2.07,2.07
38.19,2.68,0.61,2.68,0.60,-0.60,-0.59,-0.41,2.08,2.07,2.07
38.57,2.67,0.59,2.67,0.60,-0.60,-0.57,-0.39,2.07,2.07,2.08
38.95,2.66,0.59,2.66,0.59,-0.59,-0.55,-0.37,2.07,2.07,2.07
39.34,2.65,0.59,2.65,0.59,-0.59,-0.53,-0.34,2.06,2.06,2.06
39.74,2.64,0.58,2.64,0.58,-0.58,-0.51,-0.32,2.06,2.06,2.06
40.14,2.62,0.57,2.62,0.57,-0.56,-0.49,-0.30,2.06,2.06,2.05
40.54,2.60,0.55,2.60,0.55,-0.55,-0.47,-0.28,2.05,2.05,2.05
40.94,2.58,0.53,2.58,0.53,-0.53,-0.44,-0.25,2.05,2.04,2.05
41.35,2.56,0.52,2.56,0.51,-0.52,-0.42,-0.23,2.04,2.04,2.04
41.76,2.53,0.49,2.53,0.50,-0.50,-0.40,-0.21,2.03,2.04,2.04
42.18,2.51,0.47,2.51,0.47,-0.47,-0.37,-0.18,2.04,2.03,2.04
42.60,2.48,0.46,2.48,0.45,-0.45,-0.35,-0.16,2.03,2.03,2.02
43.03,2.45,0.42,2.45,0.43,-0.43,-0.32,-0.14,2.02,2.02,2.03
43.46,2.41,0.40,2.41,0.40,-0.40,-0.29,-0.11,2.01,2.01,2.01
43.90,2.37,0.37,2.37,0.37,-0.38,-0.27,-0.09,1.99,2.00,2.00
44.33,2.33,0.35,2.33,0.34,-0.35,-0.24,-0.06,1.98,1.98,1.98
44.78,2.29,0.31,2.29,0.31,-0.31,-0.21,-0.04,1.98,1.98,1.98
45.23,2.24,0.28,2.24,0.28,-0.27,-0.18,-0.02,1.97,1.97,1.96
45.68,2.20,0.24,2.19,0.24,-0.23,-0.15,0.01,1.97,1.97,1.96
46.13,2.14,0.19,2.14,0.18,-0.18,-0.12,0.03,1.96,1.96,1.95
46.60,2.08,0.12,2.08,0.13,-0.13,-0.08,0.05,1.95,1.96,1.96
47.06,2.02,0.07,2.02,0.07,-0.07,-0.05,0.08,1.95,1.95,1.95
47.53,1.96,0.01,1.96,0.01,-0.01,-0.01,0.10,1.95,1.95,1.95
48.01,1.89,-0.06,1.89,-0.06,0.05,0.03,0.12,1.94,1.94,1.95
48.49,1.82,-0.12,1.82,-0.12,0.11,0.07,0.14,1.93,1.93,1.94
48.97,1.75,-0.19,1.75,-0.18,0.17,0.11,0.17,1.92,1.93,1.94
49.46,1.69,-0.23,1.69,-0.23,0.24,0.16,0.19,1.93,1.93,1.92
49.96,1.63,-0.28,1.63,-0.29,0.30,0.20,0.21,1.93,1.93,1.91
50.46,1.56,-0.36,1.56,-0.36,0.37,0.25,0.23,1.93,1.93,1.92
50.96,1.50,-0.44,1.50,-0.43,0.43,0.31,0.25,1.93,1.93,1.94
51.47,1.43,-0.50,1.43,-0.50,0.49,0.36,0.27,1.92,1.92,1.93
51.99,1.37,-0.56,1.37,-0.56,0.55,0.42,0.29,1.92,1.93,1.93
52.51,1.32,-0.62,1.32,-0.62,0.61,0.48,0.31,1.93,1.93,1.94
53.03,1.27,-0.67,1.27,-0.67,0.67,0.54,0.33,1.94,1.94,1.94
53.56,1.22,-0.72,1.22,-0.72,0.72,0.60,0.35,1.94,1.95,1.94
54.10,1.18,-0.76,1.18,-0.76,0.77,0.66,0.36,1.95,1.94,1.94
54.64,1.13,-0.80,1.13,-0.81,0.81,0.72,0.38,1.94,1.94,1.93
55.18,1.08,-0.85,1.08,-0.85,0.85,0.78,0.39,1.92,1.93,1.93
55.74,1.04,-0.88,1.04,-0.88,0.88,0.83,0.40,1.92,1.92,1.92
56.29,1.01,-0.91,1.01,-0.90,0.90,0.88,0.41,1.91,1.91,1.92
56.86,0.99,-0.92,0.99,-0.92,0.92,0.92,0.42,1.91,1.91,1.91
57.42,0.97,-0.93,0.97,-0.93,0.93,0.95,0.42,1.90,1.90,1.90
58.00,0.95,-0.94,0.96,-0.93,0.94,0.97,0.43,1.89,1.89,1.89
58.58,0.95,-0.93,0.95,-0.94,0.94,0.98,0.43,1.89,1.88,1.88
59.16,0.95,-0.93,0.95,-0.93,0.93,0.97,0.43,1.88,1.87,1.88
59.76,0.95,-0.91,0.95,-0.91,0.91,0.95,0.42,1.86,1.86,1.86
60.35,0.96,-0.88,0.96,-0.89,0.88,0.92,0.42,1.84,1.84,1.84
60.96,0.97,-0.86,0.97,-0.85,0.85,0.88,0.41,1.82,1.82,1.83
61.57,0.99,-0.81,0.99,-0.81,0.81,0.82,0.40,1.80,1.80,1.80
62.18,1.02,-0.75,1.02,-0.76,0.76,0.75,0.38,1.78,1.78,1.77
62.80,1.05,-0.72,1.06,-0.70,0.71,0.67,0.37,1.76,1.76,1.77
63.43,1.10,-0.64,1.10,-0.65,0.65,0.59,0.35,1.75,1.75,1.74
64.07,1.16,-0.58,1.15,-0.58,0.59,0.50,0.33,1.75,1.74,1.74
64.71,1.21,-0.52,1.21,-0.51,0.53,0.41,0.30,1.73,1.74,1.73
65.35,1.27,-0.45,1.27,-0.45,0.46,0.32,0.27,1.73,1.72,1.72
66.01,1.33,-0.39,1.33,-0.39,0.38,0.22,0.24,1.71,1.71,1.72
66.67,1.40,-0.32,1.40,-0.32,0.31,0.13,0.21,1.71,1.71,1.72
67.33,1.49,-0.23,1.49,-0.23,0.23,0.04,0.17,1.72,1.71,1.72
68.01,1.58,-0.14,1.58,-0.14,0.14,-0.06,0.13,1.72,1.72,1.72
68.69,1.68,-0.04,1.68,-0.04,0.05,-0.15,0.09,1.73,1.73,1.72
69.37,1.78,0.05,1.78,0.05,-0.05,-0.24,0.05,1.73,1.73,1.73
70.07,1.88,0.15,1.88,0.15,-0.15,-0.32,0.00,1.73,1.73,1.73
70.77,1.99,0.24,1.99,0.25,-0.25,-0.41,-0.05,1.74,1.73,1.75
71.48,2.10,0.36,2.10,0.36,-0.36,-0.49,-0.10,1.74,1.74,1.74
72.19,2.21,0.47,2.21,0.47,-0.47,-0.58,-0.15,1.74,1.74,1.74
72.91,2.33,0.59,2.33,0.59,-0.58,-0.66,-0.20,1.75,1.75,1.75
73.64,2.44,0.70,2.44,0.70,-0.69,-0.74,-0.26,1.75,1.75,1.74
74.38,2.55,0.80,2.55,0.81,-0.80,-0.82,-0.31,1.75,1.74,1.75
75.12,2.65,0.91,2.65,0.91,-0.91,-0.90,-0.37,1.74,1.74,1.74
75.87,2.76,1.02,2.76,1.02,-1.02,-0.97,-0.43,1.74,1.74,1.74
76.63,2.87,1.12,2.87,1.13,-1.13,-1.05,-0.49,1.74,1.74,1.75
77.40,2.97,1.23,2.97,1.23,-1.23,-1.13,-0.56,1.74,1.74,1.74
78.17,3.07,1.34,3.07,1.33,-1.33,-1.20,-0.62,1.74,1.74,1.73
78.95,3.17,1.42,3.17,1.43,-1.42,-1.28,-0.69,1.75,1.75,1.75
79.74,3.27,1.52,3.27,1.52,-1.51,-1.35,-0.75,1.76,1.75,1.75
80.54,3.35,1.60,3.35,1.60,-1.59,-1.43,-0.82,1.76,1.76,1.75
81.35,3.43,1.67,3.43,1.67,-1.67,-1.50,-0.89,1.76,1.76,1.76
82.16,3.50,1.73,3.50,1.73,-1.74,-1.57,-0.96,1.77,1.77,1.77
82.98,3.58,1.79,3.58,1.80,-1.80,-1.64,-1.03,1.78,1.78,1.79
83.81,3.65,1.86,3.65,1.86,-1.86,-1.71,-1.11,1.79,1.79,1.79
84.65,3.72,1.92,3.72,1.91,-1.91,-1.78,-1.18,1.81,1.81,1.80
85.50,3.78,1.95,3.78,1.96,-1.96,-1.84,-1.26,1.82,1.82,1.83
86.35,3.84,2.00,3.84,2.01,-2.01,-1.91,-1.33,1.83,1.84,1.84
87.22,3.91,2.06,3.91,2.05,-2.05,-1.97,-1.41,1.86,1.86,1.85
88.09,3.96,2.09,3.96,2.09,-2.09,-2.03,-1.49,1.87,1.87,1.86
88.97,4.01,2.13,4.01,2.13,-2.12,-2.09,-1.57,1.89,1.88,1.88
89.86,4.04,2.16,4.04,2.16,-2.16,-2.14,-1.65,1.88,1.88,1.88
90.76,4.07,2.19,4.07,2.19,-2.19,-2.19,-1.73,1.88,1.88,1.88
91.66,4.10,2.22,4.10,2.22,-2.23,-2.24,-1.82,1.87,1.87,1.88
92.58,4.13,2.27,4.13,2.26,-2.27,-2.29,-1.90,1.86,1.87,1.86
93.51,4.17,2.30,4.17,2.30,-2.31,-2.34,-1.99,1.86,1.85,1.87
94.44,4.20,2.35,4.20,2.35,-2.36,-2.38,-2.07,1.84,1.84,1.85
95.39,4.24,2.41,4.24,2.41,-2.42,-2.43,-2.16,1.82,1.82,1.83
96.34,4.28,2.48,4.28,2.48,-2.49,-2.47,-2.25,1.79,1.80,1.80
97.30,4.33,2.57,4.33,2.56,-2.56,-2.51,-2.34,1.77,1.77,1.76
98.28,4.37,2.63,4.37,2.63,-2.62,-2.56,-2.43,1.74,1.74,1.74
99.26,4.40,2.70,4.41,2.71,-2.69,-2.60,-2.52,1.71,1.71,1.70
100.25,4.44,2.78,4.43,2.77,-2.76,-2.64,-2.61,1.68,1.67,1.66
101.25,4.46,2.84,4.46,2.84,-2.83,-2.69,-2.70,1.63,1.62,1.62
102.27,4.47,2.89,4.47,2.90,-2.90,-2.73,-2.79,1.57,1.57,1.58
103.29,4.49,2.96,4.49,2.95,-2.97,-2.78,-2.88,1.52,1.52,1.53
104.32,4.51,3.01,4.51,3.02,-3.04,-2.82,-2.97,1.47,1.47,1.50
105.37,4.54,3.09,4.54,3.09,-3.10,-2.87,-3.05,1.44,1.44,1.45
106.42,4.57,3.16,4.57,3.16,-3.16,-2.92,-3.14,1.41,1.42,1.41
107.48,4.60,3.23,4.60,3.23,-3.20,-2.96,-3.22,1.40,1.39,1.37
108.56,4.61,3.28,4.61,3.27,-3.25,-3.01,-3.31,1.36,1.36,1.33
109.64,4.60,3.31,4.60,3.30,-3.28,-3.06,-3.39,1.32,1.32,1.29
110.74,4.57,3.30,4.57,3.31,-3.30,-3.10,-3.46,1.27,1.27,1.27
111.85,4.53,3.29,4.54,3.31,-3.32,-3.15,-3.54,1.21,1.22,1.24
112.97,4.50,3.31,4.50,3.30,-3.32,-3.19,-3.60,1.18,1.18,1.19
114.10,4.47,3.30,4.47,3.31,-3.32,-3.24,-3.67,1.15,1.15,1.17
115.24,4.44,3.31,4.44,3.31,-3.32,-3.28,-3.73,1.12,1.13,1.13
116.39,4.42,3.32,4.42,3.32,-3.31,-3.32,-3.78,1.11,1.11,1.10
117.55,4.40,3.31,4.40,3.32,-3.30,-3.36,-3.83,1.10,1.09,1.09
118.73,4.37,3.31,4.37,3.30,-3.29,-3.39,-3.87,1.08,1.07,1.06
119.92,4.33,3.28,4.33,3.28,-3.28,-3.42,-3.90,1.05,1.05,1.05
121.12,4.29,3.26,4.29,3.26,-3.26,-3.46,-3.94,1.03,1.03,1.03
122.33,4.26,3.24,4.26,3.24,-3.24,-3.48,-3.95,1.02,1.02,1.02
123.55,4.23,3.22,4.22,3.22,-3.22,-3.50,-3.97,1.01,1.00,1.01
124.79,4.19,3.19,4.19,3.19,-3.20,-3.52,-3.97,0.99,0.99,1.00
126.03,4.15,3.16,4.16,3.17,-3.18,-3.54,-3.98,0.97,0.98,0.99
127.29,4.13,3.15,4.13,3.15,-3.16,-3.55,-3.96,0.97,0.97,0.98
128.57,4.10,3.15,4.10,3.13,-3.13,-3.55,-3.95,0.97,0.97,0.95
129.85,4.06,3.11,4.06,3.12,-3.10,-3.55,-3.92,0.96,0.96,0.95
131.15,4.01,3.07,4.02,3.08,-3.07,-3.55,-3.90,0.94,0.95,0.94
132.46,3.97,3.06,3.96,3.04,-3.03,-3.54,-3.86,0.94,0.93,0.91
133.79,3.90,2.99,3.90,2.99,-3.00,-3.53,-3.82,0.90,0.91,0.91
135.12,3.83,2.94,3.84,2.94,-2.95,-3.51,-3.76,0.88,0.88,0.89
136.48,3.78,2.90,3.77,2.90,-2.91,-3.49,-3.71,0.87,0.87,0.88
137.84,3.71,2.85,3.72,2.86,-2.86,-3.46,-3.65,0.85,0.86,0.86
139.22,3.66,2.83,3.65,2.82,-2.81,-3.42,-3.59,0.85,0.84,0.83
140.61,3.59,2.78,3.58,2.77,-2.77,-3.39,-3.52,0.82,0.82,0.81
142.02,3.50,2.70,3.52,2.72,-2.72,-3.35,-3.44,0.78,0.80,0.80
143.44,3.46,2.68,3.45,2.67,-2.68,-3.30,-3.37,0.78,0.77,0.78
144.87,3.39,2.63,3.39,2.63,-2.63,-3.25,-3.29,0.76,0.75,0.76
146.32,3.33,2.60,3.33,2.60,-2.59,-3.19,-3.21,0.74,0.74,0.73
147.78,3.26,2.55,3.26,2.55,-2.55,-3.14,-3.13,0.71,0.71,0.71
149.26,3.20,2.51,3.19,2.51,-2.51,-3.08,-3.04,0.69,0.69,0.69
150.75,3.12,2.47,3.12,2.47,-2.47,-3.01,-2.96,0.65,0.66,0.65
152.26,3.06,2.43,3.06,2.43,-2.43,-2.95,-2.87,0.63,0.63,0.63
153.78,2.99,2.39,2.99,2.39,-2.40,-2.88,-2.78,0.59,0.60,0.60
155.32,2.94,2.37,2.94,2.36,-2.36,-2.81,-2.70,0.58,0.57,0.57
156.88,2.87,2.32,2.87,2.33,-2.33,-2.73,-2.61,0.54,0.54,0.55
158.44,2.82,2.31,2.81,2.30,-2.31,-2.66,-2.53,0.51,0.50,0.51
160.03,2.75,2.27,2.76,2.28,-2.29,-2.58,-2.44,0.46,0.47,0.48
161.63,2.70,2.27,2.70,2.27,-2.26,-2.51,-2.35,0.44,0.44,0.43
163.24,2.66,2.26,2.65,2.25,-2.24,-2.43,-2.27,0.42,0.41,0.40
164.88,2.60,2.23,2.61,2.23,-2.22,-2.35,-2.19,0.38,0.38,0.37
166.53,2.55,2.20,2.55,2.21,-2.20,-2.27,-2.10,0.35,0.35,0.35
168.19,2.51,2.19,2.50,2.18,-2.18,-2.19,-2.02,0.33,0.32,0.32
169.87,2.44,2.15,2.45,2.16,-2.16,-2.12,-1.94,0.28,0.29,0.29
171.57,2.39,2.13,2.39,2.13,-2.14,-2.04,-1.86,0.25,0.25,0.26
173.29,2.35,2.12,2.34,2.11,-2.11,-1.96,-1.78,0.24,0.23,0.23
175.02,2.28,2.07,2.29,2.08,-2.08,-1.88,-1.71,0.20,0.21,0.21
176.77,2.24,2.06,2.24,2.06,-2.05,-1.80,-1.63,0.19,0.19,0.18
178.54,2.18,2.02,2.19,2.03,-2.01,-1.72,-1.56,0.17,0.17,0.16
180.32,2.13,1.99,2.13,1.99,-1.98,-1.65,-1.48,0.15,0.15,0.14
182.13,2.07,1.94,2.06,1.93,-1.93,-1.57,-1.41,0.14,0.13,0.13
183.95,1.97,1.86,1.99,1.88,-1.88,-1.50,-1.34,0.09,0.11,0.11
185.79,1.92,1.82,1.92,1.82,-1.83,-1.42,-1.27,0.09,0.09,0.10
187.65,1.86,1.78,1.86,1.77,-1.77,-1.35,-1.21,0.09,0.08,0.08
189.52,1.80,1.72,1.79,1.72,-1.71,-1.28,-1.14,0.09,0.08,0.08
191.42,1.72,1.65,1.72,1.65,-1.65,-1.21,-1.07,0.07,0.07,0.07
193.33,1.65,1.58,1.65,1.58,-1.59,-1.14,-1.01,0.06,0.06,0.07
195.27,1.58,1.51,1.58,1.52,-1.52,-1.07,-0.95,0.06,0.06,0.07
197.22,1.51,1.46,1.51,1.46,-1.46,-1.00,-0.88,0.05,0.05,0.05
199.19,1.44,1.41,1.44,1.39,-1.39,-0.93,-0.82,0.05,0.05,0.03
201.18,1.36,1.33,1.36,1.32,-1.32,-0.87,-0.76,0.04,0.04,0.03
203.19,1.27,1.24,1.28,1.25,-1.25,-0.80,-0.71,0.02,0.03,0.03
205.23,1.20,1.18,1.20,1.17,-1.18,-0.74,-0.65,0.02,0.02,0.02
207.28,1.13,1.11,1.12,1.11,-1.11,-0.68,-0.59,0.02,0.02,0.02
209.35,1.05,1.04,1.05,1.04,-1.04,-0.62,-0.54,0.01,0.01,0.01
211.44,0.97,0.98,0.97,0.97,-0.97,-0.56,-0.48,-0.00,0.00,-0.01
213.56,0.90,0.90,0.90,0.90,-0.91,-0.50,-0.43,-0.00,-0.01,-0.00
215.69,0.82,0.82,0.82,0.83,-0.84,-0.44,-0.38,-0.02,-0.02,-0.00
217.85,0.75,0.77,0.75,0.77,-0.77,-0.38,-0.33,-0.02,-0.02,-0.02
220.03,0.69,0.72,0.68,0.71,-0.70,-0.32,-0.28,-0.01,-0.02,-0.03
222.23,0.61,0.66,0.61,0.65,-0.64,-0.27,-0.23,-0.03,-0.02,-0.05
224.45,0.53,0.57,0.53,0.57,-0.57,-0.22,-0.19,-0.04,-0.04,-0.04
226.70,0.45,0.50,0.45,0.50,-0.50,-0.16,-0.14,-0.05,-0.05,-0.05
228.96,0.36,0.42,0.37,0.43,-0.43,-0.11,-0.10,-0.07,-0.06,-0.06
231.25,0.30,0.36,0.29,0.36,-0.37,-0.06,-0.05,-0.07,-0.08,-0.06
233.57,0.22,0.30,0.22,0.30,-0.30,-0.01,-0.01,-0.08,-0.09,-0.08
235.90,0.13,0.22,0.14,0.24,-0.24,0.04,0.03,-0.11,-0.09,-0.09
238.26,0.08,0.19,0.07,0.18,-0.17,0.09,0.07,-0.09,-0.10,-0.11
240.64,-0.01,0.12,-0.00,0.12,-0.11,0.14,0.11,-0.12,-0.11,-0.13
243.05,-0.07,0.06,-0.08,0.05,-0.05,0.18,0.14,-0.12,-0.13,-0.13
245.48,-0.16,-0.02,-0.16,-0.02,0.01,0.23,0.18,-0.15,-0.14,-0.14
247.93,-0.24,-0.10,-0.23,-0.08,0.08,0.28,0.21,-0.16,-0.15,-0.14
250.41,-0.28,-0.12,-0.30,-0.15,0.14,0.32,0.25,-0.14,-0.15,-0.16
252.92,-0.36,-0.22,-0.35,-0.21,0.21,0.36,0.28,-0.15,-0.15,-0.14
255.45,-0.41,-0.27,-0.41,-0.27,0.27,0.41,0.31,-0.14,-0.13,-0.14
258.00,-0.46,-0.33,-0.46,-0.34,0.34,0.45,0.34,-0.12,-0.12,-0.13
260.58,-0.52,-0.40,-0.52,-0.40,0.41,0.49,0.37,-0.11,-0.11,-0.12
263.19,-0.58,-0.47,-0.58,-0.47,0.48,0.53,0.39,-0.10,-0.10,-0.11
265.82,-0.65,-0.55,-0.64,-0.55,0.55,0.57,0.42,-0.10,-0.09,-0.10
268.48,-0.69,-0.62,-0.70,-0.62,0.61,0.61,0.45,-0.08,-0.08,-0.07
271.16,-0.74,-0.68,-0.74,-0.69,0.67,0.65,0.47,-0.07,-0.07,-0.06
273.87,-0.79,-0.75,-0.79,-0.75,0.73,0.69,0.50,-0.06,-0.05,-0.04
276.61,-0.82,-0.81,-0.82,-0.80,0.79,0.72,0.52,-0.03,-0.03,-0.01
279.38,-0.85,-0.84,-0.84,-0.84,0.84,0.76,0.54,-0.01,-0.01,-0.01
282.17,-0.86,-0.87,-0.87,-0.88,0.89,0.80,0.57,0.03,0.02,0.01
284.99,-0.89,-0.92,-0.89,-0.92,0.94,0.83,0.59,0.05,0.04,0.03
287.84,-0.93,-0.97,-0.93,-0.97,0.98,0.87,0.61,0.05,0.05,0.04
290.72,-0.97,-1.04,-0.97,-1.03,1.03,0.90,0.63,0.06,0.06,0.07
293.63,-1.00,-1.08,-1.00,-1.09,1.08,0.94,0.65,0.08,0.08,0.08
296.57,-1.03,-1.14,-1.03,-1.14,1.13,0.97,0.68,0.10,0.09,0.11
299.53,-1.07,-1.19,-1.06,-1.18,1.18,1.00,0.70,0.11,0.12,0.12
302.53,-1.09,-1.22,-1.09,-1.23,1.23,1.03,0.72,0.14,0.15,0.13
305.55,-1.11,-1.28,-1.12,-1.28,1.29,1.06,0.74,0.18,0.17,0.17
308.61,-1.14,-1.33,-1.14,-1.33,1.34,1.10,0.77,0.20,0.20,0.19
311.69,-1.18,-1.39,-1.17,-1.39,1.39,1.13,0.79,0.21,0.22,0.21
314.81,-1.20,-1.45,-1.20,-1.45,1.44,1.16,0.82,0.24,0.24,0.25
317.96,-1.23,-1.50,-1.23,-1.50,1.49,1.18,0.84,0.26,0.26,0.27
321.14,-1.25,-1.54,-1.25,-1.54,1.54,1.21,0.87,0.29,0.29,0.29
324.35,-1.28,-1.59,-1.28,-1.59,1.58,1.24,0.89,0.30,0.31,0.31
327.59,-1.29,-1.63,-1.29,-1.62,1.62,1.27,0.92,0.33,0.33,0.34
330.87,-1.30,-1.65,-1.30,-1.66,1.65,1.30,0.95,0.35,0.35,0.35
334.18,-1.30,-1.68,-1.30,-1.68,1.67,1.32,0.98,0.37,0.38,0.38
337.52,-1.29,-1.69,-1.29,-1.70,1.70,1.35,1.00,0.41,0.41,0.40
340.90,-1.28,-1.71,-1.28,-1.71,1.72,1.38,1.04,0.44,0.44,0.43
344.30,-1.28,-1.74,-1.28,-1.73,1.74,1.40,1.07,0.46,0.46,0.46
347.75,-1.28,-1.76,-1.28,-1.76,1.76,1.43,1.10,0.48,0.49,0.48
351.23,-1.28,-1.79,-1.28,-1.79,1.79,1.45,1.13,0.51,0.51,0.51
354.74,-1.28,-1.81,-1.28,-1.81,1.81,1.47,1.17,0.53,0.53,0.53
358.28,-1.28,-1.83,-1.28,-1.84,1.83,1.50,1.20,0.55,0.55,0.55
361.87,-1.28,-1.86,-1.28,-1.86,1.86,1.52,1.24,0.58,0.58,0.58
365.49,-1.28,-1.89,-1.28,-1.88,1.88,1.54,1.27,0.60,0.60,0.61
369.14,-1.28,-1.90,-1.28,-1.90,1.91,1.56,1.31,0.63,0.63,0.62
372.83,-1.28,-1.93,-1.28,-1.93,1.93,1.58,1.35,0.65,0.65,0.65
376.56,-1.28,-1.95,-1.28,-1.95,1.95,1.60,1.39,0.67,0.67,0.67
380.33,-1.28,-1.99,-1.28,-1.98,1.98,1.62,1.43,0.70,0.70,0.71
384.13,-1.28,-2.00,-1.28,-2.00,2.00,1.64,1.47,0.72,0.72,0.72
387.97,-1.28,-2.02,-1.28,-2.02,2.02,1.66,1.51,0.74,0.74,0.74
391.85,-1.28,-2.02,-1.28,-2.04,2.04,1.68,1.56,0.76,0.76,0.74
395.77,-1.29,-2.06,-1.29,-2.06,2.06,1.70,1.60,0.77,0.77,0.77
399.73,-1.30,-2.08,-1.30,-2.08,2.07,1.72,1.64,0.77,0.78,0.78
403.72,-1.30,-2.08,-1.30,-2.09,2.08,1.73,1.69,0.78,0.78,0.78
407.76,-1.30,-2.09,-1.30,-2.09,2.08,1.75,1.73,0.78,0.78,0.79
411.84,-1.29,-2.09,-1.29,-2.09,2.08,1.76,1.78,0.79,0.79,0.80
415.96,-1.27,-2.07,-1.27,-2.07,2.06,1.78,1.82,0.79,0.79,0.80
420.12,-1.25,-2.05,-1.25,-2.05,2.05,1.79,1.86,0.80,0.80,0.80
424.32,-1.22,-2.02,-1.22,-2.02,2.02,1.81,1.91,0.80,0.80,0.80
428.56,-1.19,-1.99,-1.19,-1.99,1.99,1.82,1.95,0.80,0.80,0.80
432.85,-1.16,-1.95,-1.16,-1.95,1.96,1.84,1.99,0.80,0.80,0.79
437.18,-1.13,-1.92,-1.13,-1.92,1.92,1.85,2.03,0.79,0.79,0.79
441.55,-1.11,-1.90,-1.11,-1.89,1.89,1.86,2.07,0.78,0.78,0.79
445.96,-1.08,-1.86,-1.08,-1.86,1.85,1.87,2.10,0.77,0.77,0.78
450.42,-1.04,-1.82,-1.04,-1.82,1.81,1.88,2.14,0.78,0.77,0.78
454.93,-1.01,-1.79,-1.01,-1.78,1.78,1.89,2.17,0.77,0.77,0.78
459.48,-0.97,-1.74,-0.97,-1.74,1.75,1.90,2.20,0.78,0.78,0.77
464.07,-0.93,-1.70,-0.93,-1.70,1.71,1.91,2.23,0.78,0.78,0.77
468.71,-0.90,-1.67,-0.90,-1.67,1.68,1.92,2.25,0.78,0.78,0.77
473.40,-0.86,-1.63,-0.87,-1.64,1.65,1.93,2.27,0.79,0.78,0.77
478.13,-0.84,-1.62,-0.84,-1.61,1.61,1.94,2.29,0.77,0.77,0.78
482.91,-0.81,-1.58,-0.81,-1.59,1.58,1.94,2.31,0.77,0.77,0.77
487.74,-0.77,-1.55,-0.77,-1.55,1.54,1.95,2.32,0.77,0.77,0.78
492.62,-0.72,-1.51,-0.72,-1.51,1.50,1.95,2.32,0.78,0.78,0.79
497.55,-0.67,-1.45,-0.67,-1.46,1.45,1.96,2.33,0.78,0.78,0.78
502.52,-0.61,-1.40,-0.61,-1.40,1.40,1.96,2.33,0.79,0.79,0.79
507.55,-0.56,-1.35,-0.56,-1.35,1.35,1.97,2.32,0.79,0.80,0.79
512.62,-0.50,-1.30,-0.50,-1.30,1.30,1.97,2.31,0.80,0.80,0.80
517.75,-0.45,-1.26,-0.45,-1.26,1.26,1.97,2.30,0.81,0.81,0.81
522.93,-0.40,-1.22,-0.40,-1.22,1.22,1.98,2.28,0.82,0.82,0.82
528.16,-0.36,-1.18,-0.36,-1.18,1.19,1.98,2.26,0.83,0.83,0.82
533.44,-0.33,-1.16,-0.33,-1.16,1.17,1.98,2.24,0.84,0.84,0.83
