frequency,raw,smoothed,error,error_smoothed,equalization,parametric_eq,fixed_band_eq,equalized_raw,equalized_smoothed,target
20.00,-6.07,-6.07,-7.43,-7.42,6.00,6.04,2.69,-0.07,-0.07,1.35
20.20,-6.04,-6.04,-7.43,-7.42,6.00,6.03,2.77,-0.04,-0.04,1.38
20.40,-6.00,-6.01,-7.41,-7.42,6.00,6.03,2.84,-0.00,-0.01,1.41
20.61,-5.97,-5.97,-7.40,-7.41,6.00,6.03,2.93,0.03,0.03,1.43
20.81,-5.94,-5.94,-7.40,-7.40,6.00,6.03,3.01,0.06,0.06,1.46
21.02,-5.90,-5.90,-7.39,-7.39,6.00,6.03,3.09,0.10,0.10,1.49
21.23,-5.85,-5.85,-7.35,-7.36,6.00,6.03,3.18,0.15,0.15,1.50
21.44,-5.80,-5.80,-7.31,-7.31,6.00,6.03,3.27,0.20,0.20,1.51
21.66,-5.74,-5.74,-7.26,-7.26,6.00,6.03,3.37,0.26,0.26,1.52
21.87,-5.69,-5.70,-7.21,-7.22,6.00,6.03,3.46,0.31,0.30,1.52
22.09,-5.67,-5.68,-7.20,-7.21,6.00,6.03,3.56,0.33,0.32,1.53
22.31,-5.69,-5.69,-7.22,-7.22,6.00,6.03,3.66,0.31,0.31,1.53
22.54,-5.71,-5.72,-7.24,-7.24,6.00,6.03,3.76,0.29,0.28,1.53
22.76,-5.73,-5.74,-7.26,-7.26,6.00,6.03,3.87,0.27,0.26,1.53
22.99,-5.75,-5.73,-7.27,-7.25,6.00,6.03,3.98,0.25,0.27,1.52
23.22,-5.69,-5.69,-7.21,-7.21,6.00,6.03,4.09,0.31,0.31,1.52
23.45,-5.62,-5.62,-7.14,-7.14,6.00,6.03,4.21,0.38,0.38,1.52
23.69,-5.55,-5.55,-7.07,-7.06,6.00,6.02,4.32,0.45,0.45,1.51
23.92,-5.48,-5.50,-7.00,-7.02,6.00,6.02,4.44,0.52,0.50,1.51
24.16,-5.47,-5.48,-6.99,-7.00,6.00,6.02,4.56,0.53,0.52,1.52
24.40,-5.50,-5.50,-7.02,-7.01,6.00,6.02,4.69,0.50,0.50,1.52
24.65,-5.52,-5.53,-7.03,-7.04,6.00,6.02,4.81,0.48,0.47,1.51
24.89,-5.54,-5.53,-7.05,-7.04,6.00,6.02,4.94,0.46,0.47,1.51
25.14,-5.51,-5.50,-7.02,-7.01,6.00,6.02,5.07,0.49,0.50,1.51
25.39,-5.43,-5.44,-6.94,-6.94,6.00,6.02,5.20,0.57,0.56,1.51
25.65,-5.36,-5.36,-6.87,-6.86,6.00,6.02,5.33,0.64,0.64,1.51
25.91,-5.29,-5.31,-6.79,-6.81,6.00,6.02,5.46,0.71,0.69,1.50
26.16,-5.28,-5.29,-6.78,-6.78,6.00,6.01,5.59,0.72,0.71,1.49
26.43,-5.30,-5.30,-6.79,-6.80,6.00,6.01,5.72,0.70,0.70,1.49
26.69,-5.33,-5.33,-6.82,-6.82,6.00,6.01,5.85,0.67,0.67,1.49
26.96,-5.36,-5.34,-6.85,-6.83,6.00,6.01,5.98,0.64,0.66,1.49
27.23,-5.31,-5.31,-6.80,-6.80,6.00,6.01,6.10,0.69,0.69,1.49
27.50,-5.26,-5.26,-6.75,-6.75,6.00,6.01,6.22,0.74,0.74,1.49
27.77,-5.20,-5.21,-6.68,-6.69,6.00,6.01,6.34,0.80,0.79,1.48
28.05,-5.16,-5.17,-6.64,-6.65,6.00,6.00,6.46,0.84,0.83,1.48
28.33,-5.16,-5.16,-6.63,-6.62,6.00,6.00,6.57,0.84,0.84,1.46
28.62,-5.16,-5.16,-6.62,-6.62,6.00,6.00,6.68,0.84,0.84,1.46
28.90,-5.16,-5.16,-6.62,-6.62,6.00,6.00,6.77,0.84,0.84,1.46
29.19,-5.17,-5.17,-6.62,-6.63,6.00,6.00,6.87,0.83,0.83,1.45
29.48,-5.17,-5.18,-6.63,-6.63,6.00,6.00,6.95,0.83,0.82,1.46
29.78,-5.18,-5.18,-6.63,-6.63,6.00,5.99,7.03,0.82,0.82,1.45
30.08,-5.17,-5.15,-6.62,-6.60,6.00,5.99,7.09,0.83,0.85,1.44
30.38,-5.10,-5.10,-6.53,-6.53,6.00,5.99,7.15,0.90,0.90,1.43
30.68,-5.03,-5.03,-6.46,-6.46,6.00,5.99,7.20,0.97,0.97,1.43
30.99,-4.96,-4.98,-6.38,-6.40,6.00,5.99,7.24,1.04,1.02,1.42
31.30,-4.96,-4.96,-6.38,-6.38,6.00,5.98,7.26,1.04,1.04,1.42
31.61,-4.96,-4.95,-6.38,-6.36,6.00,5.98,7.28,1.04,1.05,1.41
31.93,-4.96,-4.96,-6.36,-6.36,6.00,5.98,7.28,1.04,1.04,1.40
32.24,-4.96,-4.96,-6.35,-6.36,6.00,5.98,7.28,1.04,1.04,1.39
32.57,-4.96,-4.96,-6.35,-6.35,6.00,5.97,7.27,1.04,1.04,1.39
32.89,-4.96,-4.96,-6.35,-6.34,6.00,5.97,7.25,1.04,1.04,1.38
33.22,-4.96,-4.96,-6.33,-6.34,6.00,5.97,7.21,1.04,1.04,1.37
33.55,-4.96,-4.96,-6.33,-6.33,6.00,5.97,7.18,1.04,1.04,1.37
33.89,-4.96,-4.96,-6.32,-6.32,6.00,5.96,7.13,1.04,1.04,1.36
34.23,-4.96,-4.96,-6.31,-6.31,6.00,5.96,7.08,1.04,1.04,1.35
34.57,-4.96,-4.96,-6.30,-6.30,6.00,5.96,7.02,1.04,1.04,1.34
34.92,-4.96,-4.95,-6.29,-6.28,6.00,5.95,6.96,1.04,1.05,1.33
35.27,-4.93,-4.93,-6.25,-6.25,6.00,5.95,6.89,1.07,1.07,1.32
35.62,-4.90,-4.90,-6.21,-6.21,6.00,5.95,6.82,1.10,1.10,1.31
35.97,-4.86,-4.87,-6.16,-6.17,6.00,5.94,6.75,1.14,1.13,1.30
36.33,-4.86,-4.86,-6.15,-6.15,6.00,5.94,6.67,1.14,1.14,1.29
36.70,-4.86,-4.86,-6.14,-6.14,6.00,5.93,6.60,1.14,1.14,1.28
37.06,-4.86,-4.86,-6.13,-6.13,6.00,5.93,6.52,1.14,1.14,1.26
37.43,-4.86,-4.86,-6.12,-6.12,6.00,5.93,6.45,1.14,1.14,1.26
37.81,-4.86,-4.86,-6.11,-6.11,6.00,5.92,6.37,1.14,1.14,1.25
38.19,-4.86,-4.86,-6.09,-6.10,6.00,5.92,6.30,1.14,1.14,1.23
38.57,-4.86,-4.86,-6.09,-6.08,6.00,5.91,6.22,1.14,1.14,1.23
38.95,-4.86,-4.86,-6.07,-6.07,6.00,5.91,6.15,1.14,1.14,1.21
39.34,-4.86,-4.86,-6.06,-6.06,6.00,5.90,6.09,1.14,1.14,1.20
39.74,-4.86,-4.86,-6.04,-6.04,6.00,5.90,6.02,1.14,1.14,1.18
40.14,-4.86,-4.86,-6.04,-6.03,6.00,5.89,5.96,1.14,1.14,1.18
40.54,-4.86,-4.86,-6.02,-6.02,6.00,5.89,5.90,1.14,1.14,1.16
40.94,-4.86,-4.86,-6.02,-6.01,6.00,5.88,5.84,1.14,1.14,1.15
41.35,-4.86,-4.86,-6.00,-6.00,6.00,5.87,5.79,1.14,1.14,1.14
41.76,-4.86,-4.86,-5.99,-5.99,5.99,5.87,5.74,1.13,1.13,1.13
42.18,-4.86,-4.86,-5.99,-5.98,5.98,5.86,5.70,1.12,1.12,1.13
42.60,-4.86,-4.86,-5.97,-5.97,5.97,5.85,5.66,1.11,1.11,1.11
43.03,-4.86,-4.86,-5.96,-5.96,5.96,5.85,5.62,1.10,1.10,1.10
43.46,-4.86,-4.86,-5.95,-5.94,5.94,5.84,5.59,1.08,1.08,1.08
43.90,-4.86,-4.86,-5.92,-5.92,5.92,5.83,5.56,1.06,1.06,1.06
44.33,-4.86,-4.86,-5.90,-5.90,5.90,5.82,5.54,1.04,1.04,1.04
44.78,-4.86,-4.86,-5.88,-5.88,5.89,5.82,5.52,1.02,1.02,1.02
45.23,-4.86,-4.86,-5.86,-5.86,5.87,5.81,5.50,1.00,1.00,1.00
45.68,-4.86,-4.86,-5.85,-5.85,5.84,5.80,5.49,0.98,0.98,0.98
46.13,-4.86,-4.86,-5.83,-5.83,5.82,5.79,5.49,0.96,0.96,0.97
46.60,-4.86,-4.86,-5.82,-5.81,5.81,5.78,5.48,0.95,0.95,0.96
47.06,-4.86,-4.85,-5.80,-5.79,5.79,5.77,5.49,0.93,0.94,0.94
47.53,-4.85,-4.85,-5.77,-5.77,5.78,5.76,5.49,0.93,0.93,0.92
48.01,-4.84,-4.86,-5.75,-5.76,5.77,5.75,5.50,0.93,0.91,0.91
48.49,-4.88,-4.88,-5.76,-5.76,5.76,5.74,5.51,0.88,0.88,0.88
48.97,-4.92,-4.91,-5.77,-5.76,5.75,5.73,5.53,0.83,0.84,0.84
49.46,-4.94,-4.94,-5.75,-5.76,5.74,5.72,5.55,0.80,0.80,0.81
49.96,-4.96,-4.96,-5.74,-5.75,5.73,5.71,5.57,0.77,0.77,0.78
50.46,-4.96,-4.96,-5.73,-5.73,5.72,5.69,5.59,0.76,0.76,0.77
50.96,-4.96,-4.96,-5.71,-5.70,5.70,5.68,5.62,0.74,0.74,0.75
51.47,-4.96,-4.96,-5.67,-5.68,5.68,5.67,5.65,0.72,0.72,0.71
51.99,-4.96,-4.96,-5.65,-5.66,5.66,5.66,5.68,0.70,0.70,0.69
52.51,-4.96,-4.96,-5.64,-5.63,5.64,5.64,5.71,0.68,0.68,0.68
53.03,-4.96,-4.96,-5.61,-5.61,5.61,5.63,5.74,0.65,0.65,0.65
53.56,-4.96,-4.96,-5.59,-5.59,5.59,5.61,5.77,0.62,0.62,0.63
54.10,-4.96,-4.96,-5.56,-5.56,5.56,5.60,5.80,0.60,0.60,0.60
54.64,-4.96,-4.96,-5.54,-5.54,5.54,5.58,5.84,0.57,0.57,0.58
55.18,-4.96,-4.96,-5.51,-5.51,5.51,5.57,5.87,0.55,0.55,0.55
55.74,-4.96,-4.96,-5.48,-5.49,5.49,5.55,5.90,0.52,0.52,0.52
56.29,-4.96,-4.96,-5.47,-5.46,5.46,5.54,5.92,0.50,0.50,0.50
56.86,-4.96,-4.96,-5.44,-5.44,5.44,5.52,5.95,0.48,0.48,0.48
57.42,-4.96,-4.96,-5.41,-5.41,5.42,5.50,5.97,0.45,0.45,0.45
58.00,-4.96,-4.96,-5.39,-5.39,5.39,5.48,5.99,0.43,0.43,0.43
58.58,-4.96,-4.96,-5.37,-5.37,5.37,5.46,6.00,0.41,0.41,0.41
59.16,-4.96,-4.96,-5.35,-5.35,5.35,5.44,6.01,0.38,0.38,0.39
59.76,-4.96,-4.96,-5.33,-5.33,5.32,5.42,6.01,0.36,0.36,0.37
60.35,-4.96,-4.96,-5.30,-5.30,5.29,5.40,6.01,0.33,0.33,0.33
60.96,-4.96,-4.96,-5.27,-5.27,5.26,5.38,6.01,0.30,0.30,0.31
61.57,-4.96,-4.96,-5.23,-5.23,5.23,5.36,5.99,0.27,0.27,0.27
62.18,-4.96,-4.96,-5.20,-5.20,5.20,5.34,5.97,0.24,0.24,0.24
62.80,-4.96,-4.96,-5.17,-5.17,5.16,5.32,5.95,0.20,0.20,0.21
63.43,-4.96,-4.96,-5.14,-5.14,5.13,5.30,5.91,0.17,0.17,0.18
64.07,-4.96,-4.96,-5.11,-5.11,5.10,5.28,5.87,0.14,0.15,0.15
64.71,-4.95,-4.95,-5.07,-5.07,5.09,5.25,5.83,0.14,0.14,0.12
65.35,-4.95,-4.95,-5.05,-5.05,5.08,5.23,5.78,0.13,0.13,0.10
66.01,-4.96,-4.98,-5.03,-5.05,5.08,5.21,5.72,0.12,0.10,0.07
66.67,-5.03,-5.03,-5.07,-5.07,5.08,5.18,5.66,0.05,0.06,0.04
67.33,-5.09,-5.09,-5.10,-5.10,5.09,5.16,5.59,-0.00,-0.00,0.01
68.01,-5.15,-5.15,-5.13,-5.13,5.09,5.13,5.52,-0.06,-0.06,-0.02
68.69,-5.18,-5.17,-5.13,-5.12,5.08,5.11,5.44,-0.10,-0.09,-0.05
69.37,-5.18,-5.18,-5.10,-5.09,5.07,5.09,5.36,-0.12,-0.11,-0.08
70.07,-5.16,-5.17,-5.04,-5.06,5.04,5.06,5.28,-0.12,-0.13,-0.12
70.77,-5.16,-5.16,-5.02,-5.02,5.02,5.04,5.19,-0.14,-0.15,-0.14
71.48,-5.16,-5.14,-4.99,-4.97,4.99,5.02,5.10,-0.17,-0.15,-0.18
72.19,-5.14,-5.14,-4.93,-4.93,4.97,5.00,5.01,-0.17,-0.17,-0.21
72.91,-5.12,-5.16,-4.87,-4.91,4.95,4.98,4.92,-0.17,-0.21,-0.25
73.64,-5.21,-5.19,-4.93,-4.91,4.94,4.96,4.83,-0.28,-0.25,-0.28
74.38,-5.26,-5.25,-4.95,-4.94,4.93,4.94,4.74,-0.33,-0.32,-0.31
75.12,-5.28,-5.32,-4.93,-4.97,4.93,4.92,4.64,-0.35,-0.38,-0.35
75.87,-5.38,-5.34,-5.00,-4.96,4.94,4.91,4.55,-0.45,-0.40,-0.38
76.63,-5.36,-5.35,-4.95,-4.94,4.94,4.89,4.46,-0.42,-0.41,-0.41
77.40,-5.34,-5.38,-4.90,-4.93,4.94,4.88,4.37,-0.40,-0.43,-0.44
78.17,-5.38,-5.39,-4.90,-4.92,4.94,4.87,4.28,-0.44,-0.46,-0.48
78.95,-5.46,-5.43,-4.96,-4.92,4.92,4.86,4.19,-0.54,-0.51,-0.50
79.74,-5.46,-5.46,-4.92,-4.92,4.90,4.84,4.10,-0.56,-0.56,-0.54
80.54,-5.46,-5.47,-4.89,-4.90,4.88,4.83,4.02,-0.58,-0.59,-0.57
81.35,-5.46,-5.46,-4.85,-4.86,4.85,4.81,3.93,-0.61,-0.61,-0.61
82.16,-5.46,-5.46,-4.82,-4.82,4.82,4.78,3.85,-0.64,-0.63,-0.64
82.98,-5.46,-5.46,-4.79,-4.78,4.79,4.75,3.77,-0.67,-0.67,-0.67
83.81,-5.44,-5.46,-4.73,-4.75,4.76,4.71,3.70,-0.68,-0.71,-0.72
84.65,-5.48,-5.46,-4.73,-4.71,4.72,4.66,3.62,-0.76,-0.74,-0.75
85.50,-5.47,-5.46,-4.69,-4.67,4.69,4.59,3.55,-0.79,-0.77,-0.78
86.35,-5.44,-5.46,-4.62,-4.64,4.65,4.52,3.48,-0.80,-0.81,-0.82
87.22,-5.45,-5.46,-4.59,-4.60,4.60,4.44,3.42,-0.85,-0.86,-0.86
88.09,-5.46,-5.46,-4.56,-4.56,4.55,4.36,3.35,-0.91,-0.91,-0.90
88.97,-5.46,-5.45,-4.53,-4.51,4.49,4.28,3.29,-0.97,-0.96,-0.93
89.86,-5.40,-5.41,-4.43,-4.43,4.41,4.19,3.23,-0.99,-0.99,-0.97
90.76,-5.34,-5.34,-4.32,-4.32,4.32,4.10,3.17,-1.03,-1.03,-1.03
91.66,-5.27,-5.28,-4.21,-4.21,4.20,4.02,3.12,-1.07,-1.08,-1.06
92.58,-5.20,-5.22,-4.09,-4.11,4.08,3.93,3.07,-1.12,-1.14,-1.11
93.51,-5.15,-5.12,-4.01,-3.98,3.95,3.85,3.02,-1.20,-1.17,-1.15
94.44,-5.03,-5.01,-3.84,-3.82,3.83,3.76,2.97,-1.20,-1.18,-1.19
95.39,-4.87,-4.90,-3.64,-3.66,3.71,3.68,2.93,-1.16,-1.19,-1.23
96.34,-4.79,-4.80,-3.50,-3.52,3.59,3.61,2.88,-1.20,-1.21,-1.29
97.30,-4.76,-4.77,-3.43,-3.44,3.47,3.53,2.84,-1.29,-1.30,-1.33
98.28,-4.77,-4.79,-3.39,-3.40,3.36,3.46,2.80,-1.41,-1.42,-1.38
99.26,-4.80,-4.75,-3.38,-3.32,3.26,3.38,2.77,-1.54,-1.49,-1.43
100.25,-4.70,-4.67,-3.23,-3.20,3.16,3.31,2.73,-1.54,-1.51,-1.47
101.25,-4.51,-4.58,-2.99,-3.06,3.08,3.24,2.70,-1.43,-1.50,-1.52
102.27,-4.49,-4.49,-2.93,-2.93,2.99,3.17,2.67,-1.50,-1.50,-1.56
103.29,-4.47,-4.47,-2.85,-2.85,2.90,3.10,2.64,-1.58,-1.57,-1.62
104.32,-4.46,-4.46,-2.81,-2.81,2.79,3.03,2.61,-1.67,-1.68,-1.66
105.37,-4.45,-4.42,-2.75,-2.72,2.67,2.96,2.58,-1.78,-1.75,-1.70
106.42,-4.36,-4.37,-2.61,-2.62,2.56,2.89,2.55,-1.80,-1.80,-1.75
107.48,-4.27,-4.29,-2.48,-2.49,2.46,2.82,2.53,-1.81,-1.83,-1.79
108.56,-4.21,-4.19,-2.36,-2.34,2.36,2.76,2.50,-1.85,-1.83,-1.85
109.64,-4.11,-4.11,-2.21,-2.21,2.26,2.69,2.48,-1.85,-1.85,-1.90
110.74,-4.02,-4.05,-2.08,-2.10,2.15,2.62,2.45,-1.87,-1.90,-1.94
111.85,-4.01,-4.02,-2.02,-2.03,2.05,2.56,2.43,-1.96,-1.97,-1.99
112.97,-4.03,-4.02,-1.98,-1.97,1.96,2.49,2.40,-2.07,-2.06,-2.05
114.10,-4.03,-4.01,-1.93,-1.91,1.88,2.43,2.38,-2.16,-2.13,-2.10
115.24,-3.97,-3.99,-1.82,-1.83,1.80,2.37,2.35,-2.17,-2.19,-2.15
116.39,-3.95,-3.95,-1.74,-1.75,1.73,2.30,2.33,-2.22,-2.22,-2.21
117.55,-3.93,-3.93,-1.67,-1.67,1.67,2.24,2.30,-2.26,-2.26,-2.26
118.73,-3.92,-3.92,-1.60,-1.61,1.62,2.18,2.28,-2.30,-2.30,-2.32
119.92,-3.91,-3.91,-1.55,-1.55,1.57,2.11,2.25,-2.34,-2.34,-2.36
121.12,-3.91,-3.91,-1.50,-1.50,1.53,2.05,2.22,-2.38,-2.38,-2.41
122.33,-3.93,-3.93,-1.47,-1.47,1.50,1.99,2.19,-2.43,-2.44,-2.47
123.55,-3.97,-3.98,-1.46,-1.47,1.47,1.93,2.16,-2.50,-2.51,-2.51
124.79,-4.02,-4.03,-1.46,-1.47,1.44,1.87,2.12,-2.58,-2.58,-2.56
126.03,-4.08,-4.06,-1.47,-1.45,1.41,1.81,2.09,-2.67,-2.65,-2.61
127.29,-4.07,-4.07,-1.41,-1.41,1.38,1.75,2.06,-2.69,-2.70,-2.66
128.57,-4.06,-4.07,-1.34,-1.36,1.34,1.69,2.02,-2.72,-2.73,-2.72
129.85,-4.06,-4.06,-1.29,-1.29,1.30,1.63,1.98,-2.76,-2.76,-2.77
131.15,-4.05,-4.05,-1.24,-1.24,1.25,1.57,1.94,-2.80,-2.80,-2.81
132.46,-4.05,-4.04,-1.19,-1.18,1.20,1.51,1.90,-2.85,-2.84,-2.86
133.79,-4.04,-4.04,-1.14,-1.14,1.16,1.45,1.86,-2.88,-2.88,-2.90
135.12,-4.04,-4.06,-1.09,-1.11,1.12,1.40,1.82,-2.92,-2.94,-2.95
136.48,-4.09,-4.09,-1.10,-1.10,1.09,1.34,1.77,-3.00,-2.99,-2.99
137.84,-4.13,-4.11,-1.10,-1.07,1.07,1.28,1.73,-3.06,-3.04,-3.03
139.22,-4.13,-4.14,-1.04,-1.05,1.06,1.23,1.68,-3.08,-3.08,-3.09
140.61,-4.13,-4.16,-1.00,-1.04,1.04,1.17,1.63,-3.09,-3.12,-3.13
142.02,-4.20,-4.19,-1.05,-1.03,1.03,1.11,1.59,-3.18,-3.16,-3.15
143.44,-4.22,-4.21,-1.03,-1.02,1.01,1.06,1.54,-3.21,-3.21,-3.19
144.87,-4.23,-4.23,-1.00,-1.00,0.98,1.00,1.49,-3.25,-3.25,-3.23
146.32,-4.23,-4.23,-0.96,-0.96,0.96,0.95,1.44,-3.28,-3.28,-3.27
147.78,-4.23,-4.23,-0.93,-0.93,0.93,0.89,1.39,-3.31,-3.31,-3.30
149.26,-4.23,-4.23,-0.89,-0.89,0.89,0.84,1.34,-3.34,-3.34,-3.34
150.75,-4.23,-4.23,-0.84,-0.85,0.85,0.79,1.29,-3.38,-3.38,-3.39
152.26,-4.23,-4.23,-0.81,-0.81,0.81,0.73,1.24,-3.42,-3.42,-3.42
153.78,-4.23,-4.23,-0.77,-0.77,0.77,0.68,1.19,-3.46,-3.46,-3.46
155.32,-4.23,-4.23,-0.73,-0.73,0.73,0.63,1.15,-3.50,-3.50,-3.50
156.88,-4.23,-4.23,-0.69,-0.69,0.70,0.57,1.10,-3.54,-3.54,-3.54
158.44,-4.23,-4.23,-0.65,-0.65,0.66,0.52,1.05,-3.57,-3.56,-3.58
160.03,-4.23,-4.23,-0.61,-0.60,0.63,0.47,1.00,-3.60,-3.60,-3.62
161.63,-4.23,-4.25,-0.57,-0.59,0.59,0.42,0.95,-3.64,-3.66,-3.66
163.24,-4.26,-4.27,-0.56,-0.57,0.55,0.37,0.90,-3.71,-3.72,-3.71
164.88,-4.32,-4.28,-0.59,-0.54,0.51,0.31,0.85,-3.81,-3.77,-3.74
166.53,-4.26,-4.26,-0.49,-0.48,0.46,0.26,0.80,-3.81,-3.80,-3.77
168.19,-4.20,-4.21,-0.39,-0.40,0.40,0.21,0.76,-3.80,-3.82,-3.81
169.87,-4.15,-4.18,-0.30,-0.33,0.34,0.16,0.71,-3.81,-3.84,-3.85
171.57,-4.16,-4.15,-0.27,-0.26,0.27,0.11,0.66,-3.89,-3.87,-3.89
173.29,-4.15,-4.12,-0.23,-0.20,0.21,0.06,0.61,-3.94,-3.92,-3.92
175.02,-4.07,-4.10,-0.11,-0.14,0.14,0.02,0.57,-3.93,-3.95,-3.96
176.77,-4.07,-4.07,-0.07,-0.07,0.09,-0.03,0.52,-3.98,-3.99,-4.00
178.54,-4.07,-4.06,-0.02,-0.02,0.03,-0.08,0.48,-4.04,-4.03,-4.05
180.32,-4.07,-4.07,0.01,0.01,-0.01,-0.12,0.43,-4.09,-4.09,-4.08
182.13,-4.07,-4.07,0.04,0.05,-0.06,-0.16,0.39,-4.13,-4.13,-4.11
183.95,-4.06,-4.06,0.09,0.09,-0.11,-0.21,0.34,-4.17,-4.16,-4.16
185.79,-4.04,-4.05,0.15,0.14,-0.15,-0.25,0.30,-4.19,-4.20,-4.19
187.65,-4.03,-4.03,0.20,0.20,-0.19,-0.29,0.25,-4.23,-4.22,-4.23
189.52,-4.01,-4.01,0.25,0.24,-0.24,-0.32,0.21,-4.25,-4.25,-4.26
191.42,-4.00,-4.00,0.29,0.29,-0.29,-0.36,0.16,-4.29,-4.29,-4.29
193.33,-3.99,-3.99,0.32,0.33,-0.33,-0.39,0.12,-4.32,-4.32,-4.32
195.27,-3.97,-3.97,0.37,0.37,-0.37,-0.42,0.08,-4.35,-4.35,-4.34
197.22,-3.96,-3.96,0.41,0.41,-0.41,-0.45,0.04,-4.37,-4.38,-4.37
199.19,-3.95,-3.95,0.46,0.45,-0.45,-0.47,-0.01,-4.40,-4.40,-4.41
201.18,-3.94,-3.94,0.48,0.49,-0.48,-0.50,-0.05,-4.42,-4.42,-4.43
203.19,-3.93,-3.93,0.51,0.51,-0.51,-0.52,-0.09,-4.44,-4.44,-4.44
205.23,-3.93,-3.93,0.54,0.53,-0.53,-0.53,-0.13,-4.46,-4.46,-4.47
207.28,-3.93,-3.93,0.54,0.55,-0.55,-0.55,-0.17,-4.48,-4.48,-4.47
209.35,-3.93,-3.93,0.57,0.56,-0.56,-0.56,-0.21,-4.49,-4.50,-4.50
211.44,-3.94,-3.94,0.58,0.58,-0.57,-0.57,-0.24,-4.52,-4.51,-4.52
213.56,-3.94,-3.94,0.58,0.58,-0.58,-0.57,-0.28,-4.53,-4.53,-4.52
215.69,-3.94,-3.95,0.59,0.59,-0.59,-0.58,-0.32,-4.53,-4.54,-4.53
217.85,-3.95,-3.95,0.59,0.59,-0.60,-0.58,-0.35,-4.55,-4.54,-4.54
220.03,-3.95,-3.95,0.60,0.60,-0.60,-0.58,-0.39,-4.55,-4.55,-4.55
222.23,-3.95,-3.95,0.61,0.61,-0.60,-0.58,-0.42,-4.55,-4.55,-4.56
224.45,-3.95,-3.95,0.60,0.61,-0.60,-0.58,-0.45,-4.56,-4.56,-4.56
226.70,-3.95,-3.95,0.61,0.61,-0.61,-0.57,-0.48,-4.56,-4.56,-4.56
228.96,-3.95,-3.95,0.61,0.61,-0.61,-0.57,-0.51,-4.56,-4.56,-4.56
231.25,-3.94,-3.94,0.61,0.61,-0.62,-0.56,-0.54,-4.56,-4.56,-4.55
233.57,-3.93,-3.93,0.62,0.62,-0.62,-0.56,-0.57,-4.55,-4.55,-4.55
235.90,-3.92,-3.92,0.63,0.63,-0.63,-0.55,-0.59,-4.55,-4.55,-4.55
238.26,-3.90,-3.91,0.65,0.64,-0.64,-0.54,-0.62,-4.54,-4.54,-4.55
240.64,-3.89,-3.89,0.65,0.64,-0.64,-0.53,-0.64,-4.54,-4.54,-4.54
243.05,-3.88,-3.88,0.64,0.65,-0.66,-0.52,-0.65,-4.54,-4.53,-4.53
245.48,-3.86,-3.86,0.65,0.66,-0.66,-0.52,-0.67,-4.53,-4.52,-4.51
247.93,-3.83,-3.83,0.67,0.67,-0.67,-0.51,-0.69,-4.50,-4.51,-4.50
250.41,-3.81,-3.81,0.69,0.68,-0.68,-0.50,-0.70,-4.49,-4.49,-4.50
252.92,-3.79,-3.79,0.69,0.68,-0.68,-0.49,-0.71,-4.47,-4.47,-4.48
255.45,-3.78,-3.78,0.67,0.68,-0.67,-0.48,-0.72,-4.46,-4.46,-4.45
258.00,-3.77,-3.77,0.67,0.67,-0.67,-0.47,-0.73,-4.44,-4.44,-4.44
260.58,-3.77,-3.77,0.66,0.66,-0.66,-0.47,-0.73,-4.43,-4.42,-4.43
263.19,-3.76,-3.77,0.64,0.64,-0.64,-0.46,-0.74,-4.40,-4.41,-4.41
265.82,-3.77,-3.77,0.62,0.62,-0.62,-0.45,-0.74,-4.39,-4.39,-4.39
268.48,-3.77,-3.77,0.60,0.60,-0.60,-0.45,-0.74,-4.37,-4.37,-4.37
271.16,-3.77,-3.78,0.57,0.57,-0.58,-0.44,-0.74,-4.35,-4.35,-4.34
273.87,-3.78,-3.78,0.55,0.55,-0.56,-0.44,-0.74,-4.34,-4.34,-4.33
276.61,-3.78,-3.78,0.52,0.53,-0.54,-0.43,-0.73,-4.32,-4.32,-4.30
279.38,-3.78,-3.78,0.51,0.51,-0.52,-0.43,-0.73,-4.30,-4.30,-4.29
282.17,-3.77,-3.78,0.50,0.50,-0.49,-0.42,-0.72,-4.27,-4.27,-4.28
284.99,-3.77,-3.76,0.48,0.49,-0.47,-0.42,-0.71,-4.24,-4.23,-4.25
287.84,-3.76,-3.76,0.47,0.47,-0.45,-0.42,-0.70,-4.21,-4.21,-4.23
290.72,-3.75,-3.78,0.46,0.43,-0.42,-0.42,-0.70,-4.17,-4.20,-4.21
293.63,-3.82,-3.80,0.37,0.39,-0.40,-0.41,-0.69,-4.22,-4.20,-4.19
296.57,-3.83,-3.82,0.34,0.35,-0.37,-0.41,-0.68,-4.21,-4.19,-4.17
299.53,-3.81,-3.82,0.34,0.33,-0.35,-0.41,-0.67,-4.16,-4.17,-4.15
302.53,-3.80,-3.80,0.33,0.33,-0.32,-0.41,-0.66,-4.12,-4.13,-4.14
305.55,-3.79,-3.79,0.31,0.32,-0.30,-0.41,-0.64,-4.09,-4.09,-4.10
308.61,-3.78,-3.78,0.30,0.30,-0.28,-0.41,-0.63,-4.06,-4.07,-4.08
311.69,-3.78,-3.78,0.28,0.27,-0.27,-0.41,-0.62,-4.05,-4.05,-4.06
314.81,-3.77,-3.78,0.25,0.25,-0.27,-0.41,-0.61,-4.04,-4.05,-4.02
317.96,-3.77,-3.77,0.23,0.24,-0.26,-0.41,-0.60,-4.03,-4.03,-4.00
321.14,-3.76,-3.74,0.23,0.24,-0.26,-0.41,-0.59,-4.02,-4.00,-3.99
324.35,-3.69,-3.71,0.28,0.26,-0.25,-0.41,-0.58,-3.94,-3.96,-3.97
327.59,-3.67,-3.68,0.27,0.27,-0.24,-0.41,-0.57,-3.91,-3.92,-3.94
330.87,-3.67,-3.67,0.25,0.26,-0.24,-0.41,-0.56,-3.91,-3.90,-3.93
334.18,-3.67,-3.67,0.24,0.23,-0.22,-0.42,-0.54,-3.90,-3.90,-3.91
337.52,-3.68,-3.68,0.21,0.21,-0.21,-0.42,-0.53,-3.89,-3.89,-3.89
340.90,-3.68,-3.68,0.18,0.19,-0.19,-0.42,-0.52,-3.87,-3.87,-3.86
344.30,-3.68,-3.68,0.16,0.16,-0.17,-0.43,-0.52,-3.85,-3.85,-3.85
347.75,-3.68,-3.68,0.15,0.15,-0.15,-0.43,-0.51,-3.83,-3.83,-3.83
351.23,-3.68,-3.68,0.13,0.13,-0.13,-0.43,-0.50,-3.82,-3.81,-3.81
354.74,-3.67,-3.68,0.12,0.11,-0.13,-0.44,-0.49,-3.80,-3.81,-3.79
358.28,-3.67,-3.67,0.10,0.11,-0.13,-0.44,-0.48,-3.80,-3.80,-3.77
361.87,-3.66,-3.64,0.10,0.12,-0.13,-0.44,-0.47,-3.80,-3.78,-3.76
365.49,-3.59,-3.61,0.16,0.14,-0.14,-0.45,-0.47,-3.73,-3.74,-3.75
369.14,-3.56,-3.57,0.18,0.17,-0.14,-0.45,-0.46,-3.71,-3.71,-3.74
372.83,-3.54,-3.54,0.18,0.18,-0.15,-0.46,-0.45,-3.69,-3.69,-3.72
376.56,-3.53,-3.53,0.18,0.17,-0.16,-0.47,-0.45,-3.69,-3.69,-3.71
380.33,-3.53,-3.53,0.15,0.16,-0.17,-0.47,-0.44,-3.70,-3.70,-3.69
384.13,-3.52,-3.52,0.16,0.16,-0.18,-0.48,-0.44,-3.70,-3.70,-3.68
387.97,-3.51,-3.50,0.16,0.17,-0.19,-0.48,-0.43,-3.70,-3.69,-3.67
391.85,-3.47,-3.46,0.19,0.20,-0.20,-0.49,-0.43,-3.67,-3.66,-3.66
395.77,-3.41,-3.44,0.23,0.21,-0.20,-0.50,-0.43,-3.62,-3.64,-3.64
399.73,-3.40,-3.41,0.23,0.22,-0.21,-0.50,-0.42,-3.62,-3.62,-3.63
403.72,-3.42,-3.38,0.20,0.24,-0.23,-0.51,-0.42,-3.65,-3.61,-3.62
407.76,-3.35,-3.36,0.26,0.25,-0.24,-0.52,-0.42,-3.59,-3.60,-3.62
411.84,-3.32,-3.34,0.28,0.26,-0.26,-0.53,-0.42,-3.58,-3.60,-3.60
415.96,-3.32,-3.32,0.27,0.27,-0.27,-0.53,-0.42,-3.59,-3.60,-3.59
420.12,-3.32,-3.31,0.26,0.27,-0.29,-0.54,-0.42,-3.61,-3.60,-3.58
424.32,-3.30,-3.28,0.27,0.29,-0.31,-0.55,-0.42,-3.61,-3.58,-3.57
428.56,-3.21,-3.23,0.35,0.33,-0.33,-0.56,-0.42,-3.54,-3.56,-3.56
432.85,-3.17,-3.18,0.38,0.37,-0.35,-0.57,-0.42,-3.52,-3.53,-3.55
437.18,-3.15,-3.15,0.39,0.39,-0.37,-0.58,-0.42,-3.52,-3.52,-3.54
441.55,-3.13,-3.12,0.39,0.41,-0.40,-0.59,-0.43,-3.53,-3.52,-3.53
445.96,-3.08,-3.09,0.43,0.43,-0.44,-0.60,-0.43,-3.52,-3.53,-3.52
450.42,-3.03,-3.04,0.48,0.46,-0.49,-0.61,-0.44,-3.52,-3.53,-3.51
454.93,-2.99,-2.97,0.50,0.52,-0.55,-0.62,-0.44,-3.54,-3.52,-3.49
459.48,-2.90,-2.90,0.58,0.58,-0.61,-0.63,-0.45,-3.51,-3.51,-3.48
464.07,-2.77,-2.79,0.69,0.67,-0.68,-0.64,-0.45,-3.45,-3.48,-3.46
