frequency,raw,smoothed,error,error_smoothed,equalization,parametric_eq,fixed_band_eq,equalized_raw,equalized_smoothed,target
20.00,-6.07,-6.07,-7.16,-7.15,6.00,6.08,2.68,-0.07,-0.07,1.08
20.20,-6.04,-6.04,-7.18,-7.17,6.00,6.08,2.76,-0.04,-0.04,1.13
20.40,-6.00,-6.01,-7.18,-7.19,6.00,6.08,2.84,-0.00,-0.01,1.18
20.61,-5.97,-5.97,-7.18,-7.20,6.00,6.08,2.92,0.03,0.03,1.21
20.81,-5.94,-5.94,-7.20,-7.20,6.00,6.07,3.00,0.06,0.06,1.26
21.02,-5.90,-5.90,-7.20,-7.19,6.00,6.07,3.08,0.10,0.10,1.30
21.23,-5.85,-5.85,-7.17,-7.18,6.00,6.07,3.17,0.15,0.15,1.32
21.44,-5.80,-5.80,-7.14,-7.14,6.00,6.07,3.26,0.20,0.20,1.34
21.66,-5.74,-5.74,-7.10,-7.10,6.00,6.07,3.35,0.26,0.26,1.36
21.87,-5.69,-5.70,-7.06,-7.07,6.00,6.07,3.45,0.31,0.30,1.37
22.09,-5.67,-5.68,-7.06,-7.07,6.00,6.07,3.55,0.33,0.32,1.39
22.31,-5.69,-5.69,-7.09,-7.08,6.00,6.07,3.65,0.31,0.31,1.40
22.54,-5.71,-5.72,-7.11,-7.11,6.00,6.07,3.75,0.29,0.28,1.40
22.76,-5.73,-5.74,-7.13,-7.13,6.00,6.07,3.86,0.27,0.26,1.40
22.99,-5.75,-5.73,-7.14,-7.12,6.00,6.07,3.97,0.25,0.27,1.39
23.22,-5.69,-5.69,-7.08,-7.08,6.00,6.07,4.08,0.31,0.31,1.39
23.45,-5.62,-5.62,-7.01,-7.01,6.00,6.07,4.19,0.38,0.38,1.39
23.69,-5.55,-5.55,-6.95,-6.94,6.00,6.07,4.31,0.45,0.45,1.39
23.92,-5.48,-5.50,-6.87,-6.90,6.00,6.06,4.43,0.52,0.50,1.39
24.16,-5.47,-5.48,-6.87,-6.88,6.00,6.06,4.55,0.53,0.52,1.40
24.40,-5.50,-5.50,-6.91,-6.90,6.00,6.06,4.67,0.50,0.50,1.41
24.65,-5.52,-5.53,-6.92,-6.93,6.00,6.06,4.80,0.48,0.47,1.40
24.89,-5.54,-5.53,-6.94,-6.93,6.00,6.06,4.92,0.46,0.47,1.40
25.14,-5.51,-5.50,-6.91,-6.90,6.00,6.06,5.05,0.49,0.50,1.40
25.39,-5.43,-5.44,-6.84,-6.84,6.00,6.06,5.18,0.57,0.56,1.41
25.65,-5.36,-5.36,-6.77,-6.76,6.00,6.06,5.31,0.64,0.64,1.41
25.91,-5.29,-5.31,-6.69,-6.71,6.00,6.06,5.44,0.71,0.69,1.40
26.16,-5.28,-5.29,-6.68,-6.68,6.00,6.05,5.57,0.72,0.71,1.39
26.43,-5.30,-5.30,-6.69,-6.70,6.00,6.05,5.70,0.70,0.70,1.39
26.69,-5.33,-5.33,-6.72,-6.73,6.00,6.05,5.83,0.67,0.67,1.39
26.96,-5.36,-5.34,-6.76,-6.74,6.00,6.05,5.96,0.64,0.66,1.40
27.23,-5.31,-5.31,-6.71,-6.71,6.00,6.05,6.08,0.69,0.69,1.40
27.50,-5.26,-5.26,-6.66,-6.66,6.00,6.05,6.21,0.74,0.74,1.40
27.77,-5.20,-5.21,-6.59,-6.60,6.00,6.05,6.33,0.80,0.79,1.39
28.05,-5.16,-5.17,-6.55,-6.55,6.00,6.04,6.44,0.84,0.83,1.39
28.33,-5.16,-5.16,-6.54,-6.53,6.00,6.04,6.55,0.84,0.84,1.37
28.62,-5.16,-5.16,-6.53,-6.53,6.00,6.04,6.66,0.84,0.84,1.37
28.90,-5.16,-5.16,-6.54,-6.54,6.00,6.04,6.75,0.84,0.84,1.38
29.19,-5.17,-5.17,-6.54,-6.55,6.00,6.04,6.85,0.83,0.83,1.37
29.48,-5.17,-5.18,-6.56,-6.56,6.00,6.04,6.93,0.83,0.82,1.39
29.78,-5.18,-5.18,-6.56,-6.56,6.00,6.03,7.01,0.82,0.82,1.38
30.08,-5.17,-5.15,-6.56,-6.53,6.00,6.03,7.07,0.83,0.85,1.38
30.38,-5.10,-5.10,-6.47,-6.47,6.00,6.03,7.13,0.90,0.90,1.37
30.68,-5.03,-5.03,-6.40,-6.41,6.00,6.03,7.18,0.97,0.97,1.37
30.99,-4.96,-4.98,-6.33,-6.35,6.00,6.02,7.22,1.04,1.02,1.37
31.30,-4.96,-4.96,-6.33,-6.33,6.00,6.02,7.24,1.04,1.04,1.37
31.61,-4.96,-4.95,-6.33,-6.32,6.00,6.02,7.26,1.04,1.05,1.36
31.93,-4.96,-4.96,-6.32,-6.32,6.00,6.02,7.27,1.04,1.04,1.36
32.24,-4.96,-4.96,-6.31,-6.32,6.00,6.01,7.27,1.04,1.04,1.35
32.57,-4.96,-4.96,-6.32,-6.31,6.00,6.01,7.25,1.04,1.04,1.36
32.89,-4.96,-4.96,-6.32,-6.31,6.00,6.01,7.24,1.04,1.04,1.35
33.22,-4.96,-4.96,-6.30,-6.31,6.00,6.01,7.20,1.04,1.04,1.34
33.55,-4.96,-4.96,-6.30,-6.30,6.00,6.00,7.17,1.04,1.04,1.34
33.89,-4.96,-4.96,-6.29,-6.29,6.00,6.00,7.12,1.04,1.04,1.33
34.23,-4.96,-4.96,-6.29,-6.29,6.00,6.00,7.07,1.04,1.04,1.33
34.57,-4.96,-4.96,-6.28,-6.28,6.00,5.99,7.02,1.04,1.04,1.32
34.92,-4.96,-4.95,-6.28,-6.27,6.00,5.99,6.96,1.04,1.05,1.32
35.27,-4.93,-4.93,-6.24,-6.24,6.00,5.99,6.89,1.07,1.07,1.31
35.62,-4.90,-4.90,-6.21,-6.21,6.00,5.98,6.82,1.10,1.10,1.31
35.97,-4.86,-4.87,-6.17,-6.18,6.00,5.98,6.75,1.14,1.13,1.31
36.33,-4.86,-4.86,-6.17,-6.16,6.00,5.97,6.68,1.14,1.14,1.31
36.70,-4.86,-4.86,-6.16,-6.16,6.00,5.97,6.61,1.14,1.14,1.30
37.06,-4.86,-4.86,-6.16,-6.16,6.00,5.96,6.53,1.14,1.14,1.29
37.43,-4.86,-4.86,-6.17,-6.16,6.00,5.96,6.46,1.14,1.14,1.31
37.81,-4.86,-4.86,-6.17,-6.17,6.00,5.96,6.38,1.14,1.14,1.31
38.19,-4.86,-4.86,-6.16,-6.17,6.00,5.95,6.31,1.14,1.14,1.30
38.57,-4.86,-4.86,-6.17,-6.17,6.00,5.95,6.24,1.14,1.14,1.31
38.95,-4.86,-4.86,-6.17,-6.17,6.00,5.94,6.17,1.14,1.14,1.31
39.34,-4.86,-4.86,-6.17,-6.17,6.00,5.93,6.11,1.14,1.14,1.31
39.74,-4.86,-4.86,-6.16,-6.17,6.00,5.93,6.04,1.14,1.14,1.30
40.14,-4.86,-4.86,-6.17,-6.16,6.00,5.92,5.98,1.14,1.14,1.31
40.54,-4.86,-4.86,-6.16,-6.16,6.00,5.92,5.93,1.14,1.14,1.30
40.94,-4.86,-4.86,-6.16,-6.16,6.00,5.91,5.87,1.14,1.14,1.29
41.35,-4.86,-4.86,-6.15,-6.15,6.00,5.90,5.82,1.14,1.14,1.29
41.76,-4.86,-4.86,-6.14,-6.15,6.00,5.90,5.78,1.14,1.14,1.28
42.18,-4.86,-4.86,-6.15,-6.14,6.00,5.89,5.74,1.14,1.14,1.29
42.60,-4.86,-4.86,-6.13,-6.13,6.00,5.88,5.70,1.14,1.14,1.27
43.03,-4.86,-4.86,-6.12,-6.12,6.00,5.88,5.67,1.14,1.14,1.26
43.46,-4.86,-4.86,-6.12,-6.11,6.00,5.87,5.64,1.14,1.14,1.25
43.90,-4.86,-4.86,-6.09,-6.09,6.00,5.86,5.61,1.14,1.14,1.23
44.33,-4.86,-4.86,-6.07,-6.07,6.00,5.85,5.59,1.14,1.14,1.21
44.78,-4.86,-4.86,-6.05,-6.05,6.00,5.84,5.57,1.14,1.14,1.19
45.23,-4.86,-4.86,-6.04,-6.04,6.00,5.83,5.56,1.14,1.14,1.18
45.68,-4.86,-4.86,-6.03,-6.03,6.00,5.82,5.55,1.13,1.13,1.16
46.13,-4.86,-4.86,-6.01,-6.01,5.99,5.82,5.55,1.13,1.13,1.15
46.60,-4.86,-4.86,-6.01,-6.00,5.99,5.81,5.55,1.13,1.13,1.15
47.06,-4.86,-4.85,-5.99,-5.98,5.99,5.79,5.55,1.12,1.13,1.13
47.53,-4.85,-4.85,-5.97,-5.97,5.99,5.78,5.56,1.13,1.14,1.12
48.01,-4.84,-4.86,-5.96,-5.97,5.99,5.77,5.57,1.14,1.13,1.12
48.49,-4.88,-4.88,-5.98,-5.98,5.99,5.76,5.59,1.10,1.11,1.10
48.97,-4.92,-4.91,-6.00,-5.99,5.98,5.75,5.61,1.06,1.07,1.07
49.46,-4.94,-4.94,-5.99,-6.00,5.98,5.74,5.63,1.04,1.04,1.05
49.96,-4.96,-4.96,-5.99,-6.00,5.98,5.72,5.65,1.02,1.02,1.03
50.46,-4.96,-4.96,-5.99,-5.99,5.98,5.71,5.68,1.02,1.02,1.03
50.96,-4.96,-4.96,-5.98,-5.97,5.97,5.70,5.71,1.01,1.01,1.02
51.47,-4.96,-4.96,-5.95,-5.96,5.97,5.68,5.74,1.00,1.00,0.99
51.99,-4.96,-4.96,-5.94,-5.95,5.95,5.67,5.77,0.99,0.99,0.98
52.51,-4.96,-4.96,-5.94,-5.94,5.94,5.65,5.81,0.98,0.98,0.98
53.03,-4.96,-4.96,-5.93,-5.93,5.93,5.64,5.84,0.97,0.97,0.97
53.56,-4.96,-4.96,-5.92,-5.92,5.92,5.62,5.88,0.95,0.95,0.96
54.10,-4.96,-4.96,-5.90,-5.90,5.90,5.61,5.91,0.94,0.94,0.94
54.64,-4.96,-4.96,-5.89,-5.89,5.89,5.59,5.95,0.93,0.93,0.92
55.18,-4.96,-4.96,-5.88,-5.88,5.88,5.57,5.98,0.92,0.92,0.92
55.74,-4.96,-4.96,-5.86,-5.87,5.86,5.55,6.01,0.90,0.90,0.90
56.29,-4.96,-4.96,-5.86,-5.85,5.85,5.54,6.04,0.89,0.89,0.89
56.86,-4.96,-4.96,-5.84,-5.83,5.84,5.52,6.07,0.88,0.88,0.88
57.42,-4.96,-4.96,-5.81,-5.82,5.82,5.50,6.09,0.86,0.86,0.85
58.00,-4.96,-4.96,-5.80,-5.80,5.81,5.48,6.11,0.84,0.84,0.84
58.58,-4.96,-4.96,-5.79,-5.79,5.79,5.45,6.12,0.82,0.82,0.83
59.16,-4.96,-4.96,-5.77,-5.77,5.76,5.43,6.13,0.80,0.80,0.81
59.76,-4.96,-4.96,-5.75,-5.74,5.74,5.41,6.13,0.77,0.77,0.79
60.35,-4.96,-4.96,-5.71,-5.71,5.71,5.39,6.13,0.74,0.74,0.74
60.96,-4.96,-4.96,-5.67,-5.67,5.67,5.36,6.12,0.71,0.71,0.71
61.57,-4.96,-4.96,-5.63,-5.63,5.63,5.34,6.11,0.67,0.67,0.67
62.18,-4.96,-4.96,-5.59,-5.59,5.58,5.31,6.08,0.62,0.62,0.63
62.80,-4.96,-4.96,-5.54,-5.54,5.53,5.29,6.05,0.57,0.57,0.58
63.43,-4.96,-4.96,-5.50,-5.50,5.49,5.26,6.02,0.52,0.52,0.54
64.07,-4.96,-4.96,-5.45,-5.45,5.45,5.23,5.97,0.48,0.49,0.49
64.71,-4.95,-4.95,-5.39,-5.40,5.41,5.20,5.92,0.46,0.47,0.44
65.35,-4.95,-4.95,-5.36,-5.36,5.39,5.17,5.87,0.44,0.44,0.41
66.01,-4.96,-4.98,-5.32,-5.33,5.37,5.14,5.80,0.41,0.39,0.36
66.67,-5.03,-5.03,-5.34,-5.34,5.36,5.11,5.74,0.33,0.33,0.31
67.33,-5.09,-5.09,-5.35,-5.35,5.34,5.08,5.66,0.25,0.25,0.26
68.01,-5.15,-5.15,-5.37,-5.36,5.32,5.05,5.58,0.17,0.18,0.22
68.69,-5.18,-5.17,-5.35,-5.34,5.30,5.01,5.50,0.12,0.13,0.17
69.37,-5.18,-5.18,-5.30,-5.30,5.26,4.98,5.41,0.08,0.09,0.12
70.07,-5.16,-5.17,-5.22,-5.24,5.22,4.94,5.32,0.06,0.05,0.06
70.77,-5.16,-5.16,-5.18,-5.18,5.18,4.91,5.22,0.01,0.01,0.02
71.48,-5.16,-5.14,-5.13,-5.10,5.13,4.87,5.12,-0.03,-0.02,-0.04
72.19,-5.14,-5.14,-5.04,-5.04,5.08,4.83,5.03,-0.06,-0.06,-0.10
72.91,-5.12,-5.16,-4.96,-5.00,5.04,4.79,4.92,-0.08,-0.12,-0.16
73.64,-5.21,-5.19,-5.00,-4.97,5.00,4.75,4.82,-0.21,-0.19,-0.21
74.38,-5.26,-5.25,-4.99,-4.98,4.97,4.71,4.72,-0.29,-0.28,-0.27
75.12,-5.28,-5.32,-4.95,-4.98,4.95,4.67,4.62,-0.33,-0.37,-0.33
75.87,-5.38,-5.34,-4.99,-4.95,4.93,4.63,4.51,-0.45,-0.41,-0.39
76.63,-5.36,-5.35,-4.92,-4.91,4.91,4.58,4.41,-0.45,-0.44,-0.44
77.40,-5.34,-5.38,-4.85,-4.88,4.90,4.54,4.31,-0.45,-0.48,-0.49
78.17,-5.38,-5.39,-4.83,-4.85,4.87,4.49,4.21,-0.51,-0.52,-0.55
78.95,-5.46,-5.43,-4.88,-4.84,4.84,4.44,4.11,-0.62,-0.59,-0.59
79.74,-5.46,-5.46,-4.82,-4.82,4.80,4.40,4.01,-0.66,-0.66,-0.64
80.54,-5.46,-5.47,-4.78,-4.78,4.76,4.35,3.91,-0.70,-0.70,-0.68
81.35,-5.46,-5.46,-4.72,-4.73,4.73,4.30,3.82,-0.74,-0.74,-0.74
82.16,-5.46,-5.46,-4.68,-4.68,4.69,4.25,3.72,-0.78,-0.77,-0.78
82.98,-5.46,-5.46,-4.64,-4.63,4.64,4.19,3.63,-0.82,-0.82,-0.82
83.81,-5.44,-5.46,-4.57,-4.59,4.60,4.14,3.54,-0.84,-0.87,-0.88
84.65,-5.48,-5.46,-4.56,-4.54,4.55,4.09,3.46,-0.93,-0.91,-0.92
85.50,-5.47,-5.46,-4.51,-4.49,4.50,4.03,3.37,-0.97,-0.96,-0.96
86.35,-5.44,-5.46,-4.43,-4.45,4.45,3.98,3.29,-0.99,-1.01,-1.01
87.22,-5.45,-5.46,-4.39,-4.40,4.40,3.92,3.21,-1.05,-1.06,-1.06
88.09,-5.46,-5.46,-4.35,-4.35,4.34,3.86,3.13,-1.13,-1.12,-1.11
88.97,-5.46,-5.45,-4.30,-4.28,4.26,3.80,3.06,-1.20,-1.18,-1.16
89.86,-5.40,-5.41,-4.19,-4.19,4.18,3.74,2.98,-1.23,-1.23,-1.21
90.76,-5.34,-5.34,-4.07,-4.08,4.07,3.68,2.91,-1.27,-1.27,-1.27
91.66,-5.27,-5.28,-3.96,-3.96,3.95,3.61,2.84,-1.32,-1.33,-1.31
92.58,-5.20,-5.22,-3.83,-3.85,3.82,3.55,2.78,-1.38,-1.40,-1.37
93.51,-5.15,-5.12,-3.74,-3.71,3.69,3.48,2.71,-1.46,-1.44,-1.42
94.44,-5.03,-5.01,-3.57,-3.55,3.56,3.41,2.65,-1.47,-1.45,-1.46
95.39,-4.87,-4.90,-3.37,-3.39,3.44,3.34,2.59,-1.43,-1.46,-1.50
96.34,-4.79,-4.80,-3.23,-3.25,3.32,3.27,2.54,-1.47,-1.48,-1.56
97.30,-4.76,-4.77,-3.16,-3.17,3.20,3.20,2.48,-1.56,-1.57,-1.60
98.28,-4.77,-4.79,-3.12,-3.13,3.09,3.12,2.43,-1.68,-1.70,-1.65
99.26,-4.80,-4.75,-3.11,-3.05,2.99,3.05,2.37,-1.82,-1.76,-1.70
100.25,-4.70,-4.67,-2.96,-2.93,2.89,2.97,2.32,-1.81,-1.78,-1.74
101.25,-4.51,-4.58,-2.72,-2.79,2.81,2.89,2.28,-1.70,-1.77,-1.79
102.27,-4.49,-4.49,-2.66,-2.66,2.72,2.80,2.23,-1.77,-1.77,-1.83
103.29,-4.47,-4.47,-2.58,-2.58,2.63,2.72,2.18,-1.85,-1.84,-1.89
104.32,-4.46,-4.46,-2.54,-2.54,2.52,2.63,2.14,-1.95,-1.95,-1.93
105.37,-4.45,-4.42,-2.48,-2.45,2.40,2.54,2.10,-2.05,-2.02,-1.97
106.42,-4.36,-4.37,-2.34,-2.35,2.29,2.44,2.06,-2.07,-2.08,-2.02
107.48,-4.27,-4.29,-2.20,-2.21,2.18,2.35,2.02,-2.09,-2.11,-2.08
108.56,-4.21,-4.19,-2.08,-2.06,2.08,2.25,1.98,-2.13,-2.11,-2.13
109.64,-4.11,-4.11,-1.93,-1.93,1.97,2.15,1.94,-2.14,-2.13,-2.18
110.74,-4.02,-4.05,-1.79,-1.82,1.87,2.05,1.90,-2.15,-2.18,-2.23
111.85,-4.01,-4.02,-1.74,-1.74,1.77,1.95,1.87,-2.24,-2.25,-2.27
112.97,-4.03,-4.02,-1.70,-1.69,1.68,1.85,1.83,-2.35,-2.34,-2.33
114.10,-4.03,-4.01,-1.65,-1.63,1.60,1.76,1.80,-2.43,-2.41,-2.38
115.24,-3.97,-3.99,-1.55,-1.56,1.53,1.67,1.76,-2.44,-2.46,-2.42
116.39,-3.95,-3.95,-1.47,-1.48,1.47,1.59,1.73,-2.48,-2.48,-2.48
117.55,-3.93,-3.93,-1.42,-1.41,1.42,1.53,1.70,-2.51,-2.51,-2.51
118.73,-3.92,-3.92,-1.36,-1.37,1.38,1.47,1.66,-2.54,-2.54,-2.56
119.92,-3.91,-3.91,-1.33,-1.32,1.35,1.42,1.63,-2.57,-2.56,-2.58
121.12,-3.91,-3.91,-1.29,-1.29,1.32,1.38,1.60,-2.59,-2.59,-2.62
122.33,-3.93,-3.93,-1.28,-1.28,1.31,1.35,1.57,-2.62,-2.63,-2.66
123.55,-3.97,-3.98,-1.29,-1.30,1.30,1.33,1.53,-2.67,-2.68,-2.68
124.79,-4.02,-4.03,-1.31,-1.32,1.30,1.31,1.50,-2.73,-2.73,-2.71
126.03,-4.08,-4.06,-1.34,-1.32,1.29,1.29,1.47,-2.79,-2.77,-2.74
127.29,-4.07,-4.07,-1.31,-1.31,1.27,1.28,1.44,-2.80,-2.80,-2.76
128.57,-4.06,-4.07,-1.26,-1.28,1.26,1.26,1.40,-2.80,-2.81,-2.80
129.85,-4.06,-4.06,-1.23,-1.23,1.23,1.25,1.37,-2.83,-2.82,-2.83
131.15,-4.05,-4.05,-1.20,-1.20,1.21,1.23,1.34,-2.84,-2.84,-2.85
132.46,-4.05,-4.04,-1.17,-1.16,1.18,1.21,1.31,-2.87,-2.86,-2.88
133.79,-4.04,-4.04,-1.13,-1.13,1.15,1.19,1.27,-2.89,-2.89,-2.91
135.12,-4.04,-4.06,-1.10,-1.12,1.13,1.16,1.24,-2.91,-2.93,-2.94
136.48,-4.09,-4.09,-1.13,-1.12,1.12,1.13,1.21,-2.97,-2.97,-2.96
137.84,-4.13,-4.11,-1.14,-1.11,1.12,1.11,1.17,-3.02,-2.99,-2.99
139.22,-4.13,-4.14,-1.10,-1.11,1.11,1.08,1.14,-3.02,-3.02,-3.03
140.61,-4.13,-4.16,-1.07,-1.11,1.11,1.04,1.11,-3.02,-3.05,-3.06
142.02,-4.20,-4.19,-1.13,-1.11,1.11,1.01,1.07,-3.09,-3.08,-3.07
143.44,-4.22,-4.21,-1.12,-1.11,1.10,0.98,1.04,-3.13,-3.12,-3.10
144.87,-4.23,-4.23,-1.09,-1.09,1.08,0.94,1.01,-3.16,-3.16,-3.14
146.32,-4.23,-4.23,-1.05,-1.06,1.05,0.90,0.97,-3.18,-3.19,-3.18
147.78,-4.23,-4.23,-1.02,-1.01,1.01,0.87,0.94,-3.22,-3.22,-3.21
149.26,-4.23,-4.23,-0.97,-0.97,0.96,0.83,0.91,-3.27,-3.27,-3.26
150.75,-4.23,-4.23,-0.90,-0.91,0.91,0.79,0.88,-3.33,-3.33,-3.33
152.26,-4.23,-4.23,-0.84,-0.84,0.84,0.75,0.84,-3.39,-3.39,-3.39
153.78,-4.23,-4.23,-0.77,-0.77,0.76,0.71,0.81,-3.47,-3.47,-3.46
155.32,-4.23,-4.23,-0.70,-0.70,0.69,0.66,0.78,-3.54,-3.54,-3.53
156.88,-4.23,-4.23,-0.62,-0.62,0.62,0.62,0.75,-3.61,-3.61,-3.61
158.44,-4.23,-4.23,-0.54,-0.54,0.56,0.58,0.72,-3.68,-3.67,-3.69
160.03,-4.23,-4.23,-0.46,-0.46,0.49,0.54,0.68,-3.74,-3.74,-3.77
161.63,-4.23,-4.25,-0.39,-0.41,0.42,0.50,0.65,-3.81,-3.83,-3.84
163.24,-4.26,-4.27,-0.36,-0.37,0.35,0.45,0.62,-3.91,-3.92,-3.91
164.88,-4.32,-4.28,-0.37,-0.32,0.29,0.41,0.59,-4.03,-3.99,-3.96
166.53,-4.26,-4.26,-0.26,-0.25,0.23,0.37,0.56,-4.03,-4.03,-4.00
168.19,-4.20,-4.21,-0.16,-0.17,0.17,0.32,0.53,-4.03,-4.05,-4.04
169.87,-4.15,-4.18,-0.07,-0.10,0.11,0.28,0.50,-4.04,-4.06,-4.08
171.57,-4.16,-4.15,-0.06,-0.05,0.07,0.23,0.47,-4.10,-4.08,-4.10
173.29,-4.15,-4.12,-0.04,-0.01,0.02,0.19,0.44,-4.13,-4.10,-4.11
175.02,-4.07,-4.10,0.05,0.02,-0.01,0.15,0.41,-4.08,-4.11,-4.12
176.77,-4.07,-4.07,0.06,0.06,-0.04,0.11,0.39,-4.11,-4.11,-4.13
178.54,-4.07,-4.06,0.07,0.07,-0.05,0.06,0.36,-4.13,-4.12,-4.14
180.32,-4.07,-4.07,0.06,0.06,-0.07,0.02,0.33,-4.14,-4.14,-4.13
182.13,-4.07,-4.07,0.05,0.06,-0.08,-0.02,0.30,-4.15,-4.15,-4.12
183.95,-4.06,-4.06,0.07,0.07,-0.09,-0.06,0.27,-4.15,-4.15,-4.14
185.79,-4.04,-4.05,0.10,0.10,-0.11,-0.09,0.24,-4.15,-4.15,-4.14
187.65,-4.03,-4.03,0.13,0.13,-0.13,-0.13,0.22,-4.16,-4.16,-4.16
189.52,-4.01,-4.01,0.16,0.15,-0.15,-0.16,0.19,-4.16,-4.17,-4.17
191.42,-4.00,-4.00,0.19,0.19,-0.18,-0.19,0.16,-4.18,-4.18,-4.19
193.33,-3.99,-3.99,0.21,0.22,-0.22,-0.21,0.14,-4.21,-4.20,-4.21
195.27,-3.97,-3.97,0.25,0.25,-0.25,-0.24,0.11,-4.22,-4.23,-4.22
197.22,-3.96,-3.96,0.28,0.28,-0.28,-0.26,0.08,-4.24,-4.24,-4.24
199.19,-3.95,-3.95,0.32,0.32,-0.31,-0.28,0.06,-4.26,-4.26,-4.27
201.18,-3.94,-3.94,0.34,0.35,-0.34,-0.29,0.03,-4.28,-4.28,-4.29
203.19,-3.93,-3.93,0.37,0.37,-0.37,-0.31,0.00,-4.30,-4.30,-4.30
205.23,-3.93,-3.93,0.40,0.39,-0.39,-0.32,-0.02,-4.32,-4.32,-4.33
207.28,-3.93,-3.93,0.40,0.41,-0.41,-0.32,-0.05,-4.34,-4.34,-4.33
209.35,-3.93,-3.93,0.43,0.43,-0.43,-0.33,-0.07,-4.36,-4.36,-4.36
211.44,-3.94,-3.94,0.45,0.44,-0.44,-0.33,-0.09,-4.38,-4.38,-4.39
213.56,-3.94,-3.94,0.45,0.46,-0.46,-0.33,-0.12,-4.40,-4.40,-4.39
215.69,-3.94,-3.95,0.47,0.46,-0.47,-0.33,-0.14,-4.41,-4.41,-4.41
217.85,-3.95,-3.95,0.47,0.47,-0.48,-0.33,-0.16,-4.43,-4.43,-4.42
220.03,-3.95,-3.95,0.48,0.49,-0.48,-0.32,-0.19,-4.44,-4.43,-4.43
222.23,-3.95,-3.95,0.50,0.49,-0.49,-0.32,-0.21,-4.44,-4.44,-4.45
224.45,-3.95,-3.95,0.49,0.50,-0.49,-0.31,-0.23,-4.44,-4.44,-4.45
226.70,-3.95,-3.95,0.50,0.50,-0.49,-0.31,-0.25,-4.45,-4.45,-4.45
228.96,-3.95,-3.95,0.49,0.49,-0.49,-0.30,-0.27,-4.45,-4.44,-4.44
231.25,-3.94,-3.94,0.49,0.49,-0.49,-0.30,-0.28,-4.44,-4.44,-4.43
233.57,-3.93,-3.93,0.49,0.49,-0.49,-0.29,-0.30,-4.42,-4.42,-4.42
235.90,-3.92,-3.92,0.49,0.49,-0.49,-0.29,-0.32,-4.41,-4.40,-4.41
238.26,-3.90,-3.91,0.50,0.49,-0.48,-0.28,-0.33,-4.38,-4.39,-4.40
240.64,-3.89,-3.89,0.49,0.48,-0.48,-0.28,-0.35,-4.37,-4.37,-4.38
243.05,-3.88,-3.88,0.46,0.47,-0.48,-0.27,-0.36,-4.36,-4.35,-4.35
245.48,-3.86,-3.86,0.46,0.46,-0.47,-0.27,-0.37,-4.33,-4.33,-4.32
247.93,-3.83,-3.83,0.46,0.46,-0.47,-0.27,-0.38,-4.30,-4.30,-4.29
250.41,-3.81,-3.81,0.47,0.46,-0.46,-0.26,-0.39,-4.27,-4.27,-4.28
252.92,-3.79,-3.79,0.46,0.46,-0.45,-0.26,-0.40,-4.24,-4.24,-4.25
255.45,-3.78,-3.78,0.44,0.45,-0.44,-0.26,-0.41,-4.22,-4.22,-4.22
258.00,-3.77,-3.77,0.43,0.43,-0.43,-0.26,-0.42,-4.20,-4.20,-4.20
260.58,-3.77,-3.77,0.42,0.41,-0.41,-0.25,-0.42,-4.18,-4.18,-4.19
263.19,-3.76,-3.77,0.39,0.40,-0.39,-0.25,-0.43,-4.15,-4.16,-4.16
265.82,-3.77,-3.77,0.37,0.37,-0.37,-0.25,-0.43,-4.14,-4.14,-4.14
268.48,-3.77,-3.77,0.35,0.34,-0.34,-0.25,-0.43,-4.11,-4.11,-4.12
271.16,-3.77,-3.78,0.31,0.31,-0.32,-0.25,-0.43,-4.09,-4.09,-4.08
273.87,-3.78,-3.78,0.29,0.28,-0.29,-0.26,-0.44,-4.07,-4.07,-4.07
276.61,-3.78,-3.78,0.25,0.26,-0.27,-0.26,-0.44,-4.05,-4.05,-4.03
279.38,-3.78,-3.78,0.23,0.23,-0.24,-0.26,-0.44,-4.02,-4.02,-4.01
282.17,-3.77,-3.78,0.21,0.21,-0.21,-0.26,-0.43,-3.98,-3.98,-3.99
284.99,-3.77,-3.76,0.18,0.19,-0.18,-0.26,-0.43,-3.95,-3.94,-3.95
287.84,-3.76,-3.76,0.17,0.17,-0.14,-0.26,-0.43,-3.90,-3.91,-3.93
290.72,-3.75,-3.78,0.15,0.12,-0.11,-0.27,-0.43,-3.86,-3.89,-3.90
293.63,-3.82,-3.80,0.05,0.07,-0.08,-0.27,-0.43,-3.90,-3.88,-3.87
296.57,-3.83,-3.82,0.01,0.03,-0.05,-0.27,-0.42,-3.88,-3.86,-3.84
299.53,-3.81,-3.82,0.00,-0.01,-0.01,-0.28,-0.42,-3.82,-3.83,-3.81
302.53,-3.80,-3.80,-0.01,-0.02,0.02,-0.28,-0.42,-3.78,-3.78,-3.80
305.55,-3.79,-3.79,-0.04,-0.03,0.05,-0.29,-0.41,-3.75,-3.74,-3.75
308.61,-3.78,-3.78,-0.05,-0.05,0.06,-0.29,-0.41,-3.72,-3.72,-3.73
311.69,-3.78,-3.78,-0.07,-0.08,0.07,-0.29,-0.41,-3.71,-3.71,-3.71
314.81,-3.77,-3.78,-0.09,-0.10,0.08,-0.30,-0.40,-3.70,-3.70,-3.68
317.96,-3.77,-3.77,-0.11,-0.10,0.08,-0.30,-0.40,-3.70,-3.69,-3.66
321.14,-3.76,-3.74,-0.10,-0.09,0.08,-0.31,-0.39,-3.68,-3.66,-3.66
324.35,-3.69,-3.71,-0.05,-0.07,0.08,-0.32,-0.39,-3.61,-3.63,-3.64
327.59,-3.67,-3.68,-0.05,-0.05,0.08,-0.32,-0.39,-3.59,-3.60,-3.62
330.87,-3.67,-3.67,-0.06,-0.05,0.08,-0.33,-0.38,-3.59,-3.59,-3.62
334.18,-3.67,-3.67,-0.07,-0.07,0.08,-0.33,-0.38,-3.59,-3.59,-3.60
337.52,-3.68,-3.68,-0.09,-0.09,0.09,-0.34,-0.38,-3.59,-3.59,-3.59
340.90,-3.68,-3.68,-0.11,-0.10,0.10,-0.35,-0.38,-3.58,-3.58,-3.57
344.30,-3.68,-3.68,-0.12,-0.11,0.11,-0.35,-0.37,-3.57,-3.57,-3.57
347.75,-3.68,-3.68,-0.11,-0.12,0.12,-0.36,-0.37,-3.57,-3.56,-3.57
351.23,-3.68,-3.68,-0.12,-0.12,0.12,-0.37,-0.37,-3.57,-3.56,-3.56
354.74,-3.67,-3.68,-0.11,-0.12,0.11,-0.37,-0.37,-3.57,-3.57,-3.56
358.28,-3.67,-3.67,-0.12,-0.11,0.09,-0.38,-0.37,-3.58,-3.58,-3.55
361.87,-3.66,-3.64,-0.10,-0.09,0.07,-0.39,-0.37,-3.59,-3.57,-3.56
365.49,-3.59,-3.61,-0.04,-0.05,0.05,-0.40,-0.37,-3.54,-3.55,-3.55
369.14,-3.56,-3.57,-0.00,-0.01,0.03,-0.41,-0.37,-3.53,-3.53,-3.56
372.83,-3.54,-3.54,0.02,0.02,0.01,-0.42,-0.37,-3.53,-3.53,-3.56
376.56,-3.53,-3.53,0.03,0.03,-0.01,-0.42,-0.37,-3.55,-3.55,-3.56
380.33,-3.53,-3.53,0.02,0.03,-0.04,-0.43,-0.37,-3.57,-3.57,-3.56
384.13,-3.52,-3.52,0.04,0.04,-0.06,-0.44,-0.37,-3.58,-3.59,-3.56
387.97,-3.51,-3.50,0.06,0.07,-0.09,-0.45,-0.37,-3.60,-3.59,-3.57
391.85,-3.47,-3.46,0.11,0.11,-0.11,-0.46,-0.37,-3.58,-3.57,-3.58
395.77,-3.41,-3.44,0.16,0.14,-0.14,-0.47,-0.38,-3.55,-3.57,-3.57
399.73,-3.40,-3.41,0.18,0.17,-0.16,-0.48,-0.38,-3.57,-3.57,-3.58
403.72,-3.42,-3.38,0.16,0.20,-0.19,-0.49,-0.38,-3.61,-3.58,-3.59
407.76,-3.35,-3.36,0.24,0.23,-0.22,-0.50,-0.39,-3.57,-3.59,-3.60
411.84,-3.32,-3.34,0.28,0.26,-0.25,-0.51,-0.39,-3.58,-3.59,-3.60
415.96,-3.32,-3.32,0.28,0.28,-0.28,-0.52,-0.39,-3.61,-3.61,-3.60
420.12,-3.32,-3.31,0.28,0.29,-0.31,-0.54,-0.40,-3.63,-3.62,-3.60
424.32,-3.30,-3.28,0.30,0.32,-0.33,-0.55,-0.41,-3.64,-3.61,-3.60
428.56,-3.21,-3.23,0.38,0.37,-0.36,-0.56,-0.41,-3.57,-3.59,-3.59
432.85,-3.17,-3.18,0.41,0.40,-0.37,-0.57,-0.42,-3.55,-3.56,-3.58
437.18,-3.15,-3.15,0.42,0.42,-0.39,-0.59,-0.43,-3.54,-3.54,-3.57
441.55,-3.13,-3.12,0.40,0.42,-0.41,-0.60,-0.43,-3.54,-3.53,-3.54
445.96,-3.08,-3.09,0.42,0.42,-0.43,-0.61,-0.44,-3.51,-3.52,-3.51
450.42,-3.03,-3.04,0.45,0.43,-0.45,-0.63,-0.45,-3.49,-3.50,-3.48
454.93,-2.99,-2.97,0.44,0.46,-0.48,-0.64,-0.46,-3.47,-3.46,-3.43
459.48,-2.90,-2.90,0.48,0.48,-0.52,-0.65,-0.47,-3.42,-3.41,-3.38
464.07,-2.77,-2.79,0.56,0.53,-0.55,-0.67,-0.48,-3.32,-3.35,-3.33
