frequency,raw,error,smoothed,error_smoothed,equalization,parametric_eq,fixed_band_eq,equalized_raw,equalized_smoothed,target
20.00,17.60,4.96,17.60,4.96,-4.99,-3.76,-2.18,12.62,12.61,12.64
20.20,17.60,4.99,17.61,4.99,-5.00,-3.76,-2.24,12.61,12.61,12.62
20.40,17.60,5.01,17.61,5.01,-5.00,-3.76,-2.30,12.60,12.61,12.60
20.61,17.60,5.02,17.61,5.02,-5.01,-3.76,-2.37,12.59,12.60,12.59
20.81,17.60,5.04,17.60,5.04,-5.01,-3.76,-2.44,12.59,12.59,12.56
21.02,17.60,5.05,17.59,5.04,-5.01,-3.76,-2.51,12.59,12.58,12.55
21.23,17.56,5.03,17.57,5.03,-5.01,-3.76,-2.58,12.55,12.55,12.53
21.44,17.53,5.01,17.53,5.01,-5.01,-3.76,-2.66,12.52,12.52,12.52
21.66,17.50,4.99,17.50,4.99,-5.00,-3.76,-2.74,12.50,12.50,12.51
21.87,17.47,4.98,17.47,4.98,-4.99,-3.76,-2.82,12.48,12.48,12.49
22.09,17.45,4.97,17.45,4.98,-4.98,-3.76,-2.90,12.47,12.47,12.48
22.31,17.44,4.97,17.44,4.97,-4.98,-3.76,-2.98,12.46,12.46,12.47
22.54,17.43,4.98,17.43,4.97,-4.98,-3.76,-3.07,12.46,12.45,12.46
22.76,17.42,4.98,17.42,4.98,-4.98,-3.76,-3.16,12.44,12.44,12.45
22.99,17.41,4.98,17.42,4.98,-4.99,-3.76,-3.25,12.43,12.43,12.43
23.22,17.41,4.99,17.41,4.99,-4.99,-3.76,-3.34,12.42,12.42,12.42
23.45,17.41,4.99,17.41,5.00,-4.99,-3.75,-3.43,12.42,12.42,12.42
23.69,17.41,5.00,17.41,5.00,-4.99,-3.75,-3.53,12.42,12.42,12.41
23.92,17.41,5.00,17.41,5.00,-4.98,-3.75,-3.63,12.43,12.43,12.41
24.16,17.39,4.98,17.39,4.98,-4.97,-3.75,-3.73,12.42,12.42,12.41
24.40,17.36,4.96,17.36,4.96,-4.95,-3.75,-3.83,12.41,12.41,12.41
24.65,17.33,4.93,17.33,4.93,-4.94,-3.75,-3.93,12.40,12.40,12.40
24.89,17.30,4.90,17.30,4.90,-4.91,-3.75,-4.04,12.39,12.39,12.40
25.14,17.28,4.88,17.28,4.88,-4.89,-3.75,-4.14,12.39,12.39,12.40
25.39,17.26,4.86,17.26,4.86,-4.87,-3.75,-4.25,12.40,12.40,12.40
25.65,17.24,4.84,17.25,4.84,-4.84,-3.75,-4.36,12.40,12.40,12.40
25.91,17.23,4.83,17.23,4.82,-4.82,-3.74,-4.46,12.41,12.41,12.41
26.16,17.20,4.80,17.21,4.80,-4.80,-3.74,-4.57,12.40,12.41,12.40
26.43,17.18,4.78,17.18,4.78,-4.78,-3.74,-4.68,12.41,12.40,12.40
26.69,17.15,4.75,17.15,4.75,-4.75,-3.74,-4.78,12.40,12.40,12.40
26.96,17.12,4.73,17.13,4.73,-4.73,-3.74,-4.88,12.39,12.40,12.40
27.23,17.10,4.71,17.10,4.70,-4.71,-3.74,-4.98,12.40,12.39,12.40
27.50,17.07,4.68,17.07,4.68,-4.68,-3.74,-5.08,12.39,12.39,12.39
27.77,17.05,4.66,17.05,4.66,-4.66,-3.73,-5.17,12.39,12.39,12.39
28.05,17.02,4.63,17.02,4.64,-4.64,-3.73,-5.27,12.38,12.39,12.39
28.33,17.00,4.63,17.00,4.62,-4.62,-3.73,-5.35,12.38,12.38,12.38
28.62,16.97,4.60,16.97,4.60,-4.60,-3.73,-5.43,12.38,12.38,12.37
28.90,16.94,4.57,16.94,4.57,-4.57,-3.73,-5.51,12.37,12.37,12.37
29.19,16.91,4.55,16.92,4.55,-4.55,-3.73,-5.58,12.36,12.37,12.37
29.48,16.89,4.53,16.89,4.52,-4.52,-3.72,-5.63,12.37,12.36,12.36
29.78,16.86,4.50,16.86,4.50,-4.50,-3.72,-5.69,12.36,12.36,12.36
30.08,16.83,4.48,16.83,4.48,-4.48,-3.72,-5.73,12.36,12.36,12.36
30.38,16.80,4.45,16.80,4.45,-4.46,-3.72,-5.77,12.35,12.35,12.35
30.68,16.77,4.43,16.77,4.43,-4.43,-3.72,-5.80,12.34,12.34,12.34
30.99,16.74,4.41,16.74,4.41,-4.41,-3.71,-5.82,12.33,12.33,12.34
31.30,16.72,4.40,16.72,4.39,-4.39,-3.71,-5.83,12.33,12.33,12.32
31.61,16.69,4.37,16.69,4.38,-4.37,-3.71,-5.83,12.32,12.32,12.32
31.93,16.67,4.36,16.67,4.36,-4.35,-3.70,-5.82,12.32,12.32,12.32
32.24,16.63,4.33,16.63,4.33,-4.33,-3.70,-5.81,12.31,12.31,12.30
32.57,16.60,4.31,16.60,4.30,-4.30,-3.70,-5.78,12.30,12.30,12.30
32.89,16.56,4.27,16.56,4.27,-4.27,-3.70,-5.75,12.29,12.29,12.29
33.22,16.53,4.24,16.53,4.24,-4.24,-3.69,-5.70,12.29,12.29,12.29
33.55,16.49,4.21,16.49,4.21,-4.21,-3.69,-5.66,12.28,12.28,12.28
33.89,16.46,4.17,16.46,4.18,-4.18,-3.69,-5.60,12.28,12.28,12.29
34.23,16.43,4.15,16.43,4.15,-4.15,-3.68,-5.54,12.28,12.28,12.28
34.57,16.40,4.13,16.40,4.12,-4.12,-3.68,-5.47,12.28,12.28,12.28
34.92,16.37,4.09,16.37,4.09,-4.09,-3.67,-5.40,12.28,12.28,12.28
35.27,16.33,4.06,16.34,4.06,-4.06,-3.67,-5.32,12.27,12.28,12.28
35.62,16.30,4.02,16.30,4.02,-4.03,-3.66,-5.24,12.28,12.27,12.28
35.97,16.26,3.99,16.27,3.99,-3.99,-3.66,-5.16,12.27,12.27,12.27
36.33,16.23,3.97,16.23,3.96,-3.95,-3.65,-5.07,12.28,12.28,12.27
36.70,16.19,3.93,16.19,3.93,-3.92,-3.65,-4.98,12.27,12.28,12.26
37.06,16.15,3.90,16.14,3.89,-3.89,-3.64,-4.89,12.27,12.26,12.25
37.43,16.08,3.85,16.08,3.84,-3.86,-3.64,-4.80,12.23,12.22,12.24
37.81,16.01,3.78,16.02,3.80,-3.83,-3.63,-4.71,12.19,12.20,12.23
38.19,15.97,3.76,15.99,3.78,-3.80,-3.63,-4.62,12.18,12.19,12.21
38.57,15.97,3.78,15.97,3.78,-3.77,-3.62,-4.53,12.20,12.20,12.19
38.95,15.97,3.80,15.95,3.77,-3.75,-3.61,-4.45,12.22,12.20,12.17
39.34,15.90,3.75,15.90,3.74,-3.73,-3.61,-4.36,12.17,12.17,12.15
39.74,15.83,3.69,15.84,3.70,-3.71,-3.60,-4.27,12.12,12.13,12.15
40.14,15.78,3.66,15.80,3.68,-3.69,-3.59,-4.19,12.09,12.11,12.13
40.54,15.78,3.68,15.78,3.67,-3.67,-3.58,-4.10,12.11,12.11,12.11
40.94,15.78,3.69,15.76,3.66,-3.65,-3.58,-4.02,12.13,12.11,12.10
41.35,15.72,3.64,15.72,3.64,-3.63,-3.57,-3.95,12.09,12.09,12.09
41.76,15.66,3.60,15.67,3.60,-3.61,-3.56,-3.87,12.05,12.06,12.06
42.18,15.61,3.56,15.63,3.57,-3.59,-3.55,-3.80,12.03,12.04,12.05
42.60,15.60,3.55,15.60,3.55,-3.56,-3.54,-3.72,12.04,12.04,12.05
43.03,15.59,3.55,15.58,3.54,-3.53,-3.53,-3.65,12.06,12.05,12.04
43.46,15.54,3.51,15.55,3.52,-3.50,-3.52,-3.59,12.05,12.05,12.03
43.90,15.50,3.48,15.50,3.48,-3.46,-3.50,-3.52,12.04,12.04,12.02
44.33,15.44,3.43,15.44,3.43,-3.42,-3.49,-3.46,12.02,12.02,12.01
44.78,15.38,3.39,15.38,3.38,-3.38,-3.48,-3.40,12.00,12.00,12.00
45.23,15.32,3.33,15.32,3.33,-3.34,-3.47,-3.35,11.98,11.97,11.99
45.68,15.25,3.27,15.26,3.28,-3.30,-3.45,-3.30,11.95,11.96,11.98
46.13,15.20,3.24,15.22,3.25,-3.26,-3.44,-3.24,11.94,11.95,11.96
46.60,15.18,3.24,15.18,3.23,-3.23,-3.42,-3.20,11.96,11.95,11.95
47.06,15.15,3.22,15.14,3.20,-3.19,-3.41,-3.15,11.96,11.94,11.93
47.53,15.08,3.17,15.08,3.17,-3.16,-3.39,-3.11,11.92,11.92,11.91
48.01,15.01,3.12,15.03,3.13,-3.13,-3.37,-3.07,11.88,11.89,11.90
48.49,14.97,3.10,14.97,3.10,-3.11,-3.35,-3.03,11.87,11.86,11.87
48.97,14.92,3.07,14.92,3.07,-3.08,-3.33,-2.99,11.84,11.84,11.85
49.46,14.87,3.04,14.87,3.05,-3.05,-3.31,-2.96,11.82,11.82,11.83
49.96,14.82,3.02,14.83,3.02,-3.02,-3.29,-2.93,11.80,11.80,11.80
50.46,14.78,3.00,14.78,3.00,-3.00,-3.27,-2.90,11.79,11.78,11.78
50.96,14.73,2.98,14.73,2.98,-2.97,-3.25,-2.87,11.76,11.76,11.76
51.47,14.68,2.95,14.68,2.95,-2.95,-3.22,-2.84,11.74,11.74,11.73
51.99,14.63,2.92,14.63,2.92,-2.92,-3.20,-2.82,11.71,11.71,11.71
52.51,14.58,2.89,14.58,2.89,-2.90,-3.17,-2.80,11.69,11.69,11.69
53.03,14.53,2.87,14.53,2.87,-2.87,-3.15,-2.78,11.66,11.66,11.66
53.56,14.48,2.84,14.48,2.84,-2.84,-3.12,-2.76,11.64,11.64,11.64
54.10,14.43,2.82,14.43,2.82,-2.82,-3.09,-2.74,11.61,11.61,11.61
54.64,14.38,2.80,14.38,2.79,-2.79,-3.06,-2.72,11.59,11.59,11.59
55.18,14.32,2.76,14.33,2.77,-2.77,-3.03,-2.71,11.55,11.56,11.56
55.74,14.27,2.74,14.27,2.74,-2.74,-3.00,-2.69,11.53,11.53,11.53
56.29,14.22,2.72,14.22,2.72,-2.72,-2.96,-2.68,11.51,11.50,11.50
56.86,14.16,2.69,14.17,2.69,-2.69,-2.93,-2.66,11.47,11.47,11.47
57.42,14.11,2.67,14.11,2.67,-2.67,-2.89,-2.65,11.44,11.44,11.44
58.00,14.05,2.64,14.05,2.64,-2.65,-2.86,-2.64,11.40,11.41,11.42
58.58,14.00,2.62,14.00,2.62,-2.63,-2.82,-2.62,11.38,11.38,11.38
59.16,13.95,2.60,13.96,2.61,-2.61,-2.79,-2.61,11.35,11.35,11.35
59.76,13.91,2.60,13.91,2.59,-2.58,-2.75,-2.60,11.33,11.32,11.31
60.35,13.85,2.57,13.85,2.57,-2.56,-2.71,-2.59,11.29,11.29,11.28
60.96,13.78,2.54,13.79,2.55,-2.54,-2.68,-2.58,11.24,11.25,11.24
61.57,13.72,2.52,13.73,2.52,-2.52,-2.64,-2.56,11.20,11.20,11.20
62.18,13.67,2.51,13.66,2.50,-2.51,-2.60,-2.55,11.17,11.16,11.16
62.80,13.60,2.49,13.61,2.49,-2.49,-2.57,-2.54,11.11,11.11,11.11
63.43,13.54,2.47,13.54,2.47,-2.48,-2.54,-2.53,11.06,11.06,11.07
64.07,13.48,2.45,13.47,2.45,-2.47,-2.51,-2.51,11.02,11.01,11.03
64.71,13.41,2.44,13.43,2.45,-2.46,-2.48,-2.50,10.96,10.98,10.98
65.35,13.38,2.45,13.39,2.46,-2.45,-2.45,-2.49,10.94,10.95,10.93
66.01,13.38,2.51,13.34,2.46,-2.44,-2.42,-2.47,10.95,10.90,10.88
66.67,13.26,2.43,13.27,2.45,-2.43,-2.40,-2.46,10.83,10.84,10.83
67.33,13.17,2.40,13.19,2.42,-2.42,-2.38,-2.45,10.75,10.77,10.77
68.01,13.12,2.40,13.11,2.39,-2.42,-2.37,-2.43,10.71,10.70,10.72
68.69,13.06,2.40,13.06,2.40,-2.41,-2.35,-2.42,10.65,10.65,10.66
69.37,13.01,2.40,13.01,2.40,-2.41,-2.34,-2.41,10.60,10.60,10.61
70.07,12.96,2.41,12.96,2.41,-2.41,-2.34,-2.40,10.55,10.55,10.55
70.77,12.91,2.42,12.91,2.41,-2.41,-2.33,-2.39,10.50,10.50,10.49
71.48,12.86,2.42,12.87,2.43,-2.42,-2.34,-2.37,10.44,10.44,10.44
72.19,12.80,2.43,12.81,2.44,-2.43,-2.34,-2.36,10.37,10.38,10.37
72.91,12.78,2.47,12.75,2.44,-2.44,-2.34,-2.35,10.34,10.32,10.32
73.64,12.68,2.42,12.70,2.44,-2.44,-2.35,-2.35,10.24,10.26,10.26
74.38,12.62,2.42,12.64,2.45,-2.45,-2.36,-2.34,10.18,10.19,10.20
75.12,12.60,2.47,12.57,2.44,-2.45,-2.38,-2.33,10.15,10.13,10.13
75.87,12.51,2.45,12.52,2.45,-2.45,-2.39,-2.33,10.06,10.07,10.07
76.63,12.45,2.45,12.46,2.46,-2.45,-2.41,-2.32,10.00,10.01,10.00
77.40,12.39,2.45,12.38,2.45,-2.45,-2.42,-2.32,9.94,9.93,9.94
78.17,12.33,2.46,12.33,2.46,-2.46,-2.44,-2.32,9.87,9.87,9.87
78.95,12.24,2.44,12.27,2.46,-2.46,-2.46,-2.32,9.78,9.80,9.81
79.74,12.23,2.49,12.20,2.46,-2.47,-2.48,-2.32,9.76,9.73,9.74
80.54,12.13,2.46,12.13,2.46,-2.47,-2.50,-2.32,9.66,9.66,9.67
81.35,12.05,2.45,12.09,2.49,-2.47,-2.52,-2.33,9.58,9.62,9.60
82.16,12.03,2.50,12.02,2.49,-2.47,-2.54,-2.33,9.56,9.55,9.53
82.98,11.99,2.53,11.95,2.49,-2.47,-2.56,-2.34,9.52,9.47,9.46
83.81,11.83,2.45,11.87,2.48,-2.47,-2.58,-2.35,9.36,9.39,9.39
84.65,11.76,2.45,11.77,2.46,-2.47,-2.59,-2.36,9.29,9.30,9.31
85.50,11.70,2.47,11.69,2.46,-2.48,-2.61,-2.38,9.22,9.21,9.23
86.35,11.63,2.48,11.63,2.48,-2.49,-2.63,-2.39,9.14,9.14,9.15
87.22,11.57,2.50,11.58,2.50,-2.51,-2.65,-2.41,9.07,9.07,9.08
88.09,11.52,2.52,11.52,2.52,-2.53,-2.66,-2.43,8.99,8.99,9.00
88.97,11.47,2.55,11.47,2.55,-2.55,-2.68,-2.45,8.92,8.91,8.92
89.86,11.41,2.58,11.43,2.59,-2.58,-2.69,-2.47,8.83,8.84,8.83
90.76,11.38,2.63,11.38,2.62,-2.61,-2.71,-2.50,8.77,8.77,8.75
91.66,11.33,2.67,11.32,2.65,-2.63,-2.72,-2.52,8.70,8.69,8.66
92.58,11.24,2.66,11.25,2.67,-2.65,-2.74,-2.55,8.59,8.60,8.58
93.51,11.17,2.68,11.17,2.68,-2.68,-2.75,-2.58,8.50,8.49,8.49
94.44,11.09,2.69,11.08,2.68,-2.70,-2.77,-2.61,8.39,8.39,8.40
95.39,10.99,2.68,11.01,2.70,-2.72,-2.78,-2.64,8.28,8.29,8.31
96.34,10.94,2.73,10.94,2.72,-2.73,-2.80,-2.68,8.21,8.20,8.22
97.30,10.87,2.76,10.87,2.75,-2.75,-2.81,-2.71,8.12,8.12,8.11
98.28,10.80,2.78,10.80,2.79,-2.78,-2.83,-2.75,8.03,8.03,8.02
99.26,10.73,2.82,10.73,2.81,-2.80,-2.84,-2.79,7.93,7.93,7.92
100.25,10.64,2.83,10.64,2.83,-2.83,-2.86,-2.83,7.81,7.81,7.81
101.25,10.56,2.85,10.55,2.84,-2.85,-2.87,-2.87,7.71,7.70,7.71
102.27,10.44,2.84,10.47,2.86,-2.87,-2.89,-2.91,7.57,7.60,7.60
103.29,10.39,2.89,10.40,2.89,-2.89,-2.91,-2.95,7.51,7.51,7.50
104.32,10.33,2.94,10.31,2.92,-2.90,-2.92,-2.99,7.43,7.41,7.40
105.37,10.23,2.94,10.22,2.93,-2.91,-2.94,-3.03,7.32,7.30,7.29
106.42,10.09,2.92,10.11,2.93,-2.93,-2.96,-3.07,7.16,7.18,7.18
107.48,9.98,2.91,10.00,2.92,-2.94,-2.98,-3.12,7.04,7.05,7.07
108.56,9.92,2.95,9.91,2.94,-2.96,-3.00,-3.16,6.97,6.95,6.98
109.64,9.83,2.96,9.84,2.97,-2.97,-3.02,-3.19,6.86,6.87,6.87
110.74,9.78,3.01,9.77,3.00,-2.99,-3.04,-3.23,6.79,6.78,6.77
111.85,9.70,3.03,9.69,3.02,-3.01,-3.06,-3.27,6.69,6.68,6.68
112.97,9.59,3.01,9.62,3.04,-3.03,-3.08,-3.30,6.56,6.58,6.58
114.10,9.55,3.06,9.54,3.05,-3.06,-3.11,-3.34,6.49,6.48,6.49
115.24,9.47,3.08,9.48,3.08,-3.09,-3.13,-3.36,6.39,6.39,6.40
116.39,9.41,3.11,9.42,3.12,-3.11,-3.15,-3.39,6.30,6.31,6.30
117.55,9.37,3.15,9.35,3.13,-3.13,-3.17,-3.41,6.24,6.22,6.22
118.73,9.28,3.15,9.28,3.15,-3.15,-3.19,-3.44,6.13,6.13,6.13
119.92,9.20,3.15,9.22,3.17,-3.17,-3.20,-3.45,6.03,6.05,6.05
121.12,9.15,3.18,9.15,3.18,-3.18,-3.22,-3.47,5.97,5.97,5.97
122.33,9.10,3.21,9.10,3.21,-3.19,-3.23,-3.47,5.91,5.90,5.89
123.55,9.03,3.22,9.02,3.21,-3.20,-3.25,-3.48,5.83,5.82,5.81
124.79,8.95,3.22,8.95,3.21,-3.21,-3.26,-3.48,5.74,5.74,5.73
126.03,8.84,3.19,8.87,3.21,-3.22,-3.27,-3.48,5.63,5.65,5.66
127.29,8.81,3.23,8.80,3.22,-3.23,-3.27,-3.47,5.58,5.57,5.58
128.57,8.73,3.23,8.73,3.23,-3.24,-3.28,-3.46,5.49,5.49,5.50
129.85,8.67,3.24,8.68,3.25,-3.26,-3.28,-3.45,5.42,5.42,5.43
131.15,8.61,3.26,8.62,3.26,-3.27,-3.28,-3.43,5.34,5.35,5.36
132.46,8.58,3.30,8.57,3.29,-3.29,-3.28,-3.41,5.29,5.29,5.28
133.79,8.51,3.30,8.53,3.32,-3.30,-3.28,-3.38,5.21,5.23,5.21
135.12,8.49,3.35,8.48,3.33,-3.32,-3.27,-3.35,5.17,5.16,5.14
136.48,8.41,3.34,8.41,3.34,-3.33,-3.27,-3.32,5.08,5.08,5.07
137.84,8.33,3.33,8.34,3.34,-3.33,-3.27,-3.29,5.00,5.00,5.00
139.22,8.25,3.33,8.26,3.33,-3.34,-3.26,-3.25,4.92,4.92,4.92
140.61,8.19,3.33,8.19,3.34,-3.34,-3.26,-3.21,4.86,4.85,4.86
142.02,8.12,3.34,8.11,3.33,-3.33,-3.25,-3.17,4.79,4.78,4.78
143.44,8.04,3.33,8.04,3.33,-3.34,-3.25,-3.13,4.71,4.71,4.71
144.87,7.94,3.31,7.97,3.33,-3.34,-3.25,-3.09,4.60,4.63,4.63
146.32,7.92,3.35,7.90,3.33,-3.35,-3.25,-3.05,4.58,4.55,4.57
147.78,7.83,3.33,7.84,3.34,-3.35,-3.25,-3.00,4.48,4.49,4.50
149.26,7.77,3.34,7.79,3.36,-3.35,-3.25,-2.96,4.42,4.44,4.43
150.75,7.74,3.38,7.72,3.36,-3.34,-3.25,-2.92,4.40,4.38,4.36
152.26,7.66,3.37,7.66,3.36,-3.33,-3.25,-2.87,4.33,4.33,4.29
153.78,7.57,3.33,7.58,3.35,-3.32,-3.25,-2.83,4.25,4.26,4.24
155.32,7.50,3.33,7.49,3.32,-3.31,-3.26,-2.79,4.19,4.18,4.17
156.88,7.39,3.28,7.39,3.28,-3.30,-3.26,-2.75,4.10,4.09,4.11
158.44,7.30,3.26,7.29,3.24,-3.28,-3.26,-2.71,4.02,4.01,4.05
160.03,7.17,3.19,7.22,3.24,-3.27,-3.27,-2.67,3.90,3.95,3.98
161.63,7.17,3.26,7.17,3.25,-3.26,-3.27,-2.63,3.91,3.91,3.91
163.24,7.15,3.30,7.12,3.26,-3.25,-3.28,-2.59,3.90,3.86,3.85
164.88,7.06,3.27,7.07,3.28,-3.25,-3.29,-2.56,3.81,3.82,3.80
166.53,6.98,3.24,7.00,3.26,-3.25,-3.29,-2.53,3.73,3.75,3.74
168.19,6.93,3.25,6.92,3.24,-3.24,-3.30,-2.50,3.69,3.68,3.68
169.87,6.86,3.23,6.86,3.23,-3.23,-3.30,-2.47,3.63,3.63,3.63
171.57,6.77,3.20,6.79,3.22,-3.21,-3.30,-2.44,3.56,3.58,3.57
173.29,6.73,3.21,6.71,3.19,-3.18,-3.31,-2.41,3.55,3.53,3.52
175.02,6.63,3.15,6.63,3.15,-3.15,-3.31,-2.39,3.48,3.48,3.48
176.77,6.53,3.10,6.55,3.12,-3.12,-3.31,-2.37,3.41,3.43,3.43
178.54,6.47,3.09,6.47,3.08,-3.09,-3.31,-2.35,3.38,3.37,3.38
180.32,6.40,3.06,6.40,3.06,-3.06,-3.30,-2.33,3.34,3.34,3.34
182.13,6.33,3.03,6.33,3.03,-3.03,-3.30,-2.31,3.30,3.30,3.30
183.95,6.28,3.02,6.28,3.01,-3.01,-3.29,-2.30,3.27,3.27,3.27
185.79,6.20,2.97,6.22,2.99,-2.99,-3.28,-2.28,3.21,3.23,3.23
187.65,6.18,2.98,6.16,2.96,-2.97,-3.27,-2.27,3.21,3.19,3.20
189.52,6.09,2.93,6.11,2.94,-2.95,-3.26,-2.26,3.14,3.16,3.16
191.42,6.05,2.91,6.07,2.94,-2.93,-3.24,-2.25,3.12,3.14,3.14
193.33,6.06,2.95,6.03,2.92,-2.92,-3.22,-2.25,3.15,3.11,3.11
195.27,5.98,2.90,5.99,2.91,-2.90,-3.20,-2.24,3.09,3.09,3.08
197.22,5.91,2.86,5.93,2.88,-2.87,-3.18,-2.24,3.04,3.06,3.05
199.19,5.88,2.86,5.86,2.84,-2.84,-3.16,-2.24,3.04,3.02,3.02
201.18,5.79,2.80,5.81,2.81,-2.81,-3.13,-2.24,2.98,3.00,2.99
203.19,5.73,2.77,5.74,2.78,-2.77,-3.09,-2.23,2.96,2.98,2.97
205.23,5.69,2.75,5.66,2.72,-2.72,-3.06,-2.23,2.97,2.94,2.94
207.28,5.58,2.67,5.59,2.67,-2.67,-3.02,-2.24,2.91,2.92,2.91
209.35,5.48,2.59,5.51,2.62,-2.61,-2.98,-2.24,2.87,2.89,2.89
211.44,5.43,2.58,5.42,2.56,-2.56,-2.94,-2.24,2.87,2.86,2.86
213.56,5.35,2.52,5.34,2.50,-2.51,-2.90,-2.24,2.84,2.82,2.83
215.69,5.25,2.45,5.26,2.45,-2.47,-2.85,-2.24,2.79,2.79,2.80
217.85,5.15,2.37,5.18,2.40,-2.42,-2.80,-2.24,2.73,2.76,2.78
220.03,5.13,2.38,5.12,2.37,-2.38,-2.75,-2.24,2.75,2.74,2.75
222.23,5.08,2.35,5.07,2.34,-2.34,-2.69,-2.24,2.74,2.73,2.73
224.45,5.01,2.30,5.03,2.32,-2.30,-2.64,-2.24,2.71,2.73,2.71
226.70,4.96,2.27,4.96,2.27,-2.26,-2.58,-2.23,2.70,2.70,2.69
228.96,4.92,2.25,4.89,2.22,-2.23,-2.52,-2.23,2.70,2.66,2.67
231.25,4.80,2.14,4.84,2.18,-2.18,-2.46,-2.22,2.62,2.66,2.66
233.57,4.77,2.13,4.79,2.15,-2.14,-2.39,-2.21,2.63,2.65,2.65
235.90,4.78,2.15,4.73,2.10,-2.09,-2.33,-2.20,2.69,2.64,2.63
238.26,4.67,2.05,4.68,2.06,-2.05,-2.27,-2.18,2.63,2.64,2.62
240.64,4.59,1.98,4.61,1.99,-2.00,-2.20,-2.16,2.59,2.61,2.62
243.05,4.55,1.94,4.55,1.94,-1.96,-2.13,-2.14,2.59,2.59,2.61
245.48,4.50,1.89,4.51,1.90,-1.92,-2.06,-2.12,2.58,2.59,2.61
247.93,4.49,1.89,4.48,1.87,-1.88,-1.99,-2.10,2.62,2.60,2.60
250.41,4.43,1.83,4.45,1.85,-1.83,-1.92,-2.07,2.60,2.62,2.60
252.92,4.40,1.81,4.40,1.81,-1.78,-1.85,-2.03,2.62,2.62,2.60
255.45,4.36,1.78,4.34,1.75,-1.73,-1.78,-2.00,2.63,2.61,2.58
258.00,4.26,1.68,4.27,1.69,-1.69,-1.71,-1.96,2.58,2.58,2.58
260.58,4.18,1.61,4.19,1.62,-1.64,-1.64,-1.91,2.55,2.56,2.57
263.19,4.12,1.56,4.12,1.56,-1.59,-1.57,-1.87,2.54,2.54,2.56
265.82,4.07,1.53,4.06,1.52,-1.54,-1.50,-1.82,2.54,2.53,2.54
268.48,4.00,1.47,4.00,1.48,-1.49,-1.43,-1.77,2.52,2.52,2.53
271.16,3.94,1.43,3.94,1.43,-1.44,-1.36,-1.72,2.51,2.51,2.51
273.87,3.87,1.37,3.89,1.39,-1.38,-1.29,-1.66,2.49,2.50,2.50
276.61,3.84,1.36,3.84,1.36,-1.33,-1.22,-1.60,2.51,2.50,2.48
279.38,3.78,1.32,3.77,1.31,-1.28,-1.15,-1.54,2.50,2.49,2.46
282.17,3.69,1.24,3.68,1.23,-1.23,-1.08,-1.47,2.46,2.45,2.45
284.99,3.58,1.14,3.60,1.15,-1.17,-1.01,-1.41,2.41,2.43,2.44
287.84,3.50,1.06,3.53,1.09,-1.11,-0.94,-1.34,2.39,2.42,2.44
290.72,3.50,1.07,3.47,1.04,-1.05,-0.87,-1.27,2.45,2.42,2.44
293.63,3.44,1.01,3.44,1.00,-1.00,-0.80,-1.20,2.44,2.44,2.43
296.57,3.36,0.93,3.39,0.96,-0.95,-0.73,-1.13,2.41,2.44,2.43
299.53,3.36,0.93,3.33,0.90,-0.91,-0.67,-1.06,2.46,2.42,2.43
302.53,3.27,0.85,3.27,0.84,-0.86,-0.60,-0.99,2.41,2.41,2.43
305.55,3.20,0.77,3.24,0.81,-0.82,-0.53,-0.91,2.38,2.42,2.43
308.61,3.20,0.78,3.19,0.77,-0.77,-0.47,-0.84,2.44,2.43,2.42
311.69,3.19,0.77,3.15,0.74,-0.71,-0.40,-0.76,2.48,2.44,2.42
314.81,3.07,0.66,3.10,0.69,-0.65,-0.34,-0.69,2.42,2.45,2.41
317.96,3.01,0.61,3.01,0.60,-0.59,-0.28,-0.61,2.42,2.41,2.41
321.14,2.92,0.52,2.91,0.51,-0.53,-0.21,-0.53,2.39,2.38,2.40
324.35,2.82,0.42,2.84,0.44,-0.46,-0.15,-0.46,2.36,2.38,2.40
327.59,2.77,0.37,2.77,0.37,-0.39,-0.09,-0.38,2.38,2.38,2.40
330.87,2.73,0.34,2.72,0.33,-0.32,-0.03,-0.30,2.41,2.40,2.39
334.18,2.65,0.26,2.66,0.27,-0.25,0.03,-0.23,2.40,2.41,2.39
337.52,2.60,0.22,2.58,0.20,-0.18,0.09,-0.15,2.42,2.40,2.39
340.90,2.48,0.10,2.50,0.11,-0.11,0.15,-0.07,2.37,2.39,2.38
344.30,2.42,0.04,2.42,0.04,-0.05,0.21,0.01,2.37,2.37,2.39
347.75,2.36,-0.03,2.36,-0.03,0.01,0.27,0.08,2.37,2.37,2.39
351.23,2.30,-0.08,2.31,-0.08,0.07,0.33,0.16,2.37,2.37,2.38
354.74,2.26,-0.13,2.25,-0.14,0.13,0.38,0.24,2.39,2.38,2.39
358.28,2.19,-0.20,2.21,-0.18,0.19,0.44,0.32,2.38,2.40,2.39
361.87,2.16,-0.24,2.17,-0.23,0.25,0.50,0.40,2.41,2.42,2.40
365.49,2.15,-0.25,2.12,-0.28,0.31,0.55,0.48,2.46,2.43,2.40
369.14,2.05,-0.35,2.06,-0.35,0.37,0.61,0.56,2.42,2.42,2.40
372.83,1.96,-0.46,1.98,-0.44,0.43,0.66,0.63,2.39,2.40,2.42
376.56,1.90,-0.51,1.90,-0.51,0.48,0.72,0.71,2.38,2.38,2.41
380.33,1.84,-0.57,1.85,-0.57,0.54,0.77,0.79,2.38,2.38,2.41
384.13,1.81,-0.60,1.80,-0.61,0.59,0.82,0.87,2.41,2.40,2.41
387.97,1.75,-0.65,1.76,-0.65,0.65,0.88,0.95,2.40,2.41,2.41
391.85,1.72,-0.69,1.72,-0.69,0.71,0.93,1.03,2.43,2.43,2.41
395.77,1.66,-0.74,1.66,-0.74,0.77,0.98,1.11,2.43,2.43,2.40
399.73,1.61,-0.79,1.60,-0.80,0.83,1.03,1.19,2.44,2.42,2.40
403.72,1.49,-0.90,1.51,-0.88,0.89,1.08,1.27,2.38,2.39,2.40
407.76,1.42,-0.95,1.41,-0.97,0.95,1.14,1.35,2.37,2.36,2.37
411.84,1.32,-1.05,1.33,-1.04,1.01,1.19,1.42,2.33,2.34,2.37
415.96,1.26,-1.11,1.28,-1.09,1.06,1.24,1.50,2.32,2.34,2.37
420.12,1.25,-1.11,1.23,-1.13,1.12,1.29,1.58,2.37,2.35,2.36
424.32,1.20,-1.16,1.21,-1.15,1.17,1.33,1.66,2.37,2.38,2.37
428.56,1.18,-1.19,1.18,-1.19,1.22,1.38,1.73,2.40,2.40,2.37
432.85,1.15,-1.24,1.14,-1.25,1.27,1.43,1.80,2.42,2.41,2.39
437.18,1.08,-1.32,1.10,-1.31,1.32,1.48,1.88,2.40,2.41,2.40
441.55,1.06,-1.38,1.06,-1.38,1.37,1.53,1.95,2.43,2.43,2.44
445.96,1.03,-1.44,1.03,-1.44,1.42,1.58,2.02,2.45,2.45,2.48
450.42,1.04,-1.48,1.04,-1.49,1.47,1.62,2.09,2.52,2.51,2.53
454.93,1.02,-1.55,1.04,-1.53,1.53,1.67,2.15,2.55,2.57,2.57
459.48,1.07,-1.56,1.05,-1.58,1.58,1.72,2.21,2.65,2.63,2.63
464.07,1.06,-1.62,1.05,-1.63,1.63,1.77,2.28,2.69,2.69,2.68
468.71,1.03,-1.70,1.06,-1.67,1.69,1.81,2.33,2.72,2.75,2.73
473.40,1.06,-1.73,1.05,-1.74,1.74,1.86,2.39,2.81,2.79,2.79
478.13,1.05,-1.79,1.04,-1.80,1.80,1.90,2.44,2.86,2.85,2.85
482.91,1.02,-1.87,1.03,-1.86,1.87,1.95,2.49,2.89,2.90,2.90
487.74,1.00,-1.93,1.01,-1.93,1.94,1.99,2.54,2.94,2.95,2.93
