frequency,raw
20,-8.25
21,-7.72
22,-7.21
23,-6.73
24,-6.27
25,-5.83
26,-5.42
27,-5.03
28,-4.67
29,-4.32
30,-4.01
31,-3.74
32,-3.48
33,-3.24
34,-3.04
35,-2.83
36,-2.65
37,-2.48
38,-2.31
39,-2.15
40,-1.99
41,-1.83
42,-1.67
43,-1.53
44,-1.39
45,-1.25
46,-1.12
47,-1.00
48,-0.89
49,-0.77
50,-0.67
51,-0.56
52,-0.47
53,-0.38
54,-0.29
55,-0.20
56,-0.13
57,-0.08
58,-0.05
59,-0.04
60,-0.03
61,-0.03
62,-0.06
63,-0.09
64,-0.12
65,-0.15
66,-0.20
67,-0.24
68,-0.28
69,-0.32
70,-0.34
71,-0.35
72,-0.35
73,-0.33
74,-0.30
75,-0.25
76,-0.20
77,-0.15
78,-0.09
79,-0.04
80,0.02
81,0.08
82,0.15
83,0.21
84,0.28
85,0.35
86,0.40
87,0.45
88,0.48
89,0.51
90,0.54
91,0.57
92,0.60
93,0.63
94,0.68
95,0.72
96,0.77
97,0.80
98,0.83
99,0.86
100,0.88
101,0.91
102,0.94
104,0.97
105,0.99
106,1.01
107,1.01
108,1.00
109,0.99
110,0.98
111,0.98
112,0.99
113,1.01
114,1.04
115,1.06
117,1.10
118,1.13
119,1.16
120,1.20
121,1.23
123,1.26
124,1.29
125,1.31
126,1.33
128,1.34
129,1.34
130,1.33
131,1.33
133,1.32
134,1.32
135,1.31
137,1.31
138,1.30
140,1.29
141,1.30
142,1.31
144,1.33
145,1.35
147,1.38
148,1.41
150,1.44
151,1.47
153,1.51
154,1.54
156,1.57
157,1.60
159,1.63
160,1.65
162,1.66
164,1.66
165,1.66
167,1.65
169,1.64
170,1.64
172,1.64
174,1.64
175,1.64
177,1.64
179,1.64
181,1.64
183,1.64
184,1.64
186,1.64
188,1.64
190,1.64
192,1.64
194,1.64
196,1.64
198,1.64
200,1.64
202,1.64
204,1.64
206,1.64
208,1.64
210,1.64
212,1.64
214,1.64
216,1.64
218,1.64
221,1.64
223,1.64
225,1.64
227,1.64
229,1.64
232,1.64
234,1.64
236,1.64
239,1.64
241,1.64
244,1.65
246,1.66
248,1.67
251,1.66
253,1.65
256,1.63
259,1.61
261,1.58
264,1.55
266,1.51
269,1.48
272,1.45
274,1.41
277,1.38
280,1.35
283,1.33
286,1.31
288,1.30
291,1.29
294,1.30
297,1.31
300,1.31
303,1.32
306,1.32
309,1.32
312,1.32
316,1.32
319,1.32
322,1.32
325,1.32
328,1.32
332,1.32
335,1.33
338,1.34
342,1.34
345,1.33
349,1.32
352,1.30
356,1.27
359,1.25
363,1.21
366,1.18
370,1.15
374,1.11
377,1.08
381,1.05
385,1.03
389,1.01
393,1.00
397,0.99
401,0.98
405,0.98
409,0.97
413,0.95
417,0.92
421,0.89
425,0.87
430,0.84
434,0.82
438,0.78
443,0.74
447,0.70
451,0.65
456,0.61
460,0.57
465,0.53
470,0.50
474,0.47
479,0.44
484,0.42
489,0.39
494,0.36
499,0.34
504,0.33
509,0.32
514,0.32
519,0.34
524,0.35
529,0.37
535,0.37
540,0.36
545,0.34
551,0.32
556,0.30
562,0.27
568,0.23
573,0.21
579,0.19
585,0.16
591,0.12
596,0.08
602,0.03
608,-0.00
615,-0.03
621,-0.07
627,-0.11
633,-0.15
639,-0.19
646,-0.23
652,-0.29
659,-0.36
665,-0.43
672,-0.49
679,-0.55
686,-0.61
692,-0.68
699,-0.73
706,-0.78
713,-0.86
721,-0.93
728,-1.01
735,-1.09
742,-1.14
750,-1.20
757,-1.28
765,-1.35
773,-1.42
780,-1.49
788,-1.56
796,-1.64
804,-1.71
812,-1.76
820,-1.80
828,-1.84
837,-1.86
845,-1.87
853,-1.85
862,-1.83
871,-1.79
879,-1.74
888,-1.67
897,-1.58
906,-1.46
915,-1.33
924,-1.20
933,-1.07
943,-0.93
952,-0.78
962,-0.63
971,-0.48
981,-0.31
991,-0.14
1001,0.02
1011,0.16
1021,0.31
1031,0.45
1041,0.59
1052,0.71
1062,0.82
1073,0.91
1084,0.99
1094,1.07
1105,1.16
1116,1.23
1128,1.29
1139,1.34
1150,1.40
1162,1.45
1173,1.48
1185,1.51
1197,1.55
1209,1.59
1221,1.62
1233,1.66
1246,1.70
1258,1.74
1271,1.77
1283,1.79
1296,1.81
1309,1.84
1322,1.89
1335,1.93
1349,1.98
1362,2.03
1376,2.08
1390,2.12
1404,2.15
1418,2.17
1432,2.19
1446,2.20
1461,2.23
1475,2.26
1490,2.30
1505,2.33
1520,2.36
1535,2.39
1550,2.41
1566,2.44
1582,2.47
1597,2.50
1613,2.53
1629,2.55
1646,2.57
1662,2.59
1679,2.61
1696,2.64
1713,2.64
1730,2.65
1747,2.67
1764,2.71
1782,2.76
1800,2.81
1818,2.86
1836,2.92
1854,2.97
1873,3.04
1892,3.10
1911,3.16
1930,3.22
1949,3.27
1969,3.32
1988,3.38
2008,3.44
2028,3.51
2048,3.58
2069,3.63
2090,3.68
2111,3.73
2132,3.79
2153,3.83
2175,3.87
2196,3.90
2218,3.91
2240,3.92
2263,3.93
2285,3.94
2308,3.93
2331,3.92
2355,3.92
2378,3.93
2402,3.93
2426,3.93
2450,3.92
2475,3.90
2500,3.89
2525,3.87
2550,3.84
2575,3.80
2601,3.75
2627,3.70
2653,3.64
2680,3.58
2707,3.53
2734,3.48
2761,3.44
2789,3.39
2817,3.34
2845,3.30
2873,3.26
2902,3.22
2931,3.17
2960,3.13
2990,3.09
3020,3.07
3050,3.04
3080,3.01
3111,2.98
3142,2.94
3174,2.91
3206,2.89
3238,2.88
3270,2.90
3303,2.92
3336,2.96
3369,2.99
3403,3.05
3437,3.12
3471,3.20
3506,3.30
3541,3.42
3576,3.53
3612,3.67
3648,3.80
3685,3.94
3721,4.08
3759,4.22
3796,4.34
3834,4.45
3873,4.58
3911,4.70
3950,4.82
3990,4.94
4030,5.05
4070,5.16
4111,5.30
4152,5.45
4193,5.59
4235,5.72
4278,5.87
4321,6.02
4364,6.18
4407,6.36
4451,6.53
4496,6.72
4541,6.91
4586,7.11
4632,7.30
4679,7.52
4725,7.76
4773,8.01
4820,8.28
4868,8.57
4917,8.89
4966,9.23
5016,9.59
5066,9.95
5117,10.31
5168,10.67
5220,11.05
5272,11.42
5325,11.76
5378,12.08
5432,12.38
5486,12.65
5541,12.86
5596,13.03
5652,13.17
5709,13.27
5766,13.33
5823,13.36
5882,13.36
5940,13.32
6000,13.26
6060,13.17
6120,13.06
6182,12.91
6244,12.72
6306,12.49
6369,12.22
6433,11.90
6497,11.53
6562,11.11
6628,10.64
6694,10.12
6761,9.56
6828,8.98
6897,8.40
6966,7.82
7035,7.26
7106,6.73
7177,6.24
7249,5.80
7321,5.40
7394,5.05
7468,4.74
7543,4.47
7618,4.23
7694,4.02
7771,3.82
7849,3.62
7928,3.40
8007,3.17
8087,2.91
8168,2.62
8250,2.32
8332,1.99
8415,1.64
8499,1.28
8584,0.90
8670,0.52
8757,0.15
8845,-0.22
8933,-0.57
9022,-0.88
9113,-1.16
9204,-1.37
9296,-1.53
9389,-1.63
9483,-1.62
9577,-1.51
9673,-1.29
9770,-0.97
9868,-0.56
9966,-0.07
10066,0.48
10167,1.06
10268,1.66
10371,2.27
10475,2.87
10579,3.44
10685,3.95
10792,4.39
10900,4.78
11009,5.08
11119,5.29
11230,5.44
11343,5.54
11456,5.59
11571,5.63
11686,5.63
11803,5.61
11921,5.55
12040,5.46
12161,5.31
12282,5.12
12405,4.86
12529,4.54
12655,4.15
12781,3.68
12909,3.15
13038,2.57
13168,1.94
13300,1.29
13433,0.61
13567,-0.08
13703,-0.74
13840,-1.38
13978,-1.98
14118,-2.52
14259,-3.00
14402,-3.40
14546,-3.75
14692,-4.02
14838,-4.23
14987,-4.38
15137,-4.48
15288,-4.54
15441,-4.55
15595,-4.54
15751,-4.50
15909,-4.43
16068,-4.34
16229,-4.24
16391,-4.14
16555,-4.02
16720,-3.91
16888,-3.81
17056,-3.72
17227,-3.64
17399,-3.59
17573,-3.57
17749,-3.59
17926,-3.64
18106,-3.74
18287,-3.88
18470,-4.06
18654,-4.27
18841,-4.51
19029,-4.80
19220,-5.11
19412,-5.47
19606,-5.85
19802,-6.28
20000,-6.74
