frequency,raw,error,smoothed,error_smoothed,equalization,parametric_eq,equalized_raw,equalized_smoothed,target
20,-0.13,-1.87,-0.14,-1.89,1.89,1.68,1.76,1.74,1.74
21,0.16,-1.58,0.16,-1.58,1.58,1.51,1.74,1.74,1.74
22,0.44,-1.30,0.45,-1.29,1.29,1.34,1.73,1.74,1.74
23,0.72,-1.02,0.74,-1.00,1.00,1.15,1.72,1.74,1.74
24,1.00,-0.73,1.01,-0.72,0.72,0.95,1.72,1.74,1.74
25,1.25,-0.48,1.28,-0.45,0.45,0.75,1.70,1.73,1.73
26,1.58,-0.15,1.54,-0.19,0.19,0.53,1.77,1.73,1.73
27,1.75,0.02,1.80,0.07,-0.07,0.31,1.68,1.73,1.73
28,2.02,0.30,2.03,0.31,-0.31,0.08,1.71,1.72,1.72
29,2.32,0.60,2.26,0.54,-0.54,-0.16,1.78,1.72,1.72
30,2.50,0.79,2.47,0.75,-0.75,-0.40,1.75,1.71,1.71
31,2.64,0.93,2.66,0.95,-0.95,-0.64,1.69,1.71,1.71
32,2.82,1.12,2.83,1.13,-1.13,-0.87,1.69,1.70,1.70
33,2.98,1.29,2.98,1.29,-1.29,-1.10,1.69,1.70,1.70
34,3.12,1.43,3.12,1.43,-1.43,-1.32,1.69,1.69,1.69
35,3.27,1.59,3.25,1.56,-1.56,-1.53,1.71,1.68,1.68
36,3.36,1.69,3.36,1.68,-1.68,-1.71,1.68,1.67,1.67
37,3.41,1.75,3.46,1.79,-1.79,-1.88,1.62,1.66,1.66
38,3.55,1.90,3.55,1.89,-1.89,-2.02,1.66,1.65,1.65
39,3.62,1.98,3.63,1.98,-1.98,-2.13,1.64,1.64,1.64
40,3.70,2.07,3.70,2.06,-2.06,-2.22,1.64,1.63,1.63
41,3.76,2.14,3.76,2.14,-2.14,-2.29,1.62,1.62,1.62
42,3.82,2.21,3.81,2.20,-2.20,-2.34,1.62,1.61,1.61
43,3.86,2.26,3.85,2.25,-2.25,-2.37,1.61,1.60,1.60
44,3.90,2.32,3.88,2.30,-2.30,-2.39,1.61,1.58,1.58
45,3.90,2.33,3.90,2.33,-2.33,-2.39,1.57,1.57,1.57
46,3.90,2.35,3.92,2.36,-2.36,-2.39,1.54,1.55,1.55
47,3.90,2.36,3.93,2.39,-2.39,-2.38,1.51,1.54,1.54
48,3.90,2.38,3.93,2.41,-2.41,-2.37,1.49,1.52,1.52
49,3.93,2.43,3.93,2.43,-2.43,-2.35,1.50,1.50,1.50
50,3.94,2.46,3.92,2.44,-2.44,-2.34,1.50,1.48,1.48
51,3.93,2.47,3.91,2.45,-2.45,-2.32,1.48,1.46,1.46
52,3.93,2.49,3.89,2.45,-2.45,-2.31,1.48,1.44,1.44
53,3.87,2.45,3.87,2.45,-2.45,-2.30,1.43,1.42,1.42
54,3.80,2.40,3.84,2.44,-2.44,-2.29,1.36,1.40,1.40
55,3.78,2.41,3.80,2.42,-2.42,-2.28,1.36,1.38,1.38
56,3.78,2.43,3.76,2.41,-2.41,-2.27,1.37,1.35,1.35
57,3.70,2.38,3.72,2.39,-2.39,-2.27,1.31,1.33,1.33
58,3.67,2.37,3.67,2.38,-2.38,-2.27,1.30,1.30,1.30
59,3.65,2.38,3.63,2.36,-2.36,-2.26,1.29,1.27,1.27
60,3.57,2.33,3.58,2.34,-2.34,-2.27,1.23,1.24,1.24
61,3.53,2.32,3.54,2.32,-2.32,-2.27,1.21,1.22,1.22
62,3.50,2.32,3.49,2.30,-2.30,-2.27,1.20,1.19,1.19
63,3.41,2.26,3.44,2.28,-2.28,-2.27,1.13,1.16,1.16
64,3.38,2.26,3.38,2.26,-2.26,-2.28,1.12,1.12,1.12
65,3.35,2.26,3.33,2.24,-2.24,-2.29,1.11,1.09,1.09
66,3.28,2.22,3.27,2.21,-2.21,-2.29,1.07,1.06,1.06
67,3.19,2.17,3.21,2.18,-2.18,-2.30,1.01,1.02,1.02
68,3.15,2.16,3.14,2.15,-2.15,-2.31,1.00,0.99,0.99
69,3.08,2.13,3.07,2.11,-2.11,-2.32,0.97,0.95,0.95
70,2.98,2.06,2.99,2.08,-2.08,-2.33,0.90,0.92,0.92
71,2.92,2.04,2.92,2.04,-2.04,-2.33,0.88,0.88,0.88
72,2.86,2.02,2.85,2.00,-2.00,-2.34,0.86,0.84,0.84
73,2.75,1.94,2.77,1.97,-1.97,-2.35,0.78,0.81,0.81
74,2.68,1.91,2.70,1.93,-1.93,-2.36,0.75,0.77,0.77
75,2.63,1.90,2.63,1.90,-1.90,-2.37,0.73,0.73,0.73
76,2.58,1.89,2.56,1.87,-1.87,-2.38,0.71,0.69,0.69
77,2.50,1.85,2.49,1.84,-1.84,-2.39,0.66,0.65,0.65
78,2.44,1.83,2.43,1.81,-1.81,-2.40,0.63,0.61,0.61
79,2.36,1.79,2.36,1.79,-1.79,-2.41,0.57,0.57,0.57
80,2.30,1.77,2.31,1.78,-1.78,-2.41,0.52,0.53,0.53
81,2.25,1.76,2.26,1.77,-1.77,-2.42,0.48,0.49,0.49
82,2.20,1.75,2.22,1.78,-1.78,-2.43,0.43,0.45,0.45
83,2.16,1.75,2.19,1.79,-1.79,-2.44,0.37,0.41,0.41
84,2.17,1.81,2.17,1.81,-1.81,-2.44,0.37,0.36,0.36
85,2.16,1.84,2.15,1.83,-1.83,-2.45,0.33,0.32,0.32
86,2.17,1.89,2.14,1.86,-1.86,-2.45,0.31,0.28,0.28
87,2.14,1.90,2.14,1.90,-1.90,-2.46,0.24,0.24,0.24
88,2.13,1.93,2.13,1.93,-1.93,-2.46,0.20,0.20,0.20
89,2.09,1.93,2.13,1.97,-1.97,-2.47,0.12,0.16,0.16
90,2.16,2.05,2.12,2.00,-2.00,-2.47,0.16,0.12,0.12
91,2.13,2.06,2.11,2.04,-2.04,-2.48,0.09,0.07,0.07
92,2.09,2.06,2.10,2.07,-2.07,-2.48,0.02,0.03,0.03
93,2.07,2.08,2.10,2.10,-2.10,-2.48,-0.03,-0.01,-0.01
94,2.10,2.15,2.09,2.13,-2.13,-2.48,-0.03,-0.05,-0.05
95,2.10,2.19,2.08,2.17,-2.17,-2.48,-0.06,-0.09,-0.09
96,2.06,2.19,2.07,2.20,-2.20,-2.48,-0.14,-0.13,-0.13
97,2.02,2.19,2.06,2.23,-2.23,-2.48,-0.21,-0.17,-0.17
98,2.07,2.28,2.06,2.27,-2.27,-2.48,-0.19,-0.21,-0.21
99,2.07,2.32,2.05,2.30,-2.30,-2.48,-0.23,-0.25,-0.25
100,2.06,2.35,2.05,2.34,-2.34,-2.48,-0.28,-0.29,-0.29
101,2.03,2.36,2.05,2.38,-2.38,-2.48,-0.35,-0.33,-0.32
102,2.03,2.39,2.04,2.42,-2.42,-2.48,-0.39,-0.38,-0.36
104,2.03,2.47,2.04,2.46,-2.46,-2.47,-0.43,-0.42,-0.44
105,2.03,2.50,2.03,2.49,-2.49,-2.47,-0.46,-0.46,-0.47
106,2.04,2.55,2.02,2.53,-2.53,-2.46,-0.48,-0.50,-0.51
107,2.03,2.57,2.01,2.55,-2.55,-2.46,-0.52,-0.54,-0.54
108,2.02,2.60,2.00,2.58,-2.58,-2.45,-0.56,-0.58,-0.58
109,1.98,2.59,1.99,2.60,-2.60,-2.45,-0.62,-0.61,-0.61
110,1.95,2.60,1.98,2.62,-2.62,-2.44,-0.67,-0.65,-0.65
111,1.93,2.61,1.96,2.65,-2.65,-2.43,-0.71,-0.68,-0.68
112,1.94,2.65,1.95,2.67,-2.67,-2.42,-0.73,-0.72,-0.71
113,1.94,2.69,1.94,2.69,-2.69,-2.42,-0.75,-0.75,-0.75
114,1.94,2.72,1.93,2.71,-2.71,-2.41,-0.77,-0.78,-0.78
115,1.94,2.75,1.91,2.73,-2.73,-2.40,-0.79,-0.82,-0.81
117,1.90,2.77,1.89,2.74,-2.74,-2.38,-0.84,-0.85,-0.87
118,1.87,2.77,1.86,2.75,-2.75,-2.36,-0.88,-0.89,-0.90
119,1.83,2.76,1.83,2.76,-2.76,-2.35,-0.93,-0.93,-0.93
120,1.79,2.75,1.80,2.76,-2.76,-2.34,-0.97,-0.96,-0.96
121,1.75,2.73,1.76,2.76,-2.76,-2.33,-1.01,-0.99,-0.98
123,1.71,2.75,1.72,2.75,-2.75,-2.30,-1.04,-1.03,-1.04
124,1.68,2.74,1.68,2.74,-2.74,-2.28,-1.06,-1.06,-1.06
125,1.64,2.73,1.64,2.73,-2.73,-2.27,-1.09,-1.09,-1.09
126,1.60,2.71,1.59,2.71,-2.71,-2.25,-1.11,-1.12,-1.11
128,1.53,2.69,1.53,2.69,-2.69,-2.22,-1.16,-1.15,-1.16
129,1.49,2.68,1.48,2.66,-2.66,-2.20,-1.17,-1.18,-1.19
130,1.43,2.64,1.42,2.63,-2.63,-2.18,-1.20,-1.21,-1.21
131,1.34,2.57,1.36,2.60,-2.60,-2.16,-1.26,-1.24,-1.23
133,1.26,2.54,1.29,2.56,-2.56,-2.12,-1.30,-1.27,-1.27
134,1.22,2.52,1.22,2.52,-2.52,-2.10,-1.30,-1.30,-1.30
135,1.18,2.50,1.15,2.47,-2.47,-2.08,-1.29,-1.32,-1.32
137,1.08,2.44,1.07,2.42,-2.42,-2.03,-1.34,-1.35,-1.36
138,1.00,2.38,1.00,2.37,-2.37,-2.01,-1.37,-1.38,-1.38
140,0.91,2.32,0.92,2.32,-2.32,-1.96,-1.41,-1.40,-1.41
141,0.81,2.24,0.83,2.26,-2.26,-1.94,-1.45,-1.43,-1.43
142,0.77,2.22,0.75,2.21,-2.21,-1.91,-1.44,-1.45,-1.45
144,0.67,2.15,0.67,2.15,-2.15,-1.86,-1.48,-1.48,-1.48
145,0.55,2.05,0.59,2.09,-2.09,-1.83,-1.54,-1.50,-1.50
147,0.50,2.03,0.50,2.03,-2.03,-1.77,-1.53,-1.53,-1.53
148,0.47,2.02,0.42,1.97,-1.97,-1.74,-1.50,-1.55,-1.55
150,0.32,1.90,0.34,1.91,-1.91,-1.68,-1.59,-1.57,-1.57
151,0.25,1.84,0.26,1.85,-1.85,-1.64,-1.60,-1.59,-1.59
153,0.16,1.78,0.18,1.79,-1.79,-1.58,-1.63,-1.61,-1.62
154,0.11,1.74,0.09,1.72,-1.72,-1.54,-1.61,-1.63,-1.63
156,-0.01,1.65,0.01,1.66,-1.66,-1.47,-1.67,-1.65,-1.65
157,-0.09,1.58,-0.08,1.59,-1.59,-1.43,-1.68,-1.67,-1.67
159,-0.15,1.54,-0.17,1.52,-1.52,-1.36,-1.67,-1.69,-1.69
160,-0.24,1.46,-0.26,1.45,-1.45,-1.32,-1.69,-1.71,-1.70
162,-0.37,1.36,-0.36,1.37,-1.37,-1.24,-1.74,-1.72,-1.72
164,-0.46,1.29,-0.46,1.29,-1.29,-1.15,-1.74,-1.74,-1.75
165,-0.56,1.20,-0.56,1.20,-1.20,-1.11,-1.76,-1.76,-1.76
167,-0.67,1.11,-0.67,1.10,-1.10,-1.02,-1.77,-1.77,-1.78
169,-0.80,0.99,-0.78,1.01,-1.01,-0.93,-1.81,-1.79,-1.79
170,-0.88,0.92,-0.90,0.90,-0.90,-0.88,-1.78,-1.81,-1.80
172,-1.00,0.82,-1.02,0.80,-0.80,-0.78,-1.80,-1.82,-1.82
174,-1.17,0.67,-1.15,0.69,-0.69,-0.68,-1.86,-1.83,-1.84
175,-1.24,0.61,-1.27,0.58,-0.58,-0.63,-1.82,-1.85,-1.85
177,-1.43,0.43,-1.40,0.47,-0.47,-0.52,-1.90,-1.86,-1.86
179,-1.54,0.34,-1.52,0.35,-0.35,-0.41,-1.89,-1.87,-1.88
181,-1.67,0.22,-1.65,0.24,-0.24,-0.29,-1.91,-1.89,-1.89
183,-1.80,0.10,-1.78,0.12,-0.12,-0.17,-1.92,-1.90,-1.90
184,-1.88,0.03,-1.91,0.00,-0.00,-0.11,-1.88,-1.91,-1.91
186,-2.02,-0.10,-2.04,-0.12,0.12,0.01,-1.90,-1.92,-1.92
188,-2.17,-0.23,-2.19,-0.25,0.25,0.14,-1.92,-1.93,-1.93
190,-2.36,-0.41,-2.34,-0.39,0.39,0.27,-1.97,-1.95,-1.95
192,-2.47,-0.51,-2.50,-0.54,0.54,0.41,-1.93,-1.96,-1.96
194,-2.63,-0.66,-2.66,-0.70,0.70,0.55,-1.93,-1.97,-1.97
196,-2.85,-0.87,-2.83,-0.86,0.86,0.69,-1.99,-1.98,-1.98
198,-3.03,-1.04,-3.01,-1.02,1.02,0.83,-2.01,-1.99,-1.99
200,-3.20,-1.20,-3.18,-1.18,1.18,0.98,-2.01,-2.00,-2.00
202,-3.36,-1.35,-3.35,-1.35,1.35,1.14,-2.01,-2.01,-2.01
204,-3.53,-1.52,-3.52,-1.51,1.51,1.29,-2.02,-2.01,-2.01
206,-3.68,-1.66,-3.69,-1.67,1.67,1.45,-2.01,-2.02,-2.02
208,-3.86,-1.83,-3.86,-1.83,1.83,1.61,-2.03,-2.03,-2.03
210,-4.02,-1.98,-4.02,-1.98,1.98,1.77,-2.04,-2.04,-2.04
212,-4.18,-2.13,-4.18,-2.13,2.13,1.94,-2.04,-2.04,-2.04
214,-4.34,-2.29,-4.34,-2.28,2.28,2.10,-2.05,-2.05,-2.05
216,-4.47,-2.41,-4.49,-2.43,2.43,2.27,-2.04,-2.06,-2.06
218,-4.62,-2.56,-4.64,-2.58,2.58,2.43,-2.04,-2.06,-2.06
221,-4.84,-2.77,-4.79,-2.72,2.72,2.68,-2.12,-2.07,-2.07
223,-4.92,-2.84,-4.93,-2.85,2.85,2.84,-2.07,-2.08,-2.08
225,-5.07,-2.98,-5.07,-2.98,2.98,2.99,-2.09,-2.08,-2.08
227,-5.22,-3.13,-5.20,-3.11,3.11,3.15,-2.11,-2.09,-2.09
229,-5.27,-3.17,-5.33,-3.23,3.23,3.30,-2.04,-2.10,-2.09
232,-5.47,-3.37,-5.44,-3.34,3.34,3.51,-2.12,-2.10,-2.10
234,-5.57,-3.46,-5.56,-3.45,3.45,3.64,-2.12,-2.11,-2.11
236,-5.66,-3.55,-5.66,-3.55,3.55,3.76,-2.11,-2.11,-2.11
239,-5.78,-3.66,-5.76,-3.65,3.65,3.93,-2.13,-2.12,-2.12
241,-5.86,-3.74,-5.86,-3.74,3.74,4.03,-2.12,-2.12,-2.12
244,-5.98,-3.85,-5.95,-3.82,3.82,4.16,-2.15,-2.13,-2.13
246,-6.02,-3.89,-6.04,-3.91,3.91,4.23,-2.11,-2.13,-2.13
248,-6.08,-3.95,-6.12,-3.99,3.99,4.28,-2.09,-2.13,-2.13
251,-6.19,-4.05,-6.20,-4.06,4.06,4.34,-2.12,-2.14,-2.14
253,-6.25,-4.11,-6.28,-4.14,4.14,4.36,-2.11,-2.14,-2.14
256,-6.34,-4.19,-6.35,-4.20,4.20,4.37,-2.13,-2.15,-2.15
259,-6.40,-4.25,-6.41,-4.26,4.26,4.36,-2.14,-2.15,-2.15
261,-6.46,-4.31,-6.45,-4.29,4.29,4.33,-2.16,-2.15,-2.15
264,-6.47,-4.31,-6.46,-4.31,4.31,4.27,-2.16,-2.16,-2.16
266,-6.50,-4.34,-6.45,-4.29,4.29,4.22,-2.21,-2.16,-2.16
269,-6.47,-4.31,-6.40,-4.24,4.24,4.12,-2.23,-2.16,-2.16
272,-6.39,-4.22,-6.33,-4.16,4.16,4.01,-2.23,-2.17,-2.17
274,-6.25,-4.08,-6.22,-4.05,4.05,3.93,-2.20,-2.17,-2.17
277,-6.06,-3.89,-6.09,-3.92,3.92,3.80,-2.14,-2.17,-2.17
280,-5.91,-3.73,-5.94,-3.77,3.77,3.66,-2.14,-2.18,-2.18
283,-5.74,-3.56,-5.78,-3.61,3.61,3.51,-2.13,-2.18,-2.18
286,-5.60,-3.42,-5.62,-3.44,3.44,3.36,-2.16,-2.18,-2.18
288,-5.48,-3.30,-5.46,-3.28,3.28,3.26,-2.20,-2.18,-2.18
291,-5.30,-3.11,-5.30,-3.12,3.12,3.11,-2.18,-2.19,-2.18
294,-5.15,-2.96,-5.15,-2.96,2.96,2.96,-2.19,-2.19,-2.19
297,-4.99,-2.80,-5.00,-2.81,2.81,2.81,-2.18,-2.19,-2.19
300,-4.84,-2.65,-4.86,-2.67,2.67,2.66,-2.17,-2.19,-2.19
303,-4.71,-2.52,-4.73,-2.53,2.53,2.52,-2.18,-2.19,-2.19
306,-4.60,-2.40,-4.60,-2.40,2.40,2.37,-2.20,-2.20,-2.20
309,-4.49,-2.29,-4.47,-2.28,2.28,2.24,-2.21,-2.20,-2.20
312,-4.38,-2.18,-4.35,-2.16,2.16,2.11,-2.22,-2.20,-2.20
316,-4.23,-2.03,-4.24,-2.04,2.04,1.94,-2.19,-2.20,-2.20
319,-4.12,-1.92,-4.13,-1.92,1.92,1.82,-2.19,-2.20,-2.20
322,-4.01,-1.80,-4.02,-1.81,1.81,1.70,-2.20,-2.20,-2.20
325,-3.89,-1.68,-3.91,-1.70,1.70,1.59,-2.18,-2.21,-2.21
328,-3.84,-1.63,-3.80,-1.60,1.60,1.49,-2.24,-2.21,-2.21
332,-3.71,-1.50,-3.70,-1.49,1.49,1.35,-2.22,-2.21,-2.21
335,-3.60,-1.39,-3.60,-1.39,1.39,1.26,-2.21,-2.21,-2.21
338,-3.49,-1.28,-3.49,-1.28,1.28,1.17,-2.21,-2.21,-2.21
342,-3.39,-1.18,-3.39,-1.18,1.18,1.05,-2.21,-2.21,-2.21
345,-3.29,-1.08,-3.29,-1.08,1.08,0.97,-2.21,-2.21,-2.21
349,-3.19,-0.97,-3.20,-0.98,0.98,0.87,-2.21,-2.22,-2.22
352,-3.10,-0.88,-3.10,-0.88,0.88,0.80,-2.21,-2.22,-2.22
356,-3.02,-0.80,-3.01,-0.79,0.79,0.71,-2.23,-2.22,-2.22
359,-2.92,-0.70,-2.92,-0.70,0.70,0.64,-2.21,-2.22,-2.22
363,-2.84,-0.62,-2.84,-0.62,0.62,0.56,-2.22,-2.22,-2.22
366,-2.76,-0.54,-2.76,-0.54,0.54,0.51,-2.22,-2.22,-2.22
370,-2.67,-0.45,-2.68,-0.46,0.46,0.43,-2.21,-2.22,-2.22
374,-2.62,-0.39,-2.61,-0.38,0.38,0.37,-2.24,-2.22,-2.22
377,-2.54,-0.31,-2.53,-0.31,0.31,0.32,-2.23,-2.23,-2.23
381,-2.46,-0.23,-2.46,-0.24,0.24,0.26,-2.22,-2.23,-2.23
385,-2.40,-0.17,-2.40,-0.17,0.17,0.20,-2.23,-2.23,-2.23
389,-2.34,-0.11,-2.33,-0.10,0.10,0.15,-2.24,-2.23,-2.23
393,-2.27,-0.04,-2.27,-0.03,0.03,0.10,-2.23,-2.23,-2.23
397,-2.20,0.03,-2.20,0.03,-0.03,0.06,-2.23,-2.23,-2.23
401,-2.13,0.11,-2.14,0.09,-0.09,0.01,-2.22,-2.23,-2.23
405,-2.10,0.14,-2.09,0.15,-0.15,-0.03,-2.25,-2.24,-2.24
409,-2.02,0.22,-2.03,0.20,-0.20,-0.06,-2.22,-2.24,-2.24
413,-1.99,0.25,-1.98,0.26,-0.26,-0.10,-2.24,-2.24,-2.24
417,-1.94,0.30,-1.93,0.31,-0.31,-0.13,-2.24,-2.24,-2.24
421,-1.88,0.36,-1.88,0.35,-0.35,-0.16,-2.23,-2.24,-2.24
425,-1.86,0.38,-1.84,0.40,-0.40,-0.19,-2.26,-2.24,-2.24
430,-1.79,0.45,-1.80,0.44,-0.44,-0.22,-2.23,-2.24,-2.24
434,-1.74,0.50,-1.76,0.48,-0.48,-0.25,-2.22,-2.23,-2.23
438,-1.73,0.50,-1.72,0.51,-0.51,-0.27,-2.24,-2.23,-2.23
443,-1.70,0.53,-1.69,0.54,-0.54,-0.30,-2.24,-2.23,-2.23
447,-1.64,0.59,-1.66,0.57,-0.57,-0.32,-2.21,-2.23,-2.23
451,-1.61,0.61,-1.63,0.59,-0.59,-0.34,-2.20,-2.22,-2.22
456,-1.60,0.62,-1.60,0.61,-0.61,-0.36,-2.21,-2.22,-2.22
460,-1.59,0.62,-1.58,0.63,-0.63,-0.37,-2.22,-2.21,-2.21
465,-1.57,0.63,-1.55,0.65,-0.65,-0.39,-2.22,-2.20,-2.20
470,-1.54,0.66,-1.53,0.67,-0.67,-0.41,-2.21,-2.20,-2.20
474,-1.51,0.68,-1.50,0.68,-0.68,-0.42,-2.19,-2.19,-2.19
479,-1.49,0.69,-1.48,0.70,-0.70,-0.44,-2.19,-2.18,-2.18
484,-1.42,0.75,-1.45,0.72,-0.72,-0.45,-2.13,-2.17,-2.17
489,-1.41,0.74,-1.42,0.73,-0.73,-0.46,-2.14,-2.15,-2.15
494,-1.40,0.74,-1.40,0.74,-0.74,-0.47,-2.14,-2.14,-2.14
499,-1.38,0.75,-1.37,0.76,-0.76,-0.48,-2.14,-2.13,-2.13
504,-1.36,0.75,-1.34,0.77,-0.77,-0.49,-2.13,-2.11,-2.11
509,-1.32,0.78,-1.32,0.78,-0.78,-0.50,-2.10,-2.09,-2.09
514,-1.29,0.79,-1.29,0.79,-0.79,-0.51,-2.08,-2.08,-2.08
519,-1.26,0.80,-1.26,0.79,-0.79,-0.52,-2.05,-2.06,-2.06
524,-1.24,0.80,-1.24,0.80,-0.80,-0.52,-2.04,-2.04,-2.04
529,-1.21,0.81,-1.21,0.80,-0.80,-0.53,-2.01,-2.02,-2.02
535,-1.19,0.81,-1.19,0.81,-0.81,-0.53,-2.00,-2.00,-2.00
540,-1.15,0.83,-1.17,0.81,-0.81,-0.54,-1.96,-1.97,-1.97
545,-1.15,0.80,-1.14,0.81,-0.81,-0.54,-1.96,-1.95,-1.95
551,-1.13,0.80,-1.12,0.81,-0.81,-0.54,-1.93,-1.93,-1.93
556,-1.11,0.79,-1.10,0.80,-0.80,-0.55,-1.91,-1.90,-1.90
562,-1.07,0.81,-1.07,0.80,-0.80,-0.55,-1.87,-1.88,-1.88
568,-1.05,0.80,-1.05,0.80,-0.80,-0.55,-1.85,-1.85,-1.85
573,-1.01,0.81,-1.02,0.80,-0.80,-0.55,-1.81,-1.82,-1.82
579,-1.00,0.80,-0.99,0.81,-0.81,-0.56,-1.80,-1.79,-1.79
585,-0.97,0.80,-0.96,0.81,-0.81,-0.56,-1.78,-1.77,-1.77
591,-0.93,0.81,-0.92,0.82,-0.82,-0.56,-1.74,-1.74,-1.74
596,-0.88,0.83,-0.88,0.82,-0.82,-0.56,-1.70,-1.71,-1.71
602,-0.85,0.83,-0.85,0.83,-0.83,-0.56,-1.68,-1.68,-1.68
608,-0.81,0.84,-0.81,0.83,-0.83,-0.56,-1.64,-1.64,-1.64
615,-0.78,0.83,-0.78,0.83,-0.83,-0.56,-1.61,-1.61,-1.61
621,-0.74,0.84,-0.75,0.83,-0.83,-0.56,-1.57,-1.58,-1.58
627,-0.70,0.85,-0.72,0.83,-0.83,-0.56,-1.53,-1.55,-1.55
633,-0.70,0.81,-0.69,0.82,-0.82,-0.56,-1.52,-1.51,-1.51
639,-0.67,0.81,-0.67,0.81,-0.81,-0.56,-1.48,-1.48,-1.48
646,-0.66,0.79,-0.64,0.80,-0.80,-0.55,-1.46,-1.45,-1.45
652,-0.63,0.78,-0.62,0.79,-0.79,-0.55,-1.42,-1.41,-1.41
659,-0.60,0.78,-0.60,0.77,-0.77,-0.55,-1.37,-1.37,-1.37
665,-0.58,0.76,-0.58,0.76,-0.76,-0.55,-1.34,-1.34,-1.34
672,-0.55,0.75,-0.56,0.74,-0.74,-0.55,-1.29,-1.30,-1.30
679,-0.53,0.74,-0.54,0.72,-0.72,-0.54,-1.25,-1.27,-1.27
686,-0.52,0.71,-0.53,0.70,-0.70,-0.54,-1.22,-1.23,-1.23
692,-0.52,0.67,-0.51,0.68,-0.68,-0.54,-1.20,-1.19,-1.19
699,-0.52,0.63,-0.49,0.66,-0.66,-0.54,-1.18,-1.15,-1.15
706,-0.49,0.63,-0.48,0.64,-0.64,-0.53,-1.13,-1.12,-1.12
713,-0.45,0.63,-0.46,0.62,-0.62,-0.53,-1.07,-1.08,-1.08
721,-0.42,0.62,-0.44,0.60,-0.60,-0.53,-1.02,-1.04,-1.04
728,-0.40,0.60,-0.43,0.58,-0.58,-0.52,-0.97,-1.00,-1.00
735,-0.43,0.53,-0.41,0.55,-0.55,-0.52,-0.98,-0.96,-0.96
742,-0.43,0.50,-0.39,0.53,-0.53,-0.52,-0.96,-0.93,-0.93
750,-0.39,0.50,-0.38,0.51,-0.51,-0.51,-0.90,-0.89,-0.89
757,-0.35,0.50,-0.36,0.49,-0.49,-0.51,-0.84,-0.85,-0.85
765,-0.31,0.50,-0.34,0.47,-0.47,-0.51,-0.78,-0.81,-0.81
773,-0.30,0.48,-0.33,0.45,-0.45,-0.50,-0.75,-0.78,-0.78
780,-0.34,0.40,-0.31,0.43,-0.43,-0.50,-0.77,-0.74,-0.74
788,-0.31,0.40,-0.30,0.41,-0.41,-0.49,-0.72,-0.71,-0.71
796,-0.30,0.37,-0.28,0.39,-0.39,-0.49,-0.69,-0.67,-0.67
804,-0.27,0.37,-0.26,0.37,-0.37,-0.48,-0.64,-0.64,-0.64
812,-0.24,0.36,-0.24,0.36,-0.36,-0.47,-0.60,-0.60,-0.60
820,-0.22,0.35,-0.22,0.35,-0.35,-0.47,-0.56,-0.57,-0.57
828,-0.20,0.34,-0.20,0.33,-0.33,-0.46,-0.53,-0.54,-0.54
837,-0.18,0.32,-0.18,0.32,-0.32,-0.45,-0.50,-0.50,-0.50
845,-0.16,0.31,-0.17,0.31,-0.31,-0.44,-0.47,-0.47,-0.47
853,-0.14,0.30,-0.15,0.29,-0.29,-0.43,-0.43,-0.44,-0.44
862,-0.13,0.28,-0.13,0.28,-0.28,-0.42,-0.41,-0.41,-0.41
871,-0.13,0.25,-0.12,0.26,-0.26,-0.41,-0.39,-0.38,-0.38
879,-0.13,0.22,-0.11,0.25,-0.25,-0.39,-0.37,-0.35,-0.35
888,-0.11,0.22,-0.09,0.23,-0.23,-0.38,-0.34,-0.32,-0.32
897,-0.08,0.22,-0.08,0.21,-0.21,-0.36,-0.29,-0.30,-0.30
906,-0.06,0.21,-0.07,0.19,-0.19,-0.34,-0.25,-0.27,-0.27
915,-0.03,0.21,-0.07,0.17,-0.17,-0.32,-0.20,-0.24,-0.24
924,-0.06,0.15,-0.06,0.15,-0.15,-0.29,-0.21,-0.21,-0.21
933,-0.07,0.12,-0.05,0.13,-0.13,-0.27,-0.20,-0.19,-0.19
943,-0.07,0.09,-0.05,0.11,-0.11,-0.23,-0.18,-0.16,-0.16
952,-0.05,0.08,-0.04,0.09,-0.09,-0.20,-0.14,-0.13,-0.13
962,-0.04,0.07,-0.04,0.07,-0.07,-0.15,-0.11,-0.11,-0.11
971,-0.03,0.05,-0.03,0.05,-0.05,-0.11,-0.08,-0.08,-0.08
981,-0.02,0.03,-0.02,0.03,-0.03,-0.06,-0.05,-0.05,-0.05
991,-0.01,0.02,-0.02,0.01,-0.01,-0.01,-0.02,-0.03,-0.03
1001,0.00,0.00,-0.01,-0.01,0.01,0.04,0.01,0.00,0.00
1011,0.01,-0.02,0.00,-0.03,0.03,0.08,0.04,0.03,0.03
1021,0.01,-0.04,0.01,-0.04,0.04,0.12,0.05,0.05,0.05
1031,0.03,-0.05,0.02,-0.06,0.06,0.15,0.09,0.08,0.08
1041,0.04,-0.07,0.04,-0.07,0.07,0.16,0.11,0.11,0.11
1052,0.07,-0.07,0.07,-0.07,0.07,0.15,0.14,0.14,0.14
1062,0.09,-0.08,0.10,-0.07,0.07,0.12,0.16,0.17,0.17
1073,0.11,-0.08,0.14,-0.05,0.05,0.08,0.16,0.19,0.19
1084,0.18,-0.04,0.20,-0.03,0.03,0.02,0.21,0.22,0.22
1094,0.26,0.01,0.26,0.01,-0.01,-0.04,0.25,0.25,0.25
1105,0.33,0.05,0.33,0.05,-0.05,-0.10,0.28,0.28,0.28
1116,0.42,0.11,0.41,0.10,-0.10,-0.17,0.32,0.31,0.31
1128,0.50,0.16,0.50,0.16,-0.16,-0.25,0.34,0.34,0.34
1139,0.60,0.23,0.59,0.21,-0.21,-0.31,0.39,0.37,0.37
1150,0.69,0.29,0.68,0.27,-0.27,-0.37,0.42,0.40,0.40
1162,0.78,0.34,0.77,0.33,-0.33,-0.44,0.45,0.44,0.44
1173,0.85,0.38,0.86,0.39,-0.39,-0.49,0.46,0.47,0.47
1185,0.95,0.45,0.95,0.45,-0.45,-0.55,0.50,0.50,0.50
1197,1.00,0.47,1.04,0.50,-0.50,-0.60,0.50,0.53,0.53
1209,1.14,0.58,1.13,0.56,-0.56,-0.65,0.58,0.56,0.56
1221,1.20,0.60,1.22,0.62,-0.62,-0.69,0.58,0.60,0.60
1233,1.34,0.71,1.31,0.68,-0.68,-0.74,0.66,0.63,0.63
1246,1.41,0.75,1.40,0.73,-0.73,-0.79,0.68,0.66,0.66
1258,1.48,0.78,1.49,0.79,-0.79,-0.83,0.69,0.70,0.70
1271,1.59,0.86,1.58,0.85,-0.85,-0.88,0.74,0.73,0.73
1283,1.67,0.90,1.68,0.91,-0.91,-0.92,0.76,0.77,0.77
1296,1.78,0.98,1.78,0.98,-0.98,-0.96,0.80,0.80,0.80
1309,1.88,1.04,1.89,1.05,-1.05,-1.01,0.83,0.84,0.84
1322,1.98,1.11,1.99,1.12,-1.12,-1.06,0.86,0.87,0.87
1335,2.10,1.19,2.11,1.20,-1.20,-1.10,0.90,0.91,0.91
1349,2.21,1.27,2.23,1.28,-1.28,-1.15,0.93,0.95,0.95
1362,2.36,1.38,2.35,1.37,-1.37,-1.20,1.00,0.98,0.98
1376,2.48,1.46,2.47,1.45,-1.45,-1.26,1.03,1.02,1.02
1390,2.61,1.55,2.60,1.54,-1.54,-1.32,1.07,1.06,1.06
1404,2.70,1.61,2.72,1.62,-1.62,-1.37,1.08,1.10,1.10
1418,2.87,1.74,2.84,1.71,-1.71,-1.43,1.16,1.13,1.13
1432,2.96,1.79,2.97,1.80,-1.80,-1.50,1.17,1.17,1.17
1446,3.10,1.89,3.09,1.88,-1.88,-1.56,1.22,1.21,1.21
1461,3.22,1.97,3.22,1.97,-1.97,-1.63,1.26,1.25,1.25
1475,3.34,2.05,3.34,2.05,-2.05,-1.70,1.29,1.29,1.29
1490,3.46,2.13,3.47,2.14,-2.14,-1.78,1.32,1.33,1.33
1505,3.61,2.24,3.61,2.24,-2.24,-1.86,1.37,1.37,1.37
1520,3.73,2.32,3.75,2.33,-2.33,-1.95,1.40,1.41,1.41
1535,3.89,2.44,3.89,2.43,-2.43,-2.04,1.46,1.46,1.46
1550,4.04,2.54,4.04,2.54,-2.54,-2.13,1.50,1.50,1.50
1566,4.18,2.64,4.19,2.65,-2.65,-2.23,1.53,1.54,1.54
1582,4.35,2.77,4.34,2.76,-2.76,-2.34,1.59,1.58,1.58
1597,4.49,2.87,4.49,2.87,-2.87,-2.44,1.62,1.63,1.63
1613,4.64,2.97,4.65,2.98,-2.98,-2.55,1.66,1.67,1.67
1629,4.80,3.09,4.81,3.09,-3.09,-2.67,1.71,1.71,1.71
1646,4.97,3.21,4.96,3.20,-3.20,-2.80,1.77,1.76,1.76
1662,5.13,3.33,5.12,3.31,-3.31,-2.92,1.82,1.80,1.80
1679,5.26,3.41,5.27,3.42,-3.42,-3.06,1.84,1.85,1.85
1696,5.42,3.53,5.42,3.52,-3.52,-3.20,1.90,1.89,1.90
1713,5.57,3.63,5.57,3.62,-3.62,-3.34,1.95,1.94,1.94
1730,5.70,3.71,5.71,3.72,-3.72,-3.48,1.98,1.99,1.99
1747,5.86,3.82,5.86,3.82,-3.82,-3.63,2.04,2.04,2.04
1764,5.98,3.89,6.00,3.91,-3.91,-3.77,2.07,2.09,2.09
