frequency,raw,error,smoothed,error_smoothed,equalization,parametric_eq,equalized_raw,equalized_smoothed,target
20,-13.70,-17.01,-13.71,-17.02,6.00,2.90,-7.70,-7.71,3.31
21,-12.95,-16.26,-12.97,-16.28,6.00,3.32,-6.95,-6.97,3.31
22,-12.22,-15.53,-12.25,-15.56,6.00,3.79,-6.22,-6.25,3.31
23,-11.57,-14.88,-11.55,-14.85,6.00,4.29,-5.57,-5.55,3.30
24,-10.91,-14.21,-10.87,-14.17,6.00,4.83,-4.91,-4.87,3.30
25,-10.24,-13.54,-10.21,-13.51,6.00,5.38,-4.24,-4.21,3.30
26,-9.59,-12.89,-9.57,-12.87,6.00,5.93,-3.59,-3.57,3.30
27,-8.95,-12.24,-8.95,-12.24,6.00,6.46,-2.95,-2.95,3.29
28,-8.33,-11.62,-8.35,-11.64,6.00,6.93,-2.33,-2.35,3.29
29,-7.76,-11.05,-7.77,-11.05,6.00,7.31,-1.76,-1.77,3.28
30,-7.19,-10.47,-7.21,-10.49,6.00,7.56,-1.19,-1.21,3.28
31,-6.64,-9.92,-6.67,-9.94,6.00,7.66,-0.64,-0.67,3.27
32,-6.13,-9.40,-6.15,-9.42,6.00,7.62,-0.13,-0.15,3.27
33,-5.65,-8.91,-5.65,-8.91,6.00,7.44,0.35,0.35,3.26
34,-5.18,-8.44,-5.18,-8.43,6.00,7.17,0.82,0.82,3.25
35,-4.73,-7.98,-4.72,-7.96,6.00,6.83,1.27,1.28,3.25
36,-4.27,-7.51,-4.28,-7.52,6.00,6.45,1.73,1.72,3.24
37,-3.85,-7.08,-3.86,-7.09,6.00,6.06,2.15,2.14,3.23
38,-3.46,-6.68,-3.46,-6.68,5.94,5.66,2.48,2.48,3.22
39,-3.08,-6.29,-3.08,-6.29,5.82,5.29,2.74,2.75,3.21
40,-2.71,-5.91,-2.71,-5.91,5.65,4.93,2.94,2.94,3.20
41,-2.36,-5.55,-2.36,-5.55,5.43,4.59,3.07,3.06,3.19
42,-2.03,-5.21,-2.03,-5.21,5.17,4.27,3.14,3.14,3.18
43,-1.72,-4.89,-1.72,-4.88,4.88,3.98,3.16,3.16,3.16
44,-1.42,-4.57,-1.42,-4.57,4.57,3.71,3.14,3.15,3.15
45,-1.13,-4.27,-1.13,-4.27,4.27,3.46,3.13,3.14,3.14
46,-0.86,-3.98,-0.86,-3.98,3.98,3.22,3.12,3.12,3.12
47,-0.61,-3.72,-0.60,-3.71,3.71,3.01,3.10,3.10,3.10
48,-0.36,-3.45,-0.36,-3.45,3.45,2.81,3.09,3.09,3.09
49,-0.12,-3.19,-0.13,-3.20,3.20,2.63,3.08,3.07,3.07
50,0.09,-2.96,0.08,-2.97,2.97,2.46,3.05,3.05,3.05
51,0.30,-2.73,0.29,-2.74,2.74,2.30,3.04,3.03,3.03
52,0.49,-2.52,0.48,-2.53,2.53,2.15,3.02,3.01,3.01
53,0.66,-2.33,0.66,-2.33,2.33,2.01,2.99,2.99,2.99
54,0.83,-2.14,0.83,-2.14,2.14,1.88,2.97,2.97,2.97
55,0.99,-1.95,0.98,-1.96,1.96,1.76,2.95,2.94,2.94
56,1.13,-1.79,1.13,-1.78,1.78,1.65,2.91,2.92,2.92
57,1.26,-1.63,1.27,-1.62,1.62,1.54,2.88,2.89,2.89
58,1.39,-1.48,1.40,-1.46,1.46,1.44,2.85,2.87,2.87
59,1.51,-1.33,1.52,-1.31,1.31,1.34,2.82,2.84,2.84
60,1.62,-1.19,1.64,-1.17,1.17,1.25,2.79,2.81,2.81
61,1.73,-1.05,1.74,-1.04,1.04,1.16,2.77,2.78,2.78
62,1.84,-0.91,1.84,-0.91,0.91,1.07,2.75,2.75,2.75
63,1.94,-0.78,1.93,-0.79,0.79,0.99,2.73,2.72,2.72
64,2.04,-0.65,2.01,-0.68,0.68,0.91,2.72,2.69,2.69
65,2.12,-0.54,2.08,-0.58,0.58,0.83,2.70,2.66,2.66
66,2.17,-0.46,2.14,-0.48,0.48,0.76,2.65,2.62,2.62
67,2.22,-0.37,2.20,-0.39,0.39,0.69,2.61,2.59,2.59
68,2.25,-0.31,2.25,-0.31,0.31,0.62,2.56,2.56,2.56
69,2.28,-0.24,2.29,-0.23,0.23,0.55,2.51,2.52,2.52
70,2.31,-0.18,2.33,-0.16,0.16,0.48,2.47,2.48,2.49
71,2.34,-0.11,2.36,-0.09,0.09,0.42,2.43,2.45,2.45
72,2.37,-0.04,2.39,-0.02,0.02,0.35,2.39,2.41,2.41
73,2.40,0.02,2.41,0.04,-0.04,0.29,2.36,2.37,2.37
74,2.44,0.10,2.44,0.10,-0.10,0.23,2.34,2.34,2.34
75,2.47,0.17,2.46,0.16,-0.16,0.17,2.31,2.30,2.30
76,2.49,0.23,2.48,0.22,-0.22,0.11,2.27,2.26,2.26
77,2.49,0.27,2.49,0.27,-0.27,0.05,2.21,2.22,2.22
78,2.50,0.32,2.51,0.33,-0.33,-0.01,2.17,2.18,2.18
79,2.51,0.37,2.52,0.38,-0.38,-0.07,2.13,2.14,2.14
80,2.53,0.43,2.53,0.44,-0.44,-0.13,2.09,2.10,2.10
81,2.55,0.49,2.54,0.49,-0.49,-0.19,2.06,2.06,2.06
82,2.56,0.54,2.55,0.53,-0.53,-0.25,2.02,2.01,2.01
83,2.56,0.59,2.55,0.58,-0.58,-0.31,1.98,1.97,1.97
84,2.57,0.64,2.56,0.63,-0.63,-0.37,1.94,1.93,1.93
85,2.57,0.68,2.56,0.67,-0.67,-0.43,1.89,1.89,1.89
86,2.56,0.71,2.57,0.72,-0.72,-0.48,1.84,1.85,1.85
87,2.56,0.75,2.57,0.76,-0.76,-0.54,1.80,1.81,1.81
88,2.56,0.79,2.57,0.80,-0.80,-0.60,1.76,1.77,1.76
89,2.57,0.84,2.57,0.84,-0.84,-0.66,1.72,1.72,1.72
90,2.57,0.89,2.57,0.88,-0.88,-0.72,1.68,1.68,1.68
91,2.56,0.92,2.57,0.92,-0.92,-0.78,1.63,1.64,1.64
92,2.57,0.97,2.56,0.96,-0.96,-0.84,1.61,1.60,1.60
93,2.56,1.00,2.56,1.00,-1.00,-0.90,1.56,1.56,1.56
94,2.56,1.04,2.56,1.04,-1.04,-0.96,1.52,1.52,1.52
95,2.55,1.07,2.55,1.07,-1.07,-1.01,1.47,1.48,1.48
96,2.55,1.11,2.55,1.11,-1.11,-1.07,1.44,1.44,1.44
97,2.56,1.16,2.54,1.14,-1.14,-1.13,1.41,1.40,1.40
98,2.55,1.19,2.53,1.18,-1.18,-1.19,1.37,1.36,1.36
99,2.54,1.22,2.53,1.21,-1.21,-1.25,1.33,1.31,1.32
100,2.53,1.25,2.52,1.25,-1.25,-1.31,1.28,1.27,1.28
101,2.51,1.27,2.51,1.28,-1.28,-1.36,1.23,1.23,1.24
102,2.49,1.28,2.50,1.31,-1.31,-1.42,1.17,1.19,1.20
104,2.47,1.34,2.50,1.35,-1.35,-1.53,1.12,1.15,1.13
105,2.47,1.37,2.49,1.38,-1.38,-1.59,1.09,1.11,1.09
106,2.47,1.41,2.48,1.42,-1.42,-1.64,1.05,1.07,1.06
107,2.47,1.45,2.48,1.45,-1.45,-1.69,1.02,1.03,1.02
108,2.48,1.49,2.48,1.48,-1.48,-1.74,0.99,0.99,0.99
109,2.49,1.53,2.47,1.52,-1.52,-1.79,0.97,0.96,0.95
110,2.49,1.57,2.47,1.55,-1.55,-1.84,0.94,0.92,0.92
111,2.49,1.60,2.47,1.58,-1.58,-1.88,0.91,0.88,0.89
112,2.48,1.62,2.46,1.62,-1.62,-1.93,0.86,0.85,0.85
113,2.47,1.65,2.46,1.65,-1.65,-1.97,0.82,0.81,0.82
114,2.46,1.67,2.46,1.68,-1.68,-2.01,0.78,0.78,0.79
115,2.46,1.70,2.45,1.71,-1.71,-2.05,0.75,0.74,0.76
117,2.44,1.74,2.45,1.74,-1.74,-2.12,0.70,0.71,0.70
118,2.42,1.75,2.45,1.77,-1.77,-2.15,0.64,0.68,0.67
119,2.42,1.78,2.45,1.81,-1.81,-2.17,0.61,0.64,0.64
120,2.43,1.82,2.44,1.84,-1.84,-2.20,0.59,0.61,0.61
121,2.43,1.84,2.44,1.87,-1.87,-2.22,0.56,0.57,0.58
123,2.46,1.93,2.44,1.90,-1.90,-2.26,0.56,0.54,0.53
124,2.47,1.96,2.44,1.93,-1.93,-2.28,0.54,0.51,0.50
125,2.47,1.99,2.43,1.96,-1.96,-2.29,0.51,0.48,0.48
126,2.46,2.01,2.43,1.98,-1.98,-2.30,0.47,0.45,0.45
128,2.44,2.03,2.42,2.01,-2.01,-2.32,0.43,0.41,0.40
129,2.41,2.03,2.42,2.03,-2.03,-2.32,0.38,0.38,0.38
130,2.38,2.02,2.41,2.06,-2.06,-2.33,0.32,0.35,0.36
131,2.38,2.04,2.40,2.08,-2.08,-2.33,0.30,0.33,0.34
133,2.37,2.08,2.39,2.10,-2.10,-2.32,0.27,0.30,0.29
134,2.38,2.11,2.39,2.12,-2.12,-2.32,0.26,0.27,0.27
135,2.39,2.14,2.38,2.14,-2.14,-2.31,0.25,0.24,0.25
137,2.40,2.19,2.37,2.15,-2.15,-2.30,0.24,0.21,0.21
138,2.39,2.20,2.36,2.17,-2.17,-2.29,0.22,0.19,0.19
140,2.36,2.20,2.35,2.19,-2.19,-2.27,0.17,0.16,0.15
141,2.34,2.20,2.34,2.21,-2.21,-2.25,0.13,0.14,0.14
142,2.33,2.21,2.34,2.22,-2.22,-2.24,0.10,0.11,0.12
144,2.31,2.22,2.33,2.24,-2.24,-2.21,0.07,0.09,0.08
145,2.30,2.23,2.32,2.25,-2.25,-2.20,0.04,0.06,0.07
147,2.30,2.26,2.31,2.27,-2.27,-2.17,0.03,0.04,0.04
148,2.30,2.28,2.30,2.28,-2.28,-2.16,0.02,0.02,0.02
150,2.31,2.32,2.29,2.29,-2.29,-2.13,0.01,-0.00,-0.01
151,2.31,2.33,2.28,2.30,-2.30,-2.11,0.00,-0.02,-0.02
153,2.30,2.35,2.27,2.31,-2.31,-2.08,-0.02,-0.05,-0.05
154,2.27,2.33,2.26,2.32,-2.32,-2.07,-0.06,-0.07,-0.06
156,2.24,2.33,2.25,2.33,-2.33,-2.04,-0.09,-0.08,-0.09
157,2.22,2.32,2.23,2.34,-2.34,-2.03,-0.12,-0.10,-0.10
159,2.19,2.31,2.22,2.34,-2.34,-2.00,-0.16,-0.12,-0.12
160,2.19,2.32,2.21,2.35,-2.35,-1.99,-0.16,-0.14,-0.14
162,2.18,2.34,2.20,2.35,-2.35,-1.97,-0.18,-0.16,-0.16
164,2.19,2.37,2.18,2.36,-2.36,-1.95,-0.17,-0.18,-0.18
165,2.18,2.37,2.17,2.36,-2.36,-1.94,-0.18,-0.19,-0.19
167,2.18,2.39,2.15,2.36,-2.36,-1.92,-0.18,-0.21,-0.21
169,2.15,2.38,2.13,2.35,-2.35,-1.91,-0.21,-0.22,-0.23
170,2.14,2.37,2.11,2.35,-2.35,-1.90,-0.21,-0.24,-0.24
172,2.10,2.35,2.09,2.34,-2.34,-1.89,-0.25,-0.25,-0.25
174,2.07,2.34,2.07,2.34,-2.34,-1.87,-0.27,-0.27,-0.27
175,2.05,2.33,2.05,2.33,-2.33,-1.87,-0.28,-0.28,-0.28
177,2.02,2.31,2.03,2.32,-2.32,-1.86,-0.30,-0.30,-0.29
179,1.98,2.29,2.00,2.31,-2.31,-1.86,-0.33,-0.31,-0.31
181,1.95,2.27,1.98,2.30,-2.30,-1.85,-0.36,-0.32,-0.32
183,1.93,2.26,1.96,2.29,-2.29,-1.85,-0.37,-0.33,-0.34
184,1.93,2.27,1.94,2.28,-2.28,-1.85,-0.36,-0.35,-0.34
186,1.93,2.28,1.92,2.27,-2.27,-1.85,-0.35,-0.36,-0.36
188,1.92,2.29,1.90,2.26,-2.26,-1.85,-0.35,-0.37,-0.37
190,1.91,2.29,1.87,2.25,-2.25,-1.86,-0.34,-0.38,-0.38
192,1.88,2.27,1.85,2.24,-2.24,-1.86,-0.36,-0.39,-0.39
194,1.85,2.25,1.83,2.23,-2.23,-1.87,-0.38,-0.40,-0.40
196,1.82,2.23,1.80,2.21,-2.21,-1.88,-0.39,-0.41,-0.41
198,1.77,2.19,1.78,2.20,-2.20,-1.89,-0.43,-0.42,-0.42
200,1.74,2.17,1.75,2.18,-2.18,-1.90,-0.45,-0.43,-0.43
202,1.71,2.15,1.73,2.17,-2.17,-1.91,-0.46,-0.44,-0.44
204,1.69,2.14,1.71,2.16,-2.16,-1.92,-0.47,-0.45,-0.45
206,1.68,2.13,1.69,2.15,-2.15,-1.93,-0.47,-0.46,-0.46
208,1.65,2.11,1.67,2.14,-2.14,-1.95,-0.49,-0.46,-0.46
210,1.65,2.12,1.66,2.13,-2.13,-1.96,-0.48,-0.47,-0.47
212,1.64,2.12,1.64,2.12,-2.12,-1.98,-0.48,-0.48,-0.48
214,1.63,2.11,1.63,2.11,-2.11,-2.00,-0.48,-0.49,-0.48
216,1.63,2.12,1.61,2.10,-2.10,-2.01,-0.48,-0.49,-0.49
218,1.63,2.13,1.60,2.10,-2.10,-2.03,-0.47,-0.50,-0.50
221,1.62,2.12,1.59,2.09,-2.09,-2.05,-0.47,-0.51,-0.51
223,1.59,2.10,1.57,2.08,-2.08,-2.07,-0.50,-0.51,-0.51
225,1.57,2.09,1.56,2.08,-2.08,-2.09,-0.51,-0.52,-0.52
227,1.55,2.07,1.55,2.07,-2.07,-2.11,-0.52,-0.52,-0.52
229,1.53,2.06,1.54,2.07,-2.07,-2.12,-0.54,-0.53,-0.53
232,1.51,2.04,1.53,2.06,-2.06,-2.15,-0.55,-0.53,-0.54
234,1.50,2.04,1.52,2.06,-2.06,-2.17,-0.56,-0.54,-0.54
236,1.50,2.04,1.51,2.05,-2.05,-2.18,-0.56,-0.54,-0.54
239,1.50,2.05,1.51,2.05,-2.05,-2.21,-0.56,-0.55,-0.55
241,1.50,2.05,1.50,2.06,-2.06,-2.22,-0.56,-0.55,-0.55
244,1.51,2.07,1.50,2.06,-2.06,-2.25,-0.55,-0.56,-0.56
246,1.51,2.07,1.50,2.07,-2.07,-2.26,-0.56,-0.56,-0.56
248,1.51,2.08,1.51,2.07,-2.07,-2.28,-0.57,-0.57,-0.57
251,1.52,2.09,1.51,2.08,-2.08,-2.30,-0.57,-0.57,-0.57
253,1.52,2.09,1.52,2.09,-2.09,-2.31,-0.58,-0.58,-0.58
256,1.53,2.11,1.53,2.11,-2.11,-2.33,-0.58,-0.58,-0.58
259,1.54,2.12,1.54,2.12,-2.12,-2.35,-0.58,-0.58,-0.58
261,1.55,2.13,1.55,2.13,-2.13,-2.37,-0.59,-0.59,-0.59
264,1.56,2.15,1.56,2.15,-2.15,-2.38,-0.59,-0.59,-0.59
266,1.57,2.16,1.57,2.17,-2.17,-2.40,-0.60,-0.59,-0.59
269,1.59,2.18,1.59,2.18,-2.18,-2.42,-0.60,-0.60,-0.60
272,1.61,2.21,1.60,2.20,-2.20,-2.43,-0.59,-0.60,-0.60
274,1.62,2.22,1.62,2.22,-2.22,-2.45,-0.60,-0.60,-0.60
277,1.63,2.23,1.63,2.24,-2.24,-2.47,-0.61,-0.61,-0.61
280,1.65,2.26,1.65,2.26,-2.26,-2.49,-0.61,-0.61,-0.61
283,1.67,2.28,1.67,2.28,-2.28,-2.51,-0.61,-0.61,-0.61
286,1.69,2.30,1.68,2.30,-2.30,-2.53,-0.61,-0.61,-0.61
288,1.70,2.31,1.70,2.32,-2.32,-2.54,-0.62,-0.62,-0.62
291,1.73,2.35,1.72,2.34,-2.34,-2.56,-0.61,-0.62,-0.62
294,1.75,2.37,1.74,2.36,-2.36,-2.59,-0.61,-0.62,-0.62
297,1.77,2.39,1.76,2.38,-2.38,-2.61,-0.62,-0.62,-0.62
300,1.79,2.41,1.78,2.41,-2.41,-2.64,-0.62,-0.63,-0.63
303,1.81,2.44,1.80,2.43,-2.43,-2.66,-0.62,-0.63,-0.63
306,1.83,2.46,1.83,2.45,-2.45,-2.69,-0.63,-0.63,-0.63
309,1.86,2.49,1.85,2.48,-2.48,-2.72,-0.62,-0.63,-0.63
312,1.88,2.51,1.88,2.51,-2.51,-2.75,-0.63,-0.63,-0.63
316,1.92,2.55,1.91,2.54,-2.54,-2.80,-0.62,-0.63,-0.64
319,1.95,2.58,1.94,2.58,-2.58,-2.83,-0.63,-0.64,-0.64
322,1.98,2.62,1.98,2.62,-2.62,-2.87,-0.64,-0.64,-0.64
325,2.02,2.66,2.03,2.66,-2.66,-2.91,-0.65,-0.64,-0.64
328,2.06,2.70,2.08,2.72,-2.72,-2.95,-0.66,-0.64,-0.64
332,2.13,2.77,2.13,2.78,-2.78,-3.00,-0.65,-0.64,-0.64
335,2.19,2.83,2.20,2.84,-2.84,-3.05,-0.65,-0.64,-0.64
338,2.25,2.89,2.27,2.92,-2.92,-3.09,-0.67,-0.65,-0.64
342,2.35,2.99,2.35,3.00,-3.00,-3.15,-0.65,-0.65,-0.65
345,2.42,3.07,2.44,3.09,-3.09,-3.20,-0.67,-0.65,-0.65
349,2.52,3.17,2.53,3.18,-3.18,-3.27,-0.66,-0.65,-0.65
352,2.60,3.25,2.63,3.28,-3.28,-3.32,-0.69,-0.65,-0.65
356,2.73,3.38,2.74,3.39,-3.39,-3.39,-0.66,-0.65,-0.65
359,2.84,3.49,2.85,3.50,-3.50,-3.45,-0.67,-0.65,-0.65
363,2.98,3.63,2.96,3.62,-3.62,-3.53,-0.64,-0.65,-0.65
366,3.09,3.74,3.08,3.73,-3.73,-3.58,-0.65,-0.66,-0.66
370,3.22,3.87,3.19,3.85,-3.85,-3.66,-0.63,-0.66,-0.66
374,3.34,4.00,3.30,3.96,-3.96,-3.75,-0.62,-0.66,-0.66
377,3.43,4.09,3.41,4.07,-4.07,-3.81,-0.65,-0.66,-0.66
381,3.54,4.20,3.52,4.18,-4.18,-3.89,-0.65,-0.66,-0.66
385,3.64,4.30,3.63,4.29,-4.29,-3.98,-0.65,-0.66,-0.66
389,3.73,4.39,3.73,4.39,-4.39,-4.07,-0.66,-0.66,-0.66
393,3.83,4.49,3.82,4.49,-4.49,-4.16,-0.66,-0.67,-0.66
397,3.91,4.57,3.92,4.58,-4.58,-4.25,-0.67,-0.67,-0.67
401,4.00,4.67,4.00,4.67,-4.67,-4.34,-0.67,-0.67,-0.67
405,4.08,4.75,4.09,4.76,-4.76,-4.43,-0.68,-0.67,-0.67
409,4.17,4.84,4.17,4.84,-4.84,-4.52,-0.67,-0.67,-0.67
413,4.24,4.91,4.25,4.92,-4.92,-4.60,-0.68,-0.67,-0.67
417,4.32,4.99,4.32,5.00,-5.00,-4.69,-0.68,-0.67,-0.67
421,4.39,5.06,4.39,5.07,-5.07,-4.78,-0.68,-0.67,-0.67
425,4.45,5.12,4.46,5.13,-5.13,-4.86,-0.68,-0.67,-0.67
430,4.53,5.20,4.52,5.19,-5.19,-4.97,-0.66,-0.67,-0.67
434,4.58,5.25,4.57,5.24,-5.24,-5.05,-0.66,-0.67,-0.67
438,4.64,5.30,4.62,5.29,-5.29,-5.12,-0.65,-0.67,-0.67
443,4.70,5.36,4.66,5.33,-5.33,-5.21,-0.63,-0.66,-0.66
447,4.72,5.38,4.70,5.36,-5.36,-5.28,-0.64,-0.66,-0.66
451,4.72,5.37,4.73,5.38,-5.38,-5.34,-0.66,-0.66,-0.66
456,4.73,5.38,4.75,5.40,-5.40,-5.42,-0.67,-0.65,-0.65
460,4.74,5.38,4.76,5.40,-5.40,-5.47,-0.66,-0.64,-0.64
465,4.77,5.41,4.76,5.40,-5.40,-5.53,-0.63,-0.64,-0.64
470,4.78,5.41,4.76,5.39,-5.39,-5.57,-0.61,-0.63,-0.63
474,4.78,5.40,4.75,5.37,-5.37,-5.60,-0.59,-0.62,-0.62
479,4.77,5.38,4.74,5.35,-5.35,-5.63,-0.58,-0.61,-0.61
484,4.73,5.33,4.72,5.32,-5.32,-5.65,-0.59,-0.60,-0.60
489,4.69,5.28,4.69,5.28,-5.28,-5.66,-0.59,-0.59,-0.59
494,4.65,5.22,4.67,5.24,-5.24,-5.66,-0.59,-0.57,-0.57
499,4.61,5.17,4.64,5.19,-5.19,-5.64,-0.59,-0.56,-0.56
504,4.58,5.12,4.60,5.15,-5.15,-5.62,-0.57,-0.54,-0.54
509,4.55,5.08,4.57,5.10,-5.10,-5.59,-0.55,-0.53,-0.53
514,4.53,5.04,4.53,5.04,-5.04,-5.54,-0.51,-0.51,-0.51
519,4.50,4.99,4.49,4.99,-4.99,-5.49,-0.49,-0.49,-0.49
524,4.46,4.93,4.46,4.93,-4.93,-5.43,-0.47,-0.47,-0.47
529,4.42,4.87,4.42,4.87,-4.87,-5.36,-0.45,-0.45,-0.45
535,4.38,4.81,4.38,4.81,-4.81,-5.26,-0.43,-0.43,-0.43
540,4.34,4.75,4.33,4.74,-4.74,-5.18,-0.40,-0.41,-0.41
545,4.30,4.68,4.29,4.68,-4.68,-5.09,-0.38,-0.39,-0.39
551,4.24,4.60,4.24,4.61,-4.61,-4.97,-0.37,-0.36,-0.36
556,4.20,4.53,4.20,4.53,-4.53,-4.87,-0.33,-0.34,-0.34
562,4.15,4.46,4.15,4.46,-4.46,-4.75,-0.31,-0.31,-0.31
568,4.09,4.37,4.09,4.38,-4.38,-4.61,-0.29,-0.28,-0.28
573,4.05,4.30,4.04,4.30,-4.30,-4.50,-0.25,-0.26,-0.26
579,3.99,4.22,3.98,4.21,-4.21,-4.37,-0.22,-0.23,-0.23
585,3.93,4.13,3.93,4.13,-4.13,-4.23,-0.20,-0.20,-0.20
591,3.86,4.03,3.87,4.04,-4.04,-4.09,-0.18,-0.17,-0.17
596,3.81,3.95,3.80,3.94,-3.94,-3.97,-0.14,-0.14,-0.14
602,3.74,3.85,3.74,3.85,-3.85,-3.83,-0.11,-0.11,-0.11
608,3.68,3.76,3.67,3.75,-3.75,-3.69,-0.07,-0.08,-0.08
615,3.60,3.64,3.61,3.65,-3.65,-3.53,-0.05,-0.05,-0.05
621,3.53,3.54,3.54,3.55,-3.55,-3.39,-0.02,-0.01,-0.01
627,3.47,3.45,3.46,3.45,-3.45,-3.25,0.02,0.02,0.02
633,3.39,3.34,3.39,3.34,-3.34,-3.11,0.05,0.05,0.05
639,3.33,3.24,3.32,3.23,-3.23,-2.98,0.10,0.09,0.09
646,3.24,3.12,3.24,3.12,-3.12,-2.82,0.12,0.12,0.12
652,3.17,3.01,3.16,3.01,-3.01,-2.69,0.16,0.16,0.16
659,3.09,2.90,3.08,2.89,-2.89,-2.54,0.20,0.19,0.19
665,3.01,2.78,3.00,2.78,-2.78,-2.41,0.23,0.23,0.23
672,2.93,2.66,2.92,2.66,-2.66,-2.27,0.27,0.26,0.26
679,2.84,2.54,2.84,2.54,-2.54,-2.12,0.30,0.30,0.30
686,2.76,2.42,2.76,2.42,-2.42,-1.98,0.34,0.34,0.34
692,2.69,2.31,2.68,2.30,-2.30,-1.86,0.39,0.38,0.38
699,2.59,2.18,2.59,2.18,-2.18,-1.73,0.41,0.41,0.41
706,2.51,2.06,2.51,2.06,-2.06,-1.60,0.45,0.45,0.45
713,2.42,1.93,2.43,1.94,-1.94,-1.46,0.48,0.49,0.49
721,2.31,1.78,2.35,1.82,-1.82,-1.32,0.49,0.53,0.53
728,2.24,1.67,2.26,1.70,-1.70,-1.19,0.54,0.56,0.56
735,2.17,1.57,2.18,1.58,-1.58,-1.07,0.59,0.60,0.60
742,2.10,1.46,2.10,1.45,-1.45,-0.95,0.64,0.64,0.64
750,2.03,1.35,2.01,1.33,-1.33,-0.81,0.70,0.68,0.68
757,1.95,1.23,1.92,1.21,-1.21,-0.70,0.74,0.72,0.72
765,1.86,1.11,1.83,1.08,-1.08,-0.57,0.78,0.75,0.75
773,1.77,0.98,1.74,0.95,-0.95,-0.44,0.82,0.79,0.79
780,1.67,0.84,1.65,0.82,-0.82,-0.33,0.85,0.83,0.83
788,1.57,0.71,1.55,0.69,-0.69,-0.21,0.88,0.86,0.86
796,1.47,0.57,1.46,0.56,-0.56,-0.09,0.91,0.90,0.90
804,1.36,0.43,1.36,0.43,-0.43,0.03,0.93,0.93,0.93
812,1.26,0.29,1.27,0.30,-0.30,0.15,0.95,0.96,0.96
820,1.16,0.16,1.18,0.18,-0.18,0.26,0.98,1.00,1.00
828,1.06,0.03,1.09,0.06,-0.06,0.36,1.00,1.03,1.03
837,0.97,-0.09,1.00,-0.06,0.06,0.48,1.03,1.06,1.06
845,0.89,-0.21,0.92,-0.17,0.17,0.58,1.06,1.09,1.09
853,0.83,-0.30,0.84,-0.28,0.28,0.68,1.11,1.12,1.13
862,0.77,-0.39,0.77,-0.39,0.39,0.79,1.15,1.15,1.16
871,0.72,-0.47,0.70,-0.49,0.49,0.89,1.20,1.18,1.18
879,0.66,-0.56,0.63,-0.58,0.58,0.98,1.24,1.21,1.21
888,0.59,-0.65,0.56,-0.68,0.68,1.07,1.27,1.24,1.24
897,0.52,-0.75,0.50,-0.77,0.77,1.16,1.29,1.27,1.27
906,0.46,-0.84,0.44,-0.86,0.86,1.24,1.32,1.30,1.30
915,0.39,-0.94,0.38,-0.95,0.95,1.31,1.33,1.33,1.33
924,0.32,-1.03,0.32,-1.03,1.03,1.39,1.35,1.35,1.35
933,0.26,-1.12,0.27,-1.11,1.11,1.45,1.37,1.38,1.38
943,0.20,-1.21,0.22,-1.19,1.19,1.52,1.39,1.41,1.41
952,0.15,-1.29,0.17,-1.26,1.26,1.57,1.41,1.43,1.43
962,0.10,-1.36,0.12,-1.34,1.34,1.62,1.43,1.46,1.46
971,0.07,-1.42,0.08,-1.40,1.40,1.66,1.47,1.49,1.49
981,0.05,-1.47,0.04,-1.47,1.47,1.70,1.52,1.51,1.51
991,0.02,-1.52,0.01,-1.53,1.53,1.73,1.55,1.54,1.54
1001,-0.00,-1.57,-0.02,-1.59,1.59,1.76,1.59,1.57,1.57
1011,-0.02,-1.62,-0.05,-1.65,1.65,1.78,1.62,1.59,1.59
1021,-0.05,-1.67,-0.08,-1.70,1.70,1.79,1.65,1.62,1.62
1031,-0.09,-1.74,-0.10,-1.75,1.75,1.79,1.66,1.65,1.65
1041,-0.12,-1.80,-0.12,-1.80,1.80,1.79,1.68,1.68,1.68
1052,-0.14,-1.85,-0.14,-1.84,1.84,1.78,1.70,1.70,1.70
1062,-0.16,-1.89,-0.15,-1.88,1.88,1.77,1.72,1.73,1.73
1073,-0.17,-1.93,-0.16,-1.92,1.92,1.75,1.75,1.76,1.76
1084,-0.17,-1.96,-0.16,-1.95,1.95,1.73,1.78,1.79,1.79
1094,-0.16,-1.98,-0.16,-1.98,1.98,1.70,1.82,1.82,1.82
1105,-0.15,-2.00,-0.15,-2.00,2.00,1.67,1.85,1.85,1.85
1116,-0.13,-2.01,-0.13,-2.01,2.01,1.64,1.88,1.88,1.88
1128,-0.11,-2.02,-0.11,-2.02,2.02,1.59,1.91,1.91,1.91
1139,-0.09,-2.03,-0.08,-2.02,2.02,1.55,1.93,1.94,1.94
1150,-0.06,-2.03,-0.04,-2.01,2.01,1.50,1.95,1.97,1.97
1162,-0.01,-2.01,0.00,-2.00,2.00,1.45,1.99,2.00,2.00
1173,0.04,-2.00,0.05,-1.98,1.98,1.40,2.02,2.03,2.03
1185,0.11,-1.96,0.11,-1.96,1.96,1.34,2.07,2.07,2.07
1197,0.18,-1.92,0.17,-1.93,1.93,1.29,2.11,2.10,2.10
1209,0.25,-1.88,0.23,-1.90,1.90,1.23,2.15,2.13,2.13
1221,0.32,-1.85,0.30,-1.87,1.87,1.17,2.18,2.16,2.16
1233,0.39,-1.81,0.37,-1.83,1.83,1.11,2.22,2.20,2.20
1246,0.46,-1.77,0.44,-1.79,1.79,1.04,2.25,2.23,2.23
1258,0.53,-1.74,0.52,-1.75,1.75,0.98,2.27,2.26,2.26
1271,0.61,-1.69,0.60,-1.70,1.70,0.91,2.31,2.30,2.30
1283,0.69,-1.65,0.69,-1.65,1.65,0.85,2.34,2.33,2.33
1296,0.77,-1.60,0.78,-1.59,1.59,0.78,2.36,2.37,2.37
1309,0.86,-1.55,0.87,-1.53,1.53,0.72,2.39,2.40,2.40
1322,0.96,-1.48,0.97,-1.47,1.47,0.65,2.43,2.44,2.44
1335,1.06,-1.42,1.08,-1.40,1.40,0.59,2.46,2.48,2.48
1349,1.18,-1.33,1.19,-1.32,1.32,0.52,2.50,2.51,2.51
1362,1.29,-1.26,1.31,-1.24,1.24,0.45,2.53,2.55,2.55
1376,1.42,-1.17,1.43,-1.16,1.16,0.38,2.58,2.59,2.59
1390,1.55,-1.08,1.56,-1.07,1.07,0.32,2.61,2.62,2.62
1404,1.69,-0.97,1.69,-0.97,0.97,0.25,2.66,2.66,2.66
1418,1.84,-0.86,1.83,-0.87,0.87,0.18,2.71,2.70,2.70
1432,2.00,-0.74,1.97,-0.77,0.77,0.12,2.77,2.74,2.74
1446,2.14,-0.64,2.11,-0.66,0.66,0.05,2.80,2.78,2.78
1461,2.29,-0.53,2.26,-0.55,0.55,-0.02,2.84,2.82,2.82
1475,2.43,-0.43,2.42,-0.44,0.44,-0.08,2.87,2.86,2.86
1490,2.58,-0.32,2.57,-0.33,0.33,-0.15,2.90,2.90,2.90
1505,2.72,-0.22,2.73,-0.21,0.21,-0.21,2.93,2.94,2.94
1520,2.88,-0.10,2.90,-0.08,0.08,-0.28,2.96,2.98,2.98
1535,3.04,0.02,3.07,0.04,-0.04,-0.34,2.99,3.02,3.02
1550,3.21,0.14,3.24,0.18,-0.18,-0.40,3.03,3.06,3.06
1566,3.40,0.29,3.42,0.31,-0.31,-0.47,3.09,3.11,3.11
1582,3.60,0.45,3.60,0.45,-0.45,-0.53,3.15,3.15,3.15
1597,3.78,0.59,3.79,0.60,-0.60,-0.59,3.18,3.19,3.19
1613,3.98,0.74,3.98,0.74,-0.74,-0.65,3.24,3.24,3.24
1629,4.16,0.88,4.17,0.89,-0.89,-0.71,3.27,3.28,3.28
1646,4.36,1.03,4.36,1.04,-1.04,-0.77,3.32,3.32,3.32
1662,4.55,1.18,4.55,1.19,-1.19,-0.83,3.36,3.37,3.37
1679,4.75,1.33,4.74,1.33,-1.33,-0.88,3.42,3.41,3.42
1696,4.94,1.48,4.93,1.47,-1.47,-0.94,3.47,3.46,3.46
1713,5.12,1.61,5.11,1.61,-1.61,-0.99,3.51,3.51,3.51
1730,5.30,1.74,5.29,1.73,-1.73,-1.04,3.57,3.55,3.56
1747,5.47,1.86,5.45,1.85,-1.85,-1.08,3.62,3.60,3.61
1764,5.63,1.97,5.61,1.96,-1.96,-1.12,3.67,3.65,3.65
1782,5.78,2.07,5.76,2.06,-2.06,-1.16,3.72,3.70,3.71
1800,5.93,2.17,5.90,2.15,-2.15,-1.20,3.78,3.75,3.76
1818,6.06,2.25,6.03,2.22,-2.22,-1.23,3.84,3.81,3.81
1836,6.16,2.29,6.15,2.29,-2.29,-1.25,3.87,3.86,3.87
1854,6.25,2.32,6.26,2.34,-2.34,-1.27,3.91,3.92,3.92
1873,6.35,2.36,6.36,2.37,-2.37,-1.29,3.97,3.98,3.98
1892,6.44,2.39,6.45,2.40,-2.40,-1.30,4.04,4.05,4.05
1911,6.52,2.40,6.53,2.41,-2.41,-1.30,4.11,4.11,4.11
1930,6.60,2.41,6.60,2.41,-2.41,-1.30,4.19,4.18,4.19
