frequency,raw,smoothed,error,error_smoothed,equalization,parametric_eq,fixed_band_eq,equalized_raw,equalized_smoothed,target
20.00,5.66,5.66,-1.85,-1.86,1.85,2.25,0.55,7.51,7.51,7.51
20.20,5.69,5.69,-1.85,-1.85,1.85,2.23,0.57,7.54,7.54,7.54
20.40,5.73,5.73,-1.84,-1.84,1.85,2.20,0.59,7.58,7.57,7.57
20.61,5.76,5.76,-1.83,-1.84,1.84,2.18,0.61,7.60,7.60,7.59
20.81,5.79,5.79,-1.83,-1.83,1.83,2.16,0.63,7.62,7.62,7.62
21.02,5.82,5.82,-1.83,-1.83,1.82,2.13,0.65,7.64,7.64,7.65
21.23,5.84,5.84,-1.82,-1.82,1.81,2.11,0.67,7.65,7.66,7.66
21.44,5.87,5.87,-1.80,-1.80,1.80,2.08,0.69,7.67,7.67,7.67
21.66,5.89,5.89,-1.79,-1.79,1.79,2.06,0.71,7.68,7.68,7.68
21.87,5.91,5.91,-1.77,-1.77,1.77,2.03,0.74,7.68,7.68,7.68
22.09,5.93,5.93,-1.76,-1.75,1.76,2.01,0.76,7.69,7.69,7.69
22.31,5.95,5.95,-1.74,-1.74,1.74,1.98,0.79,7.69,7.69,7.69
22.54,5.97,5.97,-1.72,-1.72,1.72,1.95,0.81,7.69,7.69,7.69
22.76,5.98,5.98,-1.71,-1.70,1.70,1.93,0.84,7.68,7.68,7.69
22.99,6.00,6.00,-1.68,-1.68,1.68,1.90,0.86,7.68,7.68,7.68
23.22,6.01,6.01,-1.66,-1.67,1.67,1.87,0.89,7.68,7.68,7.68
23.45,6.02,6.02,-1.65,-1.65,1.65,1.84,0.92,7.67,7.68,7.67
23.69,6.04,6.04,-1.63,-1.64,1.64,1.81,0.95,7.68,7.68,7.67
23.92,6.05,6.05,-1.62,-1.63,1.63,1.79,0.98,7.68,7.67,7.67
24.16,6.06,6.06,-1.62,-1.62,1.61,1.76,1.01,7.67,7.67,7.68
24.40,6.07,6.07,-1.61,-1.60,1.60,1.73,1.04,7.67,7.67,7.68
24.65,6.09,6.09,-1.58,-1.59,1.59,1.70,1.06,7.68,7.67,7.67
24.89,6.10,6.10,-1.57,-1.57,1.57,1.67,1.09,7.67,7.67,7.67
25.14,6.11,6.11,-1.56,-1.56,1.56,1.64,1.12,7.67,7.67,7.67
25.39,6.12,6.12,-1.55,-1.55,1.55,1.61,1.15,7.67,7.67,7.67
25.65,6.13,6.13,-1.54,-1.53,1.53,1.58,1.18,7.66,7.66,7.67
25.91,6.14,6.14,-1.52,-1.52,1.52,1.54,1.21,7.66,7.66,7.66
26.16,6.15,6.15,-1.50,-1.50,1.51,1.51,1.24,7.66,7.66,7.65
26.43,6.16,6.16,-1.49,-1.49,1.50,1.48,1.27,7.66,7.66,7.65
26.69,6.17,6.17,-1.48,-1.48,1.48,1.45,1.30,7.65,7.65,7.65
26.96,6.18,6.18,-1.47,-1.47,1.47,1.42,1.32,7.65,7.65,7.65
27.23,6.19,6.19,-1.46,-1.46,1.46,1.38,1.35,7.65,7.64,7.65
27.50,6.20,6.20,-1.45,-1.44,1.44,1.35,1.37,7.64,7.64,7.65
27.77,6.21,6.21,-1.43,-1.43,1.42,1.31,1.39,7.63,7.64,7.64
28.05,6.23,6.23,-1.40,-1.40,1.41,1.28,1.41,7.64,7.63,7.64
28.33,6.24,6.24,-1.38,-1.38,1.39,1.25,1.43,7.63,7.63,7.62
28.62,6.26,6.26,-1.36,-1.36,1.37,1.21,1.45,7.63,7.63,7.62
28.90,6.27,6.27,-1.35,-1.34,1.35,1.18,1.46,7.62,7.62,7.62
29.19,6.29,6.29,-1.32,-1.32,1.33,1.14,1.47,7.62,7.62,7.61
29.48,6.31,6.31,-1.31,-1.31,1.30,1.11,1.47,7.61,7.61,7.62
29.78,6.32,6.32,-1.29,-1.28,1.28,1.07,1.48,7.60,7.61,7.61
30.08,6.34,6.34,-1.26,-1.26,1.26,1.03,1.48,7.60,7.60,7.60
30.38,6.36,6.36,-1.23,-1.23,1.23,1.00,1.48,7.59,7.59,7.59
30.68,6.38,6.38,-1.21,-1.21,1.21,0.96,1.47,7.59,7.59,7.59
30.99,6.40,6.40,-1.18,-1.18,1.18,0.92,1.46,7.58,7.58,7.58
31.30,6.42,6.42,-1.16,-1.15,1.15,0.88,1.45,7.57,7.58,7.58
31.61,6.45,6.45,-1.12,-1.12,1.12,0.85,1.43,7.57,7.57,7.57
31.93,6.47,6.47,-1.09,-1.09,1.09,0.81,1.41,7.56,7.56,7.56
32.24,6.49,6.49,-1.06,-1.06,1.06,0.77,1.39,7.55,7.56,7.55
32.57,6.51,6.51,-1.04,-1.03,1.03,0.73,1.36,7.54,7.55,7.55
32.89,6.54,6.54,-1.00,-1.00,1.00,0.69,1.33,7.54,7.54,7.54
33.22,6.56,6.56,-0.97,-0.97,0.97,0.65,1.29,7.53,7.53,7.53
33.55,6.59,6.59,-0.94,-0.94,0.94,0.61,1.25,7.53,7.53,7.53
33.89,6.61,6.61,-0.90,-0.90,0.90,0.57,1.21,7.51,7.52,7.52
34.23,6.64,6.64,-0.87,-0.87,0.87,0.53,1.17,7.51,7.51,7.51
34.57,6.67,6.67,-0.83,-0.83,0.83,0.49,1.12,7.50,7.50,7.50
34.92,6.70,6.70,-0.79,-0.79,0.79,0.45,1.07,7.49,7.49,7.49
35.27,6.74,6.74,-0.74,-0.74,0.74,0.41,1.02,7.48,7.48,7.48
35.62,6.77,6.77,-0.70,-0.70,0.70,0.36,0.97,7.47,7.47,7.47
35.97,6.81,6.81,-0.64,-0.65,0.65,0.32,0.91,7.46,7.46,7.46
36.33,6.84,6.84,-0.61,-0.60,0.61,0.28,0.85,7.45,7.45,7.45
36.70,6.88,6.88,-0.56,-0.56,0.56,0.24,0.79,7.44,7.44,7.44
37.06,6.92,6.92,-0.50,-0.51,0.50,0.19,0.73,7.43,7.43,7.42
37.43,6.96,6.96,-0.46,-0.45,0.45,0.15,0.67,7.41,7.41,7.42
37.81,7.01,7.01,-0.39,-0.40,0.40,0.11,0.61,7.41,7.40,7.40
38.19,7.05,7.05,-0.34,-0.34,0.34,0.06,0.54,7.39,7.39,7.39
38.57,7.10,7.10,-0.29,-0.28,0.28,0.02,0.48,7.38,7.38,7.39
38.95,7.15,7.15,-0.22,-0.22,0.22,-0.02,0.41,7.37,7.37,7.37
39.34,7.20,7.20,-0.15,-0.16,0.16,-0.07,0.35,7.36,7.36,7.36
39.74,7.25,7.25,-0.09,-0.09,0.09,-0.11,0.28,7.35,7.34,7.34
40.14,7.30,7.30,-0.04,-0.03,0.03,-0.16,0.21,7.33,7.33,7.34
40.54,7.35,7.35,0.03,0.03,-0.03,-0.20,0.14,7.32,7.32,7.32
40.94,7.41,7.41,0.10,0.10,-0.10,-0.25,0.07,7.31,7.31,7.31
41.35,7.47,7.47,0.17,0.17,-0.16,-0.29,0.00,7.31,7.30,7.30
41.76,7.52,7.52,0.23,0.23,-0.23,-0.34,-0.07,7.29,7.29,7.29
42.18,7.58,7.58,0.30,0.30,-0.30,-0.39,-0.14,7.28,7.28,7.28
42.60,7.63,7.63,0.36,0.36,-0.37,-0.43,-0.21,7.26,7.27,7.27
43.03,7.69,7.69,0.43,0.43,-0.44,-0.48,-0.28,7.25,7.25,7.26
43.46,7.75,7.75,0.51,0.51,-0.51,-0.53,-0.35,7.24,7.24,7.24
43.90,7.80,7.80,0.58,0.58,-0.58,-0.57,-0.42,7.22,7.22,7.22
44.33,7.86,7.86,0.66,0.66,-0.66,-0.62,-0.49,7.20,7.20,7.20
44.78,7.91,7.91,0.73,0.73,-0.73,-0.67,-0.56,7.18,7.18,7.18
45.23,7.97,7.97,0.81,0.81,-0.80,-0.72,-0.63,7.17,7.16,7.16
45.68,8.02,8.02,0.88,0.88,-0.88,-0.76,-0.71,7.14,7.15,7.14
46.13,8.08,8.08,0.96,0.95,-0.95,-0.81,-0.78,7.13,7.13,7.12
46.60,8.13,8.13,1.01,1.02,-1.02,-0.86,-0.85,7.11,7.11,7.12
47.06,8.18,8.18,1.08,1.09,-1.09,-0.91,-0.93,7.09,7.10,7.10
47.53,8.23,8.23,1.15,1.15,-1.16,-0.96,-1.00,7.07,7.07,7.08
48.01,8.28,8.28,1.21,1.22,-1.23,-1.00,-1.07,7.05,7.05,7.07
48.49,8.32,8.32,1.29,1.29,-1.30,-1.05,-1.15,7.03,7.03,7.04
48.97,8.37,8.37,1.37,1.36,-1.36,-1.10,-1.22,7.01,7.00,7.00
49.46,8.41,8.41,1.44,1.44,-1.43,-1.15,-1.29,6.98,6.98,6.97
49.96,8.45,8.45,1.51,1.50,-1.50,-1.20,-1.37,6.95,6.95,6.94
50.46,8.49,8.49,1.56,1.56,-1.56,-1.25,-1.44,6.93,6.93,6.93
50.96,8.52,8.52,1.61,1.62,-1.62,-1.30,-1.52,6.90,6.90,6.91
51.47,8.56,8.56,1.69,1.68,-1.68,-1.35,-1.59,6.88,6.88,6.87
51.99,8.59,8.59,1.74,1.74,-1.73,-1.40,-1.66,6.86,6.85,6.85
52.51,8.62,8.62,1.78,1.79,-1.79,-1.45,-1.73,6.83,6.83,6.84
53.03,8.64,8.64,1.83,1.83,-1.84,-1.50,-1.80,6.80,6.81,6.81
53.56,8.67,8.67,1.88,1.88,-1.88,-1.55,-1.88,6.79,6.78,6.79
54.10,8.69,8.69,1.93,1.93,-1.93,-1.60,-1.94,6.76,6.76,6.76
54.64,8.71,8.71,1.98,1.98,-1.98,-1.65,-2.01,6.73,6.73,6.73
55.18,8.73,8.73,2.02,2.02,-2.02,-1.70,-2.08,6.71,6.71,6.71
55.74,8.75,8.75,2.07,2.07,-2.07,-1.75,-2.15,6.68,6.68,6.68
56.29,8.77,8.77,2.11,2.11,-2.11,-1.80,-2.21,6.66,6.66,6.66
56.86,8.78,8.78,2.14,2.15,-2.15,-1.85,-2.27,6.63,6.64,6.64
57.42,8.80,8.80,2.19,2.19,-2.18,-1.90,-2.33,6.62,6.62,6.61
58.00,8.81,8.81,2.22,2.22,-2.22,-1.95,-2.39,6.59,6.59,6.59
58.58,8.82,8.82,2.25,2.25,-2.25,-2.00,-2.44,6.57,6.57,6.57
59.16,8.83,8.83,2.28,2.28,-2.28,-2.05,-2.49,6.55,6.54,6.55
59.76,8.83,8.83,2.30,2.31,-2.32,-2.10,-2.54,6.51,6.52,6.53
60.35,8.84,8.84,2.35,2.34,-2.35,-2.15,-2.59,6.49,6.49,6.49
60.96,8.85,8.85,2.38,2.38,-2.39,-2.20,-2.63,6.46,6.46,6.47
61.57,8.85,8.85,2.42,2.42,-2.42,-2.25,-2.67,6.43,6.43,6.43
62.18,8.86,8.86,2.47,2.46,-2.46,-2.30,-2.71,6.40,6.40,6.39
62.80,8.86,8.86,2.49,2.50,-2.49,-2.35,-2.74,6.37,6.37,6.37
63.43,8.87,8.87,2.54,2.53,-2.53,-2.40,-2.77,6.34,6.34,6.34
64.07,8.87,8.87,2.56,2.56,-2.56,-2.45,-2.80,6.31,6.31,6.31
64.71,8.88,8.88,2.60,2.60,-2.60,-2.50,-2.82,6.28,6.28,6.28
65.35,8.88,8.88,2.63,2.63,-2.63,-2.55,-2.85,6.25,6.25,6.26
66.01,8.89,8.89,2.66,2.66,-2.66,-2.60,-2.87,6.23,6.22,6.23
66.67,8.89,8.89,2.69,2.69,-2.70,-2.65,-2.88,6.19,6.19,6.20
67.33,8.90,8.90,2.73,2.73,-2.73,-2.70,-2.90,6.17,6.17,6.17
68.01,8.91,8.91,2.77,2.77,-2.77,-2.75,-2.91,6.14,6.14,6.14
68.69,8.92,8.92,2.81,2.81,-2.81,-2.80,-2.92,6.11,6.11,6.11
69.37,8.93,8.93,2.86,2.85,-2.85,-2.84,-2.93,6.08,6.08,6.07
70.07,8.93,8.93,2.89,2.89,-2.89,-2.89,-2.94,6.04,6.05,6.04
70.77,8.94,8.94,2.92,2.93,-2.93,-2.94,-2.95,6.01,6.01,6.02
71.48,8.95,8.95,2.97,2.97,-2.97,-2.99,-2.95,5.98,5.98,5.98
72.19,8.96,8.96,3.01,3.01,-3.01,-3.04,-2.96,5.95,5.95,5.95
72.91,8.97,8.97,3.06,3.06,-3.06,-3.09,-2.96,5.91,5.91,5.91
73.64,8.98,8.98,3.10,3.10,-3.10,-3.14,-2.97,5.88,5.88,5.88
74.38,8.99,8.99,3.14,3.15,-3.15,-3.18,-2.98,5.84,5.85,5.85
75.12,9.01,9.01,3.20,3.20,-3.19,-3.23,-2.98,5.82,5.82,5.81
75.87,9.02,9.02,3.24,3.24,-3.24,-3.28,-2.99,5.79,5.78,5.78
76.63,9.03,9.03,3.28,3.28,-3.28,-3.33,-3.00,5.75,5.75,5.75
77.40,9.03,9.03,3.31,3.32,-3.32,-3.37,-3.01,5.71,5.72,5.72
78.17,9.04,9.04,3.36,3.36,-3.36,-3.42,-3.02,5.68,5.68,5.68
78.95,9.05,9.05,3.40,3.40,-3.40,-3.47,-3.04,5.65,5.65,5.65
79.74,9.06,9.06,3.44,3.44,-3.44,-3.51,-3.05,5.62,5.62,5.62
80.54,9.06,9.06,3.47,3.48,-3.48,-3.56,-3.07,5.58,5.59,5.59
81.35,9.07,9.07,3.52,3.51,-3.52,-3.60,-3.08,5.55,5.55,5.55
82.16,9.07,9.07,3.55,3.55,-3.56,-3.65,-3.11,5.52,5.52,5.52
82.98,9.08,9.08,3.59,3.60,-3.59,-3.69,-3.13,5.49,5.48,5.49
83.81,9.08,9.08,3.64,3.63,-3.63,-3.74,-3.15,5.45,5.45,5.44
84.65,9.08,9.08,3.68,3.67,-3.67,-3.78,-3.18,5.41,5.41,5.41
85.50,9.08,9.08,3.70,3.71,-3.71,-3.82,-3.21,5.37,5.37,5.38
86.35,9.08,9.08,3.74,3.75,-3.74,-3.87,-3.24,5.34,5.34,5.34
87.22,9.08,9.08,3.78,3.78,-3.78,-3.91,-3.28,5.30,5.30,5.30
88.09,9.08,9.08,3.82,3.82,-3.82,-3.95,-3.31,5.26,5.26,5.26
88.97,9.07,9.07,3.84,3.85,-3.85,-3.99,-3.35,5.22,5.22,5.23
89.86,9.07,9.07,3.89,3.89,-3.89,-4.03,-3.40,5.18,5.18,5.19
90.76,9.06,9.06,3.93,3.92,-3.92,-4.07,-3.44,5.14,5.14,5.13
91.66,9.05,9.05,3.95,3.96,-3.95,-4.11,-3.49,5.10,5.10,5.10
92.58,9.04,9.04,3.99,3.99,-3.99,-4.15,-3.54,5.05,5.05,5.05
93.51,9.03,9.03,4.02,4.02,-4.02,-4.19,-3.59,5.01,5.01,5.01
94.44,9.02,9.02,4.05,4.05,-4.05,-4.23,-3.65,4.97,4.97,4.97
95.39,9.01,9.01,4.09,4.08,-4.09,-4.27,-3.70,4.92,4.92,4.93
96.34,8.99,8.99,4.12,4.12,-4.12,-4.30,-3.76,4.87,4.87,4.87
97.30,8.97,8.98,4.15,4.15,-4.15,-4.34,-3.82,4.82,4.83,4.83
98.28,8.96,8.96,4.18,4.18,-4.17,-4.37,-3.89,4.79,4.78,4.78
99.26,8.94,8.94,4.21,4.20,-4.20,-4.41,-3.95,4.74,4.73,4.73
100.25,8.91,8.92,4.22,4.23,-4.23,-4.44,-4.02,4.68,4.69,4.69
101.25,8.89,8.89,4.25,4.25,-4.25,-4.47,-4.09,4.64,4.64,4.64
102.27,8.87,8.87,4.27,4.27,-4.27,-4.50,-4.16,4.60,4.59,4.60
103.29,8.84,8.84,4.30,4.30,-4.30,-4.53,-4.23,4.55,4.55,4.54
104.32,8.82,8.82,4.32,4.32,-4.31,-4.56,-4.30,4.51,4.50,4.50
105.37,8.79,8.79,4.33,4.33,-4.33,-4.59,-4.37,4.46,4.46,4.46
106.42,8.76,8.76,4.35,4.35,-4.35,-4.62,-4.44,4.41,4.41,4.41
107.48,8.73,8.73,4.37,4.37,-4.37,-4.65,-4.51,4.36,4.36,4.36
108.56,8.69,8.69,4.38,4.38,-4.38,-4.67,-4.58,4.31,4.31,4.31
109.64,8.66,8.66,4.40,4.40,-4.40,-4.70,-4.65,4.26,4.26,4.26
110.74,8.63,8.63,4.41,4.41,-4.41,-4.72,-4.71,4.22,4.21,4.22
111.85,8.59,8.59,4.42,4.43,-4.43,-4.74,-4.78,4.16,4.16,4.17
112.97,8.56,8.56,4.46,4.45,-4.45,-4.76,-4.84,4.11,4.11,4.11
114.10,8.52,8.52,4.46,4.46,-4.46,-4.78,-4.90,4.06,4.06,4.06
115.24,8.48,8.48,4.48,4.48,-4.48,-4.80,-4.95,4.00,4.01,4.01
116.39,8.44,8.44,4.49,4.49,-4.49,-4.82,-5.00,3.95,3.95,3.95
117.55,8.40,8.40,4.50,4.50,-4.50,-4.84,-5.05,3.90,3.90,3.90
118.73,8.36,8.36,4.52,4.51,-4.51,-4.86,-5.09,3.85,3.85,3.84
119.92,8.32,8.32,4.52,4.53,-4.52,-4.87,-5.13,3.80,3.80,3.80
121.12,8.28,8.28,4.53,4.53,-4.53,-4.89,-5.16,3.75,3.75,3.75
122.33,8.24,8.24,4.55,4.54,-4.54,-4.90,-5.18,3.70,3.70,3.69
123.55,8.20,8.20,4.55,4.55,-4.55,-4.91,-5.20,3.65,3.65,3.65
124.79,8.16,8.16,4.56,4.56,-4.56,-4.92,-5.21,3.60,3.60,3.60
126.03,8.12,8.12,4.57,4.57,-4.57,-4.93,-5.22,3.55,3.55,3.55
127.29,8.08,8.08,4.58,4.58,-4.58,-4.94,-5.22,3.50,3.50,3.50
128.57,8.04,8.04,4.60,4.59,-4.59,-4.95,-5.22,3.45,3.45,3.44
129.85,7.99,7.99,4.60,4.60,-4.60,-4.95,-5.20,3.39,3.40,3.39
131.15,7.95,7.95,4.61,4.61,-4.60,-4.96,-5.19,3.35,3.35,3.35
132.46,7.91,7.91,4.61,4.61,-4.61,-4.96,-5.16,3.30,3.30,3.30
133.79,7.87,7.87,4.61,4.62,-4.62,-4.96,-5.14,3.25,3.25,3.26
135.12,7.83,7.83,4.63,4.62,-4.62,-4.96,-5.11,3.21,3.21,3.21
136.48,7.79,7.79,4.62,4.62,-4.63,-4.96,-5.07,3.17,3.17,3.17
137.84,7.75,7.75,4.62,4.63,-4.63,-4.96,-5.03,3.12,3.12,3.13
139.22,7.71,7.71,4.64,4.63,-4.63,-4.96,-4.99,3.08,3.08,3.07
140.61,7.67,7.67,4.64,4.63,-4.63,-4.96,-4.95,3.04,3.04,3.03
142.02,7.63,7.63,4.62,4.63,-4.63,-4.95,-4.90,3.00,3.00,3.01
143.44,7.60,7.60,4.63,4.63,-4.63,-4.95,-4.85,2.97,2.96,2.97
144.87,7.56,7.56,4.63,4.63,-4.63,-4.94,-4.80,2.93,2.93,2.93
146.32,7.52,7.52,4.63,4.63,-4.63,-4.94,-4.75,2.89,2.89,2.89
147.78,7.48,7.48,4.62,4.63,-4.63,-4.93,-4.70,2.85,2.85,2.86
149.26,7.44,7.44,4.62,4.62,-4.63,-4.92,-4.65,2.81,2.81,2.82
150.75,7.40,7.40,4.63,4.62,-4.62,-4.91,-4.60,2.78,2.78,2.77
152.26,7.36,7.36,4.62,4.62,-4.62,-4.90,-4.55,2.74,2.74,2.74
153.78,7.32,7.32,4.62,4.62,-4.62,-4.89,-4.50,2.70,2.70,2.70
155.32,7.28,7.28,4.62,4.62,-4.62,-4.87,-4.45,2.66,2.66,2.66
156.88,7.24,7.24,4.62,4.62,-4.62,-4.86,-4.41,2.62,2.62,2.62
158.44,7.20,7.20,4.62,4.62,-4.62,-4.85,-4.37,2.58,2.58,2.58
160.03,7.16,7.16,4.62,4.62,-4.62,-4.83,-4.32,2.54,2.54,2.54
161.63,7.12,7.12,4.63,4.63,-4.62,-4.82,-4.28,2.50,2.50,2.50
163.24,7.08,7.08,4.63,4.62,-4.62,-4.80,-4.25,2.46,2.46,2.45
164.88,7.04,7.04,4.62,4.62,-4.62,-4.78,-4.21,2.42,2.42,2.42
166.53,7.00,7.00,4.62,4.62,-4.62,-4.76,-4.18,2.38,2.38,2.39
168.19,6.96,6.96,4.61,4.61,-4.61,-4.74,-4.16,2.35,2.35,2.35
169.87,6.92,6.92,4.61,4.61,-4.61,-4.73,-4.13,2.31,2.31,2.31
171.57,6.88,6.88,4.61,4.61,-4.61,-4.70,-4.11,2.27,2.27,2.27
173.29,6.84,6.84,4.60,4.60,-4.61,-4.68,-4.09,2.23,2.23,2.24
175.02,6.80,6.80,4.60,4.60,-4.61,-4.66,-4.07,2.20,2.20,2.20
176.77,6.76,6.76,4.60,4.60,-4.60,-4.64,-4.06,2.16,2.16,2.16
178.54,6.72,6.72,4.61,4.60,-4.60,-4.62,-4.05,2.12,2.12,2.11
180.32,6.68,6.68,4.60,4.60,-4.60,-4.60,-4.04,2.08,2.08,2.08
182.13,6.64,6.64,4.59,4.60,-4.60,-4.57,-4.04,2.04,2.04,2.05
183.95,6.60,6.60,4.60,4.59,-4.60,-4.55,-4.04,2.01,2.01,2.00
185.79,6.56,6.56,4.59,4.59,-4.59,-4.53,-4.04,1.97,1.97,1.97
187.65,6.52,6.52,4.59,4.59,-4.58,-4.50,-4.05,1.94,1.94,1.93
189.52,6.48,6.48,4.58,4.58,-4.58,-4.48,-4.06,1.90,1.90,1.90
191.42,6.44,6.44,4.57,4.57,-4.57,-4.45,-4.07,1.87,1.87,1.87
193.33,6.40,6.40,4.56,4.56,-4.56,-4.43,-4.08,1.84,1.84,1.84
195.27,6.36,6.36,4.55,4.54,-4.54,-4.40,-4.10,1.82,1.81,1.82
197.22,6.31,6.31,4.52,4.53,-4.53,-4.38,-4.12,1.78,1.78,1.79
199.19,6.27,6.27,4.52,4.51,-4.51,-4.35,-4.14,1.76,1.76,1.75
201.18,6.23,6.23,4.50,4.50,-4.49,-4.33,-4.16,1.74,1.74,1.73
203.19,6.19,6.19,4.47,4.48,-4.47,-4.30,-4.19,1.72,1.72,1.72
205.23,6.15,6.15,4.46,4.45,-4.45,-4.28,-4.21,1.70,1.70,1.69
207.28,6.11,6.11,4.42,4.43,-4.43,-4.25,-4.24,1.68,1.68,1.69
209.35,6.07,6.07,4.41,4.41,-4.41,-4.23,-4.27,1.66,1.66,1.66
211.44,6.03,6.03,4.39,4.38,-4.38,-4.20,-4.30,1.65,1.65,1.64
213.56,5.99,5.99,4.36,4.36,-4.36,-4.18,-4.32,1.63,1.63,1.63
215.69,5.96,5.96,4.33,4.33,-4.34,-4.15,-4.35,1.62,1.62,1.63
217.85,5.93,5.93,4.31,4.31,-4.31,-4.13,-4.38,1.62,1.61,1.62
220.03,5.89,5.89,4.28,4.29,-4.29,-4.10,-4.40,1.60,1.61,1.61
222.23,5.86,5.86,4.27,4.26,-4.26,-4.08,-4.43,1.60,1.60,1.59
224.45,5.84,5.84,4.24,4.24,-4.23,-4.05,-4.45,1.61,1.60,1.60
226.70,5.81,5.81,4.21,4.21,-4.21,-4.03,-4.47,1.60,1.60,1.60
228.96,5.78,5.78,4.18,4.18,-4.18,-4.01,-4.49,1.60,1.60,1.60
231.25,5.76,5.76,4.15,4.15,-4.15,-3.98,-4.50,1.61,1.60,1.61
233.57,5.73,5.73,4.12,4.12,-4.12,-3.96,-4.51,1.61,1.61,1.61
235.90,5.71,5.71,4.10,4.10,-4.09,-3.94,-4.51,1.62,1.62,1.61
238.26,5.68,5.68,4.07,4.07,-4.06,-3.92,-4.52,1.62,1.62,1.61
240.64,5.65,5.65,4.03,4.03,-4.02,-3.90,-4.51,1.63,1.63,1.62
243.05,5.62,5.62,3.99,3.99,-3.99,-3.87,-4.50,1.64,1.63,1.63
245.48,5.59,5.59,3.95,3.95,-3.95,-3.85,-4.49,1.64,1.64,1.65
247.93,5.56,5.56,3.90,3.91,-3.91,-3.83,-4.47,1.65,1.65,1.66
250.41,5.53,5.53,3.87,3.87,-3.87,-3.81,-4.44,1.66,1.67,1.66
252.92,5.51,5.51,3.83,3.83,-3.83,-3.79,-4.41,1.68,1.68,1.68
255.45,5.49,5.49,3.79,3.79,-3.79,-3.77,-4.37,1.70,1.70,1.70
258.00,5.47,5.47,3.75,3.75,-3.76,-3.75,-4.33,1.71,1.71,1.72
260.58,5.46,5.46,3.73,3.73,-3.73,-3.73,-4.28,1.73,1.73,1.73
263.19,5.45,5.45,3.70,3.70,-3.70,-3.71,-4.22,1.75,1.75,1.75
265.82,5.44,5.44,3.67,3.67,-3.67,-3.69,-4.16,1.77,1.77,1.77
268.48,5.43,5.43,3.64,3.64,-3.64,-3.67,-4.10,1.79,1.79,1.79
271.16,5.42,5.42,3.60,3.61,-3.61,-3.65,-4.03,1.81,1.82,1.82
273.87,5.41,5.41,3.58,3.58,-3.58,-3.62,-3.96,1.84,1.83,1.83
276.61,5.40,5.40,3.55,3.55,-3.54,-3.60,-3.88,1.86,1.85,1.85
279.38,5.38,5.38,3.51,3.51,-3.51,-3.58,-3.80,1.87,1.87,1.87
282.17,5.37,5.37,3.49,3.48,-3.48,-3.55,-3.72,1.89,1.89,1.88
284.99,5.35,5.35,3.44,3.45,-3.45,-3.52,-3.64,1.90,1.90,1.91
287.84,5.34,5.34,3.42,3.42,-3.42,-3.49,-3.55,1.92,1.92,1.92
290.72,5.34,5.34,3.39,3.39,-3.39,-3.46,-3.46,1.95,1.94,1.95
293.63,5.33,5.33,3.36,3.36,-3.37,-3.43,-3.37,1.96,1.97,1.97
296.57,5.33,5.33,3.34,3.34,-3.34,-3.40,-3.28,1.99,1.99,1.99
299.53,5.33,5.33,3.32,3.32,-3.32,-3.36,-3.18,2.01,2.01,2.01
302.53,5.33,5.33,3.31,3.30,-3.29,-3.32,-3.09,2.04,2.03,2.02
305.55,5.32,5.32,3.26,3.27,-3.27,-3.28,-2.99,2.05,2.06,2.06
308.61,5.32,5.32,3.24,3.24,-3.24,-3.24,-2.90,2.08,2.08,2.08
311.69,5.32,5.32,3.22,3.21,-3.22,-3.20,-2.81,2.10,2.10,2.10
314.81,5.32,5.32,3.18,3.19,-3.19,-3.15,-2.71,2.13,2.13,2.14
317.96,5.31,5.31,3.15,3.16,-3.16,-3.10,-2.62,2.15,2.15,2.16
321.14,5.31,5.31,3.14,3.13,-3.13,-3.05,-2.53,2.18,2.17,2.17
324.35,5.30,5.30,3.11,3.11,-3.11,-3.00,-2.44,2.20,2.20,2.19
327.59,5.29,5.29,3.07,3.08,-3.08,-2.94,-2.35,2.21,2.22,2.22
330.87,5.28,5.28,3.05,3.05,-3.05,-2.89,-2.26,2.23,2.23,2.23
334.18,5.27,5.27,3.02,3.02,-3.02,-2.83,-2.17,2.25,2.25,2.25
337.52,5.25,5.25,2.98,2.98,-2.99,-2.77,-2.08,2.26,2.26,2.27
340.90,5.24,5.24,2.94,2.95,-2.96,-2.71,-2.00,2.28,2.28,2.30
344.30,5.22,5.22,2.91,2.91,-2.92,-2.65,-1.91,2.30,2.31,2.31
347.75,5.20,5.21,2.87,2.88,-2.86,-2.58,-1.83,2.34,2.34,2.33
351.23,5.18,5.18,2.83,2.83,-2.80,-2.52,-1.75,2.38,2.38,2.35
354.74,5.14,5.12,2.77,2.76,-2.73,-2.45,-1.67,2.41,2.39,2.37
358.28,5.04,5.05,2.66,2.66,-2.65,-2.39,-1.59,2.39,2.40,2.38
361.87,4.94,4.95,2.54,2.55,-2.55,-2.32,-1.51,2.39,2.40,2.40
365.49,4.85,4.85,2.44,2.43,-2.45,-2.26,-1.44,2.40,2.40,2.41
369.14,4.75,4.75,2.33,2.33,-2.34,-2.19,-1.36,2.41,2.41,2.42
372.83,4.65,4.65,2.21,2.22,-2.22,-2.12,-1.29,2.43,2.43,2.44
376.56,4.56,4.56,2.12,2.11,-2.11,-2.06,-1.21,2.45,2.45,2.45
380.33,4.46,4.46,1.99,2.00,-2.00,-1.99,-1.14,2.46,2.46,2.47
384.13,4.37,4.37,1.89,1.89,-1.89,-1.92,-1.07,2.48,2.48,2.48
387.97,4.28,4.28,1.79,1.79,-1.79,-1.85,-1.00,2.49,2.49,2.49
391.85,4.19,4.19,1.69,1.69,-1.69,-1.78,-0.93,2.50,2.50,2.50
395.77,4.10,4.10,1.58,1.59,-1.59,-1.71,-0.87,2.51,2.52,2.52
399.73,4.01,4.01,1.48,1.49,-1.49,-1.64,-0.80,2.52,2.53,2.53
403.72,3.93,3.93,1.40,1.39,-1.39,-1.57,-0.74,2.54,2.54,2.53
407.76,3.84,3.84,1.30,1.30,-1.29,-1.50,-0.67,2.55,2.55,2.54
411.84,3.76,3.76,1.20,1.20,-1.20,-1.43,-0.61,2.56,2.56,2.56
415.96,3.67,3.67,1.10,1.10,-1.11,-1.36,-0.55,2.57,2.57,2.57
420.12,3.59,3.59,1.01,1.01,-1.01,-1.28,-0.49,2.58,2.58,2.58
424.32,3.51,3.51,0.92,0.92,-0.92,-1.21,-0.43,2.59,2.59,2.59
428.56,3.43,3.43,0.83,0.83,-0.83,-1.13,-0.37,2.60,2.60,2.60
432.85,3.35,3.35,0.74,0.74,-0.74,-1.05,-0.32,2.61,2.61,2.61
437.18,3.27,3.27,0.66,0.65,-0.66,-0.97,-0.26,2.61,2.61,2.62
441.55,3.20,3.20,0.57,0.57,-0.58,-0.88,-0.20,2.62,2.62,2.63
445.96,3.12,3.13,0.48,0.49,-0.50,-0.80,-0.15,2.62,2.63,2.64
450.42,3.07,3.07,0.42,0.41,-0.42,-0.71,-0.10,2.65,2.65,2.65
454.93,3.02,3.02,0.35,0.35,-0.35,-0.61,-0.05,2.67,2.67,2.67
459.48,2.96,2.96,0.28,0.28,-0.27,-0.52,0.00,2.69,2.69,2.68
464.07,2.90,2.90,0.20,0.20,-0.19,-0.42,0.05,2.71,2.71,2.70
468.71,2.83,2.83,0.11,0.12,-0.11,-0.31,0.10,2.72,2.72,2.72
473.40,2.76,2.76,0.03,0.03,-0.03,-0.20,0.14,2.73,2.73,2.73
478.13,2.68,2.68,-0.07,-0.06,0.07,-0.08,0.19,2.75,2.75,2.75
482.91,2.60,2.60,-0.16,-0.16,0.17,0.04,0.23,2.77,2.76,2.76
487.74,2.50,2.50,-0.28,-0.27,0.27,0.17,0.27,2.77,2.78,2.78
492.62,2.41,2.41,-0.39,-0.38,0.39,0.31,0.31,2.80,2.79,2.80
497.55,2.30,2.30,-0.50,-0.50,0.50,0.45,0.35,2.80,2.81,2.81
502.52,2.20,2.20,-0.62,-0.63,0.63,0.60,0.39,2.83,2.83,2.82
507.55,2.08,2.08,-0.75,-0.75,0.76,0.76,0.43,2.84,2.84,2.83
512.62,1.96,1.96,-0.89,-0.89,0.89,0.92,0.46,2.85,2.86,2.85
517.75,1.84,1.84,-1.03,-1.03,1.03,1.09,0.50,2.87,2.87,2.87
522.93,1.71,1.71,-1.18,-1.17,1.18,1.27,0.53,2.89,2.89,2.89
528.16,1.59,1.59,-1.31,-1.32,1.32,1.44,0.56,2.91,2.91,2.90
533.44,1.46,1.46,-1.46,-1.46,1.47,1.61,0.60,2.93,2.93,2.92
538.77,1.33,1.33,-1.61,-1.61,1.62,1.78,0.63,2.95,2.95,2.94
544.16,1.20,1.20,-1.76,-1.76,1.76,1.94,0.66,2.96,2.96,2.96
549.60,1.08,1.08,-1.90,-1.90,1.90,2.07,0.69,2.98,2.98,2.98
555.10,0.96,0.96,-2.03,-2.03,2.03,2.19,0.72,2.99,2.99,2.99
