frequency,raw,error,smoothed,error_smoothed,equalization,parametric_eq,equalized_raw,equalized_smoothed,target
20,4.41,2.04,4.42,2.07,-2.07,-1.59,2.34,2.35,2.37
21,4.57,2.21,4.60,2.26,-2.26,-1.82,2.31,2.35,2.36
22,4.73,2.38,4.78,2.44,-2.44,-2.07,2.30,2.34,2.35
23,4.94,2.60,4.94,2.61,-2.61,-2.34,2.33,2.33,2.34
24,5.15,2.82,5.10,2.77,-2.77,-2.63,2.38,2.32,2.33
25,5.30,2.98,5.24,2.93,-2.93,-2.93,2.37,2.31,2.32
26,5.38,3.08,5.38,3.08,-3.08,-3.22,2.30,2.30,2.30
27,5.55,3.26,5.51,3.22,-3.22,-3.50,2.33,2.29,2.29
28,5.64,3.37,5.63,3.36,-3.36,-3.76,2.29,2.27,2.27
29,5.71,3.45,5.74,3.49,-3.49,-3.98,2.23,2.26,2.26
30,5.85,3.61,5.85,3.61,-3.61,-4.16,2.25,2.24,2.24
31,5.95,3.73,5.94,3.72,-3.72,-4.28,2.24,2.22,2.22
32,5.99,3.79,6.02,3.82,-3.82,-4.35,2.18,2.20,2.20
33,6.08,3.90,6.09,3.91,-3.91,-4.38,2.17,2.18,2.18
34,6.16,4.00,6.15,4.00,-4.00,-4.38,2.16,2.15,2.16
35,6.21,4.08,6.21,4.08,-4.08,-4.36,2.13,2.13,2.14
36,6.26,4.15,6.27,4.16,-4.16,-4.33,2.10,2.11,2.11
37,6.34,4.26,6.32,4.24,-4.24,-4.29,2.10,2.08,2.09
38,6.38,4.32,6.37,4.32,-4.32,-4.26,2.06,2.06,2.06
39,6.42,4.39,6.42,4.39,-4.39,-4.25,2.03,2.03,2.03
40,6.42,4.42,6.46,4.46,-4.46,-4.24,1.96,2.00,2.00
41,6.48,4.51,6.50,4.53,-4.53,-4.25,1.95,1.97,1.97
42,6.51,4.57,6.53,4.60,-4.60,-4.28,1.92,1.94,1.94
43,6.57,4.67,6.56,4.66,-4.66,-4.32,1.91,1.90,1.91
44,6.60,4.73,6.59,4.73,-4.73,-4.39,1.88,1.87,1.87
45,6.64,4.81,6.62,4.79,-4.79,-4.46,1.85,1.83,1.84
46,6.64,4.84,6.65,4.85,-4.85,-4.55,1.79,1.80,1.80
47,6.68,4.92,6.67,4.91,-4.91,-4.66,1.77,1.76,1.76
48,6.68,4.96,6.70,4.98,-4.98,-4.78,1.71,1.72,1.72
49,6.73,5.05,6.72,5.04,-5.04,-4.90,1.69,1.68,1.69
50,6.73,5.09,6.74,5.10,-5.10,-5.04,1.63,1.64,1.64
51,6.73,5.13,6.76,5.16,-5.16,-5.18,1.57,1.60,1.60
52,6.77,5.21,6.78,5.22,-5.22,-5.32,1.55,1.56,1.56
53,6.81,5.30,6.80,5.28,-5.28,-5.47,1.53,1.51,1.52
54,6.81,5.34,6.81,5.34,-5.34,-5.61,1.47,1.47,1.47
55,6.81,5.39,6.82,5.40,-5.40,-5.75,1.42,1.42,1.43
56,6.81,5.43,6.83,5.45,-5.45,-5.88,1.36,1.38,1.38
57,6.86,5.53,6.84,5.51,-5.51,-6.00,1.35,1.33,1.33
58,6.86,5.58,6.85,5.56,-5.56,-6.11,1.30,1.28,1.28
59,6.86,5.63,6.85,5.62,-5.62,-6.21,1.25,1.23,1.24
60,6.86,5.68,6.85,5.67,-5.67,-6.29,1.20,1.18,1.19
61,6.86,5.73,6.85,5.72,-5.72,-6.36,1.14,1.13,1.14
62,6.84,5.76,6.85,5.77,-5.77,-6.41,1.07,1.08,1.09
63,6.82,5.79,6.85,5.82,-5.82,-6.44,1.00,1.03,1.04
64,6.83,5.85,6.85,5.87,-5.87,-6.46,0.96,0.98,0.98
65,6.83,5.90,6.85,5.93,-5.93,-6.47,0.91,0.93,0.93
66,6.83,5.95,6.85,5.98,-5.98,-6.46,0.85,0.87,0.88
67,6.83,6.01,6.85,6.03,-6.03,-6.45,0.80,0.82,0.83
68,6.85,6.08,6.85,6.08,-6.08,-6.43,0.77,0.77,0.77
69,6.86,6.14,6.85,6.13,-6.13,-6.40,0.73,0.71,0.72
70,6.86,6.20,6.85,6.19,-6.19,-6.36,0.68,0.66,0.67
71,6.86,6.25,6.84,6.24,-6.24,-6.32,0.63,0.61,0.61
72,6.86,6.31,6.84,6.29,-6.29,-6.29,0.58,0.56,0.56
73,6.84,6.34,6.84,6.33,-6.33,-6.25,0.51,0.50,0.50
74,6.81,6.36,6.83,6.38,-6.38,-6.21,0.43,0.45,0.45
75,6.81,6.42,6.82,6.43,-6.43,-6.18,0.39,0.39,0.39
76,6.81,6.47,6.81,6.47,-6.47,-6.14,0.34,0.34,0.34
77,6.79,6.51,6.80,6.52,-6.52,-6.12,0.28,0.28,0.29
78,6.77,6.54,6.79,6.56,-6.56,-6.09,0.21,0.23,0.23
79,6.77,6.60,6.78,6.60,-6.60,-6.08,0.17,0.17,0.18
80,6.77,6.65,6.77,6.65,-6.65,-6.06,0.12,0.12,0.12
81,6.76,6.69,6.76,6.69,-6.69,-6.06,0.07,0.07,0.07
82,6.73,6.72,6.75,6.74,-6.74,-6.06,-0.00,0.01,0.02
83,6.73,6.77,6.74,6.78,-6.78,-6.06,-0.05,-0.04,-0.04
84,6.73,6.82,6.73,6.82,-6.82,-6.08,-0.09,-0.09,-0.09
85,6.73,6.87,6.72,6.86,-6.86,-6.09,-0.13,-0.14,-0.14
86,6.73,6.93,6.71,6.90,-6.90,-6.12,-0.17,-0.20,-0.19
87,6.70,6.95,6.70,6.94,-6.94,-6.15,-0.24,-0.25,-0.25
88,6.68,6.98,6.68,6.98,-6.98,-6.18,-0.30,-0.30,-0.30
89,6.66,7.01,6.67,7.02,-7.02,-6.22,-0.35,-0.35,-0.35
90,6.64,7.04,6.65,7.05,-7.05,-6.27,-0.41,-0.40,-0.40
91,6.64,7.09,6.64,7.09,-7.09,-6.32,-0.44,-0.45,-0.45
92,6.61,7.11,6.62,7.12,-7.12,-6.38,-0.51,-0.50,-0.50
93,6.60,7.15,6.60,7.15,-7.15,-6.44,-0.55,-0.55,-0.55
94,6.60,7.20,6.59,7.18,-7.18,-6.50,-0.58,-0.60,-0.60
95,6.55,7.20,6.57,7.22,-7.22,-6.57,-0.66,-0.65,-0.64
96,6.55,7.24,6.55,7.25,-7.25,-6.65,-0.70,-0.69,-0.69
97,6.54,7.28,6.54,7.28,-7.28,-6.73,-0.74,-0.74,-0.74
98,6.51,7.30,6.52,7.31,-7.31,-6.81,-0.80,-0.79,-0.79
99,6.51,7.34,6.51,7.35,-7.35,-6.89,-0.83,-0.84,-0.83
100,6.47,7.35,6.49,7.38,-7.38,-6.98,-0.90,-0.89,-0.88
101,6.47,7.39,6.47,7.41,-7.41,-7.07,-0.93,-0.94,-0.92
102,6.47,7.44,6.45,7.44,-7.44,-7.16,-0.96,-0.99,-0.97
104,6.42,7.47,6.43,7.47,-7.47,-7.34,-1.04,-1.04,-1.05
105,6.42,7.52,6.41,7.49,-7.49,-7.43,-1.07,-1.08,-1.09
106,6.39,7.53,6.39,7.52,-7.52,-7.53,-1.13,-1.13,-1.14
107,6.36,7.54,6.37,7.55,-7.55,-7.62,-1.18,-1.17,-1.18
108,6.34,7.56,6.35,7.57,-7.57,-7.71,-1.23,-1.21,-1.22
109,6.34,7.60,6.33,7.59,-7.59,-7.80,-1.25,-1.26,-1.26
110,6.29,7.59,6.31,7.61,-7.61,-7.89,-1.32,-1.30,-1.30
111,6.29,7.63,6.29,7.63,-7.63,-7.97,-1.34,-1.34,-1.34
112,6.27,7.65,6.27,7.65,-7.65,-8.05,-1.38,-1.38,-1.37
113,6.25,7.66,6.25,7.67,-7.67,-8.13,-1.41,-1.42,-1.41
114,6.23,7.68,6.22,7.68,-7.68,-8.20,-1.45,-1.46,-1.45
115,6.21,7.70,6.20,7.70,-7.70,-8.27,-1.49,-1.50,-1.48
117,6.16,7.72,6.17,7.71,-7.71,-8.39,-1.55,-1.54,-1.55
118,6.13,7.72,6.15,7.73,-7.73,-8.44,-1.60,-1.58,-1.59
119,6.12,7.75,6.12,7.74,-7.74,-8.49,-1.62,-1.62,-1.62
120,6.09,7.75,6.09,7.75,-7.75,-8.53,-1.66,-1.66,-1.66
121,6.08,7.77,6.07,7.76,-7.76,-8.56,-1.68,-1.70,-1.69
123,6.03,7.79,6.03,7.78,-7.78,-8.61,-1.74,-1.74,-1.75
124,5.99,7.78,6.01,7.78,-7.78,-8.62,-1.79,-1.78,-1.78
125,5.97,7.79,5.97,7.79,-7.79,-8.63,-1.82,-1.82,-1.81
126,5.95,7.80,5.95,7.80,-7.80,-8.63,-1.85,-1.85,-1.84
128,5.90,7.80,5.91,7.80,-7.80,-8.61,-1.90,-1.89,-1.90
129,5.87,7.80,5.88,7.81,-7.81,-8.59,-1.94,-1.93,-1.93
130,5.85,7.81,5.85,7.81,-7.81,-8.56,-1.96,-1.96,-1.96
131,5.83,7.82,5.81,7.81,-7.81,-8.53,-1.98,-2.00,-1.99
133,5.77,7.81,5.78,7.81,-7.81,-8.46,-2.04,-2.03,-2.04
134,5.74,7.81,5.74,7.81,-7.81,-8.42,-2.07,-2.07,-2.06
135,5.72,7.81,5.71,7.81,-7.81,-8.37,-2.08,-2.10,-2.09
137,5.66,7.80,5.67,7.80,-7.80,-8.27,-2.14,-2.13,-2.14
138,5.64,7.81,5.63,7.80,-7.80,-8.21,-2.15,-2.17,-2.16
140,5.57,7.78,5.59,7.79,-7.79,-8.10,-2.22,-2.20,-2.21
141,5.54,7.77,5.55,7.78,-7.78,-8.04,-2.24,-2.23,-2.23
142,5.52,7.78,5.51,7.77,-7.77,-7.98,-2.25,-2.26,-2.25
144,5.45,7.75,5.46,7.76,-7.76,-7.85,-2.30,-2.30,-2.30
145,5.42,7.74,5.42,7.74,-7.74,-7.79,-2.32,-2.33,-2.32
147,5.36,7.72,5.38,7.73,-7.73,-7.66,-2.37,-2.35,-2.36
148,5.33,7.71,5.33,7.71,-7.71,-7.60,-2.38,-2.38,-2.38
150,5.28,7.70,5.29,7.70,-7.70,-7.48,-2.42,-2.41,-2.42
151,5.25,7.69,5.24,7.68,-7.68,-7.42,-2.43,-2.44,-2.44
153,5.19,7.66,5.20,7.66,-7.66,-7.31,-2.47,-2.47,-2.47
154,5.14,7.63,5.15,7.64,-7.64,-7.25,-2.50,-2.49,-2.49
156,5.10,7.63,5.10,7.62,-7.62,-7.15,-2.52,-2.52,-2.52
157,5.07,7.61,5.06,7.60,-7.60,-7.10,-2.53,-2.55,-2.54
159,5.01,7.59,5.01,7.58,-7.58,-7.00,-2.57,-2.57,-2.57
160,4.97,7.56,4.96,7.56,-7.56,-6.96,-2.59,-2.60,-2.59
162,4.92,7.54,4.92,7.54,-7.54,-6.87,-2.61,-2.62,-2.62
164,4.84,7.49,4.87,7.51,-7.51,-6.79,-2.67,-2.65,-2.65
165,4.82,7.49,4.82,7.49,-7.49,-6.76,-2.67,-2.67,-2.66
167,4.77,7.46,4.78,7.47,-7.47,-6.69,-2.70,-2.69,-2.69
169,4.73,7.45,4.74,7.45,-7.45,-6.63,-2.72,-2.71,-2.72
170,4.70,7.43,4.70,7.43,-7.43,-6.61,-2.73,-2.74,-2.73
172,4.66,7.42,4.66,7.42,-7.42,-6.56,-2.75,-2.76,-2.76
174,4.60,7.38,4.62,7.40,-7.40,-6.52,-2.80,-2.78,-2.78
175,4.57,7.37,4.58,7.38,-7.38,-6.50,-2.81,-2.80,-2.79
177,4.55,7.37,4.55,7.37,-7.37,-6.47,-2.82,-2.82,-2.82
179,4.52,7.36,4.52,7.36,-7.36,-6.45,-2.83,-2.84,-2.84
181,4.48,7.34,4.49,7.34,-7.34,-6.43,-2.86,-2.86,-2.86
183,4.45,7.33,4.45,7.33,-7.33,-6.42,-2.88,-2.88,-2.88
184,4.42,7.31,4.42,7.32,-7.32,-6.42,-2.90,-2.89,-2.89
186,4.39,7.30,4.39,7.30,-7.30,-6.41,-2.91,-2.91,-2.91
188,4.34,7.27,4.36,7.29,-7.29,-6.42,-2.95,-2.93,-2.93
190,4.34,7.29,4.33,7.27,-7.27,-6.42,-2.93,-2.95,-2.95
192,4.30,7.27,4.29,7.26,-7.26,-6.43,-2.95,-2.96,-2.96
194,4.25,7.23,4.26,7.24,-7.24,-6.45,-2.98,-2.98,-2.98
196,4.22,7.22,4.22,7.22,-7.22,-6.47,-2.99,-3.00,-3.00
198,4.17,7.19,4.18,7.19,-7.19,-6.49,-3.02,-3.01,-3.01
200,4.14,7.17,4.14,7.16,-7.16,-6.52,-3.02,-3.03,-3.03
202,4.09,7.14,4.09,7.14,-7.14,-6.55,-3.04,-3.04,-3.04
204,4.03,7.09,4.04,7.10,-7.10,-6.58,-3.07,-3.06,-3.06
206,3.99,7.06,4.00,7.07,-7.07,-6.61,-3.07,-3.07,-3.07
208,3.94,7.03,3.94,7.03,-7.03,-6.65,-3.09,-3.09,-3.09
210,3.89,6.99,3.89,6.99,-6.99,-6.68,-3.09,-3.10,-3.10
212,3.83,6.94,3.83,6.94,-6.94,-6.72,-3.11,-3.11,-3.11
214,3.77,6.90,3.77,6.90,-6.90,-6.75,-3.12,-3.12,-3.12
216,3.72,6.86,3.71,6.85,-6.85,-6.79,-3.12,-3.14,-3.13
218,3.65,6.80,3.64,6.79,-6.79,-6.82,-3.14,-3.15,-3.15
221,3.55,6.71,3.58,6.74,-6.74,-6.86,-3.19,-3.16,-3.16
223,3.50,6.68,3.51,6.68,-6.68,-6.89,-3.18,-3.17,-3.17
225,3.44,6.63,3.44,6.62,-6.62,-6.91,-3.18,-3.18,-3.18
227,3.35,6.54,3.36,6.56,-6.56,-6.93,-3.20,-3.19,-3.19
229,3.31,6.51,3.29,6.49,-6.49,-6.94,-3.18,-3.21,-3.20
232,3.19,6.41,3.21,6.43,-6.43,-6.96,-3.23,-3.22,-3.21
234,3.13,6.36,3.13,6.36,-6.36,-6.96,-3.22,-3.22,-3.22
236,3.06,6.29,3.05,6.28,-6.28,-6.95,-3.22,-3.23,-3.23
239,2.95,6.20,2.97,6.21,-6.21,-6.94,-3.26,-3.24,-3.24
241,2.89,6.14,2.88,6.13,-6.13,-6.92,-3.24,-3.25,-3.25
244,2.78,6.05,2.79,6.05,-6.05,-6.88,-3.27,-3.26,-3.26
246,2.69,5.96,2.70,5.97,-5.97,-6.84,-3.28,-3.27,-3.27
248,2.61,5.89,2.60,5.89,-5.89,-6.80,-3.27,-3.28,-3.28
251,2.51,5.80,2.51,5.80,-5.80,-6.73,-3.29,-3.29,-3.29
253,2.44,5.74,2.42,5.71,-5.71,-6.67,-3.27,-3.30,-3.29
256,2.33,5.64,2.32,5.63,-5.63,-6.57,-3.29,-3.30,-3.30
259,2.18,5.50,2.22,5.54,-5.54,-6.46,-3.35,-3.31,-3.31
261,2.10,5.42,2.12,5.44,-5.44,-6.38,-3.34,-3.32,-3.32
264,2.00,5.33,2.02,5.35,-5.35,-6.24,-3.35,-3.33,-3.33
266,1.93,5.26,1.92,5.26,-5.26,-6.15,-3.32,-3.34,-3.33
269,1.81,5.15,1.82,5.16,-5.16,-6.00,-3.35,-3.34,-3.34
272,1.72,5.07,1.71,5.07,-5.07,-5.85,-3.34,-3.35,-3.35
274,1.64,4.99,1.61,4.97,-4.97,-5.74,-3.32,-3.36,-3.35
277,1.51,4.87,1.50,4.87,-4.87,-5.57,-3.36,-3.37,-3.36
280,1.37,4.74,1.39,4.77,-4.77,-5.39,-3.40,-3.38,-3.37
283,1.26,4.64,1.28,4.67,-4.67,-5.22,-3.40,-3.38,-3.38
286,1.16,4.55,1.18,4.56,-4.56,-5.03,-3.40,-3.38,-3.39
288,1.07,4.46,1.06,4.45,-4.45,-4.91,-3.38,-3.39,-3.39
291,0.95,4.35,0.95,4.34,-4.34,-4.73,-3.39,-3.39,-3.39
294,0.83,4.23,0.83,4.23,-4.23,-4.54,-3.39,-3.39,-3.40
297,0.70,4.10,0.72,4.11,-4.11,-4.35,-3.40,-3.39,-3.40
300,0.60,3.99,0.60,3.98,-3.98,-4.17,-3.38,-3.39,-3.39
303,0.47,3.86,0.48,3.86,-3.86,-3.98,-3.38,-3.38,-3.38
306,0.36,3.74,0.36,3.72,-3.72,-3.79,-3.36,-3.37,-3.37
309,0.25,3.61,0.23,3.59,-3.59,-3.61,-3.34,-3.35,-3.36
312,0.12,3.47,0.11,3.45,-3.45,-3.42,-3.33,-3.34,-3.34
316,-0.03,3.30,-0.02,3.31,-3.31,-3.18,-3.33,-3.32,-3.33
319,-0.17,3.14,-0.15,3.16,-3.16,-3.00,-3.33,-3.31,-3.31
322,-0.28,3.01,-0.27,3.02,-3.02,-2.82,-3.29,-3.29,-3.29
325,-0.41,2.86,-0.40,2.87,-2.87,-2.65,-3.27,-3.27,-3.27
328,-0.54,2.71,-0.53,2.72,-2.72,-2.47,-3.26,-3.25,-3.25
332,-0.67,2.56,-0.67,2.57,-2.57,-2.24,-3.24,-3.24,-3.23
335,-0.81,2.40,-0.80,2.42,-2.42,-2.07,-3.23,-3.22,-3.21
338,-0.92,2.28,-0.93,2.28,-2.28,-1.90,-3.19,-3.21,-3.20
342,-1.07,2.12,-1.07,2.13,-2.13,-1.68,-3.20,-3.20,-3.19
345,-1.20,1.99,-1.20,1.99,-1.99,-1.52,-3.18,-3.19,-3.18
349,-1.36,1.82,-1.34,1.85,-1.85,-1.31,-3.20,-3.18,-3.18
352,-1.47,1.71,-1.47,1.70,-1.70,-1.15,-3.17,-3.18,-3.18
356,-1.62,1.56,-1.61,1.56,-1.56,-0.94,-3.18,-3.18,-3.18
359,-1.75,1.43,-1.75,1.43,-1.43,-0.79,-3.17,-3.17,-3.17
363,-1.90,1.28,-1.89,1.29,-1.29,-0.58,-3.18,-3.17,-3.18
366,-2.03,1.15,-2.03,1.15,-1.15,-0.43,-3.17,-3.18,-3.18
370,-2.18,1.00,-2.17,1.01,-1.01,-0.23,-3.19,-3.18,-3.18
374,-2.32,0.87,-2.31,0.87,-0.87,-0.04,-3.19,-3.18,-3.18
377,-2.43,0.76,-2.46,0.73,-0.73,0.11,-3.16,-3.19,-3.19
381,-2.59,0.60,-2.60,0.59,-0.59,0.30,-3.18,-3.19,-3.19
385,-2.75,0.45,-2.75,0.45,-0.45,0.48,-3.20,-3.20,-3.19
389,-2.89,0.31,-2.89,0.31,-0.31,0.67,-3.19,-3.20,-3.20
393,-3.05,0.15,-3.04,0.17,-0.17,0.85,-3.21,-3.20,-3.20
397,-3.19,0.01,-3.18,0.02,-0.02,1.02,-3.21,-3.21,-3.20
401,-3.34,-0.13,-3.33,-0.12,0.12,1.20,-3.22,-3.21,-3.20
405,-3.49,-0.28,-3.47,-0.26,0.26,1.37,-3.22,-3.21,-3.21
409,-3.63,-0.42,-3.62,-0.41,0.41,1.54,-3.22,-3.21,-3.21
413,-3.76,-0.55,-3.76,-0.55,0.55,1.70,-3.21,-3.21,-3.21
417,-3.90,-0.69,-3.91,-0.69,0.69,1.86,-3.21,-3.21,-3.21
421,-4.03,-0.82,-4.04,-0.83,0.83,2.02,-3.19,-3.21,-3.21
425,-4.16,-0.95,-4.18,-0.98,0.98,2.17,-3.18,-3.20,-3.21
430,-4.34,-1.13,-4.32,-1.12,1.12,2.35,-3.22,-3.20,-3.20
434,-4.48,-1.28,-4.45,-1.26,1.26,2.50,-3.22,-3.19,-3.20
438,-4.58,-1.39,-4.59,-1.40,1.40,2.63,-3.18,-3.19,-3.19
443,-4.74,-1.56,-4.72,-1.54,1.54,2.79,-3.20,-3.18,-3.18
447,-4.84,-1.66,-4.85,-1.68,1.68,2.91,-3.16,-3.17,-3.17
451,-4.97,-1.80,-4.98,-1.81,1.81,3.03,-3.16,-3.17,-3.16
456,-5.12,-1.96,-5.11,-1.95,1.95,3.17,-3.17,-3.16,-3.16
460,-5.22,-2.07,-5.24,-2.08,2.08,3.27,-3.14,-3.16,-3.15
465,-5.35,-2.20,-5.36,-2.21,2.21,3.38,-3.14,-3.15,-3.14
470,-5.49,-2.35,-5.48,-2.33,2.33,3.48,-3.15,-3.15,-3.14
474,-5.59,-2.45,-5.59,-2.46,2.46,3.56,-3.13,-3.14,-3.14
479,-5.71,-2.57,-5.71,-2.58,2.58,3.64,-3.13,-3.13,-3.13
484,-5.81,-2.68,-5.82,-2.69,2.69,3.71,-3.12,-3.13,-3.13
489,-5.94,-2.81,-5.93,-2.80,2.80,3.76,-3.14,-3.13,-3.13
494,-6.05,-2.93,-6.03,-2.91,2.91,3.81,-3.14,-3.12,-3.12
499,-6.15,-3.03,-6.12,-3.01,3.01,3.84,-3.14,-3.11,-3.12
504,-6.21,-3.10,-6.21,-3.10,3.10,3.86,-3.10,-3.11,-3.11
509,-6.29,-3.18,-6.30,-3.19,3.19,3.87,-3.09,-3.10,-3.10
514,-6.37,-3.27,-6.37,-3.28,3.28,3.86,-3.09,-3.09,-3.09
519,-6.44,-3.36,-6.44,-3.36,3.36,3.85,-3.08,-3.08,-3.08
524,-6.51,-3.44,-6.50,-3.43,3.43,3.83,-3.08,-3.07,-3.07
529,-6.55,-3.49,-6.55,-3.49,3.49,3.79,-3.05,-3.06,-3.05
535,-6.60,-3.56,-6.60,-3.55,3.55,3.74,-3.04,-3.05,-3.04
540,-6.64,-3.61,-6.63,-3.61,3.61,3.69,-3.03,-3.03,-3.03
545,-6.67,-3.65,-6.67,-3.65,3.65,3.63,-3.02,-3.01,-3.01
551,-6.71,-3.71,-6.69,-3.69,3.69,3.56,-3.02,-3.00,-3.00
556,-6.71,-3.72,-6.71,-3.72,3.72,3.49,-2.98,-2.99,-2.98
562,-6.72,-3.75,-6.72,-3.75,3.75,3.39,-2.97,-2.97,-2.97
568,-6.73,-3.77,-6.72,-3.77,3.77,3.30,-2.96,-2.96,-2.96
573,-6.71,-3.77,-6.72,-3.78,3.78,3.21,-2.93,-2.94,-2.94
579,-6.71,-3.78,-6.71,-3.78,3.78,3.11,-2.93,-2.93,-2.93
585,-6.71,-3.79,-6.70,-3.78,3.78,3.00,-2.93,-2.92,-2.91
591,-6.66,-3.75,-6.68,-3.77,3.77,2.89,-2.89,-2.91,-2.90
596,-6.66,-3.77,-6.65,-3.75,3.75,2.80,-2.91,-2.90,-2.89
602,-6.62,-3.73,-6.62,-3.73,3.73,2.69,-2.89,-2.89,-2.88
608,-6.59,-3.71,-6.58,-3.69,3.69,2.57,-2.89,-2.88,-2.88
615,-6.55,-3.67,-6.54,-3.66,3.66,2.44,-2.89,-2.88,-2.87
621,-6.49,-3.62,-6.49,-3.62,3.62,2.32,-2.87,-2.87,-2.87
627,-6.43,-3.56,-6.44,-3.57,3.57,2.21,-2.86,-2.87,-2.86
633,-6.38,-3.52,-6.38,-3.52,3.52,2.10,-2.86,-2.86,-2.86
639,-6.31,-3.46,-6.31,-3.46,3.46,1.98,-2.85,-2.85,-2.85
646,-6.23,-3.38,-6.24,-3.40,3.40,1.85,-2.83,-2.84,-2.84
652,-6.18,-3.34,-6.17,-3.34,3.34,1.74,-2.84,-2.83,-2.83
659,-6.07,-3.25,-6.08,-3.27,3.27,1.61,-2.80,-2.81,-2.82
665,-6.02,-3.21,-6.00,-3.20,3.20,1.50,-2.82,-2.80,-2.81
672,-5.91,-3.12,-5.90,-3.12,3.12,1.38,-2.79,-2.78,-2.79
679,-5.82,-3.05,-5.80,-3.04,3.04,1.26,-2.77,-2.76,-2.77
686,-5.69,-2.95,-5.70,-2.96,2.96,1.13,-2.72,-2.74,-2.74
692,-5.60,-2.88,-5.59,-2.88,2.88,1.03,-2.72,-2.71,-2.71
699,-5.48,-2.79,-5.48,-2.80,2.80,0.91,-2.68,-2.69,-2.68
706,-5.38,-2.72,-5.37,-2.71,2.71,0.80,-2.67,-2.66,-2.65
713,-5.25,-2.62,-5.25,-2.62,2.62,0.68,-2.63,-2.63,-2.62
721,-5.11,-2.51,-5.12,-2.52,2.52,0.56,-2.59,-2.60,-2.59
728,-4.99,-2.42,-4.99,-2.42,2.42,0.44,-2.56,-2.57,-2.57
735,-4.85,-2.31,-4.86,-2.32,2.32,0.34,-2.52,-2.54,-2.54
742,-4.75,-2.24,-4.73,-2.22,2.22,0.23,-2.53,-2.51,-2.51
750,-4.60,-2.12,-4.59,-2.12,2.12,0.11,-2.48,-2.48,-2.48
757,-4.46,-2.01,-4.46,-2.01,2.01,0.00,-2.45,-2.45,-2.45
765,-4.31,-1.89,-4.32,-1.89,1.89,-0.11,-2.41,-2.42,-2.42
773,-4.16,-1.77,-4.17,-1.78,1.78,-0.23,-2.38,-2.40,-2.39
780,-4.04,-1.67,-4.03,-1.66,1.66,-0.33,-2.38,-2.37,-2.36
788,-3.88,-1.54,-3.88,-1.54,1.54,-0.44,-2.34,-2.35,-2.34
796,-3.76,-1.44,-3.74,-1.41,1.41,-0.54,-2.34,-2.32,-2.32
804,-3.61,-1.31,-3.59,-1.29,1.29,-0.65,-2.32,-2.30,-2.30
812,-3.44,-1.16,-3.44,-1.16,1.16,-0.75,-2.28,-2.28,-2.28
820,-3.28,-1.02,-3.28,-1.03,1.03,-0.85,-2.25,-2.26,-2.26
828,-3.13,-0.89,-3.13,-0.89,0.89,-0.95,-2.23,-2.24,-2.24
837,-2.94,-0.72,-2.98,-0.76,0.76,-1.06,-2.18,-2.22,-2.22
845,-2.82,-0.62,-2.82,-0.62,0.62,-1.15,-2.19,-2.20,-2.20
853,-2.68,-0.50,-2.67,-0.49,0.49,-1.24,-2.19,-2.18,-2.18
862,-2.53,-0.37,-2.50,-0.35,0.35,-1.33,-2.18,-2.16,-2.16
871,-2.34,-0.20,-2.35,-0.21,0.21,-1.42,-2.13,-2.14,-2.14
879,-2.20,-0.08,-2.18,-0.06,0.06,-1.50,-2.13,-2.12,-2.12
888,-2.02,0.08,-2.02,0.08,-0.08,-1.58,-2.10,-2.10,-2.09
897,-1.85,0.22,-1.85,0.23,-0.23,-1.66,-2.08,-2.08,-2.07
906,-1.69,0.36,-1.68,0.38,-0.38,-1.73,-2.06,-2.06,-2.05
915,-1.53,0.50,-1.51,0.53,-0.53,-1.80,-2.06,-2.04,-2.02
924,-1.35,0.66,-1.33,0.68,-0.68,-1.86,-2.03,-2.01,-2.00
933,-1.17,0.81,-1.16,0.83,-0.83,-1.91,-2.00,-1.99,-1.98
943,-0.99,0.97,-0.98,0.99,-0.99,-1.97,-1.97,-1.97,-1.96
952,-0.83,1.11,-0.81,1.14,-1.14,-2.01,-1.96,-1.94,-1.94
962,-0.63,1.29,-0.64,1.28,-1.28,-2.05,-1.91,-1.92,-1.92
971,-0.46,1.45,-0.48,1.43,-1.43,-2.08,-1.88,-1.90,-1.90
981,-0.30,1.59,-0.32,1.57,-1.57,-2.10,-1.86,-1.88,-1.89
991,-0.12,1.75,-0.16,1.70,-1.70,-2.12,-1.82,-1.86,-1.87
1001,0.01,1.86,-0.01,1.83,-1.83,-2.13,-1.82,-1.84,-1.85
1011,0.14,1.97,0.14,1.96,-1.96,-2.14,-1.81,-1.82,-1.82
1021,0.26,2.06,0.27,2.07,-2.07,-2.13,-1.81,-1.80,-1.80
1031,0.39,2.17,0.41,2.19,-2.19,-2.12,-1.79,-1.78,-1.77
1041,0.53,2.28,0.54,2.29,-2.29,-2.11,-1.76,-1.76,-1.75
1052,0.64,2.37,0.66,2.40,-2.40,-2.08,-1.75,-1.73,-1.73
1062,0.78,2.48,0.78,2.49,-2.49,-2.06,-1.71,-1.71,-1.70
1073,0.90,2.58,0.90,2.58,-2.58,-2.02,-1.68,-1.68,-1.67
1084,1.02,2.67,1.02,2.67,-2.67,-1.98,-1.65,-1.65,-1.65
1094,1.11,2.73,1.13,2.75,-2.75,-1.94,-1.64,-1.62,-1.61
1105,1.24,2.82,1.25,2.82,-2.82,-1.89,-1.58,-1.58,-1.58
1116,1.36,2.91,1.36,2.89,-2.89,-1.83,-1.53,-1.54,-1.54
1128,1.47,2.97,1.46,2.95,-2.95,-1.77,-1.48,-1.49,-1.50
1139,1.57,3.03,1.56,3.01,-3.01,-1.71,-1.44,-1.45,-1.45
1150,1.65,3.06,1.66,3.06,-3.06,-1.64,-1.40,-1.39,-1.40
1162,1.76,3.11,1.76,3.10,-3.10,-1.57,-1.34,-1.34,-1.35
1173,1.84,3.13,1.85,3.13,-3.13,-1.50,-1.29,-1.29,-1.29
1185,1.92,3.15,1.93,3.16,-3.16,-1.43,-1.24,-1.23,-1.23
1197,2.01,3.18,2.01,3.18,-3.18,-1.35,-1.17,-1.17,-1.17
1209,2.08,3.18,2.09,3.19,-3.19,-1.27,-1.11,-1.11,-1.10
1221,2.14,3.18,2.15,3.20,-3.20,-1.19,-1.06,-1.04,-1.04
1233,2.22,3.19,2.22,3.20,-3.20,-1.11,-0.98,-0.98,-0.97
1246,2.29,3.20,2.28,3.19,-3.19,-1.02,-0.90,-0.92,-0.91
1258,2.33,3.17,2.33,3.18,-3.18,-0.95,-0.85,-0.85,-0.84
1271,2.37,3.15,2.38,3.16,-3.16,-0.86,-0.79,-0.79,-0.78
1283,2.42,3.14,2.42,3.14,-3.14,-0.78,-0.71,-0.72,-0.72
1296,2.45,3.10,2.45,3.10,-3.10,-0.69,-0.65,-0.65,-0.65
1309,2.48,3.07,2.48,3.06,-3.06,-0.61,-0.58,-0.58,-0.58
1322,2.49,3.01,2.51,3.01,-3.01,-0.52,-0.52,-0.51,-0.51
1335,2.52,2.96,2.52,2.95,-2.95,-0.44,-0.43,-0.43,-0.44
1349,2.52,2.89,2.53,2.89,-2.89,-0.35,-0.36,-0.35,-0.36
1362,2.53,2.82,2.54,2.81,-2.81,-0.27,-0.28,-0.27,-0.28
1376,2.55,2.75,2.53,2.72,-2.72,-0.18,-0.17,-0.19,-0.20
1390,2.52,2.63,2.52,2.62,-2.62,-0.09,-0.10,-0.10,-0.11
1404,2.51,2.53,2.50,2.51,-2.51,-0.01,0.00,-0.01,-0.02
1418,2.48,2.41,2.48,2.39,-2.39,0.08,0.09,0.08,0.08
1432,2.44,2.27,2.44,2.27,-2.27,0.16,0.18,0.18,0.17
1446,2.40,2.13,2.40,2.13,-2.13,0.25,0.27,0.27,0.27
1461,2.37,2.00,2.35,1.98,-1.98,0.33,0.39,0.37,0.37
1475,2.31,1.85,2.30,1.83,-1.83,0.42,0.48,0.47,0.47
1490,2.24,1.68,2.24,1.68,-1.68,0.50,0.57,0.56,0.57
1505,2.17,1.51,2.17,1.52,-1.52,0.59,0.66,0.66,0.67
1520,2.10,1.34,2.10,1.35,-1.35,0.67,0.75,0.75,0.77
1535,2.03,1.17,2.03,1.19,-1.19,0.76,0.85,0.85,0.87
1550,1.95,0.99,1.96,1.02,-1.02,0.84,0.93,0.94,0.97
1566,1.88,0.82,1.89,0.85,-0.85,0.93,1.03,1.04,1.07
1582,1.80,0.64,1.82,0.69,-0.69,1.01,1.12,1.13,1.17
1597,1.75,0.49,1.75,0.52,-0.52,1.09,1.23,1.23,1.26
1613,1.68,0.32,1.68,0.36,-0.36,1.18,1.32,1.32,1.36
1629,1.61,0.15,1.62,0.20,-0.20,1.26,1.41,1.41,1.46
1646,1.55,-0.01,1.56,0.05,-0.05,1.34,1.50,1.51,1.56
1662,1.51,-0.15,1.50,-0.10,0.10,1.42,1.62,1.60,1.66
1679,1.46,-0.30,1.45,-0.25,0.25,1.51,1.71,1.70,1.76
1696,1.42,-0.45,1.41,-0.39,0.39,1.59,1.82,1.81,1.87
1713,1.37,-0.60,1.38,-0.53,0.53,1.67,1.90,1.91,1.98
1730,1.33,-0.75,1.36,-0.67,0.67,1.75,2.00,2.02,2.09
1747,1.31,-0.89,1.34,-0.80,0.80,1.82,2.11,2.14,2.20
1764,1.31,-1.01,1.34,-0.92,0.92,1.90,2.23,2.26,2.32
