frequency,raw,error,smoothed,error_smoothed,equalization,parametric_eq,fixed_band_eq,equalized_raw,equalized_smoothed,target
20.00,-9.51,-6.77,-9.54,-6.82,6.00,6.06,2.42,-3.51,-3.54,-2.75
20.20,-9.48,-6.77,-9.49,-6.79,6.00,6.05,2.49,-3.48,-3.49,-2.72
20.40,-9.46,-6.78,-9.44,-6.76,6.00,6.04,2.57,-3.46,-3.44,-2.69
20.61,-9.41,-6.75,-9.39,-6.72,6.00,6.03,2.64,-3.41,-3.39,-2.67
20.81,-9.34,-6.70,-9.33,-6.69,6.00,6.02,2.72,-3.34,-3.33,-2.64
21.02,-9.28,-6.67,-9.28,-6.65,6.00,6.01,2.79,-3.28,-3.28,-2.61
21.23,-9.24,-6.64,-9.23,-6.62,6.00,6.00,2.87,-3.24,-3.23,-2.60
21.44,-9.18,-6.59,-9.19,-6.58,6.00,5.99,2.96,-3.18,-3.19,-2.59
21.66,-9.14,-6.56,-9.14,-6.55,6.00,5.98,3.04,-3.14,-3.14,-2.58
21.87,-9.09,-6.51,-9.09,-6.51,6.00,5.96,3.13,-3.09,-3.09,-2.58
22.09,-9.04,-6.47,-9.04,-6.47,6.00,5.95,3.22,-3.04,-3.04,-2.57
22.31,-9.00,-6.43,-9.00,-6.43,6.00,5.94,3.31,-3.00,-3.00,-2.57
22.54,-8.95,-6.38,-8.95,-6.38,6.00,5.93,3.41,-2.95,-2.95,-2.57
22.76,-8.90,-6.33,-8.91,-6.34,6.00,5.91,3.50,-2.90,-2.91,-2.57
22.99,-8.86,-6.28,-8.86,-6.29,6.00,5.90,3.60,-2.86,-2.86,-2.58
23.22,-8.81,-6.23,-8.82,-6.25,6.00,5.89,3.70,-2.81,-2.82,-2.58
23.45,-8.78,-6.20,-8.78,-6.21,6.00,5.87,3.81,-2.78,-2.78,-2.58
23.69,-8.75,-6.17,-8.74,-6.17,6.00,5.86,3.91,-2.75,-2.74,-2.58
23.92,-8.69,-6.11,-8.70,-6.13,6.00,5.84,4.02,-2.69,-2.70,-2.58
24.16,-8.66,-6.09,-8.66,-6.09,5.99,5.83,4.13,-2.67,-2.67,-2.57
24.40,-8.63,-6.06,-8.63,-6.05,5.98,5.81,4.25,-2.65,-2.64,-2.57
24.65,-8.59,-6.01,-8.59,-6.01,5.97,5.80,4.36,-2.63,-2.62,-2.58
24.89,-8.55,-5.97,-8.55,-5.97,5.94,5.78,4.47,-2.61,-2.61,-2.58
25.14,-8.51,-5.93,-8.51,-5.93,5.91,5.76,4.59,-2.60,-2.60,-2.58
25.39,-8.48,-5.90,-8.47,-5.89,5.88,5.75,4.71,-2.60,-2.59,-2.58
25.65,-8.45,-5.87,-8.44,-5.85,5.85,5.73,4.82,-2.60,-2.59,-2.58
25.91,-8.40,-5.81,-8.40,-5.81,5.81,5.71,4.94,-2.59,-2.59,-2.59
26.16,-8.37,-5.78,-8.36,-5.77,5.77,5.69,5.06,-2.60,-2.59,-2.60
26.43,-8.31,-5.72,-8.33,-5.73,5.73,5.68,5.18,-2.58,-2.59,-2.60
26.69,-8.28,-5.69,-8.29,-5.70,5.70,5.66,5.29,-2.59,-2.60,-2.60
26.96,-8.24,-5.64,-8.26,-5.66,5.66,5.64,5.41,-2.58,-2.60,-2.60
27.23,-8.22,-5.62,-8.22,-5.62,5.62,5.62,5.52,-2.60,-2.60,-2.60
27.50,-8.17,-5.57,-8.19,-5.58,5.58,5.60,5.63,-2.59,-2.61,-2.60
27.77,-8.16,-5.55,-8.16,-5.55,5.55,5.58,5.73,-2.61,-2.61,-2.61
28.05,-8.13,-5.52,-8.12,-5.51,5.51,5.56,5.83,-2.62,-2.61,-2.61
28.33,-8.09,-5.47,-8.09,-5.47,5.47,5.54,5.93,-2.62,-2.62,-2.62
28.62,-8.08,-5.46,-8.05,-5.44,5.44,5.52,6.02,-2.65,-2.62,-2.62
28.90,-8.03,-5.41,-8.02,-5.40,5.40,5.50,6.11,-2.63,-2.62,-2.62
29.19,-8.00,-5.37,-7.99,-5.37,5.37,5.48,6.18,-2.63,-2.63,-2.63
29.48,-7.97,-5.35,-7.97,-5.34,5.34,5.45,6.25,-2.64,-2.63,-2.62
29.78,-7.94,-5.31,-7.94,-5.30,5.30,5.43,6.32,-2.64,-2.64,-2.64
30.08,-7.89,-5.26,-7.91,-5.27,5.27,5.41,6.37,-2.62,-2.64,-2.64
30.38,-7.85,-5.20,-7.89,-5.24,5.24,5.39,6.41,-2.61,-2.65,-2.65
30.68,-7.85,-5.20,-7.86,-5.21,5.21,5.37,6.45,-2.64,-2.65,-2.65
30.99,-7.81,-5.15,-7.83,-5.18,5.18,5.34,6.47,-2.63,-2.66,-2.66
31.30,-7.80,-5.14,-7.81,-5.15,5.15,5.32,6.49,-2.65,-2.66,-2.66
31.61,-7.80,-5.14,-7.78,-5.12,5.12,5.30,6.49,-2.68,-2.67,-2.66
31.93,-7.78,-5.11,-7.76,-5.09,5.09,5.27,6.49,-2.70,-2.67,-2.67
32.24,-7.75,-5.07,-7.73,-5.06,5.06,5.25,6.47,-2.70,-2.68,-2.68
32.57,-7.73,-5.05,-7.71,-5.02,5.02,5.22,6.45,-2.71,-2.68,-2.69
32.89,-7.70,-5.01,-7.68,-4.99,4.99,5.20,6.42,-2.71,-2.69,-2.69
33.22,-7.67,-4.97,-7.66,-4.96,4.96,5.17,6.37,-2.71,-2.70,-2.70
33.55,-7.61,-4.91,-7.63,-4.93,4.93,5.15,6.33,-2.68,-2.70,-2.70
33.89,-7.60,-4.89,-7.61,-4.90,4.90,5.12,6.27,-2.70,-2.71,-2.71
34.23,-7.57,-4.86,-7.58,-4.86,4.86,5.10,6.21,-2.71,-2.72,-2.71
34.57,-7.54,-4.82,-7.56,-4.83,4.83,5.07,6.14,-2.71,-2.73,-2.73
34.92,-7.52,-4.78,-7.54,-4.80,4.80,5.04,6.07,-2.72,-2.73,-2.74
35.27,-7.52,-4.78,-7.51,-4.77,4.77,5.02,5.99,-2.75,-2.74,-2.74
35.62,-7.47,-4.72,-7.49,-4.74,4.74,4.99,5.91,-2.73,-2.75,-2.75
35.97,-7.47,-4.71,-7.47,-4.71,4.71,4.96,5.82,-2.76,-2.76,-2.76
36.33,-7.47,-4.70,-7.45,-4.69,4.69,4.93,5.73,-2.79,-2.77,-2.77
36.70,-7.43,-4.65,-7.44,-4.66,4.66,4.91,5.65,-2.77,-2.78,-2.78
37.06,-7.43,-4.64,-7.42,-4.63,4.63,4.88,5.56,-2.80,-2.79,-2.79
37.43,-7.43,-4.64,-7.41,-4.61,4.61,4.85,5.47,-2.82,-2.80,-2.79
37.81,-7.38,-4.58,-7.39,-4.59,4.59,4.82,5.38,-2.80,-2.81,-2.81
38.19,-7.38,-4.56,-7.38,-4.56,4.56,4.79,5.29,-2.82,-2.82,-2.82
38.57,-7.38,-4.56,-7.37,-4.54,4.54,4.76,5.20,-2.84,-2.83,-2.82
38.95,-7.33,-4.50,-7.35,-4.52,4.52,4.73,5.11,-2.82,-2.84,-2.83
39.34,-7.33,-4.48,-7.34,-4.49,4.49,4.71,5.03,-2.84,-2.84,-2.85
39.74,-7.33,-4.47,-7.32,-4.47,4.47,4.68,4.94,-2.86,-2.85,-2.86
40.14,-7.29,-4.43,-7.31,-4.45,4.45,4.65,4.86,-2.84,-2.86,-2.86
40.54,-7.29,-4.42,-7.30,-4.43,4.43,4.62,4.78,-2.86,-2.87,-2.88
40.94,-7.29,-4.41,-7.29,-4.41,4.41,4.59,4.71,-2.88,-2.88,-2.88
41.35,-7.29,-4.40,-7.28,-4.39,4.39,4.56,4.63,-2.90,-2.89,-2.89
41.76,-7.29,-4.39,-7.27,-4.37,4.37,4.52,4.56,-2.92,-2.90,-2.90
42.18,-7.24,-4.34,-7.26,-4.35,4.35,4.49,4.49,-2.89,-2.91,-2.90
42.60,-7.24,-4.33,-7.26,-4.34,4.34,4.46,4.43,-2.90,-2.92,-2.92
43.03,-7.24,-4.32,-7.25,-4.32,4.32,4.43,4.36,-2.92,-2.93,-2.92
43.46,-7.24,-4.31,-7.25,-4.30,4.30,4.40,4.31,-2.94,-2.94,-2.93
43.90,-7.24,-4.28,-7.24,-4.28,4.28,4.37,4.25,-2.96,-2.96,-2.96
44.33,-7.24,-4.27,-7.23,-4.26,4.26,4.34,4.20,-2.98,-2.97,-2.97
44.78,-7.24,-4.25,-7.23,-4.24,4.24,4.31,4.15,-3.00,-2.98,-2.99
45.23,-7.24,-4.24,-7.22,-4.22,4.22,4.27,4.10,-3.02,-3.00,-3.00
45.68,-7.19,-4.17,-7.21,-4.20,4.20,4.24,4.06,-3.00,-3.01,-3.02
46.13,-7.19,-4.16,-7.20,-4.17,4.17,4.21,4.02,-3.02,-3.03,-3.03
46.60,-7.19,-4.15,-7.19,-4.14,4.14,4.18,3.98,-3.05,-3.04,-3.04
47.06,-7.19,-4.14,-7.18,-4.12,4.12,4.14,3.95,-3.08,-3.06,-3.06
47.53,-7.15,-4.08,-7.17,-4.09,4.09,4.11,3.92,-3.06,-3.08,-3.07
48.01,-7.15,-4.07,-7.16,-4.06,4.06,4.08,3.89,-3.09,-3.10,-3.08
48.49,-7.15,-4.05,-7.15,-4.03,4.03,4.05,3.87,-3.12,-3.12,-3.10
48.97,-7.15,-4.02,-7.14,-4.00,4.00,4.01,3.84,-3.15,-3.13,-3.13
49.46,-7.10,-3.94,-7.13,-3.98,3.98,3.98,3.82,-3.13,-3.15,-3.16
49.96,-7.10,-3.92,-7.12,-3.95,3.95,3.95,3.80,-3.15,-3.17,-3.19
50.46,-7.10,-3.91,-7.11,-3.92,3.92,3.91,3.79,-3.18,-3.19,-3.19
50.96,-7.10,-3.89,-7.10,-3.89,3.89,3.88,3.77,-3.21,-3.21,-3.21
51.47,-7.10,-3.86,-7.09,-3.86,3.86,3.85,3.76,-3.24,-3.23,-3.24
51.99,-7.10,-3.84,-7.09,-3.83,3.83,3.81,3.75,-3.27,-3.25,-3.26
52.51,-7.10,-3.83,-7.08,-3.81,3.81,3.78,3.74,-3.30,-3.27,-3.27
53.03,-7.05,-3.77,-7.07,-3.78,3.78,3.75,3.74,-3.27,-3.29,-3.29
53.56,-7.05,-3.75,-7.06,-3.75,3.75,3.71,3.73,-3.31,-3.31,-3.31
54.10,-7.05,-3.73,-7.05,-3.72,3.72,3.68,3.72,-3.33,-3.33,-3.33
54.64,-7.05,-3.71,-7.04,-3.69,3.69,3.65,3.72,-3.36,-3.35,-3.35
55.18,-7.01,-3.65,-7.02,-3.66,3.66,3.61,3.71,-3.35,-3.36,-3.37
55.74,-7.01,-3.63,-7.01,-3.63,3.63,3.58,3.70,-3.38,-3.38,-3.39
56.29,-7.01,-3.61,-6.99,-3.60,3.60,3.54,3.70,-3.41,-3.40,-3.40
56.86,-6.97,-3.55,-6.98,-3.56,3.56,3.51,3.69,-3.41,-3.41,-3.42
57.42,-6.96,-3.52,-6.96,-3.53,3.53,3.48,3.68,-3.43,-3.43,-3.44
58.00,-6.96,-3.51,-6.95,-3.50,3.50,3.44,3.67,-3.46,-3.45,-3.45
58.58,-6.92,-3.46,-6.93,-3.46,3.46,3.41,3.66,-3.46,-3.47,-3.47
59.16,-6.91,-3.43,-6.92,-3.43,3.43,3.38,3.65,-3.48,-3.49,-3.48
59.76,-6.91,-3.42,-6.90,-3.39,3.39,3.34,3.63,-3.52,-3.51,-3.49
60.35,-6.87,-3.35,-6.89,-3.36,3.36,3.31,3.62,-3.51,-3.53,-3.52
60.96,-6.87,-3.34,-6.88,-3.33,3.33,3.27,3.60,-3.54,-3.54,-3.53
61.57,-6.87,-3.30,-6.87,-3.30,3.30,3.24,3.58,-3.57,-3.56,-3.57
62.18,-6.87,-3.28,-6.86,-3.27,3.27,3.21,3.55,-3.60,-3.58,-3.59
62.80,-6.84,-3.23,-6.85,-3.24,3.24,3.17,3.53,-3.60,-3.60,-3.61
63.43,-6.82,-3.19,-6.84,-3.22,3.22,3.14,3.50,-3.61,-3.63,-3.63
64.07,-6.82,-3.17,-6.83,-3.19,3.19,3.11,3.46,-3.63,-3.65,-3.65
64.71,-6.82,-3.15,-6.83,-3.16,3.16,3.07,3.43,-3.66,-3.67,-3.67
65.35,-6.82,-3.13,-6.83,-3.14,3.14,3.04,3.39,-3.68,-3.69,-3.69
66.01,-6.84,-3.14,-6.83,-3.12,3.12,3.00,3.35,-3.72,-3.71,-3.71
66.67,-6.84,-3.12,-6.82,-3.10,3.10,2.97,3.31,-3.75,-3.73,-3.72
67.33,-6.82,-3.08,-6.82,-3.08,3.08,2.94,3.27,-3.75,-3.75,-3.74
68.01,-6.82,-3.06,-6.82,-3.05,3.05,2.90,3.22,-3.77,-3.77,-3.76
68.69,-6.82,-3.04,-6.82,-3.03,3.03,2.87,3.18,-3.79,-3.79,-3.79
69.37,-6.82,-3.02,-6.82,-3.01,3.01,2.84,3.13,-3.81,-3.81,-3.81
70.07,-6.82,-2.99,-6.82,-2.99,2.99,2.81,3.08,-3.83,-3.83,-3.83
70.77,-6.82,-2.98,-6.82,-2.98,2.98,2.77,3.03,-3.85,-3.85,-3.84
71.48,-6.82,-2.96,-6.82,-2.95,2.95,2.74,2.97,-3.87,-3.87,-3.86
72.19,-6.82,-2.93,-6.82,-2.93,2.93,2.71,2.92,-3.89,-3.89,-3.89
72.91,-6.80,-2.89,-6.82,-2.91,2.91,2.68,2.87,-3.89,-3.91,-3.91
73.64,-6.81,-2.88,-6.82,-2.89,2.89,2.64,2.81,-3.93,-3.93,-3.94
74.38,-6.82,-2.87,-6.82,-2.86,2.86,2.61,2.76,-3.96,-3.95,-3.95
75.12,-6.82,-2.84,-6.81,-2.84,2.84,2.58,2.71,-3.98,-3.97,-3.98
75.87,-6.82,-2.83,-6.81,-2.82,2.82,2.55,2.66,-4.00,-3.99,-3.99
76.63,-6.82,-2.81,-6.81,-2.80,2.80,2.51,2.60,-4.02,-4.01,-4.01
77.40,-6.82,-2.79,-6.81,-2.78,2.78,2.48,2.55,-4.04,-4.03,-4.03
78.17,-6.81,-2.75,-6.81,-2.76,2.76,2.45,2.50,-4.05,-4.05,-4.06
78.95,-6.80,-2.74,-6.81,-2.74,2.74,2.42,2.45,-4.06,-4.07,-4.07
79.74,-6.80,-2.72,-6.81,-2.72,2.72,2.39,2.40,-4.08,-4.09,-4.09
80.54,-6.80,-2.70,-6.81,-2.70,2.70,2.36,2.36,-4.10,-4.11,-4.11
81.35,-6.80,-2.67,-6.81,-2.69,2.69,2.33,2.31,-4.12,-4.13,-4.13
82.16,-6.80,-2.65,-6.81,-2.66,2.66,2.30,2.26,-4.14,-4.15,-4.15
82.98,-6.82,-2.66,-6.81,-2.65,2.65,2.26,2.22,-4.18,-4.17,-4.16
83.81,-6.82,-2.63,-6.81,-2.63,2.63,2.23,2.18,-4.20,-4.19,-4.19
84.65,-6.82,-2.61,-6.82,-2.61,2.61,2.20,2.14,-4.22,-4.21,-4.22
85.50,-6.82,-2.59,-6.82,-2.59,2.59,2.17,2.10,-4.24,-4.23,-4.23
86.35,-6.82,-2.57,-6.82,-2.57,2.57,2.14,2.06,-4.26,-4.25,-4.25
87.22,-6.82,-2.54,-6.82,-2.55,2.55,2.11,2.02,-4.28,-4.28,-4.28
88.09,-6.82,-2.52,-6.82,-2.52,2.52,2.08,1.99,-4.30,-4.30,-4.30
88.97,-6.82,-2.50,-6.82,-2.50,2.50,2.05,1.95,-4.32,-4.32,-4.32
89.86,-6.82,-2.48,-6.82,-2.48,2.48,2.02,1.92,-4.35,-4.35,-4.34
90.76,-6.82,-2.44,-6.82,-2.45,2.45,2.00,1.89,-4.37,-4.37,-4.38
91.66,-6.82,-2.43,-6.82,-2.42,2.42,1.97,1.86,-4.40,-4.40,-4.40
92.58,-6.82,-2.39,-6.82,-2.40,2.40,1.94,1.83,-4.43,-4.43,-4.43
93.51,-6.82,-2.37,-6.82,-2.37,2.37,1.91,1.81,-4.45,-4.45,-4.45
94.44,-6.82,-2.34,-6.82,-2.34,2.34,1.88,1.78,-4.48,-4.48,-4.48
95.39,-6.82,-2.32,-6.83,-2.31,2.31,1.85,1.76,-4.51,-4.51,-4.51
96.34,-6.82,-2.28,-6.83,-2.29,2.29,1.82,1.74,-4.54,-4.54,-4.54
97.30,-6.82,-2.25,-6.83,-2.26,2.26,1.80,1.72,-4.57,-4.57,-4.57
98.28,-6.82,-2.22,-6.83,-2.23,2.23,1.77,1.70,-4.59,-4.60,-4.60
99.26,-6.82,-2.19,-6.82,-2.20,2.20,1.74,1.68,-4.63,-4.63,-4.63
100.25,-6.82,-2.16,-6.82,-2.16,2.16,1.71,1.66,-4.66,-4.66,-4.66
101.25,-6.82,-2.13,-6.82,-2.13,2.13,1.69,1.64,-4.69,-4.69,-4.69
102.27,-6.82,-2.10,-6.82,-2.10,2.10,1.66,1.63,-4.72,-4.72,-4.72
103.29,-6.82,-2.07,-6.81,-2.06,2.06,1.63,1.61,-4.76,-4.75,-4.76
104.32,-6.82,-2.05,-6.80,-2.03,2.03,1.61,1.60,-4.80,-4.78,-4.78
105.37,-6.78,-1.98,-6.79,-1.99,1.99,1.58,1.58,-4.80,-4.81,-4.81
106.42,-6.77,-1.94,-6.78,-1.95,1.95,1.55,1.57,-4.83,-4.84,-4.83
107.48,-6.77,-1.91,-6.77,-1.90,1.90,1.53,1.55,-4.87,-4.87,-4.86
108.56,-6.76,-1.86,-6.75,-1.85,1.85,1.50,1.54,-4.91,-4.90,-4.90
109.64,-6.73,-1.80,-6.73,-1.80,1.80,1.47,1.53,-4.93,-4.93,-4.93
110.74,-6.73,-1.77,-6.71,-1.75,1.75,1.45,1.52,-4.99,-4.97,-4.96
111.85,-6.69,-1.70,-6.69,-1.69,1.69,1.42,1.50,-5.00,-5.00,-4.99
112.97,-6.68,-1.64,-6.67,-1.64,1.64,1.40,1.49,-5.05,-5.04,-5.04
114.10,-6.66,-1.59,-6.65,-1.58,1.58,1.37,1.48,-5.08,-5.07,-5.07
115.24,-6.63,-1.53,-6.63,-1.53,1.53,1.35,1.46,-5.10,-5.10,-5.11
116.39,-6.61,-1.47,-6.62,-1.48,1.48,1.32,1.45,-5.14,-5.14,-5.14
117.55,-6.59,-1.41,-6.60,-1.43,1.43,1.30,1.44,-5.17,-5.18,-5.18
118.73,-6.55,-1.33,-6.58,-1.37,1.37,1.27,1.42,-5.18,-5.21,-5.22
119.92,-6.54,-1.30,-6.57,-1.32,1.32,1.25,1.40,-5.22,-5.25,-5.25
121.12,-6.54,-1.26,-6.56,-1.28,1.28,1.22,1.39,-5.27,-5.28,-5.28
122.33,-6.54,-1.22,-6.55,-1.23,1.23,1.20,1.37,-5.31,-5.32,-5.32
123.55,-6.54,-1.20,-6.54,-1.18,1.18,1.17,1.35,-5.36,-5.35,-5.35
124.79,-6.54,-1.16,-6.53,-1.14,1.14,1.15,1.33,-5.40,-5.39,-5.38
126.03,-6.54,-1.13,-6.52,-1.10,1.10,1.13,1.31,-5.44,-5.42,-5.42
127.29,-6.54,-1.09,-6.51,-1.05,1.05,1.10,1.29,-5.49,-5.46,-5.45
128.57,-6.49,-1.00,-6.50,-1.01,1.01,1.08,1.27,-5.48,-5.49,-5.49
129.85,-6.49,-0.96,-6.50,-0.97,0.97,1.05,1.24,-5.52,-5.52,-5.53
131.15,-6.49,-0.93,-6.49,-0.93,0.93,1.03,1.22,-5.56,-5.56,-5.56
132.46,-6.49,-0.90,-6.48,-0.89,0.89,1.00,1.19,-5.60,-5.59,-5.59
133.79,-6.48,-0.87,-6.48,-0.86,0.86,0.98,1.17,-5.63,-5.62,-5.62
135.12,-6.45,-0.80,-6.47,-0.82,0.82,0.96,1.14,-5.63,-5.65,-5.66
136.48,-6.45,-0.77,-6.46,-0.78,0.78,0.93,1.11,-5.67,-5.68,-5.68
137.84,-6.45,-0.74,-6.46,-0.75,0.75,0.91,1.08,-5.70,-5.71,-5.71
139.22,-6.45,-0.70,-6.46,-0.72,0.72,0.88,1.05,-5.73,-5.74,-5.75
140.61,-6.45,-0.68,-6.45,-0.69,0.69,0.86,1.02,-5.76,-5.76,-5.78
142.02,-6.45,-0.67,-6.45,-0.67,0.67,0.83,0.99,-5.79,-5.79,-5.79
143.44,-6.45,-0.64,-6.46,-0.64,0.64,0.81,0.96,-5.81,-5.81,-5.81
144.87,-6.45,-0.61,-6.46,-0.62,0.62,0.78,0.93,-5.83,-5.84,-5.84
146.32,-6.47,-0.60,-6.46,-0.59,0.59,0.76,0.90,-5.88,-5.87,-5.87
147.78,-6.47,-0.59,-6.46,-0.57,0.57,0.73,0.86,-5.90,-5.89,-5.88
149.26,-6.47,-0.56,-6.46,-0.55,0.55,0.70,0.83,-5.92,-5.92,-5.91
150.75,-6.47,-0.53,-6.47,-0.52,0.52,0.68,0.80,-5.95,-5.94,-5.94
152.26,-6.47,-0.50,-6.47,-0.50,0.50,0.65,0.76,-5.97,-5.97,-5.97
153.78,-6.47,-0.48,-6.47,-0.48,0.48,0.62,0.73,-6.00,-6.00,-5.99
155.32,-6.47,-0.45,-6.47,-0.45,0.45,0.60,0.70,-6.02,-6.02,-6.03
156.88,-6.47,-0.42,-6.47,-0.42,0.42,0.57,0.67,-6.05,-6.05,-6.05
158.44,-6.47,-0.39,-6.47,-0.39,0.39,0.54,0.63,-6.08,-6.08,-6.08
160.03,-6.47,-0.36,-6.47,-0.37,0.37,0.51,0.60,-6.11,-6.11,-6.11
161.63,-6.47,-0.33,-6.47,-0.34,0.34,0.48,0.57,-6.14,-6.14,-6.14
163.24,-6.47,-0.30,-6.47,-0.30,0.30,0.45,0.53,-6.17,-6.16,-6.17
164.88,-6.47,-0.28,-6.47,-0.27,0.27,0.41,0.50,-6.20,-6.19,-6.19
166.53,-6.47,-0.25,-6.47,-0.24,0.24,0.38,0.47,-6.23,-6.22,-6.22
168.19,-6.47,-0.22,-6.46,-0.21,0.21,0.35,0.44,-6.26,-6.25,-6.25
169.87,-6.47,-0.19,-6.46,-0.18,0.18,0.31,0.40,-6.29,-6.28,-6.28
171.57,-6.45,-0.15,-6.46,-0.15,0.15,0.27,0.37,-6.30,-6.31,-6.31
173.29,-6.45,-0.12,-6.46,-0.12,0.12,0.24,0.34,-6.33,-6.34,-6.33
175.02,-6.45,-0.09,-6.46,-0.09,0.09,0.20,0.31,-6.36,-6.37,-6.36
176.77,-6.45,-0.06,-6.46,-0.06,0.06,0.16,0.28,-6.39,-6.40,-6.40
178.54,-6.45,-0.02,-6.46,-0.03,0.03,0.11,0.25,-6.42,-6.43,-6.43
180.32,-6.45,0.00,-6.46,-0.00,0.00,0.07,0.21,-6.45,-6.45,-6.46
182.13,-6.45,0.03,-6.45,0.03,-0.03,0.03,0.18,-6.48,-6.48,-6.48
183.95,-6.45,0.06,-6.45,0.06,-0.06,-0.02,0.15,-6.51,-6.51,-6.52
185.79,-6.45,0.09,-6.45,0.09,-0.09,-0.06,0.12,-6.54,-6.54,-6.54
187.65,-6.45,0.12,-6.45,0.12,-0.12,-0.11,0.09,-6.57,-6.57,-6.57
189.52,-6.45,0.14,-6.45,0.15,-0.15,-0.15,0.06,-6.60,-6.59,-6.60
191.42,-6.45,0.17,-6.45,0.17,-0.17,-0.20,0.03,-6.63,-6.62,-6.62
193.33,-6.45,0.19,-6.44,0.20,-0.20,-0.24,0.00,-6.65,-6.64,-6.64
195.27,-6.45,0.21,-6.44,0.23,-0.23,-0.28,-0.03,-6.68,-6.66,-6.66
197.22,-6.45,0.23,-6.43,0.25,-0.25,-0.32,-0.06,-6.70,-6.68,-6.68
199.19,-6.42,0.29,-6.43,0.28,-0.28,-0.36,-0.09,-6.70,-6.70,-6.71
201.18,-6.41,0.31,-6.42,0.30,-0.30,-0.39,-0.12,-6.71,-6.72,-6.72
203.19,-6.40,0.33,-6.42,0.32,-0.32,-0.41,-0.14,-6.72,-6.74,-6.73
205.23,-6.40,0.35,-6.41,0.34,-0.34,-0.44,-0.17,-6.74,-6.75,-6.75
207.28,-6.40,0.35,-6.41,0.35,-0.35,-0.45,-0.20,-6.75,-6.76,-6.75
209.35,-6.40,0.37,-6.41,0.37,-0.37,-0.47,-0.23,-6.77,-6.77,-6.77
211.44,-6.40,0.39,-6.41,0.38,-0.38,-0.47,-0.25,-6.78,-6.78,-6.79
213.56,-6.40,0.39,-6.40,0.39,-0.39,-0.47,-0.28,-6.79,-6.79,-6.79
215.69,-6.40,0.39,-6.40,0.40,-0.40,-0.47,-0.30,-6.80,-6.80,-6.79
217.85,-6.40,0.40,-6.40,0.40,-0.40,-0.46,-0.33,-6.81,-6.80,-6.80
220.03,-6.40,0.40,-6.39,0.41,-0.41,-0.45,-0.35,-6.81,-6.80,-6.80
222.23,-6.40,0.41,-6.39,0.41,-0.41,-0.43,-0.37,-6.81,-6.80,-6.81
224.45,-6.40,0.40,-6.39,0.41,-0.41,-0.41,-0.39,-6.81,-6.80,-6.80
226.70,-6.40,0.39,-6.39,0.41,-0.41,-0.39,-0.41,-6.81,-6.80,-6.80
228.96,-6.38,0.41,-6.38,0.41,-0.41,-0.37,-0.43,-6.80,-6.79,-6.79
231.25,-6.35,0.43,-6.37,0.41,-0.41,-0.35,-0.45,-6.77,-6.79,-6.78
233.57,-6.35,0.42,-6.37,0.41,-0.41,-0.33,-0.47,-6.76,-6.78,-6.78
235.90,-6.35,0.42,-6.36,0.41,-0.41,-0.31,-0.48,-6.76,-6.77,-6.77
238.26,-6.35,0.42,-6.36,0.41,-0.41,-0.29,-0.49,-6.76,-6.76,-6.77
240.64,-6.35,0.40,-6.35,0.40,-0.40,-0.27,-0.51,-6.75,-6.75,-6.75
243.05,-6.35,0.39,-6.34,0.40,-0.40,-0.25,-0.52,-6.75,-6.74,-6.74
245.48,-6.35,0.37,-6.33,0.39,-0.39,-0.24,-0.52,-6.74,-6.72,-6.72
247.93,-6.32,0.39,-6.33,0.38,-0.38,-0.22,-0.53,-6.70,-6.71,-6.71
250.41,-6.31,0.39,-6.32,0.37,-0.37,-0.21,-0.54,-6.68,-6.69,-6.70
252.92,-6.31,0.37,-6.32,0.36,-0.36,-0.19,-0.54,-6.67,-6.68,-6.68
255.45,-6.31,0.34,-6.31,0.35,-0.35,-0.18,-0.54,-6.66,-6.66,-6.65
258.00,-6.31,0.32,-6.30,0.33,-0.33,-0.17,-0.54,-6.65,-6.64,-6.64
260.58,-6.31,0.31,-6.30,0.32,-0.32,-0.16,-0.54,-6.63,-6.62,-6.62
263.19,-6.27,0.32,-6.29,0.31,-0.31,-0.16,-0.54,-6.58,-6.60,-6.59
265.82,-6.26,0.32,-6.28,0.30,-0.30,-0.15,-0.53,-6.56,-6.57,-6.58
268.48,-6.26,0.29,-6.27,0.29,-0.29,-0.15,-0.53,-6.55,-6.55,-6.55
271.16,-6.26,0.26,-6.26,0.27,-0.27,-0.14,-0.52,-6.53,-6.53,-6.53
273.87,-6.26,0.25,-6.25,0.26,-0.26,-0.14,-0.51,-6.52,-6.51,-6.51
276.61,-6.26,0.22,-6.24,0.25,-0.25,-0.13,-0.50,-6.51,-6.49,-6.48
279.38,-6.21,0.25,-6.23,0.23,-0.23,-0.13,-0.49,-6.44,-6.47,-6.47
282.17,-6.21,0.24,-6.22,0.22,-0.22,-0.13,-0.48,-6.44,-6.45,-6.45
284.99,-6.21,0.21,-6.21,0.21,-0.21,-0.13,-0.47,-6.43,-6.42,-6.42
287.84,-6.21,0.19,-6.20,0.20,-0.20,-0.13,-0.45,-6.41,-6.40,-6.40
290.72,-6.17,0.20,-6.19,0.19,-0.19,-0.13,-0.44,-6.36,-6.38,-6.38
293.63,-6.17,0.19,-6.17,0.18,-0.18,-0.13,-0.42,-6.35,-6.36,-6.36
296.57,-6.17,0.16,-6.16,0.17,-0.17,-0.14,-0.41,-6.34,-6.33,-6.33
299.53,-6.17,0.14,-6.14,0.16,-0.16,-0.14,-0.39,-6.34,-6.31,-6.31
302.53,-6.12,0.17,-6.13,0.16,-0.16,-0.14,-0.38,-6.28,-6.28,-6.30
305.55,-6.12,0.14,-6.11,0.15,-0.15,-0.14,-0.36,-6.27,-6.26,-6.26
308.61,-6.08,0.16,-6.10,0.14,-0.14,-0.15,-0.34,-6.22,-6.24,-6.24
311.69,-6.07,0.14,-6.08,0.13,-0.13,-0.15,-0.32,-6.20,-6.21,-6.21
314.81,-6.07,0.10,-6.06,0.12,-0.12,-0.16,-0.30,-6.20,-6.19,-6.17
317.96,-6.03,0.12,-6.05,0.12,-0.12,-0.16,-0.28,-6.15,-6.16,-6.16
321.14,-6.03,0.11,-6.03,0.11,-0.11,-0.17,-0.26,-6.14,-6.14,-6.14
324.35,-6.03,0.09,-6.02,0.10,-0.10,-0.17,-0.25,-6.13,-6.12,-6.12
327.59,-5.98,0.11,-6.00,0.10,-0.10,-0.18,-0.23,-6.08,-6.09,-6.09
330.87,-5.98,0.09,-5.98,0.09,-0.09,-0.18,-0.21,-6.07,-6.07,-6.07
334.18,-5.98,0.07,-5.97,0.08,-0.08,-0.19,-0.19,-6.06,-6.05,-6.05
337.52,-5.94,0.09,-5.96,0.07,-0.07,-0.20,-0.17,-6.01,-6.03,-6.04
340.90,-5.93,0.08,-5.94,0.07,-0.07,-0.21,-0.15,-6.00,-6.01,-6.01
344.30,-5.93,0.06,-5.93,0.06,-0.06,-0.21,-0.13,-5.99,-5.99,-5.99
347.75,-5.93,0.04,-5.91,0.06,-0.06,-0.22,-0.11,-5.99,-5.97,-5.97
351.23,-5.89,0.06,-5.90,0.05,-0.05,-0.23,-0.09,-5.94,-5.95,-5.95
354.74,-5.89,0.04,-5.88,0.05,-0.05,-0.24,-0.07,-5.94,-5.93,-5.93
358.28,-5.89,0.02,-5.87,0.05,-0.05,-0.25,-0.05,-5.94,-5.91,-5.91
361.87,-5.84,0.05,-5.85,0.05,-0.05,-0.25,-0.03,-5.89,-5.90,-5.90
365.49,-5.84,0.03,-5.84,0.04,-0.04,-0.26,-0.01,-5.89,-5.88,-5.88
369.14,-5.80,0.07,-5.82,0.05,-0.05,-0.27,0.01,-5.85,-5.86,-5.87
372.83,-5.80,0.05,-5.80,0.05,-0.05,-0.28,0.03,-5.85,-5.85,-5.85
376.56,-5.78,0.06,-5.78,0.05,-0.05,-0.29,0.05,-5.83,-5.83,-5.84
380.33,-5.75,0.06,-5.77,0.05,-0.05,-0.30,0.07,-5.80,-5.82,-5.81
384.13,-5.75,0.05,-5.75,0.06,-0.06,-0.31,0.09,-5.81,-5.80,-5.80
387.97,-5.72,0.07,-5.73,0.06,-0.06,-0.32,0.11,-5.79,-5.79,-5.79
391.85,-5.70,0.08,-5.71,0.07,-0.07,-0.33,0.13,-5.77,-5.78,-5.78
395.77,-5.70,0.06,-5.69,0.08,-0.08,-0.34,0.15,-5.78,-5.77,-5.76
399.73,-5.66,0.09,-5.67,0.09,-0.09,-0.36,0.16,-5.75,-5.75,-5.75
403.72,-5.66,0.08,-5.65,0.10,-0.10,-0.37,0.18,-5.76,-5.74,-5.74
407.76,-5.62,0.11,-5.62,0.11,-0.11,-0.38,0.20,-5.73,-5.73,-5.74
411.84,-5.61,0.10,-5.60,0.12,-0.12,-0.39,0.21,-5.73,-5.72,-5.72
415.96,-5.56,0.15,-5.57,0.14,-0.14,-0.40,0.23,-5.70,-5.71,-5.71
420.12,-5.55,0.15,-5.55,0.15,-0.15,-0.42,0.24,-5.70,-5.70,-5.70
424.32,-5.52,0.17,-5.52,0.17,-0.17,-0.43,0.26,-5.69,-5.69,-5.69
428.56,-5.49,0.19,-5.49,0.19,-0.19,-0.44,0.27,-5.68,-5.68,-5.68
432.85,-5.47,0.20,-5.47,0.20,-0.20,-0.46,0.28,-5.67,-5.67,-5.67
437.18,-5.43,0.23,-5.44,0.22,-0.22,-0.47,0.29,-5.65,-5.65,-5.66
441.55,-5.42,0.22,-5.41,0.23,-0.23,-0.48,0.29,-5.65,-5.64,-5.64
