frequency,raw
20,-1.36
21,-1.21
22,-1.07
23,-0.93
24,-0.78
25,-0.63
26,-0.51
27,-0.35
28,-0.24
29,-0.16
30,-0.05
31,0.05
32,0.09
33,0.19
34,0.24
35,0.33
36,0.39
37,0.42
38,0.47
39,0.51
40,0.56
41,0.61
42,0.65
43,0.70
44,0.75
45,0.80
46,0.84
47,0.89
48,0.89
49,0.96
50,1.02
51,1.06
52,1.07
53,1.11
54,1.12
55,1.12
56,1.17
57,1.17
58,1.21
59,1.21
60,1.23
61,1.26
62,1.26
63,1.26
64,1.26
65,1.28
66,1.31
67,1.31
68,1.31
69,1.31
70,1.31
71,1.33
72,1.35
73,1.35
74,1.40
75,1.40
76,1.42
77,1.45
78,1.45
79,1.45
80,1.45
81,1.49
82,1.49
83,1.49
84,1.49
85,1.49
86,1.49
87,1.49
88,1.49
89,1.49
90,1.49
91,1.49
92,1.49
93,1.49
94,1.49
95,1.49
96,1.49
97,1.49
98,1.49
99,1.49
100,1.49
101,1.49
102,1.49
104,1.54
105,1.54
106,1.54
107,1.59
108,1.59
109,1.59
110,1.59
111,1.59
112,1.59
113,1.59
114,1.59
115,1.59
117,1.59
118,1.59
119,1.59
120,1.59
121,1.59
123,1.59
124,1.59
125,1.59
126,1.59
128,1.59
129,1.59
130,1.59
131,1.59
133,1.59
134,1.59
135,1.59
137,1.59
138,1.59
140,1.59
141,1.59
142,1.59
144,1.59
145,1.59
147,1.59
148,1.59
150,1.59
151,1.59
153,1.59
154,1.59
156,1.59
157,1.59
159,1.59
160,1.59
162,1.59
164,1.54
165,1.54
167,1.54
169,1.49
170,1.49
172,1.49
174,1.49
175,1.49
177,1.49
179,1.49
181,1.49
183,1.45
184,1.45
186,1.45
188,1.42
190,1.40
192,1.40
194,1.40
196,1.35
198,1.35
200,1.35
202,1.35
204,1.35
206,1.40
208,1.40
210,1.40
212,1.40
214,1.40
216,1.40
218,1.40
221,1.40
223,1.40
225,1.40
227,1.36
229,1.35
232,1.35
234,1.35
236,1.35
239,1.31
241,1.31
244,1.31
246,1.31
248,1.29
251,1.31
253,1.31
256,1.31
259,1.35
261,1.35
264,1.35
266,1.38
269,1.40
272,1.40
274,1.40
277,1.39
280,1.35
283,1.35
286,1.33
288,1.31
291,1.31
294,1.27
297,1.26
300,1.26
303,1.26
306,1.26
309,1.26
312,1.23
316,1.21
319,1.21
322,1.17
325,1.17
328,1.12
332,1.12
335,1.11
338,1.07
342,1.07
345,1.07
349,1.04
352,1.03
356,1.03
359,1.01
363,0.98
366,0.98
370,0.93
374,0.93
377,0.89
381,0.89
385,0.89
389,0.89
393,0.87
397,0.86
401,0.84
405,0.84
409,0.84
413,0.79
417,0.79
421,0.77
425,0.75
430,0.71
434,0.70
438,0.67
443,0.65
447,0.61
451,0.61
456,0.56
460,0.55
465,0.51
470,0.48
474,0.45
479,0.42
484,0.37
489,0.35
494,0.33
499,0.28
504,0.28
509,0.28
514,0.24
519,0.23
524,0.23
529,0.20
535,0.19
540,0.14
545,0.13
551,0.09
556,0.05
562,0.01
568,-0.02
573,-0.05
579,-0.09
585,-0.14
591,-0.15
596,-0.19
602,-0.20
608,-0.23
615,-0.27
621,-0.28
627,-0.33
633,-0.33
639,-0.36
646,-0.37
652,-0.37
659,-0.42
665,-0.42
672,-0.42
679,-0.47
686,-0.47
692,-0.47
699,-0.47
706,-0.51
713,-0.51
721,-0.52
728,-0.56
735,-0.56
742,-0.58
750,-0.61
757,-0.64
765,-0.65
773,-0.70
780,-0.70
788,-0.70
796,-0.70
804,-0.70
812,-0.70
820,-0.70
828,-0.70
837,-0.70
845,-0.70
853,-0.70
862,-0.70
871,-0.70
879,-0.70
888,-0.70
897,-0.70
906,-0.70
915,-0.70
924,-0.64
933,-0.58
943,-0.51
952,-0.40
962,-0.33
971,-0.23
981,-0.15
991,-0.06
1001,0.01
1011,0.08
1021,0.18
1031,0.24
1041,0.33
1052,0.41
1062,0.51
1073,0.62
1084,0.72
1094,0.79
1105,0.90
1116,0.97
1128,1.08
1139,1.18
1150,1.25
1162,1.36
1173,1.42
1185,1.53
1197,1.59
1209,1.70
1221,1.77
1233,1.87
1246,1.95
1258,2.04
1271,2.11
1283,2.18
1296,2.25
1309,2.31
1322,2.37
1335,2.44
1349,2.50
1362,2.54
1376,2.61
1390,2.68
1404,2.74
1418,2.80
1432,2.90
1446,2.98
1461,3.10
1475,3.18
1490,3.29
1505,3.38
1520,3.48
1535,3.58
1550,3.67
1566,3.79
1582,3.87
1597,3.95
1613,4.06
1629,4.15
1646,4.24
1662,4.34
1679,4.41
1696,4.52
1713,4.58
1730,4.69
1747,4.76
1764,4.86
1782,4.93
1800,5.01
1818,5.07
1836,5.12
1854,5.16
1873,5.21
1892,5.26
1911,5.32
1930,5.35
1949,5.37
1969,5.41
1988,5.44
2008,5.46
2028,5.46
2048,5.46
2069,5.46
2090,5.46
2111,5.46
2132,5.46
2153,5.44
2175,5.41
2196,5.37
2218,5.35
2240,5.31
2263,5.26
2285,5.19
2308,5.12
2331,5.05
2355,4.97
2378,4.89
2402,4.83
2426,4.74
2450,4.66
2475,4.59
2500,4.50
2525,4.42
2550,4.33
2575,4.23
2601,4.12
2627,4.01
2653,3.90
2680,3.79
2707,3.68
2734,3.57
2761,3.46
2789,3.35
2817,3.24
2845,3.16
2873,3.05
2902,2.94
2931,2.88
2960,2.77
2990,2.66
3020,2.60
3050,2.49
3080,2.41
3111,2.32
3142,2.23
3174,2.15
3206,2.07
3238,2.00
3270,1.94
3303,1.88
3336,1.81
3369,1.77
3403,1.77
3437,1.73
3471,1.73
3506,1.68
3541,1.68
3576,1.68
3612,1.68
3648,1.68
3685,1.68
3721,1.68
3759,1.68
3796,1.73
3834,1.73
3873,1.73
3911,1.77
3950,1.80
3990,1.86
4030,1.89
4070,1.95
4111,2.02
4152,2.10
4193,2.18
4235,2.27
4278,2.43
4321,2.57
4364,2.77
4407,2.99
4451,3.20
4496,3.42
4541,3.64
4586,3.88
4632,4.12
4679,4.34
4725,4.57
4773,4.82
4820,5.06
4868,5.38
4917,5.86
4966,6.28
5016,6.81
5066,7.48
5117,7.99
5168,8.54
5220,9.13
5272,9.64
5325,10.10
5378,10.48
5432,10.81
5486,11.04
5541,11.16
5596,11.22
5652,11.10
5709,10.83
5766,10.43
5823,9.88
5882,9.28
5940,8.64
6000,7.98
6060,7.38
6120,6.82
6182,6.27
6244,5.76
6306,5.30
6369,4.88
6433,4.47
6497,4.09
6562,3.73
6628,3.43
6694,3.21
6761,2.98
6828,2.81
6897,2.65
6966,2.56
7035,2.52
7106,2.52
7177,2.52
7249,2.52
7321,2.60
7394,2.71
7468,2.90
7543,3.09
7618,3.33
7694,3.61
7771,3.96
7849,4.37
7928,4.86
8007,5.33
8087,5.83
8168,6.27
8250,6.55
8332,6.80
8415,6.90
8499,7.05
8584,7.15
8670,6.99
8757,6.76
8845,6.25
8933,5.58
9022,4.82
9113,4.02
9204,3.29
9296,2.57
9389,2.11
9483,1.70
9577,1.30
9673,0.98
9770,0.71
9868,0.50
9966,0.36
10066,0.26
10167,0.24
10268,0.26
10371,0.28
10475,0.34
10579,0.43
10685,0.51
10792,0.36
10900,0.12
11009,-0.19
11119,-0.68
11230,-1.35
11343,-2.33
11456,-3.28
11571,-4.36
11686,-5.69
11803,-6.82
11921,-8.02
12040,-9.20
12161,-10.35
12282,-11.37
12405,-12.25
12529,-13.27
12655,-14.46
12781,-15.27
12909,-16.28
13038,-17.21
13168,-17.81
13300,-18.24
13433,-18.55
13567,-18.83
13703,-19.10
13840,-19.38
13978,-19.65
14118,-19.92
14259,-20.19
14402,-20.47
14546,-20.74
14692,-21.01
14838,-21.28
14987,-21.56
15137,-21.83
15288,-22.10
15441,-22.37
15595,-22.64
15751,-22.92
15909,-23.19
16068,-23.46
16229,-23.74
16391,-24.01
16555,-24.28
16720,-24.55
16888,-24.82
17056,-25.10
17227,-25.37
17399,-25.64
17573,-25.91
17749,-26.19
17926,-26.46
18106,-26.73
18287,-27.00
18470,-27.28
18654,-27.55
18841,-27.82
19029,-28.09
19220,-28.36
19412,-28.64
19606,-28.91
19802,-29.18
20000,-29.45
