frequency,raw
20,2.55
21,2.84
22,3.12
23,3.38
24,3.62
25,3.85
26,4.06
27,4.25
28,4.42
29,4.58
30,4.72
31,4.88
32,5.01
33,5.09
34,5.15
35,5.17
36,5.18
37,5.16
38,5.11
39,5.07
40,5.04
41,5.01
42,4.98
43,4.96
44,4.96
45,4.96
46,4.97
47,4.99
48,5.01
49,5.04
50,5.08
51,5.13
52,5.18
53,5.20
54,5.21
55,5.20
56,5.18
57,5.15
58,5.10
59,5.07
60,5.04
61,5.01
62,4.98
63,4.96
64,4.93
65,4.90
66,4.86
67,4.84
68,4.81
69,4.78
70,4.75
71,4.72
72,4.68
73,4.62
74,4.55
75,4.49
76,4.41
77,4.33
78,4.25
79,4.17
80,4.09
81,4.01
82,3.93
83,3.85
84,3.76
85,3.67
86,3.58
87,3.50
88,3.42
89,3.34
90,3.26
91,3.18
92,3.11
93,3.04
94,2.97
95,2.90
96,2.83
97,2.75
98,2.69
99,2.64
100,2.57
101,2.50
102,2.44
104,2.37
105,2.30
106,2.23
107,2.16
108,2.11
109,2.07
110,2.03
111,1.99
112,1.97
113,1.95
114,1.94
115,1.92
117,1.91
118,1.91
119,1.91
120,1.92
121,1.93
123,1.93
124,1.92
125,1.91
126,1.90
128,1.91
129,1.92
130,1.93
131,1.96
133,1.98
134,2.01
135,2.05
137,2.08
138,2.12
140,2.15
141,2.18
142,2.21
144,2.24
145,2.27
147,2.29
148,2.29
150,2.28
151,2.26
153,2.24
154,2.22
156,2.19
157,2.16
159,2.11
160,2.07
162,2.02
164,1.97
165,1.92
167,1.85
169,1.77
170,1.70
172,1.63
174,1.56
175,1.48
177,1.38
179,1.27
181,1.15
183,1.02
184,0.88
186,0.73
188,0.58
190,0.42
192,0.26
194,0.10
196,-0.07
198,-0.25
200,-0.41
202,-0.57
204,-0.74
206,-0.91
208,-1.07
210,-1.21
212,-1.36
214,-1.53
216,-1.69
218,-1.84
221,-1.99
223,-2.15
225,-2.31
227,-2.46
229,-2.60
232,-2.74
234,-2.89
236,-3.03
239,-3.19
241,-3.34
244,-3.48
246,-3.63
248,-3.78
251,-3.93
253,-4.05
256,-4.17
259,-4.30
261,-4.42
264,-4.52
266,-4.62
269,-4.71
272,-4.81
274,-4.89
277,-4.97
280,-5.05
283,-5.12
286,-5.19
288,-5.25
291,-5.31
294,-5.36
297,-5.40
300,-5.45
303,-5.50
306,-5.54
309,-5.58
312,-5.61
316,-5.65
319,-5.68
322,-5.71
325,-5.74
328,-5.77
332,-5.80
335,-5.83
338,-5.86
342,-5.87
345,-5.88
349,-5.86
352,-5.84
356,-5.80
359,-5.77
363,-5.73
366,-5.69
370,-5.66
374,-5.64
377,-5.61
381,-5.59
385,-5.57
389,-5.54
393,-5.51
397,-5.49
401,-5.48
405,-5.46
409,-5.43
413,-5.39
417,-5.35
421,-5.30
425,-5.24
430,-5.17
434,-5.10
438,-5.04
443,-4.97
447,-4.90
451,-4.84
456,-4.78
460,-4.71
465,-4.63
470,-4.56
474,-4.48
479,-4.41
484,-4.34
489,-4.26
494,-4.17
499,-4.08
504,-3.99
509,-3.90
514,-3.80
519,-3.70
524,-3.60
529,-3.50
535,-3.40
540,-3.30
545,-3.21
551,-3.12
556,-3.03
562,-2.93
568,-2.84
573,-2.77
579,-2.69
585,-2.61
591,-2.54
596,-2.46
602,-2.39
608,-2.32
615,-2.26
621,-2.20
627,-2.13
633,-2.07
639,-2.01
646,-1.95
652,-1.90
659,-1.86
665,-1.82
672,-1.76
679,-1.70
686,-1.65
692,-1.60
699,-1.57
706,-1.53
713,-1.49
721,-1.45
728,-1.41
735,-1.37
742,-1.34
750,-1.29
757,-1.24
765,-1.18
773,-1.13
780,-1.09
788,-1.04
796,-0.98
804,-0.91
812,-0.84
820,-0.77
828,-0.70
837,-0.64
845,-0.58
853,-0.53
862,-0.48
871,-0.42
879,-0.36
888,-0.31
897,-0.26
906,-0.22
915,-0.18
924,-0.14
933,-0.10
943,-0.08
952,-0.07
962,-0.04
971,-0.02
981,-0.01
991,0.00
1001,-0.00
1011,-0.00
1021,-0.01
1031,-0.02
1041,-0.02
1052,-0.02
1062,-0.02
1073,-0.02
1084,-0.02
1094,-0.02
1105,-0.02
1116,-0.03
1128,-0.04
1139,-0.04
1150,-0.04
1162,-0.02
1173,-0.01
1185,0.02
1197,0.05
1209,0.08
1221,0.11
1233,0.13
1246,0.16
1258,0.19
1271,0.22
1283,0.26
1296,0.30
1309,0.35
1322,0.39
1335,0.42
1349,0.45
1362,0.47
1376,0.50
1390,0.52
1404,0.54
1418,0.57
1432,0.60
1446,0.63
1461,0.67
1475,0.70
1490,0.72
1505,0.75
1520,0.77
1535,0.81
1550,0.84
1566,0.87
1582,0.90
1597,0.92
1613,0.94
1629,0.95
1646,0.96
1662,0.96
1679,0.97
1696,0.98
1713,1.00
1730,1.03
1747,1.06
1764,1.09
1782,1.12
1800,1.16
1818,1.19
1836,1.22
1854,1.24
1873,1.26
1892,1.27
1911,1.27
1930,1.28
1949,1.29
1969,1.30
1988,1.32
2008,1.34
2028,1.38
2048,1.41
2069,1.44
2090,1.48
2111,1.51
2132,1.54
2153,1.56
2175,1.57
2196,1.59
2218,1.60
2240,1.62
2263,1.64
2285,1.64
2308,1.65
2331,1.68
2355,1.73
2378,1.78
2402,1.83
2426,1.87
2450,1.93
2475,1.99
2500,2.06
2525,2.13
2550,2.20
2575,2.26
2601,2.32
2627,2.36
2653,2.41
2680,2.46
2707,2.50
2734,2.53
2761,2.55
2789,2.58
2817,2.61
2845,2.62
2873,2.62
2902,2.61
2931,2.59
2960,2.56
2990,2.54
3020,2.50
3050,2.45
3080,2.40
3111,2.34
3142,2.28
3174,2.19
3206,2.09
3238,1.98
3270,1.87
3303,1.76
3336,1.63
3369,1.49
3403,1.36
3437,1.21
3471,1.05
3506,0.89
3541,0.72
3576,0.56
3612,0.40
3648,0.24
3685,0.09
3721,-0.08
3759,-0.23
3796,-0.39
3834,-0.57
3873,-0.77
3911,-0.96
3950,-1.15
3990,-1.37
4030,-1.59
4070,-1.81
4111,-2.00
4152,-2.14
4193,-2.22
4235,-2.21
4278,-2.13
4321,-1.94
4364,-1.63
4407,-1.23
4451,-0.74
4496,-0.17
4541,0.46
4586,1.15
4632,1.86
4679,2.58
4725,3.29
4773,3.98
4820,4.63
4868,5.22
4917,5.76
4966,6.27
5016,6.75
5066,7.19
5117,7.60
5168,7.99
5220,8.36
5272,8.70
5325,9.02
5378,9.30
5432,9.55
5486,9.79
5541,9.99
5596,10.15
5652,10.26
5709,10.34
5766,10.38
5823,10.39
5882,10.38
5940,10.32
6000,10.24
6060,10.14
6120,10.01
6182,9.86
6244,9.66
6306,9.45
6369,9.20
6433,8.92
6497,8.60
6562,8.22
6628,7.78
6694,7.30
6761,6.75
6828,6.13
6897,5.48
6966,4.81
7035,4.12
7106,3.42
7177,2.70
7249,1.99
7321,1.29
7394,0.61
7468,-0.04
7543,-0.68
7618,-1.28
7694,-1.85
7771,-2.41
7849,-2.96
7928,-3.53
8007,-4.10
8087,-4.67
8168,-5.22
8250,-5.76
8332,-6.26
8415,-6.69
8499,-7.05
8584,-7.31
8670,-7.47
8757,-7.51
8845,-7.44
8933,-7.25
9022,-6.96
9113,-6.58
9204,-6.12
9296,-5.58
9389,-5.02
9483,-4.45
9577,-3.87
9673,-3.31
9770,-2.77
9868,-2.28
9966,-1.81
10066,-1.39
10167,-1.02
10268,-0.67
10371,-0.36
10475,-0.07
10579,0.19
10685,0.42
10792,0.61
10900,0.77
11009,0.92
11119,1.04
11230,1.15
11343,1.24
11456,1.32
11571,1.39
11686,1.45
11803,1.50
11921,1.53
12040,1.57
12161,1.59
12282,1.60
12405,1.59
12529,1.56
12655,1.49
12781,1.40
12909,1.28
13038,1.12
13168,0.92
13300,0.71
13433,0.48
13567,0.22
13703,-0.06
13840,-0.36
13978,-0.70
14118,-1.06
14259,-1.45
14402,-1.88
14546,-2.33
14692,-2.81
14838,-3.31
14987,-3.83
15137,-4.34
15288,-4.85
15441,-5.34
15595,-5.80
15751,-6.22
15909,-6.60
16068,-6.92
16229,-7.18
16391,-7.38
16555,-7.53
16720,-7.63
16888,-7.70
17056,-7.75
17227,-7.77
17399,-7.80
17573,-7.85
17749,-7.97
17926,-8.15
18106,-8.40
18287,-8.80
18470,-9.26
18654,-9.78
18841,-10.38
19029,-11.03
19220,-11.75
19412,-12.54
19606,-13.39
19802,-14.31
20000,-15.30
