frequency,raw,smoothed,error,error_smoothed,equalization,parametric_eq,fixed_band_eq,equalized_raw,equalized_smoothed,target
20.00,3.25,3.26,-3.44,-3.44,3.43,2.77,1.20,6.69,6.69,6.69
20.20,3.30,3.30,-3.42,-3.42,3.42,2.77,1.24,6.73,6.72,6.72
20.40,3.34,3.34,-3.41,-3.41,3.41,2.76,1.27,6.76,6.75,6.75
20.61,3.38,3.38,-3.39,-3.40,3.40,2.75,1.31,6.78,6.78,6.77
20.81,3.41,3.42,-3.39,-3.38,3.38,2.75,1.35,6.80,6.80,6.80
21.02,3.45,3.45,-3.38,-3.37,3.37,2.74,1.39,6.82,6.82,6.83
21.23,3.49,3.49,-3.35,-3.35,3.35,2.73,1.44,6.84,6.84,6.84
21.44,3.52,3.52,-3.33,-3.33,3.33,2.72,1.48,6.85,6.85,6.85
21.66,3.55,3.55,-3.31,-3.30,3.30,2.71,1.53,6.86,6.86,6.86
21.87,3.58,3.58,-3.27,-3.28,3.28,2.71,1.57,6.86,6.86,6.86
22.09,3.61,3.61,-3.25,-3.25,3.25,2.70,1.62,6.87,6.87,6.87
22.31,3.64,3.64,-3.22,-3.22,3.22,2.69,1.67,6.87,6.87,6.87
22.54,3.67,3.67,-3.19,-3.20,3.19,2.68,1.72,6.87,6.87,6.87
22.76,3.69,3.70,-3.17,-3.17,3.17,2.67,1.77,6.86,6.86,6.87
22.99,3.72,3.72,-3.13,-3.14,3.14,2.66,1.82,6.86,6.86,6.86
23.22,3.74,3.74,-3.11,-3.11,3.11,2.66,1.88,6.86,6.86,6.85
23.45,3.76,3.77,-3.09,-3.08,3.09,2.65,1.93,6.85,6.86,6.85
23.69,3.79,3.79,-3.06,-3.06,3.07,2.64,1.99,6.86,6.86,6.85
23.92,3.81,3.81,-3.04,-3.05,3.05,2.63,2.05,6.86,6.86,6.85
24.16,3.82,3.83,-3.04,-3.03,3.03,2.62,2.10,6.85,6.85,6.86
24.40,3.84,3.84,-3.02,-3.01,3.01,2.61,2.16,6.85,6.85,6.86
24.65,3.86,3.86,-2.99,-2.99,2.99,2.60,2.22,6.85,6.85,6.85
24.89,3.88,3.88,-2.96,-2.97,2.97,2.59,2.28,6.85,6.85,6.85
25.14,3.90,3.90,-2.94,-2.94,2.94,2.58,2.34,6.85,6.85,6.85
25.39,3.92,3.92,-2.92,-2.92,2.92,2.57,2.40,6.85,6.85,6.85
25.65,3.94,3.94,-2.90,-2.90,2.90,2.56,2.46,6.84,6.84,6.85
25.91,3.96,3.96,-2.87,-2.88,2.88,2.55,2.52,6.84,6.84,6.84
26.16,3.98,3.98,-2.85,-2.85,2.86,2.54,2.58,6.84,6.84,6.83
26.43,3.99,4.00,-2.84,-2.83,2.84,2.52,2.64,6.83,6.83,6.83
26.69,4.01,4.01,-2.82,-2.82,2.82,2.51,2.70,6.83,6.83,6.83
26.96,4.03,4.03,-2.80,-2.80,2.79,2.50,2.76,6.83,6.83,6.83
27.23,4.05,4.05,-2.78,-2.78,2.77,2.49,2.81,6.83,6.83,6.83
27.50,4.07,4.07,-2.75,-2.75,2.75,2.48,2.87,6.83,6.82,6.83
27.77,4.08,4.09,-2.73,-2.73,2.73,2.47,2.92,6.81,6.82,6.82
28.05,4.10,4.10,-2.71,-2.71,2.71,2.45,2.97,6.81,6.81,6.81
28.33,4.12,4.12,-2.68,-2.69,2.69,2.44,3.01,6.81,6.81,6.80
28.62,4.13,4.14,-2.67,-2.66,2.67,2.43,3.05,6.80,6.80,6.80
28.90,4.15,4.15,-2.65,-2.64,2.64,2.41,3.09,6.80,6.80,6.80
29.19,4.17,4.17,-2.61,-2.62,2.62,2.40,3.13,6.80,6.79,6.79
29.48,4.18,4.19,-2.61,-2.60,2.60,2.39,3.16,6.79,6.79,6.80
29.78,4.20,4.20,-2.58,-2.58,2.58,2.37,3.18,6.79,6.79,6.78
30.08,4.21,4.22,-2.57,-2.57,2.56,2.36,3.20,6.78,6.78,6.78
30.38,4.23,4.23,-2.54,-2.54,2.54,2.35,3.22,6.78,6.77,6.77
30.68,4.24,4.24,-2.53,-2.52,2.52,2.33,3.22,6.77,6.77,6.77
30.99,4.25,4.26,-2.50,-2.50,2.50,2.32,3.23,6.76,6.76,6.76
31.30,4.27,4.27,-2.48,-2.49,2.48,2.30,3.23,6.76,6.75,6.75
31.61,4.28,4.28,-2.47,-2.46,2.46,2.29,3.22,6.75,6.75,6.75
31.93,4.29,4.30,-2.45,-2.44,2.44,2.27,3.21,6.74,6.74,6.74
32.24,4.31,4.31,-2.41,-2.42,2.42,2.26,3.19,6.74,6.73,6.73
32.57,4.32,4.32,-2.40,-2.40,2.40,2.24,3.16,6.73,6.73,6.73
32.89,4.33,4.34,-2.39,-2.38,2.38,2.22,3.14,6.72,6.72,6.72
33.22,4.35,4.35,-2.36,-2.36,2.36,2.21,3.10,6.71,6.71,6.71
33.55,4.36,4.37,-2.34,-2.34,2.34,2.19,3.06,6.70,6.71,6.71
33.89,4.38,4.38,-2.31,-2.32,2.32,2.17,3.02,6.70,6.70,6.69
34.23,4.39,4.39,-2.30,-2.29,2.29,2.16,2.97,6.69,6.69,6.69
34.57,4.40,4.41,-2.27,-2.27,2.27,2.14,2.92,6.68,6.68,6.68
34.92,4.42,4.42,-2.24,-2.25,2.25,2.12,2.87,6.67,6.67,6.67
35.27,4.43,4.44,-2.23,-2.22,2.22,2.10,2.81,6.66,6.66,6.66
35.62,4.45,4.45,-2.19,-2.20,2.20,2.09,2.75,6.65,6.65,6.65
35.97,4.46,4.47,-2.17,-2.17,2.17,2.07,2.69,6.63,6.64,6.63
36.33,4.48,4.49,-2.15,-2.14,2.14,2.05,2.63,6.63,6.63,6.63
36.70,4.50,4.50,-2.11,-2.11,2.12,2.03,2.56,6.62,6.62,6.62
37.06,4.52,4.52,-2.08,-2.09,2.09,2.01,2.50,6.61,6.61,6.60
37.43,4.53,4.54,-2.06,-2.06,2.06,1.99,2.43,6.59,6.60,6.60
37.81,4.55,4.55,-2.03,-2.03,2.03,1.97,2.36,6.58,6.58,6.58
38.19,4.57,4.57,-2.00,-2.00,2.00,1.95,2.29,6.57,6.57,6.57
38.57,4.59,4.59,-1.97,-1.97,1.97,1.93,2.22,6.56,6.56,6.57
38.95,4.61,4.61,-1.94,-1.93,1.93,1.91,2.15,6.55,6.55,6.55
39.34,4.63,4.64,-1.90,-1.90,1.90,1.89,2.08,6.53,6.54,6.54
39.74,4.66,4.66,-1.86,-1.86,1.87,1.87,2.01,6.53,6.53,6.52
40.14,4.68,4.68,-1.83,-1.83,1.83,1.84,1.95,6.51,6.51,6.51
40.54,4.70,4.71,-1.80,-1.79,1.80,1.82,1.88,6.50,6.50,6.50
40.94,4.73,4.73,-1.76,-1.76,1.76,1.80,1.81,6.49,6.49,6.49
41.35,4.75,4.76,-1.72,-1.72,1.72,1.78,1.74,6.48,6.48,6.48
41.76,4.78,4.78,-1.69,-1.69,1.69,1.75,1.68,6.47,6.47,6.47
42.18,4.81,4.81,-1.65,-1.65,1.65,1.73,1.61,6.46,6.46,6.46
42.60,4.84,4.84,-1.60,-1.61,1.60,1.70,1.55,6.45,6.45,6.45
43.03,4.87,4.87,-1.57,-1.56,1.56,1.68,1.49,6.43,6.43,6.44
43.46,4.90,4.90,-1.52,-1.52,1.51,1.66,1.43,6.42,6.42,6.42
43.90,4.93,4.94,-1.46,-1.46,1.46,1.63,1.37,6.40,6.40,6.40
44.33,4.97,4.97,-1.40,-1.41,1.41,1.60,1.31,6.38,6.38,6.38
44.78,5.00,5.00,-1.36,-1.36,1.36,1.58,1.25,6.36,6.36,6.36
45.23,5.03,5.04,-1.31,-1.30,1.31,1.55,1.19,6.34,6.34,6.34
45.68,5.07,5.07,-1.25,-1.25,1.25,1.53,1.13,6.33,6.33,6.32
46.13,5.11,5.11,-1.19,-1.20,1.20,1.50,1.08,6.31,6.31,6.30
46.60,5.14,5.15,-1.15,-1.14,1.15,1.47,1.02,6.29,6.29,6.29
47.06,5.18,5.18,-1.09,-1.09,1.09,1.44,0.97,6.28,6.27,6.28
47.53,5.21,5.22,-1.04,-1.04,1.04,1.42,0.92,6.25,6.25,6.26
48.01,5.25,5.25,-0.99,-0.99,0.98,1.39,0.87,6.23,6.23,6.25
48.49,5.28,5.29,-0.93,-0.93,0.92,1.36,0.82,6.21,6.21,6.21
48.97,5.32,5.32,-0.86,-0.86,0.86,1.33,0.77,6.19,6.18,6.18
49.46,5.35,5.36,-0.80,-0.80,0.80,1.30,0.72,6.16,6.16,6.15
49.96,5.39,5.39,-0.73,-0.74,0.74,1.27,0.67,6.13,6.13,6.12
50.46,5.42,5.42,-0.68,-0.68,0.68,1.24,0.63,6.10,6.10,6.11
50.96,5.45,5.46,-0.63,-0.62,0.62,1.21,0.58,6.08,6.08,6.09
51.47,5.49,5.49,-0.56,-0.57,0.57,1.18,0.54,6.06,6.06,6.05
51.99,5.52,5.52,-0.51,-0.51,0.51,1.14,0.49,6.04,6.03,6.03
52.51,5.55,5.55,-0.46,-0.46,0.46,1.11,0.45,6.01,6.01,6.01
53.03,5.57,5.58,-0.42,-0.41,0.41,1.08,0.41,5.98,5.99,5.99
53.56,5.60,5.60,-0.36,-0.36,0.36,1.05,0.37,5.96,5.96,5.97
54.10,5.63,5.63,-0.31,-0.31,0.31,1.01,0.32,5.94,5.94,5.94
54.64,5.65,5.65,-0.26,-0.26,0.26,0.98,0.28,5.91,5.92,5.91
55.18,5.67,5.67,-0.21,-0.21,0.21,0.94,0.24,5.89,5.89,5.89
55.74,5.69,5.69,-0.17,-0.17,0.17,0.91,0.21,5.86,5.86,5.86
56.29,5.71,5.71,-0.13,-0.12,0.12,0.87,0.17,5.84,5.84,5.84
56.86,5.73,5.73,-0.08,-0.08,0.08,0.84,0.13,5.82,5.82,5.81
57.42,5.75,5.75,-0.03,-0.04,0.04,0.80,0.09,5.80,5.79,5.79
58.00,5.76,5.77,-0.00,0.00,0.00,0.76,0.06,5.77,5.77,5.77
58.58,5.78,5.78,0.04,0.03,-0.03,0.73,0.02,5.75,5.75,5.75
59.16,5.79,5.79,0.07,0.07,-0.07,0.69,-0.01,5.72,5.72,5.73
59.76,5.80,5.80,0.10,0.10,-0.11,0.65,-0.05,5.70,5.70,5.71
60.35,5.81,5.81,0.14,0.14,-0.15,0.61,-0.08,5.67,5.67,5.67
60.96,5.82,5.82,0.17,0.18,-0.18,0.57,-0.11,5.64,5.64,5.65
61.57,5.83,5.83,0.23,0.22,-0.22,0.53,-0.15,5.61,5.61,5.61
62.18,5.83,5.84,0.26,0.26,-0.25,0.49,-0.18,5.58,5.58,5.57
62.80,5.84,5.84,0.29,0.30,-0.29,0.45,-0.21,5.55,5.55,5.55
63.43,5.84,5.84,0.33,0.33,-0.32,0.41,-0.24,5.52,5.52,5.51
64.07,5.84,5.84,0.36,0.36,-0.35,0.37,-0.27,5.49,5.49,5.49
64.71,5.84,5.84,0.38,0.38,-0.38,0.33,-0.30,5.46,5.46,5.46
65.35,5.84,5.84,0.41,0.41,-0.41,0.28,-0.33,5.43,5.43,5.43
66.01,5.84,5.84,0.44,0.43,-0.44,0.24,-0.36,5.41,5.40,5.41
66.67,5.83,5.84,0.46,0.46,-0.46,0.20,-0.39,5.37,5.38,5.38
67.33,5.83,5.83,0.49,0.49,-0.49,0.15,-0.42,5.35,5.35,5.35
68.01,5.83,5.83,0.52,0.51,-0.51,0.11,-0.45,5.32,5.32,5.32
68.69,5.82,5.82,0.54,0.54,-0.54,0.06,-0.48,5.29,5.29,5.29
69.37,5.81,5.82,0.56,0.56,-0.56,0.02,-0.50,5.25,5.26,5.25
70.07,5.81,5.81,0.59,0.59,-0.59,-0.03,-0.53,5.23,5.22,5.22
70.77,5.80,5.80,0.61,0.61,-0.61,-0.07,-0.56,5.19,5.19,5.20
71.48,5.79,5.79,0.63,0.63,-0.63,-0.12,-0.59,5.16,5.16,5.16
72.19,5.78,5.78,0.66,0.66,-0.66,-0.17,-0.62,5.13,5.13,5.13
72.91,5.77,5.77,0.68,0.68,-0.68,-0.21,-0.65,5.09,5.09,5.09
73.64,5.76,5.76,0.71,0.71,-0.71,-0.26,-0.68,5.06,5.06,5.06
74.38,5.75,5.75,0.73,0.73,-0.73,-0.31,-0.71,5.02,5.02,5.03
75.12,5.74,5.75,0.75,0.76,-0.76,-0.36,-0.74,4.99,4.99,4.99
75.87,5.74,5.74,0.78,0.78,-0.78,-0.41,-0.77,4.96,4.96,4.96
76.63,5.73,5.73,0.80,0.81,-0.80,-0.46,-0.80,4.93,4.93,4.93
77.40,5.72,5.72,0.83,0.83,-0.83,-0.51,-0.83,4.90,4.90,4.90
78.17,5.71,5.71,0.86,0.85,-0.85,-0.56,-0.87,4.86,4.86,4.86
78.95,5.70,5.70,0.87,0.87,-0.87,-0.61,-0.90,4.83,4.83,4.83
79.74,5.69,5.69,0.89,0.89,-0.90,-0.66,-0.94,4.80,4.80,4.80
80.54,5.68,5.68,0.92,0.92,-0.92,-0.71,-0.97,4.77,4.77,4.77
81.35,5.67,5.67,0.94,0.94,-0.94,-0.76,-1.01,4.73,4.73,4.73
82.16,5.66,5.66,0.97,0.96,-0.97,-0.81,-1.04,4.70,4.70,4.70
82.98,5.65,5.65,0.98,0.99,-0.99,-0.86,-1.08,4.66,4.66,4.67
83.81,5.64,5.64,1.02,1.02,-1.02,-0.91,-1.12,4.63,4.63,4.62
84.65,5.63,5.63,1.05,1.04,-1.04,-0.96,-1.16,4.59,4.59,4.58
85.50,5.62,5.62,1.07,1.07,-1.07,-1.01,-1.20,4.55,4.55,4.56
86.35,5.61,5.61,1.10,1.10,-1.10,-1.06,-1.24,4.52,4.52,4.52
87.22,5.60,5.60,1.13,1.12,-1.13,-1.11,-1.28,4.48,4.48,4.48
88.09,5.59,5.59,1.16,1.15,-1.16,-1.16,-1.33,4.44,4.44,4.44
88.97,5.58,5.59,1.18,1.19,-1.19,-1.21,-1.37,4.40,4.40,4.41
89.86,5.58,5.58,1.22,1.22,-1.22,-1.26,-1.42,4.36,4.36,4.36
90.76,5.57,5.57,1.26,1.25,-1.25,-1.31,-1.46,4.32,4.32,4.31
91.66,5.56,5.56,1.28,1.29,-1.29,-1.36,-1.51,4.28,4.28,4.28
92.58,5.55,5.55,1.33,1.32,-1.32,-1.41,-1.56,4.23,4.23,4.23
93.51,5.54,5.54,1.35,1.35,-1.36,-1.46,-1.61,4.19,4.19,4.19
94.44,5.53,5.54,1.38,1.39,-1.39,-1.50,-1.66,4.14,4.14,4.15
95.39,5.53,5.53,1.43,1.43,-1.43,-1.55,-1.71,4.10,4.10,4.10
96.34,5.52,5.52,1.47,1.47,-1.47,-1.60,-1.77,4.06,4.06,4.05
97.30,5.51,5.51,1.51,1.51,-1.50,-1.64,-1.82,4.01,4.01,4.00
98.28,5.50,5.50,1.54,1.55,-1.54,-1.69,-1.87,3.96,3.96,3.96
99.26,5.49,5.49,1.58,1.58,-1.58,-1.73,-1.93,3.91,3.91,3.91
100.25,5.48,5.48,1.62,1.62,-1.62,-1.77,-1.98,3.87,3.87,3.87
101.25,5.47,5.47,1.65,1.65,-1.65,-1.81,-2.04,3.82,3.82,3.82
102.27,5.46,5.46,1.69,1.69,-1.69,-1.85,-2.10,3.77,3.77,3.78
103.29,5.45,5.45,1.73,1.73,-1.73,-1.89,-2.15,3.73,3.73,3.72
104.32,5.44,5.45,1.76,1.77,-1.77,-1.93,-2.21,3.68,3.68,3.68
105.37,5.44,5.44,1.81,1.80,-1.80,-1.97,-2.27,3.64,3.64,3.64
106.42,5.43,5.43,1.84,1.84,-1.84,-2.00,-2.32,3.59,3.59,3.59
107.48,5.42,5.42,1.88,1.88,-1.88,-2.04,-2.38,3.54,3.54,3.54
108.56,5.41,5.41,1.93,1.92,-1.92,-2.07,-2.43,3.49,3.49,3.49
109.64,5.40,5.40,1.96,1.96,-1.96,-2.11,-2.49,3.44,3.44,3.44
110.74,5.39,5.39,2.00,2.00,-2.00,-2.14,-2.54,3.39,3.39,3.40
111.85,5.38,5.38,2.03,2.04,-2.04,-2.18,-2.60,3.34,3.34,3.35
112.97,5.37,5.37,2.09,2.08,-2.08,-2.22,-2.65,3.29,3.29,3.28
114.10,5.36,5.36,2.12,2.13,-2.13,-2.25,-2.70,3.24,3.23,3.24
115.24,5.35,5.35,2.17,2.17,-2.17,-2.30,-2.74,3.18,3.18,3.18
116.39,5.34,5.35,2.21,2.22,-2.22,-2.34,-2.79,3.13,3.13,3.13
117.55,5.34,5.34,2.27,2.26,-2.26,-2.38,-2.83,3.08,3.08,3.08
118.73,5.33,5.33,2.31,2.31,-2.30,-2.43,-2.87,3.03,3.03,3.02
119.92,5.32,5.33,2.34,2.35,-2.35,-2.48,-2.91,2.98,2.98,2.98
121.12,5.31,5.32,2.39,2.39,-2.39,-2.54,-2.94,2.92,2.93,2.93
122.33,5.31,5.31,2.44,2.43,-2.43,-2.60,-2.97,2.88,2.88,2.87
123.55,5.30,5.31,2.47,2.48,-2.48,-2.65,-3.00,2.83,2.83,2.83
124.79,5.30,5.30,2.52,2.52,-2.52,-2.71,-3.03,2.78,2.78,2.78
126.03,5.29,5.30,2.56,2.56,-2.57,-2.78,-3.05,2.73,2.73,2.73
127.29,5.29,5.29,2.61,2.61,-2.61,-2.84,-3.07,2.68,2.68,2.68
128.57,5.28,5.29,2.66,2.66,-2.66,-2.90,-3.09,2.62,2.63,2.62
129.85,5.28,5.28,2.71,2.71,-2.71,-2.97,-3.10,2.58,2.58,2.57
131.15,5.28,5.28,2.76,2.76,-2.76,-3.03,-3.12,2.53,2.53,2.52
132.46,5.28,5.28,2.81,2.81,-2.80,-3.09,-3.12,2.48,2.48,2.48
133.79,5.28,5.29,2.84,2.85,-2.85,-3.15,-3.13,2.43,2.43,2.44
135.12,5.29,5.29,2.91,2.90,-2.90,-3.21,-3.14,2.39,2.39,2.38
136.48,5.29,5.30,2.94,2.95,-2.95,-3.27,-3.14,2.34,2.34,2.35
137.84,5.30,5.30,3.00,3.00,-3.00,-3.33,-3.14,2.30,2.30,2.31
139.22,5.31,5.31,3.06,3.06,-3.05,-3.38,-3.14,2.26,2.26,2.25
140.61,5.32,5.33,3.12,3.11,-3.11,-3.43,-3.14,2.22,2.22,2.21
142.02,5.34,5.34,3.16,3.16,-3.16,-3.48,-3.14,2.18,2.18,2.19
143.44,5.35,5.36,3.21,3.21,-3.21,-3.53,-3.14,2.14,2.14,2.15
144.87,5.37,5.37,3.27,3.27,-3.27,-3.58,-3.14,2.11,2.11,2.11
146.32,5.39,5.39,3.33,3.32,-3.32,-3.62,-3.13,2.07,2.07,2.07
147.78,5.41,5.41,3.38,3.38,-3.38,-3.66,-3.13,2.03,2.03,2.04
149.26,5.43,5.43,3.44,3.44,-3.44,-3.70,-3.13,1.99,1.99,2.00
150.75,5.45,5.46,3.50,3.50,-3.50,-3.74,-3.13,1.95,1.95,1.95
152.26,5.48,5.48,3.57,3.57,-3.56,-3.77,-3.13,1.92,1.92,1.92
153.78,5.50,5.51,3.62,3.63,-3.63,-3.81,-3.14,1.88,1.88,1.88
155.32,5.53,5.53,3.70,3.69,-3.69,-3.84,-3.14,1.84,1.84,1.84
156.88,5.55,5.56,3.75,3.76,-3.76,-3.87,-3.14,1.80,1.80,1.80
158.44,5.58,5.58,3.83,3.82,-3.82,-3.90,-3.15,1.76,1.76,1.76
160.03,5.60,5.61,3.89,3.89,-3.89,-3.92,-3.16,1.71,1.72,1.72
161.63,5.63,5.63,3.96,3.96,-3.95,-3.95,-3.17,1.68,1.68,1.67
163.24,5.65,5.66,4.02,4.02,-4.02,-3.97,-3.18,1.64,1.64,1.63
164.88,5.68,5.68,4.08,4.08,-4.08,-3.99,-3.20,1.60,1.60,1.60
166.53,5.70,5.71,4.14,4.14,-4.14,-4.01,-3.22,1.56,1.56,1.56
168.19,5.73,5.73,4.21,4.20,-4.21,-4.03,-3.24,1.53,1.53,1.53
169.87,5.75,5.76,4.27,4.27,-4.27,-4.04,-3.26,1.49,1.49,1.49
171.57,5.78,5.78,4.33,4.33,-4.33,-4.06,-3.29,1.46,1.45,1.45
173.29,5.80,5.80,4.39,4.38,-4.39,-4.07,-3.32,1.42,1.41,1.42
175.02,5.81,5.82,4.43,4.44,-4.44,-4.08,-3.35,1.37,1.38,1.38
176.77,5.83,5.83,4.50,4.50,-4.50,-4.09,-3.38,1.34,1.33,1.34
178.54,5.84,5.84,4.55,4.55,-4.55,-4.09,-3.42,1.30,1.30,1.29
180.32,5.85,5.86,4.60,4.60,-4.60,-4.10,-3.46,1.26,1.26,1.26
182.13,5.86,5.86,4.64,4.64,-4.64,-4.10,-3.50,1.22,1.22,1.23
183.95,5.86,5.86,4.68,4.68,-4.68,-4.11,-3.54,1.19,1.19,1.18
185.79,5.86,5.86,4.71,4.71,-4.71,-4.11,-3.59,1.15,1.15,1.15
187.65,5.85,5.86,4.74,4.74,-4.74,-4.11,-3.64,1.11,1.12,1.11
189.52,5.84,5.85,4.76,4.76,-4.76,-4.10,-3.69,1.08,1.08,1.08
191.42,5.83,5.83,4.78,4.78,-4.78,-4.10,-3.75,1.06,1.05,1.05
193.33,5.81,5.81,4.79,4.79,-4.79,-4.09,-3.80,1.03,1.02,1.02
195.27,5.78,5.79,4.79,4.79,-4.79,-4.08,-3.86,0.99,0.99,0.99
197.22,5.75,5.76,4.79,4.79,-4.79,-4.07,-3.92,0.96,0.97,0.97
199.19,5.72,5.72,4.79,4.78,-4.78,-4.06,-3.98,0.94,0.94,0.93
201.18,5.68,5.68,4.77,4.77,-4.77,-4.05,-4.05,0.92,0.92,0.91
203.19,5.64,5.65,4.75,4.75,-4.75,-4.04,-4.11,0.89,0.90,0.90
205.23,5.60,5.60,4.73,4.72,-4.73,-4.02,-4.17,0.88,0.87,0.87
207.28,5.56,5.56,4.70,4.70,-4.70,-4.00,-4.24,0.86,0.86,0.87
209.35,5.51,5.52,4.67,4.68,-4.68,-3.98,-4.30,0.84,0.84,0.84
211.44,5.47,5.47,4.66,4.65,-4.65,-3.96,-4.36,0.82,0.83,0.82
213.56,5.43,5.43,4.62,4.62,-4.62,-3.94,-4.43,0.81,0.81,0.81
215.69,5.39,5.39,4.58,4.59,-4.59,-3.91,-4.49,0.80,0.80,0.81
217.85,5.35,5.36,4.56,4.56,-4.56,-3.88,-4.54,0.79,0.79,0.80
220.03,5.32,5.32,4.54,4.53,-4.53,-3.86,-4.60,0.79,0.79,0.79
222.23,5.28,5.29,4.51,4.51,-4.50,-3.83,-4.65,0.78,0.78,0.77
224.45,5.25,5.25,4.47,4.48,-4.47,-3.79,-4.70,0.78,0.78,0.78
226.70,5.22,5.22,4.44,4.44,-4.44,-3.76,-4.74,0.78,0.78,0.78
228.96,5.19,5.19,4.41,4.41,-4.41,-3.72,-4.78,0.78,0.78,0.78
231.25,5.16,5.16,4.37,4.37,-4.38,-3.69,-4.81,0.79,0.78,0.79
233.57,5.12,5.13,4.33,4.34,-4.34,-3.65,-4.83,0.78,0.79,0.79
235.90,5.09,5.09,4.30,4.30,-4.30,-3.61,-4.85,0.79,0.79,0.79
238.26,5.06,5.06,4.27,4.27,-4.26,-3.56,-4.86,0.80,0.80,0.79
240.64,5.02,5.02,4.22,4.22,-4.22,-3.52,-4.85,0.81,0.81,0.80
243.05,4.98,4.98,4.17,4.17,-4.17,-3.47,-4.85,0.82,0.82,0.81
245.48,4.93,4.94,4.11,4.11,-4.11,-3.42,-4.83,0.82,0.82,0.82
247.93,4.88,4.89,4.05,4.05,-4.05,-3.37,-4.80,0.83,0.83,0.84
250.41,4.83,4.83,3.99,3.98,-3.98,-3.32,-4.76,0.85,0.85,0.84
252.92,4.77,4.78,3.91,3.91,-3.91,-3.26,-4.71,0.86,0.86,0.86
255.45,4.71,4.72,3.83,3.84,-3.84,-3.20,-4.65,0.88,0.88,0.88
258.00,4.65,4.65,3.76,3.75,-3.76,-3.14,-4.58,0.90,0.90,0.90
260.58,4.58,4.58,3.67,3.67,-3.67,-3.08,-4.50,0.91,0.91,0.91
263.19,4.51,4.51,3.58,3.58,-3.58,-3.02,-4.42,0.93,0.93,0.93
265.82,4.43,4.44,3.49,3.49,-3.49,-2.95,-4.32,0.95,0.95,0.95
268.48,4.36,4.36,3.39,3.39,-3.39,-2.88,-4.22,0.98,0.97,0.97
271.16,4.27,4.28,3.28,3.29,-3.29,-2.81,-4.10,0.99,0.99,1.00
273.87,4.19,4.19,3.18,3.18,-3.18,-2.74,-3.98,1.01,1.01,1.01
276.61,4.10,4.10,3.07,3.07,-3.08,-2.66,-3.86,1.03,1.03,1.03
279.38,4.01,4.02,2.96,2.97,-2.97,-2.58,-3.72,1.05,1.05,1.05
282.17,3.92,3.92,2.86,2.85,-2.85,-2.50,-3.58,1.07,1.07,1.06
284.99,3.82,3.82,2.73,2.74,-2.73,-2.41,-3.44,1.09,1.09,1.09
287.84,3.72,3.72,2.62,2.62,-2.61,-2.33,-3.29,1.11,1.11,1.10
290.72,3.61,3.62,2.48,2.49,-2.49,-2.24,-3.14,1.12,1.13,1.13
293.63,3.51,3.51,2.37,2.36,-2.36,-2.14,-2.98,1.15,1.15,1.15
296.57,3.39,3.40,2.22,2.23,-2.23,-2.05,-2.82,1.16,1.17,1.17
299.53,3.28,3.28,2.10,2.10,-2.09,-1.95,-2.66,1.19,1.19,1.19
302.53,3.16,3.16,1.96,1.95,-1.95,-1.85,-2.50,1.21,1.21,1.20
305.55,3.04,3.05,1.80,1.81,-1.81,-1.74,-2.33,1.23,1.24,1.24
308.61,2.92,2.92,1.67,1.67,-1.66,-1.64,-2.16,1.26,1.26,1.26
311.69,2.80,2.80,1.52,1.51,-1.52,-1.52,-1.99,1.29,1.28,1.28
314.81,2.67,2.67,1.36,1.36,-1.37,-1.41,-1.83,1.31,1.31,1.32
317.96,2.54,2.55,1.21,1.21,-1.21,-1.29,-1.65,1.33,1.33,1.34
321.14,2.41,2.41,1.06,1.06,-1.06,-1.17,-1.48,1.35,1.35,1.35
324.35,2.28,2.28,0.91,0.91,-0.91,-1.04,-1.31,1.38,1.37,1.37
327.59,2.14,2.15,0.75,0.75,-0.75,-0.91,-1.14,1.39,1.39,1.40
330.87,2.01,2.01,0.60,0.60,-0.60,-0.78,-0.97,1.42,1.41,1.41
334.18,1.87,1.87,0.44,0.44,-0.44,-0.64,-0.79,1.43,1.43,1.43
337.52,1.73,1.73,0.29,0.28,-0.29,-0.50,-0.62,1.45,1.45,1.45
340.90,1.59,1.59,0.12,0.12,-0.13,-0.35,-0.45,1.47,1.47,1.48
344.30,1.45,1.46,-0.04,-0.04,0.03,-0.20,-0.28,1.49,1.49,1.49
347.75,1.31,1.32,-0.20,-0.20,0.20,-0.05,-0.10,1.51,1.52,1.51
351.23,1.17,1.17,-0.35,-0.36,0.37,0.11,0.07,1.54,1.54,1.53
354.74,1.01,1.01,-0.53,-0.53,0.54,0.27,0.24,1.56,1.56,1.55
358.28,0.84,0.85,-0.72,-0.72,0.72,0.43,0.42,1.57,1.57,1.56
361.87,0.67,0.67,-0.91,-0.91,0.90,0.60,0.59,1.58,1.58,1.58
365.49,0.49,0.50,-1.10,-1.09,1.09,0.77,0.77,1.58,1.59,1.59
369.14,0.32,0.32,-1.27,-1.28,1.28,0.94,0.94,1.60,1.60,1.60
372.83,0.15,0.15,-1.46,-1.46,1.46,1.12,1.11,1.62,1.62,1.62
376.56,-0.02,-0.02,-1.64,-1.65,1.65,1.30,1.29,1.63,1.63,1.62
380.33,-0.19,-0.19,-1.84,-1.83,1.83,1.48,1.46,1.65,1.65,1.65
384.13,-0.36,-0.35,-2.02,-2.01,2.01,1.66,1.64,1.66,1.66,1.66
387.97,-0.52,-0.52,-2.19,-2.19,2.19,1.84,1.81,1.67,1.67,1.67
391.85,-0.68,-0.68,-2.35,-2.36,2.36,2.03,1.98,1.69,1.68,1.68
395.77,-0.84,-0.84,-2.53,-2.53,2.53,2.21,2.16,1.69,1.69,1.70
399.73,-0.99,-0.99,-2.69,-2.69,2.69,2.39,2.33,1.71,1.70,1.71
403.72,-1.14,-1.13,-2.85,-2.85,2.85,2.56,2.50,1.71,1.71,1.71
407.76,-1.27,-1.27,-2.99,-2.99,2.99,2.73,2.67,1.73,1.72,1.72
411.84,-1.40,-1.40,-3.14,-3.13,3.13,2.90,2.84,1.74,1.74,1.74
415.96,-1.52,-1.52,-3.27,-3.26,3.26,3.06,3.01,1.75,1.75,1.75
420.12,-1.63,-1.63,-3.39,-3.39,3.38,3.21,3.18,1.76,1.76,1.76
424.32,-1.73,-1.73,-3.49,-3.49,3.49,3.35,3.34,1.77,1.77,1.77
428.56,-1.82,-1.82,-3.59,-3.59,3.59,3.48,3.50,1.78,1.78,1.78
432.85,-1.90,-1.90,-3.68,-3.68,3.68,3.61,3.66,1.78,1.79,1.79
437.18,-1.97,-1.97,-3.76,-3.77,3.76,3.72,3.81,1.79,1.79,1.79
441.55,-2.03,-2.03,-3.84,-3.84,3.83,3.82,3.96,1.81,1.80,1.81
445.96,-2.09,-2.08,-3.91,-3.90,3.90,3.92,4.11,1.81,1.82,1.82
450.42,-2.12,-2.12,-3.95,-3.96,3.96,4.00,4.25,1.84,1.84,1.83
454.93,-2.16,-2.16,-4.01,-4.01,4.01,4.07,4.38,1.86,1.86,1.85
459.48,-2.20,-2.19,-4.06,-4.06,4.07,4.12,4.50,1.87,1.87,1.86
464.07,-2.23,-2.23,-4.11,-4.11,4.12,4.17,4.62,1.89,1.89,1.88
468.71,-2.27,-2.27,-4.16,-4.16,4.17,4.22,4.73,1.90,1.90,1.90
473.40,-2.31,-2.30,-4.21,-4.21,4.21,4.25,4.83,1.91,1.91,1.91
478.13,-2.34,-2.34,-4.26,-4.26,4.26,4.27,4.92,1.92,1.92,1.93
482.91,-2.36,-2.36,-4.29,-4.30,4.30,4.30,5.00,1.94,1.94,1.94
487.74,-2.39,-2.38,-4.34,-4.34,4.33,4.31,5.07,1.95,1.95,1.96
492.62,-2.40,-2.40,-4.37,-4.37,4.36,4.32,5.13,1.97,1.97,1.98
497.55,-2.41,-2.41,-4.39,-4.39,4.39,4.33,5.18,1.98,1.98,1.98
502.52,-2.41,-2.41,-4.41,-4.41,4.41,4.33,5.22,2.00,2.00,2.00
507.55,-2.41,-2.40,-4.42,-4.42,4.42,4.33,5.25,2.01,2.02,2.01
512.62,-2.40,-2.40,-4.43,-4.43,4.43,4.34,5.27,2.04,2.04,2.03
517.75,-2.39,-2.39,-4.44,-4.44,4.44,4.34,5.28,2.06,2.05,2.05
522.93,-2.39,-2.38,-4.46,-4.45,4.45,4.34,5.27,2.07,2.07,2.07
528.16,-2.38,-2.38,-4.46,-4.46,4.46,4.34,5.26,2.09,2.09,2.08
533.44,-2.37,-2.37,-4.47,-4.47,4.48,4.33,5.24,2.11,2.11,2.10
538.77,-2.37,-2.37,-4.49,-4.49,4.49,4.33,5.21,2.12,2.12,2.12
544.16,-2.37,-2.37,-4.51,-4.50,4.51,4.33,5.18,2.14,2.14,2.14
549.60,-2.37,-2.37,-4.53,-4.52,4.52,4.34,5.13,2.16,2.16,2.16
555.10,-2.37,-2.37,-4.54,-4.54,4.54,4.34,5.08,2.17,2.17,2.17
