frequency,raw,smoothed,error,error_smoothed,equalization,parametric_eq,fixed_band_eq,equalized_raw,equalized_smoothed,target
20.00,3.12,3.12,-4.00,-4.00,4.00,3.59,1.50,7.12,7.11,7.12
20.20,3.14,3.14,-3.98,-3.97,3.97,3.59,1.55,7.11,7.12,7.12
20.40,3.17,3.17,-3.95,-3.95,3.95,3.59,1.59,7.12,7.12,7.11
20.61,3.19,3.19,-3.93,-3.93,3.93,3.58,1.64,7.12,7.12,7.11
20.81,3.21,3.21,-3.90,-3.90,3.90,3.58,1.69,7.11,7.11,7.11
21.02,3.23,3.23,-3.88,-3.88,3.88,3.57,1.74,7.11,7.11,7.11
21.23,3.25,3.25,-3.86,-3.86,3.86,3.57,1.79,7.11,7.11,7.11
21.44,3.27,3.27,-3.84,-3.84,3.84,3.57,1.85,7.11,7.11,7.11
21.66,3.29,3.29,-3.82,-3.82,3.82,3.56,1.90,7.11,7.11,7.11
21.87,3.31,3.31,-3.80,-3.80,3.80,3.56,1.96,7.11,7.11,7.11
22.09,3.33,3.33,-3.78,-3.78,3.78,3.55,2.01,7.11,7.11,7.11
22.31,3.35,3.35,-3.76,-3.76,3.76,3.55,2.07,7.11,7.11,7.11
22.54,3.36,3.36,-3.75,-3.74,3.74,3.54,2.14,7.10,7.11,7.11
22.76,3.38,3.38,-3.73,-3.73,3.72,3.54,2.20,7.10,7.11,7.11
22.99,3.40,3.40,-3.71,-3.71,3.71,3.53,2.26,7.11,7.10,7.10
23.22,3.42,3.42,-3.68,-3.69,3.69,3.53,2.33,7.11,7.10,7.10
23.45,3.43,3.43,-3.67,-3.67,3.67,3.52,2.39,7.10,7.10,7.10
23.69,3.45,3.45,-3.65,-3.65,3.65,3.52,2.46,7.10,7.10,7.10
23.92,3.47,3.47,-3.63,-3.63,3.63,3.51,2.53,7.10,7.10,7.10
24.16,3.49,3.49,-3.61,-3.61,3.61,3.51,2.60,7.10,7.10,7.10
24.40,3.50,3.50,-3.60,-3.59,3.60,3.50,2.68,7.09,7.10,7.10
24.65,3.52,3.52,-3.58,-3.58,3.58,3.50,2.75,7.10,7.10,7.10
24.89,3.54,3.54,-3.56,-3.56,3.56,3.49,2.82,7.10,7.10,7.10
25.14,3.55,3.55,-3.55,-3.54,3.54,3.49,2.90,7.09,7.09,7.09
25.39,3.57,3.57,-3.52,-3.53,3.53,3.48,2.97,7.10,7.09,7.09
25.65,3.58,3.58,-3.51,-3.51,3.51,3.47,3.05,7.09,7.09,7.09
25.91,3.60,3.60,-3.49,-3.49,3.50,3.47,3.12,7.09,7.09,7.09
26.16,3.61,3.61,-3.48,-3.48,3.48,3.46,3.20,7.09,7.09,7.09
26.43,3.62,3.62,-3.47,-3.47,3.46,3.45,3.27,7.08,7.09,7.09
26.69,3.63,3.63,-3.46,-3.45,3.45,3.45,3.34,7.08,7.08,7.09
26.96,3.65,3.65,-3.43,-3.44,3.43,3.44,3.41,7.08,7.08,7.08
27.23,3.66,3.66,-3.42,-3.42,3.42,3.43,3.48,7.08,7.08,7.08
27.50,3.68,3.68,-3.40,-3.40,3.41,3.43,3.55,7.09,7.08,7.08
27.77,3.69,3.69,-3.39,-3.39,3.39,3.42,3.62,7.08,7.08,7.08
28.05,3.70,3.70,-3.38,-3.38,3.38,3.41,3.68,7.08,7.08,7.08
28.33,3.71,3.71,-3.36,-3.36,3.36,3.41,3.74,7.07,7.07,7.07
28.62,3.72,3.72,-3.35,-3.35,3.35,3.40,3.80,7.07,7.07,7.07
28.90,3.73,3.73,-3.34,-3.34,3.34,3.39,3.85,7.07,7.07,7.07
29.19,3.74,3.74,-3.33,-3.33,3.32,3.38,3.90,7.06,7.06,7.07
29.48,3.75,3.75,-3.32,-3.31,3.31,3.37,3.94,7.06,7.06,7.06
29.78,3.77,3.77,-3.29,-3.30,3.30,3.37,3.98,7.07,7.06,7.06
30.08,3.78,3.78,-3.28,-3.28,3.28,3.36,4.01,7.06,7.06,7.06
30.38,3.79,3.79,-3.27,-3.27,3.27,3.35,4.04,7.06,7.06,7.06
30.68,3.80,3.80,-3.25,-3.25,3.26,3.34,4.06,7.06,7.06,7.05
30.99,3.81,3.81,-3.24,-3.24,3.24,3.33,4.08,7.05,7.05,7.05
31.30,3.82,3.82,-3.23,-3.23,3.23,3.32,4.09,7.05,7.05,7.05
31.61,3.82,3.82,-3.23,-3.22,3.22,3.31,4.10,7.04,7.04,7.04
31.93,3.83,3.83,-3.21,-3.21,3.21,3.30,4.09,7.04,7.04,7.04
32.24,3.84,3.84,-3.20,-3.20,3.20,3.29,4.09,7.04,7.03,7.04
32.57,3.85,3.85,-3.19,-3.18,3.18,3.28,4.07,7.03,7.03,7.03
32.89,3.86,3.86,-3.17,-3.17,3.17,3.27,4.06,7.03,7.03,7.03
33.22,3.88,3.88,-3.15,-3.15,3.15,3.26,4.03,7.03,7.03,7.03
33.55,3.89,3.89,-3.13,-3.13,3.14,3.25,4.00,7.03,7.03,7.02
33.89,3.90,3.90,-3.12,-3.12,3.12,3.24,3.97,7.02,7.02,7.02
34.23,3.91,3.91,-3.11,-3.11,3.11,3.23,3.93,7.01,7.01,7.01
34.57,3.92,3.92,-3.09,-3.09,3.09,3.22,3.89,7.01,7.01,7.01
34.92,3.93,3.93,-3.08,-3.08,3.08,3.21,3.85,7.00,7.00,7.01
35.27,3.94,3.94,-3.06,-3.06,3.06,3.20,3.80,7.00,7.00,7.00
35.62,3.95,3.95,-3.05,-3.05,3.05,3.18,3.76,7.00,7.00,7.00
35.97,3.96,3.96,-3.03,-3.03,3.03,3.17,3.70,6.99,6.99,6.99
36.33,3.97,3.97,-3.02,-3.02,3.02,3.16,3.65,6.99,6.99,6.99
36.70,3.97,3.97,-3.01,-3.01,3.01,3.15,3.60,6.98,6.98,6.98
37.06,3.98,3.98,-3.00,-3.00,3.00,3.13,3.54,6.97,6.97,6.97
37.43,3.99,3.98,-2.98,-2.98,2.98,3.12,3.49,6.97,6.97,6.97
37.81,3.99,3.99,-2.97,-2.97,2.97,3.11,3.43,6.96,6.96,6.96
38.19,4.00,4.00,-2.96,-2.96,2.96,3.09,3.38,6.96,6.96,6.96
38.57,4.01,4.00,-2.94,-2.95,2.94,3.08,3.33,6.95,6.95,6.95
38.95,4.01,4.01,-2.93,-2.93,2.93,3.07,3.27,6.94,6.94,6.94
39.34,4.02,4.02,-2.92,-2.92,2.92,3.05,3.22,6.94,6.94,6.94
39.74,4.03,4.02,-2.90,-2.90,2.90,3.04,3.17,6.93,6.93,6.93
40.14,4.03,4.03,-2.89,-2.89,2.89,3.02,3.12,6.92,6.92,6.92
40.54,4.04,4.04,-2.87,-2.87,2.87,3.01,3.07,6.91,6.91,6.91
40.94,4.05,4.05,-2.86,-2.86,2.86,2.99,3.02,6.91,6.91,6.91
41.35,4.05,4.05,-2.85,-2.84,2.85,2.97,2.98,6.90,6.90,6.90
41.76,4.06,4.06,-2.83,-2.83,2.83,2.96,2.94,6.89,6.89,6.89
42.18,4.06,4.06,-2.82,-2.82,2.82,2.94,2.90,6.88,6.88,6.88
42.60,4.07,4.07,-2.80,-2.80,2.80,2.92,2.86,6.87,6.87,6.87
43.03,4.07,4.07,-2.79,-2.79,2.79,2.91,2.82,6.86,6.86,6.86
43.46,4.08,4.08,-2.77,-2.77,2.77,2.89,2.78,6.85,6.85,6.85
43.90,4.08,4.08,-2.76,-2.76,2.76,2.87,2.75,6.84,6.84,6.84
44.33,4.09,4.09,-2.74,-2.74,2.74,2.85,2.72,6.83,6.83,6.83
44.78,4.09,4.09,-2.73,-2.73,2.73,2.83,2.69,6.81,6.82,6.82
45.23,4.10,4.10,-2.71,-2.71,2.71,2.81,2.67,6.81,6.81,6.81
45.68,4.10,4.10,-2.69,-2.69,2.69,2.79,2.64,6.79,6.79,6.79
46.13,4.11,4.11,-2.67,-2.67,2.67,2.77,2.62,6.78,6.78,6.78
46.60,4.11,4.11,-2.66,-2.66,2.66,2.75,2.60,6.77,6.77,6.77
47.06,4.12,4.12,-2.64,-2.64,2.64,2.73,2.58,6.76,6.76,6.76
47.53,4.12,4.12,-2.62,-2.62,2.62,2.71,2.57,6.74,6.74,6.74
48.01,4.12,4.12,-2.61,-2.60,2.60,2.69,2.55,6.72,6.73,6.73
48.49,4.13,4.12,-2.58,-2.59,2.59,2.67,2.54,6.72,6.71,6.71
48.97,4.13,4.13,-2.57,-2.57,2.57,2.64,2.53,6.70,6.70,6.70
49.46,4.13,4.13,-2.55,-2.55,2.55,2.62,2.52,6.68,6.68,6.68
49.96,4.14,4.13,-2.53,-2.53,2.53,2.60,2.51,6.67,6.66,6.66
50.46,4.14,4.14,-2.51,-2.51,2.51,2.57,2.51,6.65,6.65,6.65
50.96,4.14,4.14,-2.49,-2.49,2.49,2.55,2.50,6.63,6.63,6.63
51.47,4.15,4.14,-2.46,-2.47,2.47,2.52,2.50,6.62,6.61,6.61
51.99,4.15,4.15,-2.44,-2.44,2.44,2.50,2.49,6.59,6.59,6.59
52.51,4.15,4.15,-2.43,-2.42,2.42,2.47,2.49,6.57,6.58,6.57
53.03,4.16,4.16,-2.40,-2.40,2.40,2.44,2.49,6.56,6.56,6.55
53.56,4.16,4.16,-2.37,-2.38,2.38,2.42,2.49,6.54,6.54,6.53
54.10,4.16,4.16,-2.35,-2.35,2.35,2.39,2.48,6.51,6.51,6.51
54.64,4.16,4.16,-2.33,-2.33,2.33,2.36,2.48,6.49,6.49,6.49
55.18,4.16,4.16,-2.31,-2.31,2.30,2.33,2.48,6.46,6.47,6.47
55.74,4.17,4.17,-2.28,-2.28,2.28,2.30,2.47,6.45,6.44,6.44
56.29,4.17,4.17,-2.25,-2.25,2.25,2.27,2.47,6.42,6.42,6.42
56.86,4.17,4.17,-2.23,-2.22,2.22,2.24,2.46,6.39,6.40,6.40
57.42,4.17,4.17,-2.20,-2.20,2.20,2.21,2.45,6.37,6.37,6.37
58.00,4.18,4.18,-2.16,-2.17,2.17,2.18,2.44,6.35,6.34,6.34
58.58,4.18,4.18,-2.14,-2.14,2.14,2.14,2.43,6.32,6.32,6.32
59.16,4.18,4.18,-2.11,-2.11,2.11,2.11,2.41,6.29,6.29,6.29
59.76,4.18,4.18,-2.08,-2.08,2.08,2.08,2.40,6.26,6.26,6.26
60.35,4.18,4.18,-2.05,-2.05,2.05,2.04,2.38,6.23,6.23,6.23
60.96,4.18,4.18,-2.02,-2.02,2.02,2.01,2.35,6.20,6.20,6.20
61.57,4.18,4.18,-1.99,-1.99,1.99,1.97,2.33,6.17,6.17,6.17
62.18,4.18,4.18,-1.96,-1.96,1.96,1.93,2.30,6.13,6.13,6.14
62.80,4.18,4.18,-1.92,-1.92,1.92,1.90,2.27,6.10,6.10,6.10
63.43,4.18,4.18,-1.89,-1.89,1.89,1.86,2.23,6.07,6.07,6.07
64.07,4.18,4.18,-1.85,-1.85,1.85,1.82,2.19,6.03,6.03,6.03
64.71,4.18,4.18,-1.82,-1.82,1.82,1.78,2.15,6.00,6.00,6.00
65.35,4.18,4.18,-1.78,-1.78,1.78,1.74,2.11,5.96,5.96,5.96
66.01,4.18,4.18,-1.74,-1.74,1.74,1.70,2.06,5.92,5.92,5.92
66.67,4.18,4.18,-1.70,-1.70,1.70,1.66,2.01,5.88,5.88,5.88
67.33,4.18,4.18,-1.66,-1.66,1.66,1.62,1.96,5.84,5.84,5.84
68.01,4.18,4.18,-1.62,-1.62,1.62,1.57,1.90,5.80,5.80,5.80
68.69,4.18,4.18,-1.58,-1.58,1.58,1.53,1.85,5.76,5.76,5.76
69.37,4.18,4.18,-1.54,-1.54,1.54,1.49,1.79,5.72,5.72,5.72
70.07,4.18,4.18,-1.49,-1.49,1.49,1.44,1.72,5.67,5.67,5.67
70.77,4.18,4.18,-1.45,-1.45,1.45,1.40,1.66,5.63,5.63,5.63
71.48,4.18,4.18,-1.40,-1.40,1.40,1.35,1.59,5.58,5.58,5.58
72.19,4.18,4.18,-1.35,-1.35,1.36,1.30,1.53,5.54,5.54,5.53
72.91,4.18,4.18,-1.31,-1.31,1.31,1.25,1.46,5.49,5.49,5.49
73.64,4.17,4.17,-1.27,-1.26,1.26,1.20,1.39,5.43,5.43,5.44
74.38,4.17,4.17,-1.22,-1.22,1.21,1.15,1.32,5.38,5.38,5.39
75.12,4.17,4.17,-1.17,-1.17,1.16,1.10,1.25,5.33,5.33,5.33
75.87,4.17,4.17,-1.11,-1.11,1.11,1.05,1.17,5.28,5.28,5.28
76.63,4.17,4.17,-1.06,-1.06,1.06,1.00,1.10,5.23,5.23,5.23
77.40,4.17,4.17,-1.01,-1.01,1.01,0.95,1.03,5.18,5.18,5.17
78.17,4.16,4.16,-0.96,-0.96,0.96,0.90,0.95,5.11,5.12,5.12
78.95,4.16,4.16,-0.90,-0.90,0.90,0.84,0.88,5.06,5.06,5.06
79.74,4.16,4.16,-0.85,-0.85,0.85,0.79,0.81,5.00,5.00,5.01
80.54,4.16,4.16,-0.79,-0.79,0.79,0.73,0.73,4.95,4.95,4.95
81.35,4.16,4.16,-0.73,-0.73,0.73,0.68,0.66,4.89,4.89,4.89
82.16,4.15,4.15,-0.68,-0.67,0.68,0.62,0.58,4.83,4.83,4.83
82.98,4.15,4.15,-0.62,-0.62,0.62,0.56,0.51,4.77,4.77,4.77
83.81,4.15,4.14,-0.56,-0.56,0.56,0.50,0.43,4.71,4.70,4.70
84.65,4.14,4.14,-0.50,-0.50,0.50,0.45,0.36,4.64,4.64,4.64
85.50,4.14,4.14,-0.44,-0.44,0.44,0.39,0.28,4.58,4.58,4.58
86.35,4.14,4.13,-0.38,-0.38,0.38,0.33,0.21,4.52,4.51,4.51
87.22,4.13,4.13,-0.32,-0.32,0.32,0.27,0.13,4.45,4.45,4.45
88.09,4.13,4.13,-0.25,-0.25,0.25,0.21,0.06,4.38,4.38,4.38
88.97,4.13,4.13,-0.19,-0.19,0.19,0.15,-0.02,4.32,4.32,4.32
89.86,4.12,4.12,-0.13,-0.13,0.13,0.08,-0.09,4.25,4.25,4.25
90.76,4.12,4.12,-0.06,-0.06,0.06,0.02,-0.17,4.18,4.18,4.18
91.66,4.11,4.11,-0.00,-0.00,0.00,-0.04,-0.24,4.11,4.11,4.11
92.58,4.11,4.11,0.07,0.06,-0.06,-0.10,-0.32,4.05,4.04,4.04
93.51,4.10,4.10,0.13,0.13,-0.13,-0.17,-0.39,3.97,3.97,3.97
94.44,4.10,4.10,0.20,0.19,-0.19,-0.23,-0.47,3.91,3.90,3.90
95.39,4.09,4.09,0.26,0.26,-0.26,-0.29,-0.54,3.83,3.83,3.83
96.34,4.09,4.09,0.33,0.33,-0.33,-0.36,-0.62,3.76,3.76,3.76
97.30,4.08,4.08,0.39,0.39,-0.39,-0.42,-0.69,3.69,3.69,3.69
98.28,4.08,4.08,0.46,0.46,-0.46,-0.49,-0.77,3.62,3.62,3.62
99.26,4.07,4.07,0.52,0.53,-0.53,-0.55,-0.84,3.54,3.55,3.55
100.25,4.07,4.07,0.60,0.59,-0.59,-0.61,-0.91,3.48,3.47,3.47
101.25,4.06,4.06,0.66,0.66,-0.66,-0.68,-0.99,3.40,3.40,3.40
102.27,4.05,4.05,0.72,0.73,-0.73,-0.74,-1.06,3.32,3.33,3.33
103.29,4.05,4.04,0.79,0.79,-0.79,-0.81,-1.13,3.26,3.25,3.25
104.32,4.04,4.04,0.86,0.86,-0.86,-0.87,-1.20,3.18,3.18,3.18
105.37,4.03,4.03,0.92,0.92,-0.92,-0.94,-1.27,3.10,3.11,3.11
106.42,4.03,4.02,0.99,0.99,-0.99,-1.00,-1.34,3.04,3.03,3.04
107.48,4.02,4.02,1.06,1.06,-1.06,-1.07,-1.41,2.96,2.96,2.96
108.56,4.01,4.01,1.12,1.12,-1.12,-1.13,-1.48,2.89,2.89,2.89
109.64,4.01,4.01,1.19,1.19,-1.19,-1.19,-1.55,2.82,2.82,2.82
110.74,4.00,4.00,1.25,1.25,-1.25,-1.26,-1.61,2.75,2.75,2.74
111.85,3.99,3.99,1.32,1.32,-1.32,-1.32,-1.67,2.67,2.67,2.67
112.97,3.98,3.98,1.38,1.38,-1.38,-1.38,-1.73,2.60,2.60,2.60
114.10,3.97,3.97,1.44,1.44,-1.45,-1.44,-1.79,2.52,2.53,2.53
115.24,3.97,3.97,1.51,1.51,-1.51,-1.51,-1.85,2.46,2.46,2.46
116.39,3.96,3.96,1.57,1.57,-1.57,-1.57,-1.90,2.39,2.39,2.39
117.55,3.95,3.95,1.63,1.63,-1.63,-1.63,-1.95,2.32,2.32,2.32
118.73,3.94,3.94,1.69,1.69,-1.69,-1.69,-2.00,2.25,2.25,2.25
119.92,3.93,3.93,1.75,1.75,-1.75,-1.75,-2.05,2.18,2.18,2.18
121.12,3.92,3.92,1.81,1.81,-1.81,-1.81,-2.09,2.11,2.11,2.11
122.33,3.91,3.91,1.87,1.87,-1.87,-1.86,-2.13,2.04,2.04,2.04
123.55,3.90,3.90,1.93,1.93,-1.93,-1.92,-2.16,1.97,1.97,1.97
124.79,3.89,3.89,1.98,1.98,-1.98,-1.98,-2.20,1.91,1.91,1.90
126.03,3.88,3.88,2.04,2.04,-2.04,-2.03,-2.23,1.84,1.84,1.84
127.29,3.87,3.87,2.10,2.10,-2.10,-2.09,-2.25,1.77,1.77,1.77
128.57,3.86,3.86,2.15,2.15,-2.15,-2.14,-2.28,1.71,1.71,1.71
129.85,3.85,3.85,2.20,2.20,-2.20,-2.19,-2.30,1.64,1.64,1.64
131.15,3.84,3.84,2.26,2.26,-2.26,-2.25,-2.32,1.58,1.58,1.58
132.46,3.83,3.83,2.31,2.31,-2.31,-2.30,-2.33,1.52,1.52,1.52
133.79,3.82,3.82,2.36,2.36,-2.36,-2.35,-2.34,1.46,1.46,1.46
135.12,3.81,3.81,2.41,2.41,-2.41,-2.40,-2.35,1.40,1.40,1.40
136.48,3.80,3.80,2.46,2.46,-2.46,-2.44,-2.36,1.34,1.34,1.34
137.84,3.78,3.78,2.50,2.50,-2.50,-2.49,-2.37,1.28,1.28,1.28
139.22,3.77,3.77,2.55,2.55,-2.55,-2.54,-2.37,1.22,1.22,1.22
140.61,3.76,3.76,2.59,2.59,-2.59,-2.58,-2.38,1.17,1.17,1.17
142.02,3.75,3.75,2.64,2.64,-2.64,-2.63,-2.38,1.11,1.11,1.11
143.44,3.73,3.73,2.67,2.68,-2.68,-2.67,-2.38,1.05,1.06,1.06
144.87,3.72,3.72,2.72,2.72,-2.72,-2.71,-2.38,1.00,1.00,1.00
146.32,3.71,3.70,2.76,2.76,-2.76,-2.75,-2.38,0.95,0.95,0.95
147.78,3.69,3.69,2.79,2.80,-2.80,-2.79,-2.39,0.89,0.90,0.90
149.26,3.68,3.68,2.83,2.83,-2.83,-2.83,-2.39,0.85,0.85,0.85
150.75,3.67,3.67,2.87,2.87,-2.87,-2.86,-2.39,0.80,0.80,0.80
152.26,3.65,3.65,2.90,2.90,-2.90,-2.90,-2.39,0.75,0.75,0.75
153.78,3.64,3.64,2.94,2.94,-2.93,-2.93,-2.39,0.70,0.70,0.70
155.32,3.62,3.62,2.96,2.97,-2.97,-2.96,-2.40,0.65,0.65,0.66
156.88,3.61,3.61,3.00,3.00,-3.00,-3.00,-2.40,0.61,0.61,0.61
158.44,3.59,3.59,3.02,3.03,-3.03,-3.02,-2.41,0.56,0.56,0.57
160.03,3.58,3.58,3.06,3.06,-3.06,-3.05,-2.41,0.52,0.52,0.52
161.63,3.56,3.56,3.09,3.09,-3.09,-3.08,-2.42,0.47,0.47,0.47
163.24,3.55,3.55,3.12,3.12,-3.11,-3.11,-2.43,0.43,0.43,0.43
164.88,3.53,3.53,3.14,3.14,-3.14,-3.13,-2.44,0.39,0.39,0.39
166.53,3.51,3.51,3.16,3.16,-3.16,-3.16,-2.46,0.34,0.35,0.35
168.19,3.50,3.49,3.19,3.18,-3.19,-3.18,-2.47,0.31,0.31,0.31
169.87,3.48,3.48,3.21,3.21,-3.21,-3.20,-2.49,0.27,0.27,0.27
171.57,3.46,3.46,3.22,3.23,-3.23,-3.22,-2.51,0.23,0.24,0.24
173.29,3.45,3.45,3.25,3.24,-3.24,-3.24,-2.53,0.21,0.20,0.20
175.02,3.43,3.43,3.26,3.26,-3.26,-3.26,-2.56,0.17,0.17,0.17
176.77,3.41,3.41,3.28,3.28,-3.28,-3.27,-2.58,0.13,0.13,0.13
178.54,3.39,3.39,3.29,3.29,-3.29,-3.29,-2.61,0.10,0.10,0.10
180.32,3.37,3.37,3.30,3.30,-3.30,-3.30,-2.64,0.07,0.07,0.07
182.13,3.35,3.35,3.31,3.31,-3.32,-3.31,-2.67,0.03,0.04,0.04
183.95,3.34,3.34,3.33,3.33,-3.33,-3.32,-2.70,0.01,0.01,0.01
185.79,3.32,3.32,3.34,3.34,-3.34,-3.33,-2.74,-0.02,-0.02,-0.02
187.65,3.30,3.30,3.35,3.35,-3.35,-3.34,-2.78,-0.05,-0.05,-0.05
189.52,3.28,3.28,3.36,3.36,-3.36,-3.35,-2.82,-0.08,-0.08,-0.08
191.42,3.26,3.26,3.36,3.36,-3.36,-3.35,-2.86,-0.10,-0.10,-0.10
193.33,3.24,3.24,3.37,3.37,-3.37,-3.36,-2.90,-0.13,-0.13,-0.13
195.27,3.22,3.22,3.37,3.37,-3.37,-3.36,-2.95,-0.15,-0.15,-0.15
197.22,3.20,3.20,3.38,3.38,-3.37,-3.36,-2.99,-0.18,-0.18,-0.18
199.19,3.17,3.17,3.37,3.38,-3.38,-3.37,-3.04,-0.21,-0.20,-0.20
201.18,3.15,3.15,3.37,3.38,-3.38,-3.37,-3.09,-0.23,-0.23,-0.23
203.19,3.13,3.13,3.38,3.38,-3.38,-3.37,-3.14,-0.25,-0.25,-0.25
205.23,3.11,3.11,3.38,3.38,-3.38,-3.36,-3.19,-0.27,-0.27,-0.27
207.28,3.09,3.09,3.38,3.38,-3.38,-3.36,-3.24,-0.29,-0.29,-0.29
209.35,3.07,3.07,3.38,3.38,-3.37,-3.36,-3.29,-0.31,-0.31,-0.31
211.44,3.04,3.04,3.37,3.37,-3.37,-3.35,-3.34,-0.33,-0.33,-0.33
213.56,3.02,3.02,3.37,3.37,-3.37,-3.35,-3.38,-0.35,-0.35,-0.35
215.69,3.00,2.99,3.37,3.36,-3.36,-3.34,-3.43,-0.36,-0.37,-0.37
217.85,2.97,2.97,3.35,3.36,-3.36,-3.33,-3.48,-0.39,-0.38,-0.38
220.03,2.95,2.95,3.35,3.35,-3.35,-3.32,-3.53,-0.40,-0.40,-0.40
222.23,2.93,2.92,3.35,3.34,-3.34,-3.31,-3.57,-0.41,-0.42,-0.42
224.45,2.90,2.90,3.33,3.33,-3.33,-3.30,-3.61,-0.43,-0.43,-0.43
226.70,2.87,2.87,3.32,3.32,-3.32,-3.29,-3.65,-0.45,-0.45,-0.45
228.96,2.85,2.85,3.31,3.31,-3.31,-3.28,-3.69,-0.47,-0.47,-0.46
231.25,2.82,2.82,3.30,3.30,-3.30,-3.26,-3.72,-0.49,-0.48,-0.48
233.57,2.80,2.80,3.29,3.29,-3.29,-3.25,-3.75,-0.49,-0.50,-0.49
235.90,2.77,2.77,3.29,3.29,-3.28,-3.23,-3.77,-0.51,-0.51,-0.52
238.26,2.75,2.75,3.28,3.27,-3.27,-3.22,-3.79,-0.52,-0.53,-0.53
240.64,2.72,2.72,3.26,3.26,-3.26,-3.20,-3.80,-0.54,-0.54,-0.54
243.05,2.69,2.69,3.24,3.25,-3.25,-3.18,-3.81,-0.56,-0.55,-0.55
245.48,2.67,2.67,3.24,3.23,-3.23,-3.16,-3.81,-0.56,-0.57,-0.57
247.93,2.64,2.64,3.22,3.21,-3.22,-3.14,-3.81,-0.58,-0.58,-0.58
250.41,2.61,2.61,3.20,3.20,-3.20,-3.12,-3.81,-0.59,-0.59,-0.59
252.92,2.58,2.58,3.18,3.18,-3.18,-3.10,-3.79,-0.60,-0.60,-0.60
255.45,2.56,2.56,3.17,3.16,-3.16,-3.08,-3.77,-0.61,-0.61,-0.61
258.00,2.53,2.53,3.15,3.15,-3.15,-3.06,-3.75,-0.62,-0.62,-0.62
260.58,2.50,2.50,3.13,3.13,-3.13,-3.04,-3.72,-0.63,-0.63,-0.63
263.19,2.47,2.47,3.11,3.11,-3.11,-3.02,-3.69,-0.64,-0.64,-0.64
265.82,2.44,2.44,3.09,3.09,-3.09,-2.99,-3.65,-0.65,-0.65,-0.65
268.48,2.41,2.41,3.06,3.06,-3.07,-2.97,-3.61,-0.66,-0.66,-0.65
271.16,2.38,2.38,3.04,3.04,-3.04,-2.94,-3.56,-0.66,-0.66,-0.66
273.87,2.35,2.35,3.02,3.02,-3.02,-2.92,-3.51,-0.67,-0.67,-0.67
276.61,2.32,2.32,3.00,3.00,-3.00,-2.89,-3.45,-0.68,-0.68,-0.68
279.38,2.29,2.29,2.98,2.98,-2.97,-2.87,-3.39,-0.68,-0.68,-0.69
282.17,2.26,2.26,2.95,2.95,-2.95,-2.84,-3.33,-0.69,-0.69,-0.69
284.99,2.23,2.23,2.92,2.92,-2.92,-2.81,-3.26,-0.69,-0.69,-0.69
287.84,2.20,2.20,2.89,2.89,-2.89,-2.79,-3.20,-0.69,-0.69,-0.69
290.72,2.17,2.17,2.86,2.86,-2.86,-2.76,-3.13,-0.69,-0.69,-0.69
293.63,2.14,2.14,2.84,2.83,-2.83,-2.73,-3.06,-0.69,-0.69,-0.70
296.57,2.11,2.11,2.80,2.80,-2.80,-2.70,-2.99,-0.69,-0.69,-0.70
299.53,2.08,2.08,2.77,2.77,-2.77,-2.67,-2.92,-0.69,-0.69,-0.69
302.53,2.04,2.04,2.74,2.74,-2.74,-2.64,-2.84,-0.70,-0.70,-0.70
305.55,2.01,2.01,2.70,2.70,-2.71,-2.61,-2.77,-0.70,-0.70,-0.69
308.61,1.98,1.98,2.68,2.67,-2.67,-2.58,-2.70,-0.69,-0.70,-0.70
311.69,1.95,1.95,2.64,2.64,-2.64,-2.55,-2.63,-0.69,-0.69,-0.69
314.81,1.91,1.91,2.61,2.61,-2.61,-2.52,-2.56,-0.70,-0.69,-0.70
317.96,1.88,1.88,2.57,2.57,-2.57,-2.49,-2.48,-0.69,-0.69,-0.69
321.14,1.85,1.84,2.54,2.54,-2.54,-2.46,-2.41,-0.69,-0.69,-0.70
324.35,1.81,1.81,2.50,2.50,-2.50,-2.43,-2.34,-0.69,-0.69,-0.69
327.59,1.78,1.78,2.46,2.47,-2.47,-2.40,-2.28,-0.69,-0.69,-0.68
330.87,1.75,1.75,2.44,2.43,-2.43,-2.37,-2.21,-0.68,-0.69,-0.69
334.18,1.71,1.71,2.39,2.40,-2.40,-2.33,-2.14,-0.69,-0.68,-0.68
337.52,1.68,1.68,2.36,2.36,-2.36,-2.30,-2.08,-0.68,-0.68,-0.69
340.90,1.64,1.64,2.32,2.32,-2.32,-2.27,-2.01,-0.68,-0.68,-0.68
344.30,1.61,1.61,2.28,2.28,-2.28,-2.24,-1.95,-0.67,-0.67,-0.67
347.75,1.57,1.57,2.23,2.24,-2.24,-2.20,-1.89,-0.67,-0.67,-0.67
351.23,1.54,1.54,2.21,2.20,-2.20,-2.17,-1.83,-0.66,-0.66,-0.67
354.74,1.50,1.50,2.15,2.16,-2.16,-2.14,-1.77,-0.66,-0.66,-0.65
358.28,1.47,1.47,2.12,2.12,-2.12,-2.10,-1.71,-0.65,-0.65,-0.65
361.87,1.43,1.43,2.08,2.08,-2.08,-2.07,-1.66,-0.65,-0.65,-0.65
365.49,1.40,1.40,2.04,2.04,-2.04,-2.04,-1.60,-0.64,-0.64,-0.64
369.14,1.36,1.36,2.00,2.00,-2.00,-2.00,-1.55,-0.64,-0.64,-0.64
372.83,1.32,1.32,1.94,1.95,-1.96,-1.97,-1.50,-0.64,-0.63,-0.63
376.56,1.29,1.28,1.92,1.91,-1.91,-1.93,-1.45,-0.62,-0.63,-0.63
380.33,1.25,1.25,1.87,1.87,-1.87,-1.90,-1.40,-0.62,-0.62,-0.62
384.13,1.21,1.21,1.83,1.83,-1.83,-1.86,-1.35,-0.62,-0.62,-0.62
387.97,1.18,1.17,1.79,1.79,-1.79,-1.83,-1.31,-0.61,-0.61,-0.62
391.85,1.14,1.14,1.74,1.74,-1.74,-1.79,-1.26,-0.60,-0.60,-0.60
395.77,1.10,1.10,1.70,1.70,-1.70,-1.76,-1.22,-0.60,-0.60,-0.60
399.73,1.07,1.06,1.66,1.66,-1.66,-1.72,-1.18,-0.59,-0.59,-0.59
403.72,1.03,1.03,1.61,1.62,-1.62,-1.69,-1.14,-0.59,-0.59,-0.58
407.76,0.99,0.99,1.57,1.57,-1.57,-1.65,-1.10,-0.58,-0.58,-0.58
411.84,0.96,0.96,1.54,1.53,-1.53,-1.61,-1.06,-0.57,-0.58,-0.58
415.96,0.92,0.92,1.49,1.49,-1.49,-1.58,-1.02,-0.57,-0.57,-0.57
420.12,0.88,0.88,1.45,1.45,-1.45,-1.54,-0.98,-0.57,-0.57,-0.57
424.32,0.84,0.84,1.40,1.40,-1.40,-1.50,-0.94,-0.57,-0.56,-0.56
428.56,0.81,0.81,1.36,1.36,-1.36,-1.47,-0.91,-0.55,-0.56,-0.55
432.85,0.77,0.77,1.31,1.32,-1.32,-1.43,-0.87,-0.55,-0.55,-0.54
437.18,0.73,0.73,1.28,1.27,-1.27,-1.39,-0.84,-0.54,-0.54,-0.55
441.55,0.69,0.69,1.23,1.23,-1.22,-1.35,-0.81,-0.54,-0.53,-0.54
445.96,0.66,0.66,1.19,1.18,-1.18,-1.31,-0.78,-0.52,-0.52,-0.53
450.42,0.62,0.62,1.13,1.13,-1.13,-1.27,-0.75,-0.51,-0.52,-0.51
454.93,0.58,0.58,1.08,1.08,-1.09,-1.23,-0.72,-0.51,-0.51,-0.50
459.48,0.54,0.54,1.03,1.04,-1.04,-1.19,-0.69,-0.50,-0.50,-0.49
464.07,0.51,0.51,1.00,1.00,-1.00,-1.15,-0.66,-0.49,-0.49,-0.49
468.71,0.47,0.47,0.95,0.95,-0.95,-1.11,-0.63,-0.48,-0.48,-0.48
473.40,0.43,0.43,0.90,0.91,-0.90,-1.07,-0.60,-0.48,-0.47,-0.48
478.13,0.39,0.39,0.86,0.86,-0.86,-1.03,-0.58,-0.47,-0.47,-0.47
482.91,0.36,0.35,0.82,0.81,-0.81,-0.99,-0.55,-0.45,-0.46,-0.46
487.74,0.32,0.32,0.77,0.77,-0.77,-0.95,-0.53,-0.45,-0.45,-0.45
492.62,0.28,0.28,0.72,0.72,-0.72,-0.90,-0.50,-0.44,-0.44,-0.44
497.55,0.25,0.24,0.68,0.67,-0.67,-0.86,-0.48,-0.42,-0.43,-0.43
502.52,0.21,0.21,0.63,0.63,-0.63,-0.81,-0.45,-0.42,-0.42,-0.42
507.55,0.17,0.17,0.57,0.58,-0.58,-0.77,-0.43,-0.41,-0.41,-0.40
512.62,0.14,0.14,0.53,0.53,-0.53,-0.72,-0.41,-0.39,-0.40,-0.39
517.75,0.10,0.10,0.48,0.48,-0.49,-0.68,-0.39,-0.39,-0.39,-0.38
522.93,0.07,0.07,0.44,0.44,-0.44,-0.63,-0.37,-0.37,-0.38,-0.37
528.16,0.03,0.03,0.39,0.39,-0.40,-0.58,-0.35,-0.37,-0.37,-0.37
533.44,-0.01,-0.01,0.34,0.35,-0.35,-0.53,-0.33,-0.36,-0.36,-0.36
