frequency,raw,error,smoothed,error_smoothed,equalization,parametric_eq,fixed_band_eq,equalized_raw,equalized_smoothed,target
20.00,11.27,2.11,11.27,2.11,-2.11,-2.41,-1.35,9.17,9.16,9.16
20.20,11.29,2.14,11.30,2.14,-2.15,-2.42,-1.38,9.15,9.15,9.15
20.40,11.32,2.18,11.32,2.18,-2.18,-2.43,-1.42,9.14,9.14,9.14
20.61,11.34,2.21,11.35,2.22,-2.22,-2.45,-1.46,9.13,9.13,9.13
20.81,11.37,2.26,11.37,2.26,-2.25,-2.46,-1.51,9.12,9.12,9.11
21.02,11.39,2.29,11.40,2.29,-2.29,-2.48,-1.55,9.11,9.11,9.10
21.23,11.42,2.33,11.42,2.33,-2.32,-2.49,-1.59,9.10,9.10,9.09
21.44,11.44,2.34,11.44,2.35,-2.35,-2.50,-1.64,9.09,9.09,9.10
21.66,11.46,2.38,11.47,2.38,-2.39,-2.52,-1.68,9.08,9.08,9.08
21.87,11.49,2.42,11.49,2.42,-2.42,-2.53,-1.73,9.08,9.07,9.08
22.09,11.51,2.46,11.51,2.45,-2.45,-2.55,-1.78,9.07,9.07,9.06
22.31,11.53,2.48,11.54,2.48,-2.48,-2.56,-1.83,9.06,9.06,9.06
22.54,11.55,2.51,11.56,2.51,-2.51,-2.58,-1.88,9.05,9.05,9.05
22.76,11.58,2.54,11.58,2.54,-2.54,-2.60,-1.94,9.05,9.04,9.05
22.99,11.60,2.57,11.60,2.57,-2.57,-2.61,-1.99,9.04,9.04,9.04
23.22,11.62,2.60,11.63,2.59,-2.59,-2.63,-2.05,9.03,9.03,9.03
23.45,11.65,2.62,11.65,2.62,-2.62,-2.64,-2.11,9.03,9.03,9.04
23.69,11.67,2.65,11.67,2.65,-2.65,-2.66,-2.16,9.03,9.03,9.03
23.92,11.69,2.68,11.70,2.67,-2.67,-2.68,-2.22,9.02,9.03,9.02
24.16,11.71,2.69,11.72,2.70,-2.70,-2.70,-2.28,9.02,9.02,9.02
24.40,11.74,2.72,11.74,2.72,-2.72,-2.71,-2.34,9.02,9.02,9.02
24.65,11.76,2.74,11.76,2.74,-2.75,-2.73,-2.41,9.02,9.02,9.02
24.89,11.78,2.76,11.79,2.77,-2.77,-2.75,-2.47,9.02,9.02,9.02
25.14,11.81,2.79,11.81,2.79,-2.79,-2.77,-2.53,9.01,9.02,9.01
25.39,11.84,2.82,11.83,2.82,-2.82,-2.78,-2.60,9.02,9.02,9.01
25.65,11.85,2.84,11.85,2.84,-2.84,-2.80,-2.66,9.02,9.02,9.01
25.91,11.87,2.86,11.87,2.86,-2.86,-2.82,-2.73,9.01,9.01,9.01
26.16,11.89,2.88,11.90,2.88,-2.88,-2.84,-2.79,9.01,9.01,9.02
26.43,11.91,2.90,11.92,2.90,-2.91,-2.86,-2.86,9.01,9.01,9.02
26.69,11.94,2.93,11.94,2.92,-2.93,-2.88,-2.92,9.02,9.01,9.02
26.96,11.96,2.95,11.96,2.95,-2.95,-2.90,-2.99,9.02,9.02,9.02
27.23,11.98,2.97,11.99,2.97,-2.97,-2.92,-3.05,9.02,9.02,9.01
27.50,12.00,2.99,12.00,2.99,-2.99,-2.94,-3.11,9.02,9.02,9.01
27.77,12.02,3.00,12.02,3.01,-3.00,-2.96,-3.17,9.02,9.02,9.02
28.05,12.04,3.02,12.04,3.02,-3.02,-2.98,-3.23,9.02,9.02,9.02
28.33,12.06,3.04,12.06,3.04,-3.04,-3.00,-3.29,9.03,9.03,9.03
28.62,12.08,3.06,12.08,3.05,-3.06,-3.02,-3.34,9.03,9.03,9.03
28.90,12.10,3.07,12.10,3.07,-3.07,-3.04,-3.39,9.03,9.03,9.04
29.19,12.12,3.09,12.13,3.09,-3.09,-3.07,-3.44,9.03,9.04,9.04
29.48,12.14,3.11,12.14,3.11,-3.11,-3.09,-3.49,9.04,9.04,9.03
29.78,12.16,3.13,12.16,3.13,-3.13,-3.11,-3.53,9.04,9.03,9.03
30.08,12.17,3.14,12.18,3.15,-3.15,-3.13,-3.57,9.02,9.03,9.03
30.38,12.19,3.17,12.19,3.17,-3.17,-3.16,-3.61,9.02,9.02,9.02
30.68,12.21,3.20,12.21,3.20,-3.20,-3.18,-3.64,9.02,9.02,9.02
30.99,12.23,3.22,12.23,3.22,-3.22,-3.20,-3.67,9.01,9.01,9.02
31.30,12.25,3.24,12.26,3.24,-3.24,-3.22,-3.69,9.01,9.01,9.01
31.61,12.27,3.26,12.27,3.27,-3.27,-3.25,-3.71,9.01,9.01,9.01
31.93,12.29,3.30,12.29,3.29,-3.29,-3.27,-3.73,9.00,9.00,8.99
32.24,12.30,3.31,12.31,3.32,-3.31,-3.30,-3.75,8.99,9.00,9.00
32.57,12.32,3.34,12.32,3.34,-3.33,-3.32,-3.76,8.99,8.99,8.99
32.89,12.33,3.35,12.34,3.35,-3.35,-3.34,-3.76,8.98,8.98,8.98
33.22,12.35,3.37,12.35,3.37,-3.37,-3.37,-3.77,8.98,8.98,8.98
33.55,12.36,3.39,12.36,3.39,-3.39,-3.39,-3.77,8.97,8.97,8.98
33.89,12.37,3.41,12.37,3.41,-3.41,-3.42,-3.77,8.97,8.97,8.97
34.23,12.38,3.43,12.39,3.43,-3.43,-3.44,-3.77,8.96,8.96,8.95
34.57,12.39,3.44,12.40,3.45,-3.45,-3.47,-3.76,8.95,8.95,8.95
34.92,12.41,3.48,12.41,3.46,-3.47,-3.50,-3.75,8.95,8.94,8.94
35.27,12.42,3.47,12.42,3.48,-3.49,-3.52,-3.75,8.94,8.94,8.95
35.62,12.43,3.50,12.44,3.50,-3.51,-3.55,-3.74,8.93,8.93,8.93
35.97,12.45,3.53,12.45,3.52,-3.53,-3.57,-3.73,8.93,8.92,8.93
36.33,12.46,3.55,12.46,3.55,-3.55,-3.60,-3.72,8.92,8.91,8.91
36.70,12.46,3.57,12.47,3.57,-3.57,-3.63,-3.71,8.90,8.90,8.89
37.06,12.47,3.60,12.47,3.59,-3.59,-3.66,-3.70,8.89,8.88,8.88
37.43,12.47,3.61,12.47,3.61,-3.61,-3.68,-3.69,8.86,8.86,8.86
37.81,12.47,3.63,12.48,3.63,-3.63,-3.71,-3.68,8.84,8.85,8.85
38.19,12.47,3.65,12.48,3.65,-3.65,-3.74,-3.67,8.82,8.83,8.83
38.57,12.48,3.67,12.48,3.67,-3.67,-3.77,-3.66,8.81,8.81,8.81
38.95,12.48,3.69,12.48,3.69,-3.69,-3.79,-3.66,8.79,8.79,8.80
39.34,12.48,3.71,12.49,3.72,-3.72,-3.82,-3.66,8.77,8.77,8.77
39.74,12.49,3.75,12.49,3.74,-3.74,-3.85,-3.65,8.75,8.75,8.75
40.14,12.49,3.76,12.50,3.77,-3.76,-3.88,-3.65,8.73,8.73,8.73
40.54,12.50,3.79,12.50,3.79,-3.79,-3.91,-3.66,8.72,8.71,8.72
40.94,12.50,3.81,12.51,3.81,-3.81,-3.94,-3.66,8.69,8.69,8.69
41.35,12.51,3.84,12.51,3.84,-3.84,-3.96,-3.67,8.68,8.68,8.68
41.76,12.52,3.87,12.52,3.87,-3.86,-3.99,-3.68,8.66,8.66,8.65
42.18,12.52,3.88,12.53,3.89,-3.89,-4.02,-3.69,8.64,8.64,8.64
42.60,12.53,3.92,12.53,3.91,-3.91,-4.05,-3.71,8.62,8.62,8.62
43.03,12.53,3.93,12.53,3.93,-3.94,-4.08,-3.72,8.60,8.60,8.60
43.46,12.53,3.96,12.54,3.96,-3.96,-4.11,-3.74,8.57,8.57,8.57
43.90,12.54,3.99,12.54,3.99,-3.99,-4.14,-3.77,8.55,8.55,8.56
44.33,12.55,4.03,12.56,4.02,-4.03,-4.17,-3.79,8.53,8.53,8.53
44.78,12.57,4.06,12.58,4.06,-4.07,-4.20,-3.82,8.51,8.51,8.51
45.23,12.59,4.10,12.59,4.11,-4.11,-4.23,-3.86,8.49,8.49,8.49
45.68,12.61,4.16,12.61,4.15,-4.15,-4.26,-3.89,8.47,8.46,8.46
46.13,12.62,4.20,12.63,4.20,-4.20,-4.29,-3.93,8.43,8.43,8.43
46.60,12.64,4.25,12.64,4.24,-4.24,-4.32,-3.97,8.40,8.40,8.40
47.06,12.65,4.29,12.66,4.29,-4.29,-4.35,-4.01,8.36,8.37,8.37
47.53,12.67,4.33,12.67,4.34,-4.34,-4.38,-4.06,8.33,8.33,8.34
48.01,12.68,4.39,12.69,4.39,-4.39,-4.41,-4.11,8.30,8.30,8.29
48.49,12.69,4.43,12.70,4.44,-4.43,-4.44,-4.16,8.26,8.26,8.26
48.97,12.70,4.49,12.70,4.48,-4.48,-4.47,-4.21,8.22,8.22,8.22
49.46,12.70,4.52,12.71,4.52,-4.52,-4.50,-4.27,8.18,8.18,8.19
49.96,12.71,4.58,12.71,4.57,-4.57,-4.53,-4.32,8.15,8.15,8.14
50.46,12.71,4.60,12.72,4.60,-4.60,-4.56,-4.38,8.11,8.11,8.12
50.96,12.72,4.64,12.72,4.64,-4.64,-4.59,-4.44,8.08,8.08,8.08
51.47,12.72,4.67,12.72,4.68,-4.67,-4.62,-4.50,8.05,8.05,8.05
51.99,12.72,4.72,12.72,4.71,-4.71,-4.65,-4.57,8.02,8.02,8.01
52.51,12.71,4.73,12.72,4.73,-4.74,-4.68,-4.63,7.98,7.98,7.98
53.03,12.71,4.75,12.71,4.76,-4.76,-4.71,-4.70,7.95,7.95,7.96
53.56,12.70,4.78,12.71,4.79,-4.79,-4.74,-4.76,7.92,7.92,7.93
54.10,12.70,4.82,12.70,4.81,-4.81,-4.77,-4.82,7.89,7.89,7.88
54.64,12.68,4.83,12.69,4.84,-4.83,-4.80,-4.89,7.85,7.85,7.85
55.18,12.66,4.85,12.67,4.85,-4.85,-4.83,-4.95,7.82,7.82,7.82
55.74,12.65,4.87,12.65,4.86,-4.86,-4.86,-5.01,7.79,7.79,7.78
56.29,12.63,4.87,12.64,4.87,-4.87,-4.89,-5.07,7.76,7.76,7.76
56.86,12.61,4.88,12.62,4.88,-4.88,-4.92,-5.12,7.74,7.74,7.74
57.42,12.59,4.90,12.59,4.89,-4.88,-4.95,-5.18,7.71,7.71,7.70
58.00,12.56,4.90,12.57,4.89,-4.89,-4.98,-5.23,7.67,7.68,7.67
58.58,12.54,4.89,12.55,4.90,-4.90,-5.01,-5.28,7.65,7.65,7.65
59.16,12.53,4.90,12.53,4.90,-4.91,-5.04,-5.32,7.62,7.62,7.63
59.76,12.51,4.92,12.52,4.92,-4.93,-5.07,-5.36,7.58,7.58,7.60
60.35,12.50,4.95,12.50,4.95,-4.96,-5.09,-5.39,7.55,7.55,7.56
60.96,12.49,4.98,12.49,4.98,-4.99,-5.12,-5.42,7.51,7.51,7.52
61.57,12.48,5.02,12.49,5.02,-5.02,-5.15,-5.45,7.46,7.47,7.46
62.18,12.48,5.07,12.48,5.07,-5.06,-5.18,-5.47,7.42,7.42,7.42
62.80,12.48,5.11,12.48,5.11,-5.10,-5.21,-5.48,7.38,7.38,7.37
63.43,12.48,5.16,12.48,5.15,-5.15,-5.23,-5.49,7.34,7.33,7.33
64.07,12.48,5.19,12.49,5.19,-5.19,-5.26,-5.50,7.29,7.29,7.29
64.71,12.49,5.24,12.50,5.24,-5.24,-5.29,-5.50,7.26,7.26,7.26
65.35,12.50,5.29,12.50,5.28,-5.28,-5.31,-5.49,7.22,7.22,7.22
66.01,12.51,5.33,12.51,5.33,-5.33,-5.34,-5.48,7.19,7.18,7.18
66.67,12.51,5.36,12.52,5.37,-5.37,-5.36,-5.47,7.15,7.15,7.15
67.33,12.51,5.41,12.52,5.41,-5.41,-5.39,-5.46,7.10,7.11,7.10
68.01,12.52,5.45,12.52,5.45,-5.45,-5.41,-5.44,7.07,7.07,7.07
68.69,12.52,5.49,12.53,5.49,-5.49,-5.44,-5.41,7.03,7.03,7.03
69.37,12.52,5.53,12.53,5.53,-5.53,-5.46,-5.39,6.99,7.00,7.00
70.07,12.52,5.57,12.52,5.57,-5.57,-5.49,-5.36,6.96,6.95,6.96
70.77,12.51,5.60,12.52,5.60,-5.60,-5.51,-5.33,6.91,6.91,6.91
71.48,12.50,5.63,12.51,5.63,-5.63,-5.53,-5.30,6.87,6.87,6.88
72.19,12.49,5.66,12.49,5.66,-5.66,-5.55,-5.27,6.83,6.83,6.83
72.91,12.47,5.69,12.48,5.69,-5.68,-5.58,-5.24,6.79,6.79,6.79
73.64,12.45,5.71,12.46,5.71,-5.70,-5.60,-5.21,6.75,6.75,6.75
74.38,12.43,5.72,12.44,5.72,-5.72,-5.62,-5.18,6.72,6.72,6.71
75.12,12.41,5.73,12.41,5.73,-5.73,-5.64,-5.15,6.68,6.68,6.68
75.87,12.38,5.73,12.39,5.74,-5.74,-5.66,-5.12,6.65,6.65,6.65
76.63,12.35,5.74,12.36,5.74,-5.74,-5.68,-5.10,6.61,6.61,6.61
77.40,12.33,5.75,12.33,5.75,-5.75,-5.70,-5.07,6.59,6.58,6.59
78.17,12.30,5.76,12.31,5.75,-5.75,-5.72,-5.05,6.55,6.56,6.55
78.95,12.28,5.75,12.28,5.76,-5.76,-5.74,-5.03,6.53,6.53,6.53
79.74,12.26,5.77,12.26,5.76,-5.76,-5.75,-5.01,6.50,6.50,6.50
80.54,12.23,5.76,12.24,5.77,-5.77,-5.77,-5.00,6.46,6.47,6.47
81.35,12.22,5.79,12.22,5.78,-5.79,-5.79,-4.99,6.44,6.44,6.44
82.16,12.21,5.79,12.21,5.80,-5.80,-5.80,-4.98,6.41,6.41,6.42
82.98,12.20,5.82,12.20,5.82,-5.82,-5.82,-4.97,6.38,6.38,6.38
83.81,12.19,5.84,12.20,5.84,-5.84,-5.83,-4.97,6.36,6.36,6.36
84.65,12.18,5.87,12.18,5.86,-5.86,-5.85,-4.97,6.32,6.32,6.32
85.50,12.17,5.89,12.17,5.88,-5.88,-5.86,-4.98,6.30,6.29,6.29
86.35,12.15,5.90,12.16,5.90,-5.90,-5.88,-4.99,6.26,6.26,6.26
87.22,12.14,5.92,12.14,5.92,-5.91,-5.89,-5.00,6.23,6.23,6.23
88.09,12.12,5.93,12.12,5.93,-5.93,-5.90,-5.02,6.20,6.20,6.20
88.97,12.10,5.94,12.10,5.94,-5.94,-5.91,-5.04,6.17,6.17,6.16
89.86,12.07,5.94,12.08,5.95,-5.95,-5.92,-5.06,6.13,6.13,6.13
90.76,12.05,5.96,12.05,5.95,-5.95,-5.93,-5.09,6.10,6.09,6.10
91.66,12.01,5.96,12.02,5.96,-5.96,-5.94,-5.12,6.05,6.06,6.05
92.58,11.99,5.97,11.99,5.97,-5.97,-5.95,-5.16,6.02,6.02,6.03
93.51,11.96,5.97,11.97,5.97,-5.98,-5.96,-5.20,5.98,5.99,5.99
94.44,11.94,5.99,11.95,5.99,-5.99,-5.97,-5.24,5.95,5.96,5.96
95.39,11.92,6.01,11.92,6.00,-6.00,-5.98,-5.29,5.93,5.92,5.91
96.34,11.89,6.02,11.89,6.02,-6.01,-5.99,-5.34,5.89,5.89,5.88
97.30,11.85,6.01,11.86,6.02,-6.02,-5.99,-5.39,5.84,5.84,5.84
98.28,11.82,6.03,11.82,6.03,-6.03,-6.00,-5.45,5.80,5.79,5.79
99.26,11.78,6.03,11.79,6.03,-6.04,-6.00,-5.51,5.75,5.75,5.76
100.25,11.75,6.04,11.76,6.04,-6.05,-6.01,-5.57,5.71,5.71,5.72
101.25,11.73,6.04,11.74,6.05,-6.06,-6.01,-5.63,5.68,5.68,5.69
102.27,11.72,6.06,11.72,6.07,-6.07,-6.02,-5.70,5.66,5.66,5.66
103.29,11.71,6.09,11.71,6.08,-6.08,-6.02,-5.76,5.64,5.64,5.63
104.32,11.69,6.10,11.69,6.09,-6.08,-6.02,-5.83,5.61,5.61,5.60
105.37,11.66,6.09,11.66,6.09,-6.08,-6.03,-5.90,5.58,5.58,5.57
106.42,11.62,6.08,11.63,6.09,-6.08,-6.03,-5.97,5.55,5.55,5.54
107.48,11.58,6.08,11.59,6.08,-6.07,-6.03,-6.04,5.51,5.51,5.50
108.56,11.54,6.07,11.54,6.06,-6.07,-6.03,-6.11,5.48,5.48,5.48
109.64,11.49,6.05,11.50,6.05,-6.06,-6.03,-6.18,5.44,5.44,5.45
110.74,11.45,6.04,11.45,6.04,-6.06,-6.03,-6.24,5.40,5.40,5.41
111.85,11.41,6.04,11.42,6.04,-6.06,-6.03,-6.31,5.36,5.36,5.37
112.97,11.38,6.04,11.39,6.05,-6.06,-6.03,-6.37,5.32,5.33,5.35
114.10,11.37,6.06,11.37,6.06,-6.06,-6.03,-6.42,5.31,5.30,5.31
115.24,11.34,6.08,11.35,6.08,-6.07,-6.02,-6.48,5.28,5.28,5.26
116.39,11.32,6.10,11.32,6.09,-6.07,-6.02,-6.53,5.26,5.25,5.23
117.55,11.28,6.09,11.28,6.09,-6.07,-6.02,-6.57,5.22,5.21,5.19
118.73,11.23,6.08,11.23,6.07,-6.06,-6.01,-6.61,5.17,5.17,5.16
119.92,11.17,6.04,11.18,6.05,-6.06,-6.01,-6.64,5.12,5.12,5.13
121.12,11.13,6.03,11.14,6.03,-6.05,-6.01,-6.66,5.08,5.09,5.11
122.33,11.10,6.03,11.11,6.03,-6.04,-6.00,-6.68,5.06,5.06,5.08
123.55,11.08,6.03,11.08,6.03,-6.04,-6.00,-6.69,5.05,5.04,5.05
124.79,11.05,6.03,11.05,6.03,-6.03,-5.99,-6.69,5.02,5.02,5.02
126.03,11.01,6.03,11.02,6.03,-6.03,-5.98,-6.69,4.99,5.00,4.99
127.29,10.98,6.03,10.99,6.03,-6.02,-5.98,-6.68,4.96,4.96,4.96
128.57,10.95,6.04,10.94,6.02,-6.02,-5.97,-6.66,4.94,4.93,4.92
129.85,10.89,6.01,10.90,6.01,-6.01,-5.96,-6.63,4.89,4.89,4.89
131.15,10.84,6.00,10.85,6.00,-6.00,-5.95,-6.60,4.85,4.86,4.85
132.46,10.80,5.98,10.80,5.98,-5.98,-5.94,-6.56,4.82,4.82,4.82
133.79,10.75,5.97,10.75,5.96,-5.97,-5.94,-6.52,4.79,4.78,4.78
135.12,10.68,5.93,10.70,5.94,-5.95,-5.93,-6.47,4.74,4.75,4.76
136.48,10.64,5.91,10.65,5.92,-5.93,-5.92,-6.42,4.71,4.71,4.73
137.84,10.60,5.91,10.60,5.91,-5.91,-5.91,-6.36,4.69,4.69,4.70
139.22,10.56,5.90,10.56,5.90,-5.89,-5.90,-6.29,4.67,4.67,4.66
140.61,10.52,5.89,10.52,5.88,-5.87,-5.88,-6.23,4.66,4.65,4.64
142.02,10.45,5.85,10.46,5.86,-5.85,-5.87,-6.16,4.61,4.62,4.60
143.44,10.41,5.83,10.41,5.83,-5.83,-5.86,-6.09,4.59,4.58,4.58
144.87,10.35,5.79,10.35,5.80,-5.80,-5.85,-6.02,4.55,4.55,4.56
146.32,10.30,5.77,10.30,5.77,-5.78,-5.83,-5.95,4.52,4.52,4.53
147.78,10.25,5.74,10.26,5.75,-5.76,-5.82,-5.87,4.50,4.50,4.51
149.26,10.21,5.73,10.22,5.73,-5.74,-5.81,-5.80,4.48,4.48,4.48
150.75,10.18,5.73,10.18,5.72,-5.72,-5.79,-5.73,4.47,4.46,4.46
152.26,10.14,5.70,10.14,5.71,-5.70,-5.78,-5.66,4.45,4.45,4.44
153.78,10.09,5.68,10.10,5.68,-5.68,-5.76,-5.59,4.41,4.42,4.41
155.32,10.05,5.67,10.05,5.66,-5.66,-5.75,-5.52,4.39,4.39,4.39
156.88,9.99,5.63,10.00,5.64,-5.64,-5.73,-5.46,4.35,4.36,4.36
158.44,9.96,5.63,9.96,5.62,-5.62,-5.71,-5.40,4.34,4.33,4.33
160.03,9.90,5.60,9.91,5.60,-5.60,-5.70,-5.33,4.30,4.31,4.31
161.63,9.86,5.59,9.86,5.59,-5.58,-5.68,-5.28,4.29,4.28,4.28
163.24,9.81,5.57,9.81,5.56,-5.56,-5.66,-5.22,4.26,4.25,4.25
164.88,9.74,5.53,9.75,5.53,-5.54,-5.64,-5.17,4.21,4.21,4.22
166.53,9.68,5.51,9.69,5.51,-5.52,-5.62,-5.12,4.17,4.18,4.18
168.19,9.64,5.49,9.64,5.49,-5.49,-5.60,-5.08,4.15,4.15,4.16
169.87,9.59,5.47,9.60,5.48,-5.47,-5.58,-5.04,4.13,4.13,4.12
171.57,9.54,5.46,9.54,5.45,-5.44,-5.56,-5.00,4.10,4.10,4.09
173.29,9.49,5.44,9.48,5.43,-5.42,-5.54,-4.97,4.07,4.06,4.06
175.02,9.40,5.38,9.42,5.39,-5.40,-5.52,-4.94,4.01,4.02,4.02
176.77,9.35,5.37,9.35,5.36,-5.38,-5.49,-4.92,3.98,3.98,3.99
178.54,9.29,5.34,9.30,5.35,-5.35,-5.47,-4.90,3.94,3.94,3.96
180.32,9.25,5.34,9.25,5.33,-5.33,-5.45,-4.88,3.92,3.92,3.91
182.13,9.21,5.32,9.21,5.32,-5.31,-5.42,-4.86,3.91,3.90,3.89
183.95,9.14,5.29,9.15,5.30,-5.29,-5.40,-4.85,3.86,3.86,3.86
185.79,9.09,5.28,9.09,5.27,-5.27,-5.37,-4.85,3.83,3.82,3.82
187.65,9.02,5.24,9.03,5.24,-5.25,-5.35,-4.84,3.77,3.78,3.79
189.52,8.97,5.22,8.98,5.22,-5.23,-5.32,-4.84,3.74,3.75,3.76
191.42,8.93,5.21,8.93,5.20,-5.21,-5.29,-4.84,3.72,3.72,3.73
193.33,8.89,5.20,8.89,5.20,-5.19,-5.26,-4.85,3.70,3.70,3.70
195.27,8.84,5.18,8.85,5.18,-5.17,-5.24,-4.86,3.67,3.67,3.66
197.22,8.79,5.17,8.79,5.16,-5.15,-5.21,-4.87,3.65,3.64,3.62
199.19,8.73,5.13,8.73,5.14,-5.13,-5.18,-4.89,3.61,3.61,3.61
201.18,8.67,5.10,8.68,5.10,-5.10,-5.15,-4.90,3.57,3.58,3.57
203.19,8.62,5.07,8.62,5.07,-5.07,-5.12,-4.92,3.55,3.55,3.55
205.23,8.57,5.04,8.57,5.04,-5.05,-5.09,-4.94,3.53,3.53,3.54
207.28,8.52,5.01,8.53,5.01,-5.02,-5.05,-4.96,3.50,3.51,3.52
209.35,8.48,4.99,8.48,4.99,-5.00,-5.02,-4.99,3.49,3.49,3.49
211.44,8.44,4.98,8.44,4.97,-4.97,-4.99,-5.01,3.47,3.47,3.47
213.56,8.40,4.95,8.40,4.95,-4.95,-4.96,-5.04,3.45,3.45,3.45
215.69,8.36,4.93,8.37,4.93,-4.93,-4.92,-5.06,3.43,3.43,3.43
217.85,8.32,4.92,8.33,4.92,-4.91,-4.89,-5.08,3.41,3.42,3.41
220.03,8.29,4.91,8.29,4.90,-4.89,-4.85,-5.11,3.40,3.40,3.39
222.23,8.25,4.89,8.25,4.88,-4.87,-4.81,-5.13,3.38,3.37,3.37
224.45,8.19,4.84,8.20,4.85,-4.85,-4.78,-5.14,3.34,3.35,3.35
226.70,8.15,4.82,8.16,4.82,-4.83,-4.74,-5.16,3.32,3.32,3.33
228.96,8.12,4.79,8.13,4.80,-4.81,-4.70,-5.17,3.31,3.31,3.33
231.25,8.10,4.79,8.10,4.79,-4.79,-4.66,-5.18,3.31,3.31,3.31
233.57,8.08,4.78,8.08,4.78,-4.77,-4.62,-5.19,3.32,3.31,3.30
235.90,8.05,4.76,8.05,4.76,-4.74,-4.58,-5.19,3.31,3.31,3.29
238.26,8.01,4.74,8.02,4.73,-4.72,-4.54,-5.19,3.30,3.30,3.28
240.64,7.97,4.69,7.98,4.69,-4.69,-4.50,-5.17,3.28,3.28,3.29
243.05,7.93,4.66,7.93,4.66,-4.66,-4.46,-5.16,3.27,3.27,3.28
245.48,7.89,4.62,7.89,4.62,-4.63,-4.42,-5.14,3.26,3.26,3.27
247.93,7.85,4.59,7.86,4.59,-4.60,-4.38,-5.11,3.26,3.26,3.26
250.41,7.83,4.56,7.83,4.56,-4.56,-4.33,-5.08,3.27,3.27,3.28
252.92,7.80,4.53,7.80,4.53,-4.53,-4.29,-5.04,3.28,3.28,3.28
255.45,7.77,4.50,7.77,4.50,-4.49,-4.24,-4.99,3.29,3.28,3.27
258.00,7.73,4.46,7.73,4.46,-4.45,-4.20,-4.94,3.29,3.29,3.27
260.58,7.68,4.41,7.69,4.41,-4.40,-4.15,-4.89,3.28,3.28,3.28
263.19,7.64,4.36,7.64,4.36,-4.36,-4.10,-4.82,3.29,3.28,3.28
265.82,7.58,4.31,7.59,4.31,-4.32,-4.06,-4.75,3.27,3.28,3.28
268.48,7.54,4.26,7.54,4.26,-4.27,-4.01,-4.68,3.27,3.27,3.28
271.16,7.49,4.21,7.49,4.21,-4.22,-3.96,-4.60,3.27,3.26,3.29
273.87,7.43,4.15,7.45,4.16,-4.18,-3.91,-4.52,3.26,3.27,3.28
276.61,7.40,4.12,7.41,4.13,-4.13,-3.86,-4.43,3.28,3.28,3.28
279.38,7.37,4.10,7.37,4.09,-4.07,-3.81,-4.34,3.30,3.29,3.27
282.17,7.32,4.05,7.32,4.04,-4.02,-3.76,-4.25,3.31,3.30,3.28
284.99,7.25,3.96,7.25,3.97,-3.96,-3.71,-4.15,3.30,3.30,3.29
287.84,7.17,3.88,7.18,3.89,-3.89,-3.65,-4.05,3.28,3.29,3.30
290.72,7.11,3.82,7.11,3.81,-3.82,-3.60,-3.95,3.29,3.29,3.29
293.63,7.05,3.75,7.05,3.75,-3.75,-3.55,-3.85,3.30,3.30,3.31
296.57,6.98,3.67,6.99,3.67,-3.68,-3.49,-3.74,3.31,3.31,3.31
299.53,6.92,3.60,6.92,3.60,-3.60,-3.44,-3.64,3.32,3.32,3.32
302.53,6.85,3.52,6.86,3.53,-3.53,-3.38,-3.54,3.33,3.33,3.34
305.55,6.80,3.47,6.80,3.46,-3.46,-3.33,-3.43,3.35,3.34,3.33
308.61,6.73,3.38,6.73,3.38,-3.39,-3.27,-3.33,3.35,3.35,3.35
311.69,6.66,3.31,6.67,3.31,-3.31,-3.21,-3.22,3.35,3.36,3.36
314.81,6.60,3.24,6.61,3.24,-3.24,-3.15,-3.12,3.37,3.37,3.36
317.96,6.54,3.17,6.55,3.17,-3.17,-3.09,-3.01,3.38,3.38,3.37
321.14,6.48,3.10,6.48,3.10,-3.09,-3.04,-2.91,3.39,3.39,3.39
324.35,6.41,3.03,6.41,3.02,-3.02,-2.97,-2.81,3.39,3.39,3.39
327.59,6.33,2.92,6.35,2.94,-2.95,-2.91,-2.71,3.39,3.40,3.41
330.87,6.28,2.87,6.28,2.87,-2.88,-2.85,-2.61,3.41,3.41,3.41
334.18,6.22,2.81,6.22,2.80,-2.80,-2.79,-2.52,3.42,3.42,3.42
337.52,6.16,2.74,6.17,2.74,-2.73,-2.73,-2.42,3.44,3.44,3.43
340.90,6.10,2.66,6.10,2.66,-2.66,-2.67,-2.33,3.45,3.44,3.44
344.30,6.02,2.57,6.03,2.58,-2.58,-2.60,-2.23,3.44,3.45,3.45
347.75,5.95,2.50,5.96,2.50,-2.50,-2.54,-2.14,3.45,3.46,3.46
351.23,5.89,2.44,5.89,2.43,-2.43,-2.47,-2.05,3.47,3.47,3.46
354.74,5.83,2.35,5.83,2.35,-2.35,-2.41,-1.96,3.49,3.48,3.49
358.28,5.75,2.27,5.76,2.27,-2.27,-2.34,-1.88,3.49,3.49,3.48
361.87,5.68,2.19,5.68,2.18,-2.19,-2.28,-1.79,3.50,3.49,3.49
365.49,5.59,2.09,5.61,2.10,-2.11,-2.21,-1.71,3.49,3.50,3.50
369.14,5.53,2.02,5.54,2.02,-2.03,-2.14,-1.62,3.50,3.51,3.52
372.83,5.48,1.96,5.47,1.95,-1.95,-2.07,-1.54,3.53,3.52,3.53
376.56,5.40,1.88,5.41,1.88,-1.88,-2.00,-1.46,3.53,3.53,3.53
380.33,5.33,1.80,5.34,1.80,-1.80,-1.93,-1.39,3.53,3.54,3.53
384.13,5.27,1.72,5.27,1.73,-1.73,-1.86,-1.31,3.55,3.55,3.55
387.97,5.21,1.65,5.21,1.65,-1.65,-1.79,-1.23,3.56,3.56,3.56
391.85,5.15,1.58,5.15,1.58,-1.58,-1.72,-1.16,3.58,3.57,3.57
395.77,5.08,1.51,5.08,1.50,-1.50,-1.65,-1.09,3.58,3.58,3.58
399.73,5.01,1.43,5.02,1.42,-1.42,-1.58,-1.02,3.59,3.59,3.59
403.72,4.94,1.33,4.95,1.34,-1.34,-1.51,-0.95,3.60,3.60,3.62
407.76,4.88,1.27,4.88,1.26,-1.26,-1.43,-0.88,3.62,3.62,3.62
411.84,4.81,1.19,4.81,1.19,-1.18,-1.36,-0.81,3.63,3.63,3.62
415.96,4.74,1.10,4.74,1.11,-1.10,-1.29,-0.74,3.64,3.64,3.64
420.12,4.66,1.02,4.66,1.02,-1.02,-1.21,-0.67,3.64,3.64,3.64
424.32,4.58,0.93,4.60,0.94,-0.94,-1.14,-0.61,3.64,3.65,3.65
428.56,4.53,0.86,4.53,0.86,-0.87,-1.06,-0.55,3.67,3.66,3.67
432.85,4.47,0.79,4.47,0.79,-0.79,-0.98,-0.48,3.68,3.67,3.68
437.18,4.39,0.72,4.40,0.72,-0.71,-0.91,-0.42,3.68,3.69,3.68
441.55,4.32,0.64,4.33,0.64,-0.64,-0.83,-0.36,3.69,3.69,3.69
445.96,4.26,0.57,4.26,0.56,-0.56,-0.75,-0.30,3.70,3.70,3.70
450.42,4.19,0.49,4.20,0.49,-0.49,-0.67,-0.24,3.71,3.71,3.71
454.93,4.13,0.42,4.13,0.41,-0.41,-0.59,-0.18,3.72,3.72,3.72
459.48,4.06,0.34,4.07,0.34,-0.34,-0.52,-0.13,3.73,3.73,3.73
464.07,3.99,0.25,4.00,0.26,-0.26,-0.44,-0.07,3.73,3.74,3.74
468.71,3.94,0.19,3.94,0.18,-0.19,-0.36,-0.02,3.76,3.75,3.75
473.40,3.87,0.11,3.88,0.11,-0.11,-0.28,0.04,3.76,3.76,3.76
478.13,3.81,0.04,3.82,0.04,-0.04,-0.20,0.09,3.77,3.78,3.77
482.91,3.75,-0.03,3.75,-0.03,0.03,-0.12,0.14,3.79,3.78,3.78
487.74,3.68,-0.11,3.68,-0.11,0.11,-0.03,0.20,3.79,3.79,3.79
492.62,3.61,-0.19,3.62,-0.18,0.18,0.05,0.25,3.79,3.80,3.80
497.55,3.55,-0.26,3.56,-0.25,0.26,0.13,0.30,3.81,3.81,3.81
502.52,3.50,-0.32,3.50,-0.33,0.33,0.21,0.35,3.84,3.83,3.82
507.55,3.43,-0.41,3.43,-0.40,0.41,0.29,0.39,3.84,3.84,3.84
512.62,3.36,-0.48,3.36,-0.49,0.49,0.38,0.44,3.85,3.85,3.85
