frequency,raw,error,smoothed,error_smoothed,equalization,parametric_eq,fixed_band_eq,equalized_raw,equalized_smoothed,target
20.00,-9.79,-11.83,-9.79,-11.82,6.00,6.44,2.89,-3.79,-3.79,2.03
20.20,-9.74,-11.82,-9.75,-11.82,6.00,6.43,2.97,-3.74,-3.75,2.07
20.40,-9.70,-11.81,-9.71,-11.81,6.00,6.43,3.05,-3.70,-3.71,2.10
20.61,-9.65,-11.79,-9.66,-11.80,6.00,6.42,3.14,-3.65,-3.66,2.13
20.81,-9.60,-11.78,-9.61,-11.78,6.00,6.42,3.23,-3.60,-3.61,2.17
21.02,-9.55,-11.77,-9.54,-11.74,6.00,6.41,3.32,-3.55,-3.54,2.21
21.23,-9.45,-11.68,-9.46,-11.68,6.00,6.40,3.41,-3.45,-3.46,2.22
21.44,-9.35,-11.59,-9.36,-11.60,6.00,6.40,3.51,-3.35,-3.36,2.24
21.66,-9.26,-11.52,-9.25,-11.51,6.00,6.39,3.61,-3.26,-3.25,2.26
21.87,-9.15,-11.42,-9.15,-11.42,6.00,6.38,3.72,-3.15,-3.15,2.27
22.09,-9.04,-11.33,-9.04,-11.33,6.00,6.37,3.82,-3.04,-3.04,2.29
22.31,-8.93,-11.22,-8.93,-11.23,6.00,6.37,3.93,-2.93,-2.93,2.29
22.54,-8.83,-11.13,-8.82,-11.12,6.00,6.36,4.04,-2.83,-2.82,2.30
22.76,-8.71,-11.02,-8.72,-11.02,6.00,6.35,4.15,-2.71,-2.72,2.31
22.99,-8.61,-10.92,-8.61,-10.93,6.00,6.34,4.27,-2.61,-2.61,2.31
23.22,-8.51,-10.83,-8.52,-10.83,6.00,6.34,4.39,-2.51,-2.52,2.32
23.45,-8.42,-10.75,-8.42,-10.75,6.00,6.33,4.51,-2.42,-2.42,2.33
23.69,-8.33,-10.66,-8.32,-10.66,6.00,6.32,4.64,-2.33,-2.32,2.34
23.92,-8.23,-10.58,-8.24,-10.59,6.00,6.31,4.76,-2.23,-2.24,2.35
24.16,-8.16,-10.52,-8.17,-10.53,6.00,6.30,4.90,-2.16,-2.17,2.36
24.40,-8.11,-10.48,-8.11,-10.47,6.00,6.29,5.03,-2.11,-2.11,2.37
24.65,-8.05,-10.41,-8.05,-10.41,6.00,6.29,5.16,-2.05,-2.05,2.36
24.89,-7.99,-10.35,-7.99,-10.35,6.00,6.28,5.30,-1.99,-1.99,2.36
25.14,-7.92,-10.28,-7.92,-10.28,6.00,6.27,5.44,-1.92,-1.92,2.36
25.39,-7.84,-10.20,-7.85,-10.20,6.00,6.26,5.57,-1.84,-1.85,2.35
25.65,-7.76,-10.12,-7.77,-10.12,6.00,6.25,5.72,-1.76,-1.77,2.35
25.91,-7.69,-10.03,-7.68,-10.03,6.00,6.24,5.86,-1.69,-1.68,2.34
26.16,-7.59,-9.95,-7.59,-9.94,6.00,6.23,6.00,-1.59,-1.59,2.35
26.43,-7.50,-9.85,-7.49,-9.84,6.00,6.22,6.14,-1.50,-1.49,2.35
26.69,-7.39,-9.75,-7.40,-9.75,6.00,6.21,6.27,-1.39,-1.40,2.35
26.96,-7.30,-9.66,-7.31,-9.66,6.00,6.20,6.41,-1.30,-1.31,2.35
27.23,-7.23,-9.59,-7.24,-9.59,6.00,6.18,6.55,-1.23,-1.24,2.35
27.50,-7.17,-9.52,-7.18,-9.53,6.00,6.17,6.68,-1.17,-1.18,2.35
27.77,-7.12,-9.46,-7.12,-9.46,6.00,6.16,6.81,-1.12,-1.12,2.34
28.05,-7.05,-9.39,-7.03,-9.37,6.00,6.15,6.93,-1.05,-1.03,2.34
28.33,-6.91,-9.24,-6.92,-9.25,6.00,6.14,7.05,-0.91,-0.92,2.33
28.62,-6.79,-9.12,-6.79,-9.12,6.00,6.13,7.16,-0.79,-0.79,2.34
28.90,-6.65,-8.99,-6.66,-9.00,6.00,6.11,7.26,-0.65,-0.66,2.34
29.19,-6.56,-8.89,-6.57,-8.90,6.00,6.10,7.36,-0.56,-0.57,2.32
29.48,-6.49,-8.83,-6.49,-8.82,6.00,6.09,7.44,-0.49,-0.49,2.33
29.78,-6.42,-8.76,-6.42,-8.76,6.00,6.07,7.52,-0.42,-0.42,2.33
30.08,-6.36,-8.70,-6.37,-8.70,6.00,6.06,7.58,-0.36,-0.37,2.33
30.38,-6.31,-8.64,-6.32,-8.64,6.00,6.05,7.63,-0.31,-0.32,2.32
30.68,-6.26,-8.58,-6.27,-8.58,6.00,6.03,7.67,-0.26,-0.27,2.32
30.99,-6.21,-8.52,-6.20,-8.51,6.00,6.02,7.71,-0.21,-0.20,2.31
31.30,-6.12,-8.43,-6.12,-8.43,6.00,6.00,7.72,-0.12,-0.12,2.31
31.61,-6.03,-8.34,-6.04,-8.34,6.00,5.99,7.73,-0.03,-0.04,2.31
31.93,-5.95,-8.24,-5.95,-8.24,6.00,5.97,7.72,0.05,0.05,2.30
32.24,-5.87,-8.16,-5.87,-8.16,6.00,5.96,7.70,0.13,0.13,2.28
32.57,-5.80,-8.09,-5.80,-8.08,6.00,5.94,7.67,0.20,0.20,2.28
32.89,-5.73,-8.01,-5.73,-8.01,6.00,5.92,7.63,0.27,0.27,2.28
33.22,-5.65,-7.93,-5.65,-7.93,6.00,5.91,7.57,0.35,0.35,2.28
33.55,-5.57,-7.85,-5.57,-7.85,6.00,5.89,7.51,0.43,0.43,2.28
33.89,-5.49,-7.77,-5.50,-7.77,6.00,5.87,7.44,0.51,0.50,2.28
34.23,-5.42,-7.70,-5.43,-7.70,6.00,5.85,7.36,0.58,0.57,2.27
34.57,-5.37,-7.64,-5.37,-7.64,6.00,5.83,7.27,0.63,0.63,2.26
34.92,-5.31,-7.57,-5.30,-7.57,6.00,5.81,7.18,0.69,0.70,2.26
35.27,-5.22,-7.48,-5.22,-7.47,6.00,5.80,7.08,0.78,0.78,2.26
35.62,-5.12,-7.37,-5.12,-7.37,6.00,5.78,6.98,0.88,0.88,2.25
35.97,-5.02,-7.27,-5.05,-7.29,6.00,5.76,6.88,0.98,0.95,2.24
36.33,-5.00,-7.25,-5.01,-7.25,6.00,5.73,6.77,1.00,0.99,2.24
36.70,-4.98,-7.22,-4.97,-7.21,6.00,5.71,6.66,1.02,1.03,2.24
37.06,-4.95,-7.18,-4.94,-7.17,6.00,5.69,6.55,1.05,1.06,2.23
37.43,-4.86,-7.09,-4.87,-7.09,6.00,5.67,6.44,1.14,1.13,2.23
37.81,-4.78,-7.01,-4.79,-7.01,6.00,5.65,6.33,1.22,1.21,2.22
38.19,-4.70,-6.91,-4.71,-6.92,6.00,5.62,6.22,1.30,1.29,2.21
38.57,-4.63,-6.84,-4.63,-6.84,6.00,5.60,6.12,1.37,1.37,2.21
38.95,-4.56,-6.77,-4.56,-6.76,6.00,5.58,6.01,1.44,1.44,2.20
39.34,-4.47,-6.66,-4.47,-6.67,6.00,5.55,5.90,1.53,1.53,2.19
39.74,-4.38,-6.56,-4.39,-6.57,6.00,5.53,5.80,1.62,1.61,2.18
40.14,-4.29,-6.48,-4.29,-6.47,6.00,5.50,5.70,1.71,1.72,2.19
40.54,-4.20,-6.39,-4.20,-6.38,6.01,5.47,5.61,1.81,1.81,2.18
40.94,-4.11,-6.29,-4.14,-6.32,6.02,5.45,5.51,1.91,1.88,2.18
41.35,-4.10,-6.27,-4.11,-6.27,6.02,5.42,5.42,1.91,1.91,2.16
41.76,-4.09,-6.24,-4.08,-6.23,6.00,5.39,5.34,1.91,1.92,2.15
42.18,-4.05,-6.19,-4.04,-6.17,5.97,5.36,5.25,1.92,1.94,2.14
42.60,-3.95,-6.07,-3.96,-6.08,5.94,5.33,5.17,1.98,1.98,2.11
43.03,-3.85,-5.95,-3.85,-5.95,5.89,5.30,5.10,2.04,2.03,2.10
43.46,-3.76,-5.84,-3.75,-5.82,5.83,5.27,5.02,2.07,2.08,2.07
43.90,-3.66,-5.70,-3.69,-5.72,5.77,5.24,4.96,2.11,2.08,2.03
44.33,-3.64,-5.65,-3.65,-5.65,5.70,5.21,4.89,2.06,2.05,2.00
44.78,-3.64,-5.61,-3.63,-5.60,5.62,5.18,4.83,1.98,1.99,1.97
45.23,-3.62,-5.57,-3.62,-5.57,5.55,5.15,4.77,1.93,1.93,1.95
45.68,-3.59,-5.51,-3.59,-5.52,5.49,5.11,4.72,1.90,1.90,1.92
46.13,-3.55,-5.46,-3.54,-5.44,5.44,5.08,4.67,1.89,1.90,1.90
46.60,-3.47,-5.37,-3.48,-5.37,5.39,5.04,4.62,1.92,1.91,1.90
47.06,-3.41,-5.30,-3.44,-5.33,5.34,5.00,4.58,1.93,1.90,1.88
47.53,-3.41,-5.29,-3.41,-5.29,5.29,4.97,4.54,1.88,1.88,1.88
48.01,-3.41,-5.29,-3.39,-5.27,5.24,4.93,4.50,1.83,1.85,1.88
48.49,-3.35,-5.23,-3.35,-5.23,5.19,4.89,4.47,1.84,1.84,1.87
48.97,-3.28,-5.15,-3.29,-5.16,5.15,4.85,4.44,1.87,1.86,1.87
49.46,-3.23,-5.09,-3.23,-5.09,5.12,4.81,4.41,1.89,1.89,1.86
49.96,-3.18,-5.05,-3.20,-5.06,5.10,4.77,4.39,1.92,1.90,1.86
50.46,-3.18,-5.06,-3.18,-5.06,5.08,4.73,4.36,1.90,1.90,1.87
50.96,-3.18,-5.07,-3.18,-5.06,5.06,4.68,4.34,1.88,1.88,1.89
51.47,-3.18,-5.06,-3.18,-5.06,5.05,4.64,4.32,1.87,1.87,1.88
51.99,-3.18,-5.05,-3.18,-5.06,5.04,4.59,4.31,1.85,1.85,1.87
52.51,-3.18,-5.05,-3.18,-5.04,5.01,4.55,4.29,1.83,1.83,1.86
53.03,-3.18,-5.03,-3.18,-5.02,4.99,4.50,4.28,1.81,1.81,1.84
53.56,-3.18,-5.00,-3.18,-5.00,4.96,4.45,4.26,1.78,1.78,1.81
54.10,-3.18,-4.96,-3.18,-4.96,4.94,4.40,4.25,1.76,1.76,1.77
54.64,-3.18,-4.92,-3.17,-4.90,4.94,4.35,4.24,1.75,1.77,1.73
55.18,-3.18,-4.88,-3.17,-4.86,4.95,4.30,4.22,1.77,1.78,1.69
55.74,-3.18,-4.83,-3.24,-4.88,4.98,4.25,4.21,1.80,1.74,1.64
56.29,-3.33,-4.93,-3.36,-4.96,5.02,4.19,4.20,1.70,1.66,1.60
56.86,-3.57,-5.12,-3.49,-5.04,5.06,4.14,4.18,1.49,1.57,1.55
57.42,-3.64,-5.13,-3.63,-5.12,5.09,4.08,4.17,1.44,1.46,1.49
58.00,-3.64,-5.08,-3.73,-5.17,5.08,4.02,4.15,1.44,1.35,1.43
58.58,-3.77,-5.16,-3.75,-5.14,5.04,3.96,4.13,1.26,1.29,1.38
59.16,-3.79,-5.13,-3.70,-5.03,4.94,3.90,4.11,1.15,1.25,1.34
59.76,-3.54,-4.82,-3.58,-4.86,4.79,3.84,4.08,1.26,1.21,1.29
60.35,-3.33,-4.55,-3.38,-4.61,4.59,3.78,4.05,1.26,1.21,1.22
60.96,-3.19,-4.37,-3.15,-4.32,4.35,3.71,4.02,1.16,1.20,1.18
61.57,-2.96,-4.07,-2.96,-4.07,4.09,3.64,3.99,1.14,1.14,1.11
62.18,-2.73,-3.79,-2.75,-3.82,3.84,3.57,3.95,1.11,1.08,1.06
62.80,-2.55,-3.57,-2.54,-3.55,3.60,3.50,3.91,1.05,1.07,1.02
63.43,-2.36,-3.34,-2.35,-3.32,3.39,3.42,3.87,1.03,1.04,0.97
64.07,-2.16,-3.10,-2.19,-3.13,3.20,3.35,3.82,1.04,1.01,0.94
64.71,-2.08,-2.98,-2.10,-3.00,3.04,3.27,3.77,0.95,0.93,0.90
65.35,-2.04,-2.90,-2.05,-2.91,2.89,3.19,3.72,0.84,0.84,0.86
66.01,-2.04,-2.88,-2.00,-2.83,2.75,3.10,3.66,0.71,0.76,0.83
66.67,-1.89,-2.70,-1.88,-2.69,2.63,3.01,3.60,0.74,0.75,0.80
67.33,-1.74,-2.53,-1.76,-2.54,2.52,2.93,3.54,0.78,0.76,0.78
68.01,-1.59,-2.36,-1.64,-2.40,2.42,2.83,3.48,0.83,0.78,0.76
68.69,-1.57,-2.32,-1.54,-2.28,2.32,2.74,3.41,0.75,0.79,0.74
69.37,-1.48,-2.20,-1.46,-2.18,2.22,2.65,3.34,0.74,0.76,0.72
70.07,-1.36,-2.06,-1.41,-2.12,2.13,2.55,3.27,0.76,0.72,0.70
70.77,-1.36,-2.06,-1.37,-2.07,2.04,2.45,3.19,0.68,0.67,0.70
71.48,-1.36,-2.04,-1.33,-2.01,1.98,2.36,3.12,0.61,0.65,0.67
72.19,-1.31,-1.97,-1.28,-1.94,1.92,2.26,3.04,0.60,0.64,0.66
72.91,-1.15,-1.79,-1.20,-1.84,1.86,2.18,2.97,0.70,0.65,0.64
73.64,-1.13,-1.76,-1.15,-1.77,1.79,2.09,2.89,0.66,0.64,0.62
74.38,-1.13,-1.74,-1.13,-1.73,1.72,2.01,2.81,0.59,0.60,0.61
75.12,-1.12,-1.70,-1.11,-1.69,1.65,1.94,2.73,0.53,0.54,0.58
75.87,-1.08,-1.65,-1.05,-1.62,1.59,1.88,2.65,0.51,0.54,0.56
76.63,-0.96,-1.51,-0.98,-1.53,1.55,1.82,2.58,0.58,0.56,0.55
77.40,-0.90,-1.44,-0.93,-1.46,1.51,1.77,2.50,0.60,0.58,0.54
78.17,-0.90,-1.42,-0.90,-1.42,1.47,1.72,2.42,0.57,0.58,0.52
78.95,-0.90,-1.43,-0.90,-1.42,1.44,1.68,2.34,0.54,0.54,0.52
79.74,-0.90,-1.43,-0.91,-1.42,1.40,1.63,2.27,0.50,0.49,0.52
80.54,-0.90,-1.42,-0.92,-1.43,1.37,1.59,2.19,0.46,0.45,0.51
81.35,-0.90,-1.42,-0.88,-1.39,1.34,1.55,2.12,0.44,0.46,0.51
82.16,-0.85,-1.37,-0.81,-1.33,1.32,1.51,2.04,0.47,0.51,0.52
82.98,-0.67,-1.21,-0.74,-1.27,1.31,1.47,1.97,0.63,0.57,0.54
83.81,-0.67,-1.22,-0.68,-1.22,1.29,1.43,1.90,0.62,0.61,0.55
84.65,-0.67,-1.23,-0.66,-1.22,1.27,1.39,1.83,0.59,0.61,0.55
85.50,-0.67,-1.25,-0.68,-1.25,1.24,1.34,1.76,0.57,0.56,0.58
86.35,-0.67,-1.27,-0.68,-1.27,1.22,1.29,1.69,0.54,0.54,0.60
87.22,-0.66,-1.28,-0.64,-1.26,1.20,1.24,1.62,0.54,0.56,0.61
88.09,-0.61,-1.24,-0.58,-1.21,1.19,1.19,1.55,0.58,0.61,0.63
88.97,-0.46,-1.13,-0.51,-1.17,1.19,1.14,1.49,0.72,0.67,0.66
89.86,-0.45,-1.13,-0.46,-1.13,1.18,1.09,1.42,0.73,0.72,0.68
90.76,-0.45,-1.13,-0.44,-1.13,1.18,1.04,1.36,0.72,0.74,0.68
91.66,-0.45,-1.16,-0.45,-1.15,1.17,0.99,1.30,0.71,0.72,0.70
92.58,-0.45,-1.15,-0.45,-1.16,1.16,0.93,1.23,0.71,0.71,0.70
93.51,-0.45,-1.17,-0.46,-1.17,1.15,0.88,1.17,0.69,0.69,0.72
94.44,-0.45,-1.17,-0.46,-1.18,1.13,0.82,1.12,0.68,0.67,0.72
95.39,-0.45,-1.18,-0.44,-1.16,1.11,0.77,1.06,0.65,0.66,0.72
96.34,-0.41,-1.12,-0.39,-1.10,1.08,0.72,1.00,0.66,0.69,0.70
97.30,-0.30,-1.01,-0.32,-1.02,1.04,0.66,0.94,0.73,0.72,0.71
98.28,-0.22,-0.92,-0.25,-0.95,1.00,0.61,0.89,0.77,0.74,0.70
99.26,-0.22,-0.91,-0.22,-0.91,0.95,0.56,0.83,0.73,0.74,0.69
100.25,-0.22,-0.90,-0.22,-0.89,0.91,0.50,0.78,0.69,0.70,0.68
101.25,-0.22,-0.88,-0.22,-0.88,0.88,0.45,0.73,0.66,0.66,0.66
102.27,-0.22,-0.87,-0.22,-0.86,0.85,0.40,0.68,0.63,0.63,0.64
103.29,-0.22,-0.84,-0.22,-0.84,0.83,0.35,0.63,0.60,0.60,0.61
104.32,-0.22,-0.82,-0.22,-0.82,0.80,0.30,0.58,0.58,0.58,0.59
105.37,-0.22,-0.79,-0.22,-0.79,0.78,0.25,0.53,0.55,0.55,0.56
106.42,-0.22,-0.75,-0.22,-0.75,0.74,0.20,0.48,0.51,0.51,0.52
107.48,-0.22,-0.70,-0.22,-0.70,0.69,0.16,0.44,0.47,0.47,0.47
108.56,-0.22,-0.64,-0.22,-0.64,0.65,0.11,0.39,0.42,0.42,0.42
109.64,-0.22,-0.59,-0.22,-0.59,0.60,0.07,0.35,0.38,0.38,0.37
110.74,-0.22,-0.54,-0.22,-0.54,0.55,0.02,0.31,0.33,0.33,0.32
111.85,-0.22,-0.49,-0.22,-0.49,0.50,-0.02,0.27,0.27,0.27,0.27
112.97,-0.22,-0.42,-0.22,-0.43,0.44,-0.06,0.23,0.21,0.21,0.20
114.10,-0.22,-0.37,-0.22,-0.37,0.36,-0.10,0.19,0.14,0.14,0.15
115.24,-0.22,-0.32,-0.24,-0.33,0.29,-0.14,0.15,0.06,0.05,0.09
116.39,-0.22,-0.26,-0.22,-0.25,0.21,-0.17,0.12,-0.02,-0.01,0.03
117.55,-0.21,-0.20,-0.16,-0.15,0.13,-0.21,0.08,-0.09,-0.04,-0.01
118.73,-0.05,0.01,-0.09,-0.03,0.05,-0.24,0.05,-0.00,-0.04,-0.06
119.92,0.01,0.09,-0.02,0.07,-0.02,-0.28,0.02,-0.02,-0.04,-0.09
121.12,0.01,0.13,0.02,0.14,-0.08,-0.31,-0.01,-0.08,-0.06,-0.12
122.33,0.01,0.16,0.01,0.16,-0.14,-0.34,-0.04,-0.13,-0.12,-0.15
123.55,0.01,0.16,0.01,0.17,-0.18,-0.37,-0.07,-0.18,-0.18,-0.16
124.79,0.01,0.19,0.01,0.19,-0.21,-0.39,-0.09,-0.21,-0.21,-0.18
126.03,0.01,0.20,0.01,0.20,-0.24,-0.42,-0.11,-0.23,-0.23,-0.20
127.29,0.01,0.22,0.01,0.22,-0.24,-0.45,-0.13,-0.24,-0.24,-0.21
128.57,0.01,0.24,0.01,0.24,-0.24,-0.47,-0.16,-0.23,-0.23,-0.24
129.85,0.01,0.26,0.02,0.27,-0.23,-0.49,-0.17,-0.22,-0.21,-0.25
131.15,0.01,0.27,0.01,0.27,-0.22,-0.51,-0.19,-0.22,-0.21,-0.26
132.46,0.01,0.29,-0.04,0.24,-0.21,-0.53,-0.21,-0.21,-0.26,-0.28
133.79,-0.13,0.16,-0.12,0.18,-0.20,-0.55,-0.22,-0.34,-0.32,-0.30
135.12,-0.22,0.10,-0.19,0.13,-0.19,-0.57,-0.24,-0.41,-0.37,-0.33
136.48,-0.22,0.12,-0.23,0.11,-0.16,-0.59,-0.25,-0.38,-0.39,-0.34
137.84,-0.22,0.14,-0.22,0.15,-0.13,-0.60,-0.26,-0.35,-0.35,-0.36
139.22,-0.22,0.18,-0.22,0.17,-0.10,-0.61,-0.27,-0.33,-0.33,-0.40
140.61,-0.22,0.20,-0.26,0.16,-0.10,-0.63,-0.28,-0.32,-0.36,-0.43
142.02,-0.33,0.10,-0.34,0.10,-0.11,-0.64,-0.29,-0.45,-0.46,-0.44
143.44,-0.42,0.04,-0.40,0.07,-0.14,-0.65,-0.30,-0.56,-0.54,-0.46
144.87,-0.45,0.04,-0.40,0.09,-0.18,-0.66,-0.31,-0.63,-0.57,-0.49
146.32,-0.30,0.22,-0.33,0.19,-0.22,-0.66,-0.31,-0.53,-0.56,-0.53
147.78,-0.22,0.33,-0.26,0.30,-0.28,-0.67,-0.32,-0.50,-0.54,-0.55
149.26,-0.22,0.39,-0.21,0.40,-0.34,-0.68,-0.33,-0.57,-0.56,-0.61
150.75,-0.22,0.45,-0.22,0.45,-0.43,-0.68,-0.34,-0.65,-0.64,-0.68
152.26,-0.22,0.51,-0.22,0.51,-0.52,-0.69,-0.34,-0.74,-0.74,-0.73
153.78,-0.22,0.57,-0.22,0.58,-0.60,-0.69,-0.35,-0.83,-0.83,-0.79
155.32,-0.22,0.65,-0.22,0.65,-0.67,-0.69,-0.36,-0.89,-0.89,-0.88
156.88,-0.22,0.72,-0.22,0.72,-0.71,-0.69,-0.36,-0.93,-0.93,-0.94
158.44,-0.22,0.78,-0.21,0.79,-0.74,-0.69,-0.37,-0.96,-0.95,-1.00
160.03,-0.22,0.84,-0.22,0.84,-0.77,-0.69,-0.38,-0.99,-0.99,-1.06
161.63,-0.22,0.89,-0.28,0.83,-0.81,-0.69,-0.38,-1.03,-1.08,-1.11
163.24,-0.36,0.79,-0.36,0.80,-0.84,-0.69,-0.39,-1.20,-1.20,-1.15
164.88,-0.45,0.73,-0.40,0.78,-0.87,-0.68,-0.40,-1.33,-1.28,-1.18
166.53,-0.41,0.80,-0.39,0.82,-0.91,-0.68,-0.41,-1.32,-1.30,-1.21
168.19,-0.29,0.94,-0.32,0.91,-0.93,-0.67,-0.42,-1.22,-1.25,-1.23
169.87,-0.22,1.02,-0.25,0.99,-0.95,-0.67,-0.43,-1.17,-1.20,-1.24
171.57,-0.22,1.01,-0.22,1.02,-0.95,-0.66,-0.44,-1.17,-1.17,-1.24
173.29,-0.22,1.00,-0.20,1.02,-0.94,-0.65,-0.45,-1.17,-1.14,-1.22
175.02,-0.22,0.98,-0.23,0.98,-0.93,-0.65,-0.46,-1.15,-1.15,-1.20
176.77,-0.22,0.97,-0.29,0.91,-0.89,-0.64,-0.47,-1.12,-1.18,-1.20
178.54,-0.40,0.78,-0.36,0.82,-0.85,-0.63,-0.48,-1.25,-1.21,-1.18
180.32,-0.45,0.71,-0.43,0.74,-0.80,-0.62,-0.49,-1.25,-1.22,-1.17
182.13,-0.45,0.70,-0.47,0.69,-0.75,-0.61,-0.50,-1.20,-1.22,-1.15
183.95,-0.45,0.69,-0.46,0.69,-0.72,-0.60,-0.52,-1.17,-1.18,-1.15
185.79,-0.45,0.70,-0.45,0.70,-0.70,-0.59,-0.53,-1.15,-1.15,-1.15
187.65,-0.45,0.71,-0.45,0.71,-0.70,-0.58,-0.54,-1.15,-1.15,-1.16
189.52,-0.45,0.72,-0.45,0.72,-0.70,-0.56,-0.56,-1.16,-1.16,-1.18
191.42,-0.45,0.74,-0.45,0.74,-0.72,-0.55,-0.57,-1.17,-1.17,-1.19
193.33,-0.45,0.75,-0.45,0.74,-0.74,-0.54,-0.59,-1.19,-1.19,-1.20
195.27,-0.45,0.75,-0.45,0.75,-0.76,-0.52,-0.60,-1.21,-1.21,-1.20
197.22,-0.45,0.76,-0.45,0.77,-0.78,-0.51,-0.62,-1.23,-1.23,-1.21
199.19,-0.45,0.79,-0.45,0.78,-0.79,-0.50,-0.63,-1.25,-1.25,-1.25
201.18,-0.45,0.79,-0.45,0.80,-0.81,-0.48,-0.65,-1.26,-1.26,-1.25
203.19,-0.45,0.80,-0.45,0.81,-0.81,-0.47,-0.66,-1.26,-1.26,-1.26
205.23,-0.45,0.82,-0.44,0.83,-0.80,-0.45,-0.68,-1.25,-1.24,-1.28
207.28,-0.45,0.82,-0.45,0.83,-0.78,-0.44,-0.69,-1.24,-1.23,-1.28
209.35,-0.45,0.84,-0.50,0.80,-0.76,-0.42,-0.71,-1.22,-1.26,-1.29
211.44,-0.57,0.74,-0.56,0.74,-0.74,-0.40,-0.72,-1.31,-1.30,-1.31
213.56,-0.66,0.65,-0.63,0.68,-0.72,-0.39,-0.74,-1.38,-1.35,-1.31
215.69,-0.67,0.64,-0.68,0.64,-0.69,-0.37,-0.75,-1.37,-1.37,-1.31
217.85,-0.67,0.65,-0.68,0.64,-0.68,-0.35,-0.77,-1.35,-1.36,-1.33
220.03,-0.67,0.66,-0.67,0.66,-0.66,-0.34,-0.78,-1.34,-1.34,-1.34
222.23,-0.67,0.68,-0.67,0.67,-0.66,-0.32,-0.79,-1.33,-1.33,-1.35
224.45,-0.67,0.68,-0.67,0.68,-0.66,-0.30,-0.80,-1.33,-1.33,-1.35
226.70,-0.67,0.67,-0.67,0.68,-0.67,-0.28,-0.81,-1.34,-1.34,-1.35
228.96,-0.67,0.68,-0.67,0.68,-0.68,-0.27,-0.82,-1.35,-1.35,-1.35
231.25,-0.67,0.68,-0.67,0.68,-0.68,-0.25,-0.82,-1.36,-1.36,-1.35
233.57,-0.67,0.68,-0.67,0.68,-0.68,-0.23,-0.83,-1.36,-1.36,-1.36
235.90,-0.67,0.69,-0.67,0.69,-0.68,-0.21,-0.83,-1.36,-1.36,-1.36
238.26,-0.67,0.68,-0.67,0.68,-0.68,-0.19,-0.83,-1.36,-1.36,-1.36
240.64,-0.67,0.68,-0.67,0.68,-0.69,-0.18,-0.83,-1.36,-1.36,-1.35
243.05,-0.67,0.67,-0.67,0.67,-0.68,-0.16,-0.83,-1.36,-1.36,-1.34
245.48,-0.67,0.66,-0.67,0.66,-0.67,-0.14,-0.83,-1.35,-1.35,-1.33
247.93,-0.67,0.65,-0.67,0.65,-0.65,-0.12,-0.82,-1.33,-1.33,-1.32
250.41,-0.67,0.65,-0.66,0.66,-0.62,-0.10,-0.81,-1.29,-1.28,-1.32
252.92,-0.67,0.64,-0.67,0.63,-0.58,-0.08,-0.80,-1.25,-1.25,-1.31
255.45,-0.67,0.61,-0.72,0.57,-0.54,-0.06,-0.79,-1.21,-1.26,-1.28
258.00,-0.81,0.46,-0.80,0.48,-0.49,-0.04,-0.77,-1.30,-1.29,-1.28
260.58,-0.90,0.37,-0.87,0.40,-0.44,-0.02,-0.75,-1.35,-1.31,-1.27
263.19,-0.90,0.35,-0.91,0.35,-0.40,-0.00,-0.73,-1.30,-1.31,-1.26
265.82,-0.90,0.35,-0.91,0.33,-0.35,0.01,-0.71,-1.26,-1.27,-1.25
268.48,-0.90,0.32,-0.90,0.32,-0.32,0.03,-0.69,-1.22,-1.22,-1.22
271.16,-0.90,0.30,-0.90,0.30,-0.30,0.05,-0.67,-1.20,-1.20,-1.21
273.87,-0.90,0.29,-0.90,0.28,-0.28,0.07,-0.64,-1.18,-1.18,-1.19
276.61,-0.90,0.25,-0.90,0.26,-0.26,0.09,-0.61,-1.17,-1.17,-1.15
279.38,-0.90,0.23,-0.90,0.23,-0.23,0.11,-0.58,-1.14,-1.14,-1.14
282.17,-0.90,0.21,-0.90,0.21,-0.19,0.13,-0.55,-1.09,-1.09,-1.11
284.99,-0.90,0.18,-0.89,0.19,-0.14,0.15,-0.52,-1.04,-1.03,-1.08
287.84,-0.90,0.15,-0.93,0.12,-0.08,0.17,-0.48,-0.98,-1.01,-1.06
290.72,-0.97,0.04,-1.00,0.02,-0.01,0.19,-0.45,-0.99,-1.01,-1.02
293.63,-1.11,-0.12,-1.07,-0.08,0.05,0.21,-0.41,-1.06,-1.02,-0.99
296.57,-1.13,-0.17,-1.13,-0.16,0.11,0.22,-0.37,-1.02,-1.01,-0.96
299.53,-1.13,-0.20,-1.15,-0.21,0.17,0.24,-0.34,-0.96,-0.98,-0.94
302.53,-1.13,-0.22,-1.14,-0.23,0.22,0.26,-0.30,-0.91,-0.91,-0.92
305.55,-1.13,-0.25,-1.13,-0.25,0.26,0.28,-0.26,-0.87,-0.87,-0.88
308.61,-1.13,-0.27,-1.13,-0.27,0.28,0.30,-0.22,-0.85,-0.85,-0.86
311.69,-1.13,-0.29,-1.13,-0.30,0.30,0.32,-0.18,-0.84,-0.84,-0.84
314.81,-1.13,-0.32,-1.13,-0.31,0.31,0.34,-0.14,-0.83,-0.83,-0.82
317.96,-1.13,-0.32,-1.13,-0.32,0.31,0.36,-0.10,-0.82,-0.82,-0.82
321.14,-1.13,-0.31,-1.13,-0.32,0.32,0.37,-0.05,-0.81,-0.81,-0.82
324.35,-1.13,-0.32,-1.13,-0.32,0.33,0.39,-0.01,-0.81,-0.81,-0.81
327.59,-1.13,-0.33,-1.13,-0.33,0.33,0.41,0.03,-0.80,-0.80,-0.80
330.87,-1.13,-0.34,-1.13,-0.34,0.34,0.43,0.07,-0.80,-0.80,-0.79
334.18,-1.13,-0.35,-1.13,-0.35,0.34,0.45,0.12,-0.79,-0.79,-0.79
337.52,-1.13,-0.36,-1.13,-0.36,0.35,0.47,0.16,-0.78,-0.78,-0.78
340.90,-1.13,-0.38,-1.13,-0.38,0.37,0.48,0.20,-0.77,-0.77,-0.75
344.30,-1.13,-0.39,-1.13,-0.40,0.39,0.50,0.25,-0.74,-0.74,-0.74
347.75,-1.13,-0.41,-1.12,-0.41,0.43,0.52,0.29,-0.70,-0.69,-0.72
351.23,-1.13,-0.44,-1.13,-0.43,0.48,0.54,0.34,-0.65,-0.65,-0.69
354.74,-1.13,-0.46,-1.17,-0.50,0.54,0.56,0.38,-0.60,-0.64,-0.67
358.28,-1.24,-0.60,-1.24,-0.59,0.59,0.57,0.43,-0.65,-0.64,-0.65
361.87,-1.33,-0.71,-1.31,-0.68,0.65,0.59,0.47,-0.68,-0.65,-0.63
365.49,-1.36,-0.77,-1.36,-0.76,0.71,0.61,0.52,-0.65,-0.65,-0.60
369.14,-1.36,-0.79,-1.37,-0.79,0.76,0.63,0.56,-0.60,-0.61,-0.58
372.83,-1.36,-0.81,-1.37,-0.82,0.81,0.64,0.61,-0.55,-0.55,-0.55
376.56,-1.36,-0.83,-1.36,-0.84,0.85,0.66,0.66,-0.52,-0.52,-0.53
380.33,-1.36,-0.86,-1.36,-0.86,0.86,0.68,0.70,-0.50,-0.50,-0.50
384.13,-1.36,-0.88,-1.36,-0.88,0.87,0.70,0.75,-0.49,-0.49,-0.48
387.97,-1.36,-0.89,-1.36,-0.89,0.88,0.71,0.80,-0.49,-0.49,-0.47
391.85,-1.36,-0.90,-1.36,-0.90,0.89,0.73,0.84,-0.47,-0.47,-0.46
395.77,-1.36,-0.91,-1.36,-0.91,0.91,0.75,0.89,-0.45,-0.45,-0.45
399.73,-1.36,-0.92,-1.35,-0.91,0.94,0.76,0.94,-0.42,-0.41,-0.45
403.72,-1.36,-0.93,-1.36,-0.93,0.98,0.78,0.98,-0.38,-0.38,-0.44
407.76,-1.36,-0.94,-1.41,-0.98,1.02,0.80,1.03,-0.35,-0.39,-0.43
411.84,-1.49,-1.08,-1.48,-1.06,1.06,0.81,1.08,-0.44,-0.42,-0.42
415.96,-1.58,-1.18,-1.55,-1.14,1.10,0.83,1.12,-0.49,-0.45,-0.41
420.12,-1.59,-1.18,-1.60,-1.19,1.13,0.85,1.17,-0.46,-0.47,-0.41
424.32,-1.59,-1.18,-1.60,-1.19,1.16,0.86,1.21,-0.43,-0.44,-0.41
428.56,-1.59,-1.18,-1.59,-1.18,1.19,0.88,1.25,-0.41,-0.41,-0.41
432.85,-1.59,-1.18,-1.59,-1.19,1.20,0.90,1.30,-0.39,-0.39,-0.41
437.18,-1.59,-1.19,-1.59,-1.19,1.21,0.91,1.34,-0.39,-0.39,-0.40
441.55,-1.59,-1.20,-1.59,-1.20,1.21,0.93,1.38,-0.39,-0.39,-0.39
445.96,-1.59,-1.20,-1.59,-1.21,1.21,0.95,1.42,-0.39,-0.39,-0.39
450.42,-1.59,-1.21,-1.59,-1.21,1.21,0.96,1.45,-0.38,-0.38,-0.38
454.93,-1.59,-1.22,-1.59,-1.22,1.22,0.98,1.49,-0.37,-0.37,-0.37
459.48,-1.59,-1.23,-1.59,-1.23,1.23,1.00,1.52,-0.36,-0.36,-0.36
464.07,-1.59,-1.25,-1.59,-1.25,1.25,1.01,1.55,-0.35,-0.35,-0.34
