frequency,raw
20,8.71
21,8.80
22,8.89
23,8.98
24,9.06
25,9.14
26,9.22
27,9.30
28,9.38
29,9.45
30,9.53
31,9.61
32,9.69
33,9.76
34,9.82
35,9.88
36,9.94
37,9.98
38,10.00
39,10.03
40,10.05
41,10.06
42,10.09
43,10.13
44,10.16
45,10.19
46,10.21
47,10.23
48,10.26
49,10.30
50,10.33
51,10.36
52,10.39
53,10.41
54,10.43
55,10.45
56,10.45
57,10.45
58,10.44
59,10.43
60,10.43
61,10.43
62,10.43
63,10.43
64,10.43
65,10.43
66,10.43
67,10.43
68,10.43
69,10.43
70,10.43
71,10.43
72,10.43
73,10.43
74,10.43
75,10.43
76,10.43
77,10.43
78,10.43
79,10.43
80,10.45
81,10.45
82,10.45
83,10.43
84,10.42
85,10.39
86,10.36
87,10.33
88,10.30
89,10.27
90,10.23
91,10.20
92,10.17
93,10.14
94,10.11
95,10.10
96,10.09
97,10.09
98,10.10
99,10.11
100,10.11
101,10.10
102,10.07
104,10.05
105,10.02
106,9.98
107,9.95
108,9.92
109,9.88
110,9.85
111,9.82
112,9.80
113,9.79
114,9.78
115,9.78
117,9.77
118,9.77
119,9.76
120,9.74
121,9.71
123,9.68
124,9.65
125,9.63
126,9.60
128,9.56
129,9.52
130,9.48
131,9.43
133,9.39
134,9.35
135,9.32
137,9.30
138,9.28
140,9.25
141,9.20
142,9.15
144,9.10
145,9.06
147,9.01
148,8.97
150,8.95
151,8.93
153,8.91
154,8.88
156,8.84
157,8.80
159,8.76
160,8.72
162,8.69
164,8.67
165,8.65
167,8.62
169,8.59
170,8.54
172,8.49
174,8.44
175,8.39
177,8.35
179,8.31
181,8.28
183,8.26
184,8.24
186,8.22
188,8.20
190,8.18
192,8.15
194,8.13
196,8.11
198,8.09
200,8.08
202,8.06
204,8.03
206,7.99
208,7.94
210,7.89
212,7.84
214,7.80
216,7.75
218,7.70
221,7.65
223,7.60
225,7.56
227,7.52
229,7.47
232,7.42
234,7.36
236,7.31
239,7.26
241,7.21
244,7.18
246,7.13
248,7.06
251,7.00
253,6.94
256,6.90
259,6.85
261,6.80
264,6.74
266,6.68
269,6.62
272,6.56
274,6.50
277,6.44
280,6.37
283,6.31
286,6.25
288,6.18
291,6.12
294,6.05
297,6.00
300,5.93
303,5.87
306,5.80
309,5.74
312,5.69
316,5.63
319,5.56
322,5.50
325,5.43
328,5.37
332,5.30
335,5.24
338,5.17
342,5.11
345,5.05
349,5.00
352,4.94
356,4.88
359,4.81
363,4.76
366,4.69
370,4.63
374,4.58
377,4.52
381,4.47
385,4.41
389,4.34
393,4.29
397,4.24
401,4.19
405,4.13
409,4.08
413,4.02
417,3.97
421,3.93
425,3.88
430,3.82
434,3.75
438,3.70
443,3.65
447,3.59
451,3.53
456,3.47
460,3.41
465,3.35
470,3.29
474,3.23
479,3.17
484,3.10
489,3.04
494,2.98
499,2.93
504,2.87
509,2.81
514,2.75
519,2.69
524,2.64
529,2.59
535,2.55
540,2.49
545,2.42
551,2.37
556,2.33
562,2.29
568,2.24
573,2.18
579,2.11
585,2.05
591,2.00
596,1.95
602,1.91
608,1.86
615,1.82
621,1.77
627,1.72
633,1.68
639,1.65
646,1.62
652,1.58
659,1.54
665,1.50
672,1.46
679,1.42
686,1.37
692,1.32
699,1.27
706,1.21
713,1.15
721,1.09
728,1.04
735,0.99
742,0.94
750,0.89
757,0.85
765,0.82
773,0.79
780,0.76
788,0.73
796,0.70
804,0.65
812,0.61
820,0.58
828,0.55
837,0.53
845,0.52
853,0.49
862,0.46
871,0.42
879,0.38
888,0.33
897,0.29
906,0.26
915,0.23
924,0.20
933,0.18
943,0.16
952,0.13
962,0.11
971,0.08
981,0.05
991,0.02
1001,-0.00
1011,-0.03
1021,-0.05
1031,-0.07
1041,-0.10
1052,-0.13
1062,-0.17
1073,-0.20
1084,-0.23
1094,-0.25
1105,-0.27
1116,-0.29
1128,-0.30
1139,-0.30
1150,-0.29
1162,-0.28
1173,-0.28
1185,-0.28
1197,-0.28
1209,-0.28
1221,-0.28
1233,-0.29
1246,-0.30
1258,-0.30
1271,-0.30
1283,-0.29
1296,-0.27
1309,-0.24
1322,-0.22
1335,-0.20
1349,-0.18
1362,-0.14
1376,-0.10
1390,-0.05
1404,0.01
1418,0.05
1432,0.09
1446,0.14
1461,0.19
1475,0.23
1490,0.28
1505,0.33
1520,0.38
1535,0.43
1550,0.50
1566,0.58
1582,0.65
1597,0.73
1613,0.80
1629,0.87
1646,0.97
1662,1.07
1679,1.17
1696,1.28
1713,1.38
1730,1.47
1747,1.57
1764,1.70
1782,1.81
1800,1.93
1818,2.05
1836,2.17
1854,2.30
1873,2.43
1892,2.59
1911,2.75
1930,2.91
1949,3.08
1969,3.24
1988,3.42
2008,3.60
2028,3.77
2048,3.96
2069,4.14
2090,4.33
2111,4.52
2132,4.71
2153,4.92
2175,5.12
2196,5.32
2218,5.54
2240,5.75
2263,5.97
2285,6.20
2308,6.42
2331,6.65
2355,6.86
2378,7.06
2402,7.25
2426,7.43
2450,7.59
2475,7.73
2500,7.84
2525,7.94
2550,8.02
2575,8.08
2601,8.14
2627,8.18
2653,8.20
2680,8.22
2707,8.22
2734,8.19
2761,8.16
2789,8.12
2817,8.07
2845,8.01
2873,7.94
2902,7.84
2931,7.72
2960,7.58
2990,7.44
3020,7.29
3050,7.12
3080,6.94
3111,6.76
3142,6.58
3174,6.41
3206,6.22
3238,6.03
3270,5.86
3303,5.67
3336,5.50
3369,5.34
3403,5.19
3437,5.04
3471,4.89
3506,4.76
3541,4.63
3576,4.50
3612,4.40
3648,4.30
3685,4.20
3721,4.11
3759,4.01
3796,3.91
3834,3.81
3873,3.71
3911,3.60
3950,3.50
3990,3.40
4030,3.30
4070,3.21
4111,3.13
4152,3.05
4193,2.97
4235,2.91
4278,2.88
4321,2.87
4364,2.90
4407,2.95
4451,3.04
4496,3.17
4541,3.35
4586,3.56
4632,3.80
4679,4.08
4725,4.39
4773,4.73
4820,5.08
4868,5.43
4917,5.77
4966,6.08
5016,6.35
5066,6.60
5117,6.81
5168,6.98
5220,7.10
5272,7.19
5325,7.25
5378,7.28
5432,7.27
5486,7.24
5541,7.18
5596,7.09
5652,6.97
5709,6.82
5766,6.63
5823,6.40
5882,6.13
5940,5.80
6000,5.42
6060,4.99
6120,4.52
6182,4.02
6244,3.49
6306,2.94
6369,2.38
6433,1.84
6497,1.32
6562,0.80
6628,0.28
6694,-0.23
6761,-0.71
6828,-1.18
6897,-1.63
6966,-2.06
7035,-2.48
7106,-2.89
7177,-3.29
7249,-3.68
7321,-4.05
7394,-4.40
7468,-4.73
7543,-5.03
7618,-5.32
7694,-5.57
7771,-5.80
7849,-5.98
7928,-6.14
8007,-6.28
8087,-6.40
8168,-6.50
8250,-6.54
8332,-6.54
8415,-6.52
8499,-6.47
8584,-6.39
8670,-6.30
8757,-6.18
8845,-6.04
8933,-5.89
9022,-5.73
9113,-5.57
9204,-5.42
9296,-5.29
9389,-5.17
9483,-5.07
9577,-4.98
9673,-4.92
9770,-4.87
9868,-4.84
9966,-4.83
10066,-4.83
10167,-4.85
10268,-4.91
10371,-4.99
10475,-5.09
10579,-5.22
10685,-5.37
10792,-5.53
10900,-5.73
11009,-5.94
11119,-6.15
11230,-6.36
11343,-6.58
11456,-6.80
11571,-7.02
11686,-7.23
11803,-7.41
11921,-7.59
12040,-7.75
12161,-7.91
12282,-8.07
12405,-8.23
12529,-8.39
12655,-8.55
12781,-8.72
12909,-8.88
13038,-9.06
13168,-9.26
13300,-9.49
13433,-9.73
13567,-9.99
13703,-10.27
13840,-10.58
13978,-10.93
14118,-11.30
14259,-11.68
14402,-12.10
14546,-12.55
14692,-13.02
14838,-13.51
14987,-14.01
15137,-14.53
15288,-15.08
15441,-15.66
15595,-16.25
15751,-16.86
15909,-17.50
16068,-18.18
16229,-18.89
16391,-19.66
16555,-20.48
16720,-21.35
16888,-22.30
17056,-23.30
17227,-24.34
17399,-25.39
17573,-26.45
17749,-27.51
17926,-28.53
18106,-29.51
18287,-30.34
18470,-31.12
18654,-31.86
18841,-32.57
19029,-33.22
19220,-33.84
19412,-34.41
19606,-34.94
19802,-35.42
20000,-35.86
