frequency,raw,error,smoothed,error_smoothed,equalization,parametric_eq,fixed_band_eq,equalized_raw,equalized_smoothed,target
20.00,-10.25,-9.35,-10.25,-9.36,6.00,5.17,2.72,-4.25,-4.25,-0.89
20.20,-10.24,-9.38,-10.23,-9.38,6.00,5.25,2.79,-4.24,-4.23,-0.85
20.40,-10.22,-9.40,-10.21,-9.40,6.00,5.32,2.87,-4.22,-4.21,-0.81
20.61,-10.19,-9.40,-10.19,-9.41,6.00,5.40,2.95,-4.19,-4.19,-0.78
20.81,-10.16,-9.41,-10.16,-9.41,6.00,5.47,3.04,-4.16,-4.16,-0.74
21.02,-10.12,-9.41,-10.12,-9.41,6.00,5.54,3.13,-4.12,-4.12,-0.70
21.23,-10.08,-9.39,-10.08,-9.40,6.00,5.61,3.22,-4.08,-4.08,-0.68
21.44,-10.04,-9.37,-10.03,-9.37,6.00,5.68,3.31,-4.04,-4.03,-0.66
21.66,-9.99,-9.34,-9.99,-9.34,6.00,5.75,3.40,-3.99,-3.99,-0.64
21.87,-9.94,-9.30,-9.93,-9.30,6.00,5.81,3.50,-3.94,-3.93,-0.63
22.09,-9.88,-9.26,-9.88,-9.26,6.00,5.88,3.60,-3.88,-3.88,-0.62
22.31,-9.82,-9.21,-9.82,-9.21,6.00,5.94,3.70,-3.82,-3.82,-0.61
22.54,-9.76,-9.16,-9.75,-9.15,6.00,6.00,3.81,-3.76,-3.75,-0.60
22.76,-9.68,-9.09,-9.68,-9.09,6.00,6.05,3.92,-3.68,-3.68,-0.59
22.99,-9.60,-9.01,-9.60,-9.02,6.00,6.11,4.03,-3.60,-3.60,-0.59
23.22,-9.53,-8.95,-9.52,-8.95,6.00,6.16,4.14,-3.53,-3.52,-0.58
23.45,-9.45,-8.88,-9.44,-8.87,6.00,6.21,4.26,-3.45,-3.44,-0.57
23.69,-9.35,-8.79,-9.35,-8.79,6.00,6.26,4.38,-3.35,-3.35,-0.56
23.92,-9.26,-8.71,-9.25,-8.71,6.00,6.30,4.50,-3.26,-3.25,-0.55
24.16,-9.15,-8.62,-9.14,-8.62,6.00,6.34,4.62,-3.15,-3.14,-0.53
24.40,-9.04,-8.53,-9.03,-8.52,6.00,6.37,4.75,-3.04,-3.03,-0.51
24.65,-8.92,-8.41,-8.92,-8.42,6.00,6.40,4.87,-2.92,-2.92,-0.51
24.89,-8.82,-8.32,-8.82,-8.32,6.00,6.43,5.00,-2.82,-2.82,-0.50
25.14,-8.72,-8.23,-8.71,-8.22,6.00,6.46,5.13,-2.72,-2.71,-0.49
25.39,-8.61,-8.12,-8.61,-8.13,6.00,6.48,5.27,-2.61,-2.61,-0.48
25.65,-8.51,-8.05,-8.50,-8.03,6.00,6.49,5.40,-2.51,-2.50,-0.46
25.91,-8.40,-7.94,-8.40,-7.94,6.00,6.50,5.53,-2.40,-2.40,-0.46
26.16,-8.29,-7.83,-8.29,-7.84,6.00,6.51,5.66,-2.29,-2.29,-0.45
26.43,-8.20,-7.76,-8.19,-7.75,6.00,6.51,5.80,-2.20,-2.19,-0.44
26.69,-8.10,-7.66,-8.09,-7.66,6.00,6.51,5.93,-2.10,-2.09,-0.43
26.96,-8.00,-7.58,-8.00,-7.58,6.00,6.51,6.05,-2.00,-2.00,-0.41
27.23,-7.90,-7.49,-7.90,-7.49,6.00,6.50,6.18,-1.90,-1.90,-0.41
27.50,-7.81,-7.41,-7.81,-7.41,6.00,6.48,6.30,-1.81,-1.81,-0.40
27.77,-7.72,-7.32,-7.72,-7.33,6.00,6.46,6.42,-1.72,-1.72,-0.40
28.05,-7.63,-7.25,-7.63,-7.24,6.00,6.44,6.54,-1.63,-1.63,-0.38
28.33,-7.54,-7.16,-7.53,-7.16,6.00,6.41,6.64,-1.54,-1.53,-0.38
28.62,-7.44,-7.07,-7.44,-7.07,6.00,6.38,6.74,-1.44,-1.44,-0.37
28.90,-7.35,-6.99,-7.34,-6.98,6.00,6.35,6.84,-1.35,-1.34,-0.36
29.19,-7.25,-6.89,-7.25,-6.89,6.00,6.31,6.92,-1.25,-1.25,-0.36
29.48,-7.15,-6.81,-7.15,-6.81,6.00,6.27,6.99,-1.15,-1.15,-0.33
29.78,-7.05,-6.72,-7.05,-6.72,6.00,6.23,7.06,-1.05,-1.05,-0.33
30.08,-6.96,-6.63,-6.95,-6.63,6.01,6.18,7.11,-0.95,-0.95,-0.32
30.38,-6.85,-6.52,-6.85,-6.53,6.01,6.13,7.15,-0.84,-0.84,-0.32
30.68,-6.75,-6.44,-6.75,-6.44,6.02,6.07,7.18,-0.73,-0.73,-0.31
30.99,-6.65,-6.34,-6.64,-6.34,6.02,6.02,7.20,-0.63,-0.63,-0.31
31.30,-6.54,-6.24,-6.54,-6.24,6.00,5.96,7.20,-0.53,-0.54,-0.30
31.61,-6.43,-6.14,-6.43,-6.14,5.98,5.90,7.19,-0.45,-0.45,-0.29
31.93,-6.32,-6.04,-6.31,-6.03,5.94,5.83,7.17,-0.38,-0.37,-0.28
32.24,-6.20,-5.91,-6.20,-5.92,5.89,5.77,7.13,-0.31,-0.31,-0.28
32.57,-6.09,-5.82,-6.09,-5.82,5.82,5.70,7.08,-0.27,-0.27,-0.26
32.89,-5.99,-5.73,-5.98,-5.73,5.74,5.63,7.02,-0.24,-0.24,-0.25
33.22,-5.89,-5.64,-5.88,-5.64,5.66,5.56,6.95,-0.23,-0.23,-0.25
33.55,-5.79,-5.55,-5.79,-5.55,5.57,5.49,6.87,-0.22,-0.22,-0.24
33.89,-5.70,-5.47,-5.70,-5.47,5.48,5.41,6.78,-0.22,-0.22,-0.23
34.23,-5.62,-5.40,-5.61,-5.39,5.40,5.34,6.68,-0.22,-0.21,-0.22
34.57,-5.53,-5.31,-5.54,-5.32,5.32,5.26,6.58,-0.20,-0.21,-0.21
34.92,-5.47,-5.25,-5.47,-5.26,5.26,5.19,6.47,-0.21,-0.21,-0.21
35.27,-5.41,-5.20,-5.40,-5.19,5.19,5.11,6.35,-0.22,-0.21,-0.21
35.62,-5.34,-5.14,-5.34,-5.14,5.13,5.03,6.22,-0.20,-0.21,-0.20
35.97,-5.28,-5.08,-5.28,-5.08,5.08,4.96,6.10,-0.20,-0.20,-0.20
36.33,-5.22,-5.02,-5.22,-5.02,5.02,4.88,5.97,-0.19,-0.19,-0.19
36.70,-5.16,-4.96,-5.16,-4.97,4.97,4.80,5.84,-0.19,-0.19,-0.20
37.06,-5.11,-4.92,-5.11,-4.92,4.92,4.72,5.70,-0.19,-0.18,-0.19
37.43,-5.06,-4.88,-5.06,-4.87,4.87,4.65,5.57,-0.19,-0.19,-0.18
37.81,-5.01,-4.82,-5.01,-4.83,4.82,4.57,5.43,-0.19,-0.19,-0.18
38.19,-4.97,-4.78,-4.96,-4.78,4.77,4.49,5.30,-0.20,-0.19,-0.19
38.57,-4.92,-4.73,-4.91,-4.73,4.72,4.41,5.16,-0.19,-0.19,-0.19
38.95,-4.86,-4.67,-4.86,-4.67,4.67,4.34,5.03,-0.18,-0.19,-0.19
39.34,-4.82,-4.62,-4.81,-4.62,4.63,4.26,4.90,-0.19,-0.19,-0.19
39.74,-4.77,-4.57,-4.76,-4.57,4.58,4.18,4.76,-0.19,-0.19,-0.20
40.14,-4.72,-4.53,-4.72,-4.52,4.53,4.11,4.64,-0.19,-0.19,-0.19
40.54,-4.67,-4.47,-4.67,-4.48,4.48,4.03,4.51,-0.19,-0.20,-0.19
40.94,-4.63,-4.43,-4.62,-4.43,4.43,3.96,4.38,-0.20,-0.20,-0.20
41.35,-4.58,-4.38,-4.57,-4.38,4.38,3.89,4.26,-0.20,-0.20,-0.20
41.76,-4.52,-4.32,-4.52,-4.32,4.32,3.81,4.14,-0.19,-0.19,-0.19
42.18,-4.46,-4.27,-4.46,-4.27,4.27,3.74,4.02,-0.19,-0.19,-0.19
42.60,-4.40,-4.20,-4.40,-4.21,4.21,3.67,3.91,-0.19,-0.19,-0.19
43.03,-4.35,-4.16,-4.35,-4.16,4.15,3.60,3.79,-0.20,-0.20,-0.19
43.46,-4.29,-4.10,-4.28,-4.09,4.08,3.53,3.68,-0.21,-0.20,-0.19
43.90,-4.22,-4.01,-4.21,-4.01,4.01,3.46,3.58,-0.21,-0.20,-0.21
44.33,-4.13,-3.93,-4.14,-3.93,3.93,3.39,3.47,-0.19,-0.20,-0.20
44.78,-4.06,-3.85,-4.06,-3.85,3.86,3.32,3.37,-0.20,-0.20,-0.21
45.23,-3.99,-3.78,-3.98,-3.77,3.78,3.26,3.27,-0.21,-0.20,-0.21
45.68,-3.91,-3.70,-3.91,-3.70,3.71,3.19,3.17,-0.20,-0.20,-0.21
46.13,-3.83,-3.62,-3.83,-3.63,3.63,3.13,3.08,-0.20,-0.20,-0.21
46.60,-3.76,-3.56,-3.76,-3.55,3.55,3.06,2.99,-0.20,-0.20,-0.20
47.06,-3.69,-3.48,-3.68,-3.48,3.48,3.00,2.90,-0.21,-0.20,-0.20
47.53,-3.61,-3.40,-3.61,-3.41,3.40,2.94,2.81,-0.21,-0.21,-0.21
48.01,-3.53,-3.33,-3.53,-3.33,3.32,2.88,2.73,-0.21,-0.21,-0.20
48.49,-3.46,-3.25,-3.46,-3.25,3.24,2.82,2.65,-0.22,-0.22,-0.21
48.97,-3.39,-3.16,-3.38,-3.16,3.15,2.76,2.57,-0.23,-0.23,-0.23
49.46,-3.31,-3.07,-3.30,-3.06,3.07,2.70,2.49,-0.24,-0.24,-0.24
49.96,-3.22,-2.96,-3.22,-2.98,2.98,2.64,2.42,-0.24,-0.24,-0.25
50.46,-3.14,-2.89,-3.14,-2.89,2.89,2.58,2.34,-0.25,-0.25,-0.25
50.96,-3.07,-2.81,-3.07,-2.80,2.80,2.53,2.27,-0.27,-0.27,-0.26
51.47,-3.00,-2.71,-2.99,-2.71,2.71,2.47,2.21,-0.29,-0.28,-0.29
51.99,-2.91,-2.61,-2.91,-2.62,2.62,2.42,2.14,-0.29,-0.29,-0.30
52.51,-2.83,-2.53,-2.83,-2.53,2.53,2.37,2.07,-0.29,-0.30,-0.29
53.03,-2.76,-2.44,-2.76,-2.45,2.44,2.31,2.01,-0.31,-0.31,-0.31
53.56,-2.69,-2.36,-2.68,-2.36,2.35,2.26,1.95,-0.33,-0.33,-0.32
54.10,-2.61,-2.27,-2.61,-2.27,2.26,2.21,1.89,-0.34,-0.34,-0.34
54.64,-2.53,-2.17,-2.53,-2.18,2.17,2.16,1.83,-0.35,-0.36,-0.35
55.18,-2.46,-2.08,-2.46,-2.08,2.08,2.11,1.78,-0.37,-0.37,-0.37
55.74,-2.39,-1.99,-2.38,-2.00,2.00,2.06,1.72,-0.39,-0.39,-0.39
56.29,-2.31,-1.91,-2.31,-1.91,1.91,2.02,1.67,-0.39,-0.40,-0.39
56.86,-2.24,-1.82,-2.24,-1.82,1.83,1.97,1.62,-0.40,-0.41,-0.42
57.42,-2.18,-1.74,-2.18,-1.75,1.76,1.92,1.57,-0.42,-0.42,-0.44
58.00,-2.13,-1.68,-2.13,-1.67,1.68,1.88,1.52,-0.45,-0.45,-0.45
58.58,-2.08,-1.61,-2.07,-1.61,1.61,1.83,1.47,-0.47,-0.47,-0.46
59.16,-2.02,-1.54,-2.02,-1.54,1.53,1.79,1.42,-0.49,-0.49,-0.48
59.76,-1.96,-1.47,-1.96,-1.47,1.45,1.75,1.38,-0.50,-0.51,-0.49
60.35,-1.91,-1.39,-1.90,-1.39,1.38,1.70,1.34,-0.53,-0.53,-0.51
60.96,-1.85,-1.31,-1.85,-1.30,1.30,1.66,1.29,-0.55,-0.55,-0.54
61.57,-1.79,-1.21,-1.79,-1.22,1.22,1.62,1.25,-0.57,-0.57,-0.57
62.18,-1.74,-1.13,-1.74,-1.13,1.14,1.58,1.21,-0.59,-0.59,-0.61
62.80,-1.69,-1.06,-1.69,-1.06,1.07,1.54,1.17,-0.62,-0.63,-0.63
63.43,-1.66,-0.99,-1.65,-0.99,0.99,1.50,1.13,-0.66,-0.66,-0.66
64.07,-1.62,-0.93,-1.61,-0.93,0.93,1.46,1.10,-0.69,-0.69,-0.69
64.71,-1.58,-0.86,-1.58,-0.86,0.87,1.42,1.06,-0.71,-0.71,-0.72
65.35,-1.55,-0.80,-1.55,-0.81,0.81,1.39,1.02,-0.74,-0.74,-0.74
66.01,-1.53,-0.75,-1.52,-0.76,0.76,1.35,0.99,-0.77,-0.77,-0.77
66.67,-1.51,-0.72,-1.51,-0.71,0.71,1.31,0.95,-0.80,-0.80,-0.79
67.33,-1.49,-0.67,-1.49,-0.67,0.66,1.28,0.92,-0.83,-0.83,-0.82
68.01,-1.48,-0.63,-1.47,-0.62,0.62,1.24,0.89,-0.86,-0.85,-0.85
68.69,-1.46,-0.57,-1.46,-0.57,0.58,1.21,0.86,-0.88,-0.88,-0.88
69.37,-1.45,-0.53,-1.45,-0.54,0.55,1.17,0.82,-0.90,-0.90,-0.91
70.07,-1.45,-0.50,-1.45,-0.51,0.51,1.14,0.79,-0.93,-0.94,-0.95
70.77,-1.46,-0.49,-1.46,-0.49,0.49,1.10,0.76,-0.97,-0.97,-0.97
71.48,-1.47,-0.48,-1.46,-0.47,0.46,1.07,0.73,-1.00,-1.00,-0.99
72.19,-1.47,-0.44,-1.47,-0.44,0.44,1.04,0.70,-1.02,-1.02,-1.02
72.91,-1.47,-0.42,-1.47,-0.42,0.43,1.01,0.68,-1.04,-1.05,-1.05
73.64,-1.48,-0.40,-1.48,-0.40,0.41,0.98,0.65,-1.07,-1.07,-1.07
74.38,-1.49,-0.40,-1.48,-0.39,0.40,0.94,0.62,-1.09,-1.09,-1.09
75.12,-1.49,-0.37,-1.49,-0.38,0.38,0.91,0.59,-1.11,-1.11,-1.11
75.87,-1.50,-0.37,-1.50,-0.37,0.36,0.88,0.57,-1.14,-1.14,-1.13
76.63,-1.50,-0.35,-1.49,-0.34,0.34,0.85,0.54,-1.16,-1.16,-1.15
77.40,-1.49,-0.32,-1.49,-0.32,0.31,0.82,0.51,-1.17,-1.17,-1.17
78.17,-1.47,-0.28,-1.47,-0.29,0.28,0.80,0.49,-1.18,-1.19,-1.18
78.95,-1.45,-0.25,-1.45,-0.25,0.25,0.77,0.46,-1.20,-1.20,-1.19
79.74,-1.43,-0.22,-1.42,-0.22,0.21,0.74,0.44,-1.22,-1.21,-1.20
80.54,-1.39,-0.17,-1.39,-0.18,0.17,0.71,0.41,-1.22,-1.22,-1.21
81.35,-1.36,-0.13,-1.35,-0.13,0.13,0.68,0.39,-1.23,-1.23,-1.22
82.16,-1.32,-0.08,-1.32,-0.08,0.09,0.65,0.36,-1.23,-1.23,-1.24
82.98,-1.28,-0.04,-1.28,-0.04,0.05,0.63,0.34,-1.23,-1.24,-1.24
83.81,-1.26,-0.01,-1.26,-0.01,0.01,0.60,0.31,-1.24,-1.24,-1.25
84.65,-1.24,0.03,-1.24,0.02,-0.01,0.57,0.29,-1.25,-1.25,-1.26
85.50,-1.23,0.03,-1.23,0.03,-0.03,0.55,0.27,-1.26,-1.26,-1.26
86.35,-1.22,0.04,-1.22,0.04,-0.04,0.52,0.24,-1.26,-1.26,-1.26
87.22,-1.23,0.04,-1.22,0.04,-0.04,0.50,0.22,-1.27,-1.26,-1.26
88.09,-1.23,0.04,-1.23,0.03,-0.03,0.47,0.20,-1.26,-1.26,-1.27
88.97,-1.25,0.02,-1.25,0.02,-0.02,0.45,0.17,-1.26,-1.26,-1.26
89.86,-1.27,-0.01,-1.27,-0.00,0.01,0.42,0.15,-1.26,-1.26,-1.26
90.76,-1.30,-0.02,-1.30,-0.03,0.04,0.40,0.12,-1.26,-1.26,-1.28
91.66,-1.34,-0.06,-1.34,-0.06,0.07,0.37,0.10,-1.27,-1.27,-1.27
92.58,-1.38,-0.10,-1.37,-0.10,0.10,0.35,0.08,-1.28,-1.28,-1.28
93.51,-1.41,-0.14,-1.41,-0.14,0.13,0.32,0.05,-1.28,-1.28,-1.27
94.44,-1.44,-0.16,-1.44,-0.16,0.15,0.30,0.03,-1.28,-1.28,-1.27
95.39,-1.46,-0.18,-1.46,-0.18,0.17,0.27,0.01,-1.29,-1.29,-1.27
96.34,-1.48,-0.19,-1.48,-0.19,0.18,0.25,-0.02,-1.29,-1.29,-1.29
97.30,-1.49,-0.19,-1.49,-0.19,0.19,0.23,-0.04,-1.30,-1.30,-1.30
98.28,-1.50,-0.19,-1.50,-0.19,0.18,0.20,-0.06,-1.31,-1.31,-1.31
99.26,-1.50,-0.18,-1.49,-0.18,0.17,0.18,-0.08,-1.32,-1.32,-1.32
100.25,-1.49,-0.16,-1.49,-0.16,0.16,0.16,-0.11,-1.33,-1.33,-1.33
101.25,-1.48,-0.14,-1.48,-0.14,0.14,0.14,-0.13,-1.33,-1.33,-1.33
102.27,-1.47,-0.11,-1.47,-0.12,0.13,0.11,-0.15,-1.34,-1.34,-1.35
103.29,-1.47,-0.09,-1.47,-0.10,0.11,0.09,-0.18,-1.36,-1.36,-1.37
104.32,-1.47,-0.08,-1.47,-0.08,0.08,0.07,-0.20,-1.38,-1.38,-1.38
105.37,-1.47,-0.06,-1.47,-0.06,0.06,0.05,-0.22,-1.41,-1.41,-1.40
106.42,-1.47,-0.04,-1.47,-0.04,0.03,0.02,-0.25,-1.43,-1.43,-1.43
107.48,-1.47,-0.02,-1.47,-0.01,0.01,0.00,-0.27,-1.46,-1.46,-1.45
108.56,-1.47,0.02,-1.47,0.02,-0.02,-0.02,-0.29,-1.49,-1.49,-1.49
109.64,-1.47,0.05,-1.47,0.05,-0.05,-0.04,-0.31,-1.52,-1.52,-1.52
110.74,-1.47,0.08,-1.47,0.09,-0.09,-0.06,-0.33,-1.55,-1.55,-1.55
111.85,-1.47,0.12,-1.47,0.12,-0.12,-0.08,-0.36,-1.59,-1.59,-1.59
112.97,-1.47,0.17,-1.47,0.16,-0.16,-0.11,-0.38,-1.63,-1.63,-1.64
114.10,-1.47,0.20,-1.47,0.20,-0.21,-0.13,-0.40,-1.67,-1.67,-1.66
115.24,-1.47,0.25,-1.47,0.25,-0.25,-0.15,-0.42,-1.71,-1.71,-1.71
116.39,-1.47,0.29,-1.47,0.29,-0.29,-0.17,-0.44,-1.76,-1.76,-1.76
117.55,-1.47,0.33,-1.47,0.33,-0.33,-0.19,-0.46,-1.80,-1.80,-1.80
118.73,-1.47,0.38,-1.47,0.37,-0.37,-0.21,-0.48,-1.84,-1.84,-1.85
119.92,-1.47,0.41,-1.47,0.41,-0.41,-0.23,-0.50,-1.88,-1.88,-1.87
121.12,-1.47,0.45,-1.47,0.45,-0.45,-0.26,-0.51,-1.92,-1.92,-1.92
122.33,-1.47,0.49,-1.47,0.48,-0.49,-0.28,-0.53,-1.96,-1.96,-1.96
123.55,-1.47,0.52,-1.46,0.52,-0.53,-0.30,-0.55,-2.00,-1.99,-1.98
124.79,-1.46,0.56,-1.46,0.56,-0.57,-0.32,-0.56,-2.03,-2.03,-2.02
126.03,-1.45,0.61,-1.45,0.60,-0.61,-0.34,-0.58,-2.05,-2.06,-2.05
127.29,-1.45,0.64,-1.45,0.64,-0.64,-0.36,-0.60,-2.08,-2.08,-2.09
128.57,-1.45,0.68,-1.45,0.68,-0.66,-0.38,-0.61,-2.11,-2.11,-2.13
129.85,-1.46,0.70,-1.46,0.70,-0.69,-0.40,-0.63,-2.14,-2.15,-2.15
131.15,-1.48,0.71,-1.47,0.71,-0.70,-0.42,-0.64,-2.18,-2.18,-2.19
132.46,-1.50,0.71,-1.50,0.71,-0.71,-0.44,-0.65,-2.21,-2.21,-2.21
133.79,-1.52,0.72,-1.52,0.72,-0.72,-0.47,-0.67,-2.24,-2.24,-2.23
135.12,-1.55,0.72,-1.55,0.71,-0.72,-0.49,-0.68,-2.27,-2.27,-2.26
136.48,-1.58,0.71,-1.58,0.71,-0.72,-0.51,-0.70,-2.29,-2.29,-2.28
137.84,-1.61,0.71,-1.61,0.71,-0.71,-0.53,-0.71,-2.32,-2.32,-2.31
139.22,-1.64,0.71,-1.64,0.71,-0.70,-0.55,-0.72,-2.34,-2.34,-2.34
140.61,-1.67,0.71,-1.67,0.70,-0.69,-0.57,-0.73,-2.36,-2.36,-2.37
142.02,-1.70,0.69,-1.70,0.69,-0.68,-0.59,-0.75,-2.38,-2.38,-2.38
143.44,-1.73,0.67,-1.73,0.68,-0.68,-0.61,-0.76,-2.41,-2.41,-2.40
144.87,-1.76,0.67,-1.75,0.67,-0.68,-0.63,-0.77,-2.43,-2.43,-2.43
146.32,-1.78,0.68,-1.78,0.67,-0.68,-0.65,-0.79,-2.46,-2.46,-2.45
147.78,-1.80,0.67,-1.80,0.68,-0.69,-0.68,-0.80,-2.48,-2.48,-2.47
149.26,-1.81,0.69,-1.81,0.70,-0.70,-0.70,-0.82,-2.51,-2.51,-2.50
150.75,-1.82,0.72,-1.82,0.72,-0.72,-0.72,-0.83,-2.54,-2.54,-2.54
152.26,-1.82,0.75,-1.82,0.75,-0.75,-0.74,-0.84,-2.57,-2.57,-2.57
153.78,-1.82,0.77,-1.81,0.78,-0.78,-0.76,-0.86,-2.60,-2.59,-2.59
155.32,-1.81,0.83,-1.81,0.82,-0.82,-0.78,-0.88,-2.62,-2.62,-2.63
156.88,-1.80,0.86,-1.80,0.86,-0.85,-0.80,-0.89,-2.65,-2.65,-2.65
158.44,-1.80,0.89,-1.80,0.90,-0.89,-0.82,-0.91,-2.69,-2.69,-2.69
160.03,-1.80,0.93,-1.80,0.93,-0.93,-0.84,-0.93,-2.72,-2.72,-2.73
161.63,-1.80,0.97,-1.80,0.97,-0.96,-0.87,-0.95,-2.76,-2.76,-2.77
163.24,-1.80,1.00,-1.80,1.00,-1.00,-0.89,-0.97,-2.80,-2.80,-2.80
164.88,-1.80,1.03,-1.80,1.04,-1.04,-0.91,-0.99,-2.83,-2.83,-2.83
166.53,-1.80,1.07,-1.80,1.07,-1.07,-0.93,-1.01,-2.87,-2.87,-2.87
168.19,-1.80,1.11,-1.80,1.11,-1.11,-0.95,-1.03,-2.91,-2.91,-2.91
169.87,-1.80,1.15,-1.80,1.15,-1.15,-0.97,-1.05,-2.95,-2.95,-2.95
171.57,-1.80,1.19,-1.80,1.19,-1.19,-1.00,-1.07,-2.99,-2.99,-2.98
173.29,-1.80,1.23,-1.80,1.23,-1.23,-1.02,-1.10,-3.03,-3.03,-3.03
175.02,-1.80,1.27,-1.80,1.28,-1.28,-1.04,-1.12,-3.07,-3.07,-3.07
176.77,-1.80,1.33,-1.80,1.32,-1.32,-1.06,-1.15,-3.12,-3.12,-3.12
178.54,-1.80,1.37,-1.80,1.37,-1.37,-1.08,-1.18,-3.17,-3.17,-3.17
180.32,-1.80,1.42,-1.80,1.42,-1.42,-1.10,-1.21,-3.21,-3.21,-3.21
182.13,-1.80,1.46,-1.80,1.46,-1.47,-1.13,-1.24,-3.26,-3.26,-3.26
183.95,-1.80,1.52,-1.80,1.51,-1.52,-1.15,-1.26,-3.31,-3.31,-3.31
185.79,-1.80,1.56,-1.80,1.57,-1.56,-1.17,-1.30,-3.36,-3.36,-3.36
187.65,-1.80,1.62,-1.80,1.62,-1.61,-1.19,-1.33,-3.41,-3.41,-3.42
189.52,-1.80,1.67,-1.80,1.66,-1.66,-1.21,-1.36,-3.46,-3.46,-3.46
191.42,-1.80,1.71,-1.80,1.71,-1.71,-1.23,-1.39,-3.50,-3.50,-3.50
193.33,-1.80,1.75,-1.80,1.75,-1.76,-1.26,-1.43,-3.55,-3.55,-3.55
195.27,-1.80,1.79,-1.80,1.80,-1.81,-1.28,-1.46,-3.60,-3.60,-3.59
197.22,-1.80,1.84,-1.79,1.85,-1.85,-1.30,-1.50,-3.65,-3.65,-3.64
199.19,-1.79,1.90,-1.79,1.90,-1.90,-1.32,-1.53,-3.69,-3.69,-3.69
201.18,-1.78,1.95,-1.78,1.95,-1.95,-1.35,-1.57,-3.72,-3.73,-3.73
203.19,-1.78,1.98,-1.78,1.99,-1.99,-1.37,-1.61,-3.76,-3.76,-3.76
205.23,-1.78,2.03,-1.77,2.03,-2.03,-1.39,-1.64,-3.80,-3.80,-3.81
207.28,-1.78,2.05,-1.78,2.06,-2.06,-1.41,-1.68,-3.84,-3.84,-3.83
209.35,-1.79,2.09,-1.79,2.10,-2.09,-1.43,-1.72,-3.88,-3.88,-3.88
211.44,-1.81,2.12,-1.81,2.11,-2.11,-1.46,-1.75,-3.92,-3.92,-3.93
213.56,-1.83,2.13,-1.83,2.13,-2.12,-1.48,-1.79,-3.95,-3.95,-3.96
215.69,-1.86,2.12,-1.85,2.13,-2.13,-1.50,-1.83,-3.99,-3.99,-3.98
217.85,-1.88,2.14,-1.88,2.14,-2.14,-1.52,-1.86,-4.01,-4.02,-4.01
220.03,-1.91,2.14,-1.91,2.14,-2.14,-1.55,-1.90,-4.04,-4.05,-4.05
222.23,-1.95,2.13,-1.94,2.13,-2.13,-1.57,-1.93,-4.08,-4.07,-4.08
224.45,-1.98,2.12,-1.98,2.12,-2.12,-1.59,-1.96,-4.10,-4.10,-4.10
226.70,-2.01,2.11,-2.01,2.11,-2.11,-1.61,-2.00,-4.12,-4.12,-4.11
228.96,-2.04,2.10,-2.04,2.10,-2.10,-1.63,-2.03,-4.14,-4.14,-4.14
231.25,-2.07,2.08,-2.06,2.09,-2.09,-1.66,-2.05,-4.15,-4.15,-4.15
233.57,-2.09,2.08,-2.09,2.08,-2.08,-1.68,-2.08,-4.16,-4.16,-4.16
235.90,-2.11,2.07,-2.11,2.07,-2.07,-1.70,-2.11,-4.17,-4.17,-4.18
238.26,-2.13,2.06,-2.12,2.06,-2.06,-1.72,-2.13,-4.19,-4.18,-4.18
240.64,-2.14,2.05,-2.14,2.05,-2.06,-1.75,-2.15,-4.19,-4.19,-4.19
243.05,-2.15,2.04,-2.15,2.04,-2.05,-1.77,-2.17,-4.20,-4.20,-4.19
245.48,-2.15,2.04,-2.14,2.04,-2.05,-1.79,-2.18,-4.20,-4.20,-4.19
247.93,-2.14,2.05,-2.14,2.05,-2.05,-1.81,-2.20,-4.19,-4.19,-4.19
250.41,-2.13,2.06,-2.13,2.06,-2.05,-1.84,-2.21,-4.18,-4.18,-4.19
252.92,-2.12,2.06,-2.12,2.05,-2.05,-1.86,-2.22,-4.16,-4.17,-4.17
255.45,-2.12,2.04,-2.12,2.05,-2.04,-1.88,-2.22,-4.16,-4.16,-4.16
258.00,-2.12,2.04,-2.12,2.04,-2.04,-1.90,-2.23,-4.15,-4.15,-4.15
260.58,-2.12,2.03,-2.12,2.03,-2.03,-1.92,-2.23,-4.14,-4.14,-4.15
263.19,-2.12,2.01,-2.12,2.02,-2.02,-1.95,-2.23,-4.13,-4.13,-4.13
265.82,-2.12,2.01,-2.12,2.00,-2.00,-1.97,-2.22,-4.12,-4.12,-4.13
268.48,-2.12,1.98,-2.12,1.99,-1.99,-1.99,-2.22,-4.10,-4.10,-4.10
271.16,-2.12,1.97,-2.12,1.97,-1.97,-2.01,-2.21,-4.09,-4.09,-4.08
273.87,-2.12,1.96,-2.12,1.95,-1.95,-2.03,-2.21,-4.07,-4.07,-4.08
276.61,-2.12,1.93,-2.12,1.94,-1.94,-2.05,-2.20,-4.06,-4.06,-4.05
279.38,-2.12,1.93,-2.12,1.92,-1.92,-2.07,-2.19,-4.04,-4.04,-4.04
282.17,-2.12,1.91,-2.12,1.91,-1.91,-2.10,-2.17,-4.03,-4.03,-4.03
284.99,-2.12,1.89,-2.12,1.90,-1.89,-2.12,-2.16,-4.01,-4.01,-4.01
287.84,-2.12,1.88,-2.12,1.88,-1.88,-2.14,-2.15,-4.00,-4.00,-4.00
290.72,-2.12,1.87,-2.12,1.87,-1.87,-2.16,-2.14,-3.98,-3.98,-3.98
293.63,-2.12,1.85,-2.12,1.85,-1.85,-2.18,-2.12,-3.97,-3.97,-3.97
296.57,-2.12,1.83,-2.12,1.84,-1.84,-2.20,-2.11,-3.95,-3.95,-3.95
299.53,-2.12,1.82,-2.12,1.82,-1.82,-2.22,-2.10,-3.94,-3.94,-3.94
302.53,-2.12,1.82,-2.12,1.81,-1.80,-2.24,-2.08,-3.92,-3.92,-3.93
305.55,-2.13,1.78,-2.12,1.79,-1.78,-2.26,-2.07,-3.91,-3.91,-3.91
308.61,-2.13,1.77,-2.13,1.77,-1.76,-2.28,-2.06,-3.89,-3.89,-3.90
311.69,-2.14,1.75,-2.13,1.75,-1.75,-2.30,-2.05,-3.89,-3.88,-3.89
314.81,-2.14,1.72,-2.14,1.73,-1.74,-2.32,-2.04,-3.87,-3.87,-3.86
317.96,-2.14,1.73,-2.14,1.72,-1.73,-2.34,-2.03,-3.87,-3.87,-3.86
321.14,-2.14,1.72,-2.13,1.72,-1.73,-2.36,-2.02,-3.86,-3.86,-3.86
324.35,-2.13,1.73,-2.13,1.73,-1.73,-2.38,-2.01,-3.86,-3.86,-3.86
327.59,-2.11,1.73,-2.11,1.74,-1.74,-2.40,-2.00,-3.85,-3.85,-3.84
330.87,-2.09,1.75,-2.09,1.76,-1.75,-2.42,-2.00,-3.84,-3.84,-3.84
334.18,-2.06,1.78,-2.06,1.78,-1.77,-2.44,-2.00,-3.83,-3.83,-3.84
337.52,-2.04,1.80,-2.03,1.80,-1.80,-2.46,-1.99,-3.83,-3.83,-3.83
340.90,-2.01,1.82,-2.01,1.82,-1.83,-2.48,-1.99,-3.83,-3.83,-3.82
344.30,-1.98,1.85,-1.98,1.85,-1.85,-2.50,-1.99,-3.83,-3.83,-3.83
347.75,-1.95,1.88,-1.94,1.88,-1.88,-2.52,-2.00,-3.83,-3.83,-3.83
351.23,-1.91,1.92,-1.91,1.92,-1.91,-2.53,-2.00,-3.82,-3.82,-3.83
354.74,-1.89,1.94,-1.88,1.95,-1.94,-2.55,-2.01,-3.83,-3.83,-3.83
358.28,-1.86,1.98,-1.86,1.98,-1.97,-2.57,-2.01,-3.82,-3.83,-3.84
361.87,-1.85,2.00,-1.84,2.00,-1.99,-2.59,-2.02,-3.84,-3.84,-3.84
365.49,-1.83,2.02,-1.83,2.02,-2.02,-2.60,-2.03,-3.84,-3.84,-3.84
369.14,-1.82,2.04,-1.81,2.04,-2.04,-2.62,-2.04,-3.86,-3.85,-3.85
372.83,-1.80,2.06,-1.80,2.06,-2.06,-2.64,-2.06,-3.86,-3.86,-3.86
376.56,-1.79,2.08,-1.78,2.08,-2.08,-2.65,-2.07,-3.87,-3.86,-3.87
380.33,-1.77,2.10,-1.77,2.10,-2.10,-2.67,-2.09,-3.87,-3.87,-3.87
384.13,-1.76,2.12,-1.76,2.12,-2.13,-2.69,-2.11,-3.88,-3.88,-3.88
387.97,-1.74,2.15,-1.74,2.15,-2.15,-2.70,-2.12,-3.89,-3.89,-3.89
391.85,-1.72,2.18,-1.71,2.18,-2.18,-2.72,-2.14,-3.90,-3.90,-3.90
395.77,-1.69,2.20,-1.69,2.21,-2.22,-2.73,-2.17,-3.90,-3.90,-3.89
399.73,-1.66,2.24,-1.66,2.25,-2.25,-2.74,-2.19,-3.91,-3.91,-3.90
403.72,-1.63,2.29,-1.62,2.29,-2.29,-2.76,-2.21,-3.91,-3.91,-3.91
407.76,-1.59,2.34,-1.59,2.33,-2.32,-2.77,-2.24,-3.91,-3.91,-3.92
411.84,-1.56,2.36,-1.56,2.36,-2.36,-2.79,-2.26,-3.91,-3.92,-3.91
415.96,-1.54,2.39,-1.53,2.39,-2.39,-2.80,-2.29,-3.93,-3.92,-3.92
420.12,-1.51,2.42,-1.51,2.42,-2.42,-2.81,-2.31,-3.92,-3.93,-3.92
424.32,-1.49,2.44,-1.49,2.44,-2.44,-2.82,-2.34,-3.92,-3.92,-3.93
428.56,-1.47,2.47,-1.47,2.46,-2.45,-2.84,-2.37,-3.92,-3.92,-3.94
432.85,-1.46,2.48,-1.46,2.47,-2.46,-2.85,-2.39,-3.92,-3.92,-3.94
