frequency,raw
20,7.05
21,7.23
22,7.38
23,7.51
24,7.62
25,7.72
26,7.81
27,7.90
28,7.97
29,8.04
30,8.10
31,8.15
32,8.19
33,8.23
34,8.26
35,8.29
36,8.31
37,8.33
38,8.35
39,8.36
40,8.37
41,8.38
42,8.38
43,8.38
44,8.38
45,8.38
46,8.37
47,8.37
48,8.36
49,8.36
50,8.38
51,8.36
52,8.30
53,8.22
54,8.20
55,8.22
56,8.23
57,8.20
58,8.14
59,8.10
60,8.10
61,8.10
62,8.09
63,8.07
64,8.04
65,8.02
66,7.99
67,7.95
68,7.93
69,7.90
70,7.88
71,7.85
72,7.84
73,7.82
74,7.79
75,7.74
76,7.69
77,7.64
78,7.60
79,7.57
80,7.56
81,7.54
82,7.51
83,7.49
84,7.46
85,7.43
86,7.38
87,7.35
88,7.31
89,7.28
90,7.25
91,7.22
92,7.20
93,7.17
94,7.14
95,7.11
96,7.08
97,7.03
98,6.99
99,6.94
100,6.89
101,6.85
102,6.81
104,6.77
105,6.75
106,6.72
107,6.68
108,6.65
109,6.60
110,6.56
111,6.52
112,6.48
113,6.45
114,6.43
115,6.40
117,6.34
118,6.31
119,6.27
120,6.24
121,6.20
123,6.12
124,6.09
125,6.06
126,6.02
128,5.97
129,5.94
130,5.92
131,5.89
133,5.82
134,5.78
135,5.72
137,5.64
138,5.59
140,5.52
141,5.48
142,5.44
144,5.37
145,5.34
147,5.28
148,5.24
150,5.18
151,5.14
153,5.08
154,5.05
156,4.98
157,4.94
159,4.88
160,4.85
162,4.79
164,4.73
165,4.71
167,4.65
169,4.60
170,4.58
172,4.53
174,4.48
175,4.45
177,4.40
179,4.34
181,4.28
183,4.21
184,4.18
186,4.13
188,4.10
190,4.06
192,4.04
194,4.00
196,3.98
198,3.95
200,3.91
202,3.87
204,3.83
206,3.79
208,3.76
210,3.73
212,3.69
214,3.65
216,3.61
218,3.55
221,3.47
223,3.41
225,3.36
227,3.32
229,3.29
232,3.24
234,3.20
236,3.16
239,3.10
241,3.05
244,3.00
246,2.96
248,2.91
251,2.85
253,2.81
256,2.75
259,2.69
261,2.65
264,2.59
266,2.54
269,2.48
272,2.42
274,2.38
277,2.32
280,2.26
283,2.20
286,2.15
288,2.11
291,2.05
294,2.00
297,1.94
300,1.89
303,1.83
306,1.78
309,1.73
312,1.67
316,1.61
319,1.56
322,1.51
325,1.46
328,1.41
332,1.35
335,1.30
338,1.26
342,1.20
345,1.16
349,1.10
352,1.06
356,1.01
359,0.97
363,0.92
366,0.88
370,0.82
374,0.77
377,0.74
381,0.69
385,0.64
389,0.59
393,0.54
397,0.49
401,0.44
405,0.39
409,0.35
413,0.30
417,0.25
421,0.20
425,0.15
430,0.09
434,0.04
438,-0.00
443,-0.05
447,-0.09
451,-0.13
456,-0.18
460,-0.22
465,-0.26
470,-0.30
474,-0.34
479,-0.38
484,-0.42
489,-0.46
494,-0.50
499,-0.54
504,-0.59
509,-0.64
514,-0.69
519,-0.75
524,-0.81
529,-0.86
535,-0.90
540,-0.93
545,-0.95
551,-0.97
556,-0.99
562,-1.02
568,-1.06
573,-1.08
579,-1.12
585,-1.15
591,-1.17
596,-1.20
602,-1.22
608,-1.24
615,-1.27
621,-1.31
627,-1.35
633,-1.38
639,-1.42
646,-1.44
652,-1.44
659,-1.44
665,-1.43
672,-1.43
679,-1.44
686,-1.45
692,-1.45
699,-1.45
706,-1.44
713,-1.42
721,-1.39
728,-1.37
735,-1.37
742,-1.38
750,-1.41
757,-1.46
765,-1.52
773,-1.56
780,-1.57
788,-1.56
796,-1.54
804,-1.49
812,-1.46
820,-1.44
828,-1.43
837,-1.42
845,-1.42
853,-1.41
862,-1.40
871,-1.37
879,-1.34
888,-1.28
897,-1.22
906,-1.14
915,-1.06
924,-0.97
933,-0.88
943,-0.76
952,-0.64
962,-0.50
971,-0.38
981,-0.24
991,-0.12
1001,0.01
1011,0.13
1021,0.27
1031,0.39
1041,0.53
1052,0.69
1062,0.84
1073,1.01
1084,1.17
1094,1.32
1105,1.48
1116,1.64
1128,1.80
1139,1.94
1150,2.07
1162,2.19
1173,2.31
1185,2.43
1197,2.55
1209,2.66
1221,2.77
1233,2.88
1246,3.02
1258,3.15
1271,3.30
1283,3.43
1296,3.57
1309,3.70
1322,3.82
1335,3.93
1349,4.04
1362,4.16
1376,4.29
1390,4.44
1404,4.60
1418,4.74
1432,4.89
1446,5.02
1461,5.16
1475,5.28
1490,5.42
1505,5.57
1520,5.73
1535,5.90
1550,6.08
1566,6.26
1582,6.43
1597,6.60
1613,6.76
1629,6.94
1646,7.12
1662,7.28
1679,7.47
1696,7.65
1713,7.83
1730,8.02
1747,8.21
1764,8.40
1782,8.60
1800,8.80
1818,9.00
1836,9.18
1854,9.37
1873,9.56
1892,9.76
1911,9.95
1930,10.13
1949,10.32
1969,10.49
1988,10.66
2008,10.84
2028,11.02
2048,11.21
2069,11.39
2090,11.57
2111,11.73
2132,11.88
2153,12.02
2175,12.13
2196,12.23
2218,12.34
2240,12.42
2263,12.50
2285,12.59
2308,12.64
2331,12.69
2355,12.70
2378,12.69
2402,12.67
2426,12.65
2450,12.62
2475,12.60
2500,12.58
2525,12.56
2550,12.55
2575,12.53
2601,12.50
2627,12.45
2653,12.38
2680,12.29
2707,12.19
2734,12.08
2761,11.98
2789,11.86
2817,11.78
2845,11.71
2873,11.66
2902,11.64
2931,11.62
2960,11.60
2990,11.61
3020,11.60
3050,11.61
3080,11.62
3111,11.64
3142,11.66
3174,11.70
3206,11.74
3238,11.78
3270,11.83
3303,11.89
3336,11.98
3369,12.07
3403,12.18
3437,12.29
3471,12.42
3506,12.56
3541,12.67
3576,12.78
3612,12.87
3648,12.93
3685,12.98
3721,13.02
3759,13.00
3796,12.95
3834,12.88
3873,12.74
3911,12.57
3950,12.35
3990,12.05
4030,11.68
4070,11.28
4111,10.81
4152,10.31
4193,9.78
4235,9.22
4278,8.62
4321,8.02
4364,7.42
4407,6.83
4451,6.25
4496,5.69
4541,5.16
4586,4.68
4632,4.24
4679,3.86
4725,3.55
4773,3.27
4820,2.99
4868,2.72
4917,2.43
4966,2.13
5016,1.81
5066,1.49
5117,1.17
5168,0.89
5220,0.61
5272,0.34
5325,0.09
5378,-0.15
5432,-0.39
5486,-0.61
5541,-0.83
5596,-1.05
5652,-1.24
5709,-1.40
5766,-1.58
5823,-1.75
5882,-1.90
5940,-2.03
6000,-2.15
6060,-2.23
6120,-2.29
6182,-2.33
6244,-2.33
6306,-2.32
6369,-2.30
6433,-2.25
6497,-2.17
6562,-2.04
6628,-1.88
6694,-1.70
6761,-1.49
6828,-1.26
6897,-1.00
6966,-0.72
7035,-0.40
7106,-0.05
7177,0.36
7249,0.81
7321,1.31
7394,1.82
7468,2.35
7543,2.95
7618,3.63
7694,4.37
7771,5.20
7849,6.13
7928,7.09
8007,8.06
8087,9.03
8168,9.92
8250,10.73
8332,11.31
8415,11.70
8499,11.88
8584,11.66
8670,11.19
8757,10.54
8845,9.80
8933,9.18
9022,8.46
9113,7.99
9204,7.74
9296,7.51
9389,7.31
9483,7.23
9577,7.19
9673,7.23
9770,7.41
9868,7.65
9966,7.94
10066,8.24
10167,8.52
10268,8.75
10371,8.80
10475,8.58
10579,8.22
10685,7.67
10792,6.81
10900,5.80
11009,4.67
11119,3.45
11230,2.22
11343,1.06
11456,0.19
11571,-1.32
11686,-3.24
11803,-4.42
11921,-5.90
12040,-7.43
12161,-8.74
12282,-10.43
12405,-12.09
12529,-13.62
12655,-14.93
12781,-15.98
12909,-16.85
13038,-17.33
13168,-17.62
13300,-17.69
13433,-17.39
13567,-16.98
13703,-16.48
13840,-15.98
13978,-15.40
14118,-14.82
14259,-14.25
14402,-13.78
14546,-13.42
14692,-13.18
14838,-13.21
14987,-13.37
15137,-13.64
15288,-14.01
15441,-14.37
15595,-14.71
15751,-14.95
15909,-15.08
16068,-15.11
16229,-15.03
16391,-14.81
16555,-14.50
16720,-14.08
16888,-13.45
17056,-12.76
17227,-11.98
17399,-11.23
17573,-10.59
17749,-10.06
17926,-9.78
18106,-9.62
18287,-9.55
18470,-9.53
18654,-9.61
18841,-9.83
19029,-10.31
19220,-11.36
19412,-12.77
19606,-14.58
19802,-16.88
20000,-19.27
