frequency,raw,smoothed,error,error_smoothed,equalization,parametric_eq,fixed_band_eq,equalized_raw,equalized_smoothed,target
20.00,-4.20,-4.20,-6.02,-6.02,6.00,5.30,2.84,1.80,1.80,1.82
20.20,-4.22,-4.22,-6.07,-6.07,6.00,5.30,2.92,1.78,1.78,1.85
20.40,-4.24,-4.24,-6.12,-6.12,6.00,5.30,3.00,1.76,1.76,1.88
20.61,-4.27,-4.27,-6.17,-6.17,6.00,5.30,3.09,1.73,1.73,1.90
20.81,-4.30,-4.30,-6.23,-6.23,6.00,5.30,3.17,1.70,1.70,1.93
21.02,-4.34,-4.34,-6.30,-6.29,6.00,5.30,3.26,1.66,1.66,1.96
21.23,-4.37,-4.38,-6.34,-6.34,6.00,5.30,3.36,1.63,1.62,1.97
21.44,-4.42,-4.42,-6.40,-6.39,6.00,5.30,3.45,1.58,1.58,1.97
21.66,-4.46,-4.46,-6.44,-6.44,6.00,5.30,3.55,1.54,1.54,1.98
21.87,-4.50,-4.50,-6.48,-6.49,6.00,5.30,3.65,1.50,1.50,1.98
22.09,-4.54,-4.54,-6.53,-6.53,6.00,5.29,3.76,1.46,1.46,1.99
22.31,-4.57,-4.57,-6.56,-6.56,6.00,5.29,3.86,1.43,1.43,1.99
22.54,-4.59,-4.59,-6.58,-6.58,6.00,5.29,3.97,1.41,1.41,1.99
22.76,-4.61,-4.61,-6.60,-6.60,6.00,5.29,4.08,1.39,1.39,1.99
22.99,-4.62,-4.62,-6.60,-6.60,6.00,5.29,4.20,1.38,1.38,1.98
23.22,-4.63,-4.63,-6.61,-6.61,6.00,5.29,4.32,1.37,1.37,1.98
23.45,-4.64,-4.64,-6.62,-6.62,6.00,5.29,4.44,1.36,1.36,1.98
23.69,-4.66,-4.66,-6.64,-6.64,6.00,5.29,4.56,1.34,1.34,1.98
23.92,-4.68,-4.68,-6.66,-6.66,6.00,5.29,4.68,1.32,1.32,1.98
24.16,-4.71,-4.71,-6.70,-6.69,6.00,5.28,4.81,1.29,1.29,1.99
24.40,-4.73,-4.73,-6.72,-6.72,6.00,5.28,4.94,1.27,1.27,1.99
24.65,-4.76,-4.76,-6.73,-6.74,6.00,5.28,5.07,1.24,1.24,1.97
24.89,-4.79,-4.79,-6.76,-6.76,6.00,5.28,5.21,1.21,1.21,1.97
25.14,-4.81,-4.81,-6.78,-6.78,6.00,5.28,5.34,1.19,1.19,1.97
25.39,-4.83,-4.83,-6.80,-6.80,6.00,5.28,5.48,1.17,1.17,1.97
25.65,-4.85,-4.85,-6.82,-6.81,6.00,5.28,5.62,1.15,1.15,1.97
25.91,-4.86,-4.86,-6.82,-6.82,6.00,5.27,5.75,1.14,1.14,1.96
26.16,-4.87,-4.87,-6.83,-6.83,6.00,5.27,5.89,1.13,1.13,1.96
26.43,-4.88,-4.88,-6.84,-6.84,6.00,5.27,6.03,1.12,1.12,1.96
26.69,-4.89,-4.89,-6.85,-6.85,6.00,5.27,6.16,1.11,1.11,1.96
26.96,-4.91,-4.91,-6.86,-6.87,6.00,5.27,6.30,1.09,1.09,1.96
27.23,-4.93,-4.93,-6.88,-6.89,6.00,5.27,6.43,1.07,1.07,1.95
27.50,-4.96,-4.96,-6.91,-6.91,6.00,5.26,6.56,1.04,1.04,1.95
27.77,-4.98,-4.98,-6.92,-6.92,6.00,5.26,6.68,1.02,1.02,1.94
28.05,-5.00,-5.00,-6.94,-6.94,6.00,5.26,6.80,1.00,1.00,1.94
28.33,-5.02,-5.02,-6.95,-6.95,6.00,5.26,6.92,0.98,0.98,1.93
28.62,-5.04,-5.03,-6.97,-6.96,6.00,5.25,7.03,0.96,0.97,1.93
28.90,-5.04,-5.05,-6.97,-6.97,6.00,5.25,7.12,0.96,0.95,1.92
29.19,-5.05,-5.05,-6.96,-6.97,6.00,5.25,7.22,0.95,0.95,1.91
29.48,-5.05,-5.05,-6.97,-6.96,6.00,5.25,7.30,0.95,0.95,1.92
29.78,-5.04,-5.04,-6.95,-6.95,6.00,5.24,7.37,0.96,0.96,1.91
30.08,-5.03,-5.03,-6.94,-6.94,6.00,5.24,7.43,0.97,0.97,1.91
30.38,-5.02,-5.02,-6.92,-6.92,6.00,5.24,7.49,0.98,0.98,1.90
30.68,-5.01,-5.01,-6.90,-6.90,6.00,5.24,7.53,0.99,0.99,1.89
30.99,-5.00,-5.00,-6.88,-6.88,6.00,5.23,7.56,1.00,1.00,1.88
31.30,-4.98,-4.98,-6.86,-6.86,6.00,5.23,7.57,1.02,1.02,1.88
31.61,-4.97,-4.97,-6.85,-6.84,6.00,5.23,7.57,1.03,1.03,1.88
31.93,-4.96,-4.96,-6.83,-6.82,6.00,5.22,7.56,1.04,1.04,1.87
32.24,-4.95,-4.95,-6.80,-6.80,6.00,5.22,7.55,1.05,1.05,1.85
32.57,-4.93,-4.93,-6.78,-6.78,6.00,5.21,7.51,1.07,1.07,1.85
32.89,-4.92,-4.92,-6.77,-6.76,6.00,5.21,7.47,1.08,1.08,1.85
33.22,-4.91,-4.91,-6.74,-6.75,6.00,5.21,7.41,1.09,1.09,1.83
33.55,-4.90,-4.90,-6.73,-6.73,6.00,5.20,7.35,1.10,1.10,1.83
33.89,-4.89,-4.89,-6.71,-6.71,6.00,5.20,7.28,1.11,1.11,1.82
34.23,-4.88,-4.88,-6.70,-6.69,6.00,5.19,7.20,1.12,1.12,1.82
34.57,-4.87,-4.87,-6.67,-6.67,6.00,5.19,7.11,1.13,1.13,1.80
34.92,-4.86,-4.86,-6.65,-6.66,6.00,5.18,7.02,1.14,1.14,1.79
35.27,-4.85,-4.85,-6.64,-6.63,6.00,5.18,6.93,1.15,1.15,1.79
35.62,-4.84,-4.84,-6.61,-6.61,6.00,5.17,6.82,1.16,1.16,1.77
35.97,-4.82,-4.82,-6.58,-6.58,6.00,5.17,6.72,1.18,1.18,1.76
36.33,-4.79,-4.80,-6.55,-6.55,6.00,5.16,6.61,1.21,1.20,1.76
36.70,-4.77,-4.77,-6.51,-6.51,6.00,5.16,6.50,1.23,1.23,1.74
37.06,-4.74,-4.74,-6.47,-6.47,6.00,5.15,6.39,1.26,1.26,1.73
37.43,-4.70,-4.70,-6.42,-6.42,6.00,5.14,6.28,1.30,1.30,1.72
37.81,-4.66,-4.66,-6.37,-6.37,6.00,5.14,6.17,1.34,1.34,1.71
38.19,-4.62,-4.62,-6.32,-6.32,6.00,5.13,6.06,1.38,1.38,1.69
38.57,-4.58,-4.58,-6.27,-6.27,6.01,5.12,5.95,1.43,1.43,1.69
38.95,-4.54,-4.54,-6.21,-6.21,6.01,5.11,5.84,1.47,1.47,1.68
39.34,-4.50,-4.50,-6.16,-6.16,6.01,5.11,5.73,1.51,1.51,1.66
39.74,-4.45,-4.45,-6.10,-6.10,6.00,5.10,5.63,1.55,1.54,1.64
40.14,-4.41,-4.41,-6.05,-6.05,5.98,5.09,5.53,1.57,1.57,1.64
40.54,-4.36,-4.36,-5.98,-5.99,5.96,5.08,5.43,1.60,1.59,1.62
40.94,-4.32,-4.32,-5.94,-5.93,5.92,5.07,5.33,1.60,1.61,1.62
41.35,-4.27,-4.27,-5.87,-5.88,5.88,5.06,5.24,1.61,1.61,1.60
41.76,-4.23,-4.23,-5.83,-5.82,5.83,5.05,5.15,1.60,1.61,1.60
42.18,-4.18,-4.18,-5.77,-5.77,5.78,5.04,5.06,1.60,1.59,1.59
42.60,-4.14,-4.14,-5.71,-5.71,5.71,5.03,4.98,1.57,1.58,1.57
43.03,-4.09,-4.09,-5.66,-5.65,5.65,5.02,4.90,1.56,1.56,1.57
43.46,-4.04,-4.04,-5.59,-5.59,5.58,5.00,4.82,1.54,1.54,1.55
43.90,-3.99,-3.99,-5.51,-5.51,5.52,4.99,4.75,1.52,1.53,1.52
44.33,-3.94,-3.94,-5.44,-5.44,5.45,4.98,4.68,1.51,1.51,1.50
44.78,-3.89,-3.89,-5.38,-5.38,5.38,4.96,4.61,1.49,1.49,1.49
45.23,-3.85,-3.85,-5.32,-5.31,5.32,4.95,4.55,1.46,1.47,1.47
45.68,-3.80,-3.80,-5.25,-5.25,5.25,4.93,4.49,1.45,1.45,1.45
46.13,-3.75,-3.75,-5.18,-5.18,5.19,4.92,4.43,1.44,1.44,1.43
46.60,-3.70,-3.70,-5.12,-5.12,5.12,4.90,4.38,1.42,1.42,1.42
47.06,-3.66,-3.66,-5.06,-5.06,5.06,4.88,4.33,1.40,1.40,1.40
47.53,-3.62,-3.62,-5.00,-5.00,5.00,4.87,4.29,1.38,1.38,1.38
48.01,-3.58,-3.58,-4.95,-4.94,4.93,4.85,4.24,1.35,1.35,1.37
48.49,-3.53,-3.53,-4.87,-4.87,4.86,4.83,4.21,1.33,1.33,1.34
48.97,-3.49,-3.49,-4.80,-4.80,4.80,4.81,4.17,1.31,1.31,1.31
49.46,-3.45,-3.45,-4.73,-4.73,4.73,4.79,4.14,1.29,1.29,1.28
49.96,-3.41,-3.41,-4.66,-4.66,4.67,4.76,4.10,1.26,1.26,1.25
50.46,-3.38,-3.38,-4.61,-4.60,4.61,4.74,4.08,1.23,1.23,1.23
50.96,-3.34,-3.34,-4.55,-4.55,4.55,4.71,4.05,1.21,1.21,1.21
51.47,-3.31,-3.31,-4.49,-4.49,4.49,4.69,4.03,1.18,1.18,1.18
51.99,-3.28,-3.28,-4.43,-4.44,4.44,4.66,4.00,1.16,1.16,1.15
52.51,-3.25,-3.25,-4.39,-4.39,4.38,4.63,3.98,1.13,1.13,1.14
53.03,-3.22,-3.22,-4.34,-4.33,4.33,4.60,3.97,1.11,1.11,1.12
53.56,-3.19,-3.19,-4.28,-4.28,4.28,4.57,3.95,1.09,1.09,1.09
54.10,-3.16,-3.16,-4.23,-4.23,4.23,4.54,3.93,1.07,1.06,1.06
54.64,-3.14,-3.14,-4.18,-4.18,4.18,4.51,3.92,1.03,1.04,1.04
55.18,-3.11,-3.11,-4.12,-4.12,4.12,4.47,3.91,1.01,1.01,1.01
55.74,-3.09,-3.09,-4.08,-4.08,4.07,4.43,3.89,0.98,0.99,0.99
56.29,-3.06,-3.06,-4.03,-4.03,4.03,4.39,3.88,0.97,0.96,0.97
56.86,-3.04,-3.04,-3.98,-3.98,3.98,4.35,3.87,0.94,0.94,0.94
57.42,-3.02,-3.02,-3.93,-3.93,3.94,4.31,3.86,0.92,0.92,0.91
58.00,-3.00,-3.00,-3.89,-3.89,3.90,4.27,3.85,0.90,0.90,0.89
58.58,-2.99,-2.99,-3.86,-3.86,3.86,4.22,3.84,0.87,0.87,0.87
59.16,-2.97,-2.97,-3.82,-3.82,3.82,4.17,3.82,0.85,0.85,0.85
59.76,-2.96,-2.96,-3.79,-3.79,3.78,4.12,3.81,0.82,0.82,0.83
60.35,-2.95,-2.95,-3.75,-3.75,3.74,4.07,3.80,0.79,0.79,0.80
60.96,-2.94,-2.94,-3.72,-3.71,3.70,4.02,3.78,0.76,0.76,0.78
61.57,-2.93,-2.93,-3.66,-3.67,3.66,3.96,3.77,0.73,0.73,0.73
62.18,-2.92,-2.92,-3.62,-3.62,3.63,3.90,3.75,0.71,0.71,0.70
62.80,-2.91,-2.91,-3.58,-3.58,3.59,3.84,3.73,0.68,0.68,0.67
63.43,-2.90,-2.90,-3.54,-3.54,3.55,3.78,3.71,0.65,0.65,0.64
64.07,-2.90,-2.90,-3.51,-3.51,3.51,3.72,3.69,0.61,0.62,0.61
64.71,-2.89,-2.89,-3.48,-3.48,3.48,3.66,3.67,0.59,0.59,0.59
65.35,-2.89,-2.89,-3.45,-3.45,3.45,3.60,3.65,0.56,0.56,0.56
66.01,-2.89,-2.89,-3.42,-3.42,3.41,3.54,3.62,0.52,0.53,0.53
66.67,-2.88,-2.88,-3.38,-3.39,3.38,3.47,3.60,0.50,0.50,0.50
67.33,-2.88,-2.88,-3.35,-3.35,3.35,3.41,3.58,0.47,0.47,0.47
68.01,-2.88,-2.88,-3.32,-3.32,3.32,3.35,3.55,0.44,0.44,0.44
68.69,-2.88,-2.88,-3.29,-3.29,3.29,3.29,3.52,0.41,0.41,0.41
69.37,-2.88,-2.88,-3.26,-3.26,3.26,3.24,3.50,0.38,0.38,0.38
70.07,-2.88,-2.88,-3.23,-3.23,3.23,3.19,3.47,0.35,0.35,0.35
70.77,-2.88,-2.88,-3.20,-3.20,3.20,3.14,3.45,0.32,0.32,0.32
71.48,-2.88,-2.88,-3.17,-3.17,3.17,3.09,3.42,0.29,0.29,0.29
72.19,-2.89,-2.89,-3.14,-3.14,3.14,3.05,3.40,0.25,0.25,0.25
72.91,-2.89,-2.89,-3.11,-3.11,3.11,3.02,3.37,0.22,0.22,0.22
73.64,-2.90,-2.90,-3.08,-3.09,3.09,2.99,3.35,0.19,0.19,0.18
74.38,-2.92,-2.92,-3.07,-3.06,3.07,2.97,3.33,0.15,0.15,0.15
75.12,-2.93,-2.93,-3.04,-3.05,3.05,2.95,3.30,0.12,0.11,0.11
75.87,-2.95,-2.95,-3.03,-3.03,3.03,2.93,3.28,0.08,0.08,0.08
76.63,-2.96,-2.96,-3.01,-3.01,3.02,2.93,3.27,0.06,0.05,0.05
77.40,-2.98,-2.98,-3.00,-3.00,3.00,2.93,3.25,0.02,0.02,0.02
78.17,-3.01,-3.01,-2.99,-2.99,3.00,2.93,3.23,-0.01,-0.01,-0.02
78.95,-3.03,-3.03,-2.99,-2.99,2.99,2.93,3.22,-0.04,-0.04,-0.04
79.74,-3.06,-3.06,-2.99,-2.98,2.98,2.94,3.21,-0.08,-0.08,-0.07
80.54,-3.09,-3.09,-2.98,-2.98,2.98,2.96,3.20,-0.11,-0.11,-0.11
81.35,-3.12,-3.12,-2.98,-2.98,2.98,2.97,3.19,-0.14,-0.14,-0.14
82.16,-3.15,-3.15,-2.97,-2.98,2.98,2.99,3.19,-0.17,-0.18,-0.18
82.98,-3.19,-3.19,-2.98,-2.98,2.98,3.01,3.18,-0.21,-0.21,-0.21
83.81,-3.23,-3.23,-2.98,-2.98,2.98,3.03,3.18,-0.25,-0.25,-0.25
84.65,-3.27,-3.27,-2.98,-2.98,2.98,3.05,3.18,-0.29,-0.28,-0.29
85.50,-3.31,-3.31,-2.99,-2.99,2.99,3.07,3.19,-0.32,-0.32,-0.32
86.35,-3.36,-3.36,-3.00,-3.00,3.00,3.09,3.19,-0.36,-0.36,-0.36
87.22,-3.41,-3.41,-3.01,-3.01,3.01,3.11,3.20,-0.40,-0.40,-0.40
88.09,-3.46,-3.46,-3.02,-3.03,3.03,3.13,3.21,-0.43,-0.44,-0.44
88.97,-3.52,-3.52,-3.05,-3.04,3.04,3.15,3.23,-0.48,-0.48,-0.47
89.86,-3.57,-3.57,-3.06,-3.06,3.06,3.17,3.24,-0.51,-0.51,-0.51
90.76,-3.63,-3.63,-3.07,-3.07,3.07,3.19,3.26,-0.55,-0.56,-0.56
91.66,-3.69,-3.69,-3.09,-3.09,3.09,3.21,3.28,-0.60,-0.60,-0.60
92.58,-3.76,-3.76,-3.11,-3.11,3.11,3.23,3.30,-0.65,-0.64,-0.65
93.51,-3.82,-3.82,-3.14,-3.14,3.14,3.25,3.33,-0.68,-0.69,-0.68
94.44,-3.89,-3.89,-3.16,-3.16,3.16,3.27,3.36,-0.73,-0.73,-0.73
95.39,-3.96,-3.96,-3.19,-3.19,3.19,3.29,3.38,-0.77,-0.77,-0.77
96.34,-4.03,-4.03,-3.20,-3.21,3.21,3.31,3.42,-0.82,-0.82,-0.83
97.30,-4.11,-4.11,-3.24,-3.24,3.24,3.33,3.45,-0.87,-0.87,-0.87
98.28,-4.18,-4.18,-3.26,-3.27,3.27,3.35,3.48,-0.91,-0.91,-0.92
99.26,-4.26,-4.26,-3.30,-3.30,3.30,3.37,3.52,-0.96,-0.96,-0.96
100.25,-4.34,-4.34,-3.33,-3.33,3.33,3.39,3.56,-1.01,-1.01,-1.01
101.25,-4.42,-4.42,-3.37,-3.36,3.36,3.41,3.60,-1.06,-1.06,-1.05
102.27,-4.49,-4.49,-3.39,-3.39,3.39,3.43,3.64,-1.10,-1.10,-1.10
103.29,-4.57,-4.57,-3.41,-3.42,3.42,3.46,3.68,-1.15,-1.15,-1.16
104.32,-4.65,-4.65,-3.46,-3.45,3.46,3.49,3.72,-1.19,-1.19,-1.19
105.37,-4.73,-4.73,-3.49,-3.49,3.49,3.51,3.76,-1.24,-1.24,-1.24
106.42,-4.81,-4.81,-3.53,-3.53,3.52,3.54,3.80,-1.29,-1.29,-1.28
107.48,-4.89,-4.89,-3.56,-3.56,3.56,3.57,3.84,-1.33,-1.33,-1.33
108.56,-4.97,-4.97,-3.58,-3.59,3.59,3.61,3.88,-1.38,-1.38,-1.39
109.64,-5.05,-5.05,-3.62,-3.62,3.62,3.64,3.92,-1.43,-1.43,-1.43
110.74,-5.13,-5.13,-3.65,-3.65,3.65,3.67,3.96,-1.48,-1.48,-1.48
111.85,-5.21,-5.21,-3.68,-3.68,3.67,3.70,3.99,-1.54,-1.53,-1.52
112.97,-5.28,-5.28,-3.69,-3.70,3.70,3.73,4.02,-1.58,-1.59,-1.59
114.10,-5.36,-5.36,-3.72,-3.72,3.72,3.76,4.06,-1.64,-1.64,-1.64
115.24,-5.43,-5.43,-3.74,-3.74,3.74,3.78,4.08,-1.69,-1.69,-1.69
116.39,-5.50,-5.50,-3.75,-3.76,3.76,3.80,4.11,-1.74,-1.74,-1.74
117.55,-5.57,-5.57,-3.77,-3.77,3.78,3.82,4.13,-1.80,-1.79,-1.80
118.73,-5.64,-5.64,-3.79,-3.79,3.79,3.83,4.14,-1.85,-1.85,-1.85
119.92,-5.70,-5.70,-3.80,-3.80,3.81,3.83,4.15,-1.89,-1.90,-1.90
121.12,-5.77,-5.77,-3.82,-3.82,3.82,3.84,4.16,-1.95,-1.95,-1.95
122.33,-5.83,-5.83,-3.83,-3.83,3.83,3.83,4.16,-2.00,-2.00,-2.00
123.55,-5.89,-5.89,-3.85,-3.84,3.84,3.82,4.16,-2.05,-2.05,-2.04
124.79,-5.94,-5.94,-3.85,-3.85,3.84,3.81,4.15,-2.10,-2.10,-2.09
126.03,-5.99,-5.99,-3.85,-3.85,3.84,3.80,4.14,-2.15,-2.15,-2.14
127.29,-6.04,-6.04,-3.85,-3.84,3.84,3.78,4.12,-2.20,-2.20,-2.19
128.57,-6.09,-6.09,-3.84,-3.84,3.84,3.76,4.10,-2.25,-2.25,-2.25
129.85,-6.13,-6.13,-3.83,-3.83,3.83,3.75,4.07,-2.30,-2.30,-2.30
131.15,-6.17,-6.17,-3.82,-3.82,3.82,3.73,4.04,-2.35,-2.35,-2.35
132.46,-6.21,-6.21,-3.81,-3.81,3.81,3.72,4.01,-2.40,-2.40,-2.40
133.79,-6.24,-6.24,-3.81,-3.80,3.80,3.71,3.97,-2.44,-2.44,-2.43
135.12,-6.27,-6.27,-3.78,-3.79,3.78,3.70,3.92,-2.49,-2.49,-2.49
136.48,-6.30,-6.30,-3.77,-3.77,3.77,3.69,3.87,-2.53,-2.53,-2.53
137.84,-6.33,-6.33,-3.76,-3.75,3.76,3.69,3.82,-2.57,-2.57,-2.57
139.22,-6.35,-6.35,-3.73,-3.74,3.74,3.69,3.77,-2.61,-2.61,-2.62
140.61,-6.38,-6.38,-3.71,-3.72,3.72,3.70,3.71,-2.66,-2.65,-2.67
142.02,-6.40,-6.40,-3.71,-3.70,3.71,3.70,3.65,-2.69,-2.70,-2.69
143.44,-6.42,-6.42,-3.69,-3.69,3.69,3.71,3.59,-2.73,-2.74,-2.73
144.87,-6.44,-6.44,-3.67,-3.67,3.67,3.71,3.52,-2.77,-2.77,-2.77
146.32,-6.45,-6.45,-3.64,-3.65,3.64,3.72,3.46,-2.81,-2.81,-2.81
147.78,-6.46,-6.46,-3.62,-3.62,3.62,3.73,3.39,-2.84,-2.84,-2.84
149.26,-6.48,-6.47,-3.60,-3.59,3.59,3.74,3.33,-2.89,-2.88,-2.88
150.75,-6.48,-6.48,-3.56,-3.56,3.57,3.75,3.26,-2.91,-2.92,-2.92
152.26,-6.49,-6.49,-3.53,-3.53,3.54,3.76,3.20,-2.95,-2.96,-2.96
153.78,-6.50,-6.50,-3.50,-3.50,3.50,3.76,3.13,-3.00,-3.00,-3.00
155.32,-6.51,-6.51,-3.47,-3.47,3.47,3.76,3.07,-3.04,-3.04,-3.04
156.88,-6.51,-6.51,-3.44,-3.44,3.43,3.76,3.00,-3.08,-3.08,-3.07
158.44,-6.52,-6.52,-3.40,-3.40,3.40,3.76,2.94,-3.12,-3.12,-3.12
160.03,-6.52,-6.52,-3.36,-3.36,3.36,3.75,2.87,-3.16,-3.16,-3.16
161.63,-6.52,-6.52,-3.32,-3.32,3.32,3.73,2.81,-3.20,-3.20,-3.20
163.24,-6.52,-6.52,-3.28,-3.28,3.29,3.72,2.75,-3.23,-3.23,-3.24
164.88,-6.52,-6.52,-3.25,-3.25,3.25,3.69,2.70,-3.27,-3.27,-3.27
166.53,-6.52,-6.52,-3.21,-3.21,3.21,3.66,2.64,-3.31,-3.31,-3.31
168.19,-6.52,-6.52,-3.17,-3.17,3.17,3.62,2.58,-3.35,-3.35,-3.35
169.87,-6.52,-6.52,-3.13,-3.13,3.13,3.58,2.53,-3.39,-3.39,-3.39
171.57,-6.52,-6.52,-3.10,-3.09,3.09,3.53,2.48,-3.43,-3.42,-3.42
173.29,-6.51,-6.51,-3.05,-3.05,3.05,3.48,2.43,-3.46,-3.46,-3.46
175.02,-6.50,-6.50,-3.01,-3.01,3.00,3.42,2.38,-3.50,-3.50,-3.49
176.77,-6.50,-6.50,-2.96,-2.96,2.96,3.36,2.33,-3.54,-3.54,-3.54
178.54,-6.49,-6.49,-2.91,-2.91,2.91,3.29,2.29,-3.58,-3.58,-3.58
180.32,-6.48,-6.48,-2.86,-2.86,2.86,3.21,2.24,-3.62,-3.62,-3.62
182.13,-6.46,-6.46,-2.81,-2.81,2.81,3.14,2.20,-3.65,-3.65,-3.65
183.95,-6.45,-6.45,-2.76,-2.76,2.76,3.06,2.16,-3.69,-3.69,-3.69
185.79,-6.44,-6.44,-2.72,-2.71,2.71,2.98,2.13,-3.73,-3.72,-3.72
187.65,-6.42,-6.42,-2.66,-2.66,2.66,2.90,2.09,-3.76,-3.76,-3.76
189.52,-6.41,-6.41,-2.62,-2.61,2.61,2.81,2.06,-3.80,-3.79,-3.79
191.42,-6.39,-6.39,-2.57,-2.57,2.56,2.73,2.02,-3.83,-3.83,-3.82
193.33,-6.37,-6.37,-2.52,-2.52,2.52,2.64,1.99,-3.85,-3.86,-3.85
195.27,-6.35,-6.35,-2.47,-2.47,2.47,2.55,1.96,-3.88,-3.88,-3.88
197.22,-6.33,-6.33,-2.42,-2.42,2.42,2.47,1.93,-3.91,-3.91,-3.91
199.19,-6.31,-6.31,-2.36,-2.37,2.38,2.38,1.91,-3.93,-3.93,-3.95
201.18,-6.29,-6.29,-2.33,-2.33,2.34,2.30,1.88,-3.95,-3.95,-3.96
203.19,-6.27,-6.27,-2.29,-2.29,2.30,2.22,1.85,-3.97,-3.98,-3.98
205.23,-6.25,-6.25,-2.25,-2.26,2.25,2.14,1.83,-4.00,-4.00,-4.00
207.28,-6.23,-6.23,-2.22,-2.21,2.21,2.06,1.81,-4.02,-4.02,-4.01
209.35,-6.20,-6.20,-2.17,-2.16,2.16,1.98,1.79,-4.04,-4.04,-4.03
211.44,-6.16,-6.16,-2.10,-2.11,2.10,1.90,1.77,-4.06,-4.06,-4.06
213.56,-6.12,-6.12,-2.06,-2.05,2.04,1.83,1.75,-4.08,-4.07,-4.06
215.69,-6.06,-6.06,-2.00,-1.99,1.98,1.76,1.73,-4.08,-4.08,-4.06
217.85,-5.99,-5.99,-1.91,-1.91,1.90,1.69,1.71,-4.09,-4.09,-4.08
220.03,-5.92,-5.92,-1.83,-1.83,1.83,1.62,1.69,-4.09,-4.09,-4.09
222.23,-5.84,-5.84,-1.74,-1.75,1.76,1.55,1.67,-4.08,-4.08,-4.10
224.45,-5.77,-5.77,-1.68,-1.67,1.69,1.49,1.65,-4.08,-4.08,-4.09
226.70,-5.71,-5.71,-1.62,-1.61,1.63,1.42,1.63,-4.08,-4.08,-4.09
228.96,-5.65,-5.65,-1.56,-1.56,1.57,1.36,1.61,-4.08,-4.08,-4.09
231.25,-5.61,-5.61,-1.53,-1.52,1.53,1.31,1.59,-4.08,-4.08,-4.08
233.57,-5.57,-5.57,-1.49,-1.48,1.49,1.25,1.57,-4.08,-4.08,-4.08
235.90,-5.54,-5.54,-1.46,-1.46,1.46,1.19,1.55,-4.08,-4.08,-4.08
238.26,-5.51,-5.51,-1.43,-1.43,1.43,1.14,1.53,-4.08,-4.08,-4.08
240.64,-5.48,-5.48,-1.41,-1.40,1.40,1.09,1.51,-4.08,-4.08,-4.07
243.05,-5.44,-5.44,-1.38,-1.38,1.37,1.04,1.49,-4.07,-4.07,-4.06
245.48,-5.40,-5.40,-1.35,-1.35,1.34,0.99,1.47,-4.06,-4.06,-4.05
247.93,-5.35,-5.35,-1.31,-1.31,1.31,0.95,1.44,-4.04,-4.04,-4.04
250.41,-5.30,-5.30,-1.26,-1.27,1.27,0.90,1.42,-4.03,-4.03,-4.04
252.92,-5.24,-5.24,-1.23,-1.23,1.23,0.86,1.39,-4.01,-4.01,-4.01
255.45,-5.19,-5.19,-1.20,-1.19,1.19,0.82,1.36,-4.00,-4.00,-3.99
258.00,-5.13,-5.13,-1.15,-1.15,1.15,0.78,1.34,-3.98,-3.98,-3.98
260.58,-5.06,-5.07,-1.10,-1.10,1.10,0.74,1.31,-3.96,-3.96,-3.96
263.19,-5.00,-5.00,-1.06,-1.06,1.06,0.70,1.28,-3.94,-3.94,-3.94
265.82,-4.94,-4.94,-1.01,-1.01,1.01,0.66,1.25,-3.93,-3.92,-3.93
268.48,-4.87,-4.87,-0.97,-0.97,0.97,0.63,1.22,-3.90,-3.90,-3.90
271.16,-4.80,-4.80,-0.92,-0.92,0.92,0.59,1.18,-3.88,-3.89,-3.88
273.87,-4.74,-4.74,-0.87,-0.88,0.87,0.56,1.15,-3.87,-3.87,-3.87
276.61,-4.67,-4.67,-0.83,-0.82,0.82,0.53,1.12,-3.85,-3.85,-3.84
279.38,-4.60,-4.60,-0.77,-0.78,0.78,0.50,1.08,-3.82,-3.83,-3.83
282.17,-4.53,-4.53,-0.72,-0.72,0.73,0.47,1.05,-3.80,-3.80,-3.81
284.99,-4.47,-4.47,-0.68,-0.68,0.68,0.44,1.01,-3.79,-3.79,-3.79
287.84,-4.40,-4.40,-0.63,-0.63,0.63,0.41,0.98,-3.77,-3.77,-3.77
290.72,-4.34,-4.34,-0.59,-0.59,0.59,0.38,0.94,-3.75,-3.75,-3.75
293.63,-4.27,-4.27,-0.54,-0.55,0.54,0.35,0.90,-3.73,-3.73,-3.73
296.57,-4.21,-4.21,-0.51,-0.50,0.50,0.33,0.87,-3.71,-3.71,-3.70
299.53,-4.15,-4.14,-0.46,-0.46,0.46,0.30,0.83,-3.69,-3.68,-3.69
302.53,-4.08,-4.08,-0.41,-0.42,0.42,0.28,0.79,-3.66,-3.66,-3.67
305.55,-4.02,-4.02,-0.38,-0.38,0.39,0.25,0.76,-3.63,-3.64,-3.64
308.61,-3.97,-3.97,-0.35,-0.35,0.35,0.23,0.72,-3.62,-3.62,-3.62
311.69,-3.91,-3.91,-0.32,-0.32,0.32,0.20,0.68,-3.59,-3.59,-3.59
314.81,-3.85,-3.85,-0.29,-0.29,0.28,0.18,0.64,-3.57,-3.57,-3.56
317.96,-3.79,-3.79,-0.25,-0.25,0.25,0.16,0.61,-3.54,-3.54,-3.54
321.14,-3.74,-3.74,-0.22,-0.22,0.22,0.14,0.57,-3.52,-3.52,-3.52
324.35,-3.69,-3.69,-0.18,-0.18,0.19,0.11,0.53,-3.50,-3.50,-3.51
327.59,-3.63,-3.64,-0.15,-0.15,0.16,0.09,0.50,-3.47,-3.48,-3.48
330.87,-3.59,-3.59,-0.13,-0.12,0.12,0.07,0.46,-3.47,-3.46,-3.46
334.18,-3.54,-3.54,-0.10,-0.10,0.10,0.05,0.42,-3.44,-3.44,-3.44
337.52,-3.49,-3.49,-0.06,-0.07,0.07,0.03,0.39,-3.42,-3.42,-3.43
340.90,-3.45,-3.45,-0.05,-0.04,0.04,0.01,0.35,-3.41,-3.40,-3.40
344.30,-3.40,-3.40,-0.02,-0.02,0.02,-0.01,0.31,-3.38,-3.38,-3.38
347.75,-3.36,-3.36,0.00,0.00,0.00,-0.03,0.28,-3.36,-3.36,-3.36
351.23,-3.33,-3.33,0.02,0.02,-0.02,-0.05,0.24,-3.35,-3.34,-3.35
354.74,-3.29,-3.29,0.04,0.03,-0.04,-0.06,0.21,-3.33,-3.33,-3.33
358.28,-3.26,-3.26,0.05,0.05,-0.06,-0.08,0.17,-3.32,-3.32,-3.31
361.87,-3.23,-3.23,0.06,0.07,-0.07,-0.10,0.13,-3.30,-3.30,-3.29
365.49,-3.19,-3.19,0.09,0.09,-0.09,-0.12,0.10,-3.28,-3.28,-3.28
369.14,-3.16,-3.16,0.12,0.11,-0.11,-0.14,0.06,-3.27,-3.27,-3.28
372.83,-3.13,-3.13,0.13,0.13,-0.13,-0.16,0.03,-3.26,-3.25,-3.26
376.56,-3.10,-3.10,0.15,0.14,-0.14,-0.17,-0.01,-3.24,-3.24,-3.25
380.33,-3.07,-3.07,0.15,0.16,-0.16,-0.19,-0.04,-3.23,-3.23,-3.22
384.13,-3.04,-3.04,0.17,0.18,-0.18,-0.21,-0.08,-3.22,-3.22,-3.21
387.97,-3.01,-3.01,0.20,0.20,-0.20,-0.22,-0.11,-3.21,-3.21,-3.21
391.85,-2.97,-2.97,0.23,0.22,-0.22,-0.24,-0.15,-3.19,-3.19,-3.20
395.77,-2.94,-2.94,0.24,0.24,-0.24,-0.26,-0.18,-3.18,-3.18,-3.18
399.73,-2.91,-2.91,0.26,0.26,-0.26,-0.28,-0.21,-3.17,-3.17,-3.17
403.72,-2.88,-2.88,0.28,0.28,-0.28,-0.29,-0.25,-3.16,-3.16,-3.16
407.76,-2.85,-2.85,0.30,0.30,-0.30,-0.31,-0.28,-3.15,-3.15,-3.15
411.84,-2.82,-2.82,0.31,0.32,-0.32,-0.33,-0.32,-3.14,-3.14,-3.13
415.96,-2.79,-2.79,0.33,0.33,-0.33,-0.34,-0.35,-3.12,-3.13,-3.12
420.12,-2.77,-2.77,0.35,0.35,-0.35,-0.36,-0.38,-3.12,-3.12,-3.12
424.32,-2.74,-2.74,0.37,0.37,-0.37,-0.37,-0.41,-3.11,-3.11,-3.11
428.56,-2.71,-2.71,0.39,0.38,-0.39,-0.39,-0.45,-3.10,-3.10,-3.10
432.85,-2.69,-2.69,0.40,0.40,-0.40,-0.41,-0.48,-3.09,-3.09,-3.09
437.18,-2.66,-2.66,0.42,0.42,-0.42,-0.42,-0.51,-3.08,-3.08,-3.08
441.55,-2.63,-2.63,0.43,0.43,-0.43,-0.44,-0.54,-3.06,-3.06,-3.06
445.96,-2.61,-2.61,0.44,0.44,-0.44,-0.46,-0.57,-3.05,-3.05,-3.05
450.42,-2.59,-2.59,0.45,0.45,-0.45,-0.47,-0.60,-3.04,-3.04,-3.04
454.93,-2.57,-2.57,0.45,0.46,-0.45,-0.49,-0.63,-3.02,-3.02,-3.02
459.48,-2.55,-2.55,0.46,0.46,-0.46,-0.51,-0.66,-3.01,-3.01,-3.01
464.07,-2.54,-2.54,0.46,0.46,-0.46,-0.52,-0.68,-3.00,-3.00,-3.00
468.71,-2.52,-2.52,0.46,0.46,-0.46,-0.54,-0.71,-2.98,-2.98,-2.98
473.40,-2.50,-2.50,0.47,0.46,-0.46,-0.56,-0.73,-2.96,-2.97,-2.97
