frequency,raw,error,smoothed,error_smoothed,equalization,parametric_eq,fixed_band_eq,equalized_raw,equalized_smoothed,target
20.00,3.52,-1.29,3.53,-1.29,1.29,1.54,-0.03,4.81,4.81,4.81
20.20,3.56,-1.26,3.57,-1.26,1.26,1.59,-0.02,4.82,4.82,4.82
20.40,3.61,-1.22,3.61,-1.22,1.22,1.63,-0.02,4.84,4.83,4.83
20.61,3.65,-1.19,3.65,-1.19,1.19,1.67,-0.02,4.84,4.84,4.84
20.81,3.69,-1.15,3.69,-1.16,1.16,1.70,-0.02,4.85,4.85,4.84
21.02,3.73,-1.12,3.73,-1.13,1.13,1.73,-0.01,4.86,4.86,4.85
21.23,3.77,-1.09,3.77,-1.09,1.09,1.74,-0.01,4.86,4.86,4.86
21.44,3.82,-1.06,3.81,-1.06,1.06,1.75,-0.01,4.88,4.87,4.88
21.66,3.86,-1.02,3.85,-1.02,1.02,1.75,-0.01,4.88,4.88,4.88
21.87,3.90,-0.99,3.90,-0.99,0.99,1.74,-0.00,4.89,4.88,4.89
22.09,3.94,-0.95,3.94,-0.95,0.95,1.72,0.00,4.89,4.89,4.89
22.31,3.98,-0.92,3.98,-0.91,0.91,1.69,0.00,4.90,4.90,4.90
22.54,4.02,-0.88,4.02,-0.88,0.88,1.66,0.01,4.90,4.90,4.90
22.76,4.06,-0.85,4.06,-0.84,0.84,1.61,0.01,4.90,4.91,4.91
22.99,4.10,-0.81,4.11,-0.80,0.80,1.57,0.01,4.90,4.91,4.91
23.22,4.14,-0.77,4.15,-0.76,0.76,1.52,0.02,4.90,4.91,4.91
23.45,4.19,-0.73,4.19,-0.72,0.72,1.46,0.02,4.91,4.92,4.92
23.69,4.24,-0.68,4.24,-0.68,0.68,1.40,0.02,4.92,4.92,4.92
23.92,4.28,-0.63,4.28,-0.64,0.64,1.34,0.03,4.92,4.92,4.92
24.16,4.33,-0.59,4.33,-0.60,0.60,1.28,0.03,4.93,4.92,4.92
24.40,4.37,-0.56,4.37,-0.55,0.55,1.22,0.04,4.93,4.93,4.93
24.65,4.42,-0.51,4.42,-0.51,0.51,1.16,0.04,4.93,4.93,4.93
24.89,4.46,-0.47,4.47,-0.46,0.46,1.10,0.04,4.92,4.93,4.93
25.14,4.51,-0.42,4.52,-0.42,0.42,1.04,0.05,4.93,4.93,4.93
25.39,4.56,-0.37,4.56,-0.37,0.37,0.98,0.05,4.93,4.93,4.93
25.65,4.60,-0.33,4.61,-0.32,0.32,0.92,0.05,4.92,4.93,4.93
25.91,4.65,-0.28,4.66,-0.28,0.28,0.87,0.06,4.93,4.93,4.93
26.16,4.70,-0.24,4.70,-0.23,0.23,0.82,0.06,4.93,4.93,4.94
26.43,4.75,-0.19,4.74,-0.19,0.19,0.76,0.06,4.94,4.94,4.94
26.69,4.79,-0.15,4.79,-0.15,0.15,0.71,0.07,4.94,4.94,4.94
26.96,4.84,-0.10,4.83,-0.11,0.11,0.66,0.07,4.95,4.94,4.94
27.23,4.88,-0.05,4.86,-0.07,0.07,0.62,0.07,4.95,4.94,4.93
27.50,4.91,-0.02,4.90,-0.04,0.04,0.57,0.07,4.95,4.94,4.93
27.77,4.94,-0.00,4.94,-0.00,0.00,0.53,0.08,4.94,4.94,4.94
28.05,4.97,0.03,4.97,0.03,-0.03,0.48,0.08,4.94,4.94,4.94
28.33,5.00,0.06,5.00,0.06,-0.06,0.44,0.08,4.94,4.94,4.94
28.62,5.03,0.09,5.03,0.09,-0.09,0.41,0.08,4.94,4.94,4.94
28.90,5.05,0.10,5.06,0.12,-0.12,0.37,0.08,4.93,4.94,4.95
29.19,5.08,0.14,5.09,0.15,-0.15,0.33,0.07,4.93,4.94,4.95
29.48,5.11,0.17,5.12,0.18,-0.18,0.30,0.07,4.94,4.94,4.94
29.78,5.15,0.21,5.15,0.20,-0.20,0.26,0.07,4.95,4.94,4.94
30.08,5.18,0.23,5.17,0.23,-0.23,0.23,0.06,4.95,4.94,4.95
30.38,5.20,0.26,5.20,0.26,-0.26,0.20,0.06,4.94,4.94,4.94
30.68,5.23,0.29,5.23,0.29,-0.29,0.17,0.05,4.94,4.94,4.94
30.99,5.26,0.32,5.26,0.33,-0.33,0.14,0.05,4.93,4.94,4.94
31.30,5.29,0.36,5.29,0.36,-0.36,0.11,0.04,4.93,4.93,4.93
31.61,5.32,0.39,5.32,0.39,-0.39,0.08,0.03,4.93,4.93,4.93
31.93,5.35,0.43,5.35,0.43,-0.43,0.05,0.02,4.93,4.93,4.92
32.24,5.38,0.45,5.38,0.46,-0.46,0.02,0.01,4.92,4.92,4.93
32.57,5.41,0.49,5.41,0.49,-0.49,-0.00,-0.00,4.92,4.92,4.92
32.89,5.43,0.52,5.43,0.52,-0.52,-0.03,-0.02,4.91,4.92,4.91
33.22,5.46,0.55,5.46,0.55,-0.55,-0.06,-0.03,4.91,4.91,4.91
33.55,5.49,0.58,5.48,0.58,-0.58,-0.08,-0.05,4.91,4.91,4.91
33.89,5.52,0.62,5.51,0.61,-0.61,-0.11,-0.06,4.91,4.90,4.91
34.23,5.54,0.65,5.53,0.64,-0.64,-0.13,-0.08,4.90,4.90,4.89
34.57,5.55,0.66,5.55,0.66,-0.66,-0.16,-0.10,4.89,4.89,4.89
34.92,5.57,0.69,5.57,0.69,-0.69,-0.18,-0.12,4.88,4.88,4.88
35.27,5.58,0.70,5.59,0.72,-0.72,-0.21,-0.14,4.86,4.87,4.88
35.62,5.60,0.74,5.61,0.75,-0.75,-0.23,-0.16,4.86,4.86,4.86
35.97,5.62,0.76,5.63,0.77,-0.77,-0.25,-0.18,4.85,4.85,4.86
36.33,5.64,0.80,5.64,0.80,-0.80,-0.28,-0.21,4.84,4.84,4.84
36.70,5.66,0.83,5.65,0.82,-0.82,-0.30,-0.23,4.84,4.83,4.83
37.06,5.67,0.85,5.67,0.85,-0.85,-0.33,-0.25,4.82,4.82,4.82
37.43,5.68,0.88,5.68,0.87,-0.87,-0.35,-0.28,4.81,4.80,4.80
37.81,5.69,0.90,5.68,0.89,-0.89,-0.38,-0.30,4.80,4.79,4.79
38.19,5.69,0.92,5.69,0.92,-0.92,-0.40,-0.33,4.77,4.78,4.78
38.57,5.70,0.94,5.70,0.94,-0.94,-0.42,-0.36,4.76,4.76,4.76
38.95,5.71,0.96,5.71,0.96,-0.96,-0.45,-0.39,4.75,4.74,4.75
39.34,5.71,0.99,5.71,0.98,-0.98,-0.47,-0.42,4.73,4.73,4.72
39.74,5.71,1.00,5.72,1.01,-1.01,-0.50,-0.45,4.71,4.71,4.71
40.14,5.71,1.02,5.72,1.03,-1.03,-0.52,-0.48,4.68,4.69,4.69
40.54,5.71,1.03,5.72,1.05,-1.05,-0.55,-0.51,4.66,4.67,4.68
40.94,5.71,1.06,5.72,1.06,-1.06,-0.57,-0.54,4.65,4.65,4.65
41.35,5.71,1.08,5.72,1.08,-1.08,-0.60,-0.57,4.63,4.63,4.64
41.76,5.71,1.10,5.71,1.10,-1.10,-0.62,-0.60,4.61,4.61,4.61
42.18,5.71,1.12,5.70,1.12,-1.12,-0.65,-0.64,4.60,4.59,4.59
42.60,5.71,1.14,5.70,1.13,-1.13,-0.68,-0.67,4.58,4.57,4.57
43.03,5.71,1.17,5.69,1.14,-1.14,-0.71,-0.71,4.57,4.54,4.54
43.46,5.69,1.18,5.68,1.16,-1.16,-0.73,-0.74,4.53,4.52,4.51
43.90,5.67,1.18,5.67,1.17,-1.17,-0.76,-0.78,4.50,4.49,4.49
44.33,5.65,1.19,5.65,1.19,-1.19,-0.79,-0.82,4.46,4.46,4.46
44.78,5.63,1.20,5.64,1.21,-1.21,-0.82,-0.85,4.42,4.43,4.43
45.23,5.61,1.20,5.63,1.22,-1.22,-0.85,-0.89,4.39,4.40,4.41
45.68,5.60,1.22,5.62,1.24,-1.24,-0.87,-0.93,4.36,4.37,4.38
46.13,5.59,1.25,5.61,1.26,-1.26,-0.90,-0.97,4.33,4.34,4.34
46.60,5.58,1.27,5.59,1.29,-1.29,-0.93,-1.01,4.30,4.31,4.31
47.06,5.57,1.29,5.58,1.31,-1.31,-0.96,-1.05,4.26,4.27,4.28
47.53,5.57,1.32,5.57,1.33,-1.33,-0.99,-1.09,4.24,4.24,4.25
48.01,5.57,1.37,5.55,1.35,-1.35,-1.02,-1.13,4.22,4.20,4.20
48.49,5.55,1.38,5.54,1.37,-1.37,-1.06,-1.17,4.18,4.17,4.17
48.97,5.53,1.40,5.53,1.39,-1.39,-1.09,-1.22,4.14,4.13,4.13
49.46,5.52,1.42,5.51,1.41,-1.41,-1.12,-1.26,4.11,4.10,4.10
49.96,5.51,1.46,5.49,1.43,-1.43,-1.15,-1.30,4.08,4.06,4.05
50.46,5.49,1.48,5.48,1.45,-1.45,-1.18,-1.35,4.04,4.02,4.02
50.96,5.47,1.49,5.46,1.47,-1.47,-1.21,-1.39,4.00,3.98,3.98
51.47,5.43,1.48,5.44,1.49,-1.49,-1.25,-1.43,3.94,3.95,3.95
51.99,5.39,1.48,5.42,1.51,-1.51,-1.28,-1.47,3.88,3.91,3.91
52.51,5.37,1.50,5.39,1.52,-1.52,-1.31,-1.52,3.85,3.87,3.87
53.03,5.35,1.50,5.37,1.54,-1.54,-1.34,-1.56,3.81,3.83,3.85
53.56,5.34,1.54,5.35,1.55,-1.55,-1.37,-1.60,3.79,3.80,3.81
54.10,5.34,1.58,5.33,1.56,-1.56,-1.40,-1.64,3.78,3.76,3.76
54.64,5.31,1.59,5.30,1.58,-1.58,-1.44,-1.68,3.73,3.73,3.72
55.18,5.28,1.60,5.28,1.59,-1.59,-1.47,-1.72,3.69,3.69,3.68
55.74,5.26,1.62,5.26,1.60,-1.60,-1.50,-1.75,3.66,3.66,3.64
56.29,5.24,1.63,5.23,1.61,-1.61,-1.53,-1.79,3.63,3.62,3.61
56.86,5.21,1.62,5.21,1.62,-1.62,-1.55,-1.82,3.59,3.59,3.59
57.42,5.18,1.64,5.19,1.64,-1.64,-1.58,-1.85,3.54,3.55,3.54
58.00,5.16,1.65,5.16,1.65,-1.65,-1.61,-1.88,3.51,3.52,3.51
58.58,5.14,1.65,5.14,1.66,-1.66,-1.63,-1.90,3.48,3.48,3.49
59.16,5.11,1.65,5.11,1.67,-1.67,-1.66,-1.92,3.44,3.44,3.46
59.76,5.08,1.65,5.07,1.67,-1.67,-1.68,-1.95,3.41,3.40,3.43
60.35,5.05,1.67,5.04,1.68,-1.68,-1.70,-1.96,3.37,3.36,3.38
60.96,5.01,1.68,5.01,1.69,-1.69,-1.72,-1.98,3.32,3.32,3.34
61.57,4.98,1.70,4.98,1.69,-1.69,-1.74,-1.99,3.29,3.28,3.28
62.18,4.95,1.72,4.94,1.70,-1.70,-1.76,-2.00,3.25,3.24,3.23
62.80,4.91,1.73,4.91,1.71,-1.71,-1.78,-2.00,3.20,3.20,3.18
63.43,4.87,1.73,4.88,1.72,-1.72,-1.79,-2.00,3.15,3.16,3.14
64.07,4.83,1.73,4.84,1.73,-1.73,-1.80,-2.00,3.10,3.12,3.10
64.71,4.79,1.72,4.81,1.73,-1.73,-1.81,-2.00,3.06,3.07,3.07
65.35,4.76,1.73,4.77,1.74,-1.74,-1.82,-1.99,3.02,3.03,3.03
66.01,4.73,1.74,4.74,1.75,-1.75,-1.82,-1.98,2.98,2.99,2.99
66.67,4.70,1.74,4.71,1.76,-1.76,-1.83,-1.97,2.94,2.95,2.96
67.33,4.67,1.76,4.67,1.76,-1.76,-1.83,-1.95,2.91,2.91,2.91
68.01,4.64,1.77,4.64,1.77,-1.77,-1.83,-1.93,2.88,2.87,2.87
68.69,4.61,1.78,4.60,1.77,-1.77,-1.83,-1.91,2.84,2.83,2.83
69.37,4.57,1.77,4.56,1.77,-1.77,-1.83,-1.89,2.80,2.79,2.80
70.07,4.53,1.78,4.52,1.77,-1.77,-1.82,-1.87,2.76,2.75,2.76
70.77,4.49,1.78,4.48,1.77,-1.77,-1.81,-1.84,2.72,2.71,2.71
71.48,4.44,1.77,4.44,1.77,-1.77,-1.80,-1.81,2.67,2.66,2.67
72.19,4.39,1.77,4.39,1.77,-1.77,-1.79,-1.79,2.62,2.62,2.62
72.91,4.35,1.78,4.34,1.77,-1.77,-1.78,-1.76,2.58,2.58,2.57
73.64,4.29,1.76,4.30,1.76,-1.76,-1.76,-1.73,2.53,2.54,2.53
74.38,4.24,1.75,4.25,1.75,-1.75,-1.75,-1.70,2.49,2.50,2.49
75.12,4.19,1.74,4.20,1.74,-1.74,-1.73,-1.67,2.45,2.46,2.45
75.87,4.14,1.72,4.15,1.73,-1.73,-1.71,-1.63,2.41,2.42,2.42
76.63,4.09,1.71,4.10,1.71,-1.71,-1.70,-1.60,2.38,2.38,2.38
77.40,4.04,1.69,4.05,1.70,-1.70,-1.68,-1.57,2.34,2.35,2.35
78.17,4.00,1.69,4.00,1.68,-1.68,-1.65,-1.54,2.32,2.31,2.31
78.95,3.94,1.66,3.94,1.66,-1.66,-1.63,-1.51,2.28,2.28,2.28
79.74,3.89,1.64,3.89,1.64,-1.64,-1.61,-1.48,2.25,2.24,2.25
80.54,3.84,1.63,3.83,1.62,-1.62,-1.59,-1.45,2.22,2.21,2.21
81.35,3.79,1.61,3.78,1.60,-1.60,-1.56,-1.42,2.19,2.18,2.18
82.16,3.73,1.58,3.72,1.58,-1.58,-1.54,-1.39,2.15,2.14,2.15
82.98,3.68,1.57,3.67,1.56,-1.56,-1.52,-1.37,2.13,2.11,2.11
83.81,3.61,1.53,3.61,1.53,-1.53,-1.49,-1.34,2.08,2.08,2.08
84.65,3.55,1.51,3.55,1.51,-1.51,-1.47,-1.31,2.04,2.04,2.04
85.50,3.49,1.49,3.49,1.49,-1.49,-1.44,-1.29,2.01,2.00,2.00
86.35,3.42,1.45,3.43,1.46,-1.46,-1.42,-1.26,1.96,1.97,1.97
87.22,3.36,1.42,3.38,1.44,-1.44,-1.40,-1.24,1.92,1.93,1.94
88.09,3.31,1.42,3.32,1.42,-1.42,-1.37,-1.22,1.89,1.90,1.90
88.97,3.26,1.40,3.26,1.40,-1.40,-1.35,-1.20,1.86,1.86,1.86
89.86,3.21,1.39,3.21,1.39,-1.39,-1.32,-1.18,1.82,1.82,1.82
90.76,3.15,1.36,3.16,1.37,-1.37,-1.30,-1.16,1.78,1.78,1.79
91.66,3.10,1.36,3.11,1.36,-1.36,-1.28,-1.14,1.74,1.75,1.74
92.58,3.06,1.35,3.06,1.35,-1.35,-1.26,-1.12,1.71,1.71,1.71
93.51,3.02,1.35,3.01,1.34,-1.34,-1.23,-1.10,1.68,1.67,1.67
94.44,2.97,1.33,2.96,1.34,-1.34,-1.21,-1.09,1.63,1.63,1.64
95.39,2.92,1.33,2.92,1.33,-1.33,-1.19,-1.07,1.59,1.59,1.59
96.34,2.87,1.32,2.87,1.33,-1.33,-1.17,-1.06,1.54,1.55,1.55
97.30,2.82,1.31,2.83,1.32,-1.32,-1.15,-1.05,1.50,1.51,1.51
98.28,2.77,1.31,2.78,1.31,-1.31,-1.13,-1.03,1.46,1.47,1.46
99.26,2.74,1.32,2.74,1.31,-1.31,-1.11,-1.02,1.43,1.43,1.42
100.25,2.69,1.31,2.69,1.30,-1.30,-1.10,-1.01,1.39,1.39,1.38
101.25,2.65,1.30,2.65,1.30,-1.30,-1.08,-1.00,1.35,1.35,1.35
102.27,2.60,1.29,2.60,1.29,-1.29,-1.06,-0.99,1.31,1.32,1.31
103.29,2.56,1.29,2.56,1.28,-1.28,-1.05,-0.98,1.28,1.28,1.28
104.32,2.51,1.26,2.51,1.26,-1.26,-1.03,-0.98,1.25,1.24,1.25
105.37,2.46,1.25,2.46,1.25,-1.25,-1.02,-0.97,1.21,1.21,1.21
106.42,2.41,1.23,2.41,1.23,-1.23,-1.00,-0.96,1.18,1.17,1.18
107.48,2.36,1.23,2.35,1.22,-1.22,-0.99,-0.96,1.14,1.14,1.13
108.56,2.31,1.20,2.30,1.20,-1.20,-0.98,-0.95,1.11,1.10,1.11
109.64,2.26,1.19,2.24,1.18,-1.18,-0.96,-0.95,1.08,1.07,1.07
110.74,2.19,1.16,2.18,1.16,-1.16,-0.95,-0.94,1.04,1.03,1.03
111.85,2.11,1.12,2.12,1.13,-1.13,-0.94,-0.94,0.98,0.99,0.99
112.97,2.05,1.09,2.06,1.11,-1.11,-0.93,-0.94,0.94,0.95,0.96
114.10,2.00,1.08,2.00,1.09,-1.09,-0.92,-0.93,0.91,0.91,0.92
115.24,1.94,1.07,1.94,1.06,-1.06,-0.91,-0.93,0.88,0.88,0.87
116.39,1.88,1.05,1.88,1.04,-1.04,-0.90,-0.93,0.84,0.84,0.83
117.55,1.82,1.03,1.81,1.02,-1.02,-0.89,-0.92,0.81,0.80,0.79
118.73,1.75,1.00,1.75,0.99,-0.99,-0.88,-0.92,0.76,0.76,0.75
119.92,1.68,0.97,1.69,0.97,-0.97,-0.88,-0.92,0.71,0.72,0.71
121.12,1.62,0.93,1.63,0.95,-0.95,-0.87,-0.92,0.67,0.68,0.69
122.33,1.57,0.93,1.58,0.93,-0.93,-0.86,-0.92,0.64,0.65,0.65
123.55,1.52,0.91,1.52,0.91,-0.91,-0.86,-0.91,0.61,0.61,0.61
124.79,1.46,0.88,1.47,0.90,-0.90,-0.85,-0.91,0.56,0.57,0.58
126.03,1.41,0.87,1.41,0.88,-0.88,-0.85,-0.91,0.53,0.53,0.54
127.29,1.35,0.85,1.36,0.86,-0.86,-0.85,-0.91,0.49,0.49,0.50
128.57,1.30,0.84,1.30,0.84,-0.84,-0.84,-0.91,0.46,0.46,0.46
129.85,1.25,0.83,1.24,0.82,-0.82,-0.84,-0.91,0.43,0.42,0.42
131.15,1.20,0.82,1.19,0.81,-0.81,-0.84,-0.91,0.40,0.38,0.38
132.46,1.14,0.80,1.13,0.79,-0.79,-0.84,-0.91,0.35,0.34,0.34
133.79,1.08,0.78,1.07,0.76,-0.76,-0.84,-0.91,0.32,0.31,0.30
135.12,1.02,0.75,1.01,0.74,-0.74,-0.84,-0.91,0.28,0.27,0.27
136.48,0.96,0.72,0.95,0.72,-0.72,-0.84,-0.90,0.24,0.24,0.24
137.84,0.90,0.70,0.89,0.69,-0.69,-0.84,-0.90,0.21,0.20,0.20
139.22,0.84,0.68,0.83,0.66,-0.66,-0.84,-0.91,0.18,0.17,0.16
140.61,0.77,0.63,0.77,0.64,-0.64,-0.84,-0.91,0.14,0.14,0.14
142.02,0.71,0.61,0.72,0.61,-0.61,-0.84,-0.91,0.10,0.11,0.10
143.44,0.67,0.60,0.67,0.59,-0.59,-0.84,-0.91,0.08,0.08,0.07
144.87,0.62,0.57,0.62,0.57,-0.57,-0.85,-0.91,0.05,0.05,0.05
146.32,0.56,0.54,0.57,0.55,-0.55,-0.85,-0.91,0.01,0.02,0.02
147.78,0.51,0.52,0.53,0.54,-0.54,-0.85,-0.92,-0.03,-0.01,-0.01
149.26,0.49,0.53,0.50,0.54,-0.54,-0.86,-0.92,-0.05,-0.04,-0.04
150.75,0.45,0.52,0.47,0.54,-0.54,-0.86,-0.92,-0.09,-0.07,-0.07
152.26,0.44,0.53,0.46,0.55,-0.55,-0.87,-0.93,-0.11,-0.10,-0.09
153.78,0.44,0.57,0.44,0.57,-0.57,-0.87,-0.93,-0.13,-0.13,-0.13
155.32,0.44,0.59,0.44,0.59,-0.59,-0.88,-0.94,-0.15,-0.16,-0.15
156.88,0.44,0.63,0.44,0.62,-0.62,-0.89,-0.94,-0.18,-0.19,-0.19
158.44,0.43,0.65,0.44,0.66,-0.66,-0.90,-0.95,-0.23,-0.22,-0.22
160.03,0.44,0.69,0.45,0.70,-0.70,-0.90,-0.96,-0.26,-0.25,-0.25
161.63,0.44,0.72,0.46,0.75,-0.75,-0.91,-0.97,-0.31,-0.29,-0.28
163.24,0.47,0.79,0.48,0.80,-0.80,-0.92,-0.98,-0.33,-0.32,-0.32
164.88,0.49,0.84,0.49,0.85,-0.85,-0.93,-0.99,-0.36,-0.35,-0.35
166.53,0.52,0.91,0.51,0.90,-0.90,-0.94,-1.00,-0.37,-0.39,-0.39
168.19,0.54,0.96,0.52,0.94,-0.94,-0.95,-1.01,-0.40,-0.42,-0.42
169.87,0.54,1.00,0.53,0.99,-0.99,-0.96,-1.02,-0.45,-0.46,-0.46
171.57,0.55,1.05,0.54,1.04,-1.04,-0.97,-1.03,-0.49,-0.49,-0.50
173.29,0.57,1.10,0.55,1.08,-1.08,-0.99,-1.05,-0.51,-0.53,-0.53
175.02,0.58,1.15,0.56,1.13,-1.13,-1.00,-1.06,-0.55,-0.57,-0.57
176.77,0.58,1.18,0.57,1.17,-1.17,-1.01,-1.08,-0.59,-0.60,-0.60
178.54,0.58,1.22,0.57,1.21,-1.21,-1.02,-1.10,-0.63,-0.64,-0.63
180.32,0.55,1.23,0.57,1.24,-1.24,-1.04,-1.11,-0.69,-0.67,-0.68
182.13,0.54,1.25,0.56,1.27,-1.27,-1.05,-1.13,-0.73,-0.71,-0.71
183.95,0.54,1.28,0.55,1.30,-1.30,-1.07,-1.15,-0.76,-0.75,-0.74
185.79,0.54,1.32,0.54,1.32,-1.32,-1.08,-1.17,-0.78,-0.78,-0.78
187.65,0.54,1.35,0.53,1.35,-1.35,-1.10,-1.19,-0.81,-0.82,-0.81
189.52,0.52,1.37,0.51,1.37,-1.37,-1.11,-1.21,-0.85,-0.85,-0.85
191.42,0.50,1.38,0.50,1.39,-1.39,-1.13,-1.23,-0.89,-0.89,-0.88
193.33,0.49,1.41,0.48,1.40,-1.40,-1.14,-1.26,-0.91,-0.92,-0.92
195.27,0.46,1.42,0.46,1.42,-1.42,-1.16,-1.28,-0.96,-0.96,-0.96
197.22,0.44,1.44,0.45,1.43,-1.43,-1.18,-1.30,-0.99,-0.99,-1.00
199.19,0.42,1.44,0.43,1.45,-1.45,-1.20,-1.33,-1.03,-1.02,-1.02
201.18,0.40,1.46,0.41,1.46,-1.46,-1.21,-1.35,-1.06,-1.05,-1.06
203.19,0.39,1.48,0.39,1.47,-1.47,-1.23,-1.37,-1.08,-1.08,-1.09
205.23,0.36,1.47,0.36,1.47,-1.47,-1.25,-1.40,-1.11,-1.11,-1.11
207.28,0.34,1.48,0.34,1.48,-1.48,-1.27,-1.42,-1.14,-1.14,-1.14
209.35,0.31,1.48,0.32,1.49,-1.49,-1.29,-1.45,-1.17,-1.17,-1.17
211.44,0.30,1.49,0.29,1.49,-1.49,-1.30,-1.47,-1.19,-1.19,-1.19
213.56,0.27,1.49,0.27,1.49,-1.49,-1.32,-1.50,-1.22,-1.22,-1.22
215.69,0.26,1.50,0.25,1.49,-1.49,-1.34,-1.52,-1.23,-1.24,-1.24
217.85,0.21,1.47,0.23,1.49,-1.49,-1.36,-1.55,-1.28,-1.27,-1.26
220.03,0.21,1.50,0.20,1.49,-1.49,-1.38,-1.57,-1.28,-1.29,-1.29
222.23,0.18,1.50,0.18,1.49,-1.49,-1.39,-1.59,-1.31,-1.31,-1.31
224.45,0.16,1.50,0.16,1.49,-1.49,-1.41,-1.61,-1.33,-1.33,-1.34
226.70,0.14,1.50,0.14,1.49,-1.49,-1.43,-1.63,-1.35,-1.35,-1.36
228.96,0.12,1.49,0.12,1.49,-1.49,-1.45,-1.65,-1.37,-1.37,-1.37
231.25,0.08,1.47,0.10,1.49,-1.49,-1.46,-1.66,-1.40,-1.39,-1.39
233.57,0.07,1.48,0.08,1.48,-1.48,-1.48,-1.68,-1.41,-1.41,-1.41
235.90,0.07,1.50,0.06,1.48,-1.48,-1.50,-1.69,-1.41,-1.42,-1.43
238.26,0.03,1.48,0.04,1.48,-1.48,-1.51,-1.70,-1.45,-1.44,-1.44
240.64,0.02,1.46,0.02,1.47,-1.47,-1.53,-1.71,-1.45,-1.45,-1.44
243.05,0.00,1.46,0.01,1.47,-1.47,-1.54,-1.72,-1.47,-1.46,-1.46
245.48,-0.02,1.46,-0.01,1.46,-1.46,-1.56,-1.72,-1.48,-1.48,-1.48
247.93,-0.02,1.48,-0.03,1.46,-1.46,-1.57,-1.73,-1.48,-1.49,-1.50
250.41,-0.02,1.48,-0.04,1.45,-1.45,-1.58,-1.73,-1.47,-1.50,-1.49
252.92,-0.07,1.43,-0.06,1.45,-1.45,-1.59,-1.72,-1.52,-1.51,-1.50
255.45,-0.07,1.45,-0.07,1.45,-1.45,-1.60,-1.72,-1.51,-1.52,-1.52
258.00,-0.07,1.46,-0.08,1.44,-1.44,-1.61,-1.71,-1.51,-1.53,-1.53
260.58,-0.08,1.45,-0.09,1.44,-1.44,-1.62,-1.70,-1.52,-1.53,-1.53
263.19,-0.11,1.43,-0.10,1.44,-1.44,-1.63,-1.69,-1.55,-1.54,-1.54
265.82,-0.12,1.42,-0.11,1.44,-1.44,-1.63,-1.68,-1.56,-1.55,-1.54
268.48,-0.12,1.43,-0.11,1.44,-1.44,-1.64,-1.66,-1.56,-1.55,-1.55
271.16,-0.12,1.44,-0.11,1.45,-1.45,-1.64,-1.65,-1.57,-1.56,-1.56
273.87,-0.12,1.44,-0.10,1.46,-1.46,-1.64,-1.63,-1.58,-1.56,-1.56
276.61,-0.12,1.45,-0.10,1.46,-1.46,-1.65,-1.61,-1.58,-1.56,-1.57
279.38,-0.12,1.46,-0.09,1.48,-1.48,-1.64,-1.59,-1.59,-1.57,-1.58
282.17,-0.08,1.50,-0.08,1.49,-1.49,-1.64,-1.57,-1.57,-1.57,-1.57
284.99,-0.07,1.50,-0.07,1.50,-1.50,-1.64,-1.54,-1.57,-1.57,-1.57
287.84,-0.07,1.49,-0.06,1.51,-1.51,-1.64,-1.52,-1.58,-1.57,-1.56
290.72,-0.02,1.56,-0.05,1.52,-1.52,-1.63,-1.49,-1.54,-1.57,-1.58
293.63,-0.02,1.55,-0.04,1.53,-1.53,-1.63,-1.47,-1.55,-1.57,-1.57
296.57,-0.02,1.55,-0.03,1.54,-1.54,-1.62,-1.44,-1.56,-1.57,-1.57
299.53,-0.02,1.55,-0.03,1.54,-1.54,-1.61,-1.42,-1.56,-1.57,-1.57
302.53,-0.02,1.54,-0.02,1.55,-1.55,-1.60,-1.39,-1.57,-1.57,-1.56
305.55,-0.02,1.55,-0.02,1.55,-1.55,-1.59,-1.36,-1.57,-1.57,-1.57
308.61,-0.02,1.54,-0.01,1.55,-1.55,-1.58,-1.34,-1.57,-1.56,-1.56
311.69,-0.02,1.54,-0.01,1.55,-1.55,-1.56,-1.31,-1.57,-1.56,-1.56
314.81,-0.02,1.54,-0.01,1.55,-1.55,-1.55,-1.29,-1.57,-1.56,-1.56
317.96,-0.02,1.54,-0.01,1.54,-1.54,-1.53,-1.26,-1.56,-1.56,-1.56
321.14,-0.02,1.53,-0.01,1.54,-1.54,-1.52,-1.24,-1.56,-1.55,-1.55
324.35,-0.02,1.54,-0.02,1.53,-1.53,-1.50,-1.21,-1.55,-1.55,-1.55
327.59,-0.02,1.52,-0.02,1.53,-1.53,-1.48,-1.19,-1.54,-1.55,-1.54
330.87,-0.02,1.52,-0.02,1.52,-1.52,-1.47,-1.17,-1.54,-1.54,-1.54
334.18,-0.02,1.52,-0.03,1.51,-1.51,-1.45,-1.14,-1.53,-1.54,-1.54
337.52,-0.02,1.52,-0.03,1.50,-1.50,-1.43,-1.12,-1.52,-1.53,-1.53
340.90,-0.02,1.51,-0.04,1.49,-1.49,-1.41,-1.10,-1.50,-1.53,-1.53
344.30,-0.06,1.46,-0.05,1.47,-1.47,-1.39,-1.08,-1.53,-1.52,-1.52
347.75,-0.07,1.44,-0.06,1.46,-1.46,-1.37,-1.06,-1.52,-1.51,-1.51
351.23,-0.07,1.44,-0.07,1.44,-1.44,-1.35,-1.04,-1.51,-1.51,-1.51
354.74,-0.07,1.43,-0.08,1.42,-1.42,-1.32,-1.03,-1.49,-1.50,-1.49
358.28,-0.09,1.41,-0.09,1.41,-1.41,-1.30,-1.01,-1.50,-1.49,-1.50
361.87,-0.11,1.38,-0.10,1.39,-1.39,-1.28,-0.99,-1.50,-1.49,-1.49
365.49,-0.12,1.36,-0.11,1.37,-1.37,-1.26,-0.98,-1.49,-1.48,-1.48
369.14,-0.12,1.35,-0.12,1.35,-1.35,-1.24,-0.96,-1.47,-1.47,-1.47
372.83,-0.15,1.31,-0.14,1.33,-1.33,-1.21,-0.95,-1.48,-1.47,-1.46
376.56,-0.16,1.31,-0.15,1.31,-1.31,-1.19,-0.94,-1.47,-1.46,-1.46
380.33,-0.16,1.30,-0.16,1.29,-1.29,-1.17,-0.92,-1.45,-1.45,-1.46
384.13,-0.16,1.29,-0.18,1.27,-1.27,-1.15,-0.91,-1.43,-1.45,-1.45
387.97,-0.17,1.27,-0.19,1.25,-1.25,-1.12,-0.90,-1.42,-1.44,-1.44
391.85,-0.20,1.23,-0.21,1.23,-1.23,-1.10,-0.89,-1.43,-1.43,-1.43
395.77,-0.21,1.22,-0.22,1.21,-1.21,-1.08,-0.88,-1.42,-1.43,-1.43
399.73,-0.24,1.18,-0.24,1.18,-1.18,-1.06,-0.87,-1.42,-1.42,-1.42
403.72,-0.26,1.14,-0.25,1.16,-1.16,-1.04,-0.86,-1.42,-1.41,-1.40
407.76,-0.29,1.12,-0.27,1.13,-1.13,-1.01,-0.86,-1.42,-1.40,-1.40
411.84,-0.30,1.10,-0.29,1.11,-1.11,-0.99,-0.85,-1.41,-1.40,-1.40
415.96,-0.30,1.09,-0.30,1.09,-1.09,-0.97,-0.84,-1.38,-1.39,-1.39
420.12,-0.30,1.09,-0.32,1.06,-1.06,-0.95,-0.84,-1.36,-1.38,-1.39
424.32,-0.34,1.04,-0.34,1.04,-1.04,-0.93,-0.83,-1.38,-1.37,-1.38
428.56,-0.35,1.01,-0.35,1.02,-1.02,-0.91,-0.82,-1.37,-1.37,-1.36
432.85,-0.35,1.00,-0.36,1.00,-1.00,-0.89,-0.82,-1.35,-1.36,-1.35
437.18,-0.39,0.96,-0.37,0.98,-0.98,-0.87,-0.81,-1.37,-1.35,-1.35
441.55,-0.40,0.94,-0.38,0.96,-0.96,-0.85,-0.81,-1.36,-1.34,-1.34
445.96,-0.40,0.93,-0.39,0.94,-0.94,-0.83,-0.80,-1.34,-1.33,-1.33
450.42,-0.40,0.92,-0.39,0.93,-0.93,-0.81,-0.79,-1.33,-1.32,-1.32
454.93,-0.40,0.91,-0.40,0.91,-0.91,-0.80,-0.79,-1.31,-1.31,-1.31
459.48,-0.40,0.91,-0.40,0.90,-0.90,-0.78,-0.78,-1.30,-1.30,-1.30
464.07,-0.40,0.89,-0.41,0.88,-0.88,-0.76,-0.78,-1.28,-1.29,-1.29
468.71,-0.40,0.88,-0.42,0.86,-0.86,-0.74,-0.77,-1.26,-1.28,-1.28
473.40,-0.42,0.85,-0.42,0.85,-0.85,-0.73,-0.76,-1.27,-1.27,-1.27
478.13,-0.44,0.82,-0.43,0.83,-0.83,-0.71,-0.76,-1.27,-1.26,-1.26
482.91,-0.44,0.81,-0.44,0.81,-0.81,-0.69,-0.75,-1.25,-1.25,-1.25
487.74,-0.44,0.80,-0.45,0.79,-0.79,-0.68,-0.74,-1.23,-1.24,-1.24
492.62,-0.44,0.79,-0.46,0.77,-0.77,-0.66,-0.73,-1.20,-1.23,-1.23
497.55,-0.48,0.74,-0.47,0.74,-0.74,-0.65,-0.72,-1.22,-1.21,-1.22
502.52,-0.49,0.72,-0.48,0.72,-0.72,-0.63,-0.71,-1.21,-1.20,-1.21
507.55,-0.49,0.70,-0.50,0.69,-0.69,-0.62,-0.70,-1.18,-1.19,-1.19
