frequency,raw
20.00,-3.03
20.20,-3.00
20.40,-2.96
20.61,-2.93
20.81,-2.90
21.02,-2.87
21.23,-2.83
21.44,-2.80
21.66,-2.77
21.87,-2.74
22.09,-2.71
22.31,-2.68
22.54,-2.64
22.76,-2.61
22.99,-2.58
23.22,-2.55
23.45,-2.52
23.69,-2.49
23.92,-2.46
24.16,-2.43
24.40,-2.40
24.65,-2.37
24.89,-2.33
25.14,-2.30
25.39,-2.27
25.65,-2.24
25.91,-2.21
26.16,-2.18
26.43,-2.15
26.69,-2.12
26.96,-2.09
27.23,-2.07
27.50,-2.04
27.77,-2.01
28.05,-1.98
28.33,-1.96
28.62,-1.93
28.90,-1.90
29.19,-1.87
29.48,-1.85
29.78,-1.82
30.08,-1.79
30.38,-1.77
30.68,-1.74
30.99,-1.71
31.30,-1.69
31.61,-1.66
31.93,-1.64
32.24,-1.61
32.57,-1.59
32.89,-1.57
33.22,-1.55
33.55,-1.53
33.89,-1.52
34.23,-1.50
34.57,-1.49
34.92,-1.48
35.27,-1.47
35.62,-1.46
35.97,-1.44
36.33,-1.43
36.70,-1.41
37.06,-1.40
37.43,-1.38
37.81,-1.36
38.19,-1.34
38.57,-1.33
38.95,-1.31
39.34,-1.30
39.74,-1.29
40.14,-1.27
40.54,-1.25
40.94,-1.23
41.35,-1.22
41.76,-1.20
42.18,-1.18
42.60,-1.17
43.03,-1.15
43.46,-1.14
43.90,-1.12
44.33,-1.11
44.78,-1.10
45.23,-1.09
45.68,-1.08
46.13,-1.07
46.60,-1.06
47.06,-1.05
47.53,-1.03
48.01,-1.02
48.49,-1.01
48.97,-1.00
49.46,-0.99
49.96,-0.98
50.46,-0.98
50.96,-0.98
51.47,-0.98
51.99,-0.98
52.51,-0.98
53.03,-0.98
53.56,-0.99
54.10,-1.00
54.64,-1.00
55.18,-1.00
55.74,-1.00
56.29,-1.00
56.86,-1.00
57.42,-1.00
58.00,-1.00
58.58,-1.00
59.16,-1.00
59.76,-1.00
60.35,-1.00
60.96,-1.00
61.57,-1.01
62.18,-1.01
62.80,-1.02
63.43,-1.02
64.07,-1.02
64.71,-1.02
65.35,-1.01
66.01,-1.00
66.67,-0.99
67.33,-0.97
68.01,-0.96
68.69,-0.94
69.37,-0.92
70.07,-0.90
70.77,-0.88
71.48,-0.85
72.19,-0.82
72.91,-0.80
73.64,-0.77
74.38,-0.75
75.12,-0.73
75.87,-0.71
76.63,-0.69
77.40,-0.68
78.17,-0.67
78.95,-0.65
79.74,-0.65
80.54,-0.66
81.35,-0.66
82.16,-0.67
82.98,-0.68
83.81,-0.68
84.65,-0.68
85.50,-0.68
86.35,-0.68
87.22,-0.68
88.09,-0.68
88.97,-0.68
89.86,-0.68
90.76,-0.68
91.66,-0.68
92.58,-0.68
93.51,-0.68
94.44,-0.68
95.39,-0.68
96.34,-0.68
97.30,-0.68
98.28,-0.68
99.26,-0.67
100.25,-0.66
101.25,-0.65
102.27,-0.65
103.29,-0.66
104.32,-0.67
105.37,-0.69
106.42,-0.71
107.48,-0.74
108.56,-0.78
109.64,-0.81
110.74,-0.85
111.85,-0.89
112.97,-0.92
114.10,-0.95
115.24,-0.98
116.39,-0.99
117.55,-1.01
118.73,-1.02
119.92,-1.02
121.12,-1.01
122.33,-1.01
123.55,-1.00
124.79,-1.00
126.03,-1.00
127.29,-1.00
128.57,-1.00
129.85,-1.00
131.15,-1.00
132.46,-1.00
133.79,-1.00
135.12,-1.00
136.48,-1.00
137.84,-1.00
139.22,-1.00
140.61,-1.00
142.02,-1.00
143.44,-1.00
144.87,-1.00
146.32,-1.00
147.78,-1.00
149.26,-1.00
150.75,-1.00
152.26,-1.00
153.78,-1.00
155.32,-1.00
156.88,-1.00
158.44,-1.00
160.03,-1.00
161.63,-1.00
163.24,-1.00
164.88,-1.00
166.53,-1.00
168.19,-1.00
169.87,-1.00
171.57,-1.00
173.29,-1.00
175.02,-1.00
176.77,-1.00
178.54,-1.00
180.32,-1.00
182.13,-1.00
183.95,-1.00
185.79,-1.00
187.65,-1.00
189.52,-1.00
191.42,-1.00
193.33,-1.00
195.27,-1.00
197.22,-1.00
199.19,-1.00
201.18,-1.00
203.19,-1.00
205.23,-1.00
207.28,-1.00
209.35,-1.00
211.44,-1.00
213.56,-1.00
215.69,-1.00
217.85,-1.00
220.03,-1.00
222.23,-1.00
224.45,-1.00
226.70,-1.00
228.96,-1.00
231.25,-1.00
233.57,-1.00
235.90,-1.00
238.26,-1.00
240.64,-1.00
243.05,-1.00
245.48,-1.00
247.93,-1.00
250.41,-1.00
252.92,-1.00
255.45,-1.00
258.00,-1.00
260.58,-1.00
263.19,-1.00
265.82,-1.00
268.48,-1.00
271.16,-1.00
273.87,-1.00
276.61,-1.00
279.38,-1.00
282.17,-1.00
284.99,-1.00
287.84,-1.00
290.72,-1.00
293.63,-1.00
296.57,-1.00
299.53,-1.00
302.53,-1.00
305.55,-1.00
308.61,-1.00
311.69,-1.00
314.81,-1.00
317.96,-1.00
321.14,-1.00
324.35,-1.00
327.59,-1.00
330.87,-1.00
334.18,-1.00
337.52,-1.00
340.90,-1.00
344.30,-1.00
347.75,-1.00
351.23,-1.00
354.74,-1.00
358.28,-1.00
361.87,-1.00
365.49,-1.00
369.14,-1.00
372.83,-1.00
376.56,-1.00
380.33,-1.00
384.13,-1.00
387.97,-1.00
391.85,-1.00
395.77,-1.00
399.73,-1.00
403.72,-1.00
407.76,-1.00
411.84,-1.00
415.96,-1.00
420.12,-1.00
424.32,-1.00
428.56,-1.00
432.85,-1.00
437.18,-1.00
441.55,-1.00
445.96,-1.00
450.42,-1.00
454.93,-1.00
459.48,-1.00
464.07,-1.00
468.71,-1.00
473.40,-1.00
478.13,-1.00
482.91,-1.00
487.74,-1.00
492.62,-1.00
497.55,-1.00
502.52,-1.00
507.55,-1.00
512.62,-1.00
517.75,-1.00
522.93,-1.00
528.16,-1.00
533.44,-1.00
538.77,-1.00
544.16,-1.00
549.60,-1.00
555.10,-1.00
560.65,-1.00
566.25,-1.00
571.92,-1.00
577.64,-1.00
583.41,-1.00
589.25,-1.00
595.14,-1.00
601.09,-1.00
607.10,-1.00
613.17,-1.00
619.30,-1.01
625.50,-1.02
631.75,-1.02
638.07,-1.02
644.45,-1.00
650.89,-0.98
657.40,-0.96
663.98,-0.94
670.62,-0.91
677.32,-0.88
684.10,-0.84
690.94,-0.81
697.85,-0.77
704.83,-0.74
711.87,-0.71
718.99,-0.69
726.18,-0.67
733.44,-0.66
740.78,-0.65
748.19,-0.66
755.67,-0.68
763.23,-0.69
770.86,-0.70
778.57,-0.69
786.35,-0.68
794.22,-0.66
802.16,-0.64
810.18,-0.62
818.28,-0.59
826.46,-0.56
834.73,-0.52
843.08,-0.49
851.51,-0.46
860.02,-0.43
868.62,-0.42
877.31,-0.39
886.08,-0.37
894.94,-0.34
903.89,-0.32
912.93,-0.30
922.06,-0.28
931.28,-0.26
940.59,-0.24
950.00,-0.22
959.50,-0.19
969.09,-0.15
978.78,-0.10
988.57,-0.05
998.46,-0.01
1008.44,0.04
1018.53,0.08
1028.71,0.11
1039.00,0.14
1049.39,0.16
1059.88,0.19
1070.48,0.24
1081.19,0.29
1092.00,0.33
1102.92,0.37
1113.95,0.40
1125.09,0.44
1136.34,0.47
1147.70,0.51
1159.18,0.55
1170.77,0.60
1182.48,0.65
1194.30,0.70
1206.25,0.76
1218.31,0.81
1230.49,0.85
1242.80,0.90
1255.22,0.95
1267.78,1.01
1280.45,1.08
1293.26,1.14
1306.19,1.20
1319.25,1.27
1332.45,1.33
1345.77,1.39
1359.23,1.45
1372.82,1.51
1386.55,1.58
1400.41,1.65
1414.42,1.72
1428.56,1.79
1442.85,1.85
1457.28,1.91
1471.85,1.97
1486.57,2.04
1501.43,2.09
1516.45,2.15
1531.61,2.21
1546.93,2.28
1562.40,2.34
1578.02,2.40
1593.80,2.45
1609.74,2.51
1625.84,2.58
1642.10,2.64
1658.52,2.69
1675.10,2.75
1691.85,2.82
1708.77,2.89
1725.86,2.96
1743.12,3.02
1760.55,3.08
1778.15,3.14
1795.94,3.20
1813.90,3.26
1832.03,3.32
1850.36,3.39
1868.86,3.46
1887.55,3.54
1906.42,3.61
1925.49,3.69
1944.74,3.76
1964.19,3.84
1983.83,3.93
2003.67,4.01
2023.71,4.10
2043.94,4.20
2064.38,4.29
2085.03,4.39
2105.88,4.49
2126.94,4.59
2148.20,4.69
2169.69,4.79
2191.38,4.91
2213.30,5.02
2235.43,5.16
2257.78,5.31
2280.36,5.45
2303.17,5.59
2326.20,5.75
2349.46,5.91
2372.95,6.08
2396.68,6.24
2420.65,6.41
2444.86,6.58
2469.31,6.75
2494.00,6.91
2518.94,7.06
2544.13,7.20
2569.57,7.32
2595.27,7.44
2621.22,7.53
2647.43,7.61
2673.90,7.66
2700.64,7.72
2727.65,7.77
2754.93,7.80
2782.48,7.81
2810.30,7.82
2838.40,7.81
2866.79,7.80
2895.46,7.76
2924.41,7.70
2953.65,7.63
2983.19,7.54
3013.02,7.44
3043.15,7.33
3073.58,7.19
3104.32,7.03
3135.36,6.87
3166.72,6.69
3198.38,6.51
3230.37,6.32
3262.67,6.14
3295.30,5.98
3328.25,5.81
3361.53,5.64
3395.15,5.49
3429.10,5.36
3463.39,5.24
3498.03,5.14
3533.01,5.04
3568.34,4.97
3604.02,4.94
3640.06,4.94
3676.46,4.96
3713.22,4.99
3750.36,5.05
3787.86,5.12
3825.74,5.23
3864.00,5.34
3902.64,5.49
3941.66,5.66
3981.08,5.85
4020.89,6.03
4061.10,6.22
4101.71,6.41
4142.73,6.61
4184.15,6.82
4226.00,7.00
4268.26,7.16
4310.94,7.30
4354.05,7.41
4397.59,7.51
4441.56,7.58
4485.98,7.61
4530.84,7.62
4576.15,7.60
4621.91,7.55
4668.13,7.49
4714.81,7.38
4761.96,7.25
4809.58,7.10
4857.67,6.90
4906.25,6.67
4955.31,6.40
5004.87,6.11
5054.91,5.77
5105.46,5.38
5156.52,4.94
5208.08,4.47
5260.16,3.94
5312.77,3.39
5365.89,2.81
5419.55,2.21
5473.75,1.59
5528.49,0.96
5583.77,0.34
5639.61,-0.28
5696.00,-0.91
5752.96,-1.55
5810.49,-2.17
5868.60,-2.76
5927.28,-3.33
5986.56,-3.85
6046.42,-4.33
6106.89,-4.75
6167.96,-5.10
6229.64,-5.37
6291.93,-5.58
6354.85,-5.70
6418.40,-5.72
6482.58,-5.66
6547.41,-5.53
6612.88,-5.36
6679.01,-5.15
6745.80,-4.91
6813.26,-4.66
6881.39,-4.40
6950.21,-4.15
7019.71,-3.92
7089.91,-3.69
7160.81,-3.49
7232.41,-3.30
7304.74,-3.13
7377.79,-2.97
7451.56,-2.83
7526.08,-2.71
7601.34,-2.60
7677.35,-2.51
7754.13,-2.44
7831.67,-2.39
7909.98,-2.37
7989.08,-2.40
8068.98,-2.47
8149.67,-2.58
8231.16,-2.72
8313.47,-2.87
8396.61,-3.06
8480.57,-3.27
8565.38,-3.50
8651.03,-3.74
8737.54,-4.00
8824.92,-4.29
8913.17,-4.60
9002.30,-4.94
9092.32,-5.30
9183.25,-5.69
9275.08,-6.14
9367.83,-6.63
9461.51,-7.18
9556.12,-7.77
9651.68,-8.38
9748.20,-8.99
9845.68,-9.59
9944.14,-10.17
10043.58,-10.66
10144.02,-11.07
10245.46,-11.38
10347.91,-11.56
10451.39,-11.63
10555.91,-11.57
10661.46,-11.39
10768.08,-11.11
10875.76,-10.74
10984.52,-10.32
11094.36,-9.85
11205.31,-9.39
11317.36,-8.96
11430.53,-8.56
11544.84,-8.21
11660.29,-7.94
11776.89,-7.72
11894.66,-7.58
12013.60,-7.49
12133.74,-7.45
12255.08,-7.43
12377.63,-7.45
12501.41,-7.49
12626.42,-7.55
12752.68,-7.64
12880.21,-7.75
13009.01,-7.89
13139.10,-8.08
13270.49,-8.32
13403.20,-8.59
13537.23,-8.88
13672.60,-9.21
13809.33,-9.54
13947.42,-9.89
14086.90,-10.25
14227.77,-10.59
14370.04,-10.89
14513.74,-11.17
14658.88,-11.42
14805.47,-11.63
14953.52,-11.78
15103.06,-11.90
15254.09,-11.98
15406.63,-12.05
15560.70,-12.12
15716.30,-12.20
15873.47,-12.30
16032.20,-12.43
16192.52,-12.60
16354.45,-12.81
16517.99,-13.05
16683.17,-13.33
16850.01,-13.65
17018.51,-14.02
17188.69,-14.42
17360.58,-14.85
17534.18,-15.31
17709.53,-15.80
17886.62,-16.30
18065.49,-16.79
18246.14,-17.24
18428.60,-17.69
18612.89,-18.14
18799.02,-18.58
18987.01,-19.03
19176.88,-19.48
19368.65,-19.93
19562.33,-20.38
19757.96,-20.83
19955.54,-21.28
