frequency,raw,error,smoothed,error_smoothed,equalization,parametric_eq,fixed_band_eq,equalized_raw,equalized_smoothed,target
20.00,2.72,-3.09,2.72,-3.10,3.09,3.13,0.79,5.81,5.81,5.82
20.20,2.75,-3.06,2.75,-3.06,3.06,3.09,0.82,5.81,5.81,5.81
20.40,2.78,-3.03,2.79,-3.03,3.03,3.06,0.85,5.81,5.82,5.81
20.61,2.81,-3.00,2.82,-2.99,3.00,3.02,0.87,5.81,5.81,5.81
20.81,2.85,-2.95,2.85,-2.96,2.96,2.99,0.90,5.82,5.81,5.80
21.02,2.88,-2.92,2.88,-2.93,2.93,2.95,0.93,5.81,5.81,5.80
21.23,2.90,-2.90,2.91,-2.90,2.90,2.92,0.96,5.80,5.81,5.80
21.44,2.94,-2.87,2.94,-2.87,2.86,2.88,0.99,5.80,5.80,5.81
21.66,2.97,-2.83,2.98,-2.83,2.82,2.84,1.02,5.80,5.80,5.80
21.87,3.01,-2.79,3.01,-2.79,2.78,2.81,1.05,5.80,5.80,5.80
22.09,3.05,-2.74,3.05,-2.74,2.75,2.77,1.09,5.80,5.79,5.79
22.31,3.08,-2.71,3.09,-2.70,2.71,2.73,1.12,5.79,5.79,5.79
22.54,3.12,-2.66,3.12,-2.66,2.66,2.69,1.16,5.79,5.79,5.78
22.76,3.16,-2.62,3.16,-2.62,2.62,2.66,1.19,5.78,5.78,5.78
22.99,3.19,-2.59,3.20,-2.58,2.58,2.62,1.23,5.77,5.77,5.78
23.22,3.23,-2.54,3.23,-2.54,2.54,2.58,1.27,5.77,5.77,5.77
23.45,3.26,-2.51,3.27,-2.50,2.50,2.54,1.31,5.76,5.76,5.77
23.69,3.30,-2.46,3.30,-2.46,2.46,2.50,1.35,5.76,5.76,5.76
23.92,3.33,-2.41,3.33,-2.42,2.42,2.46,1.39,5.76,5.76,5.75
24.16,3.36,-2.38,3.36,-2.38,2.39,2.42,1.43,5.75,5.75,5.75
24.40,3.39,-2.35,3.39,-2.35,2.35,2.38,1.47,5.74,5.74,5.75
24.65,3.42,-2.32,3.43,-2.32,2.31,2.34,1.51,5.74,5.74,5.75
24.89,3.46,-2.28,3.46,-2.28,2.28,2.30,1.55,5.74,5.74,5.74
25.14,3.49,-2.25,3.50,-2.24,2.24,2.26,1.59,5.74,5.74,5.74
25.39,3.53,-2.20,3.53,-2.21,2.21,2.22,1.63,5.74,5.74,5.73
25.65,3.56,-2.17,3.56,-2.17,2.17,2.18,1.67,5.74,5.74,5.73
25.91,3.59,-2.14,3.60,-2.14,2.14,2.14,1.72,5.73,5.73,5.73
26.16,3.63,-2.11,3.63,-2.11,2.10,2.10,1.76,5.74,5.73,5.74
26.43,3.66,-2.08,3.66,-2.07,2.07,2.05,1.80,5.73,5.73,5.74
26.69,3.70,-2.04,3.70,-2.04,2.04,2.01,1.83,5.74,5.74,5.74
26.96,3.73,-2.00,3.73,-2.00,2.00,1.97,1.87,5.74,5.74,5.74
27.23,3.77,-1.96,3.77,-1.97,1.97,1.93,1.91,5.75,5.74,5.74
27.50,3.79,-1.94,3.80,-1.94,1.94,1.89,1.94,5.74,5.74,5.74
27.77,3.82,-1.92,3.82,-1.91,1.91,1.84,1.97,5.74,5.74,5.74
28.05,3.85,-1.88,3.85,-1.88,1.88,1.80,2.00,5.74,5.73,5.73
28.33,3.87,-1.86,3.88,-1.85,1.86,1.76,2.03,5.73,5.73,5.73
28.62,3.90,-1.82,3.90,-1.83,1.83,1.71,2.06,5.73,5.73,5.72
28.90,3.92,-1.81,3.92,-1.80,1.80,1.67,2.08,5.72,5.72,5.73
29.19,3.94,-1.77,3.94,-1.77,1.77,1.63,2.09,5.71,5.71,5.72
29.48,3.96,-1.74,3.97,-1.74,1.74,1.58,2.11,5.70,5.71,5.71
29.78,4.00,-1.70,4.00,-1.71,1.70,1.54,2.12,5.71,5.70,5.70
30.08,4.02,-1.68,4.03,-1.67,1.67,1.49,2.12,5.69,5.70,5.70
30.38,4.06,-1.63,4.06,-1.63,1.63,1.45,2.13,5.70,5.70,5.69
30.68,4.09,-1.60,4.09,-1.60,1.60,1.40,2.12,5.69,5.69,5.69
30.99,4.13,-1.56,4.13,-1.56,1.56,1.36,2.12,5.69,5.69,5.69
31.30,4.16,-1.52,4.16,-1.52,1.52,1.31,2.10,5.68,5.68,5.69
31.61,4.20,-1.48,4.20,-1.48,1.48,1.27,2.09,5.68,5.69,5.68
31.93,4.24,-1.44,4.24,-1.44,1.45,1.22,2.06,5.69,5.69,5.68
32.24,4.28,-1.41,4.28,-1.40,1.41,1.18,2.04,5.69,5.69,5.69
32.57,4.31,-1.36,4.32,-1.37,1.37,1.13,2.01,5.68,5.69,5.68
32.89,4.35,-1.33,4.35,-1.34,1.33,1.09,1.97,5.69,5.68,5.69
33.22,4.38,-1.30,4.38,-1.30,1.29,1.04,1.93,5.68,5.68,5.68
33.55,4.41,-1.27,4.42,-1.26,1.25,1.00,1.89,5.66,5.67,5.68
33.89,4.46,-1.20,4.46,-1.21,1.21,0.95,1.85,5.67,5.67,5.67
34.23,4.49,-1.16,4.50,-1.16,1.16,0.91,1.80,5.65,5.66,5.65
34.57,4.54,-1.11,4.54,-1.11,1.11,0.86,1.74,5.66,5.65,5.65
34.92,4.57,-1.06,4.58,-1.06,1.06,0.82,1.69,5.63,5.64,5.63
35.27,4.61,-1.01,4.61,-1.00,1.01,0.77,1.63,5.62,5.62,5.63
35.62,4.65,-0.94,4.65,-0.95,0.95,0.72,1.56,5.60,5.60,5.59
35.97,4.68,-0.90,4.68,-0.90,0.89,0.68,1.50,5.58,5.57,5.58
36.33,4.71,-0.84,4.72,-0.83,0.83,0.63,1.43,5.55,5.55,5.56
36.70,4.75,-0.77,4.75,-0.77,0.77,0.59,1.36,5.52,5.52,5.52
37.06,4.79,-0.71,4.79,-0.71,0.71,0.54,1.29,5.50,5.50,5.50
37.43,4.82,-0.64,4.83,-0.64,0.64,0.49,1.22,5.47,5.47,5.46
37.81,4.86,-0.58,4.86,-0.58,0.58,0.45,1.15,5.44,5.44,5.44
38.19,4.89,-0.51,4.90,-0.52,0.51,0.40,1.08,5.41,5.41,5.41
38.57,4.93,-0.45,4.93,-0.45,0.45,0.36,1.00,5.38,5.38,5.38
38.95,4.97,-0.38,4.97,-0.38,0.38,0.31,0.93,5.36,5.36,5.36
39.34,5.01,-0.31,5.01,-0.32,0.32,0.26,0.85,5.33,5.33,5.32
39.74,5.04,-0.26,5.05,-0.25,0.26,0.22,0.77,5.30,5.30,5.30
40.14,5.08,-0.19,5.08,-0.20,0.20,0.17,0.70,5.28,5.28,5.27
40.54,5.11,-0.15,5.12,-0.14,0.14,0.13,0.62,5.25,5.25,5.26
40.94,5.15,-0.08,5.15,-0.08,0.08,0.08,0.54,5.23,5.23,5.23
41.35,5.19,-0.01,5.19,-0.02,0.02,0.03,0.46,5.21,5.21,5.21
41.76,5.22,0.04,5.23,0.04,-0.04,-0.01,0.39,5.19,5.19,5.18
42.18,5.26,0.09,5.26,0.09,-0.09,-0.06,0.31,5.17,5.17,5.18
42.60,5.29,0.14,5.30,0.15,-0.15,-0.10,0.23,5.14,5.15,5.15
43.03,5.33,0.21,5.33,0.20,-0.20,-0.15,0.15,5.13,5.13,5.12
43.46,5.36,0.26,5.37,0.26,-0.26,-0.19,0.07,5.11,5.11,5.11
43.90,5.40,0.31,5.40,0.31,-0.31,-0.24,-0.00,5.09,5.09,5.09
44.33,5.42,0.36,5.43,0.36,-0.36,-0.29,-0.08,5.06,5.07,5.06
44.78,5.45,0.41,5.45,0.41,-0.41,-0.33,-0.16,5.04,5.04,5.04
45.23,5.48,0.45,5.48,0.46,-0.46,-0.38,-0.24,5.02,5.02,5.04
45.68,5.51,0.51,5.51,0.51,-0.51,-0.42,-0.31,5.00,5.00,5.00
46.13,5.54,0.58,5.54,0.57,-0.57,-0.47,-0.39,4.98,4.97,4.96
46.60,5.55,0.61,5.56,0.62,-0.62,-0.51,-0.47,4.93,4.94,4.94
47.06,5.58,0.67,5.58,0.67,-0.67,-0.56,-0.55,4.91,4.91,4.91
47.53,5.60,0.72,5.60,0.72,-0.73,-0.60,-0.62,4.88,4.87,4.88
48.01,5.62,0.79,5.62,0.78,-0.78,-0.65,-0.70,4.84,4.84,4.83
48.49,5.63,0.83,5.64,0.83,-0.84,-0.69,-0.78,4.79,4.80,4.80
48.97,5.65,0.89,5.65,0.89,-0.89,-0.73,-0.86,4.76,4.76,4.76
49.46,5.67,0.94,5.67,0.95,-0.95,-0.78,-0.93,4.72,4.72,4.73
49.96,5.68,1.01,5.68,1.00,-1.00,-0.82,-1.01,4.68,4.68,4.67
50.46,5.68,1.05,5.69,1.05,-1.05,-0.87,-1.09,4.63,4.64,4.64
50.96,5.70,1.11,5.70,1.11,-1.10,-0.91,-1.16,4.60,4.60,4.59
51.47,5.71,1.15,5.71,1.15,-1.15,-0.95,-1.24,4.57,4.57,4.56
51.99,5.72,1.20,5.72,1.20,-1.19,-1.00,-1.31,4.53,4.53,4.52
52.51,5.72,1.24,5.72,1.23,-1.24,-1.04,-1.39,4.49,4.48,4.49
53.03,5.72,1.26,5.73,1.27,-1.28,-1.09,-1.46,4.44,4.45,4.46
53.56,5.72,1.31,5.73,1.31,-1.32,-1.13,-1.53,4.40,4.41,4.42
54.10,5.74,1.37,5.73,1.36,-1.36,-1.17,-1.60,4.38,4.37,4.37
54.64,5.73,1.40,5.74,1.41,-1.40,-1.22,-1.67,4.33,4.34,4.34
55.18,5.74,1.45,5.74,1.45,-1.44,-1.26,-1.74,4.30,4.30,4.29
55.74,5.73,1.48,5.74,1.48,-1.48,-1.30,-1.80,4.26,4.26,4.25
56.29,5.74,1.52,5.74,1.51,-1.51,-1.34,-1.87,4.23,4.22,4.23
56.86,5.73,1.53,5.74,1.55,-1.54,-1.39,-1.93,4.19,4.19,4.20
57.42,5.73,1.58,5.74,1.58,-1.57,-1.43,-1.99,4.16,4.17,4.15
58.00,5.74,1.62,5.73,1.61,-1.60,-1.47,-2.05,4.14,4.13,4.12
58.58,5.73,1.63,5.73,1.63,-1.63,-1.51,-2.10,4.10,4.10,4.10
59.16,5.72,1.65,5.73,1.66,-1.67,-1.56,-2.15,4.06,4.06,4.07
59.76,5.72,1.68,5.72,1.69,-1.70,-1.60,-2.20,4.02,4.02,4.04
60.35,5.72,1.73,5.72,1.73,-1.74,-1.64,-2.25,3.98,3.98,3.99
60.96,5.73,1.79,5.73,1.78,-1.79,-1.68,-2.29,3.94,3.94,3.95
61.57,5.72,1.84,5.73,1.84,-1.84,-1.72,-2.33,3.88,3.89,3.88
62.18,5.72,1.89,5.73,1.89,-1.89,-1.77,-2.36,3.83,3.84,3.83
62.80,5.73,1.95,5.73,1.95,-1.94,-1.81,-2.40,3.79,3.79,3.79
63.43,5.73,2.00,5.74,2.00,-1.99,-1.85,-2.43,3.74,3.75,3.73
64.07,5.74,2.05,5.74,2.04,-2.04,-1.89,-2.45,3.70,3.70,3.70
64.71,5.74,2.08,5.74,2.09,-2.08,-1.93,-2.48,3.66,3.66,3.66
65.35,5.74,2.12,5.75,2.13,-2.13,-1.97,-2.50,3.61,3.62,3.62
66.01,5.75,2.17,5.75,2.17,-2.17,-2.01,-2.52,3.58,3.58,3.58
66.67,5.76,2.21,5.76,2.21,-2.22,-2.05,-2.53,3.55,3.54,3.55
67.33,5.76,2.26,5.77,2.26,-2.26,-2.10,-2.55,3.50,3.51,3.50
68.01,5.77,2.31,5.77,2.31,-2.30,-2.14,-2.56,3.47,3.47,3.46
68.69,5.78,2.36,5.78,2.35,-2.35,-2.18,-2.57,3.43,3.43,3.42
69.37,5.78,2.39,5.79,2.40,-2.40,-2.22,-2.58,3.39,3.39,3.39
70.07,5.79,2.44,5.79,2.44,-2.45,-2.26,-2.58,3.35,3.35,3.36
70.77,5.80,2.49,5.80,2.49,-2.49,-2.30,-2.59,3.31,3.31,3.31
71.48,5.81,2.54,5.81,2.54,-2.54,-2.34,-2.59,3.27,3.27,3.27
72.19,5.81,2.59,5.82,2.59,-2.59,-2.38,-2.60,3.22,3.23,3.22
72.91,5.83,2.65,5.83,2.65,-2.64,-2.42,-2.60,3.19,3.18,3.19
73.64,5.84,2.70,5.84,2.70,-2.69,-2.46,-2.61,3.15,3.14,3.14
74.38,5.84,2.74,5.85,2.75,-2.74,-2.50,-2.61,3.10,3.11,3.10
75.12,5.86,2.80,5.86,2.79,-2.79,-2.54,-2.61,3.07,3.07,3.06
75.87,5.87,2.83,5.87,2.84,-2.84,-2.58,-2.62,3.04,3.03,3.04
76.63,5.88,2.88,5.88,2.88,-2.88,-2.62,-2.62,3.00,3.00,3.00
77.40,5.89,2.92,5.89,2.92,-2.92,-2.66,-2.63,2.97,2.97,2.97
78.17,5.90,2.97,5.90,2.97,-2.96,-2.70,-2.64,2.94,2.94,2.93
78.95,5.91,3.00,5.91,3.01,-3.00,-2.74,-2.65,2.91,2.91,2.91
79.74,5.92,3.04,5.92,3.05,-3.04,-2.78,-2.66,2.88,2.88,2.88
80.54,5.93,3.09,5.93,3.08,-3.08,-2.82,-2.67,2.85,2.85,2.85
81.35,5.94,3.12,5.94,3.12,-3.12,-2.85,-2.68,2.82,2.82,2.82
82.16,5.94,3.15,5.95,3.16,-3.16,-2.89,-2.70,2.78,2.79,2.79
82.98,5.95,3.20,5.95,3.19,-3.20,-2.93,-2.71,2.76,2.76,2.76
83.81,5.96,3.23,5.96,3.23,-3.23,-2.97,-2.73,2.73,2.73,2.73
84.65,5.96,3.27,5.96,3.27,-3.27,-3.01,-2.76,2.70,2.70,2.69
85.50,5.96,3.30,5.97,3.30,-3.30,-3.05,-2.78,2.66,2.67,2.66
86.35,5.97,3.33,5.97,3.33,-3.33,-3.08,-2.80,2.64,2.64,2.64
87.22,5.96,3.35,5.97,3.36,-3.36,-3.12,-2.83,2.60,2.60,2.61
88.09,5.96,3.39,5.96,3.39,-3.39,-3.16,-2.86,2.57,2.57,2.58
88.97,5.96,3.42,5.96,3.42,-3.42,-3.19,-2.89,2.54,2.54,2.55
89.86,5.96,3.45,5.96,3.45,-3.45,-3.23,-2.93,2.51,2.51,2.51
90.76,5.96,3.48,5.96,3.48,-3.48,-3.27,-2.97,2.48,2.48,2.48
91.66,5.95,3.51,5.96,3.51,-3.51,-3.30,-3.00,2.44,2.45,2.45
92.58,5.95,3.54,5.95,3.54,-3.54,-3.34,-3.05,2.41,2.41,2.41
93.51,5.94,3.57,5.94,3.57,-3.57,-3.37,-3.09,2.37,2.37,2.38
94.44,5.93,3.59,5.93,3.60,-3.60,-3.40,-3.13,2.33,2.33,2.34
95.39,5.92,3.63,5.92,3.63,-3.63,-3.44,-3.18,2.29,2.29,2.29
96.34,5.91,3.66,5.91,3.66,-3.66,-3.47,-3.23,2.25,2.25,2.25
97.30,5.89,3.68,5.90,3.69,-3.69,-3.50,-3.28,2.20,2.20,2.21
98.28,5.88,3.73,5.88,3.72,-3.72,-3.53,-3.33,2.16,2.16,2.15
99.26,5.86,3.76,5.87,3.75,-3.75,-3.57,-3.39,2.11,2.12,2.11
100.25,5.85,3.78,5.85,3.78,-3.78,-3.60,-3.44,2.08,2.07,2.07
101.25,5.83,3.80,5.83,3.80,-3.80,-3.63,-3.50,2.03,2.03,2.03
102.27,5.81,3.82,5.81,3.82,-3.82,-3.65,-3.56,1.99,2.00,2.00
103.29,5.79,3.84,5.79,3.83,-3.83,-3.68,-3.62,1.96,1.96,1.96
104.32,5.77,3.84,5.77,3.85,-3.85,-3.71,-3.67,1.93,1.93,1.93
105.37,5.75,3.86,5.75,3.86,-3.86,-3.74,-3.73,1.90,1.89,1.89
106.42,5.72,3.86,5.72,3.87,-3.86,-3.76,-3.79,1.86,1.86,1.86
107.48,5.69,3.88,5.69,3.87,-3.87,-3.79,-3.85,1.82,1.82,1.82
108.56,5.66,3.87,5.66,3.87,-3.87,-3.81,-3.91,1.79,1.79,1.79
109.64,5.63,3.87,5.63,3.88,-3.88,-3.83,-3.96,1.76,1.76,1.76
110.74,5.60,3.88,5.60,3.88,-3.88,-3.85,-4.02,1.72,1.72,1.72
111.85,5.57,3.89,5.57,3.88,-3.88,-3.87,-4.07,1.69,1.69,1.69
112.97,5.53,3.88,5.54,3.89,-3.89,-3.89,-4.12,1.65,1.65,1.65
114.10,5.50,3.89,5.50,3.89,-3.89,-3.91,-4.17,1.61,1.61,1.61
115.24,5.45,3.89,5.46,3.89,-3.89,-3.93,-4.21,1.56,1.56,1.57
116.39,5.41,3.90,5.42,3.90,-3.90,-3.94,-4.26,1.52,1.52,1.51
117.55,5.37,3.90,5.37,3.90,-3.90,-3.96,-4.29,1.47,1.47,1.47
118.73,5.33,3.91,5.33,3.91,-3.90,-3.97,-4.33,1.43,1.43,1.42
119.92,5.28,3.91,5.29,3.91,-3.90,-3.98,-4.35,1.38,1.38,1.38
121.12,5.24,3.90,5.24,3.91,-3.90,-3.99,-4.38,1.34,1.34,1.34
122.33,5.19,3.91,5.20,3.90,-3.91,-4.00,-4.39,1.29,1.29,1.29
123.55,5.15,3.91,5.15,3.90,-3.91,-4.01,-4.41,1.25,1.24,1.24
124.79,5.10,3.90,5.10,3.90,-3.91,-4.01,-4.42,1.19,1.19,1.20
126.03,5.05,3.90,5.06,3.91,-3.91,-4.02,-4.42,1.14,1.14,1.15
127.29,5.01,3.92,5.01,3.91,-3.92,-4.02,-4.42,1.10,1.09,1.09
128.57,4.96,3.92,4.96,3.92,-3.92,-4.02,-4.41,1.04,1.04,1.04
129.85,4.91,3.92,4.92,3.93,-3.93,-4.02,-4.40,0.99,0.99,0.99
131.15,4.87,3.93,4.87,3.93,-3.93,-4.02,-4.39,0.94,0.94,0.94
132.46,4.83,3.94,4.83,3.94,-3.94,-4.02,-4.36,0.90,0.90,0.89
133.79,4.79,3.94,4.79,3.94,-3.94,-4.02,-4.34,0.85,0.85,0.85
135.12,4.75,3.94,4.75,3.94,-3.94,-4.01,-4.31,0.81,0.81,0.81
136.48,4.71,3.93,4.72,3.94,-3.94,-4.01,-4.28,0.77,0.78,0.78
137.84,4.68,3.94,4.68,3.94,-3.94,-4.00,-4.24,0.74,0.74,0.75
139.22,4.64,3.94,4.64,3.93,-3.93,-3.99,-4.20,0.71,0.71,0.70
140.61,4.60,3.92,4.61,3.93,-3.93,-3.98,-4.16,0.67,0.68,0.68
142.02,4.57,3.93,4.57,3.92,-3.92,-3.97,-4.12,0.65,0.65,0.65
143.44,4.53,3.92,4.53,3.91,-3.91,-3.96,-4.07,0.62,0.62,0.61
144.87,4.48,3.89,4.49,3.90,-3.90,-3.96,-4.03,0.59,0.59,0.59
146.32,4.44,3.88,4.44,3.88,-3.88,-3.95,-3.98,0.56,0.56,0.56
147.78,4.40,3.87,4.40,3.86,-3.87,-3.94,-3.93,0.54,0.53,0.53
149.26,4.35,3.85,4.35,3.85,-3.85,-3.93,-3.89,0.50,0.51,0.51
150.75,4.30,3.83,4.31,3.83,-3.83,-3.92,-3.84,0.47,0.48,0.47
152.26,4.26,3.81,4.26,3.81,-3.81,-3.91,-3.79,0.45,0.45,0.45
153.78,4.21,3.80,4.21,3.80,-3.80,-3.90,-3.75,0.42,0.42,0.42
155.32,4.17,3.78,4.17,3.78,-3.78,-3.89,-3.70,0.39,0.39,0.39
156.88,4.11,3.76,4.12,3.76,-3.77,-3.88,-3.66,0.35,0.35,0.36
158.44,4.07,3.75,4.07,3.75,-3.75,-3.88,-3.62,0.32,0.32,0.32
160.03,4.03,3.74,4.03,3.74,-3.74,-3.87,-3.58,0.29,0.29,0.29
161.63,3.98,3.72,3.99,3.73,-3.73,-3.86,-3.54,0.25,0.26,0.26
163.24,3.94,3.73,3.94,3.73,-3.72,-3.86,-3.50,0.22,0.22,0.21
164.88,3.89,3.71,3.89,3.72,-3.71,-3.85,-3.47,0.18,0.18,0.18
166.53,3.85,3.71,3.85,3.71,-3.70,-3.84,-3.44,0.15,0.15,0.14
168.19,3.79,3.68,3.80,3.69,-3.69,-3.84,-3.41,0.10,0.10,0.11
169.87,3.75,3.68,3.75,3.68,-3.68,-3.83,-3.38,0.07,0.07,0.07
171.57,3.70,3.68,3.70,3.67,-3.68,-3.82,-3.36,0.03,0.03,0.03
173.29,3.66,3.67,3.66,3.67,-3.67,-3.81,-3.33,-0.00,-0.01,-0.01
175.02,3.61,3.66,3.61,3.66,-3.66,-3.81,-3.31,-0.05,-0.04,-0.04
176.77,3.57,3.65,3.57,3.65,-3.65,-3.80,-3.30,-0.08,-0.08,-0.08
178.54,3.52,3.64,3.53,3.64,-3.64,-3.79,-3.28,-0.12,-0.12,-0.11
180.32,3.49,3.65,3.49,3.64,-3.64,-3.78,-3.27,-0.15,-0.15,-0.16
182.13,3.44,3.63,3.44,3.63,-3.63,-3.76,-3.26,-0.19,-0.19,-0.19
183.95,3.40,3.62,3.40,3.63,-3.63,-3.75,-3.25,-0.22,-0.22,-0.22
185.79,3.36,3.62,3.36,3.62,-3.62,-3.74,-3.25,-0.26,-0.26,-0.26
187.65,3.32,3.61,3.32,3.62,-3.62,-3.72,-3.25,-0.30,-0.30,-0.29
189.52,3.28,3.61,3.28,3.61,-3.62,-3.71,-3.25,-0.33,-0.33,-0.33
191.42,3.24,3.61,3.24,3.61,-3.61,-3.69,-3.25,-0.37,-0.37,-0.37
193.33,3.20,3.61,3.20,3.61,-3.61,-3.67,-3.25,-0.41,-0.41,-0.41
195.27,3.16,3.61,3.16,3.61,-3.61,-3.65,-3.26,-0.44,-0.44,-0.45
197.22,3.12,3.61,3.12,3.60,-3.60,-3.64,-3.27,-0.48,-0.48,-0.48
199.19,3.08,3.59,3.08,3.60,-3.60,-3.62,-3.28,-0.51,-0.51,-0.51
201.18,3.04,3.59,3.04,3.59,-3.59,-3.59,-3.29,-0.54,-0.54,-0.55
203.19,3.01,3.59,3.01,3.58,-3.58,-3.57,-3.30,-0.57,-0.57,-0.57
205.23,2.96,3.56,2.97,3.57,-3.57,-3.55,-3.32,-0.61,-0.60,-0.60
207.28,2.93,3.56,2.93,3.56,-3.56,-3.53,-3.33,-0.63,-0.63,-0.62
209.35,2.89,3.55,2.89,3.55,-3.55,-3.50,-3.35,-0.66,-0.66,-0.66
211.44,2.86,3.54,2.86,3.54,-3.54,-3.48,-3.37,-0.68,-0.68,-0.68
213.56,2.82,3.54,2.82,3.54,-3.54,-3.45,-3.39,-0.71,-0.71,-0.71
215.69,2.79,3.53,2.79,3.53,-3.53,-3.43,-3.40,-0.74,-0.74,-0.74
217.85,2.75,3.51,2.76,3.52,-3.52,-3.40,-3.42,-0.77,-0.76,-0.76
220.03,2.72,3.51,2.72,3.51,-3.51,-3.38,-3.44,-0.79,-0.78,-0.79
222.23,2.69,3.51,2.69,3.50,-3.50,-3.35,-3.45,-0.80,-0.81,-0.81
224.45,2.65,3.49,2.65,3.49,-3.48,-3.32,-3.47,-0.83,-0.83,-0.83
226.70,2.61,3.47,2.62,3.47,-3.47,-3.29,-3.48,-0.86,-0.85,-0.85
228.96,2.58,3.45,2.58,3.45,-3.45,-3.26,-3.49,-0.87,-0.87,-0.87
231.25,2.55,3.44,2.55,3.43,-3.44,-3.24,-3.50,-0.89,-0.89,-0.88
233.57,2.51,3.42,2.51,3.42,-3.42,-3.21,-3.51,-0.91,-0.91,-0.90
235.90,2.47,3.41,2.48,3.40,-3.40,-3.18,-3.51,-0.93,-0.93,-0.93
238.26,2.44,3.40,2.44,3.39,-3.39,-3.15,-3.52,-0.94,-0.95,-0.95
240.64,2.40,3.35,2.41,3.37,-3.37,-3.12,-3.51,-0.97,-0.96,-0.95
243.05,2.38,3.35,2.38,3.35,-3.35,-3.09,-3.51,-0.97,-0.97,-0.97
245.48,2.34,3.33,2.35,3.33,-3.33,-3.06,-3.50,-0.99,-0.98,-0.99
247.93,2.31,3.32,2.31,3.31,-3.31,-3.02,-3.49,-1.00,-0.99,-1.01
250.41,2.28,3.29,2.28,3.29,-3.29,-2.99,-3.48,-1.00,-1.01,-1.00
252.92,2.24,3.25,2.25,3.26,-3.26,-2.96,-3.46,-1.02,-1.02,-1.01
255.45,2.21,3.24,2.21,3.23,-3.24,-2.93,-3.44,-1.02,-1.03,-1.03
258.00,2.17,3.21,2.18,3.21,-3.21,-2.90,-3.41,-1.04,-1.03,-1.03
260.58,2.14,3.18,2.14,3.18,-3.18,-2.87,-3.38,-1.04,-1.04,-1.04
263.19,2.10,3.16,2.10,3.15,-3.15,-2.84,-3.35,-1.05,-1.05,-1.06
265.82,2.06,3.12,2.06,3.13,-3.13,-2.81,-3.32,-1.06,-1.06,-1.06
268.48,2.02,3.09,2.02,3.09,-3.10,-2.77,-3.28,-1.07,-1.07,-1.07
271.16,1.98,3.07,1.98,3.06,-3.07,-2.74,-3.24,-1.08,-1.08,-1.08
273.87,1.94,3.03,1.94,3.03,-3.03,-2.71,-3.20,-1.09,-1.09,-1.09
276.61,1.90,3.01,1.90,3.01,-3.00,-2.68,-3.15,-1.10,-1.10,-1.10
279.38,1.85,2.97,1.86,2.97,-2.97,-2.65,-3.10,-1.12,-1.11,-1.12
282.17,1.82,2.95,1.82,2.93,-2.93,-2.62,-3.05,-1.11,-1.12,-1.12
284.99,1.77,2.89,1.77,2.90,-2.90,-2.59,-3.00,-1.13,-1.13,-1.12
287.84,1.72,2.84,1.73,2.86,-2.86,-2.55,-2.95,-1.14,-1.13,-1.12
290.72,1.69,2.84,1.69,2.82,-2.82,-2.52,-2.90,-1.13,-1.14,-1.15
293.63,1.64,2.78,1.65,2.79,-2.79,-2.49,-2.85,-1.14,-1.14,-1.14
296.57,1.60,2.75,1.60,2.75,-2.75,-2.46,-2.79,-1.14,-1.14,-1.14
299.53,1.56,2.71,1.56,2.71,-2.71,-2.43,-2.74,-1.14,-1.15,-1.15
302.53,1.51,2.66,1.52,2.67,-2.67,-2.40,-2.69,-1.15,-1.15,-1.15
305.55,1.47,2.63,1.47,2.62,-2.62,-2.37,-2.63,-1.15,-1.16,-1.15
308.61,1.42,2.58,1.42,2.58,-2.58,-2.34,-2.58,-1.16,-1.16,-1.16
311.69,1.37,2.53,1.38,2.54,-2.54,-2.31,-2.53,-1.16,-1.16,-1.16
314.81,1.33,2.50,1.33,2.49,-2.49,-2.28,-2.48,-1.16,-1.16,-1.16
317.96,1.27,2.44,1.28,2.45,-2.44,-2.25,-2.43,-1.17,-1.16,-1.17
321.14,1.23,2.39,1.23,2.40,-2.40,-2.22,-2.38,-1.16,-1.17,-1.16
324.35,1.18,2.36,1.18,2.34,-2.35,-2.19,-2.33,-1.17,-1.17,-1.17
327.59,1.13,2.29,1.14,2.30,-2.30,-2.16,-2.28,-1.17,-1.17,-1.16
330.87,1.09,2.25,1.09,2.25,-2.26,-2.13,-2.24,-1.16,-1.16,-1.16
334.18,1.05,2.22,1.05,2.21,-2.21,-2.10,-2.19,-1.16,-1.16,-1.17
337.52,1.00,2.17,1.01,2.17,-2.16,-2.07,-2.15,-1.16,-1.16,-1.16
340.90,0.96,2.13,0.96,2.12,-2.12,-2.05,-2.11,-1.15,-1.16,-1.16
344.30,0.91,2.07,0.91,2.07,-2.07,-2.02,-2.07,-1.16,-1.16,-1.16
347.75,0.86,2.01,0.87,2.02,-2.03,-1.99,-2.03,-1.16,-1.16,-1.15
351.23,0.83,1.99,0.82,1.98,-1.98,-1.96,-1.99,-1.15,-1.16,-1.16
354.74,0.78,1.93,0.79,1.94,-1.94,-1.94,-1.96,-1.15,-1.15,-1.14
358.28,0.74,1.90,0.75,1.90,-1.90,-1.91,-1.92,-1.15,-1.15,-1.15
361.87,0.71,1.86,0.71,1.85,-1.86,-1.89,-1.89,-1.14,-1.15,-1.15
365.49,0.67,1.82,0.67,1.82,-1.82,-1.86,-1.86,-1.15,-1.15,-1.15
369.14,0.63,1.77,0.64,1.78,-1.79,-1.84,-1.83,-1.15,-1.15,-1.14
372.83,0.61,1.75,0.61,1.75,-1.75,-1.81,-1.80,-1.14,-1.14,-1.14
376.56,0.58,1.73,0.58,1.72,-1.72,-1.79,-1.78,-1.14,-1.14,-1.14
380.33,0.55,1.70,0.55,1.70,-1.69,-1.76,-1.75,-1.14,-1.14,-1.14
384.13,0.52,1.67,0.52,1.66,-1.66,-1.74,-1.73,-1.14,-1.14,-1.15
387.97,0.49,1.63,0.49,1.63,-1.63,-1.72,-1.70,-1.14,-1.14,-1.14
391.85,0.46,1.60,0.46,1.60,-1.61,-1.70,-1.68,-1.15,-1.14,-1.14
395.77,0.44,1.58,0.44,1.58,-1.59,-1.68,-1.66,-1.14,-1.14,-1.14
399.73,0.42,1.56,0.42,1.56,-1.56,-1.66,-1.64,-1.14,-1.14,-1.14
403.72,0.41,1.54,0.41,1.55,-1.54,-1.64,-1.62,-1.13,-1.13,-1.13
407.76,0.39,1.53,0.40,1.53,-1.53,-1.62,-1.61,-1.13,-1.13,-1.13
411.84,0.38,1.52,0.38,1.51,-1.51,-1.60,-1.59,-1.13,-1.13,-1.13
415.96,0.37,1.50,0.37,1.50,-1.50,-1.59,-1.57,-1.13,-1.13,-1.12
420.12,0.35,1.49,0.36,1.49,-1.49,-1.57,-1.56,-1.14,-1.13,-1.14
424.32,0.34,1.48,0.35,1.48,-1.48,-1.56,-1.54,-1.14,-1.14,-1.14
428.56,0.34,1.47,0.34,1.47,-1.48,-1.54,-1.53,-1.14,-1.14,-1.13
432.85,0.34,1.47,0.34,1.47,-1.48,-1.53,-1.51,-1.13,-1.14,-1.13
437.18,0.33,1.47,0.34,1.47,-1.47,-1.52,-1.50,-1.14,-1.13,-1.14
441.55,0.34,1.48,0.34,1.48,-1.47,-1.51,-1.48,-1.13,-1.14,-1.14
445.96,0.33,1.47,0.33,1.48,-1.47,-1.50,-1.47,-1.14,-1.14,-1.14
450.42,0.33,1.47,0.34,1.48,-1.47,-1.49,-1.45,-1.14,-1.14,-1.14
454.93,0.33,1.48,0.33,1.47,-1.47,-1.48,-1.44,-1.14,-1.14,-1.14
459.48,0.33,1.48,0.33,1.47,-1.47,-1.47,-1.42,-1.14,-1.14,-1.14
464.07,0.32,1.46,0.33,1.46,-1.47,-1.46,-1.41,-1.14,-1.14,-1.13
468.71,0.32,1.46,0.32,1.46,-1.46,-1.45,-1.39,-1.14,-1.14,-1.13
473.40,0.32,1.46,0.32,1.45,-1.45,-1.45,-1.37,-1.13,-1.13,-1.13
478.13,0.31,1.45,0.31,1.45,-1.45,-1.44,-1.35,-1.13,-1.13,-1.14
482.91,0.30,1.44,0.30,1.44,-1.44,-1.43,-1.33,-1.13,-1.13,-1.14
487.74,0.29,1.42,0.29,1.42,-1.43,-1.42,-1.31,-1.13,-1.13,-1.13
492.62,0.28,1.41,0.28,1.41,-1.41,-1.41,-1.29,-1.13,-1.13,-1.13
497.55,0.27,1.40,0.27,1.40,-1.40,-1.39,-1.26,-1.13,-1.13,-1.13
502.52,0.26,1.39,0.26,1.39,-1.38,-1.37,-1.24,-1.12,-1.12,-1.13
507.55,0.24,1.36,0.25,1.37,-1.36,-1.35,-1.21,-1.12,-1.12,-1.12
512.62,0.23,1.35,0.23,1.34,-1.34,-1.33,-1.18,-1.11,-1.12,-1.12
517.75,0.21,1.31,0.21,1.32,-1.32,-1.30,-1.15,-1.11,-1.11,-1.10
522.93,0.18,1.28,0.19,1.29,-1.29,-1.27,-1.12,-1.11,-1.10,-1.10
