frequency,raw,error,smoothed,error_smoothed,equalization,parametric_eq,fixed_band_eq,equalized_raw,equalized_smoothed,target
20.00,0.06,-0.71,0.05,-0.74,0.74,-0.61,-0.77,0.81,0.80,0.78
20.20,0.19,-0.62,0.19,-0.64,0.64,-0.62,-0.79,0.84,0.83,0.81
20.40,0.32,-0.53,0.32,-0.54,0.54,-0.64,-0.81,0.87,0.86,0.86
20.61,0.44,-0.44,0.44,-0.44,0.44,-0.66,-0.84,0.89,0.89,0.88
20.81,0.56,-0.36,0.57,-0.35,0.35,-0.68,-0.86,0.91,0.91,0.92
21.02,0.68,-0.28,0.69,-0.25,0.25,-0.70,-0.89,0.93,0.94,0.96
21.23,0.80,-0.18,0.81,-0.15,0.15,-0.72,-0.91,0.96,0.96,0.98
21.44,0.92,-0.08,0.93,-0.06,0.06,-0.74,-0.94,0.98,0.99,1.00
21.66,1.03,0.01,1.05,0.04,-0.04,-0.76,-0.97,0.99,1.01,1.02
21.87,1.15,0.11,1.16,0.13,-0.13,-0.78,-1.00,1.01,1.03,1.03
22.09,1.26,0.21,1.27,0.23,-0.23,-0.80,-1.03,1.04,1.04,1.05
22.31,1.38,0.31,1.38,0.32,-0.32,-0.82,-1.06,1.06,1.06,1.06
22.54,1.49,0.42,1.49,0.42,-0.42,-0.85,-1.09,1.07,1.07,1.07
22.76,1.61,0.53,1.60,0.51,-0.51,-0.87,-1.12,1.10,1.08,1.08
22.99,1.71,0.63,1.70,0.61,-0.61,-0.89,-1.15,1.10,1.09,1.08
23.22,1.80,0.71,1.80,0.70,-0.70,-0.92,-1.18,1.10,1.10,1.09
23.45,1.89,0.79,1.90,0.79,-0.79,-0.95,-1.22,1.10,1.11,1.10
23.69,1.98,0.87,1.99,0.88,-0.88,-0.97,-1.25,1.11,1.12,1.11
23.92,2.09,0.97,2.09,0.96,-0.96,-1.00,-1.28,1.14,1.13,1.12
24.16,2.18,1.04,2.18,1.04,-1.04,-1.03,-1.32,1.14,1.14,1.14
24.40,2.26,1.11,2.26,1.12,-1.12,-1.06,-1.36,1.15,1.15,1.16
24.65,2.34,1.18,2.35,1.19,-1.19,-1.09,-1.39,1.15,1.16,1.16
24.89,2.41,1.25,2.43,1.26,-1.26,-1.12,-1.43,1.15,1.17,1.17
25.14,2.49,1.32,2.50,1.32,-1.32,-1.15,-1.46,1.17,1.18,1.18
25.39,2.57,1.39,2.57,1.39,-1.39,-1.18,-1.50,1.19,1.19,1.19
25.65,2.64,1.44,2.64,1.44,-1.44,-1.22,-1.54,1.20,1.20,1.21
25.91,2.71,1.51,2.71,1.50,-1.50,-1.25,-1.57,1.21,1.21,1.21
26.16,2.78,1.57,2.77,1.55,-1.55,-1.28,-1.61,1.23,1.22,1.22
26.43,2.84,1.62,2.83,1.60,-1.60,-1.31,-1.65,1.24,1.23,1.22
26.69,2.90,1.67,2.88,1.64,-1.64,-1.35,-1.68,1.26,1.24,1.23
26.96,2.94,1.69,2.93,1.68,-1.68,-1.38,-1.72,1.26,1.25,1.25
27.23,2.98,1.72,2.98,1.72,-1.72,-1.42,-1.75,1.26,1.26,1.26
27.50,3.01,1.74,3.03,1.76,-1.76,-1.45,-1.78,1.25,1.27,1.27
27.77,3.05,1.78,3.07,1.80,-1.80,-1.49,-1.81,1.26,1.28,1.27
28.05,3.10,1.81,3.11,1.83,-1.83,-1.52,-1.84,1.28,1.28,1.29
28.33,3.14,1.85,3.15,1.85,-1.85,-1.55,-1.87,1.29,1.29,1.29
28.62,3.17,1.87,3.18,1.88,-1.88,-1.59,-1.89,1.29,1.30,1.30
28.90,3.21,1.91,3.22,1.91,-1.91,-1.62,-1.92,1.31,1.31,1.31
29.19,3.25,1.95,3.25,1.93,-1.93,-1.65,-1.94,1.32,1.32,1.31
29.48,3.29,1.96,3.29,1.96,-1.96,-1.68,-1.96,1.33,1.33,1.34
29.78,3.32,1.99,3.32,1.99,-1.99,-1.71,-1.97,1.33,1.33,1.34
30.08,3.35,2.01,3.36,2.02,-2.02,-1.73,-1.99,1.34,1.34,1.34
30.38,3.37,2.03,3.39,2.04,-2.04,-1.76,-2.00,1.33,1.35,1.34
30.68,3.39,2.03,3.42,2.06,-2.06,-1.78,-2.00,1.33,1.36,1.36
30.99,3.42,2.06,3.44,2.08,-2.08,-1.81,-2.01,1.35,1.36,1.36
31.30,3.45,2.08,3.46,2.09,-2.09,-1.82,-2.01,1.37,1.37,1.37
31.61,3.48,2.10,3.47,2.09,-2.09,-1.84,-2.01,1.39,1.38,1.38
31.93,3.50,2.12,3.48,2.09,-2.09,-1.86,-2.00,1.41,1.39,1.39
32.24,3.51,2.13,3.48,2.09,-2.09,-1.87,-1.99,1.43,1.40,1.39
32.57,3.51,2.11,3.48,2.08,-2.08,-1.88,-1.98,1.44,1.40,1.40
32.89,3.50,2.09,3.47,2.06,-2.06,-1.88,-1.97,1.44,1.41,1.41
33.22,3.47,2.05,3.46,2.04,-2.04,-1.88,-1.95,1.43,1.42,1.42
33.55,3.44,2.01,3.44,2.01,-2.01,-1.88,-1.93,1.43,1.43,1.43
33.89,3.41,1.98,3.42,1.98,-1.98,-1.88,-1.91,1.43,1.44,1.44
34.23,3.38,1.94,3.39,1.95,-1.95,-1.87,-1.89,1.43,1.44,1.45
34.57,3.35,1.90,3.36,1.91,-1.91,-1.87,-1.86,1.44,1.45,1.45
34.92,3.32,1.87,3.33,1.87,-1.87,-1.85,-1.84,1.45,1.46,1.45
35.27,3.29,1.83,3.29,1.83,-1.83,-1.84,-1.81,1.46,1.46,1.46
35.62,3.26,1.79,3.26,1.80,-1.80,-1.82,-1.78,1.47,1.47,1.47
35.97,3.23,1.77,3.24,1.77,-1.77,-1.80,-1.75,1.47,1.47,1.47
36.33,3.20,1.73,3.22,1.74,-1.74,-1.78,-1.72,1.46,1.47,1.47
36.70,3.17,1.70,3.20,1.72,-1.72,-1.75,-1.69,1.45,1.48,1.47
37.06,3.15,1.67,3.18,1.71,-1.71,-1.73,-1.65,1.45,1.48,1.48
37.43,3.14,1.66,3.17,1.69,-1.69,-1.70,-1.62,1.45,1.48,1.49
37.81,3.14,1.66,3.16,1.68,-1.68,-1.67,-1.59,1.46,1.48,1.49
38.19,3.14,1.66,3.16,1.68,-1.68,-1.64,-1.55,1.47,1.48,1.48
38.57,3.15,1.67,3.15,1.67,-1.67,-1.60,-1.52,1.48,1.48,1.48
38.95,3.16,1.69,3.14,1.67,-1.67,-1.57,-1.49,1.50,1.48,1.48
39.34,3.16,1.69,3.14,1.66,-1.66,-1.53,-1.46,1.50,1.48,1.47
39.74,3.15,1.68,3.13,1.65,-1.65,-1.50,-1.42,1.50,1.48,1.47
40.14,3.13,1.66,3.12,1.64,-1.64,-1.46,-1.39,1.49,1.48,1.48
40.54,3.10,1.63,3.10,1.63,-1.63,-1.43,-1.36,1.48,1.48,1.47
40.94,3.09,1.62,3.09,1.61,-1.61,-1.39,-1.33,1.48,1.48,1.47
41.35,3.07,1.61,3.06,1.59,-1.59,-1.35,-1.30,1.49,1.47,1.47
41.76,3.04,1.57,3.03,1.56,-1.56,-1.32,-1.27,1.48,1.47,1.47
42.18,3.01,1.53,3.00,1.53,-1.53,-1.28,-1.25,1.49,1.47,1.48
42.60,2.97,1.50,2.96,1.49,-1.49,-1.24,-1.22,1.48,1.47,1.48
43.03,2.92,1.44,2.92,1.45,-1.45,-1.21,-1.19,1.47,1.47,1.48
43.46,2.87,1.40,2.88,1.41,-1.41,-1.17,-1.17,1.46,1.47,1.48
43.90,2.83,1.37,2.84,1.37,-1.37,-1.14,-1.14,1.46,1.47,1.46
44.33,2.78,1.32,2.80,1.33,-1.33,-1.10,-1.12,1.45,1.47,1.47
44.78,2.74,1.28,2.76,1.29,-1.29,-1.07,-1.10,1.46,1.47,1.46
45.23,2.70,1.25,2.71,1.24,-1.24,-1.04,-1.08,1.46,1.47,1.46
45.68,2.66,1.20,2.67,1.20,-1.20,-1.01,-1.06,1.46,1.47,1.46
46.13,2.62,1.17,2.62,1.16,-1.16,-0.97,-1.04,1.46,1.47,1.46
46.60,2.58,1.11,2.58,1.12,-1.12,-0.94,-1.02,1.47,1.46,1.47
47.06,2.54,1.08,2.54,1.08,-1.08,-0.91,-1.00,1.46,1.46,1.47
47.53,2.50,1.04,2.50,1.04,-1.04,-0.88,-0.98,1.46,1.46,1.46
48.01,2.46,0.99,2.46,1.01,-1.01,-0.86,-0.97,1.46,1.45,1.47
48.49,2.42,0.97,2.42,0.97,-0.97,-0.83,-0.95,1.45,1.45,1.46
48.97,2.37,0.93,2.38,0.93,-0.93,-0.80,-0.94,1.44,1.44,1.44
49.46,2.32,0.89,2.33,0.90,-0.90,-0.77,-0.92,1.42,1.43,1.43
49.96,2.28,0.87,2.29,0.86,-0.86,-0.75,-0.91,1.42,1.43,1.41
50.46,2.23,0.82,2.25,0.83,-0.83,-0.72,-0.90,1.40,1.42,1.42
50.96,2.20,0.79,2.20,0.80,-0.80,-0.70,-0.89,1.41,1.40,1.41
51.47,2.16,0.78,2.16,0.76,-0.76,-0.68,-0.88,1.40,1.39,1.38
51.99,2.12,0.75,2.11,0.73,-0.73,-0.65,-0.87,1.39,1.38,1.37
52.51,2.07,0.70,2.06,0.69,-0.69,-0.63,-0.86,1.38,1.37,1.37
53.03,2.02,0.67,2.01,0.66,-0.66,-0.61,-0.85,1.36,1.35,1.35
53.56,1.97,0.63,1.97,0.63,-0.63,-0.59,-0.84,1.35,1.34,1.35
54.10,1.92,0.60,1.92,0.59,-0.59,-0.57,-0.83,1.33,1.33,1.33
54.64,1.87,0.56,1.88,0.56,-0.56,-0.55,-0.82,1.31,1.31,1.32
55.18,1.83,0.54,1.83,0.53,-0.53,-0.53,-0.81,1.30,1.30,1.29
55.74,1.78,0.51,1.79,0.51,-0.51,-0.51,-0.80,1.28,1.29,1.27
56.29,1.73,0.46,1.75,0.48,-0.48,-0.49,-0.79,1.25,1.27,1.27
56.86,1.69,0.44,1.71,0.46,-0.46,-0.48,-0.79,1.24,1.26,1.25
57.42,1.65,0.42,1.68,0.44,-0.44,-0.46,-0.78,1.22,1.24,1.23
58.00,1.63,0.42,1.64,0.42,-0.42,-0.44,-0.77,1.21,1.22,1.22
58.58,1.61,0.41,1.61,0.41,-0.41,-0.43,-0.76,1.20,1.20,1.20
59.16,1.59,0.40,1.58,0.40,-0.40,-0.41,-0.75,1.19,1.18,1.19
59.76,1.57,0.40,1.56,0.39,-0.39,-0.40,-0.75,1.18,1.16,1.18
60.35,1.54,0.39,1.53,0.39,-0.39,-0.38,-0.74,1.15,1.14,1.15
60.96,1.51,0.38,1.50,0.39,-0.39,-0.37,-0.73,1.13,1.12,1.13
61.57,1.47,0.38,1.48,0.38,-0.38,-0.36,-0.72,1.09,1.09,1.09
62.18,1.45,0.39,1.45,0.38,-0.38,-0.34,-0.71,1.07,1.07,1.06
62.80,1.42,0.38,1.43,0.39,-0.39,-0.33,-0.70,1.04,1.04,1.04
63.43,1.40,0.40,1.40,0.38,-0.38,-0.32,-0.69,1.02,1.01,1.01
64.07,1.38,0.40,1.37,0.39,-0.39,-0.30,-0.68,1.00,0.99,0.98
64.71,1.35,0.40,1.34,0.39,-0.39,-0.29,-0.67,0.97,0.96,0.95
65.35,1.32,0.40,1.32,0.39,-0.39,-0.28,-0.66,0.93,0.93,0.92
66.01,1.29,0.40,1.29,0.39,-0.39,-0.27,-0.64,0.90,0.90,0.90
66.67,1.26,0.39,1.27,0.40,-0.40,-0.26,-0.63,0.86,0.87,0.88
67.33,1.24,0.40,1.25,0.41,-0.41,-0.25,-0.62,0.83,0.84,0.85
68.01,1.22,0.41,1.23,0.42,-0.42,-0.24,-0.61,0.80,0.81,0.82
68.69,1.20,0.42,1.22,0.44,-0.44,-0.23,-0.59,0.77,0.78,0.79
69.37,1.19,0.44,1.21,0.45,-0.45,-0.22,-0.58,0.74,0.76,0.75
70.07,1.18,0.46,1.20,0.47,-0.47,-0.21,-0.57,0.71,0.73,0.72
70.77,1.18,0.48,1.20,0.49,-0.49,-0.20,-0.55,0.69,0.70,0.70
71.48,1.19,0.52,1.19,0.52,-0.52,-0.19,-0.54,0.67,0.67,0.68
72.19,1.19,0.55,1.20,0.55,-0.55,-0.18,-0.53,0.64,0.65,0.64
72.91,1.20,0.58,1.20,0.58,-0.58,-0.17,-0.51,0.63,0.62,0.62
73.64,1.20,0.61,1.20,0.61,-0.61,-0.16,-0.50,0.60,0.60,0.59
74.38,1.20,0.62,1.21,0.63,-0.63,-0.15,-0.49,0.57,0.58,0.58
75.12,1.21,0.66,1.21,0.66,-0.66,-0.14,-0.47,0.56,0.56,0.55
75.87,1.22,0.69,1.22,0.68,-0.68,-0.14,-0.46,0.55,0.54,0.54
76.63,1.22,0.70,1.21,0.70,-0.70,-0.13,-0.45,0.53,0.52,0.52
77.40,1.22,0.72,1.21,0.71,-0.71,-0.12,-0.43,0.52,0.50,0.50
78.17,1.22,0.74,1.20,0.72,-0.72,-0.11,-0.42,0.51,0.49,0.48
78.95,1.20,0.73,1.19,0.72,-0.72,-0.10,-0.41,0.49,0.47,0.47
79.74,1.19,0.73,1.18,0.71,-0.71,-0.10,-0.40,0.48,0.46,0.46
80.54,1.16,0.71,1.16,0.71,-0.71,-0.09,-0.38,0.46,0.45,0.45
81.35,1.14,0.70,1.14,0.69,-0.69,-0.08,-0.37,0.45,0.44,0.44
82.16,1.11,0.68,1.11,0.68,-0.68,-0.07,-0.36,0.44,0.43,0.43
82.98,1.08,0.65,1.08,0.65,-0.65,-0.07,-0.35,0.43,0.43,0.43
83.81,1.05,0.63,1.05,0.63,-0.63,-0.06,-0.33,0.42,0.42,0.42
84.65,1.02,0.62,1.02,0.61,-0.61,-0.05,-0.32,0.42,0.42,0.41
85.50,0.99,0.58,0.99,0.58,-0.58,-0.04,-0.31,0.41,0.41,0.41
86.35,0.96,0.55,0.97,0.56,-0.56,-0.04,-0.30,0.40,0.41,0.41
87.22,0.93,0.53,0.95,0.54,-0.54,-0.03,-0.29,0.39,0.41,0.40
88.09,0.91,0.51,0.93,0.52,-0.52,-0.02,-0.28,0.39,0.40,0.40
88.97,0.88,0.48,0.91,0.51,-0.51,-0.02,-0.27,0.37,0.40,0.40
89.86,0.87,0.47,0.90,0.50,-0.50,-0.01,-0.26,0.37,0.40,0.41
90.76,0.86,0.47,0.89,0.49,-0.49,-0.00,-0.25,0.37,0.40,0.39
91.66,0.86,0.47,0.89,0.49,-0.49,0.00,-0.24,0.37,0.40,0.40
92.58,0.87,0.49,0.88,0.49,-0.49,0.01,-0.23,0.39,0.40,0.39
93.51,0.89,0.49,0.88,0.48,-0.48,0.02,-0.22,0.41,0.39,0.40
94.44,0.90,0.51,0.87,0.48,-0.48,0.02,-0.21,0.42,0.39,0.39
95.39,0.89,0.50,0.87,0.49,-0.49,0.03,-0.20,0.41,0.38,0.40
96.34,0.88,0.51,0.86,0.48,-0.48,0.04,-0.19,0.40,0.38,0.38
97.30,0.87,0.50,0.85,0.48,-0.48,0.04,-0.18,0.39,0.37,0.37
98.28,0.84,0.48,0.84,0.48,-0.48,0.05,-0.18,0.37,0.36,0.36
99.26,0.82,0.47,0.83,0.47,-0.47,0.05,-0.17,0.35,0.35,0.35
100.25,0.80,0.46,0.81,0.46,-0.46,0.06,-0.16,0.34,0.34,0.34
101.25,0.78,0.45,0.78,0.45,-0.45,0.07,-0.15,0.33,0.33,0.33
102.27,0.75,0.44,0.75,0.43,-0.43,0.07,-0.14,0.32,0.32,0.31
103.29,0.72,0.43,0.72,0.42,-0.42,0.08,-0.13,0.31,0.30,0.29
104.32,0.68,0.40,0.68,0.40,-0.40,0.09,-0.13,0.28,0.28,0.29
105.37,0.64,0.38,0.64,0.39,-0.39,0.09,-0.12,0.26,0.26,0.27
106.42,0.60,0.37,0.61,0.37,-0.37,0.10,-0.11,0.23,0.23,0.24
107.48,0.56,0.35,0.57,0.36,-0.36,0.10,-0.10,0.20,0.21,0.22
108.56,0.52,0.35,0.52,0.35,-0.35,0.11,-0.10,0.18,0.18,0.18
109.64,0.47,0.32,0.48,0.34,-0.34,0.12,-0.09,0.14,0.15,0.15
110.74,0.42,0.30,0.44,0.33,-0.33,0.12,-0.08,0.10,0.11,0.12
111.85,0.37,0.29,0.39,0.32,-0.32,0.13,-0.07,0.06,0.07,0.08
112.97,0.33,0.30,0.34,0.31,-0.31,0.14,-0.07,0.03,0.03,0.03
114.10,0.30,0.30,0.29,0.30,-0.30,0.14,-0.06,0.01,-0.00,0.00
115.24,0.25,0.30,0.24,0.28,-0.28,0.15,-0.05,-0.03,-0.04,-0.05
116.39,0.20,0.30,0.19,0.27,-0.27,0.16,-0.04,-0.07,-0.08,-0.09
117.55,0.14,0.27,0.14,0.26,-0.26,0.16,-0.03,-0.12,-0.13,-0.13
118.73,0.08,0.26,0.08,0.25,-0.25,0.17,-0.03,-0.16,-0.17,-0.18
119.92,0.02,0.23,0.02,0.23,-0.23,0.18,-0.02,-0.21,-0.21,-0.21
121.12,-0.05,0.21,-0.03,0.21,-0.21,0.18,-0.01,-0.26,-0.24,-0.25
122.33,-0.11,0.18,-0.10,0.19,-0.19,0.19,-0.00,-0.29,-0.28,-0.29
123.55,-0.17,0.15,-0.16,0.16,-0.16,0.20,0.01,-0.33,-0.32,-0.31
124.79,-0.22,0.13,-0.22,0.13,-0.13,0.20,0.02,-0.35,-0.35,-0.35
126.03,-0.29,0.10,-0.29,0.10,-0.10,0.21,0.03,-0.38,-0.39,-0.38
127.29,-0.36,0.06,-0.36,0.06,-0.06,0.22,0.04,-0.42,-0.42,-0.42
128.57,-0.43,0.04,-0.43,0.02,-0.02,0.22,0.05,-0.45,-0.45,-0.46
129.85,-0.50,-0.01,-0.50,-0.02,0.02,0.23,0.05,-0.48,-0.48,-0.49
131.15,-0.57,-0.05,-0.58,-0.06,0.06,0.24,0.06,-0.50,-0.51,-0.52
132.46,-0.65,-0.10,-0.65,-0.11,0.11,0.25,0.07,-0.54,-0.54,-0.54
133.79,-0.73,-0.16,-0.72,-0.15,0.15,0.25,0.09,-0.58,-0.57,-0.56
135.12,-0.80,-0.20,-0.79,-0.20,0.20,0.26,0.10,-0.60,-0.59,-0.60
136.48,-0.88,-0.26,-0.87,-0.25,0.25,0.27,0.11,-0.63,-0.62,-0.62
137.84,-0.95,-0.30,-0.95,-0.30,0.30,0.28,0.12,-0.65,-0.65,-0.65
139.22,-1.03,-0.35,-1.02,-0.35,0.35,0.28,0.13,-0.67,-0.67,-0.68
140.61,-1.10,-0.39,-1.09,-0.40,0.40,0.29,0.14,-0.70,-0.69,-0.71
142.02,-1.17,-0.45,-1.16,-0.45,0.45,0.30,0.15,-0.72,-0.72,-0.71
143.44,-1.24,-0.50,-1.24,-0.50,0.50,0.31,0.16,-0.74,-0.74,-0.73
144.87,-1.31,-0.55,-1.31,-0.54,0.54,0.31,0.18,-0.76,-0.76,-0.76
146.32,-1.37,-0.58,-1.37,-0.59,0.59,0.32,0.19,-0.78,-0.79,-0.79
147.78,-1.45,-0.64,-1.44,-0.63,0.63,0.33,0.20,-0.82,-0.81,-0.80
149.26,-1.52,-0.69,-1.51,-0.67,0.67,0.34,0.21,-0.85,-0.84,-0.83
150.75,-1.58,-0.70,-1.58,-0.71,0.71,0.35,0.23,-0.87,-0.87,-0.87
152.26,-1.64,-0.74,-1.64,-0.75,0.75,0.36,0.24,-0.89,-0.90,-0.90
153.78,-1.70,-0.78,-1.71,-0.78,0.78,0.36,0.26,-0.92,-0.93,-0.92
155.32,-1.76,-0.79,-1.77,-0.81,0.81,0.37,0.27,-0.95,-0.96,-0.96
156.88,-1.83,-0.84,-1.83,-0.84,0.84,0.38,0.28,-0.99,-0.99,-0.99
158.44,-1.89,-0.87,-1.89,-0.87,0.87,0.39,0.30,-1.02,-1.02,-1.02
160.03,-1.96,-0.90,-1.95,-0.89,0.89,0.40,0.31,-1.07,-1.06,-1.06
161.63,-2.02,-0.92,-2.00,-0.91,0.91,0.41,0.33,-1.11,-1.09,-1.10
163.24,-2.08,-0.95,-2.06,-0.93,0.93,0.42,0.35,-1.15,-1.13,-1.13
164.88,-2.12,-0.96,-2.11,-0.95,0.95,0.43,0.36,-1.17,-1.16,-1.16
166.53,-2.16,-0.96,-2.16,-0.96,0.96,0.44,0.38,-1.20,-1.20,-1.20
168.19,-2.20,-0.96,-2.21,-0.97,0.97,0.45,0.39,-1.22,-1.24,-1.24
169.87,-2.25,-0.97,-2.26,-0.98,0.98,0.45,0.41,-1.27,-1.28,-1.28
171.57,-2.30,-0.98,-2.31,-0.98,0.98,0.46,0.43,-1.31,-1.32,-1.32
173.29,-2.35,-0.98,-2.35,-0.98,0.98,0.47,0.45,-1.36,-1.36,-1.36
175.02,-2.39,-0.99,-2.39,-0.98,0.98,0.48,0.47,-1.41,-1.41,-1.40
176.77,-2.43,-0.97,-2.42,-0.97,0.97,0.49,0.48,-1.46,-1.45,-1.45
178.54,-2.47,-0.97,-2.46,-0.96,0.96,0.51,0.50,-1.51,-1.50,-1.50
180.32,-2.51,-0.96,-2.49,-0.94,0.94,0.52,0.52,-1.56,-1.55,-1.55
182.13,-2.54,-0.95,-2.52,-0.93,0.93,0.53,0.54,-1.61,-1.59,-1.59
183.95,-2.57,-0.92,-2.55,-0.91,0.91,0.54,0.56,-1.66,-1.64,-1.64
185.79,-2.58,-0.89,-2.58,-0.89,0.89,0.55,0.58,-1.69,-1.69,-1.69
187.65,-2.60,-0.85,-2.61,-0.87,0.87,0.56,0.60,-1.73,-1.74,-1.75
189.52,-2.62,-0.82,-2.63,-0.85,0.85,0.57,0.63,-1.77,-1.79,-1.79
191.42,-2.65,-0.81,-2.66,-0.83,0.83,0.58,0.65,-1.82,-1.83,-1.84
193.33,-2.68,-0.80,-2.69,-0.80,0.80,0.59,0.67,-1.87,-1.88,-1.88
195.27,-2.71,-0.79,-2.71,-0.78,0.78,0.60,0.69,-1.92,-1.93,-1.92
197.22,-2.74,-0.76,-2.74,-0.77,0.77,0.62,0.71,-1.97,-1.97,-1.97
199.19,-2.77,-0.74,-2.76,-0.75,0.75,0.63,0.74,-2.02,-2.02,-2.02
201.18,-2.80,-0.73,-2.79,-0.73,0.73,0.64,0.76,-2.06,-2.06,-2.06
203.19,-2.82,-0.72,-2.82,-0.72,0.72,0.65,0.78,-2.10,-2.10,-2.09
205.23,-2.84,-0.69,-2.84,-0.70,0.70,0.67,0.81,-2.13,-2.14,-2.14
207.28,-2.87,-0.70,-2.87,-0.69,0.69,0.68,0.83,-2.18,-2.18,-2.16
209.35,-2.90,-0.68,-2.89,-0.68,0.68,0.69,0.85,-2.22,-2.22,-2.21
211.44,-2.93,-0.67,-2.91,-0.66,0.66,0.70,0.87,-2.26,-2.25,-2.26
213.56,-2.95,-0.66,-2.93,-0.65,0.65,0.72,0.90,-2.30,-2.29,-2.29
215.69,-2.97,-0.66,-2.95,-0.63,0.63,0.73,0.92,-2.33,-2.32,-2.31
217.85,-2.98,-0.63,-2.97,-0.62,0.62,0.74,0.94,-2.35,-2.35,-2.35
220.03,-2.99,-0.60,-2.99,-0.61,0.61,0.76,0.97,-2.37,-2.38,-2.38
222.23,-3.01,-0.60,-3.01,-0.61,0.61,0.77,0.99,-2.40,-2.40,-2.41
224.45,-3.03,-0.60,-3.03,-0.60,0.60,0.79,1.01,-2.43,-2.43,-2.43
226.70,-3.04,-0.59,-3.05,-0.60,0.60,0.80,1.03,-2.44,-2.45,-2.45
228.96,-3.06,-0.58,-3.07,-0.60,0.60,0.81,1.05,-2.45,-2.47,-2.47
231.25,-3.08,-0.60,-3.09,-0.61,0.61,0.83,1.07,-2.47,-2.48,-2.48
233.57,-3.10,-0.60,-3.11,-0.62,0.62,0.84,1.09,-2.48,-2.50,-2.49
235.90,-3.13,-0.62,-3.13,-0.63,0.63,0.86,1.11,-2.50,-2.51,-2.51
238.26,-3.16,-0.64,-3.16,-0.64,0.64,0.87,1.12,-2.51,-2.51,-2.52
240.64,-3.19,-0.66,-3.18,-0.66,0.66,0.89,1.14,-2.52,-2.52,-2.52
243.05,-3.22,-0.70,-3.21,-0.69,0.69,0.90,1.16,-2.53,-2.52,-2.52
245.48,-3.25,-0.72,-3.23,-0.71,0.71,0.92,1.17,-2.54,-2.52,-2.52
247.93,-3.27,-0.75,-3.25,-0.73,0.73,0.94,1.18,-2.53,-2.52,-2.52
250.41,-3.29,-0.76,-3.27,-0.76,0.76,0.95,1.20,-2.53,-2.51,-2.52
252.92,-3.30,-0.79,-3.30,-0.79,0.79,0.97,1.21,-2.51,-2.51,-2.51
255.45,-3.32,-0.83,-3.32,-0.82,0.82,0.98,1.22,-2.50,-2.50,-2.49
258.00,-3.34,-0.85,-3.34,-0.85,0.85,1.00,1.23,-2.48,-2.49,-2.49
260.58,-3.36,-0.88,-3.36,-0.89,0.89,1.02,1.23,-2.47,-2.48,-2.48
263.19,-3.38,-0.91,-3.38,-0.92,0.92,1.04,1.24,-2.46,-2.46,-2.46
265.82,-3.40,-0.94,-3.40,-0.95,0.95,1.05,1.25,-2.44,-2.45,-2.46
268.48,-3.41,-0.98,-3.42,-0.99,0.99,1.07,1.25,-2.42,-2.44,-2.43
271.16,-3.44,-1.02,-3.45,-1.03,1.03,1.09,1.26,-2.41,-2.42,-2.41
273.87,-3.47,-1.06,-3.47,-1.06,1.06,1.11,1.27,-2.40,-2.41,-2.41
276.61,-3.50,-1.12,-3.49,-1.10,1.10,1.12,1.27,-2.39,-2.39,-2.38
279.38,-3.53,-1.15,-3.52,-1.14,1.14,1.14,1.27,-2.38,-2.37,-2.37
282.17,-3.55,-1.19,-3.54,-1.18,1.18,1.16,1.28,-2.36,-2.36,-2.36
284.99,-3.58,-1.24,-3.57,-1.22,1.22,1.18,1.28,-2.35,-2.34,-2.34
287.84,-3.60,-1.26,-3.59,-1.26,1.26,1.20,1.29,-2.33,-2.33,-2.33
290.72,-3.62,-1.30,-3.61,-1.30,1.30,1.22,1.29,-2.31,-2.31,-2.32
293.63,-3.64,-1.34,-3.64,-1.34,1.34,1.23,1.29,-2.30,-2.30,-2.30
296.57,-3.67,-1.39,-3.66,-1.38,1.38,1.25,1.30,-2.29,-2.28,-2.28
299.53,-3.69,-1.41,-3.68,-1.42,1.42,1.27,1.30,-2.27,-2.27,-2.27
302.53,-3.71,-1.44,-3.71,-1.45,1.45,1.29,1.31,-2.26,-2.26,-2.27
305.55,-3.73,-1.49,-3.73,-1.49,1.49,1.31,1.31,-2.24,-2.24,-2.24
308.61,-3.75,-1.52,-3.75,-1.52,1.52,1.33,1.32,-2.23,-2.23,-2.23
311.69,-3.77,-1.55,-3.77,-1.56,1.56,1.35,1.33,-2.21,-2.22,-2.22
314.81,-3.80,-1.60,-3.80,-1.59,1.59,1.37,1.34,-2.21,-2.21,-2.19
317.96,-3.83,-1.63,-3.82,-1.62,1.62,1.39,1.35,-2.20,-2.20,-2.20
321.14,-3.85,-1.66,-3.85,-1.66,1.66,1.41,1.36,-2.19,-2.19,-2.19
324.35,-3.88,-1.69,-3.88,-1.69,1.69,1.43,1.37,-2.18,-2.18,-2.19
327.59,-3.90,-1.73,-3.90,-1.73,1.73,1.45,1.38,-2.17,-2.18,-2.17
330.87,-3.93,-1.75,-3.93,-1.76,1.76,1.47,1.39,-2.17,-2.17,-2.17
334.18,-3.96,-1.78,-3.96,-1.79,1.79,1.49,1.41,-2.16,-2.17,-2.17
337.52,-3.99,-1.82,-3.99,-1.82,1.82,1.51,1.42,-2.16,-2.16,-2.17
340.90,-4.02,-1.86,-4.01,-1.85,1.85,1.54,1.44,-2.16,-2.16,-2.16
344.30,-4.05,-1.89,-4.04,-1.88,1.88,1.56,1.46,-2.17,-2.16,-2.16
347.75,-4.08,-1.92,-4.07,-1.91,1.91,1.58,1.47,-2.17,-2.16,-2.16
351.23,-4.10,-1.94,-4.10,-1.93,1.93,1.60,1.49,-2.16,-2.16,-2.16
354.74,-4.13,-1.96,-4.12,-1.96,1.96,1.62,1.52,-2.17,-2.17,-2.16
358.28,-4.15,-1.97,-4.15,-1.98,1.98,1.64,1.54,-2.17,-2.17,-2.17
361.87,-4.18,-2.00,-4.17,-2.00,2.00,1.66,1.56,-2.17,-2.17,-2.17
365.49,-4.20,-2.02,-4.20,-2.02,2.02,1.68,1.59,-2.18,-2.18,-2.18
369.14,-4.23,-2.04,-4.22,-2.04,2.04,1.70,1.61,-2.19,-2.18,-2.19
372.83,-4.25,-2.06,-4.24,-2.05,2.05,1.73,1.64,-2.19,-2.19,-2.19
376.56,-4.27,-2.07,-4.27,-2.07,2.07,1.75,1.67,-2.20,-2.20,-2.20
380.33,-4.29,-2.09,-4.29,-2.08,2.08,1.77,1.70,-2.20,-2.20,-2.20
384.13,-4.32,-2.11,-4.31,-2.10,2.10,1.79,1.73,-2.22,-2.21,-2.21
387.97,-4.34,-2.12,-4.33,-2.12,2.12,1.81,1.76,-2.22,-2.22,-2.22
391.85,-4.36,-2.12,-4.36,-2.13,2.13,1.83,1.79,-2.22,-2.22,-2.23
395.77,-4.38,-2.15,-4.38,-2.15,2.15,1.85,1.83,-2.22,-2.23,-2.22
399.73,-4.40,-2.16,-4.41,-2.17,2.17,1.87,1.86,-2.23,-2.24,-2.23
403.72,-4.42,-2.17,-4.43,-2.19,2.19,1.89,1.89,-2.22,-2.24,-2.24
407.76,-4.45,-2.19,-4.46,-2.21,2.21,1.91,1.93,-2.23,-2.25,-2.25
411.84,-4.48,-2.23,-4.49,-2.24,2.24,1.93,1.96,-2.24,-2.25,-2.25
415.96,-4.51,-2.25,-4.51,-2.26,2.26,1.95,2.00,-2.25,-2.26,-2.26
420.12,-4.54,-2.28,-4.54,-2.28,2.28,1.97,2.03,-2.26,-2.26,-2.26
424.32,-4.57,-2.31,-4.56,-2.30,2.30,1.99,2.07,-2.27,-2.26,-2.26
428.56,-4.60,-2.33,-4.58,-2.32,2.32,2.01,2.10,-2.28,-2.26,-2.27
432.85,-4.62,-2.35,-4.60,-2.34,2.34,2.03,2.13,-2.28,-2.26,-2.27
437.18,-4.64,-2.37,-4.62,-2.35,2.35,2.05,2.17,-2.28,-2.26,-2.27
441.55,-4.65,-2.39,-4.63,-2.36,2.36,2.07,2.20,-2.28,-2.27,-2.26
445.96,-4.66,-2.40,-4.64,-2.38,2.38,2.08,2.22,-2.28,-2.26,-2.26
450.42,-4.66,-2.39,-4.65,-2.38,2.38,2.10,2.25,-2.27,-2.26,-2.27
454.93,-4.65,-2.39,-4.65,-2.39,2.39,2.12,2.28,-2.26,-2.26,-2.26
459.48,-4.65,-2.39,-4.65,-2.40,2.40,2.13,2.30,-2.25,-2.26,-2.26
464.07,-4.64,-2.39,-4.65,-2.40,2.40,2.15,2.32,-2.24,-2.25,-2.25
468.71,-4.64,-2.39,-4.65,-2.40,2.40,2.16,2.34,-2.23,-2.25,-2.24
473.40,-4.64,-2.39,-4.65,-2.41,2.41,2.18,2.35,-2.23,-2.24,-2.24
478.13,-4.64,-2.40,-4.64,-2.41,2.41,2.19,2.36,-2.23,-2.23,-2.23
482.91,-4.64,-2.40,-4.64,-2.41,2.41,2.20,2.37,-2.23,-2.23,-2.23
487.74,-4.64,-2.41,-4.64,-2.41,2.41,2.21,2.37,-2.22,-2.22,-2.22
492.62,-4.64,-2.42,-4.63,-2.42,2.42,2.22,2.37,-2.22,-2.22,-2.21
497.55,-4.64,-2.42,-4.63,-2.42,2.42,2.23,2.37,-2.22,-2.21,-2.21
