frequency,raw,smoothed,error,error_smoothed,equalization,parametric_eq,fixed_band_eq,equalized_raw,equalized_smoothed,target
20.00,8.84,8.84,-0.24,-0.24,0.24,-0.19,-0.37,9.08,9.08,9.08
20.20,8.84,8.83,-0.23,-0.23,0.23,-0.20,-0.38,9.07,9.07,9.07
20.40,8.83,8.83,-0.23,-0.23,0.22,-0.21,-0.39,9.05,9.05,9.06
20.61,8.83,8.83,-0.22,-0.22,0.21,-0.22,-0.40,9.04,9.04,9.04
20.81,8.83,8.83,-0.21,-0.21,0.20,-0.23,-0.42,9.03,9.03,9.03
21.02,8.83,8.83,-0.19,-0.19,0.19,-0.24,-0.43,9.02,9.02,9.02
21.23,8.84,8.83,-0.17,-0.18,0.18,-0.26,-0.44,9.02,9.01,9.01
21.44,8.84,8.84,-0.16,-0.16,0.17,-0.27,-0.45,9.00,9.00,9.00
21.66,8.84,8.84,-0.15,-0.15,0.15,-0.28,-0.46,8.99,8.99,8.99
21.87,8.85,8.84,-0.13,-0.13,0.13,-0.29,-0.47,8.98,8.98,8.98
22.09,8.85,8.85,-0.12,-0.12,0.12,-0.31,-0.48,8.97,8.97,8.97
22.31,8.86,8.86,-0.10,-0.10,0.10,-0.32,-0.50,8.96,8.96,8.96
22.54,8.87,8.87,-0.08,-0.08,0.08,-0.33,-0.51,8.95,8.95,8.95
22.76,8.88,8.88,-0.06,-0.06,0.06,-0.35,-0.52,8.94,8.94,8.93
22.99,8.89,8.89,-0.05,-0.04,0.04,-0.36,-0.54,8.93,8.93,8.93
23.22,8.91,8.90,-0.01,-0.02,0.01,-0.38,-0.55,8.92,8.92,8.92
23.45,8.92,8.92,0.01,0.01,-0.01,-0.39,-0.56,8.91,8.91,8.91
23.69,8.94,8.94,0.04,0.04,-0.04,-0.40,-0.58,8.90,8.90,8.90
23.92,8.96,8.96,0.07,0.07,-0.07,-0.42,-0.59,8.89,8.89,8.89
24.16,8.98,8.98,0.10,0.10,-0.10,-0.43,-0.61,8.88,8.88,8.88
24.40,9.00,9.00,0.13,0.13,-0.12,-0.45,-0.63,8.87,8.87,8.87
24.65,9.02,9.02,0.15,0.15,-0.15,-0.47,-0.64,8.86,8.86,8.86
24.89,9.04,9.04,0.18,0.18,-0.18,-0.48,-0.66,8.86,8.86,8.86
25.14,9.07,9.07,0.21,0.21,-0.21,-0.50,-0.67,8.86,8.85,8.86
25.39,9.10,9.09,0.25,0.24,-0.24,-0.51,-0.69,8.86,8.85,8.85
25.65,9.12,9.12,0.27,0.27,-0.27,-0.53,-0.71,8.84,8.85,8.85
25.91,9.15,9.15,0.30,0.31,-0.31,-0.55,-0.72,8.84,8.85,8.85
26.16,9.19,9.18,0.35,0.34,-0.34,-0.57,-0.74,8.85,8.84,8.84
26.43,9.22,9.22,0.38,0.38,-0.38,-0.58,-0.76,8.84,8.84,8.84
26.69,9.25,9.25,0.41,0.41,-0.41,-0.60,-0.78,8.83,8.84,8.84
26.96,9.29,9.29,0.45,0.45,-0.45,-0.62,-0.79,8.84,8.84,8.84
27.23,9.33,9.33,0.49,0.49,-0.49,-0.64,-0.81,8.84,8.84,8.83
27.50,9.37,9.36,0.54,0.53,-0.53,-0.66,-0.83,8.84,8.83,8.83
27.77,9.40,9.40,0.57,0.58,-0.57,-0.68,-0.85,8.82,8.83,8.83
28.05,9.44,9.44,0.62,0.62,-0.62,-0.70,-0.87,8.82,8.82,8.82
28.33,9.48,9.47,0.66,0.66,-0.66,-0.72,-0.88,8.82,8.81,8.81
28.62,9.51,9.51,0.71,0.71,-0.71,-0.74,-0.90,8.80,8.80,8.80
28.90,9.55,9.55,0.75,0.75,-0.76,-0.76,-0.92,8.79,8.79,8.80
29.19,9.59,9.59,0.80,0.80,-0.80,-0.78,-0.94,8.79,8.79,8.79
29.48,9.63,9.63,0.86,0.85,-0.85,-0.80,-0.95,8.78,8.78,8.77
29.78,9.67,9.66,0.90,0.90,-0.90,-0.82,-0.97,8.77,8.77,8.77
30.08,9.70,9.70,0.94,0.94,-0.94,-0.84,-0.99,8.76,8.76,8.76
30.38,9.74,9.74,0.98,0.99,-0.98,-0.86,-1.01,8.75,8.75,8.75
30.68,9.78,9.78,1.03,1.03,-1.03,-0.89,-1.02,8.75,8.75,8.75
30.99,9.82,9.82,1.07,1.07,-1.07,-0.91,-1.04,8.75,8.75,8.75
31.30,9.85,9.85,1.11,1.10,-1.10,-0.93,-1.06,8.75,8.74,8.74
31.61,9.88,9.88,1.14,1.14,-1.14,-0.95,-1.07,8.74,8.74,8.74
31.93,9.91,9.91,1.16,1.17,-1.17,-0.98,-1.09,8.74,8.74,8.74
32.24,9.95,9.94,1.21,1.20,-1.20,-1.00,-1.10,8.74,8.74,8.74
32.57,9.98,9.98,1.24,1.24,-1.24,-1.03,-1.12,8.74,8.74,8.74
32.89,10.01,10.01,1.27,1.27,-1.27,-1.05,-1.14,8.74,8.74,8.74
33.22,10.04,10.04,1.30,1.30,-1.31,-1.08,-1.15,8.73,8.73,8.74
33.55,10.07,10.07,1.34,1.34,-1.34,-1.10,-1.17,8.73,8.73,8.73
33.89,10.10,10.10,1.38,1.38,-1.38,-1.13,-1.18,8.72,8.72,8.72
34.23,10.14,10.14,1.43,1.42,-1.42,-1.15,-1.20,8.71,8.71,8.71
34.57,10.17,10.17,1.46,1.47,-1.47,-1.18,-1.22,8.70,8.70,8.71
34.92,10.21,10.20,1.52,1.51,-1.52,-1.21,-1.23,8.69,8.69,8.69
35.27,10.24,10.24,1.56,1.56,-1.56,-1.24,-1.25,8.67,8.67,8.67
35.62,10.27,10.27,1.61,1.61,-1.61,-1.26,-1.27,8.66,8.66,8.66
35.97,10.31,10.31,1.67,1.66,-1.66,-1.29,-1.29,8.65,8.64,8.64
36.33,10.34,10.34,1.71,1.71,-1.71,-1.32,-1.30,8.62,8.62,8.63
36.70,10.37,10.37,1.77,1.76,-1.76,-1.35,-1.32,8.60,8.60,8.60
37.06,10.39,10.39,1.81,1.81,-1.81,-1.38,-1.34,8.58,8.58,8.58
37.43,10.42,10.42,1.86,1.86,-1.86,-1.41,-1.36,8.56,8.56,8.55
37.81,10.45,10.44,1.91,1.91,-1.91,-1.44,-1.39,8.54,8.53,8.54
38.19,10.47,10.47,1.96,1.96,-1.96,-1.47,-1.41,8.51,8.51,8.51
38.57,10.49,10.49,2.00,2.00,-2.00,-1.50,-1.43,8.49,8.49,8.49
38.95,10.52,10.52,2.05,2.04,-2.04,-1.53,-1.46,8.48,8.47,8.47
39.34,10.54,10.54,2.08,2.09,-2.08,-1.56,-1.48,8.45,8.45,8.45
39.74,10.56,10.56,2.12,2.13,-2.12,-1.59,-1.51,8.43,8.44,8.43
40.14,10.58,10.58,2.16,2.16,-2.16,-1.63,-1.53,8.42,8.42,8.42
40.54,10.60,10.60,2.19,2.19,-2.20,-1.66,-1.56,8.40,8.40,8.41
40.94,10.62,10.62,2.22,2.23,-2.23,-1.69,-1.59,8.39,8.39,8.40
41.35,10.64,10.64,2.26,2.26,-2.26,-1.73,-1.62,8.38,8.38,8.37
41.76,10.66,10.66,2.29,2.29,-2.29,-1.76,-1.65,8.37,8.37,8.36
42.18,10.68,10.68,2.32,2.32,-2.32,-1.80,-1.69,8.36,8.36,8.36
42.60,10.69,10.69,2.34,2.34,-2.34,-1.83,-1.72,8.35,8.35,8.35
43.03,10.71,10.71,2.37,2.37,-2.37,-1.87,-1.76,8.34,8.34,8.34
43.46,10.73,10.72,2.39,2.39,-2.39,-1.90,-1.80,8.34,8.34,8.34
43.90,10.74,10.74,2.40,2.41,-2.41,-1.94,-1.84,8.33,8.33,8.33
44.33,10.75,10.75,2.43,2.43,-2.43,-1.97,-1.88,8.32,8.32,8.32
44.78,10.77,10.76,2.45,2.45,-2.45,-2.01,-1.92,8.32,8.32,8.32
45.23,10.78,10.78,2.47,2.47,-2.47,-2.05,-1.96,8.31,8.31,8.31
45.68,10.79,10.79,2.49,2.49,-2.49,-2.08,-2.00,8.30,8.30,8.30
46.13,10.80,10.80,2.52,2.51,-2.51,-2.12,-2.05,8.28,8.28,8.28
46.60,10.81,10.81,2.53,2.54,-2.54,-2.16,-2.10,8.27,8.27,8.28
47.06,10.82,10.82,2.56,2.56,-2.56,-2.20,-2.15,8.26,8.26,8.26
47.53,10.83,10.83,2.59,2.58,-2.59,-2.24,-2.20,8.24,8.24,8.24
48.01,10.84,10.84,2.61,2.61,-2.61,-2.28,-2.25,8.23,8.23,8.22
48.49,10.85,10.85,2.64,2.64,-2.64,-2.32,-2.30,8.21,8.21,8.21
48.97,10.86,10.85,2.67,2.67,-2.67,-2.36,-2.35,8.19,8.19,8.19
49.46,10.86,10.86,2.69,2.69,-2.70,-2.40,-2.41,8.16,8.16,8.17
49.96,10.86,10.86,2.72,2.72,-2.72,-2.44,-2.46,8.14,8.14,8.14
50.46,10.87,10.86,2.75,2.75,-2.75,-2.48,-2.52,8.12,8.12,8.12
50.96,10.87,10.87,2.78,2.78,-2.78,-2.52,-2.57,8.09,8.09,8.09
51.47,10.87,10.87,2.80,2.80,-2.80,-2.56,-2.63,8.07,8.07,8.06
51.99,10.87,10.87,2.83,2.83,-2.83,-2.60,-2.69,8.04,8.04,8.04
52.51,10.87,10.87,2.85,2.85,-2.85,-2.65,-2.74,8.02,8.02,8.02
53.03,10.87,10.87,2.88,2.88,-2.88,-2.69,-2.80,7.99,7.99,7.99
53.56,10.87,10.87,2.90,2.90,-2.90,-2.73,-2.86,7.97,7.97,7.97
54.10,10.87,10.87,2.93,2.93,-2.93,-2.78,-2.91,7.94,7.94,7.94
54.64,10.87,10.87,2.95,2.95,-2.95,-2.82,-2.97,7.92,7.92,7.91
55.18,10.87,10.87,2.98,2.98,-2.98,-2.86,-3.02,7.89,7.89,7.89
55.74,10.86,10.86,3.00,3.00,-3.00,-2.91,-3.08,7.86,7.86,7.86
56.29,10.86,10.85,3.03,3.03,-3.03,-2.95,-3.13,7.83,7.83,7.83
56.86,10.85,10.85,3.05,3.05,-3.05,-2.99,-3.18,7.80,7.80,7.80
57.42,10.84,10.84,3.07,3.07,-3.07,-3.04,-3.23,7.76,7.77,7.77
58.00,10.84,10.83,3.10,3.10,-3.10,-3.08,-3.27,7.74,7.74,7.74
58.58,10.83,10.83,3.13,3.13,-3.12,-3.13,-3.32,7.70,7.70,7.70
59.16,10.82,10.82,3.15,3.15,-3.15,-3.17,-3.36,7.67,7.67,7.67
59.76,10.81,10.81,3.17,3.17,-3.18,-3.22,-3.40,7.63,7.63,7.63
60.35,10.80,10.80,3.20,3.20,-3.20,-3.26,-3.43,7.59,7.59,7.60
60.96,10.79,10.79,3.23,3.23,-3.23,-3.31,-3.47,7.56,7.56,7.56
61.57,10.78,10.78,3.27,3.26,-3.26,-3.35,-3.49,7.52,7.52,7.51
62.18,10.77,10.76,3.30,3.29,-3.29,-3.40,-3.52,7.48,7.47,7.47
62.80,10.75,10.75,3.32,3.32,-3.32,-3.44,-3.54,7.43,7.43,7.43
63.43,10.74,10.74,3.36,3.35,-3.35,-3.49,-3.56,7.39,7.39,7.38
64.07,10.73,10.72,3.39,3.39,-3.38,-3.53,-3.58,7.34,7.34,7.34
64.71,10.71,10.71,3.41,3.42,-3.42,-3.58,-3.59,7.29,7.30,7.30
65.35,10.70,10.70,3.45,3.45,-3.45,-3.62,-3.60,7.25,7.25,7.25
66.01,10.68,10.68,3.47,3.48,-3.48,-3.67,-3.61,7.20,7.20,7.21
66.67,10.67,10.67,3.51,3.51,-3.51,-3.71,-3.62,7.16,7.16,7.16
67.33,10.65,10.65,3.54,3.54,-3.54,-3.76,-3.62,7.11,7.11,7.11
68.01,10.63,10.63,3.57,3.57,-3.57,-3.80,-3.62,7.06,7.06,7.06
68.69,10.61,10.61,3.60,3.60,-3.60,-3.85,-3.62,7.01,7.01,7.01
69.37,10.59,10.59,3.63,3.63,-3.63,-3.89,-3.62,6.96,6.96,6.96
70.07,10.57,10.57,3.65,3.65,-3.65,-3.93,-3.61,6.91,6.91,6.92
70.77,10.55,10.55,3.68,3.68,-3.68,-3.98,-3.61,6.87,6.86,6.86
71.48,10.52,10.52,3.71,3.71,-3.71,-4.02,-3.60,6.81,6.81,6.81
72.19,10.50,10.49,3.75,3.74,-3.74,-4.06,-3.60,6.76,6.75,6.75
72.91,10.47,10.47,3.76,3.77,-3.77,-4.10,-3.59,6.70,6.70,6.71
73.64,10.44,10.44,3.79,3.80,-3.80,-4.15,-3.58,6.64,6.65,6.65
74.38,10.42,10.41,3.83,3.83,-3.83,-4.19,-3.58,6.59,6.59,6.59
75.12,10.39,10.38,3.86,3.85,-3.85,-4.23,-3.58,6.53,6.53,6.53
75.87,10.35,10.35,3.87,3.88,-3.88,-4.27,-3.57,6.47,6.47,6.47
76.63,10.32,10.32,3.91,3.91,-3.91,-4.31,-3.57,6.41,6.41,6.41
77.40,10.29,10.28,3.94,3.94,-3.94,-4.35,-3.57,6.35,6.35,6.35
78.17,10.25,10.25,3.97,3.97,-3.97,-4.38,-3.57,6.28,6.29,6.28
78.95,10.22,10.22,3.99,3.99,-3.99,-4.42,-3.58,6.22,6.22,6.23
79.74,10.18,10.18,4.02,4.02,-4.02,-4.46,-3.58,6.15,6.16,6.16
80.54,10.15,10.14,4.06,4.05,-4.05,-4.50,-3.59,6.09,6.09,6.09
81.35,10.11,10.11,4.08,4.08,-4.08,-4.53,-3.60,6.03,6.03,6.03
82.16,10.07,10.07,4.11,4.11,-4.11,-4.57,-3.61,5.96,5.96,5.96
82.98,10.04,10.03,4.15,4.14,-4.14,-4.60,-3.62,5.90,5.89,5.89
83.81,10.00,10.00,4.17,4.18,-4.17,-4.63,-3.64,5.83,5.82,5.83
84.65,9.96,9.96,4.21,4.20,-4.20,-4.66,-3.66,5.76,5.76,5.75
85.50,9.92,9.92,4.23,4.23,-4.23,-4.69,-3.69,5.69,5.69,5.69
86.35,9.88,9.88,4.26,4.26,-4.26,-4.72,-3.71,5.62,5.62,5.62
87.22,9.84,9.84,4.29,4.29,-4.29,-4.75,-3.74,5.55,5.55,5.55
88.09,9.80,9.80,4.32,4.32,-4.32,-4.78,-3.77,5.48,5.48,5.48
88.97,9.75,9.75,4.35,4.35,-4.35,-4.81,-3.81,5.40,5.41,5.40
89.86,9.71,9.71,4.38,4.37,-4.37,-4.83,-3.84,5.33,5.33,5.33
90.76,9.66,9.66,4.40,4.40,-4.40,-4.86,-3.88,5.26,5.25,5.25
91.66,9.61,9.61,4.42,4.43,-4.43,-4.88,-3.93,5.18,5.18,5.18
92.58,9.56,9.56,4.45,4.46,-4.46,-4.90,-3.97,5.10,5.10,5.10
93.51,9.52,9.52,4.50,4.49,-4.49,-4.92,-4.02,5.03,5.02,5.02
94.44,9.47,9.47,4.53,4.53,-4.52,-4.94,-4.07,4.95,4.94,4.94
95.39,9.42,9.42,4.56,4.56,-4.56,-4.96,-4.13,4.86,4.86,4.86
96.34,9.36,9.36,4.58,4.59,-4.59,-4.98,-4.18,4.77,4.77,4.78
97.30,9.31,9.31,4.61,4.62,-4.62,-5.00,-4.24,4.69,4.69,4.69
98.28,9.26,9.25,4.66,4.65,-4.65,-5.01,-4.30,4.61,4.60,4.60
99.26,9.20,9.20,4.68,4.69,-4.68,-5.02,-4.37,4.51,4.52,4.52
100.25,9.15,9.15,4.72,4.72,-4.72,-5.04,-4.43,4.43,4.43,4.43
101.25,9.09,9.09,4.75,4.75,-4.75,-5.05,-4.50,4.34,4.34,4.34
102.27,9.03,9.03,4.77,4.78,-4.77,-5.05,-4.56,4.25,4.26,4.25
103.29,8.97,8.97,4.80,4.80,-4.80,-5.06,-4.63,4.17,4.17,4.17
104.32,8.91,8.91,4.82,4.82,-4.83,-5.07,-4.70,4.08,4.08,4.08
105.37,8.85,8.85,4.85,4.85,-4.85,-5.07,-4.77,4.00,4.00,4.00
106.42,8.79,8.78,4.87,4.87,-4.87,-5.08,-4.84,3.92,3.92,3.92
107.48,8.72,8.72,4.89,4.89,-4.89,-5.08,-4.91,3.83,3.83,3.83
108.56,8.65,8.65,4.90,4.90,-4.90,-5.08,-4.97,3.75,3.75,3.75
109.64,8.59,8.58,4.92,4.92,-4.92,-5.08,-5.04,3.67,3.67,3.67
110.74,8.52,8.52,4.93,4.93,-4.93,-5.08,-5.10,3.59,3.59,3.59
111.85,8.45,8.45,4.94,4.94,-4.94,-5.08,-5.16,3.51,3.51,3.50
112.97,8.38,8.38,4.96,4.95,-4.95,-5.07,-5.21,3.43,3.42,3.42
114.10,8.30,8.30,4.96,4.97,-4.96,-5.07,-5.27,3.33,3.34,3.34
115.24,8.23,8.23,4.97,4.97,-4.98,-5.06,-5.31,3.25,3.25,3.26
116.39,8.15,8.15,4.99,4.98,-4.99,-5.06,-5.36,3.16,3.16,3.16
117.55,8.07,8.07,4.99,4.99,-5.00,-5.05,-5.39,3.07,3.08,3.08
118.73,8.00,8.00,5.01,5.01,-5.01,-5.04,-5.43,2.99,2.99,2.99
119.92,7.92,7.92,5.02,5.02,-5.02,-5.03,-5.45,2.90,2.90,2.90
121.12,7.84,7.84,5.03,5.03,-5.02,-5.01,-5.47,2.81,2.81,2.81
122.33,7.75,7.75,5.03,5.03,-5.03,-5.00,-5.48,2.72,2.72,2.72
123.55,7.67,7.67,5.04,5.04,-5.04,-4.99,-5.48,2.63,2.63,2.63
124.79,7.59,7.58,5.05,5.04,-5.04,-4.97,-5.47,2.54,2.54,2.54
126.03,7.50,7.50,5.04,5.05,-5.05,-4.96,-5.46,2.45,2.45,2.46
127.29,7.41,7.41,5.05,5.05,-5.05,-4.94,-5.44,2.36,2.36,2.36
128.57,7.32,7.32,5.04,5.04,-5.04,-4.92,-5.42,2.27,2.27,2.27
129.85,7.23,7.23,5.04,5.04,-5.04,-4.90,-5.38,2.19,2.19,2.19
131.15,7.14,7.14,5.03,5.03,-5.03,-4.89,-5.34,2.11,2.11,2.11
132.46,7.05,7.05,5.03,5.02,-5.02,-4.87,-5.29,2.03,2.03,2.02
133.79,6.95,6.95,5.00,5.00,-5.00,-4.84,-5.24,1.95,1.95,1.95
135.12,6.86,6.86,4.99,4.98,-4.98,-4.82,-5.17,1.88,1.87,1.87
136.48,6.76,6.76,4.96,4.96,-4.96,-4.80,-5.11,1.80,1.80,1.80
137.84,6.67,6.67,4.94,4.94,-4.93,-4.78,-5.03,1.73,1.73,1.73
139.22,6.57,6.57,4.90,4.90,-4.91,-4.75,-4.96,1.66,1.66,1.66
140.61,6.47,6.47,4.87,4.87,-4.87,-4.73,-4.88,1.59,1.60,1.60
142.02,6.37,6.37,4.84,4.84,-4.84,-4.70,-4.80,1.53,1.53,1.53
143.44,6.28,6.27,4.81,4.81,-4.81,-4.68,-4.71,1.47,1.47,1.47
144.87,6.18,6.17,4.77,4.77,-4.77,-4.65,-4.62,1.41,1.41,1.40
146.32,6.07,6.07,4.73,4.73,-4.73,-4.62,-4.53,1.34,1.34,1.34
147.78,5.97,5.97,4.69,4.69,-4.69,-4.60,-4.44,1.28,1.28,1.28
149.26,5.87,5.87,4.65,4.65,-4.65,-4.56,-4.35,1.22,1.22,1.22
150.75,5.77,5.77,4.61,4.61,-4.61,-4.53,-4.26,1.16,1.16,1.16
152.26,5.67,5.67,4.56,4.56,-4.56,-4.50,-4.17,1.10,1.10,1.10
153.78,5.57,5.57,4.52,4.52,-4.52,-4.47,-4.08,1.05,1.05,1.05
155.32,5.47,5.47,4.48,4.48,-4.48,-4.43,-3.98,0.99,0.99,0.99
156.88,5.37,5.37,4.43,4.43,-4.43,-4.39,-3.89,0.94,0.94,0.94
158.44,5.27,5.27,4.38,4.38,-4.39,-4.35,-3.81,0.88,0.88,0.88
160.03,5.17,5.16,4.34,4.34,-4.34,-4.31,-3.72,0.83,0.83,0.83
161.63,5.06,5.06,4.29,4.29,-4.29,-4.27,-3.63,0.77,0.77,0.77
163.24,4.96,4.96,4.24,4.24,-4.24,-4.22,-3.55,0.72,0.72,0.71
164.88,4.86,4.85,4.19,4.19,-4.19,-4.18,-3.46,0.67,0.67,0.66
166.53,4.75,4.75,4.13,4.14,-4.13,-4.13,-3.38,0.61,0.62,0.62
168.19,4.65,4.65,4.08,4.08,-4.08,-4.07,-3.31,0.57,0.57,0.57
169.87,4.55,4.54,4.02,4.02,-4.02,-4.02,-3.23,0.52,0.52,0.53
171.57,4.44,4.44,3.97,3.97,-3.97,-3.96,-3.15,0.47,0.48,0.47
173.29,4.34,4.34,3.91,3.91,-3.91,-3.90,-3.08,0.43,0.43,0.43
175.02,4.24,4.23,3.85,3.85,-3.85,-3.84,-3.01,0.39,0.39,0.39
176.77,4.13,4.13,3.78,3.78,-3.78,-3.78,-2.95,0.34,0.35,0.35
178.54,4.03,4.03,3.72,3.72,-3.72,-3.71,-2.88,0.31,0.31,0.31
180.32,3.93,3.92,3.66,3.65,-3.65,-3.65,-2.82,0.27,0.27,0.27
182.13,3.82,3.82,3.59,3.59,-3.59,-3.58,-2.76,0.23,0.23,0.23
183.95,3.72,3.72,3.52,3.52,-3.52,-3.51,-2.70,0.20,0.20,0.20
185.79,3.61,3.61,3.45,3.45,-3.45,-3.44,-2.64,0.16,0.16,0.16
187.65,3.51,3.51,3.38,3.38,-3.38,-3.37,-2.59,0.13,0.12,0.13
189.52,3.40,3.40,3.30,3.31,-3.31,-3.29,-2.54,0.09,0.09,0.09
191.42,3.30,3.30,3.25,3.24,-3.24,-3.22,-2.49,0.06,0.06,0.05
193.33,3.19,3.19,3.17,3.17,-3.17,-3.14,-2.44,0.02,0.02,0.02
195.27,3.09,3.09,3.10,3.10,-3.10,-3.07,-2.39,-0.01,-0.01,-0.01
197.22,2.98,2.98,3.02,3.02,-3.02,-2.99,-2.35,-0.04,-0.04,-0.04
199.19,2.88,2.88,2.95,2.95,-2.95,-2.91,-2.31,-0.07,-0.07,-0.07
201.18,2.77,2.77,2.87,2.87,-2.87,-2.83,-2.27,-0.10,-0.10,-0.10
203.19,2.67,2.67,2.79,2.79,-2.79,-2.76,-2.23,-0.12,-0.12,-0.12
205.23,2.56,2.56,2.71,2.71,-2.71,-2.68,-2.19,-0.15,-0.15,-0.15
207.28,2.45,2.45,2.62,2.62,-2.63,-2.60,-2.15,-0.18,-0.18,-0.18
209.35,2.34,2.34,2.54,2.54,-2.54,-2.52,-2.11,-0.20,-0.20,-0.20
211.44,2.23,2.23,2.45,2.46,-2.46,-2.44,-2.08,-0.23,-0.23,-0.22
213.56,2.12,2.12,2.38,2.37,-2.37,-2.36,-2.05,-0.25,-0.26,-0.26
215.69,2.01,2.01,2.29,2.29,-2.29,-2.27,-2.01,-0.28,-0.28,-0.28
217.85,1.90,1.90,2.20,2.20,-2.20,-2.19,-1.98,-0.30,-0.30,-0.30
220.03,1.79,1.79,2.11,2.11,-2.11,-2.11,-1.95,-0.32,-0.32,-0.32
222.23,1.68,1.68,2.02,2.02,-2.02,-2.03,-1.92,-0.34,-0.34,-0.34
224.45,1.57,1.57,1.93,1.93,-1.93,-1.94,-1.88,-0.36,-0.36,-0.36
226.70,1.46,1.46,1.84,1.84,-1.84,-1.86,-1.85,-0.38,-0.38,-0.38
228.96,1.35,1.34,1.75,1.74,-1.75,-1.77,-1.82,-0.40,-0.40,-0.40
231.25,1.23,1.23,1.65,1.65,-1.65,-1.69,-1.79,-0.43,-0.42,-0.42
233.57,1.12,1.12,1.55,1.56,-1.56,-1.60,-1.76,-0.45,-0.45,-0.44
235.90,1.01,1.01,1.48,1.47,-1.47,-1.52,-1.72,-0.47,-0.47,-0.47
238.26,0.90,0.90,1.39,1.39,-1.39,-1.43,-1.69,-0.49,-0.49,-0.49
240.64,0.80,0.79,1.30,1.30,-1.30,-1.34,-1.66,-0.50,-0.50,-0.50
243.05,0.69,0.69,1.21,1.21,-1.21,-1.26,-1.62,-0.52,-0.52,-0.52
245.48,0.60,0.59,1.13,1.13,-1.13,-1.17,-1.58,-0.53,-0.53,-0.53
247.93,0.50,0.50,1.05,1.04,-1.04,-1.08,-1.55,-0.55,-0.55,-0.55
250.41,0.40,0.40,0.96,0.96,-0.96,-1.00,-1.51,-0.56,-0.56,-0.56
252.92,0.31,0.31,0.88,0.88,-0.88,-0.92,-1.47,-0.57,-0.57,-0.57
255.45,0.22,0.22,0.80,0.80,-0.80,-0.84,-1.43,-0.58,-0.59,-0.59
258.00,0.13,0.13,0.73,0.73,-0.73,-0.76,-1.39,-0.60,-0.60,-0.60
260.58,0.04,0.04,0.65,0.65,-0.66,-0.68,-1.34,-0.62,-0.61,-0.61
263.19,-0.04,-0.04,0.59,0.58,-0.59,-0.61,-1.30,-0.63,-0.63,-0.63
265.82,-0.12,-0.12,0.52,0.52,-0.52,-0.54,-1.25,-0.64,-0.64,-0.64
268.48,-0.20,-0.20,0.45,0.46,-0.46,-0.47,-1.21,-0.66,-0.66,-0.65
271.16,-0.27,-0.27,0.40,0.40,-0.40,-0.41,-1.16,-0.67,-0.67,-0.67
273.87,-0.34,-0.34,0.34,0.34,-0.34,-0.35,-1.11,-0.68,-0.68,-0.68
276.61,-0.41,-0.41,0.29,0.29,-0.29,-0.30,-1.06,-0.70,-0.70,-0.70
279.38,-0.48,-0.48,0.23,0.24,-0.23,-0.25,-1.01,-0.71,-0.71,-0.71
282.17,-0.54,-0.54,0.19,0.18,-0.18,-0.21,-0.96,-0.72,-0.72,-0.73
284.99,-0.60,-0.60,0.13,0.13,-0.13,-0.17,-0.91,-0.73,-0.73,-0.73
287.84,-0.66,-0.66,0.08,0.08,-0.08,-0.13,-0.85,-0.74,-0.74,-0.74
290.72,-0.71,-0.72,0.04,0.04,-0.04,-0.09,-0.80,-0.75,-0.75,-0.76
293.63,-0.77,-0.77,-0.01,-0.01,0.01,-0.06,-0.75,-0.76,-0.76,-0.76
296.57,-0.82,-0.82,-0.05,-0.05,0.05,-0.03,-0.69,-0.77,-0.77,-0.77
299.53,-0.86,-0.87,-0.09,-0.09,0.09,-0.01,-0.64,-0.77,-0.78,-0.77
302.53,-0.91,-0.91,-0.13,-0.13,0.13,0.02,-0.58,-0.78,-0.78,-0.78
305.55,-0.95,-0.95,-0.17,-0.17,0.17,0.05,-0.52,-0.79,-0.79,-0.78
308.61,-0.99,-0.99,-0.19,-0.20,0.20,0.07,-0.47,-0.79,-0.79,-0.80
311.69,-1.03,-1.03,-0.24,-0.23,0.24,0.10,-0.41,-0.80,-0.80,-0.79
314.81,-1.07,-1.07,-0.26,-0.27,0.27,0.13,-0.35,-0.80,-0.80,-0.81
317.96,-1.11,-1.11,-0.31,-0.30,0.30,0.15,-0.30,-0.81,-0.81,-0.81
321.14,-1.15,-1.15,-0.34,-0.34,0.34,0.18,-0.24,-0.81,-0.81,-0.81
324.35,-1.18,-1.19,-0.37,-0.37,0.37,0.21,-0.18,-0.81,-0.81,-0.82
327.59,-1.22,-1.22,-0.41,-0.40,0.40,0.24,-0.12,-0.82,-0.82,-0.81
330.87,-1.25,-1.25,-0.44,-0.44,0.43,0.27,-0.06,-0.82,-0.82,-0.82
334.18,-1.28,-1.29,-0.46,-0.47,0.46,0.30,-0.00,-0.82,-0.82,-0.82
337.52,-1.32,-1.32,-0.50,-0.49,0.49,0.33,0.06,-0.83,-0.82,-0.83
340.90,-1.35,-1.35,-0.52,-0.52,0.52,0.36,0.12,-0.83,-0.82,-0.83
344.30,-1.37,-1.38,-0.55,-0.55,0.55,0.40,0.18,-0.82,-0.83,-0.82
347.75,-1.40,-1.40,-0.58,-0.58,0.58,0.43,0.24,-0.82,-0.82,-0.82
351.23,-1.43,-1.43,-0.60,-0.61,0.60,0.47,0.30,-0.83,-0.82,-0.83
354.74,-1.45,-1.45,-0.64,-0.63,0.63,0.51,0.36,-0.82,-0.82,-0.82
358.28,-1.48,-1.48,-0.65,-0.65,0.66,0.55,0.42,-0.83,-0.82,-0.83
361.87,-1.50,-1.50,-0.68,-0.68,0.68,0.59,0.48,-0.82,-0.82,-0.82
365.49,-1.53,-1.53,-0.70,-0.70,0.70,0.63,0.54,-0.83,-0.83,-0.83
369.14,-1.55,-1.55,-0.72,-0.73,0.73,0.67,0.60,-0.82,-0.83,-0.83
372.83,-1.58,-1.58,-0.76,-0.75,0.75,0.71,0.67,-0.83,-0.83,-0.82
376.56,-1.60,-1.60,-0.78,-0.78,0.77,0.76,0.73,-0.83,-0.83,-0.83
380.33,-1.63,-1.63,-0.80,-0.80,0.80,0.80,0.79,-0.83,-0.83,-0.83
384.13,-1.65,-1.65,-0.81,-0.82,0.82,0.85,0.86,-0.83,-0.83,-0.84
387.97,-1.68,-1.68,-0.85,-0.84,0.85,0.89,0.92,-0.83,-0.83,-0.83
391.85,-1.70,-1.71,-0.87,-0.87,0.87,0.94,0.98,-0.83,-0.83,-0.83
395.77,-1.73,-1.73,-0.90,-0.90,0.90,0.99,1.05,-0.83,-0.83,-0.83
399.73,-1.76,-1.76,-0.93,-0.93,0.92,1.04,1.11,-0.84,-0.83,-0.83
403.72,-1.78,-1.79,-0.95,-0.95,0.95,1.09,1.17,-0.83,-0.83,-0.83
407.76,-1.81,-1.81,-0.97,-0.98,0.98,1.14,1.24,-0.83,-0.83,-0.84
411.84,-1.84,-1.84,-1.00,-1.00,1.01,1.19,1.30,-0.84,-0.83,-0.84
415.96,-1.87,-1.87,-1.04,-1.03,1.03,1.24,1.36,-0.84,-0.84,-0.83
420.12,-1.90,-1.90,-1.06,-1.06,1.06,1.29,1.42,-0.84,-0.84,-0.84
424.32,-1.93,-1.93,-1.09,-1.09,1.08,1.34,1.48,-0.85,-0.85,-0.85
428.56,-1.96,-1.96,-1.11,-1.11,1.11,1.39,1.54,-0.85,-0.85,-0.85
432.85,-1.99,-1.99,-1.14,-1.14,1.14,1.44,1.60,-0.85,-0.85,-0.85
437.18,-2.02,-2.02,-1.16,-1.16,1.17,1.49,1.66,-0.85,-0.85,-0.86
441.55,-2.05,-2.06,-1.19,-1.19,1.20,1.55,1.71,-0.85,-0.86,-0.86
445.96,-2.09,-2.09,-1.23,-1.23,1.23,1.60,1.77,-0.86,-0.86,-0.86
450.42,-2.12,-2.12,-1.27,-1.26,1.26,1.65,1.82,-0.86,-0.86,-0.86
454.93,-2.15,-2.16,-1.29,-1.30,1.29,1.70,1.87,-0.86,-0.87,-0.86
459.48,-2.19,-2.19,-1.33,-1.33,1.32,1.76,1.92,-0.87,-0.87,-0.86
464.07,-2.22,-2.22,-1.35,-1.35,1.35,1.81,1.96,-0.87,-0.87,-0.87
468.71,-2.25,-2.26,-1.38,-1.38,1.39,1.86,2.00,-0.86,-0.87,-0.87
473.40,-2.29,-2.29,-1.42,-1.41,1.42,1.91,2.04,-0.87,-0.87,-0.87
478.13,-2.32,-2.32,-1.45,-1.45,1.45,1.97,2.08,-0.87,-0.87,-0.87
482.91,-2.36,-2.36,-1.49,-1.49,1.49,2.02,2.11,-0.87,-0.87,-0.88
487.74,-2.39,-2.40,-1.53,-1.53,1.52,2.07,2.14,-0.87,-0.87,-0.87
492.62,-2.43,-2.43,-1.56,-1.56,1.56,2.12,2.16,-0.87,-0.87,-0.87
497.55,-2.47,-2.47,-1.60,-1.60,1.60,2.17,2.18,-0.87,-0.87,-0.87
