frequency,raw
20,7.12
21,7.23
22,7.32
23,7.41
24,7.50
25,7.59
26,7.67
27,7.75
28,7.80
29,7.84
30,7.88
31,7.93
32,7.95
33,7.97
34,7.97
35,7.97
36,7.99
37,8.01
38,8.01
39,8.01
40,8.01
41,8.01
42,8.01
43,8.01
44,7.97
45,7.97
46,7.97
47,7.93
48,7.93
49,7.88
50,7.88
51,7.84
52,7.84
53,7.80
54,7.79
55,7.75
56,7.75
57,7.71
58,7.71
59,7.69
60,7.67
61,7.67
62,7.65
63,7.62
64,7.62
65,7.58
66,7.56
67,7.54
68,7.51
69,7.49
70,7.45
71,7.41
72,7.36
73,7.31
74,7.24
75,7.19
76,7.14
77,7.10
78,7.06
79,7.03
80,7.02
81,6.97
82,6.97
83,6.93
84,6.91
85,6.89
86,6.84
87,6.81
88,6.80
89,6.76
90,6.71
91,6.69
92,6.65
93,6.62
94,6.58
95,6.53
96,6.50
97,6.46
98,6.43
99,6.40
100,6.37
101,6.32
102,6.29
104,6.23
105,6.21
106,6.16
107,6.13
108,6.08
109,6.06
110,6.02
111,5.98
112,5.95
113,5.91
114,5.89
115,5.84
117,5.77
118,5.73
119,5.69
120,5.64
121,5.60
123,5.52
124,5.48
125,5.43
126,5.41
128,5.35
129,5.31
130,5.27
131,5.25
133,5.17
134,5.14
135,5.10
137,5.04
138,5.00
140,4.91
141,4.87
142,4.84
144,4.78
145,4.74
147,4.66
148,4.63
150,4.57
151,4.52
153,4.44
154,4.39
156,4.35
157,4.31
159,4.24
160,4.18
162,4.13
164,4.05
165,4.03
167,3.96
169,3.91
170,3.88
172,3.84
174,3.81
175,3.80
177,3.77
179,3.74
181,3.72
183,3.68
184,3.68
186,3.64
188,3.60
190,3.56
192,3.51
194,3.46
196,3.41
198,3.35
200,3.31
202,3.27
204,3.22
206,3.18
208,3.12
210,3.05
212,2.99
214,2.91
216,2.82
218,2.76
221,2.63
223,2.58
225,2.53
227,2.49
229,2.47
232,2.42
234,2.42
236,2.42
239,2.47
241,2.47
244,2.47
246,2.47
248,2.47
251,2.42
253,2.41
256,2.37
259,2.33
261,2.29
264,2.25
266,2.25
269,2.25
272,2.25
274,2.25
277,2.25
280,2.21
283,2.19
286,2.16
288,2.13
291,2.09
294,2.05
297,2.01
300,1.95
303,1.89
306,1.84
309,1.79
312,1.71
316,1.66
319,1.61
322,1.55
325,1.49
328,1.45
332,1.37
335,1.32
338,1.30
342,1.23
345,1.19
349,1.15
352,1.11
356,1.06
359,1.01
363,0.97
366,0.93
370,0.89
374,0.84
377,0.80
381,0.76
385,0.73
389,0.68
393,0.64
397,0.59
401,0.56
405,0.52
409,0.48
413,0.45
417,0.40
421,0.37
425,0.33
430,0.29
434,0.26
438,0.21
443,0.18
447,0.15
451,0.11
456,0.07
460,0.05
465,-0.00
470,-0.04
474,-0.05
479,-0.09
484,-0.13
489,-0.14
494,-0.18
499,-0.20
504,-0.22
509,-0.26
514,-0.27
519,-0.31
524,-0.35
529,-0.35
535,-0.39
540,-0.42
545,-0.44
551,-0.48
556,-0.48
562,-0.52
568,-0.53
573,-0.57
579,-0.57
585,-0.61
591,-0.61
596,-0.65
602,-0.65
608,-0.68
615,-0.70
621,-0.71
627,-0.74
633,-0.74
639,-0.76
646,-0.78
652,-0.78
659,-0.78
665,-0.83
672,-0.83
679,-0.83
686,-0.83
692,-0.85
699,-0.87
706,-0.87
713,-0.87
721,-0.87
728,-0.87
735,-0.87
742,-0.87
750,-0.87
757,-0.87
765,-0.87
773,-0.85
780,-0.83
788,-0.83
796,-0.83
804,-0.81
812,-0.78
820,-0.78
828,-0.74
837,-0.74
845,-0.70
853,-0.70
862,-0.65
871,-0.62
879,-0.60
888,-0.57
897,-0.53
906,-0.48
915,-0.45
924,-0.40
933,-0.37
943,-0.32
952,-0.27
962,-0.22
971,-0.17
981,-0.11
991,-0.05
1001,0.01
1011,0.06
1021,0.12
1031,0.18
1041,0.24
1052,0.27
1062,0.30
1073,0.34
1084,0.38
1094,0.41
1105,0.44
1116,0.49
1128,0.55
1139,0.61
1150,0.67
1162,0.73
1173,0.78
1185,0.84
1197,0.92
1209,0.99
1221,1.06
1233,1.15
1246,1.21
1258,1.31
1271,1.38
1283,1.45
1296,1.49
1309,1.53
1322,1.59
1335,1.65
1349,1.69
1362,1.74
1376,1.79
1390,1.82
1404,1.87
1418,1.90
1432,1.93
1446,1.98
1461,2.01
1475,2.04
1490,2.08
1505,2.12
1520,2.15
1535,2.18
1550,2.21
1566,2.24
1582,2.28
1597,2.29
1613,2.33
1629,2.34
1646,2.38
1662,2.38
1679,2.42
1696,2.42
1713,2.43
1730,2.47
1747,2.47
1764,2.47
1782,2.51
1800,2.51
1818,2.51
1836,2.55
1854,2.56
1873,2.59
1892,2.64
1911,2.70
1930,2.79
1949,2.88
1969,2.99
1988,3.09
2008,3.17
2028,3.26
2048,3.31
2069,3.36
2090,3.39
2111,3.42
2132,3.45
2153,3.46
2175,3.47
2196,3.51
2218,3.51
2240,3.51
2263,3.51
2285,3.51
2308,3.51
2331,3.51
2355,3.46
2378,3.46
2402,3.46
2426,3.44
2450,3.42
2475,3.42
2500,3.38
2525,3.38
2550,3.36
2575,3.33
2601,3.33
2627,3.33
2653,3.33
2680,3.33
2707,3.33
2734,3.33
2761,3.33
2789,3.33
2817,3.29
2845,3.29
2873,3.25
2902,3.22
2931,3.17
2960,3.14
2990,3.09
3020,3.06
3050,3.03
3080,2.99
3111,2.95
3142,2.94
3174,2.90
3206,2.90
3238,2.86
3270,2.82
3303,2.81
3336,2.77
3369,2.75
3403,2.73
3437,2.68
3471,2.68
3506,2.66
3541,2.64
3576,2.64
3612,2.63
3648,2.60
3685,2.60
3721,2.56
3759,2.55
3796,2.55
3834,2.53
3873,2.51
3911,2.51
3950,2.53
3990,2.55
4030,2.55
4070,2.56
4111,2.60
4152,2.62
4193,2.65
4235,2.68
4278,2.73
4321,2.76
4364,2.81
4407,2.84
4451,2.90
4496,2.96
4541,3.03
4586,3.09
4632,3.17
4679,3.25
4725,3.33
4773,3.43
4820,3.51
4868,3.62
4917,3.73
4966,3.84
5016,3.99
5066,4.11
5117,4.26
5168,4.41
5220,4.55
5272,4.72
5325,4.89
5378,5.06
5432,5.23
5486,5.41
5541,5.56
5596,5.70
5652,5.89
5709,6.12
5766,6.40
5823,6.70
5882,7.01
5940,7.31
6000,7.60
6060,7.87
6120,8.14
6182,8.40
6244,8.67
6306,8.89
6369,9.12
6433,9.34
6497,9.53
6562,9.69
6628,9.83
6694,9.95
6761,10.02
6828,10.09
6897,10.12
6966,10.14
7035,10.14
7106,10.09
7177,10.09
7249,10.06
7321,10.05
7394,10.01
7468,9.98
7543,9.95
7618,9.90
7694,9.86
7771,9.83
7849,9.78
7928,9.74
8007,9.68
8087,9.60
8168,9.52
8250,9.41
8332,9.27
8415,9.10
8499,8.91
8584,8.70
8670,8.41
8757,8.12
8845,7.77
8933,7.41
9022,6.98
9113,6.54
9204,6.06
9296,5.57
9389,5.04
9483,4.51
9577,3.95
9673,3.36
9770,2.80
9868,2.20
9966,1.64
10066,1.07
10167,0.50
10268,-0.03
10371,-0.57
10475,-1.08
10579,-1.58
10685,-2.07
10792,-2.55
10900,-3.00
11009,-3.44
11119,-3.83
11230,-4.20
11343,-4.56
11456,-4.87
11571,-5.13
11686,-5.37
11803,-5.58
11921,-5.73
12040,-5.86
12161,-5.96
12282,-5.98
12405,-5.97
12529,-5.89
12655,-5.77
12781,-5.62
12909,-5.39
13038,-5.11
13168,-4.76
13300,-4.31
13433,-3.78
13567,-3.16
13703,-2.45
13840,-1.67
13978,-0.80
14118,0.13
14259,1.09
14402,2.05
14546,2.97
14692,3.75
14838,4.37
14987,4.80
15137,4.96
15288,4.69
15441,4.26
15595,3.70
15751,3.06
15909,2.43
16068,1.84
16229,1.31
16391,0.81
16555,0.28
16720,-0.29
16888,-0.96
17056,-1.77
17227,-2.73
17399,-3.78
17573,-4.95
17749,-6.19
17926,-7.44
18106,-8.67
18287,-9.89
18470,-11.06
18654,-12.17
18841,-13.23
19029,-14.25
19220,-15.15
19412,-15.70
19606,-16.15
19802,-16.61
20000,-17.07
