frequency,raw,error,smoothed,error_smoothed,equalization,parametric_eq,equalized_raw,equalized_smoothed,target
20.00,-15.05,-13.98,-15.06,-13.98,6.00,2.78,-9.05,-9.06,-1.07
20.20,-14.90,-13.87,-14.90,-13.87,6.00,2.86,-8.90,-8.90,-1.03
20.40,-14.75,-13.76,-14.75,-13.76,6.00,2.95,-8.75,-8.75,-0.99
20.61,-14.61,-13.66,-14.60,-13.65,6.00,3.03,-8.61,-8.60,-0.95
20.81,-14.45,-13.54,-14.45,-13.54,6.00,3.12,-8.45,-8.45,-0.91
21.02,-14.30,-13.43,-14.30,-13.43,6.00,3.21,-8.30,-8.30,-0.87
21.23,-14.15,-13.32,-14.15,-13.32,6.00,3.31,-8.15,-8.15,-0.83
21.44,-14.00,-13.21,-14.00,-13.21,6.00,3.40,-8.00,-8.00,-0.79
21.66,-13.86,-13.11,-13.85,-13.10,6.00,3.50,-7.86,-7.85,-0.75
21.87,-13.70,-12.99,-13.70,-12.99,6.00,3.61,-7.70,-7.70,-0.71
22.09,-13.55,-12.88,-13.55,-12.88,6.00,3.71,-7.55,-7.55,-0.67
22.31,-13.39,-12.76,-13.40,-12.77,6.00,3.82,-7.39,-7.40,-0.63
22.54,-13.25,-12.66,-13.25,-12.66,6.00,3.93,-7.25,-7.25,-0.59
22.76,-13.09,-12.54,-13.10,-12.54,6.00,4.04,-7.09,-7.10,-0.55
22.99,-12.94,-12.43,-12.95,-12.43,6.00,4.16,-6.94,-6.95,-0.51
23.22,-12.79,-12.32,-12.79,-12.32,6.00,4.28,-6.79,-6.79,-0.47
23.45,-12.64,-12.21,-12.64,-12.21,6.00,4.40,-6.64,-6.64,-0.43
23.69,-12.50,-12.10,-12.49,-12.10,6.00,4.53,-6.50,-6.49,-0.39
23.92,-12.34,-11.99,-12.34,-11.98,6.00,4.66,-6.34,-6.34,-0.36
24.16,-12.19,-11.87,-12.19,-11.87,6.00,4.79,-6.19,-6.19,-0.32
24.40,-12.04,-11.76,-12.04,-11.76,6.00,4.92,-6.04,-6.04,-0.28
24.65,-11.90,-11.65,-11.89,-11.65,6.00,5.05,-5.90,-5.89,-0.24
24.89,-11.73,-11.53,-11.74,-11.53,6.00,5.19,-5.73,-5.74,-0.20
25.14,-11.58,-11.42,-11.59,-11.42,6.00,5.33,-5.58,-5.59,-0.17
25.39,-11.43,-11.30,-11.44,-11.31,6.00,5.47,-5.43,-5.44,-0.13
25.65,-11.28,-11.19,-11.29,-11.20,6.00,5.61,-5.28,-5.29,-0.09
25.91,-11.14,-11.08,-11.14,-11.08,6.00,5.75,-5.14,-5.14,-0.05
26.16,-10.99,-10.97,-10.99,-10.97,6.00,5.89,-4.99,-4.99,-0.02
26.43,-10.85,-10.86,-10.84,-10.86,6.00,6.03,-4.85,-4.84,0.02
26.69,-10.69,-10.75,-10.69,-10.75,6.00,6.17,-4.69,-4.69,0.05
26.96,-10.55,-10.63,-10.55,-10.63,6.00,6.31,-4.55,-4.55,0.09
27.23,-10.41,-10.53,-10.40,-10.52,6.00,6.45,-4.41,-4.40,0.12
27.50,-10.25,-10.41,-10.26,-10.41,6.00,6.58,-4.25,-4.26,0.16
27.77,-10.11,-10.30,-10.11,-10.30,6.00,6.71,-4.11,-4.11,0.19
28.05,-9.96,-10.19,-9.97,-10.19,6.00,6.83,-3.96,-3.97,0.22
28.33,-9.82,-10.08,-9.82,-10.08,6.00,6.95,-3.82,-3.82,0.25
28.62,-9.69,-9.97,-9.68,-9.97,6.00,7.06,-3.69,-3.68,0.29
28.90,-9.54,-9.86,-9.54,-9.86,6.00,7.17,-3.54,-3.54,0.32
29.19,-9.40,-9.75,-9.40,-9.75,6.00,7.26,-3.40,-3.40,0.35
29.48,-9.26,-9.64,-9.26,-9.64,6.00,7.35,-3.26,-3.26,0.38
29.78,-9.13,-9.53,-9.13,-9.54,6.00,7.42,-3.13,-3.13,0.41
30.08,-8.99,-9.43,-8.99,-9.43,6.00,7.49,-2.99,-2.99,0.44
30.38,-8.86,-9.32,-8.86,-9.33,6.00,7.54,-2.86,-2.86,0.47
30.68,-8.72,-9.22,-8.73,-9.22,6.00,7.59,-2.72,-2.73,0.50
30.99,-8.61,-9.13,-8.60,-9.12,6.00,7.61,-2.61,-2.60,0.52
31.30,-8.48,-9.02,-8.47,-9.02,6.00,7.63,-2.48,-2.47,0.55
31.61,-8.34,-8.92,-8.34,-8.91,6.00,7.64,-2.34,-2.34,0.57
31.93,-8.23,-8.82,-8.22,-8.81,6.00,7.63,-2.23,-2.22,0.60
32.24,-8.09,-8.71,-8.09,-8.71,6.00,7.61,-2.09,-2.09,0.62
32.57,-7.97,-8.62,-7.97,-8.61,6.00,7.58,-1.97,-1.97,0.64
32.89,-7.84,-8.51,-7.85,-8.51,6.00,7.53,-1.84,-1.85,0.66
33.22,-7.72,-8.41,-7.73,-8.41,6.00,7.48,-1.72,-1.73,0.68
33.55,-7.60,-8.30,-7.61,-8.31,6.00,7.42,-1.60,-1.61,0.70
33.89,-7.49,-8.21,-7.49,-8.21,6.00,7.35,-1.49,-1.49,0.72
34.23,-7.37,-8.11,-7.38,-8.11,6.00,7.27,-1.37,-1.38,0.74
34.57,-7.25,-8.01,-7.26,-8.01,6.00,7.18,-1.25,-1.26,0.75
34.92,-7.14,-7.91,-7.15,-7.91,6.00,7.09,-1.14,-1.15,0.77
35.27,-7.04,-7.82,-7.04,-7.82,6.00,6.99,-1.04,-1.04,0.78
35.62,-6.92,-7.72,-6.92,-7.72,6.00,6.89,-0.92,-0.92,0.80
35.97,-6.82,-7.63,-6.82,-7.62,6.00,6.78,-0.82,-0.82,0.81
36.33,-6.71,-7.53,-6.71,-7.52,6.00,6.67,-0.71,-0.71,0.82
36.70,-6.61,-7.44,-6.60,-7.43,6.00,6.56,-0.61,-0.60,0.83
37.06,-6.50,-7.34,-6.50,-7.33,6.00,6.45,-0.50,-0.50,0.84
37.43,-6.39,-7.24,-6.39,-7.24,6.00,6.34,-0.39,-0.39,0.84
37.81,-6.28,-7.14,-6.29,-7.14,6.00,6.23,-0.28,-0.29,0.85
38.19,-6.18,-7.04,-6.19,-7.05,6.00,6.12,-0.18,-0.19,0.86
38.57,-6.09,-6.95,-6.09,-6.95,6.00,6.02,-0.09,-0.09,0.86
38.95,-5.99,-6.86,-6.00,-6.86,6.00,5.91,0.01,0.00,0.86
39.34,-5.90,-6.77,-5.90,-6.77,6.00,5.80,0.10,0.10,0.87
39.74,-5.80,-6.67,-5.81,-6.68,6.00,5.70,0.20,0.19,0.87
40.14,-5.71,-6.59,-5.72,-6.59,6.00,5.60,0.29,0.28,0.87
40.54,-5.63,-6.51,-5.63,-6.50,6.00,5.51,0.37,0.37,0.87
40.94,-5.54,-6.42,-5.54,-6.41,6.00,5.41,0.46,0.46,0.87
41.35,-5.46,-6.34,-5.46,-6.33,6.00,5.32,0.54,0.54,0.87
41.76,-5.37,-6.25,-5.37,-6.24,5.99,5.24,0.62,0.62,0.87
42.18,-5.28,-6.16,-5.29,-6.16,5.97,5.15,0.69,0.68,0.87
42.60,-5.20,-6.08,-5.21,-6.08,5.95,5.07,0.75,0.74,0.87
43.03,-5.12,-6.00,-5.13,-6.00,5.91,5.00,0.79,0.79,0.87
43.46,-5.05,-5.92,-5.05,-5.92,5.87,4.93,0.82,0.82,0.87
43.90,-4.97,-5.85,-4.97,-5.84,5.82,4.86,0.84,0.85,0.87
44.33,-4.89,-5.77,-4.90,-5.77,5.76,4.79,0.87,0.86,0.87
44.78,-4.82,-5.70,-4.82,-5.69,5.69,4.73,0.87,0.87,0.87
45.23,-4.74,-5.62,-4.75,-5.62,5.62,4.67,0.87,0.87,0.87
45.68,-4.67,-5.55,-4.67,-5.55,5.55,4.62,0.87,0.87,0.87
46.13,-4.60,-5.48,-4.60,-5.48,5.48,4.57,0.87,0.87,0.87
46.60,-4.52,-5.40,-4.53,-5.41,5.41,4.52,0.88,0.88,0.87
47.06,-4.45,-5.33,-4.46,-5.34,5.34,4.48,0.89,0.88,0.88
47.53,-4.39,-5.27,-4.40,-5.28,5.28,4.44,0.88,0.88,0.88
48.01,-4.33,-5.22,-4.33,-5.21,5.21,4.41,0.88,0.88,0.88
48.49,-4.26,-5.15,-4.26,-5.15,5.15,4.37,0.88,0.89,0.89
48.97,-4.19,-5.08,-4.19,-5.08,5.08,4.34,0.89,0.89,0.89
49.46,-4.12,-5.02,-4.13,-5.02,5.02,4.31,0.90,0.90,0.90
49.96,-4.06,-4.96,-4.06,-4.96,4.96,4.29,0.90,0.90,0.90
50.46,-3.99,-4.90,-3.99,-4.90,4.90,4.26,0.90,0.91,0.91
50.96,-3.93,-4.84,-3.92,-4.83,4.83,4.24,0.90,0.91,0.91
51.47,-3.85,-4.77,-3.86,-4.77,4.77,4.22,0.92,0.91,0.92
51.99,-3.78,-4.70,-3.79,-4.71,4.71,4.21,0.92,0.92,0.92
52.51,-3.71,-4.64,-3.72,-4.64,4.64,4.19,0.93,0.92,0.92
53.03,-3.65,-4.58,-3.65,-4.57,4.57,4.18,0.92,0.93,0.93
53.56,-3.58,-4.51,-3.58,-4.51,4.51,4.16,0.92,0.93,0.93
54.10,-3.51,-4.45,-3.51,-4.44,4.44,4.15,0.92,0.93,0.93
54.64,-3.43,-4.37,-3.44,-4.37,4.37,4.13,0.93,0.93,0.93
55.18,-3.36,-4.30,-3.37,-4.30,4.30,4.12,0.93,0.93,0.93
55.74,-3.29,-4.23,-3.29,-4.22,4.22,4.11,0.93,0.93,0.93
56.29,-3.22,-4.15,-3.22,-4.15,4.15,4.09,0.92,0.93,0.93
56.86,-3.15,-4.08,-3.15,-4.07,4.07,4.07,0.92,0.92,0.93
57.42,-3.07,-3.99,-3.08,-3.99,3.99,4.06,0.92,0.92,0.92
58.00,-3.00,-3.92,-3.01,-3.92,3.92,4.03,0.91,0.91,0.91
58.58,-2.92,-3.83,-2.93,-3.84,3.84,4.01,0.91,0.90,0.91
59.16,-2.85,-3.75,-2.86,-3.76,3.76,3.99,0.91,0.90,0.90
59.76,-2.79,-3.68,-2.79,-3.68,3.68,3.96,0.88,0.89,0.89
60.35,-2.72,-3.60,-2.72,-3.60,3.60,3.93,0.88,0.88,0.88
60.96,-2.65,-3.52,-2.65,-3.52,3.52,3.89,0.86,0.87,0.87
61.57,-2.57,-3.43,-2.58,-3.44,3.44,3.85,0.86,0.86,0.86
62.18,-2.50,-3.35,-2.51,-3.36,3.36,3.81,0.85,0.85,0.85
62.80,-2.44,-3.28,-2.44,-3.28,3.28,3.77,0.84,0.84,0.84
63.43,-2.37,-3.20,-2.37,-3.20,3.20,3.72,0.83,0.83,0.83
64.07,-2.29,-3.12,-2.30,-3.12,3.12,3.66,0.83,0.82,0.82
64.71,-2.22,-3.04,-2.23,-3.04,3.04,3.61,0.82,0.82,0.81
65.35,-2.15,-2.96,-2.16,-2.97,2.97,3.55,0.81,0.81,0.81
66.01,-2.08,-2.88,-2.09,-2.89,2.89,3.48,0.80,0.80,0.80
66.67,-2.01,-2.81,-2.02,-2.81,2.81,3.41,0.80,0.80,0.80
67.33,-1.95,-2.74,-1.95,-2.74,2.74,3.34,0.78,0.79,0.79
68.01,-1.88,-2.67,-1.88,-2.66,2.66,3.27,0.78,0.79,0.79
68.69,-1.80,-2.59,-1.81,-2.59,2.59,3.19,0.79,0.78,0.78
69.37,-1.73,-2.51,-1.74,-2.52,2.52,3.11,0.78,0.78,0.78
70.07,-1.66,-2.44,-1.67,-2.44,2.44,3.03,0.78,0.78,0.78
70.77,-1.60,-2.38,-1.60,-2.37,2.37,2.95,0.77,0.77,0.77
71.48,-1.53,-2.30,-1.53,-2.30,2.30,2.86,0.77,0.77,0.77
72.19,-1.46,-2.23,-1.47,-2.23,2.23,2.78,0.77,0.76,0.77
72.91,-1.40,-2.17,-1.40,-2.16,2.16,2.69,0.76,0.76,0.76
73.64,-1.33,-2.09,-1.34,-2.09,2.09,2.60,0.76,0.76,0.76
74.38,-1.27,-2.03,-1.27,-2.02,2.02,2.51,0.75,0.75,0.76
75.12,-1.20,-1.96,-1.21,-1.96,1.96,2.42,0.75,0.75,0.75
75.87,-1.14,-1.89,-1.14,-1.89,1.89,2.33,0.75,0.75,0.75
76.63,-1.08,-1.83,-1.08,-1.82,1.82,2.23,0.74,0.74,0.75
77.40,-1.02,-1.76,-1.02,-1.76,1.76,2.14,0.74,0.74,0.74
78.17,-0.96,-1.70,-0.96,-1.70,1.70,2.05,0.73,0.74,0.74
78.95,-0.89,-1.63,-0.90,-1.64,1.64,1.96,0.74,0.73,0.73
79.74,-0.84,-1.57,-0.84,-1.58,1.58,1.87,0.73,0.73,0.73
80.54,-0.78,-1.51,-0.79,-1.52,1.52,1.78,0.73,0.73,0.73
81.35,-0.72,-1.45,-0.73,-1.46,1.46,1.69,0.74,0.73,0.73
82.16,-0.67,-1.40,-0.68,-1.41,1.41,1.60,0.74,0.73,0.73
82.98,-0.63,-1.36,-0.62,-1.36,1.36,1.51,0.72,0.73,0.73
83.81,-0.57,-1.30,-0.57,-1.31,1.31,1.42,0.73,0.73,0.73
84.65,-0.52,-1.26,-0.52,-1.26,1.26,1.33,0.73,0.74,0.73
85.50,-0.47,-1.21,-0.47,-1.21,1.21,1.24,0.74,0.74,0.74
86.35,-0.42,-1.16,-0.42,-1.16,1.16,1.16,0.74,0.74,0.74
87.22,-0.37,-1.11,-0.37,-1.12,1.12,1.07,0.74,0.74,0.74
88.09,-0.32,-1.07,-0.33,-1.07,1.07,0.98,0.74,0.74,0.74
88.97,-0.27,-1.02,-0.28,-1.02,1.02,0.90,0.74,0.74,0.74
89.86,-0.23,-0.97,-0.24,-0.97,0.97,0.81,0.73,0.73,0.74
90.76,-0.19,-0.93,-0.19,-0.91,0.91,0.73,0.72,0.72,0.73
91.66,-0.15,-0.88,-0.15,-0.86,0.86,0.65,0.71,0.71,0.73
92.58,-0.10,-0.82,-0.10,-0.80,0.80,0.56,0.70,0.70,0.71
93.51,-0.04,-0.74,-0.05,-0.74,0.74,0.48,0.69,0.68,0.70
94.44,-0.00,-0.68,-0.01,-0.67,0.67,0.40,0.67,0.66,0.68
95.39,0.04,-0.62,0.04,-0.60,0.60,0.32,0.64,0.64,0.65
96.34,0.07,-0.56,0.08,-0.53,0.53,0.24,0.60,0.61,0.62
97.30,0.12,-0.47,0.13,-0.46,0.46,0.16,0.57,0.58,0.59
98.28,0.16,-0.40,0.17,-0.38,0.38,0.08,0.53,0.55,0.56
99.26,0.22,-0.30,0.21,-0.30,0.30,0.01,0.51,0.51,0.52
100.25,0.27,-0.21,0.25,-0.22,0.22,-0.07,0.48,0.47,0.48
101.25,0.31,-0.13,0.30,-0.13,0.13,-0.15,0.44,0.43,0.43
102.27,0.36,-0.03,0.34,-0.05,0.05,-0.22,0.41,0.39,0.39
103.29,0.38,0.03,0.38,0.03,-0.03,-0.30,0.34,0.34,0.34
104.32,0.42,0.12,0.42,0.12,-0.12,-0.37,0.30,0.30,0.30
105.37,0.46,0.20,0.46,0.20,-0.20,-0.44,0.25,0.26,0.26
106.42,0.50,0.28,0.50,0.29,-0.29,-0.51,0.21,0.21,0.21
107.48,0.53,0.36,0.54,0.37,-0.37,-0.58,0.16,0.17,0.17
108.56,0.57,0.44,0.58,0.45,-0.45,-0.65,0.12,0.13,0.13
109.64,0.60,0.50,0.61,0.52,-0.52,-0.71,0.08,0.09,0.09
110.74,0.64,0.58,0.65,0.59,-0.59,-0.78,0.04,0.06,0.06
111.85,0.69,0.66,0.69,0.66,-0.66,-0.84,0.02,0.02,0.02
112.97,0.74,0.74,0.72,0.73,-0.73,-0.90,0.01,-0.01,-0.01
114.10,0.78,0.81,0.75,0.79,-0.79,-0.96,-0.01,-0.03,-0.03
115.24,0.81,0.86,0.79,0.84,-0.84,-1.02,-0.04,-0.05,-0.06
116.39,0.83,0.91,0.82,0.89,-0.89,-1.07,-0.07,-0.07,-0.08
117.55,0.85,0.94,0.85,0.94,-0.94,-1.12,-0.09,-0.09,-0.10
118.73,0.88,0.99,0.87,0.98,-0.98,-1.17,-0.10,-0.11,-0.11
119.92,0.91,1.03,0.90,1.02,-1.02,-1.22,-0.11,-0.12,-0.12
121.12,0.93,1.06,0.92,1.05,-1.05,-1.26,-0.13,-0.13,-0.14
122.33,0.94,1.08,0.94,1.09,-1.09,-1.30,-0.15,-0.14,-0.14
123.55,0.96,1.11,0.96,1.12,-1.12,-1.34,-0.16,-0.15,-0.15
124.79,0.99,1.14,0.98,1.15,-1.15,-1.37,-0.16,-0.16,-0.16
126.03,1.02,1.18,1.00,1.18,-1.18,-1.40,-0.16,-0.17,-0.16
127.29,1.03,1.20,1.03,1.21,-1.21,-1.43,-0.18,-0.18,-0.17
128.57,1.05,1.22,1.05,1.24,-1.24,-1.46,-0.19,-0.19,-0.17
129.85,1.07,1.25,1.08,1.27,-1.27,-1.48,-0.21,-0.19,-0.18
131.15,1.10,1.28,1.11,1.31,-1.31,-1.50,-0.22,-0.20,-0.19
132.46,1.12,1.31,1.14,1.35,-1.35,-1.52,-0.24,-0.21,-0.19
133.79,1.16,1.36,1.18,1.40,-1.40,-1.54,-0.24,-0.22,-0.20
135.12,1.22,1.43,1.21,1.44,-1.44,-1.55,-0.22,-0.23,-0.21
136.48,1.25,1.47,1.25,1.49,-1.49,-1.57,-0.24,-0.24,-0.23
137.84,1.29,1.53,1.29,1.53,-1.53,-1.58,-0.25,-0.25,-0.24
139.22,1.32,1.57,1.32,1.58,-1.58,-1.59,-0.27,-0.26,-0.25
140.61,1.36,1.63,1.35,1.63,-1.63,-1.60,-0.27,-0.28,-0.27
142.02,1.42,1.70,1.38,1.68,-1.68,-1.60,-0.26,-0.29,-0.29
143.44,1.44,1.74,1.41,1.72,-1.72,-1.61,-0.28,-0.31,-0.31
144.87,1.47,1.79,1.44,1.76,-1.76,-1.61,-0.30,-0.33,-0.33
146.32,1.48,1.82,1.46,1.80,-1.80,-1.62,-0.33,-0.35,-0.35
147.78,1.48,1.84,1.47,1.84,-1.84,-1.62,-0.37,-0.37,-0.37
149.26,1.49,1.88,1.49,1.88,-1.88,-1.63,-0.39,-0.39,-0.39
150.75,1.50,1.91,1.50,1.92,-1.92,-1.63,-0.42,-0.42,-0.41
152.26,1.50,1.93,1.51,1.95,-1.95,-1.64,-0.45,-0.44,-0.44
153.78,1.51,1.97,1.52,1.98,-1.98,-1.64,-0.47,-0.46,-0.46
155.32,1.52,2.00,1.52,2.01,-2.01,-1.65,-0.50,-0.49,-0.48
156.88,1.52,2.02,1.53,2.04,-2.04,-1.65,-0.53,-0.51,-0.51
158.44,1.53,2.05,1.54,2.07,-2.07,-1.66,-0.55,-0.54,-0.53
160.03,1.54,2.09,1.54,2.11,-2.11,-1.67,-0.57,-0.56,-0.55
161.63,1.56,2.13,1.55,2.14,-2.14,-1.68,-0.58,-0.58,-0.57
163.24,1.57,2.16,1.57,2.17,-2.17,-1.69,-0.60,-0.60,-0.60
164.88,1.58,2.19,1.58,2.20,-2.20,-1.70,-0.62,-0.62,-0.62
166.53,1.59,2.22,1.59,2.23,-2.23,-1.71,-0.64,-0.64,-0.64
168.19,1.60,2.25,1.60,2.26,-2.26,-1.73,-0.66,-0.66,-0.66
169.87,1.61,2.28,1.61,2.28,-2.28,-1.74,-0.67,-0.67,-0.67
171.57,1.63,2.31,1.62,2.30,-2.30,-1.76,-0.68,-0.68,-0.69
173.29,1.64,2.34,1.63,2.32,-2.32,-1.78,-0.69,-0.70,-0.70
175.02,1.65,2.36,1.63,2.34,-2.34,-1.80,-0.69,-0.71,-0.71
176.77,1.65,2.37,1.64,2.35,-2.35,-1.82,-0.70,-0.71,-0.72
178.54,1.65,2.37,1.64,2.36,-2.36,-1.84,-0.71,-0.72,-0.72
180.32,1.65,2.37,1.64,2.37,-2.37,-1.86,-0.72,-0.72,-0.73
182.13,1.64,2.37,1.64,2.37,-2.37,-1.89,-0.73,-0.73,-0.73
183.95,1.64,2.36,1.64,2.37,-2.37,-1.92,-0.73,-0.73,-0.73
185.79,1.64,2.36,1.64,2.37,-2.37,-1.95,-0.73,-0.73,-0.73
187.65,1.64,2.36,1.64,2.36,-2.36,-1.98,-0.73,-0.72,-0.72
189.52,1.64,2.35,1.64,2.36,-2.36,-2.01,-0.72,-0.72,-0.72
191.42,1.64,2.35,1.64,2.36,-2.36,-2.04,-0.72,-0.72,-0.71
193.33,1.64,2.35,1.64,2.35,-2.35,-2.07,-0.72,-0.71,-0.71
195.27,1.64,2.34,1.64,2.35,-2.35,-2.11,-0.71,-0.71,-0.71
197.22,1.64,2.34,1.64,2.34,-2.34,-2.14,-0.71,-0.71,-0.70
199.19,1.64,2.34,1.64,2.34,-2.34,-2.18,-0.71,-0.71,-0.70
201.18,1.64,2.34,1.64,2.34,-2.34,-2.22,-0.71,-0.71,-0.70
203.19,1.64,2.34,1.64,2.34,-2.34,-2.26,-0.71,-0.71,-0.70
205.23,1.64,2.34,1.64,2.34,-2.34,-2.30,-0.71,-0.71,-0.70
207.28,1.64,2.35,1.64,2.35,-2.35,-2.34,-0.71,-0.71,-0.71
209.35,1.64,2.35,1.64,2.35,-2.35,-2.37,-0.72,-0.72,-0.72
211.44,1.64,2.36,1.64,2.36,-2.36,-2.41,-0.73,-0.73,-0.72
213.56,1.64,2.37,1.64,2.37,-2.37,-2.45,-0.74,-0.74,-0.73
215.69,1.64,2.38,1.64,2.38,-2.38,-2.49,-0.75,-0.75,-0.74
217.85,1.64,2.39,1.63,2.40,-2.40,-2.53,-0.76,-0.76,-0.76
220.03,1.64,2.41,1.63,2.41,-2.41,-2.56,-0.77,-0.78,-0.77
222.23,1.64,2.42,1.64,2.43,-2.43,-2.60,-0.79,-0.79,-0.79
224.45,1.64,2.44,1.64,2.44,-2.44,-2.63,-0.81,-0.81,-0.80
226.70,1.64,2.45,1.64,2.46,-2.46,-2.66,-0.83,-0.82,-0.82
228.96,1.64,2.47,1.64,2.48,-2.48,-2.69,-0.85,-0.84,-0.83
231.25,1.64,2.49,1.65,2.50,-2.50,-2.72,-0.87,-0.86,-0.85
233.57,1.64,2.51,1.65,2.52,-2.52,-2.74,-0.89,-0.87,-0.87
235.90,1.64,2.52,1.65,2.54,-2.54,-2.76,-0.90,-0.89,-0.89
238.26,1.65,2.55,1.65,2.56,-2.56,-2.78,-0.91,-0.90,-0.90
240.64,1.65,2.57,1.65,2.57,-2.57,-2.79,-0.92,-0.92,-0.92
243.05,1.66,2.59,1.65,2.58,-2.58,-2.80,-0.92,-0.93,-0.93
245.48,1.66,2.60,1.64,2.58,-2.58,-2.80,-0.93,-0.94,-0.95
247.93,1.66,2.61,1.63,2.58,-2.58,-2.81,-0.93,-0.95,-0.96
250.41,1.64,2.60,1.62,2.58,-2.58,-2.80,-0.94,-0.96,-0.96
252.92,1.62,2.59,1.60,2.57,-2.57,-2.80,-0.95,-0.97,-0.97
255.45,1.60,2.57,1.58,2.55,-2.55,-2.79,-0.96,-0.97,-0.98
258.00,1.57,2.54,1.56,2.53,-2.53,-2.78,-0.97,-0.98,-0.98
260.58,1.54,2.52,1.53,2.51,-2.51,-2.76,-0.97,-0.98,-0.98
263.19,1.51,2.49,1.50,2.48,-2.48,-2.74,-0.97,-0.98,-0.98
265.82,1.46,2.44,1.47,2.45,-2.45,-2.71,-0.99,-0.98,-0.98
268.48,1.44,2.41,1.44,2.42,-2.42,-2.69,-0.98,-0.98,-0.98
271.16,1.41,2.38,1.41,2.38,-2.38,-2.66,-0.98,-0.98,-0.97
273.87,1.37,2.33,1.38,2.35,-2.35,-2.62,-0.98,-0.97,-0.96
276.61,1.34,2.29,1.36,2.32,-2.32,-2.59,-0.98,-0.96,-0.95
279.38,1.32,2.26,1.34,2.29,-2.29,-2.55,-0.97,-0.95,-0.94
282.17,1.31,2.23,1.32,2.26,-2.26,-2.51,-0.95,-0.94,-0.93
284.99,1.29,2.20,1.31,2.23,-2.23,-2.47,-0.95,-0.92,-0.91
287.84,1.29,2.18,1.30,2.21,-2.21,-2.42,-0.92,-0.91,-0.90
290.72,1.30,2.18,1.30,2.19,-2.19,-2.38,-0.89,-0.89,-0.88
293.63,1.31,2.17,1.30,2.17,-2.17,-2.33,-0.87,-0.87,-0.86
296.57,1.32,2.16,1.30,2.16,-2.16,-2.28,-0.84,-0.86,-0.85
299.53,1.32,2.15,1.30,2.14,-2.14,-2.24,-0.82,-0.84,-0.83
302.53,1.32,2.13,1.30,2.13,-2.13,-2.19,-0.81,-0.82,-0.82
305.55,1.32,2.12,1.31,2.11,-2.11,-2.14,-0.80,-0.81,-0.80
308.61,1.32,2.10,1.31,2.10,-2.10,-2.10,-0.78,-0.79,-0.78
311.69,1.32,2.08,1.32,2.09,-2.09,-2.05,-0.77,-0.77,-0.77
314.81,1.32,2.07,1.32,2.07,-2.07,-2.00,-0.76,-0.75,-0.75
317.96,1.32,2.05,1.32,2.06,-2.06,-1.96,-0.74,-0.73,-0.73
321.14,1.32,2.03,1.33,2.04,-2.04,-1.91,-0.73,-0.72,-0.72
324.35,1.32,2.01,1.33,2.03,-2.03,-1.87,-0.71,-0.70,-0.70
327.59,1.32,1.99,1.33,2.01,-2.01,-1.82,-0.69,-0.68,-0.68
330.87,1.32,1.97,1.33,1.99,-1.99,-1.78,-0.67,-0.66,-0.66
334.18,1.33,1.96,1.33,1.96,-1.96,-1.74,-0.63,-0.63,-0.63
337.52,1.34,1.95,1.33,1.93,-1.93,-1.70,-0.60,-0.61,-0.61
340.90,1.34,1.92,1.32,1.90,-1.90,-1.66,-0.57,-0.58,-0.58
344.30,1.33,1.88,1.31,1.87,-1.87,-1.62,-0.54,-0.56,-0.56
347.75,1.32,1.85,1.30,1.83,-1.83,-1.58,-0.51,-0.53,-0.53
351.23,1.31,1.81,1.28,1.79,-1.79,-1.55,-0.48,-0.50,-0.51
354.74,1.28,1.76,1.26,1.74,-1.74,-1.51,-0.47,-0.48,-0.48
358.28,1.25,1.70,1.24,1.69,-1.69,-1.48,-0.45,-0.46,-0.46
361.87,1.22,1.65,1.21,1.64,-1.64,-1.45,-0.43,-0.43,-0.43
365.49,1.19,1.60,1.18,1.59,-1.59,-1.41,-0.41,-0.41,-0.41
369.14,1.16,1.55,1.15,1.54,-1.54,-1.38,-0.39,-0.39,-0.39
372.83,1.12,1.48,1.12,1.49,-1.49,-1.36,-0.38,-0.37,-0.37
376.56,1.08,1.42,1.09,1.45,-1.45,-1.33,-0.37,-0.36,-0.35
380.33,1.06,1.39,1.06,1.41,-1.41,-1.30,-0.35,-0.34,-0.33
384.13,1.03,1.34,1.04,1.37,-1.37,-1.28,-0.34,-0.33,-0.31
387.97,1.01,1.31,1.02,1.33,-1.33,-1.25,-0.33,-0.32,-0.30
391.85,0.99,1.27,1.00,1.31,-1.31,-1.23,-0.32,-0.31,-0.29
395.77,0.97,1.24,0.99,1.29,-1.29,-1.21,-0.32,-0.30,-0.28
399.73,0.97,1.24,0.98,1.27,-1.27,-1.19,-0.31,-0.29,-0.27
403.72,0.97,1.23,0.98,1.27,-1.27,-1.17,-0.30,-0.29,-0.27
407.76,0.98,1.24,0.98,1.26,-1.26,-1.15,-0.29,-0.28,-0.27
411.84,0.99,1.25,0.98,1.26,-1.26,-1.13,-0.28,-0.28,-0.27
415.96,0.99,1.26,0.99,1.27,-1.27,-1.11,-0.28,-0.28,-0.27
420.12,0.99,1.26,0.99,1.27,-1.27,-1.09,-0.29,-0.28,-0.28
424.32,1.00,1.28,0.99,1.28,-1.28,-1.08,-0.28,-0.29,-0.28
428.56,1.01,1.30,0.99,1.29,-1.29,-1.06,-0.28,-0.29,-0.29
432.85,1.01,1.31,0.99,1.29,-1.29,-1.05,-0.28,-0.30,-0.30
437.18,1.01,1.32,0.99,1.29,-1.29,-1.04,-0.29,-0.30,-0.31
441.55,1.00,1.32,0.98,1.29,-1.29,-1.02,-0.29,-0.31,-0.32
445.96,0.99,1.32,0.97,1.28,-1.28,-1.01,-0.30,-0.32,-0.33
450.42,0.96,1.29,0.95,1.27,-1.27,-1.00,-0.32,-0.33,-0.34
454.93,0.94,1.28,0.93,1.26,-1.26,-0.99,-0.32,-0.33,-0.34
459.48,0.91,1.25,0.90,1.24,-1.24,-0.98,-0.34,-0.34,-0.34
464.07,0.89,1.23,0.87,1.22,-1.22,-0.96,-0.33,-0.35,-0.35
468.71,0.85,1.20,0.84,1.20,-1.20,-0.95,-0.35,-0.35,-0.35
473.40,0.81,1.16,0.81,1.17,-1.17,-0.94,-0.37,-0.36,-0.35
478.13,0.78,1.13,0.78,1.15,-1.15,-0.94,-0.37,-0.36,-0.35
482.91,0.75,1.10,0.75,1.12,-1.12,-0.93,-0.37,-0.37,-0.35
487.74,0.72,1.07,0.73,1.10,-1.10,-0.92,-0.38,-0.37,-0.35
492.62,0.70,1.05,0.71,1.07,-1.07,-0.91,-0.38,-0.36,-0.35
497.55,0.68,1.03,0.69,1.05,-1.05,-0.90,-0.37,-0.36,-0.35
502.52,0.66,1.01,0.68,1.03,-1.03,-0.89,-0.37,-0.36,-0.35
507.55,0.64,0.98,0.66,1.01,-1.01,-0.88,-0.38,-0.35,-0.35
512.62,0.65,0.99,0.66,1.00,-1.00,-0.87,-0.35,-0.34,-0.34
517.75,0.65,0.98,0.65,0.98,-0.98,-0.87,-0.34,-0.33,-0.33
522.93,0.66,0.98,0.65,0.97,-0.97,-0.86,-0.31,-0.32,-0.32
528.16,0.67,0.98,0.65,0.96,-0.96,-0.85,-0.29,-0.31,-0.31
533.44,0.67,0.96,0.65,0.95,-0.95,-0.84,-0.28,-0.30,-0.30
538.77,0.67,0.95,0.66,0.94,-0.94,-0.84,-0.27,-0.28,-0.28
544.16,0.67,0.93,0.66,0.93,-0.93,-0.83,-0.26,-0.26,-0.26
549.60,0.67,0.91,0.67,0.91,-0.91,-0.82,-0.25,-0.25,-0.24
555.10,0.67,0.89,0.67,0.90,-0.90,-0.82,-0.24,-0.23,-0.23
560.65,0.67,0.87,0.68,0.89,-0.89,-0.81,-0.23,-0.22,-0.21
566.25,0.67,0.86,0.68,0.88,-0.88,-0.80,-0.22,-0.20,-0.19
571.92,0.67,0.84,0.68,0.87,-0.87,-0.80,-0.20,-0.19,-0.18
577.64,0.68,0.84,0.68,0.85,-0.85,-0.79,-0.18,-0.17,-0.16
583.41,0.69,0.84,0.68,0.84,-0.84,-0.79,-0.15,-0.16,-0.15
589.25,0.69,0.83,0.67,0.82,-0.82,-0.78,-0.13,-0.15,-0.14
595.14,0.68,0.81,0.66,0.80,-0.80,-0.78,-0.12,-0.14,-0.13
601.09,0.67,0.79,0.65,0.78,-0.78,-0.78,-0.11,-0.13,-0.13
607.10,0.65,0.77,0.63,0.75,-0.75,-0.78,-0.10,-0.12,-0.12
613.17,0.63,0.74,0.61,0.72,-0.72,-0.77,-0.09,-0.11,-0.12
619.30,0.60,0.71,0.59,0.69,-0.69,-0.77,-0.09,-0.10,-0.11
625.50,0.57,0.67,0.56,0.65,-0.65,-0.77,-0.08,-0.09,-0.10
631.75,0.54,0.63,0.53,0.61,-0.61,-0.77,-0.07,-0.08,-0.09
638.07,0.50,0.58,0.50,0.57,-0.57,-0.77,-0.07,-0.07,-0.08
644.45,0.47,0.53,0.47,0.53,-0.53,-0.77,-0.06,-0.06,-0.07
