frequency,raw,error,smoothed,error_smoothed,equalization,parametric_eq,fixed_band_eq,equalized_raw,equalized_smoothed,target
20.00,12.94,7.04,12.94,7.04,-7.04,-6.91,-3.57,5.90,5.90,5.90
20.20,12.97,7.08,12.97,7.08,-7.08,-6.95,-3.66,5.89,5.88,5.89
20.40,12.99,7.11,12.99,7.12,-7.12,-7.00,-3.76,5.87,5.87,5.88
20.61,13.02,7.15,13.02,7.16,-7.16,-7.04,-3.86,5.86,5.86,5.87
20.81,13.05,7.21,13.05,7.20,-7.20,-7.09,-3.97,5.85,5.85,5.84
21.02,13.07,7.24,13.07,7.24,-7.23,-7.13,-4.08,5.84,5.84,5.83
21.23,13.10,7.28,13.10,7.27,-7.27,-7.18,-4.19,5.83,5.83,5.82
21.44,13.12,7.29,13.12,7.30,-7.30,-7.22,-4.30,5.82,5.82,5.83
21.66,13.15,7.34,13.15,7.33,-7.34,-7.26,-4.42,5.81,5.82,5.81
21.87,13.18,7.37,13.18,7.37,-7.37,-7.30,-4.54,5.81,5.81,5.81
22.09,13.20,7.41,13.20,7.40,-7.40,-7.33,-4.66,5.80,5.80,5.79
22.31,13.22,7.43,13.22,7.43,-7.43,-7.37,-4.79,5.79,5.79,5.79
22.54,13.25,7.47,13.25,7.46,-7.46,-7.41,-4.92,5.78,5.78,5.78
22.76,13.27,7.49,13.27,7.49,-7.50,-7.44,-5.05,5.77,5.78,5.78
22.99,13.30,7.53,13.30,7.53,-7.53,-7.48,-5.18,5.77,5.77,5.77
23.22,13.32,7.56,13.32,7.56,-7.56,-7.51,-5.32,5.76,5.77,5.76
23.45,13.35,7.58,13.35,7.59,-7.58,-7.54,-5.47,5.77,5.76,5.77
23.69,13.37,7.61,13.37,7.61,-7.61,-7.57,-5.61,5.76,5.76,5.76
23.92,13.39,7.64,13.39,7.64,-7.63,-7.60,-5.76,5.76,5.76,5.75
24.16,13.41,7.65,13.41,7.66,-7.66,-7.63,-5.91,5.75,5.75,5.76
24.40,13.44,7.68,13.44,7.68,-7.68,-7.65,-6.06,5.76,5.75,5.76
24.65,13.46,7.70,13.46,7.70,-7.71,-7.68,-6.22,5.75,5.75,5.76
24.89,13.48,7.73,13.48,7.73,-7.73,-7.70,-6.38,5.75,5.75,5.76
25.14,13.50,7.76,13.50,7.75,-7.75,-7.73,-6.54,5.75,5.75,5.74
25.39,13.52,7.78,13.52,7.78,-7.77,-7.75,-6.70,5.75,5.75,5.74
25.65,13.54,7.80,13.54,7.79,-7.79,-7.77,-6.87,5.75,5.75,5.74
25.91,13.55,7.81,13.55,7.81,-7.81,-7.79,-7.03,5.74,5.74,5.74
26.16,13.57,7.82,13.57,7.82,-7.83,-7.81,-7.19,5.74,5.74,5.75
26.43,13.59,7.84,13.59,7.84,-7.85,-7.83,-7.36,5.74,5.74,5.75
26.69,13.61,7.86,13.61,7.86,-7.86,-7.85,-7.52,5.75,5.75,5.75
26.96,13.63,7.88,13.63,7.88,-7.88,-7.86,-7.68,5.75,5.75,5.75
27.23,13.64,7.89,13.64,7.90,-7.89,-7.88,-7.84,5.75,5.75,5.75
27.50,13.66,7.91,13.66,7.91,-7.91,-7.89,-8.00,5.75,5.75,5.75
27.77,13.68,7.93,13.68,7.92,-7.92,-7.91,-8.15,5.76,5.76,5.75
28.05,13.69,7.94,13.69,7.93,-7.93,-7.92,-8.30,5.76,5.76,5.75
28.33,13.70,7.94,13.70,7.94,-7.94,-7.93,-8.44,5.76,5.76,5.76
28.62,13.71,7.95,13.71,7.95,-7.95,-7.94,-8.58,5.76,5.76,5.76
28.90,13.73,7.96,13.73,7.96,-7.96,-7.95,-8.71,5.77,5.76,5.77
29.19,13.74,7.97,13.74,7.97,-7.97,-7.96,-8.83,5.77,5.77,5.77
29.48,13.75,7.98,13.75,7.98,-7.98,-7.97,-8.94,5.77,5.77,5.77
29.78,13.76,7.99,13.76,8.00,-8.00,-7.98,-9.04,5.76,5.76,5.77
30.08,13.77,8.01,13.77,8.01,-8.01,-7.99,-9.13,5.76,5.76,5.76
30.38,13.78,8.03,13.78,8.02,-8.02,-8.00,-9.20,5.76,5.76,5.75
30.68,13.78,8.03,13.78,8.03,-8.03,-8.00,-9.27,5.75,5.75,5.75
30.99,13.79,8.04,13.79,8.04,-8.04,-8.01,-9.32,5.75,5.75,5.75
31.30,13.79,8.04,13.79,8.04,-8.05,-8.02,-9.36,5.74,5.74,5.75
31.61,13.79,8.05,13.79,8.05,-8.05,-8.02,-9.39,5.74,5.74,5.74
31.93,13.79,8.07,13.79,8.06,-8.06,-8.03,-9.40,5.73,5.73,5.72
32.24,13.79,8.06,13.79,8.07,-8.06,-8.03,-9.40,5.73,5.73,5.73
32.57,13.79,8.07,13.79,8.07,-8.07,-8.04,-9.39,5.72,5.72,5.72
32.89,13.79,8.07,13.79,8.07,-8.08,-8.04,-9.37,5.71,5.71,5.72
33.22,13.79,8.08,13.79,8.08,-8.08,-8.04,-9.34,5.71,5.71,5.71
33.55,13.79,8.08,13.79,8.08,-8.08,-8.05,-9.30,5.71,5.71,5.71
33.89,13.79,8.09,13.79,8.09,-8.09,-8.05,-9.25,5.70,5.70,5.70
34.23,13.79,8.10,13.79,8.10,-8.09,-8.06,-9.19,5.70,5.70,5.69
34.57,13.78,8.10,13.78,8.10,-8.09,-8.06,-9.13,5.69,5.69,5.68
34.92,13.77,8.10,13.77,8.10,-8.10,-8.06,-9.06,5.67,5.68,5.67
35.27,13.77,8.08,13.77,8.09,-8.10,-8.07,-8.98,5.67,5.67,5.69
35.62,13.77,8.11,13.77,8.10,-8.11,-8.07,-8.91,5.66,5.66,5.66
35.97,13.77,8.11,13.77,8.11,-8.12,-8.07,-8.83,5.65,5.65,5.66
36.33,13.77,8.12,13.77,8.12,-8.12,-8.08,-8.75,5.65,5.64,5.65
36.70,13.76,8.14,13.76,8.14,-8.13,-8.08,-8.67,5.63,5.63,5.62
37.06,13.76,8.15,13.76,8.15,-8.14,-8.08,-8.58,5.62,5.62,5.61
37.43,13.75,8.15,13.75,8.15,-8.15,-8.09,-8.50,5.60,5.60,5.60
37.81,13.74,8.16,13.74,8.16,-8.16,-8.09,-8.42,5.58,5.58,5.58
38.19,13.73,8.17,13.73,8.17,-8.17,-8.10,-8.35,5.56,5.56,5.56
38.57,13.72,8.18,13.72,8.18,-8.18,-8.10,-8.27,5.54,5.54,5.54
38.95,13.71,8.18,13.71,8.18,-8.18,-8.11,-8.20,5.53,5.53,5.53
39.34,13.69,8.19,13.69,8.18,-8.18,-8.11,-8.13,5.51,5.51,5.50
39.74,13.67,8.19,13.67,8.19,-8.19,-8.12,-8.07,5.48,5.48,5.48
40.14,13.65,8.19,13.65,8.19,-8.19,-8.12,-8.01,5.46,5.46,5.47
40.54,13.64,8.19,13.64,8.19,-8.19,-8.13,-7.95,5.45,5.45,5.45
40.94,13.62,8.20,13.62,8.19,-8.19,-8.13,-7.90,5.43,5.43,5.42
41.35,13.60,8.19,13.60,8.19,-8.19,-8.14,-7.86,5.41,5.41,5.41
41.76,13.58,8.20,13.58,8.19,-8.19,-8.14,-7.82,5.39,5.39,5.38
42.18,13.56,8.18,13.56,8.19,-8.20,-8.15,-7.78,5.36,5.37,5.38
42.60,13.55,8.20,13.55,8.20,-8.20,-8.16,-7.75,5.35,5.35,5.35
43.03,13.54,8.21,13.54,8.20,-8.20,-8.16,-7.73,5.34,5.33,5.33
43.46,13.52,8.21,13.52,8.21,-8.21,-8.17,-7.71,5.31,5.31,5.31
43.90,13.50,8.21,13.50,8.22,-8.21,-8.18,-7.69,5.29,5.29,5.29
44.33,13.49,8.23,13.49,8.22,-8.22,-8.19,-7.68,5.27,5.27,5.26
44.78,13.47,8.22,13.47,8.22,-8.23,-8.19,-7.68,5.24,5.24,5.25
45.23,13.45,8.22,13.45,8.23,-8.24,-8.20,-7.69,5.21,5.22,5.23
45.68,13.44,8.25,13.44,8.24,-8.25,-8.21,-7.69,5.19,5.19,5.19
46.13,13.42,8.26,13.42,8.26,-8.26,-8.22,-7.71,5.16,5.16,5.16
46.60,13.40,8.27,13.40,8.27,-8.27,-8.23,-7.73,5.13,5.13,5.13
47.06,13.38,8.28,13.38,8.28,-8.28,-8.24,-7.75,5.10,5.10,5.10
47.53,13.35,8.28,13.35,8.29,-8.29,-8.24,-7.78,5.06,5.07,5.07
48.01,13.33,8.31,13.33,8.30,-8.30,-8.25,-7.82,5.03,5.03,5.02
48.49,13.30,8.31,13.30,8.30,-8.30,-8.26,-7.86,5.00,4.99,4.99
48.97,13.26,8.31,13.26,8.31,-8.31,-8.27,-7.90,4.95,4.96,4.95
49.46,13.23,8.31,13.23,8.31,-8.31,-8.28,-7.95,4.92,4.92,4.92
49.96,13.19,8.32,13.19,8.31,-8.31,-8.29,-8.00,4.88,4.88,4.87
50.46,13.16,8.31,13.16,8.31,-8.31,-8.30,-8.06,4.85,4.84,4.85
50.96,13.12,8.30,13.12,8.31,-8.31,-8.31,-8.12,4.81,4.81,4.82
51.47,13.09,8.31,13.09,8.31,-8.31,-8.32,-8.19,4.78,4.78,4.78
51.99,13.06,8.32,13.06,8.31,-8.31,-8.33,-8.25,4.75,4.75,4.74
52.51,13.03,8.31,13.03,8.31,-8.31,-8.33,-8.32,4.72,4.72,4.72
53.03,13.00,8.31,13.00,8.31,-8.32,-8.34,-8.39,4.68,4.68,4.69
53.56,12.97,8.31,12.97,8.31,-8.32,-8.35,-8.46,4.65,4.65,4.66
54.10,12.94,8.33,12.94,8.32,-8.32,-8.36,-8.53,4.62,4.62,4.61
54.64,12.91,8.32,12.91,8.33,-8.32,-8.37,-8.60,4.59,4.59,4.59
55.18,12.88,8.33,12.88,8.33,-8.33,-8.37,-8.67,4.55,4.55,4.55
55.74,12.85,8.34,12.85,8.33,-8.33,-8.38,-8.74,4.52,4.52,4.51
56.29,12.82,8.32,12.82,8.33,-8.32,-8.39,-8.80,4.50,4.49,4.50
56.86,12.79,8.32,12.79,8.32,-8.32,-8.39,-8.86,4.47,4.47,4.47
57.42,12.75,8.32,12.75,8.32,-8.31,-8.40,-8.92,4.44,4.44,4.43
58.00,12.72,8.32,12.72,8.31,-8.31,-8.40,-8.97,4.41,4.41,4.40
58.58,12.69,8.31,12.69,8.30,-8.30,-8.41,-9.02,4.39,4.38,4.38
59.16,12.65,8.29,12.65,8.29,-8.30,-8.41,-9.06,4.35,4.35,4.36
59.76,12.61,8.28,12.61,8.28,-8.30,-8.41,-9.09,4.31,4.31,4.33
60.35,12.58,8.29,12.58,8.29,-8.30,-8.42,-9.11,4.28,4.28,4.29
60.96,12.54,8.29,12.54,8.30,-8.31,-8.42,-9.13,4.23,4.24,4.25
61.57,12.51,8.31,12.51,8.31,-8.31,-8.42,-9.13,4.20,4.20,4.20
62.18,12.48,8.33,12.48,8.33,-8.31,-8.42,-9.13,4.17,4.16,4.15
62.80,12.44,8.33,12.44,8.34,-8.32,-8.42,-9.12,4.12,4.12,4.11
63.43,12.40,8.34,12.40,8.33,-8.32,-8.42,-9.10,4.08,4.07,4.06
64.07,12.35,8.32,12.35,8.32,-8.32,-8.41,-9.07,4.03,4.03,4.03
64.71,12.30,8.31,12.30,8.32,-8.32,-8.41,-9.02,3.98,3.98,3.99
65.35,12.26,8.31,12.26,8.31,-8.32,-8.40,-8.98,3.94,3.94,3.95
66.01,12.22,8.31,12.22,8.30,-8.31,-8.40,-8.92,3.91,3.91,3.91
66.67,12.18,8.29,12.18,8.30,-8.30,-8.39,-8.85,3.88,3.88,3.89
67.33,12.14,8.30,12.14,8.30,-8.29,-8.38,-8.78,3.85,3.85,3.84
68.01,12.09,8.29,12.09,8.28,-8.28,-8.37,-8.71,3.81,3.81,3.81
68.69,12.03,8.27,12.03,8.27,-8.27,-8.36,-8.62,3.76,3.76,3.76
69.37,11.98,8.25,11.98,8.25,-8.26,-8.35,-8.54,3.72,3.72,3.73
70.07,11.93,8.24,11.93,8.24,-8.25,-8.34,-8.44,3.68,3.68,3.69
70.77,11.88,8.24,11.88,8.23,-8.24,-8.33,-8.35,3.64,3.64,3.64
71.48,11.84,8.23,11.84,8.23,-8.23,-8.31,-8.25,3.61,3.61,3.61
72.19,11.79,8.23,11.79,8.23,-8.22,-8.29,-8.16,3.57,3.57,3.56
72.91,11.74,8.22,11.73,8.21,-8.20,-8.28,-8.06,3.54,3.53,3.52
73.64,11.67,8.19,11.67,8.19,-8.19,-8.26,-7.96,3.48,3.49,3.48
74.38,11.61,8.17,11.61,8.17,-8.17,-8.24,-7.86,3.44,3.44,3.44
75.12,11.55,8.14,11.55,8.14,-8.15,-8.22,-7.76,3.40,3.40,3.41
75.87,11.50,8.12,11.50,8.12,-8.12,-8.19,-7.67,3.38,3.38,3.38
76.63,11.45,8.11,11.45,8.10,-8.10,-8.17,-7.57,3.35,3.35,3.34
77.40,11.40,8.08,11.39,8.08,-8.07,-8.15,-7.48,3.33,3.32,3.32
78.17,11.34,8.06,11.34,8.05,-8.05,-8.12,-7.39,3.29,3.29,3.28
78.95,11.27,8.00,11.28,8.02,-8.02,-8.09,-7.31,3.25,3.26,3.27
79.74,11.23,8.00,11.23,8.00,-8.00,-8.06,-7.23,3.23,3.23,3.23
80.54,11.18,7.97,11.18,7.97,-7.97,-8.03,-7.15,3.21,3.21,3.21
81.35,11.13,7.96,11.13,7.95,-7.95,-8.00,-7.08,3.18,3.19,3.17
82.16,11.08,7.93,11.07,7.92,-7.92,-7.97,-7.01,3.16,3.15,3.15
82.98,11.00,7.88,11.01,7.89,-7.89,-7.94,-6.94,3.11,3.11,3.12
83.81,10.94,7.85,10.94,7.86,-7.87,-7.91,-6.88,3.07,3.08,3.09
84.65,10.89,7.84,10.89,7.84,-7.84,-7.87,-6.83,3.05,3.05,3.05
85.50,10.84,7.82,10.84,7.82,-7.81,-7.84,-6.78,3.03,3.03,3.02
86.35,10.79,7.80,10.78,7.79,-7.79,-7.80,-6.73,3.00,3.00,2.99
87.22,10.72,7.76,10.72,7.76,-7.76,-7.76,-6.69,2.96,2.96,2.96
88.09,10.65,7.72,10.66,7.73,-7.73,-7.73,-6.66,2.92,2.92,2.93
88.97,10.59,7.69,10.60,7.70,-7.71,-7.69,-6.63,2.88,2.89,2.90
89.86,10.55,7.69,10.54,7.68,-7.68,-7.65,-6.60,2.87,2.86,2.86
90.76,10.49,7.66,10.49,7.66,-7.65,-7.61,-6.58,2.84,2.84,2.83
91.66,10.42,7.63,10.42,7.63,-7.62,-7.57,-6.56,2.80,2.80,2.79
92.58,10.35,7.59,10.35,7.59,-7.59,-7.53,-6.55,2.76,2.76,2.76
93.51,10.28,7.55,10.28,7.56,-7.56,-7.49,-6.54,2.72,2.72,2.73
94.44,10.22,7.53,10.22,7.53,-7.53,-7.45,-6.54,2.69,2.68,2.69
95.39,10.15,7.50,10.15,7.50,-7.50,-7.41,-6.54,2.65,2.65,2.65
96.34,10.08,7.47,10.08,7.47,-7.47,-7.37,-6.55,2.61,2.61,2.61
97.30,10.01,7.44,10.01,7.44,-7.43,-7.32,-6.56,2.58,2.57,2.57
98.28,9.93,7.40,9.94,7.41,-7.40,-7.28,-6.57,2.53,2.54,2.53
99.26,9.86,7.37,9.86,7.37,-7.37,-7.24,-6.59,2.49,2.49,2.49
100.25,9.79,7.34,9.78,7.33,-7.33,-7.20,-6.61,2.46,2.45,2.45
101.25,9.70,7.28,9.71,7.28,-7.30,-7.16,-6.64,2.40,2.41,2.42
102.27,9.63,7.23,9.64,7.25,-7.26,-7.11,-6.67,2.37,2.38,2.40
103.29,9.59,7.23,9.59,7.22,-7.22,-7.07,-6.70,2.37,2.36,2.36
104.32,9.54,7.21,9.53,7.20,-7.19,-7.03,-6.73,2.35,2.34,2.33
105.37,9.46,7.16,9.46,7.16,-7.15,-6.99,-6.76,2.32,2.32,2.30
106.42,9.38,7.11,9.38,7.11,-7.10,-6.95,-6.80,2.28,2.28,2.27
107.48,9.30,7.06,9.30,7.06,-7.06,-6.91,-6.83,2.24,2.24,2.24
108.56,9.22,7.01,9.22,7.01,-7.01,-6.87,-6.87,2.21,2.21,2.21
109.64,9.13,6.95,9.14,6.96,-6.96,-6.83,-6.91,2.17,2.18,2.18
110.74,9.07,6.93,9.06,6.92,-6.92,-6.79,-6.95,2.15,2.14,2.14
111.85,8.98,6.87,8.98,6.87,-6.87,-6.75,-6.98,2.11,2.11,2.11
112.97,8.90,6.82,8.90,6.82,-6.83,-6.71,-7.02,2.07,2.06,2.08
114.10,8.81,6.77,8.82,6.78,-6.79,-6.68,-7.05,2.02,2.02,2.04
115.24,8.74,6.74,8.75,6.75,-6.75,-6.64,-7.08,1.99,2.00,2.00
116.39,8.69,6.73,8.68,6.72,-6.71,-6.60,-7.10,1.98,1.97,1.96
117.55,8.62,6.69,8.61,6.68,-6.66,-6.57,-7.13,1.96,1.95,1.93
118.73,8.51,6.62,8.52,6.62,-6.61,-6.54,-7.15,1.90,1.91,1.89
119.92,8.43,6.56,8.42,6.56,-6.56,-6.50,-7.16,1.87,1.86,1.87
121.12,8.32,6.48,8.34,6.50,-6.50,-6.47,-7.17,1.82,1.83,1.84
122.33,8.26,6.45,8.26,6.44,-6.45,-6.44,-7.18,1.81,1.81,1.81
123.55,8.18,6.39,8.17,6.38,-6.39,-6.41,-7.18,1.79,1.78,1.79
124.79,8.08,6.33,8.08,6.33,-6.33,-6.39,-7.17,1.75,1.75,1.75
126.03,7.97,6.25,7.99,6.27,-6.28,-6.36,-7.16,1.69,1.72,1.72
127.29,7.92,6.23,7.91,6.22,-6.23,-6.34,-7.15,1.69,1.68,1.69
128.57,7.84,6.19,7.83,6.18,-6.18,-6.31,-7.13,1.66,1.65,1.65
129.85,7.76,6.14,7.76,6.14,-6.14,-6.29,-7.10,1.62,1.62,1.62
131.15,7.67,6.09,7.69,6.10,-6.10,-6.27,-7.07,1.57,1.59,1.58
132.46,7.63,6.08,7.61,6.06,-6.06,-6.25,-7.03,1.57,1.55,1.55
133.79,7.55,6.03,7.55,6.03,-6.03,-6.23,-6.99,1.52,1.52,1.52
135.12,7.48,5.99,7.49,6.00,-6.00,-6.22,-6.95,1.48,1.49,1.49
136.48,7.44,5.98,7.43,5.97,-5.98,-6.20,-6.91,1.46,1.45,1.46
137.84,7.37,5.94,7.38,5.95,-5.95,-6.19,-6.86,1.42,1.43,1.43
139.22,7.34,5.95,7.34,5.94,-5.93,-6.18,-6.81,1.41,1.40,1.39
140.61,7.30,5.93,7.29,5.92,-5.92,-6.17,-6.75,1.38,1.37,1.37
142.02,7.24,5.90,7.25,5.91,-5.91,-6.16,-6.70,1.33,1.34,1.34
143.44,7.21,5.89,7.21,5.89,-5.90,-6.16,-6.64,1.31,1.31,1.32
144.87,7.18,5.89,7.18,5.89,-5.90,-6.15,-6.59,1.28,1.28,1.29
146.32,7.17,5.91,7.17,5.90,-5.90,-6.15,-6.53,1.27,1.27,1.26
147.78,7.15,5.90,7.15,5.91,-5.90,-6.15,-6.48,1.25,1.25,1.25
149.26,7.14,5.92,7.14,5.92,-5.91,-6.15,-6.42,1.23,1.22,1.22
150.75,7.12,5.93,7.12,5.93,-5.92,-6.16,-6.37,1.20,1.20,1.19
152.26,7.11,5.94,7.11,5.94,-5.94,-6.16,-6.32,1.17,1.17,1.17
153.78,7.11,5.96,7.10,5.96,-5.96,-6.17,-6.27,1.15,1.14,1.15
155.32,7.10,5.98,7.11,5.98,-5.99,-6.18,-6.23,1.11,1.12,1.12
156.88,7.11,6.01,7.11,6.01,-6.02,-6.20,-6.19,1.09,1.09,1.10
158.44,7.12,6.06,7.12,6.05,-6.05,-6.21,-6.15,1.07,1.07,1.06
160.03,7.13,6.09,7.13,6.09,-6.09,-6.23,-6.11,1.04,1.04,1.04
161.63,7.15,6.14,7.15,6.14,-6.13,-6.25,-6.08,1.02,1.01,1.01
163.24,7.16,6.18,7.16,6.19,-6.18,-6.27,-6.05,0.98,0.98,0.98
164.88,7.19,6.24,7.19,6.24,-6.24,-6.29,-6.03,0.95,0.95,0.95
166.53,7.21,6.30,7.21,6.29,-6.30,-6.32,-6.00,0.91,0.92,0.91
168.19,7.24,6.35,7.24,6.36,-6.36,-6.34,-5.99,0.88,0.88,0.89
169.87,7.28,6.43,7.28,6.42,-6.43,-6.37,-5.98,0.85,0.84,0.85
171.57,7.32,6.50,7.32,6.50,-6.51,-6.40,-5.97,0.81,0.82,0.82
173.29,7.37,6.58,7.37,6.59,-6.59,-6.44,-5.96,0.78,0.79,0.79
175.02,7.44,6.68,7.43,6.67,-6.67,-6.47,-5.96,0.77,0.76,0.76
176.77,7.48,6.76,7.49,6.76,-6.76,-6.51,-5.97,0.72,0.73,0.72
178.54,7.54,6.85,7.53,6.85,-6.84,-6.54,-5.98,0.70,0.69,0.69
180.32,7.58,6.94,7.58,6.93,-6.93,-6.58,-5.99,0.65,0.65,0.65
182.13,7.62,7.00,7.63,7.01,-7.01,-6.62,-6.01,0.61,0.62,0.62
183.95,7.68,7.09,7.67,7.08,-7.08,-6.67,-6.03,0.60,0.59,0.59
185.79,7.71,7.16,7.71,7.15,-7.15,-6.71,-6.06,0.56,0.56,0.55
187.65,7.73,7.21,7.74,7.22,-7.22,-6.75,-6.09,0.51,0.52,0.52
189.52,7.76,7.27,7.76,7.27,-7.28,-6.80,-6.13,0.48,0.48,0.49
191.42,7.78,7.32,7.78,7.32,-7.33,-6.84,-6.17,0.45,0.45,0.46
193.33,7.80,7.37,7.80,7.37,-7.37,-6.88,-6.21,0.43,0.43,0.43
195.27,7.81,7.42,7.81,7.41,-7.41,-6.93,-6.26,0.40,0.40,0.39
197.22,7.80,7.44,7.80,7.44,-7.43,-6.97,-6.31,0.37,0.37,0.36
199.19,7.79,7.45,7.79,7.46,-7.44,-7.01,-6.36,0.35,0.35,0.34
201.18,7.76,7.46,7.76,7.45,-7.44,-7.05,-6.42,0.32,0.32,0.30
203.19,7.73,7.44,7.73,7.44,-7.44,-7.09,-6.47,0.29,0.29,0.29
205.23,7.68,7.41,7.68,7.41,-7.42,-7.13,-6.53,0.26,0.27,0.27
207.28,7.63,7.38,7.63,7.39,-7.39,-7.16,-6.60,0.24,0.24,0.25
209.35,7.58,7.36,7.58,7.35,-7.35,-7.20,-6.66,0.23,0.22,0.22
211.44,7.52,7.32,7.52,7.32,-7.32,-7.22,-6.72,0.20,0.20,0.20
213.56,7.46,7.27,7.46,7.28,-7.28,-7.25,-6.79,0.18,0.18,0.19
215.69,7.40,7.24,7.40,7.23,-7.24,-7.27,-6.85,0.16,0.15,0.16
217.85,7.33,7.19,7.34,7.20,-7.20,-7.29,-6.91,0.13,0.14,0.14
220.03,7.28,7.16,7.28,7.16,-7.16,-7.30,-6.97,0.12,0.12,0.12
222.23,7.23,7.13,7.23,7.13,-7.12,-7.30,-7.03,0.11,0.10,0.10
224.45,7.17,7.08,7.17,7.08,-7.08,-7.30,-7.09,0.09,0.09,0.09
226.70,7.11,7.04,7.11,7.04,-7.04,-7.30,-7.14,0.07,0.07,0.07
228.96,7.05,6.98,7.05,6.99,-7.00,-7.29,-7.19,0.05,0.06,0.07
231.25,7.00,6.95,7.00,6.95,-6.95,-7.27,-7.23,0.05,0.04,0.05
233.57,6.94,6.90,6.94,6.90,-6.91,-7.25,-7.26,0.03,0.03,0.04
235.90,6.88,6.85,6.88,6.86,-6.86,-7.22,-7.29,0.02,0.03,0.03
238.26,6.83,6.82,6.83,6.81,-6.80,-7.18,-7.31,0.03,0.02,0.01
240.64,6.77,6.75,6.77,6.76,-6.75,-7.14,-7.32,0.02,0.02,0.02
243.05,6.71,6.70,6.71,6.70,-6.69,-7.09,-7.32,0.02,0.02,0.01
245.48,6.64,6.64,6.64,6.63,-6.63,-7.03,-7.32,0.01,0.01,0.00
247.93,6.56,6.56,6.57,6.56,-6.57,-6.97,-7.30,-0.01,-0.00,-0.00
250.41,6.50,6.49,6.50,6.49,-6.50,-6.91,-7.28,-0.00,-0.01,0.01
252.92,6.43,6.42,6.44,6.43,-6.44,-6.83,-7.24,-0.01,-0.00,0.01
255.45,6.38,6.38,6.38,6.37,-6.38,-6.76,-7.20,0.00,0.00,0.00
258.00,6.33,6.32,6.32,6.31,-6.31,-6.67,-7.14,0.02,0.01,0.01
260.58,6.26,6.25,6.27,6.26,-6.25,-6.59,-7.08,0.01,0.01,0.01
263.19,6.21,6.19,6.21,6.20,-6.19,-6.49,-7.01,0.02,0.01,0.02
265.82,6.15,6.14,6.15,6.14,-6.14,-6.40,-6.93,0.01,0.02,0.01
268.48,6.09,6.08,6.09,6.08,-6.08,-6.30,-6.84,0.01,0.01,0.01
271.16,6.04,6.02,6.03,6.01,-6.02,-6.20,-6.75,0.02,0.01,0.02
273.87,5.96,5.95,5.97,5.95,-5.96,-6.10,-6.65,-0.00,0.01,0.01
276.61,5.91,5.89,5.91,5.90,-5.90,-5.99,-6.54,0.01,0.01,0.02
279.38,5.85,5.85,5.85,5.84,-5.84,-5.88,-6.43,0.01,0.01,0.00
282.17,5.80,5.79,5.79,5.78,-5.77,-5.77,-6.31,0.03,0.02,0.01
284.99,5.73,5.71,5.73,5.71,-5.71,-5.66,-6.19,0.02,0.02,0.02
287.84,5.66,5.63,5.67,5.64,-5.64,-5.55,-6.07,0.02,0.03,0.03
290.72,5.60,5.57,5.60,5.56,-5.57,-5.44,-5.95,0.03,0.03,0.03
293.63,5.53,5.49,5.53,5.49,-5.49,-5.33,-5.82,0.04,0.03,0.04
296.57,5.46,5.41,5.46,5.42,-5.42,-5.22,-5.69,0.04,0.04,0.05
299.53,5.40,5.35,5.40,5.35,-5.35,-5.10,-5.56,0.05,0.05,0.05
302.53,5.34,5.27,5.34,5.28,-5.27,-4.99,-5.43,0.07,0.06,0.07
305.55,5.28,5.21,5.27,5.20,-5.20,-4.88,-5.31,0.08,0.07,0.07
308.61,5.20,5.12,5.20,5.12,-5.13,-4.77,-5.18,0.07,0.08,0.08
311.69,5.13,5.04,5.14,5.05,-5.05,-4.66,-5.05,0.08,0.09,0.09
314.81,5.08,4.98,5.08,4.98,-4.97,-4.56,-4.93,0.11,0.10,0.10
317.96,5.02,4.92,5.01,4.91,-4.89,-4.45,-4.80,0.13,0.12,0.10
321.14,4.94,4.82,4.94,4.82,-4.81,-4.35,-4.68,0.13,0.12,0.12
324.35,4.85,4.73,4.86,4.73,-4.73,-4.24,-4.56,0.12,0.12,0.12
327.59,4.77,4.62,4.78,4.64,-4.65,-4.14,-4.45,0.12,0.13,0.15
330.87,4.71,4.57,4.70,4.56,-4.57,-4.04,-4.33,0.14,0.14,0.14
334.18,4.64,4.49,4.64,4.48,-4.48,-3.94,-4.22,0.16,0.15,0.15
337.52,4.56,4.40,4.56,4.40,-4.40,-3.85,-4.11,0.16,0.16,0.16
340.90,4.49,4.31,4.49,4.32,-4.32,-3.75,-4.00,0.17,0.17,0.18
344.30,4.42,4.24,4.42,4.24,-4.24,-3.66,-3.90,0.18,0.18,0.18
347.75,4.36,4.17,4.36,4.17,-4.17,-3.57,-3.79,0.19,0.19,0.19
351.23,4.29,4.10,4.29,4.09,-4.09,-3.48,-3.69,0.20,0.20,0.19
354.74,4.22,4.00,4.22,4.01,-4.01,-3.39,-3.60,0.21,0.21,0.22
358.28,4.15,3.93,4.15,3.93,-3.93,-3.30,-3.50,0.22,0.22,0.22
361.87,4.08,3.86,4.08,3.85,-3.85,-3.22,-3.41,0.23,0.23,0.22
365.49,4.01,3.78,4.01,3.77,-3.77,-3.14,-3.32,0.24,0.24,0.23
369.14,3.94,3.69,3.94,3.69,-3.69,-3.06,-3.24,0.25,0.24,0.25
372.83,3.86,3.60,3.86,3.60,-3.61,-2.98,-3.16,0.25,0.25,0.26
376.56,3.78,3.52,3.79,3.53,-3.53,-2.90,-3.07,0.25,0.26,0.26
380.33,3.72,3.45,3.72,3.45,-3.45,-2.82,-3.00,0.27,0.27,0.27
384.13,3.66,3.37,3.65,3.37,-3.36,-2.75,-2.92,0.30,0.29,0.29
387.97,3.58,3.29,3.58,3.29,-3.28,-2.68,-2.85,0.30,0.30,0.29
391.85,3.50,3.20,3.50,3.20,-3.20,-2.60,-2.77,0.30,0.30,0.30
395.77,3.42,3.11,3.43,3.11,-3.12,-2.53,-2.70,0.30,0.31,0.31
399.73,3.36,3.04,3.36,3.03,-3.04,-2.47,-2.64,0.32,0.32,0.32
403.72,3.30,2.95,3.29,2.96,-2.96,-2.40,-2.57,0.34,0.34,0.35
407.76,3.23,2.88,3.23,2.88,-2.88,-2.33,-2.51,0.35,0.35,0.35
411.84,3.16,2.80,3.16,2.80,-2.80,-2.27,-2.45,0.36,0.36,0.36
415.96,3.10,2.72,3.10,2.73,-2.73,-2.21,-2.39,0.37,0.37,0.38
420.12,3.04,2.66,3.04,2.66,-2.66,-2.15,-2.33,0.38,0.38,0.38
424.32,2.98,2.60,2.98,2.59,-2.59,-2.09,-2.27,0.39,0.39,0.38
428.56,2.93,2.53,2.93,2.53,-2.52,-2.03,-2.22,0.41,0.40,0.40
432.85,2.87,2.46,2.87,2.46,-2.46,-1.97,-2.16,0.41,0.41,0.41
437.18,2.80,2.39,2.80,2.39,-2.39,-1.91,-2.11,0.41,0.42,0.41
441.55,2.74,2.32,2.74,2.32,-2.32,-1.86,-2.06,0.42,0.42,0.42
445.96,2.68,2.25,2.68,2.25,-2.25,-1.80,-2.01,0.43,0.43,0.43
450.42,2.62,2.18,2.62,2.18,-2.18,-1.75,-1.96,0.44,0.44,0.44
454.93,2.57,2.12,2.57,2.12,-2.11,-1.70,-1.91,0.46,0.45,0.45
459.48,2.51,2.05,2.51,2.05,-2.05,-1.65,-1.86,0.46,0.47,0.46
464.07,2.46,1.98,2.46,1.98,-1.98,-1.60,-1.82,0.48,0.48,0.48
468.71,2.40,1.91,2.40,1.91,-1.91,-1.55,-1.77,0.49,0.48,0.49
473.40,2.33,1.83,2.34,1.84,-1.85,-1.50,-1.72,0.48,0.49,0.50
478.13,2.28,1.77,2.28,1.77,-1.78,-1.45,-1.68,0.50,0.50,0.51
482.91,2.23,1.71,2.23,1.72,-1.72,-1.40,-1.63,0.51,0.52,0.52
487.74,2.19,1.67,2.19,1.66,-1.65,-1.36,-1.59,0.54,0.53,0.52
492.62,2.14,1.61,2.13,1.60,-1.59,-1.31,-1.54,0.55,0.54,0.53
497.55,2.07,1.53,2.07,1.53,-1.53,-1.26,-1.50,0.54,0.55,0.54
502.52,2.01,1.46,2.01,1.46,-1.46,-1.22,-1.45,0.55,0.55,0.55
507.55,1.96,1.39,1.96,1.39,-1.40,-1.18,-1.41,0.56,0.57,0.57
512.62,1.92,1.34,1.92,1.33,-1.33,-1.13,-1.36,0.59,0.59,0.58
517.75,1.87,1.27,1.87,1.27,-1.26,-1.09,-1.32,0.61,0.61,0.60
