frequency,raw,error,smoothed,error_smoothed,equalization,equalized_raw,equalized_smoothed,target
20,1.8467566427280806,0.19891288725873357,1.9174790871887912,0.2696506783865562,-0.26965067838655615,1.5771059643415244,1.647828408802235,1.647843755469347
21,2.3773416249349517,0.7295168289167733,2.300915260244985,0.6530881100759423,-0.6530881100759421,1.7242535148590097,1.647827150169043,1.6478247960181784
22,2.6666480253538856,1.0188480268685431,2.6638615302161206,1.016049217810729,-1.0160492178107288,1.6505988075431568,1.6478123124053918,1.6477999984853424
23,3.040886130823932,1.393118174181959,3.006317897102197,1.3585340015909164,-1.3585340015909164,1.6823521292330157,1.6477838955112807,1.6477679566419732
24,3.3362876954793106,1.6885606841404637,3.3282843609032122,1.680542461416503,-1.6805424614165025,1.655745234062808,1.6477418994867097,1.647727011338847
25,3.6712137438524497,2.0235385247922757,3.628332901362498,1.9806451007130232,-1.9806451007130237,1.690568643139426,1.6476878006494742,1.647675219060174
26,3.881146927378525,2.233536609198527,3.9081393104073996,2.2605191659050803,-2.2605191659050803,1.6206277614734446,1.6476201445023193,1.6476103181799977
27,4.14088539662875,2.4933557034284592,4.169267114572937,2.5217297521451307,-2.5217297521451303,1.61915564448362,1.6475373624278071,1.647529693200291
28,4.4426095345597885,2.795179199048431,4.41389018622672,2.7664533154477002,-2.7664533154477,1.6761562191120887,1.64743687077902,1.6474303355113573
29,4.643758959847144,2.9964501569218758,4.644500599881277,2.9971855500915714,-2.997185550091572,1.6465734097555722,1.647315049789705,1.6473088029252683
30,4.8558173200556025,3.208656143953856,4.863014332619613,3.215846512458728,-3.2158465124587288,1.6399708075968737,1.6471678201608846,1.6471611761017466
31,5.0460578104218605,3.399074797823718,5.070811094486647,3.4238206586718523,-3.423820658671852,1.6222371517500087,1.646990435814795,1.6469830125981426
32,5.247207235709219,3.600437937292737,5.268496298818514,3.6217186566586563,-3.621718656658656,1.6254885790505629,1.646777642159858,1.6467692984164817
33,5.4483566609965735,3.801842263936379,5.455979819571789,3.8094561448038196,-3.8094561448038204,1.638900516192753,1.6465236747679688,1.6465143970601943
34,5.649506086283933,4.003294090109494,5.632774969515083,3.986552814070553,-3.986552814070552,1.6629532722133806,1.6462221554445309,1.6462119961744381
35,5.821821709728853,4.175966658012774,5.798285038861408,4.15241899607657,-4.15241899607657,1.6694027136522838,1.6458660427848386,1.645855051716079
36,5.951230224214963,4.305794494404069,5.9521216281152505,4.306674098526507,-4.306674098526507,1.6445561256884558,1.6454475295887434,1.6454357298108935
37,6.152379649502321,4.507434303152161,6.094310950818742,4.449352992698523,-4.449352992698522,1.7030266568037993,1.6449579581202203,1.6449453463501595
38,6.152379649502321,4.508005345059857,6.225361327800778,4.5809735773063,-4.580973577306301,1.5714060721960204,1.6443877504944773,1.6443743044424641
39,6.353529074789676,4.709817044936393,6.3462205433977275,4.702494204972497,-4.702494204972497,1.6510348698171784,1.64372633842523,1.643712029853282
40,6.4806790621389245,4.837732157550337,6.458155622398866,4.815193520707805,-4.815193520707803,1.6654855414311216,1.6429621016910634,1.6429469045885874
41,6.554678500076817,4.912612301267284,6.562618298432261,4.9205359938397955,-4.920535993839794,1.6341425062370236,1.642082304592467,1.642066198809533
42,6.655253212720578,5.014197211434315,6.661130289350418,5.020057260238353,-5.020057260238356,1.6351959524822224,1.6410730291120625,1.6410560012862638
43,6.755827925365865,5.115926776729351,6.755188793768118,5.115269687943265,-5.115269687943264,1.640558237422601,1.6399191058248546,1.6399011486365138
44,6.856402638013159,5.217817484380645,6.846169683260583,5.2075656413998885,-5.207565641399888,1.6488369966132712,1.6386040418606953,1.6385851536325138
45,6.947007723662343,5.309917590754235,6.935200306914979,5.29809035907177,-5.29809035907177,1.6489173645905728,1.637109947843209,1.6370901329081073
46,6.956977350641561,5.321580616183358,7.022999226730545,5.387581762064135,-5.387581762064134,1.569395588577427,1.6354174646664106,1.6353967344582032
47,7.158126775885134,5.5246427104868605,7.1097199636736566,5.476214273008875,-5.476214273008876,1.6819125028762585,1.633505690664781,1.6334840653982736
48,7.158126775835407,5.5267971552889925,7.19486665172669,5.56351454184794,-5.563514541847941,1.5946122339874655,1.6313521098787485,1.6313296205464143
49,7.258701488511544,5.62979227600454,7.277349550691497,5.648417028798744,-5.648417028798744,1.6102844597128003,1.6289325218927528,1.6289092125070037
50,7.357377297144487,5.731180393068669,7.355708724628361,5.72948775062223,-5.729487750622229,1.6278895465222583,1.6262209740061317,1.626196904075818
51,7.45985091459351,5.8366859706408825,7.428469733583637,5.80528003685288,-5.8052800368528805,1.6545708777406292,1.6231896967307566,1.6231649439526268
52,7.50682253359804,5.8870388266599,7.494533371925812,5.874724328110417,-5.874724328110414,1.632098205487626,1.6198090438153976,1.61978370693814
53,7.560425627827215,5.944403987822584,7.5534730498535225,5.93742561160108,-5.937425611601082,1.6230000162261327,1.6160474382524406,1.616021640004631
54,7.645338691398967,6.03349347554097,7.6056369476230214,5.993765621692194,-5.9937656216921935,1.6515730697067736,1.611871325930828,1.611845215857997
55,7.661000334202107,6.053781438357362,7.652021745352139,6.044776606529543,-6.044776606529543,1.6162237276725646,1.607245138822596,1.6072188958447455
56,7.661000327362605,6.058895223073886,7.693970638811374,6.0918393689972365,-6.091839368997238,1.5691609583653667,1.6021312698141355,1.6021051042887193
57,7.661000321327358,6.064536104772612,7.732811792954346,6.136321731464056,-6.136321731464054,1.5246785898633037,1.5964900614902913,1.5964642165547454
58,7.761575035643776,6.171320472330898,7.769566378629664,6.17928656728529,-6.17928656728529,1.5822884683584855,1.5902798113443737,1.5902545633128775
59,7.8621497675696315,6.278717313970635,7.804814233582974,6.221357437590928,-6.221357437590928,1.6407923299787033,1.5834567959920456,1.5834324535989968
60,7.862149813495277,6.286197594178696,7.838729983969862,6.262754666975065,-6.262754666975065,1.5993951465202123,1.5759753169947972,1.575952219316581
61,7.862149886419893,6.294383602637263,7.871229795347421,6.30344202451213,-6.30344202451213,1.558707861907763,1.5677877708352916,1.5677662837826305
62,7.862149967096945,6.303324710323615,7.902133127021816,6.343288381603779,-6.343288381603779,1.5188615854931662,1.5588447454180372,1.5588252567733307
63,7.962724718987028,6.413646660725281,7.931258837635796,6.3821636924502805,-6.3821636924502805,1.5805610265367473,1.5490951451855155,1.5490780582617476
64,7.962724635098772,6.424252562441813,7.958427424475634,6.419941077898414,-6.419941077898415,1.542783557200357,1.5384863465772183,1.5384720726569596
65,7.9627243287146845,6.435770993858997,7.983400638319054,6.456436253428357,-6.456436253428356,1.5062880752863288,1.5269643848906984,1.5269533348556874
66,7.962723724069187,6.448256975252113,8.005825323639653,6.491351150309871,-6.491351150309875,1.4713725737593126,1.5144741733297788,1.514466748817075
67,8.059666373669895,6.558710034978018,8.025243648595488,6.524283894169031,-6.524283894169031,1.5353824795008642,1.5009597544264572,1.5009563386918772
68,8.063296587587526,6.576931055775924,8.041191233026712,6.554826650493892,-6.554826650493892,1.5084699370936345,1.4863645825328202,1.486365531811602
69,8.063296006502817,6.592658534390585,8.053351834573233,6.582719999580002,-6.582719999580003,1.4805760069228144,1.4706318349932301,1.4706374721122324
70,8.063296554850753,6.609581192972179,8.06170137340581,6.607996622908303,-6.607996622908304,1.4552999319424496,1.453704750497507,1.4537153618785736
71,8.063299167237954,6.627756338137988,8.066573590183744,6.631046595194952,-6.631046595194953,1.4322525720430006,1.4355269949887903,1.4355428290999663
72,8.06330469905843,6.647240381781964,8.068613121291941,6.652570066529121,-6.652570066529121,1.4107346325293086,1.4160430547628202,1.4160643172764655
73,8.063313462306597,6.6680879680546035,8.068631640592914,6.673432991098382,-6.673432991098382,1.3898804712082153,1.3951986494945317,1.3952254942519944
74,8.063324602756554,6.69035092614389,8.067424863230444,6.69448371042109,-6.694483710421089,1.3688408923354647,1.3729411528093554,1.3729736766126637
75,8.063335446144558,6.714077179749756,8.065623306638251,6.716403302203247,-6.716403302203247,1.346932143941311,1.3492200044350042,1.349258266394802
76,8.06334104151367,6.739309844214606,8.063631773288872,6.739644667231817,-6.7396446672318175,1.3236963742818526,1.3239871060570545,1.3240311972990644
77,8.063334211321264,6.766086823039132,8.061672103099392,6.764474874104605,-6.7644748741046055,1.2988593372166584,1.2971972289947864,1.2972473882821323
78,8.063306440728798,6.794441237479977,8.059900934457577,6.791092420027414,-6.791092420027412,1.2722140207013863,1.268808514430165,1.2688652032488212
79,8.063249864223799,6.824402947701612,8.058547838794361,6.819764682970423,-6.819764682970425,1.2434851812533738,1.2387831558239357,1.2388469165221871
80,8.063160411166855,6.856001226435248,8.058017996819972,6.850929751218765,-6.850929751218766,1.212230659948089,1.2070882456012058,1.2071591847316068
81,8.063041853842988,6.88926832722908,8.0589244184991,6.885227879796988,-6.885227879796989,1.177813974045999,1.173696538702111,1.1737735266139078
82,8.062910100923244,6.924243288080021,8.062045420514504,6.923458748434681,-6.9234587484346815,1.139451352488562,1.138586672079823,1.1386668128432222
83,8.06279667466903,6.9609749064079836,8.068228722492547,6.966486343204436,-6.966486343204437,1.0963103314645934,1.10174237928811,1.101821768261047
84,8.062750012292858,6.999522523646771,8.07827404321901,7.015123335166702,-7.015123335166704,1.0476266771261535,1.063150708052305,1.0632274886460862
85,8.06283315972071,7.03995318638038,8.092821141685157,7.07002087770881,-7.070020877708811,0.9928122820118999,1.0228002639763458,1.022879973340331
86,8.137013276549638,7.1562306029881295,8.112257294194798,7.1315756240968895,-7.131575624096888,1.0054376524527502,0.9806816700979102,0.980782673561508
87,8.164240920299259,7.227293866245967,8.136646952577095,7.199854118750659,-7.199854118750659,0.9643868015485992,0.936792833826436,0.9369470540532916
88,8.165099800065812,7.273706637188631,8.165682754818615,7.274532497618296,-7.274532497618295,0.8905673024475176,0.8911502572003203,0.891393162877181
89,8.166268313440758,7.322118112724311,8.198660882075083,7.354856694497725,-7.354856694497726,0.8114116189430325,0.8438041875773576,0.8441502007164474
90,8.18950014081852,7.394243063629958,8.234489643169065,7.4396387982736485,-7.4396387982736485,0.7498613425448717,0.7948508448954161,0.7952570771885625
91,8.269769246420063,7.525006308865606,8.271741389110623,7.527309906167091,-7.527309906167089,0.7424593402529744,0.7444314829435346,0.7447629375544573
92,8.353583120932187,7.660855481800528,8.308751308639787,7.616042678898776,-7.616042678898776,0.7375404420334117,0.692708629741011,0.6927276391316588
93,8.372601168149416,7.733379015181659,8.343754901496283,7.703938339784248,-7.7039383397842505,0.6686628283651652,0.6398165617120322,0.6392221529677569
94,8.372588057271196,7.7882591940306725,8.37504487452378,7.789249721468936,-7.789249721468935,0.583338335802261,0.5857951530548453,0.5843288632405232
95,8.371194996824535,7.84305326206757,8.401123362177684,7.870593974097004,-7.870593974097004,0.5006010227275306,0.5305293880806792,0.5281417347569652
96,8.407307249154558,7.93654093101215,8.420828105703961,7.947103634252741,-7.9471036342527395,0.46020361490181827,0.4737244714512219,0.4707663181424082
97,8.462880514243514,8.05056095112814,8.433418555145364,8.018475838049907,-8.018475838049905,0.44440467619360824,0.4149427170954585,0.41231956311537354
98,8.454524618653966,8.101595205815885,8.438615401141305,8.084904165956159,-8.08490416595616,0.36962045269780575,0.3537112351851448,0.3529294128380811
99,8.443169742645733,8.150435585819206,8.43659218142991,8.146909383949554,-8.146909383949556,0.29626035869617695,0.28968279748035464,0.29273415682652715
100,8.428723637499239,8.196842111201825,8.427921473082048,8.205115500589697,-8.205115500589697,0.22360813690954195,0.2228059724923508,0.23188152629741499
101,8.411289756283509,8.240762232287635,8.41348382517354,8.260037289570842,-8.260037289570844,0.15125246671266446,0.15344653560269528,0.17052752399587412
102,8.391176160297524,8.282341170066156,8.39435628127296,8.311947618871018,-8.311947618871018,0.07922854142650593,0.08240866240194222,0.10883499023136878
104,8.368885351692143,8.383878059187495,8.3717064495849,8.360874516417256,-8.360874516417256,0.008010835274886219,0.010831933167644081,-0.014992707495351976
105,8.345085897028587,8.422021863558568,8.346720878044406,8.406740525031726,-8.406740525031726,-0.06165462800313826,-0.06001964698731932,-0.07693596652998025
106,8.320568754176627,8.459152442465419,8.320586575416662,8.449608533060442,-8.44960853306044,-0.12903977888381313,-0.12902195764377744,-0.1385836882887923
107,8.296192733000819,8.495959981217396,8.294521688632273,8.489953635885415,-8.489953635885417,-0.19376090288459835,-0.1954319472531445,-0.19976724821657754
108,8.272824378327542,8.533146694101255,8.269823967958065,8.528857285573693,-8.528857285573691,-0.2560329072461496,-0.25903331761562676,-0.2603223157737129
109,8.251277765343119,8.571368912264669,8.247887789861334,8.568031241472802,-8.568031241472802,-0.3167534761296835,-0.32014345161146807,-0.32009114692155016
110,8.232259352328215,8.611184176673289,8.230144278283632,8.609626315931152,-8.609626315931152,-0.3773669636029364,-0.3794820376475201,-0.3789248243450736
111,8.21632231436927,8.653007690736947,8.217907185063762,8.655851672528836,-8.655851672528838,-0.43952935815956806,-0.4379444874650762,-0.43668537636767724
112,8.203833843525175,8.697081550080455,8.212150035469243,8.70850024902705,-8.708500249027052,-0.5046664055018777,-0.4963502135578093,-0.4932477065552807
113,8.194957836380784,8.743459106754312,8.213278210221691,8.768516753596913,-8.768516753596911,-0.5735589172161273,-0.5552385433752196,-0.5485012703735279
114,8.18965421562638,8.792005658506024,8.220973899869911,8.835737837212069,-8.835737837212069,-0.6460836215856887,-0.6147639373421576,-0.6023514428796437
115,8.204665897680883,8.859386429697789,8.234174067051457,8.908880346644523,-8.908880346644526,-0.7042144489636435,-0.6747062795930692,-0.6547205320169067
117,8.289269105889915,9.0495302271477,8.25119911182247,8.98577415739522,-8.985774157395218,-0.6965050515053033,-0.7345750455727487,-0.7602611212577859
118,8.292728236550651,9.10110905430847,8.270001810379606,9.063762764128713,-9.063762764128711,-0.7710345275780597,-0.7937609537491053,-0.8083808177578189
119,8.298083974513034,9.152929383585636,8.288472693761733,9.140155158342944,-9.140155158342942,-0.8420711838299084,-0.8516824645812093,-0.8548454090726025
120,8.30476240103313,9.204416494622201,8.304731070896679,9.212617935382363,-9.212617935382362,-0.9078555343492312,-0.9078868644856826,-0.8996540935890698
121,8.312227285053769,9.255049227620923,8.317348218321447,9.279437969957154,-9.279437969957156,-0.967210684903387,-0.962089751635709,-0.942821942567154
123,8.320019182217486,9.351796162764476,8.325476885050575,9.339638592127383,-9.339638592127383,-1.0196194099098967,-1.0141617070768074,-1.031776980546991
124,8.327780645196555,9.398239422875605,8.328883798922124,9.392970663401034,-9.392970663401032,-1.0651900182044773,-1.0640868644789077,-1.0704587776790508
125,8.335265268241246,9.44288195595066,8.327892612939465,9.439812791674935,-9.439812791674935,-1.1045475234336894,-1.1119201787354704,-1.1076166877094145
126,8.342330830461865,9.485649886825929,8.323248186353698,9.481008502816888,-9.481008502816888,-1.1386776723550227,-1.1577603164631896,-1.1433190563640632
128,8.348919355137097,9.567384260305635,8.315919164557117,9.51765937954784,-9.51765937954784,-1.1687400244107433,-1.201740214990723,-1.218464905168538
129,8.288671852227424,9.538853870902427,8.306870762329499,9.550896090153884,-9.550896090153888,-1.262224237926464,-1.2440253278243887,-1.2501820186750034
130,8.260108641585521,9.540803915475696,8.296859452000374,9.581665429037736,-9.581665429037738,-1.3215567874522165,-1.2848059770373634,-1.2806952738901747
131,8.265330433159379,9.575423074958353,8.286311865358488,9.610587846084053,-9.610587846084053,-1.3452574129246742,-1.3242759807255648,-1.3100926417989736
133,8.270122379787365,9.64303558733326,8.275335727490564,9.637936239727821,-9.637936239727821,-1.3678138599404566,-1.3626005122372575,-1.3729132075458956
134,8.274459654746904,9.673583041838004,8.263866532046492,9.663751769128275,-9.663751769128277,-1.389292114381373,-1.3998852370817847,-1.3991233870910995
135,8.278293002173145,9.702788803758711,8.251894308313753,9.688055203322104,-9.68805520332211,-1.4097622011489648,-1.4361608950083564,-1.424495801585567
137,8.281560823353656,9.760418301591764,8.239668490143286,9.711060113934149,-9.711060113934147,-1.429499290580491,-1.4713916237908613,-1.4788574782381079
138,8.22264009580001,9.724314859034118,8.227773038650351,9.733277894370046,-9.733277894370046,-1.5106377985700359,-1.5055048557196944,-1.5016747632341079
140,8.185621880240987,9.736038922137228,8.217009745957533,9.75544048524075,-9.755440485240753,-1.5698186049997656,-1.5384307392832195,-1.5504170418962406
141,8.186960979600272,9.758046213437185,8.208110760630436,9.778245580739512,-9.778245580739512,-1.5912846011392396,-1.5701348201090752,-1.5710852338369121
142,8.187700252829504,9.778993520965997,8.201385539089856,9.802016855414085,-9.802016855414086,-1.6143166025845819,-1.6006313163242307,-1.5912932681364933
144,8.187937928466296,9.82166000586638,8.196450769116304,9.82642444674198,-9.82642444674198,-1.638486518275684,-1.6299736776256761,-1.6337220774000842
145,8.187811708261675,9.84003216270242,8.192169296569876,9.850398640485928,-9.850398640485928,-1.6625869322242526,-1.6582293439160516,-1.6522204544407448
147,8.187484226585237,9.877913185449495,8.186842310975097,9.872294116891112,-9.872294116891112,-1.6848098903058748,-1.6854518059160153,-1.6904289588642585
148,8.187123513018275,9.8945566775444,8.178593871816293,9.890256641135515,-9.890256641135514,-1.7031331281172388,-1.7116627693192203,-1.7074331645261265
150,8.186880802766982,9.92873684866712,8.165806355919951,9.902657632652875,-9.902657632652875,-1.7157768298858933,-1.7368512767329243,-1.7418560459001373
151,8.186868169552092,9.944349092843083,8.14744765897854,9.908435668698798,-9.908435668698798,-1.7215674991467065,-1.7609880097202577,-1.7574809232909923
153,8.138442308719139,9.926876818157188,8.123184649737668,9.907230651199882,-9.907230651199878,-1.7687883424807396,-1.78404600146221,-1.78843450943805
154,8.087095406973113,9.889786038636073,8.093276420399285,9.899293207380191,-9.899293207380191,-1.8121978004070787,-1.8060167869809067,-1.8026906316629603
156,8.003102272186744,9.833472653464678,8.058337150964473,9.885251279559995,-9.885251279559995,-1.8821490073732505,-1.8269141285955222,-1.8303703812779348
157,7.987871173519485,9.831041760124057,8.019106132117184,9.86587000449005,-9.865870004490048,-1.8779988309705633,-1.8467638723728648,-1.8431705866045713
159,7.988252965640387,9.855914782608936,7.976341166001456,9.841926150249375,-9.841926150249375,-1.8536731846089873,-1.8655849842479189,-1.8676618169685493
160,7.988061135303007,9.866901260316684,7.930874176032614,9.814244757787073,-9.814244757787073,-1.8261836224840655,-1.883370581754459,-1.878840125013678
162,7.94146343964998,9.841606570054303,7.883773685804419,9.783851184420236,-9.783851184420236,-1.8423877447702557,-1.9000774986158167,-1.900143130404322
164,7.783660395153706,9.70307143546231,7.836495120114416,9.75212401296131,-9.752124012961312,-1.9684636178076067,-1.9156288928468959,-1.9194110403086042
