frequency,raw,error,smoothed,error_smoothed,equalization,parametric_eq,fixed_band_eq,equalized_raw,equalized_smoothed,target
20.00,-6.39,-9.73,-6.41,-9.77,6.00,4.47,2.62,-0.39,-0.41,3.34
20.20,-6.30,-9.68,-6.31,-9.70,6.00,4.57,2.70,-0.30,-0.31,3.38
20.40,-6.21,-9.62,-6.21,-9.63,6.00,4.68,2.78,-0.21,-0.21,3.41
20.61,-6.11,-9.55,-6.11,-9.55,6.00,4.78,2.86,-0.11,-0.11,3.44
20.81,-6.02,-9.50,-6.01,-9.48,6.00,4.89,2.94,-0.02,-0.01,3.48
21.02,-5.93,-9.45,-5.91,-9.40,6.00,4.99,3.02,0.07,0.09,3.52
21.23,-5.83,-9.36,-5.81,-9.32,6.00,5.10,3.11,0.17,0.19,3.53
21.44,-5.72,-9.27,-5.71,-9.24,6.00,5.20,3.20,0.28,0.29,3.55
21.66,-5.62,-9.19,-5.61,-9.16,6.00,5.31,3.30,0.38,0.39,3.57
21.87,-5.52,-9.09,-5.51,-9.08,6.00,5.41,3.39,0.48,0.49,3.58
22.09,-5.41,-9.00,-5.41,-9.00,6.00,5.51,3.49,0.59,0.59,3.60
22.31,-5.31,-8.90,-5.31,-8.91,6.00,5.61,3.59,0.69,0.69,3.60
22.54,-5.20,-8.81,-5.20,-8.82,6.00,5.71,3.69,0.80,0.80,3.61
22.76,-5.09,-8.70,-5.10,-8.72,6.00,5.81,3.80,0.91,0.90,3.61
22.99,-4.98,-8.59,-5.00,-8.63,6.00,5.90,3.91,1.02,1.00,3.61
23.22,-4.89,-8.51,-4.89,-8.53,6.00,5.99,4.02,1.11,1.11,3.62
23.45,-4.79,-8.42,-4.79,-8.43,6.00,6.08,4.14,1.21,1.21,3.63
23.69,-4.70,-8.34,-4.69,-8.33,6.00,6.16,4.25,1.30,1.31,3.64
23.92,-4.60,-8.25,-4.59,-8.24,6.00,6.23,4.37,1.40,1.41,3.65
24.16,-4.50,-8.16,-4.49,-8.14,6.00,6.30,4.49,1.50,1.51,3.66
24.40,-4.40,-8.07,-4.39,-8.05,6.00,6.37,4.61,1.60,1.61,3.67
24.65,-4.30,-7.96,-4.30,-7.95,6.00,6.43,4.74,1.70,1.70,3.66
24.89,-4.19,-7.85,-4.20,-7.86,6.00,6.48,4.86,1.81,1.80,3.66
25.14,-4.10,-7.76,-4.11,-7.77,6.00,6.52,4.99,1.90,1.89,3.66
25.39,-4.01,-7.67,-4.01,-7.68,6.00,6.56,5.12,1.99,1.99,3.66
25.65,-3.92,-7.58,-3.92,-7.59,6.00,6.59,5.25,2.08,2.08,3.66
25.91,-3.83,-7.48,-3.84,-7.50,6.00,6.61,5.38,2.17,2.16,3.65
26.16,-3.75,-7.41,-3.75,-7.41,6.00,6.62,5.50,2.25,2.25,3.66
26.43,-3.67,-7.33,-3.67,-7.33,6.00,6.63,5.63,2.33,2.33,3.66
26.69,-3.58,-7.24,-3.60,-7.25,6.00,6.62,5.76,2.42,2.40,3.66
26.96,-3.50,-7.16,-3.52,-7.17,6.00,6.61,5.88,2.50,2.48,3.66
27.23,-3.43,-7.09,-3.44,-7.09,6.00,6.59,6.00,2.57,2.56,3.66
27.50,-3.35,-7.01,-3.36,-7.01,6.00,6.56,6.12,2.65,2.64,3.66
27.77,-3.28,-6.92,-3.28,-6.92,6.00,6.52,6.23,2.72,2.72,3.64
28.05,-3.21,-6.85,-3.19,-6.84,6.00,6.47,6.34,2.79,2.81,3.64
28.33,-3.14,-6.77,-3.11,-6.75,6.00,6.42,6.44,2.86,2.89,3.63
28.62,-3.07,-6.71,-3.03,-6.67,6.00,6.36,6.54,2.93,2.97,3.64
28.90,-2.99,-6.63,-2.94,-6.58,6.00,6.30,6.63,3.01,3.06,3.64
29.19,-2.89,-6.52,-2.86,-6.49,6.00,6.22,6.70,3.11,3.14,3.63
29.48,-2.76,-6.40,-2.77,-6.40,6.00,6.15,6.77,3.24,3.23,3.64
29.78,-2.63,-6.27,-2.68,-6.31,6.00,6.06,6.83,3.37,3.32,3.64
30.08,-2.53,-6.17,-2.59,-6.22,5.99,5.98,6.88,3.46,3.39,3.64
30.38,-2.47,-6.10,-2.51,-6.13,5.97,5.89,6.91,3.50,3.46,3.63
30.68,-2.42,-6.05,-2.42,-6.04,5.93,5.79,6.94,3.51,3.51,3.63
30.99,-2.36,-5.97,-2.34,-5.95,5.88,5.69,6.95,3.52,3.55,3.61
31.30,-2.27,-5.88,-2.25,-5.87,5.82,5.59,6.95,3.55,3.57,3.61
31.61,-2.18,-5.79,-2.17,-5.78,5.76,5.49,6.94,3.58,3.59,3.61
31.93,-2.08,-5.68,-2.09,-5.70,5.69,5.38,6.91,3.61,3.60,3.60
32.24,-2.01,-5.60,-2.02,-5.61,5.61,5.28,6.87,3.61,3.60,3.59
32.57,-1.94,-5.53,-1.94,-5.53,5.53,5.17,6.82,3.59,3.59,3.59
32.89,-1.87,-5.46,-1.86,-5.45,5.45,5.07,6.76,3.58,3.59,3.59
33.22,-1.80,-5.38,-1.78,-5.37,5.37,4.96,6.69,3.57,3.58,3.58
33.55,-1.72,-5.30,-1.70,-5.28,5.28,4.85,6.61,3.57,3.58,3.58
33.89,-1.64,-5.22,-1.63,-5.20,5.20,4.74,6.52,3.56,3.58,3.58
34.23,-1.56,-5.14,-1.55,-5.13,5.13,4.64,6.42,3.57,3.57,3.58
34.57,-1.48,-5.05,-1.48,-5.05,5.05,4.53,6.31,3.57,3.57,3.57
34.92,-1.40,-4.97,-1.42,-4.98,4.98,4.42,6.20,3.58,3.56,3.57
35.27,-1.32,-4.88,-1.35,-4.91,4.91,4.32,6.08,3.59,3.56,3.56
35.62,-1.24,-4.79,-1.29,-4.85,4.85,4.22,5.96,3.61,3.56,3.55
35.97,-1.16,-4.71,-1.22,-4.78,4.78,4.11,5.83,3.62,3.55,3.55
36.33,-1.14,-4.69,-1.16,-4.71,4.71,4.01,5.70,3.57,3.55,3.55
36.70,-1.13,-4.68,-1.10,-4.64,4.64,3.91,5.57,3.51,3.54,3.55
37.06,-1.10,-4.63,-1.03,-4.57,4.57,3.82,5.43,3.47,3.54,3.53
37.43,-1.01,-4.54,-0.97,-4.50,4.50,3.72,5.30,3.49,3.53,3.53
37.81,-0.92,-4.45,-0.90,-4.42,4.42,3.63,5.16,3.50,3.52,3.53
38.19,-0.84,-4.36,-0.83,-4.35,4.35,3.53,5.03,3.51,3.52,3.52
38.57,-0.77,-4.28,-0.75,-4.27,4.27,3.44,4.89,3.50,3.52,3.51
38.95,-0.70,-4.21,-0.68,-4.19,4.19,3.35,4.75,3.49,3.51,3.51
39.34,-0.61,-4.11,-0.60,-4.11,4.11,3.27,4.62,3.50,3.51,3.50
39.74,-0.53,-4.01,-0.53,-4.03,4.03,3.18,4.49,3.50,3.50,3.48
40.14,-0.44,-3.93,-0.44,-3.94,3.94,3.10,4.35,3.50,3.49,3.49
40.54,-0.35,-3.84,-0.36,-3.85,3.85,3.01,4.22,3.49,3.48,3.49
40.94,-0.25,-3.73,-0.28,-3.76,3.76,2.93,4.10,3.51,3.47,3.48
41.35,-0.18,-3.65,-0.21,-3.67,3.67,2.85,3.97,3.49,3.46,3.47
41.76,-0.10,-3.56,-0.14,-3.59,3.59,2.78,3.85,3.49,3.45,3.46
42.18,-0.05,-3.49,-0.07,-3.50,3.50,2.70,3.73,3.45,3.43,3.44
42.60,-0.03,-3.45,-0.01,-3.42,3.42,2.63,3.61,3.39,3.41,3.42
43.03,0.00,-3.40,0.05,-3.34,3.34,2.56,3.49,3.34,3.38,3.40
43.46,0.10,-3.28,0.10,-3.26,3.26,2.49,3.37,3.36,3.36,3.38
43.90,0.20,-3.14,0.15,-3.19,3.19,2.42,3.26,3.39,3.34,3.34
44.33,0.22,-3.09,0.20,-3.11,3.11,2.35,3.15,3.33,3.31,3.31
44.78,0.22,-3.06,0.26,-3.03,3.03,2.29,3.04,3.25,3.29,3.28
45.23,0.27,-2.98,0.31,-2.96,2.96,2.22,2.94,3.23,3.27,3.25
45.68,0.38,-2.85,0.37,-2.88,2.88,2.16,2.84,3.26,3.24,3.23
46.13,0.45,-2.76,0.42,-2.81,2.81,2.10,2.74,3.26,3.23,3.21
46.60,0.45,-2.75,0.47,-2.74,2.74,2.04,2.64,3.19,3.21,3.20
47.06,0.46,-2.73,0.53,-2.66,2.66,1.98,2.54,3.12,3.20,3.19
47.53,0.57,-2.61,0.60,-2.59,2.59,1.92,2.45,3.16,3.19,3.18
48.01,0.67,-2.52,0.65,-2.53,2.53,1.87,2.36,3.20,3.18,3.19
48.49,0.73,-2.45,0.70,-2.48,2.48,1.81,2.27,3.21,3.18,3.18
48.97,0.80,-2.37,0.76,-2.42,2.42,1.76,2.18,3.22,3.18,3.17
49.46,0.85,-2.31,0.82,-2.36,2.36,1.71,2.09,3.21,3.18,3.17
49.96,0.90,-2.27,0.89,-2.30,2.30,1.66,2.01,3.20,3.18,3.17
50.46,0.92,-2.26,0.94,-2.24,2.24,1.61,1.93,3.16,3.18,3.18
50.96,0.95,-2.24,0.99,-2.19,2.19,1.56,1.85,3.14,3.18,3.19
51.47,1.04,-2.14,1.04,-2.13,2.13,1.51,1.77,3.17,3.17,3.18
51.99,1.13,-2.05,1.10,-2.06,2.06,1.47,1.70,3.19,3.16,3.18
52.51,1.13,-2.04,1.15,-1.99,1.99,1.42,1.62,3.13,3.15,3.17
53.03,1.14,-2.01,1.20,-1.93,1.93,1.38,1.55,3.07,3.13,3.15
53.56,1.26,-1.86,1.25,-1.85,1.85,1.33,1.48,3.11,3.10,3.12
54.10,1.36,-1.72,1.30,-1.77,1.77,1.29,1.41,3.13,3.07,3.08
54.64,1.36,-1.68,1.35,-1.69,1.69,1.25,1.34,3.05,3.04,3.04
55.18,1.36,-1.64,1.39,-1.61,1.61,1.21,1.28,2.97,3.00,3.00
55.74,1.36,-1.59,1.43,-1.52,1.52,1.17,1.21,2.88,2.95,2.95
56.29,1.43,-1.48,1.46,-1.44,1.44,1.13,1.15,2.88,2.91,2.91
56.86,1.56,-1.30,1.49,-1.37,1.37,1.09,1.09,2.93,2.85,2.85
57.42,1.59,-1.20,1.51,-1.29,1.29,1.05,1.03,2.88,2.80,2.79
58.00,1.59,-1.15,1.54,-1.21,1.21,1.01,0.97,2.80,2.75,2.74
58.58,1.59,-1.10,1.57,-1.12,1.12,0.98,0.92,2.72,2.69,2.69
59.16,1.59,-1.05,1.59,-1.04,1.04,0.94,0.86,2.63,2.64,2.64
59.76,1.59,-1.00,1.61,-0.97,0.97,0.90,0.81,2.56,2.58,2.59
60.35,1.59,-0.94,1.64,-0.89,0.89,0.87,0.76,2.48,2.53,2.53
60.96,1.59,-0.89,1.66,-0.81,0.81,0.83,0.71,2.40,2.48,2.48
61.57,1.59,-0.83,1.69,-0.74,0.74,0.80,0.66,2.33,2.42,2.42
62.18,1.63,-0.73,1.71,-0.67,0.67,0.77,0.61,2.30,2.38,2.36
62.80,1.77,-0.55,1.72,-0.61,0.61,0.73,0.57,2.38,2.33,2.33
63.43,1.81,-0.47,1.73,-0.55,0.55,0.70,0.52,2.36,2.29,2.28
64.07,1.81,-0.43,1.75,-0.49,0.49,0.67,0.48,2.30,2.25,2.24
64.71,1.81,-0.39,1.77,-0.44,0.44,0.64,0.44,2.25,2.21,2.20
65.35,1.81,-0.36,1.78,-0.40,0.40,0.61,0.39,2.21,2.17,2.17
66.01,1.81,-0.33,1.79,-0.36,0.36,0.57,0.35,2.17,2.14,2.14
66.67,1.81,-0.30,1.80,-0.32,0.32,0.54,0.32,2.13,2.12,2.11
67.33,1.81,-0.28,1.81,-0.28,0.28,0.51,0.28,2.09,2.09,2.09
68.01,1.81,-0.26,1.82,-0.24,0.24,0.48,0.24,2.06,2.07,2.07
68.69,1.81,-0.24,1.84,-0.21,0.21,0.45,0.21,2.02,2.05,2.05
69.37,1.81,-0.22,1.84,-0.18,0.18,0.42,0.17,1.99,2.03,2.03
70.07,1.81,-0.20,1.85,-0.16,0.16,0.40,0.14,1.97,2.01,2.01
70.77,1.81,-0.19,1.86,-0.13,0.13,0.37,0.10,1.94,1.99,2.00
71.48,1.81,-0.17,1.88,-0.09,0.09,0.34,0.07,1.91,1.97,1.98
72.19,1.86,-0.11,1.90,-0.05,0.05,0.31,0.03,1.91,1.95,1.97
72.91,2.02,0.08,1.93,-0.01,0.01,0.28,0.00,2.03,1.94,1.94
73.64,2.04,0.11,1.96,0.04,-0.04,0.25,-0.03,2.00,1.92,1.93
74.38,2.04,0.13,1.99,0.09,-0.09,0.22,-0.06,1.95,1.90,1.91
75.12,2.04,0.15,2.02,0.13,-0.13,0.20,-0.10,1.91,1.89,1.89
75.87,2.04,0.17,2.05,0.18,-0.18,0.17,-0.13,1.86,1.87,1.87
76.63,2.04,0.19,2.09,0.23,-0.23,0.14,-0.16,1.81,1.86,1.85
77.40,2.06,0.22,2.13,0.28,-0.28,0.11,-0.19,1.78,1.85,1.84
78.17,2.13,0.30,2.17,0.33,-0.33,0.08,-0.22,1.80,1.84,1.83
78.95,2.26,0.43,2.21,0.38,-0.38,0.05,-0.26,1.88,1.83,1.83
79.74,2.27,0.44,2.25,0.42,-0.42,0.03,-0.29,1.85,1.83,1.83
80.54,2.27,0.45,2.28,0.45,-0.45,-0.00,-0.32,1.82,1.82,1.82
81.35,2.27,0.45,2.31,0.48,-0.48,-0.03,-0.36,1.79,1.83,1.82
82.16,2.29,0.46,2.34,0.50,-0.50,-0.06,-0.39,1.79,1.83,1.83
82.98,2.37,0.53,2.37,0.52,-0.52,-0.09,-0.42,1.85,1.84,1.84
83.81,2.48,0.63,2.40,0.54,-0.54,-0.11,-0.46,1.94,1.86,1.85
84.65,2.50,0.64,2.43,0.56,-0.56,-0.14,-0.49,1.94,1.87,1.86
85.50,2.50,0.62,2.46,0.57,-0.57,-0.17,-0.53,1.93,1.88,1.89
86.35,2.50,0.60,2.49,0.58,-0.58,-0.20,-0.57,1.92,1.90,1.90
87.22,2.50,0.58,2.51,0.59,-0.59,-0.23,-0.60,1.91,1.92,1.92
88.09,2.50,0.57,2.53,0.60,-0.60,-0.26,-0.64,1.90,1.94,1.93
88.97,2.50,0.53,2.56,0.61,-0.61,-0.29,-0.68,1.89,1.95,1.97
89.86,2.50,0.52,2.59,0.62,-0.62,-0.32,-0.72,1.88,1.97,1.98
90.76,2.52,0.54,2.61,0.63,-0.63,-0.35,-0.76,1.89,1.99,1.98
91.66,2.65,0.64,2.63,0.63,-0.63,-0.38,-0.80,2.02,2.00,2.01
92.58,2.72,0.72,2.64,0.64,-0.64,-0.41,-0.84,2.08,2.01,2.00
93.51,2.72,0.70,2.66,0.64,-0.64,-0.44,-0.88,2.08,2.01,2.02
94.44,2.72,0.69,2.68,0.66,-0.66,-0.47,-0.92,2.06,2.02,2.03
95.39,2.72,0.69,2.70,0.67,-0.67,-0.50,-0.96,2.05,2.02,2.03
96.34,2.72,0.71,2.71,0.69,-0.69,-0.53,-1.00,2.03,2.02,2.01
97.30,2.72,0.71,2.72,0.71,-0.71,-0.57,-1.05,2.01,2.02,2.01
98.28,2.72,0.72,2.73,0.72,-0.72,-0.60,-1.09,2.00,2.01,2.00
99.26,2.72,0.73,2.74,0.74,-0.74,-0.63,-1.13,1.98,2.00,1.99
100.25,2.72,0.73,2.73,0.74,-0.74,-0.66,-1.18,1.98,1.98,1.99
101.25,2.72,0.75,2.72,0.75,-0.75,-0.70,-1.22,1.97,1.97,1.97
102.27,2.72,0.77,2.71,0.76,-0.76,-0.73,-1.27,1.96,1.94,1.95
103.29,2.72,0.80,2.71,0.79,-0.79,-0.77,-1.31,1.93,1.92,1.92
104.32,2.72,0.82,2.71,0.83,-0.83,-0.80,-1.36,1.89,1.89,1.90
105.37,2.72,0.85,2.73,0.87,-0.87,-0.84,-1.40,1.85,1.85,1.87
106.42,2.72,0.89,2.74,0.93,-0.93,-0.88,-1.44,1.79,1.81,1.83
107.48,2.72,0.94,2.76,0.99,-0.99,-0.91,-1.49,1.73,1.77,1.78
108.56,2.72,1.00,2.78,1.06,-1.06,-0.95,-1.53,1.66,1.72,1.72
109.64,2.72,1.05,2.81,1.14,-1.14,-0.99,-1.57,1.58,1.67,1.67
110.74,2.73,1.11,2.84,1.22,-1.22,-1.03,-1.61,1.51,1.62,1.62
111.85,2.92,1.35,2.86,1.30,-1.30,-1.06,-1.65,1.62,1.56,1.57
112.97,2.95,1.45,2.88,1.37,-1.37,-1.10,-1.69,1.58,1.51,1.50
114.10,2.95,1.49,2.90,1.44,-1.44,-1.14,-1.72,1.51,1.45,1.46
115.24,2.95,1.55,2.91,1.50,-1.50,-1.18,-1.76,1.45,1.40,1.40
116.39,2.95,1.61,2.91,1.55,-1.55,-1.23,-1.79,1.40,1.35,1.34
117.55,2.95,1.66,2.91,1.60,-1.60,-1.27,-1.82,1.35,1.31,1.29
118.73,2.95,1.71,2.90,1.63,-1.63,-1.31,-1.84,1.32,1.27,1.24
119.92,2.95,1.73,2.89,1.66,-1.66,-1.35,-1.87,1.29,1.23,1.22
121.12,2.94,1.76,2.87,1.67,-1.67,-1.39,-1.89,1.27,1.20,1.18
122.33,2.80,1.65,2.85,1.68,-1.68,-1.44,-1.91,1.12,1.17,1.15
123.55,2.72,1.57,2.82,1.68,-1.68,-1.48,-1.93,1.04,1.14,1.15
124.79,2.72,1.60,2.79,1.67,-1.67,-1.53,-1.95,1.05,1.12,1.12
126.03,2.72,1.61,2.77,1.66,-1.66,-1.57,-1.96,1.06,1.10,1.11
127.29,2.72,1.63,2.75,1.66,-1.66,-1.61,-1.97,1.06,1.08,1.09
128.57,2.72,1.65,2.73,1.66,-1.66,-1.66,-1.98,1.06,1.07,1.07
129.85,2.72,1.66,2.72,1.67,-1.67,-1.70,-1.98,1.05,1.05,1.06
131.15,2.72,1.68,2.71,1.67,-1.67,-1.75,-1.98,1.05,1.04,1.04
132.46,2.72,1.70,2.70,1.68,-1.68,-1.79,-1.98,1.04,1.02,1.02
133.79,2.72,1.71,2.70,1.70,-1.70,-1.84,-1.98,1.02,1.00,1.01
135.12,2.72,1.74,2.71,1.72,-1.72,-1.88,-1.98,1.00,0.98,0.98
136.48,2.72,1.75,2.72,1.75,-1.75,-1.93,-1.97,0.97,0.97,0.97
137.84,2.72,1.77,2.72,1.78,-1.78,-1.97,-1.96,0.94,0.94,0.95
139.22,2.72,1.81,2.72,1.80,-1.80,-2.02,-1.96,0.92,0.92,0.91
140.61,2.72,1.84,2.72,1.82,-1.82,-2.06,-1.95,0.90,0.90,0.88
142.02,2.72,1.85,2.72,1.85,-1.85,-2.10,-1.93,0.87,0.87,0.87
143.44,2.72,1.88,2.72,1.88,-1.88,-2.14,-1.92,0.84,0.84,0.84
144.87,2.72,1.91,2.72,1.92,-1.92,-2.18,-1.91,0.80,0.80,0.81
146.32,2.72,1.94,2.72,1.96,-1.96,-2.22,-1.90,0.76,0.76,0.78
147.78,2.72,1.97,2.72,2.01,-2.01,-2.26,-1.88,0.71,0.71,0.75
149.26,2.72,2.03,2.72,2.06,-2.06,-2.30,-1.87,0.66,0.66,0.70
150.75,2.72,2.09,2.73,2.12,-2.12,-2.34,-1.86,0.60,0.61,0.63
152.26,2.72,2.14,2.74,2.18,-2.18,-2.37,-1.85,0.54,0.55,0.58
153.78,2.72,2.21,2.74,2.24,-2.24,-2.40,-1.83,0.48,0.49,0.51
155.32,2.72,2.29,2.73,2.30,-2.30,-2.43,-1.82,0.42,0.44,0.43
156.88,2.72,2.35,2.73,2.35,-2.35,-2.46,-1.81,0.37,0.37,0.37
158.44,2.72,2.42,2.72,2.40,-2.40,-2.49,-1.80,0.32,0.32,0.30
160.03,2.72,2.48,2.69,2.43,-2.43,-2.51,-1.79,0.29,0.26,0.24
161.63,2.72,2.53,2.67,2.45,-2.45,-2.53,-1.78,0.27,0.22,0.19
163.24,2.72,2.57,2.65,2.48,-2.48,-2.55,-1.78,0.25,0.17,0.15
164.88,2.72,2.60,2.63,2.49,-2.49,-2.57,-1.77,0.23,0.14,0.12
166.53,2.69,2.60,2.62,2.50,-2.50,-2.58,-1.77,0.19,0.11,0.09
168.19,2.57,2.50,2.61,2.51,-2.51,-2.60,-1.76,0.06,0.10,0.07
169.87,2.50,2.43,2.60,2.51,-2.51,-2.60,-1.76,-0.01,0.09,0.07
171.57,2.50,2.43,2.60,2.51,-2.51,-2.61,-1.76,-0.01,0.09,0.07
173.29,2.50,2.42,2.60,2.51,-2.51,-2.61,-1.76,-0.01,0.09,0.08
175.02,2.50,2.40,2.60,2.50,-2.50,-2.61,-1.77,-0.00,0.09,0.10
176.77,2.50,2.39,2.60,2.50,-2.50,-2.61,-1.77,-0.00,0.10,0.11
178.54,2.67,2.55,2.62,2.51,-2.51,-2.61,-1.78,0.16,0.11,0.12
180.32,2.72,2.58,2.64,2.52,-2.52,-2.60,-1.78,0.20,0.12,0.14
182.13,2.72,2.57,2.66,2.53,-2.53,-2.59,-1.79,0.19,0.13,0.15
183.95,2.72,2.56,2.68,2.55,-2.55,-2.57,-1.80,0.17,0.13,0.16
185.79,2.72,2.57,2.70,2.56,-2.56,-2.56,-1.81,0.16,0.13,0.15
187.65,2.72,2.58,2.72,2.59,-2.59,-2.54,-1.83,0.13,0.13,0.14
189.52,2.72,2.59,2.73,2.60,-2.60,-2.52,-1.84,0.12,0.13,0.13
191.42,2.72,2.60,2.73,2.60,-2.60,-2.50,-1.86,0.12,0.12,0.12
193.33,2.72,2.62,2.72,2.60,-2.60,-2.47,-1.87,0.12,0.11,0.10
195.27,2.72,2.62,2.69,2.59,-2.59,-2.44,-1.89,0.13,0.10,0.10
197.22,2.72,2.63,2.65,2.56,-2.56,-2.41,-1.91,0.16,0.09,0.09
199.19,2.59,2.53,2.59,2.52,-2.52,-2.38,-1.93,0.07,0.08,0.06
201.18,2.50,2.44,2.54,2.48,-2.48,-2.35,-1.95,0.02,0.06,0.06
203.19,2.50,2.45,2.48,2.44,-2.44,-2.32,-1.97,0.06,0.05,0.05
205.23,2.50,2.47,2.43,2.39,-2.39,-2.28,-1.99,0.11,0.03,0.03
207.28,2.42,2.39,2.37,2.35,-2.35,-2.25,-2.01,0.07,0.02,0.03
209.35,2.30,2.29,2.32,2.31,-2.31,-2.21,-2.03,-0.01,0.01,0.01
211.44,2.27,2.28,2.27,2.27,-2.27,-2.17,-2.05,0.00,0.00,-0.01
213.56,2.11,2.12,2.21,2.22,-2.22,-2.13,-2.07,-0.11,-0.01,-0.01
215.69,2.04,2.05,2.16,2.17,-2.17,-2.09,-2.09,-0.13,-0.02,-0.01
217.85,2.04,2.06,2.11,2.14,-2.14,-2.05,-2.11,-0.10,-0.02,-0.02
220.03,2.04,2.07,2.07,2.11,-2.11,-2.01,-2.13,-0.07,-0.03,-0.03
222.23,2.04,2.09,2.04,2.08,-2.08,-1.97,-2.14,-0.04,-0.04,-0.05
224.45,2.04,2.09,2.00,2.04,-2.04,-1.93,-2.16,0.00,-0.04,-0.05
226.70,2.04,2.08,1.95,2.00,-2.00,-1.89,-2.17,0.04,-0.05,-0.04
228.96,2.04,2.09,1.91,1.96,-1.96,-1.85,-2.18,0.08,-0.05,-0.05
231.25,1.87,1.92,1.88,1.93,-1.93,-1.81,-2.19,-0.06,-0.05,-0.05
233.57,1.81,1.86,1.85,1.90,-1.90,-1.77,-2.20,-0.09,-0.05,-0.05
235.90,1.81,1.87,1.83,1.88,-1.88,-1.73,-2.20,-0.06,-0.05,-0.06
238.26,1.81,1.86,1.80,1.84,-1.84,-1.68,-2.20,-0.03,-0.05,-0.05
240.64,1.81,1.86,1.76,1.80,-1.80,-1.64,-2.20,0.01,-0.04,-0.05
243.05,1.66,1.69,1.72,1.75,-1.75,-1.60,-2.20,-0.09,-0.04,-0.03
245.48,1.59,1.62,1.67,1.70,-1.70,-1.56,-2.19,-0.11,-0.03,-0.03
247.93,1.59,1.60,1.63,1.65,-1.65,-1.53,-2.17,-0.06,-0.02,-0.01
250.41,1.59,1.61,1.58,1.60,-1.60,-1.49,-2.16,-0.01,-0.01,-0.02
252.92,1.59,1.59,1.55,1.55,-1.55,-1.45,-2.14,0.04,-0.00,-0.00
255.45,1.59,1.57,1.51,1.51,-1.51,-1.41,-2.11,0.08,0.01,0.02
258.00,1.59,1.56,1.49,1.47,-1.47,-1.37,-2.09,0.12,0.02,0.03
260.58,1.44,1.41,1.46,1.43,-1.43,-1.34,-2.06,0.01,0.03,0.03
263.19,1.37,1.32,1.43,1.38,-1.38,-1.30,-2.02,-0.01,0.05,0.05
265.82,1.36,1.30,1.41,1.34,-1.34,-1.26,-1.99,0.02,0.07,0.06
268.48,1.36,1.28,1.39,1.31,-1.31,-1.23,-1.94,0.05,0.08,0.08
271.16,1.36,1.26,1.39,1.28,-1.28,-1.19,-1.90,0.08,0.10,0.10
273.87,1.36,1.24,1.37,1.25,-1.25,-1.16,-1.85,0.11,0.13,0.12
276.61,1.36,1.21,1.36,1.21,-1.21,-1.13,-1.81,0.15,0.15,0.15
279.38,1.36,1.19,1.35,1.18,-1.18,-1.09,-1.75,0.18,0.17,0.17
282.17,1.36,1.16,1.34,1.14,-1.14,-1.06,-1.70,0.22,0.20,0.20
284.99,1.36,1.14,1.34,1.12,-1.12,-1.03,-1.64,0.24,0.23,0.22
287.84,1.36,1.11,1.35,1.09,-1.09,-1.00,-1.59,0.27,0.26,0.25
290.72,1.36,1.07,1.36,1.07,-1.07,-0.97,-1.53,0.29,0.29,0.29
293.63,1.36,1.05,1.36,1.05,-1.05,-0.94,-1.47,0.31,0.31,0.32
296.57,1.36,1.02,1.36,1.02,-1.02,-0.91,-1.41,0.34,0.34,0.34
299.53,1.36,0.99,1.37,1.00,-1.00,-0.88,-1.34,0.36,0.37,0.37
302.53,1.36,0.97,1.37,0.98,-0.98,-0.85,-1.28,0.38,0.39,0.39
305.55,1.36,0.93,1.38,0.97,-0.97,-0.82,-1.22,0.39,0.41,0.43
308.61,1.36,0.92,1.38,0.95,-0.95,-0.80,-1.15,0.41,0.43,0.44
311.69,1.36,0.90,1.37,0.92,-0.92,-0.77,-1.09,0.44,0.45,0.46
314.81,1.36,0.87,1.36,0.90,-0.90,-0.74,-1.02,0.46,0.46,0.49
317.96,1.36,0.87,1.35,0.87,-0.87,-0.72,-0.96,0.49,0.48,0.49
321.14,1.36,0.87,1.34,0.85,-0.85,-0.69,-0.89,0.51,0.49,0.49
324.35,1.36,0.87,1.32,0.83,-0.83,-0.66,-0.83,0.53,0.50,0.49
327.59,1.36,0.86,1.31,0.80,-0.80,-0.64,-0.76,0.56,0.51,0.50
330.87,1.36,0.85,1.29,0.77,-0.77,-0.61,-0.69,0.60,0.52,0.51
334.18,1.25,0.73,1.26,0.73,-0.73,-0.59,-0.63,0.52,0.53,0.52
337.52,1.14,0.61,1.23,0.68,-0.68,-0.56,-0.56,0.46,0.54,0.53
340.90,1.13,0.57,1.19,0.63,-0.63,-0.54,-0.50,0.50,0.56,0.56
344.30,1.13,0.57,1.15,0.58,-0.58,-0.52,-0.43,0.55,0.57,0.57
347.75,1.13,0.55,1.12,0.52,-0.52,-0.49,-0.37,0.61,0.59,0.58
351.23,1.13,0.52,1.08,0.47,-0.47,-0.47,-0.30,0.66,0.61,0.61
354.74,1.13,0.50,1.04,0.41,-0.41,-0.45,-0.24,0.72,0.64,0.63
358.28,1.02,0.36,1.01,0.35,-0.35,-0.42,-0.18,0.67,0.66,0.66
361.87,0.93,0.25,0.98,0.30,-0.30,-0.40,-0.11,0.63,0.68,0.68
365.49,0.90,0.19,0.96,0.25,-0.25,-0.38,-0.05,0.65,0.71,0.71
369.14,0.90,0.17,0.94,0.21,-0.21,-0.35,0.02,0.69,0.73,0.73
372.83,0.90,0.14,0.93,0.18,-0.18,-0.33,0.08,0.72,0.75,0.76
376.56,0.90,0.13,0.92,0.14,-0.14,-0.31,0.14,0.76,0.77,0.77
380.33,0.90,0.10,0.90,0.11,-0.11,-0.29,0.21,0.79,0.79,0.80
384.13,0.90,0.08,0.89,0.08,-0.08,-0.26,0.27,0.82,0.81,0.82
387.97,0.90,0.07,0.89,0.06,-0.06,-0.24,0.33,0.84,0.83,0.83
391.85,0.90,0.06,0.88,0.04,-0.04,-0.22,0.39,0.86,0.84,0.84
395.77,0.90,0.05,0.89,0.03,-0.03,-0.19,0.45,0.87,0.85,0.85
399.73,0.90,0.04,0.89,0.03,-0.03,-0.17,0.52,0.87,0.86,0.86
403.72,0.90,0.03,0.90,0.03,-0.03,-0.15,0.58,0.87,0.87,0.87
407.76,0.90,0.02,0.90,0.02,-0.02,-0.12,0.64,0.88,0.88,0.88
411.84,0.90,0.01,0.90,0.02,-0.02,-0.10,0.70,0.88,0.88,0.89
415.96,0.90,0.00,0.91,0.02,-0.02,-0.07,0.76,0.88,0.89,0.90
420.12,0.90,0.00,0.92,0.03,-0.03,-0.05,0.81,0.87,0.89,0.90
424.32,0.90,0.00,0.92,0.02,-0.02,-0.02,0.87,0.88,0.89,0.90
428.56,0.90,0.00,0.91,0.02,-0.02,0.00,0.93,0.88,0.90,0.90
432.85,0.90,0.01,0.91,0.01,-0.01,0.03,0.98,0.89,0.90,0.89
437.18,0.90,-0.00,0.91,0.00,-0.00,0.06,1.04,0.90,0.91,0.90
441.55,0.90,-0.01,0.89,-0.02,0.02,0.08,1.09,0.92,0.91,0.91
445.96,0.90,-0.01,0.87,-0.05,0.05,0.11,1.14,0.95,0.92,0.91
450.42,0.90,-0.02,0.85,-0.07,0.07,0.14,1.19,0.97,0.93,0.92
454.93,0.90,-0.03,0.83,-0.11,0.11,0.17,1.24,1.01,0.94,0.93
459.48,0.85,-0.09,0.79,-0.15,0.15,0.20,1.28,1.01,0.95,0.94
464.07,0.70,-0.26,0.76,-0.21,0.21,0.23,1.33,0.91,0.96,0.96
468.71,0.67,-0.31,0.72,-0.26,0.26,0.27,1.37,0.94,0.98,0.98
473.40,0.67,-0.32,0.67,-0.33,0.33,0.30,1.41,1.00,1.00,0.99
478.13,0.67,-0.35,0.62,-0.40,0.40,0.33,1.44,1.07,1.02,1.02
482.91,0.50,-0.54,0.57,-0.47,0.47,0.37,1.48,0.97,1.05,1.04
487.74,0.45,-0.62,0.51,-0.56,0.56,0.41,1.51,1.01,1.07,1.07
492.62,0.45,-0.65,0.45,-0.65,0.65,0.45,1.54,1.10,1.09,1.10
497.55,0.45,-0.67,0.38,-0.74,0.74,0.49,1.56,1.19,1.12,1.12
502.52,0.32,-0.83,0.32,-0.83,0.83,0.53,1.59,1.15,1.15,1.15
507.55,0.23,-0.94,0.25,-0.92,0.92,0.58,1.61,1.15,1.17,1.17
512.62,0.22,-0.98,0.19,-1.00,1.00,0.63,1.63,1.22,1.19,1.20
517.75,0.18,-1.04,0.13,-1.08,1.08,0.68,1.64,1.26,1.22,1.22
522.93,0.03,-1.22,0.06,-1.17,1.17,0.73,1.66,1.20,1.24,1.25
528.16,-0.01,-1.27,-0.02,-1.27,1.27,0.78,1.67,1.26,1.26,1.26
533.44,-0.13,-1.41,-0.10,-1.37,1.37,0.84,1.68,1.24,1.27,1.28
538.77,-0.22,-1.52,-0.16,-1.45,1.45,0.90,1.69,1.23,1.29,1.30
544.16,-0.24,-1.55,-0.24,-1.54,1.54,0.96,1.69,1.30,1.30,1.31
