frequency,raw,error,smoothed,error_smoothed,equalization,parametric_eq,fixed_band_eq,equalized_raw,equalized_smoothed,target
20.00,-6.39,-9.73,-6.39,-9.73,6.00,6.99,2.70,-0.39,-0.39,3.34
20.20,-6.30,-9.68,-6.30,-9.67,6.00,6.96,2.78,-0.30,-0.30,3.38
20.40,-6.21,-9.62,-6.21,-9.62,6.00,6.92,2.86,-0.21,-0.21,3.41
20.61,-6.11,-9.55,-6.11,-9.56,6.00,6.89,2.94,-0.11,-0.11,3.44
20.81,-6.02,-9.50,-6.02,-9.50,6.00,6.86,3.02,-0.02,-0.02,3.48
21.02,-5.93,-9.45,-5.93,-9.43,6.00,6.83,3.11,0.07,0.07,3.52
21.23,-5.83,-9.36,-5.83,-9.36,6.00,6.79,3.20,0.17,0.17,3.53
21.44,-5.72,-9.27,-5.72,-9.27,6.00,6.76,3.30,0.28,0.28,3.55
21.66,-5.62,-9.19,-5.62,-9.18,6.00,6.72,3.39,0.38,0.38,3.57
21.87,-5.52,-9.09,-5.52,-9.09,6.00,6.69,3.49,0.48,0.48,3.58
22.09,-5.41,-9.00,-5.41,-9.00,6.00,6.65,3.59,0.59,0.59,3.60
22.31,-5.31,-8.90,-5.31,-8.91,6.00,6.62,3.69,0.69,0.69,3.60
22.54,-5.20,-8.81,-5.20,-8.80,6.00,6.58,3.80,0.80,0.80,3.61
22.76,-5.09,-8.70,-5.09,-8.70,6.00,6.54,3.90,0.91,0.91,3.61
22.99,-4.98,-8.59,-4.99,-8.60,6.00,6.51,4.01,1.02,1.01,3.61
23.22,-4.89,-8.51,-4.89,-8.51,6.00,6.47,4.13,1.11,1.11,3.62
23.45,-4.79,-8.42,-4.79,-8.42,6.00,6.43,4.24,1.21,1.21,3.63
23.69,-4.70,-8.34,-4.70,-8.34,6.00,6.39,4.36,1.30,1.30,3.64
23.92,-4.60,-8.25,-4.60,-8.25,6.00,6.35,4.48,1.40,1.40,3.65
24.16,-4.50,-8.16,-4.50,-8.16,6.00,6.31,4.61,1.50,1.50,3.66
24.40,-4.40,-8.07,-4.40,-8.06,6.00,6.27,4.73,1.60,1.60,3.67
24.65,-4.30,-7.96,-4.30,-7.96,6.00,6.23,4.86,1.70,1.70,3.66
24.89,-4.19,-7.85,-4.19,-7.86,6.00,6.19,4.99,1.81,1.81,3.66
25.14,-4.10,-7.76,-4.10,-7.76,6.00,6.15,5.12,1.90,1.90,3.66
25.39,-4.01,-7.67,-4.01,-7.67,6.00,6.11,5.25,1.99,1.99,3.66
25.65,-3.92,-7.58,-3.92,-7.58,6.00,6.07,5.38,2.08,2.08,3.66
25.91,-3.83,-7.48,-3.83,-7.49,6.00,6.02,5.52,2.17,2.17,3.65
26.16,-3.75,-7.41,-3.75,-7.41,6.00,5.98,5.65,2.25,2.25,3.66
26.43,-3.67,-7.33,-3.66,-7.32,6.00,5.94,5.78,2.33,2.34,3.66
26.69,-3.58,-7.24,-3.58,-7.24,6.00,5.89,5.91,2.42,2.42,3.66
26.96,-3.50,-7.16,-3.50,-7.16,6.00,5.85,6.04,2.50,2.50,3.66
27.23,-3.43,-7.09,-3.43,-7.08,6.00,5.80,6.16,2.57,2.57,3.66
27.50,-3.35,-7.01,-3.35,-7.01,6.00,5.76,6.28,2.65,2.65,3.66
27.77,-3.28,-6.92,-3.28,-6.93,6.00,5.71,6.40,2.72,2.72,3.64
28.05,-3.21,-6.85,-3.21,-6.85,6.00,5.67,6.51,2.79,2.79,3.64
28.33,-3.14,-6.77,-3.14,-6.78,6.00,5.62,6.62,2.86,2.86,3.63
28.62,-3.07,-6.71,-3.07,-6.71,6.00,5.57,6.72,2.93,2.93,3.64
28.90,-2.99,-6.63,-2.99,-6.62,6.00,5.53,6.81,3.01,3.02,3.64
29.19,-2.89,-6.52,-2.88,-6.52,6.01,5.48,6.89,3.12,3.13,3.63
29.48,-2.76,-6.40,-2.76,-6.40,6.02,5.43,6.96,3.26,3.26,3.64
29.78,-2.63,-6.27,-2.64,-6.28,6.02,5.38,7.03,3.39,3.38,3.64
30.08,-2.53,-6.17,-2.54,-6.18,6.01,5.33,7.08,3.48,3.47,3.64
30.38,-2.47,-6.10,-2.47,-6.10,5.99,5.28,7.12,3.52,3.52,3.63
30.68,-2.42,-6.05,-2.41,-6.04,5.96,5.23,7.14,3.54,3.55,3.63
30.99,-2.36,-5.97,-2.35,-5.97,5.92,5.18,7.16,3.56,3.56,3.61
31.30,-2.27,-5.88,-2.27,-5.88,5.86,5.13,7.16,3.59,3.59,3.61
31.61,-2.18,-5.79,-2.18,-5.79,5.79,5.08,7.15,3.61,3.61,3.61
31.93,-2.08,-5.68,-2.09,-5.69,5.72,5.03,7.12,3.64,3.63,3.60
32.24,-2.01,-5.60,-2.01,-5.60,5.63,4.98,7.09,3.62,3.62,3.59
32.57,-1.94,-5.53,-1.94,-5.52,5.55,4.93,7.04,3.61,3.61,3.59
32.89,-1.87,-5.46,-1.87,-5.45,5.46,4.87,6.98,3.59,3.59,3.59
33.22,-1.80,-5.38,-1.80,-5.38,5.37,4.82,6.90,3.57,3.58,3.58
33.55,-1.72,-5.30,-1.72,-5.30,5.29,4.77,6.82,3.57,3.57,3.58
33.89,-1.64,-5.22,-1.64,-5.22,5.21,4.71,6.73,3.57,3.57,3.58
34.23,-1.56,-5.14,-1.56,-5.14,5.13,4.66,6.63,3.57,3.57,3.58
34.57,-1.48,-5.05,-1.48,-5.05,5.04,4.60,6.52,3.56,3.56,3.57
34.92,-1.40,-4.97,-1.40,-4.97,4.96,4.55,6.41,3.56,3.56,3.57
35.27,-1.32,-4.88,-1.31,-4.87,4.89,4.49,6.29,3.57,3.58,3.56
35.62,-1.24,-4.79,-1.24,-4.79,4.83,4.44,6.16,3.59,3.59,3.55
35.97,-1.16,-4.71,-1.18,-4.73,4.76,4.38,6.03,3.60,3.58,3.55
36.33,-1.14,-4.69,-1.15,-4.69,4.70,4.33,5.90,3.56,3.56,3.55
36.70,-1.13,-4.68,-1.12,-4.66,4.64,4.27,5.76,3.51,3.52,3.55
37.06,-1.10,-4.63,-1.08,-4.62,4.58,4.21,5.63,3.48,3.50,3.53
37.43,-1.01,-4.54,-1.01,-4.54,4.52,4.16,5.49,3.51,3.50,3.53
37.81,-0.92,-4.45,-0.93,-4.45,4.45,4.10,5.35,3.53,3.52,3.53
38.19,-0.84,-4.36,-0.84,-4.36,4.37,4.04,5.21,3.53,3.53,3.52
38.57,-0.77,-4.28,-0.77,-4.28,4.29,3.98,5.07,3.52,3.52,3.51
38.95,-0.70,-4.21,-0.69,-4.20,4.20,3.92,4.93,3.50,3.51,3.51
39.34,-0.61,-4.11,-0.61,-4.11,4.11,3.87,4.79,3.50,3.49,3.50
39.74,-0.53,-4.01,-0.53,-4.02,4.01,3.81,4.66,3.48,3.48,3.48
40.14,-0.44,-3.93,-0.44,-3.93,3.92,3.75,4.52,3.48,3.48,3.49
40.54,-0.35,-3.84,-0.35,-3.83,3.83,3.69,4.39,3.48,3.49,3.49
40.94,-0.25,-3.73,-0.26,-3.74,3.75,3.63,4.26,3.50,3.49,3.48
41.35,-0.18,-3.65,-0.17,-3.64,3.67,3.57,4.13,3.49,3.49,3.47
41.76,-0.10,-3.56,-0.10,-3.56,3.58,3.51,4.01,3.48,3.48,3.46
42.18,-0.05,-3.49,-0.06,-3.50,3.50,3.45,3.88,3.45,3.44,3.44
42.60,-0.03,-3.45,-0.03,-3.45,3.42,3.39,3.76,3.39,3.40,3.42
43.03,0.00,-3.40,0.03,-3.37,3.35,3.33,3.64,3.35,3.38,3.40
43.46,0.10,-3.28,0.10,-3.27,3.27,3.27,3.52,3.37,3.37,3.38
43.90,0.20,-3.14,0.17,-3.18,3.19,3.21,3.41,3.39,3.35,3.34
44.33,0.22,-3.09,0.21,-3.10,3.11,3.15,3.30,3.33,3.32,3.31
44.78,0.22,-3.06,0.24,-3.03,3.03,3.09,3.19,3.25,3.28,3.28
45.23,0.27,-2.98,0.30,-2.95,2.96,3.03,3.08,3.23,3.25,3.25
45.68,0.38,-2.85,0.36,-2.86,2.88,2.97,2.98,3.26,3.24,3.23
46.13,0.45,-2.76,0.42,-2.80,2.81,2.90,2.88,3.26,3.23,3.21
46.60,0.45,-2.75,0.46,-2.74,2.74,2.84,2.78,3.19,3.19,3.20
47.06,0.46,-2.73,0.50,-2.69,2.66,2.78,2.68,3.12,3.16,3.19
47.53,0.57,-2.61,0.56,-2.62,2.59,2.72,2.59,3.16,3.15,3.18
48.01,0.67,-2.52,0.65,-2.53,2.53,2.66,2.49,3.20,3.18,3.19
48.49,0.73,-2.45,0.74,-2.44,2.46,2.60,2.40,3.19,3.20,3.18
48.97,0.80,-2.37,0.80,-2.37,2.40,2.54,2.31,3.20,3.20,3.17
49.46,0.85,-2.31,0.85,-2.32,2.35,2.47,2.23,3.20,3.20,3.17
49.96,0.90,-2.27,0.89,-2.28,2.29,2.41,2.14,3.19,3.18,3.17
50.46,0.92,-2.26,0.92,-2.26,2.24,2.35,2.06,3.16,3.16,3.18
50.96,0.95,-2.24,0.98,-2.21,2.19,2.29,1.98,3.14,3.17,3.19
51.47,1.04,-2.14,1.04,-2.15,2.14,2.23,1.90,3.18,3.18,3.18
51.99,1.13,-2.05,1.09,-2.09,2.08,2.17,1.83,3.21,3.17,3.18
52.51,1.13,-2.04,1.13,-2.03,2.02,2.11,1.75,3.15,3.15,3.17
53.03,1.14,-2.01,1.19,-1.96,1.95,2.05,1.68,3.09,3.14,3.15
53.56,1.26,-1.86,1.25,-1.86,1.87,1.99,1.61,3.13,3.13,3.12
54.10,1.36,-1.72,1.32,-1.76,1.79,1.93,1.54,3.15,3.11,3.08
54.64,1.36,-1.68,1.36,-1.68,1.70,1.86,1.47,3.06,3.06,3.04
55.18,1.36,-1.64,1.36,-1.63,1.61,1.80,1.41,2.97,2.97,3.00
55.74,1.36,-1.59,1.39,-1.57,1.52,1.74,1.34,2.88,2.90,2.95
56.29,1.43,-1.48,1.45,-1.45,1.42,1.68,1.28,2.86,2.88,2.91
56.86,1.56,-1.30,1.52,-1.33,1.34,1.62,1.22,2.90,2.86,2.85
57.42,1.59,-1.20,1.58,-1.22,1.26,1.57,1.16,2.85,2.84,2.79
58.00,1.59,-1.15,1.60,-1.14,1.19,1.51,1.10,2.78,2.79,2.74
58.58,1.59,-1.10,1.59,-1.10,1.12,1.45,1.04,2.71,2.71,2.69
59.16,1.59,-1.05,1.59,-1.05,1.05,1.39,0.99,2.64,2.64,2.64
59.76,1.59,-1.00,1.59,-1.00,0.98,1.33,0.93,2.58,2.58,2.59
60.35,1.59,-0.94,1.59,-0.95,0.92,1.27,0.88,2.51,2.50,2.53
60.96,1.59,-0.89,1.58,-0.90,0.85,1.21,0.83,2.44,2.42,2.48
61.57,1.59,-0.83,1.61,-0.81,0.77,1.16,0.78,2.36,2.38,2.42
62.18,1.63,-0.73,1.67,-0.70,0.69,1.10,0.73,2.32,2.36,2.36
62.80,1.77,-0.55,1.74,-0.59,0.61,1.04,0.68,2.38,2.34,2.33
63.43,1.81,-0.47,1.79,-0.49,0.53,0.98,0.64,2.34,2.33,2.28
64.07,1.81,-0.43,1.82,-0.42,0.46,0.93,0.59,2.27,2.28,2.24
64.71,1.81,-0.39,1.81,-0.39,0.40,0.87,0.55,2.21,2.22,2.20
65.35,1.81,-0.36,1.81,-0.36,0.35,0.81,0.50,2.16,2.16,2.17
66.01,1.81,-0.33,1.81,-0.33,0.32,0.76,0.46,2.13,2.13,2.14
66.67,1.81,-0.30,1.81,-0.30,0.29,0.70,0.42,2.10,2.10,2.11
67.33,1.81,-0.28,1.81,-0.28,0.28,0.65,0.38,2.09,2.09,2.09
68.01,1.81,-0.26,1.81,-0.26,0.27,0.59,0.33,2.08,2.08,2.07
68.69,1.81,-0.24,1.81,-0.24,0.25,0.54,0.29,2.06,2.06,2.05
69.37,1.81,-0.22,1.81,-0.22,0.23,0.49,0.26,2.04,2.04,2.03
70.07,1.81,-0.20,1.81,-0.21,0.19,0.43,0.22,2.00,2.00,2.01
70.77,1.81,-0.19,1.80,-0.20,0.15,0.38,0.18,1.96,1.94,2.00
71.48,1.81,-0.17,1.83,-0.15,0.10,0.33,0.14,1.91,1.93,1.98
72.19,1.86,-0.11,1.90,-0.07,0.05,0.27,0.10,1.91,1.95,1.97
72.91,2.02,0.08,1.97,0.03,0.01,0.22,0.06,2.03,1.98,1.94
73.64,2.04,0.11,2.03,0.10,-0.04,0.17,0.03,2.00,1.99,1.93
74.38,2.04,0.13,2.05,0.15,-0.09,0.12,-0.01,1.95,1.96,1.91
75.12,2.04,0.15,2.04,0.15,-0.14,0.07,-0.05,1.90,1.90,1.89
75.87,2.04,0.17,2.03,0.16,-0.20,0.02,-0.08,1.84,1.84,1.87
76.63,2.04,0.19,2.04,0.19,-0.24,-0.03,-0.12,1.80,1.80,1.85
77.40,2.06,0.22,2.08,0.24,-0.28,-0.08,-0.16,1.78,1.80,1.84
78.17,2.13,0.30,2.15,0.32,-0.31,-0.13,-0.20,1.82,1.84,1.83
78.95,2.26,0.43,2.22,0.39,-0.35,-0.18,-0.24,1.91,1.87,1.83
79.74,2.27,0.44,2.27,0.44,-0.40,-0.23,-0.27,1.87,1.87,1.83
80.54,2.27,0.45,2.28,0.46,-0.45,-0.28,-0.31,1.82,1.83,1.82
81.35,2.27,0.45,2.27,0.45,-0.49,-0.33,-0.35,1.78,1.78,1.82
82.16,2.29,0.46,2.31,0.49,-0.53,-0.38,-0.39,1.76,1.78,1.83
82.98,2.37,0.53,2.38,0.54,-0.56,-0.42,-0.43,1.81,1.82,1.84
83.81,2.48,0.63,2.45,0.60,-0.58,-0.47,-0.47,1.90,1.87,1.85
84.65,2.50,0.64,2.50,0.63,-0.58,-0.52,-0.51,1.92,1.91,1.86
85.50,2.50,0.62,2.51,0.63,-0.58,-0.56,-0.55,1.92,1.93,1.89
86.35,2.50,0.60,2.50,0.60,-0.58,-0.61,-0.60,1.92,1.92,1.90
87.22,2.50,0.58,2.50,0.58,-0.58,-0.66,-0.64,1.92,1.92,1.92
88.09,2.50,0.57,2.50,0.56,-0.58,-0.70,-0.68,1.92,1.92,1.93
88.97,2.50,0.53,2.49,0.53,-0.58,-0.75,-0.73,1.92,1.91,1.97
89.86,2.50,0.52,2.51,0.53,-0.58,-0.79,-0.77,1.92,1.92,1.98
90.76,2.52,0.54,2.56,0.57,-0.60,-0.83,-0.82,1.92,1.96,1.98
91.66,2.65,0.64,2.63,0.63,-0.62,-0.88,-0.86,2.03,2.01,2.01
92.58,2.72,0.72,2.69,0.68,-0.64,-0.92,-0.91,2.08,2.05,2.00
93.51,2.72,0.70,2.73,0.71,-0.66,-0.96,-0.96,2.06,2.07,2.02
94.44,2.72,0.69,2.73,0.70,-0.69,-1.01,-1.00,2.03,2.04,2.03
95.39,2.72,0.69,2.72,0.70,-0.70,-1.05,-1.05,2.02,2.02,2.03
96.34,2.72,0.71,2.72,0.70,-0.71,-1.09,-1.10,2.01,2.01,2.01
97.30,2.72,0.71,2.72,0.71,-0.72,-1.13,-1.15,2.00,2.00,2.01
98.28,2.72,0.72,2.72,0.72,-0.72,-1.17,-1.20,2.00,2.00,2.00
99.26,2.72,0.73,2.72,0.72,-0.73,-1.21,-1.25,1.99,1.99,1.99
100.25,2.72,0.73,2.72,0.74,-0.74,-1.25,-1.30,1.98,1.98,1.99
101.25,2.72,0.75,2.72,0.75,-0.75,-1.29,-1.35,1.97,1.97,1.97
102.27,2.72,0.77,2.72,0.77,-0.77,-1.33,-1.40,1.95,1.95,1.95
103.29,2.72,0.80,2.72,0.80,-0.79,-1.37,-1.45,1.93,1.93,1.92
104.32,2.72,0.82,2.72,0.82,-0.81,-1.40,-1.50,1.91,1.91,1.90
105.37,2.72,0.85,2.72,0.85,-0.85,-1.44,-1.55,1.87,1.87,1.87
106.42,2.72,0.89,2.72,0.89,-0.89,-1.47,-1.60,1.83,1.83,1.83
107.48,2.72,0.94,2.72,0.94,-0.95,-1.51,-1.65,1.77,1.77,1.78
108.56,2.72,1.00,2.70,0.98,-1.02,-1.54,-1.70,1.70,1.68,1.72
109.64,2.72,1.05,2.73,1.06,-1.10,-1.58,-1.74,1.62,1.63,1.67
110.74,2.73,1.11,2.79,1.17,-1.19,-1.61,-1.79,1.54,1.60,1.62
111.85,2.92,1.35,2.87,1.30,-1.28,-1.64,-1.83,1.64,1.58,1.57
112.97,2.95,1.45,2.93,1.42,-1.38,-1.67,-1.87,1.57,1.55,1.50
114.10,2.95,1.49,2.97,1.51,-1.47,-1.71,-1.91,1.48,1.49,1.46
115.24,2.95,1.55,2.95,1.56,-1.56,-1.74,-1.95,1.39,1.40,1.40
116.39,2.95,1.61,2.95,1.61,-1.62,-1.77,-1.99,1.33,1.33,1.34
117.55,2.95,1.66,2.95,1.66,-1.66,-1.79,-2.02,1.29,1.29,1.29
118.73,2.95,1.71,2.96,1.71,-1.68,-1.82,-2.05,1.27,1.28,1.24
119.92,2.95,1.73,2.95,1.74,-1.68,-1.85,-2.08,1.27,1.26,1.22
121.12,2.94,1.76,2.89,1.71,-1.68,-1.87,-2.11,1.26,1.22,1.18
122.33,2.80,1.65,2.82,1.66,-1.67,-1.90,-2.13,1.14,1.16,1.15
123.55,2.72,1.57,2.75,1.61,-1.65,-1.92,-2.15,1.07,1.10,1.15
124.79,2.72,1.60,2.71,1.58,-1.64,-1.95,-2.16,1.08,1.07,1.12
126.03,2.72,1.61,2.71,1.60,-1.63,-1.97,-2.17,1.09,1.08,1.11
127.29,2.72,1.63,2.72,1.63,-1.63,-1.99,-2.18,1.09,1.09,1.09
128.57,2.72,1.65,2.72,1.65,-1.63,-2.01,-2.19,1.09,1.09,1.07
129.85,2.72,1.66,2.72,1.66,-1.65,-2.03,-2.19,1.07,1.07,1.06
131.15,2.72,1.68,2.72,1.68,-1.67,-2.05,-2.19,1.05,1.05,1.04
132.46,2.72,1.70,2.72,1.70,-1.70,-2.07,-2.19,1.02,1.02,1.02
133.79,2.72,1.71,2.72,1.72,-1.72,-2.08,-2.19,1.00,1.00,1.01
135.12,2.72,1.74,2.72,1.73,-1.74,-2.10,-2.18,0.98,0.98,0.98
136.48,2.72,1.75,2.72,1.76,-1.76,-2.11,-2.17,0.96,0.96,0.97
137.84,2.72,1.77,2.72,1.78,-1.78,-2.13,-2.16,0.94,0.94,0.95
139.22,2.72,1.81,2.72,1.81,-1.80,-2.14,-2.15,0.92,0.92,0.91
140.61,2.72,1.84,2.72,1.83,-1.83,-2.15,-2.13,0.89,0.89,0.88
142.02,2.72,1.85,2.72,1.86,-1.85,-2.16,-2.12,0.87,0.87,0.87
143.44,2.72,1.88,2.72,1.88,-1.88,-2.17,-2.10,0.84,0.84,0.84
144.87,2.72,1.91,2.72,1.91,-1.91,-2.18,-2.08,0.81,0.81,0.81
146.32,2.72,1.94,2.72,1.94,-1.95,-2.19,-2.07,0.77,0.77,0.78
147.78,2.72,1.97,2.72,1.98,-1.99,-2.19,-2.05,0.73,0.73,0.75
149.26,2.72,2.03,2.72,2.03,-2.04,-2.20,-2.03,0.68,0.68,0.70
150.75,2.72,2.09,2.72,2.08,-2.09,-2.20,-2.01,0.63,0.63,0.63
152.26,2.72,2.14,2.72,2.15,-2.15,-2.21,-1.99,0.57,0.57,0.58
153.78,2.72,2.21,2.72,2.22,-2.22,-2.21,-1.98,0.50,0.50,0.51
155.32,2.72,2.29,2.72,2.28,-2.29,-2.21,-1.96,0.43,0.43,0.43
156.88,2.72,2.35,2.72,2.35,-2.36,-2.21,-1.94,0.36,0.36,0.37
158.44,2.72,2.42,2.72,2.42,-2.43,-2.21,-1.93,0.29,0.29,0.30
160.03,2.72,2.48,2.72,2.48,-2.48,-2.21,-1.91,0.24,0.24,0.24
161.63,2.72,2.53,2.72,2.53,-2.52,-2.21,-1.90,0.20,0.20,0.19
163.24,2.72,2.57,2.73,2.58,-2.54,-2.21,-1.89,0.18,0.19,0.15
164.88,2.72,2.60,2.71,2.59,-2.54,-2.20,-1.87,0.18,0.17,0.12
166.53,2.69,2.60,2.66,2.56,-2.53,-2.20,-1.86,0.16,0.13,0.09
168.19,2.57,2.50,2.59,2.51,-2.50,-2.19,-1.86,0.07,0.08,0.07
169.87,2.50,2.43,2.53,2.46,-2.48,-2.19,-1.85,0.02,0.04,0.07
171.57,2.50,2.43,2.49,2.42,-2.47,-2.18,-1.84,0.03,0.03,0.07
173.29,2.50,2.42,2.48,2.40,-2.46,-2.17,-1.84,0.04,0.02,0.08
175.02,2.50,2.40,2.50,2.41,-2.45,-2.16,-1.84,0.05,0.05,0.10
176.77,2.50,2.39,2.56,2.45,-2.46,-2.16,-1.83,0.04,0.10,0.11
178.54,2.67,2.55,2.63,2.51,-2.48,-2.15,-1.84,0.19,0.15,0.12
180.32,2.72,2.58,2.70,2.56,-2.51,-2.14,-1.84,0.21,0.19,0.14
182.13,2.72,2.57,2.73,2.58,-2.54,-2.12,-1.84,0.18,0.20,0.15
183.95,2.72,2.56,2.73,2.57,-2.57,-2.11,-1.84,0.16,0.16,0.16
185.79,2.72,2.57,2.72,2.57,-2.59,-2.10,-1.85,0.13,0.13,0.15
187.65,2.72,2.58,2.72,2.58,-2.61,-2.09,-1.86,0.11,0.11,0.14
189.52,2.72,2.59,2.72,2.59,-2.61,-2.07,-1.87,0.11,0.11,0.13
191.42,2.72,2.60,2.72,2.60,-2.61,-2.06,-1.88,0.11,0.11,0.12
193.33,2.72,2.62,2.73,2.62,-2.60,-2.04,-1.89,0.12,0.14,0.10
195.27,2.72,2.62,2.72,2.63,-2.59,-2.03,-1.90,0.13,0.14,0.10
197.22,2.72,2.63,2.67,2.59,-2.57,-2.01,-1.91,0.15,0.10,0.09
199.19,2.59,2.53,2.60,2.53,-2.55,-1.99,-1.93,0.04,0.05,0.06
201.18,2.50,2.44,2.54,2.49,-2.52,-1.98,-1.94,-0.02,0.03,0.06
203.19,2.50,2.45,2.50,2.45,-2.47,-1.96,-1.96,0.03,0.03,0.05
205.23,2.50,2.47,2.46,2.42,-2.41,-1.94,-1.98,0.09,0.05,0.03
207.28,2.42,2.39,2.42,2.40,-2.34,-1.92,-1.99,0.08,0.08,0.03
209.35,2.30,2.29,2.33,2.32,-2.28,-1.90,-2.01,0.02,0.05,0.01
211.44,2.27,2.28,2.22,2.22,-2.22,-1.88,-2.03,0.05,-0.00,-0.01
213.56,2.11,2.12,2.13,2.14,-2.18,-1.86,-2.04,-0.07,-0.05,-0.01
215.69,2.04,2.05,2.07,2.08,-2.14,-1.84,-2.06,-0.10,-0.08,-0.01
217.85,2.04,2.06,2.03,2.05,-2.11,-1.82,-2.07,-0.07,-0.08,-0.02
220.03,2.04,2.07,2.03,2.07,-2.08,-1.80,-2.09,-0.04,-0.05,-0.03
222.23,2.04,2.09,2.04,2.08,-2.06,-1.78,-2.10,-0.02,-0.02,-0.05
224.45,2.04,2.09,2.06,2.10,-2.04,-1.76,-2.11,-0.00,0.02,-0.05
226.70,2.04,2.08,2.04,2.08,-2.03,-1.74,-2.12,0.01,0.01,-0.04
228.96,2.04,2.09,1.98,2.03,-2.01,-1.72,-2.13,0.03,-0.03,-0.05
231.25,1.87,1.92,1.91,1.96,-1.98,-1.69,-2.14,-0.11,-0.07,-0.05
233.57,1.81,1.86,1.84,1.89,-1.93,-1.67,-2.14,-0.12,-0.10,-0.05
235.90,1.81,1.87,1.81,1.87,-1.88,-1.65,-2.14,-0.07,-0.07,-0.06
238.26,1.81,1.86,1.80,1.86,-1.82,-1.62,-2.14,-0.01,-0.02,-0.05
240.64,1.81,1.86,1.76,1.80,-1.77,-1.60,-2.14,0.04,-0.01,-0.05
243.05,1.66,1.69,1.69,1.72,-1.73,-1.58,-2.13,-0.07,-0.04,-0.03
245.48,1.59,1.62,1.62,1.65,-1.69,-1.55,-2.12,-0.10,-0.07,-0.03
247.93,1.59,1.60,1.58,1.60,-1.66,-1.53,-2.11,-0.07,-0.08,-0.01
250.41,1.59,1.61,1.58,1.60,-1.61,-1.51,-2.09,-0.02,-0.03,-0.02
252.92,1.59,1.59,1.60,1.60,-1.56,-1.48,-2.07,0.03,0.04,-0.00
255.45,1.59,1.57,1.59,1.58,-1.51,-1.46,-2.05,0.08,0.08,0.02
258.00,1.59,1.56,1.54,1.51,-1.47,-1.43,-2.02,0.12,0.07,0.03
260.58,1.44,1.41,1.47,1.43,-1.43,-1.41,-1.99,0.01,0.04,0.03
263.19,1.37,1.32,1.40,1.35,-1.39,-1.38,-1.96,-0.02,0.01,0.05
265.82,1.36,1.30,1.35,1.29,-1.34,-1.36,-1.92,0.02,0.01,0.06
268.48,1.36,1.28,1.35,1.28,-1.30,-1.34,-1.88,0.06,0.06,0.08
271.16,1.36,1.26,1.36,1.26,-1.26,-1.31,-1.84,0.10,0.10,0.10
273.87,1.36,1.24,1.36,1.24,-1.23,-1.28,-1.80,0.13,0.13,0.12
276.61,1.36,1.21,1.36,1.22,-1.20,-1.26,-1.75,0.16,0.16,0.15
279.38,1.36,1.19,1.36,1.19,-1.18,-1.23,-1.70,0.18,0.18,0.17
282.17,1.36,1.16,1.36,1.16,-1.16,-1.21,-1.65,0.20,0.20,0.20
284.99,1.36,1.14,1.36,1.14,-1.14,-1.18,-1.60,0.23,0.23,0.22
287.84,1.36,1.11,1.36,1.11,-1.11,-1.16,-1.55,0.25,0.25,0.25
290.72,1.36,1.07,1.36,1.08,-1.08,-1.13,-1.49,0.28,0.28,0.29
293.63,1.36,1.05,1.36,1.04,-1.05,-1.11,-1.43,0.31,0.31,0.32
296.57,1.36,1.02,1.36,1.02,-1.02,-1.08,-1.38,0.34,0.34,0.34
299.53,1.36,0.99,1.36,0.99,-0.99,-1.05,-1.32,0.37,0.37,0.37
302.53,1.36,0.97,1.36,0.97,-0.96,-1.03,-1.26,0.40,0.40,0.39
305.55,1.36,0.93,1.36,0.94,-0.94,-1.00,-1.20,0.42,0.42,0.43
308.61,1.36,0.92,1.36,0.92,-0.92,-0.97,-1.14,0.44,0.44,0.44
311.69,1.36,0.90,1.36,0.89,-0.91,-0.95,-1.08,0.45,0.45,0.46
314.81,1.36,0.87,1.36,0.88,-0.90,-0.92,-1.02,0.46,0.46,0.49
317.96,1.36,0.87,1.36,0.87,-0.89,-0.89,-0.96,0.47,0.47,0.49
321.14,1.36,0.87,1.36,0.87,-0.87,-0.87,-0.89,0.49,0.49,0.49
324.35,1.36,0.87,1.37,0.88,-0.84,-0.84,-0.83,0.52,0.53,0.49
327.59,1.36,0.86,1.37,0.86,-0.81,-0.81,-0.77,0.55,0.56,0.50
330.87,1.36,0.85,1.32,0.81,-0.77,-0.78,-0.71,0.59,0.55,0.51
334.18,1.25,0.73,1.25,0.73,-0.73,-0.76,-0.65,0.52,0.52,0.52
337.52,1.14,0.61,1.18,0.65,-0.69,-0.73,-0.59,0.45,0.49,0.53
340.90,1.13,0.57,1.13,0.58,-0.64,-0.70,-0.53,0.49,0.48,0.56
344.30,1.13,0.57,1.12,0.55,-0.59,-0.67,-0.47,0.54,0.53,0.57
347.75,1.13,0.55,1.14,0.55,-0.52,-0.64,-0.41,0.61,0.62,0.58
351.23,1.13,0.52,1.13,0.52,-0.46,-0.61,-0.35,0.67,0.67,0.61
354.74,1.13,0.50,1.09,0.46,-0.41,-0.58,-0.29,0.72,0.68,0.63
358.28,1.02,0.36,1.03,0.37,-0.35,-0.56,-0.23,0.67,0.67,0.66
361.87,0.93,0.25,0.96,0.27,-0.30,-0.53,-0.17,0.63,0.65,0.68
365.49,0.90,0.19,0.90,0.20,-0.25,-0.50,-0.11,0.65,0.66,0.71
369.14,0.90,0.17,0.89,0.16,-0.19,-0.46,-0.05,0.71,0.70,0.73
372.83,0.90,0.14,0.90,0.14,-0.15,-0.43,0.01,0.75,0.75,0.76
376.56,0.90,0.13,0.90,0.12,-0.11,-0.40,0.06,0.79,0.79,0.77
380.33,0.90,0.10,0.90,0.10,-0.09,-0.37,0.12,0.81,0.81,0.80
384.13,0.90,0.08,0.90,0.08,-0.08,-0.34,0.18,0.82,0.82,0.82
387.97,0.90,0.07,0.90,0.07,-0.07,-0.30,0.24,0.83,0.83,0.83
391.85,0.90,0.06,0.90,0.06,-0.06,-0.27,0.29,0.84,0.84,0.84
395.77,0.90,0.05,0.90,0.05,-0.05,-0.24,0.35,0.85,0.85,0.85
399.73,0.90,0.04,0.90,0.04,-0.04,-0.20,0.41,0.86,0.86,0.86
403.72,0.90,0.03,0.90,0.03,-0.03,-0.17,0.46,0.87,0.87,0.87
407.76,0.90,0.02,0.90,0.02,-0.02,-0.13,0.52,0.88,0.88,0.88
411.84,0.90,0.01,0.90,0.01,-0.02,-0.09,0.57,0.88,0.88,0.89
415.96,0.90,0.00,0.90,0.01,-0.01,-0.06,0.63,0.89,0.89,0.90
420.12,0.90,0.00,0.90,0.00,-0.01,-0.02,0.68,0.89,0.89,0.90
424.32,0.90,0.00,0.90,0.00,-0.01,0.02,0.73,0.89,0.89,0.90
428.56,0.90,0.00,0.90,0.01,-0.01,0.06,0.78,0.89,0.89,0.90
432.85,0.90,0.01,0.90,0.00,-0.01,0.10,0.83,0.89,0.89,0.89
437.18,0.90,-0.00,0.90,-0.00,-0.01,0.15,0.88,0.89,0.89,0.90
441.55,0.90,-0.01,0.90,-0.01,0.00,0.19,0.93,0.90,0.90,0.91
445.96,0.90,-0.01,0.91,-0.01,0.02,0.23,0.98,0.92,0.93,0.91
450.42,0.90,-0.02,0.91,-0.01,0.05,0.28,1.02,0.95,0.96,0.92
454.93,0.90,-0.03,0.88,-0.05,0.09,0.33,1.07,0.99,0.97,0.93
459.48,0.85,-0.09,0.82,-0.13,0.14,0.38,1.11,0.99,0.95,0.94
464.07,0.70,-0.26,0.74,-0.22,0.20,0.43,1.15,0.90,0.94,0.96
468.71,0.67,-0.31,0.70,-0.28,0.26,0.48,1.19,0.93,0.96,0.98
473.40,0.67,-0.32,0.65,-0.34,0.34,0.53,1.23,1.01,0.99,0.99
478.13,0.67,-0.35,0.61,-0.41,0.41,0.59,1.26,1.08,1.02,1.02
482.91,0.50,-0.54,0.54,-0.50,0.50,0.65,1.29,1.00,1.04,1.04
487.74,0.45,-0.62,0.49,-0.58,0.57,0.71,1.32,1.02,1.06,1.07
492.62,0.45,-0.65,0.44,-0.66,0.65,0.77,1.35,1.10,1.09,1.10
497.55,0.45,-0.67,0.40,-0.72,0.73,0.83,1.38,1.18,1.13,1.12
502.52,0.32,-0.83,0.34,-0.81,0.82,0.90,1.40,1.14,1.15,1.15
507.55,0.23,-0.94,0.28,-0.90,0.91,0.97,1.42,1.14,1.18,1.17
512.62,0.22,-0.98,0.20,-1.00,1.00,1.04,1.44,1.22,1.20,1.20
517.75,0.18,-1.04,0.15,-1.08,1.09,1.11,1.46,1.27,1.24,1.22
522.93,0.03,-1.22,0.07,-1.17,1.19,1.19,1.47,1.22,1.26,1.25
528.16,-0.01,-1.27,-0.04,-1.30,1.28,1.26,1.49,1.27,1.24,1.26
533.44,-0.13,-1.41,-0.13,-1.41,1.37,1.35,1.50,1.24,1.24,1.28
538.77,-0.22,-1.52,-0.18,-1.47,1.46,1.43,1.51,1.24,1.28,1.30
544.16,-0.24,-1.55,-0.25,-1.56,1.55,1.52,1.52,1.31,1.30,1.31
