frequency,raw
20.00,5.87
20.20,5.94
20.40,6.00
20.61,6.07
20.81,6.13
21.02,6.19
21.23,6.24
21.44,6.28
21.66,6.32
21.87,6.37
22.09,6.41
22.31,6.45
22.54,6.49
22.76,6.53
22.99,6.57
23.22,6.62
23.45,6.68
23.69,6.73
23.92,6.78
24.16,6.84
24.40,6.90
24.65,6.96
24.89,7.02
25.14,7.08
25.39,7.14
25.65,7.20
25.91,7.26
26.16,7.31
26.43,7.35
26.69,7.40
26.96,7.44
27.23,7.47
27.50,7.50
27.77,7.52
28.05,7.54
28.33,7.53
28.62,7.52
28.90,7.50
29.19,7.46
29.48,7.41
29.78,7.35
30.08,7.28
30.38,7.17
30.68,7.06
30.99,6.95
31.30,6.79
31.61,6.61
31.93,6.44
32.24,6.21
32.57,5.97
32.89,5.73
33.22,5.43
33.55,5.11
33.89,4.79
34.23,4.41
34.57,4.00
34.92,3.59
35.27,3.14
35.62,2.66
35.97,2.17
36.33,1.71
36.70,1.25
37.06,0.81
37.43,0.48
37.81,0.16
38.19,-0.03
38.57,-0.07
38.95,-0.11
39.34,0.14
39.74,0.43
40.14,0.80
40.54,1.35
40.94,1.89
41.35,2.52
41.76,3.16
42.18,3.79
42.60,4.43
43.03,5.05
43.46,5.64
43.90,6.21
44.33,6.77
44.78,7.29
45.23,7.78
45.68,8.26
46.13,8.71
46.60,9.13
47.06,9.55
47.53,9.92
48.01,10.29
48.49,10.63
48.97,10.97
49.46,11.28
49.96,11.59
50.46,11.87
50.96,12.15
51.47,12.38
51.99,12.60
52.51,12.79
53.03,12.98
53.56,13.18
54.10,13.39
54.64,13.59
55.18,13.78
55.74,13.96
56.29,14.12
56.86,14.26
57.42,14.39
58.00,14.52
58.58,14.64
59.16,14.76
59.76,14.89
60.35,15.01
60.96,15.13
61.57,15.24
62.18,15.35
62.80,15.44
63.43,15.52
64.07,15.59
64.71,15.64
65.35,15.69
66.01,15.72
66.67,15.73
67.33,15.73
68.01,15.72
68.69,15.68
69.37,15.63
70.07,15.58
70.77,15.50
71.48,15.41
72.19,15.31
72.91,15.19
73.64,15.06
74.38,14.92
75.12,14.75
75.87,14.58
76.63,14.40
77.40,14.23
78.17,14.06
78.95,13.90
79.74,13.74
80.54,13.58
81.35,13.41
82.16,13.23
82.98,13.05
83.81,12.88
84.65,12.70
85.50,12.50
86.35,12.30
87.22,12.11
88.09,11.91
88.97,11.71
89.86,11.51
90.76,11.31
91.66,11.11
92.58,10.91
93.51,10.71
94.44,10.51
95.39,10.30
96.34,10.09
97.30,9.88
98.28,9.67
99.26,9.48
100.25,9.27
101.25,9.09
102.27,8.92
103.29,8.78
104.32,8.64
105.37,8.51
106.42,8.38
107.48,8.26
108.56,8.13
109.64,7.99
110.74,7.86
111.85,7.74
112.97,7.61
114.10,7.49
115.24,7.36
116.39,7.24
117.55,7.10
118.73,6.96
119.92,6.82
121.12,6.66
122.33,6.50
123.55,6.33
124.79,6.16
126.03,5.99
127.29,5.81
128.57,5.64
129.85,5.45
131.15,5.27
132.46,5.06
133.79,4.85
135.12,4.63
136.48,4.41
137.84,4.19
139.22,3.98
140.61,3.77
142.02,3.57
143.44,3.38
144.87,3.21
146.32,3.05
147.78,2.89
149.26,2.75
150.75,2.61
152.26,2.51
153.78,2.41
155.32,2.31
156.88,2.22
158.44,2.14
160.03,2.08
161.63,2.01
163.24,1.95
164.88,1.90
166.53,1.85
168.19,1.81
169.87,1.76
171.57,1.72
173.29,1.68
175.02,1.63
176.77,1.58
178.54,1.52
180.32,1.47
182.13,1.41
183.95,1.35
185.79,1.31
187.65,1.27
189.52,1.23
191.42,1.20
193.33,1.17
195.27,1.14
197.22,1.11
199.19,1.06
201.18,1.01
203.19,0.96
205.23,0.91
207.28,0.86
209.35,0.81
211.44,0.76
213.56,0.71
215.69,0.66
217.85,0.59
220.03,0.53
222.23,0.47
224.45,0.41
226.70,0.37
228.96,0.34
231.25,0.31
233.57,0.28
235.90,0.25
238.26,0.23
240.64,0.20
243.05,0.18
245.48,0.16
247.93,0.13
250.41,0.12
252.92,0.10
255.45,0.09
258.00,0.08
260.58,0.06
263.19,0.05
265.82,0.04
268.48,0.03
271.16,0.02
273.87,0.01
276.61,0.01
279.38,0.00
282.17,0.00
284.99,0.00
287.84,0.00
290.72,0.00
293.63,0.00
296.57,0.01
299.53,0.01
302.53,0.02
305.55,0.03
308.61,0.04
311.69,0.05
314.81,0.06
317.96,0.08
321.14,0.09
324.35,0.12
327.59,0.14
330.87,0.15
334.18,0.17
337.52,0.21
340.90,0.23
344.30,0.26
347.75,0.28
351.23,0.30
354.74,0.32
358.28,0.34
361.87,0.35
365.49,0.37
369.14,0.37
372.83,0.36
376.56,0.35
380.33,0.33
384.13,0.31
387.97,0.27
391.85,0.23
395.77,0.19
399.73,0.13
403.72,0.06
407.76,-0.00
411.84,-0.08
415.96,-0.15
420.12,-0.22
424.32,-0.31
428.56,-0.38
432.85,-0.46
437.18,-0.54
441.55,-0.62
445.96,-0.68
450.42,-0.75
454.93,-0.82
459.48,-0.88
464.07,-0.93
468.71,-0.98
473.40,-1.04
478.13,-1.09
482.91,-1.15
487.74,-1.20
492.62,-1.25
497.55,-1.29
502.52,-1.34
507.55,-1.40
512.62,-1.46
517.75,-1.52
522.93,-1.59
528.16,-1.64
533.44,-1.69
538.77,-1.73
544.16,-1.76
549.60,-1.78
555.10,-1.80
560.65,-1.82
566.25,-1.86
571.92,-1.89
577.64,-1.92
583.41,-1.95
589.25,-1.98
595.14,-2.01
601.09,-2.03
607.10,-2.05
613.17,-2.07
619.30,-2.11
625.50,-2.15
631.75,-2.19
638.07,-2.23
644.45,-2.25
650.89,-2.27
657.40,-2.27
663.98,-2.28
670.62,-2.28
677.32,-2.30
684.10,-2.32
690.94,-2.35
697.85,-2.37
704.83,-2.38
711.87,-2.39
718.99,-2.39
726.18,-2.39
733.44,-2.41
740.78,-2.42
748.19,-2.45
755.67,-2.49
763.23,-2.54
770.86,-2.59
778.57,-2.62
786.35,-2.65
794.22,-2.65
802.16,-2.62
810.18,-2.56
818.28,-2.45
826.46,-2.31
834.73,-2.12
843.08,-1.93
851.51,-1.74
860.02,-1.58
868.62,-1.43
877.31,-1.31
886.08,-1.22
894.94,-1.14
903.89,-1.05
912.93,-0.98
922.06,-0.89
931.28,-0.81
940.59,-0.71
950.00,-0.60
959.50,-0.48
969.09,-0.36
978.78,-0.25
988.57,-0.13
998.46,-0.02
1008.44,0.09
1018.53,0.21
1028.71,0.32
1039.00,0.46
1049.39,0.61
1059.88,0.75
1070.48,0.91
1081.19,1.07
1092.00,1.23
1102.92,1.38
1113.95,1.53
1125.09,1.67
1136.34,1.80
1147.70,1.92
1159.18,2.01
1170.77,2.09
1182.48,2.17
1194.30,2.24
1206.25,2.31
1218.31,2.36
1230.49,2.41
1242.80,2.47
1255.22,2.53
1267.78,2.59
1280.45,2.66
1293.26,2.72
1306.19,2.77
1319.25,2.80
1332.45,2.83
1345.77,2.85
1359.23,2.88
1372.82,2.92
1386.55,2.97
1400.41,3.02
1414.42,3.08
1428.56,3.14
1442.85,3.17
1457.28,3.20
1471.85,3.23
1486.57,3.27
1501.43,3.31
1516.45,3.37
1531.61,3.43
1546.93,3.51
1562.40,3.58
1578.02,3.65
1593.80,3.72
1609.74,3.77
1625.84,3.84
1642.10,3.91
1658.52,3.98
1675.10,4.05
1691.85,4.13
1708.77,4.21
1725.86,4.29
1743.12,4.39
1760.55,4.49
1778.15,4.59
1795.94,4.69
1813.90,4.80
1832.03,4.89
1850.36,4.99
1868.86,5.10
1887.55,5.20
1906.42,5.31
1925.49,5.42
1944.74,5.54
1964.19,5.65
1983.83,5.77
2003.67,5.90
2023.71,6.03
2043.94,6.18
2064.38,6.33
2085.03,6.49
2105.88,6.64
2126.94,6.79
2148.20,6.95
2169.69,7.09
2191.38,7.23
2213.30,7.39
2235.43,7.53
2257.78,7.68
2280.36,7.85
2303.17,8.01
2326.20,8.17
2349.46,8.30
2372.95,8.43
2396.68,8.56
2420.65,8.69
2444.86,8.81
2469.31,8.96
2494.00,9.11
2518.94,9.26
2544.13,9.42
2569.57,9.57
2595.27,9.71
2621.22,9.82
2647.43,9.90
2673.90,9.95
2700.64,9.98
2727.65,9.98
2754.93,9.96
2782.48,9.92
2810.30,9.88
2838.40,9.82
2866.79,9.77
2895.46,9.71
2924.41,9.65
2953.65,9.55
2983.19,9.44
3013.02,9.29
3043.15,9.14
3073.58,8.97
3104.32,8.77
3135.36,8.56
3166.72,8.33
3198.38,8.07
3230.37,7.80
3262.67,7.53
3295.30,7.25
3328.25,6.97
3361.53,6.70
3395.15,6.43
3429.10,6.16
3463.39,5.91
3498.03,5.67
3533.01,5.43
3568.34,5.19
3604.02,4.95
3640.06,4.73
3676.46,4.51
3713.22,4.31
3750.36,4.14
3787.86,3.98
3825.74,3.84
3864.00,3.74
3902.64,3.65
3941.66,3.58
3981.08,3.52
4020.89,3.45
4061.10,3.38
4101.71,3.31
4142.73,3.24
4184.15,3.16
4226.00,3.08
4268.26,3.00
4310.94,2.92
4354.05,2.84
4397.59,2.77
4441.56,2.70
4485.98,2.65
4530.84,2.61
4576.15,2.58
4621.91,2.55
4668.13,2.51
4714.81,2.48
4761.96,2.46
4809.58,2.40
4857.67,2.33
4906.25,2.26
4955.31,2.17
5004.87,2.10
5054.91,2.03
5105.46,1.97
5156.52,1.94
5208.08,1.92
5260.16,1.91
5312.77,1.89
5365.89,1.87
5419.55,1.85
5473.75,1.79
5528.49,1.72
5583.77,1.61
5639.61,1.50
5696.00,1.36
5752.96,1.19
5810.49,0.98
5868.60,0.74
5927.28,0.48
5986.56,0.20
6046.42,-0.10
6106.89,-0.41
6167.96,-0.73
6229.64,-1.05
6291.93,-1.39
6354.85,-1.74
6418.40,-2.10
6482.58,-2.44
6547.41,-2.76
6612.88,-3.06
6679.01,-3.35
6745.80,-3.61
6813.26,-3.84
6881.39,-4.06
6950.21,-4.24
7019.71,-4.38
7089.91,-4.49
7160.81,-4.53
7232.41,-4.53
7304.74,-4.49
7377.79,-4.45
7451.56,-4.39
7526.08,-4.32
7601.34,-4.21
7677.35,-4.08
7754.13,-3.91
7831.67,-3.71
7909.98,-3.52
7989.08,-3.32
8068.98,-3.12
8149.67,-2.93
8231.16,-2.70
8313.47,-2.43
8396.61,-2.11
8480.57,-1.77
8565.38,-1.47
8651.03,-1.19
8737.54,-0.96
8824.92,-0.72
8913.17,-0.37
9002.30,-0.13
9092.32,0.23
9183.25,0.64
9275.08,1.00
9367.83,1.24
9461.51,1.34
9556.12,1.34
9651.68,1.25
9748.20,1.04
9845.68,0.70
9944.14,0.26
10043.58,-0.33
10144.02,-1.03
10245.46,-1.78
10347.91,-2.60
10451.39,-3.46
10555.91,-4.28
10661.46,-5.00
10768.08,-5.69
10875.76,-6.36
10984.52,-7.01
11094.36,-7.60
11205.31,-8.17
11317.36,-8.62
11430.53,-8.81
11544.84,-9.39
11660.29,-10.38
11776.89,-10.82
11894.66,-11.22
12013.60,-11.63
12133.74,-11.77
12255.08,-12.09
12377.63,-12.45
12501.41,-12.72
12626.42,-12.95
12752.68,-13.10
12880.21,-13.23
13009.01,-13.31
13139.10,-13.38
13270.49,-13.42
13403.20,-13.30
13537.23,-13.12
13672.60,-12.93
13809.33,-12.77
13947.42,-12.52
14086.90,-12.22
14227.77,-11.84
14370.04,-11.33
14513.74,-10.70
14658.88,-9.95
14805.47,-8.98
14953.52,-7.87
15103.06,-6.63
15254.09,-5.30
15406.63,-4.03
15560.70,-2.86
15716.30,-1.96
15873.47,-1.40
16032.20,-1.12
16192.52,-1.16
16354.45,-1.54
16517.99,-2.12
16683.17,-2.88
16850.01,-3.80
17018.51,-4.78
17188.69,-5.79
17360.58,-6.76
17534.18,-7.65
17709.53,-8.47
17886.62,-9.17
18065.49,-9.77
18246.14,-10.29
18428.60,-10.70
18612.89,-11.02
18799.02,-11.27
18987.01,-11.44
19176.88,-11.53
19368.65,-11.56
19562.33,-11.53
19757.96,-11.45
19955.54,-11.35
