frequency,raw,smoothed,error,error_smoothed,equalization,parametric_eq,fixed_band_eq,equalized_raw,equalized_smoothed,target
20.00,-3.71,-3.71,-4.61,-4.60,4.57,3.67,1.16,0.86,0.86,0.89
20.20,-3.79,-3.80,-4.72,-4.72,4.72,3.66,1.20,0.93,0.92,0.92
20.40,-3.87,-3.88,-4.83,-4.83,4.85,3.65,1.23,0.97,0.97,0.95
20.61,-3.96,-3.96,-4.93,-4.94,4.96,3.64,1.27,1.00,1.00,0.97
20.81,-4.03,-4.03,-5.04,-5.04,5.05,3.63,1.31,1.02,1.02,1.00
21.02,-4.09,-4.10,-5.13,-5.12,5.13,3.62,1.35,1.03,1.03,1.03
21.23,-4.14,-4.14,-5.19,-5.18,5.18,3.61,1.39,1.04,1.04,1.04
21.44,-4.17,-4.17,-5.22,-5.22,5.22,3.60,1.43,1.05,1.05,1.05
21.66,-4.18,-4.19,-5.24,-5.24,5.25,3.59,1.47,1.07,1.06,1.06
21.87,-4.18,-4.18,-5.24,-5.25,5.26,3.57,1.52,1.07,1.08,1.06
22.09,-4.16,-4.17,-5.23,-5.23,5.24,3.56,1.56,1.08,1.08,1.07
22.31,-4.13,-4.13,-5.20,-5.20,5.20,3.54,1.61,1.07,1.07,1.07
22.54,-4.08,-4.08,-5.15,-5.15,5.13,3.53,1.66,1.05,1.05,1.07
22.76,-3.99,-4.00,-5.06,-5.06,5.03,3.51,1.71,1.04,1.03,1.07
22.99,-3.88,-3.88,-4.94,-4.94,4.90,3.50,1.76,1.02,1.03,1.06
23.22,-3.72,-3.72,-4.78,-4.78,4.75,3.48,1.81,1.03,1.03,1.06
23.45,-3.53,-3.53,-4.59,-4.59,4.57,3.46,1.86,1.04,1.04,1.05
23.69,-3.33,-3.32,-4.38,-4.38,4.38,3.45,1.91,1.06,1.06,1.05
23.92,-3.10,-3.11,-4.15,-4.16,4.18,3.43,1.97,1.08,1.07,1.05
24.16,-2.89,-2.89,-3.95,-3.95,3.98,3.41,2.02,1.08,1.08,1.06
24.40,-2.69,-2.69,-3.75,-3.75,3.77,3.39,2.08,1.08,1.08,1.06
24.65,-2.52,-2.51,-3.57,-3.57,3.58,3.36,2.14,1.07,1.07,1.05
24.89,-2.34,-2.34,-3.39,-3.39,3.40,3.34,2.20,1.06,1.06,1.05
25.14,-2.19,-2.19,-3.24,-3.24,3.23,3.32,2.26,1.04,1.05,1.05
25.39,-2.04,-2.04,-3.09,-3.09,3.08,3.29,2.31,1.04,1.04,1.05
25.65,-1.91,-1.91,-2.96,-2.95,2.95,3.27,2.37,1.03,1.04,1.05
25.91,-1.79,-1.79,-2.82,-2.82,2.83,3.24,2.43,1.04,1.04,1.04
26.16,-1.67,-1.68,-2.71,-2.72,2.73,3.21,2.49,1.05,1.05,1.03
26.43,-1.59,-1.59,-2.63,-2.62,2.64,3.18,2.55,1.04,1.05,1.03
26.69,-1.52,-1.52,-2.56,-2.56,2.57,3.15,2.61,1.04,1.04,1.03
26.96,-1.47,-1.48,-2.51,-2.51,2.51,3.12,2.67,1.04,1.03,1.03
27.23,-1.44,-1.44,-2.47,-2.47,2.47,3.08,2.72,1.03,1.03,1.03
27.50,-1.42,-1.42,-2.45,-2.45,2.44,3.05,2.78,1.02,1.02,1.03
27.77,-1.41,-1.41,-2.43,-2.43,2.43,3.01,2.83,1.02,1.02,1.02
28.05,-1.41,-1.41,-2.43,-2.43,2.43,2.97,2.89,1.01,1.01,1.02
28.33,-1.42,-1.42,-2.43,-2.43,2.44,2.93,2.94,1.01,1.01,1.00
28.62,-1.44,-1.44,-2.45,-2.44,2.45,2.89,2.98,1.01,1.01,1.00
28.90,-1.46,-1.47,-2.46,-2.46,2.48,2.84,3.03,1.01,1.01,1.00
29.19,-1.49,-1.50,-2.48,-2.49,2.50,2.79,3.07,1.01,1.01,0.99
29.48,-1.53,-1.53,-2.53,-2.52,2.53,2.75,3.11,1.00,1.00,1.00
29.78,-1.56,-1.57,-2.55,-2.55,2.55,2.70,3.14,0.99,0.99,0.99
30.08,-1.59,-1.60,-2.58,-2.58,2.57,2.64,3.17,0.97,0.97,0.98
30.38,-1.61,-1.61,-2.59,-2.58,2.57,2.59,3.20,0.95,0.96,0.97
30.68,-1.61,-1.61,-2.58,-2.57,2.55,2.53,3.23,0.94,0.95,0.97
30.99,-1.57,-1.58,-2.53,-2.54,2.52,2.48,3.25,0.94,0.94,0.96
31.30,-1.52,-1.52,-2.48,-2.48,2.46,2.42,3.26,0.94,0.94,0.96
31.61,-1.45,-1.45,-2.41,-2.40,2.39,2.36,3.28,0.94,0.94,0.95
31.93,-1.36,-1.37,-2.31,-2.31,2.30,2.30,3.28,0.94,0.94,0.94
32.24,-1.27,-1.27,-2.20,-2.21,2.20,2.24,3.29,0.93,0.93,0.93
32.57,-1.17,-1.18,-2.10,-2.10,2.10,2.18,3.29,0.93,0.93,0.93
32.89,-1.08,-1.08,-2.01,-2.00,2.00,2.12,3.29,0.92,0.92,0.92
33.22,-0.99,-0.99,-1.90,-1.90,1.92,2.06,3.28,0.92,0.93,0.91
33.55,-0.91,-0.92,-1.82,-1.82,1.84,2.01,3.27,0.93,0.93,0.91
33.89,-0.85,-0.86,-1.75,-1.76,1.79,1.96,3.26,0.93,0.93,0.90
34.23,-0.83,-0.83,-1.73,-1.72,1.75,1.91,3.25,0.91,0.91,0.89
34.57,-0.82,-0.83,-1.70,-1.71,1.72,1.87,3.23,0.90,0.89,0.88
34.92,-0.84,-0.84,-1.71,-1.71,1.71,1.83,3.21,0.86,0.86,0.87
35.27,-0.86,-0.86,-1.73,-1.72,1.70,1.79,3.19,0.84,0.84,0.86
35.62,-0.88,-0.88,-1.73,-1.73,1.71,1.77,3.17,0.82,0.83,0.85
35.97,-0.89,-0.89,-1.73,-1.73,1.72,1.75,3.15,0.82,0.82,0.84
36.33,-0.90,-0.91,-1.74,-1.73,1.73,1.73,3.13,0.83,0.82,0.83
36.70,-0.92,-0.92,-1.74,-1.74,1.75,1.73,3.10,0.82,0.82,0.82
37.06,-0.94,-0.94,-1.75,-1.75,1.76,1.73,3.08,0.82,0.82,0.80
37.43,-0.97,-0.98,-1.77,-1.77,1.79,1.73,3.06,0.81,0.81,0.80
37.81,-1.01,-1.02,-1.80,-1.80,1.81,1.75,3.04,0.80,0.79,0.79
38.19,-1.06,-1.06,-1.83,-1.84,1.84,1.77,3.01,0.77,0.77,0.77
38.57,-1.11,-1.11,-1.88,-1.87,1.86,1.79,2.99,0.75,0.75,0.77
38.95,-1.15,-1.16,-1.91,-1.91,1.89,1.82,2.97,0.74,0.74,0.75
39.34,-1.20,-1.20,-1.94,-1.94,1.92,1.85,2.96,0.72,0.72,0.74
39.74,-1.23,-1.23,-1.95,-1.96,1.95,1.89,2.94,0.72,0.72,0.72
40.14,-1.26,-1.26,-1.98,-1.98,1.98,1.93,2.93,0.72,0.71,0.72
40.54,-1.29,-1.30,-1.99,-2.00,2.01,1.97,2.92,0.71,0.71,0.70
40.94,-1.33,-1.33,-2.03,-2.02,2.03,2.01,2.90,0.70,0.70,0.69
41.35,-1.37,-1.38,-2.05,-2.06,2.06,2.05,2.90,0.69,0.69,0.68
41.76,-1.42,-1.42,-2.10,-2.09,2.10,2.10,2.89,0.67,0.68,0.67
42.18,-1.46,-1.47,-2.13,-2.13,2.13,2.14,2.89,0.67,0.66,0.67
42.60,-1.51,-1.51,-2.16,-2.17,2.16,2.18,2.89,0.65,0.65,0.65
43.03,-1.56,-1.56,-2.21,-2.20,2.20,2.22,2.89,0.63,0.63,0.64
43.46,-1.61,-1.61,-2.24,-2.24,2.23,2.26,2.89,0.61,0.61,0.62
43.90,-1.66,-1.66,-2.26,-2.27,2.26,2.30,2.90,0.59,0.59,0.60
44.33,-1.71,-1.71,-2.29,-2.29,2.29,2.34,2.91,0.57,0.57,0.58
44.78,-1.75,-1.75,-2.31,-2.31,2.31,2.38,2.92,0.56,0.56,0.56
45.23,-1.79,-1.79,-2.34,-2.34,2.34,2.41,2.93,0.55,0.55,0.54
45.68,-1.83,-1.84,-2.36,-2.36,2.37,2.45,2.95,0.54,0.54,0.52
46.13,-1.88,-1.88,-2.39,-2.39,2.40,2.48,2.97,0.52,0.52,0.51
46.60,-1.93,-1.94,-2.43,-2.43,2.44,2.52,2.99,0.50,0.50,0.50
47.06,-1.99,-1.99,-2.47,-2.47,2.47,2.55,3.01,0.47,0.47,0.48
47.53,-2.05,-2.05,-2.51,-2.51,2.50,2.58,3.04,0.44,0.45,0.46
48.01,-2.10,-2.11,-2.55,-2.55,2.53,2.61,3.06,0.42,0.42,0.45
48.49,-2.16,-2.16,-2.58,-2.58,2.56,2.64,3.09,0.39,0.40,0.42
48.97,-2.21,-2.21,-2.60,-2.59,2.59,2.67,3.12,0.37,0.38,0.38
49.46,-2.25,-2.26,-2.61,-2.61,2.62,2.71,3.16,0.36,0.36,0.35
49.96,-2.30,-2.31,-2.62,-2.64,2.65,2.74,3.19,0.35,0.34,0.32
50.46,-2.37,-2.37,-2.68,-2.68,2.70,2.77,3.22,0.32,0.32,0.31
50.96,-2.45,-2.45,-2.74,-2.73,2.74,2.81,3.26,0.29,0.29,0.29
51.47,-2.53,-2.53,-2.79,-2.79,2.80,2.84,3.29,0.26,0.26,0.25
51.99,-2.62,-2.63,-2.85,-2.86,2.86,2.88,3.33,0.23,0.23,0.23
52.51,-2.72,-2.72,-2.94,-2.93,2.93,2.92,3.36,0.20,0.20,0.22
53.03,-2.82,-2.82,-3.01,-3.01,3.00,2.96,3.39,0.18,0.18,0.19
53.56,-2.91,-2.91,-3.08,-3.08,3.08,3.01,3.42,0.16,0.17,0.17
54.10,-3.00,-3.01,-3.14,-3.15,3.16,3.06,3.45,0.15,0.15,0.14
54.64,-3.10,-3.11,-3.22,-3.23,3.23,3.11,3.48,0.13,0.12,0.12
55.18,-3.22,-3.22,-3.31,-3.31,3.31,3.17,3.50,0.09,0.09,0.09
55.74,-3.34,-3.33,-3.40,-3.40,3.39,3.23,3.52,0.05,0.06,0.06
56.29,-3.43,-3.43,-3.48,-3.47,3.46,3.30,3.54,0.03,0.03,0.04
56.86,-3.51,-3.52,-3.53,-3.54,3.54,3.36,3.55,0.02,0.02,0.02
57.42,-3.60,-3.61,-3.59,-3.60,3.61,3.44,3.55,0.00,-0.00,-0.01
58.00,-3.70,-3.70,-3.67,-3.67,3.67,3.51,3.55,-0.03,-0.02,-0.03
58.58,-3.78,-3.78,-3.73,-3.73,3.74,3.58,3.54,-0.05,-0.05,-0.05
59.16,-3.86,-3.86,-3.79,-3.79,3.79,3.66,3.52,-0.07,-0.07,-0.07
59.76,-3.92,-3.93,-3.83,-3.83,3.83,3.73,3.49,-0.09,-0.10,-0.09
60.35,-3.99,-4.00,-3.87,-3.87,3.87,3.79,3.46,-0.13,-0.13,-0.13
60.96,-4.05,-4.05,-3.91,-3.90,3.89,3.84,3.41,-0.16,-0.16,-0.15
61.57,-4.10,-4.10,-3.91,-3.91,3.90,3.89,3.36,-0.21,-0.20,-0.19
62.18,-4.11,-4.12,-3.89,-3.90,3.89,3.91,3.30,-0.22,-0.23,-0.22
62.80,-4.12,-4.12,-3.87,-3.87,3.87,3.91,3.23,-0.26,-0.25,-0.25
63.43,-4.10,-4.11,-3.82,-3.82,3.83,3.88,3.15,-0.28,-0.28,-0.28
64.07,-4.08,-4.08,-3.77,-3.77,3.77,3.84,3.05,-0.31,-0.31,-0.31
64.71,-4.04,-4.05,-3.71,-3.71,3.71,3.76,2.95,-0.34,-0.34,-0.34
65.35,-3.99,-3.99,-3.63,-3.63,3.62,3.66,2.84,-0.37,-0.37,-0.36
66.01,-3.93,-3.93,-3.54,-3.53,3.53,3.53,2.72,-0.40,-0.39,-0.39
66.67,-3.84,-3.85,-3.42,-3.43,3.43,3.39,2.59,-0.42,-0.42,-0.42
67.33,-3.75,-3.76,-3.30,-3.31,3.32,3.22,2.46,-0.44,-0.44,-0.45
68.01,-3.67,-3.66,-3.19,-3.18,3.19,3.04,2.31,-0.48,-0.47,-0.48
68.69,-3.56,-3.57,-3.05,-3.06,3.06,2.85,2.16,-0.50,-0.51,-0.51
69.37,-3.46,-3.46,-2.92,-2.92,2.92,2.66,2.00,-0.55,-0.55,-0.54
70.07,-3.35,-3.35,-2.78,-2.77,2.76,2.45,1.83,-0.59,-0.58,-0.58
70.77,-3.21,-3.22,-2.61,-2.61,2.60,2.25,1.66,-0.61,-0.62,-0.60
71.48,-3.07,-3.08,-2.44,-2.44,2.43,2.05,1.48,-0.65,-0.65,-0.64
72.19,-2.92,-2.92,-2.25,-2.25,2.25,1.85,1.30,-0.68,-0.67,-0.67
72.91,-2.76,-2.76,-2.06,-2.05,2.06,1.65,1.11,-0.70,-0.70,-0.71
73.64,-2.58,-2.59,-1.84,-1.85,1.86,1.45,0.92,-0.72,-0.73,-0.74
74.38,-2.42,-2.43,-1.65,-1.65,1.66,1.25,0.73,-0.76,-0.77,-0.77
75.12,-2.27,-2.26,-1.46,-1.45,1.46,1.06,0.53,-0.82,-0.80,-0.81
75.87,-2.09,-2.09,-1.25,-1.25,1.25,0.87,0.33,-0.84,-0.84,-0.84
76.63,-1.90,-1.91,-1.03,-1.04,1.04,0.69,0.12,-0.87,-0.87,-0.87
77.40,-1.72,-1.72,-0.82,-0.82,0.82,0.50,-0.08,-0.91,-0.91,-0.90
78.17,-1.53,-1.53,-0.59,-0.60,0.59,0.32,-0.29,-0.94,-0.94,-0.94
78.95,-1.34,-1.34,-0.38,-0.37,0.37,0.14,-0.50,-0.98,-0.97,-0.96
79.74,-1.13,-1.13,-0.13,-0.13,0.13,-0.04,-0.71,-1.00,-1.00,-1.00
80.54,-0.92,-0.92,0.11,0.11,-0.11,-0.22,-0.93,-1.03,-1.03,-1.03
81.35,-0.70,-0.71,0.36,0.36,-0.35,-0.40,-1.14,-1.06,-1.06,-1.07
82.16,-0.50,-0.50,0.60,0.60,-0.60,-0.58,-1.36,-1.10,-1.10,-1.10
82.98,-0.28,-0.29,0.85,0.85,-0.85,-0.76,-1.58,-1.13,-1.13,-1.13
83.81,-0.07,-0.07,1.10,1.10,-1.10,-0.95,-1.80,-1.17,-1.17,-1.18
84.65,0.15,0.15,1.36,1.36,-1.35,-1.13,-2.03,-1.21,-1.20,-1.21
85.50,0.37,0.37,1.61,1.61,-1.61,-1.32,-2.25,-1.25,-1.24,-1.24
86.35,0.60,0.58,1.88,1.87,-1.87,-1.50,-2.48,-1.27,-1.29,-1.28
87.22,0.80,0.81,2.12,2.13,-2.13,-1.69,-2.71,-1.34,-1.33,-1.32
88.09,1.04,1.04,2.40,2.39,-2.40,-1.89,-2.94,-1.37,-1.37,-1.36
88.97,1.28,1.27,2.67,2.67,-2.67,-2.08,-3.17,-1.40,-1.40,-1.39
89.86,1.51,1.51,2.94,2.95,-2.94,-2.28,-3.40,-1.44,-1.43,-1.43
90.76,1.75,1.74,3.23,3.22,-3.22,-2.48,-3.64,-1.47,-1.48,-1.49
91.66,1.98,1.98,3.50,3.50,-3.50,-2.69,-3.87,-1.52,-1.52,-1.52
92.58,2.21,2.21,3.78,3.78,-3.77,-2.90,-4.11,-1.57,-1.56,-1.57
93.51,2.45,2.44,4.05,4.05,-4.05,-3.11,-4.36,-1.61,-1.61,-1.61
94.44,2.68,2.68,4.33,4.33,-4.33,-3.33,-4.60,-1.66,-1.66,-1.65
95.39,2.92,2.91,4.61,4.61,-4.61,-3.55,-4.85,-1.70,-1.70,-1.69
96.34,3.15,3.15,4.90,4.90,-4.90,-3.78,-5.10,-1.75,-1.75,-1.75
97.30,3.39,3.39,5.18,5.18,-5.18,-4.01,-5.35,-1.79,-1.79,-1.79
98.28,3.63,3.62,5.47,5.46,-5.46,-4.25,-5.60,-1.84,-1.84,-1.84
99.26,3.86,3.86,5.74,5.74,-5.75,-4.48,-5.85,-1.89,-1.89,-1.89
100.25,4.09,4.10,6.02,6.03,-6.03,-4.73,-6.11,-1.94,-1.93,-1.93
101.25,4.35,4.33,6.32,6.31,-6.31,-4.98,-6.37,-1.96,-1.98,-1.98
102.27,4.57,4.57,6.59,6.59,-6.59,-5.23,-6.63,-2.02,-2.02,-2.02
103.29,4.79,4.79,6.87,6.86,-6.86,-5.49,-6.89,-2.07,-2.07,-2.08
104.32,5.01,5.01,7.12,7.13,-7.13,-5.76,-7.15,-2.12,-2.12,-2.12
105.37,5.23,5.23,7.39,7.39,-7.39,-6.02,-7.41,-2.17,-2.16,-2.16
106.42,5.45,5.44,7.66,7.65,-7.65,-6.30,-7.66,-2.20,-2.21,-2.21
107.48,5.65,5.64,7.90,7.90,-7.90,-6.57,-7.92,-2.26,-2.26,-2.26
108.56,5.84,5.84,8.15,8.15,-8.15,-6.85,-8.17,-2.31,-2.31,-2.31
109.64,6.03,6.03,8.38,8.38,-8.39,-7.13,-8.43,-2.36,-2.36,-2.36
110.74,6.22,6.22,8.62,8.62,-8.63,-7.41,-8.67,-2.41,-2.41,-2.40
111.85,6.40,6.39,8.84,8.85,-8.85,-7.69,-8.91,-2.46,-2.46,-2.45
112.97,6.56,6.55,9.07,9.06,-9.07,-7.97,-9.13,-2.51,-2.52,-2.51
114.10,6.71,6.70,9.27,9.27,-9.28,-8.24,-9.35,-2.57,-2.57,-2.56
115.24,6.84,6.85,9.45,9.46,-9.46,-8.52,-9.55,-2.63,-2.62,-2.61
116.39,6.98,6.97,9.65,9.64,-9.63,-8.78,-9.75,-2.66,-2.66,-2.67
117.55,7.09,7.07,9.81,9.80,-9.78,-9.04,-9.92,-2.70,-2.71,-2.72
118.73,7.14,7.15,9.91,9.92,-9.91,-9.29,-10.08,-2.77,-2.76,-2.78
119.92,7.19,7.19,10.01,10.01,-10.00,-9.52,-10.21,-2.82,-2.82,-2.82
121.12,7.21,7.20,10.08,10.08,-10.07,-9.74,-10.33,-2.87,-2.87,-2.87
122.33,7.20,7.20,10.12,10.12,-10.11,-9.93,-10.41,-2.92,-2.92,-2.93
123.55,7.16,7.16,10.12,10.13,-10.12,-10.11,-10.48,-2.96,-2.96,-2.97
124.79,7.10,7.10,10.11,10.11,-10.10,-10.25,-10.51,-3.01,-3.01,-3.02
126.03,7.01,7.00,10.07,10.07,-10.06,-10.39,-10.53,-3.05,-3.06,-3.07
127.29,6.88,6.88,9.99,10.00,-9.99,-10.47,-10.50,-3.12,-3.12,-3.12
128.57,6.73,6.73,9.90,9.91,-9.90,-10.54,-10.47,-3.18,-3.17,-3.18
129.85,6.58,6.58,9.80,9.80,-9.80,-10.56,-10.40,-3.22,-3.22,-3.23
131.15,6.42,6.41,9.69,9.69,-9.68,-10.57,-10.32,-3.27,-3.27,-3.27
132.46,6.25,6.24,9.57,9.56,-9.56,-10.52,-10.20,-3.32,-3.32,-3.32
133.79,6.07,6.07,9.43,9.43,-9.44,-10.47,-10.08,-3.37,-3.37,-3.36
135.12,5.90,5.90,9.31,9.31,-9.32,-10.37,-9.93,-3.43,-3.42,-3.41
136.48,5.74,5.74,9.19,9.19,-9.21,-10.27,-9.77,-3.48,-3.47,-3.45
137.84,5.60,5.59,9.09,9.10,-9.11,-10.12,-9.59,-3.52,-3.52,-3.49
139.22,5.47,5.47,9.01,9.01,-9.03,-9.97,-9.41,-3.56,-3.56,-3.55
140.61,5.36,5.36,8.95,8.94,-8.95,-9.79,-9.22,-3.59,-3.59,-3.59
142.02,5.27,5.26,8.88,8.88,-8.88,-9.61,-9.02,-3.62,-3.62,-3.61
143.44,5.17,5.17,8.82,8.82,-8.82,-9.41,-8.81,-3.66,-3.66,-3.65
144.87,5.08,5.08,8.77,8.77,-8.77,-9.20,-8.60,-3.69,-3.69,-3.69
146.32,4.98,4.98,8.71,8.71,-8.71,-8.99,-8.39,-3.73,-3.73,-3.73
147.78,4.89,4.88,8.65,8.65,-8.65,-8.77,-8.17,-3.76,-3.76,-3.76
149.26,4.78,4.78,8.58,8.58,-8.58,-8.55,-7.96,-3.80,-3.80,-3.80
150.75,4.66,4.66,8.50,8.50,-8.50,-8.33,-7.74,-3.84,-3.84,-3.85
152.26,4.54,4.53,8.42,8.41,-8.40,-8.10,-7.53,-3.87,-3.88,-3.88
153.78,4.38,4.38,8.30,8.30,-8.30,-7.88,-7.32,-3.92,-3.92,-3.92
155.32,4.22,4.22,8.18,8.18,-8.18,-7.66,-7.11,-3.96,-3.96,-3.96
156.88,4.05,4.04,8.04,8.04,-8.04,-7.44,-6.90,-3.99,-4.00,-4.00
158.44,3.85,3.85,7.89,7.89,-7.89,-7.23,-6.69,-4.04,-4.04,-4.04
160.03,3.64,3.63,7.72,7.72,-7.72,-7.01,-6.49,-4.08,-4.09,-4.08
161.63,3.41,3.41,7.53,7.53,-7.54,-6.81,-6.29,-4.13,-4.13,-4.12
163.24,3.18,3.18,7.34,7.34,-7.34,-6.60,-6.09,-4.16,-4.16,-4.17
164.88,2.94,2.93,7.13,7.13,-7.13,-6.40,-5.90,-4.19,-4.19,-4.20
166.53,2.68,2.67,6.91,6.91,-6.90,-6.21,-5.71,-4.22,-4.23,-4.23
168.19,2.40,2.40,6.67,6.67,-6.66,-6.02,-5.52,-4.26,-4.26,-4.27
169.87,2.11,2.10,6.42,6.41,-6.39,-5.83,-5.34,-4.29,-4.29,-4.31
171.57,1.80,1.80,6.14,6.14,-6.11,-5.65,-5.16,-4.32,-4.31,-4.35
173.29,1.49,1.48,5.87,5.87,-5.82,-5.47,-4.98,-4.33,-4.33,-4.38
175.02,1.17,1.16,5.59,5.59,-5.53,-5.29,-4.81,-4.37,-4.37,-4.42
176.77,0.85,0.84,5.31,5.30,-5.27,-5.12,-4.63,-4.43,-4.43,-4.46
178.54,0.54,0.52,5.04,5.02,-5.06,-4.96,-4.47,-4.53,-4.54,-4.51
180.32,0.25,0.25,4.79,4.79,-4.92,-4.80,-4.30,-4.67,-4.66,-4.54
182.13,0.05,0.07,4.62,4.65,-4.83,-4.64,-4.14,-4.78,-4.75,-4.57
183.95,0.01,0.02,4.62,4.63,-4.80,-4.48,-3.98,-4.79,-4.78,-4.62
185.79,0.08,0.09,4.72,4.74,-4.81,-4.33,-3.83,-4.73,-4.72,-4.65
187.65,0.22,0.21,4.90,4.89,-4.85,-4.18,-3.67,-4.63,-4.64,-4.69
189.52,0.33,0.30,5.04,5.02,-4.89,-4.04,-3.52,-4.56,-4.59,-4.72
191.42,0.34,0.32,5.08,5.07,-4.92,-3.90,-3.38,-4.58,-4.60,-4.75
193.33,0.26,0.26,5.03,5.03,-4.91,-3.76,-3.23,-4.66,-4.66,-4.78
195.27,0.11,0.11,4.91,4.92,-4.86,-3.63,-3.09,-4.75,-4.75,-4.80
197.22,-0.07,-0.08,4.76,4.76,-4.75,-3.50,-2.95,-4.83,-4.83,-4.83
199.19,-0.29,-0.29,4.58,4.57,-4.60,-3.37,-2.81,-4.89,-4.89,-4.87
201.18,-0.52,-0.52,4.36,4.37,-4.41,-3.24,-2.68,-4.94,-4.93,-4.89
203.19,-0.74,-0.74,4.16,4.17,-4.21,-3.12,-2.55,-4.96,-4.95,-4.90
205.23,-0.94,-0.94,3.98,3.98,-4.01,-2.99,-2.42,-4.95,-4.95,-4.93
207.28,-1.14,-1.14,3.79,3.80,-3.80,-2.87,-2.29,-4.95,-4.95,-4.93
209.35,-1.33,-1.34,3.62,3.61,-3.60,-2.76,-2.17,-4.94,-4.95,-4.96
211.44,-1.56,-1.55,3.42,3.42,-3.41,-2.64,-2.05,-4.97,-4.96,-4.98
213.56,-1.75,-1.76,3.23,3.22,-3.21,-2.52,-1.93,-4.97,-4.98,-4.98
215.69,-1.97,-1.98,3.01,3.01,-3.02,-2.41,-1.81,-4.99,-5.00,-4.99
217.85,-2.20,-2.18,2.80,2.82,-2.82,-2.30,-1.70,-5.03,-5.01,-5.00
220.03,-2.38,-2.39,2.63,2.62,-2.62,-2.19,-1.59,-5.01,-5.01,-5.01
222.23,-2.57,-2.58,2.45,2.44,-2.42,-2.08,-1.49,-5.00,-5.01,-5.02
224.45,-2.77,-2.77,2.24,2.25,-2.23,-1.97,-1.38,-5.01,-5.00,-5.02
226.70,-2.96,-2.96,2.05,2.06,-2.05,-1.87,-1.28,-5.02,-5.02,-5.02
228.96,-3.14,-3.15,1.87,1.87,-1.89,-1.76,-1.18,-5.03,-5.03,-5.02
231.25,-3.31,-3.31,1.69,1.70,-1.73,-1.66,-1.09,-5.05,-5.05,-5.01
233.57,-3.46,-3.46,1.55,1.56,-1.59,-1.55,-1.00,-5.06,-5.05,-5.01
235.90,-3.57,-3.57,1.43,1.44,-1.46,-1.45,-0.91,-5.04,-5.03,-5.01
238.26,-3.66,-3.66,1.34,1.34,-1.34,-1.34,-0.83,-5.00,-5.00,-5.01
240.64,-3.75,-3.76,1.24,1.24,-1.21,-1.24,-0.75,-4.97,-4.97,-5.00
243.05,-3.85,-3.86,1.13,1.12,-1.09,-1.14,-0.67,-4.94,-4.95,-4.99
245.48,-3.99,-3.99,0.98,0.99,-0.96,-1.03,-0.60,-4.95,-4.95,-4.97
247.93,-4.12,-4.13,0.84,0.84,-0.82,-0.93,-0.53,-4.94,-4.95,-4.96
250.41,-4.27,-4.28,0.69,0.67,-0.67,-0.82,-0.47,-4.95,-4.95,-4.96
252.92,-4.43,-4.43,0.50,0.51,-0.51,-0.72,-0.40,-4.95,-4.94,-4.94
255.45,-4.58,-4.58,0.33,0.34,-0.35,-0.62,-0.35,-4.93,-4.93,-4.91
258.00,-4.72,-4.73,0.18,0.18,-0.18,-0.51,-0.29,-4.90,-4.91,-4.90
260.58,-4.86,-4.87,0.03,0.02,-0.02,-0.41,-0.24,-4.88,-4.89,-4.89
263.19,-5.00,-5.00,-0.14,-0.13,0.13,-0.30,-0.19,-4.87,-4.87,-4.87
265.82,-5.13,-5.13,-0.28,-0.28,0.27,-0.19,-0.14,-4.86,-4.86,-4.85
268.48,-5.24,-5.25,-0.42,-0.42,0.40,-0.09,-0.10,-4.84,-4.85,-4.83
271.16,-5.36,-5.35,-0.56,-0.54,0.52,0.02,-0.06,-4.84,-4.83,-4.80
273.87,-5.43,-5.43,-0.64,-0.64,0.63,0.13,-0.02,-4.80,-4.80,-4.79
276.61,-5.49,-5.50,-0.73,-0.73,0.74,0.24,0.01,-4.75,-4.76,-4.76
279.38,-5.55,-5.56,-0.80,-0.81,0.84,0.35,0.05,-4.71,-4.72,-4.75
282.17,-5.64,-5.65,-0.91,-0.91,0.94,0.47,0.08,-4.71,-4.71,-4.74
284.99,-5.74,-5.74,-1.03,-1.02,1.03,0.58,0.11,-4.71,-4.71,-4.71
287.84,-5.82,-5.82,-1.13,-1.13,1.12,0.69,0.14,-4.70,-4.70,-4.69
290.72,-5.90,-5.90,-1.23,-1.23,1.22,0.81,0.16,-4.69,-4.69,-4.67
293.63,-5.97,-5.97,-1.32,-1.32,1.31,0.92,0.19,-4.66,-4.66,-4.65
296.57,-6.04,-6.04,-1.42,-1.40,1.41,1.04,0.21,-4.63,-4.63,-4.63
299.53,-6.09,-6.10,-1.48,-1.49,1.50,1.15,0.24,-4.59,-4.60,-4.61
302.53,-6.16,-6.17,-1.57,-1.58,1.59,1.27,0.26,-4.58,-4.58,-4.60
305.55,-6.24,-6.23,-1.68,-1.67,1.67,1.38,0.29,-4.57,-4.56,-4.56
308.61,-6.30,-6.30,-1.76,-1.76,1.75,1.50,0.31,-4.56,-4.55,-4.54
311.69,-6.33,-6.35,-1.82,-1.83,1.82,1.61,0.33,-4.51,-4.52,-4.52
314.81,-6.39,-6.39,-1.91,-1.90,1.90,1.72,0.36,-4.50,-4.49,-4.48
317.96,-6.43,-6.43,-1.97,-1.97,1.97,1.83,0.38,-4.46,-4.46,-4.46
321.14,-6.47,-6.47,-2.03,-2.03,2.03,1.94,0.40,-4.44,-4.44,-4.45
324.35,-6.51,-6.51,-2.08,-2.09,2.09,2.04,0.43,-4.42,-4.42,-4.43
327.59,-6.55,-6.56,-2.15,-2.15,2.15,2.14,0.45,-4.40,-4.41,-4.40
330.87,-6.60,-6.60,-2.22,-2.21,2.21,2.24,0.47,-4.40,-4.39,-4.39
334.18,-6.64,-6.63,-2.28,-2.26,2.26,2.33,0.50,-4.38,-4.37,-4.37
337.52,-6.65,-6.66,-2.30,-2.31,2.31,2.42,0.53,-4.34,-4.35,-4.35
340.90,-6.66,-6.68,-2.34,-2.35,2.36,2.50,0.55,-4.30,-4.32,-4.32
344.30,-6.71,-6.71,-2.41,-2.40,2.41,2.57,0.58,-4.30,-4.30,-4.31
347.75,-6.74,-6.74,-2.46,-2.45,2.46,2.63,0.61,-4.28,-4.28,-4.29
351.23,-6.76,-6.77,-2.49,-2.49,2.51,2.69,0.64,-4.25,-4.25,-4.27
354.74,-6.78,-6.78,-2.53,-2.53,2.55,2.73,0.67,-4.23,-4.23,-4.25
358.28,-6.79,-6.80,-2.56,-2.57,2.57,2.77,0.70,-4.22,-4.23,-4.23
361.87,-6.81,-6.83,-2.60,-2.61,2.57,2.80,0.73,-4.24,-4.25,-4.22
365.49,-6.83,-6.82,-2.63,-2.62,2.55,2.82,0.76,-4.28,-4.27,-4.20
369.14,-6.80,-6.78,-2.61,-2.59,2.52,2.83,0.79,-4.28,-4.26,-4.19
372.83,-6.68,-6.68,-2.51,-2.50,2.48,2.83,0.83,-4.21,-4.20,-4.17
376.56,-6.54,-6.55,-2.38,-2.40,2.43,2.82,0.86,-4.11,-4.12,-4.16
380.33,-6.43,-6.45,-2.30,-2.31,2.39,2.80,0.89,-4.05,-4.07,-4.14
384.13,-6.39,-6.40,-2.27,-2.27,2.34,2.77,0.93,-4.05,-4.06,-4.13
387.97,-6.39,-6.39,-2.27,-2.27,2.30,2.74,0.96,-4.09,-4.09,-4.12
391.85,-6.39,-6.39,-2.28,-2.28,2.27,2.69,1.00,-4.12,-4.12,-4.11
395.77,-6.38,-6.38,-2.29,-2.29,2.25,2.64,1.04,-4.13,-4.13,-4.09
399.73,-6.36,-6.36,-2.28,-2.27,2.25,2.59,1.07,-4.12,-4.11,-4.08
403.72,-6.32,-6.33,-2.25,-2.25,2.24,2.53,1.11,-4.08,-4.08,-4.07
407.76,-6.29,-6.30,-2.23,-2.23,2.23,2.46,1.15,-4.06,-4.06,-4.07
411.84,-6.26,-6.27,-2.22,-2.21,2.22,2.39,1.18,-4.05,-4.05,-4.05
415.96,-6.23,-6.23,-2.19,-2.19,2.19,2.32,1.22,-4.04,-4.04,-4.04
420.12,-6.20,-6.19,-2.17,-2.16,2.17,2.25,1.26,-4.04,-4.03,-4.03
424.32,-6.14,-6.16,-2.12,-2.14,2.14,2.17,1.29,-4.01,-4.02,-4.02
428.56,-6.11,-6.12,-2.10,-2.10,2.11,2.09,1.32,-4.01,-4.01,-4.01
432.85,-6.08,-6.07,-2.08,-2.07,2.07,2.01,1.36,-4.01,-4.00,-4.00
437.18,-6.02,-6.03,-2.03,-2.04,2.03,1.93,1.39,-3.99,-4.00,-3.99
441.55,-5.97,-5.97,-2.00,-1.99,1.99,1.85,1.41,-3.98,-3.98,-3.98
445.96,-5.91,-5.91,-1.95,-1.95,1.94,1.77,1.44,-3.97,-3.97,-3.97
450.42,-5.85,-5.85,-1.90,-1.90,1.90,1.69,1.47,-3.96,-3.96,-3.96
454.93,-5.78,-5.79,-1.85,-1.84,1.84,1.60,1.49,-3.94,-3.94,-3.94
459.48,-5.71,-5.71,-1.78,-1.79,1.79,1.53,1.51,-3.93,-3.93,-3.93
464.07,-5.64,-5.64,-1.73,-1.73,1.73,1.45,1.52,-3.91,-3.90,-3.91
