frequency,raw,error,smoothed,error_smoothed,equalization,parametric_eq,equalized_raw,equalized_smoothed,target
20,3.03,3.37,3.04,3.38,-3.38,-1.88,-0.34,-0.34,-0.33
21,3.14,3.48,3.15,3.49,-3.49,-2.17,-0.35,-0.34,-0.34
22,3.26,3.60,3.26,3.60,-3.60,-2.48,-0.33,-0.34,-0.34
23,3.35,3.69,3.36,3.70,-3.70,-2.82,-0.35,-0.34,-0.34
24,3.44,3.79,3.45,3.79,-3.79,-3.18,-0.35,-0.34,-0.34
25,3.53,3.88,3.53,3.88,-3.88,-3.55,-0.35,-0.35,-0.35
26,3.60,3.95,3.61,3.96,-3.96,-3.92,-0.36,-0.35,-0.35
27,3.69,4.05,3.68,4.04,-4.04,-4.27,-0.34,-0.35,-0.35
28,3.75,4.11,3.75,4.10,-4.10,-4.59,-0.35,-0.36,-0.36
29,3.83,4.19,3.80,4.17,-4.17,-4.85,-0.33,-0.36,-0.36
30,3.87,4.24,3.85,4.22,-4.22,-5.04,-0.35,-0.37,-0.37
31,3.91,4.28,3.89,4.27,-4.27,-5.15,-0.36,-0.38,-0.37
32,3.94,4.32,3.93,4.31,-4.31,-5.19,-0.37,-0.38,-0.38
33,3.96,4.35,3.95,4.34,-4.34,-5.16,-0.38,-0.39,-0.38
34,3.96,4.35,3.97,4.37,-4.37,-5.07,-0.41,-0.40,-0.39
35,3.96,4.36,3.99,4.40,-4.40,-4.94,-0.43,-0.41,-0.40
36,3.98,4.39,4.00,4.42,-4.42,-4.80,-0.43,-0.41,-0.41
37,3.98,4.40,4.01,4.43,-4.43,-4.64,-0.45,-0.42,-0.41
38,4.00,4.43,4.01,4.44,-4.44,-4.49,-0.44,-0.43,-0.42
39,4.00,4.44,4.01,4.45,-4.45,-4.34,-0.45,-0.44,-0.43
40,4.00,4.45,4.00,4.45,-4.45,-4.21,-0.45,-0.45,-0.44
41,4.00,4.46,3.99,4.45,-4.45,-4.10,-0.45,-0.46,-0.46
42,4.00,4.47,3.98,4.45,-4.45,-4.00,-0.45,-0.47,-0.47
43,3.96,4.44,3.96,4.44,-4.44,-3.92,-0.48,-0.48,-0.48
44,3.96,4.46,3.94,4.43,-4.43,-3.86,-0.47,-0.49,-0.49
45,3.91,4.42,3.91,4.42,-4.42,-3.81,-0.50,-0.51,-0.51
46,3.87,4.40,3.87,4.40,-4.40,-3.78,-0.52,-0.52,-0.52
47,3.83,4.37,3.83,4.37,-4.37,-3.77,-0.54,-0.54,-0.54
48,3.78,4.34,3.78,4.35,-4.35,-3.76,-0.56,-0.56,-0.56
49,3.74,4.32,3.74,4.32,-4.32,-3.77,-0.58,-0.58,-0.58
50,3.68,4.28,3.69,4.29,-4.29,-3.79,-0.61,-0.60,-0.59
51,3.61,4.23,3.64,4.26,-4.26,-3.82,-0.64,-0.62,-0.61
52,3.57,4.21,3.59,4.23,-4.23,-3.85,-0.65,-0.64,-0.64
53,3.53,4.19,3.53,4.19,-4.19,-3.88,-0.66,-0.66,-0.66
54,3.47,4.15,3.48,4.16,-4.16,-3.92,-0.69,-0.68,-0.68
55,3.42,4.13,3.43,4.13,-4.13,-3.96,-0.71,-0.70,-0.70
56,3.37,4.10,3.37,4.10,-4.10,-3.99,-0.73,-0.73,-0.73
57,3.34,4.10,3.32,4.08,-4.08,-4.03,-0.73,-0.76,-0.75
58,3.28,4.06,3.27,4.05,-4.05,-4.06,-0.77,-0.78,-0.78
59,3.23,4.04,3.21,4.03,-4.03,-4.08,-0.79,-0.81,-0.81
60,3.17,4.01,3.16,4.01,-4.01,-4.10,-0.83,-0.84,-0.83
61,3.10,3.97,3.11,3.99,-3.99,-4.10,-0.89,-0.88,-0.86
62,3.05,3.95,3.07,3.98,-3.98,-4.11,-0.92,-0.91,-0.89
63,3.01,3.94,3.03,3.97,-3.97,-4.10,-0.95,-0.94,-0.92
64,2.96,3.92,2.99,3.96,-3.96,-4.09,-1.00,-0.97,-0.95
65,2.92,3.91,2.96,3.96,-3.96,-4.07,-1.04,-1.00,-0.99
66,2.88,3.90,2.93,3.96,-3.96,-4.05,-1.08,-1.04,-1.02
67,2.88,3.94,2.89,3.96,-3.96,-4.02,-1.08,-1.07,-1.05
68,2.83,3.92,2.86,3.96,-3.96,-3.99,-1.13,-1.10,-1.09
69,2.83,3.96,2.82,3.95,-3.95,-3.95,-1.12,-1.13,-1.12
70,2.81,3.97,2.78,3.94,-3.94,-3.91,-1.13,-1.17,-1.16
71,2.79,3.99,2.73,3.93,-3.93,-3.88,-1.13,-1.20,-1.20
72,2.72,3.96,2.67,3.91,-3.91,-3.84,-1.18,-1.24,-1.23
73,2.66,3.93,2.60,3.88,-3.88,-3.80,-1.21,-1.28,-1.27
74,2.56,3.87,2.52,3.84,-3.84,-3.76,-1.28,-1.32,-1.31
75,2.44,3.79,2.45,3.81,-3.81,-3.73,-1.36,-1.36,-1.35
76,2.35,3.74,2.36,3.77,-3.77,-3.70,-1.41,-1.40,-1.39
77,2.24,3.67,2.28,3.72,-3.72,-3.67,-1.48,-1.44,-1.43
78,2.15,3.62,2.20,3.68,-3.68,-3.64,-1.53,-1.49,-1.47
79,2.06,3.57,2.11,3.64,-3.64,-3.62,-1.58,-1.53,-1.51
80,1.99,3.54,2.03,3.60,-3.60,-3.60,-1.61,-1.57,-1.55
81,1.94,3.53,1.96,3.57,-3.57,-3.58,-1.63,-1.61,-1.59
82,1.88,3.51,1.89,3.54,-3.54,-3.57,-1.66,-1.65,-1.63
83,1.84,3.52,1.83,3.52,-3.52,-3.57,-1.68,-1.69,-1.67
84,1.79,3.51,1.78,3.51,-3.51,-3.56,-1.71,-1.73,-1.71
85,1.75,3.51,1.73,3.50,-3.50,-3.56,-1.74,-1.76,-1.76
86,1.71,3.51,1.68,3.49,-3.49,-3.56,-1.78,-1.80,-1.80
87,1.65,3.49,1.64,3.48,-3.48,-3.57,-1.83,-1.84,-1.84
88,1.59,3.47,1.60,3.48,-3.48,-3.58,-1.89,-1.88,-1.88
89,1.55,3.47,1.56,3.49,-3.49,-3.60,-1.93,-1.92,-1.92
90,1.50,3.47,1.52,3.49,-3.49,-3.61,-1.99,-1.97,-1.96
91,1.46,3.47,1.48,3.49,-3.49,-3.63,-2.03,-2.01,-2.00
92,1.43,3.48,1.44,3.50,-3.50,-3.66,-2.06,-2.05,-2.05
93,1.39,3.48,1.41,3.50,-3.50,-3.69,-2.11,-2.09,-2.09
94,1.36,3.49,1.37,3.50,-3.50,-3.71,-2.14,-2.13,-2.13
95,1.33,3.50,1.33,3.50,-3.50,-3.75,-2.17,-2.17,-2.17
96,1.29,3.50,1.28,3.49,-3.49,-3.78,-2.20,-2.21,-2.21
97,1.25,3.50,1.24,3.48,-3.48,-3.82,-2.23,-2.25,-2.25
98,1.21,3.50,1.18,3.47,-3.47,-3.85,-2.26,-2.29,-2.29
99,1.15,3.48,1.12,3.45,-3.45,-3.89,-2.30,-2.33,-2.33
100,1.08,3.45,1.05,3.43,-3.43,-3.93,-2.34,-2.38,-2.36
101,1.01,3.42,0.98,3.40,-3.40,-3.98,-2.39,-2.42,-2.40
102,0.94,3.38,0.91,3.37,-3.37,-4.02,-2.43,-2.46,-2.44
104,0.79,3.31,0.83,3.33,-3.33,-4.10,-2.54,-2.50,-2.51
105,0.72,3.27,0.76,3.30,-3.30,-4.15,-2.58,-2.54,-2.55
106,0.65,3.24,0.68,3.27,-3.27,-4.19,-2.61,-2.58,-2.59
107,0.58,3.21,0.61,3.23,-3.23,-4.23,-2.65,-2.62,-2.62
108,0.51,3.17,0.54,3.20,-3.20,-4.27,-2.69,-2.66,-2.66
109,0.47,3.16,0.48,3.18,-3.18,-4.31,-2.70,-2.70,-2.69
110,0.43,3.16,0.42,3.16,-3.16,-4.34,-2.72,-2.74,-2.73
111,0.38,3.14,0.37,3.14,-3.14,-4.38,-2.76,-2.77,-2.76
112,0.34,3.13,0.33,3.14,-3.14,-4.41,-2.79,-2.81,-2.79
113,0.30,3.13,0.30,3.13,-3.13,-4.44,-2.83,-2.84,-2.82
114,0.27,3.13,0.27,3.14,-3.14,-4.47,-2.86,-2.87,-2.86
115,0.23,3.12,0.24,3.14,-3.14,-4.49,-2.91,-2.90,-2.89
117,0.19,3.14,0.22,3.16,-3.16,-4.53,-2.97,-2.94,-2.95
118,0.19,3.17,0.21,3.18,-3.18,-4.54,-2.98,-2.97,-2.98
119,0.19,3.20,0.20,3.20,-3.20,-4.55,-3.01,-3.00,-3.01
120,0.19,3.23,0.19,3.23,-3.23,-4.56,-3.03,-3.04,-3.03
121,0.19,3.25,0.18,3.26,-3.26,-4.56,-3.07,-3.07,-3.06
123,0.19,3.31,0.18,3.29,-3.29,-4.55,-3.10,-3.11,-3.12
124,0.19,3.33,0.19,3.33,-3.33,-4.53,-3.14,-3.14,-3.14
125,0.19,3.36,0.19,3.37,-3.37,-4.52,-3.17,-3.17,-3.17
126,0.19,3.39,0.21,3.41,-3.41,-4.50,-3.21,-3.20,-3.19
128,0.23,3.47,0.22,3.45,-3.45,-4.45,-3.22,-3.23,-3.24
129,0.23,3.50,0.23,3.49,-3.49,-4.41,-3.26,-3.26,-3.26
130,0.23,3.52,0.24,3.54,-3.54,-4.38,-3.30,-3.29,-3.29
131,0.25,3.56,0.26,3.58,-3.58,-4.34,-3.33,-3.32,-3.31
133,0.28,3.64,0.28,3.62,-3.62,-4.25,-3.34,-3.35,-3.35
134,0.28,3.66,0.29,3.67,-3.67,-4.21,-3.39,-3.38,-3.37
135,0.32,3.72,0.31,3.71,-3.71,-4.16,-3.39,-3.40,-3.39
137,0.32,3.76,0.33,3.76,-3.76,-4.05,-3.43,-3.43,-3.43
138,0.36,3.82,0.34,3.80,-3.80,-3.99,-3.44,-3.46,-3.45
140,0.36,3.85,0.36,3.84,-3.84,-3.87,-3.48,-3.49,-3.49
141,0.36,3.87,0.37,3.89,-3.89,-3.81,-3.52,-3.51,-3.51
142,0.39,3.92,0.39,3.93,-3.93,-3.75,-3.53,-3.54,-3.53
144,0.41,3.97,0.41,3.97,-3.97,-3.63,-3.55,-3.56,-3.56
145,0.41,3.99,0.42,4.01,-4.01,-3.56,-3.59,-3.59,-3.58
147,0.41,4.02,0.44,4.05,-4.05,-3.43,-3.63,-3.61,-3.61
148,0.45,4.08,0.45,4.08,-4.08,-3.37,-3.63,-3.63,-3.62
150,0.45,4.11,0.46,4.12,-4.12,-3.23,-3.66,-3.65,-3.65
151,0.46,4.13,0.48,4.15,-4.15,-3.17,-3.69,-3.67,-3.67
153,0.49,4.19,0.48,4.18,-4.18,-3.04,-3.69,-3.69,-3.69
154,0.49,4.20,0.49,4.20,-4.20,-2.97,-3.71,-3.71,-3.71
156,0.49,4.23,0.49,4.23,-4.23,-2.85,-3.73,-3.73,-3.73
157,0.49,4.24,0.49,4.24,-4.24,-2.78,-3.75,-3.75,-3.75
159,0.49,4.26,0.48,4.25,-4.25,-2.66,-3.76,-3.77,-3.77
160,0.49,4.27,0.47,4.26,-4.26,-2.60,-3.77,-3.79,-3.78
162,0.45,4.26,0.45,4.26,-4.26,-2.48,-3.81,-3.81,-3.80
164,0.41,4.24,0.43,4.25,-4.25,-2.36,-3.84,-3.82,-3.82
165,0.39,4.23,0.40,4.23,-4.23,-2.30,-3.84,-3.83,-3.83
167,0.34,4.20,0.35,4.20,-4.20,-2.18,-3.86,-3.85,-3.85
169,0.29,4.17,0.29,4.16,-4.16,-2.07,-3.87,-3.87,-3.87
170,0.24,4.12,0.23,4.11,-4.11,-2.02,-3.87,-3.89,-3.88
172,0.17,4.07,0.15,4.05,-4.05,-1.91,-3.88,-3.90,-3.90
174,0.05,3.97,0.07,3.98,-3.98,-1.81,-3.92,-3.91,-3.92
175,0.01,3.94,-0.03,3.89,-3.89,-1.76,-3.88,-3.92,-3.92
177,-0.11,3.83,-0.14,3.79,-3.79,-1.66,-3.90,-3.94,-3.94
179,-0.24,3.72,-0.26,3.68,-3.68,-1.56,-3.92,-3.95,-3.95
181,-0.42,3.55,-0.40,3.57,-3.57,-1.47,-3.98,-3.96,-3.97
183,-0.57,3.41,-0.54,3.44,-3.44,-1.37,-4.01,-3.98,-3.98
184,-0.65,3.34,-0.69,3.31,-3.31,-1.33,-3.95,-4.00,-3.99
186,-0.82,3.18,-0.84,3.17,-3.17,-1.24,-3.99,-4.01,-4.00
188,-0.98,3.04,-0.99,3.03,-3.03,-1.15,-4.01,-4.03,-4.01
190,-1.15,2.88,-1.14,2.90,-2.90,-1.07,-4.04,-4.04,-4.02
192,-1.33,2.71,-1.29,2.76,-2.76,-0.99,-4.09,-4.05,-4.04
194,-1.47,2.58,-1.43,2.64,-2.64,-0.91,-4.10,-4.07,-4.05
196,-1.62,2.44,-1.57,2.51,-2.51,-0.83,-4.13,-4.08,-4.06
198,-1.74,2.33,-1.69,2.40,-2.40,-0.76,-4.14,-4.09,-4.07
200,-1.85,2.23,-1.80,2.29,-2.29,-0.68,-4.14,-4.09,-4.07
202,-1.93,2.16,-1.92,2.19,-2.19,-0.61,-4.11,-4.10,-4.08
204,-2.03,2.07,-2.03,2.09,-2.09,-0.54,-4.11,-4.11,-4.09
206,-2.13,1.97,-2.13,1.99,-1.99,-0.48,-4.12,-4.12,-4.10
208,-2.21,1.90,-2.23,1.89,-1.89,-0.41,-4.10,-4.12,-4.11
210,-2.31,1.81,-2.33,1.79,-1.79,-0.35,-4.10,-4.12,-4.12
212,-2.41,1.72,-2.43,1.69,-1.69,-0.29,-4.10,-4.13,-4.12
214,-2.52,1.61,-2.55,1.59,-1.59,-0.23,-4.10,-4.13,-4.13
216,-2.62,1.52,-2.66,1.48,-1.48,-0.17,-4.09,-4.13,-4.14
218,-2.76,1.39,-2.78,1.36,-1.36,-0.12,-4.12,-4.14,-4.15
221,-2.94,1.22,-2.91,1.24,-1.24,-0.04,-4.17,-4.15,-4.15
223,-3.06,1.10,-3.05,1.11,-1.11,0.01,-4.16,-4.15,-4.16
225,-3.20,0.96,-3.19,0.97,-0.97,0.05,-4.17,-4.16,-4.16
227,-3.33,0.84,-3.34,0.82,-0.82,0.10,-4.15,-4.16,-4.16
229,-3.47,0.70,-3.49,0.68,-0.68,0.14,-4.14,-4.17,-4.16
232,-3.65,0.52,-3.64,0.52,-0.52,0.20,-4.17,-4.16,-4.16
234,-3.78,0.38,-3.79,0.37,-0.37,0.23,-4.15,-4.16,-4.16
236,-3.92,0.24,-3.94,0.22,-0.22,0.27,-4.13,-4.16,-4.15
239,-4.13,0.02,-4.09,0.06,-0.06,0.32,-4.19,-4.15,-4.15
241,-4.24,-0.10,-4.23,-0.09,0.09,0.34,-4.15,-4.14,-4.14
244,-4.41,-0.28,-4.37,-0.24,0.24,0.38,-4.17,-4.13,-4.13
246,-4.54,-0.42,-4.51,-0.39,0.39,0.41,-4.15,-4.13,-4.12
248,-4.62,-0.51,-4.65,-0.53,0.53,0.43,-4.09,-4.12,-4.11
251,-4.79,-0.69,-4.78,-0.67,0.67,0.45,-4.12,-4.11,-4.10
253,-4.89,-0.80,-4.90,-0.80,0.80,0.47,-4.08,-4.10,-4.09
256,-5.01,-0.93,-5.02,-0.94,0.94,0.49,-4.07,-4.08,-4.08
259,-5.16,-1.09,-5.13,-1.06,1.06,0.50,-4.09,-4.07,-4.07
261,-5.26,-1.20,-5.24,-1.19,1.19,0.51,-4.07,-4.06,-4.06
264,-5.36,-1.31,-5.35,-1.31,1.31,0.52,-4.05,-4.04,-4.05
266,-5.43,-1.39,-5.45,-1.42,1.42,0.53,-4.01,-4.03,-4.04
269,-5.55,-1.52,-5.55,-1.53,1.53,0.53,-4.02,-4.02,-4.02
272,-5.64,-1.62,-5.65,-1.63,1.63,0.53,-4.00,-4.02,-4.01
274,-5.70,-1.70,-5.74,-1.73,1.73,0.53,-3.96,-4.01,-4.00
277,-5.81,-1.82,-5.82,-1.82,1.82,0.53,-3.98,-3.99,-3.99
280,-5.88,-1.91,-5.89,-1.91,1.91,0.52,-3.97,-3.98,-3.97
283,-5.98,-2.03,-5.94,-1.98,1.98,0.52,-4.00,-3.96,-3.95
286,-6.03,-2.10,-5.99,-2.05,2.05,0.51,-3.98,-3.94,-3.93
288,-6.07,-2.16,-6.02,-2.10,2.10,0.50,-3.97,-3.92,-3.91
291,-6.09,-2.20,-6.05,-2.14,2.14,0.49,-3.94,-3.90,-3.89
294,-6.09,-2.22,-6.06,-2.18,2.18,0.48,-3.91,-3.88,-3.86
297,-6.07,-2.22,-6.06,-2.20,2.20,0.46,-3.87,-3.86,-3.84
300,-6.04,-2.21,-6.06,-2.21,2.21,0.45,-3.82,-3.84,-3.82
303,-6.01,-2.20,-6.04,-2.22,2.22,0.44,-3.79,-3.82,-3.80
306,-5.96,-2.17,-6.01,-2.21,2.21,0.42,-3.75,-3.80,-3.78
309,-5.96,-2.19,-5.97,-2.20,2.20,0.41,-3.76,-3.78,-3.76
312,-5.93,-2.18,-5.93,-2.18,2.18,0.39,-3.75,-3.75,-3.75
316,-5.90,-2.17,-5.88,-2.15,2.15,0.37,-3.75,-3.73,-3.73
319,-5.86,-2.14,-5.83,-2.12,2.12,0.36,-3.74,-3.71,-3.71
322,-5.80,-2.10,-5.78,-2.08,2.08,0.34,-3.71,-3.69,-3.69
325,-5.73,-2.05,-5.72,-2.05,2.05,0.33,-3.68,-3.67,-3.67
328,-5.67,-2.01,-5.66,-2.01,2.01,0.31,-3.66,-3.65,-3.65
332,-5.58,-1.94,-5.60,-1.96,1.96,0.29,-3.61,-3.63,-3.63
335,-5.51,-1.89,-5.53,-1.92,1.92,0.28,-3.59,-3.61,-3.61
338,-5.46,-1.87,-5.47,-1.88,1.88,0.26,-3.58,-3.59,-3.59
342,-5.38,-1.81,-5.40,-1.83,1.83,0.25,-3.55,-3.57,-3.57
345,-5.34,-1.79,-5.33,-1.78,1.78,0.23,-3.55,-3.55,-3.54
349,-5.26,-1.73,-5.26,-1.73,1.73,0.22,-3.52,-3.52,-3.52
352,-5.19,-1.69,-5.19,-1.69,1.69,0.20,-3.50,-3.50,-3.50
356,-5.11,-1.63,-5.12,-1.63,1.63,0.19,-3.47,-3.49,-3.48
359,-5.07,-1.60,-5.05,-1.58,1.58,0.17,-3.49,-3.47,-3.46
363,-4.98,-1.53,-4.98,-1.53,1.53,0.16,-3.45,-3.45,-3.45
366,-4.92,-1.48,-4.91,-1.47,1.47,0.15,-3.45,-3.44,-3.43
370,-4.84,-1.42,-4.83,-1.41,1.41,0.13,-3.43,-3.42,-3.42
374,-4.74,-1.33,-4.75,-1.35,1.35,0.12,-3.39,-3.40,-3.41
377,-4.70,-1.30,-4.67,-1.29,1.29,0.11,-3.41,-3.39,-3.39
381,-4.59,-1.21,-4.59,-1.22,1.22,0.09,-3.37,-3.37,-3.38
385,-4.51,-1.14,-4.51,-1.15,1.15,0.08,-3.36,-3.36,-3.37
389,-4.42,-1.06,-4.43,-1.07,1.07,0.07,-3.35,-3.36,-3.36
393,-4.32,-0.97,-4.34,-0.99,0.99,0.06,-3.33,-3.36,-3.34
397,-4.24,-0.90,-4.25,-0.90,0.90,0.04,-3.34,-3.35,-3.34
401,-4.15,-0.82,-4.16,-0.81,0.81,0.03,-3.34,-3.35,-3.33
405,-4.04,-0.71,-4.05,-0.70,0.70,0.02,-3.33,-3.35,-3.32
409,-3.96,-0.64,-3.94,-0.59,0.59,0.01,-3.36,-3.35,-3.32
413,-3.86,-0.54,-3.82,-0.48,0.48,-0.00,-3.38,-3.34,-3.31
417,-3.74,-0.43,-3.68,-0.35,0.35,-0.01,-3.39,-3.33,-3.31
421,-3.63,-0.32,-3.55,-0.22,0.22,-0.02,-3.41,-3.33,-3.31
425,-3.48,-0.18,-3.41,-0.09,0.09,-0.03,-3.39,-3.32,-3.30
430,-3.28,0.02,-3.26,0.05,-0.05,-0.05,-3.32,-3.31,-3.30
434,-3.12,0.17,-3.12,0.18,-0.18,-0.06,-3.30,-3.30,-3.29
438,-2.97,0.32,-2.98,0.30,-0.30,-0.07,-3.27,-3.29,-3.28
443,-2.79,0.49,-2.86,0.42,-0.42,-0.08,-3.21,-3.28,-3.28
447,-2.66,0.61,-2.74,0.53,-0.53,-0.09,-3.19,-3.27,-3.27
451,-2.56,0.70,-2.63,0.63,-0.63,-0.10,-3.18,-3.25,-3.25
456,-2.48,0.76,-2.53,0.71,-0.71,-0.11,-3.19,-3.24,-3.24
460,-2.43,0.80,-2.45,0.78,-0.78,-0.13,-3.20,-3.22,-3.23
465,-2.38,0.83,-2.38,0.83,-0.83,-0.14,-3.21,-3.21,-3.21
470,-2.35,0.85,-2.32,0.88,-0.88,-0.15,-3.22,-3.20,-3.20
474,-2.32,0.86,-2.28,0.91,-0.91,-0.16,-3.23,-3.19,-3.18
479,-2.29,0.88,-2.25,0.93,-0.93,-0.18,-3.22,-3.18,-3.17
484,-2.26,0.90,-2.23,0.94,-0.94,-0.19,-3.20,-3.17,-3.15
489,-2.21,0.93,-2.21,0.95,-0.95,-0.21,-3.15,-3.16,-3.14
494,-2.18,0.95,-2.19,0.95,-0.95,-0.22,-3.12,-3.14,-3.13
499,-2.15,0.97,-2.18,0.94,-0.94,-0.24,-3.09,-3.13,-3.12
504,-2.15,0.95,-2.17,0.94,-0.94,-0.25,-3.09,-3.11,-3.10
509,-2.15,0.94,-2.16,0.94,-0.94,-0.27,-3.08,-3.09,-3.09
514,-2.15,0.92,-2.15,0.93,-0.93,-0.29,-3.08,-3.08,-3.07
519,-2.15,0.91,-2.13,0.92,-0.92,-0.30,-3.07,-3.06,-3.05
524,-2.15,0.89,-2.12,0.92,-0.92,-0.32,-3.07,-3.04,-3.03
529,-2.11,0.91,-2.10,0.92,-0.92,-0.34,-3.02,-3.02,-3.01
535,-2.11,0.88,-2.08,0.92,-0.92,-0.36,-3.02,-3.00,-2.99
540,-2.08,0.89,-2.06,0.92,-0.92,-0.38,-3.00,-2.98,-2.97
545,-2.06,0.89,-2.03,0.92,-0.92,-0.39,-2.98,-2.95,-2.94
551,-2.02,0.90,-2.00,0.93,-0.93,-0.42,-2.94,-2.93,-2.92
556,-1.98,0.92,-1.97,0.93,-0.93,-0.44,-2.91,-2.90,-2.90
562,-1.93,0.95,-1.94,0.94,-0.94,-0.46,-2.87,-2.88,-2.87
568,-1.89,0.96,-1.90,0.95,-0.95,-0.48,-2.84,-2.85,-2.85
573,-1.85,0.98,-1.87,0.96,-0.96,-0.50,-2.81,-2.83,-2.83
579,-1.81,1.00,-1.84,0.97,-0.97,-0.53,-2.77,-2.81,-2.81
585,-1.80,0.99,-1.82,0.98,-0.98,-0.55,-2.77,-2.79,-2.79
591,-1.77,1.00,-1.79,0.98,-0.98,-0.58,-2.75,-2.78,-2.77
596,-1.76,1.00,-1.77,0.99,-0.99,-0.60,-2.75,-2.76,-2.76
602,-1.76,0.98,-1.74,1.00,-1.00,-0.63,-2.76,-2.75,-2.74
608,-1.76,0.97,-1.72,1.01,-1.01,-0.66,-2.77,-2.73,-2.73
615,-1.72,1.00,-1.69,1.03,-1.03,-0.69,-2.74,-2.72,-2.71
621,-1.68,1.02,-1.67,1.04,-1.04,-0.71,-2.72,-2.71,-2.70
627,-1.66,1.03,-1.64,1.05,-1.05,-0.74,-2.71,-2.69,-2.69
633,-1.61,1.07,-1.60,1.07,-1.07,-0.77,-2.68,-2.68,-2.67
639,-1.58,1.08,-1.57,1.09,-1.09,-0.80,-2.67,-2.66,-2.66
646,-1.52,1.13,-1.53,1.12,-1.12,-0.84,-2.63,-2.65,-2.64
652,-1.48,1.15,-1.49,1.14,-1.14,-0.87,-2.62,-2.63,-2.63
659,-1.44,1.18,-1.44,1.17,-1.17,-0.90,-2.61,-2.62,-2.61
665,-1.39,1.21,-1.40,1.20,-1.20,-0.93,-2.59,-2.60,-2.60
672,-1.35,1.24,-1.35,1.24,-1.24,-0.97,-2.58,-2.59,-2.59
679,-1.31,1.27,-1.31,1.27,-1.27,-1.01,-2.58,-2.58,-2.57
686,-1.26,1.30,-1.26,1.31,-1.31,-1.04,-2.57,-2.57,-2.56
692,-1.22,1.33,-1.21,1.35,-1.35,-1.08,-2.56,-2.56,-2.55
699,-1.18,1.37,-1.17,1.38,-1.38,-1.12,-2.56,-2.55,-2.54
706,-1.13,1.41,-1.12,1.42,-1.42,-1.16,-2.55,-2.54,-2.54
713,-1.08,1.46,-1.08,1.46,-1.46,-1.20,-2.54,-2.54,-2.53
721,-1.04,1.49,-1.03,1.50,-1.50,-1.24,-2.53,-2.53,-2.53
728,-0.98,1.55,-0.99,1.53,-1.53,-1.28,-2.51,-2.52,-2.52
735,-0.94,1.58,-0.95,1.57,-1.57,-1.32,-2.51,-2.52,-2.52
742,-0.89,1.63,-0.90,1.61,-1.61,-1.37,-2.49,-2.51,-2.51
750,-0.86,1.65,-0.86,1.64,-1.64,-1.41,-2.50,-2.50,-2.51
757,-0.83,1.67,-0.82,1.68,-1.68,-1.46,-2.50,-2.50,-2.50
765,-0.78,1.72,-0.78,1.71,-1.71,-1.51,-2.49,-2.49,-2.49
773,-0.75,1.74,-0.74,1.75,-1.75,-1.56,-2.49,-2.48,-2.49
780,-0.70,1.78,-0.70,1.78,-1.78,-1.60,-2.48,-2.47,-2.48
788,-0.67,1.80,-0.65,1.81,-1.81,-1.65,-2.48,-2.47,-2.47
796,-0.61,1.85,-0.61,1.85,-1.85,-1.70,-2.46,-2.46,-2.46
804,-0.58,1.87,-0.57,1.89,-1.89,-1.75,-2.46,-2.46,-2.45
812,-0.53,1.91,-0.53,1.92,-1.92,-1.79,-2.45,-2.45,-2.44
820,-0.48,1.95,-0.48,1.96,-1.96,-1.84,-2.44,-2.44,-2.43
828,-0.44,1.99,-0.43,2.01,-2.01,-1.89,-2.44,-2.44,-2.43
837,-0.40,2.03,-0.39,2.05,-2.05,-1.94,-2.45,-2.43,-2.42
845,-0.35,2.07,-0.34,2.09,-2.09,-1.99,-2.44,-2.43,-2.42
853,-0.30,2.12,-0.29,2.13,-2.13,-2.03,-2.43,-2.43,-2.42
862,-0.27,2.16,-0.25,2.17,-2.17,-2.08,-2.44,-2.42,-2.42
871,-0.21,2.22,-0.22,2.21,-2.21,-2.13,-2.42,-2.42,-2.43
879,-0.17,2.26,-0.18,2.24,-2.24,-2.17,-2.41,-2.43,-2.43
888,-0.13,2.30,-0.15,2.27,-2.27,-2.21,-2.40,-2.42,-2.43
897,-0.11,2.32,-0.13,2.30,-2.30,-2.26,-2.40,-2.42,-2.43
906,-0.10,2.33,-0.10,2.32,-2.32,-2.29,-2.41,-2.42,-2.43
915,-0.07,2.36,-0.09,2.33,-2.33,-2.33,-2.40,-2.42,-2.42
924,-0.07,2.35,-0.07,2.34,-2.34,-2.36,-2.41,-2.42,-2.42
933,-0.07,2.35,-0.06,2.35,-2.35,-2.39,-2.42,-2.41,-2.41
943,-0.07,2.34,-0.05,2.35,-2.35,-2.42,-2.42,-2.40,-2.40
952,-0.07,2.33,-0.04,2.35,-2.35,-2.45,-2.42,-2.39,-2.39
962,-0.03,2.35,-0.03,2.34,-2.34,-2.47,-2.37,-2.38,-2.38
971,-0.03,2.34,-0.03,2.34,-2.34,-2.48,-2.36,-2.36,-2.37
981,-0.03,2.32,-0.02,2.33,-2.33,-2.50,-2.35,-2.35,-2.35
991,-0.03,2.30,-0.01,2.31,-2.31,-2.51,-2.34,-2.33,-2.33
1001,0.00,2.31,-0.01,2.30,-2.30,-2.51,-2.30,-2.31,-2.31
1011,0.02,2.30,0.00,2.29,-2.29,-2.52,-2.27,-2.29,-2.28
1021,0.02,2.28,0.01,2.28,-2.28,-2.52,-2.25,-2.26,-2.26
1031,0.02,2.25,0.03,2.26,-2.26,-2.51,-2.24,-2.24,-2.23
1041,0.02,2.23,0.04,2.25,-2.25,-2.50,-2.23,-2.21,-2.20
1052,0.06,2.24,0.06,2.24,-2.24,-2.49,-2.18,-2.18,-2.18
1062,0.06,2.21,0.07,2.23,-2.23,-2.47,-2.16,-2.16,-2.15
1073,0.07,2.19,0.09,2.22,-2.22,-2.45,-2.14,-2.12,-2.12
1084,0.10,2.20,0.11,2.20,-2.20,-2.43,-2.10,-2.10,-2.09
1094,0.10,2.16,0.13,2.19,-2.19,-2.41,-2.09,-2.06,-2.06
1105,0.15,2.18,0.14,2.18,-2.18,-2.38,-2.02,-2.04,-2.03
1116,0.16,2.16,0.16,2.16,-2.16,-2.35,-2.00,-2.00,-2.00
1128,0.19,2.16,0.18,2.15,-2.15,-2.32,-1.95,-1.97,-1.97
1139,0.23,2.17,0.20,2.13,-2.13,-2.29,-1.90,-1.94,-1.94
1150,0.23,2.13,0.21,2.11,-2.11,-2.26,-1.88,-1.90,-1.90
1162,0.23,2.10,0.23,2.09,-2.09,-2.22,-1.86,-1.86,-1.86
1173,0.23,2.06,0.25,2.07,-2.07,-2.18,-1.84,-1.82,-1.83
1185,0.23,2.02,0.27,2.05,-2.05,-2.15,-1.81,-1.78,-1.78
1197,0.28,2.02,0.28,2.02,-2.02,-2.11,-1.74,-1.74,-1.74
1209,0.28,1.98,0.30,2.00,-2.00,-2.07,-1.71,-1.69,-1.69
1221,0.32,1.97,0.32,1.97,-1.97,-2.03,-1.64,-1.65,-1.65
1233,0.33,1.93,0.34,1.94,-1.94,-2.00,-1.60,-1.60,-1.60
1246,0.36,1.91,0.36,1.91,-1.91,-1.96,-1.54,-1.55,-1.54
1258,0.39,1.88,0.38,1.87,-1.87,-1.92,-1.48,-1.49,-1.49
1271,0.41,1.85,0.41,1.84,-1.84,-1.89,-1.43,-1.43,-1.43
1283,0.45,1.83,0.43,1.80,-1.80,-1.85,-1.35,-1.37,-1.38
1296,0.45,1.77,0.46,1.77,-1.77,-1.82,-1.32,-1.31,-1.31
1309,0.49,1.74,0.49,1.73,-1.73,-1.79,-1.24,-1.25,-1.25
1322,0.50,1.69,0.51,1.70,-1.70,-1.75,-1.19,-1.19,-1.19
1335,0.54,1.66,0.54,1.66,-1.66,-1.72,-1.12,-1.12,-1.12
1349,0.56,1.61,0.57,1.62,-1.62,-1.69,-1.06,-1.06,-1.05
1362,0.61,1.60,0.60,1.59,-1.59,-1.66,-0.98,-0.99,-0.98
1376,0.62,1.54,0.63,1.56,-1.56,-1.64,-0.93,-0.93,-0.91
1390,0.67,1.52,0.67,1.53,-1.53,-1.61,-0.85,-0.86,-0.84
1404,0.70,1.48,0.71,1.50,-1.50,-1.58,-0.79,-0.79,-0.77
1418,0.73,1.43,0.75,1.47,-1.47,-1.56,-0.74,-0.72,-0.70
1432,0.79,1.42,0.80,1.45,-1.45,-1.54,-0.65,-0.64,-0.63
1446,0.85,1.41,0.86,1.43,-1.43,-1.52,-0.57,-0.57,-0.56
1461,0.91,1.40,0.91,1.41,-1.41,-1.50,-0.50,-0.50,-0.48
1475,0.97,1.38,0.97,1.39,-1.39,-1.48,-0.42,-0.42,-0.41
1490,1.03,1.37,1.03,1.38,-1.38,-1.46,-0.35,-0.35,-0.33
1505,1.11,1.37,1.10,1.37,-1.37,-1.45,-0.26,-0.27,-0.26
1520,1.18,1.37,1.17,1.36,-1.36,-1.43,-0.18,-0.19,-0.18
1535,1.25,1.36,1.24,1.36,-1.36,-1.42,-0.10,-0.11,-0.10
1550,1.32,1.34,1.32,1.35,-1.35,-1.41,-0.03,-0.03,-0.02
1566,1.39,1.33,1.40,1.35,-1.35,-1.39,0.05,0.05,0.06
1582,1.47,1.32,1.48,1.34,-1.34,-1.38,0.13,0.13,0.15
1597,1.55,1.32,1.56,1.34,-1.34,-1.37,0.21,0.22,0.24
1613,1.64,1.32,1.65,1.34,-1.34,-1.36,0.30,0.31,0.32
1629,1.74,1.33,1.75,1.35,-1.35,-1.36,0.40,0.40,0.42
1646,1.84,1.33,1.84,1.35,-1.35,-1.35,0.49,0.49,0.51
