frequency,raw
20,-5.55
21,-5.48
22,-5.42
23,-5.35
24,-5.28
25,-5.20
26,-5.13
27,-5.06
28,-4.98
29,-4.91
30,-4.83
31,-4.72
32,-4.62
33,-4.52
34,-4.43
35,-4.35
36,-4.29
37,-4.24
38,-4.19
39,-4.16
40,-4.14
41,-4.12
42,-4.11
43,-4.09
44,-4.08
45,-4.07
46,-4.08
47,-4.09
48,-4.10
49,-4.11
50,-4.12
51,-4.12
52,-4.12
53,-4.10
54,-4.08
55,-4.05
56,-4.01
57,-3.97
58,-3.94
59,-3.92
60,-3.90
61,-3.90
62,-3.89
63,-3.89
64,-3.89
65,-3.90
66,-3.93
67,-3.98
68,-4.02
69,-4.07
70,-4.13
71,-4.19
72,-4.25
73,-4.30
74,-4.34
75,-4.39
76,-4.45
77,-4.52
78,-4.60
79,-4.68
80,-4.75
81,-4.82
82,-4.88
83,-4.94
84,-4.99
85,-5.03
86,-5.06
87,-5.08
88,-5.06
89,-5.05
90,-5.03
91,-4.99
92,-4.93
93,-4.87
94,-4.78
95,-4.69
96,-4.58
97,-4.47
98,-4.33
99,-4.20
100,-4.07
101,-3.93
102,-3.79
104,-3.66
105,-3.52
106,-3.40
107,-3.27
108,-3.15
109,-3.03
110,-2.94
111,-2.85
112,-2.78
113,-2.72
114,-2.68
115,-2.62
117,-2.56
118,-2.51
119,-2.46
120,-2.41
121,-2.37
123,-2.33
124,-2.30
125,-2.27
126,-2.25
128,-2.23
129,-2.20
130,-2.16
131,-2.12
133,-2.08
134,-2.05
135,-2.04
137,-2.01
138,-1.98
140,-1.94
141,-1.89
142,-1.84
144,-1.80
145,-1.76
147,-1.71
148,-1.66
150,-1.61
151,-1.57
153,-1.52
154,-1.47
156,-1.41
157,-1.36
159,-1.31
160,-1.27
162,-1.24
164,-1.22
165,-1.21
167,-1.18
169,-1.17
170,-1.16
172,-1.16
174,-1.16
175,-1.17
177,-1.18
179,-1.17
181,-1.16
183,-1.16
184,-1.16
186,-1.17
188,-1.18
190,-1.20
192,-1.23
194,-1.26
196,-1.29
198,-1.32
200,-1.36
202,-1.39
204,-1.42
206,-1.45
208,-1.47
210,-1.48
212,-1.49
214,-1.51
216,-1.52
218,-1.53
221,-1.54
223,-1.56
225,-1.59
227,-1.62
229,-1.66
232,-1.69
234,-1.73
236,-1.76
239,-1.79
241,-1.81
244,-1.83
246,-1.85
248,-1.85
251,-1.85
253,-1.84
256,-1.83
259,-1.83
261,-1.83
264,-1.83
266,-1.83
269,-1.83
272,-1.83
274,-1.83
277,-1.83
280,-1.83
283,-1.83
286,-1.83
288,-1.83
291,-1.83
294,-1.83
297,-1.83
300,-1.83
303,-1.83
306,-1.83
309,-1.83
312,-1.83
316,-1.83
319,-1.83
322,-1.83
325,-1.83
328,-1.83
332,-1.83
335,-1.83
338,-1.83
342,-1.83
345,-1.83
349,-1.83
352,-1.83
356,-1.83
359,-1.83
363,-1.83
366,-1.83
370,-1.83
374,-1.83
377,-1.83
381,-1.83
385,-1.83
389,-1.83
393,-1.83
397,-1.83
401,-1.83
405,-1.83
409,-1.83
413,-1.83
417,-1.83
421,-1.83
425,-1.83
430,-1.83
434,-1.83
438,-1.83
443,-1.83
447,-1.83
451,-1.83
456,-1.83
460,-1.83
465,-1.83
470,-1.83
474,-1.83
479,-1.83
484,-1.83
489,-1.83
494,-1.83
499,-1.83
504,-1.83
509,-1.83
514,-1.83
519,-1.83
524,-1.83
529,-1.83
535,-1.83
540,-1.84
545,-1.84
551,-1.85
556,-1.84
562,-1.83
568,-1.82
573,-1.79
579,-1.77
585,-1.74
591,-1.70
596,-1.67
602,-1.64
608,-1.60
615,-1.57
621,-1.55
627,-1.53
633,-1.52
639,-1.51
646,-1.51
652,-1.50
659,-1.49
665,-1.47
672,-1.45
679,-1.42
686,-1.39
692,-1.35
699,-1.32
706,-1.28
713,-1.26
721,-1.24
728,-1.22
735,-1.20
742,-1.17
750,-1.15
757,-1.13
765,-1.12
773,-1.10
780,-1.08
788,-1.05
796,-1.01
804,-0.96
812,-0.90
820,-0.85
828,-0.81
837,-0.76
845,-0.72
853,-0.67
862,-0.62
871,-0.58
879,-0.53
888,-0.48
897,-0.44
906,-0.40
915,-0.36
924,-0.32
933,-0.28
943,-0.24
952,-0.19
962,-0.14
971,-0.10
981,-0.07
991,-0.03
1001,0.00
1011,0.04
1021,0.09
1031,0.14
1041,0.18
1052,0.22
1062,0.26
1073,0.30
1084,0.35
1094,0.38
1105,0.43
1116,0.49
1128,0.54
1139,0.58
1150,0.61
1162,0.65
1173,0.68
1185,0.72
1197,0.76
1209,0.81
1221,0.86
1233,0.90
1246,0.94
1258,0.97
1271,1.00
1283,1.03
1296,1.07
1309,1.09
1322,1.10
1335,1.09
1349,1.08
1362,1.05
1376,1.01
1390,0.97
1404,0.92
1418,0.87
1432,0.84
1446,0.81
1461,0.79
1475,0.79
1490,0.79
1505,0.81
1520,0.83
1535,0.87
1550,0.92
1566,0.95
1582,0.98
1597,1.00
1613,1.03
1629,1.06
1646,1.10
1662,1.13
1679,1.16
1696,1.19
1713,1.21
1730,1.23
1747,1.26
1764,1.29
1782,1.31
1800,1.34
1818,1.37
1836,1.40
1854,1.44
1873,1.47
1892,1.50
1911,1.52
1930,1.54
1949,1.57
1969,1.61
1988,1.64
2008,1.67
2028,1.70
2048,1.72
2069,1.74
2090,1.76
2111,1.76
2132,1.76
2153,1.75
2175,1.74
2196,1.74
2218,1.74
2240,1.74
2263,1.74
2285,1.74
2308,1.74
2331,1.74
2355,1.74
2378,1.74
2402,1.74
2426,1.74
2450,1.74
2475,1.74
2500,1.74
2525,1.74
2550,1.75
2575,1.76
2601,1.77
2627,1.76
2653,1.75
2680,1.75
2707,1.73
2734,1.71
2761,1.68
2789,1.65
2817,1.60
2845,1.55
2873,1.48
2902,1.39
2931,1.28
2960,1.16
2990,1.02
3020,0.86
3050,0.70
3080,0.52
3111,0.34
3142,0.14
3174,-0.08
3206,-0.31
3238,-0.55
3270,-0.81
3303,-1.09
3336,-1.39
3369,-1.70
3403,-2.04
3437,-2.41
3471,-2.81
3506,-3.23
3541,-3.68
3576,-4.13
3612,-4.59
3648,-5.02
3685,-5.40
3721,-5.72
3759,-5.97
3796,-6.12
3834,-6.17
3873,-6.09
3911,-5.88
3950,-5.55
3990,-5.11
4030,-4.56
4070,-3.92
4111,-3.21
4152,-2.47
4193,-1.71
4235,-0.95
4278,-0.19
4321,0.53
4364,1.22
4407,1.85
4451,2.44
4496,2.98
4541,3.45
4586,3.87
4632,4.25
4679,4.60
4725,4.92
4773,5.20
4820,5.44
4868,5.65
4917,5.84
4966,5.99
5016,6.11
5066,6.20
5117,6.26
5168,6.30
5220,6.33
5272,6.33
5325,6.30
5378,6.24
5432,6.16
5486,6.04
5541,5.90
5596,5.76
5652,5.60
5709,5.42
5766,5.23
5823,5.02
5882,4.79
5940,4.56
6000,4.31
6060,4.06
6120,3.79
6182,3.51
6244,3.22
6306,2.91
6369,2.58
6433,2.23
6497,1.85
6562,1.44
6628,1.01
6694,0.55
6761,0.07
6828,-0.41
6897,-0.89
6966,-1.37
7035,-1.84
7106,-2.30
7177,-2.75
7249,-3.17
7321,-3.56
7394,-3.93
7468,-4.26
7543,-4.57
7618,-4.84
7694,-5.07
7771,-5.28
7849,-5.46
7928,-5.63
8007,-5.79
8087,-5.91
8168,-6.02
8250,-6.11
8332,-6.18
8415,-6.23
8499,-6.28
8584,-6.33
8670,-6.38
8757,-6.44
8845,-6.49
8933,-6.55
9022,-6.63
9113,-6.69
9204,-6.76
9296,-6.82
9389,-6.90
9483,-7.00
9577,-7.10
9673,-7.20
9770,-7.32
9868,-7.45
9966,-7.60
10066,-7.77
10167,-7.98
10268,-8.20
10371,-8.46
10475,-8.74
10579,-9.05
10685,-9.36
10792,-9.67
10900,-9.98
11009,-10.27
11119,-10.52
11230,-10.74
11343,-10.93
11456,-11.08
11571,-11.19
11686,-11.25
11803,-11.25
11921,-11.20
12040,-11.10
12161,-10.96
12282,-10.79
12405,-10.57
12529,-10.34
12655,-10.10
12781,-9.84
12909,-9.58
13038,-9.32
13168,-9.07
13300,-8.85
13433,-8.63
13567,-8.43
13703,-8.27
13840,-8.15
13978,-8.06
14118,-8.00
14259,-7.97
14402,-7.96
14546,-7.98
14692,-8.02
14838,-8.09
14987,-8.18
15137,-8.28
15288,-8.42
15441,-8.60
15595,-8.80
15751,-9.03
15909,-9.30
16068,-9.59
16229,-9.90
16391,-10.26
16555,-10.63
16720,-11.04
16888,-11.49
17056,-11.96
17227,-12.45
17399,-12.94
17573,-13.47
17749,-14.01
17926,-14.56
18106,-15.10
18287,-15.60
18470,-16.09
18654,-16.58
18841,-17.07
19029,-17.56
19220,-18.04
19412,-18.52
19606,-19.00
19802,-19.48
20000,-19.95
