frequency,raw,error,smoothed,error_smoothed,equalization,parametric_eq,equalized_raw,equalized_smoothed,target
20,-7.88,-7.67,-7.76,-7.50,6.00,1.28,-1.88,-1.76,-0.21
21,-7.25,-7.04,-7.22,-6.97,5.94,1.50,-1.31,-1.27,-0.22
22,-6.71,-6.49,-6.70,-6.46,5.80,1.74,-0.91,-0.90,-0.22
23,-6.17,-5.95,-6.21,-5.96,5.59,1.99,-0.58,-0.62,-0.22
24,-5.63,-5.41,-5.73,-5.49,5.31,2.27,-0.32,-0.42,-0.22
25,-5.11,-4.89,-5.27,-5.03,4.98,2.55,-0.14,-0.30,-0.22
26,-4.85,-4.62,-4.84,-4.59,4.59,2.82,-0.26,-0.24,-0.23
27,-4.37,-4.14,-4.42,-4.18,4.18,3.08,-0.20,-0.24,-0.23
28,-3.97,-3.74,-4.02,-3.78,3.78,3.30,-0.19,-0.25,-0.24
29,-3.69,-3.45,-3.65,-3.40,3.40,3.46,-0.29,-0.25,-0.24
30,-3.26,-3.02,-3.29,-3.04,3.04,3.56,-0.22,-0.25,-0.24
31,-3.00,-2.75,-2.97,-2.71,2.71,3.58,-0.29,-0.26,-0.25
32,-2.71,-2.46,-2.66,-2.40,2.40,3.52,-0.32,-0.27,-0.26
33,-2.42,-2.16,-2.38,-2.10,2.10,3.40,-0.32,-0.28,-0.26
34,-2.15,-1.88,-2.12,-1.83,1.83,3.23,-0.32,-0.29,-0.27
35,-1.84,-1.57,-1.86,-1.57,1.57,3.01,-0.27,-0.29,-0.28
36,-1.61,-1.33,-1.62,-1.33,1.33,2.77,-0.28,-0.29,-0.28
37,-1.38,-1.09,-1.40,-1.10,1.10,2.51,-0.28,-0.30,-0.29
38,-1.14,-0.84,-1.20,-0.89,0.89,2.25,-0.26,-0.32,-0.30
39,-0.99,-0.68,-1.02,-0.69,0.69,1.99,-0.30,-0.33,-0.31
40,-0.78,-0.46,-0.85,-0.51,0.51,1.73,-0.27,-0.33,-0.32
41,-0.71,-0.38,-0.69,-0.34,0.34,1.48,-0.37,-0.34,-0.34
42,-0.58,-0.23,-0.54,-0.19,0.19,1.24,-0.39,-0.36,-0.35
43,-0.40,-0.04,-0.42,-0.04,0.04,1.01,-0.36,-0.37,-0.36
44,-0.30,0.07,-0.30,0.09,-0.09,0.78,-0.39,-0.39,-0.37
45,-0.30,0.09,-0.19,0.21,-0.21,0.57,-0.51,-0.40,-0.39
46,-0.10,0.30,-0.09,0.32,-0.32,0.36,-0.42,-0.41,-0.40
47,-0.00,0.42,-0.01,0.42,-0.42,0.16,-0.42,-0.43,-0.42
48,0.10,0.54,0.07,0.52,-0.52,-0.03,-0.42,-0.44,-0.44
49,0.20,0.65,0.14,0.61,-0.61,-0.21,-0.41,-0.46,-0.46
50,0.20,0.67,0.20,0.69,-0.69,-0.39,-0.49,-0.49,-0.47
51,0.30,0.79,0.26,0.77,-0.77,-0.56,-0.47,-0.51,-0.49
52,0.35,0.86,0.31,0.85,-0.85,-0.73,-0.50,-0.54,-0.51
53,0.40,0.93,0.36,0.92,-0.92,-0.89,-0.52,-0.56,-0.54
54,0.40,0.96,0.42,1.00,-1.00,-1.04,-0.60,-0.58,-0.56
55,0.40,0.98,0.47,1.08,-1.08,-1.18,-0.68,-0.60,-0.58
56,0.50,1.10,0.52,1.15,-1.15,-1.32,-0.66,-0.63,-0.61
57,0.50,1.13,0.57,1.23,-1.23,-1.44,-0.73,-0.66,-0.63
58,0.50,1.16,0.62,1.30,-1.30,-1.56,-0.81,-0.68,-0.66
59,0.63,1.31,0.67,1.38,-1.38,-1.67,-0.75,-0.71,-0.69
60,0.80,1.51,0.72,1.45,-1.45,-1.77,-0.65,-0.73,-0.71
61,0.80,1.54,0.76,1.52,-1.52,-1.86,-0.72,-0.76,-0.74
62,0.90,1.67,0.80,1.58,-1.58,-1.95,-0.69,-0.79,-0.77
63,0.90,1.70,0.83,1.64,-1.64,-2.02,-0.75,-0.81,-0.80
64,0.90,1.73,0.86,1.70,-1.70,-2.09,-0.80,-0.84,-0.83
65,0.90,1.76,0.88,1.75,-1.75,-2.15,-0.85,-0.87,-0.87
66,0.90,1.80,0.89,1.80,-1.80,-2.21,-0.91,-0.91,-0.90
67,0.90,1.83,0.91,1.85,-1.85,-2.26,-0.96,-0.94,-0.93
68,0.90,1.87,0.92,1.90,-1.90,-2.30,-1.01,-0.98,-0.97
69,0.93,1.93,0.93,1.96,-1.96,-2.35,-1.03,-1.03,-1.00
70,0.90,1.94,0.94,2.01,-2.01,-2.39,-1.12,-1.07,-1.04
71,0.90,1.97,0.97,2.08,-2.08,-2.42,-1.18,-1.11,-1.08
72,0.99,2.10,1.01,2.15,-2.15,-2.46,-1.16,-1.14,-1.11
73,1.00,2.15,1.06,2.23,-2.23,-2.50,-1.24,-1.18,-1.15
74,1.05,2.24,1.12,2.33,-2.33,-2.53,-1.28,-1.21,-1.19
75,1.20,2.43,1.18,2.42,-2.42,-2.57,-1.23,-1.25,-1.23
76,1.30,2.57,1.24,2.52,-2.52,-2.61,-1.23,-1.28,-1.27
77,1.30,2.60,1.31,2.62,-2.62,-2.65,-1.33,-1.31,-1.31
78,1.41,2.76,1.37,2.72,-2.72,-2.69,-1.32,-1.35,-1.35
79,1.41,2.80,1.43,2.82,-2.82,-2.73,-1.41,-1.38,-1.39
80,1.54,2.97,1.49,2.91,-2.91,-2.78,-1.37,-1.43,-1.43
81,1.61,3.08,1.52,3.00,-3.00,-2.83,-1.39,-1.47,-1.47
82,1.61,3.12,1.55,3.08,-3.08,-2.88,-1.47,-1.52,-1.51
83,1.61,3.16,1.58,3.15,-3.15,-2.93,-1.54,-1.56,-1.55
84,1.61,3.20,1.61,3.22,-3.22,-2.99,-1.61,-1.61,-1.59
85,1.61,3.24,1.63,3.28,-3.28,-3.05,-1.67,-1.65,-1.63
86,1.64,3.31,1.65,3.34,-3.34,-3.11,-1.70,-1.69,-1.68
87,1.61,3.33,1.66,3.40,-3.40,-3.17,-1.79,-1.74,-1.72
88,1.61,3.37,1.68,3.46,-3.46,-3.24,-1.85,-1.78,-1.76
89,1.61,3.41,1.70,3.52,-3.52,-3.31,-1.91,-1.82,-1.80
90,1.70,3.54,1.71,3.58,-3.58,-3.38,-1.88,-1.86,-1.84
91,1.81,3.69,1.74,3.64,-3.64,-3.46,-1.83,-1.90,-1.88
92,1.81,3.73,1.76,3.70,-3.70,-3.53,-1.89,-1.93,-1.92
93,1.82,3.78,1.79,3.76,-3.76,-3.61,-1.94,-1.97,-1.97
94,1.82,3.82,1.81,3.82,-3.82,-3.69,-2.00,-2.01,-2.01
95,1.81,3.85,1.83,3.88,-3.88,-3.77,-2.07,-2.05,-2.05
96,1.81,3.89,1.85,3.93,-3.93,-3.86,-2.12,-2.09,-2.09
97,1.91,4.03,1.86,3.99,-3.99,-3.94,-2.08,-2.12,-2.13
98,1.90,4.06,1.87,4.04,-4.04,-4.03,-2.14,-2.16,-2.17
99,1.89,4.09,1.87,4.08,-4.08,-4.12,-2.20,-2.21,-2.21
100,1.87,4.11,1.87,4.13,-4.13,-4.20,-2.26,-2.26,-2.24
101,1.85,4.13,1.86,4.16,-4.16,-4.29,-2.32,-2.30,-2.28
102,1.83,4.15,1.86,4.20,-4.20,-4.38,-2.37,-2.34,-2.32
104,1.81,4.20,1.85,4.23,-4.23,-4.56,-2.42,-2.38,-2.39
105,1.88,4.31,1.85,4.26,-4.26,-4.65,-2.38,-2.42,-2.43
106,1.86,4.32,1.83,4.29,-4.29,-4.73,-2.43,-2.46,-2.47
107,1.84,4.34,1.81,4.32,-4.32,-4.82,-2.48,-2.51,-2.50
108,1.82,4.36,1.79,4.34,-4.34,-4.90,-2.52,-2.55,-2.54
109,1.79,4.36,1.78,4.37,-4.37,-4.98,-2.58,-2.59,-2.57
110,1.78,4.39,1.77,4.40,-4.40,-5.06,-2.62,-2.62,-2.61
111,1.76,4.40,1.77,4.43,-4.43,-5.13,-2.67,-2.66,-2.64
112,1.75,4.42,1.77,4.46,-4.46,-5.20,-2.71,-2.69,-2.67
113,1.74,4.44,1.77,4.49,-4.49,-5.27,-2.76,-2.72,-2.70
114,1.73,4.46,1.78,4.53,-4.53,-5.33,-2.81,-2.76,-2.73
115,1.73,4.49,1.79,4.58,-4.58,-5.39,-2.85,-2.79,-2.76
117,1.83,4.64,1.81,4.62,-4.62,-5.50,-2.79,-2.82,-2.82
118,1.84,4.68,1.83,4.67,-4.67,-5.54,-2.83,-2.84,-2.84
119,1.84,4.70,1.85,4.72,-4.72,-5.58,-2.88,-2.87,-2.86
120,1.87,4.75,1.88,4.77,-4.77,-5.61,-2.90,-2.89,-2.88
121,1.96,4.86,1.90,4.82,-4.82,-5.64,-2.86,-2.92,-2.90
123,1.96,4.90,1.93,4.87,-4.87,-5.68,-2.91,-2.94,-2.95
124,1.97,4.93,1.95,4.91,-4.91,-5.69,-2.94,-2.96,-2.96
125,1.98,4.95,1.98,4.95,-4.95,-5.70,-2.97,-2.98,-2.98
126,1.99,4.98,1.99,4.99,-4.99,-5.70,-3.00,-2.99,-2.99
128,1.99,5.02,2.00,5.02,-5.02,-5.69,-3.03,-3.02,-3.03
129,2.00,5.04,2.00,5.05,-5.05,-5.67,-3.05,-3.04,-3.04
130,2.00,5.06,2.01,5.07,-5.07,-5.66,-3.07,-3.07,-3.06
131,2.01,5.08,2.00,5.09,-5.09,-5.63,-3.08,-3.09,-3.07
133,2.01,5.12,2.00,5.11,-5.11,-5.57,-3.10,-3.11,-3.11
134,2.02,5.14,1.99,5.13,-5.13,-5.54,-3.11,-3.14,-3.12
135,2.02,5.16,1.98,5.14,-5.14,-5.50,-3.13,-3.16,-3.14
137,1.98,5.15,1.98,5.16,-5.16,-5.42,-3.18,-3.18,-3.17
138,1.93,5.11,1.98,5.17,-5.17,-5.37,-3.25,-3.20,-3.19
140,1.93,5.15,1.97,5.19,-5.19,-5.28,-3.26,-3.22,-3.22
141,1.93,5.16,1.96,5.20,-5.20,-5.23,-3.28,-3.25,-3.23
142,1.93,5.18,1.95,5.22,-5.22,-5.18,-3.29,-3.27,-3.25
144,1.93,5.21,1.94,5.23,-5.23,-5.07,-3.30,-3.29,-3.28
145,1.93,5.22,1.93,5.23,-5.23,-5.02,-3.31,-3.31,-3.29
147,1.93,5.25,1.92,5.23,-5.23,-4.91,-3.30,-3.31,-3.32
148,1.93,5.27,1.89,5.22,-5.22,-4.85,-3.29,-3.33,-3.34
150,1.87,5.23,1.86,5.20,-5.20,-4.75,-3.33,-3.35,-3.36
151,1.83,5.20,1.81,5.17,-5.17,-4.69,-3.35,-3.37,-3.38
153,1.73,5.13,1.74,5.14,-5.14,-4.59,-3.41,-3.40,-3.40
154,1.73,5.14,1.66,5.10,-5.10,-4.54,-3.37,-3.43,-3.41
156,1.73,5.16,1.59,5.05,-5.05,-4.43,-3.32,-3.46,-3.43
157,1.64,5.08,1.52,5.00,-5.00,-4.38,-3.36,-3.49,-3.44
159,1.46,4.92,1.45,4.96,-4.96,-4.29,-3.50,-3.51,-3.46
160,1.38,4.85,1.39,4.92,-4.92,-4.24,-3.54,-3.53,-3.47
162,1.13,4.62,1.34,4.89,-4.89,-4.15,-3.76,-3.55,-3.49
164,1.09,4.60,1.29,4.86,-4.86,-4.07,-3.77,-3.57,-3.52
165,1.12,4.65,1.26,4.85,-4.85,-4.03,-3.73,-3.59,-3.53
167,1.12,4.67,1.23,4.83,-4.83,-3.95,-3.72,-3.60,-3.55
169,1.31,4.88,1.22,4.83,-4.83,-3.88,-3.52,-3.62,-3.57
170,1.31,4.89,1.21,4.84,-4.84,-3.84,-3.53,-3.63,-3.58
172,1.30,4.90,1.20,4.85,-4.85,-3.78,-3.55,-3.64,-3.60
174,1.29,4.91,1.21,4.86,-4.86,-3.72,-3.57,-3.64,-3.62
175,1.29,4.92,1.23,4.86,-4.86,-3.69,-3.58,-3.63,-3.63
177,1.24,4.88,1.23,4.86,-4.86,-3.63,-3.63,-3.63,-3.64
179,1.18,4.83,1.23,4.86,-4.86,-3.58,-3.68,-3.63,-3.65
181,1.19,4.85,1.21,4.85,-4.85,-3.54,-3.66,-3.63,-3.66
183,1.19,4.85,1.18,4.83,-4.83,-3.49,-3.64,-3.65,-3.66
184,1.20,4.86,1.14,4.80,-4.80,-3.47,-3.60,-3.66,-3.66
186,1.10,4.75,1.09,4.76,-4.76,-3.44,-3.66,-3.67,-3.66
188,1.03,4.68,1.05,4.72,-4.72,-3.40,-3.69,-3.67,-3.65
190,1.04,4.68,1.02,4.67,-4.67,-3.37,-3.64,-3.66,-3.65
192,0.97,4.61,0.98,4.63,-4.63,-3.35,-3.66,-3.65,-3.64
194,0.87,4.50,0.94,4.59,-4.59,-3.32,-3.72,-3.65,-3.63
196,0.89,4.51,0.90,4.54,-4.54,-3.30,-3.66,-3.64,-3.63
198,0.87,4.49,0.86,4.50,-4.50,-3.28,-3.63,-3.64,-3.62
200,0.81,4.43,0.82,4.45,-4.45,-3.26,-3.65,-3.63,-3.62
202,0.80,4.41,0.78,4.41,-4.41,-3.25,-3.61,-3.63,-3.62
204,0.72,4.33,0.74,4.37,-4.37,-3.23,-3.65,-3.63,-3.62
206,0.72,4.34,0.70,4.33,-4.33,-3.22,-3.61,-3.63,-3.62
208,0.72,4.34,0.66,4.29,-4.29,-3.21,-3.57,-3.63,-3.62
210,0.61,4.24,0.61,4.24,-4.24,-3.20,-3.64,-3.63,-3.63
212,0.52,4.16,0.56,4.20,-4.20,-3.19,-3.68,-3.63,-3.64
214,0.51,4.15,0.51,4.15,-4.15,-3.18,-3.64,-3.64,-3.65
216,0.46,4.11,0.44,4.10,-4.10,-3.17,-3.64,-3.66,-3.66
218,0.41,4.07,0.38,4.04,-4.04,-3.17,-3.64,-3.66,-3.66
221,0.30,3.97,0.32,3.98,-3.98,-3.15,-3.69,-3.67,-3.67
223,0.25,3.93,0.25,3.92,-3.92,-3.14,-3.67,-3.68,-3.68
225,0.20,3.88,0.18,3.86,-3.86,-3.13,-3.66,-3.68,-3.68
227,0.13,3.81,0.10,3.79,-3.79,-3.12,-3.66,-3.69,-3.68
229,0.04,3.72,0.03,3.72,-3.72,-3.11,-3.68,-3.69,-3.68
232,-0.09,3.58,-0.03,3.65,-3.65,-3.09,-3.74,-3.68,-3.68
234,-0.15,3.52,-0.10,3.57,-3.57,-3.07,-3.72,-3.67,-3.67
236,-0.17,3.49,-0.17,3.50,-3.50,-3.06,-3.67,-3.67,-3.66
239,-0.22,3.43,-0.23,3.42,-3.42,-3.03,-3.64,-3.65,-3.65
241,-0.33,3.30,-0.30,3.34,-3.34,-3.01,-3.67,-3.64,-3.63
244,-0.38,3.24,-0.37,3.25,-3.25,-2.97,-3.63,-3.62,-3.62
246,-0.44,3.16,-0.45,3.16,-3.16,-2.95,-3.60,-3.61,-3.60
248,-0.52,3.07,-0.53,3.07,-3.07,-2.92,-3.59,-3.60,-3.59
251,-0.59,2.98,-0.62,2.97,-2.97,-2.88,-3.56,-3.59,-3.57
253,-0.66,2.90,-0.71,2.86,-2.86,-2.85,-3.52,-3.57,-3.56
256,-0.78,2.77,-0.81,2.75,-2.75,-2.79,-3.53,-3.56,-3.55
259,-0.89,2.65,-0.92,2.63,-2.63,-2.74,-3.52,-3.55,-3.54
261,-0.99,2.55,-1.05,2.50,-2.50,-2.70,-3.50,-3.55,-3.54
264,-1.21,2.32,-1.17,2.37,-2.37,-2.64,-3.59,-3.55,-3.53
266,-1.32,2.21,-1.30,2.24,-2.24,-2.60,-3.56,-3.54,-3.53
269,-1.47,2.06,-1.45,2.09,-2.09,-2.53,-3.57,-3.54,-3.53
272,-1.64,1.89,-1.59,1.95,-1.95,-2.46,-3.59,-3.54,-3.53
274,-1.74,1.79,-1.74,1.80,-1.80,-2.41,-3.54,-3.53,-3.53
277,-1.87,1.66,-1.89,1.64,-1.64,-2.34,-3.51,-3.54,-3.53
280,-2.02,1.51,-2.06,1.49,-1.49,-2.27,-3.51,-3.54,-3.53
283,-2.17,1.36,-2.21,1.33,-1.33,-2.19,-3.50,-3.54,-3.53
286,-2.35,1.17,-2.36,1.18,-1.18,-2.11,-3.53,-3.54,-3.53
288,-2.47,1.05,-2.50,1.02,-1.02,-2.06,-3.50,-3.53,-3.52
291,-2.66,0.85,-2.64,0.87,-0.87,-1.98,-3.54,-3.51,-3.51
294,-2.80,0.70,-2.78,0.73,-0.73,-1.91,-3.53,-3.51,-3.50
297,-2.93,0.56,-2.91,0.58,-0.58,-1.83,-3.52,-3.50,-3.49
300,-3.11,0.36,-3.04,0.45,-0.45,-1.75,-3.56,-3.49,-3.48
303,-3.24,0.22,-3.17,0.31,-0.31,-1.67,-3.56,-3.48,-3.47
306,-3.29,0.16,-3.29,0.19,-0.19,-1.59,-3.48,-3.48,-3.45
309,-3.32,0.12,-3.39,0.07,-0.07,-1.51,-3.39,-3.46,-3.45
312,-3.43,0.01,-3.49,-0.04,0.04,-1.43,-3.40,-3.45,-3.44
316,-3.58,-0.15,-3.58,-0.14,0.14,-1.33,-3.44,-3.44,-3.43
319,-3.65,-0.22,-3.67,-0.23,0.23,-1.26,-3.42,-3.44,-3.43
322,-3.78,-0.36,-3.75,-0.32,0.32,-1.18,-3.46,-3.43,-3.42
325,-3.84,-0.42,-3.83,-0.40,0.40,-1.10,-3.44,-3.43,-3.42
328,-3.89,-0.47,-3.90,-0.48,0.48,-1.03,-3.42,-3.42,-3.42
332,-3.96,-0.54,-3.96,-0.54,0.54,-0.93,-3.42,-3.42,-3.42
335,-4.04,-0.62,-4.03,-0.61,0.61,-0.86,-3.44,-3.42,-3.42
338,-4.05,-0.63,-4.09,-0.66,0.66,-0.79,-3.39,-3.43,-3.42
342,-4.15,-0.73,-4.14,-0.72,0.72,-0.69,-3.44,-3.43,-3.42
345,-4.18,-0.76,-4.19,-0.76,0.76,-0.62,-3.42,-3.42,-3.42
349,-4.25,-0.83,-4.22,-0.80,0.80,-0.53,-3.45,-3.42,-3.42
352,-4.25,-0.84,-4.25,-0.84,0.84,-0.46,-3.41,-3.41,-3.41
356,-4.25,-0.84,-4.28,-0.87,0.87,-0.37,-3.38,-3.41,-3.41
359,-4.30,-0.90,-4.30,-0.89,0.89,-0.31,-3.41,-3.40,-3.40
363,-4.34,-0.95,-4.31,-0.91,0.91,-0.22,-3.43,-3.40,-3.40
366,-4.33,-0.94,-4.32,-0.93,0.93,-0.16,-3.40,-3.39,-3.39
370,-4.33,-0.95,-4.32,-0.94,0.94,-0.07,-3.39,-3.38,-3.38
374,-4.32,-0.95,-4.32,-0.95,0.95,0.01,-3.37,-3.37,-3.37
377,-4.31,-0.95,-4.32,-0.96,0.96,0.07,-3.36,-3.36,-3.36
381,-4.30,-0.95,-4.32,-0.96,0.96,0.16,-3.34,-3.36,-3.35
385,-4.30,-0.95,-4.32,-0.96,0.96,0.24,-3.34,-3.36,-3.35
389,-4.29,-0.95,-4.32,-0.96,0.96,0.32,-3.33,-3.36,-3.34
393,-4.29,-0.95,-4.31,-0.96,0.96,0.39,-3.34,-3.35,-3.34
397,-4.29,-0.95,-4.30,-0.95,0.95,0.47,-3.34,-3.35,-3.34
401,-4.29,-0.95,-4.29,-0.95,0.95,0.54,-3.35,-3.35,-3.34
405,-4.29,-0.95,-4.29,-0.94,0.94,0.62,-3.35,-3.35,-3.34
409,-4.29,-0.95,-4.28,-0.94,0.94,0.69,-3.36,-3.34,-3.34
413,-4.30,-0.96,-4.27,-0.93,0.93,0.76,-3.37,-3.34,-3.34
417,-4.30,-0.97,-4.26,-0.92,0.92,0.82,-3.38,-3.33,-3.33
421,-4.21,-0.88,-4.24,-0.92,0.92,0.89,-3.29,-3.32,-3.33
425,-4.19,-0.88,-4.22,-0.91,0.91,0.95,-3.28,-3.31,-3.32
430,-4.18,-0.88,-4.20,-0.91,0.91,1.03,-3.28,-3.29,-3.30
434,-4.16,-0.89,-4.17,-0.90,0.90,1.09,-3.26,-3.27,-3.27
438,-4.13,-0.89,-4.13,-0.89,0.89,1.14,-3.24,-3.24,-3.24
443,-4.09,-0.89,-4.09,-0.89,0.89,1.21,-3.21,-3.20,-3.20
447,-4.05,-0.89,-4.03,-0.88,0.88,1.26,-3.18,-3.16,-3.16
451,-4.00,-0.89,-3.98,-0.87,0.87,1.30,-3.14,-3.11,-3.11
456,-3.94,-0.89,-3.91,-0.85,0.85,1.35,-3.09,-3.06,-3.05
460,-3.88,-0.89,-3.84,-0.84,0.84,1.39,-3.04,-3.00,-3.00
465,-3.82,-0.89,-3.77,-0.82,0.82,1.44,-3.00,-2.95,-2.94
470,-3.67,-0.80,-3.70,-0.81,0.81,1.47,-2.86,-2.89,-2.88
474,-3.60,-0.78,-3.62,-0.79,0.79,1.50,-2.81,-2.83,-2.82
479,-3.54,-0.78,-3.55,-0.77,0.77,1.53,-2.77,-2.77,-2.76
484,-3.48,-0.77,-3.48,-0.76,0.76,1.55,-2.72,-2.72,-2.71
489,-3.36,-0.70,-3.42,-0.74,0.74,1.57,-2.62,-2.67,-2.67
494,-3.32,-0.70,-3.36,-0.73,0.73,1.58,-2.59,-2.63,-2.62
499,-3.29,-0.70,-3.31,-0.72,0.72,1.58,-2.58,-2.60,-2.59
504,-3.27,-0.71,-3.27,-0.71,0.71,1.58,-2.56,-2.57,-2.56
509,-3.25,-0.71,-3.25,-0.70,0.70,1.58,-2.55,-2.55,-2.54
514,-3.24,-0.71,-3.24,-0.70,0.70,1.57,-2.54,-2.55,-2.53
519,-3.23,-0.70,-3.25,-0.70,0.70,1.55,-2.53,-2.55,-2.53
524,-3.24,-0.70,-3.25,-0.70,0.70,1.53,-2.54,-2.55,-2.54
529,-3.25,-0.70,-3.26,-0.70,0.70,1.51,-2.55,-2.56,-2.55
535,-3.27,-0.70,-3.28,-0.71,0.71,1.48,-2.57,-2.57,-2.57
540,-3.30,-0.70,-3.32,-0.71,0.71,1.44,-2.59,-2.61,-2.60
545,-3.34,-0.71,-3.35,-0.71,0.71,1.41,-2.63,-2.64,-2.63
551,-3.39,-0.73,-3.39,-0.71,0.71,1.36,-2.68,-2.67,-2.67
556,-3.44,-0.74,-3.42,-0.71,0.71,1.32,-2.73,-2.71,-2.70
562,-3.43,-0.70,-3.44,-0.71,0.71,1.27,-2.72,-2.74,-2.73
568,-3.42,-0.66,-3.46,-0.70,0.70,1.21,-2.72,-2.76,-2.76
573,-3.47,-0.69,-3.47,-0.69,0.69,1.16,-2.78,-2.78,-2.78
579,-3.51,-0.71,-3.48,-0.67,0.67,1.10,-2.84,-2.80,-2.80
585,-3.55,-0.74,-3.47,-0.65,0.65,1.04,-2.90,-2.82,-2.81
591,-3.57,-0.76,-3.45,-0.63,0.63,0.98,-2.94,-2.82,-2.82
596,-3.39,-0.58,-3.42,-0.60,0.60,0.92,-2.79,-2.81,-2.81
602,-3.33,-0.53,-3.37,-0.57,0.57,0.86,-2.76,-2.80,-2.80
608,-3.34,-0.55,-3.32,-0.54,0.54,0.79,-2.80,-2.78,-2.79
615,-3.19,-0.43,-3.27,-0.51,0.51,0.71,-2.69,-2.76,-2.76
621,-3.17,-0.44,-3.20,-0.47,0.47,0.64,-2.70,-2.73,-2.74
627,-3.21,-0.51,-3.13,-0.43,0.43,0.57,-2.78,-2.70,-2.70
633,-3.05,-0.39,-3.05,-0.39,0.39,0.51,-2.66,-2.66,-2.66
639,-2.88,-0.27,-2.96,-0.34,0.34,0.44,-2.54,-2.62,-2.62
646,-2.86,-0.29,-2.86,-0.30,0.30,0.36,-2.57,-2.57,-2.57
652,-2.80,-0.28,-2.76,-0.25,0.25,0.29,-2.55,-2.52,-2.52
659,-2.69,-0.22,-2.68,-0.19,0.19,0.21,-2.50,-2.48,-2.47
665,-2.63,-0.22,-2.58,-0.14,0.14,0.15,-2.49,-2.44,-2.42
672,-2.49,-0.13,-2.47,-0.08,0.08,0.07,-2.41,-2.39,-2.36
679,-2.38,-0.07,-2.36,-0.02,0.02,-0.01,-2.36,-2.34,-2.31
686,-2.29,-0.02,-2.24,0.04,-0.04,-0.09,-2.33,-2.28,-2.27
692,-2.10,0.13,-2.15,0.10,-0.10,-0.15,-2.20,-2.24,-2.23
699,-1.99,0.21,-2.06,0.15,-0.15,-0.23,-2.15,-2.21,-2.20
706,-1.94,0.24,-1.99,0.21,-0.21,-0.30,-2.15,-2.20,-2.18
713,-1.90,0.26,-1.92,0.26,-0.26,-0.38,-2.17,-2.18,-2.16
721,-1.88,0.27,-1.87,0.32,-0.32,-0.46,-2.20,-2.18,-2.16
728,-1.69,0.46,-1.82,0.37,-0.37,-0.54,-2.06,-2.18,-2.15
735,-1.65,0.50,-1.76,0.41,-0.41,-0.61,-2.06,-2.18,-2.15
742,-1.68,0.47,-1.71,0.46,-0.46,-0.68,-2.14,-2.17,-2.15
750,-1.77,0.38,-1.67,0.50,-0.50,-0.77,-2.27,-2.17,-2.15
757,-1.80,0.35,-1.63,0.54,-0.54,-0.84,-2.34,-2.17,-2.15
765,-1.67,0.48,-1.59,0.57,-0.57,-0.92,-2.24,-2.16,-2.15
773,-1.71,0.43,-1.55,0.59,-0.59,-1.00,-2.30,-2.14,-2.14
780,-1.61,0.52,-1.51,0.60,-0.60,-1.07,-2.21,-2.11,-2.13
788,-1.44,0.68,-1.50,0.60,-0.60,-1.15,-2.04,-2.10,-2.12
796,-1.33,0.77,-1.51,0.59,-0.59,-1.22,-1.92,-2.09,-2.11
804,-1.35,0.74,-1.53,0.57,-0.57,-1.30,-1.92,-2.10,-2.09
812,-1.38,0.69,-1.56,0.54,-0.54,-1.38,-1.92,-2.10,-2.07
820,-1.49,0.56,-1.58,0.50,-0.50,-1.45,-1.99,-2.08,-2.06
828,-1.51,0.53,-1.61,0.46,-0.46,-1.52,-1.97,-2.07,-2.04
837,-1.54,0.48,-1.64,0.42,-0.42,-1.60,-1.97,-2.07,-2.03
845,-1.66,0.35,-1.67,0.39,-0.39,-1.67,-2.05,-2.07,-2.01
853,-1.89,0.11,-1.69,0.37,-0.37,-1.74,-2.26,-2.06,-2.00
862,-2.02,-0.03,-1.69,0.37,-0.37,-1.81,-2.39,-2.06,-1.99
871,-1.87,0.11,-1.68,0.39,-0.39,-1.88,-2.26,-2.07,-1.98
879,-1.75,0.23,-1.64,0.42,-0.42,-1.94,-2.17,-2.06,-1.98
888,-1.59,0.38,-1.57,0.48,-0.48,-2.01,-2.07,-2.05,-1.98
897,-1.42,0.55,-1.46,0.56,-0.56,-2.07,-1.98,-2.03,-1.97
906,-1.29,0.67,-1.34,0.66,-0.66,-2.13,-1.96,-2.01,-1.96
915,-1.15,0.81,-1.21,0.78,-0.78,-2.19,-1.93,-2.00,-1.96
924,-0.97,0.98,-1.06,0.91,-0.91,-2.24,-1.88,-1.97,-1.95
933,-0.83,1.11,-0.90,1.04,-1.04,-2.29,-1.87,-1.93,-1.94
943,-0.73,1.20,-0.73,1.17,-1.17,-2.34,-1.90,-1.90,-1.94
952,-0.58,1.34,-0.58,1.30,-1.30,-2.38,-1.88,-1.89,-1.93
962,-0.43,1.48,-0.46,1.43,-1.43,-2.42,-1.86,-1.89,-1.92
971,-0.31,1.59,-0.34,1.54,-1.54,-2.45,-1.86,-1.88,-1.90
981,-0.22,1.67,-0.23,1.65,-1.65,-2.49,-1.87,-1.88,-1.89
991,-0.16,1.71,-0.12,1.75,-1.75,-2.51,-1.91,-1.87,-1.87
1001,0.02,1.87,-0.01,1.84,-1.84,-2.54,-1.82,-1.85,-1.86
1011,0.15,1.98,0.09,1.92,-1.92,-2.55,-1.77,-1.83,-1.84
1021,0.17,1.98,0.19,2.00,-2.00,-2.57,-1.83,-1.81,-1.81
1031,0.25,2.04,0.28,2.07,-2.07,-2.58,-1.82,-1.79,-1.79
1041,0.33,2.09,0.37,2.13,-2.13,-2.58,-1.81,-1.76,-1.76
1052,0.46,2.19,0.46,2.20,-2.20,-2.59,-1.74,-1.74,-1.73
1062,0.54,2.24,0.55,2.26,-2.26,-2.58,-1.73,-1.71,-1.71
1073,0.65,2.33,0.64,2.33,-2.33,-2.58,-1.68,-1.68,-1.68
1084,0.78,2.43,0.74,2.39,-2.39,-2.57,-1.61,-1.65,-1.65
1094,0.85,2.47,0.83,2.45,-2.45,-2.56,-1.60,-1.62,-1.62
1105,0.91,2.49,0.92,2.51,-2.51,-2.55,-1.60,-1.59,-1.59
1116,0.98,2.53,1.01,2.57,-2.57,-2.54,-1.59,-1.56,-1.55
1128,1.06,2.58,1.11,2.63,-2.63,-2.52,-1.57,-1.52,-1.52
1139,1.24,2.72,1.21,2.68,-2.68,-2.50,-1.45,-1.47,-1.48
1150,1.32,2.76,1.31,2.74,-2.74,-2.48,-1.42,-1.43,-1.45
1162,1.39,2.80,1.39,2.79,-2.79,-2.46,-1.40,-1.40,-1.41
1173,1.48,2.85,1.48,2.84,-2.84,-2.44,-1.36,-1.36,-1.37
1185,1.58,2.92,1.56,2.89,-2.89,-2.41,-1.31,-1.33,-1.34
1197,1.69,2.99,1.64,2.94,-2.94,-2.39,-1.25,-1.30,-1.30
1209,1.69,2.95,1.72,2.99,-2.99,-2.37,-1.30,-1.27,-1.26
1221,1.78,3.01,1.80,3.04,-3.04,-2.35,-1.26,-1.24,-1.23
1233,1.98,3.17,1.88,3.09,-3.09,-2.33,-1.12,-1.21,-1.19
1246,2.01,3.17,1.96,3.15,-3.15,-2.30,-1.14,-1.19,-1.16
1258,1.91,3.05,2.03,3.21,-3.21,-2.28,-1.30,-1.18,-1.14
1271,2.03,3.15,2.11,3.28,-3.28,-2.26,-1.25,-1.17,-1.12
1283,2.22,3.33,2.20,3.35,-3.35,-2.25,-1.13,-1.15,-1.11
1296,2.25,3.35,2.28,3.43,-3.43,-2.23,-1.18,-1.15,-1.10
1309,2.36,3.46,2.36,3.51,-3.51,-2.22,-1.15,-1.14,-1.11
1322,2.44,3.55,2.45,3.58,-3.58,-2.20,-1.15,-1.14,-1.11
1335,2.52,3.64,2.53,3.66,-3.66,-2.19,-1.15,-1.13,-1.12
1349,2.62,3.76,2.60,3.74,-3.74,-2.18,-1.13,-1.14,-1.14
1362,2.70,3.86,2.66,3.82,-3.82,-2.17,-1.12,-1.16,-1.16
1376,2.76,3.94,2.71,3.89,-3.89,-2.16,-1.13,-1.17,-1.18
1390,2.80,4.00,2.77,3.95,-3.95,-2.16,-1.15,-1.18,-1.20
1404,2.93,4.15,2.81,4.01,-4.01,-2.16,-1.08,-1.20,-1.22
1418,2.87,4.10,2.84,4.06,-4.06,-2.15,-1.19,-1.22,-1.24
1432,2.88,4.13,2.87,4.11,-4.11,-2.15,-1.23,-1.24,-1.25
1446,2.90,4.16,2.90,4.15,-4.15,-2.16,-1.25,-1.25,-1.26
1461,2.86,4.12,2.93,4.19,-4.19,-2.16,-1.33,-1.26,-1.26
1475,2.86,4.12,2.95,4.23,-4.23,-2.17,-1.37,-1.28,-1.26
1490,2.87,4.12,2.97,4.26,-4.26,-2.18,-1.40,-1.29,-1.26
1505,3.01,4.26,3.02,4.30,-4.30,-2.18,-1.29,-1.28,-1.25
1520,3.14,4.38,3.07,4.34,-4.34,-2.20,-1.20,-1.27,-1.24
1535,3.10,4.33,3.12,4.38,-4.38,-2.21,-1.28,-1.26,-1.23
1550,3.17,4.38,3.19,4.42,-4.42,-2.22,-1.25,-1.23,-1.21
1566,3.24,4.43,3.26,4.45,-4.45,-2.24,-1.21,-1.19,-1.19
1582,3.30,4.47,3.31,4.48,-4.48,-2.25,-1.19,-1.17,-1.17
1597,3.36,4.51,3.36,4.51,-4.51,-2.27,-1.15,-1.15,-1.15
1613,3.43,4.54,3.43,4.53,-4.53,-2.29,-1.10,-1.10,-1.12
1629,3.55,4.63,3.47,4.54,-4.54,-2.31,-1.00,-1.08,-1.08
1646,3.71,4.75,3.50,4.55,-4.55,-2.33,-0.84,-1.05,-1.04
