frequency,raw,error,smoothed,error_smoothed,equalization,parametric_eq,fixed_band_eq,equalized_raw,equalized_smoothed,target
20.00,7.88,2.18,7.86,2.17,-2.17,-2.04,-0.87,5.71,5.70,5.69
20.20,7.89,2.18,7.88,2.17,-2.17,-2.05,-0.90,5.71,5.70,5.70
20.40,7.90,2.18,7.89,2.18,-2.18,-2.05,-0.93,5.72,5.71,5.71
20.61,7.90,2.17,7.91,2.18,-2.18,-2.05,-0.95,5.71,5.72,5.72
20.81,7.91,2.18,7.92,2.19,-2.19,-2.06,-0.98,5.72,5.73,5.72
21.02,7.92,2.18,7.93,2.19,-2.19,-2.06,-1.01,5.72,5.74,5.73
21.23,7.94,2.19,7.94,2.20,-2.20,-2.07,-1.04,5.74,5.75,5.74
21.44,7.95,2.18,7.96,2.20,-2.20,-2.07,-1.07,5.74,5.75,5.76
21.66,7.97,2.20,7.97,2.21,-2.21,-2.08,-1.10,5.76,5.76,5.76
21.87,7.98,2.21,7.98,2.22,-2.22,-2.08,-1.13,5.76,5.77,5.77
22.09,7.99,2.22,7.99,2.22,-2.22,-2.09,-1.16,5.77,5.77,5.77
22.31,8.01,2.23,8.00,2.23,-2.23,-2.09,-1.20,5.78,5.78,5.78
22.54,8.02,2.24,8.01,2.23,-2.23,-2.10,-1.23,5.78,5.78,5.78
22.76,8.03,2.24,8.03,2.24,-2.24,-2.10,-1.27,5.79,5.79,5.79
22.99,8.04,2.25,8.04,2.24,-2.24,-2.10,-1.31,5.79,5.79,5.79
23.22,8.05,2.26,8.04,2.25,-2.25,-2.11,-1.34,5.80,5.80,5.79
23.45,8.06,2.26,8.05,2.26,-2.26,-2.11,-1.38,5.80,5.80,5.80
23.69,8.07,2.27,8.06,2.26,-2.26,-2.12,-1.42,5.81,5.80,5.80
23.92,8.08,2.28,8.07,2.27,-2.27,-2.13,-1.46,5.81,5.80,5.80
24.16,8.08,2.27,8.08,2.27,-2.27,-2.13,-1.50,5.81,5.81,5.81
24.40,8.08,2.26,8.08,2.27,-2.27,-2.14,-1.54,5.80,5.81,5.82
24.65,8.08,2.26,8.09,2.28,-2.28,-2.14,-1.58,5.80,5.81,5.81
24.89,8.08,2.26,8.09,2.28,-2.28,-2.15,-1.62,5.80,5.81,5.81
25.14,8.09,2.27,8.10,2.28,-2.28,-2.15,-1.67,5.80,5.81,5.81
25.39,8.10,2.28,8.10,2.29,-2.29,-2.16,-1.71,5.81,5.81,5.81
25.65,8.11,2.30,8.10,2.29,-2.29,-2.16,-1.75,5.82,5.82,5.81
25.91,8.12,2.31,8.11,2.29,-2.29,-2.17,-1.79,5.83,5.82,5.81
26.16,8.12,2.30,8.11,2.29,-2.29,-2.18,-1.84,5.83,5.82,5.82
26.43,8.12,2.30,8.11,2.29,-2.29,-2.18,-1.88,5.83,5.82,5.82
26.69,8.11,2.29,8.10,2.29,-2.29,-2.19,-1.92,5.82,5.82,5.82
26.96,8.11,2.29,8.10,2.28,-2.28,-2.19,-1.96,5.82,5.82,5.82
27.23,8.10,2.28,8.10,2.28,-2.28,-2.20,-2.01,5.82,5.82,5.82
27.50,8.09,2.27,8.09,2.27,-2.27,-2.21,-2.05,5.81,5.82,5.81
27.77,8.09,2.26,8.08,2.26,-2.26,-2.21,-2.09,5.82,5.82,5.82
28.05,8.08,2.25,8.08,2.25,-2.25,-2.22,-2.12,5.82,5.82,5.82
28.33,8.07,2.25,8.07,2.24,-2.24,-2.23,-2.16,5.82,5.82,5.82
28.62,8.06,2.24,8.06,2.23,-2.23,-2.23,-2.20,5.83,5.82,5.82
28.90,8.04,2.21,8.04,2.22,-2.22,-2.24,-2.23,5.82,5.82,5.83
29.19,8.03,2.20,8.03,2.21,-2.21,-2.25,-2.26,5.82,5.82,5.83
29.48,8.02,2.19,8.02,2.20,-2.20,-2.25,-2.30,5.82,5.82,5.83
29.78,8.01,2.18,8.01,2.19,-2.19,-2.26,-2.32,5.82,5.82,5.82
30.08,8.00,2.17,8.00,2.17,-2.17,-2.27,-2.35,5.82,5.82,5.83
30.38,7.99,2.17,7.98,2.16,-2.16,-2.28,-2.37,5.82,5.82,5.82
30.68,7.98,2.16,7.97,2.15,-2.15,-2.28,-2.40,5.83,5.82,5.82
30.99,7.97,2.15,7.95,2.14,-2.14,-2.29,-2.42,5.83,5.82,5.82
31.30,7.95,2.13,7.94,2.12,-2.12,-2.30,-2.43,5.82,5.82,5.82
31.61,7.93,2.11,7.92,2.11,-2.11,-2.31,-2.45,5.81,5.81,5.81
31.93,7.91,2.11,7.91,2.10,-2.10,-2.32,-2.46,5.81,5.81,5.80
32.24,7.90,2.09,7.90,2.09,-2.09,-2.32,-2.47,5.80,5.80,5.81
32.57,7.88,2.08,7.88,2.08,-2.08,-2.33,-2.48,5.79,5.80,5.80
32.89,7.87,2.07,7.87,2.07,-2.07,-2.34,-2.49,5.79,5.80,5.79
33.22,7.85,2.05,7.86,2.06,-2.06,-2.35,-2.49,5.78,5.79,5.79
33.55,7.84,2.05,7.85,2.06,-2.06,-2.36,-2.49,5.78,5.79,5.79
33.89,7.83,2.04,7.84,2.05,-2.05,-2.37,-2.49,5.77,5.78,5.79
34.23,7.83,2.05,7.83,2.05,-2.05,-2.38,-2.49,5.78,5.78,5.77
34.57,7.82,2.05,7.82,2.05,-2.05,-2.39,-2.49,5.77,5.77,5.77
34.92,7.82,2.06,7.81,2.05,-2.05,-2.40,-2.49,5.77,5.76,5.76
35.27,7.81,2.04,7.80,2.04,-2.04,-2.41,-2.48,5.76,5.75,5.77
35.62,7.80,2.05,7.79,2.05,-2.05,-2.42,-2.48,5.75,5.75,5.74
35.97,7.78,2.04,7.78,2.05,-2.05,-2.43,-2.47,5.73,5.74,5.74
36.33,7.78,2.05,7.78,2.05,-2.05,-2.44,-2.47,5.73,5.72,5.73
36.70,7.78,2.06,7.77,2.06,-2.06,-2.45,-2.46,5.72,5.71,5.71
37.06,7.78,2.08,7.76,2.06,-2.06,-2.46,-2.46,5.71,5.70,5.70
37.43,7.76,2.07,7.75,2.07,-2.07,-2.47,-2.45,5.69,5.69,5.68
37.81,7.74,2.07,7.75,2.07,-2.07,-2.48,-2.45,5.66,5.67,5.67
38.19,7.73,2.07,7.74,2.08,-2.08,-2.49,-2.44,5.64,5.66,5.66
38.57,7.73,2.08,7.73,2.09,-2.09,-2.50,-2.44,5.63,5.64,5.64
38.95,7.73,2.10,7.73,2.10,-2.10,-2.51,-2.44,5.62,5.63,5.63
39.34,7.73,2.12,7.73,2.12,-2.12,-2.52,-2.44,5.61,5.61,5.60
39.74,7.73,2.14,7.72,2.13,-2.13,-2.53,-2.44,5.60,5.59,5.59
40.14,7.73,2.15,7.72,2.15,-2.15,-2.55,-2.44,5.58,5.57,5.57
40.54,7.72,2.16,7.72,2.16,-2.16,-2.56,-2.44,5.55,5.55,5.56
40.94,7.71,2.17,7.72,2.18,-2.18,-2.57,-2.44,5.53,5.53,5.53
41.35,7.72,2.20,7.72,2.20,-2.20,-2.58,-2.45,5.51,5.51,5.52
41.76,7.73,2.24,7.72,2.23,-2.23,-2.60,-2.46,5.50,5.49,5.49
42.18,7.73,2.25,7.72,2.25,-2.25,-2.61,-2.47,5.47,5.47,5.48
42.60,7.73,2.28,7.73,2.28,-2.28,-2.62,-2.48,5.45,5.45,5.45
43.03,7.73,2.30,7.73,2.31,-2.31,-2.64,-2.49,5.42,5.42,5.42
43.46,7.73,2.33,7.74,2.34,-2.34,-2.65,-2.50,5.39,5.40,5.40
43.90,7.73,2.36,7.74,2.37,-2.37,-2.66,-2.52,5.35,5.37,5.37
44.33,7.75,2.41,7.75,2.41,-2.41,-2.68,-2.54,5.34,5.34,5.34
44.78,7.77,2.45,7.76,2.45,-2.45,-2.69,-2.56,5.32,5.32,5.31
45.23,7.78,2.48,7.77,2.48,-2.48,-2.71,-2.58,5.29,5.29,5.30
45.68,7.78,2.52,7.78,2.52,-2.52,-2.72,-2.60,5.25,5.26,5.26
46.13,7.79,2.57,7.79,2.56,-2.56,-2.73,-2.63,5.22,5.22,5.22
46.60,7.80,2.61,7.79,2.61,-2.61,-2.75,-2.66,5.19,5.19,5.19
47.06,7.82,2.66,7.80,2.65,-2.65,-2.77,-2.69,5.17,5.16,5.16
47.53,7.82,2.69,7.81,2.69,-2.69,-2.78,-2.72,5.13,5.12,5.13
48.01,7.82,2.74,7.82,2.73,-2.73,-2.80,-2.75,5.09,5.09,5.08
48.49,7.82,2.77,7.82,2.77,-2.77,-2.81,-2.78,5.05,5.05,5.05
48.97,7.82,2.81,7.82,2.81,-2.81,-2.83,-2.82,5.01,5.01,5.01
49.46,7.82,2.84,7.82,2.85,-2.85,-2.85,-2.86,4.97,4.98,4.98
49.96,7.82,2.89,7.82,2.88,-2.88,-2.86,-2.89,4.94,4.94,4.93
50.46,7.82,2.92,7.82,2.91,-2.91,-2.88,-2.93,4.90,4.90,4.90
50.96,7.82,2.95,7.81,2.94,-2.94,-2.90,-2.97,4.87,4.87,4.86
51.47,7.81,2.98,7.80,2.97,-2.97,-2.91,-3.02,4.84,4.83,4.83
51.99,7.80,3.01,7.79,3.00,-3.00,-2.93,-3.06,4.80,4.79,4.79
52.51,7.79,3.03,7.77,3.02,-3.02,-2.95,-3.10,4.77,4.75,4.76
53.03,7.78,3.05,7.76,3.04,-3.04,-2.97,-3.14,4.73,4.71,4.73
53.56,7.75,3.06,7.74,3.06,-3.06,-2.99,-3.19,4.68,4.68,4.69
54.10,7.73,3.09,7.72,3.08,-3.08,-3.01,-3.23,4.64,4.64,4.64
54.64,7.70,3.09,7.71,3.10,-3.10,-3.02,-3.27,4.60,4.61,4.61
55.18,7.68,3.12,7.69,3.12,-3.12,-3.04,-3.31,4.56,4.57,4.56
55.74,7.66,3.13,7.67,3.13,-3.13,-3.06,-3.36,4.53,4.54,4.52
56.29,7.65,3.15,7.65,3.15,-3.15,-3.08,-3.40,4.50,4.50,4.50
56.86,7.65,3.18,7.64,3.17,-3.17,-3.10,-3.44,4.48,4.47,4.47
57.42,7.63,3.21,7.63,3.19,-3.19,-3.12,-3.47,4.43,4.43,4.42
58.00,7.60,3.21,7.62,3.22,-3.22,-3.14,-3.51,4.38,4.40,4.39
58.58,7.60,3.23,7.61,3.25,-3.25,-3.17,-3.55,4.34,4.36,4.37
59.16,7.60,3.26,7.61,3.29,-3.29,-3.19,-3.58,4.31,4.32,4.34
59.76,7.60,3.29,7.60,3.32,-3.32,-3.21,-3.61,4.27,4.28,4.31
60.35,7.60,3.34,7.60,3.36,-3.36,-3.23,-3.64,4.24,4.24,4.26
60.96,7.60,3.38,7.60,3.40,-3.40,-3.25,-3.66,4.20,4.20,4.22
61.57,7.61,3.44,7.60,3.44,-3.44,-3.27,-3.68,4.17,4.16,4.16
62.18,7.62,3.51,7.60,3.48,-3.48,-3.30,-3.70,4.14,4.12,4.11
62.80,7.60,3.53,7.59,3.51,-3.51,-3.32,-3.72,4.09,4.08,4.07
63.43,7.60,3.58,7.58,3.54,-3.54,-3.34,-3.73,4.05,4.04,4.02
64.07,7.60,3.61,7.57,3.58,-3.58,-3.37,-3.75,4.02,4.00,3.98
64.71,7.58,3.63,7.56,3.61,-3.61,-3.39,-3.75,3.97,3.95,3.95
65.35,7.56,3.65,7.55,3.63,-3.63,-3.42,-3.76,3.92,3.91,3.91
66.01,7.55,3.67,7.53,3.66,-3.66,-3.44,-3.77,3.89,3.87,3.87
66.67,7.53,3.68,7.51,3.68,-3.68,-3.46,-3.77,3.85,3.83,3.84
67.33,7.50,3.70,7.50,3.70,-3.70,-3.49,-3.77,3.79,3.79,3.79
68.01,7.47,3.71,7.48,3.73,-3.73,-3.51,-3.77,3.74,3.75,3.75
68.69,7.44,3.72,7.46,3.75,-3.75,-3.54,-3.76,3.68,3.71,3.71
69.37,7.43,3.75,7.45,3.78,-3.78,-3.57,-3.76,3.64,3.67,3.68
70.07,7.43,3.79,7.45,3.82,-3.82,-3.59,-3.76,3.61,3.63,3.64
70.77,7.43,3.83,7.44,3.85,-3.85,-3.62,-3.75,3.57,3.59,3.59
71.48,7.43,3.88,7.44,3.90,-3.90,-3.64,-3.74,3.53,3.54,3.55
72.19,7.43,3.92,7.45,3.94,-3.94,-3.67,-3.74,3.48,3.50,3.50
72.91,7.45,3.99,7.45,3.99,-3.99,-3.70,-3.73,3.46,3.46,3.46
73.64,7.46,4.05,7.46,4.04,-4.04,-3.73,-3.73,3.42,3.42,3.41
74.38,7.47,4.10,7.47,4.09,-4.09,-3.75,-3.72,3.38,3.38,3.37
75.12,7.48,4.15,7.48,4.14,-4.14,-3.78,-3.72,3.34,3.34,3.33
75.87,7.51,4.20,7.49,4.18,-4.18,-3.81,-3.72,3.32,3.30,3.30
76.63,7.52,4.26,7.49,4.23,-4.23,-3.84,-3.72,3.29,3.27,3.26
77.40,7.52,4.29,7.50,4.27,-4.27,-3.87,-3.72,3.25,3.23,3.23
78.17,7.52,4.33,7.49,4.30,-4.30,-3.90,-3.72,3.22,3.19,3.19
78.95,7.52,4.35,7.49,4.33,-4.33,-3.93,-3.72,3.18,3.16,3.16
79.74,7.48,4.35,7.48,4.36,-4.36,-3.96,-3.73,3.12,3.13,3.13
80.54,7.47,4.37,7.47,4.38,-4.38,-3.99,-3.74,3.09,3.09,3.10
81.35,7.46,4.40,7.46,4.40,-4.40,-4.02,-3.75,3.06,3.06,3.06
82.16,7.44,4.40,7.44,4.42,-4.42,-4.05,-3.77,3.02,3.03,3.03
82.98,7.43,4.43,7.43,4.43,-4.43,-4.08,-3.78,2.99,2.99,3.00
83.81,7.40,4.44,7.41,4.45,-4.45,-4.11,-3.80,2.95,2.96,2.96
84.65,7.39,4.47,7.39,4.46,-4.46,-4.14,-3.82,2.92,2.92,2.92
85.50,7.37,4.49,7.37,4.48,-4.48,-4.17,-3.85,2.89,2.89,2.88
86.35,7.34,4.49,7.35,4.49,-4.49,-4.20,-3.88,2.84,2.85,2.85
87.22,7.32,4.50,7.32,4.51,-4.51,-4.23,-3.91,2.81,2.82,2.82
88.09,7.30,4.52,7.30,4.53,-4.53,-4.26,-3.94,2.77,2.78,2.78
88.97,7.30,4.55,7.29,4.54,-4.54,-4.30,-3.98,2.75,2.74,2.74
89.86,7.27,4.57,7.27,4.56,-4.56,-4.33,-4.02,2.71,2.70,2.70
90.76,7.26,4.59,7.24,4.58,-4.58,-4.36,-4.06,2.68,2.67,2.67
91.66,7.23,4.60,7.23,4.60,-4.60,-4.39,-4.10,2.63,2.63,2.62
92.58,7.21,4.62,7.21,4.62,-4.62,-4.43,-4.15,2.59,2.59,2.59
93.51,7.19,4.63,7.19,4.64,-4.64,-4.46,-4.20,2.55,2.55,2.56
94.44,7.17,4.65,7.17,4.66,-4.66,-4.49,-4.26,2.51,2.51,2.52
95.39,7.15,4.67,7.15,4.69,-4.69,-4.53,-4.31,2.46,2.47,2.47
96.34,7.13,4.70,7.14,4.71,-4.71,-4.56,-4.37,2.42,2.43,2.43
97.30,7.13,4.74,7.12,4.73,-4.73,-4.59,-4.43,2.39,2.39,2.39
98.28,7.12,4.77,7.11,4.76,-4.76,-4.62,-4.50,2.36,2.35,2.34
99.26,7.08,4.78,7.10,4.79,-4.79,-4.66,-4.56,2.29,2.31,2.30
100.25,7.08,4.82,7.08,4.81,-4.81,-4.69,-4.63,2.27,2.27,2.26
101.25,7.08,4.84,7.07,4.84,-4.84,-4.72,-4.70,2.24,2.23,2.23
102.27,7.07,4.87,7.06,4.86,-4.86,-4.76,-4.77,2.20,2.20,2.19
103.29,7.05,4.89,7.05,4.89,-4.89,-4.79,-4.85,2.16,2.16,2.16
104.32,7.04,4.91,7.04,4.91,-4.91,-4.83,-4.92,2.13,2.13,2.13
105.37,7.04,4.95,7.02,4.93,-4.93,-4.86,-4.99,2.10,2.09,2.09
106.42,7.02,4.95,7.01,4.96,-4.96,-4.89,-5.07,2.06,2.06,2.06
107.48,7.00,4.98,7.00,4.98,-4.98,-4.93,-5.14,2.02,2.02,2.02
108.56,7.00,5.01,6.98,5.00,-5.00,-4.96,-5.21,2.00,1.98,1.99
109.64,6.97,5.02,6.97,5.02,-5.02,-4.99,-5.28,1.94,1.95,1.95
110.74,6.95,5.03,6.96,5.05,-5.05,-5.02,-5.35,1.90,1.91,1.91
111.85,6.95,5.07,6.94,5.07,-5.07,-5.06,-5.42,1.88,1.87,1.88
112.97,6.91,5.07,6.92,5.09,-5.09,-5.09,-5.49,1.82,1.83,1.84
114.10,6.91,5.10,6.91,5.11,-5.11,-5.12,-5.55,1.79,1.80,1.80
115.24,6.90,5.14,6.89,5.13,-5.13,-5.16,-5.61,1.76,1.76,1.76
116.39,6.88,5.17,6.87,5.15,-5.15,-5.19,-5.66,1.72,1.72,1.71
117.55,6.86,5.18,6.85,5.17,-5.17,-5.22,-5.71,1.68,1.68,1.67
118.73,6.83,5.20,6.84,5.19,-5.19,-5.25,-5.76,1.63,1.64,1.63
119.92,6.82,5.22,6.82,5.21,-5.21,-5.28,-5.80,1.60,1.60,1.59
121.12,6.81,5.24,6.80,5.23,-5.23,-5.31,-5.83,1.57,1.57,1.57
122.33,6.79,5.26,6.78,5.25,-5.25,-5.34,-5.86,1.53,1.53,1.53
123.55,6.76,5.26,6.76,5.27,-5.27,-5.38,-5.88,1.49,1.49,1.49
124.79,6.74,5.28,6.74,5.29,-5.29,-5.41,-5.90,1.45,1.45,1.46
126.03,6.71,5.29,6.72,5.30,-5.30,-5.44,-5.91,1.40,1.41,1.42
127.29,6.70,5.32,6.69,5.32,-5.32,-5.46,-5.92,1.38,1.37,1.38
128.57,6.67,5.33,6.67,5.33,-5.33,-5.49,-5.91,1.33,1.34,1.34
129.85,6.65,5.35,6.65,5.35,-5.35,-5.52,-5.91,1.30,1.30,1.30
131.15,6.64,5.38,6.63,5.37,-5.37,-5.55,-5.89,1.27,1.26,1.26
132.46,6.62,5.40,6.61,5.38,-5.38,-5.58,-5.88,1.24,1.23,1.22
133.79,6.58,5.39,6.58,5.39,-5.39,-5.60,-5.85,1.18,1.19,1.18
135.12,6.56,5.41,6.56,5.41,-5.41,-5.63,-5.82,1.15,1.15,1.15
136.48,6.53,5.41,6.54,5.42,-5.42,-5.66,-5.79,1.11,1.12,1.12
137.84,6.52,5.43,6.51,5.43,-5.43,-5.68,-5.76,1.09,1.08,1.09
139.22,6.50,5.46,6.49,5.44,-5.44,-5.70,-5.72,1.06,1.05,1.04
140.61,6.48,5.46,6.47,5.45,-5.45,-5.73,-5.68,1.03,1.02,1.02
142.02,6.44,5.45,6.44,5.45,-5.45,-5.75,-5.64,0.98,0.99,0.99
143.44,6.42,5.46,6.42,5.46,-5.46,-5.77,-5.59,0.96,0.96,0.95
144.87,6.39,5.45,6.40,5.47,-5.47,-5.79,-5.55,0.92,0.93,0.93
146.32,6.38,5.47,6.37,5.47,-5.47,-5.81,-5.50,0.90,0.90,0.90
147.78,6.35,5.47,6.35,5.48,-5.48,-5.83,-5.46,0.87,0.87,0.87
149.26,6.34,5.49,6.33,5.49,-5.49,-5.85,-5.41,0.85,0.84,0.85
150.75,6.31,5.50,6.31,5.50,-5.50,-5.87,-5.37,0.81,0.81,0.81
152.26,6.29,5.50,6.29,5.51,-5.51,-5.89,-5.33,0.78,0.78,0.79
153.78,6.27,5.51,6.27,5.52,-5.52,-5.90,-5.29,0.75,0.75,0.76
155.32,6.26,5.53,6.25,5.53,-5.53,-5.92,-5.25,0.73,0.72,0.73
156.88,6.22,5.52,6.23,5.54,-5.54,-5.93,-5.21,0.68,0.69,0.70
158.44,6.22,5.55,6.21,5.55,-5.55,-5.95,-5.17,0.66,0.66,0.66
160.03,6.21,5.58,6.19,5.57,-5.57,-5.96,-5.14,0.64,0.63,0.63
161.63,6.18,5.58,6.17,5.58,-5.58,-5.97,-5.11,0.60,0.60,0.60
163.24,6.16,5.60,6.15,5.59,-5.59,-5.98,-5.09,0.56,0.56,0.56
164.88,6.13,5.60,6.13,5.61,-5.61,-5.99,-5.07,0.52,0.53,0.53
166.53,6.12,5.63,6.11,5.62,-5.62,-6.00,-5.05,0.50,0.49,0.49
168.19,6.10,5.64,6.09,5.63,-5.63,-6.00,-5.03,0.46,0.46,0.46
169.87,6.07,5.64,6.07,5.65,-5.65,-6.01,-5.02,0.42,0.42,0.42
171.57,6.05,5.66,6.05,5.66,-5.66,-6.01,-5.01,0.39,0.39,0.39
173.29,6.03,5.68,6.02,5.67,-5.67,-6.02,-5.01,0.35,0.35,0.35
175.02,6.00,5.68,6.00,5.68,-5.68,-6.02,-5.00,0.31,0.32,0.31
176.77,5.97,5.69,5.97,5.69,-5.69,-6.02,-5.01,0.27,0.28,0.28
178.54,5.96,5.71,5.95,5.70,-5.70,-6.02,-5.01,0.25,0.24,0.25
180.32,5.93,5.72,5.92,5.71,-5.71,-6.02,-5.02,0.21,0.21,0.20
182.13,5.89,5.72,5.89,5.72,-5.72,-6.01,-5.04,0.17,0.17,0.17
183.95,5.87,5.73,5.87,5.73,-5.73,-6.01,-5.06,0.14,0.14,0.14
185.79,5.83,5.73,5.84,5.74,-5.74,-6.00,-5.08,0.09,0.10,0.10
187.65,5.81,5.74,5.81,5.74,-5.74,-6.00,-5.10,0.06,0.06,0.07
189.52,5.79,5.76,5.78,5.75,-5.75,-5.99,-5.13,0.04,0.03,0.03
191.42,5.75,5.75,5.75,5.75,-5.75,-5.98,-5.17,-0.01,-0.01,-0.00
193.33,5.72,5.76,5.72,5.76,-5.76,-5.97,-5.20,-0.04,-0.04,-0.04
195.27,5.69,5.76,5.69,5.76,-5.76,-5.96,-5.24,-0.08,-0.08,-0.08
197.22,5.66,5.77,5.66,5.76,-5.76,-5.94,-5.28,-0.11,-0.11,-0.12
199.19,5.63,5.77,5.62,5.76,-5.76,-5.93,-5.33,-0.14,-0.14,-0.14
201.18,5.59,5.77,5.59,5.76,-5.76,-5.91,-5.37,-0.18,-0.17,-0.18
203.19,5.56,5.76,5.56,5.76,-5.76,-5.90,-5.42,-0.20,-0.20,-0.20
205.23,5.54,5.77,5.53,5.76,-5.76,-5.88,-5.47,-0.22,-0.23,-0.23
207.28,5.49,5.74,5.49,5.75,-5.75,-5.86,-5.52,-0.27,-0.26,-0.25
209.35,5.46,5.74,5.46,5.75,-5.75,-5.84,-5.58,-0.29,-0.29,-0.29
211.44,5.44,5.75,5.43,5.74,-5.74,-5.82,-5.63,-0.30,-0.31,-0.31
213.56,5.40,5.73,5.39,5.73,-5.73,-5.79,-5.68,-0.34,-0.34,-0.33
215.69,5.37,5.72,5.36,5.72,-5.72,-5.77,-5.74,-0.36,-0.36,-0.36
217.85,5.32,5.70,5.33,5.71,-5.71,-5.74,-5.79,-0.40,-0.39,-0.38
220.03,5.29,5.70,5.29,5.70,-5.70,-5.72,-5.84,-0.41,-0.41,-0.41
222.23,5.26,5.69,5.26,5.69,-5.69,-5.69,-5.89,-0.43,-0.43,-0.43
224.45,5.23,5.68,5.22,5.67,-5.67,-5.66,-5.93,-0.45,-0.45,-0.45
226.70,5.19,5.66,5.19,5.66,-5.66,-5.63,-5.98,-0.47,-0.47,-0.48
228.96,5.16,5.64,5.15,5.64,-5.64,-5.60,-6.02,-0.49,-0.49,-0.49
231.25,5.12,5.62,5.12,5.63,-5.63,-5.57,-6.05,-0.51,-0.51,-0.51
233.57,5.09,5.61,5.08,5.61,-5.61,-5.54,-6.08,-0.52,-0.53,-0.53
235.90,5.04,5.58,5.04,5.59,-5.59,-5.50,-6.10,-0.55,-0.54,-0.54
238.26,5.01,5.57,5.01,5.56,-5.56,-5.47,-6.12,-0.56,-0.56,-0.56
240.64,4.98,5.54,4.97,5.54,-5.54,-5.43,-6.13,-0.56,-0.57,-0.56
243.05,4.94,5.52,4.93,5.52,-5.52,-5.40,-6.14,-0.58,-0.58,-0.58
245.48,4.90,5.50,4.90,5.49,-5.49,-5.36,-6.14,-0.60,-0.59,-0.60
247.93,4.85,5.46,4.86,5.47,-5.47,-5.32,-6.13,-0.62,-0.61,-0.62
250.41,4.82,5.43,4.82,5.44,-5.44,-5.28,-6.11,-0.62,-0.62,-0.61
252.92,4.79,5.41,4.78,5.41,-5.41,-5.24,-6.09,-0.62,-0.63,-0.62
255.45,4.75,5.38,4.74,5.38,-5.38,-5.20,-6.05,-0.63,-0.64,-0.64
258.00,4.71,5.35,4.71,5.35,-5.35,-5.16,-6.02,-0.64,-0.64,-0.64
260.58,4.67,5.32,4.67,5.32,-5.32,-5.12,-5.97,-0.65,-0.65,-0.65
263.19,4.63,5.28,4.63,5.29,-5.29,-5.08,-5.92,-0.66,-0.66,-0.66
265.82,4.60,5.26,4.59,5.25,-5.25,-5.03,-5.86,-0.66,-0.66,-0.66
268.48,4.56,5.23,4.55,5.22,-5.22,-4.99,-5.79,-0.66,-0.67,-0.67
271.16,4.51,5.18,4.51,5.18,-5.18,-4.95,-5.72,-0.68,-0.68,-0.67
273.87,4.46,5.14,4.47,5.15,-5.15,-4.90,-5.64,-0.69,-0.68,-0.68
276.61,4.43,5.11,4.43,5.11,-5.11,-4.85,-5.56,-0.68,-0.68,-0.68
279.38,4.38,5.08,4.39,5.07,-5.07,-4.81,-5.48,-0.70,-0.69,-0.70
282.17,4.35,5.04,4.35,5.03,-5.03,-4.76,-5.39,-0.69,-0.69,-0.69
284.99,4.31,4.99,4.31,4.99,-4.99,-4.72,-5.30,-0.69,-0.69,-0.69
287.84,4.27,4.95,4.26,4.95,-4.95,-4.67,-5.20,-0.69,-0.69,-0.68
290.72,4.22,4.91,4.22,4.91,-4.91,-4.62,-5.11,-0.70,-0.69,-0.70
293.63,4.19,4.88,4.18,4.87,-4.87,-4.57,-5.01,-0.69,-0.69,-0.69
296.57,4.14,4.82,4.14,4.83,-4.83,-4.52,-4.91,-0.69,-0.69,-0.68
299.53,4.10,4.79,4.10,4.79,-4.79,-4.48,-4.81,-0.69,-0.69,-0.69
302.53,4.06,4.74,4.06,4.74,-4.74,-4.43,-4.71,-0.68,-0.69,-0.68
305.55,4.02,4.70,4.01,4.70,-4.70,-4.38,-4.62,-0.68,-0.68,-0.69
308.61,3.98,4.66,3.97,4.65,-4.65,-4.33,-4.52,-0.67,-0.68,-0.68
311.69,3.93,4.61,3.92,4.60,-4.60,-4.28,-4.42,-0.68,-0.68,-0.68
314.81,3.88,4.55,3.88,4.56,-4.56,-4.23,-4.33,-0.68,-0.68,-0.67
317.96,3.83,4.50,3.83,4.51,-4.51,-4.18,-4.24,-0.68,-0.67,-0.68
321.14,3.79,4.46,3.79,4.46,-4.46,-4.13,-4.14,-0.67,-0.67,-0.67
324.35,3.74,4.41,3.74,4.41,-4.41,-4.08,-4.06,-0.67,-0.67,-0.67
327.59,3.70,4.35,3.70,4.36,-4.36,-4.03,-3.97,-0.67,-0.66,-0.66
330.87,3.65,4.31,3.65,4.31,-4.31,-3.98,-3.88,-0.66,-0.66,-0.66
334.18,3.61,4.27,3.60,4.26,-4.26,-3.93,-3.80,-0.65,-0.66,-0.66
337.52,3.56,4.21,3.56,4.21,-4.21,-3.88,-3.72,-0.65,-0.65,-0.65
340.90,3.52,4.16,3.51,4.15,-4.15,-3.83,-3.64,-0.64,-0.64,-0.65
344.30,3.47,4.10,3.46,4.10,-4.10,-3.78,-3.57,-0.63,-0.64,-0.64
347.75,3.43,4.06,3.42,4.05,-4.05,-3.73,-3.49,-0.62,-0.63,-0.63
351.23,3.37,4.00,3.37,4.00,-4.00,-3.68,-3.42,-0.63,-0.63,-0.63
354.74,3.32,3.93,3.32,3.94,-3.94,-3.62,-3.36,-0.62,-0.62,-0.61
358.28,3.27,3.88,3.27,3.88,-3.88,-3.57,-3.29,-0.62,-0.61,-0.62
361.87,3.22,3.82,3.22,3.83,-3.83,-3.52,-3.23,-0.61,-0.61,-0.61
365.49,3.17,3.77,3.17,3.77,-3.77,-3.47,-3.17,-0.61,-0.60,-0.60
369.14,3.13,3.72,3.12,3.72,-3.72,-3.42,-3.11,-0.59,-0.59,-0.59
372.83,3.08,3.66,3.08,3.66,-3.66,-3.37,-3.05,-0.58,-0.59,-0.58
376.56,3.04,3.62,3.03,3.61,-3.61,-3.32,-3.00,-0.57,-0.58,-0.58
380.33,2.98,3.55,2.98,3.55,-3.55,-3.27,-2.95,-0.57,-0.57,-0.57
384.13,2.93,3.49,2.93,3.49,-3.49,-3.23,-2.90,-0.57,-0.57,-0.57
387.97,2.88,3.43,2.88,3.44,-3.44,-3.18,-2.86,-0.56,-0.56,-0.56
391.85,2.83,3.38,2.83,3.38,-3.38,-3.13,-2.81,-0.56,-0.55,-0.55
395.77,2.78,3.33,2.78,3.33,-3.33,-3.08,-2.77,-0.55,-0.54,-0.55
399.73,2.74,3.28,2.73,3.27,-3.27,-3.03,-2.73,-0.53,-0.54,-0.54
403.72,2.69,3.21,2.69,3.22,-3.22,-2.98,-2.69,-0.53,-0.53,-0.52
407.76,2.64,3.16,2.64,3.16,-3.16,-2.93,-2.66,-0.52,-0.52,-0.52
411.84,2.59,3.10,2.59,3.10,-3.10,-2.88,-2.62,-0.51,-0.52,-0.51
415.96,2.54,3.04,2.54,3.04,-3.04,-2.84,-2.59,-0.51,-0.51,-0.51
420.12,2.49,2.99,2.49,2.99,-2.99,-2.79,-2.56,-0.50,-0.50,-0.51
424.32,2.44,2.93,2.44,2.93,-2.93,-2.74,-2.52,-0.49,-0.49,-0.50
428.56,2.39,2.87,2.39,2.87,-2.87,-2.69,-2.49,-0.49,-0.48,-0.48
432.85,2.35,2.82,2.34,2.82,-2.82,-2.65,-2.47,-0.47,-0.48,-0.47
437.18,2.30,2.77,2.29,2.76,-2.76,-2.60,-2.44,-0.46,-0.47,-0.47
441.55,2.24,2.70,2.24,2.70,-2.70,-2.55,-2.41,-0.46,-0.46,-0.46
445.96,2.18,2.63,2.19,2.64,-2.64,-2.51,-2.38,-0.46,-0.45,-0.45
450.42,2.13,2.57,2.14,2.58,-2.58,-2.46,-2.35,-0.45,-0.44,-0.44
454.93,2.10,2.53,2.09,2.52,-2.52,-2.42,-2.32,-0.42,-0.43,-0.43
459.48,2.05,2.47,2.04,2.46,-2.46,-2.37,-2.30,-0.42,-0.42,-0.42
464.07,2.00,2.40,1.99,2.40,-2.40,-2.32,-2.27,-0.41,-0.41,-0.40
468.71,1.96,2.35,1.95,2.35,-2.35,-2.28,-2.24,-0.39,-0.40,-0.39
473.40,1.91,2.29,1.90,2.29,-2.29,-2.23,-2.21,-0.38,-0.39,-0.39
478.13,1.85,2.22,1.85,2.23,-2.23,-2.19,-2.18,-0.38,-0.38,-0.38
482.91,1.79,2.15,1.80,2.17,-2.17,-2.15,-2.15,-0.38,-0.37,-0.37
487.74,1.76,2.11,1.75,2.11,-2.11,-2.10,-2.11,-0.35,-0.36,-0.36
492.62,1.71,2.05,1.71,2.05,-2.05,-2.06,-2.08,-0.34,-0.34,-0.35
497.55,1.65,1.98,1.66,1.99,-1.99,-2.02,-2.05,-0.35,-0.33,-0.34
502.52,1.61,1.94,1.61,1.93,-1.93,-1.97,-2.01,-0.33,-0.32,-0.33
507.55,1.57,1.88,1.56,1.87,-1.87,-1.93,-1.97,-0.30,-0.31,-0.31
512.62,1.52,1.82,1.51,1.81,-1.81,-1.89,-1.94,-0.29,-0.30,-0.30
517.75,1.47,1.75,1.47,1.75,-1.75,-1.85,-1.90,-0.28,-0.29,-0.28
