frequency,raw,error,smoothed,error_smoothed,equalization,parametric_eq,equalized_raw,equalized_smoothed,target
20,4.41,0.27,4.52,0.41,-0.41,0.60,4.00,4.10,4.14
21,4.30,0.17,4.31,0.20,-0.20,0.70,4.10,4.11,4.13
22,4.15,0.02,4.11,0.01,-0.01,0.82,4.14,4.11,4.13
23,3.98,-0.14,3.93,-0.18,0.18,0.94,4.16,4.11,4.12
24,3.81,-0.31,3.75,-0.36,0.36,1.08,4.17,4.10,4.12
25,3.63,-0.48,3.58,-0.52,0.52,1.21,4.15,4.10,4.11
26,3.45,-0.66,3.42,-0.68,0.68,1.34,4.13,4.10,4.10
27,3.28,-0.82,3.27,-0.83,0.83,1.47,4.10,4.09,4.10
28,3.11,-0.98,3.13,-0.96,0.96,1.57,4.07,4.09,4.09
29,2.95,-1.13,3.00,-1.09,1.09,1.66,4.04,4.08,4.08
30,2.83,-1.25,2.87,-1.20,1.20,1.72,4.03,4.07,4.08
31,2.73,-1.34,2.75,-1.31,1.31,1.74,4.04,4.06,4.07
32,2.65,-1.41,2.64,-1.41,1.41,1.74,4.06,4.05,4.06
33,2.56,-1.49,2.54,-1.50,1.50,1.72,4.06,4.03,4.05
34,2.48,-1.56,2.45,-1.57,1.57,1.67,4.05,4.02,4.04
35,2.39,-1.64,2.38,-1.64,1.64,1.61,4.02,4.01,4.03
36,2.32,-1.70,2.32,-1.68,1.68,1.53,4.00,4.00,4.02
37,2.27,-1.74,2.28,-1.72,1.72,1.46,3.99,3.99,4.00
38,2.23,-1.76,2.24,-1.74,1.74,1.38,3.97,3.98,3.99
39,2.19,-1.79,2.22,-1.76,1.76,1.30,3.94,3.97,3.98
40,2.18,-1.79,2.20,-1.76,1.76,1.23,3.94,3.96,3.96
41,2.18,-1.77,2.20,-1.75,1.75,1.16,3.93,3.94,3.95
42,2.19,-1.75,2.20,-1.73,1.73,1.09,3.92,3.93,3.94
43,2.22,-1.70,2.21,-1.70,1.70,1.03,3.92,3.91,3.92
44,2.25,-1.65,2.23,-1.67,1.67,0.98,3.92,3.90,3.90
45,2.28,-1.61,2.26,-1.62,1.62,0.93,3.90,3.88,3.89
46,2.31,-1.56,2.29,-1.57,1.57,0.89,3.88,3.86,3.87
47,2.34,-1.51,2.33,-1.52,1.52,0.85,3.86,3.85,3.85
48,2.38,-1.45,2.37,-1.46,1.46,0.81,3.84,3.83,3.83
49,2.42,-1.39,2.42,-1.39,1.39,0.78,3.81,3.81,3.81
50,2.46,-1.33,2.47,-1.32,1.32,0.75,3.78,3.79,3.79
51,2.51,-1.26,2.53,-1.24,1.24,0.72,3.75,3.77,3.77
52,2.57,-1.18,2.58,-1.16,1.16,0.69,3.73,3.74,3.75
53,2.64,-1.08,2.65,-1.07,1.07,0.67,3.71,3.72,3.72
54,2.71,-0.99,2.71,-0.98,0.98,0.64,3.69,3.69,3.70
55,2.79,-0.89,2.78,-0.89,0.89,0.61,3.67,3.67,3.67
56,2.87,-0.78,2.86,-0.79,0.79,0.59,3.65,3.64,3.65
57,2.94,-0.68,2.94,-0.68,0.68,0.55,3.62,3.62,3.62
58,3.02,-0.58,3.02,-0.57,0.57,0.52,3.59,3.59,3.60
59,3.09,-0.48,3.10,-0.46,0.46,0.49,3.55,3.57,3.57
60,3.17,-0.37,3.19,-0.36,0.36,0.45,3.52,3.54,3.54
61,3.25,-0.26,3.27,-0.25,0.25,0.40,3.50,3.51,3.51
62,3.34,-0.15,3.34,-0.14,0.14,0.36,3.48,3.48,3.48
63,3.43,-0.03,3.42,-0.03,0.03,0.31,3.46,3.45,3.45
64,3.52,0.09,3.49,0.07,-0.07,0.25,3.45,3.42,3.42
65,3.59,0.20,3.56,0.17,-0.17,0.20,3.42,3.39,3.39
66,3.65,0.29,3.62,0.26,-0.26,0.14,3.39,3.36,3.36
67,3.70,0.37,3.68,0.36,-0.36,0.07,3.34,3.32,3.33
68,3.74,0.44,3.74,0.45,-0.45,0.01,3.29,3.29,3.30
69,3.78,0.51,3.79,0.53,-0.53,-0.06,3.25,3.26,3.26
70,3.82,0.59,3.84,0.61,-0.61,-0.13,3.20,3.23,3.23
71,3.87,0.67,3.89,0.69,-0.69,-0.21,3.17,3.19,3.20
72,3.92,0.76,3.93,0.77,-0.77,-0.28,3.15,3.16,3.16
73,3.97,0.84,3.97,0.85,-0.85,-0.36,3.12,3.12,3.13
74,4.02,0.92,4.01,0.93,-0.93,-0.44,3.09,3.09,3.09
75,4.07,1.01,4.06,1.00,-1.00,-0.52,3.07,3.05,3.06
76,4.11,1.08,4.10,1.08,-1.08,-0.60,3.03,3.02,3.02
77,4.14,1.15,4.14,1.15,-1.15,-0.68,2.99,2.99,2.99
78,4.17,1.22,4.18,1.23,-1.23,-0.76,2.94,2.95,2.95
79,4.21,1.29,4.22,1.30,-1.30,-0.84,2.91,2.92,2.92
80,4.25,1.37,4.26,1.37,-1.37,-0.93,2.88,2.88,2.88
81,4.30,1.45,4.29,1.44,-1.44,-1.01,2.85,2.84,2.84
82,4.33,1.52,4.32,1.51,-1.51,-1.10,2.81,2.81,2.81
83,4.36,1.59,4.35,1.58,-1.58,-1.19,2.78,2.77,2.77
84,4.39,1.65,4.38,1.65,-1.65,-1.27,2.74,2.73,2.74
85,4.42,1.72,4.41,1.72,-1.72,-1.36,2.70,2.70,2.70
86,4.44,1.78,4.44,1.78,-1.78,-1.45,2.66,2.66,2.66
87,4.46,1.83,4.47,1.84,-1.84,-1.54,2.62,2.63,2.63
88,4.49,1.90,4.50,1.91,-1.91,-1.63,2.58,2.59,2.59
89,4.52,1.96,4.52,1.97,-1.97,-1.72,2.55,2.55,2.55
90,4.55,2.03,4.55,2.03,-2.03,-1.81,2.52,2.52,2.52
91,4.57,2.09,4.57,2.09,-2.09,-1.91,2.48,2.48,2.48
92,4.60,2.15,4.60,2.15,-2.15,-2.00,2.45,2.45,2.45
93,4.61,2.20,4.62,2.21,-2.21,-2.09,2.40,2.41,2.41
94,4.64,2.26,4.64,2.26,-2.26,-2.19,2.38,2.38,2.38
95,4.66,2.32,4.66,2.32,-2.32,-2.28,2.34,2.34,2.34
96,4.68,2.37,4.68,2.38,-2.38,-2.37,2.30,2.31,2.31
97,4.72,2.45,4.70,2.43,-2.43,-2.47,2.29,2.27,2.27
98,4.73,2.49,4.72,2.48,-2.48,-2.56,2.24,2.23,2.24
99,4.75,2.54,4.73,2.54,-2.54,-2.65,2.21,2.20,2.20
100,4.76,2.59,4.75,2.59,-2.59,-2.75,2.17,2.16,2.17
101,4.76,2.62,4.77,2.65,-2.65,-2.84,2.11,2.12,2.14
102,4.77,2.66,4.78,2.70,-2.70,-2.93,2.07,2.09,2.11
104,4.79,2.75,4.80,2.75,-2.75,-3.11,2.04,2.05,2.04
105,4.80,2.79,4.82,2.80,-2.80,-3.20,2.00,2.02,2.01
106,4.82,2.84,4.83,2.85,-2.85,-3.28,1.97,1.98,1.98
107,4.85,2.90,4.85,2.90,-2.90,-3.37,1.95,1.95,1.95
108,4.87,2.95,4.87,2.95,-2.95,-3.45,1.92,1.92,1.92
109,4.90,3.01,4.88,2.99,-2.99,-3.53,1.90,1.89,1.89
110,4.91,3.05,4.89,3.04,-3.04,-3.60,1.87,1.85,1.86
111,4.92,3.09,4.91,3.08,-3.08,-3.68,1.83,1.82,1.83
112,4.92,3.12,4.92,3.13,-3.13,-3.75,1.79,1.79,1.80
113,4.94,3.17,4.93,3.17,-3.17,-3.81,1.77,1.76,1.77
114,4.94,3.20,4.93,3.21,-3.21,-3.87,1.73,1.73,1.74
115,4.95,3.24,4.95,3.25,-3.25,-3.93,1.70,1.69,1.71
117,4.94,3.28,4.96,3.29,-3.29,-4.04,1.65,1.66,1.66
118,4.94,3.31,4.97,3.33,-3.33,-4.08,1.61,1.63,1.63
119,4.95,3.34,4.98,3.37,-3.37,-4.12,1.58,1.60,1.61
120,4.96,3.38,4.98,3.41,-3.41,-4.16,1.55,1.57,1.58
121,4.98,3.42,4.99,3.45,-3.45,-4.19,1.53,1.54,1.56
123,5.01,3.50,4.99,3.49,-3.49,-4.23,1.52,1.51,1.51
124,5.04,3.55,5.00,3.52,-3.52,-4.25,1.52,1.48,1.48
125,5.04,3.58,5.00,3.55,-3.55,-4.26,1.49,1.45,1.46
126,5.04,3.60,5.01,3.58,-3.58,-4.27,1.45,1.42,1.44
128,5.02,3.63,5.01,3.61,-3.61,-4.27,1.40,1.39,1.39
129,5.00,3.63,5.01,3.64,-3.64,-4.27,1.36,1.37,1.37
130,4.98,3.63,5.01,3.67,-3.67,-4.26,1.31,1.34,1.35
131,4.97,3.64,5.01,3.69,-3.69,-4.24,1.28,1.32,1.33
133,4.97,3.68,5.00,3.71,-3.71,-4.21,1.26,1.29,1.29
134,4.98,3.71,4.99,3.73,-3.73,-4.19,1.25,1.26,1.27
135,5.00,3.75,4.98,3.75,-3.75,-4.16,1.25,1.23,1.25
137,5.00,3.79,4.97,3.77,-3.77,-4.10,1.23,1.20,1.21
138,5.00,3.80,4.96,3.78,-3.78,-4.07,1.22,1.18,1.19
140,4.97,3.81,4.96,3.80,-3.80,-4.00,1.17,1.15,1.16
141,4.95,3.81,4.95,3.82,-3.82,-3.96,1.13,1.13,1.14
142,4.93,3.80,4.95,3.83,-3.83,-3.92,1.09,1.11,1.12
144,4.91,3.82,4.94,3.85,-3.85,-3.84,1.06,1.09,1.09
145,4.90,3.82,4.93,3.86,-3.86,-3.80,1.04,1.07,1.08
147,4.90,3.85,4.92,3.87,-3.87,-3.72,1.03,1.04,1.05
148,4.91,3.88,4.90,3.88,-3.88,-3.68,1.02,1.02,1.03
150,4.91,3.91,4.89,3.89,-3.89,-3.59,1.02,0.99,1.00
151,4.91,3.92,4.87,3.90,-3.90,-3.55,1.01,0.97,0.99
153,4.89,3.93,4.86,3.91,-3.91,-3.47,0.98,0.95,0.96
154,4.86,3.91,4.84,3.91,-3.91,-3.42,0.95,0.93,0.95
156,4.82,3.90,4.83,3.92,-3.92,-3.34,0.90,0.92,0.92
157,4.80,3.89,4.82,3.92,-3.92,-3.30,0.88,0.90,0.91
159,4.76,3.87,4.80,3.92,-3.92,-3.23,0.84,0.88,0.88
160,4.76,3.89,4.78,3.92,-3.92,-3.19,0.84,0.86,0.87
162,4.74,3.89,4.76,3.92,-3.92,-3.12,0.82,0.84,0.85
164,4.74,3.91,4.74,3.91,-3.91,-3.05,0.83,0.83,0.83
165,4.73,3.91,4.71,3.90,-3.90,-3.02,0.83,0.81,0.82
167,4.71,3.91,4.68,3.89,-3.89,-2.95,0.82,0.79,0.80
169,4.67,3.89,4.65,3.88,-3.88,-2.89,0.79,0.77,0.78
170,4.65,3.88,4.62,3.87,-3.87,-2.86,0.78,0.76,0.77
172,4.60,3.85,4.59,3.85,-3.85,-2.81,0.75,0.74,0.75
174,4.55,3.82,4.56,3.83,-3.83,-2.76,0.72,0.73,0.73
175,4.53,3.81,4.52,3.81,-3.81,-2.73,0.72,0.71,0.72
177,4.48,3.77,4.48,3.79,-3.79,-2.68,0.69,0.70,0.71
179,4.42,3.73,4.44,3.76,-3.76,-2.64,0.66,0.68,0.69
181,4.37,3.70,4.40,3.74,-3.74,-2.60,0.63,0.67,0.67
183,4.33,3.67,4.36,3.71,-3.71,-2.56,0.62,0.65,0.66
184,4.31,3.66,4.32,3.68,-3.68,-2.55,0.63,0.64,0.65
186,4.28,3.64,4.27,3.64,-3.64,-2.51,0.64,0.63,0.64
188,4.25,3.62,4.23,3.61,-3.61,-2.48,0.64,0.62,0.62
190,4.21,3.60,4.18,3.57,-3.57,-2.46,0.64,0.60,0.61
192,4.16,3.56,4.13,3.53,-3.53,-2.43,0.63,0.59,0.60
194,4.10,3.51,4.07,3.49,-3.49,-2.41,0.61,0.58,0.59
196,4.03,3.45,4.02,3.45,-3.45,-2.39,0.58,0.57,0.57
198,3.95,3.39,3.96,3.40,-3.40,-2.37,0.55,0.56,0.56
200,3.89,3.34,3.90,3.36,-3.36,-2.35,0.53,0.55,0.55
202,3.82,3.28,3.84,3.31,-3.31,-2.33,0.51,0.54,0.54
204,3.76,3.23,3.79,3.26,-3.26,-2.32,0.50,0.52,0.53
206,3.71,3.19,3.73,3.21,-3.21,-2.31,0.50,0.51,0.52
208,3.65,3.14,3.67,3.17,-3.17,-2.30,0.48,0.50,0.51
210,3.61,3.10,3.61,3.12,-3.12,-2.28,0.49,0.50,0.50
212,3.56,3.06,3.56,3.07,-3.07,-2.27,0.49,0.49,0.50
214,3.51,3.02,3.50,3.02,-3.02,-2.26,0.49,0.48,0.49
216,3.47,2.99,3.45,2.97,-2.97,-2.26,0.50,0.47,0.48
218,3.42,2.95,3.39,2.92,-2.92,-2.25,0.50,0.47,0.47
221,3.34,2.88,3.33,2.87,-2.87,-2.23,0.47,0.46,0.46
223,3.28,2.83,3.27,2.82,-2.82,-2.23,0.46,0.45,0.45
225,3.21,2.76,3.21,2.76,-2.76,-2.22,0.45,0.45,0.45
227,3.14,2.70,3.14,2.71,-2.71,-2.21,0.43,0.44,0.44
229,3.08,2.65,3.08,2.65,-2.65,-2.20,0.43,0.43,0.43
232,2.99,2.56,3.01,2.59,-2.59,-2.18,0.40,0.42,0.42
234,2.93,2.51,2.94,2.53,-2.53,-2.17,0.40,0.41,0.42
236,2.88,2.47,2.88,2.47,-2.47,-2.16,0.41,0.41,0.41
239,2.80,2.39,2.81,2.41,-2.41,-2.14,0.39,0.40,0.40
241,2.75,2.35,2.74,2.34,-2.34,-2.13,0.41,0.39,0.40
244,2.66,2.27,2.67,2.28,-2.28,-2.11,0.38,0.39,0.39
246,2.61,2.22,2.60,2.22,-2.22,-2.09,0.39,0.39,0.39
248,2.55,2.17,2.53,2.15,-2.15,-2.08,0.40,0.38,0.38
251,2.46,2.08,2.46,2.09,-2.09,-2.05,0.37,0.37,0.38
253,2.40,2.03,2.39,2.02,-2.02,-2.03,0.38,0.37,0.37
256,2.32,1.95,2.32,1.95,-1.95,-2.00,0.37,0.37,0.36
259,2.23,1.87,2.24,1.88,-1.88,-1.97,0.35,0.36,0.36
261,2.17,1.81,2.17,1.81,-1.81,-1.95,0.36,0.35,0.35
264,2.08,1.73,2.09,1.74,-1.74,-1.91,0.34,0.35,0.35
266,2.02,1.67,2.01,1.66,-1.66,-1.89,0.35,0.34,0.35
269,1.93,1.59,1.93,1.59,-1.59,-1.85,0.34,0.34,0.34
272,1.84,1.50,1.85,1.51,-1.51,-1.81,0.33,0.33,0.34
274,1.78,1.45,1.77,1.44,-1.44,-1.78,0.34,0.33,0.33
277,1.69,1.36,1.68,1.36,-1.36,-1.74,0.33,0.33,0.33
280,1.60,1.28,1.60,1.28,-1.28,-1.70,0.32,0.32,0.32
283,1.51,1.19,1.52,1.20,-1.20,-1.66,0.31,0.32,0.32
286,1.42,1.10,1.43,1.12,-1.12,-1.62,0.30,0.32,0.31
288,1.36,1.05,1.35,1.04,-1.04,-1.59,0.32,0.31,0.31
291,1.27,0.96,1.26,0.95,-0.95,-1.55,0.31,0.31,0.31
294,1.18,0.87,1.18,0.87,-0.87,-1.50,0.31,0.30,0.30
297,1.09,0.79,1.09,0.79,-0.79,-1.46,0.30,0.30,0.30
300,1.01,0.71,1.01,0.71,-0.71,-1.42,0.30,0.30,0.30
303,0.92,0.62,0.92,0.63,-0.63,-1.38,0.29,0.29,0.29
306,0.84,0.55,0.84,0.55,-0.55,-1.34,0.29,0.29,0.29
309,0.76,0.47,0.76,0.47,-0.47,-1.30,0.29,0.29,0.29
312,0.68,0.39,0.67,0.39,-0.39,-1.26,0.29,0.28,0.29
316,0.58,0.30,0.59,0.32,-0.32,-1.20,0.26,0.28,0.28
319,0.51,0.23,0.51,0.24,-0.24,-1.17,0.27,0.27,0.28
322,0.44,0.16,0.44,0.17,-0.17,-1.13,0.27,0.27,0.28
325,0.37,0.10,0.37,0.10,-0.10,-1.09,0.27,0.27,0.27
328,0.31,0.04,0.30,0.03,-0.03,-1.06,0.28,0.27,0.27
332,0.22,-0.05,0.23,-0.03,0.03,-1.01,0.25,0.27,0.27
335,0.16,-0.11,0.17,-0.10,0.10,-0.97,0.26,0.26,0.27
338,0.10,-0.16,0.10,-0.16,0.16,-0.94,0.26,0.26,0.26
342,0.03,-0.23,0.04,-0.22,0.22,-0.90,0.25,0.26,0.26
345,-0.02,-0.28,-0.03,-0.29,0.29,-0.86,0.26,0.26,0.26
349,-0.08,-0.34,-0.09,-0.35,0.35,-0.82,0.27,0.26,0.26
352,-0.12,-0.38,-0.15,-0.41,0.41,-0.79,0.29,0.25,0.25
356,-0.20,-0.45,-0.22,-0.47,0.47,-0.75,0.27,0.25,0.25
359,-0.26,-0.51,-0.28,-0.52,0.52,-0.72,0.26,0.25,0.25
363,-0.34,-0.59,-0.34,-0.58,0.58,-0.69,0.24,0.25,0.25
366,-0.39,-0.64,-0.39,-0.64,0.64,-0.66,0.24,0.24,0.25
370,-0.46,-0.71,-0.45,-0.69,0.69,-0.62,0.23,0.24,0.24
374,-0.51,-0.75,-0.50,-0.73,0.73,-0.59,0.22,0.24,0.24
377,-0.55,-0.79,-0.54,-0.78,0.78,-0.56,0.23,0.24,0.24
381,-0.59,-0.83,-0.58,-0.82,0.82,-0.53,0.23,0.23,0.24
385,-0.62,-0.86,-0.62,-0.85,0.85,-0.50,0.23,0.23,0.24
389,-0.65,-0.89,-0.65,-0.88,0.88,-0.47,0.23,0.23,0.24
393,-0.67,-0.91,-0.67,-0.90,0.90,-0.44,0.23,0.23,0.23
397,-0.69,-0.92,-0.69,-0.92,0.92,-0.41,0.23,0.23,0.23
401,-0.69,-0.92,-0.70,-0.93,0.93,-0.38,0.24,0.23,0.23
405,-0.70,-0.93,-0.70,-0.93,0.93,-0.35,0.23,0.23,0.23
409,-0.70,-0.93,-0.70,-0.93,0.93,-0.32,0.23,0.23,0.23
413,-0.69,-0.92,-0.70,-0.93,0.93,-0.30,0.23,0.23,0.23
417,-0.68,-0.91,-0.69,-0.91,0.91,-0.27,0.23,0.22,0.23
421,-0.66,-0.88,-0.68,-0.89,0.89,-0.25,0.23,0.22,0.22
425,-0.64,-0.86,-0.66,-0.87,0.87,-0.22,0.23,0.21,0.22
430,-0.61,-0.83,-0.63,-0.83,0.83,-0.19,0.22,0.20,0.22
434,-0.59,-0.81,-0.59,-0.79,0.79,-0.17,0.20,0.20,0.22
438,-0.55,-0.77,-0.54,-0.74,0.74,-0.15,0.19,0.20,0.22
443,-0.51,-0.73,-0.48,-0.68,0.68,-0.12,0.17,0.20,0.22
447,-0.47,-0.69,-0.41,-0.61,0.61,-0.10,0.14,0.21,0.22
451,-0.39,-0.61,-0.33,-0.54,0.54,-0.08,0.15,0.21,0.22
456,-0.28,-0.51,-0.25,-0.46,0.46,-0.05,0.18,0.22,0.23
460,-0.18,-0.41,-0.16,-0.38,0.38,-0.03,0.20,0.22,0.23
465,-0.04,-0.28,-0.07,-0.30,0.30,-0.01,0.26,0.23,0.24
470,0.08,-0.17,0.02,-0.22,0.22,0.01,0.30,0.24,0.25
474,0.16,-0.10,0.11,-0.13,0.13,0.03,0.29,0.25,0.26
479,0.26,-0.01,0.21,-0.06,0.06,0.05,0.31,0.26,0.27
484,0.33,0.05,0.30,0.02,-0.02,0.07,0.31,0.28,0.28
489,0.39,0.10,0.38,0.09,-0.09,0.10,0.30,0.29,0.29
494,0.45,0.14,0.46,0.16,-0.16,0.11,0.29,0.31,0.31
499,0.52,0.20,0.54,0.22,-0.22,0.13,0.30,0.32,0.32
504,0.58,0.24,0.61,0.27,-0.27,0.15,0.31,0.33,0.34
509,0.65,0.30,0.67,0.32,-0.32,0.17,0.33,0.35,0.35
514,0.72,0.35,0.73,0.37,-0.37,0.19,0.35,0.36,0.37
519,0.79,0.40,0.78,0.40,-0.40,0.20,0.38,0.38,0.39
524,0.85,0.45,0.84,0.44,-0.44,0.22,0.41,0.40,0.40
529,0.90,0.48,0.89,0.47,-0.47,0.24,0.42,0.42,0.42
535,0.96,0.52,0.94,0.50,-0.50,0.26,0.46,0.44,0.44
540,1.00,0.54,0.99,0.53,-0.53,0.27,0.47,0.46,0.46
545,1.04,0.55,1.04,0.55,-0.55,0.29,0.49,0.49,0.48
551,1.07,0.56,1.08,0.57,-0.57,0.30,0.50,0.51,0.51
556,1.11,0.57,1.12,0.58,-0.58,0.32,0.53,0.54,0.53
562,1.15,0.59,1.15,0.59,-0.59,0.34,0.56,0.56,0.56
568,1.18,0.59,1.19,0.60,-0.60,0.35,0.58,0.59,0.59
573,1.21,0.59,1.21,0.60,-0.60,0.37,0.61,0.61,0.62
579,1.24,0.59,1.24,0.60,-0.60,0.39,0.64,0.64,0.65
585,1.27,0.59,1.27,0.59,-0.59,0.40,0.68,0.67,0.68
591,1.29,0.58,1.29,0.58,-0.58,0.42,0.71,0.70,0.71
596,1.31,0.57,1.30,0.57,-0.57,0.44,0.74,0.74,0.74
602,1.32,0.55,1.32,0.55,-0.55,0.45,0.77,0.77,0.77
608,1.33,0.53,1.33,0.53,-0.53,0.47,0.80,0.80,0.80
615,1.34,0.51,1.33,0.50,-0.50,0.49,0.84,0.83,0.83
621,1.34,0.48,1.32,0.46,-0.46,0.51,0.88,0.86,0.86
627,1.33,0.44,1.32,0.42,-0.42,0.53,0.91,0.89,0.89
633,1.32,0.40,1.31,0.38,-0.38,0.55,0.94,0.92,0.92
639,1.31,0.35,1.29,0.34,-0.34,0.57,0.97,0.95,0.96
646,1.28,0.29,1.28,0.29,-0.29,0.59,0.99,0.98,0.99
652,1.27,0.25,1.26,0.25,-0.25,0.61,1.02,1.02,1.02
659,1.24,0.18,1.25,0.20,-0.20,0.63,1.04,1.05,1.05
665,1.22,0.13,1.24,0.16,-0.16,0.65,1.06,1.08,1.09
672,1.21,0.08,1.23,0.12,-0.12,0.68,1.09,1.11,1.13
679,1.21,0.05,1.23,0.09,-0.09,0.70,1.12,1.15,1.16
686,1.22,0.02,1.24,0.05,-0.05,0.73,1.17,1.18,1.20
692,1.23,-0.01,1.25,0.03,-0.03,0.75,1.20,1.22,1.24
699,1.25,-0.03,1.26,0.00,-0.00,0.77,1.25,1.26,1.27
706,1.28,-0.03,1.28,-0.02,0.02,0.80,1.30,1.30,1.31
713,1.30,-0.05,1.31,-0.04,0.04,0.83,1.34,1.34,1.35
721,1.32,-0.07,1.33,-0.06,0.06,0.86,1.37,1.38,1.39
728,1.36,-0.07,1.35,-0.08,0.08,0.89,1.43,1.43,1.43
735,1.38,-0.09,1.37,-0.10,0.10,0.91,1.48,1.47,1.47
742,1.40,-0.11,1.38,-0.13,0.13,0.94,1.53,1.51,1.51
750,1.41,-0.14,1.39,-0.17,0.17,0.98,1.57,1.55,1.55
757,1.41,-0.18,1.38,-0.21,0.21,1.01,1.62,1.59,1.58
765,1.39,-0.23,1.37,-0.26,0.26,1.04,1.65,1.63,1.62
773,1.37,-0.29,1.35,-0.32,0.32,1.07,1.69,1.66,1.66
780,1.33,-0.37,1.31,-0.38,0.38,1.10,1.71,1.70,1.70
788,1.29,-0.44,1.27,-0.46,0.46,1.13,1.75,1.73,1.73
796,1.24,-0.53,1.23,-0.54,0.54,1.17,1.77,1.76,1.77
804,1.17,-0.63,1.17,-0.62,0.62,1.20,1.79,1.79,1.80
812,1.11,-0.72,1.12,-0.71,0.71,1.23,1.82,1.83,1.83
820,1.05,-0.82,1.06,-0.80,0.80,1.27,1.85,1.86,1.86
828,0.97,-0.93,1.00,-0.89,0.89,1.30,1.86,1.89,1.90
837,0.91,-1.02,0.94,-0.98,0.98,1.33,1.89,1.92,1.93
845,0.86,-1.10,0.88,-1.07,1.07,1.36,1.93,1.95,1.96
853,0.81,-1.18,0.82,-1.16,1.16,1.39,1.97,1.98,1.99
862,0.77,-1.25,0.76,-1.26,1.26,1.42,2.03,2.02,2.02
871,0.72,-1.33,0.70,-1.35,1.35,1.45,2.07,2.05,2.05
879,0.67,-1.41,0.64,-1.44,1.44,1.48,2.11,2.08,2.08
888,0.60,-1.51,0.57,-1.53,1.53,1.50,2.13,2.10,2.11
897,0.52,-1.61,0.51,-1.62,1.62,1.53,2.14,2.13,2.13
906,0.46,-1.70,0.45,-1.71,1.71,1.55,2.17,2.16,2.16
915,0.39,-1.80,0.38,-1.80,1.80,1.57,2.19,2.19,2.19
924,0.32,-1.89,0.32,-1.89,1.89,1.58,2.21,2.21,2.21
933,0.25,-1.99,0.26,-1.97,1.97,1.60,2.22,2.24,2.24
943,0.19,-2.08,0.21,-2.05,2.05,1.61,2.24,2.26,2.27
952,0.14,-2.15,0.16,-2.13,2.13,1.62,2.27,2.29,2.29
962,0.09,-2.23,0.11,-2.21,2.21,1.62,2.29,2.31,2.32
971,0.06,-2.28,0.07,-2.27,2.27,1.62,2.33,2.34,2.34
981,0.04,-2.33,0.03,-2.34,2.34,1.62,2.38,2.37,2.37
991,0.01,-2.39,0.00,-2.39,2.39,1.62,2.40,2.39,2.40
1001,-0.00,-2.42,-0.02,-2.44,2.44,1.61,2.44,2.42,2.42
1011,-0.01,-2.46,-0.04,-2.48,2.48,1.59,2.47,2.44,2.45
1021,-0.03,-2.51,-0.05,-2.52,2.52,1.58,2.49,2.47,2.48
1031,-0.04,-2.54,-0.05,-2.54,2.54,1.56,2.50,2.50,2.50
1041,-0.04,-2.57,-0.04,-2.56,2.56,1.53,2.52,2.52,2.53
1052,-0.03,-2.59,-0.02,-2.56,2.56,1.51,2.53,2.55,2.56
1062,-0.01,-2.60,0.02,-2.56,2.56,1.48,2.55,2.58,2.59
1073,0.04,-2.58,0.06,-2.54,2.54,1.44,2.58,2.60,2.62
1084,0.11,-2.54,0.11,-2.51,2.51,1.40,2.62,2.62,2.65
1094,0.18,-2.50,0.18,-2.47,2.47,1.37,2.65,2.65,2.68
1105,0.27,-2.44,0.27,-2.41,2.41,1.32,2.68,2.68,2.71
1116,0.37,-2.37,0.37,-2.34,2.34,1.28,2.70,2.71,2.74
1128,0.49,-2.28,0.49,-2.25,2.25,1.23,2.74,2.74,2.77
1139,0.62,-2.18,0.62,-2.15,2.15,1.18,2.77,2.77,2.80
1150,0.75,-2.08,0.77,-2.03,2.03,1.13,2.78,2.81,2.83
1162,0.92,-1.94,0.93,-1.91,1.91,1.07,2.83,2.84,2.86
1173,1.08,-1.82,1.10,-1.77,1.77,1.02,2.85,2.88,2.89
1185,1.27,-1.66,1.29,-1.62,1.62,0.96,2.89,2.91,2.93
1197,1.47,-1.49,1.47,-1.47,1.47,0.90,2.94,2.94,2.96
1209,1.68,-1.31,1.67,-1.31,1.31,0.84,2.99,2.98,2.99
1221,1.88,-1.14,1.87,-1.15,1.15,0.78,3.03,3.02,3.02
1233,2.08,-0.97,2.07,-0.98,0.98,0.72,3.06,3.06,3.05
1246,2.30,-0.79,2.28,-0.82,0.82,0.66,3.12,3.09,3.09
1258,2.49,-0.63,2.48,-0.65,0.65,0.60,3.14,3.13,3.12
1271,2.70,-0.45,2.67,-0.49,0.49,0.53,3.19,3.16,3.15
1283,2.89,-0.30,2.86,-0.33,0.33,0.47,3.22,3.20,3.19
1296,3.07,-0.15,3.05,-0.18,0.18,0.41,3.25,3.23,3.22
1309,3.25,-0.01,3.23,-0.02,0.02,0.34,3.27,3.26,3.26
1322,3.42,0.12,3.42,0.12,-0.12,0.28,3.29,3.29,3.29
1335,3.59,0.26,3.60,0.27,-0.27,0.21,3.32,3.32,3.33
1349,3.76,0.39,3.77,0.41,-0.41,0.15,3.35,3.36,3.37
1362,3.92,0.51,3.95,0.55,-0.55,0.08,3.37,3.40,3.40
1376,4.09,0.65,4.13,0.69,-0.69,0.01,3.40,3.44,3.44
1390,4.27,0.79,4.30,0.82,-0.82,-0.05,3.45,3.48,3.48
1404,4.44,0.92,4.47,0.95,-0.95,-0.12,3.49,3.52,3.52
1418,4.62,1.06,4.63,1.07,-1.07,-0.19,3.55,3.56,3.56
1432,4.81,1.21,4.78,1.18,-1.18,-0.25,3.63,3.60,3.60
1446,4.97,1.33,4.93,1.29,-1.29,-0.32,3.68,3.64,3.64
1461,5.12,1.44,5.06,1.38,-1.38,-0.39,3.74,3.68,3.67
1475,5.24,1.53,5.19,1.47,-1.47,-0.45,3.77,3.72,3.71
1490,5.35,1.60,5.31,1.54,-1.54,-0.52,3.81,3.76,3.75
1505,5.43,1.64,5.41,1.61,-1.61,-0.59,3.82,3.80,3.79
1520,5.51,1.68,5.51,1.67,-1.67,-0.66,3.84,3.84,3.83
1535,5.58,1.70,5.60,1.72,-1.72,-0.72,3.86,3.88,3.87
1550,5.65,1.73,5.68,1.77,-1.77,-0.79,3.88,3.92,3.92
1566,5.73,1.77,5.76,1.81,-1.81,-0.86,3.92,3.95,3.96
1582,5.81,1.80,5.84,1.84,-1.84,-0.93,3.96,3.99,4.01
1597,5.89,1.84,5.92,1.88,-1.88,-0.99,4.01,4.04,4.05
1613,5.98,1.88,5.99,1.91,-1.91,-1.06,4.07,4.08,4.10
1629,6.06,1.92,6.07,1.94,-1.94,-1.12,4.12,4.13,4.14
1646,6.14,1.95,6.15,1.97,-1.97,-1.19,4.17,4.18,4.19
1662,6.22,1.99,6.22,1.99,-1.99,-1.25,4.23,4.23,4.23
1679,6.30,2.02,6.29,2.01,-2.01,-1.31,4.29,4.28,4.28
1696,6.37,2.04,6.36,2.02,-2.02,-1.37,4.35,4.34,4.33
1713,6.43,2.05,6.41,2.03,-2.03,-1.43,4.40,4.39,4.37
1730,6.48,2.06,6.46,2.02,-2.02,-1.49,4.46,4.44,4.42
1747,6.51,2.04,6.49,2.01,-2.01,-1.54,4.50,4.48,4.47
1764,6.54,2.02,6.51,1.99,-1.99,-1.59,4.55,4.53,4.52
1782,6.56,1.99,6.52,1.95,-1.95,-1.64,4.61,4.57,4.57
1800,6.56,1.94,6.52,1.91,-1.91,-1.68,4.65,4.61,4.62
1818,6.55,1.87,6.51,1.86,-1.86,-1.72,4.69,4.65,4.67
1836,6.52,1.79,6.49,1.81,-1.81,-1.76,4.71,4.68,4.73
1854,6.49,1.70,6.47,1.76,-1.76,-1.79,4.73,4.71,4.79
1873,6.46,1.61,6.45,1.71,-1.71,-1.82,4.75,4.74,4.85
1892,6.44,1.52,6.43,1.66,-1.66,-1.85,4.78,4.77,4.92
1911,6.42,1.43,6.43,1.62,-1.62,-1.86,4.80,4.81,4.99
1930,6.43,1.37,6.45,1.59,-1.59,-1.88,4.84,4.86,5.06
1949,6.44,1.30,6.50,1.57,-1.57,-1.88,4.87,4.93,5.14
1969,6.48,1.26,6.56,1.56,-1.56,-1.89,4.92,5.00,5.22
1988,6.56,1.26,6.66,1.57,-1.57,-1.88,4.99,5.10,5.30
2008,6.68,1.29,6.78,1.58,-1.58,-1.87,5.10,5.20,5.38
2028,6.85,1.38,6.92,1.61,-1.61,-1.86,5.24,5.31,5.47
2048,7.04,1.47,7.09,1.65,-1.65,-1.83,5.39,5.43,5.57
2069,7.26,1.60,7.26,1.70,-1.70,-1.80,5.56,5.56,5.66
2090,7.49,1.72,7.44,1.74,-1.74,-1.77,5.75,5.70,5.77
2111,7.69,1.82,7.63,1.79,-1.79,-1.73,5.90,5.84,5.87
2132,7.90,1.91,7.81,1.83,-1.83,-1.69,6.07,5.99,5.99
