frequency,raw,error,smoothed,error_smoothed,equalization,parametric_eq,fixed_band_eq,equalized_raw,equalized_smoothed,target
20.00,-0.13,-3.57,-0.13,-3.57,3.55,3.40,0.79,3.43,3.43,3.44
20.20,-0.07,-3.56,-0.06,-3.56,3.55,3.37,0.82,3.49,3.49,3.49
20.40,-0.01,-3.55,-0.00,-3.54,3.54,3.33,0.84,3.54,3.54,3.54
20.61,0.05,-3.52,0.06,-3.52,3.53,3.29,0.87,3.59,3.59,3.57
20.81,0.11,-3.51,0.12,-3.50,3.52,3.25,0.90,3.63,3.63,3.62
21.02,0.17,-3.49,0.17,-3.48,3.50,3.21,0.93,3.67,3.67,3.66
21.23,0.22,-3.46,0.22,-3.46,3.47,3.17,0.96,3.70,3.69,3.68
21.44,0.26,-3.44,0.27,-3.44,3.44,3.13,0.99,3.70,3.71,3.70
21.66,0.30,-3.42,0.31,-3.41,3.41,3.09,1.02,3.71,3.71,3.72
21.87,0.36,-3.37,0.35,-3.38,3.37,3.05,1.05,3.72,3.72,3.73
22.09,0.41,-3.34,0.41,-3.34,3.32,3.01,1.09,3.72,3.73,3.75
22.31,0.48,-3.28,0.47,-3.28,3.27,2.97,1.12,3.74,3.74,3.76
22.54,0.54,-3.21,0.55,-3.21,3.21,2.93,1.16,3.75,3.76,3.76
22.76,0.61,-3.14,0.61,-3.14,3.16,2.89,1.20,3.77,3.77,3.76
22.99,0.68,-3.06,0.68,-3.07,3.10,2.85,1.23,3.78,3.78,3.75
23.22,0.72,-3.02,0.73,-3.02,3.04,2.80,1.27,3.77,3.77,3.75
23.45,0.77,-2.97,0.77,-2.98,2.99,2.76,1.31,3.76,3.76,3.75
23.69,0.81,-2.94,0.81,-2.94,2.93,2.72,1.35,3.74,3.74,3.76
23.92,0.87,-2.89,0.87,-2.89,2.87,2.68,1.39,3.74,3.74,3.76
24.16,0.93,-2.84,0.93,-2.84,2.81,2.64,1.43,3.74,3.74,3.77
24.40,1.01,-2.77,1.00,-2.77,2.76,2.59,1.47,3.76,3.76,3.78
24.65,1.07,-2.69,1.08,-2.69,2.70,2.55,1.52,3.77,3.77,3.76
24.89,1.16,-2.61,1.15,-2.62,2.63,2.51,1.56,3.79,3.78,3.76
25.14,1.22,-2.55,1.21,-2.56,2.57,2.47,1.60,3.79,3.78,3.76
25.39,1.27,-2.51,1.27,-2.50,2.51,2.43,1.65,3.77,3.77,3.77
25.65,1.31,-2.46,1.31,-2.45,2.45,2.38,1.69,3.76,3.76,3.77
25.91,1.36,-2.40,1.36,-2.40,2.39,2.34,1.73,3.75,3.76,3.76
26.16,1.42,-2.35,1.42,-2.34,2.34,2.30,1.77,3.76,3.76,3.76
26.43,1.47,-2.29,1.47,-2.29,2.30,2.26,1.82,3.77,3.77,3.76
26.69,1.52,-2.24,1.52,-2.24,2.25,2.21,1.86,3.78,3.78,3.76
26.96,1.57,-2.20,1.57,-2.20,2.21,2.17,1.90,3.78,3.78,3.77
27.23,1.60,-2.17,1.61,-2.16,2.17,2.13,1.94,3.77,3.77,3.77
27.50,1.63,-2.13,1.63,-2.13,2.13,2.09,1.97,3.76,3.76,3.77
27.77,1.66,-2.09,1.66,-2.10,2.08,2.04,2.01,3.75,3.75,3.76
28.05,1.69,-2.06,1.70,-2.05,2.04,2.00,2.04,3.73,3.74,3.76
28.33,1.75,-1.99,1.75,-2.00,1.99,1.96,2.07,3.74,3.74,3.75
28.62,1.80,-1.94,1.80,-1.94,1.93,1.92,2.10,3.74,3.74,3.75
28.90,1.86,-1.89,1.86,-1.88,1.88,1.87,2.13,3.75,3.75,3.75
29.19,1.92,-1.82,1.93,-1.83,1.83,1.83,2.15,3.75,3.76,3.74
29.48,1.98,-1.78,1.99,-1.77,1.78,1.79,2.17,3.77,3.77,3.76
29.78,2.04,-1.71,2.04,-1.72,1.74,1.75,2.18,3.79,3.78,3.75
30.08,2.08,-1.68,2.08,-1.68,1.70,1.71,2.20,3.78,3.78,3.76
30.38,2.09,-1.66,2.09,-1.66,1.66,1.66,2.20,3.76,3.75,3.75
30.68,2.10,-1.64,2.10,-1.65,1.62,1.62,2.21,3.73,3.73,3.75
30.99,2.11,-1.63,2.13,-1.62,1.59,1.58,2.21,3.70,3.71,3.75
31.30,2.17,-1.57,2.17,-1.57,1.55,1.54,2.20,3.73,3.73,3.75
31.61,2.23,-1.51,2.23,-1.51,1.52,1.50,2.20,3.75,3.75,3.74
31.93,2.30,-1.44,2.29,-1.45,1.48,1.46,2.18,3.78,3.77,3.74
32.24,2.33,-1.40,2.33,-1.41,1.43,1.42,2.17,3.77,3.76,3.73
32.57,2.35,-1.39,2.36,-1.38,1.38,1.37,2.15,3.73,3.73,3.74
32.89,2.37,-1.36,2.38,-1.35,1.33,1.33,2.12,3.70,3.71,3.74
33.22,2.42,-1.30,2.43,-1.30,1.27,1.29,2.09,3.70,3.70,3.73
33.55,2.50,-1.23,2.49,-1.23,1.22,1.25,2.06,3.72,3.72,3.73
33.89,2.56,-1.15,2.56,-1.16,1.18,1.21,2.02,3.74,3.73,3.71
34.23,2.61,-1.11,2.61,-1.11,1.13,1.17,1.98,3.74,3.74,3.72
34.57,2.64,-1.07,2.65,-1.06,1.08,1.13,1.94,3.72,3.73,3.71
34.92,2.68,-1.03,2.68,-1.03,1.03,1.09,1.90,3.71,3.71,3.71
35.27,2.71,-0.99,2.72,-0.99,0.99,1.05,1.85,3.70,3.70,3.71
35.62,2.75,-0.95,2.75,-0.96,0.95,1.01,1.80,3.70,3.70,3.71
35.97,2.78,-0.92,2.79,-0.92,0.91,0.97,1.75,3.70,3.70,3.70
36.33,2.82,-0.89,2.83,-0.88,0.88,0.93,1.70,3.70,3.70,3.71
36.70,2.86,-0.83,2.86,-0.84,0.84,0.89,1.64,3.71,3.70,3.70
37.06,2.90,-0.79,2.90,-0.80,0.81,0.85,1.59,3.71,3.71,3.70
37.43,2.93,-0.78,2.94,-0.77,0.77,0.81,1.53,3.70,3.71,3.71
37.81,2.97,-0.74,2.97,-0.73,0.73,0.77,1.47,3.71,3.71,3.71
38.19,3.01,-0.69,3.01,-0.70,0.70,0.73,1.41,3.71,3.71,3.71
38.57,3.05,-0.66,3.05,-0.66,0.66,0.69,1.36,3.72,3.72,3.72
38.95,3.09,-0.63,3.09,-0.63,0.63,0.65,1.30,3.72,3.72,3.72
39.34,3.12,-0.60,3.13,-0.59,0.59,0.61,1.24,3.71,3.72,3.72
39.74,3.16,-0.55,3.16,-0.56,0.55,0.57,1.18,3.71,3.71,3.72
40.14,3.20,-0.52,3.20,-0.52,0.51,0.53,1.12,3.71,3.71,3.72
40.54,3.24,-0.48,3.24,-0.48,0.47,0.49,1.06,3.71,3.72,3.72
40.94,3.28,-0.43,3.29,-0.43,0.44,0.45,1.00,3.72,3.73,3.72
41.35,3.33,-0.38,3.33,-0.38,0.40,0.41,0.94,3.74,3.74,3.71
41.76,3.37,-0.33,3.37,-0.34,0.37,0.37,0.88,3.74,3.74,3.71
42.18,3.39,-0.32,3.38,-0.32,0.33,0.33,0.83,3.72,3.71,3.72
42.60,3.39,-0.31,3.39,-0.31,0.28,0.29,0.77,3.68,3.68,3.70
43.03,3.39,-0.30,3.42,-0.28,0.24,0.25,0.71,3.64,3.66,3.70
43.46,3.46,-0.23,3.46,-0.22,0.21,0.21,0.66,3.67,3.67,3.69
43.90,3.52,-0.14,3.51,-0.16,0.17,0.17,0.60,3.69,3.68,3.67
44.33,3.56,-0.09,3.56,-0.09,0.13,0.13,0.54,3.69,3.69,3.65
44.78,3.58,-0.05,3.58,-0.06,0.08,0.10,0.49,3.67,3.67,3.64
45.23,3.59,-0.04,3.59,-0.04,0.04,0.06,0.43,3.63,3.63,3.63
45.68,3.59,-0.02,3.60,-0.02,0.00,0.02,0.38,3.60,3.60,3.62
46.13,3.60,0.00,3.62,0.02,-0.02,-0.02,0.33,3.58,3.60,3.60
46.60,3.66,0.06,3.66,0.06,-0.04,-0.06,0.27,3.62,3.62,3.61
47.06,3.70,0.11,3.69,0.09,-0.06,-0.10,0.22,3.64,3.62,3.59
47.53,3.69,0.11,3.70,0.11,-0.09,-0.14,0.17,3.60,3.61,3.59
48.01,3.69,0.11,3.68,0.10,-0.13,-0.18,0.12,3.57,3.56,3.59
48.49,3.68,0.11,3.68,0.11,-0.17,-0.22,0.07,3.51,3.51,3.57
48.97,3.67,0.12,3.72,0.17,-0.21,-0.26,0.02,3.46,3.51,3.56
49.46,3.78,0.25,3.79,0.25,-0.25,-0.30,-0.04,3.54,3.54,3.54
49.96,3.90,0.38,3.86,0.33,-0.29,-0.34,-0.09,3.62,3.57,3.52
50.46,3.90,0.38,3.91,0.39,-0.33,-0.38,-0.13,3.58,3.58,3.52
50.96,3.89,0.38,3.91,0.40,-0.37,-0.42,-0.18,3.52,3.53,3.52
51.47,3.89,0.40,3.89,0.39,-0.41,-0.46,-0.23,3.48,3.48,3.50
51.99,3.89,0.41,3.91,0.41,-0.45,-0.50,-0.28,3.45,3.46,3.49
52.51,3.93,0.44,3.93,0.45,-0.47,-0.54,-0.33,3.47,3.47,3.49
53.03,3.97,0.48,3.97,0.48,-0.49,-0.58,-0.38,3.49,3.48,3.49
53.56,3.99,0.51,3.99,0.51,-0.50,-0.63,-0.42,3.50,3.49,3.48
54.10,4.00,0.53,4.00,0.53,-0.51,-0.67,-0.47,3.49,3.49,3.47
54.64,3.99,0.53,4.00,0.54,-0.53,-0.71,-0.52,3.47,3.48,3.46
55.18,3.99,0.53,4.00,0.54,-0.54,-0.75,-0.56,3.46,3.46,3.46
55.74,3.99,0.54,3.98,0.53,-0.54,-0.79,-0.61,3.45,3.44,3.45
56.29,3.97,0.53,3.96,0.52,-0.53,-0.83,-0.65,3.44,3.43,3.45
56.86,3.92,0.49,3.95,0.51,-0.52,-0.87,-0.70,3.41,3.43,3.44
57.42,3.92,0.51,3.93,0.51,-0.49,-0.92,-0.74,3.43,3.44,3.42
58.00,3.93,0.52,3.92,0.50,-0.47,-0.96,-0.79,3.47,3.45,3.41
58.58,3.88,0.47,3.87,0.47,-0.44,-1.00,-0.83,3.45,3.44,3.41
59.16,3.81,0.42,3.79,0.39,-0.41,-1.04,-0.87,3.40,3.38,3.40
59.76,3.69,0.30,3.72,0.34,-0.38,-1.08,-0.92,3.30,3.34,3.38
60.35,3.65,0.31,3.68,0.33,-0.36,-1.13,-0.96,3.29,3.32,3.35
60.96,3.69,0.37,3.65,0.33,-0.34,-1.17,-1.00,3.35,3.31,3.33
61.57,3.63,0.34,3.63,0.34,-0.33,-1.21,-1.04,3.31,3.30,3.29
62.18,3.57,0.32,3.58,0.33,-0.32,-1.26,-1.08,3.26,3.27,3.25
62.80,3.52,0.31,3.54,0.33,-0.31,-1.30,-1.12,3.21,3.23,3.22
63.43,3.51,0.33,3.52,0.34,-0.31,-1.35,-1.16,3.20,3.21,3.18
64.07,3.52,0.38,3.49,0.34,-0.31,-1.39,-1.20,3.21,3.17,3.15
64.71,3.43,0.33,3.44,0.33,-0.32,-1.43,-1.24,3.11,3.12,3.11
65.35,3.38,0.30,3.40,0.32,-0.34,-1.48,-1.28,3.04,3.05,3.08
66.01,3.36,0.32,3.37,0.33,-0.38,-1.52,-1.32,2.99,2.99,3.04
66.67,3.39,0.39,3.40,0.40,-0.43,-1.57,-1.36,2.96,2.97,3.00
67.33,3.45,0.49,3.45,0.48,-0.50,-1.61,-1.39,2.95,2.95,2.96
68.01,3.52,0.59,3.51,0.58,-0.58,-1.66,-1.43,2.94,2.93,2.93
68.69,3.57,0.68,3.59,0.70,-0.68,-1.71,-1.47,2.89,2.91,2.89
69.37,3.66,0.80,3.67,0.82,-0.79,-1.75,-1.51,2.87,2.88,2.85
70.07,3.77,0.97,3.75,0.94,-0.91,-1.80,-1.55,2.86,2.84,2.81
70.77,3.82,1.05,3.83,1.05,-1.04,-1.85,-1.59,2.78,2.79,2.78
71.48,3.88,1.15,3.89,1.16,-1.17,-1.89,-1.63,2.71,2.71,2.73
72.19,3.95,1.28,3.95,1.27,-1.31,-1.94,-1.68,2.65,2.65,2.68
72.91,4.03,1.39,4.05,1.41,-1.44,-1.99,-1.72,2.59,2.61,2.64
73.64,4.17,1.58,4.17,1.58,-1.58,-2.04,-1.76,2.60,2.60,2.59
74.38,4.30,1.76,4.29,1.74,-1.71,-2.08,-1.81,2.59,2.57,2.55
75.12,4.40,1.91,4.39,1.89,-1.86,-2.13,-1.85,2.55,2.53,2.50
75.87,4.44,1.99,4.46,2.01,-2.00,-2.18,-1.90,2.44,2.46,2.45
76.63,4.53,2.12,4.54,2.12,-2.14,-2.23,-1.95,2.39,2.39,2.42
77.40,4.62,2.25,4.63,2.25,-2.28,-2.28,-2.00,2.34,2.34,2.38
78.17,4.73,2.41,4.75,2.41,-2.41,-2.33,-2.05,2.32,2.33,2.33
78.95,4.87,2.55,4.86,2.55,-2.54,-2.38,-2.10,2.33,2.32,2.31
79.74,4.97,2.70,4.95,2.68,-2.66,-2.43,-2.15,2.32,2.29,2.27
80.54,5.01,2.77,5.03,2.79,-2.78,-2.48,-2.21,2.24,2.25,2.24
81.35,5.07,2.87,5.10,2.90,-2.90,-2.53,-2.27,2.18,2.21,2.20
82.16,5.19,3.03,5.17,3.00,-3.01,-2.58,-2.33,2.19,2.16,2.17
82.98,5.25,3.11,5.25,3.11,-3.12,-2.63,-2.39,2.14,2.13,2.15
83.81,5.30,3.20,5.31,3.21,-3.21,-2.68,-2.45,2.09,2.10,2.10
84.65,5.37,3.30,5.38,3.30,-3.31,-2.74,-2.52,2.06,2.07,2.07
85.50,5.45,3.41,5.46,3.42,-3.41,-2.79,-2.58,2.05,2.05,2.05
86.35,5.54,3.53,5.53,3.52,-3.50,-2.84,-2.65,2.04,2.03,2.01
87.22,5.60,3.62,5.58,3.60,-3.60,-2.89,-2.72,2.00,1.98,1.98
88.09,5.60,3.66,5.62,3.68,-3.69,-2.95,-2.80,1.91,1.93,1.95
88.97,5.63,3.72,5.67,3.77,-3.78,-3.00,-2.87,1.86,1.90,1.91
89.86,5.76,3.89,5.73,3.86,-3.86,-3.05,-2.95,1.90,1.87,1.87
90.76,5.80,3.97,5.79,3.95,-3.94,-3.11,-3.03,1.87,1.85,1.84
91.66,5.81,4.00,5.83,4.02,-4.01,-3.16,-3.11,1.81,1.82,1.81
92.58,5.83,4.07,5.85,4.08,-4.07,-3.21,-3.20,1.76,1.78,1.76
93.51,5.88,4.15,5.88,4.14,-4.13,-3.27,-3.28,1.75,1.74,1.74
94.44,5.91,4.20,5.90,4.20,-4.19,-3.32,-3.37,1.72,1.71,1.71
95.39,5.91,4.23,5.91,4.24,-4.24,-3.38,-3.46,1.67,1.67,1.68
96.34,5.91,4.27,5.91,4.27,-4.29,-3.43,-3.55,1.63,1.63,1.64
97.30,5.91,4.30,5.93,4.31,-4.33,-3.49,-3.65,1.59,1.60,1.61
98.28,5.94,4.36,5.95,4.36,-4.36,-3.54,-3.74,1.58,1.59,1.59
99.26,5.98,4.43,5.96,4.41,-4.40,-3.60,-3.84,1.59,1.57,1.56
100.25,5.96,4.44,5.97,4.44,-4.42,-3.66,-3.94,1.54,1.54,1.53
101.25,5.94,4.45,5.95,4.46,-4.44,-3.71,-4.03,1.50,1.51,1.50
102.27,5.93,4.46,5.94,4.47,-4.46,-3.77,-4.13,1.47,1.47,1.47
103.29,5.92,4.49,5.92,4.48,-4.48,-3.82,-4.23,1.45,1.44,1.43
104.32,5.90,4.49,5.90,4.49,-4.49,-3.88,-4.33,1.41,1.41,1.41
105.37,5.87,4.49,5.87,4.49,-4.51,-3.94,-4.43,1.36,1.36,1.38
106.42,5.85,4.50,5.85,4.50,-4.53,-3.99,-4.53,1.32,1.32,1.35
107.48,5.83,4.52,5.85,4.54,-4.55,-4.05,-4.63,1.28,1.30,1.31
108.56,5.86,4.59,5.86,4.59,-4.58,-4.11,-4.73,1.29,1.28,1.27
109.64,5.88,4.64,5.87,4.62,-4.61,-4.16,-4.83,1.28,1.26,1.24
110.74,5.86,4.66,5.87,4.66,-4.64,-4.22,-4.92,1.23,1.23,1.21
111.85,5.84,4.66,5.85,4.67,-4.67,-4.28,-5.01,1.17,1.18,1.19
112.97,5.83,4.70,5.84,4.69,-4.70,-4.33,-5.10,1.13,1.13,1.14
114.10,5.83,4.73,5.83,4.72,-4.73,-4.39,-5.18,1.10,1.10,1.11
115.24,5.83,4.75,5.83,4.76,-4.76,-4.45,-5.26,1.08,1.07,1.08
116.39,5.83,4.79,5.83,4.79,-4.78,-4.50,-5.34,1.05,1.05,1.04
117.55,5.83,4.81,5.84,4.81,-4.81,-4.56,-5.41,1.02,1.03,1.03
118.73,5.84,4.85,5.84,4.84,-4.84,-4.61,-5.47,1.01,1.00,1.00
119.92,5.84,4.85,5.85,4.86,-4.86,-4.67,-5.53,0.98,0.98,0.99
121.12,5.85,4.89,5.86,4.89,-4.89,-4.73,-5.58,0.97,0.97,0.96
122.33,5.86,4.92,5.86,4.91,-4.91,-4.78,-5.63,0.95,0.95,0.95
123.55,5.87,4.93,5.87,4.93,-4.93,-4.84,-5.66,0.95,0.94,0.94
124.79,5.87,4.95,5.88,4.95,-4.95,-4.89,-5.70,0.93,0.93,0.93
126.03,5.88,4.97,5.89,4.97,-4.97,-4.94,-5.72,0.92,0.92,0.91
127.29,5.89,4.99,5.88,4.98,-4.99,-5.00,-5.74,0.91,0.90,0.91
128.57,5.88,5.00,5.88,4.99,-5.01,-5.05,-5.75,0.88,0.87,0.88
129.85,5.85,4.99,5.88,5.01,-5.03,-5.10,-5.76,0.83,0.86,0.87
131.15,5.90,5.05,5.89,5.03,-5.05,-5.16,-5.76,0.86,0.84,0.86
132.46,5.91,5.07,5.91,5.06,-5.06,-5.21,-5.75,0.85,0.85,0.84
133.79,5.91,5.08,5.93,5.10,-5.07,-5.26,-5.74,0.84,0.85,0.83
135.12,5.92,5.11,5.92,5.10,-5.08,-5.31,-5.72,0.84,0.84,0.81
136.48,5.92,5.11,5.91,5.10,-5.09,-5.36,-5.70,0.83,0.81,0.81
137.84,5.87,5.09,5.88,5.09,-5.10,-5.41,-5.68,0.78,0.78,0.79
139.22,5.84,5.07,5.85,5.08,-5.09,-5.46,-5.65,0.75,0.76,0.77
140.61,5.82,5.07,5.83,5.08,-5.08,-5.51,-5.62,0.74,0.75,0.75
142.02,5.83,5.08,5.83,5.09,-5.07,-5.56,-5.58,0.76,0.76,0.75
143.44,5.83,5.10,5.82,5.09,-5.06,-5.60,-5.55,0.77,0.76,0.73
144.87,5.80,5.10,5.79,5.08,-5.06,-5.65,-5.51,0.74,0.73,0.71
146.32,5.74,5.06,5.76,5.07,-5.08,-5.69,-5.48,0.66,0.67,0.68
147.78,5.72,5.06,5.73,5.07,-5.11,-5.74,-5.44,0.61,0.61,0.66
149.26,5.72,5.10,5.73,5.11,-5.16,-5.78,-5.40,0.56,0.57,0.63
150.75,5.76,5.19,5.76,5.19,-5.23,-5.82,-5.37,0.54,0.54,0.57
152.26,5.81,5.30,5.81,5.29,-5.30,-5.86,-5.33,0.51,0.51,0.52
153.78,5.85,5.39,5.86,5.40,-5.38,-5.90,-5.30,0.47,0.48,0.46
155.32,5.90,5.50,5.90,5.50,-5.47,-5.94,-5.27,0.44,0.44,0.40
156.88,5.93,5.60,5.93,5.59,-5.54,-5.98,-5.24,0.39,0.39,0.34
158.44,5.93,5.67,5.93,5.66,-5.61,-6.01,-5.21,0.32,0.31,0.27
160.03,5.90,5.71,5.90,5.70,-5.67,-6.05,-5.19,0.23,0.22,0.20
161.63,5.84,5.71,5.86,5.72,-5.73,-6.08,-5.16,0.12,0.13,0.13
163.24,5.82,5.74,5.83,5.74,-5.78,-6.11,-5.15,0.05,0.05,0.08
164.88,5.82,5.78,5.82,5.78,-5.83,-6.14,-5.13,-0.01,-0.01,0.04
166.53,5.84,5.84,5.85,5.84,-5.89,-6.17,-5.12,-0.05,-0.04,0.01
168.19,5.89,5.92,5.90,5.92,-5.95,-6.20,-5.11,-0.06,-0.05,-0.02
169.87,5.95,6.01,5.97,6.02,-6.01,-6.23,-5.11,-0.05,-0.04,-0.05
171.57,6.05,6.11,6.03,6.09,-6.05,-6.25,-5.11,0.00,-0.02,-0.06
173.29,6.08,6.15,6.08,6.14,-6.09,-6.27,-5.11,-0.00,-0.01,-0.07
175.02,6.09,6.16,6.10,6.17,-6.11,-6.30,-5.12,-0.02,-0.01,-0.06
176.77,6.08,6.15,6.09,6.16,-6.12,-6.31,-5.13,-0.04,-0.03,-0.07
178.54,6.08,6.15,6.06,6.12,-6.13,-6.33,-5.15,-0.04,-0.07,-0.06
180.32,6.02,6.07,6.03,6.08,-6.12,-6.35,-5.17,-0.10,-0.10,-0.05
182.13,5.99,6.03,6.02,6.06,-6.12,-6.36,-5.19,-0.13,-0.10,-0.03
183.95,6.03,6.07,6.04,6.08,-6.12,-6.38,-5.22,-0.09,-0.08,-0.04
185.79,6.10,6.14,6.09,6.12,-6.13,-6.39,-5.25,-0.03,-0.05,-0.03
187.65,6.13,6.18,6.13,6.17,-6.15,-6.40,-5.28,-0.02,-0.02,-0.05
189.52,6.14,6.19,6.15,6.20,-6.17,-6.41,-5.32,-0.03,-0.02,-0.05
191.42,6.15,6.22,6.16,6.22,-6.20,-6.41,-5.36,-0.05,-0.04,-0.06
193.33,6.17,6.25,6.16,6.23,-6.22,-6.42,-5.41,-0.05,-0.07,-0.07
195.27,6.14,6.23,6.14,6.23,-6.23,-6.42,-5.46,-0.09,-0.09,-0.08
197.22,6.11,6.21,6.13,6.23,-6.23,-6.42,-5.51,-0.12,-0.10,-0.10
199.19,6.11,6.23,6.12,6.23,-6.22,-6.42,-5.56,-0.11,-0.10,-0.12
201.18,6.11,6.24,6.10,6.23,-6.20,-6.42,-5.62,-0.09,-0.11,-0.13
203.19,6.06,6.20,6.06,6.20,-6.19,-6.41,-5.68,-0.12,-0.13,-0.14
205.23,6.00,6.16,6.01,6.16,-6.17,-6.41,-5.74,-0.17,-0.17,-0.16
207.28,5.94,6.10,5.96,6.12,-6.16,-6.40,-5.80,-0.21,-0.20,-0.16
209.35,5.92,6.10,5.93,6.11,-6.14,-6.39,-5.86,-0.21,-0.21,-0.18
211.44,5.92,6.13,5.93,6.12,-6.12,-6.38,-5.93,-0.20,-0.19,-0.21
213.56,5.92,6.13,5.92,6.12,-6.10,-6.37,-5.99,-0.18,-0.18,-0.20
215.69,5.91,6.13,5.88,6.10,-6.08,-6.35,-6.05,-0.17,-0.20,-0.21
217.85,5.81,6.03,5.85,6.07,-6.06,-6.34,-6.12,-0.25,-0.21,-0.22
220.03,5.79,6.02,5.81,6.04,-6.04,-6.32,-6.18,-0.24,-0.23,-0.23
222.23,5.80,6.05,5.76,5.99,-6.01,-6.30,-6.24,-0.21,-0.25,-0.25
224.45,5.71,5.95,5.74,5.97,-5.97,-6.28,-6.29,-0.26,-0.24,-0.23
226.70,5.67,5.90,5.71,5.94,-5.93,-6.26,-6.35,-0.26,-0.22,-0.23
228.96,5.71,5.93,5.68,5.89,-5.89,-6.24,-6.39,-0.17,-0.21,-0.22
231.25,5.65,5.86,5.65,5.85,-5.84,-6.22,-6.44,-0.19,-0.19,-0.20
233.57,5.61,5.80,5.62,5.81,-5.80,-6.19,-6.48,-0.18,-0.18,-0.19
235.90,5.54,5.72,5.57,5.74,-5.75,-6.16,-6.51,-0.21,-0.18,-0.17
238.26,5.55,5.71,5.53,5.68,-5.70,-6.14,-6.54,-0.15,-0.18,-0.16
240.64,5.50,5.64,5.52,5.65,-5.66,-6.11,-6.56,-0.15,-0.14,-0.14
243.05,5.48,5.59,5.51,5.62,-5.61,-6.08,-6.57,-0.13,-0.10,-0.10
245.48,5.54,5.62,5.50,5.57,-5.57,-6.05,-6.57,-0.02,-0.07,-0.08
247.93,5.48,5.53,5.49,5.54,-5.53,-6.02,-6.57,-0.05,-0.04,-0.04
250.41,5.46,5.49,5.48,5.50,-5.50,-5.98,-6.56,-0.04,-0.02,-0.03
252.92,5.46,5.45,5.46,5.45,-5.48,-5.95,-6.54,-0.01,-0.01,0.01
255.45,5.47,5.44,5.47,5.44,-5.45,-5.91,-6.52,0.02,0.02,0.03
258.00,5.48,5.42,5.48,5.42,-5.43,-5.88,-6.48,0.05,0.05,0.06
260.58,5.49,5.42,5.49,5.41,-5.41,-5.84,-6.44,0.09,0.08,0.08
263.19,5.49,5.38,5.49,5.39,-5.38,-5.81,-6.39,0.11,0.11,0.11
265.82,5.49,5.37,5.49,5.36,-5.35,-5.77,-6.33,0.14,0.14,0.13
268.48,5.48,5.33,5.50,5.34,-5.31,-5.73,-6.27,0.17,0.19,0.16
271.16,5.48,5.29,5.48,5.30,-5.27,-5.69,-6.20,0.22,0.22,0.19
273.87,5.48,5.28,5.44,5.23,-5.21,-5.65,-6.13,0.27,0.23,0.21
276.61,5.37,5.13,5.40,5.16,-5.16,-5.62,-6.05,0.21,0.24,0.25
279.38,5.33,5.06,5.37,5.10,-5.11,-5.58,-5.97,0.23,0.26,0.27
282.17,5.37,5.08,5.34,5.04,-5.07,-5.54,-5.88,0.31,0.28,0.30
284.99,5.35,5.02,5.33,5.00,-5.04,-5.50,-5.79,0.32,0.30,0.34
287.84,5.33,4.98,5.36,5.00,-5.01,-5.46,-5.70,0.32,0.34,0.35
290.72,5.34,4.95,5.39,5.00,-5.01,-5.42,-5.61,0.33,0.38,0.39
293.63,5.49,5.08,5.43,5.01,-5.02,-5.38,-5.51,0.48,0.41,0.42
296.57,5.49,5.04,5.50,5.05,-5.03,-5.34,-5.42,0.47,0.47,0.46
299.53,5.50,5.02,5.56,5.08,-5.05,-5.30,-5.32,0.46,0.51,0.48
302.53,5.63,5.13,5.58,5.07,-5.07,-5.26,-5.23,0.56,0.51,0.50
305.55,5.64,5.10,5.64,5.10,-5.10,-5.22,-5.13,0.55,0.55,0.55
308.61,5.65,5.09,5.70,5.13,-5.13,-5.18,-5.04,0.52,0.57,0.57
311.69,5.77,5.18,5.73,5.13,-5.16,-5.14,-4.95,0.61,0.56,0.59
314.81,5.78,5.16,5.78,5.17,-5.20,-5.10,-4.86,0.59,0.59,0.62
317.96,5.80,5.16,5.86,5.22,-5.22,-5.06,-4.77,0.58,0.63,0.64
321.14,5.94,5.30,5.92,5.26,-5.25,-5.03,-4.69,0.69,0.66,0.65
324.35,5.99,5.33,5.97,5.31,-5.28,-4.99,-4.60,0.72,0.69,0.67
327.59,5.99,5.31,6.00,5.32,-5.29,-4.95,-4.52,0.70,0.71,0.69
330.87,5.98,5.29,5.99,5.30,-5.29,-4.92,-4.44,0.69,0.70,0.69
334.18,5.98,5.27,5.99,5.28,-5.28,-4.88,-4.37,0.70,0.71,0.71
337.52,5.98,5.26,5.99,5.27,-5.25,-4.85,-4.29,0.73,0.74,0.72
340.90,5.98,5.25,5.97,5.23,-5.22,-4.82,-4.22,0.77,0.75,0.74
344.30,5.93,5.19,5.92,5.17,-5.17,-4.78,-4.16,0.76,0.74,0.75
347.75,5.83,5.09,5.86,5.11,-5.12,-4.75,-4.09,0.71,0.74,0.75
351.23,5.78,5.03,5.80,5.05,-5.06,-4.72,-4.03,0.72,0.74,0.76
354.74,5.78,5.03,5.77,5.01,-5.01,-4.69,-3.98,0.78,0.76,0.75
358.28,5.74,4.98,5.74,4.98,-4.95,-4.67,-3.92,0.79,0.79,0.76
361.87,5.69,4.93,5.69,4.92,-4.90,-4.64,-3.87,0.79,0.78,0.76
365.49,5.61,4.84,5.61,4.85,-4.87,-4.61,-3.82,0.75,0.75,0.77
369.14,5.55,4.79,5.55,4.79,-4.84,-4.59,-3.78,0.72,0.71,0.76
372.83,5.50,4.75,5.54,4.78,-4.82,-4.57,-3.73,0.69,0.72,0.76
376.56,5.54,4.79,5.55,4.79,-4.80,-4.54,-3.69,0.74,0.75,0.76
380.33,5.62,4.86,5.56,4.79,-4.79,-4.52,-3.66,0.84,0.77,0.77
384.13,5.52,4.76,5.56,4.80,-4.77,-4.51,-3.62,0.76,0.79,0.77
387.97,5.51,4.76,5.54,4.78,-4.74,-4.49,-3.59,0.77,0.79,0.76
391.85,5.52,4.78,5.49,4.74,-4.72,-4.47,-3.56,0.81,0.78,0.74
395.77,5.46,4.71,5.47,4.72,-4.68,-4.45,-3.53,0.78,0.79,0.75
399.73,5.39,4.65,5.40,4.65,-4.64,-4.44,-3.51,0.75,0.75,0.74
403.72,5.33,4.59,5.30,4.56,-4.60,-4.43,-3.49,0.73,0.69,0.74
407.76,5.20,4.47,5.24,4.51,-4.56,-4.41,-3.46,0.64,0.68,0.73
411.84,5.17,4.44,5.23,4.50,-4.52,-4.40,-3.44,0.65,0.70,0.73
415.96,5.27,4.54,5.22,4.49,-4.49,-4.39,-3.43,0.78,0.73,0.73
420.12,5.26,4.53,5.22,4.49,-4.47,-4.37,-3.41,0.79,0.75,0.73
424.32,5.15,4.43,5.20,4.47,-4.45,-4.36,-3.39,0.71,0.76,0.73
428.56,5.14,4.41,5.15,4.42,-4.42,-4.35,-3.38,0.72,0.73,0.74
432.85,5.16,4.42,5.13,4.38,-4.39,-4.33,-3.36,0.78,0.74,0.75
437.18,5.10,4.35,5.14,4.37,-4.34,-4.31,-3.35,0.76,0.80,0.76
441.55,5.11,4.32,5.12,4.33,-4.29,-4.29,-3.33,0.82,0.83,0.80
445.96,5.14,4.32,5.08,4.26,-4.24,-4.27,-3.32,0.90,0.84,0.83
450.42,5.00,4.15,5.02,4.16,-4.20,-4.25,-3.30,0.81,0.82,0.86
454.93,4.96,4.06,4.98,4.08,-4.15,-4.22,-3.29,0.81,0.83,0.91
459.48,4.94,3.99,5.01,4.05,-4.10,-4.19,-3.27,0.84,0.91,0.95
464.07,5.09,4.09,5.06,4.06,-4.04,-4.15,-3.25,1.05,1.02,1.00
468.71,5.17,4.11,5.08,4.02,-3.97,-4.11,-3.23,1.20,1.11,1.06
473.40,5.01,3.91,5.08,3.97,-3.89,-4.07,-3.21,1.12,1.18,1.10
478.13,4.98,3.82,5.03,3.87,-3.81,-4.01,-3.19,1.17,1.22,1.16
482.91,4.99,3.79,4.94,3.74,-3.73,-3.96,-3.16,1.26,1.21,1.20
487.74,4.90,3.66,4.85,3.60,-3.64,-3.89,-3.13,1.26,1.21,1.24
492.62,4.70,3.41,4.79,3.50,-3.55,-3.82,-3.10,1.15,1.23,1.29
497.55,4.67,3.36,4.73,3.42,-3.47,-3.75,-3.07,1.21,1.26,1.31
502.52,4.81,3.47,4.68,3.34,-3.39,-3.66,-3.03,1.43,1.29,1.34
507.55,4.65,3.30,4.69,3.34,-3.31,-3.57,-2.99,1.34,1.37,1.35
512.62,4.57,3.21,4.66,3.30,-3.25,-3.48,-2.95,1.32,1.41,1.36
517.75,4.67,3.30,4.59,3.22,-3.20,-3.38,-2.91,1.48,1.39,1.37
522.93,4.54,3.18,4.53,3.17,-3.15,-3.27,-2.86,1.40,1.38,1.36
528.16,4.38,3.05,4.42,3.08,-3.09,-3.16,-2.81,1.29,1.32,1.33
533.44,4.27,2.97,4.28,2.97,-3.03,-3.05,-2.76,1.24,1.25,1.30
538.77,4.17,2.90,4.19,2.93,-2.96,-2.93,-2.71,1.22,1.24,1.27
544.16,4.12,2.90,4.13,2.90,-2.88,-2.81,-2.65,1.25,1.25,1.22
