frequency,raw,error,smoothed,error_smoothed,equalization,parametric_eq,fixed_band_eq,equalized_raw,equalized_smoothed,target
20.00,3.23,1.55,3.22,1.50,-1.50,-0.99,-0.59,1.73,1.71,1.68
20.20,3.19,1.46,3.18,1.43,-1.43,-0.99,-0.60,1.76,1.75,1.73
20.40,3.16,1.38,3.15,1.37,-1.37,-0.98,-0.62,1.79,1.79,1.78
20.61,3.12,1.31,3.12,1.30,-1.30,-0.97,-0.64,1.82,1.82,1.81
20.81,3.08,1.22,3.09,1.24,-1.24,-0.97,-0.65,1.84,1.85,1.86
21.02,3.05,1.15,3.06,1.19,-1.19,-0.96,-0.67,1.86,1.88,1.90
21.23,3.03,1.11,3.03,1.13,-1.13,-0.96,-0.69,1.90,1.90,1.92
21.44,3.01,1.07,3.01,1.09,-1.09,-0.95,-0.71,1.92,1.92,1.94
21.66,2.98,1.02,2.99,1.04,-1.04,-0.95,-0.73,1.94,1.94,1.96
21.87,2.96,0.99,2.96,1.00,-1.00,-0.95,-0.75,1.96,1.96,1.97
22.09,2.94,0.95,2.94,0.96,-0.96,-0.94,-0.77,1.98,1.98,1.99
22.31,2.92,0.92,2.92,0.93,-0.93,-0.94,-0.79,1.99,1.99,2.00
22.54,2.90,0.90,2.91,0.91,-0.91,-0.94,-0.81,1.99,2.00,2.00
22.76,2.87,0.87,2.89,0.89,-0.89,-0.93,-0.83,1.98,2.00,2.00
22.99,2.85,0.86,2.87,0.87,-0.87,-0.93,-0.85,1.98,2.00,1.99
23.22,2.85,0.86,2.86,0.85,-0.85,-0.93,-0.87,2.00,2.00,1.99
23.45,2.86,0.87,2.84,0.84,-0.84,-0.93,-0.90,2.02,2.01,1.99
23.69,2.86,0.86,2.83,0.82,-0.82,-0.93,-0.92,2.04,2.01,2.00
23.92,2.87,0.87,2.82,0.81,-0.81,-0.93,-0.95,2.06,2.01,2.00
24.16,2.85,0.84,2.81,0.80,-0.80,-0.93,-0.97,2.05,2.01,2.01
24.40,2.82,0.80,2.81,0.80,-0.80,-0.94,-0.99,2.02,2.01,2.02
24.65,2.79,0.78,2.81,0.80,-0.80,-0.94,-1.02,1.99,2.01,2.01
24.89,2.75,0.74,2.81,0.80,-0.80,-0.94,-1.04,1.95,2.01,2.01
25.14,2.76,0.75,2.82,0.81,-0.81,-0.95,-1.07,1.95,2.01,2.01
25.39,2.78,0.76,2.82,0.81,-0.81,-0.95,-1.10,1.97,2.01,2.02
25.65,2.81,0.79,2.83,0.82,-0.82,-0.95,-1.12,1.99,2.01,2.02
25.91,2.84,0.83,2.84,0.83,-0.83,-0.96,-1.15,2.01,2.01,2.01
26.16,2.87,0.87,2.85,0.84,-0.84,-0.97,-1.17,2.03,2.01,2.00
26.43,2.89,0.89,2.86,0.85,-0.85,-0.97,-1.20,2.04,2.01,2.00
26.69,2.92,0.92,2.88,0.87,-0.87,-0.98,-1.22,2.05,2.01,2.00
26.96,2.95,0.94,2.90,0.90,-0.90,-0.99,-1.25,2.05,2.00,2.01
27.23,2.95,0.94,2.92,0.92,-0.92,-0.99,-1.27,2.03,2.00,2.01
27.50,2.94,0.93,2.94,0.94,-0.94,-1.00,-1.29,2.00,2.00,2.01
27.77,2.93,0.93,2.96,0.96,-0.96,-1.01,-1.32,1.97,2.00,2.00
28.05,2.94,0.94,2.97,0.97,-0.97,-1.02,-1.34,1.97,2.00,2.00
28.33,2.97,0.98,2.99,0.99,-0.99,-1.03,-1.36,1.98,2.00,1.99
28.62,3.00,1.01,3.01,1.01,-1.01,-1.04,-1.38,1.99,2.00,1.99
28.90,3.04,1.04,3.03,1.03,-1.03,-1.06,-1.40,2.01,2.00,2.00
29.19,3.06,1.07,3.05,1.05,-1.05,-1.07,-1.42,2.01,2.00,1.99
29.48,3.07,1.06,3.07,1.07,-1.07,-1.08,-1.43,2.00,2.00,2.01
29.78,3.08,1.09,3.09,1.10,-1.10,-1.10,-1.45,1.98,1.99,1.99
30.08,3.10,1.10,3.12,1.12,-1.12,-1.11,-1.46,1.98,1.99,2.00
30.38,3.15,1.16,3.14,1.15,-1.15,-1.13,-1.47,2.00,1.99,1.99
30.68,3.19,1.20,3.17,1.18,-1.18,-1.14,-1.48,2.01,1.99,1.99
30.99,3.24,1.25,3.20,1.21,-1.21,-1.16,-1.49,2.03,1.99,1.99
31.30,3.24,1.25,3.23,1.24,-1.24,-1.18,-1.50,2.00,1.99,1.99
31.61,3.24,1.25,3.25,1.27,-1.27,-1.19,-1.50,1.97,1.99,1.99
31.93,3.24,1.25,3.28,1.29,-1.29,-1.21,-1.51,1.95,1.99,1.99
32.24,3.27,1.30,3.30,1.32,-1.32,-1.23,-1.51,1.95,1.98,1.98
32.57,3.32,1.34,3.32,1.34,-1.34,-1.25,-1.51,1.98,1.98,1.98
32.89,3.37,1.39,3.35,1.37,-1.37,-1.27,-1.51,2.00,1.97,1.98
33.22,3.39,1.42,3.37,1.40,-1.40,-1.29,-1.51,1.99,1.97,1.97
33.55,3.41,1.44,3.39,1.42,-1.42,-1.31,-1.51,1.99,1.97,1.97
33.89,3.42,1.46,3.40,1.44,-1.44,-1.33,-1.50,1.98,1.96,1.96
34.23,3.43,1.46,3.42,1.46,-1.46,-1.35,-1.50,1.97,1.96,1.97
34.57,3.43,1.48,3.44,1.48,-1.48,-1.38,-1.49,1.95,1.96,1.95
34.92,3.43,1.48,3.46,1.51,-1.51,-1.40,-1.49,1.92,1.95,1.95
35.27,3.46,1.51,3.48,1.53,-1.53,-1.42,-1.48,1.93,1.95,1.95
35.62,3.49,1.54,3.50,1.55,-1.55,-1.45,-1.47,1.94,1.95,1.95
35.97,3.53,1.58,3.51,1.56,-1.56,-1.47,-1.46,1.97,1.95,1.95
36.33,3.53,1.58,3.52,1.58,-1.58,-1.49,-1.46,1.95,1.95,1.95
36.70,3.53,1.59,3.54,1.59,-1.59,-1.52,-1.45,1.94,1.95,1.94
37.06,3.54,1.60,3.56,1.61,-1.61,-1.54,-1.44,1.93,1.95,1.94
37.43,3.57,1.61,3.58,1.62,-1.62,-1.56,-1.43,1.95,1.95,1.96
37.81,3.61,1.66,3.59,1.64,-1.64,-1.59,-1.42,1.97,1.95,1.95
38.19,3.63,1.68,3.61,1.66,-1.66,-1.61,-1.42,1.97,1.96,1.95
38.57,3.63,1.67,3.63,1.67,-1.67,-1.63,-1.41,1.96,1.96,1.96
38.95,3.63,1.66,3.65,1.69,-1.69,-1.66,-1.40,1.94,1.96,1.97
39.34,3.65,1.69,3.66,1.70,-1.70,-1.68,-1.40,1.95,1.96,1.96
39.74,3.67,1.71,3.67,1.71,-1.71,-1.70,-1.39,1.96,1.96,1.96
40.14,3.69,1.72,3.68,1.72,-1.72,-1.72,-1.39,1.97,1.96,1.97
40.54,3.70,1.74,3.69,1.73,-1.73,-1.74,-1.39,1.97,1.96,1.96
40.94,3.72,1.76,3.70,1.74,-1.74,-1.76,-1.38,1.98,1.96,1.96
41.35,3.72,1.76,3.71,1.75,-1.75,-1.78,-1.38,1.97,1.96,1.96
41.76,3.72,1.77,3.71,1.76,-1.76,-1.80,-1.38,1.96,1.95,1.95
42.18,3.72,1.76,3.72,1.77,-1.77,-1.82,-1.38,1.95,1.95,1.96
42.60,3.72,1.78,3.72,1.78,-1.78,-1.83,-1.38,1.94,1.94,1.94
43.03,3.72,1.78,3.73,1.80,-1.80,-1.85,-1.39,1.92,1.93,1.94
43.46,3.72,1.78,3.73,1.81,-1.81,-1.86,-1.39,1.91,1.92,1.94
43.90,3.72,1.81,3.73,1.82,-1.82,-1.87,-1.40,1.90,1.91,1.91
44.33,3.72,1.82,3.73,1.83,-1.83,-1.88,-1.40,1.89,1.90,1.90
44.78,3.72,1.84,3.73,1.83,-1.83,-1.89,-1.41,1.89,1.89,1.88
45.23,3.72,1.84,3.72,1.84,-1.84,-1.89,-1.42,1.88,1.88,1.88
45.68,3.72,1.86,3.71,1.84,-1.84,-1.90,-1.43,1.88,1.87,1.86
46.13,3.72,1.87,3.70,1.84,-1.84,-1.90,-1.44,1.88,1.86,1.85
46.60,3.72,1.87,3.69,1.84,-1.84,-1.91,-1.45,1.88,1.85,1.85
47.06,3.71,1.88,3.68,1.84,-1.84,-1.91,-1.46,1.87,1.84,1.83
47.53,3.67,1.84,3.66,1.84,-1.84,-1.91,-1.47,1.83,1.82,1.83
48.01,3.62,1.79,3.65,1.83,-1.83,-1.91,-1.49,1.79,1.81,1.83
48.49,3.62,1.80,3.63,1.83,-1.83,-1.90,-1.50,1.79,1.80,1.82
48.97,3.63,1.83,3.61,1.82,-1.82,-1.90,-1.52,1.81,1.80,1.80
49.46,3.58,1.80,3.60,1.81,-1.81,-1.89,-1.53,1.77,1.79,1.78
49.96,3.53,1.77,3.58,1.80,-1.80,-1.89,-1.55,1.73,1.78,1.76
50.46,3.53,1.76,3.56,1.79,-1.79,-1.88,-1.57,1.74,1.77,1.77
50.96,3.53,1.77,3.54,1.78,-1.78,-1.87,-1.59,1.75,1.76,1.76
51.47,3.53,1.79,3.51,1.76,-1.76,-1.86,-1.61,1.77,1.75,1.74
51.99,3.53,1.80,3.49,1.75,-1.75,-1.85,-1.62,1.78,1.74,1.73
52.51,3.48,1.75,3.47,1.73,-1.73,-1.84,-1.64,1.75,1.73,1.73
53.03,3.44,1.71,3.44,1.72,-1.72,-1.83,-1.66,1.72,1.73,1.73
53.56,3.44,1.72,3.42,1.71,-1.71,-1.82,-1.68,1.73,1.72,1.72
54.10,3.43,1.72,3.40,1.69,-1.69,-1.80,-1.70,1.74,1.71,1.71
54.64,3.39,1.69,3.38,1.67,-1.67,-1.79,-1.72,1.72,1.71,1.70
55.18,3.34,1.64,3.35,1.65,-1.65,-1.78,-1.74,1.69,1.70,1.70
55.74,3.28,1.59,3.33,1.63,-1.63,-1.77,-1.76,1.65,1.70,1.69
56.29,3.25,1.56,3.30,1.61,-1.61,-1.75,-1.77,1.64,1.69,1.69
56.86,3.24,1.56,3.27,1.58,-1.58,-1.74,-1.79,1.66,1.68,1.68
57.42,3.24,1.58,3.24,1.56,-1.56,-1.73,-1.81,1.68,1.67,1.66
58.00,3.24,1.58,3.20,1.54,-1.54,-1.72,-1.82,1.70,1.66,1.66
58.58,3.22,1.57,3.17,1.52,-1.52,-1.70,-1.83,1.70,1.64,1.65
59.16,3.18,1.54,3.14,1.51,-1.51,-1.69,-1.84,1.67,1.63,1.64
59.76,3.09,1.46,3.10,1.50,-1.50,-1.68,-1.85,1.59,1.61,1.63
60.35,3.05,1.46,3.07,1.49,-1.49,-1.67,-1.86,1.56,1.58,1.59
60.96,3.05,1.48,3.04,1.48,-1.48,-1.66,-1.87,1.57,1.56,1.57
61.57,3.00,1.47,3.00,1.47,-1.47,-1.65,-1.87,1.53,1.53,1.53
62.18,2.95,1.45,2.97,1.47,-1.47,-1.64,-1.88,1.48,1.50,1.50
62.80,2.90,1.44,2.93,1.46,-1.46,-1.63,-1.88,1.44,1.47,1.46
63.43,2.87,1.44,2.89,1.46,-1.46,-1.62,-1.88,1.41,1.43,1.43
64.07,2.85,1.46,2.86,1.46,-1.46,-1.62,-1.87,1.39,1.40,1.39
64.71,2.85,1.50,2.82,1.46,-1.46,-1.61,-1.87,1.39,1.36,1.35
65.35,2.82,1.50,2.78,1.46,-1.46,-1.60,-1.86,1.36,1.32,1.32
66.01,2.76,1.48,2.75,1.46,-1.46,-1.60,-1.86,1.30,1.29,1.28
66.67,2.69,1.44,2.72,1.47,-1.47,-1.59,-1.85,1.22,1.25,1.25
67.33,2.66,1.45,2.68,1.47,-1.47,-1.59,-1.84,1.19,1.21,1.21
68.01,2.66,1.48,2.65,1.47,-1.47,-1.59,-1.82,1.19,1.17,1.18
68.69,2.63,1.50,2.62,1.48,-1.48,-1.58,-1.81,1.15,1.13,1.13
69.37,2.59,1.50,2.59,1.50,-1.50,-1.58,-1.80,1.09,1.09,1.09
70.07,2.55,1.50,2.56,1.51,-1.51,-1.58,-1.78,1.04,1.05,1.05
70.77,2.49,1.47,2.53,1.52,-1.52,-1.58,-1.77,0.97,1.01,1.02
71.48,2.47,1.49,2.50,1.53,-1.53,-1.58,-1.75,0.94,0.96,0.98
72.19,2.47,1.55,2.46,1.54,-1.54,-1.58,-1.73,0.93,0.92,0.92
72.91,2.47,1.59,2.43,1.56,-1.56,-1.58,-1.72,0.91,0.88,0.88
73.64,2.41,1.58,2.40,1.57,-1.57,-1.58,-1.70,0.84,0.83,0.83
74.38,2.37,1.58,2.37,1.58,-1.58,-1.59,-1.68,0.79,0.79,0.79
75.12,2.37,1.63,2.35,1.60,-1.60,-1.59,-1.67,0.77,0.75,0.74
75.87,2.37,1.67,2.32,1.61,-1.61,-1.59,-1.65,0.75,0.71,0.70
76.63,2.31,1.65,2.30,1.63,-1.63,-1.60,-1.63,0.68,0.66,0.66
77.40,2.25,1.63,2.28,1.65,-1.65,-1.60,-1.62,0.60,0.62,0.62
78.17,2.20,1.63,2.26,1.67,-1.67,-1.61,-1.60,0.53,0.59,0.57
78.95,2.18,1.63,2.23,1.68,-1.68,-1.62,-1.59,0.50,0.55,0.55
79.74,2.18,1.67,2.21,1.69,-1.69,-1.62,-1.58,0.49,0.51,0.51
80.54,2.18,1.70,2.18,1.70,-1.70,-1.63,-1.56,0.48,0.48,0.48
81.35,2.18,1.74,2.16,1.71,-1.71,-1.64,-1.55,0.47,0.45,0.44
82.16,2.18,1.77,2.14,1.73,-1.73,-1.65,-1.54,0.45,0.41,0.41
82.98,2.18,1.79,2.12,1.74,-1.74,-1.65,-1.53,0.44,0.38,0.39
83.81,2.13,1.78,2.10,1.75,-1.75,-1.66,-1.52,0.38,0.35,0.35
84.65,2.08,1.77,2.08,1.76,-1.76,-1.67,-1.52,0.32,0.32,0.31
85.50,2.03,1.74,2.06,1.78,-1.78,-1.68,-1.51,0.25,0.28,0.29
86.35,1.99,1.73,2.04,1.79,-1.79,-1.69,-1.50,0.20,0.25,0.26
87.22,1.99,1.77,2.02,1.80,-1.80,-1.70,-1.50,0.18,0.22,0.22
88.09,1.99,1.80,2.00,1.82,-1.82,-1.71,-1.50,0.17,0.18,0.19
88.97,1.99,1.84,1.98,1.83,-1.83,-1.71,-1.50,0.16,0.15,0.15
89.86,1.99,1.87,1.96,1.84,-1.84,-1.72,-1.50,0.15,0.12,0.12
90.76,1.92,1.84,1.93,1.85,-1.85,-1.73,-1.50,0.07,0.08,0.08
91.66,1.90,1.85,1.91,1.86,-1.86,-1.74,-1.50,0.04,0.05,0.05
92.58,1.90,1.89,1.88,1.87,-1.87,-1.75,-1.50,0.03,0.02,0.01
93.51,1.88,1.90,1.86,1.87,-1.87,-1.76,-1.51,0.01,-0.01,-0.02
94.44,1.83,1.88,1.83,1.88,-1.88,-1.77,-1.51,-0.05,-0.05,-0.05
95.39,1.80,1.88,1.80,1.88,-1.88,-1.77,-1.52,-0.08,-0.08,-0.08
96.34,1.80,1.91,1.77,1.88,-1.88,-1.78,-1.52,-0.08,-0.11,-0.11
97.30,1.76,1.90,1.73,1.87,-1.87,-1.79,-1.53,-0.11,-0.14,-0.14
98.28,1.68,1.85,1.69,1.86,-1.86,-1.79,-1.54,-0.18,-0.17,-0.17
99.26,1.63,1.83,1.65,1.84,-1.84,-1.80,-1.55,-0.21,-0.20,-0.20
100.25,1.56,1.79,1.60,1.83,-1.83,-1.80,-1.56,-0.27,-0.23,-0.23
101.25,1.54,1.80,1.56,1.82,-1.82,-1.81,-1.57,-0.28,-0.26,-0.26
102.27,1.51,1.80,1.51,1.79,-1.79,-1.81,-1.58,-0.28,-0.29,-0.29
103.29,1.45,1.78,1.45,1.77,-1.77,-1.81,-1.60,-0.32,-0.32,-0.33
104.32,1.40,1.75,1.40,1.75,-1.75,-1.82,-1.61,-0.35,-0.35,-0.35
105.37,1.37,1.75,1.35,1.73,-1.73,-1.82,-1.62,-0.36,-0.38,-0.38
106.42,1.34,1.74,1.29,1.71,-1.71,-1.82,-1.63,-0.37,-0.42,-0.40
107.48,1.26,1.70,1.24,1.68,-1.68,-1.82,-1.65,-0.42,-0.45,-0.44
108.56,1.18,1.66,1.18,1.67,-1.67,-1.82,-1.66,-0.49,-0.48,-0.48
109.64,1.10,1.61,1.14,1.65,-1.65,-1.82,-1.67,-0.55,-0.52,-0.51
110.74,1.07,1.62,1.09,1.63,-1.63,-1.81,-1.68,-0.56,-0.55,-0.55
111.85,1.01,1.58,1.03,1.62,-1.62,-1.81,-1.69,-0.61,-0.58,-0.57
112.97,0.94,1.56,0.98,1.60,-1.60,-1.80,-1.70,-0.66,-0.61,-0.62
114.10,0.94,1.59,0.94,1.58,-1.58,-1.80,-1.71,-0.64,-0.64,-0.65
115.24,0.92,1.60,0.89,1.56,-1.56,-1.79,-1.72,-0.64,-0.67,-0.68
116.39,0.84,1.55,0.84,1.54,-1.54,-1.78,-1.73,-0.70,-0.70,-0.71
117.55,0.77,1.50,0.79,1.52,-1.52,-1.77,-1.73,-0.75,-0.72,-0.73
118.73,0.75,1.51,0.75,1.50,-1.50,-1.76,-1.74,-0.75,-0.75,-0.76
119.92,0.76,1.53,0.71,1.48,-1.48,-1.75,-1.74,-0.72,-0.77,-0.77
121.12,0.70,1.49,0.67,1.46,-1.46,-1.74,-1.74,-0.76,-0.79,-0.79
122.33,0.62,1.43,0.63,1.44,-1.44,-1.73,-1.74,-0.82,-0.80,-0.81
123.55,0.59,1.40,0.60,1.42,-1.42,-1.72,-1.74,-0.83,-0.82,-0.82
124.79,0.59,1.42,0.56,1.39,-1.39,-1.70,-1.73,-0.80,-0.84,-0.83
126.03,0.50,1.35,0.52,1.37,-1.37,-1.69,-1.73,-0.87,-0.85,-0.85
127.29,0.45,1.30,0.48,1.34,-1.34,-1.67,-1.72,-0.89,-0.86,-0.85
128.57,0.42,1.29,0.45,1.32,-1.32,-1.65,-1.71,-0.90,-0.87,-0.87
129.85,0.43,1.32,0.42,1.31,-1.31,-1.64,-1.69,-0.88,-0.89,-0.89
131.15,0.40,1.30,0.40,1.30,-1.30,-1.62,-1.68,-0.90,-0.90,-0.90
132.46,0.36,1.27,0.37,1.28,-1.28,-1.60,-1.67,-0.92,-0.91,-0.91
133.79,0.35,1.28,0.35,1.27,-1.27,-1.58,-1.65,-0.92,-0.92,-0.93
135.12,0.34,1.29,0.32,1.26,-1.26,-1.56,-1.63,-0.92,-0.94,-0.95
136.48,0.28,1.23,0.30,1.25,-1.25,-1.54,-1.61,-0.97,-0.95,-0.95
137.84,0.26,1.23,0.28,1.24,-1.24,-1.52,-1.59,-0.98,-0.96,-0.97
139.22,0.26,1.25,0.26,1.23,-1.23,-1.50,-1.57,-0.97,-0.97,-0.99
140.61,0.27,1.28,0.24,1.23,-1.23,-1.48,-1.54,-0.96,-0.99,-1.01
142.02,0.27,1.28,0.23,1.23,-1.23,-1.46,-1.52,-0.96,-1.01,-1.01
143.44,0.20,1.22,0.20,1.23,-1.23,-1.44,-1.50,-1.03,-1.03,-1.02
144.87,0.17,1.22,0.18,1.24,-1.24,-1.42,-1.47,-1.07,-1.05,-1.05
146.32,0.14,1.22,0.16,1.25,-1.25,-1.39,-1.44,-1.11,-1.08,-1.08
147.78,0.08,1.17,0.13,1.25,-1.25,-1.37,-1.42,-1.17,-1.12,-1.09
149.26,0.07,1.20,0.10,1.26,-1.26,-1.35,-1.39,-1.19,-1.16,-1.13
150.75,0.07,1.25,0.06,1.27,-1.27,-1.33,-1.37,-1.20,-1.21,-1.18
152.26,0.07,1.31,0.02,1.28,-1.28,-1.30,-1.34,-1.21,-1.26,-1.24
153.78,0.06,1.35,-0.04,1.27,-1.27,-1.28,-1.31,-1.22,-1.31,-1.29
155.32,-0.05,1.31,-0.10,1.27,-1.27,-1.26,-1.29,-1.32,-1.37,-1.36
156.88,-0.12,1.30,-0.15,1.27,-1.27,-1.24,-1.26,-1.39,-1.43,-1.42
158.44,-0.16,1.33,-0.21,1.27,-1.27,-1.22,-1.24,-1.43,-1.49,-1.49
160.03,-0.23,1.33,-0.27,1.28,-1.28,-1.19,-1.21,-1.51,-1.54,-1.56
161.63,-0.36,1.26,-0.32,1.28,-1.28,-1.17,-1.19,-1.64,-1.60,-1.62
163.24,-0.43,1.24,-0.37,1.28,-1.28,-1.15,-1.17,-1.71,-1.65,-1.67
164.88,-0.46,1.25,-0.42,1.28,-1.28,-1.13,-1.14,-1.74,-1.69,-1.71
166.53,-0.54,1.21,-0.46,1.27,-1.27,-1.11,-1.12,-1.81,-1.73,-1.75
168.19,-0.60,1.18,-0.50,1.26,-1.26,-1.08,-1.10,-1.86,-1.76,-1.78
169.87,-0.59,1.22,-0.53,1.25,-1.25,-1.06,-1.08,-1.84,-1.79,-1.81
171.57,-0.54,1.28,-0.56,1.25,-1.25,-1.04,-1.06,-1.79,-1.80,-1.82
173.29,-0.54,1.28,-0.57,1.24,-1.24,-1.02,-1.04,-1.78,-1.81,-1.82
175.02,-0.55,1.27,-0.58,1.23,-1.23,-1.00,-1.02,-1.78,-1.82,-1.82
176.77,-0.55,1.28,-0.59,1.23,-1.23,-0.98,-1.01,-1.78,-1.82,-1.83
178.54,-0.55,1.27,-0.59,1.23,-1.23,-0.96,-0.99,-1.78,-1.82,-1.82
180.32,-0.55,1.26,-0.58,1.23,-1.23,-0.94,-0.98,-1.78,-1.82,-1.81
182.13,-0.54,1.25,-0.58,1.24,-1.24,-0.92,-0.96,-1.78,-1.81,-1.79
183.95,-0.58,1.22,-0.56,1.25,-1.25,-0.90,-0.95,-1.83,-1.81,-1.80
185.79,-0.62,1.17,-0.55,1.26,-1.26,-0.88,-0.93,-1.88,-1.81,-1.79
187.65,-0.60,1.20,-0.55,1.26,-1.26,-0.87,-0.92,-1.86,-1.81,-1.80
189.52,-0.59,1.22,-0.56,1.26,-1.26,-0.85,-0.91,-1.85,-1.82,-1.81
191.42,-0.58,1.24,-0.56,1.26,-1.26,-0.83,-0.90,-1.84,-1.82,-1.82
193.33,-0.56,1.27,-0.56,1.27,-1.27,-0.81,-0.89,-1.83,-1.83,-1.83
195.27,-0.54,1.30,-0.57,1.27,-1.27,-0.80,-0.88,-1.81,-1.84,-1.84
197.22,-0.53,1.32,-0.57,1.28,-1.28,-0.78,-0.87,-1.81,-1.85,-1.85
199.19,-0.52,1.35,-0.58,1.28,-1.28,-0.76,-0.86,-1.80,-1.87,-1.87
201.18,-0.52,1.36,-0.60,1.28,-1.28,-0.75,-0.85,-1.80,-1.88,-1.88
203.19,-0.60,1.29,-0.62,1.28,-1.28,-0.73,-0.84,-1.88,-1.90,-1.89
205.23,-0.68,1.23,-0.64,1.27,-1.27,-0.71,-0.83,-1.95,-1.91,-1.91
207.28,-0.70,1.21,-0.66,1.27,-1.27,-0.70,-0.83,-1.97,-1.93,-1.91
209.35,-0.70,1.23,-0.69,1.25,-1.25,-0.68,-0.82,-1.95,-1.94,-1.93
211.44,-0.70,1.26,-0.72,1.23,-1.23,-0.67,-0.81,-1.93,-1.95,-1.96
213.56,-0.75,1.21,-0.75,1.21,-1.21,-0.65,-0.80,-1.96,-1.96,-1.96
215.69,-0.80,1.17,-0.79,1.19,-1.19,-0.64,-0.80,-1.99,-1.97,-1.97
217.85,-0.81,1.17,-0.82,1.16,-1.16,-0.63,-0.79,-1.97,-1.98,-1.98
220.03,-0.88,1.10,-0.85,1.13,-1.13,-0.61,-0.79,-2.01,-1.98,-1.98
222.23,-0.91,1.09,-0.89,1.10,-1.10,-0.60,-0.78,-2.01,-1.98,-2.00
224.45,-0.91,1.08,-0.91,1.07,-1.07,-0.59,-0.77,-1.98,-1.98,-1.99
226.70,-0.91,1.08,-0.93,1.04,-1.04,-0.57,-0.76,-1.95,-1.98,-1.99
228.96,-0.91,1.06,-0.95,1.02,-1.02,-0.56,-0.76,-1.93,-1.97,-1.97
231.25,-0.98,0.98,-0.97,0.99,-0.99,-0.55,-0.75,-1.97,-1.96,-1.96
233.57,-0.99,0.96,-0.98,0.97,-0.97,-0.54,-0.74,-1.96,-1.94,-1.95
235.90,-1.00,0.93,-0.98,0.94,-0.94,-0.52,-0.73,-1.94,-1.93,-1.93
238.26,-1.04,0.88,-0.99,0.92,-0.92,-0.51,-0.72,-1.96,-1.91,-1.92
240.64,-1.04,0.85,-0.99,0.90,-0.90,-0.50,-0.71,-1.94,-1.88,-1.89
243.05,-1.03,0.83,-0.99,0.87,-0.87,-0.49,-0.70,-1.90,-1.86,-1.86
245.48,-1.01,0.82,-0.99,0.85,-0.85,-0.48,-0.69,-1.86,-1.84,-1.83
247.93,-0.98,0.82,-1.00,0.81,-0.81,-0.47,-0.67,-1.79,-1.81,-1.80
250.41,-0.96,0.82,-1.00,0.78,-0.78,-0.46,-0.66,-1.74,-1.78,-1.78
252.92,-0.94,0.81,-1.01,0.74,-0.74,-0.45,-0.65,-1.68,-1.76,-1.75
255.45,-0.95,0.77,-1.03,0.70,-0.70,-0.44,-0.63,-1.65,-1.73,-1.72
258.00,-1.00,0.70,-1.04,0.67,-0.67,-0.43,-0.61,-1.67,-1.70,-1.70
260.58,-1.05,0.63,-1.06,0.62,-0.62,-0.42,-0.60,-1.67,-1.68,-1.68
263.19,-1.10,0.54,-1.08,0.57,-0.57,-0.41,-0.58,-1.67,-1.65,-1.64
265.82,-1.11,0.52,-1.11,0.51,-0.51,-0.40,-0.56,-1.62,-1.62,-1.63
268.48,-1.16,0.44,-1.14,0.46,-0.46,-0.39,-0.54,-1.62,-1.60,-1.60
271.16,-1.20,0.37,-1.17,0.40,-0.40,-0.38,-0.52,-1.60,-1.57,-1.57
273.87,-1.21,0.34,-1.21,0.33,-0.33,-0.37,-0.50,-1.54,-1.54,-1.55
276.61,-1.25,0.26,-1.24,0.27,-0.27,-0.36,-0.48,-1.52,-1.51,-1.51
279.38,-1.30,0.18,-1.27,0.21,-0.21,-0.36,-0.45,-1.51,-1.48,-1.48
282.17,-1.31,0.15,-1.30,0.16,-0.16,-0.35,-0.43,-1.47,-1.46,-1.46
284.99,-1.30,0.12,-1.32,0.10,-0.10,-0.34,-0.41,-1.40,-1.43,-1.42
287.84,-1.38,0.02,-1.34,0.05,-0.05,-0.33,-0.38,-1.43,-1.39,-1.40
290.72,-1.38,-0.01,-1.36,0.00,-0.00,-0.32,-0.36,-1.38,-1.36,-1.37
293.63,-1.37,-0.03,-1.38,-0.05,0.05,-0.32,-0.33,-1.32,-1.33,-1.34
296.57,-1.36,-0.06,-1.40,-0.09,0.09,-0.31,-0.31,-1.27,-1.30,-1.30
299.53,-1.41,-0.14,-1.41,-0.13,0.13,-0.30,-0.28,-1.28,-1.27,-1.27
302.53,-1.43,-0.17,-1.41,-0.17,0.17,-0.30,-0.25,-1.26,-1.25,-1.26
305.55,-1.41,-0.20,-1.42,-0.20,0.20,-0.29,-0.23,-1.21,-1.22,-1.21
308.61,-1.41,-0.22,-1.43,-0.24,0.24,-0.28,-0.20,-1.17,-1.19,-1.19
311.69,-1.48,-0.32,-1.45,-0.28,0.28,-0.28,-0.17,-1.20,-1.17,-1.16
314.81,-1.50,-0.37,-1.46,-0.32,0.32,-0.27,-0.14,-1.18,-1.15,-1.13
317.96,-1.49,-0.37,-1.48,-0.36,0.36,-0.26,-0.12,-1.13,-1.12,-1.12
321.14,-1.49,-0.38,-1.50,-0.40,0.40,-0.26,-0.09,-1.09,-1.10,-1.11
324.35,-1.49,-0.40,-1.52,-0.44,0.44,-0.25,-0.06,-1.05,-1.09,-1.09
327.59,-1.49,-0.42,-1.54,-0.47,0.47,-0.24,-0.03,-1.02,-1.07,-1.07
330.87,-1.50,-0.44,-1.57,-0.51,0.51,-0.24,-0.00,-0.99,-1.06,-1.06
334.18,-1.56,-0.52,-1.59,-0.54,0.54,-0.23,0.02,-1.02,-1.04,-1.04
337.52,-1.66,-0.62,-1.61,-0.58,0.58,-0.23,0.05,-1.08,-1.03,-1.04
340.90,-1.68,-0.66,-1.63,-0.61,0.61,-0.22,0.08,-1.07,-1.02,-1.02
344.30,-1.70,-0.69,-1.65,-0.64,0.64,-0.22,0.11,-1.06,-1.02,-1.01
347.75,-1.70,-0.69,-1.67,-0.66,0.66,-0.21,0.14,-1.04,-1.01,-1.01
351.23,-1.69,-0.69,-1.68,-0.68,0.68,-0.21,0.17,-1.01,-1.00,-1.00
354.74,-1.69,-0.69,-1.70,-0.70,0.70,-0.20,0.20,-0.99,-1.00,-1.00
358.28,-1.69,-0.70,-1.72,-0.72,0.72,-0.20,0.23,-0.97,-1.00,-0.99
361.87,-1.75,-0.76,-1.73,-0.74,0.74,-0.19,0.26,-1.01,-0.99,-1.00
365.49,-1.77,-0.78,-1.75,-0.76,0.76,-0.19,0.29,-1.01,-0.99,-0.99
369.14,-1.76,-0.76,-1.76,-0.77,0.77,-0.18,0.32,-0.99,-0.99,-1.00
372.83,-1.76,-0.76,-1.78,-0.78,0.78,-0.18,0.35,-0.98,-0.99,-1.00
376.56,-1.75,-0.75,-1.79,-0.79,0.79,-0.17,0.38,-0.96,-0.99,-1.00
380.33,-1.74,-0.75,-1.81,-0.81,0.81,-0.17,0.41,-0.93,-1.00,-0.99
384.13,-1.79,-0.80,-1.82,-0.82,0.82,-0.16,0.44,-0.97,-1.00,-0.99
387.97,-1.84,-0.84,-1.84,-0.84,0.84,-0.16,0.48,-1.00,-1.00,-1.00
391.85,-1.90,-0.89,-1.86,-0.85,0.85,-0.15,0.51,-1.05,-1.01,-1.01
395.77,-1.92,-0.92,-1.88,-0.86,0.86,-0.15,0.54,-1.06,-1.01,-1.00
399.73,-1.92,-0.91,-1.89,-0.87,0.87,-0.15,0.57,-1.05,-1.02,-1.01
403.72,-1.92,-0.91,-1.91,-0.89,0.89,-0.14,0.60,-1.03,-1.02,-1.01
407.76,-1.92,-0.89,-1.93,-0.90,0.90,-0.14,0.63,-1.02,-1.03,-1.03
411.84,-1.93,-0.90,-1.94,-0.91,0.91,-0.13,0.66,-1.02,-1.03,-1.03
415.96,-1.93,-0.90,-1.96,-0.93,0.93,-0.13,0.69,-1.00,-1.03,-1.03
420.12,-1.93,-0.90,-1.96,-0.93,0.93,-0.13,0.72,-1.00,-1.03,-1.03
424.32,-1.92,-0.89,-1.96,-0.94,0.94,-0.12,0.75,-0.98,-1.02,-1.03
428.56,-1.93,-0.91,-1.95,-0.94,0.94,-0.12,0.78,-0.99,-1.01,-1.02
432.85,-1.98,-0.97,-1.93,-0.94,0.94,-0.12,0.81,-1.04,-0.99,-1.01
437.18,-1.97,-0.97,-1.91,-0.94,0.94,-0.11,0.83,-1.03,-0.97,-1.00
441.55,-1.93,-0.97,-1.88,-0.93,0.93,-0.11,0.86,-1.00,-0.95,-0.96
445.96,-1.89,-0.96,-1.85,-0.93,0.93,-0.10,0.88,-0.96,-0.92,-0.93
450.42,-1.84,-0.94,-1.81,-0.93,0.93,-0.10,0.91,-0.91,-0.88,-0.90
454.93,-1.78,-0.93,-1.77,-0.93,0.93,-0.10,0.93,-0.85,-0.84,-0.85
459.48,-1.72,-0.92,-1.72,-0.93,0.93,-0.09,0.95,-0.79,-0.80,-0.80
464.07,-1.65,-0.90,-1.67,-0.92,0.92,-0.09,0.97,-0.73,-0.75,-0.75
468.71,-1.60,-0.91,-1.62,-0.92,0.92,-0.09,0.99,-0.68,-0.70,-0.69
473.40,-1.54,-0.89,-1.56,-0.91,0.91,-0.08,1.00,-0.63,-0.65,-0.65
478.13,-1.48,-0.89,-1.50,-0.90,0.90,-0.08,1.02,-0.58,-0.60,-0.59
482.91,-1.44,-0.89,-1.45,-0.89,0.89,-0.08,1.03,-0.55,-0.56,-0.55
