frequency,raw,error,smoothed,error_smoothed,equalization,parametric_eq,fixed_band_eq,equalized_raw,equalized_smoothed,target
20.00,18.36,8.42,18.36,8.42,-8.42,-8.22,-3.66,9.94,9.94,9.94
20.20,18.35,8.42,18.35,8.42,-8.42,-8.22,-3.76,9.93,9.93,9.93
20.40,18.34,8.42,18.33,8.42,-8.42,-8.22,-3.86,9.92,9.91,9.92
20.61,18.32,8.41,18.32,8.42,-8.42,-8.22,-3.96,9.90,9.90,9.91
20.81,18.31,8.42,18.31,8.42,-8.42,-8.22,-4.07,9.89,9.89,9.88
21.02,18.30,8.42,18.29,8.41,-8.41,-8.22,-4.18,9.88,9.88,9.87
21.23,18.29,8.42,18.28,8.41,-8.41,-8.21,-4.30,9.88,9.87,9.86
21.44,18.27,8.39,18.27,8.41,-8.41,-8.21,-4.41,9.86,9.86,9.87
21.66,18.26,8.40,18.25,8.40,-8.40,-8.21,-4.53,9.85,9.85,9.85
21.87,18.25,8.39,18.24,8.40,-8.40,-8.21,-4.66,9.85,9.84,9.85
22.09,18.23,8.39,18.23,8.39,-8.39,-8.21,-4.78,9.83,9.84,9.83
22.31,18.22,8.38,18.22,8.39,-8.39,-8.21,-4.91,9.83,9.83,9.83
22.54,18.21,8.38,18.20,8.38,-8.38,-8.20,-5.05,9.83,9.82,9.82
22.76,18.19,8.37,18.19,8.37,-8.37,-8.20,-5.19,9.82,9.82,9.82
22.99,18.18,8.37,18.18,8.36,-8.36,-8.20,-5.33,9.81,9.81,9.81
23.22,18.17,8.37,18.16,8.35,-8.35,-8.20,-5.47,9.81,9.81,9.80
23.45,18.15,8.34,18.15,8.34,-8.34,-8.19,-5.62,9.80,9.80,9.81
23.69,18.14,8.34,18.14,8.34,-8.34,-8.19,-5.77,9.80,9.80,9.80
23.92,18.12,8.33,18.12,8.33,-8.33,-8.19,-5.92,9.79,9.80,9.79
24.16,18.11,8.31,18.11,8.32,-8.32,-8.18,-6.08,9.79,9.79,9.80
24.40,18.10,8.30,18.10,8.30,-8.30,-8.18,-6.24,9.79,9.79,9.80
24.65,18.09,8.29,18.08,8.29,-8.29,-8.18,-6.40,9.79,9.79,9.80
24.89,18.08,8.28,18.07,8.28,-8.28,-8.17,-6.56,9.80,9.79,9.80
25.14,18.06,8.27,18.05,8.27,-8.27,-8.17,-6.73,9.79,9.79,9.78
25.39,18.05,8.26,18.04,8.25,-8.25,-8.17,-6.90,9.79,9.79,9.78
25.65,18.03,8.24,18.03,8.24,-8.24,-8.16,-7.07,9.79,9.79,9.78
25.91,18.02,8.23,18.01,8.22,-8.22,-8.16,-7.24,9.79,9.79,9.78
26.16,18.00,8.20,18.00,8.21,-8.21,-8.15,-7.41,9.79,9.79,9.79
26.43,17.98,8.19,17.98,8.19,-8.19,-8.15,-7.58,9.78,9.79,9.79
26.69,17.97,8.18,17.97,8.18,-8.18,-8.14,-7.75,9.79,9.79,9.79
26.96,17.95,8.16,17.95,8.16,-8.16,-8.14,-7.92,9.78,9.79,9.79
27.23,17.94,8.15,17.94,8.15,-8.15,-8.13,-8.09,9.79,9.79,9.79
27.50,17.92,8.13,17.92,8.13,-8.13,-8.13,-8.25,9.79,9.79,9.79
27.77,17.91,8.11,17.91,8.11,-8.11,-8.12,-8.41,9.80,9.80,9.80
28.05,17.90,8.10,17.89,8.09,-8.09,-8.12,-8.56,9.80,9.80,9.79
28.33,17.88,8.07,17.88,8.08,-8.08,-8.11,-8.71,9.80,9.80,9.80
28.62,17.87,8.07,17.86,8.06,-8.06,-8.11,-8.85,9.81,9.80,9.80
28.90,17.85,8.04,17.85,8.04,-8.04,-8.10,-8.99,9.80,9.80,9.81
29.19,17.84,8.03,17.83,8.03,-8.03,-8.10,-9.11,9.81,9.80,9.81
29.48,17.82,8.01,17.82,8.01,-8.01,-8.09,-9.22,9.80,9.80,9.81
29.78,17.80,7.99,17.80,8.00,-8.00,-8.09,-9.32,9.80,9.80,9.81
30.08,17.79,7.98,17.79,7.99,-7.99,-8.08,-9.41,9.80,9.80,9.80
30.38,17.77,7.97,17.77,7.97,-7.97,-8.07,-9.49,9.79,9.80,9.79
30.68,17.76,7.97,17.76,7.96,-7.96,-8.07,-9.56,9.79,9.79,9.79
30.99,17.74,7.95,17.74,7.95,-7.95,-8.06,-9.61,9.78,9.79,9.79
31.30,17.73,7.94,17.73,7.94,-7.94,-8.06,-9.64,9.78,9.79,9.79
31.61,17.72,7.93,17.72,7.94,-7.94,-8.05,-9.66,9.78,9.78,9.78
31.93,17.70,7.93,17.70,7.93,-7.93,-8.04,-9.67,9.77,9.77,9.76
32.24,17.69,7.92,17.69,7.92,-7.92,-8.04,-9.67,9.77,9.77,9.77
32.57,17.68,7.92,17.67,7.91,-7.91,-8.03,-9.65,9.77,9.76,9.76
32.89,17.66,7.90,17.65,7.90,-7.90,-8.03,-9.62,9.76,9.76,9.76
33.22,17.65,7.89,17.64,7.88,-7.88,-8.02,-9.57,9.76,9.75,9.75
33.55,17.63,7.87,17.62,7.87,-7.87,-8.01,-9.52,9.76,9.75,9.75
33.89,17.61,7.87,17.60,7.86,-7.86,-8.01,-9.46,9.75,9.74,9.74
34.23,17.58,7.85,17.58,7.84,-7.84,-8.00,-9.39,9.73,9.73,9.73
34.57,17.56,7.83,17.55,7.83,-7.83,-7.99,-9.31,9.73,9.73,9.72
34.92,17.54,7.83,17.53,7.81,-7.81,-7.99,-9.23,9.72,9.72,9.71
35.27,17.51,7.78,17.51,7.80,-7.80,-7.98,-9.14,9.71,9.71,9.73
35.62,17.49,7.78,17.49,7.79,-7.79,-7.97,-9.05,9.70,9.70,9.70
35.97,17.46,7.76,17.47,7.78,-7.78,-7.97,-8.95,9.68,9.69,9.70
36.33,17.44,7.75,17.45,7.77,-7.77,-7.96,-8.86,9.67,9.68,9.69
36.70,17.42,7.75,17.43,7.76,-7.76,-7.95,-8.76,9.66,9.67,9.66
37.06,17.41,7.76,17.41,7.75,-7.75,-7.95,-8.66,9.65,9.65,9.65
37.43,17.39,7.75,17.39,7.75,-7.75,-7.94,-8.57,9.64,9.64,9.64
37.81,17.37,7.74,17.37,7.75,-7.75,-7.93,-8.47,9.62,9.62,9.62
38.19,17.35,7.75,17.35,7.75,-7.75,-7.93,-8.38,9.60,9.60,9.60
38.57,17.34,7.75,17.33,7.74,-7.74,-7.92,-8.29,9.59,9.58,9.58
38.95,17.32,7.75,17.31,7.74,-7.74,-7.91,-8.20,9.57,9.57,9.57
39.34,17.30,7.75,17.29,7.74,-7.74,-7.91,-8.12,9.55,9.55,9.54
39.74,17.28,7.76,17.27,7.74,-7.74,-7.90,-8.04,9.54,9.53,9.52
40.14,17.25,7.74,17.24,7.74,-7.74,-7.89,-7.96,9.51,9.51,9.51
40.54,17.23,7.74,17.22,7.73,-7.73,-7.89,-7.89,9.49,9.49,9.49
40.94,17.20,7.73,17.20,7.73,-7.73,-7.88,-7.82,9.47,9.47,9.46
41.35,17.18,7.73,17.18,7.72,-7.72,-7.88,-7.76,9.45,9.45,9.45
41.76,17.15,7.72,17.15,7.72,-7.72,-7.87,-7.71,9.42,9.43,9.42
42.18,17.12,7.70,17.13,7.72,-7.72,-7.86,-7.65,9.40,9.41,9.42
42.60,17.10,7.71,17.11,7.71,-7.71,-7.86,-7.61,9.38,9.39,9.39
43.03,17.08,7.70,17.08,7.71,-7.71,-7.85,-7.57,9.36,9.37,9.37
43.46,17.06,7.71,17.06,7.71,-7.71,-7.84,-7.53,9.35,9.35,9.35
43.90,17.04,7.71,17.04,7.71,-7.71,-7.84,-7.50,9.33,9.33,9.33
44.33,17.02,7.71,17.01,7.70,-7.70,-7.83,-7.48,9.31,9.31,9.30
44.78,17.00,7.71,16.99,7.70,-7.70,-7.83,-7.46,9.29,9.28,9.29
45.23,16.98,7.71,16.96,7.71,-7.71,-7.82,-7.44,9.27,9.26,9.27
45.68,16.95,7.72,16.94,7.71,-7.71,-7.81,-7.43,9.24,9.23,9.23
46.13,16.92,7.72,16.91,7.71,-7.71,-7.81,-7.43,9.20,9.20,9.20
46.60,16.89,7.71,16.89,7.72,-7.72,-7.80,-7.43,9.17,9.17,9.17
47.06,16.86,7.71,16.86,7.73,-7.73,-7.80,-7.44,9.13,9.14,9.14
47.53,16.83,7.71,16.84,7.73,-7.73,-7.79,-7.45,9.09,9.10,9.11
48.01,16.80,7.73,16.81,7.74,-7.74,-7.78,-7.47,9.05,9.07,9.06
48.49,16.78,7.74,16.78,7.75,-7.75,-7.78,-7.49,9.03,9.03,9.03
48.97,16.75,7.75,16.75,7.75,-7.75,-7.77,-7.51,8.99,9.00,8.99
49.46,16.73,7.76,16.72,7.76,-7.76,-7.77,-7.54,8.97,8.96,8.96
49.96,16.70,7.79,16.69,7.77,-7.77,-7.76,-7.58,8.93,8.93,8.91
50.46,16.68,7.79,16.66,7.77,-7.77,-7.76,-7.61,8.90,8.89,8.89
50.96,16.65,7.79,16.63,7.78,-7.78,-7.75,-7.66,8.87,8.86,8.86
51.47,16.62,7.79,16.60,7.78,-7.78,-7.75,-7.70,8.83,8.82,8.82
51.99,16.58,7.80,16.58,7.79,-7.79,-7.74,-7.74,8.79,8.79,8.78
52.51,16.54,7.78,16.55,7.79,-7.79,-7.74,-7.79,8.75,8.75,8.76
53.03,16.51,7.77,16.52,7.79,-7.79,-7.73,-7.84,8.71,8.72,8.73
53.56,16.48,7.78,16.48,7.80,-7.80,-7.73,-7.89,8.68,8.69,8.70
54.10,16.45,7.79,16.45,7.79,-7.79,-7.72,-7.95,8.65,8.66,8.65
54.64,16.42,7.79,16.42,7.79,-7.79,-7.72,-8.00,8.62,8.63,8.63
55.18,16.39,7.79,16.39,7.79,-7.79,-7.71,-8.05,8.60,8.60,8.59
55.74,16.36,7.80,16.36,7.79,-7.79,-7.71,-8.10,8.57,8.57,8.55
56.29,16.34,7.80,16.33,7.79,-7.79,-7.70,-8.15,8.55,8.54,8.54
56.86,16.31,7.80,16.30,7.78,-7.78,-7.70,-8.19,8.52,8.51,8.51
57.42,16.27,7.79,16.27,7.78,-7.78,-7.70,-8.23,8.48,8.48,8.47
58.00,16.24,7.79,16.23,7.79,-7.79,-7.69,-8.27,8.45,8.45,8.44
58.58,16.21,7.78,16.20,7.79,-7.79,-7.69,-8.30,8.42,8.42,8.42
59.16,16.17,7.76,16.17,7.79,-7.79,-7.68,-8.33,8.38,8.38,8.40
59.76,16.14,7.76,16.14,7.79,-7.79,-7.68,-8.35,8.34,8.35,8.37
60.35,16.11,7.78,16.11,7.79,-7.79,-7.68,-8.37,8.31,8.31,8.33
60.96,16.07,7.78,16.07,7.80,-7.80,-7.67,-8.38,8.27,8.28,8.29
61.57,16.04,7.80,16.04,7.80,-7.80,-7.67,-8.38,8.24,8.24,8.24
62.18,16.01,7.81,16.00,7.80,-7.80,-7.66,-8.38,8.20,8.20,8.19
62.80,15.97,7.82,15.97,7.81,-7.81,-7.66,-8.36,8.16,8.16,8.15
63.43,15.93,7.82,15.93,7.81,-7.81,-7.66,-8.34,8.12,8.12,8.10
64.07,15.90,7.83,15.89,7.81,-7.81,-7.65,-8.32,8.08,8.08,8.07
64.71,15.86,7.83,15.85,7.81,-7.81,-7.65,-8.28,8.04,8.04,8.03
65.35,15.82,7.82,15.81,7.81,-7.81,-7.65,-8.24,8.00,8.00,7.99
66.01,15.77,7.81,15.77,7.81,-7.81,-7.64,-8.20,7.95,7.96,7.95
66.67,15.73,7.80,15.73,7.81,-7.81,-7.64,-8.15,7.92,7.92,7.93
67.33,15.69,7.81,15.68,7.80,-7.80,-7.63,-8.09,7.88,7.88,7.88
68.01,15.65,7.80,15.64,7.80,-7.80,-7.63,-8.03,7.85,7.84,7.85
68.69,15.60,7.79,15.59,7.79,-7.79,-7.63,-7.96,7.80,7.80,7.80
69.37,15.55,7.77,15.55,7.79,-7.79,-7.62,-7.89,7.76,7.76,7.77
70.07,15.50,7.77,15.50,7.78,-7.78,-7.62,-7.82,7.72,7.72,7.73
70.77,15.45,7.76,15.46,7.78,-7.78,-7.62,-7.74,7.67,7.68,7.68
71.48,15.41,7.76,15.41,7.77,-7.77,-7.61,-7.67,7.64,7.64,7.65
72.19,15.37,7.76,15.37,7.77,-7.77,-7.61,-7.59,7.60,7.60,7.60
72.91,15.33,7.77,15.33,7.76,-7.76,-7.60,-7.51,7.56,7.57,7.56
73.64,15.29,7.77,15.29,7.76,-7.76,-7.60,-7.44,7.53,7.53,7.52
74.38,15.25,7.76,15.25,7.75,-7.75,-7.60,-7.36,7.49,7.49,7.48
75.12,15.20,7.74,15.20,7.75,-7.75,-7.59,-7.29,7.45,7.46,7.45
75.87,15.17,7.74,15.16,7.74,-7.74,-7.59,-7.21,7.43,7.42,7.42
76.63,15.13,7.74,15.12,7.73,-7.73,-7.58,-7.14,7.39,7.39,7.38
77.40,15.09,7.72,15.08,7.72,-7.72,-7.58,-7.08,7.36,7.36,7.36
78.17,15.05,7.73,15.04,7.72,-7.72,-7.57,-7.01,7.33,7.33,7.32
78.95,15.01,7.70,15.00,7.70,-7.70,-7.57,-6.95,7.30,7.30,7.31
79.74,14.97,7.69,14.96,7.69,-7.69,-7.56,-6.89,7.27,7.27,7.27
80.54,14.92,7.67,14.92,7.68,-7.68,-7.56,-6.84,7.24,7.24,7.25
81.35,14.87,7.66,14.87,7.66,-7.66,-7.55,-6.79,7.21,7.21,7.21
82.16,14.83,7.63,14.83,7.64,-7.64,-7.55,-6.74,7.18,7.18,7.19
82.98,14.79,7.63,14.78,7.63,-7.63,-7.54,-6.70,7.16,7.15,7.16
83.81,14.75,7.62,14.74,7.61,-7.61,-7.54,-6.66,7.13,7.12,7.13
84.65,14.71,7.62,14.69,7.59,-7.59,-7.53,-6.63,7.11,7.09,7.09
85.50,14.65,7.59,14.64,7.58,-7.58,-7.52,-6.60,7.07,7.06,7.06
86.35,14.59,7.56,14.59,7.56,-7.56,-7.52,-6.58,7.03,7.03,7.03
87.22,14.53,7.53,14.54,7.54,-7.54,-7.51,-6.56,6.99,7.00,7.00
88.09,14.49,7.52,14.49,7.52,-7.52,-7.50,-6.55,6.96,6.97,6.97
88.97,14.44,7.50,14.44,7.51,-7.51,-7.50,-6.54,6.93,6.94,6.94
89.86,14.40,7.49,14.39,7.49,-7.49,-7.49,-6.53,6.91,6.90,6.90
90.76,14.34,7.47,14.34,7.47,-7.47,-7.48,-6.53,6.86,6.87,6.87
91.66,14.29,7.46,14.29,7.46,-7.46,-7.47,-6.54,6.83,6.83,6.83
92.58,14.24,7.43,14.23,7.44,-7.44,-7.46,-6.55,6.80,6.80,6.80
93.51,14.18,7.41,14.18,7.42,-7.42,-7.46,-6.57,6.75,6.76,6.77
94.44,14.14,7.40,14.13,7.41,-7.41,-7.45,-6.58,6.73,6.72,6.73
95.39,14.09,7.40,14.08,7.40,-7.40,-7.44,-6.61,6.69,6.68,6.69
96.34,14.05,7.40,14.03,7.38,-7.38,-7.43,-6.64,6.66,6.65,6.65
97.30,13.99,7.37,13.98,7.37,-7.37,-7.41,-6.67,6.62,6.61,6.61
98.28,13.92,7.35,13.93,7.36,-7.36,-7.40,-6.70,6.56,6.57,6.57
99.26,13.87,7.34,13.88,7.34,-7.34,-7.39,-6.74,6.53,6.54,6.53
100.25,13.82,7.32,13.83,7.33,-7.33,-7.38,-6.79,6.49,6.50,6.49
101.25,13.77,7.30,13.78,7.31,-7.31,-7.37,-6.83,6.46,6.47,6.46
102.27,13.72,7.28,13.73,7.29,-7.29,-7.36,-6.88,6.42,6.44,6.44
103.29,13.69,7.29,13.68,7.28,-7.28,-7.34,-6.93,6.41,6.40,6.40
104.32,13.65,7.28,13.63,7.25,-7.25,-7.33,-6.98,6.39,6.37,6.37
105.37,13.59,7.24,13.57,7.23,-7.23,-7.31,-7.04,6.35,6.34,6.34
106.42,13.53,7.21,13.52,7.21,-7.21,-7.30,-7.09,6.32,6.31,6.32
107.48,13.48,7.20,13.47,7.19,-7.19,-7.28,-7.15,6.29,6.28,6.28
108.56,13.42,7.17,13.41,7.17,-7.17,-7.27,-7.20,6.25,6.24,6.25
109.64,13.36,7.13,13.36,7.14,-7.14,-7.25,-7.26,6.21,6.21,6.22
110.74,13.30,7.11,13.30,7.12,-7.12,-7.23,-7.31,6.18,6.18,6.18
111.85,13.24,7.09,13.24,7.09,-7.09,-7.21,-7.36,6.14,6.15,6.15
112.97,13.18,7.06,13.18,7.07,-7.07,-7.20,-7.41,6.11,6.11,6.12
114.10,13.11,7.02,13.12,7.04,-7.04,-7.18,-7.45,6.06,6.08,6.08
115.24,13.05,7.01,13.06,7.01,-7.01,-7.16,-7.49,6.03,6.04,6.04
116.39,13.01,7.00,13.00,6.99,-6.99,-7.14,-7.53,6.02,6.01,6.00
117.55,12.95,6.98,12.94,6.96,-6.96,-7.12,-7.56,5.99,5.98,5.97
118.73,12.88,6.95,12.88,6.93,-6.93,-7.09,-7.58,5.94,5.95,5.93
119.92,12.82,6.91,12.82,6.90,-6.90,-7.07,-7.60,5.91,5.91,5.91
121.12,12.75,6.86,12.76,6.88,-6.88,-7.05,-7.61,5.87,5.88,5.88
122.33,12.71,6.86,12.70,6.85,-6.85,-7.02,-7.61,5.85,5.85,5.85
123.55,12.66,6.83,12.64,6.83,-6.83,-7.00,-7.60,5.83,5.82,5.83
124.79,12.58,6.78,12.58,6.80,-6.80,-6.98,-7.59,5.78,5.78,5.79
126.03,12.51,6.74,12.53,6.77,-6.77,-6.95,-7.57,5.73,5.75,5.76
127.29,12.47,6.74,12.47,6.75,-6.75,-6.92,-7.53,5.72,5.72,5.73
128.57,12.42,6.73,12.41,6.72,-6.72,-6.90,-7.50,5.70,5.69,5.69
129.85,12.35,6.69,12.35,6.69,-6.69,-6.87,-7.45,5.65,5.66,5.66
131.15,12.29,6.66,12.29,6.67,-6.67,-6.84,-7.40,5.62,5.63,5.62
132.46,12.25,6.65,12.23,6.64,-6.64,-6.81,-7.34,5.61,5.59,5.59
133.79,12.18,6.62,12.17,6.61,-6.61,-6.78,-7.27,5.57,5.56,5.56
135.12,12.11,6.58,12.11,6.58,-6.58,-6.75,-7.20,5.53,5.53,5.53
136.48,12.07,6.56,12.04,6.55,-6.55,-6.72,-7.12,5.52,5.50,5.50
137.84,11.99,6.52,11.98,6.51,-6.51,-6.68,-7.03,5.47,5.47,5.47
139.22,11.94,6.50,11.92,6.48,-6.48,-6.65,-6.95,5.46,5.44,5.43
140.61,11.86,6.45,11.85,6.44,-6.44,-6.62,-6.86,5.42,5.41,5.41
142.02,11.75,6.37,11.78,6.40,-6.40,-6.58,-6.76,5.35,5.38,5.38
143.44,11.71,6.35,11.71,6.35,-6.35,-6.55,-6.67,5.35,5.36,5.36
144.87,11.64,6.30,11.64,6.31,-6.31,-6.51,-6.57,5.33,5.33,5.33
146.32,11.58,6.27,11.57,6.26,-6.26,-6.47,-6.47,5.31,5.31,5.30
147.78,11.50,6.21,11.50,6.22,-6.22,-6.43,-6.37,5.28,5.28,5.29
149.26,11.44,6.18,11.43,6.17,-6.17,-6.40,-6.28,5.26,5.26,5.26
150.75,11.36,6.13,11.36,6.13,-6.13,-6.36,-6.18,5.23,5.23,5.23
152.26,11.31,6.09,11.29,6.08,-6.08,-6.32,-6.08,5.22,5.21,5.21
153.78,11.23,6.04,11.22,6.04,-6.04,-6.28,-5.99,5.19,5.18,5.19
155.32,11.16,5.99,11.16,6.00,-6.00,-6.23,-5.89,5.16,5.16,5.16
156.88,11.07,5.93,11.09,5.96,-5.96,-6.19,-5.80,5.11,5.13,5.14
158.44,11.02,5.91,11.02,5.92,-5.92,-6.15,-5.71,5.10,5.11,5.10
160.03,10.94,5.85,10.95,5.87,-5.87,-6.11,-5.63,5.06,5.08,5.08
161.63,10.88,5.83,10.88,5.83,-5.83,-6.06,-5.55,5.05,5.05,5.05
163.24,10.83,5.81,10.81,5.79,-5.79,-6.02,-5.47,5.04,5.02,5.02
164.88,10.75,5.76,10.74,5.75,-5.75,-5.97,-5.39,5.00,4.99,4.99
166.53,10.69,5.74,10.67,5.71,-5.71,-5.92,-5.32,4.98,4.96,4.95
168.19,10.62,5.68,10.59,5.67,-5.67,-5.88,-5.25,4.95,4.93,4.93
169.87,10.51,5.61,10.52,5.63,-5.63,-5.83,-5.18,4.88,4.89,4.89
171.57,10.44,5.58,10.45,5.59,-5.59,-5.78,-5.12,4.85,4.86,4.86
173.29,10.38,5.54,10.38,5.55,-5.55,-5.73,-5.06,4.83,4.83,4.83
175.02,10.29,5.49,10.30,5.51,-5.51,-5.68,-5.01,4.78,4.79,4.80
176.77,10.22,5.45,10.23,5.46,-5.46,-5.63,-4.95,4.75,4.76,4.76
178.54,10.16,5.43,10.15,5.42,-5.42,-5.58,-4.91,4.73,4.73,4.73
180.32,10.10,5.41,10.08,5.38,-5.38,-5.53,-4.86,4.71,4.69,4.69
182.13,10.03,5.36,10.01,5.35,-5.35,-5.48,-4.82,4.68,4.66,4.66
183.95,9.93,5.30,9.93,5.31,-5.31,-5.43,-4.79,4.62,4.63,4.63
185.79,9.85,5.26,9.86,5.27,-5.27,-5.37,-4.75,4.58,4.59,4.59
187.65,9.78,5.22,9.79,5.23,-5.23,-5.32,-4.73,4.54,4.56,4.56
189.52,9.72,5.19,9.73,5.20,-5.20,-5.26,-4.70,4.52,4.53,4.53
191.42,9.66,5.16,9.66,5.16,-5.16,-5.21,-4.68,4.50,4.50,4.50
193.33,9.59,5.11,9.59,5.12,-5.12,-5.15,-4.66,4.47,4.47,4.47
195.27,9.53,5.09,9.52,5.08,-5.08,-5.10,-4.64,4.45,4.44,4.43
197.22,9.46,5.06,9.45,5.04,-5.04,-5.04,-4.63,4.42,4.41,4.40
199.19,9.39,5.01,9.37,4.99,-4.99,-4.99,-4.62,4.39,4.38,4.38
201.18,9.32,4.97,9.31,4.95,-4.95,-4.93,-4.61,4.37,4.36,4.34
203.19,9.24,4.91,9.24,4.91,-4.91,-4.87,-4.60,4.33,4.33,4.33
205.23,9.17,4.85,9.17,4.87,-4.87,-4.81,-4.59,4.30,4.31,4.31
207.28,9.10,4.81,9.10,4.82,-4.82,-4.75,-4.59,4.27,4.28,4.29
209.35,9.04,4.77,9.04,4.77,-4.77,-4.70,-4.59,4.26,4.26,4.26
211.44,8.97,4.73,8.97,4.73,-4.73,-4.64,-4.59,4.24,4.24,4.24
213.56,8.90,4.67,8.90,4.68,-4.68,-4.58,-4.59,4.22,4.22,4.23
215.69,8.82,4.61,8.83,4.63,-4.63,-4.52,-4.59,4.19,4.20,4.20
217.85,8.76,4.57,8.76,4.58,-4.58,-4.46,-4.58,4.18,4.18,4.18
220.03,8.71,4.55,8.69,4.53,-4.53,-4.40,-4.58,4.18,4.16,4.16
222.23,8.65,4.51,8.63,4.48,-4.48,-4.33,-4.58,4.17,4.15,4.14
224.45,8.56,4.43,8.56,4.43,-4.43,-4.27,-4.58,4.13,4.13,4.13
226.70,8.49,4.38,8.49,4.38,-4.38,-4.21,-4.57,4.11,4.11,4.11
228.96,8.42,4.31,8.43,4.33,-4.33,-4.15,-4.56,4.09,4.10,4.11
231.25,8.37,4.28,8.36,4.27,-4.27,-4.09,-4.55,4.09,4.09,4.09
233.57,8.31,4.23,8.29,4.22,-4.22,-4.02,-4.54,4.09,4.08,4.08
235.90,8.22,4.15,8.23,4.16,-4.16,-3.96,-4.52,4.05,4.07,4.07
238.26,8.17,4.12,8.17,4.11,-4.11,-3.90,-4.50,4.06,4.06,4.05
240.64,8.10,4.04,8.10,4.05,-4.05,-3.83,-4.47,4.05,4.05,4.06
243.05,8.05,3.99,8.04,3.99,-3.99,-3.77,-4.44,4.06,4.05,4.05
245.48,7.99,3.94,7.98,3.93,-3.93,-3.71,-4.41,4.06,4.05,4.04
247.93,7.91,3.87,7.92,3.87,-3.87,-3.64,-4.37,4.03,4.05,4.04
250.41,7.86,3.81,7.86,3.82,-3.82,-3.58,-4.33,4.04,4.05,4.05
252.92,7.80,3.75,7.80,3.76,-3.76,-3.51,-4.28,4.04,4.05,4.05
255.45,7.75,3.70,7.75,3.70,-3.70,-3.45,-4.22,4.05,4.05,4.04
258.00,7.70,3.65,7.69,3.65,-3.65,-3.38,-4.16,4.05,4.05,4.05
260.58,7.64,3.58,7.64,3.59,-3.59,-3.32,-4.10,4.05,4.05,4.05
263.19,7.59,3.53,7.58,3.54,-3.54,-3.25,-4.03,4.05,4.05,4.06
265.82,7.53,3.48,7.53,3.48,-3.48,-3.19,-3.96,4.05,4.05,4.05
268.48,7.48,3.42,7.48,3.43,-3.43,-3.12,-3.88,4.05,4.05,4.05
271.16,7.43,3.37,7.42,3.37,-3.37,-3.06,-3.80,4.06,4.05,4.06
273.87,7.36,3.30,7.37,3.32,-3.32,-2.99,-3.72,4.04,4.05,4.05
276.61,7.32,3.26,7.32,3.26,-3.26,-2.93,-3.63,4.06,4.05,4.06
279.38,7.28,3.23,7.26,3.20,-3.20,-2.86,-3.54,4.07,4.06,4.04
282.17,7.23,3.18,7.21,3.15,-3.15,-2.79,-3.44,4.08,4.06,4.05
284.99,7.16,3.09,7.15,3.09,-3.09,-2.73,-3.35,4.07,4.06,4.06
287.84,7.08,3.01,7.10,3.03,-3.03,-2.66,-3.25,4.05,4.07,4.07
290.72,7.03,2.96,7.04,2.97,-2.97,-2.59,-3.15,4.06,4.07,4.07
293.63,6.99,2.91,6.99,2.91,-2.91,-2.53,-3.05,4.08,4.08,4.08
296.57,6.93,2.84,6.93,2.84,-2.84,-2.46,-2.94,4.08,4.09,4.09
299.53,6.88,2.78,6.87,2.78,-2.78,-2.40,-2.84,4.10,4.09,4.09
302.53,6.82,2.71,6.82,2.71,-2.71,-2.33,-2.74,4.10,4.10,4.11
305.55,6.76,2.65,6.76,2.65,-2.65,-2.26,-2.63,4.11,4.11,4.11
308.61,6.70,2.57,6.70,2.58,-2.58,-2.20,-2.53,4.12,4.12,4.12
311.69,6.64,2.51,6.64,2.51,-2.51,-2.13,-2.42,4.13,4.13,4.13
314.81,6.59,2.45,6.58,2.44,-2.44,-2.06,-2.32,4.15,4.14,4.14
317.96,6.53,2.38,6.52,2.37,-2.37,-1.99,-2.21,4.15,4.15,4.14
321.14,6.47,2.31,6.46,2.30,-2.30,-1.93,-2.11,4.17,4.16,4.16
324.35,6.39,2.23,6.39,2.23,-2.23,-1.86,-2.00,4.16,4.17,4.16
327.59,6.32,2.13,6.33,2.15,-2.15,-1.79,-1.90,4.17,4.18,4.19
330.87,6.27,2.08,6.26,2.07,-2.07,-1.73,-1.80,4.19,4.18,4.18
334.18,6.20,2.01,6.19,1.99,-1.99,-1.66,-1.70,4.20,4.19,4.19
337.52,6.12,1.92,6.12,1.91,-1.91,-1.59,-1.60,4.20,4.20,4.20
340.90,6.05,1.83,6.04,1.83,-1.83,-1.53,-1.50,4.21,4.21,4.22
344.30,5.97,1.74,5.97,1.75,-1.75,-1.46,-1.40,4.22,4.22,4.22
347.75,5.90,1.66,5.89,1.66,-1.66,-1.39,-1.30,4.23,4.23,4.23
351.23,5.83,1.60,5.82,1.58,-1.58,-1.33,-1.20,4.25,4.24,4.23
354.74,5.76,1.50,5.74,1.49,-1.49,-1.26,-1.11,4.26,4.25,4.26
358.28,5.66,1.40,5.67,1.41,-1.41,-1.19,-1.01,4.25,4.26,4.26
361.87,5.59,1.32,5.59,1.32,-1.32,-1.13,-0.92,4.26,4.27,4.26
365.49,5.51,1.23,5.51,1.24,-1.24,-1.06,-0.82,4.27,4.27,4.27
369.14,5.44,1.14,5.44,1.15,-1.15,-0.99,-0.73,4.28,4.29,4.29
372.83,5.37,1.07,5.36,1.07,-1.07,-0.93,-0.64,4.30,4.29,4.30
376.56,5.28,0.98,5.29,0.99,-0.99,-0.86,-0.55,4.29,4.30,4.30
380.33,5.21,0.90,5.22,0.91,-0.91,-0.79,-0.46,4.30,4.31,4.31
384.13,5.15,0.82,5.15,0.82,-0.82,-0.73,-0.37,4.32,4.32,4.33
387.97,5.08,0.74,5.08,0.74,-0.74,-0.66,-0.28,4.33,4.33,4.33
391.85,5.01,0.66,5.01,0.66,-0.66,-0.60,-0.19,4.35,4.35,4.34
395.77,4.94,0.58,4.93,0.58,-0.58,-0.53,-0.10,4.36,4.36,4.35
399.73,4.88,0.52,4.86,0.50,-0.50,-0.46,-0.02,4.38,4.37,4.36
403.72,4.81,0.42,4.79,0.41,-0.41,-0.40,0.07,4.39,4.38,4.39
407.76,4.72,0.33,4.72,0.33,-0.33,-0.33,0.16,4.38,4.39,4.39
411.84,4.65,0.25,4.65,0.25,-0.25,-0.26,0.24,4.40,4.40,4.40
415.96,4.59,0.17,4.57,0.16,-0.16,-0.20,0.32,4.42,4.41,4.42
420.12,4.51,0.09,4.50,0.08,-0.08,-0.13,0.40,4.43,4.42,4.42
424.32,4.42,-0.01,4.42,-0.00,0.00,-0.07,0.49,4.42,4.43,4.42
428.56,4.35,-0.10,4.35,-0.09,0.09,-0.00,0.57,4.44,4.44,4.44
432.85,4.27,-0.19,4.27,-0.17,0.17,0.06,0.64,4.44,4.45,4.45
437.18,4.19,-0.27,4.20,-0.26,0.26,0.13,0.72,4.44,4.46,4.45
441.55,4.14,-0.32,4.13,-0.34,0.34,0.20,0.80,4.48,4.47,4.46
445.96,4.06,-0.41,4.05,-0.42,0.42,0.26,0.87,4.48,4.47,4.47
450.42,3.97,-0.51,3.98,-0.50,0.50,0.33,0.95,4.47,4.48,4.48
454.93,3.90,-0.59,3.91,-0.58,0.58,0.39,1.02,4.48,4.49,4.49
459.48,3.85,-0.65,3.85,-0.66,0.66,0.46,1.09,4.50,4.50,4.50
464.07,3.78,-0.74,3.78,-0.73,0.73,0.52,1.15,4.51,4.51,4.52
468.71,3.72,-0.81,3.71,-0.81,0.81,0.59,1.22,4.52,4.52,4.53
473.40,3.64,-0.90,3.65,-0.88,0.88,0.65,1.28,4.52,4.53,4.54
478.13,3.59,-0.96,3.58,-0.96,0.96,0.72,1.35,4.55,4.54,4.55
482.91,3.53,-1.03,3.52,-1.04,1.04,0.78,1.41,4.56,4.55,4.56
487.74,3.46,-1.11,3.45,-1.11,1.11,0.85,1.46,4.57,4.57,4.56
492.62,3.39,-1.19,3.39,-1.19,1.19,0.91,1.52,4.58,4.58,4.57
497.55,3.33,-1.26,3.32,-1.27,1.27,0.97,1.57,4.60,4.59,4.58
502.52,3.27,-1.33,3.25,-1.35,1.35,1.04,1.62,4.62,4.60,4.59
507.55,3.20,-1.42,3.18,-1.44,1.44,1.10,1.67,4.63,4.61,4.61
