frequency,raw
10,-14.373657618033704
11,-13.332003296532275
12,-12.265049258961739
13,-11.436369974193216
14,-10.666534046375556
15,-9.9243349418118
16,-9.311483063683916
17,-8.682963191028946
18,-8.258036984023825
19,-7.501981417218498
20,-6.995978305839194
21,-6.463866190512459
22,-5.923561178162905
23,-5.625420364185194
24,-5.153291715954862
25,-4.501820715195914
26,-4.472689034565274
27,-3.9218576704039094
28,-3.557693025071014
29,-3.4133720705238773
30,-2.743922292193818
31,-2.629973740987631
32,-2.127426059636198
33,-2.0494333053406253
34,-1.7783249777237424
35,-1.478978965841077
36,-1.2073054631778626
37,-0.9875796004224711
38,-0.783448166251461
39,-0.4975053893932886
40,-0.2533393754158886
41,-0.12223742179289543
42,0.31392594959896414
43,0.40714095774036574
44,0.5608224049184551
45,0.7445778363984599
46,0.8972871217957508
47,0.9793951141588542
48,1.3655270569548845
49,1.4521640653577705
50,1.4999453216197312
51,1.506789975933338
52,1.9418464652358924
53,1.9593892364062304
54,2.047674480317859
55,2.2298369830225386
56,2.424532008225712
57,2.216764419215596
58,2.3236011929193374
59,2.578115037123206
60,2.5968249368090692
61,2.5047500888390397
62,2.68380535097183
63,2.6827658355831954
64,2.621345224388187
65,2.78086214263283
66,2.7797450448095757
67,2.9382457522625254
68,2.891450576884316
69,2.8891613803241265
70,2.8490234287033696
71,3.0402268605294465
72,2.9083744806828244
73,2.909660234796706
74,2.9067902974536244
75,2.8999611311290936
76,2.8898433077507724
77,2.835126538759453
78,2.7241303416943614
79,2.751822731079252
80,2.782478068886374
81,2.6929586025902488
82,2.643670379387146
83,2.652627162184131
84,2.603221784115549
85,2.553857518358968
86,2.4929255708709404
87,2.527454233592924
88,2.4664250963972307
89,2.3171591645512875
90,2.2669128814080333
91,2.2105948843316794
92,2.1293292973820597
93,2.029490560642521
94,2.0002388305531236
95,1.951681439291968
96,1.8900215343074924
97,1.8097353245475114
98,1.810718626242286
99,1.8245949510388728
100,1.8226266062848628
101,1.7390952250812175
102,1.6798586617855404
104,1.5796863762462703
105,1.5773724231275965
106,1.543242970358384
107,1.4934048445676877
108,1.5112058039714507
109,1.4682147193810122
110,1.343056668635188
111,1.334587186134164
112,1.3130673064998701
113,1.1663477969645042
114,1.1009092175151372
115,1.0886636698896455
117,1.0465643802173377
118,0.9706568102905866
119,0.877734294073024
120,0.8639122705818956
121,0.8067662296108029
123,0.6634809226478056
124,0.663454337639533
125,0.5827815696062366
126,0.4695087887248608
128,0.46094320301352276
129,0.3821221235131982
130,0.28003986740924747
131,0.27722291541205557
133,0.21609749148276558
134,0.10342289509215474
135,0.08043618893568016
137,0.03378745184599419
138,-0.028537772689367635
140,-0.1277836072011862
141,-0.1242418848421849
142,-0.18631909446437733
144,-0.2284886918944382
145,-0.3254587805300835
147,-0.4379613936307418
148,-0.5409429872945353
150,-0.6745705715193053
151,-0.7185609791906242
153,-0.8156244226354308
154,-0.8195697344199253
156,-0.8942183582292595
157,-0.920156724934301
159,-0.9716203613989758
160,-1.0163977871555803
162,-1.0783333262477912
164,-1.198218545827055
165,-1.286198351578964
167,-1.4282014415188904
169,-1.565114792198822
170,-1.5686774671179182
172,-1.6548449555452294
174,-1.7945081633372952
175,-1.8123365981550088
177,-1.8607319191322573
179,-1.9607282861663315
181,-2.017077936347455
183,-2.071718497250952
184,-2.122877114615866
186,-2.175727829708217
188,-2.2595134673944046
190,-2.3318595058449496
192,-2.4125922121403844
194,-2.4808714686519604
196,-2.6228906964133345
198,-2.6426187065338542
200,-2.699210185271213
202,-2.8663688308812576
204,-2.9944422608510135
206,-2.9814756944236445
208,-2.971836763466938
210,-3.071140398834888
212,-3.1773118416112216
214,-3.2185104698354055
216,-3.2937469528798378
218,-3.336843451735984
221,-3.4996880994009447
223,-3.5857348226890675
225,-3.6373168643186515
227,-3.7187086697016634
229,-3.8130489317309166
232,-3.9656061336491875
234,-3.9694245919729942
236,-4.011501124871041
239,-4.110402025835527
241,-4.1572838022309
244,-4.0121099390262405
246,-4.036191674818746
248,-4.115266994500096
251,-4.198720165558109
253,-4.28881670910044
256,-4.2244331517925335
259,-4.274110615616797
261,-4.420642332795153
264,-4.493343655240928
266,-4.5377679989131074
269,-4.693705551464707
272,-4.634957911759684
274,-4.61832554984543
277,-4.738897871864493
280,-4.945866360829883
283,-5.153800363872679
286,-5.130807131241475
288,-5.127624081263185
291,-5.32086941026252
294,-5.461394452736628
297,-5.548305688589651
300,-5.732712025692946
303,-5.966757238407121
306,-6.237722749212859
309,-6.434218941584189
312,-6.438074426509111
316,-6.065712865760094
319,-6.249047376938416
322,-6.4755084932718425
325,-6.107455278658588
328,-6.292034256399528
332,-6.599709665787015
335,-6.645010416497521
338,-6.489194947588124
342,-5.937313636777893
345,-6.03162610734217
349,-6.367814888346614
352,-6.60809132748899
356,-6.695130490284001
359,-6.543177309418433
363,-6.284400545204728
366,-6.202819707073971
370,-6.4129005320920305
374,-6.279772709580808
377,-6.170363120806482
381,-5.907441397458728
385,-5.705269205622241
389,-5.89594055993967
393,-5.786739823954313
397,-5.687370308226086
401,-5.561498696186366
405,-5.553545252427856
409,-5.497133857889569
413,-5.33047703208214
417,-5.2333461557159495
421,-5.212992064187341
425,-5.187005531743852
430,-5.1902084038071665
434,-5.187444207407677
438,-5.158029894166379
443,-5.141621315475053
447,-5.164910206004797
451,-5.156235222202093
456,-5.209284503877087
460,-5.268578417082108
465,-5.222003005265811
470,-5.233222021284118
474,-5.305327999396916
479,-5.439881670492631
484,-5.506509164766326
489,-5.422847387394452
494,-5.5178779911648945
499,-5.6561036629880075
504,-5.65027298611629
509,-5.7611903770889885
514,-5.830672578578245
519,-5.871597159642901
524,-5.938272459965756
529,-6.0257450761388895
535,-6.160043414684153
540,-6.182395436511468
545,-6.295004692355084
551,-6.5329374588851605
556,-6.547502442126192
562,-6.6147975580365905
568,-6.751423974400023
573,-6.768785197041003
579,-6.82558684151604
585,-6.9158824483626224
591,-7.015208589913411
596,-7.0477049310870985
602,-7.089680440809277
608,-7.220908837294622
615,-7.238254788302456
621,-7.442467148137679
627,-7.43300376472141
633,-7.332888854788288
639,-7.486967158237117
646,-7.6716782990972066
652,-7.8250933296762675
659,-7.785968341238333
665,-7.739003434359274
672,-7.69601108427614
679,-7.691274707125701
686,-7.869171181160663
692,-7.866969621455617
699,-7.856416525937372
706,-7.900262773914612
713,-7.8807184009855
721,-7.699951388034268
728,-7.6952224460906535
735,-7.694331451226976
742,-7.523962192897226
750,-7.435266454808794
757,-7.362379843681513
765,-7.2406395191023245
773,-7.1654444273764515
780,-7.051820174993124
788,-6.910223431571381
796,-6.759968430392763
804,-6.586498792287975
812,-6.398907656912841
820,-6.155553638624149
828,-5.818751314491006
837,-5.508603954378393
845,-5.326381178392107
853,-5.137817958119461
862,-4.769106192322798
871,-4.590527994674363
879,-4.222749681691906
888,-3.880787674146953
897,-3.5787440866809463
906,-3.314455266351279
915,-2.9170669843284163
924,-2.592244501676756
933,-2.1533362873245006
943,-1.8060303155903257
952,-1.594463184431389
962,-1.4113442678998536
971,-1.0492990118631162
981,-0.5281533752094205
991,-0.22360745207401767
1001,0.024720941850170597
1011,0.32119487384713175
1021,0.7412226114879208
1031,1.0102202553942758
1041,1.2698750189389665
1052,1.5223835852898415
1062,1.7437278917736005
1073,1.9755468907735092
1084,2.3093517399585806
1094,2.5086343097031216
1105,2.705762553176059
1116,2.9681704162649702
1128,3.2462499174026185
1139,3.430099207818661
1150,3.690927634629054
1162,3.8971522716570908
1173,4.139580004586948
1185,4.401875329263211
1197,4.557998146229301
1209,4.420248869443964
1221,4.250123047611357
1233,4.333138352891785
1246,4.484377253717813
1258,4.4214509281693815
1271,4.837001519262568
1283,5.142267868852231
1296,5.4468342775520515
1309,5.612260638838241
1322,5.707650813702498
1335,5.701085028899896
1349,5.763487259094584
1362,5.874548491856967
1376,6.014308578514452
1390,6.162859920387946
1404,6.30588347743899
1418,6.442244421932952
1432,6.567718593210795
1446,6.757428844225083
1461,6.885541659946396
1475,6.9835345566662514
1490,7.128906198137636
1505,7.291838868831295
1520,7.523351342535846
1535,7.6347150176706915
1550,7.696749195309931
1566,7.799878877998563
1582,7.944004899344465
1597,8.119937763503486
1613,8.263232030725558
1629,8.4620254895223
1646,8.676677041364815
1662,8.811195457853405
1679,9.03787340548023
1696,9.138570913743322
1713,9.270864649989392
1730,9.51525117622397
1747,9.66436183432383
1764,9.82756635507187
1782,9.984431516811423
1800,10.169815050318647
1818,10.29012318567284
1836,10.453102401351163
1854,10.675640449436113
1873,10.857962353661947
1892,11.066767267395822
1911,11.24093106534615
1930,11.414951033398832
1949,11.492480294997362
1969,11.597553855398596
1988,11.775695710012698
2008,11.89673870119951
2028,12.019974889819952
2048,12.150455924326298
2069,12.270140478498604
2090,12.264517355483559
2111,12.292573281902726
2132,12.314392278595125
2153,12.392517270291306
2175,12.31235080517865
2196,12.114629455277925
2218,12.04419329346432
2240,11.936554154551292
2263,11.764171166497656
2285,11.572314645758393
2308,11.198854762272633
2331,10.82011825515356
2355,10.760307451837338
2378,10.512007117684615
2402,9.930659606813162
2426,9.251913815758869
2450,8.78690423463323
2475,8.142688889681603
2500,7.4644557335815405
2525,7.163929297788919
2550,6.5619679612324076
2575,6.445002659717066
2601,6.378615383558609
2627,6.431887823478416
2653,6.613338309659203
2680,6.641525029917397
2707,6.664870183640743
2734,6.843967307366855
2761,7.105917976723568
2789,7.29313007233079
2817,7.456522523133382
2845,7.622462925566093
2873,7.8089514286893325
2902,7.864712321252429
2931,7.8963227803440645
2960,8.037564210113143
2990,8.044657806118146
3020,8.122835150132836
3050,7.794461714394777
3080,7.679728815970201
3111,7.393982147415177
3142,7.242461816331599
3174,7.154930156620764
3206,7.353504672514424
3238,7.265520394617905
3270,7.175154151917461
3303,7.504045845556693
3336,7.7506736919537405
3369,7.923728979504629
3403,7.9305606642929565
3437,7.803073746453517
3471,7.8033080607258025
3506,7.6260345371501375
3541,7.402639088218122
3576,7.1503146196249805
3612,6.197845450892572
3648,5.563296236869823
3685,4.691087284384734
3721,2.7887979736998076
3759,1.449012894455553
3796,0.3269671254459734
3834,0.8217349010507675
3873,1.2439015669318003
3911,1.456379700928494
3950,1.4414550363639016
3990,2.7526911829044405
4030,3.679045039395386
4070,4.60290830561125
4111,5.417639033022755
4152,5.819596441873553
4193,6.214003049216194
4235,6.459491767635212
4278,6.71368834551096
4321,6.884778703519152
4364,6.429056511404385
4407,5.981214267269205
4451,5.738030839052727
4496,5.327819405399222
4541,4.539072687396625
4586,4.299311437169633
4632,3.7997446721020625
4679,3.265803258599915
4725,3.0486957752080706
4773,2.9026260560360075
4820,2.6943320143900733
4868,2.467025096763477
4917,2.2813985166189577
4966,2.2258700544872996
5016,2.071358390684675
5066,1.852946174000464
5117,1.7077967854961704
5168,1.624592830601646
5220,1.7991053314790841
5272,1.988769513784196
5325,2.211298046825621
5378,2.7571379824984
5432,3.125078032086371
5486,3.7306709297330656
5541,4.474225417595188
5596,4.924676614897388
5652,5.4434071362444225
5709,5.710240366514395
5766,5.96509560161412
5823,6.125561639189554
5882,6.3579595357656675
5940,6.468160071501963
6000,6.40215065893188
6060,6.25113858459618
6120,6.076695735623771
6182,5.86864729611316
6244,5.854364756061818
6306,5.742244561311935
6369,5.527816234124772
6433,5.227063077564684
6497,4.818639517547323
6562,4.282658968317189
6628,3.8658375825024986
6694,3.30630461194097
6761,2.9866030397812935
6828,2.86760902591669
6897,2.9532288082735665
6966,2.4959400779484993
7035,2.0039917800216105
7106,1.4981228754564402
7177,0.8984790956724331
7249,-0.044934111055842774
7321,-0.6605836608224207
7394,-1.1475922851614304
7468,-1.9321885390494096
7543,-2.587639834146684
7618,-3.0082417148981393
7694,-3.064753781133507
7771,-2.7963558273264413
7849,-2.355443508554128
7928,-2.021981917256616
8007,-2.526239269053315
8087,-2.7507558513651973
8168,-2.8736163110794797
8250,-2.198461563488931
8332,-1.7690641600493926
8415,-1.2595712630971452
8499,-0.6578199370269533
8584,0.1722328423684698
8670,0.5473966645039483
8757,0.5471550100532907
8845,2.0371146361468124
8933,2.678834207130163
9022,2.458124493714672
9113,2.0061985361170382
9204,1.5256417318208264
9296,1.2754368215149765
9389,1.4755456272681813
9483,1.8365848377635885
9577,2.3506305549127613
9673,2.7220068581626693
9770,2.2989084562703166
9868,1.7137452666096835
9966,1.3938355437385699
10066,1.1599754867574679
10167,1.3710462385334465
10268,1.437357300321862
10371,1.7070518971391886
10475,1.6797854204164988
10579,1.6904893661416924
10685,1.7489015490806792
10792,1.9753940507143604
10900,2.0696470964584686
11009,2.141833105611635
11119,1.9935062144422186
11230,1.851654099700085
11343,1.6748851215699823
11456,1.4542415698261828
11571,0.6641302144728329
11686,0.2987114668480282
11803,-0.3725443752889208
11921,-1.2345072945674884
12040,-1.8720410518883415
12161,-2.3130130939746563
12282,-3.084394306933412
12405,-3.7978013519713625
12529,-4.2836200669335875
12655,-4.937331008095179
12781,-5.955185608083998
12909,-6.570660702824109
13038,-6.990716568370199
13168,-7.848022861045087
13300,-8.58252831436381
13433,-9.874895231981075
13567,-10.785603095179574
13703,-9.840610248378574
13840,-10.317346768866365
13978,-10.47633110733851
14118,-10.791199213822432
14259,-11.018394127103445
14402,-11.123784039616249
14546,-11.731789161253953
14692,-12.658060634998384
14838,-13.574702530250006
14987,-14.50494324854097
15137,-14.842277082121328
15288,-14.79074745227351
15441,-14.528396638778215
15595,-14.87378309577673
15751,-14.587567460779837
15909,-15.737543263393997
16068,-16.014029692391937
16229,-16.023740279051715
16391,-14.33596472735261
16555,-13.580438109684362
16720,-12.82711827223008
16888,-13.2110579814017
17056,-14.098417209934127
17227,-14.13159592791865
17399,-13.78722817213404
17573,-13.201142399518702
17749,-11.730905116183212
17926,-10.149273890931426
18106,-8.71926548882196
18287,-7.2340697764510375
18470,-6.543969102545044
18654,-6.37853062407782
18841,-6.6272105599039435
19029,-6.980106475884259
19220,-7.333521739485383
19412,-7.611675509742101
19606,-7.385648321196313
19802,-6.169348512425143
20000,-5.275677798461435
20200,-3.99881142456453
20402,-4.723837094015022
20606,-5.778699381657299
20812,-5.861871114919805
21020,-5.191474760596222
21230,-4.974274442952316
21443,-5.370463814395145
21657,-5.9872711383600015
21874,-6.588332521395779
22092,-7.450350960712439
22313,-8.465210018068358
22537,-9.205148229763662
22762,-9.844604132860315
22989,-11.0287141214169
23219,-12.010584568620803
23452,-12.403001944336541
23686,-12.435478899866524
23923,-12.733864805503153
24162,-16.648630601539498
24404,-21.638447008320018
24648,-26.62012289297278
24894,-31.593220600549504
25143,-36.57782895838416
25395,-41.57292002584505
25649,-46.55740327598751
25905,-51.53099914805211
26164,-56.51322705022774
26426,-61.503333385802975
26690,-66.48126380347261
26957,-71.46607587219529
27227,-76.4571097087782
27499,-81.43493306217218
27774,-86.41804533578092
28052,-91.40579246429947
28332,-96.37930212112995
28615,-101.35652608050296
28902,-106.35472392513273
29191,-111.33739023105599
29482,-116.30448228596276
29777,-121.29064614389621
