frequency,raw,error,smoothed,error_smoothed,equalization,equalized_raw,equalized_smoothed,target
20,-2.466106770952876,-4.113950526422223,-2.4209143718066692,-4.0687427806089,4.068742780608897,1.6026360096560208,1.6478284088022277,1.647843755469347
21,-1.5758310562492164,-3.223655852267395,-1.5718760522509951,-3.219703202420035,3.219703202420034,1.6438721461708177,1.647827150169039,1.6478247960181784
22,-0.7827492389648859,-2.4305492374502284,-0.8097972428614499,-2.4576095552668393,2.457609555266838,1.674860316301952,1.647812312405388,1.6477999984853424
23,-0.07814870811422991,-1.7259166647562032,-0.13467794363803387,-1.7824618391493132,1.782461839149313,1.7043131310350832,1.6477838955112791,1.6477679566419732
24,0.5378469710046873,-1.1098800403341595,0.4534818454192547,-1.194260054067454,1.1942600540674535,1.7321070250721409,1.6477418994867081,1.647727011338847
25,1.0407205342230812,-0.6069546848370928,0.9489139589621578,-0.698773841687317,0.6987738416873174,1.7394943759103985,1.647687800649475,1.647675219060174
26,1.3844303408349323,-0.2631799773450654,1.3582256499768983,-0.28939449452542154,0.28939449452542154,1.673824835360354,1.6476201445023198,1.6476103181799977
27,1.6470070222746127,-0.0005226709256782591,1.6876325658297762,0.04009520340196986,-0.04009520340196987,1.6069118188726428,1.6475373624278062,1.647529693200291
28,1.897914513779503,0.25048417826814573,1.9460095142050955,0.29857264342607553,-0.2985726434260755,1.5993418703534275,1.64743687077902,1.6474303355113573
29,2.1470423733035533,0.49973357037828503,2.1440270388053997,0.4967119890156931,-0.49671198901569324,1.65033038428786,1.6473150497897064,1.6473088029252683
30,2.2609502286285785,0.6137890525268319,2.290938989391368,0.6437711692304818,-0.6437711692304818,1.6171790593980968,1.6471678201608864,1.6471611761017466
31,2.339958265429376,0.6929752528312334,2.3951398118328022,0.7481493760180065,-0.7481493760180064,1.5918088894113698,1.646990435814796,1.6469830125981426
32,2.4835682855301253,0.8367989871136436,2.463403198552208,0.8166255563923501,-0.81662555639235,1.6669427291377752,1.646777642159858,1.6467692984164817
33,2.5493412238782693,0.902826826818075,2.5010676665046163,0.8545439917366459,-0.8545439917366457,1.6947972321416236,1.6465236747679706,1.6465143970601943
34,2.5493412238782684,0.9031292277038303,2.5127280538085612,0.8665058983640296,-0.8665058983640294,1.682835325514239,1.6462221554445318,1.6462119961744381
35,2.428079536314768,0.782224484598689,2.502562996790536,0.8566969540056975,-0.8566969540056976,1.5713825823090706,1.6458660427848386,1.645855051716079
36,2.4487665112345907,0.8033307814236972,2.474696580424825,0.8292490508360795,-0.8292490508360792,1.6195174603985114,1.6454475295887456,1.6454357298108935
37,2.4487665112345907,0.8038211648844311,2.4332485660571734,0.7882906079369529,-0.788290607936953,1.6604759032976375,1.6449579581202203,1.6449453463501595
38,2.4583633469049984,0.8139890424625342,2.3821524024649126,0.7377646519704337,-0.7377646519704337,1.7205986949345646,1.6443877504944788,1.6443743044424641
39,2.207387200889761,0.5636751710364791,2.3249174074159082,0.681191068990676,-0.681191068990676,1.526196131899085,1.6437263384252323,1.643712029853282
40,2.247617085947203,0.6046701813586157,2.2643875772296695,0.6214254755386067,-0.6214254755386065,1.6261916104085965,1.642962101691063,1.6429469045885874
41,2.2476170859470206,0.6055508871374875,2.202611797590617,0.5605294929981507,-0.5605294929981507,1.68708759294887,1.6420823045924666,1.642066198809533
42,2.147042373303422,0.505986372017158,2.1408480927765514,0.49977506366448604,-0.49977506366448626,1.6472673096389356,1.6410730291120652,1.6410560012862638
43,2.046467660661353,0.4065665120248392,2.0796766288706205,0.43975752304576743,-0.4397575230457675,1.6067101376155855,1.639919105824853,1.6399011486365138
44,2.0464676606649665,0.40788250703245277,2.0191884135373526,0.3805843716766588,-0.38058437167665876,1.6658832889883077,1.6386040418606937,1.6385851536325138
45,1.9025711617069847,0.26548102879887736,1.9592050361949123,0.3220950883517053,-0.3220950883517052,1.5804760733552796,1.6371099478432072,1.6370901329081073
46,1.928513634152083,0.2931168996938798,1.8994993907215842,0.26408192605517594,-0.26408192605517594,1.664431708096907,1.6354174646664084,1.6353967344582032
47,1.8453182353185558,0.21183416992028214,1.8399960320098945,0.20649034134511313,-0.20649034134511315,1.6388278939734426,1.6335056906647814,1.6334840653982736
48,1.837722618215972,0.20639299766955777,1.7809309158455955,0.14957880596684595,-0.14957880596684592,1.6881438122491261,1.6313521098787496,1.6313296205464143
49,1.6896035670774159,0.06069435457041217,1.7229496852380846,0.09401716334533132,-0.09401716334533132,1.5955864037320846,1.6289325218927533,1.6289092125070037
50,1.6441688102666565,0.01797190619083855,1.6671218418091955,0.04090086780306483,-0.04090086780306483,1.6032679424635916,1.6262209740061306,1.626196904075818
51,1.6441688108085355,0.021003866855908715,1.6148539312235564,-0.008335765507202757,0.00833576550720276,1.6525045763157382,1.623189696730759,1.6231649439526268
52,1.5243449767830786,-0.09543873015506144,1.5677022195142025,-0.052106824301192484,0.05210682430119248,1.576451801084271,1.619809043815395,1.61978370693814
53,1.5953136796618232,-0.020707960342807752,1.5271102553935352,-0.08893718285890682,0.08893718285890684,1.68425086252073,1.616047438252442,1.616021640004631
54,1.4430193843343415,-0.1688258315236555,1.494122312871088,-0.11774901305973971,0.11774901305973971,1.5607683973940811,1.6118713259308277,1.611845215857997
55,1.4430193798424271,-0.1641995160023184,1.4691413488391922,-0.1381037899834041,0.13810378998340408,1.5811231698258312,1.6072451388225963,1.6072188958447455
56,1.4430193730029242,-0.15908573128579517,1.4518021918696429,-0.15032907794449463,0.15032907794449468,1.5933484509474187,1.6021312698141377,1.6021051042887193
57,1.4430193669676783,-0.15344484958706706,1.4410120095026107,-0.15547805198767914,0.1554780519876791,1.5984974189553574,1.5964900614902897,1.5964642165547454
58,1.4430193686404125,-0.14723519467246504,1.4351708885015524,-0.1551089228428208,0.1551089228428208,1.5981282914832333,1.5902798113443732,1.5902545633128775
59,1.4430193879225912,-0.14041306567640555,1.4325340733783563,-0.1509227226136899,0.1509227226136899,1.5939421105362812,1.5834567959920463,1.5834324535989968
60,1.4430194338482385,-0.13293278546834242,1.4316295685358043,-0.1443457484589935,0.1443457484589935,1.5873651823072321,1.5759753169947976,1.575952219316581
61,1.4430195067728526,-0.12474677700977788,1.4316169706479571,-0.13617080018733385,0.13617080018733385,1.5791903069601865,1.567787770835291,1.5677662837826305
62,1.4430195874499057,-0.11580566932342506,1.432479467847969,-0.1263652775700678,0.1263652775700678,1.5693848650199735,1.558844745418037,1.5588252567733307
63,1.4430196266963111,-0.10605843156543648,1.4349846161651374,-0.11411052902037849,0.1141105290203785,1.5571301557166897,1.549095145185516,1.5490780582617476
64,1.443019542808054,-0.09545252984890573,1.4404197955027984,-0.09806655107442158,0.09806655107442158,1.5410860938824755,1.53848634657722,1.5384720726569596
65,1.4430192364239691,-0.08393409843171828,1.4501813392797658,-0.07678304561093133,0.0767830456109313,1.5198022820349004,1.526964384890697,1.5269533348556874
66,1.4430186317784708,-0.07144811703860432,1.4653446914478292,-0.049129481881953735,0.04912948188195375,1.4921481136604244,1.5144741733297828,1.514466748817075
67,1.4430177469271914,-0.05793859176468574,1.4863472395258412,-0.01461251490061727,0.014612514900617268,1.4576302618278087,1.5009597544264586,1.5009563386918772
68,1.5099600043758388,0.023594472564236746,1.5128734332260294,0.026508850693211926,-0.02650885069321192,1.483451153682627,1.4863645825328176,1.486365531811602
69,1.5300550453695516,0.05941757325731922,1.543959287965661,0.07332745297242999,-0.07332745297243,1.4567275923971217,1.470631834993231,1.4706374721122324
70,1.6441661752037129,0.19045081332513925,1.5782593935430635,0.12455464304555806,-0.12455464304555808,1.5196115321581547,1.4537047504975056,1.4537153618785736
71,1.6441687875909132,0.2086259584909469,1.6143725560152233,0.17884556102643268,-0.1788455610264327,1.4653232265644804,1.4355269949887906,1.4355428290999663
72,1.6441743194113891,0.2281100021349236,1.651117786360242,0.2350747315974222,-0.23507473159742215,1.409099587813967,1.4160430547628198,1.4160643172764655
73,1.6441830826595565,0.2489575884075621,1.6876872654320785,0.29248861593754577,-0.2924886159375457,1.3516944667220108,1.3951986494945328,1.3952254942519944
74,1.693404916087185,0.32043123947452123,1.7236589392482233,0.35071778643886925,-0.35071778643886925,1.3426871296483156,1.372941152809354,1.3729736766126637
75,1.772289669283356,0.423031402888554,1.758904233534582,0.4096842290995792,-0.4096842290995792,1.3626054401837768,1.3492200044350027,1.349258266394802
76,1.8453600871539897,0.5213288898549253,1.7934566087021264,0.46946950264507165,-0.46946950264507176,1.375890584508918,1.3239871060570547,1.3240311972990644
77,1.845353256961583,0.5481058686794507,1.8274059743936628,0.530208745398875,-0.530208745398875,1.3151445115627078,1.2971972289947877,1.2972473882821323
78,1.8453254863691175,0.5764602831202963,1.8608575008284656,0.5920489863983004,-0.5920489863983004,1.2532764999708172,1.268808514430165,1.2688652032488212
79,1.8452689098641202,0.606421993341933,1.8939543784223831,0.655171222598442,-0.6551712225984421,1.190097687265678,1.238783155823941,1.2388469165221871
80,1.9353297251874289,0.7281705404558221,1.9269281723576306,0.7198399267564224,-0.7198399267564224,1.2154897984310065,1.2070882456012082,1.2071591847316068
81,1.9456356121269824,0.7718620855130747,1.960120845111808,0.7864243064096949,-0.786424306409695,1.1592113057172875,1.173696538702113,1.1737735266139078
82,2.0460785718509173,0.9074117590076951,1.9939280330064304,0.8553413609266046,-0.8553413609266045,1.1907372109243128,1.138586672079826,1.1386668128432222
83,2.0459651455967043,0.9441433773356573,2.028644542383277,0.926902163095166,-0.9269021630951662,1.1190629825015381,1.1017423792881107,1.101821768261047
84,2.0459184832205315,0.9826909945744453,2.064242031527588,1.00109132347528,-1.0010913234752803,1.0448271597452512,1.0631507080523075,1.0632274886460862
85,2.046001630648384,1.023121657308053,2.100157622354324,1.0773573583779759,-1.077357358377976,0.9686442722704081,1.0228002639763478,1.022879973340331
86,2.1201817474773086,1.1393990739158006,2.1351991338171055,1.1545174637191966,-1.1545174637191966,0.965664283758112,0.9806816700979089,0.980782673561508
87,2.1474093912269283,1.2104623371736367,2.167658671870154,1.2308658380437192,-1.2308658380437192,0.9165435531832091,0.9367928338264349,0.9369470540532916
88,2.248842983637164,1.357449820759983,2.1956653528936654,1.3045150956933473,-1.3045150956933473,0.9443278879438166,0.891150257200318,0.891393162877181
89,2.2500114970121112,1.4058612962956638,2.217714873289289,1.3739106857119305,-1.3739106857119305,0.8761008113001807,0.8438041875773583,0.8441502007164474
90,2.251425454547657,1.4561683773590945,2.2332234458229285,1.4383726009275124,-1.4383726009275124,0.8130528536201447,0.7948508448954161,0.7952570771885625
91,2.252937717347737,1.5081747797932796,2.2429073842526477,1.498475901309118,-1.4984759013091176,0.7544618160386194,0.7444314829435301,0.7447629375544573
92,2.2543066216527103,1.5615789825210515,2.248816121609166,1.5561074918681568,-1.5561074918681566,0.6981991297845538,0.6927086297410094,0.6927276391316588
93,2.2551949264334112,1.6159727734656544,2.253945845146364,1.6141292834343315,-1.6141292834343317,0.6410656429990795,0.6398165617120322,0.6392221529677569
94,2.2551818155551913,1.670852952314668,2.2615020775729056,1.6757069245180647,-1.675706924518065,0.5794748910371263,0.5857951530548406,0.5843288632405232
95,2.2537887551085314,1.7256470203515661,2.2740085514259434,1.7434791633452669,-1.7434791633452666,0.5103095917632647,0.5305293880806767,0.5281417347569652
96,2.228638385831605,1.7578720676891968,2.2925238658063556,1.8187993943551373,-1.8187993943551368,0.4098389914764682,0.47372447145121876,0.4707663181424082
97,2.204669674826357,1.7923501117109835,2.316200317546463,1.9012576004510064,-1.9012576004510062,0.3034120743753508,0.41494271709545694,0.41231956311537354
98,2.370330250971703,2.017400838133622,2.3423132103979967,1.988601975212851,-1.988601975212851,0.38172827575885204,0.3537112351851457,0.3529294128380811
99,2.4665680986308782,2.173833941804351,2.3667469502119975,2.077064152731642,-2.0770641527316416,0.38950394589923665,0.28968279748035597,0.29273415682652715
100,2.4232247549535697,2.1913432286561547,2.3847998908697847,2.1619939183774326,-2.161993918377433,0.26123083657613666,0.22280597249235168,0.23188152629741499
101,2.3944582272111834,2.2239307032153093,2.3921035486023685,2.238657012999669,-2.238657012999669,0.1558012142115146,0.15344653560269972,0.17052752399587412
102,2.3743446312251977,2.265509640993829,2.385455146169053,2.30304648376711,-2.30304648376711,0.0712981474580876,0.08240866240194311,0.10883499023136878
104,2.3520538226198147,2.3670465301151666,2.3634159115211615,2.352583978353516,-2.3525839783535156,-0.0005301557337009655,0.010831933167645857,-0.014992707495351976
105,2.3282543679562595,2.4051903344862398,2.3265970173422543,2.3866166643295745,-2.3866166643295745,-0.058362296373315026,-0.06001964698732021,-0.07693596652998025
106,2.34081996161346,2.4794036499022525,2.277613161837298,2.4066351194810762,-2.406635119481076,-0.0658151578676156,-0.12902195764377788,-0.1385836882887923
107,2.2827342118776763,2.482501460094254,2.2207223703705736,2.4161543176237155,-2.4161543176237155,-0.13342010574603913,-0.19543194725314184,-0.19976724821657754
108,2.155418136611539,2.415740452385252,2.1611983547216336,2.4202316723372608,-2.4202316723372608,-0.26481353572572175,-0.2590333176156272,-0.2603223157737129
109,2.055490469682998,2.3755816166045483,2.104513012759952,2.424656464371421,-2.4246564643714215,-0.36916599468842337,-0.3201434516114694,-0.32009114692155016
110,1.9740485129110603,2.3529733372561337,2.055447837258561,2.4349298749060813,-2.434929874906081,-0.4608813619950205,-0.37948203764751964,-0.3789248243450736
111,1.9861440126427088,2.422829389010386,2.017293451852929,2.455237939318005,-2.455237939318005,-0.46909392667529626,-0.4379444874650762,-0.43668537636767724
112,1.9858528891654912,2.479100595720772,1.9913108822824677,2.487661095840278,-2.487661095840278,-0.5018082066747869,-0.4963502135578104,-0.4932477065552807
113,1.976976882021101,2.525478152394629,1.976593376871099,2.5318319202463213,-2.531831920246321,-0.55485503822522,-0.5552385433752218,-0.5485012703735279
114,1.9716732612666992,2.5740247041463427,1.9703796129190867,2.5851435502612445,-2.585143550261244,-0.6134702889945449,-0.6147639373421574,-0.6023514428796437
115,1.9697138710521616,2.6244344030690683,1.9687498644259307,2.643456144018997,-2.643456144018998,-0.6737422729668365,-0.6747062795930674,-0.6547205320169067
117,1.9707134388865528,2.7309745601443387,1.967526585033831,2.7021016306065784,-2.7021016306065775,-0.7313881917200247,-0.7345750455727464,-0.7602611212577859
118,1.9741725695472887,2.7825533873051076,1.9631423479398138,2.7569033016889177,-2.7569033016889164,-0.7827307321416277,-0.7937609537491026,-0.8083808177578189
119,1.9795283075096728,2.8343737165822755,1.9532567910564922,2.804939255637702,-2.8049392556377017,-0.825410948128029,-0.8516824645812096,-0.8548454090726025
120,2.0200588718755244,2.919712965464594,1.9369941719708552,2.8448810364565373,-2.8448810364565373,-0.824822164581013,-0.9078868644856821,-0.8996540935890698
121,1.9521905468838128,2.895012489450967,1.9147982179409402,2.8768879695766465,-2.876887969576647,-0.9246974226928342,-0.9620897516357068,-0.942821942567154
123,1.7781329150556244,2.8099098956026154,1.8880125768160467,2.902174283892851,-2.902174283892851,-1.1240413688372266,-1.0141617070768043,-1.031776980546991
124,1.8080755529058343,2.878534330584885,1.858354648988723,2.922441513467632,-2.922441513467633,-1.1143659605617986,-1.0640868644789099,-1.0704587776790508
125,1.8155601759505244,2.923176863659939,1.827444898058616,2.9393650767940827,-2.9393650767940818,-1.1238049008435573,-1.1119201787354658,-1.1076166877094145
126,1.8226257381711453,2.9659447945352087,1.7964976630591774,2.954257979522364,-2.9542579795223634,-1.131632241351218,-1.157760316463186,-1.1433190563640632
128,1.867360127014969,3.085825032183507,1.766205170917483,2.967945385908204,-2.967945385908205,-1.1005852588932359,-1.2017402149907217,-1.218464905168538
129,1.7594962524737083,3.0096782711487116,1.7367860689164578,2.980811396740843,-2.980811396740843,-1.2213151442671346,-1.2440253278243851,-1.2501820186750034
130,1.6142507108746351,2.89494598476481,1.7081390053914842,2.9929449824288463,-2.9929449824288468,-1.3786942715542116,-1.2848059770373625,-1.2806952738901747
131,1.6244726788458317,2.934565320644805,1.6800366000213005,3.0043125807468636,-3.0043125807468636,-1.379839901901032,-1.324275980725563,-1.3100926417989736
133,1.6498425748529693,3.022755782398865,1.6523018719773477,3.0149023842146065,-3.014902384214607,-1.3650598093616377,-1.3626005122372593,-1.3729132075458956
134,1.654179849812509,3.0533032369036084,1.624918493873846,3.0248037309556315,-3.0248037309556315,-1.3706238811431224,-1.3998852370817856,-1.3991233870910995
135,1.6585350349754155,3.0830308365609826,1.5980395546073456,3.034200449615698,-3.034200449615698,-1.3756654146402822,-1.4361608950083522,-1.424495801585567
137,1.6413666457063227,3.1202241239444306,1.5718848724639107,3.0432764962547756,-3.0432764962547756,-1.4019098505484529,-1.4713916237908649,-1.4788574782381079
138,1.4785774987002065,2.9802522619343144,1.5465579621088161,3.0520628178285127,-3.0520628178285127,-1.5734853191283062,-1.5055048557196966,-1.5016747632341079
140,1.464139994013794,3.014557035910035,1.5218604511493725,3.0602911904325936,-3.0602911904325936,-1.5961511964187995,-1.538430739283221,-1.5504170418962406
141,1.4661064620221942,3.0371916958591063,1.4972093436567606,3.067344163765836,-3.0673441637658354,-1.6012377017436412,-1.5701348201090748,-1.5710852338369121
142,1.4668457352514266,3.05813900338792,1.471744703523936,3.072376019848167,-3.0723760198481664,-1.6055302845967399,-1.6006313163242305,-1.5912932681364933
144,1.4670834108882205,3.1008054882883047,1.444644087256596,3.074617764882275,-3.074617764882274,-1.6075343539940534,-1.629973677625678,-1.6337220774000842
145,1.4669571906836003,3.119177645124345,1.415558194649822,3.073787538565875,-3.0737875385658753,-1.606830347882275,-1.6582293439160534,-1.6522204544407448
147,1.4842202995159623,3.174649258380221,1.3849959377183603,3.070447743634376,-3.0704477436343764,-1.586227444118414,-1.6854518059160162,-1.6904289588642585
148,1.3505111318904173,3.0579442964165438,1.354464577278062,3.0661273465972845,-3.0661273465972836,-1.7156162147068663,-1.7116627693192217,-1.7074331645261265
150,1.241945012310328,2.9838010582104655,1.3262358373081544,3.0630871140410783,-3.063087114041079,-1.8211421017307512,-1.7368512767329247,-1.7418560459001373
151,1.2648642266866623,3.022345149977655,1.3027460727213518,3.0637340824416106,-3.0637340824416106,-1.7988698557549483,-1.7609880097202588,-1.7574809232909923
153,1.2651345313767404,3.05356904081479,1.285794388086086,3.0698403895482995,-3.0698403895482995,-1.8047058581715592,-1.7840460014622135,-1.78843450943805
154,1.2656661767513628,3.068356808414323,1.2758090540913731,3.081825841072281,-3.081825841072281,-1.8161596643209181,-1.8060167869809078,-1.8026906316629603
156,1.2663551424042307,3.0967255236821654,1.271459515838089,3.0983736444336123,-3.0983736444336123,-1.8320185020293815,-1.8269141285955233,-1.8303703812779348
157,1.2670166559414104,3.110187242545982,1.2697901279772825,3.116554000350151,-3.11655400035015,-1.8495373444087395,-1.8467638723728674,-1.8431705866045713
159,1.267398448062314,3.135060265030863,1.2668777779649143,3.1324627622128345,-3.1324627622128354,-1.8650643141505214,-1.865584984247921,-1.8676618169685493
