frequency,raw,error,smoothed,error_smoothed,equalization,parametric_eq,fixed_band_eq,equalized_raw,equalized_smoothed,target
20.00,4.05,-5.77,4.00,-5.82,5.42,4.82,1.56,9.47,9.42,9.82
20.20,4.32,-5.48,4.35,-5.45,5.26,4.80,1.61,9.58,9.61,9.80
20.40,4.59,-5.19,4.65,-5.13,5.12,4.77,1.66,9.71,9.77,9.78
20.61,4.84,-4.92,4.89,-4.87,5.00,4.74,1.71,9.84,9.89,9.77
20.81,5.13,-4.62,5.13,-4.62,4.90,4.71,1.76,10.02,10.02,9.74
21.02,5.35,-4.39,5.24,-4.49,4.81,4.68,1.81,10.15,10.05,9.73
21.23,5.20,-4.52,5.22,-4.50,4.74,4.65,1.87,9.93,9.96,9.71
21.44,5.03,-4.67,5.06,-4.64,4.68,4.62,1.93,9.72,9.75,9.70
21.66,4.89,-4.80,4.86,-4.82,4.72,4.59,1.98,9.61,9.58,9.69
21.87,4.73,-4.94,4.75,-4.92,4.76,4.56,2.04,9.49,9.52,9.67
22.09,4.68,-4.98,4.72,-4.94,4.80,4.52,2.11,9.47,9.51,9.66
22.31,4.79,-4.86,4.77,-4.88,4.80,4.49,2.17,9.59,9.56,9.65
22.54,4.88,-4.75,4.87,-4.77,4.75,4.46,2.23,9.63,9.62,9.64
22.76,5.00,-4.63,4.99,-4.63,4.65,4.43,2.30,9.64,9.64,9.62
22.99,5.11,-4.51,5.12,-4.50,4.50,4.40,2.37,9.61,9.62,9.61
23.22,5.26,-4.35,5.26,-4.34,4.34,4.36,2.44,9.60,9.60,9.60
23.45,5.43,-4.17,5.43,-4.17,4.18,4.33,2.51,9.61,9.61,9.60
23.69,5.58,-4.01,5.59,-4.00,4.04,4.30,2.58,9.62,9.63,9.59
23.92,5.75,-3.84,5.73,-3.86,3.91,4.26,2.66,9.66,9.63,9.59
24.16,5.83,-3.76,5.82,-3.76,3.80,4.23,2.73,9.63,9.62,9.59
24.40,5.88,-3.71,5.89,-3.70,3.72,4.20,2.81,9.59,9.61,9.59
24.65,5.93,-3.66,5.93,-3.65,3.66,4.16,2.89,9.58,9.59,9.58
24.89,5.98,-3.61,5.97,-3.61,3.61,4.13,2.96,9.59,9.58,9.58
25.14,6.00,-3.58,5.99,-3.58,3.58,4.09,3.04,9.58,9.58,9.58
25.39,6.01,-3.57,6.01,-3.57,3.56,4.06,3.12,9.57,9.57,9.58
25.65,6.02,-3.56,6.02,-3.56,3.54,4.02,3.20,9.55,9.55,9.58
25.91,6.03,-3.56,6.03,-3.55,3.51,3.99,3.28,9.54,9.54,9.59
26.16,6.06,-3.53,6.05,-3.53,3.49,3.95,3.36,9.55,9.55,9.58
26.43,6.09,-3.50,6.10,-3.49,3.48,3.91,3.44,9.57,9.58,9.58
26.69,6.13,-3.45,6.13,-3.45,3.48,3.88,3.51,9.61,9.61,9.58
26.96,6.17,-3.41,6.14,-3.44,3.49,3.84,3.59,9.66,9.63,9.58
27.23,6.12,-3.46,6.11,-3.46,3.52,3.80,3.66,9.63,9.63,9.57
27.50,6.04,-3.54,6.04,-3.53,3.55,3.77,3.73,9.59,9.60,9.57
27.77,5.96,-3.61,5.96,-3.61,3.60,3.73,3.80,9.56,9.56,9.57
28.05,5.89,-3.68,5.89,-3.67,3.65,3.69,3.86,9.54,9.55,9.57
28.33,5.84,-3.72,5.83,-3.73,3.71,3.65,3.92,9.54,9.53,9.55
28.62,5.79,-3.77,5.78,-3.77,3.75,3.61,3.98,9.53,9.53,9.55
28.90,5.74,-3.81,5.75,-3.80,3.77,3.58,4.03,9.51,9.52,9.55
29.19,5.74,-3.81,5.75,-3.80,3.78,3.54,4.08,9.51,9.52,9.55
29.48,5.78,-3.77,5.77,-3.78,3.77,3.50,4.11,9.54,9.53,9.54
29.78,5.81,-3.73,5.81,-3.73,3.74,3.46,4.15,9.55,9.55,9.54
30.08,5.85,-3.69,5.85,-3.69,3.70,3.42,4.18,9.55,9.55,9.54
30.38,5.89,-3.65,5.88,-3.65,3.66,3.38,4.20,9.55,9.54,9.53
30.68,5.92,-3.60,5.92,-3.60,3.61,3.34,4.21,9.53,9.53,9.52
30.99,5.96,-3.56,5.96,-3.56,3.56,3.30,4.22,9.52,9.52,9.52
31.30,6.00,-3.51,5.99,-3.51,3.52,3.26,4.22,9.51,9.51,9.50
31.61,6.03,-3.47,6.03,-3.47,3.47,3.22,4.21,9.50,9.50,9.50
31.93,6.07,-3.43,6.07,-3.42,3.43,3.18,4.19,9.49,9.49,9.49
32.24,6.11,-3.37,6.11,-3.38,3.38,3.14,4.17,9.49,9.49,9.48
32.57,6.15,-3.33,6.15,-3.33,3.34,3.10,4.14,9.49,9.49,9.48
32.89,6.20,-3.28,6.19,-3.28,3.30,3.06,4.11,9.49,9.49,9.47
33.22,6.24,-3.23,6.23,-3.24,3.24,3.01,4.07,9.48,9.47,9.47
33.55,6.28,-3.19,6.27,-3.19,3.18,2.97,4.02,9.46,9.45,9.46
33.89,6.32,-3.15,6.33,-3.13,3.11,2.93,3.96,9.42,9.44,9.47
34.23,6.41,-3.06,6.41,-3.05,3.02,2.89,3.91,9.42,9.43,9.46
34.57,6.52,-2.94,6.51,-2.95,2.91,2.85,3.84,9.43,9.42,9.46
34.92,6.62,-2.84,6.63,-2.83,2.80,2.80,3.78,9.42,9.43,9.46
35.27,6.75,-2.70,6.76,-2.69,2.68,2.76,3.70,9.43,9.44,9.45
35.62,6.90,-2.56,6.90,-2.56,2.56,2.72,3.63,9.46,9.46,9.46
35.97,7.04,-2.42,7.02,-2.44,2.46,2.67,3.55,9.50,9.48,9.45
36.33,7.10,-2.35,7.11,-2.33,2.39,2.63,3.47,9.49,9.51,9.45
36.70,7.16,-2.28,7.16,-2.28,2.35,2.59,3.39,9.51,9.51,9.44
37.06,7.19,-2.25,7.15,-2.28,2.35,2.54,3.31,9.53,9.50,9.43
37.43,7.10,-2.32,7.11,-2.31,2.37,2.50,3.22,9.46,9.47,9.41
37.81,7.02,-2.39,7.03,-2.38,2.40,2.45,3.14,9.41,9.42,9.41
38.19,6.94,-2.45,6.93,-2.46,2.42,2.41,3.05,9.35,9.34,9.39
38.57,6.88,-2.49,6.87,-2.50,2.41,2.37,2.97,9.29,9.28,9.37
38.95,6.82,-2.54,6.85,-2.50,2.38,2.32,2.88,9.19,9.23,9.35
39.34,6.90,-2.44,6.89,-2.44,2.33,2.28,2.80,9.23,9.22,9.33
39.74,7.01,-2.32,6.99,-2.33,2.27,2.23,2.72,9.28,9.27,9.32
40.14,7.13,-2.17,7.17,-2.13,2.21,2.18,2.63,9.34,9.38,9.31
40.54,7.30,-1.98,7.32,-1.97,2.13,2.14,2.55,9.43,9.45,9.29
40.94,7.49,-1.79,7.37,-1.90,2.04,2.09,2.47,9.52,9.41,9.28
41.35,7.35,-1.92,7.31,-1.95,1.95,2.05,2.39,9.30,9.27,9.27
41.76,7.16,-2.09,7.23,-2.02,1.90,2.00,2.31,9.05,9.13,9.24
42.18,7.15,-2.09,7.25,-1.99,1.88,1.95,2.23,9.02,9.13,9.23
42.60,7.39,-1.84,7.37,-1.86,1.87,1.90,2.16,9.26,9.24,9.23
43.03,7.60,-1.62,7.46,-1.76,1.87,1.86,2.08,9.47,9.33,9.22
43.46,7.46,-1.75,7.47,-1.74,1.85,1.81,2.01,9.30,9.32,9.21
43.90,7.32,-1.89,7.37,-1.83,1.81,1.76,1.94,9.13,9.18,9.20
44.33,7.30,-1.89,7.29,-1.90,1.77,1.71,1.87,9.06,9.05,9.19
44.78,7.32,-1.86,7.34,-1.84,1.72,1.66,1.80,9.04,9.06,9.18
45.23,7.43,-1.74,7.49,-1.68,1.68,1.62,1.74,9.12,9.17,9.17
45.68,7.66,-1.50,7.61,-1.54,1.64,1.57,1.67,9.29,9.25,9.16
46.13,7.75,-1.39,7.63,-1.51,1.59,1.52,1.61,9.34,9.22,9.14
46.60,7.57,-1.56,7.59,-1.53,1.54,1.47,1.55,9.11,9.13,9.13
47.06,7.44,-1.67,7.61,-1.50,1.48,1.42,1.49,8.92,9.09,9.11
47.53,7.68,-1.42,7.67,-1.42,1.42,1.37,1.43,9.09,9.09,9.09
48.01,7.92,-1.16,7.72,-1.35,1.35,1.32,1.37,9.27,9.08,9.08
48.49,7.73,-1.32,7.73,-1.32,1.30,1.26,1.31,9.03,9.03,9.05
48.97,7.54,-1.49,7.71,-1.32,1.25,1.21,1.26,8.79,8.96,9.03
49.46,7.75,-1.26,7.74,-1.26,1.19,1.16,1.21,8.94,8.93,9.01
49.96,7.97,-1.00,7.89,-1.09,1.13,1.11,1.15,9.10,9.02,8.98
50.46,8.01,-0.95,8.02,-0.94,1.08,1.06,1.10,9.08,9.09,8.96
50.96,8.02,-0.92,7.97,-0.97,1.04,1.00,1.05,9.05,9.00,8.94
51.47,7.89,-1.03,7.88,-1.04,1.01,0.95,1.00,8.89,8.88,8.91
51.99,7.75,-1.14,7.89,-1.00,0.97,0.90,0.95,8.71,8.86,8.89
52.51,7.93,-0.93,7.92,-0.94,0.92,0.84,0.90,8.85,8.84,8.87
53.03,8.11,-0.74,7.93,-0.91,0.87,0.79,0.85,8.98,8.81,8.84
53.56,7.92,-0.90,7.95,-0.87,0.84,0.73,0.81,8.75,8.79,8.82
54.10,7.81,-0.99,7.96,-0.83,0.79,0.68,0.76,8.60,8.75,8.79
54.64,8.05,-0.71,8.02,-0.74,0.74,0.62,0.71,8.79,8.76,8.77
55.18,8.22,-0.52,8.15,-0.58,0.68,0.57,0.67,8.89,8.83,8.74
55.74,8.22,-0.49,8.18,-0.53,0.63,0.51,0.62,8.84,8.81,8.71
56.29,8.13,-0.55,8.10,-0.58,0.58,0.45,0.57,8.70,8.67,8.68
56.86,7.95,-0.70,8.08,-0.57,0.52,0.39,0.52,8.47,8.60,8.65
57.42,8.08,-0.54,8.11,-0.51,0.46,0.34,0.48,8.54,8.57,8.62
58.00,8.32,-0.28,8.14,-0.45,0.41,0.28,0.43,8.72,8.55,8.60
58.58,8.17,-0.40,8.20,-0.36,0.36,0.22,0.38,8.52,8.56,8.56
59.16,8.11,-0.42,8.23,-0.30,0.31,0.16,0.33,8.42,8.54,8.53
59.76,8.30,-0.19,8.27,-0.22,0.25,0.10,0.28,8.56,8.53,8.49
60.35,8.40,-0.06,8.35,-0.10,0.17,0.04,0.23,8.57,8.52,8.46
60.96,8.42,-0.00,8.35,-0.08,0.09,-0.03,0.18,8.50,8.43,8.42
61.57,8.26,-0.13,8.31,-0.08,0.01,-0.09,0.13,8.27,8.32,8.38
62.18,8.21,-0.14,8.32,-0.02,-0.05,-0.15,0.07,8.16,8.27,8.34
62.80,8.45,0.15,8.38,0.08,-0.10,-0.22,0.02,8.34,8.27,8.29
63.43,8.52,0.26,8.49,0.23,-0.16,-0.28,-0.04,8.36,8.33,8.25
64.07,8.52,0.31,8.55,0.34,-0.22,-0.34,-0.09,8.30,8.33,8.21
64.71,8.52,0.36,8.46,0.30,-0.29,-0.41,-0.15,8.23,8.17,8.16
65.35,8.43,0.31,8.40,0.29,-0.37,-0.48,-0.21,8.06,8.03,8.11
66.01,8.26,0.20,8.40,0.34,-0.44,-0.54,-0.27,7.82,7.96,8.06
66.67,8.49,0.48,8.45,0.44,-0.49,-0.61,-0.34,7.99,7.96,8.01
67.33,8.61,0.66,8.55,0.60,-0.55,-0.68,-0.40,8.06,8.00,7.95
68.01,8.62,0.71,8.64,0.74,-0.61,-0.75,-0.46,8.00,8.02,7.90
68.69,8.62,0.77,8.57,0.72,-0.70,-0.82,-0.53,7.92,7.87,7.84
69.37,8.53,0.74,8.52,0.73,-0.79,-0.89,-0.60,7.73,7.72,7.79
70.07,8.40,0.67,8.53,0.80,-0.88,-0.96,-0.67,7.52,7.65,7.73
70.77,8.64,0.96,8.58,0.91,-0.95,-1.03,-0.74,7.69,7.63,7.67
71.48,8.72,1.10,8.67,1.06,-1.01,-1.10,-0.81,7.71,7.67,7.62
72.19,8.72,1.16,8.74,1.18,-1.07,-1.18,-0.88,7.65,7.67,7.55
72.91,8.72,1.22,8.69,1.20,-1.15,-1.25,-0.96,7.57,7.55,7.50
73.64,8.64,1.20,8.63,1.19,-1.24,-1.33,-1.03,7.39,7.39,7.44
74.38,8.59,1.21,8.62,1.25,-1.34,-1.40,-1.11,7.25,7.28,7.38
75.12,8.61,1.30,8.66,1.35,-1.42,-1.48,-1.19,7.18,7.23,7.31
75.87,8.79,1.54,8.73,1.49,-1.49,-1.55,-1.27,7.29,7.24,7.24
76.63,8.82,1.63,8.80,1.62,-1.55,-1.63,-1.35,7.27,7.25,7.18
77.40,8.82,1.70,8.84,1.73,-1.61,-1.71,-1.43,7.21,7.23,7.12
78.17,8.82,1.76,8.82,1.77,-1.69,-1.79,-1.52,7.13,7.13,7.05
78.95,8.82,1.83,8.76,1.78,-1.78,-1.87,-1.60,7.04,6.98,6.99
79.74,8.69,1.77,8.69,1.78,-1.87,-1.95,-1.69,6.82,6.82,6.92
80.54,8.63,1.78,8.69,1.84,-1.97,-2.03,-1.78,6.66,6.73,6.85
81.35,8.72,1.94,8.73,1.95,-2.06,-2.11,-1.87,6.66,6.67,6.78
82.16,8.92,2.21,8.85,2.14,-2.15,-2.19,-1.96,6.77,6.70,6.71
82.98,8.92,2.28,8.97,2.33,-2.23,-2.28,-2.06,6.68,6.74,6.64
83.81,9.07,2.50,9.02,2.45,-2.31,-2.36,-2.16,6.75,6.70,6.57
84.65,9.01,2.51,8.98,2.49,-2.39,-2.44,-2.25,6.61,6.58,6.49
85.50,8.89,2.48,8.93,2.52,-2.47,-2.53,-2.35,6.42,6.46,6.41
86.35,8.82,2.48,8.81,2.48,-2.54,-2.61,-2.46,6.28,6.27,6.33
87.22,8.79,2.53,8.75,2.49,-2.60,-2.70,-2.56,6.18,6.14,6.26
88.09,8.67,2.49,8.75,2.57,-2.67,-2.79,-2.67,6.00,6.09,6.18
88.97,8.81,2.70,8.80,2.70,-2.74,-2.87,-2.77,6.07,6.06,6.10
89.86,8.91,2.89,8.86,2.85,-2.82,-2.96,-2.88,6.08,6.04,6.01
90.76,8.93,2.99,8.93,3.00,-2.93,-3.05,-3.00,5.99,6.00,5.93
91.66,8.93,3.08,8.93,3.09,-3.04,-3.13,-3.11,5.88,5.89,5.84
92.58,8.93,3.16,8.93,3.17,-3.16,-3.22,-3.23,5.77,5.77,5.76
93.51,8.93,3.25,8.93,3.25,-3.25,-3.31,-3.34,5.67,5.67,5.67
94.44,8.93,3.34,8.93,3.34,-3.34,-3.40,-3.46,5.59,5.59,5.58
95.39,8.93,3.44,8.93,3.44,-3.42,-3.49,-3.58,5.51,5.51,5.49
96.34,8.92,3.52,8.91,3.52,-3.51,-3.58,-3.71,5.41,5.41,5.40
97.30,8.90,3.60,8.87,3.57,-3.60,-3.66,-3.83,5.30,5.27,5.29
98.28,8.83,3.63,8.84,3.65,-3.70,-3.75,-3.96,5.13,5.15,5.20
99.26,8.80,3.70,8.86,3.76,-3.80,-3.84,-4.09,5.00,5.06,5.10
100.25,8.94,3.94,8.89,3.90,-3.90,-3.93,-4.22,5.03,4.99,4.99
101.25,8.96,4.07,8.94,4.05,-4.01,-4.02,-4.35,4.94,4.92,4.89
102.27,8.95,4.16,8.96,4.17,-4.13,-4.11,-4.48,4.82,4.83,4.78
103.29,8.93,4.25,8.93,4.25,-4.24,-4.20,-4.61,4.68,4.68,4.68
104.32,8.91,4.33,8.90,4.33,-4.36,-4.28,-4.74,4.55,4.55,4.57
105.37,8.89,4.42,8.88,4.42,-4.45,-4.37,-4.87,4.44,4.43,4.47
106.42,8.87,4.51,8.89,4.53,-4.52,-4.46,-5.00,4.35,4.37,4.36
107.48,8.88,4.63,8.89,4.63,-4.58,-4.55,-5.13,4.30,4.31,4.25
108.56,8.92,4.76,8.86,4.71,-4.63,-4.64,-5.25,4.28,4.23,4.16
109.64,8.78,4.72,8.79,4.74,-4.69,-4.72,-5.38,4.08,4.09,4.05
110.74,8.68,4.73,8.67,4.72,-4.76,-4.81,-5.50,3.91,3.91,3.95
111.85,8.58,4.72,8.59,4.74,-4.84,-4.89,-5.62,3.74,3.75,3.85
112.97,8.55,4.79,8.60,4.84,-4.92,-4.98,-5.73,3.63,3.68,3.76
114.10,8.69,5.02,8.65,4.98,-5.00,-5.06,-5.85,3.68,3.64,3.67
115.24,8.74,5.16,8.71,5.13,-5.10,-5.15,-5.95,3.64,3.61,3.58
116.39,8.74,5.25,8.75,5.26,-5.20,-5.23,-6.05,3.53,3.55,3.48
117.55,8.75,5.34,8.75,5.35,-5.31,-5.31,-6.15,3.43,3.43,3.40
118.73,8.75,5.44,8.75,5.44,-5.43,-5.40,-6.24,3.32,3.32,3.31
119.92,8.76,5.53,8.76,5.53,-5.53,-5.48,-6.32,3.22,3.22,3.23
121.12,8.77,5.62,8.76,5.62,-5.63,-5.56,-6.39,3.14,3.13,3.15
122.33,8.78,5.71,8.77,5.70,-5.72,-5.63,-6.46,3.05,3.05,3.07
123.55,8.78,5.78,8.78,5.78,-5.81,-5.71,-6.52,2.97,2.97,2.99
124.79,8.79,5.87,8.79,5.87,-5.89,-5.79,-6.57,2.90,2.90,2.91
126.03,8.80,5.96,8.82,5.99,-5.96,-5.87,-6.62,2.83,2.86,2.84
127.29,8.85,6.09,8.83,6.07,-6.03,-5.94,-6.65,2.81,2.80,2.76
128.57,8.87,6.18,8.82,6.13,-6.10,-6.02,-6.68,2.77,2.72,2.68
129.85,8.75,6.14,8.78,6.17,-6.16,-6.09,-6.70,2.58,2.62,2.61
131.15,8.72,6.18,8.74,6.20,-6.23,-6.16,-6.72,2.49,2.51,2.54
132.46,8.73,6.26,8.71,6.25,-6.29,-6.23,-6.72,2.44,2.42,2.46
133.79,8.73,6.33,8.72,6.33,-6.35,-6.30,-6.73,2.38,2.38,2.39
135.12,8.73,6.41,8.73,6.41,-6.41,-6.37,-6.72,2.32,2.32,2.32
136.48,8.74,6.49,8.73,6.48,-6.47,-6.44,-6.71,2.26,2.26,2.25
137.84,8.74,6.55,8.74,6.56,-6.55,-6.51,-6.70,2.19,2.19,2.18
139.22,8.74,6.63,8.74,6.63,-6.63,-6.57,-6.68,2.11,2.11,2.10
140.61,8.74,6.70,8.74,6.70,-6.71,-6.63,-6.66,2.02,2.02,2.04
142.02,8.74,6.77,8.73,6.77,-6.79,-6.70,-6.64,1.95,1.94,1.96
143.44,8.74,6.85,8.74,6.85,-6.86,-6.76,-6.62,1.88,1.88,1.89
144.87,8.74,6.92,8.76,6.94,-6.92,-6.82,-6.59,1.82,1.84,1.81
146.32,8.78,7.02,8.76,7.01,-6.98,-6.88,-6.57,1.80,1.78,1.75
147.78,8.77,7.09,8.74,7.06,-7.03,-6.93,-6.54,1.74,1.70,1.68
149.26,8.68,7.07,8.70,7.09,-7.08,-6.99,-6.52,1.59,1.62,1.61
150.75,8.64,7.09,8.65,7.11,-7.13,-7.04,-6.50,1.50,1.52,1.54
152.26,8.64,7.16,8.63,7.15,-7.18,-7.10,-6.48,1.45,1.45,1.47
153.78,8.64,7.22,8.63,7.22,-7.24,-7.15,-6.46,1.40,1.40,1.42
155.32,8.64,7.28,8.64,7.28,-7.29,-7.20,-6.44,1.34,1.34,1.35
156.88,8.64,7.35,8.63,7.34,-7.35,-7.25,-6.42,1.28,1.28,1.29
158.44,8.64,7.41,8.64,7.41,-7.41,-7.29,-6.42,1.22,1.22,1.23
160.03,8.64,7.47,8.65,7.49,-7.47,-7.34,-6.41,1.17,1.18,1.16
161.63,8.66,7.56,8.65,7.55,-7.52,-7.39,-6.40,1.13,1.13,1.09
163.24,8.66,7.62,8.63,7.60,-7.57,-7.43,-6.40,1.09,1.06,1.03
164.88,8.59,7.61,8.60,7.62,-7.61,-7.47,-6.41,0.97,0.98,0.97
166.53,8.54,7.62,8.55,7.64,-7.65,-7.51,-6.41,0.89,0.90,0.92
168.19,8.53,7.66,8.52,7.66,-7.69,-7.55,-6.43,0.84,0.83,0.86
169.87,8.52,7.71,8.51,7.71,-7.73,-7.59,-6.44,0.79,0.79,0.81
171.57,8.51,7.75,8.51,7.76,-7.76,-7.63,-6.47,0.74,0.74,0.75
173.29,8.51,7.81,8.50,7.80,-7.80,-7.66,-6.49,0.71,0.70,0.70
175.02,8.50,7.84,8.50,7.85,-7.84,-7.70,-6.53,0.66,0.67,0.66
176.77,8.50,7.89,8.50,7.90,-7.87,-7.73,-6.56,0.62,0.63,0.61
178.54,8.52,7.96,8.49,7.93,-7.91,-7.76,-6.61,0.61,0.58,0.56
180.32,8.47,7.95,8.47,7.95,-7.95,-7.79,-6.65,0.52,0.52,0.52
182.13,8.43,7.94,8.44,7.96,-7.98,-7.82,-6.70,0.45,0.46,0.48
183.95,8.42,7.97,8.42,7.97,-8.01,-7.85,-6.76,0.41,0.41,0.45
185.79,8.43,8.01,8.43,8.02,-8.03,-7.87,-6.82,0.40,0.40,0.41
187.65,8.44,8.06,8.44,8.06,-8.04,-7.90,-6.89,0.39,0.40,0.38
189.52,8.46,8.11,8.44,8.09,-8.05,-7.92,-6.96,0.40,0.38,0.34
191.42,8.42,8.10,8.42,8.10,-8.07,-7.94,-7.03,0.35,0.34,0.32
193.33,8.38,8.09,8.37,8.09,-8.09,-7.96,-7.12,0.29,0.29,0.29
195.27,8.33,8.07,8.33,8.07,-8.11,-7.98,-7.20,0.22,0.23,0.26
197.22,8.31,8.08,8.31,8.08,-8.12,-8.00,-7.29,0.18,0.19,0.23
199.19,8.32,8.12,8.31,8.11,-8.13,-8.02,-7.38,0.18,0.18,0.20
201.18,8.33,8.15,8.33,8.16,-8.14,-8.03,-7.47,0.18,0.19,0.17
203.19,8.34,8.19,8.33,8.19,-8.16,-8.05,-7.57,0.18,0.18,0.15
205.23,8.34,8.22,8.32,8.20,-8.17,-8.06,-7.67,0.16,0.14,0.12
207.28,8.28,8.18,8.28,8.19,-8.19,-8.07,-7.78,0.08,0.09,0.09
209.35,8.24,8.17,8.25,8.18,-8.21,-8.08,-7.88,0.03,0.04,0.07
211.44,8.23,8.19,8.23,8.20,-8.21,-8.09,-7.99,0.02,0.02,0.04
213.56,8.23,8.21,8.22,8.21,-8.21,-8.10,-8.09,0.02,0.02,0.01
215.69,8.23,8.25,8.20,8.22,-8.20,-8.11,-8.20,0.03,0.01,-0.02
217.85,8.15,8.19,8.17,8.21,-8.19,-8.12,-8.30,-0.04,-0.02,-0.04
220.03,8.13,8.20,8.12,8.19,-8.18,-8.12,-8.41,-0.05,-0.06,-0.07
222.23,8.08,8.17,8.07,8.16,-8.18,-8.12,-8.51,-0.10,-0.11,-0.09
224.45,8.02,8.13,8.04,8.15,-8.18,-8.13,-8.61,-0.16,-0.14,-0.11
226.70,8.02,8.15,8.01,8.15,-8.18,-8.13,-8.70,-0.17,-0.17,-0.13
228.96,8.02,8.17,8.01,8.16,-8.18,-8.13,-8.78,-0.17,-0.17,-0.15
231.25,8.03,8.18,8.03,8.19,-8.19,-8.13,-8.86,-0.16,-0.16,-0.16
233.57,8.04,8.21,8.04,8.22,-8.19,-8.13,-8.94,-0.15,-0.14,-0.18
235.90,8.05,8.24,8.04,8.23,-8.18,-8.12,-9.00,-0.14,-0.14,-0.19
238.26,8.03,8.22,8.01,8.21,-8.17,-8.12,-9.06,-0.15,-0.17,-0.20
240.64,7.96,8.16,7.97,8.17,-8.16,-8.11,-9.10,-0.21,-0.20,-0.20
243.05,7.91,8.11,7.92,8.13,-8.15,-8.11,-9.14,-0.25,-0.23,-0.21
245.48,7.91,8.12,7.89,8.10,-8.14,-8.10,-9.16,-0.23,-0.25,-0.21
247.93,7.87,8.08,7.87,8.09,-8.12,-8.09,-9.17,-0.26,-0.25,-0.22
250.41,7.86,8.08,7.87,8.09,-8.10,-8.08,-9.17,-0.25,-0.23,-0.22
252.92,7.88,8.10,7.87,8.10,-8.09,-8.07,-9.16,-0.21,-0.21,-0.22
255.45,7.89,8.12,7.88,8.11,-8.07,-8.06,-9.13,-0.19,-0.20,-0.24
258.00,7.87,8.10,7.86,8.10,-8.06,-8.04,-9.10,-0.19,-0.20,-0.24
260.58,7.81,8.06,7.81,8.06,-8.05,-8.03,-9.05,-0.25,-0.24,-0.25
263.19,7.76,8.02,7.75,8.02,-8.04,-8.01,-9.00,-0.29,-0.29,-0.26
265.82,7.70,7.98,7.71,7.99,-8.03,-8.00,-8.93,-0.33,-0.32,-0.28
268.48,7.70,7.99,7.69,7.99,-8.01,-7.98,-8.86,-0.32,-0.32,-0.29
271.16,7.69,8.00,7.69,8.00,-7.99,-7.96,-8.77,-0.31,-0.31,-0.31
273.87,7.69,8.01,7.68,8.01,-7.98,-7.94,-8.68,-0.29,-0.30,-0.32
276.61,7.66,8.00,7.64,7.99,-7.96,-7.92,-8.58,-0.31,-0.32,-0.34
279.38,7.60,7.96,7.59,7.95,-7.95,-7.90,-8.48,-0.35,-0.36,-0.36
282.17,7.53,7.90,7.54,7.91,-7.93,-7.88,-8.38,-0.41,-0.39,-0.37
284.99,7.50,7.88,7.52,7.90,-7.91,-7.85,-8.27,-0.41,-0.39,-0.38
287.84,7.51,7.88,7.50,7.88,-7.87,-7.83,-8.15,-0.37,-0.37,-0.38
290.72,7.52,7.90,7.47,7.85,-7.84,-7.80,-8.04,-0.32,-0.37,-0.39
293.63,7.40,7.79,7.43,7.81,-7.80,-7.78,-7.93,-0.40,-0.37,-0.39
296.57,7.35,7.74,7.37,7.76,-7.76,-7.75,-7.81,-0.41,-0.39,-0.39
299.53,7.35,7.73,7.32,7.71,-7.73,-7.72,-7.70,-0.38,-0.40,-0.39
302.53,7.29,7.68,7.29,7.68,-7.69,-7.69,-7.58,-0.40,-0.40,-0.39
305.55,7.25,7.64,7.25,7.64,-7.65,-7.66,-7.47,-0.40,-0.40,-0.39
308.61,7.19,7.58,7.21,7.60,-7.61,-7.63,-7.36,-0.42,-0.40,-0.40
311.69,7.19,7.59,7.18,7.58,-7.57,-7.60,-7.26,-0.39,-0.40,-0.40
314.81,7.16,7.57,7.15,7.56,-7.54,-7.56,-7.15,-0.39,-0.40,-0.41
317.96,7.11,7.52,7.10,7.52,-7.52,-7.53,-7.05,-0.41,-0.41,-0.42
321.14,7.05,7.47,7.05,7.47,-7.48,-7.49,-6.96,-0.44,-0.43,-0.42
324.35,7.00,7.41,7.01,7.43,-7.45,-7.46,-6.86,-0.45,-0.43,-0.42
327.59,6.99,7.41,6.98,7.41,-7.41,-7.42,-6.77,-0.42,-0.42,-0.42
330.87,6.98,7.40,6.96,7.39,-7.36,-7.38,-6.69,-0.38,-0.40,-0.43
334.18,6.91,7.34,6.91,7.34,-7.31,-7.34,-6.61,-0.41,-0.40,-0.43
337.52,6.86,7.29,6.83,7.27,-7.26,-7.30,-6.54,-0.40,-0.43,-0.44
340.90,6.73,7.17,6.76,7.19,-7.20,-7.26,-6.46,-0.48,-0.45,-0.44
344.30,6.68,7.11,6.70,7.14,-7.15,-7.21,-6.40,-0.47,-0.45,-0.43
347.75,6.68,7.10,6.64,7.08,-7.09,-7.17,-6.34,-0.41,-0.45,-0.43
351.23,6.61,7.05,6.60,7.03,-7.03,-7.13,-6.28,-0.42,-0.43,-0.44
354.74,6.52,6.94,6.54,6.97,-6.97,-7.08,-6.23,-0.45,-0.42,-0.43
358.28,6.49,6.92,6.49,6.91,-6.91,-7.03,-6.18,-0.42,-0.42,-0.43
361.87,6.45,6.87,6.44,6.86,-6.86,-6.99,-6.14,-0.41,-0.42,-0.42
365.49,6.41,6.82,6.39,6.81,-6.81,-6.94,-6.10,-0.40,-0.41,-0.42
369.14,6.33,6.75,6.33,6.74,-6.76,-6.89,-6.07,-0.43,-0.43,-0.42
372.83,6.28,6.68,6.28,6.69,-6.71,-6.84,-6.04,-0.43,-0.43,-0.40
376.56,6.23,6.63,6.25,6.65,-6.66,-6.79,-6.02,-0.43,-0.41,-0.41
380.33,6.23,6.64,6.22,6.62,-6.61,-6.73,-6.00,-0.39,-0.40,-0.41
384.13,6.21,6.62,6.17,6.58,-6.57,-6.68,-5.98,-0.36,-0.40,-0.41
387.97,6.10,6.51,6.12,6.53,-6.52,-6.63,-5.97,-0.43,-0.40,-0.41
391.85,6.05,6.45,6.06,6.48,-6.48,-6.57,-5.96,-0.43,-0.42,-0.41
395.77,6.03,6.45,6.01,6.42,-6.43,-6.51,-5.95,-0.41,-0.43,-0.42
399.73,5.97,6.39,5.96,6.39,-6.39,-6.46,-5.95,-0.42,-0.42,-0.42
403.72,5.90,6.32,5.90,6.34,-6.34,-6.40,-5.95,-0.44,-0.43,-0.42
407.76,5.85,6.29,5.84,6.28,-6.28,-6.34,-5.95,-0.44,-0.45,-0.45
411.84,5.77,6.22,5.78,6.23,-6.23,-6.28,-5.96,-0.46,-0.44,-0.45
415.96,5.73,6.18,5.72,6.18,-6.17,-6.22,-5.97,-0.44,-0.45,-0.45
420.12,5.68,6.14,5.65,6.11,-6.11,-6.16,-5.97,-0.43,-0.46,-0.46
424.32,5.57,6.02,5.60,6.06,-6.04,-6.09,-5.98,-0.48,-0.44,-0.46
428.56,5.55,5.99,5.54,5.99,-5.98,-6.03,-5.99,-0.43,-0.44,-0.45
432.85,5.51,5.94,5.47,5.91,-5.91,-5.97,-6.00,-0.40,-0.44,-0.43
437.18,5.40,5.82,5.43,5.84,-5.84,-5.90,-6.01,-0.44,-0.41,-0.42
441.55,5.37,5.75,5.38,5.76,-5.77,-5.83,-6.02,-0.41,-0.40,-0.38
445.96,5.37,5.71,5.35,5.69,-5.71,-5.77,-6.02,-0.34,-0.36,-0.34
450.42,5.34,5.63,5.35,5.64,-5.65,-5.70,-6.02,-0.31,-0.30,-0.30
454.93,5.34,5.58,5.34,5.58,-5.59,-5.63,-6.02,-0.25,-0.25,-0.25
459.48,5.35,5.53,5.33,5.53,-5.53,-5.56,-6.02,-0.18,-0.19,-0.19
464.07,5.33,5.47,5.33,5.48,-5.47,-5.49,-6.01,-0.14,-0.13,-0.14
468.71,5.33,5.42,5.33,5.41,-5.41,-5.42,-6.00,-0.08,-0.08,-0.09
473.40,5.33,5.36,5.32,5.35,-5.35,-5.34,-5.98,-0.02,-0.03,-0.03
478.13,5.31,5.28,5.31,5.29,-5.28,-5.27,-5.95,0.02,0.03,0.03
482.91,5.30,5.22,5.29,5.22,-5.21,-5.20,-5.92,0.08,0.08,0.07
487.74,5.26,5.14,5.24,5.13,-5.13,-5.12,-5.88,0.12,0.11,0.11
492.62,5.21,5.05,5.21,5.06,-5.05,-5.04,-5.84,0.16,0.16,0.15
497.55,5.13,4.93,5.17,4.99,-4.97,-4.97,-5.79,0.16,0.21,0.19
502.52,5.17,4.96,5.11,4.89,-4.89,-4.89,-5.73,0.28,0.22,0.21
507.55,5.06,4.82,5.03,4.80,-4.82,-4.81,-5.66,0.24,0.21,0.24
512.62,4.91,4.66,4.96,4.71,-4.75,-4.73,-5.58,0.16,0.21,0.25
517.75,4.88,4.63,4.89,4.64,-4.68,-4.65,-5.50,0.19,0.20,0.25
522.93,4.87,4.62,4.84,4.60,-4.61,-4.57,-5.41,0.25,0.23,0.25
528.16,4.81,4.58,4.80,4.57,-4.53,-4.49,-5.32,0.27,0.27,0.23
533.44,4.71,4.50,4.72,4.52,-4.45,-4.40,-5.21,0.26,0.27,0.20
