frequency,raw,error,smoothed,error_smoothed,equalization,equalized_raw,equalized_smoothed,target
20,-8.940127087386141,-13.060747837994054,-8.919361468791527,-13.040000463969784,5.999999999999999,-2.9401270873861423,-2.9193614687915277,4.120620750607913
21,-8.381866432901425,-12.534101577610757,-8.358516284949902,-12.510740805463515,6.0,-2.3818664329014254,-2.3585162849499017,4.152235144709332
22,-7.778117833111279,-11.958566313134774,-7.824815907702237,-12.005242326063359,5.999999999999999,-1.7781178331112795,-1.824815907702238,4.180448480023496
23,-7.303077559745966,-11.508336910067504,-7.318260337048534,-11.523505025769316,6.0,-1.303077559745966,-1.3182603370485344,4.205259350321538
24,-6.794100096652887,-11.020766193107121,-6.838849572988787,-11.06552890458137,5.9999999999999964,-0.7941000966528904,-0.8388495729887904,4.2266660964542355
25,-6.348448309966264,-10.59311508487206,-6.388601785178973,-10.63334048591335,6.0,-0.34844830996626364,-0.3886017851789729,4.244666774905798
26,-5.9808092463618445,-10.240068370412105,-5.965074555831753,-10.224492962073214,6.0,0.019190753638155478,0.03492544416824739,4.259259124050261
27,-5.592266826974705,-9.862776300685248,-5.5660812857121496,-9.836791383441629,5.999999999999999,0.407733173025294,0.43391871428784956,4.270509473710542
28,-5.172248701345299,-9.450610341931247,-5.188690506993173,-9.467284808182129,6.0,0.8277512986547011,0.811309493006827,4.278361640585948
29,-4.8733998032697405,-9.156186494781451,-4.829662631507736,-9.112698652399104,6.000000000000002,1.1266001967302612,1.170337368492266,4.282786691511712
30,-4.5240059562052055,-8.807743644866001,-4.486711802363571,-8.770695257001336,6.0,1.4759940437947945,1.5132881976364292,4.2837376886607945
31,-4.101792404345177,-8.382939271220057,-4.1583468179979075,-8.439711844837825,5.999999999999999,1.8982075956548226,1.8416531820020916,4.281146866874879
32,-3.895016080942296,-8.169940362468761,-3.844149914239927,-8.119239447206539,5.999999999999999,2.104983919057703,2.155850085760072,4.274924281526465
33,-3.550826498290025,-7.815785118698219,-3.544655475446686,-7.809703443831722,6.0,2.449173501709975,2.455344524553314,4.264958620408194
34,-3.215424271626203,-7.466556327561241,-3.2609927536089263,-7.512110057976994,5.999999999999998,2.7845757283737953,2.739007246391072,4.251132055935038
35,-3.0209611992672323,-7.254275760525369,-2.9946103472324985,-7.227777127040104,6.000000000000001,2.9790388007327686,3.0053896527675024,4.233314561258136
36,-2.7185595170728503,-6.929934634576175,-2.746932142011183,-6.957998482187421,5.999999999999999,3.281440482927149,3.253067857988816,4.211375117503325
37,-2.556202433529576,-6.741394638466398,-2.519084327024638,-6.703781679387685,6.0,3.443797566470424,3.480915672975362,4.185192204936822
38,-2.30692060947338,-6.461587060612824,-2.311694750904921,-6.465660223670682,6.000000000000001,3.693079390526621,3.68830524909508,4.154666451139444
39,-2.057632860185631,-6.177367950031396,-2.1247511401692654,-6.2435665368536215,5.9617045975196055,3.9040717373339744,3.83695345735034,4.119735089845765
40,-2.0022355825661657,-6.082623344485629,-1.9575606182730598,-6.036807749871985,5.881689014772366,3.8794534322062004,3.9241283964993063,4.0803877619194635
41,-1.7820756427769802,-5.818760554818043,-1.8088158291237173,-5.844149029352744,5.763232306927279,3.9811566641502987,3.9544164778035613,4.036684912041063
42,-1.671946646240407,-5.660722074193993,-1.6767684171108066,-5.6640044197653205,5.626277511256701,3.954330865016294,3.9495090941458946,3.9887754279535863
43,-1.5058364957029462,-5.442750381082332,-1.5594742642724995,-5.494698664757115,5.483277552988607,3.977441057285661,3.9238032887161074,3.9369138853793864
44,-1.5291428316905118,-5.4106189345078715,-1.4550325866626803,-5.334721043440629,5.334721043440629,3.805578211750117,3.8796884567779486,3.881476102817359
45,-1.4125492198414635,-5.235521060340534,-1.3617310879323488,-5.18288229456062,5.18288229456062,3.770333074719156,3.821151206628271,3.8229718404990702
46,-1.2828683383687638,-5.044921773493131,-1.2780313930823648,-5.038307731801639,5.038307731801639,3.7554393934328756,3.7602763387192746,3.762053435124368
47,-1.115540116264958,-4.815059304991964,-1.202389367619181,-4.90026011476463,4.900260114764629,3.7847199984996713,3.697870747145448,3.699519188727006
48,-1.1103394129958786,-4.746650146299524,-1.1329808125563123,-4.767861877368482,4.767861877368482,3.657522464372603,3.6348810648121694,3.6363107333036453
49,-1.0659421106334506,-4.639445651800077,-1.067460130407588,-4.639843640431821,4.639843640431822,3.5739015297983716,3.5723835100242343,3.573503541166627
50,-1.0093297776967156,-4.521619932105796,-1.0028904352372576,-4.514457095624066,4.514457095624065,3.5051273179273497,3.5115666603868076,3.5122901544090803
51,-1.0106243124537109,-4.464580351057174,-0.9359369077626845,-4.389644009169968,4.389644009169969,3.3790196967162585,3.453707101407285,3.453956038603463
52,-0.811194112411579,-4.211042463890027,-0.8633265540819113,-4.263464819843496,4.263464819843495,3.452270707431916,3.400138265761584,3.3998483514784477
53,-0.8111941124334804,-4.162532428068786,-0.782478415231826,-4.13469157919211,4.13469157919211,3.32349746675863,3.3522131639602843,3.351338315635306
54,-0.7348579263048438,-4.044636194288916,-0.6921355268398721,-4.0033976131513755,4.0033976131513755,3.2685396868465317,3.3112620863115034,3.309778267984073
55,-0.6066466864079829,-3.8831015332705685,-0.5928105572471718,-3.8713572639002827,3.8713572639002836,3.2647105774923006,3.2785467066531115,3.2764548468625856
56,-0.5120488263964703,-3.764588913009998,-0.48689698290061445,-3.742109300585121,3.742109300585122,3.2300604741886514,3.2552123176845074,3.2525400866135277
57,-0.41233373271661816,-3.6513761665395714,-0.3783825494788903,-3.620622704593309,3.6206227045933086,3.2082889718766903,3.2422401551144184,3.239042433822953
58,-0.2564482441564429,-3.493208094778771,-0.27220338398420574,-3.512605289756612,3.512605289756612,3.256157045600169,3.240401905772406,3.2367598506223283
59,-0.12413742038935331,-3.3703746361679765,-0.17336582704649162,-3.4235843573949243,3.4235843573949243,3.299446937005571,3.2502185303484326,3.2462372157786232
60,0.009125711895350004,-3.25860445295669,-0.08601887862026486,-3.3579443356903926,3.357944335690393,3.367070047585743,3.2719254570701284,3.26773016485204
61,-0.011127624060406951,-3.312304946911272,-0.012672911217218141,-3.318118928400591,3.3181189284005916,3.3069913043401846,3.3054460171833737,3.301177322850865
62,-0.013473113373990868,-3.359655699070694,0.046268378690547535,-3.30410632324507,3.3041063232450703,3.2906332098710793,3.3503747019356176,3.346182585696703
63,0.1460710854165726,-3.255937624466593,0.09255767550651132,-3.3134137602094715,3.313413760209472,3.4594848456260445,3.4059714357159834,3.4020087098831655
64,0.08624194169925532,-3.3813410504660384,0.12971409871628733,-3.341453500207116,3.3414535002071166,3.427695441906372,3.471167598923404,3.4675829921652936
65,0.26572881480235316,-3.275786471936336,0.16226303558991895,-3.382320984035065,3.3823209840350645,3.648049798837418,3.5445840196249834,3.541515286738689
66,0.18595613038477368,-3.4361719137433417,0.19475595300594517,-3.429804659404499,3.4298046594044997,3.6157607897892734,3.624560612410445,3.6221280441281154
67,0.14037581787821768,-3.5671216763449904,0.230773450383568,-3.4784233537025937,3.478423353702593,3.6187991715808105,3.7091968040861607,3.707497494223208
68,0.1707143815267274,-3.6247901846078663,0.2721243462752775,-3.52427703134967,3.5242770313496696,3.694991412876397,3.7964013776249472,3.7955045661345936
69,0.28566879988982447,-3.59822486953646,0.31841489247148547,-3.565535024782913,3.5655350247829127,3.851203824672737,3.883949917254398,3.8838936694262842
70,0.38538444795286203,-3.58495263302481,0.3670827408994572,-3.6024649341915653,3.6024649341915653,3.9878493821444274,3.9695476750910226,3.970337080977672
71,0.48510216005516055,-3.5674002505329936,0.4138898719179579,-3.6370055505574155,3.6370055505574155,4.122107710612576,4.0508954224753735,4.052502410588154
72,0.48510769187563657,-3.643012779692669,0.45377281224239085,-3.671982895568947,3.671982895568947,4.157090587444584,4.125755707811337,4.128120471568305
73,0.485116455123804,-3.7099344127749783,0.48187755076911076,-3.710139370427128,3.7101393704271275,4.195255825550931,4.192016921196238,4.195050867898782
74,0.48512759557376095,-3.766215131785318,0.4945722611810256,-3.753180411469225,3.753180411469225,4.238308007042986,4.24775267265025,4.251342727359079
75,0.48513843896176584,-3.810149813963605,0.4902360091283531,-3.801038208985079,3.8010382089850783,4.286176647946844,4.291274218113431,4.295288252925371
76,0.5259170249937494,-3.7995500931842687,0.46966211790870777,-3.8515118941121527,3.8515118941121527,4.377428919105902,4.321174012020861,4.325467118178018
77,0.49889789305231735,-3.8418822826893337,0.4359863298910204,-3.900372594034015,3.9003725940340153,4.399270487086333,4.336358923925036,4.340780175741651
78,0.3853943338309081,-3.9550771215700915,0.3941449744654755,-3.9419272195197705,3.9419272195197697,4.327321553350678,4.336072193985245,4.3404714554009995
79,0.35931013671955075,-3.964827835127744,0.34997356167989335,-3.969930169138951,3.9699301691389524,4.329240305858503,4.3199037308188455,4.3241379718472945
80,0.2855332045538632,-4.0061942065042935,0.3091483180740925,-3.9786404560959756,3.9786404560959765,4.26417366064984,4.287788774170069,4.291727411058156
81,0.185699547514895,-4.057824742200473,0.2762207974601778,-3.9637744233393617,3.9637744233393626,4.149473970854258,4.239995220799541,4.243524289715368
82,0.1855677945951539,-3.9945578622039397,0.25397402561407245,-3.9231261315741954,3.9231261315741968,4.108693926169351,4.177100157188269,4.180125656799094
83,0.18545436834094026,-3.916953439153979,0.2432348220170801,-3.8567217106718985,3.8567217106718994,4.042176079012839,4.09995653268898,4.102407807494919
84,0.34495186550892504,-3.6665339234616976,0.2431368259628628,-3.7665148536615844,3.766514853661585,4.11146671917051,4.009651679624447,4.011485788970623
85,0.30203893786799807,-3.606628745830539,0.25169274284063536,-3.655767866065898,3.655767866065899,3.957806803933897,3.9074606089065345,3.908667683698537
86,0.28548947164312694,-3.5099162820170893,0.26645547817919224,-3.5283428023461516,3.528342802346151,3.813832273989278,3.7947982805253435,3.795405753660216
87,0.28438285356463083,-3.388863665817495,0.28505647596570827,-3.3881189765876147,3.3881189765876147,3.6725018301522456,3.673175452553323,3.673246519382126
88,0.22706882098008024,-3.316712917875124,0.305497228397292,-3.2386640356644567,3.238664035664457,3.4657328566445376,3.5441612640617493,3.543781738855204
89,0.29014604005165584,-3.11845601578725,0.3261915905332523,-3.083160501862592,3.083160501862592,3.3733065419142476,3.409352092395844,3.4086020558389056
90,0.38919545143473505,-2.8800593704400876,0.34585542209688414,-2.9244859981940454,2.924485998194046,3.3136814496287808,3.2703414202909302,3.2692548218748225
91,0.390707714234815,-2.736499567171281,0.3633757997098003,-2.7653058764255793,2.7653058764255793,3.156013590660394,3.1286816761353795,3.1272072814060956
92,0.3920766185397884,-2.5917393474298467,0.3777584516539839,-2.6080708234748013,2.608070823474801,3.0001474420145895,2.985829275128785,2.9838159659696353
93,0.39296492332048966,-2.447337869361738,0.38817843194801116,-2.4548920335804305,2.45489203358043,2.8478569569009196,2.843070465528441,2.8403027926822273
94,0.39295181244226834,-2.3047862114994757,0.39408997750487607,-2.307347368898404,2.3073473688984043,2.7002991813406725,2.7014373464032806,2.697738023941744
95,0.39155875199560924,-2.1654711846018144,0.3953211540106273,-2.166315116147341,2.166315116147341,2.5578738681429503,2.5616362701579685,2.5570299365974236
96,0.3882878904354505,-2.0306328930884883,0.39209466106875124,-2.0319235677506366,2.0319235677506366,2.420211458186087,2.4240182288193877,2.4189207835239386
97,0.38266955677090825,-1.9013188614542316,0.38495845321482747,-1.9036584018589018,1.9036584018589013,2.2863279586298098,2.288616855073729,2.2839884182251398
98,0.3743136611813637,-1.7783391379687803,0.37464923366404745,-1.7806131132012775,1.780613113201278,2.1549267743826417,2.1552623468653254,2.152652799150144
99,0.36295878517312935,-1.6622277107733872,0.3619280728471804,-1.6618248063726246,1.6618248063726244,2.024783591545754,2.023752879219805,2.0251864959465165
100,0.348512680026636,-1.5532156021252395,0.34741962564267936,-1.546619099096054,1.5466190990960547,1.8951317791226907,1.894038724738734,1.9017282821518755
101,0.33107879881090596,-1.4512201130124347,0.33147131219864295,-1.4348889000887366,1.4348889000887366,1.7659676988996424,1.7663602122873796,1.7822989118233408
102,0.3109652028249203,-1.3558530300093694,0.31404510854044193,-1.3272420827833626,1.3272420827833624,1.6382072856082828,1.6412871913238043,1.6668182328342898
104,0.28867439421953706,-1.2044838575722079,0.294667705629732,-1.2249675497421233,1.2249675497421233,1.5136419439616604,1.5196352553718553,1.493158251791745
105,0.26487493955598196,-1.1200634306725408,0.2724819982914404,-1.1297922449568247,1.1297922449568245,1.3946671845128065,1.4022742432482649,1.3849383702285227
106,0.24035779670402244,-1.0397619629023802,0.2464408925683338,-1.0434421954244841,1.043442195424484,1.2837999921285064,1.2898830879928176,1.2801197596064027
107,0.21598177552821515,-0.9624078591244545,0.21564694994804964,-0.967080039251079,0.967080039251079,1.1830618147792942,1.1827269891991286,1.1783896346526697
108,0.192613420854939,-0.8868030324582787,0.17977375269078782,-0.9007551533871979,0.9007551533871981,1.093368574242137,1.080528906077986,1.0794164533132178
109,0.1710668078705144,-0.811796354144662,0.13943607413591785,-0.843042270931085,0.8430422709310851,1.0141090788015994,0.9824783450670029,0.9828631620151764
110,0.150565951852871,-0.7378328796471294,0.09634679000424387,-0.791029996950753,0.791029996950753,0.9415959488036241,0.8873767869549969,0.8883988315000004
111,0.04806690844982704,-0.7476417281523098,0.05313888298347333,-0.7407376401946862,0.7407376401946862,0.7888045486445133,0.7938765231781596,0.7957086366021369
112,-0.0003496666699130315,-0.704851847874232,0.012839563637190046,-0.6879031918310476,0.6879031918310479,0.6875535251611349,0.7007427554682379,0.7045021812043191
113,-0.0846833205220217,-0.6992035217756654,-0.02187743060394033,-0.6289435745565863,0.6289435745565862,0.5442602540345646,0.6070661439526459,0.6145202012536437
114,-0.08998694127642341,-0.6155266385953035,-0.049426546566984836,-0.5618006775677697,0.5618006775677699,0.47181373629134643,0.512374131000785,0.5255396973188802
115,-0.09194633149096104,-0.5293238890754179,-0.06977350133073218,-0.48639879287684307,0.4863987928768431,0.3944524613858821,0.41662529154611094,0.43737755758445696
117,-0.09094676365656931,-0.3861267840592164,-0.08444918633313425,-0.4045571334161286,0.4045571334161285,0.31361036975955914,0.3201079470829942,0.2951800204026471
118,-0.08748763299583388,-0.29688658410526353,-0.09609598290873986,-0.31938548136070755,0.3193854813607075,0.2318978483648736,0.22328949845196763,0.20939895110942963
119,-0.08213189503345002,-0.20631989696059888,-0.10770031745875043,-0.2343695166114308,0.23436951661143074,0.1522376215779807,0.12666919915268032,0.12418800192714885
120,-0.07545346851335327,-0.11497855559529208,-0.12177693179762406,-0.15245167351407218,0.15245167351407218,0.07699820500071891,0.03067474171644813,0.0395250870819388
121,-0.05927087497901212,-0.014697017545052316,-0.13977471345549292,-0.07539369265047234,0.07539369265047235,0.016122817671460232,-0.06438102080502056,-0.04457385743395981
123,-0.1544513467578568,0.02100570831301793,-0.1618734403581249,-0.0035816087212283765,0.003581608721228379,-0.15086973803662843,-0.15829183163689653,-0.17545705507087472
124,-0.29158973341702854,-0.03464802580776705,-0.18718445804308625,0.06373831833998317,-0.06373831833998315,-0.3553280517570117,-0.2509227763830694,-0.2569417076092615
125,-0.25672827959679767,0.08089107403088602,-0.2142255609920134,0.12794902434944486,-0.12794902434944488,-0.38467730394624255,-0.3421745853414583,-0.3376193536276837
126,-0.2373152385148188,0.18005758977724487,-0.24146736384759904,0.19049679083273746,-0.1904967908327374,-0.42781202934755624,-0.43196415468033644,-0.4173728282920637
128,-0.2307267138395877,0.30616932848620876,-0.26776454534891136,0.2524585069053718,-0.2524585069053719,-0.4831852207449596,-0.5202230522542832,-0.5368960423257965
129,-0.25438980643420467,0.3587104002995492,-0.2925674438748611,0.31433629027490306,-0.3143362902749031,-0.5687260967091078,-0.6069037341497643,-0.6131002067337539
130,-0.31867781446257937,0.36931222433797417,-0.3159097201687902,0.3760698806992082,-0.37606988069920827,-0.6947476951617877,-0.6919796008679985,-0.6879900388005535
131,-0.3408133640435721,0.42062372399314174,-0.3382415814726873,0.43718920148915486,-0.4371892014891548,-0.778002565532727,-0.7754307829618421,-0.7614370880367138
133,-0.40837917597584067,0.4593950879893471,-0.3602045631880306,0.49701379788715694,-0.4970137978871571,-0.9053929738629978,-0.8572183610751878,-0.8677742639651878
134,-0.4040419010163006,0.5327356184086429,-0.38242926873540184,0.5548295852260499,-0.5548295852260499,-0.9588714862423504,-0.9372588539614517,-0.9367775194249435
135,-0.40020855359006063,0.6038404257967656,-0.4054023825371793,0.6100105979041492,-0.6100105979041492,-1.0102191514942098,-1.0154129804413285,-1.0040489793868261
137,-0.3969407324095466,0.7023273430394346,-0.4294141539150957,0.6620827361436661,-0.6620827361436661,-1.0590234685532127,-1.0914968900587618,-1.0992680754489812
138,-0.3942950516722615,0.7674829802657597,-0.45457321492553476,0.7107404422731367,-0.7107404422731367,-1.1050354939453981,-1.1653136571986715,-1.161778031938021
140,-0.49202006259363684,0.7569297678871287,-0.4808618484677789,0.7558311740634323,-0.755831174063432,-1.2478512366570689,-1.236693022531211,-1.2489498304807656
141,-0.5236612332732733,0.7830484885727675,-0.5081986513177975,0.797324561639771,-0.797324561639771,-1.3209857949130441,-1.3055232129575685,-1.3067097218460408
142,-0.5896567897202241,0.7729618646244547,-0.5364781214487411,0.835284210739645,-0.8352842107396452,-1.4249410004598693,-1.3717623321883863,-1.3626186543446788
144,-0.5894191140834297,0.849904260943968,-0.5655723916851716,0.8698538268852428,-0.8698538268852428,-1.4592729409686727,-1.4354262185704143,-1.4393233750273977
145,-0.5895453342880501,0.9011084703015924,-0.5953081776414759,0.9012517534368805,-0.9012517534368804,-1.4907970877249306,-1.4965599310783562,-1.4906538045896425
147,-0.5898728159644864,0.9703703384263629,-0.6254590539464528,0.9297471798076402,-0.9297471798076399,-1.5196199957721261,-1.5552062337540926,-1.5602431543908493
148,-0.5637273471811658,1.0434500172423116,-0.6558002638686191,0.9555838906592371,-0.9555838906592369,-1.5193112378404026,-1.611384154527856,-1.6071773644234773
150,-0.6945587415135238,0.975525195781003,-0.6862466485071579,0.9788380883694263,-0.9788380883694268,-1.6733968298829507,-1.6650847368765846,-1.6700839372945269
151,-0.8159734309119284,0.896778406630387,-0.7170380044087683,0.9992444403350265,-0.9992444403350266,-1.815217871246955,-1.7162824447437948,-1.7127518375423154
153,-0.7896487677377564,0.9796634379010716,-0.7488772836283099,1.016076365376605,-1.016076365376605,-1.8057251331143613,-1.764953649004915,-1.769312205638828
154,-0.7891171223631335,1.0186234904932667,-0.7829045479470558,1.0281868202507916,-1.0281868202507918,-1.8173039426139252,-1.8110913681978476,-1.8077406128564002
156,-0.7884281567102656,1.069728540565545,-0.8204319997887041,1.0342764868485483,-1.0342764868485488,-1.8227046435588143,-1.8547084866372527,-1.8581566972758106
157,-0.8018450468531325,1.0904080508464422,-0.8624682892911338,1.0333597369515668,-1.0333597369515666,-1.835204783804699,-1.8958280262427003,-1.8922530976995748
159,-0.8870999507672805,1.0494948939096957,-0.9091808477234326,1.0252846282165224,-1.0252846282165224,-1.912384578983803,-1.9344654759399549,-1.9365948446769763
