frequency,raw,error,smoothed,error_smoothed,equalization,parametric_eq,fixed_band_eq,equalized_raw,equalized_smoothed,target
20.00,8.37,-0.10,8.37,-0.10,0.10,-0.22,-0.16,8.47,8.47,8.47
20.20,8.38,-0.08,8.38,-0.08,0.08,-0.23,-0.17,8.46,8.46,8.46
20.40,8.39,-0.06,8.39,-0.06,0.06,-0.23,-0.17,8.45,8.45,8.45
20.61,8.40,-0.04,8.40,-0.03,0.03,-0.24,-0.17,8.43,8.43,8.44
20.81,8.41,-0.01,8.41,-0.01,0.01,-0.24,-0.18,8.42,8.42,8.42
21.02,8.42,0.01,8.42,0.01,-0.01,-0.25,-0.18,8.41,8.41,8.41
21.23,8.43,0.03,8.43,0.03,-0.03,-0.25,-0.18,8.40,8.40,8.40
21.44,8.44,0.03,8.44,0.05,-0.05,-0.26,-0.19,8.39,8.39,8.41
21.66,8.45,0.06,8.45,0.07,-0.07,-0.26,-0.19,8.38,8.38,8.39
21.87,8.46,0.08,8.46,0.09,-0.09,-0.27,-0.19,8.37,8.38,8.38
22.09,8.47,0.11,8.47,0.11,-0.11,-0.27,-0.20,8.36,8.37,8.36
22.31,8.49,0.13,8.49,0.12,-0.12,-0.28,-0.20,8.37,8.36,8.36
22.54,8.50,0.15,8.50,0.14,-0.14,-0.28,-0.21,8.36,8.36,8.35
22.76,8.51,0.16,8.51,0.16,-0.16,-0.29,-0.21,8.35,8.35,8.35
22.99,8.52,0.18,8.52,0.17,-0.17,-0.29,-0.21,8.35,8.35,8.34
23.22,8.53,0.20,8.53,0.19,-0.19,-0.30,-0.22,8.34,8.34,8.33
23.45,8.54,0.20,8.54,0.20,-0.20,-0.30,-0.22,8.34,8.34,8.34
23.69,8.55,0.22,8.55,0.22,-0.22,-0.31,-0.23,8.33,8.33,8.33
23.92,8.56,0.24,8.56,0.23,-0.23,-0.31,-0.23,8.33,8.33,8.32
24.16,8.57,0.24,8.57,0.25,-0.25,-0.32,-0.24,8.32,8.33,8.33
24.40,8.58,0.25,8.58,0.26,-0.26,-0.33,-0.24,8.32,8.32,8.33
24.65,8.59,0.26,8.59,0.27,-0.27,-0.33,-0.25,8.32,8.32,8.33
24.89,8.60,0.27,8.60,0.28,-0.28,-0.34,-0.25,8.32,8.32,8.33
25.14,8.61,0.29,8.61,0.29,-0.29,-0.35,-0.26,8.32,8.32,8.32
25.39,8.62,0.30,8.62,0.30,-0.30,-0.35,-0.26,8.32,8.32,8.32
25.65,8.63,0.32,8.63,0.31,-0.31,-0.36,-0.27,8.32,8.32,8.31
25.91,8.64,0.33,8.64,0.32,-0.32,-0.37,-0.27,8.32,8.32,8.31
26.16,8.65,0.33,8.65,0.33,-0.33,-0.37,-0.28,8.32,8.32,8.32
26.43,8.65,0.33,8.65,0.34,-0.34,-0.38,-0.28,8.31,8.32,8.32
26.69,8.66,0.34,8.66,0.34,-0.34,-0.39,-0.29,8.32,8.32,8.32
26.96,8.67,0.35,8.67,0.35,-0.35,-0.39,-0.29,8.32,8.32,8.32
27.23,8.68,0.36,8.68,0.36,-0.36,-0.40,-0.30,8.32,8.32,8.32
27.50,8.69,0.37,8.69,0.36,-0.36,-0.41,-0.31,8.33,8.33,8.32
27.77,8.69,0.36,8.70,0.37,-0.37,-0.42,-0.31,8.32,8.33,8.33
28.05,8.70,0.37,8.70,0.37,-0.37,-0.42,-0.32,8.33,8.33,8.33
28.33,8.71,0.38,8.71,0.38,-0.38,-0.43,-0.32,8.33,8.33,8.33
28.62,8.72,0.39,8.72,0.38,-0.38,-0.44,-0.33,8.34,8.33,8.33
28.90,8.73,0.39,8.72,0.39,-0.39,-0.45,-0.34,8.34,8.33,8.34
29.19,8.73,0.39,8.73,0.40,-0.40,-0.46,-0.34,8.33,8.33,8.34
29.48,8.74,0.40,8.74,0.41,-0.41,-0.46,-0.35,8.33,8.33,8.34
29.78,8.75,0.41,8.75,0.41,-0.41,-0.47,-0.36,8.34,8.33,8.34
30.08,8.75,0.41,8.75,0.42,-0.42,-0.48,-0.36,8.33,8.33,8.34
30.38,8.76,0.44,8.76,0.43,-0.43,-0.49,-0.37,8.33,8.33,8.32
30.68,8.76,0.44,8.76,0.44,-0.44,-0.50,-0.38,8.32,8.33,8.32
30.99,8.77,0.45,8.77,0.45,-0.45,-0.51,-0.39,8.32,8.32,8.32
31.30,8.78,0.46,8.78,0.46,-0.46,-0.52,-0.39,8.32,8.32,8.32
31.61,8.78,0.46,8.78,0.47,-0.47,-0.53,-0.40,8.31,8.31,8.32
31.93,8.79,0.50,8.79,0.48,-0.48,-0.54,-0.41,8.31,8.31,8.29
32.24,8.79,0.49,8.79,0.49,-0.49,-0.55,-0.42,8.30,8.30,8.30
32.57,8.80,0.51,8.80,0.51,-0.51,-0.56,-0.43,8.29,8.29,8.29
32.89,8.80,0.51,8.80,0.52,-0.52,-0.57,-0.43,8.28,8.29,8.29
33.22,8.80,0.51,8.81,0.53,-0.53,-0.58,-0.44,8.27,8.28,8.29
33.55,8.81,0.53,8.81,0.53,-0.53,-0.59,-0.45,8.28,8.28,8.28
33.89,8.82,0.55,8.82,0.54,-0.54,-0.60,-0.46,8.28,8.27,8.27
34.23,8.82,0.56,8.82,0.55,-0.55,-0.61,-0.47,8.27,8.27,8.26
34.57,8.83,0.58,8.82,0.56,-0.56,-0.62,-0.48,8.27,8.26,8.25
34.92,8.83,0.59,8.82,0.57,-0.57,-0.63,-0.49,8.26,8.25,8.24
35.27,8.82,0.56,8.82,0.57,-0.57,-0.64,-0.50,8.25,8.24,8.26
35.62,8.82,0.58,8.82,0.58,-0.58,-0.65,-0.52,8.24,8.23,8.24
35.97,8.81,0.58,8.81,0.59,-0.59,-0.66,-0.53,8.22,8.22,8.23
36.33,8.80,0.58,8.81,0.60,-0.60,-0.68,-0.54,8.20,8.21,8.22
36.70,8.80,0.60,8.80,0.61,-0.61,-0.69,-0.55,8.19,8.20,8.20
37.06,8.79,0.61,8.80,0.62,-0.62,-0.70,-0.57,8.17,8.18,8.18
37.43,8.79,0.62,8.79,0.62,-0.62,-0.71,-0.58,8.17,8.17,8.17
37.81,8.78,0.63,8.78,0.63,-0.63,-0.73,-0.59,8.15,8.15,8.15
38.19,8.78,0.65,8.77,0.64,-0.64,-0.74,-0.61,8.14,8.13,8.13
38.57,8.77,0.65,8.77,0.65,-0.65,-0.75,-0.62,8.12,8.12,8.12
38.95,8.76,0.66,8.76,0.66,-0.66,-0.76,-0.64,8.10,8.10,8.10
39.34,8.75,0.67,8.75,0.67,-0.67,-0.78,-0.65,8.08,8.08,8.08
39.74,8.74,0.69,8.74,0.68,-0.68,-0.79,-0.67,8.06,8.06,8.05
40.14,8.73,0.69,8.73,0.69,-0.69,-0.80,-0.69,8.04,8.04,8.04
40.54,8.71,0.69,8.72,0.70,-0.70,-0.82,-0.71,8.01,8.02,8.02
40.94,8.70,0.70,8.70,0.70,-0.70,-0.83,-0.72,8.00,8.00,8.00
41.35,8.69,0.71,8.69,0.71,-0.71,-0.85,-0.74,7.98,7.98,7.98
41.76,8.68,0.73,8.68,0.71,-0.71,-0.86,-0.76,7.97,7.96,7.95
42.18,8.66,0.71,8.66,0.72,-0.72,-0.87,-0.78,7.94,7.94,7.95
42.60,8.65,0.73,8.65,0.72,-0.72,-0.89,-0.81,7.93,7.92,7.92
43.03,8.63,0.72,8.63,0.73,-0.73,-0.90,-0.83,7.90,7.90,7.91
43.46,8.62,0.74,8.62,0.73,-0.73,-0.92,-0.85,7.89,7.88,7.88
43.90,8.60,0.74,8.60,0.74,-0.74,-0.93,-0.87,7.86,7.86,7.86
44.33,8.59,0.76,8.59,0.75,-0.75,-0.95,-0.90,7.84,7.84,7.83
44.78,8.57,0.75,8.57,0.76,-0.76,-0.97,-0.92,7.81,7.81,7.82
45.23,8.55,0.75,8.55,0.77,-0.77,-0.98,-0.95,7.78,7.79,7.80
45.68,8.54,0.78,8.54,0.78,-0.78,-1.00,-0.97,7.76,7.76,7.76
46.13,8.53,0.80,8.52,0.79,-0.79,-1.01,-1.00,7.74,7.73,7.73
46.60,8.51,0.81,8.51,0.81,-0.81,-1.03,-1.03,7.70,7.70,7.70
47.06,8.50,0.83,8.50,0.83,-0.83,-1.05,-1.05,7.67,7.67,7.67
47.53,8.48,0.84,8.48,0.85,-0.85,-1.06,-1.08,7.63,7.63,7.64
48.01,8.47,0.88,8.47,0.87,-0.87,-1.08,-1.11,7.60,7.60,7.59
48.49,8.46,0.90,8.46,0.90,-0.90,-1.10,-1.14,7.56,7.56,7.56
48.97,8.45,0.93,8.45,0.93,-0.93,-1.12,-1.17,7.52,7.53,7.52
49.46,8.45,0.96,8.45,0.95,-0.95,-1.13,-1.20,7.50,7.49,7.49
49.96,8.44,1.00,8.44,0.98,-0.98,-1.15,-1.23,7.46,7.46,7.44
50.46,8.44,1.02,8.44,1.02,-1.02,-1.17,-1.26,7.42,7.42,7.42
50.96,8.43,1.04,8.44,1.05,-1.05,-1.19,-1.30,7.38,7.39,7.39
51.47,8.43,1.08,8.44,1.08,-1.08,-1.21,-1.33,7.35,7.35,7.35
51.99,8.43,1.12,8.44,1.12,-1.12,-1.23,-1.36,7.31,7.32,7.31
52.51,8.44,1.15,8.44,1.15,-1.15,-1.25,-1.39,7.29,7.29,7.29
53.03,8.44,1.18,8.44,1.19,-1.19,-1.26,-1.42,7.25,7.25,7.26
53.56,8.45,1.22,8.44,1.22,-1.22,-1.28,-1.46,7.23,7.22,7.23
54.10,8.45,1.27,8.44,1.25,-1.25,-1.30,-1.49,7.20,7.19,7.18
54.64,8.45,1.29,8.45,1.29,-1.29,-1.32,-1.52,7.16,7.16,7.16
55.18,8.45,1.33,8.45,1.32,-1.32,-1.34,-1.55,7.13,7.13,7.12
55.74,8.45,1.36,8.45,1.35,-1.35,-1.36,-1.58,7.10,7.10,7.09
56.29,8.45,1.38,8.45,1.38,-1.38,-1.38,-1.61,7.07,7.07,7.07
56.86,8.45,1.41,8.45,1.41,-1.41,-1.40,-1.64,7.04,7.04,7.04
57.42,8.45,1.45,8.45,1.44,-1.44,-1.43,-1.67,7.01,7.01,7.00
58.00,8.45,1.48,8.45,1.47,-1.47,-1.45,-1.69,6.98,6.98,6.97
58.58,8.45,1.50,8.45,1.50,-1.50,-1.47,-1.72,6.95,6.95,6.95
59.16,8.45,1.52,8.45,1.53,-1.53,-1.49,-1.74,6.92,6.91,6.93
59.76,8.45,1.55,8.45,1.57,-1.57,-1.51,-1.77,6.88,6.88,6.90
60.35,8.45,1.59,8.45,1.60,-1.60,-1.53,-1.79,6.85,6.84,6.86
60.96,8.45,1.63,8.45,1.64,-1.64,-1.55,-1.81,6.81,6.81,6.82
61.57,8.45,1.68,8.45,1.68,-1.68,-1.58,-1.83,6.77,6.77,6.77
62.18,8.45,1.73,8.46,1.73,-1.73,-1.60,-1.84,6.72,6.73,6.72
62.80,8.45,1.77,8.46,1.77,-1.77,-1.62,-1.86,6.68,6.69,6.68
63.43,8.45,1.82,8.46,1.81,-1.81,-1.64,-1.87,6.64,6.65,6.63
64.07,8.46,1.86,8.47,1.86,-1.86,-1.67,-1.89,6.60,6.61,6.60
64.71,8.46,1.90,8.47,1.90,-1.90,-1.69,-1.90,6.56,6.57,6.56
65.35,8.47,1.95,8.47,1.94,-1.94,-1.71,-1.91,6.53,6.53,6.52
66.01,8.48,1.99,8.47,1.98,-1.98,-1.74,-1.92,6.50,6.49,6.49
66.67,8.48,2.02,8.47,2.02,-2.02,-1.76,-1.93,6.46,6.45,6.46
67.33,8.48,2.07,8.47,2.06,-2.06,-1.78,-1.93,6.42,6.41,6.41
68.01,8.47,2.09,8.46,2.09,-2.09,-1.81,-1.94,6.38,6.37,6.38
68.69,8.46,2.12,8.46,2.12,-2.12,-1.83,-1.94,6.34,6.33,6.34
69.37,8.45,2.15,8.45,2.15,-2.15,-1.86,-1.95,6.30,6.29,6.30
70.07,8.44,2.18,8.44,2.18,-2.18,-1.88,-1.95,6.26,6.25,6.26
70.77,8.42,2.20,8.42,2.21,-2.21,-1.90,-1.96,6.21,6.21,6.22
71.48,8.41,2.23,8.40,2.23,-2.23,-1.93,-1.96,6.18,6.17,6.18
72.19,8.38,2.24,8.38,2.25,-2.25,-1.95,-1.96,6.13,6.14,6.14
72.91,8.36,2.27,8.36,2.26,-2.26,-1.98,-1.97,6.10,6.10,6.09
73.64,8.34,2.29,8.33,2.27,-2.27,-2.00,-1.97,6.07,6.06,6.05
74.38,8.31,2.30,8.31,2.28,-2.28,-2.03,-1.98,6.03,6.02,6.01
75.12,8.29,2.30,8.28,2.29,-2.29,-2.05,-1.98,6.00,5.99,5.99
75.87,8.26,2.30,8.26,2.30,-2.30,-2.08,-1.99,5.96,5.96,5.96
76.63,8.23,2.32,8.23,2.31,-2.31,-2.10,-1.99,5.92,5.92,5.91
77.40,8.21,2.32,8.21,2.32,-2.32,-2.13,-2.00,5.89,5.89,5.89
78.17,8.18,2.33,8.19,2.33,-2.33,-2.15,-2.01,5.85,5.86,5.85
78.95,8.16,2.32,8.17,2.34,-2.34,-2.18,-2.02,5.82,5.83,5.84
79.74,8.15,2.35,8.16,2.35,-2.35,-2.20,-2.03,5.80,5.80,5.80
80.54,8.13,2.35,8.15,2.37,-2.37,-2.23,-2.04,5.76,5.77,5.78
81.35,8.12,2.38,8.14,2.39,-2.39,-2.25,-2.05,5.73,5.74,5.74
82.16,8.11,2.38,8.13,2.42,-2.42,-2.28,-2.07,5.69,5.72,5.73
82.98,8.11,2.42,8.13,2.45,-2.45,-2.31,-2.08,5.66,5.69,5.69
83.81,8.12,2.46,8.13,2.48,-2.48,-2.33,-2.10,5.64,5.66,5.66
84.65,8.13,2.51,8.13,2.51,-2.51,-2.36,-2.12,5.62,5.63,5.62
85.50,8.14,2.55,8.13,2.53,-2.53,-2.38,-2.14,5.61,5.60,5.59
86.35,8.15,2.59,8.13,2.56,-2.56,-2.41,-2.17,5.59,5.56,5.56
87.22,8.15,2.62,8.12,2.59,-2.59,-2.43,-2.19,5.56,5.53,5.53
88.09,8.14,2.64,8.12,2.62,-2.62,-2.46,-2.22,5.52,5.50,5.50
88.97,8.13,2.66,8.11,2.64,-2.64,-2.48,-2.24,5.49,5.47,5.47
89.86,8.10,2.67,8.09,2.66,-2.66,-2.51,-2.27,5.44,5.43,5.44
90.76,8.08,2.68,8.07,2.67,-2.67,-2.54,-2.30,5.41,5.40,5.40
91.66,8.06,2.70,8.05,2.69,-2.69,-2.56,-2.34,5.37,5.36,5.36
92.58,8.03,2.70,8.02,2.70,-2.70,-2.59,-2.37,5.33,5.33,5.33
93.51,7.99,2.69,7.99,2.70,-2.70,-2.61,-2.41,5.29,5.29,5.30
94.44,7.97,2.71,7.96,2.71,-2.71,-2.64,-2.45,5.26,5.25,5.26
95.39,7.93,2.71,7.93,2.72,-2.72,-2.66,-2.48,5.21,5.22,5.22
96.34,7.90,2.72,7.90,2.72,-2.72,-2.69,-2.52,5.18,5.18,5.18
97.30,7.87,2.73,7.88,2.73,-2.73,-2.71,-2.57,5.14,5.14,5.14
98.28,7.84,2.74,7.85,2.75,-2.75,-2.74,-2.61,5.09,5.11,5.10
99.26,7.82,2.76,7.83,2.76,-2.76,-2.76,-2.65,5.06,5.07,5.06
100.25,7.80,2.78,7.82,2.79,-2.79,-2.78,-2.70,5.01,5.04,5.02
101.25,7.79,2.79,7.81,2.81,-2.81,-2.81,-2.75,4.98,5.00,5.00
102.27,7.78,2.81,7.81,2.84,-2.84,-2.83,-2.79,4.94,4.97,4.97
103.29,7.78,2.85,7.80,2.87,-2.87,-2.86,-2.84,4.91,4.94,4.93
104.32,7.78,2.88,7.80,2.90,-2.90,-2.88,-2.89,4.88,4.90,4.90
105.37,7.80,2.93,7.80,2.93,-2.93,-2.90,-2.94,4.87,4.87,4.87
106.42,7.81,2.96,7.80,2.96,-2.96,-2.93,-2.98,4.85,4.84,4.85
107.48,7.82,3.01,7.80,2.99,-2.99,-2.95,-3.03,4.83,4.81,4.81
108.56,7.83,3.05,7.80,3.02,-3.02,-2.97,-3.08,4.81,4.78,4.78
109.64,7.82,3.07,7.79,3.04,-3.04,-2.99,-3.13,4.78,4.74,4.75
110.74,7.81,3.09,7.78,3.07,-3.07,-3.02,-3.17,4.74,4.71,4.72
111.85,7.78,3.10,7.76,3.08,-3.08,-3.04,-3.21,4.70,4.68,4.68
112.97,7.75,3.10,7.74,3.10,-3.10,-3.06,-3.26,4.65,4.64,4.65
114.10,7.72,3.10,7.72,3.11,-3.11,-3.08,-3.30,4.61,4.61,4.62
115.24,7.69,3.12,7.69,3.11,-3.11,-3.10,-3.33,4.58,4.58,4.57
116.39,7.66,3.13,7.66,3.11,-3.11,-3.12,-3.37,4.55,4.54,4.53
117.55,7.63,3.13,7.63,3.12,-3.12,-3.14,-3.40,4.51,4.51,4.50
118.73,7.59,3.13,7.60,3.12,-3.12,-3.16,-3.43,4.47,4.48,4.46
119.92,7.55,3.11,7.57,3.13,-3.13,-3.18,-3.46,4.42,4.44,4.44
121.12,7.52,3.11,7.55,3.14,-3.14,-3.20,-3.48,4.38,4.41,4.41
122.33,7.51,3.13,7.53,3.15,-3.15,-3.22,-3.50,4.36,4.38,4.38
123.55,7.49,3.13,7.52,3.17,-3.17,-3.24,-3.51,4.32,4.35,4.36
124.79,7.47,3.15,7.50,3.19,-3.19,-3.26,-3.53,4.28,4.32,4.32
126.03,7.47,3.18,7.49,3.21,-3.21,-3.28,-3.53,4.26,4.28,4.29
127.29,7.48,3.22,7.48,3.23,-3.23,-3.29,-3.54,4.25,4.25,4.26
128.57,7.49,3.27,7.47,3.25,-3.25,-3.31,-3.54,4.24,4.22,4.22
129.85,7.49,3.30,7.46,3.27,-3.27,-3.33,-3.54,4.22,4.19,4.19
131.15,7.48,3.33,7.45,3.29,-3.29,-3.34,-3.53,4.19,4.16,4.15
132.46,7.47,3.35,7.44,3.31,-3.31,-3.36,-3.52,4.16,4.13,4.12
133.79,7.44,3.35,7.42,3.33,-3.33,-3.37,-3.51,4.11,4.09,4.09
135.12,7.40,3.34,7.40,3.34,-3.34,-3.39,-3.49,4.06,4.06,4.06
136.48,7.38,3.35,7.38,3.35,-3.35,-3.40,-3.48,4.03,4.03,4.03
137.84,7.34,3.34,7.36,3.36,-3.36,-3.41,-3.46,3.98,4.00,4.00
139.22,7.32,3.35,7.33,3.36,-3.36,-3.43,-3.44,3.96,3.97,3.97
140.61,7.29,3.35,7.30,3.35,-3.35,-3.44,-3.41,3.94,3.94,3.94
142.02,7.26,3.35,7.26,3.35,-3.35,-3.45,-3.39,3.91,3.92,3.91
143.44,7.24,3.35,7.23,3.34,-3.34,-3.46,-3.36,3.90,3.89,3.89
144.87,7.20,3.33,7.20,3.33,-3.33,-3.47,-3.34,3.87,3.86,3.87
146.32,7.17,3.33,7.17,3.33,-3.33,-3.48,-3.31,3.84,3.84,3.84
147.78,7.13,3.31,7.14,3.32,-3.32,-3.49,-3.29,3.81,3.81,3.82
149.26,7.09,3.30,7.11,3.32,-3.32,-3.50,-3.26,3.77,3.79,3.79
150.75,7.06,3.30,7.08,3.31,-3.31,-3.51,-3.23,3.75,3.77,3.76
152.26,7.04,3.30,7.05,3.31,-3.31,-3.52,-3.21,3.73,3.74,3.74
153.78,7.01,3.29,7.02,3.30,-3.30,-3.52,-3.19,3.71,3.72,3.72
155.32,6.99,3.30,6.98,3.29,-3.29,-3.53,-3.16,3.70,3.69,3.69
156.88,6.96,3.29,6.95,3.29,-3.29,-3.54,-3.14,3.67,3.66,3.67
158.44,6.94,3.30,6.92,3.29,-3.29,-3.54,-3.12,3.65,3.64,3.64
160.03,6.90,3.29,6.89,3.28,-3.28,-3.55,-3.10,3.62,3.61,3.61
161.63,6.87,3.29,6.86,3.28,-3.28,-3.55,-3.09,3.59,3.58,3.58
163.24,6.84,3.29,6.83,3.28,-3.28,-3.55,-3.07,3.56,3.55,3.55
164.88,6.79,3.27,6.80,3.28,-3.28,-3.56,-3.06,3.51,3.52,3.52
166.53,6.76,3.28,6.77,3.28,-3.28,-3.56,-3.05,3.48,3.49,3.48
168.19,6.73,3.27,6.74,3.28,-3.28,-3.56,-3.04,3.45,3.46,3.46
169.87,6.70,3.27,6.71,3.28,-3.28,-3.56,-3.03,3.42,3.43,3.43
171.57,6.68,3.29,6.68,3.29,-3.29,-3.56,-3.03,3.39,3.39,3.39
173.29,6.66,3.30,6.65,3.29,-3.29,-3.56,-3.03,3.37,3.36,3.36
175.02,6.61,3.28,6.62,3.30,-3.30,-3.56,-3.03,3.31,3.33,3.33
176.77,6.59,3.30,6.60,3.31,-3.31,-3.56,-3.03,3.28,3.29,3.29
178.54,6.57,3.31,6.58,3.32,-3.32,-3.55,-3.04,3.25,3.26,3.26
180.32,6.56,3.34,6.55,3.33,-3.33,-3.55,-3.05,3.23,3.23,3.22
182.13,6.54,3.35,6.53,3.34,-3.34,-3.55,-3.06,3.20,3.19,3.19
183.95,6.50,3.34,6.51,3.35,-3.35,-3.54,-3.07,3.15,3.16,3.16
185.79,6.48,3.36,6.48,3.36,-3.36,-3.54,-3.08,3.12,3.12,3.12
187.65,6.46,3.37,6.46,3.37,-3.37,-3.53,-3.10,3.09,3.09,3.09
189.52,6.44,3.38,6.43,3.37,-3.37,-3.52,-3.12,3.07,3.06,3.06
191.42,6.42,3.39,6.40,3.38,-3.38,-3.51,-3.14,3.05,3.03,3.03
193.33,6.39,3.39,6.37,3.38,-3.38,-3.51,-3.17,3.01,3.00,3.00
195.27,6.36,3.39,6.35,3.38,-3.38,-3.50,-3.19,2.98,2.97,2.97
197.22,6.33,3.40,6.32,3.38,-3.38,-3.49,-3.22,2.95,2.94,2.93
199.19,6.30,3.39,6.29,3.38,-3.38,-3.48,-3.25,2.92,2.91,2.91
201.18,6.26,3.38,6.27,3.38,-3.38,-3.46,-3.28,2.88,2.89,2.88
203.19,6.23,3.37,6.25,3.39,-3.39,-3.45,-3.31,2.84,2.86,2.86
205.23,6.21,3.37,6.23,3.40,-3.40,-3.44,-3.34,2.81,2.84,2.84
207.28,6.19,3.37,6.22,3.40,-3.40,-3.43,-3.37,2.79,2.81,2.82
209.35,6.17,3.37,6.21,3.42,-3.42,-3.41,-3.40,2.75,2.79,2.80
211.44,6.16,3.39,6.20,3.43,-3.43,-3.40,-3.44,2.73,2.77,2.77
213.56,6.17,3.41,6.19,3.44,-3.44,-3.38,-3.47,2.73,2.75,2.76
215.69,6.19,3.45,6.18,3.45,-3.45,-3.37,-3.50,2.74,2.73,2.74
217.85,6.20,3.49,6.17,3.46,-3.46,-3.35,-3.53,2.74,2.71,2.71
220.03,6.20,3.51,6.17,3.47,-3.47,-3.33,-3.56,2.73,2.69,2.69
222.23,6.19,3.52,6.16,3.48,-3.48,-3.31,-3.59,2.71,2.68,2.67
224.45,6.18,3.52,6.15,3.49,-3.49,-3.29,-3.61,2.69,2.66,2.66
226.70,6.15,3.51,6.13,3.49,-3.49,-3.27,-3.64,2.66,2.64,2.64
228.96,6.12,3.48,6.12,3.48,-3.48,-3.25,-3.66,2.64,2.63,2.64
231.25,6.10,3.48,6.09,3.48,-3.48,-3.23,-3.68,2.62,2.62,2.62
233.57,6.07,3.46,6.07,3.46,-3.46,-3.21,-3.69,2.61,2.61,2.61
235.90,6.02,3.42,6.04,3.44,-3.44,-3.19,-3.70,2.58,2.60,2.60
238.26,6.00,3.42,6.01,3.42,-3.42,-3.17,-3.71,2.58,2.59,2.58
240.64,5.97,3.38,5.98,3.40,-3.40,-3.14,-3.71,2.57,2.59,2.59
243.05,5.95,3.37,5.95,3.37,-3.37,-3.12,-3.71,2.58,2.58,2.58
245.48,5.93,3.36,5.92,3.34,-3.34,-3.09,-3.70,2.59,2.58,2.57
247.93,5.89,3.32,5.90,3.32,-3.32,-3.07,-3.69,2.57,2.58,2.57
250.41,5.87,3.29,5.87,3.29,-3.29,-3.04,-3.67,2.58,2.58,2.58
252.92,5.83,3.25,5.85,3.27,-3.27,-3.02,-3.65,2.56,2.58,2.58
255.45,5.81,3.23,5.82,3.24,-3.24,-2.99,-3.62,2.57,2.58,2.58
258.00,5.79,3.21,5.79,3.22,-3.22,-2.96,-3.59,2.57,2.58,2.58
260.58,5.76,3.18,5.77,3.19,-3.19,-2.93,-3.55,2.57,2.58,2.58
263.19,5.75,3.16,5.74,3.16,-3.16,-2.90,-3.51,2.59,2.58,2.59
265.82,5.72,3.14,5.71,3.13,-3.13,-2.87,-3.46,2.59,2.58,2.58
268.48,5.70,3.11,5.68,3.10,-3.10,-2.84,-3.41,2.60,2.58,2.59
271.16,5.67,3.08,5.65,3.07,-3.07,-2.81,-3.35,2.60,2.58,2.59
273.87,5.63,3.05,5.62,3.04,-3.04,-2.78,-3.30,2.59,2.58,2.58
276.61,5.59,3.00,5.59,3.00,-3.00,-2.75,-3.23,2.59,2.59,2.59
279.38,5.55,2.98,5.56,2.97,-2.97,-2.72,-3.17,2.58,2.59,2.57
282.17,5.51,2.93,5.52,2.93,-2.93,-2.68,-3.10,2.58,2.59,2.58
284.99,5.47,2.87,5.49,2.89,-2.89,-2.65,-3.03,2.58,2.60,2.60
287.84,5.43,2.83,5.45,2.85,-2.85,-2.62,-2.96,2.58,2.60,2.60
290.72,5.41,2.81,5.41,2.80,-2.80,-2.58,-2.88,2.61,2.60,2.60
293.63,5.38,2.77,5.37,2.76,-2.76,-2.55,-2.81,2.62,2.61,2.61
296.57,5.35,2.73,5.33,2.71,-2.71,-2.51,-2.73,2.64,2.62,2.62
299.53,5.31,2.68,5.29,2.66,-2.66,-2.47,-2.65,2.65,2.62,2.62
302.53,5.26,2.62,5.25,2.62,-2.62,-2.44,-2.58,2.64,2.63,2.64
305.55,5.20,2.56,5.21,2.57,-2.57,-2.40,-2.50,2.63,2.64,2.64
308.61,5.16,2.51,5.17,2.52,-2.52,-2.36,-2.42,2.64,2.65,2.65
311.69,5.11,2.45,5.13,2.47,-2.47,-2.32,-2.34,2.64,2.66,2.66
314.81,5.08,2.41,5.08,2.41,-2.41,-2.28,-2.27,2.67,2.67,2.67
317.96,5.04,2.36,5.04,2.36,-2.36,-2.25,-2.19,2.68,2.68,2.68
321.14,5.00,2.31,5.00,2.31,-2.31,-2.21,-2.11,2.69,2.69,2.69
324.35,4.96,2.27,4.96,2.26,-2.26,-2.17,-2.04,2.70,2.70,2.69
327.59,4.92,2.20,4.92,2.21,-2.21,-2.12,-1.96,2.71,2.71,2.72
330.87,4.87,2.16,4.88,2.16,-2.16,-2.08,-1.89,2.71,2.72,2.71
334.18,4.83,2.11,4.84,2.11,-2.11,-2.04,-1.81,2.72,2.72,2.72
337.52,4.79,2.06,4.80,2.06,-2.06,-2.00,-1.74,2.73,2.73,2.73
340.90,4.75,2.00,4.76,2.01,-2.01,-1.96,-1.67,2.74,2.74,2.75
344.30,4.71,1.95,4.71,1.96,-1.96,-1.91,-1.60,2.75,2.75,2.76
347.75,4.67,1.91,4.67,1.91,-1.91,-1.87,-1.53,2.76,2.76,2.76
351.23,4.64,1.88,4.63,1.85,-1.85,-1.82,-1.46,2.79,2.77,2.76
354.74,4.60,1.81,4.58,1.80,-1.80,-1.78,-1.40,2.80,2.78,2.79
358.28,4.55,1.76,4.54,1.75,-1.75,-1.74,-1.33,2.80,2.79,2.79
361.87,4.50,1.70,4.49,1.69,-1.69,-1.69,-1.27,2.81,2.80,2.80
365.49,4.44,1.64,4.44,1.63,-1.63,-1.64,-1.20,2.81,2.81,2.80
369.14,4.38,1.56,4.39,1.57,-1.57,-1.60,-1.14,2.81,2.82,2.82
372.83,4.33,1.50,4.34,1.51,-1.51,-1.55,-1.08,2.82,2.83,2.83
376.56,4.28,1.45,4.29,1.45,-1.45,-1.50,-1.02,2.83,2.84,2.83
380.33,4.23,1.39,4.24,1.39,-1.39,-1.45,-0.96,2.84,2.85,2.84
384.13,4.19,1.33,4.18,1.33,-1.33,-1.41,-0.90,2.86,2.86,2.86
387.97,4.14,1.27,4.13,1.26,-1.26,-1.36,-0.84,2.88,2.87,2.87
391.85,4.08,1.21,4.08,1.20,-1.20,-1.31,-0.79,2.88,2.88,2.87
395.77,4.03,1.15,4.03,1.14,-1.14,-1.26,-0.73,2.89,2.89,2.88
399.73,3.97,1.08,3.98,1.08,-1.08,-1.21,-0.68,2.89,2.90,2.89
403.72,3.92,1.00,3.93,1.03,-1.03,-1.16,-0.62,2.89,2.91,2.92
407.76,3.88,0.96,3.89,0.97,-0.97,-1.10,-0.57,2.91,2.92,2.92
411.84,3.84,0.91,3.84,0.92,-0.92,-1.05,-0.52,2.92,2.93,2.93
415.96,3.80,0.85,3.80,0.86,-0.86,-1.00,-0.47,2.94,2.94,2.95
420.12,3.75,0.80,3.75,0.80,-0.80,-0.95,-0.42,2.95,2.95,2.95
424.32,3.70,0.74,3.71,0.75,-0.75,-0.89,-0.37,2.95,2.96,2.96
428.56,3.66,0.69,3.66,0.69,-0.69,-0.84,-0.32,2.97,2.97,2.97
432.85,3.63,0.65,3.62,0.64,-0.64,-0.78,-0.27,2.99,2.98,2.98
437.18,3.59,0.61,3.57,0.58,-0.58,-0.73,-0.22,3.01,2.99,2.98
441.55,3.54,0.55,3.53,0.53,-0.53,-0.67,-0.18,3.01,3.00,2.99
445.96,3.49,0.49,3.48,0.47,-0.47,-0.62,-0.13,3.02,3.01,3.00
450.42,3.42,0.41,3.43,0.41,-0.41,-0.56,-0.08,3.01,3.01,3.01
454.93,3.36,0.34,3.38,0.35,-0.35,-0.50,-0.04,3.01,3.02,3.02
459.48,3.32,0.29,3.33,0.29,-0.29,-0.45,0.00,3.03,3.03,3.03
464.07,3.28,0.23,3.27,0.23,-0.23,-0.39,0.05,3.05,3.04,3.05
468.71,3.23,0.17,3.22,0.17,-0.17,-0.33,0.09,3.06,3.05,3.06
473.40,3.17,0.10,3.17,0.10,-0.10,-0.27,0.13,3.07,3.06,3.07
478.13,3.11,0.03,3.11,0.04,-0.04,-0.21,0.18,3.07,3.07,3.08
482.91,3.05,-0.04,3.06,-0.03,0.03,-0.15,0.22,3.08,3.09,3.09
487.74,3.00,-0.10,3.01,-0.09,0.09,-0.09,0.26,3.09,3.10,3.10
492.62,2.95,-0.16,2.96,-0.15,0.15,-0.02,0.30,3.10,3.11,3.11
497.55,2.91,-0.21,2.90,-0.22,0.22,0.04,0.34,3.13,3.12,3.12
502.52,2.86,-0.26,2.85,-0.28,0.28,0.10,0.38,3.14,3.13,3.12
507.55,2.80,-0.34,2.80,-0.35,0.35,0.16,0.42,3.15,3.14,3.14
512.62,2.74,-0.41,2.74,-0.41,0.41,0.23,0.45,3.15,3.16,3.15
517.75,2.68,-0.49,2.69,-0.48,0.48,0.29,0.49,3.16,3.17,3.17
522.93,2.64,-0.54,2.63,-0.55,0.55,0.36,0.53,3.19,3.18,3.18
528.16,2.59,-0.60,2.58,-0.61,0.61,0.43,0.57,3.20,3.19,3.19
533.44,2.54,-0.66,2.53,-0.68,0.68,0.49,0.61,3.22,3.21,3.20
538.77,2.47,-0.74,2.47,-0.75,0.75,0.56,0.64,3.22,3.22,3.21
544.16,2.40,-0.83,2.42,-0.81,0.81,0.63,0.68,3.21,3.23,3.23
549.60,2.35,-0.89,2.36,-0.88,0.88,0.70,0.72,3.23,3.24,3.24
