frequency,raw
10,-4.752284656737699
11,-3.8633723196210656
12,-2.9799383003542914
13,-2.179700803844261
14,-1.5572466772131315
15,-0.9542323457684985
16,-0.4677252566998571
17,0.13527755609095005
18,0.48574675123448907
19,1.0222590506472047
20,1.2961933655160465
21,1.5717614571584884
22,2.0514403691224175
23,2.191075891433452
24,2.4424525839474835
25,2.58745806202809
26,2.8873559235257327
27,3.0934434375008335
28,3.204038813447715
29,3.4224092491545903
30,3.555795461920056
31,3.7612196569074445
32,3.8620538821775376
33,3.9375512718443977
34,4.135199157156669
35,4.064827422490088
36,4.270041542890529
37,4.234004439857203
38,4.356274809472235
39,4.449127762443413
40,4.464703263183163
41,4.589947871190851
42,4.726747792146495
43,4.712875437702201
44,4.710930998398372
45,4.703506631586136
46,4.674529044398077
47,4.668522279478718
48,4.900938926376676
49,4.7724334259863275
50,4.812877027794065
51,4.8319951593419175
52,4.850671074810292
53,4.864790113309465
54,4.710883049669555
55,4.770750174203605
56,4.7642957741194225
57,4.702422551736493
58,4.5747553589602425
59,4.5334252203736165
60,4.345664444806033
61,4.422100061629302
62,4.420120841003469
63,4.620230750902194
64,4.418005542006035
65,4.617752345308151
66,4.717209960128574
67,4.814518565083923
68,4.780877341056635
69,4.797121551793247
70,4.9344588945693415
71,4.941526295062473
72,4.946414108645505
73,4.947699862759387
74,4.944829925416303
75,4.938000759091772
76,4.746848452954829
77,4.7939458330004525
78,4.801762527601599
79,4.789862359041929
80,4.7815619105348866
81,4.577643215715183
82,4.65842966497535
83,4.690666790146808
84,4.773773004999925
85,4.770842668126907
86,4.455586483076202
87,4.482017031316895
88,4.5527648068797095
89,4.470652456851405
90,4.354618859049224
91,4.241061649440275
92,4.235786024103106
93,3.9551579658519227
94,4.075271175105616
95,4.059095528583556
96,3.7319756815235428
97,3.874661856724332
98,3.884842596574634
99,3.560591758002558
100,3.4842035412723327
101,3.30008214373522
102,3.248086851718482
104,3.2634727754152992
105,3.1121487138718704
106,2.8815580111773897
107,2.8180063650740736
108,3.0478853794230263
109,2.9560225585680753
110,2.634430061065764
111,2.6626160368837146
112,2.6330266679089487
113,2.4993797414449777
114,2.287368873255213
115,2.0606113438293345
117,2.284387127650443
118,2.0796978993409976
119,1.954275687195838
120,1.896204772107791
121,1.8425347407560215
123,1.7356995389417564
124,1.6957468391654276
125,1.629776122089715
126,1.5078407096260618
128,1.2317414516658518
129,1.2615965628145673
130,1.2502750988773652
131,1.1824466094155417
133,0.9168811795830907
134,0.699898806123044
135,0.6690727853181913
137,0.6545647563870327
138,0.6163870141606997
140,0.2848878323909072
141,0.26400305344657227
142,0.138663985980521
144,0.5752863150513061
145,0.5567521800347177
147,0.3644095145594237
148,0.5060674814803527
150,0.15820569548982455
151,-0.10868227076817716
153,-0.06632676460863696
154,-0.12812382742248296
156,-0.40502930497922884
157,-0.31159850942206146
159,-0.30787344992484744
160,-0.41297941090999934
162,-0.878757982136622
164,-1.1278398388613575
165,-1.2266590998394786
167,-1.3513687101079368
169,-1.7229599195454055
170,-1.687013054594777
172,-1.5971421441597666
174,-1.9801497385980005
175,-2.0395006586166056
177,-1.929121225083576
179,-1.7330347750230812
181,-1.524112931870933
183,-1.6049457861530216
184,-1.6502027207581422
186,-1.8757003693620122
188,-1.9873954865092736
190,-1.9728332746367183
192,-2.1934818612877365
194,-2.404038737241007
196,-2.5279177283912255
198,-2.6191244108530087
200,-2.5901933011651725
202,-2.580482290642573
204,-2.8869721678794487
206,-3.099882710927643
208,-3.0942693159587846
210,-3.2780254026857247
212,-3.337723727309759
214,-3.4503113799464824
216,-3.497836139311672
218,-3.631765735761397
221,-3.8612514424626165
223,-3.935456385522306
225,-4.020822825621458
227,-4.213487079355409
229,-4.339664476182034
232,-4.441934321778463
234,-4.496040136424108
236,-4.583238498858413
239,-4.781852166126677
241,-4.91613733217148
244,-4.96862476814292
246,-5.032939863198836
248,-5.050550040378321
251,-5.076039213429963
253,-5.074657816480178
256,-5.076034791012063
259,-5.0792840933127135
261,-5.083891236563123
264,-5.15723697749858
266,-5.195130669801006
269,-5.19868473051001
272,-5.098434879273352
274,-5.094653737974712
277,-5.087071502649556
280,-5.07715379675525
283,-5.06691016119736
286,-5.057960306344193
288,-5.101074013684613
291,-5.095740961773258
294,-5.040765202987985
297,-4.890517340816128
300,-4.77925138175906
303,-4.691028692253689
306,-4.674107196728679
309,-4.562694307591002
312,-4.376625968450735
316,-4.354172509294322
319,-4.276554655766412
322,-4.1494866434625175
325,-3.982555517264403
328,-3.9725392407536453
332,-4.126894341549999
335,-4.044520824553759
338,-3.793319245723895
342,-3.787098063912641
345,-3.6774361316403925
349,-3.6554845484550995
352,-3.712781992423274
356,-3.780192453750632
359,-3.7317208287148222
363,-3.3631519464480064
366,-3.3487833460026777
370,-3.4359381243706686
374,-3.423315085821618
377,-3.4441456979133775
381,-3.5022169507736374
385,-3.13902677955811
389,-3.082907896796998
393,-3.174239098962122
397,-3.163182678190428
401,-3.1716545253026145
405,-3.2404846751700656
409,-3.1260578234293908
413,-2.834052705095806
417,-2.833698755739721
421,-2.9920458006378077
425,-3.004794715402363
430,-2.8504446379134576
434,-2.7738217492759176
438,-2.7289672805658785
443,-2.631072158483431
447,-2.6220495468249636
451,-2.612319007543806
456,-2.500204221719657
460,-2.4862859155562163
465,-2.370156383831725
470,-2.3545347471473104
474,-2.339857429211459
479,-2.3254202828212662
484,-2.2921172074419816
489,-2.187056699867908
494,-2.097284623947164
499,-2.0277603046118786
504,-1.9948626537492524
509,-1.964590724527572
514,-1.94001186568777
519,-1.97840123733799
524,-1.9929510207741372
529,-1.8024866712143677
535,-1.6429252703038486
540,-1.711800451625396
545,-1.716125627602131
551,-1.7190357619569645
556,-1.7184853023128697
562,-1.7591949770641624
568,-1.7810305194654563
573,-1.6159573943348962
579,-1.5564612006862868
585,-1.5287601657363323
591,-1.5021672836658513
596,-1.300294771409062
602,-1.2924423010956025
608,-1.4445862295179102
615,-1.3483418436722217
621,-1.271868042788238
627,-1.2671106897721418
633,-1.2932815779737026
639,-1.28798077424185
646,-1.1685641695100881
652,-1.0801571499894536
659,-1.071204575344622
665,-1.074527024787403
672,-1.0857018431167753
679,-1.1269730459775507
686,-1.1393027556228792
692,-1.0326136000484967
699,-1.0109056336068756
706,-0.8999669340737659
713,-0.85417302589638
721,-0.8343255531750393
728,-0.8171763081048244
735,-0.8064971502010643
742,-0.7057289335665677
750,-0.6179036662367983
757,-0.6424343990701025
765,-0.5796532045927267
773,-0.6015427304482595
780,-0.6209890305625443
788,-0.5676490896207684
796,-0.5245220668485566
804,-0.5199452686124597
812,-0.4887415921685534
820,-0.43961380173345654
828,-0.4188350677764969
837,-0.41731568663573926
845,-0.4181595914356717
853,-0.4109380163515439
862,-0.44536313623540114
871,-0.4666743955156276
879,-0.47599863932951436
888,-0.37631963592624373
897,-0.37296454609239404
906,-0.36853901761252095
915,-0.24360915706659814
924,-0.23880019035796884
933,-0.249777808160891
943,-0.2388193283952469
952,-0.21967691284600877
962,-0.19435793166250415
971,-0.16521300240055004
981,-0.13575082258477256
991,-0.10909747561314509
1001,0.012061281167588866
1011,0.07074578648831853
1021,0.05425446379973087
1031,0.07824787448080439
1041,0.10801878439355894
1052,0.16870545160654604
1062,0.2252921376424979
1073,0.10542190404714669
1084,0.039411933857012915
1094,0.11616893016909557
1105,0.18995892661889924
1116,0.23709037569724378
1128,0.20040818499975543
1139,0.1968162319660265
1150,0.20184043296958443
1162,0.15763300920223822
1173,0.11667411266913508
1185,0.13970270714633948
1197,0.25525334934271804
1209,0.19617239423350386
1221,0.14957966897112884
1233,0.14349559630919728
1246,0.16024900010562826
1258,0.15544112205144733
1271,0.15461528995688845
1283,0.2171213356884487
1296,0.2261681760591192
1309,0.23565584230190595
1322,0.2928420430566401
1335,0.29659592123038747
1349,0.28501321715955896
1362,0.3528330315123176
1376,0.3423129669139455
1390,0.338905535746564
1404,0.28609557863185886
1418,0.28179521455675927
1432,0.21819673815620622
1446,0.18255815465671255
1461,0.17358128790907035
1475,0.12287644940993969
1490,0.09346283659686527
1505,0.15694715225717104
1520,0.21285384825130116
1535,0.2451683804753042
1550,0.1042965225502197
1566,0.11845002528411053
1582,0.21723925546356027
1597,0.14143428355798537
1613,0.1275331504980124
1629,0.09461080948279577
1646,0.20258181702857003
1662,0.309131223150219
1679,0.2930985264123711
1696,0.3346565187174928
1713,0.34545973031608845
1730,0.38240904071698134
1747,0.39068314882579136
1764,0.46070534784553896
1782,0.5198806365112252
1800,0.5914753679364941
1818,0.633118493089281
1836,0.4023487159804202
1854,-0.019803706671587484
1873,-0.3956175093277694
1892,-0.5462640668992242
1911,-0.3959190837167119
1930,-0.2984709877778444
1949,-0.038565755051675144
1969,-0.04035300022507027
1988,-0.25972794923675124
2008,-0.6655909892993197
2028,-0.9480137145463443
2048,-1.2999402750418794
2069,-1.2628301209956714
2090,-1.0663417472626682
2111,-0.805056500033011
2132,-0.5972669601788345
2153,-0.3458165707891858
2175,-0.09152525140978884
2196,-0.019623418170285234
2218,0.11817819076713931
2240,0.24334241312310123
2263,0.2392718881977034
2285,0.2452163206905933
2308,0.29837792252685436
2331,0.41289353629235226
2355,0.5516046591523223
2378,0.6851668892298317
2402,0.7647856393485943
2426,0.872782919286121
2450,1.0127658300250397
2475,1.1675145384173602
2500,1.2833539205815754
2525,1.370639488207698
2550,1.4244051977625745
2575,1.241662977334916
2601,0.9140622372992082
2627,0.7255926295934723
2653,0.36536311765750007
2680,0.4325177160264779
2707,0.8341150599641516
2734,1.314194361188041
2761,1.3779101315310571
2789,1.4658864046804974
2817,1.6281129690886322
2845,1.8156749673218755
2873,1.982732134829586
2902,2.1260159593746586
2931,2.779450939042044
2960,3.388546065157014
2990,3.734761158409139
3020,3.9430505477523994
3050,4.084931263542508
3080,4.224659317027062
3111,4.439261129450047
3142,4.929058412870964
3174,5.230846301617671
3206,5.459222584131395
3238,5.8260866083232745
3270,6.000741830843577
3303,6.110774555730277
3336,6.312746161512889
3369,6.481838622371269
3403,6.594337016937589
3437,6.630171053888352
3471,6.602645094519674
3506,6.577857261336602
3541,6.403750426090426
3576,6.174893959464836
3612,5.707279719473759
3648,5.546317336996628
3685,5.259282193671396
3721,5.543883564169641
3759,5.512308616382266
3796,5.161066108889068
3834,4.77824570557787
3873,4.499238371920278
3911,4.212537447964394
3950,3.7786607104039858
3990,3.365583029838392
4030,3.0720032450186414
4070,2.9396231161053548
4111,2.3518558569646224
4152,1.8292640709853565
4193,1.6897783909425819
4235,1.7039254188804556
4278,1.8083119234056255
4321,1.8442555691276912
4364,1.5425945109233794
4407,0.9550176266173835
4451,0.5662230343281145
4496,0.10794761647288453
4541,-0.6409452887051952
4586,-0.741819186044463
4632,-0.7873065558280103
4679,-0.6311417410473563
4725,-0.31083894547411006
4773,-0.7058822748241678
4820,-0.8817749208646939
4868,-1.1853251824733642
4917,-1.7574750511568054
4966,-2.3351347671314917
5016,-2.9333031830316765
5066,-3.159204232447931
5117,-3.262879432479825
5168,-3.310067198294825
5220,-3.3167941383411366
5272,-3.279289953095705
5325,-3.0221100770500984
5378,-2.4964890562055855
5432,-2.1301249595544967
5486,-1.6788143980599166
5541,-0.9613869555809247
5596,-0.5955031725559943
5652,-0.1102876389668852
5709,0.078211181942069
5766,0.2952225366837071
5823,0.47344713919889525
5882,0.5537678690152719
5940,0.4041697634340684
6000,0.24145230217232694
6060,0.04205177577724761
6120,-0.049220994939428664
6182,0.025001414579202574
6244,0.06441432675456138
6306,0.14782932632634083
6369,0.34327891111462705
6433,0.35421050139842425
6497,0.4031396665730158
6562,0.48565866303687244
6628,0.4077892111064365
6694,0.45997923498856164
6761,0.6470691343094916
6828,0.9139602664135067
6897,1.0986230134131523
6966,1.8150487778491815
7035,2.0926255728755607
7106,2.119040504791019
7177,2.064164716455647
7249,1.6185312110336105
7321,1.0724171081864533
7394,0.46898757553557013
7468,0.047757853708051634
7543,-0.4300067228107367
7618,-1.0344738089152892
7694,-0.8404135424608752
7771,-0.5084839586102214
7849,-0.6824925813609495
7928,-1.2384446445076938
8007,-2.476207204818693
8087,-3.008752072281737
8168,-2.644114544454302
8250,-1.8266741742491739
8332,-1.2614432845945212
8415,-0.7509612614022165
8499,0.22830048225165944
8584,0.3667300283078201
8670,0.42559239155247
8757,0.5300185349475068
8845,0.7958063087473466
8933,1.0720703314907336
9022,1.146931250755466
9113,1.0341988464881489
9204,0.9937149674782804
9296,0.9675866557432378
9389,0.6539288161189574
9483,0.5077976782867131
9577,0.4081786024826113
9673,0.11151285298167668
9770,-0.472670213120133
9868,-1.5758836681610249
9966,-2.615592532076348
10066,-4.190461580963282
10167,-5.917913296579929
10268,-7.7213392663969325
10371,-8.89331711488709
10475,-10.749261975596738
10579,-11.41353681082375
10685,-10.379948343369437
10792,-8.162841128056119
10900,-7.7547505576472355
11009,-8.177120440350171
11119,-9.336709635963874
11230,-9.118833543928183
11343,-7.691475410061473
11456,-5.70100552789501
11571,-3.541511171906491
11686,-2.041059669629449
11803,-0.2891316858769417
11921,0.6038934527190181
12040,0.741946957613909
12161,0.968999545978428
12282,1.0078892675825624
12405,0.9664546687556554
12529,1.4841995086663102
12655,2.196364993894039
12781,2.846196232112262
12909,3.1275763825730705
13038,3.4016968038556223
13168,2.8234489289849938
13300,1.5040820886397728
13433,0.47199663072277387
13567,-0.40256728510544093
13703,-1.8909359769643368
13840,-3.6211804089953707
13978,-4.1000344461161395
14118,-4.172527595555545
14259,-4.775865716122131
14402,-5.672282622061014
14546,-6.841517371119955
14692,-8.139900405455439
14838,-9.10567156270706
14987,-10.232387692299993
15137,-11.688154207402714
15288,-11.868152064211603
15441,-13.12643772498593
15595,-14.173640221620019
15751,-14.758421372954178
15909,-14.995032304780802
16068,-14.449687545762291
16229,-13.732658895094074
16391,-13.838725538945194
16555,-14.295140926222
16720,-13.56190888969623
16888,-13.26625189618303
17056,-13.66338637932376
17227,-14.176990753436478
17399,-14.270219122540805
17573,-14.469569967930578
17749,-14.3466865968606
17926,-13.818232038142416
18106,-13.278225785216335
18287,-12.870226941528763
18470,-13.18634662072694
18654,-13.966413983973188
18841,-14.545294620692097
19029,-16.697302008828697
19220,-17.536819361437512
19412,-18.737896144179437
19606,-16.247094341817657
19802,-17.12137605988985
20000,-16.735293033671436
20200,-16.391369096541826
20402,-16.566676666365492
20606,-16.702582232072572
20812,-17.31863264493564
21020,-18.0187930103224
21230,-18.506833270213804
21443,-19.246625535017284
21657,-20.778824834810738
21874,-21.92417278646925
22092,-22.941470175180417
22313,-24.728160035757956
22537,-26.32543153539731
22762,-27.17938085356064
22989,-28.113593125846904
23219,-27.86140175575816
23452,-27.821203927591753
23686,-27.958775936718457
23923,-26.984911156112577
24162,-26.349194521006407
24404,-25.713135916973794
24648,-25.07864312223819
24894,-24.445540716400483
25143,-23.811717151123865
25395,-23.177052593917992
25649,-22.543350588739848
25905,-21.910539464720223
26164,-21.27676136447299
26426,-20.64209252820835
26690,-20.008437305482317
26957,-19.374070451323405
27227,-18.73910399364593
27499,-18.10538520903557
27774,-17.47120943313422
28052,-16.836639556411296
28332,-16.203425270574982
28615,-15.569877308562655
28902,-14.934387955776135
29191,-14.30035623570122
29482,-13.66778762740472
29777,-13.033454237653096
