frequency,raw,error,smoothed,error_smoothed,equalization,parametric_eq,fixed_band_eq,equalized_raw,equalized_smoothed,target
20.00,-11.69,-17.40,-11.69,-17.39,6.00,5.59,2.80,-5.69,-5.69,5.70
20.20,-11.57,-17.32,-11.58,-17.32,6.00,5.60,2.88,-5.57,-5.58,5.74
20.40,-11.46,-17.25,-11.46,-17.24,6.00,5.61,2.96,-5.46,-5.46,5.78
20.61,-11.35,-17.16,-11.35,-17.16,6.00,5.62,3.04,-5.35,-5.35,5.81
20.81,-11.23,-17.09,-11.23,-17.09,6.00,5.63,3.13,-5.23,-5.23,5.85
21.02,-11.11,-17.01,-11.11,-17.00,6.00,5.65,3.22,-5.11,-5.11,5.89
21.23,-10.99,-16.91,-10.99,-16.91,6.00,5.66,3.31,-4.99,-4.99,5.91
21.44,-10.87,-16.80,-10.87,-16.81,6.00,5.67,3.40,-4.87,-4.87,5.93
21.66,-10.75,-16.71,-10.75,-16.70,6.00,5.69,3.50,-4.75,-4.75,5.95
21.87,-10.63,-16.59,-10.63,-16.60,6.00,5.71,3.60,-4.63,-4.63,5.96
22.09,-10.51,-16.49,-10.51,-16.49,6.00,5.72,3.70,-4.51,-4.51,5.98
22.31,-10.39,-16.38,-10.39,-16.38,6.00,5.74,3.81,-4.39,-4.39,5.99
22.54,-10.27,-16.28,-10.27,-16.28,6.00,5.76,3.91,-4.27,-4.27,6.00
22.76,-10.15,-16.16,-10.15,-16.16,6.00,5.78,4.03,-4.15,-4.15,6.01
22.99,-10.03,-16.04,-10.03,-16.04,6.00,5.80,4.14,-4.03,-4.03,6.01
23.22,-9.90,-15.92,-9.91,-15.93,6.00,5.83,4.26,-3.90,-3.91,6.02
23.45,-9.78,-15.81,-9.78,-15.81,6.00,5.85,4.37,-3.78,-3.78,6.03
23.69,-9.66,-15.69,-9.66,-15.69,6.00,5.87,4.50,-3.66,-3.66,6.04
23.92,-9.53,-15.58,-9.53,-15.58,6.00,5.90,4.62,-3.53,-3.53,6.05
24.16,-9.40,-15.47,-9.41,-15.47,6.00,5.93,4.75,-3.40,-3.41,6.07
24.40,-9.28,-15.37,-9.28,-15.36,6.00,5.96,4.87,-3.28,-3.28,6.09
24.65,-9.15,-15.24,-9.15,-15.24,6.00,5.99,5.00,-3.15,-3.15,6.09
24.89,-9.02,-15.12,-9.03,-15.12,6.00,6.02,5.14,-3.02,-3.03,6.10
25.14,-8.90,-15.01,-8.90,-15.00,6.00,6.05,5.27,-2.90,-2.90,6.11
25.39,-8.77,-14.89,-8.77,-14.89,6.00,6.08,5.40,-2.77,-2.77,6.12
25.65,-8.64,-14.78,-8.65,-14.78,6.00,6.11,5.54,-2.64,-2.65,6.14
25.91,-8.53,-14.66,-8.52,-14.66,6.00,6.14,5.68,-2.53,-2.52,6.14
26.16,-8.39,-14.54,-8.39,-14.54,6.00,6.17,5.81,-2.39,-2.39,6.14
26.43,-8.27,-14.42,-8.26,-14.42,6.00,6.20,5.95,-2.27,-2.26,6.15
26.69,-8.13,-14.30,-8.13,-14.30,6.00,6.23,6.08,-2.13,-2.13,6.16
26.96,-8.00,-14.19,-8.00,-14.18,6.00,6.25,6.21,-2.00,-2.00,6.18
27.23,-7.87,-14.07,-7.87,-14.06,6.00,6.27,6.34,-1.87,-1.87,6.19
27.50,-7.74,-13.94,-7.74,-13.94,6.00,6.29,6.47,-1.74,-1.74,6.20
27.77,-7.61,-13.81,-7.62,-13.82,6.00,6.30,6.60,-1.61,-1.62,6.20
28.05,-7.49,-13.71,-7.49,-13.70,6.00,6.31,6.72,-1.49,-1.49,6.22
28.33,-7.36,-13.58,-7.36,-13.58,6.00,6.32,6.83,-1.36,-1.36,6.22
28.62,-7.24,-13.46,-7.23,-13.46,6.00,6.32,6.94,-1.24,-1.23,6.23
28.90,-7.09,-13.33,-7.10,-13.33,6.00,6.31,7.04,-1.09,-1.10,6.24
29.19,-6.96,-13.20,-6.96,-13.21,6.00,6.30,7.13,-0.96,-0.96,6.24
29.48,-6.83,-13.10,-6.83,-13.09,6.00,6.29,7.21,-0.83,-0.83,6.27
29.78,-6.70,-12.97,-6.70,-12.97,6.00,6.27,7.29,-0.70,-0.70,6.26
30.08,-6.58,-12.85,-6.57,-12.85,6.00,6.25,7.35,-0.58,-0.57,6.27
30.38,-6.44,-12.72,-6.44,-12.72,6.00,6.23,7.41,-0.44,-0.44,6.27
30.68,-6.31,-12.60,-6.31,-12.60,6.00,6.20,7.45,-0.31,-0.31,6.29
30.99,-6.18,-12.47,-6.18,-12.48,6.00,6.17,7.48,-0.18,-0.18,6.29
31.30,-6.05,-12.35,-6.05,-12.36,6.00,6.14,7.50,-0.05,-0.05,6.30
31.61,-5.92,-12.23,-5.93,-12.23,6.00,6.11,7.51,0.08,0.07,6.31
31.93,-5.80,-12.12,-5.80,-12.11,6.00,6.08,7.51,0.20,0.20,6.32
32.24,-5.67,-11.99,-5.67,-11.99,6.00,6.04,7.49,0.33,0.33,6.32
32.57,-5.54,-11.88,-5.54,-11.87,6.00,6.01,7.47,0.46,0.46,6.33
32.89,-5.41,-11.75,-5.41,-11.75,6.00,5.98,7.43,0.59,0.59,6.34
33.22,-5.28,-11.63,-5.28,-11.63,6.00,5.95,7.39,0.72,0.72,6.35
33.55,-5.15,-11.51,-5.15,-11.51,6.00,5.93,7.33,0.85,0.85,6.36
33.89,-5.01,-11.38,-5.02,-11.38,6.00,5.90,7.27,0.99,0.98,6.37
34.23,-4.88,-11.26,-4.89,-11.26,6.00,5.87,7.20,1.12,1.11,6.38
34.57,-4.76,-11.15,-4.76,-11.14,6.00,5.85,7.13,1.24,1.24,6.38
34.92,-4.63,-11.02,-4.63,-11.02,6.00,5.83,7.05,1.37,1.37,6.38
35.27,-4.50,-10.89,-4.51,-10.90,6.00,5.81,6.96,1.50,1.49,6.39
35.62,-4.37,-10.77,-4.37,-10.77,6.00,5.79,6.87,1.63,1.63,6.40
35.97,-4.24,-10.64,-4.24,-10.64,6.00,5.77,6.78,1.76,1.76,6.40
36.33,-4.11,-10.52,-4.11,-10.51,6.00,5.75,6.68,1.89,1.89,6.40
36.70,-3.97,-10.38,-3.98,-10.38,6.00,5.74,6.58,2.03,2.02,6.40
37.06,-3.84,-10.25,-3.84,-10.25,6.00,5.73,6.48,2.16,2.16,6.41
37.43,-3.69,-10.11,-3.69,-10.11,6.00,5.72,6.39,2.31,2.31,6.42
37.81,-3.55,-9.97,-3.55,-9.97,6.00,5.71,6.29,2.45,2.45,6.41
38.19,-3.41,-9.83,-3.42,-9.83,6.00,5.70,6.19,2.59,2.58,6.41
38.57,-3.28,-9.69,-3.28,-9.69,6.00,5.70,6.10,2.72,2.72,6.41
38.95,-3.15,-9.56,-3.15,-9.55,6.00,5.70,6.00,2.85,2.85,6.41
39.34,-3.01,-9.41,-3.02,-9.42,6.00,5.70,5.91,2.99,2.98,6.40
39.74,-2.88,-9.28,-2.88,-9.29,6.00,5.70,5.82,3.12,3.12,6.40
40.14,-2.75,-9.16,-2.75,-9.16,6.00,5.71,5.73,3.25,3.25,6.41
40.54,-2.62,-9.03,-2.62,-9.03,6.00,5.71,5.65,3.38,3.38,6.40
40.94,-2.49,-8.89,-2.49,-8.89,6.00,5.72,5.57,3.51,3.51,6.40
41.35,-2.35,-8.75,-2.35,-8.75,6.00,5.74,5.49,3.65,3.65,6.40
41.76,-2.22,-8.62,-2.22,-8.62,6.00,5.75,5.42,3.78,3.78,6.40
42.18,-2.08,-8.49,-2.09,-8.49,6.00,5.77,5.35,3.92,3.91,6.41
42.60,-1.96,-8.37,-1.96,-8.37,6.00,5.80,5.28,4.04,4.04,6.40
43.03,-1.83,-8.24,-1.83,-8.24,6.00,5.82,5.22,4.17,4.17,6.41
43.46,-1.71,-8.12,-1.72,-8.12,6.00,5.85,5.16,4.29,4.28,6.41
43.90,-1.60,-8.00,-1.60,-8.00,6.00,5.89,5.11,4.40,4.40,6.39
44.33,-1.48,-7.88,-1.48,-7.87,6.00,5.92,5.05,4.52,4.52,6.40
44.78,-1.35,-7.75,-1.36,-7.75,6.00,5.96,5.01,4.65,4.64,6.39
45.23,-1.23,-7.62,-1.24,-7.63,6.00,6.01,4.96,4.77,4.76,6.39
45.68,-1.12,-7.51,-1.12,-7.51,6.00,6.05,4.92,4.88,4.88,6.39
46.13,-1.01,-7.40,-1.01,-7.40,6.00,6.09,4.89,4.99,4.99,6.39
46.60,-0.90,-7.30,-0.90,-7.30,6.00,6.14,4.85,5.10,5.10,6.40
47.06,-0.79,-7.19,-0.79,-7.19,6.00,6.18,4.83,5.21,5.21,6.39
47.53,-0.68,-7.07,-0.68,-7.08,6.00,6.22,4.80,5.32,5.32,6.39
48.01,-0.57,-6.98,-0.58,-6.97,6.00,6.25,4.78,5.43,5.42,6.40
48.49,-0.47,-6.86,-0.48,-6.86,6.00,6.27,4.76,5.53,5.52,6.39
48.97,-0.38,-6.75,-0.38,-6.75,6.00,6.27,4.74,5.62,5.62,6.37
49.46,-0.28,-6.64,-0.28,-6.64,6.01,6.27,4.73,5.72,5.72,6.36
49.96,-0.18,-6.53,-0.19,-6.54,6.01,6.25,4.72,5.83,5.83,6.34
50.46,-0.09,-6.44,-0.09,-6.43,6.02,6.21,4.71,5.92,5.93,6.35
50.96,-0.00,-6.34,0.00,-6.33,6.02,6.16,4.71,6.01,6.02,6.34
51.47,0.10,-6.21,0.09,-6.22,6.01,6.10,4.70,6.10,6.10,6.31
51.99,0.19,-6.12,0.19,-6.12,5.98,6.02,4.70,6.17,6.17,6.30
52.51,0.28,-6.03,0.27,-6.02,5.94,5.93,4.70,6.22,6.22,6.30
53.03,0.36,-5.93,0.36,-5.93,5.89,5.84,4.70,6.24,6.25,6.28
53.56,0.45,-5.83,0.45,-5.83,5.82,5.74,4.70,6.27,6.27,6.27
54.10,0.54,-5.72,0.53,-5.72,5.74,5.63,4.70,6.27,6.27,6.25
54.64,0.62,-5.63,0.62,-5.62,5.64,5.52,4.71,6.26,6.26,6.24
55.18,0.71,-5.52,0.70,-5.52,5.54,5.41,4.71,6.25,6.24,6.22
55.74,0.79,-5.42,0.79,-5.42,5.43,5.31,4.71,6.22,6.22,6.20
56.29,0.87,-5.33,0.87,-5.32,5.33,5.20,4.71,6.19,6.20,6.20
56.86,0.96,-5.22,0.95,-5.23,5.23,5.09,4.71,6.18,6.18,6.18
57.42,1.04,-5.12,1.04,-5.13,5.13,4.99,4.70,6.17,6.17,6.16
58.00,1.12,-5.03,1.12,-5.03,5.03,4.89,4.70,6.15,6.15,6.15
58.58,1.20,-4.94,1.20,-4.94,4.94,4.79,4.69,6.13,6.13,6.13
59.16,1.28,-4.84,1.28,-4.84,4.84,4.70,4.68,6.11,6.11,6.12
59.76,1.37,-4.74,1.36,-4.74,4.73,4.60,4.67,6.10,6.10,6.11
60.35,1.45,-4.64,1.45,-4.63,4.63,4.51,4.65,6.07,6.08,6.08
60.96,1.54,-4.52,1.53,-4.52,4.52,4.42,4.63,6.05,6.05,6.06
61.57,1.62,-4.41,1.62,-4.41,4.41,4.33,4.60,6.02,6.03,6.02
62.18,1.71,-4.28,1.71,-4.29,4.29,4.24,4.57,6.00,6.00,5.99
62.80,1.79,-4.18,1.79,-4.18,4.18,4.15,4.54,5.96,5.97,5.97
63.43,1.88,-4.06,1.87,-4.06,4.06,4.06,4.51,5.94,5.93,5.94
64.07,1.96,-3.95,1.96,-3.95,3.95,3.98,4.46,5.90,5.91,5.91
64.71,2.05,-3.83,2.05,-3.83,3.83,3.89,4.42,5.88,5.88,5.88
65.35,2.14,-3.72,2.13,-3.72,3.72,3.80,4.37,5.86,5.86,5.85
66.01,2.22,-3.61,2.22,-3.61,3.62,3.72,4.32,5.83,5.83,5.82
66.67,2.30,-3.51,2.30,-3.51,3.51,3.63,4.26,5.81,5.81,5.81
67.33,2.37,-3.41,2.37,-3.41,3.41,3.54,4.21,5.77,5.77,5.78
68.01,2.44,-3.31,2.43,-3.31,3.31,3.46,4.14,5.74,5.74,5.75
68.69,2.50,-3.22,2.50,-3.21,3.21,3.37,4.08,5.71,5.71,5.71
69.37,2.57,-3.12,2.57,-3.12,3.12,3.29,4.01,5.68,5.68,5.68
70.07,2.64,-3.01,2.63,-3.03,3.03,3.20,3.94,5.66,5.66,5.65
70.77,2.69,-2.94,2.69,-2.94,2.94,3.12,3.87,5.62,5.63,5.63
71.48,2.75,-2.86,2.75,-2.85,2.85,3.03,3.80,5.60,5.60,5.61
72.19,2.81,-2.77,2.80,-2.77,2.77,2.95,3.73,5.57,5.57,5.57
72.91,2.86,-2.69,2.86,-2.69,2.69,2.87,3.65,5.54,5.55,5.55
73.64,2.92,-2.61,2.92,-2.61,2.61,2.78,3.58,5.53,5.53,5.52
74.38,2.97,-2.54,2.96,-2.54,2.55,2.70,3.50,5.51,5.51,5.51
75.12,3.01,-2.48,3.01,-2.48,2.48,2.62,3.42,5.49,5.49,5.48
75.87,3.04,-2.43,3.04,-2.42,2.43,2.55,3.35,5.46,5.47,5.47
76.63,3.08,-2.37,3.07,-2.37,2.38,2.47,3.27,5.45,5.45,5.45
77.40,3.10,-2.33,3.10,-2.33,2.33,2.40,3.20,5.43,5.43,5.43
78.17,3.13,-2.29,3.12,-2.29,2.29,2.33,3.13,5.42,5.42,5.41
78.95,3.15,-2.26,3.15,-2.26,2.26,2.27,3.05,5.40,5.40,5.40
79.74,3.17,-2.23,3.17,-2.22,2.22,2.20,2.98,5.39,5.39,5.39
80.54,3.20,-2.19,3.19,-2.19,2.18,2.14,2.91,5.38,5.38,5.38
81.35,3.22,-2.16,3.22,-2.15,2.15,2.09,2.84,5.36,5.37,5.37
82.16,3.25,-2.11,3.25,-2.12,2.11,2.04,2.77,5.36,5.36,5.36
82.98,3.28,-2.08,3.28,-2.08,2.08,1.99,2.71,5.35,5.35,5.36
83.81,3.31,-2.04,3.31,-2.04,2.04,1.95,2.64,5.35,5.35,5.35
84.65,3.35,-1.99,3.34,-2.00,2.01,1.91,2.58,5.35,5.35,5.33
85.50,3.37,-1.97,3.37,-1.97,1.97,1.87,2.52,5.34,5.34,5.34
86.35,3.40,-1.94,3.39,-1.94,1.94,1.84,2.46,5.34,5.34,5.34
87.22,3.42,-1.92,3.42,-1.92,1.91,1.81,2.40,5.33,5.33,5.33
88.09,3.44,-1.89,3.44,-1.89,1.88,1.78,2.34,5.32,5.33,5.33
88.97,3.47,-1.87,3.47,-1.86,1.86,1.76,2.29,5.33,5.33,5.33
89.86,3.50,-1.84,3.49,-1.84,1.83,1.74,2.23,5.33,5.33,5.34
90.76,3.52,-1.80,3.52,-1.81,1.81,1.73,2.18,5.33,5.33,5.32
91.66,3.54,-1.79,3.54,-1.78,1.79,1.71,2.13,5.33,5.33,5.32
92.58,3.56,-1.76,3.56,-1.76,1.77,1.70,2.09,5.33,5.33,5.32
93.51,3.58,-1.75,3.57,-1.75,1.75,1.69,2.04,5.33,5.33,5.33
94.44,3.59,-1.74,3.59,-1.74,1.74,1.69,1.99,5.33,5.33,5.32
95.39,3.59,-1.74,3.59,-1.73,1.73,1.68,1.95,5.32,5.32,5.32
96.34,3.59,-1.72,3.59,-1.72,1.73,1.67,1.91,5.31,5.31,5.31
97.30,3.58,-1.72,3.58,-1.72,1.72,1.67,1.87,5.30,5.30,5.30
98.28,3.58,-1.71,3.57,-1.71,1.72,1.66,1.83,5.29,5.29,5.29
99.26,3.57,-1.71,3.57,-1.71,1.71,1.66,1.79,5.28,5.28,5.28
100.25,3.57,-1.70,3.57,-1.70,1.70,1.66,1.76,5.27,5.27,5.27
101.25,3.57,-1.70,3.57,-1.69,1.69,1.65,1.72,5.26,5.26,5.26
102.27,3.57,-1.68,3.57,-1.68,1.67,1.65,1.69,5.24,5.24,5.24
103.29,3.57,-1.66,3.57,-1.66,1.65,1.64,1.65,5.22,5.22,5.22
104.32,3.57,-1.65,3.57,-1.64,1.63,1.64,1.62,5.20,5.20,5.21
105.37,3.58,-1.62,3.58,-1.61,1.61,1.63,1.59,5.18,5.19,5.19
106.42,3.59,-1.58,3.59,-1.58,1.58,1.63,1.57,5.17,5.17,5.17
107.48,3.60,-1.55,3.59,-1.55,1.56,1.62,1.54,5.16,5.15,5.15
108.56,3.58,-1.53,3.58,-1.53,1.54,1.61,1.51,5.12,5.12,5.11
109.64,3.57,-1.51,3.57,-1.51,1.52,1.60,1.49,5.09,5.09,5.08
110.74,3.55,-1.50,3.54,-1.50,1.51,1.59,1.46,5.05,5.05,5.05
111.85,3.51,-1.50,3.51,-1.50,1.50,1.58,1.44,5.00,5.01,5.01
112.97,3.48,-1.48,3.48,-1.49,1.49,1.57,1.41,4.96,4.96,4.96
114.10,3.44,-1.50,3.44,-1.49,1.48,1.56,1.39,4.92,4.92,4.93
115.24,3.41,-1.48,3.41,-1.48,1.47,1.55,1.37,4.88,4.88,4.88
116.39,3.38,-1.46,3.38,-1.46,1.47,1.54,1.35,4.84,4.84,4.84
117.55,3.35,-1.45,3.35,-1.45,1.46,1.52,1.33,4.81,4.80,4.80
118.73,3.32,-1.43,3.31,-1.44,1.45,1.51,1.31,4.76,4.76,4.75
119.92,3.28,-1.45,3.28,-1.43,1.43,1.50,1.29,4.71,4.72,4.72
121.12,3.26,-1.42,3.26,-1.42,1.41,1.48,1.27,4.67,4.67,4.68
122.33,3.25,-1.39,3.24,-1.40,1.39,1.47,1.26,4.63,4.63,4.64
123.55,3.24,-1.38,3.24,-1.37,1.36,1.45,1.24,4.60,4.60,4.61
124.79,3.24,-1.34,3.24,-1.34,1.33,1.43,1.22,4.56,4.57,4.58
126.03,3.25,-1.30,3.25,-1.30,1.29,1.42,1.21,4.54,4.54,4.54
127.29,3.26,-1.25,3.25,-1.25,1.26,1.40,1.19,4.52,4.52,4.51
128.57,3.26,-1.21,3.25,-1.22,1.24,1.39,1.18,4.49,4.49,4.47
129.85,3.24,-1.21,3.24,-1.20,1.22,1.37,1.16,4.45,4.46,4.44
131.15,3.22,-1.19,3.22,-1.19,1.20,1.35,1.15,4.42,4.42,4.41
132.46,3.20,-1.19,3.19,-1.19,1.20,1.34,1.13,4.39,4.39,4.39
133.79,3.17,-1.20,3.16,-1.20,1.19,1.32,1.12,4.36,4.36,4.36
135.12,3.13,-1.21,3.13,-1.21,1.20,1.31,1.11,4.33,4.33,4.33
136.48,3.10,-1.22,3.09,-1.22,1.21,1.29,1.09,4.30,4.30,4.31
137.84,3.06,-1.23,3.06,-1.22,1.21,1.27,1.08,4.27,4.28,4.28
139.22,3.04,-1.22,3.03,-1.22,1.22,1.26,1.07,4.26,4.25,4.25
140.61,3.01,-1.22,3.01,-1.22,1.23,1.24,1.06,4.23,4.23,4.22
142.02,2.98,-1.24,2.98,-1.23,1.23,1.23,1.05,4.21,4.21,4.21
143.44,2.97,-1.23,2.96,-1.23,1.23,1.21,1.04,4.20,4.19,4.20
144.87,2.94,-1.23,2.94,-1.23,1.23,1.20,1.03,4.17,4.17,4.17
146.32,2.92,-1.23,2.92,-1.23,1.23,1.18,1.02,4.14,4.14,4.14
147.78,2.89,-1.24,2.89,-1.23,1.22,1.17,1.01,4.11,4.12,4.13
149.26,2.88,-1.22,2.87,-1.22,1.22,1.16,1.01,4.10,4.09,4.10
150.75,2.85,-1.21,2.85,-1.21,1.22,1.14,1.00,4.06,4.07,4.06
152.26,2.84,-1.19,2.83,-1.20,1.21,1.13,0.99,4.05,4.04,4.03
153.78,2.81,-1.20,2.80,-1.20,1.20,1.12,0.99,4.01,4.01,4.01
155.32,2.78,-1.19,2.78,-1.20,1.20,1.11,0.98,3.97,3.97,3.96
156.88,2.74,-1.21,2.74,-1.20,1.19,1.10,0.97,3.93,3.93,3.94
158.44,2.72,-1.19,2.71,-1.19,1.18,1.09,0.97,3.90,3.90,3.91
160.03,2.69,-1.18,2.69,-1.18,1.18,1.08,0.97,3.87,3.87,3.87
161.63,2.67,-1.16,2.66,-1.17,1.18,1.07,0.96,3.84,3.84,3.83
163.24,2.64,-1.16,2.63,-1.16,1.17,1.06,0.96,3.81,3.81,3.80
164.88,2.60,-1.17,2.60,-1.16,1.17,1.05,0.96,3.76,3.77,3.77
166.53,2.57,-1.16,2.57,-1.16,1.16,1.04,0.96,3.72,3.72,3.73
168.19,2.54,-1.15,2.54,-1.16,1.15,1.04,0.96,3.68,3.68,3.69
169.87,2.51,-1.14,2.51,-1.14,1.14,1.03,0.96,3.64,3.65,3.65
171.57,2.49,-1.13,2.49,-1.13,1.12,1.02,0.96,3.61,3.61,3.61
173.29,2.47,-1.10,2.46,-1.11,1.11,1.02,0.96,3.57,3.57,3.57
175.02,2.44,-1.09,2.44,-1.09,1.09,1.01,0.96,3.52,3.53,3.53
176.77,2.41,-1.07,2.41,-1.07,1.07,1.01,0.96,3.48,3.48,3.47
178.54,2.39,-1.04,2.39,-1.04,1.05,1.01,0.97,3.44,3.44,3.43
180.32,2.36,-1.03,2.35,-1.03,1.04,1.00,0.97,3.39,3.39,3.38
182.13,2.33,-1.01,2.32,-1.02,1.02,1.00,0.98,3.35,3.34,3.34
183.95,2.27,-1.02,2.28,-1.01,1.01,1.00,0.98,3.27,3.28,3.28
185.79,2.24,-1.00,2.24,-1.00,0.99,1.00,0.99,3.23,3.23,3.24
187.65,2.21,-0.97,2.20,-0.98,0.98,1.00,0.99,3.18,3.18,3.18
189.52,2.18,-0.96,2.18,-0.96,0.96,1.00,1.00,3.14,3.14,3.13
191.42,2.15,-0.95,2.15,-0.94,0.94,1.00,1.01,3.09,3.09,3.09
193.33,2.13,-0.92,2.12,-0.93,0.92,1.00,1.01,3.05,3.05,3.05
195.27,2.10,-0.91,2.10,-0.91,0.90,1.00,1.02,3.00,3.00,3.01
197.22,2.07,-0.89,2.07,-0.89,0.88,1.01,1.03,2.95,2.95,2.96
199.19,2.05,-0.86,2.05,-0.86,0.87,1.01,1.04,2.91,2.91,2.91
201.18,2.03,-0.84,2.03,-0.84,0.85,1.01,1.05,2.87,2.87,2.87
203.19,2.01,-0.83,2.00,-0.83,0.83,1.02,1.06,2.84,2.84,2.84
205.23,1.98,-0.81,1.98,-0.82,0.82,1.02,1.07,2.79,2.79,2.79
207.28,1.95,-0.82,1.95,-0.81,0.80,1.03,1.08,2.75,2.75,2.77
209.35,1.92,-0.80,1.92,-0.79,0.79,1.03,1.10,2.71,2.71,2.72
211.44,1.90,-0.77,1.89,-0.78,0.78,1.04,1.11,2.68,2.68,2.67
213.56,1.87,-0.77,1.86,-0.78,0.77,1.05,1.12,2.64,2.64,2.64
215.69,1.84,-0.78,1.84,-0.77,0.77,1.05,1.13,2.60,2.61,2.62
217.85,1.81,-0.78,1.81,-0.77,0.76,1.06,1.14,2.57,2.58,2.58
220.03,1.80,-0.75,1.79,-0.76,0.76,1.07,1.16,2.56,2.55,2.55
222.23,1.77,-0.75,1.77,-0.75,0.77,1.08,1.17,2.53,2.53,2.52
224.45,1.74,-0.76,1.73,-0.76,0.77,1.09,1.18,2.51,2.51,2.50
226.70,1.70,-0.79,1.70,-0.78,0.78,1.10,1.20,2.48,2.48,2.48
228.96,1.66,-0.80,1.66,-0.80,0.80,1.11,1.21,2.45,2.46,2.46
231.25,1.64,-0.81,1.63,-0.82,0.82,1.12,1.22,2.45,2.44,2.45
233.57,1.60,-0.84,1.60,-0.84,0.84,1.14,1.23,2.43,2.43,2.43
235.90,1.56,-0.86,1.56,-0.86,0.86,1.15,1.24,2.41,2.42,2.42
238.26,1.53,-0.89,1.53,-0.89,0.88,1.16,1.26,2.41,2.41,2.41
240.64,1.50,-0.91,1.50,-0.90,0.90,1.18,1.27,2.40,2.41,2.41
243.05,1.49,-0.92,1.48,-0.93,0.93,1.19,1.28,2.41,2.41,2.41
245.48,1.47,-0.94,1.46,-0.95,0.95,1.21,1.29,2.42,2.41,2.41
247.93,1.43,-0.98,1.43,-0.97,0.98,1.22,1.30,2.41,2.42,2.41
250.41,1.41,-1.00,1.40,-1.01,1.01,1.24,1.31,2.42,2.42,2.41
252.92,1.38,-1.05,1.38,-1.05,1.05,1.25,1.32,2.43,2.43,2.42
255.45,1.35,-1.09,1.35,-1.08,1.09,1.27,1.33,2.43,2.44,2.44
258.00,1.32,-1.13,1.31,-1.13,1.13,1.29,1.34,2.45,2.45,2.44
260.58,1.28,-1.17,1.28,-1.18,1.18,1.31,1.34,2.45,2.45,2.45
263.19,1.24,-1.23,1.24,-1.23,1.22,1.33,1.35,2.46,2.46,2.47
265.82,1.20,-1.27,1.20,-1.27,1.27,1.35,1.36,2.47,2.48,2.47
268.48,1.18,-1.32,1.18,-1.32,1.32,1.37,1.37,2.49,2.49,2.50
271.16,1.16,-1.36,1.15,-1.36,1.36,1.39,1.38,2.52,2.51,2.51
273.87,1.12,-1.40,1.12,-1.41,1.40,1.41,1.39,2.52,2.52,2.52
276.61,1.09,-1.46,1.09,-1.45,1.45,1.43,1.39,2.53,2.54,2.55
279.38,1.07,-1.49,1.07,-1.49,1.49,1.45,1.40,2.56,2.56,2.55
282.17,1.05,-1.53,1.05,-1.53,1.53,1.47,1.41,2.58,2.58,2.57
284.99,1.03,-1.56,1.02,-1.57,1.57,1.50,1.42,2.60,2.59,2.59
287.84,0.99,-1.61,0.99,-1.61,1.61,1.52,1.43,2.60,2.60,2.60
290.72,0.96,-1.66,0.96,-1.65,1.65,1.55,1.44,2.61,2.61,2.61
293.63,0.94,-1.69,0.93,-1.70,1.69,1.57,1.45,2.63,2.62,2.63
296.57,0.91,-1.74,0.91,-1.73,1.73,1.60,1.46,2.64,2.64,2.65
299.53,0.89,-1.77,0.89,-1.77,1.77,1.62,1.47,2.66,2.66,2.66
302.53,0.87,-1.80,0.86,-1.81,1.81,1.65,1.48,2.68,2.68,2.66
305.55,0.84,-1.85,0.84,-1.85,1.86,1.68,1.50,2.69,2.69,2.69
308.61,0.81,-1.89,0.80,-1.90,1.90,1.71,1.51,2.71,2.70,2.70
311.69,0.77,-1.94,0.77,-1.94,1.94,1.73,1.53,2.71,2.72,2.71
314.81,0.75,-1.99,0.74,-1.98,1.98,1.76,1.54,2.73,2.73,2.74
317.96,0.72,-2.02,0.71,-2.02,2.02,1.79,1.56,2.74,2.73,2.73
321.14,0.69,-2.05,0.69,-2.06,2.05,1.82,1.58,2.74,2.74,2.74
324.35,0.66,-2.08,0.66,-2.09,2.08,1.85,1.60,2.73,2.74,2.74
327.59,0.64,-2.12,0.64,-2.11,2.10,1.88,1.62,2.73,2.74,2.76
330.87,0.64,-2.12,0.64,-2.12,2.11,1.91,1.64,2.74,2.74,2.76
334.18,0.64,-2.12,0.64,-2.12,2.11,1.94,1.66,2.75,2.76,2.76
337.52,0.66,-2.11,0.65,-2.11,2.12,1.96,1.69,2.78,2.77,2.76
340.90,0.66,-2.12,0.66,-2.11,2.12,1.99,1.71,2.78,2.78,2.77
344.30,0.66,-2.11,0.66,-2.11,2.12,2.02,1.74,2.78,2.78,2.77
347.75,0.65,-2.12,0.65,-2.12,2.13,2.05,1.77,2.78,2.78,2.77
351.23,0.64,-2.13,0.64,-2.13,2.14,2.08,1.80,2.77,2.77,2.77
354.74,0.62,-2.15,0.61,-2.15,2.15,2.10,1.83,2.77,2.77,2.77
358.28,0.59,-2.17,0.59,-2.17,2.17,2.13,1.86,2.76,2.76,2.76
361.87,0.56,-2.20,0.56,-2.20,2.20,2.15,1.90,2.76,2.76,2.75
365.49,0.53,-2.23,0.52,-2.23,2.23,2.18,1.93,2.75,2.75,2.75
369.14,0.49,-2.26,0.49,-2.26,2.26,2.20,1.97,2.74,2.75,2.74
372.83,0.46,-2.28,0.45,-2.29,2.28,2.22,2.01,2.74,2.74,2.74
376.56,0.42,-2.31,0.42,-2.32,2.31,2.24,2.04,2.73,2.73,2.73
380.33,0.39,-2.34,0.39,-2.34,2.34,2.26,2.09,2.72,2.72,2.73
384.13,0.36,-2.36,0.36,-2.36,2.36,2.28,2.13,2.72,2.72,2.72
387.97,0.34,-2.37,0.34,-2.37,2.37,2.30,2.17,2.71,2.71,2.71
391.85,0.32,-2.38,0.32,-2.39,2.38,2.32,2.21,2.70,2.70,2.70
395.77,0.31,-2.40,0.31,-2.39,2.38,2.33,2.26,2.69,2.69,2.71
399.73,0.30,-2.40,0.30,-2.39,2.38,2.35,2.30,2.68,2.68,2.70
403.72,0.31,-2.38,0.31,-2.38,2.37,2.36,2.35,2.68,2.68,2.69
407.76,0.32,-2.36,0.32,-2.36,2.36,2.38,2.40,2.68,2.68,2.67
411.84,0.34,-2.35,0.34,-2.34,2.35,2.39,2.44,2.69,2.69,2.68
415.96,0.35,-2.33,0.34,-2.33,2.34,2.40,2.49,2.69,2.69,2.67
420.12,0.35,-2.33,0.34,-2.33,2.34,2.41,2.54,2.69,2.68,2.67
424.32,0.33,-2.35,0.33,-2.33,2.34,2.42,2.59,2.67,2.68,2.67
428.56,0.32,-2.34,0.32,-2.35,2.35,2.43,2.63,2.67,2.67,2.66
432.85,0.30,-2.36,0.29,-2.37,2.37,2.44,2.68,2.67,2.66,2.66
437.18,0.27,-2.39,0.27,-2.39,2.40,2.45,2.72,2.66,2.67,2.66
441.55,0.24,-2.43,0.24,-2.43,2.43,2.46,2.77,2.66,2.66,2.67
445.96,0.21,-2.46,0.20,-2.46,2.46,2.47,2.81,2.67,2.66,2.67
450.42,0.17,-2.49,0.17,-2.50,2.50,2.48,2.85,2.66,2.66,2.66
454.93,0.14,-2.53,0.13,-2.53,2.53,2.49,2.89,2.67,2.67,2.67
459.48,0.10,-2.57,0.10,-2.57,2.57,2.50,2.93,2.67,2.67,2.67
464.07,0.08,-2.60,0.07,-2.61,2.61,2.51,2.97,2.68,2.68,2.68
468.71,0.05,-2.64,0.04,-2.64,2.64,2.52,3.00,2.69,2.68,2.69
473.40,0.01,-2.68,0.02,-2.67,2.67,2.53,3.03,2.68,2.68,2.69
478.13,-0.00,-2.70,-0.01,-2.70,2.69,2.54,3.06,2.69,2.68,2.70
482.91,-0.02,-2.72,-0.02,-2.72,2.71,2.55,3.08,2.69,2.69,2.70
487.74,-0.02,-2.73,-0.02,-2.73,2.72,2.56,3.10,2.70,2.70,2.71
492.62,-0.02,-2.74,-0.02,-2.73,2.73,2.57,3.12,2.71,2.71,2.72
497.55,-0.01,-2.73,-0.01,-2.73,2.73,2.58,3.13,2.72,2.72,2.72
502.52,-0.00,-2.73,-0.01,-2.73,2.74,2.59,3.14,2.73,2.73,2.72
507.55,-0.00,-2.73,-0.00,-2.73,2.74,2.60,3.15,2.73,2.73,2.72
512.62,-0.00,-2.73,-0.00,-2.73,2.74,2.61,3.15,2.73,2.73,2.72
517.75,-0.00,-2.74,-0.00,-2.73,2.73,2.63,3.15,2.73,2.73,2.73
522.93,-0.00,-2.74,-0.00,-2.74,2.73,2.64,3.15,2.73,2.73,2.73
528.16,-0.00,-2.74,-0.00,-2.74,2.74,2.65,3.14,2.73,2.73,2.73
533.44,-0.00,-2.74,-0.00,-2.74,2.74,2.66,3.14,2.73,2.73,2.73
