frequency,raw,error,smoothed,error_smoothed,equalization,parametric_eq,fixed_band_eq,equalized_raw,equalized_smoothed,target
20.00,-6.98,-7.43,-6.99,-7.43,6.00,6.28,2.18,-0.98,-0.99,0.44
20.20,-6.94,-7.42,-6.94,-7.41,6.00,6.25,2.25,-0.94,-0.94,0.47
20.40,-6.88,-7.39,-6.87,-7.38,6.00,6.21,2.31,-0.88,-0.87,0.50
20.61,-6.80,-7.33,-6.81,-7.33,6.00,6.17,2.38,-0.80,-0.81,0.52
20.81,-6.71,-7.26,-6.72,-7.28,6.00,6.14,2.45,-0.71,-0.72,0.55
21.02,-6.65,-7.23,-6.64,-7.22,6.00,6.10,2.52,-0.65,-0.64,0.58
21.23,-6.55,-7.14,-6.56,-7.15,6.00,6.06,2.60,-0.55,-0.56,0.59
21.44,-6.48,-7.08,-6.48,-7.09,6.00,6.03,2.67,-0.48,-0.48,0.60
21.66,-6.40,-7.02,-6.40,-7.01,6.00,5.99,2.75,-0.40,-0.40,0.61
21.87,-6.32,-6.93,-6.32,-6.94,6.00,5.95,2.83,-0.32,-0.32,0.61
22.09,-6.24,-6.86,-6.24,-6.86,6.00,5.92,2.91,-0.24,-0.24,0.62
22.31,-6.17,-6.79,-6.17,-6.79,6.00,5.88,3.00,-0.17,-0.17,0.62
22.54,-6.09,-6.71,-6.10,-6.72,6.00,5.84,3.09,-0.09,-0.10,0.62
22.76,-6.03,-6.65,-6.03,-6.64,6.00,5.81,3.18,-0.03,-0.03,0.62
22.99,-5.95,-6.56,-5.96,-6.57,6.00,5.77,3.27,0.05,0.04,0.61
23.22,-5.88,-6.49,-5.88,-6.49,6.01,5.73,3.36,0.12,0.13,0.61
23.45,-5.80,-6.41,-5.81,-6.41,6.01,5.70,3.46,0.21,0.21,0.61
23.69,-5.72,-6.33,-5.73,-6.33,6.02,5.66,3.56,0.29,0.29,0.61
23.92,-5.65,-6.26,-5.65,-6.26,6.01,5.62,3.66,0.36,0.37,0.61
24.16,-5.55,-6.17,-5.56,-6.17,6.00,5.58,3.76,0.45,0.44,0.62
24.40,-5.48,-6.10,-5.47,-6.09,5.97,5.55,3.86,0.49,0.50,0.62
24.65,-5.37,-5.98,-5.38,-6.00,5.93,5.51,3.97,0.56,0.55,0.61
24.89,-5.31,-5.92,-5.30,-5.91,5.88,5.47,4.07,0.57,0.58,0.61
25.14,-5.20,-5.81,-5.21,-5.82,5.82,5.43,4.18,0.61,0.61,0.61
25.39,-5.13,-5.74,-5.12,-5.73,5.74,5.39,4.29,0.61,0.62,0.61
25.65,-5.03,-5.64,-5.03,-5.64,5.66,5.35,4.39,0.63,0.63,0.60
25.91,-4.95,-5.55,-4.96,-5.56,5.58,5.32,4.50,0.62,0.62,0.59
26.16,-4.88,-5.48,-4.88,-5.48,5.49,5.28,4.61,0.61,0.61,0.59
26.43,-4.82,-5.42,-4.81,-5.41,5.41,5.24,4.72,0.59,0.59,0.59
26.69,-4.74,-5.34,-4.75,-5.34,5.34,5.20,4.82,0.59,0.59,0.59
26.96,-4.67,-5.27,-4.68,-5.27,5.26,5.16,4.93,0.59,0.58,0.59
27.23,-4.61,-5.20,-4.61,-5.20,5.19,5.12,5.03,0.58,0.58,0.59
27.50,-4.54,-5.13,-4.54,-5.13,5.12,5.08,5.12,0.58,0.58,0.59
27.77,-4.46,-5.04,-4.47,-5.05,5.05,5.04,5.22,0.59,0.58,0.58
28.05,-4.40,-4.98,-4.40,-4.98,4.98,5.00,5.31,0.58,0.58,0.58
28.33,-4.34,-4.91,-4.34,-4.91,4.92,4.96,5.39,0.57,0.57,0.57
28.62,-4.28,-4.85,-4.28,-4.85,4.85,4.92,5.47,0.56,0.57,0.57
28.90,-4.22,-4.79,-4.22,-4.78,4.78,4.88,5.54,0.56,0.56,0.57
29.19,-4.15,-4.71,-4.16,-4.72,4.72,4.83,5.61,0.56,0.56,0.56
29.48,-4.09,-4.66,-4.10,-4.65,4.65,4.79,5.66,0.56,0.55,0.56
29.78,-4.03,-4.59,-4.03,-4.59,4.59,4.75,5.72,0.55,0.55,0.55
30.08,-3.98,-4.54,-3.97,-4.52,4.52,4.71,5.75,0.54,0.55,0.55
30.38,-3.90,-4.45,-3.91,-4.46,4.46,4.66,5.79,0.56,0.55,0.54
30.68,-3.85,-4.39,-3.86,-4.39,4.40,4.62,5.81,0.55,0.54,0.54
30.99,-3.80,-4.33,-3.80,-4.33,4.33,4.58,5.82,0.53,0.53,0.53
31.30,-3.75,-4.28,-3.75,-4.28,4.27,4.53,5.82,0.52,0.52,0.53
31.61,-3.70,-4.23,-3.70,-4.22,4.21,4.49,5.81,0.51,0.51,0.53
31.93,-3.63,-4.15,-3.64,-4.15,4.15,4.44,5.79,0.52,0.51,0.52
32.24,-3.57,-4.08,-3.58,-4.09,4.09,4.40,5.77,0.52,0.51,0.50
32.57,-3.52,-4.03,-3.52,-4.02,4.03,4.35,5.73,0.51,0.51,0.50
32.89,-3.47,-3.97,-3.48,-3.97,3.98,4.30,5.68,0.50,0.50,0.50
33.22,-3.43,-3.92,-3.43,-3.92,3.92,4.26,5.62,0.49,0.49,0.49
33.55,-3.38,-3.87,-3.38,-3.87,3.86,4.21,5.56,0.48,0.48,0.49
33.89,-3.32,-3.80,-3.33,-3.81,3.81,4.16,5.49,0.49,0.48,0.48
34.23,-3.29,-3.77,-3.29,-3.76,3.76,4.11,5.41,0.46,0.47,0.47
34.57,-3.24,-3.71,-3.25,-3.71,3.71,4.06,5.32,0.47,0.46,0.46
34.92,-3.21,-3.66,-3.20,-3.66,3.66,4.01,5.23,0.45,0.46,0.45
35.27,-3.15,-3.60,-3.16,-3.61,3.61,3.96,5.14,0.46,0.45,0.45
35.62,-3.12,-3.56,-3.12,-3.56,3.56,3.91,5.04,0.44,0.44,0.44
35.97,-3.09,-3.52,-3.09,-3.52,3.52,3.86,4.94,0.43,0.43,0.42
36.33,-3.06,-3.49,-3.06,-3.48,3.48,3.81,4.83,0.41,0.41,0.42
36.70,-3.03,-3.44,-3.03,-3.44,3.43,3.75,4.72,0.40,0.41,0.41
37.06,-2.99,-3.39,-2.99,-3.40,3.39,3.70,4.61,0.40,0.40,0.40
37.43,-2.94,-3.34,-2.96,-3.35,3.35,3.65,4.50,0.41,0.39,0.40
37.81,-2.94,-3.33,-2.93,-3.31,3.31,3.59,4.39,0.37,0.38,0.38
38.19,-2.89,-3.26,-2.90,-3.28,3.28,3.54,4.27,0.39,0.38,0.37
38.57,-2.89,-3.26,-2.88,-3.25,3.25,3.48,4.16,0.36,0.37,0.37
38.95,-2.85,-3.21,-2.86,-3.21,3.23,3.42,4.05,0.37,0.37,0.35
39.34,-2.85,-3.19,-2.85,-3.20,3.21,3.37,3.94,0.35,0.35,0.34
39.74,-2.85,-3.18,-2.85,-3.18,3.19,3.31,3.83,0.34,0.34,0.33
40.14,-2.85,-3.18,-2.86,-3.18,3.17,3.25,3.72,0.32,0.32,0.33
40.54,-2.85,-3.17,-2.85,-3.16,3.16,3.19,3.61,0.30,0.31,0.31
40.94,-2.85,-3.16,-2.84,-3.15,3.14,3.13,3.50,0.29,0.30,0.31
41.35,-2.80,-3.10,-2.82,-3.12,3.12,3.07,3.40,0.31,0.30,0.29
41.76,-2.80,-3.09,-2.80,-3.09,3.09,3.01,3.29,0.29,0.29,0.29
42.18,-2.76,-3.05,-2.77,-3.05,3.05,2.95,3.19,0.29,0.28,0.29
42.60,-2.75,-3.03,-2.74,-3.02,3.01,2.89,3.09,0.26,0.27,0.27
43.03,-2.69,-2.96,-2.70,-2.96,2.96,2.83,3.00,0.26,0.26,0.27
43.46,-2.64,-2.90,-2.65,-2.90,2.90,2.76,2.90,0.25,0.25,0.25
43.90,-2.59,-2.82,-2.59,-2.83,2.83,2.70,2.81,0.24,0.23,0.23
44.33,-2.54,-2.76,-2.54,-2.76,2.76,2.64,2.72,0.21,0.21,0.22
44.78,-2.48,-2.68,-2.48,-2.68,2.67,2.57,2.63,0.19,0.20,0.20
45.23,-2.40,-2.59,-2.41,-2.59,2.59,2.51,2.54,0.18,0.18,0.19
45.68,-2.32,-2.49,-2.33,-2.50,2.50,2.44,2.46,0.17,0.17,0.17
46.13,-2.25,-2.41,-2.25,-2.41,2.41,2.38,2.38,0.15,0.16,0.15
46.60,-2.17,-2.32,-2.17,-2.31,2.31,2.31,2.30,0.14,0.15,0.15
47.06,-2.08,-2.22,-2.09,-2.22,2.22,2.25,2.22,0.14,0.13,0.13
47.53,-2.01,-2.13,-2.01,-2.13,2.13,2.18,2.14,0.12,0.12,0.12
48.01,-1.94,-2.05,-1.94,-2.05,2.05,2.12,2.07,0.11,0.11,0.11
48.49,-1.88,-1.97,-1.89,-1.97,1.97,2.06,1.99,0.09,0.09,0.08
48.97,-1.84,-1.90,-1.84,-1.90,1.90,1.99,1.92,0.06,0.06,0.06
49.46,-1.79,-1.82,-1.80,-1.83,1.84,1.93,1.85,0.05,0.04,0.03
49.96,-1.77,-1.78,-1.76,-1.77,1.79,1.86,1.79,0.01,0.02,0.00
50.46,-1.73,-1.73,-1.75,-1.74,1.74,1.80,1.72,0.01,-0.01,-0.00
50.96,-1.73,-1.71,-1.73,-1.70,1.70,1.74,1.66,-0.03,-0.03,-0.02
51.47,-1.73,-1.68,-1.71,-1.67,1.66,1.67,1.59,-0.07,-0.05,-0.05
51.99,-1.68,-1.61,-1.70,-1.63,1.63,1.61,1.53,-0.05,-0.07,-0.07
52.51,-1.68,-1.60,-1.69,-1.61,1.60,1.55,1.48,-0.08,-0.09,-0.08
53.03,-1.68,-1.59,-1.68,-1.58,1.57,1.49,1.42,-0.11,-0.10,-0.10
53.56,-1.68,-1.57,-1.67,-1.55,1.55,1.43,1.36,-0.14,-0.12,-0.12
54.10,-1.64,-1.51,-1.66,-1.52,1.52,1.37,1.31,-0.12,-0.14,-0.14
54.64,-1.64,-1.49,-1.64,-1.49,1.49,1.31,1.25,-0.15,-0.15,-0.16
55.18,-1.64,-1.47,-1.64,-1.46,1.47,1.26,1.20,-0.17,-0.17,-0.18
55.74,-1.64,-1.45,-1.64,-1.45,1.45,1.20,1.15,-0.19,-0.19,-0.20
56.29,-1.64,-1.43,-1.64,-1.43,1.43,1.15,1.10,-0.21,-0.21,-0.21
56.86,-1.64,-1.41,-1.64,-1.41,1.41,1.10,1.06,-0.23,-0.23,-0.23
57.42,-1.64,-1.39,-1.64,-1.39,1.40,1.05,1.01,-0.25,-0.25,-0.25
58.00,-1.64,-1.38,-1.64,-1.38,1.39,1.00,0.97,-0.26,-0.26,-0.26
58.58,-1.64,-1.37,-1.64,-1.37,1.38,0.95,0.92,-0.27,-0.27,-0.28
59.16,-1.64,-1.35,-1.64,-1.35,1.36,0.90,0.88,-0.28,-0.28,-0.29
59.76,-1.64,-1.34,-1.64,-1.34,1.34,0.86,0.84,-0.30,-0.30,-0.30
60.35,-1.64,-1.31,-1.65,-1.32,1.31,0.81,0.80,-0.33,-0.33,-0.33
60.96,-1.64,-1.30,-1.64,-1.29,1.28,0.77,0.76,-0.37,-0.36,-0.34
61.57,-1.62,-1.24,-1.62,-1.24,1.23,0.73,0.72,-0.40,-0.39,-0.38
62.18,-1.57,-1.17,-1.57,-1.17,1.16,0.69,0.68,-0.41,-0.41,-0.40
62.80,-1.51,-1.09,-1.51,-1.09,1.08,0.66,0.65,-0.43,-0.43,-0.42
63.43,-1.42,-0.98,-1.44,-0.99,0.98,0.62,0.61,-0.44,-0.45,-0.45
64.07,-1.36,-0.90,-1.35,-0.88,0.88,0.59,0.58,-0.49,-0.47,-0.46
64.71,-1.25,-0.77,-1.25,-0.77,0.76,0.56,0.55,-0.49,-0.49,-0.48
65.35,-1.12,-0.62,-1.14,-0.64,0.64,0.52,0.51,-0.48,-0.50,-0.50
66.01,-1.03,-0.52,-1.03,-0.51,0.52,0.50,0.48,-0.52,-0.51,-0.52
66.67,-0.92,-0.39,-0.92,-0.39,0.40,0.47,0.45,-0.52,-0.52,-0.54
67.33,-0.83,-0.28,-0.83,-0.28,0.29,0.44,0.42,-0.54,-0.55,-0.56
68.01,-0.75,-0.18,-0.75,-0.18,0.19,0.41,0.39,-0.57,-0.56,-0.58
68.69,-0.68,-0.09,-0.69,-0.09,0.10,0.39,0.36,-0.59,-0.59,-0.60
69.37,-0.63,-0.01,-0.63,-0.02,0.02,0.37,0.34,-0.61,-0.61,-0.62
70.07,-0.59,0.05,-0.59,0.05,-0.04,0.34,0.31,-0.64,-0.63,-0.64
70.77,-0.56,0.09,-0.56,0.10,-0.10,0.32,0.28,-0.66,-0.65,-0.65
71.48,-0.52,0.15,-0.53,0.14,-0.14,0.30,0.26,-0.66,-0.67,-0.68
72.19,-0.52,0.18,-0.52,0.18,-0.18,0.28,0.23,-0.70,-0.70,-0.70
72.91,-0.52,0.20,-0.52,0.20,-0.21,0.26,0.21,-0.73,-0.72,-0.72
73.64,-0.52,0.22,-0.52,0.22,-0.23,0.24,0.18,-0.75,-0.75,-0.75
74.38,-0.52,0.24,-0.52,0.24,-0.25,0.22,0.15,-0.77,-0.77,-0.76
75.12,-0.52,0.27,-0.52,0.27,-0.26,0.20,0.13,-0.79,-0.78,-0.79
75.87,-0.52,0.28,-0.52,0.28,-0.28,0.18,0.11,-0.80,-0.80,-0.81
76.63,-0.52,0.30,-0.54,0.29,-0.29,0.16,0.08,-0.81,-0.82,-0.82
77.40,-0.56,0.28,-0.55,0.30,-0.30,0.14,0.06,-0.86,-0.84,-0.84
78.17,-0.56,0.31,-0.56,0.30,-0.30,0.12,0.03,-0.87,-0.86,-0.87
78.95,-0.56,0.31,-0.57,0.31,-0.31,0.10,0.01,-0.87,-0.88,-0.88
79.74,-0.58,0.31,-0.59,0.31,-0.31,0.08,-0.02,-0.90,-0.90,-0.90
80.54,-0.61,0.30,-0.60,0.32,-0.32,0.06,-0.04,-0.93,-0.92,-0.92
81.35,-0.61,0.33,-0.61,0.32,-0.32,0.04,-0.07,-0.94,-0.94,-0.94
82.16,-0.61,0.35,-0.63,0.33,-0.33,0.02,-0.09,-0.95,-0.96,-0.96
82.98,-0.64,0.33,-0.64,0.34,-0.34,-0.00,-0.12,-0.98,-0.98,-0.97
83.81,-0.66,0.34,-0.65,0.35,-0.35,-0.03,-0.14,-1.01,-1.00,-1.00
84.65,-0.66,0.36,-0.66,0.36,-0.36,-0.05,-0.17,-1.02,-1.02,-1.03
85.50,-0.66,0.38,-0.67,0.37,-0.37,-0.07,-0.19,-1.03,-1.04,-1.04
86.35,-0.68,0.38,-0.68,0.38,-0.38,-0.10,-0.22,-1.06,-1.06,-1.06
87.22,-0.70,0.39,-0.69,0.40,-0.39,-0.12,-0.24,-1.10,-1.08,-1.09
88.09,-0.70,0.41,-0.71,0.40,-0.40,-0.15,-0.27,-1.11,-1.11,-1.11
88.97,-0.70,0.43,-0.72,0.41,-0.41,-0.18,-0.29,-1.12,-1.13,-1.13
89.86,-0.75,0.40,-0.73,0.42,-0.42,-0.20,-0.32,-1.18,-1.15,-1.15
90.76,-0.75,0.44,-0.75,0.43,-0.43,-0.23,-0.35,-1.18,-1.18,-1.19
91.66,-0.75,0.45,-0.77,0.44,-0.44,-0.26,-0.37,-1.19,-1.21,-1.21
92.58,-0.80,0.44,-0.79,0.45,-0.45,-0.29,-0.40,-1.25,-1.24,-1.24
93.51,-0.80,0.46,-0.81,0.45,-0.46,-0.32,-0.43,-1.26,-1.27,-1.26
94.44,-0.82,0.47,-0.82,0.47,-0.47,-0.35,-0.46,-1.29,-1.29,-1.29
95.39,-0.84,0.47,-0.84,0.48,-0.48,-0.38,-0.49,-1.32,-1.32,-1.32
96.34,-0.84,0.51,-0.86,0.49,-0.49,-0.42,-0.51,-1.33,-1.35,-1.35
97.30,-0.89,0.49,-0.87,0.51,-0.50,-0.45,-0.54,-1.40,-1.38,-1.38
98.28,-0.89,0.52,-0.89,0.52,-0.52,-0.48,-0.57,-1.41,-1.41,-1.41
99.26,-0.89,0.55,-0.91,0.53,-0.53,-0.52,-0.60,-1.42,-1.45,-1.44
100.25,-0.94,0.53,-0.93,0.54,-0.55,-0.55,-0.63,-1.49,-1.47,-1.47
101.25,-0.94,0.56,-0.94,0.56,-0.56,-0.59,-0.66,-1.51,-1.50,-1.50
102.27,-0.94,0.59,-0.95,0.58,-0.58,-0.62,-0.69,-1.52,-1.53,-1.53
103.29,-0.94,0.62,-0.96,0.60,-0.60,-0.66,-0.72,-1.54,-1.56,-1.57
104.32,-0.98,0.60,-0.97,0.62,-0.62,-0.70,-0.75,-1.60,-1.59,-1.59
105.37,-0.98,0.63,-0.98,0.64,-0.64,-0.73,-0.78,-1.62,-1.62,-1.62
106.42,-0.98,0.66,-0.98,0.66,-0.66,-0.77,-0.81,-1.64,-1.65,-1.65
107.48,-0.98,0.69,-0.99,0.69,-0.68,-0.81,-0.84,-1.66,-1.67,-1.68
108.56,-1.00,0.71,-1.01,0.70,-0.70,-0.85,-0.87,-1.71,-1.71,-1.71
109.64,-1.03,0.71,-1.02,0.72,-0.73,-0.89,-0.89,-1.76,-1.75,-1.74
110.74,-1.03,0.74,-1.03,0.74,-0.75,-0.93,-0.92,-1.78,-1.78,-1.77
111.85,-1.03,0.77,-1.03,0.77,-0.77,-0.96,-0.95,-1.81,-1.81,-1.80
112.97,-1.03,0.82,-1.04,0.80,-0.80,-1.00,-0.98,-1.83,-1.84,-1.85
114.10,-1.05,0.83,-1.06,0.82,-0.82,-1.04,-1.00,-1.88,-1.88,-1.88
115.24,-1.08,0.83,-1.07,0.85,-0.85,-1.08,-1.03,-1.93,-1.92,-1.92
116.39,-1.08,0.87,-1.08,0.87,-0.88,-1.12,-1.05,-1.96,-1.96,-1.96
117.55,-1.08,0.91,-1.08,0.91,-0.91,-1.16,-1.07,-1.99,-1.99,-1.99
118.73,-1.08,0.95,-1.08,0.94,-0.93,-1.20,-1.10,-2.01,-2.02,-2.03
119.92,-1.08,0.97,-1.10,0.97,-0.96,-1.24,-1.12,-2.04,-2.06,-2.06
121.12,-1.12,0.97,-1.11,0.98,-0.99,-1.27,-1.14,-2.11,-2.10,-2.09
122.33,-1.12,1.01,-1.12,1.01,-1.02,-1.31,-1.16,-2.14,-2.14,-2.13
123.55,-1.12,1.03,-1.13,1.03,-1.04,-1.35,-1.18,-2.17,-2.17,-2.16
124.79,-1.12,1.07,-1.12,1.07,-1.07,-1.39,-1.19,-2.19,-2.19,-2.19
126.03,-1.12,1.10,-1.12,1.10,-1.09,-1.42,-1.21,-2.22,-2.22,-2.23
127.29,-1.12,1.14,-1.13,1.13,-1.12,-1.46,-1.22,-2.25,-2.26,-2.26
128.57,-1.15,1.15,-1.15,1.15,-1.15,-1.49,-1.24,-2.30,-2.30,-2.31
129.85,-1.17,1.17,-1.16,1.17,-1.18,-1.53,-1.25,-2.35,-2.34,-2.34
131.15,-1.17,1.20,-1.17,1.20,-1.21,-1.56,-1.26,-2.38,-2.38,-2.37
132.46,-1.17,1.23,-1.17,1.23,-1.23,-1.60,-1.27,-2.41,-2.41,-2.40
133.79,-1.17,1.25,-1.17,1.26,-1.26,-1.63,-1.28,-2.43,-2.43,-2.43
135.12,-1.17,1.29,-1.17,1.29,-1.28,-1.66,-1.29,-2.45,-2.45,-2.47
136.48,-1.17,1.32,-1.18,1.31,-1.30,-1.69,-1.30,-2.48,-2.49,-2.49
137.84,-1.19,1.33,-1.20,1.33,-1.33,-1.72,-1.31,-2.52,-2.52,-2.52
139.22,-1.22,1.34,-1.21,1.34,-1.35,-1.75,-1.31,-2.57,-2.56,-2.56
140.61,-1.22,1.36,-1.22,1.36,-1.36,-1.78,-1.32,-2.59,-2.58,-2.59
142.02,-1.22,1.37,-1.22,1.38,-1.38,-1.81,-1.33,-2.60,-2.60,-2.60
143.44,-1.22,1.40,-1.23,1.40,-1.39,-1.84,-1.34,-2.61,-2.62,-2.62
144.87,-1.23,1.42,-1.24,1.41,-1.41,-1.87,-1.34,-2.64,-2.65,-2.65
146.32,-1.26,1.42,-1.25,1.42,-1.43,-1.89,-1.35,-2.69,-2.68,-2.68
147.78,-1.26,1.43,-1.26,1.44,-1.45,-1.92,-1.36,-2.71,-2.71,-2.69
149.26,-1.26,1.46,-1.27,1.46,-1.47,-1.94,-1.37,-2.73,-2.73,-2.72
150.75,-1.26,1.49,-1.26,1.49,-1.49,-1.96,-1.37,-2.75,-2.75,-2.76
152.26,-1.26,1.52,-1.26,1.52,-1.51,-1.98,-1.38,-2.77,-2.77,-2.78
153.78,-1.26,1.54,-1.26,1.54,-1.53,-2.00,-1.39,-2.79,-2.79,-2.80
155.32,-1.26,1.57,-1.27,1.56,-1.55,-2.02,-1.40,-2.82,-2.83,-2.84
156.88,-1.29,1.57,-1.29,1.57,-1.58,-2.04,-1.41,-2.87,-2.86,-2.86
158.44,-1.30,1.59,-1.30,1.59,-1.60,-2.06,-1.42,-2.90,-2.90,-2.89
160.03,-1.31,1.61,-1.31,1.61,-1.62,-2.08,-1.44,-2.93,-2.93,-2.92
161.63,-1.31,1.64,-1.31,1.64,-1.64,-2.09,-1.45,-2.96,-2.96,-2.95
163.24,-1.31,1.67,-1.31,1.67,-1.67,-2.11,-1.46,-2.98,-2.98,-2.98
164.88,-1.31,1.69,-1.31,1.69,-1.69,-2.12,-1.48,-3.00,-3.00,-3.00
166.53,-1.31,1.72,-1.31,1.72,-1.72,-2.13,-1.50,-3.03,-3.03,-3.03
168.19,-1.31,1.75,-1.31,1.75,-1.75,-2.14,-1.52,-3.06,-3.06,-3.06
169.87,-1.31,1.78,-1.31,1.78,-1.78,-2.15,-1.54,-3.09,-3.09,-3.09
171.57,-1.31,1.80,-1.31,1.80,-1.80,-2.16,-1.56,-3.12,-3.12,-3.12
173.29,-1.31,1.83,-1.31,1.83,-1.83,-2.17,-1.58,-3.15,-3.15,-3.14
175.02,-1.31,1.86,-1.31,1.86,-1.86,-2.18,-1.60,-3.18,-3.18,-3.17
176.77,-1.31,1.89,-1.31,1.89,-1.89,-2.19,-1.63,-3.21,-3.21,-3.21
178.54,-1.31,1.93,-1.31,1.92,-1.92,-2.19,-1.65,-3.24,-3.24,-3.24
180.32,-1.31,1.95,-1.31,1.96,-1.95,-2.20,-1.68,-3.27,-3.27,-3.27
182.13,-1.31,1.98,-1.31,1.98,-1.98,-2.20,-1.71,-3.30,-3.30,-3.29
183.95,-1.31,2.01,-1.31,2.01,-2.01,-2.20,-1.74,-3.32,-3.32,-3.33
185.79,-1.31,2.04,-1.31,2.04,-2.04,-2.21,-1.77,-3.35,-3.35,-3.35
187.65,-1.31,2.07,-1.31,2.07,-2.07,-2.21,-1.80,-3.38,-3.38,-3.38
189.52,-1.31,2.09,-1.31,2.09,-2.09,-2.21,-1.83,-3.41,-3.41,-3.41
191.42,-1.31,2.12,-1.31,2.12,-2.12,-2.21,-1.87,-3.43,-3.43,-3.43
193.33,-1.31,2.14,-1.31,2.14,-2.14,-2.20,-1.90,-3.45,-3.45,-3.45
195.27,-1.31,2.16,-1.31,2.16,-2.16,-2.20,-1.94,-3.48,-3.48,-3.47
197.22,-1.31,2.18,-1.31,2.19,-2.18,-2.20,-1.98,-3.50,-3.50,-3.49
199.19,-1.31,2.21,-1.31,2.21,-2.20,-2.20,-2.01,-3.51,-3.51,-3.53
201.18,-1.31,2.22,-1.31,2.22,-2.22,-2.19,-2.05,-3.53,-3.53,-3.54
203.19,-1.31,2.23,-1.31,2.24,-2.23,-2.19,-2.09,-3.55,-3.55,-3.55
205.23,-1.31,2.25,-1.31,2.25,-2.25,-2.18,-2.13,-3.56,-3.56,-3.57
207.28,-1.31,2.25,-1.32,2.26,-2.27,-2.17,-2.17,-3.58,-3.58,-3.57
209.35,-1.31,2.27,-1.31,2.28,-2.28,-2.16,-2.21,-3.60,-3.59,-3.58
211.44,-1.31,2.29,-1.30,2.30,-2.30,-2.16,-2.25,-3.61,-3.60,-3.60
213.56,-1.26,2.34,-1.28,2.32,-2.32,-2.15,-2.29,-3.58,-3.60,-3.60
215.69,-1.26,2.34,-1.27,2.34,-2.34,-2.14,-2.33,-3.60,-3.61,-3.60
217.85,-1.26,2.35,-1.26,2.35,-2.35,-2.13,-2.36,-3.61,-3.61,-3.61
220.03,-1.26,2.35,-1.25,2.37,-2.36,-2.12,-2.40,-3.63,-3.61,-3.62
222.23,-1.22,2.40,-1.24,2.38,-2.37,-2.11,-2.43,-3.60,-3.61,-3.62
224.45,-1.22,2.39,-1.22,2.39,-2.38,-2.10,-2.47,-3.60,-3.60,-3.61
226.70,-1.22,2.38,-1.22,2.39,-2.38,-2.08,-2.50,-3.61,-3.61,-3.61
228.96,-1.22,2.38,-1.22,2.38,-2.39,-2.07,-2.53,-3.61,-3.61,-3.60
231.25,-1.22,2.37,-1.22,2.38,-2.39,-2.06,-2.55,-3.61,-3.61,-3.59
233.57,-1.20,2.38,-1.21,2.38,-2.39,-2.04,-2.58,-3.60,-3.60,-3.59
235.90,-1.19,2.39,-1.19,2.39,-2.39,-2.03,-2.59,-3.59,-3.58,-3.58
238.26,-1.17,2.41,-1.18,2.40,-2.39,-2.02,-2.61,-3.56,-3.57,-3.58
240.64,-1.17,2.39,-1.17,2.39,-2.38,-2.00,-2.63,-3.56,-3.56,-3.56
243.05,-1.17,2.38,-1.17,2.38,-2.37,-1.99,-2.64,-3.55,-3.54,-3.55
245.48,-1.17,2.36,-1.17,2.36,-2.36,-1.97,-2.64,-3.53,-3.53,-3.53
247.93,-1.17,2.35,-1.18,2.34,-2.34,-1.96,-2.65,-3.51,-3.52,-3.52
250.41,-1.19,2.32,-1.20,2.31,-2.31,-1.94,-2.65,-3.51,-3.51,-3.51
252.92,-1.22,2.27,-1.21,2.28,-2.28,-1.92,-2.65,-3.51,-3.49,-3.49
255.45,-1.22,2.24,-1.23,2.24,-2.25,-1.91,-2.64,-3.47,-3.47,-3.46
258.00,-1.22,2.22,-1.24,2.21,-2.21,-1.89,-2.63,-3.44,-3.45,-3.45
260.58,-1.26,2.17,-1.24,2.18,-2.18,-1.87,-2.61,-3.44,-3.42,-3.43
263.19,-1.26,2.14,-1.26,2.15,-2.14,-1.86,-2.59,-3.40,-3.40,-3.41
265.82,-1.26,2.13,-1.28,2.10,-2.10,-1.84,-2.57,-3.36,-3.39,-3.39
268.48,-1.31,2.05,-1.30,2.07,-2.07,-1.82,-2.55,-3.38,-3.36,-3.36
271.16,-1.31,2.02,-1.31,2.03,-2.04,-1.80,-2.52,-3.35,-3.35,-3.34
273.87,-1.31,2.01,-1.32,2.00,-2.01,-1.79,-2.49,-3.32,-3.32,-3.32
276.61,-1.31,1.98,-1.31,1.98,-1.98,-1.77,-2.46,-3.29,-3.29,-3.29
279.38,-1.31,1.96,-1.32,1.96,-1.96,-1.75,-2.42,-3.27,-3.28,-3.28
282.17,-1.31,1.95,-1.31,1.95,-1.95,-1.73,-2.39,-3.26,-3.26,-3.26
284.99,-1.31,1.92,-1.30,1.93,-1.94,-1.72,-2.35,-3.25,-3.24,-3.23
287.84,-1.26,1.95,-1.28,1.93,-1.94,-1.70,-2.31,-3.20,-3.22,-3.21
290.72,-1.26,1.92,-1.25,1.94,-1.94,-1.68,-2.27,-3.20,-3.19,-3.19
293.63,-1.22,1.95,-1.23,1.94,-1.94,-1.66,-2.23,-3.17,-3.17,-3.17
296.57,-1.20,1.94,-1.20,1.94,-1.95,-1.64,-2.19,-3.15,-3.15,-3.14
299.53,-1.17,1.95,-1.17,1.95,-1.95,-1.62,-2.14,-3.12,-3.12,-3.13
302.53,-1.14,1.96,-1.14,1.96,-1.95,-1.61,-2.10,-3.10,-3.10,-3.11
305.55,-1.12,1.95,-1.11,1.96,-1.95,-1.59,-2.06,-3.07,-3.07,-3.07
308.61,-1.08,1.97,-1.09,1.95,-1.94,-1.57,-2.01,-3.03,-3.04,-3.05
311.69,-1.08,1.94,-1.08,1.94,-1.93,-1.55,-1.97,-3.02,-3.02,-3.02
314.81,-1.08,1.90,-1.08,1.91,-1.91,-1.53,-1.93,-3.00,-2.99,-2.99
317.96,-1.08,1.88,-1.08,1.89,-1.89,-1.51,-1.89,-2.97,-2.97,-2.97
321.14,-1.08,1.87,-1.08,1.86,-1.86,-1.50,-1.85,-2.95,-2.95,-2.95
324.35,-1.08,1.85,-1.10,1.83,-1.83,-1.48,-1.81,-2.91,-2.93,-2.93
327.59,-1.12,1.78,-1.10,1.80,-1.79,-1.46,-1.77,-2.92,-2.90,-2.90
330.87,-1.12,1.76,-1.12,1.76,-1.76,-1.44,-1.73,-2.88,-2.88,-2.88
334.18,-1.12,1.74,-1.14,1.72,-1.72,-1.42,-1.69,-2.85,-2.87,-2.87
337.52,-1.17,1.67,-1.16,1.69,-1.69,-1.41,-1.65,-2.86,-2.84,-2.85
340.90,-1.17,1.65,-1.17,1.65,-1.66,-1.39,-1.62,-2.83,-2.83,-2.82
344.30,-1.17,1.63,-1.18,1.62,-1.63,-1.37,-1.58,-2.80,-2.81,-2.80
347.75,-1.17,1.61,-1.18,1.60,-1.61,-1.35,-1.55,-2.78,-2.79,-2.78
351.23,-1.17,1.59,-1.17,1.59,-1.60,-1.34,-1.52,-2.77,-2.77,-2.76
354.74,-1.17,1.57,-1.16,1.58,-1.59,-1.32,-1.49,-2.76,-2.75,-2.74
358.28,-1.12,1.60,-1.14,1.59,-1.59,-1.30,-1.46,-2.71,-2.73,-2.73
361.87,-1.12,1.58,-1.12,1.59,-1.59,-1.29,-1.43,-2.71,-2.71,-2.71
365.49,-1.09,1.59,-1.09,1.60,-1.60,-1.27,-1.40,-2.69,-2.69,-2.69
369.14,-1.08,1.60,-1.08,1.60,-1.61,-1.25,-1.37,-2.69,-2.68,-2.68
372.83,-1.03,1.63,-1.04,1.62,-1.62,-1.24,-1.35,-2.65,-2.66,-2.66
376.56,-1.03,1.62,-1.02,1.63,-1.62,-1.22,-1.33,-2.66,-2.64,-2.65
380.33,-0.98,1.64,-0.99,1.63,-1.62,-1.20,-1.30,-2.61,-2.62,-2.62
384.13,-0.98,1.63,-0.99,1.63,-1.62,-1.19,-1.28,-2.60,-2.60,-2.61
387.97,-0.98,1.62,-0.97,1.63,-1.61,-1.17,-1.26,-2.59,-2.58,-2.60
391.85,-0.98,1.61,-0.99,1.61,-1.60,-1.16,-1.24,-2.58,-2.58,-2.59
395.77,-0.98,1.59,-1.00,1.58,-1.58,-1.14,-1.22,-2.56,-2.58,-2.57
399.73,-1.03,1.53,-1.02,1.55,-1.56,-1.13,-1.20,-2.59,-2.57,-2.57
403.72,-1.03,1.52,-1.03,1.52,-1.54,-1.11,-1.19,-2.57,-2.57,-2.56
407.76,-1.03,1.51,-1.04,1.51,-1.51,-1.10,-1.17,-2.55,-2.55,-2.55
411.84,-1.03,1.49,-1.03,1.50,-1.50,-1.08,-1.16,-2.53,-2.53,-2.53
415.96,-1.03,1.49,-1.03,1.49,-1.49,-1.07,-1.14,-2.52,-2.52,-2.52
420.12,-1.03,1.48,-1.04,1.47,-1.48,-1.06,-1.13,-2.51,-2.52,-2.51
424.32,-1.03,1.47,-1.03,1.47,-1.48,-1.04,-1.12,-2.51,-2.51,-2.50
428.56,-1.03,1.46,-1.02,1.47,-1.48,-1.03,-1.10,-2.51,-2.50,-2.49
432.85,-1.00,1.48,-1.01,1.47,-1.47,-1.02,-1.09,-2.48,-2.48,-2.48
437.18,-0.98,1.49,-0.99,1.48,-1.47,-1.00,-1.08,-2.45,-2.46,-2.47
441.55,-0.98,1.47,-0.98,1.47,-1.46,-0.99,-1.07,-2.44,-2.44,-2.45
445.96,-0.98,1.46,-0.99,1.45,-1.45,-0.98,-1.06,-2.43,-2.44,-2.44
450.42,-1.02,1.41,-1.01,1.42,-1.42,-0.97,-1.06,-2.45,-2.43,-2.43
