frequency,raw,error,smoothed,error_smoothed,equalization,parametric_eq,fixed_band_eq,equalized_raw,equalized_smoothed,target
20.00,7.83,2.59,7.83,2.57,-2.57,-2.88,-2.01,5.26,5.26,5.23
20.20,7.89,2.61,7.89,2.60,-2.60,-2.90,-2.07,5.29,5.29,5.27
20.40,7.95,2.64,7.95,2.63,-2.63,-2.92,-2.13,5.32,5.32,5.31
20.61,8.01,2.66,8.01,2.66,-2.66,-2.95,-2.19,5.34,5.35,5.34
20.81,8.07,2.69,8.07,2.70,-2.70,-2.97,-2.26,5.37,5.37,5.38
21.02,8.13,2.71,8.13,2.73,-2.73,-2.99,-2.32,5.40,5.40,5.42
21.23,8.19,2.75,8.19,2.77,-2.77,-3.02,-2.39,5.42,5.42,5.44
21.44,8.25,2.79,8.25,2.80,-2.80,-3.04,-2.46,5.44,5.44,5.46
21.66,8.31,2.83,8.31,2.84,-2.84,-3.07,-2.53,5.46,5.47,5.48
21.87,8.37,2.88,8.37,2.88,-2.88,-3.10,-2.60,5.49,5.48,5.49
22.09,8.43,2.92,8.43,2.93,-2.93,-3.12,-2.67,5.50,5.50,5.51
22.31,8.49,2.97,8.49,2.97,-2.97,-3.15,-2.75,5.52,5.52,5.52
22.54,8.55,3.02,8.55,3.02,-3.02,-3.18,-2.83,5.53,5.53,5.53
22.76,8.61,3.07,8.61,3.07,-3.07,-3.21,-2.91,5.54,5.54,5.54
22.99,8.67,3.13,8.67,3.12,-3.12,-3.24,-2.99,5.55,5.55,5.54
23.22,8.73,3.18,8.73,3.17,-3.17,-3.27,-3.08,5.56,5.56,5.55
23.45,8.79,3.23,8.79,3.22,-3.22,-3.30,-3.17,5.57,5.57,5.56
23.69,8.85,3.28,8.85,3.27,-3.27,-3.33,-3.25,5.58,5.58,5.57
23.92,8.91,3.33,8.91,3.32,-3.32,-3.37,-3.35,5.59,5.59,5.58
24.16,8.97,3.37,8.97,3.37,-3.37,-3.40,-3.44,5.59,5.60,5.60
24.40,9.03,3.41,9.03,3.42,-3.42,-3.43,-3.53,5.60,5.60,5.62
24.65,9.09,3.47,9.09,3.48,-3.48,-3.47,-3.63,5.61,5.61,5.62
24.89,9.15,3.52,9.15,3.53,-3.53,-3.51,-3.72,5.62,5.63,5.63
25.14,9.21,3.57,9.21,3.58,-3.58,-3.54,-3.82,5.63,5.64,5.64
25.39,9.28,3.63,9.27,3.63,-3.63,-3.58,-3.92,5.65,5.65,5.65
25.65,9.34,3.67,9.33,3.68,-3.68,-3.62,-4.02,5.66,5.66,5.66
25.91,9.40,3.73,9.40,3.73,-3.73,-3.66,-4.12,5.67,5.67,5.66
26.16,9.46,3.78,9.46,3.78,-3.78,-3.70,-4.21,5.68,5.68,5.67
26.43,9.52,3.83,9.52,3.83,-3.83,-3.74,-4.31,5.69,5.69,5.68
26.69,9.58,3.89,9.58,3.88,-3.88,-3.78,-4.41,5.70,5.70,5.69
26.96,9.64,3.93,9.64,3.93,-3.93,-3.82,-4.51,5.70,5.71,5.71
27.23,9.70,3.98,9.70,3.98,-3.98,-3.87,-4.60,5.71,5.72,5.72
27.50,9.76,4.03,9.76,4.03,-4.03,-3.91,-4.70,5.72,5.72,5.73
27.77,9.82,4.09,9.82,4.08,-4.08,-3.96,-4.79,5.74,5.73,5.73
28.05,9.88,4.13,9.88,4.13,-4.13,-4.00,-4.87,5.74,5.74,5.75
28.33,9.94,4.19,9.94,4.18,-4.18,-4.05,-4.96,5.75,5.75,5.75
28.62,10.00,4.24,10.00,4.24,-4.24,-4.10,-5.04,5.76,5.76,5.76
28.90,10.06,4.29,10.06,4.29,-4.29,-4.15,-5.11,5.77,5.77,5.77
29.19,10.12,4.35,10.12,4.34,-4.34,-4.20,-5.18,5.78,5.78,5.77
29.48,10.18,4.38,10.18,4.40,-4.40,-4.25,-5.25,5.78,5.78,5.79
29.78,10.24,4.44,10.24,4.45,-4.45,-4.30,-5.31,5.78,5.79,5.79
30.08,10.30,4.49,10.31,4.51,-4.51,-4.35,-5.36,5.79,5.80,5.80
30.38,10.36,4.56,10.37,4.56,-4.56,-4.40,-5.41,5.79,5.81,5.80
30.68,10.43,4.61,10.43,4.62,-4.62,-4.45,-5.45,5.81,5.81,5.82
30.99,10.50,4.68,10.49,4.67,-4.67,-4.51,-5.48,5.83,5.82,5.82
31.30,10.56,4.73,10.55,4.72,-4.72,-4.56,-5.51,5.83,5.83,5.83
31.61,10.62,4.78,10.61,4.78,-4.78,-4.62,-5.53,5.84,5.84,5.84
31.93,10.69,4.84,10.67,4.83,-4.83,-4.67,-5.54,5.86,5.85,5.85
32.24,10.74,4.89,10.73,4.87,-4.87,-4.73,-5.55,5.86,5.85,5.84
32.57,10.79,4.92,10.78,4.92,-4.92,-4.78,-5.55,5.87,5.86,5.86
32.89,10.84,4.97,10.84,4.97,-4.97,-4.84,-5.55,5.87,5.87,5.87
33.22,10.89,5.01,10.89,5.01,-5.01,-4.90,-5.54,5.88,5.88,5.88
33.55,10.94,5.05,10.94,5.05,-5.05,-4.95,-5.52,5.89,5.89,5.89
33.89,10.99,5.09,10.99,5.09,-5.09,-5.01,-5.50,5.89,5.89,5.90
34.23,11.04,5.13,11.03,5.13,-5.13,-5.07,-5.47,5.90,5.90,5.90
34.57,11.08,5.16,11.08,5.17,-5.17,-5.12,-5.44,5.91,5.91,5.91
34.92,11.12,5.21,11.12,5.21,-5.21,-5.18,-5.41,5.91,5.91,5.91
35.27,11.16,5.24,11.16,5.24,-5.24,-5.24,-5.38,5.91,5.92,5.92
35.62,11.20,5.27,11.21,5.28,-5.28,-5.29,-5.34,5.92,5.93,5.93
35.97,11.25,5.32,11.25,5.32,-5.32,-5.35,-5.30,5.93,5.93,5.93
36.33,11.29,5.36,11.29,5.35,-5.35,-5.40,-5.26,5.93,5.93,5.93
36.70,11.33,5.40,11.33,5.39,-5.39,-5.46,-5.22,5.94,5.93,5.93
37.06,11.37,5.43,11.37,5.43,-5.43,-5.51,-5.18,5.94,5.94,5.94
37.43,11.40,5.45,11.40,5.47,-5.47,-5.56,-5.14,5.93,5.94,5.95
37.81,11.43,5.48,11.44,5.50,-5.50,-5.61,-5.10,5.93,5.94,5.94
38.19,11.47,5.53,11.47,5.54,-5.54,-5.66,-5.06,5.93,5.94,5.94
38.57,11.51,5.57,11.51,5.57,-5.57,-5.71,-5.03,5.94,5.94,5.94
38.95,11.55,5.61,11.54,5.60,-5.60,-5.75,-4.99,5.95,5.94,5.94
39.34,11.57,5.64,11.57,5.63,-5.63,-5.80,-4.96,5.94,5.94,5.93
39.74,11.60,5.67,11.60,5.66,-5.66,-5.84,-4.93,5.94,5.94,5.93
40.14,11.63,5.69,11.62,5.68,-5.68,-5.88,-4.90,5.94,5.94,5.94
40.54,11.65,5.72,11.64,5.71,-5.71,-5.92,-4.88,5.94,5.93,5.93
40.94,11.67,5.74,11.66,5.73,-5.73,-5.96,-4.86,5.94,5.93,5.93
41.35,11.68,5.75,11.68,5.75,-5.75,-5.99,-4.84,5.93,5.93,5.93
41.76,11.70,5.77,11.70,5.77,-5.77,-6.02,-4.82,5.93,5.93,5.93
42.18,11.71,5.77,11.71,5.78,-5.78,-6.05,-4.81,5.93,5.93,5.94
42.60,11.72,5.78,11.72,5.79,-5.79,-6.08,-4.80,5.93,5.93,5.93
43.03,11.73,5.79,11.73,5.80,-5.80,-6.10,-4.80,5.93,5.93,5.94
43.46,11.73,5.79,11.74,5.81,-5.81,-6.12,-4.80,5.92,5.93,5.93
43.90,11.74,5.82,11.74,5.81,-5.81,-6.14,-4.80,5.92,5.93,5.92
44.33,11.75,5.82,11.75,5.82,-5.82,-6.15,-4.81,5.93,5.93,5.93
44.78,11.76,5.84,11.75,5.82,-5.82,-6.16,-4.82,5.94,5.93,5.92
45.23,11.76,5.84,11.75,5.82,-5.82,-6.17,-4.83,5.94,5.93,5.92
45.68,11.75,5.83,11.75,5.82,-5.82,-6.18,-4.85,5.92,5.93,5.92
46.13,11.75,5.83,11.75,5.82,-5.82,-6.18,-4.87,5.92,5.92,5.92
46.60,11.75,5.82,11.75,5.82,-5.82,-6.18,-4.89,5.92,5.92,5.93
47.06,11.75,5.82,11.74,5.82,-5.82,-6.18,-4.92,5.92,5.92,5.92
47.53,11.74,5.82,11.74,5.83,-5.83,-6.18,-4.95,5.91,5.91,5.92
48.01,11.74,5.81,11.74,5.83,-5.83,-6.17,-4.99,5.91,5.91,5.93
48.49,11.74,5.82,11.74,5.83,-5.83,-6.16,-5.02,5.91,5.91,5.91
48.97,11.73,5.83,11.73,5.84,-5.84,-6.15,-5.06,5.89,5.90,5.90
49.46,11.73,5.84,11.73,5.84,-5.84,-6.13,-5.11,5.89,5.89,5.89
49.96,11.72,5.84,11.73,5.85,-5.85,-6.11,-5.15,5.87,5.88,5.87
50.46,11.72,5.84,11.73,5.86,-5.86,-6.09,-5.20,5.86,5.87,5.88
50.96,11.73,5.86,11.73,5.87,-5.87,-6.07,-5.25,5.86,5.86,5.87
51.47,11.73,5.89,11.73,5.88,-5.88,-6.05,-5.30,5.85,5.85,5.84
51.99,11.74,5.91,11.73,5.90,-5.90,-6.02,-5.36,5.84,5.84,5.83
52.51,11.75,5.92,11.74,5.91,-5.91,-6.00,-5.41,5.84,5.83,5.83
53.03,11.75,5.93,11.74,5.93,-5.93,-5.97,-5.47,5.82,5.81,5.81
53.56,11.74,5.93,11.74,5.94,-5.94,-5.94,-5.52,5.80,5.80,5.80
54.10,11.74,5.95,11.74,5.95,-5.95,-5.91,-5.58,5.78,5.78,5.78
54.64,11.73,5.95,11.74,5.97,-5.97,-5.88,-5.64,5.76,5.77,5.77
55.18,11.73,5.97,11.73,5.98,-5.98,-5.84,-5.69,5.75,5.76,5.75
55.74,11.73,6.00,11.73,5.99,-5.99,-5.81,-5.74,5.74,5.74,5.73
56.29,11.73,6.00,11.72,5.99,-5.99,-5.78,-5.80,5.73,5.73,5.73
56.86,11.72,6.01,11.71,6.00,-6.00,-5.74,-5.85,5.72,5.71,5.71
57.42,11.71,6.02,11.70,6.00,-6.00,-5.71,-5.89,5.70,5.70,5.69
58.00,11.69,6.01,11.69,6.01,-6.01,-5.67,-5.94,5.68,5.68,5.68
58.58,11.67,6.01,11.67,6.01,-6.01,-5.64,-5.98,5.66,5.66,5.66
59.16,11.65,6.00,11.65,6.01,-6.01,-5.60,-6.01,5.64,5.64,5.65
59.76,11.63,5.99,11.63,6.01,-6.01,-5.57,-6.04,5.62,5.62,5.64
60.35,11.61,6.00,11.60,6.01,-6.01,-5.53,-6.07,5.60,5.60,5.61
60.96,11.58,5.99,11.58,6.00,-6.00,-5.50,-6.09,5.58,5.58,5.59
61.57,11.55,6.00,11.54,5.99,-5.99,-5.46,-6.11,5.56,5.55,5.55
62.18,11.51,5.99,11.51,5.98,-5.98,-5.43,-6.12,5.53,5.53,5.52
62.80,11.47,5.97,11.47,5.97,-5.97,-5.40,-6.12,5.50,5.50,5.50
63.43,11.43,5.96,11.43,5.96,-5.96,-5.36,-6.12,5.47,5.47,5.46
64.07,11.39,5.95,11.38,5.94,-5.94,-5.33,-6.12,5.45,5.44,5.44
64.71,11.34,5.93,11.34,5.92,-5.92,-5.30,-6.11,5.42,5.42,5.41
65.35,11.29,5.91,11.29,5.90,-5.90,-5.27,-6.09,5.39,5.39,5.38
66.01,11.24,5.88,11.23,5.88,-5.88,-5.24,-6.07,5.36,5.36,5.35
66.67,11.18,5.84,11.18,5.85,-5.85,-5.22,-6.05,5.32,5.33,5.33
67.33,11.12,5.81,11.12,5.83,-5.83,-5.19,-6.02,5.29,5.30,5.30
68.01,11.06,5.78,11.06,5.79,-5.79,-5.17,-5.99,5.26,5.27,5.27
68.69,11.00,5.75,11.00,5.76,-5.76,-5.14,-5.95,5.24,5.24,5.24
69.37,10.94,5.72,10.94,5.72,-5.72,-5.12,-5.92,5.21,5.21,5.21
70.07,10.87,5.69,10.87,5.68,-5.68,-5.10,-5.88,5.18,5.19,5.18
70.77,10.80,5.64,10.80,5.64,-5.64,-5.08,-5.83,5.16,5.16,5.16
71.48,10.74,5.60,10.73,5.60,-5.60,-5.06,-5.79,5.14,5.13,5.14
72.19,10.67,5.57,10.65,5.55,-5.55,-5.04,-5.75,5.12,5.11,5.10
72.91,10.59,5.51,10.58,5.50,-5.50,-5.03,-5.70,5.09,5.08,5.08
73.64,10.51,5.45,10.50,5.44,-5.44,-5.01,-5.66,5.06,5.06,5.05
74.38,10.42,5.38,10.42,5.39,-5.39,-5.00,-5.61,5.03,5.03,5.04
75.12,10.34,5.33,10.34,5.33,-5.33,-4.99,-5.57,5.01,5.01,5.01
75.87,10.25,5.25,10.26,5.26,-5.26,-4.98,-5.53,4.99,5.00,4.99
76.63,10.18,5.20,10.17,5.20,-5.20,-4.97,-5.49,4.98,4.98,4.98
77.40,10.10,5.14,10.09,5.13,-5.13,-4.96,-5.45,4.97,4.96,4.96
78.17,10.01,5.07,10.00,5.06,-5.06,-4.95,-5.42,4.95,4.95,4.94
78.95,9.92,4.98,9.92,4.98,-4.98,-4.95,-5.38,4.93,4.93,4.93
79.74,9.85,4.92,9.83,4.91,-4.91,-4.95,-5.35,4.93,4.92,4.92
80.54,9.76,4.84,9.75,4.84,-4.84,-4.95,-5.32,4.92,4.91,4.91
81.35,9.68,4.78,9.67,4.77,-4.77,-4.95,-5.30,4.90,4.90,4.90
82.16,9.60,4.71,9.60,4.71,-4.71,-4.95,-5.28,4.89,4.89,4.89
82.98,9.52,4.63,9.53,4.64,-4.64,-4.95,-5.26,4.87,4.89,4.89
83.81,9.45,4.57,9.46,4.58,-4.58,-4.96,-5.24,4.86,4.88,4.88
84.65,9.39,4.52,9.40,4.53,-4.53,-4.96,-5.23,4.86,4.87,4.86
85.50,9.33,4.46,9.34,4.47,-4.47,-4.97,-5.22,4.85,4.87,4.87
86.35,9.28,4.41,9.29,4.42,-4.42,-4.98,-5.22,4.85,4.87,4.87
87.22,9.24,4.38,9.24,4.38,-4.38,-4.99,-5.22,4.86,4.86,4.86
88.09,9.21,4.35,9.20,4.34,-4.34,-5.00,-5.22,4.87,4.86,4.86
88.97,9.18,4.32,9.17,4.31,-4.31,-5.02,-5.23,4.87,4.86,4.86
89.86,9.15,4.28,9.14,4.28,-4.28,-5.03,-5.24,4.87,4.86,4.87
90.76,9.13,4.28,9.12,4.26,-4.26,-5.05,-5.25,4.87,4.86,4.85
91.66,9.12,4.26,9.10,4.25,-4.25,-5.07,-5.27,4.87,4.86,4.85
92.58,9.10,4.25,9.10,4.24,-4.24,-5.09,-5.29,4.85,4.85,4.85
93.51,9.08,4.22,9.10,4.24,-4.24,-5.11,-5.32,4.83,4.85,4.86
94.44,9.08,4.23,9.10,4.25,-4.25,-5.13,-5.35,4.83,4.85,4.85
95.39,9.10,4.24,9.11,4.27,-4.27,-5.16,-5.38,4.83,4.84,4.85
96.34,9.12,4.28,9.12,4.29,-4.29,-5.18,-5.42,4.83,4.84,4.84
97.30,9.14,4.31,9.14,4.31,-4.31,-5.21,-5.46,4.83,4.83,4.83
98.28,9.17,4.35,9.17,4.34,-4.34,-5.24,-5.50,4.82,4.82,4.82
99.26,9.20,4.39,9.20,4.39,-4.39,-5.27,-5.55,4.81,4.81,4.81
100.25,9.24,4.44,9.23,4.43,-4.43,-5.30,-5.60,4.81,4.80,4.80
101.25,9.29,4.50,9.27,4.48,-4.48,-5.33,-5.65,4.80,4.79,4.79
102.27,9.34,4.57,9.32,4.54,-4.54,-5.37,-5.70,4.79,4.77,4.77
103.29,9.37,4.62,9.37,4.61,-4.61,-5.40,-5.76,4.76,4.76,4.75
104.32,9.41,4.66,9.42,4.69,-4.69,-5.44,-5.82,4.72,4.74,4.74
105.37,9.46,4.73,9.48,4.76,-4.76,-5.48,-5.87,4.69,4.72,4.72
106.42,9.53,4.83,9.54,4.85,-4.85,-5.52,-5.93,4.68,4.69,4.69
107.48,9.60,4.92,9.60,4.93,-4.93,-5.56,-6.00,4.67,4.67,4.68
108.56,9.66,5.02,9.65,5.02,-5.02,-5.60,-6.06,4.64,4.64,4.64
109.64,9.72,5.11,9.71,5.11,-5.11,-5.64,-6.12,4.61,4.60,4.61
110.74,9.78,5.20,9.78,5.21,-5.21,-5.69,-6.18,4.57,4.57,4.58
111.85,9.85,5.31,9.84,5.31,-5.31,-5.74,-6.24,4.54,4.53,4.54
112.97,9.92,5.43,9.90,5.41,-5.41,-5.78,-6.30,4.51,4.49,4.49
114.10,9.99,5.53,9.96,5.51,-5.51,-5.83,-6.35,4.48,4.45,4.46
115.24,10.05,5.63,10.03,5.61,-5.61,-5.88,-6.41,4.43,4.41,4.41
116.39,10.07,5.70,10.09,5.72,-5.72,-5.93,-6.46,4.35,4.37,4.37
117.55,10.12,5.79,10.15,5.82,-5.82,-5.99,-6.51,4.30,4.33,4.33
118.73,10.18,5.90,10.21,5.91,-5.91,-6.04,-6.55,4.26,4.29,4.28
119.92,10.26,6.00,10.26,6.01,-6.01,-6.10,-6.59,4.25,4.25,4.25
121.12,10.34,6.13,10.32,6.10,-6.10,-6.15,-6.63,4.23,4.21,4.21
122.33,10.38,6.21,10.37,6.20,-6.20,-6.21,-6.66,4.18,4.17,4.17
123.55,10.43,6.28,10.42,6.29,-6.29,-6.27,-6.69,4.14,4.14,4.14
124.79,10.50,6.39,10.47,6.37,-6.37,-6.33,-6.72,4.13,4.10,4.11
126.03,10.55,6.47,10.52,6.45,-6.45,-6.39,-6.74,4.09,4.07,4.07
127.29,10.57,6.53,10.57,6.54,-6.54,-6.45,-6.75,4.03,4.04,4.04
128.57,10.61,6.61,10.62,6.61,-6.61,-6.51,-6.77,3.99,4.00,4.00
129.85,10.66,6.69,10.66,6.69,-6.69,-6.58,-6.77,3.97,3.97,3.97
131.15,10.71,6.77,10.70,6.76,-6.76,-6.64,-6.78,3.95,3.94,3.94
132.46,10.73,6.81,10.74,6.82,-6.82,-6.71,-6.78,3.90,3.92,3.92
133.79,10.78,6.88,10.78,6.89,-6.89,-6.77,-6.77,3.89,3.89,3.89
135.12,10.83,6.97,10.81,6.95,-6.95,-6.84,-6.77,3.88,3.86,3.86
136.48,10.86,7.02,10.85,7.01,-7.01,-6.91,-6.76,3.85,3.84,3.84
137.84,10.90,7.09,10.89,7.07,-7.07,-6.98,-6.75,3.82,3.81,3.81
139.22,10.91,7.13,10.92,7.13,-7.13,-7.05,-6.74,3.78,3.79,3.78
140.61,10.94,7.19,10.96,7.19,-7.19,-7.12,-6.72,3.75,3.77,3.75
142.02,10.99,7.24,10.99,7.25,-7.25,-7.19,-6.71,3.74,3.74,3.74
143.44,11.02,7.29,11.03,7.31,-7.31,-7.26,-6.70,3.71,3.72,3.73
144.87,11.07,7.37,11.06,7.37,-7.37,-7.33,-6.68,3.70,3.70,3.70
146.32,11.11,7.44,11.10,7.43,-7.43,-7.41,-6.67,3.68,3.67,3.67
147.78,11.16,7.50,11.14,7.50,-7.50,-7.48,-6.66,3.66,3.64,3.66
149.26,11.19,7.56,11.18,7.56,-7.56,-7.55,-6.65,3.63,3.62,3.63
150.75,11.22,7.63,11.22,7.63,-7.63,-7.63,-6.64,3.59,3.59,3.59
152.26,11.25,7.69,11.26,7.70,-7.70,-7.70,-6.63,3.55,3.56,3.56
153.78,11.28,7.74,11.30,7.77,-7.77,-7.78,-6.63,3.51,3.53,3.54
155.32,11.32,7.82,11.34,7.84,-7.84,-7.85,-6.63,3.48,3.50,3.49
156.88,11.38,7.91,11.38,7.91,-7.91,-7.93,-6.63,3.46,3.47,3.47
158.44,11.43,7.99,11.42,7.99,-7.99,-8.00,-6.64,3.44,3.44,3.44
160.03,11.49,8.09,11.46,8.06,-8.06,-8.07,-6.65,3.43,3.40,3.40
161.63,11.53,8.17,11.50,8.13,-8.13,-8.15,-6.66,3.39,3.37,3.36
163.24,11.56,8.23,11.54,8.21,-8.21,-8.22,-6.68,3.35,3.33,3.33
164.88,11.59,8.29,11.58,8.29,-8.29,-8.29,-6.70,3.30,3.29,3.30
166.53,11.61,8.35,11.62,8.36,-8.36,-8.37,-6.73,3.25,3.26,3.26
168.19,11.64,8.42,11.66,8.44,-8.44,-8.44,-6.76,3.20,3.22,3.22
169.87,11.68,8.50,11.70,8.52,-8.52,-8.51,-6.80,3.16,3.18,3.18
171.57,11.72,8.57,11.74,8.60,-8.60,-8.58,-6.84,3.12,3.14,3.14
173.29,11.76,8.66,11.77,8.68,-8.68,-8.65,-6.89,3.08,3.09,3.10
175.02,11.82,8.76,11.81,8.76,-8.76,-8.72,-6.94,3.06,3.05,3.06
176.77,11.86,8.85,11.85,8.84,-8.84,-8.78,-7.00,3.01,3.00,3.00
178.54,11.88,8.92,11.88,8.93,-8.93,-8.85,-7.06,2.95,2.96,2.96
180.32,11.90,8.99,11.92,9.01,-9.01,-8.91,-7.13,2.89,2.91,2.91
182.13,11.93,9.06,11.95,9.09,-9.09,-8.97,-7.20,2.84,2.86,2.87
183.95,11.98,9.16,11.98,9.17,-9.17,-9.03,-7.28,2.81,2.82,2.81
185.79,12.02,9.25,12.00,9.24,-9.24,-9.09,-7.36,2.78,2.77,2.77
187.65,12.04,9.33,12.02,9.30,-9.30,-9.14,-7.45,2.74,2.72,2.71
189.52,12.06,9.39,12.02,9.35,-9.35,-9.19,-7.54,2.70,2.67,2.66
191.42,12.06,9.44,12.02,9.40,-9.40,-9.24,-7.64,2.66,2.62,2.62
193.33,12.05,9.47,12.02,9.44,-9.44,-9.29,-7.74,2.61,2.58,2.58
195.27,12.03,9.49,12.00,9.47,-9.47,-9.34,-7.84,2.56,2.53,2.54
197.22,12.00,9.51,11.98,9.50,-9.50,-9.38,-7.95,2.50,2.49,2.49
199.19,11.97,9.53,11.96,9.52,-9.52,-9.42,-8.07,2.45,2.44,2.44
201.18,11.93,9.53,11.93,9.53,-9.53,-9.45,-8.19,2.40,2.40,2.39
203.19,11.89,9.52,11.90,9.54,-9.54,-9.48,-8.31,2.34,2.36,2.36
205.23,11.85,9.53,11.87,9.55,-9.55,-9.51,-8.43,2.29,2.32,2.31
207.28,11.82,9.52,11.84,9.56,-9.56,-9.53,-8.56,2.26,2.28,2.30
209.35,11.79,9.54,11.81,9.57,-9.57,-9.55,-8.69,2.22,2.24,2.25
211.44,11.76,9.56,11.79,9.58,-9.58,-9.57,-8.82,2.18,2.21,2.20
213.56,11.74,9.57,11.77,9.59,-9.59,-9.58,-8.95,2.14,2.17,2.17
215.69,11.73,9.58,11.75,9.61,-9.61,-9.59,-9.08,2.12,2.14,2.15
217.85,11.73,9.62,11.73,9.62,-9.62,-9.59,-9.21,2.11,2.11,2.11
220.03,11.72,9.64,11.71,9.63,-9.63,-9.59,-9.33,2.09,2.08,2.07
222.23,11.71,9.66,11.70,9.64,-9.64,-9.59,-9.46,2.07,2.06,2.05
224.45,11.70,9.67,11.68,9.65,-9.65,-9.58,-9.57,2.05,2.03,2.03
226.70,11.68,9.66,11.66,9.65,-9.65,-9.57,-9.69,2.02,2.01,2.01
228.96,11.66,9.67,11.64,9.65,-9.65,-9.55,-9.79,2.00,1.99,1.99
231.25,11.64,9.66,11.62,9.65,-9.65,-9.53,-9.89,1.99,1.97,1.98
233.57,11.61,9.64,11.60,9.64,-9.64,-9.50,-9.97,1.97,1.96,1.96
235.90,11.57,9.62,11.58,9.62,-9.62,-9.47,-10.05,1.95,1.95,1.95
238.26,11.55,9.61,11.55,9.60,-9.60,-9.43,-10.11,1.94,1.95,1.94
240.64,11.53,9.59,11.52,9.58,-9.58,-9.39,-10.16,1.95,1.94,1.94
243.05,11.49,9.55,11.49,9.55,-9.55,-9.35,-10.20,1.93,1.94,1.94
245.48,11.45,9.51,11.46,9.52,-9.52,-9.30,-10.22,1.92,1.94,1.94
247.93,11.40,9.46,11.43,9.49,-9.49,-9.25,-10.22,1.91,1.94,1.94
250.41,11.38,9.44,11.40,9.45,-9.45,-9.19,-10.21,1.92,1.94,1.94
252.92,11.34,9.39,11.36,9.41,-9.41,-9.13,-10.19,1.93,1.95,1.95
255.45,11.32,9.35,11.32,9.36,-9.36,-9.06,-10.14,1.95,1.96,1.97
258.00,11.30,9.32,11.28,9.31,-9.31,-9.00,-10.08,1.99,1.97,1.97
260.58,11.26,9.28,11.24,9.25,-9.25,-8.92,-10.01,2.00,1.98,1.98
263.19,11.21,9.21,11.19,9.19,-9.19,-8.85,-9.92,2.02,2.00,1.99
265.82,11.15,9.15,11.13,9.12,-9.12,-8.77,-9.82,2.03,2.01,2.00
268.48,11.08,9.05,11.07,9.04,-9.04,-8.68,-9.71,2.03,2.02,2.03
271.16,11.01,8.96,11.00,8.96,-8.96,-8.60,-9.59,2.05,2.04,2.04
273.87,10.92,8.87,10.92,8.87,-8.87,-8.51,-9.45,2.05,2.05,2.05
276.61,10.83,8.75,10.83,8.76,-8.76,-8.41,-9.31,2.06,2.07,2.08
279.38,10.74,8.65,10.74,8.65,-8.65,-8.32,-9.16,2.09,2.08,2.08
282.17,10.64,8.54,10.63,8.53,-8.53,-8.22,-9.01,2.10,2.10,2.10
284.99,10.54,8.42,10.52,8.41,-8.41,-8.11,-8.85,2.13,2.11,2.12
287.84,10.41,8.28,10.41,8.28,-8.28,-8.01,-8.69,2.13,2.13,2.13
290.72,10.29,8.15,10.29,8.14,-8.14,-7.90,-8.52,2.15,2.15,2.14
293.63,10.16,8.00,10.16,8.00,-8.00,-7.78,-8.36,2.16,2.16,2.16
296.57,10.02,7.84,10.03,7.85,-7.85,-7.66,-8.19,2.16,2.18,2.18
299.53,9.87,7.68,9.89,7.70,-7.70,-7.54,-8.02,2.16,2.19,2.19
302.53,9.74,7.55,9.75,7.55,-7.55,-7.42,-7.86,2.19,2.20,2.19
305.55,9.60,7.38,9.60,7.39,-7.39,-7.29,-7.69,2.21,2.22,2.22
308.61,9.45,7.22,9.45,7.22,-7.22,-7.16,-7.53,2.22,2.23,2.23
311.69,9.30,7.06,9.29,7.05,-7.05,-7.03,-7.37,2.24,2.24,2.24
314.81,9.17,6.90,9.13,6.88,-6.88,-6.89,-7.21,2.29,2.25,2.26
317.96,9.00,6.74,8.96,6.70,-6.70,-6.74,-7.06,2.30,2.26,2.26
321.14,8.81,6.54,8.79,6.52,-6.52,-6.60,-6.91,2.28,2.27,2.27
324.35,8.62,6.35,8.62,6.34,-6.34,-6.44,-6.76,2.28,2.28,2.27
327.59,8.42,6.13,8.44,6.16,-6.16,-6.29,-6.62,2.26,2.28,2.29
330.87,8.27,5.98,8.26,5.97,-5.97,-6.13,-6.48,2.30,2.29,2.29
334.18,8.09,5.80,8.07,5.78,-5.78,-5.96,-6.34,2.31,2.29,2.28
337.52,7.87,5.57,7.88,5.59,-5.59,-5.79,-6.21,2.28,2.30,2.29
340.90,7.69,5.39,7.69,5.40,-5.40,-5.62,-6.09,2.29,2.30,2.30
344.30,7.50,5.20,7.50,5.21,-5.21,-5.44,-5.96,2.29,2.30,2.30
347.75,7.34,5.04,7.32,5.02,-5.02,-5.26,-5.84,2.32,2.30,2.30
351.23,7.15,4.85,7.13,4.84,-4.84,-5.07,-5.73,2.31,2.29,2.30
354.74,6.98,4.68,6.96,4.66,-4.66,-4.89,-5.62,2.31,2.29,2.30
358.28,6.78,4.49,6.79,4.50,-4.50,-4.70,-5.51,2.28,2.29,2.29
361.87,6.62,4.33,6.62,4.34,-4.34,-4.51,-5.41,2.28,2.29,2.28
365.49,6.45,4.17,6.47,4.19,-4.19,-4.33,-5.31,2.26,2.28,2.28
369.14,6.30,4.03,6.32,4.04,-4.04,-4.15,-5.22,2.25,2.27,2.27
372.83,6.18,3.91,6.18,3.92,-3.92,-3.99,-5.13,2.26,2.27,2.27
376.56,6.04,3.78,6.06,3.80,-3.80,-3.83,-5.04,2.24,2.26,2.26
380.33,5.94,3.68,5.95,3.70,-3.70,-3.68,-4.96,2.24,2.25,2.26
384.13,5.84,3.59,5.85,3.61,-3.61,-3.55,-4.88,2.23,2.25,2.25
387.97,5.76,3.52,5.77,3.53,-3.53,-3.44,-4.81,2.23,2.24,2.24
391.85,5.69,3.46,5.70,3.47,-3.47,-3.35,-4.73,2.22,2.24,2.23
395.77,5.64,3.40,5.65,3.42,-3.42,-3.28,-4.66,2.22,2.23,2.24
399.73,5.59,3.36,5.61,3.39,-3.39,-3.22,-4.60,2.20,2.22,2.22
403.72,5.57,3.35,5.58,3.37,-3.37,-3.18,-4.53,2.20,2.22,2.21
407.76,5.55,3.34,5.56,3.35,-3.35,-3.16,-4.47,2.20,2.21,2.20
411.84,5.53,3.31,5.55,3.34,-3.34,-3.16,-4.41,2.18,2.21,2.21
415.96,5.53,3.33,5.54,3.34,-3.34,-3.16,-4.36,2.19,2.20,2.20
420.12,5.55,3.35,5.54,3.34,-3.34,-3.17,-4.30,2.21,2.20,2.20
424.32,5.56,3.36,5.54,3.34,-3.34,-3.19,-4.25,2.22,2.20,2.20
428.56,5.57,3.38,5.54,3.34,-3.34,-3.22,-4.20,2.23,2.19,2.19
432.85,5.58,3.39,5.53,3.34,-3.34,-3.24,-4.15,2.24,2.19,2.19
437.18,5.56,3.37,5.53,3.34,-3.34,-3.26,-4.10,2.22,2.19,2.19
441.55,5.55,3.35,5.52,3.33,-3.33,-3.29,-4.05,2.22,2.19,2.20
445.96,5.53,3.33,5.51,3.32,-3.32,-3.31,-4.00,2.21,2.19,2.20
450.42,5.49,3.30,5.49,3.30,-3.30,-3.33,-3.95,2.19,2.20,2.19
454.93,5.47,3.27,5.47,3.27,-3.27,-3.34,-3.90,2.20,2.20,2.20
459.48,5.43,3.23,5.44,3.24,-3.24,-3.35,-3.85,2.19,2.20,2.20
464.07,5.41,3.20,5.41,3.20,-3.20,-3.36,-3.80,2.21,2.21,2.21
468.71,5.39,3.17,5.37,3.16,-3.16,-3.36,-3.75,2.23,2.21,2.22
473.40,5.35,3.13,5.33,3.11,-3.11,-3.36,-3.69,2.23,2.22,2.22
478.13,5.32,3.09,5.29,3.07,-3.07,-3.36,-3.64,2.25,2.22,2.23
482.91,5.27,3.04,5.26,3.03,-3.03,-3.35,-3.58,2.24,2.23,2.23
487.74,5.22,2.98,5.22,2.99,-2.99,-3.34,-3.52,2.23,2.23,2.23
492.62,5.18,2.93,5.19,2.95,-2.95,-3.32,-3.46,2.23,2.24,2.24
497.55,5.14,2.89,5.16,2.92,-2.92,-3.31,-3.40,2.22,2.25,2.24
502.52,5.11,2.85,5.14,2.89,-2.89,-3.29,-3.33,2.22,2.25,2.25
507.55,5.09,2.83,5.12,2.86,-2.86,-3.26,-3.27,2.22,2.25,2.25
512.62,5.09,2.83,5.10,2.84,-2.84,-3.24,-3.20,2.24,2.26,2.25
