frequency,raw,error,smoothed,error_smoothed,equalization,parametric_eq,fixed_band_eq,equalized_raw,equalized_smoothed,target
20.00,8.74,2.80,8.72,2.79,-2.86,-3.22,-1.54,5.88,5.86,5.94
20.20,8.84,2.92,8.85,2.93,-2.96,-3.22,-1.58,5.88,5.89,5.92
20.40,8.94,3.04,8.96,3.06,-3.05,-3.22,-1.63,5.89,5.91,5.90
20.61,9.04,3.15,9.06,3.17,-3.13,-3.22,-1.68,5.91,5.93,5.89
20.81,9.14,3.28,9.14,3.27,-3.19,-3.22,-1.72,5.95,5.95,5.87
21.02,9.23,3.37,9.19,3.34,-3.25,-3.22,-1.78,5.99,5.95,5.86
21.23,9.18,3.35,9.19,3.35,-3.29,-3.22,-1.83,5.89,5.90,5.84
21.44,9.14,3.32,9.15,3.32,-3.32,-3.22,-1.88,5.83,5.83,5.83
21.66,9.09,3.28,9.09,3.28,-3.31,-3.22,-1.94,5.78,5.78,5.82
21.87,9.05,3.26,9.05,3.26,-3.30,-3.22,-1.99,5.75,5.76,5.79
22.09,9.02,3.24,9.03,3.24,-3.28,-3.22,-2.05,5.74,5.75,5.78
22.31,9.02,3.25,9.02,3.25,-3.27,-3.22,-2.11,5.75,5.75,5.77
22.54,9.02,3.26,9.02,3.26,-3.26,-3.22,-2.17,5.76,5.76,5.76
22.76,9.02,3.27,9.02,3.27,-3.26,-3.22,-2.23,5.76,5.76,5.75
22.99,9.02,3.28,9.02,3.28,-3.27,-3.22,-2.30,5.75,5.75,5.74
23.22,9.02,3.29,9.02,3.29,-3.28,-3.22,-2.36,5.74,5.74,5.73
23.45,9.02,3.29,9.02,3.30,-3.29,-3.22,-2.43,5.73,5.73,5.73
23.69,9.02,3.30,9.02,3.30,-3.30,-3.22,-2.50,5.72,5.72,5.72
23.92,9.02,3.30,9.02,3.30,-3.31,-3.23,-2.57,5.71,5.71,5.72
24.16,9.02,3.30,9.02,3.30,-3.31,-3.23,-2.64,5.71,5.71,5.72
24.40,9.02,3.30,9.02,3.31,-3.31,-3.23,-2.71,5.71,5.72,5.72
24.65,9.02,3.31,9.02,3.31,-3.30,-3.23,-2.79,5.72,5.72,5.72
24.89,9.02,3.31,9.02,3.30,-3.29,-3.23,-2.86,5.73,5.73,5.71
25.14,9.01,3.30,9.00,3.29,-3.28,-3.23,-2.93,5.73,5.73,5.71
25.39,8.98,3.27,8.98,3.27,-3.26,-3.23,-3.01,5.72,5.72,5.71
25.65,8.95,3.24,8.95,3.24,-3.25,-3.23,-3.09,5.70,5.71,5.71
25.91,8.93,3.21,8.93,3.22,-3.23,-3.23,-3.16,5.70,5.70,5.72
26.16,8.92,3.20,8.92,3.20,-3.22,-3.23,-3.24,5.70,5.70,5.72
26.43,8.92,3.20,8.92,3.20,-3.21,-3.23,-3.31,5.71,5.71,5.72
26.69,8.92,3.20,8.92,3.20,-3.20,-3.23,-3.38,5.72,5.72,5.72
26.96,8.92,3.21,8.92,3.21,-3.20,-3.23,-3.46,5.72,5.72,5.72
27.23,8.92,3.21,8.92,3.21,-3.20,-3.23,-3.53,5.72,5.72,5.71
27.50,8.92,3.21,8.92,3.21,-3.20,-3.23,-3.60,5.72,5.72,5.71
27.77,8.92,3.21,8.92,3.21,-3.21,-3.23,-3.66,5.71,5.71,5.71
28.05,8.92,3.21,8.92,3.21,-3.21,-3.23,-3.73,5.71,5.71,5.71
28.33,8.92,3.22,8.92,3.22,-3.22,-3.23,-3.79,5.70,5.70,5.70
28.62,8.92,3.22,8.92,3.22,-3.23,-3.23,-3.85,5.69,5.69,5.70
28.90,8.92,3.23,8.92,3.23,-3.24,-3.22,-3.90,5.68,5.69,5.70
29.19,8.93,3.24,8.93,3.24,-3.24,-3.22,-3.95,5.69,5.69,5.69
29.48,8.94,3.25,8.94,3.25,-3.24,-3.22,-3.99,5.70,5.70,5.69
29.78,8.95,3.26,8.95,3.26,-3.23,-3.22,-4.03,5.72,5.72,5.69
30.08,8.95,3.26,8.94,3.25,-3.22,-3.22,-4.07,5.73,5.72,5.69
30.38,8.91,3.22,8.91,3.22,-3.20,-3.22,-4.10,5.71,5.70,5.69
30.68,8.86,3.19,8.87,3.19,-3.19,-3.22,-4.12,5.67,5.68,5.68
30.99,8.82,3.15,8.83,3.16,-3.19,-3.22,-4.14,5.63,5.64,5.67
31.30,8.82,3.16,8.81,3.15,-3.20,-3.22,-4.15,5.63,5.62,5.66
31.61,8.82,3.16,8.81,3.16,-3.21,-3.22,-4.16,5.61,5.60,5.66
31.93,8.82,3.17,8.83,3.18,-3.23,-3.22,-4.16,5.60,5.61,5.66
32.24,8.87,3.23,8.88,3.24,-3.24,-3.22,-4.16,5.64,5.65,5.64
32.57,8.93,3.29,8.94,3.30,-3.24,-3.21,-4.15,5.69,5.70,5.64
32.89,9.00,3.36,8.97,3.33,-3.24,-3.21,-4.14,5.76,5.73,5.64
33.22,8.95,3.31,8.93,3.30,-3.23,-3.21,-4.11,5.72,5.70,5.64
33.55,8.85,3.22,8.86,3.22,-3.21,-3.21,-4.09,5.64,5.65,5.63
33.89,8.75,3.11,8.77,3.14,-3.18,-3.21,-4.06,5.57,5.59,5.64
34.23,8.72,3.08,8.73,3.09,-3.15,-3.21,-4.03,5.57,5.58,5.64
34.57,8.72,3.09,8.71,3.08,-3.12,-3.20,-3.99,5.60,5.60,5.63
34.92,8.72,3.08,8.72,3.08,-3.09,-3.20,-3.96,5.63,5.63,5.64
35.27,8.72,3.08,8.72,3.08,-3.07,-3.20,-3.91,5.65,5.65,5.64
35.62,8.72,3.08,8.72,3.08,-3.07,-3.20,-3.87,5.65,5.65,5.64
35.97,8.72,3.08,8.72,3.08,-3.07,-3.19,-3.82,5.65,5.65,5.64
36.33,8.72,3.08,8.72,3.09,-3.07,-3.19,-3.78,5.65,5.65,5.64
36.70,8.72,3.09,8.72,3.09,-3.07,-3.19,-3.73,5.65,5.65,5.63
37.06,8.71,3.08,8.70,3.08,-3.06,-3.18,-3.68,5.65,5.64,5.63
37.43,8.68,3.07,8.68,3.06,-3.06,-3.18,-3.63,5.62,5.62,5.61
37.81,8.64,3.03,8.65,3.04,-3.06,-3.18,-3.58,5.58,5.59,5.61
38.19,8.62,3.03,8.63,3.03,-3.06,-3.17,-3.53,5.56,5.56,5.60
38.57,8.62,3.04,8.62,3.04,-3.06,-3.17,-3.48,5.56,5.55,5.58
38.95,8.62,3.06,8.62,3.06,-3.06,-3.17,-3.43,5.56,5.56,5.57
39.34,8.63,3.08,8.64,3.09,-3.06,-3.16,-3.39,5.57,5.58,5.55
39.74,8.65,3.11,8.64,3.10,-3.06,-3.16,-3.34,5.59,5.58,5.55
40.14,8.64,3.11,8.62,3.09,-3.06,-3.15,-3.30,5.58,5.56,5.53
40.54,8.58,3.07,8.59,3.07,-3.07,-3.15,-3.25,5.52,5.52,5.51
40.94,8.53,3.02,8.54,3.04,-3.07,-3.14,-3.21,5.46,5.47,5.51
41.35,8.52,3.02,8.52,3.02,-3.07,-3.14,-3.17,5.45,5.45,5.50
41.76,8.52,3.03,8.52,3.03,-3.07,-3.13,-3.13,5.46,5.46,5.49
42.18,8.54,3.06,8.55,3.07,-3.06,-3.13,-3.10,5.49,5.50,5.48
42.60,8.57,3.09,8.57,3.10,-3.04,-3.12,-3.06,5.53,5.53,5.48
43.03,8.60,3.12,8.56,3.09,-3.03,-3.12,-3.03,5.57,5.53,5.48
43.46,8.52,3.05,8.52,3.05,-3.02,-3.11,-3.00,5.50,5.50,5.47
43.90,8.44,2.97,8.47,3.00,-3.01,-3.11,-2.98,5.43,5.46,5.47
44.33,8.42,2.96,8.42,2.96,-3.01,-3.10,-2.95,5.42,5.42,5.46
44.78,8.42,2.97,8.41,2.95,-3.00,-3.09,-2.93,5.42,5.41,5.46
45.23,8.42,2.96,8.42,2.96,-3.00,-3.09,-2.91,5.42,5.42,5.46
45.68,8.42,2.97,8.43,2.98,-3.00,-3.08,-2.89,5.42,5.43,5.45
46.13,8.44,3.00,8.46,3.02,-3.00,-3.08,-2.88,5.45,5.47,5.44
46.60,8.49,3.06,8.49,3.06,-3.00,-3.07,-2.86,5.49,5.49,5.43
47.06,8.53,3.11,8.48,3.05,-3.00,-3.06,-2.85,5.53,5.48,5.42
47.53,8.42,3.01,8.43,3.02,-3.00,-3.06,-2.84,5.42,5.43,5.41
48.01,8.32,2.92,8.36,2.97,-2.99,-3.05,-2.83,5.33,5.37,5.40
48.49,8.32,2.94,8.32,2.93,-2.99,-3.04,-2.83,5.33,5.32,5.38
48.97,8.32,2.95,8.31,2.94,-2.99,-3.04,-2.82,5.34,5.32,5.37
49.46,8.32,2.96,8.32,2.97,-2.98,-3.03,-2.82,5.35,5.34,5.36
49.96,8.32,2.99,8.33,2.99,-2.97,-3.02,-2.82,5.35,5.36,5.34
50.46,8.33,3.01,8.34,3.01,-2.97,-3.02,-2.83,5.36,5.37,5.32
50.96,8.35,3.04,8.32,3.01,-2.98,-3.01,-2.83,5.37,5.34,5.31
51.47,8.29,2.99,8.29,2.99,-2.99,-3.01,-2.83,5.30,5.30,5.30
51.99,8.22,2.94,8.24,2.96,-3.00,-3.00,-2.84,5.22,5.25,5.28
52.51,8.22,2.95,8.22,2.95,-2.99,-3.00,-2.85,5.23,5.23,5.27
53.03,8.22,2.97,8.24,2.99,-2.99,-2.99,-2.86,5.24,5.26,5.26
53.56,8.27,3.03,8.26,3.02,-2.98,-2.99,-2.86,5.30,5.28,5.24
54.10,8.28,3.06,8.24,3.01,-2.97,-2.98,-2.88,5.31,5.27,5.23
54.64,8.18,2.97,8.20,2.99,-2.97,-2.98,-2.89,5.21,5.23,5.21
55.18,8.12,2.93,8.15,2.95,-2.98,-2.98,-2.90,5.14,5.17,5.19
55.74,8.12,2.94,8.11,2.94,-2.99,-2.98,-2.91,5.13,5.12,5.18
56.29,8.12,2.96,8.11,2.96,-2.99,-2.97,-2.92,5.13,5.12,5.16
56.86,8.12,2.98,8.14,3.00,-2.99,-2.97,-2.93,5.13,5.15,5.14
57.42,8.15,3.03,8.15,3.03,-2.99,-2.97,-2.94,5.16,5.16,5.12
58.00,8.18,3.07,8.15,3.04,-3.00,-2.97,-2.95,5.18,5.15,5.11
58.58,8.12,3.03,8.13,3.03,-3.01,-2.98,-2.96,5.11,5.11,5.09
59.16,8.07,3.00,8.08,3.01,-3.02,-2.98,-2.97,5.05,5.06,5.07
59.76,8.03,2.98,8.04,2.98,-3.03,-2.98,-2.98,5.00,5.01,5.05
60.35,8.02,2.99,8.02,3.00,-3.02,-2.99,-2.99,5.00,5.00,5.03
60.96,8.02,3.01,8.03,3.02,-3.01,-2.99,-3.00,5.01,5.02,5.01
61.57,8.04,3.06,8.03,3.05,-3.00,-3.00,-3.01,5.04,5.03,4.98
62.18,8.02,3.06,8.00,3.04,-2.99,-3.00,-3.01,5.03,5.01,4.96
62.80,7.93,3.01,7.93,3.00,-2.99,-3.01,-3.02,4.94,4.94,4.93
63.43,7.85,2.95,7.86,2.96,-3.00,-3.02,-3.02,4.86,4.86,4.90
64.07,7.78,2.91,7.81,2.94,-2.99,-3.03,-3.02,4.79,4.81,4.87
64.71,7.81,2.97,7.81,2.97,-2.99,-3.04,-3.02,4.82,4.82,4.84
65.35,7.83,3.02,7.82,3.01,-3.00,-3.06,-3.02,4.83,4.83,4.81
66.01,7.85,3.08,7.81,3.04,-3.01,-3.07,-3.02,4.84,4.81,4.77
66.67,7.76,3.02,7.78,3.04,-3.02,-3.08,-3.02,4.74,4.75,4.74
67.33,7.72,3.02,7.74,3.04,-3.04,-3.10,-3.02,4.68,4.70,4.70
68.01,7.72,3.05,7.72,3.05,-3.06,-3.12,-3.02,4.66,4.66,4.67
68.69,7.73,3.10,7.72,3.08,-3.08,-3.13,-3.01,4.65,4.64,4.63
69.37,7.71,3.11,7.70,3.10,-3.09,-3.15,-3.01,4.62,4.61,4.60
70.07,7.66,3.10,7.67,3.11,-3.11,-3.17,-3.01,4.55,4.56,4.56
70.77,7.63,3.11,7.64,3.11,-3.13,-3.19,-3.01,4.50,4.51,4.52
71.48,7.62,3.13,7.62,3.14,-3.15,-3.21,-3.01,4.47,4.47,4.49
72.19,7.62,3.18,7.62,3.18,-3.17,-3.23,-3.00,4.45,4.45,4.44
72.91,7.62,3.21,7.62,3.21,-3.19,-3.25,-3.00,4.43,4.43,4.41
73.64,7.62,3.25,7.61,3.24,-3.22,-3.28,-3.00,4.40,4.39,4.37
74.38,7.58,3.25,7.57,3.24,-3.25,-3.30,-3.00,4.34,4.33,4.33
75.12,7.52,3.24,7.54,3.26,-3.28,-3.32,-3.01,4.25,4.27,4.28
75.87,7.52,3.28,7.52,3.28,-3.30,-3.35,-3.01,4.22,4.22,4.25
76.63,7.52,3.32,7.52,3.31,-3.32,-3.37,-3.02,4.20,4.19,4.21
77.40,7.52,3.36,7.52,3.36,-3.34,-3.40,-3.02,4.18,4.18,4.16
78.17,7.51,3.39,7.51,3.39,-3.36,-3.42,-3.03,4.16,4.16,4.12
78.95,7.49,3.41,7.48,3.40,-3.37,-3.45,-3.04,4.12,4.11,4.08
79.74,7.43,3.39,7.43,3.39,-3.38,-3.47,-3.05,4.05,4.04,4.04
80.54,7.36,3.37,7.37,3.38,-3.39,-3.50,-3.07,3.97,3.98,3.99
81.35,7.31,3.36,7.33,3.39,-3.40,-3.52,-3.08,3.91,3.93,3.95
82.16,7.31,3.41,7.31,3.40,-3.41,-3.55,-3.10,3.90,3.89,3.90
82.98,7.31,3.46,7.28,3.42,-3.43,-3.58,-3.12,3.88,3.85,3.86
83.81,7.23,3.42,7.25,3.44,-3.45,-3.60,-3.14,3.78,3.80,3.81
84.65,7.21,3.45,7.22,3.47,-3.47,-3.63,-3.17,3.74,3.75,3.76
85.50,7.21,3.51,7.21,3.50,-3.50,-3.65,-3.20,3.71,3.70,3.70
86.35,7.21,3.56,7.21,3.55,-3.54,-3.68,-3.23,3.67,3.67,3.65
87.22,7.20,3.60,7.19,3.59,-3.57,-3.71,-3.26,3.63,3.61,3.60
88.09,7.16,3.61,7.16,3.61,-3.61,-3.73,-3.29,3.55,3.55,3.55
88.97,7.12,3.62,7.14,3.64,-3.65,-3.76,-3.33,3.48,3.49,3.50
89.86,7.12,3.68,7.12,3.68,-3.68,-3.78,-3.37,3.44,3.44,3.44
90.76,7.12,3.73,7.11,3.73,-3.73,-3.81,-3.41,3.40,3.39,3.39
91.66,7.10,3.78,7.09,3.76,-3.76,-3.83,-3.46,3.34,3.33,3.33
92.58,7.05,3.78,7.06,3.79,-3.80,-3.86,-3.51,3.25,3.26,3.27
93.51,7.02,3.81,7.04,3.83,-3.83,-3.88,-3.56,3.19,3.21,3.21
94.44,7.02,3.88,7.03,3.88,-3.86,-3.91,-3.61,3.16,3.17,3.14
95.39,7.02,3.94,7.00,3.92,-3.89,-3.93,-3.66,3.13,3.11,3.08
96.34,6.97,3.96,6.95,3.94,-3.92,-3.96,-3.72,3.05,3.03,3.02
97.30,6.86,3.92,6.88,3.94,-3.95,-3.98,-3.78,2.91,2.93,2.94
98.28,6.80,3.93,6.82,3.94,-3.98,-4.01,-3.84,2.82,2.84,2.88
99.26,6.78,3.98,6.78,3.98,-4.01,-4.03,-3.90,2.77,2.77,2.80
100.25,6.77,4.05,6.77,4.04,-4.04,-4.06,-3.96,2.73,2.73,2.72
101.25,6.75,4.10,6.75,4.10,-4.08,-4.08,-4.02,2.67,2.67,2.65
102.27,6.71,4.14,6.70,4.13,-4.12,-4.10,-4.09,2.59,2.58,2.57
103.29,6.65,4.16,6.66,4.16,-4.17,-4.13,-4.16,2.48,2.49,2.50
104.32,6.60,4.18,6.61,4.19,-4.21,-4.15,-4.22,2.39,2.40,2.42
105.37,6.58,4.24,6.58,4.24,-4.25,-4.17,-4.29,2.33,2.33,2.34
106.42,6.56,4.31,6.57,4.31,-4.27,-4.20,-4.36,2.29,2.29,2.26
107.48,6.53,4.35,6.52,4.34,-4.30,-4.22,-4.43,2.23,2.23,2.18
108.56,6.48,4.37,6.45,4.34,-4.32,-4.25,-4.49,2.16,2.13,2.11
109.64,6.34,4.30,6.36,4.33,-4.34,-4.27,-4.56,2.00,2.02,2.04
110.74,6.27,4.31,6.29,4.33,-4.36,-4.29,-4.62,1.91,1.93,1.96
111.85,6.25,4.36,6.25,4.35,-4.38,-4.32,-4.68,1.87,1.87,1.90
112.97,6.24,4.41,6.23,4.40,-4.41,-4.34,-4.74,1.83,1.82,1.83
114.10,6.22,4.46,6.21,4.44,-4.44,-4.36,-4.80,1.78,1.76,1.77
115.24,6.16,4.46,6.17,4.47,-4.48,-4.39,-4.85,1.68,1.69,1.70
116.39,6.14,4.51,6.15,4.51,-4.52,-4.41,-4.90,1.62,1.63,1.64
117.55,6.14,4.56,6.14,4.56,-4.56,-4.43,-4.94,1.58,1.58,1.58
118.73,6.14,4.62,6.15,4.63,-4.59,-4.46,-4.98,1.55,1.55,1.52
119.92,6.15,4.69,6.13,4.66,-4.63,-4.48,-5.02,1.52,1.50,1.46
121.12,6.09,4.68,6.08,4.67,-4.66,-4.50,-5.05,1.43,1.42,1.41
122.33,6.01,4.65,6.03,4.67,-4.69,-4.52,-5.07,1.32,1.34,1.36
123.55,5.97,4.66,5.99,4.68,-4.72,-4.55,-5.10,1.25,1.26,1.31
124.79,5.98,4.72,5.98,4.72,-4.75,-4.57,-5.11,1.23,1.23,1.26
126.03,5.98,4.78,5.98,4.78,-4.77,-4.59,-5.12,1.21,1.22,1.21
127.29,5.99,4.84,5.98,4.83,-4.79,-4.62,-5.12,1.20,1.19,1.16
128.57,5.96,4.85,5.95,4.84,-4.82,-4.64,-5.13,1.15,1.13,1.11
129.85,5.90,4.84,5.90,4.84,-4.84,-4.66,-5.12,1.06,1.06,1.06
131.15,5.84,4.83,5.86,4.85,-4.86,-4.69,-5.11,0.98,1.00,1.01
132.46,5.82,4.86,5.83,4.87,-4.88,-4.71,-5.09,0.94,0.95,0.96
133.79,5.82,4.91,5.81,4.90,-4.90,-4.73,-5.07,0.92,0.91,0.92
135.12,5.81,4.94,5.78,4.91,-4.92,-4.75,-5.05,0.89,0.86,0.87
136.48,5.73,4.91,5.75,4.93,-4.94,-4.77,-5.02,0.79,0.81,0.83
137.84,5.71,4.93,5.72,4.95,-4.97,-4.80,-4.99,0.74,0.75,0.78
139.22,5.72,4.99,5.72,4.99,-4.99,-4.82,-4.96,0.73,0.73,0.73
140.61,5.73,5.05,5.73,5.05,-5.02,-4.84,-4.92,0.72,0.72,0.68
142.02,5.74,5.11,5.71,5.08,-5.04,-4.86,-4.89,0.70,0.67,0.63
143.44,5.66,5.08,5.66,5.07,-5.06,-4.88,-4.85,0.60,0.59,0.58
144.87,5.56,5.03,5.59,5.06,-5.09,-4.90,-4.81,0.48,0.51,0.53
146.32,5.54,5.05,5.54,5.05,-5.10,-4.92,-4.77,0.44,0.44,0.49
147.78,5.53,5.09,5.54,5.10,-5.10,-4.94,-4.73,0.43,0.43,0.44
149.26,5.53,5.14,5.54,5.15,-5.11,-4.96,-4.69,0.42,0.44,0.39
150.75,5.55,5.20,5.50,5.15,-5.11,-4.98,-4.65,0.44,0.39,0.35
152.26,5.44,5.14,5.44,5.13,-5.13,-4.99,-4.61,0.32,0.31,0.30
153.78,5.32,5.06,5.37,5.11,-5.14,-5.01,-4.57,0.18,0.23,0.27
155.32,5.32,5.10,5.32,5.10,-5.15,-5.03,-4.54,0.17,0.17,0.22
156.88,5.33,5.15,5.32,5.14,-5.16,-5.04,-4.50,0.17,0.16,0.18
158.44,5.33,5.20,5.33,5.19,-5.16,-5.06,-4.47,0.17,0.16,0.13
160.03,5.30,5.21,5.29,5.20,-5.17,-5.07,-4.44,0.13,0.13,0.09
161.63,5.24,5.20,5.23,5.19,-5.17,-5.09,-4.42,0.07,0.06,0.04
163.24,5.16,5.16,5.18,5.18,-5.18,-5.10,-4.39,-0.02,0.00,-0.00
164.88,5.12,5.16,5.14,5.18,-5.18,-5.11,-4.37,-0.06,-0.04,-0.04
166.53,5.12,5.20,5.09,5.17,-5.19,-5.12,-4.35,-0.07,-0.10,-0.08
168.19,5.07,5.19,5.05,5.17,-5.19,-5.13,-4.34,-0.12,-0.14,-0.12
169.87,4.97,5.13,5.02,5.17,-5.19,-5.14,-4.32,-0.22,-0.18,-0.16
171.57,4.98,5.17,5.00,5.19,-5.19,-5.15,-4.32,-0.21,-0.20,-0.19
173.29,5.02,5.25,4.98,5.21,-5.19,-5.16,-4.31,-0.17,-0.21,-0.23
175.02,4.98,5.24,4.97,5.23,-5.19,-5.16,-4.31,-0.21,-0.22,-0.25
176.77,4.89,5.18,4.93,5.22,-5.18,-5.17,-4.31,-0.29,-0.26,-0.29
178.54,4.88,5.20,4.86,5.18,-5.17,-5.17,-4.31,-0.29,-0.31,-0.32
180.32,4.81,5.16,4.80,5.15,-5.16,-5.17,-4.32,-0.35,-0.36,-0.35
182.13,4.75,5.12,4.76,5.13,-5.15,-5.17,-4.33,-0.40,-0.40,-0.37
183.95,4.70,5.09,4.72,5.11,-5.14,-5.17,-4.34,-0.44,-0.42,-0.39
185.79,4.71,5.12,4.71,5.12,-5.13,-5.17,-4.36,-0.42,-0.43,-0.41
187.65,4.72,5.15,4.69,5.12,-5.13,-5.17,-4.38,-0.40,-0.43,-0.43
189.52,4.66,5.11,4.68,5.13,-5.12,-5.16,-4.41,-0.46,-0.44,-0.45
191.42,4.65,5.11,4.67,5.13,-5.12,-5.16,-4.43,-0.47,-0.45,-0.46
193.33,4.67,5.15,4.64,5.13,-5.11,-5.15,-4.46,-0.44,-0.47,-0.48
195.27,4.62,5.12,4.62,5.11,-5.10,-5.14,-4.49,-0.48,-0.49,-0.50
197.22,4.56,5.08,4.58,5.09,-5.09,-5.13,-4.53,-0.53,-0.51,-0.52
199.19,4.52,5.06,4.53,5.06,-5.07,-5.12,-4.56,-0.55,-0.54,-0.53
201.18,4.51,5.06,4.49,5.04,-5.06,-5.11,-4.60,-0.55,-0.56,-0.55
203.19,4.46,5.03,4.46,5.03,-5.04,-5.10,-4.64,-0.58,-0.58,-0.57
205.23,4.42,5.00,4.44,5.02,-5.03,-5.08,-4.68,-0.60,-0.58,-0.58
207.28,4.42,5.02,4.40,5.00,-5.01,-5.07,-4.72,-0.59,-0.60,-0.60
209.35,4.39,5.00,4.37,4.99,-4.99,-5.05,-4.77,-0.60,-0.61,-0.61
211.44,4.31,4.95,4.35,4.98,-4.97,-5.03,-4.81,-0.65,-0.62,-0.64
213.56,4.32,4.97,4.31,4.97,-4.95,-5.01,-4.85,-0.63,-0.63,-0.65
215.69,4.29,4.96,4.27,4.94,-4.93,-4.99,-4.90,-0.63,-0.66,-0.67
217.85,4.21,4.90,4.20,4.89,-4.90,-4.97,-4.94,-0.69,-0.70,-0.69
220.03,4.11,4.82,4.13,4.84,-4.87,-4.95,-4.98,-0.76,-0.73,-0.71
222.23,4.07,4.79,4.11,4.83,-4.84,-4.92,-5.02,-0.77,-0.73,-0.72
224.45,4.11,4.84,4.09,4.83,-4.81,-4.90,-5.05,-0.70,-0.72,-0.73
226.70,4.11,4.85,4.07,4.81,-4.78,-4.87,-5.09,-0.67,-0.72,-0.74
228.96,4.00,4.75,4.01,4.76,-4.76,-4.84,-5.12,-0.76,-0.75,-0.75
231.25,3.92,4.68,3.95,4.71,-4.74,-4.81,-5.14,-0.82,-0.79,-0.75
233.57,3.89,4.66,3.93,4.70,-4.71,-4.78,-5.17,-0.82,-0.78,-0.76
235.90,3.97,4.74,3.93,4.70,-4.69,-4.75,-5.18,-0.72,-0.76,-0.77
238.26,3.95,4.72,3.90,4.68,-4.66,-4.72,-5.20,-0.70,-0.75,-0.77
240.64,3.82,4.59,3.87,4.64,-4.62,-4.68,-5.20,-0.80,-0.75,-0.77
243.05,3.79,4.56,3.82,4.59,-4.58,-4.65,-5.21,-0.79,-0.77,-0.77
245.48,3.82,4.59,3.79,4.56,-4.56,-4.61,-5.20,-0.74,-0.77,-0.77
247.93,3.77,4.54,3.75,4.52,-4.53,-4.58,-5.19,-0.76,-0.78,-0.77
250.41,3.71,4.48,3.70,4.47,-4.50,-4.54,-5.17,-0.79,-0.80,-0.77
252.92,3.61,4.37,3.67,4.43,-4.47,-4.50,-5.15,-0.85,-0.80,-0.76
255.45,3.66,4.43,3.66,4.43,-4.44,-4.46,-5.12,-0.77,-0.77,-0.77
258.00,3.70,4.47,3.67,4.44,-4.41,-4.42,-5.08,-0.71,-0.74,-0.77
260.58,3.66,4.44,3.64,4.42,-4.38,-4.38,-5.04,-0.72,-0.74,-0.77
263.19,3.58,4.36,3.58,4.36,-4.35,-4.34,-4.99,-0.77,-0.77,-0.78
265.82,3.46,4.26,3.51,4.31,-4.32,-4.30,-4.93,-0.86,-0.80,-0.80
268.48,3.48,4.28,3.47,4.27,-4.28,-4.26,-4.87,-0.80,-0.82,-0.80
271.16,3.45,4.27,3.42,4.24,-4.24,-4.22,-4.81,-0.79,-0.82,-0.82
273.87,3.37,4.20,3.38,4.21,-4.20,-4.17,-4.74,-0.83,-0.82,-0.82
276.61,3.30,4.14,3.31,4.15,-4.15,-4.13,-4.67,-0.85,-0.85,-0.84
279.38,3.25,4.11,3.25,4.10,-4.11,-4.09,-4.59,-0.86,-0.86,-0.86
282.17,3.19,4.05,3.20,4.06,-4.07,-4.04,-4.51,-0.87,-0.86,-0.86
284.99,3.17,4.04,3.17,4.03,-4.02,-4.00,-4.43,-0.85,-0.85,-0.87
287.84,3.13,3.99,3.13,3.99,-3.97,-3.95,-4.34,-0.84,-0.84,-0.86
290.72,3.09,3.96,3.08,3.95,-3.93,-3.90,-4.26,-0.84,-0.85,-0.86
293.63,3.02,3.89,3.02,3.88,-3.90,-3.86,-4.17,-0.88,-0.88,-0.87
296.57,2.96,3.82,2.96,3.82,-3.87,-3.81,-4.08,-0.91,-0.91,-0.86
299.53,2.90,3.76,2.94,3.80,-3.84,-3.76,-3.99,-0.94,-0.90,-0.86
302.53,2.94,3.80,2.94,3.80,-3.81,-3.72,-3.90,-0.86,-0.87,-0.86
305.55,2.98,3.84,2.94,3.80,-3.77,-3.67,-3.81,-0.79,-0.83,-0.85
308.61,2.91,3.77,2.92,3.78,-3.73,-3.62,-3.72,-0.82,-0.81,-0.86
311.69,2.86,3.72,2.86,3.73,-3.69,-3.57,-3.63,-0.83,-0.83,-0.86
314.81,2.79,3.66,2.79,3.66,-3.65,-3.53,-3.55,-0.86,-0.86,-0.87
317.96,2.72,3.59,2.72,3.59,-3.60,-3.48,-3.46,-0.88,-0.89,-0.87
321.14,2.66,3.53,2.65,3.52,-3.55,-3.43,-3.37,-0.89,-0.90,-0.87
324.35,2.56,3.43,2.60,3.47,-3.49,-3.38,-3.29,-0.93,-0.90,-0.86
327.59,2.57,3.44,2.56,3.43,-3.44,-3.33,-3.21,-0.87,-0.87,-0.87
330.87,2.54,3.41,2.52,3.39,-3.38,-3.28,-3.13,-0.84,-0.86,-0.87
334.18,2.48,3.35,2.47,3.35,-3.33,-3.24,-3.05,-0.85,-0.86,-0.87
337.52,2.39,3.27,2.42,3.30,-3.28,-3.19,-2.97,-0.89,-0.86,-0.88
340.90,2.36,3.24,2.36,3.24,-3.23,-3.14,-2.90,-0.86,-0.86,-0.88
344.30,2.34,3.21,2.29,3.16,-3.16,-3.09,-2.82,-0.82,-0.87,-0.87
347.75,2.20,3.06,2.24,3.11,-3.10,-3.04,-2.75,-0.90,-0.86,-0.86
351.23,2.15,3.03,2.18,3.05,-3.04,-2.99,-2.68,-0.89,-0.86,-0.88
354.74,2.17,3.03,2.10,2.97,-2.98,-2.95,-2.62,-0.81,-0.88,-0.86
358.28,2.03,2.89,2.04,2.90,-2.93,-2.90,-2.55,-0.90,-0.89,-0.86
361.87,1.95,2.80,1.99,2.85,-2.88,-2.85,-2.49,-0.93,-0.88,-0.85
365.49,1.96,2.81,1.98,2.82,-2.83,-2.80,-2.43,-0.87,-0.85,-0.84
369.14,2.00,2.85,1.96,2.80,-2.78,-2.75,-2.37,-0.78,-0.82,-0.85
372.83,1.97,2.80,1.93,2.76,-2.73,-2.70,-2.31,-0.76,-0.80,-0.83
376.56,1.81,2.64,1.89,2.72,-2.68,-2.66,-2.25,-0.87,-0.80,-0.83
380.33,1.81,2.64,1.82,2.65,-2.64,-2.61,-2.20,-0.83,-0.83,-0.83
384.13,1.82,2.65,1.75,2.58,-2.60,-2.56,-2.15,-0.78,-0.85,-0.83
387.97,1.66,2.50,1.70,2.53,-2.55,-2.51,-2.10,-0.89,-0.86,-0.83
391.85,1.61,2.44,1.65,2.48,-2.51,-2.47,-2.05,-0.90,-0.86,-0.83
395.77,1.62,2.46,1.63,2.46,-2.46,-2.42,-2.00,-0.84,-0.84,-0.84
399.73,1.65,2.49,1.61,2.45,-2.43,-2.37,-1.96,-0.77,-0.82,-0.84
403.72,1.59,2.43,1.56,2.41,-2.39,-2.32,-1.92,-0.80,-0.83,-0.84
407.76,1.44,2.30,1.50,2.35,-2.35,-2.28,-1.87,-0.91,-0.85,-0.86
411.84,1.42,2.28,1.45,2.31,-2.31,-2.23,-1.83,-0.89,-0.86,-0.86
415.96,1.44,2.31,1.40,2.27,-2.26,-2.18,-1.79,-0.82,-0.87,-0.86
420.12,1.38,2.26,1.35,2.22,-2.21,-2.14,-1.76,-0.83,-0.86,-0.87
424.32,1.24,2.11,1.30,2.17,-2.15,-2.09,-1.72,-0.91,-0.85,-0.87
428.56,1.22,2.08,1.24,2.10,-2.09,-2.04,-1.68,-0.87,-0.85,-0.86
432.85,1.25,2.09,1.18,2.02,-2.04,-2.00,-1.65,-0.78,-0.86,-0.84
437.18,1.12,1.95,1.15,1.97,-1.98,-1.95,-1.61,-0.86,-0.83,-0.83
441.55,1.08,1.87,1.12,1.91,-1.94,-1.90,-1.58,-0.86,-0.81,-0.79
445.96,1.14,1.89,1.10,1.85,-1.89,-1.86,-1.54,-0.75,-0.79,-0.75
450.42,1.14,1.84,1.15,1.85,-1.85,-1.81,-1.51,-0.71,-0.70,-0.70
454.93,1.14,1.79,1.19,1.84,-1.81,-1.76,-1.48,-0.67,-0.62,-0.65
459.48,1.25,1.85,1.18,1.78,-1.76,-1.72,-1.45,-0.51,-0.59,-0.59
464.07,1.18,1.73,1.19,1.73,-1.71,-1.67,-1.42,-0.53,-0.53,-0.54
468.71,1.12,1.62,1.20,1.69,-1.66,-1.62,-1.39,-0.54,-0.46,-0.50
473.40,1.22,1.66,1.17,1.60,-1.60,-1.58,-1.35,-0.38,-0.43,-0.44
478.13,1.19,1.57,1.15,1.53,-1.54,-1.53,-1.32,-0.35,-0.39,-0.38
482.91,1.07,1.40,1.13,1.46,-1.47,-1.48,-1.29,-0.40,-0.34,-0.33
487.74,1.08,1.37,1.08,1.37,-1.40,-1.43,-1.26,-0.32,-0.32,-0.29
492.62,1.09,1.34,1.07,1.32,-1.33,-1.39,-1.23,-0.24,-0.26,-0.25
497.55,1.06,1.27,1.07,1.28,-1.26,-1.34,-1.20,-0.19,-0.19,-0.21
502.52,1.04,1.23,1.03,1.22,-1.19,-1.29,-1.17,-0.14,-0.16,-0.19
507.55,0.97,1.13,0.99,1.15,-1.13,-1.24,-1.13,-0.16,-0.14,-0.16
512.62,0.93,1.08,0.93,1.08,-1.08,-1.19,-1.10,-0.15,-0.15,-0.15
517.75,0.87,1.02,0.84,0.99,-1.04,-1.15,-1.07,-0.17,-0.20,-0.15
