frequency,raw,error,smoothed,error_smoothed,equalization,parametric_eq,fixed_band_eq,equalized_raw,equalized_smoothed,target
20.00,8.74,-0.51,8.72,-0.53,0.45,0.07,-0.01,9.19,9.18,9.26
20.20,8.84,-0.39,8.85,-0.38,0.35,0.07,-0.01,9.19,9.21,9.24
20.40,8.94,-0.27,8.96,-0.25,0.26,0.07,-0.01,9.21,9.23,9.21
20.61,9.04,-0.16,9.06,-0.15,0.19,0.08,-0.01,9.23,9.24,9.20
20.81,9.14,-0.04,9.14,-0.04,0.12,0.08,-0.01,9.26,9.27,9.18
21.02,9.23,0.06,9.19,0.02,0.07,0.08,-0.01,9.30,9.26,9.17
21.23,9.18,0.03,9.19,0.04,0.03,0.08,-0.01,9.21,9.22,9.15
21.44,9.14,0.00,9.15,0.01,-0.00,0.08,-0.01,9.14,9.15,9.14
21.66,9.09,-0.04,9.09,-0.03,0.00,0.08,-0.01,9.10,9.09,9.13
21.87,9.05,-0.06,9.05,-0.06,0.02,0.08,-0.01,9.07,9.07,9.11
22.09,9.02,-0.08,9.03,-0.07,0.03,0.08,-0.01,9.05,9.06,9.10
22.31,9.02,-0.06,9.02,-0.07,0.05,0.08,-0.01,9.07,9.06,9.09
22.54,9.02,-0.05,9.02,-0.06,0.05,0.08,-0.01,9.07,9.07,9.07
22.76,9.02,-0.04,9.02,-0.04,0.05,0.08,-0.01,9.07,9.07,9.06
22.99,9.02,-0.03,9.02,-0.03,0.04,0.08,-0.01,9.06,9.06,9.05
23.22,9.02,-0.02,9.02,-0.02,0.03,0.08,-0.00,9.05,9.05,9.04
23.45,9.02,-0.02,9.02,-0.01,0.02,0.08,-0.00,9.04,9.04,9.04
23.69,9.02,-0.01,9.02,-0.01,0.01,0.08,-0.00,9.03,9.03,9.03
23.92,9.02,-0.01,9.02,-0.01,0.00,0.08,-0.00,9.02,9.02,9.03
24.16,9.02,-0.00,9.02,-0.00,-0.00,0.08,-0.00,9.02,9.02,9.03
24.40,9.02,-0.00,9.02,-0.00,0.00,0.08,-0.00,9.02,9.02,9.02
24.65,9.02,-0.00,9.02,0.00,0.01,0.08,-0.00,9.03,9.03,9.02
24.89,9.02,0.00,9.02,-0.00,0.02,0.08,-0.00,9.04,9.04,9.02
25.14,9.01,-0.01,9.00,-0.01,0.03,0.08,-0.00,9.04,9.03,9.02
25.39,8.98,-0.04,8.98,-0.04,0.04,0.08,-0.00,9.02,9.02,9.02
25.65,8.95,-0.06,8.95,-0.06,0.06,0.09,-0.00,9.01,9.01,9.02
25.91,8.93,-0.09,8.93,-0.09,0.07,0.09,-0.00,9.00,9.00,9.02
26.16,8.92,-0.10,8.92,-0.10,0.08,0.09,-0.00,9.00,9.01,9.02
26.43,8.92,-0.10,8.92,-0.10,0.09,0.09,-0.00,9.01,9.01,9.02
26.69,8.92,-0.10,8.92,-0.10,0.10,0.09,-0.00,9.02,9.02,9.02
26.96,8.92,-0.09,8.92,-0.09,0.10,0.09,-0.00,9.02,9.02,9.02
27.23,8.92,-0.09,8.92,-0.09,0.10,0.09,0.00,9.02,9.02,9.01
27.50,8.92,-0.09,8.92,-0.09,0.09,0.09,0.00,9.01,9.01,9.01
27.77,8.92,-0.09,8.92,-0.09,0.09,0.09,0.00,9.01,9.01,9.01
28.05,8.92,-0.08,8.92,-0.08,0.08,0.09,0.00,9.00,9.00,9.01
28.33,8.92,-0.07,8.92,-0.08,0.07,0.09,0.00,8.99,8.99,8.99
28.62,8.92,-0.07,8.92,-0.07,0.06,0.09,0.00,8.98,8.98,8.99
28.90,8.92,-0.07,8.92,-0.06,0.05,0.09,0.00,8.97,8.98,8.99
29.19,8.93,-0.05,8.93,-0.05,0.05,0.10,0.00,8.98,8.98,8.98
29.48,8.94,-0.04,8.94,-0.04,0.05,0.10,0.00,8.99,8.99,8.98
29.78,8.95,-0.03,8.95,-0.03,0.06,0.10,0.00,9.01,9.01,8.98
30.08,8.95,-0.02,8.94,-0.03,0.07,0.10,0.01,9.02,9.01,8.98
30.38,8.91,-0.06,8.91,-0.06,0.08,0.10,0.01,8.99,8.99,8.97
30.68,8.86,-0.10,8.87,-0.09,0.09,0.10,0.01,8.95,8.96,8.96
30.99,8.82,-0.13,8.83,-0.12,0.09,0.10,0.01,8.92,8.93,8.95
31.30,8.82,-0.12,8.81,-0.13,0.08,0.10,0.01,8.91,8.90,8.94
31.61,8.82,-0.12,8.81,-0.12,0.07,0.10,0.01,8.89,8.88,8.94
31.93,8.82,-0.11,8.83,-0.09,0.05,0.11,0.01,8.87,8.89,8.93
32.24,8.87,-0.05,8.88,-0.04,0.04,0.11,0.01,8.91,8.92,8.92
32.57,8.93,0.02,8.94,0.02,0.03,0.11,0.01,8.96,8.97,8.91
32.89,9.00,0.09,8.97,0.06,0.03,0.11,0.01,9.03,9.00,8.91
33.22,8.95,0.05,8.93,0.03,0.04,0.11,0.01,8.99,8.97,8.91
33.55,8.85,-0.05,8.86,-0.05,0.06,0.11,0.01,8.91,8.92,8.90
33.89,8.75,-0.15,8.77,-0.13,0.08,0.11,0.01,8.83,8.86,8.91
34.23,8.72,-0.18,8.73,-0.17,0.11,0.12,0.01,8.83,8.84,8.90
34.57,8.72,-0.17,8.71,-0.18,0.14,0.12,0.02,8.86,8.86,8.89
34.92,8.72,-0.18,8.72,-0.18,0.17,0.12,0.02,8.89,8.89,8.90
35.27,8.72,-0.17,8.72,-0.17,0.18,0.12,0.02,8.90,8.90,8.89
35.62,8.72,-0.18,8.72,-0.17,0.18,0.12,0.02,8.90,8.90,8.90
35.97,8.72,-0.17,8.72,-0.17,0.18,0.12,0.02,8.90,8.90,8.89
36.33,8.72,-0.16,8.72,-0.16,0.17,0.12,0.02,8.90,8.90,8.88
36.70,8.72,-0.16,8.72,-0.16,0.18,0.13,0.02,8.90,8.90,8.88
37.06,8.71,-0.16,8.70,-0.16,0.18,0.13,0.02,8.89,8.88,8.87
37.43,8.68,-0.17,8.68,-0.18,0.18,0.13,0.03,8.86,8.86,8.85
37.81,8.64,-0.20,8.65,-0.19,0.18,0.13,0.03,8.82,8.83,8.85
38.19,8.62,-0.21,8.63,-0.20,0.17,0.13,0.03,8.79,8.80,8.83
38.57,8.62,-0.19,8.62,-0.19,0.16,0.13,0.03,8.79,8.78,8.81
38.95,8.62,-0.17,8.62,-0.17,0.16,0.13,0.03,8.78,8.79,8.79
39.34,8.63,-0.14,8.64,-0.14,0.16,0.13,0.04,8.79,8.80,8.77
39.74,8.65,-0.11,8.64,-0.12,0.16,0.14,0.04,8.81,8.80,8.76
40.14,8.64,-0.10,8.62,-0.12,0.15,0.14,0.04,8.79,8.78,8.74
40.54,8.58,-0.14,8.59,-0.14,0.14,0.14,0.04,8.73,8.73,8.72
40.94,8.53,-0.18,8.54,-0.17,0.13,0.14,0.05,8.67,8.68,8.71
41.35,8.52,-0.18,8.52,-0.18,0.13,0.14,0.05,8.65,8.65,8.70
41.76,8.52,-0.16,8.52,-0.16,0.13,0.14,0.05,8.65,8.65,8.68
42.18,8.54,-0.13,8.55,-0.12,0.13,0.14,0.06,8.68,8.69,8.67
42.60,8.57,-0.10,8.57,-0.09,0.14,0.14,0.06,8.71,8.72,8.67
43.03,8.60,-0.06,8.56,-0.09,0.15,0.14,0.06,8.75,8.71,8.66
43.46,8.52,-0.12,8.52,-0.13,0.16,0.14,0.07,8.68,8.68,8.65
43.90,8.44,-0.20,8.47,-0.17,0.16,0.14,0.07,8.60,8.63,8.64
44.33,8.42,-0.21,8.42,-0.20,0.16,0.14,0.07,8.58,8.58,8.63
44.78,8.42,-0.19,8.41,-0.21,0.16,0.14,0.08,8.58,8.57,8.62
45.23,8.42,-0.19,8.42,-0.19,0.15,0.14,0.08,8.57,8.57,8.61
45.68,8.42,-0.17,8.43,-0.17,0.15,0.14,0.09,8.57,8.58,8.60
46.13,8.44,-0.14,8.46,-0.12,0.14,0.14,0.09,8.59,8.61,8.58
46.60,8.49,-0.07,8.49,-0.07,0.14,0.14,0.10,8.63,8.63,8.56
47.06,8.53,-0.02,8.48,-0.07,0.13,0.14,0.10,8.66,8.61,8.55
47.53,8.42,-0.11,8.43,-0.10,0.12,0.13,0.11,8.54,8.55,8.53
48.01,8.32,-0.19,8.36,-0.15,0.12,0.13,0.11,8.44,8.48,8.51
48.49,8.32,-0.16,8.32,-0.17,0.11,0.13,0.11,8.43,8.43,8.49
48.97,8.32,-0.15,8.31,-0.16,0.11,0.12,0.12,8.43,8.42,8.47
49.46,8.32,-0.13,8.32,-0.12,0.11,0.12,0.12,8.43,8.43,8.45
49.96,8.32,-0.10,8.33,-0.09,0.11,0.12,0.13,8.43,8.44,8.42
50.46,8.33,-0.06,8.34,-0.06,0.10,0.11,0.13,8.43,8.44,8.40
50.96,8.35,-0.02,8.32,-0.05,0.08,0.11,0.14,8.44,8.41,8.37
51.47,8.29,-0.06,8.29,-0.06,0.06,0.10,0.14,8.36,8.35,8.35
51.99,8.22,-0.11,8.24,-0.08,0.05,0.10,0.14,8.27,8.29,8.33
52.51,8.22,-0.08,8.22,-0.09,0.04,0.09,0.14,8.26,8.26,8.31
53.03,8.22,-0.06,8.24,-0.04,0.04,0.08,0.15,8.26,8.28,8.28
53.56,8.27,0.02,8.26,0.00,0.04,0.07,0.15,8.31,8.30,8.26
54.10,8.28,0.05,8.24,0.01,0.03,0.06,0.15,8.31,8.27,8.23
54.64,8.18,-0.02,8.20,-0.00,0.02,0.05,0.15,8.20,8.22,8.20
55.18,8.12,-0.05,8.15,-0.03,0.00,0.04,0.15,8.12,8.15,8.18
55.74,8.12,-0.03,8.11,-0.04,-0.02,0.03,0.15,8.10,8.09,8.15
56.29,8.12,0.00,8.11,-0.00,-0.03,0.02,0.14,8.09,8.08,8.12
56.86,8.12,0.03,8.14,0.05,-0.04,0.01,0.14,8.08,8.09,8.09
57.42,8.15,0.10,8.15,0.09,-0.06,-0.01,0.13,8.09,8.10,8.06
58.00,8.18,0.15,8.15,0.12,-0.08,-0.02,0.13,8.10,8.07,8.03
58.58,8.12,0.12,8.13,0.12,-0.10,-0.04,0.12,8.02,8.02,8.00
59.16,8.07,0.10,8.08,0.11,-0.13,-0.05,0.11,7.94,7.95,7.97
59.76,8.03,0.10,8.04,0.10,-0.15,-0.07,0.10,7.88,7.89,7.93
60.35,8.02,0.13,8.02,0.13,-0.16,-0.09,0.09,7.86,7.87,7.90
60.96,8.02,0.16,8.03,0.17,-0.16,-0.11,0.07,7.86,7.87,7.86
61.57,8.04,0.22,8.03,0.21,-0.16,-0.13,0.05,7.88,7.87,7.82
62.18,8.02,0.24,8.00,0.22,-0.17,-0.15,0.04,7.85,7.83,7.78
62.80,7.93,0.20,7.93,0.20,-0.19,-0.17,0.02,7.74,7.74,7.73
63.43,7.85,0.16,7.86,0.17,-0.21,-0.20,-0.01,7.65,7.65,7.69
64.07,7.78,0.13,7.81,0.16,-0.22,-0.22,-0.03,7.56,7.59,7.65
64.71,7.81,0.22,7.81,0.22,-0.24,-0.25,-0.05,7.57,7.58,7.59
65.35,7.83,0.28,7.82,0.27,-0.26,-0.28,-0.08,7.57,7.56,7.55
66.01,7.85,0.36,7.81,0.32,-0.29,-0.30,-0.11,7.57,7.53,7.49
66.67,7.76,0.31,7.78,0.33,-0.32,-0.33,-0.14,7.44,7.46,7.45
67.33,7.72,0.33,7.74,0.35,-0.36,-0.37,-0.17,7.36,7.39,7.39
68.01,7.72,0.38,7.72,0.38,-0.39,-0.40,-0.21,7.33,7.33,7.34
68.69,7.73,0.45,7.72,0.44,-0.43,-0.43,-0.24,7.30,7.29,7.28
69.37,7.71,0.48,7.70,0.47,-0.46,-0.47,-0.28,7.25,7.24,7.23
70.07,7.66,0.50,7.67,0.50,-0.50,-0.50,-0.32,7.16,7.17,7.17
70.77,7.63,0.52,7.64,0.53,-0.54,-0.54,-0.36,7.09,7.10,7.11
71.48,7.62,0.56,7.62,0.57,-0.58,-0.58,-0.40,7.04,7.04,7.06
72.19,7.62,0.63,7.62,0.63,-0.63,-0.61,-0.45,7.00,7.00,6.99
72.91,7.62,0.69,7.62,0.69,-0.67,-0.65,-0.49,6.95,6.96,6.93
73.64,7.62,0.75,7.61,0.73,-0.71,-0.70,-0.54,6.91,6.89,6.88
74.38,7.58,0.77,7.57,0.76,-0.76,-0.74,-0.59,6.82,6.81,6.82
75.12,7.52,0.78,7.54,0.80,-0.82,-0.78,-0.64,6.71,6.73,6.74
75.87,7.52,0.84,7.52,0.84,-0.86,-0.83,-0.69,6.66,6.66,6.68
76.63,7.52,0.90,7.52,0.90,-0.91,-0.87,-0.74,6.61,6.61,6.62
77.40,7.52,0.97,7.52,0.97,-0.95,-0.92,-0.79,6.57,6.57,6.56
78.17,7.51,1.02,7.51,1.02,-0.99,-0.96,-0.84,6.52,6.52,6.49
78.95,7.49,1.07,7.48,1.06,-1.03,-1.01,-0.90,6.46,6.45,6.42
79.74,7.43,1.07,7.43,1.07,-1.06,-1.06,-0.96,6.37,6.36,6.36
80.54,7.36,1.07,7.37,1.08,-1.10,-1.11,-1.01,6.26,6.27,6.29
81.35,7.31,1.09,7.33,1.11,-1.13,-1.16,-1.07,6.18,6.20,6.22
82.16,7.31,1.16,7.31,1.16,-1.17,-1.21,-1.13,6.14,6.14,6.15
82.98,7.31,1.23,7.28,1.20,-1.21,-1.27,-1.19,6.10,6.07,6.08
83.81,7.23,1.23,7.25,1.25,-1.25,-1.32,-1.25,5.98,6.00,6.00
84.65,7.21,1.28,7.22,1.30,-1.30,-1.37,-1.32,5.91,5.92,5.93
85.50,7.21,1.37,7.21,1.36,-1.36,-1.43,-1.38,5.85,5.85,5.85
86.35,7.21,1.44,7.21,1.44,-1.42,-1.48,-1.45,5.79,5.79,5.77
87.22,7.20,1.51,7.19,1.49,-1.48,-1.54,-1.51,5.72,5.71,5.69
88.09,7.16,1.54,7.16,1.54,-1.54,-1.59,-1.58,5.62,5.62,5.62
88.97,7.12,1.58,7.14,1.60,-1.61,-1.65,-1.65,5.51,5.53,5.54
89.86,7.12,1.67,7.12,1.67,-1.67,-1.71,-1.72,5.45,5.45,5.45
90.76,7.12,1.75,7.11,1.74,-1.74,-1.77,-1.79,5.38,5.37,5.37
91.66,7.10,1.82,7.09,1.80,-1.81,-1.82,-1.86,5.29,5.28,5.28
92.58,7.05,1.85,7.06,1.86,-1.87,-1.88,-1.94,5.18,5.19,5.20
93.51,7.02,1.91,7.04,1.93,-1.93,-1.94,-2.01,5.09,5.11,5.11
94.44,7.02,2.00,7.03,2.00,-1.99,-2.00,-2.09,5.04,5.04,5.02
95.39,7.02,2.09,7.00,2.08,-2.04,-2.06,-2.16,4.98,4.96,4.93
96.34,6.97,2.14,6.95,2.12,-2.10,-2.12,-2.24,4.87,4.85,4.83
97.30,6.86,2.13,6.88,2.14,-2.16,-2.18,-2.32,4.70,4.72,4.73
98.28,6.80,2.16,6.82,2.18,-2.22,-2.24,-2.40,4.59,4.60,4.64
99.26,6.78,2.25,6.78,2.25,-2.27,-2.30,-2.48,4.51,4.51,4.53
100.25,6.77,2.34,6.77,2.34,-2.33,-2.36,-2.56,4.44,4.43,4.43
101.25,6.75,2.42,6.75,2.42,-2.40,-2.41,-2.64,4.35,4.35,4.33
102.27,6.71,2.49,6.70,2.48,-2.47,-2.47,-2.72,4.24,4.23,4.22
103.29,6.65,2.53,6.66,2.54,-2.55,-2.53,-2.80,4.10,4.11,4.12
104.32,6.60,2.59,6.61,2.60,-2.62,-2.59,-2.88,3.98,3.99,4.01
105.37,6.58,2.67,6.58,2.68,-2.68,-2.65,-2.96,3.90,3.90,3.91
106.42,6.56,2.77,6.57,2.77,-2.74,-2.71,-3.04,3.82,3.83,3.79
107.48,6.53,2.84,6.52,2.83,-2.79,-2.77,-3.12,3.74,3.74,3.69
108.56,6.48,2.89,6.45,2.86,-2.84,-2.83,-3.20,3.64,3.61,3.60
109.64,6.34,2.85,6.36,2.87,-2.89,-2.89,-3.27,3.45,3.48,3.49
110.74,6.27,2.88,6.29,2.90,-2.93,-2.95,-3.35,3.34,3.36,3.39
111.85,6.25,2.96,6.25,2.96,-2.98,-3.01,-3.42,3.27,3.26,3.29
112.97,6.24,3.04,6.23,3.03,-3.04,-3.06,-3.49,3.20,3.19,3.20
114.10,6.22,3.11,6.21,3.10,-3.10,-3.12,-3.56,3.12,3.11,3.11
115.24,6.16,3.15,6.17,3.16,-3.17,-3.18,-3.62,2.99,3.01,3.01
116.39,6.14,3.22,6.15,3.22,-3.24,-3.23,-3.68,2.91,2.91,2.92
117.55,6.14,3.30,6.14,3.31,-3.30,-3.29,-3.74,2.84,2.84,2.84
118.73,6.14,3.39,6.15,3.40,-3.36,-3.35,-3.79,2.78,2.78,2.75
119.92,6.15,3.48,6.13,3.46,-3.42,-3.40,-3.84,2.73,2.70,2.67
121.12,6.09,3.50,6.08,3.49,-3.48,-3.46,-3.88,2.61,2.60,2.59
122.33,6.01,3.50,6.03,3.52,-3.54,-3.51,-3.92,2.47,2.49,2.51
123.55,5.97,3.54,5.99,3.56,-3.60,-3.56,-3.96,2.37,2.39,2.43
124.79,5.98,3.63,5.98,3.62,-3.65,-3.62,-3.99,2.33,2.32,2.35
126.03,5.98,3.71,5.98,3.71,-3.70,-3.67,-4.01,2.28,2.28,2.27
127.29,5.99,3.79,5.98,3.78,-3.75,-3.72,-4.03,2.24,2.23,2.20
128.57,5.96,3.84,5.95,3.83,-3.80,-3.77,-4.05,2.16,2.15,2.12
129.85,5.90,3.85,5.90,3.85,-3.85,-3.82,-4.06,2.05,2.05,2.05
131.15,5.84,3.87,5.86,3.88,-3.89,-3.87,-4.07,1.95,1.96,1.97
132.46,5.82,3.92,5.83,3.93,-3.94,-3.92,-4.07,1.88,1.89,1.90
133.79,5.82,3.99,5.81,3.98,-3.98,-3.97,-4.07,1.84,1.83,1.83
135.12,5.81,4.05,5.78,4.02,-4.03,-4.01,-4.07,1.78,1.75,1.76
136.48,5.73,4.04,5.75,4.06,-4.08,-4.06,-4.06,1.65,1.67,1.69
137.84,5.71,4.09,5.72,4.11,-4.13,-4.10,-4.05,1.58,1.59,1.62
139.22,5.72,4.18,5.72,4.18,-4.18,-4.15,-4.04,1.54,1.55,1.54
140.61,5.73,4.26,5.73,4.26,-4.22,-4.19,-4.02,1.51,1.51,1.48
142.02,5.74,4.34,5.71,4.31,-4.27,-4.23,-4.01,1.47,1.44,1.40
143.44,5.66,4.34,5.66,4.33,-4.32,-4.27,-3.99,1.34,1.34,1.33
144.87,5.56,4.31,5.59,4.34,-4.36,-4.31,-3.98,1.20,1.23,1.25
146.32,5.54,4.35,5.54,4.35,-4.40,-4.35,-3.96,1.14,1.14,1.19
147.78,5.53,4.41,5.54,4.42,-4.43,-4.39,-3.94,1.10,1.11,1.12
149.26,5.53,4.48,5.54,4.49,-4.45,-4.42,-3.92,1.08,1.09,1.05
150.75,5.55,4.57,5.50,4.52,-4.48,-4.46,-3.91,1.07,1.02,0.98
152.26,5.44,4.53,5.44,4.52,-4.51,-4.49,-3.89,0.93,0.92,0.91
153.78,5.32,4.47,5.37,4.52,-4.55,-4.52,-3.87,0.77,0.82,0.86
155.32,5.32,4.53,5.32,4.53,-4.58,-4.56,-3.86,0.74,0.74,0.79
156.88,5.33,4.60,5.32,4.59,-4.61,-4.59,-3.85,0.72,0.71,0.73
158.44,5.33,4.67,5.33,4.66,-4.64,-4.61,-3.84,0.70,0.69,0.66
160.03,5.30,4.70,5.29,4.69,-4.66,-4.64,-3.83,0.64,0.64,0.60
161.63,5.24,4.71,5.23,4.70,-4.68,-4.67,-3.82,0.56,0.55,0.53
163.24,5.16,4.69,5.18,4.71,-4.71,-4.69,-3.82,0.46,0.47,0.47
164.88,5.12,4.71,5.14,4.73,-4.73,-4.72,-3.82,0.39,0.41,0.41
166.53,5.12,4.77,5.09,4.74,-4.75,-4.74,-3.82,0.37,0.34,0.36
168.19,5.07,4.77,5.05,4.75,-4.77,-4.76,-3.83,0.30,0.27,0.30
169.87,4.97,4.73,5.02,4.77,-4.79,-4.78,-3.83,0.18,0.22,0.25
171.57,4.98,4.79,5.00,4.81,-4.81,-4.80,-3.84,0.17,0.19,0.19
173.29,5.02,4.88,4.98,4.84,-4.83,-4.81,-3.86,0.19,0.15,0.14
175.02,4.98,4.88,4.97,4.88,-4.84,-4.83,-3.87,0.14,0.13,0.10
176.77,4.89,4.84,4.93,4.88,-4.85,-4.84,-3.89,0.04,0.08,0.05
178.54,4.88,4.88,4.86,4.86,-4.85,-4.85,-3.91,0.03,0.01,-0.00
180.32,4.81,4.85,4.80,4.85,-4.86,-4.86,-3.94,-0.05,-0.06,-0.04
182.13,4.75,4.83,4.76,4.84,-4.86,-4.87,-3.97,-0.11,-0.11,-0.08
183.95,4.70,4.82,4.72,4.84,-4.87,-4.88,-4.00,-0.16,-0.14,-0.12
185.79,4.71,4.86,4.71,4.86,-4.87,-4.89,-4.03,-0.16,-0.16,-0.15
187.65,4.72,4.91,4.69,4.87,-4.88,-4.89,-4.07,-0.16,-0.19,-0.18
189.52,4.66,4.88,4.68,4.90,-4.89,-4.89,-4.11,-0.22,-0.20,-0.22
191.42,4.65,4.89,4.67,4.91,-4.90,-4.90,-4.15,-0.24,-0.23,-0.24
193.33,4.67,4.94,4.64,4.92,-4.90,-4.90,-4.20,-0.23,-0.26,-0.27
195.27,4.62,4.92,4.62,4.92,-4.91,-4.89,-4.24,-0.29,-0.29,-0.30
197.22,4.56,4.89,4.58,4.91,-4.91,-4.89,-4.29,-0.34,-0.33,-0.33
199.19,4.52,4.88,4.53,4.89,-4.90,-4.89,-4.34,-0.38,-0.37,-0.36
201.18,4.51,4.90,4.49,4.88,-4.90,-4.88,-4.40,-0.38,-0.40,-0.39
203.19,4.46,4.88,4.46,4.88,-4.89,-4.88,-4.45,-0.43,-0.43,-0.42
205.23,4.42,4.86,4.44,4.88,-4.89,-4.87,-4.51,-0.46,-0.44,-0.44
207.28,4.42,4.89,4.40,4.87,-4.88,-4.86,-4.56,-0.46,-0.47,-0.47
209.35,4.39,4.88,4.37,4.87,-4.87,-4.85,-4.62,-0.48,-0.49,-0.49
211.44,4.31,4.84,4.35,4.87,-4.86,-4.84,-4.68,-0.54,-0.51,-0.53
213.56,4.32,4.87,4.31,4.87,-4.85,-4.82,-4.73,-0.52,-0.53,-0.55
215.69,4.29,4.87,4.27,4.85,-4.83,-4.81,-4.79,-0.54,-0.57,-0.58
217.85,4.21,4.81,4.20,4.81,-4.82,-4.79,-4.84,-0.61,-0.62,-0.60
220.03,4.11,4.75,4.13,4.77,-4.80,-4.78,-4.90,-0.68,-0.66,-0.63
222.23,4.07,4.73,4.11,4.76,-4.77,-4.76,-4.95,-0.70,-0.67,-0.65
224.45,4.11,4.79,4.09,4.77,-4.75,-4.74,-5.00,-0.64,-0.66,-0.67
226.70,4.11,4.80,4.07,4.76,-4.74,-4.72,-5.04,-0.62,-0.67,-0.69
228.96,4.00,4.71,4.01,4.71,-4.72,-4.70,-5.08,-0.72,-0.71,-0.71
231.25,3.92,4.64,3.95,4.67,-4.70,-4.67,-5.12,-0.78,-0.75,-0.72
233.57,3.89,4.63,3.93,4.67,-4.69,-4.65,-5.15,-0.80,-0.75,-0.74
235.90,3.97,4.72,3.93,4.68,-4.67,-4.62,-5.18,-0.70,-0.74,-0.75
238.26,3.95,4.71,3.90,4.66,-4.64,-4.60,-5.20,-0.69,-0.74,-0.76
240.64,3.82,4.59,3.87,4.64,-4.61,-4.57,-5.22,-0.79,-0.74,-0.77
243.05,3.79,4.56,3.82,4.59,-4.58,-4.54,-5.23,-0.79,-0.76,-0.77
245.48,3.82,4.60,3.79,4.56,-4.56,-4.51,-5.23,-0.74,-0.77,-0.77
247.93,3.77,4.55,3.75,4.53,-4.54,-4.48,-5.23,-0.77,-0.79,-0.78
250.41,3.71,4.49,3.70,4.48,-4.51,-4.45,-5.21,-0.80,-0.81,-0.78
252.92,3.61,4.40,3.67,4.45,-4.49,-4.42,-5.20,-0.88,-0.82,-0.79
255.45,3.66,4.46,3.66,4.46,-4.46,-4.39,-5.17,-0.80,-0.80,-0.80
258.00,3.70,4.50,3.67,4.47,-4.44,-4.36,-5.14,-0.74,-0.77,-0.80
260.58,3.66,4.47,3.64,4.46,-4.42,-4.32,-5.10,-0.76,-0.78,-0.81
263.19,3.58,4.40,3.58,4.40,-4.39,-4.29,-5.05,-0.81,-0.82,-0.82
265.82,3.46,4.31,3.51,4.36,-4.37,-4.25,-5.00,-0.90,-0.85,-0.84
268.48,3.48,4.34,3.47,4.32,-4.33,-4.22,-4.94,-0.85,-0.87,-0.85
271.16,3.45,4.33,3.42,4.30,-4.30,-4.18,-4.88,-0.85,-0.87,-0.87
273.87,3.37,4.26,3.38,4.27,-4.26,-4.15,-4.81,-0.89,-0.88,-0.88
276.61,3.30,4.21,3.31,4.21,-4.22,-4.11,-4.74,-0.92,-0.91,-0.90
279.38,3.25,4.17,3.25,4.17,-4.18,-4.07,-4.67,-0.93,-0.93,-0.92
282.17,3.19,4.12,3.20,4.13,-4.14,-4.03,-4.59,-0.95,-0.93,-0.93
284.99,3.17,4.11,3.17,4.11,-4.09,-3.99,-4.51,-0.92,-0.93,-0.94
287.84,3.13,4.07,3.13,4.07,-4.05,-3.95,-4.42,-0.92,-0.92,-0.94
290.72,3.09,4.04,3.08,4.03,-4.01,-3.91,-4.33,-0.92,-0.93,-0.95
293.63,3.02,3.98,3.02,3.97,-3.98,-3.87,-4.25,-0.96,-0.97,-0.95
296.57,2.96,3.91,2.96,3.91,-3.96,-3.83,-4.16,-1.00,-1.00,-0.95
299.53,2.90,3.85,2.94,3.89,-3.93,-3.79,-4.07,-1.03,-0.99,-0.95
302.53,2.94,3.90,2.94,3.89,-3.90,-3.75,-3.98,-0.96,-0.96,-0.96
305.55,2.98,3.93,2.94,3.90,-3.87,-3.71,-3.89,-0.89,-0.93,-0.95
308.61,2.91,3.87,2.92,3.88,-3.83,-3.67,-3.80,-0.92,-0.91,-0.96
311.69,2.86,3.83,2.86,3.83,-3.79,-3.63,-3.71,-0.93,-0.93,-0.96
314.81,2.79,3.76,2.79,3.77,-3.75,-3.58,-3.62,-0.96,-0.96,-0.97
317.96,2.72,3.70,2.72,3.69,-3.71,-3.54,-3.54,-0.99,-0.99,-0.98
321.14,2.66,3.64,2.65,3.63,-3.66,-3.50,-3.45,-1.00,-1.01,-0.98
324.35,2.56,3.54,2.60,3.58,-3.61,-3.45,-3.37,-1.05,-1.01,-0.98
327.59,2.57,3.55,2.56,3.55,-3.55,-3.41,-3.28,-0.98,-0.99,-0.98
330.87,2.54,3.53,2.52,3.51,-3.50,-3.37,-3.20,-0.96,-0.98,-0.99
334.18,2.48,3.47,2.47,3.47,-3.45,-3.32,-3.12,-0.97,-0.98,-0.99
337.52,2.39,3.39,2.42,3.42,-3.40,-3.28,-3.05,-1.01,-0.98,-1.00
340.90,2.36,3.36,2.36,3.36,-3.35,-3.24,-2.97,-0.99,-0.99,-1.00
344.30,2.34,3.34,2.29,3.29,-3.29,-3.19,-2.90,-0.95,-1.00,-1.00
347.75,2.20,3.19,2.24,3.24,-3.23,-3.15,-2.83,-1.03,-0.98,-0.99
351.23,2.15,3.16,2.18,3.17,-3.17,-3.11,-2.76,-1.02,-0.99,-1.00
354.74,2.17,3.16,2.10,3.10,-3.11,-3.06,-2.69,-0.94,-1.01,-0.99
358.28,2.03,3.02,2.04,3.03,-3.06,-3.02,-2.63,-1.03,-1.02,-0.99
361.87,1.95,2.94,1.99,2.98,-3.01,-2.97,-2.57,-1.06,-1.02,-0.98
365.49,1.96,2.94,1.98,2.96,-2.96,-2.93,-2.50,-1.00,-0.99,-0.98
369.14,2.00,2.98,1.96,2.94,-2.92,-2.89,-2.45,-0.91,-0.95,-0.98
372.83,1.97,2.94,1.93,2.90,-2.87,-2.84,-2.39,-0.89,-0.94,-0.96
376.56,1.81,2.78,1.89,2.85,-2.82,-2.80,-2.34,-1.01,-0.94,-0.97
380.33,1.81,2.78,1.82,2.79,-2.78,-2.75,-2.28,-0.97,-0.96,-0.97
384.13,1.82,2.79,1.75,2.72,-2.74,-2.71,-2.23,-0.92,-0.99,-0.97
387.97,1.66,2.64,1.70,2.67,-2.70,-2.66,-2.18,-1.03,-1.00,-0.98
391.85,1.61,2.58,1.65,2.62,-2.65,-2.62,-2.14,-1.04,-1.00,-0.97
395.77,1.62,2.60,1.63,2.60,-2.61,-2.58,-2.09,-0.99,-0.98,-0.98
399.73,1.65,2.64,1.61,2.59,-2.57,-2.53,-2.05,-0.92,-0.96,-0.98
403.72,1.59,2.58,1.56,2.55,-2.54,-2.49,-2.00,-0.94,-0.98,-0.99
407.76,1.44,2.45,1.50,2.50,-2.50,-2.44,-1.96,-1.06,-1.00,-1.01
411.84,1.42,2.43,1.45,2.46,-2.46,-2.40,-1.92,-1.04,-1.01,-1.01
415.96,1.44,2.45,1.40,2.42,-2.41,-2.35,-1.89,-0.97,-1.02,-1.01
420.12,1.38,2.41,1.35,2.37,-2.36,-2.31,-1.85,-0.98,-1.01,-1.02
424.32,1.24,2.26,1.30,2.32,-2.30,-2.27,-1.81,-1.06,-1.00,-1.02
428.56,1.22,2.23,1.24,2.25,-2.24,-2.22,-1.78,-1.02,-1.00,-1.01
432.85,1.25,2.24,1.18,2.17,-2.19,-2.18,-1.74,-0.94,-1.01,-0.99
437.18,1.12,2.10,1.15,2.13,-2.14,-2.13,-1.71,-1.02,-0.99,-0.98
441.55,1.08,2.03,1.12,2.07,-2.09,-2.09,-1.68,-1.01,-0.97,-0.94
445.96,1.14,2.05,1.10,2.01,-2.05,-2.04,-1.65,-0.91,-0.95,-0.91
450.42,1.14,2.00,1.15,2.00,-2.01,-2.00,-1.62,-0.86,-0.86,-0.86
454.93,1.14,1.95,1.19,1.99,-1.96,-1.96,-1.58,-0.82,-0.78,-0.81
459.48,1.25,2.00,1.18,1.93,-1.92,-1.91,-1.55,-0.67,-0.74,-0.75
464.07,1.18,1.88,1.19,1.89,-1.87,-1.87,-1.52,-0.69,-0.68,-0.70
468.71,1.12,1.77,1.20,1.85,-1.82,-1.82,-1.49,-0.70,-0.62,-0.65
473.40,1.22,1.82,1.17,1.76,-1.76,-1.78,-1.46,-0.54,-0.59,-0.59
478.13,1.19,1.73,1.15,1.69,-1.70,-1.73,-1.43,-0.51,-0.55,-0.54
482.91,1.07,1.56,1.13,1.62,-1.63,-1.69,-1.40,-0.56,-0.50,-0.49
487.74,1.08,1.53,1.08,1.53,-1.56,-1.64,-1.37,-0.48,-0.48,-0.45
492.62,1.09,1.50,1.07,1.48,-1.49,-1.60,-1.34,-0.40,-0.42,-0.41
497.55,1.06,1.43,1.07,1.44,-1.42,-1.55,-1.31,-0.36,-0.35,-0.37
502.52,1.04,1.39,1.03,1.38,-1.35,-1.50,-1.28,-0.31,-0.32,-0.35
507.55,0.97,1.29,0.99,1.31,-1.29,-1.46,-1.24,-0.32,-0.30,-0.32
512.62,0.93,1.24,0.93,1.24,-1.24,-1.41,-1.21,-0.31,-0.31,-0.31
517.75,0.87,1.19,0.84,1.15,-1.20,-1.36,-1.18,-0.33,-0.36,-0.31
522.93,0.75,1.07,0.77,1.09,-1.16,-1.32,-1.14,-0.41,-0.39,-0.31
528.16,0.69,1.03,0.75,1.09,-1.12,-1.27,-1.11,-0.43,-0.37,-0.34
