frequency,raw,error,smoothed,error_smoothed,equalization,parametric_eq,equalized_raw,equalized_smoothed,target
20,2.45,-2.11,2.44,-2.13,2.13,2.01,4.58,4.57,4.57
21,2.59,-1.96,2.62,-1.94,1.94,1.89,4.54,4.56,4.56
22,2.78,-1.77,2.78,-1.77,1.77,1.76,4.55,4.55,4.55
23,2.93,-1.60,2.94,-1.60,1.60,1.61,4.54,4.54,4.54
24,3.09,-1.43,3.08,-1.45,1.45,1.46,4.54,4.53,4.53
25,3.22,-1.29,3.21,-1.30,1.30,1.31,4.52,4.51,4.51
26,3.36,-1.14,3.34,-1.17,1.17,1.17,4.53,4.50,4.50
27,3.41,-1.07,3.45,-1.04,1.04,1.04,4.45,4.49,4.49
28,3.54,-0.93,3.55,-0.92,0.92,0.92,4.46,4.47,4.47
29,3.59,-0.86,3.64,-0.81,0.81,0.80,4.40,4.45,4.45
30,3.78,-0.65,3.73,-0.71,0.71,0.69,4.49,4.44,4.44
31,3.83,-0.59,3.80,-0.62,0.62,0.59,4.45,4.42,4.42
32,3.87,-0.53,3.87,-0.53,0.53,0.50,4.40,4.40,4.40
33,3.92,-0.45,3.93,-0.45,0.45,0.41,4.37,4.38,4.38
34,3.97,-0.38,3.98,-0.38,0.38,0.33,4.35,4.36,4.36
35,4.01,-0.32,4.03,-0.30,0.30,0.25,4.32,4.33,4.33
36,4.06,-0.24,4.07,-0.23,0.23,0.17,4.30,4.31,4.31
37,4.11,-0.17,4.12,-0.16,0.16,0.10,4.28,4.28,4.28
38,4.15,-0.10,4.16,-0.09,0.09,0.03,4.25,4.25,4.25
39,4.20,-0.02,4.20,-0.02,0.02,-0.03,4.23,4.23,4.23
40,4.25,0.06,4.24,0.05,-0.05,-0.10,4.21,4.20,4.20
41,4.29,0.13,4.28,0.11,-0.11,-0.16,4.18,4.17,4.17
42,4.31,0.18,4.31,0.18,-0.18,-0.22,4.13,4.14,4.14
43,4.34,0.24,4.35,0.24,-0.24,-0.28,4.10,4.10,4.10
44,4.38,0.31,4.38,0.31,-0.31,-0.34,4.08,4.07,4.07
45,4.39,0.36,4.40,0.37,-0.37,-0.39,4.03,4.03,4.03
46,4.39,0.40,4.42,0.43,-0.43,-0.45,3.97,4.00,4.00
47,4.46,0.50,4.44,0.48,-0.48,-0.50,3.98,3.96,3.96
48,4.48,0.56,4.46,0.54,-0.54,-0.56,3.94,3.92,3.92
49,4.48,0.60,4.48,0.59,-0.59,-0.61,3.89,3.88,3.88
50,4.48,0.64,4.49,0.65,-0.65,-0.67,3.84,3.84,3.84
51,4.48,0.68,4.50,0.70,-0.70,-0.72,3.78,3.80,3.80
52,4.48,0.73,4.51,0.75,-0.75,-0.77,3.73,3.76,3.76
53,4.53,0.82,4.51,0.80,-0.80,-0.83,3.73,3.71,3.71
54,4.53,0.87,4.52,0.85,-0.85,-0.88,3.68,3.67,3.67
55,4.53,0.91,4.53,0.90,-0.90,-0.93,3.63,3.62,3.62
56,4.53,0.96,4.53,0.96,-0.96,-0.99,3.57,3.58,3.58
57,4.52,0.99,4.54,1.02,-1.02,-1.04,3.51,3.53,3.53
58,4.53,1.05,4.56,1.07,-1.07,-1.09,3.46,3.48,3.48
59,4.56,1.13,4.57,1.14,-1.14,-1.15,3.43,3.43,3.43
60,4.57,1.19,4.58,1.20,-1.20,-1.20,3.37,3.38,3.38
61,4.62,1.29,4.60,1.26,-1.26,-1.25,3.36,3.33,3.33
62,4.62,1.34,4.61,1.32,-1.32,-1.31,3.30,3.28,3.28
63,4.62,1.39,4.62,1.38,-1.38,-1.36,3.24,3.23,3.23
64,4.62,1.44,4.62,1.44,-1.44,-1.41,3.18,3.18,3.18
65,4.62,1.50,4.63,1.50,-1.50,-1.47,3.12,3.13,3.13
66,4.62,1.55,4.63,1.55,-1.55,-1.52,3.07,3.07,3.07
67,4.62,1.60,4.63,1.60,-1.60,-1.57,3.02,3.02,3.02
68,4.62,1.65,4.63,1.66,-1.66,-1.63,2.97,2.97,2.97
69,4.62,1.71,4.62,1.71,-1.71,-1.68,2.91,2.92,2.92
70,4.62,1.76,4.62,1.76,-1.76,-1.74,2.86,2.86,2.86
71,4.62,1.82,4.62,1.82,-1.82,-1.79,2.81,2.81,2.81
72,4.62,1.87,4.62,1.87,-1.87,-1.84,2.75,2.75,2.75
73,4.62,1.92,4.62,1.92,-1.92,-1.90,2.70,2.70,2.70
74,4.62,1.98,4.62,1.98,-1.98,-1.95,2.64,2.64,2.64
75,4.62,2.03,4.62,2.03,-2.03,-2.01,2.59,2.59,2.59
76,4.62,2.09,4.63,2.09,-2.09,-2.06,2.53,2.54,2.54
77,4.62,2.14,4.63,2.14,-2.14,-2.11,2.48,2.48,2.48
78,4.62,2.20,4.63,2.20,-2.20,-2.17,2.43,2.43,2.43
79,4.62,2.25,4.62,2.25,-2.25,-2.22,2.37,2.37,2.37
80,4.62,2.30,4.62,2.30,-2.30,-2.27,2.32,2.32,2.32
81,4.62,2.36,4.62,2.35,-2.35,-2.33,2.27,2.27,2.27
82,4.62,2.41,4.61,2.40,-2.40,-2.38,2.23,2.21,2.21
83,4.62,2.46,4.60,2.44,-2.44,-2.43,2.18,2.16,2.16
84,4.57,2.47,4.59,2.49,-2.49,-2.48,2.09,2.11,2.11
85,4.57,2.52,4.59,2.53,-2.53,-2.53,2.04,2.05,2.05
86,4.57,2.57,4.58,2.58,-2.58,-2.59,1.99,2.00,2.00
87,4.57,2.62,4.58,2.63,-2.63,-2.64,1.95,1.95,1.95
88,4.57,2.67,4.57,2.68,-2.68,-2.69,1.90,1.90,1.90
89,4.57,2.73,4.57,2.72,-2.72,-2.74,1.85,1.85,1.85
90,4.57,2.78,4.57,2.77,-2.77,-2.79,1.80,1.80,1.80
91,4.57,2.83,4.57,2.82,-2.82,-2.83,1.75,1.75,1.75
92,4.57,2.88,4.57,2.87,-2.87,-2.88,1.71,1.70,1.70
93,4.57,2.92,4.56,2.91,-2.91,-2.93,1.66,1.65,1.65
94,4.55,2.95,4.55,2.95,-2.95,-2.98,1.60,1.60,1.60
95,4.53,2.98,4.55,2.99,-2.99,-3.02,1.54,1.55,1.55
96,4.53,3.03,4.54,3.03,-3.03,-3.07,1.50,1.51,1.50
97,4.53,3.08,4.53,3.07,-3.07,-3.11,1.46,1.46,1.46
98,4.53,3.12,4.52,3.11,-3.11,-3.16,1.42,1.41,1.41
99,4.53,3.17,4.51,3.15,-3.15,-3.20,1.38,1.36,1.36
100,4.49,3.17,4.51,3.19,-3.19,-3.24,1.30,1.31,1.32
101,4.48,3.21,4.50,3.23,-3.23,-3.28,1.25,1.26,1.27
102,4.48,3.25,4.49,3.28,-3.28,-3.32,1.21,1.21,1.23
104,4.48,3.34,4.48,3.32,-3.32,-3.40,1.16,1.16,1.14
105,4.48,3.38,4.48,3.36,-3.36,-3.44,1.12,1.11,1.10
106,4.48,3.42,4.47,3.40,-3.40,-3.48,1.08,1.07,1.06
107,4.47,3.45,4.46,3.44,-3.44,-3.51,1.03,1.02,1.02
108,4.45,3.47,4.46,3.48,-3.48,-3.55,0.98,0.98,0.98
109,4.43,3.49,4.45,3.51,-3.51,-3.58,0.92,0.94,0.94
110,4.43,3.53,4.44,3.54,-3.54,-3.61,0.89,0.90,0.90
111,4.43,3.57,4.43,3.57,-3.57,-3.65,0.86,0.86,0.86
112,4.43,3.61,4.43,3.60,-3.60,-3.68,0.83,0.82,0.82
113,4.43,3.65,4.41,3.63,-3.63,-3.71,0.80,0.78,0.79
114,4.41,3.66,4.40,3.66,-3.66,-3.74,0.75,0.74,0.75
115,4.39,3.68,4.39,3.69,-3.69,-3.76,0.70,0.70,0.71
117,4.39,3.75,4.38,3.72,-3.72,-3.82,0.67,0.66,0.64
118,4.34,3.74,4.37,3.75,-3.75,-3.84,0.59,0.62,0.61
119,4.34,3.77,4.36,3.78,-3.78,-3.87,0.56,0.58,0.57
120,4.34,3.80,4.35,3.82,-3.82,-3.89,0.52,0.53,0.54
121,4.34,3.84,4.35,3.86,-3.86,-3.91,0.49,0.49,0.51
123,4.34,3.90,4.35,3.89,-3.89,-3.95,0.45,0.46,0.44
124,4.36,3.95,4.34,3.93,-3.93,-3.97,0.44,0.42,0.41
125,4.34,3.96,4.34,3.96,-3.96,-3.99,0.38,0.38,0.38
126,4.34,3.99,4.33,3.99,-3.99,-4.01,0.35,0.34,0.35
128,4.33,4.04,4.32,4.01,-4.01,-4.04,0.32,0.31,0.29
129,4.29,4.03,4.31,4.03,-4.03,-4.06,0.26,0.27,0.27
130,4.29,4.05,4.29,4.05,-4.05,-4.07,0.24,0.24,0.24
131,4.27,4.06,4.26,4.06,-4.06,-4.09,0.21,0.20,0.21
133,4.24,4.09,4.24,4.08,-4.08,-4.11,0.17,0.17,0.16
134,4.20,4.07,4.22,4.09,-4.09,-4.12,0.12,0.13,0.13
135,4.20,4.10,4.19,4.10,-4.10,-4.13,0.11,0.10,0.11
137,4.15,4.10,4.17,4.11,-4.11,-4.15,0.04,0.06,0.06
138,4.15,4.12,4.15,4.12,-4.12,-4.16,0.03,0.03,0.03
140,4.13,4.15,4.14,4.14,-4.14,-4.18,-0.01,-0.00,-0.01
141,4.11,4.15,4.12,4.15,-4.15,-4.19,-0.04,-0.03,-0.04
142,4.11,4.17,4.11,4.17,-4.17,-4.19,-0.06,-0.07,-0.06
144,4.11,4.21,4.09,4.19,-4.19,-4.21,-0.08,-0.10,-0.10
145,4.06,4.18,4.08,4.21,-4.21,-4.21,-0.14,-0.13,-0.12
147,4.06,4.23,4.06,4.22,-4.22,-4.22,-0.16,-0.16,-0.16
148,4.06,4.25,4.05,4.24,-4.24,-4.23,-0.17,-0.19,-0.18
150,4.03,4.25,4.04,4.25,-4.25,-4.23,-0.22,-0.22,-0.22
151,4.01,4.25,4.02,4.27,-4.27,-4.24,-0.26,-0.24,-0.24
153,4.01,4.29,4.01,4.28,-4.28,-4.24,-0.27,-0.27,-0.28
154,4.01,4.31,4.00,4.30,-4.30,-4.25,-0.28,-0.30,-0.29
156,3.97,4.30,3.99,4.31,-4.31,-4.25,-0.34,-0.32,-0.33
157,3.97,4.32,3.98,4.33,-4.33,-4.25,-0.35,-0.35,-0.34
159,3.97,4.35,3.96,4.34,-4.34,-4.25,-0.37,-0.37,-0.38
160,3.97,4.37,3.95,4.35,-4.35,-4.26,-0.38,-0.40,-0.39
162,3.92,4.35,3.94,4.36,-4.36,-4.26,-0.44,-0.42,-0.42
164,3.92,4.38,3.93,4.37,-4.37,-4.26,-0.45,-0.45,-0.45
165,3.92,4.39,3.91,4.38,-4.38,-4.26,-0.46,-0.47,-0.47
167,3.88,4.38,3.90,4.40,-4.40,-4.26,-0.51,-0.49,-0.49
169,3.87,4.39,3.89,4.40,-4.40,-4.26,-0.53,-0.52,-0.52
170,3.87,4.41,3.87,4.41,-4.41,-4.26,-0.54,-0.54,-0.53
172,3.87,4.43,3.86,4.42,-4.42,-4.26,-0.54,-0.56,-0.56
174,3.83,4.42,3.84,4.42,-4.42,-4.26,-0.59,-0.58,-0.58
175,3.83,4.43,3.81,4.41,-4.41,-4.26,-0.58,-0.60,-0.60
177,3.79,4.41,3.78,4.41,-4.41,-4.26,-0.61,-0.62,-0.62
179,3.76,4.40,3.75,4.39,-4.39,-4.26,-0.63,-0.64,-0.64
181,3.72,4.39,3.72,4.38,-4.38,-4.26,-0.65,-0.66,-0.66
183,3.66,4.35,3.68,4.36,-4.36,-4.26,-0.69,-0.68,-0.68
184,3.63,4.33,3.64,4.34,-4.34,-4.26,-0.70,-0.70,-0.69
186,3.59,4.31,3.60,4.32,-4.32,-4.26,-0.73,-0.72,-0.71
188,3.55,4.29,3.57,4.30,-4.30,-4.26,-0.75,-0.73,-0.73
190,3.54,4.29,3.54,4.29,-4.29,-4.26,-0.75,-0.75,-0.75
192,3.50,4.27,3.51,4.28,-4.28,-4.27,-0.78,-0.77,-0.77
194,3.50,4.29,3.49,4.27,-4.27,-4.27,-0.77,-0.79,-0.79
196,3.45,4.25,3.46,4.27,-4.27,-4.27,-0.81,-0.80,-0.80
198,3.45,4.27,3.45,4.26,-4.26,-4.27,-0.81,-0.82,-0.82
200,3.41,4.25,3.43,4.26,-4.26,-4.27,-0.85,-0.83,-0.83
202,3.41,4.26,3.41,4.26,-4.26,-4.27,-0.85,-0.85,-0.85
204,3.41,4.28,3.39,4.26,-4.26,-4.27,-0.84,-0.86,-0.86
206,3.36,4.24,3.38,4.25,-4.25,-4.27,-0.89,-0.88,-0.88
208,3.36,4.25,3.36,4.25,-4.25,-4.28,-0.89,-0.89,-0.89
210,3.36,4.27,3.35,4.25,-4.25,-4.28,-0.89,-0.90,-0.90
212,3.31,4.23,3.33,4.24,-4.24,-4.28,-0.93,-0.91,-0.91
214,3.31,4.24,3.31,4.24,-4.24,-4.28,-0.93,-0.93,-0.93
216,3.31,4.25,3.29,4.23,-4.23,-4.29,-0.92,-0.94,-0.94
218,3.27,4.22,3.27,4.23,-4.23,-4.29,-0.95,-0.95,-0.95
221,3.24,4.21,3.25,4.22,-4.22,-4.29,-0.97,-0.96,-0.97
223,3.22,4.20,3.23,4.21,-4.21,-4.29,-0.98,-0.97,-0.98
225,3.22,4.21,3.21,4.19,-4.19,-4.30,-0.97,-0.99,-0.99
227,3.17,4.17,3.18,4.18,-4.18,-4.30,-1.01,-1.00,-1.00
229,3.17,4.18,3.16,4.16,-4.16,-4.30,-0.99,-1.01,-1.01
232,3.13,4.15,3.13,4.15,-4.15,-4.30,-1.01,-1.02,-1.02
234,3.11,4.14,3.11,4.13,-4.13,-4.30,-1.02,-1.03,-1.03
236,3.08,4.12,3.08,4.12,-4.12,-4.31,-1.04,-1.04,-1.04
239,3.04,4.09,3.06,4.11,-4.11,-4.31,-1.07,-1.05,-1.05
241,3.03,4.09,3.05,4.11,-4.11,-4.31,-1.07,-1.06,-1.06
244,3.03,4.10,3.04,4.10,-4.10,-4.31,-1.07,-1.07,-1.07
246,3.03,4.11,3.03,4.11,-4.11,-4.31,-1.07,-1.07,-1.07
248,3.03,4.11,3.03,4.11,-4.11,-4.31,-1.08,-1.08,-1.08
251,3.03,4.12,3.03,4.12,-4.12,-4.31,-1.09,-1.09,-1.09
253,3.03,4.13,3.03,4.13,-4.13,-4.31,-1.09,-1.10,-1.10
256,3.03,4.14,3.03,4.14,-4.14,-4.31,-1.10,-1.11,-1.11
259,3.03,4.15,3.03,4.15,-4.15,-4.31,-1.11,-1.11,-1.12
261,3.03,4.15,3.03,4.15,-4.15,-4.31,-1.12,-1.12,-1.12
264,3.03,4.16,3.03,4.16,-4.16,-4.31,-1.13,-1.13,-1.13
266,3.03,4.17,3.03,4.17,-4.17,-4.31,-1.14,-1.14,-1.14
269,3.03,4.18,3.04,4.18,-4.18,-4.30,-1.15,-1.14,-1.14
272,3.03,4.18,3.04,4.19,-4.19,-4.30,-1.16,-1.15,-1.15
274,3.03,4.19,3.04,4.20,-4.20,-4.30,-1.17,-1.16,-1.16
277,3.03,4.20,3.04,4.21,-4.21,-4.29,-1.17,-1.16,-1.16
280,3.06,4.23,3.04,4.21,-4.21,-4.28,-1.15,-1.17,-1.17
283,3.06,4.24,3.04,4.22,-4.22,-4.28,-1.16,-1.18,-1.18
286,3.03,4.21,3.04,4.22,-4.22,-4.27,-1.19,-1.18,-1.18
288,3.03,4.22,3.03,4.22,-4.22,-4.26,-1.19,-1.19,-1.19
291,3.03,4.22,3.03,4.22,-4.22,-4.25,-1.19,-1.19,-1.19
294,3.01,4.21,3.02,4.21,-4.21,-4.24,-1.20,-1.20,-1.20
297,2.99,4.20,3.00,4.20,-4.20,-4.23,-1.21,-1.20,-1.20
300,2.99,4.20,2.99,4.19,-4.19,-4.22,-1.20,-1.21,-1.21
303,2.96,4.18,2.97,4.18,-4.18,-4.20,-1.22,-1.21,-1.21
306,2.94,4.16,2.95,4.17,-4.17,-4.19,-1.23,-1.22,-1.22
309,2.94,4.16,2.93,4.15,-4.15,-4.17,-1.21,-1.22,-1.22
312,2.92,4.15,2.91,4.14,-4.14,-4.16,-1.21,-1.23,-1.23
316,2.89,4.12,2.89,4.12,-4.12,-4.14,-1.22,-1.23,-1.23
319,2.85,4.09,2.86,4.10,-4.10,-4.12,-1.24,-1.24,-1.24
322,2.83,4.07,2.83,4.07,-4.07,-4.10,-1.24,-1.24,-1.24
325,2.80,4.05,2.81,4.05,-4.05,-4.08,-1.25,-1.24,-1.24
328,2.77,4.02,2.78,4.03,-4.03,-4.06,-1.25,-1.25,-1.25
332,2.75,4.00,2.75,4.00,-4.00,-4.03,-1.25,-1.25,-1.25
335,2.71,3.97,2.73,3.98,-3.98,-4.01,-1.27,-1.25,-1.25
338,2.71,3.97,2.70,3.96,-3.96,-3.99,-1.24,-1.26,-1.26
342,2.66,3.93,2.67,3.93,-3.93,-3.96,-1.27,-1.26,-1.26
345,2.64,3.91,2.64,3.90,-3.90,-3.94,-1.26,-1.27,-1.27
349,2.61,3.88,2.61,3.88,-3.88,-3.91,-1.26,-1.27,-1.27
352,2.57,3.84,2.57,3.85,-3.85,-3.88,-1.27,-1.27,-1.27
356,2.53,3.81,2.54,3.81,-3.81,-3.85,-1.28,-1.27,-1.28
359,2.51,3.79,2.50,3.78,-3.78,-3.82,-1.27,-1.28,-1.28
363,2.45,3.73,2.46,3.74,-3.74,-3.79,-1.29,-1.28,-1.28
366,2.43,3.72,2.42,3.71,-3.71,-3.76,-1.27,-1.28,-1.28
370,2.38,3.67,2.38,3.67,-3.67,-3.73,-1.29,-1.29,-1.29
374,2.33,3.62,2.35,3.63,-3.63,-3.69,-1.30,-1.29,-1.29
377,2.31,3.60,2.31,3.60,-3.60,-3.66,-1.28,-1.29,-1.29
381,2.27,3.57,2.27,3.56,-3.56,-3.63,-1.29,-1.29,-1.29
385,2.22,3.52,2.23,3.53,-3.53,-3.59,-1.30,-1.30,-1.30
389,2.19,3.49,2.19,3.49,-3.49,-3.55,-1.30,-1.30,-1.30
393,2.15,3.46,2.16,3.46,-3.46,-3.51,-1.31,-1.30,-1.30
397,2.12,3.43,2.12,3.43,-3.43,-3.48,-1.31,-1.31,-1.31
401,2.09,3.40,2.09,3.40,-3.40,-3.44,-1.31,-1.31,-1.31
405,2.06,3.37,2.06,3.37,-3.37,-3.40,-1.31,-1.31,-1.31
409,2.01,3.33,2.03,3.34,-3.34,-3.36,-1.32,-1.31,-1.31
413,2.00,3.32,1.99,3.31,-3.31,-3.32,-1.30,-1.31,-1.31
417,1.96,3.28,1.96,3.27,-3.27,-3.29,-1.31,-1.32,-1.32
421,1.92,3.24,1.92,3.24,-3.24,-3.25,-1.32,-1.32,-1.32
425,1.89,3.21,1.89,3.21,-3.21,-3.21,-1.32,-1.32,-1.32
430,1.85,3.18,1.85,3.18,-3.18,-3.16,-1.32,-1.32,-1.32
434,1.82,3.15,1.82,3.14,-3.14,-3.12,-1.32,-1.32,-1.32
438,1.78,3.11,1.79,3.11,-3.11,-3.09,-1.33,-1.33,-1.33
443,1.73,3.06,1.76,3.08,-3.08,-3.04,-1.35,-1.33,-1.33
447,1.73,3.06,1.73,3.06,-3.06,-3.00,-1.33,-1.33,-1.33
451,1.68,3.01,1.71,3.03,-3.03,-2.96,-1.35,-1.33,-1.33
456,1.68,3.01,1.68,3.01,-3.01,-2.92,-1.32,-1.33,-1.33
460,1.68,3.01,1.65,2.98,-2.98,-2.88,-1.30,-1.33,-1.33
465,1.63,2.96,1.63,2.95,-2.95,-2.84,-1.32,-1.33,-1.33
470,1.60,2.93,1.59,2.92,-2.92,-2.79,-1.31,-1.32,-1.32
474,1.55,2.88,1.56,2.88,-2.88,-2.75,-1.33,-1.32,-1.32
479,1.52,2.84,1.52,2.84,-2.84,-2.71,-1.31,-1.32,-1.32
484,1.47,2.79,1.47,2.79,-2.79,-2.67,-1.32,-1.32,-1.32
489,1.43,2.75,1.43,2.74,-2.74,-2.62,-1.31,-1.31,-1.32
494,1.37,2.68,1.38,2.69,-2.69,-2.58,-1.32,-1.31,-1.31
499,1.33,2.64,1.34,2.65,-2.65,-2.54,-1.31,-1.31,-1.31
504,1.28,2.59,1.30,2.60,-2.60,-2.50,-1.32,-1.30,-1.30
509,1.25,2.55,1.26,2.56,-2.56,-2.45,-1.31,-1.30,-1.30
514,1.22,2.52,1.22,2.52,-2.52,-2.41,-1.30,-1.30,-1.30
519,1.19,2.48,1.19,2.48,-2.48,-2.37,-1.29,-1.29,-1.29
524,1.16,2.45,1.16,2.44,-2.44,-2.33,-1.28,-1.29,-1.29
529,1.12,2.40,1.13,2.41,-2.41,-2.29,-1.28,-1.28,-1.28
535,1.08,2.36,1.09,2.37,-2.37,-2.24,-1.29,-1.28,-1.28
540,1.07,2.34,1.06,2.33,-2.33,-2.20,-1.26,-1.27,-1.27
545,1.03,2.30,1.02,2.29,-2.29,-2.17,-1.25,-1.26,-1.26
551,0.98,2.24,0.99,2.24,-2.24,-2.12,-1.26,-1.26,-1.26
556,0.95,2.21,0.94,2.20,-2.20,-2.08,-1.24,-1.25,-1.25
562,0.90,2.15,0.90,2.15,-2.15,-2.04,-1.24,-1.25,-1.25
568,0.84,2.08,0.85,2.09,-2.09,-1.99,-1.25,-1.24,-1.24
573,0.81,2.05,0.81,2.04,-2.04,-1.96,-1.23,-1.23,-1.23
579,0.76,1.99,0.76,1.99,-1.99,-1.91,-1.22,-1.23,-1.23
585,0.70,1.92,0.71,1.93,-1.93,-1.87,-1.23,-1.22,-1.22
591,0.66,1.88,0.66,1.87,-1.87,-1.83,-1.21,-1.21,-1.21
596,0.62,1.83,0.62,1.82,-1.82,-1.79,-1.20,-1.20,-1.20
602,0.57,1.77,0.57,1.77,-1.77,-1.75,-1.19,-1.20,-1.20
608,0.54,1.73,0.53,1.72,-1.72,-1.71,-1.17,-1.19,-1.19
615,0.47,1.65,0.50,1.67,-1.67,-1.66,-1.20,-1.18,-1.18
621,0.44,1.61,0.46,1.63,-1.63,-1.62,-1.19,-1.16,-1.16
627,0.42,1.58,0.44,1.59,-1.59,-1.58,-1.17,-1.15,-1.15
633,0.42,1.56,0.42,1.56,-1.56,-1.54,-1.13,-1.14,-1.14
639,0.40,1.53,0.40,1.52,-1.52,-1.50,-1.12,-1.13,-1.13
646,0.38,1.49,0.38,1.49,-1.49,-1.45,-1.11,-1.11,-1.11
652,0.38,1.48,0.36,1.45,-1.45,-1.41,-1.07,-1.10,-1.10
659,0.33,1.41,0.34,1.42,-1.42,-1.37,-1.09,-1.08,-1.08
665,0.33,1.39,0.32,1.38,-1.38,-1.33,-1.05,-1.06,-1.06
672,0.28,1.32,0.30,1.34,-1.34,-1.29,-1.06,-1.04,-1.04
679,0.28,1.30,0.28,1.30,-1.30,-1.24,-1.02,-1.02,-1.02
686,0.24,1.24,0.26,1.26,-1.26,-1.20,-1.02,-1.00,-1.00
692,0.24,1.22,0.24,1.21,-1.21,-1.16,-0.97,-0.98,-0.98
699,0.22,1.18,0.21,1.16,-1.16,-1.11,-0.94,-0.96,-0.96
706,0.19,1.12,0.18,1.11,-1.11,-1.07,-0.92,-0.93,-0.93
713,0.15,1.06,0.15,1.05,-1.05,-1.02,-0.90,-0.91,-0.91
721,0.12,1.01,0.11,0.99,-0.99,-0.97,-0.87,-0.88,-0.88
728,0.06,0.92,0.07,0.93,-0.93,-0.93,-0.87,-0.86,-0.86
735,0.04,0.87,0.03,0.87,-0.87,-0.89,-0.82,-0.83,-0.83
742,-0.02,0.79,-0.00,0.80,-0.80,-0.85,-0.82,-0.80,-0.80
750,-0.05,0.73,-0.04,0.74,-0.74,-0.80,-0.78,-0.78,-0.78
757,-0.08,0.67,-0.07,0.68,-0.68,-0.75,-0.75,-0.75,-0.75
765,-0.09,0.63,-0.10,0.62,-0.62,-0.71,-0.71,-0.72,-0.72
773,-0.14,0.56,-0.12,0.57,-0.57,-0.66,-0.71,-0.69,-0.69
780,-0.15,0.52,-0.14,0.52,-0.52,-0.62,-0.67,-0.67,-0.67
788,-0.18,0.46,-0.16,0.48,-0.48,-0.57,-0.65,-0.64,-0.64
796,-0.18,0.43,-0.18,0.43,-0.43,-0.53,-0.61,-0.61,-0.61
804,-0.18,0.40,-0.19,0.39,-0.39,-0.48,-0.57,-0.58,-0.58
812,-0.18,0.38,-0.20,0.36,-0.36,-0.44,-0.53,-0.55,-0.55
820,-0.19,0.34,-0.21,0.32,-0.32,-0.40,-0.51,-0.53,-0.53
828,-0.22,0.28,-0.21,0.29,-0.29,-0.36,-0.50,-0.50,-0.50
837,-0.23,0.24,-0.22,0.25,-0.25,-0.31,-0.48,-0.47,-0.47
845,-0.23,0.22,-0.22,0.23,-0.23,-0.27,-0.45,-0.44,-0.44
853,-0.23,0.19,-0.21,0.20,-0.20,-0.24,-0.43,-0.42,-0.42
862,-0.23,0.16,-0.20,0.18,-0.18,-0.20,-0.41,-0.39,-0.39
871,-0.18,0.18,-0.19,0.17,-0.17,-0.16,-0.35,-0.36,-0.36
879,-0.18,0.16,-0.18,0.16,-0.16,-0.13,-0.33,-0.33,-0.33
888,-0.16,0.15,-0.16,0.15,-0.15,-0.10,-0.30,-0.31,-0.31
897,-0.14,0.14,-0.14,0.14,-0.14,-0.07,-0.27,-0.28,-0.28
906,-0.14,0.12,-0.13,0.13,-0.13,-0.04,-0.26,-0.25,-0.25
915,-0.09,0.14,-0.11,0.11,-0.11,-0.02,-0.20,-0.23,-0.23
924,-0.09,0.11,-0.10,0.10,-0.10,-0.00,-0.19,-0.20,-0.20
933,-0.09,0.09,-0.09,0.08,-0.08,0.01,-0.17,-0.17,-0.17
943,-0.09,0.06,-0.08,0.06,-0.06,0.03,-0.15,-0.15,-0.15
952,-0.09,0.03,-0.08,0.04,-0.04,0.04,-0.13,-0.12,-0.12
962,-0.09,0.01,-0.07,0.03,-0.03,0.04,-0.12,-0.10,-0.10
971,-0.04,0.03,-0.05,0.01,-0.01,0.05,-0.05,-0.07,-0.07
981,-0.04,0.01,-0.04,0.01,-0.01,0.05,-0.04,-0.04,-0.04
991,-0.03,-0.01,-0.02,0.00,-0.00,0.04,-0.03,-0.02,-0.02
1001,0.00,-0.01,0.01,0.00,-0.00,0.04,0.00,0.01,0.01
1011,0.04,0.01,0.04,0.01,-0.01,0.02,0.03,0.03,0.03
1021,0.07,0.01,0.08,0.02,-0.02,0.01,0.05,0.06,0.06
1031,0.12,0.04,0.12,0.03,-0.03,-0.01,0.09,0.09,0.09
1041,0.15,0.04,0.17,0.05,-0.05,-0.02,0.10,0.11,0.11
1052,0.21,0.07,0.21,0.07,-0.07,-0.05,0.14,0.14,0.14
1062,0.26,0.10,0.26,0.09,-0.09,-0.07,0.17,0.17,0.17
1073,0.32,0.13,0.30,0.11,-0.11,-0.10,0.21,0.19,0.19
1084,0.35,0.13,0.35,0.13,-0.13,-0.13,0.23,0.22,0.22
1094,0.40,0.16,0.39,0.14,-0.14,-0.15,0.26,0.25,0.25
1105,0.43,0.16,0.43,0.16,-0.16,-0.18,0.27,0.27,0.27
1116,0.47,0.17,0.48,0.17,-0.17,-0.22,0.30,0.30,0.30
1128,0.50,0.17,0.52,0.19,-0.19,-0.25,0.31,0.33,0.33
1139,0.56,0.20,0.57,0.21,-0.21,-0.28,0.35,0.36,0.36
1150,0.62,0.24,0.62,0.23,-0.23,-0.31,0.39,0.39,0.39
1162,0.68,0.27,0.67,0.26,-0.26,-0.35,0.43,0.42,0.42
1173,0.73,0.29,0.73,0.29,-0.29,-0.38,0.45,0.45,0.45
1185,0.77,0.30,0.79,0.32,-0.32,-0.41,0.46,0.48,0.48
1197,0.84,0.33,0.86,0.35,-0.35,-0.44,0.49,0.51,0.51
1209,0.92,0.38,0.93,0.39,-0.39,-0.47,0.54,0.54,0.54
1221,1.00,0.43,1.00,0.42,-0.42,-0.50,0.58,0.57,0.57
1233,1.08,0.48,1.06,0.46,-0.46,-0.53,0.63,0.61,0.61
1246,1.15,0.51,1.13,0.49,-0.49,-0.55,0.66,0.64,0.64
1258,1.19,0.52,1.19,0.52,-0.52,-0.58,0.68,0.68,0.68
1271,1.25,0.54,1.26,0.54,-0.54,-0.60,0.71,0.71,0.71
1283,1.30,0.55,1.32,0.57,-0.57,-0.62,0.74,0.75,0.75
1296,1.38,0.59,1.38,0.59,-0.59,-0.64,0.80,0.79,0.79
1309,1.43,0.60,1.44,0.60,-0.60,-0.65,0.83,0.83,0.83
1322,1.49,0.62,1.50,0.62,-0.62,-0.67,0.87,0.88,0.88
1335,1.55,0.63,1.56,0.64,-0.64,-0.68,0.92,0.92,0.92
1349,1.62,0.66,1.62,0.65,-0.65,-0.69,0.97,0.97,0.97
1362,1.68,0.67,1.68,0.66,-0.66,-0.70,1.02,1.01,1.01
1376,1.74,0.68,1.74,0.68,-0.68,-0.70,1.07,1.07,1.07
1390,1.80,0.68,1.81,0.69,-0.69,-0.70,1.11,1.12,1.12
1404,1.87,0.70,1.87,0.70,-0.70,-0.70,1.18,1.17,1.17
1418,1.93,0.70,1.94,0.71,-0.71,-0.70,1.23,1.23,1.23
1432,1.99,0.70,2.00,0.71,-0.71,-0.70,1.28,1.29,1.29
1446,2.07,0.72,2.07,0.72,-0.72,-0.69,1.35,1.35,1.35
1461,2.14,0.72,2.14,0.72,-0.72,-0.68,1.42,1.42,1.42
1475,2.20,0.71,2.21,0.72,-0.72,-0.67,1.49,1.49,1.49
1490,2.28,0.72,2.27,0.71,-0.71,-0.65,1.57,1.56,1.56
1505,2.35,0.72,2.34,0.70,-0.70,-0.64,1.65,1.64,1.64
1520,2.40,0.69,2.40,0.68,-0.68,-0.62,1.72,1.71,1.71
1535,2.45,0.66,2.46,0.66,-0.66,-0.59,1.79,1.80,1.80
1550,2.50,0.62,2.52,0.63,-0.63,-0.57,1.87,1.88,1.88
1566,2.57,0.60,2.57,0.60,-0.60,-0.54,1.97,1.97,1.97
1582,2.64,0.58,2.63,0.57,-0.57,-0.51,2.07,2.06,2.06
1597,2.68,0.53,2.69,0.54,-0.54,-0.48,2.15,2.15,2.15
1613,2.73,0.48,2.75,0.50,-0.50,-0.44,2.23,2.25,2.25
1629,2.79,0.44,2.81,0.46,-0.46,-0.40,2.33,2.35,2.35
1646,2.86,0.41,2.87,0.42,-0.42,-0.36,2.45,2.45,2.45
1662,2.92,0.37,2.93,0.37,-0.37,-0.32,2.55,2.55,2.55
1679,2.98,0.32,2.98,0.32,-0.32,-0.27,2.66,2.66,2.66
1696,3.05,0.28,3.03,0.26,-0.26,-0.22,2.79,2.77,2.77
1713,3.09,0.21,3.08,0.20,-0.20,-0.16,2.89,2.88,2.88
1730,3.14,0.15,3.12,0.13,-0.13,-0.11,3.01,2.99,2.99
1747,3.17,0.07,3.16,0.05,-0.05,-0.05,3.12,3.10,3.10
1764,3.17,-0.04,3.19,-0.03,0.03,0.01,3.20,3.21,3.21
1782,3.17,-0.15,3.21,-0.11,0.11,0.08,3.29,3.33,3.33
1800,3.22,-0.22,3.24,-0.20,0.20,0.15,3.42,3.44,3.44
1818,3.25,-0.30,3.26,-0.29,0.29,0.22,3.55,3.55,3.55
1836,3.30,-0.36,3.28,-0.39,0.39,0.30,3.69,3.67,3.67
1854,3.31,-0.46,3.29,-0.49,0.49,0.38,3.80,3.78,3.78
1873,3.31,-0.58,3.30,-0.59,0.59,0.46,3.90,3.89,3.89
1892,3.31,-0.69,3.31,-0.69,0.69,0.55,4.00,4.00,4.00
1911,3.31,-0.79,3.31,-0.79,0.79,0.65,4.11,4.11,4.11
