frequency,raw,error,smoothed,error_smoothed,equalization,parametric_eq,equalized_raw,equalized_smoothed,target
20,-8.51,-11.85,-8.52,-11.86,6.00,2.85,-2.51,-2.52,3.34
21,-8.21,-11.55,-8.20,-11.54,6.00,3.26,-2.21,-2.20,3.34
22,-7.90,-11.24,-7.89,-11.23,6.00,3.72,-1.90,-1.89,3.34
23,-7.59,-10.92,-7.58,-10.92,6.00,4.21,-1.59,-1.58,3.34
24,-7.28,-10.61,-7.27,-10.61,6.00,4.73,-1.28,-1.27,3.33
25,-6.98,-10.31,-6.97,-10.30,6.00,5.26,-0.98,-0.97,3.33
26,-6.68,-10.00,-6.67,-10.00,6.00,5.80,-0.68,-0.67,3.33
27,-6.40,-9.72,-6.37,-9.70,6.00,6.32,-0.40,-0.37,3.32
28,-6.09,-9.41,-6.08,-9.40,6.00,6.78,-0.09,-0.08,3.32
29,-5.82,-9.13,-5.80,-9.12,6.00,7.15,0.18,0.20,3.32
30,-5.49,-8.80,-5.54,-8.85,6.00,7.42,0.51,0.46,3.31
31,-5.24,-8.54,-5.29,-8.59,6.00,7.55,0.76,0.71,3.31
32,-5.07,-8.37,-5.05,-8.35,6.00,7.57,0.93,0.95,3.30
33,-4.83,-8.12,-4.83,-8.12,6.00,7.47,1.17,1.17,3.29
34,-4.62,-7.90,-4.62,-7.91,6.00,7.29,1.38,1.38,3.29
35,-4.43,-7.71,-4.43,-7.71,6.00,7.05,1.57,1.57,3.28
36,-4.26,-7.53,-4.24,-7.51,6.00,6.79,1.74,1.76,3.27
37,-4.08,-7.34,-4.07,-7.33,6.00,6.51,1.92,1.93,3.26
38,-3.92,-7.17,-3.90,-7.16,6.00,6.25,2.08,2.10,3.25
39,-3.73,-6.97,-3.74,-6.99,6.00,5.99,2.27,2.26,3.24
40,-3.60,-6.83,-3.59,-6.82,6.00,5.76,2.40,2.41,3.23
41,-3.44,-6.66,-3.44,-6.67,6.00,5.56,2.56,2.56,3.22
42,-3.31,-6.52,-3.31,-6.51,6.00,5.38,2.69,2.69,3.21
43,-3.19,-6.38,-3.17,-6.37,6.00,5.23,2.81,2.83,3.20
44,-3.04,-6.22,-3.05,-6.23,5.98,5.10,2.94,2.93,3.18
45,-2.92,-6.08,-2.93,-6.10,5.94,4.99,3.02,3.01,3.17
46,-2.82,-5.97,-2.82,-5.97,5.88,4.91,3.07,3.06,3.15
47,-2.74,-5.87,-2.71,-5.85,5.81,4.84,3.07,3.09,3.14
48,-2.61,-5.73,-2.61,-5.73,5.72,4.80,3.11,3.11,3.12
49,-2.49,-5.59,-2.52,-5.62,5.62,4.76,3.13,3.10,3.10
50,-2.47,-5.55,-2.42,-5.51,5.51,4.74,3.04,3.08,3.08
51,-2.34,-5.40,-2.33,-5.40,5.40,4.73,3.06,3.06,3.06
52,-2.22,-5.26,-2.25,-5.29,5.29,4.73,3.07,3.04,3.04
53,-2.20,-5.22,-2.16,-5.18,5.18,4.74,2.99,3.02,3.02
54,-2.05,-5.04,-2.08,-5.08,5.08,4.74,3.03,3.00,3.00
55,-2.02,-4.99,-2.00,-4.98,4.98,4.75,2.96,2.97,2.97
56,-1.91,-4.86,-1.92,-4.87,4.87,4.75,2.97,2.95,2.95
57,-1.87,-4.79,-1.84,-4.77,4.77,4.75,2.90,2.92,2.92
58,-1.77,-4.66,-1.77,-4.66,4.66,4.74,2.90,2.90,2.90
59,-1.69,-4.56,-1.69,-4.56,4.56,4.72,2.87,2.87,2.87
60,-1.62,-4.46,-1.60,-4.45,4.45,4.69,2.83,2.84,2.84
61,-1.50,-4.31,-1.52,-4.34,4.34,4.65,2.84,2.81,2.81
62,-1.48,-4.26,-1.44,-4.22,4.22,4.60,2.75,2.78,2.78
63,-1.36,-4.11,-1.36,-4.11,4.11,4.54,2.75,2.75,2.75
64,-1.26,-3.98,-1.28,-4.00,4.00,4.47,2.74,2.72,2.72
65,-1.20,-3.89,-1.20,-3.89,3.89,4.39,2.69,2.69,2.69
66,-1.13,-3.78,-1.12,-3.78,3.78,4.30,2.65,2.66,2.66
67,-1.03,-3.65,-1.05,-3.67,3.67,4.20,2.65,2.62,2.62
68,-1.02,-3.60,-0.98,-3.57,3.57,4.09,2.55,2.59,2.59
69,-0.91,-3.46,-0.92,-3.47,3.47,3.98,2.56,2.55,2.55
70,-0.83,-3.34,-0.86,-3.38,3.38,3.86,2.55,2.52,2.52
71,-0.84,-3.32,-0.81,-3.29,3.29,3.75,2.45,2.48,2.48
72,-0.72,-3.16,-0.75,-3.20,3.20,3.62,2.48,2.44,2.44
73,-0.73,-3.13,-0.70,-3.11,3.11,3.50,2.38,2.41,2.41
74,-0.65,-3.01,-0.66,-3.02,3.02,3.38,2.38,2.37,2.37
75,-0.65,-2.97,-0.61,-2.94,2.94,3.26,2.29,2.33,2.33
76,-0.58,-2.87,-0.57,-2.86,2.86,3.14,2.28,2.29,2.29
77,-0.50,-2.75,-0.52,-2.77,2.77,3.02,2.28,2.25,2.25
78,-0.49,-2.70,-0.48,-2.69,2.69,2.90,2.20,2.21,2.21
79,-0.43,-2.60,-0.44,-2.61,2.61,2.79,2.18,2.17,2.17
80,-0.41,-2.53,-0.40,-2.53,2.53,2.68,2.12,2.13,2.13
81,-0.36,-2.44,-0.36,-2.45,2.45,2.57,2.09,2.09,2.09
82,-0.33,-2.37,-0.32,-2.37,2.37,2.46,2.04,2.05,2.05
83,-0.30,-2.30,-0.29,-2.29,2.29,2.36,2.00,2.00,2.00
84,-0.26,-2.22,-0.26,-2.22,2.22,2.26,1.96,1.96,1.96
85,-0.24,-2.16,-0.23,-2.15,2.15,2.17,1.91,1.92,1.92
86,-0.17,-2.05,-0.20,-2.08,2.08,2.07,1.91,1.88,1.88
87,-0.19,-2.03,-0.17,-2.01,2.01,1.98,1.82,1.84,1.84
88,-0.16,-1.95,-0.15,-1.94,1.94,1.89,1.79,1.80,1.80
89,-0.14,-1.89,-0.13,-1.88,1.88,1.81,1.74,1.75,1.75
90,-0.08,-1.79,-0.11,-1.82,1.82,1.72,1.74,1.71,1.71
91,-0.09,-1.76,-0.09,-1.76,1.76,1.64,1.67,1.67,1.67
92,-0.09,-1.72,-0.07,-1.70,1.70,1.57,1.62,1.63,1.63
93,-0.05,-1.64,-0.06,-1.65,1.65,1.49,1.60,1.59,1.59
94,-0.06,-1.61,-0.04,-1.59,1.59,1.42,1.54,1.55,1.55
95,-0.04,-1.55,-0.03,-1.54,1.54,1.35,1.51,1.51,1.51
96,-0.01,-1.48,-0.02,-1.49,1.49,1.28,1.48,1.47,1.47
97,0.01,-1.42,-0.01,-1.44,1.44,1.21,1.45,1.43,1.43
98,0.00,-1.39,0.00,-1.39,1.39,1.15,1.39,1.39,1.39
99,-0.01,-1.36,0.02,-1.33,1.33,1.08,1.32,1.35,1.35
100,0.04,-1.27,0.03,-1.27,1.27,1.02,1.32,1.31,1.31
101,0.02,-1.25,0.05,-1.21,1.21,0.97,1.24,1.26,1.27
102,0.03,-1.20,0.07,-1.15,1.15,0.91,1.18,1.22,1.24
104,0.13,-1.03,0.09,-1.09,1.09,0.80,1.22,1.18,1.16
105,0.13,-0.99,0.10,-1.03,1.03,0.75,1.16,1.14,1.13
106,0.12,-0.97,0.12,-0.98,0.98,0.70,1.10,1.10,1.09
107,0.12,-0.93,0.13,-0.93,0.93,0.65,1.05,1.06,1.05
108,0.14,-0.88,0.14,-0.88,0.88,0.60,1.02,1.02,1.02
109,0.14,-0.84,0.15,-0.83,0.83,0.56,0.98,0.98,0.98
110,0.15,-0.80,0.16,-0.79,0.79,0.52,0.95,0.95,0.95
111,0.17,-0.74,0.17,-0.75,0.75,0.48,0.92,0.92,0.92
112,0.18,-0.70,0.17,-0.71,0.71,0.44,0.89,0.88,0.88
113,0.17,-0.68,0.18,-0.67,0.67,0.40,0.84,0.85,0.85
114,0.16,-0.66,0.19,-0.62,0.62,0.36,0.78,0.81,0.82
115,0.21,-0.58,0.20,-0.57,0.57,0.33,0.79,0.78,0.79
117,0.21,-0.52,0.22,-0.53,0.53,0.26,0.74,0.74,0.73
118,0.26,-0.44,0.23,-0.48,0.48,0.24,0.75,0.71,0.70
119,0.24,-0.43,0.23,-0.44,0.44,0.21,0.68,0.67,0.67
120,0.22,-0.42,0.24,-0.40,0.40,0.18,0.62,0.64,0.64
121,0.24,-0.37,0.25,-0.36,0.36,0.16,0.60,0.60,0.62
123,0.26,-0.30,0.26,-0.32,0.32,0.11,0.58,0.57,0.56
124,0.25,-0.28,0.26,-0.28,0.28,0.09,0.53,0.54,0.54
125,0.26,-0.25,0.27,-0.24,0.24,0.07,0.50,0.51,0.51
126,0.27,-0.21,0.27,-0.20,0.20,0.06,0.47,0.48,0.48
128,0.28,-0.15,0.28,-0.16,0.16,0.03,0.45,0.45,0.44
129,0.29,-0.12,0.29,-0.13,0.13,0.01,0.42,0.42,0.41
130,0.30,-0.09,0.29,-0.09,0.09,0.00,0.40,0.39,0.39
131,0.27,-0.09,0.30,-0.06,0.06,-0.01,0.34,0.36,0.37
133,0.31,-0.01,0.30,-0.03,0.03,-0.03,0.34,0.33,0.32
134,0.31,0.01,0.30,-0.00,0.00,-0.03,0.32,0.30,0.30
135,0.29,0.01,0.30,0.02,-0.02,-0.04,0.27,0.27,0.28
137,0.28,0.04,0.30,0.05,-0.05,-0.05,0.23,0.25,0.24
138,0.30,0.08,0.30,0.08,-0.08,-0.06,0.23,0.22,0.22
140,0.31,0.13,0.29,0.10,-0.10,-0.06,0.21,0.19,0.19
141,0.27,0.11,0.29,0.13,-0.13,-0.06,0.15,0.17,0.17
142,0.26,0.11,0.29,0.15,-0.15,-0.07,0.11,0.14,0.15
144,0.33,0.22,0.30,0.18,-0.18,-0.07,0.16,0.12,0.12
145,0.29,0.19,0.30,0.20,-0.20,-0.07,0.09,0.10,0.10
147,0.28,0.21,0.30,0.23,-0.23,-0.07,0.06,0.07,0.07
148,0.30,0.25,0.30,0.25,-0.25,-0.06,0.05,0.05,0.05
150,0.33,0.31,0.30,0.27,-0.27,-0.06,0.06,0.03,0.02
151,0.29,0.28,0.30,0.29,-0.29,-0.06,-0.00,0.01,0.01
153,0.27,0.29,0.30,0.31,-0.31,-0.06,-0.04,-0.01,-0.02
154,0.29,0.32,0.29,0.33,-0.33,-0.05,-0.03,-0.03,-0.03
156,0.32,0.38,0.29,0.34,-0.34,-0.05,-0.02,-0.05,-0.06
157,0.28,0.35,0.28,0.35,-0.35,-0.05,-0.07,-0.07,-0.07
159,0.24,0.34,0.27,0.36,-0.36,-0.04,-0.12,-0.09,-0.09
160,0.23,0.34,0.26,0.37,-0.37,-0.04,-0.13,-0.11,-0.10
162,0.26,0.39,0.25,0.37,-0.37,-0.03,-0.11,-0.13,-0.13
164,0.26,0.41,0.24,0.38,-0.38,-0.03,-0.12,-0.14,-0.15
165,0.23,0.39,0.23,0.39,-0.39,-0.02,-0.15,-0.16,-0.16
167,0.19,0.37,0.21,0.39,-0.39,-0.02,-0.20,-0.18,-0.18
169,0.18,0.38,0.20,0.39,-0.39,-0.01,-0.21,-0.19,-0.20
170,0.19,0.40,0.19,0.40,-0.40,-0.01,-0.20,-0.21,-0.20
172,0.19,0.42,0.18,0.40,-0.40,-0.01,-0.21,-0.22,-0.22
174,0.17,0.41,0.16,0.40,-0.40,-0.00,-0.23,-0.24,-0.24
175,0.16,0.41,0.15,0.40,-0.40,0.00,-0.24,-0.25,-0.25
177,0.12,0.39,0.13,0.40,-0.40,0.01,-0.27,-0.26,-0.26
179,0.09,0.37,0.12,0.39,-0.39,0.01,-0.30,-0.28,-0.28
181,0.09,0.38,0.10,0.39,-0.39,0.02,-0.30,-0.29,-0.29
183,0.09,0.40,0.09,0.39,-0.39,0.02,-0.30,-0.30,-0.30
184,0.07,0.38,0.07,0.39,-0.39,0.02,-0.31,-0.31,-0.31
186,0.06,0.39,0.05,0.38,-0.38,0.03,-0.32,-0.33,-0.32
188,0.04,0.38,0.03,0.37,-0.37,0.03,-0.33,-0.34,-0.34
190,0.01,0.36,0.01,0.36,-0.36,0.04,-0.35,-0.35,-0.35
192,-0.01,0.35,-0.01,0.35,-0.35,0.04,-0.35,-0.36,-0.36
194,-0.04,0.33,-0.04,0.33,-0.33,0.04,-0.37,-0.37,-0.37
196,-0.07,0.31,-0.07,0.31,-0.31,0.05,-0.38,-0.38,-0.38
198,-0.10,0.29,-0.09,0.30,-0.30,0.05,-0.39,-0.39,-0.39
200,-0.13,0.27,-0.12,0.28,-0.28,0.05,-0.40,-0.40,-0.40
202,-0.16,0.25,-0.15,0.26,-0.26,0.06,-0.41,-0.41,-0.41
204,-0.19,0.23,-0.18,0.23,-0.23,0.06,-0.42,-0.42,-0.42
206,-0.21,0.22,-0.21,0.21,-0.21,0.06,-0.42,-0.42,-0.42
208,-0.24,0.19,-0.24,0.19,-0.19,0.06,-0.43,-0.43,-0.43
210,-0.28,0.16,-0.27,0.17,-0.17,0.07,-0.44,-0.44,-0.44
212,-0.30,0.15,-0.31,0.14,-0.14,0.07,-0.44,-0.45,-0.45
214,-0.32,0.14,-0.34,0.11,-0.11,0.07,-0.43,-0.45,-0.45
216,-0.37,0.09,-0.37,0.09,-0.09,0.07,-0.45,-0.46,-0.46
218,-0.42,0.05,-0.40,0.06,-0.06,0.08,-0.48,-0.47,-0.47
221,-0.47,0.01,-0.43,0.04,-0.04,0.08,-0.51,-0.47,-0.47
223,-0.48,0.00,-0.46,0.02,-0.02,0.08,-0.50,-0.48,-0.48
225,-0.50,-0.01,-0.49,-0.00,0.00,0.08,-0.49,-0.49,-0.49
227,-0.51,-0.02,-0.51,-0.02,0.02,0.09,-0.48,-0.49,-0.49
229,-0.52,-0.02,-0.54,-0.04,0.04,0.09,-0.47,-0.50,-0.50
232,-0.55,-0.04,-0.57,-0.07,0.07,0.09,-0.48,-0.50,-0.50
234,-0.58,-0.07,-0.60,-0.09,0.09,0.09,-0.48,-0.51,-0.51
236,-0.61,-0.09,-0.63,-0.12,0.12,0.10,-0.49,-0.51,-0.51
239,-0.72,-0.20,-0.66,-0.14,0.14,0.10,-0.57,-0.52,-0.52
241,-0.73,-0.20,-0.69,-0.17,0.17,0.10,-0.56,-0.52,-0.52
244,-0.73,-0.20,-0.72,-0.19,0.19,0.11,-0.54,-0.53,-0.53
246,-0.74,-0.21,-0.74,-0.21,0.21,0.11,-0.53,-0.53,-0.53
248,-0.74,-0.20,-0.76,-0.23,0.23,0.11,-0.51,-0.54,-0.54
251,-0.76,-0.22,-0.78,-0.24,0.24,0.11,-0.51,-0.54,-0.54
253,-0.81,-0.26,-0.80,-0.26,0.26,0.12,-0.55,-0.54,-0.54
256,-0.85,-0.30,-0.82,-0.27,0.27,0.12,-0.58,-0.55,-0.55
259,-0.85,-0.29,-0.83,-0.28,0.28,0.12,-0.57,-0.55,-0.55
261,-0.85,-0.29,-0.85,-0.29,0.29,0.13,-0.55,-0.56,-0.56
264,-0.85,-0.29,-0.86,-0.30,0.30,0.13,-0.54,-0.56,-0.56
266,-0.85,-0.29,-0.88,-0.32,0.32,0.13,-0.53,-0.56,-0.56
269,-0.92,-0.35,-0.90,-0.33,0.33,0.14,-0.59,-0.57,-0.57
272,-0.93,-0.36,-0.91,-0.34,0.34,0.14,-0.58,-0.57,-0.57
274,-0.93,-0.36,-0.93,-0.36,0.36,0.14,-0.57,-0.57,-0.57
277,-0.94,-0.36,-0.95,-0.38,0.38,0.15,-0.56,-0.57,-0.57
280,-0.95,-0.37,-0.97,-0.39,0.39,0.15,-0.56,-0.58,-0.58
283,-1.00,-0.42,-0.98,-0.40,0.40,0.16,-0.59,-0.58,-0.58
286,-1.02,-0.43,-1.00,-0.42,0.42,0.16,-0.60,-0.58,-0.58
288,-1.02,-0.43,-1.01,-0.43,0.43,0.16,-0.59,-0.58,-0.58
291,-1.03,-0.44,-1.03,-0.44,0.44,0.17,-0.59,-0.59,-0.59
294,-1.04,-0.45,-1.04,-0.45,0.45,0.17,-0.59,-0.59,-0.59
297,-1.04,-0.45,-1.04,-0.45,0.45,0.18,-0.59,-0.59,-0.59
300,-1.05,-0.45,-1.05,-0.46,0.46,0.18,-0.59,-0.59,-0.59
303,-1.05,-0.45,-1.05,-0.46,0.46,0.19,-0.59,-0.60,-0.60
306,-1.06,-0.46,-1.06,-0.46,0.46,0.19,-0.60,-0.60,-0.60
309,-1.06,-0.46,-1.06,-0.46,0.46,0.20,-0.60,-0.60,-0.60
312,-1.06,-0.46,-1.06,-0.46,0.46,0.20,-0.60,-0.60,-0.60
316,-1.07,-0.46,-1.06,-0.45,0.45,0.21,-0.61,-0.60,-0.60
319,-1.06,-0.45,-1.05,-0.45,0.45,0.22,-0.61,-0.60,-0.60
322,-1.04,-0.43,-1.05,-0.44,0.44,0.22,-0.60,-0.61,-0.61
325,-1.04,-0.43,-1.04,-0.43,0.43,0.23,-0.61,-0.61,-0.61
328,-1.04,-0.43,-1.03,-0.42,0.42,0.23,-0.61,-0.61,-0.61
332,-1.05,-0.44,-1.03,-0.42,0.42,0.24,-0.63,-0.61,-0.61
335,-1.02,-0.40,-1.02,-0.41,0.41,0.25,-0.61,-0.61,-0.61
338,-1.00,-0.38,-1.02,-0.41,0.41,0.25,-0.59,-0.61,-0.61
342,-1.00,-0.38,-1.02,-0.41,0.41,0.26,-0.59,-0.61,-0.61
345,-1.03,-0.41,-1.02,-0.41,0.41,0.27,-0.62,-0.62,-0.62
349,-1.04,-0.42,-1.03,-0.41,0.41,0.28,-0.62,-0.62,-0.62
352,-1.04,-0.42,-1.04,-0.42,0.42,0.28,-0.62,-0.62,-0.62
356,-1.05,-0.43,-1.05,-0.43,0.43,0.29,-0.62,-0.62,-0.62
359,-1.08,-0.46,-1.06,-0.44,0.44,0.30,-0.64,-0.62,-0.62
363,-1.08,-0.45,-1.07,-0.44,0.44,0.31,-0.63,-0.62,-0.62
366,-1.08,-0.45,-1.07,-0.45,0.45,0.31,-0.63,-0.62,-0.62
370,-1.08,-0.45,-1.08,-0.45,0.45,0.32,-0.62,-0.62,-0.62
374,-1.08,-0.45,-1.08,-0.46,0.46,0.33,-0.62,-0.63,-0.63
377,-1.08,-0.45,-1.09,-0.46,0.46,0.34,-0.61,-0.63,-0.63
381,-1.09,-0.46,-1.10,-0.47,0.47,0.35,-0.62,-0.63,-0.63
385,-1.12,-0.49,-1.10,-0.47,0.47,0.36,-0.65,-0.63,-0.63
389,-1.12,-0.49,-1.11,-0.48,0.48,0.37,-0.64,-0.63,-0.63
393,-1.12,-0.48,-1.12,-0.48,0.48,0.38,-0.63,-0.63,-0.63
397,-1.12,-0.48,-1.13,-0.49,0.49,0.39,-0.62,-0.63,-0.63
401,-1.12,-0.48,-1.14,-0.50,0.50,0.40,-0.62,-0.64,-0.64
405,-1.15,-0.51,-1.14,-0.51,0.51,0.41,-0.64,-0.64,-0.64
409,-1.16,-0.52,-1.15,-0.51,0.51,0.42,-0.65,-0.64,-0.64
413,-1.16,-0.52,-1.15,-0.51,0.51,0.43,-0.64,-0.64,-0.64
417,-1.17,-0.53,-1.15,-0.51,0.51,0.44,-0.65,-0.64,-0.64
421,-1.17,-0.53,-1.15,-0.51,0.51,0.45,-0.66,-0.64,-0.64
425,-1.13,-0.49,-1.15,-0.51,0.51,0.46,-0.62,-0.64,-0.64
430,-1.13,-0.49,-1.14,-0.50,0.50,0.47,-0.63,-0.64,-0.64
434,-1.13,-0.49,-1.13,-0.49,0.49,0.48,-0.63,-0.64,-0.64
438,-1.13,-0.49,-1.12,-0.48,0.48,0.49,-0.64,-0.63,-0.63
443,-1.13,-0.50,-1.11,-0.47,0.47,0.50,-0.65,-0.63,-0.63
447,-1.09,-0.46,-1.09,-0.47,0.47,0.51,-0.62,-0.63,-0.63
451,-1.07,-0.44,-1.08,-0.46,0.46,0.52,-0.61,-0.62,-0.62
456,-1.06,-0.44,-1.07,-0.45,0.45,0.53,-0.61,-0.62,-0.62
460,-1.06,-0.44,-1.06,-0.44,0.44,0.54,-0.61,-0.61,-0.61
465,-1.05,-0.44,-1.04,-0.44,0.44,0.54,-0.61,-0.61,-0.61
470,-1.04,-0.44,-1.03,-0.43,0.43,0.55,-0.60,-0.60,-0.60
474,-1.02,-0.43,-1.02,-0.43,0.43,0.56,-0.59,-0.59,-0.59
479,-1.01,-0.43,-1.00,-0.43,0.43,0.57,-0.58,-0.58,-0.58
484,-0.99,-0.42,-0.99,-0.42,0.42,0.57,-0.56,-0.57,-0.57
489,-0.98,-0.42,-0.98,-0.42,0.42,0.58,-0.55,-0.56,-0.56
494,-0.97,-0.42,-0.96,-0.42,0.42,0.59,-0.55,-0.54,-0.54
499,-0.95,-0.42,-0.95,-0.42,0.42,0.59,-0.53,-0.53,-0.53
504,-0.94,-0.42,-0.93,-0.42,0.42,0.60,-0.52,-0.51,-0.51
509,-0.93,-0.43,-0.92,-0.42,0.42,0.60,-0.50,-0.50,-0.50
514,-0.91,-0.43,-0.91,-0.43,0.43,0.61,-0.48,-0.48,-0.48
519,-0.89,-0.43,-0.89,-0.43,0.43,0.61,-0.45,-0.46,-0.46
524,-0.88,-0.44,-0.89,-0.44,0.44,0.61,-0.43,-0.44,-0.44
529,-0.88,-0.46,-0.88,-0.46,0.46,0.62,-0.42,-0.42,-0.42
535,-0.86,-0.46,-0.87,-0.47,0.47,0.62,-0.38,-0.40,-0.40
540,-0.86,-0.48,-0.87,-0.49,0.49,0.62,-0.37,-0.38,-0.38
545,-0.87,-0.51,-0.86,-0.51,0.51,0.62,-0.36,-0.35,-0.35
551,-0.87,-0.54,-0.85,-0.53,0.53,0.63,-0.34,-0.33,-0.33
556,-0.85,-0.54,-0.84,-0.54,0.54,0.63,-0.31,-0.30,-0.30
562,-0.85,-0.57,-0.83,-0.55,0.55,0.63,-0.30,-0.28,-0.28
568,-0.83,-0.57,-0.81,-0.56,0.56,0.63,-0.27,-0.25,-0.25
573,-0.80,-0.57,-0.79,-0.56,0.56,0.63,-0.24,-0.22,-0.22
579,-0.76,-0.56,-0.76,-0.56,0.56,0.63,-0.19,-0.20,-0.20
585,-0.73,-0.56,-0.74,-0.57,0.57,0.64,-0.16,-0.17,-0.17
591,-0.70,-0.56,-0.71,-0.57,0.57,0.64,-0.12,-0.14,-0.14
596,-0.67,-0.56,-0.69,-0.58,0.58,0.64,-0.08,-0.11,-0.11
602,-0.67,-0.59,-0.68,-0.60,0.60,0.64,-0.07,-0.08,-0.08
608,-0.65,-0.60,-0.66,-0.62,0.62,0.64,-0.03,-0.05,-0.05
615,-0.66,-0.64,-0.65,-0.64,0.64,0.65,-0.02,-0.01,-0.01
621,-0.65,-0.66,-0.64,-0.66,0.66,0.65,0.01,0.02,0.02
627,-0.64,-0.69,-0.62,-0.67,0.67,0.65,0.04,0.05,0.05
633,-0.64,-0.72,-0.61,-0.69,0.69,0.66,0.05,0.08,0.08
639,-0.60,-0.72,-0.58,-0.70,0.70,0.66,0.11,0.12,0.12
646,-0.57,-0.72,-0.56,-0.71,0.71,0.67,0.15,0.15,0.15
652,-0.53,-0.71,-0.54,-0.72,0.72,0.67,0.20,0.19,0.19
659,-0.50,-0.72,-0.51,-0.74,0.74,0.68,0.24,0.22,0.22
665,-0.46,-0.72,-0.49,-0.75,0.75,0.69,0.29,0.26,0.26
672,-0.45,-0.74,-0.47,-0.77,0.77,0.70,0.32,0.30,0.30
679,-0.45,-0.78,-0.45,-0.79,0.79,0.70,0.34,0.33,0.33
686,-0.46,-0.83,-0.43,-0.80,0.80,0.71,0.35,0.37,0.37
692,-0.45,-0.85,-0.41,-0.82,0.82,0.72,0.37,0.41,0.41
699,-0.41,-0.85,-0.39,-0.84,0.84,0.73,0.43,0.44,0.44
706,-0.38,-0.86,-0.37,-0.85,0.85,0.74,0.47,0.48,0.48
713,-0.34,-0.86,-0.34,-0.86,0.86,0.75,0.52,0.52,0.52
721,-0.30,-0.86,-0.31,-0.87,0.87,0.77,0.57,0.56,0.56
728,-0.26,-0.85,-0.28,-0.87,0.87,0.78,0.62,0.60,0.60
735,-0.24,-0.87,-0.25,-0.88,0.88,0.79,0.64,0.63,0.63
742,-0.21,-0.88,-0.21,-0.89,0.89,0.80,0.68,0.67,0.67
750,-0.20,-0.91,-0.18,-0.89,0.89,0.82,0.69,0.71,0.71
757,-0.17,-0.91,-0.15,-0.90,0.90,0.83,0.73,0.75,0.75
765,-0.13,-0.91,-0.12,-0.90,0.90,0.85,0.78,0.78,0.78
773,-0.09,-0.91,-0.09,-0.91,0.91,0.86,0.82,0.82,0.82
780,-0.06,-0.91,-0.06,-0.92,0.92,0.88,0.86,0.86,0.86
788,-0.02,-0.91,-0.03,-0.92,0.92,0.89,0.91,0.89,0.89
796,0.02,-0.91,-0.00,-0.93,0.93,0.91,0.96,0.93,0.93
804,0.01,-0.95,0.02,-0.94,0.94,0.93,0.96,0.96,0.96
812,0.04,-0.95,0.05,-0.95,0.95,0.94,0.99,1.00,1.00
820,0.05,-0.98,0.07,-0.96,0.96,0.96,1.01,1.03,1.03
828,0.10,-0.96,0.10,-0.97,0.97,0.98,1.07,1.06,1.06
837,0.13,-0.96,0.13,-0.97,0.97,0.99,1.10,1.09,1.09
845,0.16,-0.96,0.16,-0.96,0.96,1.01,1.13,1.13,1.13
853,0.19,-0.96,0.20,-0.95,0.95,1.02,1.15,1.16,1.16
862,0.23,-0.95,0.25,-0.93,0.93,1.04,1.17,1.19,1.19
871,0.26,-0.95,0.31,-0.91,0.91,1.05,1.17,1.22,1.22
879,0.32,-0.92,0.36,-0.88,0.88,1.07,1.21,1.25,1.25
888,0.42,-0.85,0.41,-0.86,0.86,1.08,1.28,1.27,1.27
897,0.46,-0.84,0.46,-0.85,0.85,1.09,1.31,1.30,1.30
906,0.48,-0.85,0.48,-0.85,0.85,1.10,1.33,1.33,1.33
915,0.51,-0.84,0.48,-0.87,0.87,1.11,1.39,1.36,1.36
924,0.53,-0.85,0.46,-0.93,0.93,1.11,1.46,1.38,1.38
933,0.55,-0.86,0.41,-1.00,1.00,1.12,1.56,1.41,1.41
943,0.40,-1.04,0.34,-1.10,1.10,1.12,1.50,1.44,1.44
952,0.25,-1.21,0.25,-1.21,1.21,1.12,1.46,1.46,1.46
962,0.11,-1.38,0.17,-1.32,1.32,1.12,1.43,1.49,1.49
971,0.03,-1.49,0.10,-1.42,1.42,1.11,1.45,1.52,1.52
981,-0.02,-1.56,0.06,-1.48,1.48,1.11,1.47,1.54,1.54
991,-0.03,-1.60,0.05,-1.52,1.52,1.10,1.49,1.57,1.57
1001,0.00,-1.60,0.08,-1.52,1.52,1.09,1.52,1.60,1.60
1011,0.10,-1.52,0.14,-1.49,1.49,1.07,1.59,1.63,1.63
1021,0.24,-1.41,0.22,-1.43,1.43,1.06,1.67,1.65,1.65
1031,0.35,-1.33,0.33,-1.35,1.35,1.04,1.70,1.68,1.68
1041,0.50,-1.20,0.44,-1.27,1.27,1.02,1.77,1.71,1.71
1052,0.59,-1.14,0.55,-1.18,1.18,0.99,1.78,1.74,1.74
1062,0.69,-1.07,0.66,-1.11,1.11,0.97,1.80,1.76,1.76
1073,0.79,-1.00,0.75,-1.04,1.04,0.94,1.83,1.79,1.79
1084,0.85,-0.97,0.84,-0.98,0.98,0.91,1.83,1.82,1.82
1094,0.88,-0.97,0.92,-0.93,0.93,0.88,1.81,1.85,1.85
1105,0.95,-0.93,1.00,-0.88,0.88,0.84,1.83,1.88,1.88
1116,1.10,-0.81,1.08,-0.83,0.83,0.80,1.94,1.91,1.91
1128,1.13,-0.81,1.15,-0.79,0.79,0.76,1.92,1.94,1.94
1139,1.23,-0.74,1.23,-0.74,0.74,0.73,1.98,1.97,1.97
1150,1.34,-0.66,1.31,-0.70,0.70,0.69,2.04,2.00,2.00
1162,1.37,-0.66,1.39,-0.65,0.65,0.64,2.02,2.03,2.03
1173,1.46,-0.60,1.47,-0.60,0.60,0.60,2.06,2.07,2.07
1185,1.54,-0.55,1.55,-0.55,0.55,0.55,2.09,2.10,2.10
1197,1.62,-0.51,1.63,-0.50,0.50,0.51,2.12,2.13,2.13
1209,1.73,-0.43,1.72,-0.45,0.45,0.46,2.18,2.16,2.16
1221,1.77,-0.42,1.81,-0.39,0.39,0.42,2.16,2.20,2.20
1233,1.91,-0.32,1.90,-0.33,0.33,0.37,2.24,2.23,2.23
1246,1.99,-0.27,1.99,-0.27,0.27,0.32,2.26,2.26,2.26
1258,2.09,-0.20,2.09,-0.21,0.21,0.27,2.30,2.30,2.30
1271,2.18,-0.15,2.19,-0.14,0.14,0.22,2.32,2.33,2.33
1283,2.30,-0.06,2.30,-0.07,0.07,0.17,2.37,2.37,2.37
1296,2.38,-0.02,2.40,0.00,-0.00,0.12,2.38,2.40,2.40
1309,2.52,0.09,2.51,0.08,-0.08,0.07,2.45,2.44,2.44
1322,2.62,0.15,2.62,0.15,-0.15,0.02,2.48,2.47,2.47
1335,2.72,0.22,2.73,0.22,-0.22,-0.03,2.50,2.51,2.51
1349,2.84,0.30,2.83,0.29,-0.29,-0.09,2.55,2.54,2.54
1362,2.93,0.35,2.94,0.36,-0.36,-0.14,2.57,2.58,2.58
1376,3.04,0.42,3.04,0.43,-0.43,-0.19,2.62,2.62,2.62
1390,3.15,0.50,3.14,0.49,-0.49,-0.24,2.66,2.66,2.66
1404,3.27,0.58,3.24,0.55,-0.55,-0.30,2.72,2.69,2.69
1418,3.31,0.58,3.34,0.61,-0.61,-0.35,2.71,2.73,2.73
1432,3.42,0.65,3.43,0.66,-0.66,-0.40,2.76,2.77,2.77
1446,3.53,0.72,3.52,0.71,-0.71,-0.46,2.82,2.81,2.81
1461,3.62,0.77,3.61,0.76,-0.76,-0.51,2.86,2.85,2.85
1475,3.69,0.80,3.70,0.81,-0.81,-0.57,2.88,2.89,2.89
1490,3.78,0.85,3.79,0.86,-0.86,-0.62,2.93,2.93,2.93
1505,3.88,0.91,3.87,0.90,-0.90,-0.68,2.98,2.97,2.97
1520,3.95,0.94,3.96,0.95,-0.95,-0.73,3.01,3.01,3.01
1535,4.03,0.98,4.05,0.99,-0.99,-0.79,3.04,3.05,3.05
1550,4.15,1.06,4.13,1.04,-1.04,-0.84,3.12,3.10,3.10
1566,4.21,1.07,4.22,1.08,-1.08,-0.90,3.13,3.14,3.14
1582,4.31,1.13,4.30,1.12,-1.12,-0.95,3.19,3.18,3.18
1597,4.38,1.16,4.39,1.17,-1.17,-1.01,3.21,3.22,3.22
1613,4.45,1.19,4.48,1.22,-1.22,-1.06,3.24,3.27,3.27
1629,4.59,1.28,4.57,1.26,-1.26,-1.11,3.33,3.31,3.31
1646,4.67,1.32,4.67,1.31,-1.31,-1.17,3.36,3.36,3.36
1662,4.78,1.38,4.76,1.36,-1.36,-1.22,3.42,3.40,3.40
1679,4.83,1.39,4.86,1.41,-1.41,-1.28,3.42,3.45,3.45
1696,4.95,1.46,4.96,1.47,-1.47,-1.33,3.49,3.49,3.49
1713,5.04,1.50,5.06,1.52,-1.52,-1.38,3.53,3.54,3.54
1730,5.19,1.60,5.15,1.57,-1.57,-1.43,3.63,3.59,3.59
1747,5.25,1.62,5.25,1.61,-1.61,-1.48,3.64,3.64,3.64
1764,5.35,1.67,5.34,1.66,-1.66,-1.53,3.70,3.69,3.69
1782,5.41,1.68,5.44,1.70,-1.70,-1.57,3.71,3.74,3.74
1800,5.54,1.75,5.53,1.74,-1.74,-1.62,3.80,3.79,3.79
1818,5.65,1.81,5.62,1.78,-1.78,-1.66,3.87,3.84,3.84
1836,5.71,1.81,5.72,1.82,-1.82,-1.70,3.89,3.90,3.90
