frequency,raw
10,-4.603210847567159
11,-3.6559564513289704
12,-2.5062072630310066
13,-1.6821034015531637
14,-0.6592186553663804
15,0.15706697084600574
16,1.0107627474397836
17,1.3987305839632933
18,2.19229541661064
19,2.762149570816285
20,3.149870202493563
21,3.7551441325090194
22,3.979935900430199
23,4.504456718063019
24,4.8064428995547805
25,5.113959304602214
26,5.307757900915187
27,5.579308038490043
28,5.8491700148413726
29,6.12608075947455
30,6.349132749962599
31,6.464891167227406
32,6.565725392497497
33,6.7494129353429555
34,6.71818101230422
35,6.854588025771544
36,6.953945904989836
37,7.038250662820844
38,7.0384343630112065
39,7.253373985407051
40,7.274264541087921
41,7.294933845592392
42,7.41030435993772
43,7.517121660665842
44,7.565627269434919
45,7.608327567193455
46,7.599464922534131
47,7.694032870258449
48,7.694323049403244
49,7.702495893295581
50,7.816373771781596
51,7.8373908075929135
52,7.782293557543151
53,7.769611048916784
54,7.776623525506756
55,7.675571109810924
56,7.586272215872527
57,7.558675720292935
58,7.548070951891632
59,7.5388208686246125
60,7.532094575815651
61,7.427495709880298
62,7.425516489254465
63,7.424476973865832
64,7.413426870772471
65,7.321423855628111
66,7.420881470448534
67,7.4212465409518975
68,7.464306004800169
69,7.429723093319407
70,7.436980979601944
71,7.444048380095075
72,7.448936193678107
73,7.450221947791989
74,7.447352010448905
75,7.4405228441243745
76,7.430405020746053
77,7.418022004398822
78,7.505434037921563
79,7.568433377869826
80,7.585808133498527
81,7.58303886396618
82,7.586530942957141
83,7.5954877257541265
84,7.507473566979862
85,7.521697473346314
86,7.5378429645485125
87,7.503336555930946
88,7.4575857424870255
89,7.375473392458724
90,7.310348157621706
91,7.281598928304951
92,7.223051929917573
93,7.25939744022743
94,7.244823532054155
95,7.235465247201229
96,7.235180948452199
97,7.243705065785707
98,7.256452753030671
99,7.26657849376883
100,7.268360733073247
101,7.260176351713311
102,7.245454872335006
104,7.231049423532931
105,7.223866201203328
106,7.227539180149241
107,7.240863109287109
108,7.258664068690872
109,7.274434742604753
110,7.283202981577623
111,7.254862745079483
112,7.175157561910816
113,7.163273453340207
114,7.116584534057313
115,7.037271359896425
117,7.027188111909816
118,7.019839212941043
119,7.015414479917319
120,7.013669385876029
121,7.013762720465421
123,7.014387463229297
124,7.014360878221026
125,6.933688110187725
126,6.820415329306349
128,6.811849743595011
129,6.815455494877614
130,6.821895241373613
131,6.829278881280902
133,6.8266220639394115
134,6.756053573604677
135,6.733066867448204
137,6.728290714882221
138,6.724667618466834
140,6.724867233030284
141,6.729538218957697
142,6.667461009335505
144,6.643795963879412
145,6.5786086795916345
147,6.547916491171729
148,6.5446973752858595
150,6.540231057191085
151,6.537517975183968
153,6.539438053584031
154,6.537083932598343
156,6.3777532083497706
157,6.3815146178043305
159,6.334745949297457
160,6.263393248835251
162,6.132210984178919
164,6.007573052225697
165,5.940540663815077
167,5.936796334763707
169,5.992685880045806
170,5.989125625187708
172,6.090717085050396
174,6.09413530282271
175,6.097477988403493
177,6.099370023748082
179,6.099947080124466
181,5.999651681496366
183,6.000465156389896
184,6.001744651630783
186,6.002633213380688
188,6.002312613416973
190,5.929966574966426
192,5.8786379705871665
194,5.800977723446553
196,5.807937689974717
198,5.789846005482192
200,5.736255430684358
202,5.740908960145631
204,5.618607802580342
206,5.582074524318766
208,5.591713455275474
210,5.520689350744733
212,5.505725888005464
214,5.513281097915715
216,5.521240047471767
218,5.442118850687057
221,5.365586257272498
223,5.332618484422169
225,5.366951030061737
227,5.3477151122591335
229,5.367611493473773
232,5.402541786242646
234,5.371690963516454
236,5.301193911913368
239,5.311194670606457
241,5.280350270102503
244,5.227862834131066
246,5.163547739075152
248,5.145937561895667
251,5.070161032522184
253,4.998124852109737
256,4.887921061458463
259,4.830972935295622
261,4.6943026812880495
264,4.661639513462963
266,4.669460380748839
269,4.498177776776701
272,4.331859724212839
274,4.2268338642992775
277,4.23776859004589
280,4.191811455582596
283,4.169302560050208
286,4.048969440451801
288,3.9136619783886957
291,3.8298664048930195
294,3.64730051132723
297,3.594079331586192
300,3.468453961056656
303,3.3993014912152812
306,3.363069067893252
309,3.1106471806269482
312,3.036024255531916
316,3.018364346075381
319,2.994788751802669
322,2.81423377048391
325,2.6837122411044527
328,2.487612707380321
332,2.453630529124432
335,2.3706998275234685
338,2.13418652529149
342,1.9357487755868714
345,1.809398529736332
349,1.5334589927442481
352,1.3055577985321438
356,1.1320212911297016
359,0.962294180169943
363,0.490850628506613
366,0.44725830595431626
370,0.3181992687917985
374,-0.044544813842896325
377,-0.052038683463912605
381,-0.23008963945649175
385,-0.5245220365483565
389,-0.5826809959178618
393,-0.638705792715891
397,-0.7374508071070673
401,-0.743623764844719
405,-0.8767895453693053
409,-1.0760321736848715
413,-1.3045723980529638
417,-1.5102118647533636
421,-1.5654748320919296
425,-1.3077561629908625
430,-0.9068250884328224
434,-0.6735985148180248
438,-0.5394451984011961
443,-0.41035088924946495
447,-0.20871641740904767
451,0.016560547517226354
456,0.001309609027955183
460,-0.07676536457802285
465,-0.152781710550574
470,-0.22583669009515184
474,-0.32396400632079425
479,-0.5733593505243739
484,-0.6277201175030371
489,-0.6110061101689266
494,-0.6045487707901844
499,-0.8591817631435505
504,-1.1215061313012447
509,-1.1696501785415774
514,-1.1472598955976934
519,-1.0950339926804782
524,-0.9158078420192726
529,-0.6944544280527074
535,-0.4122913158012764
540,-0.20079854775076722
545,-0.06147370955743714
551,0.18003804721357453
556,0.22434373626199866
562,0.33337906266256345
568,0.49579941552754336
573,0.5827899653231183
579,0.7261153850327267
585,0.8831341251752232
591,1.078372881888503
596,1.1299886499366023
602,1.1878238462171722
608,1.2364791847683514
615,1.2919327486987493
621,1.331228754888045
627,1.3359861079041422
633,1.385964185313156
639,1.40093200648031
646,1.4018288697683547
652,1.4223649350431529
659,1.4313175096879838
665,1.4279950602452027
672,1.4168202419158302
679,1.3936444454803465
686,1.2978273134438176
692,1.3000288731488636
699,1.2267914946030698
706,1.1976953717864252
713,1.1454754959178337
721,1.1653229686391744
728,1.1824722137093913
735,1.1931513716131494
742,1.1340657246633903
750,0.9794460050027034
757,0.954915272169401
765,0.9241019441276426
773,0.8952322281475666
780,0.7930027318575075
788,0.7382228764365428
796,0.6705287538162321
804,0.6751055520523299
812,0.6721531536285736
820,0.5937339102437957
828,0.5174027164677115
837,0.37543628345433655
845,0.3262063466570315
853,0.24275709914690413
862,0.14623940856732265
871,0.03636961764374558
879,0.01502919282953119
888,0.014133483589120033
897,0.017488573422969722
906,0.02191410190284282
915,0.026154307276358146
924,0.03096327398498744
933,0.038465942759470906
943,0.05105907847644042
952,0.07020149402567766
962,0.05651037413598514
971,-0.054235730560418194
981,-0.047021841000444375
991,-0.020368494028816908
1001,0.0022518406779008515
1011,0.0221371907927832
1021,0.03409105078081209
1031,-0.034172569222222116
1041,-0.0485240349347662
1052,-0.06911832512020766
1062,-0.11337246262465683
1073,-0.08276372089144024
1084,-0.06407828288658868
1094,-0.148864333278393
1105,-0.12361094237148373
1116,-0.06696074293534293
1128,-0.08659045814926625
1139,-0.11675363702435648
1150,-0.11172943602079677
1162,-0.19936535786752385
1173,-0.19266252551250407
1185,-0.19694201742910344
1197,-0.21923605987755046
1209,-0.18681133715140374
1221,-0.09383208970030177
1233,0.03107515260616811
1246,0.08436622459908749
1258,0.04842354693707618
1271,0.14276955889753928
1283,0.24916469913135542
1296,0.2143224449997665
1309,0.30988498209698356
1322,0.41187453429006626
1335,0.5097885978098051
1349,0.5246042677094049
1362,0.560500305669005
1376,0.6823708532252879
1390,0.7768908109790615
1404,0.8836233810723546
1418,0.8647040797302563
1432,0.8151507940247642
1446,0.9322257541219514
1461,1.066907970642828
1475,1.1649008673626837
1490,1.3818579075771726
1505,1.4787801140509416
1520,1.47802373188855
1535,1.6669530198989495
1550,1.9384603335925714
1566,2.00857063314183
1582,2.1261842710196865
1597,2.30130407419992
1613,2.410843335150967
1629,2.5428170875750533
1646,2.6797005512709338
1662,2.8114012633996044
1679,3.028360552142062
1696,3.3033743631305565
1713,3.5606194341982302
1730,3.7678619990075384
1747,3.7653086540092082
1764,3.9611247384617547
1782,4.229299273267966
1800,4.534573283683065
1818,4.668522952560167
1836,4.8303726364917114
1854,5.188903311856682
1873,5.228973531617898
1892,5.285337494399641
1911,5.573159445008096
1930,5.74717941306078
1949,5.913030636124763
1969,6.122468994050352
1988,6.342730079250876
2008,6.589496567678413
2028,6.7954840332196325
2048,6.946113064398301
2069,7.170084113318975
2090,7.426041310944633
2111,7.59213005751735
2132,7.745530718061511
2153,7.936809100044862
2175,8.130817315430647
2196,8.387639140977154
2218,8.673705093782992
2240,8.99884260740868
2263,9.30811809806766
2285,9.627794369756007
2308,9.979284454389123
2331,10.25896659311108
2355,10.549066120959509
2378,10.76109990528672
2402,11.048474456939928
2426,11.456378908210839
2450,11.644394570442493
2475,11.90194293417961
2500,12.407023090949433
2525,12.63551282943709
2550,12.707906407976147
2575,13.090932955061387
2601,13.082285470875128
2627,13.104660760614472
2653,13.25742488481899
2680,13.468242625274204
2707,13.725665814595766
2734,13.910427761858053
2761,14.2228765395969
2789,14.40760874064577
2817,14.504816839241606
2845,14.63500463390677
2873,14.7253995355599
2902,14.787361998184622
2931,14.753081001474026
2960,14.729328743793833
2990,14.81269318850584
3020,14.875468389832964
3050,14.932606272273125
3080,14.956118937137301
3111,14.853902128838925
3142,14.739069155678504
3174,14.823418158293912
3206,14.803892779528784
3238,14.712325137291899
3270,14.553504557703757
3303,14.426494840806429
3336,14.29337956757386
3369,14.052382744525053
3403,13.795093409056514
3437,13.586825941683177
3471,13.398705233809672
3506,13.215496860980506
3541,13.099809996615702
3576,13.004649415633956
3612,12.735663873471879
3648,12.524414134672911
3685,12.280258516934978
3721,11.903141138328106
3759,11.643054823813461
3796,11.364883887817204
3834,10.92241411024606
3873,10.624866627784348
3911,10.30372326512082
3950,9.830905765027286
3990,9.389005204536279
4030,8.905288359628305
4070,8.354272290170666
4111,7.809364616554035
4152,7.328379985554548
4193,6.936477505765699
4235,6.48105095096365
4278,6.023913254295301
4321,5.6205233210862104
4364,5.25796303762018
4407,4.814745628419997
4451,4.521821823757508
4496,4.242842001634357
4541,3.7449343200441785
4586,3.2969169645600713
4632,2.65556435672356
4679,2.0507577172446414
4725,1.6728147993909026
4773,1.3345377506740679
4820,0.8062357937400533
4868,0.32480420987553593
4917,0.21063058917910116
4966,0.24775430868581427
5016,0.3212592167983166
5066,0.06815900716734813
5117,-0.3324714911552613
5168,-0.7835188386234329
5220,-1.150706370318317
5272,-1.4812431411565568
5325,-1.746963389318755
5378,-1.7189377568890611
5432,-1.7412477929760115
5486,-1.7612575210220847
5541,-1.6987968952450148
5596,-1.5325767394498913
5652,-1.000722935649084
5709,-0.24416643519534365
5766,0.4012221051759086
5823,0.37598065288135185
5882,-0.20949341580113678
5940,-0.7807926208322096
6000,-0.9262166343728495
6060,-0.5342845178644051
6120,0.28556414109272765
6182,0.4586982128166941
6244,0.36439296985194414
6306,0.010410738059365876
6369,-0.03168308457675906
6433,0.2424382592231824
6497,0.6519374270391998
6562,0.979874274915872
6628,1.1621712461577065
6694,1.506404561138015
6761,2.070352246935707
6828,2.3882078635941157
6897,2.6733628673013543
6966,3.3089383381107833
7035,3.5633654879295595
7106,3.544609189057682
7177,3.2361085358217676
7249,3.32890854850822
7321,2.855104814406797
7394,2.1827264932916965
7468,1.4661124605759062
7543,0.9671108651565041
7618,0.41868984140124565
7694,-0.24300203694555567
7771,-0.8327224668699733
7849,-1.5084938543685267
7928,-2.3966944677795476
8007,-3.462066315074435
8087,-4.394584857692706
8168,-5.076931266159777
8250,-5.653607732417516
8332,-4.7636197681049035
8415,-4.19492156181393
8499,-3.2735593616925045
8584,-2.5956347031326534
8670,-2.0147009307399455
8757,-1.145041159936218
8845,-0.6356178569592501
8933,0.026071419633293402
9022,0.33833198305469336
9113,1.0756139879758866
9204,1.4796048637699633
9296,1.9251123074267453
9389,1.9149181343101804
9483,1.3089763890695556
9577,1.0619723595202992
9673,0.6063150317336268
9770,0.10214793313311343
9868,-0.2861224514008254
9966,-0.4434032012562943
10066,-0.6181488868127603
10167,-1.274144642868698
10268,-1.8981876887425857
10371,-2.8682194348917696
10475,-4.22072645811451
10579,-5.060083882035845
10685,-6.011307863563728
10792,-6.793897794410008
10900,-7.452038427520262
11009,-7.981021242512627
11119,-8.757279640633158
11230,-8.79756730250504
11343,-8.465294402481677
11456,-7.742846530996879
11571,-7.129962727271485
11686,-6.516923567700028
11803,-5.910928012860264
11921,-5.664001513699346
12040,-5.5403980418449486
12161,-5.522727277126463
12282,-5.570998196253846
12405,-5.663284770658748
12529,-5.920298666041281
12655,-6.5249861429189275
12781,-8.023531974525753
12909,-8.326230154623065
13038,-8.876126970509908
13168,-8.206840142508096
13300,-8.179419157898685
13433,-7.28553744372757
13567,-7.643918465782637
13703,-8.578272440242312
13840,-9.39080314255947
13978,-9.948095503295281
14118,-10.56838151169592
14259,-11.05289932842981
14402,-11.017734019704955
14546,-11.259891540585272
14692,-12.169776858057839
14838,-13.323122930735858
14987,-13.367966926453297
15137,-12.587283256186986
15288,-11.918213529225348
15441,-12.513824581058689
15595,-12.914299719844799
15751,-13.369651160222066
15909,-14.642846448814952
16068,-16.33777159161674
16229,-16.54908919866461
16391,-15.542003721593385
16555,-15.721846230807564
16720,-15.963151197758247
16888,-15.88085965212589
17056,-15.49997129784797
17227,-14.344906012590162
17399,-13.576811245831799
17573,-12.812480400960848
17749,-12.289697358071386
17926,-11.290552981129341
18106,-10.675278145377018
18287,-10.720898280470525
18470,-11.575750368545933
18654,-11.645851053115896
18841,-11.807672621262629
19029,-4.535345620979541
19220,-5.831606614354224
19412,-10.66136746638747
19606,-12.850697754464495
19802,-13.404056551138957
20000,-13.747540937520554
20200,-12.644926205351474
20402,-10.0771710000378
20606,-9.30835950700576
20812,-9.30137601204159
21020,-10.627650320318377
21230,-9.942491364751193
21443,-8.721267995335232
21657,-8.122834124486207
21874,-8.520212151813743
22092,-9.049909407569139
22313,-9.668298980593576
22537,-10.04923690451006
22762,-10.340442440624912
22989,-10.585271372903733
23219,-10.945274855654944
23452,-11.2825874037827
23686,-11.515693930305133
23923,-11.822452292163035
24162,-11.638918996332237
24404,-11.456185031600711
24648,-11.27423475441913
24894,-11.092871613918632
25143,-10.911772935008397
25395,-10.730745711195159
25649,-10.549748716259893
25905,-10.368693527875093
26164,-10.18744483691403
26426,-10.006012016562197
26690,-9.82453001692591
26957,-9.64294824126373
27227,-9.461316518041123
27499,-9.279767451162517
27774,-9.09822438999428
28052,-8.916692453776523
28332,-8.735259642659251
28615,-8.553819335469422
28902,-8.372284116358909
29191,-8.190837567800369
29482,-8.009481285671349
29777,-7.828039203067818
