frequency,raw
20.00,14.39
20.20,14.40
20.40,14.41
20.61,14.42
20.81,14.43
21.02,14.44
21.23,14.45
21.44,14.47
21.66,14.48
21.87,14.49
22.09,14.50
22.31,14.52
22.54,14.53
22.76,14.54
22.99,14.55
23.22,14.56
23.45,14.57
23.69,14.58
23.92,14.59
24.16,14.60
24.40,14.61
24.65,14.62
24.89,14.63
25.14,14.64
25.39,14.65
25.65,14.66
25.91,14.67
26.16,14.68
26.43,14.68
26.69,14.69
26.96,14.70
27.23,14.70
27.50,14.71
27.77,14.72
28.05,14.72
28.33,14.73
28.62,14.74
28.90,14.75
29.19,14.75
29.48,14.76
29.78,14.77
30.08,14.77
30.38,14.77
30.68,14.78
30.99,14.78
31.30,14.78
31.61,14.79
31.93,14.79
32.24,14.79
32.57,14.79
32.89,14.79
33.22,14.79
33.55,14.78
33.89,14.78
34.23,14.78
34.57,14.77
34.92,14.77
35.27,14.77
35.62,14.77
35.97,14.77
36.33,14.77
36.70,14.77
37.06,14.77
37.43,14.77
37.81,14.77
38.19,14.77
38.57,14.77
38.95,14.77
39.34,14.77
39.74,14.77
40.14,14.77
40.54,14.77
40.94,14.77
41.35,14.77
41.76,14.77
42.18,14.77
42.60,14.77
43.03,14.77
43.46,14.77
43.90,14.77
44.33,14.77
44.78,14.77
45.23,14.77
45.68,14.77
46.13,14.77
46.60,14.77
47.06,14.77
47.53,14.78
48.01,14.79
48.49,14.79
48.97,14.79
49.46,14.79
49.96,14.79
50.46,14.79
50.96,14.78
51.47,14.77
51.99,14.76
52.51,14.74
53.03,14.73
53.56,14.72
54.10,14.71
54.64,14.68
55.18,14.67
55.74,14.66
56.29,14.64
56.86,14.63
57.42,14.62
58.00,14.60
58.58,14.58
59.16,14.55
59.76,14.52
60.35,14.49
60.96,14.46
61.57,14.44
62.18,14.41
62.80,14.38
63.43,14.35
64.07,14.33
64.71,14.31
65.35,14.29
66.01,14.28
66.67,14.27
67.33,14.25
68.01,14.23
68.69,14.20
69.37,14.16
70.07,14.14
70.77,14.10
71.48,14.07
72.19,14.03
72.91,14.00
73.64,13.97
74.38,13.95
75.12,13.94
75.87,13.93
76.63,13.92
77.40,13.90
78.17,13.87
78.95,13.84
79.74,13.81
80.54,13.78
81.35,13.75
82.16,13.72
82.98,13.70
83.81,13.68
84.65,13.67
85.50,13.65
86.35,13.61
87.22,13.57
88.09,13.53
88.97,13.48
89.86,13.43
90.76,13.39
91.66,13.35
92.58,13.32
93.51,13.29
94.44,13.26
95.39,13.22
96.34,13.19
97.30,13.14
98.28,13.10
99.26,13.06
100.25,13.02
101.25,12.98
102.27,12.94
103.29,12.92
104.32,12.89
105.37,12.85
106.42,12.80
107.48,12.74
108.56,12.68
109.64,12.61
110.74,12.55
111.85,12.49
112.97,12.44
114.10,12.40
115.24,12.34
116.39,12.32
117.55,12.27
118.73,12.21
119.92,12.18
121.12,12.14
122.33,12.11
123.55,12.06
124.79,11.99
126.03,11.94
127.29,11.91
128.57,11.88
129.85,11.80
131.15,11.71
132.46,11.67
133.79,11.60
135.12,11.54
136.48,11.50
137.84,11.44
139.22,11.39
140.61,11.33
142.02,11.25
143.44,11.21
144.87,11.16
146.32,11.12
147.78,11.06
149.26,11.01
150.75,10.94
152.26,10.90
153.78,10.84
155.32,10.78
156.88,10.71
158.44,10.65
160.03,10.57
161.63,10.52
163.24,10.48
164.88,10.42
166.53,10.36
168.19,10.30
169.87,10.22
171.57,10.15
173.29,10.11
175.02,10.03
176.77,9.97
178.54,9.91
180.32,9.85
182.13,9.80
183.95,9.70
185.79,9.63
187.65,9.55
189.52,9.49
191.42,9.43
193.33,9.36
195.27,9.29
197.22,9.21
199.19,9.14
201.18,9.08
203.19,9.00
205.23,8.93
207.28,8.85
209.35,8.77
211.44,8.69
213.56,8.62
215.69,8.53
217.85,8.44
220.03,8.38
222.23,8.31
224.45,8.21
226.70,8.11
228.96,8.01
231.25,7.95
233.57,7.87
235.90,7.75
238.26,7.69
240.64,7.60
243.05,7.54
245.48,7.44
247.93,7.33
250.41,7.26
252.92,7.16
255.45,7.09
258.00,7.02
260.58,6.93
263.19,6.84
265.82,6.75
268.48,6.67
271.16,6.62
273.87,6.54
276.61,6.49
279.38,6.45
282.17,6.41
284.99,6.38
287.84,6.35
290.72,6.34
293.63,6.33
296.57,6.32
299.53,6.31
302.53,6.31
305.55,6.32
308.61,6.33
311.69,6.33
314.81,6.33
317.96,6.33
321.14,6.33
324.35,6.33
327.59,6.34
330.87,6.35
334.18,6.36
337.52,6.36
340.90,6.35
344.30,6.34
347.75,6.33
351.23,6.31
354.74,6.28
358.28,6.23
361.87,6.19
365.49,6.14
369.14,6.08
372.83,6.02
376.56,5.95
380.33,5.87
384.13,5.80
387.97,5.71
391.85,5.63
395.77,5.56
399.73,5.49
403.72,5.42
407.76,5.34
411.84,5.27
415.96,5.20
420.12,5.13
424.32,5.05
428.56,4.98
432.85,4.91
437.18,4.83
441.55,4.76
445.96,4.68
450.42,4.60
454.93,4.53
459.48,4.45
464.07,4.37
468.71,4.29
473.40,4.20
478.13,4.14
482.91,4.08
487.74,4.00
492.62,3.93
497.55,3.87
502.52,3.81
507.55,3.74
512.62,3.67
517.75,3.60
522.93,3.54
528.16,3.47
533.44,3.40
538.77,3.33
544.16,3.27
549.60,3.21
555.10,3.13
560.65,3.06
566.25,2.98
571.92,2.91
577.64,2.85
583.41,2.79
589.25,2.72
595.14,2.64
601.09,2.58
607.10,2.52
613.17,2.47
619.30,2.40
625.50,2.33
631.75,2.27
638.07,2.21
644.45,2.15
650.89,2.09
657.40,2.04
663.98,1.98
670.62,1.91
677.32,1.85
684.10,1.80
690.94,1.74
697.85,1.69
704.83,1.63
711.87,1.57
718.99,1.51
726.18,1.46
733.44,1.41
740.78,1.35
748.19,1.29
755.67,1.22
763.23,1.16
770.86,1.12
778.57,1.07
786.35,1.03
794.22,0.97
802.16,0.91
810.18,0.86
818.28,0.81
826.46,0.78
834.73,0.74
843.08,0.69
851.51,0.64
860.02,0.60
868.62,0.55
877.31,0.51
886.08,0.46
894.94,0.40
903.89,0.36
912.93,0.33
922.06,0.30
931.28,0.27
940.59,0.24
950.00,0.20
959.50,0.15
969.09,0.11
978.78,0.07
988.57,0.03
998.46,0.01
1008.44,-0.01
1018.53,-0.04
1028.71,-0.06
1039.00,-0.09
1049.39,-0.13
1059.88,-0.16
1070.48,-0.20
1081.19,-0.23
1092.00,-0.26
1102.92,-0.29
1113.95,-0.31
1125.09,-0.34
1136.34,-0.38
1147.70,-0.41
1159.18,-0.44
1170.77,-0.46
1182.48,-0.48
1194.30,-0.50
1206.25,-0.50
1218.31,-0.50
1230.49,-0.49
1242.80,-0.48
1255.22,-0.48
1267.78,-0.48
1280.45,-0.48
1293.26,-0.48
1306.19,-0.48
1319.25,-0.48
1332.45,-0.48
1345.77,-0.48
1359.23,-0.48
1372.82,-0.47
1386.55,-0.46
1400.41,-0.45
1414.42,-0.45
1428.56,-0.46
1442.85,-0.48
1457.28,-0.50
1471.85,-0.52
1486.57,-0.54
1501.43,-0.57
1516.45,-0.61
1531.61,-0.64
1546.93,-0.68
1562.40,-0.73
1578.02,-0.76
1593.80,-0.79
1609.74,-0.81
1625.84,-0.80
1642.10,-0.79
1658.52,-0.77
1675.10,-0.74
1691.85,-0.70
1708.77,-0.67
1725.86,-0.64
1743.12,-0.61
1760.55,-0.57
1778.15,-0.54
1795.94,-0.51
1813.90,-0.46
1832.03,-0.42
1850.36,-0.38
1868.86,-0.34
1887.55,-0.29
1906.42,-0.23
1925.49,-0.17
1944.74,-0.11
1964.19,-0.03
1983.83,0.07
2003.67,0.16
2023.71,0.26
2043.94,0.35
2064.38,0.46
2085.03,0.56
2105.88,0.68
2126.94,0.82
2148.20,0.96
2169.69,1.10
2191.38,1.25
2213.30,1.41
2235.43,1.57
2257.78,1.74
2280.36,1.91
2303.17,2.10
2326.20,2.29
2349.46,2.47
2372.95,2.67
2396.68,2.88
2420.65,3.09
2444.86,3.31
2469.31,3.52
2494.00,3.75
2518.94,3.97
2544.13,4.21
2569.57,4.44
2595.27,4.65
2621.22,4.86
2647.43,5.07
2673.90,5.27
2700.64,5.46
2727.65,5.66
2754.93,5.87
2782.48,6.05
2810.30,6.23
2838.40,6.41
2866.79,6.59
2895.46,6.78
2924.41,6.96
2953.65,7.14
2983.19,7.33
3013.02,7.50
3043.15,7.67
3073.58,7.84
3104.32,7.98
3135.36,8.12
3166.72,8.25
3198.38,8.36
3230.37,8.47
3262.67,8.58
3295.30,8.67
3328.25,8.74
3361.53,8.81
3395.15,8.86
3429.10,8.89
3463.39,8.92
3498.03,8.95
3533.01,8.96
3568.34,8.95
3604.02,8.93
3640.06,8.90
3676.46,8.84
3713.22,8.78
3750.36,8.72
3787.86,8.65
3825.74,8.56
3864.00,8.46
3902.64,8.35
3941.66,8.24
3981.08,8.12
4020.89,8.00
4061.10,7.86
4101.71,7.71
4142.73,7.56
4184.15,7.39
4226.00,7.23
4268.26,7.07
4310.94,6.90
4354.05,6.73
4397.59,6.54
4441.56,6.35
4485.98,6.16
4530.84,5.98
4576.15,5.80
4621.91,5.60
4668.13,5.41
4714.81,5.24
4761.96,5.06
4809.58,4.90
4857.67,4.73
4906.25,4.57
4955.31,4.41
5004.87,4.26
5054.91,4.13
5105.46,4.01
5156.52,3.90
5208.08,3.80
5260.16,3.69
5312.77,3.60
5365.89,3.50
5419.55,3.42
5473.75,3.35
5528.49,3.29
5583.77,3.22
5639.61,3.17
5696.00,3.14
5752.96,3.11
5810.49,3.08
5868.60,3.08
5927.28,3.08
5986.56,3.10
6046.42,3.13
6106.89,3.19
6167.96,3.27
6229.64,3.37
6291.93,3.48
6354.85,3.60
6418.40,3.75
6482.58,3.94
6547.41,4.14
6612.88,4.33
6679.01,4.54
6745.80,4.77
6813.26,5.02
6881.39,5.33
6950.21,5.67
7019.71,6.04
7089.91,6.44
7160.81,6.89
7232.41,7.38
7304.74,7.90
7377.79,8.44
7451.56,8.99
7526.08,9.54
7601.34,10.07
7677.35,10.59
7754.13,11.07
7831.67,11.51
7909.98,11.88
7989.08,12.18
8068.98,12.43
8149.67,12.62
8231.16,12.76
8313.47,12.86
8396.61,12.92
8480.57,12.93
8565.38,12.91
8651.03,12.88
8737.54,12.81
8824.92,12.71
8913.17,12.56
9002.30,12.37
9092.32,12.13
9183.25,11.85
9275.08,11.50
9367.83,11.11
9461.51,10.66
9556.12,10.17
9651.68,9.65
9748.20,9.11
9845.68,8.58
9944.14,8.06
10043.58,7.55
10144.02,7.09
10245.46,6.69
10347.91,6.36
10451.39,6.10
10555.91,5.93
10661.46,5.82
10768.08,5.78
10875.76,5.78
10984.52,5.83
11094.36,5.90
11205.31,6.00
11317.36,6.10
11430.53,6.17
11544.84,6.24
11660.29,6.27
11776.89,6.29
11894.66,6.28
12013.60,6.25
12133.74,6.18
12255.08,6.08
12377.63,5.97
12501.41,5.85
12626.42,5.70
12752.68,5.50
12880.21,5.27
13009.01,4.98
13139.10,4.64
13270.49,4.22
13403.20,3.71
13537.23,3.11
13672.60,2.42
13809.33,1.63
13947.42,0.76
14086.90,-0.16
14227.77,-1.13
14370.04,-2.14
14513.74,-3.16
14658.88,-4.18
14805.47,-5.18
14953.52,-6.12
15103.06,-7.00
15254.09,-7.82
15406.63,-8.57
15560.70,-9.24
15716.30,-9.83
15873.47,-10.32
16032.20,-10.73
16192.52,-11.04
16354.45,-11.24
16517.99,-11.32
16683.17,-11.28
16850.01,-11.13
17018.51,-10.87
17188.69,-10.51
17360.58,-10.07
17534.18,-9.58
17709.53,-9.07
17886.62,-8.53
18065.49,-7.99
18246.14,-7.59
18428.60,-7.25
18612.89,-6.92
18799.02,-6.62
18987.01,-6.33
19176.88,-6.06
19368.65,-5.81
19562.33,-5.58
19757.96,-5.37
19955.54,-5.17
