frequency,raw,error,smoothed,error_smoothed,equalization,parametric_eq,equalized_raw,equalized_smoothed,target
20,-24.83,-24.79,-24.63,-24.54,6.00,2.68,-18.83,-18.63,-0.03
21,-24.00,-23.96,-23.95,-23.86,6.00,3.07,-18.00,-17.95,-0.04
22,-23.23,-23.19,-23.29,-23.20,6.00,3.50,-17.23,-17.29,-0.04
23,-22.51,-22.47,-22.64,-22.56,6.00,3.96,-16.51,-16.64,-0.04
24,-21.88,-21.84,-22.01,-21.93,6.00,4.45,-15.88,-16.01,-0.04
25,-21.23,-21.19,-21.39,-21.32,6.00,4.95,-15.23,-15.39,-0.04
26,-20.58,-20.54,-20.79,-20.72,6.00,5.46,-14.58,-14.79,-0.04
27,-20.34,-20.30,-20.20,-20.14,6.00,5.94,-14.34,-14.20,-0.04
28,-19.62,-19.58,-19.63,-19.57,6.00,6.38,-13.62,-13.63,-0.04
29,-19.37,-19.33,-19.08,-19.01,6.00,6.74,-13.37,-13.08,-0.04
30,-18.71,-18.67,-18.54,-18.48,6.00,7.01,-12.71,-12.54,-0.04
31,-18.07,-18.03,-18.03,-17.96,6.00,7.16,-12.07,-12.03,-0.04
32,-17.55,-17.51,-17.54,-17.46,6.00,7.22,-11.55,-11.54,-0.03
33,-17.09,-17.05,-17.05,-16.97,6.00,7.18,-11.09,-11.05,-0.03
34,-16.41,-16.38,-16.58,-16.50,6.00,7.07,-10.41,-10.58,-0.03
35,-16.02,-15.99,-16.11,-16.04,6.00,6.91,-10.02,-10.11,-0.03
36,-15.50,-15.47,-15.65,-15.59,6.00,6.73,-9.50,-9.65,-0.03
37,-15.24,-15.20,-15.20,-15.16,6.00,6.55,-9.24,-9.20,-0.03
38,-14.77,-14.73,-14.78,-14.74,6.00,6.37,-8.77,-8.78,-0.04
39,-14.36,-14.31,-14.37,-14.34,6.00,6.20,-8.36,-8.37,-0.04
40,-14.13,-14.08,-14.00,-13.95,6.00,6.06,-8.13,-8.00,-0.05
41,-13.68,-13.62,-13.64,-13.56,6.00,5.94,-7.68,-7.64,-0.06
42,-13.27,-13.19,-13.29,-13.18,6.00,5.85,-7.27,-7.29,-0.07
43,-12.99,-12.90,-12.95,-12.82,6.00,5.78,-6.99,-6.95,-0.09
44,-12.53,-12.42,-12.62,-12.46,6.00,5.73,-6.53,-6.62,-0.11
45,-12.31,-12.18,-12.27,-12.09,6.00,5.71,-6.31,-6.27,-0.12
46,-12.01,-11.87,-11.93,-11.72,6.00,5.71,-6.01,-5.93,-0.14
47,-11.62,-11.46,-11.57,-11.36,6.00,5.74,-5.62,-5.57,-0.16
48,-11.35,-11.17,-11.22,-11.02,6.00,5.77,-5.35,-5.22,-0.18
49,-11.03,-10.83,-10.90,-10.71,6.00,5.83,-5.03,-4.90,-0.20
50,-10.71,-10.49,-10.63,-10.43,6.00,5.89,-4.71,-4.63,-0.22
51,-10.44,-10.20,-10.43,-10.18,6.00,5.97,-4.44,-4.43,-0.24
52,-10.15,-9.89,-10.27,-9.96,6.00,6.05,-4.15,-4.27,-0.26
53,-9.80,-9.51,-10.14,-9.78,6.00,6.13,-3.80,-4.14,-0.28
54,-9.57,-9.26,-10.04,-9.63,6.00,6.21,-3.57,-4.04,-0.31
55,-9.57,-9.24,-9.95,-9.50,6.00,6.29,-3.57,-3.95,-0.33
56,-9.57,-9.22,-9.87,-9.38,6.00,6.36,-3.57,-3.87,-0.35
57,-9.81,-9.43,-9.78,-9.26,6.00,6.42,-3.81,-3.78,-0.38
58,-10.03,-9.62,-9.69,-9.14,6.00,6.46,-4.03,-3.69,-0.40
59,-10.25,-9.82,-9.59,-9.00,6.00,6.49,-4.25,-3.59,-0.43
60,-10.03,-9.57,-9.47,-8.85,6.00,6.50,-4.03,-3.47,-0.46
61,-9.60,-9.11,-9.32,-8.67,6.00,6.49,-3.60,-3.32,-0.49
62,-9.17,-8.65,-9.15,-8.47,6.00,6.46,-3.17,-3.15,-0.52
63,-8.89,-8.33,-8.94,-8.24,6.00,6.41,-2.89,-2.94,-0.55
64,-8.56,-7.97,-8.70,-7.99,6.00,6.35,-2.56,-2.70,-0.59
65,-8.15,-7.53,-8.42,-7.71,6.00,6.26,-2.15,-2.42,-0.62
66,-7.98,-7.33,-8.12,-7.41,6.00,6.16,-1.98,-2.12,-0.65
67,-7.75,-7.07,-7.82,-7.12,6.00,6.05,-1.75,-1.82,-0.68
68,-7.42,-6.71,-7.53,-6.84,6.00,5.92,-1.42,-1.53,-0.71
69,-7.27,-6.53,-7.27,-6.57,6.00,5.79,-1.27,-1.27,-0.73
70,-7.06,-6.30,-7.05,-6.31,5.96,5.65,-1.10,-1.09,-0.76
71,-6.84,-6.05,-6.85,-6.06,5.87,5.50,-0.97,-0.98,-0.79
72,-6.61,-5.79,-6.66,-5.83,5.74,5.35,-0.87,-0.93,-0.82
73,-6.61,-5.76,-6.49,-5.62,5.58,5.20,-1.03,-0.91,-0.85
74,-6.38,-5.50,-6.32,-5.42,5.41,5.05,-0.97,-0.91,-0.88
75,-6.21,-5.30,-6.16,-5.23,5.23,4.90,-0.98,-0.93,-0.91
76,-6.09,-5.15,-6.00,-5.04,5.04,4.76,-1.05,-0.96,-0.93
77,-5.74,-4.77,-5.84,-4.86,4.86,4.61,-0.88,-0.98,-0.96
78,-5.63,-4.64,-5.69,-4.68,4.68,4.47,-0.95,-1.01,-0.99
79,-5.47,-4.45,-5.54,-4.51,4.51,4.33,-0.96,-1.03,-1.02
80,-5.47,-4.42,-5.40,-4.35,4.35,4.20,-1.12,-1.05,-1.05
81,-5.32,-4.24,-5.27,-4.20,4.20,4.07,-1.12,-1.07,-1.08
82,-5.23,-4.12,-5.16,-4.06,4.06,3.94,-1.16,-1.09,-1.10
83,-5.01,-3.88,-5.06,-3.94,3.94,3.82,-1.07,-1.12,-1.13
84,-5.01,-3.85,-4.99,-3.83,3.83,3.71,-1.18,-1.16,-1.16
85,-4.78,-3.59,-4.92,-3.73,3.73,3.60,-1.05,-1.19,-1.19
86,-4.78,-3.56,-4.88,-3.64,3.64,3.49,-1.13,-1.24,-1.21
87,-4.78,-3.54,-4.84,-3.57,3.57,3.39,-1.21,-1.28,-1.24
88,-4.78,-3.51,-4.80,-3.50,3.50,3.29,-1.28,-1.30,-1.27
89,-4.78,-3.48,-4.76,-3.43,3.43,3.20,-1.35,-1.33,-1.30
90,-4.78,-3.45,-4.72,-3.37,3.37,3.11,-1.41,-1.35,-1.32
91,-4.78,-3.43,-4.68,-3.30,3.30,3.02,-1.47,-1.38,-1.35
92,-4.78,-3.40,-4.65,-3.24,3.24,2.94,-1.54,-1.41,-1.38
93,-4.65,-3.24,-4.61,-3.17,3.17,2.87,-1.48,-1.45,-1.41
94,-4.56,-3.12,-4.55,-3.09,3.09,2.79,-1.47,-1.46,-1.43
95,-4.54,-3.08,-4.49,-3.01,3.01,2.72,-1.53,-1.49,-1.46
96,-4.33,-2.84,-4.42,-2.92,2.92,2.65,-1.41,-1.50,-1.48
97,-4.33,-2.82,-4.35,-2.83,2.83,2.59,-1.50,-1.52,-1.51
98,-4.33,-2.80,-4.27,-2.73,2.73,2.53,-1.60,-1.54,-1.53
99,-4.14,-2.59,-4.19,-2.64,2.64,2.47,-1.50,-1.55,-1.54
100,-4.10,-2.54,-4.11,-2.54,2.54,2.41,-1.55,-1.57,-1.56
101,-4.07,-2.49,-4.03,-2.45,2.45,2.36,-1.61,-1.58,-1.58
102,-3.87,-2.28,-3.97,-2.37,2.37,2.31,-1.50,-1.60,-1.59
104,-3.87,-2.23,-3.91,-2.29,2.29,2.21,-1.58,-1.62,-1.64
105,-3.87,-2.21,-3.85,-2.21,2.21,2.16,-1.65,-1.64,-1.65
106,-3.87,-2.20,-3.80,-2.15,2.15,2.12,-1.72,-1.65,-1.67
107,-3.87,-2.19,-3.76,-2.09,2.09,2.08,-1.77,-1.67,-1.68
108,-3.67,-1.98,-3.72,-2.04,2.04,2.04,-1.62,-1.68,-1.69
109,-3.64,-1.94,-3.69,-2.00,2.00,2.00,-1.64,-1.70,-1.70
110,-3.64,-1.92,-3.69,-1.96,1.96,1.96,-1.68,-1.73,-1.71
111,-3.64,-1.91,-3.67,-1.92,1.92,1.93,-1.72,-1.75,-1.73
112,-3.64,-1.90,-3.66,-1.89,1.89,1.89,-1.75,-1.77,-1.74
113,-3.64,-1.88,-3.65,-1.85,1.85,1.86,-1.79,-1.80,-1.76
114,-3.64,-1.86,-3.63,-1.81,1.81,1.83,-1.82,-1.81,-1.78
115,-3.64,-1.84,-3.61,-1.77,1.77,1.79,-1.86,-1.83,-1.80
117,-3.64,-1.79,-3.59,-1.73,1.73,1.74,-1.91,-1.86,-1.85
118,-3.64,-1.77,-3.57,-1.69,1.69,1.71,-1.95,-1.89,-1.87
119,-3.64,-1.74,-3.56,-1.64,1.64,1.68,-2.00,-1.92,-1.89
120,-3.64,-1.72,-3.54,-1.59,1.59,1.65,-2.04,-1.95,-1.92
121,-3.42,-1.47,-3.52,-1.55,1.55,1.63,-1.87,-1.97,-1.94
123,-3.42,-1.42,-3.49,-1.50,1.50,1.58,-1.92,-2.00,-1.99
124,-3.42,-1.40,-3.47,-1.45,1.45,1.55,-1.97,-2.02,-2.02
125,-3.42,-1.38,-3.45,-1.40,1.40,1.53,-2.01,-2.05,-2.04
126,-3.42,-1.36,-3.43,-1.36,1.36,1.50,-2.05,-2.07,-2.06
128,-3.42,-1.32,-3.42,-1.33,1.33,1.46,-2.09,-2.09,-2.10
129,-3.42,-1.30,-3.41,-1.29,1.29,1.44,-2.12,-2.11,-2.12
130,-3.42,-1.28,-3.40,-1.27,1.27,1.42,-2.15,-2.14,-2.14
131,-3.42,-1.27,-3.40,-1.24,1.24,1.39,-2.18,-2.16,-2.15
133,-3.42,-1.23,-3.41,-1.22,1.22,1.35,-2.20,-2.19,-2.19
134,-3.42,-1.22,-3.42,-1.20,1.20,1.33,-2.22,-2.22,-2.20
135,-3.42,-1.20,-3.42,-1.18,1.18,1.32,-2.24,-2.24,-2.22
137,-3.42,-1.17,-3.42,-1.16,1.16,1.28,-2.25,-2.25,-2.25
138,-3.42,-1.15,-3.42,-1.14,1.14,1.26,-2.27,-2.27,-2.27
140,-3.42,-1.12,-3.42,-1.12,1.12,1.22,-2.29,-2.29,-2.30
141,-3.42,-1.11,-3.42,-1.10,1.10,1.21,-2.32,-2.32,-2.31
142,-3.42,-1.09,-3.42,-1.08,1.08,1.19,-2.33,-2.33,-2.33
144,-3.42,-1.06,-3.42,-1.06,1.06,1.16,-2.35,-2.35,-2.36
145,-3.42,-1.05,-3.42,-1.04,1.04,1.14,-2.37,-2.37,-2.37
147,-3.42,-1.02,-3.42,-1.02,1.02,1.11,-2.39,-2.39,-2.40
148,-3.42,-1.01,-3.42,-1.00,1.00,1.10,-2.41,-2.41,-2.41
150,-3.42,-0.98,-3.42,-0.99,0.99,1.07,-2.43,-2.43,-2.44
151,-3.42,-0.97,-3.42,-0.97,0.97,1.05,-2.45,-2.45,-2.45
153,-3.42,-0.95,-3.42,-0.95,0.95,1.03,-2.46,-2.46,-2.47
154,-3.42,-0.94,-3.42,-0.94,0.94,1.01,-2.48,-2.48,-2.48
156,-3.42,-0.92,-3.42,-0.93,0.93,0.99,-2.49,-2.49,-2.50
157,-3.42,-0.92,-3.42,-0.91,0.91,0.98,-2.50,-2.50,-2.50
159,-3.42,-0.90,-3.42,-0.90,0.90,0.95,-2.52,-2.52,-2.52
160,-3.42,-0.90,-3.42,-0.89,0.89,0.94,-2.53,-2.53,-2.52
162,-3.42,-0.88,-3.42,-0.88,0.88,0.92,-2.54,-2.54,-2.54
164,-3.42,-0.87,-3.42,-0.87,0.87,0.90,-2.55,-2.55,-2.55
165,-3.42,-0.86,-3.42,-0.86,0.86,0.89,-2.56,-2.56,-2.56
167,-3.42,-0.85,-3.42,-0.84,0.84,0.87,-2.57,-2.57,-2.57
169,-3.42,-0.83,-3.42,-0.83,0.83,0.86,-2.59,-2.59,-2.58
170,-3.42,-0.83,-3.42,-0.82,0.82,0.85,-2.60,-2.60,-2.59
172,-3.42,-0.81,-3.42,-0.81,0.81,0.83,-2.61,-2.61,-2.60
174,-3.42,-0.80,-3.42,-0.80,0.80,0.82,-2.62,-2.62,-2.62
175,-3.42,-0.79,-3.42,-0.79,0.79,0.81,-2.63,-2.63,-2.63
177,-3.42,-0.78,-3.42,-0.78,0.78,0.79,-2.64,-2.64,-2.64
179,-3.42,-0.76,-3.42,-0.77,0.77,0.78,-2.65,-2.65,-2.65
181,-3.42,-0.75,-3.42,-0.76,0.76,0.77,-2.66,-2.66,-2.67
183,-3.42,-0.74,-3.42,-0.75,0.75,0.76,-2.67,-2.67,-2.68
184,-3.42,-0.74,-3.42,-0.74,0.74,0.75,-2.67,-2.67,-2.68
186,-3.42,-0.74,-3.42,-0.74,0.74,0.74,-2.68,-2.68,-2.68
188,-3.42,-0.74,-3.42,-0.73,0.73,0.73,-2.68,-2.68,-2.68
190,-3.42,-0.74,-3.42,-0.73,0.73,0.72,-2.69,-2.69,-2.68
192,-3.42,-0.74,-3.42,-0.72,0.72,0.71,-2.69,-2.69,-2.68
194,-3.42,-0.74,-3.41,-0.72,0.72,0.70,-2.70,-2.69,-2.68
196,-3.42,-0.74,-3.40,-0.72,0.72,0.70,-2.70,-2.68,-2.68
198,-3.42,-0.74,-3.40,-0.73,0.73,0.69,-2.69,-2.68,-2.68
200,-3.42,-0.74,-3.41,-0.73,0.73,0.68,-2.69,-2.67,-2.68
202,-3.42,-0.74,-3.42,-0.74,0.74,0.68,-2.68,-2.68,-2.67
204,-3.42,-0.74,-3.44,-0.75,0.75,0.67,-2.67,-2.69,-2.67
206,-3.42,-0.74,-3.46,-0.77,0.77,0.67,-2.65,-2.70,-2.67
208,-3.42,-0.74,-3.49,-0.78,0.78,0.66,-2.64,-2.70,-2.68
210,-3.42,-0.74,-3.50,-0.79,0.79,0.66,-2.62,-2.71,-2.68
212,-3.42,-0.74,-3.52,-0.81,0.81,0.65,-2.61,-2.71,-2.68
214,-3.61,-0.92,-3.53,-0.82,0.82,0.65,-2.79,-2.71,-2.69
216,-3.64,-0.95,-3.53,-0.83,0.83,0.64,-2.81,-2.71,-2.69
218,-3.64,-0.95,-3.54,-0.83,0.83,0.64,-2.81,-2.71,-2.69
221,-3.64,-0.94,-3.55,-0.83,0.83,0.64,-2.81,-2.72,-2.70
223,-3.64,-0.94,-3.55,-0.83,0.83,0.63,-2.81,-2.72,-2.70
225,-3.50,-0.80,-3.54,-0.82,0.82,0.63,-2.68,-2.72,-2.69
227,-3.42,-0.73,-3.52,-0.80,0.80,0.63,-2.61,-2.72,-2.69
229,-3.42,-0.73,-3.50,-0.78,0.78,0.63,-2.64,-2.71,-2.68
232,-3.42,-0.74,-3.46,-0.75,0.75,0.63,-2.66,-2.71,-2.68
234,-3.42,-0.74,-3.42,-0.72,0.72,0.63,-2.69,-2.69,-2.68
236,-3.42,-0.75,-3.37,-0.70,0.70,0.62,-2.72,-2.67,-2.67
239,-3.42,-0.75,-3.33,-0.67,0.67,0.62,-2.75,-2.67,-2.67
241,-3.42,-0.76,-3.30,-0.64,0.64,0.62,-2.78,-2.66,-2.66
244,-3.19,-0.53,-3.27,-0.61,0.61,0.62,-2.57,-2.66,-2.66
246,-3.19,-0.54,-3.25,-0.59,0.59,0.62,-2.60,-2.66,-2.65
248,-3.19,-0.54,-3.24,-0.57,0.57,0.62,-2.61,-2.66,-2.65
251,-3.19,-0.54,-3.22,-0.56,0.56,0.62,-2.63,-2.66,-2.64
253,-3.19,-0.55,-3.20,-0.55,0.55,0.62,-2.64,-2.65,-2.64
256,-3.19,-0.55,-3.19,-0.54,0.54,0.62,-2.65,-2.65,-2.64
259,-3.19,-0.55,-3.18,-0.54,0.54,0.63,-2.65,-2.64,-2.63
261,-3.19,-0.56,-3.17,-0.54,0.54,0.63,-2.65,-2.63,-2.63
264,-3.19,-0.56,-3.17,-0.54,0.54,0.63,-2.65,-2.63,-2.63
266,-3.19,-0.56,-3.18,-0.55,0.55,0.63,-2.64,-2.63,-2.63
269,-3.19,-0.56,-3.19,-0.55,0.55,0.63,-2.64,-2.64,-2.62
272,-3.19,-0.57,-3.19,-0.56,0.56,0.64,-2.63,-2.63,-2.62
274,-3.19,-0.57,-3.19,-0.57,0.57,0.64,-2.62,-2.62,-2.61
277,-3.19,-0.58,-3.19,-0.58,0.58,0.64,-2.61,-2.61,-2.61
280,-3.19,-0.59,-3.19,-0.59,0.59,0.65,-2.60,-2.60,-2.60
283,-3.19,-0.60,-3.19,-0.60,0.60,0.65,-2.58,-2.58,-2.59
286,-3.19,-0.61,-3.19,-0.62,0.62,0.65,-2.57,-2.57,-2.58
288,-3.19,-0.62,-3.20,-0.63,0.63,0.66,-2.56,-2.57,-2.57
291,-3.19,-0.63,-3.21,-0.64,0.64,0.66,-2.55,-2.56,-2.55
294,-3.19,-0.65,-3.21,-0.65,0.65,0.67,-2.54,-2.55,-2.54
297,-3.19,-0.67,-3.20,-0.66,0.66,0.68,-2.53,-2.54,-2.52
300,-3.19,-0.68,-3.19,-0.67,0.67,0.68,-2.52,-2.52,-2.51
303,-3.19,-0.70,-3.17,-0.67,0.67,0.69,-2.52,-2.51,-2.49
306,-3.19,-0.72,-3.16,-0.66,0.66,0.70,-2.53,-2.49,-2.47
309,-3.19,-0.74,-3.13,-0.66,0.66,0.71,-2.53,-2.48,-2.45
312,-3.19,-0.76,-3.10,-0.65,0.65,0.71,-2.54,-2.45,-2.43
316,-3.19,-0.78,-3.07,-0.65,0.65,0.73,-2.54,-2.42,-2.41
319,-2.97,-0.58,-3.04,-0.64,0.64,0.74,-2.32,-2.40,-2.39
322,-2.96,-0.59,-3.03,-0.64,0.64,0.75,-2.31,-2.38,-2.37
325,-2.96,-0.61,-3.01,-0.65,0.65,0.76,-2.31,-2.36,-2.35
328,-2.96,-0.63,-3.01,-0.66,0.66,0.77,-2.29,-2.34,-2.33
332,-2.96,-0.65,-3.01,-0.69,0.69,0.78,-2.27,-2.32,-2.31
335,-2.96,-0.67,-3.01,-0.71,0.71,0.79,-2.25,-2.30,-2.29
338,-2.96,-0.69,-3.03,-0.75,0.75,0.81,-2.21,-2.28,-2.27
342,-2.96,-0.71,-3.04,-0.78,0.78,0.82,-2.17,-2.26,-2.25
345,-3.19,-0.96,-3.07,-0.83,0.83,0.84,-2.36,-2.24,-2.23
349,-3.19,-0.98,-3.10,-0.87,0.87,0.86,-2.32,-2.23,-2.21
352,-3.19,-1.00,-3.13,-0.92,0.92,0.87,-2.27,-2.22,-2.19
356,-3.19,-1.02,-3.15,-0.96,0.96,0.89,-2.23,-2.20,-2.17
359,-3.19,-1.04,-3.17,-1.00,1.00,0.90,-2.19,-2.17,-2.15
363,-3.19,-1.05,-3.19,-1.04,1.04,0.92,-2.15,-2.15,-2.13
366,-3.19,-1.07,-3.20,-1.07,1.07,0.94,-2.12,-2.13,-2.12
370,-3.19,-1.09,-3.21,-1.09,1.09,0.96,-2.10,-2.12,-2.10
374,-3.19,-1.10,-3.21,-1.11,1.11,0.98,-2.08,-2.09,-2.09
377,-3.19,-1.12,-3.20,-1.13,1.13,1.00,-2.06,-2.07,-2.07
381,-3.19,-1.13,-3.19,-1.15,1.15,1.02,-2.04,-2.04,-2.05
385,-3.19,-1.15,-3.19,-1.16,1.16,1.05,-2.03,-2.03,-2.04
389,-3.19,-1.16,-3.20,-1.17,1.17,1.07,-2.02,-2.03,-2.03
393,-3.19,-1.17,-3.21,-1.18,1.18,1.09,-2.01,-2.03,-2.02
397,-3.19,-1.18,-3.21,-1.18,1.18,1.12,-2.00,-2.02,-2.00
401,-3.19,-1.19,-3.20,-1.19,1.19,1.14,-2.00,-2.01,-1.99
405,-3.19,-1.20,-3.19,-1.18,1.18,1.16,-2.00,-2.00,-1.99
409,-3.19,-1.21,-3.17,-1.18,1.18,1.18,-2.01,-1.99,-1.98
413,-3.19,-1.22,-3.15,-1.17,1.17,1.21,-2.02,-1.98,-1.97
417,-3.19,-1.23,-3.13,-1.16,1.16,1.23,-2.03,-1.97,-1.96
421,-3.19,-1.23,-3.11,-1.14,1.14,1.25,-2.05,-1.96,-1.96
425,-3.16,-1.21,-3.08,-1.13,1.13,1.27,-2.03,-1.96,-1.95
430,-2.96,-1.01,-3.07,-1.11,1.11,1.30,-1.85,-1.96,-1.94
434,-2.96,-1.02,-3.05,-1.09,1.09,1.32,-1.87,-1.96,-1.94
438,-2.96,-1.03,-3.03,-1.08,1.08,1.34,-1.88,-1.95,-1.93
443,-2.96,-1.04,-3.00,-1.06,1.06,1.36,-1.90,-1.94,-1.92
447,-2.96,-1.05,-2.97,-1.04,1.04,1.37,-1.91,-1.93,-1.91
451,-2.96,-1.06,-2.95,-1.03,1.03,1.39,-1.93,-1.92,-1.90
456,-2.96,-1.07,-2.92,-1.01,1.01,1.40,-1.94,-1.90,-1.89
460,-2.96,-1.08,-2.89,-1.00,1.00,1.41,-1.96,-1.89,-1.88
465,-2.96,-1.09,-2.87,-0.99,0.99,1.43,-1.97,-1.88,-1.87
470,-2.96,-1.10,-2.85,-0.98,0.98,1.44,-1.97,-1.87,-1.86
474,-2.80,-0.96,-2.84,-0.98,0.98,1.44,-1.82,-1.86,-1.84
479,-2.73,-0.90,-2.81,-0.97,0.97,1.45,-1.75,-1.84,-1.83
484,-2.73,-0.92,-2.80,-0.97,0.97,1.45,-1.76,-1.83,-1.81
489,-2.73,-0.93,-2.78,-0.97,0.97,1.45,-1.76,-1.82,-1.80
494,-2.73,-0.95,-2.77,-0.96,0.96,1.44,-1.77,-1.80,-1.78
499,-2.73,-0.96,-2.75,-0.96,0.96,1.44,-1.77,-1.78,-1.77
504,-2.73,-0.98,-2.72,-0.96,0.96,1.43,-1.77,-1.76,-1.75
509,-2.73,-0.99,-2.70,-0.96,0.96,1.42,-1.77,-1.74,-1.73
514,-2.73,-1.01,-2.68,-0.96,0.96,1.40,-1.77,-1.73,-1.72
519,-2.73,-1.03,-2.67,-0.96,0.96,1.39,-1.77,-1.71,-1.70
524,-2.73,-1.05,-2.66,-0.96,0.96,1.37,-1.77,-1.70,-1.68
529,-2.73,-1.07,-2.64,-0.96,0.96,1.35,-1.77,-1.68,-1.66
535,-2.57,-0.93,-2.61,-0.96,0.96,1.32,-1.61,-1.65,-1.64
540,-2.51,-0.89,-2.59,-0.96,0.96,1.30,-1.54,-1.63,-1.62
545,-2.51,-0.91,-2.58,-0.97,0.97,1.27,-1.54,-1.61,-1.60
551,-2.51,-0.93,-2.56,-0.97,0.97,1.24,-1.54,-1.59,-1.58
556,-2.51,-0.96,-2.54,-0.98,0.98,1.21,-1.53,-1.56,-1.55
562,-2.51,-0.98,-2.52,-0.99,0.99,1.17,-1.52,-1.53,-1.53
568,-2.51,-1.01,-2.50,-1.00,1.00,1.14,-1.51,-1.50,-1.50
573,-2.51,-1.04,-2.47,-1.01,1.01,1.10,-1.50,-1.47,-1.47
579,-2.51,-1.07,-2.46,-1.02,1.02,1.06,-1.49,-1.44,-1.44
585,-2.51,-1.10,-2.45,-1.02,1.02,1.02,-1.48,-1.43,-1.41
591,-2.51,-1.13,-2.44,-1.03,1.03,0.98,-1.48,-1.41,-1.38
596,-2.47,-1.11,-2.42,-1.03,1.03,0.95,-1.43,-1.38,-1.35
602,-2.28,-0.95,-2.39,-1.03,1.03,0.91,-1.24,-1.35,-1.33
608,-2.28,-0.98,-2.35,-1.03,1.03,0.86,-1.25,-1.32,-1.30
615,-2.28,-1.00,-2.31,-1.02,1.02,0.81,-1.26,-1.29,-1.28
621,-2.28,-1.03,-2.27,-1.01,1.01,0.77,-1.27,-1.26,-1.25
627,-2.28,-1.05,-2.23,-0.99,0.99,0.73,-1.28,-1.24,-1.23
633,-2.28,-1.07,-2.19,-0.98,0.98,0.69,-1.30,-1.21,-1.21
639,-2.23,-1.04,-2.16,-0.97,0.97,0.65,-1.26,-1.19,-1.19
646,-2.05,-0.87,-2.13,-0.96,0.96,0.60,-1.09,-1.17,-1.17
652,-2.05,-0.89,-2.10,-0.95,0.95,0.56,-1.10,-1.15,-1.16
659,-2.05,-0.90,-2.09,-0.95,0.95,0.51,-1.10,-1.14,-1.14
665,-2.05,-0.92,-2.08,-0.95,0.95,0.47,-1.10,-1.13,-1.13
672,-2.05,-0.93,-2.07,-0.95,0.95,0.43,-1.09,-1.12,-1.11
679,-2.05,-0.95,-2.06,-0.96,0.96,0.38,-1.09,-1.10,-1.10
686,-2.05,-0.96,-2.05,-0.97,0.97,0.34,-1.08,-1.08,-1.09
692,-2.05,-0.98,-2.05,-0.97,0.97,0.30,-1.07,-1.08,-1.07
699,-2.05,-0.99,-2.04,-0.98,0.98,0.25,-1.07,-1.06,-1.06
706,-2.05,-1.01,-2.04,-0.98,0.98,0.21,-1.06,-1.05,-1.04
713,-2.05,-1.02,-2.03,-0.98,0.98,0.17,-1.07,-1.05,-1.02
721,-2.05,-1.04,-2.00,-0.98,0.98,0.12,-1.07,-1.02,-1.01
728,-2.05,-1.06,-1.96,-0.97,0.97,0.08,-1.08,-1.00,-0.99
735,-1.96,-0.99,-1.91,-0.95,0.95,0.04,-1.01,-0.96,-0.96
742,-1.82,-0.88,-1.87,-0.92,0.92,-0.01,-0.90,-0.94,-0.94
750,-1.82,-0.91,-1.81,-0.89,0.89,-0.05,-0.93,-0.92,-0.91
757,-1.82,-0.94,-1.74,-0.86,0.86,-0.09,-0.96,-0.89,-0.88
765,-1.59,-0.73,-1.68,-0.82,0.82,-0.13,-0.77,-0.86,-0.85
773,-1.59,-0.76,-1.61,-0.78,0.78,-0.18,-0.81,-0.83,-0.82
780,-1.54,-0.74,-1.54,-0.73,0.73,-0.22,-0.81,-0.81,-0.80
788,-1.37,-0.60,-1.46,-0.69,0.69,-0.26,-0.68,-0.78,-0.77
796,-1.37,-0.62,-1.39,-0.64,0.64,-0.30,-0.73,-0.75,-0.75
804,-1.37,-0.64,-1.33,-0.59,0.59,-0.34,-0.77,-0.73,-0.73
812,-1.37,-0.66,-1.27,-0.54,0.54,-0.38,-0.82,-0.72,-0.71
820,-1.14,-0.44,-1.21,-0.49,0.49,-0.42,-0.64,-0.71,-0.70
828,-1.14,-0.45,-1.15,-0.44,0.44,-0.45,-0.69,-0.70,-0.69
837,-1.14,-0.45,-1.09,-0.39,0.39,-0.50,-0.74,-0.70,-0.69
845,-1.02,-0.34,-1.04,-0.34,0.34,-0.53,-0.68,-0.70,-0.68
853,-0.91,-0.23,-0.98,-0.29,0.29,-0.56,-0.62,-0.69,-0.68
862,-0.91,-0.23,-0.92,-0.23,0.23,-0.60,-0.68,-0.68,-0.68
871,-0.91,-0.23,-0.86,-0.18,0.18,-0.64,-0.73,-0.69,-0.68
879,-0.90,-0.21,-0.80,-0.12,0.12,-0.66,-0.78,-0.68,-0.68
888,-0.68,0.01,-0.73,-0.07,0.07,-0.70,-0.61,-0.67,-0.69
897,-0.68,0.00,-0.68,-0.01,0.01,-0.73,-0.67,-0.67,-0.68
906,-0.68,0.00,-0.64,0.04,-0.04,-0.75,-0.72,-0.68,-0.68
915,-0.52,0.15,-0.57,0.10,-0.10,-0.78,-0.61,-0.67,-0.67
924,-0.45,0.22,-0.52,0.15,-0.15,-0.80,-0.60,-0.67,-0.66
933,-0.45,0.21,-0.46,0.20,-0.20,-0.82,-0.65,-0.67,-0.65
943,-0.45,0.20,-0.40,0.25,-0.25,-0.84,-0.70,-0.65,-0.64
952,-0.39,0.24,-0.33,0.31,-0.31,-0.85,-0.70,-0.64,-0.63
962,-0.23,0.39,-0.27,0.36,-0.36,-0.87,-0.59,-0.63,-0.62
971,-0.23,0.38,-0.20,0.42,-0.42,-0.88,-0.65,-0.62,-0.61
981,-0.23,0.37,-0.13,0.47,-0.47,-0.89,-0.70,-0.61,-0.60
991,-0.02,0.57,-0.06,0.53,-0.53,-0.89,-0.55,-0.59,-0.59
1001,0.00,0.58,0.01,0.59,-0.59,-0.89,-0.59,-0.58,-0.58
1011,0.05,0.61,0.07,0.65,-0.65,-0.89,-0.59,-0.57,-0.56
1021,0.23,0.78,0.15,0.70,-0.70,-0.89,-0.47,-0.55,-0.55
1031,0.23,0.76,0.22,0.75,-0.75,-0.89,-0.52,-0.53,-0.53
1041,0.23,0.74,0.30,0.80,-0.80,-0.88,-0.57,-0.50,-0.51
1052,0.41,0.91,0.36,0.85,-0.85,-0.87,-0.44,-0.49,-0.50
1062,0.46,0.94,0.41,0.89,-0.89,-0.85,-0.43,-0.48,-0.48
1073,0.46,0.93,0.47,0.93,-0.93,-0.84,-0.47,-0.46,-0.47
1084,0.46,0.92,0.52,0.96,-0.96,-0.82,-0.50,-0.44,-0.45
1094,0.53,0.97,0.55,0.99,-0.99,-0.80,-0.46,-0.44,-0.44
1105,0.69,1.11,0.60,1.02,-1.02,-0.78,-0.33,-0.43,-0.42
1116,0.69,1.09,0.64,1.05,-1.05,-0.75,-0.36,-0.41,-0.40
1128,0.69,1.07,0.69,1.07,-1.07,-0.72,-0.38,-0.38,-0.37
1139,0.69,1.04,0.74,1.09,-1.09,-0.70,-0.40,-0.35,-0.35
1150,0.69,1.02,0.79,1.11,-1.11,-0.67,-0.42,-0.32,-0.32
1162,0.75,1.05,0.82,1.13,-1.13,-0.63,-0.38,-0.30,-0.30
1173,0.91,1.18,0.87,1.15,-1.15,-0.60,-0.24,-0.28,-0.27
1185,0.91,1.16,0.92,1.17,-1.17,-0.57,-0.26,-0.25,-0.25
1197,0.91,1.13,0.97,1.19,-1.19,-0.54,-0.28,-0.22,-0.22
1209,1.11,1.30,1.01,1.22,-1.22,-0.50,-0.10,-0.20,-0.19
1221,1.14,1.30,1.06,1.24,-1.24,-0.47,-0.10,-0.18,-0.16
1233,1.14,1.27,1.12,1.27,-1.27,-0.43,-0.13,-0.15,-0.13
1246,1.14,1.25,1.17,1.30,-1.30,-0.39,-0.16,-0.13,-0.11
1258,1.14,1.23,1.21,1.33,-1.33,-0.35,-0.19,-0.11,-0.09
1271,1.14,1.22,1.25,1.36,-1.36,-0.32,-0.22,-0.11,-0.08
1283,1.31,1.39,1.29,1.39,-1.39,-0.28,-0.08,-0.11,-0.08
1296,1.37,1.46,1.32,1.43,-1.43,-0.24,-0.05,-0.11,-0.09
1309,1.37,1.47,1.35,1.46,-1.46,-0.20,-0.09,-0.11,-0.10
1322,1.37,1.49,1.36,1.49,-1.49,-0.16,-0.11,-0.12,-0.12
1335,1.37,1.51,1.36,1.51,-1.51,-0.12,-0.14,-0.15,-0.14
1349,1.37,1.53,1.36,1.53,-1.53,-0.08,-0.16,-0.17,-0.16
1362,1.37,1.56,1.36,1.55,-1.55,-0.04,-0.18,-0.19,-0.18
1376,1.37,1.58,1.36,1.56,-1.56,-0.00,-0.19,-0.20,-0.21
1390,1.37,1.61,1.35,1.57,-1.57,0.04,-0.20,-0.22,-0.24
1404,1.37,1.63,1.32,1.57,-1.57,0.08,-0.20,-0.24,-0.26
1418,1.30,1.58,1.29,1.56,-1.56,0.12,-0.26,-0.27,-0.28
1432,1.14,1.43,1.26,1.54,-1.54,0.16,-0.40,-0.28,-0.29
1446,1.14,1.44,1.23,1.52,-1.52,0.20,-0.38,-0.29,-0.30
1461,1.14,1.44,1.19,1.48,-1.48,0.24,-0.34,-0.29,-0.30
1475,1.14,1.44,1.15,1.44,-1.44,0.28,-0.29,-0.29,-0.29
1490,1.14,1.43,1.10,1.38,-1.38,0.32,-0.23,-0.28,-0.29
1505,1.10,1.39,1.02,1.30,-1.30,0.36,-0.20,-0.28,-0.29
1520,0.91,1.19,0.93,1.21,-1.21,0.40,-0.30,-0.27,-0.28
