frequency,raw
20.00,-0.80
20.20,-0.72
20.40,-0.65
20.61,-0.57
20.81,-0.50
21.02,-0.42
21.23,-0.36
21.44,-0.30
21.66,-0.23
21.87,-0.17
22.09,-0.11
22.31,-0.08
22.54,-0.04
22.76,-0.01
22.99,0.03
23.22,0.10
23.45,0.17
23.69,0.24
23.92,0.32
24.16,0.37
24.40,0.42
24.65,0.46
24.89,0.51
25.14,0.55
25.39,0.59
25.65,0.62
25.91,0.66
26.16,0.70
26.43,0.76
26.69,0.81
26.96,0.86
27.23,0.90
27.50,0.94
27.77,0.97
28.05,1.01
28.33,1.06
28.62,1.11
28.90,1.16
29.19,1.20
29.48,1.24
29.78,1.27
30.08,1.31
30.38,1.37
30.68,1.42
30.99,1.48
31.30,1.51
31.61,1.54
31.93,1.57
32.24,1.61
32.57,1.66
32.89,1.71
33.22,1.76
33.55,1.81
33.89,1.86
34.23,1.88
34.57,1.88
34.92,1.88
35.27,1.93
35.62,2.00
35.97,2.07
36.33,2.08
36.70,2.08
37.06,2.09
37.43,2.16
37.81,2.23
38.19,2.27
38.57,2.29
38.95,2.32
39.34,2.38
39.74,2.44
40.14,2.48
40.54,2.48
40.94,2.48
41.35,2.48
41.76,2.48
42.18,2.50
42.60,2.56
43.03,2.61
43.46,2.64
43.90,2.67
44.33,2.68
44.78,2.68
45.23,2.73
45.68,2.82
46.13,2.89
46.60,2.89
47.06,2.89
47.53,2.89
48.01,2.89
48.49,2.90
48.97,2.91
49.46,2.98
49.96,3.04
50.46,3.07
50.96,3.09
51.47,3.09
51.99,3.09
52.51,3.09
53.03,3.09
53.56,3.15
54.10,3.20
54.64,3.25
55.18,3.29
55.74,3.29
56.29,3.29
56.86,3.29
57.42,3.29
58.00,3.29
58.58,3.35
59.16,3.39
59.76,3.39
60.35,3.41
60.96,3.46
61.57,3.48
62.18,3.49
62.80,3.49
63.43,3.49
64.07,3.49
64.71,3.49
65.35,3.49
66.01,3.49
66.67,3.49
67.33,3.52
68.01,3.59
68.69,3.59
69.37,3.59
70.07,3.59
70.77,3.63
71.48,3.66
72.19,3.69
72.91,3.69
73.64,3.69
74.38,3.69
75.12,3.69
75.87,3.69
76.63,3.69
77.40,3.69
78.17,3.69
78.95,3.69
79.74,3.69
80.54,3.69
81.35,3.69
82.16,3.69
82.98,3.69
83.81,3.69
84.65,3.76
85.50,3.79
86.35,3.79
87.22,3.79
88.09,3.79
88.97,3.79
89.86,3.79
90.76,3.80
91.66,3.80
92.58,3.80
93.51,3.80
94.44,3.80
95.39,3.80
96.34,3.79
97.30,3.79
98.28,3.78
99.26,3.76
100.25,3.75
101.25,3.73
102.27,3.72
103.29,3.70
104.32,3.68
105.37,3.66
106.42,3.64
107.48,3.61
108.56,3.59
109.64,3.57
110.74,3.55
111.85,3.53
112.97,3.52
114.10,3.51
115.24,3.51
116.39,3.51
117.55,3.52
118.73,3.52
119.92,3.53
121.12,3.54
122.33,3.54
123.55,3.51
124.79,3.46
126.03,3.47
127.29,3.47
128.57,3.48
129.85,3.48
131.15,3.49
132.46,3.49
133.79,3.50
135.12,3.50
136.48,3.45
137.84,3.41
139.22,3.41
140.61,3.41
142.02,3.41
143.44,3.41
144.87,3.41
146.32,3.41
147.78,3.41
149.26,3.41
150.75,3.41
152.26,3.41
153.78,3.41
155.32,3.36
156.88,3.31
158.44,3.31
160.03,3.31
161.63,3.24
163.24,3.22
164.88,3.21
166.53,3.20
168.19,3.20
169.87,3.19
171.57,3.18
173.29,3.17
175.02,3.10
176.77,3.07
178.54,3.07
180.32,3.04
182.13,3.00
183.95,2.98
185.79,3.00
187.65,3.01
189.52,3.03
191.42,3.04
193.33,2.99
195.27,2.97
197.22,2.98
199.19,2.99
201.18,2.94
203.19,2.90
205.23,2.91
207.28,2.91
209.35,2.90
211.44,2.82
213.56,2.80
215.69,2.79
217.85,2.79
220.03,2.75
222.23,2.70
224.45,2.68
226.70,2.68
228.96,2.60
231.25,2.59
233.57,2.60
235.90,2.62
238.26,2.55
240.64,2.55
243.05,2.53
245.48,2.50
247.93,2.51
250.41,2.53
252.92,2.55
255.45,2.50
258.00,2.46
260.58,2.38
263.19,2.37
265.82,2.37
268.48,2.37
271.16,2.33
273.87,2.26
276.61,2.20
279.38,2.17
282.17,2.16
284.99,2.17
287.84,2.13
290.72,2.08
293.63,2.02
296.57,2.01
299.53,2.02
302.53,2.03
305.55,2.02
308.61,1.96
311.69,1.91
314.81,1.87
317.96,1.86
321.14,1.85
324.35,1.78
327.59,1.76
330.87,1.72
334.18,1.67
337.52,1.59
340.90,1.56
344.30,1.53
347.75,1.47
351.23,1.45
354.74,1.44
358.28,1.34
361.87,1.27
365.49,1.27
369.14,1.28
372.83,1.25
376.56,1.14
380.33,1.10
384.13,1.11
387.97,1.11
391.85,1.08
395.77,1.04
399.73,1.00
403.72,0.89
407.76,0.82
411.84,0.81
415.96,0.80
420.12,0.78
424.32,0.66
428.56,0.63
432.85,0.63
437.18,0.66
441.55,0.63
445.96,0.57
450.42,0.59
454.93,0.65
459.48,0.71
464.07,0.72
468.71,0.73
473.40,0.77
478.13,0.76
482.91,0.73
487.74,0.74
492.62,0.76
497.55,0.75
502.52,0.73
507.55,0.66
512.62,0.65
517.75,0.66
522.93,0.64
528.16,0.55
533.44,0.54
538.77,0.45
544.16,0.26
549.60,0.20
555.10,0.17
560.65,0.11
566.25,-0.00
571.92,-0.08
577.64,-0.17
583.41,-0.23
589.25,-0.31
595.14,-0.37
601.09,-0.46
607.10,-0.46
613.17,-0.45
619.30,-0.43
625.50,-0.44
631.75,-0.46
638.07,-0.50
644.45,-0.49
650.89,-0.46
657.40,-0.41
663.98,-0.34
670.62,-0.35
677.32,-0.36
684.10,-0.41
690.94,-0.40
697.85,-0.35
704.83,-0.33
711.87,-0.30
718.99,-0.34
726.18,-0.42
733.44,-0.47
740.78,-0.49
748.19,-0.52
755.67,-0.55
763.23,-0.58
770.86,-0.59
778.57,-0.53
786.35,-0.51
794.22,-0.51
802.16,-0.51
810.18,-0.51
818.28,-0.50
826.46,-0.50
834.73,-0.43
843.08,-0.40
851.51,-0.40
860.02,-0.41
868.62,-0.38
877.31,-0.33
886.08,-0.33
894.94,-0.29
903.89,-0.25
912.93,-0.25
922.06,-0.25
931.28,-0.25
940.59,-0.24
950.00,-0.17
959.50,-0.14
969.09,-0.14
978.78,-0.10
988.57,-0.03
998.46,-0.00
1008.44,0.03
1018.53,0.12
1028.71,0.16
1039.00,0.19
1049.39,0.31
1059.88,0.37
1070.48,0.41
1081.19,0.46
1092.00,0.51
1102.92,0.57
1113.95,0.64
1125.09,0.64
1136.34,0.68
1147.70,0.75
1159.18,0.84
1170.77,0.93
1182.48,0.88
1194.30,0.91
1206.25,0.97
1218.31,1.04
1230.49,1.04
1242.80,1.12
1255.22,1.22
1267.78,1.24
1280.45,1.25
1293.26,1.30
1306.19,1.31
1319.25,1.32
1332.45,1.35
1345.77,1.38
1359.23,1.38
1372.82,1.40
1386.55,1.43
1400.41,1.47
1414.42,1.52
1428.56,1.58
1442.85,1.59
1457.28,1.60
1471.85,1.69
1486.57,1.79
1501.43,1.79
1516.45,1.78
1531.61,1.84
1546.93,1.92
1562.40,2.04
1578.02,2.15
1593.80,2.22
1609.74,2.36
1625.84,2.44
1642.10,2.50
1658.52,2.57
1675.10,2.64
1691.85,2.71
1708.77,2.79
1725.86,2.87
1743.12,2.96
1760.55,3.05
1778.15,3.15
1795.94,3.26
1813.90,3.33
1832.03,3.33
1850.36,3.41
1868.86,3.52
1887.55,3.65
1906.42,3.76
1925.49,3.84
1944.74,3.90
1964.19,3.99
1983.83,4.11
2003.67,4.23
2023.71,4.36
2043.94,4.49
2064.38,4.59
2085.03,4.66
2105.88,4.78
2126.94,4.92
2148.20,5.02
2169.69,5.18
2191.38,5.40
2213.30,5.59
2235.43,5.79
2257.78,5.89
2280.36,6.03
2303.17,6.23
2326.20,6.45
2349.46,6.61
2372.95,6.80
2396.68,6.94
2420.65,7.06
2444.86,7.23
2469.31,7.34
2494.00,7.45
2518.94,7.70
2544.13,7.95
2569.57,8.16
2595.27,8.35
2621.22,8.54
2647.43,8.78
2673.90,9.00
2700.64,9.20
2727.65,9.39
2754.93,9.63
2782.48,9.79
2810.30,9.90
2838.40,10.04
2866.79,10.18
2895.46,10.27
2924.41,10.34
2953.65,10.39
2983.19,10.45
3013.02,10.56
3043.15,10.67
3073.58,10.77
3104.32,10.84
3135.36,10.84
3166.72,10.72
3198.38,10.52
3230.37,10.34
3262.67,10.05
3295.30,9.61
3328.25,9.29
3361.53,8.97
3395.15,8.57
3429.10,8.29
3463.39,8.03
3498.03,7.71
3533.01,7.35
3568.34,7.08
3604.02,6.80
3640.06,6.53
3676.46,6.30
3713.22,5.98
3750.36,5.62
3787.86,5.41
3825.74,5.21
3864.00,5.00
3902.64,4.90
3941.66,4.90
3981.08,5.04
4020.89,5.21
4061.10,5.29
4101.71,5.44
4142.73,5.70
4184.15,5.86
4226.00,6.11
4268.26,6.60
4310.94,7.10
4354.05,7.56
4397.59,8.15
4441.56,8.82
4485.98,9.34
4530.84,9.74
4576.15,10.24
4621.91,10.57
4668.13,10.85
4714.81,11.02
4761.96,11.08
4809.58,11.08
4857.67,11.05
4906.25,10.91
4955.31,10.79
5004.87,10.68
5054.91,10.59
5105.46,10.46
5156.52,10.32
5208.08,10.31
5260.16,10.46
5312.77,10.57
5365.89,10.67
5419.55,10.88
5473.75,11.03
5528.49,11.00
5583.77,10.89
5639.61,10.72
5696.00,10.50
5752.96,10.23
5810.49,9.88
5868.60,9.50
5927.28,8.96
5986.56,8.32
6046.42,7.74
6106.89,7.05
6167.96,6.25
6229.64,5.46
6291.93,4.82
6354.85,4.15
6418.40,3.42
6482.58,2.82
6547.41,2.32
6612.88,1.89
6679.01,1.47
6745.80,1.04
6813.26,0.67
6881.39,0.34
6950.21,0.01
7019.71,-0.24
7089.91,-0.40
7160.81,-0.52
7232.41,-0.52
7304.74,-0.65
7377.79,-0.82
7451.56,-0.88
7526.08,-0.81
7601.34,-0.74
7677.35,-0.65
7754.13,-0.47
7831.67,-0.25
7909.98,-0.05
7989.08,0.22
8068.98,0.80
8149.67,1.28
8231.16,1.75
8313.47,2.57
8396.61,3.15
8480.57,3.87
8565.38,4.70
8651.03,5.11
8737.54,5.31
8824.92,5.49
8913.17,5.89
9002.30,6.44
9092.32,7.06
9183.25,7.89
9275.08,8.77
9367.83,9.55
9461.51,10.28
9556.12,10.78
9651.68,10.86
9748.20,10.62
9845.68,10.33
9944.14,10.17
10043.58,9.98
10144.02,9.67
10245.46,9.29
10347.91,8.84
10451.39,8.46
10555.91,8.05
10661.46,7.67
10768.08,7.33
10875.76,7.10
10984.52,6.83
11094.36,6.42
11205.31,5.69
11317.36,5.00
11430.53,4.22
11544.84,3.37
11660.29,2.62
11776.89,1.99
11894.66,1.00
12013.60,-0.14
12133.74,-1.00
12255.08,-2.15
12377.63,-3.30
12501.41,-4.23
12626.42,-5.34
12752.68,-6.24
12880.21,-6.76
13009.01,-7.11
13139.10,-7.29
13270.49,-7.42
13403.20,-7.88
13537.23,-8.17
13672.60,-8.25
13809.33,-8.25
13947.42,-8.08
14086.90,-7.79
14227.77,-7.56
14370.04,-7.36
14513.74,-6.98
14658.88,-6.57
14805.47,-6.37
14953.52,-5.98
15103.06,-5.59
15254.09,-5.74
15406.63,-5.75
15560.70,-5.78
15716.30,-5.94
15873.47,-5.50
16032.20,-4.61
16192.52,-3.58
16354.45,-3.38
16517.99,-4.27
16683.17,-4.93
16850.01,-5.23
17018.51,-5.75
17188.69,-6.52
17360.58,-6.85
17534.18,-6.80
17709.53,-7.25
17886.62,-7.64
18065.49,-8.04
18246.14,-8.76
18428.60,-9.25
18612.89,-10.09
18799.02,-10.88
18987.01,-11.44
19176.88,-11.75
19368.65,-11.43
19562.33,-11.13
19757.96,-10.63
19955.54,-10.32
