frequency,raw
20.00,-1.83
20.20,-1.79
20.40,-1.75
20.61,-1.71
20.81,-1.67
21.02,-1.63
21.23,-1.58
21.44,-1.54
21.66,-1.50
21.87,-1.45
22.09,-1.45
22.31,-1.48
22.54,-1.52
22.76,-1.56
22.99,-1.60
23.22,-1.56
23.45,-1.52
23.69,-1.48
23.92,-1.44
24.16,-1.43
24.40,-1.43
24.65,-1.43
24.89,-1.43
25.14,-1.41
25.39,-1.39
25.65,-1.36
25.91,-1.33
26.16,-1.32
26.43,-1.32
26.69,-1.33
26.96,-1.33
27.23,-1.31
27.50,-1.28
27.77,-1.25
28.05,-1.23
28.33,-1.23
28.62,-1.23
28.90,-1.23
29.19,-1.23
29.48,-1.23
29.78,-1.23
30.08,-1.21
30.38,-1.15
30.68,-1.09
30.99,-1.03
31.30,-1.06
31.61,-1.09
31.93,-1.12
32.24,-1.13
32.57,-1.14
32.89,-1.15
33.22,-1.12
33.55,-1.08
33.89,-1.04
34.23,-1.03
34.57,-1.03
34.92,-1.03
35.27,-1.03
35.62,-1.03
35.97,-1.03
36.33,-1.03
36.70,-1.03
37.06,-1.03
37.43,-1.03
37.81,-1.03
38.19,-0.99
38.57,-0.91
38.95,-0.83
39.34,-0.86
39.74,-0.90
40.14,-0.93
40.54,-0.93
40.94,-0.93
41.35,-0.93
41.76,-0.93
42.18,-0.93
42.60,-0.93
43.03,-0.93
43.46,-0.95
43.90,-0.97
44.33,-0.93
44.78,-0.86
45.23,-0.82
45.68,-0.82
46.13,-0.82
46.60,-0.82
47.06,-0.82
47.53,-0.82
48.01,-0.82
48.49,-0.82
48.97,-0.82
49.46,-0.82
49.96,-0.82
50.46,-0.82
50.96,-0.82
51.47,-0.73
51.99,-0.64
52.51,-0.68
53.03,-0.72
53.56,-0.72
54.10,-0.72
54.64,-0.72
55.18,-0.72
55.74,-0.72
56.29,-0.72
56.86,-0.72
57.42,-0.72
58.00,-0.72
58.58,-0.72
59.16,-0.72
59.76,-0.72
60.35,-0.72
60.96,-0.72
61.57,-0.72
62.18,-0.72
62.80,-0.72
63.43,-0.72
64.07,-0.73
64.71,-0.79
65.35,-0.75
66.01,-0.62
66.67,-0.62
67.33,-0.62
68.01,-0.62
68.69,-0.62
69.37,-0.62
70.07,-0.62
70.77,-0.62
71.48,-0.62
72.19,-0.62
72.91,-0.62
73.64,-0.62
74.38,-0.62
75.12,-0.62
75.87,-0.62
76.63,-0.62
77.40,-0.62
78.17,-0.62
78.95,-0.62
79.74,-0.62
80.54,-0.62
81.35,-0.62
82.16,-0.60
82.98,-0.52
83.81,-0.45
84.65,-0.49
85.50,-0.52
86.35,-0.52
87.22,-0.52
88.09,-0.52
88.97,-0.52
89.86,-0.52
90.76,-0.52
91.66,-0.52
92.58,-0.52
93.51,-0.52
94.44,-0.52
95.39,-0.52
96.34,-0.52
97.30,-0.53
98.28,-0.54
99.26,-0.55
100.25,-0.57
101.25,-0.59
102.27,-0.60
103.29,-0.61
104.32,-0.63
105.37,-0.65
106.42,-0.68
107.48,-0.70
108.56,-0.73
109.64,-0.75
110.74,-0.77
111.85,-0.78
112.97,-0.79
114.10,-0.80
115.24,-0.80
116.39,-0.80
117.55,-0.80
118.73,-0.79
119.92,-0.78
121.12,-0.78
122.33,-0.77
123.55,-0.76
124.79,-0.75
126.03,-0.75
127.29,-0.74
128.57,-0.73
129.85,-0.73
131.15,-0.72
132.46,-0.72
133.79,-0.71
135.12,-0.71
136.48,-0.71
137.84,-0.70
139.22,-0.70
140.61,-0.70
142.02,-0.70
143.44,-0.70
144.87,-0.70
146.32,-0.70
147.78,-0.70
149.26,-0.70
150.75,-0.70
152.26,-0.70
153.78,-0.70
155.32,-0.70
156.88,-0.70
158.44,-0.70
160.03,-0.70
161.63,-0.70
163.24,-0.70
164.88,-0.71
166.53,-0.71
168.19,-0.72
169.87,-0.72
171.57,-0.73
173.29,-0.74
175.02,-0.74
176.77,-0.74
178.54,-0.74
180.32,-0.74
182.13,-0.74
183.95,-0.73
185.79,-0.71
187.65,-0.70
189.52,-0.68
191.42,-0.67
193.33,-0.66
195.27,-0.64
197.22,-0.62
199.19,-0.55
201.18,-0.53
203.19,-0.64
205.23,-0.70
207.28,-0.70
209.35,-0.70
211.44,-0.71
213.56,-0.71
215.69,-0.71
217.85,-0.72
220.03,-0.72
222.23,-0.72
224.45,-0.73
226.70,-0.72
228.96,-0.72
231.25,-0.71
233.57,-0.70
235.90,-0.69
238.26,-0.67
240.64,-0.66
243.05,-0.65
245.48,-0.63
247.93,-0.60
250.41,-0.64
252.92,-0.76
255.45,-0.69
258.00,-0.65
260.58,-0.64
263.19,-0.63
265.82,-0.64
268.48,-0.56
271.16,-0.61
273.87,-0.74
276.61,-0.75
279.38,-0.75
282.17,-0.75
284.99,-0.74
287.84,-0.73
290.72,-0.72
293.63,-0.71
296.57,-0.70
299.53,-0.68
302.53,-0.67
305.55,-0.66
308.61,-0.65
311.69,-0.65
314.81,-0.61
317.96,-0.57
321.14,-0.65
324.35,-0.73
327.59,-0.74
330.87,-0.74
334.18,-0.75
337.52,-0.75
340.90,-0.75
344.30,-0.75
347.75,-0.75
351.23,-0.71
354.74,-0.72
358.28,-0.81
361.87,-0.84
365.49,-0.83
369.14,-0.89
372.83,-0.96
376.56,-0.94
380.33,-0.91
384.13,-0.89
387.97,-0.89
391.85,-0.88
395.77,-0.84
399.73,-0.90
403.72,-0.97
407.76,-0.99
411.84,-0.99
415.96,-1.00
420.12,-0.99
424.32,-0.97
428.56,-0.97
432.85,-1.04
437.18,-1.04
441.55,-1.00
445.96,-0.96
450.42,-0.91
454.93,-0.89
459.48,-0.88
464.07,-0.90
468.71,-0.87
473.40,-0.81
478.13,-0.76
482.91,-0.71
487.74,-0.66
492.62,-0.61
497.55,-0.67
502.52,-0.68
507.55,-0.66
512.62,-0.64
517.75,-0.64
522.93,-0.70
528.16,-0.76
533.44,-0.84
538.77,-0.89
544.16,-0.93
549.60,-0.98
555.10,-1.03
560.65,-1.08
566.25,-1.20
571.92,-1.27
577.64,-1.31
583.41,-1.33
589.25,-1.35
595.14,-1.36
601.09,-1.36
607.10,-1.35
613.17,-1.34
619.30,-1.35
625.50,-1.38
631.75,-1.37
638.07,-1.33
644.45,-1.30
650.89,-1.31
657.40,-1.30
663.98,-1.26
670.62,-1.21
677.32,-1.12
684.10,-1.02
690.94,-0.97
697.85,-0.93
704.83,-0.92
711.87,-0.91
718.99,-0.92
726.18,-0.93
733.44,-0.96
740.78,-0.98
748.19,-1.01
755.67,-1.04
763.23,-0.97
770.86,-0.96
778.57,-0.99
786.35,-1.00
794.22,-1.00
802.16,-1.00
810.18,-0.92
818.28,-0.86
826.46,-0.88
834.73,-0.92
843.08,-0.88
851.51,-0.69
860.02,-0.68
868.62,-0.70
877.31,-0.71
886.08,-0.64
894.94,-0.63
903.89,-0.55
912.93,-0.41
922.06,-0.38
931.28,-0.48
940.59,-0.45
950.00,-0.36
959.50,-0.23
969.09,-0.18
978.78,-0.25
988.57,-0.24
998.46,-0.04
1008.44,0.06
1018.53,0.01
1028.71,0.02
1039.00,0.17
1049.39,0.24
1059.88,0.28
1070.48,0.32
1081.19,0.34
1092.00,0.38
1102.92,0.55
1113.95,0.65
1125.09,0.71
1136.34,0.78
1147.70,0.86
1159.18,0.95
1170.77,1.06
1182.48,1.13
1194.30,1.09
1206.25,1.15
1218.31,1.27
1230.49,1.32
1242.80,1.43
1255.22,1.56
1267.78,1.58
1280.45,1.66
1293.26,1.79
1306.19,1.84
1319.25,1.88
1332.45,1.98
1345.77,2.02
1359.23,2.05
1372.82,2.14
1386.55,2.24
1400.41,2.29
1414.42,2.37
1428.56,2.35
1442.85,2.39
1457.28,2.49
1471.85,2.58
1486.57,2.62
1501.43,2.65
1516.45,2.69
1531.61,2.76
1546.93,2.84
1562.40,2.90
1578.02,2.97
1593.80,3.03
1609.74,3.16
1625.84,3.28
1642.10,3.41
1658.52,3.49
1675.10,3.55
1691.85,3.63
1708.77,3.70
1725.86,3.79
1743.12,3.87
1760.55,3.97
1778.15,4.07
1795.94,4.17
1813.90,4.28
1832.03,4.40
1850.36,4.51
1868.86,4.56
1887.55,4.67
1906.42,4.80
1925.49,4.93
1944.74,5.07
1964.19,5.20
1983.83,5.32
2003.67,5.45
2023.71,5.58
2043.94,5.71
2064.38,5.85
2085.03,6.04
2105.88,6.20
2126.94,6.34
2148.20,6.57
2169.69,6.75
2191.38,6.93
2213.30,7.11
2235.43,7.31
2257.78,7.51
2280.36,7.73
2303.17,7.91
2326.20,8.09
2349.46,8.25
2372.95,8.44
2396.68,8.59
2420.65,8.78
2444.86,8.93
2469.31,9.07
2494.00,9.23
2518.94,9.38
2544.13,9.57
2569.57,9.77
2595.27,9.89
2621.22,10.02
2647.43,10.16
2673.90,10.33
2700.64,10.45
2727.65,10.51
2754.93,10.52
2782.48,10.52
2810.30,10.45
2838.40,10.35
2866.79,10.19
2895.46,10.06
2924.41,9.88
2953.65,9.65
2983.19,9.52
3013.02,9.32
3043.15,9.07
3073.58,8.92
3104.32,8.78
3135.36,8.45
3166.72,8.22
3198.38,8.05
3230.37,7.75
3262.67,7.46
3295.30,7.22
3328.25,6.92
3361.53,6.56
3395.15,6.24
3429.10,5.96
3463.39,5.74
3498.03,5.47
3533.01,5.27
3568.34,5.17
3604.02,4.99
3640.06,4.78
3676.46,4.55
3713.22,4.20
3750.36,3.86
3787.86,3.53
3825.74,3.12
3864.00,2.77
3902.64,2.49
3941.66,2.26
3981.08,2.15
4020.89,2.08
4061.10,1.98
4101.71,1.81
4142.73,1.63
4184.15,1.50
4226.00,1.38
4268.26,1.22
4310.94,1.04
4354.05,0.83
4397.59,0.70
4441.56,0.56
4485.98,0.38
4530.84,0.29
4576.15,0.21
4621.91,0.22
4668.13,0.13
4714.81,-0.00
4761.96,-0.11
4809.58,-0.13
4857.67,-0.22
4906.25,-0.36
4955.31,-0.52
5004.87,-0.68
5054.91,-0.70
5105.46,-0.73
5156.52,-0.82
5208.08,-0.87
5260.16,-0.88
5312.77,-0.81
5365.89,-0.59
5419.55,-0.48
5473.75,-0.54
5528.49,-0.53
5583.77,-0.52
5639.61,-0.58
5696.00,-0.67
5752.96,-0.57
5810.49,-0.48
5868.60,-0.37
5927.28,-0.14
5986.56,0.03
6046.42,0.07
6106.89,0.20
6167.96,0.36
6229.64,0.43
6291.93,0.66
6354.85,0.82
6418.40,0.81
6482.58,0.82
6547.41,0.87
6612.88,0.82
6679.01,0.75
6745.80,0.66
6813.26,0.57
6881.39,0.54
6950.21,0.51
7019.71,0.53
7089.91,0.55
7160.81,0.50
7232.41,0.34
7304.74,-0.01
7377.79,-0.34
7451.56,-0.70
7526.08,-1.08
7601.34,-1.42
7677.35,-1.70
7754.13,-1.94
7831.67,-2.04
7909.98,-2.07
7989.08,-2.12
8068.98,-2.07
8149.67,-1.84
8231.16,-1.80
8313.47,-1.91
8396.61,-2.16
8480.57,-2.53
8565.38,-3.31
8651.03,-3.63
8737.54,-3.36
8824.92,-3.19
8913.17,-2.96
9002.30,-2.52
9092.32,-2.50
9183.25,-2.34
9275.08,-2.33
9367.83,-2.78
9461.51,-2.93
9556.12,-3.03
9651.68,-3.20
9748.20,-3.17
9845.68,-2.87
9944.14,-2.37
10043.58,-1.88
10144.02,-1.53
10245.46,-1.27
10347.91,-0.95
10451.39,-0.89
10555.91,-1.02
10661.46,-1.18
10768.08,-1.58
10875.76,-1.79
10984.52,-2.03
11094.36,-2.54
11205.31,-2.90
11317.36,-3.52
11430.53,-3.98
11544.84,-4.71
11660.29,-5.58
11776.89,-6.43
11894.66,-7.33
12013.60,-7.85
12133.74,-8.27
12255.08,-8.82
12377.63,-9.25
12501.41,-9.60
12626.42,-9.73
12752.68,-9.85
12880.21,-10.03
13009.01,-10.25
13139.10,-10.19
13270.49,-10.28
13403.20,-10.14
13537.23,-9.97
13672.60,-9.47
13809.33,-9.23
13947.42,-8.51
14086.90,-8.15
14227.77,-8.00
14370.04,-7.67
14513.74,-7.43
14658.88,-7.63
14805.47,-7.86
14953.52,-8.26
15103.06,-8.97
15254.09,-9.53
15406.63,-10.48
15560.70,-11.62
15716.30,-12.36
15873.47,-13.15
16032.20,-13.95
16192.52,-14.35
16354.45,-14.96
16517.99,-15.40
16683.17,-15.99
16850.01,-16.64
17018.51,-17.42
17188.69,-18.30
17360.58,-18.90
17534.18,-19.70
17709.53,-20.58
17886.62,-21.46
18065.49,-22.08
18246.14,-22.65
18428.60,-23.24
18612.89,-23.67
18799.02,-24.14
18987.01,-25.24
19176.88,-25.78
19368.65,-26.47
19562.33,-27.02
19757.96,-27.52
19955.54,-27.86
