frequency,raw
20.00,0.10
20.20,0.13
20.40,0.16
20.61,0.19
20.81,0.21
21.02,0.24
21.23,0.23
21.44,0.22
21.66,0.21
21.87,0.20
22.09,0.20
22.31,0.20
22.54,0.20
22.76,0.20
22.99,0.20
23.22,0.20
23.45,0.20
23.69,0.20
23.92,0.20
24.16,0.22
24.40,0.24
24.65,0.27
24.89,0.29
25.14,0.30
25.39,0.30
25.65,0.30
25.91,0.30
26.16,0.30
26.43,0.30
26.69,0.30
26.96,0.30
27.23,0.30
27.50,0.30
27.77,0.30
28.05,0.30
28.33,0.30
28.62,0.30
28.90,0.30
29.19,0.30
29.48,0.30
29.78,0.30
30.08,0.30
30.38,0.30
30.68,0.30
30.99,0.30
31.30,0.35
31.61,0.41
31.93,0.47
32.24,0.46
32.57,0.43
32.89,0.41
33.22,0.40
33.55,0.40
33.89,0.40
34.23,0.40
34.57,0.40
34.92,0.40
35.27,0.40
35.62,0.40
35.97,0.40
36.33,0.40
36.70,0.40
37.06,0.40
37.43,0.43
37.81,0.45
38.19,0.47
38.57,0.48
38.95,0.50
39.34,0.50
39.74,0.50
40.14,0.50
40.54,0.50
40.94,0.50
41.35,0.50
41.76,0.50
42.18,0.50
42.60,0.50
43.03,0.50
43.46,0.50
43.90,0.50
44.33,0.50
44.78,0.50
45.23,0.50
45.68,0.50
46.13,0.50
46.60,0.50
47.06,0.50
47.53,0.50
48.01,0.50
48.49,0.50
48.97,0.50
49.46,0.50
49.96,0.50
50.46,0.50
50.96,0.50
51.47,0.50
51.99,0.50
52.51,0.50
53.03,0.50
53.56,0.50
54.10,0.50
54.64,0.50
55.18,0.50
55.74,0.51
56.29,0.56
56.86,0.65
57.42,0.67
58.00,0.68
58.58,0.58
59.16,0.50
59.76,0.50
60.35,0.52
60.96,0.55
61.57,0.62
62.18,0.66
62.80,0.61
63.43,0.60
64.07,0.60
64.71,0.60
65.35,0.60
66.01,0.60
66.67,0.60
67.33,0.60
68.01,0.60
68.69,0.54
69.37,0.58
70.07,0.69
70.77,0.70
71.48,0.70
72.19,0.70
72.91,0.70
73.64,0.70
74.38,0.70
75.12,0.70
75.87,0.70
76.63,0.70
77.40,0.70
78.17,0.70
78.95,0.70
79.74,0.70
80.54,0.70
81.35,0.70
82.16,0.70
82.98,0.70
83.81,0.70
84.65,0.70
85.50,0.70
86.35,0.70
87.22,0.70
88.09,0.71
88.97,0.71
89.86,0.71
90.76,0.71
91.66,0.71
92.58,0.71
93.51,0.71
94.44,0.71
95.39,0.71
96.34,0.71
97.30,0.70
98.28,0.69
99.26,0.68
100.25,0.66
101.25,0.64
102.27,0.63
103.29,0.62
104.32,0.60
105.37,0.57
106.42,0.55
107.48,0.52
108.56,0.50
109.64,0.48
110.74,0.46
111.85,0.44
112.97,0.43
114.10,0.43
115.24,0.43
116.39,0.43
117.55,0.43
118.73,0.44
119.92,0.44
121.12,0.45
122.33,0.46
123.55,0.47
124.79,0.47
126.03,0.48
127.29,0.49
128.57,0.49
129.85,0.50
131.15,0.50
132.46,0.51
133.79,0.51
135.12,0.52
136.48,0.52
137.84,0.52
139.22,0.52
140.61,0.53
142.02,0.53
143.44,0.53
144.87,0.53
146.32,0.53
147.78,0.53
149.26,0.53
150.75,0.53
152.26,0.53
153.78,0.53
155.32,0.53
156.88,0.53
158.44,0.53
160.03,0.57
161.63,0.55
163.24,0.47
164.88,0.42
166.53,0.42
168.19,0.41
169.87,0.40
171.57,0.40
173.29,0.39
175.02,0.39
176.77,0.38
178.54,0.38
180.32,0.38
182.13,0.34
183.95,0.24
185.79,0.28
187.65,0.32
189.52,0.34
191.42,0.35
193.33,0.37
195.27,0.38
197.22,0.40
199.19,0.41
201.18,0.42
203.19,0.42
205.23,0.42
207.28,0.42
209.35,0.42
211.44,0.42
213.56,0.42
215.69,0.41
217.85,0.41
220.03,0.40
222.23,0.40
224.45,0.40
226.70,0.40
228.96,0.41
231.25,0.46
233.57,0.42
235.90,0.34
238.26,0.35
240.64,0.37
243.05,0.38
245.48,0.40
247.93,0.43
250.41,0.45
252.92,0.46
255.45,0.48
258.00,0.49
260.58,0.49
263.19,0.49
265.82,0.49
268.48,0.49
271.16,0.48
273.87,0.48
276.61,0.48
279.38,0.49
282.17,0.51
284.99,0.45
287.84,0.39
290.72,0.41
293.63,0.42
296.57,0.43
299.53,0.44
302.53,0.45
305.55,0.46
308.61,0.39
311.69,0.34
314.81,0.37
317.96,0.39
321.14,0.40
324.35,0.42
327.59,0.42
330.87,0.32
334.18,0.28
337.52,0.28
340.90,0.28
344.30,0.28
347.75,0.28
351.23,0.28
354.74,0.29
358.28,0.30
361.87,0.26
365.49,0.21
369.14,0.20
372.83,0.21
376.56,0.22
380.33,0.23
384.13,0.23
387.97,0.24
391.85,0.24
395.77,0.24
399.73,0.23
403.72,0.17
407.76,0.14
411.84,0.13
415.96,0.13
420.12,0.13
424.32,0.14
428.56,0.09
432.85,0.07
437.18,0.09
441.55,0.12
445.96,0.17
450.42,0.22
454.93,0.28
459.48,0.34
464.07,0.37
468.71,0.37
473.40,0.42
478.13,0.47
482.91,0.46
487.74,0.43
492.62,0.41
497.55,0.38
502.52,0.32
507.55,0.21
512.62,0.14
517.75,0.08
522.93,0.08
528.16,0.07
533.44,0.06
538.77,0.02
544.16,-0.10
549.60,-0.20
555.10,-0.30
560.65,-0.36
566.25,-0.41
571.92,-0.45
577.64,-0.48
583.41,-0.51
589.25,-0.52
595.14,-0.53
601.09,-0.62
607.10,-0.62
613.17,-0.62
619.30,-0.67
625.50,-0.67
631.75,-0.64
638.07,-0.67
644.45,-0.69
650.89,-0.69
657.40,-0.70
663.98,-0.72
670.62,-0.68
677.32,-0.69
684.10,-0.76
690.94,-0.75
697.85,-0.71
704.83,-0.70
711.87,-0.69
718.99,-0.70
726.18,-0.71
733.44,-0.74
740.78,-0.76
748.19,-0.78
755.67,-0.74
763.23,-0.75
770.86,-0.76
778.57,-0.78
786.35,-0.78
794.22,-0.76
802.16,-0.70
810.18,-0.68
818.28,-0.67
826.46,-0.66
834.73,-0.59
843.08,-0.57
851.51,-0.57
860.02,-0.58
868.62,-0.48
877.31,-0.40
886.08,-0.40
894.94,-0.40
903.89,-0.41
912.93,-0.36
922.06,-0.33
931.28,-0.32
940.59,-0.31
950.00,-0.24
959.50,-0.18
969.09,-0.12
978.78,-0.10
988.57,-0.08
998.46,-0.01
1008.44,0.05
1018.53,0.15
1028.71,0.20
1039.00,0.23
1049.39,0.26
1059.88,0.30
1070.48,0.34
1081.19,0.39
1092.00,0.44
1102.92,0.50
1113.95,0.57
1125.09,0.63
1136.34,0.70
1147.70,0.70
1159.18,0.72
1170.77,0.77
1182.48,0.86
1194.30,0.90
1206.25,0.88
1218.31,0.91
1230.49,1.00
1242.80,1.02
1255.22,1.07
1267.78,1.08
1280.45,1.13
1293.26,1.22
1306.19,1.24
1319.25,1.25
1332.45,1.28
1345.77,1.31
1359.23,1.31
1372.82,1.33
1386.55,1.36
1400.41,1.41
1414.42,1.53
1428.56,1.58
1442.85,1.57
1457.28,1.54
1471.85,1.55
1486.57,1.59
1501.43,1.62
1516.45,1.70
1531.61,1.77
1546.93,1.80
1562.40,1.82
1578.02,1.80
1593.80,1.85
1609.74,1.91
1625.84,1.97
1642.10,2.00
1658.52,2.01
1675.10,2.06
1691.85,2.14
1708.77,2.21
1725.86,2.30
1743.12,2.34
1760.55,2.39
1778.15,2.48
1795.94,2.51
1813.90,2.56
1832.03,2.59
1850.36,2.59
1868.86,2.66
1887.55,2.78
1906.42,2.84
1925.49,2.87
1944.74,2.97
1964.19,3.10
1983.83,3.23
2003.67,3.25
2023.71,3.30
2043.94,3.41
2064.38,3.54
2085.03,3.67
2105.88,3.81
2126.94,3.95
2148.20,4.05
2169.69,4.13
2191.38,4.24
2213.30,4.41
2235.43,4.58
2257.78,4.73
2280.36,4.82
2303.17,4.89
2326.20,4.97
2349.46,5.07
2372.95,5.13
2396.68,5.18
2420.65,5.23
2444.86,5.28
2469.31,5.32
2494.00,5.28
2518.94,5.24
2544.13,5.14
2569.57,5.05
2595.27,4.90
2621.22,4.74
2647.43,4.70
2673.90,4.60
2700.64,4.34
2727.65,4.16
2754.93,3.91
2782.48,3.50
2810.30,3.26
2838.40,2.99
2866.79,2.51
2895.46,2.00
2924.41,1.61
2953.65,1.21
2983.19,0.76
3013.02,0.54
3043.15,0.36
3073.58,0.17
3104.32,0.02
3135.36,-0.12
3166.72,-0.12
3198.38,0.03
3230.37,0.08
3262.67,0.16
3295.30,0.47
3328.25,0.70
3361.53,0.99
3395.15,1.47
3429.10,1.81
3463.39,2.15
3498.03,2.79
3533.01,3.41
3568.34,3.97
3604.02,4.57
3640.06,5.30
3676.46,5.75
3713.22,6.09
3750.36,6.73
3787.86,7.20
3825.74,7.53
3864.00,7.99
3902.64,8.39
3941.66,8.70
3981.08,8.94
4020.89,9.00
4061.10,8.94
4101.71,8.75
4142.73,8.48
4184.15,8.27
4226.00,8.00
4268.26,7.61
4310.94,7.09
4354.05,6.66
4397.59,6.32
4441.56,5.88
4485.98,5.52
4530.84,5.23
4576.15,4.87
4621.91,4.54
4668.13,4.33
4714.81,4.11
4761.96,3.91
4809.58,3.65
4857.67,3.35
4906.25,3.08
4955.31,2.92
5004.87,2.79
5054.91,2.67
5105.46,2.45
5156.52,2.27
5208.08,2.29
5260.16,2.45
5312.77,2.64
5365.89,2.70
5419.55,2.92
5473.75,3.04
5528.49,3.12
5583.77,3.08
5639.61,3.16
5696.00,3.29
5752.96,3.45
5810.49,3.73
5868.60,4.11
5927.28,4.43
5986.56,4.67
6046.42,4.79
6106.89,5.01
6167.96,5.27
6229.64,5.43
6291.93,5.58
6354.85,5.81
6418.40,5.89
6482.58,5.46
6547.41,4.77
6612.88,3.78
6679.01,2.97
6745.80,2.39
6813.26,1.90
6881.39,1.49
6950.21,0.75
7019.71,-0.18
7089.91,-0.75
7160.81,-0.99
7232.41,-1.76
7304.74,-2.62
7377.79,-3.38
7451.56,-4.20
7526.08,-5.13
7601.34,-5.85
7677.35,-6.40
7754.13,-6.90
7831.67,-7.48
7909.98,-7.76
7989.08,-7.79
8068.98,-7.98
8149.67,-8.47
8231.16,-8.30
8313.47,-8.84
8396.61,-9.82
8480.57,-10.59
8565.38,-10.85
8651.03,-10.81
8737.54,-10.95
8824.92,-10.57
8913.17,-10.45
9002.30,-10.36
9092.32,-9.94
9183.25,-9.27
9275.08,-8.72
9367.83,-8.80
9461.51,-9.43
9556.12,-10.23
9651.68,-11.00
9748.20,-11.55
9845.68,-12.60
9944.14,-12.90
10043.58,-12.57
10144.02,-11.59
10245.46,-10.96
10347.91,-10.12
10451.39,-9.28
10555.91,-8.49
10661.46,-8.17
10768.08,-8.12
10875.76,-7.26
10984.52,-6.42
11094.36,-5.95
11205.31,-5.86
11317.36,-6.32
11430.53,-7.17
11544.84,-8.07
11660.29,-8.75
11776.89,-9.19
11894.66,-9.68
12013.60,-10.38
12133.74,-11.07
12255.08,-11.94
12377.63,-13.54
12501.41,-14.73
12626.42,-15.79
12752.68,-16.91
12880.21,-18.08
13009.01,-19.05
13139.10,-19.98
13270.49,-20.49
13403.20,-21.16
13537.23,-21.85
13672.60,-21.99
13809.33,-22.22
13947.42,-22.51
14086.90,-22.35
14227.77,-22.13
14370.04,-22.02
14513.74,-21.58
14658.88,-21.00
14805.47,-20.83
14953.52,-20.84
15103.06,-21.15
15254.09,-21.47
15406.63,-21.63
15560.70,-22.10
15716.30,-22.19
15873.47,-22.11
16032.20,-21.80
16192.52,-21.21
16354.45,-20.81
16517.99,-20.37
16683.17,-20.07
16850.01,-19.91
17018.51,-20.00
17188.69,-20.34
17360.58,-20.76
17534.18,-21.23
17709.53,-21.77
17886.62,-22.35
18065.49,-22.84
18246.14,-23.41
18428.60,-24.07
18612.89,-24.95
18799.02,-25.43
18987.01,-26.03
19176.88,-26.75
19368.65,-26.64
19562.33,-25.53
19757.96,-24.70
19955.54,-23.80
