frequency,raw
20.00,13.66
20.20,13.68
20.40,13.70
20.61,13.72
20.81,13.74
21.02,13.76
21.23,13.79
21.44,13.81
21.66,13.83
21.87,13.86
22.09,13.87
22.31,13.87
22.54,13.87
22.76,13.87
22.99,13.87
23.22,13.87
23.45,13.87
23.69,13.87
23.92,13.87
24.16,13.87
24.40,13.87
24.65,13.87
24.89,13.87
25.14,13.88
25.39,13.91
25.65,13.94
25.91,13.96
26.16,13.99
26.43,14.01
26.69,14.04
26.96,14.07
27.23,14.07
27.50,14.07
27.77,14.07
28.05,14.07
28.33,14.07
28.62,14.07
28.90,14.07
29.19,14.07
29.48,14.07
29.78,14.07
30.08,14.07
30.38,14.07
30.68,14.07
30.99,14.07
31.30,14.07
31.61,14.07
31.93,14.07
32.24,14.07
32.57,14.07
32.89,14.07
33.22,14.07
33.55,14.07
33.89,14.07
34.23,14.07
34.57,14.07
34.92,14.07
35.27,14.07
35.62,14.07
35.97,14.07
36.33,14.07
36.70,14.07
37.06,14.07
37.43,14.07
37.81,14.07
38.19,14.07
38.57,14.07
38.95,14.07
39.34,14.07
39.74,14.07
40.14,14.07
40.54,14.07
40.94,14.07
41.35,14.07
41.76,14.07
42.18,14.07
42.60,14.07
43.03,14.07
43.46,14.07
43.90,14.07
44.33,14.07
44.78,14.07
45.23,14.07
45.68,14.07
46.13,14.07
46.60,14.07
47.06,14.07
47.53,14.07
48.01,14.07
48.49,14.07
48.97,14.07
49.46,14.07
49.96,14.07
50.46,14.07
50.96,14.07
51.47,14.07
51.99,14.07
52.51,14.07
53.03,14.07
53.56,14.07
54.10,14.07
54.64,14.07
55.18,14.07
55.74,14.07
56.29,14.07
56.86,14.07
57.42,14.07
58.00,14.07
58.58,14.07
59.16,14.06
59.76,14.03
60.35,13.98
60.96,13.91
61.57,13.89
62.18,13.87
62.80,13.87
63.43,13.87
64.07,13.87
64.71,13.87
65.35,13.87
66.01,13.87
66.67,13.87
67.33,13.87
68.01,13.87
68.69,13.87
69.37,13.87
70.07,13.87
70.77,13.87
71.48,13.87
72.19,13.87
72.91,13.85
73.64,13.79
74.38,13.76
75.12,13.75
75.87,13.72
76.63,13.68
77.40,13.66
78.17,13.66
78.95,13.66
79.74,13.66
80.54,13.66
81.35,13.66
82.16,13.66
82.98,13.66
83.81,13.66
84.65,13.66
85.50,13.62
86.35,13.56
87.22,13.51
88.09,13.46
88.97,13.47
89.86,13.47
90.76,13.47
91.66,13.47
92.58,13.47
93.51,13.47
94.44,13.45
95.39,13.41
96.34,13.34
97.30,13.26
98.28,13.25
99.26,13.23
100.25,13.22
101.25,13.20
102.27,13.19
103.29,13.17
104.32,13.12
105.37,13.03
106.42,12.99
107.48,12.92
108.56,12.86
109.64,12.84
110.74,12.82
111.85,12.80
112.97,12.79
114.10,12.77
115.24,12.71
116.39,12.64
117.55,12.59
118.73,12.59
119.92,12.60
121.12,12.61
122.33,12.60
123.55,12.56
124.79,12.51
126.03,12.44
127.29,12.44
128.57,12.45
129.85,12.45
131.15,12.43
132.46,12.37
133.79,12.30
135.12,12.27
136.48,12.27
137.84,12.28
139.22,12.25
140.61,12.20
142.02,12.14
143.44,12.10
144.87,12.08
146.32,12.07
147.78,12.01
149.26,11.95
150.75,11.89
152.26,11.88
153.78,11.88
155.32,11.82
156.88,11.78
158.44,11.71
160.03,11.68
161.63,11.64
163.24,11.59
164.88,11.57
166.53,11.57
168.19,11.50
169.87,11.45
171.57,11.43
173.29,11.37
175.02,11.30
176.77,11.24
178.54,11.23
180.32,11.16
182.13,11.10
183.95,11.05
185.79,11.00
187.65,10.97
189.52,10.99
191.42,10.98
193.33,10.94
195.27,10.89
197.22,10.85
199.19,10.78
201.18,10.76
203.19,10.73
205.23,10.69
207.28,10.61
209.35,10.55
211.44,10.48
213.56,10.41
215.69,10.36
217.85,10.35
220.03,10.28
222.23,10.21
224.45,10.15
226.70,10.08
228.96,10.04
231.25,9.97
233.57,9.94
235.90,9.88
238.26,9.88
240.64,9.82
243.05,9.78
245.48,9.76
247.93,9.70
250.41,9.66
252.92,9.60
255.45,9.55
258.00,9.51
260.58,9.44
263.19,9.43
265.82,9.43
268.48,9.31
271.16,9.24
273.87,9.22
276.61,9.12
279.38,9.03
282.17,9.02
284.99,8.95
287.84,8.84
290.72,8.79
293.63,8.68
296.57,8.63
299.53,8.58
302.53,8.51
305.55,8.47
308.61,8.41
311.69,8.35
314.81,8.30
317.96,8.24
321.14,8.17
324.35,8.12
327.59,8.03
330.87,7.93
334.18,7.83
337.52,7.81
340.90,7.74
344.30,7.66
347.75,7.62
351.23,7.53
354.74,7.41
358.28,7.32
361.87,7.30
365.49,7.21
369.14,7.14
372.83,7.07
376.56,6.98
380.33,6.89
384.13,6.84
387.97,6.76
391.85,6.65
395.77,6.58
399.73,6.55
403.72,6.47
407.76,6.38
411.84,6.28
415.96,6.22
420.12,6.10
424.32,5.98
428.56,5.90
432.85,5.83
437.18,5.71
441.55,5.73
445.96,5.75
450.42,5.66
454.93,5.65
459.48,5.63
464.07,5.57
468.71,5.55
473.40,5.56
478.13,5.54
482.91,5.51
487.74,5.43
492.62,5.28
497.55,5.24
502.52,5.29
507.55,5.19
512.62,5.03
517.75,4.89
522.93,4.82
528.16,4.79
533.44,4.72
538.77,4.56
544.16,4.35
549.60,4.27
555.10,4.14
560.65,3.94
566.25,3.71
571.92,3.63
577.64,3.62
583.41,3.44
589.25,3.27
595.14,3.16
601.09,3.00
607.10,2.91
613.17,2.89
619.30,2.79
625.50,2.68
631.75,2.54
638.07,2.32
644.45,2.17
650.89,2.08
657.40,2.09
663.98,2.08
670.62,2.12
677.32,2.11
684.10,1.99
690.94,1.90
697.85,1.68
704.83,1.43
711.87,1.31
718.99,1.42
726.18,1.47
733.44,1.46
740.78,1.44
748.19,1.41
755.67,1.31
763.23,1.36
770.86,1.39
778.57,1.25
786.35,1.11
794.22,1.03
802.16,1.04
810.18,1.04
818.28,0.95
826.46,0.94
834.73,0.85
843.08,0.75
851.51,0.66
860.02,0.62
868.62,0.61
877.31,0.59
886.08,0.51
894.94,0.44
903.89,0.39
912.93,0.36
922.06,0.25
931.28,0.17
940.59,0.17
950.00,0.17
959.50,0.14
969.09,0.03
978.78,-0.01
988.57,0.01
998.46,0.00
1008.44,-0.10
1018.53,-0.14
1028.71,-0.16
1039.00,-0.25
1049.39,-0.29
1059.88,-0.31
1070.48,-0.34
1081.19,-0.35
1092.00,-0.37
1102.92,-0.43
1113.95,-0.45
1125.09,-0.45
1136.34,-0.45
1147.70,-0.43
1159.18,-0.47
1170.77,-0.48
1182.48,-0.48
1194.30,-0.51
1206.25,-0.44
1218.31,-0.34
1230.49,-0.34
1242.80,-0.31
1255.22,-0.24
1267.78,-0.23
1280.45,-0.15
1293.26,-0.01
1306.19,0.07
1319.25,0.19
1332.45,0.34
1345.77,0.49
1359.23,0.64
1372.82,0.79
1386.55,0.93
1400.41,1.12
1414.42,1.38
1428.56,1.62
1442.85,1.80
1457.28,1.98
1471.85,2.21
1486.57,2.45
1501.43,2.67
1516.45,2.87
1531.61,3.10
1546.93,3.36
1562.40,3.54
1578.02,3.70
1593.80,3.90
1609.74,4.03
1625.84,4.18
1642.10,4.39
1658.52,4.51
1675.10,4.56
1691.85,4.53
1708.77,4.59
1725.86,4.69
1743.12,4.66
1760.55,4.67
1778.15,4.76
1795.94,4.76
1813.90,4.73
1832.03,4.81
1850.36,4.87
1868.86,4.84
1887.55,4.72
1906.42,4.66
1925.49,4.65
1944.74,4.55
1964.19,4.47
1983.83,4.38
2003.67,4.26
2023.71,4.17
2043.94,4.17
2064.38,4.12
2085.03,4.08
2105.88,3.98
2126.94,3.92
2148.20,3.92
2169.69,3.83
2191.38,3.75
2213.30,3.75
2235.43,3.72
2257.78,3.66
2280.36,3.62
2303.17,3.55
2326.20,3.39
2349.46,3.34
2372.95,3.24
2396.68,3.13
2420.65,3.01
2444.86,2.93
2469.31,2.83
2494.00,2.72
2518.94,2.69
2544.13,2.69
2569.57,2.64
2595.27,2.62
2621.22,2.61
2647.43,2.61
2673.90,2.60
2700.64,2.63
2727.65,2.65
2754.93,2.61
2782.48,2.62
2810.30,2.60
2838.40,2.52
2866.79,2.44
2895.46,2.37
2924.41,2.26
2953.65,2.18
2983.19,2.12
3013.02,2.09
3043.15,2.11
3073.58,2.09
3104.32,2.06
3135.36,2.07
3166.72,2.06
3198.38,2.01
3230.37,1.97
3262.67,1.86
3295.30,1.75
3328.25,1.69
3361.53,1.63
3395.15,1.59
3429.10,1.67
3463.39,1.66
3498.03,1.60
3533.01,1.62
3568.34,1.64
3604.02,1.64
3640.06,1.63
3676.46,1.62
3713.22,1.57
3750.36,1.43
3787.86,1.40
3825.74,1.32
3864.00,1.27
3902.64,1.25
3941.66,1.31
3981.08,1.48
4020.89,1.61
4061.10,1.80
4101.71,1.97
4142.73,2.08
4184.15,2.18
4226.00,2.30
4268.26,2.42
4310.94,2.53
4354.05,2.68
4397.59,2.93
4441.56,3.12
4485.98,3.32
4530.84,3.63
4576.15,3.88
4621.91,4.10
4668.13,4.39
4714.81,4.69
4761.96,4.99
4809.58,5.40
4857.67,5.87
4906.25,6.30
4955.31,6.84
5004.87,7.34
5054.91,7.79
5105.46,8.22
5156.52,8.78
5208.08,9.43
5260.16,9.81
5312.77,9.72
5365.89,8.96
5419.55,8.60
5473.75,8.50
5528.49,7.99
5583.77,7.52
5639.61,6.83
5696.00,5.96
5752.96,4.99
5810.49,4.09
5868.60,3.13
5927.28,2.20
5986.56,1.45
6046.42,0.53
6106.89,-0.23
6167.96,-0.91
6229.64,-1.53
6291.93,-2.27
6354.85,-3.00
6418.40,-3.59
6482.58,-4.15
6547.41,-4.73
6612.88,-5.25
6679.01,-5.71
6745.80,-5.95
6813.26,-6.19
6881.39,-6.43
6950.21,-6.90
7019.71,-7.36
7089.91,-7.73
7160.81,-7.98
7232.41,-8.25
7304.74,-8.57
7377.79,-8.89
7451.56,-9.36
7526.08,-9.74
7601.34,-10.02
7677.35,-10.21
7754.13,-10.29
7831.67,-10.38
7909.98,-10.49
7989.08,-10.49
8068.98,-10.47
8149.67,-10.42
8231.16,-10.26
8313.47,-10.08
8396.61,-10.06
8480.57,-10.23
8565.38,-10.49
8651.03,-10.54
8737.54,-10.43
8824.92,-10.34
8913.17,-10.54
9002.30,-10.85
9092.32,-10.93
9183.25,-10.99
9275.08,-11.10
9367.83,-11.40
9461.51,-11.62
9556.12,-11.50
9651.68,-11.18
9748.20,-10.56
9845.68,-9.71
9944.14,-8.99
10043.58,-8.46
10144.02,-7.59
10245.46,-7.13
10347.91,-6.97
10451.39,-5.86
10555.91,-4.91
10661.46,-4.32
10768.08,-3.55
10875.76,-3.34
10984.52,-3.67
11094.36,-1.62
11205.31,-0.55
11317.36,-0.46
11430.53,-0.66
11544.84,-2.04
11660.29,-3.15
11776.89,-3.41
11894.66,-3.86
12013.60,-4.49
12133.74,-5.10
12255.08,-6.15
12377.63,-7.53
12501.41,-8.44
12626.42,-9.46
12752.68,-10.74
12880.21,-11.74
13009.01,-12.24
13139.10,-12.45
13270.49,-12.70
13403.20,-13.03
13537.23,-13.56
13672.60,-13.04
13809.33,-12.87
13947.42,-12.62
14086.90,-11.72
14227.77,-10.58
14370.04,-9.43
14513.74,-8.28
14658.88,-6.72
14805.47,-5.30
14953.52,-4.11
15103.06,-3.74
15254.09,-3.63
15406.63,-4.21
15560.70,-6.49
15716.30,-7.98
15873.47,-10.16
16032.20,-10.77
16192.52,-10.70
16354.45,-11.30
16517.99,-12.88
16683.17,-14.50
16850.01,-15.67
17018.51,-17.16
17188.69,-18.79
17360.58,-20.09
17534.18,-21.00
17709.53,-22.08
17886.62,-22.87
18065.49,-23.37
18246.14,-23.86
18428.60,-24.45
18612.89,-24.82
18799.02,-25.27
18987.01,-25.40
19176.88,-25.64
19368.65,-26.18
19562.33,-26.60
19757.96,-26.64
19955.54,-26.66
