frequency,raw
20.00,2.64
20.20,2.63
20.40,2.62
20.61,2.62
20.81,2.61
21.02,2.60
21.23,2.63
21.44,2.65
21.66,2.68
21.87,2.71
22.09,2.73
22.31,2.75
22.54,2.77
22.76,2.80
22.99,2.82
23.22,2.83
23.45,2.84
23.69,2.85
23.92,2.86
24.16,2.87
24.40,2.88
24.65,2.89
24.89,2.90
25.14,2.91
25.39,2.91
25.65,2.91
25.91,2.91
26.16,2.93
26.43,2.95
26.69,2.97
26.96,3.00
27.23,3.01
27.50,3.03
27.77,3.05
28.05,3.06
28.33,3.07
28.62,3.08
28.90,3.10
29.19,3.10
29.48,3.10
29.78,3.10
30.08,3.10
30.38,3.10
30.68,3.10
30.99,3.10
31.30,3.10
31.61,3.10
31.93,3.10
32.24,3.12
32.57,3.16
32.89,3.19
33.22,3.22
33.55,3.25
33.89,3.28
34.23,3.29
34.57,3.29
34.92,3.29
35.27,3.29
35.62,3.29
35.97,3.29
36.33,3.29
36.70,3.29
37.06,3.29
37.43,3.29
37.81,3.29
38.19,3.29
38.57,3.29
38.95,3.29
39.34,3.29
39.74,3.29
40.14,3.29
40.54,3.29
40.94,3.29
41.35,3.33
41.76,3.37
42.18,3.40
42.60,3.41
43.03,3.42
43.46,3.45
43.90,3.48
44.33,3.49
44.78,3.48
45.23,3.48
45.68,3.48
46.13,3.48
46.60,3.48
47.06,3.48
47.53,3.48
48.01,3.48
48.49,3.48
48.97,3.48
49.46,3.48
49.96,3.48
50.46,3.48
50.96,3.48
51.47,3.48
51.99,3.48
52.51,3.48
53.03,3.48
53.56,3.48
54.10,3.48
54.64,3.48
55.18,3.48
55.74,3.48
56.29,3.48
56.86,3.48
57.42,3.48
58.00,3.48
58.58,3.48
59.16,3.50
59.76,3.56
60.35,3.58
60.96,3.58
61.57,3.58
62.18,3.58
62.80,3.58
63.43,3.58
64.07,3.58
64.71,3.58
65.35,3.58
66.01,3.58
66.67,3.58
67.33,3.58
68.01,3.58
68.69,3.58
69.37,3.58
70.07,3.58
70.77,3.58
71.48,3.58
72.19,3.58
72.91,3.58
73.64,3.58
74.38,3.58
75.12,3.58
75.87,3.58
76.63,3.58
77.40,3.58
78.17,3.58
78.95,3.58
79.74,3.58
80.54,3.58
81.35,3.58
82.16,3.58
82.98,3.58
83.81,3.58
84.65,3.58
85.50,3.58
86.35,3.58
87.22,3.58
88.09,3.58
88.97,3.58
89.86,3.58
90.76,3.59
91.66,3.59
92.58,3.59
93.51,3.59
94.44,3.59
95.39,3.59
96.34,3.58
97.30,3.58
98.28,3.57
99.26,3.55
100.25,3.54
101.25,3.52
102.27,3.51
103.29,3.49
104.32,3.47
105.37,3.45
106.42,3.43
107.48,3.40
108.56,3.38
109.64,3.36
110.74,3.34
111.85,3.32
112.97,3.31
114.10,3.30
115.24,3.30
116.39,3.30
117.55,3.31
118.73,3.31
119.92,3.32
121.12,3.33
122.33,3.33
123.55,3.34
124.79,3.35
126.03,3.36
127.29,3.36
128.57,3.37
129.85,3.38
131.15,3.38
132.46,3.37
133.79,3.31
135.12,3.29
136.48,3.24
137.84,3.21
139.22,3.21
140.61,3.21
142.02,3.21
143.44,3.21
144.87,3.21
146.32,3.21
147.78,3.21
149.26,3.21
150.75,3.21
152.26,3.21
153.78,3.21
155.32,3.21
156.88,3.21
158.44,3.21
160.03,3.21
161.63,3.21
163.24,3.21
164.88,3.21
166.53,3.20
168.19,3.20
169.87,3.19
171.57,3.13
173.29,3.08
175.02,3.01
176.77,2.98
178.54,2.98
180.32,2.98
182.13,2.98
183.95,2.99
185.79,3.01
187.65,3.02
189.52,3.04
191.42,3.05
193.33,3.06
195.27,3.08
197.22,3.09
199.19,3.08
201.18,3.04
203.19,3.02
205.23,3.02
207.28,3.02
209.35,3.00
211.44,2.94
213.56,2.92
215.69,2.91
217.85,2.91
220.03,2.91
222.23,2.90
224.45,2.89
226.70,2.82
228.96,2.81
231.25,2.82
233.57,2.83
235.90,2.84
238.26,2.84
240.64,2.80
243.05,2.80
245.48,2.81
247.93,2.84
250.41,2.78
252.92,2.78
255.45,2.79
258.00,2.80
260.58,2.81
263.19,2.81
265.82,2.81
268.48,2.73
271.16,2.67
273.87,2.60
276.61,2.60
279.38,2.60
282.17,2.60
284.99,2.61
287.84,2.62
290.72,2.57
293.63,2.55
296.57,2.55
299.53,2.49
302.53,2.49
305.55,2.50
308.61,2.51
311.69,2.51
314.81,2.45
317.96,2.42
321.14,2.42
324.35,2.40
327.59,2.34
330.87,2.27
334.18,2.24
337.52,2.22
340.90,2.15
344.30,2.13
347.75,2.13
351.23,2.13
354.74,2.12
358.28,2.07
361.87,2.04
365.49,1.97
369.14,1.96
372.83,1.97
376.56,1.98
380.33,1.92
384.13,1.88
387.97,1.82
391.85,1.81
395.77,1.77
399.73,1.72
403.72,1.71
407.76,1.71
411.84,1.66
415.96,1.61
420.12,1.54
424.32,1.52
428.56,1.47
432.85,1.45
437.18,1.48
441.55,1.50
445.96,1.48
450.42,1.50
454.93,1.48
459.48,1.53
464.07,1.52
468.71,1.48
473.40,1.52
478.13,1.57
482.91,1.56
487.74,1.56
492.62,1.52
497.55,1.50
502.52,1.46
507.55,1.48
512.62,1.51
517.75,1.38
522.93,1.30
528.16,1.29
533.44,1.22
538.77,1.15
544.16,1.04
549.60,0.92
555.10,0.80
560.65,0.76
566.25,0.66
571.92,0.50
577.64,0.48
583.41,0.32
589.25,0.21
595.14,0.21
601.09,0.19
607.10,0.15
613.17,0.13
619.30,0.06
625.50,0.01
631.75,-0.03
638.07,-0.04
644.45,-0.08
650.89,-0.08
657.40,-0.20
663.98,-0.19
670.62,-0.07
677.32,-0.04
684.10,-0.16
690.94,-0.15
697.85,-0.17
704.83,-0.21
711.87,-0.28
718.99,-0.34
726.18,-0.40
733.44,-0.43
740.78,-0.43
748.19,-0.47
755.67,-0.59
763.23,-0.63
770.86,-0.65
778.57,-0.66
786.35,-0.67
794.22,-0.65
802.16,-0.65
810.18,-0.74
818.28,-0.75
826.46,-0.75
834.73,-0.75
843.08,-0.75
851.51,-0.76
860.02,-0.76
868.62,-0.70
877.31,-0.68
886.08,-0.61
894.94,-0.60
903.89,-0.53
912.93,-0.52
922.06,-0.52
931.28,-0.50
940.59,-0.39
950.00,-0.33
959.50,-0.25
969.09,-0.22
978.78,-0.21
988.57,-0.13
998.46,-0.02
1008.44,0.02
1018.53,0.11
1028.71,0.17
1039.00,0.26
1049.39,0.33
1059.88,0.38
1070.48,0.49
1081.19,0.56
1092.00,0.61
1102.92,0.67
1113.95,0.73
1125.09,0.79
1136.34,0.87
1147.70,0.95
1159.18,1.03
1170.77,1.08
1182.48,1.14
1194.30,1.24
1206.25,1.29
1218.31,1.29
1230.49,1.25
1242.80,1.29
1255.22,1.38
1267.78,1.40
1280.45,1.39
1293.26,1.33
1306.19,1.29
1319.25,1.22
1332.45,1.20
1345.77,1.14
1359.23,1.01
1372.82,0.93
1386.55,0.84
1400.41,0.66
1414.42,0.52
1428.56,0.42
1442.85,0.24
1457.28,-0.02
1471.85,-0.21
1486.57,-0.31
1501.43,-0.42
1516.45,-0.63
1531.61,-0.82
1546.93,-0.96
1562.40,-1.22
1578.02,-1.48
1593.80,-1.69
1609.74,-1.87
1625.84,-2.05
1642.10,-2.25
1658.52,-2.47
1675.10,-2.60
1691.85,-2.74
1708.77,-2.94
1725.86,-3.14
1743.12,-3.27
1760.55,-3.43
1778.15,-3.62
1795.94,-3.78
1813.90,-3.86
1832.03,-3.96
1850.36,-4.13
1868.86,-4.27
1887.55,-4.37
1906.42,-4.47
1925.49,-4.58
1944.74,-4.66
1964.19,-4.68
1983.83,-4.72
2003.67,-4.74
2023.71,-4.76
2043.94,-4.79
2064.38,-4.85
2085.03,-4.86
2105.88,-4.85
2126.94,-4.83
2148.20,-4.78
2169.69,-4.73
2191.38,-4.72
2213.30,-4.72
2235.43,-4.61
2257.78,-4.51
2280.36,-4.43
2303.17,-4.37
2326.20,-4.31
2349.46,-4.25
2372.95,-4.18
2396.68,-4.08
2420.65,-4.04
2444.86,-3.98
2469.31,-3.92
2494.00,-3.83
2518.94,-3.68
2544.13,-3.49
2569.57,-3.35
2595.27,-3.17
2621.22,-2.98
2647.43,-2.80
2673.90,-2.61
2700.64,-2.42
2727.65,-2.20
2754.93,-2.06
2782.48,-1.93
2810.30,-1.75
2838.40,-1.60
2866.79,-1.48
2895.46,-1.35
2924.41,-1.19
2953.65,-1.00
2983.19,-0.77
3013.02,-0.59
3043.15,-0.41
3073.58,-0.13
3104.32,0.09
3135.36,0.26
3166.72,0.47
3198.38,0.76
3230.37,1.01
3262.67,1.16
3295.30,1.26
3328.25,1.36
3361.53,1.48
3395.15,1.51
3429.10,1.56
3463.39,1.69
3498.03,1.67
3533.01,1.53
3568.34,1.49
3604.02,1.58
3640.06,1.63
3676.46,1.47
3713.22,1.31
3750.36,1.09
3787.86,0.84
3825.74,0.51
3864.00,0.10
3902.64,-0.23
3941.66,-0.52
3981.08,-0.66
4020.89,-0.88
4061.10,-1.34
4101.71,-1.62
4142.73,-1.83
4184.15,-2.06
4226.00,-2.39
4268.26,-2.67
4310.94,-2.95
4354.05,-3.18
4397.59,-3.38
4441.56,-3.48
4485.98,-3.37
4530.84,-3.06
4576.15,-2.75
4621.91,-2.48
4668.13,-2.24
4714.81,-2.05
4761.96,-1.89
4809.58,-1.88
4857.67,-1.88
4906.25,-1.71
4955.31,-1.70
5004.87,-2.01
5054.91,-2.00
5105.46,-2.02
5156.52,-2.09
5208.08,-1.89
5260.16,-1.88
5312.77,-1.72
5365.89,-1.44
5419.55,-1.21
5473.75,-1.11
5528.49,-1.18
5583.77,-1.19
5639.61,-1.17
5696.00,-1.15
5752.96,-1.03
5810.49,-0.95
5868.60,-0.84
5927.28,-0.66
5986.56,-0.53
6046.42,-0.53
6106.89,-0.49
6167.96,-0.53
6229.64,-0.56
6291.93,-0.60
6354.85,-0.70
6418.40,-1.00
6482.58,-1.44
6547.41,-1.87
6612.88,-2.35
6679.01,-2.96
6745.80,-3.53
6813.26,-4.17
6881.39,-4.80
6950.21,-5.47
7019.71,-6.07
7089.91,-6.75
7160.81,-7.46
7232.41,-8.23
7304.74,-8.77
7377.79,-9.48
7451.56,-9.80
7526.08,-9.30
7601.34,-8.47
7677.35,-7.68
7754.13,-6.38
7831.67,-5.00
7909.98,-4.05
7989.08,-2.79
8068.98,-1.90
8149.67,-0.74
8231.16,-0.03
8313.47,0.74
8396.61,1.50
8480.57,2.05
8565.38,2.35
8651.03,2.63
8737.54,2.71
8824.92,2.79
8913.17,2.99
9002.30,3.07
9092.32,3.14
9183.25,3.26
9275.08,3.41
9367.83,3.35
9461.51,3.13
9556.12,2.83
9651.68,2.64
9748.20,2.31
9845.68,1.70
9944.14,1.37
10043.58,1.06
10144.02,0.85
10245.46,0.27
10347.91,-0.15
10451.39,-0.42
10555.91,-0.81
10661.46,-1.25
10768.08,-1.50
10875.76,-1.61
10984.52,-1.97
11094.36,-2.55
11205.31,-2.92
11317.36,-3.72
11430.53,-4.64
11544.84,-5.44
11660.29,-6.09
11776.89,-7.22
11894.66,-8.61
12013.60,-9.89
12133.74,-10.84
12255.08,-12.08
12377.63,-13.21
12501.41,-14.32
12626.42,-15.41
12752.68,-16.92
12880.21,-18.00
13009.01,-18.99
13139.10,-19.93
13270.49,-20.74
13403.20,-21.41
13537.23,-21.75
13672.60,-22.18
13809.33,-22.45
13947.42,-22.63
14086.90,-22.70
14227.77,-22.46
14370.04,-22.23
14513.74,-22.19
14658.88,-22.33
14805.47,-22.34
14953.52,-22.43
15103.06,-22.34
15254.09,-22.09
15406.63,-21.99
15560.70,-21.84
15716.30,-22.00
15873.47,-21.45
16032.20,-20.71
16192.52,-19.97
16354.45,-19.13
16517.99,-18.31
16683.17,-17.40
16850.01,-16.11
17018.51,-15.01
17188.69,-14.17
17360.58,-12.83
17534.18,-12.33
17709.53,-11.94
17886.62,-11.45
18065.49,-11.05
18246.14,-11.50
18428.60,-11.89
18612.89,-11.44
18799.02,-10.72
18987.01,-9.66
19176.88,-9.56
19368.65,-10.59
19562.33,-12.86
19757.96,-14.77
19955.54,-15.98
