frequency,raw
20.00,-1.73
20.20,-1.65
20.40,-1.57
20.61,-1.49
20.81,-1.40
21.02,-1.32
21.23,-1.27
21.44,-1.22
21.66,-1.16
21.87,-1.11
22.09,-1.05
22.31,-0.98
22.54,-0.90
22.76,-0.83
22.99,-0.75
23.22,-0.71
23.45,-0.68
23.69,-0.64
23.92,-0.60
24.16,-0.53
24.40,-0.44
24.65,-0.35
24.89,-0.26
25.14,-0.19
25.39,-0.14
25.65,-0.09
25.91,-0.04
26.16,0.01
26.43,0.07
26.69,0.12
26.96,0.17
27.23,0.23
27.50,0.29
27.77,0.34
28.05,0.40
28.33,0.46
28.62,0.51
28.90,0.57
29.19,0.63
29.48,0.69
29.78,0.75
30.08,0.81
30.38,0.87
30.68,0.93
30.99,0.99
31.30,1.03
31.61,1.07
31.93,1.11
32.24,1.17
32.57,1.23
32.89,1.29
33.22,1.33
33.55,1.35
33.89,1.38
34.23,1.44
34.57,1.50
34.92,1.57
35.27,1.64
35.62,1.71
35.97,1.78
36.33,1.79
36.70,1.79
37.06,1.80
37.43,1.88
37.81,1.95
38.19,2.00
38.57,2.01
38.95,2.02
39.34,2.09
39.74,2.17
40.14,2.24
40.54,2.32
40.94,2.39
41.35,2.40
41.76,2.40
42.18,2.42
42.60,2.46
43.03,2.50
43.46,2.55
43.90,2.59
44.33,2.63
44.78,2.67
45.23,2.72
45.68,2.76
46.13,2.81
46.60,2.86
47.06,2.90
47.53,2.90
48.01,2.90
48.49,3.00
48.97,3.09
49.46,3.10
49.96,3.10
50.46,3.10
50.96,3.10
51.47,3.13
51.99,3.17
52.51,3.24
53.03,3.30
53.56,3.30
54.10,3.30
54.64,3.30
55.18,3.34
55.74,3.45
56.29,3.50
56.86,3.50
57.42,3.50
58.00,3.50
58.58,3.55
59.16,3.61
59.76,3.67
60.35,3.70
60.96,3.70
61.57,3.70
62.18,3.72
62.80,3.79
63.43,3.81
64.07,3.82
64.71,3.88
65.35,3.91
66.01,3.91
66.67,3.91
67.33,3.92
68.01,3.95
68.69,3.99
69.37,4.01
70.07,4.02
70.77,4.09
71.48,4.11
72.19,4.11
72.91,4.11
73.64,4.14
74.38,4.18
75.12,4.21
75.87,4.21
76.63,4.21
77.40,4.21
78.17,4.22
78.95,4.26
79.74,4.30
80.54,4.32
81.35,4.35
82.16,4.41
82.98,4.41
83.81,4.41
84.65,4.41
85.50,4.41
86.35,4.41
87.22,4.43
88.09,4.51
88.97,4.51
89.86,4.51
90.76,4.51
91.66,4.58
92.58,4.62
93.51,4.62
94.44,4.62
95.39,4.62
96.34,4.61
97.30,4.61
98.28,4.60
99.26,4.58
100.25,4.57
101.25,4.57
102.27,4.60
103.29,4.61
104.32,4.63
105.37,4.68
106.42,4.66
107.48,4.63
108.56,4.61
109.64,4.59
110.74,4.57
111.85,4.55
112.97,4.54
114.10,4.53
115.24,4.53
116.39,4.53
117.55,4.54
118.73,4.61
119.92,4.65
121.12,4.66
122.33,4.67
123.55,4.67
124.79,4.68
126.03,4.69
127.29,4.69
128.57,4.70
129.85,4.71
131.15,4.72
132.46,4.79
133.79,4.82
135.12,4.82
136.48,4.83
137.84,4.83
139.22,4.83
140.61,4.83
142.02,4.83
143.44,4.83
144.87,4.83
146.32,4.83
147.78,4.83
149.26,4.83
150.75,4.85
152.26,4.90
153.78,4.94
155.32,4.94
156.88,4.94
158.44,4.94
160.03,4.94
161.63,4.94
163.24,4.93
164.88,4.93
166.53,4.93
168.19,4.92
169.87,4.91
171.57,4.91
173.29,4.90
175.02,4.89
176.77,4.89
178.54,4.89
180.32,4.89
182.13,4.90
183.95,4.91
185.79,4.92
187.65,4.94
189.52,4.95
191.42,4.96
193.33,4.98
195.27,4.99
197.22,5.01
199.19,5.02
201.18,5.09
203.19,5.13
205.23,5.13
207.28,5.13
209.35,5.13
211.44,5.13
213.56,5.13
215.69,5.12
217.85,5.18
220.03,5.21
222.23,5.21
224.45,5.21
226.70,5.21
228.96,5.22
231.25,5.22
233.57,5.23
235.90,5.25
238.26,5.26
240.64,5.28
243.05,5.29
245.48,5.31
247.93,5.34
250.41,5.42
252.92,5.48
255.45,5.49
258.00,5.50
260.58,5.50
263.19,5.50
265.82,5.50
268.48,5.50
271.16,5.46
273.87,5.39
276.61,5.39
279.38,5.39
282.17,5.39
284.99,5.40
287.84,5.41
290.72,5.46
293.63,5.52
296.57,5.54
299.53,5.56
302.53,5.57
305.55,5.58
308.61,5.59
311.69,5.59
314.81,5.60
317.96,5.60
321.14,5.60
324.35,5.60
327.59,5.60
330.87,5.60
334.18,5.59
337.52,5.65
340.90,5.68
344.30,5.69
347.75,5.69
351.23,5.69
354.74,5.69
358.28,5.71
361.87,5.77
365.49,5.81
369.14,5.82
372.83,5.83
376.56,5.83
380.33,5.84
384.13,5.85
387.97,5.87
391.85,5.94
395.77,5.96
399.73,5.96
403.72,5.96
407.76,5.95
411.84,5.95
415.96,5.95
420.12,5.91
424.32,5.86
428.56,5.79
432.85,5.73
437.18,5.68
441.55,5.71
445.96,5.77
450.42,5.84
454.93,5.89
459.48,5.95
464.07,6.02
468.71,6.07
473.40,6.13
478.13,6.19
482.91,6.23
487.74,6.28
492.62,6.34
497.55,6.32
502.52,6.18
507.55,6.15
512.62,6.19
517.75,6.23
522.93,6.13
528.16,5.98
533.44,5.96
538.77,5.86
544.16,5.76
549.60,5.78
555.10,5.71
560.65,5.46
566.25,5.43
571.92,5.42
577.64,5.18
583.41,5.10
589.25,5.01
595.14,4.85
601.09,4.89
607.10,4.82
613.17,4.72
619.30,4.60
625.50,4.52
631.75,4.49
638.07,4.45
644.45,4.39
650.89,4.30
657.40,4.24
663.98,4.20
670.62,4.18
677.32,4.12
684.10,4.01
690.94,3.87
697.85,3.75
704.83,3.66
711.87,3.54
718.99,3.39
726.18,3.29
733.44,3.21
740.78,3.06
748.19,2.92
755.67,2.76
763.23,2.60
770.86,2.47
778.57,2.32
786.35,2.21
794.22,2.14
802.16,2.03
810.18,1.89
818.28,1.76
826.46,1.69
834.73,1.60
843.08,1.43
851.51,1.27
860.02,1.20
868.62,1.11
877.31,0.98
886.08,0.87
894.94,0.75
903.89,0.69
912.93,0.66
922.06,0.54
931.28,0.44
940.59,0.38
950.00,0.30
959.50,0.20
969.09,0.10
978.78,0.09
988.57,0.04
998.46,0.01
1008.44,-0.05
1018.53,-0.05
1028.71,-0.02
1039.00,-0.10
1049.39,-0.14
1059.88,-0.12
1070.48,-0.14
1081.19,-0.15
1092.00,-0.17
1102.92,-0.17
1113.95,-0.15
1125.09,-0.17
1136.34,-0.12
1147.70,-0.04
1159.18,-0.03
1170.77,0.04
1182.48,0.08
1194.30,0.08
1206.25,0.16
1218.31,0.23
1230.49,0.31
1242.80,0.36
1255.22,0.35
1267.78,0.39
1280.45,0.53
1293.26,0.64
1306.19,0.73
1319.25,0.84
1332.45,0.95
1345.77,1.03
1359.23,1.13
1372.82,1.16
1386.55,1.30
1400.41,1.47
1414.42,1.75
1428.56,1.80
1442.85,1.84
1457.28,2.03
1471.85,2.20
1486.57,2.35
1501.43,2.49
1516.45,2.70
1531.61,2.88
1546.93,2.94
1562.40,3.08
1578.02,3.32
1593.80,3.59
1609.74,3.72
1625.84,3.81
1642.10,3.96
1658.52,4.12
1675.10,4.41
1691.85,4.73
1708.77,4.98
1725.86,5.11
1743.12,5.41
1760.55,5.61
1778.15,5.69
1795.94,5.89
1813.90,6.20
1832.03,6.49
1850.36,6.63
1868.86,6.91
1887.55,7.23
1906.42,7.19
1925.49,7.29
1944.74,7.79
1964.19,7.99
1983.83,8.08
2003.67,8.18
2023.71,8.21
2043.94,8.47
2064.38,8.70
2085.03,8.74
2105.88,9.10
2126.94,9.31
2148.20,9.46
2169.69,9.48
2191.38,9.56
2213.30,9.63
2235.43,9.51
2257.78,9.41
2280.36,9.41
2303.17,9.39
2326.20,9.22
2349.46,9.13
2372.95,9.02
2396.68,8.76
2420.65,8.52
2444.86,8.34
2469.31,8.15
2494.00,7.90
2518.94,7.79
2544.13,7.72
2569.57,7.44
2595.27,7.35
2621.22,7.34
2647.43,7.24
2673.90,7.15
2700.64,7.03
2727.65,6.85
2754.93,6.70
2782.48,6.53
2810.30,6.28
2838.40,6.04
2866.79,5.82
2895.46,5.61
2924.41,5.37
2953.65,5.04
2983.19,4.89
3013.02,4.79
3043.15,4.63
3073.58,4.50
3104.32,4.40
3135.36,4.29
3166.72,4.19
3198.38,4.12
3230.37,4.04
3262.67,3.88
3295.30,3.73
3328.25,3.55
3361.53,3.40
3395.15,3.25
3429.10,3.17
3463.39,3.13
3498.03,3.12
3533.01,3.14
3568.34,3.15
3604.02,3.11
3640.06,3.05
3676.46,2.95
3713.22,2.85
3750.36,2.74
3787.86,2.63
3825.74,2.53
3864.00,2.45
3902.64,2.45
3941.66,2.55
3981.08,2.74
4020.89,2.87
4061.10,2.95
4101.71,3.08
4142.73,3.25
4184.15,3.33
4226.00,3.44
4268.26,3.66
4310.94,3.82
4354.05,3.98
4397.59,4.20
4441.56,4.34
4485.98,4.53
4530.84,4.87
4576.15,5.18
4621.91,5.41
4668.13,5.64
4714.81,5.87
4761.96,6.11
4809.58,6.46
4857.67,6.92
4906.25,7.19
4955.31,7.41
5004.87,7.67
5054.91,7.87
5105.46,8.04
5156.52,8.30
5208.08,8.51
5260.16,8.63
5312.77,8.71
5365.89,8.62
5419.55,8.51
5473.75,8.28
5528.49,7.76
5583.77,7.40
5639.61,7.00
5696.00,6.49
5752.96,5.92
5810.49,5.38
5868.60,4.81
5927.28,4.28
5986.56,3.79
6046.42,3.32
6106.89,2.76
6167.96,2.24
6229.64,1.68
6291.93,1.23
6354.85,0.88
6418.40,0.37
6482.58,-0.17
6547.41,-0.65
6612.88,-1.06
6679.01,-1.21
6745.80,-1.33
6813.26,-1.66
6881.39,-2.02
6950.21,-1.86
7019.71,-2.32
7089.91,-2.56
7160.81,-2.44
7232.41,-2.28
7304.74,-2.20
7377.79,-2.06
7451.56,-2.03
7526.08,-2.06
7601.34,-1.85
7677.35,-1.55
7754.13,-1.18
7831.67,-0.78
7909.98,-0.16
7989.08,0.72
8068.98,1.26
8149.67,1.55
8231.16,1.94
8313.47,2.27
8396.61,2.71
8480.57,2.87
8565.38,2.10
8651.03,1.61
8737.54,1.04
8824.92,-0.12
8913.17,-1.11
9002.30,-1.92
9092.32,-3.46
9183.25,-3.44
9275.08,-2.18
9367.83,-0.61
9461.51,-0.47
9556.12,-1.35
9651.68,-2.09
9748.20,-2.63
9845.68,-3.78
9944.14,-4.90
10043.58,-6.45
10144.02,-7.35
10245.46,-8.22
10347.91,-9.08
10451.39,-9.62
10555.91,-9.84
10661.46,-9.80
10768.08,-9.24
10875.76,-8.86
10984.52,-8.87
11094.36,-9.03
11205.31,-8.78
11317.36,-8.89
11430.53,-9.07
11544.84,-9.45
11660.29,-9.67
11776.89,-9.89
11894.66,-10.26
12013.60,-10.44
12133.74,-10.28
12255.08,-9.96
12377.63,-9.53
12501.41,-9.38
12626.42,-8.89
12752.68,-8.04
12880.21,-7.70
13009.01,-7.38
13139.10,-7.15
13270.49,-7.67
13403.20,-8.79
13537.23,-10.32
13672.60,-12.53
13809.33,-14.30
13947.42,-15.90
14086.90,-17.90
14227.77,-19.43
14370.04,-20.40
14513.74,-21.28
14658.88,-21.67
14805.47,-22.19
14953.52,-23.21
15103.06,-23.75
15254.09,-23.05
15406.63,-20.72
15560.70,-20.71
15716.30,-21.25
15873.47,-21.54
16032.20,-21.82
16192.52,-22.06
16354.45,-21.78
16517.99,-20.99
16683.17,-20.15
16850.01,-20.20
17018.51,-21.16
17188.69,-22.17
17360.58,-22.55
17534.18,-21.49
17709.53,-20.81
17886.62,-21.24
18065.49,-22.02
18246.14,-22.60
18428.60,-22.91
18612.89,-22.57
18799.02,-22.13
18987.01,-21.10
19176.88,-20.30
19368.65,-19.13
19562.33,-18.20
19757.96,-17.52
19955.54,-16.85
