frequency,raw
20.00,-2.44
20.20,-2.38
20.40,-2.32
20.61,-2.26
20.81,-2.20
21.02,-2.14
21.23,-2.09
21.44,-2.05
21.66,-2.01
21.87,-1.96
22.09,-1.94
22.31,-1.93
22.54,-1.92
22.76,-1.91
22.99,-1.90
23.22,-1.86
23.45,-1.81
23.69,-1.77
23.92,-1.72
24.16,-1.68
24.40,-1.64
24.65,-1.60
24.89,-1.56
25.14,-1.53
25.39,-1.50
25.65,-1.47
25.91,-1.45
26.16,-1.42
26.43,-1.39
26.69,-1.36
26.96,-1.33
27.23,-1.31
27.50,-1.28
27.77,-1.25
28.05,-1.22
28.33,-1.19
28.62,-1.15
28.90,-1.11
29.19,-1.09
29.48,-1.07
29.78,-1.05
30.08,-1.02
30.38,-0.99
30.68,-0.96
30.99,-0.93
31.30,-0.90
31.61,-0.87
31.93,-0.84
32.24,-0.81
32.57,-0.77
32.89,-0.74
33.22,-0.73
33.55,-0.73
33.89,-0.73
34.23,-0.70
34.57,-0.66
34.92,-0.61
35.27,-0.58
35.62,-0.56
35.97,-0.53
36.33,-0.53
36.70,-0.53
37.06,-0.52
37.43,-0.49
37.81,-0.45
38.19,-0.43
38.57,-0.43
38.95,-0.43
39.34,-0.40
39.74,-0.36
40.14,-0.32
40.54,-0.28
40.94,-0.24
41.35,-0.23
41.76,-0.23
42.18,-0.23
42.60,-0.23
43.03,-0.23
43.46,-0.23
43.90,-0.23
44.33,-0.23
44.78,-0.23
45.23,-0.18
45.68,-0.09
46.13,-0.03
46.60,-0.03
47.06,-0.03
47.53,-0.03
48.01,-0.03
48.49,-0.03
48.97,-0.03
49.46,-0.03
49.96,-0.03
50.46,-0.03
50.96,-0.03
51.47,0.02
51.99,0.07
52.51,0.07
53.03,0.07
53.56,0.07
54.10,0.08
54.64,0.13
55.18,0.17
55.74,0.17
56.29,0.17
56.86,0.17
57.42,0.17
58.00,0.17
58.58,0.22
59.16,0.26
59.76,0.27
60.35,0.27
60.96,0.27
61.57,0.27
62.18,0.27
62.80,0.27
63.43,0.27
64.07,0.27
64.71,0.27
65.35,0.27
66.01,0.27
66.67,0.27
67.33,0.27
68.01,0.27
68.69,0.27
69.37,0.27
70.07,0.27
70.77,0.27
71.48,0.27
72.19,0.27
72.91,0.27
73.64,0.27
74.38,0.30
75.12,0.37
75.87,0.46
76.63,0.48
77.40,0.48
78.17,0.48
78.95,0.48
79.74,0.48
80.54,0.48
81.35,0.48
82.16,0.47
82.98,0.47
83.81,0.47
84.65,0.47
85.50,0.47
86.35,0.48
87.22,0.48
88.09,0.48
88.97,0.48
89.86,0.48
90.76,0.48
91.66,0.48
92.58,0.48
93.51,0.48
94.44,0.48
95.39,0.48
96.34,0.48
97.30,0.47
98.28,0.46
99.26,0.45
100.25,0.43
101.25,0.41
102.27,0.40
103.29,0.39
104.32,0.37
105.37,0.31
106.42,0.22
107.48,0.19
108.56,0.17
109.64,0.15
110.74,0.13
111.85,0.11
112.97,0.10
114.10,0.10
115.24,0.10
116.39,0.10
117.55,0.10
118.73,0.11
119.92,0.11
121.12,0.12
122.33,0.13
123.55,0.14
124.79,0.14
126.03,0.15
127.29,0.16
128.57,0.16
129.85,0.17
131.15,0.17
132.46,0.18
133.79,0.18
135.12,0.19
136.48,0.19
137.84,0.19
139.22,0.20
140.61,0.20
142.02,0.20
143.44,0.20
144.87,0.20
146.32,0.20
147.78,0.18
149.26,0.13
150.75,0.10
152.26,0.04
153.78,0.00
155.32,0.00
156.88,0.00
158.44,0.00
160.03,0.00
161.63,0.00
163.24,-0.01
164.88,-0.01
166.53,-0.01
168.19,-0.02
169.87,-0.03
171.57,-0.03
173.29,-0.04
175.02,-0.04
176.77,-0.05
178.54,-0.05
180.32,-0.05
182.13,-0.05
183.95,-0.09
185.79,-0.13
187.65,-0.19
189.52,-0.19
191.42,-0.18
193.33,-0.16
195.27,-0.15
197.22,-0.13
199.19,-0.12
201.18,-0.11
203.19,-0.11
205.23,-0.11
207.28,-0.11
209.35,-0.11
211.44,-0.12
213.56,-0.20
215.69,-0.26
217.85,-0.32
220.03,-0.33
222.23,-0.33
224.45,-0.33
226.70,-0.33
228.96,-0.33
231.25,-0.32
233.57,-0.31
235.90,-0.30
238.26,-0.28
240.64,-0.30
243.05,-0.34
245.48,-0.40
247.93,-0.40
250.41,-0.38
252.92,-0.37
255.45,-0.36
258.00,-0.35
260.58,-0.34
263.19,-0.34
265.82,-0.34
268.48,-0.34
271.16,-0.38
273.87,-0.45
276.61,-0.52
279.38,-0.55
282.17,-0.55
284.99,-0.55
287.84,-0.54
290.72,-0.53
293.63,-0.61
296.57,-0.60
299.53,-0.59
302.53,-0.58
305.55,-0.57
308.61,-0.56
311.69,-0.63
314.81,-0.72
317.96,-0.75
321.14,-0.75
324.35,-0.75
327.59,-0.75
330.87,-0.75
334.18,-0.75
337.52,-0.78
340.90,-0.84
344.30,-0.86
347.75,-0.86
351.23,-0.86
354.74,-0.85
358.28,-0.85
361.87,-0.90
365.49,-1.01
369.14,-1.03
372.83,-1.02
376.56,-1.02
380.33,-1.01
384.13,-1.00
387.97,-1.05
391.85,-1.08
395.77,-1.09
399.73,-1.09
403.72,-1.10
407.76,-1.17
411.84,-1.24
415.96,-1.29
420.12,-1.30
424.32,-1.36
428.56,-1.38
432.85,-1.39
437.18,-1.43
441.55,-1.41
445.96,-1.37
450.42,-1.32
454.93,-1.29
459.48,-1.29
464.07,-1.31
468.71,-1.28
473.40,-1.22
478.13,-1.17
482.91,-1.12
487.74,-1.09
492.62,-1.12
497.55,-1.12
502.52,-1.09
507.55,-1.07
512.62,-1.05
517.75,-1.05
522.93,-1.11
528.16,-1.15
533.44,-1.17
538.77,-1.26
544.16,-1.42
549.60,-1.49
555.10,-1.54
560.65,-1.59
566.25,-1.67
571.92,-1.78
577.64,-1.82
583.41,-1.84
589.25,-1.86
595.14,-1.87
601.09,-1.87
607.10,-1.86
613.17,-1.85
619.30,-1.90
625.50,-1.94
631.75,-1.96
638.07,-1.94
644.45,-1.91
650.89,-1.87
657.40,-1.82
663.98,-1.77
670.62,-1.72
677.32,-1.67
684.10,-1.62
690.94,-1.50
697.85,-1.45
704.83,-1.43
711.87,-1.42
718.99,-1.43
726.18,-1.44
733.44,-1.47
740.78,-1.49
748.19,-1.48
755.67,-1.46
763.23,-1.40
770.86,-1.39
778.57,-1.41
786.35,-1.41
794.22,-1.39
802.16,-1.33
810.18,-1.26
818.28,-1.20
826.46,-1.12
834.73,-1.10
843.08,-1.10
851.51,-1.02
860.02,-0.92
868.62,-0.91
877.31,-0.84
886.08,-0.75
894.94,-0.73
903.89,-0.66
912.93,-0.57
922.06,-0.55
931.28,-0.48
940.59,-0.38
950.00,-0.35
959.50,-0.28
969.09,-0.24
978.78,-0.17
988.57,-0.12
998.46,-0.02
1008.44,0.10
1018.53,0.15
1028.71,0.21
1039.00,0.29
1049.39,0.41
1059.88,0.47
1070.48,0.52
1081.19,0.56
1092.00,0.63
1102.92,0.76
1113.95,0.89
1125.09,0.99
1136.34,1.08
1147.70,1.16
1159.18,1.24
1170.77,1.34
1182.48,1.38
1194.30,1.44
1206.25,1.54
1218.31,1.66
1230.49,1.75
1242.80,1.82
1255.22,1.84
1267.78,1.91
1280.45,2.01
1293.26,2.10
1306.19,2.17
1319.25,2.27
1332.45,2.34
1345.77,2.43
1359.23,2.54
1372.82,2.64
1386.55,2.73
1400.41,2.79
1414.42,2.87
1428.56,2.88
1442.85,2.94
1457.28,3.00
1471.85,3.10
1486.57,3.20
1501.43,3.29
1516.45,3.38
1531.61,3.45
1546.93,3.53
1562.40,3.60
1578.02,3.66
1593.80,3.73
1609.74,3.79
1625.84,3.86
1642.10,3.92
1658.52,4.04
1675.10,4.15
1691.85,4.22
1708.77,4.30
1725.86,4.38
1743.12,4.47
1760.55,4.56
1778.15,4.66
1795.94,4.70
1813.90,4.78
1832.03,4.89
1850.36,4.96
1868.86,5.05
1887.55,5.17
1906.42,5.29
1925.49,5.35
1944.74,5.43
1964.19,5.50
1983.83,5.55
2003.67,5.65
2023.71,5.76
2043.94,5.82
2064.38,5.88
2085.03,5.97
2105.88,6.09
2126.94,6.23
2148.20,6.35
2169.69,6.45
2191.38,6.62
2213.30,6.74
2235.43,6.82
2257.78,6.90
2280.36,6.98
2303.17,7.06
2326.20,7.11
2349.46,7.19
2372.95,7.33
2396.68,7.37
2420.65,7.38
2444.86,7.40
2469.31,7.43
2494.00,7.48
2518.94,7.53
2544.13,7.67
2569.57,7.84
2595.27,7.93
2621.22,8.04
2647.43,8.21
2673.90,8.24
2700.64,8.32
2727.65,8.43
2754.93,8.44
2782.48,8.42
2810.30,8.41
2838.40,8.34
2866.79,8.21
2895.46,8.09
2924.41,7.98
2953.65,7.83
2983.19,7.74
3013.02,7.69
3043.15,7.64
3073.58,7.59
3104.32,7.51
3135.36,7.40
3166.72,7.37
3198.38,7.28
3230.37,7.16
3262.67,6.99
3295.30,6.80
3328.25,6.65
3361.53,6.50
3395.15,6.36
3429.10,6.28
3463.39,6.23
3498.03,6.17
3533.01,6.03
3568.34,5.96
3604.02,5.88
3640.06,5.77
3676.46,5.67
3713.22,5.54
3750.36,5.36
3787.86,5.16
3825.74,4.92
3864.00,4.74
3902.64,4.58
3941.66,4.53
3981.08,4.57
4020.89,4.59
4061.10,4.58
4101.71,4.59
4142.73,4.54
4184.15,4.51
4226.00,4.49
4268.26,4.45
4310.94,4.40
4354.05,4.39
4397.59,4.35
4441.56,4.31
4485.98,4.29
4530.84,4.24
4576.15,4.13
4621.91,4.07
4668.13,4.00
4714.81,3.92
4761.96,3.77
4809.58,3.69
4857.67,3.56
4906.25,3.37
4955.31,3.23
5004.87,3.04
5054.91,2.84
5105.46,2.68
5156.52,2.47
5208.08,2.30
5260.16,2.16
5312.77,2.02
5365.89,1.95
5419.55,1.86
5473.75,1.77
5528.49,1.65
5583.77,1.46
5639.61,1.22
5696.00,0.99
5752.96,0.75
5810.49,0.49
5868.60,0.28
5927.28,0.02
5986.56,-0.16
6046.42,-0.40
6106.89,-0.70
6167.96,-0.94
6229.64,-1.17
6291.93,-1.40
6354.85,-1.70
6418.40,-1.95
6482.58,-2.20
6547.41,-2.52
6612.88,-2.78
6679.01,-2.96
6745.80,-3.07
6813.26,-3.07
6881.39,-3.08
6950.21,-3.01
7019.71,-2.95
7089.91,-2.76
7160.81,-2.70
7232.41,-2.85
7304.74,-3.14
7377.79,-3.27
7451.56,-3.35
7526.08,-3.44
7601.34,-3.24
7677.35,-2.98
7754.13,-2.85
7831.67,-2.69
7909.98,-2.37
7989.08,-2.00
8068.98,-1.64
8149.67,-1.28
8231.16,-0.88
8313.47,0.10
8396.61,0.86
8480.57,1.52
8565.38,1.71
8651.03,1.94
8737.54,2.54
8824.92,2.68
8913.17,2.15
9002.30,0.97
9092.32,0.83
9183.25,1.09
9275.08,1.15
9367.83,1.27
9461.51,1.19
9556.12,1.66
9651.68,3.09
9748.20,4.42
9845.68,5.11
9944.14,5.24
10043.58,4.84
10144.02,4.17
10245.46,3.43
10347.91,3.17
10451.39,3.36
10555.91,3.38
10661.46,2.95
10768.08,2.18
10875.76,1.88
10984.52,1.50
11094.36,1.02
11205.31,0.63
11317.36,0.14
11430.53,-0.14
11544.84,-0.59
11660.29,-0.97
11776.89,-1.58
11894.66,-2.15
12013.60,-2.47
12133.74,-2.62
12255.08,-2.83
12377.63,-3.11
12501.41,-3.36
12626.42,-3.42
12752.68,-3.34
12880.21,-3.38
13009.01,-3.38
13139.10,-3.25
13270.49,-3.23
13403.20,-3.09
13537.23,-3.21
13672.60,-2.91
13809.33,-2.66
13947.42,-2.50
14086.90,-2.07
14227.77,-1.72
14370.04,-1.36
14513.74,-0.83
14658.88,-0.93
14805.47,-1.33
14953.52,-1.64
15103.06,-1.63
15254.09,-1.22
15406.63,-0.71
15560.70,0.32
15716.30,0.53
15873.47,0.84
16032.20,-0.07
16192.52,-1.03
16354.45,-2.76
16517.99,-4.55
16683.17,-6.67
16850.01,-8.18
17018.51,-9.93
17188.69,-12.23
17360.58,-13.87
17534.18,-15.50
17709.53,-17.32
17886.62,-18.87
18065.49,-20.04
18246.14,-21.55
18428.60,-23.08
18612.89,-24.38
18799.02,-25.75
18987.01,-27.96
19176.88,-29.29
19368.65,-31.35
19562.33,-33.12
19757.96,-35.27
19955.54,-36.39
