frequency,raw
20.00,9.58
20.20,9.52
20.40,9.47
20.61,9.41
20.81,9.36
21.02,9.31
21.23,9.31
21.44,9.31
21.66,9.32
21.87,9.32
22.09,9.33
22.31,9.35
22.54,9.37
22.76,9.40
22.99,9.42
23.22,9.46
23.45,9.49
23.69,9.53
23.92,9.57
24.16,9.55
24.40,9.51
24.65,9.48
24.89,9.44
25.14,9.42
25.39,9.42
25.65,9.42
25.91,9.42
26.16,9.42
26.43,9.42
26.69,9.42
26.96,9.42
27.23,9.42
27.50,9.42
27.77,9.42
28.05,9.42
28.33,9.42
28.62,9.42
28.90,9.42
29.19,9.42
29.48,9.42
29.78,9.42
30.08,9.42
30.38,9.40
30.68,9.39
30.99,9.38
31.30,9.36
31.61,9.34
31.93,9.32
32.24,9.32
32.57,9.32
32.89,9.32
33.22,9.32
33.55,9.32
33.89,9.32
34.23,9.32
34.57,9.32
34.92,9.32
35.27,9.32
35.62,9.32
35.97,9.32
36.33,9.33
36.70,9.33
37.06,9.33
37.43,9.29
37.81,9.24
38.19,9.22
38.57,9.22
38.95,9.22
39.34,9.22
39.74,9.22
40.14,9.20
40.54,9.14
40.94,9.08
41.35,9.05
41.76,9.03
42.18,9.02
42.60,9.02
43.03,9.02
43.46,9.03
43.90,9.05
44.33,9.01
44.78,8.95
45.23,8.92
45.68,8.92
46.13,8.92
46.60,8.92
47.06,8.92
47.53,8.89
48.01,8.87
48.49,8.84
48.97,8.81
49.46,8.76
49.96,8.70
50.46,8.71
50.96,8.72
51.47,8.73
51.99,8.74
52.51,8.68
53.03,8.62
53.56,8.62
54.10,8.62
54.64,8.62
55.18,8.61
55.74,8.56
56.29,8.50
56.86,8.44
57.42,8.42
58.00,8.42
58.58,8.42
59.16,8.42
59.76,8.42
60.35,8.40
60.96,8.37
61.57,8.28
62.18,8.22
62.80,8.22
63.43,8.22
64.07,8.22
64.71,8.22
65.35,8.22
66.01,8.21
66.67,8.15
67.33,8.08
68.01,8.01
68.69,8.01
69.37,8.01
70.07,8.01
70.77,8.02
71.48,8.00
72.19,7.95
72.91,7.82
73.64,7.81
74.38,7.81
75.12,7.81
75.87,7.81
76.63,7.79
77.40,7.75
78.17,7.69
78.95,7.61
79.74,7.61
80.54,7.61
81.35,7.60
82.16,7.56
82.98,7.49
83.81,7.52
84.65,7.51
85.50,7.46
86.35,7.37
87.22,7.29
88.09,7.30
88.97,7.31
89.86,7.31
90.76,7.32
91.66,7.30
92.58,7.25
93.51,7.17
94.44,7.13
95.39,7.12
96.34,7.11
97.30,7.11
98.28,7.06
99.26,6.96
100.25,6.95
101.25,6.87
102.27,6.83
103.29,6.81
104.32,6.75
105.37,6.64
106.42,6.63
107.48,6.63
108.56,6.58
109.64,6.49
110.74,6.40
111.85,6.35
112.97,6.34
114.10,6.33
115.24,6.31
116.39,6.22
117.55,6.17
118.73,6.21
119.92,6.28
121.12,6.21
122.33,6.09
123.55,6.05
124.79,6.07
126.03,6.08
127.29,6.09
128.57,6.02
129.85,5.93
131.15,5.99
132.46,6.05
133.79,5.98
135.12,5.90
136.48,5.78
137.84,5.77
139.22,5.80
140.61,5.83
142.02,5.88
143.44,5.77
144.87,5.63
146.32,5.62
147.78,5.62
149.26,5.61
150.75,5.51
152.26,5.47
153.78,5.51
155.32,5.58
156.88,5.63
158.44,5.49
160.03,5.37
161.63,5.25
163.24,5.28
164.88,5.32
166.53,5.31
168.19,5.30
169.87,5.21
171.57,5.08
173.29,5.08
175.02,5.08
176.77,5.08
178.54,4.91
180.32,4.98
182.13,5.01
183.95,4.89
185.79,4.91
187.65,4.92
189.52,4.81
191.42,4.82
193.33,4.91
195.27,4.84
197.22,4.75
199.19,4.64
201.18,4.60
203.19,4.72
205.23,4.82
207.28,4.72
209.35,4.58
211.44,4.43
213.56,4.44
215.69,4.49
217.85,4.50
220.03,4.58
222.23,4.55
224.45,4.28
226.70,4.19
228.96,4.30
231.25,4.30
233.57,4.34
235.90,4.34
238.26,4.23
240.64,4.16
243.05,4.23
245.48,4.31
247.93,4.16
250.41,3.96
252.92,4.00
255.45,4.06
258.00,4.10
260.58,4.18
263.19,4.10
265.82,3.99
268.48,3.80
271.16,3.80
273.87,3.95
276.61,3.93
279.38,3.80
282.17,3.77
284.99,3.73
287.84,3.68
290.72,3.69
293.63,3.61
296.57,3.66
299.53,3.72
302.53,3.54
305.55,3.37
308.61,3.42
311.69,3.48
314.81,3.55
317.96,3.47
321.14,3.37
324.35,3.29
327.59,3.24
330.87,3.19
334.18,3.17
337.52,3.11
340.90,3.07
344.30,3.01
347.75,3.02
351.23,3.02
354.74,2.91
358.28,2.87
361.87,2.83
365.49,2.79
369.14,2.71
372.83,2.72
376.56,2.76
380.33,2.67
384.13,2.60
387.97,2.54
391.85,2.47
395.77,2.44
399.73,2.45
403.72,2.39
407.76,2.24
411.84,2.19
415.96,2.23
420.12,2.22
424.32,2.14
428.56,2.06
432.85,2.03
437.18,2.01
441.55,1.98
445.96,1.96
450.42,2.00
454.93,2.02
459.48,2.03
464.07,2.01
468.71,2.04
473.40,2.10
478.13,2.09
482.91,2.11
487.74,2.07
492.62,2.07
497.55,2.03
502.52,2.02
507.55,2.01
512.62,1.97
517.75,1.90
522.93,1.85
528.16,1.77
533.44,1.74
538.77,1.65
544.16,1.49
549.60,1.42
555.10,1.37
560.65,1.24
566.25,1.14
571.92,1.04
577.64,0.90
583.41,0.79
589.25,0.75
595.14,0.73
601.09,0.65
607.10,0.61
613.17,0.57
619.30,0.51
625.50,0.51
631.75,0.53
638.07,0.55
644.45,0.52
650.89,0.49
657.40,0.50
663.98,0.54
670.62,0.51
677.32,0.53
684.10,0.51
690.94,0.53
697.85,0.49
704.83,0.46
711.87,0.39
718.99,0.37
726.18,0.36
733.44,0.34
740.78,0.26
748.19,0.19
755.67,0.15
763.23,0.13
770.86,0.11
778.57,0.10
786.35,0.07
794.22,0.01
802.16,-0.01
810.18,-0.00
818.28,0.00
826.46,0.01
834.73,0.01
843.08,0.01
851.51,0.00
860.02,-0.00
868.62,-0.01
877.31,-0.02
886.08,-0.03
894.94,-0.03
903.89,-0.04
912.93,-0.05
922.06,-0.05
931.28,-0.05
940.59,-0.05
950.00,-0.05
959.50,-0.04
969.09,-0.04
978.78,-0.03
988.57,-0.01
998.46,-0.00
1008.44,0.01
1018.53,0.04
1028.71,0.06
1039.00,0.09
1049.39,0.13
1059.88,0.17
1070.48,0.21
1081.19,0.23
1092.00,0.22
1102.92,0.22
1113.95,0.23
1125.09,0.21
1136.34,0.18
1147.70,0.17
1159.18,0.23
1170.77,0.23
1182.48,0.21
1194.30,0.24
1206.25,0.24
1218.31,0.23
1230.49,0.29
1242.80,0.36
1255.22,0.41
1267.78,0.41
1280.45,0.46
1293.26,0.47
1306.19,0.45
1319.25,0.32
1332.45,0.27
1345.77,0.24
1359.23,0.30
1372.82,0.33
1386.55,0.38
1400.41,0.46
1414.42,0.51
1428.56,0.55
1442.85,0.55
1457.28,0.58
1471.85,0.59
1486.57,0.58
1501.43,0.68
1516.45,0.70
1531.61,0.65
1546.93,0.72
1562.40,0.79
1578.02,0.77
1593.80,0.81
1609.74,0.87
1625.84,0.94
1642.10,1.00
1658.52,1.06
1675.10,1.00
1691.85,1.01
1708.77,1.08
1725.86,1.16
1743.12,1.25
1760.55,1.31
1778.15,1.28
1795.94,1.35
1813.90,1.39
1832.03,1.39
1850.36,1.44
1868.86,1.51
1887.55,1.56
1906.42,1.63
1925.49,1.71
1944.74,1.76
1964.19,1.83
1983.83,1.84
2003.67,1.93
2023.71,2.05
2043.94,2.18
2064.38,2.25
2085.03,2.34
2105.88,2.47
2126.94,2.57
2148.20,2.67
2169.69,2.82
2191.38,2.89
2213.30,2.97
2235.43,3.09
2257.78,3.22
2280.36,3.36
2303.17,3.53
2326.20,3.71
2349.46,3.86
2372.95,3.97
2396.68,4.11
2420.65,4.22
2444.86,4.28
2469.31,4.42
2494.00,4.61
2518.94,4.83
2544.13,5.03
2569.57,5.24
2595.27,5.44
2621.22,5.71
2647.43,5.95
2673.90,6.19
2700.64,6.39
2727.65,6.60
2754.93,6.85
2782.48,7.06
2810.30,7.25
2838.40,7.45
2866.79,7.57
2895.46,7.78
2924.41,8.00
2953.65,8.18
2983.19,8.35
3013.02,8.61
3043.15,8.85
3073.58,9.06
3104.32,9.37
3135.36,9.64
3166.72,9.86
3198.38,10.05
3230.37,10.20
3262.67,10.37
3295.30,10.59
3328.25,10.76
3361.53,10.87
3395.15,11.08
3429.10,11.27
3463.39,11.29
3498.03,11.35
3533.01,11.53
3568.34,11.77
3604.02,11.78
3640.06,11.70
3676.46,11.65
3713.22,11.54
3750.36,11.53
3787.86,11.51
3825.74,11.35
3864.00,11.15
3902.64,11.16
3941.66,11.26
3981.08,11.48
4020.89,11.56
4061.10,11.54
4101.71,11.62
4142.73,11.72
4184.15,11.73
4226.00,11.77
4268.26,11.84
4310.94,11.95
4354.05,12.07
4397.59,12.20
4441.56,12.38
4485.98,12.65
4530.84,12.72
4576.15,12.76
4621.91,12.83
4668.13,12.70
4714.81,12.74
4761.96,12.66
4809.58,12.32
4857.67,11.74
4906.25,11.49
4955.31,11.24
5004.87,11.17
5054.91,10.91
5105.46,10.50
5156.52,9.93
5208.08,9.31
5260.16,8.81
5312.77,8.23
5365.89,7.52
5419.55,7.00
5473.75,6.48
5528.49,5.66
5583.77,5.11
5639.61,4.64
5696.00,4.16
5752.96,3.62
5810.49,3.08
5868.60,2.44
5927.28,1.78
5986.56,1.26
6046.42,0.79
6106.89,0.27
6167.96,-0.21
6229.64,-0.68
6291.93,-1.15
6354.85,-1.58
6418.40,-1.99
6482.58,-2.37
6547.41,-2.79
6612.88,-3.21
6679.01,-3.69
6745.80,-4.09
6813.26,-4.41
6881.39,-4.67
6950.21,-4.90
7019.71,-5.18
7089.91,-5.49
7160.81,-5.71
7232.41,-5.91
7304.74,-6.08
7377.79,-6.31
7451.56,-6.63
7526.08,-6.83
7601.34,-6.72
7677.35,-6.45
7754.13,-6.37
7831.67,-6.52
7909.98,-6.70
7989.08,-6.67
8068.98,-6.55
8149.67,-6.29
8231.16,-6.14
8313.47,-5.81
8396.61,-5.50
8480.57,-5.94
8565.38,-6.22
8651.03,-6.19
8737.54,-5.75
8824.92,-4.85
8913.17,-4.75
9002.30,-4.62
9092.32,-4.71
9183.25,-5.08
9275.08,-5.18
9367.83,-5.64
9461.51,-5.83
9556.12,-5.67
9651.68,-5.44
9748.20,-4.90
9845.68,-3.88
9944.14,-3.11
10043.58,-2.55
10144.02,-1.66
10245.46,-0.98
10347.91,-0.20
10451.39,1.00
10555.91,1.87
10661.46,2.58
10768.08,3.73
10875.76,4.61
10984.52,5.29
11094.36,4.88
11205.31,4.60
11317.36,4.12
11430.53,3.56
11544.84,2.36
11660.29,1.36
11776.89,0.42
11894.66,-0.80
12013.60,-1.76
12133.74,-2.54
12255.08,-3.36
12377.63,-4.01
12501.41,-4.58
12626.42,-5.03
12752.68,-5.25
12880.21,-5.56
13009.01,-5.90
13139.10,-5.70
13270.49,-5.59
13403.20,-5.25
13537.23,-5.26
13672.60,-4.18
13809.33,-3.49
13947.42,-2.42
14086.90,-0.51
14227.77,1.04
14370.04,2.64
14513.74,3.98
14658.88,4.60
14805.47,4.37
14953.52,3.58
15103.06,2.19
15254.09,1.27
15406.63,-0.26
15560.70,-1.82
15716.30,-2.93
15873.47,-4.35
16032.20,-5.51
16192.52,-6.27
16354.45,-6.85
16517.99,-6.81
16683.17,-7.46
16850.01,-8.17
17018.51,-9.16
17188.69,-9.93
17360.58,-10.77
17534.18,-11.44
17709.53,-11.77
17886.62,-11.31
18065.49,-10.55
18246.14,-10.66
18428.60,-10.87
18612.89,-10.58
18799.02,-9.86
18987.01,-8.84
19176.88,-8.54
19368.65,-9.02
19562.33,-9.86
19757.96,-10.98
19955.54,-11.78
