frequency,raw,error,smoothed,error_smoothed,equalization,parametric_eq,equalized_raw,equalized_smoothed,target
20,-16.18,-13.75,-16.52,-13.24,6.00,2.27,-10.18,-10.52,-2.43
21,-15.11,-12.68,-14.22,-11.00,6.00,2.63,-9.11,-8.22,-2.43
22,-14.11,-11.68,-12.13,-8.97,5.71,3.03,-8.40,-6.42,-2.43
23,-12.90,-10.47,-10.27,-7.16,5.18,3.46,-7.72,-5.09,-2.43
24,-10.27,-7.84,-8.63,-5.56,4.43,3.91,-5.84,-4.20,-2.43
25,-6.83,-4.40,-7.21,-4.17,3.62,4.38,-3.21,-3.59,-2.43
26,-4.00,-1.57,-6.01,-2.99,2.82,4.83,-1.18,-3.19,-2.43
27,-1.86,0.57,-5.04,-2.03,2.03,5.26,0.17,-3.01,-2.43
28,0.42,2.85,-4.28,-1.28,1.28,5.61,1.70,-3.01,-2.43
29,1.37,3.80,-3.75,-0.74,0.74,5.85,2.11,-3.02,-2.43
30,-0.73,1.70,-3.44,-0.41,0.41,5.95,-0.32,-3.03,-2.43
31,-3.17,-0.74,-3.82,-0.78,0.78,5.87,-2.39,-3.04,-2.43
32,-5.41,-2.98,-4.43,-1.35,1.35,5.62,-4.06,-3.08,-2.43
33,-7.13,-4.70,-5.24,-2.04,2.04,5.22,-5.09,-3.20,-2.43
34,-8.29,-5.86,-6.19,-2.79,2.79,4.70,-5.50,-3.40,-2.43
35,-9.13,-6.70,-7.07,-3.54,3.54,4.10,-5.59,-3.53,-2.43
36,-9.80,-7.37,-7.76,-4.21,4.21,3.44,-5.59,-3.55,-2.43
37,-9.77,-7.34,-8.19,-4.65,4.65,2.76,-5.12,-3.54,-2.43
38,-9.07,-6.64,-8.32,-4.79,4.79,2.06,-4.28,-3.52,-2.43
39,-8.36,-5.92,-8.03,-4.64,4.64,1.37,-3.72,-3.39,-2.44
40,-7.35,-4.90,-7.37,-4.22,4.22,0.69,-3.13,-3.14,-2.45
41,-5.82,-3.36,-6.52,-3.62,3.62,0.01,-2.20,-2.90,-2.46
42,-4.72,-2.25,-5.61,-2.92,2.92,-0.66,-1.80,-2.69,-2.47
43,-3.71,-1.23,-4.69,-2.18,2.18,-1.31,-1.53,-2.51,-2.48
44,-2.96,-0.46,-3.81,-1.40,1.40,-1.95,-1.56,-2.41,-2.50
45,-2.74,-0.22,-3.00,-0.63,0.63,-2.59,-2.11,-2.37,-2.52
46,-2.30,0.23,-2.29,0.08,-0.08,-3.22,-2.38,-2.38,-2.53
47,-1.82,0.73,-1.72,0.71,-0.71,-3.84,-2.53,-2.43,-2.55
48,-1.32,1.25,-1.29,1.22,-1.22,-4.46,-2.54,-2.51,-2.57
49,-1.01,1.58,-0.97,1.60,-1.60,-5.07,-2.61,-2.57,-2.59
50,-0.68,1.93,-0.77,1.85,-1.85,-5.68,-2.53,-2.62,-2.61
51,-0.64,1.99,-0.67,2.01,-2.01,-6.28,-2.65,-2.67,-2.63
52,-0.46,2.20,-0.59,2.10,-2.10,-6.87,-2.56,-2.69,-2.66
53,-0.46,2.22,-0.54,2.15,-2.15,-7.45,-2.61,-2.69,-2.68
54,-0.46,2.24,-0.52,2.17,-2.17,-8.01,-2.63,-2.69,-2.70
55,-0.46,2.26,-0.52,2.16,-2.16,-8.56,-2.62,-2.68,-2.72
56,-0.46,2.29,-0.56,2.15,-2.15,-9.07,-2.61,-2.71,-2.75
57,-0.68,2.09,-0.63,2.13,-2.13,-9.54,-2.81,-2.76,-2.77
58,-0.68,2.12,-0.70,2.13,-2.13,-9.96,-2.81,-2.83,-2.80
59,-0.68,2.14,-0.72,2.18,-2.18,-10.33,-2.86,-2.90,-2.82
60,-0.68,2.17,-0.68,2.29,-2.29,-10.64,-2.97,-2.97,-2.85
61,-0.46,2.42,-0.56,2.47,-2.47,-10.87,-2.93,-3.02,-2.88
62,-0.46,2.46,-0.35,2.74,-2.74,-11.02,-3.20,-3.09,-2.92
63,-0.23,2.72,-0.02,3.12,-3.12,-11.10,-3.35,-3.14,-2.95
64,0.10,3.08,0.43,3.61,-3.61,-11.11,-3.51,-3.18,-2.98
65,0.62,3.63,1.02,4.23,-4.23,-11.06,-3.61,-3.21,-3.01
66,1.24,4.28,1.72,4.96,-4.96,-10.95,-3.72,-3.24,-3.04
67,2.20,5.27,2.53,5.79,-5.79,-10.79,-3.59,-3.26,-3.07
68,3.30,6.40,3.43,6.70,-6.70,-10.60,-3.40,-3.27,-3.10
69,4.41,7.54,4.42,7.68,-7.68,-10.38,-3.27,-3.26,-3.13
70,5.46,8.62,5.46,8.70,-8.70,-10.14,-3.24,-3.24,-3.16
71,6.67,9.85,6.51,9.75,-9.75,-9.89,-3.08,-3.24,-3.18
72,7.89,11.10,7.57,10.81,-10.81,-9.64,-2.92,-3.24,-3.21
73,9.02,12.26,8.60,11.88,-11.88,-9.38,-2.86,-3.28,-3.24
74,9.89,13.16,9.60,12.92,-12.92,-9.13,-3.03,-3.31,-3.27
75,10.77,14.07,10.57,13.92,-13.92,-8.88,-3.15,-3.36,-3.30
76,11.59,14.92,11.48,14.90,-14.90,-8.64,-3.31,-3.41,-3.33
77,12.44,15.80,12.34,15.84,-15.84,-8.40,-3.40,-3.50,-3.36
78,13.09,16.48,13.18,16.74,-16.74,-8.17,-3.65,-3.56,-3.39
79,13.67,17.08,14.00,17.59,-17.59,-7.95,-3.92,-3.59,-3.41
80,14.22,17.66,14.77,18.38,-18.38,-7.74,-4.16,-3.61,-3.44
81,14.95,18.42,15.46,19.10,-19.10,-7.54,-4.15,-3.64,-3.47
82,15.76,19.26,16.07,19.72,-19.72,-7.35,-3.96,-3.65,-3.50
83,16.50,20.02,16.58,20.22,-20.22,-7.17,-3.72,-3.64,-3.52
84,17.13,20.68,16.97,20.61,-20.61,-7.00,-3.48,-3.63,-3.55
85,17.51,21.09,17.20,20.85,-20.85,-6.83,-3.34,-3.65,-3.58
86,17.90,21.51,17.27,20.96,-20.96,-6.68,-3.06,-3.69,-3.61
87,18.11,21.74,17.17,20.90,-20.90,-6.53,-2.79,-3.73,-3.63
88,17.66,21.32,16.92,20.67,-20.67,-6.39,-3.01,-3.75,-3.66
89,16.91,20.60,16.53,20.30,-20.30,-6.26,-3.39,-3.77,-3.69
90,16.09,19.81,15.98,19.78,-19.78,-6.13,-3.69,-3.80,-3.72
91,15.20,18.95,15.29,19.16,-19.16,-6.01,-3.96,-3.87,-3.75
92,14.20,17.97,14.49,18.44,-18.44,-5.90,-4.24,-3.95,-3.77
93,13.20,17.00,13.67,17.65,-17.65,-5.79,-4.45,-3.98,-3.80
94,12.22,16.05,12.79,16.80,-16.80,-5.69,-4.58,-4.01,-3.83
95,11.48,15.33,11.90,15.92,-15.92,-5.60,-4.44,-4.03,-3.85
96,10.82,14.70,11.00,15.06,-15.06,-5.51,-4.24,-4.06,-3.88
97,10.17,14.07,10.15,14.24,-14.24,-5.42,-4.07,-4.09,-3.90
98,9.43,13.35,9.36,13.45,-13.45,-5.34,-4.02,-4.09,-3.92
99,8.67,12.61,8.62,12.70,-12.70,-5.26,-4.03,-4.08,-3.94
100,7.99,11.95,7.92,12.00,-12.00,-5.19,-4.01,-4.08,-3.96
101,7.46,11.43,7.26,11.32,-11.32,-5.12,-3.86,-4.06,-3.97
102,6.94,10.93,6.64,10.69,-10.69,-5.05,-3.75,-4.05,-3.99
104,5.81,9.85,6.04,10.09,-10.09,-4.92,-4.28,-4.05,-4.04
105,5.23,9.28,5.47,9.53,-9.53,-4.87,-4.30,-4.06,-4.05
106,4.69,8.75,4.92,8.99,-8.99,-4.81,-4.30,-4.07,-4.06
107,4.20,8.27,4.38,8.47,-8.47,-4.75,-4.27,-4.10,-4.07
108,3.81,7.89,3.85,7.97,-7.97,-4.70,-4.16,-4.12,-4.08
109,3.34,7.44,3.34,7.48,-7.48,-4.64,-4.14,-4.14,-4.10
110,2.97,7.08,2.83,7.00,-7.00,-4.59,-4.03,-4.17,-4.11
111,2.49,6.61,2.35,6.53,-6.53,-4.54,-4.04,-4.18,-4.12
112,2.02,6.16,1.87,6.08,-6.08,-4.49,-4.06,-4.21,-4.14
113,1.55,5.70,1.41,5.63,-5.63,-4.44,-4.08,-4.22,-4.15
114,1.09,5.26,0.98,5.19,-5.19,-4.39,-4.10,-4.21,-4.17
115,0.63,4.82,0.54,4.76,-4.76,-4.33,-4.13,-4.22,-4.19
117,-0.17,4.07,0.08,4.31,-4.31,-4.23,-4.48,-4.23,-4.24
118,-0.60,3.66,-0.39,3.87,-3.87,-4.17,-4.47,-4.25,-4.26
119,-0.94,3.35,-0.87,3.42,-3.42,-4.12,-4.36,-4.29,-4.29
120,-1.38,2.93,-1.34,2.98,-2.98,-4.06,-4.36,-4.32,-4.31
121,-1.59,2.75,-1.81,2.54,-2.54,-4.01,-4.13,-4.35,-4.34
123,-2.24,2.15,-2.27,2.12,-2.12,-3.89,-4.36,-4.39,-4.39
124,-2.56,1.85,-2.72,1.74,-1.74,-3.83,-4.30,-4.46,-4.41
125,-2.96,1.47,-3.16,1.38,-1.38,-3.77,-4.34,-4.55,-4.43
126,-3.31,1.14,-3.56,1.06,-1.06,-3.70,-4.37,-4.62,-4.45
128,-4.10,0.39,-3.91,0.77,-0.77,-3.57,-4.87,-4.68,-4.49
129,-4.46,0.05,-4.19,0.53,-0.53,-3.50,-4.99,-4.72,-4.51
130,-4.70,-0.17,-4.40,0.34,-0.34,-3.43,-5.04,-4.75,-4.53
131,-4.82,-0.28,-4.59,0.21,-0.21,-3.36,-5.03,-4.81,-4.54
133,-5.22,-0.64,-4.71,0.12,-0.12,-3.22,-5.34,-4.83,-4.58
134,-5.42,-0.82,-4.86,0.03,-0.03,-3.15,-5.45,-4.89,-4.60
135,-5.47,-0.86,-4.93,-0.15,0.15,-3.07,-5.32,-4.78,-4.61
137,-5.39,-0.74,-5.11,-0.43,0.43,-2.92,-4.96,-4.68,-4.65
138,-5.20,-0.54,-5.37,-0.84,0.84,-2.84,-4.36,-4.53,-4.66
140,-5.30,-0.61,-5.88,-1.37,1.37,-2.69,-3.93,-4.51,-4.69
141,-5.58,-0.87,-6.69,-2.02,2.02,-2.61,-3.56,-4.66,-4.71
142,-6.08,-1.36,-7.68,-2.79,2.79,-2.53,-3.29,-4.89,-4.72
144,-7.50,-2.75,-8.85,-3.66,3.66,-2.37,-3.84,-5.18,-4.75
145,-8.23,-3.47,-9.98,-4.61,4.02,-2.29,-4.21,-5.97,-4.76
147,-10.12,-5.33,-11.07,-5.54,4.71,-2.14,-5.41,-6.36,-4.79
148,-11.16,-6.35,-12.05,-6.37,5.05,-2.06,-6.11,-7.00,-4.81
150,-14.09,-9.26,-12.85,-7.05,5.63,-1.90,-8.46,-7.22,-4.83
151,-15.53,-10.69,-13.43,-7.55,5.82,-1.82,-9.71,-7.61,-4.84
153,-17.61,-12.75,-13.79,-7.85,6.00,-1.66,-11.61,-7.79,-4.86
154,-17.18,-12.31,-13.88,-7.94,6.00,-1.58,-11.18,-7.88,-4.87
156,-15.02,-10.13,-13.71,-7.80,6.00,-1.43,-9.02,-7.71,-4.89
157,-13.74,-8.85,-13.30,-7.47,6.00,-1.35,-7.74,-7.30,-4.89
159,-11.35,-6.44,-12.67,-6.95,5.83,-1.19,-5.52,-6.84,-4.91
160,-10.55,-5.64,-11.92,-6.30,5.65,-1.12,-4.90,-6.27,-4.91
162,-9.32,-4.39,-11.04,-5.59,5.11,-0.97,-4.21,-5.93,-4.93
164,-8.51,-3.57,-10.17,-4.90,4.52,-0.81,-3.99,-5.65,-4.94
165,-8.27,-3.32,-9.30,-4.33,4.27,-0.74,-4.00,-5.03,-4.95
167,-8.21,-3.25,-8.65,-3.84,3.84,-0.59,-4.37,-4.81,-4.96
169,-8.21,-3.23,-8.21,-3.48,3.48,-0.44,-4.73,-4.73,-4.98
170,-8.27,-3.29,-8.10,-3.26,3.26,-0.37,-5.01,-4.84,-4.98
172,-8.43,-3.43,-8.20,-3.18,3.18,-0.22,-5.25,-5.02,-5.00
174,-8.65,-3.64,-8.38,-3.24,3.24,-0.08,-5.41,-5.14,-5.01
175,-8.80,-3.78,-8.65,-3.43,3.43,-0.00,-5.37,-5.22,-5.02
177,-9.10,-4.07,-8.88,-3.68,3.68,0.14,-5.42,-5.19,-5.03
179,-9.34,-4.29,-9.13,-3.93,3.93,0.28,-5.41,-5.20,-5.05
181,-9.46,-4.40,-9.35,-4.15,4.15,0.42,-5.31,-5.20,-5.06
183,-9.57,-4.50,-9.53,-4.35,4.35,0.56,-5.22,-5.18,-5.07
184,-9.67,-4.60,-9.69,-4.52,4.52,0.63,-5.15,-5.16,-5.07
186,-9.80,-4.73,-9.81,-4.67,4.67,0.77,-5.13,-5.14,-5.07
188,-10.01,-4.93,-9.91,-4.79,4.79,0.91,-5.22,-5.12,-5.08
190,-10.03,-4.95,-9.97,-4.87,4.87,1.04,-5.16,-5.10,-5.08
192,-10.03,-4.95,-10.01,-4.92,4.92,1.18,-5.11,-5.09,-5.08
194,-10.03,-4.96,-10.03,-4.94,4.94,1.31,-5.09,-5.09,-5.07
196,-10.03,-4.96,-10.02,-4.94,4.94,1.44,-5.09,-5.08,-5.07
198,-10.03,-4.96,-9.99,-4.92,4.92,1.57,-5.11,-5.07,-5.07
200,-10.02,-4.95,-9.96,-4.88,4.88,1.70,-5.14,-5.08,-5.07
202,-9.80,-4.73,-9.91,-4.83,4.83,1.83,-4.97,-5.07,-5.07
204,-9.80,-4.73,-9.85,-4.78,4.78,1.95,-5.02,-5.07,-5.07
206,-9.80,-4.73,-9.78,-4.72,4.72,2.07,-5.08,-5.06,-5.07
208,-9.67,-4.60,-9.71,-4.65,4.65,2.19,-5.02,-5.06,-5.07
210,-9.57,-4.50,-9.65,-4.58,4.58,2.31,-4.99,-5.08,-5.07
212,-9.57,-4.49,-9.58,-4.49,4.49,2.42,-5.08,-5.09,-5.08
214,-9.38,-4.30,-9.49,-4.40,4.40,2.53,-4.98,-5.09,-5.08
216,-9.34,-4.26,-9.40,-4.30,4.30,2.64,-5.04,-5.10,-5.08
218,-9.34,-4.25,-9.29,-4.18,4.18,2.74,-5.16,-5.11,-5.09
221,-9.21,-4.12,-9.17,-4.05,4.05,2.88,-5.16,-5.13,-5.09
223,-9.12,-4.03,-9.03,-3.89,3.89,2.97,-5.23,-5.14,-5.09
225,-8.97,-3.88,-8.85,-3.72,3.72,3.06,-5.25,-5.13,-5.09
227,-8.74,-3.66,-8.65,-3.52,3.52,3.14,-5.22,-5.12,-5.08
229,-8.50,-3.42,-8.43,-3.31,3.31,3.21,-5.19,-5.12,-5.08
232,-8.16,-3.09,-8.18,-3.07,3.07,3.31,-5.09,-5.12,-5.07
234,-7.94,-2.87,-7.91,-2.81,2.81,3.37,-5.13,-5.11,-5.07
236,-7.71,-2.65,-7.64,-2.54,2.54,3.43,-5.17,-5.10,-5.06
239,-7.31,-2.25,-7.34,-2.25,2.25,3.49,-5.06,-5.08,-5.06
241,-7.05,-2.00,-7.03,-1.96,1.96,3.53,-5.09,-5.07,-5.05
244,-6.61,-1.56,-6.73,-1.68,1.68,3.57,-4.93,-5.06,-5.05
246,-6.39,-1.34,-6.44,-1.40,1.40,3.59,-4.99,-5.04,-5.05
248,-6.18,-1.14,-6.16,-1.13,1.13,3.60,-5.05,-5.03,-5.04
251,-5.86,-0.82,-5.90,-0.87,0.87,3.61,-4.99,-5.02,-5.04
253,-5.65,-0.62,-5.67,-0.64,0.64,3.61,-5.01,-5.02,-5.03
256,-5.47,-0.44,-5.46,-0.44,0.44,3.59,-5.03,-5.02,-5.03
259,-5.26,-0.23,-5.28,-0.26,0.26,3.56,-5.00,-5.02,-5.03
261,-5.06,-0.04,-5.13,-0.11,0.11,3.54,-4.95,-5.02,-5.02
264,-4.99,0.03,-5.01,0.01,-0.01,3.49,-5.00,-5.02,-5.02
266,-4.79,0.23,-4.92,0.11,-0.11,3.45,-4.90,-5.02,-5.02
269,-4.79,0.23,-4.85,0.18,-0.18,3.39,-4.97,-5.03,-5.02
272,-4.79,0.22,-4.80,0.23,-0.23,3.31,-5.02,-5.02,-5.01
274,-4.79,0.22,-4.76,0.25,-0.25,3.26,-5.04,-5.02,-5.01
277,-4.79,0.21,-4.75,0.27,-0.27,3.17,-5.06,-5.02,-5.00
280,-4.79,0.20,-4.74,0.27,-0.27,3.08,-5.06,-5.01,-4.99
283,-4.79,0.20,-4.75,0.26,-0.26,2.98,-5.05,-5.01,-4.99
286,-4.79,0.19,-4.76,0.24,-0.24,2.88,-5.03,-5.00,-4.98
288,-4.79,0.17,-4.76,0.22,-0.22,2.81,-5.01,-4.98,-4.96
291,-4.79,0.16,-4.76,0.19,-0.19,2.70,-4.98,-4.95,-4.95
294,-4.79,0.14,-4.79,0.16,-0.16,2.59,-4.95,-4.94,-4.93
297,-4.79,0.13,-4.80,0.13,-0.13,2.48,-4.92,-4.92,-4.92
300,-4.79,0.11,-4.81,0.09,-0.09,2.37,-4.88,-4.90,-4.90
303,-4.79,0.09,-4.82,0.06,-0.06,2.25,-4.85,-4.88,-4.88
306,-4.79,0.07,-4.85,0.03,-0.03,2.14,-4.82,-4.87,-4.86
309,-4.79,0.05,-4.86,-0.00,0.00,2.02,-4.79,-4.86,-4.84
312,-4.79,0.03,-4.88,-0.02,0.02,1.91,-4.77,-4.85,-4.82
316,-4.79,0.01,-4.88,-0.04,0.04,1.76,-4.75,-4.84,-4.80
319,-5.01,-0.23,-4.86,-0.04,0.04,1.64,-4.97,-4.83,-4.78
322,-5.00,-0.24,-4.83,-0.02,0.02,1.53,-4.98,-4.81,-4.76
325,-4.79,-0.05,-4.78,0.01,-0.01,1.42,-4.80,-4.79,-4.74
328,-4.79,-0.07,-4.72,0.05,-0.05,1.31,-4.84,-4.78,-4.72
332,-4.79,-0.08,-4.64,0.12,-0.12,1.17,-4.91,-4.76,-4.71
335,-4.64,0.05,-4.54,0.19,-0.19,1.06,-4.83,-4.74,-4.69
338,-4.41,0.25,-4.42,0.28,-0.28,0.95,-4.69,-4.71,-4.66
342,-4.33,0.31,-4.30,0.37,-0.37,0.81,-4.70,-4.67,-4.64
345,-4.10,0.52,-4.17,0.46,-0.46,0.71,-4.56,-4.63,-4.62
349,-4.02,0.58,-4.05,0.54,-0.54,0.57,-4.56,-4.59,-4.60
352,-3.87,0.71,-3.96,0.60,-0.60,0.47,-4.47,-4.56,-4.58
356,-3.87,0.69,-3.90,0.65,-0.65,0.34,-4.52,-4.55,-4.56
359,-3.73,0.81,-3.86,0.69,-0.69,0.24,-4.42,-4.56,-4.54
363,-3.65,0.88,-3.83,0.71,-0.71,0.11,-4.36,-4.54,-4.53
366,-3.65,0.86,-3.82,0.72,-0.72,0.01,-4.37,-4.53,-4.51
370,-3.67,0.82,-3.82,0.71,-0.71,-0.11,-4.38,-4.54,-4.49
374,-3.87,0.61,-3.83,0.70,-0.70,-0.23,-4.57,-4.53,-4.48
377,-3.94,0.52,-3.83,0.68,-0.68,-0.33,-4.62,-4.51,-4.46
381,-4.10,0.35,-3.84,0.67,-0.67,-0.45,-4.77,-4.51,-4.45
385,-4.10,0.33,-3.83,0.66,-0.66,-0.56,-4.76,-4.49,-4.43
389,-3.90,0.52,-3.83,0.66,-0.66,-0.68,-4.56,-4.49,-4.42
393,-3.86,0.55,-3.80,0.67,-0.67,-0.80,-4.53,-4.47,-4.41
397,-3.65,0.75,-3.76,0.70,-0.70,-0.91,-4.35,-4.46,-4.40
401,-3.65,0.74,-3.70,0.75,-0.75,-1.02,-4.40,-4.45,-4.39
405,-3.52,0.86,-3.62,0.81,-0.81,-1.13,-4.33,-4.43,-4.38
409,-3.42,0.95,-3.51,0.88,-0.88,-1.23,-4.30,-4.39,-4.37
413,-3.42,0.94,-3.41,0.96,-0.96,-1.34,-4.38,-4.36,-4.36
417,-3.42,0.94,-3.31,1.03,-1.03,-1.44,-4.45,-4.34,-4.36
421,-3.19,1.16,-3.21,1.12,-1.12,-1.54,-4.31,-4.33,-4.35
425,-3.16,1.18,-3.12,1.20,-1.20,-1.64,-4.36,-4.33,-4.34
430,-2.96,1.38,-3.05,1.29,-1.29,-1.75,-4.25,-4.34,-4.34
434,-2.96,1.37,-2.96,1.37,-1.37,-1.84,-4.33,-4.33,-4.33
438,-2.83,1.49,-2.89,1.45,-1.45,-1.93,-4.28,-4.34,-4.32
443,-2.74,1.58,-2.80,1.53,-1.53,-2.04,-4.27,-4.33,-4.32
447,-2.74,1.57,-2.71,1.61,-1.61,-2.12,-4.35,-4.32,-4.31
451,-2.74,1.56,-2.61,1.70,-1.70,-2.19,-4.44,-4.31,-4.30
456,-2.51,1.78,-2.51,1.78,-1.78,-2.28,-4.29,-4.29,-4.29
460,-2.45,1.82,-2.40,1.87,-1.87,-2.35,-4.32,-4.27,-4.27
465,-2.28,1.98,-2.32,1.96,-1.96,-2.43,-4.24,-4.28,-4.26
470,-2.28,1.97,-2.22,2.04,-2.04,-2.51,-4.32,-4.27,-4.25
474,-2.12,2.11,-2.12,2.13,-2.13,-2.56,-4.25,-4.25,-4.23
479,-2.05,2.17,-2.02,2.22,-2.22,-2.63,-4.27,-4.23,-4.22
484,-1.82,2.39,-1.92,2.30,-2.30,-2.68,-4.12,-4.22,-4.21
489,-1.82,2.37,-1.82,2.38,-2.38,-2.73,-4.20,-4.19,-4.19
494,-1.71,2.47,-1.72,2.45,-2.45,-2.78,-4.16,-4.17,-4.18
499,-1.60,2.56,-1.64,2.51,-2.51,-2.82,-4.11,-4.15,-4.16
504,-1.60,2.54,-1.58,2.56,-2.56,-2.85,-4.16,-4.14,-4.14
509,-1.60,2.53,-1.51,2.61,-2.61,-2.88,-4.21,-4.12,-4.13
514,-1.37,2.74,-1.47,2.64,-2.64,-2.90,-4.01,-4.11,-4.11
519,-1.37,2.72,-1.42,2.66,-2.66,-2.92,-4.03,-4.08,-4.09
524,-1.37,2.70,-1.40,2.67,-2.67,-2.94,-4.04,-4.07,-4.07
529,-1.37,2.68,-1.38,2.67,-2.67,-2.94,-4.04,-4.05,-4.05
535,-1.37,2.66,-1.37,2.67,-2.67,-2.95,-4.04,-4.03,-4.03
540,-1.37,2.64,-1.36,2.65,-2.65,-2.95,-4.02,-4.01,-4.01
545,-1.37,2.62,-1.37,2.63,-2.63,-2.95,-4.00,-4.00,-3.99
551,-1.37,2.60,-1.37,2.61,-2.61,-2.94,-3.98,-3.98,-3.97
556,-1.37,2.57,-1.37,2.58,-2.58,-2.93,-3.95,-3.95,-3.94
562,-1.37,2.55,-1.37,2.56,-2.56,-2.92,-3.93,-3.93,-3.92
568,-1.37,2.52,-1.37,2.54,-2.54,-2.90,-3.91,-3.91,-3.89
573,-1.37,2.49,-1.35,2.52,-2.52,-2.89,-3.89,-3.87,-3.86
579,-1.37,2.46,-1.34,2.50,-2.50,-2.87,-3.87,-3.84,-3.83
585,-1.37,2.43,-1.33,2.49,-2.49,-2.85,-3.86,-3.82,-3.80
591,-1.37,2.41,-1.31,2.49,-2.49,-2.83,-3.86,-3.79,-3.78
596,-1.33,2.42,-1.28,2.49,-2.49,-2.81,-3.82,-3.77,-3.75
602,-1.14,2.58,-1.25,2.49,-2.49,-2.79,-3.63,-3.74,-3.72
608,-1.14,2.55,-1.21,2.50,-2.50,-2.77,-3.64,-3.71,-3.69
615,-1.14,2.53,-1.17,2.51,-2.51,-2.75,-3.65,-3.68,-3.67
621,-1.14,2.51,-1.13,2.52,-2.52,-2.73,-3.66,-3.66,-3.65
627,-1.14,2.48,-1.09,2.54,-2.54,-2.71,-3.68,-3.63,-3.62
633,-1.14,2.46,-1.05,2.55,-2.55,-2.69,-3.69,-3.60,-3.60
639,-1.09,2.49,-1.02,2.56,-2.56,-2.68,-3.65,-3.58,-3.58
646,-0.91,2.66,-0.99,2.57,-2.57,-2.66,-3.48,-3.56,-3.57
652,-0.91,2.64,-0.97,2.58,-2.58,-2.65,-3.49,-3.55,-3.55
659,-0.91,2.63,-0.95,2.59,-2.59,-2.63,-3.50,-3.53,-3.54
665,-0.91,2.61,-0.94,2.59,-2.59,-2.62,-3.50,-3.53,-3.52
672,-0.91,2.60,-0.94,2.59,-2.59,-2.61,-3.50,-3.52,-3.51
679,-0.91,2.58,-0.93,2.58,-2.58,-2.60,-3.49,-3.51,-3.49
686,-0.91,2.57,-0.91,2.58,-2.58,-2.60,-3.49,-3.49,-3.48
692,-0.91,2.56,-0.90,2.58,-2.58,-2.59,-3.49,-3.47,-3.47
699,-0.91,2.54,-0.89,2.57,-2.57,-2.59,-3.48,-3.46,-3.45
706,-0.91,2.52,-0.88,2.57,-2.57,-2.59,-3.48,-3.45,-3.43
713,-0.91,2.51,-0.87,2.57,-2.57,-2.59,-3.48,-3.43,-3.42
721,-0.91,2.49,-0.85,2.56,-2.56,-2.60,-3.47,-3.41,-3.40
728,-0.91,2.47,-0.82,2.56,-2.56,-2.60,-3.47,-3.38,-3.38
735,-0.82,2.54,-0.80,2.56,-2.56,-2.61,-3.38,-3.35,-3.36
742,-0.68,2.65,-0.77,2.55,-2.55,-2.62,-3.23,-3.33,-3.33
750,-0.68,2.63,-0.75,2.55,-2.55,-2.63,-3.23,-3.30,-3.31
757,-0.68,2.60,-0.74,2.54,-2.54,-2.64,-3.22,-3.28,-3.28
765,-0.68,2.57,-0.72,2.54,-2.54,-2.66,-3.22,-3.26,-3.25
773,-0.68,2.54,-0.71,2.53,-2.53,-2.68,-3.21,-3.23,-3.22
780,-0.68,2.51,-0.68,2.52,-2.52,-2.70,-3.20,-3.21,-3.19
788,-0.68,2.48,-0.66,2.51,-2.51,-2.72,-3.19,-3.18,-3.16
796,-0.68,2.46,-0.65,2.51,-2.51,-2.74,-3.19,-3.15,-3.14
804,-0.68,2.44,-0.63,2.51,-2.51,-2.77,-3.19,-3.14,-3.12
812,-0.68,2.43,-0.62,2.51,-2.51,-2.79,-3.19,-3.13,-3.11
820,-0.68,2.41,-0.62,2.51,-2.51,-2.82,-3.19,-3.13,-3.09
828,-0.65,2.44,-0.60,2.52,-2.52,-2.84,-3.17,-3.12,-3.09
837,-0.46,2.62,-0.57,2.54,-2.54,-2.87,-3.00,-3.11,-3.08
845,-0.46,2.62,-0.54,2.56,-2.56,-2.90,-3.02,-3.10,-3.08
853,-0.46,2.61,-0.50,2.58,-2.58,-2.93,-3.04,-3.09,-3.07
862,-0.46,2.61,-0.47,2.61,-2.61,-2.96,-3.07,-3.08,-3.07
871,-0.46,2.62,-0.43,2.63,-2.63,-2.99,-3.09,-3.06,-3.08
879,-0.46,2.62,-0.40,2.66,-2.66,-3.02,-3.12,-3.06,-3.08
888,-0.46,2.62,-0.38,2.69,-2.69,-3.05,-3.15,-3.07,-3.08
897,-0.36,2.72,-0.35,2.72,-2.72,-3.08,-3.08,-3.07,-3.08
906,-0.23,2.84,-0.32,2.75,-2.75,-3.11,-2.98,-3.07,-3.07
915,-0.23,2.84,-0.30,2.77,-2.77,-3.14,-3.00,-3.07,-3.07
924,-0.23,2.83,-0.28,2.80,-2.80,-3.16,-3.03,-3.08,-3.06
933,-0.23,2.82,-0.25,2.82,-2.82,-3.19,-3.05,-3.07,-3.05
943,-0.23,2.81,-0.21,2.85,-2.85,-3.21,-3.08,-3.05,-3.04
952,-0.23,2.80,-0.17,2.87,-2.87,-3.24,-3.10,-3.04,-3.03
962,-0.23,2.79,-0.12,2.90,-2.90,-3.26,-3.13,-3.02,-3.02
971,-0.10,2.90,-0.08,2.92,-2.92,-3.27,-3.02,-3.00,-3.00
981,0.00,2.99,-0.05,2.95,-2.95,-3.29,-2.95,-3.00,-2.99
991,0.00,2.98,-0.02,2.98,-2.98,-3.31,-2.98,-2.99,-2.98
1001,0.00,2.97,0.02,3.00,-3.00,-3.32,-3.00,-2.98,-2.97
1011,0.05,3.00,0.07,3.03,-3.03,-3.33,-2.98,-2.97,-2.95
1021,0.23,3.17,0.11,3.07,-3.07,-3.33,-2.84,-2.95,-2.94
1031,0.23,3.15,0.16,3.10,-3.10,-3.34,-2.87,-2.93,-2.92
1041,0.23,3.14,0.22,3.13,-3.13,-3.34,-2.90,-2.91,-2.91
1052,0.23,3.12,0.27,3.16,-3.16,-3.34,-2.93,-2.89,-2.89
1062,0.23,3.11,0.31,3.19,-3.19,-3.34,-2.96,-2.88,-2.88
1073,0.25,3.11,0.35,3.22,-3.22,-3.34,-2.97,-2.87,-2.86
1084,0.46,3.31,0.40,3.25,-3.25,-3.34,-2.79,-2.85,-2.85
1094,0.46,3.29,0.46,3.29,-3.29,-3.34,-2.83,-2.83,-2.83
1105,0.46,3.27,0.51,3.32,-3.32,-3.33,-2.86,-2.81,-2.81
1116,0.60,3.39,0.55,3.35,-3.35,-3.33,-2.75,-2.80,-2.79
1128,0.68,3.45,0.61,3.38,-3.38,-3.32,-2.70,-2.78,-2.77
1139,0.68,3.42,0.67,3.41,-3.41,-3.31,-2.73,-2.75,-2.74
1150,0.68,3.40,0.72,3.44,-3.44,-3.31,-2.76,-2.72,-2.72
1162,0.75,3.44,0.78,3.47,-3.47,-3.30,-2.72,-2.69,-2.69
1173,0.91,3.58,0.85,3.51,-3.51,-3.30,-2.60,-2.66,-2.67
1185,0.91,3.55,0.91,3.54,-3.54,-3.29,-2.63,-2.63,-2.64
1197,0.91,3.52,0.96,3.57,-3.57,-3.29,-2.66,-2.61,-2.61
1209,0.91,3.49,1.03,3.60,-3.60,-3.28,-2.69,-2.57,-2.58
1221,1.14,3.69,1.09,3.63,-3.63,-3.28,-2.49,-2.54,-2.55
1233,1.14,3.66,1.13,3.66,-3.66,-3.28,-2.52,-2.53,-2.52
1246,1.14,3.64,1.17,3.69,-3.69,-3.28,-2.55,-2.52,-2.50
1258,1.25,3.73,1.22,3.73,-3.73,-3.29,-2.48,-2.51,-2.48
1271,1.37,3.85,1.27,3.77,-3.77,-3.29,-2.40,-2.50,-2.48
1283,1.37,3.84,1.31,3.81,-3.81,-3.30,-2.44,-2.50,-2.47
1296,1.37,3.85,1.35,3.85,-3.85,-3.31,-2.48,-2.50,-2.48
1309,1.37,3.86,1.39,3.89,-3.89,-3.33,-2.52,-2.50,-2.49
1322,1.37,3.88,1.43,3.94,-3.94,-3.34,-2.57,-2.51,-2.51
1335,1.37,3.90,1.46,3.99,-3.99,-3.36,-2.62,-2.53,-2.53
1349,1.37,3.92,1.48,4.03,-4.03,-3.38,-2.66,-2.56,-2.55
1362,1.51,4.09,1.51,4.08,-4.08,-3.40,-2.57,-2.57,-2.58
1376,1.60,4.20,1.53,4.12,-4.12,-3.43,-2.52,-2.59,-2.60
1390,1.60,4.23,1.54,4.16,-4.16,-3.46,-2.56,-2.62,-2.63
1404,1.60,4.25,1.56,4.20,-4.20,-3.49,-2.60,-2.64,-2.65
1418,1.60,4.27,1.58,4.23,-4.23,-3.52,-2.63,-2.65,-2.67
1432,1.60,4.28,1.59,4.26,-4.26,-3.56,-2.66,-2.66,-2.68
1446,1.60,4.29,1.61,4.28,-4.28,-3.60,-2.68,-2.67,-2.69
1461,1.60,4.29,1.62,4.29,-4.29,-3.64,-2.69,-2.68,-2.69
1475,1.60,4.29,1.62,4.30,-4.30,-3.69,-2.70,-2.68,-2.69
1490,1.60,4.28,1.62,4.30,-4.30,-3.74,-2.70,-2.69,-2.68
1505,1.60,4.28,1.61,4.30,-4.30,-3.79,-2.70,-2.70,-2.68
1520,1.60,4.27,1.59,4.30,-4.30,-3.84,-2.70,-2.71,-2.67
1535,1.60,4.27,1.58,4.29,-4.29,-3.90,-2.69,-2.71,-2.67
