frequency,raw
20,-0.01
21,0.59
22,1.19
23,1.73
24,2.24
25,2.86
26,3.35
27,3.78
28,4.20
29,4.66
30,5.01
31,5.40
32,5.65
33,5.93
34,6.12
35,6.36
36,6.59
37,6.74
38,6.92
39,7.07
40,7.19
41,7.33
42,7.47
43,7.52
44,7.63
45,7.68
46,7.79
47,7.82
48,7.84
49,7.89
50,7.89
51,7.88
52,7.88
53,7.88
54,7.88
55,7.88
56,7.87
57,7.84
58,7.81
59,7.81
60,7.81
61,7.81
62,7.77
63,7.76
64,7.76
65,7.76
66,7.77
67,7.75
68,7.73
69,7.73
70,7.71
71,7.70
72,7.67
73,7.63
74,7.60
75,7.57
76,7.57
77,7.56
78,7.55
79,7.56
80,7.52
81,7.51
82,7.51
83,7.47
84,7.44
85,7.43
86,7.41
87,7.41
88,7.39
89,7.40
90,7.38
91,7.34
92,7.30
93,7.27
94,7.24
95,7.23
96,7.23
97,7.23
98,7.20
99,7.16
100,7.12
101,7.08
102,7.05
104,7.02
105,7.01
106,6.99
107,6.97
108,6.94
109,6.92
110,6.91
111,6.88
112,6.86
113,6.86
114,6.85
115,6.83
117,6.82
118,6.79
119,6.75
120,6.71
121,6.67
123,6.64
124,6.64
125,6.63
126,6.59
128,6.59
129,6.55
130,6.51
131,6.47
133,6.46
134,6.45
135,6.43
137,6.39
138,6.34
140,6.31
141,6.27
142,6.23
144,6.21
145,6.15
147,6.18
148,6.15
150,6.11
151,6.07
153,6.03
154,6.00
156,5.96
157,5.92
159,5.88
160,5.84
162,5.77
164,5.69
165,5.64
167,5.56
169,5.48
170,5.43
172,5.35
174,5.27
175,5.22
177,5.18
179,5.12
181,4.99
183,4.91
184,4.87
186,4.84
188,4.72
190,4.65
192,4.59
194,4.45
196,4.41
198,4.29
200,4.26
202,4.23
204,4.21
206,4.22
208,4.27
210,4.34
212,4.41
214,4.51
216,4.64
218,4.79
221,4.98
223,5.15
225,5.27
227,5.33
229,5.36
232,5.38
234,5.37
236,5.32
239,5.24
241,5.16
244,5.04
246,4.95
248,4.87
251,4.80
253,4.72
256,4.59
259,4.54
261,4.42
264,4.36
266,4.33
269,4.18
272,4.15
274,4.07
277,3.99
280,3.92
283,3.82
286,3.73
288,3.66
291,3.58
294,3.47
297,3.36
300,3.28
303,3.16
306,3.07
309,2.93
312,2.79
316,2.63
319,2.48
322,2.34
325,2.21
328,2.09
332,1.90
335,1.79
338,1.68
342,1.55
345,1.45
349,1.35
352,1.28
356,1.22
359,1.19
363,1.22
366,1.19
370,1.15
374,1.10
377,1.08
381,1.08
385,1.05
389,1.03
393,1.07
397,1.09
401,1.10
405,1.12
409,1.16
413,1.21
417,1.22
421,1.23
425,1.25
430,1.26
434,1.28
438,1.30
443,1.36
447,1.39
451,1.39
456,1.39
460,1.40
465,1.32
470,1.28
474,1.24
479,1.17
484,1.02
489,0.87
494,0.73
499,0.53
504,0.35
509,0.15
514,-0.05
519,-0.24
524,-0.45
529,-0.69
535,-0.96
540,-1.15
545,-1.31
551,-1.49
556,-1.64
562,-1.78
568,-1.89
573,-1.93
579,-2.04
585,-2.12
591,-2.14
596,-2.19
602,-2.20
608,-2.21
615,-2.18
621,-2.14
627,-2.07
633,-1.95
639,-1.80
646,-1.62
652,-1.41
659,-1.18
665,-0.96
672,-0.69
679,-0.49
686,-0.30
692,-0.13
699,0.02
706,0.14
713,0.20
721,0.29
728,0.35
735,0.39
742,0.43
750,0.43
757,0.45
765,0.46
773,0.43
780,0.39
788,0.39
796,0.35
804,0.34
812,0.30
820,0.29
828,0.29
837,0.24
845,0.20
853,0.19
862,0.19
871,0.21
879,0.16
888,0.13
897,0.16
906,0.14
915,0.17
924,0.11
933,0.08
943,0.09
952,0.08
962,0.05
971,0.04
981,0.02
991,0.01
1001,-0.00
1011,0.01
1021,0.06
1031,0.10
1041,0.12
1052,0.11
1062,0.11
1073,0.12
1084,0.11
1094,0.11
1105,0.15
1116,0.17
1128,0.15
1139,0.13
1150,0.14
1162,0.17
1173,0.18
1185,0.12
1197,0.12
1209,0.15
1221,0.14
1233,0.15
1246,0.14
1258,0.16
1271,0.10
1283,0.13
1296,0.17
1309,0.18
1322,0.17
1335,0.17
1349,0.13
1362,0.14
1376,0.13
1390,0.12
1404,0.06
1418,0.07
1432,0.05
1446,0.05
1461,0.01
1475,0.05
1490,0.06
1505,0.10
1520,0.14
1535,0.19
1550,0.25
1566,0.29
1582,0.36
1597,0.46
1613,0.54
1629,0.59
1646,0.70
1662,0.76
1679,0.84
1696,0.89
1713,0.90
1730,0.97
1747,0.95
1764,0.95
1782,0.97
1800,1.02
1818,1.03
1836,1.02
1854,1.03
1873,1.09
1892,1.07
1911,1.08
1930,1.15
1949,1.13
1969,1.16
1988,1.11
2008,1.15
2028,1.09
2048,1.06
2069,0.99
2090,0.91
2111,0.81
2132,0.65
2153,0.54
2175,0.38
2196,0.25
2218,0.16
2240,0.11
2263,0.08
2285,0.15
2308,0.41
2331,0.64
2355,0.89
2378,1.33
2402,1.87
2426,2.41
2450,2.96
2475,3.52
2500,3.99
2525,4.41
2550,4.77
2575,5.08
2601,5.30
2627,5.53
2653,5.75
2680,5.91
2707,6.07
2734,6.27
2761,6.33
2789,6.49
2817,6.61
2845,6.78
2873,6.89
2902,7.05
2931,7.19
2960,7.32
2990,7.41
3020,7.46
3050,7.48
3080,7.45
3111,7.38
3142,7.23
3174,7.02
3206,6.86
3238,6.58
3270,6.32
3303,6.06
3336,5.77
3369,5.43
3403,5.05
3437,4.68
3471,4.28
3506,3.82
3541,3.39
3576,2.97
3612,2.63
3648,2.36
3685,2.18
3721,2.05
3759,1.90
3796,1.84
3834,1.82
3873,1.81
3911,1.93
3950,2.05
3990,2.27
4030,2.51
4070,2.83
4111,3.18
4152,3.51
4193,3.91
4235,4.29
4278,4.54
4321,4.83
4364,4.97
4407,4.89
4451,4.69
4496,4.43
4541,4.15
4586,3.83
4632,3.60
4679,3.49
4725,3.48
4773,3.57
4820,3.74
4868,3.92
4917,4.13
4966,4.17
5016,4.23
5066,4.16
5117,4.05
5168,3.96
5220,3.80
5272,3.66
5325,3.59
5378,3.55
5432,3.50
5486,3.51
5541,3.53
5596,3.58
5652,3.65
5709,3.76
5766,3.88
5823,4.10
5882,4.27
5940,4.52
6000,4.79
6060,4.97
6120,5.17
6182,5.33
6244,5.39
6306,5.32
6369,5.13
6433,4.82
6497,4.52
6562,3.92
6628,3.41
6694,2.98
6761,2.60
6828,2.15
6897,1.82
6966,1.55
7035,1.30
7106,1.14
7177,1.03
7249,1.01
7321,1.08
7394,1.28
7468,1.62
7543,2.10
7618,2.69
7694,3.52
7771,4.38
7849,5.38
7928,6.42
8007,7.40
8087,8.37
8168,9.16
8250,9.86
8332,10.37
8415,10.69
8499,10.94
8584,11.15
8670,11.31
8757,11.38
8845,11.49
8933,11.64
9022,11.70
9113,11.52
9204,11.07
9296,10.26
9389,9.06
9483,7.76
9577,6.48
9673,5.11
9770,3.76
9868,2.54
9966,1.37
10066,0.23
10167,-0.53
10268,-1.11
10371,-1.55
10475,-1.82
10579,-1.94
10685,-2.05
10792,-2.16
10900,-2.48
11009,-2.94
11119,-3.38
11230,-3.78
11343,-4.30
11456,-4.91
11571,-5.42
11686,-5.86
11803,-6.00
11921,-6.03
12040,-6.02
12161,-5.93
12282,-5.70
12405,-5.53
12529,-5.32
12655,-5.18
12781,-4.90
12909,-4.45
13038,-3.84
13168,-3.20
13300,-2.57
13433,-1.96
13567,-1.51
13703,-1.05
13840,-0.36
13978,-0.09
14118,0.02
14259,0.28
14402,0.51
14546,0.75
14692,0.98
14838,1.11
14987,1.18
15137,1.05
15288,0.88
15441,0.57
15595,0.13
15751,-0.48
15909,-1.22
16068,-2.05
16229,-2.77
16391,-3.59
16555,-4.67
16720,-5.21
16888,-5.58
17056,-6.05
17227,-6.43
17399,-6.80
17573,-7.18
17749,-7.54
17926,-7.86
18106,-8.11
18287,-8.17
18470,-8.28
18654,-8.38
18841,-8.61
19029,-8.96
19220,-9.34
19412,-9.77
19606,-10.17
19802,-10.57
20000,-10.97
