frequency,raw,error,smoothed,error_smoothed,equalization,parametric_eq,fixed_band_eq,equalized_raw,equalized_smoothed,target
20.00,-2.18,-3.62,-2.18,-3.63,3.62,3.49,1.45,1.44,1.44,1.44
20.20,-2.14,-3.63,-2.14,-3.63,3.63,3.48,1.49,1.49,1.49,1.49
20.40,-2.10,-3.64,-2.10,-3.64,3.64,3.47,1.53,1.54,1.54,1.54
20.61,-2.06,-3.63,-2.06,-3.64,3.64,3.46,1.58,1.58,1.59,1.57
20.81,-2.02,-3.64,-2.02,-3.64,3.65,3.45,1.63,1.63,1.63,1.62
21.02,-1.98,-3.64,-1.99,-3.64,3.65,3.44,1.68,1.67,1.66,1.66
21.23,-1.96,-3.64,-1.96,-3.64,3.64,3.43,1.72,1.68,1.69,1.68
21.44,-1.94,-3.64,-1.93,-3.64,3.64,3.41,1.78,1.70,1.71,1.70
21.66,-1.91,-3.63,-1.91,-3.63,3.63,3.40,1.83,1.72,1.72,1.72
21.87,-1.89,-3.62,-1.89,-3.63,3.63,3.39,1.88,1.74,1.73,1.73
22.09,-1.87,-3.62,-1.87,-3.62,3.61,3.38,1.94,1.74,1.74,1.75
22.31,-1.85,-3.61,-1.85,-3.61,3.59,3.37,2.00,1.74,1.75,1.76
22.54,-1.82,-3.58,-1.82,-3.58,3.57,3.36,2.06,1.75,1.75,1.76
22.76,-1.80,-3.56,-1.80,-3.55,3.55,3.35,2.12,1.75,1.75,1.76
22.99,-1.77,-3.52,-1.77,-3.52,3.53,3.34,2.18,1.76,1.76,1.75
23.22,-1.75,-3.50,-1.75,-3.50,3.51,3.32,2.24,1.76,1.76,1.75
23.45,-1.73,-3.48,-1.73,-3.48,3.49,3.31,2.31,1.76,1.76,1.75
23.69,-1.71,-3.47,-1.71,-3.46,3.47,3.30,2.37,1.76,1.76,1.76
23.92,-1.69,-3.45,-1.69,-3.45,3.46,3.29,2.44,1.77,1.77,1.76
24.16,-1.68,-3.45,-1.68,-3.45,3.45,3.28,2.51,1.77,1.77,1.77
24.40,-1.67,-3.45,-1.67,-3.44,3.44,3.27,2.58,1.77,1.77,1.78
24.65,-1.67,-3.44,-1.67,-3.44,3.43,3.25,2.65,1.76,1.77,1.77
24.89,-1.66,-3.43,-1.66,-3.43,3.42,3.24,2.72,1.76,1.76,1.77
25.14,-1.65,-3.42,-1.65,-3.42,3.41,3.23,2.79,1.76,1.76,1.77
25.39,-1.63,-3.40,-1.63,-3.40,3.39,3.22,2.86,1.76,1.76,1.77
25.65,-1.61,-3.38,-1.61,-3.38,3.37,3.20,2.93,1.76,1.76,1.77
25.91,-1.59,-3.35,-1.59,-3.36,3.35,3.19,3.01,1.76,1.76,1.76
26.16,-1.56,-3.32,-1.56,-3.32,3.32,3.18,3.08,1.76,1.76,1.76
26.43,-1.53,-3.29,-1.53,-3.29,3.30,3.17,3.15,1.77,1.77,1.76
26.69,-1.50,-3.26,-1.50,-3.26,3.28,3.15,3.22,1.78,1.78,1.76
26.96,-1.47,-3.24,-1.48,-3.25,3.26,3.14,3.29,1.79,1.78,1.77
27.23,-1.47,-3.24,-1.47,-3.24,3.24,3.13,3.35,1.77,1.77,1.77
27.50,-1.47,-3.24,-1.47,-3.24,3.23,3.11,3.42,1.76,1.76,1.77
27.77,-1.47,-3.23,-1.47,-3.23,3.23,3.10,3.48,1.76,1.76,1.76
28.05,-1.47,-3.23,-1.47,-3.22,3.22,3.09,3.54,1.75,1.75,1.76
28.33,-1.47,-3.22,-1.47,-3.22,3.23,3.08,3.60,1.75,1.75,1.75
28.62,-1.47,-3.22,-1.47,-3.22,3.23,3.06,3.65,1.76,1.76,1.75
28.90,-1.47,-3.23,-1.47,-3.22,3.23,3.05,3.70,1.76,1.76,1.76
29.19,-1.47,-3.22,-1.47,-3.22,3.23,3.04,3.74,1.76,1.76,1.75
29.48,-1.47,-3.23,-1.47,-3.23,3.22,3.02,3.78,1.75,1.75,1.76
29.78,-1.47,-3.22,-1.47,-3.23,3.21,3.01,3.82,1.74,1.74,1.75
30.08,-1.46,-3.22,-1.46,-3.21,3.20,2.99,3.85,1.74,1.74,1.76
30.38,-1.43,-3.18,-1.43,-3.19,3.17,2.98,3.87,1.74,1.74,1.75
30.68,-1.40,-3.15,-1.40,-3.15,3.15,2.97,3.89,1.75,1.75,1.75
30.99,-1.37,-3.12,-1.37,-3.12,3.12,2.95,3.90,1.75,1.75,1.75
31.30,-1.34,-3.09,-1.34,-3.09,3.10,2.94,3.91,1.76,1.76,1.75
31.61,-1.31,-3.06,-1.31,-3.05,3.07,2.92,3.91,1.76,1.76,1.75
31.93,-1.28,-3.03,-1.29,-3.03,3.05,2.91,3.90,1.77,1.76,1.75
32.24,-1.27,-3.00,-1.27,-3.02,3.03,2.90,3.89,1.76,1.76,1.73
32.57,-1.27,-3.01,-1.27,-3.01,3.01,2.88,3.87,1.74,1.74,1.74
32.89,-1.27,-3.01,-1.26,-3.00,2.98,2.87,3.85,1.71,1.72,1.74
33.22,-1.25,-2.98,-1.25,-2.98,2.95,2.85,3.82,1.70,1.70,1.73
33.55,-1.21,-2.94,-1.22,-2.94,2.92,2.84,3.79,1.71,1.70,1.73
33.89,-1.18,-2.90,-1.17,-2.90,2.88,2.82,3.75,1.70,1.70,1.72
34.23,-1.12,-2.84,-1.12,-2.83,2.84,2.81,3.71,1.71,1.72,1.72
34.57,-1.06,-2.77,-1.06,-2.77,2.79,2.80,3.66,1.73,1.73,1.71
34.92,-0.99,-2.70,-1.00,-2.72,2.75,2.78,3.61,1.75,1.74,1.71
35.27,-0.97,-2.68,-0.98,-2.68,2.70,2.77,3.56,1.73,1.73,1.71
35.62,-0.97,-2.68,-0.97,-2.67,2.67,2.75,3.51,1.70,1.70,1.71
35.97,-0.97,-2.67,-0.96,-2.67,2.64,2.74,3.45,1.67,1.68,1.70
36.33,-0.94,-2.65,-0.93,-2.64,2.63,2.72,3.39,1.69,1.70,1.71
36.70,-0.90,-2.60,-0.91,-2.61,2.63,2.71,3.33,1.73,1.72,1.70
37.06,-0.88,-2.58,-0.90,-2.60,2.64,2.69,3.27,1.76,1.74,1.70
37.43,-0.91,-2.63,-0.91,-2.62,2.65,2.68,3.21,1.74,1.73,1.72
37.81,-0.95,-2.66,-0.94,-2.65,2.65,2.66,3.15,1.70,1.71,1.71
38.19,-0.97,-2.68,-0.97,-2.68,2.66,2.65,3.08,1.69,1.69,1.71
38.57,-0.97,-2.69,-0.98,-2.69,2.66,2.63,3.02,1.69,1.69,1.72
38.95,-0.97,-2.69,-0.96,-2.68,2.66,2.62,2.96,1.69,1.70,1.72
39.34,-0.94,-2.66,-0.94,-2.66,2.65,2.60,2.90,1.71,1.71,1.72
39.74,-0.90,-2.62,-0.90,-2.63,2.62,2.58,2.84,1.72,1.72,1.72
40.14,-0.86,-2.59,-0.86,-2.58,2.58,2.57,2.78,1.72,1.72,1.73
40.54,-0.82,-2.54,-0.82,-2.54,2.55,2.55,2.72,1.73,1.73,1.72
40.94,-0.78,-2.50,-0.77,-2.49,2.51,2.54,2.66,1.73,1.73,1.72
41.35,-0.73,-2.44,-0.73,-2.45,2.47,2.52,2.61,1.74,1.74,1.71
41.76,-0.69,-2.40,-0.70,-2.41,2.43,2.51,2.56,1.74,1.73,1.71
42.18,-0.67,-2.39,-0.68,-2.39,2.39,2.49,2.50,1.72,1.71,1.72
42.60,-0.67,-2.37,-0.67,-2.38,2.36,2.47,2.45,1.69,1.69,1.70
43.03,-0.67,-2.37,-0.65,-2.35,2.33,2.46,2.40,1.66,1.68,1.70
43.46,-0.62,-2.31,-0.62,-2.31,2.30,2.44,2.36,1.68,1.67,1.69
43.90,-0.58,-2.25,-0.59,-2.27,2.27,2.43,2.31,1.69,1.68,1.67
44.33,-0.57,-2.23,-0.57,-2.23,2.24,2.41,2.27,1.67,1.67,1.66
44.78,-0.57,-2.21,-0.57,-2.21,2.22,2.39,2.23,1.65,1.65,1.64
45.23,-0.57,-2.21,-0.57,-2.20,2.20,2.38,2.19,1.63,1.63,1.64
45.68,-0.57,-2.19,-0.57,-2.19,2.19,2.36,2.15,1.62,1.62,1.62
46.13,-0.57,-2.17,-0.57,-2.18,2.18,2.34,2.11,1.61,1.61,1.60
46.60,-0.57,-2.18,-0.57,-2.17,2.18,2.33,2.08,1.61,1.62,1.61
47.06,-0.57,-2.16,-0.58,-2.18,2.19,2.31,2.04,1.62,1.61,1.59
47.53,-0.60,-2.19,-0.60,-2.19,2.20,2.29,2.01,1.60,1.60,1.59
48.01,-0.63,-2.22,-0.63,-2.21,2.21,2.27,1.98,1.58,1.58,1.59
48.49,-0.65,-2.22,-0.65,-2.23,2.21,2.26,1.96,1.56,1.55,1.57
48.97,-0.67,-2.23,-0.67,-2.23,2.20,2.24,1.93,1.53,1.53,1.56
49.46,-0.67,-2.21,-0.67,-2.21,2.19,2.22,1.90,1.51,1.51,1.54
49.96,-0.67,-2.19,-0.65,-2.18,2.17,2.20,1.88,1.50,1.52,1.52
50.46,-0.62,-2.15,-0.62,-2.14,2.15,2.19,1.86,1.53,1.53,1.52
50.96,-0.57,-2.09,-0.59,-2.10,2.13,2.17,1.84,1.56,1.54,1.52
51.47,-0.57,-2.07,-0.57,-2.07,2.11,2.15,1.82,1.54,1.54,1.50
51.99,-0.57,-2.06,-0.57,-2.06,2.08,2.13,1.80,1.51,1.52,1.49
52.51,-0.57,-2.06,-0.57,-2.06,2.06,2.11,1.78,1.49,1.49,1.49
53.03,-0.57,-2.06,-0.57,-2.06,2.04,2.09,1.76,1.47,1.47,1.49
53.56,-0.57,-2.05,-0.57,-2.05,2.02,2.07,1.74,1.45,1.46,1.48
54.10,-0.56,-2.03,-0.55,-2.02,2.01,2.05,1.73,1.45,1.46,1.47
54.64,-0.51,-1.97,-0.51,-1.98,1.99,2.03,1.71,1.48,1.48,1.46
55.18,-0.47,-1.93,-0.48,-1.94,1.96,2.01,1.69,1.49,1.48,1.46
55.74,-0.47,-1.92,-0.47,-1.93,1.93,1.99,1.68,1.46,1.46,1.45
56.29,-0.47,-1.92,-0.47,-1.92,1.90,1.97,1.66,1.43,1.43,1.45
56.86,-0.47,-1.91,-0.45,-1.89,1.87,1.95,1.65,1.40,1.42,1.44
57.42,-0.43,-1.85,-0.42,-1.85,1.85,1.93,1.63,1.42,1.42,1.42
58.00,-0.37,-1.79,-0.39,-1.81,1.82,1.91,1.61,1.45,1.43,1.41
58.58,-0.37,-1.78,-0.37,-1.78,1.80,1.89,1.60,1.43,1.43,1.41
59.16,-0.37,-1.77,-0.36,-1.76,1.77,1.87,1.58,1.40,1.41,1.40
59.76,-0.37,-1.76,-0.37,-1.75,1.74,1.85,1.56,1.37,1.37,1.39
60.35,-0.37,-1.72,-0.37,-1.73,1.71,1.82,1.54,1.34,1.34,1.35
60.96,-0.37,-1.70,-0.37,-1.70,1.69,1.80,1.52,1.32,1.32,1.33
61.57,-0.37,-1.66,-0.37,-1.66,1.66,1.78,1.50,1.29,1.29,1.29
62.18,-0.37,-1.63,-0.37,-1.63,1.63,1.76,1.48,1.26,1.26,1.26
62.80,-0.37,-1.59,-0.37,-1.59,1.59,1.73,1.46,1.22,1.22,1.22
63.43,-0.37,-1.55,-0.37,-1.55,1.56,1.71,1.44,1.19,1.19,1.18
64.07,-0.37,-1.52,-0.37,-1.52,1.52,1.68,1.41,1.15,1.15,1.15
64.71,-0.37,-1.48,-0.37,-1.48,1.48,1.66,1.39,1.11,1.11,1.11
65.35,-0.37,-1.45,-0.37,-1.45,1.44,1.63,1.36,1.07,1.07,1.08
66.01,-0.37,-1.41,-0.37,-1.41,1.41,1.61,1.33,1.04,1.04,1.04
66.67,-0.37,-1.37,-0.37,-1.38,1.37,1.58,1.31,1.00,1.00,1.00
67.33,-0.37,-1.33,-0.37,-1.33,1.34,1.56,1.28,0.97,0.98,0.96
68.01,-0.37,-1.30,-0.37,-1.30,1.32,1.53,1.25,0.95,0.95,0.93
68.69,-0.37,-1.26,-0.38,-1.27,1.29,1.50,1.22,0.92,0.91,0.89
69.37,-0.40,-1.25,-0.40,-1.26,1.26,1.48,1.18,0.86,0.86,0.85
70.07,-0.44,-1.25,-0.43,-1.25,1.24,1.45,1.15,0.80,0.80,0.81
70.77,-0.46,-1.24,-0.46,-1.23,1.21,1.42,1.12,0.75,0.75,0.78
71.48,-0.47,-1.20,-0.47,-1.20,1.17,1.39,1.09,0.70,0.71,0.73
72.19,-0.47,-1.15,-0.47,-1.16,1.14,1.36,1.05,0.67,0.67,0.68
72.91,-0.47,-1.11,-0.47,-1.11,1.11,1.34,1.02,0.64,0.64,0.64
73.64,-0.47,-1.06,-0.46,-1.05,1.08,1.31,0.99,0.61,0.62,0.59
74.38,-0.47,-1.02,-0.48,-1.02,1.05,1.28,0.95,0.58,0.58,0.55
75.12,-0.48,-0.98,-0.50,-1.00,1.02,1.25,0.92,0.54,0.52,0.50
75.87,-0.56,-1.01,-0.54,-0.99,0.99,1.21,0.89,0.43,0.46,0.45
76.63,-0.57,-0.99,-0.56,-0.98,0.96,1.18,0.85,0.39,0.39,0.42
77.40,-0.57,-0.95,-0.58,-0.96,0.92,1.15,0.82,0.35,0.34,0.38
78.17,-0.57,-0.90,-0.57,-0.91,0.88,1.12,0.78,0.31,0.31,0.33
78.95,-0.57,-0.88,-0.55,-0.85,0.84,1.09,0.75,0.27,0.30,0.31
79.74,-0.50,-0.77,-0.51,-0.79,0.79,1.05,0.72,0.29,0.28,0.27
80.54,-0.47,-0.71,-0.48,-0.72,0.75,1.02,0.68,0.28,0.26,0.24
81.35,-0.47,-0.67,-0.46,-0.67,0.69,0.99,0.65,0.22,0.23,0.20
82.16,-0.47,-0.64,-0.47,-0.64,0.65,0.95,0.62,0.18,0.18,0.17
82.98,-0.47,-0.62,-0.47,-0.61,0.60,0.92,0.59,0.13,0.13,0.15
83.81,-0.47,-0.58,-0.47,-0.58,0.57,0.88,0.55,0.10,0.10,0.11
84.65,-0.47,-0.54,-0.47,-0.55,0.54,0.85,0.52,0.07,0.07,0.07
85.50,-0.47,-0.52,-0.47,-0.51,0.52,0.81,0.49,0.05,0.06,0.05
86.35,-0.47,-0.49,-0.47,-0.49,0.51,0.78,0.46,0.04,0.03,0.02
87.22,-0.48,-0.46,-0.49,-0.48,0.49,0.74,0.43,0.01,-0.01,-0.02
88.09,-0.52,-0.47,-0.52,-0.47,0.47,0.70,0.40,-0.05,-0.06,-0.05
88.97,-0.57,-0.48,-0.55,-0.46,0.44,0.67,0.36,-0.13,-0.11,-0.09
89.86,-0.57,-0.45,-0.57,-0.45,0.42,0.63,0.33,-0.15,-0.15,-0.12
90.76,-0.56,-0.40,-0.57,-0.41,0.40,0.59,0.30,-0.16,-0.17,-0.16
91.66,-0.56,-0.37,-0.56,-0.37,0.37,0.56,0.27,-0.19,-0.19,-0.19
92.58,-0.56,-0.33,-0.56,-0.33,0.34,0.52,0.24,-0.22,-0.22,-0.23
93.51,-0.56,-0.30,-0.56,-0.30,0.31,0.48,0.21,-0.25,-0.25,-0.26
94.44,-0.56,-0.27,-0.56,-0.27,0.27,0.44,0.19,-0.29,-0.29,-0.29
95.39,-0.56,-0.24,-0.56,-0.24,0.24,0.40,0.16,-0.32,-0.32,-0.32
96.34,-0.57,-0.22,-0.57,-0.21,0.22,0.37,0.13,-0.35,-0.35,-0.35
97.30,-0.57,-0.19,-0.57,-0.19,0.19,0.33,0.10,-0.38,-0.38,-0.38
98.28,-0.58,-0.17,-0.58,-0.17,0.17,0.29,0.07,-0.41,-0.41,-0.41
99.26,-0.60,-0.16,-0.60,-0.16,0.15,0.25,0.04,-0.45,-0.44,-0.44
100.25,-0.61,-0.14,-0.61,-0.14,0.14,0.21,0.02,-0.47,-0.47,-0.47
101.25,-0.63,-0.13,-0.63,-0.13,0.13,0.18,-0.01,-0.50,-0.50,-0.50
102.27,-0.64,-0.11,-0.64,-0.11,0.12,0.14,-0.04,-0.52,-0.52,-0.53
103.29,-0.66,-0.09,-0.66,-0.10,0.11,0.10,-0.07,-0.55,-0.55,-0.57
104.32,-0.68,-0.09,-0.68,-0.09,0.09,0.06,-0.09,-0.59,-0.59,-0.59
105.37,-0.70,-0.08,-0.70,-0.09,0.07,0.02,-0.12,-0.63,-0.63,-0.62
106.42,-0.72,-0.07,-0.72,-0.07,0.05,-0.01,-0.14,-0.67,-0.67,-0.65
107.48,-0.74,-0.05,-0.72,-0.04,0.02,-0.05,-0.17,-0.72,-0.70,-0.69
108.56,-0.71,0.01,-0.71,0.01,-0.00,-0.09,-0.19,-0.71,-0.72,-0.72
109.64,-0.69,0.06,-0.71,0.05,-0.03,-0.12,-0.22,-0.72,-0.74,-0.75
110.74,-0.71,0.08,-0.71,0.08,-0.06,-0.16,-0.24,-0.77,-0.77,-0.79
111.85,-0.73,0.08,-0.72,0.10,-0.09,-0.20,-0.26,-0.82,-0.82,-0.81
112.97,-0.74,0.12,-0.74,0.12,-0.12,-0.23,-0.29,-0.86,-0.86,-0.86
114.10,-0.74,0.15,-0.75,0.14,-0.15,-0.27,-0.31,-0.89,-0.90,-0.89
115.24,-0.75,0.17,-0.75,0.17,-0.18,-0.30,-0.33,-0.93,-0.93,-0.92
116.39,-0.75,0.21,-0.75,0.20,-0.20,-0.34,-0.35,-0.95,-0.95,-0.96
117.55,-0.74,0.23,-0.74,0.23,-0.23,-0.37,-0.37,-0.97,-0.98,-0.97
118.73,-0.74,0.26,-0.74,0.26,-0.26,-0.40,-0.39,-1.00,-0.99,-1.00
119.92,-0.73,0.28,-0.73,0.29,-0.28,-0.44,-0.41,-1.01,-1.01,-1.01
121.12,-0.72,0.31,-0.72,0.31,-0.31,-0.47,-0.43,-1.03,-1.03,-1.03
122.33,-0.71,0.34,-0.71,0.33,-0.33,-0.50,-0.44,-1.04,-1.05,-1.05
123.55,-0.71,0.35,-0.71,0.36,-0.36,-0.53,-0.46,-1.07,-1.06,-1.06
124.79,-0.70,0.37,-0.70,0.37,-0.38,-0.56,-0.48,-1.08,-1.08,-1.07
126.03,-0.69,0.40,-0.69,0.39,-0.40,-0.60,-0.49,-1.09,-1.09,-1.09
127.29,-0.69,0.40,-0.68,0.41,-0.42,-0.62,-0.51,-1.11,-1.10,-1.09
128.57,-0.68,0.44,-0.68,0.44,-0.43,-0.65,-0.52,-1.11,-1.10,-1.12
129.85,-0.67,0.46,-0.68,0.45,-0.43,-0.68,-0.53,-1.10,-1.11,-1.13
131.15,-0.69,0.45,-0.70,0.44,-0.43,-0.71,-0.54,-1.12,-1.13,-1.14
132.46,-0.74,0.41,-0.72,0.43,-0.43,-0.74,-0.55,-1.17,-1.15,-1.15
133.79,-0.76,0.41,-0.76,0.41,-0.41,-0.76,-0.57,-1.17,-1.17,-1.17
135.12,-0.77,0.42,-0.79,0.39,-0.39,-0.79,-0.58,-1.16,-1.18,-1.19
136.48,-0.83,0.36,-0.81,0.38,-0.37,-0.81,-0.59,-1.20,-1.19,-1.19
137.84,-0.85,0.36,-0.85,0.36,-0.35,-0.84,-0.60,-1.20,-1.20,-1.21
139.22,-0.88,0.35,-0.89,0.33,-0.33,-0.86,-0.60,-1.21,-1.22,-1.23
140.61,-0.93,0.32,-0.92,0.32,-0.32,-0.88,-0.61,-1.25,-1.24,-1.25
142.02,-0.95,0.30,-0.95,0.30,-0.32,-0.91,-0.62,-1.27,-1.27,-1.25
143.44,-0.95,0.31,-0.96,0.31,-0.35,-0.93,-0.63,-1.30,-1.30,-1.26
144.87,-0.95,0.34,-0.94,0.35,-0.38,-0.95,-0.64,-1.33,-1.32,-1.29
146.32,-0.90,0.42,-0.90,0.41,-0.43,-0.97,-0.65,-1.33,-1.33,-1.32
147.78,-0.86,0.47,-0.85,0.49,-0.49,-0.99,-0.66,-1.35,-1.34,-1.33
149.26,-0.79,0.58,-0.80,0.58,-0.56,-1.01,-0.67,-1.35,-1.35,-1.37
150.75,-0.75,0.68,-0.76,0.66,-0.63,-1.03,-0.67,-1.38,-1.40,-1.43
152.26,-0.75,0.73,-0.75,0.73,-0.71,-1.04,-0.68,-1.46,-1.45,-1.48
153.78,-0.75,0.78,-0.75,0.79,-0.78,-1.06,-0.69,-1.53,-1.53,-1.53
155.32,-0.75,0.85,-0.75,0.85,-0.85,-1.07,-0.70,-1.60,-1.60,-1.60
156.88,-0.75,0.91,-0.75,0.91,-0.92,-1.09,-0.71,-1.67,-1.67,-1.66
158.44,-0.75,0.98,-0.75,0.98,-0.99,-1.10,-0.73,-1.74,-1.74,-1.73
160.03,-0.75,1.05,-0.75,1.05,-1.05,-1.12,-0.74,-1.80,-1.80,-1.80
161.63,-0.75,1.11,-0.76,1.11,-1.11,-1.13,-0.75,-1.86,-1.87,-1.86
163.24,-0.75,1.16,-0.75,1.16,-1.17,-1.14,-0.76,-1.92,-1.92,-1.91
164.88,-0.75,1.20,-0.73,1.23,-1.22,-1.15,-0.77,-1.97,-1.95,-1.95
166.53,-0.69,1.30,-0.70,1.29,-1.28,-1.16,-0.79,-1.97,-1.98,-1.99
168.19,-0.66,1.36,-0.68,1.34,-1.33,-1.17,-0.80,-1.99,-2.01,-2.02
169.87,-0.67,1.38,-0.67,1.38,-1.37,-1.18,-0.82,-2.04,-2.04,-2.05
171.57,-0.68,1.38,-0.66,1.40,-1.41,-1.19,-0.83,-2.09,-2.07,-2.06
173.29,-0.62,1.44,-0.63,1.44,-1.45,-1.20,-0.85,-2.07,-2.08,-2.06
175.02,-0.59,1.47,-0.58,1.49,-1.49,-1.21,-0.87,-2.08,-2.07,-2.06
176.77,-0.51,1.56,-0.53,1.53,-1.52,-1.22,-0.89,-2.03,-2.05,-2.07
178.54,-0.49,1.57,-0.50,1.56,-1.56,-1.22,-0.91,-2.05,-2.05,-2.06
180.32,-0.48,1.57,-0.46,1.59,-1.60,-1.23,-0.92,-2.08,-2.05,-2.05
182.13,-0.42,1.61,-0.42,1.61,-1.64,-1.23,-0.95,-2.06,-2.06,-2.03
183.95,-0.37,1.67,-0.39,1.65,-1.68,-1.24,-0.97,-2.05,-2.06,-2.04
185.79,-0.36,1.67,-0.35,1.68,-1.71,-1.24,-0.99,-2.07,-2.06,-2.03
187.65,-0.34,1.70,-0.33,1.71,-1.72,-1.25,-1.01,-2.06,-2.06,-2.04
189.52,-0.33,1.72,-0.32,1.73,-1.72,-1.25,-1.03,-2.05,-2.04,-2.05
191.42,-0.32,1.74,-0.33,1.73,-1.69,-1.25,-1.06,-2.01,-2.02,-2.06
193.33,-0.36,1.71,-0.39,1.68,-1.63,-1.26,-1.08,-1.99,-2.01,-2.07
195.27,-0.51,1.57,-0.51,1.57,-1.52,-1.26,-1.11,-2.03,-2.03,-2.08
197.22,-0.69,1.40,-0.67,1.43,-1.38,-1.26,-1.13,-2.07,-2.05,-2.09
199.19,-0.87,1.25,-0.86,1.25,-1.20,-1.26,-1.16,-2.07,-2.07,-2.12
201.18,-1.05,1.08,-1.09,1.04,-1.01,-1.26,-1.18,-2.06,-2.10,-2.13
203.19,-1.33,0.81,-1.33,0.80,-0.82,-1.26,-1.21,-2.15,-2.15,-2.14
205.23,-1.60,0.56,-1.58,0.57,-0.63,-1.26,-1.23,-2.23,-2.21,-2.16
207.28,-1.79,0.37,-1.77,0.39,-0.47,-1.26,-1.26,-2.26,-2.24,-2.16
209.35,-1.89,0.28,-1.89,0.29,-0.34,-1.26,-1.29,-2.23,-2.24,-2.17
211.44,-1.95,0.25,-1.96,0.23,-0.26,-1.26,-1.31,-2.21,-2.23,-2.20
213.56,-1.99,0.21,-1.99,0.21,-0.23,-1.26,-1.34,-2.22,-2.22,-2.20
215.69,-2.01,0.20,-2.00,0.21,-0.23,-1.26,-1.36,-2.24,-2.23,-2.21
217.85,-1.97,0.25,-1.97,0.25,-0.27,-1.26,-1.38,-2.24,-2.23,-2.22
220.03,-1.90,0.33,-1.89,0.34,-0.32,-1.26,-1.41,-2.22,-2.21,-2.23
222.23,-1.80,0.44,-1.81,0.43,-0.38,-1.26,-1.43,-2.18,-2.19,-2.24
224.45,-1.72,0.51,-1.74,0.50,-0.44,-1.25,-1.45,-2.16,-2.18,-2.23
226.70,-1.68,0.55,-1.68,0.54,-0.51,-1.25,-1.47,-2.19,-2.19,-2.23
228.96,-1.66,0.55,-1.64,0.58,-0.58,-1.25,-1.49,-2.24,-2.21,-2.21
231.25,-1.58,0.62,-1.59,0.61,-0.64,-1.25,-1.50,-2.22,-2.23,-2.20
233.57,-1.51,0.68,-1.51,0.67,-0.71,-1.25,-1.52,-2.22,-2.22,-2.19
235.90,-1.44,0.73,-1.42,0.76,-0.77,-1.25,-1.53,-2.21,-2.19,-2.17
238.26,-1.30,0.86,-1.32,0.83,-0.84,-1.24,-1.54,-2.14,-2.16,-2.16
240.64,-1.22,0.91,-1.22,0.91,-0.90,-1.24,-1.55,-2.12,-2.12,-2.13
243.05,-1.13,0.97,-1.12,0.98,-0.97,-1.24,-1.55,-2.10,-2.09,-2.10
245.48,-1.04,1.03,-1.03,1.04,-1.03,-1.24,-1.55,-2.07,-2.06,-2.07
247.93,-0.94,1.10,-0.94,1.10,-1.09,-1.24,-1.56,-2.03,-2.03,-2.04
250.41,-0.86,1.16,-0.87,1.15,-1.13,-1.24,-1.55,-1.99,-2.00,-2.02
252.92,-0.81,1.18,-0.82,1.17,-1.17,-1.24,-1.55,-1.98,-1.99,-1.99
255.45,-0.80,1.16,-0.78,1.19,-1.20,-1.24,-1.54,-2.00,-1.98,-1.96
258.00,-0.73,1.21,-0.73,1.21,-1.22,-1.25,-1.53,-1.95,-1.95,-1.94
260.58,-0.68,1.24,-0.67,1.24,-1.24,-1.25,-1.52,-1.92,-1.91,-1.92
263.19,-0.61,1.28,-0.63,1.27,-1.26,-1.25,-1.51,-1.87,-1.88,-1.89
265.82,-0.58,1.29,-0.59,1.27,-1.27,-1.26,-1.49,-1.85,-1.86,-1.87
268.48,-0.59,1.25,-0.56,1.28,-1.28,-1.27,-1.47,-1.87,-1.84,-1.84
271.16,-0.52,1.29,-0.52,1.29,-1.29,-1.28,-1.45,-1.81,-1.81,-1.81
273.87,-0.47,1.32,-0.47,1.31,-1.31,-1.29,-1.43,-1.78,-1.78,-1.79
276.61,-0.40,1.35,-0.43,1.32,-1.33,-1.30,-1.40,-1.73,-1.77,-1.75
279.38,-0.41,1.32,-0.40,1.33,-1.36,-1.31,-1.38,-1.77,-1.75,-1.73
282.17,-0.38,1.32,-0.34,1.36,-1.38,-1.33,-1.35,-1.76,-1.72,-1.70
284.99,-0.24,1.42,-0.26,1.40,-1.41,-1.35,-1.32,-1.65,-1.67,-1.66
287.84,-0.15,1.49,-0.16,1.48,-1.44,-1.38,-1.29,-1.59,-1.60,-1.64
290.72,-0.10,1.51,-0.09,1.52,-1.48,-1.41,-1.26,-1.58,-1.56,-1.61
293.63,-0.02,1.56,-0.07,1.50,-1.52,-1.44,-1.23,-1.54,-1.59,-1.58
296.57,-0.07,1.47,-0.03,1.51,-1.55,-1.48,-1.20,-1.62,-1.59,-1.54
299.53,-0.02,1.50,0.04,1.55,-1.59,-1.53,-1.17,-1.61,-1.55,-1.52
302.53,0.18,1.68,0.14,1.63,-1.61,-1.58,-1.13,-1.44,-1.47,-1.50
305.55,0.26,1.71,0.25,1.71,-1.65,-1.64,-1.10,-1.39,-1.40,-1.45
308.61,0.34,1.77,0.30,1.73,-1.69,-1.70,-1.07,-1.35,-1.39,-1.43
311.69,0.30,1.70,0.32,1.72,-1.75,-1.76,-1.03,-1.45,-1.43,-1.40
314.81,0.34,1.72,0.38,1.76,-1.83,-1.83,-1.00,-1.49,-1.45,-1.38
317.96,0.47,1.83,0.47,1.83,-1.91,-1.90,-0.97,-1.44,-1.44,-1.36
321.14,0.64,1.99,0.60,1.94,-1.99,-1.97,-0.93,-1.35,-1.39,-1.35
324.35,0.72,2.05,0.74,2.07,-2.06,-2.02,-0.90,-1.34,-1.32,-1.33
327.59,0.82,2.13,0.85,2.17,-2.11,-2.06,-0.87,-1.29,-1.26,-1.31
330.87,0.97,2.27,0.93,2.23,-2.16,-2.08,-0.83,-1.19,-1.23,-1.30
334.18,0.95,2.24,0.94,2.22,-2.18,-2.08,-0.80,-1.23,-1.24,-1.29
337.52,0.90,2.18,0.89,2.17,-2.15,-2.05,-0.77,-1.25,-1.25,-1.28
340.90,0.76,2.02,0.83,2.09,-2.08,-1.99,-0.74,-1.32,-1.25,-1.26
344.30,0.76,2.01,0.74,1.99,-1.97,-1.89,-0.71,-1.21,-1.23,-1.25
347.75,0.68,1.93,0.62,1.87,-1.85,-1.78,-0.68,-1.17,-1.23,-1.25
351.23,0.44,1.68,0.46,1.71,-1.72,-1.65,-0.65,-1.28,-1.26,-1.24
354.74,0.26,1.50,0.25,1.50,-1.58,-1.50,-0.62,-1.32,-1.33,-1.24
358.28,0.05,1.29,0.10,1.33,-1.43,-1.34,-0.59,-1.38,-1.34,-1.24
361.87,-0.02,1.22,0.00,1.24,-1.27,-1.17,-0.56,-1.29,-1.27,-1.24
365.49,-0.05,1.18,-0.09,1.14,-1.10,-0.99,-0.54,-1.15,-1.19,-1.23
369.14,-0.22,1.02,-0.20,1.03,-0.92,-0.81,-0.51,-1.14,-1.12,-1.24
372.83,-0.47,0.77,-0.48,0.76,-0.72,-0.62,-0.48,-1.19,-1.19,-1.24
376.56,-0.84,0.40,-0.95,0.28,-0.51,-0.42,-0.46,-1.35,-1.46,-1.24
380.33,-1.53,-0.30,-1.49,-0.26,-0.28,-0.22,-0.43,-1.81,-1.77,-1.23
384.13,-2.18,-0.95,-2.05,-0.81,-0.03,-0.01,-0.41,-2.21,-2.08,-1.23
387.97,-2.49,-1.25,-2.59,-1.35,0.26,0.22,-0.38,-2.23,-2.33,-1.24
391.85,-2.97,-1.72,-3.02,-1.77,0.57,0.44,-0.36,-2.40,-2.45,-1.25
395.77,-3.40,-2.16,-3.32,-2.07,0.85,0.67,-0.34,-2.55,-2.47,-1.24
399.73,-3.53,-2.27,-3.47,-2.21,1.10,0.88,-0.31,-2.43,-2.36,-1.26
403.72,-3.39,-2.13,-3.40,-2.15,1.31,1.08,-0.29,-2.08,-2.09,-1.26
407.76,-3.18,-1.91,-3.24,-1.97,1.46,1.22,-0.27,-1.72,-1.78,-1.27
411.84,-3.06,-1.79,-3.08,-1.81,1.54,1.32,-0.25,-1.52,-1.53,-1.27
415.96,-2.97,-1.70,-2.96,-1.69,1.57,1.35,-0.23,-1.40,-1.39,-1.27
420.12,-2.85,-1.58,-2.83,-1.57,1.54,1.32,-0.21,-1.31,-1.29,-1.27
424.32,-2.68,-1.41,-2.67,-1.41,1.46,1.24,-0.19,-1.22,-1.22,-1.27
428.56,-2.48,-1.22,-2.48,-1.22,1.32,1.12,-0.17,-1.16,-1.16,-1.26
432.85,-2.29,-1.04,-2.30,-1.05,1.14,0.99,-0.16,-1.15,-1.16,-1.25
437.18,-2.12,-0.88,-2.15,-0.92,0.93,0.84,-0.14,-1.19,-1.22,-1.24
441.55,-2.03,-0.83,-2.01,-0.80,0.73,0.70,-0.12,-1.30,-1.28,-1.20
445.96,-1.86,-0.69,-1.83,-0.65,0.57,0.57,-0.11,-1.29,-1.26,-1.17
450.42,-1.61,-0.47,-1.58,-0.44,0.43,0.45,-0.09,-1.18,-1.14,-1.14
454.93,-1.31,-0.22,-1.34,-0.25,0.33,0.35,-0.08,-0.98,-1.01,-1.09
459.48,-1.09,-0.05,-1.17,-0.13,0.26,0.26,-0.06,-0.83,-0.91,-1.04
464.07,-1.16,-0.17,-1.09,-0.10,0.21,0.19,-0.05,-0.95,-0.88,-0.99
468.71,-1.07,-0.14,-1.09,-0.15,0.19,0.12,-0.04,-0.88,-0.90,-0.93
