frequency,raw,error,smoothed,error_smoothed,equalization,parametric_eq,equalized_raw,equalized_smoothed,target
20,-23.27,-29.41,-23.23,-29.36,6.00,2.61,-17.27,-17.23,6.14
21,-22.53,-28.66,-22.59,-28.71,6.00,2.98,-16.53,-16.59,6.13
22,-21.91,-28.04,-21.96,-28.07,6.00,3.39,-15.91,-15.96,6.12
23,-21.36,-27.48,-21.34,-27.45,6.00,3.83,-15.36,-15.34,6.11
24,-20.79,-26.90,-20.74,-26.84,6.00,4.30,-14.79,-14.74,6.11
25,-20.24,-26.34,-20.15,-26.25,6.00,4.77,-14.24,-14.15,6.10
26,-19.57,-25.66,-19.58,-25.67,6.00,5.25,-13.57,-13.58,6.09
27,-18.93,-25.01,-19.02,-25.10,6.00,5.70,-12.93,-13.02,6.08
28,-18.37,-24.44,-18.47,-24.54,6.00,6.11,-12.37,-12.47,6.07
29,-17.87,-23.93,-17.94,-24.00,6.00,6.45,-11.87,-11.94,6.06
30,-17.46,-23.51,-17.43,-23.47,6.00,6.71,-11.46,-11.43,6.04
31,-17.00,-23.03,-16.94,-22.96,6.00,6.86,-11.00,-10.94,6.03
32,-16.49,-22.51,-16.45,-22.46,6.00,6.93,-10.49,-10.45,6.02
33,-15.98,-21.99,-15.98,-21.98,6.00,6.91,-9.98,-9.98,6.00
34,-15.50,-21.49,-15.52,-21.50,6.00,6.84,-9.50,-9.52,5.99
35,-15.03,-21.00,-15.07,-21.04,6.00,6.72,-9.03,-9.07,5.97
36,-14.59,-20.55,-14.65,-20.59,6.00,6.59,-8.59,-8.65,5.95
37,-14.23,-20.17,-14.22,-20.14,6.00,6.45,-8.23,-8.22,5.93
38,-13.88,-19.80,-13.81,-19.71,6.00,6.31,-7.88,-7.81,5.92
39,-13.45,-19.35,-13.40,-19.28,6.00,6.20,-7.45,-7.40,5.90
40,-13.00,-18.88,-13.00,-18.87,6.00,6.10,-7.00,-7.00,5.87
41,-12.58,-18.44,-12.61,-18.46,6.00,6.02,-6.58,-6.61,5.85
42,-12.21,-18.04,-12.24,-18.06,6.00,5.98,-6.21,-6.24,5.83
43,-11.85,-17.66,-11.88,-17.68,6.00,5.95,-5.85,-5.88,5.80
44,-11.51,-17.29,-11.53,-17.30,6.00,5.95,-5.51,-5.53,5.78
45,-11.17,-16.93,-11.19,-16.93,6.00,5.98,-5.17,-5.19,5.75
46,-10.85,-16.58,-10.86,-16.58,6.00,6.02,-4.85,-4.86,5.73
47,-10.53,-16.23,-10.53,-16.23,6.00,6.09,-4.53,-4.53,5.70
48,-10.23,-15.90,-10.22,-15.89,6.00,6.17,-4.23,-4.22,5.67
49,-9.92,-15.56,-9.92,-15.56,6.00,6.27,-3.92,-3.92,5.64
50,-9.61,-15.22,-9.63,-15.23,6.00,6.38,-3.61,-3.63,5.61
51,-9.33,-14.91,-9.35,-14.91,6.00,6.50,-3.33,-3.35,5.57
52,-9.09,-14.63,-9.07,-14.60,6.00,6.62,-3.09,-3.07,5.54
53,-8.86,-14.37,-8.80,-14.30,6.00,6.74,-2.86,-2.80,5.50
54,-8.57,-14.04,-8.53,-14.00,6.00,6.87,-2.57,-2.53,5.47
55,-8.26,-13.69,-8.28,-13.71,6.00,6.98,-2.26,-2.28,5.43
56,-7.98,-13.38,-8.03,-13.42,6.00,7.09,-1.98,-2.03,5.39
57,-7.75,-13.11,-7.79,-13.14,6.00,7.18,-1.75,-1.79,5.35
58,-7.53,-12.85,-7.56,-12.86,6.00,7.25,-1.53,-1.56,5.31
59,-7.31,-12.59,-7.33,-12.59,6.00,7.30,-1.31,-1.33,5.27
60,-7.08,-12.31,-7.11,-12.33,6.00,7.33,-1.08,-1.11,5.23
61,-6.88,-12.07,-6.89,-12.06,6.00,7.33,-0.88,-0.89,5.19
62,-6.68,-11.83,-6.67,-11.80,6.00,7.30,-0.68,-0.67,5.14
63,-6.48,-11.58,-6.45,-11.54,6.00,7.25,-0.48,-0.45,5.10
64,-6.27,-11.33,-6.24,-11.27,6.00,7.18,-0.27,-0.24,5.05
65,-6.05,-11.06,-6.02,-11.01,6.00,7.08,-0.05,-0.02,5.01
66,-5.82,-10.78,-5.80,-10.74,6.00,6.96,0.18,0.20,4.96
67,-5.60,-10.51,-5.58,-10.48,6.00,6.82,0.40,0.42,4.91
68,-5.37,-10.24,-5.36,-10.21,6.00,6.66,0.63,0.64,4.86
69,-5.14,-9.96,-5.14,-9.94,6.00,6.50,0.86,0.86,4.81
70,-4.90,-9.67,-4.92,-9.67,6.00,6.32,1.10,1.08,4.76
71,-4.68,-9.40,-4.70,-9.40,6.00,6.14,1.32,1.30,4.71
72,-4.45,-9.12,-4.49,-9.14,6.00,5.96,1.55,1.51,4.66
73,-4.23,-8.84,-4.28,-8.88,6.00,5.77,1.77,1.72,4.61
74,-4.03,-8.59,-4.08,-8.63,6.00,5.58,1.97,1.92,4.56
75,-3.86,-8.37,-3.88,-8.38,6.00,5.39,2.14,2.12,4.51
76,-3.69,-8.15,-3.68,-8.13,6.00,5.20,2.31,2.32,4.45
77,-3.52,-7.92,-3.49,-7.89,6.00,5.02,2.48,2.51,4.40
78,-3.34,-7.69,-3.31,-7.65,6.00,4.84,2.66,2.69,4.35
79,-3.15,-7.45,-3.13,-7.41,6.00,4.67,2.85,2.87,4.29
80,-2.95,-7.19,-2.95,-7.18,6.00,4.49,3.05,3.05,4.24
81,-2.76,-6.95,-2.77,-6.95,6.00,4.33,3.24,3.23,4.19
82,-2.59,-6.73,-2.60,-6.72,6.00,4.17,3.41,3.40,4.13
83,-2.41,-6.49,-2.43,-6.50,6.00,4.01,3.59,3.57,4.08
84,-2.24,-6.27,-2.25,-6.27,5.96,3.86,3.71,3.70,4.02
85,-2.07,-6.04,-2.08,-6.05,5.86,3.72,3.79,3.78,3.97
86,-1.91,-5.83,-1.91,-5.82,5.72,3.58,3.81,3.81,3.92
87,-1.75,-5.62,-1.74,-5.60,5.55,3.44,3.80,3.81,3.86
88,-1.58,-5.39,-1.57,-5.38,5.37,3.31,3.78,3.79,3.81
89,-1.42,-5.18,-1.41,-5.17,5.17,3.18,3.74,3.75,3.76
90,-1.26,-4.97,-1.25,-4.95,4.95,3.06,3.69,3.70,3.70
91,-1.10,-4.75,-1.09,-4.75,4.75,2.95,3.64,3.65,3.65
92,-0.93,-4.53,-0.94,-4.54,4.54,2.83,3.61,3.60,3.60
93,-0.78,-4.33,-0.80,-4.34,4.34,2.72,3.55,3.54,3.55
94,-0.63,-4.13,-0.66,-4.14,4.14,2.62,3.50,3.48,3.49
95,-0.48,-3.93,-0.51,-3.94,3.94,2.52,3.46,3.43,3.44
96,-0.34,-3.73,-0.37,-3.75,3.75,2.42,3.41,3.38,3.39
97,-0.22,-3.56,-0.23,-3.56,3.56,2.32,3.33,3.32,3.34
98,-0.10,-3.39,-0.10,-3.37,3.37,2.23,3.26,3.27,3.29
99,0.02,-3.22,0.04,-3.18,3.18,2.14,3.19,3.22,3.24
100,0.13,-3.06,0.17,-2.99,2.99,2.06,3.12,3.16,3.19
101,0.24,-2.91,0.30,-2.81,2.81,1.97,3.04,3.11,3.14
102,0.35,-2.75,0.43,-2.63,2.63,1.89,2.97,3.06,3.09
104,0.61,-2.39,0.55,-2.45,2.45,1.74,3.06,3.00,3.00
105,0.73,-2.22,0.67,-2.28,2.28,1.67,3.01,2.95,2.95
106,0.84,-2.07,0.78,-2.11,2.11,1.60,2.95,2.90,2.90
107,0.94,-1.92,0.90,-1.95,1.95,1.53,2.89,2.85,2.86
108,1.04,-1.78,1.01,-1.80,1.80,1.46,2.83,2.80,2.81
109,1.12,-1.65,1.11,-1.65,1.65,1.40,2.76,2.76,2.77
110,1.20,-1.53,1.22,-1.50,1.50,1.34,2.70,2.72,2.73
111,1.29,-1.40,1.31,-1.36,1.36,1.28,2.65,2.67,2.68
112,1.37,-1.27,1.40,-1.22,1.22,1.22,2.59,2.62,2.64
113,1.46,-1.14,1.48,-1.09,1.09,1.16,2.55,2.58,2.60
114,1.54,-1.02,1.56,-0.97,0.97,1.10,2.50,2.53,2.56
115,1.62,-0.90,1.64,-0.85,0.85,1.05,2.46,2.48,2.51
117,1.76,-0.68,1.71,-0.73,0.73,0.95,2.48,2.44,2.43
118,1.83,-0.57,1.79,-0.61,0.61,0.90,2.43,2.39,2.40
119,1.88,-0.48,1.86,-0.49,0.49,0.85,2.37,2.35,2.36
120,1.94,-0.38,1.93,-0.38,0.38,0.80,2.32,2.31,2.32
121,1.98,-0.31,1.99,-0.27,0.27,0.76,2.25,2.26,2.28
123,2.06,-0.15,2.05,-0.17,0.17,0.67,2.22,2.22,2.21
124,2.11,-0.07,2.11,-0.07,0.07,0.62,2.17,2.18,2.18
125,2.15,0.01,2.16,0.03,-0.03,0.58,2.12,2.14,2.14
126,2.18,0.07,2.21,0.12,-0.12,0.54,2.06,2.09,2.11
128,2.27,0.23,2.25,0.20,-0.20,0.47,2.06,2.05,2.04
129,2.30,0.29,2.29,0.28,-0.28,0.43,2.01,2.01,2.01
130,2.34,0.36,2.33,0.36,-0.36,0.39,1.98,1.97,1.98
131,2.37,0.42,2.36,0.43,-0.43,0.36,1.94,1.93,1.94
133,2.41,0.52,2.39,0.50,-0.50,0.29,1.91,1.89,1.88
134,2.43,0.57,2.41,0.56,-0.56,0.25,1.87,1.85,1.85
135,2.43,0.60,2.43,0.61,-0.61,0.22,1.81,1.81,1.83
137,2.44,0.67,2.44,0.66,-0.66,0.15,1.77,1.78,1.77
138,2.44,0.69,2.45,0.71,-0.71,0.12,1.73,1.74,1.74
140,2.46,0.77,2.45,0.75,-0.75,0.06,1.70,1.70,1.69
141,2.45,0.78,2.45,0.79,-0.79,0.03,1.66,1.66,1.66
142,2.45,0.81,2.45,0.82,-0.82,0.00,1.63,1.63,1.64
144,2.44,0.85,2.44,0.85,-0.85,-0.06,1.59,1.59,1.59
145,2.44,0.87,2.43,0.87,-0.87,-0.09,1.57,1.56,1.57
147,2.43,0.91,2.41,0.89,-0.89,-0.15,1.54,1.52,1.52
148,2.41,0.91,2.40,0.91,-0.91,-0.18,1.50,1.49,1.50
150,2.38,0.92,2.38,0.92,-0.92,-0.23,1.46,1.46,1.45
151,2.37,0.93,2.36,0.93,-0.93,-0.26,1.44,1.43,1.43
153,2.34,0.94,2.34,0.94,-0.94,-0.32,1.40,1.40,1.39
154,2.32,0.94,2.31,0.95,-0.95,-0.35,1.37,1.36,1.37
156,2.29,0.95,2.29,0.96,-0.96,-0.40,1.33,1.33,1.33
157,2.27,0.95,2.27,0.97,-0.97,-0.43,1.30,1.30,1.31
159,2.24,0.96,2.25,0.98,-0.98,-0.49,1.26,1.27,1.28
160,2.24,0.98,2.24,0.99,-0.99,-0.52,1.24,1.24,1.26
162,2.22,0.99,2.23,1.01,-1.01,-0.57,1.21,1.22,1.23
164,2.21,1.01,2.22,1.03,-1.03,-0.63,1.18,1.19,1.19
165,2.21,1.03,2.21,1.05,-1.05,-0.66,1.16,1.17,1.18
167,2.20,1.05,2.21,1.07,-1.07,-0.72,1.13,1.14,1.15
169,2.21,1.09,2.21,1.09,-1.09,-0.78,1.12,1.12,1.12
170,2.21,1.10,2.21,1.11,-1.11,-0.81,1.09,1.10,1.10
172,2.22,1.14,2.21,1.14,-1.14,-0.86,1.08,1.07,1.07
174,2.23,1.18,2.21,1.16,-1.16,-0.92,1.07,1.05,1.05
175,2.22,1.18,2.21,1.18,-1.18,-0.95,1.03,1.03,1.03
177,2.23,1.22,2.20,1.20,-1.20,-1.02,1.02,1.00,1.01
179,2.23,1.24,2.20,1.22,-1.22,-1.08,1.00,0.98,0.98
181,2.22,1.26,2.20,1.25,-1.25,-1.14,0.97,0.96,0.96
183,2.20,1.26,2.20,1.27,-1.27,-1.20,0.93,0.94,0.94
184,2.19,1.26,2.20,1.29,-1.29,-1.23,0.90,0.92,0.93
186,2.19,1.28,2.20,1.31,-1.31,-1.29,0.88,0.90,0.90
188,2.19,1.30,2.20,1.33,-1.33,-1.36,0.86,0.88,0.88
190,2.19,1.32,2.21,1.35,-1.35,-1.42,0.84,0.86,0.86
192,2.21,1.36,2.21,1.37,-1.37,-1.48,0.83,0.84,0.84
194,2.23,1.40,2.22,1.40,-1.40,-1.55,0.83,0.82,0.83
196,2.25,1.44,2.22,1.42,-1.42,-1.61,0.82,0.80,0.81
198,2.25,1.45,2.24,1.45,-1.45,-1.67,0.80,0.79,0.79
200,2.26,1.48,2.25,1.48,-1.48,-1.74,0.78,0.77,0.77
202,2.27,1.51,2.27,1.51,-1.51,-1.80,0.76,0.76,0.76
204,2.28,1.53,2.28,1.54,-1.54,-1.86,0.74,0.75,0.74
206,2.29,1.56,2.30,1.57,-1.57,-1.92,0.72,0.73,0.73
208,2.31,1.59,2.32,1.60,-1.60,-1.98,0.71,0.72,0.71
210,2.34,1.63,2.33,1.63,-1.63,-2.04,0.71,0.70,0.70
212,2.36,1.67,2.34,1.66,-1.66,-2.10,0.69,0.68,0.69
214,2.38,1.70,2.36,1.69,-1.69,-2.15,0.68,0.67,0.68
216,2.41,1.74,2.38,1.73,-1.73,-2.21,0.68,0.65,0.66
218,2.41,1.76,2.40,1.76,-1.76,-2.26,0.65,0.64,0.65
221,2.43,1.79,2.43,1.80,-1.80,-2.34,0.63,0.63,0.63
223,2.44,1.81,2.45,1.83,-1.83,-2.39,0.60,0.62,0.62
225,2.46,1.84,2.48,1.87,-1.87,-2.43,0.58,0.61,0.61
227,2.49,1.88,2.51,1.91,-1.91,-2.47,0.57,0.60,0.60
229,2.53,1.93,2.54,1.96,-1.96,-2.51,0.57,0.58,0.59
232,2.59,2.01,2.58,2.01,-2.01,-2.57,0.58,0.57,0.58
234,2.62,2.05,2.62,2.05,-2.05,-2.60,0.56,0.56,0.57
236,2.66,2.10,2.66,2.10,-2.10,-2.63,0.55,0.55,0.56
239,2.72,2.17,2.70,2.16,-2.16,-2.67,0.56,0.54,0.55
241,2.75,2.21,2.75,2.21,-2.21,-2.69,0.54,0.54,0.54
244,2.80,2.27,2.79,2.26,-2.26,-2.72,0.53,0.53,0.53
246,2.84,2.32,2.84,2.32,-2.32,-2.73,0.52,0.52,0.52
248,2.87,2.35,2.88,2.37,-2.37,-2.74,0.50,0.51,0.51
251,2.92,2.41,2.92,2.42,-2.42,-2.75,0.50,0.50,0.50
253,2.95,2.45,2.96,2.46,-2.46,-2.75,0.48,0.49,0.50
256,3.00,2.51,2.99,2.51,-2.51,-2.75,0.49,0.49,0.49
259,3.04,2.56,3.02,2.55,-2.55,-2.74,0.49,0.48,0.48
261,3.06,2.58,3.05,2.58,-2.58,-2.73,0.48,0.47,0.47
264,3.09,2.62,3.07,2.61,-2.61,-2.72,0.47,0.46,0.46
266,3.10,2.64,3.09,2.64,-2.64,-2.70,0.46,0.46,0.46
269,3.12,2.67,3.11,2.66,-2.66,-2.68,0.46,0.45,0.45
272,3.13,2.68,3.12,2.68,-2.68,-2.65,0.45,0.44,0.44
274,3.13,2.69,3.12,2.69,-2.69,-2.62,0.44,0.44,0.44
277,3.13,2.70,3.12,2.69,-2.69,-2.59,0.43,0.43,0.43
280,3.12,2.69,3.12,2.70,-2.70,-2.55,0.42,0.42,0.42
283,3.11,2.69,3.11,2.70,-2.70,-2.51,0.41,0.41,0.42
286,3.10,2.69,3.10,2.69,-2.69,-2.47,0.40,0.41,0.41
288,3.09,2.68,3.09,2.68,-2.68,-2.44,0.40,0.40,0.41
291,3.07,2.67,3.07,2.67,-2.67,-2.39,0.39,0.40,0.40
294,3.05,2.65,3.05,2.66,-2.66,-2.35,0.39,0.39,0.39
297,3.03,2.64,3.03,2.64,-2.64,-2.30,0.38,0.39,0.39
300,3.01,2.62,3.01,2.63,-2.63,-2.26,0.38,0.38,0.38
303,2.99,2.61,2.98,2.61,-2.61,-2.21,0.38,0.38,0.38
306,2.96,2.58,2.96,2.58,-2.58,-2.17,0.37,0.37,0.37
309,2.93,2.56,2.93,2.56,-2.56,-2.12,0.37,0.37,0.37
312,2.90,2.53,2.89,2.53,-2.53,-2.08,0.37,0.36,0.36
316,2.86,2.50,2.86,2.50,-2.50,-2.02,0.36,0.36,0.36
319,2.82,2.46,2.82,2.46,-2.46,-1.98,0.36,0.36,0.35
322,2.78,2.43,2.77,2.42,-2.42,-1.93,0.35,0.35,0.35
325,2.74,2.39,2.73,2.38,-2.38,-1.89,0.36,0.35,0.35
328,2.69,2.34,2.68,2.33,-2.33,-1.86,0.35,0.34,0.34
332,2.63,2.29,2.62,2.28,-2.28,-1.81,0.34,0.34,0.34
335,2.58,2.24,2.57,2.23,-2.23,-1.77,0.34,0.33,0.34
338,2.52,2.18,2.51,2.18,-2.18,-1.73,0.34,0.33,0.33
342,2.45,2.12,2.45,2.12,-2.12,-1.69,0.32,0.33,0.33
345,2.40,2.07,2.39,2.07,-2.07,-1.66,0.33,0.32,0.32
349,2.32,2.00,2.33,2.01,-2.01,-1.62,0.31,0.32,0.32
352,2.27,1.95,2.27,1.95,-1.95,-1.59,0.31,0.31,0.32
356,2.20,1.88,2.21,1.90,-1.90,-1.55,0.30,0.31,0.31
359,2.15,1.83,2.15,1.84,-1.84,-1.53,0.30,0.31,0.31
363,2.09,1.78,2.09,1.79,-1.79,-1.49,0.29,0.30,0.31
366,2.04,1.73,2.04,1.74,-1.74,-1.47,0.29,0.30,0.31
370,1.99,1.68,1.99,1.69,-1.69,-1.44,0.29,0.30,0.30
374,1.94,1.64,1.94,1.65,-1.65,-1.41,0.29,0.30,0.30
377,1.90,1.60,1.90,1.60,-1.60,-1.39,0.29,0.29,0.30
381,1.86,1.56,1.85,1.56,-1.56,-1.37,0.30,0.29,0.29
385,1.81,1.51,1.81,1.52,-1.52,-1.35,0.29,0.29,0.29
389,1.77,1.48,1.77,1.48,-1.48,-1.32,0.29,0.29,0.29
393,1.73,1.44,1.72,1.43,-1.43,-1.30,0.29,0.29,0.29
397,1.69,1.40,1.68,1.39,-1.39,-1.28,0.30,0.29,0.28
401,1.64,1.35,1.63,1.35,-1.35,-1.26,0.29,0.28,0.28
405,1.60,1.32,1.59,1.30,-1.30,-1.25,0.29,0.28,0.28
409,1.55,1.27,1.54,1.26,-1.26,-1.23,0.29,0.28,0.28
413,1.50,1.22,1.49,1.21,-1.21,-1.21,0.28,0.27,0.28
417,1.45,1.17,1.44,1.17,-1.17,-1.20,0.28,0.27,0.27
421,1.40,1.13,1.39,1.12,-1.12,-1.18,0.27,0.27,0.27
425,1.35,1.08,1.34,1.08,-1.08,-1.17,0.27,0.26,0.27
430,1.29,1.02,1.30,1.04,-1.04,-1.15,0.25,0.26,0.27
434,1.25,0.98,1.25,1.00,-1.00,-1.14,0.25,0.26,0.26
438,1.20,0.93,1.22,0.96,-0.96,-1.12,0.24,0.26,0.26
443,1.17,0.90,1.18,0.92,-0.92,-1.11,0.24,0.26,0.26
447,1.14,0.87,1.15,0.89,-0.89,-1.09,0.24,0.26,0.26
451,1.12,0.85,1.12,0.86,-0.86,-1.08,0.25,0.26,0.27
456,1.10,0.83,1.10,0.83,-0.83,-1.06,0.26,0.26,0.27
460,1.08,0.80,1.08,0.81,-0.81,-1.04,0.27,0.27,0.27
465,1.07,0.78,1.06,0.79,-0.79,-1.02,0.28,0.28,0.28
470,1.06,0.77,1.05,0.76,-0.76,-1.00,0.29,0.29,0.29
474,1.04,0.74,1.04,0.74,-0.74,-0.98,0.30,0.30,0.30
479,1.03,0.72,1.02,0.71,-0.71,-0.96,0.32,0.31,0.31
484,1.02,0.70,1.01,0.68,-0.68,-0.94,0.33,0.32,0.32
489,1.00,0.66,0.99,0.65,-0.65,-0.91,0.34,0.34,0.33
494,0.98,0.63,0.97,0.62,-0.62,-0.88,0.36,0.35,0.34
499,0.96,0.60,0.94,0.59,-0.59,-0.86,0.37,0.36,0.36
504,0.94,0.56,0.92,0.55,-0.55,-0.83,0.39,0.37,0.37
509,0.91,0.52,0.89,0.51,-0.51,-0.80,0.40,0.38,0.39
514,0.88,0.47,0.87,0.47,-0.47,-0.76,0.41,0.40,0.41
519,0.84,0.41,0.84,0.43,-0.43,-0.73,0.41,0.42,0.42
524,0.80,0.36,0.82,0.38,-0.38,-0.69,0.41,0.43,0.44
529,0.77,0.31,0.79,0.34,-0.34,-0.66,0.43,0.45,0.46
535,0.76,0.28,0.77,0.30,-0.30,-0.61,0.46,0.47,0.48
540,0.73,0.23,0.75,0.25,-0.25,-0.58,0.47,0.49,0.50
545,0.73,0.21,0.73,0.21,-0.21,-0.54,0.52,0.52,0.52
551,0.73,0.18,0.71,0.17,-0.17,-0.49,0.56,0.54,0.54
556,0.71,0.14,0.69,0.12,-0.12,-0.45,0.58,0.56,0.57
562,0.69,0.09,0.67,0.08,-0.08,-0.40,0.61,0.59,0.59
568,0.67,0.04,0.66,0.04,-0.04,-0.35,0.63,0.62,0.62
573,0.65,-0.00,0.64,-0.01,0.01,-0.31,0.65,0.65,0.65
579,0.63,-0.05,0.63,-0.05,0.05,-0.25,0.68,0.68,0.68
585,0.61,-0.10,0.62,-0.09,0.09,-0.20,0.70,0.71,0.71
591,0.60,-0.14,0.61,-0.13,0.13,-0.15,0.73,0.74,0.74
596,0.59,-0.18,0.59,-0.17,0.17,-0.10,0.76,0.76,0.77
602,0.59,-0.21,0.58,-0.21,0.21,-0.05,0.80,0.79,0.80
608,0.59,-0.24,0.57,-0.25,0.25,0.00,0.83,0.82,0.83
615,0.59,-0.27,0.57,-0.28,0.28,0.07,0.86,0.85,0.86
621,0.58,-0.31,0.57,-0.31,0.31,0.12,0.88,0.88,0.89
627,0.58,-0.35,0.58,-0.33,0.33,0.18,0.91,0.91,0.92
633,0.57,-0.39,0.59,-0.35,0.35,0.23,0.92,0.94,0.95
639,0.57,-0.42,0.61,-0.37,0.37,0.29,0.93,0.98,0.98
646,0.59,-0.43,0.63,-0.38,0.38,0.35,0.97,1.01,1.02
652,0.62,-0.43,0.65,-0.40,0.40,0.41,1.01,1.04,1.05
659,0.67,-0.42,0.67,-0.41,0.41,0.47,1.08,1.08,1.08
665,0.71,-0.41,0.69,-0.42,0.42,0.53,1.13,1.11,1.12
672,0.75,-0.41,0.71,-0.44,0.44,0.59,1.19,1.15,1.15
679,0.77,-0.42,0.73,-0.46,0.46,0.65,1.23,1.19,1.19
686,0.78,-0.45,0.74,-0.49,0.49,0.72,1.26,1.23,1.23
692,0.78,-0.49,0.75,-0.52,0.52,0.78,1.29,1.27,1.26
699,0.77,-0.54,0.76,-0.55,0.55,0.84,1.32,1.31,1.30
706,0.76,-0.58,0.76,-0.59,0.59,0.91,1.34,1.35,1.34
713,0.75,-0.63,0.76,-0.63,0.63,0.97,1.38,1.39,1.38
721,0.74,-0.68,0.74,-0.68,0.68,1.05,1.41,1.42,1.42
728,0.74,-0.72,0.73,-0.72,0.72,1.11,1.46,1.45,1.46
735,0.72,-0.78,0.71,-0.77,0.77,1.18,1.49,1.49,1.49
742,0.72,-0.82,0.70,-0.82,0.82,1.24,1.54,1.52,1.53
750,0.69,-0.89,0.69,-0.87,0.87,1.32,1.55,1.56,1.57
757,0.68,-0.94,0.68,-0.91,0.91,1.38,1.59,1.60,1.61
765,0.66,-0.99,0.68,-0.95,0.95,1.46,1.61,1.63,1.65
773,0.65,-1.04,0.68,-0.99,0.99,1.53,1.64,1.67,1.69
780,0.66,-1.07,0.68,-1.03,1.03,1.60,1.68,1.71,1.72
788,0.67,-1.09,0.69,-1.06,1.06,1.67,1.73,1.75,1.76
796,0.68,-1.12,0.69,-1.10,1.10,1.74,1.77,1.78,1.79
804,0.70,-1.13,0.69,-1.13,1.13,1.82,1.83,1.82,1.82
812,0.71,-1.15,0.69,-1.17,1.17,1.89,1.87,1.85,1.86
820,0.72,-1.17,0.69,-1.20,1.20,1.96,1.92,1.89,1.89
828,0.71,-1.22,0.68,-1.25,1.25,2.03,1.95,1.92,1.92
837,0.69,-1.27,0.67,-1.29,1.29,2.11,1.98,1.96,1.95
845,0.67,-1.32,0.65,-1.34,1.34,2.17,2.01,1.99,1.98
853,0.64,-1.38,0.63,-1.39,1.39,2.24,2.03,2.02,2.01
862,0.60,-1.45,0.60,-1.45,1.45,2.31,2.05,2.05,2.04
871,0.56,-1.52,0.56,-1.51,1.51,2.38,2.07,2.07,2.07
879,0.52,-1.59,0.52,-1.58,1.58,2.44,2.10,2.10,2.10
888,0.48,-1.65,0.48,-1.65,1.65,2.51,2.12,2.12,2.13
897,0.43,-1.73,0.43,-1.72,1.72,2.57,2.14,2.15,2.16
906,0.39,-1.80,0.39,-1.79,1.79,2.63,2.17,2.18,2.18
915,0.35,-1.86,0.35,-1.86,1.86,2.68,2.20,2.20,2.21
924,0.30,-1.94,0.31,-1.92,1.92,2.73,2.22,2.23,2.24
933,0.26,-2.01,0.27,-1.99,1.99,2.78,2.25,2.26,2.26
943,0.22,-2.07,0.23,-2.06,2.06,2.83,2.28,2.29,2.29
952,0.18,-2.14,0.18,-2.13,2.13,2.87,2.31,2.32,2.32
962,0.15,-2.19,0.14,-2.20,2.20,2.91,2.35,2.34,2.34
971,0.12,-2.25,0.10,-2.27,2.27,2.94,2.39,2.37,2.37
981,0.09,-2.31,0.06,-2.34,2.34,2.97,2.42,2.39,2.39
991,0.04,-2.38,0.02,-2.40,2.40,2.99,2.44,2.42,2.42
1001,-0.00,-2.45,-0.03,-2.47,2.47,3.01,2.46,2.44,2.45
1011,-0.06,-2.54,-0.06,-2.53,2.53,3.03,2.47,2.47,2.47
1021,-0.10,-2.60,-0.10,-2.59,2.59,3.04,2.49,2.49,2.50
1031,-0.15,-2.68,-0.13,-2.65,2.65,3.05,2.49,2.52,2.53
1041,-0.18,-2.74,-0.16,-2.70,2.70,3.05,2.52,2.54,2.55
1052,-0.20,-2.79,-0.18,-2.75,2.75,3.05,2.55,2.57,2.58
1062,-0.22,-2.83,-0.20,-2.80,2.80,3.04,2.57,2.60,2.61
1073,-0.22,-2.86,-0.21,-2.84,2.84,3.03,2.61,2.63,2.64
1084,-0.22,-2.89,-0.22,-2.88,2.88,3.02,2.65,2.66,2.67
1094,-0.22,-2.92,-0.22,-2.91,2.91,3.01,2.69,2.69,2.70
1105,-0.21,-2.94,-0.22,-2.94,2.94,2.99,2.73,2.73,2.73
1116,-0.20,-2.96,-0.21,-2.97,2.97,2.97,2.77,2.76,2.76
1128,-0.18,-2.97,-0.21,-3.00,3.00,2.94,2.82,2.79,2.79
1139,-0.18,-3.01,-0.21,-3.03,3.03,2.92,2.85,2.82,2.82
1150,-0.18,-3.04,-0.21,-3.06,3.06,2.89,2.87,2.85,2.85
1162,-0.19,-3.08,-0.20,-3.08,3.08,2.87,2.89,2.88,2.88
1173,-0.19,-3.11,-0.20,-3.11,3.11,2.84,2.91,2.91,2.92
1185,-0.19,-3.14,-0.20,-3.13,3.13,2.81,2.94,2.94,2.95
1197,-0.19,-3.17,-0.19,-3.15,3.15,2.78,2.96,2.97,2.98
1209,-0.19,-3.21,-0.18,-3.17,3.17,2.76,2.98,3.00,3.01
1221,-0.18,-3.23,-0.16,-3.19,3.19,2.73,3.01,3.03,3.04
1233,-0.18,-3.26,-0.15,-3.21,3.21,2.70,3.02,3.06,3.08
1246,-0.15,-3.26,-0.13,-3.22,3.22,2.67,3.07,3.10,3.11
1258,-0.12,-3.26,-0.10,-3.24,3.24,2.65,3.11,3.13,3.14
1271,-0.07,-3.25,-0.08,-3.25,3.25,2.62,3.17,3.17,3.17
1283,-0.03,-3.24,-0.05,-3.25,3.25,2.60,3.22,3.20,3.21
1296,0.01,-3.24,-0.03,-3.26,3.26,2.58,3.27,3.24,3.24
1309,0.04,-3.24,0.00,-3.27,3.27,2.56,3.31,3.27,3.28
1322,0.06,-3.26,0.04,-3.28,3.28,2.54,3.33,3.31,3.32
1335,0.07,-3.29,0.07,-3.29,3.29,2.52,3.35,3.35,3.35
1349,0.07,-3.32,0.10,-3.30,3.30,2.51,3.36,3.39,3.39
1362,0.09,-3.34,0.13,-3.31,3.31,2.50,3.39,3.43,3.43
1376,0.12,-3.35,0.15,-3.32,3.32,2.49,3.44,3.47,3.46
1390,0.15,-3.36,0.16,-3.34,3.34,2.48,3.49,3.50,3.50
1404,0.18,-3.36,0.17,-3.36,3.36,2.47,3.54,3.54,3.54
1418,0.21,-3.37,0.18,-3.39,3.39,2.46,3.60,3.57,3.58
1432,0.22,-3.40,0.18,-3.42,3.42,2.46,3.64,3.61,3.62
1446,0.21,-3.45,0.18,-3.47,3.47,2.46,3.67,3.65,3.66
1461,0.19,-3.51,0.18,-3.51,3.51,2.46,3.70,3.69,3.70
1475,0.16,-3.58,0.16,-3.57,3.57,2.47,3.73,3.73,3.73
1490,0.12,-3.66,0.14,-3.64,3.64,2.47,3.76,3.78,3.77
1505,0.07,-3.75,0.10,-3.73,3.73,2.48,3.79,3.82,3.81
1520,0.03,-3.83,0.04,-3.82,3.82,2.49,3.85,3.87,3.85
1535,-0.02,-3.92,-0.02,-3.94,3.94,2.50,3.91,3.91,3.90
1550,-0.08,-4.02,-0.11,-4.07,4.07,2.51,3.99,3.96,3.94
1566,-0.16,-4.15,-0.21,-4.22,4.22,2.52,4.05,4.01,3.98
1582,-0.28,-4.31,-0.32,-4.38,4.38,2.54,4.10,4.06,4.03
1597,-0.40,-4.48,-0.45,-4.56,4.56,2.56,4.15,4.10,4.07
1613,-0.55,-4.67,-0.60,-4.74,4.74,2.57,4.19,4.14,4.12
1629,-0.71,-4.88,-0.76,-4.94,4.94,2.59,4.22,4.18,4.16
1646,-0.89,-5.10,-0.93,-5.14,5.14,2.61,4.24,4.21,4.21
1662,-1.07,-5.33,-1.10,-5.34,5.34,2.63,4.26,4.23,4.25
1679,-1.26,-5.56,-1.29,-5.54,5.54,2.65,4.27,4.25,4.30
1696,-1.45,-5.80,-1.46,-5.72,5.69,2.67,4.24,4.23,4.35
1713,-1.63,-6.03,-1.63,-5.90,5.81,2.69,4.18,4.18,4.40
1730,-1.80,-6.25,-1.78,-6.05,5.90,2.71,4.09,4.11,4.44
1747,-1.92,-6.41,-1.91,-6.18,5.95,2.72,4.02,4.04,4.49
1764,-2.02,-6.56,-2.00,-6.27,5.98,2.74,3.96,3.98,4.54
1782,-2.10,-6.69,-2.07,-6.34,6.00,2.76,3.90,3.93,4.59
1800,-2.11,-6.75,-2.09,-6.37,6.00,2.77,3.89,3.91,4.64
1818,-2.09,-6.79,-2.06,-6.35,6.00,2.78,3.91,3.94,4.69
1836,-2.03,-6.79,-1.99,-6.30,6.00,2.79,3.97,4.01,4.75
1854,-1.91,-6.73,-1.87,-6.21,5.97,2.79,4.05,4.10,4.81
1873,-1.73,-6.61,-1.69,-6.07,5.89,2.79,4.15,4.19,4.87
1892,-1.50,-6.44,-1.47,-5.89,5.77,2.79,4.26,4.30,4.94
1911,-1.21,-6.22,-1.19,-5.68,5.60,2.79,4.39,4.42,5.01
1930,-0.88,-5.97,-0.85,-5.42,5.39,2.78,4.51,4.54,5.08
1949,-0.50,-5.66,-0.47,-5.14,5.14,2.76,4.64,4.67,5.16
