frequency,raw,smoothed,error,error_smoothed,equalization,parametric_eq,fixed_band_eq,equalized_raw,equalized_smoothed,target
20.00,2.10,2.10,-4.54,-4.53,4.52,4.24,1.48,6.62,6.62,6.64
20.20,2.16,2.15,-4.48,-4.48,4.48,4.22,1.53,6.64,6.64,6.64
20.40,2.21,2.21,-4.43,-4.43,4.44,4.20,1.57,6.64,6.64,6.63
20.61,2.25,2.25,-4.39,-4.38,4.39,4.17,1.62,6.64,6.64,6.63
20.81,2.30,2.29,-4.34,-4.34,4.34,4.15,1.67,6.64,6.64,6.63
21.02,2.34,2.33,-4.30,-4.29,4.29,4.13,1.72,6.63,6.63,6.63
21.23,2.37,2.37,-4.25,-4.25,4.24,4.11,1.78,6.61,6.62,6.61
21.44,2.41,2.41,-4.19,-4.19,4.19,4.08,1.83,6.60,6.60,6.60
21.66,2.44,2.44,-4.14,-4.14,4.14,4.06,1.89,6.58,6.58,6.58
21.87,2.48,2.48,-4.08,-4.09,4.09,4.03,1.94,6.57,6.57,6.56
22.09,2.51,2.51,-4.04,-4.03,4.03,4.01,2.00,6.54,6.54,6.55
22.31,2.55,2.55,-3.97,-3.98,3.97,3.99,2.06,6.52,6.52,6.52
22.54,2.58,2.58,-3.92,-3.92,3.91,3.96,2.12,6.49,6.49,6.50
22.76,2.62,2.62,-3.86,-3.85,3.85,3.94,2.19,6.47,6.47,6.48
22.99,2.66,2.66,-3.79,-3.79,3.79,3.91,2.25,6.45,6.45,6.45
23.22,2.70,2.70,-3.72,-3.73,3.73,3.88,2.32,6.43,6.43,6.42
23.45,2.73,2.73,-3.67,-3.67,3.67,3.86,2.39,6.40,6.41,6.40
23.69,2.77,2.77,-3.62,-3.62,3.62,3.83,2.46,6.39,6.38,6.39
23.92,2.80,2.80,-3.57,-3.57,3.57,3.81,2.53,6.36,6.37,6.36
24.16,2.84,2.84,-3.52,-3.52,3.51,3.78,2.60,6.35,6.35,6.35
24.40,2.87,2.87,-3.46,-3.47,3.47,3.75,2.67,6.33,6.33,6.33
24.65,2.89,2.89,-3.42,-3.42,3.42,3.72,2.75,6.31,6.31,6.31
24.89,2.92,2.92,-3.37,-3.38,3.38,3.69,2.82,6.30,6.29,6.29
25.14,2.94,2.94,-3.34,-3.34,3.34,3.67,2.90,6.27,6.28,6.28
25.39,2.97,2.97,-3.29,-3.30,3.30,3.64,2.97,6.26,6.26,6.26
25.65,2.99,2.98,-3.26,-3.26,3.26,3.61,3.05,6.25,6.24,6.25
25.91,3.00,3.00,-3.22,-3.22,3.23,3.58,3.12,6.22,6.23,6.22
26.16,3.02,3.02,-3.19,-3.19,3.19,3.55,3.20,6.21,6.21,6.21
26.43,3.03,3.03,-3.17,-3.16,3.17,3.52,3.27,6.19,6.19,6.20
26.69,3.04,3.04,-3.14,-3.14,3.14,3.49,3.34,6.18,6.18,6.17
26.96,3.05,3.05,-3.12,-3.12,3.11,3.46,3.41,6.16,6.16,6.16
27.23,3.06,3.06,-3.09,-3.09,3.09,3.43,3.48,6.15,6.15,6.15
27.50,3.07,3.07,-3.07,-3.07,3.07,3.40,3.55,6.13,6.13,6.14
27.77,3.08,3.08,-3.04,-3.05,3.05,3.37,3.61,6.12,6.12,6.12
28.05,3.08,3.08,-3.03,-3.02,3.02,3.33,3.67,6.10,6.10,6.11
28.33,3.09,3.09,-3.00,-3.00,3.00,3.30,3.73,6.09,6.09,6.09
28.62,3.09,3.09,-2.99,-2.98,2.98,3.27,3.78,6.07,6.07,6.07
28.90,3.10,3.10,-2.96,-2.96,2.97,3.24,3.82,6.06,6.06,6.06
29.19,3.10,3.10,-2.94,-2.95,2.95,3.20,3.87,6.05,6.05,6.04
29.48,3.11,3.11,-2.93,-2.93,2.93,3.17,3.90,6.04,6.04,6.04
29.78,3.11,3.11,-2.92,-2.92,2.92,3.14,3.93,6.03,6.03,6.03
30.08,3.11,3.11,-2.91,-2.91,2.90,3.10,3.95,6.01,6.01,6.02
30.38,3.11,3.11,-2.89,-2.89,2.89,3.07,3.97,6.00,6.00,5.99
30.68,3.11,3.11,-2.87,-2.87,2.87,3.04,3.98,5.98,5.98,5.98
30.99,3.11,3.11,-2.85,-2.86,2.86,3.00,3.98,5.96,5.96,5.96
31.30,3.11,3.11,-2.84,-2.84,2.84,2.97,3.97,5.95,5.94,5.95
31.61,3.11,3.11,-2.83,-2.82,2.82,2.93,3.96,5.93,5.93,5.94
31.93,3.11,3.11,-2.81,-2.80,2.80,2.90,3.94,5.91,5.91,5.91
32.24,3.12,3.11,-2.76,-2.77,2.78,2.87,3.91,5.89,5.89,5.88
32.57,3.12,3.12,-2.75,-2.75,2.75,2.83,3.87,5.87,5.87,5.87
32.89,3.12,3.12,-2.74,-2.73,2.73,2.80,3.84,5.85,5.85,5.85
33.22,3.12,3.12,-2.70,-2.71,2.71,2.76,3.79,5.82,5.83,5.82
33.55,3.13,3.12,-2.68,-2.68,2.68,2.73,3.73,5.81,5.81,5.81
33.89,3.13,3.13,-2.66,-2.66,2.66,2.69,3.67,5.79,5.79,5.79
34.23,3.13,3.13,-2.64,-2.63,2.64,2.66,3.61,5.76,5.76,5.76
34.57,3.13,3.13,-2.61,-2.61,2.61,2.62,3.54,5.74,5.74,5.74
34.92,3.14,3.13,-2.58,-2.59,2.59,2.59,3.46,5.72,5.72,5.72
35.27,3.14,3.14,-2.57,-2.56,2.56,2.56,3.38,5.70,5.70,5.70
35.62,3.15,3.14,-2.53,-2.54,2.53,2.52,3.30,5.68,5.68,5.68
35.97,3.15,3.15,-2.51,-2.51,2.51,2.49,3.22,5.66,5.66,5.66
36.33,3.16,3.16,-2.49,-2.48,2.48,2.46,3.13,5.64,5.64,5.64
36.70,3.17,3.16,-2.45,-2.45,2.46,2.43,3.04,5.62,5.62,5.62
37.06,3.17,3.17,-2.43,-2.43,2.43,2.39,2.95,5.60,5.60,5.60
37.43,3.18,3.17,-2.40,-2.40,2.40,2.36,2.86,5.58,5.58,5.58
37.81,3.18,3.18,-2.38,-2.38,2.37,2.33,2.76,5.55,5.55,5.56
38.19,3.19,3.19,-2.34,-2.35,2.34,2.30,2.67,5.53,5.53,5.53
38.57,3.20,3.20,-2.32,-2.32,2.32,2.27,2.57,5.51,5.51,5.52
38.95,3.21,3.21,-2.28,-2.28,2.29,2.24,2.48,5.49,5.49,5.49
39.34,3.22,3.22,-2.25,-2.25,2.25,2.20,2.38,5.47,5.47,5.47
39.74,3.23,3.23,-2.21,-2.22,2.22,2.17,2.29,5.45,5.45,5.44
40.14,3.24,3.24,-2.20,-2.19,2.19,2.13,2.19,5.43,5.43,5.44
40.54,3.25,3.25,-2.16,-2.16,2.16,2.10,2.10,5.41,5.41,5.41
40.94,3.27,3.26,-2.13,-2.13,2.13,2.06,2.00,5.40,5.40,5.40
41.35,3.28,3.28,-2.09,-2.10,2.10,2.02,1.91,5.38,5.38,5.37
41.76,3.30,3.29,-2.07,-2.06,2.07,1.97,1.82,5.36,5.36,5.36
42.18,3.31,3.31,-2.04,-2.03,2.03,1.93,1.73,5.34,5.34,5.35
42.60,3.33,3.33,-1.99,-2.00,1.99,1.88,1.64,5.32,5.32,5.32
43.03,3.36,3.35,-1.96,-1.95,1.95,1.82,1.55,5.31,5.30,5.31
43.46,3.38,3.38,-1.91,-1.90,1.90,1.76,1.46,5.28,5.28,5.29
43.90,3.41,3.41,-1.85,-1.86,1.86,1.70,1.37,5.26,5.26,5.26
44.33,3.44,3.44,-1.80,-1.80,1.80,1.64,1.29,5.24,5.24,5.24
44.78,3.47,3.47,-1.75,-1.75,1.75,1.57,1.20,5.22,5.22,5.22
45.23,3.51,3.51,-1.69,-1.69,1.69,1.51,1.12,5.20,5.20,5.19
45.68,3.55,3.55,-1.63,-1.63,1.64,1.44,1.04,5.18,5.18,5.18
46.13,3.59,3.59,-1.57,-1.57,1.58,1.37,0.96,5.17,5.16,5.16
46.60,3.63,3.63,-1.52,-1.51,1.51,1.30,0.88,5.14,5.14,5.15
47.06,3.68,3.68,-1.45,-1.45,1.45,1.23,0.80,5.12,5.12,5.13
47.53,3.73,3.73,-1.38,-1.38,1.38,1.15,0.72,5.10,5.10,5.11
48.01,3.79,3.78,-1.31,-1.31,1.30,1.08,0.64,5.09,5.08,5.10
48.49,3.84,3.84,-1.23,-1.23,1.22,1.01,0.57,5.06,5.06,5.07
48.97,3.90,3.90,-1.14,-1.13,1.14,0.94,0.49,5.04,5.04,5.04
49.46,3.97,3.96,-1.04,-1.04,1.05,0.87,0.42,5.02,5.01,5.00
49.96,4.03,4.03,-0.95,-0.95,0.96,0.80,0.34,4.99,4.99,4.97
50.46,4.10,4.10,-0.87,-0.86,0.87,0.73,0.27,4.96,4.97,4.97
50.96,4.17,4.17,-0.78,-0.77,0.77,0.66,0.20,4.94,4.94,4.95
51.47,4.25,4.24,-0.67,-0.68,0.67,0.59,0.13,4.92,4.92,4.91
51.99,4.32,4.32,-0.57,-0.58,0.57,0.52,0.06,4.89,4.89,4.89
52.51,4.40,4.40,-0.48,-0.47,0.47,0.45,-0.01,4.87,4.87,4.88
53.03,4.48,4.48,-0.37,-0.37,0.37,0.38,-0.08,4.85,4.85,4.85
53.56,4.57,4.56,-0.26,-0.26,0.26,0.31,-0.14,4.83,4.83,4.83
54.10,4.65,4.65,-0.16,-0.15,0.15,0.24,-0.21,4.80,4.80,4.80
54.64,4.74,4.74,-0.04,-0.04,0.04,0.18,-0.28,4.78,4.78,4.78
55.18,4.82,4.82,0.07,0.07,-0.07,0.11,-0.34,4.75,4.75,4.75
55.74,4.91,4.91,0.18,0.18,-0.18,0.04,-0.40,4.73,4.73,4.72
56.29,4.99,4.99,0.28,0.29,-0.29,-0.03,-0.47,4.70,4.70,4.71
56.86,5.07,5.07,0.39,0.39,-0.39,-0.10,-0.53,4.67,4.68,4.68
57.42,5.15,5.15,0.50,0.50,-0.50,-0.17,-0.59,4.65,4.65,4.65
58.00,5.23,5.23,0.60,0.60,-0.60,-0.24,-0.65,4.63,4.63,4.63
58.58,5.31,5.30,0.71,0.70,-0.70,-0.31,-0.71,4.61,4.61,4.60
59.16,5.38,5.38,0.80,0.80,-0.80,-0.38,-0.77,4.58,4.58,4.58
59.76,5.45,5.45,0.89,0.89,-0.89,-0.45,-0.82,4.55,4.56,4.56
60.35,5.52,5.51,0.99,0.98,-0.99,-0.52,-0.88,4.53,4.53,4.53
60.96,5.58,5.58,1.06,1.07,-1.08,-0.59,-0.94,4.50,4.50,4.51
61.57,5.64,5.64,1.17,1.17,-1.17,-0.66,-0.99,4.47,4.47,4.47
62.18,5.70,5.70,1.26,1.26,-1.26,-0.73,-1.04,4.44,4.44,4.44
62.80,5.76,5.76,1.35,1.35,-1.34,-0.81,-1.10,4.42,4.41,4.41
63.43,5.81,5.81,1.43,1.43,-1.42,-0.88,-1.15,4.39,4.39,4.38
64.07,5.86,5.86,1.51,1.50,-1.50,-0.95,-1.20,4.36,4.36,4.35
64.71,5.91,5.91,1.57,1.57,-1.57,-1.02,-1.25,4.33,4.33,4.33
65.35,5.95,5.95,1.64,1.64,-1.64,-1.10,-1.30,4.30,4.31,4.31
66.01,6.00,6.00,1.71,1.71,-1.71,-1.17,-1.35,4.29,4.28,4.29
66.67,6.04,6.04,1.78,1.78,-1.78,-1.24,-1.40,4.26,4.26,4.26
67.33,6.08,6.08,1.84,1.84,-1.84,-1.32,-1.45,4.24,4.24,4.24
68.01,6.12,6.12,1.91,1.90,-1.90,-1.39,-1.49,4.22,4.21,4.21
68.69,6.15,6.15,1.96,1.97,-1.96,-1.47,-1.54,4.18,4.19,4.19
69.37,6.19,6.18,2.03,2.02,-2.02,-1.54,-1.59,4.16,4.16,4.16
70.07,6.22,6.22,2.08,2.08,-2.09,-1.62,-1.64,4.13,4.13,4.13
70.77,6.25,6.25,2.14,2.15,-2.15,-1.69,-1.69,4.10,4.11,4.11
71.48,6.29,6.28,2.21,2.20,-2.21,-1.77,-1.74,4.08,4.08,4.08
72.19,6.32,6.31,2.27,2.27,-2.27,-1.85,-1.79,4.05,4.05,4.05
72.91,6.34,6.34,2.32,2.33,-2.33,-1.92,-1.84,4.01,4.02,4.01
73.64,6.37,6.37,2.39,2.39,-2.39,-2.00,-1.89,3.98,3.98,3.98
74.38,6.40,6.39,2.45,2.45,-2.45,-2.08,-1.94,3.95,3.94,3.95
75.12,6.42,6.42,2.52,2.51,-2.51,-2.16,-2.00,3.91,3.91,3.90
75.87,6.45,6.44,2.58,2.57,-2.57,-2.23,-2.05,3.88,3.87,3.87
76.63,6.47,6.47,2.63,2.63,-2.63,-2.31,-2.11,3.83,3.83,3.84
77.40,6.49,6.49,2.69,2.69,-2.69,-2.39,-2.17,3.79,3.80,3.80
78.17,6.52,6.51,2.77,2.75,-2.76,-2.47,-2.23,3.76,3.76,3.75
78.95,6.54,6.54,2.81,2.82,-2.82,-2.55,-2.29,3.72,3.72,3.73
79.74,6.56,6.56,2.87,2.88,-2.88,-2.63,-2.35,3.68,3.68,3.68
80.54,6.58,6.58,2.94,2.94,-2.94,-2.71,-2.42,3.64,3.64,3.64
81.35,6.60,6.60,3.00,3.00,-3.00,-2.79,-2.48,3.60,3.60,3.59
82.16,6.62,6.62,3.07,3.06,-3.06,-2.86,-2.55,3.55,3.55,3.55
82.98,6.63,6.63,3.12,3.13,-3.13,-2.94,-2.62,3.50,3.51,3.51
83.81,6.65,6.65,3.19,3.19,-3.19,-3.02,-2.69,3.46,3.46,3.46
84.65,6.66,6.66,3.25,3.25,-3.25,-3.10,-2.77,3.41,3.41,3.41
85.50,6.68,6.67,3.31,3.31,-3.31,-3.18,-2.85,3.37,3.36,3.37
86.35,6.69,6.69,3.37,3.37,-3.37,-3.26,-2.93,3.32,3.32,3.32
87.22,6.70,6.70,3.43,3.43,-3.43,-3.34,-3.01,3.27,3.27,3.27
88.09,6.72,6.71,3.50,3.49,-3.49,-3.42,-3.09,3.22,3.22,3.22
88.97,6.73,6.73,3.55,3.55,-3.55,-3.50,-3.18,3.17,3.18,3.18
89.86,6.74,6.74,3.61,3.61,-3.61,-3.58,-3.27,3.13,3.13,3.13
90.76,6.75,6.74,3.68,3.67,-3.67,-3.65,-3.36,3.08,3.07,3.06
91.66,6.75,6.75,3.73,3.73,-3.73,-3.73,-3.45,3.02,3.02,3.02
92.58,6.76,6.76,3.80,3.79,-3.79,-3.81,-3.55,2.97,2.97,2.96
93.51,6.77,6.77,3.84,3.85,-3.85,-3.88,-3.65,2.92,2.92,2.93
94.44,6.78,6.78,3.91,3.91,-3.91,-3.96,-3.75,2.87,2.87,2.87
95.39,6.78,6.78,3.96,3.97,-3.97,-4.04,-3.85,2.81,2.81,2.82
96.34,6.79,6.78,4.04,4.03,-4.03,-4.11,-3.96,2.76,2.76,2.75
97.30,6.79,6.79,4.09,4.09,-4.09,-4.19,-4.06,2.70,2.70,2.70
98.28,6.79,6.79,4.15,4.15,-4.15,-4.26,-4.17,2.64,2.64,2.64
99.26,6.80,6.79,4.22,4.21,-4.21,-4.33,-4.28,2.58,2.58,2.58
100.25,6.80,6.80,4.28,4.28,-4.28,-4.41,-4.39,2.52,2.52,2.52
101.25,6.80,6.80,4.33,4.34,-4.34,-4.48,-4.51,2.46,2.46,2.46
102.27,6.80,6.80,4.40,4.40,-4.40,-4.55,-4.62,2.40,2.40,2.40
103.29,6.80,6.80,4.47,4.46,-4.46,-4.62,-4.73,2.33,2.34,2.33
104.32,6.81,6.80,4.53,4.53,-4.53,-4.69,-4.85,2.28,2.28,2.28
105.37,6.81,6.81,4.59,4.59,-4.59,-4.75,-4.96,2.22,2.22,2.22
106.42,6.81,6.81,4.66,4.66,-4.66,-4.82,-5.07,2.15,2.15,2.15
107.48,6.81,6.81,4.72,4.72,-4.72,-4.89,-5.19,2.09,2.09,2.09
108.56,6.81,6.81,4.79,4.79,-4.79,-4.95,-5.30,2.02,2.02,2.02
109.64,6.81,6.81,4.85,4.85,-4.85,-5.01,-5.41,1.96,1.96,1.95
110.74,6.81,6.81,4.91,4.91,-4.92,-5.08,-5.51,1.89,1.89,1.90
111.85,6.81,6.81,4.98,4.98,-4.98,-5.14,-5.61,1.82,1.82,1.83
112.97,6.81,6.81,5.06,5.05,-5.05,-5.19,-5.71,1.76,1.76,1.75
114.10,6.81,6.81,5.12,5.12,-5.11,-5.25,-5.80,1.69,1.69,1.69
115.24,6.80,6.80,5.17,5.18,-5.18,-5.31,-5.89,1.62,1.63,1.63
116.39,6.80,6.80,5.25,5.24,-5.24,-5.36,-5.97,1.56,1.56,1.55
117.55,6.79,6.79,5.30,5.30,-5.30,-5.42,-6.05,1.49,1.49,1.49
118.73,6.78,6.78,5.35,5.35,-5.35,-5.47,-6.12,1.43,1.43,1.42
119.92,6.77,6.77,5.40,5.40,-5.40,-5.52,-6.17,1.37,1.37,1.37
121.12,6.76,6.76,5.45,5.45,-5.45,-5.57,-6.23,1.31,1.31,1.31
122.33,6.75,6.75,5.50,5.50,-5.50,-5.61,-6.27,1.25,1.25,1.25
123.55,6.74,6.74,5.54,5.54,-5.54,-5.66,-6.31,1.19,1.19,1.19
124.79,6.72,6.72,5.58,5.58,-5.59,-5.70,-6.33,1.13,1.13,1.13
126.03,6.71,6.71,5.62,5.63,-5.63,-5.74,-6.35,1.08,1.07,1.08
127.29,6.69,6.69,5.66,5.67,-5.67,-5.78,-6.36,1.01,1.02,1.02
128.57,6.68,6.68,5.72,5.71,-5.71,-5.82,-6.37,0.97,0.96,0.95
129.85,6.66,6.66,5.75,5.75,-5.75,-5.85,-6.35,0.91,0.91,0.90
131.15,6.64,6.64,5.78,5.79,-5.78,-5.89,-6.34,0.86,0.86,0.86
132.46,6.62,6.62,5.82,5.81,-5.81,-5.92,-6.32,0.80,0.80,0.80
133.79,6.60,6.60,5.83,5.84,-5.84,-5.95,-6.29,0.75,0.75,0.76
135.12,6.58,6.58,5.87,5.87,-5.87,-5.98,-6.25,0.71,0.71,0.71
136.48,6.56,6.56,5.89,5.88,-5.89,-6.01,-6.21,0.67,0.67,0.67
137.84,6.54,6.54,5.90,5.91,-5.90,-6.03,-6.16,0.63,0.63,0.64
139.22,6.51,6.51,5.92,5.92,-5.92,-6.05,-6.11,0.59,0.59,0.58
140.61,6.49,6.48,5.95,5.93,-5.93,-6.07,-6.05,0.56,0.56,0.54
142.02,6.46,6.46,5.93,5.94,-5.94,-6.09,-6.00,0.52,0.52,0.53
143.44,6.43,6.43,5.93,5.94,-5.94,-6.11,-5.93,0.49,0.49,0.50
144.87,6.41,6.40,5.95,5.94,-5.95,-6.12,-5.87,0.46,0.46,0.46
146.32,6.38,6.38,5.95,5.94,-5.95,-6.13,-5.81,0.43,0.43,0.43
147.78,6.35,6.35,5.94,5.95,-5.94,-6.14,-5.74,0.40,0.41,0.41
149.26,6.32,6.32,5.94,5.94,-5.94,-6.15,-5.68,0.38,0.38,0.38
150.75,6.29,6.28,5.94,5.94,-5.94,-6.16,-5.61,0.35,0.35,0.34
152.26,6.25,6.25,5.93,5.93,-5.93,-6.16,-5.55,0.32,0.32,0.32
153.78,6.22,6.22,5.93,5.93,-5.93,-6.17,-5.48,0.29,0.29,0.29
155.32,6.19,6.18,5.92,5.91,-5.92,-6.17,-5.42,0.27,0.26,0.27
156.88,6.15,6.15,5.90,5.91,-5.91,-6.17,-5.36,0.24,0.24,0.24
158.44,6.11,6.11,5.90,5.90,-5.90,-6.16,-5.31,0.20,0.21,0.21
160.03,6.08,6.07,5.90,5.90,-5.89,-6.16,-5.25,0.18,0.18,0.18
161.63,6.04,6.04,5.89,5.89,-5.88,-6.15,-5.20,0.16,0.16,0.15
163.24,6.00,6.00,5.87,5.87,-5.87,-6.14,-5.15,0.13,0.13,0.13
164.88,5.96,5.96,5.85,5.85,-5.85,-6.13,-5.11,0.10,0.10,0.11
166.53,5.91,5.91,5.83,5.84,-5.84,-6.12,-5.07,0.07,0.07,0.08
168.19,5.87,5.87,5.83,5.82,-5.82,-6.11,-5.03,0.05,0.04,0.04
169.87,5.82,5.82,5.81,5.80,-5.80,-6.09,-4.99,0.01,0.01,0.01
171.57,5.77,5.77,5.78,5.78,-5.79,-6.07,-4.96,-0.02,-0.02,-0.02
173.29,5.72,5.72,5.76,5.76,-5.77,-6.06,-4.94,-0.05,-0.05,-0.04
175.02,5.67,5.67,5.75,5.75,-5.75,-6.04,-4.91,-0.08,-0.08,-0.08
176.77,5.62,5.62,5.74,5.73,-5.73,-6.02,-4.89,-0.12,-0.12,-0.12
178.54,5.57,5.57,5.72,5.72,-5.72,-5.99,-4.88,-0.15,-0.15,-0.16
180.32,5.51,5.51,5.70,5.70,-5.70,-5.97,-4.86,-0.19,-0.19,-0.19
182.13,5.46,5.45,5.68,5.68,-5.68,-5.94,-4.86,-0.23,-0.23,-0.22
183.95,5.40,5.40,5.66,5.66,-5.67,-5.91,-4.85,-0.27,-0.26,-0.26
185.79,5.35,5.35,5.64,5.65,-5.65,-5.89,-4.85,-0.30,-0.30,-0.30
187.65,5.30,5.29,5.63,5.63,-5.62,-5.86,-4.85,-0.32,-0.33,-0.34
189.52,5.24,5.24,5.60,5.60,-5.60,-5.83,-4.86,-0.36,-0.36,-0.37
191.42,5.18,5.18,5.57,5.58,-5.57,-5.79,-4.87,-0.40,-0.39,-0.40
193.33,5.13,5.12,5.54,5.54,-5.54,-5.76,-4.88,-0.42,-0.42,-0.41
195.27,5.07,5.06,5.51,5.51,-5.51,-5.73,-4.90,-0.45,-0.45,-0.44
197.22,5.00,5.00,5.47,5.48,-5.48,-5.69,-4.92,-0.48,-0.48,-0.47
199.19,4.94,4.94,5.46,5.45,-5.44,-5.66,-4.94,-0.50,-0.50,-0.52
201.18,4.88,4.88,5.41,5.41,-5.40,-5.62,-4.96,-0.53,-0.53,-0.53
203.19,4.82,4.81,5.37,5.37,-5.36,-5.59,-4.98,-0.55,-0.55,-0.55
205.23,4.75,4.75,5.32,5.32,-5.32,-5.55,-5.01,-0.58,-0.57,-0.58
207.28,4.69,4.69,5.27,5.28,-5.28,-5.52,-5.04,-0.59,-0.59,-0.58
209.35,4.63,4.63,5.24,5.24,-5.24,-5.48,-5.07,-0.61,-0.61,-0.62
211.44,4.58,4.57,5.22,5.21,-5.20,-5.45,-5.10,-0.62,-0.63,-0.64
213.56,4.52,4.52,5.17,5.17,-5.16,-5.41,-5.13,-0.65,-0.64,-0.65
215.69,4.47,4.47,5.12,5.13,-5.13,-5.38,-5.16,-0.66,-0.66,-0.66
217.85,4.43,4.43,5.10,5.10,-5.10,-5.35,-5.19,-0.68,-0.68,-0.67
220.03,4.40,4.40,5.09,5.08,-5.09,-5.32,-5.21,-0.69,-0.69,-0.69
222.23,4.38,4.38,5.08,5.08,-5.08,-5.30,-5.24,-0.70,-0.70,-0.70
224.45,4.38,4.37,5.07,5.08,-5.09,-5.27,-5.26,-0.71,-0.71,-0.69
226.70,4.39,4.39,5.09,5.09,-5.11,-5.26,-5.28,-0.72,-0.72,-0.71
228.96,4.42,4.42,5.12,5.12,-5.14,-5.24,-5.30,-0.73,-0.72,-0.71
231.25,4.48,4.47,5.18,5.17,-5.19,-5.24,-5.31,-0.71,-0.72,-0.70
233.57,4.54,4.54,5.22,5.23,-5.25,-5.23,-5.32,-0.71,-0.71,-0.69
235.90,4.62,4.62,5.30,5.30,-5.31,-5.24,-5.32,-0.69,-0.69,-0.69
238.26,4.69,4.69,5.37,5.37,-5.37,-5.24,-5.32,-0.68,-0.68,-0.69
240.64,4.76,4.76,5.42,5.43,-5.41,-5.25,-5.31,-0.66,-0.66,-0.67
243.05,4.81,4.81,5.46,5.46,-5.44,-5.26,-5.30,-0.64,-0.64,-0.65
245.48,4.84,4.84,5.47,5.47,-5.45,-5.26,-5.28,-0.61,-0.61,-0.63
247.93,4.84,4.84,5.46,5.46,-5.43,-5.25,-5.25,-0.60,-0.59,-0.62
250.41,4.82,4.81,5.43,5.41,-5.39,-5.22,-5.21,-0.57,-0.58,-0.61
252.92,4.75,4.75,5.32,5.33,-5.31,-5.16,-5.17,-0.56,-0.56,-0.58
255.45,4.66,4.66,5.21,5.22,-5.21,-5.07,-5.12,-0.55,-0.55,-0.55
258.00,4.56,4.55,5.09,5.09,-5.09,-4.97,-5.07,-0.53,-0.53,-0.53
260.58,4.43,4.43,4.94,4.94,-4.94,-4.85,-5.01,-0.52,-0.51,-0.52
263.19,4.30,4.30,4.79,4.79,-4.79,-4.71,-4.94,-0.49,-0.49,-0.49
265.82,4.16,4.16,4.63,4.63,-4.63,-4.57,-4.86,-0.47,-0.48,-0.47
268.48,4.02,4.02,4.46,4.46,-4.48,-4.43,-4.78,-0.46,-0.46,-0.45
271.16,3.89,3.89,4.30,4.31,-4.32,-4.30,-4.70,-0.44,-0.44,-0.41
273.87,3.77,3.77,4.17,4.16,-4.18,-4.17,-4.61,-0.41,-0.41,-0.40
276.61,3.66,3.66,4.02,4.03,-4.04,-4.04,-4.51,-0.39,-0.38,-0.36
279.38,3.57,3.56,3.92,3.91,-3.92,-3.93,-4.41,-0.35,-0.35,-0.35
282.17,3.48,3.48,3.80,3.80,-3.80,-3.81,-4.31,-0.32,-0.32,-0.32
284.99,3.39,3.39,3.69,3.69,-3.69,-3.71,-4.20,-0.30,-0.30,-0.30
287.84,3.31,3.31,3.58,3.58,-3.58,-3.60,-4.09,-0.27,-0.27,-0.27
290.72,3.23,3.23,3.47,3.47,-3.47,-3.50,-3.98,-0.24,-0.24,-0.24
293.63,3.15,3.15,3.37,3.36,-3.36,-3.41,-3.87,-0.21,-0.21,-0.22
296.57,3.07,3.06,3.25,3.25,-3.24,-3.32,-3.76,-0.17,-0.18,-0.19
299.53,2.97,2.97,3.13,3.13,-3.12,-3.23,-3.64,-0.15,-0.15,-0.16
302.53,2.87,2.87,3.00,3.00,-2.99,-3.14,-3.52,-0.12,-0.12,-0.13
305.55,2.77,2.76,2.86,2.86,-2.85,-3.05,-3.41,-0.09,-0.09,-0.09
308.61,2.66,2.66,2.72,2.72,-2.72,-2.97,-3.29,-0.06,-0.06,-0.06
311.69,2.55,2.55,2.57,2.57,-2.57,-2.88,-3.17,-0.03,-0.03,-0.03
314.81,2.44,2.44,2.43,2.43,-2.43,-2.80,-3.06,0.00,0.00,0.01
317.96,2.33,2.33,2.29,2.29,-2.30,-2.72,-2.94,0.03,0.03,0.04
321.14,2.23,2.23,2.16,2.16,-2.16,-2.64,-2.83,0.06,0.06,0.06
324.35,2.13,2.13,2.04,2.04,-2.04,-2.56,-2.71,0.09,0.09,0.09
327.59,2.05,2.04,1.92,1.92,-1.92,-2.48,-2.60,0.13,0.12,0.13
330.87,1.96,1.96,1.80,1.81,-1.81,-2.40,-2.49,0.14,0.15,0.16
334.18,1.89,1.89,1.71,1.71,-1.72,-2.32,-2.38,0.17,0.17,0.17
337.52,1.83,1.82,1.63,1.62,-1.63,-2.24,-2.27,0.20,0.19,0.20
340.90,1.77,1.77,1.54,1.55,-1.55,-2.17,-2.16,0.21,0.22,0.23
344.30,1.73,1.73,1.48,1.48,-1.48,-2.09,-2.05,0.24,0.24,0.25
347.75,1.69,1.69,1.41,1.42,-1.42,-2.01,-1.94,0.27,0.27,0.27
351.23,1.67,1.66,1.38,1.37,-1.36,-1.94,-1.84,0.31,0.30,0.29
354.74,1.64,1.63,1.33,1.32,-1.31,-1.86,-1.74,0.33,0.32,0.31
358.28,1.60,1.60,1.27,1.27,-1.26,-1.79,-1.63,0.33,0.34,0.33
361.87,1.56,1.56,1.21,1.22,-1.22,-1.71,-1.53,0.34,0.34,0.34
365.49,1.54,1.54,1.17,1.17,-1.18,-1.64,-1.43,0.36,0.36,0.37
369.14,1.52,1.52,1.14,1.14,-1.15,-1.56,-1.34,0.37,0.37,0.38
372.83,1.52,1.51,1.12,1.11,-1.12,-1.49,-1.24,0.40,0.40,0.40
376.56,1.51,1.51,1.09,1.09,-1.09,-1.42,-1.14,0.42,0.42,0.42
380.33,1.51,1.51,1.06,1.07,-1.07,-1.34,-1.05,0.44,0.44,0.45
384.13,1.52,1.51,1.05,1.05,-1.05,-1.27,-0.96,0.46,0.46,0.46
387.97,1.52,1.52,1.04,1.04,-1.04,-1.20,-0.87,0.48,0.49,0.48
391.85,1.53,1.53,1.03,1.02,-1.02,-1.13,-0.77,0.51,0.51,0.50
395.77,1.53,1.53,1.00,1.00,-0.99,-1.06,-0.69,0.53,0.53,0.53
399.73,1.52,1.52,0.97,0.97,-0.97,-0.99,-0.60,0.55,0.55,0.55
403.72,1.51,1.51,0.94,0.94,-0.94,-0.92,-0.51,0.57,0.57,0.57
407.76,1.49,1.49,0.90,0.90,-0.90,-0.84,-0.43,0.59,0.59,0.59
411.84,1.47,1.47,0.85,0.86,-0.86,-0.78,-0.34,0.61,0.61,0.61
415.96,1.45,1.44,0.81,0.81,-0.81,-0.71,-0.26,0.64,0.63,0.63
420.12,1.41,1.41,0.76,0.76,-0.75,-0.64,-0.18,0.65,0.66,0.65
424.32,1.38,1.38,0.70,0.70,-0.70,-0.57,-0.10,0.68,0.68,0.68
428.56,1.34,1.34,0.64,0.64,-0.64,-0.50,-0.02,0.70,0.70,0.70
432.85,1.31,1.31,0.59,0.58,-0.58,-0.43,0.05,0.73,0.72,0.72
437.18,1.27,1.26,0.52,0.52,-0.52,-0.37,0.13,0.74,0.74,0.75
441.55,1.23,1.23,0.45,0.46,-0.47,-0.30,0.20,0.76,0.76,0.78
445.96,1.19,1.20,0.39,0.40,-0.42,-0.23,0.27,0.77,0.78,0.80
450.42,1.18,1.18,0.36,0.36,-0.36,-0.17,0.34,0.81,0.81,0.81
454.93,1.17,1.16,0.31,0.32,-0.31,-0.10,0.41,0.86,0.85,0.85
459.48,1.15,1.15,0.27,0.27,-0.26,-0.04,0.47,0.89,0.89,0.87
464.07,1.12,1.12,0.22,0.21,-0.21,0.03,0.53,0.91,0.91,0.90
468.71,1.09,1.09,0.15,0.16,-0.15,0.09,0.59,0.94,0.94,0.94
473.40,1.06,1.06,0.10,0.09,-0.09,0.16,0.65,0.97,0.96,0.96
478.13,1.02,1.02,0.03,0.03,-0.03,0.22,0.70,0.99,0.99,0.99
482.91,0.98,0.98,-0.04,-0.04,0.04,0.28,0.76,1.02,1.02,1.02
487.74,0.93,0.93,-0.12,-0.11,0.11,0.34,0.80,1.04,1.05,1.05
492.62,0.89,0.88,-0.19,-0.19,0.19,0.41,0.85,1.08,1.07,1.08
497.55,0.84,0.83,-0.26,-0.27,0.27,0.47,0.89,1.11,1.10,1.10
502.52,0.78,0.78,-0.36,-0.35,0.35,0.53,0.94,1.13,1.13,1.14
507.55,0.73,0.73,-0.43,-0.43,0.44,0.59,0.97,1.16,1.16,1.16
512.62,0.67,0.67,-0.52,-0.52,0.52,0.65,1.01,1.19,1.19,1.19
517.75,0.61,0.60,-0.61,-0.61,0.62,0.71,1.04,1.22,1.22,1.21
522.93,0.54,0.54,-0.71,-0.70,0.71,0.77,1.08,1.25,1.25,1.24
528.16,0.47,0.47,-0.80,-0.80,0.80,0.83,1.10,1.27,1.27,1.26
533.44,0.41,0.40,-0.89,-0.89,0.89,0.89,1.13,1.30,1.29,1.29
538.77,0.34,0.34,-0.99,-0.98,0.97,0.94,1.16,1.31,1.32,1.32
544.16,0.29,0.29,-1.06,-1.06,1.05,1.00,1.18,1.34,1.34,1.35
