frequency,raw,error,smoothed,error_smoothed,equalization,parametric_eq,equalized_raw,equalized_smoothed,target
20,2.95,1.30,2.99,1.34,-1.34,-2.28,1.61,1.65,1.65
21,3.49,1.84,3.38,1.73,-1.73,-2.45,1.76,1.65,1.65
22,3.70,2.06,3.74,2.09,-2.09,-2.62,1.61,1.65,1.65
23,4.02,2.37,4.08,2.44,-2.44,-2.80,1.59,1.65,1.65
24,4.36,2.72,4.41,2.76,-2.76,-2.97,1.60,1.65,1.65
25,4.78,3.13,4.71,3.06,-3.06,-3.14,1.72,1.65,1.65
26,5.10,3.45,5.00,3.35,-3.35,-3.31,1.75,1.65,1.65
27,5.21,3.57,5.26,3.61,-3.61,-3.47,1.60,1.65,1.65
28,5.47,3.82,5.51,3.86,-3.86,-3.64,1.61,1.65,1.65
29,5.71,4.06,5.74,4.10,-4.10,-3.80,1.61,1.65,1.65
30,5.98,4.34,5.97,4.32,-4.32,-3.97,1.66,1.65,1.65
31,6.17,4.52,6.18,4.53,-4.53,-4.13,1.64,1.65,1.65
32,6.39,4.74,6.37,4.73,-4.73,-4.28,1.66,1.65,1.65
33,6.55,4.90,6.56,4.91,-4.91,-4.44,1.64,1.65,1.65
34,6.78,5.13,6.73,5.09,-5.09,-4.59,1.69,1.65,1.65
35,6.88,5.23,6.90,5.25,-5.25,-4.74,1.62,1.65,1.65
36,7.08,5.43,7.05,5.41,-5.41,-4.88,1.67,1.65,1.65
37,7.18,5.53,7.20,5.55,-5.55,-5.03,1.63,1.64,1.64
38,7.32,5.68,7.33,5.69,-5.69,-5.17,1.64,1.64,1.64
39,7.40,5.76,7.46,5.82,-5.82,-5.30,1.58,1.64,1.64
40,7.58,5.94,7.58,5.94,-5.94,-5.44,1.64,1.64,1.64
41,7.78,6.14,7.69,6.05,-6.05,-5.57,1.73,1.64,1.64
42,7.78,6.14,7.79,6.15,-6.15,-5.70,1.63,1.64,1.64
43,7.88,6.24,7.89,6.25,-6.25,-5.82,1.64,1.64,1.64
44,7.98,6.35,7.97,6.34,-6.34,-5.94,1.65,1.64,1.64
45,8.06,6.43,8.06,6.42,-6.42,-6.06,1.65,1.64,1.64
46,8.08,6.45,8.13,6.50,-6.50,-6.18,1.59,1.64,1.64
47,8.24,6.61,8.21,6.58,-6.58,-6.29,1.66,1.63,1.63
48,8.29,6.65,8.28,6.65,-6.65,-6.40,1.63,1.63,1.63
49,8.29,6.66,8.36,6.73,-6.73,-6.51,1.55,1.63,1.63
50,8.48,6.86,8.43,6.81,-6.81,-6.61,1.68,1.63,1.63
51,8.49,6.86,8.51,6.89,-6.89,-6.71,1.60,1.62,1.62
52,8.59,6.97,8.58,6.96,-6.96,-6.81,1.63,1.62,1.62
53,8.64,7.03,8.65,7.03,-7.03,-6.91,1.61,1.62,1.62
54,8.77,7.16,8.72,7.10,-7.10,-7.00,1.67,1.61,1.61
55,8.79,7.18,8.78,7.17,-7.17,-7.09,1.62,1.61,1.61
56,8.79,7.19,8.84,7.23,-7.23,-7.18,1.55,1.60,1.60
57,8.89,7.29,8.89,7.29,-7.29,-7.27,1.60,1.60,1.60
58,8.89,7.30,8.94,7.35,-7.35,-7.35,1.54,1.59,1.59
59,8.99,7.41,8.98,7.40,-7.40,-7.43,1.59,1.58,1.58
60,9.09,7.51,9.02,7.44,-7.44,-7.51,1.65,1.58,1.58
61,9.09,7.52,9.05,7.48,-7.48,-7.58,1.61,1.57,1.57
62,9.09,7.53,9.08,7.52,-7.52,-7.66,1.57,1.56,1.56
63,9.09,7.54,9.11,7.56,-7.56,-7.73,1.53,1.55,1.55
64,9.09,7.55,9.14,7.60,-7.60,-7.80,1.49,1.54,1.54
65,9.09,7.56,9.17,7.64,-7.64,-7.87,1.45,1.53,1.53
66,9.19,7.68,9.20,7.69,-7.69,-7.93,1.51,1.51,1.51
67,9.29,7.79,9.23,7.73,-7.73,-7.99,1.56,1.50,1.50
68,9.29,7.80,9.25,7.77,-7.77,-8.05,1.53,1.49,1.49
69,9.29,7.82,9.27,7.80,-7.80,-8.11,1.49,1.47,1.47
70,9.29,7.84,9.29,7.83,-7.83,-8.17,1.46,1.45,1.45
71,9.29,7.86,9.30,7.86,-7.86,-8.23,1.43,1.44,1.44
72,9.29,7.88,9.30,7.88,-7.88,-8.28,1.41,1.42,1.42
73,9.29,7.90,9.30,7.91,-7.91,-8.33,1.39,1.40,1.40
74,9.29,7.92,9.30,7.93,-7.93,-8.38,1.36,1.37,1.37
75,9.29,7.94,9.30,7.95,-7.95,-8.43,1.34,1.35,1.35
76,9.29,7.97,9.30,7.98,-7.98,-8.48,1.31,1.32,1.32
77,9.29,7.99,9.30,8.00,-8.00,-8.52,1.29,1.30,1.30
78,9.29,8.02,9.30,8.03,-8.03,-8.57,1.26,1.27,1.27
79,9.29,8.05,9.29,8.05,-8.05,-8.61,1.24,1.24,1.24
80,9.29,8.08,9.27,8.07,-8.07,-8.65,1.22,1.21,1.21
81,9.29,8.12,9.26,8.08,-8.08,-8.70,1.21,1.17,1.17
82,9.29,8.15,9.23,8.10,-8.10,-8.74,1.19,1.14,1.14
83,9.29,8.19,9.21,8.11,-8.11,-8.77,1.18,1.10,1.10
84,9.09,8.03,9.20,8.13,-8.13,-8.81,0.96,1.06,1.06
85,9.09,8.07,9.19,8.16,-8.16,-8.85,0.93,1.02,1.02
86,9.16,8.18,9.18,8.20,-8.20,-8.88,0.96,0.98,0.98
87,9.19,8.25,9.19,8.25,-8.25,-8.92,0.94,0.94,0.94
88,9.19,8.30,9.21,8.32,-8.32,-8.95,0.88,0.89,0.89
89,9.26,8.41,9.23,8.38,-8.38,-8.98,0.88,0.84,0.84
90,9.29,8.50,9.25,8.45,-8.45,-9.02,0.84,0.79,0.80
91,9.30,8.55,9.27,8.52,-8.52,-9.05,0.77,0.74,0.74
92,9.30,8.61,9.29,8.59,-8.59,-9.08,0.70,0.69,0.69
93,9.30,8.66,9.30,8.66,-8.66,-9.11,0.64,0.64,0.64
94,9.30,8.71,9.32,8.73,-8.73,-9.14,0.57,0.59,0.58
95,9.30,8.77,9.33,8.80,-8.80,-9.17,0.50,0.53,0.53
96,9.33,8.86,9.34,8.87,-8.87,-9.19,0.47,0.47,0.47
97,9.39,8.98,9.36,8.94,-8.94,-9.22,0.45,0.41,0.41
98,9.38,9.03,9.38,9.02,-9.02,-9.25,0.36,0.35,0.35
99,9.37,9.08,9.39,9.11,-9.11,-9.27,0.26,0.29,0.29
100,9.35,9.12,9.41,9.19,-9.19,-9.30,0.16,0.22,0.23
101,9.44,9.27,9.43,9.28,-9.28,-9.33,0.16,0.15,0.17
102,9.52,9.41,9.44,9.36,-9.36,-9.35,0.16,0.08,0.11
104,9.50,9.51,9.45,9.44,-9.44,-9.40,0.05,0.01,-0.01
105,9.47,9.55,9.46,9.52,-9.52,-9.43,-0.05,-0.06,-0.08
106,9.45,9.59,9.46,9.59,-9.59,-9.45,-0.15,-0.13,-0.14
107,9.42,9.62,9.47,9.66,-9.66,-9.47,-0.24,-0.20,-0.20
108,9.42,9.68,9.48,9.73,-9.73,-9.50,-0.32,-0.26,-0.26
109,9.48,9.80,9.48,9.80,-9.80,-9.52,-0.32,-0.32,-0.32
110,9.50,9.88,9.49,9.87,-9.87,-9.54,-0.37,-0.38,-0.38
111,9.54,9.98,9.50,9.94,-9.94,-9.57,-0.40,-0.44,-0.44
112,9.53,10.03,9.51,10.01,-10.01,-9.59,-0.47,-0.50,-0.49
113,9.52,10.07,9.52,10.07,-10.07,-9.61,-0.55,-0.56,-0.55
114,9.52,10.12,9.52,10.14,-10.14,-9.63,-0.62,-0.61,-0.60
115,9.52,10.17,9.52,10.20,-10.20,-9.66,-0.68,-0.67,-0.65
117,9.52,10.28,9.53,10.26,-10.26,-9.70,-0.74,-0.73,-0.76
118,9.52,10.33,9.53,10.32,-10.32,-9.72,-0.80,-0.79,-0.81
119,9.53,10.38,9.53,10.38,-10.38,-9.75,-0.86,-0.85,-0.85
120,9.53,10.43,9.53,10.44,-10.44,-9.77,-0.91,-0.91,-0.90
121,9.54,10.48,9.54,10.50,-10.50,-9.79,-0.96,-0.96,-0.94
123,9.55,10.58,9.55,10.56,-10.56,-9.83,-1.02,-1.01,-1.03
124,9.56,10.63,9.56,10.62,-10.62,-9.86,-1.07,-1.06,-1.07
125,9.56,10.67,9.57,10.68,-10.68,-9.88,-1.12,-1.11,-1.11
126,9.57,10.71,9.57,10.73,-10.73,-9.90,-1.16,-1.16,-1.14
128,9.58,10.80,9.57,10.78,-10.78,-9.95,-1.20,-1.20,-1.22
129,9.58,10.83,9.57,10.82,-10.82,-9.97,-1.23,-1.24,-1.25
130,9.59,10.87,9.57,10.85,-10.85,-9.99,-1.26,-1.28,-1.28
131,9.59,10.90,9.56,10.88,-10.88,-10.01,-1.29,-1.32,-1.31
133,9.54,10.91,9.55,10.91,-10.91,-10.06,-1.37,-1.36,-1.37
134,9.50,10.90,9.53,10.93,-10.93,-10.08,-1.43,-1.40,-1.40
135,9.50,10.93,9.52,10.96,-10.96,-10.10,-1.46,-1.44,-1.42
137,9.51,10.99,9.52,10.99,-10.99,-10.15,-1.48,-1.47,-1.48
138,9.51,11.01,9.51,11.02,-11.02,-10.17,-1.51,-1.51,-1.50
140,9.51,11.06,9.51,11.05,-11.05,-10.21,-1.54,-1.54,-1.55
141,9.52,11.09,9.51,11.08,-11.08,-10.23,-1.57,-1.57,-1.57
142,9.52,11.11,9.52,11.12,-11.12,-10.26,-1.60,-1.60,-1.59
144,9.52,11.15,9.52,11.15,-11.15,-10.30,-1.63,-1.63,-1.63
145,9.52,11.17,9.52,11.18,-11.18,-10.32,-1.66,-1.66,-1.65
147,9.52,11.21,9.52,11.20,-11.20,-10.37,-1.69,-1.69,-1.69
148,9.52,11.22,9.51,11.22,-11.22,-10.39,-1.70,-1.71,-1.71
150,9.52,11.26,9.49,11.23,-11.23,-10.43,-1.71,-1.74,-1.74
151,9.52,11.27,9.47,11.23,-11.23,-10.45,-1.72,-1.76,-1.76
153,9.42,11.20,9.44,11.23,-11.23,-10.50,-1.81,-1.78,-1.79
154,9.40,11.21,9.41,11.22,-11.22,-10.52,-1.81,-1.81,-1.80
156,9.32,11.15,9.37,11.20,-11.20,-10.56,-1.88,-1.83,-1.83
157,9.32,11.16,9.33,11.18,-11.18,-10.58,-1.86,-1.85,-1.84
159,9.32,11.18,9.28,11.15,-11.15,-10.62,-1.83,-1.87,-1.87
160,9.29,11.17,9.23,11.11,-11.11,-10.64,-1.82,-1.88,-1.88
162,9.21,11.11,9.17,11.07,-11.07,-10.69,-1.86,-1.90,-1.90
164,9.11,11.03,9.12,11.04,-11.04,-10.72,-1.92,-1.92,-1.92
165,9.09,11.02,9.07,11.00,-11.00,-10.74,-1.92,-1.93,-1.93
167,9.00,10.95,9.04,10.98,-10.98,-10.78,-1.98,-1.94,-1.94
169,8.90,10.85,9.01,10.96,-10.96,-10.82,-2.07,-1.95,-1.96
170,8.90,10.86,8.99,10.96,-10.96,-10.83,-2.06,-1.96,-1.96
172,8.98,10.96,8.99,10.96,-10.96,-10.87,-1.98,-1.97,-1.97
174,9.06,11.04,8.99,10.97,-10.97,-10.90,-1.91,-1.98,-1.98
175,9.07,11.06,8.99,10.98,-10.98,-10.92,-1.90,-1.99,-1.98
177,9.07,11.06,8.99,10.98,-10.98,-10.95,-1.91,-1.99,-1.99
179,8.95,10.94,8.98,10.97,-10.97,-10.97,-2.03,-1.99,-1.99
181,8.98,10.98,8.97,10.96,-10.96,-11.00,-1.99,-2.00,-2.00
183,8.92,10.92,8.95,10.95,-10.95,-11.02,-2.03,-2.00,-2.00
184,8.89,10.88,8.94,10.93,-10.93,-11.03,-2.05,-2.00,-2.00
186,8.90,10.89,8.92,10.92,-10.92,-11.05,-2.02,-2.00,-2.00
188,8.91,10.91,8.91,10.90,-10.90,-11.07,-1.99,-1.99,-1.99
190,8.93,10.92,8.89,10.89,-10.89,-11.08,-1.96,-1.99,-1.99
192,8.86,10.85,8.88,10.87,-10.87,-11.10,-2.01,-1.99,-1.99
194,8.84,10.83,8.87,10.86,-10.86,-11.11,-2.02,-1.99,-1.99
196,8.89,10.88,8.86,10.84,-10.84,-11.11,-1.95,-1.98,-1.98
198,8.89,10.87,8.84,10.82,-10.82,-11.12,-1.93,-1.98,-1.98
200,8.80,10.77,8.82,10.79,-10.79,-11.12,-2.00,-1.98,-1.98
202,8.80,10.78,8.79,10.76,-10.76,-11.11,-1.96,-1.97,-1.97
204,8.74,10.71,8.76,10.73,-10.73,-11.11,-1.99,-1.97,-1.97
206,8.70,10.67,8.73,10.69,-10.69,-11.10,-1.99,-1.97,-1.97
208,8.72,10.69,8.70,10.66,-10.66,-11.09,-1.93,-1.96,-1.96
210,8.63,10.59,8.66,10.62,-10.62,-11.07,-1.99,-1.96,-1.96
212,8.60,10.56,8.62,10.58,-10.58,-11.05,-1.97,-1.95,-1.95
214,8.60,10.55,8.58,10.54,-10.54,-11.03,-1.94,-1.95,-1.95
216,8.60,10.54,8.54,10.49,-10.49,-11.01,-1.89,-1.95,-1.95
218,8.51,10.45,8.50,10.44,-10.44,-10.98,-1.94,-1.94,-1.94
221,8.42,10.36,8.46,10.39,-10.39,-10.94,-1.97,-1.94,-1.94
223,8.39,10.32,8.41,10.34,-10.34,-10.90,-1.96,-1.93,-1.93
225,8.38,10.31,8.36,10.29,-10.29,-10.87,-1.90,-1.93,-1.93
227,8.31,10.24,8.31,10.23,-10.23,-10.83,-1.92,-1.92,-1.92
229,8.28,10.20,8.26,10.18,-10.18,-10.79,-1.90,-1.92,-1.92
232,8.20,10.10,8.22,10.13,-10.13,-10.72,-1.93,-1.91,-1.91
234,8.18,10.08,8.17,10.07,-10.07,-10.67,-1.90,-1.90,-1.90
236,8.12,10.01,8.13,10.03,-10.03,-10.62,-1.91,-1.89,-1.89
239,8.10,9.99,8.09,9.98,-9.98,-10.55,-1.88,-1.88,-1.89
241,8.05,9.93,8.06,9.93,-9.93,-10.49,-1.88,-1.88,-1.88
244,8.01,9.87,8.03,9.89,-9.89,-10.41,-1.88,-1.87,-1.87
246,7.99,9.85,7.99,9.85,-9.85,-10.35,-1.86,-1.86,-1.86
248,7.94,9.79,7.96,9.81,-9.81,-10.29,-1.87,-1.85,-1.85
251,7.93,9.77,7.93,9.76,-9.76,-10.20,-1.83,-1.84,-1.84
253,7.94,9.77,7.89,9.71,-9.71,-10.14,-1.77,-1.83,-1.83
256,7.86,9.68,7.85,9.66,-9.66,-10.04,-1.80,-1.81,-1.81
259,7.76,9.57,7.80,9.60,-9.60,-9.95,-1.84,-1.80,-1.80
261,7.77,9.56,7.74,9.53,-9.53,-9.88,-1.76,-1.79,-1.79
264,7.69,9.47,7.68,9.46,-9.46,-9.79,-1.78,-1.78,-1.78
266,7.58,9.35,7.61,9.39,-9.39,-9.72,-1.81,-1.77,-1.77
269,7.57,9.33,7.55,9.31,-9.31,-9.62,-1.75,-1.76,-1.76
272,7.51,9.26,7.48,9.24,-9.24,-9.52,-1.73,-1.75,-1.75
274,7.38,9.13,7.42,9.16,-9.16,-9.45,-1.78,-1.75,-1.74
277,7.36,9.09,7.36,9.10,-9.10,-9.35,-1.74,-1.74,-1.74
280,7.32,9.05,7.30,9.03,-9.03,-9.26,-1.71,-1.73,-1.73
283,7.17,8.89,7.25,8.97,-8.97,-9.16,-1.79,-1.72,-1.72
286,7.16,8.87,7.20,8.91,-8.91,-9.06,-1.74,-1.71,-1.71
288,7.17,8.87,7.14,8.85,-8.85,-9.00,-1.67,-1.70,-1.70
291,7.18,8.88,7.09,8.78,-8.78,-8.90,-1.60,-1.69,-1.69
294,7.05,8.73,7.03,8.72,-8.72,-8.81,-1.67,-1.69,-1.69
297,6.96,8.64,6.97,8.65,-8.65,-8.72,-1.69,-1.68,-1.68
300,6.93,8.60,6.91,8.58,-8.58,-8.63,-1.65,-1.67,-1.67
303,6.81,8.47,6.85,8.51,-8.51,-8.54,-1.70,-1.66,-1.66
306,6.74,8.40,6.79,8.45,-8.45,-8.45,-1.71,-1.66,-1.66
309,6.75,8.40,6.74,8.39,-8.39,-8.37,-1.65,-1.65,-1.65
312,6.69,8.33,6.70,8.34,-8.34,-8.29,-1.66,-1.64,-1.64
316,6.66,8.29,6.66,8.30,-8.30,-8.18,-1.64,-1.64,-1.64
319,6.66,8.29,6.63,8.26,-8.26,-8.10,-1.60,-1.63,-1.63
322,6.59,8.22,6.61,8.23,-8.23,-8.03,-1.64,-1.62,-1.62
325,6.56,8.18,6.58,8.19,-8.19,-7.95,-1.63,-1.62,-1.62
328,6.56,8.17,6.54,8.16,-8.16,-7.88,-1.60,-1.61,-1.61
332,6.55,8.15,6.51,8.11,-8.11,-7.79,-1.57,-1.61,-1.61
335,6.46,8.06,6.46,8.06,-8.06,-7.73,-1.61,-1.60,-1.60
338,6.45,8.05,6.41,8.01,-8.01,-7.67,-1.56,-1.60,-1.60
342,6.36,7.95,6.36,7.95,-7.95,-7.58,-1.59,-1.59,-1.59
345,6.29,7.88,6.30,7.89,-7.89,-7.53,-1.60,-1.59,-1.59
349,6.25,7.83,6.25,7.83,-7.83,-7.45,-1.58,-1.58,-1.58
352,6.18,7.76,6.19,7.77,-7.77,-7.40,-1.59,-1.58,-1.58
356,6.10,7.68,6.14,7.72,-7.72,-7.33,-1.62,-1.58,-1.58
359,6.06,7.63,6.10,7.67,-7.67,-7.28,-1.62,-1.57,-1.57
363,6.05,7.63,6.05,7.62,-7.62,-7.22,-1.57,-1.57,-1.57
366,6.01,7.58,6.00,7.57,-7.57,-7.18,-1.56,-1.57,-1.57
370,5.96,7.52,5.95,7.51,-7.51,-7.12,-1.56,-1.57,-1.57
374,5.92,7.49,5.88,7.45,-7.45,-7.07,-1.52,-1.56,-1.56
377,5.86,7.42,5.81,7.37,-7.37,-7.03,-1.51,-1.56,-1.56
381,5.74,7.30,5.72,7.28,-7.28,-6.97,-1.54,-1.56,-1.56
385,5.64,7.19,5.63,7.18,-7.18,-6.92,-1.54,-1.55,-1.55
389,5.46,7.01,5.52,7.07,-7.07,-6.88,-1.61,-1.55,-1.55
393,5.40,6.94,5.42,6.96,-6.96,-6.83,-1.56,-1.54,-1.54
397,5.39,6.92,5.31,6.84,-6.84,-6.78,-1.45,-1.53,-1.53
401,5.17,6.69,5.20,6.73,-6.73,-6.74,-1.56,-1.52,-1.52
405,5.07,6.58,5.11,6.62,-6.62,-6.69,-1.54,-1.51,-1.51
409,5.01,6.51,5.02,6.51,-6.51,-6.64,-1.50,-1.49,-1.50
413,4.88,6.36,4.93,6.41,-6.41,-6.59,-1.53,-1.48,-1.48
417,4.86,6.32,4.86,6.32,-6.32,-6.55,-1.45,-1.46,-1.46
421,4.86,6.30,4.79,6.23,-6.23,-6.50,-1.36,-1.43,-1.44
425,4.80,6.21,4.73,6.14,-6.14,-6.44,-1.34,-1.41,-1.41
430,4.62,6.01,4.69,6.07,-6.07,-6.37,-1.44,-1.38,-1.38
434,4.53,5.88,4.64,5.99,-5.99,-6.32,-1.46,-1.35,-1.35
438,4.61,5.93,4.61,5.93,-5.93,-6.25,-1.31,-1.31,-1.32
443,4.71,5.99,4.59,5.87,-5.87,-6.17,-1.15,-1.28,-1.28
447,4.51,5.75,4.57,5.81,-5.81,-6.11,-1.30,-1.24,-1.24
451,4.54,5.74,4.56,5.76,-5.76,-6.04,-1.22,-1.20,-1.20
456,4.60,5.76,4.56,5.71,-5.71,-5.94,-1.11,-1.16,-1.16
460,4.40,5.52,4.55,5.67,-5.67,-5.86,-1.26,-1.12,-1.12
465,4.55,5.62,4.54,5.62,-5.62,-5.76,-1.07,-1.08,-1.08
470,4.60,5.63,4.52,5.56,-5.56,-5.65,-0.96,-1.04,-1.03
474,4.57,5.57,4.49,5.49,-5.49,-5.56,-0.92,-1.00,-1.00
479,4.51,5.47,4.45,5.41,-5.41,-5.44,-0.91,-0.96,-0.96
484,4.43,5.36,4.40,5.33,-5.33,-5.31,-0.89,-0.92,-0.92
489,4.22,5.12,4.34,5.23,-5.23,-5.18,-1.01,-0.89,-0.89
494,4.21,5.07,4.26,5.13,-5.13,-5.05,-0.92,-0.87,-0.86
499,4.17,5.01,4.17,5.02,-5.02,-4.91,-0.84,-0.84,-0.84
504,4.11,4.93,4.08,4.90,-4.90,-4.77,-0.79,-0.82,-0.82
509,3.98,4.79,3.97,4.78,-4.78,-4.63,-0.79,-0.81,-0.81
514,3.85,4.65,3.85,4.65,-4.65,-4.48,-0.80,-0.80,-0.80
519,3.75,4.54,3.72,4.51,-4.51,-4.33,-0.76,-0.79,-0.79
524,3.62,4.40,3.57,4.36,-4.36,-4.18,-0.74,-0.79,-0.79
529,3.42,4.21,3.41,4.20,-4.20,-4.02,-0.78,-0.79,-0.79
535,3.17,3.96,3.25,4.04,-4.04,-3.84,-0.87,-0.79,-0.79
540,3.02,3.82,3.07,3.87,-3.87,-3.68,-0.85,-0.80,-0.80
545,2.89,3.70,2.88,3.69,-3.69,-3.52,-0.80,-0.81,-0.81
551,2.75,3.57,2.68,3.51,-3.51,-3.34,-0.76,-0.82,-0.82
556,2.56,3.39,2.48,3.31,-3.31,-3.18,-0.75,-0.83,-0.83
562,2.24,3.09,2.27,3.12,-3.12,-2.99,-0.87,-0.84,-0.84
568,1.93,2.78,2.06,2.91,-2.91,-2.80,-0.99,-0.85,-0.85
573,1.86,2.72,1.84,2.70,-2.70,-2.64,-0.84,-0.86,-0.86
579,1.74,2.60,1.62,2.49,-2.49,-2.45,-0.75,-0.87,-0.87
585,1.46,2.33,1.40,2.27,-2.27,-2.27,-0.81,-0.87,-0.87
591,1.11,1.98,1.18,2.05,-2.05,-2.08,-0.94,-0.87,-0.87
596,0.94,1.81,0.97,1.84,-1.84,-1.92,-0.89,-0.87,-0.87
602,0.75,1.61,0.77,1.63,-1.63,-1.74,-0.87,-0.86,-0.86
608,0.57,1.42,0.58,1.42,-1.42,-1.55,-0.85,-0.85,-0.85
615,0.37,1.20,0.40,1.23,-1.23,-1.33,-0.86,-0.83,-0.83
621,0.20,1.02,0.23,1.04,-1.04,-1.15,-0.84,-0.81,-0.81
627,0.04,0.83,0.07,0.86,-0.86,-0.97,-0.82,-0.79,-0.79
633,-0.08,0.68,-0.09,0.67,-0.67,-0.78,-0.76,-0.76,-0.76
639,-0.18,0.56,-0.24,0.49,-0.49,-0.60,-0.67,-0.74,-0.74
646,-0.29,0.41,-0.40,0.31,-0.31,-0.39,-0.60,-0.71,-0.71
652,-0.51,0.16,-0.55,0.12,-0.12,-0.20,-0.63,-0.67,-0.67
659,-0.81,-0.17,-0.71,-0.07,0.07,0.01,-0.74,-0.64,-0.64
665,-0.94,-0.34,-0.86,-0.25,0.25,0.19,-0.69,-0.61,-0.60
672,-1.09,-0.52,-1.01,-0.44,0.44,0.40,-0.65,-0.57,-0.57
679,-1.12,-0.59,-1.16,-0.62,0.62,0.61,-0.50,-0.54,-0.54
686,-1.22,-0.72,-1.31,-0.81,0.81,0.81,-0.42,-0.50,-0.50
692,-1.40,-0.93,-1.46,-0.99,0.99,0.99,-0.41,-0.47,-0.47
699,-1.64,-1.20,-1.62,-1.18,1.18,1.19,-0.46,-0.44,-0.44
706,-1.79,-1.37,-1.78,-1.37,1.37,1.39,-0.41,-0.41,-0.41
713,-1.93,-1.54,-1.95,-1.56,1.56,1.58,-0.36,-0.39,-0.39
721,-2.13,-1.77,-2.12,-1.76,1.76,1.80,-0.37,-0.36,-0.36
728,-2.33,-2.00,-2.29,-1.95,1.95,1.98,-0.39,-0.34,-0.34
735,-2.47,-2.15,-2.45,-2.13,2.13,2.15,-0.34,-0.32,-0.32
742,-2.55,-2.25,-2.61,-2.31,2.31,2.31,-0.25,-0.30,-0.30
750,-2.69,-2.40,-2.75,-2.47,2.47,2.49,-0.22,-0.29,-0.28
757,-2.93,-2.66,-2.89,-2.62,2.62,2.63,-0.32,-0.27,-0.27
765,-3.06,-2.80,-3.00,-2.75,2.75,2.77,-0.32,-0.26,-0.26
773,-3.12,-2.87,-3.11,-2.86,2.86,2.90,-0.26,-0.25,-0.25
780,-3.19,-2.95,-3.19,-2.95,2.95,2.99,-0.24,-0.24,-0.24
788,-3.26,-3.03,-3.26,-3.03,3.03,3.07,-0.23,-0.23,-0.23
796,-3.26,-3.04,-3.30,-3.08,3.08,3.13,-0.17,-0.22,-0.22
804,-3.28,-3.07,-3.33,-3.12,3.12,3.17,-0.16,-0.21,-0.21
812,-3.35,-3.15,-3.33,-3.13,3.13,3.18,-0.23,-0.20,-0.20
820,-3.35,-3.15,-3.31,-3.12,3.12,3.17,-0.23,-0.20,-0.20
828,-3.34,-3.15,-3.28,-3.09,3.09,3.13,-0.26,-0.19,-0.19
837,-3.28,-3.10,-3.22,-3.04,3.04,3.07,-0.24,-0.18,-0.18
845,-3.10,-2.92,-3.14,-2.97,2.97,3.00,-0.13,-0.18,-0.18
853,-2.97,-2.80,-3.05,-2.88,2.88,2.90,-0.09,-0.17,-0.17
862,-2.91,-2.75,-2.94,-2.78,2.78,2.78,-0.13,-0.16,-0.16
871,-2.83,-2.68,-2.82,-2.67,2.67,2.64,-0.16,-0.15,-0.15
879,-2.71,-2.57,-2.69,-2.54,2.54,2.51,-0.17,-0.15,-0.15
888,-2.55,-2.41,-2.54,-2.40,2.40,2.35,-0.15,-0.14,-0.14
897,-2.39,-2.26,-2.38,-2.25,2.25,2.17,-0.14,-0.13,-0.13
906,-2.24,-2.12,-2.21,-2.09,2.09,2.00,-0.15,-0.12,-0.12
915,-2.01,-1.90,-2.02,-1.91,1.91,1.81,-0.10,-0.11,-0.11
924,-1.83,-1.73,-1.83,-1.73,1.73,1.63,-0.11,-0.10,-0.10
933,-1.65,-1.56,-1.62,-1.53,1.53,1.44,-0.12,-0.09,-0.09
943,-1.35,-1.27,-1.41,-1.33,1.33,1.22,-0.02,-0.08,-0.08
952,-1.15,-1.08,-1.19,-1.12,1.12,1.03,-0.03,-0.07,-0.07
962,-0.95,-0.90,-0.96,-0.91,0.91,0.82,-0.05,-0.05,-0.05
971,-0.77,-0.73,-0.73,-0.69,0.69,0.63,-0.08,-0.04,-0.04
981,-0.53,-0.51,-0.49,-0.46,0.46,0.41,-0.07,-0.02,-0.02
991,-0.25,-0.24,-0.24,-0.23,0.23,0.20,-0.02,-0.01,-0.01
1001,0.03,0.02,0.02,0.00,-0.00,-0.01,0.02,0.01,0.01
1011,0.28,0.25,0.28,0.24,-0.24,-0.22,0.04,0.03,0.03
1021,0.58,0.53,0.54,0.48,-0.48,-0.43,0.10,0.06,0.05
1031,0.80,0.72,0.80,0.72,-0.72,-0.63,0.07,0.08,0.08
1041,1.01,0.91,1.07,0.96,-0.96,-0.84,0.05,0.10,0.10
1052,1.35,1.22,1.33,1.19,-1.19,-1.06,0.15,0.13,0.13
1062,1.57,1.41,1.58,1.42,-1.42,-1.26,0.15,0.16,0.16
1073,1.85,1.66,1.83,1.64,-1.64,-1.48,0.21,0.19,0.19
1084,2.09,1.87,2.07,1.85,-1.85,-1.70,0.24,0.22,0.22
1094,2.28,2.02,2.31,2.06,-2.06,-1.89,0.22,0.25,0.25
1105,2.62,2.33,2.54,2.25,-2.25,-2.10,0.36,0.29,0.29
1116,2.79,2.47,2.77,2.45,-2.45,-2.31,0.34,0.32,0.32
1128,2.99,2.63,3.00,2.64,-2.64,-2.53,0.35,0.36,0.36
1139,3.17,2.78,3.22,2.83,-2.83,-2.73,0.34,0.39,0.39
1150,3.22,2.80,3.44,3.01,-3.01,-2.92,0.21,0.42,0.42
1162,3.62,3.16,3.64,3.18,-3.18,-3.12,0.43,0.46,0.46
1173,3.96,3.47,3.82,3.33,-3.33,-3.29,0.63,0.49,0.49
1185,4.10,3.59,3.99,3.47,-3.47,-3.48,0.64,0.52,0.52
1197,4.31,3.77,4.14,3.59,-3.59,-3.65,0.72,0.55,0.55
1209,4.55,3.97,4.28,3.71,-3.71,-3.81,0.84,0.57,0.57
1221,4.30,3.71,4.43,3.83,-3.83,-3.95,0.47,0.60,0.60
1233,4.13,3.51,4.59,3.97,-3.97,-4.08,0.16,0.62,0.62
1246,4.63,3.99,4.77,4.13,-4.13,-4.21,0.50,0.64,0.64
1258,4.77,4.11,4.95,4.30,-4.30,-4.31,0.47,0.65,0.65
1271,4.93,4.26,5.12,4.46,-4.46,-4.40,0.47,0.67,0.67
1283,5.44,4.76,5.26,4.58,-4.58,-4.46,0.85,0.68,0.68
1296,5.71,5.03,5.34,4.65,-4.65,-4.52,1.06,0.68,0.68
1309,5.51,4.82,5.34,4.65,-4.65,-4.55,0.86,0.69,0.69
1322,5.61,4.92,5.25,4.57,-4.57,-4.57,1.04,0.69,0.69
1335,5.42,4.74,5.10,4.41,-4.41,-4.58,1.01,0.68,0.68
1349,4.91,4.23,4.90,4.22,-4.22,-4.57,0.69,0.68,0.68
1362,4.40,3.72,4.69,4.02,-4.02,-4.55,0.38,0.67,0.67
1376,4.18,3.52,4.51,3.84,-3.84,-4.51,0.34,0.67,0.67
1390,4.11,3.45,4.39,3.74,-3.74,-4.47,0.37,0.66,0.66
1404,4.09,3.44,4.36,3.71,-3.71,-4.42,0.38,0.65,0.65
1418,4.52,3.88,4.41,3.77,-3.77,-4.36,0.75,0.64,0.64
1432,4.53,3.89,4.54,3.90,-3.90,-4.30,0.62,0.63,0.63
1446,4.70,4.08,4.72,4.09,-4.09,-4.23,0.61,0.63,0.63
1461,4.91,4.29,4.92,4.31,-4.31,-4.16,0.60,0.62,0.62
1475,5.15,4.53,5.13,4.51,-4.51,-4.09,0.63,0.62,0.62
1490,5.49,4.88,5.31,4.69,-4.69,-4.02,0.80,0.62,0.61
1505,5.65,5.03,5.44,4.82,-4.82,-3.95,0.83,0.62,0.62
1520,5.52,4.90,5.52,4.90,-4.90,-3.88,0.63,0.62,0.62
1535,5.50,4.87,5.54,4.91,-4.91,-3.81,0.60,0.63,0.63
1550,5.60,4.95,5.51,4.86,-4.86,-3.75,0.74,0.65,0.65
1566,5.47,4.80,5.43,4.76,-4.76,-3.68,0.70,0.67,0.67
1582,5.25,4.56,5.32,4.63,-4.63,-3.62,0.62,0.69,0.69
1597,5.15,4.44,5.18,4.46,-4.46,-3.57,0.69,0.72,0.72
1613,5.00,4.24,5.03,4.28,-4.28,-3.52,0.72,0.76,0.75
1629,4.85,4.06,4.88,4.08,-4.08,-3.47,0.77,0.80,0.79
1646,4.74,3.90,4.73,3.89,-3.89,-3.42,0.86,0.84,0.84
1662,4.58,3.69,4.58,3.69,-3.69,-3.38,0.89,0.89,0.89
1679,4.45,3.50,4.44,3.49,-3.49,-3.35,0.96,0.95,0.95
1696,4.32,3.31,4.31,3.30,-3.30,-3.31,1.01,1.01,1.01
1713,4.17,3.09,4.20,3.12,-3.12,-3.28,1.04,1.08,1.08
1730,4.11,2.96,4.10,2.95,-2.95,-3.26,1.15,1.15,1.15
1747,4.01,2.78,4.02,2.80,-2.80,-3.24,1.21,1.23,1.23
1764,3.96,2.65,3.96,2.66,-2.66,-3.22,1.30,1.31,1.31
