frequency,raw,error,smoothed,error_smoothed,equalization,parametric_eq,fixed_band_eq,equalized_raw,equalized_smoothed,target
20.00,-3.06,-5.72,-3.07,-5.75,5.75,5.50,1.89,2.69,2.68,2.66
20.20,-3.03,-5.72,-3.04,-5.74,5.74,5.52,1.95,2.71,2.70,2.69
20.40,-3.02,-5.74,-3.00,-5.72,5.72,5.53,2.00,2.70,2.72,2.72
20.61,-2.97,-5.71,-2.97,-5.71,5.71,5.54,2.06,2.74,2.74,2.73
20.81,-2.94,-5.71,-2.93,-5.69,5.69,5.55,2.12,2.75,2.76,2.77
21.02,-2.91,-5.70,-2.90,-5.67,5.67,5.55,2.18,2.76,2.77,2.79
21.23,-2.85,-5.65,-2.86,-5.64,5.64,5.56,2.25,2.79,2.79,2.80
21.44,-2.82,-5.63,-2.82,-5.62,5.62,5.55,2.31,2.80,2.80,2.81
21.66,-2.79,-5.61,-2.79,-5.59,5.59,5.55,2.38,2.80,2.81,2.82
21.87,-2.75,-5.57,-2.75,-5.57,5.57,5.53,2.45,2.82,2.82,2.82
22.09,-2.71,-5.54,-2.71,-5.54,5.54,5.52,2.52,2.83,2.83,2.83
22.31,-2.67,-5.50,-2.67,-5.51,5.51,5.50,2.59,2.84,2.83,2.83
22.54,-2.64,-5.47,-2.64,-5.47,5.47,5.48,2.67,2.83,2.83,2.83
22.76,-2.59,-5.42,-2.60,-5.43,5.43,5.46,2.74,2.84,2.83,2.83
22.99,-2.56,-5.38,-2.56,-5.39,5.39,5.43,2.82,2.83,2.83,2.82
23.22,-2.52,-5.34,-2.52,-5.35,5.35,5.39,2.90,2.83,2.83,2.82
23.45,-2.47,-5.29,-2.48,-5.31,5.31,5.36,2.99,2.84,2.83,2.82
23.69,-2.44,-5.26,-2.44,-5.27,5.27,5.32,3.07,2.83,2.83,2.82
23.92,-2.40,-5.22,-2.40,-5.23,5.23,5.28,3.15,2.83,2.83,2.82
24.16,-2.36,-5.19,-2.36,-5.18,5.18,5.24,3.24,2.82,2.82,2.83
24.40,-2.32,-5.15,-2.32,-5.14,5.14,5.19,3.33,2.82,2.82,2.83
24.65,-2.29,-5.11,-2.27,-5.09,5.09,5.14,3.42,2.80,2.82,2.82
24.89,-2.24,-5.06,-2.23,-5.05,5.05,5.09,3.50,2.81,2.82,2.82
25.14,-2.18,-5.00,-2.18,-5.00,5.00,5.03,3.59,2.82,2.82,2.82
25.39,-2.13,-4.95,-2.14,-4.95,4.95,4.97,3.68,2.82,2.82,2.82
25.65,-2.08,-4.90,-2.08,-4.90,4.90,4.92,3.77,2.82,2.82,2.82
25.91,-2.03,-4.84,-2.03,-4.85,4.85,4.86,3.86,2.82,2.81,2.81
26.16,-1.98,-4.79,-1.98,-4.79,4.79,4.79,3.95,2.81,2.81,2.81
26.43,-1.93,-4.74,-1.92,-4.73,4.73,4.73,4.04,2.80,2.81,2.81
26.69,-1.87,-4.67,-1.86,-4.67,4.67,4.66,4.13,2.80,2.80,2.80
26.96,-1.81,-4.62,-1.80,-4.60,4.60,4.60,4.21,2.79,2.80,2.80
27.23,-1.75,-4.55,-1.74,-4.54,4.54,4.53,4.29,2.79,2.80,2.80
27.50,-1.68,-4.48,-1.68,-4.48,4.48,4.46,4.37,2.80,2.80,2.80
27.77,-1.61,-4.40,-1.62,-4.41,4.41,4.39,4.45,2.80,2.79,2.79
28.05,-1.56,-4.35,-1.55,-4.34,4.34,4.32,4.52,2.79,2.79,2.79
28.33,-1.48,-4.26,-1.49,-4.28,4.28,4.25,4.58,2.80,2.79,2.78
28.62,-1.42,-4.20,-1.42,-4.21,4.21,4.17,4.64,2.79,2.78,2.78
28.90,-1.35,-4.13,-1.36,-4.14,4.14,4.10,4.70,2.79,2.78,2.78
29.19,-1.28,-4.05,-1.29,-4.07,4.07,4.03,4.74,2.79,2.78,2.77
29.48,-1.24,-4.02,-1.23,-4.00,4.00,3.96,4.78,2.76,2.77,2.78
29.78,-1.16,-3.93,-1.16,-3.93,3.93,3.88,4.82,2.77,2.77,2.77
30.08,-1.10,-3.87,-1.10,-3.86,3.86,3.81,4.84,2.76,2.76,2.77
30.38,-1.03,-3.79,-1.03,-3.79,3.79,3.74,4.86,2.76,2.76,2.75
30.68,-0.96,-3.71,-0.97,-3.72,3.72,3.66,4.87,2.76,2.75,2.75
30.99,-0.90,-3.64,-0.90,-3.65,3.65,3.59,4.87,2.75,2.75,2.74
31.30,-0.83,-3.57,-0.83,-3.57,3.57,3.52,4.86,2.74,2.74,2.74
31.61,-0.77,-3.51,-0.77,-3.50,3.50,3.44,4.84,2.73,2.74,2.74
31.93,-0.71,-3.44,-0.70,-3.43,3.43,3.37,4.81,2.72,2.73,2.73
32.24,-0.64,-3.36,-0.64,-3.36,3.36,3.30,4.78,2.72,2.72,2.72
32.57,-0.58,-3.30,-0.57,-3.28,3.28,3.23,4.73,2.70,2.72,2.72
32.89,-0.50,-3.21,-0.50,-3.21,3.21,3.16,4.68,2.71,2.71,2.71
33.22,-0.42,-3.12,-0.43,-3.14,3.14,3.08,4.62,2.72,2.70,2.70
33.55,-0.37,-3.07,-0.36,-3.06,3.06,3.01,4.55,2.69,2.70,2.70
33.89,-0.30,-2.99,-0.30,-2.99,2.99,2.94,4.48,2.69,2.69,2.69
34.23,-0.24,-2.93,-0.23,-2.91,2.91,2.87,4.40,2.67,2.68,2.69
34.57,-0.16,-2.84,-0.17,-2.84,2.84,2.81,4.31,2.68,2.67,2.68
34.92,-0.11,-2.77,-0.10,-2.77,2.77,2.74,4.22,2.66,2.67,2.66
35.27,-0.03,-2.69,-0.04,-2.70,2.70,2.67,4.13,2.67,2.66,2.66
35.62,0.03,-2.62,0.01,-2.64,2.64,2.60,4.03,2.67,2.65,2.65
35.97,0.08,-2.56,0.07,-2.57,2.57,2.54,3.93,2.65,2.64,2.64
36.33,0.14,-2.49,0.13,-2.51,2.51,2.47,3.82,2.65,2.63,2.64
36.70,0.19,-2.43,0.18,-2.44,2.44,2.41,3.71,2.63,2.62,2.62
37.06,0.23,-2.38,0.24,-2.38,2.38,2.34,3.61,2.61,2.61,2.61
37.43,0.29,-2.32,0.29,-2.32,2.32,2.28,3.50,2.61,2.60,2.61
37.81,0.33,-2.27,0.34,-2.25,2.25,2.22,3.38,2.58,2.59,2.60
38.19,0.38,-2.20,0.39,-2.19,2.19,2.15,3.27,2.57,2.58,2.58
38.57,0.43,-2.15,0.45,-2.13,2.13,2.09,3.16,2.56,2.58,2.58
38.95,0.49,-2.08,0.50,-2.07,2.07,2.03,3.05,2.56,2.57,2.57
39.34,0.56,-1.99,0.55,-2.00,2.00,1.97,2.94,2.56,2.56,2.55
39.74,0.62,-1.92,0.61,-1.94,1.94,1.91,2.82,2.56,2.55,2.54
40.14,0.68,-1.86,0.67,-1.87,1.87,1.85,2.71,2.55,2.54,2.54
40.54,0.72,-1.81,0.73,-1.80,1.80,1.79,2.60,2.52,2.53,2.52
40.94,0.77,-1.75,0.80,-1.72,1.72,1.74,2.49,2.49,2.52,2.52
41.35,0.84,-1.67,0.86,-1.65,1.65,1.68,2.39,2.49,2.51,2.51
41.76,0.92,-1.58,0.93,-1.58,1.58,1.62,2.28,2.50,2.50,2.50
42.18,1.00,-1.50,0.99,-1.50,1.50,1.57,2.17,2.50,2.49,2.50
42.60,1.05,-1.44,1.05,-1.43,1.43,1.51,2.07,2.48,2.48,2.49
43.03,1.10,-1.38,1.11,-1.36,1.36,1.46,1.97,2.46,2.47,2.48
43.46,1.18,-1.29,1.17,-1.29,1.29,1.40,1.87,2.47,2.46,2.47
43.90,1.24,-1.20,1.22,-1.23,1.23,1.35,1.76,2.47,2.45,2.44
44.33,1.28,-1.15,1.27,-1.17,1.17,1.30,1.67,2.45,2.43,2.43
44.78,1.33,-1.08,1.31,-1.11,1.11,1.25,1.57,2.44,2.42,2.41
45.23,1.35,-1.05,1.35,-1.06,1.06,1.19,1.47,2.41,2.41,2.40
45.68,1.39,-0.99,1.38,-1.01,1.01,1.14,1.38,2.40,2.39,2.38
46.13,1.40,-0.97,1.41,-0.97,0.97,1.09,1.28,2.37,2.38,2.37
46.60,1.45,-0.91,1.43,-0.93,0.93,1.04,1.19,2.38,2.36,2.36
47.06,1.45,-0.90,1.44,-0.90,0.90,0.99,1.10,2.35,2.34,2.35
47.53,1.45,-0.88,1.45,-0.87,0.87,0.94,1.01,2.32,2.32,2.33
48.01,1.45,-0.87,1.46,-0.85,0.85,0.89,0.92,2.30,2.30,2.32
48.49,1.45,-0.85,1.46,-0.83,0.83,0.84,0.84,2.28,2.29,2.30
48.97,1.45,-0.82,1.45,-0.82,0.82,0.79,0.75,2.27,2.27,2.27
49.46,1.45,-0.79,1.45,-0.80,0.80,0.74,0.67,2.25,2.25,2.24
49.96,1.45,-0.77,1.44,-0.79,0.79,0.69,0.58,2.24,2.23,2.22
50.46,1.45,-0.76,1.43,-0.78,0.78,0.64,0.50,2.23,2.21,2.21
50.96,1.42,-0.77,1.42,-0.77,0.77,0.59,0.42,2.19,2.19,2.19
51.47,1.40,-0.76,1.41,-0.76,0.76,0.54,0.34,2.16,2.17,2.16
51.99,1.40,-0.74,1.39,-0.76,0.76,0.49,0.26,2.16,2.15,2.14
52.51,1.40,-0.73,1.39,-0.74,0.74,0.44,0.19,2.14,2.13,2.13
53.03,1.37,-0.75,1.38,-0.73,0.73,0.39,0.11,2.10,2.11,2.12
53.56,1.35,-0.75,1.38,-0.71,0.71,0.34,0.04,2.06,2.09,2.10
54.10,1.35,-0.73,1.38,-0.70,0.70,0.29,-0.04,2.05,2.07,2.08
54.64,1.39,-0.67,1.38,-0.68,0.68,0.25,-0.11,2.07,2.06,2.06
55.18,1.40,-0.64,1.39,-0.65,0.65,0.20,-0.18,2.05,2.04,2.04
55.74,1.40,-0.62,1.40,-0.62,0.62,0.15,-0.25,2.02,2.02,2.01
56.29,1.43,-0.57,1.42,-0.59,0.59,0.10,-0.31,2.02,2.00,2.00
56.86,1.45,-0.53,1.45,-0.54,0.54,0.05,-0.38,1.99,1.99,1.98
57.42,1.49,-0.47,1.48,-0.49,0.49,0.00,-0.44,1.98,1.97,1.96
58.00,1.53,-0.42,1.53,-0.43,0.43,-0.05,-0.50,1.96,1.95,1.95
58.58,1.56,-0.38,1.58,-0.35,0.35,-0.09,-0.56,1.91,1.93,1.94
59.16,1.62,-0.30,1.65,-0.27,0.27,-0.14,-0.62,1.89,1.91,1.92
59.76,1.69,-0.22,1.72,-0.17,0.17,-0.19,-0.68,1.86,1.89,1.91
60.35,1.77,-0.11,1.81,-0.07,0.07,-0.24,-0.73,1.84,1.88,1.88
60.96,1.87,-0.00,1.90,0.04,-0.04,-0.28,-0.79,1.83,1.86,1.87
61.57,1.96,0.12,2.00,0.16,-0.16,-0.33,-0.84,1.80,1.84,1.83
62.18,2.10,0.29,2.10,0.29,-0.29,-0.38,-0.89,1.81,1.82,1.81
62.80,2.21,0.42,2.21,0.42,-0.42,-0.43,-0.93,1.79,1.80,1.79
63.43,2.35,0.58,2.33,0.55,-0.55,-0.47,-0.98,1.80,1.78,1.77
64.07,2.47,0.72,2.45,0.69,-0.69,-0.52,-1.02,1.78,1.76,1.75
64.71,2.60,0.87,2.57,0.83,-0.83,-0.57,-1.07,1.77,1.74,1.73
65.35,2.71,1.00,2.69,0.97,-0.97,-0.61,-1.11,1.74,1.71,1.71
66.01,2.82,1.12,2.81,1.11,-1.11,-0.66,-1.15,1.71,1.69,1.70
66.67,2.92,1.24,2.92,1.24,-1.24,-0.71,-1.18,1.68,1.67,1.68
67.33,3.01,1.35,3.03,1.37,-1.37,-0.76,-1.22,1.64,1.65,1.66
68.01,3.12,1.48,3.13,1.50,-1.50,-0.80,-1.26,1.62,1.63,1.64
68.69,3.23,1.61,3.23,1.61,-1.61,-0.85,-1.29,1.62,1.62,1.62
69.37,3.30,1.71,3.31,1.72,-1.72,-0.90,-1.33,1.58,1.60,1.60
70.07,3.40,1.83,3.39,1.82,-1.82,-0.95,-1.36,1.58,1.58,1.57
70.77,3.48,1.92,3.46,1.91,-1.91,-0.99,-1.40,1.57,1.55,1.56
71.48,3.54,2.00,3.53,1.99,-1.99,-1.04,-1.43,1.55,1.53,1.54
72.19,3.61,2.10,3.58,2.07,-2.07,-1.09,-1.46,1.54,1.51,1.51
72.91,3.64,2.15,3.63,2.14,-2.14,-1.14,-1.49,1.50,1.49,1.49
73.64,3.68,2.22,3.67,2.20,-2.20,-1.19,-1.53,1.48,1.47,1.47
74.38,3.73,2.28,3.70,2.25,-2.25,-1.23,-1.56,1.48,1.45,1.45
75.12,3.73,2.31,3.73,2.30,-2.30,-1.28,-1.60,1.43,1.43,1.42
75.87,3.73,2.32,3.74,2.33,-2.33,-1.33,-1.63,1.40,1.41,1.41
76.63,3.75,2.36,3.75,2.36,-2.36,-1.38,-1.67,1.39,1.39,1.39
77.40,3.75,2.38,3.75,2.38,-2.38,-1.43,-1.70,1.37,1.37,1.37
78.17,3.73,2.39,3.75,2.40,-2.40,-1.48,-1.74,1.33,1.35,1.34
78.95,3.73,2.40,3.74,2.41,-2.41,-1.53,-1.78,1.32,1.33,1.33
79.74,3.73,2.41,3.73,2.42,-2.42,-1.58,-1.82,1.31,1.31,1.32
80.54,3.73,2.43,3.71,2.42,-2.42,-1.63,-1.86,1.31,1.29,1.30
81.35,3.69,2.42,3.69,2.42,-2.42,-1.68,-1.90,1.27,1.27,1.27
82.16,3.68,2.43,3.67,2.41,-2.41,-1.73,-1.95,1.27,1.25,1.25
82.98,3.65,2.41,3.64,2.41,-2.41,-1.78,-1.99,1.24,1.23,1.24
83.81,3.61,2.40,3.62,2.40,-2.40,-1.84,-2.04,1.21,1.21,1.21
84.65,3.59,2.40,3.59,2.40,-2.40,-1.89,-2.09,1.19,1.19,1.19
85.50,3.55,2.38,3.56,2.39,-2.39,-1.94,-2.14,1.16,1.17,1.17
86.35,3.52,2.37,3.53,2.38,-2.38,-1.99,-2.19,1.14,1.15,1.15
87.22,3.50,2.38,3.50,2.38,-2.38,-2.05,-2.24,1.13,1.13,1.12
88.09,3.46,2.36,3.47,2.37,-2.37,-2.10,-2.30,1.09,1.10,1.10
88.97,3.45,2.37,3.44,2.36,-2.36,-2.15,-2.35,1.09,1.08,1.08
89.86,3.40,2.34,3.40,2.35,-2.35,-2.21,-2.41,1.05,1.05,1.06
90.76,3.39,2.37,3.38,2.35,-2.35,-2.26,-2.47,1.04,1.03,1.02
91.66,3.36,2.35,3.35,2.35,-2.35,-2.31,-2.54,1.01,1.00,1.01
92.58,3.33,2.36,3.32,2.35,-2.35,-2.37,-2.60,0.98,0.98,0.97
93.51,3.31,2.36,3.30,2.35,-2.35,-2.42,-2.67,0.96,0.95,0.95
94.44,3.26,2.34,3.28,2.36,-2.36,-2.48,-2.74,0.90,0.92,0.92
95.39,3.26,2.36,3.27,2.38,-2.38,-2.54,-2.81,0.88,0.89,0.90
96.34,3.26,2.40,3.26,2.39,-2.39,-2.59,-2.88,0.87,0.86,0.86
97.30,3.22,2.39,3.25,2.42,-2.42,-2.65,-2.95,0.80,0.83,0.83
98.28,3.22,2.42,3.24,2.44,-2.44,-2.71,-3.02,0.78,0.80,0.80
99.26,3.22,2.45,3.24,2.47,-2.47,-2.76,-3.10,0.75,0.77,0.77
100.25,3.26,2.52,3.25,2.50,-2.50,-2.82,-3.18,0.76,0.74,0.74
101.25,3.26,2.55,3.25,2.54,-2.54,-2.88,-3.25,0.72,0.71,0.71
102.27,3.26,2.58,3.26,2.58,-2.58,-2.94,-3.33,0.68,0.68,0.68
103.29,3.29,2.64,3.28,2.62,-2.62,-2.99,-3.41,0.67,0.66,0.65
104.32,3.31,2.68,3.29,2.67,-2.67,-3.05,-3.49,0.64,0.62,0.63
105.37,3.31,2.71,3.31,2.72,-2.72,-3.11,-3.57,0.59,0.59,0.60
106.42,3.31,2.74,3.33,2.76,-2.76,-3.17,-3.64,0.55,0.56,0.57
107.48,3.36,2.82,3.35,2.81,-2.81,-3.23,-3.72,0.55,0.53,0.54
108.56,3.36,2.86,3.37,2.87,-2.87,-3.29,-3.80,0.49,0.50,0.50
109.64,3.40,2.93,3.39,2.92,-2.92,-3.35,-3.87,0.48,0.47,0.47
110.74,3.40,2.96,3.41,2.98,-2.98,-3.41,-3.94,0.42,0.43,0.44
111.85,3.45,3.04,3.44,3.04,-3.04,-3.47,-4.02,0.41,0.40,0.41
112.97,3.45,3.09,3.46,3.09,-3.09,-3.53,-4.08,0.36,0.37,0.36
114.10,3.50,3.17,3.48,3.15,-3.15,-3.59,-4.15,0.35,0.33,0.33
115.24,3.50,3.20,3.51,3.21,-3.21,-3.65,-4.21,0.29,0.30,0.30
116.39,3.54,3.28,3.53,3.27,-3.27,-3.71,-4.27,0.27,0.26,0.26
117.55,3.55,3.33,3.56,3.33,-3.33,-3.77,-4.32,0.22,0.23,0.22
118.73,3.59,3.41,3.58,3.39,-3.39,-3.83,-4.37,0.20,0.19,0.18
119.92,3.62,3.46,3.61,3.45,-3.45,-3.89,-4.42,0.17,0.15,0.16
121.12,3.64,3.52,3.63,3.51,-3.51,-3.95,-4.46,0.13,0.12,0.12
122.33,3.67,3.59,3.66,3.58,-3.58,-4.00,-4.50,0.09,0.08,0.08
123.55,3.68,3.62,3.69,3.64,-3.64,-4.06,-4.53,0.04,0.05,0.06
124.79,3.72,3.70,3.72,3.70,-3.70,-4.12,-4.55,0.02,0.01,0.02
126.03,3.75,3.76,3.75,3.77,-3.77,-4.18,-4.57,-0.02,-0.02,-0.01
127.29,3.78,3.83,3.78,3.84,-3.84,-4.24,-4.59,-0.06,-0.05,-0.05
128.57,3.81,3.90,3.82,3.91,-3.91,-4.30,-4.60,-0.10,-0.09,-0.09
129.85,3.84,3.97,3.85,3.98,-3.98,-4.35,-4.60,-0.14,-0.12,-0.13
131.15,3.89,4.05,3.89,4.05,-4.05,-4.41,-4.60,-0.16,-0.15,-0.16
132.46,3.94,4.13,3.94,4.12,-4.12,-4.46,-4.60,-0.18,-0.19,-0.19
133.79,3.98,4.19,3.98,4.20,-4.20,-4.52,-4.59,-0.22,-0.22,-0.21
135.12,4.03,4.29,4.03,4.28,-4.28,-4.57,-4.58,-0.25,-0.25,-0.25
136.48,4.08,4.36,4.08,4.36,-4.36,-4.63,-4.56,-0.28,-0.28,-0.28
137.84,4.13,4.44,4.14,4.45,-4.45,-4.68,-4.54,-0.32,-0.31,-0.31
139.22,4.18,4.53,4.20,4.53,-4.53,-4.73,-4.52,-0.35,-0.34,-0.35
140.61,4.24,4.62,4.25,4.62,-4.62,-4.78,-4.50,-0.38,-0.36,-0.37
142.02,4.31,4.69,4.31,4.70,-4.70,-4.83,-4.47,-0.39,-0.39,-0.38
143.44,4.37,4.78,4.37,4.78,-4.78,-4.88,-4.44,-0.41,-0.41,-0.41
144.87,4.43,4.87,4.43,4.86,-4.86,-4.93,-4.42,-0.43,-0.44,-0.44
146.32,4.49,4.96,4.48,4.95,-4.95,-4.97,-4.39,-0.46,-0.46,-0.47
147.78,4.55,5.03,4.54,5.03,-5.03,-5.02,-4.36,-0.48,-0.49,-0.48
149.26,4.59,5.10,4.59,5.10,-5.10,-5.06,-4.33,-0.51,-0.52,-0.51
150.75,4.64,5.18,4.63,5.18,-5.18,-5.10,-4.30,-0.54,-0.54,-0.54
152.26,4.69,5.26,4.68,5.25,-5.25,-5.14,-4.28,-0.56,-0.57,-0.57
153.78,4.72,5.31,4.72,5.31,-5.31,-5.18,-4.25,-0.59,-0.60,-0.59
155.32,4.75,5.37,4.75,5.38,-5.38,-5.21,-4.23,-0.63,-0.62,-0.62
156.88,4.78,5.43,4.78,5.43,-5.43,-5.25,-4.20,-0.65,-0.65,-0.65
158.44,4.80,5.48,4.81,5.48,-5.48,-5.28,-4.18,-0.68,-0.68,-0.68
160.03,4.84,5.55,4.82,5.53,-5.53,-5.31,-4.17,-0.69,-0.71,-0.71
161.63,4.85,5.59,4.84,5.57,-5.57,-5.34,-4.15,-0.72,-0.73,-0.74
163.24,4.85,5.62,4.85,5.61,-5.61,-5.37,-4.14,-0.76,-0.76,-0.77
164.88,4.85,5.64,4.85,5.64,-5.64,-5.39,-4.13,-0.79,-0.79,-0.79
166.53,4.85,5.67,4.85,5.67,-5.67,-5.42,-4.12,-0.82,-0.82,-0.82
168.19,4.85,5.70,4.85,5.70,-5.70,-5.44,-4.11,-0.85,-0.85,-0.85
169.87,4.85,5.73,4.84,5.72,-5.72,-5.46,-4.11,-0.87,-0.88,-0.88
171.57,4.82,5.72,4.83,5.73,-5.73,-5.47,-4.11,-0.91,-0.91,-0.90
173.29,4.80,5.73,4.81,5.75,-5.75,-5.49,-4.12,-0.95,-0.94,-0.93
175.02,4.79,5.75,4.79,5.76,-5.76,-5.50,-4.13,-0.97,-0.97,-0.96
176.77,4.76,5.75,4.77,5.76,-5.76,-5.51,-4.14,-1.00,-1.00,-0.99
178.54,4.75,5.78,4.74,5.76,-5.76,-5.51,-4.15,-1.01,-1.02,-1.03
180.32,4.71,5.76,4.71,5.76,-5.76,-5.52,-4.17,-1.05,-1.05,-1.05
182.13,4.66,5.74,4.68,5.76,-5.76,-5.52,-4.19,-1.10,-1.08,-1.08
183.95,4.65,5.76,4.65,5.76,-5.76,-5.52,-4.21,-1.11,-1.11,-1.11
185.79,4.62,5.76,4.61,5.75,-5.75,-5.52,-4.24,-1.13,-1.14,-1.14
187.65,4.57,5.74,4.57,5.74,-5.74,-5.51,-4.27,-1.17,-1.17,-1.17
189.52,4.54,5.73,4.53,5.72,-5.72,-5.51,-4.31,-1.18,-1.19,-1.19
191.42,4.48,5.70,4.49,5.71,-5.71,-5.50,-4.34,-1.23,-1.22,-1.22
193.33,4.45,5.69,4.44,5.69,-5.69,-5.48,-4.38,-1.24,-1.24,-1.24
195.27,4.40,5.66,4.40,5.66,-5.66,-5.47,-4.42,-1.26,-1.26,-1.26
197.22,4.36,5.64,4.35,5.63,-5.63,-5.45,-4.46,-1.27,-1.28,-1.28
199.19,4.31,5.62,4.30,5.60,-5.60,-5.44,-4.51,-1.29,-1.30,-1.31
201.18,4.24,5.56,4.25,5.57,-5.57,-5.42,-4.56,-1.33,-1.32,-1.32
203.19,4.18,5.51,4.19,5.53,-5.53,-5.39,-4.61,-1.35,-1.34,-1.33
205.23,4.13,5.48,4.14,5.48,-5.48,-5.37,-4.66,-1.35,-1.35,-1.35
207.28,4.08,5.43,4.08,5.44,-5.44,-5.34,-4.71,-1.36,-1.36,-1.35
209.35,4.03,5.40,4.02,5.39,-5.39,-5.31,-4.76,-1.36,-1.37,-1.37
211.44,3.98,5.37,3.96,5.34,-5.34,-5.28,-4.81,-1.36,-1.38,-1.39
213.56,3.92,5.31,3.90,5.29,-5.29,-5.25,-4.87,-1.37,-1.39,-1.39
215.69,3.85,5.24,3.84,5.23,-5.23,-5.22,-4.92,-1.38,-1.39,-1.39
217.85,3.77,5.17,3.78,5.18,-5.18,-5.18,-4.97,-1.41,-1.40,-1.40
220.03,3.71,5.11,3.73,5.13,-5.13,-5.15,-5.02,-1.42,-1.40,-1.40
222.23,3.66,5.07,3.68,5.08,-5.08,-5.11,-5.07,-1.42,-1.40,-1.41
224.45,3.61,5.01,3.63,5.03,-5.03,-5.07,-5.11,-1.42,-1.40,-1.40
226.70,3.57,4.96,3.58,4.97,-4.97,-5.03,-5.15,-1.40,-1.40,-1.39
228.96,3.52,4.91,3.53,4.92,-4.92,-4.98,-5.19,-1.40,-1.39,-1.39
231.25,3.49,4.87,3.49,4.88,-4.88,-4.94,-5.23,-1.39,-1.39,-1.38
233.57,3.45,4.82,3.45,4.83,-4.83,-4.89,-5.26,-1.38,-1.38,-1.37
235.90,3.41,4.78,3.41,4.78,-4.78,-4.85,-5.28,-1.37,-1.37,-1.37
238.26,3.38,4.75,3.38,4.74,-4.74,-4.80,-5.30,-1.36,-1.36,-1.37
240.64,3.36,4.71,3.35,4.69,-4.69,-4.75,-5.31,-1.33,-1.35,-1.35
243.05,3.31,4.65,3.31,4.65,-4.65,-4.70,-5.32,-1.34,-1.34,-1.34
245.48,3.28,4.60,3.28,4.61,-4.61,-4.66,-5.32,-1.33,-1.32,-1.32
247.93,3.26,4.57,3.25,4.56,-4.56,-4.60,-5.31,-1.30,-1.31,-1.31
250.41,3.22,4.52,3.22,4.51,-4.51,-4.55,-5.30,-1.29,-1.29,-1.30
252.92,3.19,4.47,3.19,4.47,-4.47,-4.50,-5.28,-1.28,-1.27,-1.28
255.45,3.17,4.42,3.16,4.42,-4.42,-4.45,-5.25,-1.25,-1.26,-1.25
258.00,3.13,4.36,3.13,4.37,-4.37,-4.40,-5.22,-1.24,-1.24,-1.23
260.58,3.10,4.32,3.10,4.31,-4.31,-4.34,-5.18,-1.21,-1.22,-1.22
263.19,3.07,4.26,3.06,4.26,-4.26,-4.29,-5.13,-1.19,-1.19,-1.19
265.82,3.03,4.21,3.03,4.20,-4.20,-4.24,-5.08,-1.17,-1.17,-1.18
268.48,3.00,4.15,3.00,4.15,-4.15,-4.18,-5.02,-1.15,-1.15,-1.15
271.16,2.97,4.09,2.96,4.09,-4.09,-4.13,-4.96,-1.12,-1.13,-1.12
273.87,2.94,4.05,2.93,4.04,-4.04,-4.08,-4.89,-1.10,-1.11,-1.11
276.61,2.89,3.97,2.89,3.98,-3.98,-4.02,-4.82,-1.09,-1.09,-1.08
279.38,2.86,3.92,2.86,3.92,-3.92,-3.97,-4.74,-1.06,-1.06,-1.06
282.17,2.82,3.87,2.83,3.87,-3.87,-3.91,-4.66,-1.05,-1.04,-1.05
284.99,2.79,3.81,2.79,3.81,-3.81,-3.86,-4.58,-1.02,-1.02,-1.02
287.84,2.75,3.75,2.76,3.76,-3.76,-3.80,-4.49,-1.01,-1.00,-1.00
290.72,2.71,3.68,2.72,3.70,-3.70,-3.75,-4.41,-0.99,-0.98,-0.97
293.63,2.70,3.66,2.69,3.64,-3.64,-3.69,-4.32,-0.94,-0.95,-0.96
296.57,2.66,3.59,2.66,3.59,-3.59,-3.64,-4.23,-0.93,-0.93,-0.93
299.53,2.61,3.52,2.63,3.53,-3.53,-3.59,-4.14,-0.92,-0.91,-0.91
302.53,2.61,3.50,2.59,3.48,-3.48,-3.53,-4.05,-0.87,-0.88,-0.89
305.55,2.57,3.43,2.56,3.42,-3.42,-3.48,-3.96,-0.85,-0.86,-0.86
308.61,2.52,3.36,2.53,3.37,-3.37,-3.43,-3.87,-0.85,-0.83,-0.84
311.69,2.51,3.32,2.50,3.31,-3.31,-3.37,-3.79,-0.80,-0.81,-0.81
314.81,2.47,3.24,2.47,3.26,-3.26,-3.32,-3.70,-0.79,-0.79,-0.77
317.96,2.45,3.20,2.44,3.21,-3.21,-3.27,-3.61,-0.76,-0.76,-0.75
321.14,2.42,3.16,2.42,3.15,-3.15,-3.22,-3.53,-0.73,-0.74,-0.74
324.35,2.38,3.10,2.39,3.10,-3.10,-3.16,-3.45,-0.72,-0.72,-0.72
327.59,2.36,3.05,2.36,3.05,-3.05,-3.11,-3.36,-0.69,-0.69,-0.69
330.87,2.33,3.00,2.34,3.01,-3.01,-3.06,-3.29,-0.68,-0.67,-0.67
334.18,2.29,2.94,2.31,2.96,-2.96,-3.01,-3.21,-0.67,-0.65,-0.65
337.52,2.29,2.92,2.29,2.92,-2.92,-2.96,-3.13,-0.63,-0.63,-0.63
340.90,2.26,2.87,2.27,2.87,-2.87,-2.91,-3.06,-0.61,-0.61,-0.61
344.30,2.24,2.83,2.24,2.83,-2.83,-2.86,-2.99,-0.59,-0.59,-0.59
347.75,2.24,2.81,2.22,2.79,-2.79,-2.81,-2.92,-0.55,-0.57,-0.57
351.23,2.19,2.74,2.20,2.75,-2.75,-2.77,-2.85,-0.56,-0.55,-0.55
354.74,2.19,2.72,2.18,2.71,-2.71,-2.72,-2.79,-0.52,-0.53,-0.53
358.28,2.15,2.66,2.16,2.67,-2.67,-2.67,-2.72,-0.52,-0.51,-0.51
361.87,2.15,2.64,2.13,2.63,-2.63,-2.62,-2.66,-0.48,-0.50,-0.49
365.49,2.11,2.58,2.11,2.59,-2.59,-2.58,-2.60,-0.48,-0.48,-0.47
369.14,2.10,2.57,2.09,2.55,-2.55,-2.53,-2.55,-0.45,-0.46,-0.47
372.83,2.05,2.50,2.06,2.51,-2.51,-2.49,-2.49,-0.46,-0.45,-0.45
376.56,2.04,2.48,2.04,2.47,-2.47,-2.44,-2.44,-0.43,-0.43,-0.44
380.33,2.01,2.42,2.01,2.43,-2.43,-2.40,-2.39,-0.42,-0.42,-0.41
384.13,1.98,2.38,1.98,2.39,-2.39,-2.35,-2.34,-0.41,-0.40,-0.40
387.97,1.96,2.35,1.96,2.35,-2.35,-2.31,-2.30,-0.39,-0.39,-0.39
391.85,1.91,2.29,1.93,2.31,-2.31,-2.27,-2.25,-0.40,-0.38,-0.38
395.77,1.91,2.27,1.90,2.27,-2.27,-2.22,-2.21,-0.36,-0.36,-0.36
399.73,1.87,2.22,1.88,2.23,-2.23,-2.18,-2.17,-0.36,-0.35,-0.35
403.72,1.87,2.21,1.85,2.19,-2.19,-2.14,-2.13,-0.32,-0.34,-0.34
407.76,1.82,2.15,1.82,2.15,-2.15,-2.10,-2.09,-0.33,-0.33,-0.33
411.84,1.78,2.09,1.79,2.11,-2.11,-2.06,-2.05,-0.33,-0.32,-0.31
415.96,1.77,2.08,1.76,2.07,-2.07,-2.02,-2.02,-0.30,-0.31,-0.31
420.12,1.73,2.03,1.73,2.03,-2.03,-1.98,-1.98,-0.30,-0.30,-0.30
424.32,1.69,1.98,1.70,1.99,-1.99,-1.94,-1.95,-0.30,-0.29,-0.29
428.56,1.68,1.96,1.67,1.94,-1.94,-1.90,-1.92,-0.26,-0.28,-0.28
432.85,1.63,1.90,1.63,1.90,-1.90,-1.86,-1.89,-0.27,-0.26,-0.27
437.18,1.61,1.87,1.59,1.85,-1.85,-1.82,-1.86,-0.24,-0.25,-0.26
441.55,1.56,1.80,1.55,1.79,-1.79,-1.79,-1.83,-0.23,-0.24,-0.24
445.96,1.53,1.76,1.51,1.74,-1.74,-1.75,-1.80,-0.21,-0.23,-0.23
450.42,1.49,1.71,1.47,1.69,-1.69,-1.71,-1.77,-0.20,-0.21,-0.22
454.93,1.45,1.65,1.44,1.64,-1.64,-1.68,-1.74,-0.19,-0.20,-0.20
459.48,1.41,1.60,1.41,1.59,-1.59,-1.64,-1.71,-0.18,-0.19,-0.19
464.07,1.38,1.55,1.38,1.55,-1.55,-1.61,-1.68,-0.17,-0.17,-0.17
468.71,1.33,1.48,1.35,1.51,-1.51,-1.57,-1.65,-0.18,-0.16,-0.15
473.40,1.31,1.45,1.33,1.47,-1.47,-1.54,-1.63,-0.16,-0.14,-0.14
478.13,1.26,1.38,1.32,1.44,-1.44,-1.50,-1.60,-0.18,-0.13,-0.12
482.91,1.26,1.37,1.31,1.42,-1.42,-1.47,-1.57,-0.16,-0.11,-0.11
487.74,1.27,1.36,1.30,1.39,-1.39,-1.44,-1.54,-0.12,-0.09,-0.09
492.62,1.31,1.38,1.30,1.38,-1.38,-1.41,-1.51,-0.07,-0.08,-0.07
497.55,1.31,1.37,1.30,1.36,-1.36,-1.37,-1.48,-0.05,-0.06,-0.06
502.52,1.31,1.35,1.30,1.34,-1.34,-1.34,-1.45,-0.03,-0.04,-0.04
507.55,1.31,1.34,1.30,1.33,-1.33,-1.31,-1.42,-0.02,-0.03,-0.03
