frequency,raw,error,smoothed,error_smoothed,equalization,parametric_eq,equalized_raw,equalized_smoothed,target
20,-7.27,-9.30,-7.22,-9.25,6.00,2.36,-1.27,-1.22,2.03
21,-6.73,-8.76,-6.71,-8.74,6.00,2.71,-0.73,-0.71,2.02
22,-6.18,-8.20,-6.24,-8.27,6.00,3.11,-0.18,-0.24,2.02
23,-5.73,-7.75,-5.81,-7.83,6.00,3.53,0.27,0.19,2.02
24,-5.34,-7.36,-5.41,-7.43,6.00,3.97,0.66,0.59,2.02
25,-5.04,-7.06,-5.05,-7.07,6.00,4.43,0.96,0.95,2.01
26,-4.73,-6.74,-4.73,-6.74,6.00,4.89,1.27,1.27,2.01
27,-4.48,-6.49,-4.44,-6.45,5.96,5.32,1.48,1.52,2.01
28,-4.24,-6.24,-4.18,-6.18,5.89,5.71,1.65,1.71,2.00
29,-3.97,-5.97,-3.94,-5.94,5.78,6.02,1.81,1.84,2.00
30,-3.69,-5.69,-3.73,-5.73,5.65,6.23,1.96,1.92,1.99
31,-3.51,-5.50,-3.54,-5.53,5.51,6.33,2.00,1.97,1.99
32,-3.34,-5.32,-3.37,-5.35,5.35,6.33,2.01,1.98,1.98
33,-3.21,-5.19,-3.22,-5.19,5.19,6.24,1.98,1.98,1.98
34,-3.10,-5.07,-3.08,-5.05,5.05,6.07,1.95,1.97,1.97
35,-2.96,-4.92,-2.95,-4.91,4.91,5.85,1.95,1.96,1.96
36,-2.83,-4.79,-2.83,-4.78,4.78,5.61,1.95,1.95,1.95
37,-2.73,-4.68,-2.71,-4.66,4.66,5.35,1.93,1.95,1.95
38,-2.60,-4.54,-2.60,-4.54,4.54,5.09,1.94,1.94,1.94
39,-2.50,-4.43,-2.49,-4.42,4.42,4.84,1.92,1.93,1.93
40,-2.39,-4.31,-2.38,-4.30,4.30,4.60,1.91,1.92,1.92
41,-2.28,-4.19,-2.27,-4.18,4.18,4.39,1.90,1.90,1.90
42,-2.17,-4.06,-2.16,-4.05,4.05,4.19,1.88,1.89,1.89
43,-2.04,-3.92,-2.06,-3.93,3.93,4.01,1.89,1.88,1.88
44,-1.94,-3.81,-1.95,-3.82,3.82,3.86,1.88,1.87,1.87
45,-1.87,-3.72,-1.85,-3.70,3.70,3.72,1.83,1.85,1.85
46,-1.75,-3.59,-1.76,-3.59,3.59,3.60,1.84,1.84,1.84
47,-1.66,-3.48,-1.67,-3.49,3.49,3.49,1.83,1.82,1.82
48,-1.58,-3.38,-1.59,-3.39,3.39,3.40,1.81,1.80,1.80
49,-1.49,-3.28,-1.51,-3.30,3.30,3.32,1.81,1.78,1.78
50,-1.45,-3.22,-1.44,-3.21,3.21,3.25,1.76,1.77,1.77
51,-1.38,-3.13,-1.38,-3.12,3.12,3.19,1.74,1.75,1.75
52,-1.31,-3.04,-1.31,-3.04,3.04,3.14,1.73,1.72,1.72
53,-1.27,-2.97,-1.25,-2.95,2.95,3.09,1.68,1.70,1.70
54,-1.19,-2.87,-1.19,-2.87,2.87,3.05,1.68,1.68,1.68
55,-1.12,-2.78,-1.13,-2.79,2.79,3.01,1.67,1.66,1.66
56,-1.10,-2.73,-1.07,-2.71,2.71,2.98,1.61,1.63,1.63
57,-1.01,-2.62,-1.02,-2.63,2.63,2.94,1.61,1.61,1.61
58,-0.98,-2.56,-0.96,-2.55,2.55,2.90,1.56,1.58,1.58
59,-0.92,-2.48,-0.92,-2.47,2.47,2.86,1.55,1.55,1.55
60,-0.85,-2.38,-0.87,-2.40,2.40,2.81,1.55,1.53,1.53
61,-0.79,-2.29,-0.83,-2.33,2.33,2.76,1.54,1.50,1.50
62,-0.79,-2.26,-0.80,-2.27,2.27,2.71,1.48,1.47,1.47
63,-0.79,-2.23,-0.77,-2.21,2.21,2.65,1.42,1.44,1.44
64,-0.76,-2.17,-0.75,-2.16,2.16,2.59,1.40,1.41,1.41
65,-0.75,-2.12,-0.73,-2.11,2.11,2.53,1.36,1.37,1.37
66,-0.73,-2.07,-0.72,-2.06,2.06,2.46,1.33,1.34,1.34
67,-0.70,-2.01,-0.71,-2.01,2.01,2.39,1.31,1.31,1.31
68,-0.70,-1.97,-0.70,-1.97,1.97,2.31,1.27,1.27,1.27
69,-0.70,-1.94,-0.70,-1.93,1.93,2.24,1.23,1.24,1.24
70,-0.70,-1.90,-0.70,-1.90,1.90,2.16,1.20,1.20,1.20
71,-0.70,-1.86,-0.71,-1.88,1.88,2.08,1.18,1.16,1.16
72,-0.70,-1.83,-0.73,-1.86,1.86,2.00,1.16,1.13,1.13
73,-0.74,-1.83,-0.76,-1.85,1.85,1.92,1.11,1.09,1.09
74,-0.81,-1.86,-0.80,-1.85,1.85,1.85,1.04,1.05,1.05
75,-0.84,-1.85,-0.84,-1.85,1.85,1.77,1.01,1.01,1.01
76,-0.89,-1.86,-0.89,-1.86,1.86,1.69,0.97,0.97,0.97
77,-0.93,-1.86,-0.93,-1.86,1.86,1.61,0.93,0.93,0.93
78,-0.98,-1.87,-0.97,-1.87,1.87,1.54,0.88,0.89,0.89
79,-1.03,-1.88,-1.01,-1.86,1.86,1.47,0.83,0.85,0.85
80,-1.05,-1.86,-1.04,-1.85,1.85,1.39,0.80,0.81,0.81
81,-1.07,-1.84,-1.06,-1.83,1.83,1.32,0.76,0.77,0.77
82,-1.07,-1.80,-1.08,-1.81,1.81,1.25,0.73,0.73,0.73
83,-1.09,-1.78,-1.08,-1.77,1.77,1.19,0.68,0.69,0.69
84,-1.07,-1.72,-1.09,-1.73,1.73,1.12,0.66,0.65,0.65
85,-1.07,-1.68,-1.08,-1.69,1.69,1.06,0.61,0.60,0.60
86,-1.07,-1.63,-1.07,-1.63,1.63,0.99,0.56,0.56,0.56
87,-1.07,-1.59,-1.06,-1.58,1.58,0.93,0.51,0.52,0.52
88,-1.03,-1.51,-1.04,-1.52,1.52,0.87,0.49,0.48,0.48
89,-1.03,-1.47,-1.01,-1.45,1.45,0.81,0.42,0.44,0.44
90,-0.98,-1.38,-0.98,-1.38,1.38,0.76,0.40,0.40,0.40
91,-0.95,-1.31,-0.95,-1.31,1.31,0.70,0.36,0.36,0.36
92,-0.91,-1.23,-0.92,-1.23,1.23,0.65,0.32,0.31,0.31
93,-0.89,-1.16,-0.88,-1.16,1.16,0.59,0.26,0.27,0.27
94,-0.84,-1.07,-0.84,-1.08,1.08,0.54,0.24,0.23,0.23
95,-0.83,-1.02,-0.81,-1.00,1.00,0.49,0.17,0.19,0.19
96,-0.77,-0.92,-0.78,-0.93,0.93,0.44,0.16,0.15,0.15
97,-0.74,-0.85,-0.75,-0.87,0.87,0.39,0.12,0.11,0.11
98,-0.70,-0.77,-0.73,-0.80,0.80,0.34,0.10,0.07,0.07
99,-0.70,-0.74,-0.71,-0.75,0.75,0.30,0.05,0.03,0.03
100,-0.70,-0.70,-0.70,-0.69,0.69,0.25,-0.01,-0.01,-0.00
101,-0.70,-0.66,-0.70,-0.65,0.65,0.21,-0.05,-0.05,-0.04
102,-0.70,-0.62,-0.70,-0.60,0.60,0.17,-0.10,-0.10,-0.08
104,-0.70,-0.55,-0.70,-0.56,0.56,0.08,-0.14,-0.14,-0.15
105,-0.70,-0.51,-0.70,-0.51,0.51,0.04,-0.19,-0.18,-0.19
106,-0.70,-0.47,-0.69,-0.47,0.47,0.00,-0.23,-0.22,-0.23
107,-0.70,-0.44,-0.69,-0.43,0.43,-0.03,-0.27,-0.26,-0.26
108,-0.70,-0.40,-0.69,-0.39,0.39,-0.07,-0.31,-0.30,-0.30
109,-0.68,-0.35,-0.68,-0.35,0.35,-0.11,-0.33,-0.33,-0.33
110,-0.65,-0.29,-0.67,-0.31,0.31,-0.14,-0.34,-0.37,-0.37
111,-0.65,-0.25,-0.67,-0.27,0.27,-0.17,-0.38,-0.40,-0.40
112,-0.65,-0.22,-0.66,-0.23,0.23,-0.21,-0.42,-0.43,-0.43
113,-0.65,-0.19,-0.65,-0.18,0.18,-0.24,-0.47,-0.47,-0.46
114,-0.65,-0.16,-0.64,-0.14,0.14,-0.27,-0.51,-0.50,-0.50
115,-0.65,-0.12,-0.63,-0.09,0.09,-0.29,-0.56,-0.54,-0.53
117,-0.61,-0.02,-0.61,-0.04,0.04,-0.35,-0.57,-0.57,-0.59
118,-0.60,0.02,-0.59,0.02,-0.02,-0.37,-0.62,-0.61,-0.62
119,-0.58,0.06,-0.57,0.07,-0.07,-0.39,-0.66,-0.64,-0.65
120,-0.53,0.14,-0.54,0.13,-0.13,-0.42,-0.66,-0.68,-0.67
121,-0.51,0.19,-0.52,0.19,-0.19,-0.44,-0.70,-0.71,-0.70
123,-0.47,0.28,-0.49,0.25,-0.25,-0.48,-0.72,-0.75,-0.76
124,-0.47,0.31,-0.47,0.31,-0.31,-0.49,-0.78,-0.78,-0.78
125,-0.43,0.38,-0.44,0.37,-0.37,-0.51,-0.80,-0.81,-0.81
126,-0.42,0.41,-0.42,0.43,-0.43,-0.52,-0.85,-0.84,-0.83
128,-0.40,0.48,-0.39,0.48,-0.48,-0.55,-0.88,-0.87,-0.88
129,-0.37,0.53,-0.36,0.54,-0.54,-0.56,-0.91,-0.90,-0.90
130,-0.33,0.60,-0.33,0.60,-0.60,-0.57,-0.94,-0.93,-0.93
131,-0.30,0.65,-0.29,0.67,-0.67,-0.58,-0.97,-0.96,-0.95
133,-0.25,0.74,-0.26,0.73,-0.73,-0.60,-0.98,-0.99,-0.99
134,-0.21,0.80,-0.22,0.79,-0.79,-0.61,-1.00,-1.01,-1.01
135,-0.19,0.84,-0.19,0.85,-0.85,-0.62,-1.05,-1.04,-1.03
137,-0.14,0.93,-0.16,0.91,-0.91,-0.63,-1.05,-1.07,-1.07
138,-0.14,0.95,-0.13,0.97,-0.97,-0.63,-1.11,-1.10,-1.09
140,-0.09,1.04,-0.11,1.02,-1.02,-0.64,-1.11,-1.12,-1.13
141,-0.09,1.06,-0.09,1.06,-1.06,-0.65,-1.15,-1.15,-1.15
142,-0.09,1.08,-0.07,1.10,-1.10,-0.65,-1.19,-1.17,-1.17
144,-0.05,1.15,-0.06,1.13,-1.13,-0.66,-1.18,-1.20,-1.20
145,-0.05,1.17,-0.06,1.16,-1.16,-0.66,-1.21,-1.22,-1.22
147,-0.05,1.20,-0.06,1.19,-1.19,-0.66,-1.24,-1.24,-1.25
148,-0.05,1.21,-0.06,1.21,-1.21,-0.67,-1.26,-1.27,-1.26
150,-0.05,1.24,-0.06,1.22,-1.22,-0.67,-1.27,-1.29,-1.29
151,-0.09,1.22,-0.07,1.24,-1.24,-0.67,-1.33,-1.31,-1.31
153,-0.09,1.24,-0.08,1.25,-1.25,-0.68,-1.35,-1.33,-1.33
154,-0.09,1.26,-0.08,1.27,-1.27,-0.68,-1.36,-1.35,-1.35
156,-0.09,1.28,-0.08,1.29,-1.29,-0.69,-1.38,-1.37,-1.37
157,-0.09,1.29,-0.09,1.30,-1.30,-0.69,-1.39,-1.39,-1.39
159,-0.09,1.32,-0.09,1.32,-1.32,-0.69,-1.41,-1.41,-1.41
160,-0.09,1.33,-0.10,1.33,-1.33,-0.70,-1.42,-1.42,-1.42
162,-0.09,1.35,-0.11,1.34,-1.34,-0.70,-1.43,-1.44,-1.44
164,-0.09,1.37,-0.12,1.34,-1.34,-0.71,-1.43,-1.46,-1.46
165,-0.12,1.35,-0.13,1.35,-1.35,-0.72,-1.47,-1.48,-1.47
167,-0.14,1.35,-0.14,1.35,-1.35,-0.72,-1.49,-1.49,-1.49
169,-0.19,1.32,-0.16,1.35,-1.35,-0.73,-1.54,-1.51,-1.51
170,-0.19,1.33,-0.17,1.35,-1.35,-0.74,-1.54,-1.52,-1.52
172,-0.19,1.35,-0.18,1.36,-1.36,-0.75,-1.55,-1.54,-1.54
174,-0.19,1.36,-0.19,1.36,-1.36,-0.76,-1.55,-1.55,-1.55
175,-0.19,1.37,-0.21,1.36,-1.36,-0.76,-1.55,-1.57,-1.56
177,-0.22,1.36,-0.22,1.36,-1.36,-0.78,-1.58,-1.58,-1.58
179,-0.23,1.36,-0.23,1.36,-1.36,-0.79,-1.59,-1.59,-1.59
181,-0.23,1.38,-0.25,1.36,-1.36,-0.80,-1.59,-1.61,-1.61
183,-0.26,1.36,-0.27,1.35,-1.35,-0.82,-1.61,-1.62,-1.62
184,-0.28,1.35,-0.30,1.34,-1.34,-0.82,-1.62,-1.63,-1.63
186,-0.33,1.31,-0.32,1.32,-1.32,-0.84,-1.65,-1.64,-1.64
188,-0.35,1.30,-0.35,1.31,-1.31,-0.86,-1.66,-1.65,-1.65
190,-0.37,1.30,-0.37,1.29,-1.29,-0.87,-1.66,-1.67,-1.67
192,-0.42,1.26,-0.40,1.28,-1.28,-0.89,-1.70,-1.68,-1.68
194,-0.42,1.27,-0.41,1.27,-1.27,-0.91,-1.70,-1.69,-1.69
196,-0.42,1.28,-0.43,1.27,-1.27,-0.92,-1.69,-1.70,-1.70
198,-0.44,1.27,-0.44,1.27,-1.27,-0.94,-1.71,-1.71,-1.71
200,-0.47,1.25,-0.45,1.27,-1.27,-0.96,-1.74,-1.72,-1.72
202,-0.46,1.27,-0.45,1.28,-1.28,-0.98,-1.74,-1.73,-1.73
204,-0.42,1.32,-0.46,1.28,-1.28,-0.99,-1.70,-1.74,-1.74
206,-0.44,1.31,-0.46,1.29,-1.29,-1.01,-1.73,-1.75,-1.75
208,-0.47,1.28,-0.46,1.29,-1.29,-1.03,-1.76,-1.75,-1.75
210,-0.47,1.29,-0.47,1.29,-1.29,-1.05,-1.77,-1.76,-1.76
212,-0.47,1.30,-0.47,1.30,-1.30,-1.06,-1.77,-1.77,-1.77
214,-0.47,1.30,-0.47,1.30,-1.30,-1.08,-1.77,-1.77,-1.77
216,-0.47,1.31,-0.47,1.31,-1.31,-1.10,-1.78,-1.78,-1.78
218,-0.47,1.31,-0.47,1.32,-1.32,-1.11,-1.79,-1.78,-1.78
221,-0.47,1.32,-0.46,1.32,-1.32,-1.13,-1.80,-1.79,-1.79
223,-0.47,1.32,-0.46,1.33,-1.33,-1.14,-1.80,-1.79,-1.79
225,-0.47,1.32,-0.45,1.34,-1.34,-1.16,-1.81,-1.79,-1.79
227,-0.42,1.37,-0.44,1.35,-1.35,-1.17,-1.77,-1.79,-1.79
229,-0.42,1.37,-0.44,1.36,-1.36,-1.18,-1.78,-1.79,-1.79
232,-0.42,1.37,-0.44,1.35,-1.35,-1.19,-1.78,-1.79,-1.79
234,-0.42,1.37,-0.44,1.35,-1.35,-1.19,-1.77,-1.79,-1.79
236,-0.47,1.31,-0.45,1.34,-1.34,-1.20,-1.81,-1.79,-1.78
239,-0.47,1.31,-0.46,1.32,-1.32,-1.20,-1.79,-1.78,-1.78
241,-0.47,1.31,-0.48,1.29,-1.29,-1.20,-1.76,-1.78,-1.78
244,-0.51,1.26,-0.51,1.26,-1.26,-1.20,-1.77,-1.77,-1.77
246,-0.53,1.23,-0.53,1.23,-1.23,-1.20,-1.76,-1.76,-1.76
248,-0.56,1.19,-0.56,1.19,-1.19,-1.20,-1.75,-1.76,-1.75
251,-0.61,1.14,-0.60,1.15,-1.15,-1.19,-1.76,-1.75,-1.75
253,-0.61,1.12,-0.63,1.11,-1.11,-1.18,-1.72,-1.74,-1.74
256,-0.66,1.06,-0.67,1.06,-1.06,-1.17,-1.72,-1.73,-1.73
259,-0.72,0.99,-0.70,1.01,-1.01,-1.15,-1.73,-1.71,-1.72
261,-0.74,0.96,-0.74,0.96,-0.96,-1.14,-1.71,-1.70,-1.70
264,-0.78,0.91,-0.77,0.92,-0.92,-1.12,-1.70,-1.69,-1.69
266,-0.79,0.88,-0.81,0.87,-0.87,-1.10,-1.66,-1.68,-1.68
269,-0.84,0.82,-0.84,0.82,-0.82,-1.08,-1.66,-1.66,-1.66
272,-0.89,0.76,-0.87,0.77,-0.77,-1.05,-1.66,-1.65,-1.65
274,-0.91,0.72,-0.91,0.72,-0.72,-1.03,-1.63,-1.63,-1.63
277,-0.93,0.68,-0.94,0.67,-0.67,-1.00,-1.61,-1.62,-1.62
280,-0.98,0.62,-0.97,0.62,-0.62,-0.97,-1.61,-1.60,-1.60
283,-0.99,0.59,-1.01,0.57,-0.57,-0.94,-1.56,-1.58,-1.58
286,-1.05,0.51,-1.05,0.52,-0.52,-0.91,-1.57,-1.56,-1.56
288,-1.07,0.47,-1.08,0.46,-0.46,-0.88,-1.53,-1.55,-1.55
291,-1.12,0.41,-1.12,0.41,-0.41,-0.85,-1.53,-1.53,-1.53
294,-1.16,0.35,-1.16,0.35,-0.35,-0.81,-1.51,-1.51,-1.51
297,-1.19,0.30,-1.19,0.30,-0.30,-0.78,-1.49,-1.49,-1.49
300,-1.22,0.25,-1.23,0.24,-0.24,-0.74,-1.46,-1.47,-1.47
303,-1.26,0.19,-1.25,0.19,-0.19,-0.70,-1.46,-1.45,-1.45
306,-1.31,0.12,-1.28,0.15,-0.15,-0.67,-1.46,-1.43,-1.43
309,-1.31,0.10,-1.30,0.11,-0.11,-0.63,-1.42,-1.41,-1.41
312,-1.31,0.08,-1.31,0.08,-0.08,-0.59,-1.39,-1.39,-1.39
316,-1.31,0.06,-1.33,0.04,-0.04,-0.55,-1.35,-1.37,-1.37
319,-1.34,0.01,-1.34,0.01,-0.01,-0.51,-1.35,-1.35,-1.35
322,-1.35,-0.02,-1.35,-0.02,0.02,-0.47,-1.33,-1.33,-1.33
325,-1.35,-0.05,-1.36,-0.06,0.06,-0.44,-1.29,-1.31,-1.31
328,-1.36,-0.08,-1.38,-0.09,0.09,-0.40,-1.27,-1.28,-1.28
332,-1.40,-0.14,-1.40,-0.14,0.14,-0.36,-1.27,-1.26,-1.26
335,-1.40,-0.16,-1.42,-0.18,0.18,-0.32,-1.22,-1.24,-1.24
338,-1.45,-0.23,-1.45,-0.23,0.23,-0.29,-1.23,-1.22,-1.22
342,-1.49,-0.29,-1.48,-0.27,0.27,-0.24,-1.22,-1.20,-1.20
345,-1.50,-0.32,-1.50,-0.32,0.32,-0.21,-1.18,-1.18,-1.18
349,-1.54,-0.38,-1.53,-0.36,0.36,-0.17,-1.18,-1.17,-1.17
352,-1.54,-0.39,-1.55,-0.40,0.40,-0.14,-1.14,-1.15,-1.15
356,-1.59,-0.46,-1.57,-0.44,0.44,-0.09,-1.15,-1.13,-1.13
359,-1.59,-0.48,-1.58,-0.47,0.47,-0.06,-1.12,-1.11,-1.11
363,-1.59,-0.49,-1.60,-0.50,0.50,-0.02,-1.09,-1.10,-1.10
366,-1.59,-0.51,-1.61,-0.52,0.52,0.01,-1.07,-1.08,-1.08
370,-1.63,-0.56,-1.62,-0.55,0.55,0.05,-1.08,-1.07,-1.07
374,-1.63,-0.58,-1.63,-0.57,0.57,0.09,-1.06,-1.05,-1.05
377,-1.63,-0.59,-1.64,-0.60,0.60,0.12,-1.03,-1.04,-1.04
381,-1.63,-0.60,-1.66,-0.63,0.63,0.16,-1.00,-1.03,-1.03
385,-1.68,-0.66,-1.68,-0.66,0.66,0.20,-1.02,-1.02,-1.02
389,-1.68,-0.67,-1.70,-0.69,0.69,0.24,-0.99,-1.01,-1.01
393,-1.70,-0.70,-1.72,-0.72,0.72,0.27,-0.98,-1.00,-1.00
397,-1.75,-0.76,-1.74,-0.75,0.75,0.31,-1.00,-0.99,-0.99
401,-1.77,-0.79,-1.75,-0.78,0.78,0.34,-0.99,-0.98,-0.98
405,-1.77,-0.80,-1.76,-0.79,0.79,0.38,-0.98,-0.97,-0.97
409,-1.80,-0.84,-1.77,-0.81,0.81,0.41,-1.00,-0.96,-0.96
413,-1.77,-0.82,-1.76,-0.81,0.81,0.44,-0.96,-0.95,-0.95
417,-1.76,-0.81,-1.75,-0.81,0.81,0.48,-0.95,-0.95,-0.95
421,-1.73,-0.79,-1.74,-0.80,0.80,0.51,-0.93,-0.94,-0.94
425,-1.68,-0.75,-1.72,-0.78,0.78,0.54,-0.90,-0.93,-0.93
430,-1.68,-0.76,-1.69,-0.77,0.77,0.57,-0.91,-0.93,-0.93
434,-1.68,-0.76,-1.67,-0.75,0.75,0.60,-0.93,-0.92,-0.92
438,-1.63,-0.72,-1.63,-0.72,0.72,0.63,-0.91,-0.91,-0.91
443,-1.61,-0.71,-1.60,-0.70,0.70,0.66,-0.91,-0.90,-0.90
447,-1.57,-0.68,-1.56,-0.67,0.67,0.68,-0.90,-0.89,-0.89
451,-1.52,-0.64,-1.52,-0.63,0.63,0.71,-0.89,-0.88,-0.88
456,-1.47,-0.60,-1.47,-0.60,0.60,0.73,-0.88,-0.87,-0.87
460,-1.42,-0.56,-1.42,-0.55,0.55,0.75,-0.87,-0.86,-0.86
465,-1.37,-0.52,-1.36,-0.51,0.51,0.78,-0.86,-0.85,-0.85
470,-1.30,-0.46,-1.31,-0.47,0.47,0.80,-0.83,-0.84,-0.84
474,-1.25,-0.42,-1.25,-0.42,0.42,0.81,-0.83,-0.83,-0.83
479,-1.19,-0.38,-1.20,-0.38,0.38,0.83,-0.81,-0.81,-0.81
484,-1.14,-0.34,-1.15,-0.35,0.35,0.84,-0.79,-0.80,-0.80
489,-1.10,-0.32,-1.10,-0.32,0.32,0.85,-0.78,-0.78,-0.78
494,-1.07,-0.30,-1.07,-0.30,0.30,0.86,-0.77,-0.77,-0.77
499,-1.03,-0.28,-1.03,-0.28,0.28,0.87,-0.75,-0.75,-0.75
504,-0.98,-0.25,-1.01,-0.27,0.27,0.87,-0.71,-0.74,-0.74
509,-0.98,-0.26,-0.99,-0.27,0.27,0.87,-0.71,-0.72,-0.72
514,-0.98,-0.28,-0.97,-0.27,0.27,0.87,-0.71,-0.70,-0.70
519,-0.98,-0.30,-0.96,-0.28,0.28,0.87,-0.70,-0.68,-0.68
524,-0.93,-0.27,-0.95,-0.29,0.29,0.87,-0.64,-0.66,-0.66
529,-0.93,-0.29,-0.94,-0.30,0.30,0.86,-0.63,-0.64,-0.64
535,-0.93,-0.31,-0.93,-0.31,0.31,0.85,-0.62,-0.62,-0.62
540,-0.93,-0.33,-0.92,-0.32,0.32,0.84,-0.62,-0.60,-0.60
545,-0.89,-0.31,-0.90,-0.32,0.32,0.83,-0.57,-0.58,-0.58
551,-0.89,-0.33,-0.89,-0.33,0.33,0.82,-0.56,-0.56,-0.56
556,-0.89,-0.35,-0.87,-0.33,0.33,0.81,-0.56,-0.54,-0.54
562,-0.85,-0.33,-0.84,-0.32,0.32,0.79,-0.53,-0.52,-0.52
568,-0.84,-0.34,-0.82,-0.32,0.32,0.77,-0.52,-0.50,-0.50
573,-0.79,-0.31,-0.80,-0.32,0.32,0.76,-0.47,-0.48,-0.48
579,-0.76,-0.30,-0.78,-0.31,0.31,0.74,-0.45,-0.46,-0.46
585,-0.75,-0.31,-0.76,-0.32,0.32,0.72,-0.44,-0.44,-0.44
591,-0.73,-0.31,-0.74,-0.32,0.32,0.69,-0.41,-0.42,-0.42
596,-0.70,-0.30,-0.74,-0.33,0.33,0.68,-0.37,-0.40,-0.40
602,-0.75,-0.36,-0.73,-0.35,0.35,0.65,-0.40,-0.39,-0.39
608,-0.75,-0.38,-0.74,-0.37,0.37,0.63,-0.38,-0.37,-0.37
615,-0.75,-0.40,-0.75,-0.39,0.39,0.61,-0.36,-0.35,-0.35
621,-0.75,-0.41,-0.76,-0.42,0.42,0.58,-0.33,-0.34,-0.34
627,-0.79,-0.47,-0.78,-0.46,0.46,0.56,-0.33,-0.32,-0.32
633,-0.79,-0.48,-0.80,-0.49,0.49,0.54,-0.30,-0.31,-0.31
639,-0.81,-0.52,-0.82,-0.53,0.53,0.52,-0.28,-0.29,-0.29
646,-0.84,-0.56,-0.85,-0.57,0.57,0.49,-0.27,-0.28,-0.28
652,-0.87,-0.60,-0.87,-0.60,0.60,0.47,-0.27,-0.27,-0.27
659,-0.91,-0.66,-0.89,-0.64,0.64,0.44,-0.27,-0.25,-0.25
665,-0.93,-0.69,-0.91,-0.67,0.67,0.42,-0.26,-0.24,-0.24
672,-0.93,-0.70,-0.93,-0.70,0.70,0.40,-0.24,-0.23,-0.23
679,-0.93,-0.71,-0.94,-0.72,0.72,0.37,-0.21,-0.22,-0.22
686,-0.94,-0.73,-0.94,-0.73,0.73,0.35,-0.21,-0.21,-0.21
692,-0.95,-0.75,-0.94,-0.74,0.74,0.33,-0.21,-0.20,-0.20
699,-0.93,-0.74,-0.94,-0.75,0.75,0.31,-0.18,-0.19,-0.19
706,-0.93,-0.75,-0.93,-0.75,0.75,0.28,-0.18,-0.18,-0.18
713,-0.92,-0.75,-0.92,-0.75,0.75,0.26,-0.17,-0.17,-0.17
721,-0.91,-0.75,-0.91,-0.74,0.74,0.24,-0.17,-0.17,-0.17
728,-0.89,-0.73,-0.89,-0.73,0.73,0.21,-0.16,-0.16,-0.16
735,-0.87,-0.72,-0.86,-0.71,0.71,0.19,-0.16,-0.15,-0.15
742,-0.84,-0.70,-0.83,-0.69,0.69,0.17,-0.15,-0.14,-0.14
750,-0.79,-0.66,-0.80,-0.66,0.66,0.15,-0.13,-0.14,-0.14
757,-0.76,-0.63,-0.76,-0.63,0.63,0.13,-0.13,-0.13,-0.13
765,-0.70,-0.58,-0.71,-0.59,0.59,0.11,-0.11,-0.12,-0.12
773,-0.67,-0.55,-0.67,-0.55,0.55,0.08,-0.12,-0.12,-0.12
780,-0.62,-0.51,-0.62,-0.51,0.51,0.07,-0.12,-0.11,-0.11
788,-0.58,-0.47,-0.57,-0.46,0.46,0.05,-0.12,-0.11,-0.11
796,-0.52,-0.42,-0.51,-0.41,0.41,0.03,-0.11,-0.10,-0.10
804,-0.46,-0.36,-0.46,-0.36,0.36,0.01,-0.10,-0.10,-0.10
812,-0.40,-0.31,-0.41,-0.32,0.32,-0.01,-0.08,-0.10,-0.09
820,-0.34,-0.25,-0.36,-0.27,0.27,-0.03,-0.07,-0.09,-0.09
828,-0.31,-0.22,-0.32,-0.23,0.23,-0.04,-0.08,-0.09,-0.09
837,-0.28,-0.20,-0.28,-0.19,0.19,-0.06,-0.09,-0.09,-0.09
845,-0.25,-0.17,-0.24,-0.16,0.16,-0.08,-0.09,-0.08,-0.08
853,-0.22,-0.14,-0.21,-0.13,0.13,-0.09,-0.09,-0.08,-0.08
862,-0.19,-0.11,-0.18,-0.10,0.10,-0.10,-0.09,-0.08,-0.08
871,-0.14,-0.07,-0.15,-0.08,0.08,-0.11,-0.06,-0.07,-0.07
879,-0.10,-0.03,-0.13,-0.06,0.06,-0.12,-0.04,-0.07,-0.07
888,-0.09,-0.03,-0.11,-0.04,0.04,-0.13,-0.05,-0.07,-0.07
897,-0.09,-0.03,-0.09,-0.03,0.03,-0.14,-0.06,-0.06,-0.06
906,-0.09,-0.04,-0.08,-0.02,0.02,-0.14,-0.07,-0.06,-0.06
915,-0.09,-0.04,-0.06,-0.01,0.01,-0.15,-0.08,-0.05,-0.05
924,-0.05,-0.01,-0.05,-0.01,0.01,-0.15,-0.04,-0.04,-0.04
933,-0.05,-0.02,-0.04,-0.00,0.00,-0.15,-0.05,-0.03,-0.03
943,-0.00,0.02,-0.03,-0.00,0.00,-0.15,0.00,-0.02,-0.02
952,-0.00,0.01,-0.02,-0.00,0.00,-0.14,0.00,-0.01,-0.01
962,-0.00,0.00,-0.01,-0.01,0.01,-0.13,0.00,-0.00,-0.00
971,-0.00,-0.01,0.00,-0.01,0.01,-0.12,0.01,0.01,0.01
981,0.02,-0.01,0.01,-0.02,0.02,-0.11,0.04,0.03,0.03
991,0.01,-0.03,0.01,-0.03,0.03,-0.09,0.04,0.04,0.04
1001,-0.00,-0.06,0.02,-0.04,0.04,-0.08,0.04,0.06,0.06
1011,0.01,-0.07,0.03,-0.05,0.05,-0.05,0.06,0.08,0.08
1021,0.05,-0.05,0.04,-0.06,0.06,-0.03,0.11,0.10,0.10
1031,0.07,-0.05,0.06,-0.06,0.06,-0.01,0.13,0.12,0.12
1041,0.09,-0.06,0.07,-0.07,0.07,0.02,0.16,0.15,0.15
1052,0.09,-0.08,0.09,-0.08,0.08,0.06,0.17,0.17,0.17
1062,0.09,-0.11,0.10,-0.09,0.09,0.09,0.18,0.20,0.20
1073,0.11,-0.12,0.12,-0.11,0.11,0.13,0.22,0.23,0.23
1084,0.14,-0.12,0.13,-0.13,0.13,0.17,0.26,0.26,0.26
1094,0.14,-0.15,0.14,-0.15,0.15,0.21,0.29,0.29,0.29
1105,0.15,-0.17,0.15,-0.17,0.17,0.25,0.32,0.32,0.32
1116,0.16,-0.19,0.15,-0.20,0.20,0.30,0.36,0.35,0.35
1128,0.16,-0.23,0.15,-0.24,0.24,0.35,0.40,0.39,0.39
1139,0.14,-0.28,0.15,-0.28,0.28,0.40,0.42,0.42,0.42
1150,0.14,-0.32,0.14,-0.32,0.32,0.45,0.46,0.46,0.46
1162,0.14,-0.36,0.14,-0.37,0.37,0.50,0.50,0.50,0.50
1173,0.14,-0.40,0.13,-0.41,0.41,0.56,0.55,0.54,0.54
1185,0.12,-0.47,0.12,-0.46,0.46,0.62,0.58,0.59,0.59
1197,0.11,-0.52,0.12,-0.51,0.51,0.68,0.62,0.63,0.63
1209,0.09,-0.59,0.11,-0.57,0.57,0.74,0.66,0.68,0.68
1221,0.09,-0.64,0.11,-0.62,0.62,0.80,0.71,0.73,0.73
1233,0.12,-0.66,0.10,-0.67,0.67,0.87,0.79,0.78,0.78
1246,0.12,-0.71,0.10,-0.73,0.73,0.94,0.85,0.83,0.83
1258,0.09,-0.79,0.09,-0.79,0.79,1.00,0.88,0.88,0.88
1271,0.09,-0.85,0.09,-0.85,0.85,1.08,0.94,0.94,0.94
1283,0.09,-0.90,0.08,-0.91,0.91,1.14,1.00,0.99,0.99
1296,0.08,-0.97,0.07,-0.98,0.98,1.22,1.06,1.05,1.05
1309,0.05,-1.06,0.06,-1.05,1.05,1.29,1.10,1.11,1.11
1322,0.05,-1.13,0.06,-1.12,1.12,1.37,1.17,1.17,1.17
1335,0.05,-1.19,0.05,-1.19,1.19,1.44,1.24,1.24,1.24
1349,0.05,-1.25,0.05,-1.26,1.26,1.52,1.30,1.30,1.30
1362,0.05,-1.32,0.04,-1.32,1.32,1.60,1.37,1.37,1.37
1376,0.05,-1.39,0.04,-1.39,1.39,1.69,1.44,1.43,1.43
1390,0.05,-1.45,0.04,-1.46,1.46,1.77,1.51,1.50,1.50
1404,0.05,-1.52,0.05,-1.52,1.52,1.86,1.57,1.57,1.57
1418,0.05,-1.59,0.06,-1.58,1.58,1.94,1.63,1.64,1.64
1432,0.05,-1.67,0.07,-1.64,1.64,2.03,1.69,1.71,1.71
1446,0.09,-1.70,0.08,-1.70,1.70,2.12,1.79,1.79,1.79
1461,0.09,-1.77,0.10,-1.76,1.76,2.21,1.85,1.86,1.86
1475,0.14,-1.80,0.12,-1.82,1.82,2.30,1.96,1.94,1.94
1490,0.14,-1.88,0.14,-1.88,1.88,2.40,2.01,2.01,2.01
1505,0.16,-1.93,0.16,-1.94,1.94,2.49,2.09,2.09,2.09
1520,0.19,-1.98,0.17,-2.00,2.00,2.59,2.19,2.17,2.17
1535,0.20,-2.06,0.19,-2.06,2.06,2.69,2.26,2.26,2.26
1550,0.23,-2.11,0.21,-2.13,2.13,2.78,2.36,2.34,2.34
1566,0.23,-2.20,0.23,-2.20,2.20,2.89,2.43,2.43,2.42
1582,0.23,-2.28,0.25,-2.27,2.27,2.99,2.49,2.51,2.51
1597,0.25,-2.35,0.27,-2.33,2.33,3.09,2.58,2.60,2.60
1613,0.28,-2.42,0.31,-2.39,2.39,3.19,2.67,2.70,2.70
1629,0.34,-2.45,0.34,-2.45,2.45,3.29,2.79,2.79,2.79
1646,0.39,-2.50,0.38,-2.51,2.51,3.39,2.90,2.89,2.89
1662,0.42,-2.57,0.43,-2.56,2.56,3.49,2.98,2.99,2.99
1679,0.47,-2.63,0.47,-2.62,2.62,3.59,3.09,3.09,3.09
