frequency,raw,error,smoothed,error_smoothed,equalization,parametric_eq,fixed_band_eq,equalized_raw,equalized_smoothed,target
20.00,-3.41,-7.51,-3.42,-7.52,6.00,5.10,1.78,2.59,2.58,4.10
20.20,-3.34,-7.47,-3.33,-7.46,6.00,5.20,1.83,2.66,2.67,4.13
20.40,-3.24,-7.40,-3.23,-7.39,6.00,5.31,1.88,2.76,2.77,4.16
20.61,-3.11,-7.29,-3.12,-7.31,6.00,5.45,1.94,2.89,2.88,4.18
20.81,-3.00,-7.21,-3.00,-7.21,6.00,5.58,2.00,3.00,3.00,4.21
21.02,-2.88,-7.12,-2.88,-7.11,6.00,5.75,2.06,3.12,3.12,4.24
21.23,-2.76,-7.01,-2.76,-7.01,6.00,5.92,2.12,3.24,3.24,4.25
21.44,-2.63,-6.89,-2.64,-6.90,6.00,6.11,2.18,3.37,3.36,4.26
21.66,-2.53,-6.80,-2.53,-6.80,6.00,6.29,2.25,3.47,3.47,4.27
21.87,-2.43,-6.70,-2.43,-6.70,6.01,6.47,2.32,3.58,3.58,4.27
22.09,-2.32,-6.60,-2.33,-6.60,6.01,6.63,2.39,3.69,3.69,4.28
22.31,-2.22,-6.50,-2.22,-6.49,6.02,6.73,2.46,3.80,3.80,4.28
22.54,-2.11,-6.39,-2.10,-6.38,6.02,6.82,2.53,3.91,3.92,4.27
22.76,-1.97,-6.25,-1.99,-6.26,6.01,6.79,2.60,4.04,4.02,4.27
22.99,-1.87,-6.14,-1.87,-6.14,5.98,6.75,2.68,4.11,4.11,4.26
23.22,-1.76,-6.03,-1.76,-6.03,5.94,6.60,2.76,4.18,4.17,4.26
23.45,-1.66,-5.92,-1.66,-5.92,5.88,6.44,2.84,4.22,4.22,4.26
23.69,-1.56,-5.82,-1.55,-5.81,5.80,6.21,2.92,4.24,4.25,4.26
23.92,-1.43,-5.69,-1.43,-5.70,5.71,5.99,3.00,4.28,4.28,4.26
24.16,-1.31,-5.58,-1.32,-5.58,5.61,5.75,3.09,4.30,4.29,4.27
24.40,-1.20,-5.47,-1.21,-5.47,5.49,5.51,3.17,4.29,4.29,4.27
24.65,-1.10,-5.36,-1.10,-5.36,5.37,5.29,3.26,4.27,4.27,4.26
24.89,-1.00,-5.26,-0.99,-5.25,5.25,5.08,3.35,4.25,4.26,4.26
25.14,-0.87,-5.13,-0.87,-5.13,5.13,4.89,3.44,4.26,4.25,4.26
25.39,-0.75,-5.01,-0.76,-5.02,5.01,4.71,3.52,4.26,4.25,4.25
25.65,-0.65,-4.91,-0.65,-4.90,4.90,4.56,3.61,4.24,4.25,4.25
25.91,-0.54,-4.79,-0.54,-4.78,4.78,4.40,3.70,4.24,4.25,4.24
26.16,-0.42,-4.66,-0.43,-4.67,4.67,4.27,3.79,4.25,4.24,4.24
26.43,-0.32,-4.56,-0.32,-4.56,4.56,4.15,3.88,4.24,4.25,4.24
26.69,-0.21,-4.45,-0.21,-4.45,4.46,4.04,3.96,4.25,4.25,4.24
26.96,-0.11,-4.35,-0.12,-4.36,4.36,3.93,4.05,4.24,4.24,4.24
27.23,-0.02,-4.26,-0.03,-4.26,4.26,3.84,4.13,4.23,4.23,4.24
27.50,0.06,-4.18,0.07,-4.16,4.16,3.75,4.21,4.22,4.23,4.24
27.77,0.16,-4.06,0.16,-4.07,4.07,3.67,4.28,4.23,4.22,4.22
28.05,0.26,-3.96,0.25,-3.97,3.98,3.59,4.35,4.23,4.22,4.22
28.33,0.32,-3.89,0.33,-3.88,3.89,3.52,4.42,4.20,4.22,4.21
28.62,0.42,-3.79,0.41,-3.80,3.80,3.45,4.48,4.21,4.21,4.21
28.90,0.49,-3.72,0.49,-3.71,3.71,3.38,4.54,4.20,4.21,4.21
29.19,0.59,-3.61,0.58,-3.63,3.63,3.32,4.59,4.21,4.20,4.20
29.48,0.65,-3.56,0.65,-3.55,3.54,3.26,4.63,4.19,4.20,4.20
29.78,0.73,-3.47,0.73,-3.46,3.46,3.20,4.67,4.19,4.19,4.19
30.08,0.81,-3.38,0.80,-3.39,3.38,3.14,4.69,4.19,4.19,4.19
30.38,0.88,-3.30,0.88,-3.30,3.31,3.08,4.72,4.18,4.18,4.18
30.68,0.95,-3.23,0.95,-3.23,3.23,3.03,4.73,4.18,4.18,4.18
30.99,1.02,-3.15,1.02,-3.15,3.15,2.98,4.73,4.17,4.17,4.16
31.30,1.09,-3.08,1.08,-3.08,3.07,2.92,4.73,4.16,4.16,4.16
31.61,1.15,-3.01,1.15,-3.00,3.00,2.87,4.72,4.15,4.15,4.16
31.93,1.22,-2.93,1.22,-2.93,2.93,2.82,4.69,4.14,4.15,4.15
32.24,1.29,-2.85,1.28,-2.86,2.86,2.77,4.66,4.15,4.14,4.14
32.57,1.35,-2.79,1.35,-2.78,2.79,2.72,4.62,4.14,4.14,4.13
32.89,1.41,-2.72,1.41,-2.72,2.73,2.67,4.58,4.14,4.14,4.13
33.22,1.47,-2.65,1.46,-2.66,2.66,2.62,4.52,4.13,4.12,4.12
33.55,1.51,-2.61,1.51,-2.60,2.60,2.57,4.46,4.11,4.11,4.11
33.89,1.56,-2.54,1.56,-2.54,2.54,2.52,4.39,4.09,4.10,4.10
34.23,1.61,-2.49,1.61,-2.48,2.47,2.47,4.32,4.08,4.09,4.10
34.57,1.68,-2.41,1.67,-2.42,2.41,2.42,4.24,4.09,4.08,4.09
34.92,1.73,-2.35,1.73,-2.35,2.35,2.38,4.16,4.08,4.08,4.07
35.27,1.78,-2.29,1.79,-2.28,2.28,2.32,4.07,4.06,4.07,4.07
35.62,1.85,-2.21,1.84,-2.21,2.22,2.27,3.97,4.07,4.06,4.06
35.97,1.90,-2.14,1.90,-2.15,2.16,2.22,3.88,4.05,4.05,4.04
36.33,1.95,-2.09,1.95,-2.09,2.09,2.17,3.78,4.04,4.04,4.04
36.70,1.99,-2.04,1.99,-2.03,2.03,2.12,3.68,4.02,4.02,4.02
37.06,2.04,-1.97,2.04,-1.97,1.97,2.07,3.57,4.01,4.01,4.01
37.43,2.10,-1.91,2.10,-1.90,1.90,2.02,3.47,4.00,4.00,4.01
37.81,2.16,-1.83,2.15,-1.84,1.84,1.96,3.36,4.00,4.00,3.99
38.19,2.21,-1.77,2.20,-1.78,1.78,1.91,3.25,3.98,3.98,3.98
38.57,2.25,-1.73,2.25,-1.72,1.71,1.85,3.15,3.96,3.96,3.97
38.95,2.30,-1.66,2.30,-1.65,1.65,1.80,3.04,3.95,3.95,3.96
39.34,2.36,-1.58,2.36,-1.59,1.59,1.74,2.93,3.94,3.94,3.94
39.74,2.42,-1.51,2.41,-1.52,1.52,1.68,2.82,3.94,3.94,3.93
40.14,2.47,-1.46,2.46,-1.46,1.46,1.62,2.72,3.93,3.93,3.92
40.54,2.51,-1.40,2.51,-1.40,1.40,1.57,2.61,3.91,3.91,3.91
40.94,2.55,-1.35,2.55,-1.35,1.35,1.51,2.51,3.89,3.90,3.90
41.35,2.60,-1.29,2.59,-1.29,1.29,1.44,2.40,3.89,3.88,3.88
41.76,2.64,-1.24,2.64,-1.24,1.23,1.38,2.30,3.87,3.88,3.88
42.18,2.69,-1.18,2.69,-1.18,1.18,1.32,2.20,3.87,3.87,3.87
42.60,2.74,-1.12,2.73,-1.13,1.13,1.26,2.10,3.86,3.86,3.86
43.03,2.77,-1.08,2.77,-1.07,1.07,1.19,2.00,3.84,3.84,3.85
43.46,2.81,-1.02,2.81,-1.02,1.02,1.13,1.90,3.83,3.83,3.83
43.90,2.85,-0.96,2.84,-0.96,0.96,1.06,1.80,3.81,3.81,3.80
44.33,2.88,-0.91,2.88,-0.91,0.91,1.00,1.71,3.79,3.79,3.79
44.78,2.91,-0.86,2.91,-0.86,0.86,0.93,1.61,3.77,3.77,3.77
45.23,2.94,-0.81,2.94,-0.81,0.81,0.87,1.52,3.75,3.75,3.75
45.68,2.97,-0.76,2.97,-0.76,0.76,0.80,1.43,3.73,3.73,3.73
46.13,3.01,-0.70,3.00,-0.71,0.72,0.73,1.34,3.73,3.72,3.71
46.60,3.03,-0.68,3.03,-0.67,0.68,0.67,1.25,3.70,3.70,3.70
47.06,3.05,-0.64,3.05,-0.63,0.63,0.60,1.16,3.68,3.68,3.68
47.53,3.08,-0.59,3.07,-0.60,0.59,0.54,1.07,3.67,3.66,3.66
48.01,3.09,-0.57,3.10,-0.55,0.54,0.48,0.99,3.63,3.64,3.65
48.49,3.12,-0.50,3.11,-0.51,0.50,0.42,0.91,3.62,3.61,3.62
48.97,3.14,-0.45,3.13,-0.46,0.46,0.36,0.82,3.59,3.59,3.59
49.46,3.14,-0.42,3.15,-0.41,0.41,0.30,0.74,3.55,3.56,3.56
49.96,3.18,-0.35,3.17,-0.37,0.37,0.24,0.66,3.55,3.54,3.53
50.46,3.18,-0.34,3.19,-0.33,0.33,0.19,0.59,3.51,3.52,3.52
50.96,3.21,-0.29,3.20,-0.28,0.29,0.14,0.51,3.50,3.50,3.49
51.47,3.22,-0.24,3.21,-0.25,0.25,0.09,0.43,3.47,3.47,3.46
51.99,3.22,-0.22,3.22,-0.22,0.22,0.05,0.36,3.44,3.44,3.44
52.51,3.22,-0.20,3.22,-0.19,0.18,0.01,0.29,3.40,3.41,3.42
53.03,3.24,-0.16,3.23,-0.16,0.15,-0.03,0.22,3.39,3.39,3.40
53.56,3.25,-0.13,3.25,-0.13,0.12,-0.06,0.15,3.37,3.37,3.37
54.10,3.26,-0.09,3.26,-0.09,0.10,-0.09,0.08,3.35,3.36,3.35
54.64,3.27,-0.05,3.27,-0.05,0.07,-0.11,0.02,3.34,3.34,3.32
55.18,3.27,-0.03,3.26,-0.04,0.05,-0.14,-0.05,3.31,3.31,3.30
55.74,3.25,-0.02,3.25,-0.03,0.03,-0.15,-0.11,3.27,3.27,3.27
56.29,3.22,-0.03,3.23,-0.02,0.01,-0.17,-0.17,3.23,3.24,3.25
56.86,3.22,-0.01,3.22,-0.00,-0.01,-0.18,-0.23,3.21,3.21,3.22
57.42,3.22,0.02,3.22,0.02,-0.02,-0.19,-0.28,3.20,3.20,3.19
58.00,3.22,0.04,3.21,0.04,-0.03,-0.20,-0.34,3.19,3.18,3.17
58.58,3.20,0.04,3.20,0.04,-0.04,-0.21,-0.39,3.16,3.16,3.15
59.16,3.18,0.04,3.19,0.06,-0.05,-0.21,-0.44,3.12,3.13,3.13
59.76,3.18,0.06,3.17,0.06,-0.07,-0.21,-0.48,3.11,3.10,3.11
60.35,3.18,0.10,3.16,0.08,-0.09,-0.21,-0.52,3.09,3.08,3.08
60.96,3.14,0.08,3.15,0.10,-0.10,-0.21,-0.56,3.04,3.05,3.06
61.57,3.14,0.12,3.14,0.12,-0.12,-0.21,-0.60,3.02,3.02,3.02
62.18,3.14,0.16,3.12,0.14,-0.14,-0.21,-0.64,3.00,2.99,2.98
62.80,3.11,0.15,3.11,0.16,-0.15,-0.21,-0.67,2.96,2.96,2.96
63.43,3.09,0.17,3.10,0.17,-0.17,-0.21,-0.70,2.92,2.93,2.92
64.07,3.09,0.19,3.09,0.19,-0.19,-0.21,-0.73,2.90,2.90,2.90
64.71,3.09,0.22,3.08,0.21,-0.20,-0.21,-0.76,2.88,2.87,2.87
65.35,3.06,0.22,3.06,0.22,-0.22,-0.21,-0.78,2.83,2.84,2.84
66.01,3.05,0.23,3.05,0.24,-0.25,-0.21,-0.80,2.80,2.81,2.81
66.67,3.05,0.26,3.05,0.26,-0.27,-0.22,-0.82,2.78,2.78,2.79
67.33,3.05,0.29,3.05,0.29,-0.29,-0.22,-0.83,2.75,2.75,2.76
68.01,3.05,0.32,3.05,0.32,-0.32,-0.22,-0.85,2.73,2.73,2.73
68.69,3.05,0.35,3.05,0.35,-0.35,-0.23,-0.86,2.70,2.70,2.69
69.37,3.05,0.39,3.05,0.39,-0.38,-0.24,-0.87,2.66,2.66,2.66
70.07,3.05,0.42,3.05,0.42,-0.42,-0.25,-0.88,2.63,2.63,2.63
70.77,3.05,0.44,3.05,0.45,-0.45,-0.26,-0.89,2.60,2.60,2.61
71.48,3.05,0.48,3.05,0.48,-0.48,-0.27,-0.90,2.57,2.57,2.57
72.19,3.05,0.51,3.05,0.51,-0.51,-0.28,-0.91,2.54,2.54,2.54
72.91,3.05,0.55,3.04,0.54,-0.54,-0.29,-0.92,2.51,2.50,2.50
73.64,3.03,0.56,3.03,0.57,-0.57,-0.31,-0.92,2.46,2.46,2.46
74.38,3.02,0.58,3.02,0.59,-0.59,-0.33,-0.93,2.43,2.43,2.44
75.12,3.01,0.61,3.01,0.61,-0.61,-0.34,-0.93,2.39,2.40,2.40
75.87,3.01,0.64,3.00,0.63,-0.63,-0.36,-0.94,2.38,2.37,2.37
76.63,2.99,0.65,2.98,0.65,-0.65,-0.38,-0.94,2.34,2.34,2.34
77.40,2.96,0.65,2.96,0.66,-0.66,-0.41,-0.94,2.30,2.31,2.31
78.17,2.93,0.66,2.93,0.66,-0.66,-0.43,-0.95,2.27,2.27,2.26
78.95,2.92,0.68,2.91,0.67,-0.67,-0.45,-0.95,2.25,2.24,2.24
79.74,2.87,0.66,2.87,0.67,-0.66,-0.48,-0.96,2.20,2.21,2.21
80.54,2.84,0.66,2.84,0.66,-0.66,-0.51,-0.96,2.18,2.18,2.17
81.35,2.79,0.65,2.79,0.65,-0.65,-0.53,-0.97,2.13,2.14,2.14
82.16,2.76,0.65,2.75,0.65,-0.65,-0.56,-0.98,2.11,2.11,2.10
82.98,2.71,0.63,2.70,0.63,-0.64,-0.59,-0.98,2.07,2.07,2.08
83.81,2.66,0.63,2.66,0.63,-0.63,-0.62,-0.99,2.03,2.04,2.03
84.65,2.61,0.62,2.61,0.61,-0.61,-0.65,-1.00,1.99,2.00,1.99
85.50,2.58,0.61,2.57,0.61,-0.61,-0.68,-1.01,1.97,1.96,1.96
86.35,2.52,0.59,2.52,0.60,-0.60,-0.72,-1.02,1.92,1.92,1.92
87.22,2.49,0.60,2.48,0.59,-0.60,-0.75,-1.03,1.89,1.88,1.89
88.09,2.44,0.59,2.44,0.59,-0.60,-0.78,-1.04,1.84,1.84,1.84
88.97,2.41,0.59,2.41,0.60,-0.61,-0.82,-1.05,1.80,1.80,1.81
89.86,2.40,0.63,2.38,0.61,-0.62,-0.85,-1.07,1.77,1.76,1.77
90.76,2.36,0.64,2.37,0.65,-0.64,-0.89,-1.08,1.72,1.73,1.72
91.66,2.36,0.67,2.36,0.67,-0.66,-0.93,-1.10,1.69,1.69,1.69
92.58,2.36,0.72,2.34,0.70,-0.69,-0.96,-1.11,1.66,1.64,1.63
93.51,2.31,0.71,2.32,0.72,-0.73,-1.00,-1.13,1.58,1.60,1.60
94.44,2.31,0.75,2.31,0.76,-0.76,-1.04,-1.15,1.54,1.55,1.56
95.39,2.31,0.80,2.30,0.79,-0.80,-1.08,-1.16,1.50,1.50,1.51
96.34,2.31,0.85,2.31,0.85,-0.85,-1.11,-1.18,1.46,1.46,1.46
97.30,2.31,0.90,2.31,0.89,-0.89,-1.15,-1.20,1.42,1.42,1.41
98.28,2.31,0.94,2.31,0.94,-0.94,-1.19,-1.22,1.37,1.37,1.37
99.26,2.31,0.99,2.31,0.99,-0.98,-1.23,-1.24,1.33,1.33,1.32
100.25,2.31,1.03,2.31,1.03,-1.03,-1.27,-1.27,1.28,1.28,1.28
101.25,2.31,1.08,2.30,1.07,-1.07,-1.30,-1.29,1.24,1.23,1.23
102.27,2.29,1.10,2.30,1.12,-1.11,-1.34,-1.31,1.18,1.18,1.18
103.29,2.29,1.16,2.29,1.15,-1.15,-1.38,-1.34,1.14,1.14,1.13
104.32,2.29,1.20,2.28,1.19,-1.19,-1.42,-1.36,1.09,1.09,1.09
105.37,2.27,1.22,2.27,1.23,-1.23,-1.45,-1.38,1.03,1.04,1.04
106.42,2.27,1.27,2.27,1.27,-1.28,-1.49,-1.41,0.99,0.99,1.00
107.48,2.27,1.32,2.27,1.32,-1.32,-1.53,-1.43,0.95,0.95,0.95
108.56,2.27,1.37,2.27,1.37,-1.37,-1.56,-1.46,0.90,0.90,0.90
109.64,2.27,1.42,2.27,1.42,-1.41,-1.60,-1.48,0.85,0.85,0.85
110.74,2.27,1.46,2.27,1.47,-1.47,-1.63,-1.51,0.80,0.80,0.80
111.85,2.27,1.51,2.27,1.52,-1.52,-1.67,-1.53,0.75,0.75,0.76
112.97,2.27,1.58,2.27,1.57,-1.57,-1.70,-1.55,0.70,0.70,0.69
114.10,2.27,1.62,2.27,1.62,-1.63,-1.74,-1.58,0.64,0.64,0.65
115.24,2.27,1.68,2.27,1.68,-1.68,-1.77,-1.60,0.59,0.59,0.59
116.39,2.27,1.73,2.27,1.73,-1.73,-1.80,-1.62,0.54,0.54,0.54
117.55,2.27,1.78,2.27,1.79,-1.78,-1.83,-1.64,0.49,0.49,0.48
118.73,2.27,1.84,2.27,1.83,-1.83,-1.86,-1.67,0.44,0.44,0.43
119.92,2.27,1.88,2.26,1.87,-1.87,-1.90,-1.69,0.40,0.39,0.39
121.12,2.24,1.90,2.24,1.91,-1.91,-1.93,-1.70,0.33,0.33,0.33
122.33,2.23,1.95,2.24,1.95,-1.95,-1.95,-1.72,0.28,0.28,0.28
123.55,2.23,1.99,2.23,1.99,-1.99,-1.98,-1.74,0.24,0.23,0.24
124.79,2.23,2.04,2.22,2.03,-2.03,-2.01,-1.76,0.20,0.19,0.19
126.03,2.20,2.06,2.20,2.06,-2.07,-2.04,-1.77,0.13,0.13,0.14
127.29,2.18,2.09,2.19,2.10,-2.11,-2.07,-1.79,0.07,0.08,0.09
128.57,2.18,2.15,2.18,2.14,-2.14,-2.10,-1.80,0.03,0.03,0.03
129.85,2.18,2.20,2.17,2.19,-2.18,-2.12,-1.81,-0.01,-0.02,-0.02
131.15,2.16,2.23,2.16,2.23,-2.22,-2.15,-1.82,-0.06,-0.06,-0.07
132.46,2.14,2.25,2.15,2.26,-2.26,-2.18,-1.84,-0.12,-0.11,-0.12
133.79,2.14,2.29,2.14,2.29,-2.30,-2.20,-1.85,-0.16,-0.16,-0.15
135.12,2.14,2.35,2.13,2.33,-2.33,-2.23,-1.86,-0.19,-0.21,-0.21
136.48,2.11,2.35,2.12,2.36,-2.36,-2.26,-1.87,-0.26,-0.25,-0.24
137.84,2.10,2.38,2.10,2.40,-2.39,-2.28,-1.87,-0.30,-0.29,-0.29
139.22,2.10,2.44,2.09,2.42,-2.42,-2.31,-1.88,-0.32,-0.33,-0.34
140.61,2.08,2.46,2.08,2.45,-2.45,-2.33,-1.89,-0.37,-0.37,-0.38
142.02,2.05,2.45,2.06,2.47,-2.47,-2.36,-1.90,-0.42,-0.41,-0.41
143.44,2.05,2.49,2.04,2.49,-2.49,-2.39,-1.91,-0.44,-0.45,-0.45
144.87,2.01,2.49,2.02,2.50,-2.51,-2.41,-1.92,-0.50,-0.49,-0.49
146.32,2.01,2.53,2.00,2.53,-2.53,-2.44,-1.93,-0.52,-0.52,-0.53
147.78,1.98,2.53,1.98,2.54,-2.54,-2.47,-1.94,-0.56,-0.56,-0.56
149.26,1.97,2.56,1.96,2.56,-2.56,-2.50,-1.95,-0.59,-0.59,-0.59
150.75,1.93,2.57,1.94,2.57,-2.57,-2.53,-1.96,-0.64,-0.63,-0.64
152.26,1.92,2.59,1.91,2.58,-2.58,-2.56,-1.98,-0.67,-0.68,-0.68
153.78,1.88,2.59,1.88,2.59,-2.60,-2.59,-1.99,-0.72,-0.72,-0.71
155.32,1.84,2.59,1.85,2.61,-2.61,-2.61,-2.01,-0.77,-0.75,-0.76
156.88,1.84,2.63,1.82,2.61,-2.62,-2.64,-2.02,-0.78,-0.80,-0.79
158.44,1.79,2.62,1.79,2.63,-2.63,-2.67,-2.04,-0.84,-0.83,-0.83
160.03,1.76,2.63,1.76,2.64,-2.63,-2.71,-2.06,-0.88,-0.87,-0.88
161.63,1.73,2.65,1.72,2.64,-2.64,-2.74,-2.08,-0.91,-0.92,-0.92
163.24,1.70,2.66,1.69,2.65,-2.65,-2.77,-2.10,-0.95,-0.95,-0.96
164.88,1.66,2.65,1.66,2.66,-2.66,-2.80,-2.13,-1.00,-0.99,-0.99
166.53,1.64,2.67,1.63,2.66,-2.66,-2.83,-2.15,-1.02,-1.03,-1.03
168.19,1.61,2.67,1.61,2.67,-2.67,-2.86,-2.18,-1.06,-1.06,-1.07
169.87,1.58,2.68,1.58,2.68,-2.68,-2.89,-2.21,-1.10,-1.10,-1.10
171.57,1.55,2.69,1.55,2.69,-2.69,-2.92,-2.24,-1.14,-1.14,-1.14
173.29,1.53,2.70,1.52,2.70,-2.71,-2.95,-2.27,-1.18,-1.19,-1.18
175.02,1.49,2.70,1.50,2.72,-2.72,-2.98,-2.31,-1.24,-1.22,-1.21
176.77,1.49,2.74,1.49,2.74,-2.75,-3.01,-2.34,-1.26,-1.26,-1.26
178.54,1.49,2.79,1.48,2.77,-2.77,-3.03,-2.38,-1.29,-1.30,-1.30
180.32,1.47,2.80,1.47,2.81,-2.80,-3.06,-2.42,-1.34,-1.33,-1.33
182.13,1.47,2.83,1.47,2.84,-2.84,-3.09,-2.46,-1.37,-1.37,-1.37
183.95,1.47,2.88,1.46,2.87,-2.88,-3.12,-2.51,-1.41,-1.41,-1.41
185.79,1.47,2.91,1.47,2.91,-2.91,-3.14,-2.55,-1.45,-1.45,-1.44
187.65,1.47,2.95,1.47,2.95,-2.95,-3.17,-2.60,-1.48,-1.48,-1.48
189.52,1.49,3.00,1.48,2.99,-2.99,-3.19,-2.65,-1.50,-1.51,-1.51
191.42,1.49,3.03,1.49,3.03,-3.02,-3.21,-2.70,-1.53,-1.53,-1.54
193.33,1.49,3.06,1.49,3.06,-3.05,-3.23,-2.75,-1.56,-1.56,-1.57
195.27,1.49,3.08,1.49,3.09,-3.08,-3.26,-2.80,-1.59,-1.59,-1.60
197.22,1.49,3.11,1.48,3.11,-3.11,-3.28,-2.85,-1.62,-1.63,-1.62
199.19,1.47,3.13,1.47,3.13,-3.13,-3.30,-2.91,-1.66,-1.66,-1.66
201.18,1.47,3.15,1.47,3.15,-3.15,-3.31,-2.97,-1.69,-1.68,-1.68
203.19,1.47,3.16,1.47,3.17,-3.17,-3.33,-3.02,-1.71,-1.70,-1.69
205.23,1.49,3.21,1.48,3.19,-3.19,-3.35,-3.08,-1.71,-1.71,-1.72
207.28,1.49,3.21,1.49,3.22,-3.21,-3.36,-3.14,-1.73,-1.73,-1.73
209.35,1.49,3.24,1.49,3.24,-3.23,-3.38,-3.20,-1.75,-1.75,-1.75
211.44,1.49,3.26,1.49,3.26,-3.26,-3.39,-3.25,-1.77,-1.77,-1.77
213.56,1.49,3.27,1.50,3.28,-3.28,-3.40,-3.31,-1.79,-1.78,-1.78
215.69,1.53,3.31,1.51,3.30,-3.31,-3.42,-3.37,-1.78,-1.79,-1.78
217.85,1.53,3.32,1.53,3.33,-3.33,-3.43,-3.42,-1.81,-1.80,-1.79
220.03,1.56,3.36,1.56,3.36,-3.36,-3.44,-3.48,-1.81,-1.81,-1.81
222.23,1.59,3.41,1.58,3.40,-3.40,-3.45,-3.53,-1.81,-1.82,-1.82
224.45,1.62,3.43,1.62,3.44,-3.44,-3.46,-3.58,-1.82,-1.82,-1.81
226.70,1.67,3.48,1.67,3.48,-3.48,-3.46,-3.63,-1.82,-1.82,-1.81
228.96,1.71,3.52,1.71,3.52,-3.53,-3.47,-3.67,-1.82,-1.82,-1.81
231.25,1.77,3.57,1.76,3.57,-3.57,-3.47,-3.72,-1.80,-1.81,-1.80
233.57,1.80,3.60,1.81,3.61,-3.60,-3.48,-3.76,-1.81,-1.80,-1.80
235.90,1.85,3.65,1.84,3.64,-3.63,-3.48,-3.79,-1.79,-1.79,-1.80
238.26,1.88,3.68,1.87,3.67,-3.66,-3.49,-3.82,-1.78,-1.79,-1.80
240.64,1.88,3.67,1.89,3.68,-3.67,-3.49,-3.85,-1.79,-1.78,-1.79
243.05,1.90,3.68,1.89,3.67,-3.67,-3.49,-3.87,-1.77,-1.78,-1.78
245.48,1.90,3.66,1.89,3.66,-3.66,-3.49,-3.89,-1.76,-1.77,-1.77
247.93,1.88,3.63,1.89,3.64,-3.64,-3.49,-3.90,-1.76,-1.75,-1.76
250.41,1.88,3.63,1.87,3.62,-3.61,-3.49,-3.91,-1.73,-1.74,-1.75
252.92,1.85,3.58,1.85,3.58,-3.58,-3.49,-3.91,-1.73,-1.73,-1.73
255.45,1.84,3.55,1.83,3.54,-3.55,-3.49,-3.91,-1.71,-1.72,-1.71
258.00,1.79,3.48,1.81,3.50,-3.51,-3.48,-3.91,-1.72,-1.70,-1.70
260.58,1.79,3.47,1.79,3.47,-3.47,-3.48,-3.90,-1.69,-1.69,-1.68
263.19,1.79,3.45,1.77,3.43,-3.44,-3.48,-3.88,-1.65,-1.67,-1.66
265.82,1.75,3.39,1.76,3.40,-3.40,-3.47,-3.86,-1.65,-1.64,-1.64
268.48,1.75,3.37,1.75,3.37,-3.37,-3.47,-3.84,-1.62,-1.62,-1.62
271.16,1.75,3.34,1.74,3.34,-3.34,-3.46,-3.81,-1.59,-1.60,-1.60
273.87,1.75,3.33,1.73,3.31,-3.31,-3.45,-3.79,-1.56,-1.58,-1.58
276.61,1.71,3.27,1.72,3.28,-3.28,-3.45,-3.75,-1.57,-1.56,-1.56
279.38,1.71,3.25,1.71,3.25,-3.25,-3.44,-3.72,-1.55,-1.54,-1.54
282.17,1.71,3.24,1.70,3.23,-3.23,-3.43,-3.68,-1.52,-1.52,-1.53
284.99,1.71,3.21,1.71,3.21,-3.20,-3.42,-3.65,-1.50,-1.50,-1.50
287.84,1.71,3.20,1.70,3.19,-3.19,-3.41,-3.61,-1.48,-1.48,-1.49
290.72,1.71,3.17,1.71,3.17,-3.17,-3.40,-3.57,-1.47,-1.47,-1.46
293.63,1.71,3.15,1.71,3.16,-3.17,-3.39,-3.52,-1.46,-1.46,-1.45
296.57,1.74,3.16,1.73,3.16,-3.17,-3.38,-3.48,-1.44,-1.44,-1.42
299.53,1.77,3.17,1.77,3.17,-3.19,-3.37,-3.44,-1.42,-1.41,-1.41
302.53,1.82,3.21,1.82,3.20,-3.20,-3.36,-3.40,-1.39,-1.39,-1.39
305.55,1.88,3.23,1.87,3.24,-3.23,-3.35,-3.36,-1.35,-1.36,-1.35
308.61,1.94,3.27,1.94,3.27,-3.27,-3.33,-3.32,-1.33,-1.33,-1.34
311.69,2.00,3.31,2.00,3.31,-3.31,-3.32,-3.28,-1.31,-1.31,-1.31
314.81,2.07,3.34,2.07,3.35,-3.35,-3.31,-3.24,-1.28,-1.28,-1.27
317.96,2.14,3.39,2.14,3.39,-3.39,-3.29,-3.20,-1.26,-1.26,-1.26
321.14,2.21,3.45,2.20,3.44,-3.44,-3.28,-3.17,-1.23,-1.24,-1.24
324.35,2.25,3.47,2.26,3.48,-3.47,-3.26,-3.14,-1.23,-1.21,-1.22
327.59,2.32,3.51,2.31,3.51,-3.51,-3.25,-3.10,-1.19,-1.20,-1.20
330.87,2.37,3.55,2.36,3.54,-3.54,-3.23,-3.07,-1.17,-1.18,-1.18
334.18,2.40,3.56,2.41,3.57,-3.56,-3.21,-3.05,-1.16,-1.15,-1.16
337.52,2.44,3.58,2.44,3.58,-3.57,-3.20,-3.02,-1.14,-1.13,-1.14
340.90,2.48,3.59,2.47,3.59,-3.58,-3.18,-3.00,-1.11,-1.12,-1.12
344.30,2.49,3.59,2.49,3.58,-3.59,-3.16,-2.98,-1.10,-1.10,-1.10
347.75,2.49,3.57,2.50,3.58,-3.58,-3.14,-2.96,-1.10,-1.09,-1.08
351.23,2.51,3.57,2.51,3.57,-3.58,-3.13,-2.94,-1.07,-1.07,-1.06
354.74,2.53,3.57,2.52,3.57,-3.56,-3.11,-2.93,-1.04,-1.04,-1.05
358.28,2.53,3.56,2.53,3.55,-3.55,-3.09,-2.92,-1.02,-1.02,-1.03
361.87,2.53,3.54,2.52,3.53,-3.53,-3.07,-2.91,-1.00,-1.01,-1.01
365.49,2.51,3.50,2.51,3.51,-3.51,-3.05,-2.90,-1.01,-1.00,-0.99
369.14,2.51,3.49,2.51,3.49,-3.50,-3.03,-2.89,-0.99,-0.99,-0.98
372.83,2.51,3.47,2.51,3.47,-3.48,-3.01,-2.89,-0.97,-0.97,-0.97
376.56,2.51,3.47,2.51,3.46,-3.46,-2.99,-2.89,-0.95,-0.95,-0.96
380.33,2.51,3.44,2.51,3.44,-3.45,-2.97,-2.89,-0.94,-0.94,-0.93
384.13,2.51,3.43,2.51,3.43,-3.43,-2.95,-2.90,-0.92,-0.92,-0.92
387.97,2.51,3.42,2.51,3.42,-3.42,-2.93,-2.90,-0.91,-0.91,-0.91
391.85,2.51,3.41,2.51,3.41,-3.40,-2.90,-2.91,-0.90,-0.90,-0.90
395.77,2.51,3.39,2.50,3.39,-3.39,-2.88,-2.92,-0.88,-0.89,-0.89
399.73,2.50,3.37,2.50,3.38,-3.38,-2.86,-2.93,-0.88,-0.88,-0.88
403.72,2.49,3.36,2.49,3.36,-3.36,-2.84,-2.94,-0.88,-0.87,-0.87
407.76,2.49,3.35,2.49,3.34,-3.35,-2.81,-2.95,-0.86,-0.86,-0.86
411.84,2.49,3.33,2.49,3.33,-3.33,-2.79,-2.96,-0.84,-0.84,-0.84
415.96,2.49,3.32,2.48,3.31,-3.31,-2.77,-2.98,-0.82,-0.83,-0.83
420.12,2.48,3.30,2.47,3.29,-3.29,-2.74,-2.99,-0.81,-0.82,-0.82
424.32,2.44,3.25,2.46,3.27,-3.27,-2.72,-3.01,-0.83,-0.82,-0.81
428.56,2.44,3.24,2.44,3.24,-3.25,-2.70,-3.02,-0.81,-0.81,-0.81
432.85,2.44,3.23,2.42,3.22,-3.23,-2.67,-3.04,-0.79,-0.80,-0.80
437.18,2.40,3.19,2.41,3.20,-3.20,-2.65,-3.05,-0.80,-0.79,-0.79
441.55,2.40,3.17,2.39,3.17,-3.17,-2.62,-3.06,-0.78,-0.78,-0.77
445.96,2.38,3.14,2.37,3.13,-3.14,-2.60,-3.08,-0.76,-0.77,-0.76
450.42,2.35,3.10,2.35,3.10,-3.10,-2.57,-3.09,-0.75,-0.75,-0.75
454.93,2.32,3.05,2.32,3.05,-3.05,-2.55,-3.10,-0.73,-0.73,-0.73
459.48,2.27,2.99,2.27,2.99,-2.98,-2.52,-3.10,-0.72,-0.71,-0.72
464.07,2.22,2.92,2.22,2.92,-2.90,-2.49,-3.11,-0.68,-0.68,-0.70
468.71,2.14,2.82,2.13,2.82,-2.79,-2.47,-3.11,-0.65,-0.66,-0.68
473.40,2.03,2.70,2.02,2.69,-2.66,-2.44,-3.11,-0.64,-0.64,-0.67
478.13,1.88,2.53,1.89,2.54,-2.52,-2.41,-3.10,-0.64,-0.63,-0.65
482.91,1.74,2.38,1.73,2.37,-2.36,-2.39,-3.10,-0.62,-0.63,-0.65
487.74,1.57,2.19,1.57,2.19,-2.19,-2.36,-3.09,-0.62,-0.62,-0.63
492.62,1.41,2.01,1.41,2.02,-2.02,-2.33,-3.07,-0.61,-0.61,-0.61
497.55,1.25,1.85,1.25,1.85,-1.86,-2.31,-3.05,-0.61,-0.61,-0.60
502.52,1.12,1.70,1.12,1.70,-1.72,-2.28,-3.03,-0.60,-0.60,-0.58
507.55,1.02,1.59,1.02,1.58,-1.61,-2.25,-3.01,-0.59,-0.60,-0.57
512.62,0.95,1.50,0.95,1.50,-1.54,-2.22,-2.98,-0.59,-0.59,-0.55
