frequency,raw,smoothed,error,error_smoothed,equalization,parametric_eq,fixed_band_eq,equalized_raw,equalized_smoothed,target
20.00,3.81,3.81,-4.38,-4.38,4.39,4.13,1.78,8.20,8.20,8.19
20.20,3.82,3.82,-4.37,-4.37,4.37,4.13,1.83,8.20,8.19,8.19
20.40,3.82,3.82,-4.37,-4.36,4.36,4.12,1.88,8.18,8.19,8.19
20.61,3.83,3.83,-4.36,-4.35,4.35,4.12,1.94,8.18,8.18,8.19
20.81,3.84,3.84,-4.34,-4.34,4.34,4.12,1.99,8.18,8.18,8.19
21.02,3.86,3.86,-4.32,-4.33,4.32,4.11,2.05,8.18,8.18,8.19
21.23,3.87,3.87,-4.31,-4.31,4.31,4.11,2.11,8.18,8.18,8.19
21.44,3.89,3.89,-4.29,-4.29,4.29,4.11,2.18,8.18,8.18,8.19
21.66,3.91,3.91,-4.27,-4.27,4.27,4.10,2.24,8.18,8.18,8.18
21.87,3.93,3.93,-4.25,-4.25,4.25,4.10,2.31,8.18,8.19,8.18
22.09,3.95,3.95,-4.23,-4.23,4.23,4.09,2.37,8.19,8.19,8.18
22.31,3.97,3.97,-4.21,-4.21,4.22,4.09,2.44,8.19,8.19,8.18
22.54,3.98,3.98,-4.20,-4.20,4.20,4.09,2.51,8.18,8.18,8.18
22.76,3.99,3.99,-4.19,-4.19,4.19,4.08,2.59,8.18,8.18,8.18
22.99,4.00,4.00,-4.18,-4.18,4.18,4.08,2.66,8.18,8.18,8.18
23.22,4.01,4.01,-4.17,-4.17,4.17,4.07,2.74,8.18,8.18,8.18
23.45,4.02,4.02,-4.15,-4.16,4.16,4.07,2.82,8.18,8.18,8.18
23.69,4.02,4.03,-4.15,-4.15,4.15,4.06,2.90,8.17,8.17,8.18
23.92,4.03,4.03,-4.14,-4.14,4.14,4.06,2.98,8.17,8.17,8.17
24.16,4.04,4.04,-4.13,-4.13,4.13,4.05,3.06,8.17,8.17,8.17
24.40,4.05,4.05,-4.12,-4.12,4.12,4.05,3.15,8.17,8.17,8.17
24.65,4.06,4.06,-4.11,-4.11,4.11,4.04,3.23,8.17,8.17,8.17
24.89,4.07,4.08,-4.10,-4.09,4.09,4.04,3.32,8.17,8.17,8.17
25.14,4.09,4.09,-4.08,-4.08,4.08,4.03,3.40,8.17,8.17,8.17
25.39,4.10,4.10,-4.06,-4.07,4.07,4.03,3.49,8.17,8.17,8.17
25.65,4.11,4.11,-4.05,-4.05,4.06,4.02,3.58,8.17,8.17,8.17
25.91,4.12,4.12,-4.04,-4.04,4.04,4.01,3.67,8.16,8.16,8.16
26.16,4.13,4.13,-4.03,-4.03,4.03,4.01,3.76,8.16,8.16,8.16
26.43,4.15,4.15,-4.01,-4.01,4.01,4.00,3.84,8.16,8.16,8.16
26.69,4.16,4.16,-4.00,-3.99,3.99,4.00,3.93,8.15,8.16,8.16
26.96,4.18,4.18,-3.98,-3.97,3.97,3.99,4.01,8.15,8.15,8.16
27.23,4.20,4.20,-3.95,-3.95,3.95,3.98,4.10,8.15,8.15,8.16
27.50,4.22,4.22,-3.93,-3.93,3.93,3.98,4.18,8.15,8.15,8.15
27.77,4.24,4.24,-3.91,-3.91,3.91,3.97,4.25,8.15,8.15,8.15
28.05,4.26,4.26,-3.89,-3.89,3.89,3.96,4.33,8.15,8.15,8.15
28.33,4.28,4.28,-3.87,-3.87,3.87,3.96,4.40,8.15,8.15,8.15
28.62,4.29,4.29,-3.85,-3.85,3.86,3.95,4.47,8.15,8.15,8.15
28.90,4.30,4.30,-3.84,-3.84,3.84,3.94,4.53,8.14,8.15,8.14
29.19,4.31,4.31,-3.83,-3.83,3.83,3.94,4.59,8.14,8.14,8.14
29.48,4.32,4.32,-3.82,-3.82,3.82,3.93,4.64,8.14,8.14,8.14
29.78,4.32,4.33,-3.81,-3.81,3.81,3.92,4.69,8.13,8.14,8.14
30.08,4.33,4.33,-3.80,-3.80,3.80,3.91,4.72,8.14,8.13,8.13
30.38,4.33,4.33,-3.80,-3.80,3.80,3.91,4.76,8.13,8.13,8.13
30.68,4.33,4.34,-3.80,-3.79,3.79,3.90,4.78,8.12,8.13,8.13
30.99,4.34,4.34,-3.78,-3.79,3.78,3.89,4.81,8.12,8.12,8.12
31.30,4.34,4.34,-3.78,-3.78,3.77,3.88,4.82,8.12,8.12,8.12
31.61,4.35,4.35,-3.77,-3.77,3.76,3.87,4.82,8.12,8.12,8.12
31.93,4.36,4.36,-3.75,-3.75,3.75,3.86,4.82,8.12,8.12,8.12
32.24,4.37,4.37,-3.74,-3.74,3.74,3.86,4.81,8.12,8.11,8.11
32.57,4.37,4.38,-3.74,-3.73,3.73,3.85,4.80,8.11,8.11,8.11
32.89,4.38,4.38,-3.72,-3.72,3.72,3.84,4.78,8.11,8.11,8.10
33.22,4.39,4.39,-3.71,-3.71,3.71,3.83,4.75,8.10,8.10,8.10
33.55,4.39,4.40,-3.70,-3.70,3.70,3.82,4.72,8.10,8.10,8.10
33.89,4.40,4.40,-3.69,-3.69,3.70,3.81,4.68,8.10,8.09,8.09
34.23,4.40,4.40,-3.69,-3.69,3.69,3.80,4.64,8.09,8.09,8.09
34.57,4.40,4.41,-3.68,-3.68,3.68,3.79,4.59,8.08,8.09,8.08
34.92,4.41,4.41,-3.67,-3.67,3.67,3.78,4.54,8.08,8.08,8.08
35.27,4.41,4.41,-3.66,-3.66,3.66,3.77,4.48,8.07,8.07,8.08
35.62,4.41,4.42,-3.66,-3.65,3.65,3.76,4.43,8.06,8.07,8.07
35.97,4.42,4.42,-3.64,-3.64,3.64,3.74,4.37,8.06,8.06,8.07
36.33,4.43,4.43,-3.63,-3.63,3.62,3.73,4.31,8.06,8.06,8.06
36.70,4.44,4.45,-3.61,-3.61,3.61,3.72,4.25,8.05,8.05,8.05
37.06,4.46,4.46,-3.59,-3.59,3.59,3.71,4.18,8.05,8.05,8.05
37.43,4.47,4.47,-3.57,-3.57,3.57,3.70,4.12,8.04,8.04,8.04
37.81,4.48,4.49,-3.55,-3.55,3.55,3.69,4.06,8.03,8.04,8.04
38.19,4.50,4.50,-3.53,-3.53,3.53,3.67,3.99,8.04,8.03,8.03
38.57,4.51,4.51,-3.51,-3.51,3.52,3.66,3.93,8.03,8.03,8.02
38.95,4.51,4.52,-3.50,-3.50,3.50,3.65,3.87,8.02,8.02,8.02
39.34,4.52,4.52,-3.49,-3.49,3.49,3.63,3.81,8.01,8.01,8.01
39.74,4.52,4.52,-3.48,-3.48,3.48,3.62,3.75,8.00,8.00,8.00
40.14,4.52,4.52,-3.47,-3.47,3.47,3.61,3.69,7.99,8.00,8.00
40.54,4.52,4.52,-3.47,-3.47,3.46,3.59,3.64,7.99,7.99,7.99
40.94,4.52,4.52,-3.46,-3.46,3.45,3.58,3.58,7.98,7.98,7.98
41.35,4.52,4.52,-3.45,-3.45,3.45,3.56,3.53,7.97,7.97,7.97
41.76,4.52,4.53,-3.44,-3.44,3.43,3.55,3.48,7.96,7.96,7.96
42.18,4.53,4.53,-3.42,-3.43,3.42,3.53,3.44,7.96,7.95,7.95
42.60,4.53,4.53,-3.41,-3.41,3.41,3.52,3.39,7.94,7.94,7.94
43.03,4.53,4.54,-3.40,-3.40,3.40,3.50,3.35,7.93,7.94,7.93
43.46,4.54,4.54,-3.38,-3.38,3.39,3.48,3.31,7.93,7.93,7.92
43.90,4.54,4.54,-3.37,-3.37,3.38,3.47,3.28,7.92,7.92,7.91
44.33,4.54,4.54,-3.36,-3.36,3.36,3.45,3.24,7.91,7.91,7.90
44.78,4.54,4.54,-3.35,-3.35,3.35,3.43,3.21,7.90,7.89,7.89
45.23,4.53,4.54,-3.35,-3.34,3.34,3.41,3.18,7.87,7.88,7.88
45.68,4.53,4.54,-3.34,-3.33,3.33,3.40,3.15,7.86,7.86,7.87
46.13,4.54,4.54,-3.31,-3.32,3.31,3.38,3.13,7.85,7.85,7.86
46.60,4.54,4.54,-3.30,-3.30,3.29,3.36,3.11,7.84,7.84,7.84
47.06,4.55,4.55,-3.28,-3.28,3.27,3.34,3.09,7.83,7.83,7.83
47.53,4.56,4.56,-3.25,-3.25,3.25,3.32,3.07,7.81,7.81,7.82
48.01,4.57,4.57,-3.23,-3.23,3.23,3.30,3.06,7.80,7.80,7.80
48.49,4.58,4.58,-3.20,-3.20,3.21,3.28,3.04,7.79,7.79,7.79
48.97,4.59,4.59,-3.18,-3.18,3.19,3.26,3.03,7.78,7.78,7.77
49.46,4.59,4.59,-3.16,-3.16,3.17,3.23,3.02,7.76,7.76,7.76
49.96,4.59,4.59,-3.15,-3.15,3.15,3.21,3.02,7.75,7.75,7.74
50.46,4.58,4.58,-3.14,-3.14,3.14,3.19,3.01,7.73,7.73,7.72
50.96,4.57,4.57,-3.13,-3.13,3.13,3.17,3.01,7.70,7.71,7.70
51.47,4.56,4.56,-3.12,-3.12,3.12,3.14,3.00,7.68,7.68,7.69
51.99,4.55,4.55,-3.12,-3.12,3.11,3.12,3.00,7.66,7.66,7.67
52.51,4.54,4.55,-3.11,-3.10,3.10,3.10,3.00,7.64,7.64,7.65
53.03,4.54,4.54,-3.09,-3.09,3.08,3.07,3.00,7.62,7.62,7.63
53.56,4.54,4.54,-3.07,-3.07,3.06,3.05,3.00,7.61,7.60,7.61
54.10,4.54,4.55,-3.04,-3.04,3.04,3.02,3.00,7.58,7.59,7.59
54.64,4.55,4.55,-3.01,-3.02,3.02,2.99,3.00,7.57,7.56,7.56
55.18,4.55,4.55,-2.99,-2.99,2.99,2.97,2.99,7.54,7.54,7.54
55.74,4.55,4.56,-2.97,-2.96,2.96,2.94,2.99,7.52,7.52,7.52
56.29,4.56,4.56,-2.93,-2.93,2.94,2.91,2.99,7.50,7.50,7.49
56.86,4.56,4.56,-2.91,-2.91,2.91,2.88,2.98,7.48,7.47,7.47
57.42,4.56,4.56,-2.88,-2.88,2.89,2.85,2.98,7.45,7.45,7.44
58.00,4.55,4.56,-2.87,-2.86,2.87,2.82,2.97,7.42,7.42,7.42
58.58,4.55,4.55,-2.84,-2.84,2.84,2.79,2.96,7.39,7.39,7.39
59.16,4.54,4.54,-2.82,-2.82,2.81,2.76,2.95,7.35,7.36,7.36
59.76,4.54,4.54,-2.79,-2.79,2.78,2.73,2.93,7.33,7.33,7.33
60.35,4.54,4.54,-2.76,-2.76,2.75,2.70,2.91,7.29,7.30,7.30
60.96,4.55,4.55,-2.72,-2.72,2.72,2.66,2.89,7.27,7.27,7.27
61.57,4.56,4.56,-2.68,-2.68,2.68,2.63,2.87,7.24,7.24,7.24
62.18,4.57,4.57,-2.64,-2.64,2.64,2.60,2.84,7.21,7.21,7.21
62.80,4.57,4.58,-2.60,-2.60,2.60,2.56,2.81,7.18,7.18,7.18
63.43,4.58,4.58,-2.56,-2.56,2.56,2.53,2.77,7.15,7.14,7.14
64.07,4.58,4.58,-2.52,-2.52,2.53,2.49,2.74,7.11,7.11,7.11
64.71,4.58,4.58,-2.49,-2.49,2.49,2.45,2.69,7.07,7.07,7.07
65.35,4.58,4.58,-2.45,-2.45,2.46,2.42,2.65,7.04,7.03,7.03
66.01,4.57,4.57,-2.42,-2.42,2.42,2.38,2.60,6.99,7.00,7.00
66.67,4.56,4.57,-2.39,-2.39,2.39,2.34,2.55,6.95,6.96,6.96
67.33,4.56,4.56,-2.35,-2.36,2.36,2.30,2.50,6.92,6.91,6.92
68.01,4.55,4.55,-2.32,-2.32,2.32,2.26,2.44,6.87,6.87,6.87
68.69,4.54,4.55,-2.29,-2.29,2.29,2.22,2.38,6.83,6.83,6.83
69.37,4.54,4.54,-2.25,-2.25,2.25,2.18,2.32,6.79,6.79,6.79
70.07,4.53,4.53,-2.21,-2.21,2.21,2.13,2.26,6.74,6.74,6.75
70.77,4.53,4.53,-2.17,-2.17,2.17,2.09,2.20,6.70,6.70,6.70
71.48,4.53,4.53,-2.12,-2.12,2.12,2.05,2.13,6.65,6.65,6.65
72.19,4.53,4.53,-2.08,-2.07,2.08,2.00,2.06,6.61,6.61,6.61
72.91,4.53,4.53,-2.03,-2.03,2.03,1.96,1.99,6.56,6.56,6.56
73.64,4.53,4.53,-1.98,-1.98,1.98,1.91,1.92,6.52,6.51,6.51
74.38,4.52,4.53,-1.94,-1.93,1.94,1.86,1.85,6.46,6.46,6.46
75.12,4.52,4.52,-1.89,-1.89,1.89,1.82,1.78,6.41,6.41,6.41
75.87,4.51,4.52,-1.84,-1.84,1.84,1.77,1.71,6.35,6.36,6.36
76.63,4.51,4.51,-1.79,-1.79,1.79,1.72,1.64,6.31,6.30,6.30
77.40,4.50,4.50,-1.75,-1.75,1.74,1.67,1.56,6.25,6.25,6.25
78.17,4.49,4.50,-1.70,-1.70,1.69,1.62,1.49,6.19,6.19,6.19
78.95,4.49,4.49,-1.64,-1.64,1.64,1.57,1.42,6.13,6.13,6.14
79.74,4.49,4.49,-1.59,-1.59,1.59,1.52,1.34,6.08,6.08,6.08
80.54,4.49,4.49,-1.53,-1.53,1.54,1.46,1.27,6.03,6.02,6.02
81.35,4.48,4.48,-1.48,-1.48,1.48,1.41,1.20,5.96,5.97,5.96
82.16,4.47,4.48,-1.43,-1.43,1.43,1.36,1.13,5.90,5.90,5.90
82.98,4.47,4.47,-1.37,-1.37,1.37,1.30,1.05,5.85,5.84,5.84
83.81,4.46,4.46,-1.32,-1.32,1.32,1.25,0.98,5.78,5.78,5.78
84.65,4.45,4.45,-1.26,-1.26,1.26,1.19,0.91,5.71,5.72,5.72
85.50,4.44,4.44,-1.21,-1.21,1.21,1.14,0.84,5.65,5.65,5.65
86.35,4.44,4.44,-1.15,-1.15,1.15,1.08,0.77,5.59,5.58,5.59
87.22,4.43,4.43,-1.09,-1.09,1.09,1.03,0.70,5.52,5.52,5.52
88.09,4.43,4.43,-1.02,-1.02,1.02,0.97,0.63,5.46,5.46,5.46
88.97,4.43,4.43,-0.96,-0.96,0.96,0.91,0.56,5.39,5.39,5.39
89.86,4.43,4.43,-0.89,-0.89,0.89,0.85,0.50,5.33,5.32,5.32
90.76,4.42,4.43,-0.83,-0.83,0.83,0.79,0.43,5.25,5.26,5.26
91.66,4.42,4.42,-0.76,-0.76,0.77,0.73,0.36,5.19,5.19,5.19
92.58,4.42,4.42,-0.69,-0.70,0.70,0.67,0.29,5.12,5.12,5.12
93.51,4.41,4.41,-0.64,-0.63,0.64,0.62,0.23,5.05,5.05,5.05
94.44,4.40,4.40,-0.57,-0.57,0.58,0.56,0.16,4.98,4.98,4.98
95.39,4.39,4.39,-0.51,-0.52,0.51,0.50,0.09,4.90,4.90,4.91
96.34,4.38,4.38,-0.45,-0.45,0.45,0.43,0.03,4.83,4.83,4.84
97.30,4.37,4.38,-0.39,-0.39,0.39,0.37,-0.04,4.76,4.76,4.76
98.28,4.37,4.37,-0.32,-0.32,0.32,0.31,-0.10,4.69,4.69,4.69
99.26,4.36,4.36,-0.26,-0.26,0.26,0.25,-0.16,4.62,4.62,4.62
100.25,4.35,4.36,-0.19,-0.19,0.19,0.19,-0.23,4.54,4.55,4.55
101.25,4.35,4.35,-0.12,-0.13,0.13,0.13,-0.29,4.48,4.47,4.47
102.27,4.34,4.34,-0.06,-0.06,0.06,0.07,-0.35,4.40,4.40,4.40
103.29,4.33,4.34,0.00,0.01,-0.01,0.01,-0.41,4.33,4.33,4.33
104.32,4.33,4.33,0.08,0.07,-0.07,-0.05,-0.47,4.26,4.26,4.26
105.37,4.32,4.32,0.14,0.14,-0.14,-0.11,-0.53,4.18,4.18,4.18
106.42,4.31,4.31,0.20,0.20,-0.20,-0.17,-0.59,4.11,4.11,4.11
107.48,4.30,4.30,0.27,0.27,-0.27,-0.23,-0.65,4.04,4.04,4.04
108.56,4.29,4.29,0.33,0.33,-0.33,-0.29,-0.71,3.96,3.96,3.96
109.64,4.28,4.28,0.39,0.39,-0.39,-0.35,-0.76,3.89,3.89,3.89
110.74,4.27,4.27,0.45,0.45,-0.45,-0.41,-0.81,3.82,3.82,3.82
111.85,4.26,4.26,0.52,0.51,-0.51,-0.47,-0.87,3.75,3.75,3.75
112.97,4.24,4.25,0.57,0.57,-0.57,-0.53,-0.92,3.67,3.67,3.67
114.10,4.23,4.23,0.63,0.63,-0.63,-0.59,-0.97,3.60,3.60,3.60
115.24,4.22,4.22,0.69,0.69,-0.69,-0.65,-1.01,3.53,3.53,3.53
116.39,4.21,4.21,0.75,0.75,-0.75,-0.71,-1.06,3.47,3.46,3.46
117.55,4.19,4.20,0.80,0.81,-0.80,-0.76,-1.10,3.39,3.39,3.39
118.73,4.18,4.18,0.86,0.86,-0.86,-0.82,-1.15,3.32,3.32,3.32
119.92,4.16,4.16,0.91,0.91,-0.92,-0.88,-1.18,3.24,3.25,3.25
121.12,4.15,4.15,0.97,0.97,-0.97,-0.93,-1.22,3.18,3.18,3.18
122.33,4.14,4.14,1.03,1.03,-1.03,-0.99,-1.26,3.11,3.11,3.11
123.55,4.13,4.13,1.09,1.09,-1.09,-1.04,-1.29,3.05,3.05,3.05
124.79,4.12,4.12,1.14,1.14,-1.14,-1.09,-1.32,2.98,2.98,2.98
126.03,4.11,4.11,1.20,1.20,-1.20,-1.15,-1.35,2.92,2.92,2.91
127.29,4.10,4.10,1.25,1.25,-1.25,-1.20,-1.37,2.85,2.85,2.85
128.57,4.08,4.08,1.30,1.30,-1.30,-1.25,-1.40,2.78,2.78,2.78
129.85,4.06,4.07,1.34,1.35,-1.35,-1.30,-1.42,2.71,2.72,2.72
131.15,4.05,4.05,1.40,1.39,-1.39,-1.35,-1.44,2.66,2.65,2.66
132.46,4.03,4.03,1.44,1.44,-1.44,-1.39,-1.46,2.59,2.59,2.59
133.79,4.01,4.01,1.48,1.48,-1.48,-1.44,-1.47,2.53,2.53,2.53
135.12,3.99,3.99,1.52,1.52,-1.52,-1.49,-1.49,2.47,2.47,2.47
136.48,3.97,3.97,1.56,1.56,-1.56,-1.53,-1.50,2.42,2.41,2.41
137.84,3.94,3.95,1.59,1.59,-1.59,-1.58,-1.51,2.35,2.36,2.35
139.22,3.92,3.92,1.63,1.62,-1.62,-1.62,-1.52,2.30,2.30,2.30
140.61,3.89,3.89,1.65,1.65,-1.65,-1.66,-1.53,2.25,2.25,2.24
142.02,3.86,3.86,1.68,1.68,-1.67,-1.71,-1.54,2.19,2.19,2.18
143.44,3.83,3.83,1.70,1.70,-1.69,-1.75,-1.55,2.14,2.13,2.13
144.87,3.79,3.80,1.72,1.72,-1.72,-1.79,-1.56,2.07,2.08,2.08
146.32,3.76,3.76,1.74,1.74,-1.75,-1.83,-1.56,2.01,2.02,2.02
147.78,3.74,3.74,1.77,1.77,-1.78,-1.86,-1.57,1.96,1.96,1.97
149.26,3.72,3.73,1.80,1.80,-1.82,-1.90,-1.58,1.91,1.91,1.92
150.75,3.72,3.72,1.85,1.85,-1.86,-1.93,-1.59,1.86,1.86,1.87
152.26,3.72,3.72,1.90,1.90,-1.91,-1.97,-1.60,1.82,1.82,1.82
153.78,3.73,3.73,1.96,1.96,-1.96,-2.00,-1.60,1.78,1.77,1.78
155.32,3.74,3.74,2.01,2.01,-2.01,-2.03,-1.61,1.73,1.73,1.73
156.88,3.75,3.75,2.07,2.07,-2.07,-2.07,-1.62,1.69,1.69,1.68
158.44,3.76,3.76,2.12,2.12,-2.12,-2.09,-1.64,1.65,1.64,1.64
160.03,3.76,3.76,2.17,2.17,-2.16,-2.12,-1.65,1.60,1.60,1.60
161.63,3.76,3.76,2.22,2.21,-2.21,-2.15,-1.66,1.56,1.55,1.54
163.24,3.75,3.75,2.25,2.25,-2.24,-2.18,-1.68,1.51,1.51,1.50
164.88,3.74,3.74,2.28,2.28,-2.28,-2.20,-1.69,1.47,1.46,1.46
166.53,3.72,3.73,2.30,2.30,-2.30,-2.23,-1.71,1.42,1.42,1.42
168.19,3.71,3.71,2.33,2.33,-2.33,-2.25,-1.73,1.38,1.38,1.38
169.87,3.69,3.70,2.35,2.35,-2.35,-2.27,-1.75,1.34,1.34,1.35
171.57,3.68,3.68,2.37,2.37,-2.37,-2.29,-1.77,1.31,1.31,1.31
173.29,3.66,3.66,2.39,2.39,-2.39,-2.32,-1.79,1.27,1.27,1.27
175.02,3.64,3.65,2.40,2.41,-2.41,-2.33,-1.81,1.24,1.24,1.24
176.77,3.63,3.63,2.43,2.42,-2.42,-2.35,-1.84,1.21,1.21,1.21
178.54,3.61,3.61,2.44,2.44,-2.44,-2.37,-1.87,1.18,1.18,1.17
180.32,3.59,3.59,2.45,2.45,-2.45,-2.38,-1.89,1.14,1.14,1.14
182.13,3.57,3.57,2.46,2.46,-2.46,-2.40,-1.93,1.11,1.11,1.11
183.95,3.55,3.55,2.47,2.47,-2.47,-2.41,-1.96,1.08,1.08,1.08
185.79,3.53,3.54,2.48,2.48,-2.49,-2.43,-1.99,1.05,1.05,1.05
187.65,3.52,3.52,2.50,2.49,-2.49,-2.44,-2.02,1.03,1.02,1.02
189.52,3.50,3.50,2.51,2.51,-2.50,-2.45,-2.06,1.00,1.00,1.00
191.42,3.48,3.48,2.51,2.51,-2.51,-2.46,-2.10,0.97,0.97,0.97
193.33,3.46,3.46,2.52,2.52,-2.52,-2.47,-2.14,0.94,0.94,0.94
195.27,3.44,3.44,2.52,2.52,-2.52,-2.47,-2.17,0.92,0.92,0.92
197.22,3.42,3.42,2.53,2.53,-2.53,-2.48,-2.21,0.90,0.90,0.89
199.19,3.40,3.40,2.53,2.53,-2.53,-2.49,-2.26,0.87,0.87,0.87
201.18,3.37,3.38,2.52,2.53,-2.53,-2.49,-2.30,0.84,0.85,0.85
203.19,3.35,3.35,2.53,2.53,-2.53,-2.49,-2.34,0.83,0.83,0.83
205.23,3.33,3.33,2.53,2.52,-2.52,-2.50,-2.38,0.81,0.80,0.80
207.28,3.30,3.31,2.52,2.52,-2.52,-2.50,-2.42,0.78,0.78,0.78
209.35,3.28,3.28,2.52,2.52,-2.52,-2.50,-2.47,0.77,0.76,0.76
211.44,3.25,3.25,2.51,2.51,-2.51,-2.50,-2.51,0.74,0.74,0.74
213.56,3.23,3.23,2.51,2.50,-2.50,-2.50,-2.55,0.73,0.73,0.73
215.69,3.20,3.20,2.50,2.50,-2.50,-2.49,-2.59,0.70,0.71,0.71
217.85,3.18,3.18,2.49,2.49,-2.49,-2.49,-2.63,0.69,0.69,0.69
220.03,3.15,3.15,2.48,2.48,-2.48,-2.49,-2.67,0.67,0.67,0.67
222.23,3.13,3.13,2.48,2.47,-2.47,-2.48,-2.71,0.66,0.66,0.66
224.45,3.10,3.10,2.46,2.46,-2.46,-2.48,-2.74,0.64,0.64,0.64
226.70,3.08,3.08,2.46,2.46,-2.46,-2.47,-2.77,0.63,0.62,0.62
228.96,3.05,3.05,2.44,2.44,-2.45,-2.46,-2.80,0.61,0.61,0.61
231.25,3.03,3.03,2.44,2.44,-2.44,-2.45,-2.83,0.59,0.59,0.59
233.57,3.00,3.00,2.42,2.43,-2.43,-2.45,-2.85,0.57,0.58,0.58
235.90,2.98,2.98,2.42,2.42,-2.42,-2.44,-2.87,0.56,0.56,0.56
238.26,2.95,2.96,2.41,2.41,-2.41,-2.43,-2.88,0.54,0.55,0.54
240.64,2.93,2.93,2.40,2.40,-2.40,-2.41,-2.90,0.54,0.53,0.53
243.05,2.90,2.90,2.38,2.38,-2.38,-2.40,-2.90,0.52,0.52,0.52
245.48,2.87,2.88,2.36,2.37,-2.37,-2.39,-2.90,0.50,0.51,0.51
247.93,2.85,2.85,2.36,2.35,-2.35,-2.37,-2.90,0.50,0.50,0.50
250.41,2.82,2.82,2.34,2.34,-2.34,-2.36,-2.90,0.49,0.49,0.49
252.92,2.79,2.79,2.32,2.32,-2.32,-2.34,-2.89,0.47,0.47,0.48
255.45,2.76,2.76,2.30,2.30,-2.30,-2.33,-2.87,0.46,0.46,0.47
258.00,2.73,2.74,2.28,2.28,-2.28,-2.31,-2.85,0.45,0.45,0.46
260.58,2.71,2.71,2.27,2.26,-2.26,-2.29,-2.82,0.45,0.45,0.45
263.19,2.68,2.68,2.25,2.25,-2.24,-2.28,-2.80,0.44,0.44,0.44
265.82,2.65,2.65,2.22,2.23,-2.22,-2.26,-2.76,0.43,0.43,0.43
268.48,2.62,2.62,2.20,2.20,-2.20,-2.24,-2.73,0.42,0.42,0.42
271.16,2.59,2.59,2.18,2.18,-2.18,-2.22,-2.68,0.41,0.41,0.41
273.87,2.56,2.56,2.16,2.16,-2.16,-2.19,-2.64,0.40,0.40,0.40
276.61,2.53,2.53,2.14,2.14,-2.13,-2.17,-2.59,0.40,0.40,0.40
279.38,2.50,2.50,2.11,2.11,-2.11,-2.15,-2.54,0.40,0.39,0.39
282.17,2.46,2.47,2.08,2.08,-2.08,-2.13,-2.49,0.38,0.39,0.38
284.99,2.43,2.43,2.05,2.05,-2.05,-2.10,-2.44,0.38,0.38,0.38
287.84,2.40,2.40,2.01,2.02,-2.02,-2.08,-2.38,0.38,0.38,0.39
290.72,2.37,2.37,1.99,1.99,-2.00,-2.05,-2.32,0.38,0.38,0.38
293.63,2.34,2.34,1.97,1.97,-1.97,-2.03,-2.26,0.37,0.38,0.37
296.57,2.32,2.32,1.94,1.94,-1.94,-2.00,-2.20,0.38,0.38,0.38
299.53,2.29,2.29,1.91,1.91,-1.92,-1.97,-2.14,0.38,0.38,0.38
302.53,2.27,2.27,1.89,1.89,-1.89,-1.95,-2.08,0.38,0.38,0.38
305.55,2.24,2.25,1.86,1.86,-1.86,-1.92,-2.02,0.38,0.38,0.38
308.61,2.22,2.22,1.85,1.84,-1.84,-1.89,-1.95,0.38,0.38,0.38
311.69,2.19,2.19,1.81,1.81,-1.81,-1.86,-1.89,0.38,0.38,0.38
314.81,2.16,2.16,1.78,1.78,-1.78,-1.83,-1.83,0.38,0.38,0.38
317.96,2.13,2.13,1.75,1.75,-1.75,-1.80,-1.76,0.38,0.38,0.38
321.14,2.10,2.10,1.72,1.72,-1.72,-1.77,-1.70,0.38,0.38,0.38
324.35,2.07,2.07,1.69,1.69,-1.69,-1.74,-1.64,0.38,0.38,0.38
327.59,2.04,2.04,1.65,1.65,-1.65,-1.71,-1.58,0.39,0.38,0.39
330.87,2.00,2.01,1.62,1.62,-1.62,-1.67,-1.52,0.38,0.39,0.39
334.18,1.97,1.97,1.58,1.58,-1.59,-1.64,-1.46,0.39,0.39,0.39
337.52,1.94,1.94,1.55,1.55,-1.55,-1.61,-1.40,0.39,0.39,0.39
340.90,1.91,1.91,1.52,1.52,-1.51,-1.57,-1.34,0.40,0.40,0.39
344.30,1.88,1.88,1.48,1.48,-1.48,-1.54,-1.28,0.40,0.40,0.40
347.75,1.85,1.85,1.44,1.44,-1.44,-1.50,-1.23,0.41,0.41,0.41
351.23,1.81,1.82,1.41,1.41,-1.41,-1.47,-1.17,0.41,0.41,0.41
354.74,1.78,1.78,1.36,1.37,-1.37,-1.43,-1.12,0.42,0.42,0.42
358.28,1.75,1.75,1.33,1.33,-1.33,-1.40,-1.06,0.42,0.42,0.42
361.87,1.71,1.72,1.29,1.29,-1.29,-1.36,-1.01,0.42,0.43,0.43
365.49,1.68,1.68,1.25,1.25,-1.25,-1.32,-0.96,0.43,0.43,0.43
369.14,1.65,1.65,1.22,1.21,-1.21,-1.29,-0.91,0.44,0.44,0.43
372.83,1.61,1.62,1.16,1.17,-1.17,-1.25,-0.86,0.44,0.44,0.45
376.56,1.58,1.58,1.14,1.14,-1.14,-1.21,-0.81,0.45,0.45,0.45
380.33,1.55,1.55,1.10,1.10,-1.10,-1.17,-0.76,0.46,0.45,0.45
384.13,1.51,1.52,1.06,1.06,-1.06,-1.13,-0.71,0.45,0.46,0.45
387.97,1.48,1.48,1.02,1.02,-1.02,-1.09,-0.67,0.46,0.46,0.46
391.85,1.45,1.45,0.98,0.98,-0.98,-1.05,-0.62,0.47,0.47,0.48
395.77,1.42,1.42,0.95,0.94,-0.94,-1.01,-0.58,0.48,0.48,0.47
399.73,1.39,1.39,0.91,0.91,-0.91,-0.97,-0.53,0.49,0.48,0.48
403.72,1.35,1.36,0.86,0.87,-0.87,-0.93,-0.49,0.48,0.49,0.49
407.76,1.32,1.32,0.83,0.83,-0.83,-0.89,-0.45,0.49,0.49,0.49
411.84,1.29,1.29,0.79,0.79,-0.79,-0.84,-0.40,0.50,0.50,0.50
415.96,1.26,1.26,0.76,0.76,-0.76,-0.80,-0.36,0.51,0.50,0.51
420.12,1.22,1.23,0.72,0.72,-0.72,-0.76,-0.32,0.50,0.51,0.50
424.32,1.19,1.19,0.68,0.68,-0.68,-0.71,-0.28,0.51,0.51,0.51
428.56,1.16,1.16,0.64,0.64,-0.64,-0.67,-0.25,0.52,0.52,0.52
432.85,1.12,1.13,0.59,0.60,-0.60,-0.63,-0.21,0.52,0.53,0.53
437.18,1.09,1.09,0.56,0.56,-0.56,-0.58,-0.17,0.53,0.53,0.53
441.55,1.06,1.06,0.53,0.52,-0.52,-0.54,-0.14,0.54,0.54,0.54
445.96,1.02,1.03,0.48,0.48,-0.48,-0.49,-0.10,0.55,0.55,0.55
450.42,0.99,0.99,0.43,0.43,-0.44,-0.45,-0.07,0.56,0.56,0.56
454.93,0.96,0.96,0.39,0.39,-0.39,-0.40,-0.03,0.57,0.57,0.57
459.48,0.93,0.93,0.35,0.35,-0.35,-0.36,-0.00,0.58,0.58,0.58
464.07,0.89,0.90,0.31,0.31,-0.31,-0.31,0.03,0.58,0.58,0.58
468.71,0.86,0.86,0.27,0.27,-0.27,-0.27,0.06,0.59,0.59,0.59
473.40,0.83,0.83,0.23,0.23,-0.23,-0.22,0.09,0.60,0.60,0.60
478.13,0.80,0.80,0.19,0.19,-0.19,-0.17,0.12,0.61,0.61,0.61
482.91,0.76,0.77,0.15,0.15,-0.15,-0.13,0.15,0.61,0.62,0.62
487.74,0.73,0.73,0.11,0.11,-0.11,-0.08,0.17,0.62,0.62,0.63
492.62,0.70,0.70,0.07,0.07,-0.07,-0.03,0.20,0.63,0.63,0.63
497.55,0.67,0.67,0.03,0.03,-0.03,0.01,0.22,0.65,0.65,0.64
502.52,0.64,0.64,-0.01,-0.01,0.02,0.06,0.25,0.66,0.66,0.65
507.55,0.61,0.61,-0.06,-0.06,0.06,0.11,0.27,0.67,0.67,0.67
512.62,0.58,0.58,-0.10,-0.10,0.10,0.15,0.29,0.68,0.68,0.68
517.75,0.55,0.55,-0.14,-0.14,0.14,0.20,0.31,0.69,0.69,0.69
522.93,0.52,0.52,-0.18,-0.18,0.18,0.25,0.33,0.70,0.70,0.70
528.16,0.48,0.49,-0.23,-0.22,0.22,0.30,0.35,0.70,0.71,0.71
533.44,0.45,0.45,-0.27,-0.26,0.26,0.34,0.37,0.72,0.72,0.72
538.77,0.42,0.42,-0.30,-0.30,0.31,0.39,0.39,0.73,0.73,0.72
544.16,0.39,0.39,-0.34,-0.34,0.35,0.44,0.41,0.74,0.74,0.74
549.60,0.36,0.36,-0.38,-0.39,0.39,0.48,0.43,0.75,0.75,0.75
555.10,0.33,0.33,-0.43,-0.43,0.43,0.53,0.44,0.76,0.76,0.77
560.65,0.30,0.30,-0.47,-0.47,0.47,0.58,0.46,0.77,0.77,0.78
