frequency,raw,error,smoothed,error_smoothed,equalization,equalized_raw,equalized_smoothed,target
20,-9.543683167374873,-10.32956936822074,-9.535766413231082,-10.321637266850786,5.999999999999999,-3.5436831673748737,-3.535766413231083,0.785886200845868
21,-9.05608957645867,-9.841956825066951,-8.982547735127875,-9.768417337987746,6.0,-3.0560895764586693,-2.9825477351278753,0.7858672486082812
22,-8.36414665887352,-9.149989115509953,-8.45254840994135,-9.238403180982628,6.0,-2.364146658873519,-2.4525484099413504,0.7858424566364333
23,-7.885569606690696,-8.671380025392155,-7.945768437671509,-8.731594795835433,6.0,-1.8855696066906962,-1.945768437671509,0.7858104187014585
24,-7.4623162479086975,-8.24808572356283,-7.4622078183183405,-8.247992182546149,5.999999999999998,-1.4623162479086993,-1.4622078183183422,0.7857694756541327
25,-7.03190614405587,-7.817623828034536,-7.002485994325513,-7.788216259893158,6.000000000000002,-1.031906144055868,-1.0024859943255109,0.7857176839786661
26,-6.5534425393552675,-7.3390953214043755,-6.565774495263316,-7.351437102880847,6.0,-0.5534425393552675,-0.5657744952633159,0.7856527820491079
27,-6.174501774717427,-6.9600739287549676,-6.15142922697239,-6.937009048700613,5.999999999999999,-0.17450177471742823,-0.15142922697239047,0.7855721540375402
28,-5.738842577341227,-6.524315368769939,-5.758720736292107,-6.544200060567675,5.936793520265145,0.19795094292391813,0.17807278397303872,0.785472791428711
29,-5.45102746437672,-6.236378716478173,-5.387000311345378,-6.172357806981992,5.80672169840512,0.35569423402839995,0.4197213870597416,0.7853512521014525
30,-4.973526260837952,-5.758729877782963,-5.036051144711864,-5.821261401577329,5.6169950441266945,0.6434687832887427,0.5809438994148302,0.7852036169450121
31,-4.707885914139784,-5.492911358126603,-4.705826982234818,-5.490859844749613,5.39363875765375,0.6857528435139653,0.6878117754189317,0.785025443986819
32,-4.409191237001277,-5.194002957019864,-4.396280760255917,-5.181100819228352,5.151199584886386,0.7420083478851085,0.7549188246304688,0.784811720018586
33,-4.105506545403016,-4.890063355122797,-4.107079240167338,-4.891645323350221,4.891645323350221,0.7861387779472047,0.7845660831828827,0.7845568097197813
34,-3.8444113330213097,-4.628665735313124,-3.837394149044439,-4.6216587077658104,4.621658707765811,0.7772473747445017,0.7842645587213721,0.7842544022918139
35,-3.5399024548052282,-4.323799910438309,-3.5859997765572,-4.3699082228585695,4.3699082228585695,0.8300057680533413,0.7839084463013695,0.7838974556330802
36,-3.3677325845165957,-4.1512107226212285,-3.351649509735614,-4.135139450802708,4.1351394508027095,0.7674068662861138,0.7834899410670957,0.7834781381046327
37,-3.1540326961654914,-3.937020464124555,-3.1336849552316384,-3.916685342877769,3.9166853428777686,0.7626526467122772,0.7830003876461302,0.7829877679590638
38,-2.940828425798811,-3.723245176330487,-2.93264459319615,-3.715074803432395,3.7150748034323935,0.7742463776335824,0.7824302102362437,0.7824167505316759
39,-2.809759868228725,-3.5915143815521833,-2.7505604316289105,-3.5323292735879432,3.5323292735879432,0.7225694053592182,0.7817688419590327,0.7817545133234582
40,-2.634730041012158,-3.4157194801525943,-2.5906974213374436,-3.37170208418987,3.3717020841898706,0.7369720431777127,0.781004662852427,0.7809894391404364
41,-2.4164037157322884,-3.196512513226158,-2.4566517231749456,-3.2367766589759532,3.2367766589759537,0.8203729432436653,0.7801249358010081,0.7801087974938694
42,-2.333005903081224,-3.1121045775924174,-2.3509878114143583,-3.130103550576074,3.1301035505760737,0.7970976474948497,0.7791157391617154,0.7790986745111934
43,-2.131856477792256,-2.909800379451178,-2.273836408317788,-3.0517983055129916,3.0517983055129907,0.9199418277207347,0.7779618971952025,0.7779439016589222
44,-2.1318564777886424,-2.908484461425041,-2.221987156537213,-2.9986340642230545,2.998634064223055,0.8667775864344125,0.776646907685842,0.7766279836363985
45,-2.1407808312027825,-2.915913857066623,-2.188925931104314,-2.964078799873903,2.9640787998739024,0.8232979686711199,0.7751528687695886,0.7751330258638407
46,-2.2324311904475973,-3.0058708525074405,-2.165983958940674,-2.9394443648751514,2.939444364875151,0.7070131744275536,0.7734604059344767,0.7734396620598432
47,-2.2580327763939043,-3.0295597588767107,-2.14437752753246,-2.9159261273846306,2.915926127384631,0.6578933509907268,0.7715485998521712,0.7715269824828064
48,-2.219421331943649,-2.9887937954414685,-2.117567391394738,-2.886962307227498,2.886962307227498,0.667540975283849,0.76939491583276,0.7693724634978194
49,-2.207614872031789,-2.9745667712573005,-2.08319600064495,-2.8501711360880657,2.850171136088065,0.6425562640562759,0.7669751354431149,0.7669518992255115
50,-2.0632505231476737,-2.8274898592798543,-2.043945513600978,-2.808208804669401,2.808208804669402,0.7449582815217282,0.7642632910684237,0.7642393361321806
51,-2.051396706955418,-2.812603718486326,-2.006976816948831,-2.7682084213182754,2.7682084213182754,0.7168117143628572,0.7612316043694443,0.761207011530908
52,-1.8171916648848447,-2.575016961965711,-1.9820468136414315,-2.73989724335824,2.7398972433582394,0.9227055784733946,0.7578504297168078,0.7578252970808661
53,-1.8413164023504665,-2.595379050846235,-1.9788051263869504,-2.7328933302357132,2.732893330235714,0.8915769278852477,0.7540882038487637,0.7540626484957689
54,-1.9986738052337636,-2.748559368035046,-2.0040075062828597,-2.7539189093908663,2.7539189093908663,0.7552451041571027,0.7499114031080065,0.7498855628012828
55,-2.0375598035105846,-2.78281834812421,-2.0593856579112715,-2.8046701676491006,2.8046701676491006,0.767110364138516,0.7452845097378291,0.7452585446136255
56,-2.0159310222852893,-2.7560751053306594,-2.140702203402463,-2.880872192253956,2.8808721922539564,0.8649411699686671,0.7401699888514934,0.74014408304537
57,-2.2525461507962765,-2.987048791773422,-2.2381816224199813,-2.972709900238165,2.972709900238165,0.7201637494418884,0.7345282778181836,0.7345026409771456
58,-2.3306758340563443,-3.0589684926184586,-2.3381547752926277,-3.0664725652336493,3.0664725652336493,0.735796731177305,0.7283177899410216,0.7282926585621143
59,-2.4226900802715248,-3.144160653221527,-2.4254813488105476,-3.1469762832345447,3.146976283234545,0.7242862029630204,0.7214949344239976,0.7214705729500022
60,-2.65385047634608,-3.3678413326704453,-2.486177087591538,-3.200191242322901,3.200191242322902,0.5463407659768218,0.7140141547313639,0.7139908563243651
61,-2.611416420657452,-3.317222495092806,-2.509682932351007,-3.2155109198822256,3.215510919882226,0.6040944992247739,0.7058279875312192,0.7058060744353538
62,-2.5050346884621457,-3.2019016563364966,-2.4903456315303334,-3.1872327760082264,3.1872327760082264,0.6821980875460807,0.696887144477893,0.6968669678743509
63,-2.4525041968785497,-3.1396267552482042,-2.4278888313300246,-3.1150294504467917,3.115029450446792,0.6625252535682424,0.6871406191167675,0.6871225583696545
64,-2.383293101392685,-3.0598133837689554,-2.326889202797397,-3.003425024017127,3.003425024017128,0.6201319226244428,0.6765358212197308,0.6765202823762704
65,-2.219093599056265,-2.884099753236073,-2.1954828788325296,-2.860501619470793,2.8605016194707917,0.6414080204145267,0.6650187406382622,0.665006154179808
66,-2.0032309880404955,-2.655755948666364,-2.043668338628439,-2.6962024815990198,2.6962024815990207,0.6929714935585252,0.6525341429705818,0.6525249606258687
67,-1.7859772130728273,-2.4249977024863134,-1.8816132226073161,-2.520639021833901,2.5206390218339005,0.7346618087610732,0.6390257992265844,0.6390204894134861
68,-1.6792728730418591,-2.3037086656873242,-1.71831022274017,-2.342746973371557,2.3427469733715576,0.6634741003296984,0.6244367506313875,0.6244357926454649
69,-1.5749437223895664,-2.1836572093913666,-1.5607850265732612,-2.169494635553834,2.169494635553834,0.5945509131642674,0.6087096089805726,0.6087134870018005
70,-1.4447812190070652,-2.036577310494505,-1.413882386964397,-2.0056692810329912,2.0056692810329912,0.560888062025926,0.5917868940685942,0.5917960914874398
71,-1.2493507136870363,-1.8229771168838496,-1.2805003135694282,-1.8541117251764299,1.8541117251764303,0.604761011489394,0.5736114116070021,0.5736264031968132
72,-1.1261038420307259,-1.6802517529616774,-1.1620541947790133,-1.716180868868169,1.7161808688681688,0.5900770268374429,0.5541266740891555,0.5541479109309515
73,-1.0822569287181136,-1.6155621745158792,-1.0589512061073065,-1.5922285657556188,1.5922285657556186,0.5099716370375049,0.533277359648312,0.5333052457977656
74,-1.0014436164374416,-1.5124882835617393,-0.9709263285488785,-1.4819361265634932,1.4819361265634932,0.48049251012605154,0.5110097980146147,0.5110446671242976
75,-0.8243489570135613,-1.3116635381315445,-0.8971971790856164,-1.384469647037459,1.3844696470374587,0.5601206900238974,0.4872724679518423,0.4873145811179831
76,-0.8243433616444491,-1.2864094503874866,-0.8364920996797308,-1.2985085968742474,1.2985085968742476,0.4741652352297985,0.46201649719451676,0.46206608874303745
77,-0.8196880812920118,-1.254941639536214,-0.7870606259207839,-1.2222568161122598,1.2222568161122602,0.40256873482024846,0.4351961901914764,0.4352535582442023
78,-0.7238032497856435,-1.130638466460451,-0.7467738831102152,-1.153543542793916,1.1535435427939158,0.4297402930082723,0.4067696596837006,0.4068352166748075
79,-0.7238598262906414,-1.1006335799874707,-0.7133742491031377,-1.0900738941692878,1.090073894169288,0.36621406787864663,0.3766996450661503,0.3767737536968294
80,-0.7239492793475866,-1.0689862091975777,-0.6848630843723583,-1.029817575369341,1.0298175753693413,0.3058682960217547,0.34495449099698294,0.3450369298499911
81,-0.6840430267982203,-0.9956412072711023,-0.6599477709907461,-0.9714567994814316,0.9714567994814318,0.28741377268321155,0.31150902849068574,0.311598180472882
82,-0.6236248769475204,-0.9000620824909374,-0.6384245698034623,-0.91476945563895,0.9147694556389503,0.29114457869142985,0.276344885835488,0.276437205543417
83,-0.6237383032017341,-0.8632788381352212,-0.6213645633903322,-0.8608143192679021,0.8608143192679021,0.23707601606616802,0.2394497558775699,0.23954053493348715
84,-0.6237849655779071,-0.824687023567185,-0.6110008934080569,-0.8118165081976556,0.8118165081976559,0.18803154261974886,0.20081561478959908,0.20090205798927796
85,-0.6237018181500538,-0.7842253241493446,-0.6102825035936915,-0.770719406934009,0.770719406934009,0.1470175887839552,0.16043690334031746,0.16052350599929088
86,-0.6234182996146456,-0.7418331756528311,-0.6221497463825594,-0.7404605961800786,0.7404605961800784,0.11704229656543286,0.11831084979751905,0.11841487603818557
87,-0.6228687702151882,-0.697463555126682,-0.6486791478029752,-0.723121665744096,0.723121665744096,0.10025289552890781,0.07444251794112078,0.07459478491149385
88,-0.6220098904486326,-0.6511006329496014,-0.6903104367371532,-0.7191662482787863,0.7191662482787864,0.09715635783015375,0.02885581154163319,0.02909074250096877
89,-0.6631811563060932,-0.6451204910442634,-0.7453805264114788,-0.7269887586023778,0.7269887586023777,0.06380760229628446,-0.018391767809101123,-0.01806066526182981
90,-0.8197085431048693,-0.7528948508217196,-0.8101313556485861,-0.7429339871226495,0.7429339871226496,-0.07677455598221972,-0.0671973685259365,-0.0668136922831497
91,-0.919639294669095,-0.8025258407486859,-0.8792394595806302,-0.7618251849382063,0.7618251849382063,-0.15781410973088872,-0.11741427464242393,-0.11711345392040906
92,-0.9783052845297584,-0.8094092252810767,-0.9467674906580755,-0.7778912227811587,0.7778912227811585,-0.20041406174859988,-0.168876267876917,-0.16889605924868167
93,-1.0312920615954404,-0.8092032048917162,-1.007309377190804,-0.7858615876302519,0.785861587630252,-0.24543047396518836,-0.2214477895605519,-0.22208885670372425
94,-1.1185446217489965,-0.8419338283333155,-1.0570369908162978,-0.7819462568633875,0.7819462568633877,-0.3365983648856088,-0.27509073395291006,-0.27661079341568096
95,-1.1199376821956553,-0.7875647961885428,-1.0943816374784694,-0.764456083661862,0.7644560836618618,-0.35548159853379346,-0.3299255538166076,-0.33237288600711246
96,-1.123208543755814,-0.7339297457132126,-1.120190737417933,-0.7339340284585893,0.7339340284585892,-0.3892745152972247,-0.3862567089593437,-0.38927879804260135
97,-1.1288268774203565,-0.6816013606442795,-1.1373508910756498,-0.6928146498784495,0.6928146498784495,-0.43601222754190694,-0.44453624119720025,-0.447225516776077
98,-1.137182773009901,-0.6310786535700885,-1.1500112930198543,-0.6447548719521085,0.6447548719521085,-0.49242790105779244,-0.5052564210677458,-0.5061041194398124
99,-1.1485376490181352,-0.5827370318715637,-1.1626309393393641,-0.5938418861269341,0.5938418861269341,-0.554695762891201,-0.56878905321243,-0.5658006171465715
100,-1.1629837541646286,-0.536786891548036,-1.1790874540432936,-0.543872133198712,0.543872133198712,-0.6191116209659167,-0.6352153208445817,-0.6261968626165926
101,-1.1804176353803586,-0.4932461289157575,-1.2020315794438252,-0.497827436746928,0.49782743674692814,-0.6825901986334304,-0.704204142696897,-0.6871715064646011
102,-1.2005312313663439,-0.4519302456226011,-1.2325785357739534,-0.4575880145611249,0.4575880145611249,-0.742943216805219,-0.7749905212128285,-0.7486009857437428
104,-1.2572253807831206,-0.3849002277428313,-1.2703320915380065,-0.4238542404754081,0.4238542404754081,-0.8333711403077125,-0.8464778510625984,-0.8723251530402893
105,-1.34719620727896,-0.4128255488501398,-1.3136681414631974,-0.3962201500314665,0.3962201500314665,-0.9509760572474936,-0.917447991431731,-0.9343706584288203
106,-1.3717133501309196,-0.37533878136030374,-1.3601734974911592,-0.3733490306737308,0.3733490306737307,-0.9983643194571888,-0.9868244668174285,-0.9963745687706158
107,-1.3960893713067266,-0.3378723326817399,-1.4071376518513472,-0.3532252799659859,0.3532252799659859,-1.0428640913407408,-1.0539123718853614,-1.0582170386249867
108,-1.4194577259800027,-0.2996760322883554,-1.452016286340121,-0.33347363941604546,0.33347363941604546,-1.0859840865639572,-1.1185426469240753,-1.1197816936916474
109,-1.5255361536106582,-0.3445797534032988,-1.4928109150178681,-0.31173339854093396,0.31173339854093407,-1.2138027550697241,-1.181077516476934,-1.1809564002073594
110,-1.5630041980642333,-0.32137024446356044,-1.528330200202218,-0.28605259937862737,0.28605259937862737,-1.276951598685606,-1.2422776008235907,-1.2416339536006729
111,-1.5765345025819566,-0.2748218228127417,-1.5583132532061996,-0.2552393961225356,0.25523939612253566,-1.321295106459421,-1.303073857083664,-1.301712679769215
112,-1.589022973426054,-0.2279260288557996,-1.583407029358853,-0.21909255214256163,0.21909255214256168,-1.3699304212834922,-1.3643144772162912,-1.3610969445702543
113,-1.5978989805704449,-0.17820141127342892,-1.6050031039698216,-0.17844352515174422,0.17844352515174422,-1.4194554554187007,-1.4265595788180774,-1.419697569297016
114,-1.6032026013248464,-0.12577044934259884,-1.6249551537714186,-0.13497974476336194,0.13497974476336197,-1.4682228565614843,-1.4899754090080566,-1.4774321519822475
115,-1.6051619915393838,-0.07093669526810542,-1.645216354500547,-0.09087247935134082,0.09087247935134084,-1.5142895121880429,-1.554343875149206,-1.5342252962712783
117,-1.7240103689990671,-0.07928890159133317,-1.6674531140249167,-0.04828687352572783,0.04828687352572781,-1.6757234954733393,-1.619166240499189,-1.644721467407734
118,-1.6884816541708332,0.009827919692169784,-1.692704815276833,-0.008890202097217356,0.008890202097217352,-1.679591452073616,-1.6838146131796157,-1.698309573863003
119,-1.6758073251968149,0.07491896015389421,-1.7211630563114355,0.02651554251365648,-0.026515542513656475,-1.7023228677104714,-1.747678598825092,-1.750726285350709
120,-1.7346191613811424,0.06731258365784343,-1.7521319297506777,0.05813491792043582,-0.058134917920435826,-1.7927540793015782,-1.8102668476711135,-1.8019317450389858
121,-1.782353669828491,0.06953914226404345,-1.7841996183841213,0.08704767395626883,-0.08704767395626883,-1.8694013437847599,-1.8712472923403902,-1.8518928120925344
123,-1.8257562949121489,0.12222489172277506,-1.8156027287405907,0.11483209837442565,-0.11483209837442562,-1.9405883932865744,-1.9304348271150162,-1.947981186634924
124,-1.88748996485812,0.10658330061902577,-1.8447073720915896,0.14304372733615722,-0.14304372733615725,-2.030533692194277,-1.987751099427747,-1.9940732654771458
125,-1.8769100183853744,0.1619397912227225,-1.8704829807959635,0.17270018335228976,-0.1727001833522897,-2.0496102017376643,-2.043183164148253,-2.038849809608097
126,-1.8528248370640736,0.2294818543378061,-1.8928282327516994,0.20392963752718335,-0.20392963752718335,-2.056754474591257,-2.096757870278883,-2.0823066914018797
128,-1.9870409100899942,0.17822725931260242,-1.9126394050513076,0.2358945677593895,-0.23589456775938952,-2.2229354778493837,-2.148533972810697,-2.1652681694025966
129,-1.9691507548208211,0.2356358098539817,-1.931587378013882,0.26701455878441394,-0.267014558784414,-2.2361653136052353,-2.198601936798296,-2.204786564674803
130,-1.9017269652742053,0.34128516465734715,-1.9516668030417914,0.29541100598450276,-0.2954110059845028,-2.1971379712587082,-2.2470778090262944,-2.2430121299315524
131,-1.8895953493090856,0.3903651534303205,-1.97466351695269,0.319419771593605,-0.3194197715936051,-2.2090151209026905,-2.294083288546295,-2.279960502739406
133,-2.0256080003822543,0.3244940611134042,-2.001718773728345,0.337996151973112,-0.33799615197311206,-2.363604152355366,-2.3397149257014567,-2.3501020614956585
134,-2.0212707254227142,0.36206862018567554,-2.0331327212539123,0.350881757618857,-0.35088175761885704,-2.3721524830415714,-2.3840144788727695,-2.38333934560839
135,-2.05107125871183,0.36431573719512356,-2.0684558094240524,0.3584987804274379,-0.35849878042743794,-2.409570039139268,-2.42695458985149,-2.4153869959069536
137,-2.139208806729253,0.3368120819248017,-2.106804237815578,0.3616438387679132,-0.3616438387679132,-2.5008526454971665,-2.468448076583491,-2.476020888654055
138,-2.206635665323975,0.29802819551948456,-2.147254462654098,0.36112422050523474,-0.36112422050523474,-2.5677598858292097,-2.5083786831593327,-2.5046638608434595
140,-2.210683212572307,0.34806692602303,-2.1891573904659474,0.35748386181205155,-0.3574838618120515,-2.568167074384358,-2.5466412522779986,-2.558750138595337
141,-2.1925800773136594,0.3916743767074933,-2.2322701095134745,0.35090495816416994,-0.35090495816416994,-2.5434850354778296,-2.5831750676776446,-2.5842544540211527
142,-2.1884898974550566,0.4202841731170648,-2.2767041554638983,0.3412735570351947,-0.3412735570351948,-2.5297634544902516,-2.6179777124990933,-2.6087740705721214
144,-2.3724329130679234,0.28255035155933816,-2.322784080810073,0.32831205718435197,-0.32831205718435197,-2.7007449702522752,-2.6510961379944247,-2.6549832646272615
145,-2.424159148920091,0.2525754581023456,-2.3709486724803703,0.31165318286853727,-0.31165318286853727,-2.7358123317886283,-2.6826018553489077,-2.6767346070224365
147,-2.39009072497312,0.32759249583693073,-2.4217863185821704,0.290777021474474,-0.290777021474474,-2.680867746447594,-2.7125633400566445,-2.7176832208100508
148,-2.466888115030164,0.2700521684231356,-2.4761930580901335,0.2648353688653261,-0.26483536886532605,-2.73172348389549,-2.7410284269554595,-2.7369402834532996
150,-2.5541765534206826,0.21898898400509959,-2.5355298120483845,0.23249370479003167,-0.23249370479003173,-2.786670258210714,-2.768023516838416,-2.773165537425782
151,-2.611735773835915,0.1784544118125253,-2.601596122604298,0.19197165306356398,-0.19197165306356398,-2.8037074268994786,-2.793567775667862,-2.79019018564844
153,-2.6944284869008217,0.12777117768537005,-2.676275123316224,0.14141838745622376,-0.14141838745622376,-2.8358468743570455,-2.8176935107724477,-2.8221996645861918
154,-2.711508536414892,0.12572828116329715,-2.760839780825918,0.07962192331612825,-0.07962192331612825,-2.7911304597310203,-2.8404617041420464,-2.837236817578189
156,-2.845783153910686,0.019718018014574845,-2.855094110095052,0.006870687798209871,-0.0068706877982098735,-2.8526538417088956,-2.861964797893262,-2.8655011719252608
