frequency,raw,smoothed,error,error_smoothed,equalization,parametric_eq,fixed_band_eq,equalized_raw,equalized_smoothed,target
20.00,-11.11,-11.12,-13.39,-13.39,6.00,7.14,2.79,-5.11,-5.12,2.27
20.20,-11.06,-11.06,-13.36,-13.36,6.00,7.12,2.87,-5.06,-5.06,2.30
20.40,-11.01,-11.01,-13.34,-13.34,6.00,7.09,2.95,-5.01,-5.01,2.33
20.61,-10.97,-10.96,-13.31,-13.32,6.00,7.06,3.04,-4.97,-4.96,2.35
20.81,-10.91,-10.92,-13.29,-13.30,6.00,7.04,3.12,-4.91,-4.92,2.38
21.02,-10.87,-10.88,-13.28,-13.28,6.00,7.01,3.22,-4.87,-4.88,2.41
21.23,-10.84,-10.85,-13.26,-13.27,6.00,6.99,3.31,-4.84,-4.85,2.42
21.44,-10.82,-10.83,-13.25,-13.26,6.00,6.96,3.40,-4.82,-4.83,2.43
21.66,-10.80,-10.81,-13.23,-13.24,6.00,6.93,3.50,-4.80,-4.81,2.44
21.87,-10.76,-10.75,-13.20,-13.19,6.00,6.90,3.60,-4.76,-4.75,2.44
22.09,-10.65,-10.62,-13.10,-13.06,6.00,6.88,3.70,-4.65,-4.62,2.45
22.31,-10.40,-10.42,-12.85,-12.87,6.00,6.85,3.81,-4.40,-4.42,2.44
22.54,-10.17,-10.17,-12.61,-12.62,6.00,6.82,3.92,-4.17,-4.17,2.44
22.76,-9.92,-9.92,-12.37,-12.36,6.00,6.79,4.03,-3.92,-3.92,2.44
22.99,-9.68,-9.69,-12.11,-12.12,6.00,6.76,4.14,-3.68,-3.69,2.43
23.22,-9.47,-9.46,-11.90,-11.90,6.00,6.73,4.26,-3.47,-3.46,2.43
23.45,-9.25,-9.25,-11.68,-11.68,6.00,6.71,4.38,-3.25,-3.25,2.43
23.69,-9.05,-9.04,-11.48,-11.47,6.00,6.68,4.50,-3.05,-3.04,2.43
23.92,-8.83,-8.85,-11.26,-11.28,6.00,6.65,4.63,-2.83,-2.85,2.43
24.16,-8.68,-8.69,-11.12,-11.12,6.00,6.62,4.76,-2.68,-2.69,2.44
24.40,-8.56,-8.54,-11.00,-10.98,6.00,6.59,4.88,-2.56,-2.54,2.44
24.65,-8.44,-8.42,-10.86,-10.86,6.00,6.56,5.02,-2.44,-2.42,2.43
24.89,-8.31,-8.34,-10.74,-10.77,6.00,6.52,5.15,-2.31,-2.34,2.43
25.14,-8.29,-8.30,-10.71,-10.72,6.00,6.49,5.28,-2.29,-2.30,2.43
25.39,-8.33,-8.33,-10.75,-10.75,6.00,6.46,5.42,-2.33,-2.33,2.42
25.65,-8.35,-8.37,-10.78,-10.79,6.00,6.43,5.55,-2.35,-2.37,2.42
25.91,-8.39,-8.34,-10.81,-10.76,6.00,6.40,5.69,-2.39,-2.34,2.41
26.16,-8.22,-8.20,-10.63,-10.61,6.00,6.37,5.83,-2.22,-2.20,2.41
26.43,-7.95,-7.95,-10.36,-10.36,6.00,6.34,5.96,-1.95,-1.95,2.41
26.69,-7.65,-7.66,-10.06,-10.07,6.00,6.31,6.10,-1.65,-1.66,2.41
26.96,-7.38,-7.41,-9.79,-9.82,6.00,6.28,6.23,-1.38,-1.41,2.41
27.23,-7.23,-7.23,-9.63,-9.63,6.00,6.25,6.36,-1.23,-1.23,2.41
27.50,-7.12,-7.09,-9.52,-9.49,6.00,6.22,6.49,-1.12,-1.09,2.40
27.77,-6.99,-6.99,-9.39,-9.39,6.00,6.19,6.61,-0.99,-0.99,2.39
28.05,-6.90,-6.94,-9.30,-9.33,6.00,6.16,6.73,-0.90,-0.94,2.39
28.33,-6.93,-6.92,-9.32,-9.31,6.00,6.13,6.83,-0.93,-0.92,2.38
28.62,-6.95,-6.95,-9.33,-9.32,6.00,6.10,6.94,-0.95,-0.95,2.38
28.90,-6.97,-6.97,-9.35,-9.34,6.00,6.07,7.03,-0.97,-0.97,2.38
29.19,-6.97,-6.98,-9.34,-9.35,6.00,6.04,7.12,-0.97,-0.98,2.37
29.48,-6.95,-6.99,-9.33,-9.36,6.00,6.02,7.19,-0.95,-0.99,2.37
29.78,-6.93,-6.92,-9.30,-9.29,6.00,5.99,7.26,-0.93,-0.92,2.36
30.08,-6.82,-6.75,-9.18,-9.11,6.00,5.97,7.31,-0.82,-0.75,2.36
30.38,-6.44,-6.42,-8.79,-8.77,6.00,5.94,7.35,-0.44,-0.42,2.35
30.68,-6.06,-6.06,-8.40,-8.40,6.00,5.92,7.38,-0.06,-0.06,2.35
30.99,-5.68,-5.81,-8.01,-8.15,6.00,5.90,7.40,0.32,0.19,2.33
31.30,-5.76,-5.76,-8.10,-8.09,6.00,5.88,7.39,0.24,0.24,2.33
31.61,-5.88,-5.85,-8.21,-8.17,6.00,5.86,7.38,0.12,0.15,2.33
31.93,-6.00,-5.97,-8.32,-8.29,6.00,5.85,7.35,-0.00,0.03,2.32
32.24,-6.02,-6.04,-8.33,-8.35,6.00,5.84,7.32,-0.02,-0.04,2.30
32.57,-6.00,-6.04,-8.31,-8.34,6.00,5.83,7.26,-0.00,-0.04,2.30
32.89,-5.98,-5.91,-8.28,-8.21,6.00,5.82,7.20,0.02,0.09,2.30
33.22,-5.68,-5.63,-7.97,-7.92,6.00,5.81,7.12,0.32,0.37,2.29
33.55,-5.25,-5.26,-7.53,-7.54,6.00,5.81,7.04,0.75,0.74,2.28
33.89,-4.82,-4.90,-7.09,-7.17,6.00,5.81,6.94,1.18,1.10,2.27
34.23,-4.64,-4.64,-6.90,-6.90,6.00,5.81,6.83,1.36,1.36,2.27
34.57,-4.57,-4.53,-6.83,-6.78,6.01,5.81,6.72,1.43,1.48,2.26
34.92,-4.52,-4.56,-6.76,-6.81,6.02,5.81,6.60,1.50,1.46,2.24
35.27,-4.66,-4.74,-6.90,-6.97,6.01,5.80,6.47,1.35,1.28,2.24
35.62,-4.87,-4.88,-7.10,-7.11,5.99,5.80,6.34,1.12,1.11,2.23
35.97,-5.07,-4.87,-7.28,-7.08,5.97,5.78,6.21,0.90,1.10,2.21
36.33,-4.59,-4.56,-6.80,-6.76,5.95,5.76,6.07,1.36,1.39,2.21
36.70,-4.06,-4.12,-6.25,-6.32,5.95,5.73,5.92,1.90,1.83,2.19
37.06,-3.60,-3.74,-5.78,-5.93,5.97,5.69,5.78,2.37,2.23,2.18
37.43,-3.64,-3.60,-5.81,-5.77,5.98,5.63,5.64,2.35,2.38,2.18
37.81,-3.66,-3.63,-5.83,-5.79,5.96,5.57,5.49,2.29,2.33,2.16
38.19,-3.72,-3.79,-5.87,-5.94,5.89,5.49,5.35,2.16,2.10,2.15
38.57,-3.84,-3.86,-5.99,-6.00,5.76,5.40,5.20,1.92,1.90,2.14
38.95,-3.95,-3.80,-6.08,-5.92,5.61,5.30,5.06,1.66,1.81,2.13
39.34,-3.56,-3.55,-5.67,-5.66,5.43,5.20,4.91,1.87,1.88,2.11
39.74,-3.13,-3.19,-5.22,-5.29,5.27,5.10,4.77,2.14,2.08,2.10
40.14,-2.78,-2.81,-4.87,-4.90,5.14,4.99,4.63,2.37,2.33,2.09
40.54,-2.65,-2.60,-4.72,-4.68,5.05,4.88,4.49,2.40,2.44,2.08
40.94,-2.51,-2.58,-4.58,-4.65,4.97,4.77,4.35,2.47,2.39,2.07
41.35,-2.68,-2.69,-4.73,-4.75,4.92,4.66,4.22,2.25,2.23,2.05
41.76,-2.91,-2.86,-4.95,-4.91,4.88,4.56,4.09,1.97,2.02,2.05
42.18,-3.07,-3.09,-5.11,-5.13,4.83,4.45,3.96,1.77,1.74,2.04
42.60,-3.12,-3.15,-5.15,-5.18,4.77,4.35,3.83,1.65,1.62,2.02
43.03,-3.14,-2.95,-5.16,-4.97,4.68,4.25,3.71,1.54,1.73,2.02
43.46,-2.57,-2.58,-4.57,-4.58,4.54,4.15,3.59,1.97,1.96,2.00
43.90,-2.02,-2.18,-3.99,-4.15,4.33,4.06,3.47,2.31,2.15,1.97
44.33,-1.83,-1.86,-3.79,-3.82,4.08,3.97,3.35,2.24,2.22,1.96
44.78,-1.78,-1.74,-3.72,-3.68,3.81,3.87,3.24,2.03,2.07,1.94
45.23,-1.71,-1.69,-3.62,-3.61,3.57,3.78,3.12,1.87,1.88,1.92
45.68,-1.59,-1.58,-3.49,-3.48,3.39,3.70,3.02,1.81,1.81,1.90
46.13,-1.43,-1.38,-3.31,-3.27,3.28,3.61,2.91,1.84,1.89,1.88
46.60,-1.22,-1.22,-3.09,-3.09,3.20,3.52,2.80,1.98,1.98,1.87
47.06,-1.05,-1.20,-2.90,-3.06,3.13,3.44,2.70,2.09,1.93,1.85
47.53,-1.26,-1.25,-3.09,-3.09,3.06,3.36,2.60,1.81,1.81,1.83
48.01,-1.45,-1.25,-3.28,-3.07,2.97,3.27,2.51,1.52,1.72,1.82
48.49,-1.18,-1.19,-2.97,-2.98,2.87,3.19,2.41,1.70,1.69,1.79
48.97,-0.90,-1.07,-2.67,-2.83,2.77,3.11,2.32,1.87,1.71,1.76
49.46,-0.94,-0.95,-2.67,-2.68,2.68,3.03,2.23,1.74,1.73,1.73
49.96,-1.00,-0.85,-2.70,-2.55,2.58,2.95,2.14,1.58,1.73,1.70
50.46,-0.75,-0.73,-2.43,-2.41,2.46,2.87,2.05,1.71,1.73,1.69
50.96,-0.44,-0.61,-2.11,-2.27,2.33,2.79,1.97,1.88,1.72,1.66
51.47,-0.52,-0.54,-2.15,-2.17,2.21,2.71,1.88,1.68,1.67,1.63
51.99,-0.64,-0.52,-2.25,-2.13,2.10,2.63,1.80,1.45,1.58,1.61
52.51,-0.49,-0.49,-2.08,-2.08,2.00,2.55,1.72,1.52,1.51,1.59
53.03,-0.32,-0.37,-1.89,-1.94,1.92,2.47,1.64,1.60,1.55,1.57
53.56,-0.25,-0.25,-1.80,-1.79,1.85,2.39,1.57,1.60,1.60,1.54
54.10,-0.19,-0.19,-1.70,-1.70,1.77,2.31,1.49,1.59,1.59,1.52
54.64,-0.15,-0.16,-1.65,-1.65,1.68,2.22,1.42,1.53,1.52,1.49
55.18,-0.12,-0.14,-1.59,-1.60,1.57,2.14,1.35,1.44,1.43,1.46
55.74,-0.11,-0.10,-1.55,-1.55,1.45,2.06,1.28,1.33,1.34,1.44
56.29,-0.03,-0.02,-1.45,-1.43,1.33,1.98,1.21,1.29,1.31,1.42
56.86,0.12,0.17,-1.27,-1.23,1.21,1.90,1.14,1.34,1.38,1.39
57.42,0.36,0.36,-1.01,-1.01,1.09,1.82,1.07,1.44,1.44,1.36
58.00,0.60,0.48,-0.74,-0.86,0.94,1.74,1.01,1.55,1.43,1.34
58.58,0.53,0.56,-0.80,-0.76,0.80,1.65,0.94,1.32,1.36,1.32
59.16,0.53,0.62,-0.78,-0.69,0.66,1.57,0.88,1.18,1.27,1.30
59.76,0.71,0.67,-0.57,-0.61,0.54,1.49,0.82,1.25,1.21,1.28
60.35,0.83,0.80,-0.43,-0.45,0.44,1.41,0.76,1.27,1.24,1.25
60.96,0.89,0.93,-0.34,-0.29,0.36,1.32,0.70,1.25,1.30,1.23
61.57,1.00,0.97,-0.18,-0.21,0.28,1.24,0.64,1.29,1.26,1.19
62.18,1.04,0.97,-0.11,-0.19,0.20,1.15,0.58,1.24,1.16,1.15
62.80,0.89,0.96,-0.24,-0.16,0.11,1.07,0.52,0.99,1.06,1.13
63.43,0.94,0.98,-0.16,-0.11,0.02,0.99,0.46,0.95,1.00,1.09
64.07,1.08,1.07,0.02,0.00,-0.06,0.90,0.40,1.03,1.01,1.07
64.71,1.22,1.20,0.19,0.16,-0.13,0.82,0.35,1.10,1.07,1.04
65.35,1.29,1.27,0.27,0.26,-0.19,0.73,0.29,1.09,1.08,1.01
66.01,1.29,1.30,0.30,0.31,-0.26,0.64,0.24,1.03,1.04,0.98
66.67,1.29,1.29,0.33,0.34,-0.32,0.56,0.18,0.97,0.97,0.95
67.33,1.29,1.29,0.36,0.36,-0.37,0.47,0.13,0.91,0.91,0.93
68.01,1.29,1.29,0.39,0.39,-0.42,0.38,0.07,0.87,0.87,0.89
68.69,1.29,1.29,0.42,0.42,-0.45,0.30,0.02,0.84,0.84,0.86
69.37,1.29,1.29,0.45,0.45,-0.47,0.21,-0.04,0.82,0.82,0.83
70.07,1.29,1.29,0.49,0.48,-0.49,0.12,-0.09,0.80,0.80,0.80
70.77,1.29,1.29,0.51,0.51,-0.51,0.03,-0.14,0.78,0.78,0.77
71.48,1.29,1.29,0.54,0.55,-0.52,-0.05,-0.20,0.77,0.78,0.74
72.19,1.29,1.29,0.58,0.58,-0.53,-0.14,-0.25,0.75,0.75,0.71
72.91,1.28,1.25,0.62,0.58,-0.55,-0.23,-0.31,0.73,0.69,0.67
73.64,1.19,1.18,0.55,0.54,-0.58,-0.32,-0.36,0.60,0.60,0.63
74.38,1.13,1.17,0.52,0.57,-0.62,-0.41,-0.42,0.50,0.55,0.60
75.12,1.14,1.18,0.57,0.62,-0.67,-0.49,-0.47,0.46,0.51,0.57
75.87,1.34,1.22,0.81,0.68,-0.73,-0.58,-0.53,0.62,0.49,0.54
76.63,1.25,1.31,0.74,0.81,-0.78,-0.67,-0.59,0.47,0.53,0.51
77.40,1.32,1.38,0.84,0.91,-0.84,-0.76,-0.64,0.48,0.54,0.48
78.17,1.52,1.41,1.08,0.97,-0.91,-0.85,-0.70,0.61,0.51,0.43
78.95,1.45,1.46,1.03,1.05,-0.99,-0.94,-0.76,0.45,0.47,0.41
79.74,1.45,1.46,1.07,1.08,-1.10,-1.02,-0.82,0.35,0.36,0.38
80.54,1.46,1.45,1.11,1.10,-1.21,-1.11,-0.88,0.24,0.24,0.34
81.35,1.51,1.53,1.20,1.22,-1.33,-1.20,-0.94,0.17,0.20,0.31
82.16,1.66,1.68,1.38,1.41,-1.46,-1.29,-1.00,0.19,0.22,0.27
82.98,1.89,1.87,1.64,1.63,-1.60,-1.37,-1.07,0.28,0.27,0.25
83.81,2.09,2.04,1.89,1.83,-1.75,-1.46,-1.13,0.33,0.29,0.20
84.65,2.15,2.15,1.98,1.98,-1.91,-1.55,-1.20,0.24,0.25,0.16
85.50,2.20,2.21,2.06,2.08,-2.06,-1.63,-1.26,0.14,0.15,0.13
86.35,2.27,2.28,2.17,2.18,-2.20,-1.72,-1.33,0.07,0.08,0.09
87.22,2.33,2.37,2.28,2.31,-2.33,-1.80,-1.40,0.01,0.04,0.05
88.09,2.49,2.43,2.48,2.41,-2.44,-1.89,-1.47,0.06,-0.01,0.01
88.97,2.50,2.50,2.51,2.52,-2.54,-1.97,-1.54,-0.04,-0.04,-0.02
89.86,2.50,2.57,2.55,2.63,-2.64,-2.06,-1.61,-0.14,-0.07,-0.06
90.76,2.65,2.62,2.77,2.72,-2.73,-2.14,-1.69,-0.08,-0.11,-0.11
91.66,2.71,2.68,2.85,2.83,-2.82,-2.22,-1.76,-0.11,-0.14,-0.14
92.58,2.71,2.72,2.90,2.91,-2.89,-2.30,-1.84,-0.19,-0.17,-0.20
93.51,2.71,2.72,2.94,2.95,-2.94,-2.38,-1.92,-0.24,-0.23,-0.23
94.44,2.71,2.70,2.98,2.97,-2.97,-2.46,-2.00,-0.26,-0.27,-0.27
95.39,2.68,2.67,2.99,2.99,-2.96,-2.54,-2.08,-0.29,-0.30,-0.32
96.34,2.60,2.63,2.97,3.00,-2.94,-2.62,-2.16,-0.34,-0.31,-0.37
97.30,2.56,2.54,2.97,2.95,-2.91,-2.70,-2.24,-0.35,-0.37,-0.42
98.28,2.46,2.39,2.92,2.85,-2.87,-2.77,-2.32,-0.41,-0.48,-0.46
99.26,2.20,2.24,2.70,2.75,-2.82,-2.85,-2.40,-0.62,-0.58,-0.51
100.25,2.07,2.13,2.62,2.69,-2.77,-2.92,-2.49,-0.70,-0.63,-0.56
101.25,2.09,2.07,2.69,2.67,-2.71,-3.00,-2.57,-0.62,-0.64,-0.60
102.27,2.11,2.04,2.75,2.69,-2.65,-3.07,-2.66,-0.55,-0.61,-0.65
103.29,1.97,1.99,2.67,2.69,-2.60,-3.14,-2.74,-0.64,-0.61,-0.70
104.32,1.87,1.88,2.61,2.62,-2.57,-3.21,-2.82,-0.70,-0.69,-0.74
105.37,1.79,1.74,2.57,2.52,-2.54,-3.27,-2.91,-0.76,-0.81,-0.79
106.42,1.60,1.64,2.43,2.48,-2.53,-3.34,-2.99,-0.93,-0.89,-0.83
107.48,1.56,1.58,2.43,2.46,-2.52,-3.41,-3.07,-0.97,-0.94,-0.88
108.56,1.59,1.55,2.52,2.48,-2.52,-3.47,-3.15,-0.94,-0.97,-0.94
109.64,1.57,1.56,2.55,2.54,-2.53,-3.53,-3.23,-0.96,-0.97,-0.98
110.74,1.55,1.55,2.57,2.58,-2.55,-3.59,-3.31,-1.00,-0.99,-1.03
111.85,1.54,1.53,2.61,2.61,-2.59,-3.65,-3.39,-1.05,-1.05,-1.07
112.97,1.53,1.53,2.66,2.66,-2.63,-3.71,-3.46,-1.11,-1.10,-1.14
114.10,1.52,1.51,2.70,2.69,-2.69,-3.77,-3.53,-1.17,-1.18,-1.18
115.24,1.51,1.48,2.74,2.72,-2.74,-3.82,-3.59,-1.24,-1.27,-1.24
116.39,1.44,1.48,2.73,2.77,-2.81,-3.88,-3.66,-1.37,-1.32,-1.29
117.55,1.49,1.51,2.83,2.86,-2.87,-3.93,-3.71,-1.39,-1.36,-1.35
118.73,1.61,1.54,3.01,2.94,-2.94,-3.98,-3.77,-1.34,-1.40,-1.40
119.92,1.60,1.59,3.04,3.04,-3.02,-4.03,-3.82,-1.42,-1.43,-1.44
121.12,1.57,1.63,3.06,3.13,-3.10,-4.08,-3.86,-1.54,-1.47,-1.50
122.33,1.69,1.66,3.23,3.20,-3.20,-4.12,-3.90,-1.51,-1.54,-1.55
123.55,1.73,1.69,3.32,3.28,-3.29,-4.17,-3.94,-1.57,-1.60,-1.59
124.79,1.71,1.72,3.35,3.36,-3.38,-4.21,-3.97,-1.68,-1.66,-1.64
126.03,1.71,1.75,3.40,3.44,-3.47,-4.25,-3.99,-1.77,-1.72,-1.69
127.29,1.82,1.81,3.56,3.56,-3.56,-4.29,-4.01,-1.74,-1.75,-1.74
128.57,1.90,1.86,3.70,3.66,-3.64,-4.33,-4.03,-1.74,-1.78,-1.80
129.85,1.91,1.88,3.76,3.73,-3.71,-4.36,-4.03,-1.80,-1.82,-1.85
131.15,1.83,1.89,3.72,3.78,-3.76,-4.40,-4.04,-1.94,-1.88,-1.90
132.46,1.89,1.88,3.83,3.82,-3.81,-4.43,-4.04,-1.92,-1.93,-1.95
133.79,1.91,1.87,3.89,3.86,-3.84,-4.46,-4.04,-1.93,-1.97,-1.98
135.12,1.85,1.85,3.88,3.88,-3.86,-4.49,-4.03,-2.01,-2.01,-2.04
136.48,1.79,1.80,3.86,3.88,-3.87,-4.52,-4.02,-2.09,-2.07,-2.07
137.84,1.76,1.75,3.87,3.88,-3.90,-4.54,-4.01,-2.14,-2.14,-2.12
139.22,1.74,1.72,3.91,3.89,-3.93,-4.57,-3.99,-2.19,-2.21,-2.17
140.61,1.72,1.72,3.93,3.92,-3.98,-4.59,-3.97,-2.26,-2.26,-2.21
142.02,1.72,1.74,3.95,3.99,-4.04,-4.61,-3.95,-2.32,-2.30,-2.24
143.44,1.81,1.80,4.08,4.08,-4.11,-4.63,-3.93,-2.30,-2.31,-2.28
144.87,1.88,1.87,4.19,4.18,-4.18,-4.65,-3.91,-2.30,-2.31,-2.32
146.32,1.94,1.92,4.29,4.28,-4.25,-4.67,-3.89,-2.31,-2.32,-2.36
147.78,1.95,1.96,4.33,4.35,-4.30,-4.68,-3.86,-2.36,-2.35,-2.39
149.26,1.95,1.96,4.37,4.39,-4.34,-4.70,-3.84,-2.40,-2.38,-2.42
150.75,1.96,1.92,4.43,4.38,-4.36,-4.71,-3.82,-2.40,-2.44,-2.47
152.26,1.85,1.85,4.35,4.36,-4.35,-4.72,-3.80,-2.50,-2.50,-2.51
153.78,1.73,1.76,4.27,4.30,-4.31,-4.73,-3.77,-2.58,-2.55,-2.54
155.32,1.66,1.64,4.24,4.23,-4.23,-4.74,-3.75,-2.58,-2.59,-2.59
156.88,1.55,1.54,4.17,4.16,-4.13,-4.75,-3.74,-2.59,-2.59,-2.62
158.44,1.40,1.40,4.06,4.07,-4.02,-4.76,-3.72,-2.62,-2.61,-2.66
160.03,1.27,1.25,3.97,3.96,-3.90,-4.76,-3.70,-2.64,-2.65,-2.71
161.63,1.07,1.08,3.81,3.82,-3.81,-4.77,-3.69,-2.74,-2.73,-2.75
163.24,0.93,0.90,3.72,3.69,-3.74,-4.78,-3.68,-2.81,-2.84,-2.79
164.88,0.76,0.78,3.57,3.60,-3.71,-4.78,-3.67,-2.96,-2.93,-2.82
166.53,0.71,0.75,3.56,3.61,-3.73,-4.78,-3.67,-3.02,-2.98,-2.86
168.19,0.81,0.78,3.70,3.68,-3.78,-4.78,-3.67,-2.98,-3.00,-2.90
169.87,0.92,0.89,3.85,3.82,-3.86,-4.79,-3.66,-2.94,-2.97,-2.93
171.57,0.99,1.03,3.96,4.00,-3.95,-4.79,-3.67,-2.96,-2.92,-2.97
173.29,1.15,1.15,4.15,4.16,-4.04,-4.79,-3.67,-2.89,-2.89,-3.01
175.02,1.29,1.23,4.33,4.28,-4.13,-4.79,-3.68,-2.84,-2.90,-3.04
176.77,1.25,1.24,4.33,4.33,-4.21,-4.79,-3.69,-2.97,-2.97,-3.09
178.54,1.19,1.18,4.32,4.31,-4.29,-4.80,-3.71,-3.10,-3.11,-3.13
180.32,1.10,1.12,4.26,4.28,-4.37,-4.80,-3.72,-3.27,-3.25,-3.16
182.13,1.11,1.13,4.30,4.33,-4.45,-4.80,-3.75,-3.34,-3.32,-3.20
183.95,1.21,1.20,4.44,4.44,-4.55,-4.80,-3.77,-3.35,-3.35,-3.24
185.79,1.35,1.34,4.62,4.61,-4.68,-4.81,-3.79,-3.33,-3.34,-3.27
187.65,1.50,1.50,4.81,4.81,-4.82,-4.81,-3.82,-3.33,-3.32,-3.31
189.52,1.68,1.67,5.02,5.01,-4.98,-4.82,-3.85,-3.31,-3.31,-3.34
191.42,1.83,1.83,5.20,5.20,-5.14,-4.82,-3.89,-3.32,-3.31,-3.37
193.33,1.97,1.96,5.37,5.36,-5.29,-4.83,-3.92,-3.32,-3.32,-3.40
195.27,2.06,2.04,5.48,5.47,-5.40,-4.84,-3.96,-3.35,-3.36,-3.43
197.22,2.07,2.06,5.52,5.52,-5.48,-4.85,-4.00,-3.41,-3.42,-3.46
199.19,2.03,2.04,5.52,5.53,-5.52,-4.86,-4.04,-3.50,-3.48,-3.49
201.18,2.01,2.00,5.51,5.51,-5.54,-4.87,-4.09,-3.53,-3.54,-3.51
203.19,1.97,1.97,5.49,5.50,-5.53,-4.88,-4.13,-3.56,-3.56,-3.53
205.23,1.93,1.94,5.48,5.48,-5.50,-4.90,-4.18,-3.58,-3.56,-3.55
207.28,1.92,1.91,5.47,5.47,-5.47,-4.91,-4.23,-3.55,-3.56,-3.56
209.35,1.87,1.85,5.45,5.44,-5.43,-4.92,-4.27,-3.57,-3.58,-3.58
211.44,1.80,1.79,5.40,5.38,-5.40,-4.93,-4.32,-3.60,-3.61,-3.60
213.56,1.71,1.74,5.31,5.35,-5.36,-4.94,-4.37,-3.65,-3.61,-3.61
215.69,1.69,1.70,5.30,5.32,-5.32,-4.95,-4.42,-3.63,-3.62,-3.61
217.85,1.72,1.65,5.34,5.27,-5.27,-4.94,-4.46,-3.56,-3.62,-3.62
220.03,1.58,1.60,5.21,5.23,-5.22,-4.94,-4.51,-3.65,-3.62,-3.64
222.23,1.50,1.53,5.14,5.17,-5.17,-4.92,-4.55,-3.68,-3.64,-3.65
224.45,1.49,1.46,5.13,5.11,-5.12,-4.90,-4.59,-3.64,-3.66,-3.64
226.70,1.43,1.43,5.07,5.07,-5.07,-4.87,-4.63,-3.64,-3.64,-3.64
228.96,1.39,1.38,5.03,5.02,-5.02,-4.83,-4.66,-3.63,-3.63,-3.64
231.25,1.32,1.32,4.95,4.95,-4.96,-4.79,-4.69,-3.64,-3.64,-3.63
233.57,1.28,1.28,4.91,4.91,-4.90,-4.73,-4.71,-3.63,-3.63,-3.63
235.90,1.21,1.23,4.84,4.86,-4.85,-4.67,-4.73,-3.65,-3.62,-3.63
238.26,1.23,1.18,4.86,4.81,-4.81,-4.60,-4.75,-3.58,-3.63,-3.63
240.64,1.12,1.12,4.74,4.75,-4.77,-4.53,-4.76,-3.65,-3.64,-3.62
243.05,1.06,1.10,4.66,4.71,-4.73,-4.46,-4.76,-3.67,-3.63,-3.61
245.48,1.08,1.06,4.67,4.65,-4.69,-4.38,-4.76,-3.61,-3.63,-3.60
247.93,1.09,1.06,4.67,4.65,-4.65,-4.30,-4.75,-3.57,-3.59,-3.59
250.41,1.02,1.07,4.60,4.64,-4.61,-4.23,-4.73,-3.60,-3.55,-3.58
252.92,1.08,1.02,4.64,4.58,-4.57,-4.15,-4.71,-3.49,-3.55,-3.56
255.45,0.99,0.97,4.52,4.52,-4.52,-4.07,-4.68,-3.53,-3.54,-3.54
258.00,0.88,0.94,4.40,4.47,-4.45,-4.00,-4.65,-3.58,-3.51,-3.53
260.58,0.90,0.87,4.41,4.38,-4.37,-3.93,-4.61,-3.48,-3.50,-3.51
263.19,0.85,0.81,4.33,4.30,-4.28,-3.86,-4.56,-3.44,-3.47,-3.49
265.82,0.70,0.73,4.17,4.20,-4.18,-3.79,-4.51,-3.48,-3.45,-3.48
268.48,0.63,0.62,4.08,4.07,-4.07,-3.72,-4.45,-3.45,-3.45,-3.45
271.16,0.52,0.52,3.94,3.95,-3.97,-3.66,-4.39,-3.46,-3.45,-3.43
273.87,0.45,0.42,3.86,3.83,-3.87,-3.60,-4.32,-3.43,-3.45,-3.41
276.61,0.35,0.34,3.73,3.74,-3.77,-3.54,-4.25,-3.42,-3.42,-3.39
279.38,0.24,0.30,3.61,3.68,-3.67,-3.48,-4.17,-3.44,-3.37,-3.37
282.17,0.29,0.23,3.64,3.58,-3.58,-3.42,-4.10,-3.29,-3.35,-3.36
284.99,0.21,0.15,3.54,3.49,-3.48,-3.36,-4.01,-3.28,-3.33,-3.33
287.84,-0.00,0.09,3.31,3.40,-3.38,-3.31,-3.93,-3.39,-3.29,-3.32
290.72,0.01,0.00,3.30,3.30,-3.28,-3.26,-3.84,-3.27,-3.27,-3.29
293.63,-0.03,-0.09,3.24,3.19,-3.18,-3.21,-3.76,-3.21,-3.26,-3.28
296.57,-0.15,-0.18,3.10,3.07,-3.07,-3.16,-3.67,-3.23,-3.25,-3.25
299.53,-0.35,-0.28,2.88,2.95,-2.97,-3.11,-3.58,-3.32,-3.25,-3.24
302.53,-0.39,-0.39,2.83,2.82,-2.86,-3.06,-3.49,-3.26,-3.25,-3.22
305.55,-0.38,-0.47,2.80,2.72,-2.76,-3.01,-3.40,-3.14,-3.22,-3.18
308.61,-0.56,-0.49,2.60,2.67,-2.65,-2.97,-3.31,-3.22,-3.15,-3.17
311.69,-0.56,-0.54,2.58,2.59,-2.56,-2.92,-3.22,-3.12,-3.10,-3.14
314.81,-0.54,-0.64,2.56,2.47,-2.47,-2.88,-3.13,-3.01,-3.10,-3.10
317.96,-0.72,-0.71,2.36,2.38,-2.37,-2.84,-3.04,-3.10,-3.08,-3.09
321.14,-0.86,-0.80,2.21,2.27,-2.28,-2.79,-2.95,-3.15,-3.08,-3.07
324.35,-0.84,-0.86,2.21,2.19,-2.20,-2.75,-2.87,-3.04,-3.06,-3.05
327.59,-0.87,-0.91,2.15,2.12,-2.12,-2.71,-2.78,-2.99,-3.02,-3.03
330.87,-0.94,-0.97,2.06,2.04,-2.04,-2.67,-2.70,-2.98,-3.01,-3.01
334.18,-1.08,-1.05,1.91,1.94,-1.97,-2.63,-2.61,-3.05,-3.01,-2.99
337.52,-1.12,-1.08,1.85,1.89,-1.90,-2.59,-2.53,-3.03,-2.98,-2.97
340.90,-1.06,-1.09,1.88,1.86,-1.85,-2.56,-2.45,-2.92,-2.95,-2.95
344.30,-1.05,-1.12,1.88,1.81,-1.81,-2.52,-2.37,-2.86,-2.93,-2.93
347.75,-1.18,-1.15,1.73,1.76,-1.76,-2.48,-2.30,-2.95,-2.92,-2.91
351.23,-1.25,-1.19,1.64,1.70,-1.71,-2.45,-2.22,-2.97,-2.91,-2.89
354.74,-1.17,-1.21,1.70,1.66,-1.66,-2.41,-2.15,-2.84,-2.87,-2.88
358.28,-1.19,-1.21,1.66,1.65,-1.61,-2.37,-2.07,-2.80,-2.82,-2.86
361.87,-1.24,-1.24,1.60,1.61,-1.55,-2.34,-2.00,-2.80,-2.79,-2.84
365.49,-1.31,-1.34,1.52,1.50,-1.49,-2.31,-1.94,-2.81,-2.83,-2.83
369.14,-1.41,-1.42,1.41,1.40,-1.44,-2.27,-1.87,-2.85,-2.86,-2.82
372.83,-1.52,-1.46,1.28,1.35,-1.38,-2.24,-1.80,-2.91,-2.85,-2.81
376.56,-1.46,-1.46,1.33,1.33,-1.34,-2.21,-1.74,-2.81,-2.80,-2.80
380.33,-1.41,-1.47,1.36,1.30,-1.31,-2.17,-1.68,-2.72,-2.78,-2.77
384.13,-1.45,-1.50,1.31,1.26,-1.28,-2.14,-1.62,-2.73,-2.78,-2.76
387.97,-1.60,-1.51,1.15,1.24,-1.26,-2.11,-1.56,-2.86,-2.77,-2.75
391.85,-1.54,-1.50,1.20,1.24,-1.24,-2.08,-1.50,-2.78,-2.74,-2.74
395.77,-1.37,-1.47,1.35,1.26,-1.22,-2.05,-1.44,-2.59,-2.69,-2.73
399.73,-1.44,-1.46,1.27,1.26,-1.19,-2.02,-1.39,-2.64,-2.66,-2.72
403.72,-1.55,-1.51,1.15,1.20,-1.17,-1.99,-1.34,-2.72,-2.68,-2.71
407.76,-1.59,-1.58,1.11,1.11,-1.14,-1.96,-1.28,-2.74,-2.72,-2.70
411.84,-1.59,-1.60,1.09,1.08,-1.12,-1.93,-1.23,-2.71,-2.72,-2.68
415.96,-1.59,-1.60,1.08,1.07,-1.09,-1.90,-1.19,-2.69,-2.69,-2.67
420.12,-1.59,-1.60,1.07,1.07,-1.07,-1.88,-1.14,-2.67,-2.67,-2.66
424.32,-1.59,-1.59,1.06,1.06,-1.06,-1.85,-1.09,-2.65,-2.65,-2.65
428.56,-1.58,-1.58,1.06,1.06,-1.06,-1.82,-1.05,-2.64,-2.64,-2.65
432.85,-1.56,-1.57,1.07,1.07,-1.07,-1.79,-1.01,-2.63,-2.63,-2.64
437.18,-1.53,-1.54,1.09,1.09,-1.09,-1.77,-0.97,-2.62,-2.63,-2.63
441.55,-1.50,-1.50,1.10,1.11,-1.11,-1.74,-0.93,-2.62,-2.62,-2.61
445.96,-1.45,-1.46,1.15,1.14,-1.15,-1.72,-0.89,-2.60,-2.61,-2.60
450.42,-1.40,-1.40,1.19,1.18,-1.20,-1.69,-0.86,-2.60,-2.60,-2.59
454.93,-1.34,-1.35,1.23,1.23,-1.26,-1.67,-0.82,-2.60,-2.61,-2.57
459.48,-1.28,-1.29,1.28,1.27,-1.31,-1.64,-0.79,-2.59,-2.60,-2.56
464.07,-1.22,-1.19,1.32,1.35,-1.35,-1.62,-0.76,-2.57,-2.54,-2.54
468.71,-1.12,-1.10,1.40,1.42,-1.37,-1.60,-0.73,-2.50,-2.48,-2.52
473.40,-0.97,-1.05,1.54,1.46,-1.39,-1.57,-0.71,-2.36,-2.44,-2.51
