frequency,raw,error,smoothed,error_smoothed,equalization,parametric_eq,fixed_band_eq,equalized_raw,equalized_smoothed,target
20.00,-12.50,-16.10,-12.36,-16.00,6.00,4.37,2.89,-6.50,-6.36,3.61
20.20,-12.31,-15.96,-12.23,-15.90,6.00,4.45,2.97,-6.31,-6.23,3.66
20.40,-12.12,-15.82,-12.10,-15.81,6.00,4.54,3.06,-6.12,-6.10,3.71
20.61,-11.93,-15.67,-11.97,-15.71,6.00,4.63,3.14,-5.93,-5.97,3.73
20.81,-11.74,-15.52,-11.84,-15.61,6.00,4.72,3.24,-5.74,-5.84,3.79
21.02,-11.56,-15.38,-11.70,-15.50,6.00,4.81,3.33,-5.56,-5.70,3.82
21.23,-11.46,-15.30,-11.57,-15.39,6.00,4.90,3.42,-5.46,-5.57,3.84
21.44,-11.37,-15.23,-11.44,-15.28,6.00,4.98,3.52,-5.37,-5.44,3.86
21.66,-11.27,-15.15,-11.30,-15.17,6.00,5.08,3.62,-5.27,-5.30,3.88
21.87,-11.18,-15.07,-11.17,-15.05,6.00,5.17,3.73,-5.18,-5.17,3.89
22.09,-11.07,-14.98,-11.04,-14.94,6.00,5.26,3.84,-5.07,-5.04,3.91
22.31,-10.95,-14.87,-10.90,-14.81,6.00,5.35,3.95,-4.95,-4.90,3.92
22.54,-10.82,-14.74,-10.78,-14.70,6.00,5.44,4.06,-4.82,-4.78,3.92
22.76,-10.70,-14.62,-10.66,-14.58,6.00,5.52,4.18,-4.70,-4.66,3.92
22.99,-10.58,-14.49,-10.53,-14.45,6.00,5.61,4.30,-4.58,-4.53,3.91
23.22,-10.42,-14.33,-10.39,-14.32,6.00,5.70,4.42,-4.42,-4.39,3.91
23.45,-10.26,-14.17,-10.26,-14.19,6.00,5.79,4.54,-4.26,-4.26,3.91
23.69,-10.11,-14.03,-10.12,-14.04,6.00,5.87,4.67,-4.11,-4.12,3.92
23.92,-9.95,-13.87,-9.97,-13.90,6.00,5.95,4.80,-3.95,-3.97,3.92
24.16,-9.80,-13.73,-9.83,-13.76,6.00,6.04,4.93,-3.80,-3.83,3.93
24.40,-9.65,-13.59,-9.68,-13.61,6.00,6.11,5.07,-3.65,-3.68,3.94
24.65,-9.51,-13.44,-9.53,-13.46,6.00,6.19,5.21,-3.51,-3.53,3.93
24.89,-9.36,-13.29,-9.38,-13.31,6.00,6.27,5.35,-3.36,-3.38,3.93
25.14,-9.23,-13.16,-9.23,-13.16,6.00,6.34,5.49,-3.23,-3.23,3.93
25.39,-9.10,-13.03,-9.08,-13.01,6.00,6.40,5.63,-3.10,-3.08,3.94
25.65,-8.98,-12.92,-8.94,-12.87,6.00,6.47,5.77,-2.98,-2.94,3.94
25.91,-8.86,-12.79,-8.79,-12.73,6.00,6.53,5.92,-2.86,-2.79,3.93
26.16,-8.69,-12.61,-8.65,-12.59,6.00,6.58,6.06,-2.69,-2.65,3.93
26.43,-8.51,-12.44,-8.51,-12.44,6.00,6.64,6.20,-2.51,-2.51,3.93
26.69,-8.33,-12.25,-8.37,-12.30,6.00,6.68,6.35,-2.33,-2.37,3.93
26.96,-8.15,-12.08,-8.23,-12.15,6.00,6.73,6.49,-2.15,-2.23,3.93
27.23,-8.03,-11.96,-8.08,-12.01,6.00,6.76,6.62,-2.03,-2.08,3.93
27.50,-7.93,-11.86,-7.94,-11.86,6.00,6.79,6.76,-1.93,-1.94,3.93
27.77,-7.82,-11.74,-7.79,-11.72,6.00,6.82,6.89,-1.82,-1.79,3.92
28.05,-7.71,-11.63,-7.65,-11.57,6.00,6.84,7.01,-1.71,-1.65,3.92
28.33,-7.55,-11.46,-7.51,-11.43,6.00,6.86,7.13,-1.55,-1.51,3.91
28.62,-7.38,-11.29,-7.36,-11.28,6.00,6.87,7.24,-1.38,-1.36,3.91
28.90,-7.22,-11.14,-7.23,-11.15,6.00,6.87,7.34,-1.22,-1.23,3.92
29.19,-7.07,-10.98,-7.09,-11.01,6.00,6.87,7.44,-1.07,-1.09,3.91
29.48,-6.94,-10.86,-6.96,-10.88,6.00,6.86,7.52,-0.94,-0.96,3.93
29.78,-6.81,-10.73,-6.83,-10.74,6.00,6.85,7.59,-0.81,-0.83,3.92
30.08,-6.68,-10.61,-6.69,-10.60,6.00,6.83,7.65,-0.68,-0.69,3.92
30.38,-6.55,-10.46,-6.55,-10.47,6.00,6.80,7.70,-0.55,-0.55,3.91
30.68,-6.42,-10.33,-6.42,-10.33,6.00,6.77,7.73,-0.42,-0.42,3.91
30.99,-6.29,-10.20,-6.28,-10.20,6.00,6.73,7.75,-0.29,-0.28,3.91
31.30,-6.16,-10.07,-6.16,-10.07,6.00,6.69,7.76,-0.16,-0.16,3.91
31.61,-6.03,-9.94,-6.03,-9.94,6.00,6.64,7.75,-0.03,-0.03,3.91
31.93,-5.90,-9.81,-5.91,-9.81,6.00,6.59,7.73,0.10,0.09,3.91
32.24,-5.77,-9.66,-5.78,-9.68,6.00,6.54,7.70,0.23,0.22,3.90
32.57,-5.65,-9.55,-5.65,-9.55,6.00,6.48,7.65,0.35,0.35,3.91
32.89,-5.52,-9.42,-5.52,-9.42,6.00,6.41,7.59,0.48,0.48,3.90
33.22,-5.40,-9.29,-5.39,-9.28,6.00,6.35,7.51,0.60,0.61,3.89
33.55,-5.27,-9.16,-5.25,-9.14,6.00,6.28,7.43,0.73,0.75,3.89
33.89,-5.15,-9.03,-5.12,-9.00,6.00,6.20,7.34,0.85,0.88,3.88
34.23,-5.01,-8.90,-4.98,-8.86,6.00,6.12,7.24,0.99,1.02,3.89
34.57,-4.86,-8.73,-4.84,-8.72,6.00,6.05,7.13,1.14,1.16,3.88
34.92,-4.71,-8.58,-4.69,-8.57,6.00,5.96,7.01,1.29,1.31,3.87
35.27,-4.56,-8.43,-4.56,-8.43,6.00,5.88,6.89,1.44,1.44,3.87
35.62,-4.42,-8.29,-4.43,-8.30,6.00,5.79,6.76,1.58,1.57,3.87
35.97,-4.28,-8.14,-4.31,-8.18,6.00,5.71,6.63,1.72,1.69,3.87
36.33,-4.16,-8.03,-4.19,-8.06,6.00,5.62,6.49,1.84,1.81,3.88
36.70,-4.03,-7.89,-4.07,-7.94,6.00,5.53,6.36,1.97,1.93,3.86
37.06,-3.91,-7.77,-3.95,-7.83,6.00,5.44,6.22,2.09,2.05,3.86
37.43,-3.78,-7.66,-3.84,-7.71,6.00,5.35,6.08,2.22,2.16,3.88
37.81,-3.65,-7.52,-3.72,-7.60,6.00,5.26,5.94,2.35,2.28,3.88
38.19,-3.58,-7.45,-3.60,-7.48,6.00,5.16,5.80,2.42,2.40,3.87
38.57,-3.56,-7.44,-3.49,-7.37,6.00,5.07,5.66,2.44,2.51,3.88
38.95,-3.53,-7.41,-3.37,-7.25,6.00,4.98,5.52,2.47,2.63,3.89
39.34,-3.36,-7.24,-3.25,-7.13,6.00,4.89,5.39,2.64,2.75,3.88
39.74,-3.17,-7.05,-3.12,-7.01,6.00,4.80,5.25,2.83,2.88,3.88
40.14,-3.00,-6.89,-3.00,-6.88,6.00,4.71,5.12,3.00,3.00,3.89
40.54,-2.84,-6.72,-2.86,-6.75,6.00,4.61,4.99,3.16,3.14,3.88
40.94,-2.68,-6.56,-2.73,-6.61,6.00,4.52,4.87,3.32,3.27,3.88
41.35,-2.55,-6.43,-2.59,-6.47,6.00,4.43,4.74,3.45,3.41,3.88
41.76,-2.42,-6.29,-2.46,-6.34,5.98,4.35,4.62,3.56,3.52,3.87
42.18,-2.29,-6.17,-2.33,-6.20,5.94,4.26,4.50,3.65,3.61,3.88
42.60,-2.17,-6.03,-2.19,-6.05,5.88,4.17,4.39,3.71,3.69,3.87
43.03,-2.04,-5.90,-2.03,-5.88,5.79,4.08,4.27,3.75,3.76,3.86
43.46,-1.92,-5.78,-1.89,-5.73,5.69,4.00,4.16,3.77,3.80,3.86
43.90,-1.79,-5.62,-1.76,-5.60,5.58,3.91,4.06,3.79,3.82,3.83
44.33,-1.66,-5.48,-1.64,-5.47,5.46,3.83,3.95,3.81,3.82,3.82
44.78,-1.53,-5.33,-1.52,-5.34,5.34,3.75,3.85,3.81,3.81,3.80
45.23,-1.42,-5.22,-1.40,-5.20,5.20,3.66,3.76,3.78,3.80,3.80
45.68,-1.35,-5.13,-1.27,-5.06,5.06,3.58,3.66,3.72,3.79,3.78
46.13,-1.22,-4.98,-1.15,-4.93,4.93,3.50,3.57,3.72,3.78,3.77
46.60,-0.93,-4.70,-1.03,-4.80,4.80,3.43,3.48,3.87,3.77,3.77
47.06,-0.70,-4.45,-0.92,-4.68,4.68,3.35,3.39,3.98,3.76,3.76
47.53,-0.75,-4.50,-0.81,-4.55,4.55,3.27,3.31,3.81,3.75,3.75
48.01,-0.80,-4.55,-0.69,-4.43,4.43,3.20,3.23,3.63,3.74,3.75
48.49,-0.65,-4.39,-0.57,-4.30,4.30,3.12,3.15,3.65,3.73,3.74
48.97,-0.50,-4.22,-0.45,-4.17,4.17,3.05,3.08,3.67,3.72,3.72
49.46,-0.33,-4.03,-0.33,-4.03,4.03,2.98,3.00,3.71,3.71,3.70
49.96,-0.16,-3.85,-0.21,-3.91,3.91,2.91,2.93,3.75,3.70,3.69
50.46,-0.13,-3.82,-0.09,-3.78,3.78,2.84,2.86,3.65,3.69,3.69
50.96,-0.11,-3.79,0.02,-3.66,3.66,2.77,2.80,3.55,3.68,3.68
51.47,0.06,-3.60,0.13,-3.55,3.55,2.70,2.73,3.61,3.67,3.66
51.99,0.24,-3.41,0.22,-3.45,3.45,2.63,2.67,3.68,3.66,3.65
52.51,0.41,-3.24,0.33,-3.33,3.33,2.57,2.61,3.74,3.66,3.65
53.03,0.57,-3.08,0.45,-3.20,3.20,2.50,2.55,3.77,3.65,3.66
53.56,0.65,-2.99,0.56,-3.08,3.08,2.44,2.49,3.73,3.64,3.65
54.10,0.71,-2.93,0.66,-2.97,2.97,2.37,2.44,3.68,3.64,3.64
54.64,0.72,-2.90,0.75,-2.88,2.88,2.31,2.38,3.60,3.63,3.63
55.18,0.77,-2.85,0.85,-2.78,2.78,2.25,2.33,3.55,3.63,3.63
55.74,0.92,-2.69,0.94,-2.68,2.68,2.19,2.28,3.60,3.62,3.61
56.29,1.00,-2.61,1.04,-2.57,2.57,2.13,2.23,3.58,3.61,3.61
56.86,1.02,-2.58,1.13,-2.48,2.48,2.07,2.18,3.50,3.60,3.60
57.42,1.18,-2.40,1.21,-2.38,2.38,2.01,2.13,3.57,3.59,3.58
58.00,1.39,-2.19,1.30,-2.28,2.28,1.95,2.08,3.67,3.58,3.58
58.58,1.42,-2.15,1.38,-2.18,2.18,1.89,2.03,3.61,3.57,3.58
59.16,1.45,-2.11,1.45,-2.09,2.09,1.83,1.98,3.55,3.55,3.56
59.76,1.51,-2.04,1.54,-1.99,1.99,1.77,1.94,3.50,3.53,3.55
60.35,1.61,-1.90,1.63,-1.87,1.87,1.72,1.89,3.49,3.50,3.51
60.96,1.75,-1.74,1.72,-1.76,1.76,1.66,1.85,3.51,3.48,3.49
61.57,1.82,-1.63,1.81,-1.64,1.64,1.60,1.80,3.46,3.45,3.45
62.18,1.88,-1.54,1.88,-1.54,1.54,1.55,1.75,3.43,3.42,3.42
62.80,1.94,-1.44,1.93,-1.46,1.46,1.49,1.71,3.40,3.39,3.38
63.43,2.01,-1.33,1.99,-1.36,1.36,1.44,1.66,3.38,3.35,3.35
64.07,2.06,-1.25,2.05,-1.27,1.27,1.38,1.62,3.33,3.32,3.31
64.71,1.98,-1.29,2.10,-1.18,1.18,1.33,1.57,3.16,3.28,3.27
65.35,2.10,-1.14,2.16,-1.09,1.09,1.27,1.53,3.19,3.24,3.24
66.01,2.39,-0.82,2.21,-1.00,1.00,1.21,1.48,3.39,3.21,3.21
66.67,2.31,-0.86,2.24,-0.92,0.92,1.16,1.44,3.24,3.17,3.17
67.33,2.27,-0.86,2.28,-0.85,0.85,1.10,1.40,3.12,3.13,3.13
68.01,2.27,-0.83,2.31,-0.78,0.78,1.05,1.35,3.05,3.09,3.10
68.69,2.19,-0.86,2.35,-0.70,0.70,0.99,1.31,2.89,3.05,3.06
69.37,2.32,-0.69,2.38,-0.63,0.63,0.93,1.26,2.95,3.01,3.01
70.07,2.58,-0.39,2.41,-0.57,0.57,0.87,1.22,3.15,2.97,2.97
70.77,2.50,-0.44,2.43,-0.50,0.50,0.82,1.17,3.00,2.93,2.94
71.48,2.42,-0.48,2.45,-0.43,0.43,0.76,1.13,2.85,2.89,2.90
72.19,2.39,-0.45,2.48,-0.36,0.36,0.70,1.08,2.76,2.84,2.84
72.91,2.48,-0.32,2.49,-0.31,0.31,0.64,1.04,2.79,2.80,2.80
73.64,2.54,-0.21,2.51,-0.25,0.25,0.57,0.99,2.79,2.76,2.76
74.38,2.57,-0.14,2.53,-0.18,0.18,0.51,0.95,2.75,2.71,2.71
75.12,2.57,-0.09,2.55,-0.12,0.12,0.45,0.91,2.69,2.67,2.66
75.87,2.56,-0.06,2.57,-0.06,0.06,0.38,0.86,2.62,2.63,2.62
76.63,2.50,-0.08,2.59,0.00,-0.00,0.32,0.82,2.50,2.59,2.58
77.40,2.55,0.01,2.60,0.05,-0.05,0.25,0.77,2.50,2.55,2.54
78.17,2.67,0.18,2.61,0.10,-0.10,0.18,0.73,2.57,2.51,2.49
78.95,2.67,0.20,2.63,0.16,-0.16,0.11,0.69,2.51,2.47,2.47
79.74,2.67,0.24,2.65,0.21,-0.21,0.04,0.64,2.46,2.44,2.44
80.54,2.66,0.26,2.66,0.26,-0.26,-0.03,0.60,2.40,2.40,2.41
81.35,2.63,0.27,2.67,0.31,-0.31,-0.10,0.56,2.33,2.37,2.36
82.16,2.62,0.29,2.69,0.36,-0.36,-0.17,0.51,2.27,2.34,2.33
82.98,2.76,0.45,2.71,0.41,-0.41,-0.24,0.47,2.35,2.30,2.31
83.81,2.77,0.50,2.73,0.46,-0.46,-0.32,0.43,2.31,2.27,2.27
84.65,2.77,0.54,2.76,0.52,-0.52,-0.39,0.38,2.25,2.24,2.24
85.50,2.75,0.54,2.78,0.58,-0.58,-0.46,0.34,2.18,2.21,2.21
86.35,2.72,0.54,2.80,0.63,-0.63,-0.54,0.30,2.10,2.17,2.18
87.22,2.74,0.60,2.81,0.67,-0.67,-0.61,0.26,2.07,2.14,2.14
88.09,2.87,0.76,2.82,0.72,-0.72,-0.68,0.21,2.15,2.11,2.11
88.97,2.87,0.80,2.84,0.77,-0.77,-0.74,0.17,2.10,2.07,2.07
89.86,2.87,0.83,2.86,0.82,-0.82,-0.81,0.13,2.05,2.04,2.04
90.76,2.88,0.88,2.86,0.86,-0.86,-0.87,0.08,2.02,2.01,2.00
91.66,2.88,0.91,2.86,0.89,-0.89,-0.92,0.04,1.99,1.97,1.98
92.58,2.88,0.95,2.85,0.91,-0.91,-0.97,-0.00,1.97,1.94,1.93
93.51,2.88,0.98,2.85,0.94,-0.94,-1.02,-0.04,1.94,1.91,1.90
94.44,2.85,0.98,2.84,0.97,-0.97,-1.06,-0.09,1.88,1.87,1.87
95.39,2.77,0.93,2.83,0.99,-0.99,-1.09,-0.13,1.78,1.84,1.85
96.34,2.74,0.93,2.80,0.99,-0.99,-1.12,-0.17,1.75,1.81,1.81
97.30,2.80,1.02,2.77,0.98,-0.98,-1.14,-0.21,1.82,1.78,1.78
98.28,2.78,1.03,2.72,0.97,-0.97,-1.15,-0.26,1.81,1.75,1.75
99.26,2.66,0.94,2.68,0.96,-0.96,-1.16,-0.30,1.70,1.72,1.72
100.25,2.62,0.93,2.65,0.96,-0.96,-1.15,-0.34,1.66,1.69,1.69
101.25,2.61,0.95,2.61,0.94,-0.94,-1.15,-0.38,1.67,1.66,1.66
102.27,2.60,0.97,2.56,0.92,-0.92,-1.13,-0.42,1.68,1.63,1.63
103.29,2.56,0.97,2.50,0.90,-0.90,-1.11,-0.46,1.66,1.60,1.60
104.32,2.46,0.89,2.45,0.88,-0.88,-1.08,-0.50,1.58,1.57,1.58
105.37,2.30,0.76,2.41,0.87,-0.87,-1.05,-0.54,1.43,1.54,1.55
106.42,2.29,0.77,2.35,0.85,-0.85,-1.02,-0.58,1.44,1.51,1.52
107.48,2.29,0.81,2.29,0.82,-0.82,-0.98,-0.61,1.47,1.47,1.48
108.56,2.28,0.84,2.23,0.79,-0.79,-0.94,-0.65,1.49,1.44,1.44
109.64,2.27,0.86,2.18,0.77,-0.77,-0.90,-0.68,1.50,1.41,1.41
110.74,2.15,0.78,2.13,0.76,-0.76,-0.85,-0.71,1.39,1.37,1.37
111.85,1.98,0.63,2.07,0.73,-0.73,-0.81,-0.75,1.25,1.34,1.35
112.97,1.97,0.67,2.02,0.71,-0.71,-0.76,-0.77,1.26,1.31,1.30
114.10,1.99,0.72,1.97,0.69,-0.69,-0.72,-0.80,1.30,1.28,1.27
115.24,1.99,0.75,1.93,0.69,-0.69,-0.67,-0.83,1.31,1.25,1.25
116.39,1.85,0.64,1.90,0.67,-0.67,-0.63,-0.85,1.18,1.22,1.21
117.55,1.76,0.57,1.85,0.65,-0.65,-0.58,-0.87,1.11,1.20,1.19
118.73,1.78,0.62,1.80,0.63,-0.63,-0.54,-0.89,1.15,1.17,1.16
119.92,1.84,0.69,1.76,0.61,-0.61,-0.50,-0.90,1.23,1.15,1.16
121.12,1.76,0.63,1.73,0.59,-0.59,-0.46,-0.91,1.17,1.14,1.13
122.33,1.66,0.55,1.69,0.57,-0.57,-0.42,-0.92,1.09,1.12,1.11
123.55,1.62,0.52,1.65,0.55,-0.55,-0.38,-0.93,1.07,1.10,1.11
124.79,1.65,0.56,1.62,0.54,-0.54,-0.34,-0.93,1.12,1.09,1.09
126.03,1.68,0.60,1.58,0.51,-0.51,-0.31,-0.93,1.17,1.07,1.08
127.29,1.51,0.44,1.54,0.48,-0.48,-0.27,-0.93,1.03,1.06,1.07
128.57,1.42,0.37,1.50,0.45,-0.45,-0.24,-0.93,0.97,1.05,1.05
129.85,1.45,0.42,1.46,0.43,-0.43,-0.21,-0.92,1.02,1.03,1.03
131.15,1.47,0.45,1.43,0.41,-0.41,-0.18,-0.91,1.07,1.02,1.02
132.46,1.43,0.42,1.39,0.38,-0.38,-0.15,-0.89,1.06,1.01,1.01
133.79,1.29,0.30,1.34,0.34,-0.34,-0.13,-0.88,0.95,1.00,1.00
135.12,1.25,0.28,1.30,0.31,-0.31,-0.10,-0.86,0.94,0.99,0.98
136.48,1.30,0.33,1.26,0.28,-0.28,-0.07,-0.84,1.02,0.97,0.97
137.84,1.25,0.30,1.22,0.26,-0.26,-0.05,-0.81,0.99,0.96,0.95
139.22,1.16,0.23,1.17,0.23,-0.23,-0.03,-0.79,0.94,0.95,0.93
140.61,1.07,0.16,1.13,0.20,-0.20,-0.01,-0.76,0.87,0.93,0.92
142.02,1.08,0.17,1.09,0.18,-0.18,0.02,-0.73,0.90,0.91,0.92
143.44,1.11,0.21,1.05,0.16,-0.16,0.04,-0.70,0.95,0.89,0.90
144.87,1.04,0.17,1.00,0.13,-0.13,0.06,-0.67,0.91,0.87,0.87
146.32,0.90,0.06,0.95,0.11,-0.11,0.07,-0.64,0.79,0.84,0.84
147.78,0.85,0.02,0.91,0.11,-0.11,0.09,-0.60,0.75,0.80,0.83
149.26,0.88,0.09,0.87,0.10,-0.10,0.11,-0.57,0.78,0.76,0.79
150.75,0.91,0.17,0.82,0.10,-0.10,0.13,-0.53,0.81,0.72,0.74
152.26,0.79,0.11,0.77,0.11,-0.11,0.14,-0.49,0.68,0.66,0.68
153.78,0.66,0.03,0.73,0.12,-0.12,0.16,-0.45,0.54,0.61,0.63
155.32,0.67,0.11,0.68,0.13,-0.13,0.17,-0.42,0.54,0.55,0.57
156.88,0.64,0.14,0.64,0.14,-0.14,0.19,-0.38,0.50,0.49,0.50
158.44,0.59,0.16,0.59,0.16,-0.16,0.20,-0.34,0.44,0.44,0.43
160.03,0.51,0.15,0.55,0.17,-0.17,0.22,-0.30,0.34,0.38,0.36
161.63,0.49,0.19,0.50,0.18,-0.18,0.23,-0.26,0.31,0.32,0.30
163.24,0.48,0.23,0.46,0.19,-0.19,0.25,-0.22,0.29,0.27,0.25
164.88,0.45,0.24,0.41,0.18,-0.18,0.26,-0.18,0.27,0.23,0.21
166.53,0.39,0.22,0.35,0.16,-0.16,0.27,-0.14,0.23,0.19,0.17
168.19,0.30,0.16,0.31,0.15,-0.15,0.28,-0.10,0.15,0.16,0.14
169.87,0.26,0.15,0.28,0.15,-0.15,0.30,-0.06,0.12,0.14,0.11
171.57,0.25,0.15,0.25,0.13,-0.13,0.31,-0.02,0.12,0.12,0.11
173.29,0.22,0.12,0.21,0.10,-0.10,0.32,0.02,0.12,0.11,0.10
175.02,0.15,0.05,0.17,0.07,-0.07,0.33,0.06,0.08,0.10,0.10
176.77,0.10,0.01,0.14,0.04,-0.04,0.35,0.10,0.06,0.10,0.10
178.54,0.04,-0.06,0.11,0.01,-0.01,0.36,0.14,0.03,0.10,0.10
180.32,0.04,-0.07,0.08,-0.02,0.02,0.37,0.18,0.06,0.11,0.12
182.13,0.05,-0.08,0.05,-0.06,0.06,0.38,0.22,0.11,0.11,0.13
183.95,0.08,-0.04,0.02,-0.09,0.09,0.39,0.26,0.17,0.11,0.13
185.79,0.08,-0.05,-0.01,-0.12,0.12,0.40,0.30,0.20,0.11,0.13
187.65,0.00,-0.12,-0.03,-0.14,0.14,0.42,0.34,0.14,0.11,0.12
189.52,-0.09,-0.20,-0.05,-0.15,0.15,0.43,0.38,0.07,0.11,0.12
191.42,-0.10,-0.20,-0.07,-0.17,0.17,0.44,0.42,0.07,0.10,0.10
193.33,-0.07,-0.16,-0.10,-0.19,0.19,0.45,0.46,0.12,0.09,0.09
195.27,-0.12,-0.20,-0.13,-0.21,0.21,0.46,0.50,0.09,0.08,0.08
197.22,-0.18,-0.25,-0.15,-0.22,0.22,0.48,0.54,0.04,0.07,0.07
199.19,-0.24,-0.29,-0.18,-0.24,0.24,0.49,0.58,-0.00,0.06,0.05
201.18,-0.27,-0.31,-0.21,-0.25,0.25,0.50,0.62,-0.01,0.04,0.04
203.19,-0.23,-0.26,-0.25,-0.27,0.27,0.51,0.65,0.05,0.02,0.03
205.23,-0.19,-0.20,-0.29,-0.30,0.30,0.53,0.69,0.11,0.01,0.01
207.28,-0.27,-0.28,-0.32,-0.31,0.31,0.54,0.73,0.04,-0.01,0.01
209.35,-0.35,-0.34,-0.34,-0.33,0.33,0.55,0.77,-0.02,-0.02,-0.01
211.44,-0.44,-0.40,-0.38,-0.35,0.35,0.56,0.81,-0.09,-0.03,-0.04
213.56,-0.46,-0.42,-0.41,-0.37,0.37,0.58,0.84,-0.09,-0.04,-0.04
215.69,-0.44,-0.39,-0.44,-0.39,0.39,0.59,0.88,-0.05,-0.05,-0.05
217.85,-0.44,-0.38,-0.48,-0.42,0.42,0.60,0.92,-0.02,-0.06,-0.06
220.03,-0.51,-0.45,-0.52,-0.46,0.46,0.62,0.95,-0.05,-0.06,-0.06
222.23,-0.58,-0.50,-0.57,-0.50,0.50,0.63,0.99,-0.07,-0.06,-0.08
224.45,-0.64,-0.57,-0.62,-0.56,0.56,0.64,1.02,-0.08,-0.06,-0.07
226.70,-0.65,-0.58,-0.67,-0.61,0.61,0.66,1.05,-0.03,-0.06,-0.06
228.96,-0.65,-0.60,-0.71,-0.66,0.66,0.67,1.08,0.02,-0.05,-0.05
231.25,-0.74,-0.70,-0.75,-0.71,0.71,0.69,1.11,-0.03,-0.04,-0.04
233.57,-0.77,-0.74,-0.78,-0.76,0.76,0.70,1.14,-0.01,-0.02,-0.02
235.90,-0.74,-0.73,-0.81,-0.81,0.81,0.72,1.17,0.07,-0.01,-0.01
238.26,-0.88,-0.88,-0.85,-0.86,0.86,0.73,1.20,-0.01,0.01,0.00
240.64,-1.04,-1.07,-0.88,-0.92,0.92,0.75,1.22,-0.12,0.04,0.03
243.05,-1.03,-1.09,-0.90,-0.97,0.97,0.76,1.24,-0.06,0.06,0.06
245.48,-0.97,-1.06,-0.92,-1.01,1.01,0.78,1.27,0.04,0.09,0.09
247.93,-0.90,-1.02,-0.94,-1.05,1.05,0.79,1.29,0.15,0.11,0.12
250.41,-0.84,-0.98,-0.94,-1.08,1.08,0.81,1.31,0.24,0.14,0.14
252.92,-0.92,-1.09,-0.95,-1.12,1.12,0.83,1.32,0.20,0.16,0.17
255.45,-0.97,-1.17,-0.95,-1.14,1.14,0.84,1.34,0.18,0.19,0.20
258.00,-0.97,-1.19,-0.95,-1.17,1.17,0.86,1.35,0.20,0.22,0.23
260.58,-0.96,-1.20,-0.95,-1.19,1.19,0.88,1.37,0.24,0.25,0.24
263.19,-0.96,-1.24,-0.96,-1.23,1.23,0.90,1.38,0.27,0.27,0.28
265.82,-0.96,-1.25,-0.96,-1.26,1.26,0.92,1.39,0.31,0.30,0.29
268.48,-0.97,-1.29,-0.97,-1.30,1.30,0.94,1.40,0.33,0.33,0.32
271.16,-0.97,-1.32,-0.99,-1.34,1.34,0.95,1.41,0.37,0.35,0.36
273.87,-0.93,-1.30,-1.01,-1.39,1.39,0.97,1.42,0.46,0.38,0.37
276.61,-0.96,-1.37,-1.04,-1.45,1.45,0.99,1.43,0.49,0.41,0.41
279.38,-1.06,-1.50,-1.05,-1.49,1.49,1.01,1.43,0.43,0.44,0.44
282.17,-1.07,-1.53,-1.06,-1.53,1.53,1.03,1.44,0.46,0.47,0.46
284.99,-1.14,-1.64,-1.07,-1.57,1.57,1.05,1.45,0.43,0.50,0.50
287.84,-1.22,-1.74,-1.09,-1.62,1.62,1.08,1.45,0.40,0.53,0.52
290.72,-1.21,-1.76,-1.11,-1.67,1.67,1.10,1.46,0.46,0.56,0.56
293.63,-1.11,-1.69,-1.13,-1.72,1.72,1.12,1.46,0.61,0.59,0.58
296.57,-1.07,-1.69,-1.15,-1.77,1.77,1.14,1.47,0.70,0.62,0.62
299.53,-1.18,-1.83,-1.17,-1.81,1.81,1.16,1.48,0.64,0.65,0.65
302.53,-1.20,-1.86,-1.19,-1.86,1.86,1.19,1.48,0.67,0.68,0.67
305.55,-1.17,-1.88,-1.21,-1.91,1.91,1.21,1.49,0.74,0.70,0.71
308.61,-1.14,-1.87,-1.23,-1.96,1.96,1.23,1.50,0.82,0.73,0.73
311.69,-1.22,-1.98,-1.26,-2.01,2.01,1.26,1.51,0.79,0.75,0.76
314.81,-1.30,-2.09,-1.30,-2.07,2.07,1.28,1.52,0.77,0.78,0.79
317.96,-1.38,-2.18,-1.34,-2.13,2.13,1.31,1.53,0.76,0.80,0.81
321.14,-1.37,-2.18,-1.38,-2.20,2.20,1.33,1.54,0.83,0.82,0.81
324.35,-1.34,-2.17,-1.43,-2.26,2.26,1.36,1.55,0.92,0.84,0.83
327.59,-1.38,-2.23,-1.47,-2.32,2.32,1.39,1.56,0.94,0.85,0.85
330.87,-1.49,-2.35,-1.49,-2.36,2.36,1.41,1.58,0.87,0.87,0.86
334.18,-1.57,-2.45,-1.50,-2.37,2.37,1.44,1.59,0.81,0.88,0.88
337.52,-1.58,-2.46,-1.49,-2.38,2.38,1.47,1.61,0.80,0.89,0.89
340.90,-1.66,-2.56,-1.49,-2.39,2.39,1.49,1.63,0.73,0.90,0.90
344.30,-1.65,-2.56,-1.49,-2.39,2.39,1.52,1.65,0.74,0.91,0.91
347.75,-1.57,-2.48,-1.47,-2.38,2.38,1.55,1.67,0.81,0.91,0.91
351.23,-1.47,-2.39,-1.45,-2.37,2.37,1.58,1.69,0.90,0.92,0.92
354.74,-1.38,-2.30,-1.43,-2.35,2.35,1.61,1.71,0.98,0.92,0.92
358.28,-1.30,-2.23,-1.41,-2.34,2.34,1.64,1.74,1.04,0.93,0.93
361.87,-1.23,-2.16,-1.39,-2.32,2.32,1.66,1.77,1.09,0.93,0.93
365.49,-1.17,-2.10,-1.36,-2.29,2.29,1.69,1.79,1.12,0.93,0.94
369.14,-1.23,-2.15,-1.33,-2.26,2.26,1.72,1.82,1.04,0.93,0.92
372.83,-1.33,-2.25,-1.30,-2.23,2.23,1.75,1.85,0.90,0.93,0.92
376.56,-1.45,-2.37,-1.28,-2.21,2.21,1.78,1.88,0.76,0.93,0.92
380.33,-1.38,-2.31,-1.28,-2.20,2.20,1.81,1.92,0.82,0.92,0.93
384.13,-1.33,-2.26,-1.28,-2.21,2.21,1.84,1.95,0.88,0.92,0.93
387.97,-1.32,-2.24,-1.30,-2.22,2.22,1.87,1.98,0.90,0.92,0.92
391.85,-1.31,-2.22,-1.33,-2.24,2.24,1.90,2.02,0.93,0.91,0.91
395.77,-1.31,-2.23,-1.35,-2.26,2.26,1.94,2.06,0.95,0.91,0.92
399.73,-1.31,-2.22,-1.37,-2.27,2.27,1.97,2.09,0.96,0.90,0.91
403.72,-1.32,-2.23,-1.39,-2.29,2.29,2.00,2.13,0.97,0.90,0.91
407.76,-1.32,-2.21,-1.39,-2.29,2.29,2.03,2.17,0.97,0.89,0.90
411.84,-1.32,-2.21,-1.38,-2.27,2.27,2.06,2.21,0.96,0.89,0.90
415.96,-1.49,-2.38,-1.38,-2.27,2.27,2.09,2.25,0.78,0.89,0.89
420.12,-1.53,-2.42,-1.38,-2.28,2.28,2.12,2.29,0.75,0.89,0.89
424.32,-1.44,-2.33,-1.40,-2.30,2.30,2.15,2.33,0.86,0.90,0.89
428.56,-1.41,-2.31,-1.40,-2.31,2.31,2.18,2.36,0.90,0.91,0.90
432.85,-1.40,-2.31,-1.40,-2.32,2.32,2.21,2.40,0.92,0.93,0.91
437.18,-1.37,-2.29,-1.38,-2.33,2.33,2.23,2.44,0.96,0.95,0.92
441.55,-1.33,-2.29,-1.35,-2.32,2.32,2.26,2.48,0.99,0.97,0.96
445.96,-1.29,-2.28,-1.32,-2.32,2.32,2.29,2.51,1.03,1.00,0.99
450.42,-1.23,-2.25,-1.29,-2.33,2.33,2.32,2.54,1.10,1.04,1.02
454.93,-1.28,-2.35,-1.25,-2.33,2.33,2.34,2.58,1.06,1.08,1.07
459.48,-1.36,-2.48,-1.21,-2.34,2.34,2.37,2.60,0.98,1.13,1.12
464.07,-1.22,-2.39,-1.17,-2.34,2.34,2.40,2.63,1.12,1.17,1.17
468.71,-1.11,-2.34,-1.13,-2.35,2.35,2.42,2.66,1.24,1.22,1.23
473.40,-1.04,-2.31,-1.10,-2.37,2.37,2.44,2.68,1.33,1.27,1.27
478.13,-0.98,-2.31,-1.06,-2.38,2.38,2.47,2.70,1.40,1.32,1.33
482.91,-0.94,-2.31,-1.03,-2.39,2.39,2.49,2.72,1.45,1.36,1.37
487.74,-0.93,-2.34,-0.99,-2.40,2.40,2.51,2.73,1.47,1.41,1.41
492.62,-1.08,-2.54,-0.96,-2.41,2.41,2.53,2.74,1.33,1.44,1.46
497.55,-1.04,-2.52,-0.94,-2.41,2.41,2.55,2.75,1.37,1.47,1.48
502.52,-0.93,-2.44,-0.91,-2.41,2.41,2.56,2.75,1.48,1.50,1.51
507.55,-0.89,-2.40,-0.89,-2.40,2.40,2.58,2.75,1.51,1.51,1.52
512.62,-0.87,-2.39,-0.88,-2.40,2.40,2.60,2.75,1.53,1.52,1.53
