frequency,raw
20,7.18
21,6.95
22,6.75
23,6.57
24,6.41
25,6.27
26,6.15
27,6.03
28,5.92
29,5.82
30,5.73
31,5.64
32,5.53
33,5.43
34,5.33
35,5.24
36,5.16
37,5.08
38,5.01
39,4.95
40,4.89
41,4.84
42,4.79
43,4.75
44,4.71
45,4.68
46,4.66
47,4.63
48,4.62
49,4.61
50,4.60
51,4.60
52,4.60
53,4.60
54,4.60
55,4.60
56,4.61
57,4.62
58,4.63
59,4.64
60,4.66
61,4.68
62,4.71
63,4.74
64,4.78
65,4.79
66,4.80
67,4.80
68,4.80
69,4.79
70,4.79
71,4.79
72,4.81
73,4.82
74,4.85
75,4.86
76,4.86
77,4.86
78,4.86
79,4.87
80,4.88
81,4.90
82,4.91
83,4.91
84,4.92
85,4.92
86,4.91
87,4.92
88,4.92
89,4.93
90,4.93
91,4.92
92,4.93
93,4.93
94,4.93
95,4.92
96,4.92
97,4.93
98,4.93
99,4.92
100,4.91
101,4.89
102,4.87
104,4.84
105,4.84
106,4.83
107,4.84
108,4.84
109,4.85
110,4.84
111,4.83
112,4.82
113,4.81
114,4.79
115,4.78
117,4.74
118,4.72
119,4.71
120,4.71
121,4.71
123,4.71
124,4.72
125,4.71
126,4.69
128,4.64
129,4.61
130,4.57
131,4.55
133,4.51
134,4.52
135,4.52
137,4.50
138,4.48
140,4.43
141,4.40
142,4.36
144,4.32
145,4.30
147,4.27
148,4.27
150,4.25
151,4.23
153,4.19
154,4.15
156,4.08
157,4.05
159,3.99
160,3.97
162,3.94
164,3.91
165,3.89
167,3.85
169,3.79
170,3.76
172,3.69
174,3.62
175,3.58
177,3.51
179,3.43
181,3.36
183,3.29
184,3.26
186,3.21
188,3.16
190,3.10
192,3.03
194,2.95
196,2.87
198,2.78
200,2.70
202,2.62
204,2.55
206,2.48
208,2.40
210,2.33
212,2.25
214,2.18
216,2.11
218,2.05
221,1.94
223,1.86
225,1.79
227,1.73
229,1.67
232,1.61
234,1.58
236,1.57
239,1.57
241,1.57
244,1.59
246,1.61
248,1.62
251,1.65
253,1.68
256,1.71
259,1.75
261,1.77
264,1.81
266,1.83
269,1.85
272,1.87
274,1.88
277,1.88
280,1.87
283,1.85
286,1.82
288,1.80
291,1.75
294,1.70
297,1.64
300,1.58
303,1.51
306,1.43
309,1.35
312,1.27
316,1.16
319,1.07
322,0.97
325,0.88
328,0.78
332,0.65
335,0.56
338,0.46
342,0.33
345,0.24
349,0.12
352,0.04
356,-0.06
359,-0.13
363,-0.20
366,-0.24
370,-0.28
374,-0.29
377,-0.28
381,-0.26
385,-0.21
389,-0.15
393,-0.08
397,-0.00
401,0.08
405,0.16
409,0.25
413,0.33
417,0.40
421,0.47
425,0.53
430,0.59
434,0.63
438,0.66
443,0.69
447,0.71
451,0.73
456,0.78
460,0.81
465,0.86
470,0.89
474,0.91
479,0.92
484,0.91
489,0.89
494,0.89
499,0.89
504,0.90
509,0.92
514,0.95
519,0.96
524,0.94
529,0.90
535,0.82
540,0.72
545,0.58
551,0.39
556,0.25
562,0.06
568,-0.10
573,-0.20
579,-0.31
585,-0.35
591,-0.37
596,-0.36
602,-0.32
608,-0.25
615,-0.15
621,-0.04
627,0.09
633,0.22
639,0.37
646,0.56
652,0.74
659,0.95
665,1.14
672,1.37
679,1.61
686,1.85
692,2.04
699,2.26
706,2.45
713,2.58
721,2.69
728,2.74
735,2.72
742,2.69
750,2.62
757,2.55
765,2.46
773,2.37
780,2.23
788,2.03
796,1.75
804,1.39
812,1.03
820,0.67
828,0.39
837,0.23
845,0.18
853,0.24
862,0.39
871,0.56
879,0.71
888,0.82
897,0.89
906,0.93
915,0.89
924,0.82
933,0.73
943,0.61
952,0.50
962,0.37
971,0.27
981,0.17
991,0.07
1001,-0.01
1011,-0.07
1021,-0.16
1031,-0.24
1041,-0.39
1052,-0.60
1062,-0.83
1073,-1.18
1084,-1.55
1094,-1.89
1105,-2.21
1116,-2.41
1128,-2.54
1139,-2.53
1150,-2.40
1162,-2.19
1173,-1.96
1185,-1.71
1197,-1.49
1209,-1.31
1221,-1.25
1233,-1.25
1246,-1.29
1258,-1.34
1271,-1.34
1283,-1.29
1296,-1.18
1309,-1.01
1322,-0.81
1335,-0.59
1349,-0.31
1362,-0.05
1376,0.24
1390,0.59
1404,0.95
1418,1.35
1432,1.78
1446,2.20
1461,2.61
1475,2.94
1490,3.19
1505,3.35
1520,3.41
1535,3.38
1550,3.34
1566,3.30
1582,3.35
1597,3.47
1613,3.68
1629,4.03
1646,4.45
1662,4.87
1679,5.31
1696,5.68
1713,5.97
1730,6.13
1747,6.20
1764,6.24
1782,6.26
1800,6.35
1818,6.45
1836,6.57
1854,6.65
1873,6.71
1892,6.71
1911,6.63
1930,6.55
1949,6.48
1969,6.45
1988,6.50
2008,6.63
2028,6.84
2048,7.09
2069,7.37
2090,7.63
2111,7.81
2132,7.93
2153,7.99
2175,7.92
2196,7.79
2218,7.60
2240,7.33
2263,7.09
2285,6.89
2308,6.82
2331,6.87
2355,6.99
2378,7.17
2402,7.37
2426,7.53
2450,7.65
2475,7.70
2500,7.69
2525,7.63
2550,7.52
2575,7.41
2601,7.32
2627,7.34
2653,7.46
2680,7.64
2707,7.87
2734,8.03
2761,8.15
2789,8.17
2817,8.11
2845,8.04
2873,7.97
2902,8.02
2931,8.12
2960,8.25
2990,8.38
3020,8.45
3050,8.47
3080,8.38
3111,8.24
3142,8.09
3174,7.91
3206,7.73
3238,7.55
3270,7.37
3303,7.16
3336,6.93
3369,6.71
3403,6.53
3437,6.43
3471,6.39
3506,6.46
3541,6.54
3576,6.65
3612,6.73
3648,6.80
3685,6.86
3721,6.91
3759,6.98
3796,7.09
3834,7.22
3873,7.39
3911,7.56
3950,7.76
3990,7.97
4030,8.17
4070,8.35
4111,8.46
4152,8.48
4193,8.46
4235,8.38
4278,8.28
4321,8.20
4364,8.14
4407,8.12
4451,8.11
4496,8.12
4541,8.09
4586,8.05
4632,8.01
4679,7.94
4725,7.85
4773,7.74
4820,7.62
4868,7.52
4917,7.44
4966,7.41
5016,7.45
5066,7.56
5117,7.72
5168,8.02
5220,8.35
5272,8.69
5325,8.97
5378,9.21
5432,9.41
5486,9.51
5541,9.54
5596,9.49
5652,9.32
5709,9.08
5766,8.82
5823,8.55
5882,8.31
5940,8.06
6000,7.78
6060,7.50
6120,7.19
6182,6.84
6244,6.46
6306,6.01
6369,5.54
6433,5.07
6497,4.60
6562,4.16
6628,3.76
6694,3.45
6761,3.21
6828,3.05
6897,2.93
6966,2.88
7035,2.89
7106,2.99
7177,3.15
7249,3.34
7321,3.55
7394,3.77
7468,4.01
7543,4.28
7618,4.64
7694,5.05
7771,5.55
7849,6.09
7928,6.64
8007,7.19
8087,7.74
8168,8.27
8250,8.74
8332,9.08
8415,9.22
8499,9.19
8584,8.86
8670,8.26
8757,7.44
8845,6.35
8933,5.30
9022,4.13
9113,2.75
9204,1.81
9296,1.13
9389,0.12
9483,-0.60
9577,-1.07
9673,-1.43
9770,-1.78
9868,-2.18
9966,-2.59
10066,-2.98
10167,-3.30
10268,-3.55
10371,-3.76
10475,-3.95
10579,-4.07
10685,-4.15
10792,-4.29
10900,-4.44
11009,-4.62
11119,-4.70
11230,-4.71
11343,-4.51
11456,-4.23
11571,-4.71
11686,-5.44
11803,-5.57
11921,-6.16
12040,-6.91
12161,-7.15
12282,-7.52
12405,-7.79
12529,-7.88
12655,-7.99
12781,-8.17
12909,-8.42
13038,-8.81
13168,-9.26
13300,-9.65
13433,-9.98
13567,-10.33
13703,-10.69
13840,-11.10
13978,-11.41
14118,-11.72
14259,-12.09
14402,-12.72
14546,-13.57
14692,-14.69
14838,-16.16
14987,-17.69
15137,-19.27
15288,-20.75
15441,-22.27
15595,-23.85
15751,-25.64
15909,-27.83
16068,-30.17
16229,-32.59
16391,-34.72
16555,-36.20
16720,-36.72
16888,-35.79
17056,-34.78
17227,-33.79
17399,-32.35
17573,-31.52
17749,-31.26
17926,-32.04
18106,-33.10
18287,-34.32
18470,-35.62
18654,-36.84
18841,-38.12
19029,-39.56
19220,-40.16
19412,-40.44
19606,-40.46
19802,-40.64
20000,-40.87
