frequency,raw
20.00,6.22
20.20,6.23
20.40,6.23
20.61,6.24
20.81,6.25
21.02,6.26
21.23,6.27
21.44,6.29
21.66,6.31
21.87,6.33
22.09,6.35
22.31,6.37
22.54,6.38
22.76,6.38
22.99,6.38
23.22,6.35
23.45,6.33
23.69,6.31
23.92,6.29
24.16,6.29
24.40,6.32
24.65,6.35
24.89,6.41
25.14,6.46
25.39,6.52
25.65,6.55
25.91,6.56
26.16,6.55
26.43,6.52
26.69,6.47
26.96,6.42
27.23,6.38
27.50,6.34
27.77,6.31
28.05,6.29
28.33,6.28
28.62,6.27
28.90,6.25
29.19,6.23
29.48,6.22
29.78,6.21
30.08,6.21
30.38,6.22
30.68,6.25
30.99,6.27
31.30,6.30
31.61,6.31
31.93,6.32
32.24,6.31
32.57,6.29
32.89,6.27
33.22,6.24
33.55,6.22
33.89,6.20
34.23,6.18
34.57,6.16
34.92,6.14
35.27,6.10
35.62,6.07
35.97,6.03
36.33,6.00
36.70,5.98
37.06,5.96
37.43,5.95
37.81,5.93
38.19,5.92
38.57,5.89
38.95,5.84
39.34,5.79
39.74,5.73
40.14,5.66
40.54,5.61
40.94,5.58
41.35,5.57
41.76,5.58
42.18,5.57
42.60,5.55
43.03,5.53
43.46,5.51
43.90,5.51
44.33,5.52
44.78,5.52
45.23,5.48
45.68,5.41
46.13,5.31
46.60,5.23
47.06,5.19
47.53,5.18
48.01,5.22
48.49,5.27
48.97,5.29
49.46,5.28
49.96,5.23
50.46,5.16
50.96,5.10
51.47,5.06
51.99,5.04
52.51,5.01
53.03,4.98
53.56,4.90
54.10,4.79
54.64,4.67
55.18,4.55
55.74,4.47
56.29,4.40
56.86,4.36
57.42,4.32
58.00,4.30
58.58,4.28
59.16,4.27
59.76,4.29
60.35,4.34
60.96,4.41
61.57,4.48
62.18,4.53
62.80,4.57
63.43,4.58
64.07,4.59
64.71,4.58
65.35,4.57
66.01,4.56
66.67,4.53
67.33,4.50
68.01,4.47
68.69,4.43
69.37,4.39
70.07,4.35
70.77,4.29
71.48,4.23
72.19,4.16
72.91,4.08
73.64,4.00
74.38,3.92
75.12,3.86
75.87,3.81
76.63,3.77
77.40,3.73
78.17,3.69
78.95,3.65
79.74,3.61
80.54,3.57
81.35,3.53
82.16,3.49
82.98,3.44
83.81,3.39
84.65,3.34
85.50,3.29
86.35,3.23
87.22,3.19
88.09,3.16
88.97,3.11
89.86,3.07
90.76,3.01
91.66,2.96
92.58,2.90
93.51,2.86
94.44,2.82
95.39,2.79
96.34,2.75
97.30,2.72
98.28,2.68
99.26,2.63
100.25,2.59
101.25,2.54
102.27,2.50
103.29,2.45
104.32,2.40
105.37,2.36
106.42,2.31
107.48,2.27
108.56,2.23
109.64,2.19
110.74,2.15
111.85,2.13
112.97,2.15
114.10,2.20
115.24,2.35
116.39,2.62
117.55,2.90
118.73,3.10
119.92,3.21
121.12,3.14
122.33,2.80
123.55,2.38
124.79,2.01
126.03,1.78
127.29,1.64
128.57,1.55
129.85,1.49
131.15,1.43
132.46,1.38
133.79,1.34
135.12,1.32
136.48,1.30
137.84,1.27
139.22,1.24
140.61,1.21
142.02,1.18
143.44,1.14
144.87,1.11
146.32,1.07
147.78,1.03
149.26,0.98
150.75,0.94
152.26,0.90
153.78,0.86
155.32,0.82
156.88,0.79
158.44,0.75
160.03,0.72
161.63,0.69
163.24,0.65
164.88,0.61
166.53,0.57
168.19,0.53
169.87,0.49
171.57,0.45
173.29,0.41
175.02,0.37
176.77,0.33
178.54,0.29
180.32,0.25
182.13,0.21
183.95,0.17
185.79,0.13
187.65,0.09
189.52,0.06
191.42,0.02
193.33,-0.02
195.27,-0.05
197.22,-0.09
199.19,-0.12
201.18,-0.15
203.19,-0.18
205.23,-0.22
207.28,-0.25
209.35,-0.28
211.44,-0.32
213.56,-0.35
215.69,-0.38
217.85,-0.41
220.03,-0.44
222.23,-0.47
224.45,-0.50
226.70,-0.53
228.96,-0.56
231.25,-0.58
233.57,-0.61
235.90,-0.64
238.26,-0.67
240.64,-0.70
243.05,-0.72
245.48,-0.75
247.93,-0.78
250.41,-0.81
252.92,-0.83
255.45,-0.86
258.00,-0.89
260.58,-0.91
263.19,-0.94
265.82,-0.96
268.48,-0.99
271.16,-1.01
273.87,-1.04
276.61,-1.06
279.38,-1.09
282.17,-1.11
284.99,-1.13
287.84,-1.16
290.72,-1.18
293.63,-1.20
296.57,-1.22
299.53,-1.25
302.53,-1.27
305.55,-1.29
308.61,-1.31
311.69,-1.33
314.81,-1.35
317.96,-1.37
321.14,-1.39
324.35,-1.41
327.59,-1.43
330.87,-1.44
334.18,-1.46
337.52,-1.48
340.90,-1.50
344.30,-1.51
347.75,-1.53
351.23,-1.55
354.74,-1.57
358.28,-1.58
361.87,-1.60
365.49,-1.62
369.14,-1.63
372.83,-1.65
376.56,-1.66
380.33,-1.68
384.13,-1.68
387.97,-1.69
391.85,-1.69
395.77,-1.69
399.73,-1.69
403.72,-1.68
407.76,-1.68
411.84,-1.67
415.96,-1.66
420.12,-1.66
424.32,-1.66
428.56,-1.66
432.85,-1.66
437.18,-1.66
441.55,-1.66
445.96,-1.66
450.42,-1.67
454.93,-1.67
459.48,-1.67
464.07,-1.67
468.71,-1.67
473.40,-1.67
478.13,-1.67
482.91,-1.67
487.74,-1.67
492.62,-1.67
497.55,-1.66
502.52,-1.66
507.55,-1.66
512.62,-1.65
517.75,-1.65
522.93,-1.64
528.16,-1.63
533.44,-1.62
538.77,-1.61
544.16,-1.60
549.60,-1.60
555.10,-1.59
560.65,-1.59
566.25,-1.61
571.92,-1.63
577.64,-1.66
583.41,-1.70
589.25,-1.73
595.14,-1.75
601.09,-1.75
607.10,-1.74
613.17,-1.71
619.30,-1.68
625.50,-1.65
631.75,-1.62
638.07,-1.60
644.45,-1.59
650.89,-1.58
657.40,-1.57
663.98,-1.56
670.62,-1.54
677.32,-1.52
684.10,-1.49
690.94,-1.46
697.85,-1.43
704.83,-1.39
711.87,-1.36
718.99,-1.32
726.18,-1.29
733.44,-1.25
740.78,-1.22
748.19,-1.19
755.67,-1.16
763.23,-1.13
770.86,-1.11
778.57,-1.08
786.35,-1.04
794.22,-1.00
802.16,-0.95
810.18,-0.90
818.28,-0.86
826.46,-0.83
834.73,-0.83
843.08,-0.83
851.51,-0.85
860.02,-0.87
868.62,-0.88
877.31,-0.87
886.08,-0.84
894.94,-0.78
903.89,-0.72
912.93,-0.65
922.06,-0.58
931.28,-0.50
940.59,-0.43
950.00,-0.36
959.50,-0.28
969.09,-0.21
978.78,-0.14
988.57,-0.08
998.46,-0.01
1008.44,0.06
1018.53,0.12
1028.71,0.19
1039.00,0.27
1049.39,0.34
1059.88,0.42
1070.48,0.50
1081.19,0.58
1092.00,0.67
1102.92,0.76
1113.95,0.84
1125.09,0.93
1136.34,1.02
1147.70,1.11
1159.18,1.20
1170.77,1.28
1182.48,1.37
1194.30,1.45
1206.25,1.53
1218.31,1.61
1230.49,1.68
1242.80,1.76
1255.22,1.83
1267.78,1.90
1280.45,1.97
1293.26,2.03
1306.19,2.10
1319.25,2.17
1332.45,2.23
1345.77,2.29
1359.23,2.35
1372.82,2.40
1386.55,2.46
1400.41,2.52
1414.42,2.59
1428.56,2.65
1442.85,2.72
1457.28,2.78
1471.85,2.85
1486.57,2.91
1501.43,2.97
1516.45,3.03
1531.61,3.10
1546.93,3.18
1562.40,3.27
1578.02,3.37
1593.80,3.48
1609.74,3.59
1625.84,3.70
1642.10,3.82
1658.52,3.94
1675.10,4.05
1691.85,4.17
1708.77,4.28
1725.86,4.40
1743.12,4.52
1760.55,4.64
1778.15,4.76
1795.94,4.88
1813.90,5.00
1832.03,5.11
1850.36,5.23
1868.86,5.34
1887.55,5.44
1906.42,5.55
1925.49,5.65
1944.74,5.74
1964.19,5.83
1983.83,5.91
2003.67,5.99
2023.71,6.07
2043.94,6.14
2064.38,6.22
2085.03,6.29
2105.88,6.37
2126.94,6.44
2148.20,6.51
2169.69,6.58
2191.38,6.65
2213.30,6.71
2235.43,6.78
2257.78,6.84
2280.36,6.90
2303.17,6.95
2326.20,7.00
2349.46,7.05
2372.95,7.09
2396.68,7.13
2420.65,7.17
2444.86,7.20
2469.31,7.23
2494.00,7.25
2518.94,7.28
2544.13,7.30
2569.57,7.31
2595.27,7.33
2621.22,7.35
2647.43,7.36
2673.90,7.37
2700.64,7.39
2727.65,7.40
2754.93,7.41
2782.48,7.43
2810.30,7.44
2838.40,7.46
2866.79,7.48
2895.46,7.50
2924.41,7.52
2953.65,7.55
2983.19,7.57
3013.02,7.60
3043.15,7.63
3073.58,7.66
3104.32,7.70
3135.36,7.74
3166.72,7.78
3198.38,7.82
3230.37,7.87
3262.67,7.91
3295.30,7.96
3328.25,8.00
3361.53,8.04
3395.15,8.08
3429.10,8.12
3463.39,8.17
3498.03,8.21
3533.01,8.26
3568.34,8.32
3604.02,8.39
3640.06,8.46
3676.46,8.55
3713.22,8.63
3750.36,8.72
3787.86,8.80
3825.74,8.88
3864.00,8.95
3902.64,8.99
3941.66,9.02
3981.08,9.02
4020.89,9.00
4061.10,8.96
4101.71,8.88
4142.73,8.77
4184.15,8.64
4226.00,8.47
4268.26,8.27
4310.94,8.05
4354.05,7.79
4397.59,7.50
4441.56,7.20
4485.98,6.87
4530.84,6.52
4576.15,6.16
4621.91,5.80
4668.13,5.43
4714.81,5.05
4761.96,4.67
4809.58,4.29
4857.67,3.92
4906.25,3.54
4955.31,3.18
5004.87,2.82
5054.91,2.47
5105.46,2.12
5156.52,1.78
5208.08,1.45
5260.16,1.14
5312.77,0.83
5365.89,0.54
5419.55,0.26
5473.75,-0.01
5528.49,-0.26
5583.77,-0.50
5639.61,-0.71
5696.00,-0.92
5752.96,-1.09
5810.49,-1.26
5868.60,-1.40
5927.28,-1.53
5986.56,-1.63
6046.42,-1.71
6106.89,-1.78
6167.96,-1.82
6229.64,-1.84
6291.93,-1.83
6354.85,-1.79
6418.40,-1.72
6482.58,-1.63
6547.41,-1.49
6612.88,-1.33
6679.01,-1.13
6745.80,-0.89
6813.26,-0.62
6881.39,-0.31
6950.21,0.03
7019.71,0.39
7089.91,0.76
7160.81,1.11
7232.41,1.43
7304.74,1.70
7377.79,1.87
7451.56,1.95
7526.08,1.95
7601.34,1.84
7677.35,1.62
7754.13,1.35
7831.67,0.96
7909.98,0.53
7989.08,0.06
8068.98,-0.43
8149.67,-0.92
8231.16,-1.40
8313.47,-1.84
8396.61,-2.25
8480.57,-2.61
8565.38,-2.92
8651.03,-3.17
8737.54,-3.37
8824.92,-3.51
8913.17,-3.57
9002.30,-3.61
9092.32,-3.58
9183.25,-3.49
9275.08,-3.38
9367.83,-3.22
9461.51,-3.05
9556.12,-2.85
9651.68,-2.66
9748.20,-2.47
9845.68,-2.31
9944.14,-2.18
10043.58,-2.10
10144.02,-2.06
10245.46,-2.09
10347.91,-2.16
10451.39,-2.28
10555.91,-2.46
10661.46,-2.68
10768.08,-2.93
10875.76,-3.21
10984.52,-3.51
11094.36,-3.83
11205.31,-4.16
11317.36,-4.49
11430.53,-4.83
11544.84,-5.18
11660.29,-5.53
11776.89,-5.89
11894.66,-6.26
12013.60,-6.64
12133.74,-7.03
12255.08,-7.43
12377.63,-7.84
12501.41,-8.26
12626.42,-8.70
12752.68,-9.15
12880.21,-9.63
13009.01,-10.12
13139.10,-10.60
13270.49,-11.09
13403.20,-11.58
13537.23,-12.05
13672.60,-12.50
13809.33,-12.92
13947.42,-13.29
14086.90,-13.60
14227.77,-13.87
14370.04,-14.10
14513.74,-14.26
14658.88,-14.33
14805.47,-14.35
14953.52,-14.28
15103.06,-14.10
15254.09,-13.84
15406.63,-13.38
15560.70,-12.82
15716.30,-12.13
15873.47,-11.30
16032.20,-10.43
16192.52,-9.55
16354.45,-8.79
16517.99,-8.16
16683.17,-7.91
16850.01,-7.98
17018.51,-8.34
17188.69,-9.16
17360.58,-10.24
17534.18,-11.48
17709.53,-12.88
17886.62,-14.29
18065.49,-15.65
18246.14,-16.95
18428.60,-18.08
18612.89,-19.12
18799.02,-20.10
18987.01,-21.01
19176.88,-21.91
19368.65,-22.80
19562.33,-23.67
19757.96,-24.48
19955.54,-25.29
