frequency,raw
20.00,8.08
20.20,8.09
20.40,8.10
20.61,8.12
20.81,8.14
21.02,8.18
21.23,8.21
21.44,8.24
21.66,8.27
21.87,8.30
22.09,8.33
22.31,8.36
22.54,8.40
22.76,8.43
22.99,8.45
23.22,8.48
23.45,8.51
23.69,8.54
23.92,8.56
24.16,8.59
24.40,8.61
24.65,8.63
24.89,8.65
25.14,8.67
25.39,8.69
25.65,8.71
25.91,8.73
26.16,8.74
26.43,8.76
26.69,8.78
26.96,8.80
27.23,8.81
27.50,8.83
27.77,8.84
28.05,8.85
28.33,8.86
28.62,8.87
28.90,8.88
29.19,8.88
29.48,8.88
29.78,8.89
30.08,8.89
30.38,8.90
30.68,8.90
30.99,8.91
31.30,8.91
31.61,8.91
31.93,8.91
32.24,8.90
32.57,8.90
32.89,8.90
33.22,8.89
33.55,8.89
33.89,8.89
34.23,8.88
34.57,8.88
34.92,8.87
35.27,8.86
35.62,8.85
35.97,8.84
36.33,8.83
36.70,8.82
37.06,8.81
37.43,8.80
37.81,8.79
38.19,8.77
38.57,8.76
38.95,8.74
39.34,8.73
39.74,8.71
40.14,8.70
40.54,8.68
40.94,8.67
41.35,8.65
41.76,8.63
42.18,8.61
42.60,8.60
43.03,8.58
43.46,8.56
43.90,8.53
44.33,8.51
44.78,8.49
45.23,8.47
45.68,8.45
46.13,8.42
46.60,8.40
47.06,8.38
47.53,8.35
48.01,8.33
48.49,8.30
48.97,8.28
49.46,8.25
49.96,8.23
50.46,8.20
50.96,8.18
51.47,8.15
51.99,8.12
52.51,8.10
53.03,8.07
53.56,8.04
54.10,8.02
54.64,7.99
55.18,7.96
55.74,7.93
56.29,7.90
56.86,7.87
57.42,7.84
58.00,7.81
58.58,7.78
59.16,7.75
59.76,7.72
60.35,7.69
60.96,7.66
61.57,7.63
62.18,7.60
62.80,7.57
63.43,7.53
64.07,7.50
64.71,7.46
65.35,7.43
66.01,7.40
66.67,7.37
67.33,7.34
68.01,7.30
68.69,7.27
69.37,7.24
70.07,7.20
70.77,7.17
71.48,7.13
72.19,7.09
72.91,7.06
73.64,7.02
74.38,6.98
75.12,6.94
75.87,6.90
76.63,6.87
77.40,6.83
78.17,6.79
78.95,6.75
79.74,6.71
80.54,6.66
81.35,6.62
82.16,6.58
82.98,6.53
83.81,6.49
84.65,6.44
85.50,6.39
86.35,6.33
87.22,6.27
88.09,6.21
88.97,6.14
89.86,6.08
90.76,6.03
91.66,6.00
92.58,5.97
93.51,5.93
94.44,5.89
95.39,5.84
96.34,5.79
97.30,5.73
98.28,5.68
99.26,5.62
100.25,5.56
101.25,5.51
102.27,5.45
103.29,5.39
104.32,5.34
105.37,5.28
106.42,5.22
107.48,5.16
108.56,5.10
109.64,5.04
110.74,4.97
111.85,4.91
112.97,4.84
114.10,4.78
115.24,4.71
116.39,4.64
117.55,4.57
118.73,4.50
119.92,4.43
121.12,4.36
122.33,4.29
123.55,4.22
124.79,4.15
126.03,4.08
127.29,4.01
128.57,3.93
129.85,3.86
131.15,3.78
132.46,3.71
133.79,3.63
135.12,3.56
136.48,3.48
137.84,3.41
139.22,3.33
140.61,3.25
142.02,3.18
143.44,3.10
144.87,3.02
146.32,2.94
147.78,2.86
149.26,2.79
150.75,2.71
152.26,2.62
153.78,2.54
155.32,2.46
156.88,2.39
158.44,2.31
160.03,2.23
161.63,2.15
163.24,2.07
164.88,2.00
166.53,1.92
168.19,1.84
169.87,1.76
171.57,1.68
173.29,1.61
175.02,1.53
176.77,1.45
178.54,1.37
180.32,1.29
182.13,1.21
183.95,1.13
185.79,1.05
187.65,0.97
189.52,0.89
191.42,0.81
193.33,0.73
195.27,0.65
197.22,0.56
199.19,0.48
201.18,0.39
203.19,0.31
205.23,0.22
207.28,0.14
209.35,0.05
211.44,-0.03
213.56,-0.12
215.69,-0.20
217.85,-0.28
220.03,-0.34
222.23,-0.39
224.45,-0.43
226.70,-0.46
228.96,-0.48
231.25,-0.50
233.57,-0.53
235.90,-0.56
238.26,-0.61
240.64,-0.67
243.05,-0.73
245.48,-0.80
247.93,-0.87
250.41,-0.94
252.92,-1.00
255.45,-1.06
258.00,-1.11
260.58,-1.15
263.19,-1.19
265.82,-1.22
268.48,-1.25
271.16,-1.28
273.87,-1.31
276.61,-1.34
279.38,-1.38
282.17,-1.43
284.99,-1.47
287.84,-1.52
290.72,-1.56
293.63,-1.61
296.57,-1.65
299.53,-1.70
302.53,-1.74
305.55,-1.78
308.61,-1.82
311.69,-1.86
314.81,-1.89
317.96,-1.93
321.14,-1.96
324.35,-1.99
327.59,-2.02
330.87,-2.04
334.18,-2.07
337.52,-2.09
340.90,-2.12
344.30,-2.14
347.75,-2.16
351.23,-2.17
354.74,-2.19
358.28,-2.20
361.87,-2.22
365.49,-2.23
369.14,-2.24
372.83,-2.24
376.56,-2.25
380.33,-2.26
384.13,-2.26
387.97,-2.26
391.85,-2.26
395.77,-2.26
399.73,-2.26
403.72,-2.25
407.76,-2.25
411.84,-2.24
415.96,-2.22
420.12,-2.21
424.32,-2.20
428.56,-2.18
432.85,-2.16
437.18,-2.14
441.55,-2.13
445.96,-2.11
450.42,-2.09
454.93,-2.07
459.48,-2.06
464.07,-2.04
468.71,-2.02
473.40,-2.01
478.13,-1.99
482.91,-1.97
487.74,-1.95
492.62,-1.93
497.55,-1.91
502.52,-1.89
507.55,-1.87
512.62,-1.85
517.75,-1.83
522.93,-1.81
528.16,-1.79
533.44,-1.77
538.77,-1.75
544.16,-1.73
549.60,-1.71
555.10,-1.69
560.65,-1.67
566.25,-1.65
571.92,-1.64
577.64,-1.62
583.41,-1.60
589.25,-1.58
595.14,-1.56
601.09,-1.55
607.10,-1.53
613.17,-1.51
619.30,-1.49
625.50,-1.48
631.75,-1.46
638.07,-1.44
644.45,-1.43
650.89,-1.41
657.40,-1.40
663.98,-1.38
670.62,-1.37
677.32,-1.35
684.10,-1.33
690.94,-1.32
697.85,-1.30
704.83,-1.29
711.87,-1.27
718.99,-1.25
726.18,-1.24
733.44,-1.22
740.78,-1.20
748.19,-1.18
755.67,-1.16
763.23,-1.14
770.86,-1.12
778.57,-1.10
786.35,-1.08
794.22,-1.05
802.16,-1.03
810.18,-1.00
818.28,-0.98
826.46,-0.95
834.73,-0.92
843.08,-0.88
851.51,-0.85
860.02,-0.82
868.62,-0.78
877.31,-0.74
886.08,-0.70
894.94,-0.65
903.89,-0.61
912.93,-0.56
922.06,-0.51
931.28,-0.45
940.59,-0.40
950.00,-0.34
959.50,-0.28
969.09,-0.22
978.78,-0.15
988.57,-0.08
998.46,-0.01
1008.44,0.06
1018.53,0.14
1028.71,0.21
1039.00,0.29
1049.39,0.37
1059.88,0.45
1070.48,0.54
1081.19,0.62
1092.00,0.71
1102.92,0.79
1113.95,0.88
1125.09,0.97
1136.34,1.05
1147.70,1.14
1159.18,1.23
1170.77,1.31
1182.48,1.40
1194.30,1.48
1206.25,1.56
1218.31,1.63
1230.49,1.70
1242.80,1.77
1255.22,1.84
1267.78,1.91
1280.45,1.97
1293.26,2.03
1306.19,2.09
1319.25,2.15
1332.45,2.20
1345.77,2.26
1359.23,2.31
1372.82,2.37
1386.55,2.42
1400.41,2.48
1414.42,2.53
1428.56,2.58
1442.85,2.64
1457.28,2.69
1471.85,2.74
1486.57,2.79
1501.43,2.85
1516.45,2.90
1531.61,2.95
1546.93,3.01
1562.40,3.06
1578.02,3.12
1593.80,3.17
1609.74,3.23
1625.84,3.29
1642.10,3.34
1658.52,3.40
1675.10,3.46
1691.85,3.52
1708.77,3.59
1725.86,3.65
1743.12,3.71
1760.55,3.78
1778.15,3.85
1795.94,3.92
1813.90,3.99
1832.03,4.06
1850.36,4.13
1868.86,4.20
1887.55,4.28
1906.42,4.35
1925.49,4.43
1944.74,4.51
1964.19,4.59
1983.83,4.67
2003.67,4.75
2023.71,4.84
2043.94,4.92
2064.38,5.01
2085.03,5.10
2105.88,5.19
2126.94,5.29
2148.20,5.38
2169.69,5.48
2191.38,5.58
2213.30,5.67
2235.43,5.77
2257.78,5.87
2280.36,5.96
2303.17,6.06
2326.20,6.16
2349.46,6.25
2372.95,6.35
2396.68,6.45
2420.65,6.54
2444.86,6.64
2469.31,6.74
2494.00,6.83
2518.94,6.93
2544.13,7.02
2569.57,7.11
2595.27,7.20
2621.22,7.29
2647.43,7.38
2673.90,7.46
2700.64,7.54
2727.65,7.62
2754.93,7.69
2782.48,7.76
2810.30,7.83
2838.40,7.90
2866.79,7.96
2895.46,8.01
2924.41,8.06
2953.65,8.11
2983.19,8.15
3013.02,8.19
3043.15,8.22
3073.58,8.24
3104.32,8.26
3135.36,8.28
3166.72,8.28
3198.38,8.29
3230.37,8.28
3262.67,8.27
3295.30,8.25
3328.25,8.23
3361.53,8.20
3395.15,8.17
3429.10,8.13
3463.39,8.09
3498.03,8.05
3533.01,8.01
3568.34,7.96
3604.02,7.91
3640.06,7.86
3676.46,7.81
3713.22,7.76
3750.36,7.70
3787.86,7.65
3825.74,7.60
3864.00,7.55
3902.64,7.50
3941.66,7.46
3981.08,7.41
4020.89,7.37
4061.10,7.33
4101.71,7.28
4142.73,7.24
4184.15,7.19
4226.00,7.13
4268.26,7.08
4310.94,7.02
4354.05,6.95
4397.59,6.88
4441.56,6.82
4485.98,6.75
4530.84,6.69
4576.15,6.63
4621.91,6.57
4668.13,6.52
4714.81,6.48
4761.96,6.44
4809.58,6.42
4857.67,6.40
4906.25,6.38
4955.31,6.38
5004.87,6.38
5054.91,6.39
5105.46,6.40
5156.52,6.43
5208.08,6.46
5260.16,6.50
5312.77,6.53
5365.89,6.57
5419.55,6.59
5473.75,6.59
5528.49,6.57
5583.77,6.50
5639.61,6.38
5696.00,6.24
5752.96,6.02
5810.49,5.78
5868.60,5.47
5927.28,5.14
5986.56,4.79
6046.42,4.42
6106.89,4.06
6167.96,3.71
6229.64,3.38
6291.93,3.08
6354.85,2.83
6418.40,2.59
6482.58,2.40
6547.41,2.25
6612.88,2.12
6679.01,2.04
6745.80,2.00
6813.26,1.98
6881.39,1.99
6950.21,2.02
7019.71,2.08
7089.91,2.15
7160.81,2.25
7232.41,2.36
7304.74,2.50
7377.79,2.65
7451.56,2.82
7526.08,3.00
7601.34,3.18
7677.35,3.35
7754.13,3.52
7831.67,3.65
7909.98,3.76
7989.08,3.83
8068.98,3.83
8149.67,3.78
8231.16,3.66
8313.47,3.43
8396.61,3.16
8480.57,2.78
8565.38,2.32
8651.03,1.81
8737.54,1.23
8824.92,0.61
8913.17,-0.05
9002.30,-0.72
9092.32,-1.41
9183.25,-2.10
9275.08,-2.78
9367.83,-3.44
9461.51,-4.09
9556.12,-4.71
9651.68,-5.32
9748.20,-5.90
9845.68,-6.45
9944.14,-6.98
10043.58,-7.49
10144.02,-7.98
10245.46,-8.43
10347.91,-8.87
10451.39,-9.29
10555.91,-9.67
10661.46,-10.03
10768.08,-10.37
10875.76,-10.66
10984.52,-10.88
11094.36,-11.05
11205.31,-11.12
11317.36,-11.01
11430.53,-10.80
11544.84,-10.39
11660.29,-9.83
11776.89,-9.20
11894.66,-8.43
12013.60,-7.64
12133.74,-6.87
12255.08,-6.17
12377.63,-5.52
12501.41,-4.95
12626.42,-4.44
12752.68,-3.95
12880.21,-3.41
13009.01,-2.83
13139.10,-2.25
13270.49,-1.50
13403.20,-0.68
13537.23,0.25
13672.60,1.19
13809.33,2.13
13947.42,2.94
14086.90,3.51
14227.77,3.93
14370.04,4.10
14513.74,3.95
14658.88,3.42
14805.47,2.78
14953.52,1.97
15103.06,1.13
15254.09,0.30
15406.63,-0.35
15560.70,-0.88
15716.30,-1.21
15873.47,-1.27
16032.20,-1.19
16192.52,-0.89
16354.45,-0.54
16517.99,-0.17
16683.17,0.03
16850.01,-0.03
17018.51,-0.32
17188.69,-1.10
17360.58,-2.19
17534.18,-3.53
17709.53,-5.14
17886.62,-6.89
18065.49,-8.68
18246.14,-10.48
18428.60,-12.19
18612.89,-13.81
18799.02,-15.34
18987.01,-16.75
19176.88,-18.06
19368.65,-19.30
19562.33,-20.47
19757.96,-21.54
19955.54,-22.62
