frequency,raw
20.00,-18.29
20.20,-18.12
20.40,-17.96
20.61,-17.79
20.81,-17.62
21.02,-17.45
21.23,-17.28
21.44,-17.11
21.66,-16.94
21.87,-16.77
22.09,-16.60
22.31,-16.43
22.54,-16.25
22.76,-16.08
22.99,-15.91
23.22,-15.73
23.45,-15.55
23.69,-15.38
23.92,-15.20
24.16,-15.02
24.40,-14.84
24.65,-14.66
24.89,-14.49
25.14,-14.31
25.39,-14.13
25.65,-13.95
25.91,-13.77
26.16,-13.58
26.43,-13.40
26.69,-13.21
26.96,-13.03
27.23,-12.85
27.50,-12.66
27.77,-12.48
28.05,-12.30
28.33,-12.11
28.62,-11.93
28.90,-11.74
29.19,-11.56
29.48,-11.37
29.78,-11.19
30.08,-11.01
30.38,-10.83
30.68,-10.65
30.99,-10.47
31.30,-10.29
31.61,-10.10
31.93,-9.92
32.24,-9.74
32.57,-9.56
32.89,-9.38
33.22,-9.20
33.55,-9.02
33.89,-8.84
34.23,-8.66
34.57,-8.47
34.92,-8.28
35.27,-8.11
35.62,-7.94
35.97,-7.76
36.33,-7.58
36.70,-7.40
37.06,-7.22
37.43,-7.04
37.81,-6.86
38.19,-6.68
38.57,-6.51
38.95,-6.33
39.34,-6.16
39.74,-5.99
40.14,-5.82
40.54,-5.65
40.94,-5.47
41.35,-5.31
41.76,-5.15
42.18,-4.99
42.60,-4.84
43.03,-4.69
43.46,-4.54
43.90,-4.39
44.33,-4.24
44.78,-4.10
45.23,-3.96
45.68,-3.82
46.13,-3.68
46.60,-3.55
47.06,-3.41
47.53,-3.29
48.01,-3.17
48.49,-3.05
48.97,-2.93
49.46,-2.81
49.96,-2.69
50.46,-2.58
50.96,-2.47
51.47,-2.37
51.99,-2.26
52.51,-2.16
53.03,-2.07
53.56,-1.99
54.10,-1.91
54.64,-1.82
55.18,-1.75
55.74,-1.69
56.29,-1.63
56.86,-1.57
57.42,-1.51
58.00,-1.46
58.58,-1.43
59.16,-1.39
59.76,-1.36
60.35,-1.34
60.96,-1.32
61.57,-1.31
62.18,-1.30
62.80,-1.28
63.43,-1.27
64.07,-1.26
64.71,-1.27
65.35,-1.27
66.01,-1.28
66.67,-1.29
67.33,-1.31
68.01,-1.33
68.69,-1.34
69.37,-1.35
70.07,-1.37
70.77,-1.39
71.48,-1.42
72.19,-1.45
72.91,-1.49
73.64,-1.53
74.38,-1.57
75.12,-1.62
75.87,-1.66
76.63,-1.70
77.40,-1.74
78.17,-1.78
78.95,-1.82
79.74,-1.86
80.54,-1.90
81.35,-1.94
82.16,-1.98
82.98,-2.01
83.81,-2.04
84.65,-2.08
85.50,-2.12
86.35,-2.15
87.22,-2.16
88.09,-2.18
88.97,-2.20
89.86,-2.23
90.76,-2.25
91.66,-2.29
92.58,-2.32
93.51,-2.36
94.44,-2.39
95.39,-2.42
96.34,-2.45
97.30,-2.47
98.28,-2.50
99.26,-2.53
100.25,-2.56
101.25,-2.59
102.27,-2.61
103.29,-2.62
104.32,-2.63
105.37,-2.64
106.42,-2.64
107.48,-2.64
108.56,-2.62
109.64,-2.62
110.74,-2.62
111.85,-2.62
112.97,-2.61
114.10,-2.61
115.24,-2.60
116.39,-2.60
117.55,-2.60
118.73,-2.61
119.92,-2.64
121.12,-2.67
122.33,-2.68
123.55,-2.71
124.79,-2.75
126.03,-2.80
127.29,-2.82
128.57,-2.85
129.85,-2.89
131.15,-2.92
132.46,-2.93
133.79,-2.96
135.12,-2.96
136.48,-2.97
137.84,-2.96
139.22,-2.95
140.61,-2.94
142.02,-2.94
143.44,-2.94
144.87,-2.94
146.32,-2.94
147.78,-2.94
149.26,-2.94
150.75,-2.94
152.26,-2.94
153.78,-2.94
155.32,-2.94
156.88,-2.94
158.44,-2.94
160.03,-2.94
161.63,-2.94
163.24,-2.94
164.88,-2.94
166.53,-2.94
168.19,-2.94
169.87,-2.94
171.57,-2.94
173.29,-2.94
175.02,-2.94
176.77,-2.94
178.54,-2.94
180.32,-2.94
182.13,-2.94
183.95,-2.94
185.79,-2.93
187.65,-2.92
189.52,-2.92
191.42,-2.93
193.33,-2.94
195.27,-2.96
197.22,-2.98
199.19,-3.01
201.18,-3.04
203.19,-3.08
205.23,-3.11
207.28,-3.15
209.35,-3.18
211.44,-3.21
213.56,-3.24
215.69,-3.25
217.85,-3.26
220.03,-3.27
222.23,-3.28
224.45,-3.29
226.70,-3.31
228.96,-3.33
231.25,-3.35
233.57,-3.37
235.90,-3.40
238.26,-3.43
240.64,-3.48
243.05,-3.52
245.48,-3.58
247.93,-3.64
250.41,-3.68
252.92,-3.74
255.45,-3.77
258.00,-3.80
260.58,-3.83
263.19,-3.85
265.82,-3.88
268.48,-3.90
271.16,-3.92
273.87,-3.94
276.61,-3.94
279.38,-3.94
282.17,-3.93
284.99,-3.92
287.84,-3.92
290.72,-3.92
293.63,-3.92
296.57,-3.93
299.53,-3.94
302.53,-3.94
305.55,-3.93
308.61,-3.92
311.69,-3.90
314.81,-3.88
317.96,-3.85
321.14,-3.81
324.35,-3.77
327.59,-3.73
330.87,-3.69
334.18,-3.67
337.52,-3.64
340.90,-3.63
344.30,-3.63
347.75,-3.64
351.23,-3.66
354.74,-3.69
358.28,-3.73
361.87,-3.78
365.49,-3.82
369.14,-3.85
372.83,-3.88
376.56,-3.91
380.33,-3.93
384.13,-3.94
387.97,-3.94
391.85,-3.93
395.77,-3.93
399.73,-3.92
403.72,-3.92
407.76,-3.92
411.84,-3.92
415.96,-3.92
420.12,-3.92
424.32,-3.92
428.56,-3.92
432.85,-3.92
437.18,-3.92
441.55,-3.92
445.96,-3.92
450.42,-3.92
454.93,-3.92
459.48,-3.92
464.07,-3.92
468.71,-3.92
473.40,-3.92
478.13,-3.92
482.91,-3.92
487.74,-3.93
492.62,-3.94
497.55,-3.94
502.52,-3.93
507.55,-3.92
512.62,-3.90
517.75,-3.87
522.93,-3.84
528.16,-3.82
533.44,-3.80
538.77,-3.76
544.16,-3.72
549.60,-3.67
555.10,-3.63
560.65,-3.59
566.25,-3.54
571.92,-3.48
577.64,-3.42
583.41,-3.38
589.25,-3.34
595.14,-3.28
601.09,-3.21
607.10,-3.15
613.17,-3.09
619.30,-3.02
625.50,-2.95
631.75,-2.87
638.07,-2.80
644.45,-2.74
650.89,-2.67
657.40,-2.61
663.98,-2.53
670.62,-2.47
677.32,-2.42
684.10,-2.36
690.94,-2.28
697.85,-2.22
704.83,-2.16
711.87,-2.10
718.99,-2.03
726.18,-1.95
733.44,-1.88
740.78,-1.80
748.19,-1.73
755.67,-1.65
763.23,-1.56
770.86,-1.47
778.57,-1.38
786.35,-1.30
794.22,-1.22
802.16,-1.13
810.18,-1.04
818.28,-0.96
826.46,-0.88
834.73,-0.81
843.08,-0.74
851.51,-0.65
860.02,-0.59
868.62,-0.51
877.31,-0.43
886.08,-0.36
894.94,-0.30
903.89,-0.25
912.93,-0.20
922.06,-0.16
931.28,-0.12
940.59,-0.08
950.00,-0.05
959.50,-0.04
969.09,-0.02
978.78,-0.01
988.57,0.00
998.46,0.00
1008.44,-0.01
1018.53,-0.02
1028.71,-0.02
1039.00,-0.02
1049.39,-0.02
1059.88,-0.02
1070.48,-0.02
1081.19,-0.02
1092.00,-0.03
1102.92,-0.04
1113.95,-0.05
1125.09,-0.05
1136.34,-0.04
1147.70,-0.02
1159.18,-0.00
1170.77,0.02
1182.48,0.04
1194.30,0.08
1206.25,0.11
1218.31,0.14
1230.49,0.18
1242.80,0.21
1255.22,0.24
1267.78,0.27
1280.45,0.30
1293.26,0.31
1306.19,0.32
1319.25,0.32
1332.45,0.32
1345.77,0.32
1359.23,0.32
1372.82,0.32
1386.55,0.32
1400.41,0.31
1414.42,0.29
1428.56,0.27
1442.85,0.25
1457.28,0.23
1471.85,0.19
1486.57,0.16
1501.43,0.11
1516.45,0.05
1531.61,-0.00
1546.93,-0.06
1562.40,-0.13
1578.02,-0.22
1593.80,-0.30
1609.74,-0.40
1625.84,-0.49
1642.10,-0.60
1658.52,-0.72
1675.10,-0.85
1691.85,-0.99
1708.77,-1.13
1725.86,-1.26
1743.12,-1.41
1760.55,-1.57
1778.15,-1.73
1795.94,-1.89
1813.90,-2.06
1832.03,-2.25
1850.36,-2.43
1868.86,-2.61
1887.55,-2.80
1906.42,-3.01
1925.49,-3.24
1944.74,-3.47
1964.19,-3.70
1983.83,-3.96
2003.67,-4.22
2023.71,-4.48
2043.94,-4.74
2064.38,-4.99
2085.03,-5.25
2105.88,-5.51
2126.94,-5.79
2148.20,-6.07
2169.69,-6.34
2191.38,-6.62
2213.30,-6.89
2235.43,-7.16
2257.78,-7.40
2280.36,-7.66
2303.17,-7.91
2326.20,-8.16
2349.46,-8.40
2372.95,-8.66
2396.68,-8.90
2420.65,-9.13
2444.86,-9.35
2469.31,-9.54
2494.00,-9.74
2518.94,-9.93
2544.13,-10.13
2569.57,-10.33
2595.27,-10.52
2621.22,-10.71
2647.43,-10.90
2673.90,-11.10
2700.64,-11.30
2727.65,-11.50
2754.93,-11.71
2782.48,-11.90
2810.30,-12.11
2838.40,-12.31
2866.79,-12.52
2895.46,-12.73
2924.41,-12.92
2953.65,-13.11
2983.19,-13.30
3013.02,-13.49
3043.15,-13.68
3073.58,-13.88
3104.32,-14.08
3135.36,-14.28
3166.72,-14.47
3198.38,-14.69
3230.37,-14.91
3262.67,-15.14
3295.30,-15.37
3328.25,-15.62
3361.53,-15.88
3395.15,-16.14
3429.10,-16.41
3463.39,-16.70
3498.03,-17.02
3533.01,-17.35
3568.34,-17.72
3604.02,-18.11
3640.06,-18.53
3676.46,-18.96
3713.22,-19.42
3750.36,-19.89
3787.86,-20.38
3825.74,-20.87
3864.00,-21.34
3902.64,-21.79
3941.66,-22.20
3981.08,-22.55
4020.89,-22.83
4061.10,-23.02
4101.71,-23.11
4142.73,-23.08
4184.15,-22.92
4226.00,-22.64
4268.26,-22.27
4310.94,-21.79
4354.05,-21.21
4397.59,-20.55
4441.56,-19.83
4485.98,-19.09
4530.84,-18.33
4576.15,-17.57
4621.91,-16.81
4668.13,-16.06
4714.81,-15.30
4761.96,-14.58
4809.58,-13.85
4857.67,-13.12
4906.25,-12.41
4955.31,-11.69
5004.87,-10.97
5054.91,-10.23
5105.46,-9.50
5156.52,-8.77
5208.08,-8.06
5260.16,-7.38
5312.77,-6.73
5365.89,-6.12
5419.55,-5.58
5473.75,-5.09
5528.49,-4.66
5583.77,-4.28
5639.61,-3.96
5696.00,-3.69
5752.96,-3.47
5810.49,-3.29
5868.60,-3.17
5927.28,-3.07
5986.56,-3.00
6046.42,-2.96
6106.89,-2.93
6167.96,-2.93
6229.64,-2.96
6291.93,-3.04
6354.85,-3.16
6418.40,-3.32
6482.58,-3.51
6547.41,-3.72
6612.88,-3.93
6679.01,-4.13
6745.80,-4.32
6813.26,-4.46
6881.39,-4.56
6950.21,-4.59
7019.71,-4.55
7089.91,-4.45
7160.81,-4.27
7232.41,-4.02
7304.74,-3.70
7377.79,-3.34
7451.56,-2.95
7526.08,-2.56
7601.34,-2.17
7677.35,-1.81
7754.13,-1.47
7831.67,-1.18
7909.98,-0.93
7989.08,-0.73
8068.98,-0.57
8149.67,-0.48
8231.16,-0.41
8313.47,-0.38
8396.61,-0.39
8480.57,-0.43
8565.38,-0.50
8651.03,-0.62
8737.54,-0.78
8824.92,-0.99
8913.17,-1.24
9002.30,-1.55
9092.32,-1.90
9183.25,-2.30
9275.08,-2.75
9367.83,-3.27
9461.51,-3.82
9556.12,-4.43
9651.68,-5.06
9748.20,-5.70
9845.68,-6.34
9944.14,-6.98
10043.58,-7.59
10144.02,-8.13
10245.46,-8.62
10347.91,-9.06
10451.39,-9.44
10555.91,-9.75
10661.46,-10.01
10768.08,-10.20
10875.76,-10.36
10984.52,-10.50
11094.36,-10.64
11205.31,-10.78
11317.36,-10.93
11430.53,-11.10
11544.84,-11.26
11660.29,-11.45
11776.89,-11.62
11894.66,-11.79
12013.60,-11.95
12133.74,-12.08
12255.08,-12.18
12377.63,-12.25
12501.41,-12.29
12626.42,-12.30
12752.68,-12.28
12880.21,-12.26
13009.01,-12.21
13139.10,-12.16
13270.49,-12.11
13403.20,-12.06
13537.23,-12.02
13672.60,-11.97
13809.33,-11.91
13947.42,-11.85
14086.90,-11.78
14227.77,-11.69
14370.04,-11.59
14513.74,-11.49
14658.88,-11.39
14805.47,-11.30
14953.52,-11.21
15103.06,-11.14
15254.09,-11.11
15406.63,-11.10
15560.70,-11.13
15716.30,-11.19
15873.47,-11.28
16032.20,-11.40
16192.52,-11.55
16354.45,-11.72
16517.99,-11.92
16683.17,-12.11
16850.01,-12.30
17018.51,-12.53
17188.69,-12.76
17360.58,-13.00
17534.18,-13.25
17709.53,-13.52
17886.62,-13.78
18065.49,-14.05
18246.14,-14.33
18428.60,-14.64
18612.89,-14.96
18799.02,-15.29
18987.01,-15.63
19176.88,-15.99
19368.65,-16.36
19562.33,-16.74
19757.96,-17.13
19955.54,-17.54
