frequency,raw,error,smoothed,error_smoothed,equalization,parametric_eq,equalized_raw,equalized_smoothed,target
20,-17.55,-15.44,-17.46,-15.35,6.00,2.99,-11.55,-11.46,-2.11
21,-16.87,-14.76,-16.92,-14.82,6.00,3.43,-10.87,-10.92,-2.11
22,-16.39,-14.29,-16.40,-14.30,6.00,3.91,-10.39,-10.40,-2.10
23,-15.91,-13.81,-15.89,-13.79,6.00,4.42,-9.91,-9.89,-2.10
24,-15.27,-13.17,-15.39,-13.29,6.00,4.96,-9.27,-9.39,-2.10
25,-14.85,-12.75,-14.91,-12.81,6.00,5.52,-8.85,-8.91,-2.10
26,-14.50,-12.40,-14.43,-12.34,6.00,6.08,-8.50,-8.43,-2.10
27,-13.96,-11.86,-13.97,-11.88,6.00,6.61,-7.96,-7.97,-2.10
28,-13.46,-11.36,-13.53,-11.43,6.00,7.07,-7.46,-7.53,-2.10
29,-13.22,-11.12,-13.09,-11.00,6.00,7.43,-7.22,-7.09,-2.10
30,-12.56,-10.46,-12.67,-10.57,6.00,7.67,-6.56,-6.67,-2.10
31,-12.31,-10.21,-12.26,-10.16,6.00,7.75,-6.31,-6.26,-2.10
32,-11.85,-9.75,-11.86,-9.76,6.00,7.68,-5.85,-5.86,-2.10
33,-11.42,-9.32,-11.47,-9.37,6.00,7.49,-5.42,-5.47,-2.10
34,-11.17,-9.07,-11.09,-8.98,6.00,7.19,-5.17,-5.09,-2.10
35,-10.78,-8.68,-10.71,-8.61,6.00,6.83,-4.78,-4.71,-2.10
36,-10.26,-8.15,-10.35,-8.24,6.00,6.44,-4.26,-4.35,-2.11
37,-10.00,-7.89,-10.00,-7.88,6.00,6.03,-4.00,-4.00,-2.11
38,-9.57,-7.45,-9.65,-7.53,6.00,5.62,-3.57,-3.65,-2.12
39,-9.34,-7.21,-9.31,-7.19,6.00,5.22,-3.34,-3.31,-2.13
40,-9.09,-6.96,-8.98,-6.85,6.00,4.85,-3.09,-2.98,-2.13
41,-8.66,-6.52,-8.66,-6.52,5.95,4.49,-2.71,-2.71,-2.14
42,-8.26,-6.11,-8.34,-6.19,5.83,4.16,-2.43,-2.51,-2.15
43,-7.98,-5.81,-8.04,-5.87,5.67,3.84,-2.31,-2.37,-2.17
44,-7.75,-5.57,-7.73,-5.55,5.46,3.55,-2.29,-2.28,-2.18
45,-7.52,-5.33,-7.44,-5.24,5.21,3.28,-2.31,-2.22,-2.19
46,-7.23,-5.02,-7.15,-4.94,4.94,3.03,-2.29,-2.21,-2.21
47,-6.84,-4.61,-6.86,-4.64,4.64,2.80,-2.20,-2.23,-2.23
48,-6.57,-4.33,-6.58,-4.34,4.34,2.58,-2.23,-2.24,-2.24
49,-6.25,-3.99,-6.31,-4.05,4.05,2.37,-2.20,-2.26,-2.26
50,-5.93,-3.65,-6.04,-3.76,3.76,2.18,-2.17,-2.28,-2.28
51,-5.88,-3.58,-5.78,-3.48,3.48,2.00,-2.40,-2.30,-2.30
52,-5.60,-3.27,-5.52,-3.20,3.20,1.83,-2.40,-2.33,-2.33
53,-5.24,-2.89,-5.27,-2.92,2.92,1.67,-2.32,-2.35,-2.35
54,-5.01,-2.64,-5.02,-2.65,2.65,1.51,-2.36,-2.37,-2.37
55,-4.79,-2.39,-4.78,-2.38,2.38,1.37,-2.41,-2.40,-2.40
56,-4.56,-2.14,-4.55,-2.12,2.12,1.23,-2.44,-2.42,-2.42
57,-4.33,-1.88,-4.32,-1.87,1.87,1.09,-2.46,-2.45,-2.45
58,-4.10,-1.62,-4.09,-1.62,1.62,0.96,-2.48,-2.48,-2.48
59,-3.87,-1.37,-3.88,-1.37,1.37,0.84,-2.50,-2.50,-2.50
60,-3.65,-1.12,-3.67,-1.14,1.14,0.72,-2.51,-2.53,-2.53
61,-3.42,-0.86,-3.47,-0.91,0.91,0.60,-2.51,-2.56,-2.56
62,-3.19,-0.60,-3.27,-0.68,0.68,0.48,-2.51,-2.59,-2.59
63,-3.19,-0.57,-3.08,-0.47,0.47,0.37,-2.72,-2.62,-2.62
64,-2.87,-0.22,-2.90,-0.26,0.26,0.26,-2.61,-2.65,-2.65
65,-2.69,-0.01,-2.73,-0.05,0.05,0.15,-2.64,-2.68,-2.68
66,-2.51,0.20,-2.56,0.15,-0.15,0.05,-2.66,-2.71,-2.71
67,-2.51,0.23,-2.39,0.34,-0.34,-0.06,-2.85,-2.74,-2.74
68,-2.18,0.59,-2.23,0.54,-0.54,-0.16,-2.72,-2.76,-2.77
69,-2.05,0.74,-2.07,0.72,-0.72,-0.27,-2.77,-2.79,-2.79
70,-2.05,0.77,-1.92,0.91,-0.91,-0.37,-2.96,-2.82,-2.82
71,-1.82,1.03,-1.77,1.09,-1.09,-0.47,-2.91,-2.85,-2.85
72,-1.59,1.29,-1.62,1.26,-1.26,-0.58,-2.85,-2.88,-2.88
73,-1.37,1.54,-1.48,1.44,-1.44,-0.68,-2.81,-2.91,-2.91
74,-1.37,1.57,-1.34,1.60,-1.60,-0.78,-2.97,-2.94,-2.94
75,-1.20,1.77,-1.21,1.76,-1.76,-0.89,-2.96,-2.97,-2.97
76,-1.08,1.92,-1.08,1.92,-1.92,-0.99,-3.00,-3.00,-3.00
77,-0.91,2.12,-0.96,2.07,-2.07,-1.10,-2.98,-3.03,-3.03
78,-0.85,2.21,-0.85,2.21,-2.21,-1.20,-3.06,-3.06,-3.06
79,-0.68,2.41,-0.74,2.35,-2.35,-1.31,-3.03,-3.09,-3.09
80,-0.68,2.44,-0.63,2.49,-2.49,-1.42,-3.17,-3.12,-3.12
81,-0.54,2.61,-0.53,2.61,-2.61,-1.53,-3.15,-3.15,-3.15
82,-0.46,2.72,-0.44,2.74,-2.74,-1.64,-3.20,-3.18,-3.18
83,-0.35,2.85,-0.34,2.86,-2.86,-1.75,-3.21,-3.20,-3.20
84,-0.23,3.00,-0.25,2.98,-2.98,-1.86,-3.21,-3.23,-3.23
85,-0.23,3.03,-0.17,3.09,-3.09,-1.97,-3.32,-3.26,-3.26
86,-0.10,3.19,-0.08,3.21,-3.21,-2.08,-3.31,-3.29,-3.29
87,0.00,3.32,0.00,3.32,-3.32,-2.20,-3.32,-3.32,-3.32
88,0.05,3.39,0.08,3.42,-3.42,-2.32,-3.37,-3.34,-3.34
89,0.23,3.60,0.16,3.53,-3.53,-2.43,-3.30,-3.37,-3.37
90,0.23,3.63,0.23,3.63,-3.63,-2.55,-3.40,-3.39,-3.40
91,0.25,3.67,0.30,3.72,-3.72,-2.67,-3.47,-3.42,-3.42
92,0.46,3.90,0.37,3.81,-3.81,-2.79,-3.35,-3.44,-3.44
93,0.46,3.93,0.43,3.90,-3.90,-2.91,-3.44,-3.47,-3.47
94,0.46,3.95,0.49,3.98,-3.98,-3.04,-3.52,-3.49,-3.49
95,0.47,3.98,0.55,4.06,-4.06,-3.16,-3.59,-3.51,-3.51
96,0.68,4.22,0.60,4.13,-4.13,-3.28,-3.45,-3.53,-3.54
97,0.68,4.24,0.64,4.20,-4.20,-3.41,-3.52,-3.56,-3.56
98,0.68,4.26,0.69,4.26,-4.26,-3.53,-3.58,-3.58,-3.58
99,0.68,4.28,0.73,4.33,-4.33,-3.66,-3.65,-3.60,-3.60
100,0.68,4.29,0.76,4.38,-4.38,-3.78,-3.70,-3.62,-3.61
101,0.71,4.34,0.80,4.44,-4.44,-3.90,-3.73,-3.64,-3.63
102,0.91,4.56,0.83,4.49,-4.49,-4.03,-3.58,-3.66,-3.65
104,0.91,4.61,0.85,4.54,-4.54,-4.27,-3.63,-3.68,-3.70
105,0.91,4.63,0.87,4.58,-4.58,-4.39,-3.67,-3.70,-3.72
106,0.91,4.64,0.89,4.61,-4.61,-4.51,-3.70,-3.72,-3.73
107,0.91,4.66,0.90,4.65,-4.65,-4.62,-3.74,-3.74,-3.75
108,0.91,4.68,0.91,4.67,-4.67,-4.73,-3.76,-3.76,-3.77
109,0.91,4.69,0.92,4.70,-4.70,-4.84,-3.79,-3.78,-3.78
110,0.91,4.71,0.92,4.72,-4.72,-4.95,-3.81,-3.80,-3.80
111,0.91,4.72,0.92,4.74,-4.74,-5.05,-3.83,-3.82,-3.81
112,0.91,4.74,0.92,4.76,-4.76,-5.14,-3.85,-3.84,-3.83
113,0.91,4.76,0.92,4.78,-4.78,-5.24,-3.87,-3.86,-3.85
114,0.91,4.78,0.92,4.79,-4.79,-5.32,-3.88,-3.88,-3.87
115,0.91,4.79,0.91,4.81,-4.81,-5.41,-3.90,-3.90,-3.88
117,0.91,4.84,0.91,4.83,-4.83,-5.56,-3.92,-3.92,-3.93
118,0.91,4.86,0.91,4.86,-4.86,-5.62,-3.95,-3.94,-3.95
119,0.91,4.88,0.91,4.88,-4.88,-5.68,-3.97,-3.97,-3.97
120,0.91,4.90,0.91,4.90,-4.90,-5.73,-3.99,-3.99,-3.99
121,0.91,4.92,0.91,4.93,-4.93,-5.78,-4.02,-4.02,-4.01
123,0.91,4.97,0.91,4.95,-4.95,-5.85,-4.04,-4.04,-4.06
124,0.91,4.98,0.91,4.98,-4.98,-5.88,-4.07,-4.07,-4.07
125,0.91,5.00,0.91,5.01,-5.01,-5.90,-4.10,-4.10,-4.09
126,0.91,5.02,0.92,5.04,-5.04,-5.91,-4.13,-4.12,-4.11
128,0.91,5.07,0.92,5.06,-5.06,-5.92,-4.15,-4.15,-4.16
129,0.91,5.09,0.92,5.09,-5.09,-5.92,-4.18,-4.17,-4.18
130,0.91,5.10,0.92,5.12,-5.12,-5.91,-4.21,-4.20,-4.19
131,0.91,5.12,0.92,5.14,-5.14,-5.90,-4.23,-4.22,-4.21
133,0.91,5.16,0.92,5.16,-5.16,-5.86,-4.25,-4.25,-4.25
134,0.91,5.18,0.91,5.18,-5.18,-5.83,-4.27,-4.27,-4.27
135,0.91,5.20,0.90,5.19,-5.19,-5.80,-4.28,-4.29,-4.29
137,0.91,5.23,0.89,5.21,-5.21,-5.73,-4.30,-4.32,-4.32
138,0.91,5.25,0.87,5.21,-5.21,-5.69,-4.30,-4.34,-4.34
140,0.91,5.28,0.85,5.21,-5.21,-5.61,-4.30,-4.36,-4.37
141,0.91,5.29,0.83,5.21,-5.21,-5.56,-4.30,-4.38,-4.38
142,0.80,5.20,0.80,5.20,-5.20,-5.51,-4.40,-4.40,-4.40
144,0.68,5.11,0.77,5.20,-5.20,-5.42,-4.52,-4.42,-4.43
145,0.68,5.12,0.74,5.18,-5.18,-5.37,-4.50,-4.44,-4.44
147,0.68,5.14,0.71,5.17,-5.17,-5.27,-4.49,-4.46,-4.46
148,0.68,5.15,0.68,5.16,-5.16,-5.22,-4.48,-4.48,-4.47
150,0.68,5.18,0.65,5.15,-5.15,-5.12,-4.47,-4.49,-4.50
151,0.68,5.19,0.62,5.13,-5.13,-5.07,-4.45,-4.51,-4.51
153,0.66,5.19,0.59,5.12,-5.12,-4.97,-4.46,-4.53,-4.53
154,0.49,5.03,0.57,5.11,-5.11,-4.92,-4.62,-4.54,-4.54
156,0.46,5.02,0.54,5.10,-5.10,-4.83,-4.64,-4.56,-4.56
157,0.46,5.03,0.51,5.08,-5.08,-4.78,-4.62,-4.57,-4.57
159,0.46,5.05,0.48,5.07,-5.07,-4.70,-4.61,-4.59,-4.59
160,0.46,5.05,0.45,5.05,-5.05,-4.66,-4.59,-4.60,-4.59
162,0.46,5.07,0.42,5.03,-5.03,-4.58,-4.57,-4.61,-4.61
164,0.46,5.09,0.38,5.01,-5.01,-4.50,-4.55,-4.62,-4.63
165,0.46,5.09,0.34,4.98,-4.98,-4.47,-4.52,-4.64,-4.63
167,0.23,4.88,0.30,4.95,-4.95,-4.40,-4.72,-4.65,-4.65
169,0.23,4.89,0.25,4.91,-4.91,-4.34,-4.68,-4.66,-4.66
170,0.23,4.90,0.20,4.87,-4.87,-4.31,-4.64,-4.67,-4.67
172,0.23,4.91,0.15,4.83,-4.83,-4.25,-4.60,-4.68,-4.68
174,0.01,4.70,0.10,4.79,-4.79,-4.21,-4.78,-4.69,-4.69
175,0.00,4.69,0.05,4.74,-4.74,-4.18,-4.74,-4.70,-4.69
177,0.00,4.70,-0.00,4.70,-4.70,-4.14,-4.70,-4.70,-4.70
179,0.00,4.71,-0.05,4.66,-4.66,-4.10,-4.66,-4.71,-4.71
181,-0.12,4.60,-0.10,4.62,-4.62,-4.07,-4.74,-4.72,-4.72
183,-0.23,4.50,-0.15,4.58,-4.58,-4.04,-4.81,-4.72,-4.73
184,-0.23,4.50,-0.19,4.54,-4.54,-4.03,-4.77,-4.73,-4.73
186,-0.23,4.50,-0.23,4.50,-4.50,-4.01,-4.73,-4.73,-4.73
188,-0.23,4.51,-0.27,4.47,-4.47,-3.99,-4.70,-4.74,-4.74
190,-0.23,4.51,-0.31,4.43,-4.43,-3.97,-4.66,-4.74,-4.74
192,-0.30,4.45,-0.35,4.40,-4.40,-3.96,-4.70,-4.75,-4.75
194,-0.46,4.29,-0.38,4.37,-4.37,-3.95,-4.83,-4.75,-4.75
196,-0.46,4.29,-0.42,4.33,-4.33,-3.95,-4.79,-4.75,-4.75
198,-0.46,4.29,-0.45,4.30,-4.30,-3.94,-4.76,-4.75,-4.75
200,-0.46,4.29,-0.49,4.27,-4.27,-3.94,-4.73,-4.75,-4.75
202,-0.46,4.30,-0.52,4.23,-4.23,-3.94,-4.69,-4.76,-4.76
204,-0.53,4.23,-0.56,4.20,-4.20,-3.94,-4.73,-4.76,-4.76
206,-0.68,4.08,-0.59,4.16,-4.16,-3.95,-4.84,-4.76,-4.76
208,-0.68,4.08,-0.63,4.13,-4.13,-3.95,-4.81,-4.76,-4.76
210,-0.68,4.08,-0.67,4.09,-4.09,-3.96,-4.77,-4.76,-4.76
212,-0.68,4.08,-0.70,4.05,-4.05,-3.96,-4.73,-4.76,-4.76
214,-0.68,4.07,-0.74,4.01,-4.01,-3.97,-4.69,-4.76,-4.75
216,-0.68,4.07,-0.78,3.97,-3.97,-3.97,-4.65,-4.75,-4.75
218,-0.91,3.84,-0.82,3.93,-3.93,-3.98,-4.84,-4.75,-4.75
221,-0.91,3.84,-0.86,3.89,-3.89,-3.99,-4.80,-4.75,-4.75
223,-0.91,3.84,-0.90,3.85,-3.85,-3.99,-4.76,-4.75,-4.75
225,-0.91,3.84,-0.95,3.80,-3.80,-3.99,-4.71,-4.75,-4.75
227,-0.91,3.84,-0.99,3.76,-3.76,-3.99,-4.67,-4.75,-4.75
229,-1.07,3.67,-1.03,3.72,-3.72,-3.99,-4.79,-4.75,-4.74
232,-1.14,3.60,-1.07,3.67,-3.67,-3.98,-4.81,-4.74,-4.74
234,-1.14,3.60,-1.11,3.63,-3.63,-3.97,-4.77,-4.74,-4.74
236,-1.14,3.60,-1.15,3.58,-3.58,-3.96,-4.72,-4.74,-4.74
239,-1.14,3.60,-1.20,3.54,-3.54,-3.95,-4.68,-4.74,-4.74
241,-1.14,3.59,-1.24,3.50,-3.50,-3.93,-4.64,-4.73,-4.73
244,-1.37,3.36,-1.27,3.46,-3.46,-3.90,-4.83,-4.73,-4.73
246,-1.37,3.36,-1.31,3.42,-3.42,-3.88,-4.79,-4.73,-4.73
248,-1.37,3.35,-1.35,3.38,-3.38,-3.85,-4.75,-4.73,-4.72
251,-1.37,3.35,-1.39,3.34,-3.34,-3.80,-4.71,-4.72,-4.72
253,-1.37,3.35,-1.42,3.30,-3.30,-3.77,-4.67,-4.72,-4.72
256,-1.37,3.34,-1.46,3.26,-3.26,-3.71,-4.63,-4.71,-4.71
259,-1.57,3.14,-1.49,3.22,-3.22,-3.65,-4.79,-4.71,-4.71
261,-1.60,3.11,-1.52,3.18,-3.18,-3.61,-4.78,-4.71,-4.71
264,-1.60,3.10,-1.56,3.14,-3.14,-3.54,-4.74,-4.70,-4.70
266,-1.60,3.09,-1.60,3.10,-3.10,-3.49,-4.70,-4.69,-4.69
269,-1.60,3.09,-1.63,3.05,-3.05,-3.41,-4.65,-4.69,-4.69
272,-1.60,3.08,-1.68,3.00,-3.00,-3.33,-4.60,-4.68,-4.68
274,-1.69,2.98,-1.72,2.95,-2.95,-3.27,-4.64,-4.67,-4.67
277,-1.82,2.85,-1.77,2.89,-2.89,-3.18,-4.71,-4.66,-4.67
280,-1.82,2.84,-1.83,2.83,-2.83,-3.09,-4.65,-4.66,-4.66
283,-1.82,2.83,-1.89,2.76,-2.76,-3.00,-4.58,-4.65,-4.65
286,-1.91,2.73,-1.95,2.69,-2.69,-2.91,-4.60,-4.63,-4.64
288,-2.05,2.57,-2.02,2.61,-2.61,-2.84,-4.66,-4.62,-4.62
291,-2.05,2.56,-2.09,2.52,-2.52,-2.75,-4.57,-4.61,-4.61
294,-2.18,2.42,-2.16,2.44,-2.44,-2.65,-4.62,-4.60,-4.60
297,-2.28,2.30,-2.23,2.35,-2.35,-2.55,-4.63,-4.58,-4.58
300,-2.28,2.29,-2.30,2.26,-2.26,-2.46,-4.54,-4.57,-4.57
303,-2.29,2.26,-2.37,2.18,-2.18,-2.36,-4.47,-4.55,-4.55
306,-2.51,2.02,-2.44,2.10,-2.10,-2.26,-4.61,-4.53,-4.53
309,-2.51,2.01,-2.50,2.02,-2.02,-2.16,-4.53,-4.52,-4.52
312,-2.51,1.99,-2.56,1.94,-1.94,-2.07,-4.45,-4.50,-4.50
316,-2.71,1.77,-2.61,1.87,-1.87,-1.94,-4.58,-4.48,-4.48
319,-2.74,1.72,-2.66,1.80,-1.80,-1.85,-4.54,-4.46,-4.46
322,-2.74,1.70,-2.70,1.74,-1.74,-1.76,-4.48,-4.44,-4.44
325,-2.74,1.68,-2.73,1.69,-1.69,-1.67,-4.43,-4.42,-4.42
328,-2.74,1.66,-2.77,1.63,-1.63,-1.58,-4.37,-4.40,-4.40
332,-2.74,1.64,-2.80,1.58,-1.58,-1.46,-4.32,-4.38,-4.38
335,-2.74,1.62,-2.83,1.53,-1.53,-1.37,-4.27,-4.36,-4.36
338,-2.88,1.46,-2.86,1.48,-1.48,-1.28,-4.36,-4.34,-4.34
342,-2.96,1.36,-2.89,1.43,-1.43,-1.17,-4.39,-4.32,-4.32
345,-2.96,1.34,-2.92,1.38,-1.38,-1.08,-4.34,-4.30,-4.30
349,-2.96,1.32,-2.96,1.32,-1.32,-0.97,-4.28,-4.28,-4.28
352,-2.96,1.30,-3.00,1.26,-1.26,-0.89,-4.22,-4.26,-4.26
356,-2.96,1.28,-3.05,1.19,-1.19,-0.79,-4.15,-4.24,-4.24
359,-3.10,1.12,-3.11,1.11,-1.11,-0.71,-4.21,-4.22,-4.22
363,-3.19,1.02,-3.17,1.04,-1.04,-0.60,-4.23,-4.21,-4.21
366,-3.19,1.00,-3.24,0.95,-0.95,-0.53,-4.14,-4.19,-4.19
370,-3.22,0.95,-3.31,0.87,-0.87,-0.43,-4.09,-4.17,-4.17
374,-3.42,0.74,-3.38,0.78,-0.78,-0.33,-4.20,-4.16,-4.16
377,-3.42,0.72,-3.45,0.69,-0.69,-0.26,-4.11,-4.14,-4.14
381,-3.53,0.60,-3.52,0.61,-0.61,-0.16,-4.14,-4.13,-4.13
385,-3.65,0.47,-3.59,0.53,-0.53,-0.07,-4.18,-4.12,-4.12
389,-3.65,0.45,-3.65,0.45,-0.45,0.02,-4.10,-4.10,-4.10
393,-3.66,0.43,-3.71,0.38,-0.38,0.11,-4.04,-4.09,-4.09
397,-3.87,0.21,-3.76,0.33,-0.33,0.20,-4.20,-4.08,-4.08
401,-3.87,0.20,-3.79,0.28,-0.28,0.29,-4.15,-4.07,-4.07
405,-3.87,0.19,-3.82,0.24,-0.24,0.37,-4.11,-4.06,-4.06
409,-3.87,0.18,-3.84,0.21,-0.21,0.45,-4.08,-4.05,-4.05
413,-3.87,0.17,-3.86,0.18,-0.18,0.53,-4.05,-4.04,-4.04
417,-3.87,0.16,-3.87,0.17,-0.17,0.61,-4.04,-4.03,-4.03
421,-3.87,0.15,-3.87,0.15,-0.15,0.68,-4.02,-4.02,-4.02
425,-3.87,0.15,-3.88,0.14,-0.14,0.75,-4.01,-4.02,-4.02
430,-3.87,0.14,-3.88,0.12,-0.12,0.84,-3.99,-4.01,-4.01
434,-3.87,0.13,-3.89,0.10,-0.10,0.91,-3.97,-4.00,-4.00
438,-3.87,0.12,-3.91,0.08,-0.08,0.97,-3.95,-3.99,-3.99
443,-3.87,0.11,-3.93,0.05,-0.05,1.04,-3.92,-3.98,-3.98
447,-3.87,0.10,-3.95,0.02,-0.02,1.10,-3.89,-3.97,-3.97
451,-3.87,0.09,-3.99,-0.02,0.02,1.15,-3.85,-3.96,-3.96
456,-4.10,-0.15,-4.02,-0.07,0.07,1.21,-4.03,-3.95,-3.95
460,-4.10,-0.16,-4.06,-0.12,0.12,1.26,-3.98,-3.94,-3.94
465,-4.10,-0.17,-4.10,-0.17,0.17,1.31,-3.93,-3.93,-3.93
470,-4.10,-0.18,-4.15,-0.23,0.23,1.35,-3.87,-3.92,-3.92
474,-4.27,-0.36,-4.19,-0.28,0.28,1.39,-3.99,-3.91,-3.91
479,-4.33,-0.43,-4.23,-0.34,0.34,1.42,-3.99,-3.89,-3.90
484,-4.33,-0.45,-4.27,-0.39,0.39,1.45,-3.94,-3.88,-3.88
489,-4.33,-0.46,-4.31,-0.44,0.44,1.47,-3.89,-3.87,-3.87
494,-4.33,-0.48,-4.34,-0.49,0.49,1.48,-3.84,-3.85,-3.85
499,-4.33,-0.49,-4.37,-0.54,0.54,1.49,-3.79,-3.83,-3.84
504,-4.33,-0.51,-4.41,-0.59,0.59,1.50,-3.74,-3.82,-3.82
509,-4.33,-0.53,-4.44,-0.64,0.64,1.50,-3.69,-3.80,-3.80
514,-4.56,-0.78,-4.47,-0.69,0.69,1.49,-3.87,-3.78,-3.78
519,-4.56,-0.80,-4.50,-0.74,0.74,1.48,-3.82,-3.76,-3.76
524,-4.56,-0.82,-4.54,-0.80,0.80,1.46,-3.76,-3.74,-3.74
529,-4.56,-0.84,-4.58,-0.86,0.86,1.44,-3.70,-3.72,-3.72
535,-4.56,-0.86,-4.61,-0.92,0.92,1.41,-3.64,-3.70,-3.70
540,-4.56,-0.88,-4.65,-0.98,0.98,1.38,-3.58,-3.68,-3.68
545,-4.75,-1.10,-4.69,-1.04,1.04,1.35,-3.71,-3.65,-3.65
551,-4.79,-1.16,-4.73,-1.10,1.10,1.30,-3.69,-3.63,-3.63
556,-4.79,-1.19,-4.77,-1.17,1.17,1.26,-3.62,-3.60,-3.60
562,-4.79,-1.21,-4.81,-1.23,1.23,1.21,-3.56,-3.58,-3.58
568,-4.79,-1.23,-4.85,-1.29,1.29,1.15,-3.50,-3.56,-3.56
573,-4.79,-1.26,-4.88,-1.35,1.35,1.10,-3.44,-3.53,-3.53
579,-4.98,-1.47,-4.91,-1.41,1.41,1.04,-3.57,-3.51,-3.51
585,-5.01,-1.53,-4.94,-1.46,1.46,0.98,-3.55,-3.48,-3.48
591,-5.01,-1.55,-4.96,-1.51,1.51,0.92,-3.50,-3.46,-3.46
596,-5.01,-1.58,-4.98,-1.55,1.55,0.86,-3.46,-3.43,-3.43
602,-5.01,-1.60,-5.00,-1.59,1.59,0.80,-3.42,-3.41,-3.41
608,-5.01,-1.62,-5.01,-1.63,1.63,0.73,-3.38,-3.39,-3.39
615,-5.01,-1.65,-5.02,-1.66,1.66,0.65,-3.35,-3.36,-3.36
621,-5.01,-1.67,-5.03,-1.69,1.69,0.58,-3.32,-3.34,-3.34
627,-5.01,-1.69,-5.03,-1.71,1.71,0.52,-3.30,-3.32,-3.32
633,-5.01,-1.71,-5.04,-1.74,1.74,0.45,-3.27,-3.30,-3.30
639,-5.01,-1.73,-5.04,-1.76,1.76,0.38,-3.25,-3.28,-3.28
646,-5.01,-1.75,-5.04,-1.78,1.78,0.30,-3.23,-3.26,-3.26
652,-5.01,-1.77,-5.03,-1.79,1.79,0.23,-3.22,-3.24,-3.24
659,-5.01,-1.79,-5.02,-1.81,1.81,0.15,-3.20,-3.22,-3.22
665,-5.01,-1.81,-5.01,-1.81,1.81,0.08,-3.20,-3.20,-3.20
672,-5.01,-1.83,-4.99,-1.81,1.81,0.00,-3.20,-3.18,-3.18
679,-5.01,-1.85,-4.97,-1.81,1.81,-0.08,-3.20,-3.16,-3.16
686,-5.01,-1.87,-4.93,-1.79,1.79,-0.15,-3.22,-3.14,-3.14
692,-4.92,-1.80,-4.89,-1.77,1.77,-0.22,-3.15,-3.12,-3.12
699,-4.79,-1.69,-4.84,-1.74,1.74,-0.30,-3.05,-3.10,-3.10
706,-4.79,-1.71,-4.78,-1.70,1.70,-0.38,-3.09,-3.08,-3.08
713,-4.79,-1.73,-4.71,-1.65,1.65,-0.45,-3.14,-3.06,-3.06
721,-4.56,-1.52,-4.63,-1.59,1.59,-0.54,-2.97,-3.04,-3.04
728,-4.56,-1.54,-4.55,-1.53,1.53,-0.61,-3.03,-3.02,-3.02
735,-4.47,-1.47,-4.46,-1.46,1.46,-0.69,-3.01,-3.00,-3.00
742,-4.33,-1.35,-4.36,-1.38,1.38,-0.76,-2.95,-2.98,-2.98
750,-4.17,-1.21,-4.26,-1.30,1.30,-0.85,-2.87,-2.96,-2.96
757,-4.10,-1.16,-4.15,-1.21,1.21,-0.92,-2.89,-2.94,-2.94
765,-4.10,-1.18,-4.03,-1.11,1.11,-1.00,-2.99,-2.92,-2.92
773,-3.87,-0.97,-3.91,-1.00,1.00,-1.08,-2.87,-2.90,-2.90
780,-3.82,-0.94,-3.77,-0.89,0.89,-1.15,-2.93,-2.88,-2.88
788,-3.65,-0.78,-3.63,-0.77,0.77,-1.23,-2.88,-2.87,-2.87
796,-3.51,-0.66,-3.48,-0.63,0.63,-1.31,-2.88,-2.85,-2.85
804,-3.42,-0.59,-3.32,-0.49,0.49,-1.39,-2.93,-2.84,-2.83
812,-3.21,-0.39,-3.16,-0.33,0.33,-1.47,-2.88,-2.82,-2.82
820,-2.96,-0.15,-2.98,-0.17,0.17,-1.54,-2.79,-2.81,-2.81
828,-2.70,0.09,-2.79,0.01,-0.01,-1.62,-2.71,-2.80,-2.79
837,-2.51,0.27,-2.60,0.19,-0.19,-1.70,-2.70,-2.78,-2.78
845,-2.39,0.38,-2.39,0.38,-0.38,-1.77,-2.77,-2.77,-2.77
853,-2.28,0.48,-2.19,0.58,-0.58,-1.84,-2.86,-2.77,-2.76
862,-2.10,0.66,-1.97,0.78,-0.78,-1.91,-2.88,-2.76,-2.76
871,-1.82,0.93,-1.76,0.99,-0.99,-1.99,-2.81,-2.75,-2.75
879,-1.58,1.16,-1.55,1.19,-1.19,-2.05,-2.77,-2.74,-2.74
888,-1.31,1.43,-1.34,1.40,-1.40,-2.12,-2.71,-2.74,-2.74
897,-1.05,1.68,-1.14,1.59,-1.59,-2.18,-2.64,-2.73,-2.73
906,-0.91,1.81,-0.95,1.78,-1.78,-2.24,-2.69,-2.72,-2.72
915,-0.75,1.97,-0.77,1.95,-1.95,-2.30,-2.70,-2.72,-2.72
924,-0.68,2.03,-0.60,2.11,-2.11,-2.35,-2.79,-2.71,-2.71
933,-0.47,2.24,-0.46,2.25,-2.25,-2.40,-2.72,-2.71,-2.71
943,-0.23,2.47,-0.34,2.36,-2.36,-2.45,-2.59,-2.70,-2.70
952,-0.17,2.52,-0.23,2.46,-2.46,-2.50,-2.63,-2.69,-2.69
962,0.00,2.68,-0.15,2.53,-2.53,-2.54,-2.53,-2.68,-2.68
971,0.00,2.68,-0.09,2.58,-2.58,-2.57,-2.58,-2.67,-2.68
981,0.00,2.67,-0.05,2.61,-2.61,-2.60,-2.61,-2.66,-2.67
991,0.00,2.66,-0.03,2.63,-2.63,-2.63,-2.63,-2.65,-2.66
1001,0.00,2.64,-0.01,2.63,-2.63,-2.66,-2.63,-2.64,-2.64
1011,0.00,2.63,-0.01,2.62,-2.62,-2.67,-2.62,-2.63,-2.63
1021,0.00,2.61,0.00,2.62,-2.62,-2.69,-2.62,-2.61,-2.61
1031,0.00,2.60,0.02,2.62,-2.62,-2.70,-2.62,-2.60,-2.60
1041,0.00,2.58,0.04,2.62,-2.62,-2.70,-2.62,-2.58,-2.58
1052,0.00,2.56,0.08,2.64,-2.64,-2.71,-2.64,-2.56,-2.56
1062,0.00,2.54,0.14,2.68,-2.68,-2.71,-2.68,-2.54,-2.54
1073,0.02,2.54,0.22,2.74,-2.74,-2.70,-2.72,-2.52,-2.52
1084,0.23,2.73,0.31,2.81,-2.81,-2.69,-2.58,-2.50,-2.50
1094,0.30,2.78,0.43,2.91,-2.91,-2.68,-2.61,-2.48,-2.48
1105,0.46,2.92,0.55,3.01,-3.01,-2.67,-2.55,-2.46,-2.46
1116,0.60,3.03,0.69,3.12,-3.12,-2.65,-2.52,-2.43,-2.43
1128,0.88,3.29,0.83,3.24,-3.24,-2.64,-2.36,-2.41,-2.41
1139,1.14,3.53,0.97,3.36,-3.36,-2.62,-2.22,-2.39,-2.39
1150,1.37,3.74,1.11,3.47,-3.47,-2.60,-2.10,-2.37,-2.37
1162,1.37,3.71,1.23,3.57,-3.57,-2.57,-2.20,-2.34,-2.34
1173,1.37,3.69,1.34,3.66,-3.66,-2.55,-2.29,-2.32,-2.32
1185,1.37,3.67,1.43,3.73,-3.73,-2.53,-2.36,-2.30,-2.30
1197,1.37,3.65,1.49,3.78,-3.78,-2.51,-2.41,-2.29,-2.28
1209,1.57,3.84,1.54,3.81,-3.81,-2.48,-2.24,-2.27,-2.27
1221,1.60,3.85,1.56,3.82,-3.82,-2.46,-2.22,-2.26,-2.25
1233,1.60,3.84,1.56,3.81,-3.81,-2.44,-2.21,-2.24,-2.24
1246,1.60,3.83,1.54,3.78,-3.78,-2.42,-2.18,-2.23,-2.23
1258,1.60,3.82,1.50,3.73,-3.73,-2.40,-2.13,-2.23,-2.22
1271,1.60,3.82,1.45,3.68,-3.68,-2.38,-2.08,-2.22,-2.22
1283,1.43,3.65,1.39,3.61,-3.61,-2.36,-2.18,-2.22,-2.22
1296,1.37,3.59,1.33,3.55,-3.55,-2.34,-2.18,-2.22,-2.22
1309,1.37,3.59,1.27,3.50,-3.50,-2.33,-2.13,-2.22,-2.22
1322,1.37,3.60,1.23,3.46,-3.46,-2.31,-2.09,-2.23,-2.23
1335,1.29,3.52,1.21,3.45,-3.45,-2.30,-2.16,-2.24,-2.23
1349,1.02,3.26,1.21,3.46,-3.46,-2.29,-2.44,-2.25,-2.24
1362,0.77,3.03,1.24,3.50,-3.50,-2.28,-2.73,-2.26,-2.26
1376,0.87,3.14,1.30,3.57,-3.57,-2.28,-2.70,-2.27,-2.27
1390,1.14,3.42,1.40,3.68,-3.68,-2.27,-2.54,-2.28,-2.28
1404,1.40,3.69,1.52,3.82,-3.82,-2.27,-2.42,-2.30,-2.29
1418,1.66,3.97,1.67,3.98,-3.98,-2.27,-2.32,-2.31,-2.31
1432,1.92,4.24,1.83,4.16,-4.16,-2.27,-2.24,-2.32,-2.32
1446,2.18,4.51,2.01,4.34,-4.34,-2.27,-2.16,-2.33,-2.33
1461,2.45,4.80,2.19,4.53,-4.53,-2.28,-2.08,-2.35,-2.35
1475,2.51,4.86,2.36,4.71,-4.71,-2.28,-2.20,-2.35,-2.35
1490,2.74,5.10,2.52,4.88,-4.88,-2.29,-2.14,-2.36,-2.36
1505,2.74,5.11,2.67,5.03,-5.03,-2.30,-2.29,-2.36,-2.37
1520,2.74,5.11,2.80,5.16,-5.16,-2.32,-2.42,-2.37,-2.37
1535,2.84,5.20,2.91,5.27,-5.27,-2.33,-2.43,-2.36,-2.36
1550,2.96,5.32,3.00,5.35,-5.35,-2.34,-2.39,-2.36,-2.36
1566,2.96,5.31,3.07,5.41,-5.41,-2.36,-2.45,-2.34,-2.35
1582,3.18,5.51,3.12,5.45,-5.45,-2.38,-2.27,-2.33,-2.33
