frequency,raw,error,smoothed,error_smoothed,equalization,parametric_eq,equalized_raw,equalized_smoothed,target
20,-17.55,-18.07,-17.49,-18.01,6.00,4.97,-11.55,-11.49,0.52
21,-16.87,-17.39,-16.94,-17.46,6.00,5.19,-10.87,-10.94,0.52
22,-16.39,-16.91,-16.40,-16.92,6.00,5.39,-10.39,-10.40,0.52
23,-15.91,-16.44,-15.88,-16.40,6.00,5.57,-9.91,-9.88,0.53
24,-15.27,-15.80,-15.37,-15.90,6.00,5.74,-9.27,-9.37,0.53
25,-14.85,-15.38,-14.89,-15.42,6.00,5.89,-8.85,-8.89,0.53
26,-14.50,-15.03,-14.42,-14.95,6.00,6.03,-8.50,-8.42,0.53
27,-13.96,-14.49,-13.96,-14.49,6.00,6.15,-7.96,-7.96,0.53
28,-13.46,-13.99,-13.52,-14.05,6.00,6.25,-7.46,-7.52,0.53
29,-13.22,-13.75,-13.09,-13.62,6.00,6.34,-7.22,-7.09,0.53
30,-12.56,-13.09,-12.67,-13.20,6.00,6.41,-6.56,-6.67,0.53
31,-12.31,-12.84,-12.26,-12.80,6.00,6.47,-6.31,-6.26,0.53
32,-11.85,-12.38,-11.86,-12.39,6.00,6.51,-5.85,-5.86,0.53
33,-11.42,-11.95,-11.47,-12.00,6.00,6.53,-5.42,-5.47,0.53
34,-11.17,-11.70,-11.09,-11.62,6.00,6.55,-5.17,-5.09,0.53
35,-10.78,-11.30,-10.72,-11.24,6.00,6.54,-4.78,-4.72,0.52
36,-10.26,-10.78,-10.35,-10.87,6.00,6.53,-4.26,-4.35,0.52
37,-10.00,-10.51,-9.99,-10.51,6.00,6.50,-4.00,-3.99,0.51
38,-9.57,-10.08,-9.65,-10.16,6.00,6.46,-3.57,-3.65,0.51
39,-9.34,-9.84,-9.31,-9.81,6.00,6.40,-3.34,-3.31,0.50
40,-9.09,-9.58,-8.98,-9.47,6.00,6.34,-3.09,-2.98,0.49
41,-8.66,-9.14,-8.66,-9.14,6.00,6.26,-2.66,-2.66,0.48
42,-8.26,-8.73,-8.35,-8.82,6.00,6.18,-2.26,-2.35,0.47
43,-7.98,-8.44,-8.04,-8.50,6.00,6.08,-1.98,-2.04,0.46
44,-7.75,-8.20,-7.74,-8.19,6.00,5.98,-1.75,-1.74,0.45
45,-7.52,-7.96,-7.44,-7.88,6.00,5.87,-1.52,-1.44,0.44
46,-7.23,-7.65,-7.15,-7.57,6.00,5.75,-1.23,-1.15,0.42
47,-6.84,-7.24,-6.86,-7.27,6.00,5.63,-0.84,-0.86,0.40
48,-6.57,-6.96,-6.58,-6.97,6.00,5.50,-0.57,-0.58,0.39
49,-6.25,-6.62,-6.31,-6.68,6.00,5.36,-0.25,-0.31,0.37
50,-5.93,-6.28,-6.04,-6.39,5.95,5.22,0.02,-0.09,0.35
51,-5.88,-6.21,-5.78,-6.11,5.84,5.07,-0.04,0.06,0.33
52,-5.60,-5.90,-5.53,-5.83,5.68,4.92,0.08,0.16,0.30
53,-5.24,-5.52,-5.28,-5.56,5.49,4.77,0.25,0.21,0.28
54,-5.01,-5.27,-5.03,-5.29,5.26,4.61,0.25,0.23,0.26
55,-4.79,-5.02,-4.79,-5.02,5.02,4.45,0.23,0.23,0.23
56,-4.56,-4.77,-4.55,-4.76,4.76,4.29,0.20,0.21,0.21
57,-4.33,-4.51,-4.32,-4.50,4.50,4.12,0.17,0.18,0.18
58,-4.10,-4.25,-4.09,-4.24,4.24,3.96,0.14,0.15,0.15
59,-3.87,-3.99,-3.87,-3.99,3.99,3.79,0.12,0.12,0.12
60,-3.65,-3.75,-3.66,-3.75,3.75,3.62,0.10,0.10,0.10
61,-3.42,-3.49,-3.45,-3.52,3.52,3.45,0.10,0.07,0.07
62,-3.19,-3.23,-3.26,-3.30,3.30,3.28,0.11,0.04,0.04
63,-3.19,-3.20,-3.07,-3.08,3.08,3.11,-0.11,0.01,0.01
64,-2.87,-2.85,-2.90,-2.88,2.88,2.95,0.01,-0.02,-0.02
65,-2.69,-2.64,-2.73,-2.68,2.68,2.78,-0.01,-0.05,-0.05
66,-2.51,-2.43,-2.56,-2.48,2.48,2.61,-0.03,-0.08,-0.08
67,-2.51,-2.40,-2.40,-2.29,2.29,2.44,-0.22,-0.11,-0.11
68,-2.18,-2.04,-2.24,-2.11,2.11,2.28,-0.07,-0.14,-0.14
69,-2.05,-1.88,-2.09,-1.92,1.92,2.11,-0.13,-0.17,-0.17
70,-2.05,-1.85,-1.93,-1.74,1.74,1.95,-0.31,-0.20,-0.20
71,-1.82,-1.59,-1.78,-1.55,1.55,1.79,-0.27,-0.23,-0.23
72,-1.59,-1.33,-1.62,-1.37,1.37,1.62,-0.22,-0.26,-0.26
73,-1.37,-1.08,-1.47,-1.19,1.19,1.47,-0.18,-0.28,-0.29
74,-1.37,-1.06,-1.33,-1.02,1.02,1.31,-0.35,-0.31,-0.31
75,-1.20,-0.86,-1.19,-0.85,0.85,1.16,-0.35,-0.34,-0.34
76,-1.08,-0.71,-1.07,-0.69,0.69,1.01,-0.39,-0.37,-0.37
77,-0.91,-0.51,-0.95,-0.54,0.54,0.86,-0.37,-0.40,-0.40
78,-0.85,-0.42,-0.84,-0.40,0.40,0.71,-0.45,-0.43,-0.43
79,-0.68,-0.22,-0.73,-0.27,0.27,0.57,-0.41,-0.46,-0.46
80,-0.68,-0.19,-0.63,-0.14,0.14,0.43,-0.54,-0.49,-0.49
81,-0.54,-0.02,-0.54,-0.02,0.02,0.29,-0.52,-0.52,-0.52
82,-0.46,0.09,-0.45,0.10,-0.10,0.15,-0.56,-0.55,-0.55
83,-0.35,0.23,-0.36,0.22,-0.22,0.02,-0.57,-0.58,-0.58
84,-0.23,0.37,-0.27,0.34,-0.34,-0.11,-0.57,-0.60,-0.60
85,-0.23,0.40,-0.18,0.45,-0.45,-0.23,-0.68,-0.63,-0.63
86,-0.10,0.56,-0.09,0.57,-0.57,-0.36,-0.67,-0.66,-0.66
87,0.00,0.69,-0.00,0.68,-0.68,-0.47,-0.68,-0.69,-0.69
88,0.05,0.76,0.08,0.79,-0.79,-0.59,-0.74,-0.71,-0.71
89,0.23,0.97,0.16,0.90,-0.90,-0.70,-0.67,-0.74,-0.74
90,0.23,1.00,0.24,1.01,-1.01,-0.81,-0.78,-0.77,-0.77
91,0.25,1.04,0.31,1.11,-1.11,-0.91,-0.86,-0.79,-0.79
92,0.46,1.28,0.38,1.20,-1.20,-1.02,-0.74,-0.82,-0.82
93,0.46,1.30,0.44,1.28,-1.28,-1.11,-0.82,-0.84,-0.84
94,0.46,1.32,0.50,1.36,-1.36,-1.21,-0.90,-0.86,-0.86
95,0.47,1.36,0.55,1.43,-1.43,-1.30,-0.96,-0.88,-0.89
96,0.68,1.59,0.59,1.50,-1.50,-1.38,-0.82,-0.91,-0.91
97,0.68,1.61,0.63,1.56,-1.56,-1.47,-0.88,-0.93,-0.93
98,0.68,1.63,0.68,1.62,-1.62,-1.55,-0.94,-0.95,-0.95
99,0.68,1.65,0.72,1.68,-1.68,-1.62,-1.00,-0.97,-0.97
100,0.68,1.67,0.75,1.75,-1.75,-1.70,-1.07,-0.99,-0.99
101,0.71,1.71,0.79,1.81,-1.81,-1.77,-1.10,-1.01,-1.00
102,0.91,1.93,0.83,1.86,-1.86,-1.83,-0.95,-1.04,-1.02
104,0.91,1.98,0.86,1.92,-1.92,-1.95,-1.01,-1.06,-1.07
105,0.91,2.00,0.88,1.97,-1.97,-2.01,-1.06,-1.08,-1.09
106,0.91,2.02,0.90,2.00,-2.00,-2.06,-1.09,-1.10,-1.11
107,0.91,2.03,0.91,2.03,-2.03,-2.11,-1.12,-1.12,-1.12
108,0.91,2.05,0.92,2.06,-2.06,-2.16,-1.15,-1.14,-1.14
109,0.91,2.06,0.92,2.07,-2.07,-2.20,-1.16,-1.15,-1.15
110,0.91,2.08,0.92,2.09,-2.09,-2.24,-1.18,-1.17,-1.17
111,0.91,2.10,0.92,2.10,-2.10,-2.28,-1.19,-1.19,-1.19
112,0.91,2.11,0.91,2.12,-2.12,-2.32,-1.21,-1.21,-1.20
113,0.91,2.13,0.91,2.13,-2.13,-2.35,-1.22,-1.22,-1.22
114,0.91,2.15,0.91,2.15,-2.15,-2.38,-1.24,-1.24,-1.24
115,0.91,2.17,0.91,2.18,-2.18,-2.41,-1.27,-1.27,-1.26
117,0.91,2.21,0.91,2.20,-2.20,-2.46,-1.29,-1.29,-1.30
118,0.91,2.23,0.91,2.22,-2.22,-2.48,-1.31,-1.31,-1.32
119,0.91,2.25,0.91,2.25,-2.25,-2.50,-1.34,-1.34,-1.34
120,0.91,2.27,0.91,2.28,-2.28,-2.51,-1.37,-1.37,-1.36
121,0.91,2.29,0.91,2.30,-2.30,-2.53,-1.39,-1.39,-1.38
123,0.91,2.34,0.91,2.33,-2.33,-2.55,-1.42,-1.42,-1.43
124,0.91,2.36,0.91,2.35,-2.35,-2.56,-1.44,-1.44,-1.45
125,0.91,2.38,0.91,2.38,-2.38,-2.57,-1.47,-1.47,-1.47
126,0.91,2.39,0.91,2.40,-2.40,-2.57,-1.49,-1.49,-1.48
128,0.91,2.44,0.91,2.43,-2.43,-2.58,-1.52,-1.52,-1.53
129,0.91,2.46,0.91,2.45,-2.45,-2.58,-1.54,-1.54,-1.55
130,0.91,2.48,0.91,2.48,-2.48,-2.58,-1.57,-1.57,-1.57
131,0.91,2.49,0.92,2.51,-2.51,-2.58,-1.60,-1.59,-1.58
133,0.91,2.53,0.92,2.54,-2.54,-2.57,-1.63,-1.62,-1.62
134,0.91,2.55,0.92,2.56,-2.56,-2.57,-1.65,-1.64,-1.64
135,0.91,2.57,0.92,2.58,-2.58,-2.56,-1.67,-1.66,-1.66
137,0.91,2.60,0.91,2.59,-2.59,-2.55,-1.68,-1.69,-1.69
138,0.91,2.62,0.89,2.60,-2.60,-2.54,-1.69,-1.71,-1.71
140,0.91,2.65,0.87,2.60,-2.60,-2.52,-1.69,-1.73,-1.74
141,0.91,2.66,0.84,2.59,-2.59,-2.51,-1.68,-1.75,-1.75
142,0.80,2.57,0.80,2.58,-2.58,-2.50,-1.78,-1.77,-1.77
144,0.68,2.48,0.77,2.56,-2.56,-2.48,-1.88,-1.79,-1.80
145,0.68,2.49,0.74,2.55,-2.55,-2.46,-1.87,-1.81,-1.81
147,0.68,2.52,0.70,2.54,-2.54,-2.43,-1.86,-1.83,-1.84
148,0.68,2.53,0.67,2.52,-2.52,-2.42,-1.84,-1.85,-1.85
150,0.68,2.55,0.64,2.51,-2.51,-2.39,-1.83,-1.87,-1.87
151,0.68,2.56,0.61,2.50,-2.50,-2.37,-1.82,-1.88,-1.88
153,0.66,2.56,0.58,2.48,-2.48,-2.34,-1.82,-1.90,-1.90
154,0.49,2.40,0.56,2.47,-2.47,-2.32,-1.98,-1.91,-1.91
156,0.46,2.39,0.53,2.46,-2.46,-2.29,-2.00,-1.93,-1.93
157,0.46,2.40,0.50,2.45,-2.45,-2.27,-1.99,-1.94,-1.94
159,0.46,2.42,0.48,2.44,-2.44,-2.23,-1.98,-1.96,-1.96
160,0.46,2.43,0.46,2.43,-2.43,-2.22,-1.97,-1.97,-1.97
162,0.46,2.44,0.43,2.41,-2.41,-2.18,-1.95,-1.98,-1.98
164,0.46,2.46,0.40,2.40,-2.40,-2.14,-1.94,-2.00,-2.00
165,0.46,2.46,0.36,2.37,-2.37,-2.12,-1.91,-2.01,-2.00
167,0.23,2.25,0.32,2.34,-2.34,-2.08,-2.11,-2.02,-2.02
169,0.23,2.26,0.27,2.30,-2.30,-2.04,-2.07,-2.03,-2.03
170,0.23,2.27,0.21,2.25,-2.25,-2.02,-2.02,-2.04,-2.04
172,0.23,2.28,0.15,2.20,-2.20,-1.98,-1.97,-2.05,-2.05
174,0.01,2.07,0.09,2.15,-2.15,-1.95,-2.14,-2.06,-2.06
175,0.00,2.06,0.04,2.10,-2.10,-1.93,-2.10,-2.07,-2.06
177,0.00,2.07,-0.02,2.06,-2.06,-1.89,-2.06,-2.07,-2.07
179,0.00,2.08,-0.07,2.01,-2.01,-1.85,-2.01,-2.08,-2.08
181,-0.12,1.97,-0.11,1.97,-1.97,-1.81,-2.09,-2.09,-2.09
183,-0.23,1.87,-0.16,1.94,-1.94,-1.77,-2.17,-2.09,-2.10
184,-0.23,1.87,-0.19,1.91,-1.91,-1.75,-2.14,-2.10,-2.10
186,-0.23,1.87,-0.23,1.87,-1.87,-1.71,-2.10,-2.10,-2.10
188,-0.23,1.88,-0.27,1.84,-1.84,-1.67,-2.07,-2.11,-2.11
190,-0.23,1.88,-0.30,1.81,-1.81,-1.63,-2.04,-2.11,-2.11
192,-0.30,1.82,-0.34,1.78,-1.78,-1.59,-2.08,-2.12,-2.12
194,-0.46,1.66,-0.38,1.74,-1.74,-1.55,-2.20,-2.12,-2.12
196,-0.46,1.66,-0.41,1.71,-1.71,-1.52,-2.17,-2.12,-2.12
198,-0.46,1.66,-0.45,1.67,-1.67,-1.48,-2.13,-2.12,-2.12
200,-0.46,1.67,-0.49,1.64,-1.64,-1.44,-2.10,-2.13,-2.13
202,-0.46,1.67,-0.53,1.60,-1.60,-1.40,-2.06,-2.13,-2.13
204,-0.53,1.60,-0.56,1.57,-1.57,-1.36,-2.10,-2.13,-2.13
206,-0.68,1.45,-0.60,1.53,-1.53,-1.33,-2.21,-2.13,-2.13
208,-0.68,1.45,-0.63,1.50,-1.50,-1.29,-2.18,-2.13,-2.13
210,-0.68,1.45,-0.67,1.46,-1.46,-1.25,-2.14,-2.13,-2.13
212,-0.68,1.45,-0.70,1.43,-1.43,-1.22,-2.11,-2.13,-2.13
214,-0.68,1.45,-0.74,1.39,-1.39,-1.18,-2.07,-2.13,-2.13
216,-0.68,1.44,-0.78,1.35,-1.35,-1.15,-2.03,-2.13,-2.12
218,-0.91,1.21,-0.82,1.31,-1.31,-1.11,-2.22,-2.12,-2.12
221,-0.91,1.21,-0.86,1.26,-1.26,-1.06,-2.17,-2.12,-2.12
223,-0.91,1.21,-0.90,1.22,-1.22,-1.02,-2.13,-2.12,-2.12
225,-0.91,1.21,-0.95,1.17,-1.17,-0.99,-2.08,-2.12,-2.12
227,-0.91,1.21,-0.99,1.13,-1.13,-0.95,-2.04,-2.12,-2.12
229,-1.07,1.05,-1.03,1.08,-1.08,-0.92,-2.15,-2.12,-2.12
232,-1.14,0.98,-1.07,1.04,-1.04,-0.87,-2.18,-2.12,-2.12
234,-1.14,0.97,-1.12,1.00,-1.00,-0.83,-2.14,-2.11,-2.11
236,-1.14,0.97,-1.16,0.96,-0.96,-0.80,-2.10,-2.11,-2.11
239,-1.14,0.97,-1.20,0.91,-0.91,-0.75,-2.05,-2.11,-2.11
241,-1.14,0.97,-1.23,0.87,-0.87,-0.71,-2.01,-2.11,-2.11
244,-1.37,0.73,-1.27,0.83,-0.83,-0.66,-2.20,-2.10,-2.10
246,-1.37,0.73,-1.31,0.79,-0.79,-0.63,-2.16,-2.10,-2.10
248,-1.37,0.73,-1.35,0.75,-0.75,-0.60,-2.12,-2.10,-2.10
251,-1.37,0.72,-1.39,0.70,-0.70,-0.55,-2.07,-2.09,-2.09
253,-1.37,0.72,-1.43,0.66,-0.66,-0.52,-2.03,-2.09,-2.09
256,-1.37,0.72,-1.46,0.62,-0.62,-0.47,-1.99,-2.09,-2.09
259,-1.57,0.51,-1.50,0.58,-0.58,-0.42,-2.15,-2.08,-2.08
261,-1.60,0.48,-1.53,0.55,-0.55,-0.39,-2.15,-2.08,-2.08
264,-1.60,0.47,-1.56,0.51,-0.51,-0.34,-2.11,-2.07,-2.07
266,-1.60,0.47,-1.60,0.47,-0.47,-0.31,-2.07,-2.07,-2.07
269,-1.60,0.46,-1.63,0.43,-0.43,-0.26,-2.03,-2.06,-2.06
272,-1.60,0.45,-1.67,0.39,-0.39,-0.21,-1.99,-2.05,-2.05
274,-1.69,0.35,-1.71,0.34,-0.34,-0.18,-2.03,-2.05,-2.04
277,-1.82,0.22,-1.76,0.28,-0.28,-0.13,-2.10,-2.04,-2.04
280,-1.82,0.21,-1.81,0.22,-0.22,-0.09,-2.04,-2.03,-2.03
283,-1.82,0.20,-1.87,0.15,-0.15,-0.04,-1.97,-2.02,-2.02
286,-1.91,0.10,-1.94,0.07,-0.07,0.01,-1.98,-2.01,-2.01
288,-2.05,-0.06,-2.01,-0.01,0.01,0.04,-2.04,-1.99,-1.99
291,-2.05,-0.07,-2.08,-0.10,0.10,0.08,-1.95,-1.98,-1.98
294,-2.18,-0.21,-2.15,-0.19,0.19,0.13,-1.99,-1.97,-1.97
297,-2.28,-0.33,-2.23,-0.28,0.28,0.18,-2.00,-1.95,-1.95
300,-2.28,-0.34,-2.30,-0.37,0.37,0.23,-1.91,-1.94,-1.94
303,-2.29,-0.37,-2.38,-0.46,0.46,0.27,-1.83,-1.92,-1.92
306,-2.51,-0.60,-2.45,-0.55,0.55,0.32,-1.96,-1.91,-1.91
309,-2.51,-0.62,-2.52,-0.63,0.63,0.37,-1.88,-1.89,-1.89
312,-2.51,-0.64,-2.58,-0.71,0.71,0.41,-1.80,-1.87,-1.87
316,-2.71,-0.86,-2.63,-0.78,0.78,0.48,-1.93,-1.85,-1.85
319,-2.74,-0.91,-2.67,-0.84,0.84,0.52,-1.90,-1.83,-1.83
322,-2.74,-0.93,-2.71,-0.90,0.90,0.57,-1.84,-1.81,-1.81
325,-2.74,-0.95,-2.74,-0.95,0.95,0.62,-1.79,-1.79,-1.79
328,-2.74,-0.97,-2.77,-1.00,1.00,0.67,-1.74,-1.77,-1.77
332,-2.74,-0.99,-2.80,-1.05,1.05,0.73,-1.69,-1.75,-1.75
335,-2.74,-1.01,-2.82,-1.09,1.09,0.78,-1.65,-1.73,-1.73
338,-2.88,-1.17,-2.85,-1.14,1.14,0.83,-1.74,-1.71,-1.71
342,-2.96,-1.27,-2.88,-1.19,1.19,0.89,-1.77,-1.69,-1.69
345,-2.96,-1.29,-2.92,-1.25,1.25,0.94,-1.71,-1.67,-1.67
349,-2.96,-1.31,-2.95,-1.30,1.30,1.01,-1.66,-1.65,-1.65
352,-2.96,-1.33,-2.99,-1.36,1.36,1.06,-1.60,-1.63,-1.63
356,-2.96,-1.35,-3.04,-1.42,1.42,1.12,-1.54,-1.61,-1.61
359,-3.10,-1.51,-3.09,-1.49,1.49,1.17,-1.61,-1.59,-1.59
363,-3.19,-1.61,-3.15,-1.57,1.57,1.24,-1.62,-1.58,-1.58
366,-3.19,-1.63,-3.21,-1.65,1.65,1.29,-1.54,-1.56,-1.56
370,-3.22,-1.68,-3.29,-1.74,1.74,1.36,-1.48,-1.54,-1.54
374,-3.42,-1.89,-3.36,-1.84,1.84,1.43,-1.58,-1.53,-1.53
377,-3.42,-1.91,-3.45,-1.93,1.93,1.48,-1.49,-1.51,-1.51
381,-3.53,-2.03,-3.53,-2.02,2.02,1.55,-1.51,-1.50,-1.50
385,-3.65,-2.16,-3.60,-2.12,2.12,1.62,-1.53,-1.49,-1.49
389,-3.65,-2.17,-3.67,-2.20,2.20,1.69,-1.45,-1.48,-1.48
393,-3.66,-2.20,-3.74,-2.27,2.27,1.76,-1.39,-1.46,-1.46
397,-3.87,-2.42,-3.79,-2.34,2.34,1.83,-1.53,-1.45,-1.45
401,-3.87,-2.43,-3.83,-2.39,2.39,1.90,-1.48,-1.44,-1.44
405,-3.87,-2.44,-3.86,-2.42,2.42,1.97,-1.45,-1.43,-1.43
409,-3.87,-2.45,-3.87,-2.45,2.45,2.04,-1.42,-1.42,-1.42
413,-3.87,-2.46,-3.88,-2.47,2.47,2.11,-1.40,-1.41,-1.41
417,-3.87,-2.47,-3.88,-2.47,2.47,2.18,-1.40,-1.40,-1.40
421,-3.87,-2.47,-3.87,-2.48,2.48,2.25,-1.39,-1.40,-1.40
425,-3.87,-2.48,-3.87,-2.48,2.48,2.32,-1.39,-1.39,-1.39
430,-3.87,-2.49,-3.86,-2.48,2.48,2.41,-1.39,-1.38,-1.38
434,-3.87,-2.50,-3.86,-2.49,2.49,2.49,-1.38,-1.37,-1.37
438,-3.87,-2.51,-3.87,-2.51,2.51,2.56,-1.36,-1.36,-1.36
443,-3.87,-2.52,-3.89,-2.54,2.54,2.65,-1.33,-1.35,-1.35
447,-3.87,-2.53,-3.92,-2.58,2.58,2.72,-1.29,-1.34,-1.34
451,-3.87,-2.54,-3.96,-2.63,2.63,2.79,-1.24,-1.33,-1.33
456,-4.10,-2.78,-4.01,-2.69,2.69,2.87,-1.41,-1.32,-1.32
460,-4.10,-2.79,-4.06,-2.75,2.75,2.94,-1.35,-1.31,-1.31
465,-4.10,-2.80,-4.12,-2.82,2.82,3.03,-1.28,-1.30,-1.30
470,-4.10,-2.81,-4.17,-2.88,2.88,3.11,-1.22,-1.29,-1.29
474,-4.27,-2.99,-4.22,-2.94,2.94,3.18,-1.33,-1.28,-1.28
479,-4.33,-3.06,-4.26,-2.99,2.99,3.26,-1.34,-1.27,-1.27
484,-4.33,-3.08,-4.29,-3.04,3.04,3.34,-1.29,-1.25,-1.25
489,-4.33,-3.09,-4.32,-3.08,3.08,3.42,-1.25,-1.24,-1.24
494,-4.33,-3.11,-4.34,-3.12,3.12,3.50,-1.21,-1.22,-1.22
499,-4.33,-3.12,-4.37,-3.16,3.16,3.57,-1.17,-1.21,-1.21
504,-4.33,-3.14,-4.40,-3.21,3.21,3.65,-1.12,-1.19,-1.19
509,-4.33,-3.16,-4.43,-3.25,3.25,3.72,-1.08,-1.17,-1.17
514,-4.56,-3.41,-4.46,-3.31,3.31,3.78,-1.25,-1.15,-1.15
519,-4.56,-3.43,-4.50,-3.36,3.36,3.85,-1.20,-1.13,-1.13
524,-4.56,-3.45,-4.53,-3.42,3.42,3.91,-1.14,-1.11,-1.11
529,-4.56,-3.47,-4.57,-3.48,3.48,3.96,-1.08,-1.09,-1.09
535,-4.56,-3.49,-4.61,-3.54,3.54,4.03,-1.02,-1.07,-1.07
540,-4.56,-3.51,-4.65,-3.60,3.60,4.08,-0.96,-1.05,-1.05
545,-4.75,-3.73,-4.69,-3.66,3.66,4.12,-1.09,-1.02,-1.02
551,-4.79,-3.79,-4.73,-3.73,3.73,4.17,-1.06,-1.00,-1.00
556,-4.79,-3.81,-4.77,-3.79,3.79,4.21,-1.00,-0.98,-0.98
562,-4.79,-3.84,-4.81,-3.85,3.85,4.25,-0.94,-0.95,-0.95
568,-4.79,-3.86,-4.85,-3.92,3.92,4.28,-0.87,-0.93,-0.93
573,-4.79,-3.89,-4.89,-3.98,3.98,4.30,-0.81,-0.90,-0.90
579,-4.98,-4.10,-4.92,-4.05,4.05,4.32,-0.93,-0.88,-0.88
585,-5.01,-4.16,-4.95,-4.10,4.10,4.34,-0.91,-0.85,-0.85
591,-5.01,-4.18,-4.98,-4.15,4.15,4.35,-0.86,-0.83,-0.83
596,-5.01,-4.21,-5.00,-4.19,4.19,4.35,-0.82,-0.80,-0.80
602,-5.01,-4.23,-5.01,-4.23,4.23,4.35,-0.78,-0.78,-0.78
608,-5.01,-4.25,-5.02,-4.26,4.26,4.34,-0.75,-0.76,-0.76
615,-5.01,-4.27,-5.02,-4.28,4.28,4.33,-0.73,-0.74,-0.74
621,-5.01,-4.30,-5.02,-4.30,4.30,4.31,-0.71,-0.71,-0.71
627,-5.01,-4.32,-5.02,-4.32,4.32,4.29,-0.69,-0.69,-0.69
633,-5.01,-4.34,-5.02,-4.35,4.35,4.26,-0.66,-0.67,-0.67
639,-5.01,-4.36,-5.02,-4.37,4.37,4.23,-0.64,-0.65,-0.65
646,-5.01,-4.38,-5.02,-4.39,4.39,4.19,-0.62,-0.63,-0.63
652,-5.01,-4.40,-5.02,-4.41,4.41,4.15,-0.60,-0.61,-0.61
659,-5.01,-4.42,-5.02,-4.43,4.43,4.10,-0.58,-0.59,-0.59
665,-5.01,-4.44,-5.02,-4.45,4.45,4.05,-0.56,-0.57,-0.57
672,-5.01,-4.46,-5.01,-4.45,4.45,3.99,-0.56,-0.55,-0.55
679,-5.01,-4.48,-4.99,-4.45,4.45,3.93,-0.56,-0.53,-0.53
686,-5.01,-4.50,-4.95,-4.44,4.44,3.87,-0.57,-0.51,-0.51
692,-4.92,-4.43,-4.91,-4.42,4.42,3.81,-0.50,-0.49,-0.49
699,-4.79,-4.32,-4.86,-4.38,4.38,3.74,-0.41,-0.47,-0.47
706,-4.79,-4.34,-4.79,-4.34,4.34,3.67,-0.45,-0.45,-0.45
713,-4.79,-4.36,-4.71,-4.28,4.28,3.59,-0.51,-0.43,-0.43
721,-4.56,-4.15,-4.63,-4.21,4.21,3.51,-0.35,-0.41,-0.41
728,-4.56,-4.17,-4.54,-4.14,4.14,3.43,-0.42,-0.39,-0.39
735,-4.47,-4.10,-4.44,-4.07,4.07,3.35,-0.40,-0.37,-0.37
742,-4.33,-3.98,-4.34,-3.99,3.99,3.27,-0.34,-0.35,-0.35
750,-4.17,-3.84,-4.24,-3.91,3.91,3.18,-0.26,-0.33,-0.33
757,-4.10,-3.79,-4.14,-3.83,3.83,3.10,-0.27,-0.31,-0.31
765,-4.10,-3.81,-4.03,-3.74,3.74,3.01,-0.36,-0.29,-0.29
773,-3.87,-3.60,-3.91,-3.64,3.64,2.92,-0.23,-0.27,-0.27
780,-3.82,-3.56,-3.79,-3.53,3.53,2.84,-0.29,-0.26,-0.26
788,-3.65,-3.41,-3.65,-3.41,3.41,2.75,-0.24,-0.24,-0.24
796,-3.51,-3.29,-3.50,-3.28,3.28,2.65,-0.23,-0.22,-0.22
804,-3.42,-3.21,-3.34,-3.13,3.13,2.56,-0.29,-0.21,-0.21
812,-3.21,-3.02,-3.17,-2.97,2.97,2.47,-0.24,-0.19,-0.19
820,-2.96,-2.78,-2.98,-2.80,2.80,2.37,-0.16,-0.18,-0.18
828,-2.70,-2.53,-2.80,-2.63,2.63,2.27,-0.07,-0.17,-0.17
837,-2.51,-2.35,-2.60,-2.45,2.45,2.16,-0.06,-0.16,-0.16
845,-2.39,-2.25,-2.40,-2.26,2.26,2.07,-0.13,-0.15,-0.14
853,-2.28,-2.14,-2.20,-2.06,2.06,1.96,-0.22,-0.14,-0.14
862,-2.10,-1.97,-1.99,-1.87,1.87,1.85,-0.23,-0.13,-0.13
871,-1.82,-1.70,-1.78,-1.66,1.66,1.72,-0.16,-0.12,-0.12
879,-1.58,-1.47,-1.57,-1.45,1.45,1.61,-0.13,-0.11,-0.11
888,-1.31,-1.20,-1.35,-1.25,1.25,1.47,-0.06,-0.11,-0.11
897,-1.05,-0.95,-1.14,-1.04,1.04,1.32,-0.01,-0.10,-0.10
906,-0.91,-0.81,-0.94,-0.84,0.84,1.15,-0.07,-0.10,-0.10
915,-0.75,-0.66,-0.75,-0.66,0.66,0.97,-0.09,-0.09,-0.09
924,-0.68,-0.60,-0.58,-0.49,0.49,0.77,-0.19,-0.08,-0.08
933,-0.47,-0.39,-0.42,-0.34,0.34,0.56,-0.13,-0.08,-0.08
943,-0.23,-0.16,-0.29,-0.22,0.22,0.32,-0.01,-0.07,-0.07
952,-0.17,-0.11,-0.18,-0.12,0.12,0.13,-0.05,-0.06,-0.06
962,0.00,0.06,-0.10,-0.04,0.04,-0.04,0.04,-0.06,-0.06
971,0.00,0.05,-0.04,0.01,-0.01,-0.12,-0.01,-0.05,-0.05
981,0.00,0.04,-0.00,0.04,-0.04,-0.13,-0.04,-0.04,-0.04
991,0.00,0.03,0.02,0.04,-0.04,-0.09,-0.04,-0.03,-0.03
1001,0.00,0.01,0.02,0.03,-0.03,-0.03,-0.03,-0.01,-0.01
1011,0.00,0.00,0.01,0.01,-0.01,0.02,-0.01,-0.00,-0.00
1021,0.00,-0.01,-0.01,-0.02,0.02,0.06,0.02,0.01,0.01
1031,0.00,-0.03,-0.02,-0.05,0.05,0.07,0.05,0.03,0.03
1041,0.00,-0.05,-0.02,-0.07,0.07,0.07,0.07,0.05,0.05
1052,0.00,-0.06,0.00,-0.06,0.06,0.05,0.06,0.07,0.06
1062,0.00,-0.08,0.05,-0.04,0.04,0.02,0.04,0.08,0.08
1073,0.02,-0.08,0.12,0.01,-0.01,-0.02,0.01,0.11,0.10
1084,0.23,0.10,0.23,0.10,-0.10,-0.07,0.13,0.13,0.13
1094,0.30,0.15,0.36,0.21,-0.21,-0.12,0.09,0.15,0.15
1105,0.46,0.29,0.52,0.35,-0.35,-0.19,0.11,0.17,0.17
1116,0.60,0.41,0.69,0.50,-0.50,-0.25,0.10,0.19,0.19
1128,0.88,0.66,0.86,0.64,-0.64,-0.33,0.24,0.22,0.22
1139,1.14,0.90,1.02,0.78,-0.78,-0.41,0.36,0.24,0.24
1150,1.37,1.11,1.17,0.91,-0.91,-0.48,0.46,0.26,0.26
1162,1.37,1.08,1.29,1.00,-1.00,-0.57,0.37,0.28,0.29
1173,1.37,1.06,1.38,1.08,-1.08,-0.64,0.29,0.31,0.31
1185,1.37,1.04,1.46,1.13,-1.13,-0.73,0.24,0.33,0.33
1197,1.37,1.03,1.51,1.17,-1.17,-0.82,0.20,0.34,0.34
1209,1.57,1.21,1.55,1.19,-1.19,-0.91,0.38,0.36,0.36
1221,1.60,1.23,1.58,1.20,-1.20,-0.99,0.40,0.37,0.37
1233,1.60,1.21,1.59,1.20,-1.20,-1.08,0.40,0.39,0.39
1246,1.60,1.20,1.59,1.19,-1.19,-1.18,0.41,0.40,0.40
1258,1.60,1.20,1.57,1.17,-1.17,-1.27,0.43,0.40,0.40
1271,1.60,1.19,1.53,1.13,-1.13,-1.36,0.47,0.41,0.41
1283,1.43,1.02,1.47,1.06,-1.06,-1.45,0.37,0.41,0.41
1296,1.37,0.96,1.39,0.98,-0.98,-1.54,0.39,0.41,0.41
1309,1.37,0.96,1.30,0.89,-0.89,-1.63,0.48,0.41,0.41
1322,1.37,0.97,1.20,0.80,-0.80,-1.72,0.57,0.40,0.40
1335,1.29,0.90,1.12,0.73,-0.73,-1.81,0.56,0.39,0.39
1349,1.02,0.64,1.08,0.69,-0.69,-1.90,0.33,0.38,0.38
1362,0.77,0.40,1.08,0.70,-0.70,-1.98,0.07,0.37,0.37
1376,0.87,0.51,1.13,0.77,-0.77,-2.07,0.10,0.36,0.36
1390,1.14,0.79,1.25,0.90,-0.90,-2.15,0.24,0.35,0.35
1404,1.40,1.07,1.42,1.09,-1.09,-2.23,0.31,0.33,0.33
1418,1.66,1.34,1.63,1.31,-1.31,-2.30,0.35,0.32,0.32
1432,1.92,1.61,1.85,1.55,-1.55,-2.36,0.37,0.31,0.31
1446,2.18,1.89,2.08,1.79,-1.79,-2.42,0.39,0.29,0.29
1461,2.45,2.17,2.29,2.01,-2.01,-2.48,0.44,0.28,0.28
1475,2.51,2.24,2.47,2.20,-2.20,-2.52,0.31,0.27,0.27
1490,2.74,2.47,2.62,2.36,-2.36,-2.56,0.38,0.27,0.27
1505,2.74,2.48,2.74,2.48,-2.48,-2.60,0.26,0.26,0.26
1520,2.74,2.48,2.84,2.58,-2.58,-2.62,0.16,0.26,0.26
1535,2.84,2.58,2.92,2.65,-2.65,-2.63,0.19,0.26,0.26
1550,2.96,2.69,2.99,2.72,-2.72,-2.64,0.24,0.27,0.27
1566,2.96,2.68,3.05,2.76,-2.76,-2.63,0.20,0.28,0.28
1582,3.18,2.88,3.10,2.80,-2.80,-2.61,0.38,0.30,0.30
1597,3.19,2.87,3.14,2.83,-2.83,-2.58,0.36,0.32,0.32
1613,3.19,2.85,3.18,2.83,-2.83,-2.54,0.36,0.35,0.34
1629,3.19,2.81,3.19,2.82,-2.82,-2.49,0.37,0.38,0.38
1646,3.19,2.78,3.20,2.78,-2.78,-2.42,0.41,0.42,0.41
