frequency,raw,error,smoothed,error_smoothed,equalization,equalized_raw,equalized_smoothed,target
20,-14.3800119689786,-15.165898169824468,-14.341289136515313,-15.127159990135032,5.999999999999999,-8.3800119689786,-8.341289136515314,0.785886200845868
21,-13.70014667416408,-14.486013922772361,-13.683357443391703,-14.469227046251588,6.0,-7.700146674164079,-7.683357443391703,0.7858672486082812
22,-13.002527254374831,-13.788369711011264,-13.043682590000078,-13.829537361041364,5.999999999999999,-7.002527254374832,-7.043682590000079,0.7858424566364333
23,-12.291433960793778,-13.077244379495237,-12.422264576340435,-13.208090934504364,6.0,-6.291433960793778,-6.422264576340435,0.7858104187014585
24,-11.887105410087216,-12.672874885741349,-11.81910340241276,-12.604887766640573,5.999999999999998,-5.8871054100872175,-5.819103402412761,0.7857694756541327
25,-11.206106386112246,-11.991824070090912,-11.235334363172068,-12.021064628739715,6.000000000000001,-5.206106386112245,-5.2353343631720675,0.7857176839786661
26,-10.667100810860562,-11.45275359290967,-10.669198678987032,-11.454861286604563,5.999999999999999,-4.667100810860563,-4.669198678987033,0.7856527820491079
27,-10.130706458479926,-10.916278612517466,-10.1195219744808,-10.905101796209024,5.999999999999999,-4.130706458479927,-4.119521974480802,0.7855721540375402
28,-9.615617897634184,-10.401090689062896,-9.585337881814073,-10.370817206089646,5.999999999999999,-3.615617897634185,-3.585337881814074,0.785472791428711
29,-9.16258436250093,-9.947935614602383,-9.066405525686019,-9.851763021322634,6.0,-3.1625843625009296,-3.0664055256860188,0.7853512521014525
30,-8.50555072447494,-9.290754341419952,-8.564033666713856,-9.349243923579323,6.0,-2.50555072447494,-2.564033666713856,0.7852036169450121
31,-8.104840968796005,-8.889866412782823,-8.080506976446536,-8.865539838961329,5.999999999999998,-2.1048409687960064,-2.0805069764465376,0.785025443986819
32,-7.586803546119,-8.371615266137587,-7.61858627707932,-8.403406336051756,5.999999999999998,-1.5868035461190022,-1.6185862770793218,0.784811720018586
33,-7.159723300022322,-7.944280109742103,-7.180601561681534,-7.965167644864418,6.000000000000001,-1.1597233000223213,-1.1806015616815335,0.7845568097197813
34,-6.6933367289979575,-7.477591131289771,-6.7675068514138275,-7.551771410135201,5.999999999999997,-0.6933367289979602,-0.7675068514138301,0.7842544022918139
35,-6.313043187258177,-7.096940642891258,-6.378379043512082,-7.162287489813451,6.0,-0.31304318725817737,-0.37837904351208174,0.7838974556330802
36,-6.036701164628549,-6.820179302733182,-6.010366667927729,-6.793856608994823,6.0,-0.03670116462854889,-0.010366667927728557,0.7834781381046327
37,-5.7803216953301115,-6.563309463289175,-5.659209219552193,-6.442209607198325,5.935380611862523,0.15505891653241122,0.2761713923103297,0.7829877679590638
38,-5.314030308586068,-6.096447059117743,-5.320178169435245,-6.10260837967149,5.800644870974802,0.48661456238873413,0.48046670153955695,0.7824167505316759
39,-4.911515910965466,-5.693270424288924,-4.989160884389223,-5.770929726348257,5.601493486618973,0.6899775756535069,0.61233260222975,0.7817545133234582
40,-4.686061415321286,-5.467050854461723,-4.6636114013290975,-5.444616064181524,5.361847216557998,0.675785801236712,0.6982358152289008,0.7809894391404364
41,-4.460374125214353,-5.240482922708223,-4.3430975951795165,-5.123222530980524,5.096831448136844,0.6364573229224906,0.7537338529573274,0.7801087974938694
42,-4.050500966981814,-4.829599641493008,-4.029298188093994,-4.808413927255709,4.8084139272557085,0.7579129602738943,0.7791157391617141,0.7790986745111934
43,-3.76548225361411,-4.543426155273032,-3.7254497281433405,-4.5034116253385434,4.5034116253385434,0.7379293717244333,0.7779618971952029,0.7779439016589222
44,-3.304709470153586,-4.081337453789985,-3.435382519940064,-4.212029427625905,4.212029427625904,0.9073199574723176,0.7766469076858398,0.7766279836363985
45,-3.072496064417844,-3.8476290902816848,-3.162395636056492,-3.93754850482608,3.937548504826079,0.8650524404082351,0.7751528687695872,0.7751330258638407
46,-3.005565674792605,-3.7790053368524483,-2.908260056971864,-3.681720462906341,3.6817204629063407,0.6761547881137355,0.7734604059344767,0.7734396620598432
47,-2.6105748492524423,-3.3821018317352487,-2.6726030437439983,-3.444151643596169,3.444151643596169,0.8335767943437267,0.7715485998521707,0.7715269824828064
48,-2.3804338262933062,-3.1498062897911256,-2.452824576461091,-3.2222194922938505,3.222219492293851,0.8417856660005447,0.76939491583276,0.7693724634978194
49,-2.247150307029936,-3.0141022062554477,-2.2445564840460355,-3.0115316194891513,3.0115316194891513,0.7643813124592151,0.7669751354431158,0.7669518992255115
50,-2.149379362039182,-2.9136186981713625,-2.0425367830259296,-2.8068000740943524,2.806800074094352,0.65742071205517,0.7642632910684224,0.7642393361321806
51,-1.875919881744791,-2.637126893275699,-1.841670812552378,-2.6029024169218227,2.6029024169218222,0.7269825351770312,0.7612316043694443,0.761207011530908
52,-1.5931122926871721,-2.350937589768038,-1.6380132607568791,-2.3958636904736874,2.395863690473688,0.8027513977865157,0.7578504297168087,0.7578252970808661
53,-1.466926631911791,-2.2209892804075597,-1.4294389712858833,-2.183527175134646,2.183527175134647,0.7166005432228559,0.7540882038487637,0.7540626484957689
54,-1.2405225568441467,-1.9904081196454295,-1.215861886784444,-1.9657732898924507,1.9657732898924505,0.7252507330483038,0.7499114031080065,0.7498855628012828
55,-1.0138393679548245,-1.75909791256845,-0.9989826419784594,-1.7442671517162887,1.7442671517162889,0.7304277837614643,0.7452845097378294,0.7452585446136255
56,-0.7862989134756282,-1.5264429965209982,-0.7816639565918275,-1.5218339454433207,1.5218339454433214,0.7355350319676932,0.7401699888514939,0.74014408304537
57,-0.5588461095365322,-1.2933487505136778,-0.5671210271159353,-1.3016493049341185,1.3016493049341182,0.742803195397586,0.734528277818183,0.7345026409771456
58,-0.3309999298020357,-1.05929258836415,-0.3581484674750435,-1.0864662574160646,1.0864662574160648,0.7554663276140292,0.7283177899410214,0.7282926585621143
59,-0.10340255290986827,-0.8248731258598705,-0.15657709254731128,-0.8780720269713085,0.8780720269713084,0.7746694740614402,0.7214949344239971,0.7214705729500022
60,0.11724254006746332,-0.5967483162569018,0.03692705193542106,-0.6770871027959412,0.6770871027959413,0.7943296428634046,0.7140141547313623,0.7139908563243651
61,0.12335063088627579,-0.5824554435490781,0.22271719767752635,-0.48311078985369127,0.4831107898536913,0.6064614207399671,0.7058279875312177,0.7058060744353538
62,0.35139297725830315,-0.3454739906160477,0.40177217117396036,-0.2951149733039322,0.2951149733039322,0.6465079505622353,0.6968871444778926,0.6968669678743509
63,0.580575988449171,-0.1065465699204835,0.5752176049096732,-0.11192301420709419,0.11192301420709423,0.6924990026562653,0.6871406191167675,0.6871225583696545
64,0.810884440713443,0.13436415833717263,0.7439300547434635,0.06739423352373329,-0.0673942335237333,0.7434902071897097,0.6765358212197302,0.6765202823762704
65,0.8631494521852161,0.1981432980054081,0.9083364032709795,0.2433176626327157,-0.24331766263271565,0.6198317895525005,0.6650187406382639,0.665006154179808
66,1.0438685012304263,0.39134354060455756,1.0684301218885,0.4158959789179184,-0.4158959789179186,0.6279725223125077,0.6525341429705813,0.6525249606258687
67,1.2719950290122541,0.632974539598768,1.223937332670314,0.5849115334437289,-0.5849115334437287,0.6870834955685254,0.6390257992265853,0.6390204894134861
68,1.366801355560009,0.742365562914544,1.3745142908191934,0.7500775401878061,-0.7500775401878061,0.6167238153722028,0.6244367506313873,0.6244357926454649
69,1.5165782659004758,0.9078647788986753,1.5198631241569682,0.911153515176395,-0.911153515176395,0.6054247507240809,0.6087096089805732,0.6087134870018005
70,1.7078718508444108,1.116075759356971,1.6597096398948739,1.0679227458262794,-1.0679227458262794,0.6399491050181314,0.5917868940685944,0.5917960914874398
71,1.6943968259263045,1.1207704227294912,1.7936679200222736,1.2200565084152721,-1.2200565084152724,0.4743403175110321,0.5736114116070012,0.5736264031968132
72,1.9141667141171954,1.360018803186244,1.921081492099098,1.3669548180099422,-1.366954818009942,0.5472118961072534,0.554126674089156,0.5541479109309515
73,2.119598170948466,1.5862929251507003,2.0409499914030915,1.5076726317547793,-1.507672631754779,0.6119255391936869,0.5332773596483125,0.5333052457977656
74,2.105885169788558,1.5948405026642605,2.152015651977336,1.6410058539627217,-1.6410058539627221,0.46487931582583597,0.511009798014614,0.5110446671242976
75,2.2653756275448393,1.7780610464268563,2.253010999189658,1.7657385312378153,-1.7657385312378153,0.499637096307024,0.48727246795184254,0.4873145811179831
76,2.315922250120214,1.8538561613771765,2.342992154271726,1.880975657077209,-1.8809756570772094,0.43494659304300454,0.46201649719451643,0.46206608874303745
77,2.490849601315535,2.0555960430713327,2.4216380404433604,1.9864418502518846,-1.986441850251885,0.50440775106365,0.4351961901914754,0.4352535582442023
78,2.5361162293026087,2.1292810126278012,2.489405703387132,2.082636043703432,-2.0826360437034315,0.45348018559917724,0.4067696596837007,0.4068352166748075
79,2.531316034237635,2.1545422805408054,2.547490392771342,2.170790747705192,-2.170790747705193,0.36052528653244176,0.37669964506614884,0.3767737536968294
80,2.5227483305865723,2.177711400736581,2.5976164228316545,2.252661931834672,-2.252661931834672,0.27008639875190044,0.3449544909969826,0.3450369298499911
81,2.6541622951379313,2.3425641146650493,2.641744608054844,2.3302355795641585,-2.330235579564159,0.3239267155737724,0.31150902849068496,0.311598180472882
82,2.718314202973028,2.441876997429611,2.681795760088563,2.405450874253076,-2.4054508742530762,0.3128633287199518,0.27634488583548666,0.276437205543417
83,2.6963546087381474,2.45681407380466,2.7194528292960154,2.4800030734184455,-2.4800030734184455,0.21635153531970186,0.2394497558775699,0.23954053493348715
84,2.6737046017355497,2.4728025437462717,2.7560420187568813,2.555226403967283,-2.5552264039672843,0.1184781977682654,0.20081561478959697,0.20090205798927796
85,2.880899528353631,2.72037602235434,2.7924454612059435,2.6320085578656265,-2.6320085578656265,0.24889097048800446,0.16043690334031702,0.16052350599929088
86,2.863848471830195,2.7454335957920093,2.828996195657027,2.710685345859508,-2.710685345859507,0.15316312597068782,0.11831084979752005,0.11841487603818557
87,2.850905102152145,2.776310317240651,2.8653534724690526,2.7909109545279316,-2.7909109545279316,0.0599941476242134,0.074442517941121,0.07459478491149385
88,2.841292648699172,2.812201906198203,2.900424809507486,2.871568997965853,-2.871568997965853,-0.030276349266681102,0.02885581154163308,0.02909074250096877
89,2.8335289222189903,2.85158958748082,2.932445016583995,2.950836784393096,-2.950836784393097,-0.1173078621741066,-0.0183917678091019,-0.01806066526182981
90,3.0099657885700575,3.076779480853207,2.9593005996013817,3.026497968127318,-3.026497968127318,-0.016532179557260385,-0.06719736852593616,-0.0668136922831497
91,3.0452945166770915,3.1624079705975006,2.979093480254007,3.0965077548964306,-3.09650775489643,-0.05121323821933865,-0.11741427464242316,-0.11711345392040906
92,3.034577954335139,3.2034740135838207,2.990808304735612,3.1596845726125293,-3.1596845726125284,-0.12510661827738945,-0.16887626787691623,-0.16889605924868167
93,3.021160261609934,3.243249118313658,2.9948482255361806,3.2162960150967326,-3.216296015096733,-0.19513575348679923,-0.22144778956055244,-0.22208885670372425
94,3.0048003084925767,3.2814111019082577,2.993195527119777,3.2682862610726877,-3.2682862610726877,-0.263485952580111,-0.2750907339529105,-0.27661079341568096
95,2.985732446313603,3.3181053323207155,2.989058037835507,3.318983591652114,-3.318983591652114,-0.3332511453385112,-0.32992555381660704,-0.33237288600711246
96,2.964740248115293,3.3540190461578945,2.9860489594786133,3.3723056684379564,-3.372305668437955,-0.40756542032266196,-0.38625670895934183,-0.38927879804260135
97,2.943041507795763,3.39026702457184,2.987140588092914,3.4316768292901143,-3.4316768292901143,-0.4886353214943515,-0.44453624119720025,-0.447225516776077
98,2.9219251309960192,3.4280292504358316,2.9937434608075706,3.4989998818753163,-3.4989998818753167,-0.5770747508792975,-0.5052564210677462,-0.5061041194398124
99,2.9022600846903077,3.468060701836879,3.0052372879872564,3.574026341199686,-3.5740263411996858,-0.671766256509378,-0.5687890532124293,-0.5658006171465715
100,3.10692534744995,3.7331222100665427,3.019124269080835,3.6543395899254163,-3.6543395899254167,-0.5474142424754667,-0.6352153208445817,-0.6261968626165926
101,3.094600185383583,3.781771691848184,3.031752655161943,3.7359567978588393,-3.7359567978588393,-0.6413566124752563,-0.7042041426968964,-0.6871715064646011
102,3.0765055402382124,3.825106525981955,3.0393608143464608,3.814351335559289,-3.814351335559289,-0.7378457953210766,-0.7749905212128283,-0.7486009857437428
104,3.0563445306378174,3.9286696836781068,3.0390976806070222,3.8855755316696206,-3.8855755316696197,-0.8292310010318023,-0.8464778510625974,-0.8723251530402893
105,3.0332436693902154,3.9676143278190357,3.0297147712306582,3.947162762662389,-3.947162762662389,-0.9139190932721735,-0.9174479914317306,-0.9343706584288203
106,3.0072194852464693,4.003594054017086,3.011767983140105,3.9985924499575334,-3.998592449957534,-0.9913729647110645,-0.9868244668174286,-0.9963745687706158
107,2.9792081254826552,4.037425164107642,2.9873437612067972,4.041256133092158,-4.041256133092158,-1.0620480076095031,-1.0539123718853611,-1.0582170386249867
108,2.950770705931917,4.070552399623564,2.959461123091578,4.078003770015654,-4.078003770015653,-1.127233064083736,-1.118542646924075,-1.1197816936916474
109,2.9236073082603196,4.104563708467679,2.9313551740551045,4.11243269053204,-4.1124326905320405,-1.188825382271721,-1.181077516476936,-1.1809564002073594
110,2.8990894065776094,4.140723360178282,2.905821435774062,4.148099036597653,-4.148099036597653,-1.2490096300200437,-1.242277600823591,-1.2416339536006729
111,2.878006753370466,4.179719433139681,2.8847312209057945,4.187805077989459,-4.187805077989461,-1.309798324618995,-1.3030738570836666,-1.301712679769215
112,2.8606099920441377,4.2217069366143924,2.868762267444503,4.233076744660794,-4.233076744660795,-1.3724667526166572,-1.364314477216292,-1.3610969445702543
113,2.8468653085204063,4.266562877817423,2.857353014864999,4.283912593683075,-4.283912593683075,-1.4370472851626688,-1.4265595788180763,-1.419697569297016
114,2.8367218149934654,4.314153966975713,2.8488784214078784,4.3388538304159345,-4.338853830415936,-1.5021320154224709,-1.489975409008058,-1.4774321519822475
115,2.8302088954258897,4.364434191697168,2.8410349474290335,4.395378822578239,-4.395378822578241,-1.5651699271523514,-1.5543438751492076,-1.5342252962712783
117,2.827322165938418,4.472043633346152,2.831389180565915,4.450555421065102,-4.4505554210651015,-1.6232332551266837,-1.6191662404991867,-1.644721467407734
118,2.827820926605689,4.5261305004686925,2.8179867734609636,4.5018013866405795,-4.501801386640578,-1.6739804600348887,-1.6838146131796141,-1.698309573863003
119,2.8311211753446783,4.581847460695387,2.7998635865380783,4.54754218536317,-4.547542185363169,-1.716421010018491,-1.747678598825091,-1.750726285350709
120,2.8363829286311044,4.63831467367009,2.7772900330716555,4.587556880742769,-4.587556880742769,-1.7511739521116643,-1.8102668476711132,-1.8019317450389858
121,2.8427340264653025,4.694626838557837,2.751639299119489,4.622886591459878,-4.622886591459878,-1.7801525649945753,-1.8712472923403887,-1.8518928120925344
123,2.6215536782182327,4.569534864853157,2.724891771822448,4.655326598937464,-4.655326598937464,-2.033772920719231,-1.9304348271150156,-1.947981186634924
124,2.6282129361851454,4.622286201662291,2.698925846411399,4.686676945839145,-4.686676945839145,-2.0584640096539997,-1.9877510994277459,-1.9940732654771458
125,2.6344703375556104,4.673320147163707,2.674838247783659,4.718021411931911,-4.718021411931913,-2.0835510743763024,-2.0431831641482536,-2.038849809608097
126,2.640036046156158,4.722342737558037,2.6525384143479247,4.749296284626807,-4.749296284626806,-2.109260238470648,-2.096757870278881,-2.0823066914018797
128,2.6446150483051354,4.809883217707732,2.630763652300645,4.779297625111342,-4.779297625111343,-2.1346825768062074,-2.148533972810698,-2.1652681694025966
129,2.6479786855666902,4.852765250241493,2.607504839020014,4.806106775818311,-4.806106775818312,-2.1581280902516213,-2.1986019367982976,-2.204786564674803
130,2.650074842946281,4.893086972877834,2.5806830149660143,4.827760823992309,-4.8277608239923095,-2.1776859810460287,-2.2470778090262953,-2.2430121299315524
131,2.612527205503178,4.892487708242584,2.548835480949952,4.842918769496247,-4.842918769496247,-2.230391563993069,-2.2940832885462954,-2.279960502739406
133,2.4233806667327875,4.773482728228446,2.5115828898014723,4.851297815502929,-4.85129781550293,-2.4279171487701423,-2.3397149257014576,-2.3501020614956585
134,2.423157966736657,4.806497312345047,2.469741400689221,4.85375587956199,-4.853755879561991,-2.4305979128253337,-2.38401447887277,-2.38333934560839
135,2.422670160525374,4.838057156432328,2.425072811990078,4.852027401841568,-4.8520274018415686,-2.4293572413161946,-2.4269545898514906,-2.4153869959069536
137,2.4219294682987953,4.89795035695285,2.3797797708524886,4.84822784743598,-4.848227847435979,-2.4262983791371835,-2.46844807658349,-2.476020888654055
138,2.4208805147672936,4.9255443756107535,2.335915997814374,4.844294680973707,-4.844294680973708,-2.4234141662064146,-2.508378683159334,-2.5046638608434595
140,2.2271244161871095,4.785874554782446,2.2948841694950843,4.841525421773083,-4.841525421773083,-2.6144010055859734,-2.5466412522779986,-2.558750138595337
141,2.1903555796691525,4.774610033690305,2.2571489202837034,4.840323987961348,-4.840323987961348,-2.6499684082921955,-2.5831750676776446,-2.5842544540211527
142,2.1894833174795183,4.79825738805164,2.2222205334300686,4.840198245929162,-4.840198245929164,-2.650714928449646,-2.6179777124990955,-2.6087740705721214
144,2.189366036564639,4.844349301191901,2.188886786100999,4.839982924095424,-4.839982924095423,-2.6506168875307843,-2.6510961379944242,-2.6549832646272615
145,2.1899767527226723,4.866711359745109,2.15560308509873,4.838204940447639,-4.838204940447639,-2.6482281877249667,-2.682601855348909,-2.6767346070224365
147,2.1908374888515447,4.9085207096615955,2.1209104435461845,4.83347378360283,-4.8334737836028285,-2.642636294751284,-2.712563340056644,-2.7176832208100508
148,2.1311768472822332,4.868117130735532,2.083748695107332,4.824777122062793,-4.824777122062792,-2.6936002747805587,-2.74102842695546,-2.7369402834532996
150,1.9625555947323563,4.7357211321581385,2.0435720713010834,4.8115955881395,-4.8115955881395,-2.849039993407144,-2.768023516838417,-2.773165537425782
151,1.9605661711916893,4.75075635684013,2.000248523487125,4.793816299154987,-4.7938162991549875,-2.8332501279632982,-2.7935677756678627,-2.79019018564844
153,1.9576786814209761,4.779878346007168,1.9538100287783886,4.771503539550837,-4.771503539550836,-2.81382485812986,-2.8176935107724477,-2.8221996645861918
154,1.9544724746301263,4.791709292208315,1.9041843736696744,4.744646077811723,-4.744646077811723,-2.7901736031815965,-2.840461704142048,-2.837236817578189
156,1.8728080393761095,4.73830921130137,1.8510483779175049,4.713013175810769,-4.7130131758107705,-2.840205136434661,-2.8619647978932656,-2.8655011719252608
157,1.7200919122727525,4.598868089266894,1.793887818374954,4.676203072976882,-4.6762030729768815,-2.956111160704129,-2.8823152546019273,-2.878776176994142
159,1.7160421510071295,4.619767737452941,1.732252068491353,4.633876991392571,-4.6338769913925715,-2.917834840385442,-2.9016249229012185,-2.9037255864458116
160,1.7105118533713655,4.625955041114115,1.666095106308511,4.586079131844343,-4.586079131844342,-2.875567278472977,-2.9199840255358316,-2.9154431877427496
