frequency,raw,error,smoothed,error_smoothed,equalization,equalized_raw,equalized_smoothed,target
20,-8.164454868692383,-8.95034106953825,-8.141043372469385,-8.92691422608911,5.999999999999998,-2.164454868692385,-2.1410433724693867,0.785886200845868
21,-7.778661778943758,-8.56452902755204,-7.783130545545346,-8.569000148405234,5.999999999999999,-1.7786617789437589,-1.7831305455453466,0.7858672486082812
22,-7.422044655196471,-8.207887111832903,-7.447584314150388,-8.233439085191678,5.999999999999999,-1.4220446551964718,-1.4475843141503892,0.7858424566364333
23,-7.11647179332166,-7.902282212023119,-7.134404678284513,-7.920231036448445,6.000000000000001,-1.1164717933216588,-1.134404678284512,0.7858104187014585
24,-6.844175765139981,-7.629945240794113,-6.843591637947713,-7.629376002175522,5.999999999999998,-0.8441757651399824,-0.8435916379477151,0.7857694756541327
25,-6.535345193304208,-7.321062877282873,-6.577868062453659,-7.363598328021303,6.000000000000002,-0.5353451933042059,-0.577868062453657,0.7857176839786661
26,-6.266822965815266,-7.052475747864374,-6.334076209040353,-7.1197388166578826,6.0,-0.2668229658152663,-0.3340762090403526,0.7856527820491079
27,-6.182905737214985,-6.968477891252525,-6.109208468196444,-6.894788289924666,5.999999999999999,-0.18290573721498582,-0.10920846819644492,0.7855721540375402
28,-5.921197914222278,-6.706670705650989,-5.899021668268771,-6.684500992544336,6.000000000000001,0.07880208577772319,0.10097833173122961,0.785472791428711
29,-5.619993500287039,-6.405344752388492,-5.698602377898203,-6.483959873534815,6.000000000000001,0.3800064997129615,0.3013976221017982,0.7853512521014525
30,-5.569625853661632,-6.354829470606644,-5.504117797974287,-6.289328054839749,5.9655575439860264,0.3959316903243941,0.46143974601173987,0.7852036169450121
31,-5.369884085183693,-6.154909529170512,-5.312882891857127,-6.097915754371922,5.89442328575245,0.524539200568757,0.581540393895323,0.785025443986819
32,-5.149187294069229,-5.933999014087815,-5.12394774854052,-5.908767807512955,5.790241245734453,0.6410539516652243,0.6662934971939336,0.784811720018586
33,-4.946298349232903,-5.730855158952684,-4.938054863750718,-5.722620946933603,5.66411060119575,0.7178122519628474,0.7260557374450318,0.7845568097197813
34,-4.758202276160085,-5.542456678451899,-4.757100341803694,-5.541364900525068,5.522692453613461,0.7644901774533759,0.7655921118097666,0.7842544022918139
35,-4.5545470409952085,-5.338444496628289,-4.58350915907833,-5.367417605379701,5.367417605379702,0.8128705643844931,0.7839084463013712,0.7838974556330802
36,-4.338349513870663,-5.1218276519752965,-4.419471300008717,-5.202961241075813,5.202961241075813,0.8646117272051494,0.7834899410670957,0.7834781381046327
37,-4.255328712941696,-5.03831648090076,-4.266354727709137,-5.049355115355269,5.04935511535527,0.7940264024135733,0.7830003876461324,0.7829877679590638
38,-4.161276060306099,-4.943692810837774,-4.124414718607511,-4.906844928843757,4.906844928843757,0.7455688685376582,0.7824302102362459,0.7824167505316759
39,-4.0330721808897385,-4.814826694213197,-3.9928110897392095,-4.774579931698243,4.774579931698241,0.7415077508085028,0.7817688419590318,0.7817545133234582
40,-3.821139532720296,-4.602128971860733,-3.8699055111645695,-4.650910174016998,4.650910174016996,0.8297706412967001,0.7810046628524265,0.7809894391404364
41,-3.7723012245992025,-4.552410022093072,-3.7537107572080846,-4.5338356930090935,4.533835693009094,0.7615344684098919,0.7801249358010098,0.7801087974938694
42,-3.6518804370797584,-4.430979111590952,-3.6423634666290106,-4.421479205790726,4.421479205790727,0.7695987687109689,0.7791157391617167,0.7790986745111934
43,-3.5513057244344717,-4.329249626093394,-3.534513962483377,-4.31247585967858,4.31247585967858,0.7611701352441083,0.7779618971952029,0.7779439016589222
44,-3.390190954099694,-4.1668189377360925,-3.429560357413047,-4.206207265098888,4.206207265098886,0.816016310999192,0.7766469076858389,0.7766279836363985
45,-3.365377061146744,-4.140510087010584,-3.3276999037565163,-4.102852772526104,4.102852772526105,0.7374757113793606,0.7751528687695886,0.7751330258638407
46,-3.249129221234217,-4.02256888329406,-3.2298057505138917,-4.003266156448369,4.003266156448369,0.7541369352141518,0.7734604059344772,0.7734396620598432
47,-3.1554828697929054,-3.9270098522757118,-3.137171145647308,-3.9087197454994778,3.9087197454994778,0.7532368757065724,0.7715485998521698,0.7715269824828064
48,-3.0484321613212515,-3.817804624819071,-3.051197843417885,-3.820592759250644,3.820592759250644,0.7721605979293926,0.7693949158327591,0.7693724634978194
49,-2.947857448645116,-3.7148093478706277,-2.9731363481968156,-3.7401114836399305,3.740111483639929,0.7922540349948131,0.7669751354431136,0.7669518992255115
50,-2.8518401059810228,-3.6160794421132034,-2.90399847467462,-3.668261765743044,3.668261765743043,0.8164216597620202,0.7642632910684228,0.7642393361321806
51,-2.847282735206827,-3.608489746737735,-2.844735370546813,-3.6059669749162575,3.6059669749162575,0.7586842397094307,0.7612316043694447,0.761207011530908
52,-2.8472827345948954,-3.6051080316757615,-2.796693685927019,-3.5545441156438273,3.5545441156438273,0.7072613810489319,0.7578504297168083,0.7578252970808661
53,-2.8360324128612238,-3.5900950613569926,-2.7622394463700255,-3.516327650218789,3.5163276502187895,0.6802952373575657,0.754088203848764,0.7540626484957689
54,-2.746708023749989,-3.496593586551272,-2.7453093491293385,-3.495220752237346,3.495220752237346,0.748512728487357,0.7499114031080074,0.7498855628012828
55,-2.7467080282419047,-3.4919665728555302,-2.7515691587209785,-3.4968536684588076,3.4968536684588076,0.7501456402169029,0.7452845097378291,0.7452585446136255
56,-2.746708035081407,-3.486852118126777,-2.787884285405468,-3.528054274256961,3.5280542742569625,0.7813462391755555,0.7401699888514943,0.74014408304537
57,-2.8472827537603305,-3.581785394737476,-2.8609663549826916,-3.595494632800875,3.5954946328008734,0.748211879040543,0.7345282778181819,0.7345026409771456
58,-2.933984710413901,-3.6622773689760155,-2.9753284969704197,-3.7036462869114404,3.703646286911441,0.7696615764975396,0.7283177899410211,0.7282926585621143
59,-3.0484321580927745,-3.7699027310427766,-3.1309845911471825,-3.8524795255711792,3.8524795255711792,0.8040473674784048,0.7214949344239967,0.7214705729500022
60,-3.191703256569232,-3.905694112893597,-3.321552122948633,-4.035566277679995,4.035566277679994,0.8438630211107618,0.7140141547313608,0.7139908563243651
61,-3.3507542403692816,-4.056560314804635,-3.5334594383131614,-4.2392874258443785,4.23928742584438,0.8885331854750986,0.7058279875312188,0.7058060744353538
62,-3.6741932859274,-4.371060253801751,-3.746760059641592,-4.443647204119484,4.443647204119484,0.7694539181920845,0.6968871444778921,0.6968669678743509
63,-4.08853065401346,-4.775653212383114,-3.9376489571070383,-4.624789576223806,4.624789576223807,0.5362589222103473,0.6871406191167688,0.6871225583696545
64,-4.168300055272228,-4.844820337648498,-4.082274256297436,-4.7588100775171664,4.758810077517167,0.5905100222449393,0.6765358212197317,0.6765202823762704
65,-4.439125272571928,-5.104131426751737,-4.161009379329191,-4.826028119967454,4.826028119967452,0.3869028473955236,0.6650187406382608,0.665006154179808
66,-4.2961619678887955,-4.948686928514665,-4.162149895049183,-4.814684038019763,4.814684038019765,0.5185220701309694,0.6525341429705822,0.6525249606258687
67,-4.221956363658478,-4.860976853071964,-4.0841085213137625,-4.723134320540348,4.723134320540348,0.50117795688187,0.6390257992265855,0.6390204894134861
68,-3.974859648823871,-4.599295441469335,-3.9355731062319537,-4.56000985686334,4.560009856863339,0.5851502080394684,0.6244367506313857,0.6244357926454649
69,-3.7226794214990813,-4.331392908500882,-3.7336383471791836,-4.342347956159756,4.342347956159756,0.6196685346606747,0.6087096089805724,0.6087134870018005
70,-3.3986218589254062,-3.990417950412846,-3.5004413210735663,-4.0922282151421605,4.0922282151421605,0.6936063562167543,0.5917868940685942,0.5917960914874398
71,-3.1460085653355288,-3.719634968532342,-3.259163677891359,-3.83277508949836,3.8327750894983605,0.6867665241628318,0.5736114116070015,0.5736264031968132
72,-2.9611348841110114,-3.515282795041963,-3.0303270750566553,-3.5844537491458106,3.58445374914581,0.6233188650347987,0.5541266740891548,0.5541479109309515
73,-2.8095348843552213,-3.342840130152987,-2.82911878322367,-3.362396142871983,3.3623961428719835,0.5528612585167623,0.5332773596483134,0.5333052457977656
74,-2.5979738679849933,-3.109018535109291,-2.6641347716532198,-3.175144569667834,3.1751445696678346,0.5771707016828413,0.5110097980146149,0.5110446671242976
75,-2.4449476289431367,-2.9322622100611198,-2.5375439827256807,-3.0248164506775232,3.024816450677523,0.5798688217343861,0.4872724679518421,0.4873145811179831
76,-2.439809915283002,-2.9018760040260396,-2.44636765652924,-2.908384153723757,2.9083841537237576,0.4685742384407554,0.46201649719451776,0.46206608874303745
77,-2.4449488637664314,-2.8802024220106337,-2.3843904139439807,-2.819586604135457,2.819586604135457,0.37463774036902553,0.43519619019147626,0.4352535582442023
78,-2.324286979186481,-2.7311221958612886,-2.3441809500921096,-2.750950609775811,2.7509506097758116,0.42666363058933054,0.40676965968370205,0.4068352166748075
79,-2.334188416565917,-2.7109621702627464,-2.3187751707823683,-2.6954748158485184,2.6954748158485193,0.3612863992826023,0.37669964506615106,0.3767737536968294
80,-2.362578004953209,-2.7076149348032,-2.3027271770620485,-2.647681668059031,2.647681668059031,0.28510366310582214,0.3449544909969826,0.3450369298499911
81,-2.364781451129764,-2.676379631602646,-2.292425939883132,-2.6039349683738173,2.6039349683738178,0.23915351724405376,0.31150902849068585,0.311598180472882
82,-2.2442235488770885,-2.5206607544205055,-2.285769571750552,-2.5621144575860395,2.5621144575860404,0.31789090870895187,0.27634488583548844,0.276437205543417
83,-2.2443369751313034,-2.4838775100647905,-2.2814459991787004,-2.52089575505627,2.52089575505627,0.27655877992496647,0.23944975587756945,0.23954053493348715
84,-2.2443836375074757,-2.4452856954967537,-2.278150570626989,-2.478966185416587,2.4789661854165885,0.23458254790911282,0.20081561478959964,0.20090205798927796
85,-2.2443004900796217,-2.4048239960789126,-2.274051140478586,-2.434488043818903,2.4344880438189027,0.19018755373928098,0.16043690334031657,0.16052350599929088
86,-2.242534854080317,-2.3609497301185027,-2.266690349255753,-2.3850011990532716,2.3850011990532716,0.1424663449729544,0.11831084979751871,0.11841487603818557
87,-2.291083537552611,-2.3656783224641047,-2.253334051369422,-2.3277765693105437,2.3277765693105437,0.036693031757932815,0.07444251794112144,0.07459478491149385
88,-2.34318327502188,-2.372274017522849,-2.2316016072752314,-2.2604574188168645,2.2604574188168645,-0.08272585620501571,0.02885581154163308,0.02909074250096877
89,-2.261969501937568,-2.2439088366757383,-2.2001141930350396,-2.181722425225939,2.1817224252259386,-0.08024707671162945,-0.01839176780910101,-0.01806066526182981
90,-2.117633508981819,-2.0508198166986693,-2.158906955956533,-2.0917095874305964,2.091709587430597,-0.02592392155122214,-0.06719736852593616,-0.0668136922831497
91,-2.0600829919425143,-1.9429695380221053,-2.10945970207497,-1.9920454274325456,1.9920454274325454,-0.0680375645099689,-0.11741427464242449,-0.11711345392040906
92,-2.0359954990753018,-1.86709943982662,-2.054356724668027,-1.8854804567911105,1.8854804567911103,-0.15051504228419144,-0.1688762678769169,-0.16889605924868167
93,-2.0351071942946004,-1.8130183375908762,-1.9967192336817168,-1.7752714441211646,1.7752714441211646,-0.25983575017343585,-0.22144778956055222,-0.22208885670372425
94,-1.934545592529141,-1.65793479911346,-1.9396101958097023,-1.6645194618567918,1.6645194618567918,-0.27002613067234926,-0.2750907339529105,-0.27661079341568096
95,-1.835363940332124,-1.5029910543250116,-1.8855808255940745,-1.5556552717774674,1.5556552717774672,-0.2797086685546568,-0.32992555381660726,-0.33237288600711246
96,-1.8386348018922825,-1.449356003849681,-1.8364410178409867,-1.450184308881643,1.450184308881643,-0.3884504930106394,-0.3862567089593436,-0.38927879804260135
97,-1.8442531355568248,-1.3970276187807478,-1.7932422232547447,-1.3487059820575444,1.3487059820575447,-0.49554715349928014,-0.44453624119720003,-0.447225516776077
98,-1.765681578728854,-1.2595774592890416,-1.756401749280161,-1.2511453282124154,1.2511453282124154,-0.5145362505164386,-0.5052564210677455,-0.5061041194398124
99,-1.662814481867247,-1.0970138647206755,-1.7258868810812387,-1.1570978278688087,1.1570978278688084,-0.5057166539984386,-0.5687890532124302,-0.5658006171465715
100,-1.6772605870137405,-1.051063724397148,-1.7014013034417492,-1.0661859825971671,1.0661859825971673,-0.6110746044165731,-0.6352153208445819,-0.6261968626165926
101,-1.6946944682294705,-1.0075229617648693,-1.6825451900013393,-0.9783410473044419,0.9783410473044419,-0.7163534209250285,-0.7042041426968974,-0.6871715064646011
102,-1.7148080642154562,-0.9662070784717134,-1.6689314599238139,-0.8939409387109856,0.8939409387109853,-0.8208671255044708,-0.7749905212128285,-0.7486009857437428
104,-1.636524160177162,-0.7641990071368727,-1.6602346605419034,-0.8137568094793048,0.8137568094793048,-0.8227673506978572,-0.8464778510625985,-0.8723251530402893
105,-1.6603236148407172,-0.7259529564118969,-1.6561450685262527,-0.7386970770945219,0.7386970770945218,-0.9216265377461954,-0.9174479914317308,-0.9343706584288203
106,-1.6848407576926767,-0.6884661889220609,-1.6562191802650894,-0.6693947134476617,0.6693947134476617,-1.015446044245015,-0.9868244668174277,-0.9963745687706158
107,-1.6317399230405292,-0.5735228844155424,-1.6596627916170743,-0.6057504197317133,0.6057504197317132,-1.025989503308816,-1.0539123718853611,-1.0582170386249867
108,-1.6302186598378292,-0.5104369661461818,-1.6651360864563385,-0.5465934395322634,0.5465934395322632,-1.0836252203055659,-1.1185426469240753,-1.1197816936916474
109,-1.6535570338825056,-0.47260063367514626,-1.6706989676508193,-0.4896214511738851,0.4896214511738852,-1.1639355827086204,-1.181077516476934,-1.1809564002073594
110,-1.6725754468974068,-0.4309414932967339,-1.6739901203647145,-0.43171251954112366,0.4317125195411237,-1.240862927356283,-1.2422776008235907,-1.2416339536006729
111,-1.6885124848563535,-0.3867998050871386,-1.6726507656998117,-0.3695769086161478,0.3695769086161478,-1.3189355762402057,-1.303073857083664,-1.301712679769215
112,-1.7010009557004515,-0.3399040111301972,-1.6648934186350592,-0.3005789414187676,0.30057894141876773,-1.4004220142816837,-1.3643144772162916,-1.3610969445702543
113,-1.7098769628448418,-0.29017939354782585,-1.6500284309481033,-0.2234688521300257,0.22346885213002568,-1.4864081107148162,-1.4265595788180776,-1.419697569297016
114,-1.6481664113826775,-0.17073425940042997,-1.628743033809633,-0.13876762480157595,0.13876762480157598,-1.5093987865811016,-1.489975409008057,-1.4774321519822475
115,-1.6165652611701011,-0.08233996489882278,-1.6029965438781186,-0.048652668728912676,0.04865266872891269,-1.5679125924411885,-1.554343875149206,-1.5342252962712783
117,-1.5149909806920332,0.12973048671570075,-1.5755294252915195,0.0436368152076692,-0.0436368152076692,-1.5586277958997024,-1.6191662404991887,-1.644721467407734
118,-1.5115318500312984,0.18677772383170455,-1.5491292919401811,0.1346853212394345,-0.13468532123943444,-1.6462171712707327,-1.6838146131796154,-1.698309573863003
119,-1.5061761120689137,0.2445501732817954,-1.525891124052445,0.2217874747726467,-0.22178747477264668,-1.7279635868415604,-1.7476785988250918,-1.750726285350709
120,-1.499497685548817,0.3024340594901689,-1.506711067933772,0.3035557797373412,-0.3035557797373412,-1.803053465286158,-1.8102668476711132,-1.8019317450389858
121,-1.4920328015281772,0.35986001056435724,-1.4911636978703604,0.38008359447002926,-0.38008359447002926,-1.8721163959982063,-1.8712472923403896,-1.8518928120925344
123,-1.4842409043644622,0.4637402822704617,-1.4777716351324073,0.4526631919826085,-0.4526631919826085,-1.9369040963470707,-1.9304348271150158,-1.947981186634924
124,-1.4764794413853932,0.5175938240917526,-1.464543091170451,0.5232080082572957,-0.5232080082572957,-1.999687449642689,-1.9877510994277467,-1.9940732654771458
125,-1.468994818340703,0.569854991267394,-1.4495789943639932,0.5936041697842598,-0.5936041697842596,-2.0625989881249627,-2.0431831641482527,-2.038849809608097
126,-1.4664945194558334,0.6158121719460463,-1.4315593432582134,0.6651985270206692,-0.6651985270206691,-2.1316930464765025,-2.0967578702788825,-2.0823066914018797
128,-1.413578915122971,0.7516892542796256,-1.4099939512294746,0.7385400215812226,-0.7385400215812227,-2.1521189367041935,-2.1485339728106974,-2.1652681694025966
129,-1.3486564281584643,0.8561301365163385,-1.3852243497669627,0.8133775870313332,-0.8133775870313332,-2.1620340151897977,-2.198601936798296,-2.204786564674803
130,-1.3430020197090684,0.900010110222484,-1.3582454604323624,0.8888323485939317,-0.8888323485939317,-2.231834368303,-2.247077809026294,-2.2430121299315524
131,-1.3377802281352118,0.9421802746041943,-1.3304491109503518,0.9636341775959434,-0.9636341775959434,-2.301414405731155,-2.294083288546295,-2.279960502739406
133,-1.332988281507228,1.0171137799884304,-1.3033748212161336,1.0363401044853233,-1.0363401044853235,-2.3693283859925516,-2.339714925701457,-2.3501020614956585
134,-1.2986790988062045,1.0846602468021853,-1.2785074944944856,1.1055069843782837,-1.1055069843782839,-2.4041860831844883,-2.3840144788727695,-2.38333934560839
135,-1.2242429464777662,1.1911440494291874,-1.2571171888810797,1.1698374009704102,-1.1698374009704102,-2.3940803474481767,-2.4269545898514897,-2.4153869959069536
137,-1.220040150653015,1.25598073800104,-1.2401167047091934,1.2283313718742974,-1.2283313718742974,-2.4483715225273124,-2.468448076583491,-2.476020888654055
138,-1.218329444559968,1.2863344162834915,-1.2279240754352436,1.2804546077240888,-1.2804546077240888,-2.4987840522840568,-2.508378683159332,-2.5046638608434595
140,-1.2163393557662452,1.3424107828290917,-1.2203465856369626,1.326294666641036,-1.326294666641036,-2.542634022407281,-2.5466412522779986,-2.558750138595337
141,-1.2150002564069626,1.36925419761419,-1.2165292095544238,1.3666458581232201,-1.36664585812322,-2.581646114530183,-2.5831750676776437,-2.5842544540211527
142,-1.214260983177731,1.3945130873943905,-1.2150157944054465,1.4029619180936463,-1.4029619180936466,-2.6172229012713775,-2.6179777124990933,-2.6087740705721214
144,-1.2140233075409357,1.4409599570863258,-1.2139501187237927,1.4371460192706316,-1.4371460192706311,-2.6511693268115666,-2.651096137994424,-2.6549832646272615
145,-1.2141495277455558,1.4625850792768806,-1.2114034714900423,1.4711983838588656,-1.4711983838588656,-2.6853479116044214,-2.682601855348908,-2.6767346070224365
147,-1.214477009421992,1.5032062113880587,-1.2057715723051219,1.5067917677515226,-1.5067917677515226,-2.7212687771735147,-2.7125633400566445,-2.7176832208100508
148,-1.2148377229889564,1.5221025604643432,-1.1961532059204445,1.5448752210350154,-1.544875221035015,-2.7597129440239714,-2.7410284269554595,-2.7369402834532996
150,-1.2150804332402496,1.5580851041855326,-1.1826157496834202,1.5854077671549964,-1.5854077671549969,-2.8004882003952467,-2.768023516838417,-2.773165537425782
151,-1.1924341446011033,1.5977560410473368,-1.166269803549691,1.6272979721181708,-1.627297972118171,-2.8197321167192744,-2.793567775667862,-2.79019018564844
153,-1.114248049121384,1.7079516154648078,-1.1491111857414005,1.6685823250310472,-1.6685823250310474,-2.7828303741524314,-2.8176935107724477,-2.8221996645861918
154,-1.1137164037467608,1.7235204138314282,-1.1336370874072066,1.70682461673484,-1.70682461673484,-2.820541020481601,-2.8404617041420464,-2.837236817578189
156,-1.113027438093894,1.7524737338313667,-1.1222969692912348,1.7396678286020273,-1.739667828602027,-2.852695266695921,-2.861964797893262,-2.8655011719252608
