frequency,raw,error,smoothed,error_smoothed,equalization,parametric_eq,fixed_band_eq,equalized_raw,equalized_smoothed,target
20.00,0.51,-6.12,0.51,-6.12,6.03,5.49,1.91,6.54,6.54,6.62
20.20,0.54,-6.09,0.54,-6.09,6.01,5.46,1.96,6.55,6.55,6.62
20.40,0.57,-6.05,0.57,-6.05,5.99,5.44,2.02,6.56,6.56,6.62
20.61,0.61,-6.01,0.61,-6.01,5.97,5.42,2.08,6.57,6.58,6.62
20.81,0.66,-5.96,0.66,-5.97,5.94,5.39,2.14,6.59,6.59,6.62
21.02,0.71,-5.91,0.70,-5.92,5.90,5.37,2.21,6.61,6.61,6.62
21.23,0.75,-5.87,0.75,-5.87,5.86,5.34,2.27,6.61,6.62,6.62
21.44,0.80,-5.82,0.80,-5.82,5.82,5.31,2.34,6.62,6.62,6.62
21.66,0.86,-5.76,0.85,-5.76,5.77,5.29,2.41,6.63,6.62,6.62
21.87,0.91,-5.71,0.91,-5.71,5.71,5.26,2.48,6.62,6.62,6.62
22.09,0.96,-5.66,0.96,-5.65,5.66,5.24,2.55,6.62,6.62,6.62
22.31,1.02,-5.60,1.01,-5.60,5.60,5.21,2.63,6.62,6.61,6.61
22.54,1.06,-5.56,1.06,-5.55,5.55,5.18,2.70,6.61,6.61,6.61
22.76,1.12,-5.49,1.12,-5.50,5.50,5.15,2.78,6.62,6.61,6.61
22.99,1.17,-5.44,1.16,-5.45,5.45,5.13,2.87,6.61,6.61,6.61
23.22,1.22,-5.39,1.22,-5.39,5.40,5.10,2.95,6.61,6.61,6.61
23.45,1.26,-5.35,1.27,-5.34,5.34,5.07,3.03,6.60,6.61,6.61
23.69,1.32,-5.29,1.31,-5.29,5.29,5.04,3.12,6.61,6.60,6.61
23.92,1.37,-5.24,1.36,-5.24,5.24,5.01,3.21,6.61,6.60,6.61
24.16,1.41,-5.20,1.42,-5.19,5.18,4.98,3.30,6.59,6.60,6.60
24.40,1.47,-5.13,1.47,-5.13,5.13,4.95,3.39,6.60,6.60,6.60
24.65,1.53,-5.07,1.53,-5.07,5.08,4.92,3.48,6.60,6.60,6.60
24.89,1.59,-5.01,1.58,-5.01,5.02,4.89,3.57,6.61,6.61,6.60
25.14,1.64,-4.96,1.63,-4.96,4.97,4.85,3.67,6.61,6.60,6.60
25.39,1.68,-4.92,1.68,-4.91,4.91,4.82,3.76,6.59,6.60,6.60
25.65,1.73,-4.87,1.73,-4.86,4.86,4.79,3.86,6.59,6.59,6.59
25.91,1.79,-4.81,1.78,-4.81,4.80,4.76,3.95,6.59,6.59,6.59
26.16,1.84,-4.75,1.84,-4.75,4.75,4.72,4.05,6.59,6.59,6.59
26.43,1.89,-4.70,1.89,-4.70,4.70,4.69,4.14,6.58,6.59,6.59
26.69,1.95,-4.64,1.95,-4.64,4.64,4.66,4.23,6.59,6.59,6.59
26.96,2.00,-4.59,2.00,-4.58,4.59,4.62,4.32,6.59,6.59,6.58
27.23,2.06,-4.52,2.05,-4.53,4.53,4.59,4.41,6.59,6.59,6.58
27.50,2.10,-4.48,2.10,-4.48,4.48,4.55,4.50,6.58,6.58,6.58
27.77,2.15,-4.43,2.15,-4.43,4.43,4.52,4.58,6.57,6.57,6.58
28.05,2.20,-4.38,2.20,-4.38,4.37,4.48,4.66,6.57,6.57,6.57
28.33,2.25,-4.32,2.25,-4.32,4.32,4.44,4.73,6.57,6.57,6.57
28.62,2.31,-4.26,2.30,-4.27,4.27,4.41,4.80,6.57,6.57,6.57
28.90,2.36,-4.21,2.35,-4.21,4.21,4.37,4.86,6.57,6.57,6.57
29.19,2.40,-4.17,2.41,-4.16,4.16,4.33,4.92,6.56,6.57,6.56
29.48,2.46,-4.10,2.46,-4.10,4.10,4.29,4.97,6.56,6.56,6.56
29.78,2.52,-4.04,2.51,-4.05,4.05,4.26,5.01,6.57,6.56,6.56
30.08,2.55,-4.01,2.56,-4.00,4.00,4.22,5.05,6.54,6.55,6.55
30.38,2.61,-3.94,2.61,-3.94,3.94,4.18,5.08,6.55,6.55,6.55
30.68,2.66,-3.89,2.65,-3.89,3.89,4.14,5.10,6.55,6.55,6.55
30.99,2.71,-3.84,2.70,-3.84,3.84,4.10,5.11,6.55,6.54,6.54
31.30,2.75,-3.79,2.75,-3.79,3.79,4.06,5.11,6.54,6.54,6.54
31.61,2.80,-3.74,2.80,-3.74,3.74,4.02,5.10,6.53,6.54,6.54
31.93,2.86,-3.67,2.85,-3.69,3.68,3.98,5.09,6.54,6.53,6.53
32.24,2.89,-3.64,2.89,-3.63,3.63,3.94,5.07,6.52,6.53,6.53
32.57,2.94,-3.59,2.94,-3.58,3.58,3.89,5.03,6.52,6.52,6.52
32.89,3.00,-3.52,2.99,-3.53,3.53,3.85,5.00,6.52,6.52,6.52
33.22,3.05,-3.47,3.04,-3.47,3.47,3.81,4.95,6.52,6.52,6.51
33.55,3.09,-3.42,3.09,-3.42,3.42,3.77,4.90,6.51,6.51,6.51
33.89,3.14,-3.37,3.14,-3.36,3.36,3.72,4.83,6.50,6.50,6.50
34.23,3.19,-3.31,3.19,-3.31,3.31,3.68,4.77,6.49,6.50,6.50
34.57,3.25,-3.25,3.24,-3.25,3.25,3.64,4.70,6.50,6.49,6.49
34.92,3.29,-3.20,3.29,-3.19,3.19,3.59,4.62,6.48,6.49,6.49
35.27,3.35,-3.13,3.34,-3.14,3.14,3.55,4.54,6.49,6.48,6.48
35.62,3.39,-3.09,3.39,-3.09,3.08,3.50,4.46,6.47,6.48,6.48
35.97,3.44,-3.03,3.44,-3.03,3.03,3.46,4.37,6.47,6.47,6.47
36.33,3.49,-2.97,3.48,-2.98,2.98,3.41,4.28,6.47,6.46,6.46
36.70,3.53,-2.93,3.53,-2.93,2.93,3.36,4.19,6.46,6.46,6.46
37.06,3.57,-2.88,3.57,-2.88,2.88,3.32,4.09,6.45,6.45,6.45
37.43,3.61,-2.83,3.60,-2.84,2.84,3.27,4.00,6.45,6.44,6.44
37.81,3.64,-2.80,3.64,-2.80,2.79,3.22,3.90,6.43,6.43,6.43
38.19,3.67,-2.76,3.67,-2.75,2.75,3.18,3.81,6.42,6.42,6.43
38.57,3.71,-2.71,3.71,-2.71,2.71,3.13,3.71,6.42,6.42,6.42
38.95,3.75,-2.66,3.74,-2.67,2.67,3.08,3.62,6.42,6.41,6.41
39.34,3.77,-2.63,3.77,-2.63,2.63,3.03,3.52,6.40,6.40,6.40
39.74,3.80,-2.59,3.80,-2.59,2.59,2.99,3.43,6.39,6.39,6.39
40.14,3.83,-2.56,3.83,-2.56,2.56,2.94,3.34,6.38,6.38,6.38
40.54,3.85,-2.53,3.85,-2.52,2.52,2.89,3.24,6.37,6.37,6.37
40.94,3.89,-2.47,3.88,-2.48,2.48,2.84,3.15,6.37,6.36,6.36
41.35,3.90,-2.45,3.90,-2.45,2.45,2.79,3.07,6.35,6.35,6.35
41.76,3.94,-2.40,3.93,-2.41,2.41,2.74,2.98,6.35,6.34,6.34
42.18,3.94,-2.39,3.95,-2.38,2.38,2.69,2.89,6.32,6.33,6.33
42.60,3.99,-2.33,3.98,-2.34,2.34,2.64,2.81,6.33,6.32,6.32
43.03,3.99,-2.32,4.00,-2.31,2.31,2.59,2.73,6.30,6.31,6.31
43.46,4.03,-2.27,4.02,-2.28,2.28,2.54,2.65,6.30,6.30,6.29
43.90,4.03,-2.25,4.04,-2.24,2.24,2.49,2.57,6.27,6.28,6.28
44.33,4.06,-2.21,4.05,-2.21,2.21,2.44,2.50,6.27,6.27,6.27
44.78,4.08,-2.18,4.07,-2.18,2.18,2.39,2.42,6.26,6.25,6.25
45.23,4.08,-2.16,4.09,-2.15,2.15,2.34,2.35,6.23,6.24,6.24
45.68,4.12,-2.11,4.11,-2.12,2.12,2.28,2.28,6.23,6.23,6.22
46.13,4.13,-2.08,4.12,-2.09,2.09,2.23,2.21,6.22,6.21,6.21
46.60,4.13,-2.07,4.14,-2.05,2.06,2.18,2.15,6.19,6.20,6.19
47.06,4.15,-2.03,4.15,-2.03,2.03,2.13,2.08,6.18,6.18,6.18
47.53,4.17,-1.99,4.16,-2.00,2.00,2.08,2.02,6.17,6.16,6.16
48.01,4.17,-1.97,4.16,-1.98,1.97,2.03,1.96,6.14,6.14,6.14
48.49,4.17,-1.96,4.17,-1.95,1.94,1.98,1.90,6.11,6.12,6.12
48.97,4.17,-1.94,4.18,-1.92,1.91,1.92,1.85,6.08,6.10,6.11
49.46,4.22,-1.87,4.20,-1.88,1.89,1.87,1.79,6.11,6.09,6.09
49.96,4.22,-1.85,4.22,-1.85,1.86,1.82,1.74,6.08,6.08,6.07
50.46,4.22,-1.83,4.22,-1.82,1.83,1.77,1.68,6.05,6.06,6.04
50.96,4.22,-1.81,4.22,-1.81,1.81,1.72,1.63,6.03,6.03,6.02
51.47,4.22,-1.78,4.22,-1.79,1.78,1.66,1.58,6.00,6.00,6.00
51.99,4.22,-1.76,4.22,-1.76,1.75,1.61,1.54,5.97,5.97,5.98
52.51,4.22,-1.74,4.22,-1.73,1.72,1.56,1.49,5.94,5.95,5.95
53.03,4.24,-1.69,4.23,-1.70,1.69,1.51,1.44,5.93,5.92,5.93
53.56,4.24,-1.67,4.24,-1.66,1.66,1.46,1.40,5.90,5.90,5.90
54.10,4.25,-1.63,4.25,-1.63,1.63,1.41,1.35,5.88,5.88,5.88
54.64,4.27,-1.58,4.26,-1.59,1.60,1.35,1.31,5.86,5.86,5.85
55.18,4.27,-1.56,4.27,-1.56,1.56,1.30,1.27,5.83,5.83,5.82
55.74,4.27,-1.53,4.27,-1.53,1.53,1.25,1.23,5.80,5.80,5.80
56.29,4.27,-1.50,4.27,-1.50,1.50,1.20,1.18,5.77,5.77,5.77
56.86,4.27,-1.47,4.27,-1.47,1.47,1.15,1.14,5.73,5.73,5.74
57.42,4.27,-1.44,4.27,-1.44,1.44,1.10,1.10,5.70,5.70,5.71
58.00,4.27,-1.41,4.27,-1.41,1.40,1.05,1.06,5.67,5.67,5.67
58.58,4.27,-1.37,4.27,-1.37,1.37,1.00,1.02,5.64,5.64,5.64
59.16,4.27,-1.34,4.27,-1.34,1.34,0.95,0.98,5.61,5.61,5.61
59.76,4.27,-1.30,4.27,-1.30,1.30,0.90,0.95,5.57,5.57,5.57
60.35,4.27,-1.27,4.27,-1.27,1.27,0.85,0.91,5.54,5.54,5.53
60.96,4.27,-1.23,4.27,-1.23,1.23,0.80,0.87,5.50,5.50,5.50
61.57,4.27,-1.19,4.27,-1.19,1.19,0.75,0.83,5.46,5.46,5.46
62.18,4.27,-1.15,4.27,-1.15,1.15,0.70,0.79,5.42,5.42,5.42
62.80,4.27,-1.11,4.26,-1.12,1.11,0.65,0.75,5.38,5.37,5.38
63.43,4.27,-1.07,4.27,-1.07,1.06,0.60,0.71,5.33,5.33,5.34
64.07,4.27,-1.03,4.28,-1.02,1.01,0.55,0.67,5.28,5.29,5.30
64.71,4.30,-0.96,4.29,-0.96,0.96,0.50,0.63,5.26,5.25,5.25
65.35,4.31,-0.90,4.30,-0.91,0.91,0.45,0.59,5.22,5.22,5.21
66.01,4.31,-0.86,4.31,-0.85,0.86,0.41,0.55,5.17,5.17,5.16
66.67,4.31,-0.81,4.31,-0.81,0.81,0.36,0.51,5.12,5.12,5.12
67.33,4.31,-0.76,4.31,-0.76,0.76,0.31,0.47,5.07,5.07,5.07
68.01,4.31,-0.71,4.31,-0.71,0.71,0.26,0.43,5.02,5.02,5.02
68.69,4.31,-0.66,4.31,-0.66,0.66,0.22,0.39,4.96,4.96,4.97
69.37,4.31,-0.61,4.30,-0.61,0.60,0.17,0.35,4.91,4.90,4.92
70.07,4.31,-0.56,4.31,-0.55,0.54,0.13,0.31,4.85,4.86,4.86
70.77,4.32,-0.49,4.33,-0.48,0.48,0.08,0.26,4.80,4.81,4.81
71.48,4.36,-0.40,4.34,-0.41,0.42,0.03,0.22,4.78,4.77,4.76
72.19,4.36,-0.34,4.36,-0.34,0.36,-0.01,0.18,4.71,4.71,4.70
72.91,4.36,-0.28,4.36,-0.28,0.29,-0.06,0.14,4.65,4.65,4.64
73.64,4.36,-0.23,4.35,-0.23,0.22,-0.10,0.09,4.58,4.57,4.58
74.38,4.36,-0.17,4.36,-0.17,0.15,-0.14,0.05,4.51,4.51,4.52
75.12,4.36,-0.11,4.37,-0.09,0.08,-0.19,0.00,4.44,4.45,4.46
75.87,4.40,-0.00,4.39,-0.01,0.01,-0.23,-0.04,4.41,4.40,4.40
76.63,4.41,0.07,4.40,0.06,-0.06,-0.27,-0.09,4.35,4.35,4.34
77.40,4.41,0.13,4.41,0.14,-0.12,-0.32,-0.13,4.28,4.29,4.27
78.17,4.41,0.20,4.41,0.20,-0.20,-0.36,-0.18,4.21,4.21,4.21
78.95,4.41,0.26,4.41,0.26,-0.27,-0.40,-0.23,4.14,4.14,4.14
79.74,4.41,0.33,4.41,0.33,-0.34,-0.44,-0.27,4.07,4.07,4.08
80.54,4.41,0.40,4.41,0.40,-0.41,-0.48,-0.32,4.00,4.00,4.01
81.35,4.41,0.47,4.41,0.47,-0.48,-0.53,-0.37,3.93,3.93,3.94
82.16,4.41,0.54,4.41,0.54,-0.54,-0.57,-0.42,3.86,3.86,3.87
82.98,4.41,0.61,4.41,0.62,-0.61,-0.61,-0.47,3.80,3.80,3.80
83.81,4.41,0.69,4.41,0.68,-0.68,-0.65,-0.52,3.73,3.73,3.72
84.65,4.41,0.76,4.39,0.74,-0.74,-0.69,-0.57,3.67,3.65,3.65
85.50,4.36,0.78,4.38,0.80,-0.80,-0.72,-0.62,3.56,3.58,3.57
86.35,4.36,0.86,4.36,0.86,-0.86,-0.76,-0.67,3.50,3.50,3.50
87.22,4.35,0.92,4.33,0.91,-0.92,-0.80,-0.73,3.43,3.42,3.42
88.09,4.31,0.96,4.32,0.97,-0.97,-0.84,-0.78,3.34,3.35,3.35
88.97,4.29,1.02,4.29,1.02,-1.02,-0.88,-0.83,3.27,3.27,3.27
89.86,4.26,1.07,4.26,1.07,-1.06,-0.91,-0.89,3.19,3.19,3.19
90.76,4.22,1.11,4.22,1.11,-1.11,-0.95,-0.94,3.11,3.12,3.11
91.66,4.20,1.17,4.19,1.15,-1.15,-0.99,-1.00,3.05,3.03,3.03
92.58,4.14,1.19,4.14,1.19,-1.19,-1.02,-1.06,2.94,2.95,2.95
93.51,4.10,1.23,4.10,1.23,-1.23,-1.06,-1.11,2.86,2.87,2.87
94.44,4.06,1.27,4.06,1.27,-1.27,-1.09,-1.17,2.78,2.79,2.79
95.39,4.03,1.32,4.02,1.32,-1.32,-1.13,-1.23,2.71,2.71,2.71
96.34,3.99,1.36,3.98,1.36,-1.36,-1.16,-1.29,2.63,2.62,2.62
97.30,3.94,1.40,3.95,1.41,-1.41,-1.20,-1.35,2.53,2.54,2.54
98.28,3.91,1.45,3.91,1.45,-1.46,-1.23,-1.41,2.45,2.45,2.46
99.26,3.89,1.51,3.88,1.50,-1.51,-1.26,-1.47,2.38,2.37,2.37
100.25,3.85,1.56,3.85,1.56,-1.56,-1.29,-1.53,2.29,2.29,2.29
101.25,3.82,1.61,3.82,1.62,-1.61,-1.32,-1.59,2.20,2.21,2.21
102.27,3.80,1.68,3.79,1.67,-1.66,-1.35,-1.65,2.13,2.12,2.12
103.29,3.75,1.71,3.76,1.72,-1.72,-1.38,-1.71,2.03,2.04,2.04
104.32,3.72,1.77,3.72,1.77,-1.77,-1.41,-1.77,1.95,1.95,1.95
105.37,3.69,1.82,3.68,1.81,-1.81,-1.44,-1.82,1.87,1.87,1.87
106.42,3.64,1.86,3.65,1.86,-1.86,-1.47,-1.88,1.77,1.78,1.78
107.48,3.61,1.91,3.60,1.91,-1.91,-1.50,-1.94,1.70,1.70,1.70
108.56,3.57,1.95,3.56,1.95,-1.95,-1.53,-1.99,1.61,1.61,1.61
109.64,3.52,1.99,3.52,2.00,-2.00,-1.55,-2.05,1.52,1.53,1.53
110.74,3.49,2.04,3.48,2.04,-2.04,-1.58,-2.10,1.45,1.45,1.45
111.85,3.44,2.08,3.44,2.08,-2.08,-1.60,-2.15,1.36,1.37,1.36
112.97,3.40,2.12,3.39,2.12,-2.11,-1.63,-2.20,1.29,1.29,1.28
114.10,3.34,2.14,3.34,2.14,-2.14,-1.65,-2.24,1.20,1.20,1.20
115.24,3.28,2.17,3.28,2.17,-2.17,-1.67,-2.28,1.11,1.11,1.11
116.39,3.22,2.19,3.21,2.18,-2.19,-1.70,-2.32,1.03,1.03,1.03
117.55,3.15,2.20,3.15,2.20,-2.21,-1.72,-2.36,0.94,0.95,0.95
118.73,3.09,2.22,3.09,2.22,-2.22,-1.74,-2.39,0.86,0.86,0.87
119.92,3.03,2.24,3.02,2.24,-2.24,-1.76,-2.42,0.79,0.79,0.79
121.12,2.95,2.24,2.96,2.25,-2.25,-1.78,-2.44,0.70,0.71,0.71
122.33,2.90,2.27,2.89,2.26,-2.26,-1.80,-2.46,0.64,0.63,0.63
123.55,2.82,2.27,2.82,2.27,-2.27,-1.81,-2.48,0.55,0.55,0.55
124.79,2.74,2.27,2.74,2.27,-2.28,-1.83,-2.49,0.46,0.47,0.47
126.03,2.67,2.27,2.67,2.28,-2.28,-1.85,-2.50,0.39,0.39,0.39
127.29,2.61,2.29,2.60,2.28,-2.29,-1.86,-2.50,0.32,0.32,0.32
128.57,2.53,2.29,2.53,2.29,-2.29,-1.87,-2.50,0.24,0.25,0.24
129.85,2.46,2.29,2.45,2.29,-2.28,-1.89,-2.49,0.17,0.17,0.17
131.15,2.38,2.28,2.38,2.28,-2.28,-1.90,-2.48,0.10,0.10,0.09
132.46,2.29,2.27,2.29,2.27,-2.27,-1.91,-2.47,0.01,0.02,0.02
133.79,2.22,2.27,2.21,2.26,-2.26,-1.92,-2.46,-0.05,-0.05,-0.05
135.12,2.12,2.24,2.13,2.25,-2.25,-1.93,-2.43,-0.13,-0.13,-0.12
136.48,2.06,2.25,2.05,2.24,-2.24,-1.94,-2.41,-0.18,-0.19,-0.19
137.84,1.95,2.21,1.96,2.22,-2.22,-1.95,-2.39,-0.27,-0.26,-0.26
139.22,1.89,2.22,1.88,2.21,-2.20,-1.96,-2.36,-0.31,-0.32,-0.33
140.61,1.78,2.17,1.78,2.18,-2.18,-1.96,-2.33,-0.41,-0.40,-0.40
142.02,1.71,2.17,1.70,2.16,-2.16,-1.97,-2.30,-0.46,-0.46,-0.46
143.44,1.61,2.13,1.62,2.14,-2.15,-1.97,-2.26,-0.54,-0.53,-0.53
144.87,1.55,2.14,1.54,2.13,-2.13,-1.98,-2.23,-0.58,-0.59,-0.59
146.32,1.46,2.11,1.46,2.11,-2.11,-1.98,-2.19,-0.65,-0.66,-0.65
147.78,1.38,2.09,1.38,2.10,-2.10,-1.98,-2.15,-0.72,-0.71,-0.71
149.26,1.31,2.08,1.31,2.08,-2.08,-1.98,-2.12,-0.78,-0.77,-0.77
150.75,1.25,2.08,1.24,2.07,-2.07,-1.98,-2.08,-0.82,-0.83,-0.83
152.26,1.17,2.06,1.17,2.06,-2.06,-1.98,-2.04,-0.89,-0.88,-0.89
153.78,1.10,2.04,1.10,2.05,-2.04,-1.98,-2.00,-0.95,-0.94,-0.95
155.32,1.04,2.04,1.03,2.03,-2.03,-1.98,-1.96,-0.99,-1.00,-1.00
156.88,0.96,2.01,0.96,2.02,-2.02,-1.98,-1.92,-1.06,-1.05,-1.05
158.44,0.90,2.01,0.89,2.00,-2.00,-1.97,-1.88,-1.11,-1.11,-1.11
160.03,0.83,1.99,0.82,1.99,-1.99,-1.97,-1.85,-1.16,-1.17,-1.16
161.63,0.75,1.97,0.76,1.98,-1.98,-1.97,-1.81,-1.23,-1.22,-1.22
163.24,0.70,1.97,0.69,1.96,-1.96,-1.96,-1.77,-1.27,-1.27,-1.27
164.88,0.64,1.96,0.63,1.95,-1.95,-1.95,-1.74,-1.32,-1.32,-1.32
166.53,0.57,1.93,0.57,1.94,-1.94,-1.95,-1.70,-1.37,-1.37,-1.37
168.19,0.52,1.93,0.52,1.93,-1.93,-1.94,-1.67,-1.41,-1.41,-1.41
169.87,0.47,1.92,0.46,1.92,-1.92,-1.93,-1.64,-1.45,-1.45,-1.46
171.57,0.42,1.92,0.41,1.91,-1.90,-1.92,-1.61,-1.48,-1.49,-1.50
173.29,0.34,1.88,0.35,1.89,-1.89,-1.92,-1.58,-1.55,-1.54,-1.54
175.02,0.29,1.87,0.29,1.87,-1.87,-1.91,-1.55,-1.58,-1.58,-1.58
176.77,0.23,1.85,0.22,1.85,-1.85,-1.90,-1.52,-1.63,-1.63,-1.62
178.54,0.17,1.83,0.17,1.83,-1.84,-1.89,-1.50,-1.67,-1.67,-1.66
180.32,0.11,1.81,0.11,1.82,-1.82,-1.87,-1.47,-1.71,-1.70,-1.70
182.13,0.07,1.81,0.06,1.80,-1.80,-1.86,-1.45,-1.74,-1.74,-1.74
183.95,0.02,1.79,0.01,1.79,-1.79,-1.85,-1.42,-1.77,-1.78,-1.78
185.79,-0.04,1.77,-0.04,1.77,-1.77,-1.84,-1.40,-1.81,-1.81,-1.81
187.65,-0.09,1.75,-0.09,1.76,-1.76,-1.82,-1.38,-1.85,-1.85,-1.85
189.52,-0.13,1.75,-0.14,1.74,-1.74,-1.81,-1.36,-1.88,-1.88,-1.88
191.42,-0.18,1.73,-0.18,1.73,-1.73,-1.80,-1.35,-1.91,-1.91,-1.91
193.33,-0.23,1.71,-0.23,1.72,-1.71,-1.78,-1.33,-1.94,-1.94,-1.94
195.27,-0.27,1.70,-0.28,1.70,-1.70,-1.77,-1.31,-1.97,-1.97,-1.97
197.22,-0.32,1.68,-0.32,1.68,-1.68,-1.75,-1.30,-2.00,-2.01,-2.00
199.19,-0.37,1.66,-0.36,1.67,-1.67,-1.74,-1.29,-2.04,-2.03,-2.03
201.18,-0.40,1.66,-0.41,1.65,-1.65,-1.72,-1.27,-2.06,-2.06,-2.06
203.19,-0.44,1.65,-0.45,1.64,-1.64,-1.71,-1.26,-2.08,-2.09,-2.09
205.23,-0.49,1.62,-0.49,1.63,-1.63,-1.69,-1.25,-2.12,-2.11,-2.11
207.28,-0.52,1.62,-0.52,1.62,-1.62,-1.67,-1.24,-2.14,-2.14,-2.14
209.35,-0.55,1.61,-0.55,1.61,-1.61,-1.66,-1.23,-2.16,-2.16,-2.16
211.44,-0.58,1.61,-0.59,1.60,-1.60,-1.64,-1.22,-2.18,-2.19,-2.19
213.56,-0.62,1.59,-0.62,1.59,-1.59,-1.62,-1.21,-2.21,-2.21,-2.21
215.69,-0.67,1.56,-0.65,1.58,-1.58,-1.60,-1.21,-2.25,-2.23,-2.23
217.85,-0.67,1.58,-0.69,1.57,-1.57,-1.59,-1.20,-2.24,-2.26,-2.25
220.03,-0.71,1.56,-0.72,1.56,-1.56,-1.57,-1.19,-2.27,-2.27,-2.28
222.23,-0.76,1.53,-0.75,1.55,-1.55,-1.55,-1.18,-2.31,-2.29,-2.30
224.45,-0.77,1.54,-0.78,1.53,-1.53,-1.53,-1.18,-2.31,-2.32,-2.32
226.70,-0.81,1.52,-0.81,1.52,-1.52,-1.51,-1.17,-2.34,-2.34,-2.33
228.96,-0.85,1.50,-0.84,1.51,-1.51,-1.49,-1.16,-2.37,-2.35,-2.35
231.25,-0.86,1.51,-0.88,1.50,-1.50,-1.47,-1.16,-2.36,-2.38,-2.37
233.57,-0.90,1.49,-0.90,1.49,-1.49,-1.45,-1.15,-2.39,-2.39,-2.39
235.90,-0.94,1.47,-0.93,1.48,-1.48,-1.43,-1.14,-2.42,-2.40,-2.41
238.26,-0.95,1.48,-0.96,1.47,-1.46,-1.41,-1.14,-2.41,-2.42,-2.43
240.64,-0.99,1.45,-1.00,1.45,-1.45,-1.39,-1.13,-2.44,-2.44,-2.45
243.05,-1.04,1.42,-1.03,1.43,-1.43,-1.37,-1.12,-2.47,-2.46,-2.46
245.48,-1.07,1.40,-1.07,1.40,-1.41,-1.35,-1.11,-2.48,-2.48,-2.48
247.93,-1.10,1.39,-1.10,1.39,-1.39,-1.33,-1.11,-2.49,-2.50,-2.49
250.41,-1.13,1.37,-1.13,1.37,-1.37,-1.31,-1.10,-2.50,-2.50,-2.50
252.92,-1.16,1.35,-1.16,1.35,-1.35,-1.29,-1.09,-2.51,-2.51,-2.52
255.45,-1.19,1.34,-1.20,1.33,-1.33,-1.27,-1.08,-2.52,-2.52,-2.53
258.00,-1.23,1.31,-1.23,1.31,-1.31,-1.25,-1.07,-2.54,-2.54,-2.54
260.58,-1.27,1.28,-1.27,1.28,-1.28,-1.23,-1.06,-2.56,-2.55,-2.55
263.19,-1.31,1.25,-1.31,1.26,-1.26,-1.21,-1.05,-2.57,-2.57,-2.56
265.82,-1.34,1.23,-1.34,1.23,-1.23,-1.18,-1.04,-2.58,-2.57,-2.58
268.48,-1.37,1.21,-1.38,1.21,-1.21,-1.16,-1.02,-2.58,-2.59,-2.59
271.16,-1.41,1.18,-1.42,1.18,-1.18,-1.14,-1.01,-2.59,-2.60,-2.60
273.87,-1.46,1.14,-1.45,1.15,-1.16,-1.12,-1.00,-2.62,-2.61,-2.61
276.61,-1.49,1.12,-1.49,1.13,-1.13,-1.09,-0.99,-2.62,-2.62,-2.62
279.38,-1.51,1.11,-1.52,1.10,-1.10,-1.07,-0.98,-2.62,-2.62,-2.62
282.17,-1.55,1.08,-1.55,1.08,-1.08,-1.05,-0.96,-2.63,-2.62,-2.63
284.99,-1.58,1.05,-1.58,1.05,-1.05,-1.02,-0.95,-2.63,-2.63,-2.63
287.84,-1.61,1.02,-1.62,1.02,-1.02,-1.00,-0.94,-2.63,-2.64,-2.63
290.72,-1.65,0.99,-1.65,0.99,-0.99,-0.97,-0.92,-2.64,-2.64,-2.64
293.63,-1.68,0.96,-1.68,0.96,-0.96,-0.95,-0.91,-2.64,-2.64,-2.65
296.57,-1.71,0.93,-1.72,0.93,-0.93,-0.93,-0.90,-2.64,-2.64,-2.64
299.53,-1.74,0.90,-1.75,0.90,-0.90,-0.90,-0.89,-2.64,-2.65,-2.64
302.53,-1.79,0.86,-1.78,0.87,-0.87,-0.87,-0.88,-2.66,-2.64,-2.65
305.55,-1.80,0.84,-1.81,0.83,-0.84,-0.85,-0.86,-2.64,-2.65,-2.64
308.61,-1.83,0.82,-1.84,0.81,-0.81,-0.82,-0.85,-2.64,-2.65,-2.65
311.69,-1.88,0.76,-1.87,0.78,-0.78,-0.79,-0.84,-2.66,-2.65,-2.65
314.81,-1.89,0.76,-1.90,0.75,-0.75,-0.77,-0.83,-2.64,-2.65,-2.65
317.96,-1.93,0.72,-1.93,0.72,-0.72,-0.74,-0.82,-2.65,-2.65,-2.65
321.14,-1.95,0.70,-1.95,0.70,-0.69,-0.71,-0.81,-2.65,-2.65,-2.65
324.35,-1.97,0.68,-1.98,0.67,-0.67,-0.69,-0.80,-2.64,-2.65,-2.65
327.59,-2.02,0.62,-2.01,0.64,-0.64,-0.66,-0.79,-2.66,-2.65,-2.64
330.87,-2.02,0.63,-2.03,0.61,-0.62,-0.63,-0.78,-2.64,-2.65,-2.65
334.18,-2.06,0.58,-2.06,0.59,-0.59,-0.61,-0.78,-2.66,-2.65,-2.64
337.52,-2.07,0.58,-2.07,0.57,-0.57,-0.58,-0.77,-2.64,-2.64,-2.65
340.90,-2.09,0.55,-2.09,0.55,-0.55,-0.56,-0.76,-2.64,-2.64,-2.64
344.30,-2.11,0.52,-2.11,0.53,-0.52,-0.53,-0.76,-2.64,-2.63,-2.64
347.75,-2.11,0.52,-2.13,0.51,-0.50,-0.51,-0.75,-2.61,-2.63,-2.63
351.23,-2.16,0.47,-2.15,0.48,-0.48,-0.49,-0.75,-2.64,-2.63,-2.64
354.74,-2.16,0.46,-2.17,0.45,-0.46,-0.47,-0.74,-2.62,-2.63,-2.62
358.28,-2.20,0.42,-2.19,0.43,-0.44,-0.45,-0.74,-2.64,-2.63,-2.62
361.87,-2.20,0.41,-2.20,0.42,-0.42,-0.43,-0.73,-2.62,-2.61,-2.62
365.49,-2.20,0.41,-2.21,0.40,-0.40,-0.42,-0.73,-2.60,-2.61,-2.61
369.14,-2.20,0.41,-2.22,0.39,-0.38,-0.40,-0.73,-2.58,-2.60,-2.61
372.83,-2.25,0.34,-2.24,0.37,-0.37,-0.39,-0.73,-2.62,-2.60,-2.60
376.56,-2.25,0.35,-2.25,0.35,-0.36,-0.39,-0.72,-2.61,-2.61,-2.60
380.33,-2.25,0.34,-2.26,0.34,-0.34,-0.38,-0.72,-2.60,-2.60,-2.59
384.13,-2.25,0.34,-2.25,0.34,-0.33,-0.38,-0.72,-2.59,-2.58,-2.59
387.97,-2.25,0.34,-2.25,0.33,-0.32,-0.38,-0.72,-2.58,-2.58,-2.59
391.85,-2.25,0.32,-2.26,0.32,-0.32,-0.38,-0.72,-2.57,-2.58,-2.57
395.77,-2.27,0.30,-2.26,0.30,-0.31,-0.38,-0.72,-2.58,-2.57,-2.57
399.73,-2.27,0.29,-2.26,0.30,-0.30,-0.39,-0.73,-2.58,-2.57,-2.57
403.72,-2.25,0.31,-2.26,0.30,-0.30,-0.39,-0.73,-2.55,-2.56,-2.56
407.76,-2.25,0.31,-2.25,0.30,-0.30,-0.40,-0.73,-2.55,-2.55,-2.56
411.84,-2.25,0.30,-2.25,0.30,-0.30,-0.41,-0.73,-2.55,-2.55,-2.55
415.96,-2.25,0.29,-2.25,0.30,-0.30,-0.42,-0.74,-2.55,-2.55,-2.54
420.12,-2.25,0.29,-2.24,0.30,-0.31,-0.43,-0.74,-2.56,-2.55,-2.55
424.32,-2.22,0.32,-2.23,0.31,-0.31,-0.44,-0.74,-2.53,-2.54,-2.54
428.56,-2.20,0.33,-2.21,0.32,-0.32,-0.45,-0.75,-2.52,-2.53,-2.53
432.85,-2.20,0.32,-2.19,0.33,-0.33,-0.47,-0.75,-2.53,-2.52,-2.52
437.18,-2.17,0.35,-2.18,0.34,-0.34,-0.48,-0.75,-2.51,-2.52,-2.52
441.55,-2.16,0.35,-2.16,0.35,-0.35,-0.49,-0.76,-2.51,-2.51,-2.52
445.96,-2.14,0.36,-2.14,0.37,-0.36,-0.50,-0.76,-2.51,-2.50,-2.51
450.42,-2.11,0.38,-2.12,0.37,-0.38,-0.52,-0.77,-2.49,-2.50,-2.49
454.93,-2.09,0.39,-2.09,0.39,-0.40,-0.53,-0.77,-2.49,-2.49,-2.48
459.48,-2.07,0.40,-2.07,0.41,-0.41,-0.54,-0.78,-2.49,-2.48,-2.47
464.07,-2.03,0.44,-2.04,0.43,-0.43,-0.55,-0.78,-2.47,-2.47,-2.47
468.71,-2.00,0.46,-2.00,0.46,-0.46,-0.57,-0.79,-2.46,-2.46,-2.46
473.40,-1.97,0.48,-1.97,0.49,-0.48,-0.58,-0.79,-2.45,-2.45,-2.46
478.13,-1.93,0.51,-1.94,0.51,-0.51,-0.59,-0.80,-2.44,-2.45,-2.45
482.91,-1.90,0.54,-1.90,0.54,-0.54,-0.60,-0.80,-2.44,-2.44,-2.44
487.74,-1.87,0.56,-1.87,0.56,-0.57,-0.61,-0.80,-2.44,-2.43,-2.43
492.62,-1.82,0.60,-1.83,0.60,-0.59,-0.62,-0.81,-2.42,-2.42,-2.42
497.55,-1.78,0.63,-1.78,0.63,-0.62,-0.64,-0.81,-2.41,-2.41,-2.41
502.52,-1.74,0.66,-1.74,0.66,-0.65,-0.65,-0.82,-2.39,-2.40,-2.40
