frequency,raw,error,smoothed,error_smoothed,equalization,parametric_eq,fixed_band_eq,equalized_raw,equalized_smoothed,target
20.00,5.21,-2.60,5.21,-2.60,2.61,1.18,0.14,7.82,7.82,7.81
20.20,5.27,-2.59,5.27,-2.59,2.59,1.16,0.15,7.87,7.86,7.86
20.40,5.33,-2.58,5.33,-2.58,2.58,1.15,0.16,7.91,7.90,7.91
20.61,5.39,-2.55,5.39,-2.56,2.55,1.13,0.16,7.94,7.94,7.94
20.81,5.45,-2.54,5.45,-2.53,2.52,1.11,0.17,7.97,7.98,7.99
21.02,5.52,-2.51,5.52,-2.50,2.49,1.09,0.18,8.01,8.01,8.03
21.23,5.59,-2.46,5.59,-2.46,2.45,1.07,0.19,8.04,8.04,8.05
21.44,5.66,-2.41,5.66,-2.40,2.41,1.05,0.20,8.07,8.07,8.07
21.66,5.74,-2.35,5.74,-2.35,2.36,1.03,0.20,8.10,8.09,8.09
21.87,5.81,-2.28,5.81,-2.29,2.30,1.00,0.21,8.11,8.11,8.10
22.09,5.88,-2.23,5.88,-2.23,2.24,0.98,0.22,8.12,8.12,8.12
22.31,5.94,-2.18,5.94,-2.18,2.18,0.96,0.23,8.12,8.12,8.12
22.54,6.01,-2.11,6.01,-2.12,2.11,0.94,0.24,8.12,8.11,8.12
22.76,6.07,-2.05,6.07,-2.05,2.03,0.92,0.25,8.10,8.11,8.12
22.99,6.14,-1.97,6.15,-1.97,1.96,0.89,0.26,8.10,8.10,8.11
23.22,6.23,-1.88,6.23,-1.88,1.88,0.87,0.27,8.11,8.11,8.11
23.45,6.32,-1.79,6.32,-1.79,1.80,0.85,0.28,8.12,8.12,8.11
23.69,6.41,-1.71,6.41,-1.70,1.72,0.82,0.29,8.13,8.13,8.12
23.92,6.50,-1.62,6.50,-1.63,1.64,0.80,0.30,8.15,8.14,8.12
24.16,6.57,-1.56,6.57,-1.56,1.57,0.77,0.31,8.14,8.14,8.13
24.40,6.63,-1.51,6.63,-1.50,1.50,0.75,0.33,8.13,8.13,8.14
24.65,6.69,-1.44,6.69,-1.44,1.43,0.72,0.34,8.12,8.12,8.13
24.89,6.75,-1.37,6.75,-1.37,1.36,0.70,0.35,8.12,8.12,8.13
25.14,6.82,-1.30,6.82,-1.31,1.30,0.67,0.36,8.12,8.12,8.13
25.39,6.89,-1.24,6.89,-1.24,1.23,0.64,0.37,8.12,8.12,8.13
25.65,6.96,-1.17,6.96,-1.17,1.17,0.62,0.38,8.13,8.13,8.13
25.91,7.03,-1.09,7.03,-1.10,1.10,0.59,0.39,8.13,8.13,8.12
26.16,7.10,-1.02,7.09,-1.03,1.04,0.56,0.40,8.14,8.14,8.12
26.43,7.15,-0.97,7.15,-0.97,0.98,0.53,0.41,8.13,8.13,8.12
26.69,7.21,-0.91,7.21,-0.91,0.91,0.50,0.41,8.12,8.12,8.12
26.96,7.26,-0.87,7.27,-0.86,0.85,0.47,0.42,8.11,8.11,8.13
27.23,7.33,-0.80,7.33,-0.80,0.78,0.44,0.43,8.11,8.11,8.13
27.50,7.40,-0.72,7.40,-0.73,0.71,0.41,0.43,8.11,8.11,8.12
27.77,7.46,-0.65,7.46,-0.65,0.64,0.38,0.44,8.10,8.10,8.11
28.05,7.53,-0.58,7.53,-0.58,0.57,0.35,0.44,8.10,8.10,8.11
28.33,7.60,-0.50,7.60,-0.50,0.51,0.32,0.44,8.11,8.11,8.10
28.62,7.67,-0.43,7.68,-0.42,0.45,0.29,0.44,8.12,8.13,8.10
28.90,7.75,-0.36,7.74,-0.37,0.40,0.25,0.44,8.15,8.14,8.11
29.19,7.78,-0.32,7.78,-0.33,0.35,0.22,0.44,8.13,8.13,8.10
29.48,7.80,-0.31,7.80,-0.31,0.30,0.19,0.43,8.10,8.10,8.11
29.78,7.82,-0.28,7.82,-0.28,0.25,0.15,0.42,8.07,8.07,8.10
30.08,7.85,-0.26,7.86,-0.24,0.20,0.12,0.41,8.05,8.06,8.11
30.38,7.93,-0.17,7.93,-0.17,0.15,0.08,0.40,8.08,8.08,8.10
30.68,8.01,-0.09,8.01,-0.09,0.09,0.04,0.39,8.10,8.10,8.10
30.99,8.10,0.01,8.09,-0.00,0.02,0.01,0.37,8.12,8.11,8.09
31.30,8.16,0.07,8.16,0.07,-0.05,-0.03,0.36,8.11,8.11,8.09
31.61,8.22,0.13,8.23,0.14,-0.13,-0.07,0.34,8.09,8.10,8.09
31.93,8.29,0.20,8.29,0.20,-0.20,-0.11,0.31,8.09,8.08,8.09
32.24,8.35,0.28,8.35,0.27,-0.27,-0.15,0.29,8.08,8.08,8.08
32.57,8.41,0.33,8.41,0.34,-0.34,-0.19,0.26,8.07,8.07,8.08
32.89,8.48,0.40,8.48,0.40,-0.41,-0.23,0.23,8.07,8.07,8.08
33.22,8.54,0.47,8.54,0.47,-0.48,-0.28,0.20,8.06,8.07,8.07
33.55,8.60,0.54,8.60,0.54,-0.54,-0.32,0.16,8.06,8.06,8.06
33.89,8.66,0.61,8.66,0.60,-0.59,-0.37,0.12,8.07,8.06,8.05
34.23,8.71,0.65,8.71,0.66,-0.64,-0.41,0.09,8.07,8.07,8.06
34.57,8.75,0.71,8.76,0.71,-0.69,-0.46,0.05,8.06,8.07,8.05
34.92,8.80,0.76,8.79,0.75,-0.73,-0.51,0.00,8.07,8.06,8.04
35.27,8.82,0.78,8.81,0.77,-0.77,-0.56,-0.04,8.05,8.04,8.04
35.62,8.83,0.80,8.83,0.79,-0.82,-0.61,-0.09,8.01,8.01,8.04
35.97,8.84,0.81,8.86,0.83,-0.87,-0.66,-0.13,7.97,7.99,8.03
36.33,8.92,0.88,8.92,0.89,-0.92,-0.71,-0.18,8.00,8.00,8.04
36.70,9.01,0.99,9.00,0.98,-0.98,-0.77,-0.23,8.03,8.03,8.02
37.06,9.09,1.07,9.09,1.06,-1.03,-0.82,-0.28,8.06,8.05,8.02
37.43,9.15,1.12,9.15,1.12,-1.09,-0.88,-0.34,8.06,8.06,8.04
37.81,9.20,1.17,9.20,1.17,-1.14,-0.94,-0.39,8.06,8.06,8.03
38.19,9.24,1.21,9.24,1.20,-1.20,-1.00,-0.45,8.04,8.04,8.03
38.57,9.27,1.24,9.27,1.24,-1.25,-1.06,-0.50,8.02,8.02,8.03
38.95,9.30,1.26,9.31,1.28,-1.30,-1.12,-0.56,8.00,8.01,8.04
39.34,9.36,1.33,9.36,1.33,-1.35,-1.19,-0.62,8.01,8.02,8.03
39.74,9.43,1.40,9.43,1.39,-1.40,-1.26,-0.68,8.03,8.03,8.03
40.14,9.49,1.46,9.48,1.45,-1.44,-1.32,-0.74,8.05,8.04,8.03
40.54,9.53,1.50,9.53,1.51,-1.50,-1.39,-0.80,8.03,8.04,8.03
40.94,9.57,1.55,9.58,1.56,-1.55,-1.46,-0.86,8.02,8.03,8.02
41.35,9.62,1.61,9.62,1.60,-1.60,-1.53,-0.92,8.02,8.02,8.01
41.76,9.66,1.65,9.66,1.65,-1.65,-1.61,-0.99,8.01,8.01,8.01
42.18,9.70,1.69,9.70,1.70,-1.70,-1.68,-1.05,8.00,8.00,8.01
42.60,9.74,1.75,9.74,1.74,-1.75,-1.75,-1.12,7.99,7.99,7.99
43.03,9.78,1.79,9.79,1.80,-1.80,-1.82,-1.19,7.98,7.99,7.99
43.46,9.83,1.85,9.83,1.86,-1.84,-1.88,-1.25,7.99,7.99,7.98
43.90,9.87,1.92,9.86,1.90,-1.89,-1.95,-1.32,7.98,7.97,7.95
44.33,9.88,1.95,9.88,1.94,-1.94,-2.01,-1.39,7.94,7.94,7.94
44.78,9.88,1.96,9.89,1.97,-1.98,-2.07,-1.46,7.90,7.91,7.92
45.23,9.91,2.00,9.91,2.01,-2.03,-2.12,-1.53,7.88,7.88,7.91
45.68,9.95,2.06,9.95,2.06,-2.07,-2.17,-1.60,7.88,7.88,7.89
46.13,10.00,2.13,10.00,2.13,-2.11,-2.22,-1.68,7.89,7.89,7.87
46.60,10.05,2.18,10.05,2.18,-2.16,-2.26,-1.75,7.89,7.89,7.87
47.06,10.09,2.24,10.07,2.22,-2.20,-2.30,-1.82,7.89,7.87,7.85
47.53,10.09,2.25,10.09,2.24,-2.25,-2.33,-1.90,7.84,7.84,7.84
48.01,10.09,2.25,10.11,2.27,-2.30,-2.36,-1.98,7.79,7.81,7.84
48.49,10.14,2.32,10.14,2.32,-2.35,-2.39,-2.05,7.79,7.79,7.82
48.97,10.19,2.39,10.19,2.39,-2.40,-2.42,-2.13,7.79,7.79,7.80
49.46,10.24,2.46,10.24,2.46,-2.44,-2.44,-2.21,7.80,7.80,7.78
49.96,10.29,2.53,10.27,2.51,-2.49,-2.46,-2.29,7.80,7.78,7.76
50.46,10.29,2.54,10.29,2.54,-2.53,-2.49,-2.37,7.76,7.75,7.75
50.96,10.29,2.55,10.32,2.59,-2.58,-2.51,-2.45,7.71,7.75,7.74
51.47,10.35,2.63,10.36,2.63,-2.62,-2.54,-2.53,7.73,7.74,7.72
51.99,10.42,2.71,10.37,2.66,-2.66,-2.56,-2.61,7.76,7.71,7.71
52.51,10.37,2.67,10.37,2.67,-2.69,-2.59,-2.69,7.68,7.68,7.70
53.03,10.33,2.63,10.39,2.69,-2.72,-2.61,-2.76,7.61,7.67,7.70
53.56,10.42,2.74,10.41,2.73,-2.74,-2.64,-2.84,7.68,7.67,7.68
54.10,10.49,2.82,10.46,2.79,-2.76,-2.67,-2.92,7.73,7.69,7.67
54.64,10.49,2.84,10.50,2.84,-2.79,-2.70,-3.00,7.70,7.71,7.65
55.18,10.49,2.85,10.50,2.86,-2.83,-2.74,-3.07,7.66,7.67,7.64
55.74,10.49,2.86,10.47,2.84,-2.87,-2.77,-3.15,7.62,7.60,7.63
56.29,10.47,2.85,10.46,2.84,-2.92,-2.81,-3.22,7.55,7.54,7.62
56.86,10.44,2.84,10.51,2.91,-2.97,-2.84,-3.29,7.48,7.54,7.60
57.42,10.57,3.00,10.59,3.01,-3.01,-2.88,-3.36,7.56,7.58,7.57
58.00,10.75,3.19,10.67,3.11,-3.05,-2.92,-3.43,7.70,7.62,7.56
58.58,10.72,3.17,10.72,3.17,-3.10,-2.97,-3.49,7.62,7.62,7.55
59.16,10.69,3.16,10.72,3.18,-3.15,-3.01,-3.56,7.54,7.57,7.53
59.76,10.69,3.18,10.69,3.18,-3.20,-3.05,-3.61,7.49,7.49,7.51
60.35,10.69,3.22,10.69,3.21,-3.24,-3.10,-3.67,7.45,7.45,7.47
60.96,10.69,3.25,10.69,3.25,-3.27,-3.15,-3.72,7.42,7.42,7.44
61.57,10.69,3.30,10.69,3.30,-3.30,-3.20,-3.77,7.39,7.39,7.40
62.18,10.69,3.34,10.69,3.34,-3.33,-3.25,-3.82,7.36,7.36,7.35
62.80,10.69,3.38,10.69,3.38,-3.37,-3.30,-3.86,7.32,7.32,7.31
63.43,10.69,3.43,10.69,3.43,-3.43,-3.35,-3.91,7.26,7.26,7.26
64.07,10.69,3.47,10.69,3.47,-3.49,-3.40,-3.94,7.20,7.19,7.22
64.71,10.69,3.52,10.70,3.53,-3.56,-3.45,-3.98,7.13,7.14,7.17
65.35,10.73,3.60,10.74,3.61,-3.64,-3.50,-4.01,7.10,7.10,7.13
66.01,10.79,3.71,10.79,3.71,-3.71,-3.56,-4.04,7.08,7.08,7.08
66.67,10.86,3.83,10.85,3.81,-3.79,-3.61,-4.07,7.07,7.06,7.03
67.33,10.89,3.91,10.88,3.89,-3.86,-3.67,-4.09,7.03,7.02,6.98
68.01,10.89,3.95,10.90,3.95,-3.93,-3.73,-4.11,6.96,6.97,6.94
68.69,10.89,4.00,10.89,4.00,-4.00,-3.79,-4.14,6.89,6.90,6.89
69.37,10.89,4.05,10.89,4.05,-4.06,-3.84,-4.16,6.83,6.83,6.84
70.07,10.89,4.10,10.89,4.10,-4.11,-3.90,-4.18,6.78,6.78,6.79
70.77,10.89,4.15,10.89,4.15,-4.16,-3.96,-4.20,6.73,6.73,6.74
71.48,10.89,4.20,10.89,4.20,-4.21,-4.02,-4.21,6.68,6.68,6.69
72.19,10.89,4.27,10.89,4.26,-4.26,-4.08,-4.23,6.63,6.63,6.63
72.91,10.89,4.32,10.89,4.32,-4.32,-4.14,-4.25,6.57,6.57,6.57
73.64,10.89,4.38,10.89,4.38,-4.38,-4.21,-4.27,6.51,6.51,6.51
74.38,10.89,4.44,10.89,4.44,-4.44,-4.27,-4.29,6.45,6.45,6.45
75.12,10.89,4.49,10.89,4.50,-4.50,-4.33,-4.31,6.39,6.39,6.40
75.87,10.89,4.55,10.89,4.55,-4.55,-4.39,-4.34,6.34,6.34,6.34
76.63,10.89,4.60,10.89,4.61,-4.60,-4.46,-4.36,6.29,6.29,6.29
77.40,10.89,4.66,10.90,4.67,-4.64,-4.52,-4.39,6.25,6.26,6.24
78.17,10.89,4.72,10.89,4.70,-4.68,-4.59,-4.42,6.21,6.21,6.17
78.95,10.89,4.75,10.84,4.71,-4.71,-4.65,-4.45,6.18,6.13,6.14
79.74,10.76,4.67,10.79,4.71,-4.73,-4.72,-4.48,6.03,6.06,6.09
80.54,10.74,4.70,10.76,4.72,-4.75,-4.78,-4.52,5.99,6.01,6.04
81.35,10.76,4.77,10.77,4.78,-4.77,-4.85,-4.55,5.99,6.00,5.99
82.16,10.79,4.85,10.77,4.82,-4.79,-4.92,-4.60,6.00,5.98,5.94
82.98,10.79,4.88,10.73,4.83,-4.82,-4.98,-4.64,5.97,5.91,5.91
83.81,10.63,4.78,10.68,4.83,-4.86,-5.05,-4.69,5.77,5.82,5.85
84.65,10.62,4.82,10.64,4.84,-4.90,-5.12,-4.74,5.72,5.75,5.80
85.50,10.66,4.90,10.67,4.91,-4.93,-5.19,-4.80,5.73,5.74,5.76
86.35,10.73,5.02,10.72,5.01,-4.96,-5.26,-4.86,5.77,5.76,5.71
87.22,10.77,5.11,10.72,5.06,-5.00,-5.33,-4.92,5.77,5.72,5.66
88.09,10.67,5.06,10.68,5.07,-5.03,-5.39,-4.98,5.64,5.65,5.61
88.97,10.59,5.03,10.62,5.06,-5.08,-5.46,-5.05,5.51,5.55,5.56
89.86,10.59,5.08,10.58,5.07,-5.12,-5.53,-5.12,5.47,5.46,5.51
90.76,10.59,5.13,10.58,5.12,-5.16,-5.60,-5.20,5.43,5.42,5.46
91.66,10.60,5.18,10.61,5.20,-5.20,-5.67,-5.28,5.40,5.41,5.42
92.58,10.62,5.27,10.63,5.27,-5.24,-5.74,-5.37,5.38,5.39,5.35
93.51,10.66,5.35,10.62,5.31,-5.28,-5.81,-5.45,5.38,5.34,5.31
94.44,10.61,5.34,10.61,5.34,-5.33,-5.88,-5.54,5.28,5.27,5.27
95.39,10.55,5.33,10.61,5.39,-5.39,-5.95,-5.64,5.16,5.22,5.22
96.34,10.63,5.46,10.62,5.45,-5.45,-6.02,-5.73,5.18,5.17,5.17
97.30,10.68,5.56,10.63,5.51,-5.52,-6.09,-5.83,5.16,5.11,5.12
98.28,10.64,5.56,10.65,5.57,-5.60,-6.16,-5.94,5.04,5.05,5.08
99.26,10.62,5.59,10.66,5.63,-5.68,-6.23,-6.04,4.94,4.98,5.03
100.25,10.72,5.74,10.72,5.74,-5.78,-6.31,-6.15,4.94,4.95,4.98
101.25,10.83,5.89,10.82,5.88,-5.87,-6.38,-6.26,4.96,4.95,4.94
102.27,10.93,6.04,10.92,6.03,-5.96,-6.45,-6.38,4.97,4.96,4.89
103.29,10.97,6.13,10.96,6.12,-6.06,-6.52,-6.49,4.91,4.90,4.84
104.32,10.98,6.18,10.96,6.17,-6.15,-6.59,-6.61,4.83,4.81,4.80
105.37,10.94,6.19,10.98,6.22,-6.24,-6.66,-6.72,4.70,4.73,4.75
106.42,10.98,6.27,11.00,6.30,-6.33,-6.73,-6.84,4.65,4.67,4.71
107.48,11.08,6.43,11.03,6.38,-6.41,-6.80,-6.96,4.67,4.62,4.65
108.56,11.08,6.49,11.09,6.49,-6.49,-6.87,-7.08,4.59,4.60,4.59
109.64,11.08,6.53,11.14,6.59,-6.57,-6.94,-7.19,4.51,4.57,4.55
110.74,11.22,6.73,11.17,6.67,-6.66,-7.01,-7.31,4.56,4.51,4.49
111.85,11.23,6.77,11.21,6.76,-6.75,-7.08,-7.42,4.48,4.46,4.46
112.97,11.20,6.81,11.25,6.85,-6.85,-7.14,-7.53,4.35,4.40,4.39
114.10,11.28,6.93,11.27,6.93,-6.94,-7.21,-7.63,4.34,4.33,4.35
115.24,11.33,7.03,11.32,7.02,-7.03,-7.28,-7.73,4.30,4.29,4.30
116.39,11.39,7.14,11.38,7.12,-7.13,-7.35,-7.83,4.26,4.25,4.25
117.55,11.41,7.20,11.43,7.22,-7.22,-7.42,-7.92,4.19,4.20,4.21
118.73,11.48,7.31,11.50,7.33,-7.32,-7.48,-8.01,4.16,4.18,4.17
119.92,11.58,7.43,11.56,7.43,-7.42,-7.55,-8.08,4.16,4.14,4.15
121.12,11.66,7.56,11.62,7.51,-7.52,-7.62,-8.16,4.14,4.09,4.10
122.33,11.64,7.57,11.68,7.60,-7.62,-7.68,-8.22,4.02,4.06,4.07
123.55,11.71,7.66,11.75,7.70,-7.71,-7.75,-8.28,4.01,4.04,4.05
124.79,11.86,7.84,11.81,7.79,-7.78,-7.82,-8.33,4.08,4.03,4.02
126.03,11.89,7.90,11.88,7.89,-7.85,-7.88,-8.37,4.04,4.02,3.99
127.29,11.88,7.91,11.90,7.94,-7.91,-7.95,-8.40,3.97,3.99,3.97
128.57,11.89,7.96,11.89,7.96,-7.96,-8.01,-8.43,3.93,3.93,3.93
129.85,11.89,7.99,11.89,7.99,-8.00,-8.07,-8.45,3.89,3.89,3.90
131.15,11.90,8.03,11.90,8.03,-8.04,-8.14,-8.47,3.86,3.86,3.87
132.46,11.90,8.06,11.90,8.06,-8.07,-8.20,-8.47,3.83,3.83,3.84
133.79,11.91,8.09,11.91,8.09,-8.10,-8.26,-8.48,3.81,3.81,3.82
135.12,11.91,8.13,11.91,8.12,-8.12,-8.32,-8.47,3.79,3.79,3.78
136.48,11.91,8.14,11.91,8.15,-8.15,-8.39,-8.47,3.76,3.76,3.77
137.84,11.92,8.19,11.92,8.19,-8.18,-8.45,-8.45,3.74,3.74,3.73
139.22,11.92,8.22,11.92,8.22,-8.21,-8.51,-8.44,3.71,3.71,3.70
140.61,11.92,8.25,11.92,8.25,-8.24,-8.57,-8.42,3.68,3.69,3.67
142.02,11.92,8.27,11.92,8.27,-8.27,-8.63,-8.41,3.65,3.65,3.65
143.44,11.92,8.30,11.92,8.30,-8.30,-8.68,-8.39,3.62,3.62,3.62
144.87,11.92,8.34,11.91,8.33,-8.34,-8.74,-8.37,3.58,3.57,3.58
146.32,11.92,8.38,11.92,8.37,-8.39,-8.80,-8.35,3.53,3.53,3.54
147.78,11.92,8.41,11.96,8.45,-8.46,-8.86,-8.33,3.46,3.50,3.51
149.26,12.01,8.54,11.98,8.52,-8.55,-8.91,-8.31,3.46,3.43,3.47
150.75,12.04,8.64,12.00,8.60,-8.65,-8.97,-8.29,3.39,3.35,3.40
152.26,12.00,8.67,12.05,8.71,-8.77,-9.02,-8.28,3.23,3.28,3.33
153.78,12.07,8.80,12.10,8.84,-8.87,-9.08,-8.27,3.20,3.23,3.27
155.32,12.20,9.01,12.18,8.98,-8.96,-9.13,-8.26,3.24,3.22,3.19
156.88,12.25,9.13,12.22,9.11,-9.02,-9.19,-8.26,3.23,3.21,3.12
158.44,12.19,9.16,12.18,9.14,-9.03,-9.24,-8.26,3.16,3.15,3.04
160.03,12.05,9.10,12.07,9.12,-9.01,-9.29,-8.26,3.04,3.06,2.95
161.63,11.90,9.02,11.91,9.03,-8.97,-9.34,-8.27,2.94,2.95,2.88
163.24,11.77,8.95,11.73,8.91,-8.90,-9.39,-8.29,2.87,2.83,2.82
164.88,11.53,8.76,11.54,8.78,-8.83,-9.44,-8.31,2.70,2.72,2.77
166.53,11.37,8.65,11.39,8.67,-8.77,-9.49,-8.33,2.60,2.62,2.72
168.19,11.30,8.62,11.31,8.62,-8.73,-9.54,-8.36,2.57,2.57,2.68
169.87,11.31,8.66,11.32,8.67,-8.74,-9.59,-8.40,2.57,2.58,2.65
171.57,11.40,8.77,11.39,8.76,-8.78,-9.64,-8.44,2.62,2.61,2.63
173.29,11.50,8.89,11.50,8.88,-8.87,-9.69,-8.48,2.63,2.63,2.61
175.02,11.61,9.00,11.62,9.01,-8.98,-9.73,-8.54,2.63,2.63,2.61
176.77,11.75,9.16,11.73,9.14,-9.12,-9.78,-8.60,2.63,2.61,2.59
178.54,11.85,9.26,11.86,9.26,-9.27,-9.82,-8.66,2.58,2.59,2.59
180.32,11.99,9.40,12.02,9.42,-9.41,-9.87,-8.73,2.58,2.61,2.60
182.13,12.15,9.55,12.15,9.55,-9.54,-9.91,-8.81,2.61,2.61,2.60
183.95,12.33,9.74,12.26,9.66,-9.65,-9.95,-8.90,2.68,2.61,2.59
185.79,12.30,9.71,12.36,9.77,-9.75,-9.99,-8.99,2.55,2.61,2.59
187.65,12.41,9.84,12.44,9.87,-9.84,-10.03,-9.08,2.57,2.61,2.57
189.52,12.55,9.99,12.50,9.94,-9.93,-10.07,-9.19,2.62,2.57,2.56
191.42,12.57,10.03,12.54,10.00,-10.01,-10.11,-9.29,2.56,2.53,2.54
193.33,12.53,10.01,12.56,10.03,-10.08,-10.15,-9.41,2.45,2.47,2.52
195.27,12.54,10.04,12.60,10.10,-10.15,-10.19,-9.53,2.39,2.45,2.50
197.22,12.71,10.23,12.69,10.21,-10.22,-10.22,-9.66,2.49,2.47,2.48
199.19,12.84,10.38,12.78,10.32,-10.29,-10.26,-9.79,2.56,2.50,2.46
201.18,12.84,10.40,12.84,10.40,-10.35,-10.29,-9.93,2.49,2.49,2.44
203.19,12.82,10.40,12.85,10.43,-10.43,-10.32,-10.07,2.39,2.43,2.42
205.23,12.88,10.48,12.88,10.47,-10.50,-10.35,-10.21,2.38,2.38,2.40
207.28,12.92,10.53,12.93,10.54,-10.57,-10.38,-10.36,2.35,2.36,2.39
209.35,12.99,10.62,12.97,10.60,-10.62,-10.41,-10.52,2.37,2.35,2.37
211.44,13.02,10.69,13.03,10.68,-10.67,-10.44,-10.67,2.35,2.36,2.34
213.56,13.03,10.70,13.08,10.76,-10.71,-10.46,-10.83,2.32,2.37,2.33
215.69,13.17,10.85,13.10,10.78,-10.75,-10.48,-10.99,2.42,2.34,2.32
217.85,13.12,10.81,13.11,10.80,-10.80,-10.50,-11.14,2.32,2.30,2.31
220.03,13.05,10.76,13.12,10.83,-10.85,-10.52,-11.30,2.20,2.27,2.29
222.23,13.13,10.86,13.12,10.84,-10.89,-10.54,-11.45,2.24,2.23,2.27
224.45,13.20,10.92,13.17,10.89,-10.92,-10.56,-11.59,2.28,2.24,2.28
226.70,13.20,10.92,13.25,10.97,-10.95,-10.57,-11.73,2.25,2.29,2.28
228.96,13.31,11.02,13.29,11.01,-10.98,-10.58,-11.86,2.33,2.32,2.29
231.25,13.36,11.06,13.33,11.03,-11.00,-10.59,-11.98,2.36,2.33,2.30
233.57,13.33,11.02,13.35,11.04,-11.02,-10.59,-12.08,2.31,2.33,2.31
235.90,13.34,11.02,13.35,11.03,-11.03,-10.60,-12.17,2.31,2.32,2.32
238.26,13.35,11.02,13.35,11.02,-11.03,-10.60,-12.25,2.32,2.32,2.33
240.64,13.37,11.02,13.37,11.01,-11.03,-10.59,-12.29,2.34,2.34,2.35
243.05,13.38,11.00,13.38,11.01,-11.02,-10.59,-12.33,2.36,2.36,2.38
245.48,13.40,11.00,13.40,11.00,-11.02,-10.58,-12.33,2.39,2.39,2.40
247.93,13.43,11.00,13.43,11.00,-11.01,-10.56,-12.32,2.42,2.42,2.43
250.41,13.45,11.00,13.45,11.00,-11.00,-10.55,-12.27,2.45,2.45,2.45
252.92,13.47,10.99,13.47,10.99,-10.99,-10.53,-12.21,2.48,2.48,2.48
255.45,13.48,10.98,13.48,10.98,-10.97,-10.50,-12.11,2.51,2.52,2.50
258.00,13.49,10.97,13.50,10.98,-10.94,-10.47,-12.00,2.55,2.56,2.52
260.58,13.49,10.95,13.48,10.93,-10.91,-10.44,-11.85,2.58,2.57,2.54
263.19,13.47,10.90,13.42,10.86,-10.87,-10.40,-11.69,2.60,2.55,2.57
265.82,13.32,10.74,13.37,10.78,-10.83,-10.36,-11.51,2.49,2.54,2.58
268.48,13.32,10.71,13.35,10.73,-10.78,-10.31,-11.31,2.54,2.57,2.61
271.16,13.36,10.72,13.34,10.71,-10.73,-10.26,-11.10,2.63,2.61,2.64
273.87,13.38,10.72,13.35,10.69,-10.66,-10.21,-10.87,2.72,2.69,2.66
276.61,13.31,10.62,13.33,10.64,-10.60,-10.14,-10.63,2.71,2.73,2.69
279.38,13.26,10.54,13.27,10.55,-10.53,-10.08,-10.38,2.73,2.74,2.72
282.17,13.20,10.46,13.19,10.44,-10.44,-10.00,-10.12,2.76,2.74,2.74
284.99,13.11,10.33,13.12,10.35,-10.35,-9.92,-9.86,2.76,2.77,2.78
287.84,13.02,10.23,13.03,10.24,-10.24,-9.84,-9.59,2.78,2.79,2.79
290.72,12.96,10.13,12.94,10.12,-10.12,-9.75,-9.33,2.84,2.82,2.83
293.63,12.84,9.99,12.85,10.00,-9.99,-9.65,-9.05,2.85,2.86,2.85
296.57,12.75,9.86,12.74,9.86,-9.86,-9.55,-8.78,2.89,2.88,2.89
299.53,12.63,9.72,12.63,9.72,-9.72,-9.44,-8.51,2.91,2.90,2.91
302.53,12.50,9.57,12.52,9.58,-9.58,-9.33,-8.23,2.92,2.93,2.93
305.55,12.41,9.43,12.40,9.43,-9.44,-9.21,-7.96,2.97,2.96,2.98
308.61,12.29,9.30,12.28,9.29,-9.29,-9.09,-7.69,3.00,3.00,2.99
311.69,12.15,9.13,12.17,9.15,-9.14,-8.95,-7.43,3.01,3.03,3.02
314.81,12.04,8.99,12.04,8.99,-8.99,-8.82,-7.16,3.05,3.05,3.05
317.96,11.91,8.85,11.88,8.82,-8.84,-8.68,-6.90,3.07,3.04,3.06
321.14,11.71,8.64,11.72,8.65,-8.68,-8.53,-6.64,3.03,3.04,3.07
324.35,11.54,8.45,11.58,8.49,-8.51,-8.37,-6.39,3.03,3.06,3.09
327.59,11.44,8.34,11.45,8.35,-8.32,-8.21,-6.13,3.12,3.13,3.10
330.87,11.34,8.23,11.31,8.19,-8.12,-8.05,-5.88,3.22,3.18,3.11
334.18,11.14,8.01,11.10,7.98,-7.91,-7.88,-5.64,3.23,3.19,3.13
337.52,10.82,7.69,10.85,7.71,-7.69,-7.71,-5.39,3.13,3.16,3.14
340.90,10.56,7.41,10.59,7.44,-7.47,-7.53,-5.15,3.09,3.12,3.15
344.30,10.37,7.21,10.35,7.19,-7.24,-7.34,-4.91,3.13,3.10,3.16
347.75,10.14,6.98,10.14,6.98,-7.02,-7.15,-4.68,3.12,3.11,3.16
351.23,9.92,6.76,9.93,6.76,-6.81,-6.96,-4.45,3.12,3.12,3.17
354.74,9.73,6.57,9.73,6.56,-6.59,-6.76,-4.22,3.14,3.13,3.16
358.28,9.54,6.37,9.56,6.39,-6.39,-6.56,-3.99,3.15,3.18,3.17
361.87,9.40,6.23,9.41,6.23,-6.18,-6.36,-3.77,3.22,3.22,3.17
365.49,9.24,6.06,9.21,6.03,-5.98,-6.15,-3.55,3.27,3.23,3.18
369.14,8.99,5.83,8.96,5.79,-5.76,-5.94,-3.33,3.23,3.20,3.17
372.83,8.65,5.49,8.70,5.54,-5.53,-5.72,-3.11,3.12,3.17,3.16
376.56,8.41,5.25,8.45,5.28,-5.30,-5.50,-2.90,3.11,3.15,3.16
380.33,8.27,5.10,8.20,5.04,-5.07,-5.28,-2.69,3.20,3.14,3.17
384.13,7.98,4.81,7.98,4.82,-4.84,-5.06,-2.48,3.14,3.14,3.17
387.97,7.71,4.55,7.75,4.59,-4.61,-4.83,-2.27,3.10,3.14,3.16
391.85,7.52,4.38,7.51,4.35,-4.39,-4.60,-2.07,3.13,3.11,3.15
395.77,7.32,4.17,7.31,4.16,-4.18,-4.37,-1.87,3.14,3.13,3.15
399.73,7.09,3.95,7.13,3.98,-3.95,-4.14,-1.67,3.14,3.17,3.14
403.72,6.94,3.80,6.91,3.77,-3.73,-3.90,-1.47,3.22,3.19,3.14
407.76,6.70,3.57,6.68,3.54,-3.49,-3.67,-1.28,3.21,3.18,3.13
411.84,6.39,3.26,6.41,3.28,-3.26,-3.43,-1.09,3.13,3.15,3.13
415.96,6.12,2.99,6.12,2.99,-3.02,-3.19,-0.90,3.10,3.10,3.13
420.12,5.85,2.72,5.84,2.72,-2.77,-2.95,-0.71,3.08,3.07,3.13
424.32,5.58,2.46,5.61,2.48,-2.51,-2.71,-0.53,3.07,3.10,3.13
428.56,5.39,2.26,5.40,2.27,-2.25,-2.46,-0.36,3.14,3.15,3.13
432.85,5.22,2.08,5.18,2.04,-2.00,-2.22,-0.18,3.22,3.18,3.14
437.18,4.97,1.82,4.94,1.78,-1.76,-1.98,-0.01,3.21,3.18,3.15
441.55,4.66,1.47,4.70,1.52,-1.53,-1.73,0.15,3.14,3.18,3.19
445.96,4.45,1.23,4.48,1.26,-1.30,-1.49,0.32,3.15,3.18,3.22
450.42,4.33,1.08,4.30,1.04,-1.08,-1.24,0.47,3.25,3.22,3.25
454.93,4.15,0.85,4.15,0.86,-0.86,-1.00,0.62,3.29,3.29,3.30
459.48,4.00,0.65,4.00,0.65,-0.64,-0.76,0.77,3.36,3.36,3.35
464.07,3.84,0.44,3.84,0.44,-0.43,-0.51,0.91,3.41,3.41,3.40
468.71,3.68,0.22,3.70,0.25,-0.22,-0.27,1.04,3.46,3.48,3.46
473.40,3.55,0.06,3.54,0.03,-0.01,-0.03,1.17,3.54,3.52,3.50
478.13,3.39,-0.16,3.36,-0.19,0.19,0.21,1.29,3.58,3.55,3.55
482.91,3.15,-0.44,3.18,-0.42,0.40,0.45,1.40,3.55,3.58,3.59
487.74,2.99,-0.64,3.00,-0.63,0.61,0.69,1.50,3.60,3.61,3.63
492.62,2.84,-0.84,2.84,-0.83,0.81,0.93,1.60,3.65,3.65,3.68
497.55,2.72,-0.98,2.69,-1.02,1.01,1.16,1.69,3.73,3.70,3.70
