frequency,raw
20.00,-28.51
20.20,-28.47
20.40,-28.42
20.61,-28.38
20.81,-28.33
21.02,-28.28
21.23,-28.18
21.44,-28.08
21.66,-27.99
21.87,-27.89
22.09,-27.74
22.31,-27.52
22.54,-27.30
22.76,-27.08
22.99,-26.86
23.22,-26.76
23.45,-26.67
23.69,-26.58
23.92,-26.49
24.16,-26.39
24.40,-26.29
24.65,-26.19
24.89,-26.08
25.14,-25.90
25.39,-25.66
25.65,-25.43
25.91,-25.19
26.16,-24.99
26.43,-24.83
26.69,-24.66
26.96,-24.50
27.23,-24.20
27.50,-23.88
27.77,-23.56
28.05,-23.27
28.33,-23.14
28.62,-23.00
28.90,-22.87
29.19,-22.60
29.48,-22.27
29.78,-21.95
30.08,-21.65
30.38,-21.46
30.68,-21.26
30.99,-21.07
31.30,-20.81
31.61,-20.55
31.93,-20.29
32.24,-20.09
32.57,-19.90
32.89,-19.71
33.22,-19.47
33.55,-19.21
33.89,-18.95
34.23,-18.67
34.57,-18.38
34.92,-18.09
35.27,-17.78
35.62,-17.47
35.97,-17.15
36.33,-16.96
36.70,-16.78
37.06,-16.58
37.43,-16.32
37.81,-16.06
38.19,-15.85
38.57,-15.70
38.95,-15.54
39.34,-15.35
39.74,-15.16
40.14,-14.98
40.54,-14.81
40.94,-14.63
41.35,-14.45
41.76,-14.26
42.18,-14.16
42.60,-14.16
43.03,-14.14
43.46,-13.93
43.90,-13.72
44.33,-13.47
44.78,-13.21
45.23,-12.94
45.68,-12.67
46.13,-12.39
46.60,-12.12
47.06,-11.85
47.53,-11.61
48.01,-11.38
48.49,-11.13
48.97,-10.89
49.46,-10.71
49.96,-10.53
50.46,-10.23
50.96,-9.91
51.47,-9.60
51.99,-9.28
52.51,-9.02
53.03,-8.76
53.56,-8.60
54.10,-8.44
54.64,-8.31
55.18,-8.14
55.74,-7.89
56.29,-7.64
56.86,-7.38
57.42,-7.22
58.00,-7.09
58.58,-6.96
59.16,-6.77
59.76,-6.44
60.35,-6.18
60.96,-5.96
61.57,-5.82
62.18,-5.72
62.80,-5.72
63.43,-5.62
64.07,-5.49
64.71,-5.46
65.35,-5.39
66.01,-5.27
66.67,-5.12
67.33,-4.93
68.01,-4.71
68.69,-4.61
69.37,-4.45
70.07,-4.24
70.77,-3.96
71.48,-3.66
72.19,-3.44
72.91,-3.44
73.64,-3.30
74.38,-3.16
75.12,-3.03
75.87,-2.94
76.63,-2.70
77.40,-2.54
78.17,-2.44
78.95,-2.31
79.74,-2.14
80.54,-2.08
81.35,-2.07
82.16,-1.99
82.98,-1.64
83.81,-1.30
84.65,-1.18
85.50,-1.10
86.35,-1.00
87.22,-0.93
88.09,-0.87
88.97,-0.72
89.86,-0.55
90.76,-0.49
91.66,-0.48
92.58,-0.40
93.51,-0.29
94.44,-0.25
95.39,-0.15
96.34,-0.02
97.30,-0.02
98.28,0.03
99.26,0.23
100.25,0.50
101.25,0.74
102.27,0.89
103.29,0.89
104.32,0.94
105.37,1.06
106.42,1.11
107.48,1.11
108.56,1.11
109.64,1.26
110.74,1.34
111.85,1.34
112.97,1.36
114.10,1.57
115.24,1.57
116.39,1.57
117.55,1.57
118.73,1.57
119.92,1.57
121.12,1.58
122.33,1.72
123.55,1.80
124.79,1.80
126.03,1.80
127.29,1.80
128.57,1.85
129.85,2.06
131.15,2.25
132.46,2.25
133.79,2.39
135.12,2.48
136.48,2.48
137.84,2.48
139.22,2.48
140.61,2.48
142.02,2.59
143.44,2.68
144.87,2.71
146.32,2.71
147.78,2.71
149.26,2.71
150.75,2.71
152.26,2.72
153.78,2.86
155.32,2.93
156.88,2.94
158.44,2.94
160.03,2.94
161.63,2.94
163.24,2.80
164.88,2.71
166.53,2.89
168.19,2.94
169.87,2.94
171.57,2.94
173.29,3.08
175.02,3.17
176.77,3.17
178.54,3.17
180.32,3.17
182.13,3.17
183.95,3.17
185.79,3.17
187.65,3.17
189.52,3.17
191.42,3.17
193.33,3.17
195.27,3.06
197.22,2.96
199.19,2.94
201.18,2.94
203.19,2.89
205.23,2.77
207.28,2.71
209.35,2.71
211.44,2.78
213.56,2.97
215.69,3.32
217.85,3.60
220.03,3.78
222.23,3.85
224.45,3.85
226.70,3.85
228.96,3.85
231.25,3.85
233.57,3.82
235.90,3.63
238.26,3.62
240.64,3.62
243.05,3.62
245.48,3.46
247.93,3.39
250.41,3.39
252.92,3.39
255.45,3.39
258.00,3.39
260.58,3.54
263.19,3.61
265.82,3.62
268.48,3.62
271.16,3.62
273.87,3.62
276.61,3.62
279.38,3.62
282.17,3.62
284.99,3.62
287.84,3.62
290.72,3.62
293.63,3.62
296.57,3.62
299.53,3.62
302.53,3.62
305.55,3.62
308.61,3.56
311.69,3.41
314.81,3.39
317.96,3.39
321.14,3.39
324.35,3.39
327.59,3.39
330.87,3.39
334.18,3.39
337.52,3.26
340.90,3.19
344.30,3.17
347.75,3.23
351.23,3.41
354.74,3.57
358.28,3.51
361.87,3.42
365.49,3.39
369.14,3.39
372.83,3.39
376.56,3.39
380.33,3.30
384.13,3.19
387.97,3.01
391.85,2.95
395.77,2.94
399.73,2.94
403.72,3.02
407.76,3.14
411.84,3.17
415.96,3.17
420.12,3.17
424.32,3.19
428.56,3.33
432.85,3.39
437.18,3.39
441.55,3.39
445.96,3.23
450.42,3.17
454.93,3.17
459.48,3.17
464.07,3.17
468.71,3.17
473.40,3.17
478.13,3.17
482.91,3.17
487.74,3.17
492.62,3.17
497.55,3.17
502.52,3.17
507.55,3.17
512.62,3.17
517.75,3.13
522.93,3.03
528.16,3.22
533.44,3.24
538.77,3.18
544.16,3.17
549.60,2.97
555.10,2.72
560.65,2.52
566.25,2.38
571.92,2.16
577.64,1.90
583.41,1.80
589.25,1.60
595.14,1.40
601.09,1.61
607.10,1.78
613.17,1.93
619.30,2.02
625.50,1.85
631.75,1.67
638.07,1.33
644.45,1.02
650.89,0.90
657.40,0.89
663.98,0.89
670.62,0.88
677.32,0.75
684.10,0.84
690.94,0.96
697.85,1.09
704.83,1.11
711.87,0.94
718.99,0.69
726.18,0.43
733.44,0.31
740.78,0.41
748.19,0.56
755.67,0.79
763.23,1.14
770.86,1.31
778.57,1.34
786.35,1.34
794.22,1.34
802.16,1.34
810.18,1.34
818.28,1.52
826.46,1.55
834.73,1.39
843.08,1.34
851.51,1.34
860.02,1.34
868.62,1.34
877.31,1.16
886.08,1.11
894.94,1.04
903.89,0.92
912.93,0.77
922.06,0.68
931.28,0.66
940.59,0.66
950.00,0.61
959.50,0.47
969.09,0.43
978.78,0.43
988.57,0.27
998.46,0.04
1008.44,-0.02
1018.53,-0.02
1028.71,-0.10
1039.00,-0.23
1049.39,-0.25
1059.88,-0.25
1070.48,-0.25
1081.19,-0.25
1092.00,-0.19
1102.92,-0.05
1113.95,0.09
1125.09,0.33
1136.34,0.42
1147.70,0.61
1159.18,0.71
1170.77,0.89
1182.48,1.14
1194.30,1.50
1206.25,1.90
1218.31,2.20
1230.49,2.47
1242.80,2.66
1255.22,2.79
1267.78,3.02
1280.45,3.15
1293.26,3.17
1306.19,3.18
1319.25,3.35
1332.45,3.49
1345.77,3.78
1359.23,4.11
1372.82,4.42
1386.55,4.52
1400.41,4.53
1414.42,4.58
1428.56,4.72
1442.85,4.86
1457.28,5.09
1471.85,5.35
1486.57,5.61
1501.43,5.67
1516.45,5.67
1531.61,5.76
1546.93,5.88
1562.40,5.90
1578.02,5.90
1593.80,5.90
1609.74,5.90
1625.84,5.90
1642.10,5.90
1658.52,5.90
1675.10,5.90
1691.85,5.90
1708.77,5.90
1725.86,5.95
1743.12,6.16
1760.55,6.47
1778.15,6.73
1795.94,6.80
1813.90,6.99
1832.03,7.06
1850.36,7.23
1868.86,7.27
1887.55,7.16
1906.42,7.06
1925.49,6.88
1944.74,6.81
1964.19,6.63
1983.83,6.58
2003.67,6.58
2023.71,6.58
2043.94,6.58
2064.38,6.58
2085.03,6.41
2105.88,6.31
2126.94,6.17
2148.20,6.13
2169.69,6.13
2191.38,6.13
2213.30,5.96
2235.43,5.89
2257.78,5.72
2280.36,5.60
2303.17,5.37
2326.20,5.11
2349.46,5.00
2372.95,4.99
2396.68,4.99
2420.65,5.08
2444.86,5.41
2469.31,5.85
2494.00,6.36
2518.94,6.89
2544.13,7.51
2569.57,8.19
2595.27,8.95
2621.22,9.69
2647.43,10.35
2673.90,10.94
2700.64,11.47
2727.65,11.98
2754.93,12.40
2782.48,12.80
2810.30,13.19
2838.40,13.65
2866.79,14.24
2895.46,14.88
2924.41,15.43
2953.65,15.90
2983.19,16.21
3013.02,16.47
3043.15,16.59
3073.58,16.61
3104.32,16.61
3135.36,16.61
3166.72,16.61
3198.38,16.61
3230.37,16.61
3262.67,16.61
3295.30,16.61
3328.25,16.61
3361.53,16.66
3395.15,16.80
3429.10,16.94
3463.39,17.23
3498.03,17.69
3533.01,18.21
3568.34,18.67
3604.02,18.64
3640.06,18.35
3676.46,17.97
3713.22,17.45
3750.36,16.73
3787.86,16.04
3825.74,15.23
3864.00,14.57
3902.64,13.83
3941.66,13.10
3981.08,12.43
4020.89,12.53
4061.10,13.32
4101.71,14.42
4142.73,15.49
4184.15,16.49
4226.00,17.30
4268.26,17.90
4310.94,17.99
4354.05,17.76
4397.59,17.37
4441.56,16.91
4485.98,16.44
4530.84,15.87
4576.15,15.23
4621.91,14.57
4668.13,14.08
4714.81,13.81
4761.96,13.46
4809.58,13.07
4857.67,12.60
4906.25,12.17
4955.31,11.78
5004.87,11.58
5054.91,11.41
5105.46,11.28
5156.52,11.05
5208.08,10.78
5260.16,10.43
5312.77,10.06
5365.89,9.97
5419.55,10.62
5473.75,11.51
5528.49,12.11
5583.77,12.11
5639.61,11.88
5696.00,11.62
5752.96,11.33
5810.49,10.96
5868.60,10.61
5927.28,10.68
5986.56,11.11
6046.42,11.63
6106.89,12.12
6167.96,12.29
6229.64,11.88
6291.93,11.05
6354.85,10.06
6418.40,8.84
6482.58,7.55
6547.41,6.32
6612.88,5.03
6679.01,3.77
6745.80,2.51
6813.26,1.37
6881.39,0.32
6950.21,-0.56
7019.71,-1.58
7089.91,-2.70
7160.81,-3.77
7232.41,-4.68
7304.74,-5.32
7377.79,-5.86
7451.56,-6.37
7526.08,-6.66
7601.34,-6.38
7677.35,-5.62
7754.13,-4.50
7831.67,-3.13
7909.98,-1.57
7989.08,0.27
8068.98,2.02
8149.67,3.58
8231.16,4.68
8313.47,5.36
8396.61,5.90
8480.57,6.23
8565.38,6.47
8651.03,6.40
8737.54,6.36
8824.92,6.36
8913.17,6.52
9002.30,7.04
9092.32,7.62
9183.25,8.29
9275.08,8.86
9367.83,9.21
9461.51,9.31
9556.12,8.99
9651.68,8.47
9748.20,7.76
9845.68,7.08
9944.14,6.52
10043.58,6.21
10144.02,6.43
10245.46,7.01
10347.91,7.75
10451.39,8.30
10555.91,8.18
10661.46,7.49
10768.08,6.51
10875.76,5.29
10984.52,3.25
11094.36,0.57
11205.31,-2.31
11317.36,-4.56
11430.53,-5.81
11544.84,-5.95
11660.29,-5.28
11776.89,-4.30
11894.66,-3.46
12013.60,-2.74
12133.74,-2.18
12255.08,-1.59
12377.63,-1.02
12501.41,-0.50
12626.42,-0.73
12752.68,-1.78
12880.21,-3.60
13009.01,-5.72
13139.10,-7.76
13270.49,-9.35
13403.20,-10.40
13537.23,-10.17
13672.60,-9.58
13809.33,-9.64
13947.42,-10.52
14086.90,-11.91
14227.77,-13.55
14370.04,-15.13
14513.74,-16.44
14658.88,-17.73
14805.47,-18.93
14953.52,-20.15
15103.06,-21.20
15254.09,-21.78
15406.63,-22.08
15560.70,-22.11
15716.30,-21.97
15873.47,-21.62
16032.20,-21.19
16192.52,-20.79
16354.45,-20.40
16517.99,-20.50
16683.17,-20.02
16850.01,-19.26
17018.51,-18.79
17188.69,-18.85
17360.58,-19.17
17534.18,-20.14
17709.53,-21.81
17886.62,-23.38
18065.49,-24.30
18246.14,-24.25
18428.60,-23.51
18612.89,-22.85
18799.02,-23.22
18987.01,-24.18
19176.88,-25.19
19368.65,-25.99
19562.33,-26.06
19757.96,-25.63
19955.54,-25.28
