frequency,raw,error,smoothed,error_smoothed,equalization,parametric_eq,fixed_band_eq,equalized_raw,equalized_smoothed,target
20.00,-3.19,-3.36,-3.29,-3.48,3.48,2.85,0.65,0.29,0.19,0.17
20.20,-3.14,-3.35,-3.20,-3.42,3.42,2.82,0.67,0.28,0.22,0.21
20.40,-3.10,-3.34,-3.11,-3.36,3.36,2.78,0.69,0.27,0.25,0.24
20.61,-3.05,-3.32,-3.03,-3.30,3.30,2.74,0.71,0.25,0.28,0.27
20.81,-3.00,-3.31,-2.94,-3.24,3.24,2.71,0.73,0.24,0.30,0.31
21.02,-2.95,-3.30,-2.85,-3.18,3.18,2.67,0.76,0.23,0.33,0.35
21.23,-2.85,-3.21,-2.77,-3.12,3.12,2.63,0.78,0.27,0.35,0.36
21.44,-2.75,-3.13,-2.69,-3.06,3.06,2.60,0.80,0.31,0.37,0.38
21.66,-2.65,-3.05,-2.61,-2.99,2.99,2.56,0.83,0.34,0.39,0.40
21.87,-2.55,-2.96,-2.52,-2.93,2.93,2.52,0.85,0.38,0.41,0.41
22.09,-2.45,-2.88,-2.44,-2.87,2.87,2.49,0.88,0.42,0.42,0.43
22.31,-2.35,-2.78,-2.37,-2.80,2.80,2.45,0.90,0.45,0.44,0.43
22.54,-2.25,-2.69,-2.28,-2.72,2.72,2.42,0.93,0.47,0.45,0.44
22.76,-2.15,-2.60,-2.19,-2.65,2.65,2.38,0.96,0.50,0.46,0.45
22.99,-2.05,-2.50,-2.11,-2.57,2.57,2.35,0.99,0.52,0.46,0.45
23.22,-2.00,-2.46,-2.03,-2.50,2.50,2.31,1.01,0.50,0.47,0.46
23.45,-1.94,-2.41,-1.96,-2.43,2.43,2.28,1.04,0.49,0.48,0.47
23.69,-1.89,-2.37,-1.89,-2.37,2.37,2.24,1.07,0.48,0.48,0.48
23.92,-1.84,-2.33,-1.83,-2.32,2.32,2.21,1.10,0.48,0.49,0.49
24.16,-1.78,-2.28,-1.77,-2.26,2.26,2.17,1.14,0.48,0.49,0.50
24.40,-1.73,-2.24,-1.72,-2.21,2.21,2.14,1.17,0.48,0.49,0.51
24.65,-1.68,-2.18,-1.66,-2.16,2.16,2.11,1.20,0.48,0.49,0.50
24.89,-1.62,-2.12,-1.61,-2.11,2.11,2.07,1.23,0.49,0.50,0.50
25.14,-1.57,-2.07,-1.56,-2.06,2.06,2.04,1.26,0.49,0.50,0.50
25.39,-1.51,-2.01,-1.50,-2.00,2.00,2.01,1.30,0.49,0.50,0.50
25.65,-1.45,-1.95,-1.44,-1.94,1.94,1.98,1.33,0.49,0.50,0.50
25.91,-1.39,-1.88,-1.38,-1.87,1.87,1.94,1.36,0.48,0.50,0.49
26.16,-1.33,-1.82,-1.32,-1.81,1.81,1.91,1.39,0.48,0.50,0.49
26.43,-1.27,-1.77,-1.26,-1.75,1.75,1.88,1.43,0.48,0.49,0.49
26.69,-1.21,-1.70,-1.21,-1.70,1.70,1.85,1.46,0.49,0.49,0.49
26.96,-1.15,-1.64,-1.16,-1.64,1.64,1.82,1.49,0.49,0.49,0.49
27.23,-1.09,-1.58,-1.10,-1.59,1.59,1.79,1.52,0.50,0.49,0.49
27.50,-1.02,-1.51,-1.05,-1.54,1.54,1.76,1.55,0.52,0.49,0.49
27.77,-0.96,-1.44,-1.00,-1.49,1.49,1.73,1.58,0.53,0.48,0.48
28.05,-0.91,-1.39,-0.96,-1.44,1.44,1.70,1.60,0.53,0.48,0.48
28.33,-0.91,-1.38,-0.92,-1.40,1.40,1.67,1.63,0.49,0.48,0.47
28.62,-0.91,-1.39,-0.89,-1.37,1.37,1.65,1.65,0.46,0.48,0.48
28.90,-0.91,-1.39,-0.85,-1.33,1.33,1.62,1.68,0.42,0.48,0.48
29.19,-0.87,-1.34,-0.82,-1.29,1.29,1.59,1.70,0.42,0.47,0.47
29.48,-0.80,-1.28,-0.78,-1.26,1.26,1.56,1.71,0.46,0.47,0.48
29.78,-0.73,-1.21,-0.75,-1.22,1.22,1.54,1.73,0.49,0.47,0.47
30.08,-0.68,-1.15,-0.72,-1.18,1.18,1.51,1.74,0.50,0.46,0.47
30.38,-0.68,-1.14,-0.68,-1.14,1.14,1.48,1.75,0.46,0.46,0.46
30.68,-0.68,-1.14,-0.65,-1.11,1.11,1.46,1.76,0.43,0.46,0.46
30.99,-0.68,-1.13,-0.62,-1.07,1.07,1.43,1.77,0.39,0.45,0.45
31.30,-0.61,-1.06,-0.59,-1.04,1.04,1.41,1.77,0.43,0.45,0.45
31.61,-0.55,-1.00,-0.56,-1.00,1.00,1.38,1.77,0.45,0.44,0.45
31.93,-0.48,-0.92,-0.53,-0.97,0.97,1.36,1.77,0.49,0.44,0.44
32.24,-0.46,-0.89,-0.51,-0.94,0.94,1.34,1.76,0.48,0.44,0.43
32.57,-0.46,-0.88,-0.49,-0.92,0.92,1.31,1.76,0.46,0.43,0.42
32.89,-0.46,-0.88,-0.48,-0.90,0.90,1.29,1.75,0.44,0.43,0.42
33.22,-0.46,-0.88,-0.47,-0.89,0.89,1.27,1.73,0.43,0.42,0.42
33.55,-0.46,-0.88,-0.46,-0.88,0.88,1.24,1.72,0.42,0.42,0.42
33.89,-0.46,-0.88,-0.45,-0.86,0.86,1.22,1.70,0.40,0.41,0.42
34.23,-0.46,-0.88,-0.44,-0.85,0.85,1.20,1.69,0.39,0.41,0.42
34.57,-0.46,-0.86,-0.44,-0.85,0.85,1.18,1.67,0.39,0.41,0.40
34.92,-0.46,-0.86,-0.45,-0.85,0.85,1.16,1.64,0.39,0.40,0.40
35.27,-0.46,-0.86,-0.45,-0.85,0.85,1.14,1.62,0.39,0.40,0.40
35.62,-0.46,-0.85,-0.46,-0.85,0.85,1.12,1.60,0.39,0.39,0.39
35.97,-0.46,-0.85,-0.46,-0.85,0.85,1.10,1.57,0.39,0.39,0.39
36.33,-0.46,-0.84,-0.46,-0.84,0.84,1.08,1.55,0.38,0.38,0.38
36.70,-0.46,-0.84,-0.46,-0.84,0.84,1.06,1.52,0.38,0.38,0.38
37.06,-0.46,-0.83,-0.46,-0.83,0.83,1.04,1.49,0.37,0.37,0.37
37.43,-0.46,-0.83,-0.46,-0.83,0.83,1.02,1.47,0.37,0.37,0.37
37.81,-0.46,-0.82,-0.46,-0.82,0.82,1.00,1.44,0.36,0.36,0.36
38.19,-0.46,-0.81,-0.46,-0.82,0.82,0.98,1.41,0.36,0.36,0.35
38.57,-0.46,-0.81,-0.46,-0.81,0.81,0.96,1.38,0.35,0.35,0.35
38.95,-0.46,-0.81,-0.45,-0.80,0.80,0.95,1.36,0.34,0.35,0.35
39.34,-0.46,-0.79,-0.45,-0.79,0.79,0.93,1.33,0.33,0.34,0.33
39.74,-0.46,-0.78,-0.44,-0.78,0.78,0.91,1.30,0.32,0.34,0.32
40.14,-0.46,-0.79,-0.44,-0.77,0.77,0.89,1.28,0.31,0.33,0.33
40.54,-0.46,-0.78,-0.45,-0.77,0.77,0.88,1.25,0.31,0.32,0.32
40.94,-0.46,-0.78,-0.46,-0.77,0.77,0.86,1.22,0.31,0.31,0.32
41.35,-0.46,-0.77,-0.47,-0.77,0.77,0.85,1.20,0.31,0.30,0.31
41.76,-0.46,-0.75,-0.49,-0.77,0.77,0.83,1.18,0.31,0.28,0.29
42.18,-0.46,-0.74,-0.51,-0.77,0.77,0.81,1.15,0.31,0.26,0.28
42.60,-0.46,-0.71,-0.53,-0.77,0.77,0.80,1.13,0.31,0.24,0.25
43.03,-0.47,-0.71,-0.55,-0.77,0.77,0.78,1.11,0.30,0.22,0.24
43.46,-0.56,-0.78,-0.57,-0.77,0.77,0.77,1.09,0.21,0.20,0.22
43.90,-0.66,-0.83,-0.59,-0.76,0.76,0.76,1.07,0.10,0.17,0.17
44.33,-0.68,-0.83,-0.60,-0.75,0.75,0.74,1.05,0.07,0.15,0.15
44.78,-0.68,-0.79,-0.62,-0.74,0.74,0.73,1.03,0.06,0.13,0.11
45.23,-0.68,-0.77,-0.63,-0.73,0.73,0.71,1.01,0.05,0.10,0.09
45.68,-0.68,-0.74,-0.65,-0.73,0.73,0.70,1.00,0.05,0.08,0.06
46.13,-0.68,-0.73,-0.67,-0.73,0.73,0.69,0.98,0.05,0.06,0.05
46.60,-0.68,-0.72,-0.69,-0.73,0.73,0.67,0.97,0.05,0.05,0.04
47.06,-0.68,-0.70,-0.71,-0.74,0.74,0.66,0.95,0.06,0.03,0.02
47.53,-0.68,-0.70,-0.73,-0.75,0.75,0.65,0.94,0.07,0.02,0.02
48.01,-0.68,-0.70,-0.74,-0.76,0.76,0.64,0.92,0.08,0.02,0.02
48.49,-0.68,-0.70,-0.76,-0.77,0.77,0.62,0.91,0.09,0.02,0.02
48.97,-0.68,-0.69,-0.76,-0.78,0.78,0.61,0.90,0.10,0.02,0.01
49.46,-0.79,-0.79,-0.78,-0.80,0.80,0.60,0.89,0.01,0.02,0.00
49.96,-0.90,-0.90,-0.80,-0.82,0.82,0.59,0.88,-0.08,0.02,0.00
50.46,-0.91,-0.93,-0.82,-0.84,0.84,0.58,0.87,-0.07,0.02,0.02
50.96,-0.91,-0.94,-0.85,-0.87,0.87,0.57,0.86,-0.04,0.01,0.03
51.47,-0.91,-0.93,-0.88,-0.88,0.88,0.56,0.86,-0.03,0.01,0.02
51.99,-0.91,-0.92,-0.90,-0.90,0.90,0.55,0.85,-0.01,-0.00,0.01
52.51,-0.91,-0.91,-0.93,-0.91,0.91,0.54,0.84,-0.00,-0.02,0.00
53.03,-0.91,-0.89,-0.96,-0.92,0.92,0.53,0.83,0.01,-0.04,-0.02
53.56,-0.91,-0.86,-0.99,-0.93,0.93,0.51,0.83,0.02,-0.06,-0.05
54.10,-0.93,-0.84,-1.03,-0.93,0.93,0.51,0.82,0.00,-0.09,-0.08
54.64,-1.06,-0.93,-1.06,-0.93,0.93,0.50,0.82,-0.13,-0.13,-0.13
55.18,-1.14,-0.97,-1.09,-0.92,0.92,0.49,0.81,-0.22,-0.17,-0.17
55.74,-1.14,-0.92,-1.12,-0.91,0.91,0.48,0.81,-0.23,-0.21,-0.22
56.29,-1.14,-0.88,-1.15,-0.89,0.89,0.47,0.80,-0.25,-0.26,-0.26
56.86,-1.14,-0.83,-1.19,-0.88,0.88,0.46,0.80,-0.26,-0.31,-0.31
57.42,-1.24,-0.87,-1.22,-0.86,0.86,0.45,0.79,-0.38,-0.36,-0.37
58.00,-1.37,-0.95,-1.26,-0.85,0.85,0.44,0.79,-0.52,-0.42,-0.42
58.58,-1.37,-0.89,-1.30,-0.83,0.83,0.43,0.78,-0.54,-0.47,-0.48
59.16,-1.37,-0.85,-1.34,-0.82,0.82,0.42,0.78,-0.55,-0.53,-0.52
59.76,-1.37,-0.80,-1.38,-0.80,0.80,0.42,0.78,-0.57,-0.58,-0.57
60.35,-1.37,-0.73,-1.41,-0.77,0.77,0.41,0.77,-0.60,-0.64,-0.64
60.96,-1.37,-0.69,-1.43,-0.74,0.74,0.40,0.77,-0.63,-0.69,-0.68
61.57,-1.37,-0.62,-1.46,-0.72,0.72,0.39,0.76,-0.65,-0.74,-0.75
62.18,-1.41,-0.61,-1.48,-0.70,0.70,0.38,0.76,-0.71,-0.79,-0.80
62.80,-1.56,-0.72,-1.50,-0.67,0.67,0.38,0.75,-0.89,-0.83,-0.84
63.43,-1.60,-0.72,-1.52,-0.64,0.64,0.37,0.75,-0.96,-0.88,-0.88
64.07,-1.60,-0.68,-1.53,-0.61,0.61,0.36,0.74,-0.99,-0.92,-0.92
64.71,-1.60,-0.64,-1.55,-0.60,0.60,0.36,0.74,-1.00,-0.96,-0.96
65.35,-1.60,-0.60,-1.58,-0.59,0.59,0.35,0.73,-1.01,-0.99,-1.00
66.01,-1.60,-0.57,-1.61,-0.59,0.59,0.34,0.73,-1.01,-1.02,-1.03
66.67,-1.60,-0.55,-1.63,-0.58,0.58,0.33,0.72,-1.02,-1.05,-1.05
67.33,-1.60,-0.53,-1.65,-0.58,0.58,0.33,0.72,-1.02,-1.07,-1.07
68.01,-1.60,-0.51,-1.67,-0.57,0.57,0.32,0.71,-1.03,-1.10,-1.09
68.69,-1.61,-0.49,-1.68,-0.57,0.57,0.32,0.70,-1.04,-1.12,-1.12
69.37,-1.70,-0.56,-1.69,-0.56,0.56,0.31,0.70,-1.14,-1.14,-1.14
70.07,-1.82,-0.66,-1.71,-0.56,0.56,0.30,0.69,-1.26,-1.15,-1.16
70.77,-1.82,-0.66,-1.74,-0.57,0.57,0.30,0.69,-1.25,-1.17,-1.16
71.48,-1.82,-0.64,-1.78,-0.59,0.59,0.29,0.68,-1.23,-1.19,-1.18
72.19,-1.82,-0.62,-1.83,-0.62,0.62,0.29,0.68,-1.20,-1.21,-1.20
72.91,-1.82,-0.60,-1.88,-0.65,0.65,0.28,0.67,-1.17,-1.23,-1.22
73.64,-1.82,-0.58,-1.93,-0.68,0.68,0.27,0.67,-1.14,-1.24,-1.24
74.38,-1.88,-0.63,-1.97,-0.71,0.71,0.27,0.66,-1.17,-1.26,-1.25
75.12,-2.00,-0.72,-2.01,-0.73,0.73,0.26,0.66,-1.27,-1.28,-1.28
75.87,-2.04,-0.75,-2.06,-0.77,0.77,0.26,0.65,-1.28,-1.29,-1.29
76.63,-2.16,-0.85,-2.10,-0.80,0.80,0.25,0.65,-1.36,-1.31,-1.31
77.40,-2.25,-0.93,-2.15,-0.83,0.83,0.25,0.65,-1.42,-1.32,-1.32
78.17,-2.28,-0.94,-2.19,-0.87,0.87,0.24,0.64,-1.41,-1.33,-1.34
78.95,-2.28,-0.94,-2.25,-0.91,0.91,0.24,0.64,-1.37,-1.33,-1.34
79.74,-2.28,-0.94,-2.30,-0.96,0.96,0.23,0.64,-1.32,-1.34,-1.34
80.54,-2.28,-0.93,-2.35,-1.01,1.01,0.23,0.64,-1.27,-1.34,-1.35
81.35,-2.28,-0.93,-2.40,-1.06,1.06,0.22,0.63,-1.22,-1.34,-1.35
82.16,-2.33,-0.99,-2.43,-1.10,1.10,0.22,0.63,-1.23,-1.33,-1.34
82.98,-2.51,-1.19,-2.45,-1.13,1.13,0.21,0.63,-1.38,-1.32,-1.32
83.81,-2.51,-1.20,-2.46,-1.15,1.15,0.21,0.63,-1.36,-1.31,-1.31
84.65,-2.51,-1.20,-2.47,-1.17,1.17,0.21,0.63,-1.34,-1.29,-1.31
85.50,-2.51,-1.23,-2.46,-1.19,1.19,0.20,0.63,-1.32,-1.28,-1.28
86.35,-2.51,-1.25,-2.46,-1.20,1.20,0.20,0.63,-1.31,-1.26,-1.26
87.22,-2.51,-1.26,-2.45,-1.21,1.21,0.19,0.63,-1.30,-1.24,-1.25
88.09,-2.51,-1.28,-2.44,-1.22,1.22,0.19,0.64,-1.29,-1.23,-1.23
88.97,-2.51,-1.31,-2.43,-1.22,1.22,0.19,0.64,-1.29,-1.21,-1.20
89.86,-2.35,-1.17,-2.41,-1.22,1.22,0.18,0.64,-1.13,-1.19,-1.18
90.76,-2.29,-1.11,-2.39,-1.21,1.21,0.18,0.64,-1.08,-1.18,-1.18
91.66,-2.28,-1.12,-2.36,-1.19,1.19,0.17,0.65,-1.09,-1.17,-1.16
92.58,-2.28,-1.12,-2.33,-1.17,1.17,0.17,0.65,-1.11,-1.16,-1.16
93.51,-2.28,-1.14,-2.31,-1.16,1.16,0.17,0.66,-1.12,-1.15,-1.14
94.44,-2.28,-1.14,-2.29,-1.14,1.14,0.16,0.66,-1.14,-1.14,-1.14
95.39,-2.28,-1.14,-2.27,-1.12,1.12,0.16,0.67,-1.16,-1.14,-1.14
96.34,-2.28,-1.13,-2.25,-1.11,1.11,0.16,0.67,-1.17,-1.14,-1.15
97.30,-2.28,-1.13,-2.25,-1.10,1.10,0.15,0.68,-1.18,-1.15,-1.15
98.28,-2.28,-1.12,-2.25,-1.10,1.10,0.15,0.69,-1.18,-1.15,-1.16
99.26,-2.28,-1.11,-2.26,-1.10,1.10,0.15,0.69,-1.18,-1.17,-1.17
100.25,-2.28,-1.10,-2.28,-1.10,1.10,0.14,0.70,-1.18,-1.18,-1.18
101.25,-2.28,-1.08,-2.30,-1.11,1.11,0.14,0.71,-1.17,-1.20,-1.20
102.27,-2.28,-1.06,-2.32,-1.10,1.10,0.14,0.72,-1.18,-1.22,-1.22
103.29,-2.28,-1.03,-2.34,-1.10,1.10,0.13,0.72,-1.18,-1.25,-1.25
104.32,-2.28,-1.01,-2.36,-1.09,1.09,0.13,0.73,-1.19,-1.28,-1.27
105.37,-2.34,-1.04,-2.39,-1.07,1.07,0.13,0.74,-1.27,-1.31,-1.30
106.42,-2.47,-1.14,-2.41,-1.06,1.06,0.13,0.75,-1.41,-1.35,-1.33
107.48,-2.51,-1.13,-2.43,-1.04,1.04,0.12,0.76,-1.47,-1.40,-1.38
108.56,-2.51,-1.07,-2.45,-1.01,1.01,0.12,0.77,-1.50,-1.44,-1.44
109.64,-2.51,-1.02,-2.46,-0.97,0.97,0.12,0.78,-1.54,-1.49,-1.49
110.74,-2.51,-0.97,-2.47,-0.93,0.93,0.12,0.78,-1.58,-1.55,-1.54
111.85,-2.51,-0.92,-2.49,-0.88,0.88,0.11,0.79,-1.63,-1.60,-1.59
112.97,-2.51,-0.85,-2.50,-0.84,0.84,0.11,0.80,-1.67,-1.66,-1.66
114.10,-2.51,-0.80,-2.52,-0.81,0.81,0.11,0.81,-1.70,-1.71,-1.71
115.24,-2.51,-0.74,-2.53,-0.77,0.77,0.10,0.82,-1.74,-1.76,-1.77
116.39,-2.51,-0.69,-2.54,-0.73,0.73,0.10,0.82,-1.78,-1.81,-1.82
117.55,-2.51,-0.64,-2.55,-0.70,0.70,0.10,0.83,-1.81,-1.85,-1.87
118.73,-2.51,-0.59,-2.57,-0.67,0.67,0.10,0.84,-1.84,-1.90,-1.92
119.92,-2.51,-0.56,-2.58,-0.65,0.65,0.10,0.84,-1.86,-1.93,-1.95
121.12,-2.52,-0.54,-2.59,-0.63,0.63,0.09,0.85,-1.89,-1.96,-1.98
122.33,-2.66,-0.65,-2.61,-0.62,0.62,0.09,0.85,-2.04,-1.99,-2.01
123.55,-2.74,-0.73,-2.64,-0.62,0.62,0.09,0.86,-2.12,-2.02,-2.01
124.79,-2.74,-0.70,-2.66,-0.62,0.62,0.09,0.86,-2.12,-2.04,-2.04
126.03,-2.74,-0.68,-2.70,-0.63,0.63,0.08,0.86,-2.11,-2.06,-2.06
127.29,-2.74,-0.67,-2.73,-0.65,0.65,0.08,0.87,-2.09,-2.08,-2.07
128.57,-2.74,-0.65,-2.76,-0.66,0.66,0.08,0.87,-2.08,-2.10,-2.09
129.85,-2.74,-0.63,-2.79,-0.68,0.68,0.08,0.87,-2.06,-2.11,-2.11
131.15,-2.74,-0.62,-2.82,-0.69,0.69,0.08,0.87,-2.05,-2.13,-2.12
132.46,-2.74,-0.60,-2.84,-0.70,0.70,0.07,0.87,-2.04,-2.15,-2.14
133.79,-2.87,-0.71,-2.86,-0.70,0.70,0.07,0.87,-2.17,-2.16,-2.16
135.12,-2.96,-0.77,-2.87,-0.69,0.69,0.07,0.87,-2.27,-2.18,-2.19
136.48,-2.96,-0.76,-2.88,-0.68,0.68,0.07,0.87,-2.28,-2.20,-2.20
137.84,-2.96,-0.74,-2.90,-0.68,0.68,0.07,0.87,-2.28,-2.22,-2.22
139.22,-2.96,-0.70,-2.93,-0.69,0.69,0.06,0.87,-2.27,-2.24,-2.26
140.61,-2.96,-0.67,-2.95,-0.69,0.69,0.06,0.87,-2.27,-2.27,-2.29
142.02,-2.96,-0.66,-2.97,-0.68,0.68,0.06,0.87,-2.28,-2.29,-2.30
143.44,-2.96,-0.64,-2.99,-0.66,0.66,0.06,0.87,-2.30,-2.33,-2.32
144.87,-2.96,-0.61,-3.01,-0.64,0.64,0.06,0.87,-2.32,-2.36,-2.35
146.32,-2.96,-0.57,-3.03,-0.62,0.62,0.06,0.87,-2.34,-2.40,-2.39
147.78,-3.01,-0.60,-3.05,-0.60,0.60,0.05,0.87,-2.41,-2.45,-2.41
149.26,-3.13,-0.66,-3.07,-0.57,0.57,0.05,0.87,-2.56,-2.50,-2.47
150.75,-3.19,-0.66,-3.11,-0.55,0.55,0.05,0.87,-2.64,-2.55,-2.53
152.26,-3.19,-0.60,-3.16,-0.55,0.55,0.05,0.87,-2.64,-2.61,-2.59
153.78,-3.19,-0.54,-3.22,-0.55,0.55,0.05,0.87,-2.64,-2.67,-2.65
155.32,-3.19,-0.45,-3.28,-0.55,0.55,0.05,0.87,-2.64,-2.73,-2.74
156.88,-3.21,-0.41,-3.35,-0.56,0.56,0.04,0.88,-2.65,-2.79,-2.80
158.44,-3.36,-0.50,-3.42,-0.57,0.57,0.04,0.88,-2.79,-2.85,-2.86
160.03,-3.48,-0.56,-3.49,-0.59,0.59,0.04,0.88,-2.89,-2.90,-2.92
161.63,-3.62,-0.65,-3.56,-0.61,0.61,0.04,0.89,-3.01,-2.95,-2.97
163.24,-3.65,-0.64,-3.62,-0.63,0.63,0.04,0.89,-3.02,-2.99,-3.01
164.88,-3.65,-0.61,-3.67,-0.65,0.65,0.04,0.90,-3.00,-3.02,-3.04
166.53,-3.82,-0.75,-3.72,-0.67,0.67,0.03,0.90,-3.15,-3.05,-3.07
168.19,-3.87,-0.78,-3.76,-0.70,0.70,0.03,0.91,-3.17,-3.07,-3.09
169.87,-3.87,-0.77,-3.80,-0.72,0.72,0.03,0.92,-3.15,-3.07,-3.10
171.57,-3.87,-0.77,-3.83,-0.76,0.76,0.03,0.92,-3.11,-3.08,-3.10
173.29,-3.87,-0.79,-3.86,-0.79,0.79,0.03,0.93,-3.08,-3.07,-3.08
175.02,-3.87,-0.81,-3.88,-0.81,0.81,0.03,0.94,-3.06,-3.07,-3.06
176.77,-3.87,-0.81,-3.90,-0.83,0.83,0.03,0.95,-3.04,-3.06,-3.06
178.54,-3.87,-0.83,-3.90,-0.85,0.85,0.02,0.96,-3.02,-3.05,-3.04
180.32,-3.87,-0.84,-3.91,-0.86,0.86,0.02,0.98,-3.01,-3.04,-3.03
182.13,-3.87,-0.86,-3.92,-0.88,0.88,0.02,0.99,-2.99,-3.04,-3.01
183.95,-3.87,-0.86,-3.93,-0.90,0.90,0.02,1.00,-2.97,-3.03,-3.01
185.79,-3.87,-0.86,-3.94,-0.91,0.91,0.02,1.02,-2.96,-3.03,-3.01
187.65,-4.04,-1.02,-3.97,-0.94,0.94,0.02,1.03,-3.10,-3.03,-3.02
189.52,-4.10,-1.06,-4.02,-0.98,0.98,0.02,1.05,-3.12,-3.03,-3.04
191.42,-4.10,-1.05,-4.06,-1.02,1.02,0.01,1.06,-3.08,-3.04,-3.05
193.33,-4.10,-1.04,-4.11,-1.06,1.06,0.01,1.08,-3.04,-3.05,-3.06
195.27,-4.10,-1.04,-4.17,-1.10,1.10,0.01,1.10,-3.00,-3.06,-3.06
197.22,-4.10,-1.03,-4.22,-1.15,1.15,0.01,1.11,-2.95,-3.08,-3.07
199.19,-4.24,-1.14,-4.28,-1.19,1.19,0.01,1.13,-3.05,-3.09,-3.10
201.18,-4.33,-1.23,-4.33,-1.23,1.23,0.01,1.15,-3.10,-3.10,-3.10
203.19,-4.38,-1.27,-4.38,-1.27,1.27,0.01,1.17,-3.11,-3.12,-3.11
205.23,-4.50,-1.37,-4.43,-1.30,1.30,0.00,1.19,-3.20,-3.13,-3.13
207.28,-4.56,-1.43,-4.46,-1.32,1.32,0.00,1.20,-3.24,-3.14,-3.13
209.35,-4.56,-1.41,-4.49,-1.34,1.34,0.00,1.22,-3.22,-3.15,-3.15
211.44,-4.56,-1.39,-4.53,-1.37,1.37,0.00,1.24,-3.19,-3.16,-3.17
213.56,-4.56,-1.39,-4.57,-1.39,1.39,-0.00,1.26,-3.17,-3.17,-3.17
215.69,-4.56,-1.39,-4.59,-1.41,1.41,-0.00,1.28,-3.15,-3.18,-3.17
217.85,-4.56,-1.37,-4.60,-1.41,1.41,-0.00,1.29,-3.15,-3.19,-3.19
220.03,-4.56,-1.37,-4.59,-1.40,1.40,-0.00,1.31,-3.16,-3.20,-3.19
222.23,-4.56,-1.35,-4.57,-1.37,1.37,-0.01,1.32,-3.19,-3.20,-3.21
224.45,-4.56,-1.35,-4.55,-1.35,1.35,-0.01,1.33,-3.21,-3.21,-3.21
226.70,-4.56,-1.35,-4.53,-1.32,1.32,-0.01,1.35,-3.24,-3.21,-3.21
228.96,-4.56,-1.35,-4.50,-1.29,1.29,-0.01,1.36,-3.27,-3.21,-3.21
231.25,-4.56,-1.35,-4.48,-1.27,1.27,-0.01,1.37,-3.29,-3.22,-3.21
233.57,-4.53,-1.31,-4.47,-1.26,1.26,-0.01,1.37,-3.27,-3.21,-3.22
235.90,-4.34,-1.12,-4.45,-1.24,1.24,-0.01,1.38,-3.10,-3.21,-3.22
238.26,-4.33,-1.11,-4.43,-1.22,1.22,-0.02,1.38,-3.11,-3.21,-3.22
240.64,-4.33,-1.12,-4.40,-1.19,1.19,-0.02,1.38,-3.14,-3.21,-3.21
243.05,-4.33,-1.13,-4.37,-1.17,1.17,-0.02,1.38,-3.16,-3.20,-3.20
245.48,-4.33,-1.14,-4.33,-1.14,1.14,-0.02,1.37,-3.19,-3.19,-3.19
247.93,-4.33,-1.15,-4.31,-1.12,1.12,-0.02,1.37,-3.21,-3.19,-3.18
250.41,-4.33,-1.15,-4.29,-1.11,1.11,-0.02,1.36,-3.22,-3.18,-3.18
252.92,-4.33,-1.16,-4.26,-1.09,1.09,-0.02,1.35,-3.24,-3.17,-3.17
255.45,-4.33,-1.19,-4.23,-1.08,1.08,-0.03,1.33,-3.25,-3.16,-3.14
258.00,-4.19,-1.05,-4.21,-1.06,1.06,-0.03,1.32,-3.13,-3.14,-3.14
260.58,-4.10,-0.97,-4.18,-1.05,1.05,-0.03,1.30,-3.05,-3.13,-3.13
263.19,-4.10,-0.99,-4.15,-1.04,1.04,-0.03,1.28,-3.06,-3.11,-3.11
265.82,-4.10,-0.99,-4.12,-1.02,1.02,-0.03,1.25,-3.08,-3.10,-3.11
268.48,-4.10,-1.02,-4.09,-1.01,1.01,-0.03,1.23,-3.09,-3.08,-3.08
271.16,-4.10,-1.03,-4.06,-1.00,1.00,-0.03,1.20,-3.10,-3.06,-3.07
273.87,-4.10,-1.05,-4.02,-0.99,0.99,-0.04,1.17,-3.11,-3.04,-3.05
276.61,-3.97,-0.96,-3.99,-0.97,0.97,-0.04,1.14,-3.00,-3.01,-3.01
279.38,-3.89,-0.90,-3.95,-0.96,0.96,-0.04,1.10,-2.93,-2.99,-2.99
282.17,-3.87,-0.90,-3.92,-0.95,0.95,-0.04,1.07,-2.92,-2.96,-2.97
284.99,-3.87,-0.93,-3.90,-0.96,0.96,-0.04,1.03,-2.91,-2.94,-2.94
287.84,-3.87,-0.96,-3.88,-0.97,0.97,-0.04,1.00,-2.90,-2.91,-2.91
290.72,-3.87,-0.99,-3.85,-0.97,0.97,-0.05,0.96,-2.90,-2.88,-2.88
293.63,-3.87,-1.02,-3.81,-0.96,0.96,-0.05,0.92,-2.91,-2.85,-2.85
296.57,-3.87,-1.05,-3.77,-0.95,0.95,-0.05,0.88,-2.92,-2.82,-2.82
299.53,-3.70,-0.91,-3.74,-0.94,0.94,-0.05,0.83,-2.76,-2.80,-2.79
302.53,-3.65,-0.87,-3.71,-0.93,0.93,-0.05,0.79,-2.72,-2.77,-2.78
305.55,-3.65,-0.91,-3.68,-0.93,0.93,-0.05,0.75,-2.72,-2.75,-2.74
308.61,-3.65,-0.93,-3.65,-0.92,0.92,-0.06,0.71,-2.73,-2.73,-2.72
311.69,-3.65,-0.95,-3.62,-0.90,0.90,-0.06,0.66,-2.75,-2.72,-2.70
314.81,-3.65,-0.98,-3.57,-0.87,0.87,-0.06,0.62,-2.78,-2.70,-2.67
317.96,-3.50,-0.82,-3.53,-0.85,0.85,-0.06,0.58,-2.65,-2.69,-2.68
321.14,-3.42,-0.74,-3.50,-0.82,0.82,-0.06,0.53,-2.60,-2.68,-2.68
324.35,-3.42,-0.75,-3.46,-0.79,0.79,-0.06,0.49,-2.63,-2.67,-2.67
327.59,-3.42,-0.76,-3.42,-0.77,0.77,-0.07,0.45,-2.65,-2.65,-2.66
330.87,-3.42,-0.77,-3.39,-0.75,0.75,-0.07,0.40,-2.67,-2.64,-2.65
334.18,-3.42,-0.78,-3.36,-0.72,0.72,-0.07,0.36,-2.70,-2.63,-2.64
337.52,-3.29,-0.65,-3.31,-0.69,0.69,-0.07,0.31,-2.60,-2.62,-2.64
340.90,-3.21,-0.60,-3.26,-0.66,0.66,-0.07,0.27,-2.55,-2.61,-2.61
344.30,-3.19,-0.59,-3.21,-0.62,0.62,-0.08,0.23,-2.57,-2.59,-2.60
347.75,-3.19,-0.61,-3.16,-0.58,0.58,-0.08,0.18,-2.61,-2.57,-2.58
351.23,-3.19,-0.64,-3.10,-0.55,0.55,-0.08,0.14,-2.64,-2.55,-2.55
354.74,-3.09,-0.56,-3.05,-0.52,0.52,-0.08,0.09,-2.57,-2.53,-2.53
358.28,-2.98,-0.48,-2.99,-0.49,0.49,-0.09,0.05,-2.49,-2.50,-2.50
361.87,-2.96,-0.48,-2.93,-0.45,0.45,-0.09,0.01,-2.51,-2.48,-2.48
365.49,-2.80,-0.34,-2.87,-0.41,0.41,-0.09,-0.04,-2.39,-2.46,-2.46
369.14,-2.75,-0.31,-2.80,-0.37,0.37,-0.09,-0.08,-2.38,-2.43,-2.44
372.83,-2.74,-0.33,-2.73,-0.32,0.32,-0.09,-0.12,-2.42,-2.41,-2.41
376.56,-2.68,-0.29,-2.67,-0.28,0.28,-0.10,-0.17,-2.40,-2.39,-2.39
380.33,-2.54,-0.18,-2.59,-0.22,0.22,-0.10,-0.21,-2.32,-2.37,-2.36
384.13,-2.51,-0.17,-2.53,-0.17,0.17,-0.10,-0.25,-2.34,-2.35,-2.34
387.97,-2.51,-0.18,-2.46,-0.12,0.12,-0.10,-0.29,-2.39,-2.34,-2.33
391.85,-2.50,-0.18,-2.40,-0.08,0.08,-0.11,-0.34,-2.42,-2.32,-2.32
395.77,-2.34,-0.03,-2.35,-0.04,0.04,-0.11,-0.38,-2.30,-2.31,-2.31
399.73,-2.28,0.02,-2.29,0.01,-0.01,-0.11,-0.42,-2.29,-2.30,-2.30
403.72,-2.19,0.10,-2.23,0.07,-0.07,-0.11,-0.46,-2.26,-2.29,-2.29
407.76,-2.08,0.21,-2.18,0.11,-0.11,-0.12,-0.50,-2.19,-2.29,-2.29
411.84,-2.05,0.23,-2.11,0.17,-0.17,-0.12,-0.54,-2.22,-2.28,-2.28
415.96,-2.05,0.22,-2.05,0.22,-0.22,-0.12,-0.58,-2.27,-2.28,-2.27
420.12,-2.05,0.22,-2.00,0.28,-0.28,-0.13,-0.62,-2.33,-2.27,-2.27
424.32,-2.03,0.24,-1.94,0.33,-0.33,-0.13,-0.66,-2.36,-2.27,-2.27
428.56,-1.88,0.39,-1.86,0.40,-0.40,-0.13,-0.70,-2.28,-2.27,-2.27
432.85,-1.82,0.45,-1.80,0.47,-0.47,-0.13,-0.74,-2.29,-2.26,-2.27
437.18,-1.72,0.54,-1.73,0.53,-0.53,-0.14,-0.77,-2.25,-2.26,-2.26
441.55,-1.63,0.62,-1.67,0.59,-0.59,-0.14,-0.81,-2.22,-2.25,-2.25
445.96,-1.60,0.65,-1.59,0.65,-0.65,-0.14,-0.84,-2.25,-2.25,-2.25
450.42,-1.60,0.64,-1.52,0.72,-0.72,-0.15,-0.88,-2.32,-2.24,-2.24
454.93,-1.42,0.81,-1.44,0.79,-0.79,-0.15,-0.91,-2.21,-2.23,-2.23
459.48,-1.37,0.85,-1.36,0.85,-0.85,-0.15,-0.94,-2.22,-2.21,-2.22
