frequency,raw,smoothed,error,error_smoothed,equalization,parametric_eq,fixed_band_eq,equalized_raw,equalized_smoothed,target
20.00,5.66,5.66,1.36,1.37,-1.35,-1.16,-0.51,4.31,4.31,4.30
20.20,5.65,5.65,1.35,1.35,-1.34,-1.19,-0.53,4.31,4.31,4.30
20.40,5.64,5.64,1.34,1.34,-1.34,-1.22,-0.54,4.30,4.30,4.30
20.61,5.63,5.63,1.33,1.33,-1.34,-1.25,-0.56,4.29,4.29,4.30
20.81,5.62,5.63,1.32,1.33,-1.34,-1.28,-0.58,4.28,4.29,4.30
21.02,5.62,5.62,1.32,1.33,-1.34,-1.31,-0.60,4.28,4.28,4.30
21.23,5.62,5.62,1.34,1.34,-1.34,-1.33,-0.61,4.28,4.28,4.28
21.44,5.62,5.62,1.35,1.35,-1.35,-1.36,-0.63,4.27,4.27,4.27
21.66,5.61,5.62,1.36,1.37,-1.36,-1.39,-0.65,4.25,4.25,4.25
21.87,5.61,5.61,1.39,1.38,-1.38,-1.42,-0.67,4.24,4.23,4.23
22.09,5.60,5.60,1.39,1.39,-1.39,-1.44,-0.69,4.21,4.21,4.22
22.31,5.59,5.59,1.41,1.40,-1.40,-1.47,-0.72,4.19,4.19,4.19
22.54,5.58,5.58,1.42,1.41,-1.42,-1.49,-0.74,4.17,4.16,4.17
22.76,5.56,5.57,1.42,1.43,-1.43,-1.51,-0.76,4.13,4.14,4.14
22.99,5.55,5.55,1.44,1.44,-1.44,-1.53,-0.78,4.11,4.11,4.11
23.22,5.54,5.54,1.46,1.45,-1.45,-1.55,-0.81,4.10,4.09,4.08
23.45,5.52,5.53,1.46,1.46,-1.45,-1.57,-0.83,4.07,4.07,4.06
23.69,5.51,5.51,1.46,1.46,-1.46,-1.58,-0.86,4.05,4.05,4.05
23.92,5.50,5.50,1.47,1.46,-1.47,-1.60,-0.88,4.04,4.03,4.03
24.16,5.48,5.49,1.46,1.47,-1.47,-1.61,-0.91,4.01,4.01,4.02
24.40,5.47,5.47,1.47,1.48,-1.48,-1.61,-0.93,3.99,3.99,4.00
24.65,5.46,5.46,1.48,1.48,-1.49,-1.62,-0.96,3.98,3.98,3.98
24.89,5.45,5.45,1.50,1.49,-1.49,-1.62,-0.99,3.96,3.96,3.96
25.14,5.44,5.44,1.50,1.50,-1.50,-1.62,-1.01,3.94,3.94,3.95
25.39,5.43,5.43,1.51,1.51,-1.51,-1.62,-1.04,3.93,3.93,3.93
25.65,5.42,5.42,1.51,1.52,-1.52,-1.62,-1.06,3.91,3.91,3.91
25.91,5.41,5.41,1.53,1.52,-1.52,-1.61,-1.09,3.89,3.89,3.88
26.16,5.40,5.40,1.53,1.53,-1.52,-1.60,-1.11,3.88,3.88,3.87
26.43,5.38,5.39,1.52,1.53,-1.53,-1.58,-1.14,3.86,3.86,3.86
26.69,5.37,5.37,1.53,1.53,-1.53,-1.57,-1.16,3.85,3.85,3.84
26.96,5.35,5.35,1.52,1.52,-1.52,-1.55,-1.19,3.83,3.83,3.83
27.23,5.33,5.33,1.52,1.52,-1.52,-1.53,-1.21,3.81,3.81,3.82
27.50,5.31,5.31,1.51,1.51,-1.52,-1.51,-1.23,3.80,3.80,3.81
27.77,5.29,5.29,1.51,1.50,-1.51,-1.48,-1.25,3.78,3.78,3.78
28.05,5.27,5.27,1.50,1.50,-1.50,-1.45,-1.27,3.77,3.77,3.77
28.33,5.24,5.25,1.49,1.49,-1.49,-1.42,-1.28,3.75,3.76,3.75
28.62,5.22,5.22,1.48,1.48,-1.47,-1.39,-1.30,3.75,3.75,3.74
28.90,5.19,5.19,1.46,1.46,-1.46,-1.36,-1.31,3.74,3.73,3.73
29.19,5.15,5.16,1.45,1.44,-1.44,-1.32,-1.32,3.71,3.72,3.71
29.48,5.11,5.12,1.41,1.41,-1.42,-1.29,-1.33,3.70,3.70,3.71
29.78,5.08,5.08,1.39,1.38,-1.39,-1.25,-1.34,3.69,3.69,3.69
30.08,5.03,5.04,1.35,1.36,-1.36,-1.21,-1.34,3.67,3.67,3.68
30.38,4.99,5.00,1.33,1.33,-1.33,-1.17,-1.34,3.66,3.66,3.66
30.68,4.95,4.95,1.31,1.31,-1.30,-1.13,-1.34,3.65,3.65,3.65
30.99,4.90,4.90,1.28,1.28,-1.27,-1.09,-1.33,3.63,3.63,3.63
31.30,4.85,4.85,1.24,1.24,-1.24,-1.05,-1.32,3.62,3.62,3.61
31.61,4.79,4.79,1.19,1.20,-1.20,-1.00,-1.31,3.59,3.60,3.60
31.93,4.73,4.73,1.15,1.16,-1.16,-0.96,-1.30,3.58,3.58,3.58
32.24,4.67,4.67,1.13,1.11,-1.11,-0.92,-1.28,3.56,3.56,3.55
32.57,4.60,4.60,1.07,1.07,-1.07,-0.87,-1.26,3.54,3.54,3.53
32.89,4.53,4.53,1.01,1.02,-1.02,-0.83,-1.24,3.51,3.52,3.52
33.22,4.46,4.46,0.97,0.96,-0.97,-0.79,-1.22,3.50,3.49,3.49
33.55,4.38,4.38,0.91,0.91,-0.91,-0.74,-1.19,3.47,3.47,3.48
33.89,4.30,4.30,0.85,0.85,-0.85,-0.70,-1.16,3.45,3.45,3.45
34.23,4.22,4.22,0.79,0.79,-0.79,-0.65,-1.13,3.43,3.43,3.43
34.57,4.14,4.14,0.74,0.73,-0.73,-0.60,-1.09,3.41,3.41,3.41
34.92,4.05,4.06,0.67,0.67,-0.67,-0.56,-1.06,3.38,3.39,3.38
35.27,3.97,3.97,0.60,0.61,-0.61,-0.51,-1.02,3.37,3.37,3.37
35.62,3.88,3.89,0.54,0.54,-0.54,-0.47,-0.98,3.34,3.35,3.35
35.97,3.80,3.80,0.48,0.47,-0.47,-0.42,-0.94,3.33,3.33,3.32
36.33,3.71,3.71,0.40,0.41,-0.41,-0.37,-0.89,3.31,3.31,3.31
36.70,3.62,3.62,0.34,0.34,-0.34,-0.32,-0.85,3.29,3.29,3.29
37.06,3.53,3.53,0.27,0.27,-0.27,-0.28,-0.80,3.26,3.27,3.26
37.43,3.44,3.44,0.19,0.20,-0.20,-0.23,-0.76,3.24,3.24,3.25
37.81,3.35,3.35,0.13,0.13,-0.13,-0.18,-0.71,3.23,3.22,3.22
38.19,3.25,3.26,0.06,0.05,-0.06,-0.13,-0.66,3.20,3.20,3.20
38.57,3.16,3.16,-0.02,-0.02,0.02,-0.08,-0.61,3.18,3.18,3.18
38.95,3.07,3.07,-0.09,-0.09,0.09,-0.03,-0.56,3.16,3.16,3.16
39.34,2.97,2.98,-0.16,-0.16,0.16,0.02,-0.51,3.13,3.14,3.13
39.74,2.88,2.88,-0.23,-0.23,0.23,0.07,-0.46,3.12,3.11,3.11
40.14,2.79,2.79,-0.31,-0.30,0.30,0.13,-0.41,3.10,3.10,3.10
40.54,2.70,2.71,-0.37,-0.37,0.37,0.18,-0.36,3.08,3.08,3.08
40.94,2.62,2.62,-0.44,-0.44,0.44,0.24,-0.31,3.06,3.06,3.06
41.35,2.53,2.53,-0.50,-0.51,0.51,0.29,-0.26,3.04,3.04,3.04
41.76,2.45,2.45,-0.58,-0.57,0.57,0.35,-0.21,3.03,3.03,3.03
42.18,2.37,2.37,-0.64,-0.64,0.64,0.41,-0.15,3.01,3.01,3.01
42.60,2.29,2.29,-0.69,-0.70,0.70,0.46,-0.10,2.99,2.99,2.99
43.03,2.22,2.22,-0.76,-0.75,0.75,0.52,-0.05,2.98,2.97,2.98
43.46,2.14,2.15,-0.81,-0.81,0.81,0.58,0.00,2.95,2.95,2.95
43.90,2.07,2.07,-0.85,-0.86,0.86,0.64,0.06,2.93,2.93,2.92
44.33,2.00,2.00,-0.90,-0.90,0.90,0.70,0.11,2.91,2.91,2.91
44.78,1.93,1.94,-0.96,-0.95,0.95,0.76,0.16,2.88,2.89,2.89
45.23,1.87,1.87,-0.99,-0.99,0.99,0.82,0.21,2.87,2.87,2.86
45.68,1.81,1.81,-1.03,-1.03,1.04,0.88,0.27,2.85,2.85,2.84
46.13,1.75,1.76,-1.07,-1.07,1.08,0.94,0.32,2.83,2.83,2.82
46.60,1.70,1.70,-1.11,-1.11,1.11,0.99,0.37,2.81,2.81,2.81
47.06,1.65,1.65,-1.14,-1.14,1.14,1.05,0.43,2.79,2.79,2.79
47.53,1.60,1.61,-1.17,-1.17,1.17,1.10,0.48,2.77,2.77,2.77
48.01,1.56,1.56,-1.20,-1.20,1.19,1.15,0.53,2.75,2.75,2.76
48.49,1.52,1.53,-1.21,-1.21,1.20,1.20,0.59,2.72,2.73,2.73
48.97,1.49,1.49,-1.21,-1.21,1.21,1.24,0.64,2.70,2.70,2.70
49.46,1.46,1.46,-1.21,-1.21,1.22,1.28,0.69,2.68,2.68,2.67
49.96,1.43,1.44,-1.21,-1.21,1.22,1.32,0.74,2.65,2.66,2.64
50.46,1.41,1.41,-1.22,-1.22,1.22,1.35,0.79,2.63,2.63,2.64
50.96,1.39,1.39,-1.22,-1.22,1.22,1.37,0.84,2.61,2.61,2.61
51.47,1.37,1.37,-1.21,-1.21,1.21,1.39,0.89,2.58,2.59,2.58
51.99,1.35,1.36,-1.20,-1.21,1.21,1.41,0.94,2.56,2.56,2.56
52.51,1.34,1.34,-1.20,-1.20,1.20,1.42,0.99,2.54,2.54,2.54
53.03,1.32,1.33,-1.20,-1.19,1.19,1.42,1.04,2.52,2.52,2.52
53.56,1.31,1.31,-1.18,-1.18,1.18,1.41,1.09,2.50,2.49,2.49
54.10,1.29,1.30,-1.18,-1.17,1.17,1.40,1.13,2.47,2.47,2.47
54.64,1.28,1.28,-1.16,-1.16,1.16,1.39,1.17,2.44,2.44,2.44
55.18,1.27,1.27,-1.14,-1.15,1.14,1.37,1.21,2.42,2.41,2.42
55.74,1.26,1.27,-1.13,-1.13,1.12,1.34,1.25,2.39,2.39,2.39
56.29,1.26,1.26,-1.11,-1.10,1.10,1.31,1.29,2.37,2.37,2.37
56.86,1.26,1.26,-1.08,-1.08,1.08,1.28,1.32,2.34,2.34,2.34
57.42,1.26,1.26,-1.05,-1.06,1.06,1.24,1.36,2.32,2.32,2.32
58.00,1.26,1.26,-1.03,-1.03,1.03,1.20,1.38,2.30,2.30,2.30
58.58,1.26,1.26,-1.00,-1.01,1.01,1.16,1.41,2.27,2.27,2.27
59.16,1.26,1.26,-0.98,-0.98,0.98,1.12,1.43,2.25,2.25,2.25
59.76,1.26,1.26,-0.96,-0.96,0.96,1.07,1.45,2.22,2.22,2.22
60.35,1.26,1.26,-0.93,-0.94,0.93,1.03,1.47,2.20,2.20,2.19
60.96,1.26,1.26,-0.92,-0.91,0.91,0.98,1.48,2.17,2.17,2.18
61.57,1.25,1.25,-0.88,-0.89,0.89,0.93,1.49,2.14,2.14,2.14
62.18,1.24,1.24,-0.86,-0.86,0.86,0.89,1.49,2.11,2.11,2.10
62.80,1.23,1.23,-0.85,-0.84,0.84,0.84,1.49,2.08,2.08,2.08
63.43,1.22,1.22,-0.82,-0.82,0.83,0.79,1.49,2.05,2.05,2.04
64.07,1.21,1.21,-0.80,-0.81,0.81,0.75,1.48,2.03,2.02,2.02
64.71,1.20,1.20,-0.80,-0.80,0.80,0.70,1.47,2.00,2.00,2.00
65.35,1.18,1.19,-0.79,-0.79,0.79,0.66,1.46,1.97,1.97,1.97
66.01,1.17,1.17,-0.78,-0.78,0.78,0.62,1.44,1.95,1.95,1.96
66.67,1.16,1.16,-0.76,-0.77,0.77,0.58,1.42,1.93,1.93,1.93
67.33,1.15,1.15,-0.75,-0.76,0.75,0.54,1.39,1.91,1.90,1.91
68.01,1.13,1.14,-0.74,-0.74,0.74,0.50,1.36,1.88,1.88,1.88
68.69,1.12,1.12,-0.73,-0.73,0.73,0.46,1.33,1.85,1.85,1.86
69.37,1.11,1.11,-0.71,-0.71,0.71,0.42,1.30,1.83,1.83,1.82
70.07,1.10,1.10,-0.70,-0.70,0.70,0.39,1.26,1.80,1.80,1.80
70.77,1.09,1.09,-0.68,-0.68,0.68,0.35,1.23,1.77,1.77,1.78
71.48,1.08,1.09,-0.66,-0.66,0.66,0.32,1.19,1.74,1.74,1.74
72.19,1.08,1.08,-0.63,-0.63,0.63,0.29,1.14,1.72,1.71,1.72
72.91,1.07,1.07,-0.61,-0.61,0.61,0.26,1.10,1.68,1.68,1.68
73.64,1.06,1.06,-0.58,-0.58,0.58,0.23,1.06,1.65,1.65,1.64
74.38,1.05,1.05,-0.56,-0.56,0.56,0.20,1.01,1.61,1.61,1.62
75.12,1.04,1.05,-0.52,-0.53,0.53,0.17,0.96,1.57,1.58,1.57
75.87,1.04,1.04,-0.50,-0.50,0.50,0.15,0.91,1.54,1.54,1.54
76.63,1.03,1.03,-0.48,-0.47,0.47,0.12,0.87,1.51,1.51,1.51
77.40,1.02,1.02,-0.44,-0.44,0.45,0.09,0.82,1.47,1.47,1.47
78.17,1.00,1.01,-0.41,-0.42,0.42,0.07,0.77,1.42,1.43,1.42
78.95,0.99,0.99,-0.40,-0.39,0.39,0.05,0.72,1.38,1.38,1.39
79.74,0.98,0.98,-0.37,-0.36,0.36,0.02,0.66,1.35,1.35,1.35
80.54,0.97,0.97,-0.33,-0.33,0.33,0.00,0.61,1.31,1.31,1.31
81.35,0.96,0.96,-0.30,-0.30,0.30,-0.02,0.56,1.27,1.26,1.26
82.16,0.94,0.95,-0.27,-0.27,0.27,-0.04,0.51,1.21,1.22,1.21
82.98,0.93,0.93,-0.25,-0.24,0.24,-0.06,0.46,1.17,1.17,1.18
83.81,0.92,0.92,-0.20,-0.21,0.21,-0.08,0.41,1.13,1.12,1.12
84.65,0.90,0.91,-0.17,-0.17,0.17,-0.10,0.36,1.08,1.08,1.07
85.50,0.89,0.89,-0.14,-0.14,0.14,-0.12,0.31,1.03,1.03,1.04
86.35,0.88,0.88,-0.10,-0.10,0.11,-0.14,0.26,0.99,0.99,0.99
87.22,0.86,0.87,-0.07,-0.07,0.07,-0.16,0.21,0.93,0.94,0.94
88.09,0.85,0.85,-0.03,-0.04,0.04,-0.17,0.16,0.89,0.89,0.89
88.97,0.83,0.83,-0.01,-0.01,0.00,-0.19,0.11,0.84,0.84,0.84
89.86,0.81,0.82,0.02,0.03,-0.03,-0.21,0.06,0.78,0.79,0.79
90.76,0.80,0.80,0.07,0.06,-0.06,-0.23,0.01,0.74,0.74,0.73
91.66,0.78,0.78,0.09,0.10,-0.09,-0.24,-0.04,0.69,0.69,0.69
92.58,0.76,0.76,0.14,0.13,-0.13,-0.26,-0.09,0.64,0.64,0.63
93.51,0.74,0.74,0.15,0.16,-0.16,-0.28,-0.14,0.59,0.59,0.59
94.44,0.72,0.72,0.19,0.18,-0.19,-0.29,-0.19,0.53,0.53,0.54
95.39,0.69,0.70,0.21,0.22,-0.22,-0.31,-0.24,0.47,0.48,0.48
96.34,0.67,0.67,0.25,0.25,-0.25,-0.33,-0.29,0.42,0.42,0.42
97.30,0.65,0.65,0.29,0.28,-0.28,-0.34,-0.34,0.37,0.36,0.36
98.28,0.62,0.62,0.32,0.32,-0.32,-0.36,-0.39,0.31,0.31,0.31
99.26,0.59,0.60,0.35,0.35,-0.35,-0.37,-0.44,0.24,0.25,0.24
100.25,0.57,0.57,0.39,0.38,-0.39,-0.39,-0.48,0.19,0.18,0.19
101.25,0.54,0.54,0.41,0.42,-0.42,-0.41,-0.53,0.12,0.12,0.13
102.27,0.52,0.52,0.46,0.46,-0.46,-0.42,-0.58,0.07,0.07,0.06
103.29,0.49,0.50,0.50,0.49,-0.49,-0.44,-0.62,0.00,0.00,-0.00
104.32,0.47,0.47,0.53,0.53,-0.53,-0.45,-0.67,-0.05,-0.06,-0.06
105.37,0.44,0.45,0.56,0.56,-0.56,-0.47,-0.71,-0.12,-0.12,-0.11
106.42,0.42,0.42,0.60,0.60,-0.60,-0.49,-0.76,-0.18,-0.18,-0.18
107.48,0.39,0.39,0.64,0.64,-0.64,-0.50,-0.80,-0.25,-0.25,-0.25
108.56,0.36,0.37,0.68,0.68,-0.68,-0.52,-0.85,-0.31,-0.31,-0.31
109.64,0.34,0.34,0.72,0.71,-0.72,-0.53,-0.89,-0.37,-0.38,-0.38
110.74,0.31,0.31,0.75,0.75,-0.76,-0.55,-0.93,-0.44,-0.44,-0.44
111.85,0.28,0.29,0.78,0.79,-0.80,-0.57,-0.97,-0.51,-0.51,-0.50
112.97,0.26,0.26,0.85,0.83,-0.84,-0.58,-1.01,-0.57,-0.58,-0.59
114.10,0.23,0.24,0.87,0.88,-0.88,-0.60,-1.04,-0.65,-0.64,-0.64
115.24,0.21,0.21,0.92,0.92,-0.92,-0.62,-1.08,-0.71,-0.71,-0.71
116.39,0.18,0.18,0.96,0.96,-0.96,-0.63,-1.11,-0.78,-0.78,-0.78
117.55,0.15,0.16,1.00,1.00,-1.00,-0.65,-1.15,-0.85,-0.84,-0.85
118.73,0.13,0.13,1.04,1.04,-1.04,-0.67,-1.18,-0.90,-0.91,-0.91
119.92,0.11,0.11,1.08,1.08,-1.07,-0.69,-1.21,-0.96,-0.96,-0.96
121.12,0.08,0.09,1.11,1.11,-1.11,-0.70,-1.23,-1.03,-1.02,-1.02
122.33,0.06,0.06,1.15,1.14,-1.14,-0.72,-1.26,-1.08,-1.08,-1.09
123.55,0.03,0.04,1.17,1.18,-1.18,-0.74,-1.28,-1.15,-1.14,-1.14
124.79,0.01,0.01,1.21,1.21,-1.21,-0.76,-1.30,-1.20,-1.20,-1.20
126.03,-0.01,-0.01,1.24,1.24,-1.25,-0.78,-1.33,-1.26,-1.26,-1.25
127.29,-0.04,-0.03,1.27,1.28,-1.28,-0.80,-1.34,-1.32,-1.32,-1.31
128.57,-0.06,-0.06,1.32,1.32,-1.32,-0.82,-1.36,-1.37,-1.37,-1.38
129.85,-0.08,-0.08,1.35,1.35,-1.35,-0.84,-1.37,-1.43,-1.43,-1.43
131.15,-0.10,-0.10,1.38,1.38,-1.38,-0.86,-1.39,-1.48,-1.48,-1.48
132.46,-0.12,-0.12,1.42,1.41,-1.41,-0.88,-1.40,-1.53,-1.53,-1.53
133.79,-0.14,-0.14,1.43,1.44,-1.44,-0.90,-1.41,-1.58,-1.58,-1.57
135.12,-0.16,-0.16,1.47,1.46,-1.46,-0.92,-1.42,-1.62,-1.62,-1.63
136.48,-0.18,-0.18,1.48,1.48,-1.49,-0.94,-1.43,-1.66,-1.66,-1.66
137.84,-0.20,-0.20,1.50,1.51,-1.51,-0.96,-1.43,-1.70,-1.70,-1.70
139.22,-0.22,-0.22,1.53,1.53,-1.53,-0.98,-1.44,-1.74,-1.74,-1.75
140.61,-0.24,-0.24,1.56,1.54,-1.54,-1.00,-1.44,-1.78,-1.78,-1.79
142.02,-0.26,-0.25,1.55,1.56,-1.56,-1.02,-1.45,-1.81,-1.81,-1.80
143.44,-0.27,-0.27,1.57,1.57,-1.57,-1.05,-1.45,-1.84,-1.84,-1.84
144.87,-0.29,-0.29,1.59,1.58,-1.59,-1.07,-1.45,-1.87,-1.87,-1.88
146.32,-0.31,-0.30,1.60,1.60,-1.60,-1.09,-1.46,-1.91,-1.90,-1.91
147.78,-0.32,-0.32,1.61,1.61,-1.61,-1.12,-1.46,-1.93,-1.93,-1.92
149.26,-0.33,-0.33,1.63,1.63,-1.63,-1.14,-1.46,-1.95,-1.96,-1.95
150.75,-0.35,-0.34,1.64,1.64,-1.64,-1.16,-1.47,-1.99,-1.98,-1.99
152.26,-0.36,-0.36,1.66,1.66,-1.66,-1.19,-1.47,-2.01,-2.01,-2.02
153.78,-0.37,-0.37,1.67,1.67,-1.68,-1.21,-1.47,-2.04,-2.04,-2.04
155.32,-0.38,-0.38,1.69,1.69,-1.69,-1.24,-1.48,-2.07,-2.07,-2.07
156.88,-0.39,-0.38,1.70,1.71,-1.71,-1.27,-1.49,-2.10,-2.10,-2.09
158.44,-0.39,-0.39,1.74,1.73,-1.73,-1.29,-1.49,-2.12,-2.12,-2.12
160.03,-0.40,-0.40,1.76,1.76,-1.75,-1.32,-1.50,-2.15,-2.15,-2.16
161.63,-0.41,-0.41,1.78,1.78,-1.77,-1.35,-1.51,-2.18,-2.18,-2.19
163.24,-0.42,-0.42,1.79,1.79,-1.79,-1.37,-1.51,-2.21,-2.21,-2.21
164.88,-0.43,-0.43,1.80,1.80,-1.81,-1.40,-1.53,-2.23,-2.23,-2.23
166.53,-0.44,-0.44,1.82,1.82,-1.82,-1.43,-1.54,-2.26,-2.26,-2.26
168.19,-0.45,-0.45,1.85,1.84,-1.84,-1.46,-1.55,-2.29,-2.29,-2.29
169.87,-0.46,-0.46,1.87,1.86,-1.86,-1.49,-1.56,-2.32,-2.32,-2.32
171.57,-0.48,-0.47,1.87,1.88,-1.88,-1.52,-1.58,-2.35,-2.35,-2.35
173.29,-0.49,-0.49,1.89,1.89,-1.90,-1.55,-1.59,-2.38,-2.38,-2.38
175.02,-0.50,-0.50,1.91,1.91,-1.92,-1.58,-1.61,-2.41,-2.42,-2.41
176.77,-0.52,-0.51,1.94,1.94,-1.94,-1.61,-1.63,-2.45,-2.45,-2.46
178.54,-0.53,-0.53,1.96,1.96,-1.96,-1.64,-1.65,-2.48,-2.48,-2.49
180.32,-0.55,-0.55,1.98,1.98,-1.97,-1.67,-1.67,-2.52,-2.52,-2.52
182.13,-0.57,-0.57,1.99,1.99,-1.99,-1.70,-1.69,-2.56,-2.56,-2.56
183.95,-0.59,-0.58,2.01,2.01,-2.01,-1.73,-1.71,-2.60,-2.59,-2.60
185.79,-0.60,-0.60,2.03,2.03,-2.03,-1.76,-1.74,-2.62,-2.63,-2.63
187.65,-0.62,-0.62,2.05,2.05,-2.04,-1.80,-1.76,-2.66,-2.66,-2.67
189.52,-0.64,-0.63,2.06,2.07,-2.06,-1.83,-1.79,-2.70,-2.69,-2.70
191.42,-0.65,-0.65,2.08,2.08,-2.08,-1.86,-1.82,-2.73,-2.73,-2.73
193.33,-0.66,-0.66,2.09,2.09,-2.10,-1.89,-1.85,-2.76,-2.76,-2.75
195.27,-0.67,-0.66,2.11,2.11,-2.12,-1.93,-1.88,-2.79,-2.79,-2.78
197.22,-0.67,-0.67,2.14,2.14,-2.15,-1.96,-1.91,-2.81,-2.81,-2.80
199.19,-0.67,-0.67,2.18,2.17,-2.17,-2.00,-1.94,-2.84,-2.84,-2.85
201.18,-0.67,-0.66,2.20,2.21,-2.20,-2.03,-1.97,-2.86,-2.86,-2.87
203.19,-0.66,-0.66,2.23,2.23,-2.22,-2.06,-2.00,-2.88,-2.88,-2.88
205.23,-0.66,-0.66,2.25,2.25,-2.25,-2.10,-2.04,-2.91,-2.91,-2.91
207.28,-0.66,-0.65,2.26,2.27,-2.27,-2.13,-2.07,-2.93,-2.93,-2.91
209.35,-0.65,-0.65,2.30,2.30,-2.30,-2.17,-2.11,-2.94,-2.95,-2.95
211.44,-0.65,-0.64,2.33,2.32,-2.32,-2.20,-2.14,-2.97,-2.96,-2.97
213.56,-0.64,-0.64,2.35,2.35,-2.34,-2.23,-2.17,-2.98,-2.98,-2.99
215.69,-0.64,-0.63,2.35,2.36,-2.36,-2.27,-2.21,-3.00,-3.00,-2.99
217.85,-0.63,-0.63,2.38,2.38,-2.38,-2.30,-2.24,-3.01,-3.01,-3.00
220.03,-0.63,-0.62,2.40,2.40,-2.40,-2.34,-2.28,-3.03,-3.02,-3.03
222.23,-0.62,-0.61,2.42,2.42,-2.42,-2.37,-2.31,-3.03,-3.03,-3.04
224.45,-0.60,-0.60,2.43,2.44,-2.43,-2.40,-2.34,-3.03,-3.03,-3.03
226.70,-0.59,-0.59,2.45,2.45,-2.45,-2.44,-2.37,-3.04,-3.04,-3.04
228.96,-0.57,-0.57,2.47,2.47,-2.47,-2.47,-2.40,-3.04,-3.04,-3.04
231.25,-0.55,-0.54,2.48,2.49,-2.49,-2.50,-2.42,-3.04,-3.04,-3.03
233.57,-0.52,-0.52,2.50,2.51,-2.51,-2.54,-2.45,-3.03,-3.03,-3.02
235.90,-0.49,-0.49,2.53,2.53,-2.54,-2.57,-2.47,-3.02,-3.02,-3.02
238.26,-0.46,-0.45,2.56,2.56,-2.56,-2.60,-2.49,-3.01,-3.01,-3.02
240.64,-0.42,-0.42,2.58,2.58,-2.58,-2.63,-2.51,-2.99,-3.00,-3.00
243.05,-0.39,-0.39,2.60,2.60,-2.59,-2.66,-2.52,-2.98,-2.98,-2.99
245.48,-0.36,-0.36,2.61,2.61,-2.61,-2.69,-2.54,-2.97,-2.96,-2.97
247.93,-0.33,-0.33,2.63,2.62,-2.62,-2.72,-2.55,-2.95,-2.95,-2.95
250.41,-0.31,-0.30,2.64,2.63,-2.63,-2.75,-2.56,-2.94,-2.93,-2.94
252.92,-0.28,-0.28,2.63,2.64,-2.64,-2.77,-2.56,-2.91,-2.91,-2.91
255.45,-0.25,-0.25,2.64,2.64,-2.64,-2.80,-2.56,-2.89,-2.89,-2.89
258.00,-0.23,-0.22,2.64,2.64,-2.65,-2.82,-2.57,-2.88,-2.87,-2.86
260.58,-0.20,-0.20,2.65,2.65,-2.65,-2.85,-2.56,-2.85,-2.85,-2.85
263.19,-0.17,-0.17,2.66,2.66,-2.66,-2.87,-2.56,-2.83,-2.83,-2.83
265.82,-0.13,-0.13,2.68,2.67,-2.67,-2.89,-2.55,-2.80,-2.80,-2.80
268.48,-0.10,-0.09,2.68,2.68,-2.69,-2.91,-2.54,-2.78,-2.78,-2.78
271.16,-0.06,-0.06,2.69,2.70,-2.70,-2.93,-2.53,-2.76,-2.75,-2.75
273.87,-0.02,-0.02,2.71,2.71,-2.71,-2.95,-2.52,-2.73,-2.73,-2.73
276.61,0.02,0.02,2.72,2.72,-2.72,-2.96,-2.51,-2.70,-2.70,-2.70
279.38,0.05,0.06,2.74,2.74,-2.73,-2.98,-2.49,-2.68,-2.68,-2.68
282.17,0.09,0.09,2.75,2.75,-2.74,-2.99,-2.48,-2.65,-2.65,-2.66
284.99,0.12,0.12,2.76,2.75,-2.75,-3.01,-2.46,-2.63,-2.63,-2.63
287.84,0.14,0.15,2.75,2.75,-2.75,-3.02,-2.44,-2.61,-2.60,-2.61
290.72,0.17,0.17,2.74,2.75,-2.75,-3.03,-2.43,-2.58,-2.58,-2.57
293.63,0.19,0.19,2.75,2.74,-2.74,-3.03,-2.41,-2.55,-2.55,-2.56
296.57,0.21,0.21,2.73,2.74,-2.73,-3.04,-2.39,-2.52,-2.52,-2.52
299.53,0.23,0.23,2.73,2.72,-2.72,-3.04,-2.38,-2.49,-2.49,-2.49
302.53,0.24,0.24,2.71,2.71,-2.70,-3.05,-2.36,-2.46,-2.46,-2.47
305.55,0.25,0.26,2.68,2.69,-2.68,-3.05,-2.34,-2.43,-2.43,-2.42
308.61,0.27,0.27,2.67,2.66,-2.66,-3.05,-2.33,-2.39,-2.39,-2.40
311.69,0.28,0.28,2.64,2.64,-2.64,-3.04,-2.31,-2.36,-2.36,-2.36
314.81,0.29,0.29,2.62,2.62,-2.62,-3.04,-2.30,-2.33,-2.33,-2.32
317.96,0.30,0.31,2.60,2.60,-2.60,-3.03,-2.29,-2.30,-2.30,-2.30
321.14,0.32,0.32,2.59,2.59,-2.59,-3.03,-2.27,-2.26,-2.27,-2.27
324.35,0.33,0.34,2.58,2.57,-2.58,-3.02,-2.27,-2.24,-2.24,-2.24
327.59,0.35,0.35,2.56,2.56,-2.57,-3.01,-2.26,-2.21,-2.21,-2.20
330.87,0.37,0.37,2.55,2.55,-2.56,-3.00,-2.25,-2.19,-2.19,-2.18
334.18,0.39,0.40,2.55,2.55,-2.55,-2.98,-2.24,-2.16,-2.16,-2.16
337.52,0.42,0.42,2.56,2.55,-2.55,-2.97,-2.24,-2.13,-2.13,-2.13
340.90,0.44,0.44,2.55,2.55,-2.55,-2.95,-2.24,-2.11,-2.11,-2.11
344.30,0.46,0.46,2.55,2.55,-2.55,-2.93,-2.24,-2.08,-2.08,-2.09
347.75,0.48,0.48,2.54,2.55,-2.55,-2.91,-2.24,-2.06,-2.06,-2.06
351.23,0.50,0.50,2.55,2.54,-2.54,-2.89,-2.24,-2.04,-2.04,-2.04
354.74,0.51,0.52,2.54,2.54,-2.54,-2.87,-2.25,-2.03,-2.02,-2.02
358.28,0.53,0.53,2.54,2.54,-2.54,-2.85,-2.26,-2.00,-2.01,-2.01
361.87,0.54,0.54,2.53,2.53,-2.53,-2.83,-2.26,-1.99,-1.99,-1.99
365.49,0.55,0.56,2.51,2.53,-2.53,-2.80,-2.28,-1.97,-1.97,-1.96
369.14,0.57,0.57,2.53,2.52,-2.52,-2.77,-2.29,-1.95,-1.95,-1.95
372.83,0.58,0.58,2.52,2.51,-2.51,-2.75,-2.30,-1.93,-1.93,-1.93
376.56,0.59,0.59,2.51,2.51,-2.51,-2.72,-2.32,-1.91,-1.91,-1.92
380.33,0.60,0.61,2.49,2.50,-2.50,-2.69,-2.33,-1.90,-1.89,-1.89
384.13,0.62,0.62,2.49,2.49,-2.49,-2.66,-2.35,-1.87,-1.87,-1.87
387.97,0.63,0.63,2.48,2.48,-2.48,-2.63,-2.37,-1.85,-1.85,-1.85
391.85,0.64,0.65,2.48,2.48,-2.48,-2.60,-2.39,-1.83,-1.83,-1.83
395.77,0.66,0.66,2.47,2.47,-2.47,-2.57,-2.42,-1.81,-1.81,-1.80
399.73,0.67,0.68,2.46,2.46,-2.46,-2.54,-2.44,-1.79,-1.79,-1.79
403.72,0.69,0.69,2.46,2.46,-2.45,-2.50,-2.46,-1.76,-1.76,-1.77
407.76,0.70,0.70,2.45,2.45,-2.45,-2.47,-2.49,-1.74,-1.74,-1.75
411.84,0.71,0.72,2.43,2.44,-2.44,-2.44,-2.51,-1.73,-1.72,-1.72
415.96,0.73,0.73,2.43,2.43,-2.43,-2.40,-2.54,-1.70,-1.70,-1.70
420.12,0.74,0.74,2.43,2.42,-2.43,-2.37,-2.57,-1.68,-1.68,-1.68
424.32,0.76,0.76,2.42,2.42,-2.42,-2.33,-2.59,-1.65,-1.66,-1.65
428.56,0.77,0.77,2.41,2.41,-2.41,-2.30,-2.62,-1.64,-1.64,-1.63
432.85,0.79,0.79,2.41,2.40,-2.40,-2.26,-2.64,-1.61,-1.61,-1.62
437.18,0.80,0.81,2.39,2.39,-2.39,-2.23,-2.67,-1.59,-1.59,-1.59
441.55,0.82,0.82,2.38,2.39,-2.38,-2.19,-2.69,-1.56,-1.56,-1.56
445.96,0.84,0.84,2.38,2.38,-2.38,-2.16,-2.71,-1.53,-1.54,-1.54
450.42,0.85,0.85,2.37,2.37,-2.36,-2.12,-2.73,-1.51,-1.51,-1.52
454.93,0.86,0.87,2.34,2.35,-2.35,-2.08,-2.75,-1.49,-1.48,-1.48
459.48,0.88,0.88,2.34,2.34,-2.34,-2.05,-2.76,-1.46,-1.46,-1.46
464.07,0.89,0.90,2.32,2.32,-2.32,-2.01,-2.78,-1.43,-1.43,-1.43
468.71,0.91,0.91,2.31,2.31,-2.31,-1.98,-2.79,-1.40,-1.40,-1.39
473.40,0.92,0.92,2.30,2.29,-2.30,-1.94,-2.80,-1.37,-1.37,-1.37
478.13,0.93,0.94,2.28,2.28,-2.28,-1.91,-2.80,-1.35,-1.34,-1.34
482.91,0.95,0.95,2.27,2.26,-2.27,-1.87,-2.80,-1.31,-1.32,-1.31
487.74,0.96,0.97,2.25,2.25,-2.25,-1.84,-2.80,-1.29,-1.29,-1.29
492.62,0.98,0.98,2.24,2.24,-2.24,-1.80,-2.79,-1.25,-1.26,-1.26
497.55,0.99,0.99,2.23,2.22,-2.22,-1.77,-2.78,-1.23,-1.23,-1.24
