frequency,raw,error,smoothed,error_smoothed,equalization,parametric_eq,fixed_band_eq,equalized_raw,equalized_smoothed,target
20.00,-19.18,-17.74,-19.18,-17.77,6.00,5.01,3.24,-13.18,-13.18,-1.43
20.20,-19.03,-17.68,-19.03,-17.69,6.00,5.06,3.33,-13.03,-13.03,-1.34
20.40,-18.87,-17.60,-18.87,-17.61,6.00,5.11,3.43,-12.87,-12.87,-1.26
20.61,-18.72,-17.53,-18.72,-17.53,6.00,5.15,3.52,-12.72,-12.72,-1.20
20.81,-18.56,-17.45,-18.56,-17.44,6.00,5.20,3.62,-12.56,-12.56,-1.10
21.02,-18.40,-17.37,-18.40,-17.35,6.00,5.25,3.73,-12.40,-12.40,-1.03
21.23,-18.25,-17.28,-18.25,-17.26,6.00,5.30,3.83,-12.25,-12.25,-0.97
21.44,-18.09,-17.18,-18.09,-17.16,6.00,5.35,3.94,-12.09,-12.09,-0.91
21.66,-17.93,-17.07,-17.93,-17.06,6.00,5.40,4.05,-11.93,-11.93,-0.86
21.87,-17.77,-16.96,-17.77,-16.96,6.00,5.44,4.16,-11.77,-11.77,-0.81
22.09,-17.61,-16.85,-17.61,-16.85,6.00,5.49,4.28,-11.61,-11.61,-0.76
22.31,-17.45,-16.74,-17.45,-16.74,6.00,5.54,4.40,-11.45,-11.45,-0.71
22.54,-17.29,-16.62,-17.29,-16.62,6.00,5.58,4.52,-11.29,-11.29,-0.67
22.76,-17.13,-16.50,-17.13,-16.50,6.00,5.63,4.65,-11.13,-11.13,-0.63
22.99,-16.97,-16.37,-16.96,-16.38,6.00,5.68,4.78,-10.97,-10.96,-0.60
23.22,-16.80,-16.24,-16.80,-16.25,6.00,5.72,4.91,-10.80,-10.80,-0.56
23.45,-16.64,-16.12,-16.63,-16.12,6.00,5.77,5.05,-10.64,-10.63,-0.52
23.69,-16.47,-15.99,-16.47,-16.00,6.00,5.81,5.19,-10.47,-10.47,-0.48
23.92,-16.30,-15.86,-16.30,-15.87,6.00,5.85,5.33,-10.30,-10.30,-0.44
24.16,-16.14,-15.75,-16.14,-15.73,6.00,5.90,5.47,-10.14,-10.14,-0.39
24.40,-15.97,-15.61,-15.97,-15.60,6.00,5.94,5.62,-9.97,-9.97,-0.36
24.65,-15.80,-15.47,-15.80,-15.47,6.00,5.98,5.77,-9.80,-9.80,-0.33
24.89,-15.63,-15.33,-15.63,-15.33,6.00,6.02,5.92,-9.63,-9.63,-0.30
25.14,-15.46,-15.20,-15.46,-15.20,6.00,6.06,6.07,-9.46,-9.46,-0.26
25.39,-15.29,-15.05,-15.29,-15.06,6.00,6.10,6.23,-9.29,-9.29,-0.23
25.65,-15.12,-14.93,-15.12,-14.92,6.00,6.14,6.38,-9.12,-9.12,-0.19
25.91,-14.95,-14.78,-14.95,-14.78,6.00,6.17,6.54,-8.95,-8.95,-0.17
26.16,-14.78,-14.63,-14.78,-14.64,6.00,6.21,6.70,-8.78,-8.78,-0.14
26.43,-14.61,-14.51,-14.60,-14.50,6.00,6.25,6.85,-8.61,-8.60,-0.11
26.69,-14.43,-14.35,-14.43,-14.36,6.00,6.28,7.01,-8.43,-8.43,-0.08
26.96,-14.26,-14.21,-14.26,-14.21,6.00,6.31,7.16,-8.26,-8.26,-0.05
27.23,-14.08,-14.07,-14.08,-14.07,6.00,6.34,7.31,-8.08,-8.08,-0.01
27.50,-13.91,-13.93,-13.91,-13.92,6.00,6.37,7.45,-7.91,-7.91,0.02
27.77,-13.73,-13.77,-13.73,-13.78,6.00,6.40,7.59,-7.73,-7.73,0.04
28.05,-13.56,-13.64,-13.56,-13.63,6.00,6.43,7.72,-7.56,-7.56,0.08
28.33,-13.38,-13.48,-13.38,-13.49,6.00,6.46,7.85,-7.38,-7.38,0.10
28.62,-13.21,-13.34,-13.21,-13.34,6.00,6.48,7.96,-7.21,-7.21,0.13
28.90,-13.03,-13.20,-13.03,-13.20,6.00,6.50,8.07,-7.03,-7.03,0.17
29.19,-12.85,-13.04,-12.85,-13.05,6.00,6.52,8.16,-6.85,-6.85,0.19
29.48,-12.67,-12.90,-12.67,-12.90,6.00,6.54,8.24,-6.67,-6.67,0.24
29.78,-12.49,-12.75,-12.49,-12.75,6.00,6.56,8.31,-6.49,-6.49,0.26
30.08,-12.32,-12.61,-12.31,-12.60,6.00,6.58,8.36,-6.32,-6.31,0.28
30.38,-12.14,-12.45,-12.13,-12.45,6.00,6.59,8.40,-6.14,-6.13,0.31
30.68,-11.96,-12.30,-11.96,-12.29,6.00,6.60,8.41,-5.96,-5.96,0.34
30.99,-11.78,-12.14,-11.78,-12.14,6.00,6.61,8.42,-5.78,-5.78,0.36
31.30,-11.60,-11.99,-11.60,-11.99,6.00,6.62,8.40,-5.60,-5.60,0.39
31.61,-11.41,-11.83,-11.42,-11.84,6.00,6.62,8.36,-5.41,-5.42,0.42
31.93,-11.23,-11.67,-11.24,-11.68,6.00,6.63,8.31,-5.23,-5.24,0.44
32.24,-11.06,-11.51,-11.06,-11.53,6.00,6.63,8.24,-5.06,-5.06,0.46
32.57,-10.88,-11.37,-10.89,-11.37,6.00,6.62,8.15,-4.88,-4.89,0.48
32.89,-10.71,-11.22,-10.71,-11.22,6.00,6.62,8.05,-4.71,-4.71,0.51
33.22,-10.53,-11.06,-10.53,-11.06,6.00,6.61,7.93,-4.53,-4.53,0.53
33.55,-10.36,-10.91,-10.35,-10.90,6.00,6.60,7.80,-4.36,-4.35,0.55
33.89,-10.19,-10.75,-10.18,-10.74,6.00,6.59,7.65,-4.19,-4.18,0.56
34.23,-10.01,-10.60,-10.00,-10.58,6.00,6.57,7.49,-4.01,-4.00,0.59
34.57,-9.83,-10.42,-9.82,-10.42,6.00,6.55,7.33,-3.83,-3.82,0.59
34.92,-9.64,-10.24,-9.65,-10.25,6.00,6.53,7.16,-3.64,-3.65,0.60
35.27,-9.47,-10.09,-9.47,-10.09,6.00,6.50,6.97,-3.47,-3.47,0.62
35.62,-9.29,-9.91,-9.29,-9.92,6.00,6.47,6.79,-3.29,-3.29,0.62
35.97,-9.11,-9.73,-9.12,-9.75,6.00,6.44,6.59,-3.11,-3.12,0.63
36.33,-8.94,-9.58,-8.94,-9.58,6.00,6.40,6.40,-2.94,-2.94,0.64
36.70,-8.76,-9.40,-8.76,-9.40,6.00,6.36,6.20,-2.76,-2.76,0.64
37.06,-8.59,-9.23,-8.58,-9.23,6.00,6.32,5.99,-2.59,-2.58,0.64
37.43,-8.41,-9.05,-8.41,-9.05,6.00,6.27,5.79,-2.41,-2.41,0.65
37.81,-8.23,-8.87,-8.23,-8.88,6.00,6.22,5.58,-2.23,-2.23,0.65
38.19,-8.05,-8.69,-8.06,-8.70,6.00,6.17,5.38,-2.05,-2.06,0.64
38.57,-7.88,-8.53,-7.88,-8.53,6.00,6.11,5.17,-1.88,-1.88,0.65
38.95,-7.71,-8.35,-7.71,-8.35,6.00,6.05,4.97,-1.71,-1.71,0.65
39.34,-7.53,-8.16,-7.53,-8.17,6.00,5.98,4.76,-1.53,-1.53,0.63
39.74,-7.36,-7.99,-7.35,-7.99,6.00,5.91,4.56,-1.36,-1.35,0.63
40.14,-7.18,-7.81,-7.18,-7.81,6.00,5.84,4.36,-1.18,-1.18,0.63
40.54,-7.00,-7.63,-7.00,-7.63,6.00,5.76,4.15,-1.00,-1.00,0.62
40.94,-6.83,-7.45,-6.82,-7.44,6.00,5.67,3.95,-0.83,-0.82,0.62
41.35,-6.64,-7.26,-6.64,-7.26,6.00,5.59,3.76,-0.64,-0.64,0.62
41.76,-6.46,-7.07,-6.46,-7.07,6.00,5.49,3.56,-0.46,-0.46,0.61
42.18,-6.28,-6.89,-6.28,-6.89,6.00,5.40,3.37,-0.28,-0.28,0.61
42.60,-6.10,-6.69,-6.10,-6.70,6.00,5.30,3.17,-0.10,-0.10,0.60
43.03,-5.92,-6.52,-5.91,-6.50,5.98,5.19,2.98,0.06,0.06,0.60
43.46,-5.73,-6.32,-5.73,-6.31,5.93,5.08,2.79,0.20,0.20,0.59
43.90,-5.54,-6.11,-5.54,-6.11,5.85,4.97,2.60,0.31,0.31,0.57
44.33,-5.35,-5.91,-5.35,-5.92,5.74,4.85,2.42,0.40,0.39,0.56
44.78,-5.16,-5.71,-5.16,-5.72,5.61,4.73,2.23,0.45,0.45,0.55
45.23,-4.97,-5.51,-4.97,-5.52,5.47,4.60,2.05,0.49,0.50,0.54
45.68,-4.78,-5.31,-4.77,-5.31,5.30,4.46,1.87,0.52,0.53,0.53
46.13,-4.58,-5.10,-4.57,-5.11,5.11,4.33,1.69,0.53,0.53,0.53
46.60,-4.37,-4.90,-4.37,-4.90,4.90,4.19,1.52,0.53,0.53,0.53
47.06,-4.16,-4.68,-4.17,-4.69,4.69,4.04,1.34,0.53,0.52,0.53
47.53,-3.96,-4.48,-3.96,-4.48,4.48,3.89,1.16,0.52,0.52,0.52
48.01,-3.76,-4.28,-3.75,-4.26,4.26,3.73,0.99,0.50,0.51,0.52
48.49,-3.54,-4.06,-3.54,-4.05,4.05,3.57,0.82,0.51,0.51,0.52
48.97,-3.32,-3.83,-3.33,-3.84,3.84,3.41,0.65,0.52,0.51,0.51
49.46,-3.11,-3.60,-3.11,-3.62,3.62,3.24,0.48,0.51,0.51,0.49
49.96,-2.89,-3.38,-2.89,-3.40,3.40,3.07,0.32,0.51,0.51,0.49
50.46,-2.67,-3.17,-2.67,-3.17,3.17,2.89,0.15,0.50,0.51,0.50
50.96,-2.45,-2.96,-2.44,-2.94,2.94,2.71,-0.01,0.50,0.51,0.51
51.47,-2.21,-2.71,-2.21,-2.71,2.71,2.52,-0.17,0.50,0.51,0.50
51.99,-1.98,-2.48,-1.97,-2.48,2.48,2.33,-0.32,0.50,0.51,0.50
52.51,-1.74,-2.26,-1.73,-2.24,2.24,2.13,-0.48,0.50,0.51,0.51
53.03,-1.50,-2.01,-1.49,-1.99,1.99,1.93,-0.63,0.50,0.51,0.51
53.56,-1.25,-1.76,-1.24,-1.75,1.75,1.73,-0.78,0.50,0.51,0.52
54.10,-0.99,-1.51,-0.99,-1.50,1.50,1.52,-0.92,0.51,0.51,0.52
54.64,-0.73,-1.24,-0.74,-1.24,1.24,1.31,-1.06,0.51,0.50,0.51
55.18,-0.47,-0.97,-0.48,-0.99,0.99,1.09,-1.20,0.52,0.50,0.51
55.74,-0.22,-0.72,-0.22,-0.72,0.72,0.88,-1.34,0.50,0.50,0.49
56.29,0.04,-0.45,0.04,-0.46,0.46,0.65,-1.46,0.50,0.49,0.49
56.86,0.29,-0.19,0.30,-0.19,0.19,0.43,-1.59,0.47,0.49,0.48
57.42,0.56,0.09,0.56,0.09,-0.09,0.19,-1.71,0.48,0.48,0.47
58.00,0.82,0.35,0.83,0.36,-0.36,-0.04,-1.82,0.46,0.47,0.47
58.58,1.08,0.63,1.09,0.64,-0.64,-0.27,-1.93,0.44,0.45,0.45
59.16,1.35,0.90,1.36,0.92,-0.92,-0.51,-2.03,0.43,0.44,0.45
59.76,1.62,1.18,1.62,1.20,-1.20,-0.76,-2.12,0.42,0.42,0.44
60.35,1.89,1.48,1.89,1.48,-1.48,-1.00,-2.21,0.41,0.41,0.41
60.96,2.15,1.74,2.15,1.76,-1.76,-1.24,-2.29,0.39,0.39,0.41
61.57,2.41,2.04,2.41,2.03,-2.03,-1.49,-2.36,0.37,0.38,0.37
62.18,2.67,2.32,2.67,2.31,-2.31,-1.74,-2.43,0.36,0.36,0.35
62.80,2.92,2.58,2.92,2.58,-2.58,-1.99,-2.49,0.35,0.35,0.34
63.43,3.17,2.86,3.17,2.84,-2.84,-2.23,-2.54,0.33,0.33,0.32
64.07,3.41,3.10,3.42,3.09,-3.09,-2.48,-2.59,0.32,0.32,0.31
64.71,3.65,3.35,3.65,3.34,-3.34,-2.73,-2.63,0.31,0.31,0.30
65.35,3.88,3.59,3.88,3.58,-3.58,-2.97,-2.66,0.31,0.30,0.29
66.01,4.10,3.80,4.10,3.80,-3.80,-3.21,-2.68,0.30,0.30,0.30
66.67,4.31,4.01,4.31,4.01,-4.01,-3.45,-2.70,0.30,0.30,0.30
67.33,4.52,4.23,4.51,4.21,-4.21,-3.68,-2.72,0.31,0.30,0.30
68.01,4.71,4.41,4.70,4.40,-4.40,-3.90,-2.73,0.31,0.30,0.30
68.69,4.89,4.59,4.88,4.58,-4.58,-4.12,-2.73,0.31,0.30,0.30
69.37,5.05,4.75,5.04,4.74,-4.74,-4.33,-2.74,0.31,0.30,0.30
70.07,5.20,4.90,5.20,4.89,-4.89,-4.53,-2.73,0.31,0.30,0.30
70.77,5.34,5.02,5.34,5.03,-5.03,-4.72,-2.73,0.31,0.31,0.32
71.48,5.47,5.15,5.46,5.15,-5.15,-4.90,-2.72,0.32,0.31,0.32
72.19,5.58,5.27,5.58,5.27,-5.27,-5.07,-2.71,0.31,0.31,0.31
72.91,5.69,5.37,5.68,5.37,-5.37,-5.22,-2.70,0.32,0.31,0.32
73.64,5.77,5.46,5.77,5.45,-5.45,-5.36,-2.68,0.32,0.31,0.31
74.38,5.84,5.52,5.84,5.53,-5.53,-5.48,-2.67,0.31,0.31,0.32
75.12,5.91,5.60,5.91,5.59,-5.59,-5.58,-2.65,0.32,0.31,0.31
75.87,5.96,5.64,5.96,5.64,-5.64,-5.67,-2.63,0.32,0.31,0.32
76.63,6.00,5.68,6.00,5.68,-5.68,-5.75,-2.62,0.32,0.32,0.32
77.40,6.02,5.71,6.03,5.71,-5.71,-5.80,-2.60,0.31,0.32,0.31
78.17,6.04,5.74,6.05,5.73,-5.73,-5.84,-2.58,0.31,0.32,0.30
78.95,6.06,5.74,6.05,5.73,-5.73,-5.86,-2.57,0.33,0.32,0.32
79.74,6.06,5.74,6.05,5.73,-5.73,-5.87,-2.55,0.33,0.33,0.33
80.54,6.04,5.72,6.04,5.71,-5.71,-5.86,-2.54,0.33,0.33,0.32
81.35,6.02,5.69,6.02,5.68,-5.68,-5.84,-2.53,0.34,0.34,0.33
82.16,5.98,5.64,5.99,5.64,-5.64,-5.81,-2.52,0.34,0.35,0.34
82.98,5.95,5.59,5.95,5.59,-5.59,-5.76,-2.51,0.36,0.36,0.36
83.81,5.90,5.53,5.90,5.53,-5.53,-5.70,-2.50,0.37,0.38,0.37
84.65,5.84,5.46,5.84,5.46,-5.46,-5.64,-2.50,0.39,0.39,0.38
85.50,5.78,5.38,5.78,5.38,-5.38,-5.56,-2.50,0.41,0.40,0.40
86.35,5.71,5.29,5.70,5.29,-5.29,-5.48,-2.50,0.42,0.41,0.42
87.22,5.64,5.22,5.62,5.19,-5.19,-5.38,-2.50,0.45,0.43,0.42
88.09,5.54,5.10,5.53,5.10,-5.10,-5.29,-2.50,0.44,0.44,0.44
88.97,5.44,4.99,5.44,5.00,-5.00,-5.19,-2.51,0.44,0.44,0.45
89.86,5.35,4.89,5.34,4.89,-4.89,-5.08,-2.51,0.46,0.45,0.46
90.76,5.23,4.78,5.24,4.79,-4.79,-4.97,-2.52,0.44,0.45,0.45
91.66,5.11,4.65,5.13,4.68,-4.68,-4.86,-2.54,0.43,0.45,0.46
92.58,5.00,4.56,5.01,4.57,-4.57,-4.75,-2.55,0.43,0.44,0.44
93.51,4.89,4.45,4.89,4.46,-4.46,-4.64,-2.57,0.43,0.43,0.44
94.44,4.78,4.36,4.77,4.36,-4.36,-4.53,-2.58,0.42,0.41,0.42
95.39,4.66,4.26,4.65,4.26,-4.26,-4.41,-2.60,0.40,0.39,0.41
96.34,4.55,4.17,4.53,4.16,-4.16,-4.30,-2.63,0.39,0.37,0.38
97.30,4.42,4.08,4.41,4.07,-4.07,-4.19,-2.65,0.35,0.34,0.34
98.28,4.28,3.97,4.29,3.99,-3.99,-4.07,-2.68,0.29,0.31,0.31
99.26,4.15,3.88,4.17,3.90,-3.90,-3.96,-2.70,0.25,0.27,0.27
100.25,4.02,3.79,4.05,3.82,-3.82,-3.85,-2.73,0.20,0.23,0.23
101.25,3.89,3.70,3.93,3.73,-3.73,-3.74,-2.76,0.16,0.20,0.19
102.27,3.77,3.62,3.81,3.65,-3.65,-3.64,-2.79,0.12,0.16,0.15
103.29,3.71,3.61,3.68,3.57,-3.57,-3.53,-2.82,0.14,0.11,0.10
104.32,3.62,3.55,3.56,3.49,-3.49,-3.43,-2.85,0.14,0.07,0.08
105.37,3.48,3.46,3.43,3.40,-3.40,-3.33,-2.88,0.08,0.03,0.03
106.42,3.34,3.35,3.31,3.32,-3.32,-3.23,-2.92,0.02,-0.01,-0.01
107.48,3.20,3.25,3.19,3.24,-3.24,-3.14,-2.95,-0.04,-0.05,-0.05
108.56,3.07,3.16,3.08,3.17,-3.17,-3.04,-2.98,-0.10,-0.09,-0.09
109.64,2.94,3.07,2.96,3.09,-3.09,-2.95,-3.01,-0.15,-0.13,-0.13
110.74,2.83,2.99,2.85,3.01,-3.01,-2.86,-3.04,-0.18,-0.16,-0.16
111.85,2.71,2.90,2.74,2.94,-2.94,-2.77,-3.06,-0.23,-0.20,-0.19
112.97,2.59,2.83,2.63,2.86,-2.86,-2.69,-3.09,-0.27,-0.23,-0.24
114.10,2.49,2.75,2.53,2.79,-2.79,-2.60,-3.11,-0.30,-0.26,-0.26
115.24,2.41,2.71,2.42,2.71,-2.71,-2.52,-3.13,-0.30,-0.29,-0.29
116.39,2.36,2.68,2.33,2.64,-2.64,-2.44,-3.15,-0.28,-0.31,-0.32
117.55,2.27,2.61,2.24,2.57,-2.57,-2.36,-3.16,-0.30,-0.33,-0.34
118.73,2.16,2.53,2.15,2.50,-2.50,-2.29,-3.17,-0.34,-0.35,-0.37
119.92,2.05,2.43,2.06,2.44,-2.44,-2.22,-3.18,-0.38,-0.37,-0.38
121.12,1.96,2.35,1.98,2.37,-2.37,-2.15,-3.18,-0.41,-0.39,-0.39
122.33,1.91,2.32,1.90,2.30,-2.30,-2.08,-3.18,-0.39,-0.41,-0.41
123.55,1.83,2.24,1.81,2.23,-2.23,-2.01,-3.18,-0.40,-0.42,-0.41
124.79,1.73,2.16,1.73,2.17,-2.17,-1.94,-3.17,-0.43,-0.43,-0.43
126.03,1.64,2.07,1.65,2.09,-2.09,-1.88,-3.16,-0.45,-0.44,-0.43
127.29,1.58,2.03,1.57,2.03,-2.03,-1.82,-3.14,-0.45,-0.46,-0.45
128.57,1.50,1.97,1.49,1.96,-1.96,-1.76,-3.11,-0.45,-0.47,-0.47
129.85,1.41,1.89,1.41,1.89,-1.89,-1.70,-3.09,-0.48,-0.48,-0.48
131.15,1.31,1.80,1.33,1.82,-1.82,-1.65,-3.06,-0.51,-0.49,-0.49
132.46,1.27,1.78,1.26,1.76,-1.76,-1.59,-3.02,-0.49,-0.51,-0.51
133.79,1.19,1.71,1.18,1.71,-1.71,-1.54,-2.98,-0.52,-0.52,-0.51
135.12,1.10,1.64,1.11,1.65,-1.65,-1.49,-2.94,-0.55,-0.54,-0.54
136.48,1.04,1.59,1.04,1.59,-1.59,-1.44,-2.90,-0.55,-0.55,-0.55
137.84,0.95,1.52,0.97,1.54,-1.54,-1.39,-2.85,-0.59,-0.57,-0.57
139.22,0.90,1.50,0.90,1.49,-1.49,-1.34,-2.80,-0.59,-0.59,-0.60
140.61,0.85,1.47,0.84,1.44,-1.44,-1.30,-2.75,-0.59,-0.61,-0.62
142.02,0.76,1.38,0.77,1.40,-1.40,-1.25,-2.69,-0.64,-0.63,-0.62
143.44,0.72,1.36,0.71,1.36,-1.36,-1.21,-2.63,-0.64,-0.65,-0.64
144.87,0.65,1.32,0.66,1.33,-1.33,-1.17,-2.58,-0.67,-0.67,-0.67
146.32,0.60,1.30,0.60,1.29,-1.29,-1.13,-2.52,-0.69,-0.69,-0.70
147.78,0.53,1.24,0.54,1.26,-1.26,-1.09,-2.46,-0.73,-0.72,-0.71
149.26,0.48,1.22,0.49,1.23,-1.23,-1.05,-2.39,-0.75,-0.74,-0.74
150.75,0.43,1.20,0.43,1.20,-1.20,-1.02,-2.33,-0.77,-0.77,-0.77
152.26,0.39,1.19,0.38,1.18,-1.18,-0.98,-2.27,-0.79,-0.80,-0.80
153.78,0.34,1.16,0.33,1.16,-1.16,-0.95,-2.21,-0.81,-0.83,-0.82
155.32,0.29,1.14,0.28,1.13,-1.13,-0.91,-2.15,-0.84,-0.86,-0.85
156.88,0.23,1.11,0.23,1.12,-1.12,-0.88,-2.08,-0.89,-0.89,-0.88
158.44,0.18,1.10,0.18,1.10,-1.10,-0.85,-2.02,-0.92,-0.92,-0.92
160.03,0.11,1.06,0.13,1.09,-1.09,-0.82,-1.96,-0.98,-0.95,-0.95
161.63,0.08,1.07,0.09,1.07,-1.07,-0.79,-1.90,-0.99,-0.98,-0.99
163.24,0.05,1.07,0.04,1.06,-1.06,-0.76,-1.84,-1.01,-1.02,-1.02
164.88,-0.01,1.04,-0.00,1.05,-1.05,-0.73,-1.78,-1.05,-1.05,-1.05
166.53,-0.05,1.03,-0.05,1.03,-1.03,-0.71,-1.73,-1.08,-1.08,-1.08
168.19,-0.08,1.03,-0.09,1.02,-1.02,-0.68,-1.67,-1.10,-1.11,-1.11
169.87,-0.13,1.01,-0.14,1.00,-1.00,-0.66,-1.61,-1.13,-1.14,-1.14
171.57,-0.16,1.01,-0.18,0.99,-0.99,-0.63,-1.56,-1.15,-1.17,-1.16
173.29,-0.20,0.99,-0.21,0.98,-0.98,-0.61,-1.51,-1.18,-1.19,-1.19
175.02,-0.26,0.96,-0.25,0.97,-0.97,-0.59,-1.45,-1.23,-1.22,-1.22
176.77,-0.30,0.95,-0.28,0.96,-0.96,-0.56,-1.40,-1.26,-1.24,-1.24
178.54,-0.33,0.94,-0.32,0.94,-0.94,-0.54,-1.35,-1.27,-1.26,-1.27
180.32,-0.36,0.93,-0.35,0.93,-0.93,-0.52,-1.30,-1.29,-1.28,-1.29
182.13,-0.39,0.91,-0.38,0.92,-0.92,-0.50,-1.26,-1.31,-1.30,-1.30
183.95,-0.42,0.90,-0.40,0.91,-0.91,-0.48,-1.21,-1.33,-1.31,-1.31
185.79,-0.44,0.89,-0.43,0.90,-0.90,-0.46,-1.16,-1.34,-1.33,-1.33
187.65,-0.45,0.89,-0.45,0.88,-0.88,-0.45,-1.12,-1.33,-1.34,-1.34
189.52,-0.47,0.88,-0.48,0.87,-0.87,-0.43,-1.07,-1.34,-1.35,-1.34
191.42,-0.49,0.87,-0.50,0.86,-0.86,-0.41,-1.03,-1.35,-1.36,-1.36
193.33,-0.52,0.84,-0.52,0.84,-0.84,-0.39,-0.99,-1.36,-1.36,-1.36
195.27,-0.54,0.82,-0.54,0.83,-0.83,-0.38,-0.95,-1.37,-1.37,-1.36
197.22,-0.56,0.81,-0.57,0.81,-0.81,-0.36,-0.91,-1.37,-1.38,-1.37
199.19,-0.58,0.81,-0.60,0.79,-0.79,-0.35,-0.87,-1.37,-1.38,-1.39
201.18,-0.60,0.79,-0.62,0.77,-0.77,-0.33,-0.84,-1.37,-1.39,-1.39
203.19,-0.63,0.76,-0.65,0.75,-0.75,-0.32,-0.80,-1.38,-1.40,-1.39
205.23,-0.67,0.73,-0.67,0.73,-0.73,-0.30,-0.76,-1.40,-1.40,-1.40
207.28,-0.71,0.69,-0.70,0.71,-0.71,-0.29,-0.73,-1.42,-1.41,-1.40
209.35,-0.74,0.67,-0.72,0.69,-0.69,-0.28,-0.69,-1.43,-1.42,-1.41
211.44,-0.77,0.66,-0.75,0.68,-0.68,-0.27,-0.66,-1.45,-1.42,-1.43
213.56,-0.80,0.63,-0.77,0.66,-0.66,-0.25,-0.63,-1.46,-1.43,-1.43
215.69,-0.81,0.62,-0.79,0.65,-0.65,-0.24,-0.60,-1.46,-1.44,-1.43
217.85,-0.82,0.63,-0.81,0.64,-0.64,-0.23,-0.56,-1.46,-1.44,-1.45
220.03,-0.83,0.62,-0.83,0.62,-0.62,-0.22,-0.53,-1.45,-1.45,-1.45
222.23,-0.84,0.63,-0.85,0.61,-0.61,-0.21,-0.50,-1.45,-1.46,-1.47
224.45,-0.85,0.62,-0.87,0.60,-0.60,-0.20,-0.48,-1.45,-1.47,-1.47
226.70,-0.86,0.62,-0.89,0.59,-0.59,-0.19,-0.45,-1.45,-1.48,-1.48
228.96,-0.89,0.59,-0.91,0.58,-0.58,-0.18,-0.42,-1.47,-1.49,-1.48
231.25,-0.91,0.58,-0.93,0.57,-0.57,-0.17,-0.39,-1.48,-1.50,-1.49
233.57,-0.94,0.57,-0.96,0.56,-0.56,-0.16,-0.37,-1.50,-1.51,-1.50
235.90,-0.98,0.54,-0.98,0.55,-0.55,-0.15,-0.34,-1.52,-1.52,-1.52
238.26,-1.01,0.53,-1.00,0.53,-0.53,-0.14,-0.32,-1.54,-1.53,-1.54
240.64,-1.04,0.51,-1.03,0.52,-0.52,-0.13,-0.29,-1.56,-1.54,-1.55
243.05,-1.07,0.49,-1.05,0.50,-0.50,-0.12,-0.27,-1.57,-1.55,-1.56
245.48,-1.10,0.46,-1.07,0.48,-0.48,-0.11,-0.25,-1.58,-1.56,-1.56
247.93,-1.12,0.45,-1.10,0.47,-0.47,-0.10,-0.22,-1.59,-1.56,-1.57
250.41,-1.13,0.45,-1.12,0.45,-0.45,-0.10,-0.20,-1.58,-1.56,-1.58
252.92,-1.15,0.42,-1.14,0.42,-0.42,-0.09,-0.18,-1.57,-1.56,-1.57
255.45,-1.16,0.40,-1.16,0.40,-0.40,-0.08,-0.16,-1.56,-1.56,-1.56
258.00,-1.17,0.39,-1.18,0.37,-0.37,-0.07,-0.14,-1.54,-1.55,-1.56
260.58,-1.18,0.37,-1.20,0.34,-0.34,-0.06,-0.12,-1.52,-1.54,-1.55
263.19,-1.19,0.34,-1.22,0.31,-0.31,-0.06,-0.10,-1.50,-1.53,-1.53
265.82,-1.23,0.30,-1.24,0.27,-0.27,-0.05,-0.08,-1.50,-1.52,-1.53
268.48,-1.25,0.25,-1.27,0.23,-0.23,-0.04,-0.06,-1.48,-1.50,-1.50
271.16,-1.28,0.20,-1.30,0.19,-0.19,-0.03,-0.04,-1.47,-1.49,-1.48
273.87,-1.33,0.14,-1.33,0.14,-0.14,-0.03,-0.02,-1.47,-1.47,-1.47
276.61,-1.36,0.08,-1.36,0.09,-0.09,-0.02,-0.00,-1.45,-1.45,-1.44
279.38,-1.39,0.04,-1.39,0.05,-0.05,-0.01,0.02,-1.43,-1.44,-1.43
282.17,-1.41,0.01,-1.42,0.00,-0.00,-0.01,0.04,-1.41,-1.42,-1.42
284.99,-1.44,-0.04,-1.44,-0.04,0.04,0.00,0.05,-1.40,-1.40,-1.40
287.84,-1.48,-0.10,-1.46,-0.08,0.08,0.01,0.07,-1.40,-1.38,-1.38
290.72,-1.50,-0.14,-1.47,-0.11,0.11,0.01,0.09,-1.39,-1.36,-1.36
293.63,-1.52,-0.17,-1.48,-0.14,0.14,0.02,0.11,-1.38,-1.34,-1.35
296.57,-1.52,-0.20,-1.48,-0.16,0.16,0.03,0.13,-1.36,-1.32,-1.32
299.53,-1.50,-0.20,-1.48,-0.18,0.18,0.03,0.15,-1.32,-1.30,-1.30
302.53,-1.47,-0.17,-1.46,-0.18,0.18,0.04,0.16,-1.28,-1.28,-1.30
305.55,-1.44,-0.18,-1.44,-0.19,0.19,0.05,0.18,-1.25,-1.26,-1.26
308.61,-1.42,-0.18,-1.42,-0.19,0.19,0.06,0.20,-1.23,-1.23,-1.24
311.69,-1.39,-0.18,-1.39,-0.18,0.18,0.06,0.22,-1.21,-1.21,-1.21
314.81,-1.36,-0.19,-1.36,-0.17,0.17,0.07,0.24,-1.18,-1.19,-1.17
317.96,-1.33,-0.17,-1.33,-0.16,0.16,0.08,0.26,-1.16,-1.16,-1.16
321.14,-1.30,-0.16,-1.29,-0.15,0.15,0.08,0.28,-1.15,-1.14,-1.14
324.35,-1.26,-0.14,-1.26,-0.15,0.15,0.09,0.30,-1.11,-1.12,-1.12
327.59,-1.22,-0.13,-1.23,-0.14,0.14,0.10,0.32,-1.08,-1.09,-1.09
330.87,-1.20,-0.13,-1.21,-0.14,0.14,0.11,0.34,-1.06,-1.07,-1.07
334.18,-1.18,-0.14,-1.19,-0.15,0.15,0.11,0.36,-1.03,-1.04,-1.04
337.52,-1.15,-0.12,-1.17,-0.16,0.16,0.12,0.39,-0.99,-1.02,-1.03
340.90,-1.14,-0.14,-1.16,-0.17,0.17,0.13,0.41,-0.97,-0.99,-1.00
344.30,-1.13,-0.16,-1.15,-0.18,0.18,0.14,0.43,-0.95,-0.97,-0.97
347.75,-1.13,-0.18,-1.14,-0.20,0.20,0.15,0.45,-0.93,-0.95,-0.95
351.23,-1.14,-0.22,-1.13,-0.21,0.21,0.16,0.48,-0.93,-0.92,-0.92
354.74,-1.14,-0.25,-1.13,-0.23,0.23,0.16,0.50,-0.90,-0.90,-0.89
358.28,-1.15,-0.28,-1.13,-0.26,0.26,0.17,0.53,-0.89,-0.87,-0.87
361.87,-1.15,-0.31,-1.13,-0.28,0.28,0.18,0.55,-0.87,-0.84,-0.84
365.49,-1.15,-0.33,-1.13,-0.31,0.31,0.19,0.58,-0.84,-0.82,-0.82
369.14,-1.15,-0.34,-1.13,-0.33,0.33,0.20,0.60,-0.82,-0.80,-0.81
372.83,-1.14,-0.36,-1.13,-0.36,0.36,0.21,0.63,-0.78,-0.77,-0.78
376.56,-1.13,-0.37,-1.13,-0.38,0.38,0.22,0.65,-0.75,-0.75,-0.76
380.33,-1.13,-0.41,-1.14,-0.41,0.41,0.23,0.68,-0.72,-0.73,-0.72
384.13,-1.13,-0.42,-1.15,-0.44,0.44,0.25,0.71,-0.69,-0.71,-0.71
387.97,-1.14,-0.45,-1.16,-0.47,0.47,0.26,0.74,-0.67,-0.69,-0.69
391.85,-1.15,-0.47,-1.17,-0.49,0.49,0.27,0.76,-0.66,-0.68,-0.68
395.77,-1.17,-0.52,-1.19,-0.52,0.52,0.28,0.79,-0.64,-0.66,-0.65
399.73,-1.20,-0.56,-1.21,-0.56,0.56,0.30,0.82,-0.64,-0.65,-0.64
403.72,-1.23,-0.59,-1.24,-0.59,0.59,0.31,0.85,-0.64,-0.64,-0.64
407.76,-1.26,-0.62,-1.26,-0.63,0.63,0.32,0.88,-0.63,-0.64,-0.63
411.84,-1.29,-0.66,-1.29,-0.66,0.66,0.34,0.90,-0.62,-0.63,-0.63
415.96,-1.33,-0.70,-1.33,-0.70,0.70,0.36,0.93,-0.63,-0.63,-0.63
420.12,-1.36,-0.73,-1.36,-0.73,0.73,0.37,0.96,-0.63,-0.63,-0.63
424.32,-1.39,-0.76,-1.39,-0.76,0.76,0.39,0.98,-0.63,-0.63,-0.63
428.56,-1.42,-0.79,-1.41,-0.78,0.78,0.41,1.01,-0.64,-0.63,-0.63
432.85,-1.45,-0.81,-1.43,-0.80,0.80,0.42,1.04,-0.65,-0.63,-0.64
437.18,-1.48,-0.84,-1.45,-0.82,0.82,0.44,1.06,-0.66,-0.64,-0.64
441.55,-1.49,-0.85,-1.47,-0.82,0.82,0.46,1.08,-0.66,-0.64,-0.64
445.96,-1.50,-0.85,-1.48,-0.83,0.83,0.48,1.10,-0.67,-0.64,-0.65
450.42,-1.50,-0.85,-1.48,-0.84,0.84,0.51,1.12,-0.66,-0.65,-0.65
