frequency,raw,error,smoothed,error_smoothed,equalization,equalized_raw,equalized_smoothed,target
20,-1.2405944749793345,-1.2570736373735232,-1.255072689532829,-1.2715374760572902,1.27153747605729,0.030943001077955445,0.016464786524460928,0.016479162394188673
21,-0.9381930715754337,-0.9558391580447317,-0.959622632917394,-0.977270350533612,0.9772703505336119,0.03907727895817814,0.01764771761621786,0.017646086469297995
22,-0.7301893027928424,-0.7489518737854136,-0.6812448609734698,-0.7000184889738856,0.7000184889738855,-0.03017081381895692,0.01877362800041571,0.01876257099257117
23,-0.4187655404884317,-0.43859275022357364,-0.4199393737010566,-0.43978189137811075,0.43978189137811063,0.02101635088967896,0.019842517677054028,0.01982720973514196
24,-0.2206314003114152,-0.24146974385920178,-0.17570617110015352,-0.1965605577462867,0.19656055774628664,-0.024070842565128564,0.020854386646133122,0.020838343547786575
25,0.08385439740533036,0.062060368490614984,0.05065083902052035,0.028839538968677983,-0.028839538968678014,0.05501485843665235,0.021811300051842338,0.02179402891471538
26,0.28699213006091956,0.2643001258509426,0.2599023881362173,0.23719101724301284,-0.23719101724301284,0.04980111281790672,0.022711370893204463,0.022692004209976968
27,0.4895211934178579,0.46598704587085465,0.45295312471262306,0.4294007179013582,-0.4294007179013582,0.06012047551649968,0.02355240681126486,0.023534147547003226
28,0.5932203489773663,0.5689068740094335,0.6313244112831911,0.6069938404450991,-0.606993840445099,-0.013773491467732657,0.02433057083809209,0.02431347496793279
29,0.7956374135818364,0.7706126942370618,0.797107376988216,0.7720671669520796,-0.7720671669520798,0.023570246629756597,0.025040210036136212,0.02502471934477457
30,1.0015335013679114,0.9758722478969482,0.9525241236368639,0.9268495796365002,-0.9268495796365002,0.07468392173141125,0.02567454400036373,0.025661253470963263
31,1.0329631290642325,1.0067480695040596,1.0997760963770378,1.0735506674747657,-1.0735506674747652,-0.04058753841053275,0.02622542890227253,0.026215059560172893
32,1.246071222185286,1.219394413243151,1.2407050758600142,1.2140213656667367,-1.2140213656667367,0.03204985651854941,0.026683710193277532,0.0266768089421352
33,1.327122888886132,1.3000868235124945,1.3765794053054112,1.3495399264786565,-1.3495399264786565,-0.022417037592524558,0.027039478826754726,0.027036065373637452
34,1.537535275707116,1.5102528897149128,1.5080341942791837,1.4807519196597099,-1.4807519196597099,0.05678335604740603,0.027282274619473856,0.027282385992203118
35,1.6545754424315056,1.6271706501368688,1.6351120879445142,1.6077106867424393,-1.6077106867424396,0.04686475568906601,0.027401401202074682,0.02740479229463677
36,1.757604236154857,1.730211908840962,1.75741047291756,1.7300242931507162,-1.7300242931507164,0.027579943004140572,0.027386179766843544,0.02739232731389496
37,1.8673098444375924,1.8400754928317924,1.8742526370221515,1.8470264382449342,-1.8470264382449337,0.02028340619265867,0.02722619877721777,0.02723435160580001
38,1.9757854298900197,1.9488646520750166,1.9848364430237422,1.9579249095215148,-1.9579249095215152,0.017860520368504496,0.02691153350222697,0.026920777815003127
39,2.0819498442548356,2.0555076261256744,2.0883503962493988,2.061917495932137,-2.0619174959321374,0.02003234832269829,0.02643290031726142,0.026442218129161255
40,2.1849902891745314,2.159200259580329,2.184072891756228,2.1582911445478876,-2.158291144547887,0.026699144626644244,0.02578174720834081,0.0257900295942024
41,2.2836878265266627,2.2587314385194484,2.2714880522552305,2.2465377908632767,-2.246537790863276,0.03715003566338648,0.02495026139195433,0.024956388007214336
42,2.3819966353099256,2.3580624497460643,2.3504327570585275,2.3265014680348353,-2.326501468034836,0.05549516727508941,0.02393128902369135,0.023934185563861288
43,2.3772414644371302,2.354524606915916,2.4212510826646776,2.3985329150513444,-2.3985329150513444,-0.021291450614214114,0.02271816761333323,0.02271685752121444
44,2.523333897537264,2.502035772485253,2.484895055950064,2.463590582901922,-2.463590582901922,0.059743314635342326,0.021304473048142203,0.02129812505201123
45,2.5691653842931426,2.5494937225829815,2.5428964650139685,2.523212775003695,-2.5232127750036946,0.045952609289448,0.019683690010273924,0.019671661710161104
46,2.5662156264335505,2.548384934607,2.5971583908166442,2.579309573501844,-2.5793095735018445,-0.013093947068294032,0.017848817314799703,0.017830691826550282
47,2.6783680055091934,2.662600475893001,2.649571337152337,2.633779414258405,-2.633779414258405,0.0445885912507884,0.015791922893932053,0.015767529616192544
48,2.6614385424635616,2.647965451077323,2.7015264594288717,2.688022793348634,-2.688022793348635,-0.026584250885073324,0.013503666080236787,0.013473091386238423
49,2.6394792637088873,2.6285428715302475,2.753450337658623,2.7424775313107785,-2.742477531310778,-0.10299826760189079,0.010972806347844699,0.010936392178639842
50,2.8773321869873065,2.8691881380823947,2.8044993433122336,2.796313624652806,-2.7963136246528055,0.081018562334501,0.008185718659428076,0.008144048904911827
51,2.858999289410227,2.853919478536523,2.852518455769169,2.8473925203064274,-2.8473925203064274,0.011606769103799763,0.005125935462741538,0.005079810873704016
52,2.859504195656002,2.857780057939519,2.8942991832416727,2.892525448965886,-2.8925254489658854,-0.03302125330988348,0.0017737342757873087,0.001724137716482943
53,2.9410241970110667,2.9429703546454813,2.9260881160579135,2.927982328184501,-2.9279823281845028,0.013041868826563885,-0.0018942121265892453,-0.0019461576344146359
54,2.971553465350723,2.9775116526083236,2.9442317437246643,2.950136852361389,-2.950136852361389,0.02141661298933384,-0.005905108636724776,-0.005958187257600667
55,2.964089584725796,2.97443276065032,2.9458155533882424,2.956105776249368,-2.956105776249368,0.007983808476428322,-0.010290222861125464,-0.010343175924523607
56,2.964753719054385,2.979890269952873,2.92917284742321,2.9442578224275655,-2.9442578224275664,0.0204958966268185,-0.015084975004356238,-0.015136550898488199
57,2.878487805188,2.8988657357924525,2.894191499883997,2.9145204291004596,-2.914520429100459,-0.036032623912459094,-0.02032892921646212,-0.020377930604452477
58,2.9008667110177675,2.926977723997861,2.842411225748828,2.868476912682235,-2.8684769126822345,0.032389798335533015,-0.026065686933406607,-0.026111012980093662
59,2.8232343893974168,2.8556177574880577,2.776952747795007,2.80929543423336,-2.8092954342333614,0.013938955164055411,-0.03234268643835447,-0.03238336809064091
60,2.6038831710893158,2.6431293140402747,2.7023354214101767,2.7415463375912514,-2.7415463375912514,-0.13766316650193566,-0.03921091618107475,-0.03924614295095896
61,2.664178651289495,2.7109323407515937,2.6242205008744586,2.6709450530313843,-2.6709450530313843,-0.006766401741889361,-0.046724552156925725,-0.04675368946209879
62,2.5578792240666917,2.612842352509007,2.5490814914207087,2.60402202316944,-2.6040220231694398,-0.0461427991027481,-0.054940531748731036,-0.05496312844231532
63,2.4694757420979103,2.533409606198134,2.483776117629649,2.547694195430473,-2.5476941954304735,-0.07821845333256316,-0.06391807780082459,-0.06393386410022384
64,2.5049050702098015,2.5786321340691765,2.4349980619535474,2.5087162492120116,-2.508716249212012,-0.0038111790022106184,-0.07371818725846468,-0.073727063859375
65,2.3564124132054216,2.4408175314299196,2.4086271011651146,2.493030199882179,-2.493030199882178,-0.1366177866767564,-0.08440309871706342,-0.08440511822449803
66,2.325214854199487,2.4212459486346196,2.4090577703989813,2.5050935224570194,-2.5050935224570203,-0.1798786682575333,-0.09603575205803905,-0.09603109443513258
67,2.371910783086572,2.480578979168108,2.438638559793237,2.547317811635233,-2.547317811635233,-0.17540702854866064,-0.10867925184199567,-0.10866819608153566
68,2.4846790726679844,2.607058311488379,2.497365353210773,2.6197616982216667,-2.6197616982216663,-0.1350826255536819,-0.12239634501089336,-0.12237923882039459
69,2.5624379467804195,2.6996640967395953,2.5829295758306747,2.720178497441503,-2.7201784974415024,-0.15774055066108295,-0.1372489216108277,-0.1372261499591758
70,2.7433522853501335,2.8966217824992992,2.69113500763018,2.844432550944523,-2.844432550944524,-0.10108026559439054,-0.15329754331434398,-0.1532694971491657
71,2.8400340393830135,3.0106020882852222,2.8165978697801757,2.987198869474052,-2.987198869474053,-0.14716483009103953,-0.17060099969387732,-0.17056804890220878
72,2.94259974401436,3.1317781112921352,2.9535698653079834,3.142785755567763,-3.142785755567763,-0.2001860115534031,-0.18921589025977958,-0.18917836727777537
73,3.059283093236056,3.268437524241756,3.096701165703248,3.3058974006500117,-3.3058974006500117,-0.24661430741395574,-0.20919623494676376,-0.20915443100569986
74,3.2845571107661957,3.515104396382951,3.241595027533753,3.472188146730045,-3.4721881467300455,-0.18763103596384978,-0.23059311919629266,-0.2305472856167552
75,3.448277554494967,3.7016822704146928,3.3850798987501527,3.6385342811186536,-3.6385342811186527,-0.19025672662368587,-0.25345438236850004,-0.2534047159197259
76,3.513956032492893,3.7917269679176377,3.525207193852902,3.803031543680355,-3.803031543680355,-0.28907551118746166,-0.27782434982745263,-0.2777709354247446
77,3.6400050333358616,3.943691320405799,3.661044184684585,3.96478775810533,-3.964787758105331,-0.32478272476946923,-0.30374357342074587,-0.3036862870699375
78,3.76749512592981,4.098682075763143,3.792358576759252,4.123607070187887,-4.1236070701878855,-0.3561119442580756,-0.3312484934286335,-0.33118694983333263
79,3.945105718361321,4.305410364811829,3.919285576983299,4.279656504590217,-4.279656504590219,-0.33455078622889767,-0.3603709276069198,-0.3603046464505084
80,4.079833885734858,4.470900234173528,4.04204203026398,4.43317943253375,-4.43317943253375,-0.3533455467988924,-0.39113740226977,-0.3910663484386703
81,4.107155089123428,4.530649064989303,4.160721725498311,4.584290297246235,-4.584290297246237,-0.4771352081228084,-0.42356857174792584,-0.4234939758658749
82,4.294039803460537,4.751643894173508,4.275182339787728,4.732861527691529,-4.732861527691529,-0.4388217242309924,-0.4576791879038016,-0.4576040907129708
83,4.382234829237819,4.875642413408711,4.385020057207875,4.878499140093476,-4.878499140093475,-0.4962643108556559,-0.4934790828856004,-0.49340758417089203
84,4.469790157179304,5.0006995169004895,4.489618712889641,5.020593873543079,-5.0205938735430795,-0.5508037163637756,-0.5309751606534387,-0.530909359721186
85,4.579494742936826,5.149602758235773,4.58825287506199,5.158426253102764,-5.158426253102765,-0.5789315101659387,-0.5701733780407752,-0.5701080152989464
86,4.707674215435945,5.3186697446205695,4.680219653452883,5.291298182771895,-5.291298182771893,-0.5836239673359476,-0.61107852931901,-0.6109955291846236
87,4.8114716423605355,5.465028597839337,4.764972530565405,5.418661775958681,-5.418661775958681,-0.6071901335981451,-0.6536892453932754,-0.6535569554788019
88,4.821942975580063,5.519713111638772,4.842232274200186,5.5402192467638,-5.540219246763799,-0.7182762711837363,-0.697986972563613,-0.6977701360587099
89,4.8606331188227205,5.60423855560662,4.9120549976813095,5.6559761297942845,-5.655976129794285,-0.7953430109715649,-0.743921132112976,-0.7436054367838993
90,5.012491706875679,5.803517223279889,4.974844294516153,5.766241514416295,-5.7662415144162935,-0.7537498075406148,-0.7913972199001407,-0.7910255164042104
91,5.051105494520295,5.891090631641553,5.0313009348612745,5.8715790152653184,-5.871579015265318,-0.8204735207450229,-0.8402780804040431,-0.8399851371212583
92,5.063190961167223,5.9536219872267795,5.082309860279786,5.972717858738317,-5.972717858738316,-0.9095268975710935,-0.8904079984585307,-0.8904310260595567
93,5.113106493078847,6.055408290083793,5.128774049253984,6.070436588191104,-6.070436588191104,-0.9573300951122565,-0.9416625389371198,-0.9423017970049461
94,5.1944185135559415,6.189946455206617,5.171421986839199,6.16543696184444,-6.16543696184444,-0.9710184482884987,-0.9940149750052409,-0.9955279416506757
95,5.212093315288255,6.26212521452139,5.21063566084223,6.258232657848962,-6.258232657848961,-1.0461393425607053,-1.047596997006731,-1.0500318992331348
96,5.2298146519264055,6.33554286473985,5.246358819156777,6.349082564906114,-6.349082564906114,-1.1192679129797085,-1.102723745749337,-1.1057282128134447
97,5.245895058581395,6.408418838119954,5.2781388216001375,6.437995789804704,-6.437995789804704,-1.1921007312233094,-1.1598569682045667,-1.1625237795385592
98,5.2952956358872685,6.515613836856273,5.30532276552046,6.524820022070882,-6.524820022070882,-1.2295243861836136,-1.2194972565504223,-1.2203182009690048
99,5.3675404227327475,6.646544660701811,5.3273739280315375,6.60939690157815,-6.60939690157815,-1.2418564788454027,-1.2820229735466127,-1.2790042379690636
100,5.3735079288752585,6.7119763015847465,5.344216714323439,6.691736474872161,-6.69173647487216,-1.3182285459969014,-1.347519760548721,-1.338468372709488
101,5.371240563597478,6.769832041637128,5.356484996880006,6.772143613440808,-6.77214361344081,-1.4009030498433317,-1.4156586165608038,-1.3985914780396493
102,5.3692216127568635,6.828471204630016,5.365562390852575,6.851236431340235,-6.851236431340233,-1.4820148185833695,-1.485674040487658,-1.459249591873152
104,5.367091813751877,6.9493712302632655,5.373366180503924,6.929832397256467,-6.929832397256467,-1.5627405835045902,-1.5564662167525434,-1.5822794165113887
105,5.366393220335922,7.010094884184063,5.381919168670342,7.008730224531607,-7.008730224531606,-1.6423370041956833,-1.626811055861264,-1.6437016638481405
106,5.3679002616277085,7.073044997628713,5.392839186622127,7.08846264591765,-7.088462645917648,-1.7205623842899396,-1.695623459295521,-1.7051447360010048
107,5.368969171680635,7.135446728388409,5.40691688256595,7.169114267626155,-7.169114267626154,-1.8001450959455187,-1.7621973850602037,-1.7664775567077742
108,5.3927305146354465,7.220300725875406,5.423928041767066,7.250278418873452,-7.250278418873451,-1.8575479042380048,-1.826350377106385,-1.8275702112399594
109,5.48279616242403,7.371091223250215,5.4427445674533885,7.331173911247198,-7.3311739112472,-1.8483777488231699,-1.8884293437938116,-1.888295060826184
110,5.488295651091841,7.436823504478444,5.461701474584052,7.4108795583304925,-7.41087955833049,-1.922583907238649,-1.949178083746438,-1.9485278533866035
111,5.493441266340037,7.501590075122504,5.4790891388163985,7.4885988398777,-7.488598839877702,-1.9951575735376652,-2.0095097010613037,-2.008148808782467
112,5.498349556822268,7.56539321279774,5.493604575187897,7.563858594629572,-7.563858594629574,-2.065509037807306,-2.070254019441677,-2.067043655975472
113,5.503218233201609,7.6283228326399675,5.504623653969715,7.636576465306142,-7.636576465306141,-2.1333582321045323,-2.1319528113364257,-2.125104599438359
114,5.508058105974148,7.6902892989059675,5.512232089284832,7.706986630622254,-7.706986630622255,-2.1989285246481076,-2.1947545413374234,-2.1822311929318197
115,5.512611635327186,7.750942735723011,5.517043287331884,7.775467703647899,-7.775467703647901,-2.2628560683207146,-2.258424416316017,-2.2383311003958246
117,5.51649793264905,7.86453137494493,5.519900313947956,7.842348873851872,-7.8423488738518685,-2.3258509412028188,-2.322448559903912,-2.3480334422958804
118,5.519458302642515,7.920172109217498,5.521584322661223,7.907770243647276,-7.907770243647274,-2.3883119410047593,-2.386185920986051,-2.400713806574984
119,5.5215137918659085,7.973611710203805,5.522629311634207,7.971644582145975,-7.9716445821459745,-2.450130790280066,-2.449015270511768,-2.452097918337896
120,5.522930465099578,8.025068078132787,5.52328758905497,8.033724593815709,-8.033724593815709,-2.510794128716131,-2.510437004760739,-2.5021376130332094
121,5.524044251286021,8.074838491684968,5.52362640760311,8.093739950322743,-8.093739950322744,-2.569695699036723,-2.5701135427196347,-2.5507942403989463
123,5.525096268776577,8.170533115744536,5.523687999507915,8.15154506365503,-8.151545063655028,-2.626448794878452,-2.627857064147113,-2.6454368469679594
124,5.526198473788731,8.216140459692147,5.523627958392967,8.207217217779151,-8.207217217779151,-2.6810187439904203,-2.683589259386184,-2.689941985903416
125,5.527425695462957,8.260418935661178,5.523763696925368,8.261063543189511,-8.261063543189511,-2.7336378477265546,-2.7372998462641434,-2.7329932401982227
126,5.528925549083032,8.303517285580675,5.524506771520049,8.313527504088412,-8.313527504088412,-2.784601955005381,-2.789020732568363,-2.774591736497644
128,5.530935071609285,8.386504182017786,5.5262027376670595,8.365020566959737,-8.36502056695974,-2.8340854953504557,-2.8388178292926813,-2.8555691104085015
129,5.5176112877598955,8.410598100991574,5.528940321321798,8.4157308183327,-8.4157308183327,-2.898119530572804,-2.8867904970109013,-2.8929868132316785
130,5.486951919738403,8.415957489071655,5.532404127660875,8.465469145714188,-8.46546914571419,-2.9785172259757866,-2.9330650180533144,-2.9290055693332513
131,5.541461546319021,8.505113940854963,5.535829115087642,8.513603359228696,-8.513603359228696,-2.9721418129096753,-2.977774244141054,-2.9636523945359423
133,5.546026962555357,8.577436475939628,5.538079408516417,8.559105776101822,-8.559105776101823,-3.013078813546467,-3.0210263675854065,-3.031409513384272
134,5.550586937511027,8.612778292486508,5.537835162913305,8.600710025871239,-8.600710025871239,-3.0501230883602117,-3.0628748629579334,-3.062191354975481
135,5.554908091148548,8.646632191010488,5.533845398514522,8.637149174652011,-8.637149174652013,-3.0822410835034644,-3.1033037761374906,-3.091724099861939
137,5.558916604555644,8.708711069893546,5.525199088352675,8.667435761437538,-8.667435761437538,-3.1085191568818944,-3.142236673084863,-3.149794465337902
138,5.501044830533493,8.676879968153248,5.511575241003472,8.691142339867767,-8.691142339867767,-3.190097509334274,-3.179567098864295,-3.1758351376197558
140,5.4653333001484175,8.69262227020841,5.49344106744369,8.708639586895607,-8.708639586895607,-3.24330628674719,-3.215198519451917,-3.227288970059992
141,5.467970421511666,8.718108357943956,5.472164266817171,8.721241764450763,-8.721241764450763,-3.2532713429390974,-3.249077497633592,-3.2501379364322904
142,5.469581956930533,8.741567016284232,5.449992407199892,8.731199856499076,-8.731199856499078,-3.261617899568545,-3.2812074492991856,-3.2719850593537
144,5.469936913482205,8.785445771772867,5.429844810033586,8.741484481681905,-8.741484481681903,-3.271547568199698,-3.311639671648317,-3.3155088582906616
145,5.434391720896273,8.768956375506754,5.414882517583038,8.755331067923668,-8.755331067923667,-3.3209393470273936,-3.3404485503406285,-3.3345646546104812
147,5.367437046670564,8.740245948043544,5.407882940479099,8.775586967476684,-8.77558696747668,-3.4081499208061166,-3.3677040269975818,-3.3728089013729794
148,5.366705122822348,8.756057918616143,5.4105367662973025,8.803990861767433,-8.803990861767431,-3.437285738945083,-3.393454095470129,-3.389352795793795
150,5.367195289051267,8.790050216185564,5.42286867598305,8.840592813119269,-8.84059281311927,-3.4733975240680035,-3.4177241371362204,-3.4228549271342974
151,5.414489923085117,8.851634248117875,5.443011399734104,8.883542665079585,-8.883542665079585,-3.4690527419944672,-3.4405312653454807,-3.437144325032758
153,5.472904586481513,8.9393079766662,5.467499324606875,8.92940417750815,-8.92940417750815,-3.4564995910266374,-3.4619048529012755,-3.466403390184687
154,5.498258684877463,8.976929905036323,5.4920943190625575,8.97399653228597,-8.97399653228597,-3.4757378474085066,-3.481902213223412,-3.47867122015886
156,5.581073859121997,9.085216884844378,5.5129582564211965,9.013569778727001,-9.013569778727001,-3.432495919605005,-3.500611522305805,-3.504143025722381
157,5.585027964917857,9.099625453709276,5.527821930601222,9.045962428684437,-9.045962428684435,-3.460934463766578,-3.5181404980832127,-3.5145974887914195
159,5.589459518304385,9.12615275949853,5.536746341191696,9.071342204808513,-9.071342204808513,-3.481882686504128,-3.5345958636168167,-3.5366932411941447
