frequency,raw,smoothed,error,error_smoothed,equalization,parametric_eq,fixed_band_eq,equalized_raw,equalized_smoothed,target
20.00,-9.80,-9.81,-10.08,-10.08,6.00,6.16,2.77,-3.80,-3.81,0.28
20.20,-9.71,-9.70,-10.03,-10.02,6.00,6.15,2.85,-3.71,-3.70,0.32
20.40,-9.61,-9.61,-9.96,-9.96,6.00,6.15,2.93,-3.61,-3.61,0.35
20.61,-9.52,-9.51,-9.90,-9.90,6.00,6.14,3.01,-3.52,-3.51,0.38
20.81,-9.42,-9.42,-9.84,-9.84,6.00,6.14,3.09,-3.42,-3.42,0.42
21.02,-9.34,-9.35,-9.80,-9.79,6.00,6.13,3.18,-3.34,-3.35,0.46
21.23,-9.28,-9.28,-9.75,-9.75,6.00,6.13,3.27,-3.28,-3.28,0.47
21.44,-9.23,-9.23,-9.71,-9.71,6.00,6.12,3.37,-3.23,-3.23,0.49
21.66,-9.18,-9.18,-9.69,-9.68,6.00,6.11,3.46,-3.18,-3.18,0.50
21.87,-9.13,-9.13,-9.64,-9.65,6.00,6.11,3.56,-3.13,-3.13,0.51
22.09,-9.08,-9.08,-9.61,-9.60,6.00,6.10,3.66,-3.08,-3.08,0.53
22.31,-9.02,-9.02,-9.55,-9.56,6.00,6.10,3.77,-3.02,-3.02,0.53
22.54,-8.96,-8.97,-9.50,-9.52,6.00,6.09,3.87,-2.96,-2.97,0.54
22.76,-8.90,-8.91,-9.45,-9.45,6.00,6.08,3.99,-2.90,-2.91,0.55
22.99,-8.84,-8.80,-9.39,-9.36,6.00,6.08,4.10,-2.84,-2.80,0.55
23.22,-8.65,-8.65,-9.21,-9.21,6.00,6.07,4.21,-2.65,-2.65,0.56
23.45,-8.45,-8.45,-9.02,-9.01,6.00,6.07,4.33,-2.45,-2.45,0.57
23.69,-8.25,-8.24,-8.83,-8.82,6.00,6.06,4.45,-2.25,-2.24,0.58
23.92,-8.05,-8.10,-8.64,-8.69,6.00,6.05,4.57,-2.05,-2.10,0.59
24.16,-8.03,-8.04,-8.63,-8.64,6.00,6.05,4.70,-2.03,-2.04,0.60
24.40,-8.08,-8.06,-8.69,-8.66,6.00,6.04,4.82,-2.08,-2.06,0.61
24.65,-8.13,-8.13,-8.73,-8.73,6.00,6.04,4.95,-2.13,-2.13,0.60
24.89,-8.19,-8.18,-8.78,-8.77,6.00,6.03,5.08,-2.19,-2.18,0.59
25.14,-8.20,-8.19,-8.79,-8.78,6.00,6.02,5.22,-2.20,-2.19,0.59
25.39,-8.17,-8.18,-8.76,-8.77,6.00,6.02,5.35,-2.17,-2.18,0.59
25.65,-8.15,-8.16,-8.74,-8.75,6.00,6.01,5.48,-2.15,-2.16,0.59
25.91,-8.13,-8.12,-8.71,-8.71,6.00,6.01,5.62,-2.13,-2.12,0.58
26.16,-8.07,-8.07,-8.66,-8.65,6.00,6.00,5.75,-2.07,-2.07,0.59
26.43,-7.99,-7.99,-8.58,-8.57,6.00,5.99,5.89,-1.99,-1.99,0.59
26.69,-7.90,-7.90,-8.49,-8.49,6.00,5.99,6.02,-1.90,-1.90,0.59
26.96,-7.82,-7.84,-8.41,-8.42,6.00,5.98,6.15,-1.82,-1.84,0.59
27.23,-7.80,-7.80,-8.38,-8.38,6.00,5.98,6.28,-1.80,-1.80,0.58
27.50,-7.78,-7.78,-8.36,-8.36,6.00,5.97,6.41,-1.78,-1.78,0.58
27.77,-7.76,-7.76,-8.33,-8.33,6.00,5.97,6.53,-1.76,-1.76,0.57
28.05,-7.74,-7.73,-8.31,-8.29,6.00,5.96,6.65,-1.74,-1.73,0.57
28.33,-7.67,-7.67,-8.23,-8.24,6.00,5.96,6.76,-1.67,-1.67,0.56
28.62,-7.61,-7.61,-8.18,-8.17,6.00,5.95,6.87,-1.61,-1.61,0.57
28.90,-7.54,-7.54,-8.11,-8.10,6.00,5.95,6.96,-1.54,-1.54,0.57
29.19,-7.48,-7.48,-8.03,-8.04,6.00,5.95,7.06,-1.48,-1.48,0.55
29.48,-7.41,-7.41,-7.97,-7.97,6.00,5.94,7.14,-1.41,-1.41,0.56
29.78,-7.34,-7.34,-7.90,-7.90,6.00,5.94,7.22,-1.34,-1.34,0.56
30.08,-7.28,-7.29,-7.84,-7.85,6.00,5.93,7.28,-1.28,-1.29,0.56
30.38,-7.26,-7.27,-7.81,-7.82,6.00,5.93,7.33,-1.26,-1.27,0.55
30.68,-7.24,-7.24,-7.78,-7.78,6.00,5.93,7.37,-1.24,-1.24,0.54
30.99,-7.22,-7.20,-7.75,-7.73,6.00,5.93,7.40,-1.22,-1.20,0.53
31.30,-7.11,-7.10,-7.64,-7.63,6.00,5.93,7.42,-1.11,-1.10,0.53
31.61,-6.99,-6.99,-7.52,-7.52,6.00,5.93,7.43,-0.99,-0.99,0.53
31.93,-6.87,-6.90,-7.39,-7.41,6.00,5.92,7.43,-0.87,-0.90,0.52
32.24,-6.84,-6.85,-7.34,-7.36,6.00,5.93,7.41,-0.84,-0.85,0.50
32.57,-6.85,-6.84,-7.35,-7.35,6.00,5.93,7.39,-0.85,-0.84,0.50
32.89,-6.86,-6.84,-7.36,-7.33,6.00,5.93,7.35,-0.86,-0.84,0.50
33.22,-6.80,-6.79,-7.30,-7.29,6.00,5.93,7.31,-0.80,-0.79,0.50
33.55,-6.72,-6.72,-7.21,-7.22,6.00,5.93,7.25,-0.72,-0.72,0.49
33.89,-6.64,-6.65,-7.13,-7.14,6.00,5.94,7.19,-0.64,-0.65,0.49
34.23,-6.61,-6.62,-7.10,-7.11,6.00,5.94,7.12,-0.61,-0.62,0.49
34.57,-6.61,-6.61,-7.08,-7.09,6.00,5.95,7.04,-0.61,-0.61,0.47
34.92,-6.61,-6.59,-7.08,-7.06,6.00,5.95,6.96,-0.61,-0.59,0.47
35.27,-6.55,-6.54,-7.02,-7.00,6.00,5.96,6.88,-0.55,-0.54,0.47
35.62,-6.47,-6.47,-6.92,-6.93,6.00,5.97,6.79,-0.47,-0.47,0.45
35.97,-6.39,-6.41,-6.84,-6.86,6.00,5.98,6.69,-0.39,-0.41,0.45
36.33,-6.38,-6.39,-6.83,-6.83,6.00,5.99,6.60,-0.38,-0.39,0.45
36.70,-6.38,-6.37,-6.82,-6.81,6.00,6.00,6.50,-0.38,-0.37,0.44
37.06,-6.37,-6.34,-6.80,-6.77,6.00,6.01,6.40,-0.37,-0.34,0.43
37.43,-6.28,-6.28,-6.70,-6.70,6.00,6.02,6.31,-0.28,-0.28,0.42
37.81,-6.19,-6.21,-6.61,-6.63,6.00,6.03,6.21,-0.19,-0.21,0.42
38.19,-6.15,-6.16,-6.56,-6.57,6.00,6.04,6.11,-0.15,-0.16,0.41
38.57,-6.15,-6.14,-6.55,-6.55,6.00,6.05,6.01,-0.15,-0.14,0.40
38.95,-6.15,-6.15,-6.55,-6.54,6.00,6.06,5.92,-0.15,-0.15,0.40
39.34,-6.14,-6.14,-6.52,-6.53,6.00,6.06,5.83,-0.14,-0.14,0.38
39.74,-6.13,-6.12,-6.50,-6.50,6.00,6.07,5.74,-0.13,-0.12,0.37
40.14,-6.09,-6.08,-6.46,-6.45,6.00,6.06,5.65,-0.09,-0.08,0.37
40.54,-6.02,-6.02,-6.38,-6.39,6.01,6.06,5.57,-0.02,-0.02,0.36
40.94,-5.94,-5.94,-6.30,-6.30,6.01,6.05,5.49,0.07,0.06,0.36
41.35,-5.87,-5.86,-6.21,-6.21,6.01,6.03,5.41,0.14,0.14,0.34
41.76,-5.79,-5.80,-6.12,-6.12,6.00,6.01,5.33,0.21,0.21,0.33
42.18,-5.74,-5.75,-6.05,-6.05,6.00,5.98,5.26,0.26,0.25,0.31
42.60,-5.72,-5.71,-6.00,-6.00,5.99,5.96,5.20,0.27,0.27,0.28
43.03,-5.70,-5.70,-5.97,-5.97,5.97,5.92,5.13,0.27,0.27,0.27
43.46,-5.70,-5.70,-5.94,-5.93,5.94,5.88,5.07,0.24,0.24,0.24
43.90,-5.70,-5.70,-5.89,-5.90,5.89,5.84,5.02,0.19,0.19,0.19
44.33,-5.70,-5.71,-5.86,-5.87,5.84,5.80,4.96,0.14,0.13,0.16
44.78,-5.70,-5.68,-5.83,-5.81,5.78,5.75,4.92,0.08,0.09,0.13
45.23,-5.65,-5.63,-5.75,-5.72,5.72,5.70,4.87,0.07,0.09,0.10
45.68,-5.54,-5.56,-5.61,-5.63,5.66,5.65,4.83,0.12,0.10,0.07
46.13,-5.47,-5.50,-5.52,-5.55,5.60,5.60,4.79,0.13,0.10,0.05
46.60,-5.47,-5.46,-5.51,-5.50,5.54,5.55,4.76,0.07,0.07,0.04
47.06,-5.47,-5.46,-5.49,-5.49,5.47,5.50,4.73,0.00,0.01,0.02
47.53,-5.45,-5.45,-5.46,-5.47,5.42,5.45,4.70,-0.03,-0.04,0.01
48.01,-5.43,-5.40,-5.44,-5.41,5.37,5.40,4.68,-0.06,-0.04,0.01
48.49,-5.34,-5.34,-5.34,-5.34,5.33,5.35,4.66,-0.01,-0.01,-0.00
48.97,-5.25,-5.28,-5.24,-5.27,5.31,5.30,4.64,0.06,0.03,-0.01
49.46,-5.24,-5.24,-5.22,-5.22,5.28,5.25,4.63,0.04,0.05,-0.02
49.96,-5.24,-5.23,-5.22,-5.21,5.26,5.20,4.62,0.02,0.03,-0.02
50.46,-5.24,-5.24,-5.22,-5.22,5.22,5.15,4.61,-0.02,-0.01,-0.02
50.96,-5.24,-5.25,-5.23,-5.24,5.19,5.10,4.60,-0.05,-0.06,-0.01
51.47,-5.24,-5.24,-5.22,-5.22,5.15,5.05,4.59,-0.09,-0.09,-0.02
51.99,-5.24,-5.20,-5.20,-5.16,5.11,5.00,4.59,-0.13,-0.08,-0.04
52.51,-5.12,-5.12,-5.07,-5.07,5.07,4.95,4.59,-0.05,-0.05,-0.05
53.03,-5.01,-5.05,-4.94,-4.98,5.02,4.90,4.59,0.01,-0.03,-0.07
53.56,-5.01,-5.00,-4.90,-4.89,4.96,4.85,4.59,-0.05,-0.05,-0.11
54.10,-5.01,-5.00,-4.86,-4.85,4.88,4.79,4.59,-0.13,-0.12,-0.15
54.64,-5.01,-5.02,-4.81,-4.82,4.80,4.74,4.59,-0.21,-0.22,-0.20
55.18,-5.01,-5.02,-4.76,-4.77,4.71,4.69,4.59,-0.30,-0.31,-0.25
55.74,-5.01,-4.99,-4.71,-4.69,4.63,4.63,4.59,-0.38,-0.36,-0.30
56.29,-4.95,-4.93,-4.60,-4.57,4.55,4.58,4.59,-0.40,-0.38,-0.35
56.86,-4.82,-4.86,-4.41,-4.44,4.46,4.52,4.59,-0.36,-0.39,-0.41
57.42,-4.79,-4.80,-4.31,-4.33,4.38,4.46,4.58,-0.41,-0.42,-0.48
58.00,-4.79,-4.78,-4.25,-4.24,4.29,4.40,4.58,-0.50,-0.49,-0.54
58.58,-4.79,-4.79,-4.19,-4.19,4.21,4.33,4.57,-0.58,-0.58,-0.60
59.16,-4.79,-4.79,-4.14,-4.14,4.14,4.27,4.56,-0.65,-0.65,-0.65
59.76,-4.79,-4.79,-4.08,-4.08,4.07,4.20,4.55,-0.72,-0.72,-0.71
60.35,-4.79,-4.79,-4.01,-4.02,4.01,4.14,4.53,-0.78,-0.78,-0.78
60.96,-4.79,-4.79,-3.96,-3.95,3.95,4.06,4.51,-0.84,-0.84,-0.83
61.57,-4.79,-4.80,-3.88,-3.89,3.87,3.99,4.49,-0.92,-0.93,-0.91
62.18,-4.79,-4.80,-3.82,-3.83,3.79,3.92,4.46,-1.00,-1.01,-0.97
62.80,-4.79,-4.75,-3.77,-3.73,3.70,3.84,4.43,-1.09,-1.05,-1.01
63.43,-4.69,-4.68,-3.62,-3.61,3.61,3.76,4.39,-1.08,-1.07,-1.07
64.07,-4.56,-4.61,-3.44,-3.49,3.52,3.68,4.36,-1.04,-1.08,-1.12
64.71,-4.56,-4.56,-3.40,-3.39,3.45,3.60,4.31,-1.11,-1.11,-1.16
65.35,-4.56,-4.55,-3.35,-3.34,3.38,3.52,4.27,-1.18,-1.17,-1.21
66.01,-4.56,-4.56,-3.31,-3.31,3.32,3.43,4.22,-1.24,-1.24,-1.25
66.67,-4.56,-4.56,-3.27,-3.27,3.27,3.35,4.17,-1.29,-1.29,-1.29
67.33,-4.56,-4.56,-3.24,-3.24,3.24,3.26,4.11,-1.32,-1.32,-1.32
68.01,-4.56,-4.56,-3.21,-3.21,3.21,3.18,4.05,-1.35,-1.35,-1.35
68.69,-4.56,-4.56,-3.18,-3.18,3.18,3.10,3.99,-1.38,-1.38,-1.38
69.37,-4.56,-4.57,-3.15,-3.16,3.13,3.02,3.93,-1.43,-1.44,-1.41
70.07,-4.56,-4.57,-3.12,-3.13,3.08,2.94,3.87,-1.48,-1.49,-1.44
70.77,-4.56,-4.52,-3.10,-3.05,3.02,2.87,3.80,-1.54,-1.50,-1.46
71.48,-4.45,-4.45,-2.96,-2.96,2.96,2.80,3.73,-1.49,-1.48,-1.49
72.19,-4.33,-4.38,-2.81,-2.86,2.90,2.73,3.66,-1.43,-1.48,-1.52
72.91,-4.33,-4.33,-2.78,-2.78,2.83,2.68,3.59,-1.50,-1.49,-1.55
73.64,-4.33,-4.32,-2.75,-2.74,2.76,2.63,3.52,-1.57,-1.56,-1.58
74.38,-4.33,-4.34,-2.72,-2.73,2.69,2.59,3.45,-1.64,-1.65,-1.61
75.12,-4.33,-4.33,-2.68,-2.69,2.63,2.55,3.38,-1.70,-1.70,-1.65
75.87,-4.33,-4.29,-2.65,-2.61,2.59,2.52,3.32,-1.74,-1.70,-1.67
76.63,-4.22,-4.23,-2.51,-2.52,2.57,2.50,3.25,-1.65,-1.66,-1.71
77.40,-4.16,-4.20,-2.43,-2.47,2.55,2.49,3.18,-1.61,-1.65,-1.73
78.17,-4.20,-4.22,-2.44,-2.47,2.53,2.48,3.11,-1.67,-1.69,-1.76
78.95,-4.32,-4.28,-2.55,-2.51,2.50,2.48,3.04,-1.82,-1.78,-1.77
79.74,-4.33,-4.33,-2.55,-2.54,2.47,2.48,2.98,-1.86,-1.86,-1.78
80.54,-4.33,-4.36,-2.52,-2.55,2.44,2.49,2.92,-1.89,-1.91,-1.81
81.35,-4.33,-4.31,-2.51,-2.49,2.43,2.49,2.85,-1.90,-1.88,-1.82
82.16,-4.28,-4.22,-2.45,-2.40,2.43,2.51,2.79,-1.85,-1.80,-1.83
82.98,-4.10,-4.16,-2.28,-2.33,2.42,2.52,2.73,-1.68,-1.74,-1.82
83.81,-4.10,-4.16,-2.27,-2.33,2.42,2.54,2.68,-1.68,-1.74,-1.83
84.65,-4.25,-4.21,-2.41,-2.38,2.42,2.56,2.62,-1.83,-1.79,-1.84
85.50,-4.33,-4.30,-2.50,-2.46,2.41,2.59,2.57,-1.91,-1.88,-1.83
86.35,-4.33,-4.34,-2.50,-2.51,2.42,2.62,2.51,-1.91,-1.92,-1.83
87.22,-4.33,-4.34,-2.50,-2.51,2.44,2.65,2.46,-1.89,-1.89,-1.83
88.09,-4.33,-4.33,-2.50,-2.51,2.48,2.68,2.41,-1.85,-1.85,-1.83
88.97,-4.33,-4.32,-2.52,-2.50,2.52,2.72,2.37,-1.81,-1.80,-1.81
89.86,-4.33,-4.33,-2.52,-2.52,2.57,2.76,2.32,-1.76,-1.76,-1.81
90.76,-4.35,-4.38,-2.53,-2.56,2.63,2.82,2.28,-1.72,-1.75,-1.82
91.66,-4.49,-4.49,-2.68,-2.66,2.71,2.88,2.24,-1.78,-1.77,-1.81
92.58,-4.64,-4.65,-2.80,-2.82,2.83,2.95,2.20,-1.81,-1.81,-1.84
93.51,-4.84,-4.81,-3.01,-2.98,2.99,3.03,2.16,-1.85,-1.83,-1.83
94.44,-5.00,-4.99,-3.15,-3.14,3.16,3.13,2.12,-1.84,-1.82,-1.85
95.39,-5.13,-5.18,-3.27,-3.32,3.34,3.23,2.09,-1.79,-1.84,-1.86
96.34,-5.39,-5.38,-3.50,-3.49,3.51,3.34,2.06,-1.88,-1.87,-1.89
97.30,-5.61,-5.59,-3.70,-3.68,3.65,3.46,2.02,-1.96,-1.93,-1.91
98.28,-5.75,-5.77,-3.81,-3.84,3.76,3.56,1.99,-1.99,-2.01,-1.94
99.26,-5.89,-5.88,-3.93,-3.92,3.82,3.66,1.96,-2.07,-2.05,-1.96
100.25,-5.92,-5.89,-3.93,-3.90,3.84,3.70,1.94,-2.08,-2.04,-1.99
101.25,-5.85,-5.84,-3.83,-3.82,3.82,3.73,1.91,-2.03,-2.02,-2.02
102.27,-5.70,-5.77,-3.64,-3.71,3.73,3.67,1.88,-1.97,-2.04,-2.06
103.29,-5.70,-5.69,-3.59,-3.59,3.60,3.59,1.86,-2.10,-2.09,-2.11
104.32,-5.65,-5.60,-3.51,-3.45,3.43,3.44,1.83,-2.22,-2.16,-2.14
105.37,-5.47,-5.47,-3.28,-3.28,3.25,3.27,1.81,-2.23,-2.23,-2.19
106.42,-5.28,-5.31,-3.04,-3.06,3.05,3.07,1.79,-2.23,-2.26,-2.24
107.48,-5.14,-5.14,-2.83,-2.83,2.87,2.87,1.77,-2.27,-2.27,-2.31
108.56,-5.02,-4.99,-2.63,-2.61,2.68,2.68,1.75,-2.34,-2.31,-2.39
109.64,-4.87,-4.89,-2.42,-2.44,2.50,2.49,1.73,-2.37,-2.39,-2.45
110.74,-4.79,-4.83,-2.27,-2.31,2.32,2.32,1.70,-2.47,-2.51,-2.52
111.85,-4.79,-4.76,-2.21,-2.17,2.14,2.16,1.68,-2.65,-2.62,-2.58
112.97,-4.76,-4.71,-2.09,-2.04,1.98,2.02,1.66,-2.78,-2.73,-2.67
114.10,-4.56,-4.62,-1.83,-1.88,1.83,1.88,1.64,-2.73,-2.79,-2.73
115.24,-4.53,-4.50,-1.72,-1.69,1.69,1.76,1.62,-2.84,-2.81,-2.81
116.39,-4.40,-4.40,-1.52,-1.52,1.57,1.64,1.60,-2.83,-2.83,-2.88
117.55,-4.33,-4.36,-1.38,-1.41,1.45,1.54,1.58,-2.88,-2.90,-2.95
118.73,-4.33,-4.32,-1.32,-1.31,1.35,1.43,1.55,-2.98,-2.97,-3.01
119.92,-4.33,-4.32,-1.27,-1.26,1.26,1.34,1.53,-3.07,-3.06,-3.06
121.12,-4.33,-4.33,-1.22,-1.22,1.20,1.25,1.51,-3.13,-3.13,-3.11
122.33,-4.33,-4.33,-1.18,-1.19,1.16,1.17,1.48,-3.17,-3.17,-3.15
123.55,-4.33,-4.32,-1.16,-1.14,1.15,1.09,1.46,-3.18,-3.18,-3.17
124.79,-4.33,-4.32,-1.12,-1.11,1.15,1.02,1.43,-3.18,-3.18,-3.21
126.03,-4.33,-4.35,-1.09,-1.11,1.15,0.94,1.40,-3.18,-3.21,-3.24
127.29,-4.40,-4.42,-1.13,-1.14,1.15,0.88,1.37,-3.25,-3.26,-3.27
128.57,-4.51,-4.49,-1.20,-1.18,1.16,0.81,1.34,-3.35,-3.33,-3.31
129.85,-4.56,-4.54,-1.22,-1.20,1.17,0.74,1.31,-3.39,-3.38,-3.34
131.15,-4.56,-4.57,-1.19,-1.20,1.17,0.68,1.28,-3.39,-3.40,-3.37
132.46,-4.56,-4.56,-1.15,-1.16,1.16,0.62,1.24,-3.40,-3.41,-3.41
133.79,-4.56,-4.56,-1.13,-1.12,1.13,0.56,1.21,-3.43,-3.43,-3.43
135.12,-4.56,-4.57,-1.08,-1.10,1.08,0.51,1.17,-3.48,-3.49,-3.48
136.48,-4.56,-4.56,-1.05,-1.06,1.01,0.45,1.14,-3.55,-3.55,-3.51
137.84,-4.56,-4.52,-1.02,-0.97,0.95,0.40,1.10,-3.61,-3.57,-3.54
139.22,-4.44,-4.45,-0.85,-0.86,0.88,0.35,1.06,-3.56,-3.57,-3.59
140.61,-4.35,-4.38,-0.71,-0.75,0.81,0.30,1.02,-3.54,-3.57,-3.64
142.02,-4.33,-4.33,-0.67,-0.67,0.73,0.25,0.98,-3.60,-3.60,-3.66
143.44,-4.33,-4.33,-0.63,-0.63,0.65,0.20,0.94,-3.68,-3.68,-3.70
144.87,-4.33,-4.34,-0.59,-0.60,0.56,0.15,0.90,-3.77,-3.78,-3.74
146.32,-4.33,-4.31,-0.54,-0.53,0.48,0.11,0.86,-3.85,-3.84,-3.79
147.78,-4.28,-4.25,-0.45,-0.42,0.39,0.06,0.82,-3.89,-3.86,-3.83
149.26,-4.16,-4.18,-0.26,-0.28,0.29,0.02,0.78,-3.87,-3.89,-3.90
150.75,-4.10,-4.13,-0.13,-0.16,0.18,-0.02,0.74,-3.92,-3.95,-3.97
152.26,-4.10,-4.10,-0.06,-0.06,0.05,-0.06,0.70,-4.05,-4.05,-4.04
153.78,-4.10,-4.07,0.02,0.05,-0.09,-0.10,0.65,-4.18,-4.16,-4.11
155.32,-4.05,-4.01,0.16,0.19,-0.22,-0.14,0.61,-4.27,-4.23,-4.21
156.88,-3.89,-3.94,0.39,0.34,-0.33,-0.18,0.57,-4.22,-4.27,-4.28
158.44,-3.87,-3.88,0.49,0.48,-0.43,-0.22,0.53,-4.30,-4.31,-4.36
160.03,-3.87,-3.86,0.56,0.57,-0.52,-0.25,0.48,-4.39,-4.37,-4.43
161.63,-3.87,-3.85,0.62,0.63,-0.59,-0.29,0.44,-4.46,-4.44,-4.49
163.24,-3.87,-3.88,0.67,0.66,-0.65,-0.32,0.40,-4.52,-4.53,-4.54
164.88,-3.87,-3.92,0.71,0.66,-0.69,-0.35,0.36,-4.56,-4.60,-4.58
166.53,-4.01,-3.94,0.61,0.68,-0.71,-0.39,0.31,-4.72,-4.65,-4.62
168.19,-3.94,-3.93,0.71,0.71,-0.73,-0.42,0.27,-4.67,-4.67,-4.65
169.87,-3.87,-3.91,0.80,0.76,-0.76,-0.45,0.23,-4.63,-4.67,-4.67
171.57,-3.87,-3.88,0.80,0.79,-0.80,-0.48,0.19,-4.67,-4.68,-4.67
173.29,-3.87,-3.86,0.80,0.81,-0.84,-0.51,0.14,-4.71,-4.69,-4.67
175.02,-3.87,-3.81,0.78,0.86,-0.87,-0.53,0.10,-4.74,-4.68,-4.65
176.77,-3.68,-3.73,0.98,0.92,-0.91,-0.56,0.06,-4.59,-4.64,-4.66
178.54,-3.65,-3.67,1.00,0.98,-0.94,-0.59,0.02,-4.59,-4.61,-4.65
180.32,-3.65,-3.63,1.00,1.01,-0.97,-0.61,-0.03,-4.62,-4.60,-4.65
182.13,-3.65,-3.65,0.99,0.99,-0.99,-0.64,-0.07,-4.64,-4.64,-4.64
183.95,-3.65,-3.65,0.99,0.99,-1.01,-0.66,-0.11,-4.66,-4.66,-4.64
185.79,-3.65,-3.65,1.00,1.00,-1.03,-0.68,-0.15,-4.68,-4.68,-4.65
187.65,-3.65,-3.65,1.02,1.02,-1.03,-0.70,-0.20,-4.68,-4.68,-4.67
189.52,-3.65,-3.65,1.04,1.04,-1.04,-0.72,-0.24,-4.69,-4.69,-4.69
191.42,-3.65,-3.65,1.06,1.06,-1.05,-0.75,-0.28,-4.70,-4.70,-4.71
193.33,-3.65,-3.65,1.08,1.08,-1.07,-0.77,-0.32,-4.72,-4.72,-4.73
195.27,-3.65,-3.65,1.09,1.09,-1.10,-0.79,-0.37,-4.75,-4.75,-4.74
197.22,-3.65,-3.65,1.11,1.11,-1.14,-0.80,-0.41,-4.79,-4.79,-4.76
199.19,-3.65,-3.66,1.14,1.12,-1.17,-0.82,-0.45,-4.82,-4.83,-4.79
201.18,-3.65,-3.63,1.15,1.18,-1.20,-0.84,-0.49,-4.85,-4.83,-4.80
203.19,-3.60,-3.57,1.22,1.26,-1.23,-0.86,-0.53,-4.83,-4.79,-4.82
205.23,-3.48,-3.53,1.36,1.30,-1.25,-0.87,-0.58,-4.73,-4.79,-4.84
207.28,-3.50,-3.54,1.35,1.32,-1.27,-0.89,-0.62,-4.77,-4.81,-4.85
209.35,-3.62,-3.58,1.25,1.30,-1.29,-0.90,-0.66,-4.91,-4.86,-4.87
211.44,-3.65,-3.64,1.25,1.25,-1.29,-0.92,-0.70,-4.94,-4.93,-4.90
213.56,-3.65,-3.65,1.25,1.25,-1.29,-0.93,-0.74,-4.94,-4.94,-4.90
215.69,-3.65,-3.65,1.25,1.26,-1.27,-0.95,-0.77,-4.92,-4.92,-4.90
217.85,-3.65,-3.68,1.28,1.24,-1.24,-0.96,-0.81,-4.89,-4.92,-4.93
220.03,-3.74,-3.74,1.20,1.20,-1.19,-0.97,-0.85,-4.93,-4.94,-4.94
222.23,-3.84,-3.80,1.12,1.16,-1.14,-0.98,-0.89,-4.98,-4.93,-4.96
224.45,-3.87,-3.85,1.09,1.11,-1.07,-1.00,-0.92,-4.94,-4.92,-4.96
226.70,-3.87,-3.94,1.09,1.03,-0.99,-1.01,-0.95,-4.86,-4.93,-4.96
228.96,-4.03,-4.06,0.94,0.91,-0.90,-1.02,-0.99,-4.93,-4.96,-4.97
231.25,-4.26,-4.19,0.71,0.79,-0.81,-1.03,-1.02,-5.07,-4.99,-4.97
233.57,-4.33,-4.31,0.65,0.68,-0.71,-1.04,-1.05,-5.04,-5.02,-4.98
235.90,-4.33,-4.39,0.66,0.60,-0.63,-1.05,-1.07,-4.96,-5.02,-4.99
238.26,-4.44,-4.44,0.55,0.55,-0.55,-1.06,-1.10,-4.99,-5.00,-4.99
240.64,-4.54,-4.51,0.45,0.48,-0.49,-1.07,-1.12,-5.03,-5.00,-4.99
243.05,-4.56,-4.56,0.42,0.42,-0.45,-1.08,-1.15,-5.01,-5.01,-4.98
245.48,-4.56,-4.57,0.42,0.41,-0.42,-1.09,-1.17,-4.98,-4.98,-4.98
247.93,-4.56,-4.56,0.41,0.41,-0.39,-1.10,-1.18,-4.95,-4.95,-4.97
250.41,-4.56,-4.56,0.42,0.41,-0.38,-1.10,-1.20,-4.94,-4.94,-4.98
252.92,-4.56,-4.56,0.40,0.40,-0.38,-1.11,-1.22,-4.94,-4.94,-4.96
255.45,-4.56,-4.56,0.38,0.39,-0.38,-1.12,-1.23,-4.94,-4.95,-4.94
258.00,-4.56,-4.58,0.38,0.36,-0.40,-1.13,-1.24,-4.96,-4.98,-4.94
260.58,-4.56,-4.55,0.37,0.38,-0.42,-1.13,-1.25,-4.98,-4.97,-4.93
263.19,-4.54,-4.48,0.38,0.44,-0.44,-1.14,-1.25,-4.98,-4.93,-4.92
265.82,-4.35,-4.42,0.57,0.50,-0.47,-1.15,-1.26,-4.82,-4.89,-4.92
268.48,-4.33,-4.35,0.56,0.55,-0.52,-1.15,-1.26,-4.85,-4.87,-4.89
271.16,-4.33,-4.28,0.55,0.60,-0.58,-1.16,-1.27,-4.91,-4.86,-4.88
273.87,-4.25,-4.25,0.61,0.61,-0.65,-1.17,-1.27,-4.90,-4.89,-4.86
276.61,-4.12,-4.16,0.71,0.67,-0.72,-1.17,-1.27,-4.84,-4.88,-4.83
279.38,-4.10,-4.06,0.72,0.76,-0.79,-1.18,-1.27,-4.89,-4.85,-4.82
282.17,-3.93,-3.93,0.86,0.86,-0.85,-1.18,-1.27,-4.78,-4.78,-4.79
284.99,-3.82,-3.81,0.95,0.96,-0.91,-1.19,-1.27,-4.73,-4.72,-4.77
287.84,-3.66,-3.70,1.08,1.04,-0.98,-1.20,-1.26,-4.64,-4.68,-4.74
290.72,-3.65,-3.67,1.05,1.04,-1.04,-1.20,-1.26,-4.69,-4.70,-4.70
293.63,-3.65,-3.63,1.03,1.05,-1.08,-1.21,-1.26,-4.73,-4.72,-4.68
296.57,-3.65,-3.59,1.00,1.06,-1.11,-1.21,-1.25,-4.76,-4.70,-4.65
299.53,-3.48,-3.51,1.15,1.12,-1.12,-1.22,-1.25,-4.60,-4.63,-4.63
302.53,-3.42,-3.44,1.19,1.17,-1.10,-1.22,-1.24,-4.52,-4.54,-4.61
305.55,-3.42,-3.45,1.16,1.14,-1.08,-1.23,-1.24,-4.50,-4.52,-4.58
308.61,-3.48,-3.49,1.08,1.06,-1.04,-1.23,-1.24,-4.52,-4.54,-4.56
311.69,-3.63,-3.53,0.91,1.00,-1.01,-1.24,-1.23,-4.64,-4.54,-4.54
314.81,-3.51,-3.57,1.01,0.95,-0.98,-1.24,-1.23,-4.49,-4.55,-4.52
317.96,-3.57,-3.60,0.95,0.92,-0.95,-1.25,-1.23,-4.52,-4.55,-4.52
321.14,-3.65,-3.62,0.87,0.90,-0.93,-1.25,-1.23,-4.58,-4.55,-4.52
324.35,-3.65,-3.64,0.87,0.88,-0.93,-1.26,-1.23,-4.58,-4.56,-4.52
327.59,-3.61,-3.58,0.90,0.93,-0.94,-1.26,-1.23,-4.55,-4.53,-4.51
330.87,-3.47,-3.50,1.03,1.00,-0.98,-1.27,-1.23,-4.45,-4.48,-4.50
334.18,-3.42,-3.46,1.07,1.04,-1.03,-1.27,-1.23,-4.45,-4.48,-4.49
337.52,-3.42,-3.41,1.07,1.08,-1.07,-1.28,-1.23,-4.49,-4.48,-4.49
340.90,-3.42,-3.35,1.04,1.11,-1.11,-1.28,-1.24,-4.53,-4.46,-4.46
344.30,-3.24,-3.28,1.21,1.17,-1.14,-1.29,-1.24,-4.38,-4.43,-4.45
347.75,-3.19,-3.22,1.24,1.21,-1.17,-1.29,-1.24,-4.36,-4.39,-4.43
351.23,-3.19,-3.18,1.22,1.23,-1.20,-1.30,-1.25,-4.39,-4.37,-4.41
354.74,-3.19,-3.20,1.20,1.19,-1.22,-1.30,-1.26,-4.41,-4.42,-4.39
358.28,-3.19,-3.19,1.17,1.17,-1.23,-1.31,-1.27,-4.42,-4.42,-4.36
361.87,-3.19,-3.13,1.15,1.21,-1.24,-1.31,-1.27,-4.43,-4.37,-4.34
365.49,-3.03,-3.06,1.28,1.25,-1.25,-1.32,-1.28,-4.28,-4.31,-4.31
369.14,-2.97,-2.99,1.33,1.30,-1.25,-1.32,-1.30,-4.22,-4.25,-4.30
372.83,-2.96,-2.95,1.31,1.32,-1.27,-1.33,-1.31,-4.23,-4.22,-4.27
376.56,-2.96,-2.97,1.29,1.28,-1.28,-1.33,-1.32,-4.24,-4.25,-4.25
380.33,-2.96,-2.96,1.26,1.27,-1.31,-1.34,-1.33,-4.27,-4.27,-4.22
384.13,-2.96,-2.91,1.24,1.30,-1.33,-1.35,-1.35,-4.29,-4.24,-4.20
387.97,-2.81,-2.84,1.38,1.35,-1.36,-1.35,-1.36,-4.17,-4.20,-4.19
391.85,-2.75,-2.78,1.44,1.40,-1.40,-1.36,-1.38,-4.15,-4.18,-4.19
395.77,-2.74,-2.74,1.44,1.44,-1.43,-1.37,-1.40,-4.17,-4.17,-4.18
399.73,-2.74,-2.70,1.43,1.47,-1.47,-1.37,-1.41,-4.21,-4.17,-4.17
403.72,-2.65,-2.64,1.51,1.52,-1.51,-1.38,-1.43,-4.16,-4.15,-4.16
407.76,-2.54,-2.57,1.61,1.58,-1.55,-1.39,-1.45,-4.09,-4.13,-4.15
411.84,-2.51,-2.52,1.63,1.62,-1.60,-1.39,-1.47,-4.11,-4.12,-4.14
415.96,-2.51,-2.51,1.62,1.62,-1.64,-1.40,-1.49,-4.15,-4.16,-4.13
420.12,-2.51,-2.50,1.63,1.64,-1.69,-1.41,-1.51,-4.20,-4.19,-4.14
424.32,-2.49,-2.44,1.65,1.69,-1.73,-1.42,-1.53,-4.22,-4.17,-4.14
428.56,-2.34,-2.37,1.80,1.77,-1.76,-1.42,-1.55,-4.10,-4.13,-4.14
432.85,-2.28,-2.31,1.86,1.83,-1.78,-1.43,-1.58,-4.06,-4.09,-4.14
437.18,-2.28,-2.27,1.85,1.86,-1.80,-1.44,-1.60,-4.08,-4.07,-4.13
441.55,-2.28,-2.27,1.84,1.85,-1.83,-1.45,-1.62,-4.11,-4.10,-4.12
445.96,-2.28,-2.28,1.84,1.83,-1.86,-1.46,-1.64,-4.14,-4.14,-4.12
