frequency,raw
20.00,-2.21
20.20,-2.10
20.40,-1.99
20.61,-1.88
20.81,-1.78
21.02,-1.67
21.23,-1.58
21.44,-1.48
21.66,-1.39
21.87,-1.30
22.09,-1.21
22.31,-1.13
22.54,-1.05
22.76,-0.97
22.99,-0.89
23.22,-0.82
23.45,-0.75
23.69,-0.69
23.92,-0.64
24.16,-0.59
24.40,-0.55
24.65,-0.52
24.89,-0.48
25.14,-0.45
25.39,-0.44
25.65,-0.44
25.91,-0.43
26.16,-0.43
26.43,-0.42
26.69,-0.41
26.96,-0.41
27.23,-0.40
27.50,-0.39
27.77,-0.37
28.05,-0.35
28.33,-0.32
28.62,-0.28
28.90,-0.24
29.19,-0.19
29.48,-0.14
29.78,-0.09
30.08,-0.04
30.38,-0.00
30.68,0.04
30.99,0.08
31.30,0.13
31.61,0.17
31.93,0.20
32.24,0.25
32.57,0.29
32.89,0.33
33.22,0.37
33.55,0.39
33.89,0.42
34.23,0.44
34.57,0.47
34.92,0.51
35.27,0.55
35.62,0.59
35.97,0.63
36.33,0.67
36.70,0.70
37.06,0.73
37.43,0.75
37.81,0.77
38.19,0.79
38.57,0.81
38.95,0.83
39.34,0.85
39.74,0.87
40.14,0.89
40.54,0.91
40.94,0.92
41.35,0.94
41.76,0.96
42.18,0.99
42.60,1.02
43.03,1.05
43.46,1.08
43.90,1.11
44.33,1.14
44.78,1.16
45.23,1.17
45.68,1.18
46.13,1.19
46.60,1.20
47.06,1.22
47.53,1.22
48.01,1.24
48.49,1.26
48.97,1.29
49.46,1.32
49.96,1.35
50.46,1.38
50.96,1.41
51.47,1.44
51.99,1.47
52.51,1.49
53.03,1.51
53.56,1.53
54.10,1.54
54.64,1.55
55.18,1.54
55.74,1.53
56.29,1.52
56.86,1.51
57.42,1.50
58.00,1.50
58.58,1.50
59.16,1.52
59.76,1.53
60.35,1.55
60.96,1.58
61.57,1.61
62.18,1.64
62.80,1.67
63.43,1.70
64.07,1.73
64.71,1.76
65.35,1.79
66.01,1.81
66.67,1.84
67.33,1.85
68.01,1.86
68.69,1.87
69.37,1.87
70.07,1.86
70.77,1.85
71.48,1.85
72.19,1.85
72.91,1.85
73.64,1.85
74.38,1.85
75.12,1.85
75.87,1.85
76.63,1.85
77.40,1.85
78.17,1.85
78.95,1.85
79.74,1.85
80.54,1.85
81.35,1.85
82.16,1.85
82.98,1.85
83.81,1.85
84.65,1.85
85.50,1.85
86.35,1.85
87.22,1.85
88.09,1.85
88.97,1.85
89.86,1.85
90.76,1.85
91.66,1.85
92.58,1.85
93.51,1.85
94.44,1.85
95.39,1.85
96.34,1.85
97.30,1.85
98.28,1.85
99.26,1.85
100.25,1.85
101.25,1.85
102.27,1.85
103.29,1.85
104.32,1.85
105.37,1.85
106.42,1.85
107.48,1.85
108.56,1.85
109.64,1.85
110.74,1.85
111.85,1.85
112.97,1.85
114.10,1.85
115.24,1.84
116.39,1.83
117.55,1.82
118.73,1.82
119.92,1.83
121.12,1.84
122.33,1.85
123.55,1.88
124.79,1.90
126.03,1.92
127.29,1.94
128.57,1.97
129.85,2.00
131.15,2.04
132.46,2.08
133.79,2.12
135.12,2.17
136.48,2.22
137.84,2.27
139.22,2.31
140.61,2.35
142.02,2.38
143.44,2.40
144.87,2.42
146.32,2.44
147.78,2.47
149.26,2.49
150.75,2.50
152.26,2.51
153.78,2.52
155.32,2.52
156.88,2.51
158.44,2.49
160.03,2.48
161.63,2.47
163.24,2.47
164.88,2.48
166.53,2.49
168.19,2.51
169.87,2.53
171.57,2.56
173.29,2.58
175.02,2.61
176.77,2.65
178.54,2.70
180.32,2.73
182.13,2.76
183.95,2.78
185.79,2.79
187.65,2.79
189.52,2.79
191.42,2.77
193.33,2.75
195.27,2.72
197.22,2.67
199.19,2.63
201.18,2.60
203.19,2.57
205.23,2.54
207.28,2.52
209.35,2.50
211.44,2.48
213.56,2.47
215.69,2.47
217.85,2.47
220.03,2.48
222.23,2.49
224.45,2.49
226.70,2.49
228.96,2.49
231.25,2.49
233.57,2.49
235.90,2.49
238.26,2.49
240.64,2.49
243.05,2.49
245.48,2.49
247.93,2.49
250.41,2.49
252.92,2.49
255.45,2.49
258.00,2.49
260.58,2.49
263.19,2.49
265.82,2.49
268.48,2.49
271.16,2.49
273.87,2.49
276.61,2.49
279.38,2.50
282.17,2.50
284.99,2.51
287.84,2.51
290.72,2.52
293.63,2.51
296.57,2.50
299.53,2.49
302.53,2.47
305.55,2.44
308.61,2.42
311.69,2.39
314.81,2.36
317.96,2.33
321.14,2.30
324.35,2.27
327.59,2.24
330.87,2.21
334.18,2.19
337.52,2.17
340.90,2.16
344.30,2.16
347.75,2.17
351.23,2.18
354.74,2.18
358.28,2.18
361.87,2.17
365.49,2.16
369.14,2.13
372.83,2.11
376.56,2.08
380.33,2.05
384.13,2.02
387.97,1.99
391.85,1.96
395.77,1.93
399.73,1.90
403.72,1.87
407.76,1.86
411.84,1.85
415.96,1.85
420.12,1.85
424.32,1.84
428.56,1.84
432.85,1.83
437.18,1.82
441.55,1.79
445.96,1.76
450.42,1.73
454.93,1.70
459.48,1.67
464.07,1.64
468.71,1.62
473.40,1.60
478.13,1.58
482.91,1.56
487.74,1.53
492.62,1.51
497.55,1.48
502.52,1.46
507.55,1.44
512.62,1.42
517.75,1.40
522.93,1.37
528.16,1.34
533.44,1.31
538.77,1.28
544.16,1.25
549.60,1.23
555.10,1.21
560.65,1.20
566.25,1.20
571.92,1.20
577.64,1.20
583.41,1.19
589.25,1.18
595.14,1.17
601.09,1.14
607.10,1.12
613.17,1.09
619.30,1.06
625.50,1.02
631.75,0.99
638.07,0.96
644.45,0.94
650.89,0.92
657.40,0.91
663.98,0.90
670.62,0.88
677.32,0.86
684.10,0.85
690.94,0.83
697.85,0.82
704.83,0.79
711.87,0.77
718.99,0.74
726.18,0.71
733.44,0.67
740.78,0.64
748.19,0.61
755.67,0.59
763.23,0.58
770.86,0.57
778.57,0.56
786.35,0.55
794.22,0.53
802.16,0.52
810.18,0.51
818.28,0.49
826.46,0.47
834.73,0.44
843.08,0.41
851.51,0.38
860.02,0.35
868.62,0.32
877.31,0.30
886.08,0.28
894.94,0.26
903.89,0.24
912.93,0.22
922.06,0.20
931.28,0.18
940.59,0.17
950.00,0.15
959.50,0.13
969.09,0.10
978.78,0.07
988.57,0.04
998.46,0.00
1008.44,-0.02
1018.53,-0.05
1028.71,-0.07
1039.00,-0.08
1049.39,-0.09
1059.88,-0.10
1070.48,-0.11
1081.19,-0.12
1092.00,-0.13
1102.92,-0.15
1113.95,-0.17
1125.09,-0.20
1136.34,-0.23
1147.70,-0.26
1159.18,-0.29
1170.77,-0.32
1182.48,-0.35
1194.30,-0.38
1206.25,-0.40
1218.31,-0.42
1230.49,-0.44
1242.80,-0.45
1255.22,-0.45
1267.78,-0.44
1280.45,-0.42
1293.26,-0.40
1306.19,-0.40
1319.25,-0.40
1332.45,-0.42
1345.77,-0.43
1359.23,-0.45
1372.82,-0.48
1386.55,-0.51
1400.41,-0.53
1414.42,-0.57
1428.56,-0.60
1442.85,-0.63
1457.28,-0.66
1471.85,-0.69
1486.57,-0.71
1501.43,-0.73
1516.45,-0.75
1531.61,-0.77
1546.93,-0.77
1562.40,-0.76
1578.02,-0.75
1593.80,-0.74
1609.74,-0.73
1625.84,-0.73
1642.10,-0.74
1658.52,-0.76
1675.10,-0.78
1691.85,-0.81
1708.77,-0.83
1725.86,-0.86
1743.12,-0.89
1760.55,-0.92
1778.15,-0.95
1795.94,-0.98
1813.90,-1.01
1832.03,-1.04
1850.36,-1.06
1868.86,-1.08
1887.55,-1.09
1906.42,-1.09
1925.49,-1.09
1944.74,-1.09
1964.19,-1.08
1983.83,-1.08
2003.67,-1.07
2023.71,-1.07
2043.94,-1.07
2064.38,-1.07
2085.03,-1.07
2105.88,-1.07
2126.94,-1.07
2148.20,-1.07
2169.69,-1.06
2191.38,-1.05
2213.30,-1.05
2235.43,-1.05
2257.78,-1.06
2280.36,-1.07
2303.17,-1.09
2326.20,-1.12
2349.46,-1.14
2372.95,-1.17
2396.68,-1.18
2420.65,-1.21
2444.86,-1.24
2469.31,-1.27
2494.00,-1.30
2518.94,-1.34
2544.13,-1.39
2569.57,-1.43
2595.27,-1.47
2621.22,-1.53
2647.43,-1.58
2673.90,-1.63
2700.64,-1.69
2727.65,-1.76
2754.93,-1.84
2782.48,-1.93
2810.30,-2.03
2838.40,-2.13
2866.79,-2.24
2895.46,-2.36
2924.41,-2.48
2953.65,-2.59
2983.19,-2.71
3013.02,-2.84
3043.15,-2.97
3073.58,-3.10
3104.32,-3.22
3135.36,-3.36
3166.72,-3.49
3198.38,-3.62
3230.37,-3.76
3262.67,-3.89
3295.30,-4.01
3328.25,-4.13
3361.53,-4.23
3395.15,-4.32
3429.10,-4.40
3463.39,-4.48
3498.03,-4.53
3533.01,-4.58
3568.34,-4.62
3604.02,-4.66
3640.06,-4.68
3676.46,-4.70
3713.22,-4.70
3750.36,-4.68
3787.86,-4.65
3825.74,-4.62
3864.00,-4.58
3902.64,-4.55
3941.66,-4.51
3981.08,-4.47
4020.89,-4.44
4061.10,-4.41
4101.71,-4.38
4142.73,-4.37
4184.15,-4.35
4226.00,-4.35
4268.26,-4.36
4310.94,-4.38
4354.05,-4.43
4397.59,-4.49
4441.56,-4.59
4485.98,-4.71
4530.84,-4.84
4576.15,-4.97
4621.91,-5.13
4668.13,-5.30
4714.81,-5.48
4761.96,-5.66
4809.58,-5.85
4857.67,-6.02
4906.25,-6.20
4955.31,-6.38
5004.87,-6.54
5054.91,-6.68
5105.46,-6.79
5156.52,-6.87
5208.08,-6.90
5260.16,-6.90
5312.77,-6.87
5365.89,-6.80
5419.55,-6.70
5473.75,-6.57
5528.49,-6.40
5583.77,-6.22
5639.61,-6.01
5696.00,-5.79
5752.96,-5.58
5810.49,-5.36
5868.60,-5.13
5927.28,-4.90
5986.56,-4.68
6046.42,-4.49
6106.89,-4.34
6167.96,-4.19
6229.64,-4.07
6291.93,-3.96
6354.85,-3.88
6418.40,-3.81
6482.58,-3.78
6547.41,-3.78
6612.88,-3.82
6679.01,-3.90
6745.80,-4.02
6813.26,-4.16
6881.39,-4.35
6950.21,-4.57
7019.71,-4.82
7089.91,-5.11
7160.81,-5.43
7232.41,-5.76
7304.74,-6.10
7377.79,-6.45
7451.56,-6.84
7526.08,-7.24
7601.34,-7.61
7677.35,-7.97
7754.13,-8.31
7831.67,-8.64
7909.98,-8.95
7989.08,-9.25
8068.98,-9.53
8149.67,-9.79
8231.16,-10.03
8313.47,-10.25
8396.61,-10.44
8480.57,-10.62
8565.38,-10.78
8651.03,-10.92
8737.54,-11.04
8824.92,-11.14
8913.17,-11.23
9002.30,-11.29
9092.32,-11.34
9183.25,-11.38
9275.08,-11.40
9367.83,-11.38
9461.51,-11.34
9556.12,-11.26
9651.68,-11.16
9748.20,-11.02
9845.68,-10.86
9944.14,-10.66
10043.58,-10.42
10144.02,-10.15
10245.46,-9.87
10347.91,-9.57
10451.39,-9.27
10555.91,-8.97
10661.46,-8.68
10768.08,-8.39
10875.76,-8.13
10984.52,-7.90
11094.36,-7.69
11205.31,-7.51
11317.36,-7.37
11430.53,-7.27
11544.84,-7.19
11660.29,-7.15
11776.89,-7.13
11894.66,-7.15
12013.60,-7.18
12133.74,-7.25
12255.08,-7.34
12377.63,-7.48
12501.41,-7.66
12626.42,-7.88
12752.68,-8.15
12880.21,-8.47
13009.01,-8.86
13139.10,-9.32
13270.49,-9.83
13403.20,-10.39
13537.23,-10.99
13672.60,-11.63
13809.33,-12.32
13947.42,-13.03
14086.90,-13.78
14227.77,-14.57
14370.04,-15.39
14513.74,-16.24
14658.88,-17.13
14805.47,-18.05
14953.52,-19.00
15103.06,-19.98
15254.09,-20.98
15406.63,-21.99
15560.70,-23.00
15716.30,-24.00
15873.47,-24.97
16032.20,-25.91
16192.52,-26.82
16354.45,-27.65
16517.99,-28.41
16683.17,-29.08
16850.01,-29.68
17018.51,-30.18
17188.69,-30.61
17360.58,-30.95
17534.18,-31.21
17709.53,-31.42
17886.62,-31.58
18065.49,-31.78
18246.14,-31.93
18428.60,-32.04
18612.89,-32.12
18799.02,-32.15
18987.01,-32.13
19176.88,-32.08
19368.65,-31.98
19562.33,-31.85
19757.96,-31.67
19955.54,-31.45
