frequency,raw,smoothed,error,error_smoothed,equalization,parametric_eq,fixed_band_eq,equalized_raw,equalized_smoothed,target
20.00,13.63,13.63,4.53,4.53,-4.54,-4.36,-1.85,9.09,9.09,9.10
20.20,13.63,13.63,4.53,4.53,-4.54,-4.36,-1.90,9.09,9.09,9.10
20.40,13.63,13.63,4.53,4.53,-4.53,-4.35,-1.95,9.10,9.10,9.10
20.61,13.63,13.63,4.53,4.53,-4.53,-4.35,-2.01,9.10,9.10,9.10
20.81,13.62,13.63,4.53,4.53,-4.52,-4.35,-2.07,9.10,9.10,9.10
21.02,13.62,13.62,4.53,4.52,-4.52,-4.35,-2.13,9.10,9.10,9.09
21.23,13.61,13.61,4.52,4.51,-4.51,-4.34,-2.19,9.10,9.10,9.09
21.44,13.59,13.59,4.50,4.50,-4.50,-4.34,-2.26,9.10,9.10,9.09
21.66,13.57,13.57,4.48,4.48,-4.48,-4.34,-2.32,9.09,9.09,9.09
21.87,13.55,13.55,4.46,4.46,-4.46,-4.33,-2.39,9.09,9.09,9.09
22.09,13.53,13.53,4.44,4.44,-4.44,-4.33,-2.46,9.09,9.09,9.09
22.31,13.51,13.51,4.42,4.42,-4.42,-4.33,-2.53,9.09,9.09,9.09
22.54,13.49,13.49,4.40,4.40,-4.40,-4.33,-2.60,9.09,9.09,9.09
22.76,13.47,13.47,4.38,4.38,-4.38,-4.32,-2.68,9.09,9.09,9.09
22.99,13.45,13.45,4.36,4.36,-4.36,-4.32,-2.76,9.09,9.09,9.09
23.22,13.43,13.43,4.34,4.34,-4.34,-4.31,-2.84,9.09,9.09,9.09
23.45,13.41,13.41,4.33,4.32,-4.32,-4.31,-2.91,9.09,9.09,9.09
23.69,13.38,13.38,4.30,4.30,-4.29,-4.31,-3.00,9.09,9.09,9.08
23.92,13.35,13.35,4.27,4.27,-4.26,-4.30,-3.08,9.09,9.09,9.08
24.16,13.32,13.32,4.24,4.24,-4.23,-4.30,-3.17,9.09,9.09,9.08
24.40,13.29,13.29,4.21,4.21,-4.20,-4.30,-3.25,9.09,9.08,9.08
24.65,13.25,13.26,4.17,4.18,-4.18,-4.29,-3.34,9.08,9.08,9.08
24.89,13.23,13.23,4.15,4.15,-4.15,-4.29,-3.43,9.08,9.07,9.08
25.14,13.21,13.21,4.13,4.13,-4.14,-4.28,-3.52,9.07,9.07,9.08
25.39,13.20,13.20,4.13,4.13,-4.14,-4.28,-3.61,9.07,9.07,9.08
25.65,13.21,13.21,4.14,4.13,-4.14,-4.27,-3.70,9.07,9.07,9.07
25.91,13.22,13.23,4.15,4.15,-4.16,-4.27,-3.79,9.06,9.06,9.07
26.16,13.26,13.26,4.19,4.19,-4.20,-4.26,-3.88,9.07,9.06,9.07
26.43,13.30,13.30,4.23,4.23,-4.24,-4.26,-3.97,9.06,9.06,9.07
26.69,13.35,13.35,4.28,4.28,-4.30,-4.25,-4.06,9.05,9.05,9.07
26.96,13.41,13.41,4.34,4.35,-4.37,-4.25,-4.14,9.04,9.05,9.07
27.23,13.48,13.49,4.42,4.42,-4.43,-4.24,-4.23,9.05,9.05,9.06
27.50,13.56,13.56,4.50,4.49,-4.49,-4.24,-4.31,9.07,9.06,9.06
27.77,13.62,13.62,4.56,4.56,-4.54,-4.23,-4.39,9.08,9.08,9.06
28.05,13.65,13.66,4.59,4.60,-4.57,-4.22,-4.47,9.08,9.09,9.06
28.33,13.67,13.67,4.61,4.61,-4.57,-4.22,-4.54,9.10,9.09,9.06
28.62,13.65,13.64,4.60,4.59,-4.55,-4.21,-4.61,9.10,9.09,9.05
28.90,13.59,13.59,4.54,4.54,-4.51,-4.20,-4.67,9.08,9.08,9.05
29.19,13.52,13.52,4.47,4.47,-4.46,-4.20,-4.74,9.06,9.06,9.05
29.48,13.43,13.43,4.38,4.38,-4.40,-4.19,-4.79,9.03,9.03,9.05
29.78,13.34,13.35,4.30,4.30,-4.33,-4.18,-4.84,9.01,9.01,9.04
30.08,13.27,13.27,4.23,4.23,-4.27,-4.17,-4.88,9.00,9.00,9.04
30.38,13.22,13.23,4.18,4.19,-4.22,-4.17,-4.91,9.00,9.01,9.04
30.68,13.20,13.20,4.16,4.16,-4.18,-4.16,-4.94,9.02,9.02,9.04
30.99,13.19,13.19,4.16,4.16,-4.16,-4.15,-4.96,9.04,9.03,9.03
31.30,13.18,13.18,4.15,4.15,-4.14,-4.14,-4.98,9.04,9.04,9.03
31.61,13.17,13.17,4.14,4.14,-4.13,-4.13,-4.98,9.04,9.04,9.03
31.93,13.15,13.15,4.13,4.13,-4.12,-4.12,-4.98,9.03,9.04,9.02
32.24,13.14,13.13,4.12,4.11,-4.11,-4.12,-4.98,9.03,9.03,9.02
32.57,13.11,13.11,4.09,4.10,-4.10,-4.11,-4.96,9.02,9.02,9.02
32.89,13.09,13.09,4.08,4.08,-4.08,-4.10,-4.94,9.01,9.01,9.01
33.22,13.07,13.07,4.06,4.06,-4.06,-4.09,-4.92,9.01,9.01,9.01
33.55,13.04,13.04,4.03,4.04,-4.04,-4.08,-4.88,9.00,9.00,9.01
33.89,13.02,13.02,4.02,4.02,-4.02,-4.07,-4.85,9.00,9.00,9.00
34.23,12.99,12.99,3.99,4.00,-4.00,-4.05,-4.81,9.00,9.00,9.00
34.57,12.97,12.97,3.98,3.97,-3.97,-4.04,-4.76,9.00,8.99,8.99
34.92,12.94,12.94,3.95,3.95,-3.95,-4.03,-4.71,8.99,8.99,8.99
35.27,12.91,12.91,3.93,3.93,-3.93,-4.02,-4.65,8.98,8.98,8.98
35.62,12.89,12.89,3.91,3.91,-3.91,-4.01,-4.60,8.98,8.97,8.98
35.97,12.86,12.86,3.89,3.89,-3.89,-4.00,-4.54,8.97,8.97,8.97
36.33,12.84,12.84,3.87,3.87,-3.87,-3.98,-4.48,8.97,8.97,8.97
36.70,12.82,12.82,3.86,3.85,-3.85,-3.97,-4.42,8.97,8.96,8.96
37.06,12.79,12.79,3.83,3.84,-3.83,-3.96,-4.36,8.96,8.96,8.96
37.43,12.77,12.77,3.82,3.82,-3.81,-3.94,-4.29,8.96,8.95,8.95
37.81,12.74,12.74,3.80,3.79,-3.79,-3.93,-4.23,8.95,8.95,8.95
38.19,12.71,12.71,3.77,3.77,-3.77,-3.92,-4.17,8.94,8.94,8.94
38.57,12.68,12.68,3.75,3.75,-3.74,-3.90,-4.10,8.94,8.94,8.93
38.95,12.65,12.65,3.72,3.72,-3.72,-3.89,-4.04,8.93,8.93,8.93
39.34,12.61,12.61,3.69,3.69,-3.70,-3.87,-3.98,8.92,8.92,8.92
39.74,12.58,12.58,3.67,3.67,-3.67,-3.86,-3.92,8.91,8.91,8.91
40.14,12.55,12.55,3.65,3.65,-3.66,-3.84,-3.87,8.90,8.90,8.90
40.54,12.53,12.53,3.64,3.63,-3.64,-3.83,-3.81,8.89,8.89,8.90
40.94,12.51,12.51,3.62,3.63,-3.63,-3.81,-3.76,8.88,8.88,8.89
41.35,12.50,12.50,3.62,3.62,-3.62,-3.79,-3.71,8.88,8.88,8.88
41.76,12.49,12.49,3.62,3.62,-3.62,-3.78,-3.66,8.87,8.87,8.87
42.18,12.48,12.48,3.62,3.62,-3.62,-3.76,-3.61,8.86,8.87,8.86
42.60,12.47,12.47,3.62,3.62,-3.61,-3.74,-3.57,8.86,8.86,8.85
43.03,12.46,12.46,3.62,3.62,-3.61,-3.72,-3.53,8.85,8.85,8.84
43.46,12.44,12.44,3.61,3.61,-3.61,-3.71,-3.49,8.83,8.84,8.83
43.90,12.43,12.43,3.61,3.61,-3.60,-3.69,-3.45,8.83,8.82,8.82
44.33,12.41,12.41,3.60,3.60,-3.60,-3.67,-3.41,8.81,8.81,8.81
44.78,12.39,12.39,3.59,3.59,-3.59,-3.65,-3.38,8.80,8.80,8.80
45.23,12.37,12.37,3.58,3.58,-3.59,-3.63,-3.35,8.79,8.79,8.79
45.68,12.35,12.35,3.57,3.57,-3.58,-3.61,-3.33,8.77,8.77,8.78
46.13,12.33,12.33,3.57,3.57,-3.57,-3.60,-3.30,8.76,8.76,8.76
46.60,12.31,12.31,3.56,3.56,-3.56,-3.58,-3.28,8.75,8.75,8.75
47.06,12.29,12.29,3.55,3.55,-3.55,-3.56,-3.26,8.74,8.74,8.74
47.53,12.26,12.26,3.54,3.54,-3.54,-3.54,-3.25,8.72,8.73,8.72
48.01,12.24,12.24,3.53,3.53,-3.53,-3.52,-3.23,8.71,8.71,8.71
48.49,12.21,12.21,3.52,3.52,-3.52,-3.50,-3.22,8.70,8.70,8.69
48.97,12.18,12.18,3.50,3.50,-3.50,-3.48,-3.21,8.68,8.68,8.68
49.46,12.15,12.15,3.49,3.49,-3.49,-3.46,-3.21,8.66,8.66,8.66
49.96,12.12,12.12,3.47,3.47,-3.47,-3.44,-3.20,8.65,8.65,8.65
50.46,12.09,12.09,3.46,3.46,-3.46,-3.43,-3.20,8.63,8.63,8.63
50.96,12.06,12.06,3.45,3.45,-3.45,-3.41,-3.20,8.61,8.61,8.61
51.47,12.03,12.03,3.44,3.44,-3.44,-3.39,-3.20,8.59,8.59,8.59
51.99,12.00,12.00,3.43,3.43,-3.43,-3.37,-3.20,8.57,8.57,8.58
52.51,11.97,11.97,3.41,3.42,-3.42,-3.36,-3.20,8.55,8.55,8.56
53.03,11.95,11.95,3.41,3.41,-3.41,-3.34,-3.20,8.54,8.53,8.54
53.56,11.92,11.92,3.40,3.41,-3.41,-3.32,-3.21,8.51,8.51,8.52
54.10,11.90,11.90,3.41,3.40,-3.40,-3.31,-3.22,8.50,8.50,8.49
54.64,11.87,11.87,3.40,3.40,-3.40,-3.29,-3.22,8.47,8.47,8.47
55.18,11.85,11.85,3.40,3.40,-3.40,-3.28,-3.23,8.45,8.45,8.45
55.74,11.82,11.82,3.39,3.39,-3.39,-3.27,-3.24,8.43,8.43,8.43
56.29,11.79,11.79,3.39,3.39,-3.39,-3.25,-3.25,8.40,8.41,8.40
56.86,11.76,11.76,3.38,3.38,-3.38,-3.24,-3.26,8.38,8.38,8.38
57.42,11.73,11.73,3.38,3.38,-3.38,-3.23,-3.26,8.36,8.35,8.35
58.00,11.69,11.69,3.37,3.37,-3.37,-3.22,-3.27,8.32,8.33,8.33
58.58,11.66,11.66,3.36,3.36,-3.36,-3.21,-3.28,8.30,8.30,8.30
59.16,11.62,11.62,3.35,3.35,-3.35,-3.20,-3.29,8.27,8.27,8.27
59.76,11.59,11.59,3.35,3.35,-3.35,-3.20,-3.29,8.24,8.24,8.24
60.35,11.55,11.55,3.34,3.34,-3.34,-3.19,-3.30,8.21,8.21,8.21
60.96,11.51,11.52,3.33,3.33,-3.33,-3.19,-3.30,8.18,8.18,8.18
61.57,11.48,11.48,3.33,3.33,-3.33,-3.19,-3.31,8.15,8.15,8.15
62.18,11.44,11.44,3.32,3.32,-3.32,-3.18,-3.31,8.12,8.12,8.12
62.80,11.40,11.40,3.32,3.32,-3.31,-3.18,-3.31,8.09,8.09,8.08
63.43,11.35,11.35,3.30,3.30,-3.30,-3.19,-3.31,8.05,8.05,8.05
64.07,11.31,11.31,3.30,3.29,-3.29,-3.19,-3.31,8.02,8.01,8.01
64.71,11.26,11.26,3.28,3.28,-3.29,-3.19,-3.31,7.97,7.97,7.98
65.35,11.22,11.22,3.28,3.28,-3.28,-3.20,-3.30,7.94,7.94,7.94
66.01,11.17,11.17,3.27,3.27,-3.28,-3.21,-3.30,7.89,7.90,7.90
66.67,11.13,11.13,3.27,3.27,-3.27,-3.21,-3.29,7.86,7.86,7.86
67.33,11.09,11.09,3.27,3.27,-3.26,-3.22,-3.29,7.83,7.83,7.82
68.01,11.05,11.05,3.27,3.26,-3.25,-3.24,-3.28,7.80,7.79,7.78
68.69,11.00,11.00,3.26,3.26,-3.24,-3.25,-3.28,7.76,7.75,7.74
69.37,10.94,10.94,3.24,3.24,-3.23,-3.26,-3.27,7.71,7.71,7.70
70.07,10.88,10.88,3.23,3.23,-3.22,-3.28,-3.27,7.66,7.66,7.65
70.77,10.82,10.82,3.21,3.21,-3.22,-3.29,-3.26,7.60,7.61,7.61
71.48,10.77,10.77,3.21,3.21,-3.21,-3.31,-3.25,7.56,7.56,7.56
72.19,10.72,10.72,3.20,3.21,-3.22,-3.33,-3.25,7.50,7.50,7.52
72.91,10.68,10.68,3.21,3.22,-3.23,-3.35,-3.25,7.45,7.45,7.47
73.64,10.66,10.66,3.24,3.24,-3.25,-3.37,-3.24,7.41,7.41,7.42
74.38,10.64,10.65,3.27,3.28,-3.28,-3.40,-3.24,7.36,7.36,7.37
75.12,10.64,10.64,3.32,3.32,-3.32,-3.42,-3.24,7.32,7.32,7.32
75.87,10.64,10.64,3.38,3.37,-3.37,-3.45,-3.24,7.27,7.27,7.26
76.63,10.63,10.63,3.42,3.42,-3.42,-3.47,-3.24,7.21,7.21,7.21
77.40,10.63,10.63,3.47,3.47,-3.47,-3.50,-3.25,7.16,7.16,7.16
78.17,10.63,10.63,3.53,3.53,-3.53,-3.53,-3.25,7.10,7.10,7.10
78.95,10.62,10.62,3.58,3.58,-3.57,-3.55,-3.26,7.05,7.05,7.05
79.74,10.61,10.61,3.62,3.63,-3.62,-3.58,-3.27,6.99,7.00,6.99
80.54,10.60,10.60,3.67,3.67,-3.66,-3.61,-3.28,6.94,6.94,6.93
81.35,10.57,10.57,3.70,3.70,-3.69,-3.64,-3.30,6.88,6.88,6.87
82.16,10.53,10.53,3.72,3.72,-3.72,-3.67,-3.31,6.81,6.82,6.81
82.98,10.49,10.49,3.74,3.74,-3.74,-3.70,-3.33,6.75,6.75,6.75
83.81,10.44,10.44,3.75,3.76,-3.76,-3.73,-3.35,6.68,6.68,6.69
84.65,10.40,10.40,3.78,3.77,-3.78,-3.76,-3.38,6.62,6.62,6.62
85.50,10.35,10.35,3.79,3.79,-3.80,-3.79,-3.40,6.55,6.55,6.56
86.35,10.31,10.31,3.81,3.81,-3.82,-3.83,-3.43,6.49,6.49,6.50
87.22,10.26,10.26,3.83,3.83,-3.84,-3.86,-3.47,6.42,6.42,6.43
88.09,10.22,10.22,3.86,3.86,-3.86,-3.89,-3.50,6.36,6.37,6.37
88.97,10.18,10.18,3.88,3.88,-3.87,-3.92,-3.54,6.31,6.31,6.30
89.86,10.13,10.13,3.90,3.90,-3.88,-3.95,-3.58,6.25,6.25,6.23
90.76,10.07,10.07,3.91,3.91,-3.89,-3.98,-3.62,6.18,6.18,6.16
91.66,10.00,10.00,3.91,3.90,-3.89,-4.01,-3.66,6.11,6.11,6.09
92.58,9.92,9.92,3.90,3.90,-3.89,-4.04,-3.71,6.03,6.03,6.03
93.51,9.84,9.85,3.89,3.89,-3.90,-4.07,-3.76,5.94,5.95,5.96
94.44,9.78,9.78,3.90,3.89,-3.91,-4.10,-3.81,5.87,5.87,5.89
95.39,9.72,9.72,3.91,3.91,-3.93,-4.13,-3.87,5.79,5.79,5.81
96.34,9.68,9.68,3.94,3.94,-3.96,-4.16,-3.93,5.72,5.73,5.74
97.30,9.66,9.66,3.99,3.99,-4.00,-4.19,-3.98,5.66,5.66,5.67
98.28,9.64,9.64,4.04,4.04,-4.05,-4.22,-4.05,5.59,5.60,5.60
99.26,9.63,9.63,4.10,4.10,-4.10,-4.25,-4.11,5.53,5.53,5.53
100.25,9.62,9.62,4.17,4.17,-4.16,-4.28,-4.17,5.46,5.46,5.46
101.25,9.61,9.61,4.23,4.23,-4.22,-4.30,-4.24,5.40,5.39,5.38
102.27,9.59,9.59,4.28,4.28,-4.27,-4.33,-4.31,5.32,5.32,5.31
103.29,9.56,9.56,4.32,4.32,-4.31,-4.36,-4.37,5.25,5.25,5.24
104.32,9.52,9.52,4.36,4.36,-4.35,-4.38,-4.44,5.17,5.17,5.16
105.37,9.48,9.48,4.39,4.39,-4.38,-4.41,-4.51,5.10,5.09,5.09
106.42,9.43,9.43,4.41,4.41,-4.41,-4.43,-4.58,5.02,5.02,5.02
107.48,9.37,9.38,4.43,4.43,-4.43,-4.45,-4.64,4.94,4.94,4.94
108.56,9.32,9.32,4.45,4.45,-4.45,-4.48,-4.71,4.87,4.87,4.87
109.64,9.26,9.26,4.46,4.46,-4.46,-4.50,-4.78,4.80,4.80,4.80
110.74,9.20,9.20,4.47,4.48,-4.48,-4.52,-4.84,4.72,4.73,4.73
111.85,9.15,9.15,4.50,4.49,-4.49,-4.54,-4.90,4.66,4.65,4.65
112.97,9.09,9.09,4.51,4.51,-4.51,-4.57,-4.96,4.58,4.58,4.58
114.10,9.03,9.04,4.52,4.53,-4.53,-4.59,-5.01,4.50,4.51,4.51
115.24,8.99,8.99,4.55,4.55,-4.55,-4.61,-5.06,4.44,4.43,4.44
116.39,8.94,8.94,4.57,4.58,-4.58,-4.62,-5.11,4.36,4.36,4.37
117.55,8.91,8.91,4.61,4.61,-4.61,-4.64,-5.15,4.30,4.29,4.30
118.73,8.87,8.87,4.64,4.65,-4.65,-4.66,-5.19,4.23,4.23,4.23
119.92,8.84,8.84,4.68,4.68,-4.68,-4.68,-5.22,4.16,4.16,4.16
121.12,8.81,8.81,4.72,4.72,-4.72,-4.69,-5.25,4.10,4.09,4.09
122.33,8.77,8.77,4.75,4.75,-4.75,-4.71,-5.26,4.02,4.03,4.02
123.55,8.74,8.74,4.79,4.78,-4.78,-4.72,-5.28,3.96,3.96,3.95
124.79,8.70,8.70,4.81,4.81,-4.81,-4.74,-5.28,3.89,3.89,3.89
126.03,8.66,8.66,4.84,4.84,-4.84,-4.75,-5.29,3.82,3.82,3.82
127.29,8.62,8.62,4.86,4.86,-4.86,-4.76,-5.28,3.76,3.76,3.76
128.57,8.57,8.57,4.88,4.88,-4.88,-4.78,-5.27,3.69,3.69,3.69
129.85,8.53,8.53,4.90,4.90,-4.90,-4.79,-5.25,3.63,3.63,3.63
131.15,8.48,8.48,4.92,4.92,-4.91,-4.80,-5.23,3.57,3.56,3.56
132.46,8.43,8.43,4.93,4.93,-4.93,-4.81,-5.20,3.50,3.50,3.50
133.79,8.37,8.37,4.93,4.93,-4.93,-4.82,-5.17,3.44,3.44,3.44
135.12,8.32,8.32,4.94,4.94,-4.94,-4.82,-5.12,3.38,3.38,3.38
136.48,8.26,8.26,4.94,4.94,-4.94,-4.83,-5.08,3.32,3.32,3.32
137.84,8.20,8.20,4.94,4.94,-4.94,-4.84,-5.03,3.26,3.26,3.26
139.22,8.14,8.14,4.94,4.94,-4.93,-4.84,-4.98,3.21,3.21,3.20
140.61,8.08,8.08,4.93,4.93,-4.93,-4.84,-4.93,3.15,3.15,3.15
142.02,8.01,8.02,4.92,4.92,-4.92,-4.85,-4.88,3.09,3.09,3.09
143.44,7.95,7.95,4.91,4.91,-4.91,-4.85,-4.82,3.04,3.04,3.04
144.87,7.89,7.89,4.91,4.90,-4.90,-4.85,-4.76,2.99,2.98,2.98
146.32,7.82,7.82,4.89,4.89,-4.89,-4.85,-4.70,2.93,2.93,2.93
147.78,7.76,7.76,4.88,4.88,-4.89,-4.85,-4.64,2.88,2.88,2.88
149.26,7.70,7.70,4.87,4.87,-4.88,-4.85,-4.58,2.82,2.82,2.83
150.75,7.65,7.65,4.87,4.87,-4.87,-4.84,-4.52,2.78,2.78,2.78
152.26,7.60,7.60,4.87,4.87,-4.87,-4.84,-4.46,2.73,2.73,2.73
153.78,7.55,7.55,4.87,4.87,-4.87,-4.83,-4.40,2.69,2.69,2.68
155.32,7.50,7.50,4.86,4.86,-4.86,-4.82,-4.34,2.64,2.64,2.64
156.88,7.45,7.45,4.86,4.86,-4.86,-4.82,-4.28,2.59,2.59,2.59
158.44,7.40,7.40,4.85,4.85,-4.86,-4.81,-4.23,2.55,2.55,2.55
160.03,7.35,7.35,4.85,4.85,-4.85,-4.80,-4.17,2.50,2.50,2.50
161.63,7.30,7.30,4.85,4.84,-4.84,-4.78,-4.13,2.46,2.46,2.45
163.24,7.24,7.24,4.83,4.83,-4.82,-4.77,-4.08,2.42,2.42,2.41
164.88,7.18,7.18,4.81,4.81,-4.81,-4.76,-4.03,2.37,2.37,2.37
166.53,7.12,7.12,4.79,4.79,-4.79,-4.74,-3.99,2.33,2.33,2.33
168.19,7.06,7.06,4.77,4.77,-4.77,-4.72,-3.95,2.29,2.29,2.29
169.87,7.00,7.00,4.75,4.75,-4.75,-4.71,-3.91,2.25,2.25,2.26
171.57,6.95,6.95,4.73,4.73,-4.73,-4.69,-3.88,2.22,2.21,2.22
173.29,6.89,6.89,4.71,4.71,-4.71,-4.66,-3.84,2.18,2.18,2.18
175.02,6.84,6.84,4.69,4.69,-4.69,-4.64,-3.82,2.15,2.15,2.15
176.77,6.78,6.78,4.67,4.66,-4.66,-4.62,-3.79,2.12,2.12,2.12
178.54,6.72,6.72,4.64,4.64,-4.63,-4.59,-3.77,2.09,2.09,2.08
180.32,6.65,6.65,4.60,4.60,-4.60,-4.57,-3.74,2.05,2.05,2.05
182.13,6.59,6.59,4.57,4.57,-4.57,-4.54,-3.73,2.02,2.02,2.02
183.95,6.52,6.52,4.53,4.53,-4.54,-4.51,-3.71,1.99,1.99,1.99
185.79,6.46,6.46,4.50,4.50,-4.50,-4.48,-3.70,1.96,1.96,1.96
187.65,6.39,6.39,4.46,4.46,-4.46,-4.45,-3.69,1.93,1.93,1.93
189.52,6.33,6.33,4.43,4.43,-4.43,-4.42,-3.69,1.90,1.90,1.90
191.42,6.27,6.27,4.39,4.39,-4.39,-4.39,-3.68,1.88,1.88,1.88
193.33,6.21,6.21,4.36,4.35,-4.35,-4.35,-3.68,1.86,1.86,1.85
195.27,6.14,6.15,4.31,4.32,-4.31,-4.32,-3.68,1.83,1.83,1.83
197.22,6.08,6.08,4.28,4.28,-4.28,-4.28,-3.69,1.80,1.80,1.80
199.19,6.02,6.02,4.24,4.24,-4.24,-4.24,-3.69,1.78,1.78,1.78
201.18,5.95,5.95,4.19,4.20,-4.20,-4.20,-3.70,1.75,1.75,1.76
203.19,5.89,5.89,4.16,4.16,-4.16,-4.16,-3.71,1.73,1.73,1.73
205.23,5.84,5.84,4.13,4.12,-4.12,-4.12,-3.72,1.72,1.71,1.71
207.28,5.78,5.78,4.09,4.09,-4.08,-4.08,-3.73,1.70,1.70,1.69
209.35,5.72,5.72,4.05,4.05,-4.04,-4.03,-3.74,1.68,1.68,1.67
211.44,5.66,5.66,4.01,4.00,-4.00,-3.99,-3.75,1.66,1.65,1.65
213.56,5.59,5.59,3.96,3.96,-3.96,-3.95,-3.76,1.63,1.63,1.63
215.69,5.53,5.53,3.92,3.92,-3.92,-3.90,-3.77,1.61,1.61,1.62
217.85,5.47,5.47,3.87,3.87,-3.87,-3.85,-3.78,1.60,1.60,1.60
220.03,5.40,5.40,3.82,3.82,-3.82,-3.81,-3.79,1.58,1.58,1.58
222.23,5.34,5.34,3.78,3.78,-3.78,-3.76,-3.80,1.56,1.56,1.56
224.45,5.28,5.28,3.73,3.73,-3.73,-3.71,-3.81,1.55,1.55,1.55
226.70,5.21,5.21,3.68,3.68,-3.68,-3.66,-3.81,1.53,1.53,1.53
228.96,5.15,5.15,3.63,3.63,-3.63,-3.61,-3.82,1.52,1.52,1.52
231.25,5.09,5.09,3.59,3.58,-3.58,-3.55,-3.82,1.51,1.50,1.50
233.57,5.02,5.02,3.53,3.54,-3.53,-3.50,-3.81,1.49,1.49,1.49
235.90,4.95,4.95,3.48,3.49,-3.48,-3.45,-3.81,1.47,1.47,1.47
238.26,4.89,4.89,3.44,3.43,-3.43,-3.39,-3.80,1.46,1.45,1.45
240.64,4.82,4.82,3.38,3.38,-3.38,-3.34,-3.78,1.44,1.44,1.44
243.05,4.75,4.75,3.32,3.33,-3.33,-3.29,-3.76,1.42,1.43,1.43
245.48,4.69,4.69,3.27,3.27,-3.27,-3.23,-3.74,1.42,1.41,1.42
247.93,4.62,4.62,3.22,3.22,-3.22,-3.17,-3.71,1.40,1.40,1.41
250.41,4.56,4.56,3.17,3.17,-3.17,-3.12,-3.68,1.39,1.39,1.39
252.92,4.50,4.50,3.12,3.11,-3.11,-3.06,-3.64,1.39,1.38,1.38
255.45,4.43,4.43,3.06,3.06,-3.06,-3.00,-3.59,1.37,1.38,1.37
258.00,4.37,4.37,3.01,3.00,-3.00,-2.94,-3.55,1.37,1.37,1.36
260.58,4.30,4.30,2.95,2.95,-2.94,-2.89,-3.49,1.36,1.36,1.35
263.19,4.23,4.23,2.89,2.89,-2.88,-2.83,-3.44,1.35,1.35,1.34
265.82,4.16,4.16,2.82,2.82,-2.82,-2.77,-3.38,1.34,1.34,1.34
268.48,4.08,4.08,2.75,2.76,-2.76,-2.71,-3.31,1.33,1.33,1.33
271.16,4.01,4.01,2.69,2.69,-2.69,-2.65,-3.24,1.32,1.32,1.32
273.87,3.93,3.93,2.62,2.62,-2.62,-2.59,-3.17,1.31,1.31,1.31
276.61,3.86,3.86,2.56,2.56,-2.56,-2.53,-3.09,1.30,1.30,1.30
279.38,3.79,3.79,2.49,2.49,-2.49,-2.47,-3.01,1.30,1.29,1.30
282.17,3.72,3.72,2.43,2.43,-2.43,-2.41,-2.93,1.29,1.29,1.29
284.99,3.66,3.66,2.37,2.37,-2.37,-2.35,-2.85,1.29,1.29,1.29
287.84,3.60,3.60,2.31,2.31,-2.31,-2.28,-2.76,1.29,1.29,1.30
290.72,3.54,3.54,2.25,2.25,-2.25,-2.22,-2.67,1.29,1.29,1.29
293.63,3.48,3.48,2.20,2.20,-2.20,-2.16,-2.58,1.28,1.29,1.28
296.57,3.43,3.43,2.14,2.14,-2.14,-2.10,-2.49,1.29,1.29,1.29
299.53,3.37,3.37,2.08,2.08,-2.08,-2.04,-2.39,1.29,1.29,1.29
302.53,3.31,3.31,2.02,2.02,-2.02,-1.97,-2.30,1.29,1.29,1.29
305.55,3.25,3.25,1.96,1.96,-1.96,-1.91,-2.21,1.29,1.29,1.29
308.61,3.19,3.19,1.91,1.90,-1.90,-1.85,-2.11,1.29,1.29,1.29
311.69,3.12,3.12,1.83,1.83,-1.84,-1.79,-2.02,1.28,1.29,1.29
314.81,3.06,3.06,1.77,1.77,-1.77,-1.72,-1.92,1.29,1.29,1.29
317.96,2.99,2.99,1.70,1.71,-1.70,-1.66,-1.83,1.29,1.29,1.29
321.14,2.93,2.93,1.64,1.64,-1.64,-1.60,-1.73,1.29,1.29,1.29
324.35,2.86,2.86,1.57,1.57,-1.57,-1.53,-1.64,1.29,1.29,1.29
327.59,2.79,2.79,1.49,1.50,-1.50,-1.47,-1.54,1.29,1.30,1.30
330.87,2.73,2.73,1.44,1.43,-1.43,-1.41,-1.45,1.30,1.30,1.29
334.18,2.66,2.66,1.36,1.36,-1.36,-1.34,-1.36,1.30,1.30,1.30
337.52,2.59,2.59,1.29,1.29,-1.29,-1.28,-1.26,1.30,1.30,1.30
340.90,2.52,2.52,1.22,1.21,-1.22,-1.22,-1.17,1.30,1.30,1.30
344.30,2.45,2.45,1.14,1.15,-1.15,-1.15,-1.08,1.30,1.30,1.31
347.75,2.39,2.39,1.07,1.08,-1.09,-1.09,-0.99,1.30,1.31,1.32
351.23,2.34,2.34,1.03,1.02,-1.02,-1.03,-0.90,1.32,1.31,1.31
354.74,2.28,2.28,0.95,0.96,-0.96,-0.96,-0.81,1.32,1.32,1.33
358.28,2.23,2.23,0.90,0.90,-0.90,-0.90,-0.72,1.33,1.33,1.33
361.87,2.18,2.18,0.85,0.84,-0.84,-0.84,-0.63,1.34,1.34,1.33
365.49,2.12,2.12,0.78,0.79,-0.78,-0.77,-0.55,1.34,1.34,1.34
369.14,2.07,2.07,0.73,0.72,-0.72,-0.71,-0.46,1.35,1.35,1.34
372.83,2.01,2.01,0.65,0.66,-0.66,-0.65,-0.37,1.35,1.35,1.36
376.56,1.95,1.95,0.60,0.60,-0.60,-0.58,-0.29,1.36,1.36,1.35
380.33,1.89,1.89,0.53,0.53,-0.53,-0.52,-0.20,1.36,1.36,1.36
384.13,1.83,1.83,0.47,0.47,-0.46,-0.45,-0.12,1.37,1.37,1.36
387.97,1.77,1.77,0.40,0.40,-0.39,-0.39,-0.03,1.38,1.37,1.37
391.85,1.70,1.70,0.32,0.33,-0.33,-0.33,0.05,1.37,1.38,1.39
395.77,1.64,1.64,0.26,0.25,-0.26,-0.26,0.13,1.38,1.38,1.38
399.73,1.58,1.58,0.19,0.19,-0.20,-0.20,0.22,1.38,1.38,1.39
403.72,1.52,1.52,0.12,0.13,-0.13,-0.14,0.30,1.39,1.39,1.40
407.76,1.47,1.47,0.07,0.07,-0.07,-0.07,0.38,1.40,1.40,1.40
411.84,1.41,1.41,0.01,0.00,-0.00,-0.01,0.46,1.41,1.41,1.41
415.96,1.35,1.35,-0.06,-0.06,0.06,0.05,0.53,1.41,1.42,1.41
420.12,1.29,1.29,-0.12,-0.12,0.13,0.11,0.61,1.42,1.42,1.41
424.32,1.23,1.23,-0.19,-0.19,0.19,0.18,0.69,1.43,1.42,1.42
428.56,1.17,1.17,-0.26,-0.26,0.26,0.24,0.76,1.43,1.43,1.43
432.85,1.10,1.10,-0.34,-0.33,0.33,0.30,0.83,1.43,1.43,1.44
437.18,1.04,1.04,-0.40,-0.40,0.40,0.36,0.90,1.44,1.44,1.44
441.55,0.98,0.98,-0.46,-0.46,0.46,0.43,0.97,1.44,1.44,1.44
445.96,0.93,0.93,-0.52,-0.53,0.52,0.49,1.04,1.45,1.45,1.45
450.42,0.88,0.88,-0.59,-0.59,0.58,0.55,1.10,1.46,1.47,1.47
454.93,0.84,0.84,-0.64,-0.64,0.64,0.61,1.17,1.48,1.48,1.48
459.48,0.79,0.79,-0.70,-0.70,0.69,0.67,1.23,1.49,1.49,1.49
464.07,0.74,0.75,-0.75,-0.75,0.75,0.73,1.28,1.49,1.49,1.49
468.71,0.70,0.70,-0.80,-0.80,0.80,0.79,1.34,1.50,1.50,1.50
473.40,0.65,0.65,-0.86,-0.86,0.86,0.85,1.39,1.51,1.51,1.51
478.13,0.60,0.60,-0.91,-0.91,0.92,0.91,1.44,1.52,1.52,1.52
482.91,0.55,0.55,-0.97,-0.97,0.98,0.97,1.48,1.53,1.53,1.52
487.74,0.50,0.50,-1.03,-1.04,1.04,1.03,1.53,1.54,1.54,1.53
492.62,0.44,0.44,-1.10,-1.10,1.10,1.09,1.57,1.54,1.54,1.54
497.55,0.39,0.39,-1.16,-1.17,1.16,1.15,1.60,1.56,1.55,1.55
502.52,0.33,0.33,-1.23,-1.23,1.23,1.21,1.63,1.56,1.56,1.56
507.55,0.28,0.28,-1.30,-1.29,1.29,1.27,1.66,1.57,1.57,1.58
512.62,0.24,0.24,-1.35,-1.35,1.35,1.33,1.69,1.59,1.58,1.59
517.75,0.19,0.19,-1.41,-1.41,1.41,1.38,1.71,1.60,1.60,1.60
522.93,0.14,0.14,-1.47,-1.46,1.46,1.44,1.73,1.60,1.61,1.61
