frequency,raw,smoothed,error,error_smoothed,equalization,parametric_eq,fixed_band_eq,equalized_raw,equalized_smoothed,target
20.00,11.10,11.11,2.63,2.63,-2.61,-2.97,-1.85,8.49,8.49,8.48
20.20,11.12,11.12,2.65,2.65,-2.64,-2.99,-1.91,8.48,8.48,8.48
20.40,11.15,11.15,2.68,2.67,-2.67,-3.01,-1.96,8.48,8.48,8.47
20.61,11.17,11.17,2.70,2.70,-2.70,-3.04,-2.02,8.47,8.47,8.47
20.81,11.19,11.20,2.72,2.72,-2.74,-3.06,-2.08,8.46,8.46,8.47
21.02,11.22,11.23,2.75,2.75,-2.78,-3.08,-2.14,8.45,8.45,8.47
21.23,11.27,11.27,2.80,2.80,-2.82,-3.10,-2.20,8.46,8.45,8.47
21.44,11.32,11.32,2.85,2.85,-2.86,-3.13,-2.26,8.46,8.46,8.47
21.66,11.38,11.38,2.91,2.91,-2.92,-3.15,-2.32,8.47,8.47,8.47
21.87,11.44,11.44,2.97,2.97,-2.97,-3.17,-2.39,8.47,8.47,8.47
22.09,11.50,11.50,3.03,3.04,-3.03,-3.19,-2.46,8.48,8.48,8.47
22.31,11.56,11.56,3.10,3.09,-3.08,-3.22,-2.53,8.48,8.48,8.47
22.54,11.61,11.61,3.14,3.14,-3.13,-3.24,-2.60,8.48,8.48,8.47
22.76,11.65,11.65,3.19,3.18,-3.18,-3.27,-2.68,8.47,8.47,8.47
22.99,11.68,11.69,3.22,3.22,-3.22,-3.29,-2.75,8.46,8.47,8.47
23.22,11.72,11.72,3.26,3.26,-3.26,-3.31,-2.83,8.46,8.46,8.46
23.45,11.76,11.76,3.30,3.30,-3.30,-3.34,-2.91,8.46,8.46,8.46
23.69,11.79,11.80,3.33,3.33,-3.34,-3.36,-2.99,8.46,8.46,8.46
23.92,11.83,11.83,3.37,3.37,-3.37,-3.39,-3.07,8.46,8.46,8.46
24.16,11.87,11.87,3.41,3.41,-3.41,-3.41,-3.16,8.46,8.46,8.46
24.40,11.91,11.91,3.45,3.45,-3.45,-3.43,-3.24,8.46,8.46,8.46
24.65,11.95,11.95,3.50,3.49,-3.50,-3.46,-3.33,8.46,8.46,8.46
24.89,11.99,11.99,3.54,3.54,-3.54,-3.48,-3.42,8.45,8.45,8.46
25.14,12.03,12.04,3.58,3.58,-3.59,-3.51,-3.51,8.44,8.44,8.45
25.39,12.08,12.09,3.63,3.63,-3.65,-3.53,-3.60,8.44,8.44,8.45
25.65,12.14,12.14,3.69,3.69,-3.70,-3.56,-3.69,8.44,8.44,8.45
25.91,12.20,12.20,3.75,3.75,-3.75,-3.59,-3.78,8.45,8.45,8.45
26.16,12.25,12.25,3.80,3.81,-3.79,-3.61,-3.87,8.46,8.46,8.45
26.43,12.30,12.30,3.85,3.85,-3.83,-3.64,-3.96,8.47,8.47,8.45
26.69,12.33,12.33,3.89,3.89,-3.87,-3.66,-4.04,8.47,8.46,8.45
26.96,12.35,12.35,3.91,3.91,-3.89,-3.69,-4.13,8.46,8.46,8.44
27.23,12.36,12.36,3.92,3.92,-3.92,-3.72,-4.22,8.45,8.45,8.44
27.50,12.37,12.37,3.93,3.93,-3.94,-3.74,-4.30,8.44,8.43,8.44
27.77,12.37,12.38,3.94,3.94,-3.96,-3.77,-4.39,8.42,8.42,8.44
28.05,12.39,12.40,3.96,3.96,-3.98,-3.80,-4.47,8.42,8.42,8.44
28.33,12.42,12.42,3.99,3.99,-4.00,-3.82,-4.54,8.42,8.42,8.43
28.62,12.46,12.46,4.03,4.03,-4.03,-3.85,-4.62,8.44,8.43,8.43
28.90,12.49,12.50,4.06,4.07,-4.06,-3.88,-4.69,8.44,8.44,8.43
29.19,12.53,12.53,4.11,4.10,-4.09,-3.90,-4.75,8.44,8.44,8.43
29.48,12.56,12.56,4.14,4.13,-4.13,-3.93,-4.81,8.43,8.43,8.42
29.78,12.58,12.59,4.16,4.16,-4.17,-3.96,-4.87,8.41,8.42,8.42
30.08,12.61,12.62,4.19,4.20,-4.21,-3.98,-4.92,8.40,8.40,8.42
30.38,12.65,12.65,4.24,4.24,-4.25,-4.01,-4.97,8.40,8.40,8.42
30.68,12.69,12.70,4.28,4.28,-4.28,-4.04,-5.01,8.41,8.41,8.41
30.99,12.74,12.74,4.33,4.33,-4.31,-4.07,-5.04,8.43,8.43,8.41
31.30,12.77,12.77,4.36,4.36,-4.34,-4.09,-5.07,8.43,8.43,8.41
31.61,12.79,12.79,4.39,4.38,-4.36,-4.12,-5.09,8.43,8.43,8.41
31.93,12.79,12.79,4.39,4.39,-4.39,-4.15,-5.10,8.41,8.41,8.40
32.24,12.79,12.80,4.39,4.40,-4.41,-4.18,-5.12,8.38,8.38,8.40
32.57,12.80,12.80,4.41,4.41,-4.44,-4.20,-5.12,8.37,8.37,8.39
32.89,12.82,12.83,4.43,4.44,-4.46,-4.23,-5.12,8.36,8.37,8.39
33.22,12.86,12.86,4.48,4.47,-4.49,-4.26,-5.11,8.38,8.38,8.39
33.55,12.90,12.90,4.52,4.52,-4.51,-4.28,-5.11,8.39,8.39,8.38
33.89,12.94,12.94,4.56,4.56,-4.54,-4.31,-5.09,8.40,8.40,8.38
34.23,12.97,12.97,4.60,4.59,-4.57,-4.34,-5.07,8.40,8.40,8.38
34.57,12.98,12.98,4.61,4.61,-4.60,-4.36,-5.05,8.38,8.38,8.37
34.92,12.99,12.99,4.63,4.63,-4.63,-4.39,-5.03,8.36,8.36,8.37
35.27,13.00,13.01,4.64,4.64,-4.66,-4.42,-5.00,8.34,8.35,8.36
35.62,13.02,13.03,4.67,4.67,-4.68,-4.44,-4.97,8.34,8.34,8.36
35.97,13.05,13.05,4.70,4.70,-4.71,-4.47,-4.95,8.35,8.35,8.35
36.33,13.08,13.08,4.74,4.73,-4.73,-4.50,-4.92,8.35,8.35,8.35
36.70,13.10,13.10,4.76,4.76,-4.76,-4.52,-4.88,8.35,8.35,8.34
37.06,13.12,13.12,4.79,4.79,-4.78,-4.55,-4.85,8.34,8.34,8.34
37.43,13.13,13.14,4.80,4.81,-4.81,-4.57,-4.82,8.32,8.33,8.33
37.81,13.15,13.15,4.83,4.83,-4.83,-4.60,-4.79,8.32,8.32,8.32
38.19,13.16,13.17,4.85,4.85,-4.85,-4.62,-4.77,8.31,8.32,8.32
38.57,13.18,13.18,4.87,4.87,-4.86,-4.65,-4.74,8.32,8.31,8.31
38.95,13.18,13.18,4.88,4.88,-4.87,-4.67,-4.71,8.31,8.31,8.30
39.34,13.18,13.19,4.89,4.89,-4.88,-4.70,-4.69,8.30,8.31,8.30
39.74,13.18,13.18,4.89,4.89,-4.89,-4.72,-4.67,8.30,8.30,8.29
40.14,13.17,13.17,4.89,4.89,-4.89,-4.75,-4.65,8.28,8.28,8.28
40.54,13.16,13.16,4.89,4.89,-4.90,-4.77,-4.64,8.27,8.27,8.27
40.94,13.15,13.15,4.89,4.89,-4.90,-4.79,-4.62,8.25,8.25,8.27
41.35,13.15,13.16,4.90,4.90,-4.91,-4.82,-4.61,8.24,8.25,8.26
41.76,13.16,13.17,4.91,4.92,-4.92,-4.84,-4.60,8.24,8.25,8.25
42.18,13.18,13.18,4.94,4.94,-4.93,-4.86,-4.60,8.25,8.24,8.24
42.60,13.19,13.19,4.96,4.96,-4.95,-4.88,-4.60,8.24,8.24,8.23
43.03,13.19,13.19,4.97,4.97,-4.97,-4.90,-4.60,8.22,8.22,8.22
43.46,13.19,13.20,4.98,4.99,-4.99,-4.92,-4.61,8.20,8.20,8.21
43.90,13.20,13.21,5.00,5.01,-5.01,-4.94,-4.62,8.19,8.20,8.20
44.33,13.22,13.22,5.03,5.03,-5.03,-4.96,-4.63,8.20,8.20,8.19
44.78,13.24,13.24,5.07,5.06,-5.04,-4.98,-4.65,8.20,8.19,8.18
45.23,13.23,13.23,5.07,5.07,-5.06,-5.00,-4.67,8.17,8.17,8.17
45.68,13.22,13.22,5.07,5.06,-5.07,-5.02,-4.70,8.15,8.14,8.15
46.13,13.19,13.21,5.05,5.06,-5.08,-5.04,-4.72,8.11,8.12,8.14
46.60,13.20,13.21,5.07,5.08,-5.08,-5.05,-4.75,8.12,8.13,8.13
47.06,13.22,13.22,5.11,5.10,-5.08,-5.07,-4.79,8.14,8.14,8.12
47.53,13.23,13.22,5.13,5.12,-5.08,-5.08,-4.83,8.15,8.14,8.10
48.01,13.19,13.18,5.11,5.10,-5.09,-5.10,-4.87,8.11,8.10,8.09
48.49,13.13,13.14,5.06,5.06,-5.10,-5.11,-4.91,8.04,8.04,8.07
48.97,13.09,13.11,5.04,5.05,-5.11,-5.12,-4.96,7.99,8.00,8.06
49.46,13.10,13.12,5.06,5.08,-5.11,-5.14,-5.01,7.99,8.01,8.04
49.96,13.16,13.15,5.14,5.13,-5.12,-5.15,-5.06,8.05,8.04,8.03
50.46,13.18,13.18,5.17,5.17,-5.12,-5.16,-5.11,8.06,8.06,8.01
50.96,13.18,13.16,5.19,5.17,-5.13,-5.17,-5.17,8.05,8.03,7.99
51.47,13.11,13.12,5.14,5.15,-5.14,-5.18,-5.22,7.97,7.98,7.97
51.99,13.06,13.08,5.11,5.12,-5.15,-5.18,-5.28,7.92,7.93,7.95
52.51,13.04,13.05,5.11,5.12,-5.15,-5.19,-5.34,7.89,7.90,7.93
53.03,13.05,13.05,5.14,5.13,-5.14,-5.19,-5.40,7.91,7.91,7.91
53.56,13.05,13.04,5.16,5.15,-5.13,-5.20,-5.46,7.92,7.91,7.89
54.10,13.02,13.02,5.15,5.15,-5.12,-5.20,-5.52,7.90,7.90,7.87
54.64,12.98,12.98,5.13,5.13,-5.12,-5.20,-5.58,7.86,7.86,7.85
55.18,12.94,12.95,5.11,5.12,-5.13,-5.20,-5.64,7.82,7.82,7.83
55.74,12.91,12.92,5.11,5.11,-5.13,-5.20,-5.69,7.78,7.78,7.80
56.29,12.90,12.90,5.12,5.12,-5.14,-5.20,-5.75,7.76,7.76,7.78
56.86,12.89,12.89,5.14,5.14,-5.15,-5.19,-5.80,7.75,7.74,7.76
57.42,12.88,12.89,5.15,5.16,-5.15,-5.19,-5.84,7.73,7.73,7.73
58.00,12.88,12.88,5.18,5.18,-5.16,-5.19,-5.89,7.72,7.72,7.70
58.58,12.87,12.87,5.20,5.19,-5.17,-5.18,-5.92,7.70,7.70,7.68
59.16,12.85,12.84,5.20,5.20,-5.18,-5.17,-5.96,7.67,7.66,7.65
59.76,12.80,12.80,5.18,5.18,-5.19,-5.17,-5.99,7.62,7.61,7.62
60.35,12.75,12.76,5.16,5.17,-5.19,-5.16,-6.01,7.57,7.57,7.59
60.96,12.71,12.73,5.15,5.17,-5.18,-5.16,-6.03,7.53,7.55,7.56
61.57,12.70,12.71,5.18,5.18,-5.17,-5.15,-6.04,7.53,7.54,7.53
62.18,12.70,12.68,5.21,5.18,-5.16,-5.14,-6.04,7.54,7.52,7.50
62.80,12.63,12.63,5.17,5.17,-5.16,-5.14,-6.04,7.48,7.47,7.46
63.43,12.56,12.57,5.13,5.14,-5.15,-5.14,-6.03,7.41,7.42,7.43
64.07,12.49,12.51,5.10,5.12,-5.14,-5.14,-6.02,7.35,7.37,7.39
64.71,12.48,12.48,5.13,5.12,-5.14,-5.14,-6.00,7.35,7.34,7.36
65.35,12.45,12.45,5.13,5.13,-5.12,-5.14,-5.97,7.33,7.32,7.32
66.01,12.41,12.41,5.13,5.13,-5.11,-5.14,-5.94,7.30,7.30,7.28
66.67,12.36,12.36,5.12,5.12,-5.10,-5.15,-5.90,7.26,7.26,7.24
67.33,12.30,12.30,5.10,5.10,-5.09,-5.16,-5.86,7.21,7.21,7.20
68.01,12.23,12.24,5.07,5.08,-5.08,-5.16,-5.81,7.15,7.16,7.16
68.69,12.18,12.19,5.06,5.07,-5.08,-5.17,-5.76,7.11,7.11,7.12
69.37,12.14,12.14,5.07,5.06,-5.07,-5.18,-5.70,7.07,7.07,7.08
70.07,12.10,12.09,5.07,5.05,-5.07,-5.19,-5.65,7.04,7.02,7.03
70.77,12.02,12.04,5.04,5.06,-5.07,-5.20,-5.59,6.96,6.98,6.99
71.48,11.99,12.00,5.05,5.06,-5.07,-5.21,-5.52,6.92,6.94,6.94
72.19,11.98,11.96,5.09,5.07,-5.07,-5.22,-5.46,6.92,6.90,6.89
72.91,11.93,11.93,5.09,5.08,-5.06,-5.23,-5.40,6.87,6.87,6.85
73.64,11.86,11.89,5.07,5.09,-5.05,-5.23,-5.33,6.81,6.84,6.80
74.38,11.82,11.82,5.08,5.07,-5.04,-5.24,-5.27,6.78,6.78,6.75
75.12,11.78,11.74,5.09,5.04,-5.03,-5.25,-5.20,6.75,6.70,6.69
75.87,11.63,11.66,4.99,5.02,-5.04,-5.25,-5.14,6.60,6.62,6.64
76.63,11.57,11.60,4.98,5.01,-5.05,-5.25,-5.08,6.52,6.54,6.59
77.40,11.57,11.56,5.04,5.02,-5.08,-5.25,-5.02,6.49,6.47,6.53
78.17,11.57,11.57,5.09,5.09,-5.13,-5.25,-4.96,6.44,6.44,6.48
78.95,11.58,11.60,5.16,5.18,-5.20,-5.25,-4.90,6.39,6.40,6.42
79.74,11.64,11.63,5.28,5.26,-5.27,-5.24,-4.85,6.38,6.36,6.37
80.54,11.66,11.66,5.36,5.35,-5.33,-5.24,-4.80,6.33,6.33,6.31
81.35,11.66,11.69,5.41,5.44,-5.39,-5.23,-4.75,6.27,6.30,6.25
82.16,11.69,11.67,5.50,5.48,-5.41,-5.22,-4.70,6.28,6.25,6.19
82.98,11.63,11.63,5.51,5.50,-5.41,-5.21,-4.66,6.22,6.22,6.13
83.81,11.52,11.55,5.46,5.49,-5.41,-5.20,-4.62,6.11,6.14,6.07
84.65,11.45,11.40,5.45,5.40,-5.42,-5.19,-4.58,6.04,5.98,6.00
85.50,11.29,11.30,5.35,5.36,-5.45,-5.18,-4.55,5.85,5.85,5.94
86.35,11.12,11.20,5.25,5.33,-5.49,-5.16,-4.52,5.63,5.71,5.87
87.22,11.25,11.11,5.44,5.30,-5.53,-5.15,-4.49,5.72,5.58,5.81
88.09,11.11,11.26,5.37,5.52,-5.56,-5.13,-4.47,5.55,5.70,5.74
88.97,11.27,11.43,5.60,5.75,-5.58,-5.11,-4.45,5.69,5.84,5.68
89.86,11.80,11.43,6.19,5.82,-5.60,-5.09,-4.43,6.20,5.82,5.61
90.76,11.29,11.33,5.75,5.79,-5.60,-5.07,-4.42,5.69,5.73,5.54
91.66,10.91,11.09,5.44,5.62,-5.58,-5.05,-4.41,5.33,5.51,5.47
92.58,10.83,10.80,5.43,5.39,-5.53,-5.03,-4.40,5.30,5.27,5.40
93.51,10.71,10.69,5.38,5.36,-5.46,-5.01,-4.40,5.25,5.23,5.33
94.44,10.60,10.60,5.34,5.33,-5.37,-4.98,-4.40,5.24,5.23,5.26
95.39,10.47,10.45,5.28,5.26,-5.28,-4.96,-4.40,5.19,5.17,5.19
96.34,10.30,10.32,5.18,5.20,-5.22,-4.93,-4.40,5.08,5.10,5.12
97.30,10.20,10.23,5.15,5.18,-5.18,-4.91,-4.41,5.02,5.04,5.05
98.28,10.16,10.17,5.18,5.19,-5.17,-4.88,-4.42,4.99,4.99,4.98
99.26,10.12,10.09,5.22,5.19,-5.17,-4.85,-4.44,4.95,4.92,4.91
100.25,10.03,10.00,5.20,5.16,-5.16,-4.82,-4.45,4.87,4.84,4.83
101.25,9.83,9.90,5.07,5.14,-5.15,-4.79,-4.47,4.68,4.76,4.76
102.27,9.81,9.82,5.13,5.13,-5.14,-4.76,-4.49,4.67,4.68,4.69
103.29,9.79,9.74,5.18,5.13,-5.12,-4.73,-4.51,4.67,4.62,4.61
104.32,9.66,9.67,5.12,5.13,-5.10,-4.70,-4.53,4.56,4.57,4.54
105.37,9.55,9.56,5.08,5.09,-5.07,-4.67,-4.55,4.48,4.49,4.47
106.42,9.44,9.44,5.05,5.04,-5.05,-4.63,-4.58,4.40,4.39,4.40
107.48,9.33,9.33,5.01,5.01,-5.02,-4.60,-4.60,4.31,4.31,4.32
108.56,9.21,9.21,4.96,4.96,-4.99,-4.57,-4.62,4.23,4.23,4.25
109.64,9.11,9.12,4.94,4.94,-4.95,-4.53,-4.65,4.16,4.17,4.18
110.74,9.01,9.03,4.91,4.92,-4.92,-4.50,-4.67,4.09,4.11,4.10
111.85,8.96,8.93,4.93,4.90,-4.89,-4.46,-4.69,4.08,4.04,4.03
112.97,8.82,8.83,4.86,4.87,-4.86,-4.42,-4.70,3.96,3.97,3.96
114.10,8.69,8.72,4.80,4.83,-4.84,-4.39,-4.72,3.86,3.89,3.89
115.24,8.63,8.61,4.82,4.79,-4.81,-4.35,-4.73,3.83,3.80,3.82
116.39,8.51,8.52,4.77,4.77,-4.77,-4.31,-4.74,3.74,3.74,3.75
117.55,8.41,8.42,4.74,4.75,-4.74,-4.27,-4.75,3.68,3.69,3.68
118.73,8.32,8.32,4.72,4.71,-4.70,-4.23,-4.75,3.63,3.62,3.61
119.92,8.21,8.21,4.68,4.68,-4.66,-4.20,-4.75,3.56,3.55,3.54
121.12,8.09,8.09,4.63,4.62,-4.62,-4.16,-4.74,3.47,3.47,3.47
122.33,7.96,7.96,4.56,4.56,-4.58,-4.12,-4.73,3.38,3.38,3.40
123.55,7.82,7.85,4.49,4.52,-4.54,-4.08,-4.71,3.28,3.31,3.33
124.79,7.75,7.75,4.49,4.49,-4.49,-4.04,-4.69,3.26,3.26,3.27
126.03,7.67,7.66,4.47,4.46,-4.45,-4.00,-4.67,3.23,3.21,3.20
127.29,7.56,7.56,4.43,4.43,-4.40,-3.96,-4.63,3.16,3.16,3.13
128.57,7.43,7.43,4.36,4.36,-4.35,-3.91,-4.60,3.08,3.08,3.07
129.85,7.30,7.30,4.30,4.30,-4.31,-3.87,-4.55,2.99,3.00,3.01
131.15,7.17,7.19,4.23,4.25,-4.26,-3.83,-4.51,2.91,2.93,2.94
132.46,7.09,7.09,4.21,4.21,-4.21,-3.79,-4.46,2.88,2.88,2.88
133.79,6.99,6.98,4.17,4.16,-4.16,-3.75,-4.40,2.84,2.82,2.82
135.12,6.86,6.87,4.10,4.11,-4.11,-3.71,-4.34,2.76,2.76,2.76
136.48,6.74,6.75,4.04,4.05,-4.06,-3.66,-4.28,2.68,2.69,2.70
137.84,6.64,6.64,4.00,4.00,-4.01,-3.62,-4.21,2.63,2.63,2.64
139.22,6.54,6.54,3.96,3.96,-3.96,-3.58,-4.14,2.58,2.58,2.58
140.61,6.44,6.44,3.92,3.92,-3.91,-3.53,-4.07,2.53,2.53,2.53
142.02,6.34,6.34,3.87,3.87,-3.85,-3.49,-4.00,2.49,2.49,2.47
143.44,6.23,6.23,3.82,3.81,-3.79,-3.45,-3.92,2.44,2.44,2.42
144.87,6.11,6.10,3.75,3.74,-3.73,-3.41,-3.84,2.38,2.37,2.36
146.32,5.96,5.97,3.65,3.66,-3.67,-3.36,-3.76,2.29,2.30,2.31
147.78,5.83,5.85,3.57,3.59,-3.61,-3.32,-3.68,2.22,2.24,2.26
149.26,5.74,5.73,3.54,3.53,-3.54,-3.28,-3.60,2.20,2.19,2.21
150.75,5.64,5.63,3.48,3.47,-3.47,-3.23,-3.52,2.17,2.15,2.16
152.26,5.50,5.52,3.39,3.41,-3.40,-3.19,-3.44,2.10,2.12,2.11
153.78,5.40,5.41,3.34,3.35,-3.33,-3.14,-3.36,2.07,2.08,2.06
155.32,5.30,5.30,3.29,3.28,-3.26,-3.10,-3.28,2.04,2.04,2.02
156.88,5.18,5.17,3.21,3.20,-3.19,-3.06,-3.21,2.00,1.99,1.97
158.44,5.04,5.04,3.12,3.11,-3.12,-3.01,-3.13,1.93,1.92,1.93
160.03,4.88,4.91,3.00,3.03,-3.05,-2.97,-3.05,1.84,1.86,1.88
161.63,4.79,4.79,2.96,2.95,-2.98,-2.92,-2.98,1.81,1.81,1.83
163.24,4.69,4.69,2.90,2.90,-2.92,-2.88,-2.90,1.77,1.77,1.79
164.88,4.60,4.61,2.85,2.86,-2.86,-2.84,-2.83,1.74,1.74,1.75
166.53,4.52,4.52,2.81,2.81,-2.81,-2.79,-2.76,1.72,1.71,1.71
168.19,4.43,4.43,2.76,2.76,-2.75,-2.75,-2.69,1.68,1.68,1.67
169.87,4.33,4.35,2.70,2.71,-2.69,-2.70,-2.63,1.64,1.65,1.63
171.57,4.25,4.24,2.66,2.65,-2.63,-2.66,-2.56,1.62,1.61,1.60
173.29,4.15,4.14,2.59,2.58,-2.56,-2.61,-2.50,1.59,1.58,1.56
175.02,4.00,4.03,2.48,2.50,-2.49,-2.57,-2.44,1.51,1.54,1.53
176.77,3.91,3.89,2.42,2.40,-2.41,-2.52,-2.38,1.50,1.48,1.49
178.54,3.77,3.77,2.31,2.31,-2.33,-2.48,-2.32,1.45,1.44,1.46
180.32,3.63,3.67,2.20,2.24,-2.25,-2.43,-2.26,1.39,1.42,1.43
182.13,3.58,3.56,2.19,2.17,-2.17,-2.39,-2.21,1.41,1.39,1.40
183.95,3.48,3.47,2.12,2.10,-2.10,-2.35,-2.15,1.38,1.37,1.37
185.79,3.36,3.36,2.02,2.03,-2.03,-2.30,-2.10,1.34,1.34,1.34
187.65,3.25,3.26,1.94,1.95,-1.96,-2.26,-2.05,1.29,1.30,1.31
189.52,3.16,3.18,1.88,1.90,-1.90,-2.21,-2.01,1.27,1.29,1.28
191.42,3.13,3.12,1.88,1.87,-1.84,-2.17,-1.96,1.29,1.28,1.26
193.33,3.06,3.03,1.83,1.80,-1.80,-2.12,-1.92,1.26,1.23,1.23
195.27,2.94,2.93,1.74,1.72,-1.76,-2.08,-1.87,1.18,1.17,1.21
197.22,2.77,2.85,1.59,1.67,-1.72,-2.03,-1.83,1.06,1.13,1.18
199.19,2.81,2.80,1.66,1.64,-1.67,-1.99,-1.79,1.15,1.13,1.16
201.18,2.80,2.77,1.67,1.64,-1.61,-1.94,-1.75,1.20,1.17,1.13
203.19,2.72,2.74,1.61,1.63,-1.53,-1.90,-1.71,1.19,1.21,1.11
205.23,2.64,2.61,1.55,1.52,-1.45,-1.85,-1.68,1.19,1.17,1.09
207.28,2.47,2.46,1.40,1.39,-1.36,-1.81,-1.64,1.11,1.10,1.07
209.35,2.26,2.32,1.21,1.27,-1.28,-1.76,-1.61,0.99,1.04,1.05
211.44,2.18,2.19,1.15,1.16,-1.20,-1.72,-1.57,0.98,0.99,1.03
213.56,2.13,2.07,1.12,1.06,-1.15,-1.67,-1.54,0.99,0.92,1.01
215.69,2.01,2.01,1.02,1.02,-1.10,-1.63,-1.51,0.91,0.91,0.99
217.85,1.87,1.99,0.90,1.01,-1.07,-1.58,-1.47,0.81,0.92,0.98
220.03,2.07,2.00,1.11,1.04,-1.04,-1.53,-1.44,1.03,0.95,0.96
222.23,2.05,2.04,1.11,1.10,-1.02,-1.49,-1.41,1.03,1.02,0.94
224.45,2.03,2.06,1.11,1.13,-1.00,-1.44,-1.38,1.04,1.06,0.93
226.70,2.00,1.97,1.09,1.06,-0.98,-1.40,-1.34,1.02,0.99,0.91
228.96,1.88,1.86,0.99,0.97,-0.97,-1.35,-1.31,0.91,0.89,0.90
231.25,1.73,1.75,0.85,0.87,-0.96,-1.31,-1.28,0.77,0.79,0.88
233.57,1.63,1.68,0.77,0.81,-0.94,-1.26,-1.25,0.69,0.73,0.87
235.90,1.68,1.67,0.84,0.82,-0.91,-1.22,-1.21,0.77,0.76,0.84
238.26,1.72,1.73,0.89,0.89,-0.87,-1.17,-1.18,0.85,0.85,0.83
240.64,1.76,1.77,0.94,0.95,-0.83,-1.12,-1.14,0.94,0.94,0.82
243.05,1.78,1.74,0.98,0.93,-0.79,-1.08,-1.11,0.99,0.95,0.81
245.48,1.64,1.62,0.85,0.83,-0.76,-1.03,-1.07,0.88,0.86,0.79
247.93,1.47,1.48,0.69,0.70,-0.73,-0.99,-1.03,0.74,0.75,0.78
250.41,1.29,1.36,0.52,0.59,-0.69,-0.94,-1.00,0.60,0.67,0.77
252.92,1.33,1.30,0.57,0.54,-0.66,-0.89,-0.96,0.67,0.64,0.76
255.45,1.34,1.32,0.59,0.56,-0.63,-0.85,-0.92,0.71,0.69,0.75
258.00,1.31,1.38,0.57,0.64,-0.62,-0.80,-0.88,0.70,0.76,0.74
260.58,1.43,1.40,0.70,0.67,-0.62,-0.75,-0.83,0.81,0.78,0.73
263.19,1.44,1.37,0.72,0.65,-0.63,-0.71,-0.79,0.82,0.74,0.72
265.82,1.32,1.38,0.61,0.67,-0.63,-0.66,-0.74,0.69,0.75,0.71
268.48,1.27,1.38,0.57,0.68,-0.63,-0.61,-0.70,0.64,0.75,0.71
271.16,1.48,1.33,0.79,0.63,-0.63,-0.57,-0.65,0.86,0.70,0.70
273.87,1.31,1.27,0.62,0.58,-0.60,-0.52,-0.60,0.72,0.68,0.69
276.61,1.05,1.20,0.37,0.52,-0.55,-0.47,-0.56,0.51,0.65,0.68
279.38,1.14,1.13,0.47,0.45,-0.49,-0.42,-0.51,0.66,0.64,0.67
282.17,1.15,1.12,0.49,0.45,-0.42,-0.38,-0.45,0.73,0.70,0.67
284.99,1.14,1.11,0.47,0.44,-0.35,-0.33,-0.40,0.79,0.76,0.67
287.84,1.00,1.00,0.33,0.33,-0.29,-0.28,-0.35,0.71,0.70,0.67
290.72,0.85,0.86,0.19,0.19,-0.24,-0.23,-0.30,0.61,0.62,0.67
293.63,0.73,0.78,0.07,0.11,-0.19,-0.18,-0.24,0.54,0.58,0.66
296.57,0.73,0.76,0.07,0.09,-0.14,-0.14,-0.19,0.59,0.61,0.67
299.53,0.82,0.77,0.15,0.10,-0.10,-0.09,-0.13,0.72,0.66,0.67
302.53,0.77,0.77,0.11,0.10,-0.06,-0.04,-0.08,0.71,0.71,0.66
305.55,0.72,0.74,0.05,0.08,-0.04,0.01,-0.02,0.69,0.71,0.67
308.61,0.69,0.68,0.03,0.02,-0.02,0.06,0.04,0.67,0.66,0.66
311.69,0.65,0.65,-0.02,-0.02,-0.00,0.11,0.09,0.65,0.64,0.67
314.81,0.59,0.62,-0.07,-0.04,0.03,0.15,0.15,0.62,0.65,0.66
317.96,0.60,0.60,-0.07,-0.07,0.08,0.20,0.21,0.68,0.68,0.67
321.14,0.58,0.56,-0.08,-0.11,0.14,0.25,0.27,0.72,0.70,0.66
324.35,0.50,0.50,-0.17,-0.17,0.21,0.30,0.33,0.71,0.71,0.67
327.59,0.39,0.41,-0.28,-0.27,0.28,0.35,0.39,0.67,0.69,0.68
330.87,0.30,0.31,-0.37,-0.36,0.35,0.40,0.46,0.66,0.66,0.67
334.18,0.23,0.22,-0.45,-0.46,0.43,0.45,0.52,0.66,0.65,0.68
337.52,0.14,0.14,-0.53,-0.54,0.51,0.50,0.58,0.65,0.65,0.67
340.90,0.06,0.08,-0.62,-0.61,0.58,0.55,0.65,0.65,0.66,0.68
344.30,0.02,0.03,-0.66,-0.66,0.65,0.60,0.71,0.68,0.68,0.69
347.75,-0.01,-0.02,-0.70,-0.71,0.72,0.65,0.78,0.72,0.70,0.69
351.23,-0.06,-0.07,-0.75,-0.77,0.79,0.70,0.84,0.73,0.72,0.69
354.74,-0.15,-0.13,-0.86,-0.83,0.85,0.75,0.91,0.71,0.72,0.71
358.28,-0.20,-0.20,-0.90,-0.90,0.92,0.80,0.98,0.72,0.72,0.71
361.87,-0.26,-0.26,-0.97,-0.98,0.97,0.85,1.05,0.72,0.71,0.71
365.49,-0.32,-0.33,-1.04,-1.05,1.03,0.90,1.12,0.71,0.70,0.72
369.14,-0.41,-0.39,-1.12,-1.11,1.08,0.95,1.19,0.67,0.69,0.72
372.83,-0.44,-0.43,-1.17,-1.16,1.13,1.00,1.26,0.70,0.71,0.73
376.56,-0.45,-0.45,-1.18,-1.18,1.18,1.05,1.33,0.74,0.74,0.73
380.33,-0.45,-0.46,-1.19,-1.20,1.23,1.10,1.40,0.78,0.77,0.74
384.13,-0.50,-0.50,-1.23,-1.24,1.28,1.15,1.47,0.78,0.77,0.74
387.97,-0.57,-0.56,-1.31,-1.31,1.32,1.20,1.55,0.75,0.76,0.75
391.85,-0.63,-0.62,-1.39,-1.38,1.37,1.25,1.62,0.74,0.74,0.76
395.77,-0.68,-0.67,-1.44,-1.44,1.42,1.30,1.70,0.74,0.75,0.76
399.73,-0.71,-0.71,-1.48,-1.48,1.47,1.35,1.77,0.76,0.76,0.77
403.72,-0.74,-0.75,-1.51,-1.52,1.52,1.40,1.84,0.79,0.78,0.78
407.76,-0.79,-0.79,-1.56,-1.57,1.58,1.45,1.92,0.79,0.78,0.78
411.84,-0.86,-0.84,-1.64,-1.62,1.63,1.50,1.99,0.77,0.79,0.78
415.96,-0.88,-0.88,-1.67,-1.67,1.67,1.54,2.06,0.79,0.79,0.79
420.12,-0.92,-0.92,-1.71,-1.71,1.71,1.59,2.14,0.79,0.79,0.79
424.32,-0.95,-0.95,-1.75,-1.75,1.75,1.64,2.21,0.80,0.80,0.80
428.56,-1.00,-0.99,-1.80,-1.80,1.79,1.69,2.28,0.79,0.80,0.81
432.85,-1.03,-1.02,-1.84,-1.84,1.83,1.74,2.35,0.80,0.80,0.82
437.18,-1.05,-1.05,-1.86,-1.87,1.86,1.78,2.41,0.82,0.82,0.81
441.55,-1.07,-1.07,-1.89,-1.89,1.90,1.83,2.48,0.83,0.83,0.82
445.96,-1.09,-1.09,-1.92,-1.92,1.93,1.88,2.54,0.85,0.85,0.83
450.42,-1.12,-1.12,-1.97,-1.97,1.97,1.92,2.60,0.85,0.85,0.85
454.93,-1.15,-1.15,-2.01,-2.01,2.01,1.97,2.66,0.86,0.86,0.86
459.48,-1.19,-1.18,-2.05,-2.05,2.05,2.01,2.71,0.86,0.86,0.87
464.07,-1.22,-1.21,-2.08,-2.08,2.08,2.05,2.76,0.87,0.87,0.87
468.71,-1.24,-1.25,-2.11,-2.12,2.12,2.10,2.81,0.88,0.88,0.88
473.40,-1.28,-1.27,-2.16,-2.16,2.15,2.14,2.85,0.88,0.88,0.88
478.13,-1.30,-1.30,-2.19,-2.19,2.18,2.18,2.89,0.88,0.88,0.89
482.91,-1.32,-1.32,-2.22,-2.22,2.21,2.22,2.92,0.89,0.89,0.90
487.74,-1.34,-1.33,-2.25,-2.24,2.24,2.26,2.95,0.90,0.91,0.91
492.62,-1.33,-1.34,-2.25,-2.26,2.27,2.30,2.97,0.94,0.93,0.92
497.55,-1.35,-1.34,-2.28,-2.27,2.29,2.34,2.99,0.95,0.96,0.93
502.52,-1.36,-1.35,-2.30,-2.29,2.32,2.37,3.01,0.96,0.97,0.94
507.55,-1.35,-1.39,-2.31,-2.35,2.34,2.41,3.02,0.99,0.95,0.96
512.62,-1.45,-1.43,-2.41,-2.39,2.36,2.44,3.02,0.92,0.94,0.97
517.75,-1.48,-1.45,-2.45,-2.42,2.39,2.48,3.02,0.91,0.95,0.98
