frequency,raw,error,smoothed,error_smoothed,equalization,parametric_eq,fixed_band_eq,equalized_raw,equalized_smoothed,target
20.00,-3.06,-3.65,-3.07,-3.69,3.69,3.76,1.07,0.63,0.62,0.59
20.20,-3.03,-3.67,-3.03,-3.69,3.69,3.73,1.10,0.66,0.66,0.64
20.40,-2.99,-3.68,-3.00,-3.69,3.69,3.71,1.14,0.70,0.69,0.69
20.61,-2.96,-3.68,-2.96,-3.69,3.69,3.68,1.17,0.73,0.73,0.72
20.81,-2.93,-3.70,-2.92,-3.68,3.68,3.65,1.21,0.75,0.76,0.77
21.02,-2.90,-3.71,-2.89,-3.67,3.67,3.62,1.25,0.77,0.78,0.81
21.23,-2.85,-3.68,-2.85,-3.66,3.66,3.59,1.29,0.80,0.81,0.83
21.44,-2.81,-3.66,-2.81,-3.64,3.64,3.57,1.33,0.83,0.83,0.85
21.66,-2.76,-3.63,-2.77,-3.62,3.62,3.54,1.37,0.86,0.85,0.87
21.87,-2.72,-3.60,-2.72,-3.60,3.60,3.51,1.42,0.88,0.87,0.88
22.09,-2.67,-3.57,-2.68,-3.57,3.57,3.48,1.46,0.90,0.89,0.90
22.31,-2.63,-3.54,-2.64,-3.54,3.54,3.45,1.51,0.91,0.90,0.91
22.54,-2.59,-3.50,-2.59,-3.50,3.50,3.42,1.56,0.91,0.91,0.91
22.76,-2.55,-3.46,-2.55,-3.46,3.46,3.38,1.61,0.90,0.91,0.91
22.99,-2.51,-3.41,-2.50,-3.41,3.41,3.35,1.66,0.90,0.91,0.90
23.22,-2.46,-3.36,-2.45,-3.36,3.36,3.32,1.71,0.90,0.91,0.90
23.45,-2.41,-3.31,-2.40,-3.31,3.31,3.29,1.76,0.90,0.91,0.90
23.69,-2.36,-3.27,-2.35,-3.27,3.27,3.26,1.81,0.91,0.91,0.91
23.92,-2.31,-3.22,-2.31,-3.23,3.23,3.22,1.87,0.92,0.92,0.91
24.16,-2.26,-3.18,-2.27,-3.19,3.19,3.19,1.92,0.92,0.91,0.92
24.40,-2.21,-3.14,-2.23,-3.14,3.14,3.16,1.98,0.93,0.91,0.93
24.65,-2.16,-3.08,-2.19,-3.10,3.10,3.12,2.04,0.94,0.91,0.92
24.89,-2.11,-3.03,-2.15,-3.07,3.07,3.09,2.10,0.95,0.92,0.92
25.14,-2.08,-3.00,-2.11,-3.03,3.03,3.06,2.15,0.95,0.92,0.92
25.39,-2.06,-2.99,-2.07,-2.99,2.99,3.02,2.21,0.93,0.92,0.92
25.65,-2.04,-2.97,-2.03,-2.95,2.95,2.99,2.27,0.90,0.92,0.92
25.91,-2.03,-2.95,-1.98,-2.90,2.90,2.96,2.33,0.87,0.92,0.91
26.16,-1.98,-2.89,-1.94,-2.86,2.86,2.92,2.39,0.88,0.92,0.91
26.43,-1.93,-2.84,-1.89,-2.81,2.81,2.89,2.45,0.88,0.92,0.91
26.69,-1.87,-2.78,-1.85,-2.77,2.77,2.85,2.50,0.89,0.92,0.91
26.96,-1.82,-2.74,-1.81,-2.72,2.72,2.82,2.56,0.90,0.91,0.92
27.23,-1.76,-2.68,-1.76,-2.68,2.68,2.79,2.61,0.91,0.91,0.92
27.50,-1.70,-2.62,-1.72,-2.63,2.63,2.75,2.67,0.93,0.91,0.92
27.77,-1.64,-2.55,-1.68,-2.59,2.59,2.72,2.72,0.95,0.91,0.91
28.05,-1.59,-2.50,-1.64,-2.55,2.55,2.68,2.77,0.96,0.91,0.91
28.33,-1.56,-2.46,-1.59,-2.50,2.50,2.65,2.81,0.94,0.91,0.90
28.62,-1.54,-2.44,-1.55,-2.46,2.46,2.62,2.86,0.92,0.91,0.90
28.90,-1.52,-2.43,-1.52,-2.43,2.43,2.58,2.90,0.90,0.91,0.91
29.19,-1.50,-2.40,-1.49,-2.40,2.40,2.55,2.93,0.89,0.91,0.89
29.48,-1.48,-2.40,-1.47,-2.37,2.37,2.52,2.96,0.89,0.90,0.91
29.78,-1.46,-2.36,-1.44,-2.34,2.34,2.48,2.99,0.88,0.90,0.90
30.08,-1.43,-2.34,-1.42,-2.32,2.32,2.45,3.02,0.89,0.90,0.91
30.38,-1.39,-2.29,-1.40,-2.30,2.30,2.42,3.04,0.91,0.90,0.90
30.68,-1.36,-2.26,-1.37,-2.27,2.27,2.38,3.05,0.91,0.90,0.90
30.99,-1.32,-2.22,-1.35,-2.25,2.25,2.35,3.06,0.92,0.90,0.90
31.30,-1.31,-2.21,-1.32,-2.21,2.21,2.32,3.06,0.90,0.90,0.90
31.61,-1.31,-2.21,-1.28,-2.18,2.18,2.29,3.06,0.87,0.90,0.90
31.93,-1.30,-2.20,-1.25,-2.15,2.15,2.25,3.06,0.85,0.89,0.89
32.24,-1.26,-2.14,-1.22,-2.11,2.11,2.22,3.05,0.85,0.89,0.88
32.57,-1.20,-2.09,-1.19,-2.08,2.08,2.19,3.03,0.88,0.89,0.89
32.89,-1.15,-2.04,-1.17,-2.05,2.05,2.16,3.02,0.90,0.88,0.89
33.22,-1.11,-1.99,-1.14,-2.02,2.02,2.13,2.99,0.91,0.88,0.88
33.55,-1.07,-1.95,-1.11,-1.99,1.99,2.09,2.96,0.92,0.88,0.88
33.89,-1.04,-1.91,-1.08,-1.95,1.95,2.06,2.93,0.91,0.87,0.87
34.23,-1.03,-1.91,-1.05,-1.92,1.92,2.03,2.90,0.89,0.87,0.87
34.57,-1.03,-1.89,-1.02,-1.89,1.89,2.00,2.86,0.86,0.87,0.86
34.92,-1.03,-1.89,-0.99,-1.86,1.86,1.97,2.82,0.83,0.86,0.86
35.27,-1.01,-1.87,-0.97,-1.83,1.83,1.94,2.78,0.82,0.86,0.86
35.62,-0.97,-1.83,-0.94,-1.80,1.80,1.91,2.73,0.83,0.86,0.86
35.97,-0.94,-1.80,-0.93,-1.78,1.78,1.88,2.68,0.84,0.86,0.85
36.33,-0.91,-1.77,-0.91,-1.77,1.77,1.85,2.63,0.86,0.86,0.86
36.70,-0.87,-1.72,-0.90,-1.76,1.76,1.82,2.58,0.89,0.86,0.85
37.06,-0.84,-1.69,-0.89,-1.75,1.75,1.80,2.53,0.91,0.86,0.85
37.43,-0.84,-1.71,-0.87,-1.74,1.74,1.77,2.48,0.89,0.86,0.87
37.81,-0.84,-1.70,-0.86,-1.72,1.72,1.74,2.43,0.88,0.86,0.86
38.19,-0.84,-1.70,-0.84,-1.70,1.70,1.71,2.38,0.86,0.86,0.86
38.57,-0.84,-1.71,-0.82,-1.69,1.69,1.68,2.32,0.85,0.87,0.87
38.95,-0.84,-1.72,-0.81,-1.68,1.68,1.66,2.27,0.84,0.87,0.87
39.34,-0.84,-1.71,-0.80,-1.67,1.67,1.63,2.22,0.83,0.87,0.87
39.74,-0.83,-1.70,-0.79,-1.67,1.67,1.60,2.17,0.83,0.87,0.87
40.14,-0.82,-1.70,-0.79,-1.66,1.66,1.57,2.12,0.84,0.87,0.87
40.54,-0.78,-1.65,-0.79,-1.66,1.66,1.55,2.07,0.88,0.87,0.87
40.94,-0.75,-1.62,-0.79,-1.66,1.66,1.52,2.02,0.91,0.87,0.87
41.35,-0.74,-1.61,-0.79,-1.66,1.66,1.50,1.97,0.92,0.87,0.86
41.76,-0.74,-1.60,-0.80,-1.66,1.66,1.47,1.93,0.92,0.86,0.86
42.18,-0.76,-1.63,-0.81,-1.67,1.67,1.44,1.88,0.91,0.86,0.87
42.60,-0.80,-1.65,-0.83,-1.67,1.67,1.42,1.84,0.87,0.85,0.85
43.03,-0.84,-1.69,-0.84,-1.68,1.68,1.39,1.79,0.84,0.84,0.85
43.46,-0.84,-1.69,-0.85,-1.68,1.68,1.37,1.75,0.84,0.83,0.84
43.90,-0.84,-1.66,-0.87,-1.69,1.69,1.34,1.71,0.85,0.82,0.82
44.33,-0.87,-1.68,-0.88,-1.69,1.69,1.32,1.67,0.82,0.81,0.80
44.78,-0.92,-1.71,-0.88,-1.69,1.69,1.30,1.64,0.76,0.80,0.79
45.23,-0.94,-1.73,-0.88,-1.67,1.67,1.27,1.60,0.73,0.79,0.79
45.68,-0.94,-1.71,-0.87,-1.65,1.65,1.25,1.56,0.71,0.78,0.77
46.13,-0.92,-1.68,-0.85,-1.62,1.62,1.23,1.53,0.70,0.77,0.75
46.60,-0.83,-1.59,-0.81,-1.57,1.57,1.20,1.50,0.74,0.76,0.76
47.06,-0.76,-1.50,-0.77,-1.51,1.51,1.18,1.47,0.75,0.74,0.74
47.53,-0.73,-1.47,-0.71,-1.45,1.45,1.16,1.44,0.72,0.73,0.74
48.01,-0.70,-1.44,-0.65,-1.37,1.37,1.14,1.41,0.67,0.72,0.74
48.49,-0.58,-1.31,-0.58,-1.29,1.29,1.11,1.38,0.71,0.71,0.72
48.97,-0.46,-1.17,-0.51,-1.21,1.21,1.09,1.36,0.75,0.70,0.71
49.46,-0.40,-1.09,-0.43,-1.13,1.13,1.07,1.33,0.72,0.69,0.69
49.96,-0.35,-1.02,-0.35,-1.04,1.04,1.05,1.31,0.69,0.68,0.67
50.46,-0.27,-0.95,-0.28,-0.96,0.96,1.03,1.28,0.68,0.68,0.67
50.96,-0.19,-0.86,-0.22,-0.88,0.88,1.01,1.26,0.69,0.67,0.67
51.47,-0.13,-0.78,-0.16,-0.81,0.81,0.99,1.24,0.68,0.66,0.65
51.99,-0.07,-0.71,-0.10,-0.75,0.75,0.97,1.22,0.68,0.65,0.64
52.51,-0.02,-0.66,-0.05,-0.69,0.69,0.95,1.19,0.67,0.64,0.64
53.03,0.03,-0.61,0.00,-0.63,0.63,0.93,1.17,0.66,0.63,0.64
53.56,0.04,-0.59,0.04,-0.59,0.59,0.91,1.15,0.62,0.63,0.63
54.10,0.05,-0.57,0.07,-0.55,0.55,0.89,1.13,0.60,0.62,0.62
54.64,0.09,-0.52,0.10,-0.52,0.52,0.87,1.11,0.60,0.62,0.61
55.18,0.12,-0.49,0.13,-0.48,0.48,0.85,1.09,0.60,0.61,0.61
55.74,0.12,-0.48,0.15,-0.46,0.46,0.83,1.07,0.57,0.61,0.60
56.29,0.15,-0.45,0.17,-0.43,0.43,0.81,1.05,0.58,0.60,0.60
56.86,0.21,-0.38,0.19,-0.40,0.40,0.79,1.03,0.61,0.59,0.59
57.42,0.22,-0.35,0.20,-0.38,0.38,0.77,1.01,0.60,0.58,0.57
58.00,0.22,-0.35,0.21,-0.36,0.36,0.75,0.99,0.58,0.57,0.56
58.58,0.22,-0.34,0.21,-0.34,0.34,0.73,0.96,0.56,0.55,0.56
59.16,0.22,-0.33,0.22,-0.32,0.32,0.71,0.94,0.54,0.53,0.55
59.76,0.22,-0.32,0.22,-0.30,0.30,0.69,0.92,0.52,0.51,0.54
60.35,0.22,-0.28,0.22,-0.28,0.28,0.68,0.89,0.49,0.49,0.50
60.96,0.22,-0.26,0.21,-0.26,0.26,0.66,0.86,0.47,0.47,0.48
61.57,0.22,-0.22,0.20,-0.24,0.24,0.64,0.83,0.45,0.44,0.44
62.18,0.21,-0.20,0.19,-0.22,0.22,0.62,0.81,0.43,0.41,0.41
62.80,0.16,-0.21,0.18,-0.20,0.20,0.60,0.78,0.36,0.38,0.37
63.43,0.14,-0.20,0.16,-0.18,0.18,0.58,0.74,0.32,0.34,0.33
64.07,0.12,-0.18,0.15,-0.15,0.15,0.57,0.71,0.27,0.31,0.30
64.71,0.12,-0.14,0.14,-0.13,0.13,0.55,0.68,0.25,0.27,0.26
65.35,0.12,-0.11,0.13,-0.11,0.11,0.53,0.64,0.22,0.23,0.23
66.01,0.12,-0.07,0.11,-0.08,0.08,0.51,0.60,0.20,0.19,0.19
66.67,0.10,-0.06,0.10,-0.06,0.06,0.49,0.57,0.15,0.16,0.15
67.33,0.07,-0.05,0.08,-0.04,0.04,0.48,0.53,0.11,0.12,0.11
68.01,0.03,-0.06,0.05,-0.03,0.03,0.46,0.49,0.05,0.08,0.08
68.69,0.03,-0.01,0.03,-0.01,0.01,0.44,0.44,0.04,0.04,0.04
69.37,0.03,0.03,0.01,0.01,-0.01,0.42,0.40,0.02,-0.00,0.00
70.07,0.02,0.06,-0.02,0.02,-0.02,0.40,0.36,0.00,-0.04,-0.04
70.77,-0.05,0.02,-0.06,0.02,-0.02,0.38,0.31,-0.07,-0.08,-0.07
71.48,-0.11,0.00,-0.11,0.02,-0.02,0.36,0.26,-0.13,-0.13,-0.12
72.19,-0.17,-0.00,-0.17,0.00,-0.00,0.34,0.22,-0.17,-0.17,-0.17
72.91,-0.19,0.02,-0.23,-0.02,0.02,0.32,0.17,-0.17,-0.21,-0.21
73.64,-0.33,-0.07,-0.31,-0.05,0.05,0.30,0.12,-0.28,-0.26,-0.26
74.38,-0.42,-0.12,-0.39,-0.09,0.09,0.28,0.07,-0.33,-0.30,-0.30
75.12,-0.46,-0.11,-0.49,-0.14,0.14,0.26,0.02,-0.32,-0.34,-0.35
75.87,-0.49,-0.10,-0.59,-0.20,0.20,0.24,-0.03,-0.29,-0.39,-0.40
76.63,-0.64,-0.21,-0.69,-0.26,0.26,0.22,-0.09,-0.38,-0.43,-0.43
77.40,-0.79,-0.32,-0.80,-0.34,0.34,0.20,-0.14,-0.46,-0.47,-0.47
78.17,-0.92,-0.40,-0.91,-0.41,0.41,0.18,-0.20,-0.52,-0.51,-0.52
78.95,-1.02,-0.48,-1.02,-0.48,0.48,0.16,-0.25,-0.55,-0.54,-0.54
79.74,-1.15,-0.57,-1.13,-0.55,0.55,0.13,-0.31,-0.60,-0.58,-0.58
80.54,-1.26,-0.65,-1.24,-0.63,0.63,0.11,-0.37,-0.64,-0.61,-0.61
81.35,-1.37,-0.72,-1.34,-0.70,0.70,0.09,-0.42,-0.68,-0.64,-0.65
82.16,-1.47,-0.79,-1.44,-0.76,0.76,0.06,-0.48,-0.71,-0.68,-0.68
82.98,-1.52,-0.82,-1.53,-0.82,0.82,0.04,-0.54,-0.70,-0.71,-0.70
83.81,-1.57,-0.83,-1.61,-0.86,0.86,0.01,-0.60,-0.71,-0.74,-0.74
84.65,-1.66,-0.88,-1.67,-0.89,0.89,-0.02,-0.66,-0.77,-0.77,-0.78
85.50,-1.71,-0.91,-1.71,-0.90,0.90,-0.04,-0.72,-0.81,-0.81,-0.80
86.35,-1.74,-0.91,-1.73,-0.89,0.89,-0.07,-0.79,-0.85,-0.84,-0.83
87.22,-1.79,-0.92,-1.75,-0.87,0.87,-0.10,-0.85,-0.92,-0.87,-0.87
88.09,-1.80,-0.90,-1.75,-0.84,0.84,-0.13,-0.92,-0.96,-0.91,-0.90
88.97,-1.80,-0.86,-1.73,-0.79,0.79,-0.17,-0.98,-1.01,-0.94,-0.94
89.86,-1.72,-0.75,-1.70,-0.73,0.73,-0.20,-1.05,-0.99,-0.97,-0.97
90.76,-1.70,-0.69,-1.67,-0.66,0.66,-0.23,-1.11,-1.04,-1.01,-1.01
91.66,-1.61,-0.57,-1.62,-0.58,0.58,-0.27,-1.18,-1.03,-1.04,-1.04
92.58,-1.50,-0.42,-1.56,-0.49,0.49,-0.31,-1.25,-1.02,-1.07,-1.08
93.51,-1.43,-0.32,-1.49,-0.38,0.38,-0.35,-1.32,-1.05,-1.11,-1.11
94.44,-1.38,-0.24,-1.41,-0.27,0.27,-0.39,-1.39,-1.11,-1.14,-1.14
95.39,-1.32,-0.15,-1.32,-0.15,0.15,-0.44,-1.46,-1.17,-1.17,-1.17
96.34,-1.24,-0.04,-1.24,-0.04,0.04,-0.48,-1.53,-1.21,-1.20,-1.21
97.30,-1.16,0.07,-1.15,0.08,-0.08,-0.53,-1.60,-1.24,-1.23,-1.23
98.28,-1.07,0.19,-1.06,0.20,-0.20,-0.58,-1.67,-1.27,-1.26,-1.26
99.26,-0.99,0.30,-0.97,0.32,-0.32,-0.64,-1.74,-1.31,-1.29,-1.29
100.25,-0.87,0.45,-0.89,0.43,-0.43,-0.69,-1.81,-1.30,-1.32,-1.32
101.25,-0.74,0.61,-0.80,0.55,-0.55,-0.75,-1.89,-1.29,-1.35,-1.35
102.27,-0.65,0.73,-0.71,0.67,-0.67,-0.82,-1.96,-1.33,-1.38,-1.38
103.29,-0.61,0.81,-0.61,0.80,-0.80,-0.88,-2.03,-1.41,-1.41,-1.42
104.32,-0.55,0.89,-0.51,0.93,-0.93,-0.95,-2.09,-1.48,-1.44,-1.44
105.37,-0.44,1.02,-0.41,1.06,-1.06,-1.03,-2.16,-1.50,-1.47,-1.47
106.42,-0.33,1.16,-0.32,1.19,-1.19,-1.11,-2.23,-1.52,-1.51,-1.50
107.48,-0.25,1.28,-0.22,1.32,-1.32,-1.19,-2.29,-1.57,-1.54,-1.54
108.56,-0.13,1.44,-0.12,1.45,-1.45,-1.28,-2.35,-1.58,-1.57,-1.57
109.64,-0.02,1.58,-0.02,1.58,-1.58,-1.37,-2.41,-1.60,-1.61,-1.60
110.74,0.12,1.76,0.08,1.72,-1.72,-1.47,-2.46,-1.60,-1.64,-1.64
111.85,0.23,1.89,0.18,1.86,-1.86,-1.57,-2.52,-1.63,-1.67,-1.66
112.97,0.32,2.03,0.29,1.99,-1.99,-1.68,-2.56,-1.67,-1.71,-1.71
114.10,0.39,2.13,0.40,2.14,-2.14,-1.79,-2.61,-1.75,-1.74,-1.74
115.24,0.44,2.21,0.51,2.28,-2.28,-1.91,-2.65,-1.84,-1.76,-1.77
116.39,0.56,2.36,0.62,2.42,-2.42,-2.03,-2.68,-1.86,-1.79,-1.81
117.55,0.68,2.50,0.73,2.55,-2.55,-2.16,-2.71,-1.87,-1.82,-1.82
118.73,0.83,2.68,0.83,2.67,-2.67,-2.29,-2.73,-1.84,-1.84,-1.85
119.92,0.92,2.78,0.93,2.79,-2.79,-2.42,-2.74,-1.87,-1.86,-1.86
121.12,1.04,2.92,1.02,2.90,-2.90,-2.56,-2.75,-1.86,-1.88,-1.88
122.33,1.14,3.04,1.10,3.00,-3.00,-2.69,-2.75,-1.86,-1.90,-1.90
123.55,1.22,3.13,1.17,3.08,-3.08,-2.83,-2.75,-1.86,-1.91,-1.91
124.79,1.25,3.17,1.23,3.16,-3.16,-2.96,-2.74,-1.91,-1.93,-1.92
126.03,1.35,3.29,1.29,3.23,-3.23,-3.08,-2.72,-1.88,-1.94,-1.94
127.29,1.35,3.29,1.33,3.29,-3.29,-3.20,-2.69,-1.94,-1.95,-1.94
128.57,1.36,3.32,1.36,3.33,-3.33,-3.31,-2.66,-1.97,-1.97,-1.97
129.85,1.37,3.35,1.37,3.35,-3.35,-3.40,-2.62,-1.98,-1.98,-1.98
131.15,1.37,3.36,1.37,3.36,-3.36,-3.47,-2.57,-2.00,-1.99,-1.99
132.46,1.36,3.36,1.36,3.36,-3.36,-3.53,-2.51,-2.01,-2.00,-2.00
133.79,1.29,3.31,1.33,3.35,-3.35,-3.56,-2.45,-2.06,-2.02,-2.02
135.12,1.27,3.31,1.28,3.31,-3.31,-3.57,-2.39,-2.04,-2.03,-2.04
136.48,1.22,3.26,1.22,3.26,-3.26,-3.56,-2.31,-2.04,-2.04,-2.04
137.84,1.19,3.25,1.16,3.21,-3.21,-3.52,-2.24,-2.02,-2.05,-2.06
139.22,1.15,3.23,1.09,3.16,-3.16,-3.46,-2.15,-2.01,-2.07,-2.08
140.61,1.05,3.15,1.01,3.09,-3.09,-3.38,-2.07,-2.04,-2.08,-2.10
142.02,0.90,3.00,0.92,3.02,-3.02,-3.28,-1.98,-2.12,-2.10,-2.10
143.44,0.83,2.94,0.83,2.95,-2.95,-3.16,-1.88,-2.12,-2.12,-2.11
144.87,0.73,2.87,0.73,2.88,-2.88,-3.03,-1.78,-2.15,-2.15,-2.14
146.32,0.53,2.70,0.64,2.81,-2.81,-2.89,-1.68,-2.28,-2.18,-2.17
147.78,0.35,2.53,0.53,2.74,-2.74,-2.74,-1.58,-2.39,-2.21,-2.19
149.26,0.34,2.56,0.40,2.66,-2.66,-2.58,-1.47,-2.32,-2.25,-2.22
150.75,0.29,2.56,0.24,2.53,-2.53,-2.42,-1.36,-2.25,-2.30,-2.28
152.26,0.12,2.45,0.03,2.38,-2.38,-2.25,-1.25,-2.26,-2.35,-2.33
153.78,-0.06,2.32,-0.20,2.21,-2.21,-2.09,-1.14,-2.27,-2.40,-2.38
155.32,-0.24,2.21,-0.42,2.04,-2.04,-1.93,-1.02,-2.28,-2.46,-2.45
156.88,-0.43,2.08,-0.65,1.87,-1.87,-1.77,-0.91,-2.30,-2.52,-2.51
158.44,-0.62,1.96,-0.86,1.72,-1.72,-1.61,-0.79,-2.34,-2.58,-2.58
160.03,-0.87,1.78,-1.06,1.57,-1.57,-1.45,-0.67,-2.44,-2.64,-2.65
161.63,-1.19,1.52,-1.26,1.43,-1.43,-1.30,-0.55,-2.62,-2.69,-2.71
163.24,-1.70,1.06,-1.45,1.29,-1.29,-1.16,-0.44,-3.00,-2.74,-2.76
164.88,-2.11,0.69,-1.63,1.16,-1.16,-1.01,-0.32,-3.27,-2.79,-2.80
166.53,-2.37,0.47,-1.80,1.02,-1.02,-0.87,-0.20,-3.39,-2.82,-2.84
168.19,-2.37,0.50,-1.96,0.90,-0.90,-0.74,-0.07,-3.27,-2.85,-2.87
169.87,-2.13,0.77,-2.10,0.78,-0.78,-0.60,0.05,-2.91,-2.88,-2.90
171.57,-2.00,0.91,-2.22,0.67,-0.67,-0.47,0.17,-2.67,-2.89,-2.91
173.29,-2.10,0.81,-2.33,0.57,-0.57,-0.35,0.29,-2.67,-2.90,-2.91
175.02,-2.13,0.78,-2.44,0.47,-0.47,-0.22,0.41,-2.60,-2.91,-2.91
176.77,-2.33,0.59,-2.54,0.37,-0.37,-0.10,0.54,-2.71,-2.91,-2.92
178.54,-2.58,0.33,-2.62,0.29,-0.29,0.02,0.66,-2.87,-2.91,-2.91
180.32,-2.68,0.22,-2.70,0.21,-0.21,0.14,0.78,-2.89,-2.91,-2.90
182.13,-2.75,0.13,-2.78,0.13,-0.13,0.25,0.91,-2.88,-2.91,-2.88
183.95,-2.92,-0.03,-2.89,0.02,-0.02,0.37,1.03,-2.94,-2.90,-2.89
185.79,-3.17,-0.29,-3.03,-0.12,0.12,0.48,1.16,-3.05,-2.90,-2.88
187.65,-3.27,-0.38,-3.21,-0.30,0.30,0.60,1.28,-2.97,-2.91,-2.89
189.52,-3.37,-0.47,-3.41,-0.50,0.50,0.71,1.41,-2.87,-2.91,-2.90
191.42,-3.62,-0.71,-3.60,-0.69,0.69,0.83,1.53,-2.94,-2.91,-2.91
193.33,-3.83,-0.91,-3.78,-0.86,0.86,0.95,1.66,-2.97,-2.92,-2.92
195.27,-3.92,-0.99,-3.97,-1.04,1.04,1.06,1.78,-2.88,-2.93,-2.93
197.22,-4.01,-1.07,-4.16,-1.22,1.22,1.18,1.91,-2.79,-2.94,-2.94
199.19,-4.25,-1.29,-4.36,-1.40,1.40,1.30,2.03,-2.85,-2.96,-2.97
201.18,-4.55,-1.58,-4.57,-1.60,1.60,1.43,2.16,-2.95,-2.97,-2.98
203.19,-4.79,-1.81,-4.78,-1.80,1.80,1.55,2.28,-3.00,-2.99,-2.99
205.23,-5.06,-2.05,-4.99,-1.99,1.99,1.68,2.40,-3.07,-3.00,-3.01
207.28,-5.30,-2.30,-5.20,-2.18,2.18,1.81,2.52,-3.12,-3.02,-3.01
209.35,-5.41,-2.39,-5.41,-2.38,2.38,1.94,2.64,-3.03,-3.03,-3.02
211.44,-5.52,-2.47,-5.62,-2.58,2.58,2.07,2.76,-2.95,-3.04,-3.05
213.56,-5.82,-2.77,-5.82,-2.77,2.77,2.21,2.88,-3.05,-3.05,-3.05
215.69,-6.08,-3.02,-6.02,-2.96,2.96,2.35,2.99,-3.12,-3.06,-3.06
217.85,-6.23,-3.16,-6.20,-3.13,3.13,2.50,3.10,-3.10,-3.07,-3.07
220.03,-6.36,-3.29,-6.36,-3.28,3.28,2.64,3.20,-3.08,-3.07,-3.08
222.23,-6.49,-3.40,-6.49,-3.41,3.41,2.79,3.31,-3.08,-3.08,-3.09
224.45,-6.63,-3.55,-6.61,-3.53,3.53,2.94,3.40,-3.10,-3.07,-3.08
226.70,-6.75,-3.67,-6.71,-3.64,3.64,3.09,3.50,-3.11,-3.07,-3.08
228.96,-6.83,-3.77,-6.79,-3.73,3.73,3.24,3.58,-3.10,-3.06,-3.06
231.25,-6.94,-3.89,-6.88,-3.82,3.82,3.39,3.66,-3.12,-3.05,-3.05
233.57,-7.03,-3.99,-6.95,-3.92,3.92,3.54,3.74,-3.11,-3.04,-3.04
235.90,-7.08,-4.06,-7.00,-3.98,3.98,3.69,3.81,-3.10,-3.02,-3.02
238.26,-6.91,-3.90,-7.03,-4.03,4.03,3.83,3.87,-2.88,-3.00,-3.01
240.64,-6.89,-3.91,-7.06,-4.09,4.09,3.97,3.92,-2.80,-2.98,-2.98
243.05,-7.05,-4.10,-7.09,-4.14,4.14,4.10,3.96,-2.92,-2.95,-2.95
245.48,-7.11,-4.19,-7.09,-4.17,4.17,4.22,4.00,-2.95,-2.93,-2.92
247.93,-7.08,-4.19,-7.10,-4.20,4.20,4.33,4.03,-2.88,-2.90,-2.89
250.41,-7.06,-4.19,-7.10,-4.22,4.22,4.43,4.05,-2.84,-2.88,-2.87
252.92,-7.09,-4.25,-7.08,-4.23,4.23,4.51,4.06,-2.86,-2.85,-2.84
255.45,-7.20,-4.39,-7.06,-4.24,4.24,4.58,4.06,-2.96,-2.82,-2.81
258.00,-7.06,-4.27,-7.04,-4.24,4.24,4.63,4.05,-2.82,-2.79,-2.79
260.58,-6.94,-4.17,-7.01,-4.25,4.25,4.66,4.04,-2.69,-2.77,-2.77
263.19,-7.05,-4.32,-6.98,-4.24,4.24,4.68,4.02,-2.81,-2.74,-2.74
265.82,-7.04,-4.32,-6.94,-4.23,4.23,4.68,3.99,-2.81,-2.71,-2.72
268.48,-6.77,-4.08,-6.89,-4.21,4.21,4.65,3.95,-2.56,-2.69,-2.69
271.16,-6.77,-4.11,-6.84,-4.18,4.18,4.61,3.91,-2.60,-2.66,-2.66
273.87,-6.90,-4.26,-6.78,-4.15,4.15,4.56,3.86,-2.75,-2.63,-2.64
276.61,-6.68,-4.08,-6.73,-4.13,4.13,4.49,3.80,-2.55,-2.61,-2.60
279.38,-6.61,-4.03,-6.68,-4.11,4.11,4.40,3.74,-2.51,-2.58,-2.58
282.17,-6.60,-4.05,-6.63,-4.08,4.08,4.31,3.68,-2.52,-2.55,-2.55
284.99,-6.60,-4.09,-6.58,-4.06,4.06,4.20,3.61,-2.54,-2.52,-2.51
287.84,-6.46,-3.97,-6.52,-4.04,4.04,4.08,3.54,-2.42,-2.49,-2.50
290.72,-6.34,-3.88,-6.47,-4.01,4.01,3.96,3.46,-2.33,-2.46,-2.46
293.63,-6.44,-4.01,-6.40,-3.98,3.98,3.84,3.38,-2.46,-2.43,-2.43
296.57,-6.41,-4.02,-6.35,-3.95,3.95,3.71,3.31,-2.46,-2.39,-2.39
299.53,-6.32,-3.96,-6.29,-3.93,3.93,3.58,3.23,-2.40,-2.37,-2.37
302.53,-6.26,-3.91,-6.22,-3.88,3.88,3.45,3.14,-2.38,-2.34,-2.35
305.55,-6.19,-3.89,-6.13,-3.82,3.82,3.32,3.06,-2.37,-2.31,-2.30
308.61,-6.08,-3.80,-6.05,-3.77,3.77,3.19,2.98,-2.31,-2.29,-2.28
311.69,-5.95,-3.70,-5.96,-3.70,3.70,3.06,2.90,-2.25,-2.26,-2.25
314.81,-5.79,-3.57,-5.85,-3.61,3.61,2.93,2.81,-2.18,-2.24,-2.23
317.96,-5.70,-3.49,-5.73,-3.52,3.52,2.81,2.73,-2.18,-2.22,-2.21
321.14,-5.65,-3.45,-5.62,-3.42,3.42,2.69,2.65,-2.23,-2.20,-2.20
324.35,-5.55,-3.37,-5.48,-3.30,3.30,2.58,2.57,-2.25,-2.18,-2.18
327.59,-5.36,-3.20,-5.33,-3.17,3.17,2.47,2.49,-2.19,-2.16,-2.16
330.87,-5.18,-3.03,-5.18,-3.03,3.03,2.36,2.41,-2.15,-2.15,-2.15
334.18,-5.04,-2.91,-5.03,-2.90,2.90,2.26,2.34,-2.15,-2.14,-2.14
337.52,-4.86,-2.73,-4.88,-2.75,2.75,2.16,2.26,-2.11,-2.12,-2.13
340.90,-4.72,-2.61,-4.72,-2.61,2.61,2.06,2.19,-2.11,-2.12,-2.11
344.30,-4.59,-2.49,-4.57,-2.46,2.46,1.97,2.11,-2.13,-2.11,-2.10
347.75,-4.42,-2.32,-4.42,-2.32,2.32,1.88,2.04,-2.10,-2.10,-2.10
351.23,-4.27,-2.18,-4.28,-2.18,2.18,1.80,1.97,-2.09,-2.10,-2.09
354.74,-4.13,-2.04,-4.14,-2.05,2.05,1.72,1.90,-2.09,-2.09,-2.09
358.28,-3.97,-1.89,-4.00,-1.92,1.92,1.64,1.84,-2.05,-2.09,-2.09
361.87,-3.82,-1.73,-3.88,-1.80,1.80,1.57,1.77,-2.02,-2.08,-2.09
365.49,-3.74,-1.66,-3.77,-1.69,1.69,1.50,1.71,-2.05,-2.08,-2.08
369.14,-3.68,-1.59,-3.68,-1.59,1.59,1.43,1.64,-2.09,-2.08,-2.09
372.83,-3.56,-1.47,-3.59,-1.51,1.51,1.37,1.58,-2.06,-2.08,-2.09
376.56,-3.49,-1.40,-3.52,-1.43,1.43,1.31,1.52,-2.06,-2.09,-2.09
380.33,-3.42,-1.34,-3.45,-1.36,1.36,1.25,1.47,-2.06,-2.09,-2.08
384.13,-3.40,-1.32,-3.39,-1.30,1.30,1.19,1.41,-2.11,-2.09,-2.08
387.97,-3.36,-1.27,-3.34,-1.24,1.24,1.14,1.35,-2.12,-2.10,-2.09
391.85,-3.30,-1.20,-3.29,-1.19,1.19,1.09,1.30,-2.11,-2.10,-2.10
395.77,-3.23,-1.14,-3.25,-1.15,1.15,1.04,1.25,-2.08,-2.11,-2.09
399.73,-3.20,-1.10,-3.22,-1.11,1.11,0.99,1.20,-2.09,-2.11,-2.11
403.72,-3.20,-1.10,-3.19,-1.07,1.07,0.95,1.15,-2.13,-2.12,-2.11
407.76,-3.19,-1.07,-3.15,-1.03,1.03,0.90,1.10,-2.16,-2.12,-2.12
411.84,-3.13,-1.01,-3.11,-0.99,0.99,0.86,1.05,-2.14,-2.12,-2.12
415.96,-3.08,-0.96,-3.07,-0.95,0.95,0.82,1.01,-2.13,-2.12,-2.12
420.12,-3.03,-0.91,-3.03,-0.91,0.91,0.78,0.96,-2.12,-2.12,-2.12
424.32,-3.00,-0.88,-2.99,-0.87,0.87,0.74,0.92,-2.13,-2.11,-2.12
428.56,-2.93,-0.82,-2.94,-0.84,0.84,0.71,0.87,-2.10,-2.10,-2.11
432.85,-2.89,-0.79,-2.89,-0.80,0.80,0.67,0.83,-2.09,-2.09,-2.10
437.18,-2.86,-0.77,-2.84,-0.77,0.77,0.64,0.79,-2.09,-2.07,-2.09
441.55,-2.80,-0.75,-2.78,-0.74,0.74,0.61,0.75,-2.06,-2.04,-2.05
445.96,-2.70,-0.68,-2.73,-0.72,0.72,0.58,0.71,-1.98,-2.01,-2.02
450.42,-2.64,-0.65,-2.66,-0.69,0.69,0.55,0.68,-1.95,-1.97,-1.99
454.93,-2.58,-0.64,-2.59,-0.66,0.66,0.52,0.64,-1.92,-1.93,-1.94
459.48,-2.52,-0.63,-2.52,-0.63,0.63,0.49,0.60,-1.89,-1.89,-1.89
464.07,-2.46,-0.62,-2.45,-0.61,0.61,0.46,0.57,-1.86,-1.84,-1.84
468.71,-2.40,-0.62,-2.37,-0.58,0.58,0.43,0.53,-1.82,-1.79,-1.78
473.40,-2.34,-0.60,-2.29,-0.55,0.55,0.41,0.50,-1.79,-1.74,-1.74
