frequency,raw,error,smoothed,error_smoothed,equalization,equalized_raw,equalized_smoothed,target
20,-15.716863161767149,-19.837483912375063,-15.740402313696329,-19.86104130887459,5.999999999999999,-9.71686316176715,-9.740402313696329,4.120620750607913
21,-15.284193998424113,-19.436429143133445,-15.2507435242051,-19.402968044718715,6.0,-9.284193998424113,-9.2507435242051,4.152235144709332
22,-14.751033720316341,-18.931482200339836,-14.775380927422603,-18.955807345783725,6.0,-8.751033720316341,-8.775380927422603,4.180448480023496
23,-14.359451997786861,-18.5647113481084,-14.314314523348841,-18.51955921206962,5.999999999999999,-8.359451997786863,-8.314314523348841,4.205259350321538
24,-13.839501699548215,-18.06616779600245,-13.867544311983792,-18.094223643576377,5.999999999999998,-7.839501699548217,-7.867544311983794,4.2266660964542355
25,-13.459959208297153,-17.704625983202952,-13.435385390069207,-17.680124090803588,6.000000000000001,-7.459959208297152,-7.435385390069206,4.244666774905798
26,-12.964240984889193,-17.223500108939454,-13.017456832795684,-17.276875239037146,6.0,-6.964240984889193,-7.017456832795684,4.259259124050261
27,-12.62501155394484,-16.895521027655384,-12.613430273693215,-16.884140371422696,6.0,-6.625011553944841,-6.613430273693215,4.270509473710542
28,-12.27133267654485,-16.549694317130797,-12.222867963979017,-16.501462265167973,6.0,-6.27133267654485,-6.2228679639790165,4.278361640585948
29,-11.806149147592725,-16.088935839104437,-11.845269683062714,-16.128305703954084,6.000000000000001,-5.806149147592724,-5.845269683062713,4.282786691511712
30,-11.50648034594948,-15.790218034610275,-11.48023289549376,-15.764216350131525,6.0,-5.50648034594948,-5.48023289549376,4.2837376886607945
31,-11.141777625886814,-15.422924492761693,-11.127363755769212,-15.408728782609131,5.999999999999999,-5.141777625886815,-5.127363755769212,4.281146866874879
32,-10.743162169821963,-15.018086451348427,-10.786267369946469,-15.061356902913081,5.999999999999999,-4.7431621698219635,-4.7862673699464695,4.274924281526465
33,-10.427263520051355,-14.692222140459549,-10.456497587389878,-14.721545555774913,6.0,-4.427263520051355,-4.456497587389878,4.264958620408194
34,-10.159068548231984,-14.410200604167022,-10.137508994243905,-14.388626298611971,5.999999999999998,-4.159068548231986,-4.137508994243907,4.251132055935038
35,-9.888334099716015,-14.121648660974152,-9.828670021417256,-14.06183680122486,6.000000000000001,-3.8883340997160145,-3.8286700214172553,4.233314561258136
36,-9.515731499283236,-13.72710661678656,-9.52929960754781,-13.740365947724044,5.999999999999998,-3.5157314992832376,-3.529299607547811,4.211375117503325
37,-9.175979541770683,-13.361171746707505,-9.238731252179416,-13.423428604542462,6.0,-3.1759795417706833,-3.2387312521794165,4.185192204936822
38,-8.983065087660604,-13.137731538800047,-8.95637995130571,-13.110345424071468,6.000000000000001,-2.983065087660603,-2.956379951305709,4.154666451139444
39,-8.73130930632759,-12.851044396173355,-8.681788021114546,-12.800603417798898,6.0,-2.7313093063275904,-2.6817880211145457,4.119735089845765
40,-8.376228080221102,-12.456615842140565,-8.414643794979114,-12.493890926578036,5.999999999999999,-2.376228080221103,-2.4146437949791144,4.0803877619194635
41,-8.11855908303676,-12.155243995077825,-8.154769603794051,-12.190102804023073,5.999999999999999,-2.1185590830367618,-2.154769603794052,4.036684912041063
42,-7.959959444068768,-11.948734872022355,-7.902086974240094,-11.889322976894606,6.000000000000003,-1.9599594440687653,-1.902086974240091,3.9887754279535863
43,-7.676200414975612,-11.613114300354997,-7.656571196783187,-11.5917955972678,6.0,-1.6762004149756118,-1.6565711967831867,3.9369138853793864
44,-7.381447047369332,-11.26292315018669,-7.418205007707961,-11.29789346448591,6.0,-1.381447047369332,-1.4182050077079609,3.881476102817359
45,-7.151069075012393,-10.974040915511463,-7.186938317115814,-11.008089523744085,5.999999999999998,-1.151069075012395,-1.1869383171158159,3.8229718404990702
46,-7.0049984656575175,-10.767051900781885,-6.962658058015283,-10.722934396734555,6.0,-1.0049984656575175,-0.9626580580152826,3.762053435124368
47,-6.718478146769912,-10.417997335496917,-6.7451707148987605,-10.44304146204421,6.0,-0.718478146769912,-0.7451707148987605,3.699519188727006
48,-6.5618878188279774,-10.198198552131622,-6.534198726512955,-10.169079791325125,6.0,-0.5618878188279774,-0.5341987265129546,3.6363107333036453
49,-6.320840986839597,-9.894344528006224,-6.3293900631565325,-9.901773573180765,5.999999999999999,-0.32084098683959805,-0.3293900631565334,3.573503541166627
50,-6.166862614547599,-9.67915276895668,-6.130337831756588,-9.641904492143397,5.999999999999999,-0.16686261454759954,-0.13033783175658886,3.5122901544090803
51,-5.864985963803706,-9.31894200240717,-5.936601546427864,-9.390308647835148,5.999999999999999,0.13501403619629304,0.0633984535721348,3.453956038603463
52,-5.762744996720606,-9.162593348199053,-5.747716409326219,-9.147854675087803,5.999999999999999,0.23725500327939297,0.25228359067378037,3.3998483514784477
53,-5.549491123196007,-8.900829438831313,-5.563178466043547,-8.915391630003832,6.000000000000002,0.4505088768039949,0.4368215339564552,3.351338315635306
54,-5.443040261814091,-8.752818529798164,-5.3824083151454785,-8.693670401456982,6.0,0.5569597381859088,0.6175916848545215,3.309778267984073
55,-5.205036737635539,-8.481491584498125,-5.204721841515692,-8.483268548168803,6.0,0.7949632623644609,0.795278158484308,3.2764548468625856
56,-5.025154002489594,-8.277694089103122,-5.029363235343475,-8.284575553027981,6.000000000000002,0.9748459975104078,0.9706367646565264,3.2525400866135277
57,-4.778141280080588,-8.017183713903542,-4.855665843746039,-8.097905998860458,5.999999999999999,1.2218587199194113,1.1443341562539597,3.239042433822953
58,-4.763177755295115,-7.999937605917443,-4.683381606718317,-7.923783512490725,6.0,1.2368222447048849,1.3166183932816828,3.2367598506223283
59,-4.515654758547086,-7.761891974325709,-4.5131519462226635,-7.7633704765710965,6.000000000000002,1.4843452414529157,1.4868480537773383,3.2462372157786232
60,-4.367090155661674,-7.634820320513714,-4.346998742638048,-7.618924199708176,6.000000000000001,1.632909844338327,1.6530012573619528,3.26773016485204
61,-4.220981251049809,-7.522158573900674,-4.188633960851863,-7.494079978035236,6.000000000000002,1.7790187489501932,1.8113660391481385,3.301177322850865
62,-4.0512864650908185,-7.397469050787521,-4.043370447355978,-7.393745149291595,6.0,1.9487135349091815,1.9566295526440216,3.346182585696703
63,-3.9585817917018162,-7.360590501584982,-3.917496002811152,-7.323467438527134,6.0,2.0414182082981838,2.082503997188848,3.4020087098831655
64,-3.7792648958616453,-7.246847888026939,-3.8171424376843173,-7.2883100366077205,5.999999999999999,2.220735104138354,2.182857562315682,3.4675829921652936
65,-3.6595621986736075,-7.201077485412297,-3.746887934799488,-7.2914719544244715,5.999999999999999,2.3404378013263916,2.253112065200511,3.541515286738689
66,-3.621117221881364,-7.243245266009479,-3.7084892558202602,-7.333049868230702,6.000000000000002,2.378882778118638,2.2915107441797415,3.6221280441281154
67,-3.6211181067326437,-7.328615600955851,-3.700168612163912,-7.409365416250074,5.999999999999999,2.3788818932673554,2.299831387836087,3.707497494223208
68,-3.692254102571099,-7.487758668705693,-3.71674350324804,-7.513144880872986,6.000000000000001,2.307745897428902,2.283256496751961,3.7955045661345936
69,-3.784199960130052,-7.668093629556337,-3.7506215076621485,-7.6345714249165475,5.999999999999999,2.215800039869947,2.2493784923378506,3.8838936694262842
70,-3.878973246646604,-7.849310327624275,-3.7933839667841274,-7.76293164187515,6.0,2.121026753353396,2.2066160332158726,3.970337080977672
71,-3.9103726897033844,-7.962875100291539,-3.837472308417674,-7.888367730893047,6.0,2.0896273102966156,2.162527691582326,4.052502410588154
72,-3.9658237167760437,-8.093944188344349,-3.87745879532239,-8.003214503133727,6.0,2.0341762832239563,2.12254120467761,4.128120471568305
73,-3.8869849194039277,-8.08203578730271,-3.910546321340325,-8.102563242536565,6.0,2.1130150805960723,2.089453678659675,4.195050867898782
74,-3.9103472541847855,-8.161689981543864,-3.9362320688982955,-8.183984741548546,6.000000000000002,2.0896527458152163,2.0637679311017063,4.251342727359079
75,-3.883370476563213,-8.178658729488584,-3.9553662308208137,-8.246640448934246,5.999999999999998,2.116629523436785,2.0446337691791845,4.295288252925371
76,-3.910330815427667,-8.235797933605685,-3.969020197546654,-8.290194209567513,6.000000000000002,2.089669184572335,2.0309798024533476,4.325467118178018
77,-4.006756378402441,-8.347536554144092,-3.977583960732144,-8.31394288465718,6.000000000000001,1.9932436215975597,2.0224160392678567,4.340780175741651
78,-4.006784148994907,-8.347255604395906,-3.9803571998793856,-8.316429393864633,5.999999999999998,1.9932158510050915,2.0196428001206126,4.3404714554009995
79,-4.006840725499903,-8.330978697347199,-3.9756665445730226,-8.295570275391867,6.000000000000002,1.9931592745000986,2.024333455426979,4.3241379718472945
80,-3.9805066865044925,-8.272234097562649,-3.961341145084595,-8.249129919254663,6.000000000000001,2.0194933134955084,2.038658854915406,4.291727411058156
81,-3.9106300030983525,-8.15415429281372,-3.935289561204817,-8.175284782004358,6.000000000000001,2.0893699969016484,2.064710438795184,4.243524289715368
82,-3.910761756018094,-8.090887412817187,-3.895959888005076,-8.073060045193344,5.999999999999999,2.0892382439819053,2.104040111994923,4.180125656799094
83,-3.860347832404644,-7.962755639899563,-3.8425871240823293,-7.942543656771308,6.000000000000001,2.139652167595357,2.1574128759176716,4.102407807494919
84,-3.755691346238494,-7.767177135209117,-3.7752599443808883,-7.784911624005336,6.000000000000001,2.244308653761507,2.2247400556191126,4.011485788970623
85,-3.699208260733941,-7.607875944432478,-3.694906474600237,-7.602367083506771,6.000000000000001,2.3007917392660597,2.305093525399764,3.908667683698537
86,-3.595538966428229,-7.390944720088445,-3.603282460054351,-7.398080740579696,5.999999999999999,2.40446103357177,2.396717539945648,3.795405753660216
87,-3.541008265709969,-7.214254785092095,-3.502971307988257,-7.176146760541581,5.999999999999999,2.4589917342900303,2.497028692011742,3.673246519382126
88,-3.4512004257209377,-6.994982164576141,-3.397329572747357,-6.941490836809107,6.0,2.5487995742790623,2.602670427252643,3.543781738855204
89,-3.298479084107195,-6.707081139946101,-3.2902854314571144,-6.69963752385296,6.000000000000002,2.701520915892807,2.7097145685428874,3.4086020558389056
90,-3.141479380607302,-6.410734202482125,-3.1859415346311355,-6.456282954922067,5.969279074419065,2.827799693811763,2.7833375397879294,3.2692548218748225
91,-3.0422933829863035,-6.169500664392399,-3.088027421825898,-6.216709097961278,5.9036701446798405,2.861376761693537,2.8156427228539425,3.1272072814060956
92,-2.9394958036799643,-5.923311769649599,-2.999341145579624,-5.985170420708409,5.804330384979387,2.864834581299423,2.804989239399763,2.9838159659696353
93,-2.938607498899264,-5.778910291581491,-2.9213629547587665,-5.764433420287208,5.677628580320582,2.7390210814213183,2.7562656255618156,2.8403027926822273
94,-2.842201876995117,-5.5399399009368615,-2.8541885228982213,-5.555625869301501,5.528766445441898,2.6865645684467805,2.6745779225436763,2.697738023941744
95,-2.843594937441777,-5.400624874039201,-2.7968242563171533,-5.358460526475122,5.358460526475121,2.5148655890333442,2.561636270157968,2.5570299365974236
96,-2.750447066219566,-5.169367849743505,-2.7477536909028446,-5.171771919722232,5.171771919722231,2.4213248535026652,2.4240182288193868,2.4189207835239386
97,-2.67876138608034,-4.96274980430548,-2.70557705210076,-4.9941939071744885,4.9941939071744885,2.3154325210941487,2.2886168550737285,2.2839884182251398
98,-2.668002562691281,-4.820655361841425,-2.669492208756993,-4.824754555622317,4.824754555622317,2.1567519929310355,2.1552623468653236,2.152652799150144
99,-2.6793574386995163,-4.704543934646033,-2.6394429852436314,-4.663195864463436,4.663195864463434,1.983838425763918,2.0237528792198027,2.0251864959465165
100,-2.684724492071093,-4.586452774222968,-2.615890341362479,-4.509929066101213,4.509929066101212,1.8252045740301193,1.8940387247387331,1.9017282821518755
101,-2.5183999594970046,-4.300698871320345,-2.5993134318202618,-4.365673644107642,4.365673644107642,1.8472736846106375,1.7663602122873803,1.7822989118233408
102,-2.538513555482989,-4.205331788317279,-2.589660626669294,-4.2309478179930995,4.230947817993098,1.6924342625101088,1.6412871913238036,1.6668182328342898
104,-2.5608043640883724,-4.053962615880117,-2.5859967314442267,-4.105631986816084,4.105631986816084,1.5448276227277113,1.519635255371857,1.493158251791745
105,-2.584603818751927,-3.9695421889804496,-2.586515964966521,-3.9887902082147857,3.9887902082147857,1.4041863894628586,1.4022742432482649,1.3849383702285227
106,-2.609120961603886,-3.889240721210289,-2.5889376516629823,-3.8788207396558003,3.8788207396558,1.2696997780519137,1.2898830879928176,1.2801197596064027
107,-2.633496982779694,-3.811886617432364,-2.59113548352257,-3.7738624727216985,3.7738624727216994,1.1403654899420053,1.1827269891991294,1.1783896346526697
108,-2.6568653374529707,-3.7362817907661885,-2.5917437872823204,-3.6722726933603056,3.6722726933603047,1.015407355907334,1.0805289060779844,1.0794164533132178
109,-2.5830195017450537,-3.56588266376023,-2.5904847151301915,-3.5729630601971945,3.572963060197195,0.9899435584521412,0.9824783450670034,0.9828631620151764
110,-2.601011630669929,-3.4894104621699293,-2.5880727251833937,-3.4754495121383906,3.4754495121383897,0.8744378814684608,0.887376786954996,0.8883988315000004
111,-2.5531600601320856,-3.3488686967342227,-2.5857315381385932,-3.379608061316753,3.3796080613167536,0.826448001184668,0.7938765231781604,0.7957086366021369
112,-2.533018406690601,-3.2375205878949203,-2.5845257524562317,-3.285268507924469,3.28526850792447,0.7522501012338689,0.7007427554682382,0.7045021812043191
113,-2.541894413834992,-3.156414615088636,-2.5847889541027054,-3.1918550980553513,3.191855098055351,0.6499606842203587,0.6070661439526455,0.6145202012536437
114,-2.5574612962791163,-3.0830009935979965,-2.585886252249358,-3.0982603832501425,3.0982603832501434,0.5407990869710271,0.5123741310007852,0.5255396973188802
115,-2.6366210292747185,-3.0739985868591755,-2.5864027353219488,-3.0030280268680594,3.00302802686806,0.3664069975933413,0.41662529154611105,0.43737755758445696
117,-2.6445765897519107,-2.939756610154558,-2.5846674293292757,-2.9047753764122697,2.9047753764122692,0.26019878666035856,0.3201079470829935,0.2951800204026471
118,-2.6411174590911752,-2.850516410200605,-2.5793859064335365,-2.8026754048855036,2.8026754048855036,0.16155794579432836,0.2232894984519671,0.20939895110942963
119,-2.5393429883464202,-2.663530990273569,-2.570121657192524,-2.6967908563452037,2.6967908563452028,0.15744786799878252,0.12666919915267894,0.12418800192714885
120,-2.5326645618263237,-2.5721896489082625,-2.5574454229131796,-2.5881201646296272,2.5881201646296272,0.05545560280330353,0.030674741716447684,0.0395250870819388
121,-2.5251996778056833,-2.4806258203717233,-2.5427202413594596,-2.478339220554439,2.478339220554439,-0.04686045725124455,-0.06438102080502084,-0.04457385743395981
123,-2.5174077806419697,-2.341950725571095,-2.527637734251476,-2.369345902614579,2.369345902614579,-0.14806187802739057,-0.15829183163689686,-0.17545705507087472
124,-2.509646317662899,-2.2527046100536374,-2.5137053703350114,-2.2627825939519415,2.2627825939519415,-0.24686372371095766,-0.2509227763830699,-0.2569417076092615
125,-2.502161694618209,-2.164542340990525,-2.5018773286056133,-2.1597027432641553,2.1597027432641553,-0.34245895135405346,-0.34217458534145795,-0.3376193536276837
126,-2.495096132397588,-2.0777233041055245,-2.492437749256008,-2.0604735945756723,2.060473594575672,-0.4346225378219164,-0.43196415468033633,-0.4173728282920637
128,-2.4885076077223576,-1.951611565396561,-2.4851298265371096,-1.9649067742828272,1.9649067742828277,-0.5236008334395299,-0.5202230522542819,-0.5368960423257965
129,-2.4823980170796465,-1.8692978103458926,-2.4794296539948055,-1.8725259198450421,1.8725259198450424,-0.6098720972346041,-0.6069037341497632,-0.6131002067337539
130,-2.476743608630251,-1.7887535698296975,-2.474825348877328,-1.7828457480093305,1.7828457480093307,-0.6938978606209203,-0.6919796008679973,-0.6879900388005535
131,-2.471521817056394,-1.7100847290196803,-2.47098596147708,-1.6955551785152385,1.6955551785152387,-0.7759666385411554,-0.7754307829618412,-0.7614370880367138
133,-2.4667298704284106,-1.5989556064632229,-2.4677711224097787,-1.6105527613345916,1.6105527613345918,-0.8561771090938188,-0.8572183610751869,-0.8677742639651878
134,-2.4623925954688715,-1.525615076043928,-2.465108132155632,-1.5278492781941806,1.5278492781941808,-0.9345433172746906,-0.9372588539614513,-0.9367775194249435
135,-2.4585592480426306,-1.4545102686558045,-2.46281709695962,-1.4474041165182916,1.4474041165182916,-1.011155131524339,-1.0154129804413285,-1.0040489793868261
137,-2.455291426862116,-1.356023351413135,-2.460478663892606,-1.368981773833844,1.368981773833844,-1.0863096530282723,-1.091496890058762,-1.0992680754489812
138,-2.452645746124831,-1.2908677141868101,-2.4574128076579838,-1.292099150459312,1.2920991504593125,-1.1605465956655188,-1.1653136571986713,-1.161778031938021
140,-2.4506556573311085,-1.2017058268503429,-2.4527862351335625,-1.2160932126023516,1.2160932126023511,-1.2345624447287573,-1.2366930225312114,-1.2489498304807656
141,-2.449316557971827,-1.1426068361257862,-2.4458129368201753,-1.1402897238626069,1.1402897238626066,-1.3090268341092204,-1.3055232129575687,-1.3067097218460408
142,-2.448577284742594,-1.0859586303979154,-2.4359786172637428,-1.064216285075356,1.0642162850753563,-1.384360999667238,-1.3717623321883865,-1.3626186543446788
144,-2.4483396091058007,-1.009016234078403,-2.4232171660718107,-0.9877909475013963,0.9877909475013963,-1.4605486616044043,-1.4354262185704143,-1.4393233750273977
145,-2.4484658293104204,-0.957812024720778,-2.4079935124355187,-0.9114335813571627,0.9114335813571628,-1.5370322479532577,-1.496559931078356,-1.4906538045896425
147,-2.35237457820449,-0.7921314238136405,-2.391286569620024,-0.8360803358659312,0.8360803358659311,-1.5162942423385588,-1.555206233754093,-1.5602431543908493
148,-2.352735291771453,-0.7455579273479755,-2.374497704529861,-0.7631135500020048,0.7631135500020048,-1.589621741769448,-1.6113841545278562,-1.6071773644234773
150,-2.352978002022746,-0.6828940647282193,-2.359319339480762,-0.694234602604177,0.6942346026041772,-1.658743399418569,-1.6650847368765846,-1.6700839372945269
151,-2.352990635237636,-0.6402387976953205,-2.347583882106364,-0.6313014373625687,0.6313014373625688,-1.721689197875067,-1.7162824447437952,-1.7127518375423154
153,-2.3527203305475584,-0.5834081249087304,-2.3410888639929963,-0.5761352149880807,0.5761352149880807,-1.7765851155594776,-1.7649536490049156,-1.769312205638828
154,-2.3521886851729357,-0.5444480723165355,-2.341381513433083,-0.5302901452352349,0.5302901452352349,-1.8218985399377008,-1.811091368197848,-1.8077406128564002
156,-2.3514997195200675,-0.49334302224425697,-2.349500570989119,-0.49479208435186584,0.4947920843518658,-1.8567076351682017,-1.8547084866372532,-1.8581566972758106
157,-2.3508382059828885,-0.45858510828331367,-2.365712450711821,-0.4698844244691199,0.46988442446911977,-1.8809537815137687,-1.8958280262427012,-1.8922530976995748
159,-2.346255986116788,-0.4096611414398117,-2.389320793461488,-0.45485531752153263,0.4548553175215327,-1.8914006685952554,-1.9344654759399555,-1.9365948446769763
160,-2.350648244199366,-0.38447494114026926,-2.418643025469908,-0.4480311375648221,0.44803113756482205,-1.902617106634544,-1.9706118879050858,-1.9661733030590969
162,-2.461929345182155,-0.4575042459656502,-2.4512147491903256,-0.4469886325063171,0.44698863250631715,-2.0149407126758376,-2.0042261166840083,-2.0044250992165047
