frequency,raw
20,-22.05
21,-21.60
22,-21.14
23,-20.52
24,-20.00
25,-19.37
26,-18.93
27,-18.20
28,-17.61
29,-16.91
30,-16.34
31,-15.72
32,-15.17
33,-14.64
34,-14.12
35,-13.63
36,-13.16
37,-12.70
38,-12.42
39,-12.08
40,-11.63
41,-11.35
42,-10.92
43,-10.61
44,-10.38
45,-9.98
46,-9.73
47,-9.41
48,-9.09
49,-8.95
50,-8.63
51,-8.40
52,-8.18
53,-7.97
54,-7.73
55,-7.46
56,-7.23
57,-7.14
58,-6.81
59,-6.76
60,-6.57
61,-6.28
62,-6.16
63,-6.02
64,-5.84
65,-5.51
66,-5.49
67,-5.32
68,-5.15
69,-4.99
70,-4.86
71,-4.79
72,-4.54
73,-4.49
74,-4.22
75,-4.21
76,-4.06
77,-3.91
78,-3.89
79,-3.68
80,-3.57
81,-3.57
82,-3.49
83,-3.24
84,-3.24
85,-3.24
86,-3.15
87,-3.02
88,-2.92
89,-2.92
90,-2.92
91,-2.92
92,-2.88
93,-2.75
94,-2.63
95,-2.59
96,-2.59
97,-2.59
98,-2.59
99,-2.53
100,-2.43
101,-2.43
102,-2.36
104,-2.27
105,-2.27
106,-2.27
107,-2.27
108,-2.27
109,-2.27
110,-2.27
111,-2.27
112,-2.27
113,-2.27
114,-2.27
115,-2.27
117,-2.27
118,-2.27
119,-2.27
120,-2.27
121,-2.27
123,-2.27
124,-2.27
125,-2.27
126,-2.24
128,-2.07
129,-1.98
130,-1.95
131,-1.95
133,-1.95
134,-1.95
135,-1.95
137,-1.95
138,-1.95
140,-1.95
141,-1.95
142,-1.95
144,-1.95
145,-1.95
147,-1.95
148,-1.95
150,-1.95
151,-1.95
153,-1.95
154,-1.95
156,-1.95
157,-1.95
159,-1.95
160,-1.95
162,-1.95
164,-2.03
165,-2.10
167,-1.98
169,-1.95
170,-1.95
172,-1.95
174,-1.95
175,-1.95
177,-1.95
179,-2.04
181,-2.05
183,-1.95
184,-1.95
186,-1.95
188,-1.95
190,-1.95
192,-1.95
194,-1.95
196,-1.95
198,-1.95
200,-1.95
202,-1.95
204,-1.95
206,-1.95
208,-1.95
210,-1.95
212,-1.95
214,-1.94
216,-1.83
218,-1.78
221,-1.74
223,-1.64
225,-1.71
227,-1.76
229,-1.66
232,-1.62
234,-1.62
236,-1.62
239,-1.62
241,-1.62
244,-1.62
246,-1.62
248,-1.62
251,-1.62
253,-1.62
256,-1.62
259,-1.57
261,-1.48
264,-1.57
266,-1.62
269,-1.62
272,-1.38
274,-1.30
277,-1.30
280,-1.30
283,-1.30
286,-1.30
288,-1.30
291,-1.30
294,-1.30
297,-1.30
300,-1.30
303,-1.30
306,-1.30
309,-1.30
312,-1.25
316,-1.14
319,-1.14
322,-1.05
325,-0.97
328,-0.97
332,-0.97
335,-0.97
338,-0.97
342,-0.97
345,-0.97
349,-0.97
352,-0.97
356,-0.97
359,-0.97
363,-0.97
366,-0.91
370,-0.78
374,-0.66
377,-0.65
381,-0.65
385,-0.65
389,-0.44
393,-0.32
397,-0.32
401,-0.32
405,-0.17
409,0.00
413,0.00
417,0.00
421,0.03
425,0.13
430,0.27
434,0.32
438,0.32
443,0.32
447,0.43
451,0.63
456,0.65
460,0.65
465,0.65
470,0.65
474,0.65
479,0.65
484,0.65
489,0.65
494,0.65
499,0.65
504,0.65
509,0.65
514,0.65
519,0.65
524,0.65
529,0.65
535,0.65
540,0.65
545,0.65
551,0.65
556,0.65
562,0.65
568,0.65
573,0.65
579,0.65
585,0.65
591,0.65
596,0.65
602,0.65
608,0.65
615,0.65
621,0.65
627,0.65
633,0.65
639,0.65
646,0.65
652,0.65
659,0.65
665,0.65
672,0.65
679,0.65
686,0.65
692,0.65
699,0.72
706,0.81
713,0.81
721,0.91
728,0.97
735,0.97
742,0.97
750,0.91
757,0.81
765,0.69
773,0.65
780,0.65
788,0.65
796,0.65
804,0.65
812,0.65
820,0.65
828,0.65
837,0.65
845,0.65
853,0.60
862,0.49
871,0.49
879,0.42
888,0.32
897,0.32
906,0.32
915,0.29
924,0.18
933,0.07
943,0.00
952,-0.00
962,-0.00
971,0.00
981,-0.00
991,0.00
1001,0.00
1011,-0.00
1021,-0.00
1031,0.00
1041,-0.00
1052,0.00
1062,0.00
1073,0.00
1084,0.00
1094,0.00
1105,0.00
1116,0.00
1128,0.00
1139,0.00
1150,0.00
1162,0.00
1173,0.00
1185,0.00
1197,0.00
1209,0.00
1221,-0.05
1233,-0.16
1246,-0.16
1258,-0.10
1271,0.00
1283,0.00
1296,0.00
1309,0.00
1322,0.00
1335,0.00
1349,0.00
1362,0.00
1376,0.00
1390,0.05
1404,0.17
1418,0.28
1432,0.32
1446,0.32
1461,0.32
1475,0.32
1490,0.38
1505,0.61
1520,0.65
1535,0.65
1550,0.65
1566,0.65
1582,0.76
1597,0.97
1613,0.97
1629,0.97
1646,0.97
1662,0.97
1679,1.05
1696,1.17
1713,1.28
1730,1.30
1747,1.30
1764,1.30
1782,1.40
1800,1.51
1818,1.62
1836,1.62
1854,1.75
1873,1.95
1892,1.95
1911,2.11
1930,2.27
1949,2.27
1969,2.36
1988,2.47
2008,2.59
2028,2.59
2048,2.70
2069,2.92
2090,2.92
2111,2.92
2132,2.96
2153,3.18
2175,3.24
2196,3.24
2218,3.24
2240,3.24
2263,3.24
2285,3.24
2308,3.24
2331,3.24
2355,3.24
2378,3.24
2402,3.24
2426,3.21
2450,2.98
2475,2.92
2500,2.89
2525,2.77
2550,2.66
2575,2.51
2601,2.28
2627,2.27
2653,2.16
2680,1.93
2707,1.70
2734,1.55
2761,1.40
2789,1.06
2817,0.72
2845,0.42
2873,0.20
2902,-0.03
2931,-0.25
2960,-0.48
2990,-0.81
3020,-1.15
3050,-1.48
3080,-1.70
3111,-2.06
3142,-2.47
3174,-2.70
3206,-3.01
3238,-3.35
3270,-3.68
3303,-4.12
3336,-4.47
3369,-4.70
3403,-5.03
3437,-5.31
3471,-5.53
3506,-5.76
3541,-5.91
3576,-6.02
3612,-6.13
3648,-5.99
3685,-5.80
3721,-5.69
3759,-5.48
3796,-5.26
3834,-5.03
3873,-4.58
3911,-4.08
3950,-3.52
3990,-2.95
4030,-2.39
4070,-1.79
4111,-0.99
4152,-0.38
4193,0.24
4235,1.03
4278,1.63
4321,2.24
4364,2.92
4407,3.58
4451,4.13
4496,4.59
4541,5.04
4586,5.41
4632,5.75
4679,6.09
4725,6.42
4773,6.69
4820,6.80
4868,7.01
4917,7.23
4966,7.46
5016,7.46
5066,7.58
5117,7.78
5168,7.78
5220,7.78
5272,7.78
5325,7.78
5378,7.61
5432,7.42
5486,7.31
5541,7.20
5596,7.03
5652,6.81
5709,6.58
5766,6.42
5823,6.30
5882,6.07
5940,5.85
6000,5.65
6060,5.54
6120,5.43
6182,5.31
6244,5.20
6306,5.19
6369,5.19
6433,5.19
6497,5.19
6562,5.19
6628,5.19
6694,5.19
6761,5.19
6828,5.19
6897,5.19
6966,5.19
7035,5.19
7106,5.19
7177,5.19
7249,5.19
7321,5.19
7394,5.19
7468,5.19
7543,5.16
7618,4.93
7694,4.86
7771,4.81
7849,4.58
7928,4.45
8007,4.29
8087,4.07
8168,3.85
8250,3.62
8332,3.40
8415,3.17
8499,2.95
8584,2.74
8670,2.63
8757,2.43
8845,2.21
8933,1.99
9022,1.85
9113,1.78
9204,1.78
9296,1.68
9389,1.62
9483,1.62
9577,1.62
9673,1.62
9770,1.64
9868,1.75
9966,1.86
10066,1.91
10167,1.80
10268,1.69
10371,1.58
10475,1.46
10579,1.25
10685,1.08
10792,0.96
10900,0.73
11009,0.58
11119,0.47
11230,0.35
11343,0.24
11456,0.13
11571,0.02
11686,0.00
11803,-0.09
11921,-0.31
12040,-0.32
12161,-0.44
12282,-0.65
12405,-0.65
12529,-0.65
12655,-0.63
12781,-0.52
12909,-0.40
13038,-0.32
13168,-0.32
13300,-0.13
13433,0.00
13567,0.00
13703,0.00
13840,0.06
13978,0.17
14118,0.28
14259,0.32
14402,0.32
14546,0.32
14692,0.32
14838,0.32
14987,0.32
15137,0.32
15288,0.42
15441,0.64
15595,0.65
15751,0.65
15909,0.66
16068,0.77
16229,0.88
16391,0.97
16555,0.97
16720,0.97
16888,0.97
17056,0.97
17227,0.87
17399,0.76
17573,0.65
17749,0.43
17926,0.26
18106,0.14
18287,-0.09
18470,-0.31
18654,-0.53
18841,-0.76
19029,-0.98
19220,-1.21
19412,-1.43
19606,-1.86
19802,-2.31
20000,-2.76
