frequency,raw,error,smoothed,error_smoothed,equalization,parametric_eq,equalized_raw,equalized_smoothed,target
20,0.31,-4.19,0.28,-4.22,4.22,0.90,4.53,4.50,4.50
21,0.57,-3.93,0.56,-3.93,3.93,1.04,4.50,4.50,4.50
22,0.82,-3.68,0.83,-3.66,3.66,1.19,4.48,4.50,4.50
23,1.07,-3.42,1.09,-3.40,3.40,1.36,4.47,4.49,4.49
24,1.31,-3.18,1.33,-3.16,3.16,1.53,4.47,4.49,4.49
25,1.54,-2.95,1.56,-2.93,2.93,1.71,4.47,4.49,4.49
26,1.76,-2.73,1.77,-2.71,2.71,1.88,4.47,4.48,4.48
27,1.97,-2.51,1.97,-2.51,2.51,2.04,4.48,4.48,4.48
28,2.16,-2.32,2.16,-2.32,2.32,2.18,4.48,4.48,4.48
29,2.34,-2.13,2.33,-2.14,2.14,2.29,4.48,4.47,4.47
30,2.51,-1.96,2.49,-1.98,1.98,2.36,4.49,4.47,4.47
31,2.67,-1.79,2.63,-1.83,1.83,2.39,4.50,4.46,4.46
32,2.79,-1.67,2.76,-1.69,1.69,2.37,4.48,4.46,4.46
33,2.89,-1.56,2.88,-1.57,1.57,2.32,4.46,4.45,4.45
34,2.99,-1.45,2.98,-1.46,1.46,2.24,4.45,4.44,4.44
35,3.07,-1.37,3.07,-1.36,1.36,2.14,4.43,4.44,4.44
36,3.14,-1.29,3.15,-1.28,1.28,2.03,4.42,4.43,4.43
37,3.21,-1.21,3.21,-1.20,1.20,1.91,4.41,4.42,4.42
38,3.27,-1.14,3.27,-1.14,1.14,1.78,4.41,4.41,4.41
39,3.31,-1.09,3.32,-1.08,1.08,1.66,4.39,4.40,4.40
40,3.35,-1.04,3.35,-1.04,1.04,1.54,4.38,4.39,4.39
41,3.39,-0.99,3.38,-0.99,0.99,1.43,4.38,4.38,4.38
42,3.41,-0.96,3.41,-0.96,0.96,1.33,4.37,4.36,4.36
43,3.43,-0.92,3.42,-0.93,0.93,1.23,4.36,4.35,4.35
44,3.44,-0.90,3.44,-0.90,0.90,1.14,4.34,4.34,4.34
45,3.45,-0.87,3.44,-0.88,0.88,1.06,4.33,4.32,4.32
46,3.45,-0.86,3.45,-0.86,0.86,0.98,4.31,4.31,4.31
47,3.45,-0.84,3.45,-0.84,0.84,0.91,4.29,4.29,4.29
48,3.45,-0.83,3.45,-0.82,0.82,0.84,4.27,4.27,4.27
49,3.45,-0.81,3.45,-0.80,0.80,0.78,4.25,4.26,4.26
50,3.45,-0.79,3.46,-0.78,0.78,0.73,4.23,4.24,4.24
51,3.45,-0.77,3.46,-0.76,0.76,0.67,4.21,4.22,4.22
52,3.45,-0.75,3.46,-0.74,0.74,0.62,4.19,4.20,4.20
53,3.46,-0.72,3.46,-0.71,0.71,0.58,4.17,4.18,4.18
54,3.47,-0.68,3.47,-0.68,0.68,0.53,4.15,4.15,4.15
55,3.48,-0.65,3.48,-0.65,0.65,0.49,4.13,4.13,4.13
56,3.49,-0.62,3.49,-0.61,0.61,0.45,4.10,4.11,4.11
57,3.50,-0.58,3.51,-0.57,0.57,0.41,4.07,4.08,4.08
58,3.51,-0.55,3.53,-0.53,0.53,0.37,4.04,4.05,4.05
59,3.53,-0.50,3.55,-0.48,0.48,0.33,4.01,4.03,4.03
60,3.55,-0.45,3.57,-0.43,0.43,0.29,3.98,4.00,4.00
61,3.58,-0.39,3.59,-0.38,0.38,0.25,3.96,3.97,3.97
62,3.61,-0.33,3.61,-0.33,0.33,0.21,3.94,3.94,3.94
63,3.65,-0.26,3.63,-0.27,0.27,0.17,3.92,3.91,3.91
64,3.69,-0.19,3.66,-0.22,0.22,0.13,3.91,3.88,3.88
65,3.71,-0.14,3.67,-0.17,0.17,0.09,3.88,3.85,3.85
66,3.72,-0.09,3.69,-0.12,0.12,0.05,3.84,3.81,3.81
67,3.72,-0.06,3.71,-0.07,0.07,0.01,3.79,3.78,3.78
68,3.73,-0.02,3.72,-0.03,0.03,-0.03,3.75,3.74,3.74
69,3.72,0.01,3.73,0.02,-0.02,-0.07,3.70,3.71,3.71
70,3.72,0.05,3.74,0.07,-0.07,-0.12,3.65,3.67,3.67
71,3.73,0.09,3.75,0.11,-0.11,-0.16,3.62,3.64,3.64
72,3.74,0.14,3.76,0.16,-0.16,-0.20,3.58,3.60,3.60
73,3.76,0.20,3.77,0.21,-0.21,-0.24,3.55,3.56,3.56
74,3.78,0.26,3.78,0.25,-0.25,-0.29,3.53,3.52,3.52
75,3.80,0.31,3.78,0.30,-0.30,-0.33,3.50,3.48,3.48
76,3.80,0.35,3.79,0.35,-0.35,-0.38,3.45,3.44,3.44
77,3.80,0.39,3.80,0.40,-0.40,-0.42,3.40,3.41,3.41
78,3.81,0.44,3.81,0.45,-0.45,-0.47,3.36,3.37,3.37
79,3.81,0.48,3.82,0.49,-0.49,-0.51,3.32,3.32,3.32
80,3.83,0.54,3.83,0.54,-0.54,-0.56,3.29,3.28,3.28
81,3.84,0.60,3.83,0.59,-0.59,-0.60,3.25,3.24,3.24
82,3.85,0.65,3.84,0.64,-0.64,-0.65,3.21,3.20,3.20
83,3.85,0.69,3.84,0.68,-0.68,-0.70,3.17,3.16,3.16
84,3.85,0.73,3.85,0.73,-0.73,-0.74,3.12,3.12,3.12
85,3.85,0.77,3.85,0.77,-0.77,-0.79,3.08,3.08,3.08
86,3.85,0.81,3.85,0.82,-0.82,-0.84,3.03,3.04,3.04
87,3.85,0.85,3.85,0.86,-0.86,-0.89,2.99,2.99,2.99
88,3.85,0.90,3.86,0.90,-0.90,-0.94,2.95,2.95,2.95
89,3.86,0.95,3.86,0.95,-0.95,-0.99,2.91,2.91,2.91
90,3.86,0.99,3.86,0.99,-0.99,-1.04,2.87,2.87,2.87
91,3.86,1.03,3.86,1.03,-1.03,-1.09,2.83,2.83,2.83
92,3.86,1.07,3.86,1.07,-1.07,-1.14,2.79,2.79,2.79
93,3.86,1.11,3.86,1.11,-1.11,-1.19,2.75,2.75,2.75
94,3.86,1.15,3.86,1.15,-1.15,-1.24,2.70,2.71,2.71
95,3.86,1.19,3.86,1.19,-1.19,-1.29,2.67,2.67,2.67
96,3.86,1.23,3.86,1.23,-1.23,-1.34,2.63,2.63,2.63
97,3.88,1.29,3.86,1.27,-1.27,-1.39,2.61,2.58,2.59
98,3.87,1.32,3.85,1.31,-1.31,-1.45,2.56,2.54,2.55
99,3.86,1.35,3.85,1.35,-1.35,-1.50,2.51,2.50,2.51
100,3.86,1.39,3.85,1.39,-1.39,-1.55,2.47,2.46,2.47
101,3.84,1.41,3.84,1.42,-1.42,-1.60,2.42,2.42,2.43
102,3.83,1.44,3.84,1.46,-1.46,-1.65,2.37,2.38,2.39
104,3.81,1.49,3.84,1.50,-1.50,-1.75,2.31,2.34,2.32
105,3.81,1.53,3.83,1.54,-1.54,-1.80,2.27,2.30,2.28
106,3.81,1.56,3.83,1.58,-1.58,-1.85,2.23,2.26,2.25
107,3.82,1.61,3.83,1.61,-1.61,-1.89,2.21,2.22,2.21
108,3.84,1.66,3.83,1.65,-1.65,-1.94,2.19,2.18,2.18
109,3.85,1.71,3.83,1.69,-1.69,-1.98,2.16,2.14,2.14
110,3.85,1.74,3.83,1.72,-1.72,-2.03,2.13,2.11,2.11
111,3.85,1.77,3.83,1.76,-1.76,-2.07,2.09,2.07,2.07
112,3.84,1.80,3.83,1.79,-1.79,-2.11,2.05,2.04,2.04
113,3.84,1.83,3.83,1.83,-1.83,-2.14,2.01,2.00,2.01
114,3.83,1.85,3.83,1.86,-1.86,-2.18,1.97,1.97,1.98
115,3.83,1.88,3.83,1.89,-1.89,-2.21,1.94,1.93,1.95
117,3.81,1.92,3.83,1.93,-1.93,-2.28,1.88,1.90,1.89
118,3.80,1.94,3.82,1.96,-1.96,-2.31,1.84,1.86,1.86
119,3.80,1.97,3.82,1.99,-1.99,-2.33,1.80,1.83,1.83
120,3.80,2.00,3.82,2.03,-2.03,-2.35,1.77,1.80,1.80
121,3.81,2.04,3.82,2.06,-2.06,-2.38,1.75,1.76,1.77
123,3.84,2.12,3.82,2.09,-2.09,-2.41,1.74,1.73,1.72
124,3.86,2.17,3.82,2.13,-2.13,-2.43,1.73,1.70,1.69
125,3.86,2.19,3.82,2.16,-2.16,-2.44,1.70,1.66,1.67
126,3.85,2.21,3.82,2.19,-2.19,-2.45,1.66,1.63,1.64
128,3.83,2.24,3.82,2.21,-2.21,-2.46,1.61,1.60,1.59
129,3.81,2.24,3.81,2.24,-2.24,-2.47,1.57,1.57,1.57
130,3.78,2.23,3.81,2.27,-2.27,-2.47,1.51,1.54,1.55
131,3.78,2.26,3.81,2.29,-2.29,-2.47,1.49,1.51,1.52
133,3.77,2.29,3.80,2.32,-2.32,-2.47,1.45,1.49,1.48
134,3.79,2.33,3.80,2.34,-2.34,-2.46,1.45,1.46,1.46
135,3.81,2.37,3.80,2.37,-2.37,-2.46,1.44,1.43,1.44
137,3.82,2.42,3.79,2.39,-2.39,-2.45,1.43,1.40,1.40
138,3.82,2.44,3.79,2.41,-2.41,-2.44,1.41,1.38,1.38
140,3.80,2.46,3.79,2.44,-2.44,-2.42,1.36,1.35,1.34
141,3.78,2.45,3.78,2.46,-2.46,-2.41,1.32,1.32,1.32
142,3.77,2.46,3.78,2.48,-2.48,-2.40,1.29,1.30,1.31
144,3.75,2.48,3.78,2.50,-2.50,-2.38,1.25,1.28,1.27
145,3.75,2.49,3.77,2.52,-2.52,-2.37,1.23,1.25,1.26
147,3.76,2.53,3.77,2.54,-2.54,-2.34,1.22,1.23,1.22
148,3.77,2.56,3.76,2.56,-2.56,-2.33,1.21,1.21,1.21
150,3.78,2.60,3.76,2.57,-2.57,-2.31,1.21,1.18,1.18
151,3.78,2.61,3.75,2.59,-2.59,-2.29,1.19,1.16,1.17
153,3.77,2.63,3.75,2.60,-2.60,-2.27,1.16,1.14,1.14
154,3.75,2.62,3.74,2.62,-2.62,-2.26,1.13,1.12,1.13
156,3.72,2.62,3.73,2.63,-2.63,-2.24,1.09,1.10,1.10
157,3.71,2.62,3.73,2.64,-2.64,-2.23,1.07,1.08,1.09
159,3.69,2.63,3.72,2.65,-2.65,-2.22,1.04,1.07,1.06
160,3.68,2.63,3.71,2.66,-2.66,-2.21,1.02,1.05,1.05
162,3.69,2.66,3.70,2.67,-2.67,-2.19,1.02,1.03,1.03
164,3.70,2.69,3.69,2.67,-2.67,-2.18,1.03,1.01,1.01
165,3.69,2.69,3.67,2.68,-2.68,-2.18,1.01,1.00,1.00
167,3.69,2.71,3.66,2.68,-2.68,-2.17,1.01,0.98,0.98
169,3.66,2.70,3.64,2.68,-2.68,-2.16,0.98,0.96,0.96
170,3.65,2.70,3.63,2.68,-2.68,-2.16,0.97,0.95,0.95
172,3.61,2.67,3.61,2.67,-2.67,-2.16,0.94,0.93,0.93
174,3.58,2.66,3.59,2.67,-2.67,-2.16,0.91,0.92,0.92
175,3.57,2.66,3.57,2.66,-2.66,-2.16,0.91,0.91,0.91
177,3.54,2.65,3.55,2.66,-2.66,-2.16,0.88,0.89,0.89
179,3.50,2.62,3.53,2.65,-2.65,-2.17,0.85,0.88,0.88
181,3.48,2.61,3.51,2.64,-2.64,-2.17,0.84,0.87,0.86
183,3.46,2.61,3.48,2.63,-2.63,-2.18,0.83,0.85,0.85
184,3.45,2.60,3.46,2.62,-2.62,-2.19,0.83,0.84,0.84
186,3.45,2.62,3.44,2.61,-2.61,-2.20,0.84,0.83,0.83
188,3.44,2.62,3.42,2.60,-2.60,-2.22,0.84,0.82,0.82
190,3.43,2.62,3.39,2.58,-2.58,-2.23,0.84,0.81,0.81
192,3.40,2.60,3.37,2.57,-2.57,-2.25,0.83,0.80,0.80
194,3.37,2.58,3.34,2.55,-2.55,-2.27,0.82,0.79,0.79
196,3.32,2.54,3.31,2.53,-2.53,-2.29,0.79,0.78,0.78
198,3.28,2.51,3.28,2.51,-2.51,-2.31,0.76,0.77,0.77
200,3.24,2.48,3.25,2.50,-2.50,-2.33,0.74,0.76,0.76
202,3.21,2.46,3.23,2.48,-2.48,-2.35,0.73,0.75,0.75
204,3.18,2.44,3.20,2.46,-2.46,-2.37,0.72,0.74,0.74
206,3.16,2.43,3.17,2.44,-2.44,-2.40,0.72,0.73,0.73
208,3.13,2.40,3.15,2.43,-2.43,-2.42,0.70,0.72,0.72
210,3.12,2.40,3.13,2.41,-2.41,-2.44,0.71,0.72,0.72
212,3.10,2.39,3.11,2.40,-2.40,-2.47,0.70,0.71,0.71
214,3.10,2.40,3.09,2.39,-2.39,-2.49,0.71,0.70,0.70
216,3.09,2.39,3.08,2.38,-2.38,-2.51,0.71,0.70,0.70
218,3.08,2.39,3.06,2.38,-2.38,-2.53,0.70,0.69,0.69
221,3.07,2.39,3.05,2.37,-2.37,-2.57,0.70,0.68,0.68
223,3.05,2.37,3.04,2.36,-2.36,-2.58,0.69,0.68,0.68
225,3.03,2.36,3.02,2.35,-2.35,-2.60,0.68,0.67,0.67
227,3.01,2.34,3.01,2.35,-2.35,-2.62,0.66,0.66,0.67
229,2.99,2.33,3.00,2.34,-2.34,-2.63,0.65,0.66,0.66
232,2.97,2.32,2.98,2.33,-2.33,-2.65,0.64,0.65,0.65
234,2.96,2.31,2.97,2.32,-2.32,-2.66,0.64,0.65,0.65
236,2.95,2.30,2.95,2.31,-2.31,-2.67,0.64,0.64,0.64
239,2.94,2.30,2.94,2.30,-2.30,-2.68,0.64,0.64,0.64
241,2.93,2.30,2.92,2.29,-2.29,-2.68,0.64,0.63,0.63
244,2.91,2.28,2.90,2.27,-2.27,-2.68,0.63,0.63,0.63
246,2.90,2.27,2.88,2.26,-2.26,-2.68,0.64,0.62,0.62
248,2.88,2.26,2.86,2.24,-2.24,-2.68,0.63,0.62,0.62
251,2.85,2.23,2.84,2.23,-2.23,-2.66,0.62,0.62,0.62
253,2.83,2.22,2.82,2.21,-2.21,-2.65,0.62,0.61,0.61
256,2.80,2.19,2.80,2.19,-2.19,-2.64,0.61,0.61,0.61
259,2.77,2.16,2.78,2.17,-2.17,-2.61,0.60,0.60,0.60
261,2.75,2.15,2.75,2.15,-2.15,-2.60,0.60,0.60,0.60
264,2.72,2.12,2.73,2.13,-2.13,-2.57,0.58,0.60,0.60
266,2.71,2.11,2.71,2.12,-2.12,-2.55,0.59,0.59,0.59
269,2.69,2.10,2.69,2.10,-2.10,-2.51,0.59,0.59,0.59
272,2.67,2.08,2.67,2.08,-2.08,-2.47,0.59,0.59,0.59
274,2.65,2.06,2.65,2.06,-2.06,-2.45,0.59,0.59,0.59
277,2.63,2.05,2.63,2.05,-2.05,-2.40,0.58,0.58,0.58
280,2.61,2.03,2.61,2.03,-2.03,-2.36,0.58,0.58,0.58
283,2.59,2.01,2.60,2.02,-2.02,-2.32,0.57,0.58,0.58
286,2.57,2.00,2.58,2.01,-2.01,-2.27,0.56,0.57,0.57
288,2.57,2.00,2.56,1.99,-1.99,-2.24,0.58,0.57,0.57
291,2.55,1.98,2.55,1.98,-1.98,-2.19,0.57,0.57,0.57
294,2.54,1.97,2.54,1.97,-1.97,-2.15,0.57,0.57,0.57
297,2.53,1.96,2.52,1.96,-1.96,-2.10,0.57,0.56,0.56
300,2.51,1.95,2.51,1.95,-1.95,-2.05,0.56,0.56,0.56
303,2.50,1.94,2.49,1.93,-1.93,-2.00,0.57,0.56,0.56
306,2.48,1.92,2.48,1.92,-1.92,-1.96,0.56,0.56,0.56
309,2.47,1.91,2.46,1.91,-1.91,-1.91,0.56,0.56,0.56
312,2.45,1.89,2.45,1.89,-1.89,-1.87,0.55,0.56,0.56
316,2.43,1.88,2.43,1.88,-1.88,-1.81,0.55,0.55,0.55
319,2.42,1.87,2.42,1.87,-1.87,-1.76,0.55,0.55,0.55
322,2.40,1.85,2.40,1.85,-1.85,-1.72,0.55,0.55,0.55
325,2.39,1.84,2.39,1.84,-1.84,-1.68,0.55,0.55,0.55
328,2.37,1.82,2.37,1.82,-1.82,-1.64,0.55,0.55,0.55
332,2.35,1.80,2.35,1.80,-1.80,-1.59,0.54,0.55,0.55
335,2.33,1.78,2.33,1.79,-1.79,-1.55,0.54,0.54,0.54
338,2.32,1.78,2.31,1.77,-1.77,-1.52,0.55,0.54,0.54
342,2.29,1.75,2.29,1.75,-1.75,-1.47,0.54,0.54,0.54
345,2.28,1.74,2.27,1.73,-1.73,-1.44,0.55,0.54,0.54
349,2.25,1.71,2.25,1.71,-1.71,-1.39,0.54,0.54,0.54
352,2.24,1.70,2.23,1.69,-1.69,-1.36,0.55,0.54,0.54
356,2.21,1.67,2.21,1.67,-1.67,-1.32,0.54,0.54,0.54
359,2.19,1.65,2.18,1.65,-1.65,-1.29,0.54,0.54,0.54
363,2.16,1.62,2.16,1.63,-1.63,-1.26,0.53,0.53,0.53
366,2.14,1.61,2.14,1.61,-1.61,-1.23,0.53,0.53,0.53
370,2.11,1.58,2.12,1.58,-1.58,-1.20,0.52,0.53,0.53
374,2.09,1.56,2.09,1.56,-1.56,-1.17,0.52,0.53,0.53
377,2.07,1.54,2.07,1.54,-1.54,-1.14,0.52,0.53,0.53
381,2.05,1.52,2.05,1.53,-1.53,-1.11,0.52,0.53,0.53
385,2.03,1.50,2.03,1.51,-1.51,-1.08,0.52,0.53,0.53
389,2.01,1.48,2.02,1.49,-1.49,-1.06,0.52,0.52,0.52
393,2.00,1.48,2.00,1.48,-1.48,-1.03,0.52,0.52,0.52
397,1.98,1.46,1.98,1.46,-1.46,-1.01,0.52,0.52,0.52
401,1.97,1.45,1.97,1.44,-1.44,-0.98,0.52,0.52,0.52
405,1.95,1.43,1.95,1.43,-1.43,-0.96,0.52,0.52,0.52
409,1.94,1.42,1.93,1.42,-1.42,-0.94,0.52,0.52,0.52
413,1.92,1.40,1.92,1.40,-1.40,-0.91,0.52,0.52,0.52
417,1.91,1.39,1.90,1.39,-1.39,-0.89,0.52,0.52,0.52
421,1.90,1.38,1.89,1.37,-1.37,-0.87,0.53,0.52,0.52
425,1.89,1.37,1.87,1.36,-1.36,-0.85,0.53,0.52,0.52
430,1.87,1.35,1.86,1.34,-1.34,-0.83,0.53,0.52,0.52
434,1.85,1.33,1.85,1.33,-1.33,-0.81,0.52,0.52,0.52
438,1.84,1.32,1.84,1.32,-1.32,-0.79,0.52,0.52,0.52
443,1.81,1.28,1.84,1.31,-1.31,-0.76,0.50,0.53,0.52
447,1.79,1.26,1.83,1.30,-1.30,-0.74,0.49,0.53,0.53
451,1.78,1.25,1.83,1.29,-1.29,-0.72,0.48,0.53,0.53
456,1.78,1.24,1.82,1.29,-1.29,-0.70,0.49,0.54,0.54
460,1.79,1.25,1.82,1.28,-1.28,-0.68,0.51,0.54,0.54
465,1.81,1.26,1.81,1.26,-1.26,-0.65,0.55,0.55,0.55
470,1.82,1.26,1.80,1.24,-1.24,-0.63,0.57,0.56,0.56
474,1.81,1.24,1.79,1.22,-1.22,-0.60,0.59,0.57,0.57
479,1.79,1.21,1.76,1.18,-1.18,-0.58,0.61,0.58,0.58
484,1.75,1.16,1.72,1.13,-1.13,-0.55,0.62,0.59,0.59
489,1.68,1.08,1.67,1.07,-1.07,-0.52,0.61,0.60,0.60
494,1.63,1.02,1.60,0.99,-0.99,-0.49,0.64,0.61,0.61
499,1.56,0.93,1.52,0.89,-0.89,-0.46,0.67,0.63,0.63
504,1.47,0.83,1.42,0.78,-0.78,-0.43,0.69,0.64,0.64
509,1.37,0.71,1.31,0.65,-0.65,-0.39,0.72,0.66,0.66
514,1.26,0.58,1.18,0.51,-0.51,-0.36,0.75,0.68,0.68
519,1.12,0.42,1.05,0.35,-0.35,-0.32,0.77,0.70,0.70
524,0.95,0.23,0.91,0.19,-0.19,-0.29,0.76,0.72,0.72
529,0.77,0.03,0.76,0.03,-0.03,-0.25,0.74,0.74,0.74
535,0.57,-0.19,0.62,-0.14,0.14,-0.21,0.71,0.76,0.76
540,0.41,-0.37,0.48,-0.30,0.30,-0.17,0.71,0.78,0.78
545,0.26,-0.54,0.34,-0.46,0.46,-0.13,0.72,0.80,0.80
551,0.12,-0.71,0.22,-0.61,0.61,-0.08,0.73,0.83,0.83
556,0.04,-0.81,0.11,-0.74,0.74,-0.04,0.78,0.85,0.85
562,-0.04,-0.92,0.01,-0.87,0.87,0.01,0.83,0.88,0.88
568,-0.09,-1.00,-0.08,-0.98,0.98,0.06,0.89,0.90,0.90
573,-0.12,-1.05,-0.15,-1.08,1.08,0.10,0.96,0.93,0.93
579,-0.16,-1.12,-0.20,-1.16,1.16,0.15,1.00,0.96,0.96
585,-0.20,-1.19,-0.25,-1.24,1.24,0.20,1.04,0.99,0.99
591,-0.25,-1.27,-0.28,-1.30,1.30,0.25,1.05,1.02,1.02
596,-0.28,-1.33,-0.30,-1.35,1.35,0.30,1.07,1.05,1.05
602,-0.33,-1.41,-0.31,-1.39,1.39,0.35,1.06,1.08,1.08
608,-0.34,-1.45,-0.31,-1.42,1.42,0.41,1.08,1.11,1.11
615,-0.35,-1.49,-0.31,-1.45,1.45,0.47,1.10,1.14,1.14
621,-0.33,-1.51,-0.29,-1.46,1.46,0.52,1.13,1.17,1.17
627,-0.29,-1.50,-0.27,-1.47,1.47,0.58,1.18,1.21,1.21
633,-0.25,-1.49,-0.23,-1.48,1.48,0.64,1.22,1.24,1.24
639,-0.19,-1.47,-0.20,-1.47,1.47,0.69,1.28,1.27,1.27
646,-0.13,-1.44,-0.16,-1.47,1.47,0.76,1.34,1.31,1.31
652,-0.08,-1.43,-0.12,-1.46,1.46,0.81,1.38,1.34,1.34
659,-0.03,-1.41,-0.07,-1.45,1.45,0.88,1.42,1.38,1.38
665,-0.00,-1.42,-0.02,-1.44,1.44,0.94,1.44,1.42,1.42
672,0.05,-1.40,0.03,-1.43,1.43,1.01,1.47,1.45,1.45
679,0.09,-1.40,0.08,-1.41,1.41,1.07,1.50,1.49,1.49
686,0.14,-1.39,0.13,-1.39,1.39,1.14,1.53,1.53,1.53
692,0.17,-1.39,0.19,-1.38,1.38,1.20,1.55,1.56,1.56
699,0.21,-1.39,0.25,-1.36,1.36,1.27,1.56,1.60,1.60
706,0.25,-1.39,0.31,-1.33,1.33,1.34,1.58,1.64,1.64
713,0.29,-1.39,0.37,-1.31,1.31,1.41,1.60,1.68,1.68
721,0.34,-1.38,0.42,-1.29,1.29,1.49,1.63,1.71,1.71
728,0.40,-1.35,0.48,-1.27,1.27,1.56,1.67,1.75,1.75
735,0.47,-1.32,0.52,-1.27,1.27,1.64,1.74,1.79,1.79
742,0.53,-1.30,0.55,-1.28,1.28,1.71,1.81,1.83,1.83
750,0.59,-1.28,0.56,-1.31,1.31,1.79,1.89,1.87,1.87
757,0.62,-1.28,0.55,-1.36,1.36,1.86,1.98,1.90,1.90
765,0.61,-1.33,0.50,-1.44,1.44,1.94,2.05,1.94,1.94
773,0.58,-1.40,0.42,-1.55,1.55,2.03,2.13,1.98,1.98
780,0.49,-1.52,0.31,-1.70,1.70,2.10,2.19,2.01,2.01
788,0.37,-1.68,0.17,-1.87,1.87,2.18,2.24,2.05,2.05
796,0.21,-1.88,0.01,-2.08,2.08,2.26,2.29,2.08,2.08
804,-0.01,-2.13,-0.18,-2.30,2.30,2.34,2.29,2.12,2.12
812,-0.27,-2.42,-0.38,-2.53,2.53,2.42,2.26,2.15,2.15
820,-0.55,-2.74,-0.58,-2.76,2.76,2.50,2.21,2.19,2.19
828,-0.84,-3.06,-0.77,-2.99,2.99,2.58,2.15,2.22,2.22
837,-1.13,-3.38,-0.94,-3.19,3.19,2.67,2.06,2.25,2.25
845,-1.34,-3.62,-1.08,-3.36,3.36,2.74,2.02,2.28,2.28
853,-1.49,-3.80,-1.19,-3.50,3.50,2.81,2.01,2.31,2.31
862,-1.53,-3.87,-1.25,-3.59,3.59,2.89,2.06,2.34,2.34
871,-1.49,-3.86,-1.28,-3.65,3.65,2.97,2.16,2.37,2.37
879,-1.41,-3.81,-1.26,-3.66,3.66,3.03,2.25,2.40,2.40
888,-1.25,-3.68,-1.21,-3.64,3.64,3.10,2.39,2.43,2.43
897,-1.08,-3.54,-1.13,-3.59,3.59,3.17,2.51,2.46,2.46
906,-0.90,-3.39,-1.03,-3.52,3.52,3.23,2.62,2.49,2.49
915,-0.75,-3.26,-0.91,-3.43,3.43,3.28,2.68,2.51,2.51
924,-0.63,-3.17,-0.79,-3.33,3.33,3.33,2.70,2.54,2.54
933,-0.53,-3.10,-0.67,-3.23,3.23,3.38,2.70,2.57,2.57
943,-0.44,-3.04,-0.54,-3.14,3.14,3.42,2.70,2.59,2.59
952,-0.37,-2.99,-0.43,-3.05,3.05,3.45,2.68,2.62,2.62
962,-0.31,-2.96,-0.32,-2.96,2.96,3.48,2.65,2.65,2.65
971,-0.24,-2.92,-0.21,-2.89,2.89,3.50,2.65,2.67,2.67
981,-0.16,-2.86,-0.12,-2.82,2.82,3.52,2.66,2.70,2.70
991,-0.08,-2.81,-0.03,-2.76,2.76,3.52,2.68,2.73,2.73
1001,0.01,-2.75,0.06,-2.70,2.70,3.53,2.71,2.75,2.75
1011,0.12,-2.66,0.14,-2.64,2.64,3.52,2.76,2.78,2.78
1021,0.21,-2.60,0.22,-2.59,2.59,3.51,2.80,2.81,2.81
1031,0.30,-2.54,0.30,-2.54,2.54,3.49,2.84,2.84,2.84
1041,0.39,-2.48,0.38,-2.49,2.49,3.46,2.88,2.86,2.86
1052,0.48,-2.41,0.45,-2.44,2.44,3.43,2.92,2.89,2.89
1062,0.57,-2.35,0.53,-2.39,2.39,3.39,2.96,2.92,2.92
1073,0.64,-2.31,0.60,-2.35,2.35,3.34,2.99,2.95,2.95
1084,0.71,-2.27,0.67,-2.30,2.30,3.29,3.01,2.98,2.98
1094,0.76,-2.25,0.75,-2.26,2.26,3.24,3.02,3.01,3.01
1105,0.81,-2.23,0.82,-2.22,2.22,3.18,3.03,3.04,3.04
1116,0.87,-2.20,0.89,-2.18,2.18,3.12,3.05,3.07,3.07
1128,0.92,-2.18,0.96,-2.14,2.14,3.04,3.06,3.10,3.10
1139,0.98,-2.15,1.03,-2.10,2.10,2.97,3.08,3.13,3.13
1150,1.05,-2.11,1.10,-2.06,2.06,2.90,3.11,3.16,3.16
1162,1.14,-2.05,1.18,-2.01,2.01,2.82,3.15,3.19,3.19
1173,1.22,-2.00,1.25,-1.97,1.97,2.75,3.19,3.22,3.22
1185,1.33,-1.93,1.32,-1.93,1.93,2.66,3.26,3.25,3.25
1197,1.42,-1.87,1.39,-1.89,1.89,2.58,3.31,3.29,3.29
1209,1.51,-1.81,1.46,-1.86,1.86,2.50,3.37,3.32,3.32
1221,1.58,-1.77,1.53,-1.83,1.83,2.41,3.40,3.35,3.35
1233,1.63,-1.76,1.59,-1.80,1.80,2.33,3.43,3.39,3.39
1246,1.67,-1.75,1.64,-1.78,1.78,2.24,3.45,3.42,3.42
1258,1.69,-1.76,1.69,-1.76,1.76,2.15,3.45,3.45,3.45
1271,1.72,-1.77,1.73,-1.76,1.76,2.07,3.47,3.49,3.49
1283,1.75,-1.77,1.77,-1.75,1.75,1.98,3.50,3.52,3.52
1296,1.77,-1.79,1.80,-1.75,1.75,1.90,3.52,3.56,3.56
1309,1.81,-1.78,1.83,-1.76,1.76,1.81,3.57,3.59,3.59
1322,1.84,-1.79,1.85,-1.78,1.78,1.73,3.61,3.63,3.63
1335,1.87,-1.79,1.87,-1.79,1.79,1.65,3.66,3.66,3.66
1349,1.90,-1.80,1.88,-1.82,1.82,1.56,3.71,3.70,3.70
1362,1.91,-1.83,1.89,-1.84,1.84,1.48,3.75,3.74,3.74
1376,1.92,-1.86,1.90,-1.88,1.88,1.40,3.80,3.77,3.77
1390,1.92,-1.89,1.90,-1.91,1.91,1.32,3.83,3.81,3.81
1404,1.91,-1.94,1.89,-1.96,1.96,1.24,3.87,3.85,3.85
1418,1.90,-1.99,1.88,-2.00,2.00,1.16,3.90,3.89,3.89
1432,1.90,-2.03,1.87,-2.05,2.05,1.09,3.95,3.93,3.93
1446,1.88,-2.09,1.86,-2.11,2.11,1.01,3.98,3.97,3.97
1461,1.85,-2.16,1.85,-2.16,2.16,0.93,4.01,4.01,4.01
1475,1.84,-2.21,1.83,-2.21,2.21,0.86,4.05,4.05,4.05
1490,1.82,-2.27,1.82,-2.26,2.26,0.79,4.08,4.09,4.09
1505,1.81,-2.32,1.82,-2.31,2.31,0.72,4.12,4.13,4.13
1520,1.80,-2.37,1.82,-2.35,2.35,0.64,4.15,4.17,4.17
1535,1.81,-2.40,1.83,-2.38,2.38,0.58,4.19,4.21,4.21
1550,1.82,-2.43,1.85,-2.40,2.40,0.51,4.22,4.25,4.25
1566,1.85,-2.45,1.88,-2.42,2.42,0.44,4.27,4.29,4.29
1582,1.89,-2.45,1.91,-2.42,2.42,0.37,4.31,4.34,4.34
1597,1.95,-2.43,1.96,-2.42,2.42,0.30,4.37,4.38,4.38
1613,2.00,-2.43,2.02,-2.40,2.40,0.24,4.40,4.42,4.42
1629,2.08,-2.39,2.09,-2.38,2.38,0.18,4.46,4.47,4.47
1646,2.16,-2.35,2.17,-2.34,2.34,0.11,4.50,4.51,4.51
1662,2.25,-2.31,2.26,-2.30,2.30,0.05,4.55,4.56,4.56
1679,2.36,-2.24,2.35,-2.25,2.25,-0.01,4.61,4.60,4.60
1696,2.46,-2.19,2.45,-2.20,2.20,-0.07,4.66,4.65,4.65
1713,2.57,-2.13,2.55,-2.15,2.15,-0.13,4.72,4.70,4.70
1730,2.67,-2.08,2.65,-2.09,2.09,-0.19,4.76,4.74,4.74
1747,2.77,-2.02,2.76,-2.03,2.03,-0.24,4.80,4.79,4.79
1764,2.87,-1.97,2.87,-1.97,1.97,-0.30,4.84,4.84,4.84
1782,2.98,-1.91,2.97,-1.92,1.92,-0.35,4.90,4.89,4.89
1800,3.10,-1.85,3.08,-1.86,1.86,-0.40,4.96,4.94,4.95
1818,3.21,-1.79,3.18,-1.81,1.81,-0.45,5.02,5.00,5.00
1836,3.32,-1.74,3.29,-1.76,1.76,-0.50,5.08,5.05,5.05
1854,3.42,-1.69,3.39,-1.72,1.72,-0.54,5.13,5.11,5.11
1873,3.55,-1.62,3.50,-1.67,1.67,-0.59,5.22,5.17,5.17
1892,3.67,-1.57,3.61,-1.62,1.62,-0.63,5.29,5.23,5.24
1911,3.78,-1.52,3.73,-1.57,1.57,-0.66,5.35,5.30,5.30
1930,3.89,-1.48,3.86,-1.51,1.51,-0.70,5.40,5.37,5.37
1949,4.00,-1.45,4.00,-1.45,1.45,-0.73,5.45,5.45,5.45
1969,4.12,-1.41,4.16,-1.37,1.37,-0.77,5.49,5.53,5.53
1988,4.27,-1.34,4.33,-1.28,1.28,-0.79,5.55,5.62,5.61
2008,4.45,-1.26,4.53,-1.18,1.18,-0.82,5.63,5.71,5.70
2028,4.68,-1.12,4.75,-1.05,1.05,-0.84,5.73,5.81,5.80
2048,4.95,-0.96,5.00,-0.91,0.91,-0.87,5.86,5.91,5.91
2069,5.26,-0.76,5.28,-0.74,0.74,-0.89,6.00,6.03,6.02
2090,5.59,-0.55,5.59,-0.56,0.56,-0.90,6.15,6.15,6.14
2111,5.92,-0.35,5.92,-0.35,0.35,-0.92,6.27,6.27,6.27
