frequency,raw,smoothed,error,error_smoothed,equalization,parametric_eq,fixed_band_eq,equalized_raw,equalized_smoothed,target
20.00,12.63,12.62,4.01,4.00,-3.97,-4.84,-2.21,8.67,8.66,8.62
20.20,12.66,12.68,4.04,4.06,-4.06,-4.84,-2.28,8.61,8.63,8.62
20.40,12.75,12.75,4.12,4.13,-4.15,-4.84,-2.34,8.60,8.60,8.62
20.61,12.83,12.83,4.21,4.21,-4.24,-4.85,-2.41,8.59,8.59,8.62
20.81,12.95,12.94,4.32,4.32,-4.33,-4.85,-2.48,8.61,8.60,8.62
21.02,13.03,13.04,4.41,4.42,-4.43,-4.85,-2.55,8.61,8.62,8.62
21.23,13.14,13.14,4.52,4.52,-4.52,-4.85,-2.62,8.62,8.62,8.62
21.44,13.25,13.24,4.63,4.62,-4.62,-4.85,-2.70,8.63,8.63,8.62
21.66,13.33,13.34,4.71,4.72,-4.72,-4.85,-2.78,8.62,8.62,8.62
21.87,13.45,13.44,4.83,4.82,-4.82,-4.85,-2.86,8.63,8.62,8.62
22.09,13.53,13.53,4.91,4.92,-4.91,-4.85,-2.94,8.61,8.62,8.62
22.31,13.64,13.63,5.02,5.01,-5.01,-4.85,-3.02,8.63,8.62,8.62
22.54,13.71,13.72,5.10,5.10,-5.10,-4.85,-3.11,8.61,8.61,8.62
22.76,13.81,13.81,5.19,5.20,-5.20,-4.85,-3.20,8.61,8.61,8.61
22.99,13.91,13.90,5.30,5.29,-5.29,-4.85,-3.29,8.62,8.61,8.61
23.22,13.98,13.99,5.37,5.38,-5.38,-4.86,-3.38,8.60,8.61,8.61
23.45,14.09,14.09,5.47,5.47,-5.48,-4.86,-3.48,8.61,8.61,8.61
23.69,14.18,14.18,5.57,5.57,-5.57,-4.86,-3.57,8.62,8.61,8.61
23.92,14.27,14.27,5.66,5.66,-5.67,-4.86,-3.67,8.60,8.60,8.61
24.16,14.37,14.36,5.76,5.75,-5.78,-4.86,-3.77,8.58,8.57,8.61
24.40,14.44,14.44,5.83,5.84,-5.89,-4.86,-3.88,8.54,8.55,8.61
24.65,14.52,14.53,5.92,5.92,-5.98,-4.86,-3.98,8.54,8.54,8.61
24.89,14.61,14.61,6.00,6.00,-6.04,-4.86,-4.09,8.57,8.57,8.60
25.14,14.68,14.70,6.07,6.10,-6.05,-4.86,-4.19,8.63,8.65,8.60
25.39,14.73,14.77,6.13,6.17,-6.01,-4.86,-4.30,8.72,8.76,8.60
25.65,14.75,14.68,6.15,6.08,-5.93,-4.87,-4.41,8.83,8.75,8.60
25.91,14.53,14.44,5.93,5.84,-5.77,-4.87,-4.51,8.76,8.67,8.60
26.16,13.91,14.04,5.31,5.44,-5.56,-4.87,-4.62,8.35,8.48,8.60
26.43,13.61,13.53,5.01,4.94,-5.32,-4.87,-4.73,8.29,8.22,8.60
26.69,13.11,13.11,4.52,4.52,-5.07,-4.87,-4.83,8.05,8.04,8.59
26.96,12.75,12.87,4.16,4.28,-4.83,-4.87,-4.94,7.92,8.04,8.59
27.23,12.78,12.76,4.19,4.17,-4.64,-4.87,-5.04,8.15,8.12,8.59
27.50,12.84,12.81,4.26,4.22,-4.50,-4.87,-5.14,8.34,8.31,8.59
27.77,12.92,12.92,4.33,4.33,-4.43,-4.87,-5.24,8.49,8.49,8.59
28.05,12.99,12.99,4.41,4.40,-4.40,-4.88,-5.33,8.59,8.59,8.58
28.33,13.05,13.06,4.47,4.47,-4.42,-4.88,-5.42,8.64,8.64,8.58
28.62,13.11,13.12,4.53,4.54,-4.47,-4.88,-5.51,8.64,8.65,8.58
28.90,13.18,13.18,4.61,4.60,-4.56,-4.88,-5.59,8.63,8.63,8.58
29.19,13.24,13.25,4.67,4.67,-4.65,-4.88,-5.66,8.59,8.59,8.58
29.48,13.32,13.31,4.74,4.74,-4.75,-4.88,-5.73,8.57,8.57,8.57
29.78,13.38,13.39,4.81,4.82,-4.82,-4.88,-5.79,8.56,8.57,8.57
30.08,13.46,13.46,4.90,4.90,-4.90,-4.88,-5.84,8.57,8.57,8.57
30.38,13.54,13.53,4.98,4.97,-4.97,-4.88,-5.89,8.58,8.57,8.56
30.68,13.59,13.60,5.03,5.04,-5.03,-4.89,-5.92,8.56,8.57,8.56
30.99,13.66,13.67,5.10,5.11,-5.10,-4.89,-5.95,8.56,8.57,8.56
31.30,13.72,13.72,5.17,5.17,-5.16,-4.89,-5.97,8.56,8.56,8.56
31.61,13.78,13.78,5.23,5.22,-5.22,-4.89,-5.99,8.56,8.55,8.55
31.93,13.81,13.82,5.26,5.27,-5.29,-4.89,-5.99,8.52,8.53,8.55
32.24,13.86,13.86,5.31,5.31,-5.35,-4.89,-5.99,8.50,8.50,8.55
32.57,13.90,13.90,5.36,5.36,-5.41,-4.89,-5.97,8.49,8.49,8.54
32.89,13.93,13.94,5.40,5.40,-5.45,-4.89,-5.96,8.49,8.50,8.54
33.22,13.98,13.99,5.45,5.45,-5.44,-4.89,-5.93,8.54,8.55,8.54
33.55,13.99,14.01,5.46,5.48,-5.38,-4.90,-5.90,8.61,8.63,8.53
33.89,13.99,13.96,5.47,5.43,-5.28,-4.90,-5.86,8.72,8.68,8.53
34.23,13.84,13.82,5.31,5.30,-5.13,-4.90,-5.81,8.70,8.69,8.52
34.57,13.56,13.59,5.05,5.07,-4.97,-4.90,-5.76,8.59,8.61,8.52
34.92,13.33,13.27,4.81,4.75,-4.80,-4.90,-5.71,8.52,8.47,8.51
35.27,12.96,13.00,4.45,4.49,-4.64,-4.90,-5.65,8.32,8.35,8.51
35.62,12.76,12.83,4.25,4.32,-4.51,-4.90,-5.59,8.25,8.32,8.50
35.97,12.79,12.77,4.29,4.27,-4.41,-4.90,-5.53,8.38,8.36,8.50
36.33,12.85,12.82,4.35,4.32,-4.35,-4.90,-5.47,8.49,8.46,8.49
36.70,12.89,12.89,4.41,4.40,-4.35,-4.90,-5.40,8.54,8.54,8.49
37.06,12.94,12.94,4.45,4.46,-4.39,-4.91,-5.34,8.54,8.55,8.48
37.43,12.99,12.98,4.51,4.51,-4.46,-4.91,-5.27,8.52,8.52,8.48
37.81,13.03,13.03,4.56,4.56,-4.54,-4.91,-5.21,8.50,8.49,8.47
38.19,13.07,13.08,4.61,4.61,-4.61,-4.91,-5.14,8.47,8.47,8.46
38.57,13.12,13.12,4.67,4.66,-4.66,-4.91,-5.08,8.46,8.46,8.46
38.95,13.16,13.16,4.70,4.71,-4.71,-4.91,-5.01,8.45,8.46,8.45
39.34,13.20,13.20,4.76,4.76,-4.75,-4.91,-4.95,8.46,8.45,8.44
39.74,13.24,13.23,4.81,4.80,-4.79,-4.91,-4.89,8.45,8.44,8.44
40.14,13.24,13.26,4.81,4.83,-4.84,-4.91,-4.84,8.41,8.42,8.43
40.54,13.29,13.28,4.87,4.86,-4.89,-4.91,-4.78,8.40,8.39,8.42
40.94,13.29,13.30,4.88,4.89,-4.95,-4.91,-4.73,8.35,8.36,8.41
41.35,13.34,13.35,4.94,4.94,-4.99,-4.91,-4.68,8.36,8.36,8.41
41.76,13.38,13.39,4.98,4.99,-5.00,-4.91,-4.64,8.37,8.39,8.40
42.18,13.43,13.43,5.05,5.04,-4.98,-4.91,-4.59,8.45,8.45,8.39
42.60,13.43,13.42,5.06,5.04,-4.93,-4.91,-4.55,8.50,8.49,8.38
43.03,13.36,13.35,5.00,4.98,-4.85,-4.91,-4.52,8.51,8.50,8.37
43.46,13.18,13.19,4.83,4.83,-4.75,-4.91,-4.49,8.43,8.44,8.36
43.90,13.00,12.98,4.65,4.63,-4.64,-4.91,-4.46,8.36,8.34,8.35
44.33,12.74,12.77,4.41,4.43,-4.53,-4.91,-4.43,8.22,8.25,8.34
44.78,12.61,12.62,4.28,4.29,-4.42,-4.91,-4.41,8.18,8.20,8.33
45.23,12.55,12.55,4.23,4.24,-4.34,-4.91,-4.39,8.21,8.21,8.31
45.68,12.54,12.55,4.24,4.25,-4.28,-4.91,-4.37,8.26,8.27,8.30
46.13,12.59,12.57,4.30,4.28,-4.26,-4.91,-4.36,8.33,8.31,8.29
46.60,12.59,12.59,4.32,4.32,-4.28,-4.91,-4.35,8.32,8.32,8.28
47.06,12.59,12.61,4.33,4.35,-4.31,-4.91,-4.34,8.28,8.30,8.26
47.53,12.63,12.62,4.38,4.38,-4.36,-4.91,-4.34,8.27,8.26,8.25
48.01,12.64,12.65,4.41,4.41,-4.41,-4.91,-4.34,8.24,8.24,8.24
48.49,12.67,12.67,4.45,4.45,-4.45,-4.91,-4.34,8.23,8.22,8.22
48.97,12.68,12.69,4.48,4.48,-4.48,-4.91,-4.35,8.20,8.20,8.21
49.46,12.69,12.71,4.51,4.52,-4.52,-4.91,-4.35,8.18,8.19,8.19
49.96,12.73,12.72,4.56,4.55,-4.55,-4.91,-4.36,8.19,8.17,8.17
50.46,12.73,12.73,4.58,4.58,-4.58,-4.91,-4.38,8.16,8.16,8.16
50.96,12.73,12.74,4.60,4.60,-4.60,-4.90,-4.39,8.13,8.14,8.14
51.47,12.73,12.74,4.61,4.62,-4.62,-4.90,-4.41,8.12,8.12,8.12
51.99,12.73,12.73,4.63,4.63,-4.63,-4.90,-4.43,8.11,8.10,8.10
52.51,12.72,12.72,4.64,4.63,-4.63,-4.90,-4.45,8.10,8.09,8.08
53.03,12.68,12.69,4.62,4.63,-4.61,-4.90,-4.47,8.07,8.08,8.06
53.56,12.64,12.65,4.60,4.61,-4.59,-4.89,-4.49,8.06,8.07,8.04
54.10,12.61,12.60,4.59,4.58,-4.55,-4.89,-4.51,8.06,8.05,8.02
54.64,12.54,12.54,4.55,4.54,-4.52,-4.89,-4.53,8.03,8.02,8.00
55.18,12.45,12.46,4.48,4.48,-4.49,-4.89,-4.56,7.97,7.97,7.98
55.74,12.38,12.38,4.42,4.43,-4.46,-4.88,-4.58,7.92,7.92,7.95
56.29,12.32,12.33,4.40,4.40,-4.44,-4.88,-4.60,7.88,7.89,7.93
56.86,12.31,12.31,4.41,4.40,-4.44,-4.88,-4.62,7.87,7.87,7.90
57.42,12.31,12.31,4.44,4.43,-4.45,-4.87,-4.64,7.86,7.86,7.88
58.00,12.31,12.33,4.46,4.48,-4.48,-4.87,-4.66,7.84,7.86,7.85
58.58,12.36,12.35,4.54,4.52,-4.51,-4.86,-4.67,7.85,7.84,7.82
59.16,12.36,12.36,4.57,4.57,-4.55,-4.86,-4.69,7.81,7.81,7.80
59.76,12.36,12.38,4.60,4.61,-4.59,-4.86,-4.70,7.77,7.78,7.77
60.35,12.38,12.37,4.65,4.64,-4.63,-4.85,-4.71,7.75,7.74,7.74
60.96,12.37,12.38,4.67,4.67,-4.66,-4.85,-4.71,7.71,7.71,7.71
61.57,12.36,12.37,4.69,4.69,-4.69,-4.84,-4.72,7.68,7.68,7.68
62.18,12.36,12.36,4.72,4.71,-4.70,-4.84,-4.72,7.66,7.65,7.64
62.80,12.33,12.33,4.72,4.72,-4.72,-4.83,-4.72,7.62,7.62,7.61
63.43,12.31,12.31,4.74,4.73,-4.74,-4.82,-4.71,7.58,7.57,7.58
64.07,12.26,12.28,4.72,4.74,-4.76,-4.82,-4.70,7.51,7.52,7.54
64.71,12.26,12.25,4.76,4.75,-4.78,-4.81,-4.69,7.48,7.47,7.50
65.35,12.22,12.23,4.76,4.77,-4.80,-4.81,-4.68,7.42,7.43,7.47
66.01,12.22,12.23,4.80,4.80,-4.81,-4.80,-4.66,7.41,7.42,7.43
66.67,12.22,12.23,4.83,4.84,-4.81,-4.79,-4.64,7.41,7.41,7.39
67.33,12.22,12.21,4.87,4.86,-4.80,-4.79,-4.62,7.42,7.40,7.35
68.01,12.15,12.15,4.85,4.84,-4.78,-4.78,-4.60,7.38,7.37,7.31
68.69,12.05,12.05,4.79,4.79,-4.74,-4.77,-4.57,7.31,7.31,7.27
69.37,11.93,11.93,4.71,4.71,-4.70,-4.76,-4.54,7.23,7.23,7.22
70.07,11.80,11.81,4.62,4.63,-4.66,-4.76,-4.52,7.15,7.15,7.18
70.77,11.70,11.71,4.57,4.57,-4.62,-4.75,-4.49,7.09,7.09,7.14
71.48,11.62,11.63,4.54,4.54,-4.59,-4.74,-4.46,7.03,7.04,7.09
72.19,11.59,11.59,4.55,4.55,-4.58,-4.73,-4.43,7.02,7.01,7.04
72.91,11.56,11.57,4.57,4.57,-4.59,-4.72,-4.40,6.98,6.98,6.99
73.64,11.56,11.56,4.62,4.62,-4.62,-4.71,-4.38,6.95,6.95,6.94
74.38,11.56,11.56,4.67,4.67,-4.66,-4.70,-4.35,6.91,6.90,6.89
75.12,11.56,11.56,4.72,4.72,-4.71,-4.70,-4.32,6.85,6.85,6.84
75.87,11.56,11.56,4.77,4.77,-4.77,-4.69,-4.30,6.80,6.80,6.79
76.63,11.56,11.57,4.83,4.83,-4.82,-4.68,-4.28,6.74,6.75,6.74
77.40,11.56,11.56,4.88,4.88,-4.87,-4.67,-4.25,6.69,6.69,6.68
78.17,11.56,11.55,4.94,4.93,-4.92,-4.66,-4.23,6.65,6.64,6.63
78.95,11.52,11.53,4.95,4.96,-4.96,-4.65,-4.22,6.57,6.58,6.57
79.74,11.51,11.51,5.00,4.99,-5.00,-4.64,-4.20,6.51,6.51,6.51
80.54,11.47,11.48,5.02,5.02,-5.05,-4.63,-4.19,6.43,6.43,6.46
81.35,11.45,11.45,5.06,5.05,-5.09,-4.62,-4.18,6.36,6.36,6.40
82.16,11.42,11.42,5.09,5.09,-5.13,-4.61,-4.17,6.30,6.30,6.34
82.98,11.38,11.40,5.11,5.13,-5.14,-4.60,-4.17,6.24,6.26,6.28
83.81,11.38,11.38,5.17,5.16,-5.13,-4.59,-4.17,6.25,6.25,6.21
84.65,11.32,11.33,5.17,5.18,-5.09,-4.59,-4.17,6.24,6.24,6.15
85.50,11.24,11.22,5.16,5.13,-5.02,-4.58,-4.17,6.23,6.20,6.09
86.35,11.05,11.03,5.03,5.01,-4.93,-4.57,-4.18,6.12,6.11,6.02
87.22,10.78,10.80,4.82,4.84,-4.83,-4.56,-4.19,5.95,5.97,5.96
88.09,10.57,10.55,4.67,4.66,-4.73,-4.55,-4.21,5.84,5.83,5.89
88.97,10.33,10.35,4.51,4.53,-4.63,-4.55,-4.23,5.70,5.72,5.82
89.86,10.20,10.22,4.45,4.47,-4.56,-4.54,-4.25,5.64,5.66,5.76
90.76,10.15,10.15,4.47,4.46,-4.52,-4.53,-4.27,5.64,5.63,5.69
91.66,10.12,10.11,4.50,4.49,-4.50,-4.53,-4.30,5.62,5.61,5.62
92.58,10.09,10.10,4.54,4.55,-4.53,-4.52,-4.33,5.57,5.57,5.55
93.51,10.07,10.08,4.59,4.60,-4.57,-4.52,-4.36,5.51,5.51,5.48
94.44,10.07,10.06,4.66,4.65,-4.62,-4.51,-4.40,5.46,5.44,5.41
95.39,10.02,10.04,4.68,4.70,-4.67,-4.51,-4.43,5.36,5.37,5.34
96.34,10.01,10.00,4.74,4.73,-4.71,-4.51,-4.48,5.31,5.29,5.27
97.30,9.95,9.95,4.76,4.75,-4.74,-4.50,-4.52,5.21,5.21,5.20
98.28,9.89,9.90,4.77,4.77,-4.78,-4.50,-4.57,5.12,5.12,5.13
99.26,9.84,9.84,4.79,4.79,-4.81,-4.50,-4.61,5.03,5.03,5.05
100.25,9.79,9.80,4.81,4.82,-4.85,-4.50,-4.66,4.95,4.95,4.98
101.25,9.76,9.77,4.86,4.86,-4.88,-4.50,-4.72,4.88,4.89,4.91
102.27,9.74,9.75,4.91,4.91,-4.92,-4.51,-4.77,4.82,4.83,4.84
103.29,9.74,9.73,4.98,4.97,-4.96,-4.51,-4.83,4.78,4.77,4.76
104.32,9.69,9.70,5.00,5.01,-4.99,-4.51,-4.88,4.70,4.71,4.69
105.37,9.64,9.65,5.03,5.03,-5.01,-4.52,-4.94,4.64,4.64,4.62
106.42,9.58,9.58,5.04,5.04,-5.01,-4.52,-5.00,4.57,4.57,4.54
107.48,9.49,9.50,5.02,5.03,-5.00,-4.53,-5.05,4.49,4.50,4.47
108.56,9.40,9.40,5.01,5.00,-4.97,-4.54,-5.11,4.43,4.43,4.40
109.64,9.28,9.28,4.96,4.95,-4.94,-4.55,-5.16,4.35,4.34,4.33
110.74,9.14,9.15,4.89,4.89,-4.90,-4.56,-5.22,4.24,4.25,4.25
111.85,9.01,9.02,4.83,4.84,-4.87,-4.58,-5.27,4.15,4.15,4.18
112.97,8.90,8.91,4.80,4.81,-4.85,-4.59,-5.31,4.06,4.07,4.11
114.10,8.83,8.84,4.80,4.80,-4.84,-4.60,-5.36,4.00,4.00,4.04
115.24,8.79,8.79,4.83,4.82,-4.84,-4.62,-5.40,3.96,3.95,3.97
116.39,8.74,8.75,4.85,4.86,-4.86,-4.64,-5.44,3.89,3.90,3.89
117.55,8.72,8.72,4.90,4.89,-4.88,-4.66,-5.47,3.84,3.83,3.82
118.73,8.68,8.69,4.93,4.93,-4.92,-4.68,-5.51,3.76,3.77,3.75
119.92,8.65,8.66,4.97,4.97,-4.96,-4.70,-5.53,3.70,3.70,3.68
121.12,8.62,8.62,5.01,5.00,-5.00,-4.72,-5.55,3.63,3.62,3.62
122.33,8.58,8.58,5.04,5.04,-5.03,-4.75,-5.56,3.56,3.55,3.55
123.55,8.53,8.54,5.05,5.06,-5.06,-4.77,-5.57,3.48,3.48,3.48
124.79,8.49,8.49,5.08,5.08,-5.08,-4.80,-5.57,3.42,3.41,3.41
126.03,8.44,8.45,5.10,5.10,-5.10,-4.82,-5.56,3.34,3.34,3.35
127.29,8.39,8.40,5.11,5.12,-5.12,-4.85,-5.55,3.27,3.28,3.28
128.57,8.35,8.35,5.14,5.13,-5.14,-4.88,-5.53,3.21,3.20,3.22
129.85,8.29,8.30,5.14,5.14,-5.16,-4.91,-5.51,3.14,3.14,3.15
131.15,8.23,8.25,5.14,5.16,-5.16,-4.94,-5.48,3.07,3.08,3.09
132.46,8.20,8.20,5.18,5.17,-5.16,-4.97,-5.45,3.04,3.04,3.03
133.79,8.14,8.14,5.18,5.17,-5.15,-5.00,-5.41,3.00,2.99,2.97
135.12,8.06,8.06,5.16,5.16,-5.12,-5.03,-5.36,2.95,2.94,2.91
136.48,7.95,7.95,5.11,5.11,-5.08,-5.06,-5.32,2.87,2.87,2.85
137.84,7.83,7.83,5.05,5.04,-5.03,-5.08,-5.27,2.80,2.80,2.79
139.22,7.69,7.70,4.96,4.97,-4.98,-5.11,-5.21,2.72,2.72,2.73
140.61,7.57,7.58,4.90,4.90,-4.92,-5.14,-5.15,2.65,2.65,2.67
142.02,7.46,7.46,4.85,4.85,-4.87,-5.17,-5.10,2.59,2.59,2.62
143.44,7.36,7.37,4.80,4.81,-4.83,-5.19,-5.03,2.54,2.54,2.56
144.87,7.29,7.29,4.78,4.78,-4.79,-5.22,-4.97,2.50,2.50,2.51
146.32,7.21,7.22,4.76,4.76,-4.77,-5.24,-4.91,2.44,2.45,2.46
147.78,7.16,7.16,4.76,4.76,-4.76,-5.26,-4.84,2.41,2.41,2.41
149.26,7.11,7.11,4.76,4.76,-4.75,-5.28,-4.78,2.37,2.36,2.36
150.75,7.06,7.06,4.76,4.76,-4.74,-5.29,-4.72,2.32,2.32,2.31
152.26,7.01,7.01,4.76,4.75,-4.74,-5.30,-4.65,2.27,2.27,2.26
153.78,6.95,6.95,4.74,4.75,-4.74,-5.32,-4.59,2.21,2.21,2.21
155.32,6.89,6.90,4.73,4.74,-4.74,-5.32,-4.53,2.15,2.16,2.16
156.88,6.85,6.85,4.74,4.73,-4.74,-5.33,-4.47,2.11,2.11,2.12
158.44,6.80,6.81,4.73,4.73,-4.74,-5.33,-4.42,2.06,2.07,2.07
160.03,6.76,6.76,4.73,4.74,-4.74,-5.32,-4.36,2.03,2.03,2.03
161.63,6.71,6.71,4.74,4.73,-4.73,-5.31,-4.31,1.99,1.99,1.98
163.24,6.66,6.66,4.73,4.73,-4.71,-5.31,-4.26,1.95,1.95,1.94
164.88,6.60,6.61,4.71,4.71,-4.70,-5.29,-4.21,1.91,1.91,1.90
166.53,6.54,6.54,4.69,4.69,-4.68,-5.27,-4.17,1.87,1.87,1.86
168.19,6.47,6.47,4.66,4.65,-4.65,-5.25,-4.13,1.82,1.82,1.82
169.87,6.39,6.40,4.61,4.62,-4.63,-5.22,-4.09,1.77,1.77,1.78
171.57,6.32,6.33,4.58,4.59,-4.60,-5.19,-4.05,1.72,1.73,1.74
173.29,6.27,6.27,4.57,4.56,-4.58,-5.16,-4.02,1.70,1.70,1.71
175.02,6.22,6.22,4.55,4.55,-4.55,-5.12,-3.99,1.67,1.67,1.67
176.77,6.17,6.17,4.53,4.53,-4.53,-5.08,-3.96,1.65,1.65,1.64
178.54,6.12,6.12,4.52,4.51,-4.51,-5.03,-3.94,1.62,1.62,1.61
180.32,6.06,6.07,4.49,4.49,-4.49,-4.99,-3.92,1.58,1.58,1.58
182.13,6.01,6.01,4.47,4.47,-4.47,-4.93,-3.90,1.55,1.55,1.55
183.95,5.95,5.96,4.44,4.44,-4.45,-4.88,-3.89,1.51,1.51,1.52
185.79,5.90,5.90,4.42,4.42,-4.42,-4.82,-3.88,1.48,1.48,1.49
187.65,5.85,5.86,4.40,4.40,-4.40,-4.77,-3.87,1.46,1.46,1.46
189.52,5.80,5.81,4.37,4.38,-4.37,-4.71,-3.86,1.43,1.44,1.43
191.42,5.76,5.76,4.36,4.35,-4.35,-4.64,-3.86,1.42,1.41,1.40
193.33,5.70,5.70,4.33,4.33,-4.32,-4.58,-3.86,1.38,1.38,1.38
195.27,5.64,5.64,4.29,4.29,-4.29,-4.52,-3.86,1.35,1.35,1.35
197.22,5.58,5.58,4.26,4.26,-4.26,-4.45,-3.86,1.32,1.32,1.33
199.19,5.52,5.53,4.22,4.23,-4.23,-4.38,-3.87,1.29,1.30,1.31
201.18,5.48,5.48,4.20,4.20,-4.20,-4.32,-3.87,1.28,1.28,1.28
203.19,5.43,5.43,4.17,4.17,-4.17,-4.25,-3.88,1.27,1.27,1.26
205.23,5.38,5.38,4.15,4.14,-4.13,-4.18,-3.89,1.25,1.25,1.24
207.28,5.31,5.32,4.10,4.10,-4.09,-4.11,-3.90,1.22,1.23,1.22
209.35,5.25,5.25,4.06,4.06,-4.05,-4.05,-3.92,1.20,1.20,1.20
211.44,5.19,5.19,4.02,4.01,-4.01,-3.98,-3.93,1.18,1.18,1.18
213.56,5.11,5.12,3.95,3.96,-3.97,-3.91,-3.94,1.14,1.15,1.16
215.69,5.06,5.06,3.92,3.92,-3.93,-3.85,-3.95,1.14,1.13,1.14
217.85,5.00,5.00,3.88,3.88,-3.89,-3.79,-3.97,1.12,1.12,1.12
220.03,4.94,4.95,3.84,3.84,-3.85,-3.72,-3.98,1.10,1.10,1.11
222.23,4.90,4.90,3.81,3.81,-3.81,-3.66,-3.99,1.10,1.09,1.09
224.45,4.84,4.85,3.77,3.77,-3.77,-3.60,-4.00,1.07,1.07,1.07
226.70,4.79,4.80,3.74,3.74,-3.74,-3.54,-4.00,1.06,1.06,1.06
228.96,4.74,4.74,3.70,3.70,-3.70,-3.49,-4.01,1.05,1.05,1.04
231.25,4.68,4.68,3.66,3.66,-3.65,-3.43,-4.01,1.03,1.03,1.03
233.57,4.62,4.62,3.61,3.61,-3.60,-3.38,-4.01,1.02,1.02,1.02
235.90,4.55,4.56,3.56,3.56,-3.55,-3.33,-4.00,1.00,1.01,0.99
238.26,4.49,4.49,3.52,3.51,-3.50,-3.28,-3.99,1.00,0.99,0.98
240.64,4.41,4.41,3.45,3.45,-3.45,-3.23,-3.98,0.97,0.97,0.97
243.05,4.34,4.34,3.39,3.39,-3.40,-3.18,-3.96,0.94,0.94,0.95
245.48,4.26,4.27,3.32,3.33,-3.36,-3.14,-3.94,0.91,0.92,0.94
247.93,4.22,4.22,3.29,3.29,-3.31,-3.10,-3.91,0.91,0.91,0.93
250.41,4.17,4.18,3.25,3.26,-3.27,-3.06,-3.88,0.90,0.91,0.92
252.92,4.15,4.15,3.24,3.24,-3.23,-3.02,-3.85,0.93,0.92,0.91
255.45,4.11,4.11,3.22,3.21,-3.19,-2.98,-3.80,0.93,0.92,0.90
258.00,4.06,4.06,3.17,3.17,-3.15,-2.95,-3.76,0.92,0.91,0.89
260.58,3.98,3.99,3.10,3.11,-3.10,-2.91,-3.71,0.88,0.89,0.88
263.19,3.91,3.92,3.04,3.05,-3.05,-2.88,-3.66,0.86,0.87,0.87
265.82,3.85,3.86,2.99,3.00,-3.00,-2.85,-3.60,0.85,0.85,0.86
268.48,3.80,3.80,2.95,2.94,-2.95,-2.82,-3.53,0.85,0.85,0.85
271.16,3.74,3.74,2.90,2.89,-2.90,-2.78,-3.47,0.85,0.84,0.85
273.87,3.66,3.67,2.83,2.84,-2.84,-2.75,-3.40,0.82,0.83,0.84
276.61,3.61,3.62,2.78,2.79,-2.79,-2.72,-3.32,0.82,0.82,0.83
279.38,3.56,3.57,2.74,2.74,-2.74,-2.68,-3.24,0.82,0.82,0.82
282.17,3.52,3.52,2.71,2.70,-2.69,-2.65,-3.17,0.84,0.83,0.82
284.99,3.46,3.46,2.65,2.65,-2.63,-2.61,-3.08,0.83,0.83,0.82
287.84,3.40,3.40,2.58,2.59,-2.58,-2.58,-3.00,0.83,0.83,0.82
290.72,3.33,3.34,2.52,2.52,-2.52,-2.54,-2.91,0.81,0.81,0.82
293.63,3.27,3.27,2.47,2.46,-2.47,-2.49,-2.83,0.81,0.81,0.81
296.57,3.21,3.22,2.40,2.41,-2.42,-2.45,-2.74,0.80,0.80,0.81
299.53,3.17,3.17,2.36,2.36,-2.37,-2.40,-2.65,0.81,0.80,0.82
302.53,3.12,3.13,2.31,2.31,-2.32,-2.36,-2.56,0.80,0.81,0.81
305.55,3.08,3.09,2.27,2.27,-2.28,-2.30,-2.47,0.81,0.81,0.82
308.61,3.05,3.05,2.24,2.23,-2.23,-2.25,-2.38,0.82,0.81,0.81
311.69,3.00,3.01,2.19,2.20,-2.19,-2.19,-2.29,0.82,0.82,0.82
314.81,2.96,2.96,2.15,2.15,-2.13,-2.14,-2.20,0.83,0.83,0.81
317.96,2.91,2.91,2.10,2.09,-2.08,-2.08,-2.11,0.84,0.83,0.82
321.14,2.84,2.84,2.03,2.03,-2.02,-2.02,-2.02,0.83,0.83,0.81
324.35,2.76,2.76,1.95,1.95,-1.95,-1.95,-1.93,0.82,0.82,0.82
327.59,2.68,2.69,1.86,1.87,-1.88,-1.89,-1.84,0.80,0.81,0.82
330.87,2.62,2.62,1.80,1.80,-1.81,-1.82,-1.76,0.81,0.81,0.82
334.18,2.57,2.56,1.75,1.74,-1.75,-1.76,-1.67,0.83,0.81,0.83
337.52,2.49,2.50,1.67,1.68,-1.68,-1.69,-1.58,0.81,0.82,0.82
340.90,2.44,2.45,1.62,1.62,-1.63,-1.63,-1.50,0.82,0.82,0.83
344.30,2.40,2.40,1.57,1.57,-1.57,-1.56,-1.41,0.84,0.83,0.84
347.75,2.35,2.36,1.51,1.52,-1.51,-1.50,-1.33,0.84,0.85,0.84
351.23,2.31,2.32,1.48,1.47,-1.46,-1.43,-1.25,0.86,0.86,0.84
354.74,2.26,2.26,1.41,1.41,-1.40,-1.37,-1.17,0.86,0.86,0.86
358.28,2.21,2.20,1.36,1.34,-1.34,-1.31,-1.09,0.87,0.86,0.85
361.87,2.12,2.14,1.26,1.28,-1.28,-1.25,-1.01,0.84,0.86,0.86
365.49,2.07,2.08,1.21,1.21,-1.22,-1.19,-0.93,0.85,0.86,0.87
369.14,2.03,2.03,1.17,1.16,-1.16,-1.13,-0.85,0.87,0.87,0.87
372.83,1.97,1.98,1.09,1.10,-1.10,-1.07,-0.77,0.88,0.88,0.88
376.56,1.93,1.92,1.05,1.04,-1.04,-1.01,-0.69,0.90,0.89,0.88
380.33,1.86,1.86,0.98,0.98,-0.98,-0.95,-0.62,0.89,0.89,0.89
384.13,1.79,1.80,0.91,0.92,-0.92,-0.90,-0.54,0.88,0.89,0.89
387.97,1.75,1.75,0.86,0.86,-0.86,-0.84,-0.47,0.89,0.89,0.89
391.85,1.70,1.71,0.79,0.80,-0.81,-0.79,-0.39,0.90,0.90,0.91
395.77,1.67,1.67,0.77,0.75,-0.76,-0.74,-0.32,0.92,0.91,0.91
399.73,1.61,1.62,0.70,0.70,-0.71,-0.68,-0.25,0.91,0.92,0.92
403.72,1.58,1.58,0.66,0.66,-0.66,-0.63,-0.18,0.93,0.93,0.93
407.76,1.53,1.54,0.61,0.61,-0.61,-0.58,-0.11,0.93,0.93,0.92
411.84,1.50,1.49,0.57,0.56,-0.56,-0.53,-0.04,0.94,0.93,0.93
415.96,1.44,1.45,0.50,0.51,-0.51,-0.48,0.03,0.93,0.94,0.94
420.12,1.39,1.40,0.46,0.46,-0.46,-0.44,0.09,0.93,0.94,0.94
424.32,1.36,1.35,0.42,0.41,-0.41,-0.39,0.16,0.96,0.95,0.95
428.56,1.30,1.31,0.35,0.36,-0.35,-0.34,0.22,0.95,0.96,0.96
432.85,1.26,1.26,0.30,0.30,-0.29,-0.30,0.29,0.97,0.96,0.96
437.18,1.20,1.21,0.24,0.24,-0.24,-0.25,0.35,0.96,0.97,0.96
441.55,1.14,1.15,0.17,0.18,-0.19,-0.21,0.41,0.96,0.97,0.97
445.96,1.11,1.10,0.13,0.12,-0.13,-0.16,0.47,0.98,0.97,0.98
450.42,1.05,1.06,0.06,0.07,-0.08,-0.12,0.52,0.98,0.99,1.00
454.93,1.02,1.03,0.02,0.02,-0.02,-0.07,0.58,1.00,1.01,1.01
459.48,0.99,0.99,-0.02,-0.03,0.04,-0.03,0.63,1.03,1.02,1.02
464.07,0.94,0.94,-0.07,-0.08,0.09,0.02,0.68,1.03,1.03,1.01
468.71,0.88,0.89,-0.14,-0.14,0.14,0.06,0.73,1.03,1.03,1.02
473.40,0.83,0.83,-0.20,-0.20,0.19,0.10,0.78,1.03,1.03,1.03
478.13,0.77,0.78,-0.27,-0.26,0.24,0.15,0.82,1.02,1.02,1.04
482.91,0.74,0.74,-0.31,-0.31,0.29,0.19,0.86,1.04,1.04,1.05
487.74,0.70,0.71,-0.36,-0.35,0.35,0.24,0.90,1.05,1.06,1.06
492.62,0.68,0.68,-0.38,-0.39,0.40,0.28,0.94,1.08,1.08,1.07
497.55,0.65,0.64,-0.42,-0.43,0.45,0.32,0.97,1.10,1.09,1.08
502.52,0.59,0.60,-0.49,-0.49,0.50,0.37,1.01,1.09,1.10,1.09
507.55,0.55,0.56,-0.55,-0.55,0.55,0.41,1.04,1.10,1.10,1.11
512.62,0.51,0.51,-0.60,-0.61,0.59,0.46,1.06,1.11,1.10,1.12
517.75,0.46,0.47,-0.66,-0.66,0.64,0.50,1.09,1.11,1.11,1.12
522.93,0.42,0.43,-0.71,-0.70,0.69,0.55,1.11,1.11,1.13,1.13
