frequency,raw,error,smoothed,error_smoothed,equalization,parametric_eq,fixed_band_eq,equalized_raw,equalized_smoothed,target
20.00,-1.11,-6.68,-1.15,-6.71,6.00,5.89,2.25,4.89,4.85,5.56
20.20,-1.09,-6.65,-1.11,-6.66,6.00,5.90,2.32,4.91,4.89,5.55
20.40,-1.08,-6.63,-1.07,-6.61,6.00,5.91,2.39,4.92,4.93,5.54
20.61,-1.06,-6.61,-1.03,-6.57,6.00,5.91,2.46,4.94,4.97,5.54
20.81,-1.04,-6.56,-0.99,-6.52,6.00,5.92,2.53,4.96,5.01,5.52
21.02,-1.02,-6.54,-0.94,-6.47,6.00,5.92,2.60,4.98,5.06,5.52
21.23,-0.93,-6.44,-0.90,-6.41,6.00,5.92,2.68,5.07,5.10,5.51
21.44,-0.85,-6.37,-0.86,-6.36,6.00,5.91,2.76,5.15,5.14,5.52
21.66,-0.76,-6.27,-0.81,-6.31,6.00,5.91,2.84,5.24,5.19,5.51
21.87,-0.67,-6.17,-0.77,-6.26,6.00,5.90,2.92,5.33,5.23,5.50
22.09,-0.61,-6.10,-0.72,-6.21,6.00,5.90,3.01,5.39,5.28,5.49
22.31,-0.60,-6.09,-0.67,-6.16,5.99,5.89,3.10,5.39,5.32,5.49
22.54,-0.58,-6.06,-0.63,-6.10,5.98,5.87,3.19,5.40,5.36,5.48
22.76,-0.57,-6.05,-0.57,-6.05,5.96,5.86,3.28,5.39,5.39,5.48
22.99,-0.55,-6.02,-0.52,-5.99,5.93,5.84,3.38,5.38,5.41,5.47
23.22,-0.51,-5.97,-0.47,-5.94,5.90,5.83,3.47,5.39,5.43,5.46
23.45,-0.47,-5.94,-0.41,-5.88,5.86,5.81,3.57,5.39,5.45,5.47
23.69,-0.43,-5.89,-0.36,-5.82,5.82,5.78,3.67,5.38,5.46,5.46
23.92,-0.39,-5.85,-0.30,-5.76,5.76,5.76,3.78,5.37,5.46,5.45
24.16,-0.31,-5.78,-0.24,-5.71,5.71,5.74,3.88,5.40,5.46,5.46
24.40,-0.20,-5.67,-0.19,-5.66,5.66,5.71,3.99,5.45,5.46,5.47
24.65,-0.09,-5.57,-0.14,-5.60,5.60,5.68,4.10,5.51,5.47,5.47
24.89,0.01,-5.46,-0.09,-5.55,5.55,5.65,4.21,5.56,5.47,5.47
25.14,0.08,-5.39,-0.03,-5.51,5.51,5.62,4.32,5.58,5.47,5.47
25.39,0.10,-5.37,0.02,-5.46,5.46,5.59,4.43,5.56,5.47,5.47
25.65,0.13,-5.34,0.06,-5.41,5.41,5.55,4.54,5.54,5.48,5.47
25.91,0.16,-5.32,0.11,-5.37,5.37,5.51,4.65,5.53,5.48,5.48
26.16,0.17,-5.32,0.16,-5.32,5.32,5.48,4.76,5.49,5.48,5.49
26.43,0.17,-5.32,0.22,-5.27,5.27,5.44,4.88,5.43,5.48,5.49
26.69,0.17,-5.32,0.27,-5.21,5.21,5.40,4.98,5.38,5.48,5.49
26.96,0.17,-5.32,0.33,-5.16,5.16,5.36,5.09,5.32,5.48,5.48
27.23,0.26,-5.23,0.37,-5.11,5.11,5.31,5.20,5.37,5.48,5.48
27.50,0.36,-5.13,0.41,-5.07,5.07,5.27,5.30,5.43,5.49,5.48
27.77,0.46,-5.03,0.45,-5.04,5.04,5.22,5.40,5.50,5.49,5.49
28.05,0.55,-4.94,0.49,-5.00,5.00,5.18,5.49,5.54,5.49,5.49
28.33,0.63,-4.85,0.53,-4.95,4.95,5.13,5.58,5.58,5.49,5.48
28.62,0.71,-4.77,0.57,-4.91,4.91,5.08,5.66,5.62,5.49,5.48
28.90,0.79,-4.70,0.62,-4.87,4.87,5.03,5.73,5.65,5.49,5.49
29.19,0.78,-4.71,0.67,-4.82,4.82,4.98,5.80,5.60,5.48,5.48
29.48,0.71,-4.78,0.71,-4.77,4.77,4.93,5.86,5.48,5.48,5.48
29.78,0.65,-4.83,0.75,-4.73,4.73,4.88,5.91,5.38,5.48,5.48
30.08,0.62,-4.87,0.78,-4.70,4.70,4.83,5.95,5.31,5.48,5.49
30.38,0.70,-4.78,0.80,-4.67,4.67,4.78,5.98,5.37,5.47,5.48
30.68,0.78,-4.69,0.83,-4.64,4.64,4.73,6.01,5.42,5.47,5.47
30.99,0.86,-4.61,0.86,-4.60,4.60,4.67,6.02,5.46,5.46,5.46
31.30,0.92,-4.54,0.90,-4.55,4.55,4.62,6.02,5.47,5.46,5.45
31.61,0.98,-4.47,0.94,-4.51,4.51,4.56,6.01,5.49,5.45,5.45
31.93,1.05,-4.39,0.98,-4.47,4.47,4.51,5.99,5.51,5.45,5.44
32.24,1.06,-4.38,1.02,-4.42,4.42,4.45,5.96,5.48,5.44,5.44
32.57,1.07,-4.36,1.07,-4.36,4.36,4.40,5.92,5.43,5.43,5.42
32.89,1.07,-4.35,1.14,-4.29,4.29,4.34,5.87,5.36,5.43,5.42
33.22,1.15,-4.27,1.20,-4.23,4.23,4.28,5.81,5.37,5.43,5.42
33.55,1.27,-4.15,1.24,-4.18,4.18,4.23,5.74,5.45,5.42,5.42
33.89,1.38,-4.05,1.27,-4.15,4.15,4.17,5.66,5.53,5.42,5.43
34.23,1.38,-4.04,1.30,-4.12,4.12,4.11,5.58,5.50,5.42,5.41
34.57,1.32,-4.09,1.33,-4.08,4.08,4.06,5.49,5.40,5.41,5.41
34.92,1.26,-4.15,1.37,-4.04,4.04,4.00,5.40,5.30,5.41,5.41
35.27,1.35,-4.07,1.41,-4.00,4.00,3.94,5.30,5.34,5.40,5.41
35.62,1.48,-3.92,1.45,-3.95,3.95,3.88,5.20,5.43,5.40,5.40
35.97,1.61,-3.79,1.48,-3.90,3.90,3.83,5.09,5.51,5.39,5.40
36.33,1.54,-3.85,1.51,-3.87,3.87,3.77,4.98,5.40,5.38,5.38
36.70,1.45,-3.92,1.53,-3.84,3.84,3.71,4.87,5.29,5.36,5.37
37.06,1.41,-3.95,1.54,-3.80,3.80,3.66,4.76,5.21,5.35,5.36
37.43,1.55,-3.78,1.57,-3.76,3.76,3.60,4.65,5.31,5.33,5.33
37.81,1.70,-3.62,1.60,-3.71,3.71,3.54,4.53,5.41,5.31,5.32
38.19,1.76,-3.54,1.64,-3.65,3.65,3.48,4.42,5.41,5.29,5.29
38.57,1.73,-3.54,1.68,-3.59,3.59,3.43,4.30,5.32,5.27,5.27
38.95,1.70,-3.55,1.70,-3.54,3.54,3.37,4.19,5.24,5.25,5.25
39.34,1.67,-3.54,1.72,-3.50,3.50,3.31,4.08,5.16,5.22,5.21
39.74,1.64,-3.56,1.75,-3.45,3.45,3.26,3.97,5.09,5.20,5.20
40.14,1.67,-3.51,1.78,-3.39,3.39,3.20,3.86,5.06,5.17,5.17
40.54,1.84,-3.31,1.82,-3.33,3.33,3.15,3.75,5.16,5.15,5.15
40.94,2.00,-3.12,1.87,-3.26,3.26,3.09,3.64,5.26,5.13,5.12
41.35,1.96,-3.15,1.90,-3.20,3.20,3.03,3.54,5.16,5.10,5.10
41.76,1.90,-3.17,1.92,-3.16,3.16,2.98,3.43,5.06,5.08,5.07
42.18,1.89,-3.17,1.94,-3.12,3.12,2.92,3.33,5.01,5.06,5.05
42.60,1.95,-3.09,1.96,-3.08,3.08,2.87,3.24,5.02,5.03,5.04
43.03,2.00,-3.01,1.98,-3.03,3.03,2.81,3.14,5.03,5.01,5.01
43.46,2.05,-2.94,2.01,-2.98,2.98,2.76,3.05,5.03,4.99,4.98
43.90,2.10,-2.87,2.04,-2.92,2.92,2.70,2.95,5.02,4.97,4.97
44.33,2.12,-2.82,2.07,-2.87,2.87,2.65,2.86,4.98,4.94,4.94
44.78,2.13,-2.78,2.10,-2.81,2.81,2.60,2.78,4.94,4.92,4.91
45.23,2.10,-2.81,2.12,-2.77,2.77,2.54,2.69,4.87,4.89,4.90
45.68,2.03,-2.84,2.13,-2.73,2.73,2.49,2.61,4.76,4.86,4.87
46.13,2.01,-2.82,2.16,-2.67,2.67,2.44,2.53,4.68,4.83,4.83
46.60,2.11,-2.69,2.18,-2.61,2.61,2.39,2.45,4.72,4.80,4.80
47.06,2.21,-2.56,2.20,-2.56,2.56,2.33,2.38,4.76,4.76,4.77
47.53,2.32,-2.42,2.22,-2.51,2.51,2.28,2.30,4.82,4.72,4.74
48.01,2.43,-2.26,2.24,-2.45,2.45,2.23,2.23,4.88,4.69,4.69
48.49,2.37,-2.28,2.26,-2.39,2.39,2.18,2.16,4.76,4.65,4.65
48.97,2.31,-2.30,2.29,-2.32,2.32,2.13,2.09,4.63,4.61,4.61
49.46,2.25,-2.33,2.32,-2.26,2.26,2.08,2.03,4.50,4.57,4.58
49.96,2.20,-2.32,2.34,-2.19,2.19,2.03,1.96,4.39,4.54,4.52
50.46,2.29,-2.20,2.37,-2.13,2.13,1.98,1.90,4.41,4.50,4.48
50.96,2.40,-2.06,2.39,-2.07,2.07,1.93,1.84,4.46,4.46,4.45
51.47,2.41,-2.01,2.40,-2.01,2.01,1.88,1.78,4.42,4.42,4.42
51.99,2.41,-1.97,2.41,-1.96,1.96,1.83,1.72,4.37,4.38,4.38
52.51,2.47,-1.88,2.42,-1.92,1.92,1.78,1.66,4.38,4.34,4.34
53.03,2.53,-1.79,2.43,-1.87,1.87,1.73,1.61,4.40,4.30,4.32
53.56,2.53,-1.75,2.45,-1.81,1.81,1.68,1.55,4.34,4.26,4.27
54.10,2.52,-1.71,2.49,-1.74,1.74,1.63,1.50,4.26,4.23,4.23
54.64,2.44,-1.76,2.53,-1.67,1.67,1.58,1.45,4.11,4.19,4.19
55.18,2.43,-1.72,2.55,-1.61,1.61,1.54,1.40,4.04,4.16,4.15
55.74,2.55,-1.57,2.57,-1.56,1.56,1.49,1.35,4.11,4.13,4.11
56.29,2.61,-1.48,2.58,-1.52,1.52,1.44,1.30,4.12,4.10,4.08
56.86,2.61,-1.45,2.59,-1.47,1.47,1.39,1.25,4.08,4.06,4.06
57.42,2.61,-1.40,2.61,-1.41,1.41,1.35,1.20,4.02,4.03,4.01
58.00,2.61,-1.38,2.63,-1.36,1.36,1.30,1.16,3.97,3.99,3.99
58.58,2.71,-1.26,2.65,-1.30,1.30,1.25,1.11,4.01,3.95,3.97
59.16,2.78,-1.16,2.67,-1.25,1.25,1.21,1.07,4.02,3.92,3.94
59.76,2.74,-1.17,2.70,-1.18,1.18,1.16,1.02,3.92,3.88,3.91
60.35,2.67,-1.19,2.72,-1.12,1.12,1.12,0.98,3.79,3.84,3.86
60.96,2.60,-1.22,2.74,-1.06,1.06,1.07,0.93,3.66,3.80,3.81
61.57,2.72,-1.05,2.75,-1.00,1.00,1.03,0.89,3.72,3.76,3.76
62.18,2.81,-0.90,2.76,-0.95,0.95,0.98,0.85,3.76,3.72,3.71
62.80,2.81,-0.85,2.78,-0.90,0.90,0.93,0.80,3.70,3.67,3.65
63.43,2.81,-0.80,2.77,-0.85,0.85,0.89,0.76,3.66,3.63,3.61
64.07,2.81,-0.77,2.77,-0.81,0.81,0.84,0.72,3.62,3.58,3.57
64.71,2.81,-0.72,2.77,-0.76,0.76,0.80,0.67,3.57,3.53,3.53
65.35,2.81,-0.68,2.78,-0.71,0.71,0.76,0.63,3.51,3.49,3.49
66.01,2.81,-0.63,2.79,-0.65,0.65,0.71,0.59,3.46,3.44,3.44
66.67,2.81,-0.60,2.81,-0.58,0.58,0.67,0.55,3.39,3.40,3.41
67.33,2.81,-0.54,2.84,-0.52,0.52,0.62,0.50,3.32,3.35,3.35
68.01,2.81,-0.50,2.85,-0.46,0.46,0.58,0.46,3.26,3.31,3.31
68.69,2.81,-0.45,2.86,-0.40,0.40,0.53,0.42,3.21,3.26,3.26
69.37,2.77,-0.46,2.88,-0.34,0.34,0.49,0.38,3.11,3.22,3.23
70.07,2.74,-0.44,2.90,-0.28,0.28,0.45,0.33,3.01,3.17,3.17
70.77,3.02,-0.11,2.92,-0.21,0.21,0.40,0.29,3.23,3.13,3.13
71.48,3.08,-0.01,2.94,-0.14,0.14,0.36,0.25,3.22,3.08,3.09
72.19,3.03,-0.00,2.96,-0.08,0.08,0.31,0.20,3.11,3.03,3.03
72.91,3.01,0.02,2.97,-0.02,0.02,0.27,0.16,3.02,2.99,2.98
73.64,3.01,0.07,2.99,0.04,-0.04,0.23,0.12,2.96,2.95,2.94
74.38,3.01,0.11,3.00,0.10,-0.10,0.18,0.07,2.91,2.90,2.90
75.12,3.01,0.16,3.02,0.15,-0.15,0.14,0.03,2.85,2.86,2.85
75.87,3.01,0.19,3.03,0.20,-0.20,0.10,-0.02,2.80,2.82,2.82
76.63,3.01,0.23,3.03,0.25,-0.25,0.05,-0.06,2.76,2.79,2.78
77.40,3.01,0.26,3.03,0.28,-0.28,0.01,-0.11,2.73,2.75,2.75
78.17,3.01,0.30,3.01,0.30,-0.30,-0.04,-0.15,2.71,2.71,2.71
78.95,3.01,0.32,2.99,0.32,-0.32,-0.08,-0.20,2.69,2.68,2.68
79.74,3.01,0.36,2.99,0.35,-0.35,-0.12,-0.24,2.66,2.64,2.65
80.54,3.01,0.39,2.99,0.38,-0.38,-0.17,-0.29,2.62,2.61,2.61
81.35,3.01,0.43,3.00,0.42,-0.42,-0.21,-0.34,2.59,2.58,2.58
82.16,3.01,0.46,3.00,0.46,-0.46,-0.26,-0.38,2.55,2.54,2.55
82.98,3.01,0.49,3.01,0.50,-0.50,-0.30,-0.43,2.51,2.51,2.51
83.81,3.01,0.53,3.01,0.54,-0.54,-0.35,-0.48,2.46,2.47,2.48
84.65,2.96,0.52,3.02,0.59,-0.59,-0.39,-0.53,2.37,2.44,2.44
85.50,2.95,0.56,3.03,0.63,-0.63,-0.43,-0.58,2.31,2.40,2.39
86.35,3.03,0.67,3.04,0.68,-0.68,-0.48,-0.63,2.35,2.36,2.36
87.22,3.11,0.78,3.06,0.73,-0.73,-0.52,-0.68,2.38,2.33,2.33
88.09,3.11,0.82,3.07,0.78,-0.78,-0.57,-0.73,2.33,2.29,2.28
88.97,3.11,0.85,3.08,0.83,-0.83,-0.61,-0.78,2.27,2.25,2.25
89.86,3.11,0.91,3.09,0.88,-0.88,-0.66,-0.84,2.22,2.21,2.20
90.76,3.11,0.94,3.10,0.94,-0.94,-0.70,-0.89,2.17,2.16,2.17
91.66,3.12,1.00,3.11,0.99,-0.99,-0.75,-0.94,2.12,2.12,2.11
92.58,3.12,1.04,3.12,1.05,-1.05,-0.80,-1.00,2.07,2.07,2.08
93.51,3.12,1.08,3.12,1.10,-1.10,-0.84,-1.05,2.02,2.02,2.03
94.44,3.12,1.13,3.13,1.15,-1.15,-0.89,-1.11,1.97,1.97,1.99
95.39,3.12,1.18,3.12,1.20,-1.20,-0.93,-1.16,1.92,1.92,1.93
96.34,3.11,1.23,3.11,1.24,-1.24,-0.98,-1.22,1.87,1.87,1.88
97.30,3.11,1.29,3.10,1.28,-1.28,-1.03,-1.28,1.83,1.82,1.82
98.28,3.10,1.33,3.09,1.33,-1.33,-1.07,-1.34,1.77,1.76,1.76
99.26,3.08,1.38,3.08,1.37,-1.37,-1.12,-1.39,1.70,1.71,1.70
100.25,3.07,1.43,3.06,1.41,-1.41,-1.17,-1.45,1.65,1.65,1.64
101.25,3.05,1.46,3.04,1.45,-1.45,-1.21,-1.51,1.59,1.59,1.59
102.27,3.04,1.50,3.03,1.49,-1.49,-1.26,-1.57,1.54,1.53,1.53
103.29,3.02,1.54,3.02,1.54,-1.54,-1.31,-1.63,1.48,1.48,1.48
104.32,3.00,1.57,3.00,1.58,-1.58,-1.35,-1.69,1.42,1.42,1.43
105.37,2.98,1.61,2.98,1.62,-1.62,-1.40,-1.74,1.36,1.36,1.37
106.42,2.95,1.64,2.96,1.65,-1.65,-1.45,-1.80,1.30,1.31,1.31
107.48,2.93,1.68,2.94,1.68,-1.68,-1.50,-1.86,1.25,1.26,1.24
108.56,2.91,1.70,2.91,1.71,-1.71,-1.55,-1.91,1.20,1.20,1.21
109.64,2.89,1.74,2.89,1.74,-1.74,-1.59,-1.97,1.14,1.15,1.15
110.74,2.87,1.78,2.87,1.77,-1.77,-1.64,-2.02,1.09,1.09,1.09
111.85,2.86,1.81,2.84,1.80,-1.80,-1.69,-2.07,1.05,1.04,1.04
112.97,2.92,1.92,2.82,1.83,-1.83,-1.74,-2.13,1.08,0.99,1.00
114.10,2.85,1.90,2.81,1.86,-1.86,-1.79,-2.17,0.98,0.94,0.95
115.24,2.73,1.83,2.79,1.90,-1.90,-1.84,-2.22,0.83,0.90,0.89
116.39,2.73,1.89,2.78,1.93,-1.93,-1.88,-2.26,0.80,0.85,0.84
117.55,2.74,1.93,2.77,1.96,-1.96,-1.93,-2.31,0.77,0.81,0.80
118.73,2.74,1.99,2.76,2.00,-2.00,-1.98,-2.35,0.74,0.77,0.75
119.92,2.75,2.03,2.75,2.03,-2.03,-2.03,-2.38,0.72,0.72,0.71
121.12,2.76,2.07,2.76,2.07,-2.07,-2.08,-2.42,0.68,0.68,0.69
122.33,2.76,2.11,2.76,2.12,-2.12,-2.13,-2.45,0.64,0.64,0.65
123.55,2.77,2.15,2.77,2.16,-2.16,-2.18,-2.48,0.60,0.60,0.61
124.79,2.78,2.20,2.77,2.21,-2.21,-2.22,-2.50,0.57,0.57,0.58
126.03,2.79,2.25,2.78,2.25,-2.25,-2.27,-2.52,0.54,0.53,0.54
127.29,2.79,2.29,2.79,2.30,-2.30,-2.32,-2.54,0.49,0.49,0.50
128.57,2.80,2.34,2.80,2.34,-2.34,-2.37,-2.56,0.46,0.46,0.46
129.85,2.80,2.38,2.80,2.38,-2.38,-2.41,-2.57,0.42,0.42,0.42
131.15,2.81,2.43,2.80,2.41,-2.41,-2.46,-2.58,0.39,0.38,0.38
132.46,2.85,2.51,2.79,2.45,-2.45,-2.51,-2.59,0.40,0.34,0.34
133.79,2.88,2.57,2.79,2.48,-2.48,-2.55,-2.60,0.40,0.31,0.30
135.12,2.79,2.52,2.78,2.51,-2.51,-2.60,-2.60,0.28,0.27,0.27
136.48,2.74,2.50,2.78,2.55,-2.55,-2.64,-2.60,0.19,0.23,0.24
137.84,2.73,2.52,2.78,2.58,-2.58,-2.69,-2.60,0.14,0.19,0.20
139.22,2.73,2.58,2.77,2.62,-2.62,-2.73,-2.60,0.11,0.16,0.15
140.61,2.73,2.60,2.76,2.64,-2.64,-2.78,-2.60,0.08,0.12,0.13
142.02,2.73,2.64,2.75,2.67,-2.67,-2.82,-2.59,0.06,0.09,0.08
143.44,2.73,2.68,2.73,2.69,-2.69,-2.86,-2.59,0.04,0.05,0.04
144.87,2.73,2.72,2.72,2.70,-2.70,-2.90,-2.58,0.02,0.01,0.01
146.32,2.73,2.75,2.70,2.72,-2.72,-2.94,-2.58,0.01,-0.02,-0.02
147.78,2.73,2.79,2.68,2.73,-2.73,-2.98,-2.57,-0.01,-0.06,-0.06
149.26,2.74,2.83,2.66,2.75,-2.75,-3.02,-2.57,-0.02,-0.10,-0.10
150.75,2.76,2.90,2.65,2.78,-2.78,-3.06,-2.56,-0.03,-0.13,-0.14
152.26,2.64,2.81,2.64,2.81,-2.81,-3.10,-2.56,-0.17,-0.17,-0.17
153.78,2.51,2.71,2.62,2.83,-2.83,-3.13,-2.56,-0.32,-0.21,-0.21
155.32,2.52,2.76,2.60,2.85,-2.85,-3.17,-2.55,-0.33,-0.25,-0.24
156.88,2.53,2.81,2.58,2.87,-2.87,-3.20,-2.55,-0.34,-0.29,-0.29
158.44,2.53,2.86,2.56,2.89,-2.89,-3.24,-2.55,-0.36,-0.33,-0.33
160.03,2.53,2.90,2.54,2.91,-2.91,-3.27,-2.56,-0.38,-0.37,-0.37
161.63,2.53,2.94,2.52,2.94,-2.94,-3.30,-2.56,-0.41,-0.42,-0.41
163.24,2.53,2.99,2.51,2.97,-2.97,-3.32,-2.57,-0.44,-0.46,-0.46
164.88,2.54,3.04,2.49,3.00,-3.00,-3.35,-2.57,-0.46,-0.51,-0.50
166.53,2.56,3.11,2.47,3.02,-3.02,-3.38,-2.58,-0.47,-0.55,-0.55
168.19,2.47,3.06,2.46,3.05,-3.05,-3.40,-2.59,-0.58,-0.59,-0.59
169.87,2.41,3.05,2.44,3.08,-3.08,-3.42,-2.60,-0.67,-0.64,-0.64
171.57,2.40,3.08,2.42,3.11,-3.11,-3.44,-2.62,-0.71,-0.68,-0.69
173.29,2.39,3.12,2.39,3.12,-3.12,-3.46,-2.64,-0.73,-0.73,-0.73
175.02,2.39,3.15,2.37,3.14,-3.14,-3.48,-2.66,-0.75,-0.77,-0.77
176.77,2.39,3.20,2.35,3.16,-3.16,-3.50,-2.68,-0.77,-0.81,-0.81
178.54,2.40,3.25,2.32,3.17,-3.17,-3.51,-2.70,-0.78,-0.85,-0.86
180.32,2.28,3.18,2.30,3.19,-3.19,-3.52,-2.73,-0.91,-0.89,-0.90
182.13,2.20,3.13,2.28,3.21,-3.21,-3.53,-2.75,-1.01,-0.93,-0.93
183.95,2.20,3.16,2.27,3.24,-3.24,-3.54,-2.78,-1.04,-0.97,-0.96
185.79,2.21,3.21,2.26,3.26,-3.26,-3.55,-2.82,-1.06,-1.00,-1.00
187.65,2.23,3.26,2.25,3.29,-3.29,-3.55,-2.85,-1.06,-1.04,-1.03
189.52,2.24,3.31,2.24,3.31,-3.31,-3.56,-2.88,-1.07,-1.07,-1.07
191.42,2.27,3.36,2.22,3.33,-3.33,-3.56,-2.92,-1.06,-1.10,-1.09
193.33,2.27,3.40,2.21,3.34,-3.34,-3.56,-2.96,-1.08,-1.14,-1.13
195.27,2.22,3.39,2.19,3.36,-3.36,-3.56,-3.00,-1.15,-1.17,-1.17
197.22,2.20,3.40,2.18,3.38,-3.38,-3.55,-3.04,-1.18,-1.20,-1.21
199.19,2.21,3.44,2.16,3.39,-3.39,-3.55,-3.09,-1.19,-1.23,-1.23
201.18,2.21,3.48,2.15,3.41,-3.41,-3.54,-3.13,-1.21,-1.26,-1.27
203.19,2.13,3.42,2.13,3.43,-3.43,-3.53,-3.18,-1.30,-1.29,-1.30
205.23,2.04,3.36,2.10,3.43,-3.43,-3.52,-3.23,-1.39,-1.33,-1.32
207.28,2.02,3.36,2.08,3.43,-3.43,-3.51,-3.27,-1.42,-1.36,-1.35
209.35,2.02,3.40,2.05,3.43,-3.43,-3.50,-3.32,-1.42,-1.39,-1.38
211.44,2.02,3.43,2.01,3.43,-3.43,-3.48,-3.37,-1.41,-1.42,-1.41
213.56,2.02,3.45,1.98,3.42,-3.42,-3.46,-3.41,-1.40,-1.44,-1.44
215.69,1.97,3.44,1.95,3.42,-3.42,-3.45,-3.46,-1.45,-1.47,-1.47
217.85,1.91,3.40,1.92,3.42,-3.42,-3.43,-3.50,-1.51,-1.50,-1.49
220.03,1.90,3.43,1.89,3.42,-3.42,-3.41,-3.54,-1.52,-1.52,-1.53
222.23,1.90,3.45,1.86,3.41,-3.41,-3.38,-3.59,-1.51,-1.55,-1.56
224.45,1.83,3.40,1.83,3.40,-3.40,-3.36,-3.62,-1.58,-1.57,-1.58
226.70,1.80,3.39,1.81,3.40,-3.40,-3.34,-3.66,-1.60,-1.59,-1.60
228.96,1.80,3.40,1.79,3.39,-3.39,-3.31,-3.69,-1.60,-1.60,-1.61
231.25,1.73,3.34,1.76,3.38,-3.38,-3.28,-3.72,-1.66,-1.62,-1.62
233.57,1.72,3.35,1.74,3.37,-3.37,-3.25,-3.75,-1.65,-1.63,-1.64
235.90,1.73,3.37,1.71,3.35,-3.35,-3.23,-3.77,-1.63,-1.64,-1.65
238.26,1.74,3.39,1.70,3.34,-3.34,-3.20,-3.79,-1.61,-1.65,-1.66
240.64,1.68,3.32,1.69,3.34,-3.34,-3.16,-3.80,-1.66,-1.65,-1.64
243.05,1.64,3.29,1.68,3.33,-3.33,-3.13,-3.81,-1.69,-1.65,-1.65
245.48,1.61,3.27,1.66,3.32,-3.32,-3.10,-3.81,-1.71,-1.66,-1.66
247.93,1.63,3.29,1.64,3.30,-3.30,-3.07,-3.80,-1.68,-1.66,-1.67
250.41,1.65,3.30,1.63,3.29,-3.29,-3.03,-3.80,-1.64,-1.66,-1.66
252.92,1.66,3.31,1.61,3.28,-3.28,-3.00,-3.78,-1.62,-1.67,-1.65
255.45,1.61,3.28,1.60,3.27,-3.27,-2.96,-3.76,-1.66,-1.67,-1.67
258.00,1.59,3.25,1.58,3.25,-3.25,-2.93,-3.74,-1.67,-1.68,-1.67
260.58,1.59,3.26,1.55,3.23,-3.23,-2.89,-3.71,-1.65,-1.68,-1.67
263.19,1.58,3.26,1.53,3.22,-3.22,-2.86,-3.67,-1.64,-1.69,-1.68
265.82,1.51,3.20,1.50,3.20,-3.20,-2.82,-3.63,-1.69,-1.70,-1.69
268.48,1.45,3.15,1.47,3.18,-3.18,-2.78,-3.59,-1.73,-1.71,-1.70
271.16,1.40,3.11,1.44,3.15,-3.15,-2.75,-3.54,-1.76,-1.72,-1.72
273.87,1.38,3.10,1.40,3.12,-3.12,-2.71,-3.48,-1.75,-1.72,-1.72
276.61,1.37,3.10,1.36,3.09,-3.09,-2.67,-3.43,-1.72,-1.73,-1.74
279.38,1.35,3.11,1.32,3.06,-3.06,-2.63,-3.37,-1.71,-1.74,-1.76
282.17,1.30,3.05,1.28,3.03,-3.03,-2.59,-3.31,-1.73,-1.75,-1.76
284.99,1.24,3.00,1.25,3.00,-3.00,-2.56,-3.24,-1.76,-1.75,-1.76
287.84,1.19,2.94,1.21,2.96,-2.96,-2.52,-3.17,-1.78,-1.76,-1.75
290.72,1.20,2.97,1.17,2.93,-2.93,-2.48,-3.10,-1.74,-1.76,-1.77
293.63,1.12,2.88,1.14,2.90,-2.90,-2.44,-3.03,-1.79,-1.76,-1.76
296.57,1.08,2.83,1.11,2.88,-2.88,-2.40,-2.96,-1.80,-1.76,-1.76
299.53,1.05,2.81,1.08,2.84,-2.84,-2.37,-2.89,-1.80,-1.76,-1.76
302.53,1.05,2.80,1.05,2.81,-2.81,-2.33,-2.82,-1.76,-1.76,-1.75
305.55,1.06,2.81,1.01,2.77,-2.77,-2.29,-2.75,-1.72,-1.76,-1.76
308.61,1.00,2.75,0.98,2.74,-2.74,-2.25,-2.67,-1.74,-1.76,-1.75
311.69,0.96,2.72,0.94,2.70,-2.70,-2.22,-2.60,-1.75,-1.76,-1.76
314.81,0.90,2.65,0.91,2.67,-2.67,-2.18,-2.53,-1.77,-1.76,-1.76
317.96,0.88,2.65,0.87,2.64,-2.64,-2.14,-2.46,-1.76,-1.76,-1.77
321.14,0.87,2.63,0.83,2.60,-2.60,-2.10,-2.38,-1.73,-1.76,-1.76
324.35,0.80,2.56,0.79,2.56,-2.56,-2.07,-2.31,-1.76,-1.76,-1.77
327.59,0.74,2.49,0.76,2.52,-2.52,-2.03,-2.25,-1.78,-1.76,-1.76
330.87,0.69,2.45,0.71,2.48,-2.48,-1.99,-2.18,-1.79,-1.77,-1.76
334.18,0.67,2.44,0.67,2.43,-2.43,-1.96,-2.11,-1.77,-1.76,-1.77
337.52,0.62,2.38,0.62,2.38,-2.38,-1.92,-2.04,-1.77,-1.76,-1.77
340.90,0.58,2.34,0.57,2.33,-2.33,-1.88,-1.98,-1.75,-1.76,-1.77
344.30,0.55,2.31,0.52,2.28,-2.28,-1.85,-1.92,-1.73,-1.76,-1.76
347.75,0.49,2.24,0.47,2.23,-2.23,-1.81,-1.86,-1.74,-1.76,-1.75
351.23,0.42,2.18,0.43,2.18,-2.18,-1.78,-1.79,-1.76,-1.75,-1.76
354.74,0.38,2.12,0.39,2.13,-2.13,-1.74,-1.74,-1.75,-1.75,-1.75
358.28,0.38,2.12,0.34,2.08,-2.08,-1.71,-1.68,-1.71,-1.74,-1.75
361.87,0.32,2.06,0.30,2.04,-2.04,-1.68,-1.62,-1.72,-1.74,-1.74
365.49,0.21,1.94,0.27,2.00,-2.00,-1.64,-1.57,-1.79,-1.73,-1.73
369.14,0.19,1.91,0.23,1.96,-1.96,-1.61,-1.51,-1.77,-1.73,-1.72
372.83,0.16,1.87,0.19,1.91,-1.91,-1.57,-1.46,-1.75,-1.72,-1.71
376.56,0.12,1.83,0.14,1.86,-1.86,-1.54,-1.41,-1.75,-1.72,-1.72
380.33,0.12,1.83,0.10,1.82,-1.82,-1.51,-1.36,-1.70,-1.72,-1.72
384.13,0.12,1.83,0.06,1.78,-1.78,-1.47,-1.31,-1.66,-1.72,-1.71
387.97,0.07,1.78,0.02,1.74,-1.74,-1.44,-1.26,-1.68,-1.72,-1.71
391.85,0.02,1.73,-0.01,1.71,-1.71,-1.41,-1.22,-1.69,-1.72,-1.71
395.77,-0.05,1.67,-0.06,1.67,-1.67,-1.38,-1.17,-1.72,-1.72,-1.72
399.73,-0.07,1.65,-0.10,1.62,-1.62,-1.34,-1.13,-1.70,-1.73,-1.72
403.72,-0.12,1.59,-0.14,1.59,-1.59,-1.31,-1.09,-1.71,-1.73,-1.71
407.76,-0.23,1.50,-0.18,1.55,-1.55,-1.28,-1.05,-1.79,-1.74,-1.74
411.84,-0.28,1.45,-0.23,1.51,-1.51,-1.25,-1.01,-1.79,-1.74,-1.74
415.96,-0.28,1.45,-0.28,1.46,-1.46,-1.22,-0.97,-1.74,-1.74,-1.74
420.12,-0.28,1.47,-0.33,1.41,-1.41,-1.19,-0.93,-1.69,-1.73,-1.75
424.32,-0.34,1.40,-0.36,1.36,-1.36,-1.16,-0.89,-1.71,-1.73,-1.74
428.56,-0.39,1.33,-0.40,1.32,-1.32,-1.12,-0.85,-1.71,-1.71,-1.72
432.85,-0.43,1.27,-0.42,1.27,-1.27,-1.09,-0.82,-1.70,-1.69,-1.70
437.18,-0.48,1.21,-0.44,1.23,-1.23,-1.06,-0.78,-1.71,-1.67,-1.69
441.55,-0.48,1.17,-0.45,1.18,-1.18,-1.03,-0.75,-1.67,-1.64,-1.65
445.96,-0.44,1.17,-0.46,1.14,-1.14,-1.00,-0.72,-1.58,-1.60,-1.61
450.42,-0.51,1.06,-0.46,1.09,-1.09,-0.97,-0.69,-1.61,-1.56,-1.57
454.93,-0.54,0.98,-0.46,1.05,-1.05,-0.94,-0.66,-1.59,-1.51,-1.52
459.48,-0.48,0.98,-0.46,1.00,-1.00,-0.91,-0.63,-1.48,-1.46,-1.47
464.07,-0.40,0.99,-0.45,0.95,-0.95,-0.88,-0.60,-1.35,-1.40,-1.40
468.71,-0.37,0.97,-0.45,0.90,-0.90,-0.85,-0.57,-1.27,-1.35,-1.35
473.40,-0.45,0.83,-0.44,0.85,-0.85,-0.82,-0.54,-1.30,-1.29,-1.29
478.13,-0.44,0.78,-0.44,0.80,-0.80,-0.79,-0.51,-1.24,-1.24,-1.23
482.91,-0.40,0.78,-0.44,0.75,-0.75,-0.75,-0.49,-1.16,-1.19,-1.18
487.74,-0.43,0.71,-0.44,0.71,-0.71,-0.72,-0.46,-1.14,-1.14,-1.14
492.62,-0.42,0.68,-0.45,0.66,-0.66,-0.69,-0.44,-1.08,-1.10,-1.10
497.55,-0.46,0.60,-0.46,0.61,-0.61,-0.66,-0.41,-1.07,-1.07,-1.06
502.52,-0.47,0.57,-0.48,0.57,-0.57,-0.63,-0.39,-1.04,-1.04,-1.04
507.55,-0.52,0.49,-0.50,0.52,-0.52,-0.59,-0.37,-1.05,-1.02,-1.01
512.62,-0.56,0.44,-0.54,0.47,-0.47,-0.56,-0.34,-1.03,-1.01,-1.00
517.75,-0.61,0.38,-0.59,0.42,-0.42,-0.53,-0.32,-1.03,-1.01,-0.99
