frequency,raw,error,smoothed,error_smoothed,equalization,parametric_eq,fixed_band_eq,equalized_raw,equalized_smoothed,target
20.00,10.06,1.51,10.06,1.51,-1.51,-1.45,-1.05,8.55,8.55,8.55
20.20,10.09,1.54,10.09,1.54,-1.54,-1.47,-1.08,8.55,8.55,8.55
20.40,10.12,1.57,10.12,1.57,-1.57,-1.50,-1.11,8.55,8.55,8.55
20.61,10.15,1.60,10.15,1.60,-1.60,-1.52,-1.14,8.55,8.55,8.55
20.81,10.18,1.64,10.18,1.63,-1.63,-1.54,-1.18,8.55,8.54,8.54
21.02,10.21,1.67,10.21,1.66,-1.66,-1.56,-1.21,8.55,8.54,8.54
21.23,10.23,1.69,10.23,1.69,-1.69,-1.59,-1.24,8.54,8.54,8.54
21.44,10.25,1.71,10.26,1.72,-1.72,-1.61,-1.28,8.53,8.54,8.55
21.66,10.28,1.75,10.29,1.76,-1.76,-1.63,-1.32,8.53,8.53,8.54
21.87,10.31,1.78,10.32,1.79,-1.79,-1.65,-1.35,8.53,8.53,8.54
22.09,10.34,1.82,10.34,1.82,-1.82,-1.68,-1.39,8.53,8.53,8.53
22.31,10.36,1.84,10.37,1.85,-1.85,-1.70,-1.43,8.52,8.52,8.53
22.54,10.39,1.88,10.39,1.88,-1.88,-1.73,-1.47,8.52,8.52,8.52
22.76,10.42,1.91,10.42,1.91,-1.91,-1.75,-1.51,8.52,8.51,8.51
22.99,10.44,1.93,10.45,1.94,-1.94,-1.77,-1.56,8.51,8.51,8.51
23.22,10.47,1.97,10.47,1.97,-1.97,-1.80,-1.60,8.51,8.51,8.50
23.45,10.50,2.00,10.50,2.00,-2.00,-1.82,-1.65,8.51,8.50,8.50
23.69,10.52,2.03,10.52,2.03,-2.03,-1.85,-1.69,8.49,8.49,8.49
23.92,10.55,2.07,10.55,2.06,-2.06,-1.87,-1.74,8.50,8.49,8.48
24.16,10.57,2.09,10.57,2.09,-2.09,-1.90,-1.78,8.49,8.49,8.48
24.40,10.59,2.11,10.59,2.11,-2.11,-1.92,-1.83,8.48,8.48,8.48
24.65,10.61,2.13,10.62,2.14,-2.14,-1.95,-1.88,8.47,8.48,8.48
24.89,10.63,2.15,10.64,2.16,-2.16,-1.97,-1.93,8.47,8.48,8.48
25.14,10.66,2.18,10.66,2.19,-2.19,-2.00,-1.98,8.48,8.47,8.48
25.39,10.68,2.22,10.68,2.21,-2.21,-2.03,-2.03,8.47,8.47,8.47
25.65,10.70,2.24,10.70,2.23,-2.23,-2.05,-2.08,8.47,8.47,8.47
25.91,10.72,2.26,10.72,2.25,-2.25,-2.08,-2.13,8.47,8.47,8.47
26.16,10.74,2.27,10.74,2.27,-2.27,-2.10,-2.18,8.47,8.47,8.48
26.43,10.76,2.29,10.76,2.29,-2.29,-2.13,-2.23,8.48,8.47,8.47
26.69,10.78,2.31,10.78,2.30,-2.30,-2.16,-2.29,8.48,8.47,8.47
26.96,10.79,2.32,10.80,2.32,-2.32,-2.18,-2.34,8.47,8.47,8.47
27.23,10.81,2.34,10.81,2.34,-2.34,-2.21,-2.38,8.47,8.47,8.47
27.50,10.82,2.35,10.83,2.36,-2.36,-2.24,-2.43,8.46,8.47,8.47
27.77,10.84,2.36,10.85,2.38,-2.38,-2.27,-2.48,8.47,8.47,8.48
28.05,10.86,2.40,10.86,2.40,-2.40,-2.29,-2.53,8.47,8.47,8.47
28.33,10.87,2.41,10.88,2.41,-2.41,-2.32,-2.57,8.46,8.46,8.47
28.62,10.89,2.44,10.89,2.43,-2.43,-2.35,-2.61,8.46,8.46,8.46
28.90,10.90,2.44,10.91,2.45,-2.45,-2.37,-2.66,8.45,8.45,8.46
29.19,10.92,2.47,10.92,2.47,-2.47,-2.40,-2.69,8.45,8.45,8.45
29.48,10.93,2.49,10.93,2.49,-2.49,-2.43,-2.73,8.45,8.45,8.44
29.78,10.95,2.51,10.95,2.51,-2.51,-2.46,-2.77,8.45,8.44,8.44
30.08,10.96,2.53,10.96,2.52,-2.52,-2.49,-2.80,8.44,8.44,8.44
30.38,10.97,2.55,10.97,2.54,-2.54,-2.51,-2.83,8.43,8.43,8.43
30.68,10.98,2.56,10.99,2.56,-2.56,-2.54,-2.85,8.43,8.43,8.42
30.99,10.99,2.57,11.00,2.57,-2.57,-2.57,-2.88,8.42,8.43,8.42
31.30,11.00,2.58,11.01,2.58,-2.58,-2.60,-2.90,8.42,8.43,8.42
31.61,11.02,2.60,11.02,2.60,-2.60,-2.62,-2.92,8.43,8.42,8.42
31.93,11.03,2.62,11.03,2.61,-2.61,-2.65,-2.93,8.42,8.42,8.42
32.24,11.04,2.62,11.04,2.62,-2.62,-2.68,-2.95,8.42,8.42,8.42
32.57,11.05,2.64,11.05,2.64,-2.64,-2.71,-2.96,8.42,8.42,8.41
32.89,11.06,2.64,11.06,2.65,-2.65,-2.74,-2.96,8.42,8.42,8.42
33.22,11.07,2.66,11.07,2.66,-2.66,-2.77,-2.97,8.41,8.41,8.42
33.55,11.08,2.67,11.08,2.68,-2.68,-2.79,-2.97,8.41,8.41,8.41
33.89,11.09,2.69,11.09,2.69,-2.69,-2.82,-2.98,8.40,8.40,8.40
34.23,11.10,2.71,11.10,2.71,-2.71,-2.85,-2.98,8.39,8.39,8.39
34.57,11.11,2.73,11.11,2.73,-2.73,-2.88,-2.97,8.38,8.38,8.39
34.92,11.12,2.76,11.12,2.75,-2.75,-2.90,-2.97,8.37,8.36,8.36
35.27,11.12,2.76,11.12,2.77,-2.77,-2.93,-2.97,8.35,8.35,8.36
35.62,11.13,2.80,11.13,2.80,-2.80,-2.96,-2.97,8.33,8.33,8.33
35.97,11.13,2.82,11.14,2.83,-2.83,-2.99,-2.96,8.30,8.31,8.31
36.33,11.13,2.84,11.14,2.86,-2.86,-3.02,-2.96,8.27,8.28,8.29
36.70,11.14,2.88,11.15,2.89,-2.89,-3.04,-2.95,8.25,8.26,8.26
37.06,11.15,2.92,11.15,2.92,-2.92,-3.07,-2.95,8.23,8.23,8.23
37.43,11.15,2.95,11.16,2.95,-2.95,-3.10,-2.95,8.20,8.20,8.20
37.81,11.16,2.99,11.16,2.98,-2.98,-3.13,-2.94,8.18,8.18,8.18
38.19,11.16,3.02,11.16,3.01,-3.01,-3.15,-2.94,8.15,8.15,8.14
38.57,11.16,3.05,11.16,3.04,-3.04,-3.18,-2.94,8.12,8.12,8.12
38.95,11.17,3.08,11.17,3.07,-3.07,-3.21,-2.94,8.10,8.09,8.09
39.34,11.17,3.11,11.17,3.10,-3.10,-3.23,-2.95,8.07,8.07,8.06
39.74,11.17,3.14,11.17,3.13,-3.13,-3.26,-2.95,8.04,8.04,8.03
40.14,11.17,3.16,11.17,3.16,-3.16,-3.29,-2.96,8.01,8.01,8.01
40.54,11.16,3.17,11.17,3.18,-3.18,-3.31,-2.96,7.98,7.99,7.99
40.94,11.17,3.20,11.17,3.21,-3.21,-3.34,-2.97,7.97,7.97,7.97
41.35,11.17,3.23,11.17,3.23,-3.23,-3.36,-2.99,7.95,7.95,7.94
41.76,11.17,3.26,11.17,3.25,-3.25,-3.39,-3.00,7.93,7.93,7.92
42.18,11.17,3.26,11.17,3.27,-3.27,-3.42,-3.01,7.91,7.90,7.91
42.60,11.16,3.28,11.17,3.29,-3.29,-3.44,-3.03,7.88,7.88,7.88
43.03,11.17,3.32,11.17,3.30,-3.30,-3.47,-3.05,7.87,7.86,7.86
43.46,11.17,3.33,11.17,3.32,-3.32,-3.49,-3.08,7.85,7.84,7.84
43.90,11.16,3.34,11.16,3.34,-3.34,-3.52,-3.10,7.82,7.82,7.82
44.33,11.16,3.37,11.16,3.36,-3.36,-3.54,-3.13,7.80,7.80,7.80
44.78,11.15,3.37,11.16,3.38,-3.38,-3.56,-3.16,7.77,7.78,7.78
45.23,11.15,3.38,11.15,3.40,-3.40,-3.59,-3.19,7.75,7.75,7.77
45.68,11.15,3.42,11.15,3.42,-3.42,-3.61,-3.23,7.73,7.73,7.73
46.13,11.15,3.46,11.14,3.44,-3.44,-3.64,-3.27,7.71,7.70,7.69
46.60,11.13,3.46,11.14,3.47,-3.47,-3.66,-3.30,7.66,7.67,7.68
47.06,11.13,3.49,11.13,3.50,-3.50,-3.68,-3.35,7.64,7.64,7.65
47.53,11.12,3.51,11.13,3.52,-3.52,-3.70,-3.39,7.60,7.60,7.62
48.01,11.12,3.56,11.12,3.55,-3.55,-3.73,-3.44,7.57,7.57,7.57
48.49,11.11,3.58,11.11,3.58,-3.58,-3.75,-3.49,7.53,7.53,7.54
48.97,11.10,3.61,11.11,3.61,-3.61,-3.77,-3.54,7.49,7.50,7.50
49.46,11.10,3.64,11.10,3.64,-3.64,-3.79,-3.59,7.46,7.46,7.46
49.96,11.09,3.69,11.09,3.67,-3.67,-3.81,-3.64,7.42,7.42,7.40
50.46,11.07,3.70,11.08,3.70,-3.70,-3.83,-3.70,7.37,7.38,7.37
50.96,11.07,3.74,11.07,3.73,-3.73,-3.86,-3.75,7.34,7.34,7.33
51.47,11.06,3.77,11.06,3.76,-3.76,-3.88,-3.81,7.30,7.30,7.30
51.99,11.05,3.80,11.05,3.79,-3.79,-3.90,-3.87,7.26,7.26,7.25
52.51,11.04,3.82,11.04,3.82,-3.82,-3.92,-3.93,7.22,7.22,7.22
53.03,11.03,3.84,11.03,3.85,-3.85,-3.93,-3.98,7.18,7.18,7.20
53.56,11.01,3.86,11.02,3.88,-3.88,-3.95,-4.04,7.14,7.14,7.15
54.10,11.01,3.91,11.01,3.90,-3.90,-3.97,-4.10,7.11,7.11,7.11
54.64,10.99,3.92,11.00,3.92,-3.92,-3.99,-4.16,7.07,7.07,7.07
55.18,10.98,3.96,10.98,3.95,-3.95,-4.01,-4.21,7.04,7.04,7.03
55.74,10.97,3.98,10.97,3.97,-3.97,-4.03,-4.27,7.01,7.00,6.99
56.29,10.95,3.99,10.96,3.99,-3.99,-4.04,-4.32,6.97,6.97,6.96
56.86,10.94,4.01,10.94,4.01,-4.01,-4.06,-4.37,6.94,6.94,6.93
57.42,10.93,4.05,10.93,4.03,-4.03,-4.08,-4.42,6.90,6.90,6.89
58.00,10.91,4.06,10.92,4.05,-4.05,-4.09,-4.46,6.86,6.86,6.86
58.58,10.90,4.07,10.90,4.08,-4.08,-4.11,-4.50,6.83,6.82,6.84
59.16,10.88,4.08,10.89,4.10,-4.10,-4.12,-4.54,6.78,6.78,6.81
59.76,10.87,4.10,10.87,4.13,-4.13,-4.14,-4.57,6.75,6.74,6.78
60.35,10.85,4.13,10.85,4.15,-4.15,-4.15,-4.60,6.70,6.70,6.72
60.96,10.84,4.16,10.84,4.17,-4.17,-4.17,-4.63,6.67,6.66,6.68
61.57,10.82,4.20,10.82,4.20,-4.20,-4.18,-4.65,6.62,6.62,6.62
62.18,10.80,4.24,10.80,4.23,-4.23,-4.20,-4.67,6.58,6.58,6.57
62.80,10.78,4.26,10.79,4.25,-4.25,-4.21,-4.68,6.53,6.53,6.52
63.43,10.76,4.30,10.77,4.28,-4.28,-4.22,-4.68,6.49,6.49,6.47
64.07,10.75,4.32,10.75,4.30,-4.30,-4.23,-4.69,6.45,6.45,6.43
64.71,10.73,4.34,10.73,4.33,-4.33,-4.25,-4.68,6.41,6.40,6.39
65.35,10.70,4.35,10.71,4.35,-4.35,-4.26,-4.68,6.35,6.36,6.36
66.01,10.68,4.37,10.69,4.37,-4.37,-4.27,-4.66,6.31,6.32,6.32
66.67,10.67,4.38,10.67,4.39,-4.39,-4.28,-4.65,6.28,6.28,6.29
67.33,10.64,4.40,10.65,4.41,-4.41,-4.29,-4.63,6.23,6.24,6.24
68.01,10.62,4.42,10.62,4.43,-4.43,-4.30,-4.61,6.20,6.20,6.20
68.69,10.60,4.45,10.60,4.44,-4.44,-4.31,-4.58,6.16,6.16,6.16
69.37,10.58,4.46,10.58,4.46,-4.46,-4.32,-4.56,6.12,6.12,6.13
70.07,10.55,4.46,10.56,4.48,-4.48,-4.33,-4.53,6.08,6.08,6.09
70.77,10.53,4.48,10.53,4.49,-4.49,-4.34,-4.50,6.04,6.04,6.05
71.48,10.51,4.51,10.51,4.51,-4.51,-4.35,-4.47,6.00,6.00,6.00
72.19,10.48,4.52,10.49,4.53,-4.53,-4.36,-4.43,5.96,5.96,5.96
72.91,10.46,4.54,10.46,4.54,-4.54,-4.37,-4.40,5.92,5.92,5.92
73.64,10.43,4.56,10.44,4.55,-4.55,-4.38,-4.37,5.88,5.88,5.87
74.38,10.41,4.58,10.41,4.57,-4.57,-4.39,-4.33,5.85,5.85,5.84
75.12,10.38,4.59,10.38,4.57,-4.57,-4.39,-4.30,5.81,5.81,5.80
75.87,10.36,4.59,10.36,4.58,-4.58,-4.40,-4.27,5.78,5.77,5.78
76.63,10.33,4.60,10.33,4.59,-4.59,-4.41,-4.24,5.74,5.74,5.74
77.40,10.30,4.60,10.30,4.60,-4.60,-4.42,-4.21,5.71,5.71,5.71
78.17,10.27,4.61,10.28,4.60,-4.60,-4.42,-4.18,5.67,5.67,5.66
78.95,10.24,4.59,10.25,4.61,-4.61,-4.43,-4.16,5.64,5.64,5.65
79.74,10.22,4.61,10.22,4.61,-4.61,-4.44,-4.14,5.62,5.61,5.62
80.54,10.18,4.60,10.19,4.61,-4.61,-4.44,-4.12,5.58,5.58,5.58
81.35,10.16,4.61,10.16,4.61,-4.61,-4.45,-4.10,5.56,5.55,5.55
82.16,10.12,4.59,10.13,4.61,-4.61,-4.45,-4.08,5.52,5.52,5.53
82.98,10.09,4.60,10.10,4.61,-4.61,-4.46,-4.07,5.49,5.49,5.49
83.81,10.07,4.61,10.07,4.60,-4.60,-4.46,-4.06,5.47,5.46,5.46
84.65,10.04,4.62,10.04,4.60,-4.60,-4.47,-4.05,5.44,5.43,5.42
85.50,10.00,4.61,10.00,4.60,-4.60,-4.47,-4.05,5.40,5.40,5.39
86.35,9.97,4.60,9.97,4.60,-4.60,-4.48,-4.04,5.37,5.37,5.37
87.22,9.93,4.59,9.94,4.60,-4.60,-4.48,-4.05,5.34,5.34,5.34
88.09,9.91,4.60,9.91,4.60,-4.60,-4.49,-4.05,5.32,5.31,5.31
88.97,9.87,4.59,9.87,4.59,-4.59,-4.49,-4.06,5.28,5.28,5.28
89.86,9.84,4.60,9.84,4.59,-4.59,-4.50,-4.07,5.25,5.25,5.25
90.76,9.80,4.59,9.81,4.59,-4.59,-4.50,-4.09,5.21,5.21,5.21
91.66,9.77,4.59,9.77,4.59,-4.59,-4.50,-4.10,5.18,5.18,5.18
92.58,9.73,4.59,9.74,4.60,-4.60,-4.51,-4.12,5.14,5.14,5.15
93.51,9.70,4.59,9.70,4.60,-4.60,-4.51,-4.15,5.10,5.10,5.11
94.44,9.66,4.59,9.66,4.60,-4.60,-4.52,-4.17,5.06,5.06,5.08
95.39,9.63,4.60,9.63,4.61,-4.61,-4.52,-4.20,5.03,5.02,5.03
96.34,9.59,4.61,9.59,4.61,-4.61,-4.52,-4.23,4.98,4.98,4.98
97.30,9.55,4.61,9.56,4.62,-4.62,-4.53,-4.27,4.94,4.94,4.95
98.28,9.52,4.63,9.52,4.62,-4.62,-4.53,-4.30,4.90,4.90,4.89
99.26,9.47,4.63,9.48,4.62,-4.62,-4.53,-4.34,4.85,4.86,4.84
100.25,9.44,4.64,9.44,4.63,-4.63,-4.54,-4.38,4.82,4.82,4.81
101.25,9.40,4.63,9.40,4.63,-4.63,-4.54,-4.43,4.78,4.78,4.77
102.27,9.36,4.63,9.36,4.63,-4.63,-4.54,-4.47,4.74,4.74,4.73
103.29,9.32,4.63,9.32,4.62,-4.62,-4.54,-4.52,4.70,4.70,4.69
104.32,9.28,4.62,9.28,4.62,-4.62,-4.55,-4.56,4.66,4.66,4.66
105.37,9.24,4.62,9.24,4.61,-4.61,-4.55,-4.61,4.63,4.63,4.63
106.42,9.20,4.60,9.20,4.61,-4.61,-4.55,-4.66,4.59,4.59,4.60
107.48,9.16,4.61,9.16,4.60,-4.60,-4.55,-4.70,4.56,4.56,4.55
108.56,9.12,4.60,9.12,4.60,-4.60,-4.56,-4.75,4.53,4.52,4.52
109.64,9.07,4.58,9.08,4.59,-4.59,-4.56,-4.80,4.48,4.49,4.50
110.74,9.03,4.57,9.04,4.58,-4.58,-4.56,-4.84,4.45,4.45,4.46
111.85,8.99,4.57,8.99,4.58,-4.58,-4.56,-4.88,4.41,4.41,4.42
112.97,8.95,4.57,8.95,4.58,-4.58,-4.56,-4.92,4.38,4.38,4.38
114.10,8.91,4.57,8.91,4.57,-4.57,-4.57,-4.96,4.34,4.34,4.35
115.24,8.86,4.56,8.87,4.57,-4.57,-4.57,-5.00,4.29,4.30,4.30
116.39,8.82,4.58,8.82,4.57,-4.57,-4.57,-5.03,4.25,4.25,4.25
117.55,8.78,4.57,8.78,4.57,-4.57,-4.57,-5.06,4.22,4.21,4.21
118.73,8.73,4.58,8.73,4.57,-4.57,-4.57,-5.08,4.16,4.17,4.15
119.92,8.68,4.57,8.69,4.57,-4.57,-4.57,-5.10,4.11,4.12,4.11
121.12,8.64,4.57,8.64,4.57,-4.57,-4.57,-5.11,4.07,4.07,4.08
122.33,8.59,4.57,8.60,4.58,-4.58,-4.57,-5.12,4.02,4.02,4.02
123.55,8.55,4.57,8.55,4.58,-4.58,-4.57,-5.12,3.97,3.97,3.98
124.79,8.51,4.58,8.50,4.58,-4.58,-4.57,-5.12,3.93,3.92,3.94
126.03,8.45,4.57,8.46,4.58,-4.58,-4.57,-5.11,3.87,3.87,3.89
127.29,8.40,4.58,8.41,4.58,-4.58,-4.57,-5.09,3.82,3.82,3.82
128.57,8.36,4.59,8.36,4.58,-4.58,-4.57,-5.07,3.78,3.78,3.77
129.85,8.31,4.59,8.31,4.58,-4.58,-4.56,-5.05,3.73,3.73,3.72
131.15,8.26,4.59,8.26,4.58,-4.58,-4.56,-5.02,3.68,3.68,3.68
132.46,8.21,4.59,8.21,4.57,-4.57,-4.56,-4.99,3.64,3.64,3.63
133.79,8.16,4.57,8.16,4.57,-4.57,-4.55,-4.95,3.60,3.60,3.59
135.12,8.11,4.57,8.11,4.56,-4.56,-4.55,-4.90,3.55,3.56,3.54
136.48,8.06,4.55,8.06,4.55,-4.55,-4.55,-4.86,3.52,3.52,3.52
137.84,8.01,4.53,8.01,4.53,-4.53,-4.54,-4.80,3.48,3.48,3.48
139.22,7.96,4.53,7.96,4.52,-4.52,-4.53,-4.75,3.45,3.44,3.44
140.61,7.90,4.49,7.91,4.50,-4.50,-4.53,-4.69,3.40,3.41,3.41
142.02,7.86,4.48,7.86,4.48,-4.48,-4.52,-4.64,3.38,3.38,3.38
143.44,7.81,4.46,7.81,4.46,-4.46,-4.51,-4.58,3.36,3.35,3.35
144.87,7.75,4.42,7.76,4.43,-4.43,-4.50,-4.52,3.32,3.32,3.33
146.32,7.70,4.40,7.70,4.41,-4.41,-4.49,-4.45,3.29,3.30,3.30
147.78,7.65,4.38,7.65,4.38,-4.38,-4.48,-4.39,3.27,3.27,3.27
149.26,7.60,4.36,7.60,4.36,-4.36,-4.47,-4.33,3.24,3.24,3.24
150.75,7.54,4.34,7.54,4.33,-4.33,-4.46,-4.27,3.21,3.21,3.20
152.26,7.49,4.31,7.49,4.31,-4.31,-4.44,-4.21,3.18,3.18,3.19
153.78,7.43,4.28,7.44,4.28,-4.28,-4.43,-4.14,3.15,3.15,3.15
155.32,7.38,4.26,7.38,4.26,-4.26,-4.41,-4.09,3.12,3.12,3.13
156.88,7.32,4.23,7.32,4.24,-4.24,-4.40,-4.03,3.09,3.09,3.09
158.44,7.26,4.20,7.27,4.21,-4.21,-4.38,-3.97,3.05,3.06,3.06
160.03,7.21,4.19,7.21,4.19,-4.19,-4.36,-3.92,3.02,3.02,3.03
161.63,7.15,4.16,7.15,4.17,-4.17,-4.34,-3.86,2.99,2.99,2.99
163.24,7.09,4.15,7.10,4.15,-4.15,-4.32,-3.81,2.95,2.95,2.94
164.88,7.04,4.13,7.04,4.12,-4.12,-4.30,-3.77,2.92,2.92,2.91
166.53,6.98,4.11,6.98,4.10,-4.10,-4.28,-3.72,2.88,2.88,2.87
168.19,6.92,4.08,6.92,4.08,-4.08,-4.25,-3.68,2.84,2.84,2.85
169.87,6.86,4.05,6.86,4.06,-4.06,-4.23,-3.64,2.80,2.80,2.81
171.57,6.80,4.04,6.81,4.04,-4.04,-4.20,-3.60,2.76,2.77,2.76
173.29,6.75,4.03,6.75,4.02,-4.02,-4.17,-3.56,2.74,2.73,2.73
175.02,6.68,3.99,6.69,3.99,-3.99,-4.15,-3.53,2.69,2.69,2.69
176.77,6.63,3.98,6.63,3.97,-3.97,-4.12,-3.50,2.66,2.66,2.66
178.54,6.56,3.94,6.57,3.95,-3.95,-4.09,-3.48,2.61,2.62,2.62
180.32,6.51,3.93,6.51,3.93,-3.93,-4.05,-3.45,2.59,2.58,2.58
182.13,6.44,3.90,6.45,3.90,-3.90,-4.02,-3.43,2.54,2.55,2.55
183.95,6.38,3.87,6.39,3.88,-3.88,-3.99,-3.41,2.51,2.51,2.51
185.79,6.33,3.86,6.32,3.85,-3.85,-3.95,-3.39,2.48,2.47,2.47
187.65,6.26,3.82,6.26,3.83,-3.83,-3.92,-3.38,2.43,2.43,2.44
189.52,6.20,3.80,6.20,3.80,-3.80,-3.88,-3.37,2.40,2.40,2.40
191.42,6.14,3.78,6.14,3.78,-3.78,-3.84,-3.36,2.36,2.36,2.36
193.33,6.08,3.76,6.08,3.75,-3.75,-3.80,-3.35,2.33,2.33,2.33
195.27,6.01,3.73,6.02,3.73,-3.73,-3.76,-3.35,2.29,2.29,2.29
197.22,5.96,3.71,5.96,3.70,-3.70,-3.72,-3.35,2.27,2.26,2.25
199.19,5.89,3.67,5.90,3.67,-3.67,-3.68,-3.35,2.22,2.23,2.22
201.18,5.83,3.65,5.84,3.64,-3.64,-3.64,-3.35,2.19,2.20,2.19
203.19,5.78,3.62,5.78,3.61,-3.61,-3.60,-3.35,2.17,2.16,2.16
205.23,5.71,3.58,5.72,3.59,-3.59,-3.55,-3.35,2.13,2.13,2.14
207.28,5.66,3.55,5.66,3.56,-3.56,-3.51,-3.36,2.11,2.10,2.11
209.35,5.59,3.52,5.60,3.53,-3.53,-3.47,-3.36,2.07,2.07,2.08
211.44,5.54,3.49,5.54,3.49,-3.49,-3.42,-3.37,2.05,2.05,2.05
213.56,5.48,3.46,5.48,3.46,-3.46,-3.37,-3.37,2.02,2.02,2.02
215.69,5.43,3.44,5.43,3.43,-3.43,-3.33,-3.38,2.00,2.00,2.00
217.85,5.37,3.40,5.37,3.40,-3.40,-3.28,-3.38,1.98,1.97,1.98
220.03,5.31,3.37,5.31,3.36,-3.36,-3.23,-3.39,1.95,1.95,1.94
222.23,5.26,3.34,5.26,3.33,-3.33,-3.19,-3.39,1.93,1.93,1.92
224.45,5.20,3.30,5.20,3.30,-3.30,-3.14,-3.40,1.90,1.90,1.90
226.70,5.14,3.26,5.15,3.27,-3.27,-3.09,-3.40,1.88,1.88,1.88
228.96,5.09,3.22,5.10,3.23,-3.23,-3.04,-3.40,1.86,1.86,1.87
231.25,5.04,3.19,5.04,3.20,-3.20,-2.99,-3.39,1.84,1.84,1.85
233.57,4.98,3.15,4.99,3.16,-3.16,-2.94,-3.39,1.82,1.82,1.83
235.90,4.93,3.13,4.94,3.13,-3.13,-2.89,-3.38,1.81,1.81,1.80
238.26,4.88,3.10,4.88,3.09,-3.09,-2.84,-3.37,1.79,1.79,1.78
240.64,4.82,3.04,4.83,3.05,-3.05,-2.79,-3.35,1.77,1.78,1.78
243.05,4.78,3.02,4.78,3.01,-3.01,-2.74,-3.33,1.77,1.77,1.77
245.48,4.73,2.99,4.73,2.97,-2.97,-2.69,-3.31,1.76,1.75,1.75
247.93,4.67,2.94,4.67,2.93,-2.93,-2.65,-3.28,1.74,1.74,1.73
250.41,4.62,2.89,4.62,2.89,-2.89,-2.60,-3.25,1.73,1.73,1.73
252.92,4.57,2.85,4.57,2.85,-2.85,-2.55,-3.22,1.72,1.72,1.72
255.45,4.51,2.80,4.51,2.81,-2.81,-2.50,-3.18,1.71,1.71,1.71
258.00,4.46,2.76,4.46,2.76,-2.76,-2.45,-3.14,1.70,1.70,1.70
260.58,4.40,2.71,4.41,2.72,-2.72,-2.40,-3.09,1.68,1.69,1.70
263.19,4.35,2.67,4.35,2.67,-2.67,-2.35,-3.04,1.68,1.68,1.68
265.82,4.30,2.63,4.30,2.63,-2.63,-2.30,-2.99,1.67,1.67,1.67
268.48,4.24,2.58,4.24,2.58,-2.58,-2.25,-2.93,1.66,1.66,1.67
271.16,4.19,2.54,4.19,2.54,-2.54,-2.20,-2.87,1.66,1.65,1.65
273.87,4.13,2.49,4.13,2.49,-2.49,-2.15,-2.80,1.64,1.64,1.65
276.61,4.07,2.44,4.08,2.44,-2.44,-2.10,-2.74,1.63,1.64,1.63
279.38,4.01,2.40,4.02,2.40,-2.40,-2.05,-2.67,1.62,1.63,1.62
282.17,3.97,2.36,3.97,2.35,-2.35,-2.00,-2.60,1.62,1.62,1.61
284.99,3.91,2.30,3.91,2.30,-2.30,-1.95,-2.52,1.61,1.61,1.62
287.84,3.85,2.24,3.86,2.25,-2.25,-1.91,-2.45,1.60,1.61,1.61
290.72,3.80,2.21,3.80,2.20,-2.20,-1.86,-2.37,1.60,1.60,1.59
293.63,3.74,2.15,3.74,2.15,-2.15,-1.81,-2.30,1.60,1.59,1.59
296.57,3.68,2.09,3.68,2.10,-2.10,-1.76,-2.22,1.59,1.59,1.59
299.53,3.63,2.05,3.63,2.04,-2.04,-1.71,-2.14,1.59,1.59,1.59
302.53,3.56,1.98,3.57,1.98,-1.98,-1.67,-2.06,1.58,1.58,1.58
305.55,3.51,1.93,3.51,1.93,-1.93,-1.62,-1.98,1.58,1.58,1.58
308.61,3.44,1.87,3.45,1.87,-1.87,-1.57,-1.90,1.57,1.58,1.58
311.69,3.38,1.81,3.39,1.81,-1.81,-1.53,-1.82,1.57,1.57,1.57
314.81,3.33,1.76,3.32,1.75,-1.75,-1.48,-1.73,1.58,1.57,1.57
317.96,3.26,1.70,3.26,1.69,-1.69,-1.43,-1.65,1.57,1.57,1.57
321.14,3.20,1.63,3.20,1.63,-1.63,-1.39,-1.57,1.57,1.57,1.57
324.35,3.13,1.57,3.14,1.57,-1.57,-1.34,-1.49,1.57,1.57,1.56
327.59,3.07,1.49,3.07,1.50,-1.50,-1.30,-1.41,1.57,1.57,1.58
330.87,3.00,1.43,3.01,1.44,-1.44,-1.25,-1.33,1.56,1.57,1.58
334.18,2.95,1.39,2.95,1.38,-1.38,-1.21,-1.26,1.58,1.57,1.56
337.52,2.88,1.31,2.88,1.31,-1.31,-1.16,-1.18,1.57,1.57,1.57
340.90,2.82,1.25,2.82,1.24,-1.24,-1.11,-1.10,1.58,1.58,1.57
344.30,2.75,1.17,2.76,1.18,-1.18,-1.07,-1.02,1.57,1.58,1.58
347.75,2.69,1.11,2.69,1.11,-1.11,-1.02,-0.95,1.58,1.58,1.59
351.23,2.63,1.06,2.63,1.05,-1.05,-0.98,-0.87,1.59,1.58,1.57
354.74,2.56,0.97,2.57,0.98,-0.98,-0.93,-0.80,1.58,1.58,1.59
358.28,2.49,0.91,2.50,0.92,-0.92,-0.89,-0.72,1.58,1.58,1.58
361.87,2.44,0.85,2.44,0.85,-0.85,-0.84,-0.65,1.59,1.59,1.59
365.49,2.37,0.79,2.37,0.79,-0.79,-0.80,-0.58,1.59,1.59,1.59
369.14,2.30,0.71,2.31,0.72,-0.72,-0.76,-0.50,1.58,1.59,1.60
372.83,2.25,0.66,2.24,0.65,-0.65,-0.71,-0.43,1.60,1.59,1.59
376.56,2.18,0.59,2.18,0.59,-0.59,-0.67,-0.36,1.59,1.59,1.59
380.33,2.12,0.53,2.12,0.52,-0.52,-0.62,-0.29,1.60,1.59,1.59
384.13,2.05,0.46,2.06,0.46,-0.46,-0.58,-0.22,1.59,1.59,1.59
387.97,1.99,0.40,1.99,0.40,-0.40,-0.53,-0.15,1.60,1.60,1.60
391.85,1.92,0.33,1.93,0.33,-0.33,-0.49,-0.08,1.59,1.60,1.60
395.77,1.86,0.27,1.87,0.27,-0.27,-0.44,-0.01,1.59,1.60,1.60
399.73,1.80,0.21,1.80,0.21,-0.21,-0.40,0.06,1.60,1.60,1.59
403.72,1.74,0.14,1.74,0.14,-0.14,-0.35,0.12,1.60,1.60,1.60
407.76,1.68,0.08,1.68,0.08,-0.08,-0.30,0.19,1.60,1.60,1.60
411.84,1.62,0.02,1.62,0.02,-0.02,-0.26,0.25,1.61,1.60,1.60
415.96,1.56,-0.05,1.56,-0.04,0.04,-0.21,0.32,1.61,1.60,1.61
420.12,1.49,-0.11,1.50,-0.10,0.10,-0.17,0.38,1.60,1.60,1.60
424.32,1.43,-0.17,1.44,-0.17,0.17,-0.12,0.45,1.60,1.60,1.60
428.56,1.37,-0.23,1.37,-0.23,0.23,-0.07,0.51,1.60,1.60,1.61
432.85,1.31,-0.29,1.31,-0.29,0.29,-0.02,0.57,1.60,1.60,1.61
437.18,1.25,-0.34,1.25,-0.35,0.35,0.02,0.63,1.60,1.60,1.60
441.55,1.19,-0.40,1.19,-0.41,0.41,0.07,0.69,1.60,1.60,1.59
445.96,1.13,-0.46,1.13,-0.47,0.47,0.12,0.75,1.60,1.60,1.59
450.42,1.07,-0.52,1.07,-0.53,0.53,0.17,0.81,1.60,1.60,1.59
454.93,1.01,-0.58,1.01,-0.58,0.58,0.22,0.87,1.60,1.60,1.59
459.48,0.95,-0.64,0.95,-0.64,0.64,0.27,0.92,1.60,1.60,1.59
464.07,0.89,-0.71,0.89,-0.70,0.70,0.32,0.97,1.60,1.60,1.60
468.71,0.83,-0.77,0.83,-0.76,0.76,0.37,1.03,1.60,1.60,1.60
473.40,0.77,-0.83,0.78,-0.82,0.82,0.43,1.08,1.60,1.60,1.60
478.13,0.71,-0.89,0.72,-0.88,0.88,0.48,1.12,1.60,1.60,1.60
482.91,0.66,-0.94,0.66,-0.94,0.94,0.53,1.17,1.61,1.60,1.60
487.74,0.60,-1.01,0.60,-1.00,1.00,0.59,1.22,1.61,1.60,1.61
492.62,0.54,-1.07,0.55,-1.06,1.06,0.64,1.26,1.60,1.61,1.61
497.55,0.49,-1.11,0.49,-1.12,1.12,0.70,1.30,1.61,1.61,1.61
502.52,0.43,-1.17,0.43,-1.18,1.18,0.75,1.34,1.61,1.61,1.61
507.55,0.37,-1.24,0.38,-1.24,1.24,0.81,1.38,1.61,1.62,1.62
512.62,0.32,-1.29,0.32,-1.30,1.30,0.87,1.42,1.62,1.62,1.62
517.75,0.27,-1.36,0.27,-1.36,1.36,0.93,1.46,1.63,1.63,1.64
522.93,0.21,-1.42,0.21,-1.42,1.42,0.99,1.49,1.63,1.63,1.64
