frequency,raw
20.00,4.23
20.20,4.25
20.40,4.28
20.61,4.30
20.81,4.33
21.02,4.35
21.23,4.38
21.44,4.40
21.66,4.43
21.87,4.46
22.09,4.48
22.31,4.51
22.54,4.54
22.76,4.56
22.99,4.59
23.22,4.61
23.45,4.64
23.69,4.66
23.92,4.68
24.16,4.71
24.40,4.73
24.65,4.76
24.89,4.78
25.14,4.80
25.39,4.83
25.65,4.85
25.91,4.87
26.16,4.90
26.43,4.92
26.69,4.94
26.96,4.97
27.23,4.99
27.50,5.01
27.77,5.03
28.05,5.05
28.33,5.07
28.62,5.09
28.90,5.11
29.19,5.13
29.48,5.15
29.78,5.17
30.08,5.19
30.38,5.21
30.68,5.23
30.99,5.25
31.30,5.26
31.61,5.27
31.93,5.28
32.24,5.29
32.57,5.30
32.89,5.32
33.22,5.33
33.55,5.34
33.89,5.35
34.23,5.36
34.57,5.38
34.92,5.40
35.27,5.41
35.62,5.42
35.97,5.44
36.33,5.45
36.70,5.47
37.06,5.48
37.43,5.49
37.81,5.50
38.19,5.52
38.57,5.54
38.95,5.56
39.34,5.58
39.74,5.60
40.14,5.62
40.54,5.63
40.94,5.65
41.35,5.66
41.76,5.67
42.18,5.68
42.60,5.69
43.03,5.70
43.46,5.71
43.90,5.72
44.33,5.73
44.78,5.75
45.23,5.76
45.68,5.77
46.13,5.78
46.60,5.79
47.06,5.80
47.53,5.81
48.01,5.82
48.49,5.82
48.97,5.83
49.46,5.83
49.96,5.83
50.46,5.83
50.96,5.83
51.47,5.82
51.99,5.81
52.51,5.81
53.03,5.81
53.56,5.81
54.10,5.81
54.64,5.81
55.18,5.81
55.74,5.81
56.29,5.81
56.86,5.81
57.42,5.81
58.00,5.81
58.58,5.81
59.16,5.81
59.76,5.81
60.35,5.81
60.96,5.81
61.57,5.81
62.18,5.81
62.80,5.81
63.43,5.81
64.07,5.81
64.71,5.81
65.35,5.81
66.01,5.81
66.67,5.81
67.33,5.81
68.01,5.81
68.69,5.80
69.37,5.80
70.07,5.79
70.77,5.78
71.48,5.78
72.19,5.79
72.91,5.81
73.64,5.82
74.38,5.84
75.12,5.86
75.87,5.88
76.63,5.89
77.40,5.90
78.17,5.91
78.95,5.92
79.74,5.92
80.54,5.93
81.35,5.93
82.16,5.92
82.98,5.92
83.81,5.91
84.65,5.90
85.50,5.89
86.35,5.87
87.22,5.86
88.09,5.84
88.97,5.81
89.86,5.79
90.76,5.78
91.66,5.79
92.58,5.80
93.51,5.81
94.44,5.81
95.39,5.81
96.34,5.81
97.30,5.81
98.28,5.81
99.26,5.81
100.25,5.81
101.25,5.81
102.27,5.81
103.29,5.81
104.32,5.81
105.37,5.81
106.42,5.81
107.48,5.81
108.56,5.81
109.64,5.81
110.74,5.81
111.85,5.81
112.97,5.81
114.10,5.81
115.24,5.81
116.39,5.81
117.55,5.81
118.73,5.81
119.92,5.81
121.12,5.81
122.33,5.81
123.55,5.81
124.79,5.81
126.03,5.81
127.29,5.81
128.57,5.81
129.85,5.81
131.15,5.81
132.46,5.81
133.79,5.81
135.12,5.82
136.48,5.83
137.84,5.83
139.22,5.82
140.61,5.81
142.02,5.79
143.44,5.78
144.87,5.74
146.32,5.72
147.78,5.68
149.26,5.65
150.75,5.61
152.26,5.58
153.78,5.55
155.32,5.52
156.88,5.49
158.44,5.48
160.03,5.46
161.63,5.46
163.24,5.47
164.88,5.48
166.53,5.48
168.19,5.48
169.87,5.48
171.57,5.48
173.29,5.48
175.02,5.48
176.77,5.48
178.54,5.48
180.32,5.48
182.13,5.48
183.95,5.48
185.79,5.49
187.65,5.49
189.52,5.50
191.42,5.51
193.33,5.50
195.27,5.49
197.22,5.48
199.19,5.46
201.18,5.43
203.19,5.40
205.23,5.37
207.28,5.33
209.35,5.29
211.44,5.26
213.56,5.23
215.69,5.21
217.85,5.19
220.03,5.18
222.23,5.16
224.45,5.14
226.70,5.11
228.96,5.09
231.25,5.07
233.57,5.04
235.90,5.00
238.26,4.98
240.64,4.94
243.05,4.92
245.48,4.90
247.93,4.87
250.41,4.85
252.92,4.82
255.45,4.80
258.00,4.79
260.58,4.76
263.19,4.75
265.82,4.71
268.48,4.68
271.16,4.66
273.87,4.62
276.61,4.60
279.38,4.58
282.17,4.55
284.99,4.51
287.84,4.47
290.72,4.44
293.63,4.42
296.57,4.39
299.53,4.37
302.53,4.34
305.55,4.31
308.61,4.27
311.69,4.24
314.81,4.23
317.96,4.21
321.14,4.20
324.35,4.18
327.59,4.17
330.87,4.16
334.18,4.15
337.52,4.12
340.90,4.10
344.30,4.07
347.75,4.05
351.23,4.02
354.74,3.98
358.28,3.94
361.87,3.89
365.49,3.84
369.14,3.79
372.83,3.75
376.56,3.71
380.33,3.68
384.13,3.67
387.97,3.65
391.85,3.62
395.77,3.58
399.73,3.54
403.72,3.50
407.76,3.46
411.84,3.43
415.96,3.41
420.12,3.38
424.32,3.36
428.56,3.32
432.85,3.28
437.18,3.23
441.55,3.19
445.96,3.15
450.42,3.11
454.93,3.08
459.48,3.04
464.07,3.00
468.71,2.95
473.40,2.90
478.13,2.84
482.91,2.80
487.74,2.75
492.62,2.72
497.55,2.68
502.52,2.66
507.55,2.62
512.62,2.59
517.75,2.54
522.93,2.50
528.16,2.47
533.44,2.44
538.77,2.41
544.16,2.39
549.60,2.35
555.10,2.30
560.65,2.25
566.25,2.22
571.92,2.17
577.64,2.13
583.41,2.08
589.25,2.03
595.14,1.98
601.09,1.93
607.10,1.88
613.17,1.84
619.30,1.79
625.50,1.75
631.75,1.70
638.07,1.65
644.45,1.61
650.89,1.57
657.40,1.53
663.98,1.49
670.62,1.45
677.32,1.41
684.10,1.37
690.94,1.33
697.85,1.28
704.83,1.22
711.87,1.18
718.99,1.14
726.18,1.10
733.44,1.06
740.78,1.03
748.19,0.99
755.67,0.95
763.23,0.90
770.86,0.85
778.57,0.81
786.35,0.78
794.22,0.76
802.16,0.74
810.18,0.72
818.28,0.68
826.46,0.64
834.73,0.60
843.08,0.56
851.51,0.53
860.02,0.50
868.62,0.48
877.31,0.46
886.08,0.43
894.94,0.39
903.89,0.34
912.93,0.29
922.06,0.24
931.28,0.19
940.59,0.15
950.00,0.12
959.50,0.09
969.09,0.07
978.78,0.06
988.57,0.04
998.46,0.01
1008.44,-0.03
1018.53,-0.06
1028.71,-0.09
1039.00,-0.12
1049.39,-0.15
1059.88,-0.17
1070.48,-0.20
1081.19,-0.23
1092.00,-0.26
1102.92,-0.29
1113.95,-0.31
1125.09,-0.33
1136.34,-0.35
1147.70,-0.37
1159.18,-0.40
1170.77,-0.42
1182.48,-0.44
1194.30,-0.46
1206.25,-0.49
1218.31,-0.52
1230.49,-0.56
1242.80,-0.59
1255.22,-0.62
1267.78,-0.65
1280.45,-0.67
1293.26,-0.69
1306.19,-0.70
1319.25,-0.70
1332.45,-0.69
1345.77,-0.67
1359.23,-0.66
1372.82,-0.66
1386.55,-0.66
1400.41,-0.67
1414.42,-0.69
1428.56,-0.72
1442.85,-0.74
1457.28,-0.77
1471.85,-0.80
1486.57,-0.84
1501.43,-0.87
1516.45,-0.91
1531.61,-0.94
1546.93,-0.97
1562.40,-0.99
1578.02,-1.00
1593.80,-1.01
1609.74,-1.01
1625.84,-1.00
1642.10,-1.00
1658.52,-1.01
1675.10,-1.03
1691.85,-1.05
1708.77,-1.08
1725.86,-1.11
1743.12,-1.14
1760.55,-1.18
1778.15,-1.21
1795.94,-1.23
1813.90,-1.26
1832.03,-1.28
1850.36,-1.30
1868.86,-1.33
1887.55,-1.36
1906.42,-1.38
1925.49,-1.39
1944.74,-1.41
1964.19,-1.44
1983.83,-1.47
2003.67,-1.51
2023.71,-1.57
2043.94,-1.63
2064.38,-1.69
2085.03,-1.75
2105.88,-1.82
2126.94,-1.89
2148.20,-1.96
2169.69,-2.04
2191.38,-2.12
2213.30,-2.22
2235.43,-2.33
2257.78,-2.44
2280.36,-2.54
2303.17,-2.65
2326.20,-2.75
2349.46,-2.85
2372.95,-2.96
2396.68,-3.07
2420.65,-3.16
2444.86,-3.25
2469.31,-3.33
2494.00,-3.40
2518.94,-3.46
2544.13,-3.51
2569.57,-3.55
2595.27,-3.58
2621.22,-3.61
2647.43,-3.63
2673.90,-3.63
2700.64,-3.63
2727.65,-3.61
2754.93,-3.59
2782.48,-3.55
2810.30,-3.52
2838.40,-3.48
2866.79,-3.45
2895.46,-3.42
2924.41,-3.38
2953.65,-3.33
2983.19,-3.30
3013.02,-3.27
3043.15,-3.26
3073.58,-3.25
3104.32,-3.25
3135.36,-3.27
3166.72,-3.29
3198.38,-3.34
3230.37,-3.38
3262.67,-3.44
3295.30,-3.50
3328.25,-3.58
3361.53,-3.68
3395.15,-3.79
3429.10,-3.92
3463.39,-4.07
3498.03,-4.23
3533.01,-4.41
3568.34,-4.59
3604.02,-4.78
3640.06,-4.98
3676.46,-5.20
3713.22,-5.43
3750.36,-5.66
3787.86,-5.90
3825.74,-6.15
3864.00,-6.40
3902.64,-6.65
3941.66,-6.89
3981.08,-7.12
4020.89,-7.36
4061.10,-7.60
4101.71,-7.84
4142.73,-8.08
4184.15,-8.31
4226.00,-8.53
4268.26,-8.72
4310.94,-8.90
4354.05,-9.06
4397.59,-9.19
4441.56,-9.31
4485.98,-9.38
4530.84,-9.43
4576.15,-9.43
4621.91,-9.39
4668.13,-9.30
4714.81,-9.15
4761.96,-8.96
4809.58,-8.73
4857.67,-8.48
4906.25,-8.21
4955.31,-7.92
5004.87,-7.63
5054.91,-7.31
5105.46,-7.01
5156.52,-6.72
5208.08,-6.43
5260.16,-6.18
5312.77,-5.95
5365.89,-5.74
5419.55,-5.54
5473.75,-5.37
5528.49,-5.21
5583.77,-5.06
5639.61,-4.94
5696.00,-4.83
5752.96,-4.75
5810.49,-4.69
5868.60,-4.65
5927.28,-4.62
5986.56,-4.62
6046.42,-4.64
6106.89,-4.66
6167.96,-4.70
6229.64,-4.76
6291.93,-4.82
6354.85,-4.90
6418.40,-4.97
6482.58,-5.03
6547.41,-5.09
6612.88,-5.17
6679.01,-5.26
6745.80,-5.35
6813.26,-5.45
6881.39,-5.57
6950.21,-5.71
7019.71,-5.86
7089.91,-6.01
7160.81,-6.15
7232.41,-6.31
7304.74,-6.48
7377.79,-6.65
7451.56,-6.82
7526.08,-6.99
7601.34,-7.18
7677.35,-7.38
7754.13,-7.57
7831.67,-7.76
7909.98,-7.96
7989.08,-8.20
8068.98,-8.46
8149.67,-8.72
8231.16,-9.00
8313.47,-9.31
8396.61,-9.64
8480.57,-10.00
8565.38,-10.38
8651.03,-10.77
8737.54,-11.19
8824.92,-11.64
8913.17,-12.11
9002.30,-12.61
9092.32,-13.13
9183.25,-13.68
9275.08,-14.27
9367.83,-14.87
9461.51,-15.49
9556.12,-16.12
9651.68,-16.75
9748.20,-17.36
9845.68,-17.96
9944.14,-18.54
10043.58,-19.10
10144.02,-19.64
10245.46,-20.15
10347.91,-20.63
10451.39,-21.06
10555.91,-21.49
10661.46,-21.89
10768.08,-22.27
10875.76,-22.65
10984.52,-23.02
11094.36,-23.41
11205.31,-23.79
11317.36,-24.20
11430.53,-24.62
11544.84,-25.04
11660.29,-25.48
11776.89,-25.91
11894.66,-26.34
12013.60,-26.75
12133.74,-27.16
12255.08,-27.55
12377.63,-27.94
12501.41,-28.28
12626.42,-28.60
12752.68,-28.87
12880.21,-29.09
13009.01,-29.26
13139.10,-29.35
13270.49,-29.39
13403.20,-29.35
13537.23,-29.26
13672.60,-29.13
13809.33,-28.96
13947.42,-28.76
14086.90,-28.56
14227.77,-28.34
14370.04,-28.13
14513.74,-27.94
14658.88,-27.80
14805.47,-27.69
14953.52,-27.62
15103.06,-27.60
15254.09,-27.62
15406.63,-27.67
15560.70,-27.73
15716.30,-27.79
15873.47,-27.88
16032.20,-27.98
16192.52,-28.09
16354.45,-28.22
16517.99,-28.42
16683.17,-28.73
16850.01,-29.20
17018.51,-29.85
17188.69,-30.71
17360.58,-31.76
17534.18,-32.97
17709.53,-34.33
17886.62,-35.80
18065.49,-37.35
18246.14,-38.70
18428.60,-40.02
18612.89,-41.39
18799.02,-42.78
18987.01,-44.20
19176.88,-45.66
19368.65,-47.16
19562.33,-48.69
19757.96,-50.26
19955.54,-51.85
