frequency,raw,error,smoothed,error_smoothed,equalization,parametric_eq,equalized_raw,equalized_smoothed,target
20,-5.44,-8.81,-5.38,-8.75,6.00,1.77,0.56,0.62,3.37
21,-4.78,-8.15,-4.84,-8.20,6.00,2.06,1.22,1.16,3.37
22,-4.38,-7.74,-4.31,-7.68,6.00,2.38,1.62,1.69,3.36
23,-3.78,-7.14,-3.80,-7.17,6.00,2.72,2.22,2.20,3.36
24,-3.24,-6.60,-3.31,-6.67,5.91,3.08,2.67,2.60,3.36
25,-2.72,-6.08,-2.84,-6.19,5.73,3.45,3.01,2.90,3.36
26,-2.40,-5.75,-2.38,-5.73,5.48,3.81,3.07,3.10,3.35
27,-1.98,-5.33,-1.94,-5.29,5.17,4.14,3.19,3.23,3.35
28,-1.48,-4.83,-1.51,-4.86,4.82,4.42,3.34,3.31,3.35
29,-1.11,-4.45,-1.11,-4.45,4.45,4.62,3.34,3.34,3.34
30,-0.72,-4.06,-0.72,-4.05,4.05,4.73,3.33,3.34,3.34
31,-0.35,-3.68,-0.34,-3.67,3.67,4.72,3.32,3.33,3.33
32,-0.02,-3.35,0.02,-3.30,3.30,4.61,3.28,3.32,3.32
33,0.37,-2.95,0.37,-2.95,2.95,4.40,3.32,3.32,3.32
34,0.74,-2.57,0.70,-2.61,2.61,4.11,3.35,3.31,3.31
35,0.98,-2.33,1.02,-2.28,2.28,3.77,3.26,3.30,3.30
36,1.38,-1.92,1.33,-1.96,1.96,3.39,3.34,3.30,3.30
37,1.65,-1.64,1.63,-1.66,1.66,3.00,3.30,3.29,3.29
38,1.94,-1.34,1.92,-1.36,1.36,2.59,3.30,3.28,3.28
39,2.16,-1.11,2.20,-1.07,1.07,2.19,3.23,3.27,3.27
40,2.40,-0.86,2.46,-0.79,0.79,1.79,3.19,3.26,3.26
41,2.79,-0.46,2.72,-0.52,0.52,1.39,3.31,3.25,3.25
42,2.92,-0.31,2.97,-0.26,0.26,1.01,3.18,3.23,3.23
43,3.20,-0.02,3.21,-0.01,0.01,0.64,3.21,3.22,3.22
44,3.50,0.29,3.44,0.23,-0.23,0.28,3.27,3.21,3.21
45,3.65,0.46,3.66,0.47,-0.47,-0.08,3.18,3.19,3.19
46,3.85,0.67,3.87,0.70,-0.70,-0.42,3.15,3.18,3.18
47,4.11,0.95,4.08,0.92,-0.92,-0.76,3.19,3.16,3.16
48,4.26,1.12,4.28,1.13,-1.13,-1.08,3.12,3.14,3.14
49,4.46,1.33,4.47,1.34,-1.34,-1.40,3.12,3.13,3.13
50,4.65,1.54,4.65,1.55,-1.55,-1.71,3.10,3.11,3.11
51,4.84,1.75,4.83,1.74,-1.74,-2.02,3.10,3.09,3.09
52,5.05,1.98,5.00,1.93,-1.93,-2.31,3.11,3.07,3.07
53,5.11,2.06,5.16,2.12,-2.12,-2.59,2.99,3.04,3.04
54,5.34,2.32,5.32,2.30,-2.30,-2.85,3.04,3.02,3.02
55,5.41,2.41,5.47,2.47,-2.47,-3.10,2.94,3.00,3.00
56,5.54,2.56,5.61,2.64,-2.64,-3.34,2.90,2.97,2.97
57,5.81,2.86,5.75,2.80,-2.80,-3.55,3.01,2.95,2.95
58,5.91,2.99,5.88,2.96,-2.96,-3.75,2.95,2.92,2.92
59,6.01,3.11,6.00,3.10,-3.10,-3.93,2.91,2.90,2.90
60,6.20,3.33,6.11,3.24,-3.24,-4.09,2.96,2.87,2.87
61,6.21,3.37,6.22,3.38,-3.38,-4.22,2.83,2.84,2.84
62,6.31,3.50,6.31,3.50,-3.50,-4.33,2.80,2.81,2.81
63,6.41,3.63,6.40,3.63,-3.63,-4.43,2.78,2.78,2.78
64,6.41,3.66,6.49,3.74,-3.74,-4.50,2.67,2.75,2.75
65,6.61,3.89,6.56,3.85,-3.85,-4.56,2.76,2.71,2.71
66,6.61,3.93,6.64,3.96,-3.96,-4.60,2.65,2.68,2.68
67,6.71,4.06,6.70,4.06,-4.06,-4.63,2.65,2.65,2.65
68,6.76,4.15,6.77,4.15,-4.15,-4.65,2.61,2.61,2.61
69,6.82,4.24,6.82,4.25,-4.25,-4.65,2.57,2.58,2.58
70,6.92,4.38,6.88,4.34,-4.34,-4.65,2.58,2.54,2.54
71,6.92,4.41,6.93,4.43,-4.43,-4.65,2.49,2.50,2.50
72,7.00,4.53,6.98,4.51,-4.51,-4.64,2.49,2.47,2.47
73,7.02,4.59,7.03,4.60,-4.60,-4.63,2.42,2.43,2.43
74,7.02,4.63,7.07,4.68,-4.68,-4.61,2.34,2.39,2.39
75,7.12,4.77,7.11,4.76,-4.76,-4.60,2.36,2.35,2.35
76,7.12,4.81,7.15,4.84,-4.84,-4.59,2.28,2.31,2.31
77,7.22,4.95,7.19,4.91,-4.91,-4.58,2.30,2.27,2.27
78,7.22,4.99,7.22,4.99,-4.99,-4.58,2.23,2.23,2.23
79,7.27,5.08,7.25,5.06,-5.06,-4.57,2.21,2.19,2.19
80,7.32,5.17,7.28,5.13,-5.13,-4.57,2.19,2.15,2.15
81,7.32,5.21,7.31,5.20,-5.20,-4.58,2.12,2.11,2.11
82,7.32,5.25,7.34,5.27,-5.27,-4.59,2.05,2.07,2.07
83,7.37,5.34,7.36,5.33,-5.33,-4.60,2.03,2.03,2.03
84,7.42,5.43,7.39,5.40,-5.40,-4.62,2.02,1.99,1.99
85,7.42,5.47,7.41,5.47,-5.47,-4.64,1.95,1.95,1.95
86,7.42,5.51,7.44,5.53,-5.53,-4.67,1.89,1.90,1.90
87,7.42,5.56,7.46,5.60,-5.60,-4.71,1.82,1.86,1.86
88,7.42,5.60,7.49,5.67,-5.67,-4.74,1.75,1.82,1.82
89,7.49,5.71,7.51,5.73,-5.73,-4.78,1.76,1.78,1.78
90,7.52,5.78,7.54,5.80,-5.80,-4.83,1.72,1.74,1.74
91,7.52,5.82,7.56,5.86,-5.86,-4.88,1.66,1.70,1.70
92,7.63,5.97,7.58,5.92,-5.92,-4.93,1.71,1.66,1.66
93,7.63,6.01,7.59,5.97,-5.97,-4.99,1.66,1.62,1.61
94,7.63,6.06,7.60,6.02,-6.02,-5.05,1.60,1.57,1.57
95,7.63,6.10,7.60,6.07,-6.07,-5.12,1.56,1.53,1.53
96,7.62,6.13,7.60,6.11,-6.11,-5.18,1.51,1.49,1.49
97,7.62,6.17,7.59,6.14,-6.14,-5.25,1.48,1.45,1.45
98,7.61,6.20,7.57,6.16,-6.16,-5.33,1.45,1.41,1.41
99,7.50,6.13,7.54,6.18,-6.18,-5.40,1.32,1.37,1.37
100,7.48,6.15,7.51,6.19,-6.19,-5.48,1.29,1.32,1.33
101,7.47,6.17,7.48,6.19,-6.19,-5.56,1.27,1.28,1.29
102,7.45,6.19,7.44,6.20,-6.20,-5.63,1.25,1.24,1.26
104,7.42,6.24,7.39,6.19,-6.19,-5.79,1.23,1.20,1.18
105,7.40,6.25,7.34,6.18,-6.18,-5.87,1.21,1.16,1.15
106,7.29,6.18,7.30,6.17,-6.17,-5.95,1.11,1.12,1.11
107,7.22,6.14,7.25,6.16,-6.16,-6.03,1.06,1.08,1.08
108,7.13,6.09,7.20,6.15,-6.15,-6.10,0.98,1.05,1.04
109,7.10,6.09,7.15,6.14,-6.14,-6.17,0.96,1.01,1.01
110,7.09,6.11,7.10,6.12,-6.12,-6.24,0.97,0.98,0.98
111,7.07,6.12,7.05,6.10,-6.10,-6.31,0.96,0.94,0.95
112,7.04,6.12,7.00,6.09,-6.09,-6.37,0.95,0.91,0.92
113,6.95,6.06,6.95,6.07,-6.07,-6.43,0.88,0.88,0.89
114,6.91,6.05,6.90,6.05,-6.05,-6.48,0.85,0.85,0.86
115,6.84,6.01,6.86,6.04,-6.04,-6.53,0.80,0.82,0.83
117,6.81,6.03,6.81,6.02,-6.02,-6.60,0.79,0.79,0.78
118,6.74,5.99,6.76,6.00,-6.00,-6.63,0.74,0.76,0.75
119,6.70,5.97,6.70,5.97,-5.97,-6.65,0.73,0.73,0.73
120,6.65,5.94,6.65,5.95,-5.95,-6.67,0.70,0.70,0.71
121,6.61,5.92,6.60,5.92,-5.92,-6.68,0.69,0.68,0.69
123,6.51,5.87,6.54,5.89,-5.89,-6.67,0.62,0.65,0.64
124,6.48,5.86,6.48,5.85,-5.85,-6.66,0.63,0.63,0.62
125,6.42,5.82,6.42,5.81,-5.81,-6.63,0.61,0.60,0.60
126,6.39,5.80,6.35,5.77,-5.77,-6.61,0.62,0.58,0.59
128,6.30,5.75,6.28,5.72,-5.72,-6.53,0.58,0.56,0.55
129,6.19,5.66,6.20,5.67,-5.67,-6.48,0.52,0.53,0.53
130,6.08,5.56,6.12,5.60,-5.60,-6.42,0.47,0.51,0.51
131,5.99,5.49,6.02,5.53,-5.53,-6.36,0.46,0.49,0.50
133,5.86,5.40,5.92,5.45,-5.45,-6.23,0.41,0.47,0.46
134,5.82,5.37,5.81,5.36,-5.36,-6.15,0.46,0.45,0.45
135,5.77,5.33,5.68,5.26,-5.26,-6.07,0.51,0.43,0.44
137,5.64,5.24,5.55,5.14,-5.14,-5.90,0.49,0.41,0.40
138,5.56,5.17,5.41,5.02,-5.02,-5.81,0.54,0.39,0.39
140,5.33,4.97,5.26,4.90,-4.90,-5.62,0.43,0.36,0.36
141,5.25,4.91,5.11,4.77,-4.77,-5.52,0.48,0.34,0.34
142,5.04,4.71,4.96,4.64,-4.64,-5.42,0.40,0.32,0.33
144,4.76,4.46,4.83,4.52,-4.52,-5.22,0.23,0.30,0.30
145,4.69,4.40,4.70,4.42,-4.42,-5.11,0.27,0.28,0.29
147,4.44,4.18,4.60,4.34,-4.34,-4.90,0.10,0.26,0.26
148,4.34,4.09,4.52,4.28,-4.28,-4.80,0.06,0.24,0.25
150,4.26,4.04,4.46,4.24,-4.24,-4.59,0.02,0.22,0.22
151,4.22,4.01,4.42,4.22,-4.22,-4.49,-0.00,0.20,0.21
153,4.22,4.04,4.41,4.23,-4.23,-4.28,-0.01,0.18,0.18
154,4.22,4.05,4.41,4.24,-4.24,-4.17,-0.02,0.16,0.17
156,4.34,4.20,4.41,4.27,-4.27,-3.97,0.07,0.14,0.14
157,4.47,4.34,4.41,4.29,-4.29,-3.87,0.18,0.13,0.13
159,4.56,4.45,4.41,4.30,-4.30,-3.67,0.26,0.11,0.11
160,4.63,4.53,4.38,4.29,-4.29,-3.57,0.34,0.09,0.10
162,4.58,4.50,4.33,4.25,-4.25,-3.38,0.33,0.07,0.07
164,4.46,4.40,4.24,4.19,-4.19,-3.19,0.27,0.06,0.05
165,4.38,4.33,4.13,4.09,-4.09,-3.10,0.29,0.04,0.05
167,4.11,4.08,3.98,3.95,-3.95,-2.91,0.16,0.03,0.03
169,3.76,3.75,3.80,3.78,-3.78,-2.73,-0.03,0.02,0.01
170,3.63,3.62,3.59,3.59,-3.59,-2.65,0.04,0.00,0.01
172,3.30,3.31,3.37,3.38,-3.38,-2.47,-0.08,-0.01,-0.01
174,2.99,3.01,3.13,3.15,-3.15,-2.30,-0.16,-0.02,-0.02
175,2.86,2.88,2.89,2.91,-2.91,-2.22,-0.05,-0.03,-0.02
177,2.64,2.67,2.64,2.68,-2.68,-2.06,-0.04,-0.03,-0.03
179,2.32,2.36,2.41,2.45,-2.45,-1.90,-0.13,-0.04,-0.04
181,2.11,2.16,2.19,2.23,-2.23,-1.74,-0.12,-0.05,-0.05
183,1.89,1.94,1.98,2.03,-2.03,-1.59,-0.14,-0.05,-0.06
184,1.76,1.81,1.79,1.85,-1.85,-1.52,-0.09,-0.06,-0.05
186,1.58,1.64,1.62,1.68,-1.68,-1.37,-0.10,-0.06,-0.06
188,1.44,1.50,1.47,1.53,-1.53,-1.23,-0.09,-0.06,-0.06
190,1.25,1.31,1.34,1.40,-1.40,-1.09,-0.15,-0.06,-0.06
192,1.12,1.18,1.21,1.28,-1.28,-0.95,-0.16,-0.07,-0.07
194,1.05,1.12,1.10,1.16,-1.16,-0.82,-0.11,-0.07,-0.07
196,1.07,1.14,0.99,1.06,-1.06,-0.69,0.01,-0.07,-0.07
198,1.03,1.10,0.88,0.95,-0.95,-0.56,0.08,-0.07,-0.07
200,0.89,0.96,0.78,0.85,-0.85,-0.44,0.04,-0.07,-0.07
202,0.83,0.90,0.68,0.75,-0.75,-0.31,0.08,-0.07,-0.07
204,0.65,0.72,0.58,0.66,-0.66,-0.19,-0.01,-0.07,-0.07
206,0.51,0.58,0.49,0.56,-0.56,-0.08,-0.05,-0.07,-0.07
208,0.38,0.45,0.39,0.47,-0.47,0.03,-0.09,-0.07,-0.07
210,0.14,0.21,0.30,0.38,-0.38,0.14,-0.24,-0.07,-0.07
212,0.07,0.14,0.21,0.29,-0.29,0.25,-0.22,-0.07,-0.07
214,-0.01,0.06,0.13,0.20,-0.20,0.35,-0.21,-0.07,-0.07
216,-0.01,0.06,0.05,0.12,-0.12,0.45,-0.13,-0.07,-0.07
218,-0.02,0.05,-0.03,0.04,-0.04,0.55,-0.06,-0.07,-0.07
221,-0.04,0.03,-0.11,-0.04,0.04,0.69,-0.00,-0.07,-0.07
223,-0.13,-0.06,-0.20,-0.12,0.12,0.77,-0.01,-0.07,-0.07
225,-0.23,-0.16,-0.28,-0.21,0.21,0.86,-0.02,-0.07,-0.07
227,-0.30,-0.23,-0.37,-0.31,0.31,0.94,0.01,-0.07,-0.07
229,-0.38,-0.32,-0.47,-0.41,0.41,1.01,0.03,-0.06,-0.06
232,-0.55,-0.49,-0.58,-0.52,0.52,1.12,-0.03,-0.06,-0.06
234,-0.67,-0.61,-0.70,-0.64,0.64,1.19,-0.03,-0.06,-0.06
236,-0.74,-0.69,-0.82,-0.77,0.77,1.25,0.02,-0.05,-0.05
239,-0.96,-0.91,-0.95,-0.90,0.90,1.34,-0.06,-0.05,-0.05
241,-1.10,-1.06,-1.08,-1.04,1.04,1.39,-0.06,-0.04,-0.04
244,-1.33,-1.29,-1.22,-1.18,1.18,1.46,-0.15,-0.04,-0.04
246,-1.48,-1.45,-1.36,-1.33,1.33,1.50,-0.15,-0.03,-0.03
248,-1.48,-1.46,-1.50,-1.48,1.48,1.54,-0.00,-0.02,-0.02
251,-1.56,-1.55,-1.64,-1.62,1.62,1.60,0.06,-0.02,-0.02
253,-1.64,-1.63,-1.77,-1.76,1.76,1.63,0.12,-0.01,-0.01
256,-1.81,-1.81,-1.88,-1.88,1.88,1.66,0.07,-0.00,0.00
259,-1.94,-1.95,-1.99,-2.00,2.00,1.70,0.05,0.01,0.01
261,-2.06,-2.08,-2.07,-2.09,2.09,1.71,0.03,0.01,0.02
264,-2.13,-2.15,-2.14,-2.16,2.16,1.74,0.03,0.02,0.02
266,-2.15,-2.18,-2.18,-2.21,2.21,1.75,0.05,0.03,0.03
269,-2.30,-2.34,-2.19,-2.23,2.23,1.76,-0.08,0.04,0.04
272,-2.50,-2.55,-2.17,-2.22,2.22,1.76,-0.28,0.04,0.04
274,-2.56,-2.61,-2.14,-2.19,2.19,1.77,-0.37,0.05,0.05
277,-2.29,-2.35,-2.08,-2.14,2.14,1.77,-0.15,0.06,0.06
280,-2.10,-2.17,-2.01,-2.07,2.07,1.76,-0.03,0.06,0.06
283,-1.91,-1.98,-1.93,-2.00,2.00,1.76,0.09,0.07,0.07
286,-1.62,-1.70,-1.86,-1.94,1.94,1.75,0.32,0.08,0.08
288,-1.65,-1.73,-1.80,-1.88,1.88,1.74,0.23,0.08,0.08
291,-1.63,-1.72,-1.75,-1.84,1.84,1.73,0.21,0.09,0.09
294,-1.48,-1.58,-1.73,-1.83,1.83,1.71,0.34,0.10,0.10
297,-1.34,-1.44,-1.73,-1.84,1.84,1.70,0.49,0.10,0.10
300,-1.47,-1.58,-1.77,-1.87,1.87,1.68,0.40,0.11,0.11
303,-1.72,-1.83,-1.82,-1.93,1.93,1.67,0.21,0.11,0.11
306,-1.94,-2.06,-1.89,-2.01,2.01,1.65,0.07,0.12,0.12
309,-2.17,-2.29,-1.98,-2.10,2.10,1.63,-0.07,0.12,0.12
312,-2.18,-2.31,-2.07,-2.20,2.20,1.62,0.02,0.13,0.13
316,-2.35,-2.48,-2.17,-2.30,2.30,1.60,-0.05,0.13,0.13
319,-2.37,-2.51,-2.25,-2.39,2.39,1.58,0.02,0.14,0.14
322,-2.42,-2.56,-2.32,-2.46,2.46,1.57,0.04,0.14,0.14
325,-2.45,-2.60,-2.37,-2.52,2.52,1.55,0.07,0.15,0.15
328,-2.46,-2.61,-2.40,-2.56,2.56,1.54,0.10,0.15,0.15
332,-2.46,-2.62,-2.42,-2.57,2.57,1.52,0.11,0.16,0.16
335,-2.46,-2.62,-2.41,-2.57,2.57,1.51,0.11,0.16,0.16
338,-2.29,-2.46,-2.39,-2.56,2.56,1.50,0.26,0.17,0.17
342,-2.30,-2.47,-2.36,-2.52,2.52,1.49,0.22,0.17,0.17
345,-2.28,-2.45,-2.31,-2.48,2.48,1.48,0.20,0.17,0.17
349,-2.22,-2.40,-2.26,-2.43,2.43,1.47,0.21,0.17,0.17
352,-2.16,-2.34,-2.20,-2.37,2.37,1.47,0.21,0.18,0.18
356,-2.24,-2.42,-2.14,-2.32,2.32,1.46,0.07,0.18,0.18
359,-2.20,-2.38,-2.08,-2.26,2.26,1.46,0.06,0.18,0.18
363,-1.85,-2.03,-2.01,-2.20,2.20,1.45,0.35,0.18,0.18
366,-1.84,-2.03,-1.95,-2.14,2.14,1.45,0.30,0.18,0.18
370,-1.93,-2.12,-1.90,-2.08,2.08,1.45,0.15,0.18,0.19
374,-1.82,-2.01,-1.84,-2.03,2.03,1.45,0.21,0.19,0.19
377,-1.82,-2.01,-1.79,-1.98,1.98,1.46,0.16,0.19,0.19
381,-1.71,-1.90,-1.74,-1.93,1.93,1.46,0.22,0.19,0.19
385,-1.80,-2.00,-1.69,-1.89,1.89,1.46,0.09,0.20,0.20
389,-1.74,-1.94,-1.65,-1.85,1.85,1.47,0.11,0.20,0.20
393,-1.39,-1.60,-1.60,-1.81,1.81,1.48,0.42,0.21,0.21
397,-1.46,-1.68,-1.56,-1.78,1.78,1.49,0.32,0.21,0.21
401,-1.51,-1.73,-1.53,-1.75,1.75,1.49,0.24,0.22,0.22
405,-1.59,-1.83,-1.49,-1.73,1.73,1.50,0.14,0.24,0.23
409,-1.49,-1.74,-1.45,-1.70,1.70,1.52,0.21,0.25,0.25
413,-1.40,-1.67,-1.41,-1.68,1.68,1.53,0.28,0.27,0.27
417,-1.40,-1.69,-1.37,-1.66,1.66,1.54,0.26,0.29,0.28
421,-1.23,-1.54,-1.33,-1.64,1.64,1.55,0.41,0.31,0.31
425,-1.26,-1.59,-1.29,-1.62,1.62,1.56,0.36,0.34,0.33
430,-1.38,-1.74,-1.24,-1.60,1.60,1.58,0.22,0.37,0.36
434,-1.27,-1.66,-1.18,-1.58,1.58,1.59,0.31,0.40,0.39
438,-1.13,-1.56,-1.12,-1.55,1.55,1.60,0.42,0.43,0.43
443,-1.10,-1.56,-1.06,-1.53,1.53,1.62,0.42,0.47,0.46
447,-0.94,-1.44,-0.99,-1.50,1.50,1.63,0.56,0.50,0.50
451,-0.80,-1.34,-0.92,-1.47,1.47,1.65,0.67,0.54,0.54
456,-0.84,-1.42,-0.85,-1.44,1.44,1.66,0.59,0.58,0.58
460,-0.78,-1.40,-0.78,-1.40,1.40,1.67,0.62,0.62,0.62
465,-0.72,-1.38,-0.71,-1.37,1.37,1.69,0.65,0.66,0.66
470,-0.76,-1.46,-0.64,-1.34,1.34,1.70,0.58,0.70,0.70
474,-0.70,-1.44,-0.57,-1.31,1.31,1.71,0.61,0.74,0.74
479,-0.45,-1.23,-0.51,-1.29,1.29,1.72,0.84,0.78,0.78
484,-0.40,-1.21,-0.46,-1.26,1.26,1.73,0.86,0.81,0.81
489,-0.36,-1.20,-0.41,-1.25,1.25,1.74,0.88,0.84,0.84
494,-0.33,-1.20,-0.37,-1.23,1.23,1.74,0.90,0.87,0.87
499,-0.30,-1.20,-0.33,-1.22,1.22,1.75,0.92,0.89,0.89
504,-0.27,-1.18,-0.31,-1.22,1.22,1.75,0.95,0.91,0.91
509,-0.25,-1.18,-0.30,-1.22,1.22,1.76,0.97,0.92,0.93
514,-0.24,-1.18,-0.30,-1.23,1.23,1.76,0.99,0.93,0.94
519,-0.41,-1.36,-0.31,-1.24,1.24,1.76,0.83,0.94,0.94
524,-0.42,-1.37,-0.32,-1.26,1.26,1.76,0.84,0.94,0.95
529,-0.35,-1.30,-0.35,-1.29,1.29,1.76,0.94,0.94,0.95
535,-0.37,-1.31,-0.39,-1.32,1.32,1.76,0.95,0.94,0.94
540,-0.40,-1.33,-0.43,-1.36,1.36,1.76,0.96,0.93,0.93
545,-0.44,-1.36,-0.48,-1.41,1.41,1.76,0.96,0.92,0.92
551,-0.49,-1.40,-0.54,-1.45,1.45,1.76,0.96,0.91,0.91
556,-0.49,-1.39,-0.60,-1.50,1.50,1.76,1.01,0.90,0.90
562,-0.49,-1.38,-0.66,-1.56,1.56,1.75,1.07,0.89,0.89
568,-0.84,-1.72,-0.73,-1.61,1.61,1.75,0.77,0.88,0.88
573,-0.99,-1.86,-0.79,-1.66,1.66,1.75,0.67,0.88,0.87
579,-0.94,-1.81,-0.85,-1.72,1.72,1.75,0.78,0.87,0.87
585,-0.95,-1.81,-0.90,-1.77,1.77,1.75,0.82,0.87,0.86
591,-0.96,-1.82,-0.95,-1.81,1.81,1.74,0.85,0.87,0.86
596,-0.96,-1.83,-0.99,-1.86,1.86,1.74,0.90,0.87,0.87
602,-0.86,-1.73,-1.02,-1.90,1.90,1.74,1.04,0.88,0.87
608,-0.94,-1.83,-1.04,-1.93,1.93,1.74,0.99,0.89,0.88
615,-1.24,-2.14,-1.06,-1.97,1.97,1.75,0.72,0.91,0.90
621,-1.17,-2.09,-1.07,-1.99,1.99,1.75,0.82,0.92,0.92
627,-1.09,-2.03,-1.07,-2.02,2.02,1.75,0.93,0.95,0.94
633,-0.97,-1.94,-1.07,-2.04,2.04,1.76,1.07,0.97,0.97
639,-0.97,-1.97,-1.05,-2.05,2.05,1.76,1.08,1.00,0.99
646,-1.09,-2.12,-1.04,-2.06,2.06,1.77,0.97,1.03,1.03
652,-1.05,-2.11,-1.01,-2.07,2.07,1.78,1.02,1.06,1.06
659,-1.00,-2.09,-0.98,-2.07,2.07,1.79,1.07,1.09,1.09
665,-0.95,-2.08,-0.94,-2.06,2.06,1.80,1.11,1.12,1.13
672,-0.84,-2.00,-0.90,-2.06,2.06,1.82,1.21,1.16,1.16
679,-0.83,-2.03,-0.85,-2.04,2.04,1.84,1.21,1.19,1.19
686,-0.96,-2.19,-0.80,-2.03,2.03,1.85,1.07,1.22,1.23
692,-0.79,-2.05,-0.75,-2.01,2.01,1.87,1.22,1.26,1.26
699,-0.74,-2.03,-0.71,-1.99,1.99,1.89,1.25,1.29,1.29
706,-0.56,-1.88,-0.66,-1.98,1.98,1.91,1.42,1.31,1.32
713,-0.57,-1.92,-0.62,-1.96,1.96,1.94,1.39,1.34,1.34
721,-0.68,-2.05,-0.59,-1.96,1.96,1.96,1.27,1.37,1.37
728,-0.43,-1.82,-0.57,-1.95,1.95,1.99,1.52,1.39,1.39
735,-0.40,-1.81,-0.55,-1.96,1.96,2.02,1.56,1.41,1.41
742,-0.49,-1.92,-0.54,-1.97,1.97,2.05,1.48,1.43,1.43
750,-0.52,-1.97,-0.54,-1.98,1.98,2.08,1.46,1.44,1.44
757,-0.55,-2.01,-0.54,-2.00,2.00,2.11,1.45,1.46,1.46
765,-0.57,-2.04,-0.55,-2.02,2.02,2.15,1.45,1.47,1.47
773,-0.59,-2.07,-0.56,-2.04,2.04,2.18,1.45,1.48,1.48
780,-0.60,-2.09,-0.57,-2.06,2.06,2.22,1.46,1.49,1.49
788,-0.60,-2.10,-0.57,-2.07,2.07,2.26,1.47,1.50,1.50
796,-0.64,-2.15,-0.57,-2.08,2.08,2.29,1.44,1.51,1.51
804,-0.66,-2.18,-0.57,-2.09,2.09,2.33,1.43,1.52,1.52
812,-0.60,-2.13,-0.56,-2.09,2.09,2.37,1.49,1.53,1.52
820,-0.49,-2.02,-0.55,-2.09,2.09,2.41,1.59,1.53,1.53
828,-0.49,-2.03,-0.54,-2.08,2.08,2.44,1.58,1.54,1.54
837,-0.53,-2.08,-0.52,-2.06,2.06,2.48,1.53,1.55,1.55
845,-0.53,-2.08,-0.49,-2.05,2.05,2.52,1.51,1.55,1.55
853,-0.39,-1.95,-0.47,-2.03,2.03,2.55,1.64,1.56,1.56
862,-0.40,-1.97,-0.44,-2.01,2.01,2.59,1.61,1.57,1.57
871,-0.42,-2.00,-0.42,-1.99,1.99,2.62,1.57,1.57,1.57
879,-0.43,-2.01,-0.39,-1.97,1.97,2.65,1.54,1.58,1.58
888,-0.35,-1.94,-0.36,-1.95,1.95,2.67,1.60,1.59,1.59
897,-0.33,-1.93,-0.34,-1.94,1.94,2.69,1.61,1.60,1.60
906,-0.33,-1.94,-0.31,-1.92,1.92,2.71,1.59,1.61,1.61
915,-0.28,-1.90,-0.29,-1.90,1.90,2.73,1.62,1.62,1.62
924,-0.24,-1.87,-0.26,-1.89,1.89,2.73,1.65,1.63,1.63
933,-0.24,-1.88,-0.24,-1.87,1.87,2.74,1.63,1.64,1.64
943,-0.20,-1.85,-0.21,-1.86,1.86,2.74,1.66,1.65,1.65
952,-0.14,-1.80,-0.18,-1.84,1.84,2.73,1.70,1.66,1.66
962,-0.14,-1.82,-0.15,-1.82,1.82,2.71,1.68,1.67,1.67
971,-0.13,-1.82,-0.11,-1.80,1.80,2.69,1.67,1.69,1.69
981,-0.12,-1.83,-0.07,-1.78,1.78,2.66,1.66,1.71,1.70
991,-0.08,-1.80,-0.03,-1.76,1.76,2.63,1.67,1.72,1.72
1001,0.01,-1.73,0.01,-1.73,1.73,2.58,1.74,1.74,1.74
1011,0.06,-1.70,0.06,-1.70,1.70,2.53,1.76,1.76,1.76
1021,0.15,-1.63,0.11,-1.68,1.68,2.48,1.82,1.79,1.78
1031,0.18,-1.63,0.16,-1.65,1.65,2.41,1.83,1.81,1.81
1041,0.21,-1.62,0.22,-1.62,1.62,2.34,1.83,1.83,1.83
1052,0.25,-1.61,0.28,-1.59,1.59,2.26,1.84,1.86,1.86
1062,0.32,-1.57,0.33,-1.56,1.56,2.18,1.88,1.89,1.89
1073,0.43,-1.49,0.39,-1.53,1.53,2.08,1.96,1.92,1.92
1084,0.48,-1.47,0.46,-1.50,1.50,1.98,1.98,1.95,1.95
1094,0.53,-1.45,0.52,-1.47,1.47,1.88,2.00,1.98,1.98
1105,0.59,-1.43,0.58,-1.44,1.44,1.77,2.03,2.02,2.02
1116,0.65,-1.40,0.65,-1.41,1.41,1.66,2.05,2.05,2.05
1128,0.72,-1.36,0.71,-1.37,1.37,1.53,2.09,2.08,2.08
1139,0.80,-1.32,0.78,-1.34,1.34,1.40,2.13,2.12,2.12
1150,0.88,-1.27,0.86,-1.30,1.30,1.28,2.18,2.15,2.15
1162,0.87,-1.32,0.93,-1.25,1.25,1.14,2.12,2.18,2.18
1173,0.96,-1.26,1.01,-1.21,1.21,1.01,2.16,2.22,2.22
1185,1.06,-1.19,1.09,-1.15,1.15,0.87,2.21,2.25,2.25
1197,1.16,-1.12,1.18,-1.09,1.09,0.72,2.25,2.27,2.28
1209,1.28,-1.02,1.27,-1.03,1.03,0.58,2.31,2.30,2.30
1221,1.40,-0.93,1.36,-0.96,0.96,0.43,2.36,2.32,2.33
1233,1.52,-0.83,1.46,-0.89,0.89,0.28,2.41,2.35,2.35
1246,1.59,-0.78,1.56,-0.81,0.81,0.12,2.40,2.36,2.37
1258,1.68,-0.70,1.65,-0.72,0.72,-0.02,2.40,2.38,2.38
1271,1.73,-0.67,1.76,-0.64,0.64,-0.19,2.36,2.39,2.39
1283,1.82,-0.59,1.86,-0.54,0.54,-0.33,2.36,2.40,2.40
1296,1.90,-0.51,1.96,-0.44,0.44,-0.49,2.34,2.41,2.41
1309,2.07,-0.35,2.07,-0.34,0.34,-0.66,2.41,2.41,2.41
1322,2.23,-0.19,2.18,-0.23,0.23,-0.82,2.46,2.41,2.41
1335,2.39,-0.02,2.29,-0.12,0.12,-0.98,2.50,2.41,2.41
1349,2.43,0.02,2.41,0.00,-0.00,-1.15,2.43,2.41,2.41
1362,2.45,0.05,2.53,0.13,-0.13,-1.31,2.32,2.40,2.40
1376,2.61,0.21,2.65,0.26,-0.26,-1.48,2.35,2.39,2.40
1390,2.77,0.38,2.78,0.39,-0.39,-1.65,2.38,2.39,2.39
1404,2.91,0.53,2.91,0.53,-0.53,-1.82,2.38,2.38,2.38
1418,3.05,0.68,3.04,0.67,-0.67,-1.99,2.38,2.37,2.37
1432,3.18,0.82,3.18,0.82,-0.82,-2.16,2.36,2.36,2.36
1446,3.30,0.95,3.32,0.97,-0.97,-2.34,2.33,2.35,2.35
1461,3.55,1.20,3.47,1.12,-1.12,-2.52,2.43,2.35,2.35
1475,3.71,1.36,3.62,1.27,-1.27,-2.69,2.44,2.35,2.34
1490,3.70,1.36,3.77,1.43,-1.43,-2.87,2.27,2.35,2.34
1505,3.78,1.43,3.94,1.59,-1.59,-3.05,2.19,2.35,2.35
1520,4.13,1.78,4.10,1.75,-1.75,-3.23,2.38,2.35,2.35
1535,4.30,1.94,4.27,1.91,-1.91,-3.41,2.39,2.36,2.36
1550,4.44,2.06,4.45,2.07,-2.07,-3.59,2.37,2.38,2.38
1566,4.66,2.26,4.63,2.23,-2.23,-3.78,2.43,2.40,2.39
1582,4.83,2.41,4.82,2.39,-2.39,-3.97,2.44,2.42,2.42
1597,5.03,2.58,5.01,2.55,-2.55,-4.15,2.47,2.45,2.45
1613,5.18,2.70,5.20,2.71,-2.71,-4.34,2.47,2.49,2.48
1629,5.39,2.87,5.40,2.87,-2.87,-4.53,2.52,2.53,2.52
1646,5.60,3.03,5.60,3.02,-3.02,-4.72,2.57,2.57,2.57
1662,5.75,3.13,5.80,3.17,-3.17,-4.90,2.57,2.62,2.62
1679,5.97,3.29,6.00,3.32,-3.32,-5.09,2.65,2.68,2.68
1696,6.23,3.49,6.20,3.46,-3.46,-5.28,2.77,2.74,2.74
1713,6.45,3.64,6.40,3.60,-3.60,-5.46,2.85,2.81,2.81
1730,6.63,3.75,6.61,3.73,-3.73,-5.63,2.90,2.88,2.88
1747,6.85,3.90,6.81,3.86,-3.86,-5.80,2.99,2.95,2.95
1764,7.09,4.06,7.02,3.98,-3.98,-5.97,3.11,3.03,3.03
1782,7.30,4.18,7.22,4.11,-4.11,-6.13,3.19,3.12,3.12
1800,7.39,4.18,7.44,4.23,-4.23,-6.28,3.16,3.21,3.21
1818,7.68,4.38,7.66,4.36,-4.36,-6.43,3.32,3.30,3.30
1836,7.92,4.53,7.89,4.50,-4.50,-6.56,3.42,3.39,3.39
1854,8.09,4.60,8.14,4.65,-4.65,-6.68,3.44,3.49,3.49
1873,8.34,4.75,8.40,4.81,-4.81,-6.79,3.53,3.59,3.59
1892,8.58,4.89,8.67,4.98,-4.98,-6.89,3.60,3.69,3.69
1911,8.79,4.99,8.95,5.16,-5.16,-6.97,3.63,3.79,3.80
1930,9.03,5.13,9.25,5.35,-5.35,-7.03,3.68,3.90,3.90
1949,9.35,5.34,9.55,5.54,-5.54,-7.07,3.81,4.01,4.01
1969,9.87,5.75,9.86,5.74,-5.74,-7.10,4.13,4.12,4.12
1988,10.33,6.09,10.17,5.93,-5.93,-7.10,4.40,4.23,4.24
