frequency,raw,error,smoothed,error_smoothed,equalization,equalized_raw,equalized_smoothed,target
20,-4.7785514514196255,-5.564437652265493,-4.784113125235406,-5.569983978855126,5.569983978855125,0.7914325274354992,0.785870853619719,0.785886200845868
21,-4.459936515740722,-5.245803764349003,-4.433631032030215,-5.2195006348901,5.219500634890099,0.7595641191493767,0.7858696028598837,0.7858672486082812
22,-4.0625910762302295,-4.848433532866663,-4.092056084160596,-4.877910855201883,4.877910855201882,0.8153197789716522,0.7858547710412855,0.7858424566364333
23,-3.754304465498314,-4.540114884199772,-3.7593882816265483,-4.545214639790477,4.545214639790477,0.7909101742921631,0.7858263581639289,0.7858104187014585
24,-3.4525803275672744,-4.238349803221407,-3.4356276244280677,-4.221411988655876,4.221411988655875,0.7688316610886008,0.7857843642278075,0.7857694756541327
25,-3.134255234415188,-3.9199729183938543,-3.1202605525962186,-3.905990818163864,3.9059908181638647,0.7717355837486766,0.7857302655676461,0.7857176839786661
26,-2.7568590267025495,-3.5425118087516574,-2.813923335425216,-3.5995859430427464,3.5995859430427464,0.8427269163401969,0.7856626076175304,0.7856527820491079
27,-2.5920188457170887,-3.377590999754629,-2.5171856564737536,-3.3027654782019766,3.3027654782019766,0.7107466324848879,0.785579821728223,0.7855721540375402
28,-2.244144494453029,-3.02961728588174,-2.2307900261091915,-3.016269350384759,3.0162693503847584,0.7721248559317293,0.7854793242755669,0.785472791428711
29,-1.9208326732604373,-2.7061839253618896,-1.955504370958887,-2.7408618665955,2.7408618665955005,0.8200291933350632,0.7853574956366134,0.7853512521014525
30,-1.6422354999810507,-2.4274391169260627,-1.6917551397134196,-2.4769653965788825,2.4769653965788834,0.8347298965978327,0.7852102568654638,0.7852036169450121
31,-1.4163854752090785,-2.2014109191958973,-1.4396173509524033,-2.2246502134671973,2.2246502134671964,0.8082647382581178,0.7850328625147931,0.785025443986819
32,-1.2332756477900269,-2.018087367808613,-1.1987219232939992,-1.9835419822664342,1.9835419822664337,0.7502663344764069,0.7848200589724346,0.784811720018586
33,-1.0159409025142287,-1.80049771223401,-0.9683074102110549,-1.7528734933939383,1.7528734933939383,0.7369325908797095,0.7845660831828833,0.7845568097197813
34,-0.7370630861879464,-1.5213174884797602,-0.7473812093408232,-1.531645768062196,1.5316457680621955,0.7945826818742492,0.7842645587213724,0.7842544022918139
35,-0.5000432054999672,-1.2839406611330473,-0.5349010643492327,-1.3188095106506024,1.3188095106506026,0.8187663051506354,0.7839084463013699,0.7838974556330802
36,-0.3295473209920711,-1.113025459096704,-0.3299821411308531,-1.1134720821979478,1.1134720821979478,0.7839247612058766,0.7834899410670947,0.7834781381046327
37,-0.13361481032587746,-0.9166025782849412,-0.132058388175294,-0.9150587758214255,0.9150587758214253,0.7814439654955478,0.7830003876461312,0.7829877679590638
38,0.03984540982681966,-0.7425713407048563,0.05903782136907348,-0.7233923888671716,0.7233923888671718,0.7632377986939914,0.7824302102362453,0.7824167505316759
39,0.1892164343697575,-0.5925380789537007,0.24309529928361495,-0.5386735426754174,0.5386735426754176,0.727889977045175,0.7817688419590325,0.7817545133234582
40,0.44023369036092763,-0.34075574877950876,0.4196490614765067,-0.3613556013759197,0.3613556013759196,0.8015892917368472,0.7810046628524263,0.7809894391404364
41,0.6891360952909195,-0.09097270220294995,0.5881829519341052,-0.19194198386690248,0.19194198386690248,0.8810780791578219,0.7801249358010076,0.7801087974938694
42,0.6876307692355035,-0.09146790527568993,0.7483593972749847,-0.03075634188673087,0.030756341886730886,0.7183871111222344,0.7791157391617156,0.7790986745111934
43,0.8520173735836475,0.07407347192472524,0.9002089882770243,0.12224709108182125,-0.12224709108182123,0.7297702825018263,0.7779618971952031,0.7779439016589222
44,1.0810134903141901,0.30438550667779163,1.044213427795782,0.2675665201099402,-0.26756652010994014,0.8134469702042499,0.7766469076858418,0.7766279836363985
45,1.2588367179830176,0.48370369211917685,1.1812435962804255,0.4060907275108369,-0.40609072751083686,0.8527459904721807,0.7751528687695887,0.7751330258638407
46,1.2743077943261008,0.5008681322662576,1.3123619059033418,0.5389014999688646,-0.5389014999688645,0.7354062943572363,0.7734604059344773,0.7734396620598432
47,1.4419420388230768,0.6704150563402704,1.4385498692168412,0.667001269364671,-0.6670012693646709,0.774940769458406,0.7715485998521704,0.7715269824828064
48,1.4554656493405433,0.6860931858427239,1.5604564641340528,0.7910615483012933,-0.7910615483012934,0.66440410103925,0.7693949158327594,0.7693724634978194
49,1.676730017189092,0.9097781179635804,1.6782617324577784,0.9112865970146632,-0.911286597014663,0.765443420174429,0.7669751354431155,0.7669518992255115
50,1.8911928554415027,1.126953519309322,1.79170910555802,1.0274458144895977,-1.0274458144895975,0.8637470409519052,0.7642632910684226,0.7642393361321806
51,1.8778794432710586,1.1166724317401506,1.9002935163982118,1.1390619120287677,-1.1390619120287677,0.7388175312422909,0.761231604369444,0.761207011530908
52,2.001939965722967,1.244114668642101,2.003528352499878,1.24567792278307,-1.2456779227830699,0.7562620429398972,0.757850429716808,0.7578252970808661
53,2.061891406315979,1.30782875782021,2.101182556294427,1.347094352445664,-1.3470943524456644,0.7147970538703143,0.7540882038487626,0.7540626484957689
54,2.2812145012100493,1.5313289384087665,2.1933938396155677,1.4434824365075611,-1.4434824365075611,0.8377320647024882,0.7499114031080065,0.7498855628012828
55,2.280178288167017,1.5349197435533917,2.2806190852216224,1.5353345754837933,-1.5353345754837933,0.7448437126832239,0.7452845097378291,0.7452585446136255
56,2.2600633387987794,1.5199192557534094,2.3634541241662888,1.6232841353147958,-1.6232841353147962,0.6367792034839832,0.7401699888514925,0.74014408304537
57,2.501328003823628,1.7668253628464825,2.4424097736856103,1.707881495867427,-1.7078814958674264,0.7934465079562016,0.7345282778181839,0.7345026409771456
58,2.461212759723622,1.7329201011615076,2.5177458967853,1.7894281068442794,-1.7894281068442794,0.6717846528793425,0.7283177899410205,0.7282926585621143
59,2.636496210527653,1.9150256375776507,2.589434919845849,1.867939985421852,-1.867939985421852,0.7685562251058009,0.7214949344239971,0.7214705729500022
60,2.685007500935345,1.9710166446109798,2.6572658267634464,1.9432516720320845,-1.9432516720320847,0.7417558289032602,0.7140141547313616,0.7139908563243651
61,2.682477265672156,1.976671191236802,2.7210377470803007,2.0152097595490837,-2.015209759549084,0.6672675061230717,0.7058279875312166,0.7058060744353538
62,2.783052058992885,2.086185091118534,2.7807547228648124,2.08386757838692,-2.08386757838692,0.699184480605965,0.6968871444778926,0.6968669678743509
63,2.8836268108829683,2.196504252513314,2.836734856838996,2.149594237722229,-2.14959423772223,0.7340325731607384,0.6871406191167662,0.6871225583696545
64,2.8836267269947116,2.207106444618441,2.8895844392515055,2.213048618031775,-2.2130486180317757,0.6705781089629359,0.6765358212197299,0.6765202823762704
65,2.8836264206106264,2.2186202664308183,2.9400429428956363,2.2750242022573732,-2.2750242022573732,0.6086022183532531,0.665018740638263,0.665006154179808
66,2.984200528608805,2.3316755679829364,2.988755445359698,2.3362213023891165,-2.336221302389118,0.6479792262196873,0.65253414297058,0.6525249606258687
67,3.081143178209517,2.442122688796031,3.0360552798244393,2.397029480597854,-2.397029480597853,0.684113697611664,0.6390257992265864,0.6390204894134861
68,3.084773392127146,2.460337599481681,3.081833881629783,2.4573971309983955,-2.457397130998396,0.6273762611287501,0.624436750631387,0.6244357926454649
69,3.0646578685137036,2.455944381511903,3.125543052424939,2.5168334434443658,-2.5168334434443658,0.5478244250693378,0.6087096089805732,0.6087134870018005
70,3.185348072034052,2.593551980546612,3.1663312044745533,2.574544310405958,-2.574544310405958,0.6108037616280937,0.5917868940685951,0.5917960914874398
71,3.1853506844212522,2.611724281224439,3.2032764997198897,2.629665088112888,-2.629665088112888,0.5556855963083644,0.5736114116070019,0.5736264031968132
72,3.290401514130633,2.7362536031996814,3.2356567938549157,2.6815301197657595,-2.681530119765759,0.6088713943648738,0.5541266740891566,0.5541479109309515
73,3.2964132144074214,2.763107968609656,3.2631917362282685,2.729914376579956,-2.729914376579956,0.5664988378274654,0.5332773596483125,0.5333052457977656
74,3.2859508325835303,2.7749061654592326,3.2862022620419236,2.7751924640273087,-2.7751924640273087,0.5107583685562216,0.5110097980146149,0.5110446671242976
75,3.274957719914672,2.787643138796689,3.3056492616967885,2.818376793744945,-2.8183767937449447,0.45658092616972734,0.48727246795184387,0.4873145811179831
76,3.2658523288119117,2.8037862400688742,3.323032482577714,2.861015985383198,-2.8610159853831982,0.40483634342871344,0.462016497194516,0.46206608874303745
77,3.3865351537919177,2.9512815955477154,3.3401535548158856,2.9049573646244093,-2.90495736462441,0.48157778916750793,0.4351961901914758,0.4352535582442023
78,3.386507383199453,2.9796721665246455,3.358775682475178,2.9520060227914766,-2.952006022791476,0.4345013604079768,0.40676965968370205,0.4068352166748075
79,3.3864508066944548,3.0096770529976253,3.3802460936061527,3.0035464485400025,-3.0035464485400034,0.38290435815445134,0.3766996450661493,0.3767737536968294
80,3.3863613536375095,3.0413244237875183,3.4051753942507954,3.0602209032538124,-3.0602209032538124,0.3261404503836971,0.34495449099698305,0.3450369298499911
81,3.3847153355235773,3.0731171550506953,3.433274501783388,3.1217654732927027,-3.121765473292703,0.26294986223087413,0.31150902849068496,0.311598180472882
82,3.386111043393899,3.109673837850482,3.4634209401102614,3.187076054274774,-3.1870760542747747,0.1990349891191241,0.27634488583548666,0.276437205543417
83,3.5308875833510776,3.2913470484175904,3.493960722319436,3.2545109664418663,-3.2545109664418668,0.2763766169092108,0.23944975587756945,0.23954053493348715
84,3.588397999563776,3.387495941574498,3.523168616994486,3.3223530022048875,-3.322353002204889,0.266044997358887,0.20081561478959697,0.20090205798927796
85,3.587183527478723,3.426660021479432,3.549721671140345,3.3892847678000275,-3.3892847678000275,0.1978987596786954,0.16043690334031746,0.16052350599929088
86,3.5874670460141314,3.469052169975946,3.573022402770997,3.454711552973478,-3.4547115529734773,0.13275549304065404,0.1183108497975196,0.11841487603818557
87,3.588016575413589,3.513421790502095,3.5932556662295863,3.5188131482884653,-3.5188131482884653,0.06920342712512362,0.074442517941121,0.07459478491149385
88,3.5888754551801445,3.5597847126791757,3.6111626043545213,3.582306792812888,-3.5823067928128887,0.00656866236725584,0.028855811541632637,0.02909074250096877
89,3.5900439685550913,3.608104633816921,3.6276263864576777,3.6460181542667787,-3.6460181542667787,-0.05597418571168733,-0.01839176780910101,-0.01806066526182981
90,3.5914579260906376,3.6582716183737873,3.6432389606883557,3.7104363292142923,-3.7104363292142923,-0.11897840312365471,-0.06719736852593661,-0.0668136922831497
91,3.6935449015343957,3.810658355454805,3.658021831394155,3.7754361060365786,-3.7754361060365778,-0.08189120450218201,-0.11741427464242271,-0.11711345392040906
92,3.6949138058393682,3.86380986508805,3.6714044299123785,3.8402806977892947,-3.8402806977892943,-0.14536689194992602,-0.1688762678769158,-0.16889605924868167
93,3.6958021106200696,3.917890967323794,3.6824513741249714,3.9038991636855234,-3.903899163685524,-0.20809705306545423,-0.22144778956055244,-0.22208885670372425
94,3.6957889997418483,3.9723997931575292,3.690224645659674,3.9653153796125844,-3.965315379612585,-0.2695263798707366,-0.27509073395291095,-0.27661079341568096
95,3.6943959392951893,4.026768825302302,3.6941141095771375,4.0240396633937445,-4.024039663393744,-0.32964372409855436,-0.32992555381660615,-0.33237288600711246
96,3.691125077735031,4.080403875777632,3.6939901629280367,4.080246871887381,-4.08024687188738,-0.38912179415234904,-0.38625670895934316,-0.38927879804260135
97,3.6855067440704885,4.1327322608465655,3.6901147227275057,4.134650963924706,-4.134650963924706,-0.4491442198542175,-0.44453624119720025,-0.447225516776077
98,3.6771508484809434,4.183254967920756,3.6828551130583618,4.188111534126109,-4.18811153412611,-0.5109606856451663,-0.5052564210677479,-0.5061041194398124
99,3.6657959724727096,4.231596589619281,3.672334330944839,4.2411233841572695,-4.2411233841572695,-0.5753274116845599,-0.5687890532124307,-0.5658006171465715
100,3.6513498673262164,4.277546729942809,3.658184234678517,4.2933995555230995,-4.2933995555231,-0.642049688196884,-0.6352153208445834,-0.6261968626165926
101,3.6339159861104866,4.321087492575088,3.639531827819354,4.343735970516251,-4.343735970516252,-0.7098199844057653,-0.7042041426968981,-0.6871715064646011
102,3.6138023901245013,4.362403375868244,3.615256779966626,4.390247301179454,-4.390247301179453,-0.7764449110549521,-0.7749905212128274,-0.7486009857437428
104,3.5915115815191174,4.463836734559407,3.5844453299067327,4.43092318096933,-4.43092318096933,-0.8394115994502127,-0.8464778510625974,-0.8723251530402893
105,3.5677121268555623,4.502082785284383,3.5468755161064482,4.464323507538179,-4.464323507538178,-0.8966113806826157,-0.9174479914317297,-0.9343706584288203
106,3.5431949840036023,4.539569552774218,3.5033392064088322,4.4901636732262595,-4.490163673226258,-0.9469686892226554,-0.9868244668174255,-0.9963745687706158
107,3.4916294633216807,4.549846501946668,3.455653586324143,4.509565958209505,-4.509565958209505,-1.0179364948878242,-1.053912371885362,-1.0582170386249867
108,3.394875895510842,4.514657589202489,3.4063242020814224,4.524866849005498,-4.524866849005497,-1.1299909534946555,-1.118542646924075,-1.1197816936916474
109,3.3188047251133366,4.4997611253206955,3.357952204624012,4.539029721100947,-4.539029721100948,-1.2202249959876115,-1.181077516476936,-1.1809564002073594
110,3.2537361568678342,4.495370110468507,3.3125783128768553,4.554855913700447,-4.554855913700446,-1.3011197568326116,-1.2422776008235905,-1.2416339536006729
111,3.2377991189088884,4.539511798678103,3.2711836555116705,4.574257512595334,-4.574257512595336,-1.3364583936864478,-1.3030738570836657,-1.301712679769215
112,3.22531064806479,4.5864075926350445,3.2335100829523853,4.597824560168677,-4.597824560168676,-1.3725139121038858,-1.3643144772162907,-1.3610969445702543
113,3.2164346409204003,4.636132210217417,3.1982444121280897,4.624803990946166,-4.624803990946165,-1.4083693500257648,-1.4265595788180754,-1.419697569297016
114,3.211131020165998,4.688563172148246,3.163483363853347,4.653458772861403,-4.653458772861403,-1.4423277526954048,-1.4899754090080561,-1.4774321519822475
115,3.209171629951461,4.74339692622274,3.12731081916189,4.681654694311096,-4.681654694311097,-1.4724830643596354,-1.5543438751492067,-1.5342252962712783
117,3.027293087134638,4.672014554542372,3.0883057682854576,4.707472008784645,-4.707472008784644,-1.6801789216500063,-1.6191662404991867,-1.644721467407734
118,3.0124809031592332,4.710790477022236,3.045852825039921,4.729667438219536,-4.7296674382195345,-1.7171865350603013,-1.6838146131796137,-1.698309573863003
119,3.0178366411216166,4.768562926472326,3.0002143565326933,4.747892955357785,-4.747892955357784,-1.7300563142361676,-1.747678598825091,-1.750726285350709
120,2.9500311390459664,4.751962884084952,2.9524011181851266,4.76266796585624,-4.76266796585624,-1.8126368268102735,-1.8102668476711132,-1.8019317450389858
121,2.927929229399354,4.779822041491888,2.903916856281216,4.775164148621606,-4.775164148621607,-1.8472349192222528,-1.8712472923403909,-1.8518928120925344
123,2.838622423538714,4.786603610173637,2.8564501781898235,4.78688500530484,-4.78688500530484,-1.948262581766126,-1.9304348271150165,-1.947981186634924
124,2.846383886517783,4.840457151994929,2.8115643448667464,4.799315444294494,-4.799315444294493,-1.9529315577767097,-1.9877510994277463,-1.9940732654771458
125,2.774177051325464,4.813026860933562,2.7704168939880454,4.8136000581362985,-4.813600058136298,-2.0394230068108334,-2.0431831641482523,-2.038849809608097
126,2.6689846327957953,4.751291324197675,2.733538580555929,4.830296450834812,-4.830296450834811,-2.1613118180390156,-2.096757870278882,-2.0823066914018797
128,2.6663731711709664,4.831641340573563,2.70070952005855,4.849243492869247,-4.849243492869248,-2.1828703216982817,-2.1485339728106982,-2.1652681694025966
129,2.672482761813678,4.877269326488481,2.6709732199720744,4.86957515677037,-4.869575156770372,-2.197092394956694,-2.1986019367982976,-2.204786564674803
130,2.678137170263073,4.921149300194625,2.642811000129048,4.889888809155342,-4.889888809155343,-2.2117516388922698,-2.247077809026295,-2.2430121299315524
131,2.619824558075726,4.899785060815132,2.61445936406247,4.908542652608766,-4.908542652608766,-2.28871809453304,-2.294083288546296,-2.279960502739406
133,2.5875761958212355,4.937678257316894,2.584308566778755,4.924023492480213,-4.924023492480214,-2.3364472966589784,-2.339714925701459,-2.3501020614956585
134,2.5919134707807756,4.975252816389165,2.5512943688259577,4.935308847698728,-4.935308847698729,-2.3433953769179534,-2.3840144788727713,-2.38333934560839
135,2.5445201539591773,4.959907149866131,2.5152000180097778,4.942154607861269,-4.94215460786127,-2.397634453902093,-2.4269545898514924,-2.4153869959069536
137,2.4565673422201493,4.932588230874204,2.476817890202378,4.94526596678587,-4.945265966785869,-2.48869862456572,-2.468448076583491,-2.476020888654055
138,2.4005108948374563,4.905174755680916,2.437961879417605,4.946340562576939,-4.946340562576941,-2.5458296677394845,-2.5083786831593358,-2.5046638608434595
140,2.40250098363118,4.961251122226517,2.4013518953846207,4.947993147662621,-4.947993147662622,-2.545492164031442,-2.5466412522780013,-2.558750138595337
141,2.403840082990462,4.988094537011614,2.37039770960225,4.953572777279895,-4.953572777279897,-2.549732694289435,-2.583175067677647,-2.5842544540211527
142,2.4045793562196933,5.013353426791815,2.348893895638626,4.96687160813772,-4.966871608137721,-2.5622922519180276,-2.617977712499095,-2.6087740705721214
144,2.3042423192128116,4.959225583840073,2.340617508289689,4.991713646284115,-4.991713646284114,-2.6874713270713024,-2.651096137994425,-2.6549832646272615
145,2.30411609900819,4.980850706030626,2.3488144059703333,5.031416261319242,-5.031416261319242,-2.7273001623110518,-2.6826018553489086,-2.6767346070224365
147,2.3195501515112116,5.037233372321262,2.3755802904075476,5.0881436304641925,-5.088143630464192,-2.76859347895298,-2.712563340056644,-2.7176832208100508
148,2.384426093579787,5.121366377033087,2.4211872449455534,5.162215671901013,-5.162215671901014,-2.7777895783212267,-2.7410284269554603,-2.7369402834532996
150,2.474916770532547,5.248082307958329,2.483463616523095,5.251487133361512,-5.251487133361513,-2.776570362828966,-2.7680235168384177,-2.773165537425782
151,2.524436928114697,5.314627113763137,2.5573860635508288,5.3509538392186915,-5.350953839218692,-2.826516911103995,-2.7935677756678636,-2.79019018564844
153,2.6443728438463143,5.466572508432506,2.635065095648868,5.452758606421316,-5.452758606421315,-2.808385762575001,-2.8176935107724472,-2.8221996645861918
154,2.6757256212194807,5.51296243879767,2.706279169358279,5.546740873500324,-5.546740873500323,-2.8710152522808428,-2.8404617041420446,-2.837236817578189
156,2.7538642503873443,5.619365422312605,2.759625443428761,5.621590241322022,-5.621590241322023,-2.867725990934679,-2.861964797893262,-2.8655011719252608
157,2.830539950536196,5.709316127530338,2.784211617013588,5.666526871615515,-5.666526871615513,-2.8359869210793174,-2.882315254601925,-2.878776176994142
159,2.83651776507145,5.740243351517261,2.7716390075307213,5.673263930431936,-5.673263930431936,-2.8367461653604864,-2.901624922901215,-2.9037255864458116
160,2.8428221129954383,5.758265300738188,2.7178703908861106,5.637854416421941,-5.63785441642194,-2.795032303426502,-2.91998402553583,-2.9154431877427496
