frequency,raw,smoothed,error,error_smoothed,equalization,parametric_eq,fixed_band_eq,equalized_raw,equalized_smoothed,target
20.00,12.54,12.54,6.32,6.32,-6.32,-6.31,-2.77,6.22,6.22,6.22
20.20,12.54,12.54,6.32,6.32,-6.32,-6.31,-2.85,6.22,6.22,6.22
20.40,12.54,12.54,6.33,6.33,-6.33,-6.31,-2.93,6.22,6.22,6.22
20.61,12.54,12.54,6.33,6.33,-6.33,-6.30,-3.02,6.22,6.22,6.22
20.81,12.54,12.54,6.33,6.33,-6.33,-6.30,-3.10,6.22,6.22,6.22
21.02,12.54,12.54,6.33,6.33,-6.33,-6.30,-3.19,6.22,6.22,6.21
21.23,12.54,12.54,6.33,6.33,-6.33,-6.30,-3.28,6.21,6.21,6.21
21.44,12.54,12.54,6.33,6.33,-6.33,-6.30,-3.37,6.21,6.21,6.21
21.66,12.54,12.54,6.33,6.33,-6.33,-6.30,-3.47,6.21,6.21,6.21
21.87,12.54,12.54,6.33,6.33,-6.33,-6.29,-3.57,6.21,6.21,6.21
22.09,12.54,12.54,6.33,6.33,-6.33,-6.29,-3.67,6.21,6.21,6.21
22.31,12.54,12.54,6.33,6.33,-6.33,-6.29,-3.77,6.21,6.21,6.21
22.54,12.54,12.54,6.33,6.33,-6.33,-6.29,-3.88,6.21,6.21,6.21
22.76,12.54,12.54,6.33,6.33,-6.33,-6.28,-3.99,6.21,6.21,6.21
22.99,12.54,12.54,6.33,6.33,-6.33,-6.28,-4.10,6.21,6.21,6.21
23.22,12.54,12.54,6.34,6.34,-6.34,-6.28,-4.21,6.21,6.21,6.21
23.45,12.54,12.54,6.34,6.34,-6.34,-6.28,-4.33,6.21,6.21,6.21
23.69,12.54,12.54,6.34,6.34,-6.34,-6.27,-4.45,6.20,6.20,6.20
23.92,12.54,12.54,6.34,6.34,-6.34,-6.27,-4.57,6.20,6.20,6.20
24.16,12.54,12.54,6.34,6.34,-6.34,-6.27,-4.69,6.20,6.20,6.20
24.40,12.54,12.54,6.34,6.34,-6.35,-6.27,-4.82,6.20,6.20,6.20
24.65,12.54,12.54,6.34,6.34,-6.35,-6.26,-4.95,6.19,6.19,6.20
24.89,12.54,12.54,6.34,6.34,-6.36,-6.26,-5.08,6.19,6.19,6.20
25.14,12.54,12.54,6.35,6.35,-6.35,-6.26,-5.21,6.19,6.19,6.20
25.39,12.54,12.55,6.35,6.35,-6.35,-6.25,-5.34,6.20,6.20,6.20
25.65,12.54,12.55,6.35,6.35,-6.33,-6.25,-5.48,6.21,6.22,6.19
25.91,12.54,12.53,6.35,6.34,-6.31,-6.25,-5.61,6.24,6.23,6.19
26.16,12.50,12.50,6.31,6.31,-6.28,-6.24,-5.74,6.22,6.22,6.19
26.43,12.44,12.44,6.25,6.25,-6.25,-6.24,-5.88,6.20,6.20,6.19
26.69,12.38,12.38,6.19,6.19,-6.21,-6.23,-6.01,6.17,6.17,6.19
26.96,12.32,12.34,6.14,6.15,-6.18,-6.23,-6.14,6.14,6.15,6.19
27.23,12.31,12.31,6.13,6.13,-6.16,-6.23,-6.27,6.15,6.15,6.18
27.50,12.31,12.31,6.13,6.12,-6.14,-6.22,-6.40,6.17,6.17,6.18
27.77,12.31,12.31,6.13,6.13,-6.13,-6.22,-6.52,6.19,6.18,6.18
28.05,12.31,12.31,6.13,6.13,-6.12,-6.21,-6.64,6.19,6.19,6.18
28.33,12.31,12.31,6.14,6.14,-6.13,-6.21,-6.75,6.19,6.19,6.18
28.62,12.31,12.31,6.14,6.14,-6.13,-6.20,-6.86,6.18,6.18,6.17
28.90,12.31,12.31,6.14,6.14,-6.14,-6.20,-6.96,6.17,6.17,6.17
29.19,12.31,12.31,6.14,6.14,-6.14,-6.19,-7.05,6.17,6.17,6.17
29.48,12.31,12.31,6.15,6.15,-6.15,-6.19,-7.14,6.17,6.17,6.17
29.78,12.31,12.31,6.15,6.15,-6.15,-6.18,-7.22,6.16,6.16,6.16
30.08,12.31,12.31,6.15,6.15,-6.16,-6.18,-7.28,6.16,6.16,6.16
30.38,12.31,12.31,6.15,6.15,-6.16,-6.17,-7.34,6.15,6.15,6.16
30.68,12.31,12.31,6.16,6.16,-6.17,-6.16,-7.39,6.14,6.14,6.16
30.99,12.31,12.31,6.16,6.16,-6.17,-6.16,-7.43,6.15,6.15,6.15
31.30,12.31,12.32,6.16,6.17,-6.16,-6.15,-7.45,6.15,6.16,6.15
31.61,12.31,12.32,6.17,6.17,-6.14,-6.15,-7.47,6.17,6.18,6.15
31.93,12.31,12.30,6.17,6.15,-6.12,-6.14,-7.47,6.19,6.18,6.14
32.24,12.26,12.25,6.12,6.11,-6.09,-6.13,-7.47,6.17,6.16,6.14
32.57,12.19,12.19,6.06,6.06,-6.06,-6.12,-7.45,6.13,6.13,6.14
32.89,12.12,12.14,5.99,6.00,-6.03,-6.12,-7.43,6.09,6.11,6.13
33.22,12.10,12.10,5.97,5.97,-6.01,-6.11,-7.40,6.10,6.10,6.13
33.55,12.09,12.09,5.97,5.96,-5.98,-6.10,-7.36,6.11,6.10,6.13
33.89,12.08,12.08,5.96,5.96,-5.97,-6.09,-7.31,6.12,6.12,6.12
34.23,12.08,12.08,5.96,5.96,-5.96,-6.08,-7.25,6.12,6.12,6.12
34.57,12.08,12.08,5.97,5.97,-5.96,-6.08,-7.19,6.12,6.12,6.11
34.92,12.08,12.08,5.97,5.97,-5.97,-6.07,-7.12,6.11,6.11,6.11
35.27,12.08,12.08,5.98,5.98,-5.98,-6.06,-7.05,6.10,6.10,6.10
35.62,12.08,12.08,5.98,5.98,-5.99,-6.05,-6.98,6.09,6.09,6.10
35.97,12.08,12.08,5.99,5.99,-6.00,-6.04,-6.90,6.09,6.09,6.09
36.33,12.08,12.08,5.99,6.00,-6.00,-6.03,-6.82,6.08,6.08,6.09
36.70,12.08,12.08,6.00,6.00,-6.00,-6.02,-6.74,6.08,6.09,6.08
37.06,12.08,12.08,6.00,6.00,-5.99,-6.01,-6.66,6.10,6.09,6.08
37.43,12.06,12.07,5.99,6.00,-5.97,-6.00,-6.58,6.09,6.10,6.07
37.81,12.04,12.04,5.98,5.97,-5.94,-5.99,-6.50,6.10,6.10,6.07
38.19,12.00,11.99,5.94,5.93,-5.92,-5.98,-6.42,6.08,6.07,6.06
38.57,11.93,11.93,5.88,5.88,-5.89,-5.97,-6.34,6.04,6.04,6.05
38.95,11.86,11.88,5.82,5.84,-5.87,-5.95,-6.27,6.00,6.01,6.05
39.34,11.85,11.85,5.81,5.81,-5.85,-5.94,-6.19,6.01,6.01,6.04
39.74,11.85,11.85,5.82,5.81,-5.83,-5.93,-6.12,6.02,6.01,6.03
40.14,11.85,11.85,5.83,5.83,-5.83,-5.92,-6.06,6.02,6.02,6.02
40.54,11.85,11.85,5.84,5.84,-5.83,-5.91,-5.99,6.02,6.02,6.02
40.94,11.85,11.85,5.84,5.84,-5.85,-5.89,-5.93,6.01,6.01,6.01
41.35,11.85,11.85,5.85,5.85,-5.86,-5.88,-5.87,5.99,5.99,6.00
41.76,11.85,11.85,5.86,5.86,-5.86,-5.87,-5.82,5.99,5.99,5.99
42.18,11.85,11.86,5.87,5.88,-5.85,-5.86,-5.77,6.00,6.01,5.98
42.60,11.85,11.85,5.88,5.88,-5.84,-5.84,-5.72,6.02,6.02,5.97
43.03,11.84,11.81,5.88,5.85,-5.82,-5.83,-5.68,6.03,6.00,5.96
43.46,11.75,11.75,5.80,5.80,-5.79,-5.81,-5.64,5.96,5.96,5.95
43.90,11.65,11.68,5.71,5.74,-5.77,-5.80,-5.61,5.88,5.91,5.94
44.33,11.63,11.64,5.70,5.70,-5.75,-5.79,-5.58,5.88,5.88,5.93
44.78,11.63,11.62,5.71,5.70,-5.74,-5.77,-5.56,5.89,5.88,5.92
45.23,11.63,11.63,5.72,5.72,-5.74,-5.76,-5.53,5.90,5.89,5.91
45.68,11.63,11.63,5.74,5.74,-5.74,-5.75,-5.52,5.90,5.90,5.90
46.13,11.63,11.64,5.75,5.75,-5.74,-5.73,-5.50,5.89,5.89,5.88
46.60,11.63,11.63,5.76,5.76,-5.74,-5.72,-5.50,5.89,5.89,5.87
47.06,11.63,11.63,5.77,5.77,-5.74,-5.70,-5.49,5.90,5.89,5.86
47.53,11.60,11.61,5.76,5.77,-5.73,-5.69,-5.49,5.88,5.88,5.84
48.01,11.58,11.56,5.75,5.73,-5.71,-5.67,-5.49,5.87,5.85,5.83
48.49,11.49,11.49,5.68,5.68,-5.70,-5.66,-5.50,5.80,5.79,5.81
48.97,11.40,11.43,5.60,5.64,-5.68,-5.65,-5.51,5.72,5.75,5.80
49.46,11.40,11.40,5.62,5.61,-5.66,-5.63,-5.52,5.74,5.73,5.78
49.96,11.40,11.40,5.64,5.63,-5.65,-5.62,-5.54,5.76,5.75,5.77
50.46,11.40,11.40,5.65,5.65,-5.63,-5.61,-5.56,5.77,5.78,5.75
50.96,11.40,11.39,5.67,5.66,-5.61,-5.59,-5.58,5.79,5.78,5.73
51.47,11.35,11.35,5.64,5.64,-5.60,-5.58,-5.60,5.76,5.76,5.71
51.99,11.30,11.30,5.61,5.60,-5.59,-5.57,-5.63,5.71,5.71,5.70
52.51,11.23,11.23,5.56,5.56,-5.59,-5.56,-5.65,5.65,5.65,5.68
53.03,11.17,11.19,5.52,5.53,-5.58,-5.55,-5.68,5.59,5.61,5.66
53.56,11.17,11.17,5.54,5.53,-5.58,-5.54,-5.71,5.60,5.59,5.64
54.10,11.17,11.17,5.56,5.55,-5.57,-5.53,-5.74,5.60,5.60,5.61
54.64,11.17,11.18,5.58,5.59,-5.56,-5.52,-5.78,5.61,5.62,5.59
55.18,11.17,11.18,5.60,5.61,-5.55,-5.51,-5.81,5.62,5.63,5.57
55.74,11.17,11.15,5.63,5.60,-5.55,-5.50,-5.84,5.62,5.60,5.55
56.29,11.10,11.08,5.58,5.56,-5.55,-5.49,-5.87,5.55,5.53,5.52
56.86,10.97,11.01,5.48,5.51,-5.55,-5.48,-5.90,5.42,5.46,5.50
57.42,10.94,10.95,5.47,5.48,-5.54,-5.48,-5.92,5.40,5.41,5.47
58.00,10.94,10.93,5.50,5.49,-5.53,-5.47,-5.95,5.41,5.40,5.45
58.58,10.94,10.95,5.52,5.53,-5.51,-5.47,-5.97,5.43,5.43,5.42
59.16,10.94,10.95,5.55,5.56,-5.50,-5.46,-5.99,5.44,5.45,5.39
59.76,10.94,10.91,5.58,5.55,-5.49,-5.46,-6.01,5.45,5.42,5.36
60.35,10.86,10.84,5.53,5.51,-5.50,-5.46,-6.02,5.37,5.35,5.33
60.96,10.72,10.77,5.42,5.47,-5.50,-5.46,-6.03,5.22,5.27,5.30
61.57,10.71,10.71,5.44,5.44,-5.51,-5.46,-6.04,5.20,5.21,5.27
62.18,10.71,10.70,5.47,5.46,-5.51,-5.46,-6.04,5.20,5.19,5.24
62.80,10.71,10.72,5.51,5.51,-5.51,-5.46,-6.04,5.21,5.21,5.20
63.43,10.71,10.72,5.54,5.55,-5.51,-5.47,-6.04,5.21,5.21,5.17
64.07,10.71,10.71,5.58,5.57,-5.51,-5.47,-6.03,5.20,5.19,5.13
64.71,10.67,10.66,5.57,5.56,-5.53,-5.48,-6.01,5.14,5.13,5.10
65.35,10.60,10.59,5.54,5.53,-5.54,-5.48,-6.00,5.06,5.05,5.06
66.01,10.49,10.53,5.47,5.50,-5.55,-5.49,-5.98,4.94,4.98,5.02
66.67,10.49,10.49,5.51,5.51,-5.55,-5.50,-5.96,4.94,4.94,4.98
67.33,10.49,10.49,5.55,5.55,-5.54,-5.51,-5.93,4.95,4.95,4.94
68.01,10.49,10.49,5.59,5.59,-5.54,-5.52,-5.90,4.95,4.95,4.90
68.69,10.47,10.44,5.61,5.58,-5.55,-5.53,-5.87,4.93,4.90,4.86
69.37,10.38,10.37,5.56,5.55,-5.56,-5.54,-5.84,4.82,4.81,4.82
70.07,10.26,10.30,5.49,5.53,-5.57,-5.55,-5.81,4.69,4.73,4.77
70.77,10.26,10.26,5.53,5.53,-5.58,-5.56,-5.78,4.68,4.68,4.73
71.48,10.26,10.27,5.58,5.58,-5.58,-5.58,-5.74,4.68,4.68,4.68
72.19,10.26,10.26,5.63,5.63,-5.59,-5.59,-5.71,4.68,4.68,4.64
72.91,10.26,10.21,5.67,5.62,-5.59,-5.61,-5.67,4.67,4.62,4.59
73.64,10.11,10.14,5.57,5.60,-5.59,-5.62,-5.64,4.52,4.54,4.54
74.38,10.03,10.08,5.54,5.59,-5.59,-5.64,-5.61,4.44,4.48,4.49
75.12,10.03,10.02,5.60,5.59,-5.59,-5.66,-5.58,4.44,4.43,4.44
75.87,10.03,9.99,5.65,5.60,-5.59,-5.68,-5.55,4.44,4.40,4.38
76.63,9.92,9.93,5.59,5.60,-5.60,-5.69,-5.52,4.33,4.33,4.33
77.40,9.83,9.86,5.56,5.58,-5.61,-5.71,-5.50,4.22,4.25,4.28
78.17,9.80,9.81,5.58,5.58,-5.63,-5.73,-5.47,4.17,4.17,4.22
78.95,9.80,9.80,5.64,5.63,-5.66,-5.75,-5.46,4.14,4.13,4.17
79.74,9.80,9.80,5.69,5.70,-5.69,-5.77,-5.44,4.12,4.12,4.11
80.54,9.80,9.82,5.75,5.77,-5.71,-5.79,-5.43,4.09,4.10,4.05
81.35,9.80,9.78,5.81,5.79,-5.74,-5.81,-5.42,4.06,4.04,3.99
82.16,9.75,9.71,5.82,5.78,-5.76,-5.83,-5.41,3.99,3.95,3.93
82.98,9.57,9.64,5.70,5.77,-5.78,-5.85,-5.41,3.79,3.86,3.87
83.81,9.57,9.58,5.76,5.78,-5.79,-5.87,-5.41,3.78,3.79,3.81
84.65,9.57,9.54,5.83,5.79,-5.80,-5.89,-5.41,3.77,3.74,3.74
85.50,9.51,9.50,5.83,5.82,-5.81,-5.91,-5.42,3.70,3.68,3.68
86.35,9.41,9.43,5.80,5.81,-5.83,-5.93,-5.43,3.58,3.60,3.62
87.22,9.35,9.37,5.80,5.82,-5.86,-5.95,-5.45,3.50,3.51,3.55
88.09,9.35,9.35,5.87,5.86,-5.89,-5.97,-5.47,3.47,3.46,3.49
88.97,9.35,9.36,5.93,5.94,-5.92,-5.99,-5.50,3.43,3.44,3.42
89.86,9.35,9.35,6.00,5.99,-5.95,-6.01,-5.52,3.40,3.39,3.35
90.76,9.33,9.29,6.05,6.01,-5.98,-6.03,-5.56,3.35,3.31,3.28
91.66,9.19,9.22,5.98,6.00,-6.01,-6.05,-5.59,3.19,3.21,3.21
92.58,9.12,9.16,5.98,6.01,-6.03,-6.06,-5.64,3.09,3.13,3.15
93.51,9.12,9.12,6.05,6.04,-6.05,-6.08,-5.68,3.07,3.07,3.08
94.44,9.12,9.08,6.12,6.07,-6.07,-6.10,-5.73,3.06,3.01,3.01
95.39,9.02,9.01,6.09,6.08,-6.07,-6.12,-5.78,2.95,2.94,2.93
96.34,8.89,8.95,6.03,6.08,-6.09,-6.14,-5.84,2.81,2.86,2.86
97.30,8.89,8.90,6.10,6.11,-6.10,-6.16,-5.90,2.79,2.80,2.79
98.28,8.89,8.85,6.17,6.13,-6.13,-6.17,-5.96,2.77,2.73,2.72
99.26,8.83,8.80,6.18,6.15,-6.15,-6.19,-6.02,2.68,2.65,2.65
100.25,8.67,8.73,6.10,6.15,-6.17,-6.21,-6.09,2.50,2.55,2.58
101.25,8.66,8.67,6.16,6.17,-6.20,-6.22,-6.16,2.46,2.47,2.50
102.27,8.66,8.66,6.23,6.23,-6.23,-6.24,-6.24,2.43,2.43,2.43
103.29,8.66,8.64,6.31,6.29,-6.26,-6.26,-6.31,2.40,2.39,2.36
104.32,8.61,8.59,6.33,6.30,-6.29,-6.27,-6.39,2.33,2.30,2.28
105.37,8.49,8.52,6.28,6.31,-6.31,-6.29,-6.46,2.18,2.21,2.21
106.42,8.44,8.47,6.30,6.34,-6.34,-6.30,-6.54,2.10,2.14,2.14
107.48,8.44,8.43,6.38,6.37,-6.37,-6.32,-6.62,2.08,2.07,2.06
108.56,8.44,8.38,6.45,6.39,-6.39,-6.33,-6.69,2.05,2.00,1.99
109.64,8.29,8.32,6.37,6.40,-6.40,-6.35,-6.77,1.89,1.91,1.92
110.74,8.21,8.25,6.37,6.40,-6.42,-6.36,-6.84,1.80,1.84,1.85
111.85,8.21,8.22,6.44,6.44,-6.44,-6.38,-6.91,1.78,1.78,1.77
112.97,8.21,8.18,6.51,6.48,-6.46,-6.39,-6.98,1.75,1.72,1.70
114.10,8.16,8.12,6.53,6.49,-6.49,-6.41,-7.05,1.67,1.63,1.63
115.24,7.98,8.04,6.42,6.49,-6.52,-6.42,-7.10,1.46,1.53,1.56
116.39,7.98,7.99,6.49,6.50,-6.54,-6.43,-7.16,1.44,1.45,1.49
117.55,7.98,7.99,6.56,6.57,-6.56,-6.45,-7.21,1.42,1.42,1.42
118.73,7.98,7.97,6.63,6.62,-6.57,-6.46,-7.25,1.41,1.39,1.35
119.92,7.97,7.91,6.69,6.63,-6.58,-6.47,-7.29,1.39,1.33,1.28
121.12,7.75,7.83,6.54,6.62,-6.59,-6.49,-7.32,1.16,1.24,1.21
122.33,7.75,7.72,6.61,6.58,-6.60,-6.50,-7.34,1.15,1.13,1.14
123.55,7.65,7.62,6.58,6.55,-6.60,-6.51,-7.35,1.05,1.03,1.07
124.79,7.53,7.58,6.53,6.57,-6.60,-6.52,-7.35,0.94,0.98,1.01
126.03,7.52,7.53,6.58,6.59,-6.59,-6.54,-7.35,0.93,0.94,0.94
127.29,7.52,7.49,6.65,6.61,-6.60,-6.55,-7.34,0.92,0.89,0.88
128.57,7.47,7.44,6.66,6.63,-6.62,-6.56,-7.33,0.86,0.82,0.81
129.85,7.32,7.37,6.57,6.62,-6.64,-6.57,-7.30,0.69,0.73,0.75
131.15,7.30,7.31,6.62,6.63,-6.66,-6.58,-7.27,0.64,0.65,0.68
132.46,7.30,7.30,6.68,6.68,-6.68,-6.59,-7.22,0.62,0.62,0.62
133.79,7.30,7.30,6.74,6.73,-6.70,-6.60,-7.18,0.60,0.60,0.56
135.12,7.29,7.24,6.79,6.74,-6.72,-6.61,-7.12,0.57,0.52,0.50
136.48,7.13,7.17,6.69,6.73,-6.74,-6.62,-7.07,0.40,0.43,0.44
137.84,7.07,7.11,6.69,6.73,-6.75,-6.62,-7.00,0.32,0.36,0.38
139.22,7.07,7.06,6.75,6.74,-6.75,-6.63,-6.94,0.32,0.31,0.32
140.61,7.07,7.03,6.80,6.76,-6.74,-6.64,-6.87,0.33,0.29,0.27
142.02,6.96,6.98,6.75,6.77,-6.72,-6.64,-6.80,0.24,0.26,0.21
143.44,6.87,6.90,6.71,6.74,-6.71,-6.65,-6.72,0.16,0.19,0.16
144.87,6.84,6.79,6.74,6.69,-6.70,-6.66,-6.65,0.14,0.09,0.10
146.32,6.69,6.71,6.64,6.65,-6.69,-6.66,-6.57,-0.00,0.01,0.05
147.78,6.61,6.64,6.60,6.64,-6.68,-6.66,-6.49,-0.07,-0.04,0.01
149.26,6.61,6.61,6.65,6.66,-6.67,-6.67,-6.42,-0.06,-0.06,-0.04
150.75,6.61,6.60,6.70,6.69,-6.66,-6.67,-6.34,-0.05,-0.06,-0.09
152.26,6.60,6.56,6.74,6.69,-6.66,-6.67,-6.27,-0.06,-0.11,-0.14
153.78,6.46,6.49,6.65,6.67,-6.67,-6.67,-6.19,-0.21,-0.18,-0.19
155.32,6.39,6.42,6.62,6.66,-6.68,-6.67,-6.12,-0.28,-0.25,-0.23
156.88,6.38,6.39,6.66,6.66,-6.67,-6.67,-6.05,-0.29,-0.29,-0.28
158.44,6.38,6.35,6.70,6.68,-6.67,-6.66,-5.99,-0.29,-0.31,-0.32
160.03,6.32,6.30,6.69,6.67,-6.65,-6.66,-5.93,-0.33,-0.36,-0.37
161.63,6.19,6.25,6.61,6.66,-6.63,-6.65,-5.87,-0.44,-0.39,-0.42
163.24,6.16,6.17,6.62,6.63,-6.62,-6.65,-5.81,-0.46,-0.45,-0.46
164.88,6.16,6.09,6.66,6.59,-6.61,-6.64,-5.76,-0.45,-0.52,-0.50
166.53,5.98,6.02,6.52,6.56,-6.59,-6.63,-5.71,-0.61,-0.57,-0.54
168.19,5.93,5.97,6.51,6.55,-6.56,-6.62,-5.67,-0.63,-0.59,-0.58
169.87,5.93,5.92,6.55,6.53,-6.53,-6.61,-5.63,-0.60,-0.61,-0.61
171.57,5.93,5.88,6.58,6.53,-6.50,-6.60,-5.59,-0.57,-0.62,-0.65
173.29,5.79,5.83,6.48,6.51,-6.47,-6.58,-5.56,-0.67,-0.64,-0.69
175.02,5.70,5.74,6.42,6.46,-6.44,-6.57,-5.53,-0.74,-0.70,-0.72
176.77,5.70,5.63,6.46,6.39,-6.41,-6.55,-5.50,-0.71,-0.78,-0.75
178.54,5.52,5.56,6.31,6.34,-6.39,-6.53,-5.48,-0.86,-0.83,-0.79
180.32,5.47,5.50,6.29,6.32,-6.36,-6.51,-5.47,-0.89,-0.86,-0.82
182.13,5.47,5.47,6.32,6.32,-6.33,-6.49,-5.46,-0.86,-0.86,-0.85
183.95,5.47,5.47,6.35,6.35,-6.31,-6.47,-5.45,-0.84,-0.85,-0.88
185.79,5.47,5.42,6.38,6.33,-6.30,-6.45,-5.44,-0.82,-0.88,-0.91
187.65,5.31,5.35,6.25,6.28,-6.28,-6.42,-5.44,-0.97,-0.94,-0.94
189.52,5.25,5.29,6.22,6.25,-6.27,-6.40,-5.45,-1.02,-0.98,-0.96
191.42,5.24,5.24,6.23,6.23,-6.24,-6.37,-5.45,-1.00,-1.00,-0.99
193.33,5.24,5.20,6.26,6.22,-6.20,-6.34,-5.47,-0.96,-1.00,-1.02
195.27,5.14,5.15,6.19,6.19,-6.16,-6.31,-5.48,-1.01,-1.00,-1.04
197.22,5.04,5.07,6.11,6.14,-6.11,-6.28,-5.50,-1.07,-1.04,-1.07
199.19,5.01,4.97,6.10,6.06,-6.08,-6.25,-5.52,-1.07,-1.11,-1.09
201.18,4.88,4.89,6.00,6.00,-6.04,-6.21,-5.54,-1.16,-1.15,-1.11
203.19,4.79,4.83,5.93,5.96,-6.01,-6.18,-5.57,-1.21,-1.18,-1.14
205.23,4.79,4.80,5.95,5.95,-5.97,-6.14,-5.59,-1.18,-1.17,-1.16
207.28,4.79,4.79,5.97,5.96,-5.94,-6.11,-5.62,-1.14,-1.15,-1.18
209.35,4.79,4.75,5.99,5.94,-5.91,-6.07,-5.65,-1.12,-1.16,-1.20
211.44,4.66,4.68,5.88,5.89,-5.88,-6.03,-5.68,-1.22,-1.21,-1.22
213.56,4.57,4.61,5.81,5.85,-5.86,-5.99,-5.71,-1.29,-1.25,-1.24
215.69,4.56,4.56,5.82,5.82,-5.83,-5.95,-5.75,-1.27,-1.27,-1.25
217.85,4.56,4.52,5.83,5.80,-5.79,-5.91,-5.78,-1.23,-1.27,-1.27
220.03,4.47,4.47,5.76,5.76,-5.75,-5.86,-5.81,-1.27,-1.28,-1.29
222.23,4.37,4.41,5.68,5.72,-5.70,-5.82,-5.84,-1.33,-1.29,-1.31
224.45,4.33,4.34,5.65,5.66,-5.66,-5.77,-5.86,-1.33,-1.32,-1.32
226.70,4.33,4.27,5.67,5.61,-5.62,-5.73,-5.89,-1.28,-1.34,-1.34
228.96,4.18,4.21,5.53,5.56,-5.57,-5.68,-5.91,-1.39,-1.36,-1.35
231.25,4.12,4.15,5.49,5.52,-5.53,-5.63,-5.93,-1.41,-1.37,-1.37
233.57,4.10,4.10,5.48,5.49,-5.49,-5.59,-5.94,-1.38,-1.39,-1.38
235.90,4.10,4.06,5.51,5.46,-5.45,-5.54,-5.95,-1.35,-1.39,-1.40
238.26,3.99,3.99,5.41,5.41,-5.41,-5.49,-5.95,-1.42,-1.42,-1.42
240.64,3.89,3.93,5.32,5.36,-5.38,-5.44,-5.95,-1.48,-1.45,-1.43
243.05,3.88,3.90,5.32,5.34,-5.34,-5.39,-5.94,-1.46,-1.44,-1.44
245.48,3.88,3.87,5.34,5.32,-5.30,-5.34,-5.93,-1.42,-1.44,-1.45
247.93,3.88,3.82,5.35,5.28,-5.27,-5.29,-5.91,-1.38,-1.45,-1.46
250.41,3.69,3.74,5.17,5.22,-5.22,-5.24,-5.88,-1.53,-1.48,-1.48
252.92,3.65,3.69,5.14,5.17,-5.18,-5.19,-5.85,-1.53,-1.49,-1.49
255.45,3.65,3.64,5.14,5.13,-5.13,-5.13,-5.81,-1.48,-1.50,-1.49
258.00,3.65,3.60,5.15,5.10,-5.08,-5.08,-5.77,-1.43,-1.49,-1.50
260.58,3.51,3.54,5.02,5.04,-5.03,-5.03,-5.72,-1.52,-1.49,-1.51
263.19,3.43,3.47,4.95,4.99,-4.98,-4.98,-5.66,-1.55,-1.51,-1.52
265.82,3.42,3.40,4.95,4.92,-4.93,-4.93,-5.60,-1.51,-1.53,-1.52
268.48,3.37,3.34,4.90,4.87,-4.88,-4.87,-5.53,-1.51,-1.54,-1.53
271.16,3.24,3.27,4.78,4.81,-4.83,-4.82,-5.46,-1.59,-1.56,-1.54
273.87,3.19,3.23,4.74,4.78,-4.78,-4.77,-5.38,-1.58,-1.55,-1.55
276.61,3.19,3.18,4.75,4.74,-4.73,-4.72,-5.30,-1.53,-1.55,-1.56
279.38,3.19,3.13,4.76,4.69,-4.68,-4.66,-5.21,-1.48,-1.55,-1.56
282.17,3.02,3.06,4.59,4.63,-4.62,-4.61,-5.12,-1.60,-1.56,-1.57
284.99,2.96,3.00,4.53,4.57,-4.57,-4.56,-5.04,-1.61,-1.57,-1.57
287.84,2.96,2.95,4.53,4.52,-4.52,-4.51,-4.94,-1.56,-1.57,-1.56
290.72,2.96,2.92,4.53,4.49,-4.48,-4.46,-4.85,-1.52,-1.56,-1.57
293.63,2.85,2.86,4.43,4.43,-4.43,-4.41,-4.75,-1.58,-1.58,-1.58
296.57,2.75,2.79,4.33,4.36,-4.39,-4.36,-4.66,-1.63,-1.60,-1.57
299.53,2.74,2.75,4.31,4.32,-4.34,-4.30,-4.56,-1.60,-1.60,-1.57
302.53,2.74,2.74,4.32,4.32,-4.30,-4.25,-4.47,-1.56,-1.56,-1.57
305.55,2.74,2.72,4.31,4.29,-4.26,-4.20,-4.37,-1.52,-1.54,-1.57
308.61,2.68,2.65,4.26,4.22,-4.21,-4.15,-4.28,-1.53,-1.56,-1.57
311.69,2.53,2.58,4.10,4.15,-4.16,-4.10,-4.18,-1.63,-1.58,-1.57
314.81,2.51,2.54,4.09,4.11,-4.11,-4.05,-4.09,-1.60,-1.58,-1.57
317.96,2.51,2.49,4.08,4.06,-4.06,-4.01,-4.00,-1.55,-1.57,-1.57
321.14,2.50,2.44,4.08,4.01,-4.00,-3.96,-3.91,-1.50,-1.56,-1.57
324.35,2.33,2.37,3.90,3.94,-3.94,-3.91,-3.82,-1.61,-1.57,-1.57
327.59,2.28,2.32,3.83,3.88,-3.88,-3.86,-3.74,-1.60,-1.56,-1.55
330.87,2.28,2.27,3.84,3.82,-3.83,-3.81,-3.65,-1.54,-1.56,-1.56
334.18,2.28,2.23,3.83,3.78,-3.78,-3.76,-3.57,-1.49,-1.54,-1.55
337.52,2.15,2.17,3.71,3.72,-3.72,-3.71,-3.49,-1.57,-1.55,-1.55
340.90,2.07,2.10,3.62,3.64,-3.67,-3.66,-3.42,-1.59,-1.57,-1.55
344.30,2.05,2.06,3.59,3.60,-3.62,-3.61,-3.34,-1.56,-1.56,-1.54
347.75,2.05,2.05,3.59,3.59,-3.57,-3.56,-3.27,-1.52,-1.52,-1.53
351.23,2.05,2.01,3.59,3.54,-3.52,-3.51,-3.20,-1.47,-1.51,-1.54
354.74,1.95,1.95,3.47,3.48,-3.47,-3.46,-3.13,-1.52,-1.52,-1.52
358.28,1.85,1.89,3.37,3.41,-3.41,-3.41,-3.07,-1.56,-1.53,-1.52
361.87,1.83,1.85,3.35,3.36,-3.36,-3.36,-3.00,-1.53,-1.51,-1.52
365.49,1.83,1.82,3.34,3.33,-3.31,-3.31,-2.94,-1.48,-1.49,-1.51
369.14,1.81,1.76,3.32,3.27,-3.26,-3.26,-2.88,-1.45,-1.50,-1.51
372.83,1.66,1.69,3.16,3.19,-3.21,-3.21,-2.83,-1.55,-1.52,-1.49
376.56,1.60,1.63,3.10,3.12,-3.16,-3.16,-2.77,-1.56,-1.54,-1.50
380.33,1.60,1.59,3.09,3.08,-3.12,-3.11,-2.72,-1.52,-1.53,-1.49
384.13,1.60,1.61,3.09,3.09,-3.07,-3.06,-2.67,-1.47,-1.46,-1.49
387.97,1.60,1.60,3.07,3.07,-3.03,-3.00,-2.63,-1.42,-1.43,-1.47
391.85,1.59,1.54,3.05,3.00,-2.98,-2.95,-2.58,-1.38,-1.44,-1.45
395.77,1.43,1.47,2.89,2.92,-2.92,-2.90,-2.54,-1.49,-1.46,-1.46
399.73,1.37,1.41,2.82,2.86,-2.87,-2.85,-2.49,-1.49,-1.45,-1.45
403.72,1.37,1.36,2.81,2.81,-2.81,-2.80,-2.45,-1.44,-1.45,-1.44
407.76,1.37,1.32,2.81,2.76,-2.75,-2.75,-2.41,-1.38,-1.43,-1.44
411.84,1.24,1.26,2.68,2.69,-2.70,-2.70,-2.38,-1.46,-1.44,-1.43
415.96,1.15,1.19,2.58,2.62,-2.65,-2.65,-2.34,-1.50,-1.46,-1.43
420.12,1.14,1.14,2.57,2.56,-2.60,-2.60,-2.31,-1.46,-1.47,-1.43
424.32,1.14,1.14,2.56,2.56,-2.56,-2.55,-2.27,-1.41,-1.41,-1.42
428.56,1.14,1.15,2.55,2.56,-2.51,-2.50,-2.24,-1.37,-1.37,-1.41
432.85,1.14,1.11,2.54,2.51,-2.47,-2.45,-2.21,-1.33,-1.36,-1.40
437.18,1.04,1.04,2.44,2.44,-2.43,-2.40,-2.18,-1.38,-1.39,-1.39
441.55,0.94,0.97,2.33,2.35,-2.38,-2.35,-2.15,-1.44,-1.41,-1.38
445.96,0.91,0.92,2.29,2.29,-2.33,-2.31,-2.12,-1.41,-1.41,-1.38
450.42,0.91,0.92,2.27,2.28,-2.27,-2.26,-2.09,-1.36,-1.35,-1.36
454.93,0.91,0.89,2.26,2.24,-2.21,-2.21,-2.06,-1.30,-1.32,-1.35
459.48,0.87,0.83,2.21,2.18,-2.16,-2.17,-2.04,-1.29,-1.33,-1.34
464.07,0.72,0.76,2.06,2.10,-2.12,-2.12,-2.01,-1.40,-1.36,-1.34
468.71,0.69,0.71,2.02,2.04,-2.08,-2.08,-1.98,-1.39,-1.38,-1.33
473.40,0.69,0.68,2.02,2.00,-2.04,-2.03,-1.95,-1.35,-1.36,-1.32
478.13,0.69,0.70,2.01,2.01,-1.99,-1.99,-1.92,-1.30,-1.30,-1.31
482.91,0.69,0.70,1.99,2.00,-1.94,-1.94,-1.89,-1.25,-1.25,-1.30
487.74,0.69,0.66,1.98,1.95,-1.90,-1.90,-1.87,-1.21,-1.24,-1.29
492.62,0.60,0.59,1.88,1.87,-1.86,-1.86,-1.84,-1.26,-1.27,-1.28
