frequency,raw,error,smoothed,error_smoothed,equalization,parametric_eq,fixed_band_eq,equalized_raw,equalized_smoothed,target
20.00,-10.94,-8.89,-10.93,-8.91,6.00,4.89,2.68,-4.94,-4.93,-2.05
20.20,-10.92,-8.96,-10.92,-8.97,6.00,4.97,2.76,-4.92,-4.92,-1.96
20.40,-10.90,-9.02,-10.90,-9.03,6.00,5.06,2.84,-4.90,-4.90,-1.88
20.61,-10.88,-9.07,-10.89,-9.08,6.00,5.15,2.92,-4.88,-4.89,-1.81
20.81,-10.87,-9.15,-10.87,-9.13,6.00,5.23,3.01,-4.87,-4.87,-1.72
21.02,-10.85,-9.21,-10.85,-9.18,6.00,5.32,3.10,-4.85,-4.85,-1.64
21.23,-10.82,-9.24,-10.83,-9.22,6.00,5.41,3.19,-4.82,-4.83,-1.58
21.44,-10.80,-9.28,-10.80,-9.26,6.00,5.49,3.28,-4.80,-4.80,-1.52
21.66,-10.78,-9.31,-10.78,-9.29,6.00,5.57,3.38,-4.78,-4.78,-1.47
21.87,-10.75,-9.33,-10.75,-9.32,6.00,5.65,3.48,-4.75,-4.75,-1.42
22.09,-10.73,-9.36,-10.72,-9.35,6.00,5.73,3.58,-4.73,-4.72,-1.37
22.31,-10.70,-9.38,-10.69,-9.37,6.00,5.81,3.69,-4.70,-4.69,-1.32
22.54,-10.66,-9.38,-10.66,-9.38,6.00,5.89,3.80,-4.66,-4.66,-1.28
22.76,-10.63,-9.39,-10.63,-9.39,6.00,5.96,3.91,-4.63,-4.63,-1.24
22.99,-10.60,-9.39,-10.59,-9.39,6.00,6.03,4.02,-4.60,-4.59,-1.21
23.22,-10.56,-9.39,-10.56,-9.40,6.00,6.10,4.14,-4.56,-4.56,-1.17
23.45,-10.52,-9.39,-10.52,-9.39,6.00,6.16,4.26,-4.52,-4.52,-1.13
23.69,-10.48,-9.39,-10.48,-9.39,6.00,6.23,4.38,-4.48,-4.48,-1.09
23.92,-10.43,-9.37,-10.44,-9.38,6.00,6.28,4.51,-4.43,-4.44,-1.05
24.16,-10.39,-9.38,-10.39,-9.38,6.00,6.34,4.63,-4.39,-4.39,-1.00
24.40,-10.34,-9.36,-10.35,-9.36,6.00,6.39,4.76,-4.34,-4.35,-0.97
24.65,-10.30,-9.35,-10.30,-9.35,6.00,6.43,4.89,-4.30,-4.30,-0.95
24.89,-10.25,-9.33,-10.25,-9.33,6.00,6.47,5.03,-4.25,-4.25,-0.92
25.14,-10.20,-9.32,-10.19,-9.31,6.00,6.51,5.16,-4.20,-4.19,-0.88
25.39,-10.14,-9.29,-10.14,-9.29,6.00,6.54,5.30,-4.14,-4.14,-0.85
25.65,-10.08,-9.27,-10.08,-9.27,6.00,6.56,5.44,-4.08,-4.08,-0.81
25.91,-10.02,-9.23,-10.02,-9.24,6.00,6.58,5.58,-4.02,-4.02,-0.79
26.16,-9.96,-9.20,-9.96,-9.21,6.00,6.59,5.72,-3.96,-3.96,-0.76
26.43,-9.89,-9.17,-9.89,-9.17,6.00,6.60,5.85,-3.89,-3.89,-0.72
26.69,-9.83,-9.14,-9.82,-9.13,6.00,6.60,5.99,-3.83,-3.82,-0.69
26.96,-9.76,-9.10,-9.75,-9.09,6.00,6.60,6.13,-3.76,-3.75,-0.66
27.23,-9.68,-9.06,-9.68,-9.05,6.00,6.59,6.26,-3.68,-3.68,-0.62
27.50,-9.60,-9.01,-9.61,-9.01,6.00,6.58,6.39,-3.60,-3.61,-0.59
27.77,-9.52,-8.95,-9.53,-8.96,6.00,6.56,6.51,-3.52,-3.53,-0.57
28.05,-9.44,-8.91,-9.45,-8.91,6.00,6.53,6.63,-3.44,-3.45,-0.53
28.33,-9.36,-8.84,-9.37,-8.86,6.00,6.50,6.75,-3.36,-3.37,-0.51
28.62,-9.27,-8.78,-9.28,-8.80,6.00,6.47,6.86,-3.27,-3.28,-0.49
28.90,-9.19,-8.74,-9.19,-8.74,6.00,6.43,6.96,-3.19,-3.19,-0.45
29.19,-9.09,-8.66,-9.09,-8.67,6.00,6.38,7.05,-3.09,-3.09,-0.43
29.48,-8.99,-8.61,-8.98,-8.59,6.00,6.33,7.13,-2.99,-2.98,-0.38
29.78,-8.89,-8.53,-8.87,-8.51,6.00,6.28,7.20,-2.89,-2.87,-0.36
30.08,-8.78,-8.45,-8.75,-8.42,6.00,6.22,7.26,-2.78,-2.75,-0.33
30.38,-8.65,-8.35,-8.63,-8.33,6.00,6.16,7.31,-2.65,-2.63,-0.30
30.68,-8.51,-8.24,-8.50,-8.22,6.00,6.09,7.34,-2.51,-2.50,-0.27
30.99,-8.37,-8.12,-8.36,-8.12,6.00,6.02,7.36,-2.37,-2.36,-0.25
31.30,-8.22,-8.00,-8.22,-8.00,6.00,5.95,7.37,-2.22,-2.22,-0.22
31.61,-8.07,-7.87,-8.07,-7.88,6.00,5.88,7.36,-2.07,-2.07,-0.20
31.93,-7.92,-7.74,-7.92,-7.75,6.00,5.80,7.35,-1.92,-1.92,-0.18
32.24,-7.76,-7.60,-7.77,-7.62,6.00,5.72,7.31,-1.76,-1.77,-0.16
32.57,-7.60,-7.47,-7.61,-7.48,6.00,5.64,7.27,-1.60,-1.61,-0.13
32.89,-7.44,-7.34,-7.44,-7.34,6.00,5.56,7.21,-1.44,-1.44,-0.10
33.22,-7.28,-7.20,-7.28,-7.19,6.00,5.48,7.14,-1.28,-1.28,-0.08
33.55,-7.12,-7.05,-7.11,-7.04,6.00,5.39,7.07,-1.12,-1.11,-0.06
33.89,-6.95,-6.89,-6.95,-6.89,6.00,5.31,6.98,-0.95,-0.95,-0.06
34.23,-6.79,-6.76,-6.78,-6.74,6.00,5.22,6.88,-0.79,-0.78,-0.03
34.57,-6.62,-6.60,-6.61,-6.59,6.00,5.14,6.77,-0.62,-0.61,-0.02
34.92,-6.45,-6.44,-6.45,-6.44,5.99,5.05,6.66,-0.47,-0.46,-0.01
35.27,-6.29,-6.30,-6.29,-6.29,5.95,4.96,6.54,-0.34,-0.34,0.01
35.62,-6.12,-6.12,-6.13,-6.14,5.90,4.87,6.42,-0.22,-0.23,0.00
35.97,-5.96,-5.97,-5.97,-5.99,5.84,4.79,6.30,-0.12,-0.14,0.01
36.33,-5.81,-5.84,-5.82,-5.84,5.75,4.70,6.17,-0.06,-0.07,0.03
36.70,-5.66,-5.69,-5.67,-5.70,5.66,4.61,6.03,-0.00,-0.02,0.03
37.06,-5.52,-5.54,-5.53,-5.56,5.55,4.53,5.90,0.03,0.01,0.03
37.43,-5.38,-5.41,-5.39,-5.42,5.42,4.44,5.76,0.04,0.03,0.03
37.81,-5.25,-5.28,-5.26,-5.29,5.29,4.36,5.63,0.04,0.03,0.03
38.19,-5.12,-5.15,-5.12,-5.15,5.15,4.27,5.49,0.03,0.03,0.03
38.57,-5.00,-5.03,-4.99,-5.02,5.02,4.19,5.36,0.02,0.03,0.04
38.95,-4.88,-4.91,-4.87,-4.90,4.90,4.10,5.23,0.02,0.03,0.03
39.34,-4.76,-4.78,-4.75,-4.77,4.77,4.02,5.09,0.01,0.02,0.02
39.74,-4.64,-4.66,-4.63,-4.65,4.65,3.94,4.96,0.01,0.02,0.02
40.14,-4.52,-4.53,-4.51,-4.53,4.53,3.86,4.83,0.01,0.02,0.01
40.54,-4.40,-4.41,-4.39,-4.41,4.41,3.78,4.71,0.01,0.01,0.01
40.94,-4.28,-4.28,-4.28,-4.29,4.29,3.71,4.58,0.01,0.01,0.01
41.35,-4.16,-4.16,-4.17,-4.17,4.17,3.63,4.46,0.01,0.00,0.00
41.76,-4.05,-4.05,-4.06,-4.05,4.05,3.55,4.34,0.01,-0.00,-0.00
42.18,-3.94,-3.93,-3.95,-3.94,3.94,3.48,4.23,0.00,-0.01,-0.01
42.60,-3.84,-3.82,-3.85,-3.83,3.83,3.41,4.11,-0.01,-0.02,-0.02
43.03,-3.73,-3.72,-3.74,-3.72,3.72,3.33,4.00,-0.01,-0.03,-0.01
43.46,-3.64,-3.61,-3.64,-3.61,3.61,3.26,3.90,-0.03,-0.04,-0.03
43.90,-3.55,-3.51,-3.54,-3.50,3.50,3.19,3.79,-0.05,-0.04,-0.04
44.33,-3.46,-3.40,-3.44,-3.39,3.39,3.12,3.69,-0.06,-0.05,-0.06
44.78,-3.36,-3.30,-3.35,-3.29,3.29,3.06,3.59,-0.07,-0.06,-0.06
45.23,-3.26,-3.18,-3.25,-3.19,3.19,2.99,3.49,-0.07,-0.06,-0.08
45.68,-3.17,-3.09,-3.16,-3.09,3.09,2.93,3.40,-0.08,-0.07,-0.08
46.13,-3.07,-2.98,-3.07,-2.99,2.99,2.86,3.31,-0.08,-0.08,-0.09
46.60,-2.98,-2.90,-2.98,-2.89,2.89,2.80,3.22,-0.09,-0.09,-0.08
47.06,-2.89,-2.80,-2.89,-2.79,2.79,2.74,3.14,-0.10,-0.09,-0.09
47.53,-2.80,-2.70,-2.80,-2.70,2.70,2.68,3.05,-0.10,-0.10,-0.10
48.01,-2.71,-2.62,-2.71,-2.61,2.61,2.62,2.97,-0.10,-0.10,-0.09
48.49,-2.63,-2.53,-2.63,-2.52,2.52,2.56,2.90,-0.11,-0.11,-0.10
48.97,-2.54,-2.43,-2.54,-2.44,2.44,2.50,2.82,-0.10,-0.11,-0.11
49.46,-2.47,-2.35,-2.47,-2.36,2.36,2.45,2.75,-0.11,-0.11,-0.12
49.96,-2.39,-2.26,-2.39,-2.28,2.28,2.39,2.68,-0.11,-0.11,-0.13
50.46,-2.32,-2.20,-2.32,-2.21,2.21,2.34,2.61,-0.11,-0.11,-0.12
50.96,-2.25,-2.14,-2.26,-2.15,2.15,2.29,2.54,-0.10,-0.11,-0.11
51.47,-2.19,-2.08,-2.19,-2.09,2.09,2.24,2.48,-0.10,-0.11,-0.11
51.99,-2.13,-2.02,-2.14,-2.03,2.03,2.19,2.42,-0.10,-0.11,-0.11
52.51,-2.08,-1.98,-2.08,-1.98,1.98,2.14,2.36,-0.10,-0.11,-0.10
53.03,-2.04,-1.94,-2.03,-1.93,1.93,2.09,2.30,-0.11,-0.11,-0.10
53.56,-1.99,-1.89,-1.99,-1.88,1.88,2.04,2.24,-0.11,-0.11,-0.10
54.10,-1.95,-1.85,-1.95,-1.84,1.84,2.00,2.19,-0.11,-0.11,-0.10
54.64,-1.92,-1.81,-1.91,-1.80,1.80,1.95,2.14,-0.12,-0.11,-0.11
55.18,-1.88,-1.77,-1.88,-1.77,1.77,1.91,2.08,-0.11,-0.11,-0.11
55.74,-1.85,-1.73,-1.85,-1.74,1.74,1.86,2.03,-0.11,-0.11,-0.12
56.29,-1.83,-1.71,-1.83,-1.71,1.71,1.82,1.98,-0.12,-0.12,-0.12
56.86,-1.81,-1.68,-1.81,-1.68,1.68,1.78,1.94,-0.12,-0.13,-0.13
57.42,-1.80,-1.65,-1.80,-1.66,1.66,1.74,1.89,-0.14,-0.14,-0.14
58.00,-1.78,-1.63,-1.79,-1.64,1.64,1.70,1.85,-0.14,-0.15,-0.15
58.58,-1.77,-1.61,-1.78,-1.62,1.62,1.66,1.80,-0.15,-0.16,-0.16
59.16,-1.77,-1.61,-1.78,-1.60,1.60,1.62,1.76,-0.17,-0.18,-0.16
59.76,-1.77,-1.59,-1.78,-1.58,1.58,1.58,1.71,-0.18,-0.19,-0.18
60.35,-1.77,-1.57,-1.78,-1.57,1.57,1.54,1.67,-0.20,-0.21,-0.20
60.96,-1.78,-1.57,-1.78,-1.55,1.55,1.51,1.63,-0.23,-0.22,-0.21
61.57,-1.79,-1.55,-1.78,-1.54,1.54,1.47,1.59,-0.25,-0.24,-0.24
62.18,-1.79,-1.52,-1.78,-1.53,1.53,1.43,1.55,-0.26,-0.25,-0.27
62.80,-1.79,-1.52,-1.78,-1.51,1.51,1.40,1.51,-0.28,-0.27,-0.27
63.43,-1.79,-1.49,-1.78,-1.50,1.50,1.37,1.47,-0.29,-0.28,-0.30
64.07,-1.79,-1.48,-1.78,-1.48,1.48,1.33,1.44,-0.31,-0.29,-0.31
64.71,-1.78,-1.47,-1.77,-1.47,1.47,1.30,1.40,-0.31,-0.30,-0.31
65.35,-1.76,-1.44,-1.76,-1.45,1.45,1.27,1.36,-0.31,-0.31,-0.32
66.01,-1.75,-1.43,-1.75,-1.43,1.43,1.24,1.33,-0.31,-0.32,-0.32
66.67,-1.74,-1.42,-1.74,-1.42,1.42,1.21,1.29,-0.32,-0.32,-0.32
67.33,-1.72,-1.40,-1.72,-1.40,1.40,1.18,1.25,-0.32,-0.32,-0.32
68.01,-1.70,-1.38,-1.69,-1.37,1.37,1.15,1.22,-0.33,-0.32,-0.32
68.69,-1.67,-1.35,-1.66,-1.35,1.35,1.12,1.18,-0.32,-0.32,-0.32
69.37,-1.64,-1.33,-1.63,-1.32,1.32,1.09,1.15,-0.32,-0.31,-0.31
70.07,-1.61,-1.30,-1.60,-1.29,1.29,1.06,1.12,-0.32,-0.31,-0.31
70.77,-1.57,-1.27,-1.57,-1.26,1.26,1.03,1.08,-0.31,-0.31,-0.29
71.48,-1.54,-1.24,-1.53,-1.22,1.22,1.01,1.05,-0.32,-0.31,-0.30
72.19,-1.50,-1.20,-1.49,-1.19,1.19,0.98,1.02,-0.31,-0.30,-0.30
72.91,-1.46,-1.16,-1.45,-1.15,1.15,0.95,0.98,-0.31,-0.30,-0.30
73.64,-1.41,-1.11,-1.41,-1.11,1.11,0.93,0.95,-0.30,-0.30,-0.30
74.38,-1.37,-1.07,-1.38,-1.08,1.08,0.90,0.92,-0.29,-0.30,-0.30
75.12,-1.33,-1.03,-1.34,-1.04,1.04,0.88,0.89,-0.29,-0.30,-0.30
75.87,-1.30,-1.00,-1.31,-1.01,1.01,0.85,0.86,-0.29,-0.30,-0.30
76.63,-1.26,-0.96,-1.27,-0.97,0.97,0.83,0.83,-0.28,-0.30,-0.30
77.40,-1.24,-0.94,-1.24,-0.94,0.94,0.81,0.80,-0.29,-0.30,-0.30
78.17,-1.21,-0.90,-1.22,-0.92,0.92,0.78,0.77,-0.29,-0.30,-0.31
78.95,-1.19,-0.90,-1.19,-0.90,0.90,0.76,0.74,-0.29,-0.29,-0.29
79.74,-1.18,-0.89,-1.17,-0.88,0.88,0.74,0.71,-0.29,-0.29,-0.29
80.54,-1.17,-0.88,-1.16,-0.88,0.88,0.71,0.68,-0.29,-0.28,-0.29
81.35,-1.15,-0.87,-1.15,-0.88,0.88,0.69,0.65,-0.27,-0.27,-0.28
82.16,-1.14,-0.87,-1.14,-0.88,0.88,0.67,0.62,-0.26,-0.26,-0.27
82.98,-1.12,-0.87,-1.14,-0.89,0.89,0.65,0.60,-0.23,-0.25,-0.25
83.81,-1.12,-0.87,-1.14,-0.90,0.90,0.63,0.57,-0.22,-0.24,-0.25
84.65,-1.12,-0.88,-1.14,-0.91,0.91,0.61,0.54,-0.21,-0.23,-0.24
85.50,-1.13,-0.92,-1.14,-0.93,0.93,0.58,0.52,-0.20,-0.21,-0.21
86.35,-1.14,-0.94,-1.14,-0.94,0.94,0.56,0.49,-0.20,-0.20,-0.20
87.22,-1.15,-0.96,-1.15,-0.96,0.96,0.54,0.46,-0.19,-0.19,-0.19
88.09,-1.16,-0.98,-1.15,-0.97,0.97,0.52,0.44,-0.19,-0.18,-0.18
88.97,-1.17,-1.01,-1.14,-0.97,0.97,0.50,0.41,-0.20,-0.17,-0.16
89.86,-1.16,-1.00,-1.14,-0.97,0.97,0.48,0.39,-0.18,-0.16,-0.16
90.76,-1.15,-0.99,-1.13,-0.97,0.97,0.46,0.36,-0.18,-0.16,-0.16
91.66,-1.14,-0.98,-1.12,-0.95,0.95,0.44,0.34,-0.18,-0.17,-0.16
92.58,-1.12,-0.94,-1.11,-0.93,0.93,0.42,0.31,-0.19,-0.17,-0.18
93.51,-1.09,-0.92,-1.08,-0.90,0.90,0.40,0.29,-0.19,-0.19,-0.17
94.44,-1.07,-0.88,-1.06,-0.86,0.86,0.38,0.26,-0.21,-0.20,-0.19
95.39,-1.04,-0.83,-1.03,-0.81,0.81,0.36,0.24,-0.23,-0.22,-0.21
96.34,-1.01,-0.77,-1.00,-0.76,0.76,0.35,0.21,-0.25,-0.25,-0.24
97.30,-0.97,-0.69,-0.97,-0.70,0.70,0.33,0.19,-0.27,-0.28,-0.28
98.28,-0.94,-0.64,-0.94,-0.64,0.64,0.31,0.17,-0.30,-0.31,-0.30
99.26,-0.91,-0.57,-0.91,-0.57,0.57,0.29,0.14,-0.34,-0.34,-0.34
100.25,-0.88,-0.50,-0.89,-0.51,0.51,0.27,0.12,-0.37,-0.38,-0.38
101.25,-0.85,-0.43,-0.87,-0.45,0.45,0.25,0.10,-0.40,-0.42,-0.42
102.27,-0.83,-0.37,-0.85,-0.39,0.39,0.23,0.07,-0.44,-0.46,-0.46
103.29,-0.82,-0.31,-0.83,-0.33,0.33,0.21,0.05,-0.49,-0.50,-0.51
104.32,-0.81,-0.27,-0.82,-0.28,0.28,0.19,0.03,-0.53,-0.54,-0.54
105.37,-0.80,-0.21,-0.81,-0.23,0.23,0.17,0.01,-0.57,-0.58,-0.59
106.42,-0.80,-0.17,-0.81,-0.18,0.18,0.15,-0.02,-0.62,-0.63,-0.63
107.48,-0.80,-0.13,-0.80,-0.14,0.14,0.14,-0.04,-0.66,-0.67,-0.67
108.56,-0.82,-0.11,-0.80,-0.10,0.10,0.12,-0.06,-0.72,-0.70,-0.71
109.64,-0.82,-0.07,-0.81,-0.06,0.06,0.10,-0.08,-0.76,-0.74,-0.75
110.74,-0.82,-0.04,-0.81,-0.03,0.03,0.08,-0.10,-0.79,-0.78,-0.78
111.85,-0.82,-0.02,-0.82,-0.00,0.00,0.06,-0.12,-0.81,-0.81,-0.80
112.97,-0.82,0.03,-0.82,0.02,-0.02,0.04,-0.14,-0.84,-0.85,-0.85
114.10,-0.82,0.05,-0.83,0.05,-0.05,0.02,-0.16,-0.86,-0.88,-0.87
115.24,-0.82,0.09,-0.83,0.07,-0.07,-0.00,-0.18,-0.89,-0.90,-0.91
116.39,-0.83,0.11,-0.84,0.09,-0.09,-0.02,-0.20,-0.92,-0.93,-0.94
117.55,-0.83,0.13,-0.84,0.11,-0.11,-0.05,-0.22,-0.94,-0.95,-0.96
118.73,-0.84,0.14,-0.83,0.14,-0.14,-0.07,-0.24,-0.98,-0.97,-0.98
119.92,-0.84,0.15,-0.82,0.17,-0.17,-0.09,-0.25,-1.01,-0.99,-0.99
121.12,-0.83,0.18,-0.81,0.19,-0.19,-0.11,-0.27,-1.02,-1.01,-1.01
122.33,-0.82,0.20,-0.80,0.22,-0.22,-0.13,-0.29,-1.04,-1.02,-1.02
123.55,-0.80,0.23,-0.78,0.26,-0.26,-0.15,-0.30,-1.06,-1.03,-1.03
124.79,-0.77,0.27,-0.76,0.29,-0.29,-0.18,-0.32,-1.06,-1.05,-1.04
126.03,-0.74,0.31,-0.73,0.33,-0.33,-0.20,-0.34,-1.06,-1.06,-1.05
127.29,-0.71,0.35,-0.70,0.37,-0.37,-0.22,-0.35,-1.08,-1.07,-1.06
128.57,-0.68,0.41,-0.67,0.41,-0.41,-0.25,-0.36,-1.09,-1.08,-1.09
129.85,-0.64,0.45,-0.64,0.45,-0.45,-0.27,-0.38,-1.09,-1.09,-1.09
131.15,-0.60,0.50,-0.61,0.49,-0.49,-0.30,-0.39,-1.09,-1.11,-1.10
132.46,-0.58,0.55,-0.58,0.54,-0.54,-0.32,-0.41,-1.12,-1.12,-1.13
133.79,-0.55,0.58,-0.56,0.58,-0.58,-0.35,-0.42,-1.13,-1.14,-1.13
135.12,-0.52,0.63,-0.54,0.61,-0.61,-0.37,-0.43,-1.13,-1.15,-1.15
136.48,-0.51,0.65,-0.52,0.65,-0.65,-0.40,-0.44,-1.16,-1.17,-1.16
137.84,-0.48,0.70,-0.50,0.68,-0.68,-0.43,-0.46,-1.16,-1.18,-1.18
139.22,-0.47,0.74,-0.49,0.71,-0.71,-0.46,-0.47,-1.18,-1.20,-1.21
140.61,-0.48,0.75,-0.49,0.74,-0.74,-0.49,-0.48,-1.21,-1.22,-1.23
142.02,-0.48,0.76,-0.48,0.76,-0.76,-0.52,-0.49,-1.24,-1.24,-1.24
143.44,-0.49,0.77,-0.48,0.78,-0.78,-0.55,-0.51,-1.27,-1.26,-1.26
144.87,-0.49,0.79,-0.48,0.80,-0.80,-0.58,-0.52,-1.29,-1.28,-1.28
146.32,-0.50,0.81,-0.48,0.82,-0.82,-0.61,-0.53,-1.32,-1.31,-1.31
147.78,-0.50,0.83,-0.49,0.84,-0.84,-0.64,-0.54,-1.34,-1.33,-1.33
149.26,-0.50,0.85,-0.49,0.87,-0.87,-0.67,-0.56,-1.37,-1.36,-1.35
150.75,-0.50,0.89,-0.49,0.89,-0.89,-0.71,-0.57,-1.39,-1.38,-1.39
152.26,-0.50,0.91,-0.50,0.92,-0.92,-0.74,-0.58,-1.41,-1.41,-1.41
153.78,-0.50,0.94,-0.50,0.94,-0.94,-0.78,-0.60,-1.44,-1.44,-1.44
155.32,-0.50,0.97,-0.50,0.97,-0.97,-0.81,-0.61,-1.47,-1.47,-1.47
156.88,-0.50,0.99,-0.50,1.00,-1.00,-0.85,-0.63,-1.50,-1.50,-1.49
158.44,-0.50,1.03,-0.50,1.03,-1.03,-0.88,-0.64,-1.53,-1.53,-1.53
160.03,-0.50,1.07,-0.50,1.07,-1.07,-0.92,-0.66,-1.57,-1.57,-1.56
161.63,-0.50,1.11,-0.50,1.10,-1.10,-0.96,-0.68,-1.60,-1.60,-1.61
163.24,-0.50,1.14,-0.50,1.13,-1.13,-1.00,-0.69,-1.63,-1.63,-1.64
164.88,-0.50,1.17,-0.50,1.16,-1.16,-1.04,-0.71,-1.66,-1.66,-1.67
166.53,-0.50,1.20,-0.50,1.19,-1.19,-1.08,-0.73,-1.69,-1.69,-1.70
168.19,-0.50,1.22,-0.50,1.22,-1.22,-1.11,-0.75,-1.72,-1.72,-1.72
169.87,-0.50,1.25,-0.50,1.25,-1.25,-1.15,-0.77,-1.75,-1.75,-1.75
171.57,-0.50,1.28,-0.50,1.28,-1.28,-1.19,-0.79,-1.78,-1.78,-1.78
173.29,-0.50,1.31,-0.50,1.31,-1.31,-1.23,-0.81,-1.81,-1.81,-1.81
175.02,-0.50,1.33,-0.50,1.33,-1.33,-1.27,-0.83,-1.83,-1.83,-1.83
176.77,-0.50,1.36,-0.50,1.36,-1.36,-1.31,-0.86,-1.86,-1.86,-1.86
178.54,-0.50,1.39,-0.50,1.38,-1.38,-1.35,-0.88,-1.88,-1.88,-1.88
180.32,-0.50,1.40,-0.50,1.39,-1.39,-1.39,-0.90,-1.89,-1.89,-1.90
182.13,-0.50,1.42,-0.50,1.41,-1.41,-1.42,-0.93,-1.91,-1.91,-1.91
183.95,-0.50,1.43,-0.50,1.43,-1.43,-1.46,-0.95,-1.93,-1.93,-1.93
185.79,-0.50,1.44,-0.50,1.44,-1.44,-1.49,-0.98,-1.94,-1.94,-1.94
187.65,-0.50,1.46,-0.50,1.45,-1.45,-1.53,-1.01,-1.95,-1.95,-1.96
189.52,-0.50,1.46,-0.50,1.46,-1.46,-1.56,-1.03,-1.96,-1.96,-1.96
191.42,-0.50,1.47,-0.50,1.47,-1.47,-1.58,-1.06,-1.97,-1.97,-1.97
193.33,-0.50,1.47,-0.50,1.48,-1.48,-1.61,-1.09,-1.98,-1.98,-1.97
195.27,-0.50,1.48,-0.50,1.49,-1.49,-1.64,-1.12,-1.99,-1.99,-1.98
197.22,-0.50,1.49,-0.50,1.49,-1.49,-1.66,-1.15,-1.99,-1.99,-1.99
199.19,-0.50,1.51,-0.50,1.50,-1.50,-1.68,-1.18,-2.00,-2.00,-2.01
201.18,-0.50,1.51,-0.50,1.51,-1.51,-1.69,-1.21,-2.00,-2.00,-2.01
203.19,-0.50,1.51,-0.50,1.51,-1.51,-1.70,-1.24,-2.01,-2.01,-2.01
205.23,-0.50,1.52,-0.50,1.52,-1.52,-1.71,-1.27,-2.02,-2.02,-2.02
207.28,-0.50,1.52,-0.50,1.52,-1.52,-1.72,-1.30,-2.02,-2.02,-2.02
209.35,-0.50,1.53,-0.50,1.53,-1.53,-1.73,-1.33,-2.03,-2.03,-2.03
211.44,-0.50,1.55,-0.50,1.54,-1.54,-1.73,-1.36,-2.04,-2.04,-2.05
213.56,-0.50,1.54,-0.50,1.54,-1.54,-1.72,-1.39,-2.04,-2.04,-2.04
215.69,-0.50,1.54,-0.50,1.55,-1.55,-1.72,-1.42,-2.05,-2.05,-2.04
217.85,-0.50,1.56,-0.49,1.56,-1.56,-1.71,-1.44,-2.06,-2.06,-2.06
220.03,-0.50,1.57,-0.49,1.58,-1.58,-1.70,-1.47,-2.07,-2.07,-2.07
222.23,-0.50,1.59,-0.49,1.59,-1.59,-1.68,-1.50,-2.09,-2.07,-2.09
224.45,-0.50,1.58,-0.48,1.60,-1.60,-1.67,-1.52,-2.10,-2.08,-2.08
226.70,-0.49,1.60,-0.48,1.62,-1.62,-1.65,-1.54,-2.11,-2.10,-2.09
228.96,-0.49,1.61,-0.48,1.63,-1.63,-1.62,-1.56,-2.12,-2.11,-2.10
231.25,-0.48,1.62,-0.48,1.64,-1.64,-1.60,-1.58,-2.12,-2.12,-2.10
233.57,-0.47,1.65,-0.48,1.64,-1.64,-1.58,-1.60,-2.11,-2.13,-2.12
235.90,-0.47,1.67,-0.49,1.65,-1.65,-1.55,-1.61,-2.12,-2.14,-2.13
238.26,-0.48,1.67,-0.50,1.65,-1.65,-1.52,-1.62,-2.13,-2.15,-2.15
240.64,-0.50,1.67,-0.51,1.64,-1.64,-1.49,-1.63,-2.14,-2.16,-2.17
243.05,-0.51,1.66,-0.53,1.63,-1.63,-1.46,-1.64,-2.14,-2.17,-2.17
245.48,-0.54,1.64,-0.56,1.62,-1.62,-1.43,-1.65,-2.16,-2.17,-2.18
247.93,-0.58,1.60,-0.58,1.60,-1.60,-1.40,-1.65,-2.17,-2.18,-2.18
250.41,-0.60,1.60,-0.61,1.57,-1.57,-1.37,-1.65,-2.17,-2.18,-2.20
252.92,-0.65,1.53,-0.64,1.54,-1.54,-1.34,-1.64,-2.19,-2.18,-2.18
255.45,-0.67,1.51,-0.67,1.50,-1.50,-1.30,-1.64,-2.17,-2.17,-2.18
258.00,-0.70,1.47,-0.70,1.47,-1.47,-1.27,-1.63,-2.17,-2.17,-2.17
260.58,-0.74,1.42,-0.72,1.43,-1.43,-1.24,-1.62,-2.17,-2.16,-2.16
263.19,-0.77,1.38,-0.75,1.40,-1.40,-1.21,-1.60,-2.17,-2.15,-2.15
265.82,-0.80,1.34,-0.77,1.37,-1.37,-1.18,-1.58,-2.17,-2.13,-2.14
268.48,-0.82,1.30,-0.78,1.34,-1.34,-1.15,-1.57,-2.16,-2.12,-2.12
271.16,-0.83,1.27,-0.80,1.31,-1.31,-1.12,-1.54,-2.14,-2.10,-2.10
273.87,-0.83,1.25,-0.81,1.28,-1.28,-1.09,-1.52,-2.11,-2.09,-2.08
276.61,-0.82,1.24,-0.82,1.25,-1.25,-1.06,-1.50,-2.07,-2.07,-2.06
279.38,-0.81,1.24,-0.83,1.22,-1.22,-1.03,-1.47,-2.03,-2.05,-2.05
282.17,-0.81,1.22,-0.84,1.19,-1.19,-1.00,-1.44,-2.00,-2.03,-2.03
284.99,-0.82,1.20,-0.85,1.16,-1.16,-0.98,-1.41,-1.98,-2.02,-2.01
287.84,-0.84,1.16,-0.87,1.13,-1.13,-0.95,-1.38,-1.97,-2.00,-2.00
290.72,-0.87,1.10,-0.89,1.09,-1.09,-0.93,-1.35,-1.96,-1.98,-1.97
293.63,-0.89,1.07,-0.91,1.05,-1.05,-0.90,-1.31,-1.94,-1.96,-1.96
296.57,-0.92,1.02,-0.93,1.00,-1.00,-0.88,-1.28,-1.92,-1.94,-1.94
299.53,-0.96,0.96,-0.96,0.96,-0.96,-0.86,-1.24,-1.92,-1.91,-1.92
302.53,-0.99,0.92,-0.99,0.90,-0.90,-0.83,-1.21,-1.89,-1.89,-1.91
305.55,-1.02,0.85,-1.02,0.85,-0.85,-0.81,-1.17,-1.87,-1.87,-1.87
308.61,-1.06,0.79,-1.05,0.80,-0.80,-0.79,-1.14,-1.86,-1.85,-1.85
311.69,-1.09,0.74,-1.07,0.75,-0.75,-0.77,-1.10,-1.84,-1.83,-1.83
314.81,-1.11,0.68,-1.10,0.71,-0.71,-0.75,-1.07,-1.82,-1.80,-1.79
317.96,-1.13,0.64,-1.12,0.66,-0.66,-0.74,-1.03,-1.79,-1.78,-1.77
321.14,-1.15,0.60,-1.13,0.62,-0.62,-0.72,-1.00,-1.77,-1.76,-1.75
324.35,-1.17,0.56,-1.14,0.59,-0.59,-0.70,-0.96,-1.76,-1.73,-1.73
327.59,-1.17,0.54,-1.15,0.56,-0.56,-0.69,-0.93,-1.73,-1.71,-1.71
330.87,-1.16,0.53,-1.15,0.53,-0.53,-0.67,-0.89,-1.69,-1.68,-1.69
334.18,-1.15,0.51,-1.16,0.50,-0.50,-0.66,-0.86,-1.65,-1.66,-1.66
337.52,-1.14,0.50,-1.16,0.48,-0.48,-0.64,-0.82,-1.61,-1.63,-1.64
340.90,-1.14,0.47,-1.15,0.45,-0.45,-0.63,-0.79,-1.59,-1.61,-1.61
344.30,-1.14,0.44,-1.15,0.43,-0.43,-0.61,-0.76,-1.57,-1.58,-1.58
347.75,-1.14,0.42,-1.15,0.41,-0.41,-0.60,-0.72,-1.55,-1.56,-1.56
351.23,-1.14,0.40,-1.14,0.39,-0.39,-0.59,-0.69,-1.53,-1.54,-1.54
354.74,-1.14,0.37,-1.14,0.37,-0.37,-0.58,-0.66,-1.51,-1.51,-1.51
358.28,-1.14,0.35,-1.14,0.35,-0.35,-0.57,-0.63,-1.49,-1.48,-1.49
361.87,-1.14,0.32,-1.14,0.32,-0.32,-0.56,-0.60,-1.46,-1.46,-1.46
365.49,-1.14,0.29,-1.14,0.30,-0.30,-0.55,-0.57,-1.44,-1.43,-1.43
369.14,-1.14,0.28,-1.14,0.27,-0.27,-0.54,-0.54,-1.41,-1.41,-1.42
372.83,-1.14,0.25,-1.14,0.25,-0.25,-0.53,-0.51,-1.39,-1.39,-1.39
376.56,-1.14,0.23,-1.14,0.23,-0.23,-0.52,-0.48,-1.37,-1.37,-1.37
380.33,-1.14,0.19,-1.14,0.21,-0.21,-0.51,-0.46,-1.34,-1.34,-1.33
384.13,-1.14,0.19,-1.14,0.18,-0.18,-0.51,-0.43,-1.32,-1.33,-1.32
387.97,-1.14,0.17,-1.14,0.16,-0.16,-0.50,-0.40,-1.30,-1.31,-1.31
391.85,-1.14,0.16,-1.15,0.14,-0.14,-0.49,-0.38,-1.28,-1.29,-1.30
395.77,-1.14,0.13,-1.15,0.13,-0.13,-0.49,-0.35,-1.27,-1.28,-1.27
399.73,-1.14,0.12,-1.15,0.11,-0.11,-0.48,-0.33,-1.25,-1.27,-1.26
403.72,-1.15,0.11,-1.16,0.10,-0.10,-0.48,-0.30,-1.25,-1.26,-1.26
407.76,-1.15,0.10,-1.16,0.09,-0.09,-0.47,-0.28,-1.24,-1.25,-1.25
411.84,-1.16,0.08,-1.16,0.09,-0.09,-0.47,-0.26,-1.25,-1.24,-1.24
415.96,-1.17,0.07,-1.16,0.09,-0.09,-0.46,-0.24,-1.26,-1.24,-1.24
420.12,-1.16,0.08,-1.15,0.09,-0.09,-0.46,-0.21,-1.25,-1.24,-1.24
424.32,-1.15,0.09,-1.14,0.10,-0.10,-0.45,-0.19,-1.25,-1.24,-1.24
428.56,-1.14,0.10,-1.13,0.12,-0.12,-0.45,-0.17,-1.25,-1.25,-1.24
432.85,-1.12,0.13,-1.11,0.14,-0.14,-0.44,-0.16,-1.25,-1.25,-1.25
