frequency,raw,error,smoothed,error_smoothed,equalization,parametric_eq,fixed_band_eq,equalized_raw,equalized_smoothed,target
20.00,10.36,5.06,10.36,5.06,-5.07,-5.11,-1.71,5.29,5.29,5.29
20.20,10.34,5.05,10.33,5.05,-5.05,-5.09,-1.76,5.28,5.28,5.28
20.40,10.32,5.04,10.31,5.04,-5.04,-5.07,-1.81,5.28,5.27,5.27
20.61,10.29,5.01,10.29,5.02,-5.02,-5.05,-1.87,5.26,5.27,5.27
20.81,10.27,5.01,10.27,5.01,-5.01,-5.02,-1.93,5.26,5.26,5.25
21.02,10.25,4.99,10.24,4.99,-4.99,-5.00,-1.98,5.26,5.26,5.25
21.23,10.22,4.97,10.22,4.97,-4.97,-4.97,-2.04,5.25,5.25,5.24
21.44,10.18,4.93,10.19,4.94,-4.94,-4.95,-2.11,5.24,5.24,5.25
21.66,10.16,4.92,10.15,4.92,-4.92,-4.92,-2.17,5.24,5.24,5.24
21.87,10.12,4.90,10.12,4.89,-4.89,-4.89,-2.23,5.23,5.23,5.23
22.09,10.09,4.87,10.09,4.87,-4.87,-4.86,-2.30,5.22,5.22,5.22
22.31,10.05,4.84,10.05,4.84,-4.84,-4.82,-2.37,5.22,5.21,5.22
22.54,10.02,4.81,10.02,4.81,-4.81,-4.79,-2.44,5.21,5.21,5.21
22.76,9.99,4.78,9.98,4.78,-4.78,-4.76,-2.51,5.21,5.21,5.21
22.99,9.95,4.75,9.95,4.75,-4.74,-4.72,-2.59,5.20,5.20,5.20
23.22,9.91,4.72,9.90,4.71,-4.71,-4.68,-2.66,5.20,5.20,5.19
23.45,9.86,4.66,9.86,4.67,-4.66,-4.65,-2.74,5.19,5.19,5.20
23.69,9.81,4.62,9.81,4.62,-4.61,-4.61,-2.82,5.19,5.20,5.19
23.92,9.76,4.58,9.76,4.57,-4.56,-4.57,-2.90,5.20,5.20,5.19
24.16,9.71,4.52,9.71,4.52,-4.52,-4.53,-2.98,5.20,5.20,5.19
24.40,9.66,4.46,9.66,4.46,-4.47,-4.49,-3.07,5.19,5.19,5.20
24.65,9.62,4.41,9.61,4.41,-4.43,-4.45,-3.15,5.19,5.18,5.20
24.89,9.56,4.36,9.57,4.37,-4.40,-4.41,-3.24,5.17,5.17,5.20
25.14,9.54,4.33,9.54,4.34,-4.36,-4.37,-3.32,5.17,5.18,5.20
25.39,9.53,4.32,9.53,4.33,-4.33,-4.33,-3.41,5.20,5.20,5.20
25.65,9.52,4.32,9.52,4.31,-4.29,-4.29,-3.50,5.22,5.23,5.20
25.91,9.51,4.30,9.50,4.29,-4.25,-4.24,-3.58,5.25,5.25,5.21
26.16,9.46,4.25,9.46,4.24,-4.21,-4.20,-3.67,5.25,5.25,5.22
26.43,9.40,4.18,9.40,4.18,-4.17,-4.16,-3.76,5.23,5.23,5.22
26.69,9.33,4.11,9.33,4.11,-4.12,-4.12,-3.84,5.20,5.20,5.22
26.96,9.26,4.04,9.27,4.05,-4.08,-4.07,-3.92,5.18,5.19,5.22
27.23,9.23,4.01,9.22,4.01,-4.03,-4.03,-4.01,5.19,5.19,5.21
27.50,9.20,3.98,9.19,3.97,-3.99,-3.99,-4.08,5.20,5.20,5.21
27.77,9.16,3.94,9.17,3.95,-3.95,-3.94,-4.16,5.21,5.21,5.22
28.05,9.14,3.91,9.14,3.92,-3.92,-3.90,-4.23,5.21,5.22,5.22
28.33,9.12,3.91,9.11,3.90,-3.89,-3.86,-4.30,5.22,5.22,5.21
28.62,9.09,3.88,9.09,3.88,-3.86,-3.81,-4.37,5.23,5.23,5.21
28.90,9.06,3.84,9.05,3.84,-3.82,-3.77,-4.42,5.24,5.23,5.22
29.19,9.01,3.79,9.00,3.79,-3.77,-3.73,-4.48,5.23,5.23,5.22
29.48,8.94,3.73,8.95,3.73,-3.72,-3.68,-4.53,5.22,5.22,5.21
29.78,8.89,3.67,8.89,3.67,-3.67,-3.64,-4.57,5.21,5.22,5.21
30.08,8.83,3.61,8.83,3.61,-3.62,-3.60,-4.60,5.20,5.21,5.22
30.38,8.78,3.57,8.77,3.56,-3.58,-3.55,-4.63,5.20,5.19,5.21
30.68,8.72,3.52,8.72,3.51,-3.54,-3.51,-4.65,5.17,5.17,5.20
30.99,8.67,3.47,8.68,3.49,-3.51,-3.47,-4.66,5.15,5.17,5.20
31.30,8.66,3.47,8.66,3.47,-3.48,-3.43,-4.67,5.17,5.18,5.18
31.61,8.66,3.47,8.65,3.47,-3.46,-3.39,-4.67,5.20,5.20,5.18
31.93,8.65,3.48,8.63,3.46,-3.43,-3.35,-4.66,5.22,5.20,5.17
32.24,8.59,3.43,8.59,3.43,-3.40,-3.30,-4.64,5.20,5.19,5.17
32.57,8.53,3.37,8.53,3.37,-3.36,-3.26,-4.62,5.16,5.17,5.16
32.89,8.45,3.30,8.46,3.31,-3.32,-3.22,-4.59,5.14,5.15,5.15
33.22,8.41,3.25,8.41,3.26,-3.26,-3.18,-4.55,5.14,5.15,5.15
33.55,8.35,3.21,8.36,3.20,-3.20,-3.14,-4.50,5.16,5.16,5.15
33.89,8.31,3.15,8.30,3.15,-3.14,-3.10,-4.46,5.17,5.16,5.16
34.23,8.24,3.09,8.23,3.08,-3.08,-3.07,-4.40,5.15,5.15,5.14
34.57,8.16,3.02,8.15,3.01,-3.03,-3.03,-4.34,5.12,5.12,5.14
34.92,8.08,2.94,8.09,2.95,-2.99,-2.99,-4.28,5.09,5.10,5.14
35.27,8.06,2.91,8.06,2.92,-2.95,-2.95,-4.21,5.11,5.12,5.14
35.62,8.05,2.91,8.05,2.91,-2.90,-2.91,-4.15,5.14,5.14,5.13
35.97,8.04,2.92,8.02,2.90,-2.86,-2.88,-4.07,5.18,5.16,5.13
36.33,7.97,2.86,7.97,2.86,-2.83,-2.84,-4.00,5.15,5.14,5.11
36.70,7.90,2.80,7.90,2.80,-2.80,-2.80,-3.92,5.10,5.11,5.10
37.06,7.82,2.74,7.83,2.75,-2.77,-2.77,-3.85,5.06,5.06,5.09
37.43,7.78,2.72,7.78,2.71,-2.74,-2.73,-3.77,5.04,5.04,5.06
37.81,7.74,2.69,7.74,2.69,-2.71,-2.70,-3.69,5.02,5.02,5.05
38.19,7.70,2.67,7.70,2.68,-2.68,-2.66,-3.61,5.02,5.02,5.03
38.57,7.67,2.66,7.67,2.67,-2.65,-2.63,-3.53,5.02,5.02,5.00
38.95,7.63,2.66,7.62,2.65,-2.62,-2.60,-3.46,5.02,5.00,4.98
39.34,7.56,2.62,7.56,2.61,-2.59,-2.56,-3.38,4.97,4.97,4.94
39.74,7.49,2.56,7.49,2.57,-2.56,-2.53,-3.30,4.92,4.93,4.93
40.14,7.42,2.51,7.42,2.52,-2.54,-2.50,-3.23,4.88,4.88,4.90
40.54,7.36,2.48,7.35,2.47,-2.50,-2.47,-3.16,4.85,4.85,4.88
40.94,7.30,2.44,7.31,2.45,-2.47,-2.43,-3.08,4.83,4.84,4.85
41.35,7.27,2.43,7.27,2.44,-2.44,-2.40,-3.01,4.83,4.83,4.84
41.76,7.24,2.45,7.23,2.43,-2.41,-2.37,-2.95,4.84,4.83,4.80
42.18,7.19,2.41,7.18,2.40,-2.38,-2.34,-2.88,4.82,4.80,4.78
42.60,7.11,2.35,7.12,2.35,-2.35,-2.31,-2.81,4.76,4.76,4.77
43.03,7.04,2.29,7.05,2.31,-2.33,-2.28,-2.75,4.71,4.73,4.74
43.46,7.00,2.28,7.00,2.28,-2.29,-2.25,-2.69,4.70,4.70,4.71
43.90,6.97,2.27,6.96,2.27,-2.26,-2.23,-2.63,4.70,4.70,4.70
44.33,6.91,2.25,6.92,2.25,-2.23,-2.20,-2.58,4.69,4.69,4.67
44.78,6.87,2.22,6.86,2.21,-2.20,-2.17,-2.52,4.67,4.66,4.64
45.23,6.80,2.16,6.79,2.17,-2.18,-2.14,-2.47,4.62,4.62,4.63
45.68,6.73,2.13,6.73,2.13,-2.16,-2.12,-2.42,4.57,4.57,4.60
46.13,6.67,2.11,6.68,2.12,-2.13,-2.09,-2.37,4.53,4.55,4.56
46.60,6.65,2.12,6.64,2.11,-2.11,-2.06,-2.32,4.54,4.53,4.53
47.06,6.62,2.12,6.60,2.10,-2.09,-2.04,-2.28,4.53,4.51,4.50
47.53,6.55,2.08,6.55,2.09,-2.07,-2.01,-2.23,4.48,4.48,4.47
48.01,6.48,2.06,6.48,2.05,-2.05,-1.99,-2.19,4.43,4.43,4.42
48.49,6.41,2.03,6.40,2.02,-2.03,-1.96,-2.15,4.38,4.37,4.38
48.97,6.33,1.99,6.34,2.00,-2.01,-1.94,-2.12,4.31,4.33,4.34
49.46,6.29,1.98,6.28,1.98,-1.99,-1.92,-2.08,4.29,4.29,4.31
49.96,6.24,1.99,6.23,1.97,-1.97,-1.89,-2.05,4.26,4.26,4.25
50.46,6.18,1.96,6.18,1.96,-1.95,-1.87,-2.01,4.22,4.22,4.22
50.96,6.12,1.93,6.12,1.94,-1.94,-1.85,-1.98,4.18,4.18,4.18
51.47,6.07,1.92,6.07,1.92,-1.92,-1.82,-1.95,4.14,4.14,4.15
51.99,6.03,1.92,6.02,1.91,-1.91,-1.80,-1.92,4.12,4.11,4.11
52.51,5.97,1.89,5.97,1.89,-1.89,-1.78,-1.90,4.08,4.08,4.07
53.03,5.92,1.87,5.91,1.87,-1.87,-1.76,-1.87,4.05,4.05,4.05
53.56,5.85,1.84,5.85,1.84,-1.84,-1.74,-1.84,4.00,4.01,4.00
54.10,5.79,1.83,5.78,1.82,-1.81,-1.72,-1.82,3.97,3.97,3.96
54.64,5.72,1.79,5.72,1.80,-1.79,-1.70,-1.80,3.93,3.93,3.92
55.18,5.64,1.77,5.65,1.77,-1.76,-1.68,-1.77,3.88,3.88,3.88
55.74,5.58,1.73,5.57,1.73,-1.74,-1.66,-1.75,3.84,3.83,3.84
56.29,5.51,1.69,5.50,1.69,-1.72,-1.64,-1.73,3.79,3.79,3.81
56.86,5.45,1.66,5.46,1.68,-1.69,-1.62,-1.71,3.75,3.77,3.79
57.42,5.42,1.68,5.42,1.67,-1.67,-1.60,-1.69,3.75,3.75,3.74
58.00,5.41,1.69,5.38,1.66,-1.64,-1.58,-1.67,3.76,3.74,3.72
58.58,5.34,1.64,5.34,1.64,-1.62,-1.56,-1.65,3.72,3.72,3.70
59.16,5.26,1.60,5.27,1.60,-1.60,-1.54,-1.63,3.67,3.68,3.67
59.76,5.21,1.57,5.20,1.57,-1.57,-1.53,-1.61,3.63,3.63,3.64
60.35,5.13,1.55,5.13,1.54,-1.55,-1.51,-1.59,3.58,3.58,3.59
60.96,5.07,1.52,5.07,1.53,-1.53,-1.49,-1.57,3.53,3.54,3.54
61.57,5.01,1.51,5.00,1.51,-1.52,-1.47,-1.55,3.49,3.48,3.49
62.18,4.95,1.51,4.94,1.50,-1.51,-1.46,-1.53,3.43,3.43,3.44
62.80,4.88,1.49,4.88,1.49,-1.51,-1.44,-1.51,3.36,3.37,3.38
63.43,4.84,1.50,4.84,1.50,-1.52,-1.43,-1.49,3.32,3.32,3.34
64.07,4.82,1.51,4.82,1.52,-1.53,-1.41,-1.47,3.29,3.29,3.30
64.71,4.82,1.56,4.80,1.55,-1.53,-1.39,-1.45,3.28,3.27,3.26
65.35,4.77,1.56,4.77,1.55,-1.53,-1.38,-1.43,3.25,3.24,3.22
66.01,4.72,1.54,4.72,1.54,-1.52,-1.36,-1.40,3.20,3.20,3.17
66.67,4.65,1.50,4.66,1.52,-1.50,-1.35,-1.38,3.14,3.16,3.14
67.33,4.58,1.50,4.58,1.50,-1.48,-1.33,-1.36,3.11,3.10,3.08
68.01,4.52,1.47,4.50,1.45,-1.45,-1.32,-1.34,3.06,3.04,3.04
68.69,4.40,1.41,4.40,1.41,-1.43,-1.31,-1.32,2.97,2.98,2.99
69.37,4.30,1.35,4.32,1.36,-1.40,-1.29,-1.30,2.90,2.91,2.96
70.07,4.25,1.34,4.26,1.35,-1.38,-1.28,-1.28,2.87,2.88,2.91
70.77,4.23,1.36,4.23,1.37,-1.36,-1.26,-1.26,2.86,2.86,2.86
71.48,4.21,1.39,4.18,1.37,-1.35,-1.25,-1.23,2.85,2.83,2.82
72.19,4.15,1.38,4.13,1.36,-1.35,-1.24,-1.21,2.80,2.78,2.76
72.91,4.03,1.31,4.07,1.35,-1.35,-1.22,-1.19,2.68,2.72,2.71
73.64,4.02,1.35,4.01,1.34,-1.35,-1.21,-1.17,2.67,2.66,2.67
74.38,3.99,1.36,3.97,1.34,-1.35,-1.20,-1.15,2.64,2.62,2.63
75.12,3.93,1.34,3.93,1.34,-1.34,-1.19,-1.13,2.58,2.59,2.58
75.87,3.87,1.31,3.88,1.33,-1.33,-1.17,-1.11,2.54,2.55,2.55
76.63,3.83,1.32,3.83,1.32,-1.31,-1.16,-1.10,2.52,2.52,2.51
77.40,3.80,1.32,3.77,1.30,-1.29,-1.15,-1.08,2.51,2.48,2.48
78.17,3.72,1.29,3.72,1.28,-1.26,-1.14,-1.06,2.46,2.45,2.44
78.95,3.62,1.20,3.66,1.25,-1.24,-1.12,-1.04,2.38,2.42,2.41
79.74,3.61,1.24,3.58,1.21,-1.21,-1.11,-1.03,2.40,2.37,2.38
80.54,3.53,1.18,3.51,1.17,-1.19,-1.10,-1.01,2.33,2.32,2.34
81.35,3.44,1.13,3.47,1.16,-1.17,-1.09,-0.99,2.26,2.30,2.31
82.16,3.41,1.12,3.41,1.14,-1.15,-1.08,-0.98,2.25,2.26,2.28
82.98,3.42,1.17,3.38,1.13,-1.14,-1.07,-0.96,2.28,2.24,2.24
83.81,3.33,1.12,3.34,1.13,-1.12,-1.06,-0.95,2.21,2.22,2.21
84.65,3.28,1.11,3.29,1.13,-1.10,-1.05,-0.94,2.18,2.19,2.17
85.50,3.24,1.12,3.22,1.09,-1.08,-1.04,-0.93,2.16,2.14,2.12
86.35,3.17,1.08,3.15,1.06,-1.05,-1.03,-0.91,2.11,2.09,2.09
87.22,3.06,1.00,3.09,1.03,-1.03,-1.02,-0.90,2.03,2.06,2.06
88.09,3.01,0.99,3.01,1.00,-1.01,-1.00,-0.89,2.00,2.01,2.02
88.97,3.00,1.01,2.94,0.96,-0.99,-0.99,-0.88,2.01,1.95,1.98
89.86,2.86,0.93,2.88,0.95,-0.98,-0.98,-0.88,1.88,1.91,1.93
90.76,2.82,0.92,2.84,0.95,-0.97,-0.97,-0.87,1.85,1.88,1.90
91.66,2.82,0.97,2.81,0.96,-0.96,-0.96,-0.86,1.86,1.85,1.84
92.58,2.82,1.01,2.79,0.98,-0.96,-0.95,-0.85,1.86,1.83,1.81
93.51,2.75,0.98,2.74,0.98,-0.95,-0.95,-0.85,1.79,1.79,1.76
94.44,2.66,0.94,2.68,0.97,-0.95,-0.94,-0.84,1.70,1.73,1.72
95.39,2.62,0.95,2.61,0.95,-0.95,-0.93,-0.83,1.66,1.66,1.66
96.34,2.57,0.96,2.54,0.93,-0.95,-0.92,-0.83,1.61,1.59,1.61
97.30,2.46,0.91,2.47,0.93,-0.94,-0.91,-0.83,1.51,1.53,1.55
98.28,2.40,0.90,2.42,0.93,-0.93,-0.90,-0.82,1.46,1.49,1.49
99.26,2.38,0.95,2.36,0.93,-0.92,-0.89,-0.82,1.46,1.44,1.43
100.25,2.33,0.96,2.29,0.92,-0.91,-0.88,-0.82,1.42,1.39,1.37
101.25,2.20,0.87,2.22,0.90,-0.89,-0.87,-0.81,1.30,1.33,1.32
102.27,2.12,0.85,2.14,0.87,-0.87,-0.86,-0.81,1.24,1.26,1.26
103.29,2.08,0.87,2.05,0.84,-0.85,-0.85,-0.81,1.22,1.20,1.21
104.32,2.00,0.84,1.98,0.83,-0.83,-0.84,-0.81,1.16,1.15,1.16
105.37,1.88,0.78,1.91,0.81,-0.81,-0.84,-0.81,1.07,1.10,1.10
106.42,1.84,0.79,1.82,0.78,-0.79,-0.83,-0.80,1.05,1.04,1.04
107.48,1.76,0.78,1.74,0.76,-0.77,-0.82,-0.80,0.99,0.98,0.97
108.56,1.67,0.73,1.67,0.74,-0.75,-0.81,-0.80,0.92,0.92,0.94
109.64,1.59,0.71,1.61,0.73,-0.73,-0.80,-0.80,0.85,0.88,0.88
110.74,1.56,0.73,1.55,0.72,-0.72,-0.79,-0.80,0.84,0.83,0.82
111.85,1.53,0.75,1.48,0.71,-0.70,-0.78,-0.80,0.82,0.78,0.77
112.97,1.39,0.66,1.42,0.69,-0.69,-0.78,-0.80,0.70,0.73,0.73
114.10,1.33,0.65,1.35,0.67,-0.67,-0.77,-0.80,0.65,0.68,0.68
115.24,1.32,0.69,1.29,0.66,-0.66,-0.76,-0.79,0.66,0.63,0.62
116.39,1.25,0.68,1.24,0.67,-0.65,-0.75,-0.79,0.60,0.59,0.57
117.55,1.17,0.63,1.17,0.64,-0.64,-0.74,-0.79,0.52,0.52,0.53
118.73,1.10,0.62,1.10,0.61,-0.64,-0.73,-0.79,0.45,0.46,0.48
119.92,1.04,0.59,1.06,0.61,-0.64,-0.72,-0.78,0.40,0.42,0.44
121.12,1.05,0.63,1.04,0.63,-0.64,-0.72,-0.78,0.41,0.40,0.42
122.33,1.05,0.67,1.03,0.65,-0.63,-0.71,-0.77,0.41,0.40,0.38
123.55,1.01,0.66,1.01,0.66,-0.63,-0.70,-0.77,0.38,0.38,0.34
124.79,0.96,0.65,0.95,0.65,-0.62,-0.69,-0.76,0.33,0.33,0.31
126.03,0.89,0.62,0.89,0.62,-0.62,-0.68,-0.76,0.27,0.27,0.27
127.29,0.83,0.60,0.83,0.60,-0.61,-0.68,-0.75,0.21,0.21,0.23
128.57,0.78,0.59,0.77,0.58,-0.60,-0.67,-0.74,0.17,0.17,0.19
129.85,0.72,0.57,0.73,0.58,-0.59,-0.66,-0.74,0.13,0.14,0.15
131.15,0.70,0.59,0.69,0.58,-0.58,-0.65,-0.73,0.12,0.11,0.11
132.46,0.66,0.59,0.65,0.58,-0.57,-0.64,-0.72,0.08,0.08,0.07
133.79,0.62,0.58,0.61,0.58,-0.57,-0.63,-0.71,0.04,0.03,0.03
135.12,0.56,0.56,0.57,0.57,-0.58,-0.63,-0.70,-0.02,-0.01,-0.00
136.48,0.53,0.56,0.53,0.57,-0.58,-0.62,-0.69,-0.06,-0.05,-0.03
137.84,0.52,0.58,0.51,0.58,-0.58,-0.61,-0.68,-0.07,-0.08,-0.07
139.22,0.49,0.61,0.48,0.59,-0.58,-0.60,-0.67,-0.09,-0.10,-0.12
140.61,0.44,0.58,0.44,0.59,-0.57,-0.59,-0.66,-0.13,-0.13,-0.14
142.02,0.39,0.57,0.39,0.58,-0.56,-0.58,-0.64,-0.17,-0.16,-0.19
143.44,0.34,0.56,0.33,0.56,-0.54,-0.58,-0.63,-0.21,-0.21,-0.23
144.87,0.29,0.54,0.26,0.52,-0.53,-0.57,-0.62,-0.25,-0.27,-0.26
146.32,0.18,0.46,0.19,0.48,-0.51,-0.56,-0.61,-0.34,-0.32,-0.29
147.78,0.12,0.44,0.14,0.47,-0.49,-0.55,-0.60,-0.38,-0.35,-0.33
149.26,0.12,0.48,0.11,0.48,-0.48,-0.54,-0.58,-0.36,-0.36,-0.37
150.75,0.12,0.53,0.08,0.48,-0.46,-0.53,-0.57,-0.35,-0.39,-0.41
152.26,0.03,0.47,0.02,0.46,-0.45,-0.52,-0.56,-0.43,-0.43,-0.44
153.78,-0.07,0.40,-0.03,0.44,-0.45,-0.52,-0.55,-0.52,-0.48,-0.48
155.32,-0.08,0.43,-0.08,0.43,-0.44,-0.51,-0.54,-0.53,-0.53,-0.51
156.88,-0.08,0.47,-0.11,0.44,-0.44,-0.50,-0.52,-0.53,-0.56,-0.56
158.44,-0.15,0.44,-0.15,0.44,-0.44,-0.49,-0.51,-0.59,-0.59,-0.60
160.03,-0.21,0.43,-0.21,0.44,-0.43,-0.48,-0.50,-0.65,-0.64,-0.64
161.63,-0.27,0.41,-0.27,0.42,-0.43,-0.47,-0.49,-0.70,-0.69,-0.68
163.24,-0.29,0.44,-0.30,0.43,-0.42,-0.46,-0.48,-0.72,-0.73,-0.73
164.88,-0.35,0.42,-0.35,0.43,-0.42,-0.45,-0.47,-0.77,-0.76,-0.77
166.53,-0.38,0.44,-0.40,0.42,-0.41,-0.44,-0.46,-0.80,-0.81,-0.82
168.19,-0.46,0.40,-0.46,0.41,-0.41,-0.44,-0.45,-0.87,-0.87,-0.86
169.87,-0.51,0.39,-0.52,0.39,-0.41,-0.43,-0.44,-0.92,-0.92,-0.91
171.57,-0.57,0.38,-0.57,0.38,-0.40,-0.42,-0.43,-0.98,-0.98,-0.96
173.29,-0.61,0.39,-0.60,0.40,-0.40,-0.41,-0.42,-1.02,-1.00,-1.00
175.02,-0.62,0.41,-0.63,0.41,-0.40,-0.40,-0.41,-1.03,-1.03,-1.04
176.77,-0.63,0.45,-0.66,0.42,-0.41,-0.39,-0.41,-1.04,-1.07,-1.08
178.54,-0.71,0.41,-0.71,0.42,-0.41,-0.38,-0.40,-1.12,-1.11,-1.13
180.32,-0.76,0.40,-0.75,0.41,-0.41,-0.37,-0.39,-1.17,-1.16,-1.17
182.13,-0.80,0.40,-0.80,0.40,-0.40,-0.36,-0.38,-1.21,-1.20,-1.20
183.95,-0.81,0.42,-0.83,0.41,-0.41,-0.35,-0.38,-1.22,-1.23,-1.23
185.79,-0.86,0.41,-0.86,0.41,-0.41,-0.34,-0.37,-1.27,-1.27,-1.27
187.65,-0.89,0.41,-0.91,0.40,-0.42,-0.33,-0.36,-1.31,-1.32,-1.30
189.52,-0.95,0.39,-0.94,0.40,-0.43,-0.32,-0.36,-1.38,-1.37,-1.34
191.42,-0.96,0.40,-0.95,0.42,-0.44,-0.31,-0.35,-1.40,-1.39,-1.36
193.33,-0.94,0.46,-0.94,0.46,-0.45,-0.30,-0.34,-1.40,-1.40,-1.40
195.27,-0.93,0.50,-0.94,0.49,-0.46,-0.29,-0.34,-1.40,-1.41,-1.44
197.22,-0.94,0.53,-0.98,0.50,-0.47,-0.28,-0.33,-1.41,-1.45,-1.48
199.19,-1.04,0.46,-1.03,0.48,-0.47,-0.27,-0.33,-1.51,-1.50,-1.50
201.18,-1.10,0.44,-1.07,0.47,-0.46,-0.26,-0.32,-1.57,-1.53,-1.54
203.19,-1.09,0.47,-1.11,0.45,-0.45,-0.25,-0.32,-1.55,-1.57,-1.57
205.23,-1.11,0.48,-1.16,0.43,-0.44,-0.24,-0.31,-1.56,-1.60,-1.59
207.28,-1.23,0.38,-1.21,0.41,-0.42,-0.22,-0.31,-1.66,-1.63,-1.62
209.35,-1.29,0.35,-1.27,0.38,-0.40,-0.21,-0.30,-1.70,-1.67,-1.65
211.44,-1.29,0.39,-1.30,0.38,-0.39,-0.20,-0.30,-1.68,-1.69,-1.68
213.56,-1.30,0.40,-1.32,0.39,-0.37,-0.19,-0.29,-1.68,-1.69,-1.71
215.69,-1.34,0.39,-1.35,0.38,-0.36,-0.18,-0.29,-1.71,-1.72,-1.74
217.85,-1.41,0.35,-1.42,0.35,-0.35,-0.17,-0.28,-1.77,-1.77,-1.76
220.03,-1.48,0.32,-1.47,0.33,-0.34,-0.16,-0.28,-1.82,-1.81,-1.80
222.23,-1.51,0.31,-1.50,0.32,-0.33,-0.14,-0.27,-1.85,-1.83,-1.83
224.45,-1.51,0.33,-1.53,0.31,-0.32,-0.13,-0.27,-1.83,-1.85,-1.85
226.70,-1.54,0.32,-1.56,0.30,-0.30,-0.12,-0.26,-1.85,-1.86,-1.87
228.96,-1.61,0.26,-1.58,0.30,-0.29,-0.11,-0.26,-1.90,-1.87,-1.88
231.25,-1.60,0.28,-1.62,0.27,-0.27,-0.10,-0.25,-1.87,-1.89,-1.89
233.57,-1.62,0.28,-1.64,0.27,-0.26,-0.08,-0.24,-1.88,-1.90,-1.91
235.90,-1.68,0.23,-1.67,0.25,-0.24,-0.07,-0.24,-1.93,-1.91,-1.92
238.26,-1.68,0.24,-1.70,0.22,-0.23,-0.06,-0.23,-1.92,-1.93,-1.92
240.64,-1.73,0.18,-1.72,0.20,-0.22,-0.05,-0.22,-1.95,-1.94,-1.91
243.05,-1.73,0.19,-1.72,0.20,-0.21,-0.03,-0.21,-1.94,-1.93,-1.92
245.48,-1.72,0.21,-1.73,0.20,-0.19,-0.02,-0.20,-1.92,-1.93,-1.93
247.93,-1.71,0.22,-1.73,0.20,-0.18,-0.01,-0.19,-1.90,-1.91,-1.94
250.41,-1.76,0.16,-1.74,0.19,-0.17,0.01,-0.18,-1.93,-1.91,-1.92
252.92,-1.75,0.17,-1.77,0.16,-0.16,0.02,-0.17,-1.91,-1.93,-1.92
255.45,-1.80,0.13,-1.80,0.13,-0.14,0.03,-0.16,-1.95,-1.94,-1.94
258.00,-1.82,0.11,-1.81,0.12,-0.13,0.05,-0.15,-1.95,-1.94,-1.94
260.58,-1.83,0.11,-1.84,0.10,-0.11,0.06,-0.13,-1.95,-1.95,-1.94
263.19,-1.84,0.10,-1.87,0.08,-0.09,0.08,-0.12,-1.94,-1.96,-1.95
265.82,-1.91,0.05,-1.90,0.06,-0.07,0.09,-0.11,-1.98,-1.97,-1.96
268.48,-1.93,0.04,-1.92,0.06,-0.04,0.10,-0.09,-1.98,-1.96,-1.97
271.16,-1.93,0.05,-1.94,0.04,-0.02,0.12,-0.08,-1.95,-1.96,-1.99
273.87,-1.94,0.05,-1.98,0.02,0.01,0.13,-0.06,-1.94,-1.97,-1.99
276.61,-2.04,-0.04,-2.04,-0.03,0.03,0.15,-0.05,-2.01,-2.01,-2.01
279.38,-2.12,-0.09,-2.10,-0.08,0.05,0.16,-0.03,-2.07,-2.05,-2.03
282.17,-2.14,-0.12,-2.14,-0.11,0.07,0.18,-0.01,-2.07,-2.07,-2.03
284.99,-2.13,-0.10,-2.14,-0.11,0.09,0.19,0.01,-2.05,-2.05,-2.03
287.84,-2.12,-0.10,-2.13,-0.10,0.11,0.21,0.02,-2.02,-2.02,-2.02
290.72,-2.11,-0.08,-2.13,-0.10,0.13,0.22,0.04,-1.99,-2.01,-2.04
293.63,-2.15,-0.12,-2.15,-0.11,0.14,0.24,0.06,-2.01,-2.00,-2.03
296.57,-2.18,-0.16,-2.17,-0.14,0.15,0.25,0.08,-2.03,-2.02,-2.03
299.53,-2.18,-0.15,-2.21,-0.18,0.17,0.27,0.10,-2.01,-2.04,-2.03
302.53,-2.24,-0.22,-2.23,-0.21,0.19,0.29,0.12,-2.06,-2.04,-2.02
305.55,-2.25,-0.23,-2.24,-0.22,0.21,0.30,0.14,-2.05,-2.03,-2.03
308.61,-2.25,-0.23,-2.27,-0.24,0.23,0.32,0.16,-2.02,-2.04,-2.02
311.69,-2.26,-0.23,-2.28,-0.25,0.25,0.33,0.19,-2.01,-2.03,-2.03
314.81,-2.32,-0.30,-2.31,-0.28,0.27,0.35,0.21,-2.05,-2.03,-2.03
317.96,-2.33,-0.30,-2.32,-0.29,0.30,0.37,0.23,-2.03,-2.02,-2.04
321.14,-2.33,-0.30,-2.34,-0.31,0.33,0.38,0.25,-2.00,-2.01,-2.03
324.35,-2.34,-0.31,-2.37,-0.33,0.36,0.40,0.28,-1.98,-2.00,-2.03
327.59,-2.42,-0.40,-2.42,-0.39,0.39,0.42,0.30,-2.03,-2.03,-2.03
330.87,-2.48,-0.45,-2.48,-0.45,0.42,0.44,0.32,-2.06,-2.06,-2.03
334.18,-2.53,-0.49,-2.53,-0.49,0.45,0.45,0.35,-2.08,-2.07,-2.04
337.52,-2.54,-0.51,-2.54,-0.51,0.48,0.47,0.37,-2.06,-2.06,-2.03
340.90,-2.54,-0.51,-2.54,-0.51,0.51,0.49,0.40,-2.03,-2.03,-2.04
344.30,-2.54,-0.52,-2.54,-0.51,0.54,0.50,0.42,-2.01,-2.00,-2.03
347.75,-2.54,-0.52,-2.56,-0.53,0.56,0.52,0.45,-1.99,-2.00,-2.02
351.23,-2.59,-0.56,-2.59,-0.57,0.57,0.54,0.48,-2.02,-2.02,-2.03
354.74,-2.63,-0.62,-2.62,-0.60,0.58,0.56,0.50,-2.05,-2.04,-2.02
358.28,-2.64,-0.63,-2.64,-0.62,0.60,0.58,0.53,-2.05,-2.04,-2.02
361.87,-2.63,-0.63,-2.64,-0.63,0.62,0.59,0.56,-2.02,-2.02,-2.01
365.49,-2.62,-0.62,-2.63,-0.63,0.65,0.61,0.59,-1.98,-1.98,-2.00
369.14,-2.62,-0.63,-2.63,-0.64,0.67,0.63,0.62,-1.95,-1.96,-1.99
372.83,-2.65,-0.67,-2.66,-0.67,0.70,0.65,0.64,-1.96,-1.96,-1.98
376.56,-2.69,-0.71,-2.71,-0.72,0.72,0.67,0.67,-1.98,-1.99,-1.99
380.33,-2.76,-0.78,-2.75,-0.77,0.74,0.69,0.70,-2.02,-2.01,-1.99
384.13,-2.79,-0.82,-2.78,-0.80,0.77,0.70,0.73,-2.02,-2.01,-1.98
387.97,-2.78,-0.81,-2.79,-0.81,0.80,0.72,0.76,-1.98,-1.98,-1.98
391.85,-2.78,-0.80,-2.79,-0.81,0.83,0.74,0.79,-1.96,-1.97,-1.98
395.77,-2.79,-0.80,-2.82,-0.83,0.84,0.76,0.83,-1.95,-1.97,-1.99
399.73,-2.87,-0.88,-2.85,-0.86,0.86,0.78,0.86,-2.02,-2.00,-1.99
403.72,-2.89,-0.91,-2.89,-0.89,0.87,0.80,0.89,-2.03,-2.02,-1.98
407.76,-2.89,-0.89,-2.90,-0.90,0.88,0.82,0.92,-2.01,-2.02,-2.01
411.84,-2.89,-0.89,-2.89,-0.88,0.90,0.84,0.95,-1.99,-1.99,-2.01
415.96,-2.89,-0.89,-2.90,-0.88,0.92,0.86,0.98,-1.97,-1.98,-2.01
420.12,-2.89,-0.88,-2.93,-0.91,0.94,0.87,1.01,-1.96,-1.99,-2.02
424.32,-2.97,-0.97,-2.96,-0.95,0.95,0.89,1.04,-2.02,-2.01,-2.01
428.56,-3.00,-1.01,-2.98,-0.98,0.96,0.91,1.07,-2.05,-2.02,-1.99
432.85,-2.96,-0.99,-2.98,-1.00,0.96,0.93,1.10,-2.01,-2.02,-1.97
437.18,-2.93,-0.97,-2.94,-0.99,0.96,0.95,1.13,-1.98,-1.98,-1.96
441.55,-2.90,-0.98,-2.90,-0.98,0.96,0.97,1.16,-1.94,-1.94,-1.92
445.96,-2.85,-0.97,-2.86,-0.97,0.97,0.99,1.18,-1.88,-1.89,-1.88
450.42,-2.80,-0.96,-2.79,-0.94,0.98,1.01,1.21,-1.82,-1.80,-1.84
454.93,-2.73,-0.94,-2.72,-0.93,1.00,1.03,1.23,-1.73,-1.72,-1.79
459.48,-2.64,-0.91,-2.71,-0.97,1.02,1.04,1.26,-1.62,-1.69,-1.74
464.07,-2.72,-1.06,-2.72,-1.05,1.05,1.06,1.28,-1.68,-1.67,-1.67
468.71,-2.78,-1.17,-2.73,-1.12,1.08,1.08,1.30,-1.70,-1.65,-1.62
473.40,-2.72,-1.17,-2.73,-1.17,1.11,1.10,1.32,-1.61,-1.62,-1.56
478.13,-2.65,-1.16,-2.67,-1.17,1.14,1.12,1.33,-1.52,-1.54,-1.50
482.91,-2.60,-1.16,-2.61,-1.16,1.16,1.14,1.35,-1.45,-1.45,-1.45
487.74,-2.56,-1.16,-2.56,-1.16,1.17,1.16,1.36,-1.40,-1.39,-1.41
492.62,-2.53,-1.17,-2.53,-1.16,1.18,1.17,1.37,-1.36,-1.36,-1.37
497.55,-2.50,-1.18,-2.51,-1.17,1.19,1.19,1.38,-1.32,-1.32,-1.33
