frequency,raw,error,smoothed,error_smoothed,equalization,parametric_eq,equalized_raw,equalized_smoothed,target
20.00,-4.94,-7.63,-4.95,-7.64,6.00,2.76,1.06,1.05,2.70
20.20,-4.93,-7.62,-4.93,-7.63,6.00,2.84,1.07,1.07,2.70
20.40,-4.91,-7.60,-4.91,-7.61,6.00,2.92,1.09,1.09,2.69
20.61,-4.90,-7.59,-4.89,-7.58,6.00,3.01,1.10,1.11,2.69
20.81,-4.88,-7.57,-4.88,-7.56,6.00,3.09,1.12,1.12,2.69
21.02,-4.87,-7.56,-4.86,-7.54,6.00,3.18,1.13,1.14,2.69
21.23,-4.85,-7.54,-4.84,-7.52,6.00,3.27,1.15,1.16,2.69
21.44,-4.83,-7.51,-4.82,-7.50,6.00,3.36,1.17,1.18,2.69
21.66,-4.80,-7.48,-4.80,-7.48,6.00,3.46,1.20,1.20,2.69
21.87,-4.78,-7.46,-4.77,-7.45,6.00,3.56,1.22,1.23,2.68
22.09,-4.76,-7.44,-4.75,-7.43,6.00,3.66,1.24,1.25,2.68
22.31,-4.74,-7.42,-4.73,-7.41,6.00,3.76,1.26,1.27,2.68
22.54,-4.72,-7.40,-4.71,-7.38,6.00,3.87,1.28,1.29,2.68
22.76,-4.69,-7.36,-4.68,-7.36,6.00,3.98,1.31,1.32,2.68
22.99,-4.67,-7.34,-4.66,-7.33,6.00,4.09,1.33,1.34,2.68
23.22,-4.64,-7.31,-4.64,-7.31,6.00,4.21,1.36,1.36,2.67
23.45,-4.61,-7.28,-4.61,-7.28,6.00,4.33,1.39,1.39,2.67
23.69,-4.58,-7.25,-4.59,-7.26,6.00,4.45,1.42,1.41,2.67
23.92,-4.55,-7.21,-4.57,-7.23,6.00,4.57,1.45,1.43,2.67
24.16,-4.53,-7.19,-4.55,-7.21,6.00,4.70,1.47,1.45,2.67
24.40,-4.52,-7.18,-4.52,-7.18,6.00,4.82,1.48,1.48,2.66
24.65,-4.51,-7.17,-4.50,-7.16,6.00,4.95,1.49,1.50,2.66
24.89,-4.50,-7.16,-4.48,-7.14,6.00,5.08,1.50,1.52,2.66
25.14,-4.48,-7.13,-4.46,-7.12,6.00,5.22,1.52,1.54,2.66
25.39,-4.45,-7.10,-4.44,-7.09,6.00,5.35,1.55,1.56,2.65
25.65,-4.43,-7.08,-4.42,-7.07,6.00,5.49,1.57,1.58,2.65
25.91,-4.41,-7.06,-4.40,-7.05,6.00,5.62,1.59,1.60,2.65
26.16,-4.39,-7.03,-4.38,-7.03,6.00,5.76,1.61,1.62,2.65
26.43,-4.37,-7.01,-4.37,-7.01,6.00,5.89,1.63,1.63,2.64
26.69,-4.35,-6.99,-4.35,-6.99,6.00,6.03,1.65,1.65,2.64
26.96,-4.33,-6.97,-4.34,-6.97,6.00,6.16,1.67,1.66,2.64
27.23,-4.31,-6.94,-4.32,-6.95,6.00,6.29,1.69,1.68,2.64
27.50,-4.29,-6.92,-4.31,-6.93,6.00,6.42,1.71,1.69,2.63
27.77,-4.28,-6.91,-4.29,-6.92,6.00,6.54,1.72,1.71,2.63
28.05,-4.26,-6.88,-4.27,-6.90,6.00,6.66,1.74,1.73,2.63
28.33,-4.26,-6.88,-4.26,-6.87,6.00,6.78,1.74,1.74,2.62
28.62,-4.26,-6.88,-4.24,-6.85,6.00,6.89,1.74,1.76,2.62
28.90,-4.26,-6.87,-4.22,-6.83,6.00,6.99,1.74,1.78,2.62
29.19,-4.23,-6.84,-4.20,-6.80,6.00,7.08,1.77,1.80,2.61
29.48,-4.20,-6.81,-4.17,-6.78,6.00,7.17,1.80,1.83,2.61
29.78,-4.16,-6.76,-4.15,-6.75,6.00,7.24,1.84,1.85,2.61
30.08,-4.12,-6.72,-4.12,-6.72,6.00,7.31,1.88,1.88,2.60
30.38,-4.09,-6.69,-4.10,-6.69,6.00,7.37,1.91,1.90,2.60
30.68,-4.06,-6.65,-4.07,-6.66,6.00,7.41,1.94,1.93,2.60
30.99,-4.03,-6.62,-4.04,-6.63,6.00,7.44,1.97,1.96,2.59
31.30,-4.00,-6.58,-4.01,-6.59,6.00,7.47,2.00,1.99,2.59
31.61,-3.97,-6.55,-3.98,-6.56,6.00,7.48,2.03,2.02,2.58
31.93,-3.95,-6.53,-3.95,-6.53,6.00,7.48,2.05,2.05,2.58
32.24,-3.93,-6.50,-3.92,-6.50,6.00,7.47,2.07,2.08,2.57
32.57,-3.91,-6.48,-3.90,-6.47,6.00,7.45,2.09,2.10,2.57
32.89,-3.89,-6.45,-3.87,-6.44,6.00,7.41,2.11,2.13,2.56
33.22,-3.86,-6.42,-3.85,-6.41,6.00,7.37,2.14,2.15,2.56
33.55,-3.84,-6.39,-3.83,-6.39,6.00,7.32,2.16,2.17,2.55
33.89,-3.81,-6.36,-3.82,-6.36,6.00,7.27,2.19,2.18,2.55
34.23,-3.79,-6.33,-3.80,-6.34,6.00,7.20,2.21,2.20,2.54
34.57,-3.77,-6.31,-3.78,-6.32,6.00,7.13,2.23,2.22,2.54
34.92,-3.75,-6.28,-3.77,-6.29,6.00,7.06,2.25,2.23,2.53
35.27,-3.74,-6.26,-3.75,-6.27,6.00,6.97,2.26,2.25,2.53
35.62,-3.74,-6.26,-3.73,-6.25,6.00,6.89,2.26,2.27,2.52
35.97,-3.73,-6.24,-3.71,-6.22,6.00,6.80,2.27,2.29,2.51
36.33,-3.72,-6.22,-3.70,-6.20,6.00,6.71,2.28,2.30,2.51
36.70,-3.71,-6.21,-3.68,-6.18,6.00,6.62,2.29,2.32,2.50
37.06,-3.69,-6.18,-3.67,-6.16,6.00,6.53,2.31,2.33,2.49
37.43,-3.66,-6.14,-3.65,-6.14,6.00,6.44,2.34,2.35,2.49
37.81,-3.64,-6.12,-3.64,-6.11,6.00,6.35,2.36,2.36,2.48
38.19,-3.61,-6.08,-3.62,-6.09,6.00,6.26,2.39,2.38,2.47
38.57,-3.59,-6.05,-3.61,-6.07,6.00,6.17,2.41,2.39,2.47
38.95,-3.56,-6.01,-3.59,-6.04,5.99,6.09,2.43,2.40,2.46
39.34,-3.56,-6.01,-3.57,-6.01,5.98,6.00,2.42,2.41,2.45
39.74,-3.56,-6.00,-3.55,-5.99,5.96,5.92,2.41,2.41,2.44
40.14,-3.55,-5.98,-3.53,-5.96,5.95,5.85,2.40,2.41,2.43
40.54,-3.54,-5.96,-3.51,-5.93,5.93,5.77,2.39,2.41,2.42
40.94,-3.52,-5.93,-3.49,-5.90,5.90,5.70,2.38,2.41,2.41
41.35,-3.50,-5.90,-3.47,-5.87,5.87,5.63,2.38,2.40,2.41
41.76,-3.47,-5.86,-3.45,-5.84,5.84,5.57,2.38,2.39,2.40
42.18,-3.44,-5.82,-3.43,-5.81,5.81,5.51,2.38,2.38,2.39
42.60,-3.41,-5.78,-3.41,-5.78,5.78,5.45,2.38,2.37,2.38
43.03,-3.38,-5.74,-3.39,-5.75,5.75,5.40,2.38,2.36,2.37
43.46,-3.36,-5.71,-3.37,-5.72,5.72,5.35,2.37,2.35,2.35
43.90,-3.34,-5.68,-3.35,-5.69,5.69,5.31,2.35,2.34,2.34
44.33,-3.32,-5.65,-3.33,-5.66,5.66,5.27,2.34,2.33,2.33
44.78,-3.31,-5.63,-3.31,-5.63,5.63,5.23,2.32,2.32,2.32
45.23,-3.30,-5.61,-3.30,-5.60,5.60,5.20,2.30,2.31,2.31
45.68,-3.29,-5.58,-3.28,-5.57,5.57,5.17,2.29,2.29,2.30
46.13,-3.27,-5.55,-3.26,-5.54,5.54,5.14,2.28,2.28,2.28
46.60,-3.26,-5.53,-3.25,-5.52,5.52,5.12,2.26,2.27,2.27
47.06,-3.24,-5.49,-3.23,-5.49,5.49,5.11,2.25,2.25,2.26
47.53,-3.23,-5.47,-3.22,-5.46,5.46,5.09,2.23,2.24,2.24
48.01,-3.23,-5.46,-3.21,-5.43,5.43,5.08,2.21,2.23,2.23
48.49,-3.21,-5.42,-3.20,-5.41,5.41,5.08,2.20,2.21,2.21
48.97,-3.19,-5.39,-3.19,-5.38,5.38,5.08,2.19,2.20,2.20
49.46,-3.17,-5.35,-3.18,-5.35,5.35,5.08,2.19,2.18,2.18
49.96,-3.14,-5.31,-3.17,-5.33,5.33,5.08,2.19,2.16,2.17
50.46,-3.14,-5.29,-3.16,-5.31,5.31,5.08,2.17,2.15,2.15
50.96,-3.14,-5.27,-3.15,-5.28,5.28,5.09,2.14,2.13,2.14
51.47,-3.14,-5.26,-3.14,-5.26,5.26,5.10,2.12,2.12,2.12
51.99,-3.14,-5.24,-3.13,-5.23,5.23,5.11,2.10,2.10,2.10
52.51,-3.14,-5.22,-3.13,-5.21,5.21,5.12,2.07,2.08,2.08
53.03,-3.14,-5.20,-3.13,-5.19,5.19,5.14,2.05,2.06,2.06
53.56,-3.14,-5.18,-3.12,-5.16,5.16,5.15,2.03,2.04,2.04
54.10,-3.14,-5.16,-3.12,-5.14,5.14,5.17,2.00,2.02,2.03
54.64,-3.11,-5.11,-3.12,-5.12,5.12,5.18,2.01,2.00,2.01
55.18,-3.10,-5.08,-3.11,-5.09,5.09,5.19,1.99,1.98,1.98
55.74,-3.10,-5.06,-3.10,-5.06,5.06,5.21,1.96,1.96,1.96
56.29,-3.10,-5.04,-3.09,-5.03,5.03,5.22,1.94,1.94,1.94
56.86,-3.10,-5.02,-3.09,-5.00,5.00,5.23,1.91,1.92,1.92
57.42,-3.10,-4.99,-3.08,-4.97,4.97,5.23,1.88,1.90,1.90
58.00,-3.10,-4.97,-3.07,-4.94,4.94,5.24,1.85,1.87,1.87
58.58,-3.07,-4.92,-3.06,-4.91,4.91,5.24,1.84,1.85,1.85
59.16,-3.04,-4.86,-3.06,-4.88,4.88,5.23,1.84,1.82,1.83
59.76,-3.02,-4.82,-3.05,-4.85,4.85,5.23,1.83,1.80,1.80
60.35,-3.02,-4.79,-3.05,-4.82,4.82,5.21,1.80,1.77,1.78
60.96,-3.03,-4.78,-3.04,-4.79,4.79,5.20,1.76,1.74,1.75
61.57,-3.04,-4.76,-3.04,-4.75,4.75,5.18,1.72,1.72,1.72
62.18,-3.05,-4.74,-3.03,-4.72,4.72,5.15,1.68,1.69,1.70
62.80,-3.05,-4.72,-3.02,-4.69,4.69,5.12,1.64,1.67,1.67
63.43,-3.05,-4.69,-3.02,-4.66,4.66,5.08,1.61,1.64,1.64
64.07,-3.05,-4.66,-3.02,-4.63,4.63,5.04,1.58,1.61,1.61
64.71,-3.01,-4.59,-3.02,-4.59,4.59,5.00,1.59,1.58,1.58
65.35,-3.00,-4.55,-3.02,-4.56,4.56,4.95,1.56,1.54,1.55
66.01,-3.00,-4.52,-3.01,-4.53,4.53,4.89,1.53,1.51,1.52
66.67,-3.00,-4.49,-3.01,-4.49,4.49,4.83,1.49,1.48,1.49
67.33,-3.00,-4.45,-3.00,-4.45,4.45,4.77,1.46,1.45,1.46
68.01,-3.00,-4.42,-3.00,-4.42,4.42,4.70,1.42,1.42,1.42
68.69,-3.00,-4.39,-2.99,-4.38,4.38,4.63,1.38,1.39,1.39
69.37,-3.00,-4.35,-2.99,-4.34,4.34,4.56,1.34,1.35,1.36
70.07,-3.00,-4.32,-2.98,-4.30,4.30,4.48,1.30,1.32,1.32
70.77,-3.00,-4.28,-2.98,-4.26,4.26,4.40,1.26,1.28,1.29
71.48,-2.98,-4.23,-2.97,-4.22,4.22,4.32,1.24,1.25,1.25
72.19,-2.96,-4.17,-2.97,-4.18,4.18,4.24,1.23,1.21,1.21
72.91,-2.96,-4.13,-2.97,-4.14,4.14,4.16,1.19,1.17,1.18
73.64,-2.96,-4.09,-2.97,-4.10,4.10,4.08,1.15,1.14,1.14
74.38,-2.96,-4.06,-2.97,-4.06,4.06,3.99,1.11,1.10,1.10
75.12,-2.96,-4.02,-2.96,-4.02,4.02,3.91,1.07,1.06,1.06
75.87,-2.96,-3.98,-2.96,-3.98,3.98,3.83,1.02,1.02,1.02
76.63,-2.96,-3.94,-2.96,-3.94,3.94,3.74,0.98,0.98,0.98
77.40,-2.96,-3.90,-2.96,-3.89,3.89,3.66,0.94,0.93,0.94
78.17,-2.96,-3.86,-2.96,-3.85,3.85,3.58,0.89,0.89,0.90
78.95,-2.96,-3.81,-2.95,-3.80,3.80,3.50,0.84,0.85,0.86
79.74,-2.96,-3.77,-2.95,-3.75,3.75,3.42,0.80,0.81,0.81
80.54,-2.96,-3.73,-2.94,-3.70,3.70,3.35,0.74,0.76,0.77
81.35,-2.96,-3.69,-2.93,-3.65,3.65,3.27,0.69,0.72,0.73
82.16,-2.95,-3.63,-2.91,-3.59,3.59,3.20,0.65,0.68,0.68
82.98,-2.91,-3.55,-2.90,-3.54,3.54,3.12,0.63,0.63,0.64
83.81,-2.89,-3.48,-2.89,-3.48,3.48,3.05,0.59,0.59,0.60
84.65,-2.87,-3.42,-2.88,-3.42,3.42,2.99,0.56,0.54,0.55
85.50,-2.84,-3.34,-2.87,-3.36,3.36,2.92,0.53,0.50,0.51
86.35,-2.82,-3.28,-2.85,-3.30,3.30,2.85,0.49,0.45,0.46
87.22,-2.82,-3.23,-2.84,-3.24,3.24,2.79,0.43,0.40,0.41
88.09,-2.82,-3.18,-2.82,-3.18,3.18,2.73,0.37,0.36,0.37
88.97,-2.82,-3.14,-2.81,-3.12,3.12,2.67,0.31,0.32,0.32
89.86,-2.82,-3.09,-2.79,-3.06,3.06,2.62,0.25,0.27,0.27
90.76,-2.82,-3.04,-2.78,-3.01,3.01,2.56,0.19,0.22,0.22
91.66,-2.81,-2.98,-2.78,-2.95,2.95,2.51,0.14,0.17,0.18
92.58,-2.78,-2.91,-2.77,-2.89,2.89,2.46,0.12,0.12,0.13
93.51,-2.76,-2.84,-2.77,-2.84,2.84,2.41,0.08,0.07,0.08
94.44,-2.74,-2.77,-2.76,-2.78,2.78,2.37,0.05,0.02,0.03
95.39,-2.72,-2.70,-2.76,-2.73,2.73,2.32,0.01,-0.03,-0.02
96.34,-2.72,-2.65,-2.75,-2.68,2.68,2.28,-0.04,-0.07,-0.07
97.30,-2.73,-2.61,-2.74,-2.62,2.62,2.24,-0.10,-0.12,-0.11
98.28,-2.75,-2.58,-2.73,-2.57,2.57,2.20,-0.18,-0.16,-0.16
99.26,-2.77,-2.55,-2.73,-2.52,2.52,2.16,-0.25,-0.21,-0.21
100.25,-2.77,-2.51,-2.73,-2.47,2.47,2.13,-0.30,-0.26,-0.26
101.25,-2.76,-2.45,-2.73,-2.42,2.42,2.09,-0.33,-0.31,-0.31
102.27,-2.72,-2.36,-2.74,-2.37,2.37,2.06,-0.34,-0.36,-0.36
103.29,-2.72,-2.31,-2.74,-2.33,2.33,2.02,-0.39,-0.41,-0.41
104.32,-2.72,-2.26,-2.74,-2.28,2.28,1.99,-0.44,-0.46,-0.46
105.37,-2.72,-2.21,-2.74,-2.23,2.23,1.96,-0.49,-0.51,-0.51
106.42,-2.74,-2.18,-2.74,-2.18,2.18,1.93,-0.56,-0.56,-0.55
107.48,-2.76,-2.15,-2.74,-2.13,2.13,1.91,-0.63,-0.61,-0.60
108.56,-2.77,-2.12,-2.74,-2.08,2.08,1.88,-0.68,-0.65,-0.65
109.64,-2.77,-2.07,-2.73,-2.03,2.03,1.85,-0.73,-0.70,-0.70
110.74,-2.76,-2.01,-2.73,-1.98,1.98,1.83,-0.77,-0.75,-0.75
111.85,-2.72,-1.92,-2.73,-1.93,1.93,1.80,-0.78,-0.80,-0.79
112.97,-2.72,-1.88,-2.73,-1.89,1.89,1.77,-0.83,-0.85,-0.84
114.10,-2.72,-1.83,-2.73,-1.84,1.84,1.75,-0.88,-0.89,-0.89
115.24,-2.72,-1.78,-2.73,-1.79,1.79,1.72,-0.93,-0.94,-0.93
116.39,-2.72,-1.74,-2.72,-1.74,1.74,1.70,-0.97,-0.98,-0.98
117.55,-2.72,-1.69,-2.72,-1.70,1.70,1.67,-1.02,-1.03,-1.03
118.73,-2.72,-1.65,-2.72,-1.65,1.65,1.65,-1.07,-1.07,-1.07
119.92,-2.72,-1.60,-2.72,-1.60,1.60,1.62,-1.11,-1.11,-1.12
121.12,-2.72,-1.56,-2.72,-1.56,1.56,1.59,-1.16,-1.16,-1.16
122.33,-2.72,-1.51,-2.72,-1.51,1.51,1.57,-1.20,-1.20,-1.20
123.55,-2.72,-1.47,-2.72,-1.47,1.47,1.54,-1.25,-1.25,-1.25
124.79,-2.72,-1.43,-2.72,-1.43,1.43,1.51,-1.29,-1.30,-1.29
126.03,-2.72,-1.38,-2.72,-1.38,1.38,1.48,-1.34,-1.34,-1.33
127.29,-2.72,-1.34,-2.72,-1.33,1.33,1.46,-1.38,-1.38,-1.38
128.57,-2.72,-1.30,-2.71,-1.29,1.29,1.43,-1.43,-1.42,-1.42
129.85,-2.72,-1.26,-2.70,-1.24,1.24,1.40,-1.48,-1.46,-1.46
131.15,-2.72,-1.22,-2.69,-1.19,1.19,1.36,-1.53,-1.50,-1.50
132.46,-2.69,-1.15,-2.68,-1.14,1.14,1.33,-1.55,-1.54,-1.54
133.79,-2.68,-1.10,-2.67,-1.09,1.09,1.30,-1.59,-1.58,-1.58
135.12,-2.68,-1.06,-2.66,-1.03,1.03,1.27,-1.64,-1.62,-1.62
136.48,-2.64,-0.98,-2.64,-0.98,0.98,1.24,-1.65,-1.66,-1.65
137.84,-2.63,-0.94,-2.63,-0.93,0.93,1.20,-1.69,-1.70,-1.69
139.22,-2.60,-0.87,-2.62,-0.88,0.88,1.17,-1.71,-1.73,-1.73
140.61,-2.58,-0.81,-2.61,-0.84,0.84,1.13,-1.74,-1.77,-1.77
142.02,-2.58,-0.78,-2.60,-0.79,0.79,1.10,-1.78,-1.80,-1.80
143.44,-2.58,-0.74,-2.59,-0.75,0.75,1.06,-1.83,-1.84,-1.84
144.87,-2.58,-0.71,-2.58,-0.71,0.71,1.03,-1.87,-1.87,-1.87
146.32,-2.58,-0.67,-2.57,-0.67,0.67,0.99,-1.91,-1.90,-1.90
147.78,-2.58,-0.64,-2.57,-0.63,0.63,0.96,-1.94,-1.94,-1.94
149.26,-2.58,-0.61,-2.57,-0.60,0.60,0.92,-1.98,-1.97,-1.97
150.75,-2.58,-0.58,-2.57,-0.57,0.57,0.89,-2.01,-2.00,-2.00
152.26,-2.58,-0.54,-2.57,-0.54,0.54,0.85,-2.04,-2.04,-2.03
153.78,-2.58,-0.51,-2.57,-0.51,0.51,0.82,-2.07,-2.07,-2.06
155.32,-2.58,-0.48,-2.58,-0.48,0.48,0.78,-2.10,-2.10,-2.09
156.88,-2.58,-0.45,-2.58,-0.45,0.45,0.75,-2.13,-2.13,-2.12
158.44,-2.58,-0.43,-2.58,-0.42,0.42,0.71,-2.15,-2.15,-2.15
160.03,-2.58,-0.40,-2.58,-0.40,0.40,0.68,-2.18,-2.18,-2.18
161.63,-2.58,-0.37,-2.58,-0.37,0.37,0.64,-2.21,-2.21,-2.21
163.24,-2.58,-0.34,-2.58,-0.34,0.34,0.61,-2.23,-2.23,-2.23
164.88,-2.58,-0.32,-2.58,-0.32,0.32,0.57,-2.26,-2.26,-2.26
166.53,-2.58,-0.29,-2.58,-0.29,0.29,0.54,-2.29,-2.29,-2.29
168.19,-2.58,-0.27,-2.58,-0.27,0.27,0.50,-2.31,-2.31,-2.31
169.87,-2.58,-0.24,-2.58,-0.24,0.24,0.47,-2.34,-2.34,-2.34
171.57,-2.58,-0.22,-2.58,-0.22,0.22,0.44,-2.36,-2.36,-2.36
173.29,-2.58,-0.19,-2.58,-0.19,0.19,0.40,-2.38,-2.38,-2.38
175.02,-2.58,-0.17,-2.58,-0.17,0.17,0.37,-2.41,-2.41,-2.41
176.77,-2.58,-0.15,-2.58,-0.15,0.15,0.34,-2.43,-2.43,-2.43
178.54,-2.58,-0.13,-2.58,-0.13,0.13,0.30,-2.45,-2.45,-2.45
180.32,-2.58,-0.11,-2.58,-0.11,0.11,0.27,-2.47,-2.47,-2.47
182.13,-2.58,-0.08,-2.58,-0.08,0.08,0.24,-2.49,-2.49,-2.49
183.95,-2.58,-0.06,-2.58,-0.06,0.06,0.21,-2.51,-2.51,-2.51
185.79,-2.58,-0.04,-2.58,-0.04,0.04,0.17,-2.53,-2.53,-2.53
187.65,-2.58,-0.03,-2.58,-0.03,0.03,0.14,-2.55,-2.55,-2.55
189.52,-2.58,-0.01,-2.58,-0.01,0.01,0.11,-2.57,-2.57,-2.57
191.42,-2.58,0.01,-2.58,0.01,-0.01,0.08,-2.59,-2.59,-2.59
193.33,-2.58,0.03,-2.58,0.03,-0.03,0.05,-2.61,-2.61,-2.61
195.27,-2.58,0.05,-2.58,0.05,-0.05,0.02,-2.62,-2.62,-2.62
197.22,-2.58,0.06,-2.58,0.06,-0.06,-0.01,-2.64,-2.64,-2.64
199.19,-2.58,0.08,-2.58,0.08,-0.08,-0.05,-2.66,-2.66,-2.66
201.18,-2.58,0.10,-2.58,0.10,-0.10,-0.08,-2.67,-2.67,-2.67
203.19,-2.58,0.11,-2.58,0.11,-0.11,-0.11,-2.69,-2.69,-2.69
205.23,-2.58,0.13,-2.58,0.13,-0.13,-0.13,-2.70,-2.70,-2.70
207.28,-2.58,0.14,-2.58,0.14,-0.14,-0.16,-2.72,-2.72,-2.72
209.35,-2.58,0.16,-2.58,0.16,-0.16,-0.19,-2.73,-2.73,-2.73
211.44,-2.58,0.17,-2.58,0.17,-0.17,-0.22,-2.75,-2.75,-2.75
213.56,-2.58,0.18,-2.58,0.18,-0.18,-0.25,-2.76,-2.76,-2.76
215.69,-2.58,0.20,-2.58,0.20,-0.20,-0.28,-2.77,-2.78,-2.77
217.85,-2.58,0.21,-2.58,0.21,-0.21,-0.30,-2.79,-2.79,-2.79
220.03,-2.58,0.22,-2.58,0.22,-0.22,-0.33,-2.80,-2.80,-2.80
222.23,-2.58,0.23,-2.58,0.24,-0.24,-0.35,-2.81,-2.81,-2.81
224.45,-2.58,0.25,-2.58,0.25,-0.25,-0.37,-2.83,-2.82,-2.82
226.70,-2.58,0.26,-2.57,0.26,-0.26,-0.40,-2.84,-2.84,-2.84
228.96,-2.58,0.27,-2.57,0.28,-0.28,-0.42,-2.85,-2.85,-2.85
231.25,-2.58,0.28,-2.57,0.29,-0.29,-0.44,-2.87,-2.86,-2.86
233.57,-2.58,0.29,-2.57,0.30,-0.30,-0.46,-2.88,-2.87,-2.87
235.90,-2.56,0.32,-2.57,0.31,-0.31,-0.48,-2.87,-2.88,-2.88
238.26,-2.56,0.33,-2.56,0.33,-0.33,-0.49,-2.88,-2.89,-2.89
240.64,-2.56,0.34,-2.56,0.34,-0.34,-0.51,-2.89,-2.90,-2.90
243.05,-2.56,0.35,-2.56,0.35,-0.35,-0.52,-2.90,-2.91,-2.91
245.48,-2.56,0.36,-2.56,0.36,-0.36,-0.53,-2.92,-2.92,-2.92
247.93,-2.56,0.37,-2.56,0.37,-0.37,-0.54,-2.93,-2.93,-2.93
250.41,-2.56,0.38,-2.56,0.38,-0.38,-0.55,-2.93,-2.93,-2.93
252.92,-2.56,0.39,-2.56,0.39,-0.39,-0.56,-2.94,-2.94,-2.94
255.45,-2.56,0.39,-2.56,0.40,-0.40,-0.57,-2.95,-2.95,-2.95
258.00,-2.56,0.40,-2.56,0.40,-0.40,-0.57,-2.96,-2.96,-2.96
260.58,-2.56,0.41,-2.56,0.41,-0.41,-0.58,-2.97,-2.97,-2.97
263.19,-2.56,0.42,-2.56,0.42,-0.42,-0.58,-2.98,-2.98,-2.97
265.82,-2.56,0.42,-2.56,0.42,-0.42,-0.58,-2.98,-2.98,-2.98
268.48,-2.56,0.43,-2.56,0.43,-0.43,-0.58,-2.99,-2.99,-2.99
271.16,-2.56,0.44,-2.56,0.44,-0.44,-0.58,-3.00,-3.00,-3.00
273.87,-2.56,0.44,-2.56,0.45,-0.45,-0.57,-3.00,-3.00,-3.00
276.61,-2.56,0.45,-2.56,0.45,-0.45,-0.57,-3.01,-3.01,-3.01
279.38,-2.56,0.46,-2.56,0.46,-0.46,-0.56,-3.02,-3.02,-3.01
282.17,-2.56,0.46,-2.56,0.46,-0.46,-0.56,-3.02,-3.02,-3.02
284.99,-2.56,0.47,-2.56,0.47,-0.47,-0.55,-3.03,-3.03,-3.03
287.84,-2.56,0.48,-2.56,0.48,-0.48,-0.55,-3.03,-3.03,-3.03
290.72,-2.56,0.48,-2.56,0.48,-0.48,-0.54,-3.04,-3.04,-3.04
293.63,-2.56,0.49,-2.56,0.49,-0.49,-0.53,-3.05,-3.05,-3.04
296.57,-2.56,0.49,-2.56,0.49,-0.49,-0.52,-3.05,-3.05,-3.05
299.53,-2.56,0.50,-2.56,0.50,-0.50,-0.51,-3.06,-3.06,-3.06
302.53,-2.56,0.50,-2.56,0.50,-0.50,-0.50,-3.06,-3.06,-3.06
305.55,-2.56,0.51,-2.56,0.51,-0.51,-0.49,-3.07,-3.07,-3.07
308.61,-2.56,0.51,-2.56,0.51,-0.51,-0.49,-3.07,-3.07,-3.07
311.69,-2.56,0.52,-2.56,0.52,-0.52,-0.48,-3.07,-3.07,-3.08
314.81,-2.56,0.52,-2.56,0.52,-0.52,-0.47,-3.08,-3.08,-3.08
317.96,-2.56,0.52,-2.56,0.52,-0.52,-0.46,-3.08,-3.08,-3.08
321.14,-2.56,0.53,-2.56,0.53,-0.53,-0.45,-3.08,-3.08,-3.08
324.35,-2.56,0.53,-2.56,0.53,-0.53,-0.44,-3.08,-3.08,-3.08
327.59,-2.56,0.53,-2.56,0.53,-0.53,-0.43,-3.09,-3.09,-3.09
330.87,-2.56,0.53,-2.56,0.53,-0.53,-0.42,-3.09,-3.09,-3.09
334.18,-2.56,0.53,-2.56,0.53,-0.53,-0.41,-3.09,-3.09,-3.09
337.52,-2.56,0.53,-2.56,0.53,-0.53,-0.40,-3.09,-3.09,-3.09
340.90,-2.56,0.53,-2.56,0.53,-0.53,-0.40,-3.09,-3.09,-3.09
344.30,-2.56,0.53,-2.56,0.53,-0.53,-0.39,-3.08,-3.08,-3.08
347.75,-2.56,0.53,-2.56,0.53,-0.53,-0.38,-3.08,-3.08,-3.08
351.23,-2.56,0.52,-2.56,0.52,-0.52,-0.37,-3.08,-3.08,-3.08
354.74,-2.56,0.52,-2.56,0.52,-0.52,-0.37,-3.08,-3.08,-3.08
358.28,-2.56,0.52,-2.56,0.52,-0.52,-0.36,-3.08,-3.08,-3.08
361.87,-2.56,0.52,-2.56,0.52,-0.52,-0.35,-3.07,-3.07,-3.07
365.49,-2.56,0.51,-2.56,0.51,-0.51,-0.35,-3.07,-3.07,-3.07
369.14,-2.56,0.51,-2.56,0.51,-0.51,-0.34,-3.07,-3.07,-3.07
372.83,-2.56,0.51,-2.56,0.51,-0.51,-0.34,-3.06,-3.07,-3.07
376.56,-2.56,0.50,-2.56,0.50,-0.50,-0.33,-3.06,-3.06,-3.06
380.33,-2.56,0.50,-2.56,0.50,-0.50,-0.33,-3.06,-3.06,-3.06
384.13,-2.56,0.50,-2.56,0.49,-0.49,-0.32,-3.05,-3.06,-3.05
387.97,-2.56,0.49,-2.56,0.49,-0.49,-0.32,-3.05,-3.05,-3.05
391.85,-2.56,0.49,-2.56,0.49,-0.49,-0.31,-3.04,-3.04,-3.05
395.77,-2.56,0.48,-2.56,0.48,-0.48,-0.31,-3.04,-3.04,-3.04
399.73,-2.56,0.48,-2.55,0.48,-0.48,-0.31,-3.04,-3.03,-3.03
403.72,-2.56,0.47,-2.55,0.48,-0.48,-0.30,-3.03,-3.03,-3.03
407.76,-2.55,0.47,-2.54,0.48,-0.48,-0.30,-3.02,-3.02,-3.02
411.84,-2.54,0.47,-2.54,0.48,-0.48,-0.30,-3.01,-3.01,-3.01
415.96,-2.54,0.47,-2.53,0.48,-0.48,-0.30,-3.01,-3.01,-3.00
420.12,-2.54,0.46,-2.52,0.48,-0.48,-0.29,-3.02,-3.00,-3.00
424.32,-2.50,0.49,-2.51,0.49,-0.49,-0.29,-2.98,-3.00,-2.99
428.56,-2.49,0.49,-2.50,0.49,-0.49,-0.29,-2.98,-2.99,-2.98
432.85,-2.49,0.49,-2.48,0.50,-0.50,-0.29,-2.99,-2.98,-2.97
437.18,-2.48,0.49,-2.46,0.51,-0.51,-0.29,-2.99,-2.97,-2.97
441.55,-2.45,0.51,-2.44,0.52,-0.52,-0.29,-2.97,-2.97,-2.96
445.96,-2.44,0.52,-2.42,0.54,-0.54,-0.29,-2.97,-2.96,-2.95
450.42,-2.42,0.53,-2.40,0.55,-0.55,-0.29,-2.96,-2.95,-2.95
454.93,-2.40,0.55,-2.39,0.56,-0.56,-0.29,-2.96,-2.94,-2.94
459.48,-2.37,0.57,-2.37,0.57,-0.57,-0.30,-2.94,-2.94,-2.93
464.07,-2.35,0.58,-2.35,0.58,-0.58,-0.30,-2.93,-2.93,-2.93
468.71,-2.31,0.62,-2.34,0.59,-0.59,-0.30,-2.89,-2.92,-2.92
473.40,-2.30,0.62,-2.33,0.59,-0.59,-0.30,-2.89,-2.91,-2.92
478.13,-2.30,0.61,-2.31,0.59,-0.59,-0.31,-2.89,-2.91,-2.91
482.91,-2.30,0.60,-2.30,0.59,-0.59,-0.31,-2.89,-2.89,-2.90
487.74,-2.30,0.59,-2.30,0.59,-0.59,-0.31,-2.88,-2.88,-2.89
492.62,-2.30,0.58,-2.29,0.58,-0.58,-0.32,-2.88,-2.87,-2.88
497.55,-2.30,0.57,-2.29,0.57,-0.57,-0.32,-2.87,-2.86,-2.86
502.52,-2.30,0.55,-2.29,0.56,-0.56,-0.33,-2.86,-2.85,-2.85
507.55,-2.30,0.54,-2.29,0.55,-0.55,-0.33,-2.85,-2.84,-2.84
512.62,-2.30,0.53,-2.29,0.54,-0.54,-0.34,-2.84,-2.83,-2.82
517.75,-2.30,0.51,-2.29,0.52,-0.52,-0.35,-2.82,-2.82,-2.81
522.93,-2.30,0.50,-2.30,0.51,-0.51,-0.35,-2.81,-2.81,-2.80
528.16,-2.30,0.49,-2.30,0.49,-0.49,-0.36,-2.79,-2.79,-2.78
533.44,-2.30,0.47,-2.30,0.48,-0.48,-0.37,-2.77,-2.77,-2.77
538.77,-2.30,0.46,-2.30,0.46,-0.46,-0.38,-2.76,-2.76,-2.76
544.16,-2.30,0.45,-2.30,0.44,-0.44,-0.38,-2.74,-2.74,-2.75
549.60,-2.30,0.44,-2.30,0.43,-0.43,-0.39,-2.73,-2.73,-2.73
555.10,-2.30,0.42,-2.30,0.41,-0.41,-0.40,-2.71,-2.71,-2.72
560.65,-2.30,0.41,-2.30,0.40,-0.40,-0.41,-2.69,-2.70,-2.70
566.25,-2.30,0.39,-2.31,0.38,-0.38,-0.42,-2.68,-2.69,-2.69
571.92,-2.30,0.37,-2.31,0.36,-0.36,-0.43,-2.66,-2.67,-2.67
577.64,-2.30,0.35,-2.31,0.35,-0.35,-0.45,-2.65,-2.66,-2.65
583.41,-2.30,0.33,-2.30,0.34,-0.34,-0.46,-2.63,-2.64,-2.63
589.25,-2.30,0.31,-2.29,0.33,-0.33,-0.47,-2.63,-2.62,-2.61
595.14,-2.30,0.30,-2.28,0.32,-0.32,-0.48,-2.62,-2.60,-2.59
601.09,-2.30,0.28,-2.27,0.32,-0.32,-0.50,-2.61,-2.59,-2.58
607.10,-2.30,0.26,-2.26,0.31,-0.31,-0.51,-2.61,-2.57,-2.56
613.17,-2.29,0.26,-2.24,0.31,-0.31,-0.52,-2.60,-2.56,-2.54
619.30,-2.24,0.29,-2.23,0.31,-0.31,-0.54,-2.55,-2.54,-2.53
625.50,-2.20,0.32,-2.21,0.31,-0.31,-0.55,-2.51,-2.53,-2.52
