frequency,raw,error,smoothed,error_smoothed,equalization,parametric_eq,equalized_raw,equalized_smoothed,target
20,-5.33,-4.65,-5.30,-4.61,4.61,0.40,-0.72,-0.69,-0.68
21,-4.89,-4.21,-4.89,-4.19,4.19,0.48,-0.70,-0.69,-0.68
22,-4.50,-3.81,-4.48,-3.79,3.79,0.56,-0.71,-0.70,-0.69
23,-4.07,-3.38,-4.10,-3.40,3.40,0.66,-0.67,-0.70,-0.69
24,-3.74,-3.04,-3.72,-3.02,3.02,0.76,-0.72,-0.70,-0.70
25,-3.34,-2.63,-3.36,-2.65,2.65,0.86,-0.69,-0.71,-0.71
26,-2.97,-2.26,-3.01,-2.30,2.30,0.95,-0.67,-0.72,-0.71
27,-2.67,-1.95,-2.68,-1.96,1.96,1.03,-0.71,-0.72,-0.72
28,-2.33,-1.60,-2.36,-1.63,1.63,1.10,-0.70,-0.73,-0.73
29,-2.11,-1.38,-2.06,-1.32,1.32,1.14,-0.79,-0.74,-0.73
30,-1.71,-0.97,-1.77,-1.02,1.02,1.14,-0.69,-0.74,-0.74
31,-1.50,-0.75,-1.50,-0.74,0.74,1.11,-0.76,-0.76,-0.75
32,-1.21,-0.45,-1.23,-0.47,0.47,1.05,-0.74,-0.76,-0.76
33,-1.00,-0.23,-0.99,-0.21,0.21,0.96,-0.79,-0.77,-0.77
34,-0.90,-0.12,-0.75,0.03,-0.03,0.85,-0.93,-0.78,-0.78
35,-0.47,0.32,-0.53,0.26,-0.26,0.71,-0.73,-0.79,-0.79
36,-0.31,0.49,-0.33,0.48,-0.48,0.56,-0.79,-0.81,-0.80
37,-0.11,0.70,-0.14,0.68,-0.68,0.40,-0.79,-0.82,-0.81
38,0.06,0.88,0.04,0.88,-0.88,0.24,-0.82,-0.84,-0.82
39,0.21,1.05,0.21,1.06,-1.06,0.07,-0.85,-0.85,-0.84
40,0.41,1.26,0.37,1.24,-1.24,-0.10,-0.83,-0.87,-0.85
41,0.59,1.46,0.53,1.41,-1.41,-0.27,-0.82,-0.88,-0.87
42,0.59,1.47,0.68,1.57,-1.57,-0.45,-0.98,-0.89,-0.88
43,0.79,1.69,0.82,1.72,-1.72,-0.62,-0.93,-0.90,-0.90
44,0.92,1.83,0.95,1.87,-1.87,-0.79,-0.95,-0.92,-0.91
45,0.95,1.88,1.06,2.00,-2.00,-0.95,-1.05,-0.95,-0.93
46,1.23,2.18,1.17,2.13,-2.13,-1.12,-0.90,-0.96,-0.95
47,1.29,2.26,1.27,2.25,-2.25,-1.29,-0.96,-0.98,-0.97
48,1.39,2.38,1.37,2.37,-2.37,-1.45,-0.98,-1.00,-0.99
49,1.49,2.50,1.46,2.47,-2.47,-1.62,-0.98,-1.02,-1.01
50,1.59,2.62,1.54,2.58,-2.58,-1.78,-0.99,-1.04,-1.03
51,1.60,2.65,1.61,2.67,-2.67,-1.94,-1.07,-1.05,-1.05
52,1.67,2.74,1.68,2.75,-2.75,-2.09,-1.08,-1.07,-1.07
53,1.71,2.80,1.74,2.83,-2.83,-2.24,-1.12,-1.10,-1.09
54,1.77,2.89,1.78,2.90,-2.90,-2.38,-1.13,-1.12,-1.12
55,1.80,2.94,1.82,2.97,-2.97,-2.51,-1.17,-1.15,-1.14
56,1.80,2.97,1.85,3.02,-3.02,-2.64,-1.22,-1.18,-1.17
57,1.96,3.15,1.88,3.08,-3.08,-2.75,-1.12,-1.20,-1.19
58,1.90,3.12,1.89,3.13,-3.13,-2.85,-1.23,-1.24,-1.22
59,1.90,3.15,1.91,3.17,-3.17,-2.95,-1.27,-1.26,-1.25
60,1.90,3.17,1.93,3.21,-3.21,-3.03,-1.31,-1.28,-1.27
61,1.90,3.20,1.93,3.24,-3.24,-3.09,-1.34,-1.30,-1.30
62,1.90,3.23,1.92,3.26,-3.26,-3.15,-1.36,-1.34,-1.33
63,1.90,3.26,1.91,3.28,-3.28,-3.19,-1.38,-1.37,-1.36
64,1.90,3.29,1.88,3.28,-3.28,-3.22,-1.38,-1.40,-1.39
65,1.90,3.32,1.85,3.27,-3.27,-3.24,-1.37,-1.43,-1.42
66,1.79,3.24,1.81,3.26,-3.26,-3.25,-1.47,-1.45,-1.45
67,1.74,3.23,1.75,3.23,-3.23,-3.25,-1.49,-1.48,-1.49
68,1.88,3.40,1.68,3.19,-3.19,-3.25,-1.31,-1.51,-1.52
69,1.51,3.06,1.60,3.15,-3.15,-3.24,-1.64,-1.55,-1.55
70,1.46,3.04,1.52,3.09,-3.09,-3.22,-1.63,-1.57,-1.58
71,1.40,3.02,1.41,3.03,-3.03,-3.21,-1.63,-1.62,-1.62
72,1.36,3.01,1.30,2.97,-2.97,-3.19,-1.61,-1.66,-1.65
73,1.27,2.96,1.19,2.90,-2.90,-3.16,-1.63,-1.71,-1.69
74,1.14,2.86,1.09,2.83,-2.83,-3.14,-1.69,-1.74,-1.72
75,0.99,2.75,0.99,2.77,-2.77,-3.12,-1.78,-1.78,-1.76
76,0.74,2.53,0.90,2.72,-2.72,-3.10,-1.98,-1.83,-1.79
77,0.76,2.59,0.82,2.68,-2.68,-3.08,-1.92,-1.87,-1.83
78,0.74,2.60,0.75,2.65,-2.65,-3.06,-1.91,-1.90,-1.86
79,0.67,2.57,0.71,2.63,-2.63,-3.05,-1.96,-1.92,-1.90
80,0.48,2.41,0.65,2.61,-2.61,-3.03,-2.13,-1.96,-1.93
81,0.59,2.56,0.60,2.60,-2.60,-3.02,-2.01,-2.00,-1.97
82,0.63,2.64,0.55,2.59,-2.59,-3.02,-1.96,-2.04,-2.01
83,0.59,2.63,0.51,2.58,-2.58,-3.01,-1.99,-2.07,-2.04
84,0.46,2.54,0.48,2.57,-2.57,-3.01,-2.11,-2.10,-2.08
85,0.47,2.59,0.44,2.56,-2.56,-3.02,-2.09,-2.12,-2.12
86,0.59,2.74,0.40,2.55,-2.55,-3.02,-1.96,-2.15,-2.15
87,0.37,2.56,0.34,2.53,-2.53,-3.03,-2.16,-2.18,-2.19
88,0.23,2.45,0.27,2.50,-2.50,-3.04,-2.27,-2.23,-2.22
89,0.17,2.43,0.21,2.47,-2.47,-3.06,-2.30,-2.26,-2.26
90,0.10,2.40,0.14,2.43,-2.43,-3.07,-2.33,-2.29,-2.30
91,0.07,2.40,0.06,2.40,-2.40,-3.09,-2.33,-2.33,-2.33
92,0.02,2.39,-0.02,2.36,-2.36,-3.12,-2.34,-2.37,-2.37
93,-0.08,2.32,-0.09,2.32,-2.32,-3.14,-2.40,-2.41,-2.40
94,-0.14,2.30,-0.15,2.29,-2.29,-3.17,-2.43,-2.45,-2.44
95,-0.21,2.26,-0.21,2.28,-2.28,-3.20,-2.49,-2.49,-2.47
96,-0.33,2.18,-0.26,2.27,-2.27,-3.23,-2.60,-2.53,-2.51
97,-0.35,2.19,-0.29,2.27,-2.27,-3.27,-2.62,-2.56,-2.54
98,-0.21,2.37,-0.30,2.29,-2.29,-3.30,-2.50,-2.59,-2.58
99,-0.31,2.30,-0.31,2.32,-2.32,-3.34,-2.63,-2.63,-2.61
100,-0.36,2.28,-0.31,2.36,-2.36,-3.38,-2.72,-2.67,-2.64
101,-0.39,2.29,-0.29,2.42,-2.42,-3.41,-2.81,-2.71,-2.68
102,-0.27,2.44,-0.25,2.49,-2.49,-3.45,-2.76,-2.74,-2.71
104,-0.17,2.61,-0.21,2.57,-2.57,-3.53,-2.74,-2.77,-2.78
105,-0.13,2.68,-0.15,2.66,-2.66,-3.57,-2.79,-2.81,-2.81
106,-0.11,2.73,-0.09,2.76,-2.76,-3.61,-2.87,-2.84,-2.84
107,-0.01,2.86,-0.01,2.86,-2.86,-3.65,-2.87,-2.88,-2.87
108,0.09,2.99,0.06,2.97,-2.97,-3.69,-2.88,-2.91,-2.90
109,0.18,3.11,0.14,3.08,-3.08,-3.73,-2.90,-2.95,-2.93
110,0.25,3.21,0.23,3.20,-3.20,-3.76,-2.95,-2.97,-2.96
111,0.32,3.31,0.32,3.32,-3.32,-3.80,-3.00,-3.00,-2.99
112,0.36,3.38,0.42,3.44,-3.44,-3.83,-3.08,-3.03,-3.02
113,0.47,3.52,0.50,3.56,-3.56,-3.86,-3.09,-3.06,-3.05
114,0.56,3.63,0.59,3.68,-3.68,-3.89,-3.12,-3.09,-3.07
115,0.63,3.73,0.67,3.79,-3.79,-3.92,-3.16,-3.12,-3.10
117,0.82,3.97,0.75,3.89,-3.89,-3.96,-3.07,-3.14,-3.15
118,0.83,4.00,0.83,3.99,-3.99,-3.98,-3.16,-3.16,-3.17
119,0.92,4.10,0.89,4.08,-4.08,-3.99,-3.16,-3.19,-3.18
120,0.96,4.16,0.95,4.15,-4.15,-4.00,-3.19,-3.21,-3.20
121,1.04,4.26,1.00,4.22,-4.22,-4.01,-3.18,-3.22,-3.22
123,1.05,4.31,1.03,4.27,-4.27,-4.02,-3.22,-3.24,-3.26
124,1.06,4.33,1.06,4.32,-4.32,-4.01,-3.26,-3.26,-3.27
125,1.06,4.34,1.07,4.35,-4.35,-4.01,-3.29,-3.28,-3.28
126,1.07,4.37,1.06,4.37,-4.37,-4.00,-3.30,-3.31,-3.30
128,1.08,4.41,1.05,4.38,-4.38,-3.98,-3.30,-3.33,-3.33
129,1.02,4.36,1.02,4.38,-4.38,-3.96,-3.36,-3.36,-3.34
130,0.99,4.35,1.00,4.38,-4.38,-3.94,-3.39,-3.38,-3.36
131,0.99,4.36,0.97,4.37,-4.37,-3.92,-3.38,-3.40,-3.37
133,0.93,4.33,0.95,4.36,-4.36,-3.87,-3.43,-3.42,-3.40
134,0.85,4.26,0.91,4.35,-4.35,-3.84,-3.50,-3.43,-3.41
135,0.82,4.25,0.88,4.33,-4.33,-3.81,-3.51,-3.45,-3.43
137,0.82,4.28,0.83,4.31,-4.31,-3.74,-3.49,-3.47,-3.46
138,0.75,4.22,0.78,4.28,-4.28,-3.71,-3.53,-3.49,-3.47
140,0.71,4.22,0.72,4.24,-4.24,-3.63,-3.53,-3.52,-3.51
141,0.71,4.23,0.66,4.20,-4.20,-3.59,-3.49,-3.54,-3.52
142,0.64,4.17,0.59,4.14,-4.14,-3.55,-3.50,-3.56,-3.53
144,0.60,4.16,0.51,4.08,-4.08,-3.47,-3.48,-3.58,-3.56
145,0.49,4.07,0.42,4.02,-4.02,-3.43,-3.53,-3.60,-3.58
147,0.27,3.88,0.33,3.94,-3.94,-3.35,-3.67,-3.61,-3.61
148,0.17,3.79,0.22,3.84,-3.84,-3.31,-3.67,-3.62,-3.62
150,0.05,3.70,0.10,3.73,-3.73,-3.23,-3.68,-3.63,-3.65
151,-0.06,3.60,-0.03,3.61,-3.61,-3.19,-3.67,-3.64,-3.66
153,-0.22,3.46,-0.18,3.47,-3.47,-3.11,-3.69,-3.65,-3.68
154,-0.27,3.42,-0.36,3.33,-3.33,-3.07,-3.60,-3.68,-3.69
156,-0.44,3.27,-0.55,3.18,-3.18,-2.99,-3.62,-3.73,-3.71
157,-0.62,3.10,-0.75,3.04,-3.04,-2.95,-3.66,-3.79,-3.72
159,-0.81,2.94,-0.93,2.90,-2.90,-2.88,-3.71,-3.82,-3.75
160,-0.92,2.84,-1.08,2.77,-2.77,-2.84,-3.69,-3.85,-3.76
162,-1.22,2.56,-1.21,2.67,-2.67,-2.77,-3.89,-3.88,-3.78
164,-1.40,2.40,-1.31,2.60,-2.60,-2.70,-4.00,-3.90,-3.80
165,-1.52,2.29,-1.37,2.56,-2.56,-2.67,-4.08,-3.93,-3.81
167,-1.77,2.07,-1.40,2.54,-2.54,-2.61,-4.31,-3.95,-3.84
169,-1.77,2.09,-1.40,2.56,-2.56,-2.55,-4.33,-3.96,-3.86
170,-1.66,2.21,-1.38,2.60,-2.60,-2.52,-4.26,-3.98,-3.87
172,-1.32,2.57,-1.33,2.66,-2.66,-2.47,-3.98,-3.99,-3.89
174,-1.05,2.86,-1.25,2.74,-2.74,-2.41,-3.79,-3.99,-3.91
175,-1.00,2.92,-1.16,2.83,-2.83,-2.39,-3.83,-3.99,-3.92
177,-0.85,3.08,-1.06,2.93,-2.93,-2.34,-3.78,-3.99,-3.93
179,-0.79,3.16,-0.96,3.02,-3.02,-2.30,-3.81,-3.98,-3.95
181,-0.74,3.22,-0.87,3.09,-3.09,-2.26,-3.83,-3.96,-3.96
183,-0.74,3.22,-0.79,3.15,-3.15,-2.22,-3.89,-3.94,-3.96
184,-0.78,3.18,-0.74,3.18,-3.18,-2.20,-3.96,-3.92,-3.96
186,-0.81,3.14,-0.73,3.20,-3.20,-2.16,-4.01,-3.93,-3.95
188,-0.79,3.16,-0.75,3.19,-3.19,-2.13,-3.98,-3.94,-3.95
190,-0.77,3.18,-0.79,3.17,-3.17,-2.10,-3.94,-3.96,-3.95
192,-0.85,3.09,-0.85,3.12,-3.12,-2.07,-3.97,-3.97,-3.94
194,-0.95,2.99,-0.90,3.06,-3.06,-2.04,-4.01,-3.96,-3.94
196,-0.93,3.00,-0.96,3.00,-3.00,-2.02,-3.93,-3.96,-3.93
198,-0.94,2.99,-1.03,2.93,-2.93,-2.00,-3.87,-3.96,-3.93
200,-1.07,2.86,-1.09,2.86,-2.86,-1.98,-3.93,-3.95,-3.93
202,-1.16,2.77,-1.15,2.79,-2.79,-1.96,-3.95,-3.94,-3.93
204,-1.30,2.63,-1.22,2.72,-2.72,-1.94,-4.02,-3.94,-3.93
206,-1.35,2.58,-1.30,2.65,-2.65,-1.92,-4.00,-3.95,-3.93
208,-1.39,2.55,-1.38,2.58,-2.58,-1.90,-3.97,-3.96,-3.94
210,-1.48,2.47,-1.46,2.50,-2.50,-1.89,-3.98,-3.96,-3.95
212,-1.53,2.43,-1.54,2.43,-2.43,-1.88,-3.96,-3.97,-3.96
214,-1.61,2.36,-1.62,2.35,-2.35,-1.86,-3.96,-3.97,-3.97
216,-1.66,2.32,-1.71,2.28,-2.28,-1.85,-3.94,-3.99,-3.98
218,-1.72,2.27,-1.79,2.20,-2.20,-1.84,-3.92,-4.00,-3.99
221,-1.89,2.11,-1.87,2.13,-2.13,-1.83,-4.02,-4.00,-4.00
223,-1.98,2.02,-1.95,2.05,-2.05,-1.82,-4.03,-4.01,-4.00
225,-2.03,1.98,-2.03,1.98,-1.98,-1.81,-4.01,-4.01,-4.01
227,-2.10,1.91,-2.11,1.90,-1.90,-1.80,-4.00,-4.01,-4.01
229,-2.18,1.83,-2.18,1.83,-1.83,-1.79,-4.01,-4.01,-4.01
232,-2.32,1.69,-2.26,1.75,-1.75,-1.78,-4.07,-4.01,-4.01
234,-2.37,1.63,-2.32,1.68,-1.68,-1.77,-4.05,-4.01,-4.00
236,-2.39,1.60,-2.39,1.61,-1.61,-1.76,-4.00,-4.00,-3.99
239,-2.41,1.58,-2.44,1.55,-1.55,-1.75,-3.96,-3.99,-3.99
241,-2.51,1.46,-2.49,1.49,-1.49,-1.74,-4.00,-3.98,-3.97
244,-2.54,1.42,-2.53,1.43,-1.43,-1.72,-3.97,-3.96,-3.96
246,-2.52,1.42,-2.57,1.38,-1.38,-1.71,-3.90,-3.95,-3.94
248,-2.59,1.34,-2.61,1.33,-1.33,-1.70,-3.92,-3.94,-3.93
251,-2.68,1.24,-2.64,1.28,-1.28,-1.69,-3.96,-3.92,-3.92
253,-2.67,1.24,-2.67,1.24,-1.24,-1.68,-3.91,-3.91,-3.91
256,-2.68,1.22,-2.70,1.21,-1.21,-1.67,-3.89,-3.90,-3.90
259,-2.75,1.14,-2.73,1.17,-1.17,-1.65,-3.92,-3.90,-3.89
261,-2.75,1.14,-2.76,1.14,-1.14,-1.64,-3.89,-3.90,-3.89
264,-2.74,1.15,-2.78,1.12,-1.12,-1.63,-3.86,-3.89,-3.89
266,-2.74,1.15,-2.80,1.09,-1.09,-1.61,-3.83,-3.89,-3.89
269,-2.86,1.03,-2.82,1.08,-1.08,-1.60,-3.94,-3.90,-3.89
272,-2.87,1.02,-2.84,1.06,-1.06,-1.58,-3.93,-3.90,-3.89
274,-2.85,1.04,-2.84,1.05,-1.05,-1.57,-3.90,-3.90,-3.89
277,-2.86,1.03,-2.84,1.05,-1.05,-1.56,-3.91,-3.89,-3.89
280,-2.85,1.04,-2.84,1.05,-1.05,-1.54,-3.90,-3.89,-3.89
283,-2.85,1.04,-2.84,1.05,-1.05,-1.52,-3.90,-3.89,-3.89
286,-2.85,1.04,-2.83,1.05,-1.05,-1.51,-3.90,-3.89,-3.89
288,-2.84,1.04,-2.83,1.06,-1.06,-1.50,-3.90,-3.88,-3.88
291,-2.84,1.03,-2.81,1.06,-1.06,-1.48,-3.90,-3.88,-3.87
294,-2.84,1.02,-2.80,1.07,-1.07,-1.47,-3.91,-3.87,-3.86
297,-2.70,1.16,-2.78,1.07,-1.07,-1.46,-3.77,-3.85,-3.86
300,-2.69,1.16,-2.77,1.07,-1.07,-1.44,-3.76,-3.85,-3.85
303,-2.76,1.08,-2.76,1.07,-1.07,-1.43,-3.83,-3.84,-3.84
306,-2.77,1.06,-2.76,1.07,-1.07,-1.42,-3.84,-3.83,-3.83
309,-2.76,1.06,-2.75,1.07,-1.07,-1.41,-3.83,-3.82,-3.82
312,-2.75,1.06,-2.75,1.07,-1.07,-1.40,-3.82,-3.82,-3.81
316,-2.75,1.06,-2.75,1.07,-1.07,-1.39,-3.82,-3.82,-3.81
319,-2.75,1.05,-2.75,1.07,-1.07,-1.38,-3.82,-3.81,-3.80
322,-2.75,1.05,-2.75,1.06,-1.06,-1.37,-3.81,-3.81,-3.80
325,-2.75,1.05,-2.75,1.07,-1.07,-1.36,-3.82,-3.81,-3.80
328,-2.75,1.05,-2.75,1.07,-1.07,-1.36,-3.82,-3.81,-3.80
332,-2.75,1.05,-2.74,1.07,-1.07,-1.35,-3.82,-3.81,-3.80
335,-2.75,1.05,-2.72,1.08,-1.08,-1.35,-3.83,-3.80,-3.80
338,-2.75,1.05,-2.72,1.09,-1.09,-1.34,-3.84,-3.81,-3.80
342,-2.71,1.09,-2.71,1.10,-1.10,-1.34,-3.81,-3.81,-3.80
345,-2.65,1.15,-2.70,1.11,-1.11,-1.34,-3.76,-3.81,-3.80
349,-2.65,1.15,-2.68,1.12,-1.12,-1.34,-3.77,-3.80,-3.80
352,-2.65,1.15,-2.67,1.13,-1.13,-1.34,-3.78,-3.80,-3.80
356,-2.65,1.15,-2.66,1.14,-1.14,-1.34,-3.79,-3.80,-3.80
359,-2.65,1.14,-2.64,1.16,-1.16,-1.34,-3.81,-3.80,-3.79
363,-2.64,1.15,-2.62,1.17,-1.17,-1.35,-3.81,-3.79,-3.79
366,-2.63,1.15,-2.59,1.19,-1.19,-1.35,-3.82,-3.78,-3.78
370,-2.63,1.14,-2.57,1.20,-1.20,-1.36,-3.83,-3.77,-3.77
374,-2.52,1.24,-2.55,1.22,-1.22,-1.36,-3.74,-3.77,-3.76
377,-2.51,1.24,-2.53,1.23,-1.23,-1.37,-3.74,-3.77,-3.75
381,-2.50,1.25,-2.51,1.25,-1.25,-1.38,-3.75,-3.76,-3.75
385,-2.50,1.24,-2.49,1.27,-1.27,-1.39,-3.77,-3.75,-3.74
389,-2.47,1.27,-2.46,1.29,-1.29,-1.40,-3.76,-3.75,-3.74
393,-2.39,1.35,-2.44,1.31,-1.31,-1.41,-3.70,-3.75,-3.74
397,-2.39,1.35,-2.42,1.33,-1.33,-1.42,-3.72,-3.74,-3.74
401,-2.39,1.35,-2.40,1.35,-1.35,-1.43,-3.74,-3.74,-3.74
405,-2.39,1.35,-2.38,1.36,-1.36,-1.44,-3.75,-3.74,-3.74
409,-2.39,1.35,-2.36,1.38,-1.38,-1.45,-3.77,-3.74,-3.74
413,-2.30,1.44,-2.34,1.40,-1.40,-1.47,-3.70,-3.74,-3.74
417,-2.30,1.43,-2.32,1.42,-1.42,-1.48,-3.72,-3.73,-3.73
421,-2.30,1.43,-2.29,1.43,-1.43,-1.49,-3.73,-3.73,-3.73
425,-2.29,1.43,-2.27,1.45,-1.45,-1.51,-3.74,-3.71,-3.72
430,-2.28,1.42,-2.23,1.46,-1.46,-1.52,-3.74,-3.70,-3.70
434,-2.18,1.50,-2.19,1.48,-1.48,-1.54,-3.66,-3.67,-3.68
438,-2.13,1.52,-2.14,1.50,-1.50,-1.55,-3.63,-3.64,-3.65
443,-2.09,1.52,-2.08,1.52,-1.52,-1.56,-3.61,-3.60,-3.61
447,-2.05,1.51,-2.02,1.53,-1.53,-1.58,-3.58,-3.55,-3.56
451,-2.00,1.51,-1.96,1.55,-1.55,-1.59,-3.55,-3.51,-3.51
456,-1.94,1.52,-1.89,1.56,-1.56,-1.60,-3.50,-3.46,-3.46
460,-1.84,1.56,-1.82,1.58,-1.58,-1.61,-3.42,-3.40,-3.40
465,-1.69,1.65,-1.76,1.59,-1.59,-1.62,-3.28,-3.35,-3.34
470,-1.65,1.64,-1.69,1.60,-1.60,-1.64,-3.25,-3.29,-3.29
474,-1.60,1.63,-1.63,1.61,-1.61,-1.64,-3.21,-3.24,-3.23
479,-1.54,1.63,-1.57,1.62,-1.62,-1.65,-3.16,-3.19,-3.17
484,-1.50,1.62,-1.51,1.63,-1.63,-1.66,-3.13,-3.14,-3.12
489,-1.46,1.62,-1.46,1.64,-1.64,-1.67,-3.10,-3.10,-3.08
494,-1.42,1.62,-1.41,1.65,-1.65,-1.67,-3.07,-3.06,-3.04
499,-1.39,1.61,-1.36,1.66,-1.66,-1.68,-3.05,-3.02,-3.00
504,-1.37,1.61,-1.33,1.67,-1.67,-1.68,-3.04,-3.00,-2.98
509,-1.35,1.61,-1.30,1.69,-1.69,-1.68,-3.04,-2.98,-2.96
514,-1.21,1.74,-1.27,1.70,-1.70,-1.68,-2.91,-2.97,-2.95
519,-1.23,1.72,-1.25,1.71,-1.71,-1.68,-2.94,-2.97,-2.95
524,-1.28,1.67,-1.24,1.73,-1.73,-1.68,-3.01,-2.97,-2.95
529,-1.24,1.73,-1.24,1.74,-1.74,-1.68,-2.98,-2.98,-2.97
535,-1.17,1.82,-1.24,1.75,-1.75,-1.67,-2.92,-3.00,-2.99
540,-1.20,1.82,-1.26,1.76,-1.76,-1.67,-2.96,-3.03,-3.02
545,-1.24,1.81,-1.29,1.77,-1.77,-1.66,-3.01,-3.06,-3.05
551,-1.29,1.79,-1.32,1.77,-1.77,-1.66,-3.06,-3.09,-3.08
556,-1.34,1.78,-1.34,1.78,-1.78,-1.65,-3.12,-3.12,-3.12
562,-1.39,1.76,-1.37,1.78,-1.78,-1.64,-3.17,-3.15,-3.15
568,-1.44,1.74,-1.41,1.77,-1.77,-1.64,-3.21,-3.18,-3.18
573,-1.48,1.72,-1.43,1.77,-1.77,-1.63,-3.25,-3.20,-3.20
579,-1.51,1.71,-1.45,1.77,-1.77,-1.62,-3.28,-3.22,-3.22
585,-1.54,1.69,-1.47,1.76,-1.76,-1.61,-3.30,-3.23,-3.23
591,-1.55,1.69,-1.48,1.76,-1.76,-1.61,-3.31,-3.24,-3.24
596,-1.42,1.81,-1.48,1.76,-1.76,-1.60,-3.18,-3.24,-3.23
602,-1.41,1.81,-1.47,1.75,-1.75,-1.60,-3.16,-3.22,-3.22
608,-1.44,1.77,-1.46,1.75,-1.75,-1.59,-3.19,-3.21,-3.21
615,-1.43,1.76,-1.45,1.74,-1.74,-1.58,-3.17,-3.19,-3.19
621,-1.41,1.75,-1.42,1.74,-1.74,-1.58,-3.15,-3.16,-3.16
627,-1.38,1.74,-1.39,1.74,-1.74,-1.58,-3.12,-3.12,-3.12
633,-1.35,1.73,-1.35,1.73,-1.73,-1.57,-3.08,-3.08,-3.08
639,-1.32,1.72,-1.31,1.73,-1.73,-1.57,-3.05,-3.04,-3.04
646,-1.28,1.71,-1.26,1.73,-1.73,-1.57,-3.01,-2.99,-2.99
652,-1.25,1.69,-1.22,1.74,-1.74,-1.57,-2.99,-2.95,-2.94
659,-1.23,1.66,-1.17,1.74,-1.74,-1.57,-2.97,-2.91,-2.89
665,-1.16,1.68,-1.10,1.75,-1.75,-1.57,-2.91,-2.86,-2.84
672,-0.99,1.80,-1.03,1.77,-1.77,-1.57,-2.76,-2.80,-2.79
679,-0.94,1.80,-0.97,1.78,-1.78,-1.58,-2.72,-2.75,-2.74
686,-0.89,1.81,-0.91,1.80,-1.80,-1.58,-2.69,-2.71,-2.70
692,-0.85,1.81,-0.86,1.82,-1.82,-1.59,-2.67,-2.68,-2.66
699,-0.83,1.80,-0.81,1.84,-1.84,-1.60,-2.67,-2.65,-2.63
706,-0.71,1.89,-0.76,1.86,-1.86,-1.61,-2.57,-2.62,-2.60
713,-0.71,1.88,-0.73,1.88,-1.88,-1.62,-2.59,-2.60,-2.59
721,-0.61,1.97,-0.69,1.89,-1.89,-1.63,-2.50,-2.59,-2.58
728,-0.63,1.95,-0.67,1.91,-1.91,-1.64,-2.54,-2.58,-2.58
735,-0.66,1.92,-0.65,1.92,-1.92,-1.65,-2.58,-2.57,-2.58
742,-0.71,1.87,-0.65,1.93,-1.93,-1.67,-2.64,-2.58,-2.58
750,-0.67,1.91,-0.64,1.93,-1.93,-1.68,-2.60,-2.57,-2.58
757,-0.64,1.94,-0.63,1.94,-1.94,-1.70,-2.58,-2.57,-2.58
765,-0.66,1.92,-0.63,1.94,-1.94,-1.72,-2.60,-2.57,-2.58
773,-0.63,1.94,-0.62,1.94,-1.94,-1.74,-2.57,-2.56,-2.57
780,-0.59,1.97,-0.62,1.94,-1.94,-1.76,-2.53,-2.55,-2.56
788,-0.60,1.95,-0.61,1.93,-1.93,-1.78,-2.53,-2.54,-2.55
796,-0.60,1.94,-0.60,1.93,-1.93,-1.80,-2.53,-2.53,-2.54
804,-0.59,1.93,-0.59,1.93,-1.93,-1.83,-2.52,-2.51,-2.52
812,-0.59,1.91,-0.57,1.93,-1.93,-1.85,-2.52,-2.50,-2.50
820,-0.58,1.91,-0.56,1.93,-1.93,-1.87,-2.51,-2.49,-2.49
828,-0.53,1.94,-0.56,1.93,-1.93,-1.90,-2.46,-2.49,-2.47
837,-0.48,1.97,-0.54,1.94,-1.94,-1.93,-2.42,-2.48,-2.45
845,-0.48,1.96,-0.52,1.95,-1.95,-1.95,-2.43,-2.46,-2.44
853,-0.53,1.90,-0.49,1.96,-1.96,-1.98,-2.49,-2.45,-2.43
862,-0.49,1.93,-0.46,1.98,-1.98,-2.00,-2.47,-2.44,-2.42
871,-0.50,1.92,-0.43,2.01,-2.01,-2.03,-2.51,-2.43,-2.42
879,-0.43,1.98,-0.39,2.04,-2.04,-2.06,-2.47,-2.43,-2.41
888,-0.39,2.02,-0.35,2.07,-2.07,-2.08,-2.46,-2.42,-2.41
897,-0.33,2.07,-0.31,2.10,-2.10,-2.11,-2.43,-2.41,-2.40
906,-0.22,2.17,-0.27,2.13,-2.13,-2.13,-2.35,-2.40,-2.39
915,-0.17,2.22,-0.23,2.16,-2.16,-2.16,-2.33,-2.39,-2.39
924,-0.13,2.25,-0.19,2.19,-2.19,-2.18,-2.32,-2.38,-2.38
933,-0.13,2.25,-0.15,2.22,-2.22,-2.20,-2.35,-2.36,-2.38
943,-0.13,2.24,-0.11,2.24,-2.24,-2.23,-2.37,-2.35,-2.37
952,-0.13,2.23,-0.09,2.25,-2.25,-2.25,-2.38,-2.35,-2.36
962,-0.05,2.30,-0.08,2.26,-2.26,-2.27,-2.31,-2.34,-2.35
971,-0.02,2.32,-0.07,2.27,-2.27,-2.28,-2.29,-2.34,-2.34
981,0.01,2.33,-0.05,2.28,-2.28,-2.30,-2.27,-2.33,-2.32
991,0.00,2.31,-0.03,2.28,-2.28,-2.32,-2.28,-2.32,-2.31
1001,0.00,2.29,-0.01,2.29,-2.29,-2.33,-2.29,-2.30,-2.29
1011,-0.06,2.21,0.01,2.30,-2.30,-2.34,-2.36,-2.29,-2.27
1021,-0.04,2.21,0.05,2.31,-2.31,-2.35,-2.35,-2.27,-2.25
1031,-0.01,2.21,0.09,2.33,-2.33,-2.36,-2.34,-2.24,-2.22
1041,0.02,2.21,0.14,2.35,-2.35,-2.37,-2.33,-2.22,-2.19
1052,0.25,2.42,0.19,2.38,-2.38,-2.38,-2.13,-2.20,-2.17
1062,0.29,2.43,0.24,2.41,-2.41,-2.38,-2.12,-2.17,-2.14
1073,0.34,2.45,0.31,2.45,-2.45,-2.39,-2.11,-2.14,-2.11
1084,0.39,2.47,0.38,2.48,-2.48,-2.39,-2.09,-2.10,-2.08
1094,0.44,2.49,0.46,2.51,-2.51,-2.40,-2.07,-2.05,-2.05
1105,0.50,2.52,0.53,2.53,-2.53,-2.40,-2.03,-2.00,-2.02
1116,0.56,2.55,0.58,2.53,-2.53,-2.40,-1.97,-1.95,-1.99
1128,0.63,2.58,0.63,2.53,-2.53,-2.40,-1.90,-1.91,-1.95
1139,0.70,2.62,0.65,2.52,-2.52,-2.41,-1.82,-1.87,-1.92
1150,0.69,2.57,0.65,2.50,-2.50,-2.41,-1.81,-1.85,-1.88
1162,0.77,2.62,0.63,2.47,-2.47,-2.41,-1.70,-1.84,-1.85
1173,0.74,2.55,0.61,2.43,-2.43,-2.42,-1.69,-1.82,-1.81
1185,0.68,2.45,0.59,2.38,-2.38,-2.42,-1.70,-1.80,-1.77
1197,0.58,2.32,0.57,2.34,-2.34,-2.43,-1.76,-1.77,-1.74
1209,0.48,2.18,0.56,2.30,-2.30,-2.43,-1.82,-1.74,-1.70
1221,0.48,2.14,0.56,2.27,-2.27,-2.44,-1.79,-1.71,-1.66
1233,0.45,2.08,0.56,2.25,-2.25,-2.45,-1.80,-1.69,-1.63
1246,0.39,1.99,0.58,2.24,-2.24,-2.46,-1.85,-1.66,-1.60
1258,0.49,2.07,0.61,2.25,-2.25,-2.47,-1.76,-1.64,-1.58
1271,0.53,2.09,0.65,2.28,-2.28,-2.49,-1.75,-1.63,-1.56
1283,0.68,2.22,0.71,2.32,-2.32,-2.50,-1.64,-1.61,-1.54
1296,0.87,2.41,0.78,2.38,-2.38,-2.52,-1.51,-1.60,-1.54
1309,0.99,2.53,0.86,2.44,-2.44,-2.54,-1.45,-1.58,-1.54
1322,1.06,2.61,0.94,2.50,-2.50,-2.56,-1.44,-1.56,-1.55
1335,1.08,2.64,1.01,2.57,-2.57,-2.58,-1.49,-1.56,-1.56
1349,1.08,2.65,1.07,2.63,-2.63,-2.61,-1.55,-1.56,-1.57
1362,1.15,2.74,1.13,2.69,-2.69,-2.63,-1.54,-1.56,-1.59
1376,1.15,2.76,1.16,2.74,-2.74,-2.67,-1.59,-1.57,-1.61
1390,1.15,2.79,1.18,2.77,-2.77,-2.70,-1.62,-1.60,-1.64
1404,1.20,2.85,1.18,2.80,-2.80,-2.73,-1.60,-1.62,-1.65
1418,1.20,2.87,1.17,2.82,-2.82,-2.77,-1.62,-1.65,-1.67
1432,1.14,2.83,1.14,2.82,-2.82,-2.81,-1.68,-1.68,-1.69
1446,1.11,2.80,1.12,2.82,-2.82,-2.85,-1.71,-1.69,-1.69
1461,1.12,2.82,1.11,2.80,-2.80,-2.89,-1.68,-1.70,-1.70
1475,1.10,2.80,1.09,2.79,-2.79,-2.94,-1.69,-1.70,-1.70
1490,1.05,2.74,1.07,2.77,-2.77,-2.99,-1.72,-1.70,-1.69
1505,1.01,2.70,1.05,2.75,-2.75,-3.04,-1.74,-1.70,-1.69
1520,1.03,2.71,1.03,2.73,-2.73,-3.09,-1.70,-1.70,-1.68
1535,1.01,2.67,1.01,2.71,-2.71,-3.14,-1.70,-1.69,-1.66
1550,0.93,2.58,1.00,2.68,-2.68,-3.20,-1.75,-1.68,-1.65
1566,1.01,2.64,1.00,2.66,-2.66,-3.25,-1.65,-1.67,-1.63
1582,1.09,2.70,0.99,2.64,-2.64,-3.31,-1.55,-1.65,-1.61
1597,1.02,2.60,0.98,2.62,-2.62,-3.37,-1.60,-1.65,-1.58
1613,0.97,2.52,0.97,2.61,-2.61,-3.43,-1.64,-1.64,-1.55
