frequency,raw,error,smoothed,error_smoothed,equalization,parametric_eq,equalized_raw,equalized_smoothed,target
20,2.60,-0.79,2.53,-0.83,0.83,0.18,3.43,3.36,3.38
21,2.63,-0.75,2.60,-0.76,0.76,0.21,3.39,3.36,3.38
22,2.68,-0.70,2.66,-0.70,0.70,0.25,3.37,3.36,3.38
23,2.70,-0.68,2.72,-0.64,0.64,0.28,3.33,3.36,3.38
24,2.73,-0.65,2.78,-0.58,0.58,0.32,3.30,3.35,3.37
25,2.78,-0.59,2.83,-0.52,0.52,0.36,3.30,3.35,3.37
26,2.82,-0.55,2.88,-0.47,0.47,0.40,3.29,3.35,3.37
27,2.87,-0.50,2.92,-0.43,0.43,0.43,3.29,3.35,3.36
28,2.94,-0.42,2.96,-0.38,0.38,0.46,3.32,3.34,3.36
29,3.00,-0.36,3.00,-0.34,0.34,0.48,3.34,3.34,3.35
30,3.07,-0.28,3.03,-0.30,0.30,0.48,3.37,3.33,3.35
31,3.12,-0.23,3.07,-0.26,0.26,0.48,3.38,3.33,3.34
32,3.14,-0.20,3.10,-0.23,0.23,0.47,3.37,3.33,3.34
33,3.15,-0.19,3.12,-0.20,0.20,0.44,3.35,3.33,3.33
34,3.16,-0.17,3.14,-0.18,0.18,0.41,3.34,3.32,3.33
35,3.16,-0.16,3.16,-0.16,0.16,0.37,3.32,3.32,3.32
36,3.16,-0.15,3.16,-0.15,0.15,0.33,3.30,3.31,3.31
37,3.16,-0.15,3.16,-0.14,0.14,0.28,3.29,3.30,3.30
38,3.15,-0.15,3.16,-0.13,0.13,0.24,3.28,3.29,3.29
39,3.14,-0.15,3.15,-0.13,0.13,0.19,3.26,3.28,3.28
40,3.13,-0.15,3.14,-0.13,0.13,0.14,3.25,3.27,3.27
41,3.13,-0.13,3.13,-0.12,0.12,0.10,3.25,3.25,3.26
42,3.13,-0.12,3.12,-0.12,0.12,0.05,3.25,3.24,3.25
43,3.13,-0.11,3.11,-0.11,0.11,0.01,3.24,3.23,3.23
44,3.12,-0.10,3.11,-0.11,0.11,-0.03,3.22,3.22,3.22
45,3.12,-0.09,3.11,-0.09,0.09,-0.08,3.21,3.20,3.21
46,3.11,-0.08,3.11,-0.08,0.08,-0.12,3.18,3.19,3.19
47,3.10,-0.08,3.11,-0.06,0.06,-0.16,3.16,3.17,3.17
48,3.11,-0.05,3.12,-0.04,0.04,-0.20,3.14,3.15,3.16
49,3.11,-0.03,3.13,-0.01,0.01,-0.23,3.12,3.14,3.14
50,3.13,0.01,3.14,0.02,-0.02,-0.27,3.10,3.12,3.12
51,3.15,0.05,3.15,0.06,-0.06,-0.31,3.09,3.10,3.10
52,3.18,0.10,3.17,0.10,-0.10,-0.35,3.08,3.07,3.08
53,3.20,0.14,3.19,0.14,-0.14,-0.38,3.05,3.05,3.06
54,3.23,0.19,3.22,0.19,-0.19,-0.42,3.03,3.03,3.04
55,3.26,0.24,3.25,0.24,-0.24,-0.46,3.01,3.00,3.01
56,3.29,0.30,3.28,0.30,-0.30,-0.49,2.99,2.98,2.99
57,3.32,0.35,3.32,0.36,-0.36,-0.52,2.96,2.96,2.96
58,3.35,0.41,3.36,0.42,-0.42,-0.56,2.92,2.93,2.94
59,3.39,0.48,3.39,0.49,-0.49,-0.59,2.90,2.91,2.91
60,3.42,0.53,3.43,0.55,-0.55,-0.62,2.87,2.88,2.88
61,3.45,0.59,3.46,0.61,-0.61,-0.65,2.83,2.85,2.85
62,3.49,0.66,3.50,0.68,-0.68,-0.68,2.81,2.82,2.82
63,3.54,0.74,3.52,0.74,-0.74,-0.72,2.80,2.79,2.79
64,3.58,0.82,3.55,0.79,-0.79,-0.75,2.78,2.76,2.76
65,3.61,0.88,3.57,0.85,-0.85,-0.77,2.76,2.72,2.73
66,3.62,0.92,3.59,0.90,-0.90,-0.80,2.72,2.69,2.70
67,3.62,0.95,3.60,0.95,-0.95,-0.83,2.67,2.66,2.66
68,3.62,0.99,3.61,0.99,-0.99,-0.86,2.62,2.62,2.63
69,3.61,1.01,3.62,1.03,-1.03,-0.89,2.57,2.59,2.59
70,3.61,1.05,3.63,1.07,-1.07,-0.92,2.53,2.55,2.56
71,3.61,1.09,3.63,1.11,-1.11,-0.95,2.49,2.51,2.52
72,3.61,1.12,3.63,1.15,-1.15,-0.99,2.45,2.47,2.48
73,3.62,1.17,3.62,1.19,-1.19,-1.02,2.43,2.44,2.44
74,3.64,1.23,3.62,1.22,-1.22,-1.05,2.41,2.40,2.41
75,3.64,1.27,3.62,1.26,-1.26,-1.08,2.37,2.36,2.37
76,3.64,1.31,3.62,1.30,-1.30,-1.12,2.34,2.32,2.33
77,3.62,1.33,3.62,1.34,-1.34,-1.16,2.28,2.29,2.29
78,3.62,1.37,3.62,1.38,-1.38,-1.19,2.24,2.25,2.25
79,3.62,1.41,3.62,1.41,-1.41,-1.23,2.20,2.21,2.21
80,3.62,1.45,3.62,1.45,-1.45,-1.27,2.17,2.17,2.17
81,3.62,1.49,3.61,1.49,-1.49,-1.31,2.13,2.13,2.13
82,3.62,1.53,3.61,1.52,-1.52,-1.35,2.09,2.08,2.08
83,3.61,1.56,3.60,1.56,-1.56,-1.39,2.05,2.04,2.04
84,3.60,1.59,3.59,1.59,-1.59,-1.44,2.00,2.00,2.00
85,3.59,1.63,3.59,1.63,-1.63,-1.48,1.96,1.96,1.96
86,3.58,1.66,3.58,1.66,-1.66,-1.53,1.92,1.92,1.92
87,3.57,1.69,3.57,1.69,-1.69,-1.58,1.87,1.88,1.88
88,3.56,1.72,3.56,1.73,-1.73,-1.62,1.83,1.83,1.84
89,3.56,1.76,3.55,1.76,-1.76,-1.67,1.80,1.79,1.79
90,3.55,1.79,3.54,1.79,-1.79,-1.73,1.75,1.75,1.75
91,3.53,1.81,3.54,1.83,-1.83,-1.78,1.70,1.71,1.71
92,3.53,1.86,3.53,1.86,-1.86,-1.83,1.67,1.67,1.67
93,3.52,1.89,3.52,1.89,-1.89,-1.88,1.63,1.63,1.63
94,3.51,1.92,3.51,1.92,-1.92,-1.94,1.58,1.59,1.59
95,3.50,1.95,3.50,1.95,-1.95,-1.99,1.54,1.55,1.55
96,3.50,1.99,3.49,1.98,-1.98,-2.05,1.51,1.51,1.51
97,3.50,2.03,3.48,2.01,-2.01,-2.10,1.48,1.47,1.47
98,3.49,2.06,3.47,2.04,-2.04,-2.16,1.44,1.42,1.43
99,3.47,2.08,3.45,2.07,-2.07,-2.22,1.39,1.38,1.39
100,3.46,2.10,3.44,2.11,-2.11,-2.27,1.35,1.34,1.35
101,3.44,2.12,3.43,2.14,-2.14,-2.33,1.30,1.30,1.31
102,3.41,2.13,3.42,2.17,-2.17,-2.39,1.24,1.25,1.27
104,3.39,2.19,3.41,2.20,-2.20,-2.50,1.19,1.21,1.20
105,3.38,2.21,3.40,2.23,-2.23,-2.55,1.14,1.17,1.16
106,3.38,2.25,3.40,2.26,-2.26,-2.61,1.11,1.13,1.13
107,3.39,2.29,3.39,2.29,-2.29,-2.66,1.09,1.10,1.09
108,3.39,2.33,3.39,2.33,-2.33,-2.71,1.06,1.06,1.06
109,3.40,2.37,3.38,2.36,-2.36,-2.76,1.04,1.02,1.02
110,3.40,2.41,3.38,2.39,-2.39,-2.81,1.00,0.99,0.99
111,3.40,2.44,3.37,2.42,-2.42,-2.86,0.97,0.95,0.96
112,3.38,2.45,3.37,2.45,-2.45,-2.90,0.92,0.91,0.92
113,3.38,2.48,3.36,2.49,-2.49,-2.95,0.89,0.88,0.89
114,3.37,2.51,3.36,2.52,-2.52,-2.99,0.85,0.84,0.86
115,3.37,2.54,3.36,2.55,-2.55,-3.02,0.81,0.81,0.83
117,3.34,2.57,3.36,2.58,-2.58,-3.09,0.75,0.77,0.77
118,3.33,2.59,3.36,2.62,-2.62,-3.12,0.71,0.74,0.74
119,3.33,2.62,3.36,2.65,-2.65,-3.15,0.68,0.71,0.71
120,3.34,2.65,3.36,2.68,-2.68,-3.17,0.65,0.67,0.68
121,3.34,2.68,3.35,2.72,-2.72,-3.19,0.62,0.64,0.65
123,3.37,2.77,3.35,2.75,-2.75,-3.22,0.62,0.60,0.60
124,3.39,2.81,3.34,2.78,-2.78,-3.24,0.61,0.57,0.57
125,3.38,2.83,3.34,2.81,-2.81,-3.25,0.57,0.53,0.55
126,3.38,2.85,3.34,2.83,-2.83,-3.25,0.54,0.50,0.52
128,3.35,2.87,3.33,2.86,-2.86,-3.26,0.49,0.48,0.47
129,3.32,2.86,3.33,2.88,-2.88,-3.25,0.43,0.45,0.45
130,3.30,2.87,3.33,2.90,-2.90,-3.25,0.39,0.42,0.43
131,3.29,2.88,3.32,2.92,-2.92,-3.24,0.36,0.39,0.41
133,3.27,2.90,3.31,2.94,-2.94,-3.23,0.32,0.36,0.36
134,3.29,2.94,3.29,2.96,-2.96,-3.21,0.32,0.33,0.34
135,3.30,2.98,3.28,2.98,-2.98,-3.20,0.32,0.30,0.32
137,3.30,3.02,3.27,3.00,-3.00,-3.17,0.30,0.27,0.28
138,3.30,3.03,3.26,3.01,-3.01,-3.15,0.28,0.24,0.26
140,3.27,3.04,3.25,3.03,-3.03,-3.11,0.23,0.22,0.22
141,3.25,3.04,3.25,3.05,-3.05,-3.09,0.19,0.20,0.21
142,3.23,3.04,3.25,3.07,-3.07,-3.07,0.15,0.18,0.19
144,3.22,3.06,3.24,3.09,-3.09,-3.02,0.13,0.15,0.15
145,3.21,3.07,3.24,3.11,-3.11,-3.00,0.10,0.13,0.14
147,3.21,3.10,3.23,3.12,-3.12,-2.95,0.08,0.11,0.11
148,3.22,3.12,3.22,3.14,-3.14,-2.93,0.08,0.08,0.09
150,3.24,3.17,3.21,3.15,-3.15,-2.88,0.08,0.06,0.06
151,3.24,3.19,3.20,3.17,-3.17,-2.86,0.07,0.03,0.05
153,3.23,3.21,3.19,3.18,-3.18,-2.82,0.05,0.01,0.02
154,3.21,3.20,3.19,3.19,-3.19,-2.79,0.02,-0.00,0.01
156,3.17,3.18,3.18,3.20,-3.20,-2.75,-0.03,-0.02,-0.02
157,3.16,3.19,3.17,3.21,-3.21,-2.73,-0.05,-0.04,-0.03
159,3.12,3.17,3.15,3.21,-3.21,-2.69,-0.09,-0.06,-0.05
160,3.12,3.18,3.14,3.21,-3.21,-2.68,-0.10,-0.07,-0.07
162,3.11,3.19,3.12,3.21,-3.21,-2.64,-0.10,-0.09,-0.09
164,3.11,3.21,3.10,3.21,-3.21,-2.61,-0.10,-0.11,-0.11
165,3.10,3.21,3.07,3.20,-3.20,-2.59,-0.10,-0.13,-0.12
167,3.08,3.21,3.05,3.19,-3.19,-2.57,-0.12,-0.14,-0.14
169,3.04,3.19,3.02,3.18,-3.18,-2.54,-0.15,-0.16,-0.16
170,3.03,3.19,3.00,3.17,-3.17,-2.53,-0.15,-0.18,-0.17
172,2.98,3.16,2.97,3.16,-3.16,-2.51,-0.19,-0.19,-0.18
174,2.94,3.14,2.95,3.15,-3.15,-2.49,-0.22,-0.21,-0.20
175,2.93,3.13,2.92,3.14,-3.14,-2.48,-0.22,-0.22,-0.21
177,2.89,3.11,2.90,3.13,-3.13,-2.47,-0.25,-0.23,-0.22
179,2.85,3.08,2.88,3.12,-3.12,-2.46,-0.28,-0.25,-0.24
181,2.83,3.08,2.85,3.12,-3.12,-2.45,-0.29,-0.26,-0.25
183,2.81,3.07,2.84,3.11,-3.11,-2.44,-0.30,-0.27,-0.27
184,2.80,3.07,2.82,3.10,-3.10,-2.44,-0.30,-0.28,-0.27
186,2.81,3.09,2.80,3.09,-3.09,-2.44,-0.29,-0.29,-0.29
188,2.81,3.10,2.78,3.09,-3.09,-2.44,-0.28,-0.31,-0.30
190,2.80,3.10,2.77,3.08,-3.08,-2.44,-0.29,-0.32,-0.31
192,2.78,3.10,2.75,3.07,-3.07,-2.44,-0.30,-0.33,-0.32
194,2.76,3.09,2.73,3.07,-3.07,-2.45,-0.31,-0.34,-0.33
196,2.73,3.07,2.71,3.06,-3.06,-2.46,-0.33,-0.35,-0.34
198,2.69,3.04,2.69,3.05,-3.05,-2.46,-0.36,-0.36,-0.35
200,2.66,3.02,2.67,3.04,-3.04,-2.47,-0.38,-0.37,-0.36
202,2.63,2.99,2.65,3.03,-3.03,-2.48,-0.40,-0.38,-0.37
204,2.61,2.98,2.63,3.02,-3.02,-2.49,-0.41,-0.39,-0.38
206,2.60,2.98,2.61,3.01,-3.01,-2.51,-0.41,-0.40,-0.38
208,2.58,2.97,2.59,3.00,-3.00,-2.52,-0.42,-0.40,-0.39
210,2.58,2.98,2.58,2.99,-2.99,-2.53,-0.41,-0.41,-0.40
212,2.56,2.96,2.56,2.98,-2.98,-2.54,-0.42,-0.42,-0.41
214,2.55,2.96,2.54,2.97,-2.97,-2.56,-0.42,-0.42,-0.41
216,2.54,2.96,2.53,2.95,-2.95,-2.57,-0.41,-0.43,-0.42
218,2.53,2.95,2.50,2.93,-2.93,-2.58,-0.41,-0.43,-0.43
221,2.50,2.93,2.47,2.91,-2.91,-2.60,-0.41,-0.43,-0.44
223,2.46,2.90,2.44,2.88,-2.88,-2.61,-0.42,-0.44,-0.44
225,2.42,2.86,2.40,2.84,-2.84,-2.61,-0.43,-0.44,-0.45
227,2.37,2.82,2.35,2.81,-2.81,-2.62,-0.44,-0.45,-0.45
229,2.32,2.77,2.30,2.76,-2.76,-2.63,-0.44,-0.46,-0.46
232,2.24,2.70,2.25,2.71,-2.71,-2.63,-0.48,-0.47,-0.46
234,2.18,2.65,2.19,2.66,-2.66,-2.63,-0.48,-0.47,-0.47
236,2.14,2.61,2.13,2.60,-2.60,-2.63,-0.47,-0.48,-0.47
239,2.06,2.54,2.06,2.55,-2.55,-2.63,-0.49,-0.48,-0.48
241,2.00,2.48,2.00,2.49,-2.49,-2.62,-0.49,-0.49,-0.48
244,1.92,2.41,1.94,2.43,-2.43,-2.61,-0.52,-0.50,-0.49
246,1.87,2.36,1.88,2.38,-2.38,-2.60,-0.51,-0.50,-0.49
248,1.83,2.32,1.82,2.33,-2.33,-2.59,-0.50,-0.51,-0.50
251,1.76,2.26,1.77,2.28,-2.28,-2.57,-0.52,-0.51,-0.50
253,1.72,2.22,1.71,2.23,-2.23,-2.55,-0.51,-0.51,-0.50
256,1.66,2.17,1.67,2.18,-2.18,-2.52,-0.52,-0.51,-0.51
259,1.60,2.11,1.62,2.13,-2.13,-2.49,-0.54,-0.52,-0.51
261,1.57,2.08,1.57,2.09,-2.09,-2.46,-0.52,-0.52,-0.52
264,1.52,2.04,1.52,2.04,-2.04,-2.42,-0.53,-0.52,-0.52
266,1.48,2.00,1.47,2.00,-2.00,-2.40,-0.52,-0.53,-0.52
269,1.43,1.95,1.42,1.95,-1.95,-2.35,-0.52,-0.53,-0.53
272,1.37,1.90,1.37,1.90,-1.90,-2.30,-0.53,-0.53,-0.53
274,1.33,1.86,1.31,1.84,-1.84,-2.27,-0.52,-0.53,-0.53
277,1.27,1.80,1.25,1.78,-1.78,-2.22,-0.51,-0.53,-0.54
280,1.20,1.73,1.18,1.71,-1.71,-2.16,-0.52,-0.53,-0.54
283,1.12,1.66,1.11,1.64,-1.64,-2.11,-0.52,-0.53,-0.54
286,1.04,1.58,1.02,1.56,-1.56,-2.05,-0.53,-0.54,-0.54
288,0.98,1.52,0.94,1.48,-1.48,-2.01,-0.51,-0.55,-0.55
291,0.88,1.42,0.85,1.40,-1.40,-1.96,-0.53,-0.55,-0.55
294,0.78,1.33,0.76,1.32,-1.32,-1.90,-0.55,-0.56,-0.55
297,0.68,1.23,0.67,1.24,-1.24,-1.84,-0.56,-0.57,-0.55
300,0.58,1.13,0.59,1.16,-1.16,-1.78,-0.59,-0.57,-0.55
303,0.49,1.04,0.51,1.09,-1.09,-1.72,-0.61,-0.58,-0.56
306,0.41,0.96,0.45,1.03,-1.03,-1.67,-0.63,-0.58,-0.56
309,0.35,0.91,0.39,0.98,-0.98,-1.61,-0.63,-0.58,-0.56
312,0.30,0.86,0.35,0.93,-0.93,-1.55,-0.64,-0.59,-0.56
316,0.27,0.83,0.31,0.89,-0.89,-1.48,-0.63,-0.59,-0.56
319,0.26,0.82,0.28,0.87,-0.87,-1.42,-0.61,-0.59,-0.57
322,0.26,0.82,0.26,0.84,-0.84,-1.37,-0.58,-0.58,-0.57
325,0.26,0.83,0.24,0.82,-0.82,-1.31,-0.56,-0.58,-0.57
328,0.25,0.82,0.22,0.80,-0.80,-1.26,-0.55,-0.58,-0.57
332,0.24,0.81,0.21,0.78,-0.78,-1.19,-0.54,-0.57,-0.57
335,0.23,0.80,0.19,0.76,-0.76,-1.14,-0.53,-0.57,-0.57
338,0.21,0.78,0.16,0.73,-0.73,-1.09,-0.52,-0.57,-0.57
342,0.16,0.73,0.13,0.70,-0.70,-1.03,-0.55,-0.57,-0.58
345,0.13,0.70,0.09,0.67,-0.67,-0.98,-0.55,-0.58,-0.58
349,0.07,0.64,0.05,0.64,-0.64,-0.92,-0.57,-0.58,-0.58
352,0.02,0.60,0.01,0.60,-0.60,-0.87,-0.59,-0.59,-0.58
356,-0.04,0.54,-0.03,0.57,-0.57,-0.81,-0.61,-0.60,-0.58
359,-0.09,0.49,-0.06,0.54,-0.54,-0.77,-0.63,-0.60,-0.58
363,-0.13,0.45,-0.09,0.51,-0.51,-0.71,-0.64,-0.60,-0.58
366,-0.16,0.42,-0.12,0.48,-0.48,-0.67,-0.64,-0.60,-0.58
370,-0.17,0.41,-0.14,0.46,-0.46,-0.62,-0.63,-0.60,-0.59
374,-0.17,0.41,-0.16,0.44,-0.44,-0.56,-0.62,-0.60,-0.59
377,-0.17,0.41,-0.17,0.43,-0.43,-0.52,-0.61,-0.60,-0.59
381,-0.16,0.42,-0.17,0.43,-0.43,-0.47,-0.59,-0.60,-0.59
385,-0.15,0.43,-0.17,0.43,-0.43,-0.42,-0.58,-0.60,-0.59
389,-0.15,0.44,-0.17,0.42,-0.42,-0.38,-0.58,-0.60,-0.59
393,-0.15,0.44,-0.17,0.42,-0.42,-0.33,-0.58,-0.59,-0.59
397,-0.15,0.44,-0.17,0.42,-0.42,-0.28,-0.58,-0.59,-0.59
401,-0.16,0.43,-0.17,0.42,-0.42,-0.24,-0.58,-0.59,-0.59
405,-0.17,0.42,-0.17,0.41,-0.41,-0.19,-0.59,-0.59,-0.59
409,-0.18,0.41,-0.19,0.40,-0.40,-0.15,-0.58,-0.59,-0.59
413,-0.20,0.39,-0.20,0.39,-0.39,-0.11,-0.59,-0.59,-0.59
417,-0.22,0.37,-0.23,0.37,-0.37,-0.07,-0.59,-0.59,-0.60
421,-0.24,0.35,-0.26,0.34,-0.34,-0.03,-0.59,-0.60,-0.60
425,-0.26,0.33,-0.29,0.32,-0.32,0.01,-0.58,-0.60,-0.60
430,-0.29,0.30,-0.32,0.29,-0.29,0.06,-0.58,-0.61,-0.60
434,-0.33,0.27,-0.35,0.26,-0.26,0.09,-0.59,-0.61,-0.60
438,-0.37,0.23,-0.38,0.23,-0.23,0.13,-0.60,-0.61,-0.60
443,-0.42,0.17,-0.41,0.20,-0.20,0.17,-0.62,-0.61,-0.60
447,-0.47,0.12,-0.44,0.17,-0.17,0.20,-0.64,-0.60,-0.60
451,-0.50,0.09,-0.46,0.14,-0.14,0.24,-0.64,-0.60,-0.59
456,-0.52,0.06,-0.49,0.11,-0.11,0.27,-0.63,-0.59,-0.59
460,-0.53,0.05,-0.51,0.08,-0.08,0.30,-0.61,-0.59,-0.58
465,-0.52,0.05,-0.54,0.05,-0.05,0.34,-0.57,-0.58,-0.57
470,-0.53,0.03,-0.56,0.02,-0.02,0.37,-0.55,-0.57,-0.56
474,-0.54,0.01,-0.58,-0.01,0.01,0.40,-0.53,-0.56,-0.55
479,-0.56,-0.02,-0.60,-0.04,0.04,0.43,-0.52,-0.55,-0.54
484,-0.59,-0.06,-0.61,-0.08,0.08,0.45,-0.52,-0.54,-0.53
489,-0.63,-0.12,-0.63,-0.11,0.11,0.48,-0.53,-0.52,-0.52
494,-0.66,-0.16,-0.65,-0.14,0.14,0.51,-0.52,-0.50,-0.50
499,-0.68,-0.20,-0.67,-0.18,0.18,0.53,-0.51,-0.49,-0.49
504,-0.71,-0.24,-0.69,-0.22,0.22,0.55,-0.50,-0.47,-0.47
509,-0.72,-0.27,-0.71,-0.26,0.26,0.57,-0.47,-0.46,-0.46
514,-0.73,-0.30,-0.74,-0.30,0.30,0.59,-0.44,-0.44,-0.44
519,-0.75,-0.33,-0.77,-0.34,0.34,0.61,-0.41,-0.43,-0.42
524,-0.77,-0.37,-0.79,-0.39,0.39,0.63,-0.39,-0.41,-0.40
529,-0.80,-0.42,-0.82,-0.43,0.43,0.65,-0.37,-0.39,-0.38
535,-0.83,-0.47,-0.84,-0.48,0.48,0.66,-0.36,-0.37,-0.36
540,-0.86,-0.52,-0.87,-0.53,0.53,0.68,-0.34,-0.34,-0.34
545,-0.89,-0.57,-0.89,-0.57,0.57,0.69,-0.32,-0.32,-0.32
551,-0.92,-0.63,-0.92,-0.62,0.62,0.71,-0.30,-0.29,-0.30
556,-0.94,-0.67,-0.94,-0.67,0.67,0.72,-0.27,-0.27,-0.27
562,-0.97,-0.73,-0.96,-0.72,0.72,0.73,-0.26,-0.25,-0.24
568,-0.99,-0.78,-0.98,-0.76,0.76,0.75,-0.23,-0.22,-0.21
573,-1.00,-0.82,-1.00,-0.81,0.81,0.76,-0.19,-0.19,-0.19
579,-1.02,-0.87,-1.02,-0.85,0.85,0.77,-0.17,-0.16,-0.16
585,-1.02,-0.90,-1.03,-0.90,0.90,0.78,-0.13,-0.13,-0.13
591,-1.03,-0.94,-1.04,-0.93,0.93,0.79,-0.10,-0.10,-0.10
596,-1.04,-0.98,-1.04,-0.97,0.97,0.80,-0.07,-0.07,-0.07
602,-1.04,-1.01,-1.04,-1.01,1.01,0.82,-0.04,-0.04,-0.03
608,-1.04,-1.04,-1.05,-1.04,1.04,0.83,-0.00,-0.01,-0.00
615,-1.04,-1.07,-1.05,-1.07,1.07,0.84,0.03,0.03,0.03
621,-1.04,-1.10,-1.04,-1.10,1.10,0.86,0.06,0.06,0.06
627,-1.04,-1.14,-1.04,-1.13,1.13,0.87,0.09,0.09,0.09
633,-1.04,-1.17,-1.04,-1.16,1.16,0.88,0.12,0.12,0.12
639,-1.03,-1.19,-1.04,-1.19,1.19,0.90,0.16,0.16,0.16
646,-1.03,-1.22,-1.03,-1.23,1.23,0.91,0.19,0.19,0.19
652,-1.02,-1.25,-1.03,-1.26,1.26,0.93,0.23,0.23,0.22
659,-1.02,-1.28,-1.03,-1.29,1.29,0.94,0.27,0.26,0.26
665,-1.02,-1.32,-1.03,-1.32,1.32,0.96,0.30,0.30,0.29
672,-1.02,-1.35,-1.03,-1.36,1.36,0.98,0.33,0.33,0.33
679,-1.02,-1.39,-1.03,-1.39,1.39,1.00,0.37,0.36,0.36
686,-1.01,-1.42,-1.03,-1.43,1.43,1.02,0.41,0.40,0.40
692,-1.01,-1.45,-1.03,-1.46,1.46,1.04,0.45,0.43,0.44
699,-1.02,-1.50,-1.02,-1.49,1.49,1.06,0.47,0.47,0.48
706,-1.02,-1.54,-1.02,-1.53,1.53,1.08,0.50,0.51,0.52
713,-1.02,-1.58,-1.01,-1.56,1.56,1.11,0.53,0.55,0.56
721,-1.02,-1.62,-1.00,-1.58,1.58,1.13,0.56,0.59,0.59
728,-1.00,-1.64,-0.98,-1.61,1.61,1.16,0.61,0.63,0.63
735,-0.98,-1.66,-0.97,-1.64,1.64,1.18,0.65,0.67,0.67
742,-0.95,-1.67,-0.95,-1.66,1.66,1.21,0.71,0.71,0.71
750,-0.92,-1.68,-0.93,-1.69,1.69,1.24,0.76,0.75,0.75
757,-0.89,-1.68,-0.92,-1.71,1.71,1.27,0.82,0.79,0.79
765,-0.88,-1.71,-0.90,-1.73,1.73,1.30,0.85,0.83,0.83
773,-0.86,-1.73,-0.89,-1.76,1.76,1.33,0.89,0.87,0.87
780,-0.86,-1.77,-0.88,-1.78,1.78,1.36,0.92,0.90,0.90
788,-0.85,-1.79,-0.87,-1.80,1.80,1.39,0.95,0.94,0.94
796,-0.84,-1.82,-0.85,-1.82,1.82,1.42,0.98,0.97,0.97
804,-0.84,-1.85,-0.84,-1.84,1.84,1.45,1.00,1.00,1.01
812,-0.83,-1.87,-0.83,-1.86,1.86,1.49,1.02,1.03,1.04
820,-0.82,-1.90,-0.81,-1.87,1.87,1.52,1.05,1.06,1.07
828,-0.82,-1.93,-0.79,-1.88,1.88,1.55,1.06,1.09,1.10
837,-0.79,-1.93,-0.76,-1.89,1.89,1.59,1.10,1.13,1.14
845,-0.76,-1.93,-0.73,-1.89,1.89,1.62,1.13,1.16,1.17
853,-0.71,-1.91,-0.70,-1.89,1.89,1.65,1.18,1.19,1.20
862,-0.66,-1.89,-0.67,-1.89,1.89,1.68,1.23,1.22,1.23
871,-0.60,-1.86,-0.63,-1.88,1.88,1.71,1.28,1.25,1.26
879,-0.56,-1.85,-0.59,-1.87,1.87,1.74,1.31,1.28,1.29
888,-0.52,-1.84,-0.55,-1.86,1.86,1.76,1.34,1.31,1.32
897,-0.49,-1.84,-0.51,-1.85,1.85,1.79,1.36,1.34,1.34
906,-0.45,-1.82,-0.47,-1.84,1.84,1.81,1.38,1.37,1.37
915,-0.42,-1.82,-0.43,-1.82,1.82,1.84,1.40,1.40,1.40
924,-0.39,-1.82,-0.38,-1.80,1.80,1.86,1.41,1.42,1.42
933,-0.35,-1.80,-0.34,-1.79,1.79,1.87,1.43,1.45,1.45
943,-0.31,-1.79,-0.30,-1.77,1.77,1.89,1.45,1.47,1.48
952,-0.27,-1.78,-0.25,-1.75,1.75,1.90,1.48,1.50,1.50
962,-0.22,-1.75,-0.21,-1.73,1.73,1.91,1.51,1.52,1.53
971,-0.17,-1.73,-0.16,-1.71,1.71,1.92,1.54,1.55,1.55
981,-0.10,-1.69,-0.11,-1.69,1.69,1.92,1.59,1.58,1.58
991,-0.05,-1.66,-0.07,-1.67,1.67,1.92,1.62,1.61,1.61
1001,0.01,-1.63,-0.02,-1.65,1.65,1.92,1.66,1.63,1.63
1011,0.06,-1.61,0.03,-1.63,1.63,1.91,1.69,1.66,1.66
1021,0.10,-1.59,0.07,-1.62,1.62,1.91,1.71,1.69,1.69
1031,0.13,-1.59,0.12,-1.60,1.60,1.89,1.73,1.72,1.72
1041,0.16,-1.59,0.16,-1.59,1.59,1.88,1.74,1.75,1.74
1052,0.19,-1.59,0.20,-1.57,1.57,1.86,1.76,1.77,1.77
1062,0.23,-1.57,0.25,-1.56,1.56,1.84,1.78,1.80,1.80
1073,0.28,-1.55,0.29,-1.54,1.54,1.81,1.82,1.83,1.83
1084,0.33,-1.53,0.33,-1.52,1.52,1.79,1.85,1.85,1.86
1094,0.38,-1.51,0.38,-1.50,1.50,1.76,1.88,1.88,1.89
1105,0.43,-1.49,0.43,-1.48,1.48,1.73,1.91,1.91,1.92
1116,0.49,-1.46,0.48,-1.46,1.46,1.70,1.95,1.94,1.95
1128,0.54,-1.44,0.54,-1.43,1.43,1.66,1.97,1.97,1.98
1139,0.60,-1.42,0.60,-1.40,1.40,1.62,2.00,2.01,2.01
1150,0.66,-1.39,0.67,-1.37,1.37,1.58,2.03,2.04,2.04
1162,0.72,-1.36,0.73,-1.34,1.34,1.54,2.06,2.07,2.08
1173,0.79,-1.32,0.80,-1.31,1.31,1.50,2.10,2.11,2.11
1185,0.86,-1.28,0.86,-1.28,1.28,1.46,2.13,2.14,2.14
1197,0.94,-1.24,0.93,-1.25,1.25,1.42,2.18,2.17,2.17
1209,1.01,-1.20,0.99,-1.22,1.22,1.38,2.22,2.21,2.20
1221,1.08,-1.16,1.05,-1.19,1.19,1.33,2.27,2.24,2.24
1233,1.13,-1.14,1.11,-1.16,1.16,1.29,2.29,2.27,2.27
1246,1.19,-1.11,1.17,-1.14,1.14,1.24,2.33,2.31,2.30
1258,1.23,-1.11,1.22,-1.12,1.12,1.20,2.35,2.34,2.33
1271,1.29,-1.08,1.27,-1.10,1.10,1.16,2.39,2.37,2.37
1283,1.33,-1.08,1.32,-1.08,1.08,1.12,2.41,2.40,2.40
1296,1.37,-1.07,1.37,-1.06,1.06,1.07,2.43,2.43,2.44
1309,1.42,-1.06,1.42,-1.04,1.04,1.03,2.46,2.46,2.47
1322,1.47,-1.04,1.47,-1.02,1.02,0.99,2.48,2.49,2.51
1335,1.52,-1.03,1.53,-0.99,0.99,0.95,2.51,2.53,2.55
1349,1.59,-1.00,1.60,-0.96,0.96,0.90,2.54,2.56,2.58
1362,1.65,-0.97,1.68,-0.92,0.92,0.86,2.57,2.60,2.62
1376,1.73,-0.93,1.76,-0.88,0.88,0.82,2.60,2.64,2.66
1390,1.83,-0.87,1.85,-0.83,0.83,0.78,2.65,2.68,2.70
1404,1.93,-0.81,1.94,-0.78,0.78,0.74,2.70,2.72,2.73
1418,2.04,-0.74,2.04,-0.72,0.72,0.70,2.76,2.76,2.77
1432,2.16,-0.66,2.14,-0.67,0.67,0.66,2.82,2.81,2.81
1446,2.27,-0.58,2.24,-0.61,0.61,0.62,2.88,2.85,2.85
1461,2.37,-0.52,2.34,-0.56,0.56,0.59,2.92,2.89,2.89
1475,2.47,-0.46,2.43,-0.50,0.50,0.55,2.97,2.94,2.93
1490,2.56,-0.41,2.53,-0.45,0.45,0.51,3.01,2.98,2.97
1505,2.63,-0.38,2.61,-0.40,0.40,0.48,3.03,3.02,3.01
1520,2.70,-0.35,2.70,-0.36,0.36,0.44,3.06,3.06,3.05
1535,2.78,-0.31,2.78,-0.32,0.32,0.41,3.09,3.10,3.09
1550,2.85,-0.29,2.86,-0.28,0.28,0.37,3.12,3.13,3.13
1566,2.93,-0.25,2.93,-0.24,0.24,0.34,3.17,3.17,3.18
1582,3.00,-0.23,3.01,-0.20,0.20,0.31,3.20,3.21,3.22
1597,3.08,-0.19,3.08,-0.17,0.17,0.28,3.24,3.25,3.27
1613,3.16,-0.16,3.16,-0.13,0.13,0.24,3.29,3.29,3.31
1629,3.23,-0.13,3.24,-0.10,0.10,0.21,3.32,3.33,3.36
1646,3.32,-0.09,3.32,-0.06,0.06,0.18,3.38,3.38,3.40
1662,3.40,-0.05,3.40,-0.02,0.02,0.15,3.42,3.43,3.45
1679,3.49,-0.01,3.49,0.01,-0.01,0.13,3.47,3.47,3.50
1696,3.58,0.03,3.57,0.05,-0.05,0.10,3.52,3.52,3.54
1713,3.67,0.07,3.65,0.09,-0.09,0.07,3.58,3.56,3.59
1730,3.75,0.11,3.73,0.13,-0.13,0.05,3.62,3.60,3.64
1747,3.83,0.14,3.82,0.17,-0.17,0.02,3.66,3.65,3.69
1764,3.92,0.18,3.91,0.21,-0.21,0.00,3.71,3.70,3.74
1782,4.01,0.22,4.00,0.25,-0.25,-0.02,3.76,3.75,3.79
1800,4.10,0.26,4.09,0.29,-0.29,-0.04,3.80,3.80,3.84
1818,4.19,0.30,4.20,0.34,-0.34,-0.06,3.85,3.86,3.89
1836,4.27,0.32,4.30,0.38,-0.38,-0.08,3.88,3.92,3.95
1854,4.37,0.36,4.41,0.43,-0.43,-0.09,3.94,3.98,4.01
1873,4.50,0.43,4.53,0.48,-0.48,-0.11,4.02,4.05,4.07
1892,4.63,0.49,4.65,0.53,-0.53,-0.12,4.10,4.12,4.14
1911,4.77,0.56,4.77,0.58,-0.58,-0.13,4.19,4.19,4.21
1930,4.91,0.63,4.89,0.63,-0.63,-0.14,4.28,4.27,4.28
