frequency,raw,error,smoothed,error_smoothed,equalization,equalized_raw,equalized_smoothed,target
20,-15.347385421992884,-19.4680061726008,-15.29470624073115,-19.415345235909403,5.999999999999999,-9.347385421992886,-9.294706240731152,4.120620750607913
21,-14.658259132576578,-18.810494277285912,-14.680392606902371,-18.832617127415975,6.0,-8.658259132576578,-8.680392606902371,4.152235144709332
22,-14.066326740579616,-18.246775220603112,-14.087160345098276,-18.267586763459384,6.0,-8.066326740579616,-8.087160345098276,4.180448480023496
23,-13.453680691589456,-17.658940041910995,-13.515009455318863,-17.720254144039632,5.999999999999999,-7.453680691589457,-7.5150094553188636,4.205259350321538
24,-12.946879955897385,-17.17354605235162,-12.96393993756411,-17.19061926915669,5.999999999999998,-6.946879955897387,-6.963939937564112,4.2266660964542355
25,-12.34343168003532,-16.588098454941118,-12.43485599831131,-16.67959469904568,6.000000000000001,-6.3434316800353185,-6.434855998311309,4.244666774905798
26,-12.01313229192051,-16.27239141597077,-11.926642848273202,-16.18606125451466,6.0,-6.01313229192051,-5.926642848273202,4.259259124050261
27,-11.482870198185134,-15.753379671895676,-11.43837404317722,-15.709084140906697,6.0,-5.482870198185134,-5.43837404317722,4.270509473710542
28,-10.984903418650598,-15.263265059236545,-10.968841139076304,-15.247435440265257,6.0,-4.984903418650598,-4.968841139076304,4.278361640585948
29,-10.509959887797445,-14.792746579309156,-10.51667502500433,-14.799711045895698,6.000000000000001,-4.509959887797444,-4.5166750250043295,4.282786691511712
30,-10.058682775710349,-14.342420464371143,-10.080789054303665,-14.364772508941428,6.0,-4.0586827757103485,-4.080789054303665,4.2837376886607945
31,-9.6288005960086,-13.90994746288348,-9.660084424606886,-13.941449451446804,5.999999999999999,-3.6288005960086016,-3.660084424606887,4.281146866874879
32,-9.218954586464973,-13.493878867991437,-9.253449981300268,-13.52853951426688,5.999999999999999,-3.2189545864649736,-3.2534499813002684,4.274924281526465
33,-8.827911450618902,-13.092870071027097,-8.859717786369647,-13.124765754754684,6.0,-2.8279114506189025,-2.8597177863696466,4.264958620408194
34,-8.61379166588024,-12.864923721815279,-8.477699108107872,-12.728816412475936,5.999999999999998,-2.6137916658802425,-2.477699108107874,4.251132055935038
35,-8.11929374900082,-12.352608310258955,-8.106437840899082,-12.339604620706687,6.000000000000001,-2.1192937490008186,-2.1064378408990807,4.233314561258136
36,-7.716994898426107,-11.928370015929431,-7.745485246757415,-11.956551586933653,5.999999999999999,-1.7169948984261083,-1.7454852467574158,4.211375117503325
37,-7.380424368214368,-11.565616573151189,-7.395130927725537,-11.579828280088583,6.0,-1.380424368214368,-1.3951309277255373,4.185192204936822
38,-7.040661115055017,-11.195327566194461,-7.056456711675118,-11.21042218444088,6.000000000000003,-1.0406611150550145,-1.0564567116751151,4.154666451139444
39,-6.719320914781967,-10.839056004627732,-6.731126789105481,-10.849942185789835,6.0,-0.7193209147819672,-0.7311267891054811,4.119735089845765
40,-6.491065686399697,-10.571453448319161,-6.420946667039835,-10.500193798638758,5.999999999999999,-0.49106568639969783,-0.42094666703983563,4.0803877619194635
41,-6.108347189494796,-10.14503210153586,-6.127286749763157,-10.162619949992184,5.999999999999999,-0.10834718949479694,-0.127286749763158,4.036684912041063
42,-5.786720171978173,-9.775495599931759,-5.8505367607432905,-9.837772763397805,6.000000000000003,0.21327982802182976,0.14946323925671212,3.9887754279535863
43,-5.5643950282802805,-9.501308913659667,-5.589767488419962,-9.524991888904577,6.000000000000002,0.43560497171972123,0.41023251158003937,3.9369138853793864
44,-5.34343168003021,-9.22490778284757,-5.342724182843838,-9.222412639621785,6.0,0.6565683199697903,0.6572758171561617,3.881476102817359
45,-5.032119207382923,-8.855091047881993,-5.106184425621951,-8.927335632250223,5.999999999999999,0.967880792617076,0.8938155743780483,3.8229718404990702
46,-4.975593744800078,-8.737647179924446,-4.876596649734652,-8.636872988453927,5.999999999999999,1.0244062551999207,1.123403350265347,3.762053435124368
47,-4.687430814268038,-8.386950002995043,-4.650818059852883,-8.348688806998332,5.999999999999999,1.3125691857319612,1.3491819401471163,3.699519188727006
48,-4.451521501791087,-8.087832235094734,-4.426729145464732,-8.061610210276903,6.0,1.5484784982089126,1.5732708545352683,3.6363107333036453
49,-4.237462113773739,-7.810965654940366,-4.203536215589168,-7.775919725613402,5.999999999999999,1.7625378862262604,1.7964637844108315,3.573503541166627
50,-3.9473420783701454,-7.459632232779226,-3.981679537021556,-7.493246197408364,6.0,2.0526579216298546,2.018320462978444,3.5122901544090803
51,-3.7567938739973683,-7.210749912600831,-3.7624036395729448,-7.216110740980229,5.999999999999999,2.243206126002631,2.2375963604270543,3.453956038603463
52,-3.4928569660563187,-6.892705317534766,-3.5471648100128284,-6.947303075774412,6.0,2.5071430339436813,2.4528351899871716,3.3998483514784477
53,-3.3307445753571296,-6.682082890992436,-3.3371007250147136,-6.689313888974999,5.999999999999999,2.6692554246428695,2.6628992749852856,3.351338315635306
54,-3.156507120897274,-6.466285388881347,-3.1327472706866577,-6.44400935699816,5.971398965629745,2.814891844732471,2.838651694943087,3.309778267984073
55,-2.9296575703865937,-6.206112417249179,-2.9340754649530263,-6.212622171606137,5.910994256316175,2.9813366859295813,2.9769187913631487,3.2764548468625856
56,-2.756276853148388,-6.008816939761916,-2.740785724366935,-5.995998042051442,5.820552100473334,3.0642752473249457,3.0797663761063987,3.2525400866135277
57,-2.58596498215769,-5.825007415980643,-2.552695700310066,-5.794935855424486,5.709139021471765,3.1231740393140752,3.1564433211616993,3.239042433822953
58,-2.368327843466329,-5.605087694088658,-2.3700336382823255,-5.610435544054732,5.583272523059687,3.214944679593358,3.2132388847773616,3.2367598506223283
59,-2.1720046718539736,-5.418241887632597,-2.1935060617363766,-5.443724592084809,5.443724592084811,3.2717199202308374,3.2502185303484343,3.2462372157786232
60,-2.0421145095712734,-5.309844674423314,-2.0241175646512337,-5.296043021721362,5.2960430217213625,3.253928512150089,3.271925457070129,3.26773016485204
61,-1.8225989396966473,-5.123776262547512,-1.862831173254793,-5.168277190438166,5.1682771904381655,3.345678250741518,3.3054460171833724,3.301177322850865
62,-1.7261215734750455,-5.072304159171749,-1.7102214766615993,-5.060596178597217,5.060596178597217,3.334474605122172,3.350374701935618,3.346182585696703
63,-1.4903175673269382,-4.8923262772101035,-1.5662657135810665,-4.972237149297049,4.972237149297049,3.4819195819701108,3.4059714357159825,3.4020087098831655
64,-1.4950772900501355,-4.962660282215429,-1.4303489136348166,-4.90151651255822,4.901516512558221,3.4064392225080855,3.471167598923404,3.4675829921652936
65,-1.2969007395081944,-4.838416026246883,-1.3014634333187045,-4.846047452943688,4.846047452943688,3.549146713435494,3.544584019624984,3.541515286738689
66,-1.1737123358060373,-4.795840379934153,-1.1785058039888057,-4.803066416399249,4.803066416399249,3.6293540805932114,3.624560612410443,3.6221280441281154
67,-1.1278398672226007,-4.835337361445809,-1.0605459341461358,-4.769742738232297,4.7697427382322966,3.641902871009696,3.7091968040861607,3.707497494223208
68,-0.8866941611128377,-4.682198727247432,-0.9469748664515478,-4.7433762440764955,4.743376244076495,3.856682082963657,3.796401377624947,3.7955045661345936
69,-0.8153251986425999,-4.6992188680688844,-0.8375082665058818,-4.721458183760281,4.721458183760281,3.906132985117681,3.883949917254399,3.8838936694262842
70,-0.8341985834127591,-4.804535664390431,-0.7320956538705061,-4.701643328961531,4.701643328961532,3.8674447455487724,3.9695476750910252,3.970337080977672
71,-0.530999563201439,-4.583501973789593,-0.6308247060686402,-4.681720128544015,4.681720128544015,4.150720565342576,4.050895422475374,4.052502410588154
72,-0.5043912876672053,-4.632511759235511,-0.5338977058454691,-4.659653413656809,4.659653413656808,4.155262125989602,4.125755707811339,4.128120471568305
73,-0.5321535193165505,-4.727204387215333,-0.4417005635922516,-4.633717484788491,4.633717484788492,4.101563965471941,4.19201692119624,4.195050867898782
74,-0.3335758862608574,-4.584918613619936,-0.3549137643823215,-4.602666437032573,4.602666437032573,4.269090550771716,4.247752672650251,4.251342727359079
75,-0.3174839396370968,-4.612772192562468,-0.2745655828977479,-4.56583980101118,4.56583980101118,4.248355861374082,4.291274218113432,4.295288252925371
76,-0.19723336110017456,-4.522700479278193,-0.20193064897331198,-4.523104660994171,4.523104660994171,4.325871299893997,4.321174012020859,4.325467118178018
77,-0.033051830860032966,-4.373832006601684,-0.1382350372820612,-4.474593961207096,4.474593961207097,4.441542130347064,4.336358923925036,4.340780175741651
78,-0.1738841991536492,-4.514355654554649,-0.08421850913696691,-4.4202907031222125,4.420290703122212,4.246406503968562,4.3360721939852445,4.3404714554009995
79,0.025362427197229,-4.2987755446500655,-0.039688290492738414,-4.359592021311582,4.359592021311584,4.384954448508813,4.3199037308188455,4.3241379718472945
80,0.02836551488647129,-4.263361896171685,-0.0032397105083290466,-4.291028484678396,4.291028484678396,4.319393999564867,4.287788774170067,4.291727411058156
81,-0.032332632064090455,-4.275856921779458,0.027705779609796012,-4.2122894411897445,4.2122894411897445,4.179956809125654,4.239995220799541,4.243524289715368
82,0.20790336908677728,-3.9722222877123166,0.0564818193213046,-4.120618337866964,4.120618337866965,4.328521706953742,4.17710015718827,4.180125656799094
83,0.033059346314407635,-4.069348461180511,0.08643700645547542,-4.0135195262335035,4.0135195262335035,4.0465788725479115,4.099956532688979,4.102407807494919
84,-0.1543256850608549,-4.165811474031478,0.12005021525105865,-3.8896014643733885,3.8896014643733894,3.7352757793125346,4.009651679624448,4.011485788970623
85,0.2005302513219146,-3.7081374323766223,0.15815169488422764,-3.749308914022306,3.7493089140223064,3.949839165344221,3.907460608906534,3.908667683698537
86,0.35424745964405396,-3.4411582940161622,0.19950354408604237,-3.5952947364393015,3.5952947364393006,3.9495421960833546,3.794798280525343,3.795405753660216
87,0.2287744183478413,-3.4444721010342847,0.24091539391485325,-3.4322600586384704,3.4322600586384704,3.6610344769863117,3.673175452553324,3.673246519382126
88,0.229633298114397,-3.3141484407408073,0.2779260991539471,-3.266235164907801,3.2662351649078003,3.4958684630221972,3.5441612640617475,3.543781738855204
89,0.2308018114893441,-3.1778002443495614,0.30590921038681806,-3.103442882009026,3.103442882009026,3.3342446934983703,3.409352092395844,3.4086020558389056
90,0.30251779407202106,-2.9667370278028016,0.32131107799225217,-2.949030342298677,2.949030342298677,3.251548136370698,3.2703414202909293,3.2692548218748225
91,0.535452169756006,-2.5917551116500896,0.32265904842997845,-2.806022627705401,2.8060226277054006,3.3414747974614065,3.128681676135379,3.1272072814060956
92,0.37797438112552145,-2.605841584844114,0.31101985404077837,-2.6748094210880065,2.6748094210880065,3.052783802213528,2.985829275128785,2.9838159659696353
93,0.3365599535543226,-2.503742839127905,0.28974611412307083,-2.553324351405371,2.553324351405372,2.8898843049596943,2.8430704655284424,2.8403027926822273
94,0.20583413957242633,-2.4919038843693175,0.2635775124537867,-2.437859833949493,2.4378598339494935,2.64369397352192,2.70143734640328,2.697738023941744
95,0.01331470176967472,-2.543715234827749,0.23738081902667638,-2.324255451131292,2.3242554511312914,2.337570152900966,2.5616362701579676,2.5570299365974236
96,0.20344181070025724,-2.2154789728236812,0.21493401298061982,-2.2090842158387685,2.209084215838768,2.4125260265390254,2.4240182288193877,2.4189207835239386
97,0.2256898743610637,-2.058298543864076,0.19813351808595436,-2.0904833369877753,2.090483336987775,2.3161732113488385,2.2886168550737294,2.2839884182251398
98,0.2173339787715191,-1.935318820378625,0.18683564839146216,-1.9684266984738632,1.9684266984738636,2.1857606772453826,2.155262346865326,2.152652799150144
99,0.20597910276328474,-1.8192073931832318,0.17930132017211323,-1.8444515590476922,1.8444515590476924,2.050430661810977,2.023752879219806,2.0251864959465165
100,0.1915329976167914,-1.710195284535084,0.17299914580860323,-1.7210395789301305,1.7210395789301307,1.9125725765469221,1.894038724738734,1.9017282821518755
101,0.17409911640106132,-1.6081997954222795,0.1654256477398115,-1.6009345645475683,1.6009345645475688,1.77503368094863,1.7663602122873803,1.7822989118233408
102,0.1539855204150757,-1.512832712419214,0.15465739745510554,-1.4866297938686994,1.4866297938686994,1.6406153142837752,1.641287191323805,1.6668182328342898
104,0.13169471180969247,-1.3614635399820525,0.13951992076273256,-1.380115334609123,1.380115334609123,1.5118100464188156,1.5196352553718557,1.493158251791745
105,0.10789525714613732,-1.2770431130823854,0.11945317615077877,-1.2828210670974864,1.2828210670974864,1.3907163242436238,1.4022742432482653,1.3849383702285227
106,0.08337811429417782,-1.1967416453122248,0.09427934199788901,-1.195603745994929,1.195603745994929,1.2789818602891068,1.289883087992818,1.2801197596064027
107,0.05900209311837054,-1.119387541534299,0.06408019208051241,-1.118646797118616,1.118646797118616,1.1776488902369866,1.1827269891991286,1.1783896346526697
108,0.035633738445094404,-1.0437827148681234,0.029279520094154812,-1.051249385983831,1.0512493859838312,1.0868831244289257,1.0805289060779861,1.0794164533132178
109,0.01408712546066978,-0.9687760365545066,-0.00913147257283109,-0.9916098176398338,0.9916098176398339,1.0056969431005036,0.9824783450670028,0.9828631620151764
110,-0.004931287554232253,-0.8933301190542327,-0.049403411559262936,-0.9367801985142599,0.9367801985142599,0.9318489109600276,0.8873767869549969,0.8883988315000004
111,-0.020868325513178326,-0.8165769621153152,-0.08906108196168638,-0.882937605139846,0.8829376051398463,0.862069279626668,0.7938765231781599,0.7957086366021369
112,-0.08490014919938751,-0.7894023304037066,-0.12525085214094156,-0.8259936076091792,0.8259936076091792,0.7410934584097917,0.7007427554682376,0.7045021812043191
113,-0.3811014488972733,-0.995621650150917,-0.15534361824687587,-0.7624097621995218,0.7624097621995217,0.3813083133022484,0.6070661439526459,0.6145202012536437
114,-0.32173167311449175,-0.8472713704333719,-0.17760380529032663,-0.6899779362911114,0.6899779362911115,0.36824626317661974,0.5123741310007849,0.5255396973188802
115,0.023935853257106534,-0.41344170432735045,-0.19168931748004575,-0.6083146090261565,0.6083146090261566,0.6322504622832632,0.4166252915461109,0.43737755758445696
117,-0.18265085159105768,-0.4778308719937048,-0.1988039950542092,-0.5189119421372035,0.5189119421372035,0.33626109054614584,0.3201079470829943,0.2951800204026471
118,-0.24618654126283304,-0.45558549237226265,-0.20145203667742115,-0.42474153512938867,0.42474153512938867,0.17855499386655563,0.22328949845196752,0.20939895110942963
119,-0.24083080330044915,-0.365018805227598,-0.20287942517418384,-0.32954862432686405,0.329548624326864,0.08871782102641484,0.12666919915268016,0.12418800192714885
120,-0.23415237678035242,-0.2736774638622912,-0.206371079011696,-0.23704582072814406,0.23704582072814406,0.0028934439477916463,0.030674741716448073,0.0395250870819388
121,-0.09176405330604244,-0.04719019587208263,-0.2145823163471355,-0.15020129554211495,0.15020129554211498,0.05843724223607254,-0.06438102080502053,-0.04457385743395981
123,-0.1819470240385939,-0.006489968967719167,-0.2290371252898701,-0.07074529365297359,0.0707452936529736,-0.11120173038562028,-0.1582918316368965,-0.17545705507087472
124,-0.3117088452606063,-0.05476713765134483,-0.24986271049096387,0.0010600658921055123,-0.0010600658921055143,-0.3127689111527118,-0.25092277638306937,-0.2569417076092615
125,-0.30422422221591555,0.03339513141176814,-0.2757835099343592,0.06639107540709908,-0.06639107540709907,-0.3706152976230146,-0.3421745853414583,-0.3376193536276837
126,-0.2971586599952956,0.12021416829676806,-0.30437758914329205,0.12758656553704442,-0.12758656553704442,-0.42474522553234006,-0.43196415468033644,-0.4173728282920637
128,-0.29057013532006476,0.2463259070057317,-0.3325859973927697,0.18763705486151347,-0.18763705486151355,-0.4782071901815783,-0.5202230522542832,-0.5368960423257965
129,-0.35081763822973905,0.2622825685040148,-0.35742943839462193,0.24947429575514224,-0.2494742957551423,-0.6002919339848813,-0.6069037341497643,-0.6131002067337539
130,-0.37938084887163886,0.3086091899289147,-0.37681352986476,0.31516607100323835,-0.31516607100323835,-0.6945469198748773,-0.6919796008679984,-0.6879900388005535
131,-0.43769346105898693,0.3237436269777269,-0.3902216784384929,0.38520910452334917,-0.3852091045233492,-0.8229025655823361,-0.7754307829618421,-0.7614370880367138
133,-0.46994182331347634,0.3978324406517114,-0.39905825401695805,0.45816010705822957,-0.45816010705822974,-0.9281019303717061,-0.8572183610751878,-0.8677742639651878
134,-0.4656045483539362,0.47117297107100725,-0.4064614480446741,0.5307974059167775,-0.5307974059167775,-0.9964019542707137,-0.9372588539614516,-0.9367775194249435
135,-0.45957948243369723,0.544469496953129,-0.4165609060509543,0.5988520743903742,-0.5988520743903742,-1.0584315568240714,-1.0154129804413285,-1.0040489793868261
137,-0.2573539544598236,0.8419141209891576,-0.43336195080900713,0.6581349392497546,-0.6581349392497545,-0.9154888937095782,-1.0914968900587616,-1.0992680754489812
138,-0.43073898651695436,0.7310390454210667,-0.4596070860369238,0.7057065711617476,-0.7057065711617477,-1.136445557678702,-1.1653136571986715,-1.161778031938021
140,-0.45066412704706404,0.7982857034337015,-0.4960059343309471,0.7406870882002641,-0.740687088200264,-1.191351215247328,-1.236693022531211,-1.2489498304807656
141,-0.37206874074194635,0.9346409811040945,-0.5411012018451804,0.764422011112388,-0.7644220111123878,-1.1364907518543341,-1.3055232129575682,-1.3067097218460408
142,-0.6578381951371866,0.7047804592074922,-0.5917984468340225,0.7799638853543636,-0.7799638853543638,-1.4378020804915503,-1.3717623321883863,-1.3626186543446788
144,-0.9343101826805194,0.5050131923468784,-0.6443391358792706,0.7910870826911438,-0.7910870826911438,-1.7253972653716632,-1.4354262185704143,-1.4393233750273977
145,-0.8091266804813371,0.6815271241083054,-0.6953496235022714,0.8012103075760848,-0.8012103075760848,-1.6103369880574219,-1.4965599310783562,-1.4906538045896425
147,-0.5726949190443347,0.9875482353465146,-0.7426127707775814,0.8125934629765118,-0.8125934629765117,-1.3852883820208464,-1.555206233754093,-1.5602431543908493
148,-0.6529037996935089,0.9542735647299684,-0.7853660246416883,0.826018129886168,-0.826018129886168,-1.478921929579677,-1.6113841545278562,-1.6071773644234773
150,-0.8549075382648925,0.8151763990296343,-0.8241439546926852,0.840940782183899,-0.8409407821838991,-1.6958483204487917,-1.6650847368765844,-1.6700839372945269
151,-0.8549201714797827,0.8578316660625327,-0.8603463987945213,0.8559360459492737,-0.8559360459492739,-1.7108562174290567,-1.7162824447437952,-1.7127518375423154
153,-0.9536333886345761,0.8156788170042518,-0.8957589102584828,0.8691947387464323,-0.8691947387464322,-1.8228281273810083,-1.764953649004915,-1.769312205638828
154,-0.9655010571739978,0.8422395556824024,-0.9321864993390291,0.8789048688588182,-0.8789048688588182,-1.844405926032816,-1.8110913681978473,-1.8077406128564002
156,-1.0545786810495685,0.803578016226242,-0.9712463474201998,0.8834621392170527,-0.8834621392170527,-1.9380408202666213,-1.8547084866372525,-1.8581566972758106
157,-0.9677982117136513,0.9244548859859235,-1.014270716561657,0.881557309681044,-0.8815573096810437,-1.849355521394695,-1.8958280262427007,-1.8922530976995748
159,-0.9326650894300307,1.0039297552469457,-1.0622402359814491,0.872225239958506,-0.872225239958506,-1.8048903293885368,-1.934465475939955,-1.9365948446769763
