frequency,raw,error,smoothed,error_smoothed,equalization,parametric_eq,fixed_band_eq,equalized_raw,equalized_smoothed,target
20.00,4.45,0.30,4.45,0.31,-0.30,-1.82,-1.64,4.15,4.15,4.15
20.20,4.52,0.37,4.51,0.37,-0.36,-1.85,-1.68,4.15,4.15,4.15
20.40,4.58,0.43,4.58,0.43,-0.43,-1.88,-1.73,4.15,4.15,4.15
20.61,4.65,0.50,4.65,0.51,-0.51,-1.92,-1.78,4.14,4.14,4.15
20.81,4.74,0.59,4.73,0.58,-0.59,-1.95,-1.83,4.15,4.14,4.15
21.02,4.81,0.66,4.81,0.67,-0.68,-1.99,-1.88,4.13,4.13,4.15
21.23,4.90,0.77,4.90,0.77,-0.77,-2.03,-1.93,4.13,4.13,4.13
21.44,4.99,0.87,4.99,0.87,-0.87,-2.06,-1.99,4.12,4.11,4.11
21.66,5.08,0.98,5.08,0.98,-0.98,-2.10,-2.04,4.10,4.10,4.09
21.87,5.17,1.10,5.17,1.09,-1.09,-2.14,-2.10,4.08,4.08,4.07
22.09,5.27,1.21,5.27,1.21,-1.21,-2.18,-2.16,4.06,4.05,4.06
22.31,5.37,1.34,5.37,1.33,-1.34,-2.21,-2.22,4.03,4.03,4.03
22.54,5.48,1.46,5.48,1.46,-1.47,-2.25,-2.28,4.01,4.01,4.01
22.76,5.59,1.60,5.58,1.60,-1.60,-2.29,-2.35,3.99,3.99,3.99
22.99,5.69,1.73,5.69,1.73,-1.73,-2.33,-2.41,3.96,3.96,3.96
23.22,5.80,1.87,5.80,1.86,-1.86,-2.37,-2.48,3.94,3.94,3.93
23.45,5.91,2.00,5.91,1.99,-1.99,-2.41,-2.55,3.92,3.92,3.91
23.69,6.02,2.11,6.02,2.12,-2.11,-2.46,-2.62,3.90,3.90,3.90
23.92,6.12,2.24,6.12,2.24,-2.24,-2.50,-2.69,3.88,3.89,3.88
24.16,6.23,2.36,6.22,2.36,-2.36,-2.54,-2.77,3.87,3.87,3.87
24.40,6.32,2.47,6.32,2.47,-2.47,-2.58,-2.84,3.85,3.85,3.85
24.65,6.42,2.59,6.42,2.59,-2.59,-2.63,-2.92,3.83,3.83,3.83
24.89,6.51,2.70,6.51,2.70,-2.70,-2.67,-2.99,3.81,3.81,3.81
25.14,6.61,2.81,6.61,2.81,-2.81,-2.71,-3.07,3.80,3.80,3.80
25.39,6.70,2.92,6.70,2.92,-2.92,-2.76,-3.15,3.78,3.78,3.78
25.65,6.78,3.01,6.78,3.02,-3.02,-2.80,-3.23,3.76,3.76,3.77
25.91,6.87,3.13,6.87,3.12,-3.12,-2.85,-3.30,3.75,3.74,3.74
26.16,6.95,3.22,6.95,3.22,-3.22,-2.89,-3.38,3.73,3.73,3.73
26.43,7.03,3.31,7.03,3.32,-3.31,-2.94,-3.46,3.72,3.72,3.72
26.69,7.10,3.40,7.10,3.40,-3.40,-2.99,-3.54,3.70,3.70,3.70
26.96,7.18,3.49,7.17,3.49,-3.49,-3.03,-3.62,3.69,3.69,3.69
27.23,7.25,3.57,7.25,3.57,-3.57,-3.08,-3.70,3.67,3.67,3.67
27.50,7.31,3.64,7.31,3.65,-3.66,-3.13,-3.77,3.65,3.66,3.66
27.77,7.38,3.74,7.38,3.73,-3.73,-3.18,-3.85,3.64,3.64,3.64
28.05,7.44,3.81,7.44,3.81,-3.81,-3.23,-3.92,3.63,3.63,3.63
28.33,7.50,3.89,7.50,3.89,-3.88,-3.28,-3.99,3.62,3.62,3.61
28.62,7.56,3.96,7.55,3.95,-3.95,-3.33,-4.06,3.61,3.60,3.60
28.90,7.61,4.02,7.61,4.02,-4.02,-3.38,-4.12,3.59,3.59,3.59
29.19,7.65,4.08,7.66,4.08,-4.08,-3.43,-4.18,3.57,3.58,3.57
29.48,7.71,4.14,7.70,4.14,-4.14,-3.48,-4.24,3.57,3.56,3.57
29.78,7.75,4.19,7.75,4.19,-4.20,-3.53,-4.30,3.55,3.55,3.56
30.08,7.79,4.24,7.79,4.25,-4.25,-3.58,-4.35,3.54,3.54,3.55
30.38,7.83,4.30,7.83,4.30,-4.30,-3.64,-4.39,3.53,3.53,3.52
30.68,7.87,4.35,7.86,4.35,-4.35,-3.69,-4.43,3.52,3.51,3.51
30.99,7.90,4.41,7.90,4.40,-4.40,-3.74,-4.47,3.50,3.50,3.49
31.30,7.93,4.45,7.93,4.45,-4.45,-3.79,-4.51,3.48,3.48,3.48
31.61,7.97,4.50,7.96,4.50,-4.50,-3.85,-4.54,3.47,3.46,3.47
31.93,7.99,4.54,7.99,4.55,-4.55,-3.90,-4.56,3.44,3.45,3.45
32.24,8.02,4.60,8.02,4.59,-4.59,-3.96,-4.59,3.43,3.43,3.42
32.57,8.05,4.64,8.05,4.64,-4.64,-4.01,-4.60,3.41,3.41,3.41
32.89,8.07,4.67,8.07,4.69,-4.68,-4.06,-4.62,3.39,3.39,3.39
33.22,8.10,4.74,8.10,4.73,-4.73,-4.12,-4.63,3.37,3.37,3.36
33.55,8.12,4.77,8.12,4.77,-4.77,-4.17,-4.64,3.35,3.35,3.35
33.89,8.14,4.81,8.14,4.81,-4.81,-4.23,-4.64,3.33,3.33,3.33
34.23,8.16,4.85,8.16,4.85,-4.85,-4.28,-4.64,3.30,3.31,3.31
34.57,8.19,4.90,8.18,4.89,-4.89,-4.34,-4.64,3.30,3.29,3.29
34.92,8.20,4.93,8.20,4.93,-4.93,-4.40,-4.64,3.27,3.27,3.26
35.27,8.22,4.97,8.22,4.97,-4.97,-4.45,-4.64,3.25,3.25,3.25
35.62,8.24,5.01,8.24,5.00,-5.01,-4.51,-4.63,3.23,3.23,3.23
35.97,8.25,5.04,8.25,5.04,-5.04,-4.56,-4.63,3.21,3.21,3.21
36.33,8.27,5.07,8.27,5.07,-5.08,-4.62,-4.63,3.19,3.19,3.20
36.70,8.28,5.10,8.28,5.11,-5.11,-4.68,-4.62,3.17,3.17,3.17
37.06,8.30,5.15,8.30,5.14,-5.14,-4.73,-4.62,3.15,3.15,3.15
37.43,8.32,5.18,8.32,5.18,-5.18,-4.79,-4.61,3.14,3.14,3.14
37.81,8.33,5.21,8.33,5.22,-5.21,-4.84,-4.61,3.11,3.12,3.12
38.19,8.35,5.25,8.35,5.25,-5.25,-4.90,-4.61,3.10,3.10,3.09
38.57,8.36,5.28,8.36,5.28,-5.28,-4.96,-4.61,3.08,3.08,3.08
38.95,8.37,5.31,8.37,5.32,-5.32,-5.01,-4.62,3.05,3.06,3.06
39.34,8.39,5.35,8.39,5.35,-5.35,-5.07,-4.62,3.04,3.04,3.03
39.74,8.40,5.39,8.40,5.38,-5.38,-5.12,-4.63,3.02,3.02,3.01
40.14,8.42,5.41,8.42,5.41,-5.41,-5.18,-4.64,3.01,3.00,3.01
40.54,8.43,5.44,8.43,5.44,-5.44,-5.23,-4.66,2.99,2.99,2.99
40.94,8.45,5.48,8.44,5.47,-5.47,-5.29,-4.67,2.98,2.97,2.97
41.35,8.45,5.50,8.46,5.50,-5.50,-5.34,-4.69,2.95,2.96,2.95
41.76,8.47,5.52,8.47,5.53,-5.52,-5.39,-4.72,2.95,2.94,2.94
42.18,8.48,5.55,8.47,5.55,-5.55,-5.45,-4.74,2.93,2.93,2.93
42.60,8.48,5.57,8.48,5.57,-5.57,-5.50,-4.77,2.91,2.91,2.91
43.03,8.49,5.59,8.49,5.59,-5.60,-5.55,-4.81,2.89,2.89,2.90
43.46,8.50,5.62,8.50,5.62,-5.62,-5.60,-4.84,2.88,2.88,2.88
43.90,8.51,5.65,8.50,5.65,-5.65,-5.65,-4.88,2.86,2.86,2.85
44.33,8.51,5.67,8.51,5.67,-5.67,-5.70,-4.93,2.84,2.84,2.84
44.78,8.51,5.68,8.51,5.69,-5.69,-5.75,-4.98,2.82,2.82,2.82
45.23,8.52,5.72,8.52,5.71,-5.71,-5.80,-5.03,2.81,2.80,2.80
45.68,8.52,5.73,8.52,5.73,-5.73,-5.85,-5.09,2.79,2.79,2.78
46.13,8.52,5.75,8.52,5.75,-5.74,-5.90,-5.15,2.77,2.78,2.77
46.60,8.52,5.76,8.52,5.76,-5.76,-5.94,-5.21,2.76,2.76,2.76
47.06,8.52,5.77,8.52,5.77,-5.77,-5.99,-5.28,2.75,2.75,2.75
47.53,8.52,5.79,8.51,5.78,-5.79,-6.03,-5.35,2.73,2.73,2.73
48.01,8.51,5.78,8.51,5.79,-5.80,-6.07,-5.42,2.71,2.71,2.72
48.49,8.50,5.80,8.50,5.81,-5.81,-6.12,-5.50,2.69,2.69,2.70
48.97,8.50,5.83,8.49,5.82,-5.82,-6.16,-5.58,2.67,2.67,2.67
49.46,8.49,5.84,8.49,5.84,-5.84,-6.20,-5.66,2.65,2.65,2.64
49.96,8.48,5.86,8.48,5.86,-5.85,-6.23,-5.74,2.63,2.64,2.62
50.46,8.48,5.86,8.47,5.86,-5.86,-6.27,-5.83,2.62,2.62,2.62
50.96,8.47,5.87,8.46,5.87,-5.87,-6.31,-5.92,2.60,2.60,2.60
51.47,8.45,5.88,8.45,5.87,-5.88,-6.34,-6.01,2.57,2.57,2.57
51.99,8.44,5.88,8.44,5.88,-5.89,-6.38,-6.10,2.55,2.55,2.55
52.51,8.43,5.88,8.43,5.89,-5.89,-6.41,-6.19,2.53,2.54,2.55
53.03,8.43,5.90,8.43,5.90,-5.90,-6.44,-6.29,2.53,2.52,2.53
53.56,8.42,5.91,8.42,5.91,-5.91,-6.47,-6.38,2.51,2.51,2.51
54.10,8.42,5.93,8.41,5.93,-5.92,-6.49,-6.47,2.50,2.49,2.49
54.64,8.40,5.93,8.40,5.94,-5.93,-6.52,-6.56,2.47,2.47,2.47
55.18,8.39,5.94,8.39,5.94,-5.94,-6.54,-6.65,2.45,2.45,2.45
55.74,8.38,5.95,8.38,5.95,-5.95,-6.57,-6.73,2.43,2.42,2.43
56.29,8.37,5.95,8.37,5.96,-5.96,-6.59,-6.81,2.40,2.41,2.41
56.86,8.37,5.98,8.37,5.97,-5.97,-6.61,-6.89,2.40,2.39,2.39
57.42,8.36,5.99,8.36,5.98,-5.98,-6.62,-6.96,2.38,2.38,2.37
58.00,8.35,5.99,8.35,6.00,-5.99,-6.64,-7.02,2.36,2.36,2.36
58.58,8.34,6.00,8.34,6.00,-6.00,-6.65,-7.08,2.34,2.34,2.34
59.16,8.34,6.02,8.33,6.01,-6.01,-6.67,-7.13,2.33,2.32,2.32
59.76,8.32,6.01,8.32,6.02,-6.02,-6.68,-7.18,2.30,2.30,2.31
60.35,8.32,6.03,8.32,6.02,-6.03,-6.69,-7.21,2.29,2.28,2.28
60.96,8.31,6.03,8.31,6.04,-6.04,-6.69,-7.24,2.26,2.26,2.28
61.57,8.30,6.05,8.30,6.05,-6.06,-6.70,-7.26,2.24,2.25,2.25
62.18,8.30,6.08,8.30,6.07,-6.07,-6.70,-7.26,2.23,2.23,2.22
62.80,8.29,6.08,8.29,6.09,-6.08,-6.70,-7.26,2.21,2.20,2.20
63.43,8.28,6.10,8.28,6.10,-6.09,-6.70,-7.25,2.18,2.19,2.18
64.07,8.27,6.11,8.27,6.11,-6.10,-6.70,-7.23,2.16,2.17,2.16
64.71,8.27,6.12,8.27,6.12,-6.11,-6.70,-7.20,2.15,2.15,2.15
65.35,8.26,6.12,8.26,6.12,-6.12,-6.69,-7.16,2.14,2.13,2.14
66.01,8.25,6.12,8.25,6.13,-6.13,-6.69,-7.11,2.12,2.12,2.13
66.67,8.24,6.13,8.24,6.13,-6.13,-6.68,-7.06,2.10,2.11,2.11
67.33,8.24,6.14,8.24,6.14,-6.14,-6.67,-6.99,2.10,2.09,2.10
68.01,8.23,6.15,8.23,6.15,-6.15,-6.66,-6.92,2.08,2.08,2.08
68.69,8.22,6.15,8.22,6.15,-6.15,-6.65,-6.85,2.07,2.06,2.07
69.37,8.21,6.16,8.21,6.16,-6.16,-6.63,-6.77,2.05,2.05,2.05
70.07,8.20,6.16,8.20,6.17,-6.17,-6.62,-6.68,2.03,2.03,2.03
70.77,8.20,6.18,8.19,6.18,-6.18,-6.60,-6.59,2.02,2.02,2.02
71.48,8.19,6.19,8.19,6.18,-6.18,-6.58,-6.50,2.00,2.00,2.00
72.19,8.17,6.18,8.18,6.19,-6.19,-6.56,-6.41,1.97,1.98,1.98
72.91,8.17,6.21,8.16,6.20,-6.20,-6.54,-6.31,1.96,1.96,1.96
73.64,8.15,6.21,8.15,6.21,-6.21,-6.52,-6.21,1.93,1.94,1.94
74.38,8.14,6.22,8.14,6.23,-6.22,-6.50,-6.12,1.91,1.92,1.92
75.12,8.13,6.24,8.13,6.24,-6.23,-6.48,-6.02,1.89,1.89,1.88
75.87,8.12,6.25,8.12,6.25,-6.24,-6.45,-5.92,1.87,1.87,1.87
76.63,8.10,6.25,8.10,6.26,-6.25,-6.43,-5.82,1.85,1.85,1.85
77.40,8.08,6.26,8.08,6.26,-6.26,-6.40,-5.73,1.82,1.82,1.82
78.17,8.06,6.27,8.06,6.26,-6.26,-6.38,-5.64,1.79,1.79,1.78
78.95,8.04,6.26,8.04,6.27,-6.27,-6.35,-5.55,1.77,1.77,1.78
79.74,8.02,6.27,8.02,6.27,-6.27,-6.32,-5.46,1.74,1.74,1.75
80.54,7.99,6.27,7.99,6.28,-6.28,-6.30,-5.37,1.71,1.71,1.72
81.35,7.97,6.28,7.97,6.28,-6.28,-6.27,-5.29,1.69,1.69,1.69
82.16,7.94,6.28,7.94,6.28,-6.28,-6.24,-5.21,1.66,1.66,1.65
82.98,7.91,6.28,7.91,6.28,-6.28,-6.21,-5.13,1.63,1.63,1.63
83.81,7.88,6.29,7.87,6.28,-6.28,-6.19,-5.06,1.60,1.60,1.59
84.65,7.83,6.27,7.84,6.27,-6.27,-6.16,-4.99,1.56,1.56,1.56
85.50,7.80,6.27,7.79,6.26,-6.26,-6.13,-4.92,1.54,1.53,1.53
86.35,7.75,6.25,7.75,6.25,-6.25,-6.10,-4.86,1.50,1.50,1.50
87.22,7.70,6.23,7.70,6.24,-6.24,-6.08,-4.80,1.46,1.47,1.47
88.09,7.66,6.23,7.65,6.22,-6.22,-6.05,-4.75,1.44,1.43,1.43
88.97,7.60,6.19,7.60,6.20,-6.20,-6.02,-4.69,1.40,1.40,1.41
89.86,7.54,6.17,7.54,6.17,-6.18,-6.00,-4.64,1.36,1.37,1.37
90.76,7.48,6.16,7.48,6.15,-6.15,-5.97,-4.60,1.33,1.33,1.32
91.66,7.42,6.12,7.42,6.12,-6.12,-5.94,-4.56,1.30,1.30,1.30
92.58,7.35,6.10,7.35,6.09,-6.09,-5.92,-4.52,1.26,1.26,1.25
93.51,7.28,6.05,7.28,6.05,-6.05,-5.89,-4.48,1.23,1.23,1.23
94.44,7.21,6.01,7.21,6.01,-6.02,-5.86,-4.45,1.19,1.19,1.19
95.39,7.13,5.97,7.13,5.97,-5.97,-5.83,-4.43,1.15,1.15,1.16
96.34,7.04,5.93,7.04,5.93,-5.93,-5.80,-4.40,1.11,1.11,1.11
97.30,6.96,5.89,6.96,5.89,-5.89,-5.77,-4.38,1.07,1.07,1.07
98.28,6.87,5.84,6.87,5.84,-5.84,-5.74,-4.36,1.03,1.03,1.03
99.26,6.78,5.80,6.78,5.79,-5.79,-5.71,-4.34,0.99,0.99,0.98
100.25,6.68,5.73,6.68,5.73,-5.74,-5.67,-4.33,0.94,0.94,0.94
101.25,6.58,5.67,6.58,5.68,-5.68,-5.63,-4.32,0.90,0.90,0.90
102.27,6.48,5.62,6.48,5.62,-5.62,-5.59,-4.31,0.86,0.86,0.86
103.29,6.38,5.57,6.38,5.57,-5.56,-5.54,-4.30,0.82,0.81,0.81
104.32,6.27,5.50,6.27,5.50,-5.50,-5.49,-4.29,0.77,0.77,0.77
105.37,6.16,5.43,6.16,5.43,-5.43,-5.44,-4.29,0.72,0.72,0.73
106.42,6.04,5.36,6.04,5.36,-5.37,-5.38,-4.28,0.67,0.67,0.68
107.48,5.93,5.30,5.93,5.30,-5.30,-5.32,-4.28,0.63,0.63,0.63
108.56,5.81,5.23,5.81,5.23,-5.23,-5.25,-4.28,0.58,0.58,0.58
109.64,5.70,5.17,5.70,5.16,-5.16,-5.18,-4.27,0.54,0.53,0.53
110.74,5.58,5.09,5.58,5.09,-5.09,-5.11,-4.27,0.49,0.49,0.49
111.85,5.46,5.02,5.46,5.02,-5.02,-5.03,-4.27,0.44,0.44,0.44
112.97,5.33,4.96,5.33,4.94,-4.95,-4.95,-4.26,0.38,0.38,0.37
114.10,5.20,4.86,5.20,4.87,-4.87,-4.87,-4.26,0.33,0.33,0.33
115.24,5.08,4.79,5.08,4.79,-4.80,-4.78,-4.25,0.28,0.28,0.29
116.39,4.95,4.72,4.95,4.72,-4.72,-4.70,-4.24,0.23,0.23,0.23
117.55,4.82,4.64,4.82,4.64,-4.63,-4.61,-4.23,0.18,0.18,0.18
118.73,4.69,4.56,4.69,4.55,-4.55,-4.52,-4.22,0.14,0.14,0.13
119.92,4.56,4.46,4.56,4.47,-4.46,-4.43,-4.20,0.09,0.09,0.10
121.12,4.43,4.38,4.43,4.38,-4.38,-4.34,-4.18,0.05,0.05,0.05
122.33,4.29,4.29,4.29,4.29,-4.29,-4.25,-4.16,0.00,0.01,0.00
123.55,4.16,4.19,4.16,4.19,-4.20,-4.16,-4.14,-0.04,-0.04,-0.03
124.79,4.03,4.11,4.03,4.10,-4.11,-4.06,-4.11,-0.08,-0.08,-0.08
126.03,3.89,4.00,3.89,4.01,-4.01,-3.97,-4.08,-0.12,-0.12,-0.11
127.29,3.76,3.92,3.76,3.92,-3.92,-3.88,-4.04,-0.16,-0.16,-0.16
128.57,3.62,3.83,3.62,3.82,-3.82,-3.79,-4.01,-0.20,-0.20,-0.21
129.85,3.49,3.73,3.49,3.73,-3.72,-3.69,-3.96,-0.24,-0.24,-0.25
131.15,3.35,3.63,3.35,3.63,-3.62,-3.60,-3.92,-0.28,-0.28,-0.28
132.46,3.21,3.53,3.21,3.52,-3.52,-3.51,-3.87,-0.31,-0.31,-0.32
133.79,3.07,3.41,3.07,3.42,-3.42,-3.42,-3.83,-0.35,-0.35,-0.34
135.12,2.93,3.31,2.93,3.31,-3.31,-3.32,-3.77,-0.38,-0.38,-0.38
136.48,2.79,3.19,2.79,3.20,-3.20,-3.23,-3.72,-0.41,-0.41,-0.41
137.84,2.66,3.08,2.65,3.09,-3.09,-3.13,-3.66,-0.43,-0.44,-0.43
139.22,2.52,2.98,2.52,2.98,-2.98,-3.04,-3.60,-0.46,-0.46,-0.47
140.61,2.39,2.88,2.39,2.87,-2.87,-2.94,-3.54,-0.48,-0.48,-0.49
142.02,2.26,2.75,2.26,2.76,-2.76,-2.84,-3.48,-0.50,-0.50,-0.49
143.44,2.13,2.64,2.13,2.65,-2.65,-2.74,-3.42,-0.52,-0.52,-0.51
144.87,2.00,2.54,2.00,2.53,-2.54,-2.64,-3.36,-0.54,-0.54,-0.54
146.32,1.88,2.43,1.88,2.43,-2.43,-2.54,-3.29,-0.55,-0.55,-0.55
147.78,1.76,2.32,1.76,2.32,-2.32,-2.43,-3.23,-0.56,-0.57,-0.56
149.26,1.64,2.22,1.64,2.22,-2.22,-2.33,-3.17,-0.58,-0.58,-0.58
150.75,1.52,2.12,1.52,2.12,-2.12,-2.22,-3.10,-0.60,-0.60,-0.60
152.26,1.41,2.02,1.41,2.02,-2.02,-2.12,-3.04,-0.61,-0.61,-0.62
153.78,1.30,1.93,1.30,1.93,-1.93,-2.01,-2.97,-0.63,-0.63,-0.63
155.32,1.19,1.83,1.19,1.83,-1.84,-1.91,-2.91,-0.65,-0.65,-0.64
156.88,1.09,1.74,1.09,1.75,-1.75,-1.80,-2.85,-0.66,-0.66,-0.66
158.44,0.99,1.67,0.99,1.67,-1.67,-1.71,-2.79,-0.68,-0.68,-0.68
160.03,0.90,1.60,0.89,1.59,-1.59,-1.61,-2.73,-0.69,-0.70,-0.70
161.63,0.80,1.52,0.80,1.52,-1.52,-1.53,-2.68,-0.72,-0.71,-0.72
163.24,0.72,1.45,0.72,1.45,-1.45,-1.44,-2.62,-0.73,-0.73,-0.73
164.88,0.64,1.38,0.64,1.38,-1.39,-1.37,-2.56,-0.75,-0.75,-0.74
166.53,0.57,1.33,0.57,1.33,-1.33,-1.31,-2.51,-0.76,-0.76,-0.76
168.19,0.50,1.29,0.50,1.28,-1.28,-1.26,-2.46,-0.78,-0.78,-0.79
169.87,0.43,1.23,0.43,1.23,-1.23,-1.21,-2.41,-0.80,-0.80,-0.81
171.57,0.37,1.19,0.37,1.19,-1.19,-1.19,-2.36,-0.82,-0.82,-0.82
173.29,0.31,1.15,0.31,1.15,-1.16,-1.16,-2.31,-0.85,-0.85,-0.84
175.02,0.26,1.13,0.26,1.13,-1.13,-1.15,-2.27,-0.87,-0.87,-0.87
176.77,0.21,1.11,0.21,1.11,-1.11,-1.15,-2.22,-0.90,-0.90,-0.90
178.54,0.17,1.10,0.17,1.10,-1.09,-1.15,-2.18,-0.93,-0.93,-0.93
180.32,0.13,1.08,0.13,1.08,-1.08,-1.15,-2.14,-0.96,-0.96,-0.95
182.13,0.10,1.08,0.10,1.08,-1.08,-1.17,-2.10,-0.98,-0.98,-0.98
183.95,0.06,1.07,0.07,1.08,-1.08,-1.18,-2.07,-1.02,-1.01,-1.01
185.79,0.05,1.09,0.04,1.08,-1.08,-1.19,-2.03,-1.03,-1.04,-1.04
187.65,0.02,1.09,0.02,1.09,-1.08,-1.20,-2.00,-1.06,-1.06,-1.07
189.52,-0.00,1.09,0.00,1.09,-1.09,-1.21,-1.96,-1.09,-1.09,-1.09
191.42,-0.01,1.10,-0.01,1.10,-1.10,-1.23,-1.93,-1.11,-1.11,-1.12
193.33,-0.02,1.11,-0.02,1.11,-1.11,-1.24,-1.90,-1.13,-1.14,-1.13
195.27,-0.03,1.12,-0.03,1.12,-1.12,-1.24,-1.88,-1.16,-1.16,-1.15
197.22,-0.04,1.13,-0.04,1.14,-1.14,-1.25,-1.85,-1.18,-1.18,-1.17
199.19,-0.04,1.17,-0.04,1.16,-1.15,-1.25,-1.82,-1.20,-1.20,-1.21
201.18,-0.04,1.18,-0.04,1.18,-1.17,-1.25,-1.80,-1.21,-1.22,-1.22
203.19,-0.04,1.19,-0.04,1.19,-1.19,-1.25,-1.77,-1.23,-1.23,-1.23
205.23,-0.04,1.21,-0.04,1.21,-1.21,-1.25,-1.75,-1.26,-1.25,-1.25
207.28,-0.03,1.22,-0.03,1.23,-1.24,-1.25,-1.73,-1.27,-1.27,-1.25
209.35,-0.02,1.26,-0.02,1.26,-1.26,-1.24,-1.71,-1.28,-1.28,-1.28
211.44,-0.01,1.29,-0.01,1.28,-1.28,-1.24,-1.69,-1.29,-1.29,-1.30
213.56,-0.00,1.31,-0.00,1.30,-1.30,-1.23,-1.67,-1.30,-1.30,-1.31
215.69,0.01,1.32,0.01,1.32,-1.32,-1.22,-1.65,-1.32,-1.32,-1.31
217.85,0.02,1.33,0.02,1.34,-1.35,-1.21,-1.63,-1.33,-1.32,-1.31
220.03,0.04,1.37,0.04,1.37,-1.37,-1.20,-1.61,-1.33,-1.33,-1.33
222.23,0.06,1.40,0.05,1.39,-1.38,-1.18,-1.59,-1.32,-1.33,-1.34
224.45,0.07,1.40,0.07,1.41,-1.40,-1.17,-1.58,-1.33,-1.33,-1.33
226.70,0.08,1.41,0.08,1.41,-1.41,-1.15,-1.56,-1.33,-1.33,-1.33
228.96,0.10,1.43,0.09,1.42,-1.42,-1.14,-1.54,-1.32,-1.33,-1.33
231.25,0.10,1.42,0.10,1.42,-1.43,-1.12,-1.52,-1.33,-1.32,-1.32
233.57,0.12,1.42,0.12,1.43,-1.43,-1.11,-1.50,-1.31,-1.31,-1.30
235.90,0.13,1.43,0.13,1.43,-1.43,-1.09,-1.48,-1.30,-1.30,-1.30
238.26,0.15,1.44,0.15,1.44,-1.43,-1.07,-1.46,-1.28,-1.29,-1.29
240.64,0.16,1.43,0.16,1.44,-1.43,-1.05,-1.44,-1.28,-1.27,-1.27
243.05,0.19,1.44,0.18,1.43,-1.43,-1.04,-1.41,-1.25,-1.26,-1.26
245.48,0.19,1.42,0.19,1.43,-1.43,-1.02,-1.39,-1.24,-1.24,-1.23
247.93,0.21,1.42,0.21,1.43,-1.43,-1.00,-1.37,-1.22,-1.22,-1.22
250.41,0.24,1.44,0.23,1.43,-1.43,-0.98,-1.34,-1.19,-1.20,-1.20
252.92,0.26,1.42,0.25,1.42,-1.42,-0.96,-1.32,-1.17,-1.17,-1.17
255.45,0.27,1.41,0.27,1.42,-1.42,-0.94,-1.29,-1.15,-1.14,-1.14
258.00,0.29,1.40,0.29,1.41,-1.41,-0.92,-1.26,-1.12,-1.12,-1.11
260.58,0.31,1.41,0.30,1.40,-1.40,-0.90,-1.23,-1.09,-1.09,-1.10
263.19,0.31,1.38,0.31,1.39,-1.38,-0.88,-1.20,-1.07,-1.07,-1.07
265.82,0.32,1.36,0.32,1.36,-1.36,-0.87,-1.17,-1.04,-1.04,-1.05
268.48,0.32,1.34,0.32,1.34,-1.33,-0.85,-1.14,-1.01,-1.01,-1.02
271.16,0.32,1.30,0.32,1.30,-1.30,-0.83,-1.10,-0.99,-0.99,-0.98
273.87,0.31,1.27,0.31,1.27,-1.27,-0.81,-1.07,-0.96,-0.96,-0.97
276.61,0.30,1.23,0.30,1.23,-1.24,-0.79,-1.04,-0.94,-0.94,-0.93
279.38,0.29,1.20,0.29,1.20,-1.20,-0.77,-1.00,-0.91,-0.91,-0.91
282.17,0.28,1.16,0.28,1.16,-1.16,-0.75,-0.96,-0.89,-0.89,-0.89
284.99,0.27,1.13,0.27,1.13,-1.13,-0.73,-0.93,-0.86,-0.86,-0.86
287.84,0.26,1.09,0.26,1.09,-1.09,-0.71,-0.89,-0.83,-0.83,-0.83
290.72,0.26,1.05,0.25,1.05,-1.06,-0.69,-0.85,-0.80,-0.80,-0.79
293.63,0.25,1.03,0.25,1.02,-1.02,-0.67,-0.81,-0.78,-0.77,-0.78
296.57,0.25,0.99,0.25,0.99,-0.99,-0.65,-0.78,-0.74,-0.74,-0.74
299.53,0.25,0.96,0.25,0.96,-0.95,-0.63,-0.74,-0.71,-0.71,-0.71
302.53,0.25,0.93,0.25,0.92,-0.92,-0.61,-0.70,-0.67,-0.67,-0.68
305.55,0.24,0.87,0.24,0.89,-0.89,-0.59,-0.66,-0.65,-0.64,-0.64
308.61,0.25,0.86,0.24,0.85,-0.85,-0.57,-0.62,-0.60,-0.61,-0.61
311.69,0.24,0.81,0.24,0.81,-0.82,-0.55,-0.58,-0.58,-0.57,-0.57
314.81,0.25,0.78,0.24,0.78,-0.78,-0.53,-0.54,-0.53,-0.54,-0.53
317.96,0.24,0.74,0.24,0.75,-0.74,-0.51,-0.50,-0.51,-0.50,-0.50
321.14,0.24,0.71,0.24,0.71,-0.71,-0.49,-0.46,-0.47,-0.47,-0.48
324.35,0.24,0.69,0.23,0.68,-0.68,-0.47,-0.42,-0.44,-0.44,-0.45
327.59,0.23,0.64,0.23,0.64,-0.65,-0.45,-0.39,-0.42,-0.42,-0.41
330.87,0.23,0.61,0.23,0.62,-0.62,-0.43,-0.35,-0.39,-0.39,-0.38
334.18,0.23,0.59,0.23,0.59,-0.60,-0.41,-0.31,-0.37,-0.36,-0.36
337.52,0.24,0.57,0.23,0.57,-0.57,-0.38,-0.27,-0.33,-0.34,-0.33
340.90,0.23,0.53,0.23,0.54,-0.55,-0.36,-0.23,-0.32,-0.32,-0.31
344.30,0.23,0.52,0.23,0.52,-0.52,-0.34,-0.19,-0.29,-0.29,-0.29
347.75,0.23,0.49,0.24,0.50,-0.49,-0.32,-0.15,-0.26,-0.25,-0.26
351.23,0.24,0.48,0.23,0.47,-0.45,-0.30,-0.11,-0.21,-0.22,-0.24
354.74,0.22,0.44,0.21,0.43,-0.40,-0.28,-0.07,-0.18,-0.20,-0.22
358.28,0.16,0.36,0.16,0.36,-0.35,-0.26,-0.03,-0.19,-0.18,-0.20
361.87,0.10,0.28,0.10,0.28,-0.28,-0.24,0.01,-0.19,-0.18,-0.18
365.49,0.05,0.20,0.04,0.20,-0.22,-0.22,0.05,-0.17,-0.17,-0.15
369.14,-0.01,0.13,-0.01,0.13,-0.15,-0.19,0.08,-0.16,-0.15,-0.14
372.83,-0.06,0.06,-0.06,0.07,-0.07,-0.17,0.12,-0.13,-0.13,-0.13
376.56,-0.10,0.01,-0.11,-0.00,0.00,-0.15,0.16,-0.10,-0.11,-0.11
380.33,-0.15,-0.07,-0.15,-0.07,0.07,-0.13,0.20,-0.08,-0.08,-0.08
384.13,-0.19,-0.13,-0.19,-0.13,0.13,-0.10,0.24,-0.06,-0.06,-0.06
387.97,-0.23,-0.19,-0.23,-0.19,0.19,-0.08,0.28,-0.04,-0.04,-0.04
391.85,-0.26,-0.24,-0.26,-0.24,0.24,-0.06,0.32,-0.02,-0.02,-0.02
395.77,-0.29,-0.30,-0.29,-0.30,0.30,-0.03,0.36,0.01,0.01,0.01
399.73,-0.31,-0.34,-0.32,-0.34,0.35,-0.01,0.39,0.03,0.03,0.03
403.72,-0.34,-0.39,-0.34,-0.39,0.39,0.02,0.43,0.05,0.05,0.05
407.76,-0.36,-0.43,-0.36,-0.43,0.43,0.04,0.47,0.07,0.07,0.07
411.84,-0.38,-0.48,-0.38,-0.47,0.46,0.07,0.51,0.08,0.09,0.10
415.96,-0.38,-0.50,-0.39,-0.50,0.50,0.09,0.55,0.12,0.11,0.12
420.12,-0.39,-0.53,-0.39,-0.53,0.53,0.12,0.58,0.14,0.14,0.13
424.32,-0.39,-0.56,-0.39,-0.55,0.56,0.15,0.62,0.17,0.17,0.16
428.56,-0.39,-0.58,-0.39,-0.58,0.58,0.18,0.66,0.19,0.19,0.18
432.85,-0.39,-0.59,-0.39,-0.60,0.60,0.20,0.69,0.21,0.21,0.20
437.18,-0.39,-0.62,-0.39,-0.62,0.62,0.23,0.73,0.23,0.23,0.23
441.55,-0.38,-0.64,-0.39,-0.64,0.64,0.26,0.76,0.25,0.25,0.26
445.96,-0.38,-0.66,-0.37,-0.66,0.65,0.29,0.80,0.27,0.27,0.28
450.42,-0.35,-0.65,-0.35,-0.66,0.66,0.33,0.83,0.31,0.30,0.30
454.93,-0.33,-0.67,-0.33,-0.66,0.67,0.36,0.86,0.33,0.34,0.34
459.48,-0.30,-0.66,-0.30,-0.67,0.67,0.39,0.89,0.37,0.37,0.36
464.07,-0.28,-0.67,-0.28,-0.68,0.68,0.43,0.92,0.40,0.40,0.39
468.71,-0.26,-0.69,-0.26,-0.68,0.69,0.46,0.95,0.42,0.43,0.43
473.40,-0.24,-0.69,-0.24,-0.69,0.69,0.50,0.98,0.45,0.45,0.45
478.13,-0.22,-0.70,-0.22,-0.70,0.70,0.53,1.00,0.48,0.48,0.48
482.91,-0.21,-0.72,-0.21,-0.72,0.72,0.57,1.03,0.51,0.51,0.51
487.74,-0.19,-0.73,-0.19,-0.73,0.73,0.61,1.05,0.54,0.54,0.54
492.62,-0.18,-0.75,-0.18,-0.75,0.75,0.65,1.07,0.57,0.57,0.57
497.55,-0.17,-0.76,-0.17,-0.77,0.77,0.69,1.09,0.60,0.59,0.59
502.52,-0.17,-0.80,-0.17,-0.79,0.79,0.74,1.11,0.62,0.62,0.63
507.55,-0.16,-0.81,-0.16,-0.81,0.81,0.78,1.13,0.65,0.65,0.65
512.62,-0.16,-0.84,-0.16,-0.84,0.84,0.83,1.15,0.67,0.68,0.68
