frequency,raw
20.00,2.83
20.20,2.84
20.40,2.87
20.61,2.92
20.81,2.95
21.02,3.01
21.23,3.06
21.44,3.09
21.66,3.11
21.87,3.15
22.09,3.19
22.31,3.21
22.54,3.25
22.76,3.28
22.99,3.31
23.22,3.35
23.45,3.37
23.69,3.40
23.92,3.44
24.16,3.47
24.40,3.49
24.65,3.53
24.89,3.54
25.14,3.58
25.39,3.60
25.65,3.63
25.91,3.66
26.16,3.67
26.43,3.67
26.69,3.67
26.96,3.67
27.23,3.70
27.50,3.72
27.77,3.72
28.05,3.75
28.33,3.77
28.62,3.77
28.90,3.81
29.19,3.81
29.48,3.81
29.78,3.81
30.08,3.86
30.38,3.86
30.68,3.91
30.99,3.93
31.30,3.95
31.61,4.00
31.93,4.03
32.24,4.07
32.57,4.09
32.89,4.13
33.22,4.14
33.55,4.19
33.89,4.19
34.23,4.19
34.57,4.19
34.92,4.22
35.27,4.23
35.62,4.23
35.97,4.21
36.33,4.19
36.70,4.19
37.06,4.19
37.43,4.19
37.81,4.19
38.19,4.19
38.57,4.19
38.95,4.20
39.34,4.23
39.74,4.23
40.14,4.23
40.54,4.23
40.94,4.28
41.35,4.28
41.76,4.28
42.18,4.28
42.60,4.28
43.03,4.28
43.46,4.28
43.90,4.28
44.33,4.28
44.78,4.28
45.23,4.28
45.68,4.28
46.13,4.28
46.60,4.28
47.06,4.28
47.53,4.28
48.01,4.28
48.49,4.28
48.97,4.28
49.46,4.28
49.96,4.28
50.46,4.28
50.96,4.28
51.47,4.28
51.99,4.28
52.51,4.23
53.03,4.23
53.56,4.23
54.10,4.19
54.64,4.19
55.18,4.19
55.74,4.19
56.29,4.19
56.86,4.19
57.42,4.19
58.00,4.19
58.58,4.19
59.16,4.19
59.76,4.19
60.35,4.19
60.96,4.19
61.57,4.19
62.18,4.19
62.80,4.22
63.43,4.23
64.07,4.23
64.71,4.23
65.35,4.22
66.01,4.19
66.67,4.19
67.33,4.19
68.01,4.19
68.69,4.19
69.37,4.19
70.07,4.23
70.77,4.23
71.48,4.23
72.19,4.28
72.91,4.28
73.64,4.28
74.38,4.28
75.12,4.28
75.87,4.28
76.63,4.28
77.40,4.28
78.17,4.28
78.95,4.28
79.74,4.28
80.54,4.33
81.35,4.33
82.16,4.34
82.98,4.37
83.81,4.37
84.65,4.37
85.50,4.37
86.35,4.37
87.22,4.42
88.09,4.42
88.97,4.42
89.86,4.44
90.76,4.47
91.66,4.47
92.58,4.51
93.51,4.51
94.44,4.51
95.39,4.51
96.34,4.51
97.30,4.51
98.28,4.51
99.26,4.51
100.25,4.54
101.25,4.56
102.27,4.56
103.29,4.56
104.32,4.55
105.37,4.52
106.42,4.51
107.48,4.51
108.56,4.51
109.64,4.51
110.74,4.47
111.85,4.47
112.97,4.47
114.10,4.47
115.24,4.47
116.39,4.42
117.55,4.42
118.73,4.42
119.92,4.42
121.12,4.39
122.33,4.37
123.55,4.37
124.79,4.37
126.03,4.34
127.29,4.33
128.57,4.33
129.85,4.29
131.15,4.28
132.46,4.28
133.79,4.28
135.12,4.28
136.48,4.28
137.84,4.28
139.22,4.28
140.61,4.28
142.02,4.28
143.44,4.28
144.87,4.23
146.32,4.19
147.78,4.16
149.26,4.14
150.75,4.12
152.26,4.12
153.78,4.12
155.32,4.10
156.88,4.09
158.44,4.09
160.03,4.06
161.63,4.05
163.24,4.04
164.88,4.00
166.53,3.95
168.19,3.94
169.87,3.91
171.57,3.88
173.29,3.86
175.02,3.82
176.77,3.81
178.54,3.77
180.32,3.73
182.13,3.69
183.95,3.66
185.79,3.63
187.65,3.58
189.52,3.55
191.42,3.52
193.33,3.46
195.27,3.42
197.22,3.38
199.19,3.32
201.18,3.28
203.19,3.23
205.23,3.16
207.28,3.09
209.35,3.02
211.44,2.92
213.56,2.83
215.69,2.73
217.85,2.66
220.03,2.59
222.23,2.54
224.45,2.48
226.70,2.39
228.96,2.32
231.25,2.22
233.57,2.12
235.90,2.07
238.26,1.99
240.64,1.91
243.05,1.83
245.48,1.73
247.93,1.62
250.41,1.53
252.92,1.46
255.45,1.41
258.00,1.37
260.58,1.29
263.19,1.22
265.82,1.11
268.48,1.06
271.16,0.99
273.87,0.95
276.61,0.90
279.38,0.86
282.17,0.81
284.99,0.78
287.84,0.72
290.72,0.69
293.63,0.64
296.57,0.61
299.53,0.55
302.53,0.52
305.55,0.47
308.61,0.43
311.69,0.37
314.81,0.31
317.96,0.25
321.14,0.19
324.35,0.12
327.59,0.06
330.87,-0.02
334.18,-0.06
337.52,-0.10
340.90,-0.13
344.30,-0.15
347.75,-0.15
351.23,-0.17
354.74,-0.20
358.28,-0.20
361.87,-0.20
365.49,-0.20
369.14,-0.17
372.83,-0.17
376.56,-0.15
380.33,-0.15
384.13,-0.15
387.97,-0.10
391.85,-0.10
395.77,-0.09
399.73,-0.06
403.72,-0.06
407.76,-0.04
411.84,-0.01
415.96,-0.01
420.12,-0.01
424.32,-0.01
428.56,-0.01
432.85,-0.01
437.18,-0.01
441.55,-0.01
445.96,-0.06
450.42,-0.06
454.93,-0.10
459.48,-0.10
464.07,-0.14
468.71,-0.15
473.40,-0.17
478.13,-0.20
482.91,-0.20
487.74,-0.24
492.62,-0.24
497.55,-0.24
502.52,-0.26
507.55,-0.29
512.62,-0.29
517.75,-0.34
522.93,-0.34
528.16,-0.36
533.44,-0.41
538.77,-0.45
544.16,-0.50
549.60,-0.53
555.10,-0.59
560.65,-0.62
566.25,-0.67
571.92,-0.73
577.64,-0.78
583.41,-0.84
589.25,-0.91
595.14,-0.97
601.09,-1.01
607.10,-1.06
613.17,-1.11
619.30,-1.15
625.50,-1.19
631.75,-1.22
638.07,-1.27
644.45,-1.31
650.89,-1.34
657.40,-1.36
663.98,-1.41
670.62,-1.41
677.32,-1.46
684.10,-1.46
690.94,-1.50
697.85,-1.50
704.83,-1.50
711.87,-1.55
718.99,-1.52
726.18,-1.50
733.44,-1.50
740.78,-1.50
748.19,-1.50
755.67,-1.50
763.23,-1.46
770.86,-1.46
778.57,-1.41
786.35,-1.40
794.22,-1.36
802.16,-1.34
810.18,-1.29
818.28,-1.25
826.46,-1.19
834.73,-1.14
843.08,-1.07
851.51,-1.01
860.02,-0.97
868.62,-0.92
877.31,-0.85
886.08,-0.78
894.94,-0.71
903.89,-0.64
912.93,-0.58
922.06,-0.51
931.28,-0.45
940.59,-0.38
950.00,-0.32
959.50,-0.26
969.09,-0.20
978.78,-0.13
988.57,-0.07
998.46,-0.01
1008.44,0.05
1018.53,0.11
1028.71,0.15
1039.00,0.20
1049.39,0.25
1059.88,0.31
1070.48,0.36
1081.19,0.39
1092.00,0.45
1102.92,0.48
1113.95,0.51
1125.09,0.54
1136.34,0.57
1147.70,0.60
1159.18,0.62
1170.77,0.64
1182.48,0.65
1194.30,0.69
1206.25,0.69
1218.31,0.69
1230.49,0.74
1242.80,0.74
1255.22,0.74
1267.78,0.74
1280.45,0.74
1293.26,0.74
1306.19,0.74
1319.25,0.78
1332.45,0.78
1345.77,0.83
1359.23,0.92
1372.82,1.00
1386.55,1.12
1400.41,1.18
1414.42,1.24
1428.56,1.30
1442.85,1.34
1457.28,1.39
1471.85,1.34
1486.57,1.34
1501.43,1.30
1516.45,1.28
1531.61,1.23
1546.93,1.17
1562.40,1.09
1578.02,1.04
1593.80,1.02
1609.74,1.02
1625.84,0.97
1642.10,0.97
1658.52,0.97
1675.10,1.02
1691.85,1.02
1708.77,1.03
1725.86,1.06
1743.12,1.06
1760.55,1.11
1778.15,1.11
1795.94,1.16
1813.90,1.16
1832.03,1.16
1850.36,1.16
1868.86,1.16
1887.55,1.20
1906.42,1.20
1925.49,1.20
1944.74,1.20
1964.19,1.25
1983.83,1.25
2003.67,1.25
2023.71,1.30
2043.94,1.30
2064.38,1.34
2085.03,1.37
2105.88,1.40
2126.94,1.44
2148.20,1.48
2169.69,1.52
2191.38,1.55
2213.30,1.58
2235.43,1.61
2257.78,1.65
2280.36,1.68
2303.17,1.71
2326.20,1.74
2349.46,1.79
2372.95,1.85
2396.68,1.90
2420.65,1.94
2444.86,2.00
2469.31,2.07
2494.00,2.11
2518.94,2.19
2544.13,2.25
2569.57,2.30
2595.27,2.36
2621.22,2.42
2647.43,2.55
2673.90,2.65
2700.64,2.77
2727.65,2.89
2754.93,3.03
2782.48,3.14
2810.30,3.25
2838.40,3.38
2866.79,3.49
2895.46,3.62
2924.41,3.73
2953.65,3.86
2983.19,4.00
3013.02,4.11
3043.15,4.24
3073.58,4.37
3104.32,4.48
3135.36,4.61
3166.72,4.75
3198.38,4.88
3230.37,5.01
3262.67,5.12
3295.30,5.23
3328.25,5.33
3361.53,5.44
3395.15,5.55
3429.10,5.64
3463.39,5.74
3498.03,5.79
3533.01,5.82
3568.34,5.87
3604.02,5.91
3640.06,5.91
3676.46,5.89
3713.22,5.84
3750.36,5.79
3787.86,5.69
3825.74,5.58
3864.00,5.41
3902.64,5.24
3941.66,5.02
3981.08,4.75
4020.89,4.46
4061.10,4.17
4101.71,3.85
4142.73,3.60
4184.15,3.34
4226.00,3.12
4268.26,2.93
4310.94,2.75
4354.05,2.64
4397.59,2.51
4441.56,2.42
4485.98,2.32
4530.84,2.23
4576.15,2.10
4621.91,1.94
4668.13,1.75
4714.81,1.58
4761.96,1.33
4809.58,1.12
4857.67,0.94
4906.25,0.68
4955.31,0.47
5004.87,0.18
5054.91,-0.08
5105.46,-0.37
5156.52,-0.65
5208.08,-0.79
5260.16,-0.91
5312.77,-0.87
5365.89,-0.83
5419.55,-0.77
5473.75,-0.65
5528.49,-0.49
5583.77,-0.24
5639.61,0.16
5696.00,0.46
5752.96,0.85
5810.49,1.37
5868.60,1.70
5927.28,2.12
5986.56,2.56
6046.42,2.94
6106.89,3.24
6167.96,3.48
6229.64,3.63
6291.93,3.67
6354.85,3.65
6418.40,3.56
6482.58,3.38
6547.41,3.15
6612.88,2.82
6679.01,2.45
6745.80,2.10
6813.26,1.66
6881.39,1.21
6950.21,0.84
7019.71,0.37
7089.91,-0.10
7160.81,-0.44
7232.41,-0.82
7304.74,-1.14
7377.79,-1.45
7451.56,-1.74
7526.08,-2.01
7601.34,-2.31
7677.35,-2.58
7754.13,-2.85
7831.67,-3.22
7909.98,-3.60
7989.08,-3.98
8068.98,-4.63
8149.67,-5.42
8231.16,-6.05
8313.47,-6.94
8396.61,-7.82
8480.57,-8.88
8565.38,-9.89
8651.03,-10.77
8737.54,-11.59
8824.92,-12.06
8913.17,-12.24
9002.30,-12.26
9092.32,-12.07
9183.25,-11.84
9275.08,-11.54
9367.83,-11.32
9461.51,-11.17
9556.12,-11.12
9651.68,-11.09
9748.20,-11.06
9845.68,-11.09
9944.14,-11.13
10043.58,-11.13
10144.02,-11.06
10245.46,-10.95
10347.91,-10.74
10451.39,-10.54
10555.91,-10.27
10661.46,-9.97
10768.08,-9.69
10875.76,-9.38
10984.52,-9.10
11094.36,-8.80
11205.31,-8.54
11317.36,-8.33
11430.53,-8.19
11544.84,-8.06
11660.29,-8.01
11776.89,-7.99
11894.66,-8.01
12013.60,-8.10
12133.74,-8.25
12255.08,-8.48
12377.63,-8.78
12501.41,-9.19
12626.42,-9.70
12752.68,-10.29
12880.21,-10.92
13009.01,-11.52
13139.10,-12.13
13270.49,-12.74
13403.20,-13.41
13537.23,-13.98
13672.60,-14.48
13809.33,-14.99
13947.42,-15.22
14086.90,-15.41
14227.77,-15.47
14370.04,-15.36
14513.74,-15.25
14658.88,-15.15
14805.47,-15.32
14953.52,-15.65
15103.06,-16.10
15254.09,-16.60
15406.63,-17.04
15560.70,-17.44
15716.30,-17.45
15873.47,-16.65
16032.20,-16.23
16192.52,-15.55
16354.45,-14.67
16517.99,-14.27
16683.17,-13.83
16850.01,-13.29
17018.51,-12.79
17188.69,-12.31
17360.58,-11.89
17534.18,-11.56
17709.53,-11.34
17886.62,-11.19
18065.49,-11.22
18246.14,-11.49
18428.60,-11.80
18612.89,-12.42
18799.02,-13.25
18987.01,-13.79
19176.88,-14.74
19368.65,-16.15
19562.33,-16.97
19757.96,-18.12
19955.54,-19.02
