frequency,raw,error,smoothed,error_smoothed,equalization,parametric_eq,equalized_raw,equalized_smoothed,target
20,2.37,-0.29,2.49,-0.18,0.18,-1.30,2.55,2.66,2.66
21,2.97,0.31,2.86,0.20,-0.20,-1.48,2.77,2.66,2.66
22,3.19,0.53,3.22,0.56,-0.56,-1.67,2.63,2.66,2.66
23,3.58,0.92,3.57,0.91,-0.91,-1.89,2.67,2.66,2.66
24,3.93,1.28,3.90,1.24,-1.24,-2.11,2.69,2.66,2.66
25,4.35,1.70,4.21,1.56,-1.56,-2.34,2.79,2.65,2.65
26,4.51,1.86,4.52,1.87,-1.87,-2.58,2.65,2.65,2.65
27,4.78,2.14,4.80,2.16,-2.16,-2.80,2.63,2.65,2.65
28,5.03,2.39,5.07,2.43,-2.43,-3.01,2.60,2.64,2.64
29,5.33,2.69,5.33,2.69,-2.69,-3.20,2.64,2.64,2.64
30,5.52,2.89,5.57,2.94,-2.94,-3.36,2.58,2.63,2.63
31,5.83,3.20,5.80,3.18,-3.18,-3.50,2.66,2.63,2.63
32,6.04,3.42,6.02,3.40,-3.40,-3.60,2.64,2.62,2.62
33,6.26,3.65,6.23,3.61,-3.61,-3.68,2.65,2.62,2.62
34,6.45,3.84,6.42,3.81,-3.81,-3.74,2.64,2.61,2.61
35,6.62,4.02,6.60,4.00,-4.00,-3.78,2.62,2.60,2.60
36,6.75,4.16,6.77,4.18,-4.18,-3.83,2.57,2.59,2.59
37,6.95,4.37,6.94,4.35,-4.35,-3.88,2.60,2.58,2.58
38,7.07,4.50,7.10,4.52,-4.52,-3.94,2.55,2.58,2.58
39,7.15,4.59,7.24,4.68,-4.68,-4.00,2.47,2.57,2.57
40,7.32,4.77,7.39,4.83,-4.83,-4.08,2.49,2.55,2.55
41,7.55,5.01,7.52,4.98,-4.98,-4.18,2.57,2.54,2.54
42,7.69,5.16,7.65,5.12,-5.12,-4.29,2.57,2.53,2.53
43,7.76,5.24,7.77,5.25,-5.25,-4.41,2.51,2.52,2.52
44,7.91,5.41,7.88,5.38,-5.38,-4.56,2.53,2.50,2.50
45,8.04,5.55,7.99,5.50,-5.50,-4.71,2.54,2.49,2.49
46,8.06,5.59,8.09,5.62,-5.62,-4.88,2.44,2.47,2.47
47,8.21,5.75,8.19,5.73,-5.73,-5.06,2.48,2.46,2.46
48,8.26,5.82,8.28,5.84,-5.84,-5.25,2.42,2.44,2.44
49,8.36,5.94,8.36,5.94,-5.94,-5.45,2.42,2.42,2.42
50,8.46,6.06,8.44,6.04,-6.04,-5.66,2.43,2.40,2.40
51,8.46,6.08,8.51,6.13,-6.13,-5.87,2.33,2.38,2.38
52,8.58,6.22,8.58,6.22,-6.22,-6.09,2.36,2.36,2.36
53,8.66,6.32,8.65,6.31,-6.31,-6.30,2.35,2.34,2.34
54,8.66,6.34,8.71,6.39,-6.39,-6.51,2.27,2.32,2.32
55,8.76,6.47,8.77,6.47,-6.47,-6.70,2.29,2.30,2.30
56,8.86,6.59,8.82,6.55,-6.55,-6.89,2.31,2.27,2.27
57,8.86,6.62,8.87,6.62,-6.62,-7.07,2.24,2.25,2.25
58,8.86,6.64,8.92,6.70,-6.70,-7.22,2.17,2.22,2.22
59,8.93,6.74,8.95,6.76,-6.76,-7.36,2.17,2.19,2.19
60,9.06,6.90,8.99,6.82,-6.82,-7.48,2.24,2.16,2.16
61,9.06,6.93,9.01,6.88,-6.88,-7.57,2.18,2.14,2.14
62,9.06,6.96,9.04,6.93,-6.93,-7.64,2.13,2.11,2.11
63,9.06,6.99,9.05,6.98,-6.98,-7.69,2.09,2.08,2.08
64,9.06,7.02,9.06,7.02,-7.02,-7.72,2.04,2.04,2.04
65,9.06,7.05,9.07,7.06,-7.06,-7.73,2.00,2.01,2.01
66,9.06,7.08,9.07,7.10,-7.10,-7.72,1.97,1.98,1.98
67,9.06,7.12,9.08,7.13,-7.13,-7.69,1.93,1.94,1.94
68,9.06,7.15,9.08,7.17,-7.17,-7.65,1.90,1.91,1.91
69,9.06,7.19,9.07,7.20,-7.20,-7.61,1.86,1.87,1.87
70,9.06,7.22,9.07,7.23,-7.23,-7.55,1.83,1.84,1.84
71,9.06,7.26,9.07,7.27,-7.27,-7.49,1.79,1.80,1.80
72,9.06,7.30,9.07,7.31,-7.31,-7.43,1.76,1.77,1.77
73,9.06,7.33,9.07,7.34,-7.34,-7.37,1.72,1.73,1.73
74,9.06,7.37,9.07,7.38,-7.38,-7.31,1.68,1.69,1.69
75,9.06,7.41,9.07,7.42,-7.42,-7.25,1.64,1.65,1.65
76,9.06,7.45,9.07,7.46,-7.46,-7.20,1.61,1.61,1.61
77,9.06,7.49,9.06,7.49,-7.49,-7.15,1.57,1.57,1.57
78,9.06,7.53,9.06,7.53,-7.53,-7.11,1.54,1.53,1.53
79,9.06,7.57,9.05,7.56,-7.56,-7.07,1.51,1.49,1.49
80,9.06,7.61,9.04,7.59,-7.59,-7.04,1.48,1.45,1.45
81,9.06,7.65,9.02,7.61,-7.61,-7.01,1.45,1.41,1.41
82,9.03,7.66,9.00,7.64,-7.64,-6.99,1.40,1.37,1.37
83,8.96,7.64,8.98,7.66,-7.66,-6.98,1.31,1.33,1.33
84,8.97,7.69,8.96,7.68,-7.68,-6.98,1.30,1.29,1.29
85,8.94,7.70,8.94,7.69,-7.69,-6.98,1.25,1.24,1.24
86,8.86,7.66,8.91,7.71,-7.71,-6.99,1.15,1.20,1.20
87,8.86,7.70,8.89,7.73,-7.73,-7.01,1.13,1.16,1.16
88,8.86,7.74,8.86,7.74,-7.74,-7.03,1.12,1.12,1.12
89,8.85,7.77,8.84,7.76,-7.76,-7.06,1.09,1.08,1.08
90,8.76,7.73,8.81,7.78,-7.78,-7.09,0.99,1.04,1.04
91,8.76,7.77,8.79,7.79,-7.79,-7.14,0.97,1.00,0.99
92,8.77,7.82,8.76,7.81,-7.81,-7.18,0.97,0.95,0.95
93,8.77,7.86,8.73,7.82,-7.82,-7.24,0.95,0.91,0.91
94,8.77,7.90,8.71,7.83,-7.83,-7.30,0.94,0.87,0.87
95,8.73,7.90,8.68,7.84,-7.84,-7.36,0.89,0.83,0.83
96,8.57,7.78,8.64,7.85,-7.85,-7.43,0.72,0.79,0.79
97,8.56,7.81,8.61,7.86,-7.86,-7.50,0.70,0.75,0.75
98,8.55,7.84,8.57,7.87,-7.87,-7.58,0.69,0.71,0.71
99,8.54,7.87,8.53,7.87,-7.87,-7.66,0.67,0.66,0.67
100,8.52,7.89,8.49,7.87,-7.87,-7.74,0.65,0.62,0.63
101,8.48,7.89,8.44,7.87,-7.87,-7.82,0.62,0.58,0.59
102,8.36,7.81,8.40,7.86,-7.86,-7.91,0.50,0.54,0.55
104,8.36,7.88,8.35,7.85,-7.85,-8.09,0.51,0.50,0.48
105,8.36,7.92,8.30,7.85,-7.85,-8.18,0.52,0.46,0.44
106,8.29,7.88,8.26,7.84,-7.84,-8.27,0.46,0.42,0.41
107,8.19,7.82,8.21,7.83,-7.83,-8.36,0.36,0.38,0.37
108,8.17,7.83,8.16,7.82,-7.82,-8.45,0.35,0.34,0.34
109,8.08,7.78,8.12,7.81,-7.81,-8.54,0.27,0.31,0.31
110,8.00,7.73,8.08,7.81,-7.81,-8.62,0.19,0.27,0.27
111,8.00,7.76,8.05,7.81,-7.81,-8.71,0.20,0.24,0.24
112,8.00,7.79,8.02,7.81,-7.81,-8.78,0.19,0.21,0.21
113,7.99,7.81,7.99,7.81,-7.81,-8.86,0.18,0.18,0.18
114,7.98,7.83,7.96,7.82,-7.82,-8.92,0.16,0.15,0.16
115,7.98,7.85,7.94,7.83,-7.83,-8.99,0.16,0.12,0.13
117,7.94,7.87,7.92,7.84,-7.84,-9.09,0.11,0.09,0.07
118,7.84,7.79,7.90,7.85,-7.85,-9.13,-0.00,0.06,0.05
119,7.86,7.83,7.89,7.86,-7.86,-9.17,0.01,0.03,0.03
120,7.93,7.93,7.87,7.87,-7.87,-9.20,0.07,0.00,0.01
121,7.94,7.96,7.85,7.87,-7.87,-9.21,0.07,-0.02,-0.02
123,7.81,7.87,7.83,7.88,-7.88,-9.22,-0.07,-0.05,-0.06
124,7.82,7.90,7.81,7.89,-7.89,-9.22,-0.06,-0.08,-0.08
125,7.73,7.83,7.79,7.89,-7.89,-9.20,-0.16,-0.10,-0.10
126,7.69,7.81,7.77,7.89,-7.89,-9.18,-0.20,-0.12,-0.12
128,7.74,7.90,7.74,7.89,-7.89,-9.11,-0.15,-0.15,-0.16
129,7.78,7.95,7.72,7.89,-7.89,-9.06,-0.11,-0.17,-0.17
130,7.79,7.98,7.70,7.89,-7.89,-9.01,-0.10,-0.19,-0.19
131,7.71,7.91,7.68,7.89,-7.89,-8.95,-0.18,-0.21,-0.20
133,7.58,7.82,7.65,7.89,-7.89,-8.81,-0.30,-0.23,-0.24
134,7.52,7.78,7.63,7.88,-7.88,-8.73,-0.36,-0.25,-0.25
135,7.54,7.81,7.60,7.88,-7.88,-8.65,-0.34,-0.28,-0.27
137,7.57,7.87,7.58,7.87,-7.87,-8.47,-0.30,-0.30,-0.30
138,7.57,7.89,7.55,7.87,-7.87,-8.38,-0.29,-0.32,-0.31
140,7.60,7.95,7.52,7.86,-7.86,-8.19,-0.26,-0.34,-0.35
141,7.62,7.98,7.49,7.85,-7.85,-8.09,-0.23,-0.36,-0.36
142,7.47,7.84,7.46,7.84,-7.84,-7.99,-0.37,-0.38,-0.37
144,7.34,7.74,7.43,7.83,-7.83,-7.78,-0.48,-0.40,-0.40
145,7.36,7.78,7.39,7.81,-7.81,-7.68,-0.45,-0.42,-0.42
147,7.39,7.84,7.35,7.79,-7.79,-7.47,-0.40,-0.44,-0.44
148,7.26,7.72,7.31,7.77,-7.77,-7.37,-0.51,-0.46,-0.46
150,7.15,7.64,7.27,7.75,-7.75,-7.17,-0.60,-0.48,-0.48
151,7.17,7.67,7.22,7.72,-7.72,-7.06,-0.55,-0.50,-0.50
153,7.18,7.71,7.17,7.69,-7.69,-6.87,-0.51,-0.52,-0.52
154,7.18,7.72,7.11,7.65,-7.65,-6.77,-0.47,-0.54,-0.54
156,7.09,7.65,7.05,7.60,-7.60,-6.58,-0.51,-0.56,-0.56
157,7.08,7.65,6.97,7.55,-7.55,-6.49,-0.47,-0.58,-0.57
159,6.93,7.53,6.90,7.49,-7.49,-6.31,-0.56,-0.59,-0.60
160,6.90,7.51,6.81,7.43,-7.43,-6.22,-0.52,-0.61,-0.61
162,6.78,7.41,6.73,7.36,-7.36,-6.05,-0.57,-0.63,-0.63
164,6.61,7.26,6.64,7.28,-7.28,-5.89,-0.67,-0.64,-0.65
165,6.53,7.19,6.55,7.21,-7.21,-5.81,-0.68,-0.66,-0.66
167,6.37,7.05,6.46,7.13,-7.13,-5.65,-0.76,-0.67,-0.68
169,6.19,6.88,6.37,7.06,-7.06,-5.51,-0.87,-0.69,-0.69
170,6.21,6.91,6.29,6.99,-6.99,-5.44,-0.77,-0.70,-0.70
172,6.22,6.93,6.21,6.92,-6.92,-5.30,-0.69,-0.71,-0.71
174,6.13,6.86,6.13,6.85,-6.85,-5.17,-0.72,-0.72,-0.72
175,6.10,6.83,6.06,6.79,-6.79,-5.11,-0.68,-0.73,-0.73
177,6.03,6.77,5.99,6.72,-6.72,-4.99,-0.69,-0.74,-0.74
179,5.84,6.59,5.92,6.66,-6.66,-4.88,-0.82,-0.74,-0.74
181,5.95,6.70,5.85,6.60,-6.60,-4.77,-0.65,-0.75,-0.75
183,5.79,6.55,5.78,6.53,-6.53,-4.67,-0.74,-0.75,-0.76
184,5.66,6.42,5.71,6.47,-6.47,-4.62,-0.80,-0.76,-0.76
186,5.65,6.41,5.63,6.39,-6.39,-4.52,-0.74,-0.76,-0.76
188,5.56,6.33,5.55,6.31,-6.31,-4.43,-0.75,-0.76,-0.76
190,5.38,6.15,5.46,6.23,-6.23,-4.35,-0.84,-0.77,-0.77
192,5.39,6.16,5.36,6.13,-6.13,-4.27,-0.74,-0.77,-0.77
194,5.30,6.07,5.26,6.03,-6.03,-4.19,-0.73,-0.77,-0.77
196,5.11,5.88,5.15,5.92,-5.92,-4.12,-0.81,-0.77,-0.77
198,5.12,5.89,5.04,5.81,-5.81,-4.05,-0.69,-0.77,-0.77
200,5.07,5.84,4.92,5.69,-5.69,-3.99,-0.62,-0.77,-0.77
202,4.88,5.65,4.80,5.57,-5.57,-3.92,-0.69,-0.77,-0.77
204,4.66,5.44,4.67,5.45,-5.45,-3.87,-0.79,-0.77,-0.77
206,4.46,5.24,4.56,5.33,-5.33,-3.81,-0.87,-0.77,-0.77
208,4.31,5.09,4.44,5.22,-5.22,-3.76,-0.90,-0.78,-0.77
210,4.23,5.01,4.33,5.10,-5.10,-3.71,-0.87,-0.78,-0.77
212,4.15,4.93,4.22,5.00,-5.00,-3.66,-0.85,-0.78,-0.78
214,4.08,4.86,4.12,4.90,-4.90,-3.61,-0.81,-0.78,-0.78
216,3.90,4.68,4.02,4.80,-4.80,-3.57,-0.89,-0.78,-0.78
218,3.92,4.70,3.92,4.69,-4.69,-3.53,-0.77,-0.78,-0.77
221,3.70,4.48,3.81,4.58,-4.58,-3.47,-0.88,-0.77,-0.78
223,3.66,4.44,3.69,4.47,-4.47,-3.43,-0.80,-0.77,-0.78
225,3.64,4.42,3.56,4.33,-4.33,-3.39,-0.69,-0.77,-0.77
227,3.63,4.40,3.42,4.19,-4.19,-3.36,-0.55,-0.77,-0.77
229,3.56,4.33,3.25,4.02,-4.02,-3.32,-0.46,-0.77,-0.77
232,3.13,3.90,3.07,3.83,-3.83,-3.27,-0.70,-0.76,-0.77
234,2.92,3.68,2.86,3.62,-3.62,-3.24,-0.70,-0.76,-0.76
236,2.66,3.42,2.64,3.39,-3.39,-3.20,-0.73,-0.76,-0.76
239,2.44,3.19,2.40,3.15,-3.15,-3.16,-0.71,-0.75,-0.75
241,2.21,2.96,2.16,2.90,-2.90,-3.12,-0.69,-0.74,-0.75
244,1.80,2.54,1.91,2.65,-2.65,-3.08,-0.85,-0.74,-0.74
246,1.55,2.28,1.66,2.39,-2.39,-3.05,-0.84,-0.73,-0.73
248,1.34,2.07,1.42,2.14,-2.14,-3.02,-0.80,-0.72,-0.72
251,1.09,1.81,1.19,1.90,-1.90,-2.97,-0.81,-0.72,-0.72
253,1.01,1.72,0.97,1.68,-1.68,-2.94,-0.67,-0.71,-0.71
256,0.79,1.49,0.77,1.48,-1.48,-2.89,-0.68,-0.70,-0.70
259,0.58,1.28,0.60,1.29,-1.29,-2.85,-0.71,-0.70,-0.70
261,0.43,1.12,0.44,1.13,-1.13,-2.82,-0.70,-0.69,-0.69
264,0.27,0.95,0.32,1.00,-1.00,-2.77,-0.72,-0.68,-0.68
266,0.20,0.87,0.22,0.89,-0.89,-2.74,-0.69,-0.67,-0.67
269,0.15,0.82,0.14,0.81,-0.81,-2.70,-0.65,-0.67,-0.66
272,0.04,0.70,0.09,0.75,-0.75,-2.65,-0.71,-0.66,-0.66
274,-0.01,0.64,0.07,0.72,-0.72,-2.62,-0.73,-0.65,-0.65
277,-0.04,0.61,0.07,0.71,-0.71,-2.58,-0.75,-0.64,-0.64
280,0.04,0.68,0.09,0.73,-0.73,-2.54,-0.69,-0.64,-0.64
283,0.09,0.72,0.13,0.76,-0.76,-2.49,-0.67,-0.63,-0.63
286,0.18,0.81,0.18,0.81,-0.81,-2.45,-0.63,-0.63,-0.63
288,0.25,0.87,0.25,0.87,-0.87,-2.43,-0.62,-0.62,-0.62
291,0.37,0.99,0.32,0.93,-0.93,-2.39,-0.56,-0.61,-0.61
294,0.46,1.07,0.40,1.01,-1.01,-2.35,-0.54,-0.61,-0.61
297,0.53,1.13,0.48,1.08,-1.08,-2.31,-0.55,-0.60,-0.60
300,0.67,1.27,0.55,1.15,-1.15,-2.27,-0.48,-0.60,-0.60
303,0.66,1.25,0.62,1.21,-1.21,-2.24,-0.55,-0.59,-0.59
306,0.61,1.20,0.69,1.28,-1.28,-2.21,-0.66,-0.58,-0.58
309,0.83,1.41,0.75,1.33,-1.33,-2.17,-0.50,-0.58,-0.58
312,0.85,1.43,0.81,1.38,-1.38,-2.14,-0.53,-0.57,-0.57
316,0.73,1.30,0.86,1.43,-1.43,-2.10,-0.70,-0.57,-0.57
319,1.02,1.59,0.91,1.47,-1.47,-2.08,-0.45,-0.56,-0.56
322,1.01,1.57,0.95,1.50,-1.50,-2.05,-0.49,-0.56,-0.56
325,0.81,1.37,0.98,1.54,-1.54,-2.02,-0.72,-0.55,-0.55
328,1.06,1.61,1.02,1.57,-1.57,-2.00,-0.50,-0.55,-0.55
332,1.01,1.56,1.05,1.59,-1.59,-1.97,-0.58,-0.55,-0.54
335,0.89,1.43,1.07,1.61,-1.61,-1.95,-0.72,-0.54,-0.54
338,1.19,1.73,1.10,1.64,-1.64,-1.93,-0.44,-0.54,-0.54
342,1.16,1.70,1.12,1.65,-1.65,-1.91,-0.49,-0.53,-0.53
345,1.29,1.82,1.14,1.67,-1.67,-1.89,-0.38,-0.53,-0.53
349,1.28,1.81,1.15,1.68,-1.68,-1.87,-0.40,-0.53,-0.53
352,1.09,1.62,1.16,1.69,-1.69,-1.86,-0.60,-0.53,-0.52
356,1.10,1.62,1.17,1.70,-1.70,-1.84,-0.60,-0.52,-0.52
359,1.12,1.64,1.18,1.71,-1.71,-1.83,-0.59,-0.52,-0.52
363,1.21,1.73,1.20,1.72,-1.72,-1.81,-0.50,-0.52,-0.52
366,1.21,1.73,1.21,1.73,-1.73,-1.80,-0.51,-0.52,-0.52
370,1.32,1.84,1.22,1.74,-1.74,-1.79,-0.42,-0.52,-0.52
374,1.05,1.57,1.24,1.75,-1.75,-1.78,-0.70,-0.52,-0.51
377,1.05,1.56,1.26,1.77,-1.77,-1.78,-0.72,-0.51,-0.51
381,1.44,1.95,1.28,1.79,-1.79,-1.77,-0.35,-0.51,-0.51
385,1.45,1.96,1.30,1.81,-1.81,-1.76,-0.36,-0.51,-0.51
389,1.38,1.88,1.33,1.83,-1.83,-1.76,-0.45,-0.50,-0.50
393,1.20,1.70,1.36,1.86,-1.86,-1.76,-0.66,-0.50,-0.50
397,1.45,1.94,1.40,1.89,-1.89,-1.75,-0.43,-0.49,-0.49
401,1.51,1.99,1.43,1.91,-1.91,-1.75,-0.40,-0.48,-0.48
405,1.32,1.79,1.47,1.94,-1.94,-1.75,-0.61,-0.47,-0.47
409,1.49,1.95,1.51,1.96,-1.96,-1.75,-0.47,-0.45,-0.45
413,1.65,2.09,1.55,1.98,-1.98,-1.75,-0.33,-0.43,-0.44
417,1.65,2.07,1.59,2.00,-2.00,-1.75,-0.35,-0.41,-0.42
421,1.46,1.86,1.63,2.02,-2.02,-1.75,-0.56,-0.39,-0.40
425,1.50,1.87,1.67,2.03,-2.03,-1.75,-0.53,-0.37,-0.37
430,1.95,2.29,1.71,2.05,-2.05,-1.75,-0.10,-0.34,-0.34
434,1.93,2.24,1.75,2.06,-2.06,-1.75,-0.13,-0.31,-0.31
438,1.72,2.00,1.80,2.07,-2.07,-1.75,-0.35,-0.27,-0.28
443,1.75,1.99,1.84,2.08,-2.08,-1.74,-0.32,-0.24,-0.24
447,1.80,2.00,1.88,2.08,-2.08,-1.74,-0.28,-0.20,-0.20
451,1.85,2.02,1.93,2.09,-2.09,-1.74,-0.23,-0.16,-0.16
456,2.01,2.13,1.97,2.09,-2.09,-1.73,-0.08,-0.12,-0.12
460,2.15,2.23,2.01,2.09,-2.09,-1.73,0.07,-0.08,-0.08
465,1.98,2.02,2.04,2.08,-2.08,-1.72,-0.10,-0.04,-0.04
470,1.99,1.99,2.08,2.08,-2.08,-1.71,-0.09,-0.00,0.00
474,2.05,2.01,2.11,2.07,-2.07,-1.70,-0.02,0.04,0.04
479,2.13,2.06,2.13,2.06,-2.06,-1.69,0.08,0.07,0.08
484,2.31,2.20,2.15,2.04,-2.04,-1.67,0.27,0.11,0.11
489,2.19,2.05,2.16,2.02,-2.02,-1.66,0.17,0.14,0.14
494,2.12,1.95,2.16,2.00,-2.00,-1.64,0.12,0.16,0.17
499,2.17,1.98,2.16,1.97,-1.97,-1.62,0.20,0.19,0.19
504,2.31,2.10,2.14,1.94,-1.94,-1.59,0.37,0.20,0.21
509,1.99,1.77,2.12,1.90,-1.90,-1.57,0.09,0.22,0.23
514,1.91,1.68,2.10,1.87,-1.87,-1.54,0.05,0.23,0.24
519,2.01,1.77,2.06,1.82,-1.82,-1.51,0.19,0.24,0.24
524,2.12,1.88,2.01,1.78,-1.78,-1.48,0.35,0.24,0.24
529,2.10,1.86,1.96,1.72,-1.72,-1.45,0.38,0.24,0.24
535,1.87,1.63,1.90,1.67,-1.67,-1.41,0.20,0.23,0.24
540,1.84,1.61,1.83,1.61,-1.61,-1.37,0.23,0.23,0.23
545,1.80,1.58,1.76,1.54,-1.54,-1.33,0.26,0.22,0.22
551,1.70,1.49,1.68,1.47,-1.47,-1.29,0.23,0.21,0.21
556,1.61,1.41,1.60,1.40,-1.40,-1.25,0.21,0.20,0.20
562,1.46,1.27,1.52,1.33,-1.33,-1.20,0.13,0.19,0.19
568,1.47,1.29,1.44,1.26,-1.26,-1.15,0.21,0.18,0.18
573,1.48,1.31,1.36,1.19,-1.19,-1.11,0.30,0.17,0.17
579,1.24,1.08,1.28,1.12,-1.12,-1.05,0.13,0.17,0.16
585,1.10,0.94,1.22,1.05,-1.05,-1.00,0.05,0.17,0.16
591,1.01,0.85,1.15,0.99,-0.99,-0.95,0.02,0.17,0.16
596,0.98,0.82,1.10,0.93,-0.93,-0.91,0.05,0.17,0.16
602,0.98,0.81,1.05,0.87,-0.87,-0.85,0.11,0.18,0.17
608,1.00,0.82,1.00,0.82,-0.82,-0.80,0.19,0.19,0.18
615,1.09,0.90,0.96,0.76,-0.76,-0.74,0.33,0.20,0.20
621,0.83,0.62,0.92,0.69,-0.69,-0.69,0.14,0.22,0.22
627,0.85,0.61,0.87,0.62,-0.62,-0.63,0.23,0.24,0.24
633,0.99,0.73,0.81,0.54,-0.54,-0.58,0.45,0.27,0.26
639,0.83,0.54,0.74,0.45,-0.45,-0.53,0.38,0.29,0.29
646,0.68,0.36,0.67,0.34,-0.34,-0.47,0.34,0.32,0.32
652,0.60,0.25,0.58,0.22,-0.22,-0.42,0.38,0.36,0.36
659,0.52,0.13,0.48,0.09,-0.09,-0.36,0.43,0.39,0.39
665,0.44,0.02,0.37,-0.05,0.05,-0.31,0.49,0.42,0.42
672,0.34,-0.12,0.26,-0.19,0.19,-0.25,0.54,0.46,0.46
679,0.19,-0.30,0.15,-0.34,0.34,-0.19,0.53,0.49,0.49
686,0.10,-0.42,0.04,-0.48,0.48,-0.13,0.59,0.52,0.53
692,-0.07,-0.63,-0.07,-0.62,0.62,-0.08,0.55,0.55,0.56
699,-0.27,-0.86,-0.16,-0.74,0.74,-0.02,0.47,0.58,0.59
706,-0.38,-0.99,-0.23,-0.84,0.84,0.03,0.46,0.61,0.62
713,-0.40,-1.04,-0.29,-0.92,0.92,0.09,0.53,0.64,0.64
721,-0.54,-1.20,-0.32,-0.99,0.99,0.15,0.45,0.66,0.67
728,-0.41,-1.10,-0.34,-1.02,1.02,0.21,0.62,0.69,0.69
735,-0.32,-1.03,-0.34,-1.04,1.04,0.26,0.73,0.71,0.71
742,-0.31,-1.03,-0.32,-1.04,1.04,0.32,0.74,0.72,0.73
750,-0.38,-1.12,-0.29,-1.03,1.03,0.38,0.65,0.74,0.74
757,-0.29,-1.04,-0.26,-1.01,1.01,0.43,0.72,0.76,0.76
765,-0.09,-0.86,-0.21,-0.98,0.98,0.49,0.89,0.77,0.77
773,-0.03,-0.81,-0.17,-0.95,0.95,0.55,0.93,0.78,0.78
780,-0.09,-0.88,-0.13,-0.92,0.92,0.60,0.84,0.79,0.79
788,0.03,-0.77,-0.10,-0.90,0.90,0.66,0.93,0.80,0.80
796,0.04,-0.77,-0.07,-0.88,0.88,0.72,0.92,0.81,0.81
804,-0.06,-0.87,-0.05,-0.87,0.87,0.77,0.81,0.82,0.81
812,-0.06,-0.88,-0.03,-0.86,0.86,0.83,0.80,0.82,0.82
820,-0.06,-0.89,-0.02,-0.85,0.85,0.88,0.80,0.83,0.83
828,-0.14,-0.97,-0.01,-0.85,0.85,0.93,0.71,0.84,0.84
837,-0.18,-1.02,-0.01,-0.85,0.85,0.99,0.67,0.84,0.84
845,0.04,-0.81,-0.00,-0.85,0.85,1.04,0.90,0.85,0.85
853,0.04,-0.82,-0.00,-0.86,0.86,1.09,0.90,0.86,0.86
862,0.04,-0.82,0.00,-0.86,0.86,1.14,0.90,0.86,0.86
871,0.03,-0.84,0.01,-0.87,0.87,1.19,0.90,0.87,0.87
879,0.02,-0.86,0.01,-0.87,0.87,1.24,0.89,0.88,0.88
888,0.02,-0.87,0.01,-0.88,0.88,1.28,0.90,0.89,0.89
897,0.01,-0.88,0.01,-0.89,0.89,1.33,0.90,0.90,0.90
906,0.00,-0.90,0.01,-0.90,0.90,1.37,0.90,0.90,0.90
915,0.00,-0.91,0.00,-0.91,0.91,1.41,0.91,0.91,0.91
924,-0.01,-0.93,-0.00,-0.93,0.93,1.44,0.92,0.92,0.92
933,-0.01,-0.94,-0.01,-0.95,0.95,1.47,0.94,0.93,0.93
943,-0.01,-0.95,-0.02,-0.97,0.97,1.50,0.96,0.95,0.95
952,-0.01,-0.97,-0.03,-0.99,0.99,1.53,0.98,0.96,0.96
962,0.00,-0.97,-0.04,-1.01,1.01,1.55,1.01,0.97,0.97
971,-0.19,-1.17,-0.04,-1.03,1.03,1.57,0.84,0.99,0.99
981,-0.12,-1.12,-0.05,-1.05,1.05,1.59,0.94,1.00,1.00
991,0.07,-0.95,-0.06,-1.08,1.08,1.60,1.15,1.02,1.02
1001,-0.01,-1.05,-0.06,-1.10,1.10,1.61,1.09,1.04,1.04
1011,-0.14,-1.20,-0.06,-1.12,1.12,1.61,0.98,1.06,1.06
1021,-0.03,-1.11,-0.06,-1.14,1.14,1.62,1.11,1.08,1.08
1031,0.03,-1.07,-0.05,-1.16,1.16,1.61,1.19,1.11,1.10
1041,-0.14,-1.27,-0.05,-1.18,1.18,1.61,1.04,1.13,1.13
1052,-0.12,-1.28,-0.04,-1.20,1.20,1.60,1.08,1.16,1.16
1062,-0.08,-1.26,-0.03,-1.22,1.22,1.59,1.14,1.19,1.19
1073,0.00,-1.21,-0.02,-1.24,1.24,1.57,1.24,1.22,1.22
1084,0.11,-1.14,-0.01,-1.26,1.26,1.55,1.37,1.25,1.25
1094,0.03,-1.25,0.01,-1.28,1.28,1.53,1.31,1.28,1.28
1105,0.01,-1.30,0.02,-1.30,1.30,1.51,1.31,1.31,1.31
1116,-0.02,-1.37,0.03,-1.32,1.32,1.48,1.30,1.35,1.35
1128,0.00,-1.38,0.05,-1.34,1.34,1.45,1.34,1.38,1.38
1139,0.08,-1.33,0.06,-1.35,1.35,1.42,1.44,1.42,1.42
1150,0.19,-1.26,0.08,-1.37,1.37,1.39,1.57,1.45,1.45
1162,0.08,-1.40,0.09,-1.39,1.39,1.35,1.47,1.48,1.48
1173,0.03,-1.48,0.11,-1.41,1.41,1.32,1.44,1.51,1.51
1185,0.11,-1.43,0.12,-1.42,1.42,1.28,1.53,1.54,1.54
1197,0.12,-1.45,0.14,-1.43,1.43,1.25,1.55,1.57,1.57
1209,0.18,-1.42,0.17,-1.43,1.43,1.21,1.61,1.60,1.60
1221,0.27,-1.35,0.19,-1.43,1.43,1.17,1.70,1.62,1.62
1233,0.20,-1.44,0.22,-1.42,1.42,1.13,1.63,1.64,1.65
1246,0.24,-1.42,0.25,-1.41,1.41,1.09,1.65,1.66,1.66
1258,0.28,-1.40,0.29,-1.39,1.39,1.05,1.67,1.68,1.68
1271,0.25,-1.44,0.32,-1.36,1.36,1.01,1.62,1.69,1.69
1283,0.31,-1.39,0.37,-1.33,1.33,0.97,1.64,1.70,1.70
1296,0.36,-1.35,0.41,-1.30,1.30,0.93,1.66,1.70,1.71
1309,0.43,-1.28,0.45,-1.26,1.26,0.89,1.69,1.71,1.71
1322,0.50,-1.21,0.49,-1.22,1.22,0.86,1.72,1.71,1.71
1335,0.52,-1.19,0.53,-1.18,1.18,0.82,1.70,1.71,1.71
1349,0.57,-1.13,0.56,-1.14,1.14,0.78,1.71,1.70,1.71
1362,0.68,-1.02,0.59,-1.11,1.11,0.74,1.79,1.70,1.70
1376,0.77,-0.92,0.62,-1.08,1.08,0.70,1.85,1.69,1.69
1390,0.77,-0.91,0.63,-1.05,1.05,0.66,1.82,1.68,1.68
1404,0.71,-0.96,0.65,-1.03,1.03,0.62,1.74,1.67,1.68
1418,0.62,-1.04,0.66,-1.01,1.01,0.59,1.63,1.67,1.67
1432,0.56,-1.10,0.67,-0.99,0.99,0.55,1.55,1.66,1.66
1446,0.58,-1.07,0.68,-0.97,0.97,0.51,1.55,1.65,1.65
1461,0.64,-1.00,0.70,-0.94,0.94,0.48,1.59,1.65,1.65
1475,0.70,-0.94,0.72,-0.92,0.92,0.44,1.62,1.64,1.64
1490,0.75,-0.89,0.75,-0.89,0.89,0.41,1.64,1.64,1.64
1505,0.77,-0.87,0.79,-0.86,0.86,0.37,1.63,1.65,1.64
1520,0.82,-0.83,0.84,-0.82,0.82,0.34,1.64,1.65,1.65
1535,0.90,-0.76,0.89,-0.77,0.77,0.31,1.67,1.66,1.66
1550,0.97,-0.70,0.95,-0.73,0.73,0.27,1.70,1.68,1.67
1566,1.04,-0.65,1.02,-0.67,0.67,0.24,1.72,1.70,1.69
1582,1.10,-0.61,1.10,-0.62,0.62,0.21,1.73,1.72,1.72
1597,1.16,-0.58,1.18,-0.57,0.57,0.18,1.73,1.75,1.75
1613,1.23,-0.55,1.26,-0.52,0.52,0.15,1.75,1.78,1.78
1629,1.29,-0.53,1.35,-0.47,0.47,0.12,1.76,1.82,1.82
1646,1.46,-0.40,1.45,-0.42,0.42,0.09,1.88,1.87,1.87
1662,1.54,-0.38,1.54,-0.38,0.38,0.07,1.92,1.92,1.92
1679,1.69,-0.28,1.64,-0.34,0.34,0.04,2.03,1.98,1.97
1696,1.77,-0.26,1.73,-0.31,0.31,0.02,2.08,2.04,2.04
1713,1.84,-0.26,1.83,-0.28,0.28,-0.01,2.12,2.10,2.10
1730,1.93,-0.24,1.92,-0.25,0.25,-0.03,2.18,2.18,2.17
1747,2.01,-0.24,2.02,-0.23,0.23,-0.05,2.24,2.25,2.25
1764,2.11,-0.22,2.11,-0.22,0.22,-0.06,2.33,2.33,2.33
1782,2.21,-0.20,2.21,-0.21,0.21,-0.08,2.42,2.42,2.42
1800,2.31,-0.19,2.30,-0.20,0.20,-0.09,2.51,2.50,2.50
1818,2.43,-0.16,2.40,-0.20,0.20,-0.11,2.63,2.59,2.60
1836,2.47,-0.22,2.49,-0.19,0.19,-0.11,2.67,2.69,2.69
1854,2.57,-0.21,2.59,-0.19,0.19,-0.12,2.76,2.78,2.79
1873,2.69,-0.19,2.69,-0.19,0.19,-0.13,2.88,2.88,2.89
1892,2.82,-0.17,2.79,-0.19,0.19,-0.13,3.01,2.99,2.99
1911,2.90,-0.19,2.90,-0.19,0.19,-0.12,3.09,3.09,3.09
1930,2.98,-0.22,3.01,-0.19,0.19,-0.12,3.17,3.20,3.20
1949,3.11,-0.20,3.13,-0.18,0.18,-0.11,3.29,3.31,3.31
1969,3.25,-0.17,3.25,-0.17,0.17,-0.10,3.42,3.42,3.42
