frequency,raw,error,smoothed,error_smoothed,equalization,parametric_eq,fixed_band_eq,equalized_raw,equalized_smoothed,target
20.00,-1.32,-2.41,-1.31,-2.42,2.42,2.37,0.31,1.10,1.11,1.09
20.20,-1.27,-2.40,-1.27,-2.41,2.41,2.36,0.32,1.14,1.14,1.13
20.40,-1.22,-2.39,-1.23,-2.39,2.39,2.36,0.33,1.17,1.17,1.16
20.61,-1.18,-2.37,-1.18,-2.38,2.38,2.35,0.34,1.20,1.19,1.19
20.81,-1.13,-2.35,-1.13,-2.35,2.35,2.33,0.36,1.23,1.22,1.23
21.02,-1.09,-2.35,-1.09,-2.33,2.33,2.31,0.37,1.24,1.24,1.27
21.23,-1.03,-2.30,-1.03,-2.30,2.30,2.28,0.38,1.27,1.27,1.28
21.44,-0.97,-2.27,-0.98,-2.27,2.27,2.25,0.40,1.29,1.29,1.30
21.66,-0.93,-2.24,-0.93,-2.23,2.23,2.22,0.41,1.30,1.31,1.32
21.87,-0.87,-2.20,-0.87,-2.19,2.19,2.18,0.43,1.32,1.32,1.33
22.09,-0.82,-2.17,-0.81,-2.15,2.15,2.14,0.44,1.32,1.34,1.35
22.31,-0.76,-2.11,-0.75,-2.10,2.10,2.09,0.46,1.34,1.35,1.35
22.54,-0.71,-2.06,-0.68,-2.04,2.04,2.04,0.48,1.34,1.36,1.36
22.76,-0.64,-2.01,-0.61,-1.98,1.98,1.99,0.49,1.34,1.37,1.37
22.99,-0.59,-1.95,-0.54,-1.92,1.92,1.94,0.51,1.33,1.38,1.37
23.22,-0.50,-1.87,-0.47,-1.85,1.85,1.88,0.53,1.36,1.39,1.38
23.45,-0.39,-1.78,-0.39,-1.79,1.79,1.83,0.55,1.39,1.39,1.39
23.69,-0.31,-1.70,-0.32,-1.72,1.72,1.77,0.57,1.41,1.40,1.40
23.92,-0.20,-1.61,-0.26,-1.66,1.66,1.71,0.59,1.45,1.40,1.41
24.16,-0.15,-1.56,-0.19,-1.60,1.60,1.65,0.60,1.45,1.40,1.41
24.40,-0.09,-1.52,-0.13,-1.54,1.54,1.59,0.62,1.45,1.41,1.42
24.65,-0.06,-1.47,-0.08,-1.49,1.49,1.52,0.64,1.43,1.41,1.41
24.89,-0.00,-1.42,-0.03,-1.44,1.44,1.46,0.66,1.44,1.41,1.41
25.14,0.03,-1.38,0.02,-1.40,1.40,1.40,0.68,1.43,1.41,1.41
25.39,0.07,-1.35,0.06,-1.35,1.35,1.34,0.70,1.42,1.42,1.41
25.65,0.09,-1.32,0.10,-1.31,1.31,1.28,0.72,1.41,1.42,1.41
25.91,0.12,-1.28,0.14,-1.28,1.28,1.22,0.74,1.40,1.41,1.40
26.16,0.16,-1.26,0.17,-1.24,1.24,1.17,0.76,1.39,1.41,1.41
26.43,0.19,-1.22,0.21,-1.20,1.20,1.11,0.77,1.39,1.41,1.41
26.69,0.23,-1.17,0.25,-1.15,1.15,1.05,0.79,1.39,1.41,1.41
26.96,0.26,-1.14,0.30,-1.10,1.10,1.00,0.81,1.37,1.40,1.41
27.23,0.32,-1.08,0.35,-1.05,1.05,0.94,0.82,1.37,1.40,1.41
27.50,0.39,-1.01,0.41,-0.99,0.99,0.89,0.84,1.39,1.40,1.41
27.77,0.46,-0.94,0.47,-0.93,0.93,0.84,0.85,1.39,1.40,1.40
28.05,0.51,-0.88,0.52,-0.87,0.87,0.79,0.86,1.39,1.40,1.40
28.33,0.58,-0.80,0.58,-0.82,0.82,0.74,0.87,1.40,1.40,1.39
28.62,0.64,-0.75,0.64,-0.76,0.76,0.69,0.88,1.40,1.40,1.39
28.90,0.71,-0.68,0.69,-0.70,0.70,0.64,0.89,1.42,1.39,1.39
29.19,0.77,-0.61,0.75,-0.64,0.64,0.59,0.89,1.42,1.39,1.38
29.48,0.84,-0.56,0.81,-0.58,0.58,0.55,0.89,1.42,1.39,1.39
29.78,0.89,-0.50,0.86,-0.53,0.53,0.50,0.89,1.42,1.38,1.39
30.08,0.93,-0.46,0.90,-0.48,0.48,0.46,0.89,1.41,1.38,1.39
30.38,0.94,-0.43,0.94,-0.44,0.44,0.42,0.89,1.38,1.38,1.38
30.68,0.95,-0.42,0.98,-0.39,0.39,0.38,0.88,1.35,1.37,1.38
30.99,0.96,-0.40,1.02,-0.35,0.35,0.34,0.87,1.31,1.37,1.37
31.30,1.03,-0.33,1.06,-0.31,0.31,0.30,0.86,1.34,1.36,1.36
31.61,1.09,-0.27,1.09,-0.27,0.27,0.26,0.84,1.36,1.36,1.36
31.93,1.16,-0.19,1.13,-0.23,0.23,0.22,0.82,1.39,1.36,1.35
32.24,1.18,-0.16,1.16,-0.19,0.19,0.18,0.80,1.38,1.35,1.34
32.57,1.18,-0.16,1.19,-0.16,0.16,0.15,0.78,1.34,1.35,1.34
32.89,1.18,-0.15,1.23,-0.11,0.11,0.11,0.75,1.30,1.34,1.34
33.22,1.23,-0.10,1.27,-0.07,0.07,0.08,0.72,1.30,1.34,1.34
33.55,1.32,-0.02,1.31,-0.02,0.02,0.04,0.69,1.34,1.33,1.34
33.89,1.38,0.05,1.35,0.03,-0.03,0.01,0.66,1.36,1.33,1.33
34.23,1.41,0.08,1.39,0.07,-0.07,-0.03,0.62,1.34,1.33,1.33
34.57,1.41,0.09,1.43,0.11,-0.11,-0.06,0.59,1.31,1.32,1.32
34.92,1.41,0.10,1.46,0.14,-0.14,-0.09,0.55,1.27,1.32,1.32
35.27,1.47,0.16,1.49,0.18,-0.18,-0.12,0.51,1.29,1.31,1.32
35.62,1.55,0.25,1.53,0.22,-0.22,-0.16,0.46,1.33,1.31,1.30
35.97,1.63,0.33,1.57,0.26,-0.26,-0.19,0.42,1.37,1.30,1.30
36.33,1.64,0.34,1.61,0.31,-0.31,-0.22,0.37,1.34,1.30,1.30
36.70,1.64,0.35,1.64,0.35,-0.35,-0.25,0.32,1.29,1.29,1.30
37.06,1.64,0.36,1.67,0.38,-0.38,-0.28,0.28,1.26,1.29,1.29
37.43,1.66,0.38,1.69,0.41,-0.41,-0.31,0.23,1.25,1.28,1.28
37.81,1.68,0.40,1.72,0.44,-0.44,-0.34,0.17,1.24,1.28,1.28
38.19,1.72,0.46,1.75,0.48,-0.48,-0.37,0.12,1.25,1.27,1.27
38.57,1.79,0.53,1.78,0.51,-0.51,-0.40,0.07,1.28,1.27,1.26
38.95,1.86,0.60,1.81,0.55,-0.55,-0.43,0.02,1.32,1.26,1.26
39.34,1.87,0.63,1.84,0.58,-0.58,-0.46,-0.04,1.29,1.26,1.25
39.74,1.87,0.64,1.87,0.61,-0.61,-0.49,-0.09,1.26,1.25,1.24
40.14,1.87,0.63,1.90,0.65,-0.65,-0.52,-0.15,1.22,1.25,1.24
40.54,1.87,0.64,1.93,0.69,-0.69,-0.55,-0.21,1.18,1.24,1.24
40.94,1.87,0.64,1.95,0.73,-0.73,-0.58,-0.27,1.15,1.23,1.24
41.35,1.95,0.73,1.98,0.76,-0.76,-0.61,-0.32,1.19,1.21,1.22
41.76,2.06,0.85,2.00,0.80,-0.80,-0.64,-0.38,1.25,1.20,1.21
42.18,2.10,0.91,2.03,0.85,-0.85,-0.67,-0.44,1.26,1.18,1.19
42.60,2.10,0.93,2.05,0.89,-0.89,-0.71,-0.50,1.21,1.16,1.17
43.03,2.10,0.95,2.08,0.94,-0.94,-0.74,-0.56,1.16,1.14,1.16
43.46,2.10,0.97,2.10,0.99,-0.99,-0.77,-0.62,1.11,1.11,1.13
43.90,2.10,1.02,2.14,1.05,-1.05,-0.80,-0.68,1.06,1.09,1.09
44.33,2.10,1.04,2.17,1.10,-1.10,-0.83,-0.75,1.00,1.07,1.06
44.78,2.10,1.08,2.19,1.15,-1.15,-0.87,-0.81,0.95,1.04,1.03
45.23,2.15,1.15,2.22,1.20,-1.20,-0.90,-0.87,0.95,1.02,1.00
45.68,2.25,1.28,2.24,1.24,-1.24,-0.93,-0.93,1.01,1.00,0.98
46.13,2.32,1.36,2.25,1.28,-1.28,-0.97,-1.00,1.05,0.98,0.96
46.60,2.32,1.37,2.27,1.31,-1.31,-1.00,-1.06,1.02,0.96,0.96
47.06,2.32,1.38,2.28,1.33,-1.33,-1.04,-1.13,0.99,0.95,0.94
47.53,2.32,1.39,2.30,1.36,-1.36,-1.08,-1.19,0.96,0.94,0.93
48.01,2.32,1.39,2.31,1.37,-1.37,-1.12,-1.26,0.95,0.94,0.94
48.49,2.32,1.39,2.31,1.38,-1.38,-1.16,-1.32,0.95,0.93,0.93
48.97,2.32,1.40,2.32,1.38,-1.38,-1.20,-1.39,0.94,0.93,0.92
49.46,2.32,1.41,2.33,1.39,-1.39,-1.24,-1.46,0.93,0.94,0.92
49.96,2.32,1.40,2.33,1.40,-1.40,-1.28,-1.52,0.93,0.94,0.92
50.46,2.32,1.39,2.34,1.40,-1.40,-1.32,-1.59,0.92,0.93,0.93
50.96,2.32,1.38,2.34,1.41,-1.41,-1.37,-1.65,0.91,0.93,0.94
51.47,2.32,1.39,2.36,1.43,-1.43,-1.42,-1.72,0.89,0.92,0.94
51.99,2.32,1.40,2.38,1.46,-1.46,-1.47,-1.79,0.86,0.91,0.93
52.51,2.32,1.41,2.40,1.50,-1.50,-1.52,-1.85,0.82,0.90,0.92
53.03,2.33,1.43,2.42,1.54,-1.54,-1.57,-1.91,0.79,0.88,0.90
53.56,2.45,1.58,2.44,1.59,-1.59,-1.62,-1.98,0.86,0.85,0.87
54.10,2.55,1.72,2.46,1.64,-1.64,-1.68,-2.04,0.91,0.82,0.83
54.64,2.55,1.76,2.49,1.70,-1.70,-1.73,-2.10,0.86,0.79,0.79
55.18,2.55,1.80,2.51,1.76,-1.76,-1.79,-2.15,0.80,0.75,0.75
55.74,2.55,1.85,2.53,1.82,-1.82,-1.85,-2.21,0.74,0.71,0.70
56.29,2.55,1.90,2.54,1.88,-1.88,-1.92,-2.26,0.67,0.66,0.66
56.86,2.55,1.95,2.56,1.95,-1.95,-1.98,-2.32,0.61,0.61,0.61
57.42,2.55,2.01,2.57,2.01,-2.01,-2.04,-2.36,0.54,0.55,0.54
58.00,2.55,2.06,2.57,2.07,-2.07,-2.11,-2.41,0.48,0.50,0.49
58.58,2.55,2.11,2.57,2.13,-2.13,-2.18,-2.45,0.43,0.44,0.44
59.16,2.55,2.16,2.57,2.18,-2.18,-2.24,-2.49,0.37,0.39,0.40
59.76,2.55,2.21,2.56,2.23,-2.23,-2.31,-2.53,0.33,0.33,0.34
60.35,2.55,2.28,2.55,2.27,-2.27,-2.37,-2.56,0.28,0.28,0.28
60.96,2.55,2.32,2.55,2.33,-2.33,-2.43,-2.59,0.23,0.23,0.23
61.57,2.55,2.39,2.55,2.38,-2.38,-2.49,-2.61,0.18,0.18,0.17
62.18,2.55,2.44,2.55,2.43,-2.43,-2.54,-2.63,0.13,0.13,0.11
62.80,2.55,2.48,2.56,2.47,-2.47,-2.59,-2.65,0.08,0.08,0.08
63.43,2.55,2.52,2.56,2.53,-2.53,-2.63,-2.66,0.03,0.04,0.03
64.07,2.55,2.56,2.57,2.57,-2.57,-2.67,-2.67,-0.02,-0.00,-0.01
64.71,2.55,2.60,2.57,2.61,-2.61,-2.69,-2.68,-0.06,-0.04,-0.04
65.35,2.55,2.64,2.57,2.64,-2.64,-2.72,-2.68,-0.09,-0.07,-0.08
66.01,2.55,2.66,2.56,2.67,-2.67,-2.73,-2.68,-0.11,-0.10,-0.11
66.67,2.55,2.69,2.55,2.68,-2.68,-2.74,-2.67,-0.13,-0.13,-0.14
67.33,2.55,2.71,2.53,2.69,-2.69,-2.74,-2.67,-0.14,-0.16,-0.16
68.01,2.55,2.73,2.52,2.70,-2.70,-2.74,-2.65,-0.14,-0.18,-0.18
68.69,2.55,2.75,2.50,2.70,-2.70,-2.73,-2.64,-0.15,-0.20,-0.20
69.37,2.55,2.77,2.49,2.71,-2.71,-2.72,-2.63,-0.15,-0.22,-0.22
70.07,2.53,2.78,2.47,2.71,-2.71,-2.70,-2.61,-0.18,-0.24,-0.24
70.77,2.37,2.62,2.45,2.70,-2.70,-2.68,-2.59,-0.33,-0.26,-0.24
71.48,2.32,2.59,2.42,2.69,-2.69,-2.66,-2.57,-0.37,-0.28,-0.27
72.19,2.32,2.61,2.39,2.68,-2.68,-2.64,-2.55,-0.36,-0.29,-0.28
72.91,2.32,2.63,2.35,2.67,-2.67,-2.62,-2.53,-0.34,-0.31,-0.31
73.64,2.32,2.64,2.32,2.65,-2.65,-2.60,-2.50,-0.32,-0.33,-0.32
74.38,2.32,2.66,2.29,2.63,-2.63,-2.58,-2.48,-0.31,-0.34,-0.34
75.12,2.32,2.69,2.25,2.62,-2.62,-2.56,-2.46,-0.29,-0.36,-0.36
75.87,2.32,2.70,2.22,2.60,-2.60,-2.54,-2.43,-0.28,-0.38,-0.38
76.63,2.21,2.61,2.20,2.59,-2.59,-2.53,-2.41,-0.37,-0.39,-0.40
77.40,2.12,2.53,2.18,2.58,-2.58,-2.51,-2.39,-0.45,-0.40,-0.40
78.17,2.10,2.53,2.16,2.57,-2.57,-2.50,-2.36,-0.47,-0.41,-0.42
78.95,2.10,2.53,2.15,2.57,-2.57,-2.49,-2.34,-0.46,-0.42,-0.42
79.74,2.10,2.52,2.14,2.56,-2.56,-2.48,-2.32,-0.45,-0.42,-0.42
80.54,2.10,2.53,2.12,2.54,-2.54,-2.47,-2.30,-0.44,-0.42,-0.43
81.35,2.10,2.54,2.11,2.53,-2.53,-2.47,-2.29,-0.42,-0.42,-0.43
82.16,2.10,2.53,2.10,2.51,-2.51,-2.46,-2.27,-0.41,-0.41,-0.42
82.98,2.10,2.51,2.09,2.49,-2.49,-2.46,-2.25,-0.39,-0.40,-0.40
83.81,2.10,2.50,2.09,2.48,-2.48,-2.46,-2.24,-0.38,-0.39,-0.40
84.65,2.10,2.49,2.09,2.47,-2.47,-2.46,-2.23,-0.36,-0.38,-0.39
85.50,2.10,2.47,2.10,2.46,-2.46,-2.46,-2.22,-0.36,-0.36,-0.36
86.35,2.10,2.45,2.10,2.45,-2.45,-2.47,-2.21,-0.34,-0.35,-0.35
87.22,2.10,2.44,2.10,2.43,-2.43,-2.47,-2.20,-0.33,-0.33,-0.33
88.09,2.10,2.42,2.10,2.42,-2.42,-2.48,-2.20,-0.31,-0.31,-0.32
88.97,2.10,2.39,2.11,2.40,-2.40,-2.48,-2.19,-0.30,-0.29,-0.28
89.86,2.10,2.37,2.12,2.40,-2.40,-2.49,-2.19,-0.29,-0.28,-0.27
90.76,2.10,2.37,2.12,2.39,-2.39,-2.50,-2.19,-0.28,-0.26,-0.26
91.66,2.10,2.34,2.12,2.37,-2.37,-2.50,-2.19,-0.27,-0.25,-0.24
92.58,2.10,2.35,2.12,2.36,-2.36,-2.51,-2.20,-0.25,-0.24,-0.25
93.51,2.10,2.33,2.11,2.34,-2.34,-2.52,-2.20,-0.24,-0.23,-0.22
94.44,2.10,2.33,2.10,2.33,-2.33,-2.53,-2.21,-0.23,-0.23,-0.22
95.39,2.10,2.32,2.09,2.32,-2.32,-2.54,-2.22,-0.22,-0.23,-0.22
96.34,2.10,2.34,2.08,2.31,-2.31,-2.55,-2.23,-0.21,-0.23,-0.24
97.30,2.10,2.34,2.07,2.30,-2.30,-2.56,-2.24,-0.19,-0.23,-0.24
98.28,2.10,2.35,2.04,2.28,-2.28,-2.58,-2.25,-0.17,-0.24,-0.24
99.26,2.04,2.30,2.00,2.25,-2.25,-2.59,-2.27,-0.21,-0.25,-0.25
100.25,1.87,2.14,1.96,2.23,-2.23,-2.60,-2.28,-0.35,-0.26,-0.26
101.25,1.87,2.16,1.91,2.19,-2.19,-2.61,-2.30,-0.32,-0.28,-0.28
102.27,1.87,2.18,1.86,2.16,-2.16,-2.62,-2.32,-0.29,-0.30,-0.30
103.29,1.87,2.20,1.80,2.13,-2.13,-2.64,-2.33,-0.26,-0.33,-0.33
104.32,1.82,2.17,1.74,2.10,-2.10,-2.65,-2.35,-0.28,-0.36,-0.35
105.37,1.71,2.08,1.68,2.08,-2.08,-2.66,-2.37,-0.38,-0.40,-0.38
106.42,1.64,2.06,1.63,2.06,-2.06,-2.67,-2.39,-0.42,-0.44,-0.42
107.48,1.54,2.01,1.58,2.06,-2.06,-2.69,-2.41,-0.51,-0.48,-0.47
108.56,1.42,1.95,1.53,2.06,-2.06,-2.70,-2.43,-0.63,-0.53,-0.53
109.64,1.41,1.99,1.49,2.07,-2.07,-2.71,-2.45,-0.66,-0.58,-0.58
110.74,1.41,2.04,1.47,2.10,-2.10,-2.72,-2.47,-0.68,-0.63,-0.63
111.85,1.41,2.09,1.44,2.13,-2.13,-2.74,-2.49,-0.71,-0.69,-0.67
112.97,1.41,2.16,1.42,2.16,-2.16,-2.75,-2.51,-0.74,-0.74,-0.74
114.10,1.41,2.21,1.40,2.19,-2.19,-2.76,-2.53,-0.78,-0.79,-0.79
115.24,1.41,2.26,1.39,2.24,-2.24,-2.77,-2.55,-0.82,-0.84,-0.85
116.39,1.41,2.32,1.40,2.29,-2.29,-2.78,-2.56,-0.88,-0.89,-0.91
117.55,1.41,2.37,1.41,2.35,-2.35,-2.79,-2.58,-0.93,-0.94,-0.96
118.73,1.41,2.42,1.42,2.40,-2.40,-2.81,-2.59,-0.98,-0.98,-1.00
119.92,1.41,2.44,1.42,2.44,-2.44,-2.82,-2.60,-1.02,-1.02,-1.03
121.12,1.41,2.48,1.42,2.47,-2.47,-2.83,-2.61,-1.05,-1.05,-1.07
122.33,1.41,2.51,1.41,2.48,-2.48,-2.84,-2.62,-1.07,-1.08,-1.09
123.55,1.41,2.51,1.39,2.49,-2.49,-2.85,-2.62,-1.08,-1.10,-1.10
124.79,1.41,2.54,1.37,2.50,-2.50,-2.86,-2.63,-1.08,-1.13,-1.12
126.03,1.41,2.55,1.35,2.50,-2.50,-2.87,-2.63,-1.08,-1.14,-1.14
127.29,1.41,2.57,1.33,2.49,-2.49,-2.88,-2.63,-1.08,-1.16,-1.15
128.57,1.36,2.54,1.31,2.49,-2.49,-2.89,-2.62,-1.12,-1.18,-1.18
129.85,1.20,2.40,1.29,2.48,-2.48,-2.89,-2.62,-1.28,-1.20,-1.19
131.15,1.18,2.39,1.26,2.48,-2.48,-2.90,-2.61,-1.29,-1.21,-1.20
132.46,1.18,2.41,1.24,2.47,-2.47,-2.91,-2.61,-1.29,-1.23,-1.23
133.79,1.18,2.42,1.23,2.48,-2.48,-2.92,-2.60,-1.29,-1.25,-1.24
135.12,1.18,2.46,1.22,2.48,-2.48,-2.92,-2.59,-1.30,-1.26,-1.27
136.48,1.18,2.47,1.21,2.49,-2.49,-2.93,-2.58,-1.30,-1.28,-1.28
137.84,1.18,2.49,1.19,2.49,-2.49,-2.94,-2.56,-1.31,-1.30,-1.30
139.22,1.18,2.53,1.18,2.50,-2.50,-2.94,-2.55,-1.32,-1.32,-1.34
140.61,1.18,2.56,1.16,2.51,-2.51,-2.95,-2.53,-1.32,-1.35,-1.37
142.02,1.18,2.56,1.15,2.52,-2.52,-2.95,-2.52,-1.34,-1.38,-1.38
143.44,1.18,2.59,1.14,2.55,-2.55,-2.96,-2.50,-1.36,-1.41,-1.41
144.87,1.18,2.62,1.13,2.57,-2.57,-2.96,-2.49,-1.39,-1.45,-1.43
146.32,1.18,2.66,1.11,2.60,-2.60,-2.96,-2.47,-1.42,-1.49,-1.47
147.78,1.13,2.63,1.10,2.64,-2.64,-2.97,-2.46,-1.50,-1.53,-1.50
149.26,1.02,2.58,1.08,2.67,-2.67,-2.97,-2.44,-1.64,-1.58,-1.55
150.75,0.96,2.58,1.06,2.70,-2.70,-2.97,-2.43,-1.73,-1.64,-1.62
152.26,0.96,2.64,1.03,2.73,-2.73,-2.97,-2.42,-1.76,-1.69,-1.67
153.78,0.96,2.70,1.00,2.76,-2.76,-2.97,-2.41,-1.79,-1.75,-1.74
155.32,0.96,2.78,0.97,2.78,-2.78,-2.97,-2.39,-1.82,-1.81,-1.82
156.88,0.96,2.85,0.94,2.81,-2.81,-2.97,-2.38,-1.85,-1.87,-1.88
158.44,0.96,2.91,0.91,2.84,-2.84,-2.97,-2.38,-1.87,-1.93,-1.94
160.03,0.96,2.97,0.88,2.86,-2.86,-2.97,-2.37,-1.90,-1.98,-2.01
161.63,0.96,3.02,0.86,2.89,-2.89,-2.96,-2.36,-1.93,-2.03,-2.06
163.24,0.82,2.92,0.84,2.92,-2.92,-2.96,-2.36,-2.09,-2.07,-2.10
164.88,0.73,2.86,0.83,2.94,-2.94,-2.96,-2.36,-2.21,-2.11,-2.13
166.53,0.73,2.89,0.82,2.95,-2.95,-2.95,-2.36,-2.22,-2.13,-2.16
168.19,0.73,2.91,0.79,2.94,-2.94,-2.95,-2.36,-2.21,-2.15,-2.17
169.87,0.73,2.92,0.77,2.93,-2.93,-2.94,-2.36,-2.19,-2.16,-2.18
171.57,0.73,2.91,0.74,2.90,-2.90,-2.93,-2.37,-2.16,-2.16,-2.18
173.29,0.73,2.90,0.71,2.87,-2.87,-2.93,-2.37,-2.13,-2.16,-2.17
175.02,0.73,2.88,0.68,2.83,-2.83,-2.92,-2.38,-2.10,-2.15,-2.14
176.77,0.73,2.87,0.65,2.80,-2.80,-2.91,-2.39,-2.07,-2.15,-2.14
178.54,0.73,2.86,0.63,2.77,-2.77,-2.90,-2.41,-2.03,-2.14,-2.13
180.32,0.65,2.76,0.62,2.75,-2.75,-2.89,-2.42,-2.10,-2.13,-2.11
182.13,0.55,2.65,0.62,2.74,-2.74,-2.88,-2.44,-2.18,-2.12,-2.10
183.95,0.50,2.59,0.60,2.72,-2.72,-2.87,-2.46,-2.21,-2.12,-2.09
185.79,0.50,2.60,0.58,2.69,-2.69,-2.86,-2.48,-2.19,-2.11,-2.09
187.65,0.50,2.61,0.55,2.67,-2.67,-2.84,-2.50,-2.16,-2.12,-2.11
189.52,0.50,2.62,0.52,2.64,-2.64,-2.83,-2.52,-2.14,-2.12,-2.12
191.42,0.50,2.64,0.49,2.62,-2.62,-2.81,-2.55,-2.11,-2.13,-2.13
193.33,0.50,2.65,0.46,2.60,-2.60,-2.80,-2.57,-2.10,-2.14,-2.14
195.27,0.50,2.65,0.44,2.59,-2.59,-2.78,-2.60,-2.08,-2.15,-2.15
197.22,0.50,2.66,0.41,2.57,-2.57,-2.77,-2.63,-2.06,-2.16,-2.16
199.19,0.49,2.68,0.38,2.55,-2.55,-2.75,-2.66,-2.06,-2.17,-2.19
201.18,0.36,2.55,0.36,2.55,-2.55,-2.73,-2.69,-2.18,-2.19,-2.19
203.19,0.27,2.47,0.34,2.54,-2.54,-2.71,-2.72,-2.27,-2.20,-2.20
205.23,0.27,2.49,0.32,2.54,-2.54,-2.69,-2.75,-2.26,-2.21,-2.22
207.28,0.27,2.49,0.29,2.52,-2.52,-2.67,-2.78,-2.25,-2.23,-2.22
209.35,0.27,2.51,0.28,2.51,-2.51,-2.65,-2.81,-2.24,-2.24,-2.24
211.44,0.27,2.53,0.28,2.52,-2.52,-2.63,-2.84,-2.25,-2.25,-2.26
213.56,0.27,2.53,0.29,2.55,-2.55,-2.61,-2.87,-2.27,-2.25,-2.25
215.69,0.27,2.53,0.32,2.59,-2.59,-2.58,-2.90,-2.31,-2.26,-2.25
217.85,0.27,2.55,0.36,2.64,-2.64,-2.56,-2.93,-2.36,-2.27,-2.27
220.03,0.36,2.64,0.43,2.71,-2.71,-2.53,-2.96,-2.34,-2.28,-2.28
222.23,0.46,2.76,0.50,2.78,-2.78,-2.51,-2.98,-2.32,-2.29,-2.30
224.45,0.50,2.80,0.57,2.86,-2.86,-2.48,-3.00,-2.36,-2.29,-2.29
226.70,0.50,2.79,0.64,2.93,-2.93,-2.45,-3.02,-2.43,-2.29,-2.29
228.96,0.66,2.96,0.70,3.00,-3.00,-2.42,-3.03,-2.34,-2.30,-2.30
231.25,0.89,3.19,0.76,3.06,-3.06,-2.39,-3.04,-2.17,-2.30,-2.29
233.57,0.96,3.26,0.81,3.11,-3.11,-2.36,-3.05,-2.15,-2.30,-2.30
235.90,0.96,3.27,0.85,3.15,-3.15,-2.33,-3.05,-2.18,-2.30,-2.31
238.26,0.96,3.27,0.88,3.18,-3.18,-2.30,-3.05,-2.21,-2.29,-2.30
240.64,0.96,3.26,0.89,3.18,-3.18,-2.27,-3.04,-2.22,-2.29,-2.30
243.05,0.95,3.24,0.88,3.16,-3.16,-2.23,-3.02,-2.21,-2.28,-2.28
245.48,0.79,3.07,0.84,3.12,-3.12,-2.20,-3.00,-2.32,-2.28,-2.28
247.93,0.73,3.00,0.80,3.07,-3.07,-2.16,-2.98,-2.34,-2.27,-2.26
250.41,0.73,3.00,0.75,3.01,-3.01,-2.12,-2.95,-2.27,-2.26,-2.27
252.92,0.68,2.94,0.68,2.93,-2.93,-2.09,-2.91,-2.24,-2.25,-2.25
255.45,0.53,2.76,0.59,2.83,-2.83,-2.05,-2.87,-2.29,-2.24,-2.23
258.00,0.50,2.72,0.49,2.72,-2.72,-2.01,-2.82,-2.21,-2.23,-2.22
260.58,0.36,2.58,0.39,2.60,-2.60,-1.97,-2.76,-2.23,-2.21,-2.21
263.19,0.27,2.47,0.28,2.48,-2.48,-1.93,-2.70,-2.20,-2.20,-2.20
265.82,0.07,2.27,0.17,2.35,-2.35,-1.89,-2.64,-2.28,-2.18,-2.19
268.48,0.04,2.21,0.05,2.22,-2.22,-1.84,-2.57,-2.17,-2.16,-2.17
271.16,0.04,2.19,-0.07,2.08,-2.08,-1.80,-2.49,-2.03,-2.14,-2.15
273.87,-0.04,2.10,-0.19,1.94,-1.94,-1.75,-2.41,-1.97,-2.12,-2.13
276.61,-0.30,1.80,-0.31,1.79,-1.79,-1.71,-2.32,-2.08,-2.10,-2.10
279.38,-0.40,1.68,-0.44,1.64,-1.64,-1.66,-2.23,-2.03,-2.07,-2.08
282.17,-0.58,1.48,-0.54,1.51,-1.51,-1.61,-2.14,-2.08,-2.05,-2.05
284.99,-0.69,1.34,-0.64,1.38,-1.38,-1.56,-2.05,-2.07,-2.02,-2.02
287.84,-0.86,1.14,-0.73,1.26,-1.26,-1.51,-1.95,-2.11,-1.99,-2.00
290.72,-0.87,1.09,-0.82,1.14,-1.14,-1.46,-1.84,-2.01,-1.96,-1.96
293.63,-0.98,0.96,-0.90,1.03,-1.03,-1.41,-1.74,-2.01,-1.93,-1.93
296.57,-1.08,0.83,-0.98,0.93,-0.93,-1.36,-1.63,-2.00,-1.91,-1.91
299.53,-1.09,0.79,-1.05,0.83,-0.83,-1.30,-1.52,-1.92,-1.88,-1.88
302.53,-1.09,0.77,-1.11,0.75,-0.75,-1.25,-1.41,-1.83,-1.86,-1.86
305.55,-1.09,0.74,-1.15,0.68,-0.68,-1.19,-1.30,-1.77,-1.84,-1.82
308.61,-1.09,0.72,-1.18,0.63,-0.63,-1.13,-1.19,-1.72,-1.82,-1.80
311.69,-1.09,0.70,-1.21,0.59,-0.59,-1.07,-1.07,-1.68,-1.80,-1.79
314.81,-1.24,0.52,-1.22,0.56,-0.56,-1.01,-0.96,-1.80,-1.78,-1.76
317.96,-1.31,0.45,-1.23,0.54,-0.54,-0.95,-0.84,-1.84,-1.77,-1.76
321.14,-1.32,0.45,-1.24,0.52,-0.52,-0.89,-0.72,-1.83,-1.76,-1.76
324.35,-1.32,0.44,-1.26,0.49,-0.49,-0.83,-0.60,-1.81,-1.75,-1.75
327.59,-1.32,0.43,-1.27,0.47,-0.47,-0.76,-0.48,-1.78,-1.74,-1.75
330.87,-1.32,0.42,-1.29,0.43,-0.43,-0.70,-0.37,-1.75,-1.73,-1.74
334.18,-1.32,0.41,-1.32,0.40,-0.40,-0.63,-0.25,-1.71,-1.72,-1.73
337.52,-1.32,0.40,-1.35,0.35,-0.35,-0.56,-0.13,-1.67,-1.70,-1.72
340.90,-1.32,0.38,-1.38,0.31,-0.31,-0.49,-0.00,-1.62,-1.69,-1.69
344.30,-1.32,0.37,-1.42,0.26,-0.26,-0.42,0.12,-1.57,-1.67,-1.68
347.75,-1.38,0.29,-1.46,0.20,-0.20,-0.35,0.24,-1.57,-1.66,-1.66
351.23,-1.51,0.13,-1.50,0.13,-0.13,-0.28,0.36,-1.64,-1.64,-1.64
354.74,-1.55,0.07,-1.56,0.05,-0.05,-0.21,0.48,-1.59,-1.61,-1.62
358.28,-1.66,-0.07,-1.63,-0.04,0.04,-0.13,0.60,-1.61,-1.59,-1.59
361.87,-1.75,-0.18,-1.70,-0.13,0.13,-0.05,0.73,-1.61,-1.57,-1.57
365.49,-1.78,-0.24,-1.77,-0.23,0.23,0.02,0.85,-1.55,-1.54,-1.54
369.14,-1.80,-0.27,-1.84,-0.32,0.32,0.10,0.97,-1.47,-1.52,-1.52
372.83,-1.95,-0.45,-1.92,-0.42,0.42,0.18,1.10,-1.52,-1.50,-1.49
376.56,-2.01,-0.53,-1.99,-0.51,0.51,0.27,1.22,-1.49,-1.48,-1.47
380.33,-2.10,-0.65,-2.06,-0.60,0.60,0.35,1.35,-1.50,-1.46,-1.44
384.13,-2.21,-0.78,-2.12,-0.68,0.68,0.43,1.47,-1.52,-1.44,-1.42
387.97,-2.23,-0.81,-2.18,-0.76,0.76,0.52,1.60,-1.47,-1.42,-1.42
391.85,-2.23,-0.82,-2.23,-0.83,0.83,0.61,1.72,-1.40,-1.41,-1.41
395.77,-2.23,-0.83,-2.29,-0.89,0.89,0.69,1.84,-1.33,-1.40,-1.40
399.73,-2.30,-0.91,-2.34,-0.95,0.95,0.78,1.97,-1.34,-1.39,-1.39
403.72,-2.42,-1.04,-2.39,-1.01,1.01,0.87,2.09,-1.40,-1.38,-1.38
407.76,-2.46,-1.09,-2.44,-1.07,1.07,0.96,2.21,-1.39,-1.37,-1.37
411.84,-2.46,-1.10,-2.48,-1.12,1.12,1.06,2.33,-1.34,-1.36,-1.36
415.96,-2.46,-1.10,-2.52,-1.16,1.16,1.15,2.45,-1.30,-1.36,-1.35
420.12,-2.64,-1.28,-2.57,-1.21,1.21,1.25,2.57,-1.42,-1.36,-1.35
424.32,-2.69,-1.33,-2.62,-1.26,1.26,1.34,2.69,-1.42,-1.35,-1.35
428.56,-2.69,-1.33,-2.67,-1.32,1.32,1.44,2.80,-1.36,-1.35,-1.35
432.85,-2.69,-1.33,-2.73,-1.38,1.38,1.54,2.91,-1.30,-1.35,-1.35
437.18,-2.80,-1.45,-2.80,-1.46,1.46,1.63,3.02,-1.34,-1.34,-1.34
441.55,-2.89,-1.55,-2.87,-1.54,1.54,1.73,3.12,-1.35,-1.34,-1.33
445.96,-2.92,-1.58,-2.94,-1.61,1.61,1.83,3.22,-1.30,-1.33,-1.33
450.42,-2.92,-1.59,-3.02,-1.70,1.70,1.93,3.31,-1.21,-1.32,-1.33
454.93,-3.10,-1.78,-3.12,-1.81,1.81,2.03,3.40,-1.29,-1.31,-1.32
459.48,-3.19,-1.88,-3.21,-1.91,1.91,2.13,3.48,-1.27,-1.30,-1.31
464.07,-3.34,-2.05,-3.30,-2.02,2.02,2.23,3.56,-1.32,-1.28,-1.29
468.71,-3.37,-2.10,-3.39,-2.12,2.12,2.33,3.63,-1.24,-1.27,-1.27
473.40,-3.51,-2.25,-3.49,-2.24,2.24,2.43,3.69,-1.27,-1.25,-1.26
478.13,-3.59,-2.36,-3.59,-2.36,2.36,2.53,3.75,-1.22,-1.22,-1.23
482.91,-3.78,-2.57,-3.69,-2.48,2.48,2.63,3.79,-1.29,-1.20,-1.21
487.74,-3.83,-2.65,-3.78,-2.61,2.61,2.73,3.83,-1.22,-1.18,-1.18
