frequency,raw
20.00,6.96
20.20,6.94
20.40,6.91
20.61,6.89
20.81,6.86
21.02,6.83
21.23,6.81
21.44,6.78
21.66,6.76
21.87,6.74
22.09,6.72
22.31,6.71
22.54,6.69
22.76,6.68
22.99,6.67
23.22,6.66
23.45,6.65
23.69,6.64
23.92,6.62
24.16,6.60
24.40,6.58
24.65,6.55
24.89,6.53
25.14,6.51
25.39,6.49
25.65,6.48
25.91,6.47
26.16,6.48
26.43,6.51
26.69,6.57
26.96,6.63
27.23,6.70
27.50,6.78
27.77,6.83
28.05,6.86
28.33,6.84
28.62,6.79
28.90,6.69
29.19,6.57
29.48,6.42
29.78,6.27
30.08,6.13
30.38,6.01
30.68,5.91
30.99,5.85
31.30,5.80
31.61,5.76
31.93,5.74
32.24,5.72
32.57,5.70
32.89,5.67
33.22,5.64
33.55,5.61
33.89,5.59
34.23,5.56
34.57,5.53
34.92,5.51
35.27,5.48
35.62,5.46
35.97,5.43
36.33,5.39
36.70,5.35
37.06,5.31
37.43,5.26
37.81,5.20
38.19,5.14
38.57,5.08
38.95,5.03
39.34,4.98
39.74,4.93
40.14,4.89
40.54,4.85
40.94,4.83
41.35,4.81
41.76,4.80
42.18,4.78
42.60,4.77
43.03,4.74
43.46,4.69
43.90,4.63
44.33,4.55
44.78,4.47
45.23,4.39
45.68,4.33
46.13,4.27
46.60,4.23
47.06,4.20
47.53,4.17
48.01,4.14
48.49,4.11
48.97,4.08
49.46,4.04
49.96,4.00
50.46,3.95
50.96,3.91
51.47,3.87
51.99,3.82
52.51,3.78
53.03,3.74
53.56,3.70
54.10,3.67
54.64,3.64
55.18,3.63
55.74,3.62
56.29,3.60
56.86,3.57
57.42,3.54
58.00,3.50
58.58,3.47
59.16,3.43
59.76,3.38
60.35,3.33
60.96,3.27
61.57,3.20
62.18,3.12
62.80,3.05
63.43,2.98
64.07,2.92
64.71,2.87
65.35,2.83
66.01,2.79
66.67,2.77
67.33,2.75
68.01,2.74
68.69,2.73
69.37,2.70
70.07,2.66
70.77,2.60
71.48,2.52
72.19,2.43
72.91,2.34
73.64,2.26
74.38,2.18
75.12,2.12
75.87,2.07
76.63,2.02
77.40,1.99
78.17,1.98
78.95,1.98
79.74,2.02
80.54,2.09
81.35,2.18
82.16,2.25
82.98,2.30
83.81,2.32
84.65,2.21
85.50,2.06
86.35,1.89
87.22,1.74
88.09,1.62
88.97,1.54
89.86,1.47
90.76,1.43
91.66,1.40
92.58,1.37
93.51,1.35
94.44,1.33
95.39,1.30
96.34,1.27
97.30,1.22
98.28,1.16
99.26,1.09
100.25,1.02
101.25,0.96
102.27,0.90
103.29,0.85
104.32,0.82
105.37,0.78
106.42,0.74
107.48,0.69
108.56,0.64
109.64,0.59
110.74,0.55
111.85,0.52
112.97,0.51
114.10,0.50
115.24,0.54
116.39,0.62
117.55,0.71
118.73,0.74
119.92,0.74
121.12,0.69
122.33,0.59
123.55,0.44
124.79,0.29
126.03,0.16
127.29,0.06
128.57,-0.00
129.85,-0.05
131.15,-0.09
132.46,-0.13
133.79,-0.17
135.12,-0.20
136.48,-0.24
137.84,-0.28
139.22,-0.33
140.61,-0.38
142.02,-0.44
143.44,-0.49
144.87,-0.53
146.32,-0.57
147.78,-0.59
149.26,-0.62
150.75,-0.64
152.26,-0.67
153.78,-0.69
155.32,-0.72
156.88,-0.75
158.44,-0.77
160.03,-0.79
161.63,-0.79
163.24,-0.80
164.88,-0.80
166.53,-0.80
168.19,-0.80
169.87,-0.80
171.57,-0.82
173.29,-0.84
175.02,-0.86
176.77,-0.89
178.54,-0.90
180.32,-0.90
182.13,-0.89
183.95,-0.85
185.79,-0.79
187.65,-0.72
189.52,-0.65
191.42,-0.59
193.33,-0.55
195.27,-0.55
197.22,-0.59
199.19,-0.66
201.18,-0.74
203.19,-0.83
205.23,-0.91
207.28,-0.98
209.35,-1.03
211.44,-1.08
213.56,-1.13
215.69,-1.16
217.85,-1.20
220.03,-1.22
222.23,-1.23
224.45,-1.25
226.70,-1.26
228.96,-1.28
231.25,-1.31
233.57,-1.34
235.90,-1.37
238.26,-1.40
240.64,-1.42
243.05,-1.44
245.48,-1.45
247.93,-1.46
250.41,-1.46
252.92,-1.47
255.45,-1.48
258.00,-1.48
260.58,-1.49
263.19,-1.50
265.82,-1.51
268.48,-1.53
271.16,-1.55
273.87,-1.58
276.61,-1.61
279.38,-1.63
282.17,-1.65
284.99,-1.67
287.84,-1.68
290.72,-1.69
293.63,-1.70
296.57,-1.72
299.53,-1.73
302.53,-1.74
305.55,-1.74
308.61,-1.74
311.69,-1.75
314.81,-1.75
317.96,-1.75
321.14,-1.76
324.35,-1.77
327.59,-1.78
330.87,-1.78
334.18,-1.78
337.52,-1.78
340.90,-1.78
344.30,-1.78
347.75,-1.79
351.23,-1.79
354.74,-1.80
358.28,-1.81
361.87,-1.82
365.49,-1.83
369.14,-1.83
372.83,-1.83
376.56,-1.83
380.33,-1.83
384.13,-1.84
387.97,-1.84
391.85,-1.85
395.77,-1.86
399.73,-1.87
403.72,-1.88
407.76,-1.88
411.84,-1.88
415.96,-1.88
420.12,-1.87
424.32,-1.87
428.56,-1.87
432.85,-1.88
437.18,-1.88
441.55,-1.89
445.96,-1.90
450.42,-1.92
454.93,-1.92
459.48,-1.93
464.07,-1.94
468.71,-1.95
473.40,-1.95
478.13,-1.96
482.91,-1.97
487.74,-1.97
492.62,-1.97
497.55,-1.97
502.52,-1.96
507.55,-1.96
512.62,-1.96
517.75,-1.96
522.93,-1.96
528.16,-1.96
533.44,-1.95
538.77,-1.94
544.16,-1.93
549.60,-1.91
555.10,-1.89
560.65,-1.87
566.25,-1.86
571.92,-1.86
577.64,-1.86
583.41,-1.85
589.25,-1.85
595.14,-1.85
601.09,-1.84
607.10,-1.84
613.17,-1.83
619.30,-1.81
625.50,-1.80
631.75,-1.78
638.07,-1.77
644.45,-1.75
650.89,-1.73
657.40,-1.72
663.98,-1.70
670.62,-1.68
677.32,-1.67
684.10,-1.65
690.94,-1.64
697.85,-1.62
704.83,-1.60
711.87,-1.57
718.99,-1.54
726.18,-1.51
733.44,-1.48
740.78,-1.46
748.19,-1.45
755.67,-1.43
763.23,-1.41
770.86,-1.38
778.57,-1.35
786.35,-1.32
794.22,-1.29
802.16,-1.25
810.18,-1.20
818.28,-1.16
826.46,-1.11
834.73,-1.05
843.08,-1.00
851.51,-0.95
860.02,-0.90
868.62,-0.86
877.31,-0.81
886.08,-0.77
894.94,-0.73
903.89,-0.68
912.93,-0.63
922.06,-0.57
931.28,-0.51
940.59,-0.45
950.00,-0.38
959.50,-0.31
969.09,-0.24
978.78,-0.17
988.57,-0.09
998.46,-0.01
1008.44,0.06
1018.53,0.14
1028.71,0.21
1039.00,0.28
1049.39,0.35
1059.88,0.43
1070.48,0.50
1081.19,0.58
1092.00,0.66
1102.92,0.73
1113.95,0.81
1125.09,0.89
1136.34,0.97
1147.70,1.05
1159.18,1.12
1170.77,1.19
1182.48,1.25
1194.30,1.33
1206.25,1.40
1218.31,1.48
1230.49,1.55
1242.80,1.62
1255.22,1.69
1267.78,1.76
1280.45,1.83
1293.26,1.90
1306.19,1.98
1319.25,2.05
1332.45,2.12
1345.77,2.20
1359.23,2.28
1372.82,2.36
1386.55,2.43
1400.41,2.50
1414.42,2.57
1428.56,2.65
1442.85,2.72
1457.28,2.79
1471.85,2.86
1486.57,2.92
1501.43,2.99
1516.45,3.05
1531.61,3.10
1546.93,3.16
1562.40,3.22
1578.02,3.29
1593.80,3.36
1609.74,3.44
1625.84,3.52
1642.10,3.61
1658.52,3.71
1675.10,3.81
1691.85,3.91
1708.77,4.01
1725.86,4.11
1743.12,4.22
1760.55,4.33
1778.15,4.44
1795.94,4.53
1813.90,4.63
1832.03,4.72
1850.36,4.81
1868.86,4.91
1887.55,5.00
1906.42,5.10
1925.49,5.21
1944.74,5.31
1964.19,5.41
1983.83,5.51
2003.67,5.62
2023.71,5.72
2043.94,5.83
2064.38,5.94
2085.03,6.06
2105.88,6.15
2126.94,6.23
2148.20,6.27
2169.69,6.28
2191.38,6.26
2213.30,6.20
2235.43,6.13
2257.78,6.07
2280.36,6.03
2303.17,5.98
2326.20,5.94
2349.46,5.89
2372.95,5.81
2396.68,5.72
2420.65,5.60
2444.86,5.47
2469.31,5.33
2494.00,5.19
2518.94,5.10
2544.13,5.04
2569.57,5.05
2595.27,5.09
2621.22,5.15
2647.43,5.24
2673.90,5.31
2700.64,5.38
2727.65,5.43
2754.93,5.47
2782.48,5.50
2810.30,5.52
2838.40,5.54
2866.79,5.55
2895.46,5.56
2924.41,5.56
2953.65,5.57
2983.19,5.58
3013.02,5.59
3043.15,5.60
3073.58,5.62
3104.32,5.64
3135.36,5.66
3166.72,5.68
3198.38,5.71
3230.37,5.74
3262.67,5.79
3295.30,5.85
3328.25,5.92
3361.53,6.01
3395.15,6.11
3429.10,6.20
3463.39,6.24
3498.03,6.24
3533.01,6.13
3568.34,5.91
3604.02,5.60
3640.06,5.27
3676.46,5.10
3713.22,5.02
3750.36,4.99
3787.86,4.84
3825.74,4.65
3864.00,4.24
3902.64,3.42
3941.66,2.52
3981.08,1.74
4020.89,1.25
4061.10,1.01
4101.71,1.10
4142.73,1.29
4184.15,1.57
4226.00,1.79
4268.26,1.97
4310.94,2.09
4354.05,2.20
4397.59,2.32
4441.56,2.44
4485.98,2.58
4530.84,2.71
4576.15,2.85
4621.91,3.00
4668.13,3.16
4714.81,3.30
4761.96,3.42
4809.58,3.51
4857.67,3.52
4906.25,3.42
4955.31,3.26
5004.87,3.05
5054.91,2.81
5105.46,2.58
5156.52,2.37
5208.08,2.26
5260.16,2.21
5312.77,2.19
5365.89,2.23
5419.55,2.27
5473.75,2.27
5528.49,2.21
5583.77,2.11
5639.61,2.00
5696.00,1.88
5752.96,1.84
5810.49,1.82
5868.60,1.95
5927.28,2.11
5986.56,2.31
6046.42,2.52
6106.89,2.72
6167.96,2.85
6229.64,2.92
6291.93,2.97
6354.85,3.06
6418.40,3.15
6482.58,3.24
6547.41,3.28
6612.88,3.30
6679.01,3.34
6745.80,3.45
6813.26,3.61
6881.39,3.87
6950.21,4.27
7019.71,4.74
7089.91,5.26
7160.81,5.83
7232.41,6.41
7304.74,6.97
7377.79,7.49
7451.56,7.95
7526.08,8.36
7601.34,8.69
7677.35,9.07
7754.13,9.48
7831.67,10.01
7909.98,10.44
7989.08,10.70
8068.98,10.68
8149.67,10.49
8231.16,10.11
8313.47,9.53
8396.61,8.86
8480.57,8.08
8565.38,7.28
8651.03,6.49
8737.54,5.77
8824.92,5.14
8913.17,4.59
9002.30,4.06
9092.32,3.58
9183.25,3.05
9275.08,2.49
9367.83,1.87
9461.51,1.31
9556.12,0.81
9651.68,0.40
9748.20,0.06
9845.68,-0.10
9944.14,-0.21
10043.58,-0.27
10144.02,-0.31
10245.46,-0.32
10347.91,-0.30
10451.39,-0.26
10555.91,-0.20
10661.46,-0.14
10768.08,-0.09
10875.76,-0.07
10984.52,-0.12
11094.36,-0.21
11205.31,-0.36
11317.36,-0.60
11430.53,-0.86
11544.84,-1.14
11660.29,-1.43
11776.89,-1.70
11894.66,-1.80
12013.60,-1.87
12133.74,-1.80
12255.08,-1.53
12377.63,-1.13
12501.41,-0.65
12626.42,-0.13
12752.68,0.37
12880.21,0.82
13009.01,1.25
13139.10,1.68
13270.49,2.02
13403.20,2.33
13537.23,2.53
13672.60,2.65
13809.33,2.66
13947.42,2.49
14086.90,2.22
14227.77,1.89
14370.04,1.53
14513.74,1.15
14658.88,0.87
14805.47,0.63
14953.52,0.49
15103.06,0.49
15254.09,0.54
15406.63,0.68
15560.70,0.80
15716.30,0.92
15873.47,0.82
16032.20,0.61
16192.52,0.15
16354.45,-0.56
16517.99,-1.44
16683.17,-2.59
16850.01,-3.84
17018.51,-5.18
17188.69,-6.60
17360.58,-8.00
17534.18,-9.37
17709.53,-10.66
17886.62,-11.73
18065.49,-12.65
18246.14,-13.44
18428.60,-14.13
18612.89,-14.81
18799.02,-15.55
18987.01,-16.43
19176.88,-17.39
19368.65,-18.06
19562.33,-18.32
19757.96,-18.14
19955.54,-17.81
