frequency,raw
20.00,5.07
20.20,5.09
20.40,5.10
20.61,5.11
20.81,5.12
21.02,5.13
21.23,5.13
21.44,5.14
21.66,5.15
21.87,5.16
22.09,5.17
22.31,5.20
22.54,5.22
22.76,5.25
22.99,5.29
23.22,5.32
23.45,5.35
23.69,5.39
23.92,5.42
24.16,5.45
24.40,5.47
24.65,5.49
24.89,5.52
25.14,5.54
25.39,5.56
25.65,5.58
25.91,5.60
26.16,5.61
26.43,5.63
26.69,5.65
26.96,5.67
27.23,5.69
27.50,5.70
27.77,5.71
28.05,5.71
28.33,5.70
28.62,5.68
28.90,5.66
29.19,5.64
29.48,5.62
29.78,5.60
30.08,5.59
30.38,5.59
30.68,5.59
30.99,5.60
31.30,5.61
31.61,5.62
31.93,5.63
32.24,5.64
32.57,5.65
32.89,5.65
33.22,5.66
33.55,5.67
33.89,5.67
34.23,5.68
34.57,5.68
34.92,5.69
35.27,5.69
35.62,5.69
35.97,5.68
36.33,5.68
36.70,5.67
37.06,5.66
37.43,5.66
37.81,5.65
38.19,5.65
38.57,5.64
38.95,5.64
39.34,5.64
39.74,5.64
40.14,5.64
40.54,5.64
40.94,5.64
41.35,5.64
41.76,5.64
42.18,5.64
42.60,5.64
43.03,5.63
43.46,5.61
43.90,5.59
44.33,5.56
44.78,5.52
45.23,5.49
45.68,5.47
46.13,5.45
46.60,5.44
47.06,5.43
47.53,5.42
48.01,5.41
48.49,5.40
48.97,5.39
49.46,5.38
49.96,5.36
50.46,5.35
50.96,5.33
51.47,5.33
51.99,5.32
52.51,5.30
53.03,5.27
53.56,5.24
54.10,5.20
54.64,5.19
55.18,5.18
55.74,5.17
56.29,5.16
56.86,5.14
57.42,5.11
58.00,5.09
58.58,5.06
59.16,5.03
59.76,5.00
60.35,4.97
60.96,4.94
61.57,4.92
62.18,4.90
62.80,4.89
63.43,4.88
64.07,4.87
64.71,4.85
65.35,4.83
66.01,4.80
66.67,4.78
67.33,4.75
68.01,4.72
68.69,4.68
69.37,4.65
70.07,4.62
70.77,4.59
71.48,4.56
72.19,4.53
72.91,4.50
73.64,4.47
74.38,4.44
75.12,4.41
75.87,4.38
76.63,4.35
77.40,4.32
78.17,4.29
78.95,4.26
79.74,4.23
80.54,4.20
81.35,4.17
82.16,4.15
82.98,4.12
83.81,4.10
84.65,4.08
85.50,4.05
86.35,4.03
87.22,4.00
88.09,3.98
88.97,3.96
89.86,3.94
90.76,3.92
91.66,3.89
92.58,3.87
93.51,3.84
94.44,3.81
95.39,3.78
96.34,3.74
97.30,3.71
98.28,3.67
99.26,3.64
100.25,3.60
101.25,3.56
102.27,3.52
103.29,3.49
104.32,3.45
105.37,3.42
106.42,3.38
107.48,3.34
108.56,3.30
109.64,3.25
110.74,3.22
111.85,3.18
112.97,3.15
114.10,3.11
115.24,3.08
116.39,3.05
117.55,3.01
118.73,2.98
119.92,2.94
121.12,2.91
122.33,2.87
123.55,2.85
124.79,2.83
126.03,2.81
127.29,2.78
128.57,2.76
129.85,2.73
131.15,2.70
132.46,2.68
133.79,2.67
135.12,2.66
136.48,2.64
137.84,2.62
139.22,2.59
140.61,2.55
142.02,2.51
143.44,2.48
144.87,2.44
146.32,2.40
147.78,2.36
149.26,2.32
150.75,2.28
152.26,2.25
153.78,2.22
155.32,2.20
156.88,2.18
158.44,2.15
160.03,2.12
161.63,2.09
163.24,2.07
164.88,2.04
166.53,2.00
168.19,1.97
169.87,1.92
171.57,1.87
173.29,1.82
175.02,1.76
176.77,1.70
178.54,1.64
180.32,1.58
182.13,1.54
183.95,1.50
185.79,1.47
187.65,1.43
189.52,1.40
191.42,1.36
193.33,1.32
195.27,1.28
197.22,1.26
199.19,1.23
201.18,1.20
203.19,1.17
205.23,1.14
207.28,1.11
209.35,1.07
211.44,1.02
213.56,0.97
215.69,0.93
217.85,0.89
220.03,0.85
222.23,0.83
224.45,0.80
226.70,0.77
228.96,0.74
231.25,0.70
233.57,0.67
235.90,0.63
238.26,0.59
240.64,0.55
243.05,0.52
245.48,0.49
247.93,0.46
250.41,0.43
252.92,0.40
255.45,0.37
258.00,0.33
260.58,0.30
263.19,0.27
265.82,0.23
268.48,0.20
271.16,0.16
273.87,0.12
276.61,0.09
279.38,0.05
282.17,0.03
284.99,-0.00
287.84,-0.03
290.72,-0.05
293.63,-0.08
296.57,-0.11
299.53,-0.14
302.53,-0.18
305.55,-0.21
308.61,-0.23
311.69,-0.25
314.81,-0.27
317.96,-0.29
321.14,-0.32
324.35,-0.35
327.59,-0.38
330.87,-0.41
334.18,-0.44
337.52,-0.47
340.90,-0.50
344.30,-0.53
347.75,-0.56
351.23,-0.58
354.74,-0.60
358.28,-0.63
361.87,-0.65
365.49,-0.68
369.14,-0.70
372.83,-0.72
376.56,-0.74
380.33,-0.76
384.13,-0.77
387.97,-0.79
391.85,-0.80
395.77,-0.82
399.73,-0.84
403.72,-0.87
407.76,-0.89
411.84,-0.91
415.96,-0.92
420.12,-0.94
424.32,-0.96
428.56,-0.97
432.85,-0.99
437.18,-1.01
441.55,-1.03
445.96,-1.05
450.42,-1.07
454.93,-1.09
459.48,-1.10
464.07,-1.12
468.71,-1.14
473.40,-1.15
478.13,-1.17
482.91,-1.18
487.74,-1.19
492.62,-1.20
497.55,-1.22
502.52,-1.23
507.55,-1.25
512.62,-1.26
517.75,-1.28
522.93,-1.30
528.16,-1.31
533.44,-1.32
538.77,-1.33
544.16,-1.34
549.60,-1.34
555.10,-1.34
560.65,-1.33
566.25,-1.34
571.92,-1.34
577.64,-1.35
583.41,-1.36
589.25,-1.37
595.14,-1.38
601.09,-1.39
607.10,-1.39
613.17,-1.39
619.30,-1.39
625.50,-1.39
631.75,-1.39
638.07,-1.39
644.45,-1.39
650.89,-1.39
657.40,-1.39
663.98,-1.39
670.62,-1.39
677.32,-1.39
684.10,-1.38
690.94,-1.38
697.85,-1.38
704.83,-1.37
711.87,-1.36
718.99,-1.35
726.18,-1.33
733.44,-1.31
740.78,-1.30
748.19,-1.28
755.67,-1.27
763.23,-1.25
770.86,-1.23
778.57,-1.21
786.35,-1.18
794.22,-1.15
802.16,-1.13
810.18,-1.10
818.28,-1.07
826.46,-1.03
834.73,-0.99
843.08,-0.96
851.51,-0.92
860.02,-0.88
868.62,-0.84
877.31,-0.80
886.08,-0.75
894.94,-0.71
903.89,-0.65
912.93,-0.60
922.06,-0.54
931.28,-0.48
940.59,-0.42
950.00,-0.36
959.50,-0.30
969.09,-0.23
978.78,-0.16
988.57,-0.09
998.46,-0.01
1008.44,0.06
1018.53,0.14
1028.71,0.22
1039.00,0.29
1049.39,0.37
1059.88,0.45
1070.48,0.52
1081.19,0.58
1092.00,0.62
1102.92,0.65
1113.95,0.67
1125.09,0.71
1136.34,0.75
1147.70,0.80
1159.18,0.87
1170.77,0.94
1182.48,1.02
1194.30,1.11
1206.25,1.20
1218.31,1.29
1230.49,1.38
1242.80,1.47
1255.22,1.56
1267.78,1.65
1280.45,1.73
1293.26,1.80
1306.19,1.87
1319.25,1.94
1332.45,2.01
1345.77,2.08
1359.23,2.16
1372.82,2.23
1386.55,2.29
1400.41,2.36
1414.42,2.42
1428.56,2.49
1442.85,2.55
1457.28,2.62
1471.85,2.68
1486.57,2.74
1501.43,2.80
1516.45,2.85
1531.61,2.90
1546.93,2.95
1562.40,3.00
1578.02,3.05
1593.80,3.11
1609.74,3.17
1625.84,3.23
1642.10,3.31
1658.52,3.39
1675.10,3.47
1691.85,3.55
1708.77,3.63
1725.86,3.71
1743.12,3.78
1760.55,3.85
1778.15,3.93
1795.94,4.00
1813.90,4.06
1832.03,4.12
1850.36,4.18
1868.86,4.24
1887.55,4.30
1906.42,4.36
1925.49,4.41
1944.74,4.47
1964.19,4.52
1983.83,4.57
2003.67,4.62
2023.71,4.68
2043.94,4.74
2064.38,4.80
2085.03,4.86
2105.88,4.92
2126.94,4.98
2148.20,5.02
2169.69,5.06
2191.38,5.10
2213.30,5.14
2235.43,5.19
2257.78,5.26
2280.36,5.34
2303.17,5.45
2326.20,5.59
2349.46,5.75
2372.95,5.93
2396.68,6.12
2420.65,6.32
2444.86,6.51
2469.31,6.70
2494.00,6.87
2518.94,7.02
2544.13,7.17
2569.57,7.28
2595.27,7.38
2621.22,7.46
2647.43,7.52
2673.90,7.56
2700.64,7.60
2727.65,7.62
2754.93,7.64
2782.48,7.66
2810.30,7.67
2838.40,7.69
2866.79,7.70
2895.46,7.71
2924.41,7.71
2953.65,7.71
2983.19,7.70
3013.02,7.70
3043.15,7.69
3073.58,7.68
3104.32,7.67
3135.36,7.65
3166.72,7.63
3198.38,7.61
3230.37,7.57
3262.67,7.53
3295.30,7.49
3328.25,7.44
3361.53,7.38
3395.15,7.31
3429.10,7.25
3463.39,7.17
3498.03,7.10
3533.01,7.03
3568.34,6.95
3604.02,6.88
3640.06,6.80
3676.46,6.73
3713.22,6.66
3750.36,6.59
3787.86,6.53
3825.74,6.48
3864.00,6.43
3902.64,6.39
3941.66,6.36
3981.08,6.33
4020.89,6.31
4061.10,6.29
4101.71,6.26
4142.73,6.23
4184.15,6.20
4226.00,6.15
4268.26,6.10
4310.94,6.05
4354.05,5.99
4397.59,5.92
4441.56,5.86
4485.98,5.78
4530.84,5.71
4576.15,5.63
4621.91,5.55
4668.13,5.47
4714.81,5.40
4761.96,5.32
4809.58,5.24
4857.67,5.16
4906.25,5.07
4955.31,4.99
5004.87,4.90
5054.91,4.81
5105.46,4.72
5156.52,4.63
5208.08,4.54
5260.16,4.45
5312.77,4.36
5365.89,4.27
5419.55,4.19
5473.75,4.10
5528.49,4.02
5583.77,3.93
5639.61,3.85
5696.00,3.77
5752.96,3.70
5810.49,3.63
5868.60,3.56
5927.28,3.51
5986.56,3.46
6046.42,3.41
6106.89,3.37
6167.96,3.33
6229.64,3.29
6291.93,3.26
6354.85,3.23
6418.40,3.21
6482.58,3.19
6547.41,3.19
6612.88,3.20
6679.01,3.23
6745.80,3.28
6813.26,3.34
6881.39,3.42
6950.21,3.53
7019.71,3.65
7089.91,3.80
7160.81,3.99
7232.41,4.20
7304.74,4.43
7377.79,4.70
7451.56,4.99
7526.08,5.31
7601.34,5.64
7677.35,5.96
7754.13,6.28
7831.67,6.54
7909.98,6.74
7989.08,6.86
8068.98,6.81
8149.67,6.66
8231.16,6.37
8313.47,5.92
8396.61,5.39
8480.57,4.75
8565.38,4.04
8651.03,3.30
8737.54,2.55
8824.92,1.80
8913.17,1.06
9002.30,0.33
9092.32,-0.38
9183.25,-1.08
9275.08,-1.76
9367.83,-2.42
9461.51,-3.06
9556.12,-3.67
9651.68,-4.27
9748.20,-4.85
9845.68,-5.40
9944.14,-5.95
10043.58,-6.49
10144.02,-7.03
10245.46,-7.56
10347.91,-8.09
10451.39,-8.60
10555.91,-9.10
10661.46,-9.58
10768.08,-10.04
10875.76,-10.48
10984.52,-10.88
11094.36,-11.24
11205.31,-11.53
11317.36,-11.70
11430.53,-11.79
11544.84,-11.66
11660.29,-11.35
11776.89,-10.92
11894.66,-10.23
12013.60,-9.51
12133.74,-8.76
12255.08,-8.07
12377.63,-7.44
12501.41,-6.90
12626.42,-6.44
12752.68,-6.00
12880.21,-5.55
13009.01,-5.07
13139.10,-4.60
13270.49,-4.01
13403.20,-3.38
13537.23,-2.62
13672.60,-1.80
13809.33,-0.90
13947.42,0.10
14086.90,1.10
14227.77,2.10
14370.04,2.98
14513.74,3.70
14658.88,4.04
14805.47,4.21
14953.52,4.08
15103.06,3.66
15254.09,3.09
15406.63,2.31
15560.70,1.51
15716.30,0.67
15873.47,-0.15
16032.20,-0.96
16192.52,-1.78
16354.45,-2.60
16517.99,-3.44
16683.17,-4.32
16850.01,-5.25
17018.51,-6.22
17188.69,-7.27
17360.58,-8.31
17534.18,-9.33
17709.53,-10.29
17886.62,-11.20
18065.49,-12.04
18246.14,-12.79
18428.60,-13.25
18612.89,-13.57
18799.02,-13.81
18987.01,-14.03
19176.88,-14.31
19368.65,-14.63
19562.33,-15.05
19757.96,-15.62
19955.54,-16.52
