frequency,raw
20.00,7.23
20.20,7.25
20.40,7.26
20.61,7.28
20.81,7.29
21.02,7.30
21.23,7.31
21.44,7.32
21.66,7.33
21.87,7.35
22.09,7.37
22.31,7.39
22.54,7.42
22.76,7.45
22.99,7.48
23.22,7.51
23.45,7.53
23.69,7.56
23.92,7.58
24.16,7.60
24.40,7.61
24.65,7.62
24.89,7.63
25.14,7.64
25.39,7.64
25.65,7.65
25.91,7.65
26.16,7.65
26.43,7.65
26.69,7.65
26.96,7.65
27.23,7.66
27.50,7.66
27.77,7.66
28.05,7.66
28.33,7.65
28.62,7.65
28.90,7.64
29.19,7.63
29.48,7.63
29.78,7.63
30.08,7.63
30.38,7.64
30.68,7.64
30.99,7.64
31.30,7.64
31.61,7.64
31.93,7.64
32.24,7.63
32.57,7.63
32.89,7.62
33.22,7.61
33.55,7.60
33.89,7.59
34.23,7.57
34.57,7.56
34.92,7.53
35.27,7.51
35.62,7.49
35.97,7.48
36.33,7.48
36.70,7.49
37.06,7.50
37.43,7.51
37.81,7.50
38.19,7.48
38.57,7.45
38.95,7.42
39.34,7.39
39.74,7.37
40.14,7.34
40.54,7.32
40.94,7.30
41.35,7.29
41.76,7.28
42.18,7.27
42.60,7.26
43.03,7.24
43.46,7.23
43.90,7.23
44.33,7.23
44.78,7.22
45.23,7.19
45.68,7.14
46.13,7.08
46.60,7.04
47.06,7.01
47.53,6.98
48.01,6.94
48.49,6.89
48.97,6.85
49.46,6.81
49.96,6.77
50.46,6.74
50.96,6.71
51.47,6.70
51.99,6.69
52.51,6.67
53.03,6.64
53.56,6.59
54.10,6.54
54.64,6.51
55.18,6.48
55.74,6.45
56.29,6.42
56.86,6.38
57.42,6.34
58.00,6.30
58.58,6.26
59.16,6.22
59.76,6.18
60.35,6.14
60.96,6.10
61.57,6.05
62.18,6.01
62.80,5.98
63.43,5.94
64.07,5.90
64.71,5.86
65.35,5.82
66.01,5.78
66.67,5.74
67.33,5.69
68.01,5.65
68.69,5.60
69.37,5.56
70.07,5.51
70.77,5.47
71.48,5.41
72.19,5.36
72.91,5.30
73.64,5.26
74.38,5.22
75.12,5.18
75.87,5.13
76.63,5.08
77.40,5.04
78.17,4.99
78.95,4.93
79.74,4.88
80.54,4.83
81.35,4.78
82.16,4.72
82.98,4.67
83.81,4.62
84.65,4.57
85.50,4.52
86.35,4.47
87.22,4.42
88.09,4.37
88.97,4.32
89.86,4.26
90.76,4.21
91.66,4.15
92.58,4.10
93.51,4.04
94.44,3.99
95.39,3.94
96.34,3.88
97.30,3.83
98.28,3.78
99.26,3.72
100.25,3.66
101.25,3.60
102.27,3.54
103.29,3.49
104.32,3.44
105.37,3.39
106.42,3.34
107.48,3.28
108.56,3.22
109.64,3.16
110.74,3.09
111.85,3.03
112.97,2.98
114.10,2.93
115.24,2.88
116.39,2.83
117.55,2.78
118.73,2.69
119.92,2.61
121.12,2.56
122.33,2.53
123.55,2.47
124.79,2.40
126.03,2.34
127.29,2.29
128.57,2.24
129.85,2.18
131.15,2.13
132.46,2.07
133.79,2.02
135.12,1.98
136.48,1.93
137.84,1.87
139.22,1.79
140.61,1.72
142.02,1.66
143.44,1.59
144.87,1.54
146.32,1.48
147.78,1.42
149.26,1.35
150.75,1.29
152.26,1.23
153.78,1.18
155.32,1.14
156.88,1.09
158.44,1.04
160.03,0.98
161.63,0.92
163.24,0.87
164.88,0.82
166.53,0.79
168.19,0.76
169.87,0.75
171.57,0.74
173.29,0.74
175.02,0.74
176.77,0.74
178.54,0.73
180.32,0.71
182.13,0.69
183.95,0.66
185.79,0.62
187.65,0.58
189.52,0.53
191.42,0.48
193.33,0.43
195.27,0.38
197.22,0.33
199.19,0.27
201.18,0.21
203.19,0.15
205.23,0.10
207.28,0.05
209.35,-0.00
211.44,-0.05
213.56,-0.10
215.69,-0.14
217.85,-0.19
220.03,-0.24
222.23,-0.28
224.45,-0.32
226.70,-0.36
228.96,-0.40
231.25,-0.45
233.57,-0.50
235.90,-0.54
238.26,-0.57
240.64,-0.59
243.05,-0.63
245.48,-0.68
247.93,-0.73
250.41,-0.78
252.92,-0.81
255.45,-0.84
258.00,-0.88
260.58,-0.93
263.19,-0.98
265.82,-1.03
268.48,-1.08
271.16,-1.13
273.87,-1.17
276.61,-1.20
279.38,-1.24
282.17,-1.27
284.99,-1.30
287.84,-1.33
290.72,-1.37
293.63,-1.40
296.57,-1.44
299.53,-1.48
302.53,-1.52
305.55,-1.56
308.61,-1.60
311.69,-1.63
314.81,-1.67
317.96,-1.70
321.14,-1.73
324.35,-1.76
327.59,-1.80
330.87,-1.83
334.18,-1.88
337.52,-1.92
340.90,-1.96
344.30,-2.00
347.75,-2.04
351.23,-2.07
354.74,-2.10
358.28,-2.13
361.87,-2.16
365.49,-2.19
369.14,-2.23
372.83,-2.27
376.56,-2.31
380.33,-2.35
384.13,-2.38
387.97,-2.41
391.85,-2.42
395.77,-2.43
399.73,-2.44
403.72,-2.44
407.76,-2.43
411.84,-2.42
415.96,-2.40
420.12,-2.39
424.32,-2.38
428.56,-2.38
432.85,-2.38
437.18,-2.39
441.55,-2.40
445.96,-2.43
450.42,-2.45
454.93,-2.47
459.48,-2.48
464.07,-2.50
468.71,-2.52
473.40,-2.54
478.13,-2.56
482.91,-2.59
487.74,-2.60
492.62,-2.61
497.55,-2.63
502.52,-2.64
507.55,-2.66
512.62,-2.68
517.75,-2.69
522.93,-2.70
528.16,-2.70
533.44,-2.71
538.77,-2.71
544.16,-2.72
549.60,-2.72
555.10,-2.72
560.65,-2.72
566.25,-2.73
571.92,-2.73
577.64,-2.72
583.41,-2.72
589.25,-2.71
595.14,-2.71
601.09,-2.71
607.10,-2.71
613.17,-2.70
619.30,-2.69
625.50,-2.69
631.75,-2.68
638.07,-2.67
644.45,-2.66
650.89,-2.65
657.40,-2.63
663.98,-2.62
670.62,-2.60
677.32,-2.58
684.10,-2.56
690.94,-2.53
697.85,-2.50
704.83,-2.47
711.87,-2.44
718.99,-2.40
726.18,-2.37
733.44,-2.33
740.78,-2.30
748.19,-2.27
755.67,-2.22
763.23,-2.18
770.86,-2.13
778.57,-2.09
786.35,-2.04
794.22,-1.98
802.16,-1.92
810.18,-1.87
818.28,-1.80
826.46,-1.74
834.73,-1.67
843.08,-1.60
851.51,-1.53
860.02,-1.46
868.62,-1.38
877.31,-1.31
886.08,-1.22
894.94,-1.14
903.89,-1.05
912.93,-0.95
922.06,-0.86
931.28,-0.76
940.59,-0.66
950.00,-0.55
959.50,-0.45
969.09,-0.34
978.78,-0.24
988.57,-0.13
998.46,-0.02
1008.44,0.10
1018.53,0.22
1028.71,0.35
1039.00,0.46
1049.39,0.58
1059.88,0.70
1070.48,0.83
1081.19,0.95
1092.00,1.07
1102.92,1.19
1113.95,1.32
1125.09,1.44
1136.34,1.57
1147.70,1.69
1159.18,1.81
1170.77,1.93
1182.48,2.05
1194.30,2.17
1206.25,2.29
1218.31,2.40
1230.49,2.51
1242.80,2.63
1255.22,2.74
1267.78,2.85
1280.45,2.96
1293.26,3.06
1306.19,3.16
1319.25,3.26
1332.45,3.36
1345.77,3.46
1359.23,3.56
1372.82,3.66
1386.55,3.75
1400.41,3.84
1414.42,3.93
1428.56,4.02
1442.85,4.11
1457.28,4.20
1471.85,4.29
1486.57,4.36
1501.43,4.44
1516.45,4.50
1531.61,4.56
1546.93,4.62
1562.40,4.68
1578.02,4.73
1593.80,4.78
1609.74,4.84
1625.84,4.90
1642.10,4.97
1658.52,5.04
1675.10,5.10
1691.85,5.17
1708.77,5.22
1725.86,5.27
1743.12,5.31
1760.55,5.35
1778.15,5.38
1795.94,5.41
1813.90,5.43
1832.03,5.44
1850.36,5.44
1868.86,5.44
1887.55,5.44
1906.42,5.44
1925.49,5.44
1944.74,5.43
1964.19,5.43
1983.83,5.42
2003.67,5.41
2023.71,5.40
2043.94,5.38
2064.38,5.37
2085.03,5.36
2105.88,5.35
2126.94,5.34
2148.20,5.33
2169.69,5.32
2191.38,5.32
2213.30,5.31
2235.43,5.31
2257.78,5.31
2280.36,5.31
2303.17,5.31
2326.20,5.31
2349.46,5.32
2372.95,5.32
2396.68,5.33
2420.65,5.35
2444.86,5.37
2469.31,5.39
2494.00,5.42
2518.94,5.45
2544.13,5.48
2569.57,5.52
2595.27,5.56
2621.22,5.61
2647.43,5.67
2673.90,5.73
2700.64,5.80
2727.65,5.88
2754.93,5.96
2782.48,6.05
2810.30,6.14
2838.40,6.24
2866.79,6.34
2895.46,6.45
2924.41,6.55
2953.65,6.65
2983.19,6.74
3013.02,6.84
3043.15,6.93
3073.58,7.00
3104.32,7.07
3135.36,7.11
3166.72,7.14
3198.38,7.15
3230.37,7.13
3262.67,7.09
3295.30,7.03
3328.25,6.94
3361.53,6.83
3395.15,6.71
3429.10,6.57
3463.39,6.42
3498.03,6.27
3533.01,6.12
3568.34,5.98
3604.02,5.85
3640.06,5.73
3676.46,5.62
3713.22,5.53
3750.36,5.46
3787.86,5.42
3825.74,5.39
3864.00,5.39
3902.64,5.42
3941.66,5.46
3981.08,5.53
4020.89,5.63
4061.10,5.73
4101.71,5.86
4142.73,6.00
4184.15,6.15
4226.00,6.32
4268.26,6.49
4310.94,6.67
4354.05,6.85
4397.59,7.04
4441.56,7.23
4485.98,7.40
4530.84,7.57
4576.15,7.73
4621.91,7.88
4668.13,8.01
4714.81,8.11
4761.96,8.19
4809.58,8.24
4857.67,8.26
4906.25,8.23
4955.31,8.18
5004.87,8.10
5054.91,7.97
5105.46,7.83
5156.52,7.66
5208.08,7.47
5260.16,7.27
5312.77,7.07
5365.89,6.87
5419.55,6.70
5473.75,6.55
5528.49,6.43
5583.77,6.36
5639.61,6.30
5696.00,6.25
5752.96,6.13
5810.49,5.99
5868.60,5.77
5927.28,5.54
5986.56,5.30
6046.42,5.12
6106.89,4.97
6167.96,4.85
6229.64,4.75
6291.93,4.68
6354.85,4.64
6418.40,4.61
6482.58,4.62
6547.41,4.66
6612.88,4.71
6679.01,4.80
6745.80,4.92
6813.26,5.06
6881.39,5.23
6950.21,5.44
7019.71,5.67
7089.91,5.94
7160.81,6.26
7232.41,6.59
7304.74,6.95
7377.79,7.33
7451.56,7.71
7526.08,8.10
7601.34,8.48
7677.35,8.85
7754.13,9.21
7831.67,9.49
7909.98,9.72
7989.08,9.85
8068.98,9.82
8149.67,9.68
8231.16,9.41
8313.47,9.00
8396.61,8.53
8480.57,7.99
8565.38,7.42
8651.03,6.85
8737.54,6.29
8824.92,5.77
8913.17,5.27
9002.30,4.79
9092.32,4.35
9183.25,3.93
9275.08,3.54
9367.83,3.19
9461.51,2.85
9556.12,2.54
9651.68,2.25
9748.20,1.99
9845.68,1.77
9944.14,1.58
10043.58,1.41
10144.02,1.27
10245.46,1.18
10347.91,1.11
10451.39,1.07
10555.91,1.06
10661.46,1.08
10768.08,1.13
10875.76,1.23
10984.52,1.34
11094.36,1.46
11205.31,1.59
11317.36,1.65
11430.53,1.68
11544.84,1.64
11660.29,1.54
11776.89,1.40
11894.66,1.12
12013.60,0.81
12133.74,0.39
12255.08,-0.15
12377.63,-0.76
12501.41,-1.41
12626.42,-2.08
12752.68,-2.72
12880.21,-3.30
13009.01,-3.84
13139.10,-4.39
13270.49,-4.90
13403.20,-5.41
13537.23,-5.90
13672.60,-6.36
13809.33,-6.78
13947.42,-7.09
14086.90,-7.32
14227.77,-7.48
14370.04,-7.61
14513.74,-7.70
14658.88,-7.79
14805.47,-7.89
14953.52,-8.01
15103.06,-8.21
15254.09,-8.44
15406.63,-8.71
15560.70,-8.87
15716.30,-8.89
15873.47,-8.75
16032.20,-8.64
16192.52,-8.82
16354.45,-9.32
16517.99,-10.02
16683.17,-10.87
16850.01,-11.70
17018.51,-12.48
17188.69,-13.19
17360.58,-13.83
17534.18,-14.42
17709.53,-14.98
17886.62,-15.62
18065.49,-16.33
18246.14,-17.11
18428.60,-17.39
18612.89,-16.55
18799.02,-14.98
18987.01,-13.39
19176.88,-13.21
19368.65,-13.85
19562.33,-14.94
19757.96,-16.03
19955.54,-16.18
