frequency,raw,error,smoothed,error_smoothed,equalization,parametric_eq,fixed_band_eq,equalized_raw,equalized_smoothed,target
20.00,-14.29,-15.39,-14.28,-15.38,6.00,7.14,2.22,-8.29,-8.28,1.10
20.20,-14.11,-15.26,-14.11,-15.26,6.00,7.10,2.28,-8.11,-8.11,1.15
20.40,-13.94,-15.14,-13.94,-15.14,6.00,7.06,2.35,-7.94,-7.94,1.20
20.61,-13.76,-14.99,-13.76,-15.00,6.00,7.02,2.42,-7.76,-7.76,1.23
20.81,-13.59,-14.87,-13.59,-14.86,6.00,6.98,2.49,-7.59,-7.59,1.28
21.02,-13.41,-14.73,-13.40,-14.71,6.00,6.94,2.56,-7.41,-7.40,1.32
21.23,-13.20,-14.54,-13.20,-14.54,6.00,6.90,2.64,-7.20,-7.20,1.34
21.44,-12.99,-14.34,-12.99,-14.35,6.00,6.86,2.72,-6.99,-6.99,1.36
21.66,-12.77,-14.15,-12.77,-14.15,6.00,6.82,2.80,-6.77,-6.77,1.38
21.87,-12.56,-13.94,-12.56,-13.95,6.00,6.77,2.88,-6.56,-6.56,1.39
22.09,-12.35,-13.75,-12.34,-13.75,6.00,6.73,2.96,-6.35,-6.34,1.41
22.31,-12.13,-13.54,-12.13,-13.54,6.00,6.69,3.05,-6.13,-6.13,1.42
22.54,-11.91,-13.33,-11.91,-13.32,6.00,6.64,3.14,-5.91,-5.91,1.42
22.76,-11.69,-13.10,-11.69,-13.10,6.00,6.60,3.23,-5.69,-5.69,1.42
22.99,-11.47,-12.87,-11.47,-12.88,6.00,6.55,3.32,-5.47,-5.47,1.41
23.22,-11.27,-12.67,-11.27,-12.68,6.00,6.51,3.42,-5.27,-5.27,1.40
23.45,-11.08,-12.48,-11.08,-12.49,6.00,6.46,3.52,-5.08,-5.08,1.40
23.69,-10.89,-12.31,-10.89,-12.30,6.00,6.41,3.62,-4.89,-4.89,1.41
23.92,-10.69,-12.10,-10.68,-12.10,6.00,6.37,3.72,-4.69,-4.68,1.41
24.16,-10.47,-11.89,-10.47,-11.89,6.00,6.32,3.82,-4.47,-4.47,1.42
24.40,-10.25,-11.68,-10.25,-11.67,6.00,6.28,3.93,-4.25,-4.25,1.43
24.65,-10.02,-11.44,-10.02,-11.44,6.00,6.23,4.04,-4.02,-4.02,1.42
24.89,-9.78,-11.21,-9.79,-11.21,6.00,6.19,4.14,-3.78,-3.79,1.42
25.14,-9.56,-10.98,-9.55,-10.98,6.00,6.14,4.25,-3.56,-3.55,1.42
25.39,-9.31,-10.75,-9.32,-10.75,6.00,6.10,4.36,-3.31,-3.32,1.43
25.65,-9.09,-10.52,-9.09,-10.51,6.00,6.06,4.47,-3.09,-3.09,1.43
25.91,-8.86,-10.28,-8.86,-10.29,6.00,6.01,4.58,-2.86,-2.86,1.42
26.16,-8.65,-10.06,-8.65,-10.07,6.00,5.98,4.69,-2.65,-2.65,1.42
26.43,-8.46,-9.88,-8.46,-9.88,6.00,5.94,4.80,-2.46,-2.46,1.42
26.69,-8.27,-9.69,-8.27,-9.69,6.00,5.91,4.90,-2.27,-2.27,1.42
26.96,-8.08,-9.51,-8.07,-9.49,6.00,5.88,5.01,-2.08,-2.07,1.43
27.23,-7.84,-9.27,-7.84,-9.26,6.00,5.86,5.11,-1.84,-1.84,1.43
27.50,-7.59,-9.02,-7.59,-9.02,6.00,5.84,5.20,-1.59,-1.59,1.43
27.77,-7.34,-8.75,-7.34,-8.76,6.00,5.82,5.30,-1.34,-1.34,1.42
28.05,-7.10,-8.51,-7.10,-8.51,6.00,5.82,5.39,-1.10,-1.10,1.41
28.33,-6.86,-8.26,-6.86,-8.27,6.00,5.82,5.47,-0.86,-0.86,1.40
28.62,-6.63,-8.04,-6.63,-8.03,6.00,5.83,5.55,-0.63,-0.63,1.40
28.90,-6.40,-7.81,-6.40,-7.81,6.00,5.85,5.61,-0.40,-0.40,1.41
29.19,-6.18,-7.58,-6.18,-7.59,6.00,5.87,5.68,-0.18,-0.18,1.40
29.48,-5.97,-7.39,-5.97,-7.38,6.02,5.89,5.72,0.05,0.05,1.42
29.78,-5.76,-7.17,-5.76,-7.17,6.04,5.92,5.77,0.28,0.28,1.41
30.08,-5.54,-6.96,-5.53,-6.95,6.05,5.93,5.80,0.50,0.51,1.42
30.38,-5.29,-6.70,-5.30,-6.70,6.04,5.94,5.82,0.74,0.74,1.41
30.68,-5.05,-6.45,-5.05,-6.46,6.00,5.90,5.83,0.95,0.95,1.41
30.99,-4.80,-6.21,-4.81,-6.21,5.93,5.85,5.84,1.13,1.12,1.40
31.30,-4.57,-5.97,-4.57,-5.98,5.82,5.74,5.82,1.25,1.25,1.40
31.61,-4.34,-5.74,-4.34,-5.74,5.67,5.61,5.80,1.33,1.34,1.40
31.93,-4.10,-5.50,-4.10,-5.50,5.49,5.43,5.76,1.39,1.39,1.40
32.24,-3.86,-5.24,-3.85,-5.25,5.29,5.23,5.72,1.43,1.43,1.39
32.57,-3.61,-5.01,-3.61,-5.00,5.06,5.01,5.66,1.45,1.45,1.40
32.89,-3.36,-4.75,-3.37,-4.76,4.82,4.77,5.60,1.46,1.45,1.40
33.22,-3.15,-4.53,-3.15,-4.54,4.57,4.53,5.52,1.42,1.42,1.39
33.55,-2.95,-4.33,-2.94,-4.33,4.33,4.30,5.43,1.38,1.38,1.38
33.89,-2.75,-4.12,-2.75,-4.12,4.11,4.06,5.33,1.36,1.36,1.37
34.23,-2.54,-3.92,-2.53,-3.91,3.90,3.84,5.23,1.36,1.36,1.38
34.57,-2.32,-3.69,-2.32,-3.69,3.69,3.62,5.12,1.37,1.37,1.37
34.92,-2.09,-3.46,-2.10,-3.47,3.48,3.40,5.00,1.39,1.38,1.37
35.27,-1.90,-3.27,-1.90,-3.26,3.27,3.19,4.88,1.37,1.37,1.36
35.62,-1.70,-3.06,-1.70,-3.06,3.06,2.98,4.75,1.36,1.36,1.36
35.97,-1.51,-2.87,-1.50,-2.86,2.84,2.78,4.62,1.33,1.34,1.36
36.33,-1.28,-2.64,-1.28,-2.64,2.61,2.58,4.48,1.34,1.33,1.37
36.70,-1.05,-2.41,-1.05,-2.41,2.39,2.38,4.34,1.34,1.34,1.36
37.06,-0.82,-2.17,-0.81,-2.17,2.18,2.18,4.20,1.36,1.37,1.35
37.43,-0.58,-1.95,-0.58,-1.94,1.97,1.99,4.05,1.39,1.39,1.37
37.81,-0.35,-1.72,-0.36,-1.72,1.76,1.79,3.90,1.41,1.41,1.37
38.19,-0.15,-1.52,-0.16,-1.53,1.56,1.60,3.76,1.41,1.40,1.37
38.57,0.01,-1.36,0.01,-1.36,1.36,1.40,3.61,1.37,1.37,1.37
38.95,0.17,-1.21,0.19,-1.19,1.17,1.21,3.46,1.34,1.35,1.38
39.34,0.36,-1.01,0.36,-1.02,0.98,1.02,3.31,1.34,1.34,1.38
39.74,0.55,-0.82,0.55,-0.83,0.80,0.83,3.16,1.35,1.35,1.37
40.14,0.74,-0.64,0.76,-0.62,0.63,0.64,3.01,1.37,1.38,1.38
40.54,0.95,-0.43,0.95,-0.42,0.46,0.46,2.87,1.41,1.42,1.38
40.94,1.16,-0.21,1.13,-0.25,0.29,0.29,2.72,1.45,1.42,1.37
41.35,1.27,-0.10,1.27,-0.11,0.12,0.12,2.57,1.40,1.39,1.37
41.76,1.37,0.01,1.39,0.02,-0.04,-0.04,2.43,1.33,1.35,1.37
42.18,1.50,0.13,1.52,0.16,-0.20,-0.18,2.28,1.31,1.33,1.37
42.60,1.69,0.33,1.69,0.32,-0.35,-0.33,2.14,1.34,1.34,1.36
43.03,1.87,0.52,1.86,0.50,-0.50,-0.46,2.00,1.37,1.36,1.35
43.46,2.01,0.66,2.01,0.67,-0.65,-0.58,1.85,1.36,1.36,1.35
43.90,2.15,0.82,2.15,0.82,-0.81,-0.70,1.71,1.34,1.34,1.33
44.33,2.27,0.96,2.27,0.96,-0.97,-0.81,1.57,1.30,1.30,1.31
44.78,2.40,1.10,2.41,1.11,-1.13,-0.92,1.44,1.27,1.28,1.30
45.23,2.54,1.25,2.55,1.27,-1.27,-1.02,1.30,1.27,1.28,1.29
45.68,2.70,1.42,2.69,1.42,-1.41,-1.11,1.17,1.30,1.29,1.28
46.13,2.83,1.57,2.81,1.55,-1.53,-1.21,1.03,1.31,1.29,1.26
46.60,2.90,1.64,2.91,1.65,-1.63,-1.30,0.90,1.27,1.27,1.26
47.06,2.97,1.72,2.98,1.73,-1.73,-1.39,0.77,1.25,1.26,1.25
47.53,3.04,1.80,3.04,1.80,-1.80,-1.48,0.64,1.24,1.24,1.24
48.01,3.11,1.86,3.10,1.86,-1.86,-1.56,0.51,1.25,1.24,1.25
48.49,3.12,1.89,3.13,1.90,-1.90,-1.64,0.38,1.22,1.23,1.23
48.97,3.14,1.93,3.14,1.93,-1.93,-1.72,0.25,1.22,1.21,1.21
49.46,3.13,1.94,3.13,1.93,-1.94,-1.79,0.13,1.20,1.19,1.20
49.96,3.11,1.93,3.12,1.93,-1.93,-1.86,0.00,1.18,1.19,1.18
50.46,3.09,1.91,3.09,1.92,-1.91,-1.92,-0.12,1.18,1.18,1.18
50.96,3.07,1.90,3.06,1.90,-1.87,-1.98,-0.24,1.20,1.19,1.17
51.47,3.01,1.86,3.01,1.86,-1.83,-2.03,-0.36,1.18,1.19,1.15
51.99,2.95,1.81,2.94,1.79,-1.78,-2.07,-0.47,1.17,1.17,1.15
52.51,2.86,1.71,2.86,1.72,-1.73,-2.11,-0.59,1.13,1.13,1.15
53.03,2.78,1.63,2.79,1.65,-1.68,-2.14,-0.70,1.10,1.11,1.15
53.56,2.74,1.60,2.74,1.60,-1.64,-2.16,-0.81,1.10,1.10,1.14
54.10,2.71,1.58,2.71,1.58,-1.61,-2.18,-0.91,1.11,1.10,1.13
54.64,2.70,1.58,2.70,1.58,-1.58,-2.19,-1.01,1.12,1.12,1.12
55.18,2.70,1.58,2.71,1.59,-1.57,-2.19,-1.11,1.13,1.13,1.12
55.74,2.71,1.60,2.70,1.58,-1.58,-2.18,-1.20,1.13,1.12,1.11
56.29,2.69,1.58,2.67,1.57,-1.59,-2.16,-1.29,1.10,1.08,1.11
56.86,2.63,1.54,2.66,1.57,-1.60,-2.14,-1.38,1.03,1.06,1.10
57.42,2.64,1.57,2.66,1.58,-1.60,-2.11,-1.46,1.05,1.07,1.07
58.00,2.69,1.62,2.68,1.61,-1.58,-2.07,-1.53,1.11,1.10,1.07
58.58,2.68,1.61,2.67,1.60,-1.55,-2.03,-1.60,1.13,1.12,1.07
59.16,2.63,1.58,2.60,1.55,-1.50,-1.98,-1.66,1.13,1.10,1.05
59.76,2.47,1.43,2.50,1.47,-1.45,-1.93,-1.72,1.02,1.05,1.04
60.35,2.36,1.35,2.38,1.37,-1.38,-1.87,-1.77,0.98,1.00,1.01
60.96,2.29,1.31,2.25,1.27,-1.30,-1.80,-1.82,0.99,0.95,0.98
61.57,2.12,1.17,2.13,1.18,-1.21,-1.73,-1.85,0.91,0.92,0.95
62.18,1.97,1.06,2.00,1.09,-1.10,-1.66,-1.89,0.87,0.90,0.91
62.80,1.89,1.01,1.87,1.00,-0.99,-1.58,-1.91,0.90,0.88,0.88
63.43,1.76,0.92,1.75,0.92,-0.88,-1.51,-1.93,0.88,0.87,0.84
64.07,1.62,0.82,1.62,0.81,-0.77,-1.43,-1.94,0.85,0.84,0.80
64.71,1.45,0.69,1.46,0.69,-0.67,-1.34,-1.94,0.78,0.78,0.77
65.35,1.29,0.55,1.29,0.56,-0.58,-1.26,-1.94,0.72,0.72,0.74
66.01,1.14,0.44,1.13,0.44,-0.48,-1.17,-1.93,0.66,0.65,0.70
66.67,1.00,0.34,1.02,0.36,-0.40,-1.09,-1.92,0.60,0.62,0.66
67.33,0.91,0.29,0.93,0.31,-0.33,-1.00,-1.90,0.59,0.60,0.62
68.01,0.88,0.29,0.86,0.28,-0.26,-0.91,-1.88,0.62,0.60,0.59
68.69,0.80,0.25,0.79,0.24,-0.21,-0.83,-1.85,0.59,0.58,0.55
69.37,0.70,0.19,0.70,0.19,-0.17,-0.74,-1.81,0.54,0.54,0.51
70.07,0.58,0.12,0.61,0.14,-0.13,-0.66,-1.78,0.45,0.48,0.47
70.77,0.53,0.10,0.52,0.09,-0.10,-0.57,-1.73,0.43,0.42,0.43
71.48,0.45,0.06,0.44,0.06,-0.07,-0.49,-1.69,0.38,0.37,0.39
72.19,0.36,0.02,0.38,0.03,-0.04,-0.41,-1.64,0.32,0.33,0.34
72.91,0.31,0.02,0.31,0.01,-0.02,-0.33,-1.59,0.29,0.28,0.29
73.64,0.25,0.00,0.25,-0.00,-0.01,-0.25,-1.54,0.24,0.24,0.25
74.38,0.20,-0.00,0.20,0.00,0.00,-0.18,-1.48,0.20,0.20,0.20
75.12,0.14,-0.02,0.16,0.01,0.01,-0.10,-1.42,0.15,0.17,0.16
75.87,0.14,0.03,0.12,0.01,0.01,-0.03,-1.37,0.15,0.13,0.11
76.63,0.08,0.01,0.07,-0.00,0.01,0.04,-1.31,0.09,0.08,0.07
77.40,0.00,-0.03,0.01,-0.02,0.01,0.10,-1.25,0.01,0.02,0.04
78.17,-0.06,-0.05,-0.04,-0.03,0.01,0.17,-1.18,-0.05,-0.03,-0.01
78.95,-0.06,-0.03,-0.06,-0.03,0.01,0.23,-1.12,-0.05,-0.06,-0.03
79.74,-0.07,0.00,-0.08,-0.01,0.01,0.29,-1.06,-0.06,-0.07,-0.07
80.54,-0.11,-0.01,-0.10,0.00,0.02,0.34,-1.00,-0.09,-0.08,-0.10
81.35,-0.15,-0.01,-0.14,0.00,0.03,0.40,-0.93,-0.12,-0.11,-0.14
82.16,-0.17,0.01,-0.19,-0.02,0.03,0.45,-0.87,-0.13,-0.16,-0.17
82.98,-0.25,-0.05,-0.24,-0.04,0.04,0.50,-0.81,-0.21,-0.20,-0.20
83.81,-0.32,-0.08,-0.30,-0.07,0.05,0.54,-0.75,-0.27,-0.25,-0.24
84.65,-0.35,-0.08,-0.36,-0.10,0.07,0.59,-0.68,-0.28,-0.29,-0.27
85.50,-0.40,-0.10,-0.40,-0.10,0.08,0.63,-0.62,-0.32,-0.32,-0.29
86.35,-0.44,-0.11,-0.41,-0.08,0.10,0.67,-0.56,-0.34,-0.31,-0.33
87.22,-0.44,-0.08,-0.45,-0.09,0.11,0.70,-0.50,-0.33,-0.35,-0.36
88.09,-0.46,-0.06,-0.51,-0.11,0.11,0.74,-0.44,-0.34,-0.39,-0.40
88.97,-0.61,-0.18,-0.56,-0.13,0.12,0.77,-0.38,-0.49,-0.44,-0.43
89.86,-0.63,-0.16,-0.61,-0.14,0.13,0.80,-0.32,-0.50,-0.48,-0.47
90.76,-0.63,-0.12,-0.65,-0.15,0.14,0.83,-0.26,-0.49,-0.51,-0.50
91.66,-0.66,-0.13,-0.68,-0.15,0.16,0.85,-0.20,-0.50,-0.53,-0.53
92.58,-0.75,-0.17,-0.73,-0.16,0.18,0.87,-0.14,-0.57,-0.56,-0.58
93.51,-0.82,-0.21,-0.79,-0.18,0.19,0.89,-0.08,-0.63,-0.59,-0.61
94.44,-0.82,-0.19,-0.85,-0.22,0.21,0.91,-0.02,-0.61,-0.64,-0.63
95.39,-0.89,-0.23,-0.91,-0.25,0.23,0.93,0.03,-0.66,-0.68,-0.66
96.34,-1.01,-0.31,-0.96,-0.27,0.26,0.94,0.09,-0.75,-0.71,-0.70
97.30,-1.02,-0.29,-1.01,-0.29,0.28,0.95,0.15,-0.73,-0.73,-0.73
98.28,-1.04,-0.28,-1.06,-0.30,0.32,0.96,0.20,-0.72,-0.75,-0.76
99.26,-1.09,-0.30,-1.11,-0.33,0.35,0.97,0.26,-0.74,-0.76,-0.79
100.25,-1.22,-0.40,-1.18,-0.37,0.38,0.98,0.31,-0.83,-0.80,-0.81
101.25,-1.27,-0.43,-1.26,-0.41,0.42,0.98,0.36,-0.85,-0.84,-0.84
102.27,-1.31,-0.44,-1.34,-0.46,0.45,0.99,0.42,-0.86,-0.89,-0.87
103.29,-1.40,-0.49,-1.40,-0.50,0.48,0.99,0.47,-0.92,-0.92,-0.91
104.32,-1.49,-0.56,-1.47,-0.53,0.52,0.99,0.52,-0.97,-0.95,-0.93
105.37,-1.53,-0.57,-1.52,-0.56,0.55,0.99,0.57,-0.98,-0.97,-0.96
106.42,-1.55,-0.56,-1.56,-0.57,0.58,0.99,0.62,-0.97,-0.98,-0.99
107.48,-1.61,-0.58,-1.61,-0.58,0.61,0.98,0.66,-1.00,-1.01,-1.03
108.56,-1.68,-0.61,-1.69,-0.62,0.63,0.98,0.71,-1.05,-1.06,-1.07
109.64,-1.77,-0.67,-1.76,-0.66,0.64,0.97,0.75,-1.12,-1.12,-1.10
110.74,-1.83,-0.69,-1.81,-0.68,0.66,0.97,0.80,-1.17,-1.15,-1.14
111.85,-1.85,-0.69,-1.85,-0.68,0.68,0.96,0.84,-1.17,-1.17,-1.16
112.97,-1.86,-0.65,-1.88,-0.68,0.69,0.95,0.88,-1.17,-1.19,-1.20
114.10,-1.92,-0.69,-1.92,-0.68,0.70,0.94,0.92,-1.22,-1.22,-1.23
115.24,-1.97,-0.71,-1.97,-0.71,0.70,0.93,0.95,-1.27,-1.27,-1.26
116.39,-2.03,-0.73,-2.02,-0.73,0.71,0.92,0.98,-1.32,-1.31,-1.30
117.55,-2.06,-0.74,-2.04,-0.72,0.72,0.91,1.01,-1.34,-1.32,-1.32
118.73,-2.05,-0.70,-2.05,-0.71,0.73,0.90,1.04,-1.32,-1.32,-1.34
119.92,-2.04,-0.69,-2.07,-0.71,0.73,0.88,1.07,-1.30,-1.33,-1.35
121.12,-2.11,-0.73,-2.11,-0.73,0.74,0.87,1.09,-1.36,-1.36,-1.38
122.33,-2.18,-0.78,-2.16,-0.77,0.75,0.86,1.11,-1.42,-1.41,-1.39
123.55,-2.21,-0.81,-2.20,-0.79,0.76,0.85,1.13,-1.44,-1.43,-1.40
124.79,-2.21,-0.79,-2.21,-0.79,0.78,0.83,1.14,-1.43,-1.43,-1.42
126.03,-2.20,-0.77,-2.21,-0.78,0.80,0.82,1.16,-1.40,-1.41,-1.43
127.29,-2.22,-0.78,-2.24,-0.79,0.82,0.80,1.17,-1.40,-1.42,-1.44
128.57,-2.28,-0.82,-2.28,-0.83,0.84,0.79,1.17,-1.44,-1.45,-1.46
129.85,-2.36,-0.89,-2.33,-0.86,0.86,0.78,1.18,-1.50,-1.47,-1.47
131.15,-2.37,-0.88,-2.37,-0.88,0.88,0.76,1.18,-1.49,-1.49,-1.49
132.46,-2.38,-0.88,-2.40,-0.90,0.90,0.75,1.18,-1.48,-1.50,-1.50
133.79,-2.44,-0.93,-2.43,-0.92,0.92,0.74,1.18,-1.52,-1.51,-1.51
135.12,-2.47,-0.94,-2.47,-0.95,0.94,0.72,1.17,-1.53,-1.53,-1.53
136.48,-2.52,-0.99,-2.51,-0.97,0.95,0.71,1.17,-1.57,-1.56,-1.53
137.84,-2.54,-0.99,-2.53,-0.98,0.96,0.70,1.16,-1.58,-1.57,-1.55
139.22,-2.54,-0.97,-2.54,-0.97,0.96,0.68,1.15,-1.57,-1.57,-1.57
140.61,-2.54,-0.95,-2.53,-0.95,0.97,0.67,1.13,-1.57,-1.57,-1.59
142.02,-2.53,-0.94,-2.55,-0.95,0.97,0.66,1.12,-1.56,-1.57,-1.59
143.44,-2.57,-0.96,-2.57,-0.96,0.97,0.65,1.11,-1.59,-1.60,-1.61
144.87,-2.62,-0.98,-2.60,-0.96,0.97,0.63,1.09,-1.64,-1.62,-1.64
146.32,-2.63,-0.97,-2.63,-0.97,0.97,0.62,1.07,-1.66,-1.66,-1.66
147.78,-2.63,-0.95,-2.65,-0.97,0.96,0.61,1.06,-1.67,-1.70,-1.68
149.26,-2.69,-0.97,-2.68,-0.96,0.94,0.60,1.04,-1.75,-1.74,-1.71
150.75,-2.73,-0.96,-2.71,-0.95,0.92,0.59,1.02,-1.81,-1.79,-1.77
152.26,-2.73,-0.90,-2.73,-0.91,0.89,0.59,1.00,-1.84,-1.85,-1.82
153.78,-2.73,-0.85,-2.73,-0.85,0.85,0.58,0.98,-1.88,-1.88,-1.88
155.32,-2.73,-0.79,-2.73,-0.79,0.81,0.57,0.97,-1.92,-1.92,-1.94
156.88,-2.73,-0.73,-2.75,-0.74,0.77,0.56,0.95,-1.96,-1.98,-2.00
158.44,-2.80,-0.72,-2.78,-0.71,0.73,0.56,0.93,-2.07,-2.05,-2.08
160.03,-2.82,-0.67,-2.83,-0.69,0.69,0.55,0.91,-2.13,-2.14,-2.15
161.63,-2.89,-0.68,-2.88,-0.67,0.66,0.54,0.89,-2.23,-2.22,-2.21
163.24,-2.91,-0.65,-2.90,-0.65,0.63,0.54,0.87,-2.28,-2.27,-2.26
164.88,-2.92,-0.62,-2.92,-0.62,0.61,0.54,0.85,-2.31,-2.31,-2.30
166.53,-2.93,-0.59,-2.93,-0.59,0.59,0.53,0.84,-2.34,-2.34,-2.34
168.19,-2.93,-0.56,-2.93,-0.57,0.57,0.53,0.82,-2.36,-2.36,-2.37
169.87,-2.94,-0.54,-2.94,-0.55,0.55,0.53,0.80,-2.39,-2.39,-2.39
171.57,-2.95,-0.55,-2.95,-0.54,0.54,0.53,0.79,-2.41,-2.40,-2.40
173.29,-2.95,-0.54,-2.95,-0.54,0.54,0.52,0.77,-2.41,-2.41,-2.41
175.02,-2.96,-0.55,-2.95,-0.54,0.56,0.52,0.76,-2.40,-2.39,-2.41
176.77,-2.96,-0.55,-2.96,-0.55,0.58,0.52,0.74,-2.38,-2.38,-2.41
178.54,-2.96,-0.55,-2.98,-0.57,0.61,0.53,0.73,-2.35,-2.37,-2.41
180.32,-3.03,-0.64,-3.02,-0.62,0.64,0.53,0.71,-2.39,-2.38,-2.39
182.13,-3.05,-0.67,-3.07,-0.69,0.67,0.53,0.70,-2.38,-2.40,-2.38
183.95,-3.14,-0.76,-3.11,-0.73,0.69,0.53,0.69,-2.45,-2.42,-2.38
185.79,-3.12,-0.74,-3.12,-0.74,0.70,0.54,0.68,-2.42,-2.42,-2.37
187.65,-3.11,-0.72,-3.12,-0.73,0.71,0.54,0.67,-2.40,-2.41,-2.39
189.52,-3.09,-0.70,-3.09,-0.70,0.70,0.54,0.66,-2.38,-2.39,-2.39
191.42,-3.08,-0.68,-3.08,-0.67,0.69,0.55,0.65,-2.39,-2.39,-2.40
193.33,-3.07,-0.65,-3.06,-0.65,0.66,0.55,0.64,-2.41,-2.41,-2.42
195.27,-3.05,-0.62,-3.05,-0.62,0.63,0.56,0.63,-2.42,-2.43,-2.43
197.22,-3.04,-0.60,-3.04,-0.60,0.59,0.57,0.62,-2.44,-2.44,-2.44
199.19,-3.03,-0.57,-3.03,-0.57,0.57,0.57,0.61,-2.46,-2.46,-2.46
201.18,-3.02,-0.55,-3.01,-0.54,0.55,0.58,0.61,-2.46,-2.46,-2.47
203.19,-3.01,-0.53,-3.01,-0.53,0.54,0.59,0.60,-2.46,-2.46,-2.48
205.23,-3.01,-0.51,-3.02,-0.53,0.54,0.60,0.59,-2.47,-2.48,-2.50
207.28,-3.05,-0.55,-3.05,-0.54,0.55,0.61,0.59,-2.50,-2.50,-2.50
209.35,-3.10,-0.58,-3.08,-0.56,0.56,0.62,0.58,-2.54,-2.52,-2.52
211.44,-3.11,-0.56,-3.11,-0.57,0.57,0.63,0.58,-2.54,-2.54,-2.55
213.56,-3.12,-0.57,-3.14,-0.59,0.59,0.64,0.58,-2.53,-2.55,-2.55
215.69,-3.18,-0.62,-3.17,-0.62,0.61,0.65,0.57,-2.57,-2.56,-2.55
217.85,-3.22,-0.66,-3.20,-0.64,0.63,0.66,0.57,-2.59,-2.58,-2.56
220.03,-3.22,-0.65,-3.23,-0.65,0.64,0.68,0.57,-2.58,-2.59,-2.57
222.23,-3.23,-0.64,-3.23,-0.65,0.65,0.69,0.57,-2.58,-2.58,-2.59
224.45,-3.23,-0.65,-3.23,-0.65,0.65,0.70,0.56,-2.57,-2.57,-2.57
226.70,-3.23,-0.66,-3.23,-0.65,0.66,0.71,0.56,-2.57,-2.57,-2.57
228.96,-3.22,-0.66,-3.22,-0.66,0.66,0.73,0.56,-2.56,-2.56,-2.56
231.25,-3.21,-0.66,-3.21,-0.67,0.66,0.74,0.56,-2.55,-2.55,-2.54
233.57,-3.21,-0.68,-3.20,-0.67,0.67,0.75,0.56,-2.54,-2.53,-2.53
235.90,-3.19,-0.67,-3.19,-0.67,0.69,0.77,0.56,-2.50,-2.50,-2.52
238.26,-3.18,-0.68,-3.18,-0.68,0.71,0.78,0.57,-2.47,-2.48,-2.50
240.64,-3.18,-0.70,-3.19,-0.71,0.72,0.80,0.57,-2.45,-2.47,-2.48
243.05,-3.21,-0.77,-3.20,-0.76,0.75,0.81,0.57,-2.46,-2.46,-2.44
245.48,-3.22,-0.80,-3.20,-0.79,0.77,0.83,0.57,-2.45,-2.44,-2.42
247.93,-3.19,-0.81,-3.19,-0.81,0.79,0.84,0.58,-2.40,-2.41,-2.38
250.41,-3.17,-0.80,-3.17,-0.81,0.81,0.86,0.58,-2.36,-2.37,-2.37
252.92,-3.16,-0.83,-3.16,-0.82,0.83,0.87,0.58,-2.33,-2.33,-2.33
255.45,-3.15,-0.84,-3.15,-0.84,0.84,0.89,0.59,-2.31,-2.30,-2.31
258.00,-3.14,-0.86,-3.14,-0.86,0.86,0.91,0.59,-2.28,-2.28,-2.28
260.58,-3.13,-0.86,-3.13,-0.87,0.88,0.92,0.60,-2.25,-2.25,-2.27
263.19,-3.13,-0.90,-3.13,-0.89,0.90,0.94,0.60,-2.23,-2.23,-2.23
265.82,-3.13,-0.92,-3.13,-0.92,0.92,0.96,0.61,-2.21,-2.21,-2.21
268.48,-3.14,-0.95,-3.13,-0.95,0.95,0.97,0.62,-2.19,-2.18,-2.19
271.16,-3.14,-0.99,-3.14,-0.98,0.98,0.99,0.62,-2.16,-2.16,-2.15
273.87,-3.14,-1.00,-3.14,-1.01,1.01,1.01,0.63,-2.13,-2.13,-2.13
276.61,-3.15,-1.05,-3.14,-1.04,1.04,1.02,0.64,-2.11,-2.10,-2.10
279.38,-3.14,-1.07,-3.14,-1.07,1.07,1.04,0.65,-2.07,-2.07,-2.07
282.17,-3.14,-1.10,-3.14,-1.10,1.10,1.05,0.66,-2.04,-2.04,-2.04
284.99,-3.14,-1.13,-3.13,-1.12,1.12,1.07,0.67,-2.02,-2.01,-2.01
287.84,-3.13,-1.14,-3.13,-1.15,1.14,1.09,0.68,-1.99,-1.99,-1.99
290.72,-3.12,-1.17,-3.12,-1.17,1.16,1.10,0.69,-1.95,-1.96,-1.95
293.63,-3.11,-1.18,-3.11,-1.18,1.18,1.12,0.70,-1.93,-1.92,-1.92
296.57,-3.09,-1.20,-3.09,-1.20,1.20,1.14,0.71,-1.89,-1.89,-1.89
299.53,-3.08,-1.22,-3.08,-1.22,1.22,1.15,0.73,-1.86,-1.86,-1.86
302.53,-3.07,-1.23,-3.07,-1.24,1.24,1.17,0.74,-1.83,-1.83,-1.84
305.55,-3.06,-1.26,-3.06,-1.25,1.26,1.18,0.76,-1.80,-1.80,-1.79
308.61,-3.05,-1.27,-3.05,-1.27,1.28,1.20,0.77,-1.77,-1.77,-1.78
311.69,-3.04,-1.29,-3.04,-1.30,1.29,1.21,0.79,-1.74,-1.75,-1.75
314.81,-3.04,-1.32,-3.04,-1.31,1.31,1.23,0.80,-1.73,-1.73,-1.72
317.96,-3.04,-1.34,-3.04,-1.33,1.33,1.24,0.82,-1.71,-1.71,-1.70
321.14,-3.04,-1.35,-3.04,-1.35,1.35,1.26,0.84,-1.69,-1.69,-1.69
324.35,-3.04,-1.36,-3.04,-1.36,1.36,1.27,0.86,-1.67,-1.67,-1.68
327.59,-3.04,-1.38,-3.04,-1.38,1.38,1.29,0.88,-1.66,-1.66,-1.66
330.87,-3.04,-1.39,-3.04,-1.39,1.40,1.30,0.90,-1.64,-1.64,-1.65
334.18,-3.04,-1.41,-3.04,-1.41,1.41,1.31,0.92,-1.62,-1.62,-1.63
337.52,-3.04,-1.42,-3.04,-1.42,1.43,1.33,0.94,-1.61,-1.61,-1.62
340.90,-3.04,-1.44,-3.04,-1.44,1.44,1.34,0.97,-1.60,-1.60,-1.60
344.30,-3.05,-1.45,-3.04,-1.45,1.44,1.35,0.99,-1.61,-1.60,-1.59
347.75,-3.05,-1.45,-3.05,-1.46,1.44,1.36,1.02,-1.61,-1.61,-1.60
351.23,-3.04,-1.45,-3.04,-1.45,1.43,1.37,1.04,-1.61,-1.61,-1.59
354.74,-3.04,-1.45,-3.02,-1.43,1.42,1.38,1.07,-1.62,-1.60,-1.59
358.28,-2.98,-1.40,-2.99,-1.41,1.40,1.39,1.10,-1.58,-1.59,-1.58
361.87,-2.95,-1.37,-2.95,-1.38,1.39,1.40,1.12,-1.56,-1.56,-1.58
365.49,-2.93,-1.36,-2.92,-1.35,1.38,1.41,1.15,-1.55,-1.54,-1.57
369.14,-2.92,-1.34,-2.92,-1.34,1.37,1.42,1.18,-1.54,-1.55,-1.58
372.83,-2.92,-1.34,-2.93,-1.35,1.37,1.43,1.21,-1.55,-1.57,-1.58
376.56,-2.97,-1.38,-2.96,-1.38,1.37,1.44,1.24,-1.60,-1.59,-1.58
380.33,-2.99,-1.41,-2.98,-1.40,1.37,1.45,1.28,-1.62,-1.61,-1.58
384.13,-2.99,-1.41,-2.99,-1.41,1.38,1.45,1.31,-1.61,-1.61,-1.58
387.97,-2.98,-1.39,-2.98,-1.40,1.39,1.46,1.34,-1.59,-1.60,-1.59
391.85,-2.98,-1.38,-2.98,-1.39,1.40,1.47,1.38,-1.58,-1.58,-1.60
395.77,-2.98,-1.39,-2.97,-1.38,1.40,1.47,1.41,-1.57,-1.57,-1.59
399.73,-2.98,-1.38,-2.99,-1.39,1.41,1.48,1.44,-1.57,-1.58,-1.60
403.72,-3.00,-1.40,-3.01,-1.41,1.42,1.48,1.48,-1.58,-1.60,-1.60
407.76,-3.06,-1.45,-3.05,-1.44,1.43,1.48,1.51,-1.63,-1.62,-1.61
411.84,-3.08,-1.47,-3.07,-1.46,1.44,1.49,1.55,-1.64,-1.63,-1.61
415.96,-3.09,-1.48,-3.08,-1.47,1.46,1.49,1.58,-1.63,-1.62,-1.61
420.12,-3.08,-1.47,-3.08,-1.47,1.48,1.49,1.62,-1.60,-1.60,-1.61
424.32,-3.08,-1.47,-3.10,-1.49,1.50,1.49,1.65,-1.58,-1.60,-1.61
428.56,-3.12,-1.51,-3.11,-1.51,1.51,1.49,1.68,-1.61,-1.60,-1.60
432.85,-3.14,-1.54,-3.13,-1.53,1.52,1.49,1.71,-1.62,-1.61,-1.59
437.18,-3.12,-1.53,-3.12,-1.54,1.52,1.49,1.74,-1.60,-1.60,-1.59
441.55,-3.09,-1.54,-3.09,-1.54,1.52,1.49,1.77,-1.57,-1.57,-1.55
445.96,-3.04,-1.52,-3.04,-1.52,1.52,1.48,1.80,-1.52,-1.52,-1.52
450.42,-2.99,-1.50,-2.98,-1.50,1.52,1.48,1.82,-1.47,-1.47,-1.49
454.93,-2.93,-1.49,-2.93,-1.49,1.52,1.48,1.84,-1.41,-1.41,-1.44
459.48,-2.87,-1.48,-2.88,-1.50,1.52,1.47,1.86,-1.35,-1.36,-1.39
464.07,-2.85,-1.51,-2.85,-1.52,1.52,1.47,1.88,-1.33,-1.33,-1.34
468.71,-2.84,-1.56,-2.82,-1.54,1.53,1.46,1.90,-1.31,-1.30,-1.28
