frequency,raw,error,smoothed,error_smoothed,equalization,equalized_raw,equalized_smoothed,target
20,-23.707395102025533,-27.828015852633445,-23.646340602241754,-27.766979597420033,5.999999999999999,-17.707395102025533,-17.646340602241754,4.120620750607913
21,-22.882600192928013,-27.034835337637347,-22.885927478954937,-27.038151999468568,6.0,-16.882600192928013,-16.885927478954937,4.152235144709332
22,-22.11731380903361,-26.297762289057108,-22.162011663166535,-26.342438081527675,6.0,-16.11731380903361,-16.162011663166535,4.180448480023496
23,-21.406220515452567,-25.611479865774104,-21.474593154876555,-25.67983784359735,5.999999999999999,-15.406220515452567,-15.474593154876555,4.205259350321538
24,-20.77397173682576,-25.000637833279995,-20.823671954084965,-25.050351285677554,5.999999999999998,-14.773971736825763,-14.823671954084967,4.2266660964542355
25,-20.12872789509185,-24.373394669997648,-20.216338635492505,-24.46107733622688,6.000000000000001,-14.12872789509185,-14.216338635492505,4.244666774905798
26,-19.482583737028722,-23.741842861078982,-19.64370387285342,-23.90312227909488,6.0,-13.482583737028722,-13.643703872853418,4.259259124050261
27,-19.245493013138706,-23.516002486849246,-19.09803524953125,-23.368745347260727,6.0,-13.245493013138706,-13.09803524953125,4.270509473710542
28,-18.525043147080257,-22.803404787666206,-18.56945524111658,-22.84804954230553,6.0,-12.525043147080257,-12.569455241116579,4.278361640585948
29,-18.27737091715972,-22.56015760867143,-18.04786487233916,-22.330900893230528,6.000000000000001,-12.277370917159718,-12.047864872339161,4.282786691511712
30,-17.620337279133715,-21.904074967794507,-17.527704955094425,-21.81168840973219,6.0,-11.620337279133715,-11.527704955094425,4.2837376886607945
31,-16.991707295534557,-21.272854162409438,-17.007350841588522,-21.28871586842844,5.999999999999999,-10.991707295534557,-11.007350841588522,4.281146866874879
32,-16.47366987285755,-20.748594154384016,-16.489673437180087,-20.7647629701467,5.999999999999999,-10.473669872857549,-10.489673437180087,4.274924281526465
33,-16.026780550043338,-20.29173917045153,-15.9807594997876,-20.245807468172636,6.0,-10.026780550043338,-9.9807594997876,4.264958620408194
34,-15.352282827816287,-19.603414883751327,-15.487574129870845,-19.738691434238913,5.999999999999998,-9.352282827816289,-9.487574129870847,4.251132055935038
35,-14.971989286076502,-19.205303847334637,-15.016049890761629,-19.24921667056923,6.000000000000001,-8.9719892860765,-9.016049890761629,4.233314561258136
36,-14.467727035526636,-18.67910215302996,-14.569467065426615,-18.780533405602846,5.999999999999998,-8.467727035526638,-8.569467065426617,4.211375117503325
37,-14.211347566228206,-18.396539771165028,-14.147887638811216,-18.332584991174258,6.0,-8.211347566228206,-8.147887638811216,4.185192204936822
38,-13.745056179484166,-17.89972263062361,-13.748631728853407,-17.902597201619166,6.000000000000001,-7.745056179484165,-7.748631728853407,4.154666451139444
39,-13.342541781863563,-17.462276871709328,-13.367405977152355,-17.486221373836706,6.0,-7.342541781863563,-7.367405977152355,4.119735089845765
40,-13.117087286219382,-17.197475048138845,-12.999660635918554,-17.078907767517478,5.999999999999999,-7.117087286219383,-6.999660635918555,4.0803877619194635
41,-12.664987131377226,-16.701672043418288,-12.641618684838363,-16.67695188506739,5.999999999999999,-6.664987131377226,-6.641618684838364,4.036684912041063
42,-12.253606609959679,-16.242382037913266,-12.290661944193666,-16.27789794684818,6.000000000000003,-6.253606609959676,-6.290661944193663,3.9887754279535863
43,-11.968587896591977,-15.905501781971363,-11.945072668123139,-15.880297068607755,6.0,-5.968587896591977,-5.945072668123139,3.9369138853793864
44,-11.507815113131453,-15.389291215948813,-11.603423008839783,-15.483111465617732,6.0,-5.507815113131453,-5.603423008839783,3.881476102817359
45,-11.275601707395719,-15.09857354789479,-11.264106603189592,-15.085257809817868,5.999999999999998,-5.275601707395721,-5.264106603189594,3.8229718404990702
46,-10.98075108985025,-14.742804524974618,-10.925473510323881,-14.685749849043155,6.0,-4.98075108985025,-4.925473510323881,3.762053435124368
47,-10.585760264310078,-14.285279453037084,-10.58677553709705,-14.2846462842425,6.0,-4.585760264310078,-4.586775537097051,3.699519188727006
48,-10.311197143281692,-13.947507876585338,-10.249723607209805,-13.884604672021975,6.0,-4.311197143281692,-4.2497236072098055,3.6363107333036453
49,-9.99441549416735,-13.567919035333977,-9.920048571386017,-13.49243208141025,5.999999999999999,-3.9944154941673515,-3.920048571386018,3.573503541166627
50,-9.668724321256368,-13.18101447566545,-9.608229716181338,-13.119796376568146,5.999999999999999,-3.668724321256369,-3.608229716181339,3.5122901544090803
51,-9.395264840961977,-12.84922087956544,-9.32865341436295,-12.782360515770234,5.999999999999999,-3.3952648409619774,-3.328653414362951,3.453956038603463
52,-9.112457251904354,-12.512305603382803,-9.096920569518385,-12.497058835279969,5.999999999999999,-3.112457251904355,-3.096920569518386,3.3998483514784477
53,-8.758351363208748,-12.109689678844054,-8.925714989778715,-12.277928153739001,6.000000000000002,-2.758351363208746,-2.9257149897787134,3.351338315635306
54,-8.531947288141103,-11.841725556125176,-8.820325853895042,-12.131587940206547,6.0,-2.5319472881411027,-2.820325853895042,3.309778267984073
55,-8.53318432717201,-11.809639174034597,-8.77529588831025,-12.05384259496336,6.0,-2.5331843271720107,-2.77529588831025,3.2764548468625856
56,-8.533848468340103,-11.786388554953632,-8.77353097805341,-12.028743295737918,6.000000000000002,-2.5338484683401017,-2.773530978053408,3.2525400866135277
57,-8.772384076245055,-12.01142651006801,-8.78853618127069,-12.03077633638511,5.999999999999999,-2.7723840762450562,-2.7885361812706906,3.239042433822953
58,-8.989946028620363,-12.22670587924269,-8.789443107312035,-12.029845013084444,6.0,-2.9899460286203627,-2.789443107312035,3.2367598506223283
59,-9.218189107568646,-12.464426323347269,-8.747530362015553,-11.997748892363989,6.000000000000002,-3.2181891075686444,-2.747530362015551,3.2462372157786232
60,-8.997544014591323,-12.265274179443363,-8.642388047974677,-11.914313505044806,6.000000000000001,-2.9975440145913224,-2.642388047974676,3.26773016485204
61,-8.56291484944866,-11.864092172299525,-8.465963503632754,-11.771409520816126,6.000000000000002,-2.562914849448658,-2.465963503632752,3.301177322850865
62,-8.13469129929349,-11.480873884990192,-8.223421504852718,-11.573796206788334,6.0,-2.1346912992934897,-2.223421504852718,3.346182585696703
63,-7.850449882448927,-11.252458592332092,-7.930786809671504,-11.336758245387484,6.0,-1.8504498824489266,-1.9307868096715044,3.4020087098831655
64,-7.523091649815262,-10.990674641980556,-7.61031231766127,-11.081479916584673,5.999999999999999,-1.523091649815263,-1.610312317661271,3.4675829921652936
65,-7.112035962872423,-10.653551249611112,-7.2850840662547665,-10.82966808587975,5.999999999999999,-1.1120359628724241,-1.2850840662547673,3.541515286738689
66,-6.93131691382722,-10.553444957955335,-6.974378252911595,-10.598938865322037,6.000000000000002,-0.9313169138272182,-0.9743782529115936,3.6221280441281154
67,-6.703190386045384,-10.410687880268593,-6.690805005927945,-10.400001810014107,5.999999999999999,-0.7031903860453852,-0.6908050059279462,3.707497494223208
68,-6.3804638315774005,-10.175968397711994,-6.43955978279457,-10.235961160419517,6.000000000000001,-0.3804638315773996,-0.43955978279456875,3.7955045661345936
69,-6.230686921236933,-10.114580590663218,-6.2194505376021745,-10.103400454856574,5.999999999999999,-0.23068692123693424,-0.21945053760217537,3.8838936694262842
70,-6.039393336293007,-10.00973041727068,-6.0249855663395895,-9.994533241430615,6.0,-0.03939333629300723,-0.024985566339589482,3.970337080977672
71,-5.824948133290882,-9.877450543879036,-5.848746552220645,-9.89964197469602,6.0,0.17505186670911765,0.15125344777935457,4.052502410588154
72,-5.612296310401201,-9.740416781969508,-5.6834494297753295,-9.80920513758667,5.999999999999999,0.38770368959879775,0.3165505702246696,4.128120471568305
73,-5.62766701618895,-9.822717884087734,-5.523367585094195,-9.715384506290434,6.0,0.3723329838110496,0.4766324149058052,4.195050867898782
74,-5.413459789428628,-9.664802516787706,-5.3650360545602105,-9.61278872721046,6.000000000000001,0.5865402105713731,0.6349639454397904,4.251342727359079
75,-5.253969331672342,-9.549257584597711,-5.207316945245662,-9.498591163359091,5.999999999999998,0.7460306683276565,0.7926830547543364,4.295288252925371
76,-5.140362703066163,-9.465829821244181,-5.0509918951633415,-9.3721659071842,6.000000000000002,0.8596372969338386,0.9490081048366603,4.325467118178018
77,-4.800575129981422,-9.141355305723074,-4.89808837315738,-9.234447297082415,6.000000000000002,1.1994248700185794,1.1019116268426217,4.340780175741651
78,-4.6921354584508785,-9.032606913851879,-4.751160179728055,-9.087232373713302,5.999999999999998,1.3078645415491197,1.248839820271943,4.3404714554009995
79,-4.532188469139094,-8.85632644098639,-4.612719689930485,-8.93262342074933,6.000000000000002,1.4678115308609074,1.3872803100695164,4.3241379718472945
80,-4.5407561727901555,-8.832483583848312,-4.484944530661052,-8.772733304831117,6.0,1.4592438272098445,1.5150554693389484,4.291727411058156
81,-4.4093422082387965,-8.652866497954165,-4.369659737477821,-8.60965495827736,6.0,1.5906577917612035,1.6303402625221786,4.243524289715368
82,-4.3328813772415975,-8.51300703404069,-4.268469290662755,-8.445569447851023,6.0,1.6671186227584025,1.7315307093372452,4.180125656799094
83,-4.139229666718359,-8.241637474213277,-4.182838760409577,-8.282795293098554,6.000000000000002,1.8607703332816428,1.8171612395904244,4.102407807494919
84,-4.161879673720956,-8.173365462691578,-4.11395844597496,-8.123610125599406,6.0,1.8381203262790438,1.8860415540250397,4.011485788970623
85,-3.954684747102874,-7.863352430801411,-4.062341827271582,-7.969802436178115,6.0,2.045315252897126,1.9376581727284181,3.908667683698537
86,-3.97173580362631,-7.767141557286527,-4.027281229674934,-7.822079510200279,5.999999999999998,2.028264196373688,1.9727187703250646,3.795405753660216
87,-3.98467917330436,-7.6579256926864865,-4.006406026182431,-7.679581478735755,6.0,2.01532082669564,1.9935939738175694,3.673246519382126
88,-3.994291626757333,-7.538073365612537,-3.9955997781777755,-7.539761042239524,6.0,2.005708373242667,2.0044002218222245,3.543781738855204
89,-4.002055353237515,-7.410657409076421,-3.989415955916497,-7.398768048312343,5.999999999999999,1.997944646762484,2.0105840440835023,3.4086020558389056
90,-4.0095779483347265,-7.278832770209549,-3.9819378218942694,-7.2522792421852,6.0,1.9904220516652735,2.0180621781057306,3.2692548218748225
91,-4.018209986699636,-7.1454172681057315,-3.9678464276534755,-7.096528103788856,5.999999999999999,1.9817900133003628,2.0321535723465236,3.1272072814060956
92,-4.028926549041588,-7.012742515011224,-3.9433745207616564,-6.929203795890443,6.0,1.9710734509584116,2.0566254792383436,2.9838159659696353
93,-3.9067864522683196,-6.747089244950547,-3.906869622946321,-6.749940088474764,6.000000000000003,2.093213547731683,2.0931303770536815,2.8403027926822273
94,-3.830783966963921,-6.528521990905665,-3.8588398353024855,-6.560277181705765,6.0,2.169216033036079,2.1411601646975145,2.697738023941744
95,-3.837870654885242,-6.394900591482665,-3.801537575991583,-6.363173846149552,5.97016812527696,2.1322974703917175,2.1686305492853766,2.5570299365974236
96,-3.6429237994209753,-6.061844582944914,-3.7382706383180824,-6.162288867137472,5.906401864272611,2.2634780648516353,2.1681312259545282,2.4189207835239386
97,-3.6646225397405057,-5.948610957965645,-3.672669471698965,-5.961286326772695,5.80977038578621,2.1451478460457047,2.1371009140872452,2.2839884182251398
98,-3.685738916540249,-5.838391715690394,-3.6080889691488904,-5.763351316014216,5.6876879630798225,2.0019490465395733,2.079598993930932,2.152652799150144
99,-3.5192731948792564,-5.544459690825773,-3.5472266619899884,-5.570979541209795,5.546229466091164,2.026956271211908,1.9990028041011758,2.0251864959465165
100,-3.495630816909402,-5.397359099061278,-3.491951803993871,-5.385990528732604,5.385990528732606,1.8903597118232036,1.894038724738735,1.9017282821518755
101,-3.484123065995673,-5.2664219778190136,-3.443297229278579,-5.209657441565958,5.209657441565957,1.7255343755702843,1.766360212287378,1.7822989118233408
102,-3.3032382793778328,-4.970056512212123,-3.401568280672482,-5.042855471996285,5.042855471996284,1.7396171926184514,1.6412871913238023,1.6668182328342898
104,-3.323399288978228,-4.816557540769972,-3.366541893566787,-4.886177148938641,4.886177148938643,1.562777859960415,1.5196352553718557,1.493158251791745
105,-3.34650015022583,-4.731438520454352,-3.337733132334591,-4.740007375582855,4.740007375582855,1.393507225357025,1.402274243248264,1.3849383702285227
106,-3.372524334369576,-4.652644093975979,-3.3146833060890075,-4.604566394081825,4.604566394081826,1.2320420597122501,1.2898830879928185,1.2801197596064027
107,-3.40053569413339,-4.57892532878606,-3.29718797139029,-4.479914960589419,4.479914960589418,1.0793792664560278,1.1827269891991277,1.1783896346526697
108,-3.2312388532307565,-4.310655306543975,-3.285366378399045,-4.3658952844770305,4.365895284477032,1.1346564312462757,1.080528906077987,1.0794164533132178
109,-3.228216283435497,-4.2110794454506735,-3.279503954330373,-4.261982299397376,4.261982299397376,1.033766015961879,0.9824783450670029,0.9828631620151764
110,-3.2527341851182077,-4.141133016618208,-3.279680203821305,-4.167056990776302,4.167056990776302,0.9143228056580948,0.8873767869549973,0.8883988315000004
111,-3.273816838325351,-4.069525474927488,-3.2852970555599867,-4.079173578738146,4.079173578738146,0.8053567404127953,0.7938765231781595,0.7957086366021369
112,-3.2912135996516794,-3.995715780855998,-3.2946980590525916,-3.995440814520829,3.9954408145208284,0.7042272148691491,0.7007427554682368,0.7045021812043191
113,-3.3049582831754107,-3.9194784844290544,-3.3050747383749957,-3.912140882327642,3.912140882327641,0.6071825991522304,0.6070661439526455,0.6145202012536437
114,-3.3151017767023516,-3.840641474021232,-3.312777498971326,-3.825151629972111,3.8251516299721113,0.5100498532697597,0.5123741310007852,0.5255396973188802
115,-3.3216146962699273,-3.7589922538543843,-3.3140069408135666,-3.7306322323596772,3.7306322323596777,0.40901753608975033,0.41662529154611105,0.43737755758445696
117,-3.3245014257573997,-3.6196814461600466,-3.3057100304003204,-3.625817977483315,3.6258179774833135,0.30131655172591376,0.32010794708299306,0.2951800204026471
118,-3.324002665090128,-3.5334016161995576,-3.2864069327198377,-3.5096964311718053,3.509696431171804,0.18569376608167598,0.22328949845196622,0.20939895110942963
119,-3.3207024163511387,-3.4448904182782876,-3.256672878041919,-3.3833420771945995,3.383342077194599,0.06263966084346029,0.12666919915267982,0.12418800192714885
120,-3.3067737472365444,-3.346298834318483,-3.2191002206222783,-3.249774962338727,3.249774962338726,-0.0569987848978184,0.030674741716447684,0.0395250870819388
121,-3.0819346074503122,-3.0373607500163526,-3.1777328456668106,-3.11335182486179,3.1133518248617906,0.031417217411478404,-0.06438102080501995,-0.04457385743395981
123,-3.074429457637126,-2.898972402566251,-3.137137332167731,-2.978845500530835,2.9788455005308343,-0.09558395710629153,-0.15829183163689686,-0.17545705507087472
124,-3.0677701996702122,-2.810828492060951,-3.101389020245298,-2.850466243862229,2.850466243862229,-0.21730395580798323,-0.25092277638306903,-0.2569417076092615
125,-3.0615127982997477,-2.723893444672064,-3.0732656510377048,-2.731091065696247,2.731091065696247,-0.33042173260350083,-0.34217458534145795,-0.3376193536276837
126,-3.0559470896992,-2.638574261407136,-3.0538551887700365,-2.6218910340897006,2.6218910340897,-0.43405605560949967,-0.43196415468033633,-0.4173728282920637
128,-3.0513680875502223,-2.5144720452244256,-3.0426359836407735,-2.5224129313864907,2.5224129313864916,-0.5289551561637307,-0.5202230522542819,-0.5368960423257965
129,-3.048004450288667,-2.434904243554913,-3.037935303970956,-2.431031569821192,2.4310315698211924,-0.6169728804674746,-0.6069037341497636,-0.6131002067337539
130,-3.045908292909077,-2.3579182541085233,-3.0375705242783066,-2.3455909234103087,2.3455909234103096,-0.7003173694987672,-0.691979600867997,-0.6879900388005535
131,-3.044908771593999,-2.283471683557285,-3.039455578352888,-2.264024795391046,2.264024795391046,-0.7808839762029529,-0.7754307829618421,-0.7614370880367138
133,-3.044682241202348,-2.1769079772371605,-3.0420102709904846,-2.1847919099152966,2.184791909915297,-0.8598903312870512,-0.8572183610751876,-0.8677742639651878
134,-3.044904941198478,-2.108127421773535,-3.044309124570434,-2.1070502706089815,2.107050270608982,-0.9378546705894961,-0.9372588539614521,-0.9367775194249435
135,-3.0453927474097613,-2.0413437680229354,-3.0460051443183103,-2.030592163876981,2.0305921638769813,-1.01480058353278,-1.015412980441329,-1.0040489793868261
137,-3.04613343963634,-1.9468653641873588,-3.047126150309155,-1.9556292602503922,1.955629260250392,-1.090504179385948,-1.091496890058763,-1.0992680754489812
138,-3.0471823931678417,-1.8854043612298206,-3.047853324326039,-1.8825396671273669,1.882539667127367,-1.1646427260404746,-1.1653136571986717,-1.161778031938021
140,-3.048489078341787,-1.7995392478610213,-3.048361526490104,-1.8116685039588918,1.8116685039588916,-1.2368205743828953,-1.2366930225312123,-1.2489498304807656
141,-3.0497871003457533,-1.7430773784997124,-3.048751111853863,-1.743227898896294,1.743227898896294,-1.3065592014494594,-1.305523212957569,-1.3067097218460408
142,-3.0506593625353875,-1.6880407081907087,-3.049056123188471,-1.6772937910000847,1.677293791000085,-1.3733655715353026,-1.3717623321883863,-1.3626186543446788
144,-3.050776643450267,-1.611453268422869,-3.0492901488150714,-1.6138639302446567,1.6138639302446565,-1.4369127132056103,-1.435426218570415,-1.4393233750273977
145,-3.0501659272922335,-1.559512122702591,-3.04949148588804,-1.5529315548096843,1.5529315548096843,-1.4972343724825492,-1.496559931078356,-1.4906538045896425
147,-3.049305191163361,-1.4890620367725118,-3.049745264920619,-1.4945390311665256,1.4945390311665259,-1.5547661599968352,-1.555206233754093,-1.5602431543908493
148,-3.0489339808821105,-1.4417566164586333,-3.050179648651858,-1.4387954941240015,1.4387954941240013,-1.6101384867581092,-1.6113841545278567,-1.6071773644234773
150,-3.04966685736232,-1.3795829200677932,-3.05094667377489,-1.3858619368983054,1.3858619368983054,-1.6638049204640146,-1.6650847368765844,-1.6700839372945269
151,-3.051656280902987,-1.3389044433606716,-3.05220156793876,-1.335919123194965,1.3359191231949654,-1.7157371577080216,-1.7162824447437948,-1.7127518375423154
153,-3.0545437706737006,-1.2852315650348727,-3.054089161192471,-1.2891355121875567,1.2891355121875567,-1.765408258486144,-1.7649536490049145,-1.769312205638828
154,-3.05774997746455,-1.2500093646081498,-3.05673762846583,-1.2456462602679834,1.2456462602679834,-1.8121037171965666,-1.8110913681978467,-1.8077406128564002
156,-3.060917719643013,-1.2027610223672025,-3.060253711290991,-1.2055452246537386,1.2055452246537386,-1.8553724949892745,-1.8547084866372523,-1.8581566972758106
157,-3.0642103119016944,-1.1719572142021195,-3.0647126726383407,-1.1688846463956404,1.1688846463956402,-1.8953256655060542,-1.8958280262427005,-1.8922530976995748
159,-3.068260073167317,-1.1316652284903408,-3.070140179386107,-1.1356747034461527,1.1356747034461527,-1.9325853697211643,-1.9344654759399544,-1.9365948446769763
160,-3.0737903708030814,-1.1076170677439845,-3.076489393367972,-1.1058775054628873,1.1058775054628873,-1.967912865340194,-1.9706118879050847,-1.9661733030590969
162,-3.081144196793151,-1.0767190975766465,-3.0836214337970587,-1.0793953171130508,1.079395317113051,-2.0017488796801004,-2.0042261166840074,-2.0044250992165047
