frequency,raw,smoothed,error,error_smoothed,equalization,parametric_eq,fixed_band_eq,equalized_raw,equalized_smoothed,target
20.00,-9.05,-9.05,-14.03,-14.03,6.00,6.38,2.85,-3.05,-3.05,4.97
20.20,-8.96,-8.96,-13.97,-13.96,6.00,6.38,2.94,-2.96,-2.96,5.00
20.40,-8.86,-8.86,-13.89,-13.90,6.00,6.37,3.02,-2.86,-2.86,5.03
20.61,-8.77,-8.77,-13.83,-13.83,6.00,6.37,3.11,-2.77,-2.77,5.05
20.81,-8.67,-8.67,-13.75,-13.76,6.00,6.36,3.19,-2.67,-2.67,5.08
21.02,-8.58,-8.58,-13.69,-13.69,6.00,6.36,3.28,-2.58,-2.58,5.11
21.23,-8.48,-8.48,-13.60,-13.61,6.00,6.35,3.38,-2.48,-2.48,5.12
21.44,-8.39,-8.39,-13.52,-13.52,6.00,6.34,3.47,-2.39,-2.39,5.13
21.66,-8.29,-8.29,-13.43,-13.43,6.00,6.34,3.57,-2.29,-2.29,5.14
21.87,-8.18,-8.18,-13.32,-13.33,6.00,6.33,3.68,-2.18,-2.18,5.14
22.09,-8.07,-8.07,-13.22,-13.22,6.00,6.32,3.78,-2.07,-2.07,5.15
22.31,-7.95,-7.95,-13.10,-13.10,6.00,6.32,3.89,-1.95,-1.95,5.15
22.54,-7.82,-7.82,-12.97,-12.97,6.00,6.31,4.00,-1.82,-1.82,5.15
22.76,-7.69,-7.69,-12.84,-12.84,6.00,6.30,4.11,-1.69,-1.69,5.15
22.99,-7.56,-7.56,-12.70,-12.70,6.00,6.29,4.23,-1.56,-1.56,5.14
23.22,-7.42,-7.43,-12.56,-12.56,6.00,6.29,4.35,-1.42,-1.43,5.14
23.45,-7.30,-7.30,-12.44,-12.43,6.00,6.28,4.47,-1.30,-1.30,5.14
23.69,-7.18,-7.18,-12.32,-12.31,6.00,6.27,4.59,-1.18,-1.18,5.13
23.92,-7.06,-7.06,-12.19,-12.20,6.00,6.26,4.72,-1.06,-1.06,5.13
24.16,-6.95,-6.95,-12.09,-12.09,6.00,6.25,4.85,-0.95,-0.95,5.14
24.40,-6.84,-6.84,-11.98,-11.98,6.00,6.25,4.98,-0.84,-0.84,5.14
24.65,-6.73,-6.73,-11.86,-11.87,6.00,6.24,5.11,-0.73,-0.73,5.13
24.89,-6.62,-6.62,-11.75,-11.75,6.00,6.23,5.24,-0.62,-0.62,5.13
25.14,-6.50,-6.50,-11.63,-11.63,6.00,6.22,5.38,-0.50,-0.50,5.13
25.39,-6.38,-6.38,-11.51,-11.51,6.00,6.21,5.52,-0.38,-0.38,5.13
25.65,-6.25,-6.25,-11.38,-11.37,6.00,6.20,5.66,-0.25,-0.25,5.13
25.91,-6.12,-6.12,-11.24,-11.24,6.00,6.19,5.80,-0.12,-0.12,5.12
26.16,-5.99,-6.00,-11.11,-11.11,6.00,6.18,5.93,0.01,0.00,5.12
26.43,-5.88,-5.88,-11.00,-10.99,6.00,6.17,6.07,0.12,0.12,5.11
26.69,-5.78,-5.78,-10.89,-10.89,6.00,6.16,6.21,0.22,0.22,5.11
26.96,-5.68,-5.69,-10.79,-10.80,6.00,6.15,6.35,0.32,0.31,5.11
27.23,-5.61,-5.61,-10.72,-10.72,6.00,6.14,6.48,0.39,0.39,5.11
27.50,-5.54,-5.54,-10.65,-10.65,6.00,6.13,6.61,0.46,0.46,5.11
27.77,-5.47,-5.47,-10.57,-10.57,6.00,6.11,6.73,0.53,0.53,5.10
28.05,-5.39,-5.39,-10.49,-10.48,6.00,6.10,6.85,0.61,0.61,5.10
28.33,-5.30,-5.30,-10.39,-10.39,6.00,6.09,6.97,0.70,0.70,5.08
28.62,-5.19,-5.19,-10.28,-10.28,6.00,6.08,7.08,0.81,0.81,5.08
28.90,-5.08,-5.08,-10.16,-10.16,6.00,6.06,7.18,0.92,0.92,5.08
29.19,-4.96,-4.96,-10.03,-10.04,6.00,6.05,7.27,1.04,1.04,5.07
29.48,-4.84,-4.85,-9.92,-9.92,6.00,6.04,7.35,1.16,1.15,5.08
29.78,-4.74,-4.74,-9.81,-9.81,6.00,6.02,7.43,1.26,1.26,5.07
30.08,-4.65,-4.66,-9.72,-9.72,6.00,6.01,7.48,1.35,1.34,5.06
30.38,-4.58,-4.58,-9.64,-9.64,6.00,5.99,7.54,1.42,1.42,5.05
30.68,-4.51,-4.51,-9.56,-9.56,6.00,5.98,7.57,1.49,1.49,5.05
30.99,-4.43,-4.43,-9.47,-9.47,6.00,5.96,7.60,1.57,1.57,5.04
31.30,-4.33,-4.33,-9.37,-9.37,6.00,5.95,7.61,1.67,1.67,5.04
31.61,-4.22,-4.22,-9.26,-9.25,6.00,5.93,7.61,1.78,1.78,5.03
31.93,-4.09,-4.09,-9.12,-9.11,6.00,5.91,7.60,1.91,1.91,5.02
32.24,-3.95,-3.95,-8.96,-8.97,6.00,5.90,7.58,2.05,2.05,5.01
32.57,-3.81,-3.81,-8.82,-8.82,6.00,5.88,7.54,2.19,2.19,5.01
32.89,-3.67,-3.68,-8.67,-8.68,6.00,5.86,7.49,2.33,2.32,5.00
33.22,-3.55,-3.55,-8.54,-8.54,6.00,5.84,7.43,2.45,2.45,4.99
33.55,-3.43,-3.43,-8.42,-8.42,6.00,5.82,7.36,2.57,2.57,4.99
33.89,-3.31,-3.31,-8.29,-8.29,6.00,5.80,7.28,2.69,2.69,4.98
34.23,-3.20,-3.20,-8.18,-8.17,6.00,5.78,7.20,2.80,2.80,4.97
34.57,-3.08,-3.08,-8.04,-8.04,6.00,5.76,7.11,2.92,2.92,4.96
34.92,-2.97,-2.97,-7.92,-7.92,6.00,5.74,7.01,3.03,3.03,4.95
35.27,-2.87,-2.87,-7.82,-7.81,6.00,5.72,6.90,3.13,3.13,4.94
35.62,-2.77,-2.78,-7.70,-7.71,6.00,5.70,6.80,3.23,3.22,4.93
35.97,-2.69,-2.69,-7.61,-7.61,6.00,5.68,6.68,3.31,3.31,4.92
36.33,-2.61,-2.61,-7.52,-7.52,6.00,5.65,6.57,3.39,3.39,4.91
36.70,-2.53,-2.53,-7.43,-7.43,6.00,5.63,6.45,3.47,3.47,4.90
37.06,-2.45,-2.45,-7.33,-7.33,6.00,5.60,6.33,3.55,3.55,4.88
37.43,-2.35,-2.35,-7.23,-7.23,6.00,5.58,6.21,3.65,3.65,4.88
37.81,-2.25,-2.25,-7.12,-7.11,6.00,5.55,6.10,3.75,3.75,4.87
38.19,-2.14,-2.14,-6.99,-7.00,6.00,5.53,5.98,3.86,3.86,4.85
38.57,-2.04,-2.05,-6.89,-6.89,6.00,5.50,5.86,3.96,3.95,4.85
38.95,-1.96,-1.96,-6.79,-6.79,6.00,5.47,5.74,4.04,4.04,4.83
39.34,-1.88,-1.88,-6.70,-6.70,6.00,5.44,5.63,4.12,4.12,4.82
39.74,-1.80,-1.80,-6.60,-6.61,6.00,5.41,5.52,4.20,4.20,4.80
40.14,-1.72,-1.73,-6.52,-6.52,6.01,5.38,5.41,4.29,4.28,4.80
40.54,-1.65,-1.64,-6.43,-6.43,6.02,5.35,5.30,4.36,4.37,4.78
40.94,-1.56,-1.56,-6.34,-6.33,6.02,5.32,5.20,4.46,4.46,4.77
41.35,-1.47,-1.48,-6.23,-6.24,6.01,5.29,5.09,4.54,4.53,4.76
41.76,-1.39,-1.39,-6.14,-6.14,5.99,5.25,4.99,4.60,4.60,4.75
42.18,-1.30,-1.30,-6.05,-6.04,5.96,5.22,4.90,4.66,4.66,4.75
42.60,-1.22,-1.22,-5.95,-5.96,5.91,5.18,4.81,4.69,4.69,4.73
43.03,-1.14,-1.14,-5.86,-5.86,5.85,5.15,4.72,4.71,4.71,4.72
43.46,-1.07,-1.07,-5.78,-5.77,5.77,5.11,4.63,4.70,4.71,4.71
43.90,-0.99,-0.99,-5.67,-5.67,5.69,5.07,4.55,4.69,4.69,4.68
44.33,-0.91,-0.91,-5.57,-5.57,5.59,5.03,4.47,4.68,4.68,4.66
44.78,-0.83,-0.83,-5.47,-5.47,5.48,4.99,4.40,4.65,4.65,4.64
45.23,-0.75,-0.75,-5.38,-5.37,5.38,4.95,4.33,4.63,4.63,4.62
45.68,-0.67,-0.67,-5.28,-5.28,5.28,4.91,4.26,4.61,4.61,4.60
46.13,-0.59,-0.59,-5.18,-5.18,5.18,4.87,4.19,4.59,4.59,4.59
46.60,-0.51,-0.51,-5.09,-5.08,5.09,4.83,4.13,4.58,4.58,4.58
47.06,-0.43,-0.43,-4.99,-4.99,4.99,4.78,4.07,4.56,4.56,4.56
47.53,-0.36,-0.36,-4.90,-4.90,4.90,4.74,4.02,4.53,4.54,4.54
48.01,-0.28,-0.28,-4.81,-4.80,4.80,4.69,3.96,4.52,4.52,4.53
48.49,-0.21,-0.21,-4.71,-4.71,4.70,4.64,3.91,4.49,4.49,4.50
48.97,-0.14,-0.14,-4.61,-4.61,4.60,4.59,3.87,4.46,4.46,4.46
49.46,-0.07,-0.07,-4.50,-4.50,4.51,4.54,3.82,4.44,4.44,4.43
49.96,-0.00,0.00,-4.40,-4.41,4.41,4.49,3.78,4.41,4.41,4.40
50.46,0.08,0.07,-4.31,-4.31,4.31,4.44,3.74,4.39,4.39,4.39
50.96,0.15,0.15,-4.22,-4.21,4.21,4.39,3.70,4.36,4.36,4.37
51.47,0.22,0.22,-4.12,-4.12,4.12,4.33,3.67,4.34,4.34,4.33
51.99,0.29,0.29,-4.02,-4.03,4.03,4.28,3.63,4.32,4.31,4.31
52.51,0.35,0.35,-3.95,-3.94,3.94,4.22,3.60,4.29,4.29,4.30
53.03,0.42,0.42,-3.85,-3.86,3.86,4.16,3.57,4.28,4.27,4.27
53.56,0.48,0.48,-3.77,-3.77,3.78,4.11,3.54,4.25,4.25,4.25
54.10,0.53,0.53,-3.69,-3.69,3.70,4.05,3.51,4.23,4.23,4.22
54.64,0.58,0.58,-3.62,-3.62,3.62,3.99,3.49,4.20,4.20,4.20
55.18,0.62,0.62,-3.55,-3.55,3.54,3.92,3.46,4.16,4.17,4.17
55.74,0.67,0.67,-3.47,-3.48,3.47,3.86,3.43,4.14,4.14,4.14
56.29,0.72,0.72,-3.41,-3.40,3.40,3.80,3.41,4.11,4.11,4.12
56.86,0.77,0.77,-3.33,-3.33,3.32,3.73,3.38,4.09,4.09,4.10
57.42,0.82,0.82,-3.25,-3.25,3.25,3.67,3.35,4.07,4.07,4.07
58.00,0.88,0.87,-3.17,-3.17,3.18,3.60,3.33,4.06,4.05,4.05
58.58,0.92,0.92,-3.11,-3.11,3.11,3.54,3.30,4.03,4.03,4.03
59.16,0.97,0.96,-3.04,-3.04,3.05,3.47,3.27,4.01,4.01,4.01
59.76,1.00,1.00,-2.99,-2.99,2.98,3.40,3.24,3.98,3.98,3.99
60.35,1.03,1.03,-2.93,-2.93,2.93,3.33,3.21,3.95,3.96,3.96
60.96,1.06,1.06,-2.87,-2.87,2.87,3.27,3.18,3.93,3.93,3.93
61.57,1.08,1.08,-2.81,-2.82,2.82,3.20,3.14,3.90,3.90,3.89
62.18,1.09,1.09,-2.77,-2.77,2.77,3.13,3.11,3.86,3.86,3.86
62.80,1.10,1.10,-2.73,-2.72,2.73,3.06,3.07,3.83,3.83,3.83
63.43,1.12,1.11,-2.68,-2.68,2.68,2.99,3.03,3.80,3.80,3.80
64.07,1.13,1.13,-2.64,-2.64,2.64,2.92,3.00,3.77,3.77,3.77
64.71,1.14,1.14,-2.61,-2.60,2.60,2.85,2.95,3.74,3.74,3.74
65.35,1.16,1.16,-2.56,-2.56,2.56,2.78,2.91,3.72,3.72,3.72
66.01,1.17,1.17,-2.52,-2.52,2.52,2.71,2.87,3.69,3.69,3.69
66.67,1.18,1.18,-2.48,-2.48,2.48,2.64,2.82,3.66,3.66,3.66
67.33,1.19,1.19,-2.44,-2.44,2.44,2.57,2.77,3.62,3.63,3.63
68.01,1.21,1.21,-2.39,-2.39,2.39,2.50,2.72,3.60,3.60,3.60
68.69,1.22,1.22,-2.35,-2.35,2.35,2.43,2.67,3.57,3.57,3.57
69.37,1.24,1.24,-2.30,-2.30,2.30,2.37,2.62,3.54,3.54,3.54
70.07,1.25,1.25,-2.25,-2.26,2.25,2.30,2.57,3.50,3.50,3.50
70.77,1.27,1.27,-2.21,-2.21,2.20,2.23,2.52,3.47,3.47,3.48
71.48,1.29,1.29,-2.16,-2.16,2.15,2.17,2.47,3.44,3.44,3.45
72.19,1.31,1.31,-2.10,-2.10,2.11,2.11,2.41,3.42,3.41,3.41
72.91,1.32,1.32,-2.06,-2.06,2.06,2.05,2.36,3.38,3.38,3.37
73.64,1.33,1.33,-2.01,-2.01,2.01,1.99,2.31,3.34,3.34,3.34
74.38,1.34,1.34,-1.97,-1.97,1.97,1.93,2.25,3.31,3.31,3.31
75.12,1.35,1.35,-1.92,-1.92,1.92,1.87,2.20,3.27,3.27,3.27
75.87,1.36,1.36,-1.88,-1.88,1.88,1.82,2.15,3.24,3.24,3.24
76.63,1.37,1.37,-1.84,-1.84,1.84,1.76,2.09,3.21,3.21,3.21
77.40,1.37,1.37,-1.81,-1.80,1.80,1.71,2.04,3.17,3.18,3.18
78.17,1.38,1.38,-1.76,-1.77,1.77,1.66,1.99,3.14,3.15,3.14
78.95,1.39,1.38,-1.73,-1.73,1.73,1.62,1.94,3.12,3.11,3.12
79.74,1.39,1.39,-1.69,-1.69,1.69,1.57,1.89,3.08,3.08,3.08
80.54,1.39,1.39,-1.66,-1.66,1.66,1.53,1.84,3.05,3.05,3.05
81.35,1.39,1.39,-1.62,-1.63,1.63,1.48,1.79,3.01,3.01,3.01
82.16,1.39,1.39,-1.59,-1.59,1.59,1.44,1.75,2.98,2.98,2.98
82.98,1.38,1.38,-1.57,-1.56,1.56,1.40,1.70,2.94,2.95,2.95
83.81,1.38,1.38,-1.53,-1.53,1.53,1.37,1.65,2.91,2.91,2.90
84.65,1.37,1.37,-1.50,-1.50,1.50,1.33,1.61,2.87,2.87,2.87
85.50,1.36,1.36,-1.48,-1.47,1.47,1.30,1.56,2.83,2.83,2.84
86.35,1.36,1.35,-1.44,-1.44,1.44,1.27,1.52,2.80,2.79,2.80
87.22,1.35,1.35,-1.41,-1.41,1.41,1.24,1.48,2.76,2.76,2.76
88.09,1.34,1.34,-1.38,-1.38,1.38,1.21,1.44,2.72,2.72,2.72
88.97,1.34,1.33,-1.35,-1.35,1.35,1.19,1.40,2.68,2.68,2.69
89.86,1.33,1.33,-1.32,-1.32,1.32,1.16,1.36,2.65,2.64,2.65
90.76,1.31,1.31,-1.29,-1.29,1.29,1.14,1.32,2.60,2.61,2.59
91.66,1.30,1.30,-1.26,-1.26,1.27,1.11,1.29,2.57,2.57,2.56
92.58,1.28,1.28,-1.23,-1.24,1.25,1.09,1.25,2.53,2.52,2.51
93.51,1.25,1.25,-1.23,-1.22,1.23,1.07,1.22,2.48,2.48,2.47
94.44,1.22,1.22,-1.21,-1.21,1.21,1.05,1.18,2.42,2.42,2.43
95.39,1.19,1.19,-1.20,-1.20,1.18,1.03,1.15,2.37,2.37,2.39
96.34,1.16,1.16,-1.17,-1.17,1.16,1.01,1.12,2.32,2.32,2.33
97.30,1.14,1.14,-1.15,-1.14,1.14,1.00,1.08,2.28,2.28,2.29
98.28,1.13,1.13,-1.11,-1.11,1.11,0.98,1.05,2.24,2.24,2.24
99.26,1.12,1.11,-1.08,-1.08,1.08,0.96,1.02,2.20,2.20,2.20
100.25,1.10,1.10,-1.05,-1.05,1.06,0.95,1.00,2.16,2.16,2.15
101.25,1.08,1.08,-1.03,-1.02,1.03,0.93,0.97,2.11,2.11,2.10
102.27,1.06,1.05,-1.00,-1.00,1.01,0.92,0.94,2.06,2.06,2.06
103.29,1.03,1.03,-0.97,-0.98,0.98,0.90,0.91,2.01,2.01,2.00
104.32,1.00,1.00,-0.97,-0.96,0.96,0.89,0.89,1.96,1.96,1.96
105.37,0.98,0.97,-0.94,-0.94,0.94,0.88,0.86,1.91,1.91,1.92
106.42,0.95,0.95,-0.92,-0.92,0.91,0.86,0.84,1.86,1.86,1.87
107.48,0.93,0.93,-0.90,-0.89,0.89,0.85,0.82,1.82,1.82,1.83
108.56,0.91,0.91,-0.86,-0.86,0.87,0.84,0.79,1.78,1.78,1.77
109.64,0.89,0.88,-0.84,-0.84,0.84,0.82,0.77,1.73,1.73,1.72
110.74,0.86,0.86,-0.82,-0.82,0.82,0.81,0.75,1.68,1.68,1.68
111.85,0.83,0.83,-0.80,-0.79,0.79,0.79,0.73,1.62,1.62,1.63
112.97,0.81,0.81,-0.76,-0.77,0.77,0.78,0.71,1.57,1.57,1.57
114.10,0.78,0.78,-0.74,-0.74,0.74,0.77,0.69,1.52,1.52,1.52
115.24,0.75,0.75,-0.72,-0.72,0.72,0.75,0.67,1.47,1.47,1.47
116.39,0.72,0.72,-0.69,-0.69,0.70,0.74,0.65,1.41,1.41,1.41
117.55,0.69,0.69,-0.67,-0.67,0.67,0.73,0.63,1.36,1.36,1.36
118.73,0.66,0.66,-0.65,-0.65,0.66,0.71,0.62,1.31,1.31,1.30
119.92,0.62,0.62,-0.64,-0.63,0.64,0.70,0.60,1.25,1.26,1.26
121.12,0.59,0.59,-0.62,-0.62,0.62,0.69,0.59,1.21,1.21,1.21
122.33,0.56,0.56,-0.60,-0.60,0.60,0.67,0.57,1.16,1.16,1.16
123.55,0.53,0.53,-0.59,-0.58,0.58,0.66,0.55,1.11,1.11,1.11
124.79,0.50,0.50,-0.56,-0.56,0.56,0.65,0.54,1.06,1.06,1.06
126.03,0.47,0.47,-0.54,-0.54,0.54,0.63,0.53,1.00,1.01,1.01
127.29,0.45,0.45,-0.51,-0.51,0.51,0.62,0.51,0.96,0.96,0.96
128.57,0.42,0.42,-0.48,-0.49,0.49,0.61,0.50,0.91,0.91,0.90
129.85,0.39,0.39,-0.47,-0.46,0.47,0.60,0.49,0.86,0.86,0.85
131.15,0.36,0.36,-0.45,-0.45,0.45,0.58,0.48,0.81,0.81,0.81
132.46,0.33,0.33,-0.43,-0.43,0.43,0.57,0.47,0.76,0.76,0.76
133.79,0.30,0.30,-0.42,-0.42,0.41,0.56,0.45,0.71,0.71,0.72
135.12,0.27,0.27,-0.40,-0.40,0.40,0.55,0.44,0.66,0.67,0.67
136.48,0.24,0.24,-0.39,-0.39,0.38,0.53,0.43,0.62,0.62,0.63
137.84,0.22,0.22,-0.37,-0.36,0.37,0.52,0.42,0.59,0.59,0.59
139.22,0.19,0.19,-0.34,-0.35,0.36,0.51,0.41,0.55,0.55,0.53
140.61,0.16,0.16,-0.33,-0.34,0.35,0.50,0.41,0.51,0.50,0.49
142.02,0.12,0.12,-0.35,-0.34,0.34,0.49,0.40,0.46,0.46,0.47
143.44,0.09,0.09,-0.34,-0.34,0.33,0.48,0.39,0.42,0.42,0.43
144.87,0.06,0.06,-0.33,-0.33,0.33,0.47,0.38,0.39,0.39,0.39
146.32,0.02,0.02,-0.33,-0.33,0.33,0.46,0.37,0.35,0.35,0.35
147.78,-0.01,-0.01,-0.33,-0.33,0.33,0.45,0.36,0.31,0.31,0.32
149.26,-0.05,-0.05,-0.33,-0.33,0.32,0.44,0.36,0.27,0.27,0.28
150.75,-0.08,-0.08,-0.31,-0.32,0.32,0.43,0.35,0.24,0.24,0.23
152.26,-0.12,-0.12,-0.32,-0.32,0.32,0.42,0.34,0.20,0.20,0.20
153.78,-0.15,-0.15,-0.31,-0.31,0.32,0.41,0.34,0.16,0.16,0.16
155.32,-0.19,-0.19,-0.31,-0.31,0.31,0.41,0.33,0.12,0.12,0.12
156.88,-0.23,-0.23,-0.31,-0.31,0.31,0.40,0.32,0.08,0.08,0.08
158.44,-0.26,-0.27,-0.30,-0.30,0.30,0.39,0.32,0.04,0.04,0.04
160.03,-0.30,-0.30,-0.30,-0.30,0.30,0.38,0.31,-0.01,-0.00,-0.00
161.63,-0.33,-0.33,-0.29,-0.29,0.28,0.38,0.31,-0.05,-0.05,-0.04
163.24,-0.36,-0.36,-0.28,-0.28,0.27,0.37,0.30,-0.09,-0.09,-0.08
164.88,-0.38,-0.38,-0.27,-0.26,0.26,0.37,0.30,-0.12,-0.12,-0.11
166.53,-0.39,-0.40,-0.24,-0.24,0.24,0.36,0.29,-0.15,-0.16,-0.15
168.19,-0.41,-0.41,-0.22,-0.22,0.22,0.36,0.29,-0.19,-0.19,-0.19
169.87,-0.43,-0.43,-0.20,-0.20,0.20,0.35,0.28,-0.23,-0.23,-0.23
171.57,-0.45,-0.45,-0.19,-0.19,0.19,0.35,0.28,-0.27,-0.27,-0.27
173.29,-0.47,-0.47,-0.17,-0.17,0.17,0.35,0.27,-0.30,-0.30,-0.30
175.02,-0.50,-0.50,-0.16,-0.16,0.16,0.34,0.27,-0.34,-0.34,-0.34
176.77,-0.53,-0.53,-0.15,-0.15,0.16,0.34,0.26,-0.37,-0.38,-0.38
178.54,-0.57,-0.57,-0.14,-0.15,0.16,0.34,0.26,-0.41,-0.41,-0.43
180.32,-0.61,-0.61,-0.15,-0.15,0.16,0.34,0.25,-0.45,-0.45,-0.46
182.13,-0.66,-0.67,-0.17,-0.17,0.17,0.34,0.25,-0.49,-0.50,-0.49
183.95,-0.72,-0.72,-0.19,-0.18,0.18,0.34,0.25,-0.54,-0.54,-0.53
185.79,-0.77,-0.77,-0.21,-0.20,0.19,0.34,0.24,-0.58,-0.58,-0.57
187.65,-0.81,-0.82,-0.20,-0.21,0.21,0.34,0.24,-0.60,-0.61,-0.61
189.52,-0.86,-0.86,-0.22,-0.22,0.22,0.34,0.23,-0.64,-0.64,-0.64
191.42,-0.90,-0.90,-0.24,-0.24,0.24,0.34,0.23,-0.66,-0.67,-0.67
193.33,-0.95,-0.95,-0.26,-0.26,0.25,0.34,0.23,-0.70,-0.70,-0.70
195.27,-0.99,-0.99,-0.27,-0.27,0.26,0.34,0.22,-0.73,-0.73,-0.72
197.22,-1.03,-1.03,-0.28,-0.28,0.28,0.34,0.22,-0.75,-0.76,-0.75
199.19,-1.07,-1.07,-0.28,-0.29,0.29,0.35,0.22,-0.78,-0.78,-0.79
201.18,-1.11,-1.11,-0.31,-0.30,0.31,0.35,0.22,-0.80,-0.80,-0.80
203.19,-1.14,-1.14,-0.32,-0.32,0.32,0.35,0.21,-0.82,-0.82,-0.82
205.23,-1.18,-1.18,-0.33,-0.34,0.34,0.35,0.21,-0.84,-0.84,-0.85
207.28,-1.22,-1.22,-0.37,-0.36,0.36,0.36,0.21,-0.86,-0.86,-0.85
209.35,-1.26,-1.26,-0.39,-0.38,0.38,0.36,0.21,-0.88,-0.88,-0.88
211.44,-1.30,-1.30,-0.40,-0.41,0.41,0.37,0.21,-0.90,-0.89,-0.90
213.56,-1.33,-1.34,-0.43,-0.43,0.43,0.37,0.20,-0.90,-0.90,-0.90
215.69,-1.37,-1.37,-0.46,-0.46,0.46,0.38,0.20,-0.91,-0.91,-0.91
217.85,-1.41,-1.41,-0.49,-0.49,0.49,0.38,0.20,-0.92,-0.92,-0.92
220.03,-1.44,-1.44,-0.51,-0.51,0.52,0.39,0.20,-0.92,-0.92,-0.93
222.23,-1.48,-1.48,-0.54,-0.55,0.56,0.40,0.20,-0.92,-0.93,-0.94
224.45,-1.52,-1.52,-0.59,-0.58,0.59,0.40,0.20,-0.93,-0.93,-0.94
226.70,-1.56,-1.56,-0.62,-0.62,0.62,0.41,0.20,-0.94,-0.94,-0.94
228.96,-1.58,-1.58,-0.64,-0.65,0.64,0.42,0.20,-0.94,-0.94,-0.94
231.25,-1.60,-1.60,-0.67,-0.67,0.66,0.42,0.20,-0.94,-0.94,-0.93
233.57,-1.61,-1.61,-0.68,-0.68,0.67,0.43,0.20,-0.94,-0.94,-0.93
235.90,-1.60,-1.60,-0.67,-0.67,0.66,0.44,0.21,-0.94,-0.94,-0.93
238.26,-1.57,-1.58,-0.64,-0.65,0.64,0.45,0.21,-0.93,-0.94,-0.93
240.64,-1.54,-1.54,-0.63,-0.62,0.61,0.46,0.21,-0.94,-0.93,-0.92
243.05,-1.48,-1.48,-0.58,-0.58,0.56,0.46,0.22,-0.92,-0.92,-0.90
245.48,-1.41,-1.41,-0.52,-0.52,0.51,0.47,0.22,-0.90,-0.90,-0.89
247.93,-1.33,-1.33,-0.45,-0.45,0.46,0.48,0.22,-0.87,-0.87,-0.88
250.41,-1.25,-1.26,-0.37,-0.39,0.41,0.49,0.23,-0.85,-0.85,-0.88
252.92,-1.19,-1.19,-0.33,-0.34,0.36,0.50,0.24,-0.83,-0.83,-0.86
255.45,-1.14,-1.14,-0.31,-0.30,0.32,0.51,0.24,-0.82,-0.82,-0.83
258.00,-1.09,-1.10,-0.27,-0.28,0.28,0.52,0.25,-0.81,-0.81,-0.82
260.58,-1.06,-1.06,-0.25,-0.25,0.26,0.53,0.26,-0.81,-0.80,-0.81
263.19,-1.02,-1.02,-0.24,-0.24,0.23,0.54,0.26,-0.79,-0.80,-0.78
265.82,-0.99,-0.99,-0.22,-0.22,0.20,0.55,0.27,-0.79,-0.78,-0.77
268.48,-0.94,-0.94,-0.19,-0.19,0.17,0.56,0.28,-0.77,-0.77,-0.75
271.16,-0.88,-0.88,-0.16,-0.16,0.14,0.57,0.29,-0.74,-0.75,-0.72
273.87,-0.82,-0.82,-0.11,-0.11,0.10,0.59,0.30,-0.72,-0.72,-0.71
276.61,-0.75,-0.75,-0.07,-0.07,0.06,0.60,0.31,-0.69,-0.69,-0.68
279.38,-0.69,-0.69,-0.02,-0.02,0.03,0.61,0.32,-0.66,-0.66,-0.67
282.17,-0.64,-0.64,0.01,0.01,0.01,0.62,0.33,-0.64,-0.63,-0.65
284.99,-0.60,-0.60,0.03,0.03,-0.01,0.63,0.35,-0.61,-0.61,-0.63
287.84,-0.58,-0.58,0.03,0.03,-0.01,0.65,0.36,-0.60,-0.60,-0.61
290.72,-0.58,-0.58,0.01,0.01,-0.01,0.66,0.37,-0.59,-0.58,-0.59
293.63,-0.59,-0.59,-0.02,-0.02,0.02,0.67,0.39,-0.57,-0.57,-0.57
296.57,-0.60,-0.61,-0.05,-0.05,0.05,0.68,0.40,-0.55,-0.55,-0.55
299.53,-0.63,-0.63,-0.10,-0.10,0.10,0.70,0.41,-0.53,-0.53,-0.53
302.53,-0.66,-0.66,-0.15,-0.15,0.15,0.71,0.43,-0.51,-0.51,-0.52
305.55,-0.70,-0.70,-0.22,-0.21,0.21,0.72,0.44,-0.49,-0.48,-0.48
308.61,-0.73,-0.73,-0.27,-0.28,0.27,0.74,0.46,-0.46,-0.46,-0.46
311.69,-0.77,-0.77,-0.34,-0.34,0.34,0.75,0.48,-0.44,-0.44,-0.44
314.81,-0.81,-0.81,-0.41,-0.40,0.40,0.76,0.49,-0.42,-0.41,-0.40
317.96,-0.84,-0.85,-0.46,-0.46,0.45,0.78,0.51,-0.39,-0.39,-0.38
321.14,-0.88,-0.88,-0.52,-0.51,0.51,0.79,0.53,-0.37,-0.37,-0.37
324.35,-0.91,-0.91,-0.56,-0.56,0.56,0.81,0.55,-0.35,-0.35,-0.35
327.59,-0.93,-0.94,-0.61,-0.61,0.61,0.82,0.57,-0.32,-0.33,-0.32
330.87,-0.96,-0.96,-0.66,-0.65,0.66,0.83,0.59,-0.31,-0.30,-0.30
334.18,-0.98,-0.98,-0.69,-0.70,0.70,0.85,0.61,-0.28,-0.28,-0.29
337.52,-1.00,-1.01,-0.73,-0.74,0.74,0.86,0.63,-0.26,-0.26,-0.27
340.90,-1.03,-1.03,-0.79,-0.78,0.78,0.88,0.65,-0.25,-0.25,-0.24
344.30,-1.05,-1.05,-0.83,-0.83,0.82,0.89,0.67,-0.23,-0.23,-0.23
347.75,-1.07,-1.07,-0.86,-0.87,0.86,0.91,0.69,-0.21,-0.21,-0.21
351.23,-1.09,-1.09,-0.90,-0.90,0.90,0.93,0.72,-0.19,-0.19,-0.19
354.74,-1.11,-1.11,-0.94,-0.94,0.94,0.94,0.74,-0.17,-0.17,-0.17
358.28,-1.13,-1.13,-0.98,-0.98,0.98,0.96,0.77,-0.15,-0.15,-0.15
361.87,-1.15,-1.15,-1.02,-1.02,1.01,0.97,0.79,-0.14,-0.14,-0.14
365.49,-1.17,-1.17,-1.05,-1.05,1.05,0.99,0.82,-0.12,-0.12,-0.12
369.14,-1.19,-1.19,-1.08,-1.08,1.08,1.01,0.84,-0.11,-0.11,-0.11
372.83,-1.20,-1.21,-1.11,-1.11,1.11,1.02,0.87,-0.09,-0.09,-0.09
376.56,-1.22,-1.22,-1.14,-1.14,1.14,1.04,0.89,-0.08,-0.08,-0.08
380.33,-1.23,-1.23,-1.18,-1.17,1.17,1.06,0.92,-0.06,-0.06,-0.06
384.13,-1.24,-1.24,-1.19,-1.19,1.19,1.07,0.95,-0.05,-0.05,-0.05
387.97,-1.25,-1.25,-1.21,-1.22,1.21,1.09,0.98,-0.04,-0.04,-0.04
391.85,-1.26,-1.26,-1.23,-1.23,1.24,1.11,1.01,-0.02,-0.02,-0.03
395.77,-1.27,-1.27,-1.26,-1.26,1.26,1.13,1.03,-0.01,-0.01,-0.01
399.73,-1.28,-1.28,-1.28,-1.28,1.28,1.14,1.06,-0.00,-0.00,-0.00
403.72,-1.29,-1.29,-1.30,-1.30,1.30,1.16,1.09,0.01,0.01,0.01
407.76,-1.30,-1.30,-1.32,-1.32,1.32,1.18,1.12,0.02,0.02,0.01
411.84,-1.31,-1.31,-1.34,-1.34,1.34,1.20,1.15,0.03,0.03,0.03
415.96,-1.32,-1.32,-1.36,-1.36,1.36,1.22,1.18,0.04,0.04,0.04
420.12,-1.32,-1.32,-1.37,-1.38,1.37,1.24,1.21,0.05,0.05,0.05
424.32,-1.33,-1.33,-1.39,-1.39,1.39,1.25,1.24,0.06,0.06,0.06
428.56,-1.33,-1.33,-1.40,-1.40,1.41,1.27,1.27,0.07,0.07,0.07
432.85,-1.34,-1.34,-1.42,-1.42,1.42,1.29,1.30,0.08,0.08,0.08
437.18,-1.34,-1.34,-1.43,-1.43,1.43,1.31,1.32,0.09,0.09,0.09
441.55,-1.34,-1.34,-1.45,-1.44,1.44,1.33,1.35,0.10,0.10,0.11
445.96,-1.34,-1.34,-1.46,-1.46,1.45,1.35,1.38,0.11,0.11,0.11
450.42,-1.34,-1.34,-1.47,-1.47,1.46,1.37,1.40,0.12,0.12,0.12
454.93,-1.33,-1.33,-1.47,-1.47,1.48,1.38,1.43,0.14,0.14,0.14
459.48,-1.33,-1.33,-1.48,-1.48,1.49,1.40,1.45,0.16,0.16,0.15
464.07,-1.32,-1.32,-1.49,-1.50,1.50,1.42,1.47,0.18,0.18,0.17
468.71,-1.32,-1.32,-1.51,-1.51,1.51,1.44,1.49,0.19,0.19,0.19
473.40,-1.32,-1.32,-1.52,-1.52,1.53,1.46,1.51,0.20,0.20,0.20
478.13,-1.32,-1.32,-1.54,-1.54,1.54,1.47,1.53,0.22,0.22,0.22
482.91,-1.32,-1.32,-1.55,-1.55,1.55,1.49,1.54,0.23,0.23,0.23
487.74,-1.32,-1.32,-1.57,-1.57,1.56,1.50,1.56,0.24,0.24,0.25
492.62,-1.31,-1.32,-1.58,-1.58,1.57,1.52,1.57,0.26,0.26,0.27
497.55,-1.31,-1.31,-1.59,-1.59,1.58,1.53,1.58,0.27,0.27,0.28
502.52,-1.30,-1.30,-1.60,-1.59,1.59,1.55,1.59,0.29,0.29,0.30
