frequency,raw,smoothed,error,error_smoothed,equalization,parametric_eq,fixed_band_eq,equalized_raw,equalized_smoothed,target
20.00,-23.29,-23.31,-26.70,-26.71,6.00,5.98,2.72,-17.29,-17.31,3.41
20.20,-23.15,-23.14,-26.59,-26.58,6.00,5.98,2.80,-17.15,-17.14,3.44
20.40,-23.00,-22.99,-26.47,-26.45,6.00,5.98,2.88,-17.00,-16.99,3.47
20.61,-22.86,-22.85,-26.35,-26.34,6.00,5.98,2.96,-16.86,-16.85,3.49
20.81,-22.71,-22.71,-26.23,-26.23,6.00,5.98,3.04,-16.71,-16.71,3.52
21.02,-22.58,-22.61,-26.13,-26.15,6.00,5.99,3.13,-16.58,-16.61,3.55
21.23,-22.54,-22.53,-26.10,-26.09,6.00,5.99,3.22,-16.54,-16.53,3.56
21.44,-22.49,-22.49,-26.06,-26.05,6.00,5.99,3.31,-16.49,-16.49,3.57
21.66,-22.45,-22.45,-26.03,-26.03,6.00,5.99,3.40,-16.45,-16.45,3.58
21.87,-22.41,-22.41,-25.98,-25.98,6.00,5.99,3.50,-16.41,-16.41,3.58
22.09,-22.35,-22.34,-25.93,-25.93,6.00,5.99,3.60,-16.35,-16.34,3.58
22.31,-22.27,-22.27,-25.85,-25.85,6.00,5.99,3.70,-16.27,-16.27,3.58
22.54,-22.18,-22.18,-25.77,-25.77,6.00,5.99,3.80,-16.18,-16.18,3.58
22.76,-22.10,-22.10,-25.68,-25.68,6.00,6.00,3.91,-16.10,-16.10,3.58
22.99,-22.01,-22.02,-25.58,-25.59,6.00,6.00,4.02,-16.01,-16.02,3.57
23.22,-21.94,-21.94,-25.51,-25.51,6.00,6.00,4.13,-15.94,-15.94,3.57
23.45,-21.86,-21.86,-25.43,-25.43,6.00,6.00,4.25,-15.86,-15.86,3.57
23.69,-21.78,-21.78,-25.35,-25.35,6.00,6.00,4.37,-15.78,-15.78,3.57
23.92,-21.70,-21.70,-25.27,-25.27,6.00,6.00,4.48,-15.70,-15.70,3.57
24.16,-21.61,-21.61,-25.19,-25.18,6.00,6.00,4.61,-15.61,-15.61,3.58
24.40,-21.51,-21.51,-25.09,-25.08,6.00,6.00,4.73,-15.51,-15.51,3.58
24.65,-21.41,-21.41,-24.98,-24.98,6.00,6.01,4.86,-15.41,-15.41,3.57
24.89,-21.30,-21.30,-24.86,-24.87,6.00,6.01,4.98,-15.30,-15.30,3.57
25.14,-21.20,-21.20,-24.76,-24.76,6.00,6.01,5.11,-15.20,-15.20,3.56
25.39,-21.09,-21.09,-24.65,-24.65,6.00,6.01,5.24,-15.09,-15.09,3.56
25.65,-20.99,-20.98,-24.55,-24.54,6.00,6.01,5.37,-14.99,-14.98,3.56
25.91,-20.88,-20.89,-24.43,-24.45,6.00,6.01,5.51,-14.88,-14.89,3.55
26.16,-20.82,-20.83,-24.37,-24.38,6.00,6.01,5.64,-14.82,-14.83,3.55
26.43,-20.80,-20.80,-24.35,-24.35,6.00,6.02,5.77,-14.80,-14.80,3.55
26.69,-20.78,-20.78,-24.33,-24.33,6.00,6.02,5.90,-14.78,-14.78,3.55
26.96,-20.75,-20.74,-24.30,-24.29,6.00,6.02,6.03,-14.75,-14.74,3.55
27.23,-20.67,-20.67,-24.22,-24.22,6.00,6.02,6.15,-14.67,-14.67,3.55
27.50,-20.58,-20.59,-24.12,-24.13,6.00,6.02,6.28,-14.58,-14.59,3.54
27.77,-20.49,-20.49,-24.02,-24.02,6.00,6.02,6.40,-14.49,-14.49,3.53
28.05,-20.38,-20.38,-23.91,-23.90,6.00,6.02,6.52,-14.38,-14.38,3.53
28.33,-20.25,-20.25,-23.77,-23.77,6.00,6.03,6.62,-14.25,-14.25,3.52
28.62,-20.11,-20.11,-23.63,-23.63,6.00,6.03,6.73,-14.11,-14.11,3.52
28.90,-19.97,-19.98,-23.49,-23.49,6.00,6.03,6.83,-13.97,-13.98,3.52
29.19,-19.86,-19.87,-23.37,-23.38,6.00,6.03,6.92,-13.86,-13.87,3.50
29.48,-19.78,-19.77,-23.29,-23.28,6.00,6.03,7.01,-13.78,-13.77,3.51
29.78,-19.69,-19.69,-23.19,-23.19,6.00,6.03,7.09,-13.69,-13.69,3.50
30.08,-19.61,-19.61,-23.11,-23.11,6.00,6.04,7.15,-13.61,-13.61,3.50
30.38,-19.54,-19.54,-23.03,-23.03,6.00,6.04,7.21,-13.54,-13.54,3.49
30.68,-19.47,-19.47,-22.96,-22.95,6.00,6.04,7.26,-13.47,-13.47,3.49
30.99,-19.40,-19.40,-22.87,-22.88,6.00,6.04,7.30,-13.40,-13.40,3.47
31.30,-19.33,-19.34,-22.80,-22.81,6.00,6.04,7.32,-13.33,-13.34,3.47
31.61,-19.27,-19.27,-22.74,-22.73,6.00,6.04,7.34,-13.27,-13.27,3.47
31.93,-19.20,-19.20,-22.66,-22.65,6.00,6.04,7.35,-13.20,-13.20,3.46
32.24,-19.12,-19.12,-22.56,-22.57,6.00,6.05,7.35,-13.12,-13.12,3.44
32.57,-19.03,-19.04,-22.47,-22.48,6.00,6.05,7.33,-13.03,-13.04,3.44
32.89,-18.95,-18.94,-22.39,-22.38,6.00,6.05,7.31,-12.95,-12.94,3.44
33.22,-18.85,-18.84,-22.28,-22.27,6.00,6.05,7.28,-12.85,-12.84,3.43
33.55,-18.75,-18.75,-22.17,-22.17,6.00,6.05,7.25,-12.75,-12.75,3.42
33.89,-18.65,-18.67,-22.06,-22.08,6.00,6.05,7.20,-12.65,-12.67,3.41
34.23,-18.62,-18.64,-22.03,-22.04,6.00,6.06,7.15,-12.62,-12.64,3.41
34.57,-18.62,-18.62,-22.02,-22.02,6.00,6.06,7.09,-12.62,-12.62,3.39
34.92,-18.62,-18.59,-22.00,-21.98,6.00,6.06,7.03,-12.62,-12.59,3.38
35.27,-18.52,-18.51,-21.90,-21.88,6.00,6.06,6.96,-12.52,-12.51,3.38
35.62,-18.38,-18.39,-21.75,-21.76,6.00,6.06,6.89,-12.38,-12.39,3.36
35.97,-18.25,-18.27,-21.60,-21.63,6.00,6.06,6.82,-12.25,-12.27,3.35
36.33,-18.19,-18.19,-21.54,-21.53,6.00,6.06,6.75,-12.19,-12.19,3.35
36.70,-18.13,-18.13,-21.46,-21.46,6.00,6.07,6.67,-12.13,-12.13,3.33
37.06,-18.07,-18.06,-21.39,-21.38,6.00,6.07,6.60,-12.07,-12.06,3.32
37.43,-17.98,-17.98,-21.29,-21.29,6.00,6.07,6.52,-11.98,-11.98,3.31
37.81,-17.88,-17.89,-21.18,-21.19,6.00,6.07,6.45,-11.88,-11.89,3.30
38.19,-17.79,-17.79,-21.08,-21.08,6.00,6.07,6.37,-11.79,-11.79,3.29
38.57,-17.70,-17.70,-20.98,-20.98,6.00,6.07,6.30,-11.70,-11.70,3.28
38.95,-17.62,-17.62,-20.89,-20.88,6.00,6.07,6.23,-11.62,-11.62,3.27
39.34,-17.54,-17.53,-20.79,-20.79,6.00,6.08,6.16,-11.54,-11.53,3.25
39.74,-17.46,-17.47,-20.70,-20.71,6.00,6.08,6.10,-11.46,-11.47,3.24
40.14,-17.41,-17.44,-20.64,-20.67,6.00,6.08,6.04,-11.41,-11.44,3.23
40.54,-17.41,-17.42,-20.63,-20.63,6.00,6.08,5.98,-11.41,-11.42,3.22
40.94,-17.41,-17.34,-20.62,-20.55,6.00,6.08,5.92,-11.41,-11.34,3.21
41.35,-17.22,-17.21,-20.41,-20.41,6.00,6.08,5.87,-11.22,-11.21,3.19
41.76,-17.00,-17.04,-20.19,-20.22,6.00,6.08,5.82,-11.00,-11.04,3.19
42.18,-16.86,-16.88,-20.04,-20.05,6.00,6.08,5.78,-10.86,-10.88,3.18
42.60,-16.80,-16.79,-19.96,-19.96,6.00,6.08,5.74,-10.80,-10.79,3.16
43.03,-16.75,-16.76,-19.91,-19.92,6.00,6.08,5.70,-10.75,-10.76,3.16
43.46,-16.75,-16.75,-19.89,-19.89,6.00,6.08,5.67,-10.75,-10.75,3.14
43.90,-16.75,-16.72,-19.86,-19.84,6.00,6.08,5.64,-10.75,-10.72,3.11
44.33,-16.67,-16.66,-19.76,-19.76,6.00,6.09,5.62,-10.67,-10.66,3.09
44.78,-16.56,-16.58,-19.64,-19.65,6.00,6.09,5.60,-10.56,-10.58,3.08
45.23,-16.47,-16.48,-19.53,-19.53,6.00,6.09,5.59,-10.47,-10.48,3.06
45.68,-16.39,-16.39,-19.43,-19.43,6.00,6.09,5.58,-10.39,-10.39,3.04
46.13,-16.31,-16.32,-19.33,-19.34,6.00,6.09,5.57,-10.31,-10.32,3.02
46.60,-16.23,-16.23,-19.24,-19.23,6.00,6.09,5.57,-10.23,-10.23,3.01
47.06,-16.13,-16.08,-19.12,-19.07,6.00,6.09,5.57,-10.13,-10.08,2.99
47.53,-15.94,-15.94,-18.91,-18.91,6.00,6.09,5.57,-9.94,-9.94,2.97
48.01,-15.76,-15.86,-18.72,-18.82,6.00,6.09,5.58,-9.76,-9.86,2.96
48.49,-15.85,-15.85,-18.78,-18.78,6.00,6.08,5.59,-9.85,-9.85,2.93
48.97,-15.94,-15.86,-18.84,-18.76,6.00,6.08,5.61,-9.94,-9.86,2.90
49.46,-15.85,-15.85,-18.72,-18.72,6.00,6.08,5.63,-9.85,-9.85,2.87
49.96,-15.75,-15.78,-18.59,-18.62,6.00,6.08,5.65,-9.75,-9.78,2.84
50.46,-15.67,-15.67,-18.50,-18.49,6.00,6.08,5.68,-9.67,-9.67,2.82
50.96,-15.60,-15.59,-18.40,-18.39,6.00,6.08,5.71,-9.60,-9.59,2.80
51.47,-15.51,-15.51,-18.28,-18.28,6.00,6.08,5.74,-9.51,-9.51,2.77
51.99,-15.42,-15.43,-18.17,-18.18,6.00,6.08,5.77,-9.42,-9.43,2.75
52.51,-15.35,-15.35,-18.08,-18.08,6.00,6.08,5.80,-9.35,-9.35,2.73
53.03,-15.28,-15.28,-17.99,-17.98,6.00,6.07,5.84,-9.28,-9.28,2.71
53.56,-15.21,-15.21,-17.89,-17.89,6.00,6.07,5.87,-9.21,-9.21,2.68
54.10,-15.14,-15.14,-17.80,-17.80,6.00,6.07,5.91,-9.14,-9.14,2.66
54.64,-15.08,-15.09,-17.71,-17.72,6.00,6.07,5.95,-9.08,-9.09,2.63
55.18,-15.02,-15.03,-17.62,-17.63,6.00,6.07,5.99,-9.02,-9.03,2.60
55.74,-14.97,-14.92,-17.55,-17.50,6.00,6.06,6.02,-8.97,-8.92,2.58
56.29,-14.85,-14.82,-17.41,-17.37,6.00,6.06,6.06,-8.85,-8.82,2.56
56.86,-14.68,-14.81,-17.21,-17.34,6.00,6.06,6.09,-8.68,-8.81,2.53
57.42,-14.81,-14.85,-17.31,-17.36,6.00,6.05,6.13,-8.81,-8.85,2.50
58.00,-15.04,-14.89,-17.52,-17.38,6.00,6.05,6.16,-9.04,-8.89,2.48
58.58,-14.87,-14.86,-17.33,-17.32,6.00,6.05,6.18,-8.87,-8.86,2.46
59.16,-14.69,-14.71,-17.13,-17.15,6.00,6.04,6.21,-8.69,-8.71,2.44
59.76,-14.51,-14.55,-16.93,-16.98,6.00,6.04,6.23,-8.51,-8.55,2.42
60.35,-14.50,-14.54,-16.89,-16.94,6.00,6.03,6.24,-8.50,-8.54,2.39
60.96,-14.63,-14.63,-17.00,-16.99,6.00,6.03,6.26,-8.63,-8.63,2.37
61.57,-14.75,-14.72,-17.07,-17.04,6.00,6.02,6.27,-8.75,-8.72,2.32
62.18,-14.78,-14.72,-17.07,-17.01,6.00,6.02,6.27,-8.78,-8.72,2.29
62.80,-14.59,-14.62,-16.86,-16.88,6.00,6.01,6.27,-8.59,-8.62,2.27
63.43,-14.45,-14.46,-16.68,-16.69,6.00,6.01,6.27,-8.45,-8.46,2.23
64.07,-14.33,-14.31,-16.54,-16.51,6.00,6.00,6.26,-8.33,-8.31,2.20
64.71,-14.21,-14.30,-16.39,-16.48,6.00,6.00,6.25,-8.21,-8.30,2.18
65.35,-14.26,-14.29,-16.41,-16.44,6.00,5.99,6.23,-8.26,-8.29,2.15
66.01,-14.43,-14.23,-16.55,-16.35,6.00,5.98,6.21,-8.43,-8.23,2.12
66.67,-14.10,-14.20,-16.20,-16.30,6.00,5.98,6.19,-8.10,-8.20,2.09
67.33,-14.02,-14.15,-16.09,-16.21,6.00,5.97,6.16,-8.02,-8.15,2.06
68.01,-14.21,-14.08,-16.24,-16.11,6.00,5.96,6.13,-8.21,-8.08,2.03
68.69,-14.07,-14.07,-16.07,-16.07,6.00,5.96,6.10,-8.07,-8.07,2.00
69.37,-13.95,-13.97,-15.92,-15.94,6.00,5.95,6.06,-7.95,-7.97,1.97
70.07,-13.84,-13.81,-15.78,-15.75,6.00,5.94,6.03,-7.84,-7.81,1.94
70.77,-13.66,-13.71,-15.57,-15.62,6.00,5.93,5.99,-7.66,-7.71,1.91
71.48,-13.62,-13.64,-15.50,-15.51,6.00,5.93,5.96,-7.62,-7.64,1.88
72.19,-13.62,-13.59,-15.46,-15.44,6.00,5.92,5.92,-7.62,-7.59,1.84
72.91,-13.57,-13.57,-15.38,-15.37,6.00,5.91,5.88,-7.57,-7.57,1.81
73.64,-13.51,-13.52,-15.28,-15.29,6.00,5.90,5.85,-7.51,-7.52,1.77
74.38,-13.45,-13.45,-15.19,-15.19,6.00,5.90,5.81,-7.45,-7.45,1.74
75.12,-13.39,-13.40,-15.10,-15.11,6.00,5.89,5.78,-7.39,-7.40,1.71
75.87,-13.33,-13.35,-15.01,-15.03,6.00,5.88,5.75,-7.33,-7.35,1.68
76.63,-13.30,-13.22,-14.95,-14.86,6.00,5.87,5.71,-7.30,-7.22,1.65
77.40,-13.11,-13.09,-14.73,-14.70,6.00,5.86,5.69,-7.11,-7.09,1.61
78.17,-12.87,-13.03,-14.44,-14.61,6.00,5.85,5.66,-6.87,-7.03,1.57
78.95,-13.01,-12.99,-14.56,-14.54,6.00,5.85,5.64,-7.01,-6.99,1.55
79.74,-13.10,-12.94,-14.62,-14.45,6.00,5.84,5.62,-7.10,-6.94,1.52
80.54,-12.83,-12.89,-14.31,-14.37,6.00,5.83,5.61,-6.83,-6.89,1.48
81.35,-12.64,-12.71,-14.09,-14.16,6.00,5.82,5.59,-6.64,-6.71,1.45
82.16,-12.70,-12.61,-14.11,-14.02,6.00,5.82,5.59,-6.70,-6.61,1.41
82.98,-12.49,-12.64,-13.88,-14.01,6.00,5.81,5.58,-6.49,-6.64,1.39
83.81,-12.73,-12.68,-14.07,-14.03,6.00,5.80,5.58,-6.73,-6.68,1.34
84.65,-12.73,-12.65,-14.03,-13.95,6.00,5.80,5.58,-6.73,-6.65,1.30
85.50,-12.56,-12.53,-13.83,-13.80,6.00,5.79,5.59,-6.56,-6.53,1.27
86.35,-12.30,-12.39,-13.53,-13.62,6.00,5.79,5.60,-6.30,-6.39,1.23
87.22,-12.14,-12.23,-13.34,-13.43,6.00,5.78,5.62,-6.14,-6.23,1.19
88.09,-12.30,-12.07,-13.45,-13.22,6.00,5.78,5.64,-6.30,-6.07,1.15
88.97,-11.91,-12.03,-13.03,-13.14,6.00,5.77,5.66,-5.91,-6.03,1.12
89.86,-11.84,-12.02,-12.92,-13.10,6.00,5.77,5.69,-5.84,-6.02,1.08
90.76,-12.16,-11.95,-13.19,-12.99,6.00,5.77,5.72,-6.16,-5.95,1.03
91.66,-11.99,-11.93,-12.99,-12.92,6.00,5.76,5.76,-5.99,-5.93,1.00
92.58,-11.69,-11.82,-12.63,-12.77,6.00,5.76,5.80,-5.69,-5.82,0.94
93.51,-11.65,-11.64,-12.56,-12.55,6.00,5.76,5.85,-5.65,-5.64,0.91
94.44,-11.62,-11.58,-12.49,-12.44,6.00,5.76,5.90,-5.62,-5.58,0.87
95.39,-11.51,-11.58,-12.33,-12.39,6.00,5.76,5.95,-5.51,-5.58,0.82
96.34,-11.55,-11.48,-12.32,-12.25,6.00,5.76,6.01,-5.55,-5.48,0.77
97.30,-11.45,-11.40,-12.17,-12.12,6.00,5.77,6.06,-5.45,-5.40,0.72
98.28,-11.22,-11.37,-11.90,-12.05,6.00,5.77,6.13,-5.22,-5.37,0.68
99.26,-11.34,-11.25,-11.97,-11.88,6.00,5.78,6.19,-5.34,-5.25,0.63
100.25,-11.31,-11.24,-11.89,-11.82,6.00,5.78,6.26,-5.31,-5.24,0.58
101.25,-11.02,-11.21,-11.56,-11.75,6.00,5.79,6.33,-5.02,-5.21,0.54
102.27,-11.28,-11.07,-11.77,-11.56,6.00,5.80,6.41,-5.28,-5.07,0.49
103.29,-10.97,-11.02,-11.41,-11.46,6.00,5.81,6.48,-4.97,-5.02,0.44
104.32,-10.87,-11.08,-11.27,-11.48,6.00,5.82,6.56,-4.87,-5.08,0.40
105.37,-11.19,-11.02,-11.54,-11.37,6.00,5.83,6.64,-5.19,-5.02,0.35
106.42,-11.13,-11.00,-11.44,-11.31,6.00,5.84,6.71,-5.13,-5.00,0.31
107.48,-10.77,-10.95,-11.03,-11.21,6.00,5.86,6.79,-4.77,-4.95,0.26
108.56,-10.82,-10.85,-11.02,-11.06,6.00,5.87,6.86,-4.82,-4.85,0.20
109.64,-10.91,-10.83,-11.07,-10.99,6.00,5.89,6.94,-4.91,-4.83,0.16
110.74,-10.87,-10.87,-10.98,-10.98,6.00,5.91,7.01,-4.87,-4.87,0.11
111.85,-10.82,-10.84,-10.89,-10.90,6.00,5.93,7.08,-4.82,-4.84,0.07
112.97,-10.78,-10.79,-10.78,-10.79,6.00,5.95,7.14,-4.78,-4.79,0.00
114.10,-10.74,-10.72,-10.70,-10.68,6.00,5.97,7.20,-4.74,-4.72,-0.04
115.24,-10.67,-10.65,-10.57,-10.55,6.00,5.99,7.25,-4.67,-4.65,-0.10
116.39,-10.56,-10.61,-10.41,-10.45,6.00,6.01,7.30,-4.56,-4.61,-0.15
117.55,-10.55,-10.58,-10.34,-10.37,6.00,6.04,7.33,-4.55,-4.58,-0.21
118.73,-10.57,-10.52,-10.31,-10.26,6.00,6.06,7.36,-4.57,-4.52,-0.26
119.92,-10.46,-10.39,-10.16,-10.08,6.00,6.09,7.38,-4.46,-4.39,-0.30
121.12,-10.17,-10.23,-9.81,-9.87,6.00,6.11,7.40,-4.17,-4.23,-0.36
122.33,-10.02,-10.08,-9.61,-9.67,6.00,6.14,7.40,-4.02,-4.08,-0.41
123.55,-10.00,-9.99,-9.55,-9.53,6.00,6.17,7.39,-4.00,-3.99,-0.45
124.79,-9.99,-9.95,-9.49,-9.45,6.00,6.19,7.37,-3.99,-3.95,-0.50
126.03,-9.89,-9.89,-9.34,-9.34,6.00,6.22,7.34,-3.89,-3.89,-0.55
127.29,-9.78,-9.79,-9.18,-9.18,6.00,6.24,7.30,-3.78,-3.79,-0.60
128.57,-9.69,-9.72,-9.03,-9.06,6.00,6.27,7.25,-3.69,-3.72,-0.66
129.85,-9.59,-9.61,-8.88,-8.90,6.00,6.29,7.19,-3.59,-3.61,-0.71
131.15,-9.59,-9.41,-8.83,-8.65,6.00,6.31,7.12,-3.59,-3.41,-0.76
132.46,-9.19,-9.31,-8.38,-8.51,6.00,6.33,7.04,-3.19,-3.31,-0.81
133.79,-9.05,-9.25,-8.21,-8.40,6.00,6.35,6.95,-3.05,-3.25,-0.84
135.12,-9.41,-9.15,-8.51,-8.25,6.00,6.36,6.85,-3.41,-3.15,-0.90
136.48,-9.14,-9.09,-8.21,-8.15,6.00,6.38,6.75,-3.14,-3.09,-0.93
137.84,-8.82,-9.02,-7.84,-8.03,6.00,6.39,6.64,-2.82,-3.02,-0.98
139.22,-8.90,-8.92,-7.87,-7.89,6.00,6.40,6.53,-2.90,-2.92,-1.03
140.61,-9.00,-8.87,-7.93,-7.81,6.00,6.40,6.41,-3.00,-2.87,-1.08
142.02,-8.90,-8.87,-7.80,-7.77,6.00,6.40,6.28,-2.90,-2.87,-1.10
143.44,-8.66,-8.84,-7.52,-7.70,6.00,6.39,6.15,-2.66,-2.84,-1.14
144.87,-8.81,-8.72,-7.63,-7.54,6.00,6.39,6.02,-2.81,-2.72,-1.18
146.32,-8.72,-8.58,-7.50,-7.37,6.00,6.37,5.89,-2.72,-2.58,-1.22
147.78,-8.34,-8.48,-7.09,-7.23,6.00,6.35,5.75,-2.34,-2.48,-1.25
149.26,-8.29,-8.35,-7.01,-7.06,6.00,6.33,5.62,-2.29,-2.35,-1.29
150.75,-8.36,-8.28,-7.03,-6.96,6.00,6.30,5.48,-2.36,-2.28,-1.33
152.26,-8.29,-8.27,-6.92,-6.90,6.00,6.27,5.34,-2.29,-2.27,-1.37
153.78,-8.18,-8.21,-6.78,-6.80,6.00,6.23,5.21,-2.18,-2.21,-1.40
155.32,-8.10,-8.11,-6.65,-6.66,6.00,6.18,5.07,-2.10,-2.11,-1.45
156.88,-8.03,-8.02,-6.55,-6.53,6.00,6.13,4.94,-2.03,-2.02,-1.48
158.44,-7.94,-7.93,-6.41,-6.40,6.00,6.07,4.81,-1.94,-1.93,-1.53
160.03,-7.82,-7.83,-6.25,-6.27,6.00,6.01,4.68,-1.82,-1.83,-1.57
161.63,-7.75,-7.75,-6.14,-6.14,6.01,5.94,4.55,-1.74,-1.74,-1.61
163.24,-7.69,-7.67,-6.04,-6.03,6.03,5.87,4.42,-1.66,-1.65,-1.65
164.88,-7.68,-7.68,-6.00,-6.00,6.03,5.79,4.30,-1.65,-1.65,-1.68
166.53,-7.68,-7.80,-5.96,-6.08,6.02,5.71,4.18,-1.66,-1.78,-1.72
168.19,-7.94,-7.90,-6.18,-6.15,5.99,5.63,4.06,-1.95,-1.91,-1.76
169.87,-8.09,-7.94,-6.30,-6.14,5.94,5.54,3.94,-2.15,-1.99,-1.80
171.57,-7.81,-7.89,-5.98,-6.06,5.89,5.44,3.83,-1.92,-1.99,-1.83
173.29,-7.68,-7.72,-5.81,-5.85,5.83,5.34,3.72,-1.86,-1.90,-1.87
175.02,-7.58,-7.53,-5.68,-5.63,5.73,5.24,3.61,-1.86,-1.81,-1.90
176.77,-7.44,-7.46,-5.49,-5.51,5.58,5.14,3.50,-1.86,-1.88,-1.95
178.54,-7.34,-7.43,-5.35,-5.44,5.41,5.03,3.40,-1.93,-2.02,-1.99
180.32,-7.44,-7.37,-5.41,-5.35,5.24,4.92,3.30,-2.20,-2.14,-2.03
182.13,-7.33,-7.25,-5.27,-5.19,5.07,4.80,3.20,-2.26,-2.18,-2.06
183.95,-7.00,-7.01,-4.90,-4.92,4.92,4.69,3.11,-2.08,-2.09,-2.10
185.79,-6.71,-6.74,-4.58,-4.61,4.78,4.57,3.01,-1.93,-1.97,-2.13
187.65,-6.53,-6.61,-4.36,-4.44,4.63,4.46,2.92,-1.90,-1.98,-2.17
189.52,-6.61,-6.63,-4.41,-4.43,4.48,4.34,2.84,-2.13,-2.15,-2.20
191.42,-6.74,-6.68,-4.51,-4.45,4.33,4.22,2.75,-2.41,-2.35,-2.23
193.33,-6.70,-6.62,-4.44,-4.36,4.20,4.10,2.67,-2.50,-2.42,-2.26
195.27,-6.43,-6.41,-4.14,-4.12,4.07,3.98,2.58,-2.36,-2.34,-2.29
197.22,-6.12,-6.21,-3.80,-3.89,3.94,3.86,2.51,-2.18,-2.27,-2.32
199.19,-6.00,-6.10,-3.65,-3.76,3.79,3.73,2.43,-2.21,-2.31,-2.35
201.18,-6.15,-6.05,-3.78,-3.67,3.65,3.61,2.35,-2.50,-2.40,-2.37
203.19,-6.03,-5.94,-3.64,-3.55,3.51,3.49,2.28,-2.52,-2.43,-2.39
205.23,-5.73,-5.76,-3.32,-3.35,3.39,3.37,2.21,-2.34,-2.36,-2.41
207.28,-5.48,-5.56,-3.06,-3.13,3.29,3.25,2.14,-2.19,-2.27,-2.42
209.35,-5.47,-5.52,-3.03,-3.07,3.19,3.13,2.07,-2.28,-2.32,-2.44
211.44,-5.58,-5.58,-3.12,-3.13,3.09,3.01,2.00,-2.49,-2.49,-2.47
213.56,-5.72,-5.63,-3.25,-3.16,2.99,2.90,1.93,-2.73,-2.64,-2.47
215.69,-5.56,-5.53,-3.09,-3.05,2.89,2.78,1.86,-2.67,-2.64,-2.47
217.85,-5.30,-5.29,-2.82,-2.80,2.78,2.66,1.80,-2.52,-2.51,-2.49
220.03,-4.98,-5.06,-2.48,-2.56,2.66,2.55,1.73,-2.32,-2.40,-2.50
222.23,-4.87,-4.95,-2.36,-2.45,2.54,2.43,1.67,-2.33,-2.41,-2.51
224.45,-4.96,-4.89,-2.46,-2.38,2.41,2.32,1.61,-2.55,-2.48,-2.50
226.70,-4.88,-4.78,-2.38,-2.28,2.26,2.20,1.54,-2.62,-2.52,-2.50
228.96,-4.59,-4.60,-2.09,-2.10,2.11,2.09,1.48,-2.48,-2.49,-2.50
231.25,-4.32,-4.45,-1.83,-1.95,1.96,1.98,1.42,-2.36,-2.49,-2.49
233.57,-4.32,-4.35,-1.83,-1.86,1.81,1.87,1.35,-2.51,-2.54,-2.49
235.90,-4.39,-4.25,-1.90,-1.76,1.66,1.76,1.29,-2.73,-2.59,-2.49
238.26,-4.11,-4.07,-1.62,-1.58,1.51,1.65,1.23,-2.60,-2.55,-2.49
240.64,-3.73,-3.81,-1.25,-1.32,1.37,1.54,1.16,-2.36,-2.44,-2.48
243.05,-3.50,-3.55,-1.03,-1.08,1.23,1.43,1.10,-2.27,-2.31,-2.47
245.48,-3.46,-3.44,-1.00,-0.98,1.11,1.32,1.03,-2.35,-2.33,-2.46
247.93,-3.39,-3.44,-0.94,-0.99,0.99,1.22,0.97,-2.40,-2.45,-2.45
250.41,-3.45,-3.40,-1.01,-0.96,0.87,1.11,0.90,-2.58,-2.53,-2.44
252.92,-3.34,-3.26,-0.92,-0.83,0.76,1.00,0.83,-2.59,-2.50,-2.42
255.45,-3.02,-3.08,-0.62,-0.68,0.64,0.90,0.76,-2.38,-2.45,-2.40
258.00,-2.83,-2.91,-0.44,-0.52,0.52,0.79,0.69,-2.31,-2.39,-2.39
260.58,-2.80,-2.77,-0.43,-0.40,0.39,0.69,0.62,-2.41,-2.38,-2.37
263.19,-2.69,-2.63,-0.34,-0.28,0.25,0.58,0.55,-2.44,-2.39,-2.35
265.82,-2.44,-2.42,-0.10,-0.08,0.10,0.48,0.47,-2.34,-2.32,-2.34
268.48,-2.15,-2.19,0.16,0.13,-0.05,0.37,0.40,-2.20,-2.23,-2.31
271.16,-1.95,-2.04,0.34,0.25,-0.18,0.27,0.32,-2.13,-2.22,-2.29
273.87,-1.99,-1.96,0.28,0.31,-0.30,0.16,0.25,-2.29,-2.27,-2.27
276.61,-1.97,-1.88,0.28,0.38,-0.42,0.05,0.17,-2.39,-2.30,-2.25
279.38,-1.74,-1.74,0.49,0.49,-0.54,-0.05,0.09,-2.28,-2.29,-2.23
282.17,-1.50,-1.57,0.72,0.64,-0.66,-0.16,0.01,-2.16,-2.23,-2.22
284.99,-1.40,-1.41,0.79,0.79,-0.77,-0.26,-0.07,-2.18,-2.18,-2.19
287.84,-1.33,-1.27,0.85,0.91,-0.90,-0.37,-0.15,-2.23,-2.17,-2.18
290.72,-1.13,-1.15,1.02,1.01,-1.04,-0.48,-0.24,-2.17,-2.19,-2.15
293.63,-0.97,-1.00,1.17,1.14,-1.18,-0.59,-0.32,-2.15,-2.17,-2.14
296.57,-0.86,-0.84,1.25,1.28,-1.28,-0.70,-0.41,-2.14,-2.12,-2.11
299.53,-0.70,-0.69,1.40,1.40,-1.36,-0.80,-0.50,-2.06,-2.05,-2.10
302.53,-0.55,-0.55,1.53,1.52,-1.42,-0.92,-0.59,-1.97,-1.97,-2.08
305.55,-0.44,-0.45,1.60,1.60,-1.47,-1.03,-0.68,-1.91,-1.92,-2.04
308.61,-0.40,-0.45,1.63,1.57,-1.53,-1.14,-0.77,-1.93,-1.98,-2.03
311.69,-0.48,-0.49,1.52,1.50,-1.60,-1.25,-0.86,-2.08,-2.09,-2.00
314.81,-0.57,-0.49,1.39,1.48,-1.66,-1.37,-0.95,-2.23,-2.16,-1.97
317.96,-0.39,-0.33,1.56,1.62,-1.73,-1.48,-1.05,-2.13,-2.07,-1.95
321.14,-0.12,-0.13,1.81,1.79,-1.81,-1.60,-1.15,-1.94,-1.95,-1.93
324.35,0.24,0.07,2.15,1.98,-1.90,-1.71,-1.24,-1.67,-1.83,-1.91
327.59,0.10,0.23,1.99,2.12,-2.01,-1.83,-1.34,-1.91,-1.78,-1.89
330.87,0.31,0.35,2.18,2.22,-2.13,-1.95,-1.44,-1.82,-1.78,-1.87
334.18,0.48,0.38,2.33,2.23,-2.25,-2.07,-1.55,-1.77,-1.87,-1.85
337.52,0.53,0.48,2.37,2.32,-2.35,-2.19,-1.65,-1.82,-1.86,-1.84
340.90,0.43,0.60,2.24,2.41,-2.43,-2.32,-1.76,-2.00,-1.83,-1.81
344.30,0.75,0.72,2.54,2.51,-2.52,-2.44,-1.86,-1.77,-1.80,-1.79
347.75,0.98,0.85,2.75,2.62,-2.63,-2.56,-1.97,-1.65,-1.78,-1.77
351.23,0.93,0.96,2.68,2.72,-2.74,-2.69,-2.08,-1.82,-1.78,-1.76
354.74,1.00,1.06,2.74,2.80,-2.87,-2.81,-2.20,-1.87,-1.81,-1.74
358.28,1.18,1.25,2.90,2.97,-3.00,-2.94,-2.31,-1.82,-1.75,-1.72
361.87,1.54,1.47,3.24,3.18,-3.12,-3.07,-2.43,-1.58,-1.65,-1.70
365.49,1.73,1.63,3.42,3.32,-3.23,-3.19,-2.54,-1.50,-1.60,-1.69
369.14,1.64,1.71,3.32,3.39,-3.33,-3.32,-2.66,-1.69,-1.63,-1.69
372.83,1.71,1.76,3.38,3.43,-3.43,-3.45,-2.78,-1.72,-1.67,-1.67
376.56,1.84,1.85,3.50,3.50,-3.52,-3.57,-2.91,-1.69,-1.68,-1.66
380.33,2.03,1.96,3.66,3.60,-3.62,-3.70,-3.03,-1.59,-1.66,-1.63
384.13,2.05,2.04,3.67,3.66,-3.71,-3.82,-3.15,-1.66,-1.67,-1.62
387.97,2.07,2.13,3.68,3.74,-3.80,-3.94,-3.28,-1.73,-1.67,-1.61
391.85,2.22,2.25,3.82,3.85,-3.88,-4.06,-3.41,-1.66,-1.63,-1.61
395.77,2.45,2.42,4.04,4.01,-3.97,-4.17,-3.54,-1.52,-1.55,-1.59
