frequency,raw,error,smoothed,error_smoothed,equalization,parametric_eq,fixed_band_eq,equalized_raw,equalized_smoothed,target
20.00,-14.66,-15.90,-14.60,-15.85,6.00,5.04,3.05,-8.66,-8.60,1.25
20.20,-15.24,-16.48,-15.29,-16.54,6.00,5.08,3.14,-9.24,-9.29,1.25
20.40,-15.95,-17.19,-16.00,-17.25,6.00,5.12,3.23,-9.95,-10.00,1.25
20.61,-16.70,-17.95,-16.73,-17.97,6.00,5.16,3.32,-10.70,-10.73,1.25
20.81,-17.55,-18.78,-17.53,-18.77,6.00,5.19,3.41,-11.55,-11.53,1.24
21.02,-18.29,-19.52,-18.29,-19.52,6.00,5.23,3.51,-12.29,-12.29,1.24
21.23,-18.92,-20.16,-18.91,-20.14,6.00,5.27,3.61,-12.92,-12.91,1.24
21.44,-19.35,-20.60,-19.33,-20.57,6.00,5.31,3.71,-13.35,-13.33,1.25
21.66,-19.54,-20.77,-19.55,-20.78,6.00,5.35,3.82,-13.54,-13.55,1.24
21.87,-19.56,-20.79,-19.53,-20.77,6.00,5.38,3.92,-13.56,-13.53,1.24
22.09,-19.34,-20.57,-19.33,-20.56,6.00,5.42,4.03,-13.34,-13.33,1.23
22.31,-18.96,-20.19,-18.97,-20.20,6.00,5.46,4.15,-12.96,-12.97,1.23
22.54,-18.53,-19.74,-18.51,-19.73,6.00,5.50,4.27,-12.53,-12.51,1.22
22.76,-18.00,-19.22,-18.03,-19.24,6.00,5.54,4.39,-12.00,-12.03,1.22
22.99,-17.55,-18.77,-17.55,-18.76,6.00,5.58,4.51,-11.55,-11.55,1.22
23.22,-17.12,-18.33,-17.12,-18.33,6.00,5.61,4.64,-11.12,-11.12,1.21
23.45,-16.73,-17.93,-16.75,-17.95,6.00,5.65,4.76,-10.73,-10.75,1.21
23.69,-16.43,-17.63,-16.42,-17.62,6.00,5.69,4.90,-10.43,-10.42,1.20
23.92,-16.17,-17.35,-16.16,-17.35,6.00,5.73,5.03,-10.17,-10.16,1.19
24.16,-15.95,-17.13,-15.96,-17.15,6.00,5.77,5.17,-9.95,-9.96,1.19
24.40,-15.80,-16.98,-15.79,-16.97,6.00,5.80,5.31,-9.80,-9.79,1.19
24.65,-15.66,-16.85,-15.65,-16.84,6.00,5.84,5.45,-9.66,-9.65,1.19
24.89,-15.53,-16.71,-15.53,-16.72,6.00,5.88,5.59,-9.53,-9.53,1.19
25.14,-15.42,-16.60,-15.41,-16.60,6.00,5.91,5.74,-9.42,-9.41,1.19
25.39,-15.31,-16.48,-15.30,-16.48,6.00,5.95,5.89,-9.31,-9.30,1.18
25.65,-15.20,-16.37,-15.20,-16.38,6.00,5.99,6.03,-9.20,-9.20,1.18
25.91,-15.10,-16.28,-15.10,-16.28,6.00,6.02,6.18,-9.10,-9.10,1.18
26.16,-15.02,-16.20,-15.02,-16.20,6.00,6.06,6.33,-9.02,-9.02,1.19
26.43,-14.95,-16.14,-14.95,-16.14,6.00,6.09,6.48,-8.95,-8.95,1.19
26.69,-14.89,-16.07,-14.89,-16.08,6.00,6.12,6.62,-8.89,-8.89,1.19
26.96,-14.83,-16.02,-14.82,-16.01,6.00,6.16,6.77,-8.83,-8.82,1.19
27.23,-14.74,-15.93,-14.75,-15.93,6.00,6.19,6.91,-8.74,-8.75,1.19
27.50,-14.65,-15.83,-14.64,-15.83,6.00,6.22,7.05,-8.65,-8.64,1.19
27.77,-14.51,-15.70,-14.50,-15.69,6.00,6.25,7.18,-8.51,-8.50,1.20
28.05,-14.34,-15.52,-14.34,-15.53,6.00,6.28,7.31,-8.34,-8.34,1.19
28.33,-14.17,-15.35,-14.16,-15.35,6.00,6.31,7.43,-8.17,-8.16,1.19
28.62,-13.97,-15.15,-13.98,-15.16,6.00,6.34,7.55,-7.97,-7.98,1.18
28.90,-13.80,-14.98,-13.80,-14.98,6.00,6.37,7.65,-7.80,-7.80,1.19
29.19,-13.64,-14.81,-13.64,-14.81,6.00,6.39,7.75,-7.64,-7.64,1.18
29.48,-13.49,-14.65,-13.50,-14.67,6.00,6.42,7.83,-7.49,-7.50,1.17
29.78,-13.39,-14.56,-13.39,-14.55,6.00,6.44,7.90,-7.39,-7.39,1.17
30.08,-13.29,-14.46,-13.30,-14.46,6.00,6.47,7.95,-7.29,-7.30,1.17
30.38,-13.22,-14.38,-13.22,-14.38,6.00,6.49,8.00,-7.22,-7.22,1.16
30.68,-13.14,-14.29,-13.13,-14.29,6.00,6.51,8.03,-7.14,-7.13,1.16
30.99,-13.03,-14.19,-13.04,-14.19,6.00,6.53,8.05,-7.03,-7.04,1.16
31.30,-12.93,-14.09,-12.92,-14.07,6.00,6.54,8.04,-6.93,-6.92,1.16
31.61,-12.77,-13.92,-12.77,-13.93,6.00,6.56,8.03,-6.77,-6.77,1.16
31.93,-12.60,-13.76,-12.60,-13.76,6.00,6.58,8.00,-6.60,-6.60,1.16
32.24,-12.42,-13.58,-12.41,-13.57,6.00,6.59,7.96,-6.42,-6.41,1.17
32.57,-12.22,-13.38,-12.22,-13.38,6.00,6.60,7.89,-6.22,-6.22,1.16
32.89,-12.02,-13.18,-12.02,-13.19,6.00,6.61,7.82,-6.02,-6.02,1.17
33.22,-11.83,-12.99,-11.83,-13.00,6.00,6.62,7.73,-5.83,-5.83,1.17
33.55,-11.66,-12.82,-11.65,-12.82,6.00,6.62,7.64,-5.66,-5.65,1.17
33.89,-11.49,-12.64,-11.49,-12.65,6.00,6.63,7.53,-5.49,-5.49,1.16
34.23,-11.34,-12.49,-11.34,-12.49,6.00,6.63,7.41,-5.34,-5.34,1.15
34.57,-11.20,-12.34,-11.20,-12.34,6.00,6.63,7.28,-5.20,-5.20,1.15
34.92,-11.08,-12.21,-11.08,-12.21,6.00,6.62,7.15,-5.08,-5.08,1.13
35.27,-10.97,-12.10,-10.97,-12.09,6.00,6.62,7.01,-4.97,-4.97,1.13
35.62,-10.87,-11.97,-10.87,-11.97,6.00,6.61,6.86,-4.87,-4.87,1.10
35.97,-10.78,-11.86,-10.77,-11.86,6.00,6.60,6.71,-4.78,-4.77,1.09
36.33,-10.67,-11.73,-10.67,-11.73,6.00,6.59,6.56,-4.67,-4.67,1.07
36.70,-10.57,-11.61,-10.56,-11.60,6.00,6.57,6.40,-4.57,-4.56,1.04
37.06,-10.44,-11.45,-10.44,-11.46,6.00,6.56,6.24,-4.44,-4.44,1.02
37.43,-10.32,-11.30,-10.32,-11.31,6.00,6.53,6.08,-4.32,-4.32,0.99
37.81,-10.20,-11.16,-10.19,-11.16,6.00,6.51,5.92,-4.20,-4.19,0.97
38.19,-10.07,-11.01,-10.07,-11.01,6.00,6.48,5.76,-4.07,-4.07,0.94
38.57,-9.94,-10.85,-9.94,-10.86,6.00,6.46,5.60,-3.94,-3.94,0.92
38.95,-9.81,-10.70,-9.80,-10.70,6.00,6.42,5.44,-3.81,-3.80,0.90
39.34,-9.67,-10.53,-9.67,-10.53,6.00,6.39,5.28,-3.67,-3.67,0.87
39.74,-9.52,-10.37,-9.53,-10.37,6.00,6.35,5.12,-3.52,-3.53,0.85
40.14,-9.38,-10.21,-9.37,-10.20,6.00,6.31,4.97,-3.38,-3.37,0.83
40.54,-9.22,-10.04,-9.22,-10.03,6.00,6.26,4.81,-3.22,-3.22,0.82
40.94,-9.05,-9.84,-9.05,-9.85,6.00,6.21,4.66,-3.05,-3.05,0.80
41.35,-8.89,-9.66,-8.88,-9.66,6.00,6.16,4.52,-2.89,-2.88,0.78
41.76,-8.71,-9.46,-8.71,-9.47,6.00,6.11,4.37,-2.71,-2.71,0.76
42.18,-8.55,-9.30,-8.54,-9.29,6.00,6.05,4.23,-2.55,-2.54,0.76
42.60,-8.38,-9.11,-8.38,-9.11,6.00,5.99,4.08,-2.38,-2.38,0.74
43.03,-8.22,-8.93,-8.22,-8.94,6.00,5.92,3.95,-2.22,-2.22,0.72
43.46,-8.07,-8.77,-8.06,-8.77,6.00,5.85,3.81,-2.07,-2.06,0.71
43.90,-7.91,-8.61,-7.91,-8.60,6.00,5.78,3.68,-1.91,-1.91,0.70
44.33,-7.75,-8.42,-7.76,-8.44,6.00,5.70,3.55,-1.75,-1.76,0.68
44.78,-7.61,-8.28,-7.60,-8.27,6.00,5.62,3.42,-1.61,-1.60,0.67
45.23,-7.44,-8.11,-7.44,-8.10,6.00,5.53,3.30,-1.44,-1.44,0.67
45.68,-7.28,-7.92,-7.28,-7.92,6.00,5.45,3.17,-1.28,-1.28,0.64
46.13,-7.11,-7.71,-7.10,-7.72,6.00,5.35,3.05,-1.11,-1.10,0.61
46.60,-6.92,-7.52,-6.92,-7.52,6.00,5.26,2.94,-0.92,-0.92,0.60
47.06,-6.74,-7.31,-6.74,-7.31,6.02,5.16,2.82,-0.72,-0.72,0.58
47.53,-6.55,-7.10,-6.55,-7.10,6.04,5.05,2.71,-0.51,-0.51,0.56
48.01,-6.36,-6.88,-6.36,-6.88,6.05,4.95,2.60,-0.31,-0.31,0.52
48.49,-6.16,-6.66,-6.16,-6.66,6.04,4.83,2.49,-0.12,-0.13,0.50
48.97,-5.97,-6.43,-5.97,-6.43,6.00,4.72,2.39,0.03,0.03,0.47
49.46,-5.77,-6.21,-5.77,-6.21,5.93,4.60,2.29,0.16,0.16,0.45
49.96,-5.57,-5.97,-5.57,-5.97,5.82,4.48,2.18,0.25,0.26,0.40
50.46,-5.36,-5.74,-5.36,-5.74,5.68,4.35,2.09,0.32,0.32,0.38
50.96,-5.15,-5.49,-5.15,-5.49,5.50,4.22,1.99,0.35,0.35,0.35
51.47,-4.93,-5.25,-4.93,-5.25,5.28,4.08,1.90,0.35,0.35,0.33
51.99,-4.70,-5.00,-4.70,-5.00,5.03,3.94,1.80,0.33,0.34,0.30
52.51,-4.46,-4.74,-4.46,-4.74,4.77,3.80,1.71,0.30,0.30,0.28
53.03,-4.22,-4.48,-4.22,-4.48,4.49,3.66,1.62,0.27,0.27,0.27
53.56,-3.98,-4.21,-3.98,-4.21,4.22,3.51,1.54,0.24,0.24,0.24
54.10,-3.73,-3.94,-3.74,-3.95,3.96,3.35,1.45,0.23,0.22,0.21
54.64,-3.51,-3.70,-3.50,-3.69,3.71,3.19,1.37,0.20,0.20,0.19
55.18,-3.28,-3.43,-3.28,-3.44,3.46,3.03,1.29,0.18,0.18,0.16
55.74,-3.06,-3.20,-3.06,-3.21,3.21,2.87,1.21,0.15,0.15,0.14
56.29,-2.85,-2.97,-2.84,-2.97,2.96,2.70,1.13,0.12,0.12,0.13
56.86,-2.62,-2.74,-2.62,-2.72,2.72,2.53,1.06,0.10,0.10,0.12
57.42,-2.38,-2.46,-2.38,-2.47,2.47,2.36,0.98,0.09,0.09,0.09
58.00,-2.13,-2.21,-2.13,-2.21,2.21,2.18,0.91,0.08,0.07,0.08
58.58,-1.88,-1.95,-1.87,-1.94,1.93,2.00,0.84,0.05,0.06,0.08
59.16,-1.60,-1.66,-1.60,-1.67,1.65,1.82,0.77,0.05,0.05,0.07
59.76,-1.32,-1.38,-1.32,-1.37,1.35,1.64,0.71,0.03,0.03,0.06
60.35,-1.03,-1.05,-1.03,-1.06,1.04,1.45,0.64,0.01,0.01,0.03
60.96,-0.74,-0.75,-0.74,-0.74,0.73,1.27,0.58,-0.01,-0.01,0.01
61.57,-0.44,-0.41,-0.44,-0.41,0.41,1.08,0.52,-0.03,-0.03,-0.03
62.18,-0.15,-0.08,-0.15,-0.09,0.10,0.88,0.46,-0.05,-0.05,-0.06
62.80,0.13,0.22,0.13,0.22,-0.20,0.69,0.40,-0.07,-0.07,-0.08
63.43,0.39,0.51,0.39,0.50,-0.48,0.50,0.35,-0.09,-0.09,-0.11
64.07,0.63,0.75,0.64,0.76,-0.75,0.31,0.29,-0.12,-0.11,-0.12
64.71,0.87,1.00,0.87,1.00,-1.00,0.12,0.24,-0.13,-0.13,-0.13
65.35,1.08,1.23,1.08,1.22,-1.22,-0.08,0.19,-0.14,-0.15,-0.14
66.01,1.26,1.42,1.27,1.42,-1.42,-0.27,0.14,-0.16,-0.15,-0.15
66.67,1.43,1.59,1.43,1.60,-1.59,-0.46,0.09,-0.16,-0.16,-0.15
67.33,1.59,1.77,1.58,1.75,-1.75,-0.64,0.04,-0.16,-0.17,-0.17
68.01,1.70,1.89,1.71,1.89,-1.88,-0.83,-0.01,-0.18,-0.17,-0.18
68.69,1.81,2.01,1.81,2.00,-1.99,-1.01,-0.05,-0.18,-0.18,-0.19
69.37,1.89,2.09,1.89,2.09,-2.09,-1.18,-0.10,-0.20,-0.20,-0.19
70.07,1.96,2.16,1.96,2.16,-2.17,-1.36,-0.15,-0.20,-0.20,-0.19
70.77,2.01,2.22,2.01,2.22,-2.23,-1.52,-0.19,-0.22,-0.21,-0.20
71.48,2.06,2.28,2.06,2.27,-2.27,-1.68,-0.23,-0.21,-0.22,-0.21
72.19,2.08,2.31,2.09,2.31,-2.31,-1.84,-0.28,-0.22,-0.22,-0.22
72.91,2.10,2.33,2.10,2.33,-2.32,-1.99,-0.32,-0.22,-0.22,-0.22
73.64,2.11,2.35,2.11,2.34,-2.33,-2.13,-0.36,-0.22,-0.23,-0.23
74.38,2.10,2.34,2.11,2.34,-2.33,-2.26,-0.41,-0.23,-0.23,-0.23
75.12,2.10,2.34,2.10,2.33,-2.32,-2.39,-0.45,-0.22,-0.23,-0.23
75.87,2.08,2.30,2.08,2.30,-2.30,-2.50,-0.49,-0.22,-0.22,-0.21
76.63,2.06,2.28,2.07,2.28,-2.28,-2.61,-0.54,-0.22,-0.22,-0.21
77.40,2.05,2.26,2.05,2.25,-2.25,-2.70,-0.58,-0.20,-0.21,-0.20
78.17,2.03,2.24,2.03,2.23,-2.23,-2.79,-0.63,-0.20,-0.20,-0.20
78.95,2.02,2.20,2.02,2.20,-2.21,-2.87,-0.67,-0.19,-0.18,-0.17
79.74,2.02,2.19,2.02,2.19,-2.19,-2.94,-0.72,-0.17,-0.17,-0.16
80.54,2.02,2.18,2.03,2.17,-2.18,-2.99,-0.76,-0.16,-0.15,-0.15
81.35,2.04,2.18,2.04,2.17,-2.18,-3.05,-0.81,-0.14,-0.14,-0.13
82.16,2.06,2.18,2.06,2.18,-2.18,-3.09,-0.86,-0.12,-0.12,-0.11
82.98,2.09,2.20,2.09,2.20,-2.20,-3.12,-0.90,-0.11,-0.10,-0.10
83.81,2.14,2.23,2.14,2.22,-2.22,-3.14,-0.95,-0.08,-0.09,-0.08
84.65,2.18,2.26,2.19,2.26,-2.25,-3.16,-1.00,-0.07,-0.07,-0.07
85.50,2.25,2.31,2.25,2.30,-2.30,-3.17,-1.05,-0.05,-0.05,-0.05
86.35,2.32,2.35,2.32,2.35,-2.35,-3.18,-1.10,-0.03,-0.03,-0.02
87.22,2.40,2.41,2.41,2.41,-2.42,-3.17,-1.16,-0.02,-0.01,-0.00
88.09,2.51,2.50,2.50,2.49,-2.49,-3.17,-1.21,0.02,0.01,0.02
88.97,2.61,2.58,2.61,2.58,-2.58,-3.15,-1.27,0.03,0.03,0.04
89.86,2.73,2.68,2.73,2.68,-2.68,-3.14,-1.32,0.05,0.05,0.06
90.76,2.86,2.79,2.86,2.79,-2.79,-3.11,-1.38,0.07,0.07,0.08
91.66,3.00,2.91,3.00,2.90,-2.91,-3.09,-1.44,0.09,0.09,0.10
92.58,3.14,3.03,3.14,3.03,-3.04,-3.07,-1.50,0.11,0.11,0.12
93.51,3.29,3.16,3.29,3.16,-3.17,-3.04,-1.56,0.12,0.13,0.14
94.44,3.45,3.30,3.45,3.30,-3.30,-3.01,-1.62,0.15,0.15,0.16
95.39,3.60,3.44,3.60,3.43,-3.44,-2.98,-1.68,0.16,0.16,0.17
96.34,3.75,3.58,3.75,3.57,-3.57,-2.95,-1.74,0.18,0.18,0.18
97.30,3.87,3.68,3.88,3.69,-3.69,-2.91,-1.81,0.18,0.19,0.20
98.28,4.00,3.81,4.00,3.80,-3.79,-2.88,-1.87,0.21,0.20,0.20
99.26,4.10,3.90,4.10,3.89,-3.88,-2.85,-1.94,0.22,0.22,0.21
100.25,4.18,3.96,4.18,3.96,-3.94,-2.82,-2.00,0.24,0.24,0.23
101.25,4.24,4.00,4.24,3.99,-3.98,-2.78,-2.07,0.26,0.26,0.25
102.27,4.27,4.01,4.27,4.00,-3.99,-2.75,-2.13,0.28,0.28,0.27
103.29,4.26,3.98,4.27,3.98,-3.97,-2.72,-2.20,0.30,0.30,0.29
104.32,4.24,3.93,4.24,3.93,-3.92,-2.70,-2.27,0.32,0.32,0.32
105.37,4.19,3.86,4.19,3.85,-3.85,-2.67,-2.33,0.35,0.34,0.34
106.42,4.11,3.75,4.11,3.75,-3.75,-2.64,-2.40,0.36,0.36,0.37
107.48,4.02,3.65,4.02,3.64,-3.64,-2.62,-2.46,0.38,0.38,0.38
108.56,3.92,3.52,3.92,3.51,-3.51,-2.60,-2.53,0.41,0.41,0.41
109.64,3.81,3.38,3.81,3.38,-3.38,-2.57,-2.59,0.43,0.43,0.44
110.74,3.69,3.24,3.70,3.24,-3.24,-2.56,-2.65,0.45,0.45,0.46
111.85,3.58,3.11,3.58,3.10,-3.11,-2.54,-2.71,0.48,0.47,0.48
112.97,3.46,2.97,3.46,2.96,-2.97,-2.52,-2.77,0.49,0.49,0.50
114.10,3.34,2.83,3.35,2.84,-2.84,-2.51,-2.82,0.50,0.50,0.52
115.24,3.24,2.72,3.24,2.71,-2.72,-2.50,-2.88,0.52,0.51,0.53
116.39,3.14,2.62,3.14,2.61,-2.61,-2.48,-2.93,0.53,0.53,0.53
117.55,3.05,2.51,3.05,2.51,-2.51,-2.48,-2.97,0.54,0.54,0.55
118.73,2.97,2.43,2.97,2.42,-2.42,-2.47,-3.02,0.55,0.55,0.55
119.92,2.90,2.35,2.90,2.34,-2.34,-2.46,-3.06,0.56,0.56,0.56
121.12,2.84,2.27,2.84,2.27,-2.27,-2.46,-3.10,0.57,0.57,0.58
122.33,2.78,2.21,2.79,2.21,-2.21,-2.46,-3.13,0.57,0.58,0.58
123.55,2.74,2.16,2.74,2.15,-2.16,-2.46,-3.16,0.59,0.58,0.59
124.79,2.70,2.11,2.70,2.11,-2.11,-2.46,-3.18,0.59,0.59,0.60
126.03,2.67,2.08,2.67,2.08,-2.08,-2.46,-3.21,0.59,0.59,0.60
127.29,2.64,2.06,2.64,2.05,-2.06,-2.47,-3.23,0.58,0.59,0.59
128.57,2.62,2.04,2.63,2.04,-2.04,-2.48,-3.24,0.58,0.58,0.59
129.85,2.62,2.04,2.62,2.03,-2.03,-2.48,-3.25,0.59,0.59,0.59
131.15,2.61,2.03,2.62,2.03,-2.02,-2.49,-3.26,0.59,0.59,0.59
132.46,2.62,2.04,2.62,2.03,-2.02,-2.51,-3.26,0.60,0.60,0.59
133.79,2.62,2.03,2.62,2.03,-2.02,-2.52,-3.27,0.60,0.60,0.60
135.12,2.63,2.04,2.63,2.03,-2.03,-2.53,-3.26,0.60,0.60,0.60
136.48,2.64,2.03,2.64,2.03,-2.04,-2.55,-3.26,0.61,0.61,0.62
137.84,2.66,2.04,2.66,2.04,-2.04,-2.56,-3.26,0.62,0.62,0.63
139.22,2.69,2.07,2.69,2.05,-2.06,-2.58,-3.25,0.64,0.63,0.63
140.61,2.71,2.07,2.72,2.08,-2.07,-2.60,-3.24,0.64,0.65,0.65
142.02,2.75,2.10,2.75,2.09,-2.09,-2.62,-3.23,0.66,0.66,0.66
143.44,2.78,2.12,2.78,2.11,-2.11,-2.64,-3.22,0.67,0.67,0.67
144.87,2.81,2.13,2.82,2.14,-2.14,-2.66,-3.20,0.68,0.68,0.69
146.32,2.86,2.17,2.86,2.16,-2.16,-2.69,-3.19,0.70,0.69,0.70
147.78,2.90,2.20,2.90,2.19,-2.19,-2.71,-3.18,0.71,0.71,0.71
149.26,2.94,2.23,2.94,2.23,-2.23,-2.74,-3.17,0.72,0.72,0.72
150.75,2.98,2.27,2.98,2.26,-2.26,-2.76,-3.15,0.72,0.72,0.72
152.26,3.03,2.30,3.03,2.30,-2.30,-2.79,-3.14,0.73,0.73,0.74
153.78,3.08,2.35,3.08,2.35,-2.35,-2.82,-3.13,0.74,0.74,0.74
155.32,3.14,2.40,3.14,2.39,-2.39,-2.85,-3.12,0.75,0.74,0.75
156.88,3.19,2.45,3.19,2.45,-2.44,-2.88,-3.11,0.75,0.75,0.75
158.44,3.24,2.50,3.24,2.50,-2.50,-2.91,-3.11,0.74,0.75,0.75
160.03,3.30,2.56,3.30,2.55,-2.56,-2.94,-3.10,0.75,0.74,0.75
161.63,3.35,2.61,3.35,2.61,-2.62,-2.97,-3.10,0.74,0.74,0.75
163.24,3.41,2.69,3.41,2.68,-2.68,-3.00,-3.10,0.73,0.73,0.73
164.88,3.47,2.75,3.47,2.75,-2.74,-3.04,-3.10,0.73,0.73,0.73
166.53,3.53,2.82,3.53,2.81,-2.81,-3.07,-3.10,0.72,0.72,0.72
168.19,3.59,2.88,3.59,2.88,-2.88,-3.10,-3.11,0.71,0.71,0.72
169.87,3.65,2.95,3.65,2.95,-2.95,-3.14,-3.11,0.70,0.70,0.71
171.57,3.71,3.03,3.71,3.02,-3.02,-3.17,-3.12,0.69,0.69,0.69
173.29,3.76,3.09,3.77,3.09,-3.09,-3.21,-3.14,0.67,0.68,0.68
175.02,3.83,3.17,3.83,3.16,-3.16,-3.24,-3.15,0.67,0.67,0.67
176.77,3.88,3.23,3.88,3.23,-3.23,-3.28,-3.17,0.65,0.65,0.66
178.54,3.94,3.30,3.94,3.30,-3.30,-3.31,-3.19,0.64,0.64,0.65
180.32,4.00,3.38,4.00,3.37,-3.37,-3.35,-3.21,0.63,0.63,0.63
182.13,4.06,3.45,4.06,3.45,-3.45,-3.39,-3.24,0.61,0.61,0.62
183.95,4.12,3.52,4.13,3.52,-3.52,-3.42,-3.26,0.60,0.60,0.61
185.79,4.19,3.61,4.19,3.60,-3.60,-3.46,-3.29,0.59,0.59,0.59
187.65,4.25,3.68,4.25,3.67,-3.67,-3.50,-3.32,0.58,0.57,0.58
189.52,4.29,3.74,4.30,3.75,-3.75,-3.54,-3.36,0.54,0.55,0.56
191.42,4.36,3.83,4.36,3.82,-3.82,-3.57,-3.39,0.54,0.54,0.54
193.33,4.41,3.90,4.41,3.89,-3.89,-3.61,-3.43,0.52,0.52,0.52
195.27,4.46,3.97,4.46,3.96,-3.96,-3.65,-3.47,0.50,0.50,0.50
197.22,4.50,4.03,4.51,4.03,-4.02,-3.68,-3.52,0.48,0.48,0.48
199.19,4.55,4.09,4.55,4.09,-4.08,-3.72,-3.56,0.47,0.47,0.47
201.18,4.59,4.15,4.59,4.14,-4.14,-3.75,-3.61,0.45,0.45,0.45
203.19,4.62,4.19,4.63,4.19,-4.19,-3.79,-3.65,0.43,0.44,0.44
205.23,4.66,4.24,4.66,4.24,-4.24,-3.83,-3.70,0.42,0.42,0.43
207.28,4.70,4.29,4.70,4.28,-4.28,-3.86,-3.75,0.42,0.41,0.42
209.35,4.72,4.33,4.73,4.33,-4.33,-3.90,-3.80,0.39,0.40,0.40
211.44,4.75,4.37,4.75,4.37,-4.37,-3.93,-3.85,0.39,0.38,0.39
213.56,4.77,4.41,4.77,4.40,-4.40,-3.96,-3.90,0.37,0.37,0.37
215.69,4.79,4.44,4.79,4.43,-4.44,-4.00,-3.95,0.35,0.35,0.36
217.85,4.80,4.46,4.81,4.46,-4.47,-4.03,-4.00,0.34,0.34,0.35
220.03,4.82,4.50,4.82,4.49,-4.49,-4.06,-4.05,0.33,0.33,0.33
222.23,4.83,4.52,4.83,4.52,-4.51,-4.09,-4.09,0.32,0.32,0.32
224.45,4.84,4.54,4.84,4.54,-4.53,-4.12,-4.14,0.31,0.31,0.31
226.70,4.84,4.55,4.84,4.54,-4.54,-4.15,-4.18,0.30,0.30,0.30
228.96,4.84,4.55,4.84,4.55,-4.55,-4.18,-4.22,0.29,0.29,0.30
231.25,4.83,4.55,4.83,4.55,-4.55,-4.21,-4.26,0.28,0.28,0.29
233.57,4.82,4.55,4.82,4.55,-4.55,-4.23,-4.29,0.27,0.27,0.28
235.90,4.81,4.56,4.81,4.55,-4.55,-4.26,-4.32,0.26,0.26,0.26
238.26,4.80,4.56,4.80,4.54,-4.54,-4.28,-4.35,0.26,0.26,0.25
240.64,4.77,4.52,4.78,4.53,-4.53,-4.31,-4.37,0.24,0.25,0.26
243.05,4.76,4.52,4.76,4.51,-4.51,-4.33,-4.39,0.25,0.24,0.25
245.48,4.73,4.50,4.73,4.50,-4.50,-4.35,-4.40,0.24,0.24,0.24
247.93,4.71,4.49,4.71,4.48,-4.47,-4.37,-4.41,0.24,0.24,0.23
250.41,4.68,4.45,4.68,4.45,-4.45,-4.39,-4.42,0.23,0.23,0.24
252.92,4.65,4.42,4.65,4.42,-4.42,-4.41,-4.42,0.23,0.23,0.24
255.45,4.61,4.39,4.62,4.38,-4.39,-4.42,-4.41,0.22,0.23,0.23
258.00,4.58,4.36,4.58,4.36,-4.36,-4.44,-4.41,0.22,0.22,0.23
260.58,4.55,4.33,4.55,4.33,-4.33,-4.45,-4.39,0.22,0.22,0.23
263.19,4.51,4.30,4.51,4.29,-4.29,-4.46,-4.38,0.22,0.22,0.22
265.82,4.48,4.27,4.48,4.26,-4.26,-4.47,-4.35,0.22,0.22,0.22
268.48,4.43,4.22,4.44,4.22,-4.23,-4.48,-4.33,0.21,0.21,0.22
271.16,4.40,4.20,4.40,4.19,-4.19,-4.49,-4.30,0.21,0.21,0.21
273.87,4.35,4.15,4.35,4.15,-4.15,-4.50,-4.27,0.20,0.20,0.21
276.61,4.31,4.12,4.31,4.12,-4.11,-4.50,-4.24,0.20,0.20,0.20
279.38,4.26,4.08,4.26,4.07,-4.06,-4.50,-4.20,0.20,0.20,0.19
282.17,4.21,4.03,4.21,4.02,-4.02,-4.51,-4.16,0.19,0.19,0.19
284.99,4.16,3.97,4.16,3.97,-3.97,-4.51,-4.12,0.19,0.19,0.20
287.84,4.11,3.92,4.11,3.93,-3.93,-4.50,-4.08,0.18,0.19,0.20
290.72,4.07,3.90,4.07,3.88,-3.88,-4.50,-4.04,0.19,0.19,0.18
293.63,4.03,3.85,4.03,3.85,-3.84,-4.50,-4.00,0.19,0.19,0.19
296.57,3.99,3.81,3.99,3.81,-3.80,-4.49,-3.96,0.19,0.19,0.19
299.53,3.95,3.77,3.95,3.77,-3.77,-4.48,-3.92,0.18,0.18,0.19
302.53,3.93,3.75,3.93,3.74,-3.75,-4.48,-3.87,0.18,0.18,0.19
305.55,3.90,3.72,3.91,3.72,-3.73,-4.47,-3.83,0.17,0.18,0.19
308.61,3.90,3.72,3.90,3.72,-3.72,-4.45,-3.79,0.18,0.18,0.19
311.69,3.90,3.72,3.90,3.72,-3.72,-4.44,-3.76,0.18,0.18,0.19
314.81,3.91,3.73,3.91,3.72,-3.72,-4.43,-3.72,0.19,0.19,0.19
317.96,3.91,3.73,3.92,3.73,-3.73,-4.41,-3.69,0.18,0.19,0.19
321.14,3.93,3.74,3.93,3.74,-3.74,-4.40,-3.65,0.19,0.19,0.20
324.35,3.95,3.77,3.95,3.75,-3.75,-4.38,-3.62,0.20,0.19,0.19
327.59,3.96,3.76,3.96,3.77,-3.77,-4.36,-3.59,0.19,0.20,0.21
330.87,3.98,3.78,3.98,3.78,-3.78,-4.34,-3.57,0.20,0.20,0.21
334.18,3.99,3.80,3.99,3.79,-3.79,-4.32,-3.54,0.20,0.21,0.20
337.52,4.01,3.81,4.01,3.80,-3.80,-4.29,-3.52,0.22,0.21,0.21
340.90,4.01,3.81,4.01,3.80,-3.80,-4.27,-3.50,0.21,0.21,0.21
344.30,4.01,3.80,4.01,3.80,-3.80,-4.25,-3.49,0.21,0.22,0.22
347.75,4.01,3.79,4.01,3.79,-3.79,-4.22,-3.48,0.22,0.22,0.23
351.23,4.01,3.80,4.01,3.78,-3.78,-4.19,-3.47,0.23,0.23,0.22
354.74,4.00,3.77,4.00,3.77,-3.77,-4.17,-3.46,0.23,0.23,0.24
358.28,3.98,3.76,3.99,3.76,-3.75,-4.14,-3.45,0.23,0.23,0.23
361.87,3.97,3.74,3.97,3.74,-3.74,-4.11,-3.45,0.23,0.23,0.24
365.49,3.96,3.73,3.96,3.72,-3.72,-4.08,-3.45,0.24,0.23,0.24
369.14,3.94,3.70,3.94,3.70,-3.70,-4.05,-3.45,0.24,0.24,0.25
372.83,3.92,3.68,3.93,3.68,-3.68,-4.02,-3.46,0.24,0.24,0.25
376.56,3.92,3.68,3.91,3.67,-3.67,-3.99,-3.47,0.25,0.25,0.25
380.33,3.89,3.65,3.90,3.65,-3.65,-3.96,-3.48,0.24,0.25,0.25
384.13,3.88,3.64,3.88,3.63,-3.63,-3.93,-3.49,0.25,0.25,0.25
387.97,3.86,3.61,3.86,3.61,-3.61,-3.89,-3.51,0.25,0.25,0.26
391.85,3.85,3.60,3.85,3.60,-3.59,-3.86,-3.52,0.26,0.26,0.26
395.77,3.83,3.58,3.83,3.58,-3.58,-3.83,-3.54,0.26,0.26,0.26
399.73,3.82,3.57,3.82,3.56,-3.56,-3.80,-3.56,0.27,0.26,0.26
403.72,3.80,3.54,3.80,3.54,-3.54,-3.76,-3.58,0.26,0.26,0.27
407.76,3.78,3.52,3.78,3.52,-3.52,-3.73,-3.61,0.26,0.27,0.27
411.84,3.76,3.50,3.76,3.49,-3.50,-3.70,-3.63,0.26,0.27,0.27
415.96,3.75,3.48,3.75,3.48,-3.48,-3.67,-3.65,0.27,0.27,0.28
420.12,3.73,3.47,3.73,3.46,-3.46,-3.63,-3.68,0.27,0.27,0.27
424.32,3.72,3.46,3.72,3.45,-3.45,-3.60,-3.71,0.27,0.27,0.27
428.56,3.70,3.43,3.70,3.43,-3.43,-3.57,-3.73,0.27,0.27,0.28
432.85,3.69,3.42,3.69,3.42,-3.42,-3.54,-3.75,0.27,0.27,0.28
437.18,3.68,3.42,3.68,3.41,-3.41,-3.51,-3.78,0.27,0.27,0.27
441.55,3.67,3.41,3.67,3.40,-3.40,-3.48,-3.80,0.27,0.27,0.27
445.96,3.65,3.39,3.66,3.39,-3.39,-3.45,-3.82,0.26,0.27,0.27
450.42,3.65,3.39,3.65,3.38,-3.38,-3.42,-3.84,0.27,0.27,0.27
454.93,3.63,3.37,3.64,3.37,-3.37,-3.39,-3.86,0.26,0.27,0.27
459.48,3.63,3.37,3.63,3.36,-3.36,-3.37,-3.87,0.27,0.27,0.27
464.07,3.62,3.35,3.62,3.35,-3.35,-3.34,-3.88,0.27,0.27,0.28
468.71,3.61,3.34,3.61,3.34,-3.34,-3.32,-3.88,0.27,0.27,0.28
473.40,3.61,3.34,3.61,3.33,-3.33,-3.29,-3.89,0.28,0.27,0.28
478.13,3.60,3.33,3.60,3.33,-3.33,-3.27,-3.88,0.27,0.28,0.28
482.91,3.60,3.33,3.60,3.32,-3.32,-3.25,-3.88,0.28,0.28,0.28
487.74,3.60,3.32,3.60,3.32,-3.32,-3.23,-3.86,0.28,0.28,0.29
