frequency,raw,smoothed,error,error_smoothed,equalization,parametric_eq,fixed_band_eq,equalized_raw,equalized_smoothed,target
20.00,1.77,1.77,-0.83,-0.82,0.83,0.31,-0.48,2.60,2.60,2.60
20.20,1.80,1.80,-0.80,-0.80,0.80,0.29,-0.49,2.60,2.60,2.60
20.40,1.83,1.83,-0.77,-0.77,0.77,0.27,-0.51,2.60,2.60,2.60
20.61,1.86,1.86,-0.74,-0.74,0.74,0.25,-0.52,2.60,2.60,2.60
20.81,1.89,1.89,-0.71,-0.71,0.70,0.23,-0.53,2.59,2.59,2.60
21.02,1.92,1.92,-0.67,-0.67,0.66,0.20,-0.55,2.59,2.59,2.60
21.23,1.95,1.95,-0.62,-0.63,0.62,0.18,-0.56,2.58,2.58,2.58
21.44,1.98,1.98,-0.58,-0.58,0.58,0.16,-0.58,2.56,2.56,2.57
21.66,2.01,2.01,-0.53,-0.53,0.54,0.14,-0.59,2.55,2.55,2.55
21.87,2.04,2.04,-0.48,-0.49,0.49,0.11,-0.61,2.53,2.53,2.52
22.09,2.07,2.07,-0.44,-0.44,0.44,0.09,-0.62,2.51,2.51,2.51
22.31,2.10,2.10,-0.38,-0.39,0.39,0.07,-0.64,2.49,2.49,2.48
22.54,2.12,2.13,-0.34,-0.34,0.33,0.04,-0.66,2.46,2.46,2.46
22.76,2.15,2.15,-0.29,-0.29,0.28,0.02,-0.68,2.44,2.44,2.44
22.99,2.18,2.18,-0.23,-0.23,0.23,-0.01,-0.69,2.41,2.41,2.41
23.22,2.21,2.21,-0.17,-0.17,0.18,-0.03,-0.71,2.39,2.39,2.38
23.45,2.24,2.24,-0.12,-0.12,0.13,-0.06,-0.73,2.37,2.37,2.36
23.69,2.27,2.27,-0.08,-0.07,0.07,-0.08,-0.75,2.35,2.35,2.35
23.92,2.30,2.30,-0.03,-0.03,0.02,-0.11,-0.77,2.33,2.33,2.33
24.16,2.34,2.34,0.02,0.02,-0.03,-0.13,-0.79,2.31,2.31,2.32
24.40,2.37,2.37,0.08,0.08,-0.08,-0.16,-0.81,2.29,2.29,2.30
24.65,2.41,2.41,0.14,0.13,-0.13,-0.19,-0.83,2.28,2.28,2.28
24.89,2.44,2.44,0.19,0.19,-0.18,-0.21,-0.85,2.26,2.26,2.26
25.14,2.48,2.48,0.24,0.24,-0.24,-0.24,-0.87,2.24,2.24,2.24
25.39,2.51,2.51,0.29,0.29,-0.29,-0.27,-0.89,2.22,2.22,2.22
25.65,2.55,2.55,0.34,0.34,-0.34,-0.30,-0.91,2.21,2.21,2.21
25.91,2.58,2.58,0.40,0.40,-0.40,-0.33,-0.94,2.19,2.19,2.18
26.16,2.62,2.62,0.45,0.45,-0.45,-0.35,-0.96,2.17,2.17,2.17
26.43,2.65,2.66,0.49,0.50,-0.50,-0.38,-0.98,2.15,2.16,2.16
26.69,2.69,2.69,0.55,0.55,-0.55,-0.41,-1.00,2.14,2.14,2.14
26.96,2.73,2.73,0.61,0.60,-0.60,-0.44,-1.03,2.13,2.13,2.13
27.23,2.76,2.76,0.65,0.65,-0.65,-0.47,-1.05,2.11,2.11,2.12
27.50,2.80,2.80,0.70,0.70,-0.70,-0.50,-1.07,2.10,2.10,2.10
27.77,2.83,2.84,0.75,0.75,-0.75,-0.53,-1.09,2.08,2.08,2.08
28.05,2.87,2.87,0.80,0.80,-0.80,-0.56,-1.11,2.07,2.07,2.07
28.33,2.90,2.90,0.85,0.85,-0.85,-0.60,-1.14,2.05,2.05,2.05
28.62,2.93,2.94,0.89,0.90,-0.90,-0.63,-1.16,2.04,2.04,2.04
28.90,2.97,2.97,0.95,0.95,-0.94,-0.66,-1.18,2.03,2.03,2.03
29.19,3.00,3.00,1.00,0.99,-0.99,-0.69,-1.20,2.01,2.01,2.00
29.48,3.03,3.03,1.03,1.03,-1.03,-0.72,-1.22,2.00,2.00,2.00
29.78,3.06,3.06,1.07,1.07,-1.08,-0.76,-1.24,1.98,1.98,1.99
30.08,3.09,3.10,1.11,1.12,-1.13,-0.79,-1.26,1.97,1.97,1.98
30.38,3.13,3.13,1.17,1.17,-1.17,-0.82,-1.28,1.96,1.96,1.96
30.68,3.16,3.16,1.22,1.22,-1.22,-0.86,-1.30,1.95,1.95,1.95
30.99,3.19,3.19,1.27,1.27,-1.26,-0.89,-1.31,1.93,1.93,1.92
31.30,3.22,3.22,1.31,1.31,-1.30,-0.93,-1.33,1.92,1.91,1.91
31.61,3.24,3.24,1.34,1.35,-1.35,-0.96,-1.35,1.89,1.90,1.90
31.93,3.26,3.26,1.39,1.39,-1.39,-1.00,-1.36,1.87,1.87,1.88
32.24,3.28,3.28,1.44,1.43,-1.43,-1.03,-1.38,1.85,1.85,1.84
32.57,3.29,3.30,1.46,1.47,-1.46,-1.07,-1.40,1.83,1.83,1.83
32.89,3.31,3.31,1.49,1.50,-1.50,-1.10,-1.41,1.81,1.81,1.82
33.22,3.33,3.33,1.55,1.53,-1.54,-1.14,-1.43,1.80,1.79,1.79
33.55,3.34,3.34,1.57,1.57,-1.57,-1.17,-1.44,1.77,1.77,1.77
33.89,3.35,3.36,1.60,1.61,-1.61,-1.21,-1.45,1.75,1.75,1.75
34.23,3.37,3.37,1.64,1.64,-1.64,-1.25,-1.47,1.73,1.73,1.73
34.57,3.38,3.38,1.68,1.68,-1.68,-1.29,-1.48,1.71,1.71,1.70
34.92,3.39,3.40,1.71,1.71,-1.71,-1.32,-1.50,1.68,1.69,1.68
35.27,3.41,3.41,1.74,1.74,-1.74,-1.36,-1.51,1.67,1.66,1.67
35.62,3.42,3.42,1.78,1.78,-1.78,-1.40,-1.53,1.64,1.64,1.64
35.97,3.43,3.44,1.81,1.81,-1.81,-1.44,-1.54,1.62,1.63,1.62
36.33,3.45,3.45,1.85,1.85,-1.84,-1.48,-1.56,1.61,1.60,1.61
36.70,3.46,3.46,1.88,1.88,-1.88,-1.52,-1.57,1.58,1.58,1.58
37.06,3.47,3.48,1.91,1.91,-1.91,-1.55,-1.59,1.56,1.56,1.56
37.43,3.49,3.49,1.95,1.95,-1.95,-1.59,-1.61,1.54,1.54,1.54
37.81,3.50,3.50,1.98,1.98,-1.99,-1.63,-1.62,1.52,1.52,1.52
38.19,3.52,3.52,2.03,2.02,-2.02,-1.67,-1.64,1.50,1.50,1.50
38.57,3.53,3.53,2.05,2.06,-2.06,-1.71,-1.66,1.47,1.48,1.48
38.95,3.55,3.55,2.10,2.10,-2.10,-1.75,-1.68,1.46,1.46,1.46
39.34,3.57,3.57,2.14,2.14,-2.14,-1.80,-1.70,1.44,1.44,1.43
39.74,3.59,3.59,2.19,2.18,-2.17,-1.84,-1.73,1.42,1.42,1.41
40.14,3.60,3.61,2.20,2.21,-2.21,-1.88,-1.75,1.39,1.39,1.40
40.54,3.62,3.62,2.25,2.25,-2.25,-1.92,-1.78,1.37,1.38,1.38
40.94,3.64,3.64,2.28,2.28,-2.28,-1.96,-1.80,1.36,1.36,1.36
41.35,3.66,3.66,2.33,2.32,-2.32,-2.00,-1.83,1.34,1.34,1.33
41.76,3.68,3.68,2.36,2.36,-2.36,-2.04,-1.86,1.32,1.32,1.33
42.18,3.70,3.70,2.39,2.40,-2.40,-2.09,-1.89,1.31,1.31,1.31
42.60,3.72,3.72,2.44,2.43,-2.44,-2.13,-1.92,1.29,1.29,1.28
43.03,3.74,3.74,2.47,2.47,-2.47,-2.17,-1.95,1.27,1.27,1.28
43.46,3.76,3.76,2.51,2.51,-2.51,-2.22,-1.99,1.25,1.25,1.25
43.90,3.78,3.78,2.56,2.55,-2.55,-2.26,-2.03,1.23,1.23,1.22
44.33,3.80,3.80,2.60,2.60,-2.59,-2.30,-2.06,1.21,1.21,1.20
44.78,3.81,3.82,2.63,2.63,-2.63,-2.35,-2.10,1.18,1.18,1.19
45.23,3.83,3.83,2.67,2.67,-2.67,-2.39,-2.14,1.16,1.16,1.16
45.68,3.85,3.85,2.71,2.71,-2.70,-2.43,-2.18,1.15,1.14,1.14
46.13,3.86,3.87,2.74,2.74,-2.74,-2.48,-2.23,1.12,1.13,1.12
46.60,3.88,3.88,2.77,2.77,-2.77,-2.52,-2.27,1.11,1.11,1.11
47.06,3.89,3.90,2.80,2.80,-2.81,-2.57,-2.32,1.09,1.09,1.09
47.53,3.91,3.91,2.84,2.83,-2.84,-2.61,-2.37,1.07,1.07,1.07
48.01,3.92,3.92,2.86,2.87,-2.87,-2.66,-2.42,1.05,1.05,1.06
48.49,3.93,3.93,2.90,2.90,-2.91,-2.70,-2.47,1.02,1.02,1.03
48.97,3.94,3.95,2.94,2.95,-2.95,-2.75,-2.52,1.00,1.00,1.00
49.46,3.96,3.96,2.99,2.99,-2.98,-2.79,-2.57,0.98,0.98,0.97
49.96,3.97,3.97,3.04,3.02,-3.02,-2.84,-2.63,0.95,0.95,0.94
50.46,3.98,3.98,3.05,3.06,-3.05,-2.88,-2.68,0.93,0.93,0.93
50.96,3.99,3.99,3.08,3.09,-3.09,-2.93,-2.74,0.90,0.90,0.91
51.47,4.00,4.00,3.12,3.12,-3.12,-2.97,-2.79,0.88,0.88,0.88
51.99,4.01,4.01,3.16,3.15,-3.15,-3.02,-2.85,0.86,0.86,0.86
52.51,4.02,4.02,3.18,3.19,-3.19,-3.07,-2.91,0.84,0.84,0.84
53.03,4.03,4.03,3.22,3.22,-3.22,-3.11,-2.97,0.81,0.82,0.82
53.56,4.04,4.04,3.25,3.25,-3.25,-3.16,-3.02,0.79,0.79,0.79
54.10,4.05,4.05,3.29,3.28,-3.28,-3.20,-3.08,0.77,0.77,0.77
54.64,4.05,4.06,3.31,3.32,-3.32,-3.25,-3.14,0.74,0.74,0.74
55.18,4.06,4.06,3.35,3.35,-3.35,-3.30,-3.19,0.72,0.72,0.71
55.74,4.07,4.07,3.39,3.38,-3.38,-3.34,-3.25,0.69,0.69,0.69
56.29,4.07,4.08,3.40,3.41,-3.41,-3.39,-3.30,0.66,0.67,0.67
56.86,4.08,4.08,3.44,3.44,-3.44,-3.44,-3.36,0.64,0.64,0.64
57.42,4.08,4.08,3.47,3.47,-3.47,-3.48,-3.41,0.61,0.61,0.61
58.00,4.09,4.09,3.50,3.50,-3.50,-3.53,-3.46,0.59,0.59,0.59
58.58,4.09,4.10,3.53,3.53,-3.53,-3.58,-3.51,0.56,0.57,0.56
59.16,4.10,4.10,3.56,3.56,-3.56,-3.62,-3.55,0.54,0.54,0.54
59.76,4.11,4.11,3.59,3.59,-3.59,-3.67,-3.60,0.52,0.52,0.52
60.35,4.11,4.12,3.62,3.62,-3.62,-3.72,-3.64,0.49,0.49,0.49
60.96,4.12,4.12,3.64,3.65,-3.66,-3.77,-3.68,0.47,0.46,0.48
61.57,4.12,4.12,3.69,3.69,-3.69,-3.81,-3.72,0.43,0.43,0.43
62.18,4.13,4.13,3.73,3.72,-3.73,-3.86,-3.75,0.41,0.40,0.40
62.80,4.13,4.14,3.76,3.77,-3.76,-3.91,-3.78,0.37,0.38,0.38
63.43,4.14,4.14,3.80,3.80,-3.79,-3.95,-3.81,0.35,0.35,0.34
64.07,4.15,4.15,3.84,3.83,-3.83,-4.00,-3.84,0.32,0.32,0.32
64.71,4.15,4.16,3.85,3.86,-3.86,-4.05,-3.86,0.29,0.30,0.30
65.35,4.16,4.16,3.89,3.89,-3.89,-4.09,-3.89,0.27,0.27,0.27
66.01,4.17,4.17,3.92,3.92,-3.92,-4.14,-3.91,0.25,0.25,0.25
66.67,4.17,4.18,3.95,3.95,-3.95,-4.19,-3.93,0.22,0.23,0.22
67.33,4.18,4.18,3.98,3.98,-3.98,-4.24,-3.94,0.20,0.20,0.20
68.01,4.18,4.18,4.01,4.01,-4.01,-4.28,-3.96,0.18,0.18,0.17
68.69,4.18,4.19,4.03,4.04,-4.04,-4.33,-3.97,0.15,0.15,0.15
69.37,4.19,4.19,4.07,4.06,-4.06,-4.38,-3.99,0.13,0.12,0.12
70.07,4.19,4.19,4.09,4.09,-4.09,-4.42,-4.00,0.10,0.10,0.10
70.77,4.19,4.20,4.12,4.13,-4.13,-4.47,-4.01,0.07,0.07,0.07
71.48,4.20,4.20,4.16,4.16,-4.16,-4.51,-4.02,0.04,0.04,0.04
72.19,4.20,4.20,4.19,4.19,-4.19,-4.56,-4.04,0.01,0.01,0.01
72.91,4.20,4.20,4.22,4.22,-4.23,-4.61,-4.05,-0.02,-0.02,-0.02
73.64,4.20,4.21,4.26,4.26,-4.26,-4.65,-4.06,-0.06,-0.06,-0.06
74.38,4.21,4.21,4.30,4.30,-4.30,-4.70,-4.08,-0.09,-0.09,-0.09
75.12,4.21,4.21,4.35,4.34,-4.34,-4.74,-4.10,-0.13,-0.13,-0.13
75.87,4.21,4.21,4.38,4.38,-4.38,-4.79,-4.11,-0.16,-0.16,-0.16
76.63,4.21,4.22,4.41,4.42,-4.42,-4.84,-4.13,-0.20,-0.20,-0.19
77.40,4.22,4.22,4.46,4.46,-4.46,-4.88,-4.16,-0.23,-0.24,-0.24
78.17,4.22,4.22,4.51,4.50,-4.50,-4.93,-4.18,-0.27,-0.27,-0.29
78.95,4.22,4.22,4.53,4.54,-4.54,-4.97,-4.21,-0.31,-0.31,-0.31
79.74,4.22,4.22,4.58,4.58,-4.58,-5.02,-4.24,-0.36,-0.36,-0.35
80.54,4.22,4.22,4.62,4.62,-4.62,-5.06,-4.27,-0.40,-0.40,-0.40
81.35,4.22,4.22,4.66,4.66,-4.66,-5.10,-4.30,-0.44,-0.44,-0.44
82.16,4.22,4.22,4.71,4.71,-4.71,-5.15,-4.34,-0.49,-0.49,-0.49
82.98,4.22,4.22,4.75,4.75,-4.75,-5.19,-4.38,-0.53,-0.53,-0.52
83.81,4.22,4.22,4.80,4.80,-4.80,-5.23,-4.42,-0.58,-0.58,-0.58
84.65,4.22,4.22,4.85,4.85,-4.85,-5.28,-4.47,-0.62,-0.62,-0.63
85.50,4.22,4.22,4.89,4.89,-4.89,-5.32,-4.52,-0.67,-0.67,-0.67
86.35,4.22,4.22,4.94,4.94,-4.94,-5.36,-4.58,-0.72,-0.72,-0.72
87.22,4.22,4.22,4.99,4.98,-4.98,-5.40,-4.63,-0.76,-0.76,-0.77
88.09,4.21,4.22,5.03,5.03,-5.03,-5.45,-4.70,-0.82,-0.81,-0.82
88.97,4.21,4.21,5.07,5.07,-5.07,-5.49,-4.76,-0.86,-0.86,-0.86
89.86,4.20,4.21,5.11,5.12,-5.12,-5.53,-4.83,-0.92,-0.91,-0.91
90.76,4.20,4.20,5.17,5.17,-5.16,-5.57,-4.90,-0.96,-0.96,-0.97
91.66,4.19,4.19,5.21,5.21,-5.21,-5.61,-4.98,-1.02,-1.02,-1.01
92.58,4.18,4.19,5.26,5.26,-5.25,-5.65,-5.06,-1.07,-1.07,-1.08
93.51,4.18,4.18,5.29,5.29,-5.30,-5.69,-5.14,-1.11,-1.12,-1.11
94.44,4.17,4.17,5.34,5.34,-5.34,-5.72,-5.22,-1.17,-1.17,-1.16
95.39,4.16,4.16,5.38,5.38,-5.39,-5.76,-5.31,-1.23,-1.22,-1.22
96.34,4.15,4.15,5.44,5.43,-5.43,-5.80,-5.40,-1.28,-1.28,-1.28
97.30,4.14,4.14,5.48,5.48,-5.48,-5.83,-5.50,-1.34,-1.34,-1.34
98.28,4.13,4.13,5.53,5.53,-5.53,-5.87,-5.60,-1.39,-1.40,-1.39
99.26,4.11,4.12,5.57,5.57,-5.57,-5.91,-5.70,-1.46,-1.46,-1.46
100.25,4.10,4.10,5.62,5.62,-5.62,-5.94,-5.80,-1.52,-1.52,-1.52
101.25,4.09,4.09,5.66,5.67,-5.67,-5.97,-5.90,-1.57,-1.58,-1.57
102.27,4.07,4.08,5.71,5.71,-5.71,-6.01,-6.01,-1.64,-1.64,-1.64
103.29,4.06,4.06,5.77,5.76,-5.76,-6.04,-6.12,-1.70,-1.70,-1.70
104.32,4.04,4.04,5.80,5.80,-5.80,-6.07,-6.23,-1.76,-1.76,-1.76
105.37,4.02,4.03,5.84,5.85,-5.85,-6.10,-6.33,-1.83,-1.82,-1.82
106.42,4.01,4.01,5.90,5.89,-5.89,-6.13,-6.44,-1.88,-1.89,-1.88
107.48,3.99,3.99,5.94,5.94,-5.94,-6.16,-6.55,-1.95,-1.95,-1.95
108.56,3.97,3.97,5.99,5.99,-5.99,-6.19,-6.66,-2.01,-2.01,-2.02
109.64,3.95,3.95,6.03,6.03,-6.03,-6.22,-6.76,-2.08,-2.08,-2.08
110.74,3.93,3.93,6.07,6.08,-6.08,-6.24,-6.86,-2.15,-2.15,-2.14
111.85,3.91,3.91,6.12,6.12,-6.13,-6.27,-6.96,-2.21,-2.21,-2.20
112.97,3.89,3.89,6.18,6.17,-6.17,-6.30,-7.05,-2.28,-2.28,-2.29
114.10,3.87,3.87,6.22,6.22,-6.22,-6.32,-7.14,-2.35,-2.35,-2.34
115.24,3.85,3.85,6.26,6.27,-6.26,-6.34,-7.22,-2.41,-2.41,-2.41
116.39,3.83,3.83,6.32,6.31,-6.31,-6.36,-7.30,-2.48,-2.48,-2.48
117.55,3.80,3.81,6.35,6.35,-6.35,-6.39,-7.36,-2.55,-2.54,-2.55
118.73,3.78,3.78,6.39,6.39,-6.39,-6.41,-7.43,-2.61,-2.61,-2.61
119.92,3.75,3.76,6.42,6.42,-6.42,-6.42,-7.47,-2.67,-2.67,-2.66
121.12,3.73,3.73,6.46,6.46,-6.46,-6.44,-7.52,-2.72,-2.73,-2.73
122.33,3.70,3.70,6.49,6.49,-6.49,-6.46,-7.54,-2.79,-2.79,-2.79
123.55,3.67,3.67,6.51,6.52,-6.52,-6.47,-7.57,-2.85,-2.85,-2.84
124.79,3.64,3.64,6.55,6.54,-6.55,-6.49,-7.57,-2.90,-2.90,-2.90
126.03,3.61,3.61,6.57,6.57,-6.57,-6.50,-7.58,-2.96,-2.96,-2.95
127.29,3.58,3.58,6.60,6.60,-6.60,-6.51,-7.56,-3.02,-3.02,-3.01
128.57,3.55,3.55,6.63,6.62,-6.62,-6.52,-7.54,-3.07,-3.07,-3.08
129.85,3.51,3.52,6.64,6.65,-6.64,-6.53,-7.51,-3.13,-3.13,-3.13
131.15,3.48,3.48,6.66,6.67,-6.66,-6.54,-7.47,-3.18,-3.18,-3.18
132.46,3.45,3.45,6.69,6.68,-6.68,-6.55,-7.42,-3.23,-3.23,-3.24
133.79,3.41,3.42,6.69,6.70,-6.70,-6.56,-7.36,-3.28,-3.28,-3.27
135.12,3.38,3.38,6.71,6.70,-6.71,-6.56,-7.29,-3.33,-3.33,-3.33
136.48,3.35,3.35,6.72,6.71,-6.72,-6.56,-7.22,-3.36,-3.37,-3.36
137.84,3.31,3.32,6.71,6.73,-6.72,-6.56,-7.14,-3.41,-3.41,-3.40
139.22,3.28,3.28,6.73,6.73,-6.73,-6.57,-7.05,-3.44,-3.44,-3.45
140.61,3.25,3.25,6.75,6.73,-6.73,-6.56,-6.96,-3.48,-3.48,-3.49
142.02,3.21,3.22,6.72,6.73,-6.73,-6.56,-6.87,-3.52,-3.51,-3.51
143.44,3.18,3.18,6.72,6.72,-6.73,-6.56,-6.77,-3.54,-3.55,-3.54
144.87,3.14,3.15,6.72,6.72,-6.72,-6.55,-6.67,-3.58,-3.58,-3.58
146.32,3.11,3.11,6.72,6.72,-6.72,-6.55,-6.57,-3.61,-3.61,-3.61
147.78,3.08,3.08,6.71,6.71,-6.71,-6.54,-6.47,-3.63,-3.63,-3.63
149.26,3.04,3.05,6.70,6.71,-6.71,-6.53,-6.37,-3.66,-3.66,-3.65
150.75,3.01,3.01,6.70,6.70,-6.70,-6.52,-6.27,-3.69,-3.69,-3.69
152.26,2.98,2.98,6.70,6.70,-6.69,-6.51,-6.17,-3.71,-3.72,-3.72
153.78,2.94,2.95,6.69,6.69,-6.69,-6.50,-6.07,-3.75,-3.74,-3.74
155.32,2.91,2.91,6.68,6.68,-6.68,-6.48,-5.97,-3.77,-3.77,-3.77
156.88,2.88,2.88,6.67,6.67,-6.68,-6.47,-5.87,-3.80,-3.80,-3.79
158.44,2.84,2.85,6.67,6.67,-6.67,-6.45,-5.78,-3.83,-3.82,-3.83
160.03,2.81,2.81,6.67,6.67,-6.66,-6.43,-5.69,-3.85,-3.85,-3.86
161.63,2.77,2.77,6.66,6.66,-6.65,-6.41,-5.60,-3.88,-3.88,-3.89
163.24,2.73,2.73,6.64,6.64,-6.64,-6.39,-5.52,-3.91,-3.91,-3.91
164.88,2.69,2.69,6.62,6.63,-6.63,-6.36,-5.44,-3.94,-3.94,-3.93
166.53,2.65,2.65,6.61,6.61,-6.61,-6.34,-5.36,-3.96,-3.96,-3.96
168.19,2.60,2.61,6.60,6.60,-6.60,-6.31,-5.28,-4.00,-3.99,-4.00
169.87,2.56,2.56,6.59,6.58,-6.58,-6.28,-5.21,-4.02,-4.02,-4.02
171.57,2.51,2.51,6.56,6.56,-6.57,-6.25,-5.15,-4.05,-4.05,-4.05
173.29,2.46,2.46,6.54,6.55,-6.55,-6.22,-5.08,-4.09,-4.08,-4.08
175.02,2.41,2.41,6.53,6.53,-6.53,-6.19,-5.02,-4.12,-4.12,-4.11
176.77,2.36,2.36,6.52,6.51,-6.51,-6.16,-4.97,-4.15,-4.15,-4.16
178.54,2.30,2.31,6.49,6.50,-6.50,-6.12,-4.92,-4.19,-4.19,-4.19
180.32,2.25,2.25,6.48,6.48,-6.48,-6.08,-4.87,-4.22,-4.23,-4.23
182.13,2.19,2.19,6.45,6.45,-6.46,-6.04,-4.82,-4.26,-4.26,-4.26
183.95,2.13,2.13,6.43,6.43,-6.43,-6.00,-4.78,-4.30,-4.30,-4.30
185.79,2.07,2.07,6.40,6.41,-6.41,-5.96,-4.74,-4.33,-4.33,-4.33
187.65,2.01,2.01,6.38,6.38,-6.38,-5.92,-4.71,-4.36,-4.36,-4.37
189.52,1.95,1.95,6.35,6.35,-6.34,-5.87,-4.68,-4.39,-4.39,-4.40
191.42,1.88,1.88,6.31,6.31,-6.31,-5.83,-4.65,-4.43,-4.43,-4.43
193.33,1.81,1.81,6.26,6.27,-6.27,-5.78,-4.63,-4.46,-4.46,-4.45
195.27,1.74,1.74,6.22,6.22,-6.23,-5.73,-4.61,-4.49,-4.49,-4.48
197.22,1.67,1.67,6.18,6.18,-6.19,-5.68,-4.59,-4.51,-4.51,-4.51
199.19,1.60,1.60,6.16,6.14,-6.14,-5.62,-4.57,-4.54,-4.54,-4.55
201.18,1.52,1.53,6.09,6.10,-6.09,-5.57,-4.56,-4.57,-4.56,-4.57
203.19,1.45,1.45,6.04,6.04,-6.04,-5.51,-4.55,-4.58,-4.59,-4.59
205.23,1.37,1.37,5.98,5.98,-5.98,-5.46,-4.54,-4.61,-4.61,-4.61
207.28,1.29,1.29,5.91,5.92,-5.92,-5.40,-4.53,-4.63,-4.63,-4.62
209.35,1.21,1.21,5.86,5.86,-5.86,-5.34,-4.52,-4.65,-4.65,-4.65
211.44,1.13,1.13,5.81,5.80,-5.80,-5.27,-4.52,-4.67,-4.67,-4.68
213.56,1.05,1.05,5.74,5.74,-5.74,-5.21,-4.51,-4.68,-4.69,-4.69
215.69,0.97,0.97,5.66,5.67,-5.67,-5.14,-4.51,-4.70,-4.70,-4.69
217.85,0.89,0.89,5.60,5.60,-5.60,-5.07,-4.50,-4.71,-4.71,-4.71
220.03,0.81,0.81,5.54,5.53,-5.53,-5.01,-4.50,-4.72,-4.72,-4.73
222.23,0.72,0.73,5.46,5.46,-5.46,-4.93,-4.49,-4.74,-4.73,-4.74
224.45,0.64,0.64,5.37,5.38,-5.38,-4.86,-4.48,-4.74,-4.74,-4.73
226.70,0.56,0.56,5.30,5.30,-5.30,-4.79,-4.47,-4.74,-4.74,-4.74
228.96,0.48,0.48,5.23,5.22,-5.22,-4.71,-4.46,-4.74,-4.74,-4.74
231.25,0.40,0.40,5.14,5.13,-5.13,-4.63,-4.45,-4.73,-4.74,-4.73
233.57,0.31,0.32,5.04,5.04,-5.05,-4.56,-4.43,-4.74,-4.73,-4.72
235.90,0.23,0.23,4.96,4.96,-4.96,-4.47,-4.41,-4.73,-4.73,-4.72
238.26,0.15,0.15,4.87,4.87,-4.87,-4.39,-4.39,-4.72,-4.72,-4.72
240.64,0.07,0.07,4.77,4.78,-4.78,-4.31,-4.36,-4.71,-4.71,-4.70
243.05,-0.01,-0.01,4.68,4.68,-4.69,-4.22,-4.33,-4.69,-4.69,-4.69
245.48,-0.09,-0.09,4.58,4.58,-4.59,-4.14,-4.29,-4.68,-4.68,-4.67
247.93,-0.18,-0.18,4.48,4.48,-4.49,-4.05,-4.25,-4.67,-4.66,-4.66
250.41,-0.27,-0.27,4.38,4.37,-4.38,-3.96,-4.20,-4.65,-4.65,-4.64
252.92,-0.37,-0.37,4.24,4.25,-4.26,-3.86,-4.15,-4.62,-4.62,-4.61
255.45,-0.48,-0.48,4.11,4.12,-4.12,-3.77,-4.10,-4.59,-4.59,-4.59
258.00,-0.60,-0.60,3.97,3.97,-3.95,-3.68,-4.04,-4.55,-4.56,-4.57
260.58,-0.76,-0.76,3.80,3.79,-3.76,-3.58,-3.97,-4.52,-4.52,-4.55
263.19,-0.94,-0.94,3.59,3.59,-3.55,-3.48,-3.90,-4.49,-4.49,-4.53
265.82,-1.16,-1.16,3.35,3.35,-3.30,-3.38,-3.83,-4.46,-4.46,-4.51
268.48,-1.40,-1.40,3.08,3.08,-3.04,-3.28,-3.75,-4.44,-4.44,-4.48
271.16,-1.68,-1.68,2.77,2.78,-2.76,-3.18,-3.67,-4.44,-4.44,-4.45
273.87,-1.95,-1.95,2.49,2.48,-2.48,-3.07,-3.59,-4.43,-4.44,-4.43
276.61,-2.23,-2.22,2.17,2.19,-2.21,-2.97,-3.50,-4.44,-4.43,-4.40
279.38,-2.46,-2.46,1.93,1.92,-1.96,-2.86,-3.41,-4.42,-4.42,-4.38
282.17,-2.66,-2.66,1.70,1.70,-1.74,-2.75,-3.31,-4.40,-4.40,-4.36
284.99,-2.83,-2.81,1.51,1.52,-1.56,-2.64,-3.21,-4.39,-4.38,-4.33
287.84,-2.92,-2.92,1.39,1.39,-1.43,-2.53,-3.11,-4.34,-4.35,-4.31
290.72,-2.98,-2.98,1.30,1.30,-1.33,-2.42,-3.01,-4.31,-4.31,-4.27
293.63,-3.01,-3.00,1.25,1.25,-1.26,-2.30,-2.91,-4.27,-4.27,-4.26
296.57,-3.00,-3.00,1.22,1.23,-1.23,-2.19,-2.81,-4.22,-4.22,-4.22
299.53,-2.98,-2.98,1.22,1.22,-1.20,-2.07,-2.70,-4.18,-4.18,-4.20
302.53,-2.95,-2.95,1.22,1.21,-1.19,-1.96,-2.60,-4.13,-4.14,-4.17
305.55,-2.94,-2.94,1.19,1.19,-1.17,-1.84,-2.49,-4.10,-4.10,-4.12
308.61,-2.94,-2.94,1.16,1.16,-1.14,-1.72,-2.39,-4.08,-4.07,-4.10
311.69,-2.95,-2.95,1.11,1.11,-1.10,-1.60,-2.28,-4.04,-4.05,-4.06
314.81,-2.98,-2.98,1.05,1.05,-1.04,-1.48,-2.17,-4.02,-4.02,-4.03
317.96,-3.03,-3.02,0.97,0.97,-0.97,-1.36,-2.07,-4.00,-3.99,-4.00
321.14,-3.08,-3.08,0.89,0.89,-0.89,-1.24,-1.96,-3.96,-3.97,-3.97
324.35,-3.15,-3.15,0.80,0.79,-0.79,-1.12,-1.86,-3.94,-3.94,-3.94
327.59,-3.22,-3.22,0.69,0.69,-0.69,-1.00,-1.75,-3.91,-3.91,-3.91
330.87,-3.30,-3.30,0.58,0.59,-0.59,-0.87,-1.64,-3.89,-3.89,-3.88
334.18,-3.38,-3.38,0.49,0.48,-0.49,-0.75,-1.54,-3.87,-3.87,-3.86
337.52,-3.46,-3.46,0.38,0.38,-0.39,-0.63,-1.44,-3.85,-3.84,-3.84
340.90,-3.54,-3.54,0.27,0.28,-0.29,-0.51,-1.33,-3.82,-3.82,-3.81
344.30,-3.61,-3.61,0.18,0.18,-0.18,-0.39,-1.23,-3.79,-3.80,-3.79
347.75,-3.69,-3.68,0.08,0.08,-0.08,-0.27,-1.13,-3.77,-3.76,-3.76
351.23,-3.76,-3.76,-0.01,-0.01,0.02,-0.15,-1.03,-3.74,-3.73,-3.75
354.74,-3.83,-3.84,-0.10,-0.11,0.13,-0.04,-0.92,-3.70,-3.71,-3.73
358.28,-3.94,-3.93,-0.23,-0.22,0.24,0.08,-0.82,-3.70,-3.70,-3.71
361.87,-4.04,-4.03,-0.35,-0.34,0.35,0.19,-0.72,-3.69,-3.69,-3.69
365.49,-4.13,-4.13,-0.46,-0.46,0.46,0.30,-0.62,-3.67,-3.67,-3.66
369.14,-4.23,-4.23,-0.57,-0.57,0.57,0.41,-0.53,-3.65,-3.65,-3.66
372.83,-4.32,-4.32,-0.68,-0.68,0.69,0.52,-0.43,-3.63,-3.63,-3.64
376.56,-4.41,-4.41,-0.79,-0.79,0.79,0.63,-0.33,-3.61,-3.61,-3.62
380.33,-4.49,-4.49,-0.90,-0.89,0.89,0.73,-0.23,-3.59,-3.59,-3.59
384.13,-4.56,-4.56,-0.99,-0.99,0.98,0.83,-0.14,-3.58,-3.58,-3.57
387.97,-4.62,-4.62,-1.06,-1.06,1.05,0.92,-0.04,-3.56,-3.56,-3.55
391.85,-4.66,-4.66,-1.12,-1.12,1.11,1.01,0.05,-3.54,-3.54,-3.54
395.77,-4.68,-4.68,-1.17,-1.17,1.15,1.10,0.14,-3.52,-3.52,-3.51
399.73,-4.68,-4.68,-1.19,-1.19,1.18,1.18,0.24,-3.50,-3.50,-3.49
403.72,-4.67,-4.67,-1.20,-1.20,1.19,1.26,0.33,-3.48,-3.48,-3.47
407.76,-4.64,-4.63,-1.19,-1.19,1.18,1.34,0.42,-3.46,-3.46,-3.45
411.84,-4.59,-4.59,-1.17,-1.16,1.16,1.41,0.50,-3.43,-3.43,-3.42
415.96,-4.54,-4.54,-1.13,-1.13,1.14,1.47,0.59,-3.40,-3.40,-3.40
420.12,-4.48,-4.48,-1.09,-1.10,1.11,1.53,0.68,-3.37,-3.37,-3.38
424.32,-4.43,-4.43,-1.07,-1.07,1.08,1.58,0.76,-3.35,-3.35,-3.36
428.56,-4.38,-4.38,-1.04,-1.04,1.05,1.63,0.84,-3.32,-3.33,-3.34
432.85,-4.34,-4.34,-1.02,-1.03,1.03,1.67,0.92,-3.30,-3.30,-3.32
437.18,-4.31,-4.30,-1.02,-1.02,1.02,1.71,0.99,-3.28,-3.28,-3.29
441.55,-4.28,-4.28,-1.02,-1.01,1.02,1.74,1.06,-3.26,-3.26,-3.26
445.96,-4.26,-4.26,-1.02,-1.02,1.02,1.77,1.13,-3.24,-3.24,-3.24
450.42,-4.25,-4.24,-1.03,-1.03,1.03,1.79,1.20,-3.22,-3.21,-3.22
454.93,-4.23,-4.23,-1.05,-1.04,1.04,1.80,1.26,-3.19,-3.19,-3.18
459.48,-4.22,-4.22,-1.05,-1.06,1.06,1.81,1.32,-3.16,-3.16,-3.16
464.07,-4.21,-4.21,-1.07,-1.08,1.07,1.82,1.37,-3.14,-3.13,-3.13
468.71,-4.20,-4.20,-1.10,-1.09,1.09,1.81,1.42,-3.11,-3.11,-3.09
473.40,-4.18,-4.18,-1.10,-1.11,1.11,1.81,1.46,-3.07,-3.07,-3.08
478.13,-4.17,-4.17,-1.12,-1.12,1.12,1.80,1.50,-3.05,-3.05,-3.05
482.91,-4.15,-4.15,-1.13,-1.13,1.13,1.78,1.54,-3.01,-3.02,-3.02
487.74,-4.14,-4.14,-1.15,-1.15,1.15,1.76,1.56,-2.99,-2.99,-2.99
