frequency,raw,smoothed,error,error_smoothed,equalization,parametric_eq,fixed_band_eq,equalized_raw,equalized_smoothed,target
20.00,-5.58,-5.58,-9.57,-9.57,6.00,6.36,2.70,0.42,0.42,3.99
20.20,-5.51,-5.51,-9.48,-9.49,6.00,6.36,2.78,0.49,0.49,3.97
20.40,-5.44,-5.44,-9.39,-9.40,6.00,6.36,2.86,0.56,0.56,3.95
20.61,-5.37,-5.37,-9.32,-9.31,6.00,6.36,2.94,0.63,0.63,3.94
20.81,-5.29,-5.30,-9.21,-9.22,6.00,6.36,3.02,0.71,0.70,3.92
21.02,-5.22,-5.21,-9.13,-9.12,6.00,6.36,3.11,0.78,0.79,3.91
21.23,-5.12,-5.12,-9.01,-9.02,6.00,6.36,3.20,0.88,0.88,3.89
21.44,-5.02,-5.02,-8.90,-8.90,6.00,6.36,3.29,0.98,0.98,3.88
21.66,-4.93,-4.92,-8.80,-8.78,6.00,6.36,3.38,1.07,1.08,3.87
21.87,-4.83,-4.84,-8.68,-8.70,6.00,6.36,3.48,1.17,1.16,3.85
22.09,-4.79,-4.82,-8.63,-8.66,6.00,6.36,3.57,1.21,1.18,3.84
22.31,-4.85,-4.84,-8.68,-8.67,6.00,6.36,3.68,1.15,1.16,3.83
22.54,-4.91,-4.91,-8.73,-8.73,6.00,6.36,3.78,1.09,1.09,3.82
22.76,-4.97,-4.98,-8.78,-8.78,6.00,6.36,3.89,1.03,1.02,3.81
22.99,-5.03,-4.99,-8.83,-8.79,6.00,6.36,4.00,0.97,1.01,3.80
23.22,-4.96,-4.97,-8.75,-8.76,6.00,6.36,4.11,1.04,1.03,3.78
23.45,-4.89,-4.90,-8.68,-8.68,6.00,6.36,4.22,1.11,1.10,3.78
23.69,-4.82,-4.82,-8.60,-8.59,6.00,6.36,4.34,1.18,1.18,3.77
23.92,-4.74,-4.75,-8.51,-8.53,6.00,6.36,4.46,1.26,1.25,3.77
24.16,-4.70,-4.71,-8.47,-8.48,6.00,6.36,4.58,1.30,1.29,3.77
24.40,-4.68,-4.67,-8.45,-8.44,6.00,6.36,4.70,1.32,1.33,3.77
24.65,-4.65,-4.65,-8.42,-8.42,6.00,6.36,4.83,1.35,1.35,3.77
24.89,-4.62,-4.63,-8.39,-8.39,6.00,6.36,4.96,1.38,1.37,3.77
25.14,-4.60,-4.60,-8.37,-8.36,6.00,6.35,5.09,1.40,1.40,3.77
25.39,-4.57,-4.57,-8.34,-8.34,6.00,6.35,5.21,1.43,1.43,3.77
25.65,-4.54,-4.54,-8.31,-8.31,6.00,6.35,5.35,1.46,1.46,3.77
25.91,-4.52,-4.52,-8.30,-8.29,6.00,6.35,5.48,1.48,1.48,3.77
26.16,-4.49,-4.49,-8.27,-8.27,6.00,6.35,5.61,1.51,1.51,3.77
26.43,-4.47,-4.47,-8.24,-8.24,6.00,6.35,5.74,1.53,1.53,3.77
26.69,-4.44,-4.44,-8.21,-8.21,6.00,6.35,5.87,1.56,1.56,3.77
26.96,-4.41,-4.42,-8.18,-8.19,6.00,6.35,6.00,1.59,1.58,3.77
27.23,-4.42,-4.42,-8.19,-8.19,6.00,6.35,6.12,1.58,1.58,3.77
27.50,-4.44,-4.45,-8.21,-8.21,6.00,6.35,6.25,1.56,1.55,3.77
27.77,-4.46,-4.46,-8.23,-8.22,6.00,6.35,6.37,1.54,1.54,3.77
28.05,-4.46,-4.44,-8.23,-8.20,6.00,6.35,6.49,1.54,1.56,3.76
28.33,-4.38,-4.39,-8.13,-8.14,6.00,6.35,6.60,1.62,1.61,3.75
28.62,-4.31,-4.31,-8.06,-8.07,6.00,6.34,6.70,1.69,1.69,3.75
28.90,-4.24,-4.25,-7.99,-8.00,6.00,6.34,6.80,1.76,1.75,3.75
29.19,-4.20,-4.21,-7.95,-7.96,6.00,6.34,6.90,1.80,1.79,3.75
29.48,-4.19,-4.19,-7.94,-7.93,6.00,6.34,6.98,1.81,1.81,3.75
29.78,-4.18,-4.18,-7.93,-7.93,6.00,6.34,7.06,1.82,1.82,3.74
30.08,-4.17,-4.17,-7.91,-7.91,6.00,6.34,7.12,1.83,1.83,3.74
30.38,-4.15,-4.15,-7.89,-7.89,6.00,6.34,7.19,1.85,1.85,3.74
30.68,-4.13,-4.13,-7.86,-7.86,6.00,6.34,7.23,1.87,1.87,3.73
30.99,-4.11,-4.12,-7.84,-7.84,6.00,6.33,7.28,1.89,1.88,3.73
31.30,-4.10,-4.10,-7.82,-7.82,6.00,6.33,7.30,1.90,1.90,3.71
31.61,-4.09,-4.09,-7.80,-7.80,6.00,6.33,7.32,1.91,1.91,3.71
31.93,-4.07,-4.07,-7.78,-7.77,6.00,6.33,7.33,1.93,1.93,3.71
32.24,-4.03,-4.03,-7.73,-7.73,6.00,6.33,7.33,1.97,1.97,3.70
32.57,-3.98,-3.98,-7.68,-7.68,6.00,6.33,7.32,2.02,2.02,3.70
32.89,-3.93,-3.94,-7.62,-7.63,6.00,6.32,7.31,2.07,2.06,3.69
33.22,-3.91,-3.91,-7.60,-7.60,6.00,6.32,7.28,2.09,2.09,3.69
33.55,-3.91,-3.90,-7.60,-7.60,6.00,6.32,7.24,2.09,2.10,3.69
33.89,-3.91,-3.92,-7.61,-7.61,6.00,6.32,7.20,2.09,2.08,3.69
34.23,-3.93,-3.94,-7.62,-7.63,6.00,6.32,7.15,2.07,2.06,3.69
34.57,-3.97,-3.97,-7.66,-7.66,6.00,6.31,7.10,2.03,2.03,3.69
34.92,-4.00,-3.98,-7.70,-7.67,6.00,6.31,7.04,2.00,2.02,3.69
35.27,-3.96,-3.96,-7.65,-7.65,6.00,6.31,6.98,2.04,2.04,3.69
35.62,-3.89,-3.90,-7.59,-7.59,6.00,6.31,6.91,2.11,2.10,3.70
35.97,-3.82,-3.82,-7.52,-7.51,6.00,6.30,6.85,2.18,2.18,3.69
36.33,-3.74,-3.74,-7.43,-7.43,6.00,6.30,6.78,2.26,2.26,3.69
36.70,-3.67,-3.67,-7.36,-7.36,6.00,6.30,6.71,2.33,2.33,3.69
37.06,-3.62,-3.64,-7.30,-7.32,6.00,6.30,6.64,2.38,2.36,3.68
37.43,-3.65,-3.65,-7.32,-7.32,6.00,6.29,6.57,2.35,2.35,3.67
37.81,-3.69,-3.68,-7.36,-7.35,6.00,6.29,6.50,2.31,2.32,3.66
38.19,-3.73,-3.74,-7.38,-7.39,6.00,6.29,6.43,2.27,2.26,3.65
38.57,-3.77,-3.78,-7.41,-7.41,6.00,6.28,6.36,2.23,2.22,3.64
38.95,-3.81,-3.78,-7.43,-7.40,6.00,6.28,6.30,2.19,2.22,3.62
39.34,-3.74,-3.74,-7.35,-7.35,6.00,6.28,6.23,2.26,2.26,3.61
39.74,-3.66,-3.68,-7.26,-7.27,6.00,6.27,6.18,2.34,2.32,3.60
40.14,-3.61,-3.63,-7.20,-7.21,6.00,6.27,6.12,2.39,2.37,3.58
40.54,-3.61,-3.61,-7.18,-7.18,6.00,6.26,6.07,2.39,2.39,3.57
40.94,-3.61,-3.61,-7.17,-7.17,6.00,6.26,6.02,2.39,2.39,3.56
41.35,-3.61,-3.61,-7.17,-7.16,6.00,6.26,5.97,2.39,2.39,3.56
41.76,-3.61,-3.61,-7.15,-7.16,6.00,6.25,5.93,2.39,2.39,3.54
42.18,-3.61,-3.62,-7.15,-7.16,6.00,6.25,5.89,2.39,2.38,3.53
42.60,-3.61,-3.61,-7.15,-7.15,6.00,6.24,5.86,2.39,2.39,3.54
43.03,-3.61,-3.59,-7.14,-7.12,6.00,6.24,5.83,2.39,2.41,3.53
43.46,-3.54,-3.55,-7.06,-7.07,6.00,6.23,5.81,2.46,2.45,3.52
43.90,-3.48,-3.49,-7.01,-7.01,6.00,6.23,5.79,2.52,2.51,3.53
44.33,-3.44,-3.44,-6.96,-6.96,6.00,6.22,5.77,2.56,2.56,3.52
44.78,-3.42,-3.42,-6.93,-6.94,6.00,6.21,5.76,2.58,2.58,3.51
45.23,-3.41,-3.41,-6.92,-6.92,6.00,6.21,5.75,2.59,2.59,3.51
45.68,-3.41,-3.41,-6.91,-6.91,6.00,6.20,5.75,2.59,2.59,3.50
46.13,-3.41,-3.41,-6.91,-6.91,6.00,6.20,5.75,2.59,2.59,3.49
46.60,-3.41,-3.41,-6.90,-6.90,6.00,6.19,5.76,2.59,2.59,3.48
47.06,-3.41,-3.41,-6.89,-6.89,6.00,6.18,5.77,2.59,2.59,3.48
47.53,-3.41,-3.41,-6.88,-6.88,6.00,6.18,5.78,2.59,2.59,3.47
48.01,-3.41,-3.41,-6.87,-6.86,6.00,6.17,5.80,2.59,2.59,3.46
48.49,-3.41,-3.41,-6.85,-6.85,6.00,6.16,5.82,2.59,2.59,3.43
48.97,-3.41,-3.41,-6.84,-6.83,6.00,6.15,5.84,2.59,2.59,3.42
49.46,-3.41,-3.41,-6.82,-6.82,6.00,6.14,5.87,2.59,2.59,3.41
49.96,-3.41,-3.44,-6.80,-6.83,6.00,6.14,5.90,2.59,2.56,3.39
50.46,-3.45,-3.46,-6.83,-6.83,6.00,6.13,5.94,2.55,2.54,3.38
50.96,-3.49,-3.44,-6.86,-6.81,6.00,6.12,5.97,2.51,2.56,3.37
51.47,-3.40,-3.40,-6.75,-6.76,6.00,6.11,6.01,2.60,2.60,3.35
51.99,-3.31,-3.36,-6.65,-6.70,6.00,6.10,6.05,2.69,2.64,3.34
52.51,-3.31,-3.31,-6.64,-6.63,6.00,6.09,6.09,2.69,2.69,3.32
53.03,-3.30,-3.26,-6.61,-6.57,6.00,6.08,6.14,2.70,2.74,3.31
53.56,-3.20,-3.21,-6.50,-6.51,6.00,6.07,6.18,2.80,2.79,3.30
54.10,-3.13,-3.18,-6.41,-6.46,6.00,6.06,6.22,2.87,2.82,3.28
54.64,-3.18,-3.17,-6.45,-6.43,6.00,6.05,6.26,2.82,2.83,3.26
55.18,-3.21,-3.19,-6.46,-6.44,6.00,6.04,6.30,2.79,2.81,3.25
55.74,-3.21,-3.21,-6.44,-6.45,6.00,6.03,6.34,2.79,2.79,3.23
56.29,-3.21,-3.21,-6.42,-6.43,6.00,6.02,6.38,2.79,2.79,3.21
56.86,-3.21,-3.21,-6.41,-6.41,6.00,6.01,6.41,2.79,2.79,3.19
57.42,-3.21,-3.21,-6.39,-6.39,6.00,6.00,6.44,2.79,2.79,3.18
58.00,-3.21,-3.21,-6.38,-6.38,6.00,5.98,6.47,2.79,2.79,3.17
58.58,-3.21,-3.21,-6.36,-6.36,6.00,5.97,6.49,2.79,2.79,3.15
59.16,-3.21,-3.21,-6.34,-6.34,6.00,5.96,6.50,2.79,2.79,3.13
59.76,-3.21,-3.21,-6.32,-6.31,6.00,5.94,6.51,2.79,2.79,3.11
60.35,-3.21,-3.21,-6.30,-6.30,6.00,5.93,6.52,2.79,2.79,3.08
60.96,-3.21,-3.24,-6.27,-6.30,6.00,5.92,6.52,2.79,2.76,3.06
61.57,-3.26,-3.24,-6.30,-6.28,6.01,5.90,6.51,2.74,2.76,3.04
62.18,-3.26,-3.22,-6.28,-6.23,6.01,5.89,6.49,2.74,2.79,3.01
62.80,-3.14,-3.17,-6.12,-6.16,6.00,5.87,6.47,2.86,2.83,2.98
63.43,-3.10,-3.12,-6.06,-6.08,6.00,5.86,6.44,2.90,2.88,2.95
64.07,-3.10,-3.09,-6.03,-6.02,5.99,5.84,6.40,2.89,2.90,2.93
64.71,-3.10,-3.10,-5.99,-5.99,5.98,5.82,6.35,2.87,2.88,2.89
65.35,-3.10,-3.10,-5.97,-5.96,5.96,5.81,6.30,2.85,2.85,2.86
66.01,-3.10,-3.10,-5.93,-5.93,5.93,5.79,6.24,2.83,2.83,2.83
66.67,-3.10,-3.10,-5.90,-5.90,5.90,5.77,6.18,2.80,2.80,2.80
67.33,-3.10,-3.10,-5.86,-5.86,5.87,5.75,6.11,2.77,2.77,2.76
68.01,-3.10,-3.10,-5.83,-5.83,5.83,5.73,6.04,2.73,2.73,2.73
68.69,-3.10,-3.10,-5.79,-5.79,5.79,5.71,5.96,2.69,2.69,2.69
69.37,-3.10,-3.10,-5.76,-5.75,5.75,5.69,5.88,2.65,2.65,2.65
70.07,-3.10,-3.10,-5.71,-5.72,5.72,5.66,5.79,2.62,2.62,2.61
70.77,-3.10,-3.10,-5.68,-5.68,5.68,5.64,5.70,2.58,2.58,2.58
71.48,-3.10,-3.10,-5.64,-5.64,5.64,5.61,5.61,2.54,2.54,2.54
72.19,-3.10,-3.10,-5.60,-5.60,5.60,5.58,5.52,2.50,2.50,2.50
72.91,-3.10,-3.10,-5.56,-5.57,5.56,5.55,5.42,2.46,2.46,2.46
73.64,-3.10,-3.10,-5.53,-5.53,5.52,5.52,5.33,2.42,2.42,2.43
74.38,-3.10,-3.10,-5.49,-5.49,5.48,5.48,5.23,2.38,2.38,2.39
75.12,-3.10,-3.10,-5.44,-5.44,5.44,5.45,5.13,2.34,2.34,2.34
75.87,-3.10,-3.10,-5.40,-5.40,5.41,5.41,5.04,2.30,2.30,2.30
76.63,-3.10,-3.10,-5.36,-5.36,5.37,5.37,4.94,2.27,2.27,2.26
77.40,-3.10,-3.10,-5.32,-5.32,5.33,5.33,4.85,2.23,2.23,2.22
78.17,-3.10,-3.10,-5.28,-5.28,5.28,5.28,4.76,2.18,2.18,2.18
78.95,-3.10,-3.10,-5.24,-5.24,5.23,5.24,4.67,2.13,2.13,2.13
79.74,-3.10,-3.11,-5.19,-5.20,5.18,5.19,4.58,2.07,2.07,2.09
80.54,-3.10,-3.11,-5.15,-5.16,5.12,5.14,4.49,2.01,2.01,2.05
81.35,-3.09,-3.07,-5.09,-5.07,5.05,5.09,4.41,1.96,1.98,2.00
82.16,-3.05,-3.02,-5.01,-4.98,4.99,5.03,4.32,1.94,1.97,1.96
82.98,-2.92,-2.99,-4.83,-4.90,4.93,4.98,4.24,2.01,1.94,1.91
83.81,-2.98,-2.97,-4.84,-4.83,4.87,4.92,4.17,1.89,1.90,1.86
84.65,-3.00,-2.98,-4.82,-4.79,4.81,4.86,4.09,1.80,1.83,1.81
85.50,-3.00,-3.01,-4.76,-4.77,4.75,4.80,4.02,1.75,1.74,1.76
86.35,-3.00,-3.00,-4.71,-4.71,4.70,4.74,3.95,1.70,1.69,1.71
87.22,-3.00,-3.00,-4.66,-4.66,4.66,4.68,3.89,1.65,1.65,1.66
88.09,-3.00,-3.00,-4.61,-4.61,4.62,4.62,3.82,1.62,1.62,1.61
88.97,-3.00,-3.00,-4.56,-4.55,4.57,4.56,3.76,1.57,1.57,1.56
89.86,-3.00,-3.01,-4.50,-4.51,4.52,4.49,3.70,1.52,1.51,1.49
90.76,-3.01,-3.03,-4.45,-4.47,4.45,4.43,3.65,1.44,1.42,1.44
91.66,-3.06,-3.04,-4.44,-4.43,4.38,4.36,3.60,1.32,1.34,1.38
92.58,-3.05,-3.02,-4.38,-4.34,4.31,4.30,3.55,1.26,1.29,1.33
93.51,-2.96,-2.98,-4.22,-4.24,4.23,4.23,3.50,1.27,1.25,1.26
94.44,-2.90,-2.92,-4.10,-4.12,4.15,4.17,3.46,1.25,1.23,1.20
95.39,-2.90,-2.90,-4.04,-4.03,4.07,4.10,3.42,1.17,1.17,1.13
96.34,-2.90,-2.90,-3.97,-3.97,3.99,4.04,3.38,1.09,1.09,1.07
97.30,-2.91,-2.91,-3.91,-3.91,3.91,3.97,3.34,1.00,1.00,0.99
98.28,-2.92,-2.92,-3.85,-3.85,3.84,3.91,3.31,0.92,0.92,0.93
99.26,-2.93,-2.94,-3.79,-3.79,3.78,3.84,3.28,0.85,0.84,0.85
100.25,-2.95,-2.95,-3.73,-3.73,3.72,3.78,3.25,0.77,0.77,0.78
101.25,-2.97,-2.97,-3.67,-3.67,3.66,3.71,3.22,0.69,0.70,0.70
102.27,-2.98,-2.98,-3.61,-3.61,3.61,3.65,3.19,0.62,0.62,0.63
103.29,-2.99,-2.99,-3.54,-3.54,3.55,3.59,3.17,0.55,0.55,0.55
104.32,-3.01,-3.01,-3.48,-3.48,3.49,3.52,3.15,0.48,0.48,0.47
105.37,-3.03,-3.03,-3.43,-3.43,3.43,3.46,3.12,0.40,0.40,0.40
106.42,-3.06,-3.06,-3.37,-3.37,3.38,3.40,3.10,0.32,0.32,0.31
107.48,-3.08,-3.08,-3.32,-3.32,3.32,3.34,3.08,0.24,0.24,0.23
108.56,-3.11,-3.11,-3.28,-3.27,3.27,3.27,3.06,0.16,0.16,0.17
109.64,-3.13,-3.13,-3.22,-3.22,3.22,3.21,3.04,0.09,0.09,0.09
110.74,-3.15,-3.15,-3.17,-3.17,3.17,3.15,3.03,0.02,0.01,0.02
111.85,-3.17,-3.17,-3.12,-3.12,3.11,3.09,3.01,-0.06,-0.05,-0.05
112.97,-3.17,-3.18,-3.06,-3.06,3.06,3.04,2.99,-0.11,-0.12,-0.12
114.10,-3.18,-3.18,-3.00,-3.00,3.00,2.98,2.97,-0.18,-0.18,-0.18
115.24,-3.18,-3.18,-2.94,-2.94,2.93,2.92,2.95,-0.25,-0.25,-0.25
116.39,-3.18,-3.18,-2.87,-2.88,2.87,2.86,2.93,-0.31,-0.31,-0.31
117.55,-3.18,-3.18,-2.82,-2.81,2.80,2.81,2.91,-0.38,-0.38,-0.36
118.73,-3.17,-3.18,-2.74,-2.75,2.74,2.75,2.89,-0.43,-0.44,-0.43
119.92,-3.16,-3.16,-2.68,-2.68,2.68,2.70,2.86,-0.48,-0.47,-0.48
121.12,-3.16,-3.14,-2.63,-2.61,2.63,2.65,2.84,-0.53,-0.51,-0.53
122.33,-3.11,-3.14,-2.53,-2.56,2.59,2.60,2.81,-0.53,-0.56,-0.59
123.55,-3.15,-3.17,-2.51,-2.53,2.54,2.54,2.79,-0.61,-0.62,-0.64
124.79,-3.22,-3.19,-2.53,-2.51,2.50,2.49,2.76,-0.72,-0.70,-0.69
126.03,-3.23,-3.23,-2.49,-2.49,2.46,2.44,2.73,-0.77,-0.77,-0.74
127.29,-3.22,-3.23,-2.43,-2.44,2.42,2.40,2.69,-0.81,-0.82,-0.79
128.57,-3.22,-3.22,-2.38,-2.38,2.37,2.35,2.66,-0.85,-0.85,-0.84
129.85,-3.21,-3.21,-2.32,-2.32,2.33,2.30,2.62,-0.88,-0.88,-0.89
131.15,-3.20,-3.21,-2.27,-2.27,2.27,2.26,2.59,-0.93,-0.93,-0.94
132.46,-3.20,-3.20,-2.22,-2.22,2.22,2.21,2.55,-0.98,-0.98,-0.98
133.79,-3.20,-3.20,-2.17,-2.17,2.17,2.17,2.51,-1.04,-1.03,-1.03
135.12,-3.19,-3.20,-2.12,-2.12,2.12,2.13,2.46,-1.07,-1.08,-1.08
136.48,-3.19,-3.19,-2.07,-2.06,2.08,2.09,2.42,-1.11,-1.10,-1.12
137.84,-3.19,-3.18,-2.03,-2.01,2.05,2.04,2.38,-1.14,-1.13,-1.16
139.22,-3.18,-3.21,-1.96,-2.00,2.01,2.00,2.33,-1.17,-1.20,-1.22
140.61,-3.24,-3.26,-1.98,-1.99,1.98,1.96,2.29,-1.26,-1.27,-1.26
142.02,-3.34,-3.29,-2.03,-1.98,1.95,1.92,2.24,-1.39,-1.34,-1.31
143.44,-3.30,-3.31,-1.94,-1.95,1.91,1.89,2.19,-1.39,-1.40,-1.36
144.87,-3.28,-3.30,-1.87,-1.89,1.87,1.85,2.14,-1.41,-1.43,-1.41
146.32,-3.28,-3.28,-1.83,-1.82,1.83,1.81,2.09,-1.45,-1.45,-1.45
147.78,-3.28,-3.28,-1.78,-1.78,1.79,1.77,2.05,-1.49,-1.49,-1.50
149.26,-3.28,-3.28,-1.73,-1.73,1.74,1.73,2.00,-1.54,-1.54,-1.55
150.75,-3.28,-3.28,-1.68,-1.68,1.69,1.70,1.95,-1.59,-1.59,-1.60
152.26,-3.28,-3.28,-1.64,-1.64,1.64,1.66,1.90,-1.64,-1.64,-1.64
153.78,-3.28,-3.28,-1.60,-1.60,1.60,1.62,1.85,-1.69,-1.69,-1.68
155.32,-3.28,-3.28,-1.56,-1.56,1.55,1.59,1.81,-1.73,-1.73,-1.72
156.88,-3.28,-3.28,-1.51,-1.51,1.51,1.55,1.76,-1.77,-1.77,-1.77
158.44,-3.28,-3.28,-1.47,-1.47,1.47,1.51,1.71,-1.82,-1.82,-1.81
160.03,-3.28,-3.28,-1.43,-1.42,1.42,1.48,1.67,-1.86,-1.86,-1.85
161.63,-3.28,-3.28,-1.38,-1.38,1.38,1.44,1.62,-1.90,-1.90,-1.91
163.24,-3.28,-3.28,-1.34,-1.34,1.34,1.40,1.58,-1.94,-1.94,-1.95
164.88,-3.29,-3.29,-1.31,-1.30,1.30,1.37,1.53,-1.99,-1.98,-1.99
166.53,-3.29,-3.29,-1.27,-1.27,1.27,1.33,1.49,-2.02,-2.02,-2.03
168.19,-3.30,-3.30,-1.24,-1.24,1.24,1.30,1.45,-2.07,-2.06,-2.06
169.87,-3.30,-3.31,-1.20,-1.20,1.20,1.26,1.41,-2.10,-2.10,-2.10
171.57,-3.31,-3.31,-1.17,-1.17,1.18,1.23,1.37,-2.14,-2.14,-2.14
173.29,-3.32,-3.32,-1.15,-1.15,1.15,1.19,1.33,-2.17,-2.17,-2.17
175.02,-3.32,-3.33,-1.12,-1.12,1.12,1.16,1.29,-2.20,-2.21,-2.20
176.77,-3.33,-3.33,-1.10,-1.09,1.09,1.13,1.25,-2.24,-2.24,-2.23
178.54,-3.33,-3.33,-1.06,-1.06,1.06,1.10,1.22,-2.27,-2.26,-2.27
180.32,-3.32,-3.33,-1.03,-1.03,1.03,1.06,1.18,-2.29,-2.29,-2.29
182.13,-3.32,-3.32,-1.01,-1.00,1.00,1.03,1.15,-2.33,-2.32,-2.31
183.95,-3.31,-3.31,-0.98,-0.98,0.96,1.00,1.11,-2.35,-2.35,-2.34
185.79,-3.30,-3.30,-0.94,-0.94,0.93,0.98,1.08,-2.37,-2.37,-2.36
187.65,-3.28,-3.28,-0.90,-0.90,0.90,0.95,1.05,-2.38,-2.37,-2.38
189.52,-3.26,-3.25,-0.86,-0.85,0.88,0.92,1.01,-2.38,-2.37,-2.40
191.42,-3.21,-3.24,-0.80,-0.83,0.86,0.90,0.98,-2.35,-2.38,-2.41
193.33,-3.24,-3.25,-0.81,-0.83,0.84,0.87,0.95,-2.40,-2.41,-2.43
195.27,-3.30,-3.28,-0.86,-0.84,0.83,0.85,0.92,-2.47,-2.45,-2.45
197.22,-3.31,-3.30,-0.85,-0.84,0.81,0.82,0.90,-2.50,-2.49,-2.46
199.19,-3.30,-3.31,-0.82,-0.83,0.80,0.80,0.87,-2.50,-2.50,-2.48
201.18,-3.29,-3.30,-0.80,-0.80,0.79,0.78,0.84,-2.50,-2.50,-2.50
203.19,-3.29,-3.29,-0.78,-0.77,0.78,0.76,0.81,-2.51,-2.51,-2.51
205.23,-3.28,-3.28,-0.75,-0.76,0.77,0.74,0.79,-2.52,-2.52,-2.53
207.28,-3.28,-3.29,-0.74,-0.74,0.75,0.72,0.76,-2.53,-2.54,-2.54
209.35,-3.29,-3.29,-0.73,-0.73,0.73,0.70,0.74,-2.56,-2.56,-2.56
211.44,-3.29,-3.29,-0.71,-0.71,0.71,0.69,0.72,-2.58,-2.58,-2.58
213.56,-3.29,-3.30,-0.70,-0.70,0.69,0.67,0.70,-2.60,-2.60,-2.60
215.69,-3.30,-3.30,-0.68,-0.68,0.68,0.66,0.67,-2.62,-2.62,-2.62
217.85,-3.30,-3.30,-0.67,-0.67,0.67,0.64,0.65,-2.63,-2.63,-2.63
220.03,-3.30,-3.31,-0.65,-0.65,0.66,0.63,0.63,-2.64,-2.65,-2.65
222.23,-3.31,-3.31,-0.65,-0.64,0.65,0.61,0.61,-2.67,-2.66,-2.67
224.45,-3.31,-3.31,-0.63,-0.63,0.63,0.60,0.60,-2.68,-2.68,-2.68
226.70,-3.31,-3.31,-0.62,-0.62,0.62,0.59,0.58,-2.69,-2.69,-2.69
228.96,-3.30,-3.31,-0.60,-0.61,0.61,0.58,0.56,-2.70,-2.70,-2.70
231.25,-3.30,-3.30,-0.60,-0.59,0.59,0.56,0.55,-2.71,-2.71,-2.70
233.57,-3.29,-3.29,-0.58,-0.58,0.58,0.55,0.53,-2.71,-2.71,-2.71
235.90,-3.27,-3.28,-0.55,-0.56,0.56,0.54,0.52,-2.71,-2.71,-2.72
238.26,-3.26,-3.26,-0.54,-0.54,0.54,0.54,0.50,-2.72,-2.72,-2.72
240.64,-3.24,-3.25,-0.52,-0.53,0.52,0.53,0.49,-2.72,-2.72,-2.72
243.05,-3.23,-3.23,-0.52,-0.51,0.50,0.52,0.48,-2.73,-2.73,-2.72
245.48,-3.21,-3.21,-0.50,-0.49,0.48,0.51,0.47,-2.73,-2.73,-2.72
247.93,-3.18,-3.18,-0.47,-0.47,0.47,0.50,0.46,-2.72,-2.72,-2.71
250.41,-3.16,-3.15,-0.45,-0.44,0.46,0.50,0.45,-2.70,-2.69,-2.71
252.92,-3.12,-3.13,-0.41,-0.42,0.46,0.49,0.44,-2.67,-2.67,-2.71
255.45,-3.11,-3.14,-0.40,-0.43,0.45,0.48,0.43,-2.66,-2.69,-2.72
258.00,-3.18,-3.17,-0.47,-0.45,0.45,0.48,0.43,-2.73,-2.72,-2.71
260.58,-3.22,-3.20,-0.50,-0.48,0.45,0.47,0.42,-2.77,-2.75,-2.72
263.19,-3.22,-3.23,-0.50,-0.50,0.46,0.47,0.42,-2.76,-2.77,-2.73
265.82,-3.22,-3.22,-0.48,-0.48,0.47,0.47,0.41,-2.75,-2.76,-2.74
268.48,-3.22,-3.22,-0.47,-0.47,0.48,0.46,0.41,-2.74,-2.74,-2.75
271.16,-3.22,-3.22,-0.46,-0.46,0.49,0.46,0.40,-2.73,-2.72,-2.76
273.87,-3.23,-3.24,-0.46,-0.47,0.50,0.46,0.40,-2.73,-2.74,-2.77
276.61,-3.26,-3.28,-0.48,-0.50,0.50,0.45,0.40,-2.76,-2.78,-2.79
279.38,-3.35,-3.34,-0.55,-0.54,0.51,0.45,0.40,-2.84,-2.83,-2.80
282.17,-3.37,-3.35,-0.57,-0.54,0.51,0.45,0.40,-2.86,-2.84,-2.81
284.99,-3.36,-3.34,-0.55,-0.53,0.51,0.45,0.40,-2.85,-2.83,-2.81
287.84,-3.25,-3.32,-0.45,-0.51,0.51,0.45,0.40,-2.74,-2.81,-2.81
290.72,-3.32,-3.30,-0.51,-0.49,0.50,0.45,0.40,-2.82,-2.80,-2.81
293.63,-3.32,-3.30,-0.51,-0.49,0.49,0.45,0.41,-2.83,-2.81,-2.81
296.57,-3.29,-3.30,-0.48,-0.49,0.48,0.45,0.41,-2.81,-2.82,-2.81
299.53,-3.27,-3.26,-0.47,-0.45,0.47,0.45,0.41,-2.80,-2.78,-2.80
302.53,-3.23,-3.25,-0.42,-0.44,0.47,0.45,0.41,-2.76,-2.77,-2.81
305.55,-3.23,-3.27,-0.43,-0.46,0.48,0.45,0.42,-2.75,-2.79,-2.80
308.61,-3.33,-3.29,-0.53,-0.49,0.48,0.45,0.42,-2.85,-2.81,-2.80
311.69,-3.33,-3.32,-0.52,-0.52,0.49,0.45,0.43,-2.84,-2.83,-2.81
314.81,-3.32,-3.33,-0.51,-0.52,0.50,0.45,0.43,-2.82,-2.84,-2.81
317.96,-3.32,-3.32,-0.51,-0.51,0.51,0.46,0.44,-2.82,-2.82,-2.81
321.14,-3.32,-3.32,-0.50,-0.51,0.51,0.46,0.45,-2.81,-2.81,-2.82
324.35,-3.32,-3.32,-0.51,-0.51,0.52,0.46,0.45,-2.81,-2.81,-2.81
327.59,-3.32,-3.33,-0.51,-0.51,0.51,0.46,0.46,-2.81,-2.81,-2.81
330.87,-3.33,-3.33,-0.51,-0.51,0.51,0.47,0.47,-2.82,-2.82,-2.82
334.18,-3.33,-3.33,-0.51,-0.51,0.51,0.47,0.48,-2.82,-2.82,-2.82
337.52,-3.33,-3.33,-0.51,-0.51,0.51,0.47,0.49,-2.82,-2.82,-2.82
340.90,-3.33,-3.33,-0.51,-0.51,0.51,0.48,0.50,-2.82,-2.82,-2.82
344.30,-3.33,-3.33,-0.51,-0.51,0.51,0.48,0.51,-2.82,-2.82,-2.82
347.75,-3.33,-3.33,-0.52,-0.52,0.51,0.49,0.52,-2.82,-2.82,-2.81
351.23,-3.33,-3.33,-0.51,-0.52,0.51,0.49,0.53,-2.82,-2.82,-2.82
354.74,-3.33,-3.33,-0.53,-0.52,0.51,0.50,0.54,-2.82,-2.82,-2.80
358.28,-3.32,-3.32,-0.52,-0.51,0.52,0.50,0.55,-2.80,-2.79,-2.81
361.87,-3.31,-3.30,-0.51,-0.51,0.54,0.51,0.56,-2.77,-2.77,-2.80
365.49,-3.29,-3.31,-0.50,-0.52,0.55,0.51,0.57,-2.74,-2.76,-2.79
369.14,-3.32,-3.33,-0.53,-0.55,0.56,0.52,0.58,-2.76,-2.77,-2.79
372.83,-3.38,-3.37,-0.61,-0.59,0.56,0.52,0.60,-2.82,-2.80,-2.77
376.56,-3.39,-3.39,-0.62,-0.61,0.56,0.53,0.61,-2.83,-2.82,-2.78
380.33,-3.38,-3.38,-0.60,-0.60,0.56,0.54,0.62,-2.82,-2.82,-2.78
384.13,-3.34,-3.34,-0.56,-0.56,0.55,0.54,0.63,-2.79,-2.79,-2.78
387.97,-3.29,-3.30,-0.51,-0.52,0.54,0.55,0.65,-2.75,-2.76,-2.78
391.85,-3.27,-3.27,-0.50,-0.50,0.52,0.56,0.66,-2.75,-2.75,-2.77
395.77,-3.26,-3.26,-0.48,-0.49,0.50,0.56,0.68,-2.76,-2.76,-2.78
399.73,-3.27,-3.27,-0.49,-0.48,0.48,0.57,0.69,-2.79,-2.79,-2.78
403.72,-3.27,-3.27,-0.49,-0.48,0.47,0.58,0.70,-2.80,-2.80,-2.79
407.76,-3.27,-3.27,-0.46,-0.47,0.47,0.59,0.72,-2.81,-2.81,-2.81
411.84,-3.27,-3.27,-0.46,-0.46,0.47,0.59,0.73,-2.80,-2.80,-2.81
415.96,-3.28,-3.28,-0.47,-0.46,0.48,0.60,0.75,-2.80,-2.79,-2.81
420.12,-3.27,-3.30,-0.45,-0.48,0.50,0.61,0.76,-2.77,-2.80,-2.82
424.32,-3.33,-3.32,-0.52,-0.51,0.51,0.62,0.77,-2.82,-2.81,-2.81
428.56,-3.35,-3.34,-0.55,-0.54,0.52,0.63,0.79,-2.83,-2.82,-2.80
432.85,-3.35,-3.35,-0.57,-0.56,0.53,0.64,0.80,-2.82,-2.81,-2.78
437.18,-3.32,-3.32,-0.55,-0.56,0.54,0.64,0.81,-2.78,-2.78,-2.78
441.55,-3.28,-3.29,-0.55,-0.55,0.55,0.65,0.82,-2.73,-2.74,-2.74
445.96,-3.24,-3.24,-0.54,-0.54,0.55,0.66,0.84,-2.69,-2.69,-2.70
450.42,-3.19,-3.19,-0.54,-0.54,0.54,0.67,0.84,-2.65,-2.65,-2.65
454.93,-3.13,-3.13,-0.53,-0.54,0.53,0.68,0.85,-2.60,-2.60,-2.60
459.48,-3.07,-3.07,-0.53,-0.53,0.52,0.69,0.86,-2.55,-2.55,-2.54
464.07,-3.01,-3.01,-0.52,-0.52,0.52,0.70,0.87,-2.49,-2.49,-2.49
468.71,-2.95,-2.95,-0.51,-0.51,0.52,0.71,0.87,-2.43,-2.43,-2.44
473.40,-2.89,-2.88,-0.51,-0.50,0.53,0.72,0.88,-2.36,-2.36,-2.38
478.13,-2.83,-2.84,-0.51,-0.52,0.54,0.72,0.88,-2.29,-2.30,-2.32
482.91,-2.80,-2.82,-0.53,-0.54,0.56,0.73,0.88,-2.25,-2.26,-2.27
