frequency,raw,error,smoothed,error_smoothed,equalization,parametric_eq,fixed_band_eq,equalized_raw,equalized_smoothed,target
20.00,-4.50,-6.88,-4.50,-6.88,6.00,6.16,2.33,1.50,1.50,2.38
20.20,-4.47,-6.88,-4.47,-6.88,6.00,6.13,2.39,1.53,1.53,2.41
20.40,-4.44,-6.88,-4.44,-6.87,6.00,6.11,2.46,1.56,1.56,2.44
20.61,-4.40,-6.86,-4.40,-6.86,6.00,6.09,2.53,1.60,1.60,2.46
20.81,-4.35,-6.84,-4.35,-6.84,6.00,6.07,2.61,1.65,1.65,2.49
21.02,-4.30,-6.82,-4.30,-6.81,6.00,6.04,2.68,1.70,1.70,2.52
21.23,-4.26,-6.79,-4.26,-6.78,6.00,6.02,2.76,1.74,1.74,2.53
21.44,-4.21,-6.75,-4.21,-6.75,6.00,5.99,2.84,1.79,1.79,2.54
21.66,-4.16,-6.71,-4.16,-6.71,6.00,5.97,2.92,1.84,1.84,2.55
21.87,-4.12,-6.67,-4.12,-6.67,6.00,5.95,3.01,1.88,1.88,2.55
22.09,-4.07,-6.63,-4.07,-6.63,6.00,5.92,3.09,1.93,1.93,2.56
22.31,-4.03,-6.59,-4.03,-6.58,6.00,5.90,3.18,1.97,1.97,2.56
22.54,-3.99,-6.55,-3.98,-6.54,6.00,5.88,3.27,2.01,2.02,2.56
22.76,-3.93,-6.48,-3.94,-6.49,6.00,5.85,3.37,2.07,2.06,2.55
22.99,-3.90,-6.44,-3.90,-6.44,6.00,5.83,3.46,2.10,2.10,2.54
23.22,-3.85,-6.39,-3.85,-6.40,6.00,5.80,3.56,2.15,2.15,2.54
23.45,-3.82,-6.36,-3.81,-6.36,6.00,5.78,3.66,2.18,2.19,2.54
23.69,-3.76,-6.30,-3.77,-6.31,6.00,5.76,3.77,2.24,2.23,2.54
23.92,-3.73,-6.27,-3.73,-6.27,6.00,5.73,3.87,2.27,2.28,2.54
24.16,-3.68,-6.23,-3.68,-6.23,6.01,5.71,3.98,2.33,2.32,2.55
24.40,-3.65,-6.20,-3.64,-6.19,6.01,5.68,4.09,2.36,2.37,2.55
24.65,-3.59,-6.13,-3.60,-6.14,6.01,5.66,4.20,2.42,2.41,2.54
24.89,-3.56,-6.10,-3.56,-6.10,6.00,5.63,4.31,2.44,2.44,2.54
25.14,-3.51,-6.05,-3.51,-6.05,5.99,5.61,4.42,2.48,2.48,2.54
25.39,-3.47,-6.01,-3.47,-6.01,5.97,5.59,4.54,2.50,2.50,2.54
25.65,-3.42,-5.96,-3.42,-5.96,5.94,5.56,4.65,2.52,2.52,2.54
25.91,-3.38,-5.91,-3.38,-5.91,5.91,5.54,4.76,2.53,2.53,2.53
26.16,-3.33,-5.86,-3.33,-5.86,5.87,5.51,4.88,2.55,2.54,2.53
26.43,-3.30,-5.83,-3.30,-5.82,5.83,5.49,4.99,2.53,2.54,2.53
26.69,-3.25,-5.78,-3.25,-5.78,5.79,5.46,5.10,2.54,2.53,2.53
26.96,-3.22,-5.75,-3.21,-5.74,5.74,5.44,5.21,2.52,2.53,2.53
27.23,-3.17,-5.70,-3.17,-5.70,5.70,5.41,5.32,2.53,2.53,2.53
27.50,-3.13,-5.66,-3.14,-5.66,5.66,5.39,5.43,2.53,2.52,2.53
27.77,-3.10,-5.61,-3.10,-5.62,5.62,5.36,5.53,2.52,2.52,2.51
28.05,-3.07,-5.58,-3.07,-5.58,5.58,5.34,5.63,2.51,2.51,2.51
28.33,-3.03,-5.53,-3.03,-5.54,5.53,5.31,5.72,2.51,2.51,2.50
28.62,-2.99,-5.49,-2.99,-5.49,5.49,5.29,5.81,2.50,2.50,2.50
28.90,-2.95,-5.45,-2.95,-5.45,5.46,5.26,5.89,2.51,2.50,2.50
29.19,-2.92,-5.41,-2.92,-5.41,5.42,5.24,5.97,2.50,2.50,2.49
29.48,-2.89,-5.39,-2.88,-5.38,5.38,5.21,6.04,2.49,2.49,2.50
29.78,-2.84,-5.33,-2.85,-5.34,5.34,5.19,6.10,2.50,2.49,2.49
30.08,-2.82,-5.31,-2.82,-5.30,5.30,5.16,6.15,2.48,2.48,2.49
30.38,-2.79,-5.27,-2.78,-5.26,5.26,5.14,6.19,2.47,2.48,2.48
30.68,-2.75,-5.23,-2.75,-5.23,5.23,5.11,6.23,2.48,2.47,2.48
30.99,-2.71,-5.17,-2.72,-5.19,5.19,5.09,6.25,2.48,2.47,2.46
31.30,-2.70,-5.16,-2.69,-5.15,5.15,5.06,6.27,2.45,2.47,2.46
31.61,-2.65,-5.11,-2.66,-5.12,5.12,5.03,6.28,2.47,2.45,2.46
31.93,-2.64,-5.09,-2.63,-5.08,5.08,5.01,6.27,2.44,2.45,2.45
32.24,-2.61,-5.05,-2.60,-5.05,5.05,4.98,6.26,2.44,2.44,2.44
32.57,-2.56,-5.00,-2.57,-5.01,5.02,4.96,6.23,2.46,2.44,2.44
32.89,-2.56,-5.00,-2.55,-4.98,4.98,4.93,6.21,2.42,2.44,2.44
33.22,-2.51,-4.93,-2.52,-4.95,4.95,4.90,6.17,2.44,2.43,2.42
33.55,-2.51,-4.93,-2.50,-4.92,4.92,4.87,6.12,2.41,2.42,2.42
33.89,-2.47,-4.88,-2.47,-4.89,4.88,4.85,6.07,2.41,2.41,2.41
34.23,-2.45,-4.86,-2.45,-4.86,4.85,4.82,6.01,2.40,2.40,2.41
34.57,-2.42,-4.82,-2.42,-4.82,4.82,4.79,5.95,2.40,2.40,2.40
34.92,-2.39,-4.78,-2.39,-4.78,4.78,4.76,5.88,2.39,2.39,2.39
35.27,-2.37,-4.75,-2.37,-4.75,4.75,4.73,5.80,2.38,2.38,2.38
35.62,-2.33,-4.70,-2.34,-4.71,4.71,4.70,5.73,2.38,2.37,2.37
35.97,-2.32,-4.68,-2.31,-4.67,4.67,4.67,5.65,2.35,2.36,2.36
36.33,-2.28,-4.64,-2.28,-4.64,4.64,4.64,5.57,2.36,2.35,2.36
36.70,-2.25,-4.60,-2.25,-4.60,4.60,4.61,5.48,2.35,2.34,2.35
37.06,-2.23,-4.56,-2.22,-4.56,4.56,4.58,5.40,2.33,2.34,2.33
37.43,-2.19,-4.52,-2.19,-4.52,4.52,4.55,5.31,2.33,2.33,2.33
37.81,-2.16,-4.48,-2.16,-4.48,4.48,4.51,5.23,2.32,2.32,2.32
38.19,-2.14,-4.45,-2.13,-4.44,4.44,4.48,5.14,2.30,2.31,2.31
38.57,-2.10,-4.40,-2.11,-4.41,4.41,4.44,5.06,2.31,2.30,2.30
38.95,-2.09,-4.38,-2.08,-4.37,4.37,4.41,4.98,2.28,2.29,2.29
39.34,-2.05,-4.33,-2.05,-4.33,4.33,4.37,4.90,2.28,2.28,2.28
39.74,-2.03,-4.29,-2.03,-4.29,4.30,4.34,4.82,2.27,2.27,2.26
40.14,-2.00,-4.26,-2.00,-4.26,4.26,4.30,4.74,2.26,2.26,2.26
40.54,-1.97,-4.22,-1.97,-4.22,4.22,4.26,4.67,2.25,2.25,2.25
40.94,-1.96,-4.20,-1.95,-4.19,4.19,4.23,4.60,2.23,2.24,2.24
41.35,-1.91,-4.14,-1.92,-4.16,4.15,4.19,4.53,2.24,2.23,2.23
41.76,-1.90,-4.13,-1.89,-4.12,4.12,4.15,4.46,2.22,2.23,2.23
42.18,-1.86,-4.08,-1.86,-4.08,4.08,4.12,4.40,2.22,2.22,2.22
42.60,-1.83,-4.04,-1.84,-4.05,4.05,4.08,4.34,2.22,2.21,2.21
43.03,-1.82,-4.02,-1.81,-4.01,4.01,4.05,4.28,2.19,2.20,2.20
43.46,-1.80,-3.99,-1.80,-3.99,3.98,4.02,4.23,2.18,2.18,2.19
43.90,-1.77,-3.94,-1.78,-3.95,3.94,3.99,4.18,2.17,2.16,2.17
44.33,-1.77,-3.92,-1.75,-3.90,3.91,3.97,4.13,2.14,2.15,2.15
44.78,-1.72,-3.86,-1.74,-3.87,3.87,3.95,4.08,2.15,2.14,2.14
45.23,-1.72,-3.84,-1.72,-3.84,3.84,3.93,4.04,2.12,2.12,2.12
45.68,-1.72,-3.83,-1.70,-3.81,3.82,3.91,4.01,2.10,2.11,2.11
46.13,-1.68,-3.77,-1.69,-3.79,3.79,3.89,3.97,2.11,2.10,2.09
46.60,-1.68,-3.76,-1.68,-3.76,3.77,3.88,3.94,2.09,2.08,2.08
47.06,-1.68,-3.75,-1.68,-3.75,3.75,3.87,3.91,2.07,2.07,2.07
47.53,-1.68,-3.73,-1.68,-3.74,3.73,3.86,3.88,2.05,2.05,2.05
48.01,-1.68,-3.73,-1.68,-3.72,3.71,3.85,3.86,2.03,2.03,2.05
48.49,-1.68,-3.70,-1.68,-3.70,3.69,3.84,3.84,2.01,2.02,2.02
48.97,-1.68,-3.67,-1.68,-3.67,3.68,3.83,3.82,2.00,2.00,1.99
49.46,-1.68,-3.65,-1.69,-3.66,3.67,3.82,3.81,1.98,1.97,1.97
49.96,-1.72,-3.66,-1.70,-3.65,3.66,3.81,3.79,1.94,1.95,1.94
50.46,-1.72,-3.65,-1.72,-3.65,3.65,3.80,3.78,1.93,1.93,1.93
50.96,-1.73,-3.64,-1.74,-3.65,3.65,3.78,3.77,1.92,1.91,1.91
51.47,-1.77,-3.65,-1.76,-3.65,3.65,3.77,3.76,1.88,1.89,1.88
51.99,-1.79,-3.66,-1.79,-3.66,3.66,3.76,3.76,1.87,1.87,1.87
52.51,-1.82,-3.68,-1.82,-3.67,3.67,3.74,3.75,1.85,1.85,1.86
53.03,-1.85,-3.69,-1.85,-3.68,3.68,3.73,3.75,1.83,1.84,1.84
53.56,-1.88,-3.70,-1.88,-3.70,3.70,3.71,3.74,1.82,1.82,1.82
54.10,-1.91,-3.71,-1.92,-3.72,3.72,3.69,3.74,1.81,1.80,1.80
54.64,-1.97,-3.75,-1.96,-3.73,3.74,3.67,3.74,1.77,1.78,1.78
55.18,-2.00,-3.76,-2.00,-3.76,3.76,3.65,3.73,1.76,1.76,1.76
55.74,-2.03,-3.77,-2.04,-3.78,3.78,3.63,3.73,1.75,1.74,1.74
56.29,-2.09,-3.82,-2.08,-3.80,3.80,3.61,3.72,1.71,1.72,1.73
56.86,-2.12,-3.82,-2.12,-3.82,3.82,3.59,3.72,1.70,1.71,1.70
57.42,-2.15,-3.83,-2.16,-3.84,3.85,3.56,3.71,1.70,1.69,1.68
58.00,-2.19,-3.86,-2.19,-3.86,3.87,3.54,3.70,1.68,1.68,1.67
58.58,-2.23,-3.89,-2.22,-3.88,3.89,3.51,3.68,1.66,1.66,1.66
59.16,-2.26,-3.90,-2.26,-3.90,3.90,3.49,3.67,1.64,1.64,1.64
59.76,-2.28,-3.91,-2.29,-3.92,3.92,3.46,3.65,1.64,1.63,1.63
60.35,-2.33,-3.94,-2.32,-3.93,3.92,3.43,3.63,1.59,1.61,1.61
60.96,-2.33,-3.92,-2.34,-3.93,3.93,3.40,3.61,1.60,1.58,1.59
61.57,-2.37,-3.93,-2.36,-3.92,3.92,3.37,3.58,1.55,1.56,1.56
62.18,-2.37,-3.90,-2.37,-3.91,3.91,3.34,3.55,1.54,1.53,1.53
62.80,-2.37,-3.89,-2.37,-3.89,3.88,3.31,3.52,1.51,1.51,1.52
63.43,-2.37,-3.86,-2.36,-3.85,3.85,3.28,3.49,1.48,1.49,1.49
64.07,-2.33,-3.80,-2.34,-3.81,3.81,3.25,3.45,1.48,1.47,1.47
64.71,-2.30,-3.75,-2.30,-3.76,3.76,3.21,3.40,1.46,1.45,1.45
65.35,-2.27,-3.71,-2.26,-3.70,3.69,3.18,3.36,1.42,1.43,1.44
66.01,-2.21,-3.63,-2.21,-3.63,3.62,3.14,3.31,1.41,1.41,1.42
66.67,-2.15,-3.55,-2.15,-3.55,3.54,3.10,3.25,1.39,1.40,1.40
67.33,-2.08,-3.46,-2.08,-3.46,3.46,3.07,3.20,1.38,1.38,1.38
68.01,-2.00,-3.36,-2.01,-3.37,3.37,3.03,3.14,1.37,1.36,1.36
68.69,-1.94,-3.28,-1.93,-3.27,3.28,2.99,3.08,1.34,1.34,1.34
69.37,-1.87,-3.19,-1.86,-3.18,3.18,2.95,3.02,1.31,1.32,1.32
70.07,-1.77,-3.07,-1.79,-3.08,3.08,2.91,2.95,1.31,1.30,1.30
70.77,-1.71,-2.99,-1.71,-2.99,2.99,2.87,2.89,1.28,1.28,1.28
71.48,-1.64,-2.90,-1.63,-2.89,2.89,2.83,2.82,1.25,1.26,1.26
72.19,-1.56,-2.80,-1.57,-2.80,2.80,2.78,2.75,1.24,1.23,1.24
72.91,-1.50,-2.71,-1.50,-2.71,2.71,2.74,2.68,1.21,1.22,1.21
73.64,-1.43,-2.62,-1.43,-2.62,2.63,2.70,2.61,1.20,1.20,1.19
74.38,-1.37,-2.54,-1.37,-2.54,2.55,2.65,2.54,1.18,1.18,1.17
75.12,-1.32,-2.47,-1.32,-2.47,2.47,2.60,2.47,1.15,1.15,1.15
75.87,-1.27,-2.40,-1.27,-2.40,2.40,2.56,2.40,1.13,1.13,1.13
76.63,-1.23,-2.34,-1.23,-2.34,2.34,2.51,2.32,1.11,1.11,1.11
77.40,-1.18,-2.27,-1.19,-2.28,2.28,2.46,2.25,1.10,1.09,1.09
78.17,-1.15,-2.22,-1.15,-2.22,2.22,2.41,2.18,1.07,1.07,1.07
78.95,-1.12,-2.18,-1.11,-2.17,2.16,2.36,2.11,1.04,1.05,1.06
79.74,-1.07,-2.11,-1.07,-2.11,2.11,2.31,2.04,1.04,1.04,1.04
80.54,-1.03,-2.05,-1.04,-2.05,2.06,2.26,1.97,1.03,1.02,1.02
81.35,-1.00,-2.00,-1.00,-2.00,2.00,2.21,1.90,1.00,1.00,1.00
82.16,-0.98,-1.96,-0.97,-1.95,1.95,2.16,1.84,0.97,0.98,0.98
82.98,-0.94,-1.90,-0.94,-1.90,1.89,2.11,1.77,0.95,0.95,0.96
83.81,-0.91,-1.84,-0.91,-1.85,1.84,2.05,1.70,0.93,0.93,0.93
84.65,-0.88,-1.79,-0.87,-1.79,1.79,2.00,1.64,0.91,0.91,0.91
85.50,-0.84,-1.74,-0.84,-1.74,1.74,1.94,1.57,0.90,0.89,0.90
86.35,-0.81,-1.68,-0.81,-1.68,1.69,1.89,1.51,0.88,0.87,0.87
87.22,-0.79,-1.64,-0.78,-1.63,1.64,1.83,1.45,0.85,0.85,0.85
88.09,-0.75,-1.57,-0.76,-1.58,1.59,1.78,1.39,0.84,0.83,0.82
88.97,-0.74,-1.55,-0.73,-1.54,1.54,1.72,1.33,0.80,0.81,0.81
89.86,-0.71,-1.49,-0.72,-1.50,1.49,1.67,1.27,0.78,0.78,0.78
90.76,-0.70,-1.44,-0.70,-1.45,1.45,1.61,1.21,0.75,0.75,0.74
91.66,-0.70,-1.43,-0.68,-1.41,1.40,1.55,1.15,0.70,0.72,0.73
92.58,-0.65,-1.34,-0.66,-1.36,1.36,1.50,1.09,0.71,0.69,0.69
93.51,-0.65,-1.32,-0.64,-1.32,1.31,1.44,1.04,0.66,0.67,0.67
94.44,-0.61,-1.26,-0.62,-1.26,1.26,1.38,0.98,0.65,0.64,0.65
95.39,-0.61,-1.23,-0.60,-1.22,1.21,1.32,0.93,0.60,0.61,0.62
96.34,-0.57,-1.15,-0.58,-1.16,1.16,1.27,0.88,0.59,0.58,0.58
97.30,-0.56,-1.11,-0.56,-1.11,1.11,1.21,0.83,0.55,0.56,0.55
98.28,-0.54,-1.06,-0.54,-1.06,1.06,1.15,0.78,0.52,0.53,0.52
99.26,-0.51,-1.00,-0.52,-1.01,1.01,1.09,0.73,0.50,0.50,0.49
100.25,-0.51,-0.98,-0.50,-0.96,0.96,1.04,0.68,0.46,0.47,0.47
101.25,-0.47,-0.91,-0.49,-0.92,0.92,0.98,0.63,0.45,0.43,0.44
102.27,-0.47,-0.88,-0.47,-0.87,0.87,0.92,0.58,0.40,0.40,0.41
103.29,-0.47,-0.84,-0.45,-0.82,0.83,0.87,0.54,0.36,0.38,0.37
104.32,-0.42,-0.77,-0.44,-0.78,0.78,0.81,0.49,0.36,0.35,0.35
105.37,-0.42,-0.74,-0.42,-0.74,0.74,0.76,0.44,0.32,0.32,0.32
106.42,-0.42,-0.71,-0.41,-0.70,0.70,0.70,0.40,0.28,0.29,0.29
107.48,-0.40,-0.66,-0.40,-0.65,0.65,0.65,0.36,0.25,0.25,0.26
108.56,-0.37,-0.59,-0.38,-0.61,0.61,0.59,0.32,0.24,0.22,0.22
109.64,-0.37,-0.56,-0.36,-0.56,0.56,0.54,0.28,0.19,0.20,0.19
110.74,-0.36,-0.52,-0.35,-0.51,0.51,0.49,0.24,0.15,0.16,0.16
111.85,-0.33,-0.46,-0.35,-0.47,0.47,0.44,0.20,0.14,0.12,0.13
112.97,-0.33,-0.41,-0.33,-0.42,0.42,0.39,0.16,0.09,0.09,0.08
114.10,-0.33,-0.39,-0.31,-0.36,0.36,0.34,0.12,0.03,0.05,0.06
115.24,-0.28,-0.30,-0.30,-0.32,0.31,0.29,0.09,0.03,0.01,0.02
116.39,-0.28,-0.26,-0.28,-0.26,0.26,0.24,0.05,-0.02,-0.02,-0.02
117.55,-0.28,-0.22,-0.26,-0.21,0.21,0.19,0.02,-0.07,-0.05,-0.06
118.73,-0.25,-0.15,-0.25,-0.16,0.17,0.14,-0.02,-0.08,-0.09,-0.10
119.92,-0.23,-0.11,-0.24,-0.11,0.12,0.10,-0.05,-0.11,-0.12,-0.12
121.12,-0.23,-0.07,-0.23,-0.07,0.07,0.05,-0.08,-0.16,-0.16,-0.16
122.33,-0.23,-0.03,-0.23,-0.04,0.03,0.01,-0.11,-0.20,-0.20,-0.20
123.55,-0.23,-0.01,-0.22,0.00,-0.01,-0.04,-0.13,-0.24,-0.23,-0.22
124.79,-0.20,0.06,-0.21,0.05,-0.06,-0.08,-0.16,-0.26,-0.26,-0.26
126.03,-0.19,0.10,-0.19,0.10,-0.10,-0.12,-0.19,-0.29,-0.29,-0.29
127.29,-0.19,0.14,-0.19,0.14,-0.13,-0.16,-0.21,-0.32,-0.32,-0.33
128.57,-0.19,0.18,-0.19,0.18,-0.17,-0.20,-0.24,-0.36,-0.36,-0.37
129.85,-0.19,0.21,-0.19,0.21,-0.21,-0.24,-0.26,-0.40,-0.40,-0.40
131.15,-0.19,0.25,-0.19,0.25,-0.24,-0.29,-0.28,-0.43,-0.43,-0.44
132.46,-0.19,0.28,-0.19,0.28,-0.28,-0.33,-0.30,-0.47,-0.47,-0.47
133.79,-0.19,0.30,-0.19,0.31,-0.31,-0.37,-0.32,-0.50,-0.51,-0.49
135.12,-0.19,0.34,-0.19,0.33,-0.35,-0.41,-0.34,-0.54,-0.54,-0.53
136.48,-0.19,0.36,-0.18,0.37,-0.39,-0.45,-0.36,-0.58,-0.57,-0.55
137.84,-0.17,0.41,-0.17,0.42,-0.42,-0.49,-0.38,-0.59,-0.59,-0.58
139.22,-0.14,0.48,-0.15,0.47,-0.45,-0.53,-0.40,-0.59,-0.60,-0.62
140.61,-0.14,0.51,-0.14,0.51,-0.49,-0.57,-0.42,-0.63,-0.63,-0.65
142.02,-0.14,0.52,-0.14,0.53,-0.52,-0.60,-0.43,-0.66,-0.66,-0.66
143.44,-0.14,0.55,-0.14,0.55,-0.56,-0.64,-0.45,-0.70,-0.70,-0.69
144.87,-0.14,0.58,-0.14,0.57,-0.59,-0.68,-0.47,-0.73,-0.73,-0.72
146.32,-0.14,0.60,-0.13,0.61,-0.62,-0.72,-0.48,-0.76,-0.75,-0.74
147.78,-0.11,0.65,-0.11,0.65,-0.65,-0.76,-0.50,-0.76,-0.77,-0.76
149.26,-0.09,0.69,-0.10,0.69,-0.68,-0.79,-0.52,-0.77,-0.78,-0.78
150.75,-0.09,0.73,-0.09,0.73,-0.71,-0.83,-0.53,-0.80,-0.80,-0.82
152.26,-0.09,0.75,-0.09,0.76,-0.75,-0.86,-0.55,-0.84,-0.84,-0.84
153.78,-0.09,0.78,-0.09,0.78,-0.78,-0.90,-0.57,-0.87,-0.87,-0.87
155.32,-0.09,0.81,-0.09,0.81,-0.81,-0.93,-0.59,-0.90,-0.90,-0.90
156.88,-0.09,0.83,-0.09,0.83,-0.84,-0.96,-0.60,-0.93,-0.93,-0.92
158.44,-0.09,0.87,-0.09,0.87,-0.87,-0.99,-0.62,-0.96,-0.96,-0.96
160.03,-0.09,0.90,-0.08,0.90,-0.91,-1.02,-0.64,-1.00,-0.99,-0.99
161.63,-0.07,0.95,-0.08,0.94,-0.94,-1.05,-0.66,-1.01,-1.02,-1.02
163.24,-0.07,0.98,-0.07,0.98,-0.97,-1.08,-0.68,-1.04,-1.04,-1.05
164.88,-0.07,1.00,-0.06,1.01,-1.01,-1.10,-0.70,-1.08,-1.07,-1.07
166.53,-0.05,1.05,-0.06,1.04,-1.04,-1.13,-0.72,-1.09,-1.10,-1.10
168.19,-0.05,1.08,-0.05,1.07,-1.07,-1.15,-0.74,-1.12,-1.12,-1.13
169.87,-0.05,1.10,-0.05,1.11,-1.10,-1.17,-0.77,-1.15,-1.15,-1.15
171.57,-0.05,1.13,-0.05,1.13,-1.13,-1.19,-0.79,-1.18,-1.18,-1.18
173.29,-0.05,1.16,-0.05,1.16,-1.16,-1.21,-0.81,-1.21,-1.21,-1.21
175.02,-0.05,1.19,-0.05,1.19,-1.19,-1.23,-0.84,-1.24,-1.24,-1.24
176.77,-0.05,1.22,-0.05,1.22,-1.22,-1.24,-0.86,-1.27,-1.27,-1.27
178.54,-0.05,1.26,-0.05,1.25,-1.25,-1.26,-0.89,-1.30,-1.30,-1.31
180.32,-0.05,1.28,-0.05,1.28,-1.28,-1.27,-0.92,-1.33,-1.33,-1.33
182.13,-0.05,1.31,-0.05,1.31,-1.31,-1.29,-0.94,-1.36,-1.36,-1.36
183.95,-0.05,1.34,-0.05,1.34,-1.34,-1.30,-0.97,-1.39,-1.39,-1.39
185.79,-0.05,1.37,-0.05,1.37,-1.37,-1.31,-1.00,-1.42,-1.42,-1.42
187.65,-0.05,1.40,-0.05,1.39,-1.40,-1.32,-1.03,-1.45,-1.46,-1.45
189.52,-0.05,1.42,-0.04,1.43,-1.44,-1.33,-1.06,-1.49,-1.48,-1.47
191.42,-0.03,1.46,-0.03,1.47,-1.47,-1.33,-1.09,-1.50,-1.50,-1.49
193.33,0.00,1.52,-0.01,1.50,-1.50,-1.34,-1.13,-1.50,-1.51,-1.52
195.27,0.00,1.54,0.00,1.54,-1.53,-1.35,-1.16,-1.53,-1.53,-1.54
197.22,0.00,1.56,0.00,1.57,-1.56,-1.35,-1.19,-1.56,-1.55,-1.56
199.19,0.00,1.59,-0.00,1.58,-1.58,-1.35,-1.22,-1.58,-1.58,-1.59
201.18,0.00,1.60,-0.00,1.60,-1.60,-1.36,-1.26,-1.60,-1.60,-1.60
203.19,0.00,1.61,-0.00,1.61,-1.62,-1.36,-1.29,-1.62,-1.62,-1.61
205.23,0.00,1.63,-0.00,1.62,-1.63,-1.36,-1.32,-1.63,-1.63,-1.63
207.28,0.00,1.63,-0.00,1.64,-1.64,-1.36,-1.36,-1.64,-1.64,-1.63
209.35,0.00,1.65,-0.00,1.65,-1.65,-1.36,-1.39,-1.65,-1.65,-1.65
211.44,0.00,1.67,-0.00,1.66,-1.66,-1.36,-1.42,-1.66,-1.66,-1.67
213.56,0.00,1.67,-0.00,1.67,-1.67,-1.36,-1.45,-1.67,-1.67,-1.67
215.69,0.00,1.66,-0.00,1.67,-1.67,-1.36,-1.48,-1.67,-1.67,-1.66
217.85,0.00,1.67,-0.00,1.67,-1.68,-1.35,-1.52,-1.68,-1.68,-1.67
220.03,0.00,1.68,0.00,1.68,-1.68,-1.35,-1.55,-1.68,-1.68,-1.68
222.23,0.00,1.69,0.01,1.69,-1.69,-1.35,-1.57,-1.69,-1.68,-1.69
224.45,0.02,1.70,0.01,1.69,-1.69,-1.34,-1.60,-1.67,-1.67,-1.68
226.70,0.02,1.69,0.02,1.69,-1.69,-1.34,-1.63,-1.67,-1.67,-1.67
228.96,0.02,1.69,0.02,1.69,-1.68,-1.33,-1.65,-1.66,-1.66,-1.67
231.25,0.02,1.68,0.02,1.68,-1.68,-1.32,-1.67,-1.66,-1.66,-1.66
233.57,0.02,1.67,0.01,1.67,-1.67,-1.32,-1.69,-1.65,-1.65,-1.65
235.90,0.00,1.65,0.01,1.65,-1.66,-1.31,-1.71,-1.66,-1.65,-1.65
238.26,0.00,1.64,0.00,1.64,-1.64,-1.30,-1.72,-1.64,-1.64,-1.64
240.64,0.00,1.63,-0.00,1.63,-1.63,-1.29,-1.73,-1.63,-1.63,-1.63
243.05,0.00,1.61,-0.00,1.61,-1.62,-1.29,-1.74,-1.62,-1.62,-1.61
245.48,0.00,1.60,-0.00,1.60,-1.60,-1.28,-1.75,-1.60,-1.60,-1.60
247.93,0.00,1.58,-0.00,1.59,-1.59,-1.27,-1.75,-1.59,-1.59,-1.58
250.41,0.00,1.58,-0.00,1.57,-1.57,-1.26,-1.75,-1.57,-1.57,-1.58
252.92,0.00,1.55,-0.00,1.55,-1.55,-1.25,-1.75,-1.55,-1.55,-1.55
255.45,0.00,1.53,-0.00,1.53,-1.53,-1.24,-1.74,-1.53,-1.53,-1.53
258.00,0.00,1.51,-0.00,1.51,-1.51,-1.23,-1.74,-1.51,-1.51,-1.51
260.58,0.00,1.50,-0.00,1.49,-1.49,-1.22,-1.73,-1.49,-1.49,-1.50
263.19,0.00,1.47,-0.00,1.47,-1.47,-1.21,-1.71,-1.47,-1.47,-1.47
265.82,0.00,1.45,-0.00,1.45,-1.45,-1.20,-1.70,-1.45,-1.45,-1.45
268.48,0.00,1.43,-0.00,1.43,-1.43,-1.18,-1.68,-1.43,-1.43,-1.43
271.16,0.00,1.40,-0.00,1.40,-1.41,-1.17,-1.66,-1.41,-1.41,-1.40
273.87,0.00,1.38,-0.00,1.38,-1.38,-1.16,-1.63,-1.38,-1.38,-1.38
276.61,0.00,1.36,-0.00,1.36,-1.36,-1.15,-1.61,-1.36,-1.36,-1.36
279.38,0.00,1.34,-0.00,1.34,-1.34,-1.14,-1.58,-1.34,-1.34,-1.34
282.17,0.00,1.32,-0.00,1.32,-1.32,-1.12,-1.55,-1.32,-1.32,-1.32
284.99,0.00,1.30,0.00,1.30,-1.30,-1.11,-1.52,-1.30,-1.30,-1.30
287.84,0.00,1.28,0.00,1.28,-1.27,-1.10,-1.49,-1.27,-1.27,-1.28
290.72,0.00,1.25,-0.00,1.25,-1.25,-1.09,-1.46,-1.25,-1.25,-1.25
293.63,-0.00,1.23,-0.01,1.23,-1.23,-1.07,-1.43,-1.23,-1.23,-1.23
296.57,-0.02,1.19,-0.01,1.20,-1.20,-1.06,-1.40,-1.22,-1.21,-1.21
299.53,-0.02,1.17,-0.02,1.17,-1.17,-1.05,-1.36,-1.19,-1.19,-1.19
302.53,-0.02,1.15,-0.02,1.14,-1.15,-1.03,-1.33,-1.17,-1.17,-1.17
305.55,-0.02,1.11,-0.02,1.12,-1.12,-1.02,-1.29,-1.14,-1.14,-1.13
308.61,-0.02,1.10,-0.02,1.09,-1.09,-1.01,-1.26,-1.11,-1.11,-1.12
311.69,-0.02,1.07,-0.02,1.06,-1.07,-0.99,-1.22,-1.09,-1.09,-1.09
314.81,-0.02,1.03,-0.02,1.04,-1.04,-0.98,-1.19,-1.06,-1.06,-1.05
317.96,-0.02,1.01,-0.02,1.01,-1.02,-0.97,-1.15,-1.04,-1.04,-1.03
321.14,-0.02,0.99,-0.02,0.99,-1.00,-0.95,-1.12,-1.02,-1.02,-1.01
324.35,-0.02,0.98,-0.02,0.97,-0.97,-0.94,-1.08,-0.99,-0.99,-1.00
327.59,-0.02,0.95,-0.02,0.95,-0.94,-0.93,-1.05,-0.96,-0.96,-0.97
330.87,-0.02,0.93,-0.02,0.93,-0.92,-0.91,-1.02,-0.94,-0.94,-0.95
334.18,-0.02,0.91,-0.03,0.90,-0.90,-0.90,-0.99,-0.92,-0.93,-0.93
337.52,-0.05,0.86,-0.04,0.87,-0.87,-0.88,-0.95,-0.92,-0.91,-0.91
340.90,-0.05,0.83,-0.05,0.84,-0.85,-0.87,-0.92,-0.90,-0.89,-0.88
344.30,-0.05,0.81,-0.05,0.81,-0.82,-0.86,-0.89,-0.87,-0.87,-0.86
347.75,-0.05,0.80,-0.05,0.80,-0.80,-0.84,-0.86,-0.85,-0.85,-0.85
351.23,-0.05,0.78,-0.05,0.78,-0.78,-0.83,-0.83,-0.83,-0.83,-0.83
354.74,-0.05,0.76,-0.05,0.76,-0.76,-0.82,-0.80,-0.81,-0.81,-0.81
358.28,-0.05,0.74,-0.05,0.74,-0.74,-0.80,-0.78,-0.79,-0.79,-0.79
361.87,-0.05,0.72,-0.05,0.72,-0.72,-0.79,-0.75,-0.77,-0.77,-0.77
365.49,-0.05,0.70,-0.05,0.70,-0.71,-0.78,-0.72,-0.76,-0.76,-0.75
369.14,-0.05,0.69,-0.05,0.69,-0.69,-0.76,-0.70,-0.74,-0.74,-0.74
372.83,-0.05,0.67,-0.05,0.68,-0.67,-0.75,-0.67,-0.72,-0.72,-0.72
376.56,-0.05,0.67,-0.05,0.66,-0.66,-0.73,-0.65,-0.71,-0.71,-0.72
380.33,-0.05,0.64,-0.05,0.64,-0.64,-0.72,-0.62,-0.69,-0.69,-0.69
384.13,-0.05,0.63,-0.05,0.63,-0.63,-0.71,-0.60,-0.68,-0.68,-0.68
387.97,-0.05,0.62,-0.05,0.62,-0.62,-0.69,-0.58,-0.67,-0.67,-0.67
391.85,-0.05,0.61,-0.05,0.61,-0.60,-0.68,-0.56,-0.65,-0.65,-0.66
395.77,-0.05,0.59,-0.05,0.59,-0.59,-0.67,-0.53,-0.64,-0.64,-0.64
399.73,-0.05,0.58,-0.05,0.58,-0.58,-0.65,-0.51,-0.63,-0.63,-0.63
403.72,-0.05,0.57,-0.05,0.57,-0.57,-0.64,-0.49,-0.62,-0.62,-0.62
407.76,-0.05,0.56,-0.05,0.56,-0.56,-0.63,-0.47,-0.61,-0.61,-0.61
411.84,-0.05,0.54,-0.05,0.55,-0.55,-0.61,-0.45,-0.60,-0.60,-0.59
415.96,-0.05,0.53,-0.05,0.53,-0.54,-0.60,-0.44,-0.59,-0.59,-0.58
420.12,-0.05,0.52,-0.05,0.52,-0.52,-0.59,-0.42,-0.57,-0.57,-0.57
424.32,-0.05,0.51,-0.05,0.51,-0.51,-0.57,-0.40,-0.56,-0.56,-0.56
428.56,-0.05,0.50,-0.05,0.51,-0.50,-0.56,-0.38,-0.55,-0.55,-0.55
432.85,-0.05,0.50,-0.05,0.49,-0.49,-0.55,-0.37,-0.54,-0.54,-0.55
437.18,-0.05,0.49,-0.05,0.48,-0.48,-0.54,-0.35,-0.53,-0.53,-0.54
441.55,-0.05,0.47,-0.05,0.47,-0.47,-0.52,-0.33,-0.52,-0.52,-0.52
445.96,-0.05,0.46,-0.05,0.46,-0.46,-0.51,-0.32,-0.51,-0.51,-0.51
450.42,-0.05,0.45,-0.05,0.44,-0.44,-0.50,-0.30,-0.49,-0.49,-0.50
454.93,-0.05,0.43,-0.05,0.43,-0.43,-0.48,-0.29,-0.48,-0.48,-0.48
459.48,-0.05,0.42,-0.05,0.41,-0.41,-0.47,-0.28,-0.46,-0.46,-0.47
464.07,-0.05,0.40,-0.05,0.40,-0.40,-0.46,-0.26,-0.45,-0.45,-0.45
468.71,-0.05,0.38,-0.05,0.38,-0.39,-0.45,-0.25,-0.44,-0.44,-0.43
473.40,-0.05,0.37,-0.05,0.37,-0.38,-0.43,-0.24,-0.43,-0.43,-0.42
478.13,-0.05,0.35,-0.04,0.36,-0.37,-0.42,-0.22,-0.42,-0.41,-0.40
