frequency,raw
20,4.77
21,4.99
22,5.22
23,5.38
24,5.52
25,5.62
26,5.70
27,5.75
28,5.83
29,5.90
30,5.96
31,6.05
32,6.09
33,6.14
34,6.18
35,6.22
36,6.22
37,6.27
38,6.31
39,6.35
40,6.35
41,6.37
42,6.37
43,6.35
44,6.31
45,6.31
46,6.27
47,6.27
48,6.27
49,6.27
50,6.27
51,6.27
52,6.27
53,6.23
54,6.19
55,6.18
56,6.18
57,6.14
58,6.09
59,6.08
60,6.04
61,5.99
62,5.96
63,5.92
64,5.92
65,5.92
66,5.88
67,5.88
68,5.83
69,5.81
70,5.79
71,5.75
72,5.75
73,5.71
74,5.70
75,5.66
76,5.62
77,5.59
78,5.54
79,5.52
80,5.48
81,5.43
82,5.39
83,5.36
84,5.31
85,5.29
86,5.25
87,5.23
88,5.18
89,5.14
90,5.11
91,5.07
92,5.03
93,4.99
94,4.95
95,4.91
96,4.88
97,4.85
98,4.82
99,4.79
100,4.75
101,4.72
102,4.71
104,4.64
105,4.61
106,4.56
107,4.53
108,4.51
109,4.46
110,4.42
111,4.39
112,4.34
113,4.30
114,4.27
115,4.23
117,4.16
118,4.11
119,4.08
120,4.03
121,4.00
123,3.94
124,3.90
125,3.86
126,3.84
128,3.78
129,3.74
130,3.72
131,3.68
133,3.62
134,3.58
135,3.56
137,3.47
138,3.45
140,3.38
141,3.34
142,3.31
144,3.25
145,3.21
147,3.13
148,3.11
150,3.04
151,3.01
153,2.94
154,2.91
156,2.84
157,2.82
159,2.75
160,2.73
162,2.65
164,2.60
165,2.56
167,2.50
169,2.43
170,2.42
172,2.36
174,2.29
175,2.26
177,2.20
179,2.13
181,2.08
183,2.03
184,2.00
186,1.93
188,1.87
190,1.82
192,1.76
194,1.73
196,1.66
198,1.61
200,1.56
202,1.52
204,1.47
206,1.41
208,1.35
210,1.30
212,1.24
214,1.19
216,1.13
218,1.09
221,1.03
223,0.98
225,0.93
227,0.90
229,0.85
232,0.78
234,0.74
236,0.70
239,0.65
241,0.61
244,0.52
246,0.48
248,0.46
251,0.40
253,0.36
256,0.31
259,0.26
261,0.22
264,0.18
266,0.14
269,0.09
272,0.05
274,0.01
277,-0.03
280,-0.06
283,-0.12
286,-0.15
288,-0.19
291,-0.22
294,-0.27
297,-0.30
300,-0.33
303,-0.36
306,-0.41
309,-0.44
312,-0.49
316,-0.54
319,-0.56
322,-0.59
325,-0.62
328,-0.64
332,-0.68
335,-0.71
338,-0.71
342,-0.75
345,-0.77
349,-0.80
352,-0.83
356,-0.84
359,-0.85
363,-0.88
366,-0.88
370,-0.93
374,-0.93
377,-0.97
381,-0.97
385,-1.00
389,-1.01
393,-1.01
397,-1.06
401,-1.06
405,-1.06
409,-1.10
413,-1.10
417,-1.10
421,-1.12
425,-1.14
430,-1.14
434,-1.17
438,-1.17
443,-1.19
447,-1.19
451,-1.19
456,-1.19
460,-1.19
465,-1.19
470,-1.19
474,-1.19
479,-1.19
484,-1.19
489,-1.23
494,-1.23
499,-1.23
504,-1.23
509,-1.23
514,-1.23
519,-1.23
524,-1.23
529,-1.23
535,-1.23
540,-1.23
545,-1.23
551,-1.23
556,-1.23
562,-1.23
568,-1.23
573,-1.20
579,-1.19
585,-1.19
591,-1.19
596,-1.19
602,-1.19
608,-1.19
615,-1.19
621,-1.19
627,-1.19
633,-1.19
639,-1.19
646,-1.19
652,-1.19
659,-1.19
665,-1.19
672,-1.14
679,-1.14
686,-1.14
692,-1.14
699,-1.12
706,-1.10
713,-1.10
721,-1.10
728,-1.10
735,-1.10
742,-1.10
750,-1.06
757,-1.06
765,-1.06
773,-1.06
780,-1.06
788,-1.06
796,-1.06
804,-1.06
812,-1.06
820,-1.06
828,-1.06
837,-1.02
845,-0.99
853,-0.93
862,-0.86
871,-0.81
879,-0.75
888,-0.69
897,-0.61
906,-0.56
915,-0.51
924,-0.43
933,-0.39
943,-0.32
952,-0.27
962,-0.21
971,-0.17
981,-0.13
991,-0.04
1001,0.00
1011,0.07
1021,0.14
1031,0.22
1041,0.29
1052,0.40
1062,0.47
1073,0.58
1084,0.69
1094,0.78
1105,0.89
1116,0.99
1128,1.10
1139,1.20
1150,1.30
1162,1.41
1173,1.51
1185,1.63
1197,1.75
1209,1.86
1221,1.96
1233,2.07
1246,2.17
1258,2.27
1271,2.36
1283,2.46
1296,2.55
1309,2.64
1322,2.74
1335,2.82
1349,2.91
1362,2.98
1376,3.05
1390,3.13
1404,3.19
1418,3.25
1432,3.31
1446,3.37
1461,3.43
1475,3.46
1490,3.51
1505,3.54
1520,3.58
1535,3.60
1550,3.63
1566,3.66
1582,3.69
1597,3.74
1613,3.77
1629,3.80
1646,3.83
1662,3.86
1679,3.88
1696,3.88
1713,3.88
1730,3.93
1747,3.93
1764,3.93
1782,3.96
1800,3.97
1818,3.97
1836,3.97
1854,3.94
1873,3.93
1892,3.93
1911,3.93
1930,3.89
1949,3.88
1969,3.88
1988,3.88
2008,3.86
2028,3.84
2048,3.84
2069,3.84
2090,3.84
2111,3.80
2132,3.76
2153,3.73
2175,3.66
2196,3.60
2218,3.54
2240,3.43
2263,3.37
2285,3.27
2308,3.17
2331,3.09
2355,3.00
2378,2.90
2402,2.80
2426,2.74
2450,2.63
2475,2.57
2500,2.47
2525,2.39
2550,2.31
2575,2.22
2601,2.14
2627,2.07
2653,2.00
2680,1.98
2707,1.98
2734,2.00
2761,2.05
2789,2.12
2817,2.25
2845,2.40
2873,2.58
2902,2.81
2931,3.07
2960,3.34
2990,3.65
3020,3.97
3050,4.32
3080,4.65
3111,4.98
3142,5.33
3174,5.67
3206,6.00
3238,6.29
3270,6.57
3303,6.84
3336,7.12
3369,7.35
3403,7.60
3437,7.78
3471,7.97
3506,8.14
3541,8.29
3576,8.42
3612,8.50
3648,8.58
3685,8.60
3721,8.60
3759,8.60
3796,8.55
3834,8.50
3873,8.42
3911,8.36
3950,8.30
3990,8.20
4030,8.13
4070,8.03
4111,7.95
4152,7.87
4193,7.77
4235,7.69
4278,7.58
4321,7.47
4364,7.33
4407,7.18
4451,7.03
4496,6.83
4541,6.62
4586,6.40
4632,6.16
4679,5.91
4725,5.69
4773,5.44
4820,5.21
4868,5.01
4917,4.80
4966,4.65
5016,4.50
5066,4.41
5117,4.36
5168,4.36
5220,4.40
5272,4.47
5325,4.60
5378,4.74
5432,4.92
5486,5.13
5541,5.35
5596,5.61
5652,5.87
5709,6.13
5766,6.41
5823,6.66
5882,6.90
5940,7.14
6000,7.37
6060,7.53
6120,7.64
6182,7.72
6244,7.70
6306,7.61
6369,7.44
6433,7.21
6497,6.95
6562,6.63
6628,6.27
6694,5.91
6761,5.53
6828,5.15
6897,4.80
6966,4.50
7035,4.22
7106,4.00
7177,3.83
7249,3.70
7321,3.63
7394,3.62
7468,3.66
7543,3.78
7618,3.92
7694,4.10
7771,4.33
7849,4.53
7928,4.74
8007,4.90
8087,5.04
8168,5.09
8250,5.04
8332,4.92
8415,4.65
8499,4.30
8584,3.86
8670,3.32
8757,2.76
8845,2.14
8933,1.53
9022,0.91
9113,0.31
9204,-0.28
9296,-0.81
9389,-1.30
9483,-1.72
9577,-2.08
9673,-2.38
9770,-2.62
9868,-2.81
9966,-2.92
10066,-3.00
10167,-2.98
10268,-2.91
10371,-2.77
10475,-2.61
10579,-2.43
10685,-2.22
10792,-2.02
10900,-1.84
11009,-1.72
11119,-1.68
11230,-1.83
11343,-2.07
11456,-2.40
11571,-2.83
11686,-3.34
11803,-3.86
11921,-4.40
12040,-4.90
12161,-5.37
12282,-5.79
12405,-6.14
12529,-6.47
12655,-6.75
12781,-6.98
12909,-7.20
13038,-7.40
13168,-7.56
13300,-7.73
13433,-7.87
13567,-8.00
13703,-8.12
13840,-8.20
13978,-8.28
14118,-8.33
14259,-8.38
14402,-8.38
14546,-8.32
14692,-8.26
14838,-8.15
14987,-8.01
15137,-7.85
15288,-7.64
15441,-7.39
15595,-7.13
15751,-6.85
15909,-6.53
16068,-6.18
16229,-5.84
16391,-5.43
16555,-5.02
16720,-4.61
16888,-4.22
17056,-3.91
17227,-3.65
17399,-3.48
17573,-3.42
17749,-3.59
17926,-3.93
18106,-4.45
18287,-5.16
18470,-6.17
18654,-7.35
18841,-8.61
19029,-10.13
19220,-11.57
19412,-12.94
19606,-14.11
19802,-15.06
20000,-15.70
