frequency,raw,error,smoothed,error_smoothed,equalization,parametric_eq,equalized_raw,equalized_smoothed,target
20,-1.45,-4.77,-1.36,-4.64,4.64,1.06,3.19,3.28,3.32
21,-1.19,-4.50,-1.11,-4.38,4.38,1.24,3.19,3.28,3.31
22,-0.86,-4.16,-0.86,-4.13,4.13,1.44,3.27,3.27,3.30
23,-0.59,-3.88,-0.63,-3.89,3.89,1.65,3.30,3.27,3.29
24,-0.32,-3.60,-0.40,-3.66,3.66,1.88,3.34,3.26,3.28
25,-0.12,-3.39,-0.19,-3.44,3.44,2.11,3.32,3.25,3.27
26,0.08,-3.18,0.01,-3.23,3.23,2.34,3.31,3.24,3.26
27,0.26,-2.98,0.20,-3.03,3.03,2.55,3.29,3.23,3.24
28,0.44,-2.79,0.38,-2.84,2.84,2.73,3.28,3.22,3.23
29,0.56,-2.65,0.55,-2.65,2.65,2.86,3.21,3.20,3.21
30,0.68,-2.51,0.71,-2.48,2.48,2.95,3.16,3.19,3.19
31,0.83,-2.34,0.84,-2.32,2.32,2.97,3.15,3.16,3.17
32,0.93,-2.22,0.97,-2.17,2.17,2.94,3.10,3.14,3.15
33,1.05,-2.08,1.08,-2.03,2.03,2.86,3.08,3.12,3.13
34,1.19,-1.92,1.20,-1.90,1.90,2.74,3.09,3.10,3.11
35,1.31,-1.78,1.31,-1.77,1.77,2.59,3.08,3.08,3.09
36,1.40,-1.66,1.41,-1.64,1.64,2.42,3.04,3.05,3.06
37,1.49,-1.55,1.51,-1.52,1.52,2.24,3.01,3.03,3.04
38,1.59,-1.42,1.60,-1.41,1.41,2.05,3.00,3.01,3.01
39,1.69,-1.29,1.68,-1.30,1.30,1.87,2.99,2.98,2.98
40,1.80,-1.15,1.75,-1.19,1.19,1.68,2.99,2.94,2.95
41,1.87,-1.05,1.82,-1.09,1.09,1.51,2.96,2.91,2.92
42,1.91,-0.98,1.89,-0.99,0.99,1.34,2.90,2.88,2.89
43,1.96,-0.90,1.95,-0.90,0.90,1.18,2.86,2.85,2.86
44,1.99,-0.83,2.00,-0.80,0.80,1.03,2.79,2.81,2.82
45,2.03,-0.76,2.06,-0.71,0.71,0.88,2.74,2.77,2.79
46,2.08,-0.67,2.11,-0.63,0.63,0.74,2.71,2.74,2.75
47,2.10,-0.61,2.16,-0.54,0.54,0.61,2.64,2.70,2.71
48,2.15,-0.53,2.20,-0.46,0.46,0.49,2.61,2.66,2.68
49,2.24,-0.40,2.25,-0.38,0.38,0.37,2.62,2.62,2.64
50,2.33,-0.27,2.28,-0.30,0.30,0.26,2.63,2.58,2.60
51,2.38,-0.17,2.32,-0.22,0.22,0.15,2.60,2.54,2.55
52,2.38,-0.13,2.36,-0.14,0.14,0.04,2.52,2.50,2.51
53,2.43,-0.04,2.40,-0.06,0.06,-0.05,2.49,2.46,2.47
54,2.43,0.01,2.43,0.02,-0.02,-0.15,2.41,2.42,2.42
55,2.45,0.07,2.46,0.09,-0.09,-0.24,2.36,2.37,2.38
56,2.47,0.14,2.49,0.16,-0.16,-0.32,2.31,2.33,2.33
57,2.47,0.19,2.51,0.22,-0.22,-0.41,2.25,2.28,2.28
58,2.52,0.28,2.52,0.29,-0.29,-0.48,2.23,2.23,2.24
59,2.52,0.33,2.53,0.35,-0.35,-0.56,2.17,2.18,2.19
60,2.57,0.43,2.54,0.41,-0.41,-0.62,2.16,2.13,2.14
61,2.57,0.48,2.55,0.48,-0.48,-0.69,2.09,2.08,2.09
62,2.59,0.55,2.57,0.54,-0.54,-0.75,2.05,2.03,2.04
63,2.59,0.60,2.58,0.60,-0.60,-0.81,1.99,1.98,1.99
64,2.59,0.66,2.59,0.66,-0.66,-0.86,1.93,1.93,1.93
65,2.59,0.71,2.60,0.73,-0.73,-0.91,1.86,1.88,1.88
66,2.61,0.78,2.62,0.79,-0.79,-0.96,1.82,1.82,1.83
67,2.61,0.83,2.63,0.86,-0.86,-1.01,1.75,1.77,1.78
68,2.63,0.91,2.65,0.93,-0.93,-1.06,1.70,1.72,1.72
69,2.66,0.99,2.66,1.00,-1.00,-1.10,1.66,1.66,1.67
70,2.66,1.04,2.68,1.07,-1.07,-1.15,1.59,1.61,1.62
71,2.71,1.15,2.70,1.14,-1.14,-1.19,1.57,1.56,1.56
72,2.71,1.20,2.72,1.21,-1.21,-1.23,1.50,1.50,1.51
73,2.75,1.30,2.74,1.29,-1.29,-1.27,1.46,1.45,1.45
74,2.75,1.35,2.76,1.36,-1.36,-1.32,1.39,1.40,1.40
75,2.79,1.44,2.77,1.43,-1.43,-1.36,1.36,1.35,1.35
76,2.80,1.51,2.79,1.49,-1.49,-1.41,1.31,1.29,1.29
77,2.80,1.56,2.80,1.56,-1.56,-1.45,1.24,1.24,1.24
78,2.82,1.64,2.81,1.62,-1.62,-1.50,1.20,1.18,1.18
79,2.82,1.69,2.82,1.69,-1.69,-1.54,1.13,1.13,1.13
80,2.82,1.74,2.82,1.75,-1.75,-1.59,1.07,1.07,1.08
81,2.82,1.80,2.82,1.80,-1.80,-1.64,1.02,1.02,1.02
82,2.82,1.85,2.82,1.86,-1.86,-1.69,0.96,0.97,0.97
83,2.82,1.90,2.82,1.91,-1.91,-1.74,0.91,0.91,0.92
84,2.82,1.96,2.82,1.96,-1.96,-1.80,0.86,0.86,0.86
85,2.82,2.01,2.82,2.01,-2.01,-1.85,0.81,0.81,0.81
86,2.82,2.06,2.82,2.07,-2.07,-1.91,0.75,0.76,0.76
87,2.82,2.11,2.82,2.12,-2.12,-1.97,0.70,0.70,0.71
88,2.82,2.17,2.82,2.17,-2.17,-2.03,0.65,0.65,0.65
89,2.82,2.22,2.82,2.22,-2.22,-2.09,0.60,0.60,0.60
90,2.82,2.27,2.82,2.27,-2.27,-2.15,0.55,0.55,0.55
91,2.82,2.32,2.82,2.32,-2.32,-2.21,0.50,0.50,0.50
92,2.82,2.37,2.82,2.37,-2.37,-2.28,0.45,0.45,0.45
93,2.82,2.42,2.82,2.41,-2.41,-2.34,0.41,0.40,0.40
94,2.82,2.47,2.82,2.46,-2.46,-2.41,0.36,0.35,0.35
95,2.82,2.51,2.82,2.51,-2.51,-2.48,0.31,0.31,0.31
96,2.82,2.56,2.82,2.56,-2.56,-2.55,0.26,0.26,0.26
97,2.82,2.61,2.82,2.62,-2.62,-2.62,0.20,0.21,0.21
98,2.82,2.65,2.83,2.67,-2.67,-2.69,0.15,0.16,0.17
99,2.82,2.70,2.83,2.72,-2.72,-2.76,0.10,0.11,0.12
100,2.82,2.75,2.83,2.77,-2.77,-2.83,0.05,0.06,0.07
101,2.84,2.81,2.83,2.82,-2.82,-2.90,0.02,0.01,0.03
102,2.85,2.86,2.84,2.87,-2.87,-2.97,-0.02,-0.04,-0.01
104,2.85,2.95,2.84,2.92,-2.92,-3.11,-0.07,-0.09,-0.10
105,2.85,2.99,2.84,2.97,-2.97,-3.18,-0.12,-0.13,-0.14
106,2.85,3.03,2.85,3.02,-3.02,-3.25,-0.17,-0.18,-0.18
107,2.85,3.08,2.85,3.07,-3.07,-3.31,-0.22,-0.22,-0.23
108,2.85,3.12,2.86,3.12,-3.12,-3.38,-0.27,-0.26,-0.27
109,2.85,3.16,2.86,3.17,-3.17,-3.44,-0.32,-0.30,-0.31
110,2.85,3.20,2.87,3.21,-3.21,-3.51,-0.36,-0.35,-0.35
111,2.87,3.25,2.87,3.26,-3.26,-3.57,-0.39,-0.39,-0.38
112,2.89,3.31,2.87,3.30,-3.30,-3.62,-0.41,-0.43,-0.42
113,2.89,3.35,2.87,3.35,-3.35,-3.68,-0.46,-0.47,-0.46
114,2.89,3.39,2.88,3.39,-3.39,-3.74,-0.50,-0.51,-0.50
115,2.89,3.42,2.89,3.44,-3.44,-3.79,-0.55,-0.55,-0.53
117,2.89,3.49,2.89,3.49,-3.49,-3.88,-0.60,-0.59,-0.60
118,2.89,3.53,2.90,3.53,-3.53,-3.92,-0.64,-0.63,-0.64
119,2.89,3.56,2.91,3.58,-3.58,-3.96,-0.69,-0.67,-0.67
120,2.89,3.59,2.91,3.63,-3.63,-4.00,-0.74,-0.71,-0.70
121,2.90,3.64,2.92,3.67,-3.67,-4.03,-0.77,-0.75,-0.74
123,2.94,3.74,2.92,3.72,-3.72,-4.09,-0.78,-0.79,-0.80
124,2.94,3.77,2.93,3.76,-3.76,-4.11,-0.82,-0.83,-0.83
125,2.94,3.80,2.93,3.80,-3.80,-4.14,-0.86,-0.87,-0.86
126,2.94,3.83,2.93,3.84,-3.84,-4.15,-0.90,-0.90,-0.89
128,2.94,3.89,2.93,3.87,-3.87,-4.18,-0.93,-0.94,-0.95
129,2.94,3.92,2.93,3.91,-3.91,-4.19,-0.97,-0.98,-0.98
130,2.94,3.95,2.93,3.94,-3.94,-4.20,-1.00,-1.01,-1.01
131,2.94,3.97,2.92,3.96,-3.96,-4.20,-1.02,-1.05,-1.03
133,2.89,3.98,2.91,3.99,-3.99,-4.20,-1.10,-1.08,-1.09
134,2.89,4.00,2.90,4.01,-4.01,-4.20,-1.12,-1.12,-1.11
135,2.89,4.03,2.88,4.04,-4.04,-4.20,-1.15,-1.15,-1.14
137,2.85,4.04,2.87,4.06,-4.06,-4.19,-1.21,-1.19,-1.19
138,2.85,4.06,2.86,4.08,-4.08,-4.18,-1.23,-1.22,-1.21
140,2.85,4.11,2.85,4.10,-4.10,-4.16,-1.25,-1.25,-1.26
141,2.85,4.13,2.84,4.12,-4.12,-4.15,-1.27,-1.28,-1.28
142,2.83,4.13,2.83,4.15,-4.15,-4.14,-1.32,-1.31,-1.30
144,2.82,4.17,2.83,4.17,-4.17,-4.12,-1.35,-1.35,-1.35
145,2.82,4.19,2.82,4.20,-4.20,-4.11,-1.38,-1.38,-1.37
147,2.82,4.23,2.82,4.22,-4.22,-4.08,-1.40,-1.40,-1.41
148,2.82,4.25,2.82,4.25,-4.25,-4.07,-1.43,-1.43,-1.43
150,2.82,4.29,2.82,4.28,-4.28,-4.05,-1.46,-1.46,-1.47
151,2.82,4.30,2.82,4.31,-4.31,-4.04,-1.49,-1.49,-1.48
153,2.82,4.34,2.82,4.33,-4.33,-4.02,-1.51,-1.52,-1.52
154,2.82,4.36,2.82,4.36,-4.36,-4.01,-1.54,-1.54,-1.54
156,2.82,4.39,2.82,4.39,-4.39,-4.00,-1.57,-1.57,-1.57
157,2.82,4.41,2.82,4.41,-4.41,-3.99,-1.59,-1.59,-1.59
159,2.82,4.44,2.82,4.44,-4.44,-3.98,-1.62,-1.62,-1.62
160,2.82,4.46,2.82,4.46,-4.46,-3.98,-1.64,-1.64,-1.64
162,2.82,4.49,2.82,4.49,-4.49,-3.98,-1.67,-1.67,-1.67
164,2.82,4.52,2.82,4.51,-4.51,-3.98,-1.69,-1.69,-1.70
165,2.82,4.53,2.82,4.54,-4.54,-3.98,-1.72,-1.72,-1.71
167,2.82,4.56,2.82,4.56,-4.56,-3.98,-1.74,-1.74,-1.74
169,2.82,4.59,2.82,4.58,-4.58,-3.99,-1.76,-1.76,-1.77
170,2.82,4.60,2.82,4.60,-4.60,-4.00,-1.78,-1.78,-1.78
172,2.82,4.62,2.82,4.62,-4.62,-4.01,-1.80,-1.80,-1.80
174,2.82,4.65,2.82,4.65,-4.65,-4.03,-1.83,-1.83,-1.83
175,2.82,4.66,2.82,4.67,-4.67,-4.05,-1.85,-1.85,-1.84
177,2.82,4.68,2.82,4.69,-4.69,-4.07,-1.87,-1.87,-1.86
179,2.82,4.71,2.82,4.71,-4.71,-4.10,-1.89,-1.89,-1.89
181,2.82,4.73,2.82,4.73,-4.73,-4.13,-1.91,-1.91,-1.91
183,2.82,4.75,2.82,4.74,-4.74,-4.17,-1.92,-1.92,-1.93
184,2.82,4.76,2.82,4.76,-4.76,-4.19,-1.94,-1.94,-1.94
186,2.82,4.78,2.82,4.78,-4.78,-4.23,-1.96,-1.96,-1.96
188,2.82,4.80,2.82,4.80,-4.80,-4.28,-1.98,-1.98,-1.98
190,2.82,4.82,2.82,4.82,-4.82,-4.32,-2.00,-2.00,-2.00
192,2.82,4.83,2.82,4.84,-4.84,-4.37,-2.02,-2.02,-2.01
194,2.82,4.85,2.82,4.86,-4.86,-4.42,-2.04,-2.03,-2.03
196,2.82,4.87,2.83,4.87,-4.87,-4.48,-2.05,-2.05,-2.05
198,2.82,4.88,2.83,4.89,-4.89,-4.53,-2.07,-2.06,-2.06
200,2.82,4.90,2.83,4.91,-4.91,-4.59,-2.09,-2.08,-2.08
202,2.82,4.91,2.83,4.92,-4.92,-4.65,-2.10,-2.09,-2.09
204,2.82,4.93,2.82,4.93,-4.93,-4.71,-2.11,-2.11,-2.11
206,2.85,4.97,2.81,4.94,-4.94,-4.77,-2.09,-2.12,-2.12
208,2.83,4.96,2.81,4.94,-4.94,-4.83,-2.11,-2.14,-2.13
210,2.80,4.95,2.80,4.95,-4.95,-4.89,-2.15,-2.15,-2.15
212,2.80,4.96,2.79,4.95,-4.95,-4.95,-2.15,-2.16,-2.16
214,2.78,4.95,2.77,4.95,-4.95,-5.01,-2.17,-2.18,-2.17
216,2.75,4.93,2.76,4.95,-4.95,-5.07,-2.20,-2.19,-2.18
218,2.75,4.94,2.75,4.95,-4.95,-5.13,-2.20,-2.20,-2.19
221,2.71,4.92,2.74,4.95,-4.95,-5.21,-2.24,-2.21,-2.21
223,2.71,4.93,2.73,4.95,-4.95,-5.26,-2.24,-2.22,-2.22
225,2.71,4.94,2.72,4.96,-4.96,-5.31,-2.25,-2.24,-2.23
227,2.71,4.95,2.71,4.96,-4.96,-5.36,-2.25,-2.25,-2.24
229,2.71,4.96,2.71,4.97,-4.97,-5.41,-2.26,-2.26,-2.25
232,2.71,4.97,2.71,4.97,-4.97,-5.47,-2.26,-2.27,-2.26
234,2.71,4.98,2.70,4.98,-4.98,-5.50,-2.27,-2.28,-2.27
236,2.71,4.99,2.71,4.99,-4.99,-5.53,-2.28,-2.29,-2.28
239,2.71,5.00,2.71,5.00,-5.00,-5.57,-2.29,-2.29,-2.29
241,2.71,5.01,2.71,5.01,-5.01,-5.60,-2.30,-2.30,-2.30
244,2.71,5.02,2.71,5.02,-5.02,-5.62,-2.31,-2.31,-2.31
246,2.71,5.03,2.72,5.03,-5.03,-5.63,-2.32,-2.32,-2.32
248,2.71,5.04,2.71,5.04,-5.04,-5.64,-2.33,-2.33,-2.33
251,2.71,5.05,2.71,5.05,-5.05,-5.64,-2.34,-2.34,-2.34
253,2.71,5.05,2.71,5.05,-5.05,-5.64,-2.34,-2.34,-2.34
256,2.71,5.06,2.70,5.05,-5.05,-5.62,-2.34,-2.35,-2.35
259,2.71,5.07,2.69,5.05,-5.05,-5.60,-2.34,-2.36,-2.36
261,2.71,5.08,2.68,5.05,-5.05,-5.58,-2.34,-2.37,-2.37
264,2.66,5.04,2.67,5.05,-5.05,-5.55,-2.39,-2.38,-2.38
266,2.66,5.04,2.66,5.05,-5.05,-5.52,-2.39,-2.39,-2.38
269,2.66,5.05,2.65,5.04,-5.04,-5.48,-2.38,-2.39,-2.39
272,2.61,5.01,2.63,5.03,-5.03,-5.43,-2.42,-2.40,-2.40
274,2.61,5.01,2.62,5.03,-5.03,-5.40,-2.42,-2.41,-2.40
277,2.59,5.00,2.60,5.02,-5.02,-5.34,-2.43,-2.42,-2.41
280,2.57,4.99,2.59,5.01,-5.01,-5.28,-2.44,-2.43,-2.42
283,2.57,5.00,2.57,5.00,-5.00,-5.22,-2.43,-2.43,-2.43
286,2.57,5.00,2.56,5.00,-5.00,-5.16,-2.43,-2.44,-2.43
288,2.57,5.01,2.54,4.99,-4.99,-5.12,-2.42,-2.44,-2.44
291,2.52,4.96,2.53,4.98,-4.98,-5.05,-2.46,-2.44,-2.44
294,2.52,4.97,2.52,4.97,-4.97,-4.99,-2.45,-2.44,-2.45
297,2.52,4.96,2.51,4.95,-4.95,-4.92,-2.43,-2.44,-2.44
300,2.52,4.96,2.51,4.94,-4.94,-4.86,-2.42,-2.43,-2.44
303,2.48,4.91,2.50,4.92,-4.92,-4.80,-2.44,-2.43,-2.43
306,2.47,4.89,2.49,4.91,-4.91,-4.74,-2.44,-2.42,-2.42
309,2.47,4.88,2.48,4.89,-4.89,-4.68,-2.42,-2.40,-2.41
312,2.47,4.86,2.48,4.87,-4.87,-4.63,-2.40,-2.39,-2.39
316,2.47,4.85,2.47,4.84,-4.84,-4.56,-2.37,-2.37,-2.38
319,2.47,4.83,2.46,4.82,-4.82,-4.50,-2.35,-2.36,-2.36
322,2.47,4.81,2.46,4.80,-4.80,-4.46,-2.33,-2.34,-2.34
325,2.47,4.78,2.45,4.77,-4.77,-4.41,-2.30,-2.32,-2.31
328,2.46,4.75,2.45,4.75,-4.75,-4.37,-2.29,-2.30,-2.29
332,2.43,4.71,2.44,4.73,-4.73,-4.32,-2.30,-2.29,-2.28
335,2.43,4.69,2.43,4.70,-4.70,-4.28,-2.27,-2.27,-2.26
338,2.43,4.68,2.42,4.68,-4.68,-4.25,-2.25,-2.26,-2.25
342,2.42,4.66,2.41,4.66,-4.66,-4.20,-2.24,-2.25,-2.24
345,2.38,4.61,2.40,4.64,-4.64,-4.18,-2.26,-2.24,-2.23
349,2.38,4.61,2.39,4.62,-4.62,-4.14,-2.24,-2.23,-2.23
352,2.38,4.60,2.37,4.60,-4.60,-4.12,-2.22,-2.23,-2.22
356,2.38,4.60,2.36,4.59,-4.59,-4.10,-2.21,-2.23,-2.22
359,2.33,4.55,2.35,4.58,-4.58,-4.08,-2.25,-2.23,-2.22
363,2.33,4.55,2.34,4.56,-4.56,-4.06,-2.23,-2.22,-2.22
366,2.33,4.55,2.33,4.55,-4.55,-4.05,-2.22,-2.22,-2.22
370,2.33,4.56,2.32,4.54,-4.54,-4.04,-2.21,-2.23,-2.23
374,2.29,4.52,2.31,4.54,-4.54,-4.04,-2.25,-2.23,-2.23
377,2.29,4.52,2.29,4.53,-4.53,-4.03,-2.24,-2.23,-2.23
381,2.29,4.53,2.28,4.52,-4.52,-4.03,-2.23,-2.24,-2.24
385,2.29,4.53,2.27,4.51,-4.51,-4.04,-2.22,-2.24,-2.24
389,2.24,4.48,2.25,4.50,-4.50,-4.04,-2.26,-2.25,-2.24
393,2.24,4.49,2.24,4.49,-4.49,-4.05,-2.25,-2.25,-2.25
397,2.24,4.49,2.23,4.48,-4.48,-4.06,-2.24,-2.25,-2.25
401,2.21,4.46,2.21,4.47,-4.47,-4.07,-2.26,-2.25,-2.25
405,2.19,4.45,2.20,4.45,-4.45,-4.08,-2.26,-2.26,-2.26
409,2.19,4.45,2.18,4.44,-4.44,-4.10,-2.25,-2.26,-2.26
413,2.15,4.41,2.17,4.42,-4.42,-4.11,-2.27,-2.26,-2.26
417,2.15,4.41,2.15,4.41,-4.41,-4.13,-2.26,-2.26,-2.26
421,2.15,4.41,2.13,4.39,-4.39,-4.15,-2.24,-2.26,-2.26
425,2.10,4.36,2.11,4.37,-4.37,-4.17,-2.27,-2.25,-2.26
430,2.10,4.35,2.10,4.35,-4.35,-4.19,-2.25,-2.25,-2.25
434,2.10,4.34,2.08,4.32,-4.32,-4.21,-2.22,-2.24,-2.24
438,2.05,4.29,2.06,4.30,-4.30,-4.22,-2.25,-2.24,-2.24
443,2.05,4.28,2.05,4.28,-4.28,-4.24,-2.23,-2.23,-2.23
447,2.01,4.23,2.03,4.25,-4.25,-4.26,-2.24,-2.22,-2.22
451,2.01,4.22,2.01,4.23,-4.23,-4.27,-2.22,-2.22,-2.21
456,2.01,4.22,1.99,4.20,-4.20,-4.29,-2.19,-2.21,-2.21
460,1.96,4.16,1.97,4.18,-4.18,-4.30,-2.22,-2.21,-2.20
465,1.96,4.15,1.95,4.15,-4.15,-4.31,-2.19,-2.20,-2.19
470,1.93,4.12,1.94,4.13,-4.13,-4.31,-2.20,-2.19,-2.19
474,1.91,4.09,1.92,4.11,-4.11,-4.32,-2.20,-2.19,-2.18
479,1.91,4.09,1.90,4.08,-4.08,-4.32,-2.17,-2.18,-2.18
484,1.87,4.05,1.88,4.05,-4.05,-4.31,-2.18,-2.18,-2.18
489,1.87,4.05,1.85,4.03,-4.03,-4.30,-2.16,-2.17,-2.18
494,1.82,3.99,1.83,4.00,-4.00,-4.29,-2.18,-2.17,-2.17
499,1.82,3.99,1.80,3.97,-3.97,-4.27,-2.15,-2.17,-2.17
504,1.77,3.93,1.78,3.94,-3.94,-4.25,-2.17,-2.16,-2.16
509,1.77,3.92,1.76,3.91,-3.91,-4.22,-2.14,-2.15,-2.15
514,1.73,3.87,1.74,3.88,-3.88,-4.19,-2.15,-2.14,-2.14
519,1.70,3.83,1.71,3.84,-3.84,-4.16,-2.14,-2.13,-2.13
524,1.68,3.80,1.69,3.81,-3.81,-4.12,-2.13,-2.12,-2.12
529,1.66,3.76,1.67,3.77,-3.77,-4.08,-2.11,-2.10,-2.10
535,1.63,3.72,1.64,3.73,-3.73,-4.03,-2.10,-2.09,-2.09
540,1.63,3.71,1.62,3.69,-3.69,-3.98,-2.06,-2.08,-2.08
545,1.60,3.66,1.59,3.65,-3.65,-3.93,-2.05,-2.06,-2.06
551,1.59,3.64,1.56,3.61,-3.61,-3.87,-2.02,-2.05,-2.05
556,1.54,3.57,1.54,3.57,-3.57,-3.82,-2.03,-2.04,-2.03
562,1.52,3.54,1.51,3.53,-3.53,-3.75,-2.01,-2.03,-2.02
568,1.49,3.49,1.48,3.49,-3.49,-3.69,-2.00,-2.01,-2.00
573,1.45,3.44,1.46,3.45,-3.45,-3.63,-2.00,-2.00,-1.99
579,1.41,3.39,1.43,3.42,-3.42,-3.56,-2.01,-1.98,-1.98
585,1.40,3.36,1.41,3.38,-3.38,-3.49,-1.98,-1.97,-1.96
591,1.35,3.30,1.38,3.34,-3.34,-3.43,-1.99,-1.96,-1.95
596,1.35,3.29,1.36,3.31,-3.31,-3.37,-1.96,-1.95,-1.94
602,1.32,3.25,1.33,3.28,-3.28,-3.30,-1.96,-1.95,-1.93
608,1.31,3.24,1.31,3.24,-3.24,-3.24,-1.93,-1.94,-1.93
615,1.31,3.23,1.28,3.21,-3.21,-3.16,-1.90,-1.93,-1.92
621,1.28,3.20,1.26,3.18,-3.18,-3.10,-1.90,-1.92,-1.92
627,1.24,3.15,1.23,3.14,-3.14,-3.04,-1.90,-1.91,-1.91
633,1.20,3.11,1.20,3.11,-3.11,-2.98,-1.91,-1.90,-1.91
639,1.17,3.07,1.17,3.07,-3.07,-2.92,-1.90,-1.90,-1.90
646,1.12,3.01,1.14,3.02,-3.02,-2.85,-1.90,-1.89,-1.89
652,1.11,2.99,1.11,2.98,-2.98,-2.80,-1.87,-1.87,-1.88
659,1.07,2.94,1.07,2.93,-2.93,-2.74,-1.86,-1.86,-1.87
665,1.03,2.88,1.03,2.88,-2.88,-2.69,-1.85,-1.85,-1.85
672,0.99,2.83,0.99,2.82,-2.82,-2.63,-1.83,-1.83,-1.84
679,0.96,2.77,0.95,2.76,-2.76,-2.58,-1.80,-1.81,-1.81
686,0.91,2.70,0.91,2.70,-2.70,-2.52,-1.79,-1.79,-1.79
692,0.88,2.64,0.88,2.64,-2.64,-2.48,-1.76,-1.76,-1.76
699,0.84,2.57,0.84,2.57,-2.57,-2.43,-1.73,-1.73,-1.73
706,0.81,2.51,0.80,2.51,-2.51,-2.39,-1.70,-1.71,-1.70
713,0.76,2.43,0.76,2.44,-2.44,-2.35,-1.68,-1.68,-1.67
721,0.72,2.36,0.73,2.38,-2.38,-2.30,-1.66,-1.65,-1.64
728,0.69,2.30,0.69,2.31,-2.31,-2.26,-1.62,-1.62,-1.61
735,0.65,2.23,0.66,2.25,-2.25,-2.23,-1.60,-1.59,-1.58
742,0.63,2.19,0.63,2.18,-2.18,-2.19,-1.55,-1.56,-1.56
750,0.60,2.13,0.59,2.12,-2.12,-2.16,-1.52,-1.53,-1.53
757,0.56,2.06,0.56,2.06,-2.06,-2.13,-1.50,-1.50,-1.50
765,0.51,1.98,0.53,2.00,-2.00,-2.09,-1.49,-1.47,-1.47
773,0.48,1.92,0.50,1.94,-1.94,-2.06,-1.46,-1.44,-1.44
780,0.47,1.88,0.47,1.89,-1.89,-2.04,-1.42,-1.42,-1.41
788,0.47,1.86,0.44,1.83,-1.83,-2.01,-1.36,-1.39,-1.39
796,0.41,1.78,0.40,1.77,-1.77,-1.99,-1.36,-1.37,-1.37
804,0.38,1.72,0.37,1.72,-1.72,-1.96,-1.34,-1.35,-1.34
812,0.35,1.67,0.34,1.66,-1.66,-1.94,-1.31,-1.33,-1.32
820,0.30,1.60,0.30,1.61,-1.61,-1.92,-1.31,-1.30,-1.30
828,0.27,1.56,0.27,1.55,-1.55,-1.90,-1.28,-1.28,-1.29
837,0.23,1.50,0.24,1.50,-1.50,-1.88,-1.27,-1.26,-1.27
845,0.20,1.45,0.20,1.45,-1.45,-1.86,-1.25,-1.24,-1.25
853,0.17,1.40,0.17,1.39,-1.39,-1.84,-1.22,-1.23,-1.23
862,0.14,1.35,0.13,1.34,-1.34,-1.82,-1.20,-1.21,-1.21
871,0.09,1.28,0.10,1.30,-1.30,-1.80,-1.21,-1.19,-1.19
879,0.09,1.26,0.08,1.25,-1.25,-1.78,-1.16,-1.17,-1.17
888,0.05,1.19,0.06,1.21,-1.21,-1.76,-1.16,-1.15,-1.14
897,0.04,1.16,0.04,1.17,-1.17,-1.74,-1.13,-1.13,-1.12
906,0.00,1.10,0.03,1.13,-1.13,-1.72,-1.13,-1.10,-1.10
915,0.00,1.07,0.01,1.09,-1.09,-1.70,-1.09,-1.08,-1.07
924,0.00,1.05,0.00,1.06,-1.06,-1.68,-1.06,-1.06,-1.05
933,0.00,1.03,-0.00,1.03,-1.03,-1.66,-1.03,-1.04,-1.03
943,0.00,1.01,-0.01,1.00,-1.00,-1.63,-1.00,-1.02,-1.01
952,0.00,0.99,-0.01,0.98,-0.98,-1.61,-0.98,-1.00,-0.99
962,0.00,0.97,-0.01,0.96,-0.96,-1.58,-0.96,-0.97,-0.97
971,0.00,0.95,-0.02,0.94,-0.94,-1.55,-0.94,-0.96,-0.95
981,0.00,0.93,-0.01,0.92,-0.92,-1.52,-0.92,-0.94,-0.93
991,0.00,0.91,-0.00,0.91,-0.91,-1.49,-0.91,-0.92,-0.91
1001,0.00,0.89,0.01,0.90,-0.90,-1.45,-0.90,-0.89,-0.89
1011,0.00,0.87,0.02,0.89,-0.89,-1.42,-0.89,-0.88,-0.87
1021,0.00,0.85,0.03,0.89,-0.89,-1.38,-0.89,-0.86,-0.85
1031,0.05,0.87,0.05,0.89,-0.89,-1.34,-0.84,-0.83,-0.82
1041,0.08,0.88,0.08,0.89,-0.89,-1.30,-0.81,-0.81,-0.80
1052,0.11,0.88,0.11,0.90,-0.90,-1.25,-0.79,-0.79,-0.77
1062,0.14,0.89,0.15,0.91,-0.91,-1.21,-0.77,-0.76,-0.75
1073,0.20,0.92,0.19,0.92,-0.92,-1.16,-0.72,-0.73,-0.72
1084,0.23,0.92,0.23,0.93,-0.93,-1.11,-0.70,-0.70,-0.69
1094,0.28,0.94,0.28,0.94,-0.94,-1.06,-0.66,-0.66,-0.66
1105,0.32,0.95,0.33,0.96,-0.96,-1.01,-0.64,-0.62,-0.63
1116,0.38,0.97,0.39,0.97,-0.97,-0.96,-0.59,-0.58,-0.59
1128,0.44,0.99,0.44,0.98,-0.98,-0.90,-0.54,-0.54,-0.55
1139,0.49,0.99,0.49,0.98,-0.98,-0.84,-0.49,-0.49,-0.50
1150,0.55,1.00,0.55,0.99,-0.99,-0.79,-0.44,-0.44,-0.45
1162,0.61,1.01,0.60,0.99,-0.99,-0.73,-0.38,-0.39,-0.40
1173,0.66,1.00,0.65,0.98,-0.98,-0.67,-0.32,-0.33,-0.34
1185,0.71,0.99,0.70,0.98,-0.98,-0.61,-0.27,-0.27,-0.28
1197,0.75,0.96,0.75,0.96,-0.96,-0.55,-0.21,-0.21,-0.21
1209,0.80,0.95,0.79,0.95,-0.95,-0.48,-0.15,-0.15,-0.15
1221,0.83,0.92,0.83,0.93,-0.93,-0.42,-0.10,-0.09,-0.09
1233,0.89,0.91,0.87,0.90,-0.90,-0.36,-0.01,-0.03,-0.02
1246,0.92,0.87,0.91,0.88,-0.88,-0.29,0.04,0.03,0.05
1258,0.95,0.84,0.95,0.85,-0.85,-0.23,0.10,0.10,0.11
1271,0.98,0.81,0.98,0.82,-0.82,-0.16,0.16,0.16,0.17
1283,1.01,0.77,1.02,0.79,-0.79,-0.10,0.22,0.23,0.24
1296,1.04,0.74,1.06,0.76,-0.76,-0.04,0.28,0.30,0.30
1309,1.07,0.70,1.09,0.72,-0.72,0.03,0.35,0.37,0.37
1322,1.12,0.68,1.13,0.68,-0.68,0.09,0.44,0.45,0.44
1335,1.16,0.65,1.16,0.64,-0.64,0.16,0.52,0.52,0.51
1349,1.19,0.60,1.20,0.60,-0.60,0.23,0.59,0.60,0.59
1362,1.25,0.58,1.23,0.55,-0.55,0.30,0.70,0.68,0.67
1376,1.28,0.53,1.26,0.50,-0.50,0.36,0.78,0.76,0.75
1390,1.31,0.47,1.29,0.44,-0.44,0.43,0.87,0.85,0.84
1404,1.34,0.41,1.32,0.38,-0.38,0.50,0.96,0.94,0.93
1418,1.35,0.32,1.35,0.32,-0.32,0.57,1.03,1.03,1.03
1432,1.36,0.24,1.38,0.25,-0.25,0.64,1.11,1.13,1.12
1446,1.40,0.18,1.40,0.18,-0.18,0.71,1.22,1.22,1.22
1461,1.40,0.08,1.42,0.10,-0.10,0.78,1.30,1.32,1.32
1475,1.45,0.03,1.44,0.03,-0.03,0.85,1.42,1.41,1.42
1490,1.45,-0.07,1.46,-0.05,0.05,0.92,1.50,1.51,1.52
1505,1.49,-0.13,1.48,-0.13,0.13,0.99,1.62,1.61,1.62
1520,1.49,-0.23,1.50,-0.21,0.21,1.07,1.70,1.71,1.72
1535,1.53,-0.29,1.52,-0.28,0.28,1.14,1.81,1.81,1.82
1550,1.54,-0.38,1.55,-0.36,0.36,1.21,1.90,1.91,1.92
1566,1.57,-0.45,1.57,-0.44,0.44,1.28,2.01,2.01,2.02
1582,1.59,-0.53,1.59,-0.51,0.51,1.36,2.10,2.11,2.12
1597,1.62,-0.60,1.61,-0.59,0.59,1.43,2.21,2.20,2.22
1613,1.63,-0.68,1.64,-0.67,0.67,1.50,2.30,2.31,2.31
1629,1.67,-0.74,1.66,-0.75,0.75,1.57,2.42,2.41,2.41
1646,1.68,-0.83,1.69,-0.82,0.82,1.65,2.50,2.51,2.51
1662,1.71,-0.90,1.71,-0.90,0.90,1.72,2.61,2.62,2.61
1679,1.73,-0.98,1.74,-0.99,0.99,1.80,2.72,2.72,2.71
1696,1.77,-1.05,1.76,-1.07,1.07,1.87,2.84,2.83,2.82
1713,1.77,-1.16,1.78,-1.16,1.16,1.94,2.93,2.93,2.93
1730,1.81,-1.23,1.80,-1.25,1.25,2.02,3.06,3.04,3.04
1747,1.82,-1.33,1.82,-1.34,1.34,2.09,3.16,3.16,3.15
1764,1.87,-1.40,1.84,-1.43,1.43,2.15,3.30,3.27,3.27
1782,1.87,-1.52,1.87,-1.53,1.53,2.22,3.40,3.39,3.39
1800,1.87,-1.64,1.89,-1.62,1.62,2.29,3.49,3.51,3.51
1818,1.91,-1.73,1.91,-1.72,1.72,2.36,3.63,3.63,3.64
1836,1.91,-1.85,1.93,-1.82,1.82,2.42,3.73,3.76,3.76
1854,1.95,-1.94,1.96,-1.93,1.93,2.48,3.88,3.88,3.89
1873,1.99,-2.02,1.98,-2.03,2.03,2.55,4.02,4.01,4.01
