frequency,raw,smoothed,error,error_smoothed,equalization,parametric_eq,fixed_band_eq,equalized_raw,equalized_smoothed,target
20.00,4.98,4.97,-2.38,-2.38,2.39,1.57,0.66,7.36,7.36,7.36
20.20,5.04,5.04,-2.35,-2.35,2.35,1.56,0.68,7.39,7.39,7.39
20.40,5.10,5.10,-2.32,-2.32,2.32,1.56,0.70,7.42,7.42,7.42
20.61,5.15,5.16,-2.28,-2.29,2.29,1.56,0.72,7.44,7.44,7.44
20.81,5.22,5.22,-2.25,-2.25,2.25,1.55,0.74,7.47,7.47,7.47
21.02,5.28,5.27,-2.22,-2.22,2.21,1.55,0.76,7.49,7.49,7.50
21.23,5.33,5.33,-2.18,-2.18,2.18,1.55,0.79,7.50,7.50,7.51
21.44,5.38,5.38,-2.14,-2.14,2.14,1.54,0.81,7.52,7.52,7.52
21.66,5.43,5.43,-2.10,-2.10,2.10,1.54,0.84,7.52,7.53,7.53
21.87,5.48,5.47,-2.05,-2.06,2.06,1.54,0.86,7.54,7.53,7.53
22.09,5.52,5.52,-2.02,-2.02,2.02,1.53,0.89,7.53,7.53,7.53
22.31,5.56,5.56,-1.98,-1.98,1.98,1.53,0.92,7.53,7.53,7.53
22.54,5.60,5.60,-1.94,-1.94,1.93,1.52,0.94,7.53,7.53,7.53
22.76,5.64,5.64,-1.90,-1.89,1.89,1.52,0.97,7.53,7.53,7.53
22.99,5.68,5.67,-1.85,-1.85,1.85,1.52,1.00,7.53,7.53,7.52
23.22,5.71,5.71,-1.82,-1.81,1.82,1.51,1.03,7.52,7.53,7.52
23.45,5.75,5.74,-1.77,-1.77,1.78,1.51,1.06,7.53,7.52,7.52
23.69,5.78,5.78,-1.74,-1.74,1.74,1.50,1.09,7.52,7.52,7.52
23.92,5.82,5.81,-1.70,-1.71,1.71,1.50,1.12,7.52,7.52,7.52
24.16,5.85,5.85,-1.68,-1.68,1.67,1.50,1.16,7.52,7.52,7.53
24.40,5.89,5.88,-1.64,-1.64,1.64,1.49,1.19,7.52,7.52,7.53
24.65,5.92,5.92,-1.60,-1.60,1.60,1.49,1.22,7.52,7.52,7.52
24.89,5.95,5.95,-1.57,-1.56,1.57,1.48,1.26,7.51,7.52,7.52
25.14,5.99,5.98,-1.53,-1.53,1.53,1.48,1.29,7.52,7.52,7.51
25.39,6.02,6.01,-1.50,-1.50,1.50,1.47,1.32,7.52,7.51,7.51
25.65,6.04,6.04,-1.48,-1.47,1.47,1.47,1.36,7.51,7.51,7.51
25.91,6.07,6.06,-1.44,-1.44,1.44,1.46,1.39,7.51,7.51,7.50
26.16,6.09,6.08,-1.41,-1.42,1.42,1.46,1.42,7.51,7.50,7.50
26.43,6.10,6.10,-1.40,-1.40,1.40,1.45,1.46,7.50,7.50,7.50
26.69,6.12,6.11,-1.38,-1.38,1.39,1.44,1.49,7.50,7.50,7.50
26.96,6.13,6.12,-1.37,-1.37,1.37,1.44,1.52,7.50,7.50,7.50
27.23,6.13,6.13,-1.37,-1.36,1.36,1.43,1.55,7.49,7.49,7.50
27.50,6.14,6.13,-1.36,-1.36,1.35,1.43,1.58,7.49,7.49,7.49
27.77,6.14,6.14,-1.35,-1.35,1.35,1.42,1.61,7.48,7.48,7.48
28.05,6.14,6.14,-1.35,-1.34,1.34,1.41,1.63,7.48,7.48,7.48
28.33,6.14,6.13,-1.33,-1.34,1.34,1.41,1.66,7.48,7.48,7.47
28.62,6.13,6.13,-1.34,-1.34,1.35,1.40,1.68,7.47,7.47,7.47
28.90,6.12,6.12,-1.35,-1.35,1.35,1.39,1.70,7.46,7.47,7.47
29.19,6.11,6.11,-1.35,-1.36,1.35,1.39,1.72,7.46,7.46,7.46
29.48,6.10,6.09,-1.37,-1.36,1.36,1.38,1.74,7.46,7.46,7.46
29.78,6.08,6.08,-1.38,-1.37,1.37,1.37,1.75,7.45,7.45,7.45
30.08,6.07,6.06,-1.38,-1.38,1.38,1.37,1.77,7.45,7.45,7.45
30.38,6.05,6.05,-1.39,-1.39,1.39,1.36,1.78,7.44,7.44,7.44
30.68,6.04,6.03,-1.40,-1.40,1.40,1.35,1.78,7.44,7.44,7.44
30.99,6.02,6.02,-1.41,-1.41,1.41,1.34,1.78,7.43,7.43,7.42
31.30,6.00,6.00,-1.43,-1.43,1.43,1.33,1.78,7.42,7.42,7.42
31.61,5.98,5.98,-1.44,-1.44,1.44,1.33,1.78,7.41,7.41,7.42
31.93,5.96,5.96,-1.45,-1.45,1.45,1.32,1.78,7.41,7.41,7.41
32.24,5.94,5.94,-1.46,-1.46,1.46,1.31,1.77,7.40,7.40,7.39
32.57,5.92,5.92,-1.48,-1.48,1.48,1.30,1.76,7.39,7.39,7.39
32.89,5.90,5.90,-1.49,-1.49,1.49,1.29,1.74,7.39,7.39,7.39
33.22,5.88,5.88,-1.50,-1.50,1.50,1.28,1.73,7.38,7.38,7.38
33.55,5.86,5.86,-1.52,-1.52,1.52,1.27,1.71,7.37,7.37,7.37
33.89,5.84,5.84,-1.53,-1.53,1.53,1.26,1.69,7.37,7.37,7.36
34.23,5.82,5.82,-1.54,-1.54,1.54,1.25,1.66,7.36,7.35,7.36
34.57,5.80,5.80,-1.55,-1.55,1.55,1.24,1.64,7.34,7.34,7.34
34.92,5.78,5.78,-1.56,-1.56,1.56,1.23,1.61,7.33,7.33,7.33
35.27,5.77,5.76,-1.56,-1.56,1.56,1.22,1.58,7.32,7.32,7.33
35.62,5.76,5.75,-1.56,-1.56,1.56,1.21,1.55,7.32,7.31,7.31
35.97,5.75,5.75,-1.56,-1.56,1.56,1.20,1.52,7.30,7.30,7.30
36.33,5.75,5.74,-1.55,-1.55,1.55,1.18,1.49,7.30,7.29,7.30
36.70,5.75,5.74,-1.54,-1.54,1.54,1.17,1.45,7.28,7.28,7.28
37.06,5.75,5.75,-1.52,-1.53,1.52,1.16,1.42,7.27,7.27,7.27
37.43,5.76,5.76,-1.51,-1.50,1.51,1.15,1.39,7.26,7.26,7.27
37.81,5.77,5.77,-1.49,-1.48,1.48,1.13,1.35,7.25,7.25,7.25
38.19,5.79,5.78,-1.45,-1.46,1.46,1.12,1.32,7.24,7.24,7.24
38.57,5.80,5.80,-1.44,-1.43,1.43,1.11,1.28,7.22,7.23,7.23
38.95,5.83,5.82,-1.39,-1.39,1.39,1.09,1.25,7.22,7.21,7.22
39.34,5.85,5.85,-1.36,-1.36,1.36,1.08,1.21,7.20,7.20,7.20
39.74,5.88,5.88,-1.31,-1.31,1.32,1.06,1.18,7.19,7.19,7.19
40.14,5.91,5.90,-1.28,-1.27,1.27,1.04,1.14,7.18,7.18,7.18
40.54,5.94,5.94,-1.23,-1.23,1.23,1.03,1.11,7.17,7.17,7.17
40.94,5.97,5.97,-1.19,-1.19,1.19,1.01,1.08,7.16,7.16,7.16
41.35,6.01,6.00,-1.14,-1.14,1.15,0.99,1.04,7.15,7.15,7.14
41.76,6.04,6.04,-1.10,-1.10,1.10,0.98,1.01,7.14,7.14,7.14
42.18,6.08,6.07,-1.05,-1.05,1.06,0.96,0.98,7.13,7.13,7.13
42.60,6.11,6.10,-1.01,-1.01,1.01,0.94,0.95,7.12,7.11,7.11
43.03,6.14,6.14,-0.97,-0.97,0.96,0.92,0.92,7.10,7.10,7.11
43.46,6.17,6.17,-0.92,-0.92,0.91,0.90,0.89,7.08,7.08,7.09
43.90,6.21,6.20,-0.86,-0.87,0.87,0.88,0.86,7.07,7.07,7.06
44.33,6.23,6.23,-0.82,-0.82,0.82,0.85,0.83,7.05,7.05,7.04
44.78,6.26,6.26,-0.77,-0.77,0.77,0.83,0.81,7.03,7.03,7.03
45.23,6.29,6.28,-0.72,-0.73,0.73,0.81,0.78,7.02,7.01,7.01
45.68,6.31,6.31,-0.68,-0.68,0.69,0.78,0.75,6.99,6.99,6.99
46.13,6.33,6.33,-0.64,-0.65,0.65,0.76,0.73,6.98,6.98,6.97
46.60,6.35,6.35,-0.62,-0.61,0.61,0.73,0.71,6.96,6.96,6.96
47.06,6.37,6.37,-0.58,-0.58,0.57,0.71,0.68,6.94,6.94,6.94
47.53,6.39,6.38,-0.54,-0.54,0.54,0.68,0.66,6.92,6.92,6.92
48.01,6.40,6.40,-0.52,-0.51,0.50,0.65,0.64,6.90,6.90,6.91
48.49,6.41,6.41,-0.48,-0.47,0.47,0.62,0.61,6.87,6.88,6.88
48.97,6.42,6.42,-0.43,-0.43,0.43,0.59,0.59,6.85,6.85,6.85
49.46,6.43,6.42,-0.39,-0.40,0.40,0.57,0.57,6.83,6.82,6.82
49.96,6.43,6.43,-0.36,-0.36,0.37,0.54,0.55,6.79,6.80,6.79
50.46,6.44,6.43,-0.34,-0.34,0.34,0.50,0.53,6.78,6.77,6.77
50.96,6.44,6.44,-0.32,-0.31,0.31,0.47,0.51,6.75,6.75,6.75
51.47,6.44,6.44,-0.28,-0.29,0.29,0.44,0.49,6.72,6.73,6.72
51.99,6.44,6.44,-0.26,-0.26,0.26,0.41,0.47,6.70,6.70,6.70
52.51,6.44,6.43,-0.25,-0.24,0.24,0.38,0.45,6.68,6.68,6.68
53.03,6.43,6.43,-0.23,-0.23,0.22,0.35,0.43,6.65,6.65,6.66
53.56,6.43,6.42,-0.21,-0.21,0.21,0.32,0.41,6.63,6.63,6.63
54.10,6.42,6.42,-0.19,-0.19,0.19,0.29,0.40,6.60,6.61,6.61
54.64,6.42,6.41,-0.16,-0.17,0.17,0.27,0.38,6.58,6.58,6.58
55.18,6.41,6.41,-0.15,-0.15,0.15,0.24,0.36,6.55,6.55,6.55
55.74,6.40,6.40,-0.13,-0.13,0.13,0.21,0.34,6.53,6.53,6.53
56.29,6.40,6.39,-0.11,-0.11,0.11,0.19,0.32,6.51,6.50,6.51
56.86,6.39,6.39,-0.10,-0.09,0.10,0.17,0.30,6.48,6.48,6.48
57.42,6.39,6.38,-0.07,-0.07,0.08,0.15,0.28,6.47,6.46,6.45
58.00,6.38,6.38,-0.06,-0.06,0.06,0.13,0.26,6.44,6.44,6.43
58.58,6.37,6.37,-0.05,-0.05,0.05,0.11,0.23,6.41,6.41,6.41
59.16,6.36,6.36,-0.04,-0.04,0.03,0.09,0.21,6.39,6.39,6.39
59.76,6.35,6.35,-0.03,-0.02,0.01,0.07,0.19,6.36,6.36,6.37
60.35,6.35,6.34,0.01,-0.00,-0.00,0.05,0.17,6.34,6.34,6.34
60.96,6.34,6.34,0.02,0.02,-0.02,0.04,0.14,6.31,6.31,6.32
61.57,6.33,6.32,0.05,0.05,-0.04,0.02,0.12,6.28,6.28,6.27
62.18,6.31,6.31,0.06,0.06,-0.06,0.00,0.09,6.24,6.25,6.24
62.80,6.30,6.30,0.08,0.08,-0.08,-0.01,0.06,6.21,6.21,6.22
63.43,6.29,6.29,0.10,0.10,-0.10,-0.03,0.03,6.18,6.18,6.18
64.07,6.28,6.28,0.12,0.12,-0.12,-0.05,0.01,6.16,6.16,6.16
64.71,6.27,6.27,0.14,0.14,-0.14,-0.07,-0.02,6.13,6.13,6.13
65.35,6.26,6.26,0.15,0.15,-0.16,-0.09,-0.06,6.10,6.10,6.10
66.01,6.25,6.25,0.17,0.17,-0.17,-0.11,-0.09,6.07,6.07,6.07
66.67,6.24,6.24,0.19,0.19,-0.19,-0.13,-0.12,6.05,6.05,6.04
67.33,6.23,6.22,0.21,0.21,-0.21,-0.16,-0.16,6.02,6.02,6.01
68.01,6.21,6.21,0.22,0.23,-0.23,-0.18,-0.19,5.98,5.98,5.98
68.69,6.20,6.20,0.24,0.24,-0.25,-0.21,-0.23,5.95,5.95,5.95
69.37,6.19,6.19,0.26,0.26,-0.27,-0.23,-0.26,5.92,5.92,5.92
70.07,6.18,6.18,0.29,0.29,-0.29,-0.26,-0.30,5.89,5.89,5.89
70.77,6.18,6.17,0.31,0.31,-0.31,-0.29,-0.34,5.86,5.86,5.86
71.48,6.17,6.16,0.34,0.34,-0.34,-0.32,-0.38,5.83,5.83,5.83
72.19,6.16,6.16,0.36,0.36,-0.36,-0.35,-0.42,5.79,5.80,5.79
72.91,6.15,6.15,0.39,0.39,-0.39,-0.38,-0.46,5.76,5.76,5.76
73.64,6.15,6.14,0.42,0.42,-0.42,-0.41,-0.51,5.73,5.73,5.72
74.38,6.14,6.14,0.44,0.45,-0.44,-0.44,-0.55,5.69,5.69,5.69
75.12,6.13,6.13,0.47,0.47,-0.47,-0.48,-0.60,5.66,5.66,5.66
75.87,6.13,6.12,0.50,0.49,-0.50,-0.51,-0.64,5.63,5.62,5.63
76.63,6.12,6.12,0.52,0.53,-0.53,-0.55,-0.69,5.59,5.59,5.60
77.40,6.12,6.12,0.55,0.55,-0.55,-0.59,-0.74,5.56,5.56,5.57
78.17,6.12,6.11,0.59,0.58,-0.58,-0.63,-0.79,5.53,5.53,5.52
78.95,6.11,6.11,0.61,0.61,-0.61,-0.67,-0.84,5.50,5.50,5.50
79.74,6.11,6.11,0.64,0.64,-0.64,-0.71,-0.89,5.47,5.47,5.47
80.54,6.11,6.11,0.67,0.67,-0.67,-0.75,-0.94,5.43,5.43,5.43
81.35,6.11,6.11,0.71,0.71,-0.71,-0.79,-0.99,5.40,5.40,5.40
82.16,6.11,6.11,0.74,0.74,-0.74,-0.83,-1.04,5.36,5.36,5.36
82.98,6.11,6.11,0.77,0.78,-0.78,-0.88,-1.10,5.33,5.33,5.34
83.81,6.11,6.11,0.82,0.82,-0.82,-0.92,-1.15,5.29,5.29,5.29
84.65,6.12,6.11,0.86,0.86,-0.85,-0.97,-1.21,5.26,5.26,5.25
85.50,6.12,6.12,0.89,0.90,-0.89,-1.01,-1.27,5.22,5.22,5.22
86.35,6.12,6.12,0.93,0.94,-0.94,-1.06,-1.33,5.18,5.18,5.18
87.22,6.13,6.12,0.98,0.98,-0.98,-1.11,-1.39,5.15,5.15,5.14
88.09,6.13,6.13,1.02,1.02,-1.02,-1.16,-1.45,5.10,5.11,5.10
88.97,6.14,6.13,1.06,1.07,-1.07,-1.21,-1.51,5.07,5.07,5.07
89.86,6.14,6.14,1.10,1.11,-1.11,-1.26,-1.58,5.02,5.02,5.03
90.76,6.15,6.15,1.17,1.16,-1.16,-1.31,-1.64,4.98,4.98,4.98
91.66,6.16,6.16,1.21,1.21,-1.21,-1.36,-1.71,4.94,4.94,4.95
92.58,6.17,6.17,1.27,1.27,-1.26,-1.41,-1.77,4.90,4.90,4.89
93.51,6.18,6.18,1.32,1.32,-1.32,-1.47,-1.84,4.86,4.86,4.86
94.44,6.19,6.19,1.37,1.37,-1.37,-1.52,-1.91,4.81,4.81,4.82
95.39,6.20,6.20,1.42,1.43,-1.43,-1.57,-1.98,4.77,4.77,4.77
96.34,6.21,6.21,1.49,1.49,-1.48,-1.63,-2.05,4.72,4.72,4.72
97.30,6.22,6.22,1.54,1.54,-1.54,-1.68,-2.12,4.67,4.67,4.67
98.28,6.23,6.23,1.60,1.60,-1.60,-1.74,-2.20,4.63,4.63,4.63
99.26,6.24,6.24,1.66,1.66,-1.66,-1.80,-2.27,4.58,4.58,4.58
100.25,6.26,6.25,1.72,1.72,-1.72,-1.85,-2.34,4.54,4.53,4.53
101.25,6.27,6.27,1.78,1.78,-1.78,-1.91,-2.42,4.49,4.49,4.49
102.27,6.29,6.28,1.84,1.84,-1.84,-1.97,-2.49,4.44,4.44,4.44
103.29,6.30,6.30,1.91,1.91,-1.90,-2.03,-2.57,4.39,4.39,4.39
104.32,6.32,6.32,1.97,1.97,-1.97,-2.09,-2.64,4.35,4.35,4.35
105.37,6.34,6.33,2.03,2.03,-2.03,-2.15,-2.71,4.30,4.30,4.30
106.42,6.35,6.35,2.09,2.09,-2.09,-2.21,-2.79,4.25,4.26,4.26
107.48,6.37,6.37,2.16,2.16,-2.16,-2.27,-2.86,4.21,4.21,4.21
108.56,6.39,6.38,2.23,2.22,-2.22,-2.33,-2.93,4.16,4.16,4.15
109.64,6.40,6.40,2.29,2.29,-2.29,-2.39,-3.00,4.11,4.11,4.11
110.74,6.42,6.41,2.35,2.35,-2.35,-2.45,-3.07,4.06,4.06,4.06
111.85,6.43,6.43,2.41,2.41,-2.42,-2.51,-3.13,4.01,4.01,4.02
112.97,6.44,6.44,2.48,2.48,-2.48,-2.57,-3.19,3.95,3.96,3.95
114.10,6.46,6.45,2.55,2.55,-2.55,-2.63,-3.25,3.91,3.90,3.91
115.24,6.47,6.47,2.61,2.62,-2.61,-2.69,-3.31,3.85,3.85,3.85
116.39,6.48,6.48,2.68,2.68,-2.68,-2.75,-3.36,3.80,3.80,3.80
117.55,6.49,6.49,2.74,2.74,-2.74,-2.81,-3.41,3.75,3.75,3.74
118.73,6.50,6.50,2.81,2.80,-2.80,-2.87,-3.46,3.69,3.69,3.69
119.92,6.51,6.51,2.86,2.86,-2.86,-2.93,-3.50,3.64,3.64,3.65
121.12,6.52,6.52,2.92,2.92,-2.92,-2.99,-3.54,3.59,3.59,3.59
122.33,6.53,6.53,2.99,2.98,-2.98,-3.05,-3.57,3.54,3.54,3.54
123.55,6.54,6.54,3.04,3.04,-3.04,-3.11,-3.60,3.49,3.50,3.50
124.79,6.55,6.55,3.10,3.10,-3.10,-3.17,-3.62,3.45,3.45,3.45
126.03,6.56,6.55,3.16,3.16,-3.16,-3.23,-3.65,3.40,3.40,3.40
127.29,6.56,6.56,3.21,3.22,-3.22,-3.29,-3.66,3.34,3.34,3.35
128.57,6.57,6.56,3.28,3.27,-3.27,-3.35,-3.67,3.29,3.29,3.29
129.85,6.57,6.57,3.33,3.33,-3.33,-3.41,-3.67,3.24,3.24,3.24
131.15,6.58,6.57,3.38,3.38,-3.38,-3.47,-3.68,3.20,3.19,3.19
132.46,6.58,6.58,3.43,3.43,-3.43,-3.52,-3.67,3.14,3.15,3.14
133.79,6.59,6.58,3.48,3.48,-3.48,-3.58,-3.67,3.10,3.10,3.11
135.12,6.59,6.59,3.53,3.53,-3.53,-3.63,-3.66,3.05,3.05,3.05
136.48,6.60,6.59,3.58,3.58,-3.58,-3.69,-3.65,3.01,3.01,3.02
137.84,6.60,6.60,3.62,3.63,-3.63,-3.74,-3.63,2.97,2.97,2.97
139.22,6.60,6.60,3.68,3.68,-3.67,-3.80,-3.61,2.92,2.93,2.92
140.61,6.61,6.60,3.73,3.72,-3.72,-3.85,-3.59,2.89,2.89,2.88
142.02,6.61,6.60,3.75,3.76,-3.76,-3.90,-3.57,2.85,2.85,2.85
143.44,6.61,6.61,3.79,3.80,-3.80,-3.95,-3.55,2.81,2.81,2.81
144.87,6.61,6.61,3.83,3.84,-3.84,-4.00,-3.53,2.77,2.77,2.77
146.32,6.62,6.61,3.88,3.88,-3.88,-4.04,-3.50,2.74,2.73,2.73
147.78,6.62,6.62,3.91,3.92,-3.92,-4.09,-3.48,2.70,2.70,2.70
149.26,6.62,6.62,3.95,3.96,-3.96,-4.13,-3.45,2.66,2.66,2.67
150.75,6.63,6.62,4.01,4.00,-4.00,-4.18,-3.43,2.63,2.62,2.62
152.26,6.63,6.63,4.04,4.04,-4.04,-4.22,-3.40,2.59,2.58,2.58
153.78,6.63,6.63,4.08,4.08,-4.08,-4.26,-3.38,2.54,2.54,2.55
155.32,6.63,6.63,4.12,4.12,-4.12,-4.30,-3.36,2.50,2.50,2.50
156.88,6.63,6.63,4.16,4.16,-4.16,-4.33,-3.34,2.46,2.46,2.47
158.44,6.63,6.63,4.20,4.20,-4.20,-4.37,-3.32,2.42,2.42,2.42
160.03,6.63,6.63,4.24,4.24,-4.24,-4.40,-3.30,2.38,2.38,2.38
161.63,6.63,6.62,4.28,4.28,-4.28,-4.43,-3.29,2.35,2.35,2.34
163.24,6.62,6.62,4.32,4.32,-4.31,-4.46,-3.28,2.30,2.31,2.30
164.88,6.62,6.61,4.35,4.35,-4.34,-4.48,-3.27,2.27,2.27,2.27
166.53,6.61,6.61,4.37,4.37,-4.38,-4.51,-3.26,2.23,2.23,2.23
168.19,6.60,6.60,4.40,4.40,-4.40,-4.53,-3.25,2.19,2.19,2.19
169.87,6.59,6.59,4.43,4.43,-4.43,-4.55,-3.25,2.15,2.15,2.16
171.57,6.58,6.58,4.46,4.46,-4.46,-4.57,-3.25,2.12,2.12,2.12
173.29,6.57,6.57,4.48,4.48,-4.49,-4.58,-3.25,2.08,2.08,2.08
175.02,6.56,6.55,4.51,4.51,-4.51,-4.59,-3.25,2.04,2.04,2.05
176.77,6.54,6.54,4.53,4.54,-4.54,-4.60,-3.26,2.00,2.00,2.00
178.54,6.53,6.52,4.57,4.56,-4.56,-4.61,-3.27,1.97,1.97,1.96
180.32,6.51,6.51,4.58,4.58,-4.58,-4.62,-3.28,1.93,1.93,1.93
182.13,6.49,6.48,4.59,4.60,-4.59,-4.62,-3.29,1.89,1.89,1.89
183.95,6.46,6.46,4.61,4.61,-4.61,-4.62,-3.31,1.85,1.85,1.85
185.79,6.44,6.43,4.62,4.62,-4.62,-4.61,-3.33,1.82,1.82,1.82
187.65,6.41,6.41,4.63,4.63,-4.62,-4.61,-3.35,1.78,1.78,1.78
189.52,6.38,6.38,4.63,4.63,-4.63,-4.60,-3.38,1.75,1.75,1.75
191.42,6.35,6.34,4.63,4.63,-4.63,-4.59,-3.40,1.72,1.72,1.72
193.33,6.31,6.31,4.62,4.62,-4.62,-4.57,-3.43,1.68,1.69,1.69
195.27,6.28,6.27,4.61,4.61,-4.61,-4.55,-3.46,1.66,1.66,1.66
197.22,6.24,6.24,4.60,4.60,-4.60,-4.53,-3.49,1.63,1.63,1.63
199.19,6.20,6.19,4.60,4.59,-4.59,-4.51,-3.53,1.61,1.61,1.60
201.18,6.15,6.15,4.57,4.57,-4.57,-4.48,-3.56,1.58,1.58,1.58
203.19,6.11,6.10,4.54,4.54,-4.55,-4.45,-3.60,1.56,1.56,1.56
205.23,6.06,6.06,4.52,4.51,-4.52,-4.42,-3.63,1.54,1.54,1.54
207.28,6.02,6.01,4.48,4.49,-4.49,-4.39,-3.67,1.53,1.53,1.53
209.35,5.97,5.97,4.46,4.46,-4.45,-4.35,-3.71,1.51,1.51,1.51
211.44,5.92,5.91,4.43,4.42,-4.42,-4.31,-3.74,1.50,1.50,1.48
213.56,5.86,5.86,4.38,4.38,-4.38,-4.27,-3.78,1.48,1.48,1.48
215.69,5.81,5.81,4.33,4.33,-4.34,-4.22,-3.82,1.47,1.47,1.48
217.85,5.76,5.76,4.29,4.29,-4.30,-4.17,-3.85,1.46,1.46,1.47
220.03,5.71,5.71,4.25,4.25,-4.25,-4.12,-3.88,1.46,1.46,1.45
222.23,5.66,5.65,4.22,4.21,-4.20,-4.07,-3.91,1.46,1.45,1.44
224.45,5.60,5.60,4.15,4.16,-4.15,-4.01,-3.94,1.45,1.45,1.45
226.70,5.55,5.55,4.10,4.10,-4.10,-3.96,-3.96,1.45,1.45,1.45
228.96,5.50,5.49,4.05,4.04,-4.05,-3.90,-3.98,1.45,1.45,1.45
231.25,5.44,5.44,3.98,3.99,-3.99,-3.83,-4.00,1.45,1.45,1.46
233.57,5.39,5.38,3.93,3.93,-3.93,-3.77,-4.01,1.45,1.45,1.46
235.90,5.33,5.33,3.87,3.87,-3.87,-3.70,-4.01,1.45,1.46,1.46
238.26,5.28,5.27,3.82,3.81,-3.81,-3.64,-4.02,1.47,1.47,1.46
240.64,5.22,5.22,3.75,3.75,-3.74,-3.56,-4.01,1.47,1.47,1.47
243.05,5.16,5.16,3.68,3.68,-3.68,-3.49,-4.00,1.48,1.48,1.48
245.48,5.10,5.10,3.60,3.61,-3.61,-3.42,-3.98,1.49,1.49,1.49
247.93,5.04,5.03,3.53,3.53,-3.53,-3.34,-3.95,1.50,1.50,1.50
250.41,4.97,4.97,3.46,3.46,-3.46,-3.27,-3.92,1.51,1.51,1.51
252.92,4.91,4.90,3.38,3.38,-3.38,-3.19,-3.88,1.53,1.53,1.53
255.45,4.84,4.84,3.29,3.29,-3.29,-3.11,-3.84,1.54,1.54,1.55
258.00,4.78,4.77,3.21,3.21,-3.21,-3.03,-3.79,1.56,1.56,1.56
260.58,4.71,4.70,3.13,3.12,-3.13,-2.94,-3.73,1.58,1.58,1.58
263.19,4.64,4.64,3.04,3.04,-3.04,-2.86,-3.66,1.60,1.60,1.60
265.82,4.57,4.57,2.95,2.95,-2.95,-2.77,-3.59,1.61,1.62,1.61
268.48,4.51,4.50,2.87,2.86,-2.86,-2.69,-3.51,1.64,1.64,1.64
271.16,4.44,4.43,2.77,2.77,-2.77,-2.60,-3.43,1.66,1.66,1.66
273.87,4.36,4.36,2.68,2.68,-2.68,-2.51,-3.34,1.67,1.68,1.68
276.61,4.29,4.29,2.58,2.59,-2.59,-2.42,-3.25,1.69,1.69,1.70
279.38,4.22,4.22,2.50,2.50,-2.50,-2.33,-3.15,1.72,1.72,1.72
282.17,4.15,4.14,2.42,2.41,-2.41,-2.24,-3.05,1.74,1.74,1.73
284.99,4.07,4.07,2.31,2.31,-2.31,-2.15,-2.94,1.76,1.76,1.76
287.84,3.99,3.99,2.21,2.21,-2.21,-2.05,-2.84,1.77,1.77,1.77
290.72,3.91,3.91,2.11,2.11,-2.12,-1.96,-2.73,1.79,1.79,1.80
293.63,3.83,3.83,2.01,2.01,-2.02,-1.87,-2.61,1.81,1.81,1.81
296.57,3.75,3.75,1.91,1.91,-1.91,-1.77,-2.50,1.83,1.84,1.84
299.53,3.67,3.66,1.81,1.81,-1.80,-1.68,-2.38,1.86,1.86,1.85
302.53,3.58,3.58,1.71,1.70,-1.70,-1.58,-2.26,1.88,1.88,1.87
305.55,3.49,3.49,1.58,1.59,-1.59,-1.49,-2.14,1.90,1.90,1.91
308.61,3.40,3.40,1.47,1.47,-1.47,-1.39,-2.02,1.92,1.93,1.92
311.69,3.32,3.31,1.37,1.36,-1.36,-1.30,-1.90,1.96,1.95,1.95
314.81,3.22,3.22,1.23,1.24,-1.24,-1.20,-1.78,1.97,1.98,1.99
317.96,3.13,3.13,1.12,1.13,-1.13,-1.10,-1.65,2.00,2.00,2.00
321.14,3.04,3.03,1.02,1.01,-1.01,-1.01,-1.53,2.02,2.02,2.02
324.35,2.94,2.94,0.90,0.90,-0.90,-0.91,-1.41,2.04,2.04,2.04
327.59,2.85,2.84,0.78,0.78,-0.78,-0.82,-1.29,2.06,2.06,2.06
330.87,2.75,2.75,0.67,0.67,-0.67,-0.72,-1.16,2.08,2.08,2.08
334.18,2.65,2.65,0.55,0.55,-0.55,-0.62,-1.04,2.10,2.10,2.10
337.52,2.56,2.55,0.44,0.43,-0.43,-0.53,-0.92,2.12,2.12,2.11
340.90,2.46,2.46,0.31,0.32,-0.32,-0.43,-0.79,2.14,2.14,2.14
344.30,2.36,2.36,0.20,0.20,-0.20,-0.34,-0.67,2.16,2.16,2.16
347.75,2.26,2.26,0.08,0.08,-0.08,-0.24,-0.55,2.18,2.18,2.18
351.23,2.16,2.16,-0.04,-0.04,0.04,-0.15,-0.43,2.19,2.20,2.20
354.74,2.07,2.06,-0.15,-0.15,0.15,-0.05,-0.31,2.22,2.21,2.21
358.28,1.96,1.96,-0.27,-0.27,0.27,0.04,-0.19,2.22,2.23,2.23
361.87,1.87,1.86,-0.38,-0.38,0.38,0.13,-0.07,2.25,2.24,2.25
365.49,1.77,1.77,-0.49,-0.49,0.49,0.23,0.05,2.26,2.26,2.26
369.14,1.68,1.67,-0.59,-0.60,0.60,0.32,0.17,2.27,2.27,2.27
372.83,1.58,1.58,-0.71,-0.70,0.70,0.41,0.29,2.28,2.28,2.28
376.56,1.49,1.49,-0.81,-0.81,0.81,0.50,0.41,2.29,2.30,2.29
380.33,1.41,1.40,-0.91,-0.91,0.91,0.59,0.53,2.31,2.31,2.32
384.13,1.32,1.32,-1.01,-1.01,1.01,0.68,0.65,2.32,2.32,2.33
387.97,1.24,1.24,-1.10,-1.10,1.10,0.77,0.77,2.34,2.34,2.34
391.85,1.16,1.15,-1.19,-1.19,1.19,0.86,0.89,2.35,2.35,2.35
395.77,1.08,1.08,-1.29,-1.28,1.28,0.95,1.00,2.36,2.36,2.36
399.73,1.00,1.00,-1.38,-1.37,1.37,1.03,1.12,2.37,2.37,2.37
403.72,0.93,0.93,-1.45,-1.46,1.46,1.12,1.24,2.38,2.38,2.38
407.76,0.86,0.86,-1.53,-1.54,1.54,1.21,1.35,2.40,2.40,2.39
411.84,0.79,0.79,-1.62,-1.62,1.62,1.29,1.46,2.41,2.41,2.41
415.96,0.72,0.72,-1.70,-1.70,1.70,1.37,1.57,2.42,2.42,2.42
420.12,0.65,0.65,-1.78,-1.78,1.78,1.46,1.69,2.43,2.42,2.43
424.32,0.58,0.58,-1.86,-1.86,1.85,1.54,1.79,2.43,2.43,2.43
428.56,0.52,0.51,-1.93,-1.93,1.93,1.62,1.90,2.44,2.44,2.44
432.85,0.46,0.45,-2.00,-2.00,2.00,1.70,2.00,2.45,2.45,2.45
437.18,0.40,0.40,-2.07,-2.07,2.07,1.78,2.11,2.46,2.47,2.46
441.55,0.35,0.34,-2.13,-2.13,2.13,1.85,2.20,2.48,2.48,2.48
445.96,0.30,0.29,-2.19,-2.20,2.20,1.93,2.30,2.49,2.49,2.49
450.42,0.25,0.25,-2.25,-2.25,2.26,2.00,2.39,2.50,2.50,2.50
454.93,0.21,0.20,-2.31,-2.31,2.31,2.08,2.48,2.52,2.52,2.52
459.48,0.17,0.17,-2.36,-2.37,2.36,2.15,2.56,2.53,2.53,2.53
464.07,0.13,0.13,-2.42,-2.42,2.41,2.22,2.64,2.54,2.54,2.55
468.71,0.11,0.10,-2.46,-2.46,2.46,2.29,2.72,2.56,2.56,2.57
473.40,0.08,0.08,-2.50,-2.50,2.50,2.36,2.79,2.57,2.57,2.57
478.13,0.06,0.06,-2.54,-2.53,2.53,2.42,2.85,2.59,2.59,2.59
482.91,0.05,0.04,-2.56,-2.56,2.56,2.49,2.91,2.61,2.61,2.60
487.74,0.04,0.03,-2.59,-2.59,2.59,2.55,2.97,2.62,2.62,2.62
492.62,0.03,0.03,-2.62,-2.61,2.61,2.61,3.01,2.64,2.64,2.64
497.55,0.03,0.03,-2.63,-2.63,2.63,2.67,3.06,2.65,2.65,2.65
502.52,0.03,0.03,-2.64,-2.64,2.64,2.73,3.09,2.67,2.67,2.67
507.55,0.03,0.03,-2.65,-2.66,2.66,2.79,3.12,2.69,2.68,2.68
512.62,0.03,0.03,-2.67,-2.67,2.67,2.84,3.15,2.70,2.70,2.70
517.75,0.03,0.03,-2.69,-2.69,2.69,2.90,3.17,2.71,2.72,2.72
522.93,0.04,0.03,-2.70,-2.70,2.70,2.95,3.18,2.74,2.74,2.74
528.16,0.04,0.04,-2.71,-2.72,2.72,3.00,3.19,2.76,2.75,2.75
533.44,0.04,0.04,-2.73,-2.73,2.74,3.05,3.19,2.77,2.77,2.77
538.77,0.04,0.04,-2.75,-2.75,2.75,3.10,3.19,2.79,2.79,2.79
544.16,0.04,0.04,-2.77,-2.77,2.77,3.14,3.19,2.80,2.80,2.81
549.60,0.04,0.04,-2.79,-2.79,2.78,3.19,3.18,2.82,2.82,2.83
555.10,0.04,0.04,-2.80,-2.80,2.80,3.23,3.17,2.84,2.84,2.84
560.65,0.04,0.04,-2.82,-2.82,2.82,3.27,3.15,2.85,2.85,2.86
