frequency,raw,smoothed,error,error_smoothed,equalization,parametric_eq,fixed_band_eq,equalized_raw,equalized_smoothed,target
20.00,-11.76,-11.76,-17.51,-17.51,6.00,6.05,2.64,-5.76,-5.76,5.75
20.20,-11.67,-11.67,-17.42,-17.42,6.00,6.05,2.72,-5.67,-5.67,5.75
20.40,-11.58,-11.58,-17.33,-17.33,6.00,6.05,2.79,-5.58,-5.58,5.75
20.61,-11.49,-11.49,-17.24,-17.24,6.00,6.05,2.87,-5.49,-5.49,5.75
20.81,-11.40,-11.40,-17.15,-17.15,6.00,6.05,2.95,-5.40,-5.40,5.75
21.02,-11.30,-11.30,-17.05,-17.05,6.00,6.05,3.04,-5.30,-5.30,5.75
21.23,-11.20,-11.20,-16.95,-16.95,6.00,6.05,3.12,-5.20,-5.20,5.75
21.44,-11.10,-11.10,-16.84,-16.84,6.00,6.05,3.21,-5.10,-5.10,5.74
21.66,-11.00,-11.00,-16.75,-16.74,6.00,6.05,3.30,-5.00,-5.00,5.74
21.87,-10.90,-10.90,-16.64,-16.65,6.00,6.05,3.40,-4.90,-4.90,5.74
22.09,-10.81,-10.81,-16.55,-16.55,6.00,6.05,3.50,-4.81,-4.81,5.74
22.31,-10.72,-10.72,-16.46,-16.46,6.00,6.05,3.60,-4.72,-4.72,5.74
22.54,-10.64,-10.64,-16.38,-16.38,6.00,6.05,3.70,-4.64,-4.64,5.74
22.76,-10.57,-10.57,-16.31,-16.31,6.00,6.05,3.80,-4.57,-4.57,5.74
22.99,-10.51,-10.51,-16.25,-16.25,6.00,6.05,3.91,-4.51,-4.51,5.74
23.22,-10.46,-10.46,-16.20,-16.20,6.00,6.05,4.02,-4.46,-4.46,5.74
23.45,-10.41,-10.41,-16.15,-16.15,6.00,6.05,4.13,-4.41,-4.41,5.74
23.69,-10.36,-10.36,-16.10,-16.10,6.00,6.05,4.24,-4.36,-4.36,5.74
23.92,-10.31,-10.31,-16.04,-16.04,6.00,6.05,4.36,-4.31,-4.31,5.73
24.16,-10.25,-10.26,-15.98,-15.99,6.00,6.05,4.48,-4.25,-4.26,5.73
24.40,-10.20,-10.20,-15.93,-15.93,6.00,6.05,4.60,-4.20,-4.20,5.73
24.65,-10.13,-10.13,-15.86,-15.86,6.00,6.05,4.72,-4.13,-4.13,5.73
24.89,-10.06,-10.06,-15.79,-15.79,6.00,6.05,4.85,-4.06,-4.06,5.73
25.14,-9.98,-9.98,-15.71,-15.71,6.00,6.05,4.97,-3.98,-3.98,5.73
25.39,-9.90,-9.90,-15.63,-15.63,6.00,6.05,5.10,-3.90,-3.90,5.73
25.65,-9.82,-9.82,-15.55,-15.55,6.00,6.04,5.23,-3.82,-3.82,5.72
25.91,-9.74,-9.74,-15.47,-15.47,6.00,6.04,5.35,-3.74,-3.74,5.72
26.16,-9.66,-9.66,-15.38,-15.38,6.00,6.04,5.48,-3.66,-3.66,5.72
26.43,-9.58,-9.58,-15.30,-15.30,6.00,6.04,5.61,-3.58,-3.58,5.72
26.69,-9.50,-9.50,-15.22,-15.22,6.00,6.04,5.74,-3.50,-3.50,5.72
26.96,-9.42,-9.42,-15.14,-15.14,6.00,6.04,5.86,-3.42,-3.42,5.72
27.23,-9.34,-9.34,-15.06,-15.06,6.00,6.04,5.99,-3.34,-3.34,5.71
27.50,-9.27,-9.27,-14.98,-14.99,6.00,6.04,6.11,-3.27,-3.27,5.71
27.77,-9.20,-9.20,-14.91,-14.91,6.00,6.04,6.23,-3.20,-3.20,5.71
28.05,-9.13,-9.13,-14.84,-14.84,6.00,6.04,6.34,-3.13,-3.13,5.71
28.33,-9.05,-9.05,-14.76,-14.76,6.00,6.04,6.45,-3.05,-3.05,5.71
28.62,-8.97,-8.98,-14.68,-14.68,6.00,6.04,6.56,-2.97,-2.98,5.70
28.90,-8.90,-8.90,-14.60,-14.60,6.00,6.04,6.65,-2.90,-2.90,5.70
29.19,-8.82,-8.82,-14.52,-14.52,6.00,6.04,6.75,-2.82,-2.82,5.70
29.48,-8.75,-8.75,-14.45,-14.45,6.00,6.04,6.83,-2.75,-2.75,5.70
29.78,-8.68,-8.68,-14.38,-14.38,6.00,6.04,6.91,-2.68,-2.68,5.70
30.08,-8.61,-8.62,-14.31,-14.31,6.00,6.04,6.97,-2.61,-2.62,5.69
30.38,-8.55,-8.55,-14.24,-14.24,6.00,6.04,7.03,-2.55,-2.55,5.69
30.68,-8.49,-8.49,-14.18,-14.18,6.00,6.04,7.08,-2.49,-2.49,5.69
30.99,-8.43,-8.43,-14.12,-14.11,6.00,6.04,7.13,-2.43,-2.43,5.68
31.30,-8.36,-8.37,-14.04,-14.05,6.00,6.04,7.15,-2.36,-2.37,5.68
31.61,-8.30,-8.30,-13.98,-13.98,6.00,6.04,7.18,-2.30,-2.30,5.68
31.93,-8.23,-8.23,-13.91,-13.90,6.00,6.04,7.19,-2.23,-2.23,5.67
32.24,-8.16,-8.16,-13.83,-13.84,6.00,6.04,7.19,-2.16,-2.16,5.67
32.57,-8.10,-8.10,-13.77,-13.77,6.00,6.04,7.18,-2.10,-2.10,5.67
32.89,-8.05,-8.05,-13.72,-13.71,6.00,6.04,7.17,-2.05,-2.05,5.66
33.22,-8.00,-8.00,-13.66,-13.66,6.00,6.04,7.15,-2.00,-2.00,5.66
33.55,-7.95,-7.95,-13.61,-13.61,6.00,6.04,7.12,-1.95,-1.95,5.66
33.89,-7.90,-7.90,-13.55,-13.55,6.00,6.03,7.08,-1.90,-1.90,5.65
34.23,-7.85,-7.85,-13.50,-13.50,6.00,6.03,7.04,-1.85,-1.85,5.65
34.57,-7.79,-7.79,-13.44,-13.44,6.00,6.03,6.99,-1.79,-1.79,5.64
34.92,-7.73,-7.73,-13.37,-13.37,6.00,6.03,6.94,-1.73,-1.73,5.64
35.27,-7.66,-7.67,-13.30,-13.30,6.00,6.03,6.88,-1.66,-1.67,5.63
35.62,-7.60,-7.60,-13.23,-13.23,6.00,6.03,6.83,-1.60,-1.60,5.63
35.97,-7.54,-7.54,-13.17,-13.17,6.00,6.03,6.77,-1.54,-1.54,5.62
36.33,-7.48,-7.48,-13.10,-13.10,6.00,6.03,6.70,-1.48,-1.48,5.62
36.70,-7.42,-7.42,-13.04,-13.04,6.00,6.03,6.64,-1.42,-1.42,5.61
37.06,-7.36,-7.36,-12.97,-12.97,6.00,6.03,6.58,-1.36,-1.36,5.61
37.43,-7.31,-7.31,-12.91,-12.91,6.00,6.03,6.51,-1.31,-1.31,5.60
37.81,-7.25,-7.25,-12.85,-12.85,6.00,6.02,6.45,-1.25,-1.25,5.60
38.19,-7.19,-7.19,-12.78,-12.78,6.00,6.02,6.39,-1.19,-1.19,5.59
38.57,-7.13,-7.13,-12.72,-12.72,6.00,6.02,6.33,-1.13,-1.13,5.58
38.95,-7.07,-7.07,-12.65,-12.65,6.00,6.02,6.27,-1.07,-1.07,5.58
39.34,-7.01,-7.01,-12.58,-12.58,6.00,6.02,6.22,-1.01,-1.01,5.57
39.74,-6.94,-6.95,-12.50,-12.51,6.00,6.02,6.17,-0.94,-0.95,5.56
40.14,-6.89,-6.89,-12.45,-12.45,6.00,6.02,6.12,-0.89,-0.89,5.55
40.54,-6.84,-6.84,-12.39,-12.39,6.00,6.02,6.07,-0.84,-0.84,5.55
40.94,-6.79,-6.79,-12.33,-12.33,6.00,6.01,6.03,-0.79,-0.79,5.54
41.35,-6.74,-6.74,-12.27,-12.27,6.00,6.01,5.99,-0.74,-0.74,5.53
41.76,-6.69,-6.69,-12.21,-12.21,6.00,6.01,5.96,-0.69,-0.69,5.52
42.18,-6.63,-6.63,-12.14,-12.15,6.00,6.01,5.93,-0.63,-0.63,5.51
42.60,-6.58,-6.58,-12.08,-12.08,6.00,6.01,5.91,-0.58,-0.58,5.50
43.03,-6.52,-6.52,-12.01,-12.01,6.00,6.01,5.88,-0.52,-0.52,5.49
43.46,-6.46,-6.46,-11.94,-11.95,6.00,6.00,5.87,-0.46,-0.46,5.48
43.90,-6.40,-6.40,-11.87,-11.88,6.00,6.00,5.86,-0.40,-0.40,5.47
44.33,-6.35,-6.35,-11.81,-11.81,6.00,6.00,5.85,-0.35,-0.35,5.46
44.78,-6.29,-6.29,-11.74,-11.75,6.00,6.00,5.85,-0.29,-0.29,5.45
45.23,-6.24,-6.24,-11.68,-11.68,6.00,6.00,5.85,-0.24,-0.24,5.44
45.68,-6.20,-6.20,-11.63,-11.62,6.00,5.99,5.85,-0.20,-0.20,5.43
46.13,-6.15,-6.15,-11.57,-11.57,6.00,5.99,5.86,-0.15,-0.15,5.41
46.60,-6.11,-6.11,-11.51,-11.52,6.00,5.99,5.88,-0.11,-0.11,5.40
47.06,-6.07,-6.07,-11.46,-11.46,6.00,5.99,5.89,-0.07,-0.07,5.39
47.53,-6.03,-6.03,-11.41,-11.40,6.00,5.99,5.92,-0.03,-0.03,5.37
48.01,-5.97,-5.97,-11.33,-11.34,6.00,5.98,5.94,0.03,0.03,5.36
48.49,-5.92,-5.92,-11.27,-11.27,6.00,5.98,5.97,0.08,0.08,5.35
48.97,-5.86,-5.86,-11.19,-11.19,6.00,5.98,6.01,0.14,0.14,5.33
49.46,-5.81,-5.81,-11.13,-11.12,6.00,5.98,6.04,0.19,0.19,5.31
49.96,-5.75,-5.75,-11.05,-11.05,6.00,5.97,6.08,0.25,0.25,5.30
50.46,-5.70,-5.70,-10.98,-10.98,6.00,5.97,6.13,0.30,0.30,5.28
50.96,-5.65,-5.65,-10.91,-10.91,6.00,5.97,6.17,0.35,0.35,5.26
51.47,-5.59,-5.60,-10.84,-10.84,6.00,5.97,6.22,0.41,0.40,5.25
51.99,-5.55,-5.55,-10.78,-10.78,6.00,5.97,6.27,0.45,0.45,5.23
52.51,-5.50,-5.50,-10.71,-10.71,6.00,5.96,6.32,0.50,0.50,5.21
53.03,-5.46,-5.46,-10.65,-10.65,6.00,5.96,6.37,0.54,0.54,5.19
53.56,-5.41,-5.41,-10.58,-10.58,6.00,5.96,6.42,0.59,0.59,5.17
54.10,-5.36,-5.36,-10.51,-10.51,6.00,5.96,6.47,0.64,0.64,5.15
54.64,-5.32,-5.32,-10.45,-10.44,6.00,5.95,6.52,0.68,0.68,5.12
55.18,-5.27,-5.27,-10.37,-10.37,6.00,5.95,6.57,0.73,0.73,5.10
55.74,-5.23,-5.23,-10.31,-10.31,6.00,5.95,6.62,0.77,0.77,5.08
56.29,-5.18,-5.18,-10.23,-10.24,6.00,5.95,6.67,0.82,0.82,5.05
56.86,-5.14,-5.14,-10.17,-10.17,6.00,5.95,6.71,0.86,0.86,5.03
57.42,-5.09,-5.09,-10.09,-10.09,6.00,5.95,6.74,0.91,0.91,5.00
58.00,-5.04,-5.04,-10.02,-10.02,6.00,5.95,6.78,0.96,0.96,4.98
58.58,-4.99,-5.00,-9.94,-9.94,6.00,5.94,6.80,1.01,1.00,4.95
59.16,-4.95,-4.95,-9.87,-9.87,6.00,5.94,6.83,1.05,1.05,4.92
59.76,-4.91,-4.91,-9.80,-9.80,6.00,5.94,6.84,1.09,1.09,4.89
60.35,-4.86,-4.86,-9.72,-9.73,6.00,5.94,6.85,1.14,1.14,4.86
60.96,-4.82,-4.82,-9.65,-9.66,6.00,5.94,6.85,1.18,1.18,4.83
61.57,-4.78,-4.78,-9.58,-9.58,6.00,5.94,6.85,1.22,1.22,4.80
62.18,-4.74,-4.74,-9.51,-9.51,6.00,5.94,6.83,1.26,1.26,4.77
62.80,-4.69,-4.70,-9.43,-9.43,6.00,5.94,6.81,1.31,1.30,4.74
63.43,-4.65,-4.65,-9.35,-9.35,6.00,5.94,6.79,1.35,1.35,4.70
64.07,-4.60,-4.60,-9.27,-9.27,6.00,5.95,6.75,1.40,1.40,4.67
64.71,-4.55,-4.56,-9.18,-9.19,6.00,5.95,6.71,1.45,1.44,4.63
65.35,-4.51,-4.51,-9.10,-9.10,6.00,5.95,6.66,1.49,1.49,4.59
66.01,-4.46,-4.46,-9.02,-9.01,6.00,5.95,6.60,1.54,1.54,4.55
66.67,-4.41,-4.42,-8.93,-8.93,6.00,5.95,6.53,1.59,1.58,4.52
67.33,-4.37,-4.37,-8.85,-8.85,6.00,5.96,6.46,1.63,1.63,4.48
68.01,-4.33,-4.33,-8.77,-8.77,6.00,5.96,6.39,1.67,1.67,4.43
68.69,-4.29,-4.29,-8.68,-8.68,6.00,5.97,6.31,1.71,1.71,4.39
69.37,-4.25,-4.25,-8.60,-8.60,6.00,5.97,6.22,1.75,1.75,4.35
70.07,-4.20,-4.20,-8.51,-8.51,6.00,5.98,6.13,1.80,1.80,4.31
70.77,-4.16,-4.16,-8.42,-8.42,6.00,5.98,6.04,1.84,1.84,4.26
71.48,-4.11,-4.11,-8.33,-8.33,6.00,5.99,5.95,1.89,1.89,4.21
72.19,-4.07,-4.07,-8.24,-8.24,6.00,5.99,5.85,1.93,1.93,4.17
72.91,-4.03,-4.03,-8.15,-8.15,6.00,6.00,5.76,1.97,1.97,4.12
73.64,-3.99,-3.99,-8.06,-8.06,6.00,6.01,5.66,2.01,2.01,4.07
74.38,-3.95,-3.95,-7.97,-7.97,6.00,6.01,5.56,2.05,2.05,4.02
75.12,-3.91,-3.91,-7.88,-7.88,6.00,6.02,5.46,2.09,2.09,3.97
75.87,-3.86,-3.86,-7.78,-7.78,6.00,6.03,5.36,2.14,2.14,3.92
76.63,-3.82,-3.82,-7.68,-7.68,6.00,6.03,5.27,2.18,2.18,3.86
77.40,-3.78,-3.78,-7.59,-7.59,6.00,6.04,5.17,2.22,2.22,3.81
78.17,-3.74,-3.74,-7.49,-7.49,6.00,6.04,5.08,2.26,2.26,3.75
78.95,-3.69,-3.70,-7.39,-7.39,6.00,6.04,4.99,2.31,2.30,3.70
79.74,-3.65,-3.65,-7.29,-7.29,6.00,6.05,4.89,2.35,2.35,3.64
80.54,-3.61,-3.61,-7.19,-7.19,6.00,6.05,4.81,2.39,2.39,3.58
81.35,-3.56,-3.56,-7.08,-7.09,6.00,6.04,4.72,2.44,2.44,3.52
82.16,-3.52,-3.52,-6.98,-6.98,6.00,6.04,4.64,2.48,2.48,3.46
82.98,-3.48,-3.48,-6.88,-6.88,6.00,6.03,4.56,2.52,2.52,3.40
83.81,-3.44,-3.44,-6.78,-6.78,6.00,6.02,4.48,2.56,2.56,3.34
84.65,-3.40,-3.40,-6.68,-6.68,6.00,6.01,4.41,2.60,2.60,3.28
85.50,-3.37,-3.37,-6.58,-6.58,6.01,5.99,4.34,2.64,2.64,3.21
86.35,-3.33,-3.33,-6.48,-6.48,6.02,5.97,4.27,2.69,2.69,3.15
87.22,-3.29,-3.29,-6.37,-6.37,6.02,5.95,4.21,2.73,2.73,3.08
88.09,-3.25,-3.25,-6.27,-6.27,6.01,5.92,4.15,2.76,2.76,3.02
88.97,-3.21,-3.21,-6.16,-6.16,5.99,5.88,4.09,2.78,2.78,2.95
89.86,-3.17,-3.17,-6.05,-6.05,5.95,5.84,4.03,2.78,2.78,2.88
90.76,-3.13,-3.13,-5.95,-5.95,5.90,5.79,3.98,2.77,2.77,2.81
91.66,-3.09,-3.09,-5.84,-5.84,5.83,5.74,3.93,2.74,2.73,2.75
92.58,-3.06,-3.06,-5.74,-5.73,5.74,5.68,3.89,2.68,2.68,2.68
93.51,-3.02,-3.02,-5.63,-5.63,5.64,5.61,3.85,2.62,2.62,2.61
94.44,-2.98,-2.98,-5.52,-5.52,5.53,5.54,3.81,2.55,2.55,2.54
95.39,-2.94,-2.94,-5.41,-5.41,5.42,5.47,3.77,2.48,2.48,2.47
96.34,-2.90,-2.90,-5.30,-5.30,5.30,5.38,3.73,2.40,2.40,2.39
97.30,-2.86,-2.86,-5.18,-5.18,5.19,5.29,3.70,2.32,2.33,2.32
98.28,-2.82,-2.82,-5.07,-5.07,5.08,5.20,3.67,2.25,2.25,2.25
99.26,-2.78,-2.78,-4.96,-4.96,4.96,5.10,3.64,2.18,2.18,2.18
100.25,-2.75,-2.75,-4.86,-4.85,4.85,5.00,3.62,2.10,2.10,2.11
101.25,-2.71,-2.71,-4.75,-4.74,4.74,4.89,3.60,2.03,2.03,2.03
102.27,-2.67,-2.67,-4.63,-4.63,4.63,4.78,3.57,1.96,1.96,1.96
103.29,-2.63,-2.63,-4.52,-4.52,4.52,4.67,3.55,1.89,1.89,1.89
104.32,-2.60,-2.60,-4.42,-4.41,4.42,4.55,3.53,1.81,1.82,1.81
105.37,-2.56,-2.56,-4.30,-4.31,4.31,4.44,3.51,1.74,1.74,1.74
106.42,-2.53,-2.53,-4.20,-4.20,4.20,4.32,3.50,1.67,1.67,1.67
107.48,-2.49,-2.49,-4.09,-4.09,4.09,4.20,3.48,1.60,1.59,1.60
108.56,-2.46,-2.46,-3.98,-3.98,3.98,4.07,3.46,1.52,1.52,1.52
109.64,-2.42,-2.42,-3.87,-3.87,3.87,3.95,3.44,1.45,1.45,1.45
110.74,-2.38,-2.38,-3.76,-3.76,3.76,3.83,3.43,1.38,1.38,1.38
111.85,-2.34,-2.34,-3.65,-3.65,3.65,3.70,3.41,1.31,1.31,1.31
112.97,-2.31,-2.31,-3.54,-3.54,3.54,3.58,3.39,1.23,1.24,1.23
114.10,-2.27,-2.27,-3.43,-3.44,3.44,3.46,3.37,1.17,1.16,1.16
115.24,-2.24,-2.24,-3.33,-3.33,3.33,3.34,3.34,1.09,1.09,1.09
116.39,-2.21,-2.21,-3.23,-3.23,3.23,3.22,3.32,1.02,1.02,1.02
117.55,-2.18,-2.18,-3.13,-3.13,3.13,3.10,3.29,0.94,0.95,0.95
118.73,-2.14,-2.14,-3.02,-3.02,3.02,2.98,3.26,0.88,0.88,0.88
119.92,-2.11,-2.11,-2.92,-2.92,2.92,2.86,3.23,0.81,0.81,0.81
121.12,-2.08,-2.08,-2.82,-2.82,2.82,2.75,3.19,0.74,0.74,0.74
122.33,-2.05,-2.05,-2.72,-2.72,2.72,2.63,3.15,0.67,0.67,0.67
123.55,-2.01,-2.01,-2.62,-2.62,2.62,2.52,3.11,0.61,0.60,0.61
124.79,-1.98,-1.98,-2.52,-2.52,2.52,2.41,3.06,0.54,0.54,0.54
126.03,-1.94,-1.94,-2.41,-2.42,2.42,2.30,3.01,0.47,0.47,0.47
127.29,-1.91,-1.91,-2.32,-2.32,2.32,2.19,2.96,0.40,0.41,0.41
128.57,-1.87,-1.87,-2.21,-2.22,2.22,2.09,2.90,0.34,0.34,0.34
129.85,-1.84,-1.84,-2.12,-2.12,2.12,1.98,2.84,0.28,0.28,0.28
131.15,-1.80,-1.80,-2.02,-2.02,2.02,1.88,2.78,0.22,0.22,0.22
132.46,-1.77,-1.77,-1.92,-1.92,1.92,1.78,2.71,0.15,0.15,0.15
133.79,-1.73,-1.73,-1.82,-1.83,1.83,1.68,2.64,0.10,0.09,0.09
135.12,-1.70,-1.70,-1.73,-1.73,1.73,1.59,2.56,0.03,0.03,0.03
136.48,-1.67,-1.67,-1.64,-1.64,1.64,1.49,2.49,-0.03,-0.03,-0.03
137.84,-1.63,-1.63,-1.54,-1.55,1.55,1.40,2.41,-0.08,-0.09,-0.09
139.22,-1.60,-1.60,-1.46,-1.45,1.46,1.31,2.33,-0.15,-0.14,-0.14
140.61,-1.56,-1.56,-1.36,-1.36,1.37,1.22,2.24,-0.20,-0.20,-0.20
142.02,-1.53,-1.53,-1.28,-1.28,1.28,1.13,2.16,-0.26,-0.26,-0.26
143.44,-1.50,-1.50,-1.19,-1.19,1.19,1.04,2.07,-0.32,-0.31,-0.31
144.87,-1.46,-1.46,-1.10,-1.10,1.10,0.96,1.98,-0.36,-0.37,-0.36
146.32,-1.43,-1.43,-1.01,-1.01,1.01,0.87,1.89,-0.42,-0.42,-0.42
147.78,-1.39,-1.39,-0.92,-0.92,0.92,0.79,1.79,-0.47,-0.47,-0.47
149.26,-1.36,-1.36,-0.84,-0.84,0.84,0.71,1.70,-0.52,-0.52,-0.52
150.75,-1.32,-1.32,-0.75,-0.75,0.76,0.63,1.60,-0.57,-0.57,-0.57
152.26,-1.29,-1.29,-0.67,-0.67,0.67,0.55,1.51,-0.62,-0.62,-0.62
153.78,-1.25,-1.25,-0.59,-0.59,0.59,0.48,1.41,-0.66,-0.66,-0.67
155.32,-1.22,-1.22,-0.51,-0.51,0.51,0.40,1.31,-0.71,-0.71,-0.71
156.88,-1.19,-1.19,-0.43,-0.43,0.43,0.33,1.22,-0.76,-0.76,-0.76
158.44,-1.15,-1.15,-0.35,-0.35,0.35,0.26,1.12,-0.80,-0.81,-0.80
160.03,-1.12,-1.12,-0.28,-0.27,0.27,0.18,1.02,-0.85,-0.85,-0.84
161.63,-1.08,-1.08,-0.18,-0.19,0.19,0.11,0.92,-0.89,-0.89,-0.90
163.24,-1.05,-1.05,-0.11,-0.11,0.11,0.05,0.82,-0.94,-0.93,-0.94
164.88,-1.01,-1.01,-0.03,-0.04,0.04,-0.02,0.73,-0.97,-0.98,-0.98
166.53,-0.98,-0.98,0.04,0.04,-0.04,-0.09,0.63,-1.02,-1.02,-1.02
168.19,-0.95,-0.95,0.10,0.11,-0.11,-0.15,0.53,-1.06,-1.06,-1.06
169.87,-0.91,-0.91,0.18,0.18,-0.18,-0.22,0.43,-1.09,-1.09,-1.09
171.57,-0.88,-0.88,0.25,0.25,-0.25,-0.28,0.33,-1.13,-1.13,-1.13
173.29,-0.85,-0.85,0.31,0.32,-0.32,-0.34,0.23,-1.17,-1.17,-1.17
175.02,-0.82,-0.82,0.38,0.38,-0.38,-0.40,0.13,-1.21,-1.20,-1.20
176.77,-0.78,-0.79,0.45,0.45,-0.45,-0.46,0.03,-1.23,-1.24,-1.23
178.54,-0.75,-0.75,0.51,0.51,-0.52,-0.52,-0.07,-1.27,-1.27,-1.27
180.32,-0.72,-0.72,0.58,0.58,-0.58,-0.58,-0.17,-1.30,-1.30,-1.30
182.13,-0.68,-0.68,0.65,0.64,-0.64,-0.64,-0.27,-1.32,-1.33,-1.33
183.95,-0.65,-0.65,0.71,0.71,-0.71,-0.70,-0.37,-1.36,-1.36,-1.36
185.79,-0.62,-0.62,0.77,0.77,-0.77,-0.75,-0.46,-1.39,-1.39,-1.39
187.65,-0.59,-0.59,0.82,0.83,-0.83,-0.81,-0.56,-1.42,-1.42,-1.42
189.52,-0.56,-0.56,0.88,0.89,-0.89,-0.86,-0.66,-1.45,-1.45,-1.44
191.42,-0.52,-0.52,0.95,0.95,-0.94,-0.91,-0.76,-1.47,-1.47,-1.47
193.33,-0.49,-0.49,1.01,1.00,-1.00,-0.96,-0.86,-1.49,-1.49,-1.50
195.27,-0.46,-0.46,1.06,1.06,-1.06,-1.02,-0.96,-1.52,-1.52,-1.52
197.22,-0.43,-0.43,1.11,1.11,-1.12,-1.07,-1.06,-1.55,-1.55,-1.55
199.19,-0.40,-0.40,1.17,1.17,-1.17,-1.12,-1.16,-1.57,-1.57,-1.57
201.18,-0.37,-0.37,1.22,1.22,-1.23,-1.16,-1.26,-1.60,-1.59,-1.59
203.19,-0.33,-0.33,1.28,1.28,-1.28,-1.21,-1.35,-1.61,-1.61,-1.61
205.23,-0.30,-0.30,1.33,1.33,-1.33,-1.26,-1.45,-1.63,-1.63,-1.64
207.28,-0.27,-0.27,1.39,1.39,-1.38,-1.31,-1.55,-1.66,-1.65,-1.66
209.35,-0.24,-0.24,1.44,1.44,-1.44,-1.35,-1.64,-1.68,-1.68,-1.68
211.44,-0.21,-0.21,1.48,1.48,-1.49,-1.40,-1.73,-1.70,-1.70,-1.70
213.56,-0.18,-0.18,1.53,1.53,-1.54,-1.44,-1.82,-1.72,-1.72,-1.72
215.69,-0.15,-0.15,1.58,1.58,-1.58,-1.49,-1.91,-1.73,-1.73,-1.73
217.85,-0.12,-0.12,1.63,1.63,-1.63,-1.53,-2.00,-1.75,-1.75,-1.75
220.03,-0.09,-0.09,1.68,1.68,-1.67,-1.58,-2.09,-1.77,-1.77,-1.77
222.23,-0.06,-0.06,1.72,1.72,-1.72,-1.62,-2.17,-1.78,-1.78,-1.78
224.45,-0.04,-0.04,1.76,1.76,-1.76,-1.66,-2.25,-1.80,-1.80,-1.80
226.70,-0.01,-0.01,1.80,1.81,-1.81,-1.70,-2.33,-1.82,-1.82,-1.82
228.96,0.02,0.02,1.85,1.85,-1.85,-1.74,-2.40,-1.83,-1.83,-1.83
231.25,0.05,0.05,1.89,1.89,-1.89,-1.78,-2.47,-1.85,-1.85,-1.85
233.57,0.07,0.07,1.93,1.94,-1.94,-1.82,-2.53,-1.87,-1.86,-1.86
235.90,0.10,0.10,1.98,1.98,-1.98,-1.86,-2.59,-1.88,-1.88,-1.88
238.26,0.13,0.13,2.02,2.02,-2.02,-1.90,-2.65,-1.89,-1.89,-1.90
240.64,0.15,0.15,2.06,2.06,-2.06,-1.93,-2.70,-1.91,-1.91,-1.91
243.05,0.18,0.18,2.10,2.10,-2.10,-1.97,-2.75,-1.92,-1.92,-1.92
245.48,0.20,0.20,2.13,2.13,-2.13,-2.01,-2.79,-1.93,-1.93,-1.93
247.93,0.22,0.22,2.16,2.17,-2.17,-2.04,-2.83,-1.95,-1.94,-1.94
250.41,0.25,0.25,2.20,2.20,-2.20,-2.08,-2.86,-1.95,-1.96,-1.95
252.92,0.27,0.27,2.23,2.23,-2.23,-2.11,-2.88,-1.97,-1.97,-1.97
255.45,0.29,0.29,2.26,2.26,-2.27,-2.15,-2.90,-1.98,-1.98,-1.98
258.00,0.31,0.31,2.29,2.29,-2.30,-2.18,-2.92,-1.99,-1.99,-1.99
260.58,0.33,0.33,2.32,2.33,-2.33,-2.21,-2.93,-2.00,-2.00,-1.99
263.19,0.36,0.36,2.36,2.36,-2.36,-2.24,-2.94,-2.00,-2.00,-2.00
265.82,0.38,0.38,2.39,2.39,-2.39,-2.27,-2.94,-2.01,-2.01,-2.01
268.48,0.40,0.40,2.42,2.42,-2.42,-2.30,-2.94,-2.02,-2.02,-2.02
271.16,0.41,0.41,2.44,2.44,-2.44,-2.33,-2.93,-2.04,-2.03,-2.03
273.87,0.43,0.43,2.47,2.47,-2.47,-2.36,-2.92,-2.04,-2.04,-2.04
276.61,0.45,0.45,2.49,2.49,-2.49,-2.39,-2.91,-2.04,-2.05,-2.05
279.38,0.47,0.47,2.52,2.52,-2.52,-2.42,-2.89,-2.05,-2.05,-2.05
282.17,0.48,0.48,2.54,2.54,-2.54,-2.44,-2.88,-2.06,-2.05,-2.06
284.99,0.50,0.50,2.56,2.56,-2.56,-2.47,-2.86,-2.06,-2.06,-2.06
287.84,0.52,0.52,2.57,2.57,-2.57,-2.49,-2.84,-2.06,-2.06,-2.05
290.72,0.53,0.53,2.59,2.59,-2.59,-2.52,-2.81,-2.06,-2.06,-2.06
293.63,0.55,0.55,2.61,2.61,-2.61,-2.54,-2.79,-2.06,-2.06,-2.07
296.57,0.56,0.56,2.62,2.62,-2.62,-2.57,-2.76,-2.06,-2.06,-2.06
299.53,0.58,0.58,2.64,2.64,-2.64,-2.59,-2.74,-2.06,-2.06,-2.06
302.53,0.59,0.59,2.65,2.65,-2.65,-2.61,-2.71,-2.06,-2.06,-2.06
305.55,0.60,0.60,2.66,2.66,-2.66,-2.63,-2.69,-2.07,-2.06,-2.06
308.61,0.62,0.61,2.68,2.68,-2.68,-2.65,-2.66,-2.06,-2.06,-2.06
311.69,0.63,0.63,2.69,2.69,-2.69,-2.67,-2.64,-2.06,-2.06,-2.06
314.81,0.64,0.64,2.70,2.70,-2.70,-2.69,-2.62,-2.06,-2.06,-2.06
317.96,0.66,0.65,2.72,2.71,-2.71,-2.70,-2.59,-2.06,-2.06,-2.06
321.14,0.67,0.67,2.73,2.73,-2.73,-2.72,-2.57,-2.06,-2.06,-2.06
324.35,0.68,0.68,2.74,2.74,-2.74,-2.74,-2.55,-2.06,-2.06,-2.06
327.59,0.70,0.70,2.75,2.75,-2.75,-2.75,-2.53,-2.05,-2.06,-2.05
330.87,0.71,0.71,2.76,2.76,-2.76,-2.77,-2.52,-2.06,-2.05,-2.05
334.18,0.73,0.73,2.78,2.78,-2.78,-2.78,-2.50,-2.05,-2.05,-2.05
337.52,0.74,0.74,2.79,2.79,-2.79,-2.79,-2.49,-2.05,-2.05,-2.05
340.90,0.75,0.75,2.79,2.80,-2.80,-2.80,-2.48,-2.05,-2.05,-2.05
344.30,0.77,0.77,2.81,2.81,-2.81,-2.81,-2.47,-2.04,-2.04,-2.04
347.75,0.78,0.78,2.81,2.82,-2.82,-2.82,-2.46,-2.04,-2.04,-2.03
351.23,0.80,0.80,2.83,2.83,-2.82,-2.83,-2.46,-2.03,-2.03,-2.04
354.74,0.81,0.81,2.83,2.83,-2.83,-2.84,-2.45,-2.02,-2.02,-2.02
358.28,0.82,0.82,2.84,2.84,-2.84,-2.85,-2.45,-2.02,-2.02,-2.02
361.87,0.83,0.83,2.84,2.84,-2.84,-2.85,-2.45,-2.02,-2.02,-2.01
365.49,0.84,0.84,2.85,2.85,-2.85,-2.86,-2.45,-2.01,-2.01,-2.01
369.14,0.85,0.85,2.86,2.85,-2.85,-2.86,-2.46,-2.00,-2.00,-2.01
372.83,0.86,0.86,2.85,2.86,-2.86,-2.86,-2.46,-2.00,-2.00,-1.99
376.56,0.87,0.87,2.86,2.86,-2.86,-2.87,-2.47,-1.99,-1.99,-1.99
380.33,0.87,0.87,2.86,2.86,-2.86,-2.87,-2.48,-1.99,-1.99,-1.99
384.13,0.88,0.88,2.87,2.86,-2.86,-2.87,-2.49,-1.98,-1.98,-1.99
387.97,0.89,0.89,2.87,2.86,-2.86,-2.87,-2.51,-1.97,-1.98,-1.98
391.85,0.89,0.89,2.85,2.86,-2.86,-2.87,-2.52,-1.97,-1.97,-1.96
395.77,0.90,0.90,2.86,2.86,-2.86,-2.87,-2.54,-1.96,-1.97,-1.97
399.73,0.90,0.90,2.86,2.86,-2.86,-2.86,-2.56,-1.96,-1.96,-1.96
403.72,0.91,0.91,2.86,2.86,-2.86,-2.86,-2.57,-1.95,-1.95,-1.95
407.76,0.91,0.91,2.86,2.86,-2.86,-2.85,-2.59,-1.95,-1.95,-1.95
411.84,0.92,0.92,2.86,2.86,-2.86,-2.85,-2.62,-1.94,-1.94,-1.94
415.96,0.92,0.92,2.85,2.86,-2.85,-2.84,-2.64,-1.94,-1.94,-1.94
420.12,0.92,0.92,2.86,2.85,-2.85,-2.84,-2.66,-1.93,-1.93,-1.94
424.32,0.92,0.92,2.85,2.85,-2.85,-2.83,-2.68,-1.93,-1.93,-1.93
428.56,0.92,0.92,2.84,2.84,-2.84,-2.82,-2.70,-1.92,-1.92,-1.92
432.85,0.92,0.92,2.83,2.83,-2.83,-2.81,-2.72,-1.91,-1.91,-1.91
437.18,0.92,0.92,2.83,2.83,-2.82,-2.80,-2.75,-1.91,-1.91,-1.91
441.55,0.92,0.92,2.82,2.82,-2.81,-2.79,-2.77,-1.90,-1.90,-1.90
445.96,0.91,0.91,2.80,2.80,-2.80,-2.78,-2.79,-1.89,-1.89,-1.90
450.42,0.91,0.91,2.79,2.79,-2.79,-2.77,-2.80,-1.88,-1.88,-1.88
454.93,0.91,0.91,2.78,2.78,-2.78,-2.75,-2.82,-1.87,-1.88,-1.87
