frequency,raw
20,-15.881974466193723
21,-15.259497108659993
22,-14.729258256733639
23,-14.043602393518736
24,-13.439159288134096
25,-12.913212040871088
26,-12.281023289719787
27,-11.75187182826006
28,-11.21866308633742
29,-10.687268564899593
30,-10.235050619713293
31,-9.632037846016193
32,-9.148286247470622
33,-8.607262139757772
34,-8.20780579688697
35,-7.702147153801372
36,-7.317163171158249
37,-6.787492046289602
38,-6.462449311445571
39,-6.005751006491517
40,-5.608561140693712
41,-5.174418189919561
42,-4.811011784739478
43,-4.528807599641339
44,-4.1537386631698645
45,-3.8627180752395445
46,-3.621557441826425
47,-3.3056535198888386
48,-3.1515276700495316
49,-2.835669319057155
50,-2.8570390488531645
51,-2.6185797661069508
52,-2.3398092696601642
53,-2.490463838220463
54,-2.211993529513389
55,-2.0171461121901366
56,-2.0592980697333125
57,-1.8384090628434486
58,-1.7425186502118093
59,-1.6784765363670922
60,-1.5835383900196658
61,-1.5699157723533417
62,-1.4548471985256048
63,-1.4548471592791992
64,-1.358956832208552
65,-1.3589571385926362
66,-1.310832091302213
67,-1.1671778061716078
68,-1.1671787704456684
69,-1.1671793515303763
70,-1.0813316482193454
71,-1.071285779836335
72,-1.0712802480158592
73,-1.0712714847676916
74,-1.0712603443177344
75,-1.0712495009297298
76,-1.071243905560618
77,-1.0712507357530243
78,-1.0712785063454895
79,-1.0713350828504873
80,-1.0714245359074326
81,-1.0715430932313026
82,-1.071674846151044
83,-1.0706356313066814
84,-0.9759445238225252
85,-0.9758613763946721
86,-0.9755778578592639
87,-0.9750283284598065
88,-0.974169448693251
89,-1.068891346277209
90,-1.0674773887416624
91,-1.0659651259415823
92,-1.064596221636609
93,-1.0637079168559078
94,-1.104149335153836
95,-1.1610044991396933
96,-1.1494920235207933
97,-1.1596592270758785
98,-1.1974276721457175
99,-1.132064298202558
100,-1.1081601601497613
101,-1.1255940413654915
102,-1.1457076373514772
104,-1.1679984459568604
105,-1.1917979006204156
106,-1.2116687995733342
107,-1.2691615687361444
108,-1.422251979857919
109,-1.4826573959094314
110,-1.4946144280867433
111,-1.5278361815929735
112,-1.6655595477890464
113,-1.7254876051038355
114,-1.7338502432138698
115,-1.7317610539488462
117,-1.8732469641150247
118,-1.9200727394954575
119,-1.9196001109756686
120,-1.908038575012977
121,-1.9005736909923372
123,-1.8920082036697474
124,-1.8830485592125015
125,-1.892293470389133
126,-2.0413275764634498
128,-2.0556624428268178
129,-2.044875477329505
130,-2.043898443734711
131,-2.072185432237564
133,-2.1297751164917758
134,-2.1254378415322357
135,-2.1216044941059957
137,-2.2099193404392583
138,-2.2349444047042994
140,-2.30548172531228
141,-2.3041426259529976
142,-2.3034033527237656
144,-2.3990560880458762
145,-2.399182308250497
147,-2.495400200885838
148,-2.495760914452802
150,-2.4960036247040955
151,-2.4960162579189857
153,-2.4957459532289077
154,-2.5123491857243647
156,-2.590415753160322
157,-2.5897542396231428
159,-2.68526285846114
160,-2.6854546887985222
162,-2.6865177405036675
164,-2.6887060036604646
165,-2.6921783071450545
167,-2.755280882481692
169,-2.7987455128059198
170,-2.8054216827015117
172,-2.812317919470018
174,-2.818734603113098
175,-2.8620618955342865
177,-2.9228995904024844
179,-2.9233097228022116
181,-2.9205348114120966
183,-2.9143676297527668
184,-2.904910716047862
186,-2.8925771281331234
188,-2.9676659815688184
190,-2.9580954633307446
192,-2.941902370291082
194,-2.9263136275934265
196,-2.987699016568405
198,-2.9959875215656346
200,-2.9864031012387073
202,-2.9794579412430675
204,-2.975087136818554
206,-2.9730540668962178
208,-3.0435352083619542
210,-3.070441645292398
212,-3.0731508307605204
214,-3.0766195161355827
216,-3.147129929907723
218,-3.1801204416230426
221,-3.1834219732513342
223,-3.1857655623869228
225,-3.186630987785167
227,-3.1854785813894644
229,-3.181796193221144
232,-3.2467507970670737
234,-3.261220400621111
236,-3.2481623334593657
239,-3.232139053481521
241,-3.213702083274096
244,-3.1936709510476873
246,-3.173068430078922
248,-3.153022582009637
251,-3.179040476859953
253,-3.2148111134701267
256,-3.2024586637033288
259,-3.1938735873798123
261,-3.241285544529063
264,-3.2835699569538166
266,-3.28489505518364
269,-3.28798532670391
272,-3.2917537279638878
274,-3.2951012228382495
277,-3.2970397054733707
280,-3.296797357419899
283,-3.2938941353439786
286,-3.288179312238449
288,-3.279828168643784
291,-3.269300372874529
294,-3.2572675571046332
297,-3.244521375126425
300,-3.231875359759372
303,-3.220073886313463
306,-3.2097195245239085
309,-3.2032916559160247
312,-3.281805109418071
316,-3.2863495576700363
319,-3.2839321563170074
322,-3.2831635902994125
325,-3.283691256862273
328,-3.2851295433239844
332,-3.2870924023568384
335,-3.2892140039174067
338,-3.291158742927646
342,-3.292624320267499
345,-3.2933426995427557
349,-3.2930833374091315
352,-3.291661440182502
356,-3.2889516680963773
359,-3.284905381665597
363,-3.2795678222489077
366,-3.2730909131712345
370,-3.265737694786126
374,-3.2601782142037545
377,-3.322493496532929
381,-3.3383756946154346
385,-3.3318656561696596
389,-3.3267849462371117
393,-3.3234955050747588
397,-3.3221881042738457
401,-3.283079765419667
405,-3.229161902892911
409,-3.2323357714067966
413,-3.2354483768853197
417,-3.2371890216295536
421,-3.2360131522308473
425,-3.230266131209559
430,-3.2183488140440777
434,-3.1989087533683658
438,-3.1710319867437327
443,-3.134404679498203
447,-3.0894135432276357
451,-3.0192275226598997
456,-2.883486855517876
460,-2.8170500436068218
465,-2.7602865271126724
470,-2.6995891465240995
474,-2.642268978942979
479,-2.5898107282695566
484,-2.543098435073628
489,-2.5024516278547497
494,-2.4595186286174093
499,-2.3237128457819436
504,-2.3001833468163846
509,-2.3013512970778107
514,-2.2893138786982066
519,-2.284087977278554
524,-2.286746297190089
529,-2.3163020073893485
535,-2.2996898175767218
540,-2.1734540415929957
545,-2.1861491576706347
551,-2.2580355741127667
556,-2.474952297821625
562,-2.538431227621879
568,-2.5873494165747397
573,-2.649346030867088
579,-2.7870097047276365
585,-2.665344383951805
591,-2.6409436389348
596,-2.7368780291338197
602,-2.8665890819738546
608,-2.790955211147357
615,-2.7512388637692533
621,-2.6575886895601553
627,-2.6326643314596794
633,-2.507903958081343
639,-2.474707895313069
646,-2.340845892087661
652,-2.2979379175030337
659,-2.250539888644832
665,-2.2177208027620634
672,-2.139399570950757
679,-1.9211868611084852
686,-1.8423578628003903
692,-1.8347566670698598
699,-1.81450975304886
706,-1.5952682947493166
713,-1.5703473872151836
721,-1.6114551980677114
728,-1.5626114277338918
735,-1.5385020938887337
742,-1.566816508578646
750,-1.457350050259002
757,-1.4307637491261926
765,-1.453236435448796
773,-1.4540548985585684
780,-1.385051503756474
788,-1.3571170465669307
796,-1.294959453980513
804,-1.274283582148706
812,-1.1350553770745289
820,-1.091930720776373
828,-1.0406552110590497
837,-0.8712171960281402
845,-0.8004465314998819
853,-0.7343226019008355
862,-0.6173810659404465
871,-0.621801760147803
879,-0.5492987509410036
888,-0.4871606406956886
897,-0.3655096978311667
906,-0.30590656540447425
915,-0.2244303054231423
924,-0.09977778928856582
933,-0.09052181508192653
943,-0.09037097497701671
952,-0.05375965833920923
962,0.060479771665799736
971,0.11469100798105408
981,0.21466218570175938
991,0.19976202792993147
1001,-0.022084708852606716
1011,-0.19855759758513883
1021,-0.3006360276281993
1031,-0.351704849009045
1041,-0.23717471082689476
1052,-0.18620760529948252
1062,-0.2318112266875836
1073,-0.22035589461970387
1084,-0.16989097406275333
1094,-0.06874058372458558
1105,0.1354465380235922
1116,0.23088863985410601
1128,0.3503953897070825
1139,0.45435604352875136
1150,0.4869644611665057
1162,0.52590710080099
1173,0.6189832587014639
1185,0.7185531260612651
1197,0.9206155003590524
1209,1.05871716381416
1221,1.3437973965035481
1233,1.4698604143097083
1246,1.6632295379233413
1258,1.737438890037925
1271,1.8617524309445883
1283,1.9717283049220378
1296,2.0307065473407304
1309,1.9373200253998735
1322,1.9652461733144946
1335,2.0479376506826044
1349,2.1612524313707193
1362,2.108057083959493
1376,2.0769927551227694
1390,1.684771198979304
1404,1.4939230985974794
1418,1.110429286212097
1432,1.0585764305912582
1446,0.9696923209296497
1461,0.8164698227744696
1475,0.7725427777872005
1490,0.8129824952855369
1505,0.8361192948063172
1520,0.7817277245404828
1535,0.6001102460692183
1550,0.29721497709701694
1566,-0.02774832601501842
1582,-0.2314035644281045
1597,-0.36958577083480115
1613,-0.7583977195743925
1629,-0.7416531015725214
1646,-0.840359150044172
1662,-0.8020828813879426
1679,-0.7765153935789808
1696,-0.8621518147378247
1713,-0.9232303786599854
1730,-1.0563512485489532
1747,-1.1942268844233608
1764,-1.2921602562979269
1782,-1.3495138030122797
1800,-1.4181334085526922
1818,-1.3650699246944136
1836,-1.281488926324739
1854,-1.1587488281252503
1873,-1.0687410630707381
1892,-0.9294221804257035
1911,-0.7730788174100462
1930,-0.8152178174171265
1949,-0.8561839343844229
1969,-0.8188195950344159
1988,-0.523046332847386
2008,-0.1895751150606646
2028,0.11086289769311364
2048,0.4228873300545324
2069,0.6318458510751155
2090,0.8523507438764675
2111,0.9694059707461582
2132,1.0227907372883536
2153,1.3106999112609943
2175,1.584324167612941
2196,1.81471614769071
2218,2.458335421033432
2240,2.6931796083153206
2263,2.892805905693681
2285,3.1149412595335804
2308,3.3599979749522753
2331,3.510115138450761
2355,3.7055346737679855
2378,3.8787035177785416
2402,4.181818368256057
2426,4.510173001098982
2450,4.834836982838198
2475,5.0852393397232944
2500,5.437728786352903
2525,5.856322437775859
2550,5.966419103081085
2575,6.018169254533779
2601,6.126875148028452
2627,6.273149877853191
2653,6.46635021242993
2680,6.787802541063199
2707,6.947190253553819
2734,7.2413946249368095
2761,7.340537460351918
2789,7.359286248802151
2817,7.3810236419258946
2845,7.2554793021380615
2873,7.104913691835346
2902,6.978706647431849
2931,6.9511796715072975
2960,6.938175556336384
2990,6.981288498696712
3020,7.194160131500038
3050,7.385232910089222
3080,7.524197667416317
3111,7.690027786290205
3142,7.673634121239036
3174,7.831696628074235
3206,7.743746606220796
3238,7.618893155831156
3270,7.438522696525126
3303,7.403867475118462
3336,7.54620446890525
3369,7.585636662070526
3403,7.573042054101467
3437,7.601230987237553
3471,7.513463619596145
3506,7.335453772592814
3541,7.38281175303022
3576,7.389305894820001
3612,7.470392432219043
3648,7.473161899013789
3685,7.394908468067628
3721,7.1472586304039645
3759,6.975184979863252
3796,6.764697031696549
3834,6.564483005053127
3873,6.381220644452606
3911,6.119963974568998
3950,5.9836524788776355
3990,6.035497846122901
4030,5.8293518358157
4070,5.764779680828465
4111,5.663379108216029
4152,5.612046994477838
4193,5.450884033663133
4235,5.385491489538563
4278,5.30354294228842
4321,5.072668717128883
4364,4.910862373722468
4407,4.659323032289771
4451,4.452067375407838
4496,4.301664139648057
4541,4.231910069883437
4586,4.135958091437846
4632,4.09790876623712
4679,4.238303996520948
4725,4.224403934004339
4773,4.08898291746466
4820,4.041011773922801
4868,4.013850295024136
4917,3.871940566410304
4966,3.76446225538359
5016,3.5705431058796417
5066,3.2852636943283287
5117,3.0394447519964913
5168,2.844842639006192
5220,2.722195191034052
5272,2.652124826859106
5325,2.6657215367677747
5378,2.871389095642062
5432,2.922789237746766
5486,2.876538464668508
5541,2.7322157379514955
5596,2.9128712776767394
5652,3.155007853870721
5709,3.503608772135218
5766,3.6772614392504437
5823,3.845303019988785
5882,3.943273394551488
5940,3.927590949355034
6000,3.855346393186313
6060,3.617974585776949
6120,3.384167709718241
6182,3.223257234838732
6244,3.137129269399482
6306,2.977252940378115
6369,2.8401280619008773
6433,2.621426997421615
6497,2.388433137262682
6562,1.9700361322396205
6628,1.6004674465638473
6694,1.3497315125865352
6761,1.0247115954153658
6828,1.1058023819590082
6897,1.1157234159757614
6966,1.1436277852386905
7035,1.1027936850756292
7106,0.7436010033210829
7177,0.5105714218864676
7249,0.2509126823132588
7321,-0.07935953608614188
7394,-0.3553911965200518
7468,-0.5491698082477612
7543,-0.41486569140516405
7618,-0.06932644971341695
7694,-0.3505082638532979
7771,-0.2701213892649408
7849,0.2682555697789093
7928,0.6536758646636809
8007,0.8596713568443777
8087,0.8336054026119122
8168,0.6946740153272444
8250,1.0352333936761404
8332,1.4434199001342756
8415,1.6152925371620843
8499,2.1840534198184285
8584,2.57306661003755
8670,3.0219738178211255
8757,3.7693371612730253
8845,4.172434804854445
8933,4.145436148963213
9022,4.3411499619529605
9113,4.496605747630251
9204,4.883742009506262
9296,5.486625653889906
9389,5.1200834139322575
9483,4.848964332348445
9577,4.643497103079037
9673,3.985429225996931
9770,3.451879855211478
9868,2.1440219546877106
9966,-0.3542122893702162
10066,-2.4966347773677287
10167,-4.274890235514165
10268,-5.653863895866035
10371,-7.283379132266303
10475,-8.505677567671864
10579,-7.710877754054916
10685,-6.124636433510647
10792,-7.029415209242516
10900,-6.7324465523524335
11009,-5.1862337480298475
11119,-3.3007190237163844
11230,-3.3013511978800807
11343,-3.3744425543427052
11456,-3.3950431385405118
11571,-3.0048480852249586
11686,-2.528267035526916
11803,-2.5123487862246954
11921,-2.5314071617662535
12040,-3.203493113154444
12161,-3.391510716309604
12282,-3.498143076126068
12405,-3.3778112863741487
12529,-3.304246759458385
12655,-3.3311288831567474
12781,-3.4521940950126897
12909,-3.51055351965306
13038,-3.4758151575169975
13168,-4.0023581184717045
13300,-4.770777746247359
13433,-5.813125928893463
13567,-7.138105049425389
13703,-8.243550162995959
13840,-8.518575614961382
13978,-8.573029547419551
14118,-8.580762034390734
14259,-8.525837966374452
14402,-8.33915751382138
14546,-7.872379979240247
14692,-7.194864801305694
14838,-6.936808380632254
14987,-6.839317669294013
15137,-7.296899476459227
15288,-8.19303694824878
15441,-8.524829265070878
15595,-7.960299706982508
15751,-7.563534131112731
15909,-8.242342639908994
16068,-8.902462297087357
16229,-9.988291738837011
16391,-11.23955097655967
16555,-11.641502787949461
16720,-11.262744883549033
16888,-10.038766972088506
17056,-10.053139621904744
17227,-9.71893359241562
17399,-9.043798362034085
17573,-7.305834239254702
17749,-6.22104338457945
17926,-5.133449664816811
18106,-4.418906160474771
18287,-3.6714728597495405
18470,-2.5961169283289838
18654,-3.457058699729135
18841,-4.783165697335674
19029,-6.349815506020244
19220,-7.749509728745116
19412,-5.756396436416303
19606,-4.166305837427847
19802,-2.086724579143535
20000,-0.819041015021531
