frequency,raw,smoothed,error,error_smoothed,equalization,parametric_eq,fixed_band_eq,equalized_raw,equalized_smoothed,target
20.00,4.55,4.55,-3.09,-3.09,3.08,2.85,1.20,7.63,7.63,7.63
20.20,4.57,4.56,-3.07,-3.07,3.07,2.85,1.23,7.64,7.63,7.63
20.40,4.58,4.58,-3.06,-3.06,3.06,2.85,1.27,7.64,7.63,7.63
20.61,4.59,4.59,-3.05,-3.04,3.05,2.84,1.31,7.63,7.63,7.63
20.81,4.60,4.60,-3.03,-3.04,3.03,2.84,1.35,7.63,7.63,7.63
21.02,4.61,4.61,-3.02,-3.02,3.02,2.83,1.39,7.63,7.63,7.63
21.23,4.62,4.62,-3.01,-3.01,3.01,2.83,1.43,7.63,7.63,7.63
21.44,4.63,4.63,-3.00,-3.00,3.00,2.82,1.47,7.63,7.63,7.63
21.66,4.64,4.64,-2.99,-2.99,2.99,2.82,1.52,7.63,7.63,7.63
21.87,4.65,4.65,-2.98,-2.98,2.98,2.81,1.56,7.63,7.63,7.63
22.09,4.66,4.65,-2.97,-2.97,2.98,2.81,1.61,7.63,7.63,7.63
22.31,4.66,4.66,-2.97,-2.97,2.97,2.80,1.66,7.63,7.63,7.63
22.54,4.67,4.66,-2.96,-2.96,2.96,2.80,1.71,7.63,7.63,7.63
22.76,4.67,4.67,-2.96,-2.96,2.95,2.79,1.76,7.62,7.62,7.62
22.99,4.68,4.68,-2.95,-2.95,2.94,2.79,1.81,7.62,7.62,7.62
23.22,4.69,4.69,-2.94,-2.94,2.93,2.78,1.86,7.62,7.62,7.62
23.45,4.70,4.70,-2.92,-2.92,2.92,2.78,1.92,7.61,7.62,7.62
23.69,4.72,4.72,-2.90,-2.90,2.90,2.77,1.97,7.61,7.61,7.62
23.92,4.74,4.74,-2.88,-2.88,2.88,2.77,2.03,7.62,7.61,7.62
24.16,4.76,4.76,-2.86,-2.86,2.86,2.76,2.09,7.62,7.62,7.62
24.40,4.78,4.78,-2.84,-2.84,2.84,2.75,2.15,7.62,7.62,7.62
24.65,4.80,4.80,-2.82,-2.82,2.83,2.75,2.20,7.63,7.63,7.62
24.89,4.81,4.80,-2.81,-2.81,2.82,2.74,2.26,7.63,7.63,7.61
25.14,4.81,4.81,-2.81,-2.81,2.82,2.73,2.32,7.63,7.62,7.61
25.39,4.80,4.80,-2.81,-2.81,2.82,2.73,2.38,7.62,7.62,7.61
25.65,4.79,4.79,-2.82,-2.82,2.82,2.72,2.44,7.61,7.61,7.61
25.91,4.78,4.78,-2.83,-2.83,2.82,2.71,2.50,7.60,7.60,7.61
26.16,4.78,4.78,-2.83,-2.83,2.82,2.71,2.56,7.60,7.60,7.61
26.43,4.78,4.78,-2.83,-2.83,2.82,2.70,2.62,7.59,7.59,7.61
26.69,4.79,4.79,-2.82,-2.82,2.81,2.69,2.68,7.60,7.60,7.60
26.96,4.80,4.80,-2.81,-2.80,2.80,2.69,2.74,7.60,7.60,7.60
27.23,4.82,4.81,-2.78,-2.79,2.80,2.68,2.79,7.61,7.61,7.60
27.50,4.83,4.83,-2.77,-2.77,2.79,2.67,2.85,7.62,7.62,7.60
27.77,4.84,4.83,-2.76,-2.76,2.78,2.66,2.90,7.62,7.62,7.60
28.05,4.84,4.83,-2.76,-2.76,2.77,2.66,2.95,7.61,7.61,7.59
28.33,4.83,4.83,-2.77,-2.76,2.76,2.65,3.00,7.59,7.59,7.59
28.62,4.84,4.83,-2.75,-2.76,2.73,2.64,3.04,7.57,7.57,7.59
28.90,4.85,4.85,-2.74,-2.73,2.70,2.63,3.08,7.54,7.55,7.59
29.19,4.90,4.90,-2.69,-2.69,2.65,2.62,3.12,7.55,7.55,7.59
29.48,4.96,4.96,-2.63,-2.62,2.59,2.61,3.15,7.55,7.55,7.58
29.78,5.04,5.04,-2.54,-2.54,2.54,2.60,3.18,7.57,7.57,7.58
30.08,5.12,5.12,-2.46,-2.46,2.48,2.60,3.20,7.60,7.60,7.58
30.38,5.19,5.18,-2.39,-2.39,2.43,2.59,3.23,7.62,7.62,7.58
30.68,5.23,5.22,-2.35,-2.35,2.40,2.58,3.24,7.63,7.62,7.57
30.99,5.23,5.23,-2.34,-2.34,2.38,2.57,3.25,7.61,7.61,7.57
31.30,5.21,5.21,-2.36,-2.36,2.38,2.56,3.25,7.59,7.59,7.57
31.61,5.17,5.17,-2.40,-2.40,2.39,2.55,3.26,7.56,7.56,7.56
31.93,5.13,5.13,-2.43,-2.43,2.41,2.54,3.25,7.53,7.54,7.56
32.24,5.10,5.10,-2.46,-2.46,2.42,2.53,3.24,7.52,7.52,7.56
32.57,5.09,5.09,-2.47,-2.46,2.43,2.51,3.22,7.52,7.52,7.55
32.89,5.10,5.10,-2.45,-2.45,2.43,2.50,3.21,7.53,7.53,7.55
33.22,5.12,5.12,-2.43,-2.43,2.42,2.49,3.18,7.54,7.54,7.55
33.55,5.15,5.14,-2.39,-2.40,2.40,2.48,3.16,7.55,7.55,7.54
33.89,5.17,5.17,-2.37,-2.37,2.38,2.47,3.12,7.54,7.55,7.54
34.23,5.20,5.19,-2.34,-2.34,2.35,2.46,3.09,7.54,7.54,7.53
34.57,5.22,5.22,-2.31,-2.31,2.31,2.45,3.05,7.53,7.53,7.53
34.92,5.24,5.24,-2.29,-2.28,2.28,2.43,3.01,7.52,7.53,7.52
35.27,5.27,5.26,-2.25,-2.26,2.26,2.42,2.97,7.52,7.52,7.52
35.62,5.29,5.28,-2.23,-2.23,2.24,2.41,2.92,7.52,7.52,7.51
35.97,5.30,5.30,-2.21,-2.21,2.22,2.40,2.88,7.52,7.52,7.51
36.33,5.31,5.31,-2.20,-2.20,2.20,2.38,2.83,7.51,7.51,7.50
36.70,5.31,5.31,-2.19,-2.19,2.19,2.37,2.78,7.50,7.50,7.50
37.06,5.31,5.31,-2.19,-2.19,2.18,2.35,2.73,7.49,7.49,7.49
37.43,5.31,5.31,-2.18,-2.18,2.17,2.34,2.67,7.48,7.48,7.49
37.81,5.31,5.31,-2.17,-2.17,2.17,2.33,2.62,7.47,7.48,7.48
38.19,5.32,5.31,-2.16,-2.16,2.16,2.31,2.57,7.48,7.48,7.48
38.57,5.32,5.32,-2.15,-2.15,2.16,2.30,2.52,7.47,7.47,7.47
38.95,5.32,5.31,-2.15,-2.15,2.15,2.28,2.47,7.47,7.47,7.46
39.34,5.31,5.31,-2.15,-2.14,2.14,2.27,2.42,7.45,7.45,7.45
39.74,5.31,5.31,-2.14,-2.14,2.14,2.25,2.37,7.44,7.45,7.45
40.14,5.31,5.31,-2.13,-2.13,2.13,2.23,2.32,7.44,7.44,7.44
40.54,5.31,5.31,-2.13,-2.12,2.12,2.22,2.27,7.43,7.43,7.43
40.94,5.31,5.31,-2.12,-2.11,2.11,2.20,2.22,7.42,7.42,7.42
41.35,5.32,5.31,-2.10,-2.10,2.10,2.18,2.18,7.42,7.42,7.42
41.76,5.32,5.32,-2.09,-2.09,2.09,2.17,2.14,7.41,7.41,7.41
42.18,5.32,5.32,-2.08,-2.08,2.08,2.15,2.09,7.39,7.40,7.40
42.60,5.33,5.33,-2.06,-2.06,2.06,2.13,2.05,7.39,7.39,7.39
43.03,5.34,5.34,-2.04,-2.04,2.04,2.11,2.01,7.38,7.38,7.38
43.46,5.35,5.35,-2.02,-2.02,2.02,2.09,1.97,7.37,7.37,7.37
43.90,5.36,5.36,-2.00,-2.00,2.00,2.07,1.94,7.36,7.36,7.36
44.33,5.37,5.37,-1.98,-1.98,1.97,2.05,1.90,7.34,7.34,7.35
44.78,5.39,5.39,-1.95,-1.95,1.94,2.03,1.87,7.33,7.33,7.34
45.23,5.42,5.41,-1.91,-1.91,1.91,2.01,1.84,7.32,7.32,7.32
45.68,5.44,5.44,-1.88,-1.87,1.87,1.99,1.81,7.31,7.31,7.31
46.13,5.47,5.47,-1.83,-1.83,1.83,1.97,1.78,7.30,7.30,7.30
46.60,5.50,5.50,-1.79,-1.79,1.80,1.95,1.75,7.29,7.30,7.29
47.06,5.53,5.52,-1.75,-1.75,1.76,1.92,1.72,7.29,7.28,7.27
47.53,5.54,5.53,-1.72,-1.73,1.73,1.90,1.70,7.27,7.27,7.26
48.01,5.54,5.54,-1.71,-1.70,1.70,1.88,1.67,7.24,7.24,7.25
48.49,5.55,5.55,-1.68,-1.68,1.68,1.86,1.65,7.22,7.23,7.23
48.97,5.56,5.56,-1.66,-1.66,1.66,1.83,1.63,7.21,7.21,7.22
49.46,5.57,5.56,-1.63,-1.64,1.64,1.81,1.61,7.20,7.20,7.20
49.96,5.57,5.57,-1.62,-1.61,1.62,1.78,1.59,7.19,7.19,7.18
50.46,5.57,5.57,-1.60,-1.60,1.60,1.76,1.58,7.17,7.17,7.17
50.96,5.57,5.56,-1.58,-1.58,1.59,1.73,1.56,7.15,7.15,7.15
51.47,5.56,5.56,-1.57,-1.57,1.57,1.70,1.54,7.13,7.13,7.13
51.99,5.56,5.55,-1.56,-1.56,1.55,1.68,1.53,7.11,7.11,7.11
52.51,5.55,5.55,-1.55,-1.54,1.54,1.65,1.51,7.09,7.09,7.09
53.03,5.55,5.55,-1.53,-1.53,1.52,1.62,1.49,7.07,7.07,7.07
53.56,5.55,5.54,-1.51,-1.51,1.51,1.59,1.48,7.06,7.05,7.05
54.10,5.54,5.54,-1.49,-1.49,1.50,1.56,1.46,7.03,7.04,7.03
54.64,5.54,5.53,-1.47,-1.48,1.48,1.53,1.45,7.02,7.02,7.01
55.18,5.53,5.52,-1.46,-1.46,1.47,1.50,1.43,7.00,6.99,6.99
55.74,5.51,5.51,-1.46,-1.45,1.45,1.47,1.42,6.96,6.97,6.96
56.29,5.50,5.50,-1.44,-1.44,1.44,1.44,1.40,6.93,6.93,6.94
56.86,5.49,5.48,-1.43,-1.43,1.42,1.41,1.38,6.90,6.90,6.91
57.42,5.48,5.48,-1.41,-1.41,1.40,1.38,1.36,6.87,6.88,6.89
58.00,5.48,5.48,-1.39,-1.38,1.37,1.34,1.35,6.85,6.86,6.86
58.58,5.50,5.49,-1.34,-1.34,1.35,1.31,1.32,6.85,6.84,6.83
59.16,5.50,5.50,-1.31,-1.31,1.32,1.27,1.30,6.82,6.82,6.81
59.76,5.50,5.49,-1.28,-1.28,1.29,1.24,1.28,6.79,6.79,6.78
60.35,5.49,5.48,-1.26,-1.26,1.27,1.20,1.25,6.75,6.75,6.75
60.96,5.47,5.47,-1.25,-1.24,1.24,1.17,1.22,6.70,6.71,6.72
61.57,5.47,5.47,-1.22,-1.22,1.21,1.13,1.20,6.68,6.68,6.69
62.18,5.47,5.47,-1.19,-1.19,1.18,1.09,1.16,6.65,6.65,6.65
62.80,5.47,5.46,-1.15,-1.16,1.16,1.05,1.13,6.63,6.62,6.62
63.43,5.46,5.46,-1.13,-1.13,1.13,1.01,1.10,6.59,6.59,6.59
64.07,5.45,5.45,-1.10,-1.10,1.11,0.97,1.06,6.55,6.55,6.55
64.71,5.44,5.44,-1.08,-1.08,1.08,0.93,1.02,6.52,6.52,6.51
65.35,5.43,5.43,-1.05,-1.05,1.05,0.89,0.98,6.48,6.48,6.48
66.01,5.42,5.41,-1.02,-1.03,1.02,0.85,0.93,6.44,6.44,6.44
66.67,5.40,5.40,-1.00,-1.00,1.00,0.81,0.89,6.40,6.40,6.40
67.33,5.39,5.39,-0.97,-0.97,0.97,0.76,0.84,6.36,6.37,6.36
68.01,5.39,5.38,-0.93,-0.94,0.95,0.72,0.79,6.33,6.33,6.32
68.69,5.37,5.37,-0.91,-0.91,0.92,0.67,0.74,6.28,6.28,6.28
69.37,5.35,5.35,-0.89,-0.88,0.88,0.63,0.69,6.23,6.23,6.23
70.07,5.34,5.34,-0.85,-0.85,0.85,0.58,0.63,6.19,6.18,6.19
70.77,5.33,5.33,-0.82,-0.81,0.81,0.53,0.58,6.14,6.14,6.15
71.48,5.34,5.34,-0.76,-0.76,0.76,0.49,0.52,6.10,6.10,6.10
72.19,5.35,5.35,-0.71,-0.70,0.71,0.44,0.46,6.06,6.06,6.05
72.91,5.37,5.36,-0.64,-0.64,0.64,0.39,0.40,6.01,6.00,6.00
73.64,5.38,5.37,-0.58,-0.58,0.57,0.34,0.34,5.94,5.94,5.95
74.38,5.40,5.40,-0.51,-0.50,0.48,0.29,0.28,5.88,5.88,5.90
75.12,5.43,5.44,-0.43,-0.41,0.39,0.24,0.22,5.82,5.83,5.85
75.87,5.51,5.50,-0.29,-0.30,0.29,0.18,0.16,5.80,5.80,5.80
76.63,5.57,5.56,-0.18,-0.18,0.20,0.13,0.09,5.77,5.76,5.75
77.40,5.62,5.61,-0.08,-0.08,0.11,0.08,0.03,5.73,5.72,5.69
78.17,5.64,5.64,-0.00,-0.00,0.02,0.02,-0.04,5.66,5.66,5.64
78.95,5.65,5.65,0.07,0.07,-0.06,-0.03,-0.11,5.59,5.59,5.58
79.74,5.66,5.66,0.13,0.13,-0.13,-0.09,-0.17,5.53,5.53,5.52
80.54,5.66,5.66,0.19,0.19,-0.19,-0.15,-0.24,5.46,5.47,5.47
81.35,5.67,5.65,0.26,0.25,-0.25,-0.20,-0.31,5.42,5.40,5.41
82.16,5.64,5.65,0.29,0.30,-0.30,-0.26,-0.38,5.33,5.35,5.35
82.98,5.64,5.64,0.35,0.35,-0.36,-0.32,-0.45,5.28,5.28,5.29
83.81,5.64,5.63,0.41,0.40,-0.41,-0.38,-0.52,5.22,5.21,5.22
84.65,5.62,5.63,0.46,0.46,-0.47,-0.44,-0.59,5.15,5.15,5.16
85.50,5.62,5.62,0.52,0.53,-0.53,-0.50,-0.66,5.09,5.09,5.10
86.35,5.64,5.63,0.60,0.59,-0.59,-0.56,-0.74,5.04,5.03,5.03
87.22,5.63,5.63,0.66,0.66,-0.66,-0.63,-0.81,4.97,4.97,4.97
88.09,5.63,5.63,0.73,0.73,-0.72,-0.69,-0.88,4.91,4.91,4.90
88.97,5.63,5.63,0.79,0.79,-0.79,-0.75,-0.96,4.84,4.84,4.84
89.86,5.64,5.63,0.87,0.86,-0.85,-0.81,-1.04,4.78,4.77,4.77
90.76,5.62,5.62,0.92,0.92,-0.92,-0.88,-1.11,4.69,4.70,4.70
91.66,5.61,5.62,0.98,0.98,-0.99,-0.94,-1.19,4.62,4.62,4.63
92.58,5.62,5.62,1.06,1.05,-1.06,-1.01,-1.27,4.55,4.55,4.56
93.51,5.63,5.62,1.13,1.13,-1.14,-1.07,-1.34,4.49,4.49,4.49
94.44,5.64,5.63,1.22,1.21,-1.21,-1.14,-1.42,4.43,4.42,4.42
95.39,5.64,5.64,1.29,1.29,-1.29,-1.21,-1.50,4.35,4.35,4.35
96.34,5.65,5.65,1.37,1.37,-1.37,-1.27,-1.58,4.28,4.28,4.28
97.30,5.65,5.65,1.44,1.45,-1.44,-1.34,-1.66,4.20,4.21,4.21
98.28,5.67,5.66,1.53,1.53,-1.52,-1.41,-1.74,4.15,4.14,4.14
99.26,5.67,5.66,1.60,1.60,-1.59,-1.47,-1.82,4.07,4.07,4.06
100.25,5.66,5.66,1.67,1.67,-1.66,-1.54,-1.90,4.00,4.00,3.99
101.25,5.65,5.65,1.73,1.73,-1.73,-1.61,-1.99,3.92,3.92,3.92
102.27,5.64,5.64,1.79,1.79,-1.79,-1.68,-2.07,3.84,3.84,3.85
103.29,5.63,5.63,1.85,1.85,-1.85,-1.74,-2.15,3.77,3.77,3.77
104.32,5.62,5.61,1.92,1.91,-1.91,-1.81,-2.23,3.70,3.70,3.70
105.37,5.60,5.60,1.97,1.97,-1.97,-1.88,-2.31,3.62,3.63,3.63
106.42,5.59,5.59,2.03,2.03,-2.03,-1.95,-2.39,3.55,3.55,3.55
107.48,5.58,5.57,2.10,2.09,-2.09,-2.02,-2.47,3.48,3.48,3.48
108.56,5.56,5.56,2.15,2.15,-2.15,-2.08,-2.54,3.40,3.41,3.41
109.64,5.55,5.55,2.21,2.21,-2.21,-2.15,-2.62,3.33,3.33,3.34
110.74,5.54,5.54,2.27,2.27,-2.27,-2.22,-2.69,3.26,3.26,3.26
111.85,5.53,5.53,2.34,2.34,-2.33,-2.29,-2.77,3.19,3.19,3.19
112.97,5.52,5.51,2.40,2.39,-2.39,-2.35,-2.83,3.12,3.12,3.12
114.10,5.50,5.50,2.45,2.45,-2.45,-2.42,-2.90,3.04,3.05,3.05
115.24,5.49,5.49,2.51,2.51,-2.51,-2.49,-2.97,2.98,2.98,2.98
116.39,5.48,5.48,2.57,2.57,-2.57,-2.55,-3.03,2.91,2.91,2.90
117.55,5.47,5.46,2.63,2.63,-2.63,-2.62,-3.09,2.84,2.84,2.83
118.73,5.45,5.45,2.68,2.68,-2.69,-2.68,-3.14,2.76,2.76,2.76
119.92,5.44,5.44,2.74,2.74,-2.75,-2.75,-3.19,2.69,2.69,2.70
121.12,5.43,5.43,2.80,2.80,-2.80,-2.81,-3.24,2.62,2.62,2.63
122.33,5.43,5.42,2.87,2.87,-2.87,-2.87,-3.28,2.56,2.56,2.56
123.55,5.42,5.42,2.93,2.93,-2.93,-2.94,-3.32,2.49,2.49,2.49
124.79,5.42,5.41,2.99,2.99,-2.99,-3.00,-3.36,2.43,2.42,2.42
126.03,5.41,5.41,3.05,3.05,-3.05,-3.06,-3.39,2.35,2.35,2.36
127.29,5.41,5.41,3.11,3.12,-3.12,-3.12,-3.42,2.29,2.29,2.29
128.57,5.41,5.41,3.18,3.18,-3.19,-3.18,-3.44,2.22,2.22,2.23
129.85,5.42,5.41,3.25,3.25,-3.25,-3.24,-3.46,2.17,2.16,2.16
131.15,5.42,5.42,3.32,3.32,-3.31,-3.30,-3.48,2.10,2.10,2.10
132.46,5.42,5.42,3.38,3.38,-3.37,-3.36,-3.49,2.04,2.04,2.04
133.79,5.42,5.41,3.44,3.44,-3.43,-3.42,-3.51,1.98,1.98,1.98
135.12,5.41,5.41,3.49,3.49,-3.49,-3.47,-3.51,1.92,1.92,1.92
136.48,5.40,5.40,3.54,3.54,-3.54,-3.53,-3.52,1.86,1.86,1.86
137.84,5.39,5.38,3.59,3.59,-3.59,-3.58,-3.52,1.80,1.80,1.80
139.22,5.37,5.37,3.63,3.63,-3.63,-3.63,-3.52,1.74,1.74,1.74
140.61,5.36,5.35,3.67,3.67,-3.67,-3.68,-3.52,1.69,1.68,1.68
142.02,5.34,5.34,3.71,3.71,-3.71,-3.74,-3.52,1.63,1.63,1.63
143.44,5.32,5.32,3.74,3.74,-3.74,-3.79,-3.52,1.57,1.57,1.57
144.87,5.30,5.30,3.78,3.78,-3.78,-3.83,-3.51,1.52,1.52,1.52
146.32,5.28,5.28,3.81,3.81,-3.81,-3.88,-3.51,1.47,1.47,1.47
147.78,5.26,5.26,3.84,3.84,-3.84,-3.93,-3.51,1.42,1.42,1.42
149.26,5.24,5.23,3.87,3.87,-3.87,-3.97,-3.50,1.37,1.37,1.37
150.75,5.21,5.21,3.89,3.89,-3.89,-4.02,-3.50,1.31,1.32,1.32
152.26,5.19,5.19,3.92,3.92,-3.92,-4.06,-3.50,1.27,1.27,1.27
153.78,5.17,5.16,3.95,3.94,-3.94,-4.10,-3.50,1.23,1.22,1.22
155.32,5.14,5.14,3.96,3.97,-3.96,-4.14,-3.50,1.18,1.18,1.17
156.88,5.12,5.12,3.99,3.99,-3.98,-4.18,-3.50,1.13,1.13,1.13
158.44,5.10,5.10,4.01,4.01,-4.01,-4.22,-3.51,1.09,1.09,1.08
160.03,5.08,5.08,4.04,4.04,-4.04,-4.26,-3.52,1.04,1.04,1.04
161.63,5.07,5.06,4.08,4.07,-4.08,-4.29,-3.52,0.99,0.99,0.99
163.24,5.06,5.06,4.11,4.11,-4.13,-4.33,-3.53,0.93,0.93,0.95
164.88,5.07,5.07,4.16,4.16,-4.18,-4.36,-3.55,0.88,0.89,0.91
166.53,5.10,5.10,4.23,4.23,-4.25,-4.39,-3.56,0.85,0.85,0.87
168.19,5.14,5.14,4.31,4.31,-4.32,-4.42,-3.58,0.81,0.81,0.83
169.87,5.19,5.19,4.40,4.40,-4.40,-4.45,-3.60,0.79,0.79,0.79
171.57,5.24,5.24,4.48,4.48,-4.48,-4.47,-3.63,0.76,0.76,0.76
173.29,5.29,5.29,4.57,4.57,-4.55,-4.50,-3.65,0.74,0.74,0.72
175.02,5.33,5.32,4.64,4.64,-4.61,-4.52,-3.68,0.71,0.71,0.69
176.77,5.34,5.34,4.69,4.69,-4.67,-4.55,-3.72,0.67,0.67,0.65
178.54,5.34,5.34,4.72,4.72,-4.71,-4.57,-3.75,0.63,0.63,0.62
180.32,5.33,5.33,4.74,4.74,-4.74,-4.59,-3.79,0.58,0.59,0.59
182.13,5.32,5.31,4.76,4.76,-4.76,-4.61,-3.83,0.55,0.55,0.56
183.95,5.30,5.30,4.77,4.77,-4.78,-4.63,-3.88,0.52,0.52,0.53
185.79,5.28,5.28,4.78,4.78,-4.78,-4.64,-3.92,0.49,0.49,0.50
187.65,5.26,5.25,4.79,4.78,-4.79,-4.66,-3.97,0.47,0.47,0.47
189.52,5.23,5.23,4.79,4.79,-4.79,-4.67,-4.03,0.44,0.44,0.44
191.42,5.21,5.21,4.79,4.79,-4.79,-4.69,-4.08,0.41,0.41,0.41
193.33,5.19,5.18,4.80,4.79,-4.80,-4.70,-4.14,0.39,0.39,0.39
195.27,5.16,5.16,4.79,4.80,-4.80,-4.71,-4.20,0.36,0.36,0.36
197.22,5.14,5.14,4.80,4.80,-4.80,-4.72,-4.26,0.34,0.34,0.34
199.19,5.12,5.12,4.80,4.80,-4.80,-4.73,-4.32,0.32,0.32,0.32
201.18,5.10,5.09,4.80,4.80,-4.80,-4.73,-4.39,0.30,0.29,0.29
203.19,5.07,5.07,4.80,4.80,-4.80,-4.74,-4.45,0.27,0.27,0.27
205.23,5.05,5.05,4.80,4.80,-4.80,-4.74,-4.52,0.25,0.25,0.25
207.28,5.03,5.03,4.80,4.80,-4.80,-4.75,-4.59,0.23,0.23,0.23
209.35,5.01,5.01,4.80,4.80,-4.80,-4.75,-4.66,0.21,0.21,0.21
211.44,4.99,4.99,4.80,4.80,-4.79,-4.75,-4.73,0.19,0.19,0.19
213.56,4.97,4.96,4.80,4.79,-4.79,-4.75,-4.80,0.17,0.17,0.17
215.69,4.94,4.94,4.79,4.79,-4.79,-4.75,-4.86,0.15,0.15,0.15
217.85,4.92,4.92,4.78,4.78,-4.79,-4.75,-4.93,0.13,0.13,0.13
220.03,4.90,4.90,4.78,4.78,-4.78,-4.75,-4.99,0.12,0.11,0.12
222.23,4.88,4.88,4.78,4.78,-4.78,-4.74,-5.06,0.10,0.10,0.10
224.45,4.86,4.86,4.77,4.77,-4.77,-4.74,-5.12,0.09,0.09,0.08
226.70,4.84,4.84,4.77,4.77,-4.77,-4.73,-5.17,0.07,0.07,0.07
228.96,4.82,4.81,4.76,4.76,-4.76,-4.73,-5.22,0.06,0.05,0.05
231.25,4.79,4.79,4.75,4.75,-4.75,-4.72,-5.27,0.03,0.04,0.04
233.57,4.77,4.77,4.74,4.75,-4.75,-4.71,-5.32,0.02,0.02,0.03
235.90,4.75,4.75,4.74,4.74,-4.74,-4.70,-5.35,0.01,0.01,0.00
238.26,4.73,4.73,4.74,4.74,-4.73,-4.70,-5.38,-0.01,-0.01,-0.01
240.64,4.71,4.70,4.73,4.73,-4.72,-4.69,-5.41,-0.02,-0.02,-0.02
243.05,4.68,4.68,4.71,4.72,-4.71,-4.68,-5.43,-0.04,-0.03,-0.04
245.48,4.66,4.66,4.70,4.70,-4.71,-4.66,-5.44,-0.05,-0.05,-0.05
247.93,4.64,4.63,4.70,4.69,-4.69,-4.65,-5.44,-0.06,-0.06,-0.06
250.41,4.61,4.61,4.68,4.68,-4.68,-4.64,-5.44,-0.08,-0.07,-0.07
252.92,4.59,4.59,4.67,4.67,-4.67,-4.63,-5.43,-0.08,-0.08,-0.08
255.45,4.57,4.57,4.66,4.66,-4.66,-4.61,-5.41,-0.09,-0.09,-0.09
258.00,4.55,4.54,4.65,4.64,-4.64,-4.60,-5.39,-0.10,-0.10,-0.10
260.58,4.52,4.52,4.63,4.63,-4.63,-4.59,-5.35,-0.11,-0.11,-0.11
263.19,4.50,4.49,4.62,4.61,-4.61,-4.57,-5.32,-0.12,-0.12,-0.12
265.82,4.47,4.47,4.59,4.60,-4.60,-4.56,-5.27,-0.13,-0.13,-0.13
268.48,4.45,4.45,4.58,4.58,-4.59,-4.54,-5.22,-0.14,-0.14,-0.14
271.16,4.43,4.42,4.57,4.57,-4.57,-4.53,-5.16,-0.14,-0.15,-0.14
273.87,4.40,4.40,4.55,4.55,-4.55,-4.51,-5.10,-0.15,-0.15,-0.15
276.61,4.38,4.37,4.54,4.54,-4.53,-4.49,-5.04,-0.16,-0.16,-0.16
279.38,4.35,4.35,4.51,4.52,-4.51,-4.48,-4.97,-0.17,-0.16,-0.17
282.17,4.33,4.32,4.50,4.49,-4.49,-4.46,-4.90,-0.17,-0.17,-0.17
284.99,4.30,4.30,4.47,4.47,-4.47,-4.44,-4.82,-0.17,-0.17,-0.17
287.84,4.27,4.27,4.43,4.44,-4.44,-4.42,-4.74,-0.18,-0.17,-0.17
290.72,4.25,4.24,4.42,4.42,-4.42,-4.40,-4.67,-0.17,-0.18,-0.17
293.63,4.22,4.22,4.40,4.39,-4.39,-4.39,-4.58,-0.18,-0.18,-0.18
296.57,4.19,4.19,4.36,4.37,-4.37,-4.37,-4.50,-0.18,-0.18,-0.18
299.53,4.17,4.16,4.34,4.34,-4.34,-4.35,-4.42,-0.17,-0.18,-0.17
302.53,4.14,4.14,4.31,4.31,-4.31,-4.33,-4.34,-0.18,-0.18,-0.18
305.55,4.11,4.11,4.28,4.29,-4.29,-4.31,-4.26,-0.18,-0.18,-0.17
308.61,4.09,4.08,4.27,4.26,-4.26,-4.28,-4.18,-0.17,-0.18,-0.18
311.69,4.06,4.06,4.23,4.23,-4.23,-4.26,-4.10,-0.17,-0.17,-0.17
314.81,4.03,4.03,4.20,4.20,-4.20,-4.24,-4.02,-0.17,-0.17,-0.18
317.96,4.00,4.00,4.17,4.17,-4.17,-4.22,-3.94,-0.17,-0.17,-0.17
321.14,3.97,3.97,4.14,4.14,-4.14,-4.19,-3.86,-0.17,-0.17,-0.18
324.35,3.94,3.94,4.11,4.11,-4.11,-4.17,-3.79,-0.17,-0.17,-0.17
327.59,3.91,3.91,4.07,4.08,-4.08,-4.14,-3.72,-0.17,-0.17,-0.17
330.87,3.88,3.88,4.05,4.04,-4.05,-4.12,-3.65,-0.17,-0.17,-0.17
334.18,3.85,3.85,4.01,4.01,-4.01,-4.09,-3.58,-0.17,-0.17,-0.16
337.52,3.82,3.82,3.98,3.98,-3.98,-4.06,-3.52,-0.16,-0.16,-0.17
340.90,3.79,3.79,3.95,3.95,-3.95,-4.04,-3.45,-0.16,-0.16,-0.16
344.30,3.76,3.76,3.91,3.91,-3.91,-4.01,-3.39,-0.16,-0.16,-0.15
347.75,3.73,3.73,3.87,3.88,-3.88,-3.98,-3.33,-0.15,-0.15,-0.15
351.23,3.70,3.70,3.85,3.84,-3.84,-3.95,-3.28,-0.14,-0.14,-0.15
354.74,3.67,3.67,3.80,3.81,-3.80,-3.91,-3.23,-0.14,-0.14,-0.13
358.28,3.64,3.63,3.77,3.77,-3.77,-3.88,-3.18,-0.13,-0.13,-0.14
361.87,3.60,3.60,3.73,3.73,-3.73,-3.84,-3.13,-0.13,-0.13,-0.13
365.49,3.57,3.57,3.69,3.69,-3.69,-3.81,-3.08,-0.13,-0.13,-0.12
369.14,3.54,3.53,3.66,3.65,-3.65,-3.77,-3.04,-0.12,-0.12,-0.12
372.83,3.50,3.50,3.60,3.61,-3.62,-3.73,-3.00,-0.12,-0.11,-0.11
376.56,3.47,3.47,3.58,3.58,-3.58,-3.69,-2.96,-0.11,-0.11,-0.11
380.33,3.44,3.43,3.54,3.54,-3.54,-3.65,-2.92,-0.10,-0.10,-0.10
384.13,3.40,3.40,3.50,3.50,-3.50,-3.61,-2.89,-0.10,-0.10,-0.10
387.97,3.37,3.36,3.46,3.46,-3.46,-3.57,-2.86,-0.09,-0.09,-0.10
391.85,3.33,3.33,3.41,3.42,-3.42,-3.52,-2.83,-0.09,-0.09,-0.08
395.77,3.30,3.29,3.38,3.37,-3.37,-3.48,-2.80,-0.08,-0.08,-0.08
399.73,3.26,3.26,3.33,3.33,-3.33,-3.43,-2.78,-0.08,-0.07,-0.07
403.72,3.23,3.22,3.29,3.29,-3.29,-3.38,-2.75,-0.06,-0.07,-0.06
407.76,3.19,3.19,3.25,3.25,-3.25,-3.34,-2.73,-0.06,-0.06,-0.07
411.84,3.15,3.15,3.20,3.21,-3.21,-3.29,-2.71,-0.06,-0.06,-0.06
415.96,3.12,3.11,3.17,3.17,-3.17,-3.24,-2.69,-0.05,-0.05,-0.05
420.12,3.08,3.08,3.13,3.13,-3.13,-3.19,-2.67,-0.05,-0.05,-0.05
424.32,3.04,3.04,3.08,3.08,-3.08,-3.13,-2.65,-0.05,-0.04,-0.04
428.56,3.01,3.00,3.04,3.04,-3.04,-3.08,-2.63,-0.03,-0.04,-0.03
432.85,2.97,2.97,2.99,3.00,-2.99,-3.03,-2.61,-0.03,-0.03,-0.03
437.18,2.93,2.93,2.95,2.95,-2.95,-2.97,-2.60,-0.02,-0.02,-0.03
441.55,2.89,2.89,2.91,2.90,-2.90,-2.92,-2.58,-0.01,-0.01,-0.02
445.96,2.85,2.85,2.86,2.85,-2.85,-2.86,-2.56,-0.01,-0.01,-0.01
450.42,2.81,2.81,2.80,2.80,-2.81,-2.81,-2.55,0.00,0.00,0.01
454.93,2.77,2.77,2.75,2.75,-2.76,-2.75,-2.53,0.01,0.01,0.02
459.48,2.73,2.73,2.70,2.70,-2.71,-2.70,-2.51,0.02,0.02,0.03
464.07,2.69,2.69,2.66,2.66,-2.66,-2.64,-2.49,0.03,0.03,0.03
468.71,2.65,2.65,2.61,2.61,-2.61,-2.58,-2.47,0.04,0.04,0.03
473.40,2.61,2.61,2.56,2.56,-2.56,-2.52,-2.45,0.05,0.05,0.04
478.13,2.57,2.56,2.51,2.51,-2.51,-2.47,-2.42,0.06,0.05,0.05
482.91,2.52,2.52,2.46,2.46,-2.46,-2.41,-2.40,0.06,0.06,0.06
487.74,2.48,2.48,2.41,2.41,-2.41,-2.35,-2.37,0.07,0.07,0.07
492.62,2.44,2.44,2.36,2.36,-2.36,-2.30,-2.34,0.08,0.08,0.08
497.55,2.40,2.39,2.31,2.30,-2.30,-2.24,-2.31,0.09,0.09,0.09
502.52,2.35,2.35,2.25,2.25,-2.25,-2.18,-2.28,0.10,0.10,0.10
507.55,2.31,2.31,2.19,2.19,-2.19,-2.13,-2.24,0.11,0.11,0.12
512.62,2.27,2.26,2.14,2.14,-2.14,-2.07,-2.20,0.12,0.12,0.13
517.75,2.22,2.22,2.08,2.09,-2.09,-2.01,-2.17,0.13,0.13,0.13
522.93,2.18,2.18,2.03,2.03,-2.04,-1.95,-2.12,0.14,0.14,0.14
528.16,2.14,2.13,1.98,1.98,-1.98,-1.90,-2.08,0.16,0.15,0.15
533.44,2.09,2.09,1.92,1.93,-1.93,-1.84,-2.04,0.16,0.17,0.16
538.77,2.05,2.04,1.88,1.88,-1.87,-1.79,-1.99,0.18,0.17,0.16
544.16,2.00,2.00,1.82,1.82,-1.81,-1.73,-1.94,0.18,0.18,0.18
