frequency,raw
20,17.00
21,17.20
22,17.44
23,17.58
24,17.58
25,17.48
26,17.28
27,17.12
28,16.91
29,16.76
30,16.47
31,16.14
32,15.79
33,15.46
34,15.11
35,14.76
36,14.38
37,14.05
38,13.70
39,13.41
40,13.34
41,13.41
42,13.51
43,13.63
44,13.59
45,13.48
46,13.32
47,13.14
48,12.97
49,12.81
50,12.65
51,12.45
52,12.29
53,12.12
54,11.98
55,11.83
56,11.67
57,11.59
58,11.47
59,11.33
60,11.15
61,11.05
62,10.95
63,10.81
64,10.73
65,10.62
66,10.51
67,10.40
68,10.35
69,10.18
70,10.13
71,9.97
72,9.89
73,9.79
74,9.67
75,9.60
76,9.50
77,9.39
78,9.33
79,9.24
80,9.15
81,9.03
82,8.97
83,8.88
84,8.77
85,8.72
86,8.64
87,8.57
88,8.49
89,8.36
90,8.32
91,8.26
92,8.17
93,8.13
94,8.08
95,8.01
96,7.89
97,7.84
98,7.78
99,7.74
100,7.70
101,7.66
102,7.63
104,7.59
105,7.55
106,7.52
107,7.48
108,7.43
109,7.40
110,7.38
111,7.35
112,7.30
113,7.24
114,7.18
115,7.15
117,7.11
118,7.08
119,7.04
120,6.96
121,6.92
123,6.84
124,6.80
125,6.73
126,6.66
128,6.63
129,6.59
130,6.53
131,6.46
133,6.40
134,6.36
135,6.32
137,6.23
138,6.16
140,6.12
141,6.08
142,6.04
144,5.99
145,5.92
147,5.87
148,5.84
150,5.78
151,5.74
153,5.70
154,5.67
156,5.63
157,5.59
159,5.55
160,5.48
162,5.35
164,5.28
165,5.25
167,5.21
169,5.17
170,5.14
172,5.06
174,4.93
175,4.88
177,4.84
179,4.81
181,4.74
183,4.70
184,4.65
186,4.58
188,4.55
190,4.48
192,4.42
194,4.36
196,4.33
198,4.30
200,4.22
202,4.14
204,4.07
206,4.04
208,4.01
210,3.99
212,3.98
214,3.93
216,3.85
218,3.82
221,3.80
223,3.77
225,3.73
227,3.66
229,3.65
232,3.63
234,3.57
236,3.48
239,3.44
241,3.43
244,3.36
246,3.29
248,3.28
251,3.28
253,3.21
256,3.13
259,3.13
261,3.12
264,3.06
266,3.01
269,2.98
272,2.98
274,2.95
277,2.87
280,2.83
283,2.83
286,2.80
288,2.72
291,2.69
294,2.68
297,2.56
300,2.53
303,2.52
306,2.44
309,2.38
312,2.37
316,2.27
319,2.23
322,2.21
325,2.15
328,2.10
332,2.00
335,1.98
338,1.94
342,1.86
345,1.85
349,1.74
352,1.71
356,1.66
359,1.58
363,1.56
366,1.53
370,1.44
374,1.41
377,1.37
381,1.31
385,1.27
389,1.19
393,1.15
397,1.11
401,1.04
405,1.02
409,0.94
413,0.89
417,0.87
421,0.82
425,0.77
430,0.74
434,0.67
438,0.62
443,0.58
447,0.55
451,0.45
456,0.44
460,0.44
465,0.37
470,0.31
474,0.31
479,0.29
484,0.24
489,0.20
494,0.19
499,0.14
504,0.12
509,0.13
514,0.12
519,0.07
524,0.04
529,0.03
535,-0.00
540,-0.04
545,-0.06
551,-0.09
556,-0.14
562,-0.16
568,-0.22
573,-0.26
579,-0.31
585,-0.33
591,-0.40
596,-0.44
602,-0.48
608,-0.50
615,-0.56
621,-0.64
627,-0.65
633,-0.74
639,-0.78
646,-0.88
652,-0.94
659,-1.01
665,-1.08
672,-1.16
679,-1.24
686,-1.36
692,-1.44
699,-1.52
706,-1.60
713,-1.68
721,-1.81
728,-1.85
735,-1.92
742,-1.95
750,-1.98
757,-1.96
765,-1.97
773,-1.93
780,-1.89
788,-1.83
796,-1.72
804,-1.65
812,-1.56
820,-1.45
828,-1.34
837,-1.23
845,-1.12
853,-1.06
862,-0.98
871,-0.94
879,-0.90
888,-0.96
897,-1.01
906,-1.03
915,-1.02
924,-0.99
933,-0.85
943,-0.72
952,-0.62
962,-0.44
971,-0.34
981,-0.22
991,-0.11
1001,0.01
1011,0.19
1021,0.30
1031,0.40
1041,0.52
1052,0.57
1062,0.60
1073,0.60
1084,0.57
1094,0.57
1105,0.57
1116,0.59
1128,0.54
1139,0.62
1150,0.65
1162,0.75
1173,0.76
1185,0.76
1197,0.82
1209,0.79
1221,0.76
1233,0.74
1246,0.66
1258,0.54
1271,0.47
1283,0.43
1296,0.39
1309,0.27
1322,0.12
1335,-0.05
1349,-0.15
1362,-0.36
1376,-0.51
1390,-0.78
1404,-1.09
1418,-1.40
1432,-1.67
1446,-1.92
1461,-2.11
1475,-2.26
1490,-2.36
1505,-2.54
1520,-2.77
1535,-3.03
1550,-3.34
1566,-3.62
1582,-3.85
1597,-4.08
1613,-4.33
1629,-4.52
1646,-4.71
1662,-4.89
1679,-5.10
1696,-5.25
1713,-5.41
1730,-5.55
1747,-5.70
1764,-5.82
1782,-5.86
1800,-5.95
1818,-5.98
1836,-6.03
1854,-6.06
1873,-6.12
1892,-6.14
1911,-6.10
1930,-6.08
1949,-6.05
1969,-5.96
1988,-5.83
2008,-5.73
2028,-5.64
2048,-5.55
2069,-5.41
2090,-5.31
2111,-5.09
2132,-4.88
2153,-4.70
2175,-4.67
2196,-4.64
2218,-4.64
2240,-4.61
2263,-4.47
2285,-4.26
2308,-4.09
2331,-3.83
2355,-3.44
2378,-2.99
2402,-2.48
2426,-2.05
2450,-1.57
2475,-1.10
2500,-0.62
2525,-0.23
2550,0.25
2575,0.71
2601,1.16
2627,1.56
2653,1.94
2680,2.31
2707,2.67
2734,2.96
2761,3.29
2789,3.63
2817,3.89
2845,4.22
2873,4.46
2902,4.70
2931,4.85
2960,4.97
2990,5.02
3020,4.94
3050,4.81
3080,4.69
3111,4.45
3142,4.13
3174,3.75
3206,3.41
3238,2.93
3270,2.51
3303,2.00
3336,1.54
3369,1.03
3403,0.49
3437,-0.08
3471,-0.67
3506,-1.17
3541,-1.64
3576,-1.95
3612,-2.01
3648,-1.92
3685,-1.78
3721,-1.61
3759,-1.50
3796,-1.52
3834,-1.61
3873,-1.75
3911,-1.63
3950,-1.43
3990,-1.44
4030,-1.67
4070,-2.03
4111,-2.36
4152,-2.65
4193,-2.90
4235,-3.15
4278,-3.36
4321,-3.52
4364,-3.66
4407,-3.72
4451,-3.57
4496,-3.14
4541,-2.70
4586,-2.04
4632,-1.63
4679,-1.39
4725,-1.43
4773,-1.59
4820,-1.69
4868,-1.74
4917,-1.79
4966,-1.82
5016,-1.80
5066,-1.72
5117,-1.58
5168,-1.39
5220,-1.09
5272,-0.78
5325,-0.32
5378,0.22
5432,0.78
5486,1.38
5541,1.99
5596,2.56
5652,3.08
5709,3.65
5766,4.15
5823,4.71
5882,5.29
5940,6.16
6000,6.79
6060,7.65
6120,8.50
6182,9.39
6244,10.31
6306,10.78
6369,11.10
6433,11.26
6497,11.28
6562,11.16
6628,10.87
6694,10.37
6761,9.74
6828,8.99
6897,8.22
6966,7.48
7035,6.84
7106,6.31
7177,5.60
7249,5.31
7321,5.15
7394,5.05
7468,4.98
7543,5.05
7618,5.24
7694,5.54
7771,5.92
7849,6.39
7928,6.84
8007,7.29
8087,7.68
8168,8.01
8250,8.16
8332,8.17
8415,8.16
8499,7.36
8584,6.44
8670,5.45
8757,4.54
8845,3.46
8933,2.31
9022,1.13
9113,-0.23
9204,-1.78
9296,-3.48
9389,-5.53
9483,-7.85
9577,-10.25
9673,-12.47
9770,-14.00
9868,-15.56
9966,-16.95
10066,-17.49
10167,-16.47
10268,-14.82
10371,-13.45
10475,-12.30
10579,-11.36
10685,-10.47
10792,-9.49
10900,-8.29
11009,-7.19
11119,-6.18
11230,-5.41
11343,-4.96
11456,-4.78
11571,-4.62
11686,-4.18
11803,-3.48
11921,-2.64
12040,-1.99
12161,-1.68
12282,-1.56
12405,-1.48
12529,-0.96
12655,-0.72
12781,-0.71
12909,-1.29
13038,-2.21
13168,-3.27
13300,-4.39
13433,-5.18
13567,-5.93
13703,-6.53
13840,-7.10
13978,-7.74
14118,-8.49
14259,-9.32
14402,-10.31
14546,-11.41
14692,-12.62
14838,-13.77
14987,-14.80
15137,-15.65
15288,-15.98
15441,-15.80
15595,-15.24
15751,-14.31
15909,-13.22
16068,-12.06
16229,-10.99
16391,-9.97
16555,-9.10
16720,-8.39
16888,-7.89
17056,-7.62
17227,-7.60
17399,-7.74
17573,-7.91
17749,-8.21
17926,-8.52
18106,-9.02
18287,-9.81
18470,-11.10
18654,-12.63
18841,-14.21
19029,-16.18
19220,-18.64
19412,-22.02
19606,-25.02
19802,-26.50
20000,-27.77
