frequency,raw,error,smoothed,error_smoothed,equalization,equalized_raw,equalized_smoothed,target
20,-29.233854841990606,-30.019741042836475,-29.20399369433964,-29.989864547959375,5.999999999999999,-23.233854841990606,-23.20399369433964,0.785886200845868
21,-28.534316374162827,-29.320183622771108,-28.510081892740995,-29.29595149560089,6.0,-22.534316374162827,-22.510081892740995,0.7858672486082812
22,-27.752594195558228,-28.53843665219466,-27.83558757952852,-28.621442350569815,6.0,-21.752594195558228,-21.83558757952852,0.7858424566364333
23,-27.173442430731722,-27.95925284943318,-27.18051075470222,-27.966337112866153,5.999999999999999,-21.173442430731722,-21.18051075470222,0.7858104187014585
24,-26.525141052566276,-27.310910528220408,-26.54485141826206,-27.330635782489875,5.999999999999998,-20.525141052566276,-20.544851418262063,0.7857694756541327
25,-25.917480117522192,-26.70319780150086,-25.92929581908048,-26.715026084648123,6.000000000000001,-19.917480117522192,-19.92929581908048,0.7857176839786661
26,-25.338441800177897,-26.124094582227006,-25.333020575269224,-26.118683182886755,6.0,-19.338441800177897,-19.333020575269224,0.7856527820491079
27,-24.80235304703432,-25.58792520107186,-24.755302076444018,-25.54088189817224,6.0,-18.80235304703432,-18.755302076444018,0.7855721540375402
28,-24.171830343910994,-24.957303135339703,-24.195159415971055,-24.98063874024662,6.0,-18.171830343910994,-18.195159415971055,0.785472791428711
29,-23.65225165224367,-24.437602904345123,-23.651462804047483,-24.436820299684094,6.000000000000001,-17.65225165224367,-17.651462804047483,0.7853512521014525
30,-23.139569904331164,-23.924773521276176,-23.12331212689037,-23.908522383755827,6.0,-17.139569904331164,-17.12331212689037,0.7852036169450121
31,-22.59908702510157,-23.38411246908839,-22.609911884850284,-23.394944747365074,5.999999999999999,-16.59908702510157,-16.609911884850284,0.785025443986819
32,-22.087868658743453,-22.872680378762038,-22.110631946982053,-22.895452005954485,5.999999999999999,-16.087868658743453,-16.110631946982053,0.784811720018586
33,-21.595477712915397,-22.380034522635178,-21.624966942385285,-22.40953302556817,6.0,-15.595477712915397,-15.624966942385285,0.7845568097197813
34,-21.221364616832453,-22.005619019124268,-21.15244583970528,-21.936710398426655,5.999999999999998,-15.221364616832455,-15.152445839705281,0.7842544022918139
35,-20.66277874157405,-21.446676197207132,-20.692588265478115,-21.47649671177949,6.000000000000001,-14.662778741574051,-14.692588265478115,0.7838974556330802
36,-20.292099661431184,-21.075577799535818,-20.244829591609566,-21.02831953267666,5.999999999999998,-14.292099661431186,-14.244829591609568,0.7834781381046327
37,-19.793104727084017,-20.57609249504308,-19.80846945579553,-20.591469843441665,6.0,-13.793104727084017,-13.808469455795532,0.7829877679590638
38,-19.318579470938488,-20.100996221470165,-19.382667646589923,-20.165097856826165,6.000000000000001,-13.318579470938488,-13.382667646589923,0.7824167505316759
39,-18.979816600315736,-19.761571113639196,-18.966509901349447,-19.748278743308482,6.0,-12.979816600315736,-12.966509901349447,0.7817545133234582
40,-18.57293530176072,-19.353924740901157,-18.55916492529907,-19.340169588151493,5.999999999999999,-12.572935301760719,-12.559164925299068,0.7809894391404364
41,-18.166984697251888,-18.947093494745758,-18.16009250830698,-18.940217444107983,5.999999999999999,-12.166984697251888,-12.160092508306981,0.7801087974938694
42,-17.80320288318434,-18.582301557695533,-17.769221533166924,-18.54833727232863,6.000000000000003,-11.803202883184337,-11.76922153316692,0.7790986745111934
43,-17.40006076915633,-18.178004670815252,-17.386998900228882,-18.164960797424076,6.0,-11.40006076915633,-11.386998900228882,0.7779439016589222
44,-17.004862230003894,-17.781490213640293,-17.014239813125158,-17.790886720810995,6.0,-11.004862230003894,-11.014239813125158,0.7766279836363985
45,-16.701946907996884,-17.477079933860725,-16.651789739967498,-17.42694260873708,5.999999999999998,-10.701946907996886,-10.6517897399675,0.7751330258638407
46,-16.169621617036007,-16.94306127909585,-16.300099560472226,-17.073559966406695,6.0,-10.169621617036007,-10.300099560472226,0.7734396620598432
47,-15.93749164732506,-16.70901862980787,-15.958876283830506,-16.730424883682673,6.0,-9.93749164732506,-9.958876283830506,0.7715269824828064
48,-15.659447848351846,-16.428820311849666,-15.626966005399126,-16.396360921231885,6.0,-9.659447848351846,-9.626966005399126,0.7693724634978194
49,-15.285326550009751,-16.052278449235263,-15.302546598217162,-16.069521733660277,5.999999999999999,-9.285326550009753,-9.302546598217162,0.7669518992255115
50,-15.046885208816091,-15.811124544948271,-14.983585999312513,-15.747849290380936,5.999999999999999,-9.046885208816093,-8.983585999312513,0.7642393361321806
51,-14.715578642041717,-15.476785653572625,-14.668410832257084,-15.42964243662653,5.999999999999999,-8.715578642041717,-8.668410832257084,0.761207011530908
52,-14.341394779870276,-15.099220076951141,-14.356179709210068,-15.114030138926877,5.999999999999999,-8.341394779870278,-8.356179709210068,0.7578252970808661
53,-14.000913293195055,-14.754975941690823,-14.047089423625494,-14.801177627474257,6.000000000000002,-8.000913293195053,-8.047089423625492,0.7540626484957689
54,-13.798179344307293,-14.548064907108575,-13.742246153051006,-14.492157556159015,6.0,-7.798179344307293,-7.742246153051006,0.7498855628012828
55,-13.43527702266634,-14.180535567279964,-13.443262118142059,-14.188546627879887,6.0,-7.435277022666339,-7.443262118142059,0.7452585446136255
56,-13.114493719547108,-13.854637802592478,-13.151736108227336,-13.891906097078827,6.000000000000002,-7.114493719547106,-7.151736108227334,0.74014408304537
57,-12.864822907429087,-13.599325548406233,-12.868805659675445,-13.603333937493627,5.999999999999999,-6.864822907429088,-6.868805659675446,0.7345026409771456
58,-12.538863497980607,-13.267156156542722,-12.594913580397396,-13.323231370338414,6.0,-6.538863497980607,-6.594913580397396,0.7282926585621143
59,-12.36031815227872,-13.081788725228723,-12.329838303271867,-13.05133323769586,6.000000000000002,-6.360318152278719,-6.329838303271865,0.7214705729500022
60,-12.105093816193929,-12.819084672518294,-12.072939215351694,-12.786953370083056,6.000000000000001,-6.105093816193928,-6.072939215351693,0.7139908563243651
61,-11.876528354630079,-12.582334429065433,-11.823503620340563,-12.529331607871782,6.000000000000002,-5.876528354630077,-5.823503620340562,0.7058060744353538
62,-11.555453741915636,-12.252320709789988,-11.581069877838551,-12.277957022316443,6.0,-5.5554537419156365,-5.5810698778385515,0.6968669678743509
63,-11.29741666721834,-11.984539225587994,-11.345633725619376,-12.03277434473614,6.0,-5.297416667218339,-5.3456337256193756,0.6871225583696545
64,-11.127815615345282,-11.804335897721552,-11.117696925738164,-11.794232746957892,5.999999999999999,-5.127815615345283,-5.117696925738165,0.6765202823762704
65,-10.896334239189247,-11.561340393369056,-10.898163577525683,-11.563182318163948,5.999999999999999,-4.896334239189248,-4.8981635775256835,0.665006154179808
66,-10.730758984495317,-11.383283945121185,-10.688115706327736,-11.34064984929832,6.000000000000002,-4.730758984495315,-4.688115706327734,0.6525249606258687
67,-10.491426827197404,-11.13044731661089,-10.488508700402829,-11.127534499629416,5.999999999999999,-4.491426827197405,-4.4885087004028295,0.6390204894134861
68,-10.241980147648151,-10.866415940293617,-10.299832232884974,-10.924268983516361,6.000000000000001,-4.2419801476481505,-4.299832232884973,0.6244357926454649
69,-10.101322293557034,-10.710035780558835,-10.121794814497019,-10.730504423477594,5.999999999999999,-4.101322293557035,-4.12179481449702,0.6087134870018005
70,-9.97115979017453,-10.56295588166197,-9.953109467322426,-10.544896361391022,6.0,-3.9711597901745304,-3.9531094673224256,0.5917960914874398
71,-9.775729284854505,-10.349355688051318,-9.79146855651165,-10.36507996811865,6.0,-3.7757292848545045,-3.7914685565116493,0.5736264031968132
72,-9.629452120822732,-10.183600031753684,-9.633776844708462,-10.187903518797619,5.999999999999999,-3.629452120822733,-3.6337768447084633,0.5541479109309515
73,-9.45777343092006,-9.991078676717827,-9.476652596896226,-10.00992995654454,6.0,-3.45777343092006,-3.4766525968962263,0.5333052457977656
74,-9.350738371569033,-9.86178303869333,-9.317116727941524,-9.82812652595614,6.000000000000001,-3.350738371569032,-3.3171167279415235,0.5110446671242976
75,-9.197332034958645,-9.684646616076629,-9.153302086698751,-9.640574554650595,5.999999999999998,-3.197332034958647,-3.153302086698753,0.4873145811179831
76,-9.040134018071742,-9.50220010681478,-8.984971828312478,-9.446988325506997,6.000000000000003,-3.040134018071739,-2.9849718283124753,0.46206608874303745
77,-8.843193089241087,-9.27844664748529,-8.813668343936413,-9.24886453412789,6.000000000000001,-2.843193089241086,-2.8136683439364125,0.4352535582442023
78,-8.61832272303013,-9.025157939704936,-8.642423276188968,-9.04919293587267,5.999999999999999,-2.61832272303013,-2.6424232761889686,0.4068352166748075
79,-8.445063903797742,-8.821837657494571,-8.475108080262576,-8.851807725328726,6.000000000000002,-2.44506390379774,-2.475108080262574,0.3767737536968294
80,-8.303336654890543,-8.648373584740535,-8.315632887981824,-8.660587378978807,6.0,-2.3033366548905434,-2.315632887981824,0.3450369298499911
81,-8.114362305333831,-8.425960485806712,-8.167251322023459,-8.478760350514143,6.0,-2.114362305333831,-2.167251322023459,0.311598180472882
82,-8.036297364177214,-8.31273456972063,-8.032173881364937,-8.308518767200422,6.0,-2.036297364177214,-2.032173881364937,0.276437205543417
83,-7.869334953393066,-8.108875488326554,-7.911554599172244,-8.151004355049812,6.000000000000001,-1.8693349533930652,-1.9115545991722431,0.23954053493348715
84,-7.842692272377557,-8.043594330366835,-7.805756909800907,-8.006572524590505,6.000000000000001,-1.8426922723775565,-1.8057569098009063,0.20090205798927796
85,-7.789171358678567,-7.949694864677858,-7.7146981257525855,-7.875135029092902,6.0,-1.7891713586785674,-1.7146981257525855,0.16052350599929088
86,-7.627485144636487,-7.745900020674672,-7.638067204453803,-7.75637805425132,6.0,-1.6274851446364869,-1.6380672044538027,0.11841487603818557
87,-7.565835237446648,-7.640430022358142,-7.57530663975893,-7.6497491577000485,5.999999999999999,-1.5658352374466489,-1.5753066397589306,0.07459478491149385
88,-7.451078982018335,-7.480169724519303,-7.525395131698194,-7.554250943239827,6.0,-1.451078982018335,-1.5253951316981942,0.02909074250096877
89,-7.436566769177576,-7.418506103915746,-7.486587266801048,-7.468195498991946,6.0,-1.4365667691775759,-1.486587266801048,-0.01806066526182981
90,-7.436035875763078,-7.369222183479928,-7.456299287360813,-7.389101918834876,6.0,-1.4360358757630776,-1.456299287360813,-0.0668136922831497
91,-7.489848667662406,-7.372735213741997,-7.431262738558505,-7.313848463916081,6.0,-1.4898486676624056,-1.4312627385585053,-0.11711345392040906
92,-7.4304962892460775,-7.261600229997396,-7.407938198992818,-7.2390619311159,5.999999999999998,-1.4304962892460793,-1.4079381989928201,-0.16889605924868167
93,-7.402704729514525,-7.180615872810801,-7.383057351737287,-7.161609562176734,6.000000000000002,-1.4027047295145234,-1.3830573517372855,-0.22208885670372425
94,-7.432279514755543,-7.155668721339863,-7.354106318762616,-7.079015584809705,6.0,-1.4322795147555434,-1.3541063187626161,-0.27661079341568096
95,-7.323499066058191,-6.991126180051078,-7.319599078003613,-6.989673524187005,6.0,-1.323499066058191,-1.3195990780036126,-0.33237288600711246
96,-7.207931141891957,-6.818652343849356,-7.279089771353207,-6.892833062393864,5.999999999999998,-1.207931141891959,-1.2790897713532088,-0.38927879804260135
97,-7.160952575024602,-6.713727058248525,-7.232979362147257,-6.788443120950056,5.999999999999998,-1.160952575024604,-1.2329793621472591,-0.447225516776077
98,-7.199480884407251,-6.6933767649674385,-7.182232961681281,-6.676976540613536,6.000000000000001,-1.19948088440725,-1.1822329616812803,-0.5061041194398124
99,-7.2197567467740615,-6.65395612962749,-7.1281189255810435,-6.559329872368615,6.0,-1.2197567467740615,-1.1281189255810435,-0.5658006171465715
100,-7.160267880409258,-6.534071017792665,-7.0720265338089945,-6.436811212964413,5.999999999999999,-1.1602678804092585,-1.0720265338089954,-0.6261968626165926
101,-6.944725426535455,-6.257553920070854,-7.01535639723947,-6.3111522545425744,5.999999999999999,-0.9447254265354559,-1.0153563972394712,-0.6871715064646011
102,-6.82628253250399,-6.077681546760248,-6.959445712603593,-6.184455191390764,5.985782278105997,-0.8405002543979929,-0.9736634344975954,-0.7486009857437428
104,-6.9675119979275975,-6.0951868448873086,-6.90549887974907,-6.059021028686471,5.909199247711101,-1.0583127502164968,-0.9962996320379691,-0.8723251530402893
105,-6.983532163540528,-6.049161505111708,-6.854521949527745,-5.937073958096015,5.8485464053102865,-1.1349857582302416,-1.005975544217459,-0.9343706584288203
106,-6.659586174171951,-5.663211605401335,-6.807276575266972,-5.820452108449544,5.777551888563158,-0.8820342856087926,-1.0297246867038137,-0.9963745687706158
107,-6.741658777188923,-5.683441738563936,-6.764259936240818,-5.710347564355457,5.696994842953526,-1.0446639342353974,-1.0672650932872925,-1.0582170386249867
108,-6.735985547946004,-5.616203854254357,-6.725690541205122,-5.607147894281046,5.607147894281047,-1.1288376536649567,-1.118542646924075,-1.1197816936916474
109,-6.748992105534193,-5.5680357053268335,-6.691461857607594,-5.510384341130658,5.510384341130658,-1.2386077644035351,-1.181077516476936,-1.1809564002073594
110,-6.7246893166070665,-5.483055363006393,-6.661042232869036,-5.418764632045443,5.418764632045442,-1.3059246845616244,-1.242277600823594,-1.2416339536006729
111,-6.643626754109308,-5.341914074340092,-6.633354887709226,-5.33028103062556,5.33028103062556,-1.3133457234837476,-1.3030738570836657,-1.301712679769215
112,-6.4544820043636335,-5.093385059793379,-6.606733810471836,-5.242419333255543,5.242419333255543,-1.2120626711080904,-1.3643144772162925,-1.3610969445702543
113,-6.4633580115080225,-5.0436604422110065,-6.579071166078963,-5.152511587260884,5.152511587260885,-1.3108464242471376,-1.426559578818078,-1.419697569297016
114,-6.609466229963575,-5.132034077981327,-6.548217949183442,-5.058242540175384,5.058242540175383,-1.5512236897881913,-1.4899754090080588,-1.4774321519822475
115,-6.744849669698517,-5.210624373427239,-6.51258195138862,-4.958238076239413,4.958238076239414,-1.7866115934591038,-1.5543438751492067,-1.5342252962712783
117,-6.534843019702358,-4.890121552294625,-6.471737422284413,-4.852571181785223,4.852571181785222,-1.6822718379171366,-1.6191662404991911,-1.644721467407734
118,-6.2650128986944775,-4.566703324831474,-6.426789777349551,-4.742975164169936,4.742975164169935,-1.5220377345245426,-1.6838146131796163,-1.698309573863003
119,-6.358435190788425,-4.6077089054377165,-6.3802824424918025,-4.63260384366671,4.632603843666713,-1.7258313471217122,-1.7476785988250896,-1.750726285350709
120,-6.3937833319131485,-4.591851586874163,-6.335595112779449,-4.525328265108335,4.525328265108336,-1.8684550668048123,-1.8102668476711132,-1.8019317450389858
121,-6.386318447892508,-4.534425635799973,-6.2959984298263105,-4.42475113748592,4.42475113748592,-1.961567310406588,-1.8712472923403904,-1.8518928120925344
123,-6.11703229785523,-4.169051111220306,-6.263697538671098,-4.333262711556081,4.33326271155608,-1.78376958629915,-1.9304348271150173,-1.947981186634924
124,-6.1092708348761615,-4.115197569399015,-6.23922980233279,-4.251478702905042,4.251478702905041,-1.8577921319711201,-1.987751099427749,-1.9940732654771458
125,-6.250361736378119,-4.211511926770022,-6.221453376062366,-4.178270211914112,4.178270211914112,-2.072091524464007,-2.043183164148253,-2.038849809608097
126,-6.2556401898407366,-4.173333498438857,-6.208122476631393,-4.1113646063525096,4.111364606352508,-2.1442755834882288,-2.0967578702788856,-2.0823066914018797
128,-6.2490516651655055,-4.0837834957629084,-6.196797753447958,-4.04826378063726,4.048263780637261,-2.2007878845282445,-2.1485339728106974,-2.1652681694025966
129,-6.242942074522794,-4.038155509847991,-6.185703132174034,-3.9871011953757374,3.9871011953757387,-2.2558408791470557,-2.198601936798295,-2.204786564674803
130,-6.2372876660733985,-3.994275536141846,-6.174179512078611,-3.927101703052317,3.9271017030523176,-2.310185963021081,-2.2470778090262935,-2.2430121299315524
131,-6.2320658744995425,-3.9521053717601364,-6.162578550745584,-3.868495262199289,3.868495262199289,-2.3635706123002533,-2.294083288546295,-2.279960502739406
133,-5.945664732469258,-3.5955626709736,-6.151692203693523,-3.8119772779920664,3.8119772779920673,-2.133687454477191,-2.339714925701456,-2.3501020614956585
134,-5.9855560754112505,-3.6022167298028607,-6.1420092246945694,-3.7579947458218004,3.7579947458218013,-2.227561329589449,-2.384014478872768,-2.38333934560839
135,-6.1185285928420985,-3.703141596935145,-6.1331458634622855,-3.7061912736107963,3.706191273610796,-2.4123373192313027,-2.4269545898514897,-2.4153869959069536
137,-6.296295254420206,-3.8202743657661515,-6.123700244455186,-3.655252167871695,3.6552521678716947,-2.6410430865485117,-2.4684480765834915,-2.476020888654055
138,-6.293649573682924,-3.788985712839464,-6.111584689339702,-3.603206006180371,3.6032060061803715,-2.690443567502552,-2.508378683159331,-2.5046638608434595
140,-6.010050289486898,-3.4513001508915613,-6.094694521712219,-3.5480532694342197,3.54805326943422,-2.461997020052678,-2.5466412522779986,-2.558750138595337
141,-6.008711190127618,-3.424456736106465,-6.071657893852121,-3.4884828261744767,3.4884828261744767,-2.520228363953141,-2.5831750676776446,-2.5842544540211527
142,-6.007971916898384,-3.399197846326263,-6.042408228760529,-3.424430516261434,3.4244305162614346,-2.5835414006369497,-2.617977712499094,-2.6087740705721214
144,-6.0077342412615895,-3.352750976634328,-6.008404265613944,-3.3573081276195182,3.3573081276195182,-2.6504261136420713,-2.6510961379944256,-2.6549832646272615
145,-6.00786046146621,-3.3311258544437736,-5.972441675810446,-3.2898398204615376,3.2898398204615376,-2.7180206410046726,-2.682601855348908,-2.6767346070224365
147,-6.008187943142646,-3.2905047223325954,-5.9381089583407825,-3.225545618284138,3.225545618284137,-2.782642324858509,-2.7125633400566453,-2.7176832208100508
148,-6.0085486567096105,-3.271608373256311,-5.909014403326481,-3.1679859763710203,3.1679859763710194,-2.840562680338591,-2.7410284269554612,-2.7369402834532996
150,-5.727182171558603,-2.9540166341328207,-5.88795116555104,-3.119927648712623,3.1199276487126233,-2.6072545228459796,-2.7680235168384164,-2.773165537425782
151,-5.727194804773494,-2.937004619125054,-5.876186917169376,-3.082619141501514,3.0826191415015143,-2.6445756632719797,-2.7935677756678614,-2.79019018564844
153,-5.9079589828420405,-3.0857593182558487,-5.873064815281856,-3.055371304509409,3.055371304509408,-2.8525876783326325,-2.8176935107724477,-2.8221996645861918
154,-5.907427337467417,-3.070190519889228,-5.876066732450155,-3.03560502830811,3.0356050283081095,-2.8718223091593074,-2.840461704142046,-2.837236817578189
156,-5.906738371814549,-3.041237199889288,-5.881398058111594,-3.0194332602183325,3.0194332602183325,-2.8873051115962163,-2.861964797893261,-2.8655011719252608
157,-5.90607685827737,-3.027300681283228,-5.885009572029917,-3.002694317427992,3.002694317427991,-2.9033825408493787,-2.882315254601926,-2.878776176994142
159,-5.905695066156465,-3.0019694797106533,-5.883812026543104,-2.9821871036418885,2.982187103641889,-2.923507962514576,-2.9016249229012154,-2.9037255864458116
160,-5.905886896493848,-2.990443708751098,-5.876722007405201,-2.9567379818693693,2.9567379818693693,-2.9491489146244785,-2.9199840255358316,-2.9154431877427496
162,-5.906949948198992,-2.96948344607347,-5.865165773467425,-2.9277174418119243,2.9277174418119243,-2.979232506387068,-2.937448331655501,-2.937466502125522
