frequency,raw
20.00,-5.57
20.20,-5.54
20.40,-5.50
20.61,-5.44
20.81,-5.39
21.02,-5.35
21.23,-5.26
21.44,-5.22
21.66,-5.18
21.87,-5.13
22.09,-5.07
22.31,-5.01
22.54,-4.96
22.76,-4.90
22.99,-4.83
23.22,-4.79
23.45,-4.74
23.69,-4.69
23.92,-4.62
24.16,-4.57
24.40,-4.52
24.65,-4.48
24.89,-4.44
25.14,-4.39
25.39,-4.35
25.65,-4.30
25.91,-4.27
26.16,-4.22
26.43,-4.18
26.69,-4.14
26.96,-4.11
27.23,-4.06
27.50,-4.03
27.77,-4.00
28.05,-3.95
28.33,-3.92
28.62,-3.89
28.90,-3.86
29.19,-3.83
29.48,-3.80
29.78,-3.77
30.08,-3.73
30.38,-3.69
30.68,-3.66
30.99,-3.63
31.30,-3.60
31.61,-3.57
31.93,-3.54
32.24,-3.51
32.57,-3.47
32.89,-3.43
33.22,-3.40
33.55,-3.37
33.89,-3.34
34.23,-3.31
34.57,-3.28
34.92,-3.25
35.27,-3.21
35.62,-3.17
35.97,-3.14
36.33,-3.10
36.70,-3.06
37.06,-3.03
37.43,-2.97
37.81,-2.94
38.19,-2.89
38.57,-2.84
38.95,-2.79
39.34,-2.75
39.74,-2.69
40.14,-2.62
40.54,-2.58
40.94,-2.53
41.35,-2.47
41.76,-2.41
42.18,-2.38
42.60,-2.35
43.03,-2.32
43.46,-2.30
43.90,-2.26
44.33,-2.23
44.78,-2.20
45.23,-2.17
45.68,-2.14
46.13,-2.10
46.60,-2.08
47.06,-2.04
47.53,-2.04
48.01,-1.99
48.49,-1.98
48.97,-1.95
49.46,-1.94
49.96,-1.91
50.46,-1.90
50.96,-1.86
51.47,-1.84
51.99,-1.82
52.51,-1.79
53.03,-1.78
53.56,-1.73
54.10,-1.69
54.64,-1.66
55.18,-1.60
55.74,-1.54
56.29,-1.49
56.86,-1.42
57.42,-1.36
58.00,-1.29
58.58,-1.22
59.16,-1.14
59.76,-1.08
60.35,-1.02
60.96,-0.95
61.57,-0.89
62.18,-0.84
62.80,-0.78
63.43,-0.72
64.07,-0.69
64.71,-0.64
65.35,-0.61
66.01,-0.58
66.67,-0.56
67.33,-0.54
68.01,-0.52
68.69,-0.52
69.37,-0.52
70.07,-0.48
70.77,-0.48
71.48,-0.48
72.19,-0.48
72.91,-0.48
73.64,-0.48
74.38,-0.48
75.12,-0.48
75.87,-0.48
76.63,-0.48
77.40,-0.48
78.17,-0.48
78.95,-0.48
79.74,-0.48
80.54,-0.48
81.35,-0.48
82.16,-0.48
82.98,-0.48
83.81,-0.48
84.65,-0.45
85.50,-0.45
86.35,-0.45
87.22,-0.48
88.09,-0.48
88.97,-0.48
89.86,-0.48
90.76,-0.48
91.66,-0.48
92.58,-0.48
93.51,-0.52
94.44,-0.52
95.39,-0.52
96.34,-0.52
97.30,-0.52
98.28,-0.52
99.26,-0.52
100.25,-0.52
101.25,-0.52
102.27,-0.52
103.29,-0.53
104.32,-0.56
105.37,-0.56
106.42,-0.56
107.48,-0.56
108.56,-0.61
109.64,-0.61
110.74,-0.61
111.85,-0.61
112.97,-0.61
114.10,-0.61
115.24,-0.61
116.39,-0.61
117.55,-0.58
118.73,-0.56
119.92,-0.56
121.12,-0.56
122.33,-0.56
123.55,-0.56
124.79,-0.56
126.03,-0.56
127.29,-0.56
128.57,-0.56
129.85,-0.56
131.15,-0.58
132.46,-0.58
133.79,-0.58
135.12,-0.58
136.48,-0.58
137.84,-0.58
139.22,-0.58
140.61,-0.58
142.02,-0.58
143.44,-0.59
144.87,-0.61
146.32,-0.61
147.78,-0.61
149.26,-0.61
150.75,-0.61
152.26,-0.61
153.78,-0.61
155.32,-0.63
156.88,-0.63
158.44,-0.65
160.03,-0.65
161.63,-0.63
163.24,-0.63
164.88,-0.61
166.53,-0.61
168.19,-0.61
169.87,-0.61
171.57,-0.61
173.29,-0.61
175.02,-0.61
176.77,-0.61
178.54,-0.61
180.32,-0.61
182.13,-0.61
183.95,-0.61
185.79,-0.61
187.65,-0.61
189.52,-0.61
191.42,-0.61
193.33,-0.61
195.27,-0.61
197.22,-0.61
199.19,-0.61
201.18,-0.61
203.19,-0.61
205.23,-0.61
207.28,-0.61
209.35,-0.61
211.44,-0.61
213.56,-0.58
215.69,-0.57
217.85,-0.56
220.03,-0.56
222.23,-0.56
224.45,-0.56
226.70,-0.55
228.96,-0.52
231.25,-0.52
233.57,-0.52
235.90,-0.52
238.26,-0.50
240.64,-0.48
243.05,-0.48
245.48,-0.48
247.93,-0.48
250.41,-0.48
252.92,-0.48
255.45,-0.43
258.00,-0.43
260.58,-0.43
263.19,-0.43
265.82,-0.41
268.48,-0.39
271.16,-0.39
273.87,-0.36
276.61,-0.35
279.38,-0.35
282.17,-0.30
284.99,-0.30
287.84,-0.28
290.72,-0.26
293.63,-0.25
296.57,-0.22
299.53,-0.22
302.53,-0.22
305.55,-0.18
308.61,-0.17
311.69,-0.17
314.81,-0.17
317.96,-0.16
321.14,-0.13
324.35,-0.13
327.59,-0.13
330.87,-0.13
334.18,-0.15
337.52,-0.17
340.90,-0.17
344.30,-0.17
347.75,-0.22
351.23,-0.22
354.74,-0.24
358.28,-0.26
361.87,-0.26
365.49,-0.26
369.14,-0.26
372.83,-0.26
376.56,-0.22
380.33,-0.22
384.13,-0.18
387.97,-0.17
391.85,-0.13
395.77,-0.13
399.73,-0.09
403.72,-0.05
407.76,-0.04
411.84,0.00
415.96,0.01
420.12,0.04
424.32,0.07
428.56,0.09
432.85,0.09
437.18,0.09
441.55,0.09
445.96,0.06
450.42,0.01
454.93,-0.07
459.48,-0.18
464.07,-0.32
468.71,-0.49
473.40,-0.67
478.13,-0.89
482.91,-1.09
487.74,-1.31
492.62,-1.50
497.55,-1.67
502.52,-1.79
507.55,-1.90
512.62,-1.94
517.75,-1.93
522.93,-1.88
528.16,-1.82
533.44,-1.70
538.77,-1.60
544.16,-1.50
549.60,-1.40
555.10,-1.31
560.65,-1.21
566.25,-1.15
571.92,-1.07
577.64,-1.01
583.41,-0.95
589.25,-0.89
595.14,-0.82
601.09,-0.74
607.10,-0.65
613.17,-0.59
619.30,-0.48
625.50,-0.39
631.75,-0.32
638.07,-0.24
644.45,-0.19
650.89,-0.17
657.40,-0.17
663.98,-0.18
670.62,-0.24
677.32,-0.29
684.10,-0.35
690.94,-0.41
697.85,-0.45
704.83,-0.48
711.87,-0.50
718.99,-0.49
726.18,-0.48
733.44,-0.45
740.78,-0.41
748.19,-0.36
755.67,-0.30
763.23,-0.24
770.86,-0.19
778.57,-0.15
786.35,-0.09
794.22,-0.02
802.16,0.04
810.18,0.11
818.28,0.16
826.46,0.23
834.73,0.29
843.08,0.35
851.51,0.41
860.02,0.46
868.62,0.52
877.31,0.55
886.08,0.56
894.94,0.56
903.89,0.51
912.93,0.47
922.06,0.41
931.28,0.33
940.59,0.26
950.00,0.17
959.50,0.11
969.09,0.06
978.78,0.04
988.57,0.00
998.46,0.00
1008.44,0.00
1018.53,0.00
1028.71,0.00
1039.00,0.00
1049.39,-0.02
1059.88,-0.04
1070.48,-0.08
1081.19,-0.11
1092.00,-0.16
1102.92,-0.19
1113.95,-0.24
1125.09,-0.27
1136.34,-0.30
1147.70,-0.35
1159.18,-0.39
1170.77,-0.42
1182.48,-0.45
1194.30,-0.50
1206.25,-0.53
1218.31,-0.56
1230.49,-0.59
1242.80,-0.62
1255.22,-0.65
1267.78,-0.68
1280.45,-0.69
1293.26,-0.74
1306.19,-0.74
1319.25,-0.77
1332.45,-0.78
1345.77,-0.78
1359.23,-0.78
1372.82,-0.81
1386.55,-0.82
1400.41,-0.82
1414.42,-0.87
1428.56,-0.91
1442.85,-0.94
1457.28,-0.99
1471.85,-1.02
1486.57,-1.04
1501.43,-1.04
1516.45,-1.04
1531.61,-0.99
1546.93,-0.96
1562.40,-0.91
1578.02,-0.87
1593.80,-0.85
1609.74,-0.82
1625.84,-0.82
1642.10,-0.82
1658.52,-0.82
1675.10,-0.87
1691.85,-0.87
1708.77,-0.91
1725.86,-0.91
1743.12,-0.95
1760.55,-0.95
1778.15,-0.95
1795.94,-0.90
1813.90,-0.85
1832.03,-0.80
1850.36,-0.74
1868.86,-0.67
1887.55,-0.59
1906.42,-0.50
1925.49,-0.43
1944.74,-0.36
1964.19,-0.30
1983.83,-0.26
2003.67,-0.26
2023.71,-0.21
2043.94,-0.17
2064.38,-0.08
2085.03,0.06
2105.88,0.23
2126.94,0.47
2148.20,0.73
2169.69,1.03
2191.38,1.34
2213.30,1.65
2235.43,1.94
2257.78,2.22
2280.36,2.50
2303.17,2.75
2326.20,3.01
2349.46,3.27
2372.95,3.53
2396.68,3.78
2420.65,4.04
2444.86,4.30
2469.31,4.56
2494.00,4.79
2518.94,5.02
2544.13,5.23
2569.57,5.41
2595.27,5.58
2621.22,5.74
2647.43,5.89
2673.90,6.07
2700.64,6.24
2727.65,6.40
2754.93,6.57
2782.48,6.73
2810.30,6.89
2838.40,7.02
2866.79,7.14
2895.46,7.25
2924.41,7.37
2953.65,7.43
2983.19,7.51
3013.02,7.56
3043.15,7.60
3073.58,7.65
3104.32,7.71
3135.36,7.75
3166.72,7.80
3198.38,7.85
3230.37,7.90
3262.67,7.95
3295.30,7.99
3328.25,8.04
3361.53,8.06
3395.15,8.06
3429.10,8.05
3463.39,8.00
3498.03,7.95
3533.01,7.87
3568.34,7.80
3604.02,7.71
3640.06,7.63
3676.46,7.54
3713.22,7.45
3750.36,7.38
3787.86,7.30
3825.74,7.24
3864.00,7.18
3902.64,7.10
3941.66,7.01
3981.08,6.89
4020.89,6.77
4061.10,6.61
4101.71,6.43
4142.73,6.22
4184.15,6.00
4226.00,5.74
4268.26,5.47
4310.94,5.20
4354.05,4.92
4397.59,4.63
4441.56,4.32
4485.98,4.03
4530.84,3.74
4576.15,3.46
4621.91,3.24
4668.13,3.03
4714.81,2.86
4761.96,2.72
4809.58,2.62
4857.67,2.55
4906.25,2.49
4955.31,2.49
5004.87,2.55
5054.91,2.65
5105.46,2.79
5156.52,2.97
5208.08,3.20
5260.16,3.43
5312.77,3.68
5365.89,3.91
5419.55,4.10
5473.75,4.25
5528.49,4.36
5583.77,4.46
5639.61,4.53
5696.00,4.57
5752.96,4.61
5810.49,4.67
5868.60,4.73
5927.28,4.81
5986.56,4.89
6046.42,4.98
6106.89,5.05
6167.96,5.09
6229.64,5.11
6291.93,5.11
6354.85,5.11
6418.40,5.13
6482.58,5.16
6547.41,5.16
6612.88,5.16
6679.01,5.16
6745.80,5.16
6813.26,5.16
6881.39,5.11
6950.21,5.09
7019.71,5.06
7089.91,5.01
7160.81,4.93
7232.41,4.87
7304.74,4.79
7377.79,4.70
7451.56,4.64
7526.08,4.57
7601.34,4.55
7677.35,4.55
7754.13,4.59
7831.67,4.67
7909.98,4.77
7989.08,4.93
8068.98,5.10
8149.67,5.26
8231.16,5.39
8313.47,5.50
8396.61,5.48
8480.57,5.30
8565.38,4.95
8651.03,4.39
8737.54,3.62
8824.92,2.62
8913.17,1.36
9002.30,-0.04
9092.32,-1.55
9183.25,-3.12
9275.08,-4.60
9367.83,-5.86
9461.51,-6.84
9556.12,-7.49
9651.68,-7.77
9748.20,-7.50
9845.68,-7.00
9944.14,-6.32
10043.58,-5.57
10144.02,-4.80
10245.46,-4.13
10347.91,-3.61
10451.39,-3.26
10555.91,-3.05
10661.46,-3.03
10768.08,-3.14
10875.76,-3.30
10984.52,-3.47
11094.36,-3.58
11205.31,-3.61
11317.36,-3.50
11430.53,-3.32
11544.84,-3.08
11660.29,-2.78
11776.89,-2.47
11894.66,-2.21
12013.60,-1.99
12133.74,-1.85
12255.08,-1.84
12377.63,-1.92
12501.41,-2.02
12626.42,-2.19
12752.68,-2.37
12880.21,-2.59
13009.01,-2.81
13139.10,-3.09
13270.49,-3.39
13403.20,-3.75
13537.23,-4.20
13672.60,-4.73
13809.33,-5.44
13947.42,-6.27
14086.90,-7.27
14227.77,-8.45
14370.04,-9.77
14513.74,-11.09
14658.88,-12.34
14805.47,-13.41
14953.52,-14.17
15103.06,-14.66
15254.09,-14.66
15406.63,-14.22
15560.70,-13.55
15716.30,-12.62
15873.47,-11.55
16032.20,-10.36
16192.52,-9.20
16354.45,-8.08
16517.99,-7.05
16683.17,-6.15
16850.01,-5.41
17018.51,-4.89
17188.69,-4.59
17360.58,-4.66
17534.18,-5.00
17709.53,-5.48
17886.62,-6.08
18065.49,-6.69
18246.14,-7.27
18428.60,-7.77
18612.89,-8.14
18799.02,-8.38
18987.01,-8.55
19176.88,-8.62
19368.65,-8.62
19562.33,-8.59
19757.96,-8.54
19955.54,-8.58
