frequency,raw
10,-25.532779926238426
11,-24.912527044251483
12,-23.528972486834537
13,-22.27403545372471
14,-21.03598937408073
15,-19.718720715062958
16,-18.714089744616093
17,-17.461533133223412
18,-16.45492831607709
19,-15.447877496176513
20,-14.394148225810607
21,-13.517812351219188
22,-12.522600778433375
23,-11.541354924515794
24,-10.713893663758054
25,-9.793729014062352
26,-8.885119986806764
27,-8.167551302382508
28,-7.242299534711152
29,-6.404473488586999
30,-5.669769655960962
31,-4.837770266271103
32,-4.096097688568583
33,-3.3499686149206607
34,-2.7856738120999296
35,-2.1713906558157356
36,-1.664475103612395
37,-1.0400550149853096
38,-0.4138350145369025
39,0.023442424816577656
40,0.5201909852126638
41,1.0619034945488037
42,1.3093701842825114
43,1.7506810309865601
44,2.0734327905046017
45,2.3488461436936543
46,2.6876449435171965
47,2.8346495890993904
48,2.9841026297358137
49,3.0162225405897773
50,3.0021502986806805
51,2.986370658894855
52,2.882288395145375
53,2.724971389931045
54,2.6657694330142894
55,2.6565391772325535
56,2.6705821138141
57,2.5484911714801575
58,2.611035817207725
59,2.5889957826206453
60,2.321226380529093
61,2.1822866054490175
62,1.9052594890230532
63,1.7643857931076292
64,1.5423212597115095
65,1.2724373594599312
66,1.0411240725448643
67,0.8250399500601109
68,0.7774356046747135
69,0.6776947432919975
70,0.4921048183971277
71,0.43037989342957994
72,0.3043565210042791
73,0.2323311018001717
74,0.1568161548921152
75,0.05409657760868258
76,0.04397875423036224
77,-0.06429467307577541
78,-0.17334776315561928
79,-0.18524793171529108
80,-0.2066877331196002
81,-0.2922080607135866
82,-0.2887159817226248
83,-0.37564960988454077
84,-0.4589794669740326
85,-0.4634455563463926
86,-0.5259825978281834
87,-0.5113907935740025
88,-0.49745782523015336
89,-0.6689373387413102
90,-0.6705214577574905
91,-0.6708012005946205
92,-0.7222100383755077
93,-0.8791352921001039
94,-0.8993574187632261
95,-0.908715703616152
96,-1.086562531594765
97,-1.0922567069494775
98,-1.0795090197045143
99,-1.085951012737298
100,-1.2204659596463108
101,-1.267566242939684
102,-1.28228772231799
104,-1.4587289059706867
105,-1.4956572153674785
106,-1.491984236421565
107,-1.4786603072836972
108,-1.5231614974574899
109,-1.5409790849249552
110,-1.611983704544346
111,-1.6281093623476726
112,-1.6355719639341189
113,-1.647456072504728
114,-1.7187901357981619
115,-1.7687738642637383
117,-1.8747475232092516
118,-1.8820964221780248
119,-1.8865211552017485
120,-1.8882662492430389
121,-1.9494797145334362
123,-2.0793289938075783
124,-2.07935557881585
125,-2.080336888612141
126,-2.0813516887432293
128,-2.123975661249718
129,-2.2150983215222384
130,-2.2624526122937123
131,-2.2550689723864235
133,-2.272416434444073
134,-2.336757017280987
135,-2.3568435792811893
137,-2.447263248059234
138,-2.4508863444746227
140,-2.450686729911171
141,-2.446015743983759
142,-2.4385212978913997
144,-2.4813877097523003
145,-2.522644469218489
147,-2.522378457441274
148,-2.525597573327144
150,-2.625954302380819
151,-2.628667384387938
153,-2.626747305987873
154,-2.618293303858322
156,-2.6031753381392186
157,-2.5835213164802204
159,-2.659358943825266
160,-2.643807834353325
162,-2.715276308001668
164,-2.7342049094164627
165,-2.7427424681494417
167,-2.7534531321895948
169,-2.761832025581839
170,-2.7653922804399365
172,-2.7643755332209263
174,-2.7609573154486133
175,-2.7576146298678297
177,-2.75572259452324
179,-2.755145538146855
181,-2.849664036182509
183,-2.849943160196653
184,-2.943721624984634
186,-2.943665514164768
188,-2.943986114128482
190,-2.945345549333477
192,-2.9462027899089476
194,-2.944171578811547
196,-2.937211612283383
198,-2.9247925026932187
200,-2.9083191589300603
202,-2.8905460613940717
204,-2.8743172064356677
206,-2.8613506400082978
208,-2.922236817242401
210,-2.94005933738219
212,-2.9330149746368286
214,-2.9254597647265763
216,-2.9841827490471555
218,-3.0062003686637335
221,-3.0015052435868417
223,-3.000863363891667
225,-3.004949643315369
227,-3.013055708738162
229,-3.022988676462007
232,-3.0315147747148665
234,-3.0353332330386733
236,-3.032287936400465
239,-3.022287177707378
241,-3.030029247551668
244,-3.0870490119494645
246,-3.072813712840956
248,-3.062796894736808
251,-3.057487088819521
253,-3.0561056918697362
256,-3.057482666401618
259,-3.0607319687022683
261,-3.065339111952679
264,-3.070763397093251
266,-3.0760038325468884
269,-3.079557893255891
272,-3.0798827546629086
274,-3.076101613364268
277,-3.0685193780391122
280,-3.058601672144805
283,-3.048358036586916
286,-3.0394081817337506
288,-3.0322298402628833
291,-3.0260460302119103
294,-3.0194747530724815
297,-3.011580955421455
300,-3.002646209930947
303,-2.994083690562926
306,-2.987475516087789
309,-2.9833525495114825
312,-2.980595981261821
316,-2.9769684500848546
319,-2.9705030476999577
322,-2.9608462759464205
325,-2.9496355765620135
328,-2.939619300051254
332,-2.9330548606177196
335,-2.930372686912908
338,-2.929889274197641
342,-2.9286779358799686
345,-2.9240302785934484
349,-2.914671411635565
352,-2.901126419536973
356,-2.884971751179785
359,-2.794803380001432
363,-2.757330100533836
366,-2.7429615000885064
370,-2.7295415658128164
374,-2.719221235688109
377,-2.777889243646075
381,-2.791136090531009
385,-2.7824083704658733
389,-2.7741258871290864
393,-2.764882376650533
397,-2.753825955878839
401,-2.7416241850138916
405,-2.76165742980344
409,-2.8193393280778203
413,-2.817980258785019
417,-2.821956582318071
421,-2.828823280191874
425,-2.835499592428493
430,-2.9169160523669113
434,-2.9335815924346758
438,-2.924966095683701
443,-2.916369821308043
447,-2.9073472096495756
451,-2.897616670368418
456,-2.883969197939331
460,-2.8721420143003726
465,-2.9035499781802185
470,-2.9368722462181776
474,-2.9221949282823254
479,-2.9077577818921325
484,-2.8912183534849656
489,-2.869968911582457
494,-2.842881751266248
499,-2.811247228970105
504,-2.7783495781074787
509,-2.7480776488857965
514,-2.7067824948800294
519,-2.6102345048496627
524,-2.557819415383635
529,-2.5002887521042005
535,-2.5010662110009774
540,-2.466643052663125
545,-2.413090744370999
551,-2.4160008787258334
556,-2.4154504190817376
562,-2.409697334876775
568,-2.3975358661193833
573,-2.378637237207008
579,-2.3540010300988374
585,-2.326299995148881
591,-2.299707113078401
596,-2.192698740193533
602,-2.1531015565940277
608,-2.1688417440052548
615,-2.1888937308919516
621,-2.192583450138062
627,-2.0865961705864593
633,-2.05865421133185
639,-2.0192273596719135
646,-1.8931078675393436
652,-1.8950294845352769
659,-1.9019753920032723
665,-1.8392464472963432
672,-1.8014041666247418
679,-1.8133675423283813
686,-1.8198223824530761
692,-1.8176208227480304
699,-1.8070677272297857
706,-1.6946787366619107
713,-1.675134363732799
721,-1.559396480052556
728,-1.5431535530286118
735,-1.5319690772395713
742,-1.4996016339922207
750,-1.3701320686276732
757,-1.3609396868646146
765,-1.3117968464000183
773,-1.340666562380095
780,-1.36011286249438
788,-1.3669917748158293
796,-1.268330200465169
804,-1.1977395272859934
812,-1.1708153896939253
820,-1.14064692712221
828,-1.1254125758465099
837,-1.1704924236219
845,-1.19592200659628
853,-1.1473063658544165
862,-1.1073337639474268
871,-1.1235612730583133
879,-1.0420788560826395
888,-1.0143413360303626
897,-0.9223372789897768
906,-0.8780930182059232
915,-0.7869564075775264
924,-0.7384735420504684
933,-0.730970873275985
943,-0.6704325320795648
952,-0.6033449110508768
962,-0.469029083994736
971,-0.3580226912109983
981,-0.23848853401658054
991,-0.13614963862926244
1001,0.015052035467769898
1011,0.125082676757013
1021,0.241244629663516
1031,0.26523804034458953
1041,0.29500895025734497
1052,0.3308669970902809
1062,0.3720524184488152
1073,0.4177963139627292
1084,0.4598414470214931
1094,0.47369781782038745
1105,0.5780985177700386
1116,0.6347487172061794
1128,0.785012899753482
1139,0.8958390374195999
1150,0.9829102713258893
1162,1.0813401634350233
1173,1.1990170180804456
1185,1.2786470653294226
1197,1.3735929090027543
1209,1.4817139305519795
1221,1.5995715918236852
1233,1.7244788341301551
1246,1.8555566386956186
1258,2.089154421029163
1271,2.2337877893114606
1283,2.384072024047532
1296,2.5368475880115517
1309,2.568532555955474
1322,2.643139590366308
1335,2.7679837791647004
1349,2.949346982832388
1362,3.159076400986094
1376,3.3012413409453947
1390,3.5415663005787588
1404,3.6561428444707054
1418,3.5614433086713526
1432,3.6690126995908683
1446,3.868019170349839
1461,3.9344904601644917
1475,3.8578777364970978
1490,3.925243660047862
1505,4.1109814190846965
1520,4.124358688158678
1535,4.123622427264893
1550,4.19370467013151
1566,4.419244073744146
1582,4.29419711770157
1597,4.243043425443948
1613,4.295062944115155
1629,4.354187969520722
1646,4.515375976598882
1662,4.753121497828366
1679,4.847318901431477
1696,4.9044063670006945
1713,5.0512282691760895
1730,5.184111415476776
1747,5.436678129596272
1764,5.671609401178614
1782,5.620978816860919
1800,5.742860904608027
1818,5.723050714349745
1836,5.6663580170211105
1854,5.686960250285627
1873,5.805953243221275
1892,5.954527339918552
1911,6.014256749530308
1930,5.585022811725427
1949,5.451440703021177
1969,5.062126912107283
1988,4.928252182631789
2008,4.794887372080019
2028,4.74387142900951
2048,4.695793811906875
2069,4.233707391784739
2090,3.8881302432384546
2111,3.571144481412337
2132,3.5084670399322118
2153,3.470138444484933
2175,3.369403638265972
2196,3.2362065312546404
2218,2.9846128185146545
2240,2.6104331416774293
2263,2.411779530235677
2285,2.0688687044036067
2308,1.7198733823297658
2331,1.4827566594446804
2355,1.357300655855779
2378,1.1896239215328421
2402,1.308307031389723
2426,1.4726854513913432
2450,1.5701888919571223
2475,1.2318950254863443
2500,1.5976167111122273
2525,1.903668518518935
2550,2.2412187573159166
2575,2.675120733739008
2601,2.7753195997187374
2627,2.8569254900808163
2653,3.0497829716239355
2680,3.429323147547276
2707,4.144561188743105
2734,4.884847143498375
2761,5.470553455412819
2789,6.1751950229390715
2817,6.505492042321928
2845,6.7078975963995235
2873,6.816432787729512
2902,6.929992339562459
2931,6.965318081244725
2960,7.023205605395618
2990,7.299752889930242
3020,7.803580636131982
3050,8.207830999212387
3080,8.53960330296021
3111,8.809946001285567
3142,9.035451381429606
3174,9.108431645750414
3206,9.178843906806081
3238,9.248227993254472
3270,9.181094787070556
3303,9.121161743616613
3336,9.086047853104244
3369,9.084881253582681
3403,9.23753499791721
3437,9.329709223621808
3471,9.406901059674022
3506,9.30388369089302
3541,9.196455660356886
3576,9.054633425273401
3612,9.016535358794652
3648,9.087804518979212
3685,9.156209362944342
3721,9.128301946150414
3759,9.07899146146123
3796,9.031337646019164
3834,8.830185448190823
3873,8.644228909302505
3911,8.56634191974809
3950,8.377643343258319
3990,7.9378652606657365
4030,7.646117485831251
4070,7.454394102878892
4111,7.231061790169146
4152,6.954160237097013
4193,6.689841253026426
4235,6.497900765861191
4278,6.223018679468865
4321,6.0971250676276805
4364,5.862075175281831
4407,5.411612411831924
4451,5.040969840607237
4496,4.697237702043035
4541,4.593216828024489
4586,4.458568795841483
4632,4.040027566185349
4679,3.779034358340427
4725,3.750202381165824
4773,3.774644801891439
4820,3.7295439553549583
4868,3.503042536198757
4917,3.3603335225360604
4966,2.98266305498207
5016,2.788111611121539
5066,2.7344193903455745
5117,2.589522513294983
5168,2.3644584006046685
5220,2.321487651263312
5272,2.161394489728054
5325,1.838257349666672
5378,1.5631539773150758
5432,1.4803028290449731
5486,1.5074521499791835
5541,1.303410491025832
5596,1.0481382387925882
5652,1.1317676485252184
5709,1.090562419631243
5766,0.9357964977768107
5823,0.7672948322781243
5882,0.9416444354766513
5940,1.1583730050950605
6000,1.4291976755397293
6060,1.8297386222309253
6120,2.000680057724928
6182,2.0624908374290154
6244,2.2516644165802813
6306,2.5823395526435977
6369,2.6077434500227836
6433,2.724034748343895
6497,2.78019386371035
6562,2.871461869026379
6628,2.949365960024889
6694,2.927500860495586
6761,3.2410077380667603
6828,3.295795266559683
6897,3.332293829022875
6966,3.275079720024416
7035,3.2209390400609323
7106,2.9873008671138734
7177,2.540278310232058
7249,1.9737726419824768
7321,1.3349278838975698
7394,0.7301973883410979
7468,0.20687919106783603
7543,-0.5442386610097123
7618,-1.3802182037020763
7694,-1.8247323170521366
7771,-2.014172106917723
7849,-2.35708265548001
7928,-2.9214821980327343
8007,-3.62566750867747
8087,-3.524448272168787
8168,-2.9257572942249785
8250,-2.0249639592492317
8332,-0.6404674985120282
8415,0.1262693809576474
8499,1.7681146175849096
8584,2.543816961031553
8670,2.9848012096434418
8757,3.255413886040353
8845,3.222084200676039
8933,3.161205322420426
9022,3.5309831115234034
9113,4.090336377721362
9204,4.283322300335033
9296,4.064246582411165
9389,4.341445186220772
9483,4.745447173619833
9577,5.003988088270361
9673,4.23345361264838
9770,3.216212937488084
9868,1.8537680253878634
9966,0.8710316331594505
10066,-1.196983459955478
10167,-2.3580221480800883
10268,-3.251130233480059
10371,-4.037249560354151
10475,-5.559522899024349
10579,-6.409764599324288
10685,-5.706995272608134
10792,-5.047291507329484
10900,-4.530088092905015
11009,-3.9334529228299306
11119,-3.037266781991325
11230,-3.4385633560933333
11343,-3.6742226751784894
11456,-4.1547438726539205
11571,-4.479983688890195
11686,-4.37823106572897
11803,-4.3643066054905475
11921,-4.074594805641143
12040,-4.203116144208522
12161,-4.629893676013096
12282,-4.957450982956594
12405,-5.6809843320132565
12529,-6.32460525647818
12655,-7.224476937773777
12781,-7.248208347568604
12909,-6.899800288363536
13038,-7.2187039384118945
13168,-7.951409011949216
13300,-8.843628093451624
13433,-8.414418882017177
13567,-9.132899551000023
13703,-8.78805111303889
13840,-9.30142453806722
13978,-9.18786650734991
14118,-9.30729753913763
14259,-9.435004399999599
14402,-10.155743821353633
14546,-11.105860187109123
14692,-10.866897184668014
14838,-12.634949600808289
14987,-12.596279354867717
15137,-12.51999874943176
15288,-12.970096324751072
15441,-13.065221170783794
15595,-14.20107613687728
15751,-15.298778650762099
15909,-14.725222945367117
16068,-14.20759860580166
16229,-14.018488899297056
16391,-13.318998748273962
16555,-12.053440007918628
16720,-11.681222600820213
16888,-11.479441853399011
17056,-11.296330610949504
17227,-10.287236633571471
17399,-9.46871655695471
17573,-7.651348544222729
17749,-6.257887698866896
17926,-5.026288489251594
18106,-4.161861020404952
18287,-3.8956688364212377
18470,-3.974091605203859
18654,-3.015210769549787
18841,-2.38395042086983
19029,-2.947530304508625
19220,-3.081005979678525
19412,-3.2607366661849486
19606,-3.248855390895609
19802,-4.198801650842179
20000,-4.858071802423862
20200,-5.381408556148458
20402,-5.5041455146795295
20606,-5.577455802407757
20812,-5.893226864871889
21020,-6.334339955713855
21230,-6.651435044273002
21443,-7.846141536846681
21657,-8.433839899799825
21874,-9.28476645015411
22092,-10.336355765573515
22313,-10.878022431359142
22537,-12.096975122415433
22762,-13.565942082560213
22989,-14.484592902475072
23219,-14.552875509160735
23452,-13.454750591612612
23686,-13.699722769509748
23923,-13.787600328681755
24162,-13.648976813945225
24404,-13.511265981530478
24648,-13.37426115818138
24894,-13.237763694400606
25143,-13.101628581762515
25395,-12.965655546304514
25649,-12.82962014359167
25905,-12.693432287581265
26164,-12.557127748570549
26426,-12.420709258669897
26690,-12.284136035412017
26957,-12.14752380416226
27227,-12.010916215883213
27499,-11.87427557723947
27774,-11.737686928074455
28052,-11.601149649926338
28332,-11.464586707664878
28615,-11.328048664768163
28902,-11.191599097868778
29191,-11.055102239433541
29482,-10.918559299670363
29777,-10.782097311857903
