frequency,raw
20.00,3.78
20.20,3.80
20.40,3.82
20.61,3.83
20.81,3.85
21.02,3.87
21.23,3.89
21.44,3.91
21.66,3.93
21.87,3.95
22.09,3.97
22.31,3.99
22.54,4.02
22.76,4.05
22.99,4.08
23.22,4.11
23.45,4.13
23.69,4.14
23.92,4.15
24.16,4.16
24.40,4.17
24.65,4.19
24.89,4.19
25.14,4.21
25.39,4.23
25.65,4.25
25.91,4.28
26.16,4.32
26.43,4.35
26.69,4.38
26.96,4.41
27.23,4.44
27.50,4.46
27.77,4.48
28.05,4.50
28.33,4.51
28.62,4.52
28.90,4.51
29.19,4.51
29.48,4.50
29.78,4.49
30.08,4.49
30.38,4.49
30.68,4.49
30.99,4.49
31.30,4.49
31.61,4.49
31.93,4.49
32.24,4.49
32.57,4.49
32.89,4.49
33.22,4.49
33.55,4.49
33.89,4.49
34.23,4.49
34.57,4.49
34.92,4.49
35.27,4.49
35.62,4.49
35.97,4.49
36.33,4.49
36.70,4.50
37.06,4.50
37.43,4.51
37.81,4.51
38.19,4.51
38.57,4.50
38.95,4.49
39.34,4.47
39.74,4.44
40.14,4.42
40.54,4.39
40.94,4.36
41.35,4.33
41.76,4.29
42.18,4.26
42.60,4.24
43.03,4.21
43.46,4.19
43.90,4.18
44.33,4.18
44.78,4.17
45.23,4.17
45.68,4.16
46.13,4.15
46.60,4.13
47.06,4.11
47.53,4.08
48.01,4.05
48.49,4.02
48.97,3.99
49.46,3.96
49.96,3.93
50.46,3.89
50.96,3.86
51.47,3.83
51.99,3.81
52.51,3.80
53.03,3.80
53.56,3.82
54.10,3.85
54.64,3.89
55.18,3.93
55.74,3.99
56.29,4.04
56.86,4.10
57.42,4.18
58.00,4.26
58.58,4.36
59.16,4.46
59.76,4.56
60.35,4.65
60.96,4.75
61.57,4.83
62.18,4.90
62.80,4.96
63.43,5.02
64.07,5.07
64.71,5.10
65.35,5.12
66.01,5.15
66.67,5.16
67.33,5.17
68.01,5.17
68.69,5.17
69.37,5.16
70.07,5.15
70.77,5.13
71.48,5.12
72.19,5.11
72.91,5.11
73.64,5.11
74.38,5.12
75.12,5.13
75.87,5.14
76.63,5.17
77.40,5.22
78.17,5.28
78.95,5.35
79.74,5.43
80.54,5.52
81.35,5.63
82.16,5.76
82.98,5.90
83.81,6.04
84.65,6.20
85.50,6.36
86.35,6.53
87.22,6.69
88.09,6.84
88.97,7.01
89.86,7.18
90.76,7.34
91.66,7.51
92.58,7.68
93.51,7.83
94.44,7.98
95.39,8.14
96.34,8.31
97.30,8.44
98.28,8.57
99.26,8.69
100.25,8.82
101.25,8.94
102.27,9.06
103.29,9.16
104.32,9.25
105.37,9.33
106.42,9.41
107.48,9.47
108.56,9.52
109.64,9.56
110.74,9.61
111.85,9.64
112.97,9.66
114.10,9.68
115.24,9.68
116.39,9.69
117.55,9.70
118.73,9.70
119.92,9.70
121.12,9.69
122.33,9.69
123.55,9.68
124.79,9.69
126.03,9.70
127.29,9.70
128.57,9.70
129.85,9.69
131.15,9.68
132.46,9.66
133.79,9.63
135.12,9.61
136.48,9.59
137.84,9.57
139.22,9.54
140.61,9.50
142.02,9.46
143.44,9.41
144.87,9.37
146.32,9.32
147.78,9.27
149.26,9.23
150.75,9.19
152.26,9.16
153.78,9.15
155.32,9.13
156.88,9.11
158.44,9.08
160.03,9.04
161.63,9.01
163.24,8.98
164.88,8.95
166.53,8.93
168.19,8.91
169.87,8.88
171.57,8.85
173.29,8.80
175.02,8.76
176.77,8.71
178.54,8.66
180.32,8.60
182.13,8.55
183.95,8.50
185.79,8.45
187.65,8.40
189.52,8.34
191.42,8.30
193.33,8.24
195.27,8.17
197.22,8.09
199.19,8.03
201.18,7.97
203.19,7.90
205.23,7.83
207.28,7.76
209.35,7.69
211.44,7.61
213.56,7.53
215.69,7.46
217.85,7.39
220.03,7.31
222.23,7.23
224.45,7.16
226.70,7.09
228.96,7.01
231.25,6.93
233.57,6.85
235.90,6.77
238.26,6.70
240.64,6.61
243.05,6.53
245.48,6.46
247.93,6.38
250.41,6.29
252.92,6.20
255.45,6.12
258.00,6.05
260.58,5.97
263.19,5.88
265.82,5.80
268.48,5.73
271.16,5.66
273.87,5.58
276.61,5.50
279.38,5.42
282.17,5.35
284.99,5.28
287.84,5.21
290.72,5.15
293.63,5.08
296.57,5.01
299.53,4.94
302.53,4.88
305.55,4.82
308.61,4.77
311.69,4.72
314.81,4.67
317.96,4.62
321.14,4.57
324.35,4.53
327.59,4.49
330.87,4.46
334.18,4.42
337.52,4.37
340.90,4.32
344.30,4.27
347.75,4.23
351.23,4.20
354.74,4.15
358.28,4.10
361.87,4.04
365.49,3.98
369.14,3.92
372.83,3.86
376.56,3.81
380.33,3.76
384.13,3.70
387.97,3.62
391.85,3.55
395.77,3.48
399.73,3.41
403.72,3.34
407.76,3.26
411.84,3.18
415.96,3.11
420.12,3.03
424.32,2.95
428.56,2.88
432.85,2.81
437.18,2.74
441.55,2.67
445.96,2.60
450.42,2.53
454.93,2.46
459.48,2.39
464.07,2.33
468.71,2.28
473.40,2.21
478.13,2.15
482.91,2.08
487.74,2.02
492.62,1.96
497.55,1.89
502.52,1.83
507.55,1.78
512.62,1.74
517.75,1.70
522.93,1.66
528.16,1.63
533.44,1.60
538.77,1.59
544.16,1.57
549.60,1.56
555.10,1.55
560.65,1.55
566.25,1.55
571.92,1.56
577.64,1.57
583.41,1.57
589.25,1.57
595.14,1.57
601.09,1.57
607.10,1.57
613.17,1.57
619.30,1.57
625.50,1.57
631.75,1.57
638.07,1.57
644.45,1.57
650.89,1.57
657.40,1.57
663.98,1.57
670.62,1.57
677.32,1.57
684.10,1.57
690.94,1.57
697.85,1.57
704.83,1.57
711.87,1.57
718.99,1.57
726.18,1.57
733.44,1.57
740.78,1.58
748.19,1.59
755.67,1.60
763.23,1.60
770.86,1.59
778.57,1.59
786.35,1.58
794.22,1.56
802.16,1.54
810.18,1.51
818.28,1.49
826.46,1.44
834.73,1.39
843.08,1.34
851.51,1.27
860.02,1.20
868.62,1.12
877.31,1.03
886.08,0.94
894.94,0.86
903.89,0.78
912.93,0.69
922.06,0.61
931.28,0.55
940.59,0.46
950.00,0.38
959.50,0.29
969.09,0.22
978.78,0.15
988.57,0.08
998.46,0.01
1008.44,-0.06
1018.53,-0.12
1028.71,-0.19
1039.00,-0.25
1049.39,-0.32
1059.88,-0.39
1070.48,-0.46
1081.19,-0.52
1092.00,-0.59
1102.92,-0.65
1113.95,-0.72
1125.09,-0.78
1136.34,-0.85
1147.70,-0.91
1159.18,-0.98
1170.77,-1.05
1182.48,-1.13
1194.30,-1.20
1206.25,-1.28
1218.31,-1.36
1230.49,-1.44
1242.80,-1.53
1255.22,-1.62
1267.78,-1.71
1280.45,-1.80
1293.26,-1.90
1306.19,-1.99
1319.25,-2.09
1332.45,-2.18
1345.77,-2.27
1359.23,-2.37
1372.82,-2.46
1386.55,-2.55
1400.41,-2.63
1414.42,-2.72
1428.56,-2.81
1442.85,-2.89
1457.28,-2.97
1471.85,-3.05
1486.57,-3.12
1501.43,-3.20
1516.45,-3.28
1531.61,-3.35
1546.93,-3.42
1562.40,-3.50
1578.02,-3.57
1593.80,-3.63
1609.74,-3.67
1625.84,-3.72
1642.10,-3.76
1658.52,-3.81
1675.10,-3.85
1691.85,-3.90
1708.77,-3.94
1725.86,-3.98
1743.12,-4.02
1760.55,-4.06
1778.15,-4.09
1795.94,-4.11
1813.90,-4.14
1832.03,-4.16
1850.36,-4.19
1868.86,-4.23
1887.55,-4.27
1906.42,-4.30
1925.49,-4.33
1944.74,-4.37
1964.19,-4.41
1983.83,-4.43
2003.67,-4.46
2023.71,-4.51
2043.94,-4.56
2064.38,-4.63
2085.03,-4.70
2105.88,-4.76
2126.94,-4.82
2148.20,-4.88
2169.69,-4.94
2191.38,-5.00
2213.30,-5.06
2235.43,-5.13
2257.78,-5.21
2280.36,-5.28
2303.17,-5.35
2326.20,-5.41
2349.46,-5.45
2372.95,-5.47
2396.68,-5.49
2420.65,-5.50
2444.86,-5.50
2469.31,-5.48
2494.00,-5.44
2518.94,-5.38
2544.13,-5.29
2569.57,-5.19
2595.27,-5.06
2621.22,-4.90
2647.43,-4.72
2673.90,-4.52
2700.64,-4.32
2727.65,-4.11
2754.93,-3.88
2782.48,-3.65
2810.30,-3.43
2838.40,-3.19
2866.79,-2.95
2895.46,-2.73
2924.41,-2.50
2953.65,-2.29
2983.19,-2.11
3013.02,-1.95
3043.15,-1.81
3073.58,-1.69
3104.32,-1.58
3135.36,-1.48
3166.72,-1.41
3198.38,-1.35
3230.37,-1.32
3262.67,-1.29
3295.30,-1.28
3328.25,-1.29
3361.53,-1.31
3395.15,-1.35
3429.10,-1.38
3463.39,-1.44
3498.03,-1.50
3533.01,-1.56
3568.34,-1.63
3604.02,-1.71
3640.06,-1.80
3676.46,-1.89
3713.22,-1.99
3750.36,-2.09
3787.86,-2.20
3825.74,-2.31
3864.00,-2.41
3902.64,-2.50
3941.66,-2.58
3981.08,-2.66
4020.89,-2.73
4061.10,-2.79
4101.71,-2.84
4142.73,-2.89
4184.15,-2.93
4226.00,-2.95
4268.26,-2.97
4310.94,-2.98
4354.05,-2.99
4397.59,-2.99
4441.56,-3.00
4485.98,-3.00
4530.84,-3.00
4576.15,-2.99
4621.91,-2.99
4668.13,-3.00
4714.81,-3.00
4761.96,-2.99
4809.58,-2.98
4857.67,-2.95
4906.25,-2.90
4955.31,-2.84
5004.87,-2.75
5054.91,-2.65
5105.46,-2.51
5156.52,-2.35
5208.08,-2.14
5260.16,-1.91
5312.77,-1.65
5365.89,-1.36
5419.55,-1.06
5473.75,-0.75
5528.49,-0.43
5583.77,-0.09
5639.61,0.25
5696.00,0.58
5752.96,0.90
5810.49,1.19
5868.60,1.46
5927.28,1.70
5986.56,1.93
6046.42,2.12
6106.89,2.29
6167.96,2.42
6229.64,2.52
6291.93,2.58
6354.85,2.62
6418.40,2.64
6482.58,2.62
6547.41,2.56
6612.88,2.46
6679.01,2.31
6745.80,2.11
6813.26,1.87
6881.39,1.60
6950.21,1.29
7019.71,0.92
7089.91,0.50
7160.81,0.03
7232.41,-0.49
7304.74,-1.04
7377.79,-1.64
7451.56,-2.26
7526.08,-2.91
7601.34,-3.58
7677.35,-4.25
7754.13,-4.93
7831.67,-5.60
7909.98,-6.26
7989.08,-6.90
8068.98,-7.52
8149.67,-8.11
8231.16,-8.69
8313.47,-9.24
8396.61,-9.74
8480.57,-10.20
8565.38,-10.60
8651.03,-10.95
8737.54,-11.24
8824.92,-11.44
8913.17,-11.57
9002.30,-11.63
9092.32,-11.61
9183.25,-11.53
9275.08,-11.38
9367.83,-11.18
9461.51,-10.92
9556.12,-10.62
9651.68,-10.27
9748.20,-9.90
9845.68,-9.52
9944.14,-9.12
10043.58,-8.71
10144.02,-8.31
10245.46,-7.92
10347.91,-7.53
10451.39,-7.14
10555.91,-6.75
10661.46,-6.35
10768.08,-5.95
10875.76,-5.55
10984.52,-5.14
11094.36,-4.74
11205.31,-4.35
11317.36,-3.99
11430.53,-3.66
11544.84,-3.36
11660.29,-3.10
11776.89,-2.86
11894.66,-2.66
12013.60,-2.50
12133.74,-2.37
12255.08,-2.29
12377.63,-2.23
12501.41,-2.20
12626.42,-2.20
12752.68,-2.22
12880.21,-2.27
13009.01,-2.35
13139.10,-2.46
13270.49,-2.59
13403.20,-2.77
13537.23,-2.99
13672.60,-3.25
13809.33,-3.57
13947.42,-3.92
14086.90,-4.29
14227.77,-4.70
14370.04,-5.10
14513.74,-5.50
14658.88,-5.89
14805.47,-6.27
14953.52,-6.61
15103.06,-6.93
15254.09,-7.21
15406.63,-7.47
15560.70,-7.68
15716.30,-7.84
15873.47,-7.97
16032.20,-8.08
16192.52,-8.16
16354.45,-8.22
16517.99,-8.27
16683.17,-8.33
16850.01,-8.40
17018.51,-8.47
17188.69,-8.56
17360.58,-8.64
17534.18,-8.73
17709.53,-8.83
17886.62,-8.95
18065.49,-9.11
18246.14,-9.28
18428.60,-9.47
18612.89,-9.68
18799.02,-9.90
18987.01,-10.13
19176.88,-10.38
19368.65,-10.65
19562.33,-10.93
19757.96,-11.22
19955.54,-11.53
