frequency,raw,smoothed,error,error_smoothed,equalization,parametric_eq,fixed_band_eq,equalized_raw,equalized_smoothed,target
20.00,-1.70,-1.70,-5.38,-5.37,5.37,4.20,0.67,3.67,3.67,3.67
20.20,-1.56,-1.56,-5.23,-5.23,5.24,4.13,0.69,3.67,3.67,3.67
20.40,-1.42,-1.42,-5.09,-5.10,5.10,4.06,0.71,3.68,3.68,3.67
20.61,-1.30,-1.29,-4.97,-4.96,4.97,3.99,0.73,3.67,3.68,3.67
20.81,-1.16,-1.17,-4.83,-4.84,4.84,3.92,0.76,3.67,3.67,3.67
21.02,-1.04,-1.04,-4.71,-4.71,4.70,3.85,0.78,3.66,3.66,3.67
21.23,-0.92,-0.92,-4.57,-4.57,4.57,3.77,0.80,3.65,3.65,3.65
21.44,-0.80,-0.80,-4.44,-4.44,4.44,3.70,0.83,3.63,3.63,3.64
21.66,-0.68,-0.68,-4.30,-4.30,4.30,3.63,0.85,3.62,3.62,3.62
21.87,-0.56,-0.56,-4.16,-4.17,4.17,3.56,0.88,3.61,3.60,3.60
22.09,-0.45,-0.45,-4.04,-4.03,4.03,3.49,0.91,3.58,3.58,3.59
22.31,-0.34,-0.34,-3.90,-3.90,3.90,3.42,0.94,3.56,3.56,3.56
22.54,-0.23,-0.23,-3.77,-3.77,3.77,3.35,0.96,3.53,3.53,3.54
22.76,-0.12,-0.13,-3.64,-3.64,3.63,3.28,0.99,3.51,3.51,3.51
22.99,-0.02,-0.02,-3.51,-3.51,3.51,3.21,1.02,3.48,3.49,3.48
23.22,0.08,0.08,-3.38,-3.38,3.38,3.14,1.06,3.46,3.46,3.45
23.45,0.18,0.18,-3.26,-3.26,3.26,3.07,1.09,3.44,3.44,3.43
23.69,0.28,0.27,-3.15,-3.14,3.15,3.00,1.12,3.42,3.42,3.42
23.92,0.37,0.37,-3.03,-3.04,3.04,2.93,1.15,3.40,3.40,3.40
24.16,0.46,0.46,-2.93,-2.93,2.93,2.86,1.18,3.38,3.38,3.39
24.40,0.55,0.55,-2.82,-2.82,2.82,2.79,1.22,3.37,3.37,3.37
24.65,0.63,0.63,-2.72,-2.72,2.72,2.72,1.25,3.34,3.35,3.35
24.89,0.72,0.72,-2.61,-2.61,2.61,2.65,1.28,3.33,3.33,3.33
25.14,0.80,0.80,-2.52,-2.51,2.51,2.58,1.32,3.31,3.31,3.32
25.39,0.89,0.89,-2.41,-2.41,2.41,2.51,1.35,3.30,3.30,3.30
25.65,0.97,0.97,-2.32,-2.31,2.31,2.44,1.39,3.28,3.28,3.28
25.91,1.05,1.05,-2.21,-2.21,2.22,2.37,1.42,3.26,3.26,3.25
26.16,1.13,1.12,-2.11,-2.12,2.12,2.31,1.46,3.25,3.25,3.24
26.43,1.20,1.20,-2.04,-2.03,2.03,2.24,1.49,3.23,3.23,3.23
26.69,1.28,1.27,-1.93,-1.94,1.94,2.17,1.52,3.22,3.21,3.21
26.96,1.35,1.35,-1.85,-1.85,1.85,2.10,1.55,3.20,3.20,3.20
27.23,1.42,1.42,-1.77,-1.77,1.77,2.04,1.58,3.18,3.19,3.19
27.50,1.49,1.48,-1.69,-1.69,1.69,1.97,1.61,3.17,3.17,3.18
27.77,1.55,1.55,-1.61,-1.61,1.60,1.90,1.64,3.15,3.16,3.15
28.05,1.62,1.61,-1.53,-1.53,1.53,1.84,1.67,3.14,3.14,3.14
28.33,1.68,1.68,-1.44,-1.45,1.45,1.78,1.69,3.13,3.13,3.12
28.62,1.74,1.74,-1.37,-1.37,1.37,1.71,1.72,3.11,3.11,3.11
28.90,1.80,1.80,-1.30,-1.30,1.30,1.65,1.74,3.10,3.10,3.10
29.19,1.86,1.85,-1.22,-1.23,1.23,1.58,1.76,3.09,3.09,3.08
29.48,1.91,1.91,-1.17,-1.16,1.16,1.52,1.77,3.07,3.07,3.08
29.78,1.96,1.96,-1.11,-1.10,1.10,1.46,1.78,3.06,3.06,3.06
30.08,2.02,2.01,-1.04,-1.04,1.03,1.40,1.79,3.05,3.04,3.05
30.38,2.06,2.06,-0.97,-0.97,0.97,1.34,1.80,3.03,3.03,3.03
30.68,2.11,2.11,-0.91,-0.91,0.91,1.28,1.80,3.02,3.02,3.02
30.99,2.16,2.15,-0.84,-0.85,0.85,1.22,1.81,3.00,3.00,3.00
31.30,2.20,2.20,-0.79,-0.79,0.79,1.16,1.80,2.98,2.98,2.98
31.61,2.24,2.24,-0.73,-0.73,0.73,1.10,1.80,2.96,2.96,2.97
31.93,2.28,2.28,-0.67,-0.67,0.67,1.05,1.79,2.94,2.94,2.95
32.24,2.32,2.32,-0.60,-0.61,0.61,0.99,1.78,2.92,2.92,2.92
32.57,2.36,2.36,-0.55,-0.55,0.55,0.93,1.76,2.91,2.91,2.90
32.89,2.40,2.39,-0.49,-0.49,0.49,0.88,1.75,2.89,2.89,2.89
33.22,2.43,2.43,-0.43,-0.44,0.44,0.83,1.73,2.86,2.87,2.86
33.55,2.46,2.46,-0.39,-0.39,0.38,0.77,1.70,2.84,2.84,2.85
33.89,2.49,2.49,-0.34,-0.33,0.33,0.72,1.68,2.82,2.82,2.82
34.23,2.52,2.52,-0.28,-0.28,0.28,0.67,1.65,2.80,2.80,2.80
34.57,2.55,2.54,-0.23,-0.23,0.23,0.62,1.62,2.78,2.78,2.78
34.92,2.57,2.57,-0.19,-0.19,0.19,0.57,1.59,2.76,2.76,2.75
35.27,2.59,2.59,-0.15,-0.14,0.15,0.53,1.55,2.73,2.74,2.74
35.62,2.62,2.61,-0.10,-0.10,0.10,0.48,1.52,2.72,2.72,2.72
35.97,2.64,2.63,-0.06,-0.06,0.06,0.43,1.48,2.70,2.70,2.69
36.33,2.65,2.65,-0.03,-0.02,0.03,0.39,1.44,2.67,2.68,2.68
36.70,2.67,2.66,0.01,0.01,-0.01,0.35,1.40,2.66,2.66,2.66
37.06,2.68,2.68,0.05,0.04,-0.04,0.30,1.36,2.63,2.63,2.63
37.43,2.69,2.69,0.07,0.08,-0.08,0.26,1.32,2.61,2.61,2.62
37.81,2.70,2.70,0.10,0.10,-0.11,0.22,1.28,2.59,2.59,2.59
38.19,2.71,2.70,0.14,0.13,-0.13,0.18,1.24,2.57,2.57,2.57
38.57,2.71,2.71,0.15,0.16,-0.16,0.15,1.20,2.55,2.55,2.55
38.95,2.72,2.71,0.19,0.19,-0.19,0.11,1.15,2.53,2.53,2.53
39.34,2.72,2.72,0.21,0.21,-0.21,0.08,1.11,2.51,2.51,2.50
39.74,2.72,2.72,0.24,0.23,-0.23,0.04,1.07,2.48,2.49,2.48
40.14,2.72,2.72,0.24,0.25,-0.25,0.01,1.03,2.47,2.47,2.47
40.54,2.72,2.71,0.27,0.27,-0.26,-0.02,0.98,2.45,2.45,2.45
40.94,2.71,2.71,0.28,0.28,-0.28,-0.05,0.94,2.43,2.43,2.43
41.35,2.70,2.70,0.29,0.29,-0.28,-0.08,0.90,2.41,2.42,2.41
41.76,2.69,2.68,0.29,0.29,-0.29,-0.11,0.86,2.40,2.40,2.40
42.18,2.67,2.67,0.28,0.29,-0.29,-0.14,0.82,2.38,2.38,2.38
42.60,2.65,2.65,0.29,0.28,-0.29,-0.16,0.78,2.36,2.36,2.36
43.03,2.63,2.63,0.28,0.28,-0.29,-0.19,0.74,2.34,2.34,2.35
43.46,2.61,2.60,0.28,0.28,-0.28,-0.21,0.70,2.32,2.32,2.32
43.90,2.58,2.58,0.28,0.28,-0.28,-0.23,0.67,2.30,2.30,2.29
44.33,2.55,2.55,0.27,0.27,-0.27,-0.25,0.63,2.28,2.28,2.28
44.78,2.52,2.52,0.26,0.26,-0.26,-0.27,0.59,2.25,2.25,2.26
45.23,2.49,2.49,0.26,0.26,-0.26,-0.29,0.55,2.23,2.23,2.23
45.68,2.47,2.46,0.26,0.25,-0.25,-0.31,0.52,2.22,2.21,2.21
46.13,2.44,2.44,0.24,0.24,-0.24,-0.32,0.48,2.20,2.20,2.19
46.60,2.41,2.41,0.22,0.23,-0.23,-0.34,0.45,2.18,2.18,2.18
47.06,2.39,2.38,0.22,0.22,-0.22,-0.35,0.41,2.17,2.16,2.16
47.53,2.36,2.36,0.21,0.21,-0.21,-0.36,0.38,2.14,2.14,2.14
48.01,2.33,2.33,0.19,0.20,-0.21,-0.38,0.35,2.12,2.12,2.13
48.49,2.30,2.30,0.19,0.19,-0.20,-0.39,0.31,2.10,2.10,2.10
48.97,2.27,2.27,0.19,0.20,-0.19,-0.40,0.28,2.08,2.08,2.07
49.46,2.24,2.23,0.20,0.19,-0.18,-0.41,0.25,2.05,2.05,2.04
49.96,2.20,2.20,0.19,0.18,-0.17,-0.41,0.22,2.02,2.03,2.01
50.46,2.17,2.17,0.16,0.17,-0.16,-0.42,0.19,2.00,2.00,2.01
50.96,2.13,2.13,0.14,0.15,-0.15,-0.43,0.15,1.97,1.98,1.98
51.47,2.10,2.09,0.15,0.14,-0.14,-0.44,0.12,1.96,1.95,1.95
51.99,2.06,2.06,0.13,0.13,-0.13,-0.44,0.09,1.93,1.93,1.93
52.51,2.03,2.03,0.11,0.12,-0.12,-0.45,0.07,1.91,1.91,1.91
53.03,2.00,1.99,0.11,0.10,-0.11,-0.45,0.04,1.89,1.89,1.89
53.56,1.96,1.96,0.09,0.10,-0.10,-0.45,0.01,1.86,1.86,1.86
54.10,1.93,1.93,0.09,0.09,-0.09,-0.46,-0.02,1.84,1.84,1.84
54.64,1.90,1.90,0.08,0.08,-0.08,-0.46,-0.05,1.81,1.81,1.81
55.18,1.87,1.87,0.08,0.08,-0.08,-0.46,-0.08,1.79,1.79,1.79
55.74,1.84,1.84,0.08,0.07,-0.07,-0.47,-0.10,1.76,1.76,1.76
56.29,1.81,1.81,0.07,0.07,-0.07,-0.47,-0.13,1.74,1.74,1.74
56.86,1.78,1.78,0.06,0.07,-0.07,-0.47,-0.16,1.71,1.71,1.71
57.42,1.76,1.75,0.07,0.06,-0.06,-0.47,-0.18,1.69,1.69,1.68
58.00,1.73,1.73,0.06,0.06,-0.06,-0.47,-0.21,1.67,1.66,1.67
58.58,1.70,1.70,0.06,0.06,-0.06,-0.47,-0.23,1.64,1.64,1.64
59.16,1.68,1.68,0.06,0.06,-0.06,-0.48,-0.26,1.62,1.61,1.62
59.76,1.66,1.65,0.06,0.06,-0.06,-0.48,-0.28,1.59,1.59,1.59
60.35,1.63,1.63,0.06,0.06,-0.07,-0.48,-0.30,1.56,1.56,1.56
60.96,1.61,1.61,0.06,0.07,-0.07,-0.48,-0.33,1.53,1.54,1.55
61.57,1.59,1.59,0.08,0.08,-0.08,-0.48,-0.35,1.51,1.51,1.51
62.18,1.57,1.56,0.09,0.09,-0.08,-0.48,-0.37,1.48,1.48,1.47
62.80,1.54,1.54,0.09,0.10,-0.09,-0.49,-0.39,1.45,1.45,1.45
63.43,1.52,1.51,0.10,0.10,-0.09,-0.49,-0.42,1.42,1.42,1.41
64.07,1.49,1.49,0.10,0.10,-0.10,-0.49,-0.44,1.39,1.39,1.39
64.71,1.47,1.46,0.10,0.10,-0.10,-0.50,-0.46,1.37,1.37,1.37
65.35,1.44,1.44,0.09,0.09,-0.09,-0.50,-0.48,1.34,1.34,1.34
66.01,1.41,1.41,0.08,0.09,-0.09,-0.51,-0.50,1.32,1.32,1.33
66.67,1.39,1.38,0.09,0.09,-0.09,-0.51,-0.52,1.30,1.30,1.30
67.33,1.36,1.36,0.08,0.08,-0.08,-0.52,-0.54,1.28,1.28,1.28
68.01,1.33,1.33,0.08,0.08,-0.08,-0.52,-0.56,1.25,1.25,1.25
68.69,1.30,1.30,0.07,0.07,-0.07,-0.53,-0.58,1.22,1.22,1.22
69.37,1.27,1.27,0.07,0.07,-0.07,-0.54,-0.60,1.20,1.20,1.19
70.07,1.24,1.24,0.07,0.07,-0.07,-0.54,-0.62,1.17,1.17,1.17
70.77,1.22,1.21,0.07,0.07,-0.07,-0.55,-0.64,1.14,1.14,1.15
71.48,1.19,1.19,0.08,0.07,-0.08,-0.56,-0.66,1.11,1.11,1.11
72.19,1.17,1.17,0.08,0.08,-0.09,-0.57,-0.68,1.08,1.08,1.09
72.91,1.15,1.14,0.10,0.09,-0.10,-0.59,-0.70,1.05,1.05,1.05
73.64,1.13,1.13,0.11,0.11,-0.11,-0.60,-0.73,1.02,1.02,1.01
74.38,1.11,1.11,0.12,0.13,-0.13,-0.61,-0.75,0.98,0.98,0.99
75.12,1.10,1.09,0.16,0.15,-0.15,-0.62,-0.77,0.95,0.95,0.94
75.87,1.08,1.08,0.17,0.17,-0.17,-0.64,-0.79,0.91,0.91,0.91
76.63,1.07,1.06,0.19,0.19,-0.19,-0.66,-0.82,0.88,0.87,0.88
77.40,1.05,1.05,0.21,0.21,-0.22,-0.67,-0.84,0.83,0.83,0.84
78.17,1.04,1.04,0.25,0.24,-0.24,-0.69,-0.87,0.80,0.80,0.79
78.95,1.03,1.03,0.26,0.27,-0.27,-0.71,-0.89,0.76,0.76,0.76
79.74,1.02,1.01,0.30,0.30,-0.30,-0.73,-0.92,0.72,0.72,0.72
80.54,1.00,1.00,0.32,0.32,-0.33,-0.75,-0.95,0.67,0.68,0.68
81.35,0.99,0.99,0.36,0.36,-0.36,-0.77,-0.97,0.63,0.63,0.63
82.16,0.98,0.97,0.39,0.39,-0.39,-0.79,-1.00,0.59,0.59,0.58
82.98,0.96,0.96,0.41,0.42,-0.42,-0.81,-1.03,0.54,0.54,0.55
83.81,0.95,0.94,0.46,0.45,-0.45,-0.84,-1.06,0.50,0.50,0.49
84.65,0.93,0.93,0.48,0.48,-0.48,-0.86,-1.09,0.45,0.45,0.44
85.50,0.92,0.91,0.51,0.51,-0.51,-0.89,-1.12,0.41,0.40,0.40
86.35,0.90,0.90,0.54,0.54,-0.54,-0.91,-1.16,0.35,0.35,0.36
87.22,0.89,0.89,0.58,0.58,-0.58,-0.94,-1.19,0.31,0.31,0.31
88.09,0.87,0.87,0.61,0.61,-0.61,-0.97,-1.23,0.26,0.26,0.26
88.97,0.86,0.85,0.64,0.64,-0.65,-1.00,-1.26,0.21,0.21,0.21
89.86,0.84,0.84,0.67,0.68,-0.68,-1.03,-1.30,0.15,0.16,0.16
90.76,0.83,0.83,0.73,0.72,-0.72,-1.06,-1.34,0.11,0.11,0.10
91.66,0.82,0.82,0.76,0.76,-0.76,-1.09,-1.38,0.06,0.06,0.06
92.58,0.81,0.81,0.81,0.80,-0.80,-1.12,-1.42,0.01,0.01,-0.00
93.51,0.80,0.80,0.84,0.84,-0.84,-1.15,-1.46,-0.04,-0.04,-0.04
94.44,0.79,0.79,0.88,0.88,-0.88,-1.18,-1.50,-0.10,-0.10,-0.09
95.39,0.78,0.78,0.92,0.92,-0.93,-1.22,-1.54,-0.15,-0.15,-0.15
96.34,0.77,0.77,0.98,0.97,-0.98,-1.25,-1.58,-0.21,-0.21,-0.21
97.30,0.76,0.76,1.02,1.03,-1.03,-1.29,-1.63,-0.27,-0.27,-0.27
98.28,0.76,0.75,1.08,1.08,-1.08,-1.32,-1.67,-0.32,-0.33,-0.32
99.26,0.75,0.75,1.13,1.13,-1.13,-1.36,-1.72,-0.39,-0.38,-0.39
100.25,0.75,0.75,1.19,1.19,-1.19,-1.40,-1.76,-0.44,-0.44,-0.44
101.25,0.75,0.75,1.25,1.25,-1.25,-1.43,-1.81,-0.50,-0.50,-0.50
102.27,0.75,0.74,1.31,1.31,-1.31,-1.47,-1.86,-0.56,-0.56,-0.57
103.29,0.74,0.74,1.37,1.37,-1.37,-1.51,-1.90,-0.63,-0.63,-0.63
104.32,0.74,0.74,1.43,1.43,-1.43,-1.55,-1.95,-0.69,-0.69,-0.69
105.37,0.74,0.74,1.48,1.48,-1.49,-1.58,-2.00,-0.75,-0.75,-0.74
106.42,0.74,0.73,1.55,1.54,-1.55,-1.62,-2.04,-0.81,-0.81,-0.81
107.48,0.73,0.73,1.60,1.61,-1.61,-1.66,-2.09,-0.88,-0.88,-0.88
108.56,0.73,0.73,1.67,1.67,-1.67,-1.70,-2.13,-0.94,-0.94,-0.94
109.64,0.73,0.72,1.74,1.73,-1.73,-1.74,-2.17,-1.00,-1.01,-1.01
110.74,0.72,0.72,1.78,1.79,-1.79,-1.78,-2.21,-1.07,-1.07,-1.07
111.85,0.72,0.71,1.85,1.85,-1.85,-1.82,-2.26,-1.14,-1.14,-1.13
112.97,0.71,0.71,1.92,1.91,-1.92,-1.86,-2.29,-1.21,-1.21,-1.22
114.10,0.71,0.70,1.98,1.98,-1.98,-1.90,-2.33,-1.27,-1.27,-1.27
115.24,0.70,0.70,2.03,2.04,-2.04,-1.94,-2.37,-1.34,-1.34,-1.34
116.39,0.69,0.69,2.10,2.10,-2.10,-1.98,-2.40,-1.41,-1.41,-1.41
117.55,0.69,0.68,2.16,2.16,-2.16,-2.02,-2.43,-1.47,-1.47,-1.48
118.73,0.68,0.68,2.22,2.21,-2.21,-2.06,-2.46,-1.53,-1.53,-1.54
119.92,0.67,0.67,2.26,2.27,-2.27,-2.10,-2.48,-1.60,-1.60,-1.59
121.12,0.67,0.66,2.32,2.32,-2.32,-2.14,-2.50,-1.65,-1.66,-1.66
122.33,0.66,0.66,2.37,2.37,-2.37,-2.18,-2.52,-1.72,-1.72,-1.72
123.55,0.66,0.66,2.43,2.43,-2.43,-2.22,-2.53,-1.77,-1.77,-1.77
124.79,0.65,0.65,2.48,2.48,-2.48,-2.26,-2.55,-1.83,-1.83,-1.83
126.03,0.65,0.64,2.53,2.53,-2.53,-2.30,-2.56,-1.89,-1.89,-1.88
127.29,0.64,0.64,2.58,2.58,-2.58,-2.34,-2.56,-1.95,-1.95,-1.94
128.57,0.63,0.63,2.64,2.63,-2.63,-2.38,-2.56,-2.01,-2.00,-2.01
129.85,0.63,0.62,2.69,2.68,-2.68,-2.42,-2.56,-2.05,-2.06,-2.06
131.15,0.62,0.62,2.72,2.73,-2.72,-2.46,-2.56,-2.11,-2.11,-2.11
132.46,0.61,0.61,2.77,2.77,-2.76,-2.49,-2.55,-2.16,-2.16,-2.16
133.79,0.60,0.60,2.80,2.80,-2.80,-2.53,-2.54,-2.21,-2.21,-2.20
135.12,0.59,0.59,2.84,2.84,-2.84,-2.57,-2.53,-2.25,-2.25,-2.26
136.48,0.58,0.58,2.87,2.87,-2.87,-2.61,-2.52,-2.30,-2.30,-2.29
137.84,0.57,0.57,2.89,2.90,-2.90,-2.64,-2.50,-2.34,-2.34,-2.33
139.22,0.56,0.56,2.94,2.93,-2.93,-2.68,-2.48,-2.37,-2.37,-2.38
140.61,0.55,0.55,2.97,2.96,-2.96,-2.72,-2.46,-2.41,-2.41,-2.42
142.02,0.54,0.54,2.97,2.98,-2.98,-2.75,-2.44,-2.44,-2.44,-2.43
143.44,0.53,0.53,2.99,3.00,-3.00,-2.79,-2.42,-2.47,-2.47,-2.47
144.87,0.52,0.51,3.02,3.02,-3.02,-2.83,-2.40,-2.50,-2.50,-2.51
146.32,0.50,0.50,3.03,3.03,-3.03,-2.86,-2.38,-2.53,-2.53,-2.54
147.78,0.49,0.48,3.04,3.04,-3.05,-2.89,-2.35,-2.56,-2.56,-2.55
149.26,0.47,0.47,3.05,3.06,-3.06,-2.93,-2.33,-2.59,-2.59,-2.58
150.75,0.46,0.46,3.08,3.07,-3.07,-2.96,-2.31,-2.62,-2.62,-2.62
152.26,0.45,0.44,3.09,3.09,-3.09,-2.99,-2.28,-2.64,-2.64,-2.65
153.78,0.43,0.43,3.10,3.10,-3.10,-3.03,-2.26,-2.67,-2.67,-2.67
155.32,0.42,0.42,3.11,3.11,-3.11,-3.06,-2.24,-2.70,-2.70,-2.70
156.88,0.41,0.40,3.13,3.13,-3.13,-3.09,-2.22,-2.72,-2.73,-2.72
158.44,0.39,0.39,3.14,3.14,-3.15,-3.12,-2.20,-2.76,-2.76,-2.75
160.03,0.38,0.38,3.16,3.16,-3.16,-3.15,-2.18,-2.78,-2.78,-2.79
161.63,0.37,0.37,3.18,3.18,-3.18,-3.17,-2.16,-2.81,-2.81,-2.82
163.24,0.36,0.36,3.19,3.19,-3.19,-3.20,-2.14,-2.84,-2.84,-2.84
164.88,0.35,0.35,3.20,3.21,-3.21,-3.22,-2.13,-2.86,-2.86,-2.86
166.53,0.34,0.34,3.22,3.23,-3.23,-3.25,-2.12,-2.89,-2.89,-2.89
168.19,0.33,0.32,3.25,3.24,-3.24,-3.27,-2.10,-2.92,-2.92,-2.93
169.87,0.31,0.31,3.26,3.26,-3.26,-3.29,-2.09,-2.95,-2.95,-2.95
171.57,0.29,0.29,3.27,3.27,-3.27,-3.30,-2.08,-2.98,-2.98,-2.98
173.29,0.27,0.27,3.27,3.28,-3.28,-3.32,-2.08,-3.01,-3.01,-3.01
175.02,0.25,0.24,3.29,3.29,-3.29,-3.33,-2.07,-3.04,-3.04,-3.04
176.77,0.22,0.21,3.30,3.30,-3.29,-3.34,-2.06,-3.08,-3.08,-3.09
178.54,0.18,0.18,3.30,3.30,-3.30,-3.35,-2.06,-3.12,-3.12,-3.12
180.32,0.15,0.14,3.30,3.30,-3.30,-3.36,-2.06,-3.15,-3.15,-3.15
182.13,0.11,0.11,3.29,3.29,-3.30,-3.36,-2.06,-3.19,-3.19,-3.19
183.95,0.07,0.07,3.29,3.29,-3.29,-3.36,-2.06,-3.23,-3.23,-3.23
185.79,0.03,0.03,3.29,3.29,-3.29,-3.35,-2.07,-3.26,-3.26,-3.26
187.65,-0.01,-0.01,3.29,3.29,-3.28,-3.34,-2.07,-3.29,-3.29,-3.30
189.52,-0.05,-0.05,3.28,3.27,-3.27,-3.33,-2.08,-3.32,-3.33,-3.33
191.42,-0.09,-0.10,3.27,3.26,-3.26,-3.32,-2.09,-3.35,-3.36,-3.36
193.33,-0.14,-0.14,3.23,3.24,-3.25,-3.30,-2.10,-3.39,-3.39,-3.38
195.27,-0.17,-0.18,3.23,3.23,-3.24,-3.28,-2.11,-3.41,-3.42,-3.41
197.22,-0.21,-0.21,3.22,3.23,-3.23,-3.26,-2.12,-3.44,-3.44,-3.43
199.19,-0.25,-0.25,3.23,3.22,-3.22,-3.23,-2.13,-3.47,-3.47,-3.48
201.18,-0.29,-0.29,3.20,3.21,-3.20,-3.20,-2.15,-3.49,-3.49,-3.50
203.19,-0.33,-0.33,3.18,3.19,-3.19,-3.17,-2.16,-3.52,-3.52,-3.51
205.23,-0.36,-0.37,3.18,3.16,-3.17,-3.13,-2.17,-3.53,-3.54,-3.54
207.28,-0.41,-0.41,3.13,3.14,-3.15,-3.09,-2.19,-3.56,-3.56,-3.54
209.35,-0.45,-0.45,3.13,3.12,-3.12,-3.05,-2.21,-3.57,-3.57,-3.58
211.44,-0.50,-0.50,3.10,3.09,-3.09,-3.01,-2.22,-3.59,-3.59,-3.60
213.56,-0.55,-0.56,3.06,3.06,-3.05,-2.96,-2.24,-3.61,-3.61,-3.62
215.69,-0.61,-0.61,3.01,3.01,-3.01,-2.91,-2.25,-3.63,-3.63,-3.62
217.85,-0.67,-0.67,2.96,2.97,-2.97,-2.86,-2.27,-3.64,-3.64,-3.63
220.03,-0.73,-0.73,2.92,2.92,-2.92,-2.81,-2.28,-3.65,-3.65,-3.66
222.23,-0.79,-0.79,2.87,2.87,-2.87,-2.76,-2.29,-3.66,-3.66,-3.67
224.45,-0.85,-0.85,2.81,2.82,-2.81,-2.71,-2.31,-3.66,-3.66,-3.66
226.70,-0.91,-0.91,2.76,2.75,-2.75,-2.65,-2.32,-3.66,-3.66,-3.67
228.96,-0.97,-0.98,2.70,2.69,-2.69,-2.60,-2.33,-3.66,-3.67,-3.67
231.25,-1.04,-1.04,2.62,2.62,-2.63,-2.54,-2.33,-3.67,-3.66,-3.66
233.57,-1.10,-1.10,2.55,2.55,-2.56,-2.48,-2.34,-3.66,-3.66,-3.65
235.90,-1.16,-1.16,2.49,2.49,-2.49,-2.42,-2.34,-3.65,-3.65,-3.65
238.26,-1.22,-1.22,2.43,2.42,-2.42,-2.36,-2.34,-3.64,-3.64,-3.65
240.64,-1.28,-1.28,2.35,2.35,-2.35,-2.30,-2.34,-3.63,-3.63,-3.63
243.05,-1.34,-1.34,2.27,2.27,-2.27,-2.24,-2.33,-3.62,-3.62,-3.62
245.48,-1.40,-1.40,2.19,2.20,-2.20,-2.18,-2.32,-3.60,-3.60,-3.60
247.93,-1.46,-1.46,2.12,2.12,-2.12,-2.12,-2.31,-3.58,-3.58,-3.58
250.41,-1.52,-1.52,2.05,2.05,-2.04,-2.05,-2.29,-3.57,-3.56,-3.57
252.92,-1.57,-1.58,1.97,1.97,-1.97,-1.99,-2.28,-3.54,-3.54,-3.54
255.45,-1.63,-1.63,1.88,1.89,-1.89,-1.92,-2.25,-3.52,-3.52,-3.52
258.00,-1.69,-1.69,1.80,1.81,-1.81,-1.86,-2.23,-3.50,-3.50,-3.49
260.58,-1.74,-1.74,1.74,1.73,-1.73,-1.79,-2.20,-3.48,-3.48,-3.48
263.19,-1.79,-1.80,1.66,1.66,-1.66,-1.72,-2.17,-3.45,-3.45,-3.46
265.82,-1.85,-1.85,1.58,1.58,-1.58,-1.65,-2.14,-3.43,-3.43,-3.43
268.48,-1.90,-1.90,1.51,1.51,-1.51,-1.58,-2.10,-3.41,-3.41,-3.41
271.16,-1.95,-1.95,1.42,1.43,-1.43,-1.51,-2.06,-3.38,-3.38,-3.38
273.87,-2.00,-2.00,1.36,1.35,-1.36,-1.44,-2.02,-3.36,-3.36,-3.36
276.61,-2.05,-2.05,1.27,1.28,-1.28,-1.37,-1.98,-3.33,-3.33,-3.33
279.38,-2.10,-2.10,1.21,1.21,-1.20,-1.29,-1.93,-3.31,-3.31,-3.31
282.17,-2.15,-2.15,1.13,1.13,-1.13,-1.22,-1.89,-3.28,-3.28,-3.29
284.99,-2.20,-2.20,1.06,1.06,-1.06,-1.14,-1.84,-3.26,-3.26,-3.26
287.84,-2.25,-2.25,0.98,0.98,-0.98,-1.06,-1.79,-3.24,-3.24,-3.24
290.72,-2.30,-2.30,0.90,0.91,-0.91,-0.98,-1.74,-3.21,-3.21,-3.20
293.63,-2.34,-2.35,0.84,0.83,-0.84,-0.90,-1.68,-3.18,-3.18,-3.19
296.57,-2.39,-2.39,0.76,0.76,-0.76,-0.82,-1.63,-3.15,-3.15,-3.15
299.53,-2.43,-2.43,0.69,0.69,-0.69,-0.74,-1.58,-3.12,-3.12,-3.12
302.53,-2.47,-2.48,0.63,0.61,-0.61,-0.65,-1.52,-3.08,-3.09,-3.10
305.55,-2.52,-2.52,0.53,0.54,-0.54,-0.57,-1.47,-3.06,-3.06,-3.05
308.61,-2.56,-2.56,0.46,0.46,-0.46,-0.48,-1.41,-3.03,-3.02,-3.03
311.69,-2.60,-2.60,0.39,0.38,-0.39,-0.40,-1.36,-2.99,-2.99,-2.99
314.81,-2.64,-2.64,0.31,0.31,-0.32,-0.31,-1.30,-2.96,-2.96,-2.95
317.96,-2.68,-2.68,0.24,0.24,-0.24,-0.23,-1.25,-2.93,-2.93,-2.93
321.14,-2.72,-2.72,0.18,0.18,-0.18,-0.15,-1.19,-2.90,-2.90,-2.90
324.35,-2.75,-2.76,0.12,0.11,-0.11,-0.06,-1.14,-2.86,-2.87,-2.87
327.59,-2.79,-2.79,0.04,0.05,-0.04,0.02,-1.08,-2.84,-2.84,-2.84
330.87,-2.83,-2.83,-0.03,-0.02,0.02,0.09,-1.03,-2.81,-2.81,-2.81
334.18,-2.86,-2.87,-0.07,-0.08,0.08,0.17,-0.98,-2.78,-2.79,-2.79
337.52,-2.90,-2.90,-0.14,-0.14,0.14,0.24,-0.92,-2.76,-2.76,-2.76
340.90,-2.93,-2.93,-0.20,-0.19,0.20,0.30,-0.87,-2.74,-2.74,-2.74
344.30,-2.96,-2.96,-0.24,-0.25,0.25,0.36,-0.82,-2.71,-2.72,-2.72
347.75,-2.99,-2.99,-0.30,-0.30,0.30,0.41,-0.76,-2.70,-2.69,-2.69
351.23,-3.01,-3.02,-0.34,-0.34,0.34,0.46,-0.71,-2.67,-2.68,-2.67
354.74,-3.04,-3.04,-0.39,-0.38,0.38,0.50,-0.66,-2.66,-2.66,-2.66
358.28,-3.05,-3.05,-0.42,-0.42,0.42,0.53,-0.61,-2.64,-2.64,-2.64
361.87,-3.06,-3.07,-0.44,-0.45,0.45,0.56,-0.56,-2.62,-2.62,-2.62
365.49,-3.07,-3.07,-0.48,-0.47,0.47,0.57,-0.51,-2.60,-2.60,-2.59
369.14,-3.07,-3.07,-0.49,-0.49,0.49,0.59,-0.46,-2.58,-2.58,-2.58
372.83,-3.07,-3.07,-0.51,-0.51,0.51,0.59,-0.42,-2.56,-2.56,-2.56
376.56,-3.06,-3.06,-0.52,-0.52,0.52,0.59,-0.37,-2.54,-2.54,-2.55
380.33,-3.05,-3.05,-0.53,-0.53,0.53,0.58,-0.32,-2.52,-2.52,-2.52
384.13,-3.03,-3.03,-0.53,-0.53,0.53,0.57,-0.27,-2.50,-2.50,-2.50
387.97,-3.01,-3.01,-0.53,-0.53,0.53,0.55,-0.23,-2.48,-2.48,-2.48
391.85,-2.99,-2.99,-0.53,-0.53,0.53,0.53,-0.18,-2.46,-2.46,-2.46
395.77,-2.96,-2.96,-0.53,-0.53,0.53,0.51,-0.14,-2.44,-2.44,-2.43
399.73,-2.93,-2.93,-0.52,-0.51,0.52,0.48,-0.09,-2.42,-2.42,-2.42
403.72,-2.89,-2.90,-0.50,-0.50,0.50,0.46,-0.05,-2.39,-2.39,-2.40
407.76,-2.86,-2.86,-0.48,-0.49,0.49,0.43,-0.01,-2.37,-2.37,-2.38
411.84,-2.82,-2.82,-0.47,-0.47,0.47,0.40,0.03,-2.35,-2.35,-2.35
415.96,-2.78,-2.78,-0.45,-0.45,0.45,0.37,0.07,-2.34,-2.33,-2.33
420.12,-2.73,-2.73,-0.42,-0.42,0.42,0.34,0.11,-2.32,-2.31,-2.31
424.32,-2.67,-2.68,-0.39,-0.39,0.38,0.31,0.15,-2.29,-2.30,-2.28
428.56,-2.62,-2.62,-0.36,-0.35,0.34,0.28,0.19,-2.28,-2.28,-2.26
432.85,-2.55,-2.55,-0.31,-0.31,0.30,0.26,0.23,-2.25,-2.25,-2.25
437.18,-2.48,-2.48,-0.27,-0.26,0.26,0.23,0.26,-2.22,-2.22,-2.22
441.55,-2.40,-2.40,-0.22,-0.21,0.22,0.20,0.29,-2.18,-2.18,-2.19
445.96,-2.32,-2.33,-0.15,-0.17,0.18,0.18,0.33,-2.14,-2.15,-2.17
450.42,-2.27,-2.27,-0.12,-0.13,0.15,0.16,0.36,-2.12,-2.12,-2.15
454.93,-2.23,-2.23,-0.12,-0.11,0.12,0.14,0.38,-2.11,-2.11,-2.11
459.48,-2.19,-2.19,-0.10,-0.10,0.10,0.12,0.41,-2.09,-2.09,-2.09
464.07,-2.15,-2.15,-0.09,-0.10,0.09,0.10,0.44,-2.07,-2.07,-2.06
468.71,-2.11,-2.11,-0.09,-0.08,0.08,0.09,0.46,-2.04,-2.04,-2.02
473.40,-2.07,-2.07,-0.07,-0.07,0.07,0.07,0.48,-2.01,-2.01,-2.00
478.13,-2.03,-2.04,-0.06,-0.06,0.06,0.06,0.50,-1.97,-1.97,-1.97
482.91,-2.00,-2.00,-0.06,-0.05,0.06,0.05,0.51,-1.95,-1.94,-1.94
487.74,-1.96,-1.96,-0.05,-0.05,0.05,0.04,0.53,-1.91,-1.91,-1.92
492.62,-1.93,-1.93,-0.05,-0.05,0.05,0.03,0.54,-1.88,-1.89,-1.89
