frequency,raw
10,-6.212406249866011
11,-5.3719013536519356
12,-4.500404721068811
13,-3.8007419372024582
14,-3.209305666713609
15,-2.567681274793526
16,-2.005116752987482
17,-1.529587045719945
18,-1.0111550143541064
19,-0.6591269102971999
20,-0.18631893853297932
21,0.2893392006437452
22,0.6653353909954607
23,0.9012613318059808
24,1.3384194223277799
25,1.5159073156403258
26,1.9063703964800807
27,2.114583953180464
28,2.2983705061837076
29,2.4953800605330283
30,2.6882132097327114
31,2.9447762246986713
32,3.1461851626124417
33,3.23701402387673
34,3.4997902077065186
35,3.5501081282123526
36,3.645414216990779
37,3.8198598582231424
38,3.892929065922524
39,4.032637946724397
40,4.1564484491339
41,4.277144772914724
42,4.393062980627376
43,4.399305568711818
44,4.49793584205167
45,4.581116560887998
46,4.582223543223788
47,4.676791490948106
48,4.6770816700929005
49,4.685254513985238
50,4.801031296734718
51,4.82014942828257
52,4.939400056394626
53,4.953519094893799
54,4.960531571483773
55,4.960053868431616
56,4.953599468347433
57,4.943733191557302
58,5.033703135799679
59,5.024453052532659
60,5.0177267597237
61,5.013702606432026
62,5.011723385806193
63,5.01068387041756
64,5.0096080868087585
65,5.008205464823518
66,4.952454548558184
67,4.901492972945948
68,4.909772255674592
69,4.915355277227458
70,4.922613163509992
71,4.929680564003127
72,4.9345683775861575
73,4.935854131700039
74,4.9329841943569575
75,4.832292166360525
76,4.8000661371373665
77,4.803079475663192
78,4.789916796542253
79,4.778016627982581
80,4.769716179475539
81,4.76694690994319
82,4.725314828366376
83,4.638591174029989
84,4.6913816129568735
85,4.705605519323326
86,4.720268893061626
87,4.578037090487369
88,4.614337248306057
89,4.671528669063455
90,4.691182312617359
91,4.477861630094927
92,4.358313367967849
93,4.257734222126295
94,4.315818358353813
95,4.279599474126332
96,4.217939569141856
97,4.137653359381876
98,4.13863666107665
99,4.166007782435868
100,4.04996992847555
101,3.9410427651938367
102,4.006949125208572
104,3.8153871545348146
105,3.8631896577044307
106,3.810977702687217
107,3.7207481667583755
108,3.7385491261621384
109,3.7543198000760176
110,3.76308803904889
111,3.7630799336122047
112,3.7321885352793442
113,3.584323548855834
114,3.5837792864074833
115,3.617731130011368
117,3.632549247780303
118,3.660643810642193
119,3.5883707771698594
120,3.493554443347292
121,3.4936477779366832
123,3.500028766008218
124,3.531469369320239
125,3.421167078352328
126,3.2640850411965348
128,3.2917348010662772
129,3.327206130517366
130,3.3420101839023504
131,3.2620918944942874
133,3.1303862273186676
134,3.0748185847944356
135,3.084961629833658
137,3.1076010597098067
138,3.103977963294419
140,3.0222474232688255
141,2.947929023555397
142,3.012978203011614
144,3.0834511362932036
145,2.976493944537494
147,2.778056803066848
148,2.828494057771805
150,2.787187519504987
151,2.715678894724202
153,2.7175989731242662
154,2.7260529752538165
156,2.604620072789838
157,2.6338924755461344
159,2.631892450857519
160,2.5102385513724403
162,2.425940926944934
164,2.408273769846063
165,2.3609915125325083
167,2.284475613121855
169,2.0099312634570783
170,2.0063670044980553
172,2.0677285793032727
174,2.071146797075585
175,2.074489482656369
177,2.07638151800096
179,1.976385150966883
181,1.92003550078576
183,1.876901937999091
184,1.8781814332399787
186,1.925406468206936
188,1.909272438246771
190,1.661264141358071
192,1.6715101814535682
194,1.7070572286683428
196,1.4721724689333913
198,1.4417404959401932
200,1.556038464093473
202,1.5801770892481244
204,1.360524961127088
206,1.3306733081876594
208,1.417846346360247
210,1.3112233033666714
212,1.250066626586654
214,1.1282236266513452
216,1.156412655789885
218,1.2580410775239015
221,1.002527831310645
223,0.9731359322296163
225,1.0591532312640108
227,0.9017696935962372
229,0.653669937108762
232,0.6635714805563606
234,0.6815954895415501
236,0.534226114909826
239,0.39154097795434506
241,0.23043711614117335
244,0.3224239700338889
246,0.4004400161750308
248,0.2586294894274932
251,0.09489651592988269
253,0.18862986327786402
256,0.13420512972374565
259,0.04517486688849992
261,0.007657953978811527
264,-0.04017764275136315
266,-0.03743617097529839
269,-0.1039155825674154
272,-0.22614903272743803
274,-0.2789132621375052
277,-0.3994855841565643
280,-0.49322097947431676
283,-0.5528938232911855
286,-0.6612799079928307
288,-0.737919744743964
291,-0.8808824099109138
294,-1.021407452385028
297,-1.0189903053441185
300,-1.10114044367042
303,-1.1380363315722386
306,-1.1960342912978077
309,-1.2656977980765678
312,-1.305624353748399
316,-1.386676650582229
319,-1.408457031619748
322,-1.5066106150156449
325,-1.5668935656633027
328,-1.645291722980628
332,-1.70507614134371
335,-1.742379737984992
338,-1.8742561146897287
342,-2.036537789590639
345,-2.0656414747867102
349,-2.1289773132823626
352,-2.1857324794103583
356,-2.2785017690936433
359,-2.3847995044691253
363,-2.369250551070575
366,-2.398176445579398
370,-2.5366603064216537
374,-2.580192818541671
377,-2.618996810667202
381,-2.6114235128265877
385,-2.633662532607987
389,-2.712569719810368
393,-2.683869730670052
397,-2.6776507417281072
401,-2.8405635752652008
405,-2.8628445934796143
409,-2.8429272325588153
413,-2.8415681632660115
417,-2.9372083700935447
421,-3.0475556101971097
425,-3.201041519897998
430,-3.191951927082635
434,-3.1612503105043483
438,-3.1543877271368266
443,-3.2601528072339065
447,-3.29522158853415
451,-3.234620069245401
456,-3.3044629744890264
460,-3.3831891178799314
465,-3.303751254863746
470,-3.34765833149636
474,-3.4580249993512626
479,-3.383188393230986
484,-3.28735853564195
489,-3.1187893907670206
494,-3.326297113269406
499,-3.061330688938807
504,-3.0257641139363427
509,-3.082758294667379
514,-2.907317366862061
519,-2.7591963661878447
524,-2.6255040031237047
529,-2.798646742146434
535,-2.957276025248561
540,-2.5278369796433635
545,-2.426766278957115
551,-2.5354791941657315
556,-2.5707284676706386
562,-2.482551744630174
568,-2.0211848173328515
573,-2.22760390683752
579,-2.1172062152422226
585,-1.9910029616694498
591,-1.888419633938001
596,-1.5118593180179376
602,-1.6878590150684682
608,-1.819329752651496
615,-1.7537885769466321
621,-1.749527150189009
627,-1.3595818222235327
633,-1.31079128168177
639,-1.2785940659653094
646,-1.0331739068817432
652,-0.9739658291888089
659,-0.8819008811166102
665,-0.828653628235057
672,-0.7893570827606404
679,-0.707212099305051
686,-0.713666939429745
692,-0.6080466821927724
699,-0.4394180313328917
706,-0.705319147818928
713,-0.7252141592545818
721,-0.4438724336596729
728,-0.4267231885894571
735,-0.41604403068569695
742,-0.41585052669487865
750,-0.4285999720087874
757,-0.4531307048420907
765,-0.48394403288384913
773,-0.642526909129896
780,-0.6730646466793573
788,-0.5354183111690722
796,-0.4357930852642258
804,-0.5252398523076027
812,-0.41060900555706503
820,-0.2611511472274679
828,-0.3054103354639608
837,-0.32858670505141196
845,-0.377816641848717
853,-0.2216343221235313
862,-0.2560594420073885
871,-0.3156418766091269
879,-0.36715471521644805
888,-0.2383322312166376
897,-0.18366085186438674
906,-0.17923532338451365
915,-0.23533994559720828
924,-0.23053097888857899
933,-0.07518601749480691
943,-0.009793333252230862
952,-0.0430597077244923
962,-0.10562895007817419
971,-0.07648402081621919
981,-0.0470218410004426
991,-0.02036849402881602
1001,0.0022518406779017397
1011,0.0398451939240525
1021,0.052727294294514504
1031,-0.03417256922222034
1041,-0.0044016593094649
1052,-0.013235129160619863
1062,-0.027932903761671568
1073,-0.06620795744871577
1084,-0.029300884999873045
1094,0.021082988445671802
1105,0.012472327081173074
1116,0.014576468992743674
1128,-0.07473239290902445
1139,-0.06180233786551392
1150,-0.011154723377117648
1162,-0.09467533027837005
1173,-0.09208781286882495
1185,-0.04607994846358743
1197,-0.09837311102020152
1209,-0.060827682006487915
1221,-0.06341548737557767
1233,-0.06949956003750746
1246,-0.0024587999192333676
1258,0.037617809759760146
1271,-0.01184665243728844
1283,0.00412617934174575
1296,0.05349544152858643
1309,0.10873555680962887
1322,0.18042159935361357
1335,0.18417547752736274
1349,0.172592773456536
1362,0.22796124958804231
1376,0.22360660367069007
1390,0.22351386183361655
1404,0.16774987729105506
1418,0.06880005821005541
1432,0.005201581809502365
1446,-0.030437001689987753
1461,-0.039413868437633504
1475,-0.01974471169612224
1490,-0.04684287883185334
1505,-0.1269678543734507
1520,-0.12111419914593036
1535,-0.1555749331162577
1550,-0.23395345951088053
1566,-0.2829793446751814
1582,-0.3826547304164767
1597,-0.3785660631661587
1613,-0.40593892504140383
1629,-0.4583241445431634
1646,-0.49307700433268087
1662,-0.44474639034600116
1679,-0.47614303863447116
1696,-0.4790156518959474
1713,-0.5395209419592799
1730,-0.534609104135471
1747,-0.526334996026661
1764,-0.5066001533287539
1782,-0.497712220984901
1800,-0.5096114488130365
1818,-0.5637140872519328
1836,-0.6355505150022416
1854,-0.706418820209401
1873,-0.7840455401159585
1892,-0.8466235994481912
1911,-0.8691831064622795
1930,-0.8909352050484989
1949,-0.951831677610731
1969,-1.0765969848067316
1988,-1.1001936366042546
2008,-1.2011949654559384
2028,-1.2895758395416417
2048,-1.2533972608996757
2069,-1.2748008938196946
2090,-1.2934740594394762
2111,-1.306777496406081
2132,-1.359020128272351
2153,-1.308625139601224
2175,-1.3411476821923811
2196,-1.3746439839881983
2218,-1.3763359237581678
2240,-1.3629148463148324
2263,-1.4012247488733935
2285,-1.375824812667604
2308,-1.3985675811331229
2331,-1.4226484321917434
2355,-1.339930714996263
2378,-1.3996141549006769
2402,-1.4530170212085158
2426,-1.3517064899341493
2450,-1.2445658667639803
2475,-1.1875070314455156
2500,-1.1422849139260531
2525,-1.054999346299927
2550,-1.001233636745047
2575,-0.9333383822530736
2601,-0.9619085625877934
2627,-0.9548156921071369
2653,-0.9034946554108929
2680,-0.8383749950239947
2707,-0.7833292714497668
2734,-0.6729055714752805
2761,-0.49254810073746214
2789,-0.3479519716022601
2817,-0.20476770568205893
2845,-0.10709030396735919
2873,0.02263373096220711
2902,0.08741519826064881
2931,0.16676955081060996
2960,0.308010980579688
2990,0.4156792892283736
3020,0.5279042881864431
3050,0.703832658919934
3080,0.8213638561999161
3111,0.9216147520844551
3142,1.0697321772022441
3174,1.2965867774548805
3206,1.4689740019150683
3238,1.641084754785668
3270,1.865332881393421
3303,2.0373900442038977
3336,2.1458805910487975
3369,2.2858152795862843
3403,2.3583533548437536
3437,2.487358567879266
3471,2.552223563002812
3506,2.5158442606492777
3541,2.5088647234876884
3576,2.546139664420604
3612,2.4699244121719435
3648,2.4079506589907957
3685,2.2608987384653574
3721,2.077904018212962
3759,1.9375950536985194
3796,1.7302017199761366
3834,1.240095775997153
3873,1.036744022420363
3911,0.7885101314864986
3950,0.5492965696249961
3990,0.012936937737894283
4030,-0.6610972673818267
4070,-1.1854072382288052
4111,-1.7165417237483904
4152,-2.2933295097242468
4193,-2.732545524984868
4235,-3.256990541265825
4278,-3.873488226218221
4321,-4.312458319145668
4364,-4.896269010848055
4407,-5.436297809315498
4451,-5.735347861636871
4496,-6.113601060426216
4541,-6.606523964128074
4586,-6.950683361259998
4632,-7.303019458484329
4679,-7.998714122178587
4725,-8.462119760998835
4773,-9.190922326044351
4820,-9.803080715662222
4868,-10.648026444905774
4917,-11.075100674824416
4966,-11.671396437401867
5016,-12.505822225641818
5066,-12.996600833624424
5117,-12.983517518372405
5168,-12.135568719381595
5220,-11.694188832961007
5272,-11.611036139536182
5325,-11.724240133029515
5378,-11.780196862859427
5432,-11.258293983276658
5486,-11.034115964734383
5541,-10.942088413055792
5596,-10.835737658990123
5652,-10.308750405273962
5709,-9.99026128230198
5766,-9.613622393079801
5823,-9.327396059943732
5882,-8.370133443161514
5940,-8.361339278721143
6000,-8.45310403714095
6060,-8.55401891225816
6120,-8.046948376918845
6182,-8.080977903265827
6244,-8.056197213125607
6306,-7.8206420015548455
6369,-8.08741102244947
6433,-8.336938329550485
6497,-8.542634970468256
6562,-8.873927330669325
6628,-8.99088046325845
6694,-9.41958341090234
6761,-9.408687554748564
6828,-9.306218797979174
6897,-9.292299146551468
6966,-9.250330678899136
7035,-9.321208770198757
7106,-9.419739419611606
7177,-9.421459594968484
7249,-9.395005288214596
7321,-9.506568169255932
7394,-9.555129130624087
7468,-9.412397248366034
7543,-9.28498153448201
7618,-9.12592807522666
7694,-8.687070313290196
7771,-8.264062357523233
7849,-8.060679099399916
7928,-7.743135486511224
8007,-7.445514406344755
8087,-7.148426729741702
8168,-6.834483276672405
8250,-6.315444868622356
8332,-5.892969180285564
8415,-5.647508013359604
8499,-5.748889358816612
8584,-6.269325737695981
8670,-6.214527468561861
8757,-5.95231264246873
8845,-5.926375890495553
8933,-5.924171611114282
9022,-6.450934693066262
9113,-6.4914572207395835
9204,-5.913103962739725
9296,-5.324069412909319
9389,-4.815644898479665
9483,-4.753073373360116
9577,-4.598660269557563
9673,-4.459514900016779
9770,-4.8524721871039125
9868,-6.063427626886044
9966,-6.227830797388298
10066,-5.961054127496613
10167,-5.719001739956978
10268,-5.393529390052001
10371,-4.932703905098628
10475,-4.918012181179232
10579,-5.005496344285969
10685,-4.8704036067301395
10792,-5.024358085041089
10900,-5.3001679085739495
11009,-5.667312137034784
11119,-5.370604291758105
11230,-5.427589871557339
11343,-5.6373520107404325
11456,-5.756431090807785
11571,-6.329799840194763
11686,-6.605941734711255
11803,-7.2216892562285935
11921,-7.694402273412705
12040,-7.72956836651408
12161,-7.908475798849536
12282,-8.162031169667454
12405,-8.349741346205207
12529,-8.524198006470506
12655,-8.392197262231317
12781,-8.349029897070924
12909,-8.767603636949818
13038,-9.357214485219231
13168,-9.656181551413106
13300,-10.174298191679224
13433,-10.563137412619515
13567,-11.21584166971109
13703,-11.62989160264203
13840,-12.15827563238162
13978,-12.677157134256134
14118,-12.959901336285386
14259,-13.430360146393884
14402,-13.674307536705449
14546,-13.736123076030093
14692,-14.260793855642566
14838,-14.781230769853385
14987,-14.988398971378592
15137,-14.590471494543195
15288,-14.1895855303564
15441,-13.854251957076297
15595,-13.357250268001604
15751,-12.747340655273497
15909,-12.995266868451692
16068,-12.551233770243499
16229,-12.733580143580829
16391,-13.743934559425835
16555,-14.766223462455383
16720,-16.90455578899619
16888,-18.354578798156318
17056,-21.18041820330776
17227,-23.389907749941337
17399,-24.876169554320608
17573,-26.669174644137517
17749,-26.774692161562204
17926,-25.105096129756312
18106,-25.173985554735303
18287,-24.3348049470518
18470,-22.618536338013428
18654,-21.977545926463
18841,-20.444625356273193
19029,-20.05096488048377
19220,-21.057972975594588
19412,-22.05866619577536
19606,-23.583651757585947
19802,-24.162700801776435
20000,-24.109329476449634
20200,-23.65785723983424
20402,-22.585159127346202
20606,-22.591427822824976
20812,-22.9612120245591
21020,-23.084252557997353
21230,-22.925742576749137
21443,-22.72692319631416
21657,-23.793626497083018
21874,-24.388100241380798
22092,-25.201564631399282
22313,-25.17654402047157
22537,-25.03817468016123
22762,-24.407206327902376
22989,-23.530204280540303
23219,-25.169637749359758
23452,-22.027127966949557
23686,-19.835076273429305
23923,-18.372314805079068
24162,-18.421912203401053
24404,-18.457122776794936
24648,-18.49274101766816
24894,-18.528560216271945
25143,-18.565117732730187
25395,-18.602185380740217
25649,-18.638835025344576
25905,-18.674970190630447
26164,-18.71128371567226
26426,-18.74775282604761
26690,-18.783661799050442
26957,-18.819765157280962
27227,-18.856082825623087
27499,-18.8919230461155
27774,-18.927991867030514
28052,-18.964266632978585
28332,-19.00003645393755
28615,-19.03595559618168
28902,-19.07266755672299
29191,-19.108810032932126
29482,-19.14438275376754
29777,-19.18067687652388
