frequency,raw,error,smoothed,error_smoothed,equalization,equalized_raw,equalized_smoothed,target
20,-23.251554646185085,-27.372175396792997,-23.19907407567048,-27.31971307084876,5.999999999999999,-17.251554646185085,-17.19907407567048,4.120620750607913
21,-22.42675973708756,-26.578994881796895,-22.502694840931678,-26.65491936144531,6.0,-16.42675973708756,-16.502694840931678,4.152235144709332
22,-21.88939358111338,-26.069842061136878,-21.8367038801765,-26.017130298537637,6.0,-15.889393581113382,-15.8367038801765,4.180448480023496
23,-21.178300287532334,-25.38355963785387,-21.20110119340495,-25.40634588212574,5.999999999999999,-15.178300287532334,-15.201101193404948,4.205259350321538
24,-20.546051508905542,-24.772717605359777,-20.595886780616993,-24.82256611220958,5.999999999999998,-14.546051508905544,-14.595886780616995,4.2266660964542355
25,-19.86505248493056,-24.109719259836357,-20.024055735417505,-24.26879443615188,6.000000000000001,-13.865052484930558,-14.024055735417505,4.244666774905798
26,-19.553967137599113,-23.813226261649373,-19.48187540871274,-23.7412938149542,6.0,-13.553967137599113,-13.481875408712739,4.259259124050261
27,-19.017572785218473,-23.288082258929016,-18.96608002366642,-23.2367901213959,6.0,-13.017572785218473,-12.966080023666422,4.270509473710542
28,-18.51752350617775,-22.7958851467637,-18.472462074536857,-22.75105637572581,6.0,-12.51752350617775,-12.472462074536857,4.278361640585948
29,-18.049450689239492,-22.332237380751202,-17.996663720837216,-22.279699741728578,6.000000000000001,-12.049450689239492,-11.996663720837216,4.282786691511712
30,-17.3924170512135,-21.676154739874292,-17.536176475425776,-21.82015993006354,6.0,-11.3924170512135,-11.536176475425776,4.2837376886607945
31,-17.219627523454783,-21.50077439032966,-17.09010342797714,-21.37146845481706,5.999999999999999,-11.219627523454783,-11.09010342797714,4.281146866874879
32,-16.70159010077778,-20.976514382304245,-16.659428840174403,-20.93451837314101,5.999999999999999,-10.701590100777779,-10.659428840174403,4.274924281526465
33,-16.254700777963567,-20.51965939837176,-16.24651599634955,-20.51156396473459,6.0,-10.254700777963567,-10.246515996349551,4.264958620408194
34,-15.808123283656743,-20.05925533959178,-15.854139053134652,-20.105256357502718,5.999999999999998,-9.808123283656744,-9.854139053134654,4.251132055935038
35,-15.361711628338805,-19.59502618959694,-15.484653473548047,-19.717820253355654,6.000000000000001,-9.361711628338803,-9.484653473548047,4.233314561258136
36,-15.151487719287326,-19.36286283679065,-15.13924097190095,-19.35030731207719,5.999999999999998,-9.151487719287328,-9.139240971900952,4.211375117503325
37,-14.895108249988887,-19.08030045492571,-14.817564931261352,-19.002262283624404,6.0,-8.895108249988887,-8.817564931261352,4.185192204936822
38,-14.428816863244847,-18.583483314384292,-14.51786522963123,-18.671830702396996,6.000000000000001,-8.428816863244847,-8.51786522963123,4.154666451139444
39,-14.254222693544474,-18.37395778339024,-14.237370400587437,-18.35618579727179,6.0,-8.254222693544474,-8.237370400587437,4.119735089845765
40,-13.998120898836142,-18.078508660755606,-13.972884429031168,-18.052131560630094,5.999999999999999,-7.9981208988361425,-7.972884429031169,4.0803877619194635
41,-13.800066181423354,-17.836751093464418,-13.721324008612532,-17.75665720884156,5.999999999999999,-7.800066181423355,-7.721324008612533,4.036684912041063
42,-13.393207749560819,-17.381983177514407,-13.480049087656894,-17.46728509031141,6.000000000000003,-7.393207749560816,-7.480049087656892,3.9887754279535863
43,-13.336109264113347,-17.273023149492733,-13.246927689700069,-17.182152090184687,6.0,-7.336109264113347,-7.246927689700069,3.9369138853793864
44,-12.875336480652823,-16.756812583470182,-13.020176567760121,-16.899865024538077,6.0,-6.875336480652823,-7.020176567760121,3.881476102817359
45,-12.871043302837311,-16.69401514333638,-12.798104915472678,-16.619256122100953,5.999999999999998,-6.871043302837313,-6.798104915472679,3.8229718404990702
46,-12.57619268529184,-16.33824612041621,-12.578909537919527,-16.339185876638805,6.0,-6.57619268529184,-6.578909537919527,3.762053435124368
47,-12.4091220876719,-16.108641276398906,-12.360635331436491,-16.058506078581942,6.0,-6.4091220876719,-6.360635331436491,3.699519188727006
48,-12.134558966643521,-15.770869699947166,-12.141338718023427,-15.7762197828356,6.0,-6.134558966643521,-6.141338718023427,3.6363107333036453
49,-11.817777317529174,-15.3912808586958,-11.919402651440059,-15.491786161464297,5.999999999999999,-5.817777317529175,-5.91940265144006,3.573503541166627
50,-11.72000637253842,-15.2322965269475,-11.693887817872266,-15.205454478259078,5.999999999999999,-5.72000637253842,-5.693887817872267,3.5122901544090803
51,-11.674467120164257,-15.12842315876772,-11.464789187271297,-14.918496288678586,5.999999999999999,-5.674467120164258,-5.464789187271298,3.453956038603463
52,-11.227460878990753,-14.627309230469201,-11.233103993002608,-14.633242258764195,5.999999999999999,-5.227460878990754,-5.233103993002609,3.3998483514784477
53,-10.809633414490799,-14.160971730126105,-11.000693013714397,-14.352906177674683,6.000000000000002,-4.809633414490797,-5.000693013714395,3.351338315635306
54,-10.811149567343383,-14.120927835327457,-10.77000376824816,-14.081265854559664,6.0,-4.811149567343383,-4.770003768248159,3.309778267984073
55,-10.584466378454064,-13.860921225316648,-10.543787345198659,-13.822334051851772,6.0,-4.584466378454064,-4.543787345198659,3.2764548468625856
56,-10.357210291701925,-13.609750378315454,-10.324947549217633,-13.580159866902141,6.000000000000002,-4.357210291701923,-4.324947549217631,3.2525400866135277
57,-10.129473120035769,-13.368515553858721,-10.116599918052408,-13.358840073166828,5.999999999999999,-4.12947312003577,-4.116599918052409,3.239042433822953
58,-9.901626940301274,-13.138386790923601,-9.922305343437689,-13.162707249210094,6.0,-3.9016269403012735,-3.9223053434376887,3.2367598506223283
59,-9.674029563409105,-12.920266779187727,-9.746320029300765,-12.9965385596492,6.000000000000002,-3.6740295634091034,-3.7463200293007635,3.2462372157786232
60,-9.674647964648102,-12.942378129500142,-9.593625801110198,-12.865551258180325,6.000000000000001,-3.674647964648101,-3.593625801110197,3.26773016485204
61,-9.447276379612962,-12.748453702463827,-9.469523182249894,-12.774969199433265,6.000000000000002,-3.44727637961296,-3.469523182249892,3.301177322850865
62,-9.447154261161156,-12.793336846857859,-9.37870227823333,-12.729076980168943,6.0,-3.447154261161156,-3.3787022782333302,3.346182585696703
63,-9.217971249970288,-12.619979959853454,-9.323920721955087,-12.729892157671067,6.0,-3.2179712499702884,-3.323920721955087,3.4020087098831655
64,-9.215583025626245,-12.683166017791539,-9.304634116515583,-12.775801715438986,5.999999999999999,-3.2155830256262457,-3.304634116515584,3.4675829921652936
65,-9.212716258692843,-12.754231545431534,-9.316047410379333,-12.860631430004318,5.999999999999999,-3.2127162586928444,-3.3160474103793343,3.541515286738689
66,-9.210519193029493,-12.832647237157609,-9.349014447609408,-12.973575060019853,6.000000000000002,-3.2105191930294907,-3.349014447609406,3.6221280441281154
67,-9.438233121088116,-13.145730615311324,-9.390996126313231,-13.100192930399395,5.999999999999999,-3.4382331210881167,-3.390996126313232,3.707497494223208
68,-9.538851778221277,-13.334356344355871,-9.427959083554153,-13.224360461179105,6.000000000000001,-3.538851778221276,-3.4279590835541525,3.7955045661345936
69,-9.649490340040353,-13.533384009466637,-9.446776859266025,-13.330726776520425,5.999999999999999,-3.649490340040354,-3.446776859266026,3.8838936694262842
70,-9.458196755096418,-13.42853383607409,-9.437509123822384,-13.407056798913409,6.0,-3.4581967550964183,-3.437509123822384,3.970337080977672
71,-9.471671780014525,-13.524174190602679,-9.394957603194845,-13.445853025670218,6.0,-3.4716717800145247,-3.394957603194845,4.052502410588154
72,-9.259019957124842,-13.387140428693147,-9.319122929520475,-13.444878637331811,5.999999999999999,-3.259019957124843,-3.319122929520476,4.128120471568305
73,-9.274390662912591,-13.469441530811373,-9.2145287096669,-13.406545630863139,6.0,-3.274390662912591,-3.214528709666901,4.195050867898782
74,-9.060183436152283,-13.311526163511362,-9.088708428835762,-13.33646110148601,6.000000000000001,-3.0601834361522817,-3.088708428835761,4.251342727359079
75,-8.900692978395991,-13.195981231321362,-8.950350340407798,-13.241624558521229,5.999999999999998,-2.900692978395993,-2.9503503404078,4.295288252925371
76,-8.787086349789812,-13.11255346796783,-8.807609191279075,-13.128783203299937,6.000000000000003,-2.787086349789809,-2.807609191279073,4.325467118178018
77,-8.626595847097649,-12.9673760228393,-8.66694432768369,-13.003303251608727,6.000000000000001,-2.626595847097648,-2.66694432768369,4.340780175741651
78,-8.56677933309475,-12.90725078849575,-8.532611928411635,-12.868684122396882,5.999999999999999,-2.5667793330947513,-2.5326119284116357,4.3404714554009995
79,-8.406832343782968,-12.730970315630262,-8.406723472100499,-12.726627202919342,6.000000000000002,-2.406832343782966,-2.406723472100497,4.3241379718472945
80,-8.187479819513806,-12.479207230571962,-8.289657246125337,-12.577446020295405,6.0,-2.187479819513806,-2.289657246125337,4.291727411058156
81,-8.201172433115682,-12.44469672283105,-8.180597188409433,-12.420592409208972,6.0,-2.2011724331156817,-2.1805971884094326,4.243524289715368
82,-8.207525251885478,-12.387650908684572,-8.07804354255923,-12.255143699747496,6.0,-2.207525251885478,-2.0780435425592305,4.180125656799094
83,-7.910357812059893,-12.012765619554813,-7.9802343281061745,-12.080190860795152,6.000000000000001,-1.9103578120598925,-1.9802343281061736,4.102407807494919
84,-7.8086033204445995,-11.820089109415221,-7.8854822100834525,-11.8951338897079,6.000000000000001,-1.8086033204445986,-1.8854822100834516,4.011485788970623
85,-7.829328621746747,-11.737996305445284,-7.792444943488349,-11.699905552394881,6.000000000000001,-1.829328621746746,-1.7924449434883485,3.908667683698537
86,-7.7197369117946275,-11.515142665454844,-7.700320119437976,-11.49511839996332,5.999999999999999,-1.7197369117946284,-1.7003201194379765,3.795405753660216
87,-7.631402820028003,-11.30464933941013,-7.608921526939518,-11.282096979492842,6.0,-1.6314028200280033,-1.6089215269395183,3.673246519382126
88,-7.592873018366295,-11.1366547572215,-7.518591480189086,-11.062752744250833,5.999999999999999,-1.592873018366296,-1.5185914801890865,3.543781738855204
89,-7.420858772040929,-10.829460827879835,-7.4299454155723765,-10.839297507968219,6.000000000000001,-1.420858772040928,-1.4299454155723756,3.4086020558389056
90,-7.244421905689861,-10.513676727564683,-7.343515724740099,-10.613857145031027,6.000000000000001,-1.24442190568986,-1.3435157247400982,3.2692548218748225
91,-7.209093177582826,-10.336300458988921,-7.259423240732861,-10.38810491686824,6.0,-1.209093177582826,-1.2594232407328612,3.1272072814060956
92,-7.21980973992478,-10.203625705894416,-7.1772185955717465,-10.163047870700531,5.999999999999999,-1.2198097399247807,-1.1772185955717474,2.9838159659696353
93,-7.09766964315151,-9.937972435833737,-7.095984653368296,-9.93905511889674,6.000000000000002,-1.0976696431515078,-1.0959846533682942,2.8403027926822273
94,-7.021667157847113,-9.719405181788858,-7.01468941706701,-9.71612676347029,6.0,-1.021667157847113,-1.01468941706701,2.697738023941744
95,-7.028753845768433,-9.585783782365857,-6.932668183577052,-9.494304453735023,6.000000000000001,-1.0287538457684322,-0.932668183577051,2.5570299365974236
96,-6.833806990304168,-9.252727773828106,-6.850044987808446,-9.274063216627836,5.999999999999998,-0.8338069903041694,-0.850044987808448,2.4189207835239386
97,-6.750852298396822,-9.03484071662196,-6.767910792335693,-9.056527647409421,6.0,-0.750852298396822,-0.7679107923356927,2.2839884182251398
98,-6.648701879503212,-8.801354678653356,-6.68816085406011,-8.843423200925436,6.000000000000001,-0.6487018795032107,-0.6881608540601087,2.152652799150144
99,-6.668366925808923,-8.693553421755439,-6.6130224963084,-8.636775375528206,6.0,-0.6683669258089227,-0.6130224963083997,2.0251864959465165
100,-6.463701663049289,-8.365429945201164,-6.544424185596235,-8.438462910334966,6.000000000000001,-0.46370166304928784,-0.5444241855962337,1.9017282821518755
101,-6.476026825115657,-8.258325736938998,-6.483418353872739,-8.249778566160117,6.0,-0.47602682511565675,-0.48341835387273857,1.7822989118233408
102,-6.494121470261026,-8.160939703095316,-6.429849889116689,-8.071137080440492,5.999999999999998,-0.49412147026102815,-0.4298498891166904,1.6668182328342898
104,-6.286362251941191,-7.779520503732936,-6.382370160347897,-7.902005415719751,6.0,-0.286362251941191,-0.3823701603478966,1.493158251791745
105,-6.3094631131887935,-7.694401483417316,-6.3387725117417375,-7.741046754990001,5.999999999999999,-0.3094631131887944,-0.3387725117417384,1.3849383702285227
106,-6.335487297332539,-7.615607056938941,-6.296519304094087,-7.586402392086902,5.999999999999999,-0.33548729733253957,-0.29651930409408767,1.2801197596064027
107,-6.363498657096353,-7.541888291749023,-6.253281589388136,-7.4360085785872645,6.0,-0.3634986570963532,-0.25328158938813594,1.1783896346526697
108,-6.1942018161937185,-7.273618269506937,-6.207331635762994,-7.287860541840979,5.999999999999999,-0.19420181619371935,-0.20733163576299507,1.0794164533132178
109,-6.191179246398459,-7.174042408413635,-6.157700191992346,-7.14017853705935,6.0,-0.19117924639845896,-0.15770019199234575,0.9828631620151764
110,-5.99071349681941,-6.87911232831941,-6.104100600065355,-6.991477387020354,5.999999999999998,0.009286503180588213,-0.10410060006535637,0.8883988315000004
111,-6.008859573368082,-6.804568209970219,-6.046695725898388,-6.8405722490765495,6.000000000000002,-0.008859573368080298,-0.04669572589838644,0.7957086366021369
112,-6.02625633469441,-6.730758515898729,-5.985818317526073,-6.686561072994312,6.0,-0.026256334694410022,0.014181682473926926,0.7045021812043191
113,-6.018288061686515,-6.632808262940158,-5.921747962108867,-6.528814106061514,5.999999999999999,-0.018288061686515533,0.078252037891132,0.6145202012536437
114,-5.822224283824855,-6.347763981143735,-5.854610279834726,-6.366984410835511,5.999999999999998,0.17777571617514365,0.14538972016527207,0.5255396973188802
115,-5.82873720339243,-6.266114760976887,-5.784414126471267,-6.201039418017378,5.9666402812939605,0.13790307790153022,0.18222615482269333,0.43737755758445696
117,-5.6037037049596785,-5.898883725362325,-5.711195127620209,-6.031303074703201,5.7864727116888,0.18276900672912166,0.07527758406859153,0.2951800204026471
118,-5.603204944292409,-5.812603895401838,-5.635200122741395,-5.858489621193362,5.649906924185495,0.04670197989308633,0.01470680144409986,0.20939895110942963
119,-5.599904695553419,-5.724092697480568,-5.557032495869738,-5.6837016950224175,5.526530663381716,-0.07337403217170291,-0.03050183248802174,0.12418800192714885
120,-5.585976026438824,-5.625501113520762,-5.477687566187855,-5.508362307904303,5.421396732261169,-0.16457929417765538,-0.056290833926686545,0.0395250870819388
121,-5.361136886652593,-5.316563029218633,-5.398441138686657,-5.334060117881636,5.334060117881638,-0.02707676877095544,-0.06438102080501906,-0.04457385743395981
123,-5.353631736839407,-5.178174681768533,-5.320608109231755,-5.16231627759486,5.1623162775948614,-0.19131545924454585,-0.15829183163689375,-0.17545705507087472
124,-5.158787007073875,-4.901845299464614,-5.245245523199205,-4.994322746816136,4.994322746816136,-0.16446426025773864,-0.25092277638306815,-0.2569417076092615
125,-5.112794849581799,-4.775175495954115,-5.17291186819204,-4.830737282850583,4.830737282850583,-0.28205756673121574,-0.34217458534145706,-0.3376193536276837
126,-5.107229140981251,-4.689856312689187,-5.103589965571903,-4.671625810891567,4.671625810891567,-0.435603330089684,-0.4319641546803359,-0.4173728282920637
128,-5.102650138832274,-4.565754096506478,-5.036828721268142,-4.51660566901386,4.51660566901386,-0.5860444698184146,-0.5202230522542823,-0.5368960423257965
129,-5.0099477678632205,-4.396847561129467,-4.972073700337015,-4.365169966187253,4.365169966187254,-0.6447778016759669,-0.6069037341497614,-0.6131002067337539
130,-4.869270116270898,-4.181280077470344,-4.90907451529417,-4.2170949144261725,4.217094914426173,-0.6521752018447247,-0.691979600867997,-0.6879900388005535
131,-4.868270594955819,-4.106833506919105,-4.8482176418912,-4.072786858929357,4.0727868589293585,-0.7954837360264602,-0.7754307829618412,-0.7614370880367138
133,-4.86804406456417,-4.000269800598982,-4.7906591277756405,-3.9334407667004525,3.933440766700452,-0.9346032978637182,-0.8572183610751885,-0.8677742639651878
134,-4.689436678491621,-3.7526591590666776,-4.738214073049095,-3.8009552190876423,3.8009552190876423,-0.8884814594039785,-0.9372588539614526,-0.9367775194249435
135,-4.640834342851361,-3.6367853634645355,-4.693061954290013,-3.677648973848684,3.677648973848685,-0.9631853690026766,-1.0154129804413285,-1.0040489793868261
137,-4.64157503507794,-3.542306959628959,-4.657400211959972,-3.5659033219012093,3.5659033219012093,-1.0756717131767308,-1.091496890058763,-1.0992680754489812
138,-4.642623988609442,-3.4808459566714207,-4.633186190527269,-3.467872533328596,3.4678725333285962,-1.1747514552808456,-1.1653136571986726,-1.161778031938021
140,-4.643930673783387,-3.394980843302622,-4.622043085245011,-3.3853500627137985,3.385350062713798,-1.2585806110695894,-1.2366930225312127,-1.2489498304807656
141,-4.645228695787353,-3.3385189739413126,-4.625301795862397,-3.3197785829048265,3.3197785829048265,-1.325450112882527,-1.3055232129575702,-1.3067097218460408
142,-4.646100957976988,-3.2834823036323093,-4.644059721218256,-3.2722973890298688,3.2722973890298706,-1.3738035689471175,-1.3717623321883856,-1.3626186543446788
144,-4.646218238891867,-3.20689486386447,-4.679107899195928,-3.243681680625512,3.243681680625511,-1.4025365582663563,-1.4354262185704165,-1.4393233750273977
145,-4.645607522733834,-3.1549537181441916,-4.730631353475493,-3.2340714223971356,3.2340714223971356,-1.4115361003366984,-1.4965599310783575,-1.4906538045896425
147,-4.872667014525183,-3.3124238601343334,-4.797707364317478,-3.242501130563384,3.242501130563383,-1.6301658839617996,-1.5552062337540953,-1.5602431543908493
148,-4.872295804243931,-3.265118439820454,-4.877761124036589,-3.2663769695087312,3.266376969508731,-1.6059188347352005,-1.6113841545278578,-1.6071773644234773
150,-4.873028680724142,-3.2029447434296148,-4.966223196339696,-3.30113845946311,3.301138459463111,-1.5718902212610306,-1.6650847368765849,-1.6700839372945269
151,-5.0075414362929145,-3.294789598750599,-5.0566204400847,-3.340337995340904,3.340337995340904,-1.6672034409520107,-1.716282444743796,-1.7127518375423154
153,-5.128930248260098,-3.3596180426212703,-5.141214903271393,-3.3762612542664767,3.3762612542664767,-1.7526689939936215,-1.7649536490049167,-1.769312205638828
154,-5.3036527486712846,-3.4959121358148844,-5.212119202394811,-3.401027834196963,3.4010278341969635,-1.902624914474321,-1.811091368197847,-1.8077406128564002
156,-5.340119998845294,-3.4819633015694835,-5.262631901707529,-3.4079234150702757,3.407923415070276,-1.932196583775018,-1.8547084866372527,-1.8581566972758106
157,-5.343412591103975,-3.4511594934044005,-5.288430034694736,-3.3926020084520365,3.392602008452036,-1.9508105826519393,-1.8958280262426999,-1.8922530976995748
159,-5.347462352369598,-3.4108675076926214,-5.288277725716373,-3.353812249776418,3.353812249776418,-1.9936501025931799,-1.9344654759399553,-1.9365948446769763
160,-5.291698051877027,-3.3255247488179305,-5.264057045141341,-3.2934451572362557,3.2934451572362553,-1.998252894640772,-1.9706118879050853,-1.9661733030590969
162,-5.132426248075203,-3.128001148858698,-5.220145181907368,-3.2159190652233596,3.21591906522336,-1.9165071828518427,-2.004226116684008,-2.0044250992165047
164,-5.141286793510532,-3.102090380962399,-5.162366552542961,-3.127126045870207,3.1271260458702077,-2.0141607476403243,-2.0352405066727535,-2.039196412548133
