frequency,raw
20,-1.53
21,-1.32
22,-1.09
23,-0.88
24,-0.67
25,-0.46
26,-0.27
27,-0.11
28,0.04
29,0.16
30,0.26
31,0.35
32,0.39
33,0.42
34,0.44
35,0.43
36,0.42
37,0.39
38,0.35
39,0.33
40,0.31
41,0.28
42,0.25
43,0.23
44,0.22
45,0.21
46,0.21
47,0.21
48,0.21
49,0.22
50,0.23
51,0.24
52,0.26
53,0.27
54,0.28
55,0.30
56,0.32
57,0.33
58,0.34
59,0.36
60,0.37
61,0.38
62,0.40
63,0.43
64,0.46
65,0.47
66,0.46
67,0.45
68,0.43
69,0.40
70,0.39
71,0.37
72,0.37
73,0.36
74,0.36
75,0.36
76,0.34
77,0.31
78,0.30
79,0.28
80,0.28
81,0.27
82,0.26
83,0.25
84,0.25
85,0.24
86,0.23
87,0.23
88,0.23
89,0.24
90,0.24
91,0.25
92,0.27
93,0.28
94,0.29
95,0.30
96,0.32
97,0.35
98,0.36
99,0.37
100,0.38
101,0.39
102,0.39
104,0.41
105,0.43
106,0.45
107,0.48
108,0.51
109,0.53
110,0.55
111,0.56
112,0.56
113,0.58
114,0.58
115,0.59
117,0.59
118,0.59
119,0.60
120,0.61
121,0.63
123,0.68
124,0.70
125,0.71
126,0.72
128,0.71
129,0.69
130,0.68
131,0.68
133,0.69
134,0.71
135,0.73
137,0.74
138,0.74
140,0.72
141,0.70
142,0.68
144,0.66
145,0.64
147,0.64
148,0.64
150,0.65
151,0.64
153,0.63
154,0.61
156,0.58
157,0.57
159,0.55
160,0.54
162,0.55
164,0.57
165,0.57
167,0.58
169,0.56
170,0.56
172,0.54
174,0.52
175,0.52
177,0.50
179,0.47
181,0.46
183,0.45
184,0.45
186,0.46
188,0.47
190,0.47
192,0.45
194,0.43
196,0.40
198,0.36
200,0.34
202,0.31
204,0.29
206,0.28
208,0.25
210,0.24
212,0.23
214,0.22
216,0.20
218,0.19
221,0.16
223,0.12
225,0.08
227,0.03
229,-0.02
232,-0.11
234,-0.16
236,-0.22
239,-0.29
241,-0.33
244,-0.38
246,-0.39
248,-0.40
251,-0.39
253,-0.38
256,-0.36
259,-0.33
261,-0.32
264,-0.29
266,-0.27
269,-0.25
272,-0.23
274,-0.22
277,-0.19
280,-0.17
283,-0.15
286,-0.13
288,-0.11
291,-0.09
294,-0.07
297,-0.04
300,-0.01
303,0.02
306,0.05
309,0.08
312,0.12
316,0.17
319,0.22
322,0.26
325,0.30
328,0.34
332,0.40
335,0.45
338,0.49
342,0.55
345,0.59
349,0.65
352,0.70
356,0.76
359,0.80
363,0.86
366,0.91
370,0.97
374,1.03
377,1.08
381,1.14
385,1.20
389,1.25
393,1.31
397,1.36
401,1.41
405,1.46
409,1.51
413,1.55
417,1.60
421,1.64
425,1.67
430,1.72
434,1.75
438,1.78
443,1.82
447,1.84
451,1.87
456,1.92
460,1.97
465,2.03
470,2.08
474,2.10
479,2.12
484,2.11
489,2.09
494,2.07
499,2.04
504,2.01
509,1.99
514,1.96
519,1.93
524,1.88
529,1.82
535,1.75
540,1.68
545,1.62
551,1.54
556,1.50
562,1.45
568,1.42
573,1.41
579,1.40
585,1.42
591,1.43
596,1.45
602,1.47
608,1.51
615,1.53
621,1.54
627,1.55
633,1.54
639,1.52
646,1.48
652,1.44
659,1.37
665,1.31
672,1.25
679,1.19
686,1.16
692,1.13
699,1.11
706,1.10
713,1.08
721,1.05
728,1.03
735,0.98
742,0.93
750,0.84
757,0.74
765,0.61
773,0.48
780,0.35
788,0.20
796,0.05
804,-0.11
812,-0.25
820,-0.41
828,-0.57
837,-0.71
845,-0.83
853,-0.91
862,-0.95
871,-0.93
879,-0.89
888,-0.76
897,-0.61
906,-0.42
915,-0.24
924,-0.07
933,0.07
943,0.18
952,0.23
962,0.26
971,0.25
981,0.20
991,0.11
1001,-0.01
1011,-0.16
1021,-0.34
1031,-0.53
1041,-0.74
1052,-0.97
1062,-1.18
1073,-1.41
1084,-1.63
1094,-1.83
1105,-2.06
1116,-2.27
1128,-2.51
1139,-2.71
1150,-2.91
1162,-3.11
1173,-3.29
1185,-3.48
1197,-3.67
1209,-3.86
1221,-4.07
1233,-4.31
1246,-4.59
1258,-4.88
1271,-5.21
1283,-5.51
1296,-5.85
1309,-6.12
1322,-6.33
1335,-6.48
1349,-6.56
1362,-6.61
1376,-6.64
1390,-6.67
1404,-6.71
1418,-6.75
1432,-6.79
1446,-6.83
1461,-6.88
1475,-6.90
1490,-6.93
1505,-6.97
1520,-7.00
1535,-7.04
1550,-7.07
1566,-7.09
1582,-7.10
1597,-7.09
1613,-7.07
1629,-7.02
1646,-6.95
1662,-6.86
1679,-6.73
1696,-6.58
1713,-6.41
1730,-6.23
1747,-6.01
1764,-5.78
1782,-5.53
1800,-5.25
1818,-4.98
1836,-4.72
1854,-4.46
1873,-4.18
1892,-3.91
1911,-3.66
1930,-3.42
1949,-3.20
1969,-3.02
1988,-2.86
2008,-2.70
2028,-2.57
2048,-2.44
2069,-2.29
2090,-2.15
2111,-2.01
2132,-1.87
2153,-1.74
2175,-1.64
2196,-1.55
2218,-1.45
2240,-1.38
2263,-1.27
2285,-1.16
2308,-1.02
2331,-0.83
2355,-0.61
2378,-0.38
2402,-0.13
2426,0.09
2450,0.29
2475,0.46
2500,0.61
2525,0.74
2550,0.86
2575,0.96
2601,1.05
2627,1.11
2653,1.14
2680,1.15
2707,1.12
2734,1.05
2761,0.97
2789,0.86
2817,0.71
2845,0.54
2873,0.31
2902,0.01
2931,-0.37
2960,-0.81
2990,-1.30
3020,-1.75
3050,-2.12
3080,-2.32
3111,-2.33
3142,-2.20
3174,-1.92
3206,-1.57
3238,-1.22
3270,-0.86
3303,-0.55
3336,-0.28
3369,-0.03
3403,0.18
3437,0.41
3471,0.66
3506,1.02
3541,1.44
3576,1.92
3612,2.44
3648,2.97
3685,3.50
3721,3.99
3759,4.48
3796,4.95
3834,5.41
3873,5.86
3911,6.25
3950,6.61
3990,6.89
4030,7.12
4070,7.30
4111,7.40
4152,7.42
4193,7.39
4235,7.28
4278,7.08
4321,6.87
4364,6.63
4407,6.35
4451,6.08
4496,5.80
4541,5.53
4586,5.29
4632,5.06
4679,4.85
4725,4.65
4773,4.45
4820,4.28
4868,4.10
4917,3.92
4966,3.73
5016,3.51
5066,3.28
5117,3.03
5168,2.86
5220,2.78
5272,2.80
5325,3.02
5378,3.35
5432,3.75
5486,4.17
5541,4.58
5596,4.96
5652,5.29
5709,5.57
5766,5.83
5823,6.08
5882,6.32
5940,6.53
6000,6.69
6060,6.79
6120,6.79
6182,6.72
6244,6.53
6306,6.27
6369,5.99
6433,5.70
6497,5.41
6562,5.14
6628,4.87
6694,4.64
6761,4.43
6828,4.28
6897,4.15
6966,4.10
7035,4.12
7106,4.26
7177,4.55
7249,4.93
7321,5.47
7394,6.13
7468,6.85
7543,7.64
7618,8.42
7694,9.19
7771,9.92
7849,10.62
7928,11.31
8007,11.98
8087,12.65
8168,13.29
8250,13.87
8332,14.23
8415,14.33
8499,14.19
8584,13.64
8670,12.77
8757,11.66
8845,10.29
8933,9.03
9022,7.64
9113,6.03
9204,4.79
9296,3.74
9389,2.29
9483,1.07
9577,0.13
9673,-0.66
9770,-1.27
9868,-1.82
9966,-2.29
10066,-2.73
10167,-3.24
10268,-3.85
10371,-4.72
10475,-5.89
10579,-7.09
10685,-8.31
10792,-9.24
10900,-9.82
11009,-10.04
11119,-9.53
11230,-8.73
11343,-7.55
11456,-6.20
11571,-5.61
11686,-5.29
11803,-4.41
11921,-4.21
12040,-4.36
12161,-4.32
12282,-4.90
12405,-5.64
12529,-6.48
12655,-7.42
12781,-8.29
12909,-9.11
13038,-9.72
13168,-10.29
13300,-10.74
13433,-11.23
13567,-11.93
13703,-12.78
13840,-13.85
13978,-14.80
14118,-15.59
14259,-16.15
14402,-16.40
14546,-16.53
14692,-16.60
14838,-16.72
14987,-16.88
15137,-17.10
15288,-17.44
15441,-17.92
15595,-18.52
15751,-19.34
15909,-20.24
16068,-21.08
16229,-21.76
16391,-21.96
16555,-21.83
16720,-21.33
16888,-20.50
17056,-19.66
17227,-18.84
17399,-18.29
17573,-17.93
17749,-17.74
17926,-17.74
18106,-17.81
18287,-17.90
18470,-18.00
18654,-18.12
18841,-18.27
19029,-18.43
19220,-18.60
19412,-18.73
19606,-18.80
19802,-18.65
20000,-18.39
