frequency,raw
20.00,-1.97
20.20,-1.93
20.40,-1.90
20.61,-1.86
20.81,-1.82
21.02,-1.79
21.23,-1.75
21.44,-1.71
21.66,-1.68
21.87,-1.64
22.09,-1.60
22.31,-1.57
22.54,-1.53
22.76,-1.49
22.99,-1.45
23.22,-1.41
23.45,-1.38
23.69,-1.34
23.92,-1.30
24.16,-1.27
24.40,-1.23
24.65,-1.19
24.89,-1.16
25.14,-1.12
25.39,-1.08
25.65,-1.05
25.91,-1.01
26.16,-0.98
26.43,-0.94
26.69,-0.91
26.96,-0.88
27.23,-0.84
27.50,-0.81
27.77,-0.78
28.05,-0.74
28.33,-0.71
28.62,-0.68
28.90,-0.64
29.19,-0.61
29.48,-0.58
29.78,-0.55
30.08,-0.52
30.38,-0.50
30.68,-0.47
30.99,-0.44
31.30,-0.42
31.61,-0.40
31.93,-0.38
32.24,-0.35
32.57,-0.32
32.89,-0.30
33.22,-0.27
33.55,-0.25
33.89,-0.22
34.23,-0.19
34.57,-0.17
34.92,-0.15
35.27,-0.12
35.62,-0.09
35.97,-0.06
36.33,-0.04
36.70,-0.02
37.06,0.00
37.43,0.02
37.81,0.04
38.19,0.06
38.57,0.07
38.95,0.09
39.34,0.11
39.74,0.13
40.14,0.14
40.54,0.16
40.94,0.17
41.35,0.19
41.76,0.22
42.18,0.24
42.60,0.26
43.03,0.28
43.46,0.30
43.90,0.32
44.33,0.34
44.78,0.35
45.23,0.37
45.68,0.39
46.13,0.42
46.60,0.44
47.06,0.46
47.53,0.48
48.01,0.50
48.49,0.52
48.97,0.54
49.46,0.54
49.96,0.55
50.46,0.55
50.96,0.55
51.47,0.56
51.99,0.58
52.51,0.60
53.03,0.61
53.56,0.63
54.10,0.64
54.64,0.66
55.18,0.68
55.74,0.69
56.29,0.71
56.86,0.72
57.42,0.73
58.00,0.74
58.58,0.76
59.16,0.77
59.76,0.79
60.35,0.81
60.96,0.84
61.57,0.86
62.18,0.88
62.80,0.89
63.43,0.91
64.07,0.93
64.71,0.94
65.35,0.96
66.01,0.97
66.67,0.98
67.33,0.98
68.01,0.98
68.69,0.97
69.37,0.96
70.07,0.95
70.77,0.94
71.48,0.94
72.19,0.95
72.91,0.97
73.64,0.98
74.38,1.00
75.12,1.02
75.87,1.05
76.63,1.07
77.40,1.10
78.17,1.13
78.95,1.15
79.74,1.17
80.54,1.20
81.35,1.23
82.16,1.25
82.98,1.27
83.81,1.29
84.65,1.30
85.50,1.31
86.35,1.31
87.22,1.31
88.09,1.30
88.97,1.29
89.86,1.29
90.76,1.29
91.66,1.29
92.58,1.29
93.51,1.29
94.44,1.29
95.39,1.29
96.34,1.29
97.30,1.29
98.28,1.29
99.26,1.29
100.25,1.29
101.25,1.29
102.27,1.29
103.29,1.29
104.32,1.29
105.37,1.29
106.42,1.29
107.48,1.29
108.56,1.29
109.64,1.29
110.74,1.28
111.85,1.26
112.97,1.26
114.10,1.27
115.24,1.29
116.39,1.30
117.55,1.32
118.73,1.35
119.92,1.40
121.12,1.43
122.33,1.45
123.55,1.48
124.79,1.52
126.03,1.56
127.29,1.58
128.57,1.60
129.85,1.63
131.15,1.64
132.46,1.64
133.79,1.63
135.12,1.62
136.48,1.61
137.84,1.61
139.22,1.61
140.61,1.61
142.02,1.61
143.44,1.61
144.87,1.61
146.32,1.61
147.78,1.61
149.26,1.61
150.75,1.61
152.26,1.61
153.78,1.61
155.32,1.61
156.88,1.61
158.44,1.61
160.03,1.61
161.63,1.61
163.24,1.61
164.88,1.61
166.53,1.61
168.19,1.61
169.87,1.61
171.57,1.61
173.29,1.61
175.02,1.61
176.77,1.61
178.54,1.61
180.32,1.61
182.13,1.61
183.95,1.61
185.79,1.61
187.65,1.61
189.52,1.61
191.42,1.61
193.33,1.60
195.27,1.59
197.22,1.59
199.19,1.60
201.18,1.61
203.19,1.62
205.23,1.64
207.28,1.67
209.35,1.70
211.44,1.73
213.56,1.77
215.69,1.81
217.85,1.84
220.03,1.87
222.23,1.89
224.45,1.92
226.70,1.94
228.96,1.96
231.25,1.96
233.57,1.96
235.90,1.95
238.26,1.94
240.64,1.94
243.05,1.94
245.48,1.94
247.93,1.94
250.41,1.94
252.92,1.94
255.45,1.94
258.00,1.94
260.58,1.94
263.19,1.94
265.82,1.94
268.48,1.94
271.16,1.94
273.87,1.94
276.61,1.94
279.38,1.94
282.17,1.94
284.99,1.94
287.84,1.94
290.72,1.94
293.63,1.94
296.57,1.94
299.53,1.95
302.53,1.96
305.55,1.96
308.61,1.96
311.69,1.94
314.81,1.93
317.96,1.91
321.14,1.88
324.35,1.85
327.59,1.81
330.87,1.78
334.18,1.75
337.52,1.71
340.90,1.68
344.30,1.65
347.75,1.63
351.23,1.61
354.74,1.59
358.28,1.59
361.87,1.59
365.49,1.61
369.14,1.61
372.83,1.61
376.56,1.61
380.33,1.61
384.13,1.62
387.97,1.63
391.85,1.64
395.77,1.63
399.73,1.62
403.72,1.61
407.76,1.59
411.84,1.57
415.96,1.53
420.12,1.50
424.32,1.47
428.56,1.43
432.85,1.40
437.18,1.37
441.55,1.34
445.96,1.31
450.42,1.28
454.93,1.27
459.48,1.27
464.07,1.27
468.71,1.28
473.40,1.29
478.13,1.29
482.91,1.29
487.74,1.29
492.62,1.29
497.55,1.29
502.52,1.29
507.55,1.29
512.62,1.29
517.75,1.29
522.93,1.29
528.16,1.29
533.44,1.29
538.77,1.29
544.16,1.30
549.60,1.31
555.10,1.31
560.65,1.31
566.25,1.30
571.92,1.27
577.64,1.25
583.41,1.23
589.25,1.20
595.14,1.17
601.09,1.13
607.10,1.09
613.17,1.07
619.30,1.04
625.50,1.01
631.75,0.99
638.07,0.98
644.45,0.97
650.89,0.95
657.40,0.94
663.98,0.93
670.62,0.91
677.32,0.89
684.10,0.86
690.94,0.82
697.85,0.78
704.83,0.76
711.87,0.72
718.99,0.70
726.18,0.69
733.44,0.66
740.78,0.64
748.19,0.62
755.67,0.59
763.23,0.57
770.86,0.56
778.57,0.53
786.35,0.50
794.22,0.46
802.16,0.43
810.18,0.40
818.28,0.38
826.46,0.36
834.73,0.34
843.08,0.31
851.51,0.29
860.02,0.27
868.62,0.25
877.31,0.23
886.08,0.20
894.94,0.17
903.89,0.14
912.93,0.10
922.06,0.07
931.28,0.04
940.59,0.01
950.00,-0.01
959.50,-0.03
969.09,-0.03
978.78,-0.03
988.57,-0.02
998.46,-0.01
1008.44,0.01
1018.53,0.01
1028.71,-0.00
1039.00,-0.01
1049.39,-0.03
1059.88,-0.05
1070.48,-0.08
1081.19,-0.11
1092.00,-0.14
1102.92,-0.18
1113.95,-0.21
1125.09,-0.25
1136.34,-0.28
1147.70,-0.30
1159.18,-0.33
1170.77,-0.35
1182.48,-0.36
1194.30,-0.36
1206.25,-0.35
1218.31,-0.34
1230.49,-0.33
1242.80,-0.33
1255.22,-0.33
1267.78,-0.33
1280.45,-0.33
1293.26,-0.33
1306.19,-0.33
1319.25,-0.33
1332.45,-0.33
1345.77,-0.33
1359.23,-0.33
1372.82,-0.34
1386.55,-0.35
1400.41,-0.36
1414.42,-0.36
1428.56,-0.35
1442.85,-0.33
1457.28,-0.31
1471.85,-0.29
1486.57,-0.27
1501.43,-0.24
1516.45,-0.20
1531.61,-0.17
1546.93,-0.14
1562.40,-0.11
1578.02,-0.09
1593.80,-0.07
1609.74,-0.03
1625.84,-0.00
1642.10,0.03
1658.52,0.06
1675.10,0.09
1691.85,0.11
1708.77,0.13
1725.86,0.15
1743.12,0.19
1760.55,0.23
1778.15,0.28
1795.94,0.33
1813.90,0.38
1832.03,0.41
1850.36,0.44
1868.86,0.47
1887.55,0.50
1906.42,0.54
1925.49,0.58
1944.74,0.64
1964.19,0.69
1983.83,0.74
2003.67,0.78
2023.71,0.82
2043.94,0.85
2064.38,0.88
2085.03,0.90
2105.88,0.93
2126.94,0.95
2148.20,0.97
2169.69,0.99
2191.38,0.99
2213.30,1.00
2235.43,1.00
2257.78,0.99
2280.36,1.00
2303.17,0.99
2326.20,0.97
2349.46,0.95
2372.95,0.92
2396.68,0.87
2420.65,0.82
2444.86,0.75
2469.31,0.69
2494.00,0.60
2518.94,0.49
2544.13,0.36
2569.57,0.23
2595.27,0.09
2621.22,-0.05
2647.43,-0.20
2673.90,-0.35
2700.64,-0.51
2727.65,-0.67
2754.93,-0.84
2782.48,-1.01
2810.30,-1.19
2838.40,-1.35
2866.79,-1.52
2895.46,-1.70
2924.41,-1.86
2953.65,-2.01
2983.19,-2.15
3013.02,-2.30
3043.15,-2.44
3073.58,-2.56
3104.32,-2.68
3135.36,-2.78
3166.72,-2.86
3198.38,-2.95
3230.37,-3.04
3262.67,-3.12
3295.30,-3.19
3328.25,-3.26
3361.53,-3.34
3395.15,-3.42
3429.10,-3.51
3463.39,-3.62
3498.03,-3.74
3533.01,-3.88
3568.34,-4.03
3604.02,-4.18
3640.06,-4.37
3676.46,-4.56
3713.22,-4.77
3750.36,-4.99
3787.86,-5.24
3825.74,-5.49
3864.00,-5.76
3902.64,-6.03
3941.66,-6.31
3981.08,-6.58
4020.89,-6.84
4061.10,-7.09
4101.71,-7.33
4142.73,-7.53
4184.15,-7.72
4226.00,-7.87
4268.26,-7.98
4310.94,-8.04
4354.05,-8.05
4397.59,-8.03
4441.56,-7.96
4485.98,-7.87
4530.84,-7.76
4576.15,-7.62
4621.91,-7.46
4668.13,-7.29
4714.81,-7.11
4761.96,-6.94
4809.58,-6.78
4857.67,-6.63
4906.25,-6.51
4955.31,-6.42
5004.87,-6.36
5054.91,-6.33
5105.46,-6.35
5156.52,-6.40
5208.08,-6.47
5260.16,-6.58
5312.77,-6.72
5365.89,-6.90
5419.55,-7.10
5473.75,-7.34
5528.49,-7.62
5583.77,-7.92
5639.61,-8.25
5696.00,-8.58
5752.96,-8.94
5810.49,-9.32
5868.60,-9.70
5927.28,-10.10
5986.56,-10.52
6046.42,-10.93
6106.89,-11.34
6167.96,-11.73
6229.64,-12.10
6291.93,-12.47
6354.85,-12.81
6418.40,-13.14
6482.58,-13.44
6547.41,-13.73
6612.88,-13.98
6679.01,-14.23
6745.80,-14.47
6813.26,-14.68
6881.39,-14.84
6950.21,-14.95
7019.71,-15.05
7089.91,-15.12
7160.81,-15.15
7232.41,-15.13
7304.74,-15.09
7377.79,-15.01
7451.56,-14.90
7526.08,-14.76
7601.34,-14.61
7677.35,-14.44
7754.13,-14.28
7831.67,-14.13
7909.98,-13.99
7989.08,-13.87
8068.98,-13.77
8149.67,-13.70
8231.16,-13.67
8313.47,-13.64
8396.61,-13.63
8480.57,-13.65
8565.38,-13.69
8651.03,-13.76
8737.54,-13.84
8824.92,-13.95
8913.17,-14.10
9002.30,-14.27
9092.32,-14.47
9183.25,-14.71
9275.08,-15.00
9367.83,-15.33
9461.51,-15.68
9556.12,-16.05
9651.68,-16.43
9748.20,-16.79
9845.68,-17.10
9944.14,-17.34
10043.58,-17.47
10144.02,-17.46
10245.46,-17.30
10347.91,-17.00
10451.39,-16.57
10555.91,-15.99
10661.46,-15.31
10768.08,-14.55
10875.76,-13.72
10984.52,-12.85
11094.36,-11.98
11205.31,-11.13
11317.36,-10.32
11430.53,-9.57
11544.84,-8.91
11660.29,-8.30
11776.89,-7.77
11894.66,-7.32
12013.60,-6.91
12133.74,-6.54
12255.08,-6.21
12377.63,-5.91
12501.41,-5.64
12626.42,-5.43
12752.68,-5.26
12880.21,-5.17
13009.01,-5.15
13139.10,-5.24
13270.49,-5.45
13403.20,-5.76
13537.23,-6.20
13672.60,-6.76
13809.33,-7.43
13947.42,-8.23
14086.90,-9.13
14227.77,-10.13
14370.04,-11.19
14513.74,-12.32
14658.88,-13.47
14805.47,-14.64
14953.52,-15.81
15103.06,-16.95
15254.09,-18.09
15406.63,-19.20
15560.70,-20.29
15716.30,-21.35
15873.47,-22.38
16032.20,-23.41
16192.52,-24.45
16354.45,-25.49
16517.99,-26.57
16683.17,-27.73
16850.01,-28.94
17018.51,-30.22
17188.69,-31.54
17360.58,-32.90
17534.18,-34.25
17709.53,-35.60
17886.62,-36.91
18065.49,-38.17
18246.14,-39.27
18428.60,-40.28
18612.89,-41.23
18799.02,-42.12
18987.01,-42.95
19176.88,-43.72
19368.65,-44.43
19562.33,-45.09
19757.96,-45.68
19955.54,-46.22
