frequency,raw
20.00,0.68
20.20,0.74
20.40,0.80
20.61,0.86
20.81,0.92
21.02,0.99
21.23,1.06
21.44,1.13
21.66,1.20
21.87,1.27
22.09,1.32
22.31,1.34
22.54,1.37
22.76,1.39
22.99,1.42
23.22,1.49
23.45,1.56
23.69,1.63
23.92,1.70
24.16,1.75
24.40,1.79
24.65,1.83
24.89,1.87
25.14,1.92
25.39,1.97
25.65,2.01
25.91,2.06
26.16,2.10
26.43,2.13
26.69,2.16
26.96,2.19
27.23,2.22
27.50,2.27
27.77,2.31
28.05,2.35
28.33,2.39
28.62,2.43
28.90,2.48
29.19,2.53
29.48,2.59
29.78,2.65
30.08,2.70
30.38,2.74
30.68,2.79
30.99,2.83
31.30,2.85
31.61,2.87
31.93,2.89
32.24,2.93
32.57,2.98
32.89,3.02
33.22,3.09
33.55,3.16
33.89,3.24
34.23,3.23
34.57,3.20
34.92,3.16
35.27,3.19
35.62,3.24
35.97,3.30
36.33,3.35
36.70,3.41
37.06,3.46
37.43,3.44
37.81,3.42
38.19,3.43
38.57,3.48
38.95,3.52
39.34,3.55
39.74,3.58
40.14,3.59
40.54,3.57
40.94,3.54
41.35,3.61
41.76,3.70
42.18,3.76
42.60,3.78
43.03,3.80
43.46,3.80
43.90,3.80
44.33,3.78
44.78,3.75
45.23,3.78
45.68,3.85
46.13,3.92
46.60,3.98
47.06,4.03
47.53,4.01
48.01,4.00
48.49,4.00
48.97,4.00
49.46,3.97
49.96,3.94
50.46,4.01
50.96,4.09
51.47,4.17
51.99,4.25
52.51,4.22
53.03,4.20
53.56,4.20
54.10,4.20
54.64,4.20
55.18,4.20
55.74,4.20
56.29,4.20
56.86,4.20
57.42,4.17
58.00,4.14
58.58,4.23
59.16,4.30
59.76,4.30
60.35,4.36
60.96,4.45
61.57,4.43
62.18,4.40
62.80,4.40
63.43,4.40
64.07,4.40
64.71,4.40
65.35,4.40
66.01,4.40
66.67,4.40
67.33,4.40
68.01,4.40
68.69,4.40
69.37,4.40
70.07,4.40
70.77,4.40
71.48,4.40
72.19,4.40
72.91,4.40
73.64,4.40
74.38,4.39
75.12,4.37
75.87,4.34
76.63,4.44
77.40,4.50
78.17,4.50
78.95,4.50
79.74,4.50
80.54,4.50
81.35,4.50
82.16,4.50
82.98,4.50
83.81,4.50
84.65,4.50
85.50,4.50
86.35,4.50
87.22,4.50
88.09,4.50
88.97,4.50
89.86,4.51
90.76,4.51
91.66,4.51
92.58,4.51
93.51,4.51
94.44,4.51
95.39,4.51
96.34,4.51
97.30,4.50
98.28,4.49
99.26,4.48
100.25,4.45
101.25,4.37
102.27,4.27
103.29,4.29
104.32,4.29
105.37,4.27
106.42,4.25
107.48,4.22
108.56,4.20
109.64,4.18
110.74,4.16
111.85,4.14
112.97,4.13
114.10,4.13
115.24,4.12
116.39,4.12
117.55,4.13
118.73,4.13
119.92,4.18
121.12,4.19
122.33,4.10
123.55,4.06
124.79,4.07
126.03,4.08
127.29,4.08
128.57,4.02
129.85,3.94
131.15,3.98
132.46,4.03
133.79,4.07
135.12,3.99
136.48,3.94
137.84,3.92
139.22,3.92
140.61,3.92
142.02,3.81
143.44,3.77
144.87,3.79
146.32,3.85
147.78,3.84
149.26,3.76
150.75,3.70
152.26,3.69
153.78,3.70
155.32,3.78
156.88,3.82
158.44,3.89
160.03,3.96
161.63,3.95
163.24,3.94
164.88,3.87
166.53,3.82
168.19,3.74
169.87,3.70
171.57,3.65
173.29,3.59
175.02,3.50
176.77,3.44
178.54,3.39
180.32,3.39
182.13,3.35
183.95,3.23
185.79,3.19
187.65,3.21
189.52,3.24
191.42,3.25
193.33,3.26
195.27,3.28
197.22,3.29
199.19,3.30
201.18,3.31
203.19,3.27
205.23,3.20
207.28,3.20
209.35,3.21
211.44,3.18
213.56,3.17
215.69,3.28
217.85,3.30
220.03,3.30
222.23,3.30
224.45,3.29
226.70,3.30
228.96,3.30
231.25,3.31
233.57,3.32
235.90,3.34
238.26,3.35
240.64,3.23
243.05,3.18
245.48,3.19
247.93,3.22
250.41,3.24
252.92,3.26
255.45,3.27
258.00,3.28
260.58,3.28
263.19,3.28
265.82,3.28
268.48,3.28
271.16,3.28
273.87,3.27
276.61,3.27
279.38,3.27
282.17,3.27
284.99,3.28
287.84,3.31
290.72,3.32
293.63,3.22
296.57,3.22
299.53,3.23
302.53,3.25
305.55,3.26
308.61,3.27
311.69,3.20
314.81,3.11
317.96,3.08
321.14,3.08
324.35,3.08
327.59,3.08
330.87,3.08
334.18,3.07
337.52,2.99
340.90,2.90
344.30,2.87
347.75,2.87
351.23,2.87
354.74,2.85
358.28,2.75
361.87,2.69
365.49,2.69
369.14,2.70
372.83,2.70
376.56,2.64
380.33,2.62
384.13,2.62
387.97,2.63
391.85,2.58
395.77,2.53
399.73,2.46
403.72,2.43
407.76,2.43
411.84,2.39
415.96,2.27
420.12,2.22
424.32,2.23
428.56,2.21
432.85,2.17
437.18,2.18
441.55,2.14
445.96,2.09
450.42,2.11
454.93,2.17
459.48,2.16
464.07,2.16
468.71,2.16
473.40,2.15
478.13,2.17
482.91,2.20
487.74,2.17
492.62,2.18
497.55,2.13
502.52,2.06
507.55,2.05
512.62,2.04
517.75,1.98
522.93,1.91
528.16,1.87
533.44,1.85
538.77,1.80
544.16,1.69
549.60,1.59
555.10,1.49
560.65,1.43
566.25,1.28
571.92,1.15
577.64,1.08
583.41,0.93
589.25,0.80
595.14,0.75
601.09,0.66
607.10,0.66
613.17,0.66
619.30,0.57
625.50,0.49
631.75,0.46
638.07,0.48
644.45,0.47
650.89,0.46
657.40,0.44
663.98,0.45
670.62,0.42
677.32,0.40
684.10,0.36
690.94,0.34
697.85,0.28
704.83,0.24
711.87,0.13
718.99,0.03
726.18,-0.03
733.44,-0.06
740.78,-0.13
748.19,-0.21
755.67,-0.32
763.23,-0.36
770.86,-0.38
778.57,-0.42
786.35,-0.49
794.22,-0.56
802.16,-0.60
810.18,-0.60
818.28,-0.65
826.46,-0.68
834.73,-0.73
843.08,-0.78
851.51,-0.80
860.02,-0.75
868.62,-0.79
877.31,-0.83
886.08,-0.79
894.94,-0.67
903.89,-0.61
912.93,-0.56
922.06,-0.45
931.28,-0.39
940.59,-0.34
950.00,-0.22
959.50,-0.23
969.09,-0.31
978.78,-0.17
988.57,-0.09
998.46,-0.01
1008.44,0.03
1018.53,-0.16
1028.71,-0.20
1039.00,0.05
1049.39,0.28
1059.88,0.26
1070.48,0.25
1081.19,0.37
1092.00,0.54
1102.92,0.67
1113.95,0.74
1125.09,0.80
1136.34,0.88
1147.70,0.96
1159.18,1.12
1170.77,1.24
1182.48,1.23
1194.30,1.25
1206.25,1.35
1218.31,1.47
1230.49,1.55
1242.80,1.62
1255.22,1.68
1267.78,1.71
1280.45,1.80
1293.26,2.05
1306.19,2.04
1319.25,2.05
1332.45,2.29
1345.77,2.37
1359.23,2.45
1372.82,2.59
1386.55,2.73
1400.41,2.87
1414.42,2.95
1428.56,3.07
1442.85,3.30
1457.28,3.48
1471.85,3.71
1486.57,3.93
1501.43,4.09
1516.45,4.10
1531.61,4.15
1546.93,4.39
1562.40,4.55
1578.02,4.75
1593.80,4.99
1609.74,5.19
1625.84,5.33
1642.10,5.57
1658.52,5.75
1675.10,5.89
1691.85,6.14
1708.77,6.35
1725.86,6.49
1743.12,6.70
1760.55,6.77
1778.15,6.63
1795.94,6.68
1813.90,6.93
1832.03,7.06
1850.36,7.22
1868.86,7.52
1887.55,7.69
1906.42,7.82
1925.49,7.95
1944.74,8.08
1964.19,8.13
1983.83,8.18
2003.67,8.23
2023.71,8.22
2043.94,8.32
2064.38,8.47
2085.03,8.44
2105.88,8.42
2126.94,8.43
2148.20,8.47
2169.69,8.49
2191.38,8.58
2213.30,8.60
2235.43,8.56
2257.78,8.50
2280.36,8.42
2303.17,8.33
2326.20,8.15
2349.46,8.03
2372.95,7.91
2396.68,7.69
2420.65,7.40
2444.86,7.20
2469.31,7.03
2494.00,6.91
2518.94,6.86
2544.13,6.82
2569.57,6.70
2595.27,6.64
2621.22,6.59
2647.43,6.43
2673.90,6.33
2700.64,6.25
2727.65,6.08
2754.93,5.94
2782.48,5.88
2810.30,5.76
2838.40,5.65
2866.79,5.62
2895.46,5.50
2924.41,5.40
2953.65,5.30
2983.19,5.53
3013.02,5.79
3043.15,5.90
3073.58,6.16
3104.32,6.29
3135.36,6.23
3166.72,6.43
3198.38,6.59
3230.37,6.59
3262.67,6.61
3295.30,6.77
3328.25,7.11
3361.53,7.22
3395.15,7.27
3429.10,7.53
3463.39,7.64
3498.03,7.73
3533.01,7.90
3568.34,8.14
3604.02,8.45
3640.06,8.77
3676.46,8.82
3713.22,8.62
3750.36,8.63
3787.86,8.41
3825.74,8.23
3864.00,8.39
3902.64,8.35
3941.66,8.15
3981.08,8.22
4020.89,8.25
4061.10,7.90
4101.71,7.47
4142.73,7.42
4184.15,7.49
4226.00,7.35
4268.26,7.12
4310.94,6.76
4354.05,6.53
4397.59,7.07
4441.56,7.08
4485.98,6.51
4530.84,6.36
4576.15,6.16
4621.91,5.77
4668.13,5.52
4714.81,5.26
4761.96,5.18
4809.58,5.05
4857.67,4.87
4906.25,4.77
4955.31,4.55
5004.87,4.26
5054.91,3.96
5105.46,3.71
5156.52,3.46
5208.08,3.26
5260.16,3.05
5312.77,2.82
5365.89,2.68
5419.55,2.62
5473.75,2.60
5528.49,2.51
5583.77,2.52
5639.61,2.49
5696.00,2.50
5752.96,2.67
5810.49,2.77
5868.60,2.82
5927.28,2.98
5986.56,3.09
6046.42,3.13
6106.89,3.18
6167.96,3.11
6229.64,2.91
6291.93,2.85
6354.85,2.80
6418.40,2.65
6482.58,2.64
6547.41,2.92
6612.88,3.00
6679.01,3.03
6745.80,3.37
6813.26,3.74
6881.39,4.02
6950.21,4.45
7019.71,4.83
7089.91,4.69
7160.81,4.74
7232.41,4.77
7304.74,4.27
7377.79,3.52
7451.56,3.29
7526.08,2.48
7601.34,2.40
7677.35,2.03
7754.13,1.42
7831.67,1.68
7909.98,2.36
7989.08,2.74
8068.98,3.07
8149.67,3.37
8231.16,3.66
8313.47,4.03
8396.61,4.27
8480.57,4.40
8565.38,4.15
8651.03,4.02
8737.54,4.34
8824.92,4.62
8913.17,4.93
9002.30,4.91
9092.32,5.13
9183.25,5.37
9275.08,5.14
9367.83,4.86
9461.51,4.56
9556.12,4.23
9651.68,3.69
9748.20,2.63
9845.68,1.35
9944.14,0.22
10043.58,-1.01
10144.02,-2.54
10245.46,-3.69
10347.91,-4.73
10451.39,-5.62
10555.91,-5.86
10661.46,-5.28
10768.08,-5.38
10875.76,-5.51
10984.52,-5.56
11094.36,-6.16
11205.31,-6.42
11317.36,-6.60
11430.53,-6.86
11544.84,-6.95
11660.29,-6.64
11776.89,-5.86
11894.66,-4.90
12013.60,-4.37
12133.74,-4.04
12255.08,-3.63
12377.63,-3.34
12501.41,-3.72
12626.42,-4.51
12752.68,-4.38
12880.21,-4.21
13009.01,-4.31
13139.10,-4.77
13270.49,-5.25
13403.20,-5.24
13537.23,-5.30
13672.60,-4.94
13809.33,-4.79
13947.42,-4.57
14086.90,-4.79
14227.77,-5.72
14370.04,-6.81
14513.74,-7.67
14658.88,-8.46
14805.47,-9.08
14953.52,-9.96
15103.06,-10.85
15254.09,-11.21
15406.63,-11.28
15560.70,-12.37
15716.30,-12.80
15873.47,-11.83
16032.20,-9.36
16192.52,-8.02
16354.45,-6.41
16517.99,-4.96
16683.17,-3.73
16850.01,-3.10
17018.51,-2.66
17188.69,-1.78
17360.58,-1.43
17534.18,-1.14
17709.53,-0.53
17886.62,0.04
18065.49,0.11
18246.14,-0.05
18428.60,-0.91
18612.89,-1.96
18799.02,-3.49
18987.01,-4.70
19176.88,-4.97
19368.65,-5.50
19562.33,-6.17
19757.96,-6.08
19955.54,-5.19
