frequency,raw,smoothed,error,error_smoothed,equalization,parametric_eq,fixed_band_eq,equalized_raw,equalized_smoothed,target
20.00,-2.75,-2.75,-6.21,-6.22,5.98,5.72,2.15,3.23,3.23,3.46
20.20,-2.74,-2.73,-6.23,-6.22,5.99,5.70,2.21,3.26,3.26,3.49
20.40,-2.71,-2.70,-6.23,-6.22,6.00,5.67,2.28,3.30,3.30,3.52
20.61,-2.66,-2.67,-6.20,-6.22,6.01,5.65,2.34,3.35,3.34,3.54
20.81,-2.63,-2.63,-6.20,-6.20,6.02,5.62,2.41,3.39,3.39,3.57
21.02,-2.60,-2.58,-6.20,-6.18,6.02,5.60,2.48,3.42,3.43,3.60
21.23,-2.54,-2.55,-6.15,-6.16,6.01,5.57,2.55,3.48,3.47,3.61
21.44,-2.51,-2.51,-6.13,-6.13,6.01,5.54,2.63,3.50,3.50,3.62
21.66,-2.48,-2.47,-6.11,-6.10,6.01,5.52,2.71,3.53,3.54,3.63
21.87,-2.44,-2.43,-6.07,-6.07,6.00,5.49,2.79,3.56,3.57,3.63
22.09,-2.39,-2.39,-6.03,-6.03,5.99,5.47,2.87,3.60,3.59,3.64
22.31,-2.36,-2.35,-6.00,-5.99,5.96,5.44,2.95,3.61,3.61,3.64
22.54,-2.31,-2.31,-5.95,-5.95,5.94,5.41,3.03,3.63,3.62,3.64
22.76,-2.28,-2.27,-5.91,-5.90,5.90,5.39,3.12,3.62,3.63,3.64
22.99,-2.22,-2.22,-5.84,-5.85,5.86,5.36,3.21,3.64,3.64,3.63
23.22,-2.17,-2.18,-5.79,-5.80,5.81,5.33,3.31,3.64,3.63,3.63
23.45,-2.14,-2.13,-5.76,-5.75,5.76,5.31,3.40,3.62,3.63,3.63
23.69,-2.08,-2.08,-5.70,-5.70,5.71,5.28,3.50,3.63,3.63,3.62
23.92,-2.03,-2.03,-5.65,-5.66,5.66,5.25,3.59,3.63,3.63,3.62
24.16,-1.98,-1.98,-5.61,-5.61,5.61,5.23,3.69,3.63,3.63,3.63
24.40,-1.94,-1.93,-5.57,-5.56,5.57,5.20,3.79,3.63,3.63,3.63
24.65,-1.89,-1.89,-5.51,-5.52,5.52,5.17,3.90,3.63,3.63,3.62
24.89,-1.86,-1.86,-5.48,-5.48,5.48,5.14,4.00,3.62,3.62,3.62
25.14,-1.83,-1.82,-5.45,-5.43,5.43,5.12,4.11,3.61,3.62,3.62
25.39,-1.77,-1.78,-5.38,-5.40,5.39,5.09,4.21,3.62,3.61,3.62
25.65,-1.74,-1.74,-5.35,-5.35,5.35,5.06,4.32,3.61,3.61,3.62
25.91,-1.70,-1.69,-5.30,-5.30,5.30,5.03,4.42,3.60,3.61,3.61
26.16,-1.65,-1.65,-5.25,-5.25,5.25,5.01,4.53,3.61,3.60,3.61
26.43,-1.60,-1.60,-5.20,-5.20,5.21,4.98,4.63,3.61,3.60,3.60
26.69,-1.56,-1.55,-5.16,-5.16,5.16,4.95,4.74,3.60,3.60,3.60
26.96,-1.51,-1.51,-5.11,-5.11,5.11,4.92,4.84,3.60,3.60,3.60
27.23,-1.46,-1.46,-5.06,-5.06,5.06,4.90,4.94,3.60,3.60,3.60
27.50,-1.42,-1.42,-5.02,-5.01,5.01,4.87,5.04,3.60,3.60,3.60
27.77,-1.38,-1.38,-4.96,-4.97,4.97,4.84,5.13,3.59,3.59,3.59
28.05,-1.34,-1.34,-4.92,-4.92,4.92,4.81,5.22,3.59,3.59,3.59
28.33,-1.30,-1.30,-4.87,-4.87,4.88,4.78,5.31,3.58,3.58,3.57
28.62,-1.26,-1.26,-4.83,-4.83,4.84,4.75,5.39,3.58,3.58,3.57
28.90,-1.23,-1.23,-4.80,-4.80,4.79,4.73,5.46,3.57,3.57,3.57
29.19,-1.20,-1.19,-4.76,-4.76,4.75,4.70,5.53,3.56,3.56,3.56
29.48,-1.16,-1.15,-4.72,-4.72,4.71,4.67,5.59,3.56,3.56,3.57
29.78,-1.11,-1.11,-4.66,-4.67,4.67,4.64,5.64,3.56,3.56,3.56
30.08,-1.08,-1.08,-4.63,-4.63,4.63,4.61,5.68,3.55,3.55,3.55
30.38,-1.05,-1.05,-4.59,-4.59,4.59,4.58,5.72,3.54,3.54,3.54
30.68,-1.02,-1.01,-4.56,-4.55,4.55,4.55,5.75,3.53,3.54,3.54
30.99,-0.97,-0.97,-4.50,-4.51,4.51,4.52,5.77,3.54,3.53,3.53
31.30,-0.93,-0.94,-4.45,-4.47,4.47,4.49,5.78,3.54,3.53,3.53
31.61,-0.93,-0.91,-4.45,-4.43,4.43,4.46,5.78,3.50,3.52,3.52
31.93,-0.88,-0.88,-4.39,-4.39,4.39,4.44,5.77,3.51,3.51,3.51
32.24,-0.84,-0.85,-4.34,-4.35,4.35,4.41,5.75,3.52,3.50,3.50
32.57,-0.83,-0.82,-4.32,-4.31,4.32,4.38,5.72,3.49,3.50,3.50
32.89,-0.79,-0.79,-4.28,-4.28,4.28,4.35,5.69,3.50,3.49,3.49
33.22,-0.77,-0.76,-4.25,-4.25,4.25,4.32,5.65,3.48,3.48,3.48
33.55,-0.74,-0.74,-4.22,-4.21,4.21,4.29,5.60,3.48,3.47,3.48
33.89,-0.71,-0.71,-4.17,-4.18,4.18,4.26,5.54,3.47,3.47,3.47
34.23,-0.70,-0.69,-4.16,-4.14,4.14,4.22,5.48,3.45,3.46,3.46
34.57,-0.65,-0.66,-4.10,-4.11,4.11,4.19,5.41,3.46,3.45,3.45
34.92,-0.64,-0.63,-4.07,-4.07,4.07,4.16,5.34,3.43,3.44,3.44
35.27,-0.60,-0.60,-4.03,-4.03,4.03,4.13,5.26,3.44,3.43,3.43
35.62,-0.58,-0.58,-4.00,-4.00,4.00,4.10,5.18,3.42,3.42,3.42
35.97,-0.56,-0.55,-3.96,-3.96,3.96,4.07,5.09,3.40,3.41,3.41
36.33,-0.52,-0.52,-3.92,-3.92,3.92,4.04,5.01,3.41,3.40,3.40
36.70,-0.51,-0.50,-3.90,-3.89,3.89,4.01,4.92,3.38,3.39,3.39
37.06,-0.47,-0.47,-3.84,-3.85,3.85,3.98,4.83,3.39,3.38,3.37
37.43,-0.46,-0.45,-3.83,-3.82,3.82,3.94,4.74,3.36,3.37,3.37
37.81,-0.42,-0.43,-3.77,-3.78,3.79,3.91,4.65,3.37,3.36,3.36
38.19,-0.42,-0.41,-3.76,-3.76,3.75,3.88,4.56,3.34,3.34,3.34
38.57,-0.40,-0.39,-3.73,-3.73,3.72,3.85,4.47,3.33,3.33,3.34
38.95,-0.37,-0.38,-3.69,-3.70,3.69,3.81,4.38,3.33,3.32,3.32
39.34,-0.37,-0.35,-3.67,-3.66,3.66,3.78,4.29,3.30,3.31,3.31
39.74,-0.33,-0.34,-3.62,-3.63,3.63,3.75,4.20,3.31,3.30,3.29
40.14,-0.32,-0.32,-3.60,-3.60,3.61,3.72,4.12,3.29,3.29,3.29
40.54,-0.32,-0.30,-3.59,-3.57,3.58,3.68,4.04,3.26,3.28,3.27
40.94,-0.28,-0.29,-3.54,-3.55,3.55,3.65,3.95,3.28,3.26,3.26
41.35,-0.28,-0.28,-3.53,-3.53,3.53,3.62,3.88,3.25,3.25,3.25
41.76,-0.28,-0.26,-3.52,-3.50,3.50,3.58,3.80,3.23,3.25,3.24
42.18,-0.24,-0.25,-3.47,-3.48,3.48,3.55,3.72,3.24,3.23,3.24
42.60,-0.23,-0.24,-3.45,-3.46,3.45,3.52,3.65,3.23,3.22,3.22
43.03,-0.23,-0.22,-3.44,-3.43,3.43,3.48,3.58,3.20,3.20,3.21
43.46,-0.23,-0.21,-3.42,-3.40,3.40,3.45,3.52,3.17,3.19,3.19
43.90,-0.18,-0.20,-3.34,-3.37,3.37,3.42,3.45,3.19,3.17,3.17
44.33,-0.18,-0.18,-3.33,-3.33,3.34,3.39,3.39,3.16,3.15,3.15
44.78,-0.18,-0.16,-3.31,-3.30,3.30,3.35,3.33,3.13,3.14,3.13
45.23,-0.16,-0.16,-3.27,-3.27,3.27,3.32,3.28,3.12,3.12,3.11
45.68,-0.14,-0.15,-3.23,-3.24,3.24,3.29,3.23,3.10,3.09,3.09
46.13,-0.14,-0.13,-3.21,-3.21,3.21,3.26,3.18,3.07,3.08,3.08
46.60,-0.13,-0.11,-3.19,-3.18,3.18,3.23,3.13,3.05,3.06,3.07
47.06,-0.09,-0.11,-3.13,-3.15,3.14,3.20,3.08,3.06,3.04,3.05
47.53,-0.09,-0.09,-3.11,-3.12,3.11,3.17,3.04,3.02,3.02,3.03
48.01,-0.09,-0.07,-3.10,-3.08,3.07,3.14,3.00,2.99,3.01,3.02
48.49,-0.04,-0.05,-3.02,-3.04,3.04,3.11,2.96,3.00,2.99,2.99
48.97,-0.04,-0.04,-2.99,-2.99,3.00,3.08,2.92,2.97,2.96,2.95
49.46,-0.04,-0.03,-2.96,-2.96,2.97,3.06,2.89,2.93,2.93,2.92
49.96,-0.04,-0.04,-2.93,-2.93,2.93,3.03,2.86,2.90,2.90,2.89
50.46,-0.04,-0.03,-2.92,-2.91,2.90,3.00,2.82,2.86,2.87,2.88
50.96,-0.02,-0.02,-2.87,-2.87,2.87,2.97,2.80,2.85,2.85,2.86
51.47,-0.02,-0.01,-2.84,-2.84,2.84,2.94,2.77,2.82,2.83,2.82
51.99,0.00,-0.00,-2.80,-2.81,2.81,2.92,2.74,2.81,2.81,2.80
52.51,0.00,0.00,-2.78,-2.78,2.78,2.89,2.72,2.79,2.79,2.79
53.03,0.00,0.00,-2.76,-2.76,2.76,2.86,2.69,2.76,2.76,2.76
53.56,0.00,0.00,-2.73,-2.73,2.73,2.83,2.67,2.73,2.73,2.74
54.10,0.00,0.00,-2.71,-2.71,2.71,2.81,2.65,2.71,2.71,2.71
54.64,0.00,0.00,-2.68,-2.68,2.68,2.78,2.62,2.68,2.68,2.69
55.18,0.00,0.00,-2.66,-2.66,2.66,2.75,2.60,2.66,2.66,2.66
55.74,0.00,0.00,-2.63,-2.63,2.63,2.72,2.58,2.63,2.63,2.63
56.29,0.00,0.00,-2.61,-2.61,2.61,2.69,2.56,2.61,2.61,2.61
56.86,0.00,0.00,-2.58,-2.58,2.58,2.66,2.53,2.59,2.59,2.59
57.42,0.00,0.00,-2.55,-2.56,2.56,2.63,2.51,2.56,2.56,2.56
58.00,0.00,0.00,-2.54,-2.53,2.54,2.60,2.49,2.54,2.54,2.54
58.58,0.00,0.01,-2.52,-2.51,2.52,2.57,2.46,2.52,2.52,2.52
59.16,0.00,0.00,-2.49,-2.49,2.50,2.54,2.43,2.50,2.50,2.50
59.76,0.00,-0.00,-2.47,-2.48,2.48,2.50,2.41,2.48,2.48,2.48
60.35,-0.02,-0.02,-2.46,-2.47,2.46,2.47,2.38,2.44,2.44,2.45
60.96,-0.04,-0.03,-2.46,-2.45,2.44,2.44,2.35,2.40,2.41,2.42
61.57,-0.04,-0.04,-2.42,-2.42,2.41,2.40,2.31,2.37,2.37,2.38
62.18,-0.04,-0.04,-2.38,-2.39,2.39,2.37,2.28,2.35,2.35,2.35
62.80,-0.04,-0.04,-2.36,-2.35,2.36,2.33,2.24,2.32,2.32,2.32
63.43,-0.04,-0.04,-2.32,-2.33,2.33,2.29,2.20,2.29,2.29,2.29
64.07,-0.04,-0.04,-2.30,-2.30,2.30,2.25,2.17,2.26,2.26,2.26
64.71,-0.04,-0.04,-2.27,-2.27,2.27,2.21,2.12,2.24,2.24,2.23
65.35,-0.04,-0.04,-2.24,-2.24,2.25,2.17,2.08,2.21,2.21,2.21
66.01,-0.04,-0.04,-2.21,-2.22,2.22,2.13,2.03,2.19,2.18,2.18
66.67,-0.05,-0.05,-2.20,-2.20,2.20,2.09,1.99,2.15,2.15,2.15
67.33,-0.07,-0.06,-2.19,-2.18,2.17,2.05,1.94,2.11,2.11,2.12
68.01,-0.07,-0.07,-2.16,-2.16,2.15,2.01,1.89,2.08,2.08,2.09
68.69,-0.07,-0.07,-2.12,-2.12,2.12,1.96,1.83,2.05,2.05,2.06
69.37,-0.07,-0.06,-2.09,-2.08,2.09,1.92,1.78,2.02,2.03,2.03
70.07,-0.04,-0.05,-2.03,-2.04,2.05,1.87,1.73,2.01,2.00,1.99
70.77,-0.04,-0.04,-2.01,-2.01,2.01,1.82,1.67,1.97,1.97,1.97
71.48,-0.04,-0.03,-1.97,-1.97,1.97,1.77,1.61,1.93,1.93,1.93
72.19,-0.04,-0.03,-1.94,-1.93,1.92,1.73,1.56,1.88,1.89,1.90
72.91,0.00,-0.01,-1.86,-1.87,1.87,1.68,1.50,1.88,1.86,1.86
73.64,0.00,0.01,-1.82,-1.82,1.82,1.63,1.44,1.83,1.83,1.83
74.38,0.03,0.03,-1.77,-1.76,1.77,1.57,1.38,1.80,1.80,1.80
75.12,0.05,0.05,-1.71,-1.72,1.71,1.52,1.32,1.77,1.76,1.76
75.87,0.06,0.07,-1.67,-1.66,1.65,1.47,1.26,1.71,1.72,1.73
76.63,0.10,0.10,-1.60,-1.59,1.59,1.42,1.20,1.69,1.69,1.70
77.40,0.14,0.14,-1.53,-1.53,1.53,1.36,1.14,1.67,1.67,1.67
78.17,0.18,0.18,-1.44,-1.45,1.46,1.31,1.08,1.64,1.64,1.63
78.95,0.21,0.21,-1.39,-1.39,1.39,1.25,1.02,1.61,1.61,1.61
79.74,0.24,0.25,-1.33,-1.33,1.33,1.19,0.96,1.57,1.57,1.57
80.54,0.27,0.28,-1.26,-1.26,1.26,1.13,0.90,1.54,1.54,1.54
81.35,0.31,0.31,-1.19,-1.20,1.20,1.08,0.84,1.51,1.51,1.50
82.16,0.33,0.34,-1.13,-1.13,1.13,1.02,0.78,1.47,1.47,1.47
82.98,0.37,0.37,-1.07,-1.07,1.07,0.96,0.72,1.44,1.43,1.44
83.81,0.38,0.39,-1.01,-1.01,1.01,0.90,0.66,1.39,1.40,1.39
84.65,0.42,0.42,-0.93,-0.94,0.94,0.83,0.60,1.36,1.36,1.36
85.50,0.44,0.45,-0.88,-0.88,0.88,0.77,0.55,1.32,1.32,1.33
86.35,0.47,0.47,-0.82,-0.81,0.81,0.71,0.49,1.29,1.29,1.29
87.22,0.50,0.50,-0.75,-0.75,0.75,0.65,0.43,1.25,1.25,1.25
88.09,0.52,0.53,-0.69,-0.68,0.69,0.58,0.37,1.21,1.21,1.21
88.97,0.56,0.55,-0.61,-0.62,0.62,0.52,0.31,1.19,1.17,1.18
89.86,0.56,0.57,-0.57,-0.56,0.56,0.45,0.26,1.12,1.13,1.14
90.76,0.59,0.59,-0.49,-0.50,0.50,0.39,0.20,1.09,1.09,1.08
91.66,0.61,0.61,-0.44,-0.44,0.44,0.32,0.14,1.05,1.05,1.05
92.58,0.62,0.63,-0.37,-0.37,0.38,0.26,0.09,1.00,1.01,1.00
93.51,0.65,0.64,-0.31,-0.32,0.32,0.19,0.03,0.97,0.96,0.96
94.44,0.65,0.66,-0.27,-0.26,0.25,0.12,-0.03,0.91,0.91,0.92
95.39,0.67,0.67,-0.20,-0.20,0.19,0.06,-0.08,0.86,0.86,0.88
96.34,0.70,0.69,-0.12,-0.13,0.13,-0.01,-0.14,0.83,0.82,0.82
97.30,0.70,0.72,-0.07,-0.06,0.06,-0.08,-0.20,0.77,0.78,0.78
98.28,0.75,0.74,0.02,0.01,-0.00,-0.14,-0.25,0.75,0.74,0.73
99.26,0.75,0.75,0.07,0.06,-0.06,-0.21,-0.31,0.69,0.69,0.69
100.25,0.75,0.76,0.11,0.12,-0.12,-0.28,-0.36,0.63,0.64,0.64
101.25,0.76,0.77,0.17,0.18,-0.18,-0.35,-0.41,0.58,0.59,0.59
102.27,0.79,0.78,0.25,0.24,-0.23,-0.41,-0.47,0.56,0.55,0.55
103.29,0.79,0.79,0.30,0.30,-0.29,-0.48,-0.52,0.50,0.50,0.49
104.32,0.79,0.79,0.34,0.34,-0.34,-0.55,-0.57,0.45,0.45,0.45
105.37,0.79,0.79,0.39,0.39,-0.40,-0.62,-0.63,0.40,0.40,0.41
106.42,0.79,0.80,0.43,0.44,-0.45,-0.68,-0.68,0.34,0.35,0.36
107.48,0.82,0.82,0.51,0.50,-0.51,-0.75,-0.73,0.32,0.31,0.32
108.56,0.83,0.83,0.57,0.57,-0.56,-0.81,-0.78,0.27,0.27,0.26
109.64,0.84,0.84,0.63,0.63,-0.61,-0.88,-0.83,0.23,0.23,0.21
110.74,0.84,0.84,0.68,0.68,-0.67,-0.94,-0.88,0.17,0.17,0.17
111.85,0.84,0.84,0.72,0.73,-0.73,-1.01,-0.93,0.12,0.12,0.12
112.97,0.84,0.84,0.79,0.78,-0.78,-1.07,-0.97,0.06,0.06,0.06
114.10,0.84,0.84,0.83,0.83,-0.84,-1.14,-1.02,0.00,-0.00,0.01
115.24,0.84,0.85,0.89,0.89,-0.90,-1.20,-1.06,-0.06,-0.06,-0.04
116.39,0.84,0.86,0.94,0.96,-0.96,-1.26,-1.10,-0.12,-0.10,-0.10
117.55,0.89,0.88,1.05,1.03,-1.02,-1.32,-1.14,-0.13,-0.15,-0.15
118.73,0.89,0.89,1.10,1.09,-1.09,-1.39,-1.18,-0.19,-0.20,-0.21
119.92,0.89,0.90,1.14,1.15,-1.15,-1.45,-1.22,-0.26,-0.25,-0.25
121.12,0.89,0.91,1.20,1.21,-1.21,-1.51,-1.26,-0.32,-0.30,-0.30
122.33,0.93,0.92,1.29,1.27,-1.27,-1.56,-1.29,-0.34,-0.35,-0.35
123.55,0.93,0.93,1.33,1.33,-1.33,-1.62,-1.33,-0.39,-0.39,-0.40
124.79,0.93,0.94,1.38,1.38,-1.38,-1.68,-1.36,-0.45,-0.44,-0.45
126.03,0.93,0.93,1.43,1.43,-1.43,-1.73,-1.39,-0.50,-0.50,-0.50
127.29,0.93,0.93,1.48,1.48,-1.49,-1.79,-1.41,-0.55,-0.55,-0.55
128.57,0.93,0.93,1.54,1.54,-1.54,-1.84,-1.44,-0.61,-0.61,-0.61
129.85,0.93,0.93,1.59,1.59,-1.59,-1.90,-1.47,-0.66,-0.66,-0.66
131.15,0.93,0.94,1.64,1.64,-1.65,-1.95,-1.49,-0.71,-0.71,-0.70
132.46,0.94,0.95,1.69,1.70,-1.70,-2.00,-1.51,-0.76,-0.75,-0.75
133.79,0.96,0.96,1.75,1.76,-1.76,-2.05,-1.53,-0.79,-0.79,-0.79
135.12,0.98,0.98,1.83,1.81,-1.81,-2.10,-1.55,-0.83,-0.83,-0.84
136.48,0.98,0.98,1.86,1.87,-1.86,-2.14,-1.57,-0.88,-0.87,-0.88
137.84,0.98,0.99,1.91,1.92,-1.91,-2.19,-1.59,-0.92,-0.92,-0.92
139.22,0.98,0.98,1.96,1.95,-1.95,-2.24,-1.61,-0.97,-0.97,-0.98
140.61,0.98,0.98,2.00,2.00,-2.00,-2.28,-1.63,-1.01,-1.01,-1.02
142.02,0.98,0.98,2.02,2.03,-2.04,-2.32,-1.64,-1.05,-1.06,-1.04
143.44,0.98,0.98,2.07,2.07,-2.08,-2.36,-1.66,-1.09,-1.09,-1.08
144.87,0.98,0.99,2.11,2.11,-2.12,-2.40,-1.68,-1.13,-1.13,-1.12
146.32,1.00,1.00,2.17,2.16,-2.16,-2.44,-1.69,-1.15,-1.16,-1.16
147.78,1.00,1.00,2.19,2.20,-2.20,-2.48,-1.71,-1.19,-1.19,-1.19
149.26,1.00,1.01,2.23,2.24,-2.24,-2.52,-1.73,-1.23,-1.23,-1.23
150.75,1.00,1.00,2.28,2.27,-2.28,-2.55,-1.75,-1.27,-1.27,-1.28
152.26,1.00,1.00,2.32,2.32,-2.32,-2.59,-1.76,-1.31,-1.31,-1.31
153.78,1.00,1.00,2.35,2.36,-2.36,-2.62,-1.78,-1.35,-1.35,-1.35
155.32,1.00,1.00,2.40,2.39,-2.39,-2.65,-1.80,-1.39,-1.39,-1.39
156.88,1.00,1.00,2.43,2.43,-2.43,-2.68,-1.83,-1.43,-1.43,-1.43
158.44,1.00,1.00,2.47,2.47,-2.47,-2.71,-1.85,-1.46,-1.47,-1.47
160.03,0.98,0.99,2.50,2.50,-2.50,-2.74,-1.87,-1.52,-1.51,-1.51
161.63,0.98,0.98,2.54,2.54,-2.54,-2.76,-1.90,-1.56,-1.56,-1.55
163.24,0.98,0.98,2.58,2.57,-2.58,-2.79,-1.92,-1.59,-1.60,-1.59
164.88,0.98,0.98,2.61,2.61,-2.61,-2.81,-1.95,-1.63,-1.63,-1.62
166.53,0.98,0.98,2.65,2.65,-2.65,-2.84,-1.98,-1.66,-1.66,-1.66
168.19,0.98,0.99,2.69,2.69,-2.68,-2.86,-2.01,-1.70,-1.70,-1.70
169.87,0.98,0.98,2.72,2.72,-2.71,-2.88,-2.05,-1.73,-1.73,-1.74
171.57,0.98,0.98,2.76,2.75,-2.74,-2.90,-2.08,-1.76,-1.77,-1.78
173.29,0.96,0.96,2.78,2.78,-2.78,-2.91,-2.12,-1.81,-1.81,-1.81
175.02,0.94,0.95,2.79,2.80,-2.81,-2.93,-2.16,-1.86,-1.86,-1.85
176.77,0.93,0.94,2.83,2.83,-2.84,-2.95,-2.20,-1.91,-1.90,-1.89
178.54,0.93,0.93,2.87,2.86,-2.87,-2.96,-2.24,-1.94,-1.94,-1.94
180.32,0.93,0.93,2.90,2.90,-2.91,-2.97,-2.28,-1.97,-1.97,-1.97
182.13,0.93,0.93,2.94,2.94,-2.94,-2.99,-2.33,-2.01,-2.01,-2.00
183.95,0.93,0.93,2.98,2.98,-2.98,-3.00,-2.37,-2.04,-2.04,-2.04
185.79,0.93,0.93,3.01,3.01,-3.01,-3.01,-2.42,-2.08,-2.08,-2.08
187.65,0.93,0.94,3.05,3.05,-3.04,-3.02,-2.47,-2.11,-2.11,-2.12
189.52,0.93,0.93,3.08,3.08,-3.07,-3.03,-2.53,-2.14,-2.14,-2.15
191.42,0.93,0.93,3.11,3.10,-3.10,-3.03,-2.58,-2.16,-2.17,-2.18
193.33,0.91,0.92,3.12,3.12,-3.12,-3.04,-2.63,-2.21,-2.21,-2.21
195.27,0.90,0.90,3.14,3.14,-3.15,-3.05,-2.69,-2.24,-2.24,-2.23
197.22,0.89,0.90,3.15,3.16,-3.17,-3.05,-2.75,-2.28,-2.27,-2.26
199.19,0.89,0.89,3.19,3.18,-3.19,-3.05,-2.80,-2.30,-2.30,-2.30
201.18,0.89,0.89,3.21,3.21,-3.21,-3.05,-2.86,-2.32,-2.32,-2.32
203.19,0.89,0.89,3.22,3.23,-3.22,-3.06,-2.92,-2.33,-2.33,-2.33
205.23,0.89,0.90,3.25,3.25,-3.24,-3.06,-2.98,-2.35,-2.34,-2.36
207.28,0.89,0.89,3.25,3.26,-3.25,-3.06,-3.04,-2.36,-2.36,-2.36
209.35,0.89,0.88,3.28,3.26,-3.26,-3.06,-3.10,-2.37,-2.38,-2.39
211.44,0.84,0.86,3.25,3.26,-3.27,-3.05,-3.16,-2.42,-2.41,-2.41
213.56,0.84,0.85,3.26,3.26,-3.27,-3.05,-3.22,-2.43,-2.42,-2.41
215.69,0.84,0.84,3.26,3.26,-3.27,-3.05,-3.28,-2.43,-2.43,-2.42
217.85,0.84,0.84,3.27,3.27,-3.27,-3.04,-3.34,-2.42,-2.43,-2.43
220.03,0.84,0.83,3.29,3.27,-3.26,-3.04,-3.39,-2.42,-2.43,-2.44
222.23,0.80,0.81,3.26,3.26,-3.26,-3.03,-3.44,-2.46,-2.45,-2.45
224.45,0.79,0.80,3.24,3.25,-3.25,-3.03,-3.49,-2.46,-2.45,-2.45
226.70,0.79,0.79,3.24,3.24,-3.25,-3.02,-3.54,-2.45,-2.45,-2.45
228.96,0.79,0.79,3.24,3.24,-3.24,-3.01,-3.59,-2.44,-2.44,-2.45
231.25,0.79,0.79,3.23,3.23,-3.23,-3.00,-3.62,-2.43,-2.44,-2.44
233.57,0.78,0.78,3.22,3.22,-3.22,-2.99,-3.66,-2.43,-2.44,-2.44
235.90,0.75,0.76,3.19,3.20,-3.21,-2.98,-3.69,-2.45,-2.44,-2.44
238.26,0.75,0.75,3.19,3.19,-3.19,-2.97,-3.72,-2.44,-2.44,-2.44
240.64,0.75,0.75,3.18,3.18,-3.18,-2.96,-3.74,-2.43,-2.43,-2.43
243.05,0.75,0.76,3.17,3.17,-3.16,-2.95,-3.76,-2.41,-2.41,-2.42
245.48,0.75,0.75,3.16,3.16,-3.14,-2.94,-3.77,-2.39,-2.39,-2.40
247.93,0.75,0.74,3.14,3.13,-3.12,-2.93,-3.78,-2.37,-2.39,-2.39
250.41,0.70,0.72,3.09,3.10,-3.10,-2.91,-3.78,-2.40,-2.38,-2.39
252.92,0.70,0.71,3.07,3.07,-3.09,-2.90,-3.78,-2.38,-2.38,-2.37
255.45,0.70,0.70,3.05,3.05,-3.06,-2.89,-3.77,-2.36,-2.37,-2.34
258.00,0.70,0.70,3.03,3.03,-3.04,-2.87,-3.75,-2.34,-2.34,-2.33
260.58,0.70,0.70,3.02,3.02,-3.01,-2.86,-3.73,-2.31,-2.31,-2.32
263.19,0.70,0.71,3.00,3.01,-2.99,-2.84,-3.71,-2.29,-2.28,-2.29
265.82,0.70,0.70,2.98,2.98,-2.97,-2.82,-3.68,-2.26,-2.26,-2.28
268.48,0.70,0.69,2.96,2.94,-2.94,-2.81,-3.64,-2.24,-2.25,-2.26
271.16,0.65,0.67,2.89,2.91,-2.91,-2.79,-3.60,-2.26,-2.24,-2.23
273.87,0.65,0.66,2.87,2.87,-2.88,-2.77,-3.56,-2.23,-2.23,-2.22
276.61,0.65,0.65,2.85,2.85,-2.85,-2.76,-3.51,-2.20,-2.20,-2.19
279.38,0.65,0.65,2.83,2.83,-2.82,-2.74,-3.46,-2.17,-2.17,-2.18
282.17,0.65,0.64,2.82,2.80,-2.79,-2.72,-3.41,-2.14,-2.15,-2.16
284.99,0.61,0.63,2.75,2.77,-2.76,-2.70,-3.36,-2.15,-2.14,-2.14
287.84,0.61,0.62,2.74,2.74,-2.74,-2.68,-3.30,-2.13,-2.13,-2.12
290.72,0.61,0.61,2.71,2.71,-2.72,-2.66,-3.24,-2.11,-2.11,-2.10
293.63,0.61,0.61,2.70,2.69,-2.70,-2.64,-3.18,-2.09,-2.09,-2.08
296.57,0.61,0.61,2.67,2.67,-2.68,-2.62,-3.12,-2.07,-2.07,-2.06
299.53,0.61,0.62,2.65,2.66,-2.67,-2.60,-3.06,-2.05,-2.05,-2.04
302.53,0.63,0.63,2.66,2.65,-2.65,-2.58,-3.00,-2.02,-2.02,-2.03
305.55,0.65,0.65,2.64,2.64,-2.63,-2.56,-2.93,-1.98,-1.98,-1.99
308.61,0.65,0.65,2.63,2.62,-2.61,-2.54,-2.87,-1.95,-1.95,-1.97
311.69,0.65,0.65,2.60,2.59,-2.58,-2.52,-2.81,-1.93,-1.94,-1.95
314.81,0.63,0.63,2.54,2.55,-2.55,-2.50,-2.75,-1.92,-1.92,-1.91
317.96,0.61,0.63,2.51,2.52,-2.52,-2.48,-2.69,-1.91,-1.90,-1.89
321.14,0.61,0.61,2.49,2.48,-2.49,-2.46,-2.63,-1.88,-1.88,-1.88
324.35,0.61,0.59,2.47,2.45,-2.45,-2.43,-2.57,-1.84,-1.86,-1.86
327.59,0.56,0.58,2.40,2.42,-2.42,-2.41,-2.52,-1.86,-1.84,-1.83
330.87,0.56,0.57,2.38,2.38,-2.39,-2.39,-2.46,-1.82,-1.82,-1.82
334.18,0.56,0.56,2.36,2.35,-2.36,-2.37,-2.41,-1.79,-1.80,-1.80
337.52,0.56,0.55,2.34,2.33,-2.33,-2.34,-2.35,-1.76,-1.77,-1.78
340.90,0.53,0.54,2.29,2.30,-2.30,-2.32,-2.30,-1.76,-1.76,-1.75
344.30,0.52,0.53,2.26,2.27,-2.27,-2.30,-2.25,-1.74,-1.73,-1.74
347.75,0.52,0.52,2.24,2.24,-2.24,-2.28,-2.21,-1.71,-1.72,-1.72
351.23,0.52,0.51,2.22,2.21,-2.20,-2.25,-2.16,-1.68,-1.70,-1.70
354.74,0.47,0.49,2.16,2.18,-2.17,-2.23,-2.12,-1.70,-1.68,-1.68
358.28,0.47,0.47,2.14,2.14,-2.14,-2.21,-2.07,-1.67,-1.67,-1.66
361.87,0.47,0.45,2.12,2.10,-2.11,-2.18,-2.03,-1.63,-1.65,-1.65
365.49,0.43,0.45,2.06,2.08,-2.08,-2.16,-1.99,-1.64,-1.63,-1.63
369.14,0.42,0.43,2.04,2.04,-2.04,-2.14,-1.96,-1.62,-1.62,-1.62
372.83,0.42,0.41,2.03,2.01,-2.01,-2.11,-1.92,-1.59,-1.61,-1.60
376.56,0.38,0.40,1.98,1.99,-1.98,-2.09,-1.89,-1.60,-1.59,-1.59
380.33,0.38,0.39,1.95,1.96,-1.96,-2.07,-1.85,-1.57,-1.57,-1.57
384.13,0.38,0.37,1.94,1.93,-1.93,-2.04,-1.82,-1.55,-1.56,-1.56
387.97,0.35,0.36,1.90,1.90,-1.91,-2.02,-1.79,-1.55,-1.55,-1.55
391.85,0.33,0.34,1.87,1.88,-1.88,-1.99,-1.77,-1.55,-1.54,-1.54
395.77,0.33,0.34,1.85,1.86,-1.86,-1.97,-1.74,-1.53,-1.52,-1.52
399.73,0.33,0.33,1.85,1.84,-1.84,-1.95,-1.71,-1.51,-1.51,-1.51
403.72,0.33,0.32,1.84,1.82,-1.82,-1.92,-1.69,-1.48,-1.50,-1.50
407.76,0.28,0.30,1.78,1.80,-1.79,-1.90,-1.67,-1.51,-1.49,-1.50
411.84,0.28,0.28,1.76,1.76,-1.77,-1.87,-1.64,-1.49,-1.49,-1.48
415.96,0.28,0.27,1.75,1.74,-1.74,-1.85,-1.62,-1.46,-1.47,-1.47
420.12,0.24,0.26,1.70,1.71,-1.71,-1.83,-1.60,-1.47,-1.46,-1.46
424.32,0.24,0.23,1.69,1.68,-1.68,-1.80,-1.58,-1.44,-1.45,-1.45
428.56,0.19,0.20,1.63,1.65,-1.64,-1.78,-1.56,-1.45,-1.44,-1.44
432.85,0.18,0.18,1.62,1.61,-1.60,-1.76,-1.55,-1.42,-1.43,-1.43
437.18,0.14,0.14,1.57,1.56,-1.56,-1.73,-1.53,-1.42,-1.42,-1.42
441.55,0.10,0.11,1.51,1.52,-1.51,-1.71,-1.51,-1.41,-1.40,-1.40
445.96,0.06,0.07,1.46,1.46,-1.46,-1.68,-1.50,-1.39,-1.39,-1.40
450.42,0.03,0.02,1.42,1.41,-1.40,-1.66,-1.48,-1.37,-1.38,-1.39
454.93,-0.02,-0.02,1.35,1.36,-1.35,-1.64,-1.46,-1.37,-1.36,-1.37
459.48,-0.07,-0.06,1.29,1.30,-1.30,-1.61,-1.45,-1.36,-1.36,-1.36
464.07,-0.09,-0.10,1.25,1.24,-1.25,-1.59,-1.43,-1.34,-1.35,-1.34
468.71,-0.14,-0.12,1.18,1.20,-1.21,-1.57,-1.42,-1.35,-1.33,-1.32
473.40,-0.14,-0.14,1.17,1.17,-1.18,-1.54,-1.40,-1.31,-1.31,-1.31
478.13,-0.14,-0.14,1.15,1.15,-1.15,-1.52,-1.38,-1.29,-1.30,-1.29
482.91,-0.14,-0.14,1.15,1.14,-1.14,-1.50,-1.37,-1.28,-1.28,-1.28
487.74,-0.14,-0.13,1.13,1.13,-1.14,-1.47,-1.35,-1.27,-1.27,-1.26
492.62,-0.12,-0.11,1.13,1.13,-1.14,-1.45,-1.33,-1.26,-1.25,-1.24
497.55,-0.09,-0.09,1.15,1.14,-1.15,-1.43,-1.31,-1.23,-1.24,-1.23
