frequency,raw
20,-0.67
21,-0.43
22,-0.20
23,-0.00
24,0.18
25,0.34
26,0.47
27,0.59
28,0.69
29,0.77
30,0.82
31,0.83
32,0.80
33,0.76
34,0.70
35,0.64
36,0.59
37,0.53
38,0.49
39,0.50
40,0.55
41,0.63
42,0.76
43,0.95
44,1.19
45,1.48
46,1.82
47,2.16
48,2.54
49,2.92
50,3.31
51,3.69
52,4.06
53,4.39
54,4.71
55,5.02
56,5.29
57,5.55
58,5.81
59,6.06
60,6.30
61,6.52
62,6.74
63,6.97
64,7.19
65,7.43
66,7.66
67,7.87
68,8.10
69,8.30
70,8.50
71,8.68
72,8.87
73,9.02
74,9.17
75,9.33
76,9.46
77,9.59
78,9.72
79,9.82
80,9.91
81,9.98
82,10.05
83,10.11
84,10.16
85,10.20
86,10.23
87,10.24
88,10.25
89,10.25
90,10.26
91,10.27
92,10.27
93,10.26
94,10.25
95,10.24
96,10.23
97,10.21
98,10.18
99,10.14
100,10.10
101,10.06
102,10.00
104,9.94
105,9.87
106,9.81
107,9.73
108,9.65
109,9.58
110,9.50
111,9.43
112,9.37
113,9.28
114,9.18
115,9.09
117,9.00
118,8.91
119,8.81
120,8.70
121,8.59
123,8.48
124,8.38
125,8.26
126,8.15
128,8.05
129,7.95
130,7.84
131,7.74
133,7.64
134,7.54
135,7.45
137,7.35
138,7.25
140,7.15
141,7.05
142,6.94
144,6.85
145,6.75
147,6.63
148,6.52
150,6.40
151,6.29
153,6.18
154,6.06
156,5.93
157,5.79
159,5.65
160,5.49
162,5.33
164,5.16
165,4.98
167,4.78
169,4.58
170,4.37
172,4.16
174,3.94
175,3.72
177,3.48
179,3.22
181,2.97
183,2.71
184,2.45
186,2.17
188,1.88
190,1.58
192,1.28
194,0.97
196,0.66
198,0.34
200,0.02
202,-0.29
204,-0.62
206,-0.93
208,-1.24
210,-1.52
212,-1.80
214,-2.07
216,-2.32
218,-2.54
221,-2.73
223,-2.90
225,-3.05
227,-3.19
229,-3.29
232,-3.36
234,-3.41
236,-3.44
239,-3.43
241,-3.40
244,-3.35
246,-3.29
248,-3.22
251,-3.11
253,-2.99
256,-2.86
259,-2.73
261,-2.58
264,-2.42
266,-2.27
269,-2.11
272,-1.95
274,-1.79
277,-1.63
280,-1.47
283,-1.33
286,-1.19
288,-1.06
291,-0.92
294,-0.79
297,-0.66
300,-0.55
303,-0.43
306,-0.32
309,-0.23
312,-0.14
316,-0.05
319,0.04
322,0.11
325,0.17
328,0.23
332,0.30
335,0.36
338,0.42
342,0.47
345,0.52
349,0.56
352,0.60
356,0.65
359,0.69
363,0.73
366,0.75
370,0.77
374,0.78
377,0.80
381,0.81
385,0.83
389,0.85
393,0.87
397,0.88
401,0.89
405,0.91
409,0.95
413,0.99
417,1.03
421,1.07
425,1.12
430,1.17
434,1.22
438,1.28
443,1.34
447,1.41
451,1.48
456,1.54
460,1.63
465,1.74
470,1.84
474,1.95
479,2.07
484,2.17
489,2.28
494,2.40
499,2.53
504,2.66
509,2.77
514,2.88
519,2.98
524,3.07
529,3.16
535,3.25
540,3.34
545,3.42
551,3.49
556,3.53
562,3.57
568,3.60
573,3.61
579,3.62
585,3.60
591,3.58
596,3.57
602,3.55
608,3.50
615,3.44
621,3.36
627,3.26
633,3.15
639,3.05
646,2.95
652,2.85
659,2.74
665,2.61
672,2.46
679,2.31
686,2.17
692,2.03
699,1.88
706,1.74
713,1.61
721,1.49
728,1.38
735,1.25
742,1.13
750,1.04
757,0.95
765,0.88
773,0.84
780,0.81
788,0.80
796,0.79
804,0.78
812,0.77
820,0.75
828,0.73
837,0.72
845,0.71
853,0.70
862,0.68
871,0.66
879,0.62
888,0.57
897,0.52
906,0.48
915,0.44
924,0.40
933,0.35
943,0.30
952,0.26
962,0.21
971,0.17
981,0.11
991,0.05
1001,-0.01
1011,-0.05
1021,-0.11
1031,-0.16
1041,-0.22
1052,-0.28
1062,-0.34
1073,-0.40
1084,-0.47
1094,-0.54
1105,-0.61
1116,-0.68
1128,-0.75
1139,-0.82
1150,-0.88
1162,-0.93
1173,-0.98
1185,-1.04
1197,-1.10
1209,-1.15
1221,-1.19
1233,-1.23
1246,-1.28
1258,-1.32
1271,-1.35
1283,-1.38
1296,-1.40
1309,-1.42
1322,-1.44
1335,-1.46
1349,-1.47
1362,-1.47
1376,-1.46
1390,-1.45
1404,-1.44
1418,-1.44
1432,-1.44
1446,-1.44
1461,-1.45
1475,-1.46
1490,-1.47
1505,-1.47
1520,-1.46
1535,-1.44
1550,-1.42
1566,-1.39
1582,-1.35
1597,-1.31
1613,-1.27
1629,-1.25
1646,-1.23
1662,-1.22
1679,-1.21
1696,-1.21
1713,-1.23
1730,-1.24
1747,-1.27
1764,-1.30
1782,-1.35
1800,-1.38
1818,-1.42
1836,-1.44
1854,-1.47
1873,-1.49
1892,-1.49
1911,-1.47
1930,-1.45
1949,-1.42
1969,-1.40
1988,-1.38
2008,-1.35
2028,-1.32
2048,-1.28
2069,-1.23
2090,-1.18
2111,-1.13
2132,-1.09
2153,-1.04
2175,-0.99
2196,-0.94
2218,-0.90
2240,-0.86
2263,-0.81
2285,-0.75
2308,-0.69
2331,-0.63
2355,-0.56
2378,-0.50
2402,-0.43
2426,-0.37
2450,-0.29
2475,-0.20
2500,-0.11
2525,-0.03
2550,0.05
2575,0.12
2601,0.19
2627,0.28
2653,0.36
2680,0.43
2707,0.49
2734,0.56
2761,0.62
2789,0.68
2817,0.71
2845,0.75
2873,0.79
2902,0.82
2931,0.84
2960,0.85
2990,0.85
3020,0.85
3050,0.84
3080,0.81
3111,0.77
3142,0.73
3174,0.69
3206,0.63
3238,0.57
3270,0.49
3303,0.41
3336,0.33
3369,0.25
3403,0.16
3437,0.07
3471,-0.01
3506,-0.08
3541,-0.12
3576,-0.15
3612,-0.15
3648,-0.13
3685,-0.07
3721,0.02
3759,0.13
3796,0.29
3834,0.48
3873,0.70
3911,0.93
3950,1.18
3990,1.46
4030,1.75
4070,2.03
4111,2.29
4152,2.55
4193,2.80
4235,3.04
4278,3.26
4321,3.47
4364,3.65
4407,3.83
4451,3.98
4496,4.11
4541,4.23
4586,4.34
4632,4.43
4679,4.51
4725,4.56
4773,4.60
4820,4.64
4868,4.68
4917,4.71
4966,4.74
5016,4.77
5066,4.80
5117,4.84
5168,4.87
5220,4.90
5272,4.94
5325,4.97
5378,5.01
5432,5.03
5486,5.05
5541,5.05
5596,5.05
5652,5.03
5709,4.98
5766,4.91
5823,4.83
5882,4.74
5940,4.63
6000,4.51
6060,4.35
6120,4.18
6182,3.98
6244,3.78
6306,3.55
6369,3.31
6433,3.04
6497,2.73
6562,2.41
6628,2.08
6694,1.75
6761,1.43
6828,1.11
6897,0.81
6966,0.53
7035,0.26
7106,0.03
7177,-0.16
7249,-0.31
7321,-0.42
7394,-0.48
7468,-0.48
7543,-0.43
7618,-0.33
7694,-0.19
7771,-0.04
7849,0.14
7928,0.33
8007,0.55
8087,0.77
8168,0.99
8250,1.21
8332,1.42
8415,1.63
8499,1.82
8584,2.00
8670,2.16
8757,2.32
8845,2.47
8933,2.61
9022,2.74
9113,2.86
9204,2.98
9296,3.09
9389,3.17
9483,3.24
9577,3.30
9673,3.34
9770,3.38
9868,3.41
9966,3.45
10066,3.48
10167,3.52
10268,3.58
10371,3.65
10475,3.73
10579,3.81
10685,3.91
10792,4.03
10900,4.15
11009,4.29
11119,4.43
11230,4.58
11343,4.73
11456,4.88
11571,5.02
11686,5.17
11803,5.30
11921,5.42
12040,5.52
12161,5.60
12282,5.65
12405,5.68
12529,5.68
12655,5.65
12781,5.58
12909,5.46
13038,5.32
13168,5.16
13300,4.95
13433,4.72
13567,4.47
13703,4.21
13840,3.96
13978,3.72
14118,3.51
14259,3.34
14402,3.21
14546,3.14
14692,3.10
14838,3.09
14987,3.13
15137,3.18
15288,3.25
15441,3.33
15595,3.40
15751,3.47
15909,3.51
16068,3.51
16229,3.47
16391,3.39
16555,3.27
16720,3.14
16888,2.98
17056,2.80
17227,2.60
17399,2.39
17573,2.16
17749,1.92
17926,1.63
18106,1.32
18287,1.03
18470,0.73
18654,0.41
18841,0.08
19029,-0.27
19220,-0.63
19412,-1.00
19606,-1.39
19802,-1.80
20000,-2.22
