frequency,raw,error,smoothed,error_smoothed,equalization,parametric_eq,equalized_raw,equalized_smoothed,target
20,-15.24,-15.12,-15.12,-14.96,6.00,2.70,-9.24,-9.12,-0.12
21,-14.59,-14.47,-14.57,-14.42,6.00,3.09,-8.59,-8.57,-0.12
22,-14.00,-13.88,-14.05,-13.91,6.00,3.52,-8.00,-8.05,-0.12
23,-13.50,-13.38,-13.54,-13.41,6.00,3.98,-7.50,-7.54,-0.12
24,-13.02,-12.90,-13.06,-12.93,6.00,4.46,-7.02,-7.06,-0.12
25,-12.56,-12.44,-12.60,-12.48,6.00,4.96,-6.56,-6.60,-0.12
26,-12.12,-12.00,-12.17,-12.05,6.00,5.46,-6.12,-6.17,-0.12
27,-11.69,-11.57,-11.75,-11.64,6.00,5.94,-5.69,-5.75,-0.12
28,-11.35,-11.23,-11.36,-11.24,6.00,6.37,-5.35,-5.36,-0.12
29,-11.03,-10.91,-10.99,-10.88,6.00,6.72,-5.03,-4.99,-0.12
30,-10.66,-10.54,-10.64,-10.53,6.00,6.98,-4.66,-4.64,-0.12
31,-10.38,-10.26,-10.33,-10.21,6.00,7.13,-4.38,-4.33,-0.12
32,-10.05,-9.93,-10.04,-9.91,6.00,7.17,-4.05,-4.04,-0.12
33,-9.75,-9.63,-9.77,-9.64,6.00,7.12,-3.75,-3.77,-0.12
34,-9.42,-9.30,-9.50,-9.38,6.00,7.00,-3.42,-3.50,-0.12
35,-9.25,-9.13,-9.26,-9.14,6.00,6.83,-3.25,-3.26,-0.12
36,-9.08,-8.96,-9.03,-8.91,6.00,6.63,-3.08,-3.03,-0.12
37,-8.78,-8.66,-8.82,-8.70,6.00,6.43,-2.78,-2.82,-0.12
38,-8.64,-8.52,-8.63,-8.50,6.00,6.23,-2.64,-2.63,-0.12
39,-8.43,-8.31,-8.44,-8.32,6.00,6.05,-2.43,-2.44,-0.12
40,-8.35,-8.23,-8.26,-8.15,6.00,5.88,-2.35,-2.26,-0.12
41,-8.11,-7.99,-8.11,-7.99,6.00,5.74,-2.11,-2.11,-0.12
42,-7.89,-7.77,-7.96,-7.84,6.00,5.63,-1.89,-1.96,-0.12
43,-7.78,-7.66,-7.82,-7.70,6.00,5.54,-1.78,-1.82,-0.12
44,-7.78,-7.66,-7.69,-7.57,6.00,5.47,-1.78,-1.69,-0.12
45,-7.55,-7.43,-7.57,-7.45,6.00,5.43,-1.55,-1.57,-0.12
46,-7.46,-7.34,-7.45,-7.34,6.00,5.41,-1.46,-1.45,-0.12
47,-7.38,-7.26,-7.35,-7.23,6.00,5.41,-1.38,-1.35,-0.12
48,-7.14,-7.02,-7.25,-7.12,6.00,5.42,-1.14,-1.25,-0.12
49,-7.14,-7.02,-7.15,-7.02,6.00,5.45,-1.14,-1.15,-0.12
50,-7.14,-7.02,-7.05,-6.92,6.00,5.49,-1.14,-1.05,-0.12
51,-6.94,-6.82,-6.95,-6.82,6.00,5.54,-0.94,-0.95,-0.12
52,-6.81,-6.69,-6.86,-6.72,6.00,5.60,-0.81,-0.86,-0.12
53,-6.81,-6.69,-6.76,-6.63,6.00,5.66,-0.81,-0.76,-0.12
54,-6.78,-6.66,-6.66,-6.54,6.00,5.72,-0.78,-0.66,-0.12
55,-6.58,-6.46,-6.57,-6.44,6.00,5.78,-0.58,-0.57,-0.12
56,-6.49,-6.37,-6.48,-6.34,6.00,5.84,-0.49,-0.48,-0.12
57,-6.34,-6.22,-6.38,-6.25,6.00,5.89,-0.34,-0.38,-0.12
58,-6.16,-6.04,-6.29,-6.16,5.99,5.93,-0.17,-0.30,-0.12
59,-6.16,-6.04,-6.18,-6.07,5.96,5.95,-0.20,-0.23,-0.12
60,-6.16,-6.04,-6.10,-5.98,5.91,5.97,-0.25,-0.19,-0.12
61,-6.06,-5.94,-6.02,-5.89,5.86,5.97,-0.20,-0.16,-0.12
62,-5.87,-5.75,-5.92,-5.80,5.79,5.95,-0.08,-0.13,-0.12
63,-5.84,-5.72,-5.83,-5.72,5.72,5.92,-0.12,-0.11,-0.12
64,-5.84,-5.72,-5.75,-5.63,5.63,5.88,-0.21,-0.11,-0.12
65,-5.66,-5.54,-5.68,-5.55,5.55,5.82,-0.11,-0.13,-0.12
66,-5.51,-5.39,-5.60,-5.47,5.47,5.76,-0.04,-0.13,-0.12
67,-5.51,-5.39,-5.53,-5.39,5.39,5.68,-0.12,-0.13,-0.12
68,-5.51,-5.39,-5.44,-5.32,5.32,5.60,-0.19,-0.13,-0.12
69,-5.44,-5.32,-5.36,-5.24,5.24,5.51,-0.20,-0.12,-0.12
70,-5.19,-5.07,-5.28,-5.16,5.16,5.41,-0.03,-0.11,-0.12
71,-5.19,-5.07,-5.22,-5.09,5.09,5.31,-0.10,-0.12,-0.12
72,-5.19,-5.07,-5.16,-5.03,5.03,5.21,-0.16,-0.13,-0.12
73,-5.16,-5.04,-5.09,-4.97,4.97,5.11,-0.19,-0.13,-0.12
74,-5.01,-4.89,-5.03,-4.90,4.90,5.01,-0.11,-0.13,-0.12
75,-4.86,-4.74,-4.97,-4.84,4.84,4.91,-0.02,-0.13,-0.12
76,-4.86,-4.74,-4.91,-4.79,4.79,4.81,-0.07,-0.12,-0.12
77,-4.86,-4.74,-4.85,-4.74,4.74,4.72,-0.12,-0.11,-0.12
78,-4.86,-4.74,-4.80,-4.69,4.69,4.63,-0.17,-0.11,-0.12
79,-4.86,-4.74,-4.77,-4.64,4.64,4.54,-0.22,-0.13,-0.12
80,-4.78,-4.66,-4.73,-4.60,4.60,4.46,-0.18,-0.13,-0.12
81,-4.64,-4.52,-4.68,-4.55,4.55,4.39,-0.09,-0.13,-0.12
82,-4.54,-4.42,-4.63,-4.51,4.51,4.31,-0.03,-0.12,-0.12
83,-4.54,-4.42,-4.58,-4.46,4.46,4.25,-0.08,-0.12,-0.12
84,-4.54,-4.42,-4.54,-4.42,4.42,4.18,-0.12,-0.12,-0.12
85,-4.54,-4.42,-4.50,-4.37,4.37,4.13,-0.17,-0.12,-0.12
86,-4.54,-4.42,-4.45,-4.33,4.33,4.07,-0.21,-0.12,-0.12
87,-4.48,-4.36,-4.41,-4.29,4.29,4.02,-0.19,-0.13,-0.12
88,-4.35,-4.23,-4.37,-4.24,4.24,3.98,-0.11,-0.13,-0.12
89,-4.22,-4.10,-4.33,-4.20,4.20,3.94,-0.02,-0.13,-0.12
90,-4.22,-4.10,-4.29,-4.16,4.16,3.91,-0.06,-0.13,-0.12
91,-4.22,-4.10,-4.25,-4.11,4.11,3.87,-0.11,-0.14,-0.12
92,-4.22,-4.10,-4.20,-4.07,4.07,3.85,-0.15,-0.13,-0.12
93,-4.22,-4.10,-4.15,-4.03,4.03,3.82,-0.19,-0.12,-0.12
94,-4.22,-4.10,-4.11,-3.99,3.99,3.80,-0.23,-0.12,-0.12
95,-4.14,-4.02,-4.07,-3.94,3.94,3.79,-0.20,-0.12,-0.12
96,-4.02,-3.90,-4.04,-3.91,3.91,3.77,-0.11,-0.13,-0.12
97,-3.90,-3.78,-4.01,-3.87,3.87,3.76,-0.03,-0.14,-0.12
98,-3.89,-3.77,-3.99,-3.83,3.83,3.75,-0.06,-0.15,-0.12
99,-3.89,-3.77,-3.95,-3.80,3.80,3.75,-0.09,-0.15,-0.12
100,-3.89,-3.77,-3.90,-3.76,3.76,3.74,-0.13,-0.14,-0.12
101,-3.89,-3.77,-3.86,-3.72,3.72,3.74,-0.17,-0.14,-0.12
102,-3.89,-3.77,-3.81,-3.68,3.68,3.74,-0.21,-0.13,-0.12
104,-3.89,-3.77,-3.77,-3.65,3.65,3.75,-0.24,-0.12,-0.12
105,-3.82,-3.70,-3.74,-3.62,3.62,3.75,-0.20,-0.13,-0.12
106,-3.71,-3.59,-3.72,-3.58,3.58,3.76,-0.13,-0.14,-0.12
107,-3.60,-3.48,-3.70,-3.55,3.55,3.76,-0.05,-0.15,-0.12
108,-3.57,-3.45,-3.68,-3.52,3.52,3.77,-0.05,-0.16,-0.12
109,-3.57,-3.45,-3.64,-3.49,3.49,3.77,-0.08,-0.15,-0.12
110,-3.57,-3.45,-3.60,-3.45,3.45,3.78,-0.12,-0.15,-0.12
111,-3.57,-3.45,-3.56,-3.42,3.42,3.78,-0.15,-0.14,-0.12
112,-3.57,-3.45,-3.52,-3.38,3.38,3.78,-0.19,-0.13,-0.12
113,-3.57,-3.45,-3.48,-3.35,3.35,3.79,-0.22,-0.13,-0.12
114,-3.54,-3.42,-3.44,-3.32,3.32,3.79,-0.22,-0.12,-0.12
115,-3.44,-3.32,-3.42,-3.29,3.29,3.79,-0.15,-0.13,-0.12
117,-3.41,-3.29,-3.40,-3.26,3.26,3.79,-0.15,-0.14,-0.12
118,-3.31,-3.19,-3.37,-3.23,3.23,3.79,-0.08,-0.15,-0.12
119,-3.24,-3.12,-3.34,-3.20,3.20,3.78,-0.04,-0.14,-0.12
120,-3.24,-3.12,-3.31,-3.17,3.17,3.77,-0.07,-0.14,-0.12
121,-3.24,-3.12,-3.28,-3.14,3.14,3.77,-0.10,-0.14,-0.12
123,-3.24,-3.12,-3.25,-3.11,3.11,3.74,-0.13,-0.14,-0.12
124,-3.24,-3.12,-3.22,-3.08,3.08,3.73,-0.16,-0.13,-0.12
125,-3.24,-3.12,-3.18,-3.05,3.05,3.71,-0.19,-0.13,-0.12
126,-3.24,-3.12,-3.16,-3.02,3.02,3.69,-0.22,-0.13,-0.12
128,-3.20,-3.08,-3.13,-2.99,2.99,3.65,-0.21,-0.14,-0.12
129,-3.11,-2.99,-3.10,-2.96,2.96,3.63,-0.15,-0.14,-0.12
130,-3.08,-2.96,-3.08,-2.94,2.94,3.60,-0.14,-0.14,-0.12
131,-3.08,-2.96,-3.05,-2.91,2.91,3.58,-0.17,-0.14,-0.12
133,-2.93,-2.81,-3.02,-2.88,2.88,3.52,-0.05,-0.13,-0.12
134,-2.92,-2.80,-2.99,-2.86,2.86,3.49,-0.06,-0.13,-0.12
135,-2.92,-2.80,-2.96,-2.83,2.83,3.46,-0.09,-0.12,-0.12
137,-2.92,-2.80,-2.94,-2.82,2.82,3.39,-0.10,-0.12,-0.12
138,-2.92,-2.80,-2.92,-2.80,2.80,3.36,-0.12,-0.12,-0.12
140,-2.92,-2.80,-2.91,-2.79,2.79,3.29,-0.13,-0.12,-0.12
141,-2.92,-2.80,-2.90,-2.79,2.79,3.25,-0.13,-0.12,-0.12
142,-2.92,-2.80,-2.91,-2.78,2.78,3.22,-0.14,-0.13,-0.12
144,-2.92,-2.80,-2.91,-2.78,2.78,3.14,-0.14,-0.13,-0.12
145,-2.92,-2.80,-2.91,-2.78,2.78,3.11,-0.14,-0.13,-0.12
147,-2.92,-2.80,-2.91,-2.78,2.78,3.03,-0.14,-0.13,-0.12
148,-2.92,-2.80,-2.91,-2.78,2.78,3.00,-0.14,-0.13,-0.12
150,-2.92,-2.80,-2.91,-2.78,2.78,2.93,-0.14,-0.13,-0.12
151,-2.92,-2.80,-2.90,-2.78,2.78,2.89,-0.14,-0.12,-0.12
153,-2.92,-2.80,-2.91,-2.79,2.79,2.82,-0.13,-0.12,-0.12
154,-2.92,-2.80,-2.91,-2.80,2.80,2.79,-0.12,-0.12,-0.12
156,-2.92,-2.80,-2.93,-2.81,2.81,2.72,-0.11,-0.12,-0.12
157,-2.92,-2.80,-2.95,-2.82,2.82,2.69,-0.10,-0.13,-0.12
159,-2.92,-2.80,-2.98,-2.84,2.84,2.63,-0.08,-0.13,-0.12
160,-2.92,-2.80,-3.00,-2.87,2.87,2.60,-0.05,-0.13,-0.12
162,-3.03,-2.91,-3.02,-2.89,2.89,2.54,-0.14,-0.13,-0.12
164,-3.08,-2.96,-3.05,-2.93,2.93,2.49,-0.15,-0.12,-0.12
165,-3.08,-2.96,-3.08,-2.96,2.96,2.46,-0.12,-0.12,-0.12
167,-3.21,-3.09,-3.13,-3.00,3.00,2.41,-0.21,-0.13,-0.12
169,-3.24,-3.12,-3.17,-3.04,3.04,2.36,-0.20,-0.13,-0.12
170,-3.24,-3.12,-3.22,-3.09,3.09,2.34,-0.15,-0.14,-0.12
172,-3.24,-3.12,-3.27,-3.13,3.13,2.30,-0.11,-0.14,-0.12
174,-3.24,-3.12,-3.31,-3.18,3.18,2.26,-0.06,-0.13,-0.12
175,-3.25,-3.13,-3.35,-3.22,3.22,2.24,-0.03,-0.13,-0.12
177,-3.38,-3.26,-3.39,-3.27,3.27,2.20,-0.11,-0.12,-0.12
179,-3.50,-3.38,-3.43,-3.32,3.32,2.17,-0.18,-0.12,-0.12
181,-3.57,-3.45,-3.48,-3.37,3.37,2.14,-0.20,-0.12,-0.12
183,-3.57,-3.45,-3.53,-3.41,3.41,2.11,-0.16,-0.12,-0.12
184,-3.57,-3.45,-3.58,-3.46,3.46,2.10,-0.11,-0.12,-0.12
186,-3.57,-3.45,-3.63,-3.51,3.51,2.07,-0.06,-0.13,-0.12
188,-3.57,-3.45,-3.69,-3.55,3.55,2.05,-0.02,-0.13,-0.12
190,-3.69,-3.57,-3.73,-3.60,3.60,2.03,-0.09,-0.14,-0.12
192,-3.81,-3.69,-3.78,-3.63,3.63,2.01,-0.18,-0.14,-0.12
194,-3.89,-3.77,-3.81,-3.66,3.66,1.99,-0.23,-0.14,-0.12
196,-3.89,-3.77,-3.82,-3.69,3.69,1.97,-0.20,-0.13,-0.12
198,-3.89,-3.77,-3.84,-3.72,3.72,1.96,-0.17,-0.12,-0.12
200,-3.89,-3.77,-3.87,-3.74,3.74,1.94,-0.15,-0.13,-0.12
202,-3.89,-3.77,-3.89,-3.76,3.76,1.93,-0.13,-0.13,-0.12
204,-3.89,-3.77,-3.91,-3.78,3.78,1.92,-0.11,-0.14,-0.12
206,-3.89,-3.77,-3.93,-3.79,3.79,1.90,-0.10,-0.13,-0.12
208,-3.89,-3.77,-3.93,-3.81,3.81,1.89,-0.08,-0.12,-0.12
210,-3.89,-3.77,-3.94,-3.81,3.81,1.88,-0.08,-0.12,-0.12
212,-3.89,-3.77,-3.94,-3.82,3.82,1.87,-0.07,-0.12,-0.12
214,-3.90,-3.78,-3.94,-3.82,3.82,1.86,-0.08,-0.12,-0.12
216,-4.00,-3.88,-3.95,-3.82,3.82,1.85,-0.18,-0.12,-0.12
218,-4.00,-3.88,-3.94,-3.82,3.82,1.84,-0.18,-0.13,-0.12
221,-3.89,-3.77,-3.93,-3.80,3.80,1.82,-0.09,-0.13,-0.12
223,-3.89,-3.77,-3.91,-3.78,3.78,1.81,-0.11,-0.13,-0.12
225,-3.89,-3.77,-3.87,-3.75,3.75,1.80,-0.14,-0.13,-0.12
227,-3.89,-3.77,-3.83,-3.70,3.70,1.79,-0.19,-0.13,-0.12
229,-3.89,-3.77,-3.77,-3.65,3.65,1.77,-0.24,-0.13,-0.12
232,-3.68,-3.56,-3.71,-3.58,3.58,1.75,-0.10,-0.13,-0.12
234,-3.57,-3.45,-3.63,-3.49,3.49,1.73,-0.08,-0.14,-0.12
236,-3.57,-3.45,-3.53,-3.39,3.39,1.71,-0.18,-0.13,-0.12
239,-3.33,-3.21,-3.41,-3.28,3.28,1.68,-0.05,-0.13,-0.12
241,-3.24,-3.12,-3.29,-3.16,3.16,1.66,-0.08,-0.13,-0.12
244,-3.18,-3.06,-3.15,-3.02,3.02,1.62,-0.16,-0.14,-0.12
246,-3.00,-2.88,-3.00,-2.86,2.86,1.59,-0.14,-0.13,-0.12
248,-2.87,-2.75,-2.82,-2.70,2.70,1.57,-0.17,-0.13,-0.12
251,-2.71,-2.59,-2.64,-2.52,2.52,1.52,-0.19,-0.12,-0.12
253,-2.53,-2.41,-2.45,-2.33,2.33,1.49,-0.20,-0.12,-0.12
256,-2.26,-2.14,-2.26,-2.13,2.13,1.44,-0.13,-0.13,-0.12
259,-2.00,-1.88,-2.06,-1.93,1.93,1.39,-0.07,-0.13,-0.12
261,-1.83,-1.71,-1.84,-1.71,1.71,1.35,-0.12,-0.12,-0.12
264,-1.57,-1.45,-1.62,-1.50,1.50,1.29,-0.07,-0.13,-0.12
266,-1.40,-1.28,-1.40,-1.27,1.27,1.25,-0.13,-0.13,-0.12
269,-1.14,-1.02,-1.16,-1.04,1.04,1.19,-0.10,-0.12,-0.12
272,-0.89,-0.77,-0.93,-0.81,0.81,1.12,-0.08,-0.12,-0.12
274,-0.73,-0.61,-0.70,-0.58,0.58,1.08,-0.15,-0.12,-0.12
277,-0.48,-0.36,-0.46,-0.34,0.34,1.01,-0.14,-0.12,-0.12
280,-0.24,-0.12,-0.23,-0.11,0.11,0.94,-0.13,-0.12,-0.12
283,0.00,0.12,0.00,0.13,-0.13,0.87,-0.13,-0.12,-0.12
286,0.24,0.36,0.23,0.36,-0.36,0.79,-0.12,-0.13,-0.12
288,0.40,0.52,0.47,0.59,-0.59,0.74,-0.19,-0.12,-0.12
291,0.70,0.82,0.70,0.82,-0.82,0.67,-0.12,-0.12,-0.12
294,1.00,1.12,0.93,1.05,-1.05,0.59,-0.05,-0.12,-0.12
297,1.11,1.23,1.16,1.28,-1.28,0.52,-0.17,-0.12,-0.12
300,1.41,1.53,1.38,1.50,-1.50,0.44,-0.09,-0.12,-0.12
303,1.66,1.78,1.60,1.72,-1.72,0.36,-0.06,-0.11,-0.12
306,1.77,1.89,1.81,1.93,-1.93,0.28,-0.16,-0.12,-0.12
309,1.99,2.11,2.01,2.13,-2.13,0.20,-0.14,-0.12,-0.12
312,2.20,2.32,2.22,2.33,-2.33,0.13,-0.13,-0.11,-0.12
316,2.46,2.58,2.41,2.52,-2.52,0.02,-0.06,-0.11,-0.12
319,2.57,2.69,2.59,2.70,-2.70,-0.06,-0.13,-0.11,-0.12
322,2.75,2.87,2.75,2.87,-2.87,-0.14,-0.12,-0.12,-0.12
325,2.94,3.06,2.91,3.03,-3.03,-0.22,-0.09,-0.11,-0.12
328,3.05,3.17,3.07,3.18,-3.18,-0.30,-0.13,-0.11,-0.12
332,3.18,3.30,3.20,3.32,-3.32,-0.40,-0.14,-0.12,-0.12
335,3.32,3.44,3.32,3.45,-3.45,-0.48,-0.13,-0.13,-0.12
338,3.53,3.65,3.45,3.57,-3.57,-0.56,-0.04,-0.12,-0.12
342,3.57,3.69,3.56,3.68,-3.68,-0.66,-0.11,-0.12,-0.12
345,3.62,3.74,3.66,3.78,-3.78,-0.74,-0.16,-0.13,-0.12
349,3.75,3.87,3.75,3.88,-3.88,-0.85,-0.13,-0.13,-0.12
352,3.84,3.96,3.84,3.96,-3.96,-0.92,-0.12,-0.12,-0.12
356,3.89,4.01,3.92,4.04,-4.04,-1.03,-0.15,-0.12,-0.12
359,3.90,4.02,3.99,4.11,-4.11,-1.11,-0.21,-0.12,-0.12
363,4.03,4.15,4.05,4.17,-4.17,-1.21,-0.14,-0.12,-0.12
366,4.12,4.24,4.10,4.22,-4.22,-1.29,-0.10,-0.12,-0.12
370,4.22,4.34,4.13,4.26,-4.26,-1.39,-0.04,-0.13,-0.12
374,4.22,4.34,4.17,4.30,-4.30,-1.50,-0.08,-0.14,-0.12
377,4.22,4.34,4.20,4.33,-4.33,-1.58,-0.11,-0.14,-0.12
381,4.22,4.34,4.22,4.36,-4.36,-1.68,-0.14,-0.14,-0.12
385,4.22,4.34,4.25,4.38,-4.38,-1.78,-0.16,-0.13,-0.12
389,4.22,4.34,4.26,4.39,-4.39,-1.88,-0.17,-0.13,-0.12
393,4.22,4.34,4.27,4.39,-4.39,-1.98,-0.17,-0.12,-0.12
397,4.22,4.34,4.27,4.39,-4.39,-2.08,-0.17,-0.12,-0.12
401,4.22,4.34,4.25,4.38,-4.38,-2.18,-0.16,-0.13,-0.12
405,4.22,4.34,4.23,4.36,-4.36,-2.28,-0.14,-0.13,-0.12
409,4.22,4.34,4.19,4.33,-4.33,-2.38,-0.11,-0.14,-0.12
413,4.22,4.34,4.16,4.30,-4.30,-2.47,-0.08,-0.14,-0.12
417,4.22,4.34,4.12,4.25,-4.25,-2.57,-0.03,-0.13,-0.12
421,4.16,4.28,4.08,4.20,-4.20,-2.66,-0.04,-0.13,-0.12
425,3.95,4.07,4.02,4.14,-4.14,-2.74,-0.19,-0.12,-0.12
430,3.89,4.01,3.95,4.07,-4.07,-2.85,-0.18,-0.12,-0.12
434,3.85,3.97,3.87,3.99,-3.99,-2.93,-0.14,-0.12,-0.12
438,3.74,3.86,3.78,3.90,-3.90,-3.01,-0.16,-0.12,-0.12
443,3.61,3.73,3.67,3.79,-3.79,-3.11,-0.18,-0.12,-0.12
447,3.57,3.69,3.56,3.68,-3.68,-3.18,-0.11,-0.12,-0.12
451,3.57,3.69,3.44,3.57,-3.57,-3.25,0.00,-0.13,-0.12
456,3.33,3.45,3.31,3.44,-3.44,-3.33,-0.11,-0.13,-0.12
460,3.19,3.31,3.18,3.31,-3.31,-3.38,-0.12,-0.13,-0.12
465,3.07,3.19,3.05,3.18,-3.18,-3.45,-0.11,-0.13,-0.12
470,2.95,3.07,2.92,3.04,-3.04,-3.51,-0.09,-0.12,-0.12
474,2.78,2.90,2.78,2.90,-2.90,-3.55,-0.12,-0.12,-0.12
479,2.57,2.69,2.63,2.76,-2.76,-3.59,-0.19,-0.13,-0.12
484,2.45,2.57,2.50,2.62,-2.62,-3.63,-0.17,-0.13,-0.12
489,2.34,2.46,2.36,2.49,-2.49,-3.66,-0.15,-0.13,-0.12
494,2.22,2.34,2.23,2.36,-2.36,-3.68,-0.14,-0.13,-0.12
499,2.11,2.23,2.10,2.23,-2.23,-3.69,-0.12,-0.13,-0.12
504,2.00,2.12,1.99,2.11,-2.11,-3.69,-0.11,-0.12,-0.12
509,1.88,2.00,1.88,2.00,-2.00,-3.69,-0.12,-0.12,-0.12
514,1.77,1.89,1.78,1.90,-1.90,-3.68,-0.13,-0.13,-0.12
519,1.66,1.78,1.68,1.81,-1.81,-3.66,-0.15,-0.13,-0.12
524,1.62,1.74,1.61,1.73,-1.73,-3.64,-0.11,-0.13,-0.12
529,1.61,1.73,1.54,1.66,-1.66,-3.61,-0.05,-0.12,-0.12
535,1.48,1.60,1.47,1.60,-1.60,-3.57,-0.12,-0.13,-0.12
540,1.38,1.50,1.42,1.54,-1.54,-3.53,-0.16,-0.13,-0.12
545,1.30,1.42,1.37,1.50,-1.50,-3.48,-0.20,-0.13,-0.12
551,1.30,1.42,1.34,1.47,-1.47,-3.42,-0.17,-0.13,-0.12
556,1.30,1.42,1.32,1.44,-1.44,-3.37,-0.14,-0.13,-0.12
562,1.30,1.42,1.30,1.43,-1.43,-3.30,-0.13,-0.13,-0.12
568,1.30,1.42,1.29,1.42,-1.42,-3.23,-0.12,-0.13,-0.12
573,1.30,1.42,1.29,1.41,-1.41,-3.17,-0.11,-0.13,-0.12
579,1.30,1.42,1.29,1.41,-1.41,-3.09,-0.11,-0.13,-0.12
585,1.30,1.42,1.29,1.42,-1.42,-3.01,-0.12,-0.12,-0.12
591,1.30,1.42,1.30,1.42,-1.42,-2.94,-0.12,-0.11,-0.12
596,1.30,1.42,1.31,1.41,-1.41,-2.87,-0.11,-0.10,-0.12
602,1.30,1.42,1.31,1.41,-1.41,-2.79,-0.11,-0.10,-0.12
608,1.30,1.42,1.29,1.40,-1.40,-2.71,-0.10,-0.11,-0.12
615,1.30,1.42,1.27,1.38,-1.38,-2.61,-0.08,-0.11,-0.12
621,1.30,1.42,1.25,1.36,-1.36,-2.53,-0.06,-0.12,-0.12
627,1.30,1.42,1.22,1.34,-1.34,-2.46,-0.04,-0.12,-0.12
633,1.21,1.33,1.18,1.31,-1.31,-2.38,-0.10,-0.13,-0.12
639,1.14,1.26,1.15,1.28,-1.28,-2.30,-0.14,-0.13,-0.12
646,1.14,1.26,1.12,1.25,-1.25,-2.21,-0.11,-0.14,-0.12
652,1.03,1.15,1.09,1.23,-1.23,-2.14,-0.20,-0.14,-0.12
659,0.97,1.09,1.06,1.20,-1.20,-2.05,-0.23,-0.14,-0.12
665,0.97,1.09,1.03,1.17,-1.17,-1.98,-0.20,-0.14,-0.12
672,0.97,1.09,1.01,1.14,-1.14,-1.90,-0.17,-0.13,-0.12
679,0.97,1.09,0.99,1.12,-1.12,-1.82,-0.15,-0.13,-0.12
686,0.97,1.09,0.97,1.09,-1.09,-1.74,-0.12,-0.13,-0.12
692,0.97,1.09,0.94,1.07,-1.07,-1.68,-0.10,-0.13,-0.12
699,0.97,1.09,0.92,1.05,-1.05,-1.60,-0.08,-0.13,-0.12
706,0.97,1.09,0.90,1.03,-1.03,-1.53,-0.06,-0.13,-0.12
713,0.97,1.09,0.88,1.00,-1.00,-1.46,-0.03,-0.13,-0.12
721,0.87,0.99,0.85,0.98,-0.98,-1.39,-0.11,-0.13,-0.12
728,0.81,0.93,0.82,0.95,-0.95,-1.32,-0.14,-0.13,-0.12
735,0.81,0.93,0.80,0.93,-0.93,-1.26,-0.12,-0.13,-0.12
742,0.71,0.83,0.77,0.90,-0.90,-1.19,-0.19,-0.13,-0.12
750,0.65,0.77,0.74,0.87,-0.87,-1.12,-0.22,-0.13,-0.12
757,0.65,0.77,0.72,0.84,-0.84,-1.06,-0.19,-0.13,-0.12
765,0.65,0.77,0.69,0.81,-0.81,-1.00,-0.16,-0.13,-0.12
773,0.65,0.77,0.65,0.78,-0.78,-0.94,-0.13,-0.13,-0.12
780,0.65,0.77,0.62,0.75,-0.75,-0.88,-0.10,-0.13,-0.12
788,0.65,0.77,0.59,0.72,-0.72,-0.82,-0.07,-0.13,-0.12
796,0.65,0.77,0.56,0.69,-0.69,-0.76,-0.04,-0.13,-0.12
804,0.61,0.73,0.53,0.66,-0.66,-0.71,-0.05,-0.13,-0.12
812,0.50,0.62,0.50,0.63,-0.63,-0.65,-0.13,-0.13,-0.12
820,0.49,0.61,0.47,0.60,-0.60,-0.60,-0.11,-0.12,-0.12
828,0.44,0.56,0.44,0.57,-0.57,-0.55,-0.13,-0.13,-0.12
837,0.32,0.44,0.41,0.54,-0.54,-0.49,-0.22,-0.13,-0.12
845,0.32,0.44,0.39,0.52,-0.52,-0.45,-0.20,-0.13,-0.12
853,0.32,0.44,0.37,0.50,-0.50,-0.40,-0.18,-0.13,-0.12
862,0.32,0.44,0.34,0.48,-0.48,-0.35,-0.16,-0.13,-0.12
871,0.32,0.44,0.33,0.46,-0.46,-0.30,-0.14,-0.14,-0.12
879,0.32,0.44,0.31,0.45,-0.45,-0.26,-0.13,-0.13,-0.12
888,0.32,0.44,0.31,0.43,-0.43,-0.22,-0.11,-0.12,-0.12
897,0.32,0.44,0.30,0.41,-0.41,-0.17,-0.09,-0.11,-0.12
906,0.32,0.44,0.29,0.40,-0.40,-0.13,-0.08,-0.11,-0.12
915,0.32,0.44,0.27,0.38,-0.38,-0.09,-0.06,-0.11,-0.12
924,0.32,0.44,0.25,0.36,-0.36,-0.06,-0.04,-0.11,-0.12
933,0.23,0.35,0.22,0.34,-0.34,-0.02,-0.11,-0.11,-0.12
943,0.16,0.28,0.19,0.31,-0.31,0.02,-0.15,-0.12,-0.12
952,0.16,0.28,0.16,0.29,-0.29,0.05,-0.13,-0.13,-0.12
962,0.16,0.28,0.13,0.26,-0.26,0.08,-0.10,-0.13,-0.12
971,0.11,0.23,0.10,0.24,-0.24,0.11,-0.13,-0.14,-0.12
981,0.00,0.12,0.08,0.22,-0.22,0.14,-0.22,-0.13,-0.12
991,0.00,0.12,0.06,0.19,-0.19,0.16,-0.19,-0.13,-0.12
1001,0.00,0.12,0.05,0.17,-0.17,0.19,-0.17,-0.12,-0.12
1011,0.00,0.12,0.02,0.15,-0.15,0.21,-0.15,-0.12,-0.12
1021,0.00,0.12,0.00,0.12,-0.12,0.23,-0.12,-0.12,-0.12
1031,0.00,0.12,-0.02,0.10,-0.10,0.25,-0.10,-0.12,-0.12
1041,0.00,0.12,-0.05,0.07,-0.07,0.27,-0.07,-0.12,-0.12
1052,0.00,0.12,-0.08,0.05,-0.05,0.29,-0.05,-0.12,-0.12
1062,0.00,0.12,-0.11,0.02,-0.02,0.31,-0.02,-0.13,-0.12
1073,-0.05,0.07,-0.13,-0.01,0.01,0.32,-0.04,-0.12,-0.12
1084,-0.17,-0.05,-0.16,-0.04,0.04,0.34,-0.13,-0.12,-0.12
1094,-0.27,-0.15,-0.19,-0.07,0.07,0.35,-0.20,-0.13,-0.12
1105,-0.32,-0.20,-0.23,-0.09,0.09,0.36,-0.23,-0.13,-0.12
1116,-0.32,-0.20,-0.26,-0.12,0.12,0.37,-0.20,-0.14,-0.12
1128,-0.32,-0.20,-0.28,-0.14,0.14,0.38,-0.18,-0.14,-0.12
1139,-0.32,-0.20,-0.29,-0.16,0.16,0.39,-0.16,-0.14,-0.12
1150,-0.32,-0.20,-0.30,-0.18,0.18,0.40,-0.14,-0.13,-0.12
1162,-0.32,-0.20,-0.32,-0.19,0.19,0.41,-0.13,-0.12,-0.12
1173,-0.32,-0.20,-0.33,-0.21,0.21,0.42,-0.11,-0.12,-0.12
1185,-0.32,-0.20,-0.34,-0.23,0.23,0.42,-0.09,-0.12,-0.12
1197,-0.32,-0.20,-0.35,-0.24,0.24,0.43,-0.08,-0.11,-0.12
1209,-0.32,-0.20,-0.37,-0.27,0.27,0.44,-0.05,-0.11,-0.12
1221,-0.32,-0.20,-0.40,-0.29,0.29,0.44,-0.03,-0.11,-0.12
1233,-0.32,-0.20,-0.43,-0.32,0.32,0.45,-0.00,-0.12,-0.12
1246,-0.44,-0.32,-0.47,-0.35,0.35,0.46,-0.09,-0.12,-0.12
1258,-0.55,-0.43,-0.50,-0.38,0.38,0.46,-0.17,-0.13,-0.12
1271,-0.65,-0.53,-0.54,-0.41,0.41,0.47,-0.24,-0.13,-0.12
1283,-0.65,-0.53,-0.57,-0.44,0.44,0.48,-0.21,-0.13,-0.12
1296,-0.65,-0.53,-0.60,-0.47,0.47,0.49,-0.18,-0.13,-0.12
1309,-0.65,-0.53,-0.63,-0.49,0.49,0.49,-0.16,-0.14,-0.12
1322,-0.65,-0.53,-0.65,-0.51,0.51,0.50,-0.14,-0.14,-0.12
1335,-0.65,-0.53,-0.67,-0.53,0.53,0.51,-0.12,-0.14,-0.12
1349,-0.65,-0.53,-0.67,-0.54,0.54,0.52,-0.11,-0.14,-0.12
1362,-0.65,-0.53,-0.67,-0.54,0.54,0.53,-0.11,-0.13,-0.12
1376,-0.65,-0.53,-0.66,-0.54,0.54,0.54,-0.11,-0.12,-0.12
1390,-0.65,-0.53,-0.66,-0.54,0.54,0.55,-0.11,-0.12,-0.12
1404,-0.65,-0.53,-0.65,-0.53,0.53,0.56,-0.12,-0.12,-0.12
1418,-0.65,-0.53,-0.64,-0.53,0.53,0.57,-0.12,-0.12,-0.12
1432,-0.65,-0.53,-0.64,-0.53,0.53,0.58,-0.12,-0.11,-0.12
1446,-0.65,-0.53,-0.63,-0.52,0.52,0.59,-0.13,-0.10,-0.12
1461,-0.65,-0.53,-0.63,-0.53,0.53,0.61,-0.12,-0.10,-0.12
1475,-0.65,-0.53,-0.64,-0.53,0.53,0.62,-0.12,-0.10,-0.12
1490,-0.65,-0.53,-0.65,-0.55,0.55,0.63,-0.10,-0.11,-0.12
1505,-0.65,-0.53,-0.67,-0.56,0.56,0.65,-0.09,-0.11,-0.12
1520,-0.65,-0.53,-0.70,-0.58,0.58,0.66,-0.07,-0.12,-0.12
1535,-0.65,-0.53,-0.73,-0.60,0.60,0.68,-0.05,-0.13,-0.12
1550,-0.65,-0.53,-0.76,-0.63,0.63,0.69,-0.02,-0.13,-0.12
1566,-0.75,-0.63,-0.79,-0.66,0.66,0.71,-0.09,-0.13,-0.12
1582,-0.87,-0.75,-0.81,-0.69,0.69,0.73,-0.18,-0.12,-0.12
1597,-0.97,-0.85,-0.84,-0.72,0.72,0.74,-0.25,-0.11,-0.12
1613,-0.97,-0.85,-0.87,-0.76,0.76,0.76,-0.21,-0.11,-0.12
