frequency,raw,error,smoothed,error_smoothed,equalization,parametric_eq,fixed_band_eq,equalized_raw,equalized_smoothed,target
20.00,-9.75,-12.43,-9.75,-12.42,6.00,6.15,2.95,-3.75,-3.75,2.67
20.20,-9.65,-12.38,-9.66,-12.38,6.00,6.15,3.03,-3.65,-3.66,2.72
20.40,-9.56,-12.34,-9.56,-12.33,6.00,6.15,3.12,-3.56,-3.56,2.77
20.61,-9.47,-12.27,-9.47,-12.28,6.00,6.14,3.20,-3.47,-3.47,2.80
20.81,-9.37,-12.23,-9.37,-12.22,6.00,6.14,3.29,-3.37,-3.37,2.85
21.02,-9.27,-12.17,-9.27,-12.16,6.00,6.14,3.39,-3.27,-3.27,2.89
21.23,-9.16,-12.08,-9.17,-12.08,6.00,6.14,3.48,-3.16,-3.17,2.91
21.44,-9.05,-11.98,-9.05,-11.99,6.00,6.13,3.58,-3.05,-3.05,2.93
21.66,-8.95,-11.90,-8.94,-11.89,6.00,6.13,3.69,-2.95,-2.94,2.95
21.87,-8.83,-11.79,-8.84,-11.80,6.00,6.13,3.79,-2.83,-2.84,2.96
22.09,-8.73,-11.71,-8.73,-11.71,6.00,6.12,3.90,-2.73,-2.73,2.98
22.31,-8.63,-11.62,-8.64,-11.62,6.00,6.12,4.01,-2.63,-2.64,2.99
22.54,-8.55,-11.53,-8.54,-11.53,6.00,6.11,4.12,-2.55,-2.54,2.99
22.76,-8.44,-11.43,-8.45,-11.43,6.00,6.11,4.24,-2.44,-2.45,2.99
22.99,-8.34,-11.32,-8.35,-11.32,6.00,6.11,4.36,-2.34,-2.35,2.98
23.22,-8.24,-11.22,-8.24,-11.22,6.00,6.10,4.48,-2.24,-2.24,2.98
23.45,-8.13,-11.11,-8.14,-11.11,6.00,6.10,4.60,-2.13,-2.14,2.97
23.69,-8.03,-11.01,-8.03,-11.01,6.00,6.09,4.73,-2.03,-2.03,2.98
23.92,-7.91,-10.90,-7.91,-10.89,6.00,6.09,4.86,-1.91,-1.91,2.98
24.16,-7.77,-10.77,-7.78,-10.77,6.00,6.08,5.00,-1.77,-1.78,2.99
24.40,-7.63,-10.63,-7.63,-10.62,6.00,6.08,5.13,-1.63,-1.63,3.00
24.65,-7.50,-10.49,-7.48,-10.48,6.00,6.08,5.27,-1.50,-1.48,2.99
24.89,-7.34,-10.33,-7.36,-10.35,6.00,6.07,5.41,-1.34,-1.36,2.99
25.14,-7.26,-10.25,-7.28,-10.27,6.00,6.07,5.55,-1.26,-1.28,2.99
25.39,-7.23,-10.23,-7.23,-10.23,6.00,6.06,5.69,-1.23,-1.23,3.00
25.65,-7.20,-10.20,-7.21,-10.20,6.00,6.05,5.83,-1.20,-1.21,3.00
25.91,-7.18,-10.16,-7.16,-10.15,6.00,6.05,5.97,-1.18,-1.16,2.99
26.16,-7.07,-10.06,-7.07,-10.05,6.00,6.04,6.12,-1.07,-1.07,2.98
26.43,-6.94,-9.92,-6.94,-9.92,6.00,6.04,6.26,-0.94,-0.94,2.98
26.69,-6.79,-9.78,-6.80,-9.78,6.00,6.03,6.40,-0.79,-0.80,2.98
26.96,-6.66,-9.65,-6.66,-9.65,6.00,6.03,6.54,-0.66,-0.66,2.99
27.23,-6.54,-9.53,-6.53,-9.52,6.00,6.02,6.68,-0.54,-0.53,2.99
27.50,-6.42,-9.40,-6.41,-9.40,6.00,6.01,6.81,-0.42,-0.41,2.99
27.77,-6.30,-9.28,-6.30,-9.28,6.00,6.01,6.94,-0.30,-0.30,2.98
28.05,-6.20,-9.18,-6.22,-9.19,6.00,6.00,7.06,-0.20,-0.22,2.98
28.33,-6.17,-9.14,-6.18,-9.15,6.00,5.99,7.18,-0.17,-0.18,2.96
28.62,-6.15,-9.12,-6.16,-9.12,6.00,5.98,7.29,-0.15,-0.16,2.96
28.90,-6.13,-9.10,-6.10,-9.07,6.00,5.98,7.39,-0.13,-0.10,2.97
29.19,-5.99,-8.95,-5.98,-8.94,6.00,5.97,7.49,0.01,0.02,2.96
29.48,-5.78,-8.76,-5.79,-8.76,6.00,5.96,7.57,0.22,0.21,2.98
29.78,-5.59,-8.55,-5.60,-8.57,6.00,5.95,7.64,0.41,0.40,2.97
30.08,-5.43,-8.40,-5.46,-8.43,6.00,5.94,7.70,0.57,0.54,2.97
30.38,-5.40,-8.37,-5.40,-8.37,6.00,5.94,7.75,0.60,0.60,2.96
30.68,-5.37,-8.33,-5.37,-8.33,6.00,5.93,7.78,0.63,0.63,2.96
30.99,-5.34,-8.30,-5.31,-8.27,6.00,5.92,7.80,0.66,0.69,2.96
31.30,-5.20,-8.15,-5.19,-8.15,6.00,5.91,7.81,0.80,0.81,2.96
31.61,-5.04,-7.99,-5.04,-8.00,6.00,5.90,7.80,0.96,0.96,2.95
31.93,-4.89,-7.84,-4.90,-7.85,6.00,5.89,7.78,1.11,1.10,2.95
32.24,-4.80,-7.74,-4.81,-7.75,6.00,5.88,7.75,1.20,1.19,2.94
32.57,-4.76,-7.70,-4.74,-7.69,6.00,5.86,7.70,1.24,1.26,2.95
32.89,-4.70,-7.65,-4.71,-7.65,6.00,5.85,7.64,1.30,1.29,2.94
33.22,-4.68,-7.61,-4.70,-7.63,6.00,5.84,7.57,1.32,1.30,2.93
33.55,-4.67,-7.60,-4.69,-7.62,6.00,5.83,7.49,1.33,1.31,2.93
33.89,-4.67,-7.59,-4.63,-7.55,6.00,5.82,7.39,1.33,1.37,2.91
34.23,-4.53,-7.45,-4.49,-7.40,6.00,5.80,7.30,1.47,1.51,2.92
34.57,-4.29,-7.20,-4.30,-7.21,6.00,5.79,7.18,1.71,1.70,2.91
34.92,-4.07,-6.97,-4.13,-7.04,6.00,5.78,7.07,1.93,1.87,2.91
35.27,-4.04,-6.95,-4.08,-6.98,6.00,5.76,6.95,1.96,1.92,2.90
35.62,-4.09,-6.99,-4.09,-6.99,6.00,5.75,6.82,1.91,1.91,2.90
35.97,-4.14,-7.04,-4.04,-6.94,6.00,5.73,6.69,1.86,1.96,2.89
36.33,-3.88,-6.78,-3.86,-6.76,6.00,5.72,6.56,2.12,2.14,2.90
36.70,-3.62,-6.50,-3.65,-6.54,6.00,5.70,6.42,2.39,2.36,2.89
37.06,-3.40,-6.28,-3.49,-6.38,6.00,5.68,6.29,2.61,2.51,2.88
37.43,-3.48,-6.37,-3.47,-6.36,6.00,5.66,6.15,2.53,2.53,2.90
37.81,-3.54,-6.44,-3.49,-6.38,6.01,5.65,6.01,2.46,2.52,2.89
38.19,-3.49,-6.38,-3.43,-6.32,6.01,5.63,5.87,2.53,2.59,2.89
38.57,-3.28,-6.17,-3.28,-6.17,6.02,5.61,5.73,2.74,2.74,2.90
38.95,-3.05,-5.96,-3.14,-6.03,6.01,5.59,5.60,2.95,2.87,2.90
39.34,-3.05,-5.95,-3.07,-5.96,5.97,5.57,5.46,2.91,2.90,2.90
39.74,-3.08,-5.97,-3.05,-5.94,5.90,5.54,5.33,2.82,2.85,2.89
40.14,-3.05,-5.95,-3.03,-5.92,5.82,5.52,5.20,2.77,2.79,2.89
40.54,-2.93,-5.81,-2.94,-5.83,5.73,5.50,5.07,2.81,2.80,2.89
40.94,-2.79,-5.68,-2.77,-5.66,5.65,5.47,4.94,2.86,2.88,2.88
41.35,-2.60,-5.48,-2.59,-5.46,5.57,5.45,4.82,2.97,2.98,2.88
41.76,-2.41,-5.29,-2.45,-5.32,5.48,5.42,4.70,3.07,3.03,2.87
42.18,-2.36,-5.23,-2.42,-5.29,5.39,5.39,4.58,3.04,2.97,2.87
42.60,-2.46,-5.31,-2.44,-5.31,5.29,5.36,4.46,2.83,2.85,2.86
43.03,-2.54,-5.40,-2.46,-5.31,5.18,5.33,4.35,2.64,2.73,2.85
43.46,-2.38,-5.23,-2.40,-5.24,5.09,5.30,4.24,2.70,2.69,2.84
43.90,-2.24,-5.05,-2.25,-5.07,5.00,5.27,4.14,2.76,2.75,2.82
44.33,-2.07,-4.87,-2.06,-4.86,4.90,5.24,4.03,2.83,2.84,2.80
44.78,-1.91,-4.69,-1.93,-4.71,4.80,5.20,3.93,2.89,2.87,2.78
45.23,-1.82,-4.59,-1.84,-4.60,4.69,5.17,3.83,2.87,2.85,2.77
45.68,-1.79,-4.55,-1.78,-4.54,4.58,5.13,3.74,2.79,2.80,2.75
46.13,-1.76,-4.50,-1.74,-4.49,4.49,5.09,3.65,2.73,2.75,2.73
46.60,-1.70,-4.43,-1.70,-4.42,4.41,5.05,3.56,2.72,2.72,2.74
47.06,-1.62,-4.34,-1.64,-4.36,4.34,5.00,3.47,2.72,2.70,2.72
47.53,-1.58,-4.29,-1.58,-4.29,4.26,4.96,3.39,2.68,2.68,2.71
48.01,-1.53,-4.24,-1.53,-4.23,4.17,4.91,3.31,2.63,2.64,2.71
48.49,-1.45,-4.14,-1.46,-4.14,4.07,4.86,3.23,2.62,2.61,2.68
48.97,-1.36,-4.03,-1.33,-4.00,3.98,4.81,3.16,2.62,2.65,2.66
49.46,-1.20,-3.85,-1.19,-3.84,3.88,4.75,3.09,2.68,2.69,2.64
49.96,-1.03,-3.65,-1.08,-3.70,3.80,4.70,3.02,2.77,2.72,2.62
50.46,-1.01,-3.63,-1.01,-3.63,3.72,4.64,2.95,2.70,2.70,2.62
50.96,-1.02,-3.63,-1.04,-3.64,3.65,4.57,2.88,2.62,2.61,2.61
51.47,-1.06,-3.65,-1.07,-3.66,3.59,4.51,2.82,2.52,2.51,2.58
51.99,-1.11,-3.68,-1.00,-3.57,3.54,4.44,2.76,2.42,2.54,2.57
52.51,-0.91,-3.47,-0.91,-3.48,3.49,4.37,2.70,2.58,2.58,2.57
53.03,-0.71,-3.28,-0.91,-3.46,3.45,4.29,2.65,2.73,2.54,2.56
53.56,-0.92,-3.47,-0.87,-3.42,3.40,4.21,2.59,2.48,2.53,2.55
54.10,-1.02,-3.55,-0.80,-3.33,3.34,4.13,2.54,2.31,2.54,2.53
54.64,-0.63,-3.14,-0.74,-3.25,3.25,4.04,2.49,2.62,2.51,2.51
55.18,-0.47,-2.97,-0.67,-3.18,3.17,3.95,2.44,2.70,2.49,2.51
55.74,-0.75,-3.24,-0.62,-3.11,3.10,3.85,2.39,2.35,2.48,2.49
56.29,-0.73,-3.22,-0.61,-3.09,3.05,3.75,2.34,2.31,2.44,2.48
56.86,-0.44,-2.90,-0.50,-2.96,3.00,3.64,2.29,2.56,2.50,2.47
57.42,-0.32,-2.76,-0.36,-2.81,2.94,3.53,2.25,2.62,2.58,2.44
58.00,-0.28,-2.71,-0.38,-2.81,2.89,3.41,2.21,2.60,2.51,2.43
58.58,-0.51,-2.93,-0.47,-2.88,2.83,3.29,2.16,2.32,2.36,2.42
59.16,-0.62,-3.02,-0.50,-2.89,2.77,3.16,2.12,2.15,2.27,2.40
59.76,-0.39,-2.76,-0.43,-2.80,2.70,3.02,2.08,2.31,2.27,2.38
60.35,-0.23,-2.57,-0.27,-2.61,2.61,2.88,2.04,2.38,2.34,2.33
60.96,-0.13,-2.43,-0.14,-2.44,2.52,2.73,2.01,2.39,2.38,2.30
61.57,-0.09,-2.35,-0.11,-2.37,2.40,2.58,1.97,2.31,2.29,2.26
62.18,-0.08,-2.30,-0.09,-2.30,2.26,2.42,1.93,2.18,2.18,2.21
62.80,-0.06,-2.23,0.03,-2.14,2.12,2.25,1.90,2.05,2.15,2.17
63.43,0.15,-1.98,0.15,-1.97,1.98,2.07,1.86,2.13,2.14,2.12
64.07,0.40,-1.68,0.24,-1.83,1.87,1.89,1.82,2.27,2.11,2.08
64.71,0.26,-1.78,0.33,-1.71,1.75,1.71,1.79,2.01,2.08,2.03
65.35,0.30,-1.70,0.38,-1.61,1.63,1.52,1.76,1.92,2.01,1.99
66.01,0.48,-1.46,0.43,-1.51,1.48,1.33,1.72,1.97,1.92,1.95
66.67,0.55,-1.35,0.48,-1.42,1.35,1.14,1.69,1.90,1.83,1.90
67.33,0.54,-1.30,0.55,-1.30,1.25,0.94,1.66,1.80,1.80,1.85
68.01,0.48,-1.33,0.66,-1.14,1.16,0.75,1.63,1.63,1.82,1.81
68.69,0.88,-0.87,0.78,-0.97,1.06,0.57,1.60,1.95,1.84,1.76
69.37,0.97,-0.73,0.85,-0.85,0.96,0.39,1.57,1.94,1.81,1.70
70.07,0.80,-0.86,0.85,-0.80,0.85,0.23,1.54,1.64,1.70,1.65
70.77,0.72,-0.89,0.76,-0.85,0.74,0.07,1.51,1.46,1.50,1.61
71.48,0.76,-0.80,0.77,-0.78,0.64,-0.06,1.48,1.40,1.41,1.55
72.19,0.88,-0.61,0.90,-0.59,0.55,-0.19,1.46,1.42,1.45,1.49
72.91,1.09,-0.35,1.05,-0.39,0.45,-0.28,1.43,1.53,1.49,1.43
73.64,1.17,-0.21,1.14,-0.23,0.33,-0.36,1.40,1.50,1.47,1.38
74.38,1.18,-0.14,1.15,-0.17,0.20,-0.40,1.38,1.38,1.35,1.32
75.12,1.12,-0.14,1.13,-0.13,0.06,-0.43,1.35,1.18,1.20,1.26
75.87,1.12,-0.08,1.18,-0.02,-0.06,-0.43,1.33,1.05,1.12,1.20
76.63,1.30,0.15,1.33,0.18,-0.18,-0.41,1.31,1.12,1.15,1.15
77.40,1.51,0.41,1.43,0.33,-0.27,-0.37,1.29,1.23,1.16,1.10
78.17,1.58,0.55,1.48,0.43,-0.37,-0.31,1.27,1.22,1.11,1.04
78.95,1.34,0.33,1.48,0.48,-0.46,-0.23,1.24,0.87,1.01,1.00
79.74,1.46,0.50,1.47,0.52,-0.57,-0.14,1.23,0.89,0.90,0.95
80.54,1.55,0.64,1.50,0.60,-0.66,-0.04,1.21,0.88,0.84,0.91
81.35,1.59,0.73,1.58,0.72,-0.74,0.06,1.19,0.85,0.84,0.85
82.16,1.59,0.78,1.58,0.77,-0.79,0.17,1.17,0.80,0.80,0.81
82.98,1.59,0.82,1.61,0.85,-0.82,0.29,1.16,0.76,0.78,0.77
83.81,1.59,0.87,1.63,0.91,-0.85,0.40,1.14,0.73,0.77,0.71
84.65,1.67,1.00,1.58,0.91,-0.87,0.51,1.13,0.79,0.71,0.67
85.50,1.52,0.89,1.47,0.85,-0.86,0.63,1.11,0.65,0.61,0.63
86.35,1.27,0.69,1.38,0.80,-0.82,0.73,1.10,0.45,0.56,0.58
87.22,1.21,0.68,1.21,0.69,-0.74,0.84,1.09,0.46,0.47,0.53
88.09,1.22,0.74,1.11,0.63,-0.64,0.94,1.07,0.58,0.47,0.48
88.97,0.89,0.46,0.99,0.57,-0.50,1.04,1.06,0.38,0.49,0.43
89.86,0.85,0.47,0.77,0.39,-0.34,1.14,1.05,0.50,0.43,0.37
90.76,0.51,0.18,0.49,0.16,-0.16,1.23,1.04,0.35,0.33,0.32
91.66,0.16,-0.12,0.23,-0.04,0.04,1.32,1.04,0.21,0.27,0.28
92.58,-0.07,-0.29,-0.06,-0.29,0.26,1.41,1.03,0.19,0.20,0.22
93.51,-0.30,-0.48,-0.34,-0.51,0.51,1.50,1.02,0.20,0.17,0.17
94.44,-0.64,-0.76,-0.65,-0.78,0.76,1.60,1.01,0.13,0.11,0.13
95.39,-1.06,-1.15,-1.04,-1.12,1.02,1.69,1.01,-0.04,-0.02,0.08
96.34,-1.49,-1.52,-1.52,-1.55,1.28,1.79,1.00,-0.21,-0.24,0.03
97.30,-2.00,-1.98,-2.02,-2.01,1.54,1.89,1.00,-0.46,-0.48,-0.02
98.28,-2.56,-2.50,-2.51,-2.45,1.80,2.00,0.99,-0.76,-0.71,-0.06
99.26,-2.94,-2.84,-2.95,-2.84,2.06,2.12,0.99,-0.88,-0.89,-0.11
100.25,-3.31,-3.15,-3.29,-3.14,2.32,2.25,0.99,-0.98,-0.97,-0.15
101.25,-3.57,-3.37,-3.56,-3.36,2.59,2.39,0.98,-0.97,-0.97,-0.20
102.27,-3.78,-3.54,-3.82,-3.57,2.89,2.54,0.98,-0.89,-0.93,-0.24
103.29,-4.03,-3.73,-4.02,-3.72,3.18,2.70,0.98,-0.85,-0.83,-0.30
104.32,-4.23,-3.90,-4.16,-3.82,3.45,2.86,0.97,-0.78,-0.71,-0.34
105.37,-4.30,-3.92,-4.36,-3.98,3.67,3.02,0.97,-0.63,-0.69,-0.38
106.42,-4.50,-4.08,-4.66,-4.23,3.84,3.13,0.97,-0.67,-0.82,-0.43
107.48,-5.04,-4.55,-4.96,-4.47,3.93,3.24,0.96,-1.11,-1.03,-0.49
108.56,-5.27,-4.73,-5.12,-4.58,3.94,3.25,0.96,-1.33,-1.18,-0.54
109.64,-5.08,-4.50,-5.07,-4.48,3.88,3.24,0.95,-1.21,-1.19,-0.59
110.74,-4.76,-4.12,-4.89,-4.25,3.74,3.13,0.95,-1.02,-1.15,-0.64
111.85,-4.65,-3.98,-4.74,-4.05,3.54,3.00,0.94,-1.12,-1.20,-0.68
112.97,-4.73,-3.99,-4.62,-3.88,3.29,2.81,0.94,-1.45,-1.33,-0.74
114.10,-4.54,-3.75,-4.48,-3.69,3.00,2.61,0.93,-1.54,-1.48,-0.79
115.24,-4.15,-3.31,-4.25,-3.41,2.70,2.41,0.92,-1.45,-1.55,-0.84
116.39,-3.92,-3.04,-3.90,-3.01,2.42,2.20,0.91,-1.51,-1.48,-0.89
117.55,-3.61,-2.69,-3.55,-2.63,2.16,2.01,0.90,-1.46,-1.40,-0.92
118.73,-3.14,-2.17,-3.21,-2.24,1.89,1.83,0.89,-1.24,-1.31,-0.97
119.92,-2.86,-1.86,-2.84,-1.84,1.63,1.67,0.87,-1.23,-1.21,-0.99
121.12,-2.51,-1.47,-2.50,-1.47,1.36,1.51,0.86,-1.15,-1.14,-1.03
122.33,-2.22,-1.15,-2.23,-1.17,1.10,1.38,0.84,-1.11,-1.13,-1.07
123.55,-1.96,-0.88,-1.96,-0.87,0.86,1.25,0.82,-1.10,-1.10,-1.09
124.79,-1.76,-0.64,-1.73,-0.61,0.64,1.14,0.80,-1.12,-1.09,-1.12
126.03,-1.49,-0.35,-1.52,-0.37,0.43,1.03,0.78,-1.07,-1.09,-1.15
127.29,-1.35,-0.19,-1.37,-0.20,0.23,0.93,0.75,-1.12,-1.14,-1.17
128.57,-1.25,-0.05,-1.26,-0.05,0.06,0.84,0.73,-1.19,-1.20,-1.21
129.85,-1.21,0.02,-1.17,0.06,-0.09,0.75,0.70,-1.31,-1.27,-1.24
131.15,-1.06,0.20,-1.08,0.18,-0.23,0.67,0.67,-1.29,-1.31,-1.27
132.46,-0.96,0.33,-0.96,0.33,-0.34,0.59,0.64,-1.30,-1.30,-1.29
133.79,-0.87,0.44,-0.85,0.47,-0.44,0.52,0.61,-1.31,-1.29,-1.32
135.12,-0.74,0.61,-0.79,0.55,-0.53,0.45,0.58,-1.27,-1.32,-1.36
136.48,-0.75,0.62,-0.75,0.63,-0.62,0.38,0.54,-1.37,-1.37,-1.37
137.84,-0.75,0.65,-0.71,0.69,-0.70,0.31,0.51,-1.45,-1.41,-1.40
139.22,-0.67,0.76,-0.69,0.74,-0.77,0.25,0.47,-1.45,-1.47,-1.44
140.61,-0.62,0.85,-0.64,0.82,-0.84,0.19,0.43,-1.47,-1.49,-1.47
142.02,-0.62,0.86,-0.59,0.90,-0.91,0.13,0.39,-1.53,-1.50,-1.48
143.44,-0.53,0.98,-0.55,0.97,-0.97,0.07,0.35,-1.50,-1.52,-1.51
144.87,-0.50,1.05,-0.52,1.03,-1.03,0.01,0.31,-1.54,-1.55,-1.55
146.32,-0.50,1.09,-0.50,1.09,-1.09,-0.04,0.26,-1.59,-1.58,-1.59
147.78,-0.50,1.12,-0.49,1.14,-1.14,-0.09,0.22,-1.64,-1.63,-1.62
149.26,-0.50,1.17,-0.51,1.17,-1.18,-0.15,0.17,-1.68,-1.68,-1.67
150.75,-0.51,1.22,-0.54,1.19,-1.20,-0.20,0.13,-1.72,-1.74,-1.74
152.26,-0.61,1.19,-0.60,1.20,-1.20,-0.25,0.08,-1.81,-1.80,-1.80
153.78,-0.69,1.18,-0.68,1.19,-1.17,-0.30,0.03,-1.86,-1.85,-1.87
155.32,-0.78,1.16,-0.79,1.16,-1.11,-0.35,-0.02,-1.89,-1.89,-1.94
156.88,-0.90,1.11,-0.92,1.10,-1.02,-0.39,-0.07,-1.93,-1.94,-2.02
158.44,-1.10,1.01,-1.12,0.99,-0.92,-0.44,-0.12,-2.02,-2.04,-2.10
160.03,-1.34,0.84,-1.33,0.85,-0.82,-0.48,-0.17,-2.17,-2.15,-2.18
161.63,-1.57,0.68,-1.56,0.69,-0.74,-0.53,-0.22,-2.31,-2.29,-2.26
163.24,-1.72,0.60,-1.74,0.58,-0.68,-0.57,-0.27,-2.39,-2.41,-2.32
164.88,-1.86,0.50,-1.83,0.53,-0.65,-0.61,-0.32,-2.52,-2.49,-2.37
166.53,-1.85,0.56,-1.84,0.57,-0.66,-0.66,-0.37,-2.52,-2.51,-2.41
168.19,-1.78,0.67,-1.79,0.67,-0.71,-0.70,-0.43,-2.50,-2.50,-2.45
169.87,-1.66,0.83,-1.67,0.81,-0.79,-0.74,-0.48,-2.46,-2.47,-2.49
171.57,-1.56,0.94,-1.56,0.95,-0.90,-0.78,-0.53,-2.46,-2.45,-2.51
173.29,-1.44,1.08,-1.46,1.06,-1.00,-0.82,-0.59,-2.45,-2.46,-2.52
175.02,-1.38,1.14,-1.39,1.14,-1.09,-0.85,-0.64,-2.48,-2.49,-2.53
176.77,-1.35,1.19,-1.34,1.21,-1.16,-0.89,-0.70,-2.52,-2.50,-2.54
178.54,-1.31,1.23,-1.30,1.25,-1.21,-0.93,-0.76,-2.53,-2.51,-2.55
180.32,-1.25,1.29,-1.29,1.25,-1.24,-0.96,-0.81,-2.50,-2.53,-2.54
182.13,-1.28,1.25,-1.31,1.23,-1.25,-1.00,-0.87,-2.54,-2.56,-2.53
183.95,-1.37,1.17,-1.32,1.22,-1.25,-1.03,-0.93,-2.62,-2.57,-2.55
185.79,-1.34,1.20,-1.33,1.22,-1.25,-1.07,-0.99,-2.59,-2.57,-2.55
187.65,-1.27,1.29,-1.32,1.24,-1.24,-1.10,-1.05,-2.52,-2.57,-2.57
189.52,-1.31,1.26,-1.32,1.26,-1.25,-1.13,-1.11,-2.56,-2.57,-2.58
191.42,-1.36,1.23,-1.34,1.26,-1.26,-1.16,-1.17,-2.62,-2.60,-2.60
193.33,-1.36,1.25,-1.36,1.25,-1.27,-1.19,-1.23,-2.64,-2.63,-2.62
195.27,-1.35,1.28,-1.36,1.28,-1.29,-1.22,-1.29,-2.64,-2.65,-2.63
197.22,-1.33,1.32,-1.34,1.32,-1.31,-1.25,-1.35,-2.64,-2.65,-2.65
199.19,-1.32,1.35,-1.33,1.35,-1.33,-1.28,-1.41,-2.66,-2.66,-2.68
201.18,-1.32,1.37,-1.32,1.37,-1.36,-1.31,-1.47,-2.68,-2.68,-2.70
203.19,-1.31,1.40,-1.32,1.39,-1.39,-1.34,-1.53,-2.71,-2.71,-2.71
205.23,-1.31,1.42,-1.31,1.42,-1.44,-1.37,-1.60,-2.75,-2.74,-2.74
207.28,-1.28,1.46,-1.28,1.47,-1.49,-1.40,-1.66,-2.77,-2.77,-2.74
209.35,-1.23,1.53,-1.25,1.52,-1.54,-1.42,-1.72,-2.78,-2.79,-2.77
211.44,-1.20,1.60,-1.19,1.60,-1.60,-1.45,-1.78,-2.81,-2.80,-2.80
213.56,-1.14,1.66,-1.13,1.68,-1.67,-1.48,-1.84,-2.81,-2.80,-2.81
215.69,-1.04,1.77,-1.07,1.75,-1.74,-1.50,-1.89,-2.78,-2.81,-2.82
217.85,-1.02,1.81,-1.01,1.82,-1.81,-1.52,-1.95,-2.84,-2.82,-2.83
220.03,-0.95,1.89,-0.96,1.89,-1.88,-1.55,-2.01,-2.84,-2.84,-2.84
222.23,-0.90,1.96,-0.91,1.95,-1.95,-1.57,-2.06,-2.86,-2.86,-2.87
224.45,-0.85,2.00,-0.85,2.01,-2.01,-1.60,-2.11,-2.87,-2.86,-2.86
226.70,-0.78,2.07,-0.79,2.06,-2.07,-1.62,-2.16,-2.85,-2.86,-2.86
228.96,-0.74,2.10,-0.73,2.11,-2.11,-1.64,-2.21,-2.86,-2.85,-2.85
231.25,-0.67,2.16,-0.68,2.16,-2.15,-1.66,-2.25,-2.83,-2.83,-2.84
233.57,-0.62,2.20,-0.63,2.20,-2.18,-1.68,-2.30,-2.81,-2.82,-2.83
235.90,-0.59,2.22,-0.60,2.22,-2.21,-1.71,-2.34,-2.81,-2.82,-2.82
238.26,-0.58,2.22,-0.58,2.23,-2.24,-1.73,-2.37,-2.83,-2.82,-2.81
240.64,-0.56,2.22,-0.54,2.24,-2.26,-1.75,-2.41,-2.82,-2.80,-2.79
243.05,-0.48,2.27,-0.50,2.26,-2.27,-1.77,-2.44,-2.76,-2.77,-2.76
245.48,-0.43,2.30,-0.44,2.29,-2.28,-1.79,-2.46,-2.71,-2.72,-2.73
247.93,-0.40,2.30,-0.40,2.31,-2.28,-1.81,-2.49,-2.69,-2.69,-2.70
250.41,-0.38,2.31,-0.38,2.30,-2.28,-1.82,-2.51,-2.67,-2.67,-2.69
252.92,-0.36,2.29,-0.37,2.29,-2.29,-1.84,-2.52,-2.65,-2.65,-2.66
255.45,-0.35,2.28,-0.36,2.28,-2.29,-1.86,-2.54,-2.65,-2.65,-2.64
258.00,-0.34,2.27,-0.34,2.27,-2.29,-1.88,-2.55,-2.64,-2.64,-2.61
260.58,-0.34,2.25,-0.32,2.27,-2.30,-1.90,-2.55,-2.64,-2.62,-2.60
263.19,-0.26,2.30,-0.29,2.29,-2.30,-1.91,-2.56,-2.56,-2.59,-2.57
265.82,-0.24,2.31,-0.24,2.31,-2.30,-1.93,-2.56,-2.55,-2.55,-2.55
268.48,-0.21,2.31,-0.20,2.32,-2.30,-1.94,-2.55,-2.52,-2.51,-2.53
271.16,-0.16,2.33,-0.18,2.32,-2.30,-1.96,-2.55,-2.47,-2.48,-2.49
273.87,-0.15,2.33,-0.16,2.32,-2.30,-1.98,-2.54,-2.45,-2.46,-2.48
276.61,-0.15,2.29,-0.15,2.30,-2.29,-1.99,-2.53,-2.44,-2.44,-2.45
279.38,-0.15,2.27,-0.15,2.27,-2.27,-2.01,-2.52,-2.43,-2.43,-2.42
282.17,-0.14,2.25,-0.15,2.24,-2.25,-2.02,-2.51,-2.40,-2.40,-2.40
284.99,-0.14,2.22,-0.14,2.22,-2.23,-2.04,-2.49,-2.37,-2.37,-2.36
287.84,-0.13,2.21,-0.14,2.21,-2.20,-2.05,-2.48,-2.34,-2.34,-2.35
290.72,-0.12,2.19,-0.13,2.19,-2.18,-2.06,-2.46,-2.31,-2.31,-2.31
293.63,-0.11,2.17,-0.11,2.17,-2.17,-2.08,-2.45,-2.28,-2.28,-2.28
296.57,-0.09,2.15,-0.10,2.15,-2.16,-2.09,-2.43,-2.26,-2.26,-2.25
299.53,-0.08,2.14,-0.09,2.14,-2.16,-2.10,-2.41,-2.24,-2.24,-2.22
302.53,-0.07,2.13,-0.06,2.14,-2.15,-2.11,-2.40,-2.23,-2.21,-2.21
305.55,-0.02,2.14,-0.02,2.15,-2.15,-2.13,-2.38,-2.17,-2.17,-2.16
308.61,0.04,2.18,0.02,2.16,-2.15,-2.14,-2.37,-2.11,-2.13,-2.14
311.69,0.06,2.17,0.05,2.16,-2.15,-2.15,-2.35,-2.09,-2.10,-2.12
314.81,0.06,2.15,0.06,2.16,-2.15,-2.16,-2.34,-2.09,-2.09,-2.09
317.96,0.06,2.13,0.06,2.13,-2.14,-2.17,-2.33,-2.09,-2.08,-2.07
321.14,0.06,2.12,0.06,2.12,-2.13,-2.18,-2.31,-2.07,-2.07,-2.07
324.35,0.06,2.11,0.06,2.11,-2.11,-2.19,-2.30,-2.05,-2.05,-2.05
327.59,0.06,2.09,0.06,2.10,-2.08,-2.20,-2.29,-2.03,-2.02,-2.03
330.87,0.06,2.08,0.05,2.08,-2.05,-2.21,-2.29,-2.00,-2.00,-2.03
334.18,0.06,2.06,0.03,2.04,-2.02,-2.22,-2.28,-1.97,-1.99,-2.01
337.52,-0.01,1.99,-0.00,2.00,-1.99,-2.23,-2.28,-2.01,-1.99,-2.00
340.90,-0.04,1.94,-0.03,1.95,-1.97,-2.24,-2.27,-2.01,-2.00,-1.98
344.30,-0.05,1.92,-0.06,1.92,-1.95,-2.25,-2.27,-2.00,-2.00,-1.98
347.75,-0.05,1.92,-0.06,1.92,-1.93,-2.26,-2.28,-1.99,-1.99,-1.98
351.23,-0.05,1.92,-0.06,1.91,-1.93,-2.27,-2.28,-1.99,-1.99,-1.97
354.74,-0.04,1.93,-0.05,1.92,-1.94,-2.28,-2.28,-1.98,-1.99,-1.97
358.28,-0.04,1.92,-0.02,1.95,-1.96,-2.28,-2.29,-2.00,-1.97,-1.97
361.87,0.04,2.00,0.02,1.98,-1.98,-2.29,-2.30,-1.94,-1.96,-1.97
365.49,0.07,2.02,0.05,2.02,-2.00,-2.30,-2.31,-1.93,-1.94,-1.96
369.14,0.08,2.05,0.08,2.05,-2.02,-2.31,-2.32,-1.94,-1.94,-1.97
372.83,0.09,2.06,0.09,2.06,-2.04,-2.31,-2.33,-1.96,-1.95,-1.97
376.56,0.10,2.07,0.09,2.06,-2.06,-2.32,-2.35,-1.97,-1.97,-1.97
380.33,0.10,2.06,0.10,2.07,-2.08,-2.33,-2.36,-1.99,-1.99,-1.97
384.13,0.11,2.07,0.10,2.08,-2.10,-2.33,-2.38,-2.00,-2.00,-1.97
387.97,0.12,2.10,0.12,2.10,-2.12,-2.34,-2.40,-2.01,-2.00,-1.98
391.85,0.15,2.14,0.15,2.14,-2.14,-2.34,-2.42,-2.00,-1.99,-1.99
395.77,0.20,2.18,0.19,2.17,-2.16,-2.35,-2.45,-1.97,-1.97,-1.98
399.73,0.22,2.21,0.21,2.20,-2.18,-2.35,-2.47,-1.96,-1.97,-1.99
403.72,0.22,2.21,0.22,2.21,-2.20,-2.36,-2.49,-1.98,-1.98,-2.00
407.76,0.21,2.21,0.21,2.22,-2.21,-2.36,-2.52,-2.00,-2.00,-2.01
411.84,0.21,2.21,0.20,2.21,-2.22,-2.37,-2.55,-2.01,-2.01,-2.01
415.96,0.21,2.21,0.21,2.22,-2.22,-2.37,-2.57,-2.02,-2.01,-2.01
420.12,0.21,2.22,0.21,2.22,-2.22,-2.38,-2.60,-2.02,-2.02,-2.01
424.32,0.22,2.23,0.21,2.22,-2.22,-2.38,-2.63,-2.01,-2.01,-2.01
428.56,0.21,2.21,0.22,2.22,-2.23,-2.38,-2.66,-2.02,-2.01,-2.00
432.85,0.24,2.23,0.23,2.23,-2.23,-2.38,-2.68,-2.00,-2.00,-1.99
437.18,0.27,2.25,0.26,2.24,-2.24,-2.39,-2.71,-1.98,-1.98,-1.98
441.55,0.30,2.24,0.30,2.25,-2.25,-2.39,-2.74,-1.96,-1.95,-1.95
445.96,0.35,2.26,0.34,2.26,-2.26,-2.39,-2.76,-1.92,-1.92,-1.92
450.42,0.40,2.28,0.40,2.28,-2.27,-2.39,-2.78,-1.88,-1.88,-1.89
454.93,0.46,2.29,0.46,2.30,-2.28,-2.40,-2.81,-1.83,-1.83,-1.84
459.48,0.52,2.30,0.51,2.30,-2.29,-2.40,-2.83,-1.78,-1.78,-1.79
464.07,0.58,2.32,0.57,2.31,-2.31,-2.40,-2.84,-1.73,-1.73,-1.74
468.71,0.63,2.31,0.63,2.32,-2.32,-2.40,-2.86,-1.70,-1.69,-1.68
473.40,0.70,2.34,0.68,2.32,-2.34,-2.40,-2.87,-1.64,-1.66,-1.64
