frequency,raw,error,smoothed,error_smoothed,equalization,parametric_eq,fixed_band_eq,equalized_raw,equalized_smoothed,target
20.00,3.12,-1.68,3.12,-1.67,1.67,2.31,0.94,4.79,4.80,4.80
20.20,3.09,-1.71,3.09,-1.71,1.71,2.31,0.97,4.80,4.80,4.80
20.40,3.05,-1.75,3.05,-1.75,1.75,2.30,1.00,4.80,4.80,4.80
20.61,3.02,-1.78,3.02,-1.78,1.78,2.30,1.03,4.80,4.80,4.80
20.81,2.99,-1.81,2.99,-1.81,1.81,2.30,1.06,4.80,4.80,4.80
21.02,2.96,-1.84,2.96,-1.83,1.83,2.30,1.09,4.79,4.79,4.80
21.23,2.93,-1.85,2.93,-1.85,1.85,2.30,1.12,4.78,4.78,4.78
21.44,2.89,-1.88,2.89,-1.87,1.87,2.30,1.16,4.76,4.76,4.77
21.66,2.85,-1.89,2.86,-1.89,1.89,2.29,1.19,4.74,4.75,4.75
21.87,2.82,-1.91,2.82,-1.91,1.90,2.29,1.23,4.72,4.73,4.72
22.09,2.80,-1.91,2.79,-1.92,1.91,2.29,1.26,4.71,4.71,4.71
22.31,2.76,-1.92,2.76,-1.92,1.92,2.29,1.30,4.68,4.69,4.68
22.54,2.73,-1.93,2.73,-1.93,1.93,2.29,1.34,4.66,4.66,4.66
22.76,2.71,-1.93,2.70,-1.93,1.93,2.29,1.38,4.64,4.64,4.64
22.99,2.68,-1.93,2.68,-1.93,1.94,2.28,1.42,4.62,4.62,4.61
23.22,2.65,-1.93,2.65,-1.93,1.94,2.28,1.46,4.59,4.59,4.58
23.45,2.63,-1.93,2.63,-1.94,1.94,2.28,1.50,4.57,4.57,4.56
23.69,2.60,-1.95,2.61,-1.94,1.94,2.28,1.54,4.55,4.55,4.55
23.92,2.59,-1.94,2.59,-1.95,1.95,2.28,1.59,4.54,4.53,4.53
24.16,2.57,-1.95,2.56,-1.95,1.95,2.27,1.63,4.52,4.51,4.52
24.40,2.54,-1.96,2.54,-1.95,1.95,2.27,1.68,4.49,4.50,4.50
24.65,2.52,-1.96,2.52,-1.96,1.95,2.27,1.72,4.48,4.48,4.48
24.89,2.51,-1.95,2.51,-1.96,1.96,2.27,1.77,4.47,4.46,4.46
25.14,2.49,-1.96,2.49,-1.96,1.96,2.27,1.82,4.45,4.45,4.45
25.39,2.47,-1.96,2.47,-1.96,1.96,2.26,1.86,4.43,4.43,4.43
25.65,2.45,-1.97,2.45,-1.96,1.96,2.26,1.91,4.41,4.41,4.42
25.91,2.43,-1.96,2.43,-1.97,1.97,2.26,1.96,4.40,4.40,4.39
26.16,2.40,-1.98,2.40,-1.97,1.98,2.26,2.01,4.38,4.38,4.38
26.43,2.38,-1.99,2.38,-1.98,1.98,2.25,2.05,4.36,4.36,4.37
26.69,2.36,-1.99,2.36,-1.99,1.99,2.25,2.10,4.35,4.35,4.35
26.96,2.33,-2.01,2.33,-2.00,2.00,2.25,2.14,4.33,4.34,4.34
27.23,2.31,-2.01,2.31,-2.02,2.02,2.25,2.19,4.33,4.32,4.32
27.50,2.28,-2.03,2.28,-2.03,2.03,2.24,2.23,4.31,4.31,4.31
27.77,2.25,-2.04,2.25,-2.04,2.04,2.24,2.27,4.29,4.29,4.29
28.05,2.23,-2.05,2.23,-2.05,2.05,2.24,2.31,4.28,4.28,4.28
28.33,2.20,-2.06,2.20,-2.06,2.06,2.23,2.35,4.26,4.27,4.26
28.62,2.18,-2.07,2.18,-2.07,2.08,2.23,2.38,4.26,4.25,4.25
28.90,2.15,-2.09,2.15,-2.09,2.09,2.23,2.42,4.24,4.24,4.24
29.19,2.12,-2.10,2.12,-2.10,2.10,2.22,2.45,4.22,4.23,4.22
29.48,2.10,-2.12,2.10,-2.12,2.11,2.22,2.48,4.21,4.21,4.22
29.78,2.08,-2.13,2.08,-2.13,2.13,2.22,2.50,4.21,4.20,4.21
30.08,2.05,-2.15,2.05,-2.14,2.14,2.21,2.52,4.19,4.19,4.20
30.38,2.02,-2.16,2.03,-2.15,2.15,2.21,2.54,4.17,4.18,4.18
30.68,2.00,-2.16,2.00,-2.16,2.16,2.21,2.56,4.16,4.16,4.16
30.99,1.98,-2.16,1.97,-2.17,2.18,2.20,2.57,4.16,4.15,4.14
31.30,1.94,-2.19,1.95,-2.19,2.19,2.20,2.58,4.13,4.14,4.13
31.61,1.91,-2.21,1.91,-2.20,2.20,2.19,2.58,4.11,4.11,4.12
31.93,1.88,-2.22,1.88,-2.22,2.22,2.19,2.58,4.10,4.09,4.10
32.24,1.84,-2.23,1.84,-2.23,2.23,2.19,2.58,4.07,4.08,4.07
32.57,1.81,-2.25,1.81,-2.25,2.25,2.18,2.57,4.06,4.06,4.06
32.89,1.77,-2.27,1.77,-2.26,2.27,2.18,2.56,4.04,4.04,4.04
33.22,1.74,-2.27,1.74,-2.28,2.28,2.17,2.55,4.02,4.02,4.01
33.55,1.70,-2.30,1.70,-2.30,2.30,2.17,2.54,4.00,4.00,4.00
33.89,1.66,-2.32,1.66,-2.32,2.31,2.16,2.52,3.97,3.98,3.98
34.23,1.63,-2.33,1.63,-2.33,2.33,2.16,2.50,3.96,3.96,3.96
34.57,1.59,-2.35,1.59,-2.34,2.34,2.15,2.48,3.93,3.94,3.94
34.92,1.56,-2.35,1.56,-2.36,2.36,2.15,2.45,3.92,3.92,3.92
35.27,1.53,-2.37,1.53,-2.37,2.37,2.14,2.43,3.90,3.90,3.90
35.62,1.50,-2.38,1.50,-2.38,2.38,2.14,2.40,3.88,3.88,3.88
35.97,1.47,-2.39,1.47,-2.39,2.39,2.13,2.37,3.86,3.86,3.86
36.33,1.45,-2.40,1.44,-2.40,2.40,2.12,2.34,3.85,3.84,3.85
36.70,1.41,-2.41,1.42,-2.41,2.40,2.12,2.32,3.81,3.82,3.82
37.06,1.40,-2.40,1.40,-2.41,2.41,2.11,2.29,3.81,3.80,3.80
37.43,1.38,-2.41,1.38,-2.41,2.41,2.11,2.25,3.79,3.79,3.79
37.81,1.36,-2.41,1.36,-2.41,2.41,2.10,2.22,3.77,3.77,3.77
38.19,1.34,-2.40,1.34,-2.41,2.41,2.09,2.19,3.75,3.75,3.74
38.57,1.32,-2.41,1.32,-2.41,2.40,2.09,2.16,3.72,3.73,3.73
38.95,1.31,-2.40,1.31,-2.40,2.40,2.08,2.14,3.71,3.71,3.71
39.34,1.29,-2.40,1.29,-2.39,2.40,2.07,2.11,3.69,3.69,3.69
39.74,1.28,-2.38,1.28,-2.39,2.39,2.06,2.08,3.67,3.67,3.66
40.14,1.26,-2.40,1.26,-2.39,2.39,2.06,2.05,3.65,3.65,3.66
40.54,1.24,-2.40,1.25,-2.39,2.39,2.05,2.03,3.63,3.64,3.64
40.94,1.24,-2.38,1.23,-2.39,2.39,2.04,2.00,3.63,3.62,3.62
41.35,1.22,-2.38,1.22,-2.38,2.39,2.03,1.98,3.61,3.61,3.60
41.76,1.21,-2.39,1.21,-2.38,2.39,2.02,1.96,3.60,3.60,3.60
42.18,1.19,-2.39,1.19,-2.39,2.39,2.01,1.94,3.58,3.58,3.58
42.60,1.17,-2.39,1.17,-2.39,2.39,2.00,1.92,3.56,3.56,3.56
43.03,1.16,-2.39,1.16,-2.39,2.38,2.00,1.90,3.54,3.54,3.55
43.46,1.14,-2.39,1.15,-2.38,2.38,1.99,1.88,3.52,3.53,3.53
43.90,1.14,-2.36,1.13,-2.38,2.38,1.98,1.87,3.52,3.51,3.50
44.33,1.12,-2.37,1.12,-2.37,2.37,1.97,1.85,3.49,3.49,3.49
44.78,1.10,-2.37,1.11,-2.36,2.36,1.96,1.84,3.46,3.47,3.47
45.23,1.10,-2.35,1.09,-2.36,2.36,1.94,1.83,3.46,3.45,3.45
45.68,1.08,-2.35,1.09,-2.35,2.35,1.93,1.82,3.43,3.44,3.43
46.13,1.08,-2.34,1.08,-2.34,2.35,1.92,1.82,3.43,3.43,3.42
46.60,1.07,-2.34,1.07,-2.34,2.34,1.91,1.81,3.41,3.41,3.41
47.06,1.06,-2.34,1.06,-2.34,2.34,1.90,1.81,3.40,3.40,3.40
47.53,1.05,-2.33,1.05,-2.34,2.33,1.89,1.80,3.38,3.38,3.38
48.01,1.04,-2.33,1.04,-2.33,2.32,1.87,1.80,3.36,3.36,3.37
48.49,1.03,-2.32,1.03,-2.32,2.31,1.86,1.80,3.34,3.34,3.35
48.97,1.02,-2.30,1.02,-2.30,2.30,1.85,1.80,3.32,3.32,3.32
49.46,1.01,-2.28,1.01,-2.29,2.29,1.83,1.80,3.30,3.30,3.29
49.96,1.00,-2.27,1.00,-2.27,2.28,1.82,1.80,3.28,3.28,3.27
50.46,1.00,-2.27,1.00,-2.26,2.26,1.81,1.81,3.26,3.26,3.27
50.96,1.00,-2.25,1.00,-2.25,2.25,1.79,1.81,3.25,3.24,3.25
51.47,1.00,-2.22,1.00,-2.23,2.23,1.78,1.81,3.23,3.23,3.22
51.99,1.00,-2.20,1.00,-2.21,2.21,1.76,1.82,3.21,3.21,3.20
52.51,1.00,-2.20,1.00,-2.19,2.19,1.74,1.82,3.19,3.19,3.20
53.03,1.01,-2.17,1.01,-2.17,2.16,1.73,1.82,3.17,3.17,3.18
53.56,1.02,-2.14,1.02,-2.14,2.14,1.71,1.83,3.16,3.16,3.16
54.10,1.03,-2.11,1.03,-2.11,2.11,1.69,1.83,3.14,3.14,3.14
54.64,1.04,-2.08,1.04,-2.08,2.08,1.67,1.83,3.12,3.12,3.12
55.18,1.05,-2.05,1.05,-2.05,2.05,1.66,1.84,3.10,3.10,3.10
55.74,1.07,-2.01,1.07,-2.01,2.01,1.64,1.84,3.08,3.08,3.08
56.29,1.08,-1.98,1.08,-1.98,1.98,1.62,1.84,3.06,3.06,3.06
56.86,1.10,-1.94,1.10,-1.94,1.94,1.60,1.84,3.04,3.04,3.04
57.42,1.12,-1.90,1.12,-1.91,1.91,1.58,1.83,3.03,3.02,3.02
58.00,1.14,-1.87,1.14,-1.86,1.87,1.55,1.83,3.01,3.01,3.01
58.58,1.16,-1.83,1.16,-1.83,1.83,1.53,1.82,2.99,2.99,2.99
59.16,1.19,-1.78,1.19,-1.79,1.79,1.51,1.81,2.98,2.97,2.97
59.76,1.21,-1.75,1.21,-1.75,1.74,1.49,1.80,2.95,2.95,2.96
60.35,1.24,-1.70,1.24,-1.70,1.69,1.46,1.78,2.93,2.93,2.94
60.96,1.27,-1.66,1.27,-1.65,1.64,1.44,1.77,2.91,2.91,2.93
61.57,1.30,-1.60,1.30,-1.60,1.59,1.41,1.75,2.89,2.90,2.90
62.18,1.34,-1.53,1.34,-1.54,1.54,1.39,1.72,2.88,2.88,2.87
62.80,1.37,-1.48,1.37,-1.48,1.49,1.36,1.70,2.86,2.86,2.85
63.43,1.40,-1.43,1.40,-1.43,1.44,1.34,1.67,2.84,2.84,2.83
64.07,1.43,-1.38,1.43,-1.38,1.38,1.31,1.64,2.81,2.82,2.81
64.71,1.47,-1.33,1.47,-1.33,1.33,1.28,1.60,2.80,2.80,2.80
65.35,1.50,-1.29,1.50,-1.29,1.28,1.25,1.56,2.78,2.78,2.79
66.01,1.54,-1.24,1.54,-1.23,1.23,1.22,1.52,2.77,2.77,2.78
66.67,1.58,-1.18,1.58,-1.18,1.18,1.19,1.48,2.76,2.76,2.76
67.33,1.62,-1.13,1.62,-1.13,1.13,1.16,1.43,2.75,2.75,2.75
68.01,1.66,-1.07,1.66,-1.07,1.07,1.13,1.38,2.73,2.73,2.73
68.69,1.70,-1.02,1.70,-1.02,1.02,1.09,1.33,2.72,2.72,2.72
69.37,1.73,-0.97,1.73,-0.97,0.97,1.06,1.28,2.70,2.70,2.70
70.07,1.77,-0.91,1.77,-0.91,0.91,1.03,1.22,2.68,2.68,2.68
70.77,1.81,-0.86,1.81,-0.86,0.86,0.99,1.17,2.67,2.66,2.67
71.48,1.85,-0.80,1.85,-0.80,0.80,0.95,1.11,2.65,2.65,2.65
72.19,1.88,-0.76,1.89,-0.74,0.75,0.92,1.05,2.63,2.63,2.64
72.91,1.93,-0.68,1.92,-0.69,0.69,0.88,0.98,2.62,2.61,2.61
73.64,1.96,-0.63,1.96,-0.63,0.63,0.84,0.92,2.59,2.59,2.59
74.38,1.99,-0.58,1.99,-0.57,0.57,0.80,0.86,2.56,2.57,2.57
75.12,2.03,-0.50,2.03,-0.51,0.51,0.76,0.79,2.54,2.54,2.54
75.87,2.06,-0.46,2.06,-0.46,0.46,0.72,0.72,2.52,2.52,2.52
76.63,2.10,-0.40,2.10,-0.40,0.40,0.68,0.66,2.50,2.50,2.50
77.40,2.13,-0.34,2.13,-0.34,0.34,0.63,0.59,2.47,2.47,2.47
78.17,2.16,-0.27,2.16,-0.28,0.28,0.59,0.52,2.44,2.45,2.44
78.95,2.20,-0.23,2.19,-0.23,0.23,0.54,0.45,2.43,2.42,2.43
79.74,2.22,-0.18,2.22,-0.17,0.17,0.50,0.38,2.39,2.39,2.40
80.54,2.25,-0.12,2.25,-0.11,0.11,0.45,0.31,2.36,2.36,2.37
81.35,2.29,-0.05,2.29,-0.05,0.05,0.40,0.23,2.34,2.34,2.34
82.16,2.32,0.02,2.32,0.01,-0.01,0.35,0.16,2.31,2.31,2.30
82.98,2.35,0.07,2.35,0.07,-0.07,0.30,0.09,2.28,2.28,2.28
83.81,2.37,0.13,2.37,0.13,-0.13,0.25,0.02,2.24,2.25,2.24
84.65,2.39,0.18,2.39,0.18,-0.18,0.20,-0.05,2.21,2.21,2.21
85.50,2.42,0.24,2.42,0.24,-0.24,0.15,-0.13,2.18,2.18,2.18
86.35,2.44,0.29,2.44,0.29,-0.29,0.10,-0.20,2.15,2.15,2.15
87.22,2.46,0.34,2.46,0.34,-0.34,0.04,-0.28,2.12,2.12,2.12
88.09,2.48,0.40,2.48,0.39,-0.40,-0.01,-0.35,2.08,2.08,2.08
88.97,2.50,0.44,2.50,0.45,-0.45,-0.07,-0.42,2.05,2.05,2.06
89.86,2.51,0.49,2.51,0.50,-0.50,-0.13,-0.50,2.01,2.01,2.02
90.76,2.53,0.56,2.53,0.55,-0.55,-0.19,-0.57,1.98,1.98,1.97
91.66,2.54,0.59,2.54,0.60,-0.60,-0.24,-0.65,1.94,1.94,1.95
92.58,2.56,0.66,2.56,0.65,-0.65,-0.30,-0.73,1.91,1.91,1.90
93.51,2.57,0.69,2.57,0.69,-0.69,-0.36,-0.80,1.88,1.88,1.88
94.44,2.59,0.74,2.59,0.74,-0.74,-0.42,-0.88,1.85,1.84,1.85
95.39,2.59,0.78,2.59,0.79,-0.79,-0.48,-0.95,1.80,1.80,1.81
96.34,2.60,0.84,2.60,0.83,-0.84,-0.55,-1.03,1.76,1.76,1.76
97.30,2.60,0.88,2.60,0.88,-0.88,-0.61,-1.11,1.72,1.72,1.72
98.28,2.61,0.93,2.61,0.93,-0.93,-0.67,-1.18,1.68,1.68,1.68
99.26,2.62,0.99,2.62,0.98,-0.98,-0.74,-1.26,1.64,1.64,1.63
100.25,2.62,1.03,2.62,1.03,-1.03,-0.80,-1.34,1.59,1.60,1.59
101.25,2.63,1.08,2.63,1.08,-1.07,-0.87,-1.41,1.56,1.55,1.55
102.27,2.63,1.12,2.63,1.12,-1.12,-0.93,-1.49,1.51,1.51,1.51
103.29,2.63,1.17,2.63,1.17,-1.17,-1.00,-1.56,1.46,1.46,1.46
104.32,2.64,1.22,2.64,1.22,-1.22,-1.06,-1.64,1.42,1.42,1.42
105.37,2.64,1.26,2.64,1.27,-1.27,-1.13,-1.71,1.37,1.37,1.38
106.42,2.64,1.31,2.64,1.31,-1.32,-1.19,-1.78,1.32,1.32,1.33
107.48,2.65,1.37,2.65,1.37,-1.37,-1.26,-1.85,1.28,1.28,1.28
108.56,2.65,1.42,2.65,1.42,-1.42,-1.32,-1.92,1.23,1.23,1.23
109.64,2.66,1.48,2.66,1.48,-1.48,-1.39,-1.98,1.18,1.19,1.18
110.74,2.67,1.53,2.67,1.53,-1.53,-1.46,-2.05,1.14,1.13,1.14
111.85,2.67,1.58,2.67,1.58,-1.59,-1.52,-2.11,1.08,1.08,1.09
112.97,2.67,1.65,2.67,1.64,-1.64,-1.59,-2.16,1.03,1.03,1.02
114.10,2.68,1.69,2.68,1.70,-1.70,-1.65,-2.22,0.98,0.98,0.99
115.24,2.69,1.75,2.69,1.76,-1.75,-1.71,-2.27,0.94,0.93,0.94
116.39,2.69,1.81,2.69,1.81,-1.80,-1.78,-2.32,0.89,0.89,0.88
117.55,2.69,1.86,2.69,1.86,-1.85,-1.84,-2.36,0.84,0.84,0.83
118.73,2.69,1.91,2.69,1.90,-1.90,-1.90,-2.40,0.79,0.79,0.78
119.92,2.69,1.94,2.69,1.95,-1.95,-1.96,-2.44,0.74,0.74,0.75
121.12,2.69,1.99,2.69,1.99,-1.99,-2.02,-2.47,0.70,0.70,0.70
122.33,2.69,2.04,2.69,2.03,-2.03,-2.08,-2.49,0.66,0.66,0.65
123.55,2.69,2.07,2.69,2.08,-2.08,-2.14,-2.51,0.61,0.61,0.62
124.79,2.69,2.12,2.69,2.11,-2.12,-2.19,-2.53,0.57,0.57,0.57
126.03,2.69,2.15,2.69,2.15,-2.16,-2.24,-2.54,0.53,0.53,0.54
127.29,2.68,2.19,2.68,2.20,-2.20,-2.30,-2.54,0.48,0.49,0.49
128.57,2.68,2.24,2.68,2.23,-2.23,-2.35,-2.55,0.45,0.45,0.44
129.85,2.68,2.27,2.68,2.27,-2.27,-2.39,-2.54,0.41,0.41,0.41
131.15,2.67,2.30,2.67,2.31,-2.30,-2.44,-2.54,0.37,0.37,0.37
132.46,2.67,2.34,2.67,2.33,-2.33,-2.48,-2.52,0.34,0.34,0.33
133.79,2.66,2.35,2.66,2.36,-2.36,-2.52,-2.51,0.30,0.30,0.31
135.12,2.65,2.38,2.65,2.38,-2.38,-2.56,-2.49,0.27,0.27,0.27
136.48,2.64,2.39,2.64,2.39,-2.40,-2.60,-2.46,0.24,0.24,0.25
137.84,2.63,2.40,2.63,2.42,-2.42,-2.63,-2.43,0.21,0.21,0.23
139.22,2.62,2.43,2.62,2.43,-2.43,-2.66,-2.41,0.19,0.19,0.19
140.61,2.61,2.45,2.61,2.44,-2.44,-2.69,-2.37,0.17,0.17,0.16
142.02,2.60,2.44,2.60,2.45,-2.45,-2.71,-2.34,0.15,0.15,0.16
143.44,2.59,2.45,2.59,2.45,-2.45,-2.73,-2.30,0.14,0.13,0.14
144.87,2.57,2.46,2.57,2.46,-2.46,-2.75,-2.26,0.11,0.12,0.11
146.32,2.56,2.46,2.56,2.46,-2.46,-2.77,-2.22,0.10,0.10,0.10
147.78,2.55,2.46,2.55,2.46,-2.46,-2.78,-2.18,0.09,0.08,0.09
149.26,2.53,2.46,2.53,2.46,-2.46,-2.79,-2.13,0.07,0.07,0.07
150.75,2.51,2.46,2.51,2.46,-2.46,-2.79,-2.09,0.05,0.05,0.05
152.26,2.49,2.46,2.49,2.45,-2.45,-2.79,-2.05,0.04,0.04,0.03
153.78,2.47,2.45,2.47,2.45,-2.45,-2.79,-2.00,0.02,0.02,0.02
155.32,2.45,2.44,2.45,2.44,-2.44,-2.79,-1.96,0.01,0.00,0.01
156.88,2.43,2.44,2.43,2.44,-2.44,-2.78,-1.92,-0.01,-0.01,-0.01
158.44,2.40,2.43,2.40,2.43,-2.43,-2.77,-1.87,-0.03,-0.03,-0.03
160.03,2.38,2.43,2.38,2.43,-2.42,-2.75,-1.83,-0.04,-0.05,-0.05
161.63,2.35,2.42,2.35,2.42,-2.42,-2.73,-1.79,-0.07,-0.06,-0.07
163.24,2.33,2.41,2.33,2.41,-2.41,-2.71,-1.75,-0.08,-0.08,-0.08
164.88,2.30,2.39,2.30,2.39,-2.39,-2.68,-1.71,-0.09,-0.09,-0.09
166.53,2.27,2.38,2.27,2.38,-2.38,-2.66,-1.67,-0.11,-0.11,-0.11
168.19,2.24,2.38,2.24,2.37,-2.37,-2.62,-1.63,-0.13,-0.13,-0.14
169.87,2.20,2.36,2.20,2.36,-2.36,-2.59,-1.59,-0.16,-0.15,-0.16
171.57,2.17,2.34,2.17,2.34,-2.34,-2.55,-1.55,-0.17,-0.17,-0.17
173.29,2.13,2.32,2.13,2.33,-2.33,-2.51,-1.52,-0.20,-0.20,-0.19
175.02,2.10,2.32,2.09,2.31,-2.32,-2.47,-1.48,-0.22,-0.22,-0.22
176.77,2.05,2.30,2.06,2.31,-2.30,-2.43,-1.45,-0.25,-0.25,-0.25
178.54,2.02,2.30,2.02,2.29,-2.29,-2.38,-1.42,-0.27,-0.27,-0.28
180.32,1.98,2.28,1.98,2.28,-2.28,-2.33,-1.39,-0.30,-0.31,-0.30
182.13,1.93,2.26,1.93,2.27,-2.27,-2.28,-1.36,-0.34,-0.33,-0.33
183.95,1.89,2.25,1.89,2.25,-2.25,-2.22,-1.33,-0.36,-0.36,-0.36
185.79,1.85,2.24,1.85,2.24,-2.24,-2.17,-1.30,-0.39,-0.39,-0.39
187.65,1.81,2.23,1.81,2.22,-2.22,-2.11,-1.28,-0.41,-0.41,-0.42
189.52,1.76,2.20,1.76,2.21,-2.20,-2.05,-1.25,-0.44,-0.44,-0.44
191.42,1.72,2.19,1.72,2.18,-2.18,-1.99,-1.23,-0.46,-0.46,-0.47
193.33,1.68,2.16,1.68,2.15,-2.16,-1.93,-1.21,-0.48,-0.49,-0.48
195.27,1.63,2.13,1.63,2.13,-2.14,-1.87,-1.19,-0.51,-0.51,-0.50
197.22,1.58,2.10,1.59,2.11,-2.11,-1.81,-1.16,-0.53,-0.52,-0.52
199.19,1.54,2.10,1.54,2.09,-2.08,-1.74,-1.14,-0.54,-0.55,-0.56
201.18,1.49,2.06,1.49,2.06,-2.05,-1.68,-1.13,-0.56,-0.57,-0.57
203.19,1.43,2.01,1.44,2.02,-2.02,-1.61,-1.11,-0.59,-0.59,-0.58
205.23,1.38,1.98,1.38,1.98,-1.99,-1.54,-1.09,-0.61,-0.60,-0.60
207.28,1.34,1.94,1.33,1.94,-1.95,-1.48,-1.07,-0.61,-0.62,-0.60
209.35,1.28,1.91,1.28,1.91,-1.91,-1.41,-1.06,-0.63,-0.63,-0.63
211.44,1.23,1.88,1.23,1.87,-1.87,-1.34,-1.04,-0.64,-0.64,-0.65
213.56,1.17,1.83,1.17,1.82,-1.82,-1.27,-1.02,-0.65,-0.65,-0.66
215.69,1.11,1.77,1.11,1.77,-1.77,-1.20,-1.01,-0.66,-0.66,-0.66
217.85,1.04,1.70,1.04,1.71,-1.72,-1.13,-0.99,-0.68,-0.67,-0.66
220.03,0.98,1.66,0.98,1.66,-1.66,-1.07,-0.98,-0.68,-0.68,-0.68
222.23,0.93,1.62,0.92,1.60,-1.60,-1.00,-0.96,-0.67,-0.68,-0.69
224.45,0.86,1.54,0.86,1.55,-1.54,-0.93,-0.95,-0.68,-0.68,-0.68
226.70,0.79,1.47,0.80,1.48,-1.47,-0.86,-0.93,-0.68,-0.68,-0.68
228.96,0.74,1.42,0.73,1.41,-1.41,-0.79,-0.92,-0.67,-0.68,-0.68
231.25,0.67,1.34,0.67,1.34,-1.34,-0.72,-0.90,-0.67,-0.67,-0.67
233.57,0.60,1.25,0.61,1.26,-1.27,-0.66,-0.88,-0.67,-0.66,-0.65
235.90,0.54,1.19,0.54,1.19,-1.19,-0.59,-0.87,-0.65,-0.65,-0.65
238.26,0.49,1.13,0.48,1.12,-1.12,-0.52,-0.85,-0.63,-0.64,-0.64
240.64,0.42,1.04,0.43,1.05,-1.04,-0.46,-0.83,-0.62,-0.62,-0.62
243.05,0.37,0.98,0.36,0.97,-0.97,-0.39,-0.81,-0.60,-0.60,-0.61
245.48,0.30,0.88,0.30,0.89,-0.89,-0.33,-0.79,-0.59,-0.59,-0.58
247.93,0.24,0.81,0.25,0.81,-0.81,-0.26,-0.77,-0.57,-0.56,-0.57
250.41,0.19,0.74,0.19,0.73,-0.73,-0.20,-0.75,-0.54,-0.54,-0.55
252.92,0.13,0.64,0.13,0.64,-0.64,-0.13,-0.72,-0.51,-0.52,-0.51
255.45,0.06,0.55,0.07,0.56,-0.56,-0.07,-0.70,-0.50,-0.49,-0.49
258.00,-0.00,0.46,0.00,0.47,-0.47,-0.01,-0.67,-0.47,-0.47,-0.46
260.58,-0.05,0.40,-0.06,0.39,-0.39,0.05,-0.65,-0.44,-0.45,-0.45
263.19,-0.12,0.30,-0.12,0.30,-0.30,0.11,-0.62,-0.42,-0.42,-0.42
265.82,-0.18,0.22,-0.18,0.22,-0.21,0.18,-0.59,-0.39,-0.39,-0.40
268.48,-0.24,0.13,-0.24,0.13,-0.12,0.24,-0.56,-0.36,-0.37,-0.37
271.16,-0.30,0.03,-0.30,0.03,-0.04,0.30,-0.53,-0.34,-0.34,-0.33
273.87,-0.37,-0.05,-0.37,-0.06,0.05,0.35,-0.50,-0.32,-0.31,-0.32
276.61,-0.43,-0.15,-0.43,-0.15,0.14,0.41,-0.47,-0.29,-0.29,-0.28
279.38,-0.49,-0.23,-0.49,-0.23,0.23,0.47,-0.44,-0.26,-0.26,-0.26
282.17,-0.56,-0.32,-0.56,-0.32,0.32,0.53,-0.41,-0.24,-0.23,-0.24
284.99,-0.62,-0.41,-0.62,-0.41,0.41,0.59,-0.37,-0.21,-0.21,-0.21
287.84,-0.69,-0.51,-0.68,-0.51,0.50,0.64,-0.34,-0.19,-0.18,-0.18
290.72,-0.74,-0.60,-0.74,-0.59,0.59,0.70,-0.30,-0.15,-0.15,-0.14
293.63,-0.80,-0.67,-0.80,-0.68,0.68,0.76,-0.26,-0.12,-0.12,-0.13
296.57,-0.86,-0.77,-0.86,-0.77,0.77,0.81,-0.23,-0.09,-0.09,-0.09
299.53,-0.92,-0.86,-0.92,-0.86,0.86,0.87,-0.19,-0.06,-0.06,-0.06
302.53,-0.98,-0.95,-0.98,-0.95,0.95,0.93,-0.15,-0.03,-0.03,-0.03
305.55,-1.03,-1.04,-1.03,-1.04,1.04,0.98,-0.12,0.01,0.01,0.01
308.61,-1.08,-1.12,-1.08,-1.13,1.13,1.04,-0.08,0.05,0.04,0.04
311.69,-1.14,-1.22,-1.13,-1.22,1.21,1.09,-0.04,0.07,0.08,0.08
314.81,-1.18,-1.30,-1.19,-1.30,1.30,1.15,0.00,0.12,0.11,0.12
317.96,-1.24,-1.39,-1.24,-1.38,1.38,1.20,0.04,0.14,0.15,0.15
321.14,-1.28,-1.45,-1.28,-1.46,1.46,1.26,0.08,0.18,0.18,0.17
324.35,-1.33,-1.53,-1.33,-1.54,1.53,1.32,0.12,0.20,0.21,0.20
327.59,-1.37,-1.61,-1.37,-1.61,1.61,1.37,0.16,0.24,0.23,0.24
330.87,-1.41,-1.68,-1.41,-1.68,1.67,1.43,0.20,0.26,0.26,0.27
334.18,-1.45,-1.74,-1.44,-1.74,1.74,1.48,0.24,0.29,0.29,0.29
337.52,-1.47,-1.79,-1.48,-1.79,1.80,1.54,0.29,0.33,0.32,0.32
340.90,-1.51,-1.86,-1.51,-1.85,1.85,1.60,0.33,0.34,0.34,0.35
344.30,-1.54,-1.90,-1.54,-1.91,1.90,1.65,0.37,0.36,0.37,0.36
347.75,-1.57,-1.96,-1.57,-1.96,1.95,1.70,0.41,0.38,0.39,0.39
351.23,-1.58,-1.99,-1.58,-2.00,1.99,1.76,0.46,0.41,0.41,0.41
354.74,-1.60,-2.03,-1.60,-2.03,2.03,1.81,0.50,0.43,0.43,0.43
358.28,-1.61,-2.06,-1.61,-2.06,2.06,1.86,0.55,0.45,0.45,0.45
361.87,-1.62,-2.09,-1.62,-2.09,2.09,1.91,0.59,0.47,0.47,0.47
365.49,-1.62,-2.12,-1.62,-2.11,2.11,1.95,0.64,0.49,0.49,0.50
369.14,-1.62,-2.13,-1.62,-2.13,2.13,1.99,0.68,0.51,0.51,0.51
372.83,-1.62,-2.14,-1.61,-2.14,2.14,2.03,0.73,0.52,0.53,0.52
376.56,-1.60,-2.14,-1.60,-2.15,2.15,2.06,0.77,0.55,0.55,0.54
380.33,-1.59,-2.16,-1.59,-2.16,2.16,2.09,0.82,0.57,0.57,0.57
384.13,-1.57,-2.16,-1.57,-2.16,2.16,2.11,0.87,0.59,0.59,0.59
387.97,-1.56,-2.17,-1.56,-2.17,2.17,2.13,0.91,0.61,0.61,0.61
391.85,-1.53,-2.16,-1.53,-2.17,2.16,2.14,0.96,0.63,0.63,0.63
395.77,-1.51,-2.17,-1.51,-2.16,2.16,2.15,1.01,0.65,0.65,0.66
399.73,-1.47,-2.15,-1.47,-2.15,2.15,2.15,1.05,0.68,0.68,0.68
403.72,-1.44,-2.14,-1.44,-2.14,2.14,2.14,1.10,0.70,0.70,0.70
407.76,-1.41,-2.13,-1.41,-2.13,2.13,2.13,1.15,0.72,0.72,0.72
411.84,-1.38,-2.13,-1.37,-2.12,2.12,2.12,1.19,0.74,0.74,0.75
415.96,-1.33,-2.10,-1.33,-2.10,2.10,2.10,1.24,0.77,0.77,0.77
420.12,-1.29,-2.08,-1.29,-2.08,2.08,2.08,1.29,0.79,0.79,0.79
424.32,-1.25,-2.06,-1.25,-2.06,2.06,2.06,1.33,0.81,0.81,0.81
428.56,-1.21,-2.04,-1.21,-2.04,2.04,2.04,1.38,0.83,0.83,0.83
432.85,-1.16,-2.01,-1.16,-2.02,2.02,2.01,1.42,0.86,0.86,0.85
437.18,-1.11,-1.99,-1.11,-2.00,1.99,1.98,1.46,0.88,0.88,0.88
441.55,-1.06,-1.97,-1.06,-1.97,1.97,1.95,1.51,0.91,0.91,0.91
445.96,-1.01,-1.94,-1.01,-1.94,1.94,1.92,1.55,0.93,0.94,0.93
450.42,-0.95,-1.90,-0.95,-1.91,1.92,1.88,1.58,0.97,0.96,0.95
454.93,-0.90,-1.89,-0.90,-1.88,1.89,1.85,1.62,0.99,0.99,0.99
459.48,-0.84,-1.85,-0.84,-1.85,1.85,1.82,1.66,1.01,1.01,1.01
464.07,-0.78,-1.82,-0.78,-1.82,1.82,1.78,1.69,1.04,1.04,1.04
468.71,-0.71,-1.79,-0.71,-1.78,1.78,1.75,1.72,1.07,1.07,1.08
473.40,-0.64,-1.74,-0.64,-1.74,1.73,1.71,1.75,1.09,1.09,1.10
478.13,-0.55,-1.68,-0.56,-1.69,1.68,1.67,1.77,1.13,1.12,1.13
482.91,-0.47,-1.63,-0.47,-1.63,1.62,1.63,1.80,1.15,1.15,1.16
487.74,-0.38,-1.57,-0.38,-1.56,1.56,1.59,1.82,1.18,1.19,1.19
492.62,-0.28,-1.50,-0.28,-1.50,1.50,1.55,1.84,1.22,1.22,1.22
497.55,-0.19,-1.43,-0.19,-1.44,1.44,1.51,1.85,1.25,1.25,1.24
502.52,-0.11,-1.39,-0.11,-1.38,1.39,1.47,1.86,1.28,1.28,1.28
507.55,-0.03,-1.33,-0.03,-1.33,1.33,1.42,1.87,1.30,1.31,1.30
512.62,0.05,-1.28,0.05,-1.28,1.28,1.37,1.88,1.33,1.33,1.33
517.75,0.13,-1.23,0.12,-1.23,1.24,1.33,1.88,1.37,1.36,1.36
522.93,0.19,-1.20,0.19,-1.19,1.19,1.27,1.88,1.38,1.39,1.39
528.16,0.26,-1.15,0.26,-1.15,1.15,1.22,1.88,1.41,1.41,1.41
533.44,0.33,-1.11,0.33,-1.11,1.10,1.17,1.88,1.43,1.43,1.44
