frequency,raw,error,smoothed,error_smoothed,equalization,parametric_eq,fixed_band_eq,equalized_raw,equalized_smoothed,target
20.00,10.18,0.56,10.18,0.56,-0.56,-0.88,-0.52,9.62,9.62,9.62
20.20,10.19,0.58,10.19,0.58,-0.58,-0.88,-0.54,9.61,9.61,9.61
20.40,10.20,0.60,10.20,0.60,-0.60,-0.89,-0.55,9.59,9.59,9.59
20.61,10.21,0.62,10.21,0.62,-0.62,-0.89,-0.57,9.58,9.58,9.58
20.81,10.22,0.64,10.22,0.65,-0.65,-0.89,-0.58,9.57,9.57,9.57
21.02,10.24,0.67,10.23,0.67,-0.67,-0.90,-0.60,9.57,9.56,9.56
21.23,10.24,0.68,10.24,0.69,-0.69,-0.90,-0.62,9.55,9.55,9.55
21.44,10.25,0.71,10.25,0.71,-0.71,-0.91,-0.63,9.54,9.54,9.54
21.66,10.26,0.73,10.26,0.73,-0.73,-0.91,-0.65,9.53,9.53,9.53
21.87,10.27,0.75,10.27,0.75,-0.75,-0.92,-0.67,9.52,9.52,9.52
22.09,10.28,0.77,10.28,0.77,-0.77,-0.92,-0.69,9.51,9.51,9.51
22.31,10.29,0.79,10.29,0.79,-0.79,-0.93,-0.71,9.50,9.50,9.50
22.54,10.30,0.81,10.30,0.81,-0.81,-0.93,-0.73,9.49,9.49,9.49
22.76,10.31,0.83,10.31,0.83,-0.83,-0.94,-0.75,9.48,9.48,9.47
22.99,10.32,0.84,10.32,0.85,-0.85,-0.95,-0.77,9.47,9.47,9.47
23.22,10.33,0.86,10.33,0.87,-0.87,-0.95,-0.79,9.46,9.46,9.46
23.45,10.34,0.89,10.34,0.88,-0.89,-0.96,-0.81,9.45,9.45,9.45
23.69,10.35,0.91,10.35,0.91,-0.91,-0.96,-0.83,9.44,9.44,9.44
23.92,10.36,0.93,10.36,0.93,-0.93,-0.97,-0.86,9.43,9.43,9.43
24.16,10.37,0.95,10.36,0.95,-0.94,-0.98,-0.88,9.42,9.42,9.42
24.40,10.37,0.96,10.37,0.96,-0.96,-0.98,-0.90,9.41,9.41,9.40
24.65,10.38,0.97,10.38,0.97,-0.97,-0.99,-0.93,9.40,9.40,9.40
24.89,10.39,0.98,10.39,0.99,-0.99,-0.99,-0.95,9.40,9.40,9.40
25.14,10.40,1.00,10.40,1.00,-1.00,-1.00,-0.97,9.39,9.40,9.40
25.39,10.41,1.02,10.41,1.01,-1.01,-1.01,-1.00,9.39,9.39,9.39
25.65,10.42,1.03,10.41,1.03,-1.02,-1.01,-1.02,9.39,9.39,9.39
25.91,10.42,1.03,10.42,1.04,-1.04,-1.02,-1.05,9.38,9.38,9.38
26.16,10.43,1.04,10.43,1.04,-1.05,-1.03,-1.07,9.38,9.38,9.38
26.43,10.44,1.06,10.44,1.06,-1.05,-1.04,-1.10,9.38,9.38,9.38
26.69,10.45,1.07,10.45,1.07,-1.06,-1.04,-1.12,9.38,9.38,9.38
26.96,10.46,1.08,10.45,1.08,-1.07,-1.05,-1.14,9.38,9.38,9.38
27.23,10.46,1.08,10.46,1.08,-1.08,-1.06,-1.17,9.37,9.37,9.37
27.50,10.46,1.08,10.46,1.09,-1.10,-1.07,-1.19,9.36,9.37,9.37
27.77,10.47,1.10,10.47,1.10,-1.11,-1.07,-1.22,9.36,9.36,9.37
28.05,10.49,1.13,10.48,1.12,-1.12,-1.08,-1.24,9.37,9.36,9.36
28.33,10.49,1.13,10.49,1.14,-1.13,-1.09,-1.26,9.35,9.35,9.35
28.62,10.50,1.15,10.50,1.15,-1.15,-1.10,-1.28,9.35,9.35,9.34
28.90,10.50,1.16,10.50,1.16,-1.16,-1.11,-1.30,9.33,9.33,9.34
29.19,10.51,1.18,10.50,1.18,-1.18,-1.12,-1.32,9.33,9.32,9.33
29.48,10.51,1.19,10.51,1.19,-1.19,-1.12,-1.34,9.31,9.31,9.31
29.78,10.52,1.21,10.51,1.21,-1.21,-1.13,-1.36,9.31,9.31,9.31
30.08,10.52,1.22,10.52,1.22,-1.22,-1.14,-1.37,9.30,9.30,9.30
30.38,10.53,1.23,10.52,1.23,-1.23,-1.15,-1.39,9.30,9.29,9.29
30.68,10.53,1.24,10.53,1.24,-1.24,-1.16,-1.40,9.29,9.29,9.29
30.99,10.54,1.25,10.53,1.25,-1.25,-1.17,-1.41,9.29,9.29,9.29
31.30,10.54,1.25,10.54,1.26,-1.26,-1.18,-1.42,9.28,9.28,9.28
31.61,10.55,1.27,10.54,1.26,-1.26,-1.19,-1.43,9.28,9.28,9.28
31.93,10.55,1.26,10.55,1.27,-1.27,-1.20,-1.44,9.28,9.28,9.28
32.24,10.56,1.28,10.55,1.27,-1.27,-1.21,-1.45,9.28,9.28,9.28
32.57,10.56,1.28,10.56,1.28,-1.28,-1.22,-1.45,9.28,9.28,9.28
32.89,10.57,1.29,10.56,1.28,-1.29,-1.23,-1.46,9.28,9.28,9.28
33.22,10.57,1.29,10.57,1.29,-1.29,-1.24,-1.46,9.27,9.27,9.28
33.55,10.57,1.30,10.57,1.30,-1.30,-1.26,-1.47,9.26,9.27,9.27
33.89,10.58,1.32,10.57,1.31,-1.31,-1.27,-1.47,9.26,9.26,9.26
34.23,10.58,1.33,10.58,1.33,-1.33,-1.28,-1.47,9.25,9.25,9.25
34.57,10.59,1.34,10.58,1.34,-1.34,-1.29,-1.47,9.25,9.24,9.25
34.92,10.59,1.36,10.59,1.36,-1.36,-1.30,-1.47,9.23,9.23,9.23
35.27,10.59,1.37,10.59,1.38,-1.37,-1.31,-1.47,9.21,9.22,9.21
35.62,10.60,1.40,10.59,1.39,-1.39,-1.33,-1.47,9.21,9.20,9.20
35.97,10.59,1.40,10.59,1.41,-1.41,-1.34,-1.47,9.18,9.18,9.18
36.33,10.59,1.42,10.59,1.43,-1.43,-1.35,-1.47,9.15,9.16,9.16
36.70,10.60,1.46,10.59,1.45,-1.45,-1.37,-1.47,9.14,9.14,9.14
37.06,10.60,1.48,10.60,1.48,-1.48,-1.38,-1.47,9.12,9.12,9.12
37.43,10.60,1.50,10.60,1.50,-1.50,-1.39,-1.47,9.09,9.10,9.09
37.81,10.61,1.53,10.60,1.53,-1.53,-1.41,-1.47,9.08,9.07,9.08
38.19,10.60,1.55,10.60,1.55,-1.55,-1.42,-1.47,9.05,9.05,9.05
38.57,10.61,1.58,10.60,1.57,-1.57,-1.44,-1.47,9.03,9.03,9.03
38.95,10.61,1.59,10.60,1.59,-1.59,-1.45,-1.47,9.01,9.01,9.01
39.34,10.61,1.61,10.61,1.62,-1.61,-1.46,-1.47,8.99,9.00,8.99
39.74,10.61,1.63,10.60,1.63,-1.63,-1.48,-1.48,8.98,8.97,8.97
40.14,10.61,1.65,10.60,1.64,-1.65,-1.49,-1.48,8.96,8.96,8.95
40.54,10.60,1.65,10.60,1.66,-1.66,-1.51,-1.48,8.93,8.94,8.94
40.94,10.61,1.67,10.60,1.67,-1.67,-1.53,-1.49,8.93,8.93,8.93
41.35,10.61,1.69,10.61,1.69,-1.69,-1.54,-1.50,8.92,8.92,8.91
41.76,10.61,1.70,10.61,1.70,-1.70,-1.56,-1.50,8.91,8.91,8.90
42.18,10.61,1.70,10.60,1.71,-1.71,-1.58,-1.51,8.90,8.90,8.90
42.60,10.60,1.71,10.60,1.71,-1.71,-1.59,-1.52,8.88,8.89,8.89
43.03,10.61,1.73,10.60,1.72,-1.72,-1.61,-1.53,8.89,8.88,8.88
43.46,10.61,1.73,10.60,1.73,-1.73,-1.63,-1.54,8.88,8.88,8.88
43.90,10.61,1.73,10.60,1.74,-1.73,-1.64,-1.55,8.88,8.87,8.87
44.33,10.60,1.74,10.60,1.74,-1.74,-1.66,-1.57,8.86,8.86,8.86
44.78,10.60,1.74,10.59,1.74,-1.74,-1.68,-1.58,8.86,8.85,8.86
45.23,10.59,1.73,10.59,1.74,-1.75,-1.70,-1.60,8.84,8.84,8.85
45.68,10.59,1.75,10.59,1.75,-1.75,-1.72,-1.62,8.83,8.83,8.84
46.13,10.59,1.76,10.59,1.76,-1.76,-1.74,-1.63,8.82,8.82,8.82
46.60,10.59,1.77,10.59,1.77,-1.77,-1.76,-1.65,8.81,8.81,8.82
47.06,10.59,1.79,10.58,1.79,-1.78,-1.78,-1.67,8.80,8.80,8.80
47.53,10.58,1.79,10.58,1.80,-1.79,-1.80,-1.70,8.78,8.78,8.78
48.01,10.58,1.81,10.57,1.81,-1.81,-1.82,-1.72,8.77,8.77,8.76
48.49,10.57,1.82,10.57,1.82,-1.82,-1.84,-1.74,8.74,8.74,8.75
48.97,10.57,1.84,10.56,1.84,-1.84,-1.86,-1.77,8.73,8.72,8.73
49.46,10.56,1.85,10.56,1.85,-1.86,-1.88,-1.79,8.70,8.70,8.71
49.96,10.56,1.88,10.55,1.87,-1.87,-1.90,-1.82,8.68,8.68,8.68
50.46,10.55,1.89,10.55,1.89,-1.89,-1.93,-1.85,8.65,8.65,8.66
50.96,10.55,1.92,10.54,1.92,-1.91,-1.95,-1.87,8.63,8.63,8.63
51.47,10.54,1.93,10.54,1.94,-1.93,-1.97,-1.90,8.60,8.61,8.60
51.99,10.54,1.96,10.54,1.96,-1.95,-1.99,-1.93,8.58,8.58,8.58
52.51,10.54,1.98,10.53,1.97,-1.97,-2.02,-1.96,8.56,8.56,8.56
53.03,10.53,1.99,10.53,2.00,-1.99,-2.04,-1.99,8.53,8.53,8.53
53.56,10.52,2.01,10.52,2.01,-2.01,-2.07,-2.02,8.50,8.51,8.51
54.10,10.52,2.04,10.51,2.03,-2.03,-2.09,-2.05,8.49,8.48,8.48
54.64,10.50,2.04,10.50,2.05,-2.05,-2.12,-2.09,8.45,8.45,8.45
55.18,10.50,2.07,10.49,2.07,-2.07,-2.14,-2.12,8.43,8.43,8.43
55.74,10.49,2.09,10.48,2.09,-2.09,-2.17,-2.15,8.40,8.39,8.40
56.29,10.48,2.11,10.48,2.11,-2.11,-2.19,-2.18,8.36,8.37,8.37
56.86,10.47,2.13,10.47,2.13,-2.13,-2.22,-2.21,8.33,8.34,8.34
57.42,10.47,2.16,10.47,2.16,-2.16,-2.25,-2.24,8.31,8.31,8.31
58.00,10.47,2.19,10.46,2.19,-2.18,-2.27,-2.27,8.28,8.28,8.27
58.58,10.46,2.21,10.45,2.21,-2.21,-2.30,-2.30,8.25,8.25,8.24
59.16,10.44,2.23,10.44,2.24,-2.24,-2.33,-2.33,8.20,8.21,8.21
59.76,10.44,2.26,10.43,2.26,-2.26,-2.36,-2.36,8.17,8.17,8.17
60.35,10.43,2.29,10.43,2.29,-2.29,-2.39,-2.39,8.13,8.13,8.14
60.96,10.42,2.32,10.42,2.32,-2.32,-2.42,-2.41,8.10,8.10,8.10
61.57,10.41,2.35,10.40,2.35,-2.35,-2.45,-2.44,8.06,8.06,8.05
62.18,10.39,2.37,10.39,2.38,-2.38,-2.48,-2.47,8.01,8.01,8.01
62.80,10.39,2.41,10.38,2.41,-2.41,-2.51,-2.49,7.97,7.97,7.97
63.43,10.37,2.45,10.37,2.44,-2.44,-2.54,-2.51,7.92,7.93,7.92
64.07,10.36,2.48,10.36,2.48,-2.48,-2.57,-2.54,7.88,7.88,7.88
64.71,10.35,2.51,10.34,2.51,-2.51,-2.60,-2.56,7.84,7.83,7.84
65.35,10.33,2.54,10.33,2.54,-2.54,-2.63,-2.58,7.78,7.79,7.79
66.01,10.33,2.58,10.32,2.58,-2.58,-2.67,-2.60,7.75,7.75,7.74
66.67,10.32,2.62,10.31,2.61,-2.61,-2.70,-2.62,7.70,7.70,7.70
67.33,10.29,2.64,10.30,2.65,-2.65,-2.73,-2.64,7.64,7.65,7.65
68.01,10.28,2.68,10.28,2.68,-2.68,-2.77,-2.66,7.59,7.60,7.60
68.69,10.28,2.73,10.27,2.72,-2.72,-2.80,-2.68,7.56,7.55,7.55
69.37,10.26,2.76,10.26,2.76,-2.75,-2.83,-2.70,7.50,7.50,7.50
70.07,10.25,2.79,10.25,2.79,-2.79,-2.87,-2.72,7.46,7.45,7.46
70.77,10.23,2.82,10.23,2.83,-2.83,-2.91,-2.75,7.40,7.40,7.40
71.48,10.22,2.87,10.21,2.87,-2.87,-2.94,-2.77,7.35,7.35,7.35
72.19,10.20,2.90,10.20,2.90,-2.90,-2.98,-2.79,7.29,7.30,7.29
72.91,10.19,2.94,10.18,2.94,-2.94,-3.02,-2.81,7.24,7.24,7.24
73.64,10.17,2.98,10.17,2.98,-2.98,-3.05,-2.84,7.18,7.18,7.19
74.38,10.15,3.02,10.15,3.02,-3.02,-3.09,-2.86,7.12,7.13,7.13
75.12,10.14,3.07,10.13,3.06,-3.07,-3.13,-2.89,7.07,7.07,7.07
75.87,10.12,3.10,10.12,3.11,-3.11,-3.17,-2.92,7.01,7.01,7.01
76.63,10.11,3.16,10.10,3.15,-3.15,-3.21,-2.95,6.95,6.95,6.95
77.40,10.09,3.20,10.09,3.20,-3.20,-3.25,-2.98,6.89,6.89,6.89
78.17,10.07,3.24,10.07,3.24,-3.24,-3.29,-3.01,6.83,6.83,6.82
78.95,10.05,3.28,10.05,3.28,-3.29,-3.33,-3.05,6.76,6.76,6.76
79.74,10.03,3.33,10.03,3.33,-3.33,-3.37,-3.08,6.69,6.69,6.70
80.54,10.01,3.38,10.01,3.38,-3.38,-3.41,-3.12,6.63,6.63,6.63
81.35,10.00,3.43,9.99,3.43,-3.43,-3.45,-3.16,6.57,6.56,6.57
82.16,9.98,3.48,9.97,3.47,-3.47,-3.49,-3.21,6.50,6.50,6.50
82.98,9.95,3.52,9.95,3.52,-3.52,-3.53,-3.26,6.43,6.43,6.43
83.81,9.94,3.57,9.93,3.57,-3.57,-3.58,-3.30,6.37,6.36,6.36
84.65,9.92,3.62,9.91,3.62,-3.62,-3.62,-3.36,6.30,6.30,6.29
85.50,9.89,3.66,9.89,3.67,-3.67,-3.66,-3.41,6.22,6.23,6.23
86.35,9.88,3.71,9.87,3.71,-3.71,-3.71,-3.47,6.16,6.16,6.16
87.22,9.85,3.76,9.85,3.76,-3.76,-3.75,-3.53,6.08,6.09,6.09
88.09,9.83,3.81,9.83,3.81,-3.81,-3.80,-3.59,6.01,6.02,6.02
88.97,9.81,3.87,9.81,3.86,-3.86,-3.84,-3.65,5.94,5.94,5.94
89.86,9.79,3.91,9.79,3.92,-3.91,-3.89,-3.72,5.87,5.87,5.87
90.76,9.77,3.97,9.76,3.97,-3.97,-3.94,-3.79,5.80,5.80,5.79
91.66,9.74,4.01,9.74,4.02,-4.02,-3.98,-3.86,5.72,5.72,5.72
92.58,9.72,4.07,9.72,4.07,-4.07,-4.03,-3.94,5.64,5.64,5.64
93.51,9.70,4.13,9.69,4.13,-4.13,-4.08,-4.02,5.57,5.56,5.56
94.44,9.67,4.19,9.67,4.19,-4.19,-4.13,-4.10,5.48,5.48,5.48
95.39,9.65,4.25,9.64,4.24,-4.24,-4.18,-4.18,5.40,5.40,5.40
96.34,9.62,4.30,9.62,4.30,-4.30,-4.22,-4.27,5.31,5.31,5.32
97.30,9.59,4.35,9.59,4.36,-4.36,-4.27,-4.35,5.22,5.23,5.23
98.28,9.57,4.43,9.56,4.42,-4.42,-4.32,-4.44,5.14,5.14,5.14
99.26,9.54,4.48,9.54,4.48,-4.48,-4.37,-4.53,5.05,5.06,5.06
100.25,9.52,4.54,9.51,4.55,-4.54,-4.42,-4.63,4.97,4.97,4.97
101.25,9.49,4.61,9.48,4.60,-4.60,-4.47,-4.72,4.88,4.88,4.88
102.27,9.46,4.66,9.46,4.66,-4.66,-4.52,-4.82,4.79,4.79,4.79
103.29,9.43,4.72,9.43,4.72,-4.72,-4.57,-4.91,4.70,4.71,4.71
104.32,9.41,4.78,9.40,4.78,-4.78,-4.63,-5.01,4.63,4.62,4.62
105.37,9.38,4.84,9.38,4.84,-4.84,-4.68,-5.11,4.54,4.54,4.54
106.42,9.35,4.89,9.35,4.89,-4.89,-4.73,-5.21,4.46,4.46,4.45
107.48,9.32,4.95,9.32,4.95,-4.94,-4.78,-5.30,4.37,4.37,4.37
108.56,9.29,5.00,9.28,5.00,-5.00,-4.83,-5.40,4.29,4.29,4.29
109.64,9.26,5.04,9.25,5.05,-5.05,-4.89,-5.49,4.21,4.21,4.21
110.74,9.22,5.09,9.22,5.10,-5.10,-4.94,-5.58,4.12,4.12,4.13
111.85,9.20,5.15,9.19,5.15,-5.15,-4.99,-5.67,4.04,4.04,4.04
112.97,9.17,5.21,9.16,5.20,-5.20,-5.04,-5.75,3.96,3.96,3.96
114.10,9.14,5.26,9.13,5.26,-5.25,-5.10,-5.84,3.88,3.88,3.88
115.24,9.10,5.30,9.10,5.31,-5.31,-5.15,-5.91,3.79,3.79,3.79
116.39,9.07,5.36,9.07,5.36,-5.36,-5.20,-5.99,3.70,3.71,3.70
117.55,9.04,5.42,9.03,5.41,-5.42,-5.25,-6.05,3.62,3.62,3.62
118.73,9.00,5.47,9.00,5.47,-5.47,-5.31,-6.11,3.53,3.53,3.53
119.92,8.96,5.52,8.96,5.52,-5.52,-5.36,-6.16,3.43,3.44,3.44
121.12,8.93,5.58,8.93,5.58,-5.58,-5.41,-6.21,3.35,3.35,3.35
122.33,8.90,5.64,8.89,5.63,-5.63,-5.46,-6.25,3.26,3.26,3.26
123.55,8.86,5.69,8.86,5.69,-5.69,-5.52,-6.29,3.17,3.17,3.17
124.79,8.83,5.74,8.82,5.74,-5.74,-5.57,-6.31,3.08,3.08,3.08
126.03,8.79,5.79,8.79,5.79,-5.80,-5.62,-6.33,2.99,2.99,3.00
127.29,8.75,5.85,8.75,5.85,-5.85,-5.67,-6.34,2.90,2.90,2.90
128.57,8.72,5.90,8.71,5.90,-5.90,-5.72,-6.35,2.82,2.82,2.81
129.85,8.68,5.95,8.68,5.95,-5.94,-5.77,-6.34,2.73,2.73,2.73
131.15,8.64,5.99,8.64,5.99,-5.99,-5.82,-6.34,2.65,2.65,2.64
132.46,8.60,6.03,8.60,6.03,-6.03,-5.87,-6.32,2.56,2.56,2.56
133.79,8.56,6.07,8.56,6.07,-6.07,-5.92,-6.30,2.49,2.48,2.49
135.12,8.52,6.11,8.52,6.10,-6.11,-5.97,-6.27,2.41,2.41,2.41
136.48,8.48,6.14,8.48,6.14,-6.14,-6.01,-6.24,2.34,2.34,2.34
137.84,8.45,6.18,8.44,6.17,-6.17,-6.06,-6.21,2.28,2.27,2.27
139.22,8.41,6.20,8.40,6.20,-6.20,-6.10,-6.17,2.21,2.21,2.20
140.61,8.36,6.22,8.36,6.23,-6.22,-6.15,-6.12,2.13,2.14,2.14
142.02,8.32,6.25,8.32,6.25,-6.25,-6.19,-6.08,2.07,2.07,2.07
143.44,8.28,6.27,8.27,6.27,-6.27,-6.23,-6.03,2.01,2.00,2.01
144.87,8.23,6.28,8.23,6.29,-6.29,-6.27,-5.99,1.94,1.94,1.94
146.32,8.19,6.31,8.19,6.31,-6.31,-6.31,-5.94,1.88,1.88,1.88
147.78,8.15,6.33,8.14,6.33,-6.33,-6.35,-5.89,1.82,1.82,1.82
149.26,8.11,6.35,8.10,6.34,-6.34,-6.39,-5.84,1.76,1.76,1.76
150.75,8.06,6.36,8.06,6.36,-6.36,-6.42,-5.79,1.70,1.70,1.70
152.26,8.02,6.37,8.01,6.37,-6.37,-6.46,-5.75,1.65,1.64,1.64
153.78,7.97,6.38,7.97,6.38,-6.38,-6.49,-5.70,1.58,1.59,1.59
155.32,7.93,6.39,7.92,6.39,-6.39,-6.52,-5.66,1.53,1.53,1.53
156.88,7.88,6.40,7.88,6.40,-6.40,-6.55,-5.62,1.48,1.48,1.48
158.44,7.83,6.40,7.83,6.40,-6.41,-6.58,-5.58,1.42,1.42,1.42
160.03,7.79,6.41,7.78,6.41,-6.42,-6.60,-5.55,1.37,1.36,1.37
161.63,7.73,6.41,7.73,6.42,-6.42,-6.62,-5.52,1.31,1.31,1.31
163.24,7.69,6.43,7.68,6.43,-6.42,-6.65,-5.49,1.26,1.26,1.25
164.88,7.64,6.43,7.63,6.43,-6.43,-6.67,-5.47,1.21,1.21,1.20
166.53,7.59,6.43,7.59,6.43,-6.43,-6.68,-5.44,1.16,1.16,1.16
168.19,7.54,6.43,7.53,6.42,-6.43,-6.70,-5.43,1.11,1.11,1.11
169.87,7.49,6.42,7.48,6.42,-6.42,-6.71,-5.41,1.06,1.06,1.07
171.57,7.43,6.41,7.43,6.42,-6.42,-6.72,-5.40,1.01,1.01,1.01
173.29,7.39,6.42,7.38,6.41,-6.41,-6.74,-5.40,0.98,0.97,0.97
175.02,7.33,6.40,7.33,6.40,-6.40,-6.74,-5.40,0.93,0.93,0.93
176.77,7.28,6.39,7.28,6.39,-6.39,-6.75,-5.40,0.89,0.89,0.89
178.54,7.23,6.38,7.22,6.38,-6.37,-6.75,-5.41,0.85,0.85,0.85
180.32,7.18,6.37,7.17,6.36,-6.36,-6.75,-5.42,0.82,0.81,0.81
182.13,7.11,6.33,7.11,6.34,-6.34,-6.75,-5.43,0.76,0.77,0.77
183.95,7.06,6.32,7.06,6.32,-6.32,-6.75,-5.45,0.73,0.73,0.74
185.79,7.01,6.31,7.00,6.30,-6.30,-6.74,-5.48,0.70,0.70,0.70
187.65,6.95,6.28,6.95,6.28,-6.28,-6.73,-5.50,0.66,0.66,0.67
189.52,6.89,6.25,6.89,6.26,-6.26,-6.72,-5.53,0.62,0.63,0.63
191.42,6.84,6.25,6.83,6.24,-6.24,-6.71,-5.57,0.60,0.59,0.59
193.33,6.78,6.22,6.78,6.22,-6.21,-6.69,-5.61,0.56,0.56,0.56
195.27,6.72,6.19,6.72,6.19,-6.19,-6.68,-5.65,0.53,0.53,0.53
197.22,6.67,6.17,6.66,6.16,-6.16,-6.66,-5.69,0.50,0.50,0.50
199.19,6.61,6.14,6.61,6.14,-6.14,-6.64,-5.74,0.47,0.47,0.47
201.18,6.55,6.10,6.55,6.11,-6.11,-6.61,-5.79,0.44,0.44,0.44
203.19,6.50,6.08,6.49,6.08,-6.08,-6.59,-5.84,0.42,0.41,0.41
205.23,6.44,6.05,6.44,6.05,-6.05,-6.56,-5.90,0.39,0.39,0.39
207.28,6.39,6.02,6.38,6.02,-6.02,-6.53,-5.95,0.36,0.36,0.36
209.35,6.33,5.99,6.33,5.99,-5.99,-6.50,-6.01,0.33,0.33,0.34
211.44,6.28,5.96,6.28,5.97,-5.97,-6.47,-6.07,0.31,0.31,0.31
213.56,6.23,5.94,6.22,5.94,-5.94,-6.44,-6.12,0.29,0.28,0.28
215.69,6.18,5.92,6.18,5.92,-5.91,-6.40,-6.18,0.26,0.26,0.26
217.85,6.13,5.89,6.13,5.89,-5.89,-6.36,-6.24,0.24,0.24,0.24
220.03,6.09,5.87,6.08,5.87,-5.86,-6.32,-6.29,0.22,0.22,0.22
222.23,6.04,5.84,6.04,5.84,-5.84,-6.28,-6.34,0.20,0.20,0.20
224.45,6.00,5.82,5.99,5.82,-5.82,-6.24,-6.39,0.18,0.18,0.18
226.70,5.95,5.79,5.95,5.79,-5.80,-6.20,-6.44,0.15,0.15,0.16
228.96,5.91,5.77,5.91,5.77,-5.78,-6.16,-6.48,0.13,0.13,0.14
231.25,5.88,5.76,5.87,5.75,-5.76,-6.11,-6.51,0.12,0.11,0.12
233.57,5.84,5.73,5.84,5.74,-5.74,-6.06,-6.54,0.09,0.10,0.10
235.90,5.81,5.74,5.80,5.73,-5.73,-6.02,-6.57,0.08,0.07,0.07
238.26,5.77,5.72,5.77,5.72,-5.71,-5.97,-6.59,0.05,0.05,0.05
240.64,5.74,5.70,5.74,5.71,-5.70,-5.92,-6.59,0.03,0.04,0.04
243.05,5.72,5.70,5.71,5.69,-5.69,-5.87,-6.60,0.03,0.02,0.02
245.48,5.69,5.68,5.68,5.68,-5.68,-5.82,-6.59,0.01,0.01,0.01
247.93,5.65,5.65,5.65,5.66,-5.66,-5.77,-6.58,-0.01,-0.01,-0.01
250.41,5.63,5.65,5.62,5.64,-5.64,-5.72,-6.55,-0.02,-0.02,-0.02
252.92,5.60,5.63,5.59,5.63,-5.63,-5.67,-6.53,-0.03,-0.04,-0.03
255.45,5.56,5.60,5.56,5.61,-5.61,-5.61,-6.48,-0.05,-0.05,-0.05
258.00,5.53,5.59,5.53,5.59,-5.59,-5.56,-6.44,-0.06,-0.06,-0.06
260.58,5.50,5.57,5.49,5.57,-5.57,-5.51,-6.38,-0.07,-0.08,-0.07
263.19,5.46,5.55,5.46,5.54,-5.54,-5.46,-6.32,-0.09,-0.09,-0.09
265.82,5.42,5.52,5.42,5.52,-5.52,-5.40,-6.24,-0.10,-0.10,-0.10
268.48,5.38,5.49,5.38,5.49,-5.49,-5.35,-6.17,-0.12,-0.12,-0.11
271.16,5.34,5.47,5.33,5.46,-5.46,-5.30,-6.08,-0.13,-0.13,-0.13
273.87,5.28,5.42,5.28,5.43,-5.43,-5.24,-5.99,-0.15,-0.15,-0.14
276.61,5.24,5.40,5.23,5.39,-5.39,-5.19,-5.90,-0.16,-0.16,-0.16
279.38,5.18,5.35,5.18,5.35,-5.35,-5.14,-5.80,-0.18,-0.17,-0.17
282.17,5.13,5.32,5.12,5.31,-5.31,-5.09,-5.69,-0.18,-0.19,-0.19
284.99,5.07,5.26,5.07,5.26,-5.26,-5.03,-5.58,-0.20,-0.20,-0.19
287.84,5.01,5.20,5.01,5.21,-5.22,-4.98,-5.47,-0.21,-0.20,-0.20
290.72,4.96,5.17,4.95,5.17,-5.16,-4.93,-5.36,-0.21,-0.21,-0.22
293.63,4.90,5.12,4.89,5.12,-5.11,-4.88,-5.25,-0.22,-0.22,-0.22
296.57,4.83,5.06,4.83,5.06,-5.06,-4.83,-5.13,-0.23,-0.23,-0.23
299.53,4.77,4.99,4.77,5.00,-5.00,-4.77,-5.02,-0.23,-0.23,-0.23
302.53,4.70,4.94,4.70,4.94,-4.94,-4.72,-4.90,-0.24,-0.24,-0.25
305.55,4.64,4.88,4.63,4.88,-4.88,-4.67,-4.78,-0.24,-0.25,-0.24
308.61,4.56,4.81,4.56,4.82,-4.82,-4.62,-4.67,-0.26,-0.26,-0.26
311.69,4.50,4.75,4.49,4.75,-4.75,-4.57,-4.55,-0.26,-0.26,-0.25
314.81,4.43,4.70,4.42,4.69,-4.69,-4.52,-4.44,-0.26,-0.26,-0.27
317.96,4.36,4.62,4.36,4.63,-4.62,-4.47,-4.33,-0.27,-0.26,-0.27
321.14,4.29,4.56,4.29,4.56,-4.56,-4.42,-4.22,-0.27,-0.27,-0.27
324.35,4.22,4.49,4.21,4.48,-4.49,-4.37,-4.11,-0.27,-0.28,-0.28
327.59,4.14,4.41,4.14,4.42,-4.42,-4.31,-4.01,-0.28,-0.28,-0.27
330.87,4.07,4.34,4.07,4.35,-4.35,-4.26,-3.90,-0.28,-0.28,-0.28
334.18,4.01,4.29,4.00,4.28,-4.28,-4.21,-3.80,-0.27,-0.28,-0.28
337.52,3.93,4.21,3.93,4.22,-4.21,-4.15,-3.70,-0.28,-0.28,-0.29
340.90,3.86,4.15,3.85,4.14,-4.14,-4.09,-3.60,-0.28,-0.28,-0.29
344.30,3.78,4.06,3.78,4.07,-4.07,-4.04,-3.51,-0.29,-0.29,-0.28
347.75,3.71,3.99,3.71,3.99,-4.00,-3.98,-3.42,-0.29,-0.29,-0.28
351.23,3.65,3.94,3.64,3.92,-3.92,-3.92,-3.33,-0.28,-0.29,-0.29
354.74,3.57,3.84,3.57,3.85,-3.85,-3.85,-3.24,-0.29,-0.28,-0.28
358.28,3.49,3.78,3.49,3.78,-3.78,-3.79,-3.16,-0.29,-0.29,-0.29
361.87,3.43,3.71,3.42,3.70,-3.71,-3.72,-3.07,-0.28,-0.29,-0.28
365.49,3.35,3.63,3.35,3.64,-3.64,-3.66,-2.99,-0.29,-0.29,-0.29
369.14,3.28,3.57,3.28,3.56,-3.56,-3.59,-2.92,-0.29,-0.29,-0.29
372.83,3.21,3.49,3.20,3.49,-3.49,-3.52,-2.84,-0.29,-0.29,-0.28
376.56,3.13,3.41,3.13,3.42,-3.42,-3.44,-2.77,-0.29,-0.29,-0.29
380.33,3.06,3.35,3.06,3.35,-3.35,-3.37,-2.70,-0.29,-0.29,-0.29
384.13,2.99,3.29,2.98,3.28,-3.27,-3.30,-2.63,-0.29,-0.29,-0.30
387.97,2.91,3.20,2.91,3.20,-3.20,-3.22,-2.56,-0.29,-0.29,-0.30
391.85,2.83,3.11,2.83,3.12,-3.13,-3.15,-2.50,-0.30,-0.30,-0.29
395.77,2.76,3.05,2.76,3.05,-3.05,-3.07,-2.44,-0.30,-0.30,-0.29
399.73,2.69,2.98,2.68,2.98,-2.98,-2.99,-2.38,-0.29,-0.30,-0.29
403.72,2.62,2.91,2.61,2.91,-2.91,-2.91,-2.32,-0.29,-0.29,-0.30
407.76,2.54,2.83,2.54,2.84,-2.83,-2.84,-2.26,-0.30,-0.29,-0.30
411.84,2.47,2.77,2.47,2.76,-2.76,-2.76,-2.21,-0.30,-0.29,-0.30
415.96,2.40,2.69,2.39,2.69,-2.69,-2.68,-2.15,-0.29,-0.30,-0.29
420.12,2.32,2.62,2.32,2.62,-2.62,-2.61,-2.10,-0.30,-0.30,-0.30
424.32,2.24,2.54,2.24,2.54,-2.55,-2.53,-2.05,-0.31,-0.31,-0.31
428.56,2.17,2.47,2.17,2.47,-2.48,-2.45,-2.00,-0.31,-0.31,-0.31
432.85,2.10,2.41,2.09,2.41,-2.41,-2.38,-1.95,-0.31,-0.31,-0.31
437.18,2.02,2.34,2.02,2.34,-2.33,-2.30,-1.90,-0.32,-0.31,-0.32
441.55,1.95,2.27,1.94,2.27,-2.26,-2.22,-1.86,-0.31,-0.32,-0.32
445.96,1.87,2.19,1.87,2.19,-2.19,-2.15,-1.81,-0.32,-0.32,-0.32
450.42,1.80,2.11,1.79,2.11,-2.11,-2.08,-1.76,-0.32,-0.32,-0.32
454.93,1.72,2.03,1.72,2.03,-2.04,-2.00,-1.72,-0.33,-0.33,-0.32
459.48,1.64,1.96,1.64,1.96,-1.97,-1.93,-1.68,-0.33,-0.33,-0.32
464.07,1.57,1.90,1.57,1.89,-1.89,-1.85,-1.63,-0.33,-0.33,-0.33
468.71,1.50,1.83,1.49,1.82,-1.82,-1.78,-1.59,-0.33,-0.33,-0.33
473.40,1.42,1.75,1.42,1.75,-1.75,-1.71,-1.54,-0.33,-0.33,-0.33
478.13,1.34,1.67,1.34,1.68,-1.68,-1.64,-1.50,-0.34,-0.33,-0.33
482.91,1.28,1.61,1.27,1.60,-1.60,-1.57,-1.46,-0.33,-0.33,-0.34
487.74,1.20,1.52,1.20,1.53,-1.53,-1.50,-1.41,-0.33,-0.33,-0.33
492.62,1.12,1.44,1.12,1.45,-1.45,-1.43,-1.37,-0.33,-0.33,-0.33
497.55,1.05,1.38,1.04,1.37,-1.37,-1.35,-1.32,-0.32,-0.33,-0.33
502.52,0.97,1.30,0.97,1.29,-1.29,-1.28,-1.28,-0.33,-0.33,-0.33
