frequency,raw,error,smoothed,error_smoothed,equalization,parametric_eq,fixed_band_eq,equalized_raw,equalized_smoothed,target
20.00,7.64,-0.61,7.64,-0.61,0.61,0.55,-0.36,8.25,8.25,8.25
20.20,7.66,-0.58,7.67,-0.58,0.58,0.52,-0.37,8.24,8.24,8.24
20.40,7.69,-0.54,7.69,-0.54,0.54,0.48,-0.38,8.23,8.23,8.23
20.61,7.72,-0.50,7.72,-0.50,0.51,0.44,-0.39,8.23,8.22,8.22
20.81,7.74,-0.47,7.75,-0.47,0.47,0.41,-0.40,8.21,8.22,8.21
21.02,7.77,-0.43,7.77,-0.43,0.43,0.37,-0.41,8.20,8.20,8.20
21.23,7.79,-0.40,7.79,-0.40,0.40,0.34,-0.42,8.19,8.19,8.19
21.44,7.81,-0.37,7.82,-0.36,0.36,0.30,-0.44,8.17,8.17,8.18
21.66,7.84,-0.33,7.84,-0.33,0.32,0.27,-0.45,8.16,8.16,8.17
21.87,7.87,-0.28,7.87,-0.28,0.28,0.23,-0.46,8.15,8.15,8.16
22.09,7.90,-0.24,7.90,-0.24,0.24,0.19,-0.47,8.15,8.15,8.14
22.31,7.93,-0.20,7.93,-0.20,0.20,0.16,-0.49,8.14,8.14,8.13
22.54,7.96,-0.16,7.96,-0.16,0.16,0.12,-0.50,8.13,8.13,8.12
22.76,7.99,-0.12,7.99,-0.12,0.12,0.09,-0.51,8.12,8.12,8.11
22.99,8.02,-0.09,8.02,-0.09,0.08,0.05,-0.53,8.10,8.10,8.11
23.22,8.05,-0.05,8.05,-0.05,0.04,0.01,-0.54,8.10,8.10,8.10
23.45,8.08,-0.01,8.08,-0.01,0.01,-0.02,-0.56,8.09,8.09,8.09
23.69,8.11,0.03,8.11,0.03,-0.03,-0.06,-0.57,8.08,8.08,8.08
23.92,8.13,0.07,8.13,0.07,-0.07,-0.09,-0.59,8.06,8.07,8.06
24.16,8.16,0.11,8.16,0.11,-0.10,-0.13,-0.60,8.06,8.06,8.05
24.40,8.18,0.14,8.18,0.14,-0.14,-0.16,-0.62,8.04,8.05,8.04
24.65,8.21,0.17,8.21,0.17,-0.17,-0.20,-0.64,8.04,8.04,8.04
24.89,8.24,0.20,8.24,0.20,-0.21,-0.23,-0.65,8.04,8.03,8.04
25.14,8.27,0.23,8.27,0.24,-0.24,-0.27,-0.67,8.03,8.03,8.04
25.39,8.30,0.28,8.30,0.27,-0.27,-0.30,-0.69,8.03,8.03,8.03
25.65,8.33,0.31,8.33,0.31,-0.31,-0.34,-0.70,8.03,8.03,8.02
25.91,8.36,0.34,8.36,0.34,-0.34,-0.37,-0.72,8.02,8.02,8.02
26.16,8.39,0.37,8.39,0.37,-0.37,-0.41,-0.74,8.02,8.02,8.02
26.43,8.42,0.40,8.42,0.40,-0.40,-0.44,-0.76,8.02,8.02,8.02
26.69,8.45,0.44,8.45,0.44,-0.44,-0.47,-0.77,8.02,8.02,8.02
26.96,8.48,0.47,8.48,0.47,-0.47,-0.51,-0.79,8.01,8.01,8.01
27.23,8.51,0.50,8.51,0.50,-0.50,-0.54,-0.81,8.01,8.01,8.01
27.50,8.54,0.53,8.54,0.53,-0.53,-0.58,-0.83,8.01,8.01,8.01
27.77,8.57,0.57,8.57,0.57,-0.57,-0.61,-0.84,8.00,8.00,8.01
28.05,8.60,0.61,8.60,0.60,-0.60,-0.64,-0.86,8.00,8.00,7.99
28.33,8.62,0.63,8.63,0.64,-0.64,-0.67,-0.88,7.98,7.99,7.99
28.62,8.66,0.68,8.66,0.67,-0.68,-0.71,-0.89,7.99,7.98,7.98
28.90,8.68,0.71,8.68,0.71,-0.71,-0.74,-0.91,7.97,7.97,7.98
29.19,8.71,0.75,8.71,0.75,-0.75,-0.77,-0.92,7.96,7.96,7.96
29.48,8.73,0.78,8.74,0.78,-0.78,-0.80,-0.94,7.95,7.95,7.95
29.78,8.77,0.82,8.76,0.82,-0.82,-0.84,-0.95,7.95,7.95,7.95
30.08,8.79,0.86,8.79,0.85,-0.85,-0.87,-0.97,7.94,7.94,7.93
30.38,8.81,0.88,8.82,0.89,-0.88,-0.90,-0.98,7.93,7.93,7.93
30.68,8.84,0.91,8.84,0.91,-0.92,-0.93,-0.99,7.93,7.92,7.93
30.99,8.87,0.95,8.87,0.95,-0.95,-0.96,-1.00,7.93,7.92,7.92
31.30,8.89,0.97,8.90,0.98,-0.97,-0.99,-1.01,7.92,7.92,7.92
31.61,8.92,1.01,8.92,1.00,-1.00,-1.02,-1.03,7.92,7.92,7.92
31.93,8.95,1.03,8.95,1.03,-1.03,-1.05,-1.04,7.92,7.92,7.92
32.24,8.97,1.05,8.98,1.06,-1.06,-1.08,-1.05,7.91,7.92,7.92
32.57,9.00,1.09,9.00,1.09,-1.08,-1.11,-1.05,7.92,7.92,7.91
32.89,9.03,1.11,9.03,1.11,-1.11,-1.14,-1.06,7.92,7.91,7.92
33.22,9.05,1.14,9.05,1.14,-1.14,-1.16,-1.07,7.91,7.91,7.91
33.55,9.07,1.16,9.07,1.17,-1.17,-1.19,-1.08,7.90,7.90,7.91
33.89,9.10,1.21,9.10,1.20,-1.20,-1.22,-1.09,7.90,7.90,7.89
34.23,9.12,1.23,9.13,1.24,-1.23,-1.25,-1.09,7.89,7.89,7.89
34.57,9.15,1.27,9.15,1.27,-1.27,-1.27,-1.10,7.89,7.88,7.88
34.92,9.17,1.30,9.17,1.30,-1.30,-1.30,-1.11,7.87,7.87,7.87
35.27,9.18,1.33,9.19,1.33,-1.33,-1.32,-1.11,7.85,7.85,7.85
35.62,9.20,1.37,9.20,1.36,-1.37,-1.35,-1.12,7.84,7.83,7.84
35.97,9.21,1.39,9.21,1.40,-1.40,-1.37,-1.13,7.81,7.81,7.82
36.33,9.23,1.43,9.23,1.43,-1.43,-1.40,-1.14,7.80,7.80,7.80
36.70,9.24,1.47,9.24,1.47,-1.47,-1.42,-1.14,7.77,7.78,7.78
37.06,9.26,1.50,9.26,1.50,-1.50,-1.45,-1.15,7.76,7.76,7.76
37.43,9.27,1.54,9.27,1.54,-1.54,-1.47,-1.16,7.74,7.73,7.73
37.81,9.28,1.57,9.28,1.57,-1.57,-1.49,-1.17,7.71,7.71,7.71
38.19,9.29,1.61,9.29,1.60,-1.60,-1.52,-1.18,7.69,7.69,7.69
38.57,9.30,1.63,9.30,1.63,-1.63,-1.54,-1.19,7.67,7.67,7.67
38.95,9.31,1.66,9.31,1.66,-1.66,-1.56,-1.20,7.65,7.65,7.65
39.34,9.32,1.69,9.32,1.69,-1.69,-1.58,-1.21,7.63,7.63,7.63
39.74,9.33,1.72,9.33,1.72,-1.72,-1.60,-1.22,7.61,7.61,7.61
40.14,9.34,1.75,9.34,1.74,-1.74,-1.62,-1.24,7.60,7.60,7.59
40.54,9.33,1.75,9.34,1.76,-1.76,-1.64,-1.25,7.57,7.58,7.58
40.94,9.35,1.78,9.35,1.78,-1.78,-1.66,-1.27,7.57,7.57,7.57
41.35,9.35,1.80,9.35,1.80,-1.80,-1.68,-1.28,7.56,7.55,7.55
41.76,9.35,1.81,9.36,1.81,-1.81,-1.70,-1.30,7.54,7.55,7.54
42.18,9.36,1.82,9.36,1.82,-1.82,-1.71,-1.32,7.54,7.54,7.54
42.60,9.35,1.82,9.36,1.83,-1.83,-1.73,-1.34,7.52,7.53,7.53
43.03,9.36,1.85,9.36,1.84,-1.83,-1.75,-1.36,7.53,7.52,7.52
43.46,9.35,1.84,9.35,1.84,-1.84,-1.76,-1.38,7.51,7.52,7.51
43.90,9.35,1.84,9.35,1.84,-1.84,-1.78,-1.40,7.51,7.51,7.51
44.33,9.34,1.84,9.34,1.84,-1.84,-1.79,-1.42,7.50,7.50,7.50
44.78,9.33,1.84,9.34,1.84,-1.85,-1.81,-1.45,7.48,7.49,7.49
45.23,9.33,1.84,9.33,1.85,-1.85,-1.82,-1.48,7.48,7.48,7.49
45.68,9.33,1.86,9.33,1.85,-1.85,-1.84,-1.50,7.48,7.47,7.47
46.13,9.32,1.86,9.32,1.86,-1.86,-1.85,-1.53,7.46,7.46,7.46
46.60,9.31,1.86,9.32,1.87,-1.86,-1.86,-1.56,7.45,7.45,7.45
47.06,9.31,1.88,9.31,1.87,-1.87,-1.88,-1.59,7.44,7.44,7.44
47.53,9.30,1.88,9.30,1.88,-1.88,-1.89,-1.62,7.42,7.42,7.42
48.01,9.29,1.89,9.29,1.89,-1.89,-1.90,-1.65,7.41,7.40,7.40
48.49,9.27,1.89,9.27,1.89,-1.89,-1.91,-1.69,7.38,7.38,7.38
48.97,9.26,1.90,9.26,1.90,-1.90,-1.92,-1.72,7.36,7.36,7.36
49.46,9.25,1.91,9.25,1.91,-1.91,-1.93,-1.75,7.34,7.34,7.35
49.96,9.24,1.93,9.24,1.92,-1.92,-1.94,-1.79,7.32,7.32,7.32
50.46,9.22,1.93,9.22,1.93,-1.93,-1.95,-1.82,7.29,7.29,7.29
50.96,9.20,1.94,9.20,1.94,-1.94,-1.96,-1.86,7.26,7.27,7.26
51.47,9.19,1.95,9.19,1.95,-1.95,-1.96,-1.89,7.24,7.24,7.24
51.99,9.17,1.95,9.17,1.96,-1.95,-1.97,-1.93,7.22,7.22,7.22
52.51,9.16,1.97,9.16,1.96,-1.96,-1.98,-1.97,7.20,7.20,7.19
53.03,9.13,1.96,9.14,1.97,-1.97,-1.98,-2.00,7.17,7.17,7.17
53.56,9.11,1.97,9.11,1.97,-1.97,-1.99,-2.04,7.14,7.14,7.14
54.10,9.09,1.97,9.09,1.97,-1.97,-2.00,-2.07,7.12,7.12,7.12
54.64,9.06,1.97,9.07,1.97,-1.97,-2.00,-2.11,7.09,7.09,7.09
55.18,9.04,1.98,9.04,1.98,-1.98,-2.01,-2.14,7.07,7.06,7.06
55.74,9.01,1.98,9.01,1.98,-1.98,-2.01,-2.17,7.04,7.03,7.04
56.29,8.98,1.98,8.98,1.98,-1.98,-2.01,-2.20,7.01,7.01,7.01
56.86,8.95,1.98,8.95,1.98,-1.98,-2.02,-2.23,6.98,6.98,6.98
57.42,8.92,1.98,8.92,1.98,-1.97,-2.02,-2.26,6.95,6.95,6.94
58.00,8.89,1.98,8.89,1.98,-1.97,-2.02,-2.28,6.92,6.91,6.91
58.58,8.85,1.97,8.85,1.97,-1.97,-2.03,-2.30,6.88,6.88,6.88
59.16,8.81,1.97,8.81,1.97,-1.97,-2.03,-2.33,6.84,6.84,6.85
59.76,8.78,1.97,8.78,1.97,-1.97,-2.03,-2.34,6.81,6.81,6.81
60.35,8.74,1.97,8.74,1.97,-1.97,-2.03,-2.36,6.77,6.77,6.77
60.96,8.71,1.97,8.71,1.97,-1.98,-2.03,-2.37,6.73,6.73,6.74
61.57,8.67,1.98,8.67,1.98,-1.98,-2.03,-2.38,6.69,6.69,6.69
62.18,8.63,1.98,8.64,1.99,-1.98,-2.03,-2.38,6.65,6.65,6.65
62.80,8.60,1.99,8.60,1.99,-1.99,-2.03,-2.39,6.61,6.61,6.61
63.43,8.56,2.00,8.56,2.00,-1.99,-2.03,-2.39,6.57,6.57,6.56
64.07,8.51,2.00,8.52,2.00,-2.00,-2.03,-2.39,6.52,6.52,6.52
64.71,8.47,2.00,8.47,2.00,-2.00,-2.03,-2.38,6.47,6.47,6.47
65.35,8.42,1.99,8.42,2.00,-2.00,-2.03,-2.37,6.42,6.43,6.43
66.01,8.38,2.00,8.38,2.00,-2.00,-2.03,-2.36,6.38,6.38,6.38
66.67,8.33,2.00,8.33,2.00,-2.00,-2.02,-2.35,6.33,6.33,6.34
67.33,8.28,1.99,8.28,2.00,-2.00,-2.02,-2.33,6.29,6.29,6.29
68.01,8.23,1.99,8.23,1.99,-1.99,-2.02,-2.31,6.24,6.24,6.24
68.69,8.18,1.99,8.18,1.99,-1.99,-2.02,-2.29,6.19,6.19,6.19
69.37,8.13,1.99,8.13,1.99,-1.99,-2.01,-2.27,6.14,6.14,6.14
70.07,8.08,1.99,8.08,1.99,-1.99,-2.01,-2.25,6.09,6.09,6.09
70.77,8.03,1.99,8.03,1.99,-1.99,-2.01,-2.22,6.04,6.04,6.04
71.48,7.98,2.00,7.98,1.99,-1.99,-2.00,-2.20,5.99,5.99,5.99
72.19,7.91,1.98,7.92,1.99,-1.99,-2.00,-2.17,5.93,5.93,5.93
72.91,7.86,1.98,7.86,1.98,-1.98,-1.99,-2.14,5.88,5.88,5.88
73.64,7.80,1.98,7.80,1.98,-1.98,-1.99,-2.11,5.82,5.82,5.82
74.38,7.74,1.98,7.74,1.98,-1.98,-1.99,-2.09,5.77,5.77,5.76
75.12,7.68,1.98,7.68,1.97,-1.97,-1.98,-2.06,5.71,5.71,5.70
75.87,7.61,1.96,7.61,1.97,-1.97,-1.98,-2.03,5.64,5.65,5.65
76.63,7.55,1.96,7.55,1.96,-1.96,-1.97,-2.00,5.59,5.59,5.59
77.40,7.48,1.96,7.48,1.96,-1.96,-1.97,-1.97,5.52,5.52,5.52
78.17,7.42,1.96,7.42,1.95,-1.95,-1.96,-1.95,5.47,5.46,5.46
78.95,7.34,1.94,7.35,1.95,-1.95,-1.95,-1.92,5.39,5.40,5.40
79.74,7.28,1.95,7.28,1.94,-1.94,-1.95,-1.89,5.34,5.33,5.33
80.54,7.20,1.94,7.21,1.94,-1.94,-1.94,-1.87,5.26,5.27,5.27
81.35,7.14,1.93,7.14,1.93,-1.93,-1.94,-1.85,5.21,5.20,5.21
82.16,7.06,1.93,7.06,1.93,-1.93,-1.93,-1.82,5.13,5.13,5.14
82.98,6.99,1.93,6.99,1.93,-1.92,-1.92,-1.80,5.07,5.07,5.06
83.81,6.92,1.92,6.92,1.92,-1.92,-1.92,-1.78,5.00,5.00,5.00
84.65,6.85,1.92,6.85,1.91,-1.91,-1.91,-1.76,4.94,4.94,4.93
85.50,6.76,1.90,6.77,1.90,-1.90,-1.90,-1.75,4.86,4.86,4.86
86.35,6.69,1.89,6.69,1.89,-1.89,-1.89,-1.73,4.80,4.79,4.80
87.22,6.60,1.88,6.61,1.88,-1.88,-1.89,-1.71,4.72,4.72,4.72
88.09,6.53,1.88,6.53,1.87,-1.87,-1.88,-1.70,4.66,4.65,4.66
88.97,6.44,1.86,6.45,1.87,-1.87,-1.87,-1.69,4.58,4.58,4.58
89.86,6.37,1.86,6.37,1.86,-1.86,-1.86,-1.68,4.52,4.51,4.51
90.76,6.28,1.85,6.28,1.85,-1.85,-1.85,-1.67,4.43,4.43,4.43
91.66,6.19,1.83,6.20,1.84,-1.84,-1.84,-1.66,4.35,4.36,4.36
92.58,6.11,1.83,6.11,1.83,-1.83,-1.83,-1.65,4.28,4.28,4.28
93.51,6.02,1.82,6.03,1.83,-1.82,-1.82,-1.65,4.20,4.20,4.20
94.44,5.94,1.82,5.94,1.82,-1.82,-1.81,-1.64,4.12,4.12,4.12
95.39,5.85,1.82,5.85,1.81,-1.81,-1.80,-1.64,4.04,4.04,4.04
96.34,5.75,1.80,5.76,1.81,-1.81,-1.79,-1.64,3.95,3.95,3.95
97.30,5.66,1.79,5.66,1.80,-1.80,-1.78,-1.63,3.86,3.86,3.87
98.28,5.58,1.81,5.57,1.79,-1.79,-1.76,-1.63,3.79,3.78,3.78
99.26,5.47,1.78,5.48,1.79,-1.79,-1.75,-1.64,3.69,3.69,3.69
100.25,5.39,1.78,5.38,1.78,-1.78,-1.74,-1.64,3.61,3.61,3.61
101.25,5.28,1.77,5.29,1.77,-1.77,-1.73,-1.64,3.51,3.52,3.51
102.27,5.19,1.76,5.19,1.76,-1.76,-1.71,-1.64,3.43,3.43,3.43
103.29,5.09,1.75,5.09,1.75,-1.75,-1.70,-1.64,3.35,3.34,3.35
104.32,4.99,1.73,4.99,1.73,-1.73,-1.68,-1.65,3.26,3.26,3.26
105.37,4.89,1.72,4.89,1.71,-1.71,-1.66,-1.65,3.18,3.18,3.18
106.42,4.79,1.70,4.79,1.70,-1.69,-1.65,-1.65,3.10,3.09,3.09
107.48,4.68,1.67,4.68,1.68,-1.68,-1.63,-1.66,3.01,3.01,3.01
108.56,4.58,1.66,4.58,1.65,-1.65,-1.61,-1.66,2.93,2.92,2.92
109.64,4.47,1.62,4.47,1.63,-1.63,-1.59,-1.66,2.84,2.84,2.85
110.74,4.37,1.61,4.37,1.61,-1.61,-1.58,-1.67,2.76,2.76,2.76
111.85,4.27,1.59,4.27,1.59,-1.58,-1.56,-1.67,2.69,2.68,2.68
112.97,4.16,1.56,4.16,1.56,-1.56,-1.53,-1.67,2.60,2.60,2.60
114.10,4.05,1.54,4.05,1.54,-1.54,-1.51,-1.67,2.51,2.52,2.51
115.24,3.94,1.51,3.94,1.51,-1.51,-1.49,-1.66,2.43,2.43,2.43
116.39,3.83,1.49,3.83,1.49,-1.49,-1.47,-1.66,2.34,2.34,2.34
117.55,3.72,1.46,3.72,1.47,-1.47,-1.44,-1.65,2.25,2.25,2.26
118.73,3.61,1.45,3.61,1.45,-1.45,-1.42,-1.65,2.17,2.17,2.17
119.92,3.50,1.43,3.50,1.42,-1.42,-1.39,-1.63,2.08,2.08,2.08
121.12,3.39,1.41,3.39,1.41,-1.40,-1.37,-1.62,1.99,1.99,1.99
122.33,3.28,1.39,3.28,1.39,-1.39,-1.34,-1.61,1.90,1.90,1.90
123.55,3.17,1.36,3.17,1.36,-1.37,-1.31,-1.59,1.80,1.81,1.81
124.79,3.07,1.35,3.06,1.35,-1.35,-1.28,-1.57,1.72,1.71,1.72
126.03,2.95,1.32,2.96,1.33,-1.33,-1.25,-1.55,1.62,1.63,1.63
127.29,2.85,1.31,2.85,1.31,-1.31,-1.22,-1.53,1.54,1.54,1.54
128.57,2.75,1.30,2.74,1.29,-1.29,-1.19,-1.50,1.46,1.45,1.45
129.85,2.63,1.27,2.64,1.27,-1.27,-1.16,-1.48,1.36,1.37,1.37
131.15,2.53,1.25,2.53,1.24,-1.24,-1.12,-1.45,1.29,1.28,1.28
132.46,2.41,1.21,2.42,1.21,-1.22,-1.09,-1.41,1.20,1.20,1.20
133.79,2.31,1.18,2.31,1.19,-1.18,-1.05,-1.38,1.13,1.13,1.13
135.12,2.20,1.15,2.20,1.15,-1.15,-1.02,-1.34,1.05,1.05,1.05
136.48,2.09,1.11,2.09,1.12,-1.11,-0.98,-1.30,0.98,0.98,0.98
137.84,1.98,1.07,1.98,1.07,-1.07,-0.94,-1.26,0.91,0.91,0.91
139.22,1.87,1.03,1.87,1.03,-1.03,-0.91,-1.22,0.84,0.84,0.84
140.61,1.76,0.99,1.76,0.99,-0.99,-0.87,-1.17,0.77,0.77,0.77
142.02,1.65,0.94,1.65,0.95,-0.95,-0.83,-1.13,0.70,0.71,0.71
143.44,1.55,0.91,1.54,0.90,-0.90,-0.78,-1.08,0.65,0.64,0.64
144.87,1.43,0.85,1.44,0.86,-0.86,-0.74,-1.03,0.57,0.58,0.58
146.32,1.33,0.81,1.33,0.82,-0.81,-0.70,-0.98,0.52,0.52,0.52
147.78,1.23,0.77,1.23,0.77,-0.77,-0.66,-0.93,0.46,0.46,0.46
149.26,1.12,0.72,1.12,0.72,-0.72,-0.61,-0.88,0.40,0.40,0.40
150.75,1.00,0.66,1.01,0.67,-0.67,-0.57,-0.83,0.33,0.34,0.34
152.26,0.90,0.62,0.90,0.62,-0.62,-0.52,-0.78,0.28,0.28,0.28
153.78,0.79,0.57,0.79,0.56,-0.56,-0.48,-0.72,0.23,0.22,0.22
155.32,0.68,0.51,0.68,0.51,-0.51,-0.43,-0.67,0.17,0.17,0.17
156.88,0.56,0.45,0.57,0.45,-0.46,-0.38,-0.62,0.11,0.11,0.11
158.44,0.46,0.40,0.46,0.40,-0.40,-0.34,-0.56,0.06,0.06,0.06
160.03,0.35,0.34,0.35,0.34,-0.35,-0.29,-0.51,0.01,0.00,0.01
161.63,0.24,0.29,0.24,0.29,-0.29,-0.24,-0.45,-0.05,-0.05,-0.05
163.24,0.13,0.24,0.13,0.24,-0.24,-0.19,-0.40,-0.10,-0.10,-0.11
164.88,0.02,0.18,0.02,0.18,-0.18,-0.14,-0.34,-0.16,-0.16,-0.16
166.53,-0.08,0.13,-0.08,0.12,-0.12,-0.09,-0.29,-0.20,-0.21,-0.21
168.19,-0.19,0.06,-0.19,0.06,-0.07,-0.05,-0.23,-0.26,-0.26,-0.25
169.87,-0.29,0.01,-0.29,0.01,-0.01,0.00,-0.18,-0.30,-0.30,-0.30
171.57,-0.40,-0.05,-0.39,-0.05,0.05,0.05,-0.12,-0.35,-0.35,-0.35
173.29,-0.49,-0.10,-0.49,-0.10,0.10,0.10,-0.07,-0.39,-0.39,-0.39
175.02,-0.60,-0.16,-0.59,-0.16,0.16,0.15,-0.01,-0.44,-0.43,-0.43
176.77,-0.69,-0.21,-0.69,-0.21,0.22,0.20,0.04,-0.47,-0.47,-0.48
178.54,-0.79,-0.27,-0.79,-0.27,0.27,0.25,0.10,-0.52,-0.51,-0.51
180.32,-0.88,-0.33,-0.88,-0.33,0.33,0.30,0.16,-0.55,-0.55,-0.55
182.13,-0.98,-0.39,-0.98,-0.39,0.39,0.34,0.21,-0.59,-0.59,-0.59
183.95,-1.07,-0.44,-1.07,-0.44,0.44,0.39,0.27,-0.63,-0.63,-0.63
185.79,-1.16,-0.50,-1.16,-0.50,0.49,0.44,0.32,-0.66,-0.67,-0.66
187.65,-1.25,-0.55,-1.25,-0.55,0.55,0.49,0.38,-0.70,-0.70,-0.70
189.52,-1.34,-0.61,-1.33,-0.60,0.60,0.53,0.43,-0.74,-0.74,-0.73
191.42,-1.42,-0.65,-1.42,-0.65,0.65,0.58,0.49,-0.77,-0.77,-0.77
193.33,-1.49,-0.68,-1.49,-0.69,0.70,0.62,0.55,-0.79,-0.80,-0.80
195.27,-1.58,-0.74,-1.57,-0.74,0.74,0.67,0.60,-0.83,-0.83,-0.83
197.22,-1.65,-0.78,-1.66,-0.79,0.79,0.71,0.66,-0.86,-0.86,-0.86
199.19,-1.74,-0.85,-1.73,-0.84,0.84,0.75,0.71,-0.90,-0.89,-0.89
201.18,-1.81,-0.89,-1.81,-0.88,0.88,0.79,0.77,-0.93,-0.92,-0.92
203.19,-1.87,-0.92,-1.88,-0.93,0.93,0.83,0.82,-0.94,-0.95,-0.95
205.23,-1.95,-0.97,-1.94,-0.97,0.97,0.87,0.87,-0.98,-0.97,-0.97
207.28,-2.01,-1.01,-2.02,-1.02,1.01,0.91,0.93,-0.99,-1.00,-1.00
209.35,-2.09,-1.06,-2.08,-1.06,1.05,0.94,0.98,-1.04,-1.03,-1.02
211.44,-2.15,-1.10,-2.14,-1.09,1.09,0.98,1.03,-1.06,-1.05,-1.05
213.56,-2.20,-1.12,-2.20,-1.13,1.13,1.01,1.08,-1.07,-1.08,-1.08
215.69,-2.26,-1.15,-2.26,-1.16,1.16,1.04,1.13,-1.10,-1.10,-1.10
217.85,-2.32,-1.19,-2.31,-1.19,1.19,1.07,1.18,-1.12,-1.12,-1.13
220.03,-2.37,-1.22,-2.37,-1.22,1.23,1.10,1.22,-1.14,-1.14,-1.15
222.23,-2.42,-1.25,-2.42,-1.25,1.26,1.13,1.27,-1.16,-1.17,-1.17
224.45,-2.47,-1.28,-2.47,-1.28,1.28,1.16,1.31,-1.19,-1.19,-1.19
226.70,-2.52,-1.31,-2.52,-1.31,1.31,1.18,1.35,-1.21,-1.21,-1.21
228.96,-2.56,-1.33,-2.56,-1.34,1.33,1.20,1.39,-1.23,-1.23,-1.22
231.25,-2.60,-1.36,-2.60,-1.36,1.35,1.22,1.42,-1.25,-1.25,-1.24
233.57,-2.64,-1.38,-2.64,-1.37,1.37,1.24,1.46,-1.27,-1.27,-1.26
235.90,-2.67,-1.37,-2.67,-1.38,1.38,1.26,1.49,-1.29,-1.29,-1.30
238.26,-2.70,-1.39,-2.70,-1.39,1.39,1.28,1.51,-1.31,-1.31,-1.31
240.64,-2.73,-1.40,-2.73,-1.40,1.40,1.29,1.54,-1.33,-1.32,-1.33
243.05,-2.75,-1.41,-2.75,-1.41,1.41,1.31,1.56,-1.34,-1.34,-1.34
245.48,-2.78,-1.42,-2.78,-1.42,1.42,1.32,1.58,-1.36,-1.36,-1.36
247.93,-2.80,-1.43,-2.79,-1.42,1.43,1.33,1.59,-1.37,-1.37,-1.37
250.41,-2.81,-1.42,-2.81,-1.43,1.43,1.34,1.60,-1.38,-1.38,-1.38
252.92,-2.83,-1.43,-2.83,-1.43,1.43,1.35,1.61,-1.40,-1.40,-1.40
255.45,-2.85,-1.44,-2.85,-1.44,1.43,1.35,1.61,-1.42,-1.41,-1.41
258.00,-2.86,-1.44,-2.86,-1.43,1.43,1.36,1.62,-1.43,-1.43,-1.42
260.58,-2.86,-1.42,-2.86,-1.42,1.42,1.36,1.61,-1.44,-1.44,-1.43
263.19,-2.86,-1.40,-2.86,-1.41,1.41,1.36,1.61,-1.44,-1.45,-1.46
265.82,-2.87,-1.40,-2.86,-1.40,1.40,1.36,1.60,-1.47,-1.46,-1.47
268.48,-2.87,-1.39,-2.87,-1.39,1.39,1.36,1.59,-1.48,-1.48,-1.48
271.16,-2.87,-1.37,-2.87,-1.38,1.38,1.36,1.58,-1.49,-1.50,-1.50
273.87,-2.88,-1.37,-2.87,-1.36,1.36,1.36,1.56,-1.52,-1.51,-1.51
276.61,-2.87,-1.34,-2.87,-1.35,1.35,1.35,1.54,-1.52,-1.52,-1.53
279.38,-2.87,-1.33,-2.87,-1.33,1.33,1.35,1.52,-1.54,-1.53,-1.54
282.17,-2.86,-1.30,-2.86,-1.32,1.32,1.34,1.50,-1.54,-1.55,-1.55
284.99,-2.86,-1.31,-2.86,-1.30,1.30,1.33,1.48,-1.56,-1.56,-1.55
287.84,-2.86,-1.30,-2.85,-1.29,1.28,1.33,1.45,-1.58,-1.57,-1.56
290.72,-2.84,-1.26,-2.84,-1.27,1.27,1.32,1.43,-1.57,-1.58,-1.58
293.63,-2.83,-1.24,-2.83,-1.25,1.25,1.31,1.40,-1.58,-1.58,-1.59
296.57,-2.82,-1.22,-2.82,-1.22,1.23,1.30,1.37,-1.59,-1.59,-1.59
299.53,-2.81,-1.22,-2.81,-1.21,1.21,1.29,1.34,-1.60,-1.60,-1.59
302.53,-2.80,-1.19,-2.80,-1.20,1.19,1.27,1.31,-1.60,-1.61,-1.61
305.55,-2.79,-1.18,-2.79,-1.18,1.17,1.26,1.28,-1.61,-1.61,-1.60
308.61,-2.78,-1.16,-2.77,-1.16,1.16,1.25,1.26,-1.62,-1.62,-1.62
311.69,-2.76,-1.14,-2.76,-1.14,1.14,1.23,1.23,-1.62,-1.62,-1.62
314.81,-2.74,-1.11,-2.74,-1.11,1.12,1.22,1.20,-1.62,-1.62,-1.63
317.96,-2.73,-1.10,-2.73,-1.09,1.10,1.21,1.17,-1.63,-1.63,-1.63
321.14,-2.71,-1.07,-2.71,-1.08,1.08,1.19,1.14,-1.63,-1.63,-1.63
324.35,-2.70,-1.06,-2.70,-1.06,1.06,1.18,1.11,-1.64,-1.64,-1.64
327.59,-2.68,-1.04,-2.68,-1.04,1.04,1.16,1.08,-1.64,-1.64,-1.63
330.87,-2.67,-1.03,-2.66,-1.02,1.02,1.15,1.05,-1.65,-1.64,-1.64
334.18,-2.64,-0.99,-2.64,-1.00,1.00,1.13,1.02,-1.64,-1.64,-1.64
337.52,-2.63,-0.98,-2.63,-0.98,0.98,1.11,1.00,-1.65,-1.64,-1.65
340.90,-2.61,-0.96,-2.61,-0.96,0.96,1.10,0.97,-1.65,-1.65,-1.65
344.30,-2.59,-0.94,-2.59,-0.94,0.94,1.08,0.95,-1.65,-1.65,-1.65
347.75,-2.58,-0.94,-2.57,-0.92,0.92,1.06,0.92,-1.66,-1.65,-1.64
351.23,-2.55,-0.89,-2.55,-0.91,0.90,1.05,0.90,-1.65,-1.65,-1.66
354.74,-2.53,-0.89,-2.53,-0.88,0.88,1.03,0.87,-1.64,-1.65,-1.64
358.28,-2.52,-0.87,-2.51,-0.86,0.87,1.02,0.85,-1.65,-1.65,-1.65
361.87,-2.49,-0.84,-2.49,-0.85,0.85,1.00,0.83,-1.64,-1.65,-1.65
365.49,-2.48,-0.83,-2.48,-0.83,0.83,0.98,0.81,-1.65,-1.65,-1.65
369.14,-2.46,-0.81,-2.46,-0.81,0.81,0.97,0.79,-1.65,-1.65,-1.65
372.83,-2.44,-0.79,-2.44,-0.79,0.79,0.95,0.77,-1.65,-1.65,-1.65
376.56,-2.42,-0.77,-2.42,-0.77,0.77,0.93,0.75,-1.65,-1.65,-1.65
380.33,-2.40,-0.75,-2.40,-0.74,0.75,0.92,0.73,-1.65,-1.65,-1.65
384.13,-2.38,-0.71,-2.38,-0.72,0.73,0.90,0.71,-1.65,-1.65,-1.67
387.97,-2.37,-0.71,-2.37,-0.71,0.71,0.89,0.70,-1.66,-1.66,-1.66
391.85,-2.35,-0.70,-2.35,-0.69,0.69,0.87,0.68,-1.66,-1.66,-1.65
395.77,-2.33,-0.68,-2.33,-0.68,0.67,0.86,0.66,-1.66,-1.66,-1.65
399.73,-2.31,-0.65,-2.31,-0.66,0.65,0.84,0.65,-1.65,-1.66,-1.66
403.72,-2.30,-0.64,-2.30,-0.64,0.64,0.83,0.63,-1.66,-1.66,-1.66
407.76,-2.28,-0.62,-2.28,-0.62,0.62,0.81,0.62,-1.66,-1.66,-1.66
411.84,-2.26,-0.60,-2.26,-0.60,0.60,0.80,0.61,-1.66,-1.66,-1.66
415.96,-2.24,-0.58,-2.24,-0.58,0.58,0.78,0.59,-1.66,-1.66,-1.65
420.12,-2.23,-0.56,-2.23,-0.56,0.56,0.77,0.58,-1.67,-1.67,-1.67
424.32,-2.22,-0.55,-2.21,-0.55,0.54,0.75,0.57,-1.68,-1.67,-1.67
428.56,-2.20,-0.53,-2.20,-0.53,0.52,0.74,0.56,-1.68,-1.68,-1.67
432.85,-2.18,-0.51,-2.18,-0.51,0.51,0.73,0.55,-1.67,-1.68,-1.67
437.18,-2.17,-0.48,-2.16,-0.48,0.49,0.71,0.54,-1.68,-1.68,-1.68
441.55,-2.15,-0.46,-2.15,-0.47,0.47,0.70,0.53,-1.68,-1.68,-1.69
445.96,-2.14,-0.45,-2.14,-0.45,0.46,0.69,0.52,-1.68,-1.68,-1.69
450.42,-2.13,-0.45,-2.13,-0.45,0.44,0.68,0.51,-1.69,-1.68,-1.68
454.93,-2.12,-0.44,-2.12,-0.44,0.43,0.66,0.50,-1.69,-1.69,-1.68
459.48,-2.11,-0.43,-2.11,-0.42,0.42,0.65,0.49,-1.69,-1.69,-1.68
464.07,-2.10,-0.41,-2.10,-0.41,0.41,0.64,0.48,-1.69,-1.69,-1.69
468.71,-2.09,-0.39,-2.09,-0.40,0.40,0.63,0.48,-1.69,-1.69,-1.69
473.40,-2.08,-0.38,-2.08,-0.38,0.39,0.62,0.47,-1.69,-1.69,-1.70
478.13,-2.08,-0.38,-2.07,-0.37,0.38,0.61,0.46,-1.70,-1.69,-1.70
482.91,-2.06,-0.36,-2.07,-0.37,0.37,0.60,0.45,-1.69,-1.70,-1.70
487.74,-2.06,-0.37,-2.06,-0.37,0.36,0.59,0.45,-1.70,-1.70,-1.69
492.62,-2.06,-0.37,-2.05,-0.36,0.36,0.58,0.44,-1.70,-1.69,-1.69
497.55,-2.05,-0.36,-2.05,-0.36,0.36,0.57,0.44,-1.69,-1.69,-1.69
502.52,-2.04,-0.35,-2.04,-0.35,0.36,0.56,0.43,-1.68,-1.69,-1.69
507.55,-2.04,-0.35,-2.04,-0.35,0.35,0.55,0.42,-1.68,-1.68,-1.68
