frequency,raw,error,smoothed,error_smoothed,equalization,parametric_eq,fixed_band_eq,equalized_raw,equalized_smoothed,target
20.00,0.91,0.47,0.91,0.47,-0.49,0.48,-0.18,0.42,0.42,0.44
20.20,0.91,0.43,0.91,0.43,-0.44,0.45,-0.18,0.48,0.48,0.48
20.40,0.91,0.40,0.91,0.40,-0.39,0.42,-0.18,0.52,0.52,0.51
20.61,0.91,0.37,0.91,0.36,-0.35,0.39,-0.19,0.56,0.56,0.54
20.81,0.91,0.33,0.91,0.33,-0.32,0.37,-0.19,0.59,0.59,0.58
21.02,0.91,0.29,0.91,0.30,-0.29,0.34,-0.20,0.62,0.62,0.62
21.23,0.91,0.28,0.91,0.28,-0.28,0.31,-0.20,0.64,0.64,0.63
21.44,0.92,0.27,0.92,0.27,-0.27,0.28,-0.21,0.66,0.65,0.65
21.66,0.92,0.25,0.92,0.25,-0.26,0.25,-0.21,0.66,0.66,0.67
21.87,0.93,0.25,0.94,0.25,-0.27,0.23,-0.22,0.66,0.66,0.68
22.09,0.95,0.25,0.96,0.27,-0.29,0.20,-0.22,0.66,0.67,0.70
22.31,1.00,0.30,1.00,0.29,-0.31,0.17,-0.23,0.69,0.69,0.70
22.54,1.04,0.33,1.05,0.34,-0.33,0.14,-0.23,0.71,0.71,0.71
22.76,1.09,0.37,1.10,0.38,-0.36,0.11,-0.24,0.74,0.74,0.72
22.99,1.14,0.42,1.13,0.41,-0.38,0.08,-0.24,0.77,0.75,0.72
23.22,1.14,0.41,1.14,0.42,-0.39,0.05,-0.25,0.75,0.75,0.73
23.45,1.14,0.40,1.15,0.41,-0.40,0.02,-0.25,0.74,0.75,0.74
23.69,1.14,0.40,1.14,0.40,-0.40,-0.00,-0.26,0.74,0.74,0.75
23.92,1.14,0.39,1.14,0.38,-0.39,-0.03,-0.27,0.75,0.75,0.76
24.16,1.14,0.38,1.14,0.38,-0.39,-0.06,-0.27,0.76,0.76,0.77
24.40,1.14,0.37,1.14,0.37,-0.38,-0.09,-0.28,0.76,0.76,0.78
24.65,1.14,0.38,1.14,0.37,-0.38,-0.12,-0.29,0.76,0.76,0.77
24.89,1.14,0.38,1.15,0.38,-0.38,-0.15,-0.29,0.76,0.76,0.76
25.14,1.15,0.39,1.16,0.39,-0.40,-0.18,-0.30,0.76,0.76,0.76
25.39,1.18,0.42,1.18,0.41,-0.42,-0.21,-0.31,0.77,0.76,0.76
25.65,1.20,0.44,1.20,0.44,-0.44,-0.24,-0.31,0.76,0.76,0.76
25.91,1.22,0.47,1.23,0.47,-0.47,-0.27,-0.32,0.75,0.75,0.75
26.16,1.25,0.49,1.26,0.50,-0.50,-0.29,-0.33,0.75,0.75,0.76
26.43,1.29,0.53,1.29,0.53,-0.53,-0.32,-0.34,0.76,0.76,0.76
26.69,1.33,0.57,1.33,0.57,-0.56,-0.35,-0.34,0.77,0.77,0.76
26.96,1.36,0.60,1.36,0.60,-0.58,-0.38,-0.35,0.78,0.77,0.76
27.23,1.37,0.61,1.37,0.61,-0.60,-0.41,-0.36,0.77,0.77,0.76
27.50,1.37,0.61,1.37,0.62,-0.62,-0.44,-0.37,0.75,0.75,0.76
27.77,1.37,0.62,1.37,0.62,-0.64,-0.47,-0.38,0.74,0.74,0.75
28.05,1.37,0.62,1.37,0.63,-0.64,-0.50,-0.39,0.73,0.73,0.75
28.33,1.37,0.64,1.38,0.63,-0.64,-0.53,-0.40,0.74,0.74,0.74
28.62,1.37,0.63,1.38,0.63,-0.62,-0.56,-0.41,0.75,0.76,0.75
28.90,1.37,0.63,1.36,0.62,-0.60,-0.59,-0.42,0.78,0.76,0.74
29.19,1.33,0.60,1.33,0.59,-0.56,-0.62,-0.43,0.77,0.76,0.73
29.48,1.27,0.53,1.28,0.54,-0.52,-0.64,-0.44,0.75,0.75,0.74
29.78,1.21,0.47,1.21,0.47,-0.47,-0.67,-0.45,0.74,0.74,0.74
30.08,1.15,0.41,1.15,0.41,-0.42,-0.70,-0.46,0.73,0.73,0.74
30.38,1.09,0.36,1.09,0.36,-0.36,-0.73,-0.47,0.73,0.73,0.73
30.68,1.04,0.31,1.04,0.31,-0.31,-0.76,-0.48,0.73,0.73,0.73
30.99,0.98,0.27,0.99,0.27,-0.27,-0.79,-0.49,0.72,0.73,0.72
31.30,0.96,0.25,0.96,0.24,-0.24,-0.82,-0.51,0.72,0.72,0.72
31.61,0.94,0.23,0.93,0.22,-0.23,-0.85,-0.52,0.71,0.70,0.72
31.93,0.92,0.22,0.94,0.23,-0.25,-0.87,-0.53,0.67,0.69,0.70
32.24,0.96,0.27,0.96,0.27,-0.30,-0.90,-0.55,0.66,0.66,0.69
32.57,1.03,0.34,1.02,0.33,-0.37,-0.93,-0.56,0.66,0.65,0.69
32.89,1.10,0.41,1.12,0.43,-0.47,-0.96,-0.57,0.64,0.65,0.69
33.22,1.23,0.54,1.25,0.56,-0.57,-0.99,-0.59,0.66,0.67,0.69
33.55,1.39,0.71,1.39,0.71,-0.69,-1.01,-0.60,0.71,0.70,0.69
33.89,1.55,0.87,1.53,0.85,-0.80,-1.04,-0.62,0.75,0.73,0.68
34.23,1.64,0.96,1.64,0.96,-0.91,-1.07,-0.63,0.74,0.73,0.68
34.57,1.69,1.02,1.71,1.03,-1.00,-1.10,-0.65,0.70,0.71,0.67
34.92,1.75,1.08,1.75,1.08,-1.07,-1.13,-0.67,0.68,0.68,0.67
35.27,1.78,1.11,1.78,1.12,-1.12,-1.15,-0.68,0.66,0.66,0.67
35.62,1.80,1.15,1.81,1.15,-1.15,-1.18,-0.70,0.65,0.66,0.66
35.97,1.83,1.18,1.82,1.17,-1.17,-1.21,-0.72,0.66,0.65,0.65
36.33,1.83,1.18,1.83,1.18,-1.18,-1.23,-0.74,0.65,0.65,0.65
36.70,1.83,1.18,1.84,1.19,-1.19,-1.26,-0.76,0.64,0.64,0.65
37.06,1.83,1.20,1.83,1.19,-1.20,-1.29,-0.78,0.63,0.63,0.64
37.43,1.83,1.20,1.83,1.20,-1.20,-1.31,-0.80,0.63,0.63,0.63
37.81,1.83,1.20,1.83,1.20,-1.21,-1.34,-0.82,0.62,0.62,0.63
38.19,1.83,1.21,1.83,1.21,-1.21,-1.37,-0.84,0.62,0.62,0.62
38.57,1.83,1.22,1.83,1.22,-1.22,-1.39,-0.87,0.61,0.61,0.62
38.95,1.83,1.22,1.83,1.22,-1.22,-1.42,-0.89,0.61,0.61,0.61
39.34,1.83,1.23,1.83,1.23,-1.23,-1.45,-0.92,0.60,0.60,0.60
39.74,1.83,1.24,1.83,1.24,-1.23,-1.47,-0.94,0.60,0.60,0.59
40.14,1.83,1.24,1.83,1.24,-1.23,-1.50,-0.97,0.60,0.60,0.59
40.54,1.83,1.24,1.83,1.24,-1.24,-1.52,-0.99,0.60,0.60,0.59
40.94,1.83,1.25,1.83,1.25,-1.24,-1.55,-1.02,0.59,0.59,0.59
41.35,1.83,1.26,1.83,1.26,-1.25,-1.57,-1.05,0.58,0.58,0.57
41.76,1.83,1.27,1.83,1.27,-1.27,-1.60,-1.08,0.56,0.56,0.56
42.18,1.83,1.29,1.82,1.28,-1.31,-1.62,-1.11,0.53,0.52,0.55
42.60,1.83,1.31,1.83,1.30,-1.35,-1.65,-1.14,0.48,0.48,0.52
43.03,1.84,1.33,1.87,1.37,-1.41,-1.67,-1.17,0.43,0.46,0.51
43.46,1.93,1.45,1.94,1.46,-1.47,-1.70,-1.20,0.46,0.47,0.48
43.90,2.03,1.59,2.00,1.56,-1.53,-1.72,-1.24,0.50,0.47,0.44
44.33,2.05,1.64,2.05,1.64,-1.59,-1.75,-1.27,0.46,0.46,0.41
44.78,2.05,1.67,2.06,1.68,-1.64,-1.77,-1.31,0.41,0.42,0.38
45.23,2.05,1.70,2.05,1.70,-1.69,-1.79,-1.35,0.36,0.36,0.35
45.68,2.05,1.72,2.05,1.72,-1.73,-1.82,-1.38,0.33,0.33,0.33
46.13,2.05,1.74,2.05,1.74,-1.75,-1.84,-1.42,0.31,0.31,0.31
46.60,2.05,1.74,2.05,1.75,-1.76,-1.86,-1.46,0.30,0.30,0.31
47.06,2.05,1.76,2.05,1.76,-1.76,-1.89,-1.50,0.29,0.29,0.29
47.53,2.05,1.77,2.05,1.76,-1.76,-1.91,-1.54,0.29,0.29,0.29
48.01,2.05,1.76,2.05,1.77,-1.76,-1.93,-1.58,0.29,0.29,0.29
48.49,2.05,1.77,2.05,1.77,-1.76,-1.96,-1.63,0.29,0.29,0.28
48.97,2.05,1.78,2.05,1.77,-1.78,-1.98,-1.67,0.28,0.27,0.28
49.46,2.05,1.78,2.05,1.78,-1.79,-2.00,-1.71,0.26,0.26,0.27
49.96,2.05,1.78,2.05,1.78,-1.81,-2.03,-1.76,0.24,0.24,0.27
50.46,2.07,1.79,2.07,1.79,-1.83,-2.05,-1.80,0.24,0.24,0.28
50.96,2.10,1.81,2.14,1.85,-1.84,-2.07,-1.85,0.26,0.30,0.30
51.47,2.19,1.90,2.20,1.91,-1.85,-2.09,-1.89,0.34,0.35,0.29
51.99,2.28,2.00,2.21,1.92,-1.86,-2.12,-1.94,0.42,0.35,0.28
52.51,2.16,1.89,2.17,1.90,-1.87,-2.14,-1.99,0.30,0.30,0.27
53.03,2.05,1.80,2.10,1.85,-1.87,-2.16,-2.03,0.18,0.23,0.25
53.56,2.05,1.83,2.05,1.83,-1.89,-2.18,-2.08,0.17,0.16,0.22
54.10,2.05,1.87,2.04,1.86,-1.90,-2.20,-2.12,0.15,0.14,0.18
54.64,2.05,1.91,2.05,1.91,-1.93,-2.23,-2.17,0.13,0.13,0.14
55.18,2.05,1.95,2.05,1.95,-1.96,-2.25,-2.21,0.09,0.09,0.10
55.74,2.05,2.00,2.05,2.00,-2.00,-2.27,-2.25,0.05,0.05,0.05
56.29,2.05,2.04,2.05,2.05,-2.04,-2.29,-2.29,0.01,0.01,0.01
56.86,2.05,2.09,2.06,2.11,-2.09,-2.31,-2.33,-0.04,-0.02,-0.04
57.42,2.05,2.16,2.05,2.16,-2.12,-2.33,-2.37,-0.07,-0.07,-0.10
58.00,2.05,2.21,2.00,2.16,-2.14,-2.36,-2.41,-0.09,-0.14,-0.16
58.58,1.92,2.13,1.94,2.15,-2.14,-2.38,-2.44,-0.22,-0.20,-0.21
59.16,1.83,2.08,1.88,2.13,-2.13,-2.40,-2.47,-0.30,-0.25,-0.25
59.76,1.83,2.14,1.80,2.11,-2.11,-2.42,-2.50,-0.28,-0.30,-0.31
60.35,1.75,2.12,1.73,2.09,-2.07,-2.44,-2.53,-0.32,-0.35,-0.37
60.96,1.61,2.03,1.61,2.03,-2.03,-2.46,-2.56,-0.42,-0.42,-0.41
61.57,1.47,1.95,1.49,1.97,-1.98,-2.48,-2.58,-0.51,-0.49,-0.48
62.18,1.37,1.91,1.41,1.93,-1.94,-2.51,-2.60,-0.57,-0.53,-0.54
62.80,1.37,1.94,1.32,1.90,-1.90,-2.53,-2.62,-0.53,-0.57,-0.57
63.43,1.27,1.89,1.25,1.87,-1.87,-2.55,-2.64,-0.59,-0.61,-0.62
64.07,1.14,1.80,1.19,1.85,-1.85,-2.57,-2.65,-0.71,-0.66,-0.65
64.71,1.14,1.83,1.14,1.83,-1.85,-2.59,-2.66,-0.71,-0.71,-0.69
65.35,1.14,1.87,1.12,1.85,-1.88,-2.61,-2.67,-0.73,-0.75,-0.73
66.01,1.14,1.90,1.13,1.89,-1.92,-2.63,-2.68,-0.78,-0.79,-0.76
66.67,1.14,1.93,1.17,1.96,-1.98,-2.65,-2.68,-0.83,-0.80,-0.79
67.33,1.22,2.03,1.24,2.05,-2.05,-2.68,-2.69,-0.82,-0.81,-0.81
68.01,1.37,2.20,1.32,2.15,-2.13,-2.70,-2.69,-0.76,-0.81,-0.83
68.69,1.39,2.24,1.42,2.27,-2.23,-2.72,-2.69,-0.84,-0.81,-0.85
69.37,1.48,2.35,1.50,2.36,-2.34,-2.74,-2.69,-0.86,-0.84,-0.87
70.07,1.60,2.49,1.55,2.44,-2.45,-2.76,-2.69,-0.85,-0.90,-0.89
70.77,1.60,2.50,1.63,2.53,-2.57,-2.78,-2.68,-0.96,-0.93,-0.89
71.48,1.71,2.63,1.75,2.66,-2.68,-2.81,-2.68,-0.97,-0.93,-0.92
72.19,1.87,2.80,1.86,2.79,-2.79,-2.83,-2.68,-0.92,-0.93,-0.93
72.91,2.03,2.99,1.98,2.93,-2.91,-2.85,-2.68,-0.87,-0.93,-0.95
73.64,2.05,3.02,2.08,3.04,-3.02,-2.87,-2.67,-0.97,-0.95,-0.97
74.38,2.11,3.10,2.14,3.13,-3.14,-2.89,-2.67,-1.02,-1.00,-0.98
75.12,2.23,3.24,2.20,3.21,-3.24,-2.91,-2.67,-1.01,-1.04,-1.01
75.87,2.27,3.30,2.30,3.33,-3.33,-2.94,-2.67,-1.06,-1.03,-1.03
76.63,2.39,3.44,2.39,3.44,-3.41,-2.96,-2.67,-1.02,-1.01,-1.04
77.40,2.48,3.53,2.46,3.52,-3.48,-2.98,-2.67,-1.00,-1.02,-1.05
78.17,2.51,3.58,2.50,3.57,-3.55,-3.00,-2.67,-1.03,-1.04,-1.07
78.95,2.51,3.58,2.51,3.58,-3.61,-3.03,-2.67,-1.10,-1.09,-1.07
79.74,2.51,3.58,2.54,3.62,-3.66,-3.05,-2.67,-1.15,-1.12,-1.07
80.54,2.59,3.67,2.60,3.68,-3.71,-3.07,-2.68,-1.11,-1.11,-1.08
81.35,2.68,3.76,2.67,3.74,-3.74,-3.09,-2.69,-1.05,-1.07,-1.08
82.16,2.74,3.81,2.73,3.79,-3.76,-3.11,-2.70,-1.01,-1.03,-1.07
82.98,2.74,3.79,2.75,3.81,-3.77,-3.14,-2.71,-1.03,-1.02,-1.05
83.81,2.74,3.79,2.75,3.79,-3.78,-3.16,-2.72,-1.04,-1.03,-1.04
84.65,2.74,3.78,2.74,3.77,-3.78,-3.18,-2.74,-1.03,-1.03,-1.04
85.50,2.74,3.75,2.74,3.76,-3.76,-3.20,-2.76,-1.02,-1.02,-1.01
86.35,2.74,3.74,2.74,3.74,-3.74,-3.23,-2.78,-0.99,-0.99,-0.99
87.22,2.74,3.72,2.74,3.72,-3.71,-3.25,-2.80,-0.97,-0.97,-0.98
88.09,2.74,3.71,2.74,3.70,-3.70,-3.27,-2.82,-0.96,-0.96,-0.96
88.97,2.74,3.67,2.73,3.67,-3.71,-3.29,-2.85,-0.97,-0.98,-0.93
89.86,2.74,3.66,2.75,3.67,-3.72,-3.32,-2.88,-0.98,-0.98,-0.92
90.76,2.76,3.67,2.80,3.71,-3.75,-3.34,-2.91,-0.98,-0.94,-0.91
91.66,2.89,3.78,2.87,3.77,-3.77,-3.36,-2.94,-0.88,-0.90,-0.89
92.58,2.96,3.86,2.93,3.82,-3.79,-3.38,-2.98,-0.83,-0.85,-0.90
93.51,2.96,3.83,2.97,3.85,-3.80,-3.40,-3.01,-0.84,-0.82,-0.87
94.44,2.96,3.83,2.98,3.85,-3.80,-3.43,-3.05,-0.83,-0.82,-0.87
95.39,2.96,3.83,2.95,3.83,-3.79,-3.45,-3.09,-0.82,-0.83,-0.87
96.34,2.93,3.82,2.90,3.78,-3.77,-3.47,-3.14,-0.83,-0.86,-0.89
97.30,2.82,3.71,2.83,3.72,-3.74,-3.49,-3.18,-0.92,-0.90,-0.88
98.28,2.74,3.64,2.77,3.67,-3.71,-3.51,-3.23,-0.97,-0.94,-0.89
99.26,2.74,3.64,2.74,3.64,-3.68,-3.53,-3.28,-0.94,-0.95,-0.90
100.25,2.74,3.65,2.73,3.65,-3.67,-3.55,-3.33,-0.93,-0.93,-0.91
101.25,2.74,3.67,2.74,3.67,-3.67,-3.57,-3.38,-0.92,-0.92,-0.93
102.27,2.74,3.69,2.74,3.69,-3.68,-3.59,-3.43,-0.94,-0.94,-0.95
103.29,2.74,3.72,2.74,3.72,-3.70,-3.61,-3.48,-0.96,-0.96,-0.98
104.32,2.74,3.74,2.74,3.74,-3.74,-3.63,-3.53,-0.99,-0.99,-1.00
105.37,2.74,3.77,2.74,3.77,-3.78,-3.65,-3.58,-1.03,-1.03,-1.03
106.42,2.74,3.81,2.74,3.81,-3.82,-3.67,-3.64,-1.08,-1.08,-1.07
107.48,2.74,3.86,2.74,3.86,-3.87,-3.69,-3.69,-1.13,-1.13,-1.12
108.56,2.74,3.92,2.74,3.91,-3.92,-3.70,-3.74,-1.18,-1.18,-1.18
109.64,2.74,3.97,2.74,3.96,-3.98,-3.72,-3.79,-1.23,-1.23,-1.23
110.74,2.74,4.02,2.74,4.02,-4.03,-3.74,-3.84,-1.28,-1.28,-1.27
111.85,2.74,4.07,2.75,4.07,-4.07,-3.75,-3.89,-1.33,-1.32,-1.32
112.97,2.74,4.13,2.75,4.14,-4.11,-3.77,-3.93,-1.36,-1.35,-1.39
114.10,2.74,4.18,2.73,4.18,-4.14,-3.79,-3.97,-1.40,-1.41,-1.44
115.24,2.71,4.21,2.68,4.18,-4.17,-3.80,-4.01,-1.45,-1.49,-1.50
116.39,2.58,4.14,2.60,4.16,-4.18,-3.81,-4.05,-1.60,-1.58,-1.56
117.55,2.51,4.12,2.54,4.14,-4.19,-3.83,-4.08,-1.68,-1.65,-1.60
118.73,2.51,4.16,2.52,4.16,-4.18,-3.84,-4.11,-1.67,-1.67,-1.65
119.92,2.51,4.19,2.50,4.19,-4.17,-3.85,-4.13,-1.65,-1.66,-1.68
121.12,2.50,4.22,2.46,4.17,-4.14,-3.87,-4.16,-1.64,-1.68,-1.72
122.33,2.36,4.10,2.40,4.13,-4.10,-3.88,-4.17,-1.74,-1.71,-1.74
123.55,2.28,4.03,2.31,4.07,-4.06,-3.89,-4.18,-1.78,-1.75,-1.75
124.79,2.28,4.06,2.23,4.00,-4.01,-3.90,-4.19,-1.73,-1.78,-1.77
126.03,2.13,3.92,2.17,3.96,-3.96,-3.91,-4.19,-1.82,-1.79,-1.79
127.29,2.08,3.88,2.07,3.88,-3.90,-3.92,-4.19,-1.82,-1.83,-1.80
128.57,2.00,3.83,1.97,3.79,-3.84,-3.92,-4.18,-1.84,-1.88,-1.83
129.85,1.85,3.69,1.91,3.75,-3.78,-3.93,-4.17,-1.92,-1.87,-1.84
131.15,1.83,3.69,1.84,3.70,-3.70,-3.94,-4.15,-1.87,-1.86,-1.85
132.46,1.83,3.71,1.79,3.66,-3.62,-3.94,-4.13,-1.78,-1.83,-1.88
133.79,1.69,3.58,1.71,3.60,-3.52,-3.95,-4.11,-1.82,-1.81,-1.89
135.12,1.58,3.50,1.56,3.47,-3.41,-3.95,-4.08,-1.83,-1.85,-1.92
136.48,1.37,3.30,1.37,3.30,-3.29,-3.95,-4.05,-1.92,-1.93,-1.93
137.84,1.16,3.11,1.19,3.15,-3.17,-3.96,-4.01,-2.01,-1.98,-1.95
139.22,1.02,3.01,1.03,3.01,-3.05,-3.96,-3.98,-2.03,-2.02,-1.99
140.61,0.93,2.95,0.90,2.92,-2.94,-3.96,-3.94,-2.01,-2.04,-2.02
142.02,0.80,2.83,0.81,2.84,-2.85,-3.96,-3.90,-2.05,-2.04,-2.03
143.44,0.72,2.78,0.74,2.79,-2.80,-3.96,-3.86,-2.07,-2.06,-2.06
144.87,0.69,2.78,0.69,2.78,-2.78,-3.96,-3.81,-2.09,-2.09,-2.08
146.32,0.69,2.81,0.68,2.79,-2.81,-3.96,-3.77,-2.12,-2.14,-2.12
147.78,0.69,2.84,0.68,2.84,-2.88,-3.95,-3.73,-2.19,-2.20,-2.15
149.26,0.69,2.89,0.71,2.92,-2.99,-3.95,-3.68,-2.30,-2.28,-2.20
150.75,0.79,3.06,0.80,3.06,-3.12,-3.94,-3.64,-2.33,-2.32,-2.27
152.26,0.90,3.22,0.92,3.24,-3.26,-3.94,-3.60,-2.36,-2.34,-2.32
153.78,1.07,3.46,1.04,3.43,-3.39,-3.93,-3.55,-2.32,-2.35,-2.38
155.32,1.13,3.60,1.12,3.58,-3.50,-3.92,-3.51,-2.37,-2.38,-2.47
156.88,1.14,3.67,1.16,3.69,-3.58,-3.92,-3.47,-2.44,-2.42,-2.53
158.44,1.14,3.73,1.14,3.73,-3.63,-3.91,-3.43,-2.49,-2.49,-2.59
160.03,1.08,3.74,1.06,3.71,-3.64,-3.90,-3.39,-2.56,-2.59,-2.65
161.63,0.94,3.65,0.93,3.63,-3.63,-3.89,-3.36,-2.69,-2.70,-2.70
163.24,0.77,3.52,0.80,3.55,-3.61,-3.88,-3.33,-2.84,-2.81,-2.75
164.88,0.69,3.47,0.71,3.49,-3.59,-3.87,-3.30,-2.90,-2.88,-2.77
166.53,0.69,3.50,0.67,3.47,-3.58,-3.85,-3.27,-2.89,-2.91,-2.80
168.19,0.69,3.52,0.71,3.53,-3.58,-3.84,-3.24,-2.89,-2.87,-2.82
169.87,0.74,3.57,0.77,3.60,-3.59,-3.82,-3.21,-2.85,-2.82,-2.83
171.57,0.88,3.71,0.84,3.67,-3.62,-3.81,-3.19,-2.73,-2.77,-2.83
173.29,0.91,3.73,0.90,3.71,-3.65,-3.79,-3.17,-2.74,-2.75,-2.82
175.02,0.91,3.70,0.92,3.72,-3.68,-3.78,-3.16,-2.77,-2.76,-2.79
176.77,0.91,3.70,0.92,3.70,-3.70,-3.76,-3.14,-2.79,-2.79,-2.79
178.54,0.91,3.69,0.91,3.68,-3.71,-3.74,-3.13,-2.80,-2.80,-2.77
180.32,0.91,3.67,0.91,3.67,-3.70,-3.72,-3.12,-2.79,-2.79,-2.76
182.13,0.91,3.66,0.91,3.66,-3.67,-3.70,-3.11,-2.76,-2.76,-2.74
183.95,0.91,3.65,0.93,3.67,-3.64,-3.68,-3.10,-2.73,-2.71,-2.74
185.79,0.91,3.65,0.91,3.65,-3.61,-3.66,-3.10,-2.70,-2.70,-2.74
187.65,0.91,3.67,0.85,3.61,-3.59,-3.64,-3.10,-2.68,-2.74,-2.76
189.52,0.74,3.51,0.78,3.55,-3.57,-3.61,-3.10,-2.83,-2.79,-2.77
191.42,0.69,3.47,0.72,3.50,-3.55,-3.59,-3.11,-2.85,-2.83,-2.78
193.33,0.69,3.48,0.68,3.47,-3.51,-3.56,-3.11,-2.82,-2.84,-2.79
195.27,0.69,3.49,0.70,3.50,-3.48,-3.54,-3.12,-2.79,-2.78,-2.79
197.22,0.69,3.50,0.69,3.50,-3.45,-3.51,-3.13,-2.76,-2.76,-2.81
199.19,0.68,3.52,0.64,3.46,-3.42,-3.49,-3.14,-2.74,-2.78,-2.84
201.18,0.55,3.39,0.57,3.41,-3.39,-3.46,-3.15,-2.84,-2.83,-2.84
203.19,0.46,3.31,0.50,3.35,-3.37,-3.43,-3.16,-2.91,-2.87,-2.85
205.23,0.46,3.33,0.45,3.31,-3.35,-3.40,-3.18,-2.89,-2.90,-2.87
207.28,0.46,3.33,0.45,3.33,-3.34,-3.37,-3.19,-2.88,-2.89,-2.87
209.35,0.46,3.35,0.46,3.35,-3.35,-3.34,-3.21,-2.89,-2.89,-2.89
211.44,0.46,3.37,0.44,3.34,-3.37,-3.31,-3.23,-2.91,-2.93,-2.90
213.56,0.46,3.37,0.47,3.37,-3.41,-3.27,-3.24,-2.95,-2.94,-2.90
215.69,0.46,3.36,0.53,3.44,-3.46,-3.24,-3.26,-3.00,-2.93,-2.90
217.85,0.67,3.59,0.61,3.53,-3.52,-3.21,-3.27,-2.84,-2.91,-2.92
220.03,0.69,3.62,0.68,3.61,-3.57,-3.17,-3.28,-2.87,-2.89,-2.93
222.23,0.69,3.64,0.71,3.65,-3.60,-3.14,-3.30,-2.91,-2.89,-2.94
224.45,0.69,3.63,0.69,3.64,-3.63,-3.10,-3.31,-2.94,-2.94,-2.94
226.70,0.69,3.63,0.70,3.64,-3.64,-3.06,-3.31,-2.95,-2.95,-2.94
228.96,0.69,3.64,0.71,3.65,-3.63,-3.02,-3.32,-2.94,-2.92,-2.95
231.25,0.69,3.63,0.67,3.62,-3.60,-2.98,-3.32,-2.91,-2.93,-2.94
233.57,0.65,3.60,0.61,3.55,-3.54,-2.94,-3.32,-2.89,-2.94,-2.95
235.90,0.47,3.43,0.55,3.50,-3.48,-2.90,-3.32,-3.01,-2.93,-2.95
238.26,0.46,3.41,0.47,3.42,-3.41,-2.86,-3.31,-2.95,-2.94,-2.95
240.64,0.46,3.41,0.39,3.33,-3.35,-2.82,-3.30,-2.88,-2.96,-2.95
243.05,0.30,3.23,0.33,3.26,-3.28,-2.77,-3.29,-2.98,-2.95,-2.93
245.48,0.23,3.16,0.26,3.19,-3.22,-2.73,-3.27,-2.99,-2.96,-2.93
247.93,0.23,3.14,0.22,3.14,-3.18,-2.68,-3.25,-2.94,-2.96,-2.91
250.41,0.23,3.15,0.23,3.13,-3.14,-2.64,-3.22,-2.91,-2.92,-2.92
252.92,0.23,3.13,0.23,3.13,-3.12,-2.59,-3.18,-2.89,-2.89,-2.90
255.45,0.23,3.11,0.23,3.12,-3.11,-2.54,-3.15,-2.87,-2.87,-2.87
258.00,0.23,3.10,0.23,3.10,-3.10,-2.49,-3.11,-2.87,-2.87,-2.87
260.58,0.23,3.10,0.23,3.09,-3.10,-2.44,-3.06,-2.87,-2.87,-2.86
263.19,0.23,3.08,0.23,3.08,-3.09,-2.39,-3.01,-2.86,-2.86,-2.85
265.82,0.23,3.07,0.23,3.07,-3.06,-2.33,-2.95,-2.83,-2.83,-2.84
268.48,0.23,3.05,0.24,3.06,-3.03,-2.28,-2.90,-2.79,-2.78,-2.81
271.16,0.23,3.03,0.23,3.03,-2.98,-2.22,-2.83,-2.75,-2.75,-2.80
273.87,0.23,3.01,0.19,2.96,-2.94,-2.16,-2.77,-2.70,-2.75,-2.78
276.61,0.10,2.85,0.12,2.87,-2.88,-2.11,-2.70,-2.78,-2.76,-2.74
279.38,0.02,2.75,0.05,2.77,-2.82,-2.05,-2.63,-2.80,-2.77,-2.73
282.17,0.00,2.70,0.00,2.70,-2.76,-1.98,-2.55,-2.75,-2.76,-2.70
284.99,0.00,2.68,0.01,2.68,-2.69,-1.92,-2.47,-2.69,-2.68,-2.67
287.84,0.00,2.65,0.00,2.65,-2.62,-1.86,-2.39,-2.62,-2.62,-2.65
290.72,0.00,2.61,-0.04,2.57,-2.55,-1.79,-2.31,-2.55,-2.59,-2.61
293.63,-0.11,2.47,-0.11,2.48,-2.48,-1.72,-2.23,-2.59,-2.58,-2.58
296.57,-0.21,2.35,-0.16,2.40,-2.39,-1.66,-2.15,-2.60,-2.55,-2.55
299.53,-0.23,2.30,-0.23,2.30,-2.29,-1.58,-2.06,-2.52,-2.52,-2.53
302.53,-0.23,2.28,-0.29,2.21,-2.18,-1.51,-1.97,-2.41,-2.47,-2.51
305.55,-0.42,2.05,-0.38,2.10,-2.05,-1.44,-1.89,-2.47,-2.43,-2.47
308.61,-0.51,1.95,-0.52,1.93,-1.93,-1.36,-1.80,-2.44,-2.45,-2.45
311.69,-0.66,1.78,-0.68,1.75,-1.81,-1.28,-1.71,-2.47,-2.49,-2.43
314.81,-0.82,1.59,-0.78,1.64,-1.69,-1.21,-1.62,-2.51,-2.47,-2.41
317.96,-0.90,1.51,-0.88,1.52,-1.56,-1.12,-1.53,-2.46,-2.45,-2.41
321.14,-0.92,1.49,-0.97,1.44,-1.43,-1.04,-1.45,-2.34,-2.40,-2.41
324.35,-1.09,1.31,-1.06,1.35,-1.29,-0.95,-1.36,-2.38,-2.35,-2.40
327.59,-1.17,1.23,-1.17,1.22,-1.16,-0.87,-1.27,-2.32,-2.33,-2.39
330.87,-1.32,1.07,-1.33,1.06,-1.03,-0.78,-1.18,-2.35,-2.36,-2.39
334.18,-1.47,0.91,-1.50,0.88,-0.91,-0.69,-1.09,-2.38,-2.41,-2.38
337.52,-1.70,0.67,-1.66,0.71,-0.78,-0.59,-1.01,-2.48,-2.44,-2.37
340.90,-1.80,0.54,-1.76,0.58,-0.65,-0.50,-0.92,-2.44,-2.41,-2.34
344.30,-1.82,0.51,-1.84,0.49,-0.50,-0.40,-0.83,-2.32,-2.34,-2.33
347.75,-1.88,0.44,-1.90,0.41,-0.35,-0.30,-0.74,-2.23,-2.25,-2.31
351.23,-2.01,0.28,-2.01,0.28,-0.20,-0.20,-0.66,-2.21,-2.21,-2.28
354.74,-2.15,0.12,-2.16,0.10,-0.05,-0.10,-0.57,-2.20,-2.21,-2.27
358.28,-2.37,-0.13,-2.34,-0.10,0.10,-0.00,-0.49,-2.27,-2.24,-2.24
361.87,-2.48,-0.26,-2.50,-0.28,0.25,0.10,-0.40,-2.23,-2.25,-2.22
365.49,-2.67,-0.48,-2.65,-0.46,0.41,0.20,-0.32,-2.26,-2.24,-2.19
369.14,-2.75,-0.58,-2.77,-0.60,0.56,0.30,-0.23,-2.19,-2.21,-2.17
372.83,-2.90,-0.76,-2.88,-0.73,0.71,0.41,-0.15,-2.18,-2.16,-2.14
376.56,-2.96,-0.84,-2.96,-0.84,0.86,0.51,-0.07,-2.10,-2.10,-2.12
380.33,-3.05,-0.96,-3.07,-0.97,1.00,0.61,0.02,-2.05,-2.07,-2.09
384.13,-3.16,-1.08,-3.17,-1.09,1.14,0.70,0.10,-2.02,-2.03,-2.07
387.97,-3.34,-1.27,-3.30,-1.24,1.27,0.80,0.18,-2.06,-2.03,-2.06
391.85,-3.42,-1.36,-3.44,-1.39,1.41,0.89,0.26,-2.01,-2.04,-2.06
395.77,-3.58,-1.53,-3.58,-1.54,1.53,0.98,0.34,-2.05,-2.05,-2.05
399.73,-3.71,-1.67,-3.71,-1.67,1.64,1.06,0.42,-2.07,-2.07,-2.04
403.72,-3.83,-1.80,-3.81,-1.78,1.73,1.14,0.50,-2.10,-2.08,-2.03
407.76,-3.87,-1.85,-3.86,-1.84,1.80,1.21,0.57,-2.07,-2.06,-2.02
411.84,-3.87,-1.86,-3.88,-1.87,1.85,1.28,0.65,-2.01,-2.02,-2.01
415.96,-3.87,-1.87,-3.87,-1.87,1.89,1.34,0.73,-1.98,-1.98,-2.00
420.12,-3.87,-1.87,-3.87,-1.87,1.90,1.39,0.80,-1.97,-1.97,-2.00
424.32,-3.87,-1.87,-3.87,-1.87,1.90,1.43,0.87,-1.97,-1.97,-2.00
428.56,-3.87,-1.87,-3.87,-1.87,1.89,1.47,0.94,-1.98,-1.98,-2.00
432.85,-3.87,-1.87,-3.88,-1.89,1.87,1.50,1.01,-2.00,-2.01,-2.00
437.18,-3.87,-1.88,-3.87,-1.87,1.85,1.53,1.07,-2.02,-2.02,-1.99
441.55,-3.87,-1.89,-3.81,-1.82,1.82,1.54,1.14,-2.05,-1.99,-1.98
445.96,-3.71,-1.72,-3.74,-1.76,1.78,1.55,1.20,-1.93,-1.97,-1.98
450.42,-3.64,-1.66,-3.69,-1.72,1.71,1.55,1.26,-1.92,-1.98,-1.97
454.93,-3.64,-1.67,-3.61,-1.65,1.63,1.55,1.31,-2.00,-1.98,-1.96
459.48,-3.60,-1.64,-3.53,-1.58,1.54,1.54,1.36,-2.06,-1.99,-1.95
464.07,-3.35,-1.41,-3.39,-1.45,1.44,1.53,1.41,-1.91,-1.95,-1.93
468.71,-3.22,-1.30,-3.23,-1.31,1.32,1.51,1.45,-1.90,-1.90,-1.92
473.40,-3.05,-1.14,-3.06,-1.16,1.20,1.49,1.49,-1.85,-1.86,-1.91
478.13,-2.97,-1.09,-2.94,-1.06,1.07,1.46,1.52,-1.90,-1.87,-1.88
482.91,-2.78,-0.92,-2.80,-0.95,0.94,1.44,1.55,-1.84,-1.86,-1.86
487.74,-2.68,-0.85,-2.65,-0.82,0.81,1.41,1.58,-1.87,-1.84,-1.83
