frequency,raw,error,smoothed,error_smoothed,equalization,parametric_eq,equalized_raw,equalized_smoothed,target
20,-13.55,-16.74,-13.36,-16.49,6.00,3.03,-7.55,-7.36,3.18
21,-12.61,-15.80,-12.61,-15.75,6.00,3.46,-6.61,-6.61,3.18
22,-11.82,-15.01,-11.88,-15.03,6.00,3.94,-5.82,-5.88,3.18
23,-11.16,-14.35,-11.17,-14.33,6.00,4.45,-5.16,-5.17,3.18
24,-10.36,-13.55,-10.49,-13.65,6.00,5.00,-4.36,-4.49,3.18
25,-9.73,-12.92,-9.83,-13.00,6.00,5.56,-3.73,-3.83,3.18
26,-9.13,-12.32,-9.20,-12.37,6.00,6.13,-3.13,-3.20,3.18
27,-8.56,-11.75,-8.59,-11.76,6.00,6.67,-2.56,-2.59,3.18
28,-7.97,-11.16,-8.00,-11.18,6.00,7.14,-1.97,-2.00,3.18
29,-7.41,-10.60,-7.43,-10.62,6.00,7.52,-1.41,-1.43,3.18
30,-6.86,-10.05,-6.89,-10.08,6.00,7.76,-0.86,-0.89,3.18
31,-6.41,-9.60,-6.39,-9.57,6.00,7.85,-0.41,-0.39,3.18
32,-5.97,-9.16,-5.92,-9.09,6.00,7.78,0.03,0.08,3.18
33,-5.46,-8.65,-5.45,-8.63,6.00,7.58,0.54,0.55,3.18
34,-4.97,-8.16,-5.01,-8.18,6.00,7.28,1.03,0.99,3.18
35,-4.64,-7.83,-4.58,-7.76,6.00,6.91,1.36,1.42,3.18
36,-4.16,-7.35,-4.17,-7.34,6.00,6.50,1.84,1.83,3.18
37,-3.71,-6.90,-3.77,-6.95,6.00,6.08,2.29,2.23,3.18
38,-3.38,-6.57,-3.39,-6.56,5.94,5.66,2.55,2.55,3.18
39,-3.01,-6.20,-3.02,-6.19,5.81,5.25,2.79,2.79,3.18
40,-2.64,-5.83,-2.65,-5.83,5.62,4.86,2.97,2.97,3.18
41,-2.36,-5.55,-2.30,-5.49,5.38,4.49,3.02,3.08,3.18
42,-1.93,-5.12,-1.97,-5.15,5.12,4.14,3.19,3.15,3.18
43,-1.66,-4.85,-1.65,-4.83,4.83,3.82,3.17,3.18,3.18
44,-1.40,-4.59,-1.34,-4.52,4.52,3.52,3.12,3.18,3.18
45,-0.99,-4.18,-1.04,-4.22,4.22,3.24,3.23,3.18,3.18
46,-0.74,-3.93,-0.76,-3.93,3.93,2.98,3.19,3.17,3.18
47,-0.50,-3.69,-0.48,-3.65,3.65,2.73,3.15,3.17,3.18
48,-0.10,-3.29,-0.20,-3.39,3.39,2.50,3.28,3.18,3.18
49,0.04,-3.15,0.05,-3.13,3.13,2.29,3.16,3.18,3.18
50,0.23,-2.96,0.30,-2.88,2.88,2.09,3.11,3.18,3.18
51,0.56,-2.63,0.55,-2.64,2.64,1.90,3.20,3.18,3.18
52,0.73,-2.46,0.77,-2.41,2.41,1.72,3.14,3.18,3.18
53,1.02,-2.17,0.99,-2.19,2.19,1.56,3.20,3.18,3.18
54,1.23,-1.96,1.21,-1.97,1.97,1.40,3.20,3.18,3.18
55,1.44,-1.75,1.41,-1.76,1.76,1.25,3.20,3.17,3.18
56,1.64,-1.55,1.62,-1.56,1.56,1.11,3.20,3.18,3.18
57,1.84,-1.35,1.81,-1.37,1.37,0.98,3.20,3.18,3.18
58,1.90,-1.29,2.00,-1.18,1.18,0.86,3.08,3.18,3.18
59,2.18,-1.01,2.18,-1.00,1.00,0.74,3.18,3.19,3.18
60,2.34,-0.85,2.35,-0.83,0.83,0.63,3.17,3.18,3.18
61,2.50,-0.69,2.51,-0.66,0.66,0.53,3.16,3.18,3.18
62,2.76,-0.43,2.67,-0.51,0.51,0.43,3.26,3.18,3.18
63,2.83,-0.36,2.81,-0.35,0.35,0.34,3.18,3.17,3.18
64,2.99,-0.20,2.96,-0.21,0.21,0.26,3.20,3.17,3.18
65,3.15,-0.04,3.11,-0.07,0.07,0.18,3.22,3.18,3.18
66,3.18,-0.01,3.24,0.06,-0.06,0.10,3.11,3.18,3.18
67,3.35,0.16,3.37,0.19,-0.19,0.03,3.16,3.18,3.18
68,3.48,0.29,3.49,0.31,-0.31,-0.04,3.17,3.18,3.18
69,3.55,0.36,3.61,0.43,-0.43,-0.11,3.12,3.18,3.18
70,3.80,0.61,3.72,0.54,-0.54,-0.17,3.26,3.18,3.18
71,3.80,0.61,3.82,0.64,-0.64,-0.23,3.15,3.18,3.18
72,3.87,0.68,3.91,0.74,-0.74,-0.29,3.12,3.17,3.18
73,4.13,0.94,4.01,0.84,-0.84,-0.35,3.28,3.17,3.18
74,4.13,0.94,4.11,0.94,-0.94,-0.41,3.19,3.17,3.18
75,4.13,0.94,4.21,1.03,-1.03,-0.47,3.10,3.18,3.18
76,4.28,1.09,4.30,1.11,-1.11,-0.52,3.17,3.19,3.18
77,4.43,1.24,4.37,1.19,-1.19,-0.58,3.24,3.18,3.18
78,4.45,1.26,4.44,1.26,-1.26,-0.64,3.19,3.18,3.18
79,4.45,1.26,4.51,1.33,-1.33,-0.69,3.12,3.18,3.18
80,4.54,1.35,4.57,1.39,-1.39,-0.75,3.15,3.17,3.18
81,4.68,1.49,4.63,1.45,-1.45,-0.81,3.22,3.18,3.18
82,4.78,1.59,4.69,1.51,-1.51,-0.87,3.27,3.18,3.18
83,4.78,1.59,4.74,1.56,-1.56,-0.93,3.21,3.17,3.18
84,4.78,1.59,4.79,1.62,-1.62,-0.99,3.16,3.17,3.18
85,4.78,1.59,4.84,1.67,-1.67,-1.05,3.11,3.17,3.18
86,4.87,1.68,4.89,1.72,-1.72,-1.11,3.15,3.17,3.18
87,4.94,1.75,4.94,1.77,-1.77,-1.17,3.17,3.17,3.18
88,4.96,1.77,5.00,1.82,-1.82,-1.23,3.13,3.18,3.18
89,5.09,1.90,5.05,1.87,-1.87,-1.29,3.21,3.18,3.18
90,5.10,1.91,5.10,1.92,-1.92,-1.36,3.17,3.18,3.18
91,5.10,1.91,5.15,1.97,-1.97,-1.42,3.12,3.17,3.18
92,5.14,1.95,5.19,2.02,-2.02,-1.49,3.11,3.17,3.18
93,5.26,2.07,5.24,2.07,-2.07,-1.55,3.19,3.17,3.18
94,5.38,2.19,5.28,2.11,-2.11,-1.62,3.26,3.17,3.18
95,5.42,2.23,5.33,2.16,-2.16,-1.68,3.26,3.17,3.18
96,5.42,2.23,5.37,2.21,-2.21,-1.75,3.21,3.16,3.18
97,5.42,2.23,5.41,2.25,-2.25,-1.82,3.17,3.16,3.18
98,5.42,2.23,5.46,2.29,-2.29,-1.89,3.12,3.17,3.18
99,5.42,2.23,5.50,2.34,-2.34,-1.95,3.08,3.16,3.18
100,5.43,2.24,5.54,2.37,-2.37,-2.02,3.05,3.17,3.18
101,5.55,2.36,5.58,2.41,-2.41,-2.09,3.13,3.17,3.18
102,5.59,2.40,5.61,2.45,-2.45,-2.15,3.14,3.17,3.18
104,5.72,2.53,5.64,2.48,-2.48,-2.28,3.24,3.16,3.18
105,5.75,2.56,5.66,2.50,-2.50,-2.34,3.24,3.16,3.18
106,5.75,2.56,5.69,2.53,-2.53,-2.41,3.22,3.16,3.18
107,5.75,2.56,5.72,2.55,-2.55,-2.47,3.20,3.17,3.18
108,5.75,2.56,5.74,2.56,-2.56,-2.52,3.18,3.18,3.18
109,5.75,2.56,5.76,2.57,-2.57,-2.58,3.17,3.18,3.18
110,5.75,2.56,5.77,2.58,-2.58,-2.64,3.17,3.19,3.18
111,5.75,2.56,5.77,2.58,-2.58,-2.69,3.16,3.18,3.18
112,5.75,2.56,5.76,2.58,-2.58,-2.74,3.16,3.18,3.18
113,5.75,2.56,5.76,2.58,-2.58,-2.78,3.17,3.18,3.18
114,5.75,2.56,5.75,2.57,-2.57,-2.83,3.17,3.17,3.18
115,5.75,2.56,5.75,2.57,-2.57,-2.87,3.18,3.18,3.18
117,5.75,2.56,5.75,2.57,-2.57,-2.94,3.18,3.18,3.18
118,5.75,2.56,5.75,2.56,-2.56,-2.97,3.18,3.18,3.18
119,5.75,2.56,5.75,2.56,-2.56,-3.00,3.18,3.18,3.18
120,5.75,2.56,5.75,2.56,-2.56,-3.02,3.19,3.19,3.18
121,5.75,2.56,5.75,2.56,-2.56,-3.04,3.19,3.19,3.18
123,5.75,2.56,5.75,2.56,-2.56,-3.07,3.19,3.19,3.18
124,5.75,2.56,5.75,2.56,-2.56,-3.08,3.19,3.19,3.18
125,5.75,2.56,5.75,2.56,-2.56,-3.08,3.19,3.19,3.18
126,5.75,2.56,5.75,2.56,-2.56,-3.08,3.18,3.18,3.18
128,5.75,2.56,5.75,2.56,-2.56,-3.08,3.18,3.18,3.18
129,5.75,2.56,5.75,2.57,-2.57,-3.07,3.18,3.18,3.18
130,5.75,2.56,5.75,2.57,-2.57,-3.06,3.18,3.18,3.18
131,5.75,2.56,5.75,2.57,-2.57,-3.05,3.17,3.17,3.18
133,5.75,2.56,5.75,2.58,-2.58,-3.01,3.17,3.18,3.18
134,5.75,2.56,5.76,2.58,-2.58,-2.99,3.17,3.18,3.18
135,5.75,2.56,5.76,2.58,-2.58,-2.97,3.16,3.18,3.18
137,5.75,2.56,5.76,2.58,-2.58,-2.91,3.17,3.18,3.18
138,5.75,2.56,5.76,2.57,-2.57,-2.88,3.17,3.19,3.18
140,5.75,2.56,5.75,2.56,-2.56,-2.82,3.18,3.18,3.18
141,5.75,2.56,5.73,2.55,-2.55,-2.79,3.20,3.18,3.18
142,5.75,2.56,5.71,2.53,-2.53,-2.75,3.22,3.18,3.18
144,5.75,2.56,5.68,2.51,-2.51,-2.68,3.24,3.17,3.18
145,5.75,2.56,5.65,2.48,-2.48,-2.65,3.27,3.17,3.18
147,5.60,2.41,5.62,2.45,-2.45,-2.57,3.15,3.17,3.18
148,5.59,2.40,5.58,2.42,-2.42,-2.53,3.17,3.16,3.18
150,5.54,2.35,5.55,2.39,-2.39,-2.46,3.15,3.16,3.18
151,5.46,2.27,5.52,2.36,-2.36,-2.42,3.10,3.16,3.18
153,5.42,2.23,5.50,2.33,-2.33,-2.35,3.08,3.16,3.18
154,5.42,2.23,5.47,2.31,-2.31,-2.31,3.11,3.16,3.18
156,5.42,2.23,5.45,2.28,-2.28,-2.24,3.13,3.16,3.18
157,5.42,2.23,5.43,2.26,-2.26,-2.20,3.15,3.17,3.18
159,5.42,2.23,5.41,2.24,-2.24,-2.13,3.17,3.16,3.18
160,5.42,2.23,5.39,2.22,-2.22,-2.09,3.19,3.16,3.18
162,5.42,2.23,5.37,2.20,-2.20,-2.03,3.21,3.17,3.18
164,5.42,2.23,5.35,2.18,-2.18,-1.96,3.23,3.16,3.18
165,5.42,2.23,5.33,2.16,-2.16,-1.93,3.26,3.17,3.18
167,5.30,2.11,5.31,2.13,-2.13,-1.87,3.17,3.18,3.18
169,5.26,2.07,5.29,2.10,-2.10,-1.81,3.16,3.19,3.18
170,5.26,2.07,5.25,2.06,-2.06,-1.78,3.19,3.18,3.18
172,5.13,1.94,5.20,2.03,-2.03,-1.72,3.10,3.18,3.18
174,5.10,1.91,5.15,1.98,-1.98,-1.67,3.11,3.17,3.18
175,5.10,1.91,5.10,1.94,-1.94,-1.64,3.16,3.17,3.18
177,5.10,1.91,5.06,1.89,-1.89,-1.59,3.20,3.17,3.18
179,5.10,1.91,5.02,1.85,-1.85,-1.54,3.25,3.17,3.18
181,5.04,1.85,4.97,1.80,-1.80,-1.50,3.23,3.17,3.18
183,4.91,1.72,4.93,1.76,-1.76,-1.45,3.15,3.18,3.18
184,4.85,1.66,4.90,1.71,-1.71,-1.43,3.13,3.18,3.18
186,4.78,1.59,4.85,1.67,-1.67,-1.39,3.10,3.18,3.18
188,4.78,1.59,4.81,1.63,-1.63,-1.35,3.15,3.18,3.18
190,4.78,1.59,4.76,1.59,-1.59,-1.32,3.19,3.18,3.18
192,4.78,1.59,4.71,1.54,-1.54,-1.28,3.23,3.17,3.18
194,4.74,1.55,4.67,1.50,-1.50,-1.25,3.23,3.17,3.18
196,4.62,1.43,4.64,1.46,-1.46,-1.22,3.15,3.17,3.18
198,4.61,1.42,4.60,1.43,-1.43,-1.19,3.18,3.18,3.18
200,4.56,1.37,4.57,1.39,-1.39,-1.16,3.17,3.18,3.18
202,4.45,1.26,4.53,1.35,-1.35,-1.13,3.10,3.18,3.18
204,4.45,1.26,4.49,1.31,-1.31,-1.10,3.14,3.18,3.18
206,4.45,1.26,4.44,1.27,-1.27,-1.08,3.18,3.17,3.18
208,4.45,1.26,4.39,1.23,-1.23,-1.05,3.22,3.16,3.18
210,4.45,1.26,4.35,1.19,-1.19,-1.03,3.25,3.16,3.18
212,4.39,1.20,4.32,1.15,-1.15,-1.00,3.23,3.16,3.18
214,4.28,1.09,4.29,1.12,-1.12,-0.98,3.16,3.17,3.18
216,4.18,0.99,4.26,1.08,-1.08,-0.96,3.10,3.18,3.18
218,4.13,0.94,4.22,1.04,-1.04,-0.94,3.08,3.18,3.18
221,4.13,0.94,4.18,1.01,-1.01,-0.91,3.12,3.17,3.18
223,4.13,0.94,4.14,0.97,-0.97,-0.89,3.16,3.17,3.18
225,4.13,0.94,4.09,0.93,-0.93,-0.87,3.20,3.16,3.18
227,4.13,0.94,4.04,0.89,-0.89,-0.85,3.24,3.15,3.18
229,4.13,0.94,4.01,0.85,-0.85,-0.83,3.27,3.15,3.18
232,4.02,0.83,3.98,0.82,-0.82,-0.80,3.20,3.16,3.18
234,3.92,0.73,3.95,0.78,-0.78,-0.78,3.13,3.17,3.18
236,3.83,0.64,3.92,0.75,-0.75,-0.76,3.08,3.18,3.18
239,3.80,0.61,3.89,0.71,-0.71,-0.73,3.09,3.18,3.18
241,3.80,0.61,3.85,0.67,-0.67,-0.71,3.13,3.17,3.18
244,3.80,0.61,3.80,0.63,-0.63,-0.68,3.16,3.17,3.18
246,3.80,0.61,3.75,0.59,-0.59,-0.66,3.20,3.16,3.18
248,3.80,0.61,3.70,0.55,-0.55,-0.64,3.24,3.15,3.18
251,3.78,0.59,3.67,0.52,-0.52,-0.61,3.26,3.15,3.18
253,3.69,0.50,3.65,0.48,-0.48,-0.58,3.20,3.16,3.18
256,3.56,0.37,3.62,0.45,-0.45,-0.55,3.11,3.18,3.18
259,3.48,0.29,3.59,0.41,-0.41,-0.52,3.07,3.18,3.18
261,3.48,0.29,3.55,0.37,-0.37,-0.50,3.11,3.18,3.18
264,3.48,0.29,3.51,0.33,-0.33,-0.47,3.14,3.17,3.18
266,3.48,0.29,3.46,0.29,-0.29,-0.44,3.18,3.16,3.18
269,3.48,0.29,3.41,0.25,-0.25,-0.41,3.22,3.16,3.18
272,3.48,0.29,3.36,0.21,-0.21,-0.37,3.26,3.15,3.18
274,3.44,0.25,3.33,0.18,-0.18,-0.35,3.26,3.15,3.18
277,3.31,0.12,3.30,0.15,-0.15,-0.32,3.16,3.15,3.18
280,3.19,0.00,3.28,0.12,-0.12,-0.28,3.07,3.16,3.18
283,3.15,-0.04,3.26,0.08,-0.08,-0.25,3.06,3.18,3.18
286,3.15,-0.04,3.23,0.05,-0.05,-0.21,3.10,3.18,3.18
288,3.15,-0.04,3.19,0.02,-0.02,-0.19,3.13,3.17,3.18
291,3.15,-0.04,3.15,-0.01,0.01,-0.15,3.16,3.16,3.18
294,3.15,-0.04,3.11,-0.05,0.05,-0.12,3.19,3.15,3.18
297,3.15,-0.04,3.07,-0.08,0.08,-0.08,3.23,3.15,3.18
300,3.15,-0.04,3.04,-0.11,0.11,-0.04,3.26,3.15,3.18
303,3.11,-0.08,3.02,-0.14,0.14,-0.01,3.25,3.16,3.18
306,3.00,-0.19,3.00,-0.17,0.17,0.03,3.17,3.17,3.18
309,2.89,-0.30,2.98,-0.21,0.21,0.07,3.10,3.19,3.18
312,2.83,-0.36,2.94,-0.25,0.25,0.10,3.07,3.18,3.18
316,2.83,-0.36,2.89,-0.28,0.28,0.15,3.11,3.18,3.18
319,2.83,-0.36,2.84,-0.32,0.32,0.19,3.15,3.17,3.18
322,2.83,-0.36,2.79,-0.36,0.36,0.22,3.19,3.16,3.18
325,2.83,-0.36,2.75,-0.41,0.41,0.26,3.23,3.15,3.18
328,2.83,-0.36,2.71,-0.44,0.44,0.30,3.27,3.15,3.18
332,2.73,-0.46,2.68,-0.48,0.48,0.34,3.21,3.16,3.18
335,2.63,-0.56,2.65,-0.52,0.52,0.38,3.14,3.17,3.18
338,2.53,-0.66,2.63,-0.56,0.56,0.42,3.08,3.18,3.18
342,2.50,-0.69,2.59,-0.59,0.59,0.47,3.09,3.18,3.18
345,2.50,-0.69,2.55,-0.63,0.63,0.50,3.13,3.18,3.18
349,2.50,-0.69,2.50,-0.67,0.67,0.55,3.17,3.17,3.18
352,2.50,-0.69,2.45,-0.71,0.71,0.59,3.21,3.16,3.18
356,2.50,-0.69,2.41,-0.75,0.75,0.64,3.24,3.16,3.18
359,2.49,-0.70,2.37,-0.79,0.79,0.67,3.27,3.16,3.18
363,2.37,-0.82,2.34,-0.82,0.82,0.72,3.19,3.16,3.18
366,2.28,-0.91,2.31,-0.86,0.86,0.76,3.13,3.17,3.18
370,2.18,-1.01,2.29,-0.89,0.89,0.81,3.07,3.18,3.18
374,2.18,-1.01,2.26,-0.93,0.93,0.85,3.11,3.19,3.18
377,2.18,-1.01,2.22,-0.97,0.97,0.89,3.14,3.18,3.18
381,2.18,-1.01,2.17,-1.00,1.00,0.94,3.18,3.17,3.18
385,2.18,-1.01,2.13,-1.04,1.04,0.99,3.21,3.16,3.18
389,2.18,-1.01,2.08,-1.07,1.07,1.04,3.25,3.16,3.18
393,2.12,-1.07,2.05,-1.11,1.11,1.09,3.22,3.15,3.18
397,2.02,-1.17,2.01,-1.14,1.14,1.13,3.15,3.15,3.18
401,2.02,-1.17,2.00,-1.16,1.16,1.18,3.18,3.16,3.18
405,1.94,-1.25,1.98,-1.19,1.19,1.23,3.13,3.17,3.18
409,1.86,-1.33,1.96,-1.22,1.22,1.28,3.08,3.18,3.18
413,1.86,-1.33,1.93,-1.25,1.25,1.32,3.11,3.18,3.18
417,1.86,-1.33,1.90,-1.28,1.28,1.37,3.13,3.17,3.18
421,1.86,-1.33,1.86,-1.30,1.30,1.41,3.16,3.17,3.18
425,1.86,-1.33,1.83,-1.33,1.33,1.46,3.19,3.16,3.18
430,1.86,-1.33,1.79,-1.37,1.37,1.51,3.22,3.16,3.18
434,1.86,-1.33,1.76,-1.39,1.39,1.56,3.25,3.16,3.18
438,1.86,-1.33,1.74,-1.42,1.42,1.60,3.28,3.16,3.18
443,1.74,-1.45,1.71,-1.46,1.46,1.65,3.19,3.17,3.18
447,1.64,-1.55,1.68,-1.49,1.49,1.69,3.13,3.17,3.18
451,1.54,-1.65,1.66,-1.53,1.53,1.72,3.06,3.18,3.18
456,1.53,-1.66,1.62,-1.56,1.56,1.77,3.09,3.18,3.18
460,1.53,-1.66,1.58,-1.60,1.60,1.80,3.13,3.18,3.18
465,1.53,-1.66,1.53,-1.64,1.64,1.84,3.16,3.17,3.18
470,1.53,-1.66,1.49,-1.68,1.68,1.88,3.20,3.16,3.18
474,1.53,-1.66,1.44,-1.71,1.71,1.91,3.24,3.16,3.18
479,1.51,-1.68,1.40,-1.75,1.75,1.95,3.26,3.15,3.18
484,1.39,-1.80,1.37,-1.78,1.78,1.98,3.17,3.15,3.18
489,1.37,-1.82,1.35,-1.81,1.81,2.01,3.18,3.16,3.18
494,1.32,-1.87,1.33,-1.84,1.84,2.03,3.16,3.17,3.18
499,1.21,-1.98,1.31,-1.87,1.87,2.06,3.07,3.18,3.18
504,1.21,-1.98,1.28,-1.89,1.89,2.08,3.10,3.18,3.18
509,1.21,-1.98,1.26,-1.92,1.92,2.10,3.13,3.18,3.18
514,1.21,-1.98,1.23,-1.95,1.95,2.11,3.15,3.17,3.18
519,1.21,-1.98,1.19,-1.98,1.98,2.13,3.18,3.17,3.18
524,1.21,-1.98,1.16,-2.00,2.00,2.14,3.21,3.17,3.18
529,1.21,-1.98,1.14,-2.03,2.03,2.15,3.24,3.17,3.18
535,1.21,-1.98,1.11,-2.06,2.06,2.16,3.26,3.17,3.18
540,1.13,-2.06,1.08,-2.09,2.09,2.17,3.21,3.17,3.18
545,1.05,-2.14,1.05,-2.12,2.12,2.18,3.16,3.17,3.18
551,1.05,-2.14,1.03,-2.14,2.14,2.18,3.19,3.17,3.18
556,0.96,-2.23,1.00,-2.17,2.17,2.19,3.12,3.17,3.18
562,0.88,-2.31,0.97,-2.19,2.19,2.19,3.07,3.17,3.18
568,0.88,-2.31,0.95,-2.22,2.22,2.19,3.10,3.17,3.18
573,0.88,-2.31,0.93,-2.25,2.25,2.20,3.12,3.17,3.18
579,0.88,-2.31,0.90,-2.27,2.27,2.20,3.15,3.17,3.18
585,0.88,-2.31,0.87,-2.30,2.30,2.20,3.18,3.17,3.18
591,0.88,-2.31,0.84,-2.33,2.33,2.21,3.20,3.17,3.18
596,0.88,-2.31,0.82,-2.35,2.35,2.21,3.23,3.17,3.18
602,0.88,-2.31,0.79,-2.38,2.38,2.21,3.26,3.17,3.18
608,0.88,-2.31,0.76,-2.41,2.41,2.22,3.29,3.17,3.18
615,0.79,-2.40,0.73,-2.44,2.44,2.22,3.23,3.18,3.18
621,0.68,-2.51,0.70,-2.47,2.47,2.23,3.15,3.18,3.18
627,0.58,-2.61,0.67,-2.50,2.50,2.24,3.08,3.17,3.18
633,0.56,-2.63,0.64,-2.53,2.53,2.25,3.08,3.16,3.18
639,0.56,-2.63,0.61,-2.55,2.55,2.26,3.11,3.16,3.18
646,0.56,-2.63,0.59,-2.57,2.57,2.27,3.13,3.16,3.18
652,0.56,-2.63,0.57,-2.59,2.59,2.28,3.15,3.16,3.18
659,0.56,-2.63,0.56,-2.61,2.61,2.30,3.16,3.16,3.18
665,0.56,-2.63,0.55,-2.62,2.62,2.31,3.17,3.17,3.18
672,0.56,-2.63,0.55,-2.63,2.63,2.33,3.19,3.18,3.18
679,0.56,-2.63,0.54,-2.65,2.65,2.35,3.20,3.19,3.18
686,0.56,-2.63,0.53,-2.66,2.66,2.38,3.22,3.19,3.18
692,0.56,-2.63,0.51,-2.68,2.68,2.40,3.24,3.19,3.18
699,0.56,-2.63,0.49,-2.70,2.70,2.42,3.26,3.19,3.18
706,0.53,-2.66,0.45,-2.73,2.73,2.45,3.25,3.18,3.18
713,0.42,-2.77,0.42,-2.76,2.76,2.48,3.17,3.18,3.18
721,0.40,-2.79,0.39,-2.79,2.79,2.52,3.18,3.17,3.18
728,0.35,-2.84,0.35,-2.82,2.82,2.55,3.16,3.17,3.18
735,0.24,-2.95,0.32,-2.85,2.85,2.58,3.09,3.17,3.18
742,0.23,-2.96,0.29,-2.88,2.88,2.62,3.11,3.17,3.18
750,0.23,-2.96,0.26,-2.91,2.91,2.66,3.13,3.17,3.18
757,0.23,-2.96,0.24,-2.93,2.93,2.70,3.15,3.17,3.18
765,0.23,-2.96,0.22,-2.94,2.94,2.75,3.17,3.17,3.18
773,0.23,-2.96,0.21,-2.96,2.96,2.79,3.18,3.17,3.18
780,0.23,-2.96,0.21,-2.96,2.96,2.84,3.19,3.17,3.18
788,0.23,-2.96,0.21,-2.96,2.96,2.88,3.19,3.17,3.18
796,0.23,-2.96,0.21,-2.96,2.96,2.93,3.19,3.17,3.18
804,0.23,-2.96,0.22,-2.96,2.96,2.98,3.18,3.18,3.18
812,0.23,-2.96,0.23,-2.95,2.95,3.03,3.18,3.18,3.18
820,0.23,-2.96,0.24,-2.95,2.95,3.09,3.17,3.19,3.18
828,0.23,-2.96,0.25,-2.94,2.94,3.14,3.17,3.19,3.18
837,0.23,-2.96,0.25,-2.95,2.95,3.19,3.17,3.19,3.18
845,0.23,-2.96,0.24,-2.96,2.96,3.24,3.18,3.19,3.18
853,0.23,-2.96,0.22,-2.97,2.97,3.29,3.20,3.19,3.18
862,0.23,-2.96,0.20,-2.99,2.99,3.34,3.21,3.19,3.18
871,0.23,-2.96,0.17,-3.01,3.01,3.39,3.24,3.18,3.18
879,0.23,-2.96,0.14,-3.04,3.04,3.44,3.26,3.18,3.18
888,0.21,-2.98,0.11,-3.07,3.07,3.48,3.27,3.18,3.18
897,0.10,-3.09,0.07,-3.10,3.10,3.53,3.19,3.17,3.18
906,-0.01,-3.20,0.03,-3.13,3.13,3.57,3.12,3.16,3.18
915,-0.09,-3.28,0.01,-3.16,3.16,3.61,3.07,3.17,3.18
924,-0.09,-3.28,-0.02,-3.19,3.19,3.64,3.09,3.17,3.18
933,-0.09,-3.28,-0.04,-3.21,3.21,3.67,3.11,3.17,3.18
943,-0.09,-3.28,-0.06,-3.23,3.23,3.70,3.13,3.17,3.18
952,-0.09,-3.28,-0.08,-3.24,3.24,3.72,3.15,3.16,3.18
962,-0.09,-3.28,-0.09,-3.25,3.25,3.74,3.16,3.16,3.18
971,-0.09,-3.28,-0.09,-3.26,3.26,3.76,3.16,3.16,3.18
981,-0.08,-3.27,-0.09,-3.26,3.26,3.76,3.18,3.17,3.18
991,0.04,-3.15,-0.08,-3.26,3.26,3.77,3.30,3.18,3.18
1001,-0.00,-3.19,-0.07,-3.26,3.26,3.76,3.26,3.19,3.18
1011,-0.09,-3.28,-0.07,-3.27,3.27,3.76,3.17,3.20,3.18
1021,-0.09,-3.28,-0.07,-3.27,3.27,3.74,3.17,3.20,3.18
1031,-0.09,-3.28,-0.07,-3.27,3.27,3.73,3.18,3.20,3.18
1041,-0.09,-3.28,-0.08,-3.27,3.27,3.70,3.18,3.19,3.18
1052,-0.09,-3.28,-0.09,-3.28,3.28,3.68,3.18,3.19,3.18
1062,-0.09,-3.28,-0.10,-3.28,3.28,3.64,3.18,3.18,3.18
1073,-0.09,-3.28,-0.11,-3.28,3.28,3.61,3.18,3.17,3.18
1084,-0.09,-3.28,-0.11,-3.28,3.28,3.56,3.18,3.16,3.18
1094,-0.09,-3.28,-0.12,-3.27,3.27,3.52,3.18,3.16,3.18
1105,-0.09,-3.28,-0.10,-3.26,3.26,3.48,3.17,3.16,3.18
1116,-0.09,-3.28,-0.07,-3.25,3.25,3.42,3.15,3.18,3.18
1128,-0.09,-3.28,-0.05,-3.23,3.23,3.37,3.13,3.18,3.18
1139,-0.09,-3.28,-0.03,-3.20,3.20,3.31,3.11,3.18,3.18
1150,-0.07,-3.26,-0.00,-3.18,3.18,3.26,3.10,3.18,3.18
1162,0.05,-3.14,0.02,-3.15,3.15,3.20,3.20,3.18,3.18
1173,0.07,-3.12,0.05,-3.12,3.12,3.14,3.19,3.18,3.18
1185,0.11,-3.08,0.08,-3.10,3.10,3.08,3.20,3.18,3.18
1197,0.22,-2.97,0.11,-3.07,3.07,3.01,3.28,3.18,3.18
1209,0.23,-2.96,0.14,-3.04,3.04,2.95,3.27,3.18,3.18
1221,0.19,-3.00,0.17,-3.02,3.02,2.89,3.21,3.19,3.18
1233,0.07,-3.12,0.19,-3.01,3.01,2.83,3.07,3.19,3.18
1246,0.19,-3.00,0.20,-2.99,2.99,2.76,3.18,3.20,3.18
1258,0.23,-2.96,0.22,-2.98,2.98,2.70,3.21,3.20,3.18
1271,0.23,-2.96,0.22,-2.98,2.98,2.64,3.20,3.20,3.18
1283,0.23,-2.96,0.22,-2.97,2.97,2.59,3.20,3.19,3.18
1296,0.23,-2.96,0.22,-2.97,2.97,2.53,3.20,3.19,3.18
1309,0.23,-2.96,0.21,-2.97,2.97,2.47,3.19,3.18,3.18
1322,0.23,-2.96,0.20,-2.96,2.96,2.42,3.19,3.16,3.18
1335,0.23,-2.96,0.20,-2.96,2.96,2.37,3.19,3.16,3.18
1349,0.23,-2.96,0.21,-2.95,2.95,2.31,3.18,3.17,3.18
1362,0.23,-2.96,0.23,-2.94,2.94,2.26,3.17,3.17,3.18
1376,0.23,-2.96,0.24,-2.92,2.92,2.21,3.15,3.17,3.18
1390,0.23,-2.96,0.27,-2.90,2.90,2.17,3.13,3.17,3.18
1404,0.23,-2.96,0.30,-2.88,2.88,2.12,3.11,3.18,3.18
1418,0.23,-2.96,0.33,-2.85,2.85,2.08,3.08,3.18,3.18
1432,0.30,-2.89,0.36,-2.82,2.82,2.04,3.12,3.18,3.18
1446,0.41,-2.78,0.39,-2.79,2.79,2.00,3.20,3.18,3.18
1461,0.53,-2.66,0.41,-2.76,2.76,1.96,3.28,3.17,3.18
1475,0.56,-2.63,0.44,-2.73,2.73,1.92,3.28,3.17,3.18
1490,0.56,-2.63,0.48,-2.69,2.69,1.89,3.25,3.17,3.18
1505,0.56,-2.63,0.52,-2.66,2.66,1.85,3.22,3.18,3.18
1520,0.56,-2.63,0.56,-2.63,2.63,1.82,3.18,3.19,3.18
1535,0.56,-2.63,0.60,-2.60,2.60,1.79,3.15,3.19,3.18
1550,0.56,-2.63,0.63,-2.56,2.56,1.76,3.12,3.19,3.18
1566,0.56,-2.63,0.65,-2.53,2.53,1.73,3.09,3.18,3.18
1582,0.61,-2.58,0.68,-2.49,2.49,1.71,3.10,3.17,3.18
1597,0.72,-2.47,0.70,-2.46,2.46,1.68,3.17,3.16,3.18
1613,0.83,-2.36,0.74,-2.42,2.42,1.66,3.25,3.16,3.18
1629,0.88,-2.31,0.79,-2.38,2.38,1.63,3.26,3.17,3.18
1646,0.88,-2.31,0.84,-2.34,2.34,1.61,3.22,3.19,3.18
1662,0.88,-2.31,0.89,-2.30,2.30,1.59,3.18,3.19,3.18
1679,0.88,-2.31,0.93,-2.26,2.26,1.57,3.13,3.19,3.18
1696,0.91,-2.28,0.98,-2.21,2.21,1.55,3.12,3.19,3.18
1713,1.03,-2.16,1.04,-2.16,2.16,1.52,3.19,3.20,3.18
1730,1.14,-2.05,1.08,-2.11,2.11,1.50,3.25,3.19,3.18
1747,1.21,-1.98,1.12,-2.06,2.06,1.48,3.26,3.18,3.18
1764,1.21,-1.98,1.16,-2.01,2.01,1.46,3.21,3.17,3.18
1782,1.21,-1.98,1.22,-1.95,1.95,1.44,3.16,3.17,3.18
1800,1.21,-1.98,1.28,-1.90,1.90,1.42,3.10,3.18,3.18
1818,1.22,-1.97,1.35,-1.84,1.84,1.40,3.05,3.18,3.18
1836,1.44,-1.75,1.41,-1.78,1.78,1.37,3.21,3.18,3.18
1854,1.53,-1.66,1.47,-1.71,1.71,1.35,3.24,3.19,3.18
1873,1.53,-1.66,1.54,-1.65,1.65,1.32,3.17,3.19,3.18
1892,1.53,-1.66,1.59,-1.58,1.58,1.29,3.10,3.17,3.18
1911,1.69,-1.50,1.65,-1.51,1.51,1.27,3.19,3.16,3.18
1930,1.86,-1.33,1.73,-1.43,1.43,1.24,3.29,3.16,3.18
1949,1.86,-1.33,1.81,-1.36,1.36,1.20,3.22,3.17,3.18
1969,1.86,-1.33,1.88,-1.28,1.28,1.17,3.14,3.17,3.18
1988,1.90,-1.29,1.96,-1.21,1.21,1.13,3.10,3.17,3.18
2008,2.01,-1.18,2.04,-1.13,1.13,1.10,3.14,3.17,3.18
2028,2.12,-1.07,2.11,-1.05,1.05,1.06,3.17,3.16,3.18
2048,2.18,-1.01,2.19,-0.97,0.97,1.01,3.14,3.15,3.18
2069,2.19,-1.00,2.28,-0.88,0.88,0.97,3.07,3.16,3.18
2090,2.42,-0.77,2.36,-0.79,0.79,0.92,3.21,3.15,3.18
