frequency,raw
20.00,-17.89
20.20,-17.75
20.40,-17.60
20.61,-17.46
20.81,-17.32
21.02,-17.18
21.23,-17.03
21.44,-16.89
21.66,-16.74
21.87,-16.59
22.09,-16.45
22.31,-16.30
22.54,-16.15
22.76,-16.00
22.99,-15.86
23.22,-15.71
23.45,-15.56
23.69,-15.41
23.92,-15.26
24.16,-15.11
24.40,-14.96
24.65,-14.81
24.89,-14.66
25.14,-14.51
25.39,-14.36
25.65,-14.21
25.91,-14.06
26.16,-13.91
26.43,-13.76
26.69,-13.61
26.96,-13.46
27.23,-13.31
27.50,-13.16
27.77,-13.01
28.05,-12.86
28.33,-12.72
28.62,-12.57
28.90,-12.42
29.19,-12.27
29.48,-12.13
29.78,-11.98
30.08,-11.83
30.38,-11.70
30.68,-11.56
30.99,-11.42
31.30,-11.27
31.61,-11.13
31.93,-10.98
32.24,-10.84
32.57,-10.69
32.89,-10.55
33.22,-10.41
33.55,-10.27
33.89,-10.13
34.23,-10.00
34.57,-9.87
34.92,-9.73
35.27,-9.60
35.62,-9.46
35.97,-9.33
36.33,-9.21
36.70,-9.09
37.06,-8.97
37.43,-8.85
37.81,-8.73
38.19,-8.61
38.57,-8.50
38.95,-8.38
39.34,-8.26
39.74,-8.14
40.14,-8.02
40.54,-7.90
40.94,-7.78
41.35,-7.66
41.76,-7.55
42.18,-7.43
42.60,-7.30
43.03,-7.18
43.46,-7.06
43.90,-6.94
44.33,-6.81
44.78,-6.68
45.23,-6.56
45.68,-6.43
46.13,-6.30
46.60,-6.17
47.06,-6.03
47.53,-5.91
48.01,-5.78
48.49,-5.65
48.97,-5.53
49.46,-5.40
49.96,-5.27
50.46,-5.14
50.96,-5.01
51.47,-4.89
51.99,-4.76
52.51,-4.64
53.03,-4.51
53.56,-4.40
54.10,-4.29
54.64,-4.18
55.18,-4.07
55.74,-3.96
56.29,-3.86
56.86,-3.76
57.42,-3.65
58.00,-3.55
58.58,-3.46
59.16,-3.36
59.76,-3.26
60.35,-3.16
60.96,-3.06
61.57,-2.97
62.18,-2.88
62.80,-2.80
63.43,-2.71
64.07,-2.62
64.71,-2.52
65.35,-2.43
66.01,-2.35
66.67,-2.26
67.33,-2.18
68.01,-2.10
68.69,-2.01
69.37,-1.93
70.07,-1.85
70.77,-1.78
71.48,-1.72
72.19,-1.65
72.91,-1.58
73.64,-1.52
74.38,-1.46
75.12,-1.39
75.87,-1.34
76.63,-1.29
77.40,-1.24
78.17,-1.19
78.95,-1.15
79.74,-1.11
80.54,-1.08
81.35,-1.05
82.16,-1.01
82.98,-0.97
83.81,-0.93
84.65,-0.89
85.50,-0.86
86.35,-0.82
87.22,-0.78
88.09,-0.75
88.97,-0.71
89.86,-0.70
90.76,-0.68
91.66,-0.67
92.58,-0.64
93.51,-0.61
94.44,-0.59
95.39,-0.56
96.34,-0.53
97.30,-0.51
98.28,-0.49
99.26,-0.46
100.25,-0.43
101.25,-0.37
102.27,-0.32
103.29,-0.29
104.32,-0.25
105.37,-0.20
106.42,-0.14
107.48,-0.09
108.56,-0.04
109.64,-0.01
110.74,0.01
111.85,0.04
112.97,0.06
114.10,0.07
115.24,0.09
116.39,0.09
117.55,0.09
118.73,0.08
119.92,0.07
121.12,0.06
122.33,0.05
123.55,0.02
124.79,-0.01
126.03,-0.05
127.29,-0.07
128.57,-0.10
129.85,-0.15
131.15,-0.20
132.46,-0.23
133.79,-0.26
135.12,-0.27
136.48,-0.27
137.84,-0.26
139.22,-0.25
140.61,-0.22
142.02,-0.17
143.44,-0.14
144.87,-0.09
146.32,-0.04
147.78,0.03
149.26,0.08
150.75,0.14
152.26,0.19
153.78,0.24
155.32,0.28
156.88,0.32
158.44,0.33
160.03,0.36
161.63,0.38
163.24,0.39
164.88,0.40
166.53,0.40
168.19,0.40
169.87,0.40
171.57,0.40
173.29,0.40
175.02,0.40
176.77,0.39
178.54,0.37
180.32,0.35
182.13,0.33
183.95,0.29
185.79,0.25
187.65,0.23
189.52,0.19
191.42,0.16
193.33,0.13
195.27,0.11
197.22,0.09
199.19,0.07
201.18,0.06
203.19,0.05
205.23,0.04
207.28,0.03
209.35,0.01
211.44,-0.02
213.56,-0.05
215.69,-0.10
217.85,-0.15
220.03,-0.17
222.23,-0.19
224.45,-0.21
226.70,-0.21
228.96,-0.21
231.25,-0.19
233.57,-0.17
235.90,-0.13
238.26,-0.10
240.64,-0.06
243.05,-0.02
245.48,0.01
247.93,0.04
250.41,0.05
252.92,0.06
255.45,0.06
258.00,0.06
260.58,0.06
263.19,0.07
265.82,0.09
268.48,0.11
271.16,0.14
273.87,0.19
276.61,0.22
279.38,0.24
282.17,0.28
284.99,0.31
287.84,0.35
290.72,0.37
293.63,0.39
296.57,0.40
299.53,0.40
302.53,0.40
305.55,0.39
308.61,0.38
311.69,0.38
314.81,0.38
317.96,0.38
321.14,0.38
324.35,0.38
327.59,0.38
330.87,0.38
334.18,0.38
337.52,0.38
340.90,0.39
344.30,0.39
347.75,0.40
351.23,0.40
354.74,0.40
358.28,0.38
361.87,0.37
365.49,0.34
369.14,0.32
372.83,0.29
376.56,0.25
380.33,0.23
384.13,0.20
387.97,0.17
391.85,0.14
395.77,0.10
399.73,0.07
403.72,0.03
407.76,-0.01
411.84,-0.04
415.96,-0.06
420.12,-0.09
424.32,-0.12
428.56,-0.15
432.85,-0.18
437.18,-0.21
441.55,-0.23
445.96,-0.25
450.42,-0.28
454.93,-0.29
459.48,-0.29
464.07,-0.29
468.71,-0.30
473.40,-0.29
478.13,-0.29
482.91,-0.27
487.74,-0.26
492.62,-0.24
497.55,-0.21
502.52,-0.18
507.55,-0.16
512.62,-0.13
517.75,-0.10
522.93,-0.06
528.16,-0.02
533.44,0.02
538.77,0.07
544.16,0.11
549.60,0.15
555.10,0.18
560.65,0.21
566.25,0.22
571.92,0.25
577.64,0.28
583.41,0.32
589.25,0.37
595.14,0.41
601.09,0.45
607.10,0.49
613.17,0.51
619.30,0.54
625.50,0.58
631.75,0.63
638.07,0.68
644.45,0.72
650.89,0.77
657.40,0.81
663.98,0.86
670.62,0.91
677.32,0.95
684.10,1.00
690.94,1.04
697.85,1.10
704.83,1.15
711.87,1.19
718.99,1.23
726.18,1.26
733.44,1.29
740.78,1.32
748.19,1.34
755.67,1.36
763.23,1.37
770.86,1.38
778.57,1.38
786.35,1.37
794.22,1.36
802.16,1.37
810.18,1.38
818.28,1.38
826.46,1.37
834.73,1.36
843.08,1.35
851.51,1.34
860.02,1.32
868.62,1.30
877.31,1.26
886.08,1.21
894.94,1.16
903.89,1.10
912.93,1.04
922.06,0.95
931.28,0.86
940.59,0.76
950.00,0.65
959.50,0.55
969.09,0.43
978.78,0.32
988.57,0.18
998.46,0.02
1008.44,-0.15
1018.53,-0.33
1028.71,-0.50
1039.00,-0.68
1049.39,-0.86
1059.88,-1.05
1070.48,-1.24
1081.19,-1.43
1092.00,-1.62
1102.92,-1.81
1113.95,-2.00
1125.09,-2.18
1136.34,-2.35
1147.70,-2.51
1159.18,-2.66
1170.77,-2.83
1182.48,-2.98
1194.30,-3.13
1206.25,-3.28
1218.31,-3.44
1230.49,-3.61
1242.80,-3.75
1255.22,-3.91
1267.78,-4.05
1280.45,-4.22
1293.26,-4.38
1306.19,-4.54
1319.25,-4.67
1332.45,-4.80
1345.77,-4.90
1359.23,-5.00
1372.82,-5.07
1386.55,-5.10
1400.41,-5.11
1414.42,-5.08
1428.56,-5.01
1442.85,-4.90
1457.28,-4.75
1471.85,-4.56
1486.57,-4.34
1501.43,-4.10
1516.45,-3.83
1531.61,-3.55
1546.93,-3.25
1562.40,-2.96
1578.02,-2.67
1593.80,-2.37
1609.74,-2.08
1625.84,-1.81
1642.10,-1.58
1658.52,-1.35
1675.10,-1.15
1691.85,-0.96
1708.77,-0.79
1725.86,-0.66
1743.12,-0.55
1760.55,-0.45
1778.15,-0.39
1795.94,-0.36
1813.90,-0.36
1832.03,-0.39
1850.36,-0.45
1868.86,-0.52
1887.55,-0.62
1906.42,-0.75
1925.49,-0.90
1944.74,-1.09
1964.19,-1.28
1983.83,-1.49
2003.67,-1.71
2023.71,-1.94
2043.94,-2.17
2064.38,-2.42
2085.03,-2.65
2105.88,-2.89
2126.94,-3.13
2148.20,-3.38
2169.69,-3.61
2191.38,-3.87
2213.30,-4.10
2235.43,-4.33
2257.78,-4.55
2280.36,-4.77
2303.17,-4.98
2326.20,-5.19
2349.46,-5.38
2372.95,-5.59
2396.68,-5.77
2420.65,-5.94
2444.86,-6.11
2469.31,-6.25
2494.00,-6.36
2518.94,-6.47
2544.13,-6.56
2569.57,-6.63
2595.27,-6.68
2621.22,-6.72
2647.43,-6.75
2673.90,-6.78
2700.64,-6.79
2727.65,-6.78
2754.93,-6.78
2782.48,-6.78
2810.30,-6.76
2838.40,-6.76
2866.79,-6.76
2895.46,-6.77
2924.41,-6.78
2953.65,-6.77
2983.19,-6.77
3013.02,-6.76
3043.15,-6.75
3073.58,-6.73
3104.32,-6.71
3135.36,-6.67
3166.72,-6.62
3198.38,-6.56
3230.37,-6.50
3262.67,-6.41
3295.30,-6.32
3328.25,-6.22
3361.53,-6.10
3395.15,-5.97
3429.10,-5.84
3463.39,-5.71
3498.03,-5.57
3533.01,-5.43
3568.34,-5.29
3604.02,-5.15
3640.06,-5.03
3676.46,-4.92
3713.22,-4.80
3750.36,-4.71
3787.86,-4.63
3825.74,-4.57
3864.00,-4.55
3902.64,-4.55
3941.66,-4.56
3981.08,-4.58
4020.89,-4.60
4061.10,-4.61
4101.71,-4.60
4142.73,-4.58
4184.15,-4.52
4226.00,-4.41
4268.26,-4.27
4310.94,-4.09
4354.05,-3.85
4397.59,-3.56
4441.56,-3.25
4485.98,-2.89
4530.84,-2.51
4576.15,-2.10
4621.91,-1.70
4668.13,-1.31
4714.81,-0.92
4761.96,-0.57
4809.58,-0.24
4857.67,0.07
4906.25,0.36
4955.31,0.60
5004.87,0.81
5054.91,0.97
5105.46,1.11
5156.52,1.20
5208.08,1.26
5260.16,1.29
5312.77,1.27
5365.89,1.22
5419.55,1.14
5473.75,1.02
5528.49,0.86
5583.77,0.66
5639.61,0.43
5696.00,0.14
5752.96,-0.18
5810.49,-0.54
5868.60,-0.91
5927.28,-1.31
5986.56,-1.73
6046.42,-2.16
6106.89,-2.58
6167.96,-2.97
6229.64,-3.36
6291.93,-3.72
6354.85,-4.04
6418.40,-4.30
6482.58,-4.51
6547.41,-4.67
6612.88,-4.80
6679.01,-4.89
6745.80,-4.96
6813.26,-5.01
6881.39,-5.04
6950.21,-5.07
7019.71,-5.09
7089.91,-5.12
7160.81,-5.14
7232.41,-5.19
7304.74,-5.25
7377.79,-5.31
7451.56,-5.40
7526.08,-5.50
7601.34,-5.62
7677.35,-5.76
7754.13,-5.91
7831.67,-6.06
7909.98,-6.24
7989.08,-6.44
8068.98,-6.67
8149.67,-6.92
8231.16,-7.20
8313.47,-7.52
8396.61,-7.85
8480.57,-8.23
8565.38,-8.65
8651.03,-9.08
8737.54,-9.51
8824.92,-9.96
8913.17,-10.39
9002.30,-10.80
9092.32,-11.18
9183.25,-11.49
9275.08,-11.75
9367.83,-11.96
9461.51,-12.08
9556.12,-12.14
9651.68,-12.12
9748.20,-12.02
9845.68,-11.86
9944.14,-11.63
10043.58,-11.35
10144.02,-11.03
10245.46,-10.70
10347.91,-10.35
10451.39,-9.99
10555.91,-9.63
10661.46,-9.28
10768.08,-8.94
10875.76,-8.63
10984.52,-8.35
11094.36,-8.10
11205.31,-7.89
11317.36,-7.72
11430.53,-7.59
11544.84,-7.49
11660.29,-7.42
11776.89,-7.37
11894.66,-7.34
12013.60,-7.32
12133.74,-7.32
12255.08,-7.33
12377.63,-7.35
12501.41,-7.38
12626.42,-7.41
12752.68,-7.44
12880.21,-7.48
13009.01,-7.54
13139.10,-7.60
13270.49,-7.69
13403.20,-7.80
13537.23,-7.91
13672.60,-8.05
13809.33,-8.20
13947.42,-8.39
14086.90,-8.58
14227.77,-8.78
14370.04,-8.98
14513.74,-9.20
14658.88,-9.44
14805.47,-9.71
14953.52,-9.99
15103.06,-10.28
15254.09,-10.61
15406.63,-10.98
15560.70,-11.39
15716.30,-11.86
15873.47,-12.38
16032.20,-12.94
16192.52,-13.54
16354.45,-14.18
16517.99,-14.82
16683.17,-15.50
16850.01,-16.20
17018.51,-16.93
17188.69,-17.66
17360.58,-18.41
17534.18,-19.21
17709.53,-20.07
17886.62,-21.00
18065.49,-21.97
18246.14,-22.98
18428.60,-24.03
18612.89,-25.13
18799.02,-26.26
18987.01,-27.45
19176.88,-28.67
19368.65,-29.94
19562.33,-31.25
19757.96,-32.61
19955.54,-34.02
