frequency,raw,error,smoothed,error_smoothed,equalization,equalized_raw,equalized_smoothed,target
20,-15.199512035568,-15.21599119796219,-15.241893662025854,-15.258358448550295,5.999999999999999,-9.199512035568002,-9.241893662025856,0.016479162394188673
21,-14.607448343061966,-14.625094429531265,-14.525561653954131,-14.543209371570336,6.0,-8.607448343061966,-8.525561653954131,0.017646086469297995
22,-13.811294492811204,-13.830057063803775,-13.833414925035697,-13.852188553036104,5.999999999999999,-7.8112944928112045,-7.833414925035698,0.01876257099257117
23,-13.128190964243304,-13.148018173978446,-13.16545347527055,-13.185295992947598,6.0,-7.128190964243304,-7.165453475270549,0.01982720973514196
24,-12.56396262944335,-12.584800972991138,-12.521677304658674,-12.542531691304802,5.9999999999999964,-6.563962629443354,-6.521677304658677,0.020838343547786575
25,-11.888335806126474,-11.91012983504119,-11.902483507706767,-11.924294807758608,6.0,-5.888335806126474,-5.902483507706767,0.02179402891471538
26,-11.28513307837024,-11.307825082580218,-11.307414590228063,-11.330125961121265,5.999999999999999,-5.285133078370241,-5.307414590228064,0.022692004209976968
27,-10.703663250375465,-10.727197397922469,-10.736057942527017,-10.75961034933828,6.0,-4.703663250375465,-4.736057942527017,0.023534147547003226
28,-10.216131535151696,-10.240445010119629,-10.187828166822445,-10.212158737660538,6.000000000000001,-4.216131535151695,-4.187828166822444,0.02431347496793279
29,-9.778499885359102,-9.803524604703876,-9.662003812187702,-9.687044022223835,6.000000000000001,-3.7784998853591008,-3.6620038121877014,0.02502471934477457
30,-9.066540613889014,-9.092201867359977,-9.157913877846303,-9.183588421846665,6.000000000000001,-3.0665406138890132,-3.157913877846302,0.025661253470963263
31,-8.62910560492465,-8.655320664484822,-8.674836091683598,-8.701061520585867,5.999999999999998,-2.6291056049246517,-2.6748360916836003,0.026215059560172893
32,-8.210276862860967,-8.236953671803102,-8.212005257789345,-8.23868896798262,5.999999999999999,-2.210276862860968,-2.212005257789346,0.0266768089421352
33,-7.809509496650349,-7.836545562023986,-7.768576465322909,-7.795615944149661,6.0,-1.8095094966503487,-1.7685764653229086,0.027036065373637452
34,-7.325558726390099,-7.352841112382302,-7.34357980346001,-7.37086207807948,6.0,-1.3255587263900992,-1.3435798034600097,0.027282385992203118
35,-6.958693475896528,-6.9860982681911645,-6.935927638735883,-6.963329039937956,5.999999999999999,-0.9586934758965286,-0.9359276387358841,0.02740479229463677
36,-6.578523661115806,-6.605915988429701,-6.5444305961123845,-6.571816775879226,5.937280315103432,-0.6412433460123745,-0.6071502810089529,0.02739232731389496
37,-6.12068518745142,-6.14791953905722,-6.167846976803317,-6.195073175580532,5.806653632506499,-0.3140315549449211,-0.3611933442968187,0.02723435160580001
38,-5.7891211274626535,-5.816041905277657,-5.804962415983471,-5.831873949485697,5.613741762029166,-0.17537936543348742,-0.19122065395430532,0.026920777815003127
39,-5.44476855511876,-5.471210773247921,-5.454688205367846,-5.481121105685107,5.377467130985753,-0.06730142413300655,-0.07722107438209314,0.026442218129161255
40,-5.135996236931376,-5.161786266525579,-5.116167271424672,-5.14194901863301,5.110005588736336,-0.025990648195040045,-0.006161682688335723,0.0257900295942024
41,-4.831402133622935,-4.856358521630149,-4.7888537772007425,-4.813804038592696,4.8138040385926955,-0.017598095030239236,0.024950261391953,0.024956388007214336
42,-4.470981610150536,-4.494915795714398,-4.472530192265873,-4.496461481289565,4.496461481289565,0.025479871139028276,0.02393128902369135,0.023934185563861288
43,-4.173169379640609,-4.195886237161824,-4.167239356565728,-4.189957524179062,4.18995752417906,0.016788144538450567,0.022718167613331453,0.02271685752121444
44,-3.8730575962558547,-3.894355721307866,-3.873140110072237,-3.8944445831203796,3.89444458312038,0.021386986864525337,0.02130447304814309,0.02129812505201123
45,-3.5577779293101996,-3.5774495910203608,-3.5903339705990267,-3.6100176606093,3.6100176606093,0.052239731299100534,0.01968369001027348,0.019671661710161104
46,-3.24660546144443,-3.2644361532709802,-3.3187315585765647,-3.336580375891365,3.336580375891366,0.08997491444693617,0.01784881731480148,0.017830691826550282
47,-3.1282053731445796,-3.143972902760772,-3.0580191900105462,-3.073811112904478,3.0738111129044774,-0.05439426024010219,0.015791922893931165,0.015767529616192544
48,-2.82530456196005,-2.8387776533462885,-2.807746596614538,-2.8212502626947744,2.8212502626947753,-0.004054299265274786,0.013503666080237231,0.013473091386238423
49,-2.580680119770253,-2.5916165119488928,-2.56750048234933,-2.5784732886971735,2.578473288697173,-0.00220683107307984,0.010972806347842923,0.010936392178639842
50,-2.3318713889249008,-2.3400154378298126,-2.337083523225501,-2.3452692418849272,2.345269241884927,0.013397852960026047,0.008185718659425856,0.008144048904911827
51,-2.090438330804663,-2.095518141678367,-2.1166095652034453,-2.121735500666186,2.121735500666186,0.03129716986152298,0.0051259354627406495,0.005079810873704016
52,-1.9336205644622622,-1.935344702178745,-1.9064598392458003,-1.9082335735215863,1.908233573521586,-0.02538699094067609,0.0017737342757857544,0.001724137716482943
53,-1.7157932805585752,-1.7138471229241605,-1.7071070341182994,-1.705212821991712,1.7052128219917124,-0.010580458566862738,-0.0018942121265870249,-0.0019461576344146359
54,-1.4814041952603711,-1.4754460080027705,-1.5188751601167017,-1.5129700514799769,1.5129700514799769,0.031565856219605726,-0.005905108636724776,-0.005958187257600667
55,-1.3074510959080627,-1.2971079199835391,-1.3417361010466293,-1.3314458781855039,1.331445878185504,0.02399478227744134,-0.010290222861125242,-0.010343175924523607
56,-1.2110096038476548,-1.1958730529491666,-1.1752320942162622,-1.1601471192119077,1.160147119211908,-0.05086248463574683,-0.01508497500435424,-0.015136550898488199
57,-1.0270519303255572,-1.0066739997211047,-1.0185613461307894,-0.998232416914327,0.9982324169143267,-0.028819513411230457,-0.020328929216462677,-0.020377930604452477
58,-0.8090580425436548,-0.7829470295635611,-0.8707956035452833,-0.8447299166118767,0.8447299166118767,0.03567187406822192,-0.026065686933406607,-0.026111012980093662
59,-0.8555992951660683,-0.8232159270754273,-0.7311439766408891,-0.6988012902025361,0.6988012902025362,-0.15679800496353202,-0.03234268643835292,-0.03238336809064091
60,-0.5611289851775992,-0.5218828422266403,-0.5991583887609467,-0.559947472579872,0.559947472579872,-0.0011815125977272523,-0.03921091618107475,-0.03924614295095896
61,-0.43673181974379693,-0.38997813028169814,-0.47479877278268423,-0.42807422062575795,0.428074220625758,-0.008657599118038928,-0.046724552156926225,-0.04675368946209879
62,-0.36232125176835883,-0.3073581233260435,-0.35833028057464544,-0.30338974882591335,0.3033897488259133,-0.058931502942445535,-0.054940531748732147,-0.05496312844231532
63,-0.26300928314891314,-0.1990754190486893,-0.25008966102072366,-0.18617158321989916,0.18617158321989918,-0.07683769992901396,-0.06391807780082448,-0.06393386410022384
64,-0.16482287873753776,-0.09109581487816276,-0.15020891444147294,-0.07649072718300834,0.07649072718300834,-0.08833215155452942,-0.0737181872584646,-0.073727063859375
65,-0.06711523941134533,0.017289878813152706,-0.05840461032705174,0.025998488390012182,-0.025998488390012165,-0.09311372780135749,-0.0844030987170639,-0.08440511822449803
66,0.15195145809589672,0.2479825525310293,0.026074539134664308,0.12211029119270278,-0.1221102911927028,0.029841166903193925,-0.09603575205803849,-0.09603109443513258
67,0.031054618210599527,0.13972281429213518,0.10429764346550768,0.2129768953075033,-0.21297689530750327,-0.18192227709690376,-0.10867925184199559,-0.10866819608153566
68,0.1345345318729192,0.2569137706933138,0.17732398152594048,0.29972032653683456,-0.29972032653683456,-0.16518579466391536,-0.12239634501089408,-0.12237923882039459
69,0.24176372290380188,0.3789898728629777,0.24579366225523147,0.38304258386606016,-0.38304258386606016,-0.14127886096225828,-0.1372489216108287,-0.1372261499591758
70,0.2521666804954241,0.40543617764458983,0.30958365510250596,0.46288119841684955,-0.4628811984168495,-0.21071451792142537,-0.15329754331434353,-0.1532694971491657
71,0.45614964266983127,0.62671769157204,0.36768652152079095,0.5382875212146666,-0.5382875212146667,-0.08213787854483545,-0.17060099969387577,-0.17056804890220878
72,0.44611331751894845,0.6352916847967238,0.418423928449175,0.6076398187089542,-0.6076398187089542,-0.16152650119000578,-0.18921589025977925,-0.18917836727777537
73,0.39687243633134917,0.606026867337049,0.460005679662975,0.6692019146097374,-0.6692019146097374,-0.27232947827838827,-0.20919623494676243,-0.20915443100569986
74,0.41059657794121396,0.6411438635579692,0.4913113385259049,0.7219044577221966,-0.7219044577221967,-0.31130787978098273,-0.23059311919629177,-0.2305472856167552
75,0.6827958788896965,0.9362005948094224,0.5126526936001353,0.7661070759686363,-0.7661070759686361,-0.08331119707893964,-0.2534543823685008,-0.2534047159197259
76,0.5681931464703494,0.845964081895094,0.5262246684345235,0.8040490182619761,-0.8040490182619764,-0.23585587179162704,-0.27782434982745285,-0.2777709354247446
77,0.5334337659354363,0.8371200530053738,0.5360075553870892,0.839751128807835,-0.839751128807835,-0.30631736287239864,-0.30374357342074576,-0.3036862870699375
78,0.536762524883541,0.8679494747168737,0.5470460708551727,0.8782945642838085,-0.8782945642838084,-0.34153203940026733,-0.3312484934286357,-0.33118694983333263
79,0.5415061434435172,0.9018107898940256,0.5642549543109848,0.9246258819179027,-0.924625881917903,-0.38311973847438574,-0.36037092760691813,-0.3603046464505084
80,0.5499843940376343,0.9410507424763046,0.5911006007315314,0.9822380030013009,-0.9822380030013009,-0.4322536089636666,-0.39113740226976956,-0.3910663484386703
81,0.4879560316661915,0.9114500075320664,0.6285947632481281,1.0521633349960524,-1.0521633349960526,-0.5642073033298611,-0.4235685717479245,-0.4234939758658749
82,0.47769193700569046,0.9352960277186613,0.674961370245526,1.132640558149328,-1.1326405581493282,-0.6549486211436377,-0.45767918790380213,-0.4576040907129708
83,0.9660035728257027,1.4594111569965946,0.7261183086562738,1.2195973915418752,-1.2195973915418754,-0.2535938187161727,-0.4934790828856016,-0.49340758417089203
84,0.8656850520904693,1.3965944118116553,0.7768311281548589,1.3078062888082966,-1.3078062888082973,-0.442121236717828,-0.5309751606534384,-0.530909359721186
85,0.8484958259522449,1.4186038412511914,0.8221562900812219,1.3923296681219963,-1.3923296681219965,-0.5438338421697516,-0.5701733780407746,-0.5701080152989464
86,0.8658304010110891,1.4768259301957127,0.8586960636212099,1.4697745929402228,-1.4697745929402226,-0.6039441919291335,-0.6110785293190127,-0.6109955291846236
87,0.8793233000885965,1.5328802555673984,0.8852748713639756,1.538964116757251,-1.538964116757251,-0.6596408166686545,-0.6536892453932753,-0.6535569554788019
88,0.8897946333081259,1.5875647693668358,0.9028768168986869,1.6008637894623008,-1.600863789462301,-0.7110691561541751,-0.6979869725636141,-0.6977701360587099
89,0.8987268731632537,1.642332309947153,0.9139602488236962,1.6578813809366708,-1.6578813809366706,-0.7591545077734169,-0.7439211321129744,-0.7436054367838993
90,0.9076634257960119,1.6986889422002223,0.9214777706916463,1.7128749905917893,-1.7128749905917893,-0.8052115647957774,-0.791397219900143,-0.7910255164042104
91,0.917807726961001,1.7577928640822593,0.9279994429287408,1.768277523332784,-1.7682775233327837,-0.8504697963717827,-0.8402780804040428,-0.8399851371212583
92,0.9298931936079273,1.820324219667484,0.9352426269707281,1.8256506254292582,-1.8256506254292582,-0.8957574318213308,-0.89040799845853,-0.8904310260595567
93,0.9441991911138337,1.8865009881187798,0.9441009227417484,1.885763461678867,-1.8857634616788672,-0.9415642705650336,-0.9416625389371188,-0.9423017970049461
94,0.9605460333529694,1.956073975003645,0.9550315486550849,1.9490465236603258,-1.949046523660326,-0.9885004903073566,-0.9940149750052412,-0.9955279416506757
95,0.9782208350852843,2.028252734318419,0.9685051249919661,2.0161021219986983,-2.016102121998698,-1.0378812869134135,-1.0475969970067318,-1.0500318992331348
96,0.9959421717234364,2.101670384536881,0.9852081941597922,2.087931939909129,-2.0879319399091285,-1.0919897681856923,-1.1027237457493362,-1.1057282128134447
97,1.0120225783784238,2.174546357916983,1.0058252456645937,2.16568221386916,-2.1656822138691596,-1.1536596354907358,-1.1598569682045659,-1.1625237795385592
98,1.0247830595886227,2.2451012605576275,1.0304577943311388,2.249955050881562,-2.249955050881562,-1.2251719912929393,-1.2194972565504232,-1.2203182009690048
99,1.0330932298860995,2.312097467855163,1.0579617893537856,2.3399847629003983,-2.3399847629003983,-1.3068915330142987,-1.2820229735466127,-1.2790042379690636
100,1.0367942067232763,2.375262579432764,1.0855924433507385,2.4331122038994604,-2.4331122038994604,-1.396317997176184,-1.347519760548722,-1.338468372709488
101,1.0367933707508303,2.4353848487904797,1.1092712030313363,2.5249298195921384,-2.5249298195921384,-1.488136448841308,-1.415658616560802,-1.3985914780396493
102,1.0347744199102151,2.494024011783367,1.124545681380631,2.610219721868292,-2.6102197218682917,-1.5754453019580765,-1.4856740404876607,-1.459249591873152
104,1.3142538163075268,2.8965332328189155,1.1279923475356766,2.6844585642882217,-2.6844585642882217,-1.370204747980695,-1.5564662167525452,-1.5822794165113887
105,1.313555222891574,2.9572568867397147,1.1185549204756424,2.745365976336908,-2.745365976336908,-1.431810753445334,-1.6268110558612654,-1.6437016638481405
106,1.1340277814247377,2.8391725174257427,1.0982502517517476,2.7938737110472704,-2.79387371104727,-1.6598459296225323,-1.6956234592955224,-1.7051447360010048
107,1.1376631200127443,2.9041406767205187,1.071862352449337,2.834059737509541,-2.834059737509541,-1.6963966174967966,-1.762197385060204,-1.7664775567077742
108,0.8666282131478757,2.694198424387835,1.0456268844873424,2.8719772615937265,-2.871977261593726,-2.0053490484458503,-1.8263503771063836,-1.8275702112399594
109,0.8466248316463469,2.734919892472531,1.0253281535872787,2.913757497381088,-2.913757497381088,-2.067132665734741,-1.8884293437938091,-1.888295060826184
110,0.9387667241982179,2.8872945775848216,1.0145026892822737,2.963680773028713,-2.9636807730287127,-2.0249140488304946,-1.949178083746439,-1.9485278533866035
111,1.0584193608497074,3.0665681696321743,1.013436468662023,3.0229461697233253,-3.022946169723326,-1.9645268088736187,-2.009509701061303,-2.008148808782467
112,1.0633276513319383,3.1303713073074104,1.0193429948841701,3.0895970143258435,-3.0895970143258435,-2.0262693629939053,-2.0702540194416734,-2.067043655975472
113,1.0681963277112791,3.1933009271496378,1.0276368115643408,3.159589622900766,-3.1595896229007656,-2.0913932951894862,-2.131952811336425,-2.125104599438359
114,1.0730362004838183,3.2552673934156378,1.0337738906597256,3.228528431997147,-3.2285284319971477,-2.155492231513329,-2.194754541337422,-2.1822311929318197
115,1.0775897298368566,3.315920830232681,1.0349088512262545,3.2933332675422693,-3.2933332675422693,-2.2157435377054124,-2.2584244163160148,-2.2383311003958246
117,1.08147602715872,3.4295094694546004,1.0307154460782477,3.3531640059821624,-3.353164005982161,-2.271687978823441,-2.322448559903913,-2.3480334422958804
118,1.0844363971521842,3.485150203727168,1.0230864106203137,3.409272331606365,-3.409272331606365,-2.324835934454181,-2.386185920986051,-2.400713806574984
119,1.000134787732982,3.452232706070878,1.014907854984083,3.4639231254958496,-3.4639231254958496,-2.4637883377628675,-2.4490152705117665,-2.452097918337896
120,0.7660694791494829,3.268207092182692,1.0084830523220125,3.5189200570827452,-3.5189200570827452,-2.7528505779332626,-2.5104370047607327,-2.5021376130332094
121,0.8313611873710138,3.38215542776996,1.004300646748812,3.5744141894684422,-3.5744141894684422,-2.7430530020974286,-2.57011354271963,-2.5507942403989463
123,1.096542742614344,3.7419795895823036,1.0006637538745222,3.6285208180216335,-3.6285208180216344,-2.5319780754072907,-2.627857064147112,-2.6454368469679594
124,1.2118662234708164,3.9018082093742326,0.9943097326617175,3.6778989920479006,-3.6778989920479006,-2.466032768577084,-2.683589259386183,-2.689941985903416
125,1.0758674398345989,3.8088606800328213,0.9817296780901886,3.7190295243543288,-3.7190295243543288,-2.64316208451973,-2.7372998462641402,-2.7329932401982227
126,0.8927542183053465,3.6673459548029905,0.9606218987174466,3.7496426312858087,-3.7496426312858078,-2.856888412980461,-2.7890207325683614,-2.774591736497644
128,0.8947637408315992,3.750332851240101,0.9308911581144901,3.769708987407167,-3.769708987407168,-2.874945246575569,-2.838817829292678,-2.8555691104085015
129,0.8975096942127558,3.790496507444434,0.8948267479264624,3.7816172449373626,-3.781617244937364,-2.8841075507246083,-2.8867904970109013,-2.8929868132316785
130,0.9010679452825608,3.8300735146158122,0.8564441478444405,3.789509165897752,-3.7895091658977527,-2.8884412206151917,-2.933065018053312,-2.9290055693332513
131,0.9052902155413396,3.8689426100772817,0.8202979517301129,3.798072195871164,-3.798072195871163,-2.892781980329824,-2.97777424414105,-2.9636523945359423
133,0.5880165513179014,3.619426064702173,0.7902376869206498,3.811264054506053,-3.8112640545060534,-3.2232475031881522,-3.021026367585404,-3.031409513384272
134,0.6466337259309964,3.708825080906477,0.7685323304185094,3.8314071933764433,-3.8314071933764438,-3.1847734674454475,-3.0628748629579343,-3.062191354975481
135,0.8181620477271847,3.9098861475891233,0.755578112994964,3.858881889132454,-3.858881889132455,-3.04071984140527,-3.103303776137491,-3.091724099861939
137,0.8221705611342776,3.9719650264721795,0.7501417221149176,3.8923783951997812,-3.8923783951997812,-3.0702078340655037,-3.142236673084864,-3.149794465337902
138,0.8258651954030642,4.00170033302282,0.7499021445863985,3.9294692434506944,-3.9294692434506953,-3.103604048047631,-3.179567098864297,-3.1758351376197558
140,0.8291619693707317,4.056450939430723,0.7520149766278577,3.967213496079777,-3.967213496079777,-3.138051526709045,-3.2151985194519193,-3.227288970059992
141,0.6473376793258934,3.897475615758184,0.7535260759150664,4.002603573548659,-4.002603573548659,-3.3552658942227653,-3.2490774976335928,-3.2501379364322904
142,0.49145660316434137,3.7634416625180416,0.7516294914070405,4.032836940706224,-4.032836940706225,-3.541380337541883,-3.281207449299184,-3.2719850593537
144,0.8763612306384972,4.191870088929159,0.7438936119171589,4.055533283565477,-4.0555332835654765,-3.179172052926979,-3.311639671648318,-3.3155088582906616
145,0.9738332440430201,4.308397898653501,0.7285908166484647,4.069039366989096,-4.069039366989096,-3.095206122946076,-3.340448550340631,-3.3345646546104812
147,0.6334832085785722,4.006292109951552,0.7051505462398551,4.072854573237441,-4.07285457323744,-3.439371364658868,-3.3677040269975853,-3.3728089013729794
148,0.6299590794009888,4.019311875194784,0.6745837331248765,4.068037828595009,-4.068037828595008,-3.4380787491940192,-3.3934540954701315,-3.389352795793795
150,0.6304492456299056,4.053304172764203,0.639610251429871,4.05733438856609,-4.05733438856609,-3.426885142936185,-3.4177241371362195,-3.4228549271342974
151,0.6324260359556827,4.069570360988441,0.6042528108224132,4.044784076167895,-4.044784076167896,-3.4123580402122133,-3.4405312653454825,-3.437144325032758
153,0.6355838304164736,4.101987220601161,0.5728565013506863,4.034761354251964,-4.034761354251964,-3.3991775238354904,-3.461904852901278,-3.466403390184687
154,0.6393216825819459,4.117992902740806,0.5487761165607746,4.030678329784187,-4.030678329784186,-3.39135664720224,-3.481902213223411,-3.47867122015886
156,0.30122436742477054,3.8053673931471517,0.5332031388523922,4.033814661158198,-4.0338146611582,-3.732590293733429,-3.5006115223058076,-3.504143025722381
