frequency,raw,error,smoothed,error_smoothed,equalization,equalized_raw,equalized_smoothed,target
20,-23.245489047062254,-23.26196820945644,-23.23933617175224,-23.255800958276684,5.999999999999999,-17.245489047062254,-17.23933617175224,0.016479162394188673
21,-22.595426961359937,-22.613073047829236,-22.55674416307054,-22.574391880686743,6.0,-16.595426961359937,-16.55674416307054,0.017646086469297995
22,-21.85727150430545,-21.876034075298023,-21.89427791017347,-21.913051538173875,6.0,-15.857271504305452,-15.894277910173471,0.01876257099257117
23,-21.174167975737557,-21.193995185472698,-21.25193741306103,-21.27177993073807,5.999999999999999,-15.174167975737557,-15.251937413061029,0.01982720973514196
24,-20.64703261614657,-20.66787095969436,-20.629722671733184,-20.650577058379305,5.999999999999998,-14.647032616146573,-14.629722671733186,0.020838343547786575
25,-20.113286139864357,-20.135080168779073,-20.028271675213084,-20.05008297526492,6.000000000000001,-14.113286139864357,-14.028271675213084,0.02179402891471538
26,-19.37769615142602,-19.400388155635994,-19.4468993005408,-19.469610671433998,6.0,-13.377696151426019,-13.4468993005408,0.022692004209976968
27,-18.8502149745134,-18.873749122060403,-18.88492304381675,-18.90847545062801,6.0,-12.8502149745134,-12.884923043816752,0.023534147547003226
28,-18.362683259289636,-18.38699673425757,-18.341289198930223,-18.36561976976831,6.0,-12.362683259289636,-12.341289198930223,0.02431347496793279
29,-17.9211991566524,-17.946223875997173,-17.814613185217446,-17.83965339525358,6.000000000000001,-11.9211991566524,-11.814613185217446,0.02502471934477457
30,-17.213092338026946,-17.23875359149791,-17.303507158486404,-17.32918170248677,6.0,-11.213092338026946,-11.303507158486404,0.025661253470963263
31,-16.775657329062582,-16.801872388622755,-16.806567111448263,-16.832792540350532,5.999999999999999,-10.775657329062582,-10.806567111448263,0.026215059560172893
32,-16.356828586998894,-16.38350539594103,-16.322578250696992,-16.34926196089027,5.999999999999999,-10.356828586998894,-10.322578250696992,0.0266768089421352
33,-15.855486508144605,-15.882522573518242,-15.850665899891034,-15.877705378717787,6.0,-9.855486508144605,-9.850665899891034,0.027036065373637452
34,-15.371535737884356,-15.39881812387656,-15.39037122839245,-15.417653503011927,5.999999999999998,-9.371535737884358,-9.390371228392452,0.027282385992203118
35,-15.00467048739078,-15.032075279685415,-14.941668572746902,-14.969069973948976,6.000000000000001,-9.00467048739078,-8.941668572746902,0.02740479229463677
36,-14.523925959966382,-14.551318287280278,-14.504830180263887,-14.53221636003073,5.999999999999998,-8.523925959966384,-8.50483018026389,0.02739232731389496
37,-14.066087486302,-14.0933218379078,-14.080197564063708,-14.107423762840925,6.0,-8.066087486302,-8.080197564063708,0.02723435160580001
38,-13.63394871366955,-13.660869491484554,-13.667942357663062,-13.694853891165288,6.000000000000001,-7.633948713669549,-7.667942357663061,0.026920777815003127
39,-13.189021428681976,-13.215463646811138,-13.267922707065175,-13.294355607382437,6.0,-7.189021428681976,-7.267922707065175,0.026442218129161255
40,-12.880249110494596,-12.906039140088797,-12.879726157392263,-12.905507904600604,5.999999999999999,-6.880249110494597,-6.8797261573922635,0.0257900295942024
41,-12.575655007186155,-12.600611395193368,-12.502891845644486,-12.52784210703644,5.999999999999999,-6.575655007186156,-6.502891845644487,0.024956388007214336
42,-12.164947127391919,-12.18888131295578,-12.137207335315448,-12.161138624339138,6.000000000000003,-6.164947127391916,-6.137207335315446,0.023934185563861288
43,-11.816847540560152,-11.839564398081366,-11.782913728067403,-11.805631895680733,6.0,-5.816847540560152,-5.782913728067403,0.02271685752121444
44,-11.422611696838803,-11.443909821890815,-11.44067162665717,-11.46197609970531,6.0,-5.422611696838803,-5.440671626657171,0.02129812505201123
45,-11.100881377586063,-11.120553039296224,-11.11124660837085,-11.130930298381124,5.999999999999998,-5.100881377586065,-5.111246608370852,0.019671661710161104
46,-10.731040327344811,-10.74887101917136,-10.795014360848999,-10.812863178163798,6.0,-4.731040327344811,-4.795014360848999,0.017830691826550282
47,-10.470159396133084,-10.485926925749277,-10.491495738044726,-10.507287660938657,5.999999999999999,-4.470159396133085,-4.491495738044727,0.015767529616192544
48,-10.16725858494856,-10.180731676334798,-10.19914957758075,-10.212653243660988,6.0,-4.167258584948559,-4.19914957758075,0.013473091386238423
49,-9.922634142758763,-9.933570534937402,-9.91555814587476,-9.926530952222606,6.0,-3.9226341427587634,-3.91555814587476,0.010936392178639842
50,-9.685482701640597,-9.693626750545508,-9.637975702144846,-9.646161420804273,6.0,-3.6854827016405967,-3.6379757021448462,0.008144048904911827
51,-9.40491793402192,-9.409997744895625,-9.364052337471717,-9.369178272934459,6.0,-3.4049179340219204,-3.3640523374717173,0.005079810873704016
52,-9.17499987480709,-9.176724012523573,-9.092468376766057,-9.094242111041844,5.999999999999998,-3.1749998748070922,-3.0924683767660586,0.001724137716482943
53,-8.812777629657672,-8.810831472023258,-8.823253401426534,-8.821359189299947,6.000000000000002,-2.8127776296576705,-2.8232534014265322,-0.0019461576344146359
54,-8.506876612923731,-8.50091842566613,-8.557696203315757,-8.551791094679034,5.999999999999999,-2.5068766129237323,-2.557696203315758,-0.005958187257600667
55,-8.247106268321858,-8.236763092397334,-8.297912991662535,-8.287622768801409,5.999999999999999,-2.2471062683218586,-2.2979129916625363,-0.010343175924523607
56,-8.050090063617771,-8.034953512719284,-8.046255849674672,-8.03117087467032,6.000000000000002,-2.0500900636177697,-2.0462558496746706,-0.015136550898488199
57,-7.80629203276885,-7.785914102164398,-7.804765587035021,-7.784436657818558,5.999999999999998,-1.8062920327688516,-1.804765587035023,-0.020377930604452477
58,-7.5747774502551515,-7.548666437275058,-7.574806725572531,-7.548741038639124,6.0,-1.5747774502551515,-1.5748067255725307,-0.026111012980093662
59,-7.3959092535252,-7.363525885434559,-7.356915986536832,-7.3245733000984785,6.000000000000001,-1.3959092535251987,-1.3569159865368308,-0.03238336809064091
60,-7.136624161086353,-7.097378018135394,-7.150810129979791,-7.111599213798716,6.000000000000001,-1.1366241610863517,-1.1508101299797904,-0.03924614295095896
61,-6.95350325171711,-6.906749562255011,-6.955473422430059,-6.908748870273133,6.000000000000002,-0.953503251717108,-0.9554734224300576,-0.04675368946209879
62,-6.690574630133517,-6.635611501691201,-6.76927914610147,-6.714338614352737,5.999999999999999,-0.6905746301335176,-0.7692791461014705,-0.05496312844231532
63,-6.5992161797006395,-6.535282315600416,-6.590157785538024,-6.526239707737197,5.999999999999999,-0.5992161797006403,-0.5901577855380244,-0.06393386410022384
64,-6.467736936465198,-6.394009872605823,-6.415857768290243,-6.342139581031777,5.973875724840987,-0.49386121162421137,-0.44198204344925607,-0.073727063859375
65,-6.2391223272425655,-6.1547172090180675,-6.2443220793680165,-6.159918980650952,5.918461060923555,-0.3206612663190107,-0.3258610184444617,-0.08440511822449803
66,-6.075744138211988,-5.979713043776855,-6.0741319096611806,-5.978096157603142,5.835103667912692,-0.24064047029929547,-0.23902824174848813,-0.09603109443513258
67,-5.931062401758006,-5.822394205676471,-5.9048889622990846,-5.796209710457089,5.7258640138049355,-0.20519838795307077,-0.17902494849414907,-0.10866819608153566
68,-5.78541486122108,-5.663035622400685,-5.737373725793892,-5.614977380782998,5.592507934235289,-0.19290692698579104,-0.1448657915586038,-0.12237923882039459
69,-5.584059572242885,-5.446833422283709,-5.573361487148772,-5.436112565537943,5.436112565537943,-0.14794700670494176,-0.13724892161082902,-0.1372261499591758
70,-5.39316097612427,-5.239891478975105,-5.415096079310802,-5.2617985359964585,5.2617985359964585,-0.13136244012781173,-0.1532975433143431,-0.1532694971491657
71,-5.211899750081036,-5.0413317011788275,-5.264567807031035,-5.09396680733716,5.09396680733716,-0.11793294274387645,-0.17060099969387554,-0.17056804890220878
72,-5.077425850783063,-4.888247483505288,-5.122848429647961,-4.933632539388183,4.933632539388184,-0.14379331139487928,-0.18921589025977692,-0.18917836727777537
73,-4.9686905386928295,-4.759536107687129,-4.989745602145259,-4.780549367198498,4.780549367198499,-0.18814117149433063,-0.2091962349467602,-0.20915443100569986
74,-4.879633307116257,-4.649086021499501,-4.8639346069345635,-4.633341487738273,4.633341487738273,-0.2462918193779844,-0.23059311919629089,-0.2305472856167552
75,-4.7942503538734655,-4.54084563795374,-4.743543333158987,-4.490088950790486,4.490088950790486,-0.3041614030829791,-0.25345438236850093,-0.2534047159197259
76,-4.590247993508453,-4.312477058083708,-4.626981952003976,-4.349157602176523,4.349157602176523,-0.24109039133193022,-0.2778243498274531,-0.2777709354247446
77,-4.649072836976263,-4.345386549906325,-4.513702254215378,-4.209958680794632,4.209958680794631,-0.4391141561816321,-0.3037435734207472,-0.3036862870699375
78,-4.36459758627057,-4.033410636437237,-4.404593454743667,-4.07334496131503,4.07334496131503,-0.29125262495553983,-0.33124849342863705,-0.33118694983333263
79,-4.336079023519406,-3.9757743770688974,-4.301866219378891,-3.9414952917719717,3.941495291771971,-0.39458373174743455,-0.36037092760691936,-0.3603046464505084
80,-4.174117861253292,-3.7830515128146214,-4.208481987096675,-3.817344584826904,3.817344584826904,-0.35677327642638756,-0.39113740226977134,-0.3910663484386703
81,-4.079868644716654,-3.6563746688507788,-4.127358784710769,-3.7037902129628435,3.703790212962844,-0.3760784317538097,-0.4235685717479254,-0.4234939758658749
82,-3.968319119080845,-3.510715028367874,-4.060649640693684,-3.602970452789881,3.6029704527898807,-0.3653486662909642,-0.4576791879038029,-0.4576040907129708
83,-4.022502174300732,-3.5290945901298403,-4.009321691933118,-3.5158426090475157,3.515842609047516,-0.5066595652532162,-0.4934790828856017,-0.49340758417089203
84,-3.999898829674308,-3.468989469953122,-3.973102477303967,-3.442127316650528,3.442127316650528,-0.5577715130237797,-0.5309751606534387,-0.530909359721186
85,-3.9790903809443066,-3.40898236564536,-3.9506878647789208,-3.3805144867381465,3.3805144867381474,-0.5985758942061592,-0.5701733780407734,-0.5701080152989464
86,-3.9617558058854625,-3.350760276700839,-3.9400098111438084,-3.3289312818247954,3.328931281824795,-0.6328245240606676,-0.6110785293190135,-0.6109955291846236
87,-3.948262906807955,-3.2947059513291532,-3.9383876056453366,-3.2846983602520616,3.2846983602520616,-0.6635645465558935,-0.653689245393275,-0.6535569554788019
88,-3.9377915735884264,-3.2400214375297165,-3.942512700053923,-3.244525727490309,3.2445257274903097,-0.6932658460981167,-0.6979869725636134,-0.6977701360587099
89,-3.848399563618356,-3.1047941268344568,-3.9483692831943062,-3.2044481510813325,3.204448151081333,-0.6439514125370231,-0.7439211321129733,-0.7436054367838993
90,-3.839463010985597,-3.048437494581387,-3.9512818116914836,-3.159884591791341,3.159884591791341,-0.679578419194256,-0.7913972199001424,-0.7910255164042104
91,-4.016378875551472,-3.1763937384302134,-3.946254466978738,-3.105976386574695,3.105976386574695,-0.9104024889767768,-0.8402780804040431,-0.8399851371212583
92,-4.058612553518512,-3.1681815274589553,-3.9286344554928467,-3.038226457034316,3.0382264570343156,-1.0203860964841964,-0.8904079984585311,-0.8904310260595567
93,-4.001633713233907,-3.0593319162289605,-3.8949562716100363,-2.9532937326729183,2.9532937326729187,-1.0483399805609879,-0.9416625389371176,-0.9423017970049461
94,-3.81645159508874,-2.820923653438064,-3.843697307769121,-2.84968233276388,2.8496823327638805,-0.9667692623248594,-0.9940149750052405,-0.9955279416506757
95,-3.7337473693199987,-2.683715470086864,-3.775665142888486,-2.7280681458817537,2.7280681458817533,-1.0056792234382455,-1.0475969970067327,-1.0500318992331348
96,-3.738633866694891,-2.6329056538814464,-3.693852940874224,-2.5911291951248883,2.591129195124888,-1.1475046715700032,-1.1027237457493362,-1.1057282128134447
97,-3.6076665352940873,-2.445142755755528,-3.6027892167506606,-2.4429322485460947,2.4429322485460943,-1.164734286747993,-1.1598569682045663,-1.1625237795385592
98,-3.432505341665296,-2.212187140696291,-3.507587536559239,-2.2880902800088165,2.288090280008817,-1.144415061656479,-1.2194972565504218,-1.2203182009690048
99,-3.3916378477723215,-2.112633609803258,-3.4129956784939344,-2.130972704947322,2.130972704947322,-1.2606651428249993,-1.2820229735466122,-1.2790042379690636
100,-3.3932241083163284,-2.0547557356068404,-3.3227179060957464,-1.9751981455470244,1.9751981455470247,-1.4180259627693037,-1.3475197605487217,-1.338468372709488
101,-3.1471146752261827,-1.7485231971865334,-3.2391567382078637,-1.8234981216470612,1.8234981216470614,-1.3236165535791213,-1.4156586165608023,-1.3985914780396493
102,-3.1746857028713595,-1.7154361109982075,-3.163552996140081,-1.6778789556524196,1.6778789556524198,-1.4968067472189397,-1.485674040487661,-1.459249591873152
104,-3.113862175445113,-1.531582758933724,-3.0963676932754405,-1.5399014765228962,1.5399014765228962,-1.5739606989222166,-1.5564662167525443,-1.5822794165113887
105,-3.065587555884356,-1.4218858920362156,-3.0376956462764295,-1.4108845904151643,1.4108845904151643,-1.6547029654691918,-1.6268110558612652,-1.6437016638481405
106,-2.9895354369660656,-1.2843907009650608,-2.9875375320528987,-1.2919140727573768,1.2919140727573768,-1.6976213642086888,-1.695623459295522,-1.7051447360010048
107,-2.928935974963705,-1.1624584182559308,-2.9458576162858576,-1.1836602312256541,1.1836602312256541,-1.7452757437380508,-1.7621973850602035,-1.7664775567077742
108,-2.8802563208569185,-1.052686109616959,-2.912469457843671,-1.0861190807372871,1.0861190807372871,-1.7941372401196314,-1.826350377106384,-1.8275702112399594
109,-2.8746395361697474,-0.9863444753435635,-2.8868712494222706,-0.9984419056284618,0.9984419056284619,-1.8761976305412855,-1.8884293437938087,-1.888295060826184
110,-2.869140047501938,-0.9206121941153347,-2.8681647401902497,-0.9189866564438105,0.9189866564438104,-1.950153391058128,-1.9491780837464394,-1.9485278533866035
111,-2.8639944322537407,-0.8558456234712737,-2.8551377256172286,-0.8456280245559262,0.8456280245559264,-2.0183664076978145,-2.009509701061302,-2.008148808782467
112,-2.859086141771511,-0.7920424857960389,-2.8464996788242494,-0.776245659382576,0.7762456593825761,-2.082840482388935,-2.0702540194416734,-2.067043655975472
113,-2.854217465392169,-0.7291128659538102,-2.8411761986910413,-0.7092233873546168,0.7092233873546165,-2.1449940780375525,-2.131952811336425,-2.125104599438359
114,-2.8493775926196308,-0.6671463996878111,-2.838529534334213,-0.6437749929967923,0.6437749929967923,-2.2056025996228383,-2.1947545413374208,-2.1822311929318197
115,-2.8448240632665915,-0.6064929628707669,-2.838399580415313,-0.5799751640992986,0.5799751640992987,-2.264848899167293,-2.2584244163160143,-2.2383311003958246
117,-2.840937765944729,-0.4929043236488484,-2.840941761384109,-0.5184932014801947,0.5184932014801945,-2.322444564464534,-2.3224485599039144,-2.3480334422958804
118,-2.837977395951264,-0.4372635893762804,-2.8463372855799034,-0.4601513645938523,0.46015136459385225,-2.377826031357412,-2.386185920986051,-2.400713806574984
119,-2.835921906727869,-0.383823988389973,-2.8545179604579785,-0.40550268994621186,0.40550268994621186,-2.430419216781657,-2.4490152705117665,-2.452097918337896
120,-2.8345052334941983,-0.3323676204609889,-2.8650468698278058,-0.3546098650670732,0.35460986506707315,-2.479895368427125,-2.5104370047607327,-2.5021376130332094
121,-2.8333914473077573,-0.28259720690881096,-2.8772245402334216,-0.3071109975137911,0.3071109975137912,-2.526280449793966,-2.57011354271963,-2.5507942403989463
123,-2.9731440275183534,-0.32770718055039394,-2.890379069728179,-0.2625220055810671,0.2625220055810671,-2.7106220219372865,-2.627857064147112,-2.6454368469679594
124,-2.9490117008948444,-0.2590697149914285,-2.9042015012839757,-0.22061224189779316,0.2206122418977932,-2.728399458997051,-2.6835892593861823,-2.689941985903416
125,-2.930584715774498,-0.19759147557627532,-2.9189555288191587,-0.1816556825550189,0.18165568255501893,-2.748929033219479,-2.73729984626414,-2.7329932401982227
126,-2.929084862154425,-0.15449312565678142,-2.9354436556044634,-0.14642292303610163,0.1464229230361016,-2.7826619391183236,-2.789020732568362,-2.774591736497644
128,-2.927075339628172,-0.07150622921967065,-2.9547271418274197,-0.11590931253474221,0.11590931253474225,-2.8111660270934298,-2.8388178292926773,-2.8555691104085015
129,-2.9243293862470154,-0.03134257301533694,-2.9777168402018344,-0.09092634319093426,0.09092634319093429,-2.833403043056081,-2.8867904970109,-2.8929868132316785
130,-2.9930783844020907,-0.06407281506883944,-3.004815549452376,-0.0717505313990642,0.07175053139906422,-2.9213278530030267,-2.9330650180533118,-2.9290055693332513
131,-3.0171235775621135,-0.053471183026171154,-3.035767032900213,-0.05799278875916171,0.05799278875916173,-2.959130788802952,-2.9777742441410515,-2.9636523945359423
133,-3.1131328739694575,-0.08172336058518548,-3.0697641423910413,-0.048737774805637915,0.04873777480563792,-3.0643950991638196,-3.0210263675854034,-3.031409513384272
134,-3.108572899013787,-0.04638154403830619,-3.105740654281282,-0.042865791323348376,0.04286579132334838,-3.0657071076904385,-3.0628748629579334,-3.062191354975481
135,-3.1603082132351896,-0.06858411337325077,-3.142684857851446,-0.03938108171395601,0.03938108171395601,-3.1209271315212335,-3.1033037761374898,-3.091724099861939
137,-3.25083330090744,-0.10103883556953797,-3.1798120158448713,-0.03757534276000702,0.03757534276000701,-3.213257958147433,-3.1422366730848643,-3.149794465337902
138,-3.201819249487882,-0.025984111868126103,-3.216516916661667,-0.03694981779737086,0.03694981779737087,-3.164869431690511,-3.179567098864296,-3.1758351376197558
140,-3.141193683201957,0.08609528685803491,-3.2521521297533624,-0.036953610301443285,0.036953610301443285,-3.104240072900514,-3.2151985194519193,-3.227288970059992
141,-3.2141207346106637,0.03601720182162671,-3.2857800222780025,-0.03670252464440975,0.036702524644409755,-3.177418209966254,-3.2490774976335928,-3.2501379364322904
142,-3.3973667744350022,-0.12538171508130214,-3.316077903593806,-0.03487045429462252,0.03487045429462252,-3.3624963201403797,-3.2812074492991834,-3.2719850593537
144,-3.390372348329963,-0.07486349003930126,-3.3415213684877463,-0.029881696839427478,0.02988169683942747,-3.3604906514905353,-3.3116396716483187,-3.3155088582906616
145,-3.3911092846926163,-0.05654463008213506,-3.3608558501446986,-0.020407299804067483,0.020407299804067483,-3.370701984888549,-3.340448550340631,-3.3345646546104812
147,-3.3922975024979247,-0.019488601124945326,-3.373739365634877,-0.0060353386372918195,0.006035338637291818,-3.386262163860633,-3.3677040269975853,-3.3728089013729794
148,-3.3930294263461405,-0.003676630552345461,-3.3813482930067504,0.012105802463382165,-0.012105802463382165,-3.4051352288095225,-3.3934540954701324,-3.389352795793795
150,-3.392539260117224,0.030315667017073444,-3.38671303630636,0.031011100829859025,-0.031011100829859025,-3.423550360947083,-3.417724137136219,-3.4228549271342974
151,-3.3905624697914476,0.04658185524131042,-3.394598537972049,0.04593272737343386,-0.04593272737343387,-3.4364951971648816,-3.440531265345483,-3.437144325032758
153,-3.387404675330656,0.07899871485403098,-3.4108545416847917,0.0510503112164863,-0.0510503112164863,-3.4384549865471423,-3.461904852901278,-3.466403390184687
154,-3.3836668231651834,0.09500439699367647,-3.441307608072453,0.04059460515096031,-0.04059460515096031,-3.424261428316144,-3.4819022132234134,-3.47867122015886
156,-3.5608445980924723,-0.05670157237009121,-3.4904161128693643,0.010195409436442444,-0.010195409436442445,-3.571040007528915,-3.5006115223058067,-3.504143025722381
