frequency,raw,error,smoothed,error_smoothed,equalization,parametric_eq,fixed_band_eq,equalized_raw,equalized_smoothed,target
20.00,8.98,0.53,8.97,0.51,-0.51,-0.98,-0.82,8.47,8.45,8.45
20.20,9.02,0.56,9.01,0.55,-0.55,-1.00,-0.84,8.47,8.46,8.46
20.40,9.06,0.59,9.06,0.59,-0.59,-1.01,-0.87,8.48,8.47,8.47
20.61,9.10,0.62,9.10,0.62,-0.62,-1.03,-0.89,8.48,8.48,8.48
20.81,9.13,0.65,9.15,0.66,-0.66,-1.05,-0.92,8.47,8.49,8.48
21.02,9.17,0.68,9.19,0.70,-0.70,-1.07,-0.94,8.48,8.50,8.49
21.23,9.22,0.72,9.24,0.73,-0.73,-1.09,-0.97,8.49,8.50,8.50
21.44,9.27,0.75,9.28,0.77,-0.77,-1.11,-1.00,8.50,8.51,8.52
21.66,9.32,0.80,9.33,0.81,-0.81,-1.13,-1.03,8.51,8.52,8.52
21.87,9.37,0.84,9.37,0.85,-0.85,-1.15,-1.06,8.52,8.52,8.53
22.09,9.42,0.89,9.42,0.89,-0.89,-1.17,-1.09,8.53,8.53,8.53
22.31,9.47,0.93,9.46,0.93,-0.93,-1.19,-1.12,8.54,8.53,8.54
22.54,9.51,0.97,9.51,0.97,-0.97,-1.21,-1.15,8.54,8.54,8.54
22.76,9.56,1.02,9.56,1.02,-1.02,-1.23,-1.18,8.55,8.54,8.55
22.99,9.61,1.07,9.61,1.06,-1.06,-1.25,-1.21,8.55,8.55,8.55
23.22,9.65,1.11,9.66,1.10,-1.10,-1.27,-1.25,8.55,8.55,8.55
23.45,9.70,1.15,9.70,1.15,-1.15,-1.29,-1.28,8.56,8.56,8.56
23.69,9.75,1.20,9.75,1.19,-1.19,-1.32,-1.32,8.56,8.56,8.56
23.92,9.79,1.24,9.79,1.23,-1.23,-1.34,-1.35,8.56,8.56,8.55
24.16,9.84,1.28,9.84,1.27,-1.27,-1.36,-1.39,8.57,8.56,8.56
24.40,9.88,1.31,9.88,1.31,-1.31,-1.38,-1.43,8.57,8.57,8.57
24.65,9.92,1.35,9.92,1.35,-1.35,-1.41,-1.46,8.57,8.57,8.57
24.89,9.96,1.39,9.96,1.40,-1.40,-1.43,-1.50,8.57,8.57,8.57
25.14,10.00,1.43,10.01,1.44,-1.44,-1.46,-1.54,8.57,8.57,8.57
25.39,10.04,1.47,10.05,1.48,-1.48,-1.48,-1.58,8.57,8.57,8.57
25.65,10.08,1.51,10.09,1.51,-1.51,-1.51,-1.62,8.57,8.57,8.57
25.91,10.13,1.56,10.13,1.55,-1.55,-1.53,-1.66,8.58,8.57,8.57
26.16,10.17,1.60,10.17,1.59,-1.59,-1.56,-1.70,8.58,8.57,8.58
26.43,10.20,1.63,10.21,1.63,-1.63,-1.58,-1.74,8.57,8.57,8.58
26.69,10.24,1.67,10.24,1.67,-1.67,-1.61,-1.78,8.57,8.58,8.58
26.96,10.28,1.71,10.28,1.71,-1.71,-1.63,-1.82,8.58,8.58,8.57
27.23,10.32,1.75,10.32,1.74,-1.74,-1.66,-1.86,8.58,8.58,8.57
27.50,10.36,1.79,10.36,1.78,-1.78,-1.69,-1.90,8.58,8.58,8.57
27.77,10.39,1.81,10.39,1.81,-1.81,-1.72,-1.94,8.58,8.58,8.58
28.05,10.43,1.85,10.43,1.85,-1.85,-1.74,-1.98,8.59,8.58,8.58
28.33,10.46,1.88,10.46,1.88,-1.88,-1.77,-2.02,8.58,8.58,8.58
28.62,10.49,1.91,10.49,1.91,-1.91,-1.80,-2.05,8.58,8.58,8.58
28.90,10.52,1.94,10.53,1.95,-1.95,-1.83,-2.09,8.58,8.58,8.59
29.19,10.55,1.97,10.56,1.98,-1.98,-1.86,-2.13,8.57,8.58,8.58
29.48,10.59,2.01,10.59,2.01,-2.01,-1.89,-2.16,8.58,8.58,8.58
29.78,10.62,2.04,10.63,2.05,-2.05,-1.92,-2.19,8.58,8.58,8.58
30.08,10.66,2.07,10.66,2.08,-2.08,-1.95,-2.22,8.58,8.58,8.59
30.38,10.69,2.11,10.69,2.11,-2.11,-1.98,-2.25,8.58,8.58,8.58
30.68,10.72,2.15,10.72,2.14,-2.14,-2.01,-2.28,8.58,8.58,8.58
30.99,10.75,2.18,10.75,2.18,-2.18,-2.04,-2.30,8.58,8.58,8.57
31.30,10.78,2.21,10.78,2.21,-2.21,-2.07,-2.33,8.58,8.57,8.57
31.61,10.81,2.24,10.81,2.24,-2.24,-2.10,-2.35,8.57,8.57,8.57
31.93,10.84,2.28,10.84,2.27,-2.27,-2.14,-2.37,8.57,8.57,8.56
32.24,10.87,2.31,10.87,2.30,-2.30,-2.17,-2.39,8.57,8.56,8.57
32.57,10.89,2.34,10.89,2.33,-2.33,-2.20,-2.41,8.56,8.56,8.55
32.89,10.91,2.36,10.92,2.36,-2.36,-2.23,-2.43,8.55,8.56,8.55
33.22,10.94,2.39,10.94,2.39,-2.39,-2.27,-2.44,8.55,8.55,8.55
33.55,10.96,2.41,10.97,2.42,-2.42,-2.30,-2.46,8.54,8.55,8.55
33.89,10.98,2.44,10.99,2.45,-2.45,-2.34,-2.47,8.53,8.54,8.54
34.23,11.01,2.48,11.01,2.48,-2.48,-2.37,-2.48,8.53,8.53,8.53
34.57,11.04,2.51,11.04,2.51,-2.51,-2.41,-2.50,8.53,8.53,8.53
34.92,11.07,2.56,11.06,2.54,-2.54,-2.44,-2.51,8.53,8.52,8.52
35.27,11.09,2.57,11.08,2.57,-2.57,-2.48,-2.52,8.52,8.51,8.52
35.62,11.10,2.60,11.11,2.60,-2.60,-2.51,-2.53,8.50,8.50,8.50
35.97,11.12,2.63,11.13,2.64,-2.64,-2.55,-2.55,8.48,8.49,8.50
36.33,11.14,2.66,11.15,2.67,-2.67,-2.58,-2.56,8.47,8.48,8.48
36.70,11.17,2.70,11.18,2.71,-2.71,-2.62,-2.57,8.47,8.47,8.47
37.06,11.19,2.74,11.20,2.74,-2.74,-2.65,-2.58,8.45,8.46,8.46
37.43,11.22,2.78,11.22,2.77,-2.77,-2.69,-2.60,8.45,8.44,8.44
37.81,11.24,2.81,11.23,2.80,-2.80,-2.73,-2.61,8.44,8.43,8.43
38.19,11.26,2.85,11.25,2.83,-2.83,-2.77,-2.63,8.43,8.42,8.41
38.57,11.27,2.87,11.27,2.87,-2.87,-2.80,-2.65,8.41,8.40,8.40
38.95,11.29,2.91,11.28,2.90,-2.90,-2.84,-2.67,8.39,8.38,8.39
39.34,11.30,2.94,11.30,2.93,-2.93,-2.88,-2.69,8.37,8.37,8.36
39.74,11.31,2.97,11.31,2.96,-2.96,-2.92,-2.71,8.35,8.35,8.35
40.14,11.32,2.99,11.33,3.00,-3.00,-2.95,-2.73,8.33,8.33,8.33
40.54,11.33,3.02,11.34,3.03,-3.03,-2.99,-2.76,8.30,8.31,8.32
40.94,11.34,3.05,11.35,3.06,-3.06,-3.03,-2.79,8.28,8.29,8.29
41.35,11.35,3.08,11.37,3.09,-3.09,-3.07,-2.81,8.26,8.27,8.27
41.76,11.37,3.12,11.38,3.13,-3.13,-3.11,-2.85,8.24,8.25,8.25
42.18,11.39,3.16,11.39,3.16,-3.16,-3.15,-2.88,8.23,8.23,8.23
42.60,11.41,3.21,11.40,3.20,-3.20,-3.19,-2.92,8.21,8.20,8.21
43.03,11.43,3.25,11.41,3.23,-3.23,-3.22,-2.95,8.20,8.18,8.18
43.46,11.43,3.28,11.42,3.27,-3.27,-3.26,-2.99,8.16,8.16,8.15
43.90,11.43,3.31,11.44,3.31,-3.31,-3.30,-3.04,8.13,8.13,8.13
44.33,11.44,3.34,11.45,3.34,-3.34,-3.34,-3.08,8.10,8.10,8.10
44.78,11.46,3.39,11.46,3.38,-3.38,-3.38,-3.13,8.08,8.07,8.07
45.23,11.47,3.42,11.46,3.42,-3.42,-3.42,-3.18,8.05,8.04,8.05
45.68,11.47,3.46,11.47,3.46,-3.46,-3.46,-3.23,8.01,8.01,8.02
46.13,11.47,3.50,11.48,3.50,-3.50,-3.50,-3.28,7.97,7.98,7.98
46.60,11.47,3.52,11.48,3.54,-3.54,-3.54,-3.34,7.94,7.95,7.95
47.06,11.47,3.55,11.49,3.58,-3.58,-3.58,-3.40,7.90,7.91,7.92
47.53,11.49,3.60,11.49,3.62,-3.62,-3.62,-3.46,7.88,7.88,7.89
48.01,11.51,3.67,11.50,3.66,-3.66,-3.65,-3.52,7.86,7.84,7.84
48.49,11.51,3.70,11.50,3.69,-3.69,-3.69,-3.58,7.82,7.81,7.81
48.97,11.51,3.74,11.51,3.73,-3.73,-3.73,-3.65,7.78,7.77,7.77
49.46,11.51,3.77,11.51,3.77,-3.77,-3.77,-3.72,7.74,7.74,7.74
49.96,11.51,3.83,11.51,3.81,-3.81,-3.81,-3.79,7.70,7.70,7.69
50.46,11.51,3.86,11.51,3.85,-3.85,-3.85,-3.86,7.66,7.66,7.65
50.96,11.51,3.89,11.52,3.89,-3.89,-3.89,-3.93,7.62,7.62,7.62
51.47,11.51,3.92,11.52,3.93,-3.93,-3.92,-4.00,7.58,7.59,7.59
51.99,11.51,3.97,11.52,3.97,-3.97,-3.96,-4.07,7.54,7.55,7.55
52.51,11.51,4.00,11.52,4.01,-4.01,-4.00,-4.15,7.51,7.51,7.51
53.03,11.51,4.02,11.51,4.04,-4.04,-4.03,-4.22,7.47,7.47,7.49
53.56,11.51,4.07,11.51,4.07,-4.07,-4.07,-4.29,7.44,7.44,7.44
54.10,11.51,4.11,11.51,4.11,-4.11,-4.11,-4.36,7.40,7.40,7.40
54.64,11.51,4.15,11.50,4.14,-4.14,-4.14,-4.43,7.37,7.37,7.36
55.18,11.51,4.19,11.50,4.17,-4.17,-4.18,-4.50,7.34,7.33,7.32
55.74,11.50,4.22,11.50,4.20,-4.20,-4.21,-4.57,7.30,7.30,7.28
56.29,11.48,4.23,11.49,4.23,-4.23,-4.25,-4.64,7.25,7.26,7.25
56.86,11.47,4.25,11.49,4.26,-4.26,-4.28,-4.70,7.21,7.23,7.23
57.42,11.47,4.29,11.48,4.29,-4.29,-4.32,-4.76,7.18,7.19,7.18
58.00,11.47,4.32,11.47,4.32,-4.32,-4.35,-4.81,7.15,7.16,7.15
58.58,11.47,4.34,11.47,4.35,-4.35,-4.39,-4.87,7.12,7.12,7.13
59.16,11.47,4.37,11.46,4.38,-4.38,-4.42,-4.91,7.09,7.08,7.10
59.76,11.45,4.38,11.45,4.41,-4.41,-4.45,-4.96,7.04,7.04,7.07
60.35,11.44,4.43,11.44,4.44,-4.44,-4.48,-4.99,7.00,7.00,7.02
60.96,11.43,4.46,11.43,4.47,-4.47,-4.51,-5.03,6.96,6.96,6.97
61.57,11.43,4.51,11.42,4.50,-4.50,-4.54,-5.06,6.93,6.92,6.92
62.18,11.42,4.55,11.41,4.53,-4.53,-4.57,-5.08,6.89,6.88,6.87
62.80,11.39,4.57,11.41,4.57,-4.57,-4.60,-5.09,6.82,6.84,6.82
63.43,11.38,4.60,11.40,4.60,-4.60,-4.63,-5.11,6.78,6.80,6.78
64.07,11.38,4.64,11.38,4.63,-4.63,-4.66,-5.11,6.75,6.75,6.74
64.71,11.37,4.67,11.37,4.66,-4.66,-4.69,-5.11,6.71,6.71,6.71
65.35,11.36,4.69,11.36,4.69,-4.69,-4.72,-5.11,6.67,6.67,6.67
66.01,11.34,4.71,11.35,4.72,-4.72,-4.74,-5.10,6.62,6.63,6.63
66.67,11.34,4.74,11.33,4.75,-4.75,-4.77,-5.09,6.60,6.59,6.60
67.33,11.33,4.78,11.32,4.77,-4.77,-4.79,-5.07,6.56,6.55,6.55
68.01,11.30,4.79,11.31,4.80,-4.80,-4.82,-5.05,6.50,6.51,6.51
68.69,11.30,4.83,11.29,4.82,-4.82,-4.84,-5.03,6.48,6.47,6.47
69.37,11.28,4.84,11.28,4.85,-4.85,-4.87,-5.01,6.44,6.43,6.44
70.07,11.25,4.86,11.26,4.87,-4.87,-4.89,-4.98,6.38,6.39,6.39
70.77,11.23,4.88,11.24,4.90,-4.90,-4.91,-4.95,6.33,6.34,6.35
71.48,11.22,4.92,11.22,4.92,-4.92,-4.93,-4.92,6.30,6.30,6.31
72.19,11.20,4.94,11.20,4.94,-4.94,-4.95,-4.88,6.26,6.26,6.26
72.91,11.17,4.96,11.18,4.96,-4.96,-4.97,-4.85,6.21,6.22,6.21
73.64,11.17,5.01,11.16,4.99,-4.99,-4.99,-4.82,6.19,6.18,6.17
74.38,11.15,5.02,11.14,5.01,-5.01,-5.01,-4.78,6.15,6.14,6.13
75.12,11.12,5.03,11.12,5.02,-5.02,-5.03,-4.75,6.10,6.10,6.09
75.87,11.09,5.03,11.10,5.04,-5.04,-5.04,-4.72,6.05,6.06,6.06
76.63,11.08,5.06,11.08,5.05,-5.05,-5.06,-4.69,6.03,6.02,6.02
77.40,11.06,5.07,11.06,5.07,-5.07,-5.08,-4.66,5.99,5.99,5.99
78.17,11.03,5.09,11.03,5.08,-5.08,-5.09,-4.64,5.95,5.95,5.95
78.95,10.99,5.07,11.01,5.09,-5.09,-5.10,-4.61,5.90,5.92,5.92
79.74,10.99,5.10,10.99,5.10,-5.10,-5.12,-4.59,5.89,5.88,5.89
80.54,10.97,5.12,10.96,5.11,-5.11,-5.13,-4.57,5.86,5.85,5.85
81.35,10.94,5.12,10.94,5.12,-5.12,-5.14,-4.56,5.82,5.82,5.82
82.16,10.91,5.12,10.91,5.13,-5.13,-5.15,-4.54,5.78,5.78,5.79
82.98,10.88,5.13,10.89,5.14,-5.14,-5.17,-4.53,5.74,5.75,5.75
83.81,10.86,5.15,10.86,5.15,-5.15,-5.18,-4.52,5.71,5.71,5.72
84.65,10.83,5.16,10.84,5.16,-5.16,-5.19,-4.52,5.67,5.68,5.68
85.50,10.81,5.17,10.81,5.17,-5.17,-5.19,-4.52,5.65,5.64,5.64
86.35,10.78,5.17,10.78,5.17,-5.17,-5.20,-4.52,5.61,5.61,5.61
87.22,10.76,5.19,10.75,5.18,-5.18,-5.21,-4.53,5.58,5.57,5.58
88.09,10.73,5.20,10.73,5.19,-5.19,-5.22,-4.54,5.54,5.54,5.53
88.97,10.69,5.19,10.70,5.20,-5.20,-5.22,-4.55,5.50,5.50,5.50
89.86,10.66,5.20,10.67,5.20,-5.20,-5.23,-4.57,5.46,5.46,5.46
90.76,10.63,5.21,10.64,5.21,-5.21,-5.24,-4.59,5.42,5.42,5.43
91.66,10.61,5.23,10.61,5.22,-5.22,-5.24,-4.61,5.39,5.39,5.38
92.58,10.58,5.23,10.58,5.23,-5.23,-5.25,-4.64,5.35,5.35,5.35
93.51,10.54,5.23,10.54,5.24,-5.24,-5.25,-4.67,5.30,5.31,5.31
94.44,10.51,5.23,10.51,5.25,-5.25,-5.25,-4.70,5.27,5.27,5.28
95.39,10.47,5.24,10.48,5.26,-5.26,-5.26,-4.74,5.22,5.23,5.23
96.34,10.44,5.26,10.45,5.26,-5.26,-5.26,-4.78,5.18,5.19,5.19
97.30,10.42,5.27,10.42,5.27,-5.27,-5.26,-4.82,5.15,5.15,5.15
98.28,10.38,5.28,10.39,5.28,-5.28,-5.26,-4.86,5.10,5.11,5.10
99.26,10.35,5.30,10.35,5.28,-5.28,-5.26,-4.91,5.07,5.07,5.06
100.25,10.32,5.30,10.32,5.29,-5.29,-5.26,-4.96,5.03,5.03,5.02
101.25,10.29,5.30,10.28,5.29,-5.29,-5.26,-5.01,5.00,4.99,4.99
102.27,10.25,5.30,10.25,5.29,-5.29,-5.26,-5.07,4.96,4.96,4.95
103.29,10.21,5.30,10.21,5.29,-5.29,-5.26,-5.12,4.92,4.92,4.91
104.32,10.18,5.30,10.18,5.30,-5.30,-5.26,-5.18,4.89,4.88,4.89
105.37,10.14,5.29,10.14,5.30,-5.30,-5.26,-5.24,4.85,4.85,4.85
106.42,10.10,5.28,10.11,5.29,-5.29,-5.26,-5.29,4.81,4.81,4.82
107.48,10.07,5.30,10.07,5.29,-5.29,-5.26,-5.35,4.78,4.78,4.77
108.56,10.02,5.28,10.03,5.29,-5.29,-5.25,-5.41,4.73,4.74,4.75
109.64,9.99,5.28,9.99,5.29,-5.29,-5.25,-5.46,4.70,4.70,4.71
110.74,9.95,5.28,9.95,5.29,-5.29,-5.25,-5.52,4.67,4.67,4.67
111.85,9.91,5.28,9.92,5.29,-5.29,-5.24,-5.57,4.63,4.63,4.63
112.97,9.87,5.28,9.88,5.28,-5.28,-5.24,-5.62,4.59,4.59,4.60
114.10,9.85,5.29,9.84,5.28,-5.28,-5.24,-5.67,4.57,4.55,4.56
115.24,9.79,5.28,9.80,5.28,-5.28,-5.23,-5.71,4.51,4.51,4.51
116.39,9.75,5.28,9.76,5.28,-5.28,-5.23,-5.75,4.47,4.48,4.47
117.55,9.71,5.28,9.71,5.28,-5.28,-5.22,-5.78,4.44,4.44,4.43
118.73,9.68,5.29,9.67,5.27,-5.27,-5.22,-5.81,4.41,4.40,4.39
119.92,9.62,5.27,9.63,5.27,-5.27,-5.21,-5.84,4.36,4.36,4.35
121.12,9.59,5.26,9.59,5.26,-5.26,-5.20,-5.85,4.33,4.32,4.33
122.33,9.54,5.26,9.54,5.26,-5.26,-5.20,-5.87,4.29,4.28,4.29
123.55,9.49,5.24,9.50,5.25,-5.25,-5.19,-5.87,4.24,4.25,4.25
124.79,9.45,5.23,9.45,5.24,-5.24,-5.19,-5.87,4.21,4.21,4.22
126.03,9.41,5.23,9.41,5.24,-5.24,-5.18,-5.86,4.18,4.17,4.18
127.29,9.36,5.23,9.36,5.23,-5.23,-5.17,-5.85,4.13,4.13,4.14
128.57,9.31,5.22,9.32,5.22,-5.22,-5.16,-5.83,4.09,4.10,4.10
129.85,9.27,5.22,9.27,5.21,-5.21,-5.16,-5.80,4.06,4.06,4.06
131.15,9.22,5.20,9.23,5.21,-5.21,-5.15,-5.77,4.02,4.02,4.02
132.46,9.17,5.19,9.18,5.20,-5.20,-5.14,-5.73,3.98,3.98,3.98
133.79,9.13,5.19,9.13,5.19,-5.19,-5.13,-5.69,3.94,3.95,3.94
135.12,9.09,5.19,9.09,5.18,-5.18,-5.12,-5.64,3.91,3.91,3.91
136.48,9.04,5.16,9.04,5.17,-5.17,-5.11,-5.59,3.88,3.88,3.88
137.84,8.99,5.15,9.00,5.15,-5.15,-5.10,-5.53,3.84,3.84,3.84
139.22,8.95,5.15,8.95,5.14,-5.14,-5.09,-5.48,3.81,3.81,3.80
140.61,8.91,5.14,8.90,5.12,-5.12,-5.08,-5.41,3.79,3.78,3.78
142.02,8.85,5.11,8.85,5.11,-5.11,-5.07,-5.35,3.74,3.75,3.74
143.44,8.81,5.10,8.81,5.09,-5.09,-5.06,-5.28,3.72,3.72,3.71
144.87,8.76,5.07,8.76,5.07,-5.07,-5.05,-5.21,3.69,3.69,3.69
146.32,8.70,5.04,8.71,5.05,-5.05,-5.04,-5.15,3.65,3.66,3.66
147.78,8.65,5.02,8.66,5.03,-5.03,-5.03,-5.08,3.62,3.63,3.63
149.26,8.61,5.01,8.61,5.01,-5.01,-5.02,-5.01,3.60,3.60,3.60
150.75,8.56,5.00,8.56,4.99,-4.99,-5.00,-4.94,3.57,3.57,3.57
152.26,8.51,4.96,8.51,4.97,-4.97,-4.99,-4.87,3.54,3.54,3.55
153.78,8.46,4.95,8.46,4.95,-4.95,-4.98,-4.80,3.52,3.51,3.51
155.32,8.40,4.91,8.41,4.92,-4.92,-4.96,-4.74,3.48,3.48,3.49
156.88,8.35,4.90,8.35,4.90,-4.90,-4.95,-4.68,3.45,3.45,3.45
158.44,8.31,4.89,8.30,4.88,-4.88,-4.93,-4.61,3.43,3.42,3.42
160.03,8.24,4.85,8.25,4.86,-4.86,-4.92,-4.55,3.38,3.39,3.39
161.63,8.20,4.85,8.20,4.84,-4.84,-4.90,-4.50,3.36,3.35,3.36
163.24,8.14,4.83,8.15,4.83,-4.83,-4.89,-4.44,3.32,3.32,3.32
164.88,8.09,4.81,8.09,4.81,-4.81,-4.87,-4.39,3.29,3.29,3.29
166.53,8.04,4.80,8.04,4.79,-4.79,-4.85,-4.34,3.25,3.25,3.25
168.19,7.99,4.77,7.98,4.77,-4.77,-4.83,-4.30,3.22,3.22,3.22
169.87,7.92,4.74,7.93,4.75,-4.75,-4.82,-4.25,3.17,3.18,3.18
171.57,7.86,4.72,7.88,4.73,-4.73,-4.80,-4.21,3.13,3.14,3.14
173.29,7.82,4.71,7.82,4.71,-4.71,-4.78,-4.18,3.11,3.11,3.11
175.02,7.77,4.70,7.77,4.70,-4.70,-4.76,-4.14,3.08,3.07,3.07
176.77,7.72,4.68,7.71,4.68,-4.68,-4.74,-4.11,3.05,3.04,3.04
178.54,7.66,4.66,7.66,4.66,-4.66,-4.71,-4.09,3.00,3.00,3.00
180.32,7.61,4.65,7.61,4.64,-4.64,-4.69,-4.06,2.97,2.97,2.96
182.13,7.54,4.61,7.55,4.62,-4.62,-4.67,-4.04,2.92,2.93,2.93
183.95,7.48,4.59,7.49,4.60,-4.60,-4.64,-4.03,2.88,2.89,2.90
185.79,7.43,4.58,7.44,4.58,-4.58,-4.62,-4.01,2.85,2.86,2.86
187.65,7.39,4.57,7.38,4.56,-4.56,-4.60,-4.00,2.83,2.82,2.83
189.52,7.33,4.55,7.33,4.54,-4.54,-4.57,-3.99,2.79,2.79,2.79
191.42,7.27,4.52,7.27,4.52,-4.52,-4.54,-3.98,2.76,2.75,2.76
193.33,7.21,4.49,7.21,4.49,-4.49,-4.52,-3.98,2.72,2.72,2.72
195.27,7.15,4.47,7.15,4.47,-4.47,-4.49,-3.98,2.69,2.68,2.68
197.22,7.09,4.45,7.09,4.44,-4.44,-4.46,-3.98,2.65,2.65,2.64
199.19,7.03,4.42,7.03,4.41,-4.41,-4.43,-3.98,2.62,2.62,2.62
201.18,6.97,4.39,6.97,4.39,-4.39,-4.40,-3.99,2.59,2.59,2.58
203.19,6.91,4.36,6.92,4.36,-4.36,-4.37,-4.00,2.55,2.56,2.55
205.23,6.85,4.32,6.86,4.33,-4.33,-4.34,-4.01,2.52,2.53,2.53
207.28,6.79,4.29,6.80,4.30,-4.30,-4.30,-4.02,2.49,2.50,2.50
209.35,6.74,4.27,6.74,4.27,-4.27,-4.27,-4.03,2.47,2.47,2.47
211.44,6.68,4.24,6.68,4.24,-4.24,-4.23,-4.04,2.44,2.45,2.45
213.56,6.62,4.20,6.63,4.20,-4.20,-4.20,-4.05,2.42,2.42,2.42
215.69,6.57,4.17,6.57,4.17,-4.17,-4.16,-4.06,2.40,2.40,2.40
217.85,6.51,4.13,6.51,4.14,-4.14,-4.13,-4.07,2.38,2.37,2.38
220.03,6.45,4.11,6.45,4.10,-4.10,-4.09,-4.08,2.35,2.35,2.35
222.23,6.40,4.08,6.39,4.06,-4.06,-4.05,-4.09,2.34,2.33,2.32
224.45,6.34,4.04,6.33,4.03,-4.03,-4.01,-4.10,2.32,2.31,2.30
226.70,6.27,3.99,6.27,3.99,-3.99,-3.97,-4.10,2.29,2.29,2.28
228.96,6.21,3.94,6.21,3.95,-3.95,-3.93,-4.10,2.27,2.27,2.27
231.25,6.14,3.89,6.15,3.90,-3.90,-3.88,-4.10,2.24,2.25,2.25
233.57,6.09,3.86,6.09,3.86,-3.86,-3.84,-4.10,2.23,2.23,2.23
235.90,6.03,3.82,6.03,3.82,-3.82,-3.80,-4.09,2.22,2.22,2.21
238.26,5.97,3.78,5.97,3.77,-3.77,-3.75,-4.08,2.20,2.20,2.19
240.64,5.91,3.72,5.91,3.72,-3.72,-3.70,-4.07,2.19,2.19,2.20
243.05,5.85,3.67,5.85,3.68,-3.68,-3.66,-4.05,2.18,2.17,2.18
245.48,5.78,3.62,5.79,3.63,-3.63,-3.61,-4.03,2.16,2.16,2.16
247.93,5.73,3.59,5.73,3.58,-3.58,-3.56,-4.00,2.16,2.15,2.14
250.41,5.67,3.53,5.67,3.53,-3.53,-3.51,-3.96,2.15,2.14,2.14
252.92,5.61,3.47,5.61,3.48,-3.48,-3.46,-3.93,2.14,2.13,2.14
255.45,5.54,3.42,5.55,3.43,-3.43,-3.41,-3.88,2.12,2.12,2.12
258.00,5.48,3.37,5.49,3.37,-3.37,-3.36,-3.83,2.11,2.11,2.11
260.58,5.43,3.32,5.43,3.32,-3.32,-3.31,-3.78,2.11,2.11,2.11
263.19,5.36,3.26,5.37,3.27,-3.27,-3.25,-3.72,2.10,2.10,2.10
265.82,5.30,3.21,5.31,3.21,-3.21,-3.20,-3.66,2.09,2.09,2.10
268.48,5.25,3.16,5.25,3.16,-3.16,-3.14,-3.60,2.09,2.09,2.09
271.16,5.18,3.10,5.18,3.10,-3.10,-3.09,-3.53,2.08,2.08,2.08
273.87,5.12,3.04,5.12,3.05,-3.05,-3.03,-3.45,2.08,2.08,2.08
276.61,5.06,2.99,5.06,2.99,-2.99,-2.97,-3.38,2.07,2.07,2.07
279.38,5.00,2.94,5.00,2.93,-2.93,-2.91,-3.30,2.07,2.07,2.06
282.17,4.94,2.88,4.94,2.87,-2.87,-2.86,-3.21,2.07,2.07,2.06
284.99,4.88,2.81,4.88,2.81,-2.81,-2.80,-3.13,2.07,2.07,2.07
287.84,4.82,2.75,4.82,2.75,-2.75,-2.74,-3.04,2.07,2.07,2.08
290.72,4.76,2.70,4.76,2.69,-2.69,-2.67,-2.95,2.07,2.07,2.06
293.63,4.69,2.62,4.70,2.63,-2.63,-2.61,-2.86,2.06,2.07,2.07
296.57,4.63,2.56,4.63,2.57,-2.57,-2.55,-2.77,2.07,2.07,2.07
299.53,4.56,2.49,4.57,2.50,-2.50,-2.49,-2.68,2.06,2.07,2.07
302.53,4.51,2.44,4.51,2.44,-2.44,-2.43,-2.59,2.08,2.07,2.08
305.55,4.44,2.37,4.45,2.37,-2.37,-2.36,-2.49,2.07,2.07,2.07
308.61,4.39,2.31,4.38,2.31,-2.31,-2.30,-2.40,2.09,2.08,2.08
311.69,4.32,2.25,4.32,2.24,-2.24,-2.23,-2.31,2.08,2.08,2.08
314.81,4.26,2.18,4.26,2.18,-2.18,-2.17,-2.21,2.08,2.08,2.08
317.96,4.19,2.11,4.20,2.11,-2.11,-2.10,-2.12,2.08,2.08,2.08
321.14,4.13,2.04,4.13,2.05,-2.05,-2.04,-2.03,2.08,2.09,2.09
324.35,4.07,1.99,4.07,1.98,-1.98,-1.97,-1.93,2.09,2.09,2.08
327.59,4.01,1.91,4.01,1.92,-1.92,-1.90,-1.84,2.10,2.09,2.10
330.87,3.94,1.84,3.95,1.85,-1.85,-1.83,-1.75,2.09,2.10,2.10
334.18,3.88,1.79,3.89,1.79,-1.79,-1.77,-1.66,2.10,2.10,2.10
337.52,3.83,1.73,3.83,1.72,-1.72,-1.70,-1.57,2.11,2.11,2.10
340.90,3.76,1.65,3.77,1.65,-1.65,-1.63,-1.48,2.11,2.11,2.11
344.30,3.71,1.59,3.70,1.58,-1.58,-1.56,-1.40,2.13,2.12,2.12
347.75,3.64,1.51,3.64,1.52,-1.52,-1.49,-1.31,2.13,2.13,2.13
351.23,3.58,1.46,3.58,1.45,-1.45,-1.42,-1.22,2.13,2.13,2.13
354.74,3.52,1.38,3.52,1.38,-1.38,-1.36,-1.14,2.14,2.14,2.14
358.28,3.46,1.32,3.46,1.32,-1.32,-1.29,-1.06,2.15,2.14,2.14
361.87,3.41,1.26,3.40,1.25,-1.25,-1.22,-0.97,2.16,2.15,2.15
365.49,3.33,1.17,3.34,1.18,-1.18,-1.15,-0.89,2.15,2.16,2.16
369.14,3.27,1.10,3.28,1.11,-1.11,-1.08,-0.81,2.16,2.16,2.17
372.83,3.21,1.04,3.22,1.05,-1.05,-1.01,-0.73,2.17,2.17,2.18
376.56,3.14,0.97,3.16,0.98,-0.98,-0.94,-0.65,2.16,2.18,2.17
380.33,3.10,0.92,3.10,0.91,-0.91,-0.87,-0.57,2.19,2.19,2.18
384.13,3.04,0.85,3.03,0.84,-0.84,-0.80,-0.49,2.20,2.19,2.19
387.97,2.98,0.78,2.97,0.78,-0.78,-0.73,-0.41,2.21,2.20,2.20
391.85,2.91,0.70,2.91,0.71,-0.71,-0.66,-0.34,2.20,2.21,2.21
395.77,2.85,0.64,2.85,0.64,-0.64,-0.59,-0.26,2.21,2.21,2.21
399.73,2.80,0.59,2.79,0.57,-0.57,-0.52,-0.19,2.23,2.22,2.22
403.72,2.73,0.50,2.73,0.51,-0.51,-0.45,-0.11,2.23,2.23,2.24
407.76,2.67,0.44,2.68,0.44,-0.44,-0.38,-0.04,2.23,2.24,2.23
411.84,2.62,0.38,2.62,0.37,-0.37,-0.31,0.03,2.25,2.24,2.24
415.96,2.54,0.29,2.56,0.31,-0.31,-0.24,0.10,2.23,2.25,2.25
420.12,2.49,0.24,2.50,0.24,-0.24,-0.17,0.17,2.25,2.26,2.25
424.32,2.45,0.19,2.44,0.17,-0.17,-0.10,0.24,2.28,2.27,2.26
428.56,2.38,0.10,2.38,0.11,-0.11,-0.03,0.31,2.27,2.27,2.28
432.85,2.32,0.03,2.32,0.04,-0.04,0.04,0.37,2.28,2.28,2.29
437.18,2.27,-0.02,2.27,-0.02,0.02,0.10,0.44,2.30,2.29,2.29
441.55,2.20,-0.09,2.21,-0.09,0.09,0.17,0.50,2.30,2.30,2.30
445.96,2.14,-0.16,2.15,-0.16,0.16,0.24,0.57,2.30,2.31,2.31
450.42,2.10,-0.21,2.09,-0.23,0.23,0.31,0.63,2.33,2.32,2.32
454.93,2.03,-0.29,2.03,-0.30,0.30,0.38,0.69,2.33,2.33,2.33
459.48,1.98,-0.35,1.97,-0.36,0.36,0.44,0.75,2.35,2.34,2.33
464.07,1.91,-0.44,1.92,-0.43,0.43,0.51,0.80,2.34,2.35,2.35
468.71,1.86,-0.50,1.86,-0.50,0.50,0.57,0.86,2.36,2.36,2.36
473.40,1.80,-0.57,1.80,-0.57,0.57,0.64,0.91,2.37,2.37,2.37
478.13,1.74,-0.64,1.75,-0.63,0.63,0.71,0.96,2.37,2.38,2.38
482.91,1.68,-0.71,1.69,-0.70,0.70,0.77,1.01,2.38,2.39,2.39
487.74,1.62,-0.78,1.64,-0.77,0.77,0.84,1.06,2.39,2.40,2.40
492.62,1.58,-0.83,1.58,-0.83,0.83,0.90,1.10,2.42,2.41,2.41
497.55,1.53,-0.89,1.53,-0.90,0.90,0.96,1.14,2.43,2.42,2.42
502.52,1.48,-0.95,1.47,-0.97,0.97,1.03,1.18,2.45,2.44,2.43
507.55,1.42,-1.03,1.42,-1.03,1.03,1.09,1.22,2.45,2.45,2.45
512.62,1.36,-1.10,1.36,-1.10,1.10,1.15,1.26,2.46,2.46,2.46
517.75,1.31,-1.17,1.31,-1.16,1.16,1.21,1.30,2.47,2.47,2.48
522.93,1.26,-1.23,1.26,-1.23,1.23,1.27,1.33,2.49,2.48,2.49
