frequency,raw
20.00,-1.03
20.20,-0.99
20.40,-0.95
20.61,-0.91
20.81,-0.88
21.02,-0.84
21.23,-0.80
21.44,-0.76
21.66,-0.73
21.87,-0.69
22.09,-0.66
22.31,-0.62
22.54,-0.59
22.76,-0.56
22.99,-0.52
23.22,-0.49
23.45,-0.46
23.69,-0.42
23.92,-0.39
24.16,-0.36
24.40,-0.33
24.65,-0.30
24.89,-0.27
25.14,-0.24
25.39,-0.22
25.65,-0.19
25.91,-0.16
26.16,-0.13
26.43,-0.11
26.69,-0.09
26.96,-0.06
27.23,-0.04
27.50,-0.02
27.77,-0.01
28.05,0.01
28.33,0.03
28.62,0.05
28.90,0.06
29.19,0.08
29.48,0.09
29.78,0.11
30.08,0.12
30.38,0.13
30.68,0.13
30.99,0.14
31.30,0.14
31.61,0.13
31.93,0.13
32.24,0.13
32.57,0.12
32.89,0.12
33.22,0.11
33.55,0.10
33.89,0.08
34.23,0.07
34.57,0.06
34.92,0.04
35.27,0.03
35.62,0.01
35.97,-0.01
36.33,-0.03
36.70,-0.05
37.06,-0.06
37.43,-0.08
37.81,-0.10
38.19,-0.12
38.57,-0.14
38.95,-0.16
39.34,-0.17
39.74,-0.19
40.14,-0.20
40.54,-0.22
40.94,-0.23
41.35,-0.24
41.76,-0.25
42.18,-0.25
42.60,-0.26
43.03,-0.26
43.46,-0.27
43.90,-0.29
44.33,-0.30
44.78,-0.31
45.23,-0.33
45.68,-0.34
46.13,-0.35
46.60,-0.37
47.06,-0.38
47.53,-0.39
48.01,-0.39
48.49,-0.40
48.97,-0.42
49.46,-0.43
49.96,-0.45
50.46,-0.47
50.96,-0.49
51.47,-0.50
51.99,-0.52
52.51,-0.54
53.03,-0.55
53.56,-0.57
54.10,-0.58
54.64,-0.60
55.18,-0.61
55.74,-0.62
56.29,-0.64
56.86,-0.65
57.42,-0.66
58.00,-0.67
58.58,-0.66
59.16,-0.66
59.76,-0.64
60.35,-0.63
60.96,-0.61
61.57,-0.60
62.18,-0.59
62.80,-0.57
63.43,-0.56
64.07,-0.55
64.71,-0.54
65.35,-0.52
66.01,-0.49
66.67,-0.46
67.33,-0.44
68.01,-0.41
68.69,-0.38
69.37,-0.34
70.07,-0.32
70.77,-0.28
71.48,-0.25
72.19,-0.21
72.91,-0.17
73.64,-0.12
74.38,-0.08
75.12,-0.04
75.87,-0.01
76.63,0.04
77.40,0.08
78.17,0.12
78.95,0.17
79.74,0.21
80.54,0.25
81.35,0.28
82.16,0.30
82.98,0.33
83.81,0.34
84.65,0.35
85.50,0.36
86.35,0.37
87.22,0.38
88.09,0.38
88.97,0.37
89.86,0.36
90.76,0.35
91.66,0.35
92.58,0.35
93.51,0.36
94.44,0.36
95.39,0.37
96.34,0.37
97.30,0.38
98.28,0.37
99.26,0.35
100.25,0.33
101.25,0.30
102.27,0.29
103.29,0.28
104.32,0.26
105.37,0.23
106.42,0.19
107.48,0.15
108.56,0.09
109.64,0.04
110.74,-0.02
111.85,-0.06
112.97,-0.11
114.10,-0.14
115.24,-0.18
116.39,-0.20
117.55,-0.24
118.73,-0.29
119.92,-0.35
121.12,-0.40
122.33,-0.43
123.55,-0.46
124.79,-0.50
126.03,-0.53
127.29,-0.55
128.57,-0.57
129.85,-0.61
131.15,-0.63
132.46,-0.64
133.79,-0.64
135.12,-0.64
136.48,-0.63
137.84,-0.62
139.22,-0.62
140.61,-0.62
142.02,-0.62
143.44,-0.62
144.87,-0.63
146.32,-0.64
147.78,-0.64
149.26,-0.64
150.75,-0.63
152.26,-0.62
153.78,-0.59
155.32,-0.57
156.88,-0.53
158.44,-0.50
160.03,-0.46
161.63,-0.44
163.24,-0.41
164.88,-0.36
166.53,-0.34
168.19,-0.33
169.87,-0.31
171.57,-0.30
173.29,-0.29
175.02,-0.27
176.77,-0.26
178.54,-0.24
180.32,-0.23
182.13,-0.20
183.95,-0.17
185.79,-0.14
187.65,-0.11
189.52,-0.07
191.42,-0.02
193.33,0.02
195.27,0.06
197.22,0.10
199.19,0.14
201.18,0.19
203.19,0.24
205.23,0.28
207.28,0.34
209.35,0.39
211.44,0.44
213.56,0.49
215.69,0.54
217.85,0.60
220.03,0.63
222.23,0.67
224.45,0.71
226.70,0.75
228.96,0.81
231.25,0.85
233.57,0.89
235.90,0.95
238.26,0.99
240.64,1.04
243.05,1.08
245.48,1.13
247.93,1.18
250.41,1.22
252.92,1.27
255.45,1.29
258.00,1.33
260.58,1.38
263.19,1.42
265.82,1.48
268.48,1.50
271.16,1.53
273.87,1.56
276.61,1.59
279.38,1.61
282.17,1.63
284.99,1.65
287.84,1.67
290.72,1.68
293.63,1.67
296.57,1.66
299.53,1.65
302.53,1.65
305.55,1.65
308.61,1.65
311.69,1.65
314.81,1.65
317.96,1.65
321.14,1.66
324.35,1.66
327.59,1.67
330.87,1.67
334.18,1.67
337.52,1.66
340.90,1.65
344.30,1.62
347.75,1.59
351.23,1.56
354.74,1.53
358.28,1.49
361.87,1.47
365.49,1.44
369.14,1.42
372.83,1.39
376.56,1.35
380.33,1.31
384.13,1.27
387.97,1.24
391.85,1.21
395.77,1.19
399.73,1.16
403.72,1.13
407.76,1.11
411.84,1.08
415.96,1.06
420.12,1.03
424.32,1.00
428.56,0.98
432.85,0.95
437.18,0.92
441.55,0.91
445.96,0.89
450.42,0.85
454.93,0.82
459.48,0.78
464.07,0.75
468.71,0.72
473.40,0.69
478.13,0.67
482.91,0.67
487.74,0.67
492.62,0.68
497.55,0.69
502.52,0.69
507.55,0.68
512.62,0.66
517.75,0.63
522.93,0.60
528.16,0.58
533.44,0.56
538.77,0.53
544.16,0.49
549.60,0.44
555.10,0.39
560.65,0.34
566.25,0.30
571.92,0.25
577.64,0.21
583.41,0.18
589.25,0.15
595.14,0.12
601.09,0.09
607.10,0.06
613.17,0.05
619.30,0.03
625.50,0.01
631.75,0.01
638.07,0.01
644.45,0.02
650.89,0.03
657.40,0.03
663.98,0.03
670.62,0.03
677.32,0.03
684.10,0.03
690.94,0.03
697.85,0.03
704.83,0.03
711.87,0.03
718.99,0.03
726.18,0.03
733.44,0.03
740.78,0.03
748.19,0.03
755.67,0.02
763.23,0.01
770.86,0.01
778.57,0.01
786.35,0.02
794.22,0.04
802.16,0.06
810.18,0.09
818.28,0.13
826.46,0.17
834.73,0.20
843.08,0.23
851.51,0.25
860.02,0.26
868.62,0.26
877.31,0.26
886.08,0.24
894.94,0.22
903.89,0.20
912.93,0.16
922.06,0.12
931.28,0.09
940.59,0.06
950.00,0.04
959.50,0.03
969.09,0.03
978.78,0.02
988.57,0.01
998.46,0.00
1008.44,-0.01
1018.53,-0.04
1028.71,-0.07
1039.00,-0.11
1049.39,-0.14
1059.88,-0.18
1070.48,-0.21
1081.19,-0.24
1092.00,-0.27
1102.92,-0.29
1113.95,-0.31
1125.09,-0.31
1136.34,-0.31
1147.70,-0.31
1159.18,-0.30
1170.77,-0.30
1182.48,-0.29
1194.30,-0.29
1206.25,-0.29
1218.31,-0.29
1230.49,-0.29
1242.80,-0.29
1255.22,-0.29
1267.78,-0.29
1280.45,-0.30
1293.26,-0.31
1306.19,-0.32
1319.25,-0.32
1332.45,-0.31
1345.77,-0.29
1359.23,-0.27
1372.82,-0.25
1386.55,-0.22
1400.41,-0.19
1414.42,-0.16
1428.56,-0.12
1442.85,-0.09
1457.28,-0.06
1471.85,-0.03
1486.57,-0.00
1501.43,0.03
1516.45,0.04
1531.61,0.05
1546.93,0.05
1562.40,0.05
1578.02,0.05
1593.80,0.05
1609.74,0.05
1625.84,0.05
1642.10,0.05
1658.52,0.04
1675.10,0.02
1691.85,-0.01
1708.77,-0.03
1725.86,-0.07
1743.12,-0.13
1760.55,-0.20
1778.15,-0.30
1795.94,-0.41
1813.90,-0.52
1832.03,-0.65
1850.36,-0.80
1868.86,-0.96
1887.55,-1.14
1906.42,-1.32
1925.49,-1.53
1944.74,-1.75
1964.19,-1.98
1983.83,-2.22
2003.67,-2.45
2023.71,-2.70
2043.94,-2.93
2064.38,-3.16
2085.03,-3.38
2105.88,-3.59
2126.94,-3.78
2148.20,-3.96
2169.69,-4.11
2191.38,-4.25
2213.30,-4.35
2235.43,-4.43
2257.78,-4.50
2280.36,-4.53
2303.17,-4.52
2326.20,-4.50
2349.46,-4.47
2372.95,-4.42
2396.68,-4.36
2420.65,-4.28
2444.86,-4.18
2469.31,-4.10
2494.00,-4.01
2518.94,-3.92
2544.13,-3.83
2569.57,-3.75
2595.27,-3.68
2621.22,-3.63
2647.43,-3.60
2673.90,-3.58
2700.64,-3.57
2727.65,-3.59
2754.93,-3.61
2782.48,-3.64
2810.30,-3.70
2838.40,-3.79
2866.79,-3.90
2895.46,-4.01
2924.41,-4.13
2953.65,-4.25
2983.19,-4.36
3013.02,-4.47
3043.15,-4.56
3073.58,-4.65
3104.32,-4.73
3135.36,-4.80
3166.72,-4.85
3198.38,-4.88
3230.37,-4.87
3262.67,-4.85
3295.30,-4.82
3328.25,-4.79
3361.53,-4.76
3395.15,-4.73
3429.10,-4.69
3463.39,-4.64
3498.03,-4.58
3533.01,-4.52
3568.34,-4.46
3604.02,-4.41
3640.06,-4.35
3676.46,-4.32
3713.22,-4.30
3750.36,-4.32
3787.86,-4.35
3825.74,-4.41
3864.00,-4.47
3902.64,-4.56
3941.66,-4.66
3981.08,-4.77
4020.89,-4.86
4061.10,-4.95
4101.71,-5.02
4142.73,-5.06
4184.15,-5.05
4226.00,-5.02
4268.26,-4.93
4310.94,-4.81
4354.05,-4.65
4397.59,-4.45
4441.56,-4.20
4485.98,-3.95
4530.84,-3.67
4576.15,-3.36
4621.91,-3.01
4668.13,-2.64
4714.81,-2.22
4761.96,-1.77
4809.58,-1.25
4857.67,-0.69
4906.25,-0.09
4955.31,0.54
5004.87,1.21
5054.91,1.90
5105.46,2.58
5156.52,3.26
5208.08,3.92
5260.16,4.56
5312.77,5.15
5365.89,5.70
5419.55,6.18
5473.75,6.59
5528.49,6.94
5583.77,7.24
5639.61,7.47
5696.00,7.65
5752.96,7.79
5810.49,7.88
5868.60,7.93
5927.28,7.92
5986.56,7.87
6046.42,7.80
6106.89,7.67
6167.96,7.48
6229.64,7.22
6291.93,6.90
6354.85,6.51
6418.40,6.07
6482.58,5.54
6547.41,4.90
6612.88,4.16
6679.01,3.32
6745.80,2.41
6813.26,1.43
6881.39,0.41
6950.21,-0.63
7019.71,-1.68
7089.91,-2.69
7160.81,-3.67
7232.41,-4.60
7304.74,-5.45
7377.79,-6.22
7451.56,-6.89
7526.08,-7.47
7601.34,-7.96
7677.35,-8.35
7754.13,-8.66
7831.67,-8.91
7909.98,-9.12
7989.08,-9.31
8068.98,-9.47
8149.67,-9.61
8231.16,-9.74
8313.47,-9.84
8396.61,-9.92
8480.57,-9.99
8565.38,-10.03
8651.03,-10.05
8737.54,-10.04
8824.92,-10.00
8913.17,-9.94
9002.30,-9.84
9092.32,-9.73
9183.25,-9.60
9275.08,-9.47
9367.83,-9.33
9461.51,-9.18
9556.12,-9.02
9651.68,-8.86
9748.20,-8.72
9845.68,-8.58
9944.14,-8.46
10043.58,-8.32
10144.02,-8.18
10245.46,-8.03
10347.91,-7.86
10451.39,-7.66
10555.91,-7.42
10661.46,-7.12
10768.08,-6.79
10875.76,-6.46
10984.52,-6.09
11094.36,-5.69
11205.31,-5.30
11317.36,-4.91
11430.53,-4.53
11544.84,-4.17
11660.29,-3.83
11776.89,-3.54
11894.66,-3.29
12013.60,-3.08
12133.74,-2.92
12255.08,-2.80
12377.63,-2.72
12501.41,-2.66
12626.42,-2.63
12752.68,-2.62
12880.21,-2.63
13009.01,-2.66
13139.10,-2.72
13270.49,-2.81
13403.20,-2.94
13537.23,-3.10
13672.60,-3.34
13809.33,-3.64
13947.42,-4.00
14086.90,-4.40
14227.77,-4.85
14370.04,-5.33
14513.74,-5.84
14658.88,-6.36
14805.47,-6.87
14953.52,-7.35
15103.06,-7.81
15254.09,-8.22
15406.63,-8.58
15560.70,-8.90
15716.30,-9.17
15873.47,-9.40
16032.20,-9.62
16192.52,-9.81
16354.45,-9.97
16517.99,-10.13
16683.17,-10.29
16850.01,-10.43
17018.51,-10.54
17188.69,-10.62
17360.58,-10.67
17534.18,-10.70
17709.53,-10.68
17886.62,-10.63
18065.49,-10.55
18246.14,-10.52
18428.60,-10.50
18612.89,-10.48
18799.02,-10.45
18987.01,-10.41
19176.88,-10.35
19368.65,-10.29
19562.33,-10.23
19757.96,-10.16
19955.54,-10.07
