frequency,raw,error,smoothed,error_smoothed,equalization,parametric_eq,equalized_raw,equalized_smoothed,target
20,-12.24,-10.73,-12.16,-10.63,6.00,2.72,-6.24,-6.16,-1.51
21,-11.84,-10.33,-11.89,-10.36,6.00,3.11,-5.84,-5.89,-1.52
22,-11.63,-10.12,-11.63,-10.10,6.00,3.55,-5.63,-5.63,-1.52
23,-11.32,-9.80,-11.37,-9.85,6.00,4.01,-5.32,-5.37,-1.52
24,-11.13,-9.61,-11.13,-9.61,6.00,4.50,-5.13,-5.13,-1.52
25,-10.88,-9.36,-10.90,-9.37,6.00,5.00,-4.88,-4.90,-1.52
26,-10.63,-9.11,-10.67,-9.15,6.00,5.51,-4.63,-4.67,-1.53
27,-10.42,-8.89,-10.46,-8.93,6.00,5.99,-4.42,-4.46,-1.53
28,-10.32,-8.79,-10.26,-8.73,6.00,6.42,-4.32,-4.26,-1.54
29,-10.09,-8.55,-10.07,-8.53,6.00,6.77,-4.09,-4.07,-1.54
30,-9.82,-8.28,-9.89,-8.34,6.00,7.03,-3.82,-3.89,-1.55
31,-9.70,-8.15,-9.72,-8.17,6.00,7.18,-3.70,-3.72,-1.55
32,-9.62,-8.07,-9.56,-8.01,6.00,7.22,-3.62,-3.56,-1.56
33,-9.42,-7.86,-9.42,-7.85,6.00,7.17,-3.42,-3.42,-1.56
34,-9.22,-7.65,-9.28,-7.70,6.00,7.04,-3.22,-3.28,-1.57
35,-9.11,-7.54,-9.15,-7.56,6.00,6.87,-3.11,-3.15,-1.58
36,-9.02,-7.44,-9.03,-7.43,6.00,6.67,-3.02,-3.03,-1.58
37,-8.92,-7.33,-8.91,-7.30,6.00,6.46,-2.92,-2.91,-1.59
38,-8.82,-7.22,-8.79,-7.18,6.00,6.26,-2.82,-2.79,-1.60
39,-8.72,-7.11,-8.68,-7.07,6.00,6.07,-2.72,-2.68,-1.61
40,-8.55,-6.93,-8.59,-6.96,6.00,5.90,-2.55,-2.59,-1.62
41,-8.51,-6.88,-8.49,-6.85,6.00,5.76,-2.51,-2.49,-1.64
42,-8.41,-6.77,-8.40,-6.75,6.00,5.64,-2.41,-2.40,-1.65
43,-8.31,-6.65,-8.31,-6.65,6.00,5.54,-2.31,-2.31,-1.66
44,-8.21,-6.54,-8.24,-6.55,6.00,5.47,-2.21,-2.24,-1.67
45,-8.13,-6.45,-8.16,-6.46,6.00,5.42,-2.13,-2.16,-1.69
46,-8.01,-6.31,-8.08,-6.37,6.00,5.39,-2.01,-2.08,-1.70
47,-8.01,-6.29,-8.00,-6.28,6.00,5.38,-2.01,-2.00,-1.72
48,-8.01,-6.28,-7.94,-6.19,6.00,5.39,-2.01,-1.94,-1.74
49,-7.91,-6.16,-7.87,-6.11,5.99,5.41,-1.93,-1.89,-1.76
50,-7.81,-6.04,-7.81,-6.03,5.96,5.45,-1.86,-1.86,-1.77
51,-7.69,-5.90,-7.75,-5.95,5.91,5.49,-1.78,-1.84,-1.79
52,-7.71,-5.90,-7.69,-5.87,5.86,5.55,-1.86,-1.83,-1.81
53,-7.73,-5.90,-7.64,-5.80,5.80,5.60,-1.94,-1.84,-1.84
54,-7.51,-5.65,-7.59,-5.73,5.73,5.66,-1.78,-1.86,-1.86
55,-7.51,-5.63,-7.56,-5.67,5.67,5.71,-1.85,-1.89,-1.88
56,-7.51,-5.61,-7.53,-5.61,5.61,5.76,-1.91,-1.92,-1.91
57,-7.51,-5.58,-7.49,-5.55,5.55,5.80,-1.96,-1.94,-1.93
58,-7.37,-5.42,-7.46,-5.49,5.49,5.82,-1.88,-1.96,-1.96
59,-7.41,-5.43,-7.44,-5.44,5.44,5.84,-1.97,-2.00,-1.99
60,-7.41,-5.40,-7.42,-5.39,5.39,5.84,-2.03,-2.03,-2.01
61,-7.41,-5.37,-7.39,-5.33,5.33,5.83,-2.08,-2.06,-2.04
62,-7.41,-5.34,-7.37,-5.28,5.28,5.81,-2.14,-2.09,-2.07
63,-7.41,-5.31,-7.34,-5.22,5.22,5.76,-2.19,-2.11,-2.10
64,-7.45,-5.32,-7.31,-5.16,5.16,5.71,-2.29,-2.15,-2.13
65,-7.17,-5.01,-7.29,-5.10,5.10,5.64,-2.07,-2.19,-2.17
66,-7.21,-5.01,-7.26,-5.04,5.04,5.55,-2.18,-2.23,-2.20
67,-7.21,-4.98,-7.23,-4.97,4.97,5.46,-2.24,-2.26,-2.23
68,-7.21,-4.95,-7.19,-4.90,4.90,5.36,-2.31,-2.29,-2.27
69,-7.05,-4.75,-7.14,-4.83,4.83,5.25,-2.23,-2.32,-2.30
70,-7.11,-4.77,-7.10,-4.75,4.75,5.14,-2.36,-2.36,-2.34
71,-7.11,-4.74,-7.06,-4.67,4.67,5.02,-2.44,-2.39,-2.38
72,-6.95,-4.54,-7.01,-4.59,4.59,4.90,-2.37,-2.42,-2.41
73,-7.06,-4.61,-6.96,-4.51,4.51,4.78,-2.56,-2.46,-2.45
74,-7.09,-4.60,-6.92,-4.43,4.43,4.66,-2.67,-2.50,-2.49
75,-6.81,-4.29,-6.89,-4.34,4.34,4.55,-2.47,-2.55,-2.53
76,-6.72,-4.16,-6.85,-4.26,4.26,4.43,-2.46,-2.58,-2.57
77,-6.80,-4.20,-6.81,-4.19,4.19,4.32,-2.62,-2.62,-2.61
78,-6.80,-4.16,-6.77,-4.12,4.12,4.21,-2.69,-2.66,-2.65
79,-6.80,-4.12,-6.74,-4.05,4.05,4.10,-2.76,-2.69,-2.69
80,-6.62,-3.90,-6.71,-3.98,3.98,4.00,-2.64,-2.73,-2.73
81,-6.60,-3.83,-6.69,-3.92,3.92,3.90,-2.68,-2.77,-2.77
82,-6.70,-3.89,-6.69,-3.88,3.88,3.81,-2.83,-2.81,-2.81
83,-6.70,-3.85,-6.67,-3.83,3.83,3.72,-2.87,-2.84,-2.85
84,-6.70,-3.81,-6.68,-3.80,3.80,3.64,-2.91,-2.89,-2.89
85,-6.70,-3.77,-6.71,-3.76,3.76,3.56,-2.94,-2.95,-2.93
86,-6.70,-3.73,-6.73,-3.74,3.74,3.48,-2.97,-2.99,-2.98
87,-6.70,-3.69,-6.74,-3.72,3.72,3.41,-2.98,-3.02,-3.02
88,-6.72,-3.66,-6.76,-3.71,3.71,3.34,-3.02,-3.06,-3.06
89,-6.92,-3.82,-6.80,-3.69,3.69,3.28,-3.23,-3.11,-3.10
90,-6.84,-3.70,-6.84,-3.67,3.67,3.22,-3.17,-3.16,-3.14
91,-6.80,-3.62,-6.86,-3.66,3.66,3.17,-3.14,-3.20,-3.18
92,-6.88,-3.66,-6.88,-3.66,3.66,3.11,-3.23,-3.22,-3.22
93,-7.04,-3.78,-6.91,-3.65,3.65,3.07,-3.39,-3.26,-3.27
94,-6.92,-3.62,-6.96,-3.65,3.65,3.02,-3.27,-3.30,-3.31
95,-6.94,-3.60,-7.01,-3.65,3.65,2.98,-3.29,-3.36,-3.35
96,-7.00,-3.62,-7.05,-3.66,3.66,2.94,-3.35,-3.40,-3.39
97,-7.10,-3.68,-7.09,-3.66,3.66,2.90,-3.44,-3.43,-3.43
98,-7.12,-3.66,-7.14,-3.66,3.66,2.87,-3.46,-3.48,-3.47
99,-7.13,-3.63,-7.19,-3.66,3.66,2.84,-3.47,-3.52,-3.51
100,-7.14,-3.60,-7.24,-3.66,3.66,2.81,-3.48,-3.57,-3.54
101,-7.23,-3.65,-7.28,-3.66,3.66,2.78,-3.58,-3.62,-3.58
102,-7.44,-3.82,-7.30,-3.64,3.64,2.76,-3.80,-3.66,-3.62
104,-7.46,-3.77,-7.32,-3.62,3.62,2.71,-3.84,-3.70,-3.69
105,-7.37,-3.64,-7.34,-3.59,3.59,2.69,-3.78,-3.75,-3.73
106,-7.25,-3.49,-7.33,-3.55,3.55,2.67,-3.70,-3.78,-3.77
107,-7.39,-3.59,-7.32,-3.50,3.50,2.65,-3.89,-3.82,-3.80
108,-7.40,-3.57,-7.30,-3.45,3.45,2.63,-3.95,-3.85,-3.84
109,-7.22,-3.35,-7.27,-3.39,3.39,2.61,-3.84,-3.89,-3.87
110,-7.20,-3.30,-7.24,-3.32,3.32,2.60,-3.89,-3.92,-3.91
111,-7.15,-3.21,-7.21,-3.24,3.24,2.58,-3.91,-3.96,-3.94
112,-7.10,-3.13,-7.16,-3.17,3.17,2.56,-3.94,-3.99,-3.97
113,-7.07,-3.07,-7.10,-3.09,3.09,2.55,-3.99,-4.01,-4.00
114,-6.96,-2.93,-7.05,-3.01,3.01,2.53,-3.96,-4.04,-4.03
115,-7.00,-2.94,-7.00,-2.92,2.92,2.51,-4.08,-4.08,-4.06
117,-7.03,-2.92,-6.95,-2.84,2.84,2.48,-4.20,-4.11,-4.12
118,-6.88,-2.74,-6.89,-2.75,2.75,2.46,-4.14,-4.14,-4.14
119,-6.83,-2.67,-6.83,-2.65,2.65,2.44,-4.18,-4.17,-4.16
120,-6.86,-2.68,-6.76,-2.56,2.56,2.42,-4.30,-4.20,-4.18
121,-6.80,-2.60,-6.68,-2.46,2.46,2.40,-4.34,-4.22,-4.20
123,-6.49,-2.25,-6.61,-2.36,2.36,2.36,-4.14,-4.25,-4.25
124,-6.46,-2.20,-6.53,-2.25,2.25,2.33,-4.21,-4.28,-4.26
125,-6.43,-2.16,-6.44,-2.14,2.14,2.31,-4.29,-4.30,-4.28
126,-6.37,-2.08,-6.34,-2.03,2.03,2.28,-4.35,-4.31,-4.29
128,-6.31,-1.98,-6.23,-1.92,1.92,2.23,-4.40,-4.32,-4.33
129,-6.10,-1.76,-6.14,-1.80,1.80,2.21,-4.30,-4.34,-4.34
130,-5.99,-1.64,-6.06,-1.69,1.69,2.18,-4.30,-4.37,-4.36
131,-5.96,-1.59,-5.97,-1.59,1.59,2.15,-4.38,-4.39,-4.37
133,-5.93,-1.53,-5.89,-1.49,1.49,2.09,-4.45,-4.40,-4.41
134,-5.88,-1.46,-5.82,-1.39,1.39,2.06,-4.49,-4.43,-4.42
135,-5.74,-1.31,-5.76,-1.30,1.30,2.03,-4.44,-4.46,-4.44
137,-5.58,-1.11,-5.69,-1.22,1.22,1.97,-4.36,-4.47,-4.47
138,-5.58,-1.10,-5.64,-1.16,1.16,1.94,-4.42,-4.48,-4.49
140,-5.68,-1.16,-5.60,-1.10,1.10,1.87,-4.58,-4.50,-4.52
141,-5.67,-1.14,-5.59,-1.06,1.06,1.84,-4.62,-4.53,-4.54
142,-5.52,-0.97,-5.58,-1.01,1.01,1.81,-4.51,-4.57,-4.55
144,-5.45,-0.87,-5.58,-0.99,0.99,1.74,-4.47,-4.59,-4.58
145,-5.54,-0.95,-5.58,-0.96,0.96,1.71,-4.58,-4.61,-4.60
147,-5.57,-0.95,-5.59,-0.95,0.95,1.64,-4.63,-4.65,-4.62
148,-5.57,-0.94,-5.60,-0.93,0.93,1.61,-4.64,-4.67,-4.64
150,-5.60,-0.94,-5.62,-0.91,0.91,1.55,-4.69,-4.70,-4.66
151,-5.75,-1.08,-5.62,-0.90,0.90,1.51,-4.86,-4.72,-4.68
153,-5.76,-1.06,-5.61,-0.89,0.89,1.45,-4.87,-4.72,-4.70
154,-5.67,-0.96,-5.61,-0.89,0.89,1.42,-4.78,-4.72,-4.71
156,-5.67,-0.94,-5.64,-0.89,0.89,1.36,-4.78,-4.74,-4.73
157,-5.67,-0.93,-5.67,-0.90,0.90,1.33,-4.77,-4.77,-4.74
159,-5.67,-0.91,-5.71,-0.92,0.92,1.27,-4.76,-4.79,-4.76
160,-5.63,-0.86,-5.75,-0.93,0.93,1.24,-4.70,-4.82,-4.77
162,-5.53,-0.74,-5.80,-0.95,0.95,1.18,-4.58,-4.84,-4.80
164,-5.70,-0.89,-5.84,-0.97,0.97,1.12,-4.73,-4.86,-4.82
165,-5.74,-0.92,-5.88,-0.99,0.99,1.09,-4.75,-4.89,-4.83
167,-5.92,-1.07,-5.92,-1.01,1.01,1.04,-4.92,-4.91,-4.85
169,-6.09,-1.22,-5.94,-1.01,1.01,0.99,-5.08,-4.93,-4.87
170,-6.20,-1.32,-5.95,-1.00,1.00,0.96,-5.20,-4.95,-4.88
172,-6.07,-1.17,-5.95,-0.98,0.98,0.91,-5.09,-4.97,-4.90
174,-6.11,-1.19,-5.94,-0.95,0.95,0.86,-5.17,-4.99,-4.92
175,-6.01,-1.09,-5.90,-0.91,0.91,0.83,-5.11,-4.99,-4.93
177,-5.83,-0.89,-5.84,-0.85,0.85,0.79,-4.99,-4.99,-4.94
179,-5.72,-0.77,-5.79,-0.78,0.78,0.74,-4.95,-5.01,-4.95
181,-5.74,-0.78,-5.71,-0.70,0.70,0.69,-5.05,-5.01,-4.96
183,-5.38,-0.42,-5.61,-0.61,0.61,0.65,-4.77,-5.00,-4.97
184,-5.29,-0.33,-5.50,-0.53,0.53,0.63,-4.77,-4.98,-4.96
186,-5.39,-0.44,-5.41,-0.45,0.45,0.59,-4.95,-4.97,-4.96
188,-5.37,-0.42,-5.33,-0.37,0.37,0.54,-5.01,-4.96,-4.95
190,-5.26,-0.32,-5.25,-0.29,0.29,0.50,-4.97,-4.96,-4.95
192,-5.10,-0.16,-5.17,-0.22,0.22,0.47,-4.88,-4.95,-4.94
194,-5.24,-0.31,-5.11,-0.16,0.16,0.43,-5.08,-4.95,-4.93
196,-5.31,-0.39,-5.06,-0.11,0.11,0.39,-5.20,-4.95,-4.93
198,-4.93,-0.01,-5.01,-0.07,0.07,0.35,-4.87,-4.95,-4.92
200,-4.86,0.05,-4.97,-0.03,0.03,0.32,-4.83,-4.94,-4.92
202,-4.98,-0.07,-4.95,0.00,-0.00,0.28,-4.98,-4.95,-4.92
204,-4.97,-0.06,-4.92,0.03,-0.03,0.25,-5.00,-4.95,-4.92
206,-4.71,0.21,-4.88,0.06,-0.06,0.22,-4.77,-4.94,-4.92
208,-4.71,0.21,-4.86,0.08,-0.08,0.19,-4.79,-4.94,-4.92
210,-4.87,0.06,-4.85,0.10,-0.10,0.15,-4.97,-4.95,-4.93
212,-4.88,0.05,-4.85,0.11,-0.11,0.13,-4.99,-4.95,-4.94
214,-4.88,0.06,-4.84,0.11,-0.11,0.10,-5.00,-4.95,-4.95
216,-4.88,0.07,-4.85,0.12,-0.12,0.07,-5.01,-4.97,-4.96
218,-4.89,0.07,-4.87,0.12,-0.12,0.04,-5.02,-4.99,-4.96
221,-4.89,0.08,-4.86,0.12,-0.12,0.00,-5.01,-4.98,-4.97
223,-4.89,0.08,-4.86,0.11,-0.11,-0.02,-5.01,-4.97,-4.98
225,-4.89,0.09,-4.88,0.10,-0.10,-0.04,-4.99,-4.98,-4.98
227,-4.89,0.09,-4.91,0.09,-0.09,-0.06,-4.98,-5.00,-4.98
229,-4.89,0.09,-4.92,0.08,-0.08,-0.08,-4.98,-5.00,-4.98
232,-4.88,0.09,-4.92,0.07,-0.07,-0.11,-4.95,-4.99,-4.98
234,-4.87,0.10,-4.93,0.06,-0.06,-0.13,-4.93,-4.99,-4.97
236,-4.86,0.10,-4.93,0.05,-0.05,-0.15,-4.91,-4.98,-4.96
239,-4.84,0.10,-4.93,0.04,-0.04,-0.17,-4.89,-4.97,-4.95
241,-4.96,-0.03,-4.92,0.04,-0.04,-0.18,-5.00,-4.96,-4.93
244,-5.07,-0.15,-4.91,0.04,-0.04,-0.20,-5.12,-4.96,-4.92
246,-4.99,-0.09,-4.89,0.05,-0.05,-0.21,-5.04,-4.94,-4.90
248,-5.05,-0.17,-4.86,0.06,-0.06,-0.22,-5.11,-4.92,-4.89
251,-4.79,0.08,-4.83,0.07,-0.07,-0.24,-4.86,-4.90,-4.87
253,-4.73,0.13,-4.81,0.08,-0.08,-0.24,-4.81,-4.89,-4.86
256,-4.72,0.13,-4.79,0.09,-0.09,-0.25,-4.82,-4.88,-4.85
259,-4.71,0.13,-4.77,0.10,-0.10,-0.26,-4.82,-4.87,-4.84
261,-4.70,0.13,-4.75,0.12,-0.12,-0.26,-4.82,-4.86,-4.84
264,-4.70,0.13,-4.73,0.12,-0.12,-0.27,-4.83,-4.85,-4.84
266,-4.70,0.13,-4.71,0.12,-0.12,-0.27,-4.83,-4.84,-4.83
269,-4.55,0.28,-4.71,0.12,-0.12,-0.27,-4.68,-4.83,-4.83
272,-4.68,0.15,-4.72,0.11,-0.11,-0.27,-4.80,-4.83,-4.83
274,-4.82,0.01,-4.73,0.10,-0.10,-0.27,-4.93,-4.83,-4.83
277,-4.82,0.01,-4.76,0.09,-0.09,-0.26,-4.91,-4.85,-4.83
280,-4.82,0.01,-4.77,0.07,-0.07,-0.26,-4.90,-4.85,-4.83
283,-4.81,0.02,-4.78,0.06,-0.06,-0.25,-4.87,-4.84,-4.83
286,-4.81,0.01,-4.80,0.04,-0.04,-0.25,-4.86,-4.84,-4.83
288,-4.80,0.01,-4.79,0.03,-0.03,-0.24,-4.84,-4.83,-4.82
291,-4.79,0.01,-4.79,0.03,-0.03,-0.23,-4.82,-4.82,-4.81
294,-4.78,0.01,-4.78,0.03,-0.03,-0.23,-4.81,-4.81,-4.80
297,-4.77,0.01,-4.77,0.03,-0.03,-0.22,-4.80,-4.80,-4.79
300,-4.75,0.02,-4.75,0.02,-0.02,-0.21,-4.78,-4.78,-4.78
303,-4.74,0.02,-4.74,0.02,-0.02,-0.20,-4.77,-4.76,-4.77
306,-4.73,0.02,-4.73,0.02,-0.02,-0.19,-4.76,-4.76,-4.75
309,-4.72,0.02,-4.73,0.02,-0.02,-0.18,-4.74,-4.75,-4.75
312,-4.69,0.04,-4.74,0.01,-0.01,-0.17,-4.71,-4.75,-4.74
316,-4.57,0.16,-4.75,0.01,-0.01,-0.16,-4.58,-4.75,-4.73
319,-4.75,-0.03,-4.75,0.00,-0.00,-0.15,-4.75,-4.76,-4.73
322,-4.81,-0.09,-4.75,-0.01,0.01,-0.13,-4.81,-4.75,-4.72
325,-4.81,-0.09,-4.76,-0.02,0.02,-0.12,-4.79,-4.74,-4.72
328,-4.81,-0.09,-4.76,-0.03,0.03,-0.11,-4.78,-4.73,-4.72
332,-4.81,-0.09,-4.77,-0.05,0.05,-0.10,-4.77,-4.72,-4.72
335,-4.81,-0.09,-4.80,-0.06,0.06,-0.09,-4.75,-4.73,-4.72
338,-4.82,-0.10,-4.82,-0.08,0.08,-0.08,-4.75,-4.74,-4.72
342,-4.82,-0.10,-4.84,-0.09,0.09,-0.06,-4.73,-4.75,-4.72
345,-4.82,-0.10,-4.86,-0.11,0.11,-0.05,-4.72,-4.75,-4.72
349,-4.71,0.00,-4.87,-0.12,0.12,-0.04,-4.60,-4.75,-4.72
352,-4.74,-0.03,-4.86,-0.12,0.12,-0.03,-4.62,-4.74,-4.71
356,-4.91,-0.21,-4.86,-0.13,0.13,-0.02,-4.79,-4.73,-4.71
359,-4.93,-0.23,-4.85,-0.13,0.13,-0.01,-4.80,-4.72,-4.70
363,-5.01,-0.32,-4.84,-0.14,0.14,0.01,-4.88,-4.71,-4.70
366,-5.00,-0.32,-4.84,-0.14,0.14,0.02,-4.87,-4.70,-4.69
370,-4.79,-0.11,-4.83,-0.13,0.13,0.03,-4.66,-4.70,-4.68
374,-4.78,-0.11,-4.83,-0.14,0.14,0.04,-4.65,-4.69,-4.67
377,-4.78,-0.12,-4.83,-0.14,0.14,0.05,-4.65,-4.69,-4.66
381,-4.77,-0.12,-4.82,-0.14,0.14,0.07,-4.64,-4.69,-4.65
385,-4.73,-0.09,-4.82,-0.14,0.14,0.08,-4.60,-4.69,-4.65
389,-4.68,-0.04,-4.81,-0.14,0.14,0.09,-4.55,-4.67,-4.64
393,-4.80,-0.16,-4.79,-0.14,0.14,0.10,-4.66,-4.65,-4.64
397,-4.85,-0.22,-4.79,-0.15,0.15,0.11,-4.70,-4.64,-4.64
401,-4.85,-0.22,-4.80,-0.17,0.17,0.12,-4.69,-4.64,-4.64
405,-4.85,-0.22,-4.83,-0.18,0.18,0.13,-4.67,-4.65,-4.64
409,-4.86,-0.22,-4.86,-0.20,0.20,0.14,-4.66,-4.66,-4.64
413,-4.86,-0.23,-4.87,-0.22,0.22,0.15,-4.64,-4.65,-4.64
417,-4.86,-0.23,-4.88,-0.24,0.24,0.16,-4.62,-4.64,-4.63
421,-4.86,-0.24,-4.89,-0.26,0.26,0.17,-4.60,-4.63,-4.63
425,-4.81,-0.20,-4.90,-0.27,0.27,0.18,-4.54,-4.62,-4.62
430,-4.84,-0.25,-4.89,-0.28,0.28,0.19,-4.56,-4.61,-4.60
434,-4.96,-0.39,-4.86,-0.29,0.29,0.19,-4.68,-4.57,-4.57
438,-4.92,-0.38,-4.82,-0.28,0.28,0.20,-4.64,-4.54,-4.54
443,-4.76,-0.26,-4.78,-0.27,0.27,0.20,-4.49,-4.51,-4.50
447,-4.72,-0.27,-4.72,-0.25,0.25,0.21,-4.47,-4.47,-4.46
451,-4.66,-0.26,-4.65,-0.22,0.22,0.21,-4.44,-4.42,-4.41
456,-4.62,-0.27,-4.56,-0.19,0.19,0.21,-4.43,-4.37,-4.35
460,-4.56,-0.27,-4.46,-0.15,0.15,0.21,-4.42,-4.31,-4.30
465,-4.40,-0.17,-4.35,-0.10,0.10,0.21,-4.30,-4.25,-4.24
470,-4.18,-0.01,-4.24,-0.05,0.05,0.21,-4.13,-4.19,-4.18
474,-4.10,0.01,-4.13,0.00,-0.00,0.20,-4.10,-4.13,-4.12
479,-4.01,0.05,-4.02,0.05,-0.05,0.19,-4.06,-4.07,-4.06
484,-3.90,0.11,-3.93,0.10,-0.10,0.19,-4.00,-4.02,-4.01
489,-3.72,0.24,-3.84,0.14,-0.14,0.18,-3.86,-3.98,-3.97
494,-3.69,0.23,-3.76,0.18,-0.18,0.16,-3.87,-3.94,-3.92
499,-3.66,0.23,-3.69,0.21,-0.21,0.15,-3.87,-3.90,-3.89
504,-3.63,0.23,-3.63,0.23,-0.23,0.13,-3.87,-3.87,-3.86
509,-3.62,0.22,-3.60,0.25,-0.25,0.12,-3.88,-3.85,-3.84
514,-3.60,0.23,-3.59,0.26,-0.26,0.10,-3.87,-3.85,-3.83
519,-3.60,0.23,-3.58,0.27,-0.27,0.08,-3.87,-3.85,-3.83
524,-3.60,0.23,-3.59,0.27,-0.27,0.05,-3.87,-3.86,-3.84
529,-3.61,0.24,-3.61,0.26,-0.26,0.03,-3.87,-3.87,-3.85
535,-3.57,0.30,-3.63,0.25,-0.25,-0.00,-3.82,-3.88,-3.87
540,-3.62,0.28,-3.67,0.23,-0.23,-0.03,-3.86,-3.91,-3.90
545,-3.71,0.22,-3.71,0.22,-0.22,-0.06,-3.93,-3.93,-3.93
551,-3.75,0.21,-3.76,0.20,-0.20,-0.09,-3.96,-3.97,-3.97
556,-3.80,0.20,-3.81,0.18,-0.18,-0.12,-3.99,-4.00,-4.00
562,-3.85,0.18,-3.86,0.17,-0.17,-0.16,-4.02,-4.03,-4.03
568,-3.90,0.16,-3.91,0.15,-0.15,-0.20,-4.06,-4.06,-4.06
573,-3.95,0.13,-3.94,0.14,-0.14,-0.23,-4.09,-4.09,-4.08
579,-3.94,0.16,-3.97,0.14,-0.14,-0.27,-4.08,-4.10,-4.10
585,-3.98,0.13,-3.98,0.14,-0.14,-0.31,-4.12,-4.12,-4.11
591,-4.14,-0.03,-3.99,0.14,-0.14,-0.35,-4.29,-4.13,-4.12
596,-4.02,0.09,-3.97,0.16,-0.16,-0.39,-4.19,-4.13,-4.11
602,-3.97,0.13,-3.93,0.19,-0.19,-0.43,-4.16,-4.11,-4.10
608,-3.87,0.21,-3.87,0.22,-0.22,-0.48,-4.10,-4.10,-4.09
615,-3.78,0.28,-3.81,0.27,-0.27,-0.53,-4.05,-4.08,-4.07
621,-3.72,0.31,-3.72,0.32,-0.32,-0.58,-4.05,-4.05,-4.04
627,-3.55,0.45,-3.62,0.39,-0.39,-0.62,-3.94,-4.01,-4.00
633,-3.52,0.44,-3.51,0.45,-0.45,-0.67,-3.98,-3.96,-3.96
639,-3.43,0.48,-3.39,0.53,-0.53,-0.71,-3.96,-3.92,-3.92
646,-3.27,0.60,-3.26,0.60,-0.60,-0.77,-3.88,-3.86,-3.87
652,-3.10,0.72,-3.12,0.68,-0.68,-0.81,-3.79,-3.81,-3.82
659,-2.98,0.78,-3.00,0.76,-0.76,-0.87,-3.75,-3.76,-3.77
665,-2.90,0.81,-2.87,0.84,-0.84,-0.92,-3.75,-3.72,-3.72
672,-2.75,0.91,-2.74,0.92,-0.92,-0.97,-3.68,-3.67,-3.66
679,-2.59,1.02,-2.62,1.00,-1.00,-1.03,-3.60,-3.62,-3.61
686,-2.45,1.12,-2.50,1.08,-1.08,-1.08,-3.53,-3.58,-3.57
692,-2.41,1.12,-2.40,1.15,-1.15,-1.13,-3.56,-3.55,-3.53
699,-2.30,1.20,-2.30,1.22,-1.22,-1.19,-3.52,-3.52,-3.50
706,-2.14,1.34,-2.21,1.28,-1.28,-1.24,-3.43,-3.49,-3.48
713,-2.09,1.37,-2.13,1.34,-1.34,-1.30,-3.44,-3.48,-3.46
721,-2.07,1.38,-2.07,1.40,-1.40,-1.37,-3.48,-3.47,-3.46
728,-1.92,1.53,-2.00,1.46,-1.46,-1.42,-3.38,-3.46,-3.45
735,-1.92,1.53,-1.94,1.51,-1.51,-1.48,-3.43,-3.45,-3.45
742,-1.94,1.51,-1.89,1.56,-1.56,-1.54,-3.50,-3.45,-3.45
750,-1.86,1.59,-1.84,1.61,-1.61,-1.60,-3.47,-3.45,-3.45
757,-1.85,1.60,-1.79,1.65,-1.65,-1.66,-3.51,-3.45,-3.45
765,-1.77,1.67,-1.74,1.70,-1.70,-1.73,-3.47,-3.44,-3.45
773,-1.64,1.80,-1.69,1.75,-1.75,-1.80,-3.39,-3.44,-3.44
780,-1.65,1.78,-1.64,1.80,-1.80,-1.86,-3.45,-3.44,-3.43
788,-1.59,1.83,-1.57,1.85,-1.85,-1.92,-3.44,-3.42,-3.42
796,-1.50,1.90,-1.50,1.90,-1.90,-1.99,-3.41,-3.41,-3.41
804,-1.45,1.94,-1.44,1.96,-1.96,-2.06,-3.41,-3.40,-3.39
812,-1.38,1.99,-1.36,2.01,-2.01,-2.12,-3.40,-3.38,-3.37
820,-1.24,2.11,-1.28,2.07,-2.07,-2.19,-3.32,-3.35,-3.36
828,-1.23,2.11,-1.21,2.13,-2.13,-2.26,-3.36,-3.34,-3.34
837,-1.13,2.19,-1.14,2.19,-2.19,-2.33,-3.32,-3.33,-3.33
845,-1.04,2.27,-1.07,2.25,-2.25,-2.40,-3.29,-3.32,-3.31
853,-1.04,2.26,-1.01,2.30,-2.30,-2.46,-3.35,-3.32,-3.30
862,-0.85,2.44,-0.94,2.36,-2.36,-2.53,-3.22,-3.30,-3.29
871,-0.85,2.43,-0.87,2.42,-2.42,-2.60,-3.27,-3.29,-3.29
879,-0.86,2.42,-0.81,2.48,-2.48,-2.66,-3.34,-3.29,-3.28
888,-0.69,2.58,-0.74,2.53,-2.53,-2.73,-3.23,-3.28,-3.28
897,-0.67,2.60,-0.68,2.59,-2.59,-2.80,-3.27,-3.27,-3.27
906,-0.68,2.58,-0.62,2.65,-2.65,-2.87,-3.33,-3.26,-3.26
915,-0.57,2.68,-0.55,2.70,-2.70,-2.93,-3.28,-3.26,-3.26
924,-0.53,2.72,-0.50,2.76,-2.76,-2.99,-3.29,-3.26,-3.25
933,-0.44,2.80,-0.43,2.82,-2.82,-3.05,-3.26,-3.25,-3.24
943,-0.29,2.94,-0.37,2.87,-2.87,-3.12,-3.17,-3.24,-3.24
952,-0.28,2.94,-0.31,2.93,-2.93,-3.18,-3.21,-3.23,-3.23
962,-0.20,3.01,-0.23,2.98,-2.98,-3.24,-3.18,-3.22,-3.22
971,-0.17,3.03,-0.17,3.03,-3.03,-3.29,-3.21,-3.20,-3.20
981,-0.11,3.08,-0.11,3.09,-3.09,-3.35,-3.20,-3.19,-3.19
991,-0.05,3.12,-0.03,3.14,-3.14,-3.40,-3.19,-3.17,-3.18
1001,0.01,3.16,0.04,3.19,-3.19,-3.45,-3.19,-3.15,-3.16
1011,0.12,3.25,0.11,3.25,-3.25,-3.50,-3.13,-3.13,-3.14
1021,0.21,3.32,0.19,3.30,-3.30,-3.55,-3.09,-3.11,-3.11
1031,0.24,3.32,0.26,3.35,-3.35,-3.59,-3.11,-3.09,-3.09
1041,0.37,3.43,0.33,3.40,-3.40,-3.64,-3.04,-3.07,-3.06
1052,0.40,3.43,0.42,3.45,-3.45,-3.68,-3.06,-3.04,-3.03
1062,0.48,3.48,0.50,3.51,-3.51,-3.73,-3.03,-3.01,-3.01
1073,0.59,3.56,0.59,3.56,-3.56,-3.77,-2.98,-2.98,-2.98
1084,0.72,3.66,0.67,3.62,-3.62,-3.81,-2.91,-2.95,-2.95
1094,0.79,3.70,0.76,3.68,-3.68,-3.85,-2.89,-2.92,-2.92
1105,0.85,3.73,0.85,3.73,-3.73,-3.89,-2.89,-2.89,-2.89
1116,0.91,3.76,0.94,3.79,-3.79,-3.93,-2.89,-2.86,-2.85
1128,0.99,3.80,1.03,3.85,-3.85,-3.98,-2.86,-2.82,-2.82
1139,1.16,3.94,1.13,3.91,-3.91,-4.02,-2.75,-2.78,-2.78
1150,1.24,3.98,1.23,3.97,-3.97,-4.06,-2.73,-2.74,-2.75
1162,1.33,4.04,1.33,4.03,-4.03,-4.10,-2.70,-2.70,-2.71
1173,1.42,4.09,1.43,4.09,-4.09,-4.14,-2.67,-2.66,-2.67
1185,1.52,4.16,1.52,4.15,-4.15,-4.19,-2.64,-2.63,-2.64
1197,1.62,4.22,1.62,4.22,-4.22,-4.24,-2.60,-2.60,-2.60
1209,1.74,4.30,1.72,4.29,-4.29,-4.29,-2.55,-2.57,-2.56
1221,1.86,4.38,1.82,4.36,-4.36,-4.34,-2.51,-2.54,-2.53
1233,1.98,4.47,1.93,4.44,-4.44,-4.39,-2.47,-2.52,-2.49
1246,2.05,4.51,2.04,4.53,-4.53,-4.45,-2.48,-2.49,-2.46
1258,2.14,4.58,2.15,4.62,-4.62,-4.51,-2.49,-2.47,-2.44
1271,2.19,4.61,2.27,4.72,-4.72,-4.57,-2.54,-2.46,-2.42
1283,2.33,4.74,2.39,4.83,-4.83,-4.64,-2.51,-2.45,-2.41
1296,2.48,4.88,2.51,4.95,-4.95,-4.70,-2.48,-2.44,-2.40
1309,2.63,5.03,2.64,5.08,-5.08,-4.78,-2.45,-2.44,-2.41
1322,2.78,5.19,2.76,5.21,-5.21,-4.85,-2.44,-2.45,-2.41
1335,2.93,5.35,2.90,5.35,-5.35,-4.93,-2.43,-2.45,-2.42
1349,3.09,5.52,3.03,5.49,-5.49,-5.01,-2.41,-2.46,-2.44
1362,3.22,5.67,3.17,5.64,-5.64,-5.10,-2.42,-2.47,-2.46
1376,3.28,5.75,3.31,5.78,-5.78,-5.19,-2.51,-2.47,-2.48
1390,3.43,5.93,3.44,5.93,-5.93,-5.28,-2.50,-2.48,-2.50
1404,3.57,6.08,3.58,6.07,-6.07,-5.38,-2.50,-2.49,-2.52
1418,3.71,6.24,3.70,6.21,-6.21,-5.49,-2.50,-2.50,-2.54
1432,3.84,6.39,3.82,6.34,-6.34,-5.59,-2.50,-2.52,-2.55
1446,3.97,6.52,3.93,6.47,-6.47,-5.70,-2.50,-2.54,-2.56
1461,4.08,6.64,4.04,6.60,-6.60,-5.82,-2.52,-2.56,-2.56
1475,4.19,6.75,4.15,6.72,-6.72,-5.93,-2.54,-2.57,-2.56
1490,4.29,6.84,4.27,6.84,-6.84,-6.05,-2.56,-2.57,-2.56
1505,4.38,6.93,4.40,6.96,-6.96,-6.18,-2.59,-2.57,-2.55
1520,4.53,7.07,4.53,7.09,-7.09,-6.31,-2.56,-2.56,-2.54
1535,4.64,7.16,4.65,7.21,-7.21,-6.44,-2.58,-2.56,-2.53
1550,4.72,7.23,4.79,7.34,-7.34,-6.58,-2.63,-2.55,-2.51
1566,4.88,7.37,4.94,7.48,-7.48,-6.73,-2.60,-2.53,-2.49
