frequency,raw,error,smoothed,error_smoothed,equalization,parametric_eq,equalized_raw,equalized_smoothed,target
20,-12.24,-13.88,-12.20,-13.84,6.00,5.31,-6.24,-6.20,1.64
21,-11.84,-13.48,-11.90,-13.54,6.00,5.43,-5.84,-5.90,1.64
22,-11.63,-13.27,-11.63,-13.26,6.00,5.54,-5.63,-5.63,1.64
23,-11.32,-12.96,-11.36,-13.00,6.00,5.63,-5.32,-5.36,1.63
24,-11.13,-12.76,-11.11,-12.75,6.00,5.72,-5.13,-5.11,1.63
25,-10.88,-12.51,-10.88,-12.51,6.00,5.80,-4.88,-4.88,1.63
26,-10.63,-12.26,-10.66,-12.28,6.00,5.87,-4.63,-4.66,1.62
27,-10.42,-12.05,-10.45,-12.07,6.00,5.93,-4.42,-4.45,1.62
28,-10.32,-11.94,-10.25,-11.87,6.00,5.99,-4.32,-4.25,1.62
29,-10.09,-11.71,-10.07,-11.68,6.00,6.04,-4.09,-4.07,1.61
30,-9.82,-11.43,-9.89,-11.50,6.00,6.09,-3.82,-3.89,1.61
31,-9.70,-11.31,-9.72,-11.32,6.00,6.13,-3.70,-3.72,1.60
32,-9.62,-11.22,-9.56,-11.16,6.00,6.17,-3.62,-3.56,1.60
33,-9.42,-11.01,-9.41,-11.00,6.00,6.20,-3.42,-3.41,1.59
34,-9.22,-10.81,-9.27,-10.86,6.00,6.23,-3.22,-3.27,1.58
35,-9.11,-10.69,-9.14,-10.72,6.00,6.25,-3.11,-3.14,1.58
36,-9.02,-10.59,-9.02,-10.59,6.00,6.27,-3.02,-3.02,1.57
37,-8.92,-10.48,-8.91,-10.47,6.00,6.29,-2.92,-2.91,1.56
38,-8.82,-10.37,-8.80,-10.35,6.00,6.31,-2.82,-2.80,1.55
39,-8.72,-10.26,-8.69,-10.23,6.00,6.33,-2.72,-2.69,1.54
40,-8.55,-10.08,-8.59,-10.12,6.00,6.34,-2.55,-2.59,1.53
41,-8.51,-10.03,-8.49,-10.01,6.00,6.35,-2.51,-2.49,1.52
42,-8.41,-9.92,-8.40,-9.91,6.00,6.35,-2.41,-2.40,1.51
43,-8.31,-9.81,-8.31,-9.80,6.00,6.36,-2.31,-2.31,1.49
44,-8.21,-9.69,-8.23,-9.71,6.00,6.36,-2.21,-2.23,1.48
45,-8.13,-9.60,-8.15,-9.61,6.00,6.37,-2.13,-2.15,1.46
46,-8.01,-9.46,-8.08,-9.53,6.00,6.37,-2.01,-2.08,1.45
47,-8.01,-9.45,-8.01,-9.44,6.00,6.37,-2.01,-2.01,1.43
48,-8.01,-9.43,-7.94,-9.36,6.00,6.37,-2.01,-1.94,1.42
49,-7.91,-9.31,-7.88,-9.28,6.00,6.36,-1.91,-1.88,1.40
50,-7.81,-9.19,-7.82,-9.20,6.00,6.36,-1.81,-1.82,1.38
51,-7.69,-9.05,-7.76,-9.12,6.00,6.36,-1.69,-1.76,1.36
52,-7.71,-9.05,-7.70,-9.04,6.00,6.35,-1.71,-1.70,1.34
53,-7.73,-9.05,-7.64,-8.96,6.00,6.34,-1.73,-1.64,1.32
54,-7.51,-8.81,-7.59,-8.88,6.00,6.34,-1.51,-1.59,1.29
55,-7.51,-8.78,-7.54,-8.81,6.00,6.33,-1.51,-1.54,1.27
56,-7.51,-8.76,-7.50,-8.75,6.00,6.32,-1.51,-1.50,1.25
57,-7.51,-8.73,-7.47,-8.69,6.00,6.31,-1.51,-1.47,1.22
58,-7.37,-8.57,-7.45,-8.65,6.00,6.30,-1.37,-1.45,1.19
59,-7.41,-8.58,-7.43,-8.60,6.00,6.29,-1.41,-1.43,1.17
60,-7.41,-8.55,-7.42,-8.56,6.00,6.27,-1.41,-1.42,1.14
61,-7.41,-8.52,-7.40,-8.51,6.00,6.26,-1.41,-1.40,1.11
62,-7.41,-8.49,-7.38,-8.47,6.00,6.25,-1.41,-1.38,1.08
63,-7.41,-8.46,-7.36,-8.41,6.00,6.24,-1.41,-1.36,1.05
64,-7.45,-8.47,-7.33,-8.35,6.00,6.22,-1.45,-1.33,1.02
65,-7.17,-8.16,-7.29,-8.28,6.00,6.21,-1.17,-1.29,0.99
66,-7.21,-8.17,-7.25,-8.21,6.00,6.19,-1.21,-1.25,0.95
67,-7.21,-8.13,-7.21,-8.13,6.00,6.18,-1.21,-1.21,0.92
68,-7.21,-8.10,-7.18,-8.06,6.00,6.16,-1.21,-1.18,0.88
69,-7.05,-7.90,-7.14,-7.99,6.00,6.15,-1.05,-1.14,0.85
70,-7.11,-7.93,-7.10,-7.92,6.00,6.13,-1.11,-1.10,0.81
71,-7.11,-7.89,-7.07,-7.84,6.00,6.12,-1.11,-1.07,0.78
72,-6.95,-7.69,-7.03,-7.77,6.00,6.10,-0.95,-1.03,0.74
73,-7.06,-7.77,-6.99,-7.69,6.00,6.08,-1.06,-0.99,0.70
74,-7.09,-7.76,-6.94,-7.60,6.00,6.07,-1.09,-0.94,0.66
75,-6.81,-7.44,-6.89,-7.52,6.00,6.05,-0.81,-0.89,0.62
76,-6.72,-7.31,-6.84,-7.43,6.00,6.03,-0.72,-0.84,0.59
77,-6.80,-7.35,-6.80,-7.35,6.00,6.02,-0.80,-0.80,0.55
78,-6.80,-7.31,-6.76,-7.26,6.00,6.00,-0.80,-0.76,0.51
79,-6.80,-7.27,-6.72,-7.19,6.00,5.99,-0.80,-0.72,0.47
80,-6.62,-7.05,-6.70,-7.12,6.00,5.97,-0.62,-0.70,0.42
81,-6.60,-6.99,-6.68,-7.07,6.00,5.95,-0.60,-0.68,0.38
82,-6.70,-7.05,-6.67,-7.02,6.00,5.94,-0.70,-0.67,0.34
83,-6.70,-7.01,-6.68,-6.98,6.00,5.92,-0.70,-0.68,0.30
84,-6.70,-6.96,-6.68,-6.94,6.00,5.91,-0.70,-0.68,0.26
85,-6.70,-6.92,-6.70,-6.92,6.00,5.89,-0.70,-0.70,0.22
86,-6.70,-6.88,-6.72,-6.90,6.00,5.88,-0.70,-0.72,0.18
87,-6.70,-6.84,-6.75,-6.88,6.00,5.87,-0.70,-0.75,0.14
88,-6.72,-6.82,-6.77,-6.87,6.00,5.85,-0.72,-0.77,0.09
89,-6.92,-6.98,-6.80,-6.86,6.00,5.84,-0.92,-0.80,0.05
90,-6.84,-6.85,-6.84,-6.85,6.00,5.83,-0.84,-0.84,0.01
91,-6.80,-6.77,-6.87,-6.84,6.00,5.82,-0.80,-0.87,-0.03
92,-6.88,-6.81,-6.90,-6.82,6.00,5.82,-0.88,-0.90,-0.07
93,-7.04,-6.93,-6.93,-6.81,6.00,5.81,-1.04,-0.93,-0.11
94,-6.92,-6.77,-6.96,-6.80,6.00,5.81,-0.92,-0.96,-0.15
95,-6.94,-6.75,-6.99,-6.80,6.00,5.81,-0.94,-0.99,-0.20
96,-7.00,-6.77,-7.03,-6.79,6.00,5.81,-1.00,-1.03,-0.24
97,-7.10,-6.83,-7.07,-6.80,6.00,5.82,-1.10,-1.07,-0.28
98,-7.12,-6.81,-7.12,-6.81,6.00,5.82,-1.12,-1.12,-0.32
99,-7.13,-6.78,-7.18,-6.82,6.00,5.84,-1.13,-1.18,-0.36
100,-7.14,-6.75,-7.23,-6.83,6.00,5.86,-1.14,-1.23,-0.39
101,-7.23,-6.80,-7.28,-6.84,6.00,5.88,-1.23,-1.28,-0.43
102,-7.44,-6.97,-7.32,-6.84,6.00,5.91,-1.44,-1.32,-0.47
104,-7.46,-6.92,-7.35,-6.82,6.00,5.99,-1.46,-1.35,-0.55
105,-7.37,-6.79,-7.37,-6.79,6.00,6.03,-1.37,-1.37,-0.58
106,-7.25,-6.64,-7.36,-6.75,6.00,6.08,-1.25,-1.36,-0.62
107,-7.39,-6.74,-7.35,-6.70,6.00,6.12,-1.39,-1.35,-0.65
108,-7.40,-6.72,-7.31,-6.63,6.00,6.16,-1.40,-1.31,-0.69
109,-7.22,-6.50,-7.27,-6.55,6.00,6.18,-1.22,-1.27,-0.72
110,-7.20,-6.45,-7.22,-6.47,6.00,6.19,-1.20,-1.22,-0.75
111,-7.15,-6.37,-7.17,-6.39,6.00,6.18,-1.15,-1.17,-0.78
112,-7.10,-6.29,-7.13,-6.31,6.00,6.14,-1.10,-1.13,-0.81
113,-7.07,-6.23,-7.08,-6.24,6.00,6.09,-1.07,-1.08,-0.84
114,-6.96,-6.10,-7.04,-6.17,6.00,6.02,-0.96,-1.04,-0.87
115,-7.00,-6.11,-7.00,-6.09,5.98,5.95,-1.02,-1.02,-0.90
117,-7.03,-6.08,-6.96,-6.02,5.89,5.78,-1.14,-1.06,-0.95
118,-6.88,-5.91,-6.91,-5.94,5.82,5.70,-1.06,-1.08,-0.98
119,-6.83,-5.84,-6.85,-5.85,5.76,5.63,-1.08,-1.09,-1.00
120,-6.86,-5.84,-6.78,-5.75,5.70,5.55,-1.16,-1.08,-1.02
121,-6.80,-5.76,-6.70,-5.65,5.65,5.49,-1.15,-1.05,-1.04
123,-6.49,-5.41,-6.62,-5.54,5.54,5.36,-0.96,-1.08,-1.09
124,-6.46,-5.36,-6.53,-5.42,5.42,5.31,-1.04,-1.10,-1.11
125,-6.43,-5.31,-6.43,-5.30,5.30,5.26,-1.13,-1.13,-1.12
126,-6.37,-5.23,-6.33,-5.18,5.18,5.21,-1.19,-1.15,-1.14
128,-6.31,-5.13,-6.24,-5.07,5.07,5.13,-1.25,-1.17,-1.18
129,-6.10,-4.91,-6.15,-4.95,4.95,5.09,-1.15,-1.19,-1.20
130,-5.99,-4.78,-6.06,-4.84,4.84,5.05,-1.15,-1.22,-1.21
131,-5.96,-4.74,-5.97,-4.73,4.73,5.01,-1.23,-1.24,-1.23
133,-5.93,-4.67,-5.89,-4.63,4.63,4.95,-1.30,-1.26,-1.26
134,-5.88,-4.61,-5.82,-4.54,4.54,4.91,-1.35,-1.28,-1.28
135,-5.74,-4.45,-5.75,-4.45,4.45,4.88,-1.29,-1.30,-1.29
137,-5.58,-4.26,-5.69,-4.37,4.37,4.83,-1.22,-1.32,-1.33
138,-5.58,-4.24,-5.64,-4.30,4.30,4.80,-1.29,-1.34,-1.34
140,-5.68,-4.31,-5.60,-4.24,4.24,4.75,-1.45,-1.36,-1.37
141,-5.67,-4.29,-5.57,-4.19,4.19,4.72,-1.49,-1.38,-1.38
142,-5.52,-4.13,-5.56,-4.15,4.15,4.70,-1.37,-1.40,-1.40
144,-5.45,-4.03,-5.55,-4.13,4.13,4.65,-1.32,-1.42,-1.43
145,-5.54,-4.10,-5.56,-4.12,4.12,4.63,-1.42,-1.45,-1.44
147,-5.57,-4.10,-5.58,-4.12,4.12,4.58,-1.46,-1.47,-1.47
148,-5.57,-4.09,-5.61,-4.12,4.12,4.56,-1.45,-1.49,-1.48
150,-5.60,-4.09,-5.63,-4.13,4.13,4.51,-1.48,-1.51,-1.51
151,-5.75,-4.23,-5.65,-4.12,4.12,4.49,-1.63,-1.53,-1.52
153,-5.76,-4.21,-5.66,-4.12,4.12,4.45,-1.65,-1.55,-1.55
154,-5.67,-4.11,-5.66,-4.10,4.10,4.43,-1.58,-1.56,-1.56
156,-5.67,-4.09,-5.66,-4.08,4.08,4.39,-1.60,-1.58,-1.59
157,-5.67,-4.08,-5.66,-4.05,4.05,4.37,-1.62,-1.60,-1.60
159,-5.67,-4.05,-5.66,-4.04,4.04,4.33,-1.63,-1.62,-1.62
160,-5.63,-4.00,-5.68,-4.04,4.04,4.31,-1.59,-1.64,-1.63
162,-5.53,-3.88,-5.72,-4.06,4.06,4.28,-1.47,-1.65,-1.65
164,-5.70,-4.03,-5.78,-4.11,4.11,4.24,-1.60,-1.67,-1.67
165,-5.74,-4.06,-5.85,-4.16,4.16,4.22,-1.58,-1.69,-1.68
167,-5.92,-4.22,-5.92,-4.22,4.22,4.19,-1.70,-1.70,-1.70
169,-6.09,-4.38,-5.99,-4.28,4.28,4.15,-1.82,-1.71,-1.72
170,-6.20,-4.48,-6.03,-4.31,4.31,4.14,-1.90,-1.73,-1.72
172,-6.07,-4.34,-6.04,-4.31,4.31,4.10,-1.77,-1.74,-1.74
174,-6.11,-4.36,-6.02,-4.27,4.27,4.07,-1.84,-1.75,-1.75
175,-6.01,-4.26,-5.96,-4.20,4.20,4.05,-1.81,-1.76,-1.75
177,-5.83,-4.07,-5.87,-4.11,4.11,4.02,-1.73,-1.76,-1.76
179,-5.72,-3.95,-5.77,-4.00,4.00,3.99,-1.73,-1.77,-1.77
181,-5.74,-3.97,-5.65,-3.88,3.88,3.96,-1.86,-1.78,-1.78
183,-5.38,-3.60,-5.55,-3.77,3.77,3.93,-1.62,-1.78,-1.78
184,-5.29,-3.51,-5.45,-3.67,3.67,3.91,-1.62,-1.78,-1.78
186,-5.39,-3.61,-5.37,-3.59,3.59,3.89,-1.81,-1.79,-1.79
188,-5.37,-3.59,-5.31,-3.52,3.52,3.86,-1.85,-1.79,-1.79
190,-5.26,-3.47,-5.25,-3.46,3.46,3.83,-1.80,-1.79,-1.79
192,-5.10,-3.31,-5.20,-3.41,3.41,3.80,-1.70,-1.79,-1.79
194,-5.24,-3.45,-5.15,-3.35,3.35,3.78,-1.89,-1.79,-1.79
196,-5.31,-3.52,-5.09,-3.30,3.30,3.75,-2.02,-1.80,-1.80
198,-4.93,-3.14,-5.03,-3.24,3.24,3.72,-1.70,-1.80,-1.80
200,-4.86,-3.07,-4.98,-3.18,3.18,3.70,-1.68,-1.80,-1.80
202,-4.98,-3.19,-4.93,-3.13,3.13,3.68,-1.86,-1.80,-1.80
204,-4.97,-3.18,-4.88,-3.08,3.08,3.65,-1.89,-1.80,-1.80
206,-4.71,-2.91,-4.85,-3.05,3.05,3.63,-1.66,-1.80,-1.80
208,-4.71,-2.91,-4.84,-3.04,3.04,3.61,-1.68,-1.80,-1.80
210,-4.87,-3.07,-4.83,-3.03,3.03,3.58,-1.84,-1.80,-1.80
212,-4.88,-3.08,-4.84,-3.04,3.04,3.56,-1.84,-1.80,-1.80
214,-4.88,-3.08,-4.85,-3.05,3.05,3.54,-1.83,-1.80,-1.80
216,-4.88,-3.08,-4.87,-3.07,3.07,3.52,-1.82,-1.80,-1.80
218,-4.89,-3.09,-4.88,-3.08,3.08,3.50,-1.82,-1.80,-1.80
221,-4.89,-3.09,-4.89,-3.09,3.09,3.47,-1.81,-1.80,-1.80
223,-4.89,-3.09,-4.89,-3.09,3.09,3.45,-1.80,-1.80,-1.80
225,-4.89,-3.10,-4.89,-3.09,3.09,3.43,-1.80,-1.80,-1.80
227,-4.89,-3.10,-4.89,-3.09,3.09,3.42,-1.80,-1.80,-1.80
229,-4.89,-3.10,-4.89,-3.10,3.10,3.40,-1.80,-1.79,-1.79
232,-4.88,-3.09,-4.90,-3.11,3.11,3.37,-1.78,-1.79,-1.79
234,-4.87,-3.09,-4.91,-3.12,3.12,3.36,-1.75,-1.79,-1.79
236,-4.86,-3.08,-4.92,-3.14,3.14,3.34,-1.72,-1.78,-1.78
239,-4.84,-3.07,-4.94,-3.16,3.16,3.32,-1.68,-1.78,-1.78
241,-4.96,-3.19,-4.94,-3.17,3.17,3.30,-1.79,-1.77,-1.77
244,-5.07,-3.31,-4.94,-3.18,3.18,3.28,-1.89,-1.76,-1.77
246,-4.99,-3.24,-4.93,-3.17,3.17,3.27,-1.82,-1.76,-1.76
248,-5.05,-3.30,-4.90,-3.15,3.15,3.26,-1.90,-1.75,-1.75
251,-4.79,-3.05,-4.86,-3.12,3.12,3.24,-1.68,-1.74,-1.74
253,-4.73,-3.00,-4.82,-3.08,3.08,3.23,-1.65,-1.74,-1.73
256,-4.72,-3.00,-4.77,-3.04,3.04,3.21,-1.68,-1.73,-1.73
259,-4.71,-2.99,-4.73,-3.01,3.01,3.20,-1.70,-1.72,-1.72
261,-4.70,-2.99,-4.70,-2.99,2.99,3.19,-1.72,-1.71,-1.71
264,-4.70,-3.00,-4.69,-2.98,2.98,3.17,-1.72,-1.71,-1.71
266,-4.70,-3.01,-4.69,-2.99,2.99,3.16,-1.72,-1.70,-1.70
269,-4.55,-2.86,-4.70,-3.01,3.01,3.15,-1.55,-1.69,-1.69
272,-4.68,-3.00,-4.72,-3.04,3.04,3.14,-1.65,-1.68,-1.68
274,-4.82,-3.15,-4.75,-3.07,3.07,3.13,-1.76,-1.68,-1.68
277,-4.82,-3.15,-4.77,-3.10,3.10,3.12,-1.72,-1.67,-1.67
280,-4.82,-3.16,-4.79,-3.13,3.13,3.11,-1.69,-1.66,-1.66
283,-4.81,-3.16,-4.81,-3.15,3.15,3.10,-1.66,-1.66,-1.66
286,-4.81,-3.16,-4.81,-3.16,3.16,3.09,-1.65,-1.65,-1.65
288,-4.80,-3.16,-4.81,-3.17,3.17,3.09,-1.64,-1.64,-1.64
291,-4.79,-3.16,-4.80,-3.16,3.16,3.08,-1.63,-1.64,-1.64
294,-4.78,-3.15,-4.79,-3.15,3.15,3.08,-1.63,-1.63,-1.63
297,-4.77,-3.15,-4.77,-3.14,3.14,3.07,-1.63,-1.63,-1.63
300,-4.75,-3.13,-4.75,-3.13,3.13,3.07,-1.63,-1.62,-1.62
303,-4.74,-3.13,-4.73,-3.12,3.12,3.06,-1.63,-1.62,-1.62
306,-4.73,-3.12,-4.72,-3.11,3.11,3.06,-1.62,-1.61,-1.61
309,-4.72,-3.12,-4.71,-3.11,3.11,3.06,-1.61,-1.60,-1.60
312,-4.69,-3.09,-4.72,-3.12,3.12,3.06,-1.58,-1.60,-1.60
316,-4.57,-2.98,-4.73,-3.13,3.13,3.06,-1.44,-1.59,-1.59
319,-4.75,-3.16,-4.74,-3.15,3.15,3.06,-1.60,-1.59,-1.59
322,-4.81,-3.23,-4.76,-3.17,3.17,3.06,-1.64,-1.58,-1.58
325,-4.81,-3.23,-4.77,-3.19,3.19,3.06,-1.62,-1.58,-1.58
328,-4.81,-3.24,-4.79,-3.21,3.21,3.06,-1.60,-1.57,-1.57
332,-4.81,-3.24,-4.80,-3.23,3.23,3.06,-1.59,-1.57,-1.57
335,-4.81,-3.25,-4.80,-3.24,3.24,3.07,-1.58,-1.57,-1.57
338,-4.82,-3.26,-4.81,-3.25,3.25,3.07,-1.58,-1.56,-1.56
342,-4.82,-3.27,-4.82,-3.26,3.26,3.07,-1.57,-1.56,-1.56
345,-4.82,-3.27,-4.83,-3.27,3.27,3.08,-1.55,-1.56,-1.56
349,-4.71,-3.16,-4.84,-3.29,3.29,3.09,-1.43,-1.55,-1.55
352,-4.74,-3.19,-4.86,-3.31,3.31,3.09,-1.44,-1.55,-1.55
356,-4.91,-3.37,-4.87,-3.32,3.32,3.10,-1.59,-1.55,-1.55
359,-4.93,-3.39,-4.88,-3.33,3.33,3.10,-1.60,-1.55,-1.55
363,-5.01,-3.47,-4.88,-3.34,3.34,3.11,-1.68,-1.55,-1.54
366,-5.00,-3.46,-4.87,-3.33,3.33,3.12,-1.67,-1.54,-1.54
370,-4.79,-3.25,-4.86,-3.31,3.31,3.13,-1.48,-1.54,-1.54
374,-4.78,-3.24,-4.83,-3.29,3.29,3.14,-1.49,-1.54,-1.54
377,-4.78,-3.25,-4.81,-3.27,3.27,3.15,-1.51,-1.54,-1.54
381,-4.77,-3.24,-4.79,-3.25,3.25,3.16,-1.52,-1.54,-1.54
385,-4.73,-3.20,-4.78,-3.25,3.25,3.17,-1.49,-1.53,-1.53
389,-4.68,-3.16,-4.78,-3.25,3.25,3.18,-1.43,-1.53,-1.53
393,-4.80,-3.28,-4.79,-3.26,3.26,3.19,-1.54,-1.52,-1.52
397,-4.85,-3.34,-4.80,-3.29,3.29,3.20,-1.57,-1.51,-1.51
401,-4.85,-3.35,-4.82,-3.31,3.31,3.21,-1.54,-1.50,-1.50
405,-4.85,-3.36,-4.84,-3.34,3.34,3.22,-1.51,-1.49,-1.49
409,-4.86,-3.38,-4.85,-3.38,3.38,3.23,-1.49,-1.48,-1.48
413,-4.86,-3.40,-4.87,-3.41,3.41,3.24,-1.46,-1.46,-1.46
417,-4.86,-3.42,-4.88,-3.43,3.43,3.24,-1.43,-1.44,-1.44
421,-4.86,-3.44,-4.88,-3.46,3.46,3.25,-1.40,-1.42,-1.42
425,-4.81,-3.42,-4.89,-3.49,3.49,3.26,-1.32,-1.39,-1.40
430,-4.84,-3.48,-4.88,-3.51,3.51,3.27,-1.33,-1.37,-1.37
434,-4.96,-3.63,-4.87,-3.53,3.53,3.28,-1.43,-1.34,-1.34
438,-4.92,-3.62,-4.84,-3.54,3.54,3.28,-1.38,-1.30,-1.30
443,-4.76,-3.50,-4.81,-3.54,3.54,3.29,-1.22,-1.27,-1.27
447,-4.72,-3.50,-4.75,-3.52,3.52,3.30,-1.20,-1.23,-1.23
451,-4.66,-3.48,-4.68,-3.49,3.49,3.30,-1.17,-1.19,-1.19
456,-4.62,-3.48,-4.59,-3.44,3.44,3.30,-1.18,-1.15,-1.15
460,-4.56,-3.46,-4.48,-3.38,3.38,3.31,-1.19,-1.11,-1.11
465,-4.40,-3.34,-4.37,-3.30,3.30,3.31,-1.10,-1.07,-1.07
470,-4.18,-3.16,-4.24,-3.22,3.22,3.31,-0.97,-1.03,-1.03
474,-4.10,-3.12,-4.12,-3.13,3.13,3.31,-0.97,-0.99,-0.99
479,-4.01,-3.06,-4.00,-3.05,3.05,3.30,-0.96,-0.95,-0.95
484,-3.90,-2.99,-3.90,-2.98,2.98,3.30,-0.92,-0.92,-0.92
489,-3.72,-2.84,-3.80,-2.92,2.92,3.29,-0.81,-0.89,-0.88
494,-3.69,-2.84,-3.73,-2.87,2.87,3.28,-0.82,-0.86,-0.86
499,-3.66,-2.83,-3.67,-2.84,2.84,3.27,-0.83,-0.84,-0.83
504,-3.63,-2.82,-3.63,-2.81,2.81,3.26,-0.82,-0.82,-0.81
509,-3.62,-2.82,-3.60,-2.80,2.80,3.25,-0.82,-0.80,-0.80
514,-3.60,-2.81,-3.59,-2.80,2.80,3.24,-0.81,-0.79,-0.79
519,-3.60,-2.82,-3.58,-2.80,2.80,3.22,-0.80,-0.78,-0.78
524,-3.60,-2.82,-3.59,-2.81,2.81,3.20,-0.80,-0.78,-0.78
529,-3.61,-2.83,-3.60,-2.82,2.82,3.18,-0.79,-0.78,-0.78
535,-3.57,-2.79,-3.63,-2.84,2.84,3.16,-0.73,-0.79,-0.79
540,-3.62,-2.83,-3.66,-2.86,2.86,3.14,-0.76,-0.80,-0.80
545,-3.71,-2.91,-3.70,-2.90,2.90,3.11,-0.82,-0.81,-0.80
551,-3.75,-2.94,-3.75,-2.93,2.93,3.08,-0.82,-0.82,-0.82
556,-3.80,-2.98,-3.80,-2.97,2.97,3.06,-0.83,-0.83,-0.83
562,-3.85,-3.02,-3.86,-3.02,3.02,3.02,-0.84,-0.84,-0.84
568,-3.90,-3.06,-3.91,-3.06,3.06,2.99,-0.84,-0.85,-0.85
573,-3.95,-3.10,-3.95,-3.10,3.10,2.96,-0.85,-0.86,-0.86
579,-3.94,-3.08,-3.99,-3.13,3.13,2.92,-0.82,-0.86,-0.86
585,-3.98,-3.12,-4.01,-3.14,3.14,2.88,-0.84,-0.86,-0.87
591,-4.14,-3.28,-4.01,-3.15,3.15,2.84,-1.00,-0.86,-0.87
596,-4.02,-3.16,-3.99,-3.13,3.13,2.81,-0.89,-0.86,-0.86
602,-3.97,-3.12,-3.95,-3.10,3.10,2.76,-0.88,-0.85,-0.86
608,-3.87,-3.03,-3.89,-3.05,3.05,2.72,-0.83,-0.84,-0.84
615,-3.78,-2.96,-3.81,-2.99,2.99,2.67,-0.80,-0.83,-0.83
621,-3.72,-2.91,-3.72,-2.91,2.91,2.62,-0.81,-0.81,-0.81
627,-3.55,-2.77,-3.62,-2.83,2.83,2.58,-0.72,-0.79,-0.79
633,-3.52,-2.76,-3.51,-2.74,2.74,2.53,-0.78,-0.76,-0.76
639,-3.43,-2.70,-3.39,-2.65,2.65,2.49,-0.78,-0.73,-0.73
646,-3.27,-2.57,-3.26,-2.56,2.56,2.43,-0.71,-0.70,-0.70
652,-3.10,-2.43,-3.13,-2.46,2.46,2.39,-0.64,-0.67,-0.67
659,-2.98,-2.35,-3.00,-2.37,2.37,2.33,-0.62,-0.64,-0.64
665,-2.90,-2.30,-2.87,-2.27,2.27,2.28,-0.64,-0.60,-0.60
672,-2.75,-2.19,-2.74,-2.17,2.17,2.23,-0.58,-0.57,-0.57
679,-2.59,-2.06,-2.61,-2.08,2.08,2.17,-0.51,-0.53,-0.53
686,-2.45,-1.95,-2.49,-1.99,1.99,2.12,-0.46,-0.50,-0.50
692,-2.41,-1.95,-2.38,-1.91,1.91,2.07,-0.50,-0.47,-0.47
699,-2.30,-1.87,-2.28,-1.84,1.84,2.01,-0.46,-0.44,-0.44
706,-2.14,-1.73,-2.19,-1.78,1.78,1.96,-0.36,-0.41,-0.41
713,-2.09,-1.71,-2.11,-1.73,1.73,1.90,-0.36,-0.38,-0.38
721,-2.07,-1.71,-2.05,-1.69,1.69,1.84,-0.39,-0.36,-0.36
728,-1.92,-1.59,-1.99,-1.65,1.65,1.79,-0.27,-0.34,-0.34
735,-1.92,-1.61,-1.94,-1.62,1.62,1.73,-0.30,-0.32,-0.32
742,-1.94,-1.64,-1.90,-1.60,1.60,1.68,-0.35,-0.30,-0.30
750,-1.86,-1.58,-1.85,-1.57,1.57,1.62,-0.30,-0.28,-0.28
757,-1.85,-1.58,-1.81,-1.54,1.54,1.57,-0.32,-0.27,-0.27
765,-1.77,-1.52,-1.76,-1.50,1.50,1.51,-0.27,-0.26,-0.26
773,-1.64,-1.40,-1.70,-1.46,1.46,1.45,-0.19,-0.25,-0.25
780,-1.65,-1.42,-1.64,-1.41,1.41,1.40,-0.25,-0.24,-0.24
788,-1.59,-1.37,-1.58,-1.35,1.35,1.34,-0.24,-0.23,-0.23
796,-1.50,-1.29,-1.51,-1.29,1.29,1.28,-0.21,-0.22,-0.22
804,-1.45,-1.24,-1.44,-1.23,1.23,1.23,-0.23,-0.21,-0.21
812,-1.38,-1.18,-1.36,-1.16,1.16,1.17,-0.22,-0.20,-0.20
820,-1.24,-1.05,-1.29,-1.09,1.09,1.11,-0.15,-0.20,-0.20
828,-1.23,-1.04,-1.21,-1.02,1.02,1.06,-0.21,-0.19,-0.19
837,-1.13,-0.95,-1.14,-0.95,0.95,1.00,-0.18,-0.18,-0.18
845,-1.04,-0.87,-1.06,-0.89,0.89,0.94,-0.16,-0.18,-0.18
853,-1.04,-0.88,-0.99,-0.83,0.83,0.89,-0.22,-0.17,-0.17
862,-0.85,-0.69,-0.93,-0.77,0.77,0.83,-0.09,-0.16,-0.16
871,-0.85,-0.70,-0.87,-0.71,0.71,0.77,-0.14,-0.15,-0.15
879,-0.86,-0.72,-0.81,-0.66,0.66,0.72,-0.20,-0.15,-0.15
888,-0.69,-0.56,-0.75,-0.61,0.61,0.66,-0.08,-0.14,-0.14
897,-0.67,-0.54,-0.69,-0.56,0.56,0.60,-0.12,-0.13,-0.13
906,-0.68,-0.56,-0.63,-0.51,0.51,0.55,-0.18,-0.12,-0.12
915,-0.57,-0.46,-0.56,-0.45,0.45,0.49,-0.12,-0.11,-0.11
924,-0.53,-0.43,-0.50,-0.40,0.40,0.43,-0.14,-0.10,-0.10
933,-0.44,-0.35,-0.43,-0.34,0.34,0.38,-0.10,-0.09,-0.09
943,-0.29,-0.21,-0.36,-0.28,0.28,0.32,-0.01,-0.08,-0.08
952,-0.28,-0.22,-0.30,-0.23,0.23,0.26,-0.06,-0.07,-0.07
962,-0.20,-0.15,-0.23,-0.18,0.18,0.20,-0.03,-0.05,-0.05
971,-0.17,-0.13,-0.16,-0.13,0.13,0.14,-0.05,-0.04,-0.04
981,-0.11,-0.09,-0.10,-0.08,0.08,0.08,-0.04,-0.02,-0.02
991,-0.05,-0.05,-0.03,-0.03,0.03,0.02,-0.03,-0.01,-0.01
1001,0.01,-0.01,0.03,0.02,-0.02,-0.04,-0.01,0.01,0.01
1011,0.12,0.08,0.10,0.07,-0.07,-0.10,0.04,0.03,0.03
1021,0.21,0.15,0.18,0.12,-0.12,-0.16,0.08,0.06,0.06
1031,0.24,0.16,0.26,0.18,-0.18,-0.22,0.06,0.08,0.08
1041,0.37,0.26,0.34,0.23,-0.23,-0.28,0.13,0.10,0.10
1052,0.40,0.26,0.42,0.29,-0.29,-0.35,0.11,0.13,0.13
1062,0.48,0.32,0.50,0.34,-0.34,-0.41,0.13,0.16,0.16
1073,0.59,0.40,0.59,0.40,-0.40,-0.47,0.19,0.19,0.19
1084,0.72,0.49,0.67,0.45,-0.45,-0.54,0.26,0.22,0.22
1094,0.79,0.53,0.76,0.51,-0.51,-0.60,0.28,0.25,0.25
1105,0.85,0.56,0.85,0.56,-0.56,-0.67,0.29,0.29,0.29
1116,0.91,0.58,0.94,0.62,-0.62,-0.74,0.29,0.32,0.32
1128,0.99,0.63,1.03,0.67,-0.67,-0.81,0.31,0.36,0.36
1139,1.16,0.77,1.13,0.73,-0.73,-0.88,0.42,0.39,0.39
1150,1.24,0.81,1.22,0.80,-0.80,-0.95,0.44,0.42,0.42
1162,1.33,0.87,1.32,0.87,-0.87,-1.03,0.46,0.46,0.46
1173,1.42,0.93,1.42,0.94,-0.94,-1.10,0.48,0.49,0.49
1185,1.52,1.00,1.53,1.01,-1.01,-1.18,0.51,0.52,0.52
1197,1.62,1.07,1.63,1.08,-1.08,-1.26,0.53,0.55,0.55
1209,1.74,1.16,1.73,1.16,-1.16,-1.34,0.58,0.57,0.57
1221,1.86,1.26,1.83,1.23,-1.23,-1.42,0.62,0.60,0.60
1233,1.98,1.36,1.93,1.31,-1.31,-1.50,0.67,0.62,0.62
1246,2.05,1.41,2.03,1.39,-1.39,-1.59,0.65,0.64,0.64
1258,2.14,1.48,2.14,1.48,-1.48,-1.67,0.65,0.65,0.65
1271,2.19,1.52,2.25,1.58,-1.58,-1.76,0.60,0.67,0.67
1283,2.33,1.65,2.37,1.69,-1.69,-1.85,0.63,0.68,0.68
1296,2.48,1.79,2.49,1.81,-1.81,-1.94,0.66,0.68,0.68
1309,2.63,1.94,2.63,1.94,-1.94,-2.04,0.68,0.69,0.69
1322,2.78,2.09,2.76,2.08,-2.08,-2.13,0.70,0.69,0.69
1335,2.93,2.24,2.90,2.22,-2.22,-2.23,0.71,0.68,0.68
1349,3.09,2.41,3.04,2.36,-2.36,-2.34,0.72,0.68,0.68
1362,3.22,2.54,3.18,2.51,-2.51,-2.44,0.71,0.67,0.67
1376,3.28,2.61,3.32,2.65,-2.65,-2.55,0.63,0.67,0.67
1390,3.43,2.77,3.45,2.79,-2.79,-2.66,0.64,0.66,0.66
1404,3.57,2.92,3.58,2.93,-2.93,-2.77,0.64,0.65,0.65
1418,3.71,3.06,3.70,3.06,-3.06,-2.88,0.64,0.64,0.64
1432,3.84,3.20,3.83,3.19,-3.19,-3.00,0.64,0.63,0.63
1446,3.97,3.34,3.94,3.32,-3.32,-3.11,0.65,0.63,0.63
1461,4.08,3.46,4.06,3.44,-3.44,-3.24,0.64,0.62,0.62
1475,4.19,3.57,4.17,3.55,-3.55,-3.36,0.63,0.62,0.62
1490,4.29,3.67,4.28,3.66,-3.66,-3.49,0.62,0.62,0.62
1505,4.38,3.76,4.39,3.77,-3.77,-3.62,0.60,0.62,0.62
1520,4.53,3.90,4.51,3.89,-3.89,-3.75,0.64,0.62,0.62
1535,4.64,4.00,4.64,4.00,-4.00,-3.88,0.63,0.63,0.63
1550,4.72,4.07,4.77,4.12,-4.12,-4.02,0.59,0.65,0.65
1566,4.88,4.21,4.92,4.25,-4.25,-4.16,0.62,0.67,0.67
1582,5.09,4.40,5.08,4.39,-4.39,-4.30,0.69,0.69,0.69
1597,5.29,4.57,5.26,4.54,-4.54,-4.43,0.75,0.72,0.72
1613,5.44,4.68,5.44,4.69,-4.69,-4.58,0.75,0.76,0.75
