frequency,raw,error,smoothed,error_smoothed,equalization,parametric_eq,equalized_raw,equalized_smoothed,target
20,3.03,-1.12,2.95,-1.17,1.17,-0.20,4.20,4.12,4.15
21,3.16,-0.99,3.14,-0.98,0.98,-0.22,4.14,4.12,4.14
22,3.30,-0.84,3.32,-0.80,0.80,-0.24,4.10,4.12,4.14
23,3.47,-0.67,3.50,-0.62,0.62,-0.27,4.09,4.12,4.13
24,3.62,-0.51,3.66,-0.45,0.45,-0.29,4.07,4.12,4.13
25,3.78,-0.35,3.82,-0.29,0.29,-0.32,4.06,4.11,4.12
26,3.95,-0.17,3.98,-0.13,0.13,-0.35,4.08,4.11,4.12
27,4.11,-0.00,4.12,0.02,-0.02,-0.38,4.09,4.10,4.11
28,4.27,0.16,4.26,0.16,-0.16,-0.42,4.10,4.10,4.10
29,4.42,0.32,4.39,0.30,-0.30,-0.45,4.12,4.09,4.10
30,4.56,0.47,4.51,0.43,-0.43,-0.49,4.12,4.08,4.09
31,4.68,0.60,4.63,0.56,-0.56,-0.53,4.12,4.07,4.08
32,4.77,0.70,4.74,0.67,-0.67,-0.57,4.09,4.07,4.07
33,4.85,0.79,4.84,0.78,-0.78,-0.62,4.06,4.06,4.06
34,4.93,0.88,4.93,0.88,-0.88,-0.67,4.04,4.04,4.05
35,5.01,0.97,5.01,0.98,-0.98,-0.72,4.02,4.03,4.04
36,5.08,1.05,5.09,1.08,-1.08,-0.78,4.00,4.02,4.03
37,5.15,1.13,5.17,1.17,-1.17,-0.83,3.98,4.00,4.02
38,5.22,1.21,5.24,1.25,-1.25,-0.90,3.96,3.99,4.00
39,5.28,1.28,5.31,1.34,-1.34,-0.96,3.94,3.97,3.99
40,5.36,1.38,5.39,1.43,-1.43,-1.03,3.93,3.96,3.98
41,5.43,1.46,5.46,1.51,-1.51,-1.10,3.92,3.95,3.96
42,5.52,1.57,5.52,1.59,-1.59,-1.18,3.93,3.94,3.95
43,5.60,1.66,5.58,1.66,-1.66,-1.26,3.94,3.92,3.93
44,5.67,1.75,5.64,1.73,-1.73,-1.34,3.94,3.91,3.92
45,5.73,1.83,5.69,1.79,-1.79,-1.43,3.93,3.89,3.90
46,5.77,1.89,5.72,1.85,-1.85,-1.52,3.92,3.88,3.88
47,5.79,1.92,5.76,1.89,-1.89,-1.61,3.89,3.86,3.86
48,5.80,1.95,5.78,1.93,-1.93,-1.70,3.86,3.84,3.84
49,5.80,1.97,5.79,1.97,-1.97,-1.80,3.83,3.82,3.82
50,5.80,1.99,5.79,1.99,-1.99,-1.90,3.80,3.80,3.80
51,5.79,2.01,5.79,2.01,-2.01,-1.99,3.77,3.78,3.78
52,5.78,2.02,5.79,2.03,-2.03,-2.09,3.74,3.75,3.76
53,5.77,2.03,5.78,2.05,-2.05,-2.18,3.71,3.73,3.74
54,5.76,2.04,5.77,2.07,-2.07,-2.27,3.69,3.70,3.71
55,5.76,2.07,5.76,2.09,-2.09,-2.36,3.67,3.67,3.69
56,5.76,2.09,5.76,2.11,-2.11,-2.44,3.64,3.65,3.66
57,5.76,2.12,5.77,2.14,-2.14,-2.52,3.61,3.62,3.64
58,5.77,2.16,5.78,2.18,-2.18,-2.59,3.59,3.60,3.61
59,5.78,2.19,5.79,2.22,-2.22,-2.66,3.55,3.57,3.58
60,5.80,2.24,5.81,2.27,-2.27,-2.72,3.53,3.55,3.55
61,5.83,2.30,5.84,2.32,-2.32,-2.77,3.51,3.52,3.53
62,5.86,2.36,5.86,2.37,-2.37,-2.81,3.48,3.49,3.50
63,5.90,2.43,5.89,2.43,-2.43,-2.85,3.47,3.46,3.47
64,5.94,2.50,5.92,2.49,-2.49,-2.88,3.45,3.43,3.44
65,5.98,2.57,5.95,2.55,-2.55,-2.90,3.42,3.40,3.41
66,6.01,2.63,5.98,2.62,-2.62,-2.92,3.39,3.37,3.37
67,6.03,2.68,6.02,2.68,-2.68,-2.94,3.35,3.34,3.34
68,6.06,2.75,6.05,2.75,-2.75,-2.95,3.31,3.31,3.31
69,6.08,2.80,6.09,2.81,-2.81,-2.96,3.27,3.28,3.28
70,6.10,2.85,6.12,2.87,-2.87,-2.96,3.22,3.24,3.24
71,6.13,2.92,6.15,2.94,-2.94,-2.97,3.19,3.21,3.21
72,6.17,2.99,6.17,3.00,-3.00,-2.97,3.17,3.17,3.18
73,6.20,3.05,6.20,3.06,-3.06,-2.98,3.14,3.14,3.14
74,6.24,3.13,6.22,3.12,-3.12,-2.99,3.12,3.10,3.11
75,6.27,3.19,6.24,3.18,-3.18,-2.99,3.09,3.07,3.07
76,6.29,3.25,6.27,3.23,-3.23,-3.00,3.05,3.03,3.04
77,6.29,3.28,6.29,3.29,-3.29,-3.01,3.00,3.00,3.00
78,6.30,3.33,6.30,3.34,-3.34,-3.03,2.96,2.97,2.97
79,6.31,3.38,6.31,3.38,-3.38,-3.04,2.92,2.93,2.93
80,6.33,3.43,6.32,3.43,-3.43,-3.06,2.90,2.89,2.89
81,6.34,3.48,6.33,3.47,-3.47,-3.08,2.86,2.86,2.86
82,6.34,3.51,6.33,3.51,-3.51,-3.11,2.82,2.82,2.82
83,6.34,3.55,6.33,3.55,-3.55,-3.13,2.78,2.78,2.78
84,6.34,3.59,6.33,3.59,-3.59,-3.17,2.75,2.75,2.75
85,6.34,3.62,6.33,3.62,-3.62,-3.20,2.71,2.71,2.71
86,6.33,3.65,6.33,3.66,-3.66,-3.24,2.67,2.67,2.68
87,6.33,3.69,6.33,3.69,-3.69,-3.28,2.63,2.64,2.64
88,6.32,3.71,6.33,3.72,-3.72,-3.32,2.59,2.60,2.60
89,6.33,3.76,6.32,3.76,-3.76,-3.37,2.57,2.57,2.57
90,6.32,3.78,6.32,3.79,-3.79,-3.42,2.53,2.53,2.53
91,6.31,3.81,6.31,3.82,-3.82,-3.47,2.49,2.49,2.50
92,6.31,3.85,6.31,3.85,-3.85,-3.52,2.46,2.46,2.46
93,6.30,3.87,6.30,3.88,-3.88,-3.58,2.42,2.43,2.42
94,6.30,3.91,6.30,3.90,-3.90,-3.64,2.39,2.39,2.39
95,6.28,3.92,6.29,3.93,-3.93,-3.70,2.35,2.36,2.35
96,6.28,3.96,6.28,3.96,-3.96,-3.76,2.32,2.32,2.32
97,6.28,3.99,6.26,3.98,-3.98,-3.82,2.30,2.28,2.29
98,6.27,4.01,6.25,4.00,-4.00,-3.89,2.26,2.25,2.25
99,6.25,4.03,6.23,4.02,-4.02,-3.96,2.22,2.21,2.22
100,6.24,4.05,6.22,4.05,-4.05,-4.02,2.19,2.17,2.18
101,6.21,4.06,6.20,4.07,-4.07,-4.09,2.14,2.13,2.15
102,6.18,4.06,6.19,4.09,-4.09,-4.16,2.09,2.10,2.12
104,6.15,4.09,6.17,4.11,-4.11,-4.29,2.04,2.06,2.05
105,6.13,4.10,6.16,4.13,-4.13,-4.36,2.00,2.03,2.02
106,6.12,4.13,6.14,4.15,-4.15,-4.43,1.97,1.99,1.99
107,6.12,4.16,6.13,4.17,-4.17,-4.49,1.95,1.96,1.96
108,6.12,4.19,6.11,4.18,-4.18,-4.56,1.93,1.93,1.93
109,6.11,4.21,6.09,4.20,-4.20,-4.62,1.91,1.90,1.90
110,6.10,4.23,6.08,4.21,-4.21,-4.67,1.88,1.86,1.87
111,6.08,4.24,6.06,4.23,-4.23,-4.73,1.85,1.83,1.84
112,6.06,4.25,6.04,4.24,-4.24,-4.78,1.82,1.80,1.81
113,6.04,4.25,6.02,4.25,-4.25,-4.83,1.79,1.77,1.78
114,6.01,4.25,6.00,4.26,-4.26,-4.88,1.75,1.74,1.75
115,5.99,4.26,5.97,4.27,-4.27,-4.92,1.72,1.71,1.73
117,5.93,4.25,5.95,4.27,-4.27,-4.99,1.65,1.68,1.67
118,5.90,4.25,5.93,4.28,-4.28,-5.01,1.62,1.65,1.65
119,5.87,4.25,5.90,4.28,-4.28,-5.04,1.58,1.62,1.62
120,5.86,4.26,5.87,4.29,-4.29,-5.05,1.57,1.59,1.59
121,5.84,4.27,5.84,4.29,-4.29,-5.07,1.55,1.55,1.57
123,5.82,4.29,5.81,4.29,-4.29,-5.08,1.53,1.52,1.52
124,5.82,4.32,5.78,4.29,-4.29,-5.07,1.53,1.49,1.50
125,5.79,4.31,5.75,4.29,-4.29,-5.06,1.50,1.46,1.47
126,5.76,4.30,5.72,4.28,-4.28,-5.05,1.47,1.43,1.45
128,5.69,4.28,5.69,4.28,-4.28,-5.01,1.41,1.41,1.41
129,5.64,4.25,5.65,4.27,-4.27,-4.98,1.36,1.38,1.38
130,5.59,4.22,5.62,4.26,-4.26,-4.95,1.32,1.36,1.36
131,5.56,4.21,5.58,4.25,-4.25,-4.91,1.30,1.33,1.34
133,5.51,4.20,5.54,4.24,-4.24,-4.83,1.26,1.30,1.30
134,5.50,4.21,5.50,4.23,-4.23,-4.78,1.27,1.27,1.28
135,5.49,4.22,5.46,4.22,-4.22,-4.73,1.27,1.24,1.26
137,5.45,4.22,5.42,4.20,-4.20,-4.62,1.25,1.22,1.23
138,5.42,4.21,5.38,4.19,-4.19,-4.56,1.23,1.19,1.21
140,5.35,4.17,5.34,4.17,-4.17,-4.44,1.17,1.17,1.17
141,5.30,4.14,5.30,4.16,-4.16,-4.38,1.14,1.15,1.15
142,5.26,4.12,5.27,4.14,-4.14,-4.31,1.12,1.13,1.14
144,5.20,4.09,5.23,4.12,-4.12,-4.18,1.08,1.11,1.10
145,5.16,4.07,5.18,4.10,-4.10,-4.11,1.06,1.08,1.09
147,5.11,4.05,5.14,4.08,-4.08,-3.97,1.03,1.06,1.06
148,5.10,4.05,5.09,4.05,-4.05,-3.90,1.04,1.03,1.04
150,5.06,4.04,5.03,4.03,-4.03,-3.77,1.03,1.01,1.01
151,5.03,4.03,4.99,4.00,-4.00,-3.70,1.03,0.99,1.00
153,4.96,3.98,4.94,3.97,-3.97,-3.56,0.99,0.97,0.97
154,4.91,3.95,4.89,3.94,-3.94,-3.49,0.97,0.95,0.96
156,4.82,3.88,4.84,3.91,-3.91,-3.36,0.91,0.93,0.93
157,4.78,3.85,4.78,3.87,-3.87,-3.29,0.90,0.91,0.92
159,4.69,3.79,4.73,3.83,-3.83,-3.16,0.85,0.89,0.90
160,4.66,3.77,4.67,3.79,-3.79,-3.10,0.86,0.88,0.89
162,4.60,3.73,4.61,3.75,-3.75,-2.97,0.85,0.86,0.86
164,4.54,3.70,4.54,3.70,-3.70,-2.85,0.84,0.84,0.84
165,4.50,3.67,4.47,3.65,-3.65,-2.79,0.85,0.82,0.83
167,4.43,3.62,4.40,3.59,-3.59,-2.67,0.83,0.81,0.81
169,4.33,3.54,4.32,3.54,-3.54,-2.56,0.79,0.79,0.79
170,4.29,3.51,4.25,3.48,-3.48,-2.51,0.81,0.77,0.78
172,4.18,3.41,4.17,3.41,-3.41,-2.40,0.76,0.75,0.76
174,4.08,3.33,4.09,3.35,-3.35,-2.29,0.73,0.74,0.74
175,4.03,3.29,4.00,3.28,-3.28,-2.24,0.75,0.72,0.74
177,3.92,3.20,3.92,3.21,-3.21,-2.14,0.70,0.71,0.72
179,3.81,3.10,3.84,3.14,-3.14,-2.04,0.66,0.69,0.70
181,3.71,3.02,3.75,3.07,-3.07,-1.95,0.63,0.68,0.69
183,3.62,2.94,3.66,3.00,-3.00,-1.86,0.62,0.67,0.67
184,3.58,2.91,3.58,2.92,-2.92,-1.82,0.65,0.65,0.66
186,3.51,2.86,3.49,2.85,-2.85,-1.73,0.66,0.64,0.65
188,3.43,2.79,3.40,2.77,-2.77,-1.65,0.65,0.63,0.64
190,3.35,2.72,3.31,2.70,-2.70,-1.57,0.65,0.62,0.62
192,3.25,2.63,3.22,2.62,-2.62,-1.49,0.63,0.60,0.61
194,3.16,2.56,3.13,2.54,-2.54,-1.41,0.62,0.59,0.60
196,3.05,2.46,3.04,2.46,-2.46,-1.34,0.59,0.58,0.59
198,2.94,2.36,2.95,2.38,-2.38,-1.27,0.56,0.57,0.58
200,2.84,2.27,2.86,2.29,-2.29,-1.20,0.54,0.56,0.57
202,2.74,2.18,2.76,2.21,-2.21,-1.13,0.53,0.55,0.56
204,2.65,2.10,2.66,2.12,-2.12,-1.07,0.52,0.54,0.55
206,2.56,2.02,2.56,2.03,-2.03,-1.01,0.52,0.53,0.54
208,2.46,1.93,2.46,1.95,-1.95,-0.95,0.51,0.52,0.53
210,2.37,1.85,2.37,1.85,-1.85,-0.89,0.51,0.51,0.52
212,2.27,1.76,2.27,1.76,-1.76,-0.83,0.50,0.51,0.51
214,2.19,1.69,2.17,1.67,-1.67,-0.78,0.52,0.50,0.50
216,2.09,1.59,2.07,1.58,-1.58,-0.72,0.51,0.49,0.49
218,2.01,1.52,1.96,1.48,-1.48,-0.67,0.53,0.48,0.48
221,1.86,1.38,1.85,1.38,-1.38,-0.60,0.48,0.48,0.47
223,1.75,1.28,1.75,1.28,-1.28,-0.55,0.47,0.47,0.47
225,1.64,1.18,1.64,1.18,-1.18,-0.51,0.46,0.46,0.46
227,1.54,1.08,1.53,1.08,-1.08,-0.46,0.45,0.45,0.45
229,1.43,0.98,1.42,0.98,-0.98,-0.42,0.44,0.44,0.45
232,1.29,0.85,1.32,0.89,-0.89,-0.36,0.40,0.43,0.44
234,1.20,0.76,1.22,0.80,-0.80,-0.33,0.40,0.42,0.43
236,1.12,0.69,1.12,0.71,-0.71,-0.29,0.41,0.41,0.43
239,1.01,0.59,1.03,0.62,-0.62,-0.24,0.38,0.41,0.42
241,0.95,0.53,0.95,0.55,-0.55,-0.21,0.40,0.40,0.41
244,0.85,0.44,0.87,0.47,-0.47,-0.16,0.37,0.40,0.40
246,0.79,0.39,0.80,0.40,-0.40,-0.13,0.38,0.39,0.40
248,0.74,0.34,0.73,0.34,-0.34,-0.11,0.40,0.39,0.39
251,0.66,0.27,0.66,0.28,-0.28,-0.07,0.38,0.38,0.39
253,0.61,0.22,0.60,0.22,-0.22,-0.04,0.39,0.38,0.38
256,0.54,0.16,0.53,0.16,-0.16,-0.01,0.38,0.38,0.38
259,0.47,0.09,0.47,0.09,-0.09,0.02,0.37,0.37,0.37
261,0.42,0.05,0.40,0.03,-0.03,0.04,0.38,0.37,0.37
264,0.34,-0.03,0.33,-0.03,0.03,0.07,0.37,0.36,0.36
266,0.28,-0.08,0.26,-0.10,0.10,0.08,0.38,0.36,0.36
269,0.20,-0.16,0.18,-0.17,0.17,0.11,0.37,0.35,0.35
272,0.11,-0.24,0.10,-0.25,0.25,0.13,0.35,0.35,0.35
274,0.04,-0.31,0.02,-0.32,0.32,0.14,0.36,0.34,0.34
277,-0.05,-0.39,-0.06,-0.40,0.40,0.16,0.35,0.34,0.34
280,-0.15,-0.49,-0.15,-0.49,0.49,0.18,0.33,0.33,0.34
283,-0.25,-0.59,-0.24,-0.57,0.57,0.19,0.32,0.33,0.33
286,-0.34,-0.67,-0.33,-0.65,0.65,0.21,0.31,0.33,0.33
288,-0.41,-0.74,-0.42,-0.74,0.74,0.22,0.33,0.32,0.32
291,-0.50,-0.82,-0.51,-0.83,0.83,0.23,0.32,0.32,0.32
294,-0.59,-0.91,-0.60,-0.91,0.91,0.25,0.32,0.31,0.32
297,-0.68,-1.00,-0.68,-0.99,0.99,0.26,0.31,0.31,0.31
300,-0.76,-1.07,-0.77,-1.07,1.07,0.27,0.31,0.31,0.31
303,-0.85,-1.16,-0.85,-1.15,1.15,0.28,0.30,0.30,0.31
306,-0.92,-1.23,-0.93,-1.23,1.23,0.30,0.30,0.30,0.30
309,-1.00,-1.30,-1.00,-1.30,1.30,0.31,0.30,0.30,0.30
312,-1.07,-1.37,-1.08,-1.37,1.37,0.32,0.30,0.30,0.30
316,-1.16,-1.46,-1.15,-1.44,1.44,0.33,0.27,0.29,0.29
319,-1.22,-1.52,-1.21,-1.50,1.50,0.34,0.28,0.29,0.29
322,-1.28,-1.57,-1.28,-1.56,1.56,0.36,0.28,0.29,0.29
325,-1.33,-1.62,-1.33,-1.62,1.62,0.37,0.28,0.28,0.29
328,-1.38,-1.67,-1.39,-1.67,1.67,0.38,0.29,0.28,0.28
332,-1.44,-1.72,-1.44,-1.72,1.72,0.39,0.28,0.28,0.28
335,-1.49,-1.77,-1.49,-1.77,1.77,0.41,0.28,0.28,0.28
338,-1.53,-1.81,-1.54,-1.82,1.82,0.42,0.28,0.28,0.28
342,-1.58,-1.86,-1.58,-1.86,1.86,0.43,0.28,0.27,0.27
345,-1.62,-1.90,-1.63,-1.90,1.90,0.45,0.28,0.27,0.27
349,-1.66,-1.93,-1.67,-1.94,1.94,0.46,0.28,0.27,0.27
352,-1.69,-1.96,-1.71,-1.98,1.98,0.48,0.29,0.27,0.27
356,-1.74,-2.01,-1.75,-2.02,2.02,0.49,0.27,0.26,0.27
359,-1.78,-2.05,-1.79,-2.05,2.05,0.51,0.27,0.26,0.26
363,-1.82,-2.09,-1.82,-2.08,2.08,0.52,0.26,0.26,0.26
366,-1.85,-2.11,-1.85,-2.11,2.11,0.54,0.26,0.26,0.26
370,-1.89,-2.15,-1.88,-2.14,2.14,0.56,0.24,0.25,0.26
374,-1.91,-2.17,-1.91,-2.16,2.16,0.58,0.24,0.25,0.26
377,-1.92,-2.18,-1.92,-2.17,2.17,0.59,0.25,0.25,0.25
381,-1.94,-2.20,-1.94,-2.18,2.18,0.61,0.24,0.25,0.25
385,-1.94,-2.19,-1.94,-2.19,2.19,0.63,0.24,0.25,0.25
389,-1.94,-2.19,-1.94,-2.19,2.19,0.65,0.24,0.24,0.25
393,-1.94,-2.19,-1.94,-2.18,2.18,0.67,0.24,0.24,0.25
397,-1.93,-2.18,-1.93,-2.17,2.17,0.69,0.23,0.24,0.25
401,-1.91,-2.16,-1.91,-2.15,2.15,0.71,0.24,0.24,0.24
405,-1.88,-2.13,-1.89,-2.13,2.13,0.73,0.24,0.24,0.24
409,-1.86,-2.11,-1.86,-2.10,2.10,0.75,0.24,0.24,0.24
413,-1.82,-2.06,-1.83,-2.07,2.07,0.77,0.24,0.24,0.24
417,-1.79,-2.03,-1.79,-2.03,2.03,0.79,0.24,0.24,0.24
421,-1.75,-1.99,-1.76,-1.99,1.99,0.81,0.24,0.23,0.24
425,-1.70,-1.94,-1.72,-1.94,1.94,0.83,0.24,0.23,0.23
430,-1.65,-1.89,-1.67,-1.90,1.90,0.85,0.24,0.22,0.23
434,-1.61,-1.84,-1.62,-1.84,1.84,0.87,0.23,0.22,0.23
438,-1.56,-1.79,-1.56,-1.78,1.78,0.89,0.22,0.22,0.23
443,-1.50,-1.73,-1.50,-1.72,1.72,0.91,0.22,0.22,0.23
447,-1.45,-1.69,-1.43,-1.66,1.66,0.93,0.20,0.23,0.23
451,-1.40,-1.64,-1.36,-1.59,1.59,0.94,0.19,0.23,0.24
456,-1.31,-1.55,-1.29,-1.52,1.52,0.96,0.21,0.24,0.24
460,-1.23,-1.48,-1.21,-1.46,1.46,0.97,0.22,0.24,0.25
465,-1.12,-1.38,-1.14,-1.39,1.39,0.99,0.26,0.25,0.25
470,-1.02,-1.28,-1.07,-1.32,1.32,1.01,0.30,0.26,0.26
474,-0.95,-1.22,-0.99,-1.26,1.26,1.02,0.30,0.26,0.27
479,-0.87,-1.16,-0.91,-1.19,1.19,1.03,0.32,0.28,0.28
484,-0.81,-1.11,-0.84,-1.13,1.13,1.04,0.31,0.29,0.29
489,-0.76,-1.07,-0.77,-1.07,1.07,1.05,0.30,0.30,0.31
494,-0.70,-1.02,-0.69,-1.01,1.01,1.06,0.30,0.32,0.32
499,-0.64,-0.98,-0.62,-0.95,0.95,1.06,0.30,0.33,0.33
504,-0.57,-0.92,-0.55,-0.89,0.89,1.07,0.32,0.34,0.35
509,-0.49,-0.86,-0.48,-0.83,0.83,1.07,0.34,0.36,0.37
514,-0.41,-0.80,-0.41,-0.78,0.78,1.07,0.36,0.37,0.38
519,-0.32,-0.72,-0.33,-0.72,0.72,1.07,0.39,0.39,0.40
524,-0.24,-0.66,-0.25,-0.66,0.66,1.07,0.41,0.41,0.42
529,-0.17,-0.61,-0.17,-0.60,0.60,1.07,0.42,0.43,0.43
535,-0.07,-0.53,-0.09,-0.54,0.54,1.07,0.46,0.45,0.45
540,0.01,-0.47,-0.00,-0.48,0.48,1.06,0.48,0.47,0.48
545,0.08,-0.42,0.09,-0.42,0.42,1.06,0.49,0.50,0.50
551,0.17,-0.36,0.17,-0.36,0.36,1.05,0.52,0.53,0.52
556,0.25,-0.30,0.25,-0.30,0.30,1.05,0.54,0.55,0.55
562,0.34,-0.24,0.34,-0.24,0.24,1.04,0.57,0.58,0.57
568,0.43,-0.17,0.42,-0.18,0.18,1.03,0.61,0.60,0.60
573,0.50,-0.13,0.50,-0.13,0.13,1.02,0.63,0.63,0.63
579,0.58,-0.08,0.58,-0.08,0.08,1.01,0.66,0.66,0.66
585,0.67,-0.02,0.65,-0.03,0.03,1.01,0.70,0.69,0.69
591,0.74,0.02,0.73,0.01,-0.01,1.00,0.73,0.72,0.72
596,0.81,0.06,0.80,0.05,-0.05,0.99,0.76,0.75,0.75
602,0.87,0.09,0.87,0.09,-0.09,0.98,0.78,0.78,0.78
608,0.94,0.13,0.94,0.13,-0.13,0.97,0.81,0.81,0.81
615,1.01,0.16,1.00,0.16,-0.16,0.96,0.85,0.84,0.84
621,1.07,0.19,1.06,0.19,-0.19,0.95,0.88,0.87,0.87
627,1.13,0.22,1.12,0.22,-0.22,0.94,0.91,0.90,0.90
633,1.18,0.24,1.18,0.25,-0.25,0.94,0.93,0.93,0.94
639,1.24,0.27,1.24,0.28,-0.28,0.93,0.96,0.97,0.97
646,1.30,0.30,1.30,0.30,-0.30,0.92,0.99,1.00,1.00
652,1.36,0.32,1.36,0.33,-0.33,0.91,1.03,1.03,1.03
659,1.42,0.35,1.42,0.35,-0.35,0.91,1.06,1.07,1.07
665,1.48,0.37,1.48,0.38,-0.38,0.90,1.10,1.10,1.10
672,1.54,0.40,1.54,0.40,-0.40,0.90,1.13,1.14,1.14
679,1.61,0.43,1.60,0.43,-0.43,0.89,1.18,1.17,1.17
686,1.68,0.46,1.66,0.46,-0.46,0.89,1.22,1.20,1.21
692,1.73,0.48,1.73,0.48,-0.48,0.89,1.24,1.24,1.25
699,1.79,0.50,1.79,0.51,-0.51,0.88,1.27,1.28,1.29
706,1.86,0.53,1.86,0.54,-0.54,0.88,1.32,1.32,1.33
713,1.91,0.54,1.93,0.57,-0.57,0.88,1.34,1.36,1.36
721,1.97,0.56,1.99,0.60,-0.60,0.88,1.37,1.40,1.40
728,2.04,0.59,2.06,0.62,-0.62,0.88,1.41,1.44,1.44
735,2.10,0.62,2.12,0.64,-0.64,0.88,1.45,1.48,1.48
742,2.18,0.66,2.18,0.66,-0.66,0.89,1.51,1.52,1.52
750,2.25,0.69,2.23,0.68,-0.68,0.89,1.57,1.56,1.56
757,2.30,0.70,2.28,0.68,-0.68,0.89,1.61,1.60,1.60
765,2.34,0.70,2.32,0.68,-0.68,0.90,1.66,1.64,1.64
773,2.38,0.70,2.34,0.67,-0.67,0.90,1.71,1.67,1.67
780,2.38,0.67,2.36,0.65,-0.65,0.91,1.72,1.71,1.71
788,2.39,0.64,2.36,0.62,-0.62,0.91,1.76,1.74,1.74
796,2.38,0.60,2.36,0.59,-0.59,0.92,1.79,1.77,1.78
804,2.34,0.52,2.34,0.54,-0.54,0.92,1.80,1.80,1.81
812,2.31,0.46,2.32,0.48,-0.48,0.93,1.82,1.84,1.84
820,2.26,0.38,2.28,0.42,-0.42,0.94,1.84,1.87,1.88
828,2.20,0.29,2.24,0.34,-0.34,0.95,1.86,1.90,1.91
837,2.14,0.20,2.18,0.24,-0.24,0.96,1.89,1.93,1.94
845,2.08,0.10,2.11,0.13,-0.13,0.97,1.94,1.97,1.97
853,2.02,0.01,2.02,0.01,-0.01,0.97,2.01,2.01,2.00
862,1.94,-0.10,1.91,-0.14,0.14,0.98,2.07,2.05,2.03
871,1.84,-0.23,1.79,-0.30,0.30,0.99,2.14,2.09,2.06
879,1.73,-0.36,1.64,-0.49,0.49,1.00,2.22,2.13,2.09
888,1.56,-0.56,1.46,-0.69,0.69,1.01,2.25,2.16,2.12
897,1.37,-0.78,1.27,-0.91,0.91,1.02,2.27,2.18,2.15
906,1.17,-1.01,1.06,-1.13,1.13,1.03,2.30,2.19,2.17
915,0.94,-1.26,0.84,-1.35,1.35,1.04,2.29,2.19,2.20
924,0.70,-1.53,0.62,-1.57,1.57,1.04,2.26,2.19,2.23
933,0.45,-1.81,0.42,-1.77,1.77,1.05,2.21,2.19,2.25
943,0.19,-2.09,0.24,-1.95,1.95,1.06,2.13,2.19,2.28
952,-0.00,-2.31,0.10,-2.09,2.09,1.07,2.09,2.19,2.30
962,-0.17,-2.50,0.01,-2.20,2.20,1.07,2.02,2.21,2.33
971,-0.25,-2.61,-0.03,-2.26,2.26,1.08,2.00,2.23,2.36
981,-0.22,-2.61,-0.02,-2.27,2.27,1.08,2.05,2.26,2.38
991,-0.14,-2.55,0.05,-2.25,2.25,1.09,2.10,2.29,2.41
1001,0.02,-2.42,0.16,-2.18,2.18,1.09,2.19,2.34,2.44
1011,0.25,-2.22,0.31,-2.08,2.08,1.09,2.33,2.39,2.46
1021,0.49,-2.00,0.48,-1.96,1.96,1.10,2.45,2.44,2.49
1031,0.75,-1.77,0.67,-1.83,1.83,1.10,2.58,2.50,2.52
1041,0.98,-1.57,0.85,-1.71,1.71,1.10,2.68,2.56,2.54
1052,1.20,-1.38,1.02,-1.59,1.59,1.10,2.78,2.61,2.57
1062,1.36,-1.24,1.17,-1.49,1.49,1.10,2.84,2.65,2.60
1073,1.45,-1.18,1.28,-1.41,1.41,1.10,2.85,2.69,2.63
1084,1.49,-1.17,1.36,-1.35,1.35,1.10,2.84,2.71,2.66
1094,1.49,-1.20,1.40,-1.33,1.33,1.10,2.82,2.73,2.69
1105,1.44,-1.28,1.41,-1.33,1.33,1.10,2.77,2.75,2.72
1116,1.38,-1.37,1.40,-1.36,1.36,1.10,2.74,2.76,2.75
1128,1.31,-1.47,1.36,-1.41,1.41,1.10,2.72,2.78,2.78
1139,1.25,-1.57,1.32,-1.48,1.48,1.09,2.72,2.80,2.81
1150,1.19,-1.66,1.27,-1.55,1.55,1.09,2.74,2.82,2.84
1162,1.15,-1.73,1.21,-1.63,1.63,1.09,2.78,2.85,2.88
1173,1.12,-1.79,1.17,-1.71,1.71,1.09,2.82,2.88,2.91
1185,1.11,-1.83,1.13,-1.78,1.78,1.09,2.89,2.91,2.94
1197,1.11,-1.87,1.10,-1.85,1.85,1.09,2.95,2.95,2.97
1209,1.11,-1.90,1.08,-1.90,1.90,1.09,3.01,2.99,3.00
1221,1.11,-1.93,1.07,-1.95,1.95,1.09,3.06,3.02,3.03
1233,1.10,-1.97,1.07,-1.99,1.99,1.09,3.09,3.06,3.07
1246,1.10,-2.00,1.07,-2.02,2.02,1.09,3.12,3.10,3.10
1258,1.09,-2.05,1.08,-2.05,2.05,1.09,3.13,3.13,3.13
1271,1.10,-2.07,1.10,-2.06,2.06,1.10,3.16,3.16,3.16
1283,1.11,-2.09,1.12,-2.07,2.07,1.10,3.18,3.19,3.20
1296,1.13,-2.11,1.15,-2.07,2.07,1.10,3.19,3.22,3.24
1309,1.17,-2.11,1.19,-2.06,2.06,1.11,3.23,3.25,3.27
1322,1.22,-2.09,1.24,-2.04,2.04,1.12,3.26,3.28,3.31
1335,1.28,-2.07,1.29,-2.02,2.02,1.12,3.29,3.31,3.34
1349,1.36,-2.02,1.36,-1.99,1.99,1.13,3.34,3.35,3.38
1362,1.43,-1.99,1.44,-1.95,1.95,1.14,3.37,3.39,3.42
1376,1.52,-1.94,1.53,-1.90,1.90,1.15,3.42,3.43,3.46
1390,1.62,-1.88,1.62,-1.85,1.85,1.16,3.47,3.48,3.49
1404,1.71,-1.83,1.72,-1.80,1.80,1.17,3.51,3.52,3.53
1418,1.81,-1.76,1.82,-1.75,1.75,1.18,3.56,3.57,3.57
1432,1.92,-1.69,1.91,-1.70,1.70,1.19,3.62,3.61,3.61
1446,2.02,-1.63,2.00,-1.66,1.66,1.21,3.68,3.66,3.65
1461,2.11,-1.58,2.08,-1.62,1.62,1.22,3.73,3.70,3.69
1475,2.19,-1.54,2.15,-1.60,1.60,1.24,3.78,3.74,3.73
1490,2.25,-1.52,2.21,-1.58,1.58,1.26,3.82,3.78,3.77
1505,2.30,-1.51,2.26,-1.57,1.57,1.28,3.86,3.82,3.80
1520,2.33,-1.52,2.30,-1.57,1.57,1.29,3.89,3.86,3.85
1535,2.35,-1.54,2.33,-1.57,1.57,1.31,3.92,3.90,3.89
1550,2.36,-1.57,2.36,-1.58,1.58,1.33,3.94,3.94,3.93
1566,2.38,-1.60,2.38,-1.60,1.60,1.35,3.98,3.98,3.97
1582,2.39,-1.63,2.39,-1.62,1.62,1.38,4.01,4.01,4.02
1597,2.40,-1.67,2.41,-1.64,1.64,1.40,4.04,4.05,4.06
1613,2.41,-1.70,2.43,-1.66,1.66,1.42,4.06,4.09,4.11
1629,2.43,-1.73,2.46,-1.67,1.67,1.44,4.10,4.13,4.15
1646,2.47,-1.73,2.49,-1.68,1.68,1.47,4.15,4.17,4.20
1662,2.51,-1.74,2.53,-1.68,1.68,1.49,4.19,4.21,4.25
1679,2.57,-1.73,2.58,-1.68,1.68,1.51,4.25,4.26,4.29
1696,2.63,-1.71,2.64,-1.67,1.67,1.54,4.30,4.31,4.34
1713,2.69,-1.70,2.70,-1.66,1.66,1.56,4.34,4.36,4.39
1730,2.77,-1.67,2.77,-1.64,1.64,1.59,4.41,4.41,4.44
1747,2.85,-1.64,2.84,-1.62,1.62,1.61,4.47,4.46,4.48
1764,2.93,-1.61,2.92,-1.60,1.60,1.63,4.52,4.52,4.53
1782,3.02,-1.57,3.00,-1.57,1.57,1.65,4.59,4.57,4.58
1800,3.11,-1.53,3.07,-1.55,1.55,1.67,4.66,4.63,4.63
1818,3.19,-1.50,3.15,-1.53,1.53,1.69,4.72,4.68,4.69
1836,3.25,-1.50,3.23,-1.51,1.51,1.71,4.76,4.74,4.74
1854,3.31,-1.50,3.31,-1.49,1.49,1.73,4.80,4.80,4.80
1873,3.39,-1.48,3.39,-1.47,1.47,1.74,4.86,4.86,4.87
1892,3.47,-1.47,3.47,-1.45,1.45,1.76,4.92,4.92,4.93
1911,3.55,-1.46,3.55,-1.44,1.44,1.77,4.98,4.99,5.00
1930,3.64,-1.44,3.64,-1.41,1.41,1.78,5.05,5.06,5.07
1949,3.73,-1.42,3.74,-1.39,1.39,1.79,5.12,5.13,5.15
1969,3.83,-1.40,3.84,-1.37,1.37,1.79,5.19,5.21,5.23
1988,3.93,-1.39,3.95,-1.34,1.34,1.80,5.27,5.29,5.31
2008,4.05,-1.35,4.07,-1.31,1.31,1.80,5.36,5.38,5.40
2028,4.18,-1.31,4.19,-1.28,1.28,1.80,5.46,5.47,5.49
2048,4.31,-1.27,4.32,-1.25,1.25,1.80,5.56,5.57,5.58
2069,4.46,-1.22,4.45,-1.22,1.22,1.80,5.68,5.67,5.68
2090,4.60,-1.18,4.58,-1.20,1.20,1.79,5.79,5.78,5.78
2111,4.73,-1.16,4.72,-1.18,1.18,1.78,5.91,5.90,5.89
