frequency,raw,smoothed,error,error_smoothed,equalization,parametric_eq,fixed_band_eq,equalized_raw,equalized_smoothed,target
20.00,-15.78,-15.79,-15.95,-15.96,6.00,6.45,2.88,-9.78,-9.79,0.17
20.20,-15.69,-15.69,-15.89,-15.89,6.00,6.44,2.97,-9.69,-9.69,0.20
20.40,-15.60,-15.58,-15.83,-15.81,6.00,6.44,3.05,-9.60,-9.58,0.23
20.61,-15.44,-15.45,-15.69,-15.70,6.00,6.43,3.14,-9.44,-9.45,0.25
20.81,-15.29,-15.29,-15.57,-15.58,6.00,6.43,3.22,-9.29,-9.29,0.28
21.02,-15.13,-15.12,-15.44,-15.43,6.00,6.42,3.32,-9.13,-9.12,0.31
21.23,-14.96,-14.97,-15.28,-15.29,6.00,6.42,3.41,-8.96,-8.97,0.32
21.44,-14.80,-14.80,-15.13,-15.13,6.00,6.41,3.51,-8.80,-8.80,0.33
21.66,-14.65,-14.64,-14.99,-14.98,6.00,6.41,3.61,-8.65,-8.64,0.34
21.87,-14.48,-14.48,-14.82,-14.83,6.00,6.40,3.71,-8.48,-8.48,0.34
22.09,-14.33,-14.33,-14.68,-14.67,6.00,6.39,3.82,-8.33,-8.33,0.35
22.31,-14.18,-14.18,-14.52,-14.53,6.00,6.39,3.92,-8.18,-8.18,0.35
22.54,-14.04,-14.04,-14.39,-14.39,6.00,6.38,4.03,-8.04,-8.04,0.35
22.76,-13.91,-13.91,-14.25,-14.25,6.00,6.37,4.15,-7.91,-7.91,0.35
22.99,-13.76,-13.77,-14.10,-14.10,6.00,6.37,4.27,-7.76,-7.77,0.33
23.22,-13.63,-13.62,-13.96,-13.96,6.00,6.36,4.39,-7.63,-7.62,0.33
23.45,-13.47,-13.47,-13.80,-13.80,6.00,6.35,4.51,-7.47,-7.47,0.33
23.69,-13.32,-13.32,-13.65,-13.65,6.00,6.34,4.63,-7.32,-7.32,0.33
23.92,-13.16,-13.16,-13.49,-13.49,6.00,6.34,4.76,-7.16,-7.16,0.33
24.16,-13.00,-13.00,-13.34,-13.34,6.00,6.33,4.89,-7.00,-7.00,0.34
24.40,-12.84,-12.84,-13.18,-13.17,6.00,6.32,5.02,-6.84,-6.84,0.34
24.65,-12.68,-12.69,-13.01,-13.02,6.00,6.31,5.16,-6.68,-6.69,0.33
24.89,-12.54,-12.54,-12.87,-12.87,6.00,6.31,5.29,-6.54,-6.54,0.33
25.14,-12.41,-12.40,-12.74,-12.73,6.00,6.30,5.43,-6.41,-6.40,0.33
25.39,-12.25,-12.26,-12.57,-12.59,6.00,6.29,5.57,-6.25,-6.26,0.33
25.65,-12.14,-12.13,-12.47,-12.45,6.00,6.28,5.71,-6.14,-6.13,0.33
25.91,-11.99,-12.00,-12.31,-12.32,6.00,6.27,5.85,-5.99,-6.00,0.31
26.16,-11.88,-11.87,-12.19,-12.18,6.00,6.26,5.99,-5.88,-5.87,0.31
26.43,-11.73,-11.74,-12.04,-12.05,6.00,6.25,6.13,-5.73,-5.74,0.31
26.69,-11.60,-11.60,-11.91,-11.91,6.00,6.25,6.27,-5.60,-5.60,0.31
26.96,-11.46,-11.46,-11.77,-11.77,6.00,6.24,6.41,-5.46,-5.46,0.31
27.23,-11.31,-11.31,-11.62,-11.62,6.00,6.23,6.54,-5.31,-5.31,0.31
27.50,-11.16,-11.17,-11.47,-11.47,6.00,6.22,6.67,-5.16,-5.17,0.31
27.77,-11.02,-11.02,-11.31,-11.32,6.00,6.21,6.80,-5.02,-5.02,0.30
28.05,-10.88,-10.87,-11.17,-11.17,6.00,6.20,6.92,-4.88,-4.87,0.29
28.33,-10.73,-10.73,-11.01,-11.02,6.00,6.19,7.03,-4.73,-4.73,0.28
28.62,-10.58,-10.58,-10.86,-10.86,6.00,6.18,7.15,-4.58,-4.58,0.28
28.90,-10.44,-10.44,-10.72,-10.72,6.00,6.17,7.24,-4.44,-4.44,0.28
29.19,-10.30,-10.30,-10.57,-10.57,6.00,6.16,7.34,-4.30,-4.30,0.27
29.48,-10.16,-10.16,-10.43,-10.43,6.00,6.15,7.42,-4.16,-4.16,0.28
29.78,-10.00,-10.01,-10.27,-10.28,6.00,6.14,7.50,-4.00,-4.01,0.26
30.08,-9.89,-9.88,-10.15,-10.14,6.00,6.13,7.56,-3.89,-3.88,0.26
30.38,-9.74,-9.75,-9.99,-10.00,6.00,6.12,7.61,-3.74,-3.75,0.25
30.68,-9.63,-9.62,-9.88,-9.87,6.00,6.11,7.64,-3.63,-3.62,0.25
30.99,-9.47,-9.48,-9.71,-9.72,6.00,6.10,7.67,-3.47,-3.48,0.24
31.30,-9.36,-9.35,-9.60,-9.59,6.00,6.08,7.68,-3.36,-3.35,0.23
31.61,-9.21,-9.22,-9.44,-9.44,6.00,6.07,7.69,-3.21,-3.22,0.23
31.93,-9.10,-9.09,-9.32,-9.31,6.00,6.06,7.67,-3.10,-3.09,0.22
32.24,-8.95,-8.96,-9.16,-9.17,6.00,6.05,7.65,-2.95,-2.96,0.21
32.57,-8.84,-8.83,-9.05,-9.03,6.00,6.05,7.61,-2.84,-2.83,0.20
32.89,-8.70,-8.70,-8.90,-8.90,6.00,6.04,7.56,-2.70,-2.70,0.20
33.22,-8.57,-8.58,-8.76,-8.77,6.00,6.03,7.50,-2.57,-2.58,0.19
33.55,-8.46,-8.45,-8.64,-8.64,6.00,6.02,7.43,-2.46,-2.45,0.19
33.89,-8.33,-8.34,-8.50,-8.51,6.00,6.01,7.35,-2.33,-2.34,0.17
34.23,-8.22,-8.21,-8.39,-8.38,6.00,6.01,7.27,-2.22,-2.21,0.17
34.57,-8.09,-8.09,-8.25,-8.25,6.00,6.00,7.17,-2.09,-2.09,0.16
34.92,-7.96,-7.97,-8.11,-8.12,6.00,6.00,7.08,-1.96,-1.97,0.14
35.27,-7.85,-7.85,-7.99,-7.99,6.00,5.99,6.97,-1.85,-1.85,0.14
35.62,-7.74,-7.74,-7.87,-7.87,6.00,5.99,6.86,-1.74,-1.74,0.13
35.97,-7.63,-7.62,-7.74,-7.74,6.00,5.99,6.75,-1.63,-1.62,0.11
36.33,-7.50,-7.50,-7.61,-7.60,6.00,5.99,6.63,-1.50,-1.50,0.11
36.70,-7.37,-7.37,-7.47,-7.47,6.00,5.99,6.51,-1.37,-1.37,0.10
37.06,-7.26,-7.26,-7.34,-7.35,6.00,6.00,6.39,-1.26,-1.26,0.08
37.43,-7.15,-7.16,-7.23,-7.23,6.00,6.00,6.27,-1.15,-1.16,0.08
37.81,-7.07,-7.06,-7.13,-7.12,6.00,6.01,6.15,-1.07,-1.06,0.06
38.19,-6.96,-6.96,-7.01,-7.01,6.00,6.01,6.03,-0.96,-0.96,0.05
38.57,-6.85,-6.87,-6.89,-6.91,6.00,6.02,5.91,-0.85,-0.87,0.04
38.95,-6.79,-6.77,-6.82,-6.80,6.00,6.03,5.80,-0.79,-0.77,0.03
39.34,-6.68,-6.68,-6.69,-6.70,6.00,6.03,5.68,-0.68,-0.68,0.01
39.74,-6.59,-6.60,-6.59,-6.60,6.00,6.03,5.57,-0.59,-0.60,-0.00
40.14,-6.51,-6.51,-6.50,-6.50,6.01,6.02,5.46,-0.50,-0.50,-0.01
40.54,-6.43,-6.43,-6.41,-6.41,6.01,6.01,5.35,-0.42,-0.41,-0.02
40.94,-6.34,-6.35,-6.31,-6.32,6.02,5.99,5.24,-0.32,-0.33,-0.03
41.35,-6.27,-6.27,-6.23,-6.23,6.01,5.95,5.14,-0.26,-0.26,-0.04
41.76,-6.19,-6.19,-6.14,-6.14,5.99,5.91,5.04,-0.20,-0.20,-0.05
42.18,-6.12,-6.12,-6.06,-6.06,5.96,5.86,4.95,-0.16,-0.15,-0.06
42.60,-6.04,-6.04,-5.97,-5.97,5.92,5.81,4.85,-0.12,-0.12,-0.07
43.03,-5.97,-5.97,-5.89,-5.88,5.87,5.74,4.76,-0.10,-0.10,-0.08
43.46,-5.89,-5.89,-5.79,-5.79,5.80,5.67,4.68,-0.09,-0.09,-0.10
43.90,-5.83,-5.83,-5.71,-5.71,5.72,5.60,4.60,-0.11,-0.10,-0.12
44.33,-5.76,-5.76,-5.62,-5.62,5.64,5.52,4.52,-0.12,-0.12,-0.14
44.78,-5.70,-5.70,-5.54,-5.54,5.56,5.45,4.44,-0.14,-0.15,-0.16
45.23,-5.64,-5.64,-5.46,-5.46,5.47,5.37,4.37,-0.17,-0.17,-0.18
45.68,-5.58,-5.58,-5.38,-5.38,5.39,5.30,4.30,-0.19,-0.19,-0.20
46.13,-5.52,-5.52,-5.30,-5.31,5.31,5.22,4.23,-0.21,-0.21,-0.22
46.60,-5.46,-5.46,-5.23,-5.23,5.23,5.15,4.17,-0.23,-0.24,-0.23
47.06,-5.40,-5.40,-5.15,-5.15,5.14,5.08,4.11,-0.26,-0.26,-0.25
47.53,-5.33,-5.33,-5.06,-5.07,5.05,5.01,4.06,-0.28,-0.27,-0.27
48.01,-5.25,-5.25,-4.97,-4.97,4.96,4.94,4.00,-0.29,-0.29,-0.28
48.49,-5.18,-5.18,-4.87,-4.87,4.87,4.87,3.95,-0.31,-0.31,-0.31
48.97,-5.10,-5.10,-4.76,-4.77,4.78,4.80,3.90,-0.32,-0.33,-0.34
49.46,-5.04,-5.04,-4.67,-4.67,4.68,4.73,3.86,-0.36,-0.36,-0.37
49.96,-4.97,-4.97,-4.57,-4.58,4.58,4.66,3.82,-0.39,-0.39,-0.40
50.46,-4.91,-4.91,-4.50,-4.49,4.48,4.60,3.78,-0.43,-0.42,-0.41
50.96,-4.83,-4.83,-4.39,-4.39,4.39,4.53,3.74,-0.44,-0.44,-0.44
51.47,-4.76,-4.76,-4.29,-4.29,4.29,4.46,3.70,-0.47,-0.46,-0.47
51.99,-4.68,-4.69,-4.19,-4.20,4.20,4.39,3.67,-0.48,-0.48,-0.49
52.51,-4.62,-4.62,-4.11,-4.11,4.11,4.32,3.64,-0.51,-0.51,-0.51
53.03,-4.56,-4.56,-4.03,-4.02,4.02,4.26,3.61,-0.54,-0.53,-0.53
53.56,-4.49,-4.49,-3.93,-3.94,3.93,4.19,3.58,-0.56,-0.56,-0.56
54.10,-4.43,-4.43,-3.85,-3.85,3.85,4.12,3.55,-0.58,-0.58,-0.58
54.64,-4.37,-4.37,-3.76,-3.76,3.76,4.05,3.52,-0.61,-0.61,-0.61
55.18,-4.31,-4.31,-3.68,-3.68,3.68,3.98,3.49,-0.63,-0.63,-0.63
55.74,-4.25,-4.25,-3.59,-3.60,3.60,3.91,3.47,-0.66,-0.66,-0.66
56.29,-4.20,-4.20,-3.52,-3.52,3.51,3.83,3.44,-0.69,-0.68,-0.68
56.86,-4.14,-4.14,-3.43,-3.44,3.44,3.76,3.41,-0.70,-0.71,-0.71
57.42,-4.09,-4.09,-3.35,-3.36,3.36,3.69,3.39,-0.73,-0.73,-0.73
58.00,-4.03,-4.03,-3.28,-3.28,3.28,3.62,3.36,-0.75,-0.75,-0.75
58.58,-3.98,-3.98,-3.21,-3.21,3.21,3.54,3.33,-0.77,-0.77,-0.77
59.16,-3.93,-3.93,-3.14,-3.14,3.14,3.47,3.30,-0.79,-0.80,-0.79
59.76,-3.89,-3.89,-3.07,-3.07,3.06,3.39,3.27,-0.83,-0.83,-0.82
60.35,-3.84,-3.84,-2.99,-2.99,2.99,3.31,3.24,-0.85,-0.85,-0.85
60.96,-3.79,-3.79,-2.92,-2.92,2.91,3.24,3.20,-0.88,-0.88,-0.87
61.57,-3.74,-3.74,-2.83,-2.83,2.83,3.16,3.17,-0.91,-0.91,-0.91
62.18,-3.70,-3.69,-2.75,-2.75,2.75,3.08,3.13,-0.95,-0.94,-0.95
62.80,-3.65,-3.65,-2.68,-2.67,2.68,3.00,3.09,-0.97,-0.97,-0.97
63.43,-3.59,-3.60,-2.58,-2.60,2.60,2.92,3.05,-0.99,-1.00,-1.01
64.07,-3.56,-3.55,-2.53,-2.52,2.52,2.85,3.01,-1.04,-1.03,-1.03
64.71,-3.51,-3.51,-2.45,-2.45,2.45,2.77,2.97,-1.06,-1.06,-1.06
65.35,-3.47,-3.47,-2.38,-2.38,2.38,2.69,2.92,-1.09,-1.09,-1.09
66.01,-3.42,-3.43,-2.31,-2.31,2.31,2.61,2.87,-1.11,-1.11,-1.11
66.67,-3.40,-3.39,-2.26,-2.25,2.25,2.53,2.83,-1.15,-1.14,-1.14
67.33,-3.36,-3.36,-2.19,-2.19,2.19,2.45,2.77,-1.17,-1.17,-1.17
68.01,-3.33,-3.33,-2.13,-2.12,2.13,2.38,2.72,-1.20,-1.20,-1.20
68.69,-3.30,-3.30,-2.07,-2.06,2.07,2.30,2.67,-1.23,-1.23,-1.23
69.37,-3.26,-3.27,-1.99,-2.00,2.01,2.22,2.62,-1.25,-1.26,-1.27
70.07,-3.26,-3.25,-1.96,-1.95,1.95,2.15,2.56,-1.31,-1.30,-1.30
70.77,-3.21,-3.22,-1.89,-1.90,1.89,2.07,2.51,-1.32,-1.34,-1.32
71.48,-3.20,-3.19,-1.84,-1.83,1.82,2.00,2.45,-1.38,-1.37,-1.36
72.19,-3.16,-3.16,-1.77,-1.76,1.76,1.92,2.39,-1.40,-1.39,-1.39
72.91,-3.12,-3.13,-1.69,-1.70,1.70,1.85,2.33,-1.42,-1.43,-1.43
73.64,-3.10,-3.10,-1.63,-1.63,1.64,1.78,2.28,-1.46,-1.46,-1.47
74.38,-3.07,-3.07,-1.58,-1.57,1.58,1.71,2.22,-1.49,-1.49,-1.49
75.12,-3.06,-3.05,-1.53,-1.52,1.52,1.65,2.16,-1.54,-1.53,-1.53
75.87,-3.02,-3.03,-1.46,-1.47,1.47,1.58,2.11,-1.55,-1.56,-1.56
76.63,-3.02,-3.01,-1.43,-1.41,1.42,1.52,2.05,-1.60,-1.59,-1.59
77.40,-2.98,-2.99,-1.36,-1.36,1.37,1.46,1.99,-1.61,-1.62,-1.62
78.17,-2.98,-2.98,-1.32,-1.32,1.33,1.40,1.94,-1.65,-1.65,-1.66
78.95,-2.98,-2.98,-1.29,-1.29,1.29,1.34,1.88,-1.69,-1.69,-1.69
79.74,-2.98,-2.98,-1.26,-1.26,1.25,1.28,1.83,-1.73,-1.73,-1.72
80.54,-2.98,-2.98,-1.23,-1.23,1.22,1.23,1.77,-1.76,-1.76,-1.75
81.35,-2.98,-2.98,-1.19,-1.19,1.18,1.18,1.72,-1.80,-1.80,-1.79
82.16,-2.98,-2.98,-1.16,-1.16,1.15,1.13,1.67,-1.83,-1.83,-1.82
82.98,-2.98,-2.98,-1.13,-1.12,1.12,1.08,1.61,-1.86,-1.86,-1.85
83.81,-2.98,-2.98,-1.08,-1.09,1.09,1.03,1.56,-1.89,-1.89,-1.90
84.65,-2.98,-2.99,-1.04,-1.06,1.06,0.99,1.51,-1.92,-1.93,-1.94
85.50,-3.01,-3.00,-1.05,-1.03,1.04,0.95,1.47,-1.97,-1.96,-1.96
86.35,-3.02,-3.02,-1.02,-1.01,1.01,0.91,1.42,-2.01,-2.00,-2.00
87.22,-3.02,-3.03,-0.98,-0.99,0.99,0.87,1.37,-2.03,-2.04,-2.04
88.09,-3.07,-3.06,-0.99,-0.98,0.97,0.84,1.32,-2.10,-2.08,-2.08
88.97,-3.07,-3.08,-0.96,-0.96,0.96,0.80,1.28,-2.11,-2.12,-2.12
89.86,-3.12,-3.11,-0.96,-0.95,0.95,0.77,1.24,-2.17,-2.16,-2.16
90.76,-3.13,-3.13,-0.92,-0.93,0.93,0.74,1.19,-2.20,-2.20,-2.21
91.66,-3.16,-3.16,-0.92,-0.92,0.92,0.71,1.15,-2.24,-2.24,-2.24
92.58,-3.19,-3.19,-0.90,-0.90,0.91,0.69,1.11,-2.28,-2.28,-2.29
93.51,-3.23,-3.23,-0.90,-0.90,0.89,0.66,1.07,-2.34,-2.33,-2.33
94.44,-3.26,-3.26,-0.89,-0.89,0.88,0.64,1.03,-2.38,-2.38,-2.37
95.39,-3.30,-3.30,-0.88,-0.88,0.87,0.61,0.99,-2.43,-2.42,-2.42
96.34,-3.33,-3.33,-0.86,-0.86,0.86,0.59,0.95,-2.47,-2.47,-2.47
97.30,-3.35,-3.36,-0.83,-0.85,0.85,0.57,0.91,-2.50,-2.51,-2.52
98.28,-3.40,-3.40,-0.84,-0.83,0.84,0.55,0.88,-2.56,-2.56,-2.56
99.26,-3.44,-3.43,-0.83,-0.83,0.83,0.53,0.84,-2.61,-2.61,-2.61
100.25,-3.47,-3.47,-0.82,-0.82,0.81,0.51,0.81,-2.66,-2.66,-2.65
101.25,-3.50,-3.50,-0.80,-0.80,0.80,0.49,0.77,-2.70,-2.70,-2.70
102.27,-3.54,-3.54,-0.79,-0.79,0.79,0.48,0.74,-2.75,-2.75,-2.75
103.29,-3.58,-3.57,-0.78,-0.78,0.78,0.46,0.71,-2.80,-2.79,-2.80
104.32,-3.61,-3.61,-0.77,-0.77,0.77,0.44,0.67,-2.84,-2.84,-2.84
105.37,-3.63,-3.64,-0.75,-0.76,0.76,0.43,0.64,-2.87,-2.89,-2.88
106.42,-3.68,-3.67,-0.75,-0.74,0.74,0.41,0.61,-2.94,-2.93,-2.93
107.48,-3.71,-3.71,-0.73,-0.73,0.73,0.39,0.58,-2.98,-2.98,-2.98
108.56,-3.74,-3.74,-0.71,-0.71,0.71,0.38,0.55,-3.03,-3.03,-3.03
109.64,-3.77,-3.78,-0.69,-0.70,0.70,0.36,0.52,-3.07,-3.08,-3.08
110.74,-3.81,-3.81,-0.69,-0.68,0.68,0.35,0.50,-3.13,-3.13,-3.13
111.85,-3.85,-3.84,-0.68,-0.66,0.66,0.33,0.47,-3.19,-3.18,-3.17
112.97,-3.86,-3.88,-0.62,-0.65,0.64,0.32,0.44,-3.22,-3.23,-3.24
114.10,-3.91,-3.91,-0.63,-0.62,0.62,0.30,0.42,-3.29,-3.28,-3.28
115.24,-3.95,-3.94,-0.61,-0.60,0.60,0.29,0.39,-3.35,-3.34,-3.34
116.39,-3.96,-3.97,-0.57,-0.58,0.58,0.27,0.37,-3.38,-3.39,-3.39
117.55,-4.00,-4.00,-0.56,-0.55,0.55,0.26,0.34,-3.45,-3.44,-3.44
118.73,-4.02,-4.02,-0.52,-0.53,0.53,0.24,0.32,-3.49,-3.49,-3.50
119.92,-4.05,-4.05,-0.51,-0.50,0.51,0.23,0.30,-3.54,-3.54,-3.54
121.12,-4.08,-4.07,-0.49,-0.48,0.48,0.21,0.27,-3.60,-3.59,-3.59
122.33,-4.09,-4.10,-0.44,-0.45,0.46,0.20,0.25,-3.63,-3.64,-3.65
123.55,-4.12,-4.12,-0.43,-0.43,0.43,0.18,0.23,-3.69,-3.69,-3.69
124.79,-4.14,-4.15,-0.40,-0.41,0.40,0.16,0.21,-3.74,-3.75,-3.74
126.03,-4.18,-4.17,-0.39,-0.38,0.37,0.15,0.19,-3.81,-3.80,-3.79
127.29,-4.19,-4.19,-0.35,-0.35,0.34,0.13,0.17,-3.85,-3.85,-3.84
128.57,-4.20,-4.21,-0.30,-0.31,0.31,0.12,0.16,-3.89,-3.89,-3.90
129.85,-4.23,-4.23,-0.28,-0.28,0.29,0.10,0.14,-3.94,-3.94,-3.95
131.15,-4.24,-4.24,-0.24,-0.25,0.26,0.08,0.12,-3.98,-3.99,-4.00
132.46,-4.28,-4.27,-0.24,-0.23,0.23,0.07,0.10,-4.05,-4.04,-4.04
133.79,-4.28,-4.29,-0.20,-0.21,0.21,0.05,0.09,-4.07,-4.09,-4.08
135.12,-4.33,-4.32,-0.19,-0.19,0.18,0.04,0.07,-4.15,-4.14,-4.14
136.48,-4.33,-4.34,-0.16,-0.16,0.16,0.02,0.06,-4.17,-4.18,-4.17
137.84,-4.37,-4.36,-0.15,-0.14,0.14,0.00,0.04,-4.23,-4.22,-4.22
139.22,-4.37,-4.38,-0.10,-0.12,0.12,-0.01,0.03,-4.25,-4.26,-4.27
140.61,-4.41,-4.40,-0.10,-0.09,0.10,-0.03,0.01,-4.31,-4.30,-4.31
142.02,-4.42,-4.42,-0.09,-0.08,0.08,-0.05,-0.00,-4.34,-4.34,-4.33
143.44,-4.42,-4.44,-0.04,-0.06,0.06,-0.06,-0.02,-4.36,-4.38,-4.38
144.87,-4.47,-4.45,-0.05,-0.04,0.04,-0.08,-0.03,-4.43,-4.41,-4.42
146.32,-4.47,-4.47,-0.01,-0.02,0.02,-0.10,-0.05,-4.45,-4.45,-4.46
147.78,-4.47,-4.49,0.01,0.00,-0.00,-0.11,-0.06,-4.47,-4.49,-4.48
149.26,-4.51,-4.50,0.01,0.03,-0.02,-0.13,-0.07,-4.53,-4.52,-4.52
150.75,-4.51,-4.52,0.06,0.04,-0.05,-0.15,-0.09,-4.56,-4.57,-4.57
152.26,-4.54,-4.54,0.07,0.07,-0.07,-0.17,-0.10,-4.61,-4.61,-4.61
153.78,-4.56,-4.55,0.08,0.10,-0.09,-0.18,-0.12,-4.65,-4.64,-4.64
155.32,-4.56,-4.57,0.13,0.11,-0.12,-0.20,-0.13,-4.68,-4.69,-4.69
156.88,-4.57,-4.58,0.15,0.14,-0.14,-0.22,-0.14,-4.71,-4.73,-4.72
158.44,-4.61,-4.59,0.15,0.17,-0.17,-0.23,-0.16,-4.78,-4.76,-4.76
160.03,-4.61,-4.61,0.19,0.19,-0.19,-0.25,-0.17,-4.80,-4.80,-4.81
161.63,-4.61,-4.63,0.24,0.22,-0.22,-0.27,-0.19,-4.83,-4.85,-4.85
163.24,-4.65,-4.63,0.24,0.25,-0.24,-0.29,-0.20,-4.89,-4.88,-4.89
164.88,-4.65,-4.65,0.27,0.27,-0.27,-0.31,-0.22,-4.92,-4.92,-4.92
166.53,-4.65,-4.67,0.31,0.29,-0.29,-0.32,-0.23,-4.94,-4.96,-4.96
168.19,-4.69,-4.68,0.30,0.31,-0.32,-0.34,-0.25,-5.01,-5.00,-4.99
169.87,-4.70,-4.69,0.33,0.34,-0.34,-0.36,-0.27,-5.04,-5.03,-5.03
171.57,-4.70,-4.70,0.37,0.37,-0.37,-0.38,-0.28,-5.07,-5.07,-5.07
173.29,-4.70,-4.71,0.41,0.40,-0.39,-0.40,-0.30,-5.09,-5.10,-5.11
175.02,-4.72,-4.72,0.42,0.42,-0.42,-0.42,-0.32,-5.14,-5.14,-5.14
176.77,-4.75,-4.74,0.44,0.45,-0.45,-0.44,-0.33,-5.20,-5.19,-5.19
178.54,-4.75,-4.75,0.48,0.48,-0.48,-0.46,-0.35,-5.23,-5.23,-5.23
180.32,-4.75,-4.75,0.51,0.51,-0.51,-0.48,-0.37,-5.26,-5.26,-5.26
182.13,-4.75,-4.76,0.55,0.54,-0.54,-0.50,-0.39,-5.29,-5.30,-5.30
183.95,-4.77,-4.77,0.57,0.56,-0.57,-0.52,-0.41,-5.34,-5.34,-5.34
185.79,-4.79,-4.78,0.58,0.59,-0.59,-0.54,-0.42,-5.38,-5.38,-5.37
187.65,-4.79,-4.79,0.62,0.62,-0.62,-0.56,-0.44,-5.41,-5.41,-5.41
189.52,-4.79,-4.79,0.65,0.65,-0.64,-0.58,-0.46,-5.43,-5.43,-5.44
191.42,-4.79,-4.80,0.68,0.67,-0.66,-0.60,-0.48,-5.45,-5.46,-5.47
193.33,-4.80,-4.81,0.70,0.69,-0.69,-0.62,-0.50,-5.49,-5.50,-5.50
195.27,-4.84,-4.83,0.69,0.70,-0.71,-0.64,-0.52,-5.55,-5.53,-5.53
197.22,-4.84,-4.84,0.71,0.72,-0.73,-0.66,-0.54,-5.57,-5.57,-5.55
199.19,-4.84,-4.84,0.75,0.74,-0.75,-0.68,-0.56,-5.59,-5.59,-5.59
201.18,-4.84,-4.84,0.77,0.77,-0.77,-0.70,-0.58,-5.61,-5.61,-5.61
203.19,-4.84,-4.84,0.78,0.79,-0.78,-0.71,-0.60,-5.62,-5.62,-5.62
205.23,-4.84,-4.84,0.81,0.80,-0.80,-0.73,-0.62,-5.64,-5.64,-5.65
207.28,-4.84,-4.84,0.81,0.82,-0.81,-0.75,-0.64,-5.65,-5.65,-5.65
209.35,-4.84,-4.85,0.84,0.83,-0.82,-0.76,-0.66,-5.66,-5.67,-5.68
211.44,-4.86,-4.86,0.84,0.83,-0.83,-0.77,-0.68,-5.69,-5.69,-5.70
213.56,-4.89,-4.88,0.82,0.83,-0.83,-0.78,-0.70,-5.72,-5.71,-5.71
215.69,-4.89,-4.89,0.82,0.82,-0.84,-0.79,-0.72,-5.73,-5.73,-5.71
217.85,-4.89,-4.89,0.83,0.83,-0.84,-0.79,-0.74,-5.73,-5.73,-5.72
220.03,-4.89,-4.89,0.84,0.84,-0.84,-0.79,-0.75,-5.73,-5.73,-5.73
222.23,-4.89,-4.89,0.86,0.85,-0.84,-0.79,-0.77,-5.73,-5.73,-5.75
224.45,-4.89,-4.89,0.85,0.85,-0.85,-0.79,-0.79,-5.74,-5.74,-5.74
226.70,-4.89,-4.89,0.85,0.85,-0.85,-0.79,-0.80,-5.74,-5.74,-5.74
228.96,-4.89,-4.89,0.85,0.85,-0.85,-0.78,-0.82,-5.74,-5.74,-5.74
231.25,-4.89,-4.89,0.84,0.84,-0.85,-0.77,-0.83,-5.74,-5.74,-5.73
233.57,-4.89,-4.89,0.84,0.84,-0.84,-0.76,-0.84,-5.73,-5.73,-5.73
235.90,-4.89,-4.89,0.84,0.84,-0.84,-0.75,-0.85,-5.73,-5.73,-5.73
238.26,-4.89,-4.89,0.84,0.84,-0.83,-0.74,-0.86,-5.72,-5.72,-5.73
240.64,-4.89,-4.89,0.83,0.83,-0.83,-0.73,-0.86,-5.72,-5.72,-5.72
243.05,-4.89,-4.89,0.82,0.82,-0.82,-0.72,-0.87,-5.71,-5.71,-5.71
245.48,-4.89,-4.89,0.81,0.81,-0.81,-0.70,-0.87,-5.70,-5.70,-5.70
247.93,-4.89,-4.89,0.79,0.80,-0.80,-0.69,-0.87,-5.69,-5.69,-5.68
250.41,-4.89,-4.89,0.79,0.78,-0.78,-0.68,-0.87,-5.67,-5.67,-5.68
252.92,-4.89,-4.89,0.77,0.77,-0.77,-0.66,-0.87,-5.66,-5.66,-5.66
255.45,-4.89,-4.89,0.75,0.75,-0.75,-0.65,-0.87,-5.64,-5.64,-5.64
258.00,-4.89,-4.89,0.73,0.73,-0.74,-0.64,-0.86,-5.63,-5.63,-5.62
260.58,-4.89,-4.89,0.72,0.72,-0.72,-0.62,-0.85,-5.61,-5.61,-5.61
263.19,-4.89,-4.89,0.70,0.70,-0.70,-0.61,-0.85,-5.59,-5.59,-5.59
265.82,-4.89,-4.89,0.68,0.68,-0.68,-0.60,-0.83,-5.57,-5.57,-5.57
268.48,-4.89,-4.89,0.66,0.66,-0.66,-0.58,-0.82,-5.55,-5.55,-5.55
271.16,-4.89,-4.89,0.64,0.64,-0.64,-0.57,-0.81,-5.53,-5.53,-5.53
273.87,-4.89,-4.89,0.62,0.62,-0.62,-0.56,-0.80,-5.51,-5.51,-5.51
276.61,-4.89,-4.89,0.60,0.60,-0.60,-0.55,-0.78,-5.49,-5.49,-5.49
279.38,-4.89,-4.89,0.58,0.58,-0.58,-0.54,-0.76,-5.47,-5.47,-5.47
282.17,-4.89,-4.89,0.57,0.56,-0.56,-0.53,-0.74,-5.45,-5.45,-5.46
284.99,-4.89,-4.89,0.54,0.54,-0.54,-0.52,-0.73,-5.43,-5.43,-5.43
287.84,-4.89,-4.89,0.53,0.52,-0.52,-0.52,-0.71,-5.41,-5.41,-5.42
290.72,-4.89,-4.89,0.50,0.50,-0.50,-0.51,-0.68,-5.39,-5.39,-5.39
293.63,-4.89,-4.89,0.49,0.48,-0.48,-0.50,-0.66,-5.37,-5.37,-5.38
296.57,-4.89,-4.89,0.46,0.46,-0.46,-0.49,-0.64,-5.35,-5.35,-5.35
299.53,-4.89,-4.89,0.44,0.44,-0.44,-0.49,-0.62,-5.33,-5.33,-5.33
302.53,-4.89,-4.89,0.43,0.42,-0.42,-0.48,-0.60,-5.31,-5.32,-5.32
305.55,-4.89,-4.89,0.39,0.40,-0.41,-0.48,-0.57,-5.30,-5.29,-5.28
308.61,-4.89,-4.87,0.38,0.39,-0.39,-0.47,-0.55,-5.28,-5.26,-5.27
311.69,-4.84,-4.86,0.40,0.38,-0.38,-0.47,-0.53,-5.22,-5.23,-5.24
314.81,-4.84,-4.85,0.36,0.36,-0.36,-0.46,-0.50,-5.20,-5.21,-5.20
317.96,-4.84,-4.84,0.35,0.35,-0.35,-0.46,-0.48,-5.19,-5.19,-5.19
321.14,-4.84,-4.83,0.33,0.34,-0.34,-0.46,-0.45,-5.18,-5.17,-5.17
324.35,-4.81,-4.81,0.34,0.34,-0.33,-0.45,-0.43,-5.14,-5.15,-5.15
327.59,-4.79,-4.80,0.33,0.33,-0.32,-0.45,-0.40,-5.11,-5.12,-5.12
330.87,-4.79,-4.79,0.32,0.32,-0.31,-0.45,-0.38,-5.10,-5.10,-5.11
334.18,-4.79,-4.79,0.30,0.30,-0.30,-0.44,-0.36,-5.09,-5.09,-5.09
337.52,-4.79,-4.78,0.28,0.29,-0.29,-0.44,-0.33,-5.08,-5.07,-5.07
340.90,-4.75,-4.76,0.30,0.28,-0.29,-0.44,-0.31,-5.04,-5.05,-5.05
344.30,-4.75,-4.76,0.28,0.27,-0.28,-0.44,-0.28,-5.03,-5.03,-5.03
347.75,-4.75,-4.74,0.26,0.27,-0.27,-0.44,-0.26,-5.02,-5.01,-5.01
351.23,-4.74,-4.73,0.25,0.26,-0.26,-0.44,-0.23,-5.00,-4.99,-4.99
354.74,-4.70,-4.71,0.27,0.26,-0.26,-0.44,-0.21,-4.96,-4.97,-4.97
358.28,-4.70,-4.71,0.26,0.25,-0.25,-0.44,-0.19,-4.95,-4.96,-4.96
361.87,-4.70,-4.69,0.24,0.25,-0.25,-0.44,-0.16,-4.95,-4.94,-4.94
365.49,-4.70,-4.68,0.22,0.24,-0.24,-0.44,-0.14,-4.94,-4.93,-4.92
369.14,-4.65,-4.67,0.26,0.24,-0.24,-0.44,-0.12,-4.89,-4.91,-4.91
372.83,-4.65,-4.66,0.24,0.24,-0.24,-0.44,-0.09,-4.89,-4.89,-4.89
376.56,-4.65,-4.64,0.24,0.24,-0.23,-0.44,-0.07,-4.88,-4.88,-4.89
380.33,-4.65,-4.64,0.21,0.22,-0.23,-0.44,-0.05,-4.88,-4.87,-4.86
384.13,-4.62,-4.63,0.23,0.22,-0.22,-0.45,-0.03,-4.84,-4.85,-4.85
387.97,-4.61,-4.61,0.23,0.22,-0.22,-0.45,-0.00,-4.83,-4.84,-4.84
391.85,-4.61,-4.61,0.22,0.22,-0.22,-0.45,0.02,-4.83,-4.83,-4.83
395.77,-4.61,-4.61,0.20,0.21,-0.21,-0.45,0.04,-4.82,-4.82,-4.81
399.73,-4.61,-4.60,0.20,0.21,-0.21,-0.45,0.06,-4.82,-4.81,-4.81
403.72,-4.58,-4.58,0.22,0.21,-0.21,-0.46,0.08,-4.79,-4.79,-4.80
407.76,-4.56,-4.57,0.23,0.22,-0.21,-0.46,0.10,-4.77,-4.78,-4.79
411.84,-4.56,-4.56,0.21,0.21,-0.21,-0.47,0.12,-4.77,-4.77,-4.77
415.96,-4.56,-4.56,0.20,0.21,-0.21,-0.47,0.13,-4.77,-4.77,-4.76
420.12,-4.56,-4.54,0.19,0.21,-0.21,-0.47,0.15,-4.77,-4.76,-4.75
424.32,-4.51,-4.53,0.23,0.21,-0.22,-0.48,0.17,-4.73,-4.75,-4.74
428.56,-4.51,-4.51,0.22,0.22,-0.22,-0.48,0.18,-4.73,-4.73,-4.73
