frequency,raw,error,smoothed,error_smoothed,equalization,parametric_eq,fixed_band_eq,equalized_raw,equalized_smoothed,target
20.00,5.06,-2.47,5.06,-2.47,2.47,1.63,0.27,7.53,7.53,7.53
20.20,5.11,-2.41,5.10,-2.41,2.41,1.60,0.28,7.52,7.52,7.52
20.40,5.15,-2.36,5.15,-2.35,2.35,1.58,0.29,7.50,7.50,7.50
20.61,5.20,-2.30,5.20,-2.29,2.29,1.55,0.30,7.49,7.49,7.49
20.81,5.25,-2.23,5.24,-2.23,2.24,1.52,0.31,7.48,7.48,7.47
21.02,5.29,-2.18,5.29,-2.18,2.18,1.49,0.33,7.46,7.47,7.46
21.23,5.34,-2.12,5.34,-2.12,2.12,1.46,0.34,7.46,7.46,7.45
21.44,5.39,-2.08,5.39,-2.07,2.06,1.43,0.35,7.45,7.45,7.46
21.66,5.44,-2.01,5.44,-2.01,2.01,1.40,0.36,7.44,7.44,7.44
21.87,5.49,-1.95,5.49,-1.95,1.95,1.37,0.37,7.44,7.44,7.44
22.09,5.54,-1.88,5.54,-1.89,1.89,1.34,0.39,7.43,7.43,7.42
22.31,5.59,-1.83,5.58,-1.84,1.84,1.31,0.40,7.43,7.42,7.42
22.54,5.63,-1.78,5.63,-1.78,1.78,1.27,0.42,7.41,7.41,7.41
22.76,5.68,-1.73,5.68,-1.73,1.73,1.24,0.43,7.41,7.41,7.41
22.99,5.73,-1.67,5.72,-1.68,1.68,1.21,0.45,7.40,7.40,7.40
23.22,5.77,-1.62,5.77,-1.63,1.62,1.18,0.46,7.39,7.40,7.39
23.45,5.82,-1.58,5.82,-1.57,1.58,1.15,0.48,7.39,7.39,7.40
23.69,5.87,-1.52,5.86,-1.52,1.53,1.11,0.49,7.39,7.39,7.39
23.92,5.91,-1.47,5.91,-1.47,1.48,1.08,0.51,7.38,7.39,7.38
24.16,5.96,-1.43,5.96,-1.43,1.43,1.05,0.52,7.38,7.38,7.39
24.40,6.01,-1.38,6.00,-1.38,1.38,1.02,0.54,7.39,7.38,7.39
24.65,6.05,-1.34,6.05,-1.34,1.33,0.98,0.56,7.38,7.38,7.39
24.89,6.10,-1.29,6.10,-1.28,1.28,0.95,0.57,7.38,7.38,7.38
25.14,6.15,-1.23,6.15,-1.23,1.23,0.91,0.59,7.38,7.38,7.37
25.39,6.20,-1.18,6.19,-1.18,1.18,0.88,0.60,7.38,7.38,7.37
25.65,6.24,-1.14,6.24,-1.13,1.14,0.85,0.62,7.37,7.38,7.37
25.91,6.29,-1.09,6.29,-1.09,1.09,0.81,0.64,7.38,7.38,7.37
26.16,6.34,-1.04,6.33,-1.04,1.04,0.78,0.65,7.38,7.38,7.38
26.43,6.38,-1.00,6.38,-1.00,1.00,0.74,0.67,7.37,7.38,7.38
26.69,6.43,-0.95,6.42,-0.96,0.95,0.71,0.68,7.38,7.37,7.38
26.96,6.47,-0.91,6.47,-0.91,0.91,0.67,0.69,7.37,7.38,7.38
27.23,6.52,-0.86,6.52,-0.86,0.86,0.64,0.70,7.38,7.38,7.38
27.50,6.57,-0.81,6.56,-0.81,0.82,0.60,0.71,7.39,7.38,7.38
27.77,6.61,-0.78,6.61,-0.77,0.78,0.56,0.72,7.38,7.39,7.38
28.05,6.66,-0.73,6.65,-0.73,0.73,0.53,0.73,7.39,7.39,7.38
28.33,6.70,-0.69,6.70,-0.69,0.69,0.49,0.74,7.39,7.39,7.39
28.62,6.74,-0.65,6.74,-0.65,0.65,0.46,0.74,7.39,7.39,7.39
28.90,6.79,-0.61,6.78,-0.61,0.61,0.42,0.75,7.40,7.39,7.40
29.19,6.83,-0.57,6.83,-0.57,0.57,0.38,0.75,7.39,7.39,7.40
29.48,6.87,-0.53,6.87,-0.53,0.52,0.34,0.75,7.39,7.40,7.40
29.78,6.92,-0.48,6.91,-0.48,0.48,0.31,0.74,7.40,7.39,7.39
30.08,6.96,-0.44,6.96,-0.43,0.44,0.27,0.74,7.39,7.39,7.39
30.38,7.00,-0.39,7.00,-0.39,0.39,0.23,0.73,7.39,7.39,7.38
30.68,7.04,-0.34,7.04,-0.34,0.35,0.19,0.72,7.38,7.38,7.38
30.99,7.08,-0.30,7.08,-0.30,0.30,0.16,0.71,7.38,7.38,7.38
31.30,7.12,-0.26,7.12,-0.26,0.25,0.12,0.69,7.37,7.37,7.38
31.61,7.16,-0.22,7.16,-0.21,0.21,0.08,0.67,7.36,7.36,7.37
31.93,7.20,-0.16,7.20,-0.16,0.16,0.04,0.65,7.36,7.36,7.35
32.24,7.24,-0.12,7.24,-0.12,0.12,0.00,0.63,7.36,7.36,7.36
32.57,7.28,-0.07,7.28,-0.07,0.08,-0.03,0.60,7.35,7.36,7.35
32.89,7.32,-0.03,7.31,-0.03,0.04,-0.07,0.57,7.35,7.35,7.35
33.22,7.35,0.00,7.35,0.01,-0.01,-0.11,0.54,7.34,7.34,7.34
33.55,7.38,0.04,7.38,0.04,-0.05,-0.15,0.51,7.33,7.33,7.34
33.89,7.41,0.08,7.41,0.08,-0.08,-0.19,0.47,7.32,7.32,7.33
34.23,7.44,0.12,7.44,0.12,-0.12,-0.23,0.44,7.32,7.32,7.32
34.57,7.48,0.16,7.47,0.16,-0.16,-0.27,0.40,7.32,7.32,7.31
34.92,7.51,0.21,7.51,0.20,-0.19,-0.31,0.35,7.31,7.31,7.30
35.27,7.54,0.22,7.54,0.23,-0.23,-0.35,0.31,7.30,7.30,7.32
35.62,7.57,0.27,7.57,0.27,-0.27,-0.39,0.26,7.29,7.29,7.29
35.97,7.60,0.31,7.60,0.31,-0.32,-0.43,0.22,7.28,7.28,7.29
36.33,7.63,0.35,7.63,0.36,-0.36,-0.47,0.17,7.27,7.27,7.28
36.70,7.66,0.40,7.66,0.40,-0.40,-0.51,0.12,7.25,7.26,7.25
37.06,7.70,0.46,7.69,0.45,-0.45,-0.55,0.07,7.25,7.24,7.24
37.43,7.73,0.50,7.73,0.50,-0.50,-0.59,0.01,7.23,7.23,7.23
37.81,7.76,0.55,7.76,0.55,-0.55,-0.63,-0.04,7.21,7.21,7.21
38.19,7.79,0.60,7.79,0.60,-0.60,-0.67,-0.10,7.19,7.19,7.19
38.57,7.82,0.64,7.82,0.64,-0.64,-0.71,-0.15,7.17,7.17,7.17
38.95,7.85,0.69,7.84,0.69,-0.69,-0.75,-0.21,7.16,7.15,7.16
39.34,7.87,0.73,7.87,0.74,-0.74,-0.79,-0.27,7.13,7.13,7.13
39.74,7.90,0.79,7.90,0.78,-0.78,-0.84,-0.32,7.11,7.12,7.11
40.14,7.93,0.83,7.92,0.83,-0.83,-0.88,-0.38,7.10,7.10,7.09
40.54,7.95,0.87,7.95,0.87,-0.87,-0.92,-0.44,7.08,7.08,7.08
40.94,7.97,0.91,7.97,0.91,-0.91,-0.96,-0.51,7.06,7.06,7.05
41.35,7.99,0.95,7.99,0.95,-0.95,-1.00,-0.57,7.04,7.03,7.04
41.76,8.01,1.00,8.01,0.99,-0.99,-1.04,-0.63,7.02,7.02,7.01
42.18,8.03,1.02,8.03,1.03,-1.03,-1.09,-0.69,7.00,7.00,7.01
42.60,8.06,1.08,8.05,1.07,-1.07,-1.13,-0.76,6.98,6.98,6.98
43.03,8.08,1.11,8.08,1.11,-1.11,-1.17,-0.82,6.96,6.96,6.96
43.46,8.10,1.16,8.10,1.16,-1.16,-1.21,-0.89,6.94,6.94,6.94
43.90,8.12,1.20,8.12,1.20,-1.20,-1.26,-0.95,6.91,6.92,6.92
44.33,8.15,1.26,8.14,1.25,-1.25,-1.30,-1.02,6.90,6.89,6.89
44.78,8.17,1.29,8.17,1.29,-1.30,-1.34,-1.09,6.87,6.87,6.87
45.23,8.20,1.34,8.20,1.35,-1.35,-1.38,-1.15,6.85,6.85,6.86
45.68,8.23,1.41,8.23,1.40,-1.40,-1.43,-1.22,6.82,6.82,6.82
46.13,8.26,1.47,8.25,1.46,-1.46,-1.47,-1.29,6.80,6.80,6.79
46.60,8.28,1.52,8.28,1.52,-1.51,-1.52,-1.36,6.77,6.77,6.76
47.06,8.30,1.57,8.30,1.57,-1.57,-1.56,-1.43,6.73,6.73,6.73
47.53,8.32,1.62,8.32,1.62,-1.63,-1.60,-1.50,6.69,6.69,6.70
48.01,8.34,1.68,8.34,1.68,-1.68,-1.65,-1.57,6.65,6.65,6.65
48.49,8.36,1.73,8.36,1.74,-1.74,-1.69,-1.65,6.61,6.62,6.62
48.97,8.39,1.81,8.38,1.80,-1.80,-1.74,-1.72,6.59,6.58,6.58
49.46,8.41,1.86,8.41,1.86,-1.86,-1.78,-1.79,6.55,6.55,6.55
49.96,8.43,1.93,8.43,1.92,-1.91,-1.83,-1.87,6.51,6.51,6.50
50.46,8.45,1.97,8.45,1.97,-1.97,-1.88,-1.94,6.48,6.48,6.48
50.96,8.47,2.02,8.46,2.02,-2.02,-1.92,-2.01,6.45,6.44,6.45
51.47,8.48,2.06,8.48,2.07,-2.07,-1.97,-2.09,6.41,6.41,6.41
51.99,8.50,2.13,8.49,2.12,-2.12,-2.02,-2.16,6.38,6.38,6.37
52.51,8.51,2.16,8.51,2.16,-2.16,-2.06,-2.23,6.35,6.35,6.35
53.03,8.52,2.20,8.52,2.20,-2.20,-2.11,-2.30,6.32,6.32,6.32
53.56,8.53,2.24,8.52,2.24,-2.24,-2.16,-2.38,6.29,6.28,6.29
54.10,8.53,2.28,8.53,2.28,-2.28,-2.21,-2.45,6.24,6.25,6.24
54.64,8.54,2.32,8.53,2.32,-2.32,-2.26,-2.52,6.21,6.21,6.22
55.18,8.54,2.36,8.54,2.36,-2.36,-2.31,-2.58,6.17,6.18,6.18
55.74,8.55,2.40,8.55,2.40,-2.40,-2.36,-2.65,6.14,6.15,6.14
56.29,8.57,2.44,8.56,2.44,-2.44,-2.41,-2.72,6.13,6.12,6.13
56.86,8.58,2.48,8.58,2.48,-2.48,-2.46,-2.78,6.10,6.10,6.10
57.42,8.59,2.53,8.59,2.52,-2.51,-2.51,-2.84,6.07,6.08,6.06
58.00,8.60,2.57,8.60,2.56,-2.55,-2.56,-2.90,6.05,6.05,6.03
58.58,8.61,2.59,8.60,2.59,-2.59,-2.61,-2.95,6.02,6.02,6.01
59.16,8.61,2.62,8.61,2.62,-2.63,-2.67,-3.01,5.98,5.98,5.99
59.76,8.62,2.66,8.62,2.66,-2.67,-2.72,-3.06,5.94,5.94,5.96
60.35,8.63,2.71,8.63,2.71,-2.72,-2.77,-3.10,5.91,5.91,5.92
60.96,8.64,2.76,8.64,2.76,-2.77,-2.82,-3.15,5.86,5.87,5.88
61.57,8.66,2.83,8.66,2.83,-2.83,-2.88,-3.19,5.83,5.83,5.82
62.18,8.68,2.90,8.68,2.90,-2.89,-2.93,-3.22,5.79,5.79,5.78
62.80,8.70,2.96,8.70,2.96,-2.95,-2.98,-3.25,5.74,5.74,5.74
63.43,8.72,3.03,8.72,3.02,-3.02,-3.03,-3.28,5.70,5.70,5.69
64.07,8.74,3.08,8.74,3.09,-3.08,-3.08,-3.31,5.65,5.66,5.66
64.71,8.77,3.15,8.76,3.15,-3.14,-3.13,-3.33,5.62,5.62,5.62
65.35,8.79,3.21,8.79,3.20,-3.21,-3.18,-3.35,5.58,5.58,5.58
66.01,8.81,3.26,8.81,3.26,-3.26,-3.23,-3.37,5.54,5.54,5.54
66.67,8.83,3.31,8.83,3.32,-3.32,-3.28,-3.39,5.51,5.51,5.51
67.33,8.85,3.38,8.85,3.38,-3.38,-3.32,-3.40,5.47,5.47,5.46
68.01,8.87,3.43,8.86,3.43,-3.43,-3.37,-3.41,5.44,5.43,5.43
68.69,8.88,3.48,8.88,3.49,-3.49,-3.41,-3.42,5.39,5.39,5.39
69.37,8.90,3.54,8.90,3.54,-3.54,-3.46,-3.42,5.36,5.36,5.36
70.07,8.91,3.59,8.91,3.59,-3.59,-3.50,-3.43,5.32,5.31,5.32
70.77,8.92,3.64,8.92,3.64,-3.64,-3.54,-3.43,5.28,5.28,5.27
71.48,8.92,3.68,8.92,3.69,-3.69,-3.58,-3.44,5.23,5.24,5.24
72.19,8.93,3.73,8.93,3.73,-3.73,-3.61,-3.44,5.20,5.20,5.19
72.91,8.93,3.78,8.92,3.77,-3.77,-3.65,-3.44,5.16,5.16,5.15
73.64,8.92,3.81,8.92,3.81,-3.80,-3.69,-3.45,5.12,5.12,5.11
74.38,8.91,3.84,8.91,3.83,-3.83,-3.72,-3.45,5.07,5.07,5.07
75.12,8.90,3.85,8.90,3.86,-3.87,-3.75,-3.46,5.03,5.03,5.04
75.87,8.90,3.88,8.90,3.89,-3.89,-3.79,-3.46,5.00,5.00,5.01
76.63,8.90,3.92,8.90,3.92,-3.92,-3.82,-3.47,4.97,4.97,4.97
77.40,8.90,3.95,8.90,3.95,-3.95,-3.85,-3.48,4.95,4.95,4.95
78.17,8.90,3.99,8.90,3.98,-3.98,-3.88,-3.49,4.92,4.92,4.91
78.95,8.90,4.00,8.90,4.01,-4.01,-3.92,-3.50,4.89,4.89,4.90
79.74,8.90,4.04,8.90,4.04,-4.03,-3.95,-3.51,4.86,4.86,4.86
80.54,8.90,4.06,8.90,4.06,-4.06,-3.98,-3.53,4.83,4.83,4.84
81.35,8.90,4.10,8.90,4.09,-4.09,-4.01,-3.54,4.80,4.80,4.80
82.16,8.90,4.11,8.90,4.12,-4.12,-4.05,-3.56,4.78,4.78,4.78
82.98,8.90,4.15,8.90,4.15,-4.15,-4.08,-3.59,4.75,4.75,4.75
83.81,8.90,4.18,8.90,4.18,-4.18,-4.11,-3.61,4.72,4.72,4.72
84.65,8.90,4.22,8.90,4.21,-4.21,-4.15,-3.64,4.68,4.68,4.68
85.50,8.90,4.25,8.90,4.25,-4.24,-4.18,-3.67,4.65,4.65,4.65
86.35,8.90,4.28,8.90,4.28,-4.28,-4.21,-3.70,4.62,4.62,4.62
87.22,8.90,4.31,8.90,4.31,-4.31,-4.25,-3.74,4.59,4.59,4.59
88.09,8.90,4.34,8.90,4.34,-4.34,-4.28,-3.78,4.56,4.56,4.56
88.97,8.90,4.37,8.90,4.37,-4.37,-4.32,-3.82,4.52,4.52,4.53
89.86,8.90,4.40,8.90,4.41,-4.41,-4.36,-3.86,4.49,4.49,4.49
90.76,8.90,4.44,8.90,4.44,-4.44,-4.39,-3.91,4.46,4.46,4.46
91.66,8.90,4.48,8.90,4.47,-4.47,-4.43,-3.96,4.42,4.42,4.42
92.58,8.90,4.51,8.90,4.51,-4.51,-4.47,-4.02,4.39,4.39,4.39
93.51,8.90,4.54,8.90,4.54,-4.54,-4.50,-4.07,4.35,4.35,4.36
94.44,8.90,4.58,8.90,4.58,-4.58,-4.54,-4.13,4.31,4.31,4.32
95.39,8.90,4.62,8.90,4.62,-4.62,-4.58,-4.19,4.28,4.28,4.27
96.34,8.90,4.66,8.90,4.66,-4.66,-4.62,-4.26,4.24,4.24,4.24
97.30,8.90,4.69,8.90,4.70,-4.70,-4.65,-4.32,4.20,4.20,4.20
98.28,8.90,4.74,8.90,4.74,-4.74,-4.69,-4.39,4.16,4.16,4.16
99.26,8.90,4.78,8.90,4.78,-4.78,-4.73,-4.46,4.12,4.12,4.12
100.25,8.90,4.82,8.90,4.81,-4.81,-4.77,-4.54,4.08,4.08,4.08
101.25,8.90,4.84,8.90,4.85,-4.85,-4.80,-4.61,4.04,4.05,4.05
102.27,8.91,4.88,8.91,4.89,-4.89,-4.84,-4.68,4.02,4.02,4.03
103.29,8.92,4.93,8.91,4.92,-4.93,-4.88,-4.76,3.99,3.99,3.99
104.32,8.92,4.96,8.92,4.96,-4.96,-4.92,-4.84,3.96,3.96,3.96
105.37,8.92,4.98,8.92,4.99,-4.99,-4.95,-4.92,3.93,3.94,3.93
106.42,8.93,5.02,8.92,5.02,-5.01,-4.99,-4.99,3.92,3.91,3.90
107.48,8.91,5.04,8.91,5.04,-5.03,-5.03,-5.07,3.88,3.88,3.87
108.56,8.89,5.05,8.89,5.05,-5.04,-5.06,-5.15,3.84,3.85,3.84
109.64,8.87,5.06,8.86,5.06,-5.05,-5.10,-5.22,3.81,3.81,3.81
110.74,8.84,5.06,8.84,5.06,-5.06,-5.13,-5.29,3.78,3.78,3.77
111.85,8.80,5.06,8.80,5.06,-5.06,-5.17,-5.37,3.73,3.74,3.74
112.97,8.77,5.06,8.76,5.06,-5.07,-5.20,-5.43,3.70,3.70,3.71
114.10,8.73,5.05,8.73,5.06,-5.07,-5.24,-5.50,3.66,3.66,3.67
115.24,8.70,5.07,8.70,5.07,-5.07,-5.27,-5.56,3.63,3.63,3.63
116.39,8.67,5.08,8.67,5.08,-5.07,-5.31,-5.62,3.60,3.60,3.59
117.55,8.64,5.08,8.64,5.08,-5.07,-5.34,-5.67,3.56,3.56,3.56
118.73,8.62,5.10,8.61,5.09,-5.08,-5.37,-5.72,3.54,3.53,3.52
119.92,8.58,5.08,8.58,5.09,-5.09,-5.40,-5.76,3.48,3.49,3.50
121.12,8.57,5.10,8.57,5.10,-5.11,-5.43,-5.79,3.46,3.46,3.47
122.33,8.56,5.12,8.56,5.11,-5.13,-5.46,-5.82,3.43,3.43,3.44
123.55,8.56,5.14,8.56,5.14,-5.15,-5.49,-5.84,3.41,3.40,3.42
124.79,8.56,5.17,8.56,5.18,-5.18,-5.52,-5.86,3.38,3.38,3.38
126.03,8.57,5.22,8.57,5.22,-5.21,-5.55,-5.87,3.35,3.35,3.35
127.29,8.58,5.26,8.57,5.26,-5.25,-5.58,-5.87,3.33,3.32,3.32
128.57,8.58,5.30,8.58,5.29,-5.29,-5.60,-5.87,3.29,3.29,3.28
129.85,8.58,5.33,8.58,5.33,-5.33,-5.63,-5.86,3.25,3.25,3.25
131.15,8.58,5.37,8.58,5.37,-5.37,-5.65,-5.85,3.21,3.21,3.21
132.46,8.59,5.40,8.58,5.40,-5.41,-5.68,-5.82,3.18,3.18,3.18
133.79,8.59,5.44,8.59,5.44,-5.44,-5.70,-5.80,3.14,3.15,3.14
135.12,8.60,5.48,8.60,5.48,-5.48,-5.72,-5.77,3.12,3.12,3.12
136.48,8.60,5.50,8.59,5.51,-5.50,-5.75,-5.73,3.09,3.09,3.09
137.84,8.59,5.53,8.59,5.53,-5.53,-5.77,-5.69,3.06,3.06,3.06
139.22,8.58,5.55,8.57,5.55,-5.54,-5.79,-5.65,3.03,3.03,3.02
140.61,8.56,5.56,8.56,5.56,-5.55,-5.80,-5.61,3.00,3.00,3.00
142.02,8.53,5.56,8.53,5.56,-5.56,-5.82,-5.56,2.97,2.97,2.97
143.44,8.51,5.56,8.50,5.56,-5.56,-5.84,-5.51,2.95,2.95,2.94
144.87,8.47,5.54,8.47,5.55,-5.55,-5.86,-5.46,2.92,2.92,2.92
146.32,8.44,5.54,8.44,5.54,-5.54,-5.87,-5.41,2.90,2.90,2.89
147.78,8.40,5.52,8.40,5.53,-5.53,-5.89,-5.36,2.87,2.87,2.87
149.26,8.37,5.52,8.37,5.52,-5.52,-5.90,-5.31,2.85,2.85,2.85
150.75,8.34,5.52,8.34,5.51,-5.51,-5.91,-5.26,2.82,2.82,2.82
152.26,8.31,5.51,8.30,5.51,-5.51,-5.92,-5.21,2.80,2.79,2.80
153.78,8.28,5.50,8.28,5.50,-5.51,-5.93,-5.16,2.76,2.76,2.78
155.32,8.26,5.51,8.26,5.51,-5.52,-5.94,-5.12,2.73,2.74,2.75
156.88,8.26,5.53,8.25,5.53,-5.54,-5.95,-5.07,2.72,2.72,2.73
158.44,8.26,5.56,8.25,5.56,-5.56,-5.96,-5.03,2.70,2.69,2.69
160.03,8.25,5.58,8.25,5.58,-5.58,-5.96,-5.00,2.67,2.67,2.67
161.63,8.25,5.61,8.25,5.61,-5.60,-5.97,-4.96,2.65,2.65,2.64
163.24,8.24,5.63,8.24,5.63,-5.62,-5.98,-4.93,2.62,2.62,2.61
164.88,8.23,5.65,8.23,5.65,-5.64,-5.98,-4.90,2.59,2.59,2.58
166.53,8.21,5.67,8.20,5.66,-5.65,-5.98,-4.87,2.56,2.55,2.54
168.19,8.18,5.66,8.18,5.66,-5.66,-5.98,-4.85,2.52,2.52,2.52
169.87,8.14,5.65,8.14,5.66,-5.67,-5.98,-4.83,2.47,2.48,2.48
171.57,8.12,5.67,8.12,5.66,-5.67,-5.98,-4.81,2.45,2.45,2.45
173.29,8.09,5.67,8.09,5.67,-5.67,-5.98,-4.80,2.42,2.41,2.42
175.02,8.06,5.67,8.06,5.67,-5.67,-5.98,-4.79,2.39,2.39,2.39
176.77,8.02,5.67,8.02,5.67,-5.67,-5.98,-4.78,2.35,2.35,2.35
178.54,7.99,5.67,7.99,5.67,-5.66,-5.98,-4.78,2.32,2.32,2.32
180.32,7.95,5.67,7.95,5.67,-5.66,-5.97,-4.79,2.29,2.29,2.27
182.13,7.92,5.67,7.91,5.66,-5.66,-5.97,-4.79,2.26,2.25,2.25
183.95,7.86,5.64,7.86,5.65,-5.66,-5.96,-4.80,2.20,2.21,2.22
185.79,7.82,5.64,7.82,5.64,-5.66,-5.95,-4.82,2.16,2.17,2.18
187.65,7.80,5.65,7.80,5.65,-5.66,-5.94,-4.83,2.14,2.14,2.15
189.52,7.78,5.66,7.78,5.66,-5.66,-5.94,-4.85,2.11,2.11,2.12
191.42,7.77,5.68,7.76,5.67,-5.67,-5.93,-4.87,2.10,2.09,2.09
193.33,7.74,5.68,7.74,5.68,-5.67,-5.91,-4.90,2.07,2.07,2.06
195.27,7.71,5.68,7.71,5.68,-5.67,-5.90,-4.93,2.03,2.04,2.02
197.22,7.68,5.69,7.67,5.68,-5.67,-5.89,-4.96,2.01,2.00,1.99
199.19,7.64,5.67,7.64,5.68,-5.67,-5.88,-5.00,1.97,1.97,1.97
201.18,7.60,5.66,7.60,5.66,-5.66,-5.86,-5.03,1.94,1.93,1.93
203.19,7.56,5.64,7.56,5.64,-5.65,-5.85,-5.07,1.90,1.90,1.92
205.23,7.52,5.62,7.52,5.63,-5.64,-5.83,-5.11,1.88,1.88,1.90
207.28,7.50,5.62,7.50,5.62,-5.63,-5.82,-5.15,1.87,1.87,1.88
209.35,7.48,5.62,7.47,5.62,-5.61,-5.80,-5.20,1.87,1.86,1.85
211.44,7.44,5.61,7.44,5.61,-5.59,-5.78,-5.24,1.84,1.85,1.83
213.56,7.40,5.58,7.39,5.58,-5.57,-5.76,-5.28,1.82,1.82,1.82
215.69,7.35,5.55,7.35,5.55,-5.55,-5.74,-5.33,1.79,1.79,1.79
217.85,7.29,5.52,7.30,5.53,-5.53,-5.72,-5.37,1.76,1.77,1.77
220.03,7.26,5.51,7.25,5.50,-5.50,-5.70,-5.41,1.75,1.75,1.75
222.23,7.21,5.48,7.21,5.48,-5.48,-5.68,-5.45,1.73,1.73,1.73
224.45,7.16,5.44,7.16,5.45,-5.45,-5.65,-5.49,1.71,1.71,1.72
226.70,7.12,5.42,7.11,5.41,-5.42,-5.63,-5.52,1.70,1.70,1.70
228.96,7.07,5.37,7.07,5.39,-5.39,-5.61,-5.56,1.68,1.69,1.70
231.25,7.04,5.36,7.03,5.35,-5.35,-5.58,-5.58,1.68,1.68,1.68
233.57,7.00,5.33,6.99,5.33,-5.32,-5.56,-5.61,1.68,1.67,1.67
235.90,6.94,5.28,6.94,5.29,-5.28,-5.53,-5.63,1.66,1.66,1.66
238.26,6.90,5.26,6.89,5.25,-5.24,-5.50,-5.64,1.65,1.65,1.64
240.64,6.85,5.20,6.85,5.21,-5.21,-5.47,-5.65,1.64,1.64,1.65
243.05,6.81,5.17,6.80,5.17,-5.18,-5.44,-5.66,1.63,1.63,1.64
245.48,6.77,5.13,6.76,5.13,-5.14,-5.41,-5.65,1.62,1.62,1.63
247.93,6.73,5.10,6.74,5.10,-5.11,-5.38,-5.64,1.61,1.62,1.63
250.41,6.72,5.08,6.72,5.08,-5.09,-5.35,-5.62,1.63,1.63,1.64
252.92,6.71,5.07,6.70,5.07,-5.06,-5.32,-5.60,1.64,1.64,1.64
255.45,6.69,5.05,6.69,5.05,-5.04,-5.29,-5.57,1.65,1.65,1.63
258.00,6.67,5.03,6.67,5.03,-5.02,-5.25,-5.54,1.65,1.65,1.64
260.58,6.64,5.00,6.64,5.00,-4.99,-5.22,-5.50,1.64,1.64,1.64
263.19,6.61,4.96,6.61,4.97,-4.97,-5.19,-5.45,1.64,1.64,1.64
265.82,6.58,4.94,6.58,4.94,-4.94,-5.15,-5.40,1.63,1.64,1.64
268.48,6.56,4.91,6.56,4.91,-4.92,-5.11,-5.34,1.64,1.64,1.64
271.16,6.54,4.89,6.53,4.88,-4.89,-5.08,-5.28,1.65,1.64,1.65
273.87,6.50,4.85,6.50,4.86,-4.86,-5.04,-5.21,1.64,1.64,1.64
276.61,6.47,4.82,6.47,4.83,-4.83,-5.00,-5.14,1.64,1.64,1.65
279.38,6.45,4.81,6.44,4.81,-4.80,-4.96,-5.07,1.64,1.64,1.63
282.17,6.42,4.78,6.42,4.78,-4.77,-4.92,-4.99,1.64,1.65,1.64
284.99,6.40,4.74,6.39,4.75,-4.74,-4.88,-4.91,1.66,1.65,1.65
287.84,6.36,4.70,6.36,4.71,-4.71,-4.84,-4.83,1.65,1.66,1.66
290.72,6.34,4.68,6.34,4.67,-4.67,-4.80,-4.75,1.66,1.66,1.65
293.63,6.31,4.64,6.30,4.64,-4.64,-4.76,-4.66,1.67,1.67,1.67
296.57,6.28,4.60,6.28,4.60,-4.60,-4.72,-4.58,1.67,1.67,1.68
299.53,6.25,4.56,6.25,4.57,-4.57,-4.67,-4.49,1.68,1.68,1.68
302.53,6.23,4.53,6.23,4.53,-4.53,-4.63,-4.41,1.69,1.69,1.70
305.55,6.21,4.51,6.20,4.50,-4.50,-4.58,-4.32,1.71,1.70,1.70
308.61,6.18,4.46,6.18,4.47,-4.47,-4.54,-4.24,1.71,1.71,1.71
311.69,6.15,4.43,6.15,4.43,-4.43,-4.49,-4.16,1.72,1.72,1.72
314.81,6.13,4.40,6.12,4.40,-4.40,-4.44,-4.08,1.73,1.73,1.73
317.96,6.10,4.36,6.10,4.37,-4.36,-4.40,-4.00,1.73,1.74,1.73
321.14,6.08,4.33,6.07,4.33,-4.33,-4.35,-3.92,1.75,1.75,1.75
324.35,6.05,4.30,6.05,4.29,-4.29,-4.30,-3.85,1.76,1.76,1.75
327.59,6.02,4.24,6.02,4.25,-4.25,-4.25,-3.77,1.76,1.77,1.78
330.87,6.00,4.22,5.99,4.22,-4.22,-4.20,-3.70,1.78,1.77,1.77
334.18,5.97,4.19,5.97,4.18,-4.19,-4.15,-3.63,1.78,1.78,1.78
337.52,5.94,4.15,5.94,4.15,-4.15,-4.10,-3.57,1.78,1.78,1.79
340.90,5.92,4.11,5.91,4.11,-4.12,-4.05,-3.50,1.79,1.79,1.81
344.30,5.89,4.07,5.90,4.08,-4.09,-4.00,-3.44,1.80,1.80,1.81
347.75,5.88,4.06,5.88,4.06,-4.05,-3.94,-3.38,1.82,1.82,1.82
351.23,5.87,4.05,5.86,4.03,-4.02,-3.89,-3.32,1.85,1.84,1.82
354.74,5.83,3.98,5.83,3.99,-3.97,-3.84,-3.27,1.85,1.86,1.85
358.28,5.79,3.94,5.79,3.94,-3.93,-3.78,-3.22,1.86,1.86,1.85
361.87,5.74,3.88,5.74,3.88,-3.88,-3.73,-3.17,1.86,1.86,1.85
365.49,5.69,3.82,5.69,3.82,-3.83,-3.67,-3.12,1.86,1.86,1.86
369.14,5.64,3.76,5.64,3.76,-3.78,-3.62,-3.08,1.86,1.86,1.88
372.83,5.60,3.71,5.60,3.71,-3.72,-3.56,-3.04,1.88,1.88,1.89
376.56,5.56,3.67,5.56,3.66,-3.67,-3.50,-3.00,1.89,1.89,1.89
380.33,5.52,3.62,5.52,3.62,-3.62,-3.45,-2.96,1.90,1.90,1.90
384.13,5.48,3.56,5.48,3.57,-3.57,-3.39,-2.93,1.91,1.91,1.91
387.97,5.44,3.51,5.44,3.51,-3.52,-3.33,-2.90,1.92,1.92,1.92
391.85,5.40,3.46,5.40,3.47,-3.46,-3.27,-2.86,1.93,1.93,1.93
395.77,5.36,3.42,5.36,3.42,-3.41,-3.21,-2.84,1.95,1.95,1.94
399.73,5.32,3.37,5.31,3.36,-3.35,-3.15,-2.81,1.97,1.97,1.95
403.72,5.27,3.29,5.26,3.30,-3.29,-3.09,-2.78,1.98,1.97,1.98
407.76,5.21,3.23,5.21,3.23,-3.23,-3.03,-2.76,1.98,1.98,1.98
411.84,5.15,3.16,5.15,3.15,-3.17,-2.97,-2.74,1.98,1.98,1.99
415.96,5.09,3.08,5.09,3.09,-3.10,-2.91,-2.71,1.98,1.99,2.01
420.12,5.04,3.03,5.04,3.04,-3.04,-2.85,-2.69,2.00,2.01,2.00
424.32,5.01,2.99,5.00,2.98,-2.97,-2.78,-2.67,2.03,2.03,2.01
428.56,4.96,2.92,4.95,2.92,-2.91,-2.72,-2.65,2.04,2.04,2.03
432.85,4.90,2.86,4.89,2.85,-2.85,-2.66,-2.63,2.04,2.04,2.04
437.18,4.82,2.78,4.83,2.78,-2.79,-2.60,-2.61,2.03,2.04,2.04
441.55,4.77,2.72,4.77,2.72,-2.73,-2.53,-2.59,2.04,2.04,2.05
445.96,4.73,2.67,4.72,2.66,-2.67,-2.47,-2.57,2.06,2.06,2.06
450.42,4.68,2.61,4.68,2.61,-2.60,-2.40,-2.55,2.08,2.08,2.07
454.93,4.63,2.55,4.62,2.55,-2.53,-2.34,-2.52,2.09,2.09,2.08
459.48,4.57,2.48,4.56,2.47,-2.47,-2.27,-2.50,2.10,2.10,2.09
464.07,4.50,2.39,4.50,2.40,-2.40,-2.21,-2.47,2.09,2.10,2.11
468.71,4.45,2.33,4.44,2.33,-2.34,-2.14,-2.44,2.11,2.11,2.12
473.40,4.39,2.26,4.39,2.26,-2.27,-2.07,-2.41,2.12,2.12,2.13
478.13,4.34,2.20,4.34,2.20,-2.20,-2.01,-2.38,2.13,2.14,2.14
482.91,4.29,2.14,4.29,2.14,-2.14,-1.94,-2.35,2.15,2.15,2.14
487.74,4.24,2.08,4.23,2.08,-2.07,-1.87,-2.31,2.17,2.16,2.15
492.62,4.17,2.00,4.17,2.01,-2.01,-1.81,-2.27,2.16,2.17,2.16
497.55,4.11,1.93,4.11,1.94,-1.94,-1.74,-2.23,2.17,2.17,2.17
502.52,4.06,1.87,4.06,1.87,-1.87,-1.67,-2.18,2.19,2.19,2.18
507.55,4.01,1.80,4.00,1.80,-1.80,-1.60,-2.13,2.20,2.20,2.20
512.62,3.95,1.74,3.95,1.73,-1.73,-1.54,-2.08,2.21,2.21,2.21
517.75,3.89,1.66,3.89,1.66,-1.67,-1.47,-2.03,2.22,2.22,2.23
522.93,3.83,1.59,3.83,1.59,-1.60,-1.40,-1.97,2.23,2.23,2.24
528.16,3.78,1.53,3.78,1.53,-1.53,-1.33,-1.91,2.25,2.25,2.25
533.44,3.73,1.47,3.72,1.46,-1.46,-1.26,-1.85,2.27,2.27,2.26
538.77,3.67,1.40,3.67,1.40,-1.38,-1.19,-1.78,2.28,2.29,2.27
544.16,3.61,1.32,3.61,1.32,-1.31,-1.12,-1.71,2.29,2.29,2.29
549.60,3.55,1.25,3.54,1.24,-1.24,-1.05,-1.64,2.31,2.30,2.30
