frequency,raw
20.00,8.36
20.20,8.38
20.40,8.40
20.61,8.43
20.81,8.45
21.02,8.47
21.23,8.48
21.44,8.50
21.66,8.52
21.87,8.54
22.09,8.55
22.31,8.57
22.54,8.59
22.76,8.60
22.99,8.62
23.22,8.64
23.45,8.65
23.69,8.67
23.92,8.68
24.16,8.69
24.40,8.69
24.65,8.71
24.89,8.72
25.14,8.73
25.39,8.74
25.65,8.75
25.91,8.76
26.16,8.76
26.43,8.77
26.69,8.78
26.96,8.78
27.23,8.79
27.50,8.79
27.77,8.79
28.05,8.80
28.33,8.80
28.62,8.80
28.90,8.80
29.19,8.80
29.48,8.80
29.78,8.80
30.08,8.79
30.38,8.79
30.68,8.79
30.99,8.78
31.30,8.78
31.61,8.77
31.93,8.77
32.24,8.76
32.57,8.76
32.89,8.75
33.22,8.74
33.55,8.73
33.89,8.73
34.23,8.71
34.57,8.71
34.92,8.69
35.27,8.68
35.62,8.67
35.97,8.65
36.33,8.63
36.70,8.62
37.06,8.61
37.43,8.59
37.81,8.58
38.19,8.55
38.57,8.54
38.95,8.52
39.34,8.50
39.74,8.48
40.14,8.46
40.54,8.44
40.94,8.42
41.35,8.40
41.76,8.38
42.18,8.36
42.60,8.33
43.03,8.31
43.46,8.28
43.90,8.26
44.33,8.23
44.78,8.20
45.23,8.17
45.68,8.14
46.13,8.12
46.60,8.08
47.06,8.06
47.53,8.03
48.01,7.99
48.49,7.96
48.97,7.93
49.46,7.90
49.96,7.87
50.46,7.83
50.96,7.80
51.47,7.76
51.99,7.73
52.51,7.70
53.03,7.66
53.56,7.62
54.10,7.59
54.64,7.55
55.18,7.51
55.74,7.47
56.29,7.43
56.86,7.39
57.42,7.35
58.00,7.32
58.58,7.28
59.16,7.23
59.76,7.19
60.35,7.15
60.96,7.11
61.57,7.07
62.18,7.02
62.80,6.98
63.43,6.94
64.07,6.90
64.71,6.85
65.35,6.80
66.01,6.76
66.67,6.72
67.33,6.67
68.01,6.62
68.69,6.58
69.37,6.53
70.07,6.49
70.77,6.44
71.48,6.39
72.19,6.34
72.91,6.30
73.64,6.25
74.38,6.19
75.12,6.15
75.87,6.10
76.63,6.05
77.40,6.00
78.17,5.96
78.95,5.90
79.74,5.86
80.54,5.80
81.35,5.76
82.16,5.71
82.98,5.65
83.81,5.61
84.65,5.56
85.50,5.50
86.35,5.46
87.22,5.40
88.09,5.35
88.97,5.30
89.86,5.25
90.76,5.20
91.66,5.14
92.58,5.09
93.51,5.04
94.44,4.99
95.39,4.94
96.34,4.89
97.30,4.83
98.28,4.79
99.26,4.73
100.25,4.68
101.25,4.62
102.27,4.57
103.29,4.52
104.32,4.47
105.37,4.42
106.42,4.36
107.48,4.31
108.56,4.26
109.64,4.21
110.74,4.16
111.85,4.11
112.97,4.06
114.10,4.01
115.24,3.95
116.39,3.90
117.55,3.85
118.73,3.80
119.92,3.74
121.12,3.69
122.33,3.64
123.55,3.59
124.79,3.55
126.03,3.49
127.29,3.44
128.57,3.39
129.85,3.33
131.15,3.28
132.46,3.22
133.79,3.17
135.12,3.12
136.48,3.07
137.84,3.03
139.22,2.97
140.61,2.92
142.02,2.88
143.44,2.83
144.87,2.78
146.32,2.73
147.78,2.69
149.26,2.64
150.75,2.59
152.26,2.55
153.78,2.50
155.32,2.46
156.88,2.41
158.44,2.38
160.03,2.34
161.63,2.29
163.24,2.25
164.88,2.22
166.53,2.18
168.19,2.14
169.87,2.11
171.57,2.07
173.29,2.05
175.02,2.01
176.77,1.99
178.54,1.96
180.32,1.95
182.13,1.93
183.95,1.92
185.79,1.92
187.65,1.91
189.52,1.91
191.42,1.91
193.33,1.91
195.27,1.90
197.22,1.90
199.19,1.89
201.18,1.88
203.19,1.87
205.23,1.85
207.28,1.83
209.35,1.80
211.44,1.78
213.56,1.76
215.69,1.73
217.85,1.71
220.03,1.68
222.23,1.65
224.45,1.61
226.70,1.58
228.96,1.55
231.25,1.53
233.57,1.49
235.90,1.46
238.26,1.43
240.64,1.40
243.05,1.38
245.48,1.34
247.93,1.31
250.41,1.29
252.92,1.26
255.45,1.23
258.00,1.21
260.58,1.19
263.19,1.16
265.82,1.14
268.48,1.11
271.16,1.09
273.87,1.06
276.61,1.04
279.38,1.02
282.17,1.00
284.99,0.98
287.84,0.95
290.72,0.94
293.63,0.92
296.57,0.90
299.53,0.88
302.53,0.86
305.55,0.84
308.61,0.82
311.69,0.80
314.81,0.79
317.96,0.76
321.14,0.75
324.35,0.73
327.59,0.71
330.87,0.69
334.18,0.68
337.52,0.66
340.90,0.64
344.30,0.62
347.75,0.60
351.23,0.59
354.74,0.57
358.28,0.55
361.87,0.54
365.49,0.52
369.14,0.50
372.83,0.49
376.56,0.46
380.33,0.45
384.13,0.43
387.97,0.41
391.85,0.38
395.77,0.36
399.73,0.34
403.72,0.32
407.76,0.30
411.84,0.28
415.96,0.26
420.12,0.23
424.32,0.20
428.56,0.18
432.85,0.16
437.18,0.12
441.55,0.10
445.96,0.07
450.42,0.04
454.93,0.00
459.48,-0.03
464.07,-0.06
468.71,-0.09
473.40,-0.12
478.13,-0.16
482.91,-0.19
487.74,-0.23
492.62,-0.27
497.55,-0.30
502.52,-0.34
507.55,-0.38
512.62,-0.41
517.75,-0.45
522.93,-0.50
528.16,-0.53
533.44,-0.57
538.77,-0.61
544.16,-0.66
549.60,-0.70
555.10,-0.74
560.65,-0.78
566.25,-0.83
571.92,-0.87
577.64,-0.91
583.41,-0.96
589.25,-1.00
595.14,-1.04
601.09,-1.08
607.10,-1.13
613.17,-1.17
619.30,-1.22
625.50,-1.26
631.75,-1.29
638.07,-1.33
644.45,-1.38
650.89,-1.42
657.40,-1.46
663.98,-1.50
670.62,-1.54
677.32,-1.58
684.10,-1.61
690.94,-1.65
697.85,-1.69
704.83,-1.73
711.87,-1.76
718.99,-1.80
726.18,-1.83
733.44,-1.86
740.78,-1.89
748.19,-1.92
755.67,-1.95
763.23,-1.97
770.86,-1.98
778.57,-2.00
786.35,-2.01
794.22,-2.02
802.16,-2.03
810.18,-2.03
818.28,-2.02
826.46,-2.00
834.73,-1.96
843.08,-1.93
851.51,-1.88
860.02,-1.81
868.62,-1.74
877.31,-1.66
886.08,-1.56
894.94,-1.46
903.89,-1.34
912.93,-1.22
922.06,-1.08
931.28,-0.95
940.59,-0.82
950.00,-0.67
959.50,-0.54
969.09,-0.40
978.78,-0.28
988.57,-0.15
998.46,-0.02
1008.44,0.10
1018.53,0.21
1028.71,0.32
1039.00,0.42
1049.39,0.52
1059.88,0.62
1070.48,0.71
1081.19,0.80
1092.00,0.88
1102.92,0.96
1113.95,1.04
1125.09,1.11
1136.34,1.19
1147.70,1.26
1159.18,1.32
1170.77,1.39
1182.48,1.46
1194.30,1.51
1206.25,1.57
1218.31,1.63
1230.49,1.68
1242.80,1.74
1255.22,1.79
1267.78,1.83
1280.45,1.88
1293.26,1.91
1306.19,1.95
1319.25,1.99
1332.45,2.02
1345.77,2.05
1359.23,2.08
1372.82,2.10
1386.55,2.13
1400.41,2.16
1414.42,2.17
1428.56,2.19
1442.85,2.21
1457.28,2.23
1471.85,2.24
1486.57,2.25
1501.43,2.27
1516.45,2.28
1531.61,2.30
1546.93,2.31
1562.40,2.33
1578.02,2.34
1593.80,2.36
1609.74,2.37
1625.84,2.39
1642.10,2.40
1658.52,2.43
1675.10,2.44
1691.85,2.46
1708.77,2.48
1725.86,2.50
1743.12,2.52
1760.55,2.55
1778.15,2.57
1795.94,2.59
1813.90,2.62
1832.03,2.64
1850.36,2.67
1868.86,2.70
1887.55,2.73
1906.42,2.76
1925.49,2.79
1944.74,2.82
1964.19,2.85
1983.83,2.88
2003.67,2.91
2023.71,2.94
2043.94,2.96
2064.38,2.98
2085.03,3.01
2105.88,3.04
2126.94,3.06
2148.20,3.08
2169.69,3.09
2191.38,3.11
2213.30,3.13
2235.43,3.15
2257.78,3.16
2280.36,3.17
2303.17,3.17
2326.20,3.18
2349.46,3.18
2372.95,3.18
2396.68,3.19
2420.65,3.19
2444.86,3.19
2469.31,3.19
2494.00,3.19
2518.94,3.18
2544.13,3.18
2569.57,3.19
2595.27,3.17
2621.22,3.17
2647.43,3.17
2673.90,3.16
2700.64,3.15
2727.65,3.13
2754.93,3.12
2782.48,3.11
2810.30,3.08
2838.40,3.06
2866.79,3.04
2895.46,3.00
2924.41,2.96
2953.65,2.92
2983.19,2.88
3013.02,2.82
3043.15,2.76
3073.58,2.71
3104.32,2.64
3135.36,2.56
3166.72,2.49
3198.38,2.41
3230.37,2.34
3262.67,2.26
3295.30,2.17
3328.25,2.10
3361.53,2.01
3395.15,1.93
3429.10,1.86
3463.39,1.78
3498.03,1.71
3533.01,1.63
3568.34,1.57
3604.02,1.50
3640.06,1.43
3676.46,1.37
3713.22,1.32
3750.36,1.26
3787.86,1.21
3825.74,1.17
3864.00,1.12
3902.64,1.08
3941.66,1.05
3981.08,1.01
4020.89,0.98
4061.10,0.95
4101.71,0.92
4142.73,0.91
4184.15,0.88
4226.00,0.86
4268.26,0.84
4310.94,0.83
4354.05,0.81
4397.59,0.80
4441.56,0.78
4485.98,0.76
4530.84,0.73
4576.15,0.71
4621.91,0.68
4668.13,0.66
4714.81,0.62
4761.96,0.58
4809.58,0.54
4857.67,0.48
4906.25,0.43
4955.31,0.37
5004.87,0.31
5054.91,0.24
5105.46,0.17
5156.52,0.10
5208.08,0.01
5260.16,-0.07
5312.77,-0.16
5365.89,-0.26
5419.55,-0.35
5473.75,-0.45
5528.49,-0.56
5583.77,-0.66
5639.61,-0.78
5696.00,-0.89
5752.96,-1.00
5810.49,-1.13
5868.60,-1.23
5927.28,-1.36
5986.56,-1.47
6046.42,-1.59
6106.89,-1.70
6167.96,-1.83
6229.64,-1.95
6291.93,-2.08
6354.85,-2.21
6418.40,-2.35
6482.58,-2.49
6547.41,-2.64
6612.88,-2.81
6679.01,-2.99
6745.80,-3.17
6813.26,-3.37
6881.39,-3.57
6950.21,-3.76
7019.71,-3.94
7089.91,-4.07
7160.81,-4.15
7232.41,-4.17
7304.74,-4.02
7377.79,-3.78
7451.56,-3.44
7526.08,-2.90
7601.34,-2.28
7677.35,-1.58
7754.13,-0.80
7831.67,-0.03
7909.98,0.74
7989.08,1.42
8068.98,2.00
8149.67,2.47
8231.16,2.80
8313.47,2.95
8396.61,2.98
8480.57,2.89
8565.38,2.65
8651.03,2.33
8737.54,1.93
8824.92,1.46
8913.17,0.97
9002.30,0.45
9092.32,-0.07
9183.25,-0.59
9275.08,-1.09
9367.83,-1.58
9461.51,-2.03
9556.12,-2.47
9651.68,-2.88
9748.20,-3.27
9845.68,-3.63
9944.14,-3.97
10043.58,-4.27
10144.02,-4.56
10245.46,-4.82
10347.91,-5.06
10451.39,-5.26
10555.91,-5.46
10661.46,-5.63
10768.08,-5.77
10875.76,-5.89
10984.52,-5.99
11094.36,-6.07
11205.31,-6.13
11317.36,-6.19
11430.53,-6.21
11544.84,-6.24
11660.29,-6.27
11776.89,-6.28
11894.66,-6.30
12013.60,-6.33
12133.74,-6.35
12255.08,-6.40
12377.63,-6.46
12501.41,-6.55
12626.42,-6.66
12752.68,-6.80
12880.21,-6.98
13009.01,-7.20
13139.10,-7.44
13270.49,-7.71
13403.20,-8.04
13537.23,-8.38
13672.60,-8.76
13809.33,-9.17
13947.42,-9.60
14086.90,-10.05
14227.77,-10.52
14370.04,-11.01
14513.74,-11.51
14658.88,-12.02
14805.47,-12.54
14953.52,-13.04
15103.06,-13.55
15254.09,-14.01
15406.63,-14.44
15560.70,-14.83
15716.30,-15.10
15873.47,-15.30
16032.20,-15.44
16192.52,-15.44
16354.45,-15.35
16517.99,-15.19
16683.17,-14.93
16850.01,-14.60
17018.51,-14.22
17188.69,-13.79
17360.58,-13.32
17534.18,-12.84
17709.53,-12.37
17886.62,-11.93
18065.49,-11.57
18246.14,-11.29
18428.60,-11.24
18612.89,-11.35
18799.02,-11.61
18987.01,-12.17
19176.88,-12.93
19368.65,-13.86
19562.33,-14.98
19757.96,-16.29
19955.54,-17.72
