frequency,raw,error,smoothed,error_smoothed,equalization,parametric_eq,fixed_band_eq,equalized_raw,equalized_smoothed,target
20.00,13.04,4.62,13.04,4.62,-4.62,-5.12,-2.45,8.41,8.41,8.41
20.20,13.06,4.66,13.06,4.66,-4.66,-5.12,-2.52,8.40,8.40,8.39
20.40,13.08,4.70,13.08,4.70,-4.70,-5.12,-2.59,8.38,8.38,8.37
20.61,13.09,4.73,13.10,4.73,-4.73,-5.12,-2.67,8.36,8.36,8.36
20.81,13.12,4.77,13.12,4.77,-4.77,-5.12,-2.74,8.35,8.34,8.34
21.02,13.14,4.80,13.13,4.81,-4.81,-5.13,-2.82,8.33,8.33,8.33
21.23,13.16,4.84,13.16,4.84,-4.84,-5.13,-2.90,8.31,8.31,8.31
21.44,13.18,4.87,13.18,4.88,-4.88,-5.13,-2.99,8.30,8.30,8.30
21.66,13.20,4.91,13.20,4.92,-4.92,-5.13,-3.07,8.29,8.29,8.29
21.87,13.23,4.96,13.22,4.95,-4.95,-5.14,-3.16,8.27,8.27,8.27
22.09,13.25,4.99,13.25,4.99,-4.99,-5.14,-3.25,8.25,8.26,8.26
22.31,13.27,5.02,13.27,5.02,-5.03,-5.14,-3.34,8.24,8.24,8.25
22.54,13.29,5.06,13.29,5.06,-5.06,-5.15,-3.44,8.24,8.24,8.24
22.76,13.32,5.09,13.32,5.09,-5.08,-5.15,-3.53,8.23,8.24,8.23
22.99,13.35,5.13,13.34,5.12,-5.10,-5.15,-3.63,8.24,8.23,8.22
23.22,13.35,5.14,13.35,5.14,-5.12,-5.15,-3.74,8.22,8.22,8.21
23.45,13.35,5.14,13.35,5.14,-5.14,-5.16,-3.84,8.20,8.20,8.21
23.69,13.35,5.15,13.34,5.15,-5.16,-5.16,-3.95,8.19,8.19,8.19
23.92,13.35,5.15,13.35,5.16,-5.17,-5.16,-4.06,8.17,8.18,8.19
24.16,13.37,5.17,13.37,5.17,-5.19,-5.17,-4.17,8.18,8.18,8.19
24.40,13.39,5.19,13.39,5.20,-5.20,-5.17,-4.28,8.18,8.18,8.19
24.65,13.42,5.22,13.41,5.22,-5.22,-5.17,-4.39,8.20,8.20,8.19
24.89,13.44,5.25,13.43,5.24,-5.23,-5.18,-4.51,8.21,8.20,8.19
25.14,13.45,5.26,13.44,5.26,-5.24,-5.18,-4.63,8.20,8.20,8.19
25.39,13.45,5.26,13.45,5.26,-5.25,-5.18,-4.74,8.20,8.20,8.19
25.65,13.45,5.26,13.45,5.26,-5.25,-5.19,-4.86,8.19,8.19,8.19
25.91,13.45,5.25,13.45,5.25,-5.25,-5.19,-4.98,8.19,8.19,8.20
26.16,13.45,5.25,13.45,5.25,-5.25,-5.19,-5.10,8.19,8.19,8.20
26.43,13.45,5.25,13.44,5.25,-5.25,-5.20,-5.22,8.19,8.19,8.19
26.69,13.45,5.25,13.44,5.25,-5.26,-5.20,-5.34,8.19,8.18,8.19
26.96,13.45,5.25,13.45,5.26,-5.27,-5.20,-5.45,8.18,8.18,8.19
27.23,13.47,5.27,13.47,5.28,-5.29,-5.21,-5.57,8.18,8.18,8.19
27.50,13.50,5.31,13.49,5.30,-5.31,-5.21,-5.68,8.18,8.18,8.19
27.77,13.53,5.34,13.52,5.34,-5.34,-5.22,-5.78,8.19,8.18,8.19
28.05,13.56,5.37,13.55,5.37,-5.37,-5.22,-5.89,8.19,8.18,8.19
28.33,13.58,5.40,13.58,5.40,-5.40,-5.22,-5.99,8.18,8.18,8.17
28.62,13.60,5.43,13.61,5.43,-5.42,-5.23,-6.09,8.18,8.18,8.17
28.90,13.64,5.46,13.63,5.46,-5.45,-5.23,-6.17,8.19,8.18,8.17
29.19,13.65,5.48,13.64,5.47,-5.46,-5.24,-6.26,8.18,8.18,8.17
29.48,13.65,5.48,13.65,5.48,-5.47,-5.24,-6.33,8.17,8.17,8.17
29.78,13.65,5.48,13.65,5.48,-5.48,-5.24,-6.40,8.16,8.16,8.17
30.08,13.65,5.48,13.65,5.48,-5.49,-5.25,-6.46,8.16,8.16,8.16
30.38,13.65,5.48,13.65,5.49,-5.49,-5.25,-6.51,8.15,8.15,8.16
30.68,13.65,5.49,13.65,5.49,-5.50,-5.26,-6.55,8.15,8.15,8.15
30.99,13.65,5.50,13.65,5.50,-5.50,-5.26,-6.59,8.14,8.14,8.15
31.30,13.65,5.51,13.65,5.51,-5.51,-5.27,-6.61,8.14,8.14,8.14
31.61,13.65,5.51,13.65,5.51,-5.51,-5.27,-6.63,8.13,8.13,8.13
31.93,13.65,5.51,13.65,5.52,-5.52,-5.28,-6.63,8.12,8.12,8.13
32.24,13.65,5.53,13.65,5.52,-5.52,-5.28,-6.63,8.12,8.12,8.12
32.57,13.65,5.53,13.65,5.53,-5.52,-5.29,-6.62,8.12,8.12,8.12
32.89,13.65,5.53,13.64,5.53,-5.52,-5.29,-6.60,8.12,8.12,8.11
33.22,13.64,5.52,13.63,5.52,-5.51,-5.29,-6.58,8.12,8.12,8.11
33.55,13.62,5.51,13.62,5.51,-5.50,-5.30,-6.54,8.11,8.12,8.11
33.89,13.61,5.49,13.60,5.49,-5.49,-5.30,-6.50,8.12,8.12,8.12
34.23,13.59,5.47,13.58,5.47,-5.47,-5.31,-6.46,8.11,8.11,8.11
34.57,13.57,5.46,13.57,5.45,-5.46,-5.32,-6.40,8.11,8.11,8.11
34.92,13.55,5.43,13.55,5.44,-5.45,-5.32,-6.35,8.10,8.11,8.12
35.27,13.55,5.43,13.54,5.43,-5.44,-5.33,-6.29,8.11,8.11,8.11
35.62,13.55,5.43,13.54,5.43,-5.43,-5.33,-6.23,8.12,8.11,8.12
35.97,13.55,5.43,13.55,5.43,-5.43,-5.34,-6.16,8.12,8.12,8.12
36.33,13.55,5.43,13.55,5.43,-5.43,-5.34,-6.09,8.12,8.12,8.11
36.70,13.55,5.44,13.55,5.44,-5.44,-5.35,-6.03,8.11,8.11,8.11
37.06,13.55,5.44,13.55,5.44,-5.44,-5.35,-5.96,8.10,8.10,8.10
37.43,13.55,5.46,13.55,5.45,-5.45,-5.36,-5.89,8.09,8.09,8.09
37.81,13.55,5.46,13.55,5.46,-5.46,-5.36,-5.82,8.08,8.08,8.09
38.19,13.55,5.47,13.55,5.47,-5.48,-5.37,-5.75,8.07,8.07,8.07
38.57,13.55,5.49,13.55,5.49,-5.49,-5.37,-5.69,8.06,8.06,8.06
38.95,13.55,5.50,13.55,5.50,-5.50,-5.38,-5.62,8.04,8.04,8.04
39.34,13.55,5.52,13.55,5.52,-5.51,-5.39,-5.56,8.03,8.03,8.03
39.74,13.55,5.52,13.55,5.53,-5.53,-5.39,-5.50,8.02,8.02,8.02
40.14,13.55,5.54,13.55,5.54,-5.54,-5.40,-5.44,8.00,8.00,8.01
40.54,13.55,5.55,13.55,5.55,-5.56,-5.40,-5.39,7.99,7.99,7.99
40.94,13.55,5.56,13.55,5.56,-5.57,-5.41,-5.34,7.98,7.98,7.98
41.35,13.55,5.57,13.55,5.57,-5.57,-5.42,-5.29,7.97,7.97,7.98
41.76,13.55,5.58,13.54,5.58,-5.58,-5.42,-5.24,7.97,7.97,7.96
42.18,13.55,5.59,13.55,5.59,-5.57,-5.43,-5.20,7.97,7.97,7.96
42.60,13.54,5.58,13.54,5.59,-5.57,-5.43,-5.17,7.97,7.97,7.96
43.03,13.54,5.58,13.52,5.57,-5.56,-5.44,-5.13,7.98,7.96,7.95
43.46,13.50,5.55,13.49,5.55,-5.55,-5.45,-5.10,7.94,7.94,7.94
43.90,13.46,5.51,13.47,5.52,-5.54,-5.45,-5.07,7.91,7.93,7.95
44.33,13.45,5.51,13.45,5.51,-5.53,-5.46,-5.05,7.91,7.92,7.94
44.78,13.45,5.51,13.44,5.51,-5.52,-5.46,-5.03,7.93,7.92,7.93
45.23,13.45,5.51,13.45,5.52,-5.51,-5.47,-5.02,7.94,7.94,7.93
45.68,13.45,5.52,13.44,5.52,-5.50,-5.48,-5.01,7.95,7.95,7.92
46.13,13.43,5.52,13.42,5.50,-5.49,-5.48,-5.00,7.94,7.93,7.92
46.60,13.39,5.48,13.39,5.48,-5.49,-5.49,-5.00,7.90,7.90,7.91
47.06,13.35,5.45,13.36,5.47,-5.48,-5.49,-4.99,7.87,7.89,7.90
47.53,13.35,5.46,13.34,5.46,-5.47,-5.50,-5.00,7.88,7.88,7.89
48.01,13.35,5.47,13.33,5.46,-5.46,-5.51,-5.00,7.89,7.88,7.88
48.49,13.32,5.46,13.32,5.46,-5.44,-5.51,-5.01,7.87,7.87,7.86
48.97,13.29,5.44,13.29,5.44,-5.44,-5.52,-5.03,7.85,7.85,7.84
49.46,13.27,5.43,13.26,5.43,-5.44,-5.52,-5.04,7.82,7.82,7.83
49.96,13.24,5.42,13.24,5.43,-5.45,-5.53,-5.06,7.79,7.80,7.81
50.46,13.24,5.44,13.23,5.44,-5.46,-5.54,-5.08,7.78,7.78,7.80
50.96,13.24,5.45,13.23,5.45,-5.46,-5.54,-5.11,7.78,7.77,7.79
51.47,13.24,5.46,13.24,5.46,-5.46,-5.55,-5.13,7.78,7.78,7.77
51.99,13.24,5.48,13.24,5.48,-5.45,-5.55,-5.16,7.78,7.79,7.76
52.51,13.24,5.49,13.24,5.49,-5.44,-5.56,-5.19,7.79,7.79,7.75
53.03,13.23,5.49,13.19,5.46,-5.43,-5.57,-5.22,7.80,7.76,7.73
53.56,13.13,5.41,13.13,5.41,-5.42,-5.57,-5.25,7.71,7.71,7.72
54.10,13.04,5.33,13.07,5.37,-5.40,-5.58,-5.28,7.63,7.67,7.70
54.64,13.04,5.35,13.03,5.34,-5.39,-5.58,-5.32,7.64,7.64,7.69
55.18,13.04,5.37,13.03,5.36,-5.39,-5.59,-5.35,7.64,7.64,7.67
55.74,13.04,5.38,13.04,5.38,-5.39,-5.59,-5.38,7.64,7.64,7.65
56.29,13.04,5.40,13.04,5.40,-5.40,-5.60,-5.41,7.64,7.64,7.63
56.86,13.04,5.42,13.04,5.42,-5.40,-5.60,-5.44,7.63,7.63,7.62
57.42,13.04,5.44,13.04,5.44,-5.41,-5.61,-5.47,7.63,7.63,7.60
58.00,13.04,5.45,13.03,5.45,-5.41,-5.61,-5.49,7.63,7.62,7.59
58.58,13.01,5.44,13.00,5.43,-5.41,-5.62,-5.52,7.60,7.59,7.57
59.16,12.95,5.41,12.94,5.39,-5.40,-5.62,-5.54,7.56,7.54,7.55
59.76,12.87,5.34,12.88,5.36,-5.39,-5.62,-5.56,7.47,7.49,7.53
60.35,12.84,5.33,12.85,5.34,-5.38,-5.63,-5.57,7.45,7.46,7.51
60.96,12.84,5.35,12.83,5.35,-5.37,-5.63,-5.58,7.47,7.46,7.48
61.57,12.84,5.38,12.83,5.37,-5.36,-5.64,-5.59,7.48,7.47,7.46
62.18,12.83,5.39,12.82,5.39,-5.35,-5.64,-5.59,7.47,7.47,7.44
62.80,12.79,5.38,12.78,5.38,-5.35,-5.64,-5.59,7.43,7.43,7.40
63.43,12.74,5.36,12.73,5.36,-5.36,-5.65,-5.59,7.38,7.38,7.38
64.07,12.68,5.33,12.68,5.34,-5.36,-5.65,-5.58,7.31,7.32,7.35
64.71,12.65,5.33,12.65,5.34,-5.36,-5.65,-5.57,7.28,7.29,7.31
65.35,12.64,5.35,12.64,5.35,-5.36,-5.66,-5.56,7.27,7.27,7.29
66.01,12.64,5.39,12.62,5.37,-5.36,-5.66,-5.54,7.27,7.26,7.25
66.67,12.61,5.39,12.61,5.39,-5.36,-5.66,-5.52,7.24,7.24,7.22
67.33,12.57,5.39,12.57,5.39,-5.37,-5.66,-5.49,7.19,7.20,7.18
68.01,12.54,5.39,12.52,5.38,-5.38,-5.67,-5.47,7.15,7.14,7.15
68.69,12.48,5.37,12.48,5.37,-5.39,-5.67,-5.44,7.08,7.09,7.11
69.37,12.45,5.37,12.46,5.38,-5.40,-5.67,-5.41,7.05,7.06,7.08
70.07,12.44,5.40,12.44,5.40,-5.40,-5.67,-5.38,7.03,7.04,7.03
70.77,12.44,5.44,12.42,5.42,-5.41,-5.67,-5.35,7.03,7.01,7.00
71.48,12.39,5.42,12.39,5.43,-5.41,-5.67,-5.32,6.97,6.98,6.96
72.19,12.34,5.42,12.35,5.43,-5.42,-5.68,-5.28,6.92,6.93,6.92
72.91,12.32,5.43,12.30,5.42,-5.43,-5.68,-5.25,6.89,6.87,6.88
73.64,12.27,5.42,12.27,5.43,-5.44,-5.68,-5.22,6.83,6.83,6.85
74.38,12.24,5.43,12.24,5.44,-5.44,-5.68,-5.19,6.79,6.80,6.81
75.12,12.23,5.46,12.21,5.45,-5.45,-5.68,-5.16,6.78,6.77,6.76
75.87,12.19,5.46,12.19,5.46,-5.45,-5.68,-5.13,6.73,6.73,6.72
76.63,12.15,5.46,12.15,5.47,-5.46,-5.68,-5.11,6.68,6.69,6.68
77.40,12.12,5.48,12.11,5.47,-5.47,-5.68,-5.08,6.64,6.63,6.64
78.17,12.08,5.48,12.08,5.48,-5.49,-5.68,-5.06,6.59,6.59,6.60
78.95,12.04,5.48,12.05,5.49,-5.50,-5.68,-5.04,6.54,6.55,6.56
79.74,12.04,5.52,12.02,5.51,-5.52,-5.67,-5.02,6.52,6.50,6.51
80.54,12.00,5.53,11.99,5.52,-5.53,-5.67,-5.01,6.47,6.46,6.47
81.35,11.96,5.53,11.97,5.55,-5.54,-5.67,-5.00,6.41,6.43,6.42
82.16,11.94,5.56,11.94,5.56,-5.56,-5.67,-4.99,6.38,6.38,6.38
82.98,11.94,5.60,11.91,5.58,-5.56,-5.67,-4.99,6.37,6.34,6.33
83.81,11.86,5.57,11.87,5.58,-5.57,-5.67,-4.99,6.29,6.30,6.28
84.65,11.81,5.57,11.82,5.58,-5.57,-5.67,-4.99,6.24,6.25,6.24
85.50,11.77,5.59,11.75,5.57,-5.57,-5.67,-5.00,6.20,6.18,6.18
86.35,11.70,5.57,11.69,5.57,-5.57,-5.67,-5.01,6.12,6.12,6.13
87.22,11.63,5.55,11.63,5.55,-5.57,-5.66,-5.02,6.05,6.06,6.08
88.09,11.58,5.55,11.58,5.55,-5.58,-5.66,-5.04,6.00,6.00,6.03
88.97,11.54,5.56,11.55,5.57,-5.59,-5.66,-5.06,5.95,5.96,5.98
89.86,11.54,5.62,11.53,5.61,-5.60,-5.66,-5.09,5.93,5.93,5.92
90.76,11.52,5.65,11.50,5.64,-5.62,-5.66,-5.12,5.90,5.88,5.86
91.66,11.46,5.65,11.45,5.65,-5.64,-5.66,-5.15,5.82,5.82,5.80
92.58,11.39,5.64,11.40,5.65,-5.66,-5.66,-5.19,5.73,5.74,5.75
93.51,11.35,5.66,11.35,5.67,-5.67,-5.66,-5.23,5.67,5.68,5.68
94.44,11.32,5.70,11.31,5.69,-5.69,-5.66,-5.28,5.62,5.62,5.62
95.39,11.28,5.72,11.26,5.71,-5.70,-5.66,-5.32,5.57,5.56,5.56
96.34,11.21,5.71,11.20,5.72,-5.71,-5.66,-5.37,5.49,5.49,5.49
97.30,11.13,5.71,11.15,5.73,-5.73,-5.65,-5.43,5.40,5.42,5.42
98.28,11.11,5.75,11.10,5.75,-5.74,-5.65,-5.48,5.36,5.35,5.35
99.26,11.06,5.78,11.03,5.76,-5.76,-5.66,-5.54,5.29,5.27,5.27
100.25,10.97,5.77,10.97,5.77,-5.78,-5.66,-5.61,5.18,5.19,5.20
101.25,10.89,5.76,10.91,5.78,-5.80,-5.66,-5.67,5.08,5.10,5.12
102.27,10.86,5.81,10.86,5.81,-5.82,-5.66,-5.74,5.03,5.04,5.05
103.29,10.84,5.86,10.82,5.85,-5.84,-5.66,-5.80,4.99,4.98,4.97
104.32,10.79,5.89,10.77,5.87,-5.85,-5.66,-5.87,4.93,4.92,4.89
105.37,10.69,5.87,10.69,5.88,-5.86,-5.66,-5.94,4.82,4.83,4.82
106.42,10.61,5.87,10.62,5.89,-5.87,-5.67,-6.01,4.73,4.75,4.73
107.48,10.55,5.89,10.54,5.88,-5.88,-5.67,-6.08,4.67,4.66,4.66
108.56,10.50,5.91,10.46,5.88,-5.89,-5.67,-6.15,4.61,4.57,4.59
109.64,10.36,5.84,10.38,5.86,-5.89,-5.68,-6.22,4.46,4.48,4.51
110.74,10.29,5.85,10.31,5.87,-5.89,-5.68,-6.28,4.39,4.41,4.44
111.85,10.27,5.89,10.27,5.90,-5.90,-5.68,-6.35,4.37,4.37,4.37
112.97,10.26,5.95,10.23,5.93,-5.90,-5.69,-6.41,4.35,4.33,4.31
114.10,10.21,5.96,10.18,5.94,-5.91,-5.69,-6.46,4.30,4.27,4.24
115.24,10.07,5.89,10.11,5.93,-5.92,-5.70,-6.51,4.15,4.19,4.18
116.39,10.04,5.92,10.03,5.92,-5.93,-5.70,-6.56,4.11,4.10,4.11
117.55,9.98,5.92,9.96,5.91,-5.94,-5.71,-6.60,4.04,4.03,4.06
118.73,9.93,5.93,9.93,5.93,-5.95,-5.72,-6.64,3.98,3.98,3.99
119.92,9.87,5.93,9.89,5.95,-5.95,-5.72,-6.67,3.92,3.94,3.94
121.12,9.87,5.98,9.85,5.97,-5.95,-5.73,-6.70,3.91,3.90,3.89
122.33,9.83,5.99,9.80,5.97,-5.95,-5.74,-6.71,3.87,3.85,3.84
123.55,9.75,5.96,9.77,5.98,-5.96,-5.74,-6.72,3.78,3.81,3.78
124.79,9.69,5.95,9.71,5.98,-5.97,-5.75,-6.72,3.72,3.74,3.73
126.03,9.70,6.01,9.64,5.96,-5.97,-5.76,-6.72,3.72,3.67,3.68
127.29,9.58,5.94,9.59,5.95,-5.98,-5.77,-6.70,3.59,3.61,3.63
128.57,9.51,5.92,9.54,5.96,-5.98,-5.78,-6.68,3.52,3.56,3.58
129.85,9.52,5.98,9.51,5.98,-5.99,-5.78,-6.65,3.53,3.53,3.53
131.15,9.52,6.03,9.49,6.01,-5.99,-5.79,-6.62,3.53,3.50,3.49
132.46,9.48,6.04,9.45,6.02,-5.99,-5.80,-6.57,3.48,3.46,3.44
133.79,9.37,5.97,9.40,6.01,-5.99,-5.81,-6.53,3.37,3.41,3.39
135.12,9.34,5.99,9.34,5.99,-5.99,-5.81,-6.47,3.34,3.34,3.35
136.48,9.31,6.00,9.27,5.97,-5.99,-5.82,-6.41,3.32,3.28,3.30
137.84,9.20,5.94,9.23,5.97,-5.97,-5.83,-6.35,3.22,3.25,3.26
139.22,9.16,5.95,9.17,5.96,-5.96,-5.83,-6.28,3.20,3.21,3.20
140.61,9.14,5.98,9.10,5.94,-5.94,-5.84,-6.21,3.19,3.16,3.16
142.02,9.04,5.93,9.04,5.94,-5.93,-5.85,-6.14,3.11,3.12,3.11
143.44,8.97,5.91,8.98,5.92,-5.92,-5.85,-6.06,3.05,3.06,3.06
144.87,8.91,5.90,8.90,5.89,-5.91,-5.85,-5.98,3.00,2.99,3.01
146.32,8.86,5.89,8.84,5.88,-5.90,-5.86,-5.91,2.96,2.94,2.97
147.78,8.78,5.86,8.80,5.88,-5.89,-5.86,-5.83,2.89,2.91,2.92
149.26,8.75,5.88,8.76,5.89,-5.88,-5.86,-5.75,2.87,2.88,2.87
150.75,8.74,5.91,8.70,5.88,-5.87,-5.86,-5.67,2.87,2.83,2.82
152.26,8.65,5.87,8.64,5.86,-5.85,-5.86,-5.60,2.79,2.79,2.78
153.78,8.55,5.80,8.59,5.85,-5.84,-5.86,-5.52,2.70,2.74,2.74
155.32,8.54,5.84,8.52,5.82,-5.83,-5.86,-5.45,2.70,2.69,2.70
156.88,8.50,5.84,8.46,5.81,-5.82,-5.85,-5.38,2.68,2.64,2.65
158.44,8.38,5.77,8.41,5.80,-5.80,-5.85,-5.31,2.58,2.61,2.61
160.03,8.34,5.77,8.34,5.78,-5.78,-5.84,-5.24,2.55,2.56,2.57
161.63,8.31,5.79,8.27,5.75,-5.76,-5.83,-5.18,2.55,2.51,2.52
163.24,8.20,5.72,8.22,5.74,-5.73,-5.82,-5.11,2.46,2.48,2.48
164.88,8.13,5.69,8.15,5.72,-5.71,-5.81,-5.06,2.42,2.45,2.44
166.53,8.13,5.73,8.08,5.68,-5.67,-5.80,-5.00,2.45,2.40,2.40
168.19,8.00,5.64,8.01,5.65,-5.64,-5.78,-4.95,2.36,2.37,2.36
169.87,7.92,5.60,7.92,5.60,-5.59,-5.76,-4.90,2.32,2.33,2.32
171.57,7.84,5.55,7.82,5.54,-5.55,-5.74,-4.86,2.28,2.27,2.28
173.29,7.74,5.49,7.76,5.51,-5.51,-5.72,-4.82,2.22,2.25,2.25
175.02,7.70,5.47,7.69,5.47,-5.47,-5.70,-4.78,2.22,2.22,2.22
176.77,7.66,5.47,7.61,5.43,-5.45,-5.68,-4.75,2.21,2.17,2.19
178.54,7.53,5.37,7.55,5.40,-5.42,-5.65,-4.72,2.10,2.13,2.15
180.32,7.49,5.36,7.51,5.38,-5.40,-5.63,-4.69,2.08,2.11,2.13
182.13,7.50,5.39,7.49,5.38,-5.38,-5.59,-4.67,2.11,2.11,2.11
183.95,7.51,5.42,7.47,5.39,-5.37,-5.56,-4.65,2.14,2.11,2.09
185.79,7.45,5.38,7.44,5.38,-5.35,-5.53,-4.64,2.10,2.09,2.06
187.65,7.36,5.31,7.39,5.35,-5.33,-5.50,-4.62,2.02,2.06,2.04
189.52,7.35,5.32,7.33,5.30,-5.31,-5.46,-4.62,2.03,2.02,2.02
191.42,7.30,5.28,7.27,5.26,-5.29,-5.42,-4.61,2.01,1.99,2.01
193.33,7.21,5.21,7.24,5.25,-5.25,-5.38,-4.61,1.95,1.99,1.99
195.27,7.19,5.21,7.19,5.21,-5.21,-5.34,-4.61,1.97,1.98,1.98
197.22,7.18,5.22,7.14,5.18,-5.17,-5.29,-4.61,2.01,1.97,1.96
199.19,7.08,5.13,7.09,5.15,-5.13,-5.25,-4.61,1.95,1.97,1.94
201.18,7.02,5.09,7.01,5.09,-5.08,-5.20,-4.62,1.93,1.93,1.92
203.19,6.94,5.03,6.93,5.02,-5.04,-5.15,-4.63,1.90,1.90,1.91
205.23,6.85,4.95,6.87,4.98,-4.99,-5.10,-4.64,1.86,1.89,1.89
207.28,6.83,4.95,6.80,4.93,-4.94,-5.05,-4.65,1.89,1.87,1.88
209.35,6.76,4.89,6.74,4.88,-4.88,-5.00,-4.67,1.87,1.85,1.86
211.44,6.65,4.81,6.68,4.84,-4.83,-4.95,-4.68,1.81,1.85,1.84
213.56,6.62,4.79,6.61,4.78,-4.79,-4.89,-4.70,1.83,1.82,1.83
215.69,6.58,4.77,6.54,4.73,-4.74,-4.83,-4.71,1.84,1.80,1.80
217.85,6.44,4.65,6.48,4.70,-4.69,-4.78,-4.73,1.75,1.79,1.79
220.03,6.42,4.65,6.41,4.64,-4.63,-4.72,-4.74,1.78,1.77,1.77
222.23,6.37,4.61,6.33,4.58,-4.58,-4.66,-4.75,1.79,1.76,1.76
224.45,6.26,4.51,6.28,4.54,-4.52,-4.60,-4.76,1.74,1.76,1.74
226.70,6.20,4.46,6.20,4.47,-4.46,-4.54,-4.77,1.74,1.74,1.73
228.96,6.15,4.42,6.12,4.39,-4.40,-4.48,-4.77,1.74,1.71,1.72
231.25,6.04,4.31,6.05,4.33,-4.35,-4.41,-4.77,1.69,1.70,1.72
233.57,5.97,4.25,5.99,4.28,-4.29,-4.35,-4.77,1.68,1.70,1.71
235.90,5.94,4.23,5.93,4.23,-4.23,-4.29,-4.77,1.70,1.70,1.70
238.26,5.92,4.21,5.89,4.19,-4.18,-4.22,-4.76,1.73,1.71,1.70
240.64,5.84,4.13,5.84,4.14,-4.13,-4.16,-4.74,1.70,1.71,1.70
243.05,5.79,4.08,5.79,4.09,-4.08,-4.09,-4.72,1.70,1.71,1.70
245.48,5.74,4.03,5.74,4.03,-4.04,-4.03,-4.70,1.70,1.70,1.71
247.93,5.71,4.00,5.70,3.99,-3.99,-3.96,-4.67,1.72,1.71,1.71
250.41,5.66,3.94,5.65,3.94,-3.94,-3.90,-4.63,1.71,1.71,1.71
252.92,5.60,3.88,5.60,3.89,-3.89,-3.83,-4.59,1.70,1.71,1.71
255.45,5.56,3.85,5.55,3.84,-3.84,-3.76,-4.54,1.72,1.71,1.71
258.00,5.50,3.79,5.50,3.79,-3.79,-3.70,-4.49,1.71,1.71,1.71
260.58,5.44,3.73,5.44,3.74,-3.74,-3.63,-4.43,1.70,1.70,1.70
263.19,5.39,3.69,5.37,3.68,-3.69,-3.56,-4.37,1.70,1.69,1.70
265.82,5.31,3.63,5.31,3.63,-3.63,-3.50,-4.30,1.67,1.68,1.68
268.48,5.25,3.57,5.25,3.58,-3.58,-3.43,-4.23,1.66,1.67,1.67
271.16,5.20,3.54,5.18,3.52,-3.53,-3.37,-4.15,1.66,1.65,1.66
273.87,5.11,3.45,5.12,3.47,-3.48,-3.30,-4.07,1.63,1.64,1.65
276.61,5.06,3.42,5.05,3.41,-3.41,-3.23,-3.99,1.64,1.64,1.64
279.38,4.99,3.37,4.98,3.36,-3.35,-3.17,-3.90,1.64,1.64,1.62
282.17,4.91,3.29,4.92,3.30,-3.27,-3.10,-3.81,1.63,1.64,1.62
284.99,4.86,3.24,4.84,3.23,-3.20,-3.04,-3.72,1.65,1.64,1.61
287.84,4.75,3.13,4.74,3.13,-3.13,-2.97,-3.62,1.61,1.61,1.62
290.72,4.66,3.04,4.64,3.03,-3.06,-2.90,-3.52,1.59,1.58,1.61
293.63,4.53,2.92,4.57,2.96,-2.99,-2.84,-3.42,1.53,1.58,1.61
296.57,4.52,2.90,4.52,2.91,-2.93,-2.77,-3.32,1.59,1.59,1.61
299.53,4.53,2.91,4.48,2.86,-2.87,-2.71,-3.22,1.66,1.61,1.62
302.53,4.44,2.82,4.45,2.83,-2.81,-2.65,-3.12,1.62,1.63,1.61
305.55,4.37,2.74,4.40,2.78,-2.76,-2.58,-3.02,1.60,1.63,1.62
308.61,4.36,2.74,4.33,2.72,-2.72,-2.52,-2.92,1.64,1.61,1.62
311.69,4.30,2.68,4.28,2.67,-2.67,-2.46,-2.82,1.63,1.61,1.61
314.81,4.21,2.60,4.24,2.63,-2.61,-2.39,-2.72,1.59,1.62,1.61
317.96,4.18,2.57,4.16,2.55,-2.55,-2.33,-2.62,1.63,1.61,1.61
321.14,4.12,2.51,4.10,2.49,-2.48,-2.27,-2.52,1.63,1.61,1.60
324.35,4.00,2.38,4.03,2.42,-2.41,-2.21,-2.42,1.58,1.62,1.61
327.59,3.97,2.36,3.95,2.34,-2.34,-2.14,-2.32,1.62,1.61,1.61
330.87,3.88,2.27,3.86,2.26,-2.27,-2.08,-2.22,1.60,1.59,1.60
334.18,3.79,2.18,3.79,2.19,-2.20,-2.02,-2.13,1.59,1.59,1.60
337.52,3.69,2.09,3.71,2.12,-2.12,-1.96,-2.03,1.56,1.59,1.60
340.90,3.67,2.07,3.65,2.05,-2.05,-1.90,-1.94,1.61,1.60,1.60
344.30,3.62,2.01,3.59,1.99,-1.98,-1.84,-1.84,1.63,1.61,1.60
347.75,3.52,1.90,3.53,1.92,-1.91,-1.78,-1.75,1.60,1.62,1.61
351.23,3.45,1.85,3.45,1.84,-1.84,-1.72,-1.66,1.60,1.61,1.60
354.74,3.39,1.77,3.38,1.77,-1.77,-1.66,-1.57,1.62,1.61,1.62
358.28,3.32,1.70,3.32,1.70,-1.70,-1.60,-1.49,1.62,1.62,1.62
361.87,3.27,1.64,3.25,1.62,-1.62,-1.54,-1.40,1.65,1.63,1.62
365.49,3.17,1.53,3.18,1.55,-1.54,-1.49,-1.31,1.62,1.64,1.63
369.14,3.10,1.47,3.10,1.47,-1.47,-1.43,-1.23,1.62,1.63,1.63
372.83,3.06,1.41,3.03,1.38,-1.40,-1.37,-1.15,1.65,1.62,1.65
376.56,2.95,1.30,2.97,1.33,-1.33,-1.31,-1.06,1.61,1.64,1.65
380.33,2.91,1.26,2.91,1.27,-1.27,-1.25,-0.98,1.64,1.64,1.64
384.13,2.89,1.24,2.85,1.20,-1.21,-1.20,-0.90,1.68,1.64,1.64
387.97,2.78,1.13,2.80,1.16,-1.15,-1.14,-0.82,1.62,1.65,1.64
391.85,2.73,1.08,2.74,1.10,-1.10,-1.08,-0.75,1.63,1.64,1.65
395.77,2.71,1.07,2.67,1.02,-1.04,-1.02,-0.67,1.67,1.63,1.64
399.73,2.60,0.96,2.61,0.98,-0.97,-0.97,-0.59,1.62,1.64,1.64
403.72,2.53,0.89,2.55,0.93,-0.90,-0.91,-0.52,1.62,1.65,1.64
407.76,2.51,0.89,2.47,0.85,-0.83,-0.85,-0.45,1.67,1.64,1.61
411.84,2.41,0.79,2.39,0.77,-0.76,-0.80,-0.37,1.65,1.63,1.61
415.96,2.26,0.64,2.29,0.68,-0.68,-0.74,-0.30,1.58,1.61,1.61
420.12,2.19,0.58,2.19,0.58,-0.60,-0.68,-0.23,1.59,1.59,1.60
424.32,2.13,0.52,2.11,0.50,-0.53,-0.62,-0.16,1.60,1.59,1.61
428.56,2.06,0.44,2.07,0.45,-0.46,-0.57,-0.09,1.60,1.61,1.62
432.85,2.03,0.39,2.02,0.38,-0.39,-0.51,-0.03,1.63,1.62,1.64
437.18,1.99,0.34,1.97,0.32,-0.34,-0.45,0.04,1.65,1.63,1.65
441.55,1.94,0.25,1.95,0.27,-0.28,-0.39,0.10,1.65,1.67,1.69
445.96,1.94,0.21,1.97,0.25,-0.23,-0.34,0.16,1.71,1.74,1.72
450.42,2.01,0.23,1.98,0.21,-0.18,-0.28,0.23,1.83,1.80,1.77
454.93,2.03,0.20,1.97,0.15,-0.13,-0.22,0.29,1.90,1.85,1.82
459.48,1.92,0.03,1.95,0.07,-0.07,-0.16,0.35,1.84,1.88,1.88
464.07,1.89,-0.05,1.92,-0.01,-0.02,-0.10,0.40,1.87,1.90,1.93
468.71,1.94,-0.04,1.91,-0.07,0.05,-0.04,0.46,1.98,1.96,1.98
473.40,1.94,-0.10,1.93,-0.11,0.12,0.01,0.51,2.05,2.05,2.04
478.13,1.94,-0.16,1.93,-0.16,0.19,0.07,0.57,2.13,2.12,2.10
482.91,1.91,-0.24,1.90,-0.24,0.26,0.13,0.62,2.17,2.17,2.15
487.74,1.87,-0.32,1.86,-0.33,0.34,0.20,0.67,2.20,2.19,2.19
492.62,1.80,-0.43,1.81,-0.42,0.41,0.26,0.71,2.20,2.22,2.23
497.55,1.76,-0.51,1.76,-0.50,0.48,0.32,0.76,2.23,2.24,2.27
502.52,1.74,-0.55,1.72,-0.57,0.56,0.38,0.81,2.29,2.27,2.29
507.55,1.67,-0.65,1.68,-0.63,0.64,0.44,0.85,2.30,2.32,2.31
512.62,1.63,-0.70,1.63,-0.70,0.72,0.51,0.89,2.34,2.35,2.32
517.75,1.57,-0.76,1.57,-0.76,0.79,0.57,0.93,2.35,2.35,2.32
