frequency,raw
20,11.30
21,11.48
22,11.64
23,11.78
24,11.91
25,12.03
26,12.14
27,12.23
28,12.32
29,12.40
30,12.46
31,12.53
32,12.58
33,12.63
34,12.67
35,12.71
36,12.74
37,12.76
38,12.79
39,12.80
40,12.82
41,12.83
42,12.84
43,12.84
44,12.84
45,12.84
46,12.84
47,12.83
48,12.82
49,12.83
50,12.84
51,12.83
52,12.76
53,12.68
54,12.66
55,12.68
56,12.68
57,12.64
58,12.59
59,12.54
60,12.54
61,12.53
62,12.52
63,12.49
64,12.46
65,12.43
66,12.39
67,12.36
68,12.32
69,12.29
70,12.27
71,12.23
72,12.21
73,12.19
74,12.15
75,12.10
76,12.04
77,11.98
78,11.93
79,11.90
80,11.88
81,11.86
82,11.82
83,11.79
84,11.75
85,11.72
86,11.66
87,11.62
88,11.58
89,11.53
90,11.50
91,11.47
92,11.44
93,11.41
94,11.36
95,11.33
96,11.29
97,11.24
98,11.19
99,11.14
100,11.08
101,11.02
102,10.98
104,10.93
105,10.90
106,10.86
107,10.82
108,10.78
109,10.73
110,10.67
111,10.63
112,10.59
113,10.55
114,10.52
115,10.48
117,10.41
118,10.37
119,10.33
120,10.29
121,10.25
123,10.16
124,10.12
125,10.08
126,10.04
128,9.98
129,9.95
130,9.92
131,9.88
133,9.81
134,9.76
135,9.70
137,9.61
138,9.56
140,9.48
141,9.43
142,9.39
144,9.31
145,9.28
147,9.21
148,9.16
150,9.09
151,9.05
153,8.99
154,8.95
156,8.86
157,8.82
159,8.75
160,8.72
162,8.64
164,8.57
165,8.54
167,8.47
169,8.40
170,8.37
172,8.30
174,8.23
175,8.20
177,8.13
179,8.05
181,7.97
183,7.88
184,7.84
186,7.76
188,7.70
190,7.64
192,7.59
194,7.53
196,7.48
198,7.42
200,7.36
202,7.30
204,7.23
206,7.18
208,7.12
210,7.06
212,7.01
214,6.94
216,6.88
218,6.80
221,6.69
223,6.62
225,6.55
227,6.49
229,6.44
232,6.36
234,6.30
236,6.25
239,6.17
241,6.11
244,6.04
246,5.98
248,5.92
251,5.85
253,5.79
256,5.72
259,5.63
261,5.58
264,5.50
266,5.44
269,5.36
272,5.28
274,5.23
277,5.15
280,5.07
283,5.00
286,4.92
288,4.87
291,4.80
294,4.73
297,4.66
300,4.59
303,4.52
306,4.45
309,4.39
312,4.32
316,4.24
319,4.18
322,4.12
325,4.06
328,4.01
332,3.94
335,3.89
338,3.84
342,3.78
345,3.74
349,3.68
352,3.63
356,3.58
359,3.53
363,3.47
366,3.42
370,3.36
374,3.29
377,3.25
381,3.18
385,3.11
389,3.04
393,2.97
397,2.90
401,2.83
405,2.76
409,2.69
413,2.62
417,2.55
421,2.47
425,2.40
430,2.31
434,2.23
438,2.16
443,2.08
447,2.02
451,1.96
456,1.87
460,1.81
465,1.74
470,1.67
474,1.61
479,1.54
484,1.47
489,1.40
494,1.33
499,1.26
504,1.18
509,1.10
514,1.02
519,0.93
524,0.84
529,0.76
535,0.69
540,0.62
545,0.57
551,0.51
556,0.46
562,0.39
568,0.32
573,0.26
579,0.18
585,0.11
591,0.05
596,-0.01
602,-0.07
608,-0.13
615,-0.21
621,-0.29
627,-0.37
633,-0.45
639,-0.53
646,-0.61
652,-0.67
659,-0.72
665,-0.77
672,-0.83
679,-0.90
686,-0.98
692,-1.04
699,-1.12
706,-1.18
713,-1.24
721,-1.30
728,-1.35
735,-1.40
742,-1.46
750,-1.53
757,-1.60
765,-1.68
773,-1.74
780,-1.78
788,-1.82
796,-1.86
804,-1.88
812,-1.90
820,-1.91
828,-1.92
837,-1.91
845,-1.90
853,-1.88
862,-1.84
871,-1.79
879,-1.74
888,-1.65
897,-1.57
906,-1.46
915,-1.35
924,-1.23
933,-1.10
943,-0.95
952,-0.79
962,-0.62
971,-0.46
981,-0.29
991,-0.14
1001,0.02
1011,0.15
1021,0.29
1031,0.42
1041,0.56
1052,0.71
1062,0.84
1073,0.99
1084,1.14
1094,1.26
1105,1.39
1116,1.52
1128,1.65
1139,1.74
1150,1.83
1162,1.91
1173,1.98
1185,2.05
1197,2.12
1209,2.19
1221,2.26
1233,2.32
1246,2.41
1258,2.49
1271,2.59
1283,2.68
1296,2.77
1309,2.84
1322,2.89
1335,2.94
1349,2.97
1362,3.00
1376,3.03
1390,3.06
1404,3.09
1418,3.10
1432,3.11
1446,3.09
1461,3.07
1475,3.05
1490,3.04
1505,3.04
1520,3.05
1535,3.07
1550,3.10
1566,3.12
1582,3.14
1597,3.16
1613,3.17
1629,3.20
1646,3.23
1662,3.26
1679,3.30
1696,3.35
1713,3.41
1730,3.47
1747,3.55
1764,3.63
1782,3.71
1800,3.79
1818,3.88
1836,3.96
1854,4.04
1873,4.13
1892,4.22
1911,4.31
1930,4.41
1949,4.50
1969,4.59
1988,4.68
2008,4.79
2028,4.90
2048,5.03
2069,5.16
2090,5.30
2111,5.43
2132,5.56
2153,5.68
2175,5.81
2196,5.92
2218,6.06
2240,6.19
2263,6.33
2285,6.48
2308,6.63
2331,6.78
2355,6.91
2378,7.04
2402,7.18
2426,7.31
2450,7.45
2475,7.64
2500,7.82
2525,8.01
2550,8.22
2575,8.42
2601,8.62
2627,8.81
2653,8.98
2680,9.13
2707,9.27
2734,9.40
2761,9.53
2789,9.65
2817,9.79
2845,9.92
2873,10.07
2902,10.24
2931,10.40
2960,10.54
2990,10.69
3020,10.80
3050,10.92
3080,11.01
3111,11.09
3142,11.16
3174,11.21
3206,11.23
3238,11.24
3270,11.23
3303,11.21
3336,11.19
3369,11.16
3403,11.11
3437,11.05
3471,11.01
3506,10.94
3541,10.86
3576,10.76
3612,10.64
3648,10.52
3685,10.39
3721,10.27
3759,10.14
3796,10.02
3834,9.90
3873,9.79
3911,9.68
3950,9.58
3990,9.48
4030,9.35
4070,9.24
4111,9.12
4152,9.01
4193,8.90
4235,8.80
4278,8.70
4321,8.62
4364,8.55
4407,8.50
4451,8.48
4496,8.48
4541,8.48
4586,8.49
4632,8.51
4679,8.52
4725,8.56
4773,8.59
4820,8.60
4868,8.61
4917,8.63
4966,8.64
5016,8.68
5066,8.73
5117,8.80
5168,8.92
5220,9.06
5272,9.21
5325,9.40
5378,9.59
5432,9.79
5486,10.00
5541,10.21
5596,10.43
5652,10.67
5709,10.93
5766,11.17
5823,11.39
5882,11.62
5940,11.84
6000,12.04
6060,12.23
6120,12.39
6182,12.53
6244,12.63
6306,12.67
6369,12.65
6433,12.57
6497,12.44
6562,12.29
6628,12.08
6694,11.82
6761,11.52
6828,11.20
6897,10.81
6966,10.42
7035,10.04
7106,9.62
7177,9.24
7249,8.87
7321,8.52
7394,8.15
7468,7.78
7543,7.43
7618,7.12
7694,6.84
7771,6.61
7849,6.42
7928,6.26
8007,6.10
8087,6.00
8168,5.91
8250,5.86
8332,5.90
8415,5.98
8499,6.09
8584,6.16
8670,6.20
8757,6.23
8845,6.33
8933,6.61
9022,6.80
9113,7.23
9204,7.78
9296,8.28
9389,8.71
9483,9.03
9577,9.24
9673,9.36
9770,9.30
9868,9.08
9966,8.71
10066,8.12
10167,7.40
10268,6.61
10371,5.70
10475,4.73
10579,3.84
10685,3.00
10792,2.19
10900,1.40
11009,0.64
11119,-0.05
11230,-0.71
11343,-1.24
11456,-1.45
11571,-2.24
11686,-3.39
11803,-3.71
11921,-4.22
12040,-4.67
12161,-4.79
12282,-5.23
12405,-5.62
12529,-5.90
12655,-6.13
12781,-6.28
12909,-6.41
13038,-6.46
13168,-6.51
13300,-6.50
13433,-6.30
13567,-6.07
13703,-5.81
13840,-5.58
13978,-5.25
14118,-4.87
14259,-4.41
14402,-3.83
14546,-3.16
14692,-2.40
14838,-1.43
14987,-0.34
15137,0.85
15288,2.13
15441,3.33
15595,4.40
15751,5.13
15909,5.42
16068,5.37
16229,4.87
16391,3.98
16555,2.94
16720,1.78
16888,0.70
17056,-0.26
17227,-1.10
17399,-1.67
17573,-2.08
17749,-2.34
17926,-2.39
18106,-2.31
18287,-2.17
18470,-1.97
18654,-1.83
18841,-1.78
19029,-1.90
19220,-2.36
19412,-3.00
19606,-3.86
19802,-4.97
20000,-6.12
