frequency,raw,smoothed,error,error_smoothed,equalization,parametric_eq,fixed_band_eq,equalized_raw,equalized_smoothed,target
20.00,5.33,5.32,1.22,1.22,-1.22,-1.53,-0.80,4.10,4.10,4.11
20.20,5.37,5.37,1.23,1.24,-1.24,-1.53,-0.83,4.13,4.14,4.14
20.40,5.42,5.42,1.25,1.25,-1.25,-1.53,-0.85,4.17,4.17,4.17
20.61,5.46,5.46,1.27,1.27,-1.26,-1.54,-0.88,4.20,4.20,4.19
20.81,5.50,5.50,1.28,1.28,-1.27,-1.54,-0.90,4.23,4.23,4.22
21.02,5.54,5.53,1.29,1.29,-1.28,-1.54,-0.93,4.26,4.25,4.25
21.23,5.55,5.55,1.29,1.30,-1.29,-1.54,-0.96,4.26,4.26,4.26
21.44,5.57,5.57,1.30,1.30,-1.30,-1.55,-0.98,4.27,4.27,4.27
21.66,5.58,5.58,1.30,1.31,-1.31,-1.55,-1.01,4.27,4.27,4.27
21.87,5.59,5.59,1.31,1.31,-1.31,-1.55,-1.04,4.28,4.28,4.27
22.09,5.60,5.60,1.31,1.32,-1.32,-1.55,-1.07,4.28,4.28,4.28
22.31,5.61,5.61,1.33,1.32,-1.32,-1.56,-1.10,4.28,4.28,4.28
22.54,5.62,5.61,1.34,1.33,-1.34,-1.56,-1.13,4.28,4.28,4.28
22.76,5.62,5.62,1.34,1.34,-1.35,-1.56,-1.17,4.27,4.27,4.28
22.99,5.63,5.63,1.36,1.36,-1.37,-1.56,-1.20,4.26,4.26,4.27
23.22,5.65,5.65,1.38,1.38,-1.39,-1.57,-1.23,4.26,4.26,4.27
23.45,5.68,5.67,1.41,1.41,-1.41,-1.57,-1.27,4.27,4.27,4.27
23.69,5.70,5.70,1.43,1.43,-1.43,-1.57,-1.31,4.27,4.27,4.27
23.92,5.72,5.72,1.45,1.44,-1.45,-1.58,-1.34,4.27,4.27,4.27
24.16,5.73,5.73,1.45,1.45,-1.46,-1.58,-1.38,4.27,4.27,4.28
24.40,5.73,5.73,1.45,1.46,-1.45,-1.58,-1.42,4.28,4.28,4.28
24.65,5.73,5.73,1.46,1.46,-1.43,-1.59,-1.45,4.30,4.30,4.27
24.89,5.73,5.72,1.46,1.45,-1.40,-1.59,-1.49,4.33,4.32,4.26
25.14,5.69,5.68,1.42,1.42,-1.37,-1.59,-1.53,4.32,4.31,4.26
25.39,5.62,5.61,1.35,1.35,-1.35,-1.60,-1.57,4.27,4.27,4.26
25.65,5.55,5.54,1.29,1.28,-1.34,-1.60,-1.61,4.21,4.20,4.26
25.91,5.48,5.50,1.23,1.25,-1.34,-1.60,-1.65,4.14,4.16,4.25
26.16,5.51,5.52,1.26,1.27,-1.36,-1.61,-1.69,4.15,4.16,4.25
26.43,5.61,5.60,1.36,1.36,-1.39,-1.61,-1.73,4.21,4.21,4.25
26.69,5.71,5.71,1.46,1.46,-1.44,-1.61,-1.76,4.27,4.27,4.25
26.96,5.81,5.79,1.56,1.54,-1.48,-1.62,-1.80,4.32,4.30,4.25
27.23,5.83,5.83,1.58,1.58,-1.52,-1.62,-1.84,4.31,4.30,4.24
27.50,5.83,5.84,1.59,1.60,-1.54,-1.63,-1.88,4.29,4.30,4.24
27.77,5.83,5.83,1.60,1.59,-1.54,-1.63,-1.91,4.28,4.29,4.23
28.05,5.82,5.80,1.59,1.57,-1.53,-1.63,-1.95,4.28,4.27,4.23
28.33,5.74,5.73,1.52,1.51,-1.52,-1.64,-1.98,4.22,4.22,4.22
28.62,5.67,5.66,1.45,1.45,-1.51,-1.64,-2.01,4.16,4.15,4.22
28.90,5.60,5.63,1.38,1.41,-1.51,-1.65,-2.04,4.09,4.11,4.22
29.19,5.64,5.66,1.43,1.45,-1.53,-1.65,-2.07,4.11,4.13,4.20
29.48,5.75,5.74,1.54,1.53,-1.56,-1.66,-2.09,4.19,4.18,4.21
29.78,5.85,5.84,1.65,1.64,-1.60,-1.66,-2.12,4.25,4.24,4.20
30.08,5.93,5.91,1.73,1.71,-1.64,-1.66,-2.14,4.28,4.26,4.20
30.38,5.93,5.93,1.74,1.74,-1.69,-1.67,-2.16,4.24,4.24,4.19
30.68,5.93,5.94,1.74,1.75,-1.73,-1.67,-2.17,4.19,4.20,4.18
30.99,5.93,5.93,1.76,1.75,-1.76,-1.68,-2.19,4.17,4.17,4.17
31.30,5.93,5.93,1.76,1.76,-1.77,-1.68,-2.20,4.16,4.16,4.17
31.61,5.93,5.93,1.76,1.77,-1.77,-1.69,-2.21,4.16,4.16,4.17
31.93,5.93,5.93,1.77,1.77,-1.76,-1.70,-2.21,4.17,4.16,4.16
32.24,5.92,5.91,1.77,1.76,-1.76,-1.70,-2.22,4.15,4.15,4.14
32.57,5.90,5.89,1.76,1.76,-1.77,-1.71,-2.22,4.12,4.12,4.14
32.89,5.88,5.89,1.74,1.76,-1.79,-1.71,-2.22,4.09,4.10,4.14
33.22,5.91,5.91,1.78,1.79,-1.81,-1.72,-2.21,4.09,4.10,4.13
33.55,5.96,5.96,1.84,1.84,-1.84,-1.72,-2.21,4.12,4.12,4.12
33.89,6.01,6.00,1.90,1.89,-1.86,-1.73,-2.20,4.14,4.13,4.11
34.23,6.03,6.02,1.92,1.92,-1.89,-1.73,-2.19,4.14,4.13,4.11
34.57,6.03,6.03,1.93,1.94,-1.92,-1.74,-2.18,4.11,4.11,4.09
34.92,6.03,6.03,1.95,1.95,-1.95,-1.75,-2.17,4.08,4.08,4.08
35.27,6.03,6.03,1.95,1.95,-1.97,-1.75,-2.16,4.06,4.06,4.08
35.62,6.03,6.03,1.96,1.96,-1.98,-1.76,-2.15,4.05,4.05,4.06
35.97,6.03,6.03,1.98,1.98,-1.99,-1.77,-2.13,4.04,4.04,4.05
36.33,6.04,6.04,1.99,2.00,-1.99,-1.77,-2.12,4.05,4.05,4.05
36.70,6.04,6.04,2.01,2.01,-1.98,-1.78,-2.10,4.05,4.06,4.03
37.06,6.04,6.02,2.02,2.00,-1.98,-1.79,-2.09,4.06,4.04,4.02
37.43,6.00,5.99,1.98,1.98,-1.98,-1.79,-2.07,4.02,4.02,4.01
37.81,5.95,5.96,1.95,1.96,-1.97,-1.80,-2.06,3.97,3.99,4.00
38.19,5.93,5.93,1.94,1.94,-1.97,-1.81,-2.04,3.96,3.97,3.99
38.57,5.93,5.92,1.95,1.95,-1.96,-1.82,-2.03,3.97,3.96,3.98
38.95,5.93,5.93,1.96,1.96,-1.96,-1.82,-2.01,3.97,3.97,3.97
39.34,5.93,5.93,1.98,1.98,-1.97,-1.83,-2.00,3.96,3.96,3.95
39.74,5.93,5.93,1.99,1.99,-1.99,-1.84,-1.99,3.94,3.94,3.94
40.14,5.93,5.92,2.00,1.99,-2.02,-1.85,-1.98,3.90,3.90,3.93
40.54,5.93,5.92,2.01,2.01,-2.05,-1.85,-1.97,3.87,3.87,3.91
40.94,5.93,5.96,2.02,2.05,-2.07,-1.86,-1.96,3.85,3.88,3.91
41.35,6.00,6.02,2.11,2.12,-2.08,-1.87,-1.95,3.91,3.93,3.89
41.76,6.09,6.06,2.20,2.17,-2.09,-1.88,-1.95,4.00,3.97,3.89
42.18,6.08,6.03,2.20,2.16,-2.08,-1.89,-1.94,3.99,3.95,3.88
42.60,5.95,5.96,2.08,2.09,-2.08,-1.90,-1.94,3.87,3.88,3.86
43.03,5.83,5.87,1.97,2.02,-2.07,-1.91,-1.94,3.76,3.80,3.86
43.46,5.83,5.82,1.99,1.99,-2.06,-1.92,-1.94,3.77,3.76,3.84
43.90,5.83,5.82,2.02,2.00,-2.04,-1.92,-1.94,3.79,3.77,3.81
44.33,5.83,5.83,2.03,2.03,-2.03,-1.93,-1.94,3.79,3.79,3.79
44.78,5.83,5.83,2.05,2.05,-2.04,-1.94,-1.95,3.79,3.79,3.78
45.23,5.83,5.83,2.07,2.07,-2.06,-1.95,-1.95,3.77,3.77,3.76
45.68,5.83,5.83,2.09,2.09,-2.09,-1.96,-1.96,3.74,3.74,3.74
46.13,5.83,5.83,2.11,2.11,-2.11,-1.97,-1.97,3.71,3.72,3.72
46.60,5.84,5.84,2.13,2.13,-2.13,-1.98,-1.98,3.70,3.70,3.71
47.06,5.85,5.85,2.16,2.16,-2.15,-1.99,-1.99,3.70,3.71,3.69
47.53,5.86,5.86,2.19,2.18,-2.15,-2.00,-2.00,3.71,3.71,3.67
48.01,5.86,5.83,2.20,2.18,-2.16,-2.01,-2.01,3.70,3.68,3.66
48.49,5.80,5.80,2.17,2.17,-2.16,-2.03,-2.03,3.63,3.63,3.63
48.97,5.73,5.75,2.13,2.16,-2.18,-2.04,-2.05,3.55,3.58,3.60
49.46,5.73,5.73,2.16,2.16,-2.20,-2.05,-2.06,3.53,3.53,3.57
49.96,5.73,5.72,2.19,2.17,-2.22,-2.06,-2.08,3.51,3.50,3.54
50.46,5.73,5.72,2.20,2.21,-2.23,-2.07,-2.10,3.49,3.49,3.52
50.96,5.73,5.76,2.23,2.27,-2.25,-2.08,-2.12,3.48,3.52,3.50
51.47,5.79,5.80,2.32,2.32,-2.26,-2.09,-2.14,3.53,3.54,3.47
51.99,5.86,5.79,2.41,2.34,-2.27,-2.11,-2.17,3.58,3.51,3.44
52.51,5.74,5.74,2.31,2.32,-2.29,-2.12,-2.19,3.45,3.46,3.43
53.03,5.63,5.68,2.22,2.27,-2.31,-2.13,-2.21,3.32,3.37,3.41
53.56,5.63,5.62,2.25,2.24,-2.32,-2.14,-2.24,3.30,3.30,3.38
54.10,5.63,5.62,2.27,2.26,-2.33,-2.16,-2.26,3.30,3.29,3.36
54.64,5.64,5.65,2.31,2.32,-2.33,-2.17,-2.28,3.31,3.32,3.33
55.18,5.66,5.67,2.36,2.36,-2.32,-2.18,-2.31,3.34,3.35,3.30
55.74,5.69,5.67,2.41,2.39,-2.31,-2.19,-2.33,3.38,3.36,3.28
56.29,5.65,5.63,2.39,2.38,-2.31,-2.21,-2.35,3.34,3.33,3.26
56.86,5.55,5.54,2.32,2.31,-2.30,-2.22,-2.37,3.25,3.24,3.23
57.42,5.44,5.44,2.24,2.23,-2.28,-2.24,-2.39,3.16,3.16,3.20
58.00,5.32,5.39,2.14,2.21,-2.26,-2.25,-2.41,3.05,3.12,3.18
58.58,5.40,5.38,2.24,2.21,-2.25,-2.26,-2.43,3.15,3.12,3.16
59.16,5.43,5.38,2.29,2.24,-2.25,-2.28,-2.45,3.18,3.13,3.14
59.76,5.36,5.37,2.24,2.25,-2.26,-2.29,-2.47,3.10,3.11,3.12
60.35,5.33,5.35,2.24,2.25,-2.27,-2.31,-2.48,3.06,3.08,3.09
60.96,5.33,5.36,2.26,2.30,-2.28,-2.32,-2.49,3.05,3.07,3.07
61.57,5.39,5.37,2.36,2.34,-2.29,-2.34,-2.51,3.10,3.08,3.02
62.18,5.40,5.34,2.41,2.35,-2.29,-2.35,-2.52,3.11,3.05,2.99
62.80,5.25,5.27,2.28,2.31,-2.28,-2.37,-2.53,2.97,2.99,2.96
63.43,5.16,5.18,2.23,2.25,-2.27,-2.38,-2.53,2.89,2.91,2.93
64.07,5.10,5.12,2.19,2.21,-2.26,-2.40,-2.54,2.84,2.86,2.90
64.71,5.12,5.09,2.24,2.22,-2.25,-2.41,-2.54,2.87,2.84,2.88
65.35,5.09,5.07,2.24,2.22,-2.25,-2.43,-2.54,2.84,2.82,2.85
66.01,5.03,5.05,2.21,2.22,-2.25,-2.45,-2.54,2.78,2.80,2.82
66.67,5.03,5.05,2.23,2.26,-2.25,-2.46,-2.54,2.78,2.80,2.79
67.33,5.06,5.06,2.30,2.30,-2.26,-2.48,-2.54,2.80,2.80,2.76
68.01,5.13,5.05,2.39,2.32,-2.28,-2.50,-2.54,2.85,2.78,2.73
68.69,4.99,5.01,2.29,2.31,-2.29,-2.51,-2.54,2.70,2.72,2.70
69.37,4.93,4.96,2.26,2.29,-2.31,-2.53,-2.53,2.62,2.65,2.67
70.07,4.93,4.92,2.29,2.28,-2.32,-2.55,-2.53,2.60,2.59,2.64
70.77,4.93,4.92,2.31,2.31,-2.34,-2.56,-2.52,2.59,2.58,2.61
71.48,4.93,4.93,2.35,2.35,-2.35,-2.58,-2.52,2.58,2.58,2.58
72.19,4.93,4.93,2.38,2.39,-2.37,-2.60,-2.51,2.56,2.56,2.54
72.91,4.93,4.93,2.42,2.42,-2.39,-2.61,-2.51,2.54,2.54,2.51
73.64,4.93,4.92,2.46,2.45,-2.42,-2.63,-2.50,2.50,2.50,2.47
74.38,4.91,4.89,2.47,2.45,-2.47,-2.65,-2.50,2.44,2.42,2.44
75.12,4.88,4.88,2.47,2.47,-2.52,-2.67,-2.50,2.36,2.36,2.40
75.87,4.85,4.90,2.47,2.52,-2.57,-2.68,-2.50,2.28,2.33,2.37
76.63,4.96,4.94,2.61,2.60,-2.62,-2.70,-2.49,2.34,2.32,2.34
77.40,5.03,4.99,2.71,2.68,-2.67,-2.72,-2.50,2.36,2.32,2.31
78.17,5.03,5.04,2.76,2.76,-2.72,-2.74,-2.50,2.31,2.32,2.27
78.95,5.03,5.05,2.78,2.81,-2.76,-2.76,-2.50,2.27,2.29,2.25
79.74,5.07,5.04,2.85,2.83,-2.80,-2.77,-2.50,2.27,2.25,2.22
80.54,5.04,5.02,2.86,2.84,-2.83,-2.79,-2.51,2.21,2.19,2.18
81.35,4.97,4.98,2.82,2.83,-2.85,-2.81,-2.52,2.12,2.13,2.15
82.16,4.93,4.94,2.82,2.83,-2.87,-2.83,-2.53,2.06,2.07,2.11
82.98,4.93,4.92,2.84,2.84,-2.89,-2.84,-2.54,2.04,2.03,2.08
83.81,4.93,4.92,2.89,2.88,-2.91,-2.86,-2.55,2.02,2.02,2.04
84.65,4.93,4.94,2.93,2.94,-2.92,-2.88,-2.57,2.01,2.02,2.00
85.50,4.95,4.94,2.98,2.98,-2.94,-2.90,-2.58,2.01,2.00,1.97
86.35,4.95,4.92,3.02,2.99,-2.95,-2.91,-2.60,1.99,1.97,1.93
87.22,4.88,4.89,2.99,3.00,-2.97,-2.93,-2.63,1.91,1.92,1.89
88.09,4.83,4.83,2.98,2.98,-2.99,-2.95,-2.65,1.84,1.85,1.85
88.97,4.81,4.78,2.99,2.96,-3.00,-2.97,-2.67,1.81,1.78,1.82
89.86,4.71,4.75,2.93,2.97,-3.00,-2.98,-2.70,1.71,1.75,1.78
90.76,4.73,4.74,3.00,3.00,-3.01,-3.00,-2.73,1.72,1.73,1.73
91.66,4.76,4.72,3.06,3.03,-3.03,-3.02,-2.76,1.73,1.69,1.69
92.58,4.71,4.70,3.07,3.05,-3.04,-3.03,-2.80,1.66,1.66,1.64
93.51,4.64,4.67,3.03,3.06,-3.07,-3.05,-2.83,1.57,1.60,1.61
94.44,4.64,4.65,3.07,3.08,-3.09,-3.06,-2.87,1.55,1.56,1.56
95.39,4.65,4.62,3.13,3.11,-3.10,-3.08,-2.91,1.54,1.52,1.52
96.34,4.61,4.60,3.14,3.13,-3.11,-3.09,-2.95,1.50,1.49,1.46
97.30,4.53,4.56,3.11,3.14,-3.11,-3.11,-2.99,1.42,1.45,1.42
98.28,4.51,4.50,3.13,3.12,-3.11,-3.12,-3.03,1.40,1.39,1.37
99.26,4.45,4.43,3.12,3.11,-3.11,-3.13,-3.08,1.34,1.33,1.33
100.25,4.37,4.37,3.08,3.08,-3.11,-3.14,-3.12,1.26,1.26,1.28
101.25,4.29,4.30,3.05,3.07,-3.10,-3.16,-3.17,1.18,1.20,1.24
102.27,4.25,4.26,3.06,3.07,-3.10,-3.17,-3.22,1.15,1.16,1.19
103.29,4.24,4.23,3.10,3.09,-3.09,-3.18,-3.27,1.14,1.14,1.13
104.32,4.22,4.21,3.12,3.12,-3.09,-3.19,-3.31,1.13,1.13,1.10
105.37,4.18,4.17,3.13,3.12,-3.08,-3.20,-3.36,1.10,1.09,1.05
106.42,4.11,4.10,3.10,3.10,-3.07,-3.21,-3.41,1.04,1.03,1.01
107.48,4.02,4.03,3.06,3.07,-3.07,-3.22,-3.46,0.95,0.96,0.96
108.56,3.94,3.95,3.03,3.04,-3.06,-3.22,-3.50,0.88,0.89,0.90
109.64,3.90,3.88,3.04,3.02,-3.05,-3.23,-3.55,0.85,0.83,0.86
110.74,3.82,3.82,3.01,3.01,-3.04,-3.24,-3.59,0.78,0.78,0.81
111.85,3.77,3.78,3.00,3.02,-3.03,-3.24,-3.63,0.74,0.75,0.77
112.97,3.75,3.75,3.05,3.04,-3.03,-3.24,-3.67,0.72,0.72,0.70
114.10,3.74,3.72,3.08,3.06,-3.04,-3.25,-3.70,0.70,0.68,0.65
115.24,3.67,3.66,3.07,3.07,-3.06,-3.25,-3.73,0.61,0.61,0.60
116.39,3.60,3.61,3.05,3.06,-3.08,-3.25,-3.76,0.52,0.52,0.55
117.55,3.55,3.56,3.06,3.07,-3.11,-3.25,-3.78,0.44,0.45,0.49
118.73,3.55,3.55,3.11,3.11,-3.13,-3.25,-3.81,0.42,0.42,0.44
119.92,3.56,3.55,3.16,3.16,-3.15,-3.25,-3.82,0.41,0.40,0.39
121.12,3.56,3.54,3.22,3.20,-3.17,-3.24,-3.83,0.39,0.38,0.34
122.33,3.51,3.52,3.22,3.23,-3.19,-3.24,-3.83,0.32,0.34,0.29
123.55,3.48,3.47,3.23,3.22,-3.20,-3.23,-3.84,0.27,0.26,0.25
124.79,3.42,3.40,3.22,3.20,-3.22,-3.23,-3.83,0.20,0.18,0.20
126.03,3.31,3.35,3.16,3.20,-3.23,-3.22,-3.82,0.08,0.12,0.15
127.29,3.30,3.30,3.20,3.21,-3.23,-3.21,-3.80,0.06,0.06,0.10
128.57,3.29,3.27,3.25,3.23,-3.23,-3.20,-3.78,0.05,0.03,0.04
129.85,3.23,3.24,3.24,3.25,-3.23,-3.19,-3.75,-0.00,0.01,-0.01
131.15,3.20,3.19,3.26,3.25,-3.23,-3.18,-3.72,-0.03,-0.04,-0.06
132.46,3.14,3.13,3.25,3.24,-3.23,-3.16,-3.69,-0.09,-0.10,-0.11
133.79,3.06,3.07,3.20,3.23,-3.22,-3.15,-3.65,-0.16,-0.15,-0.14
135.12,3.02,3.01,3.22,3.20,-3.21,-3.13,-3.60,-0.20,-0.20,-0.20
136.48,2.96,2.95,3.19,3.19,-3.20,-3.12,-3.55,-0.24,-0.25,-0.24
137.84,2.89,2.89,3.17,3.18,-3.18,-3.10,-3.50,-0.29,-0.29,-0.28
139.22,2.83,2.83,3.16,3.16,-3.16,-3.08,-3.44,-0.33,-0.33,-0.33
140.61,2.76,2.78,3.13,3.14,-3.14,-3.06,-3.38,-0.38,-0.36,-0.38
142.02,2.74,2.72,3.14,3.12,-3.12,-3.04,-3.32,-0.38,-0.40,-0.40
143.44,2.67,2.66,3.11,3.10,-3.09,-3.02,-3.26,-0.42,-0.43,-0.44
144.87,2.58,2.60,3.06,3.08,-3.06,-3.00,-3.19,-0.49,-0.47,-0.48
146.32,2.54,2.52,3.06,3.03,-3.04,-2.97,-3.12,-0.50,-0.52,-0.52
147.78,2.45,2.45,3.00,3.00,-3.01,-2.95,-3.06,-0.56,-0.56,-0.55
149.26,2.37,2.39,2.95,2.98,-2.98,-2.92,-2.99,-0.61,-0.59,-0.59
150.75,2.34,2.33,2.97,2.95,-2.96,-2.89,-2.92,-0.62,-0.63,-0.63
152.26,2.28,2.27,2.95,2.94,-2.94,-2.87,-2.85,-0.67,-0.67,-0.67
153.78,2.23,2.22,2.93,2.93,-2.94,-2.84,-2.78,-0.72,-0.72,-0.71
155.32,2.17,2.17,2.92,2.92,-2.96,-2.81,-2.71,-0.79,-0.78,-0.75
156.88,2.14,2.15,2.92,2.93,-2.97,-2.78,-2.64,-0.84,-0.83,-0.78
158.44,2.14,2.14,2.96,2.96,-2.99,-2.75,-2.57,-0.85,-0.85,-0.83
160.03,2.14,2.14,3.01,3.01,-2.99,-2.72,-2.50,-0.85,-0.85,-0.87
161.63,2.14,2.13,3.05,3.04,-2.99,-2.69,-2.43,-0.85,-0.85,-0.91
163.24,2.10,2.09,3.05,3.03,-2.97,-2.65,-2.37,-0.87,-0.88,-0.95
164.88,2.00,2.00,2.98,2.98,-2.94,-2.62,-2.30,-0.94,-0.94,-0.98
166.53,1.88,1.87,2.90,2.89,-2.90,-2.59,-2.24,-1.02,-1.03,-1.02
168.19,1.74,1.74,2.80,2.80,-2.84,-2.55,-2.17,-1.10,-1.10,-1.06
169.87,1.62,1.64,2.71,2.73,-2.77,-2.52,-2.11,-1.15,-1.13,-1.10
171.57,1.55,1.55,2.68,2.68,-2.69,-2.48,-2.05,-1.14,-1.14,-1.13
173.29,1.48,1.46,2.65,2.62,-2.61,-2.45,-1.99,-1.13,-1.16,-1.17
175.02,1.36,1.35,2.56,2.56,-2.54,-2.41,-1.93,-1.18,-1.19,-1.20
176.77,1.21,1.23,2.46,2.48,-2.47,-2.38,-1.88,-1.26,-1.24,-1.25
178.54,1.11,1.11,2.40,2.40,-2.40,-2.34,-1.82,-1.30,-1.29,-1.29
180.32,1.02,1.00,2.34,2.33,-2.34,-2.31,-1.77,-1.33,-1.34,-1.33
182.13,0.92,0.91,2.28,2.27,-2.29,-2.27,-1.72,-1.37,-1.38,-1.36
183.95,0.80,0.82,2.20,2.22,-2.23,-2.23,-1.67,-1.43,-1.41,-1.40
185.79,0.76,0.75,2.19,2.18,-2.19,-2.19,-1.62,-1.43,-1.44,-1.43
187.65,0.69,0.69,2.16,2.16,-2.15,-2.16,-1.57,-1.47,-1.46,-1.47
189.52,0.65,0.64,2.15,2.14,-2.13,-2.12,-1.52,-1.48,-1.49,-1.50
191.42,0.59,0.57,2.12,2.10,-2.12,-2.08,-1.48,-1.53,-1.55,-1.53
193.33,0.50,0.52,2.06,2.08,-2.10,-2.05,-1.44,-1.61,-1.58,-1.56
195.27,0.48,0.49,2.07,2.08,-2.09,-2.01,-1.39,-1.61,-1.60,-1.59
197.22,0.50,0.48,2.12,2.10,-2.08,-1.97,-1.35,-1.59,-1.61,-1.62
199.19,0.47,0.46,2.12,2.11,-2.08,-1.93,-1.31,-1.61,-1.62,-1.65
201.18,0.42,0.41,2.09,2.09,-2.08,-1.89,-1.27,-1.66,-1.66,-1.67
203.19,0.35,0.36,2.04,2.05,-2.07,-1.85,-1.24,-1.72,-1.71,-1.69
205.23,0.32,0.33,2.03,2.03,-2.06,-1.82,-1.20,-1.74,-1.73,-1.71
207.28,0.32,0.32,2.04,2.05,-2.04,-1.78,-1.17,-1.72,-1.72,-1.72
209.35,0.32,0.31,2.06,2.06,-2.02,-1.74,-1.13,-1.70,-1.71,-1.74
211.44,0.31,0.27,2.07,2.03,-2.00,-1.70,-1.10,-1.69,-1.73,-1.77
213.56,0.19,0.21,1.96,1.98,-1.98,-1.66,-1.07,-1.79,-1.77,-1.77
215.69,0.12,0.14,1.89,1.92,-1.96,-1.62,-1.04,-1.84,-1.82,-1.77
217.85,0.11,0.10,1.89,1.89,-1.94,-1.58,-1.01,-1.83,-1.84,-1.79
220.03,0.10,0.10,1.90,1.90,-1.91,-1.54,-0.98,-1.81,-1.81,-1.80
222.23,0.10,0.10,1.91,1.91,-1.88,-1.49,-0.96,-1.78,-1.78,-1.81
224.45,0.10,0.06,1.90,1.87,-1.85,-1.45,-0.93,-1.75,-1.78,-1.80
226.70,0.02,0.01,1.82,1.81,-1.81,-1.41,-0.91,-1.79,-1.80,-1.80
228.96,-0.10,-0.05,1.70,1.75,-1.75,-1.37,-0.88,-1.86,-1.80,-1.80
231.25,-0.09,-0.11,1.70,1.69,-1.69,-1.32,-0.86,-1.78,-1.79,-1.79
233.57,-0.14,-0.17,1.65,1.63,-1.60,-1.28,-0.84,-1.74,-1.77,-1.79
235.90,-0.26,-0.26,1.53,1.53,-1.51,-1.23,-0.82,-1.77,-1.77,-1.79
238.26,-0.38,-0.38,1.41,1.41,-1.41,-1.18,-0.81,-1.79,-1.78,-1.79
240.64,-0.51,-0.49,1.27,1.29,-1.31,-1.13,-0.79,-1.82,-1.81,-1.78
243.05,-0.57,-0.60,1.20,1.17,-1.22,-1.08,-0.77,-1.79,-1.81,-1.77
245.48,-0.69,-0.68,1.07,1.08,-1.12,-1.02,-0.76,-1.81,-1.80,-1.76
247.93,-0.75,-0.74,1.00,1.02,-1.02,-0.97,-0.74,-1.77,-1.75,-1.75
250.41,-0.78,-0.80,0.96,0.94,-0.92,-0.91,-0.73,-1.70,-1.72,-1.75
252.92,-0.85,-0.86,0.87,0.86,-0.83,-0.85,-0.72,-1.68,-1.69,-1.72
255.45,-0.96,-0.94,0.74,0.76,-0.73,-0.79,-0.71,-1.70,-1.68,-1.70
258.00,-1.03,-1.03,0.66,0.65,-0.64,-0.72,-0.70,-1.68,-1.68,-1.69
260.58,-1.12,-1.14,0.55,0.53,-0.55,-0.65,-0.69,-1.67,-1.69,-1.67
263.19,-1.22,-1.22,0.43,0.43,-0.46,-0.58,-0.69,-1.68,-1.68,-1.65
265.82,-1.33,-1.28,0.31,0.35,-0.36,-0.50,-0.68,-1.70,-1.65,-1.64
268.48,-1.32,-1.35,0.29,0.27,-0.28,-0.42,-0.68,-1.60,-1.62,-1.61
271.16,-1.36,-1.41,0.23,0.18,-0.18,-0.33,-0.67,-1.55,-1.59,-1.59
273.87,-1.51,-1.46,0.06,0.12,-0.10,-0.25,-0.67,-1.61,-1.55,-1.58
276.61,-1.53,-1.53,0.02,0.03,-0.01,-0.16,-0.67,-1.54,-1.53,-1.55
279.38,-1.55,-1.60,-0.02,-0.06,0.08,-0.06,-0.67,-1.47,-1.52,-1.54
282.17,-1.67,-1.66,-0.15,-0.14,0.16,0.03,-0.67,-1.51,-1.50,-1.52
284.99,-1.76,-1.75,-0.27,-0.25,0.25,0.13,-0.67,-1.52,-1.51,-1.50
287.84,-1.82,-1.84,-0.34,-0.36,0.32,0.22,-0.67,-1.50,-1.51,-1.48
290.72,-1.90,-1.87,-0.45,-0.42,0.40,0.31,-0.67,-1.50,-1.47,-1.46
293.63,-1.90,-1.90,-0.46,-0.46,0.47,0.39,-0.68,-1.43,-1.43,-1.44
296.57,-1.88,-1.92,-0.47,-0.50,0.52,0.46,-0.68,-1.36,-1.40,-1.41
299.53,-1.95,-1.94,-0.55,-0.54,0.56,0.51,-0.69,-1.39,-1.37,-1.40
302.53,-1.96,-1.95,-0.58,-0.58,0.58,0.55,-0.69,-1.38,-1.37,-1.38
305.55,-1.95,-1.96,-0.61,-0.61,0.58,0.57,-0.70,-1.38,-1.39,-1.35
308.61,-1.92,-1.93,-0.59,-0.60,0.56,0.58,-0.71,-1.37,-1.37,-1.33
311.69,-1.88,-1.85,-0.58,-0.56,0.52,0.57,-0.71,-1.36,-1.33,-1.30
314.81,-1.75,-1.76,-0.49,-0.48,0.47,0.54,-0.72,-1.28,-1.28,-1.27
317.96,-1.63,-1.66,-0.38,-0.41,0.41,0.49,-0.73,-1.22,-1.24,-1.25
321.14,-1.55,-1.55,-0.32,-0.32,0.35,0.44,-0.74,-1.20,-1.20,-1.23
324.35,-1.49,-1.47,-0.28,-0.26,0.29,0.37,-0.75,-1.21,-1.18,-1.22
327.59,-1.38,-1.39,-0.19,-0.20,0.23,0.29,-0.76,-1.16,-1.17,-1.19
330.87,-1.31,-1.32,-0.14,-0.15,0.18,0.22,-0.78,-1.14,-1.14,-1.17
334.18,-1.26,-1.27,-0.11,-0.11,0.13,0.14,-0.79,-1.13,-1.14,-1.15
337.52,-1.22,-1.23,-0.09,-0.09,0.09,0.06,-0.80,-1.13,-1.14,-1.14
340.90,-1.20,-1.18,-0.09,-0.07,0.05,-0.02,-0.82,-1.16,-1.14,-1.11
344.30,-1.11,-1.12,-0.02,-0.03,-0.00,-0.10,-0.83,-1.11,-1.13,-1.09
347.75,-1.05,-1.04,0.02,0.03,-0.06,-0.17,-0.85,-1.11,-1.10,-1.07
351.23,-0.94,-0.94,0.11,0.12,-0.12,-0.24,-0.86,-1.06,-1.06,-1.06
354.74,-0.83,-0.84,0.21,0.19,-0.19,-0.31,-0.88,-1.02,-1.03,-1.04
358.28,-0.74,-0.75,0.28,0.27,-0.26,-0.37,-0.90,-1.00,-1.01,-1.02
361.87,-0.67,-0.66,0.33,0.35,-0.33,-0.43,-0.92,-1.01,-0.99,-1.00
365.49,-0.58,-0.56,0.41,0.44,-0.41,-0.49,-0.94,-1.00,-0.97,-0.99
369.14,-0.44,-0.48,0.54,0.50,-0.50,-0.55,-0.96,-0.94,-0.98,-0.99
372.83,-0.39,-0.42,0.58,0.55,-0.58,-0.60,-0.98,-0.97,-1.00,-0.97
376.56,-0.39,-0.34,0.57,0.61,-0.65,-0.65,-1.00,-1.04,-0.99,-0.96
380.33,-0.28,-0.24,0.65,0.70,-0.71,-0.70,-1.02,-0.99,-0.95,-0.93
384.13,-0.08,-0.12,0.84,0.80,-0.77,-0.75,-1.04,-0.85,-0.89,-0.92
387.97,0.02,-0.03,0.93,0.89,-0.82,-0.80,-1.06,-0.81,-0.85,-0.92
391.85,-0.00,0.01,0.90,0.91,-0.88,-0.85,-1.08,-0.88,-0.87,-0.91
395.77,-0.00,0.02,0.89,0.91,-0.94,-0.90,-1.11,-0.94,-0.92,-0.89
399.73,0.04,0.05,0.92,0.93,-0.99,-0.94,-1.13,-0.95,-0.94,-0.88
403.72,0.14,0.13,1.01,1.00,-1.04,-0.99,-1.15,-0.90,-0.91,-0.87
407.76,0.22,0.21,1.08,1.07,-1.08,-1.04,-1.18,-0.86,-0.86,-0.86
411.84,0.30,0.30,1.14,1.15,-1.11,-1.09,-1.20,-0.82,-0.82,-0.84
415.96,0.36,0.36,1.19,1.20,-1.16,-1.14,-1.22,-0.80,-0.79,-0.83
420.12,0.42,0.40,1.24,1.22,-1.20,-1.19,-1.24,-0.78,-0.80,-0.83
424.32,0.43,0.42,1.24,1.24,-1.25,-1.24,-1.27,-0.82,-0.82,-0.82
428.56,0.43,0.45,1.24,1.26,-1.29,-1.29,-1.29,-0.86,-0.83,-0.81
432.85,0.49,0.50,1.29,1.30,-1.32,-1.34,-1.31,-0.83,-0.82,-0.80
437.18,0.58,0.56,1.37,1.35,-1.35,-1.39,-1.33,-0.77,-0.79,-0.79
441.55,0.63,0.62,1.40,1.40,-1.38,-1.44,-1.35,-0.75,-0.76,-0.77
445.96,0.67,0.67,1.43,1.44,-1.42,-1.49,-1.37,-0.75,-0.75,-0.76
450.42,0.72,0.72,1.47,1.47,-1.47,-1.55,-1.39,-0.76,-0.75,-0.75
454.93,0.78,0.77,1.51,1.51,-1.53,-1.60,-1.40,-0.76,-0.77,-0.73
459.48,0.84,0.84,1.56,1.56,-1.59,-1.65,-1.42,-0.76,-0.75,-0.72
464.07,0.90,0.93,1.60,1.64,-1.65,-1.70,-1.43,-0.75,-0.72,-0.71
468.71,1.05,1.03,1.73,1.72,-1.71,-1.74,-1.44,-0.66,-0.68,-0.69
473.40,1.14,1.12,1.81,1.79,-1.76,-1.79,-1.45,-0.62,-0.64,-0.68
478.13,1.18,1.19,1.84,1.85,-1.81,-1.83,-1.46,-0.64,-0.63,-0.66
482.91,1.22,1.22,1.87,1.87,-1.86,-1.86,-1.46,-0.64,-0.63,-0.65
487.74,1.26,1.26,1.89,1.89,-1.89,-1.89,-1.46,-0.64,-0.63,-0.63
492.62,1.30,1.30,1.91,1.91,-1.92,-1.92,-1.46,-0.62,-0.62,-0.61
497.55,1.33,1.33,1.93,1.92,-1.93,-1.94,-1.46,-0.60,-0.61,-0.60
502.52,1.35,1.35,1.93,1.93,-1.94,-1.95,-1.46,-0.59,-0.59,-0.58
