frequency,raw,smoothed,error,error_smoothed,equalization,parametric_eq,fixed_band_eq,equalized_raw,equalized_smoothed,target
20.00,7.94,7.94,1.99,1.99,-1.98,-1.37,-0.80,5.96,5.96,5.96
20.20,7.93,7.93,1.98,1.97,-1.97,-1.37,-0.83,5.96,5.95,5.95
20.40,7.92,7.92,1.97,1.96,-1.96,-1.37,-0.85,5.96,5.95,5.95
20.61,7.90,7.90,1.95,1.95,-1.95,-1.37,-0.88,5.95,5.95,5.95
20.81,7.89,7.89,1.94,1.94,-1.94,-1.37,-0.90,5.95,5.95,5.95
21.02,7.89,7.89,1.94,1.93,-1.94,-1.37,-0.93,5.95,5.95,5.95
21.23,7.88,7.88,1.93,1.93,-1.93,-1.37,-0.96,5.95,5.95,5.95
21.44,7.87,7.87,1.92,1.92,-1.92,-1.37,-0.99,5.95,5.95,5.95
21.66,7.86,7.86,1.91,1.91,-1.91,-1.37,-1.02,5.95,5.95,5.95
21.87,7.86,7.86,1.91,1.91,-1.91,-1.37,-1.05,5.95,5.95,5.95
22.09,7.85,7.85,1.90,1.90,-1.90,-1.37,-1.08,5.95,5.95,5.95
22.31,7.84,7.84,1.89,1.90,-1.90,-1.37,-1.11,5.94,5.95,5.95
22.54,7.84,7.84,1.89,1.89,-1.89,-1.37,-1.14,5.95,5.95,5.95
22.76,7.83,7.83,1.89,1.88,-1.88,-1.37,-1.18,5.95,5.95,5.95
22.99,7.82,7.82,1.88,1.88,-1.88,-1.37,-1.21,5.94,5.95,5.94
23.22,7.81,7.81,1.87,1.87,-1.87,-1.37,-1.25,5.94,5.94,5.94
23.45,7.80,7.80,1.86,1.86,-1.86,-1.37,-1.28,5.94,5.94,5.94
23.69,7.79,7.79,1.85,1.85,-1.85,-1.37,-1.32,5.94,5.94,5.94
23.92,7.78,7.78,1.84,1.84,-1.84,-1.37,-1.36,5.94,5.94,5.94
24.16,7.77,7.77,1.83,1.83,-1.83,-1.37,-1.40,5.94,5.94,5.94
24.40,7.76,7.76,1.82,1.82,-1.82,-1.36,-1.43,5.94,5.94,5.94
24.65,7.75,7.75,1.81,1.81,-1.81,-1.36,-1.47,5.94,5.94,5.94
24.89,7.73,7.73,1.80,1.80,-1.80,-1.36,-1.51,5.93,5.93,5.94
25.14,7.72,7.72,1.79,1.79,-1.79,-1.36,-1.55,5.93,5.93,5.93
25.39,7.71,7.71,1.78,1.78,-1.78,-1.36,-1.59,5.93,5.93,5.93
25.65,7.70,7.70,1.77,1.77,-1.77,-1.36,-1.63,5.93,5.93,5.93
25.91,7.69,7.69,1.76,1.76,-1.76,-1.36,-1.67,5.93,5.93,5.93
26.16,7.68,7.68,1.75,1.75,-1.75,-1.36,-1.71,5.93,5.93,5.93
26.43,7.67,7.67,1.74,1.75,-1.75,-1.36,-1.75,5.93,5.93,5.93
26.69,7.67,7.66,1.75,1.74,-1.74,-1.36,-1.79,5.93,5.93,5.92
26.96,7.65,7.65,1.73,1.73,-1.73,-1.36,-1.83,5.92,5.92,5.92
27.23,7.64,7.64,1.72,1.72,-1.72,-1.36,-1.86,5.92,5.92,5.92
27.50,7.63,7.63,1.71,1.71,-1.71,-1.36,-1.90,5.92,5.92,5.92
27.77,7.62,7.62,1.70,1.70,-1.70,-1.35,-1.93,5.92,5.92,5.92
28.05,7.61,7.61,1.70,1.69,-1.69,-1.35,-1.97,5.92,5.92,5.92
28.33,7.60,7.60,1.69,1.68,-1.68,-1.35,-2.00,5.92,5.91,5.91
28.62,7.58,7.58,1.67,1.67,-1.67,-1.35,-2.02,5.91,5.91,5.91
28.90,7.57,7.57,1.66,1.66,-1.66,-1.35,-2.05,5.91,5.91,5.91
29.19,7.56,7.56,1.65,1.65,-1.66,-1.35,-2.07,5.91,5.91,5.91
29.48,7.55,7.55,1.65,1.65,-1.65,-1.35,-2.09,5.91,5.90,5.90
29.78,7.54,7.54,1.64,1.64,-1.64,-1.35,-2.11,5.91,5.90,5.90
30.08,7.52,7.52,1.62,1.63,-1.63,-1.35,-2.13,5.90,5.90,5.90
30.38,7.51,7.51,1.61,1.61,-1.62,-1.34,-2.14,5.90,5.90,5.90
30.68,7.50,7.50,1.61,1.60,-1.61,-1.34,-2.15,5.90,5.89,5.89
30.99,7.48,7.48,1.59,1.59,-1.59,-1.34,-2.16,5.89,5.89,5.89
31.30,7.47,7.47,1.58,1.58,-1.58,-1.34,-2.16,5.89,5.89,5.89
31.61,7.46,7.46,1.58,1.57,-1.57,-1.34,-2.16,5.89,5.88,5.88
31.93,7.44,7.44,1.56,1.56,-1.56,-1.34,-2.15,5.88,5.88,5.88
32.24,7.43,7.43,1.55,1.55,-1.55,-1.33,-2.14,5.88,5.88,5.88
32.57,7.41,7.41,1.54,1.54,-1.54,-1.33,-2.13,5.87,5.87,5.87
32.89,7.40,7.40,1.53,1.53,-1.53,-1.33,-2.12,5.87,5.87,5.87
33.22,7.38,7.38,1.51,1.52,-1.52,-1.33,-2.10,5.86,5.87,5.87
33.55,7.37,7.37,1.51,1.51,-1.51,-1.33,-2.08,5.86,5.86,5.86
33.89,7.35,7.35,1.49,1.50,-1.49,-1.32,-2.06,5.86,5.86,5.86
34.23,7.34,7.34,1.49,1.48,-1.48,-1.32,-2.04,5.86,5.85,5.85
34.57,7.32,7.32,1.47,1.47,-1.47,-1.32,-2.01,5.85,5.85,5.85
34.92,7.30,7.30,1.46,1.46,-1.46,-1.32,-1.98,5.84,5.85,5.85
35.27,7.29,7.29,1.45,1.45,-1.45,-1.32,-1.95,5.84,5.84,5.84
35.62,7.27,7.27,1.44,1.43,-1.44,-1.31,-1.92,5.84,5.84,5.84
35.97,7.25,7.25,1.42,1.42,-1.42,-1.31,-1.88,5.83,5.83,5.83
36.33,7.24,7.24,1.42,1.41,-1.41,-1.31,-1.85,5.83,5.83,5.83
36.70,7.22,7.22,1.40,1.40,-1.40,-1.30,-1.81,5.82,5.82,5.82
37.06,7.20,7.20,1.39,1.39,-1.39,-1.30,-1.78,5.81,5.81,5.81
37.43,7.18,7.18,1.37,1.37,-1.38,-1.30,-1.74,5.80,5.81,5.81
37.81,7.16,7.16,1.36,1.36,-1.36,-1.30,-1.70,5.80,5.80,5.80
38.19,7.15,7.15,1.35,1.35,-1.35,-1.29,-1.67,5.80,5.80,5.80
38.57,7.13,7.13,1.34,1.34,-1.34,-1.29,-1.63,5.79,5.79,5.79
38.95,7.11,7.11,1.33,1.33,-1.33,-1.28,-1.59,5.78,5.78,5.78
39.34,7.09,7.09,1.31,1.32,-1.31,-1.28,-1.55,5.78,5.78,5.78
39.74,7.07,7.07,1.30,1.30,-1.30,-1.28,-1.52,5.77,5.77,5.77
40.14,7.05,7.05,1.29,1.29,-1.29,-1.27,-1.48,5.76,5.76,5.76
40.54,7.02,7.02,1.27,1.27,-1.27,-1.27,-1.45,5.75,5.75,5.75
40.94,7.00,7.00,1.26,1.26,-1.26,-1.26,-1.41,5.74,5.74,5.74
41.35,6.98,6.98,1.24,1.24,-1.25,-1.26,-1.38,5.73,5.73,5.74
41.76,6.96,6.96,1.23,1.23,-1.23,-1.25,-1.34,5.73,5.73,5.73
42.18,6.94,6.94,1.22,1.22,-1.22,-1.25,-1.31,5.72,5.72,5.72
42.60,6.92,6.92,1.21,1.21,-1.21,-1.24,-1.28,5.71,5.71,5.71
43.03,6.90,6.90,1.20,1.20,-1.20,-1.24,-1.24,5.70,5.70,5.70
43.46,6.87,6.87,1.18,1.18,-1.19,-1.23,-1.21,5.68,5.69,5.69
43.90,6.85,6.85,1.17,1.17,-1.17,-1.22,-1.18,5.68,5.68,5.68
44.33,6.83,6.83,1.16,1.16,-1.16,-1.22,-1.15,5.67,5.67,5.67
44.78,6.81,6.81,1.15,1.15,-1.15,-1.21,-1.13,5.66,5.66,5.66
45.23,6.78,6.78,1.14,1.14,-1.14,-1.20,-1.10,5.64,5.65,5.64
45.68,6.76,6.76,1.13,1.13,-1.13,-1.20,-1.07,5.63,5.63,5.63
46.13,6.73,6.73,1.11,1.11,-1.11,-1.19,-1.05,5.62,5.62,5.62
46.60,6.71,6.71,1.10,1.10,-1.10,-1.18,-1.02,5.61,5.61,5.61
47.06,6.68,6.68,1.09,1.09,-1.09,-1.17,-1.00,5.59,5.60,5.59
47.53,6.66,6.66,1.08,1.08,-1.08,-1.16,-0.98,5.59,5.58,5.58
48.01,6.63,6.63,1.06,1.06,-1.06,-1.16,-0.96,5.57,5.57,5.57
48.49,6.60,6.60,1.05,1.05,-1.05,-1.15,-0.93,5.55,5.55,5.55
48.97,6.57,6.57,1.03,1.03,-1.04,-1.14,-0.91,5.53,5.53,5.54
49.46,6.54,6.54,1.02,1.02,-1.02,-1.13,-0.90,5.52,5.52,5.52
49.96,6.52,6.52,1.02,1.01,-1.01,-1.12,-0.88,5.51,5.50,5.50
50.46,6.49,6.49,1.00,1.00,-1.00,-1.11,-0.86,5.49,5.49,5.49
50.96,6.46,6.46,0.99,0.99,-0.99,-1.10,-0.84,5.47,5.47,5.47
51.47,6.43,6.43,0.98,0.98,-0.98,-1.09,-0.83,5.45,5.45,5.45
51.99,6.40,6.40,0.97,0.97,-0.97,-1.08,-0.81,5.43,5.43,5.43
52.51,6.38,6.38,0.97,0.96,-0.96,-1.07,-0.80,5.42,5.41,5.41
53.03,6.35,6.35,0.96,0.96,-0.96,-1.06,-0.78,5.40,5.39,5.39
53.56,6.32,6.32,0.95,0.95,-0.95,-1.05,-0.77,5.37,5.37,5.37
54.10,6.29,6.29,0.94,0.94,-0.94,-1.04,-0.76,5.35,5.35,5.35
54.64,6.26,6.26,0.93,0.93,-0.93,-1.03,-0.75,5.33,5.33,5.33
55.18,6.23,6.23,0.92,0.92,-0.92,-1.02,-0.74,5.31,5.31,5.31
55.74,6.20,6.20,0.92,0.92,-0.92,-1.01,-0.73,5.29,5.28,5.28
56.29,6.17,6.17,0.91,0.91,-0.91,-1.00,-0.72,5.26,5.26,5.26
56.86,6.13,6.13,0.90,0.90,-0.90,-1.00,-0.71,5.23,5.24,5.23
57.42,6.10,6.10,0.89,0.89,-0.89,-0.99,-0.70,5.21,5.21,5.21
58.00,6.07,6.07,0.89,0.88,-0.88,-0.98,-0.70,5.19,5.18,5.18
58.58,6.03,6.03,0.88,0.88,-0.88,-0.98,-0.69,5.15,5.16,5.16
59.16,6.00,6.00,0.87,0.87,-0.87,-0.97,-0.68,5.13,5.13,5.13
59.76,5.96,5.96,0.86,0.87,-0.87,-0.97,-0.68,5.09,5.10,5.10
60.35,5.93,5.93,0.86,0.86,-0.86,-0.96,-0.67,5.07,5.07,5.07
60.96,5.90,5.90,0.86,0.86,-0.86,-0.96,-0.67,5.04,5.04,5.04
61.57,5.86,5.86,0.85,0.86,-0.86,-0.96,-0.67,5.01,5.01,5.01
62.18,5.83,5.83,0.86,0.85,-0.85,-0.96,-0.67,4.98,4.97,4.97
62.80,5.79,5.79,0.85,0.85,-0.85,-0.96,-0.67,4.94,4.94,4.94
63.43,5.75,5.75,0.84,0.85,-0.85,-0.96,-0.67,4.90,4.91,4.91
64.07,5.72,5.72,0.85,0.85,-0.85,-0.96,-0.67,4.88,4.87,4.87
64.71,5.68,5.68,0.85,0.84,-0.84,-0.96,-0.67,4.84,4.84,4.84
65.35,5.64,5.64,0.84,0.84,-0.84,-0.96,-0.67,4.80,4.80,4.80
66.01,5.60,5.60,0.84,0.84,-0.84,-0.96,-0.67,4.76,4.76,4.76
66.67,5.56,5.56,0.84,0.84,-0.84,-0.96,-0.67,4.72,4.72,4.72
67.33,5.53,5.53,0.85,0.85,-0.85,-0.97,-0.68,4.68,4.68,4.68
68.01,5.49,5.49,0.85,0.85,-0.85,-0.97,-0.68,4.64,4.64,4.64
68.69,5.45,5.45,0.85,0.85,-0.85,-0.97,-0.69,4.60,4.60,4.60
69.37,5.41,5.41,0.86,0.85,-0.85,-0.98,-0.69,4.56,4.56,4.56
70.07,5.37,5.37,0.86,0.86,-0.86,-0.98,-0.70,4.51,4.51,4.51
70.77,5.32,5.32,0.85,0.86,-0.86,-0.98,-0.71,4.46,4.46,4.47
71.48,5.28,5.28,0.86,0.86,-0.86,-0.99,-0.72,4.42,4.42,4.42
72.19,5.24,5.24,0.87,0.87,-0.87,-0.99,-0.73,4.37,4.37,4.37
72.91,5.20,5.20,0.88,0.88,-0.87,-0.99,-0.74,4.33,4.33,4.32
73.64,5.16,5.16,0.89,0.88,-0.88,-1.00,-0.75,4.28,4.28,4.28
74.38,5.11,5.11,0.89,0.89,-0.89,-1.00,-0.76,4.22,4.23,4.22
75.12,5.07,5.07,0.90,0.90,-0.90,-1.00,-0.77,4.17,4.17,4.17
75.87,5.03,5.03,0.91,0.91,-0.91,-1.00,-0.78,4.12,4.12,4.12
76.63,4.98,4.98,0.91,0.92,-0.92,-1.00,-0.80,4.06,4.07,4.07
77.40,4.94,4.94,0.93,0.92,-0.92,-1.01,-0.81,4.02,4.01,4.01
78.17,4.89,4.89,0.93,0.93,-0.93,-1.01,-0.82,3.96,3.96,3.96
78.95,4.85,4.85,0.95,0.95,-0.94,-1.01,-0.84,3.91,3.90,3.90
79.74,4.80,4.80,0.96,0.96,-0.95,-1.01,-0.86,3.85,3.85,3.84
80.54,4.75,4.75,0.96,0.96,-0.97,-1.01,-0.87,3.79,3.79,3.79
81.35,4.70,4.70,0.97,0.97,-0.98,-1.01,-0.89,3.72,3.72,3.73
82.16,4.65,4.65,0.98,0.99,-0.99,-1.01,-0.91,3.66,3.66,3.67
82.98,4.61,4.61,1.00,1.00,-1.00,-1.01,-0.93,3.61,3.61,3.61
83.81,4.56,4.56,1.02,1.02,-1.01,-1.01,-0.95,3.55,3.55,3.54
84.65,4.51,4.51,1.03,1.03,-1.03,-1.01,-0.97,3.48,3.48,3.48
85.50,4.46,4.46,1.04,1.04,-1.04,-1.01,-0.99,3.42,3.42,3.42
86.35,4.41,4.41,1.06,1.06,-1.06,-1.01,-1.02,3.35,3.35,3.35
87.22,4.36,4.36,1.07,1.07,-1.07,-1.01,-1.04,3.29,3.29,3.29
88.09,4.30,4.30,1.08,1.08,-1.08,-1.01,-1.07,3.22,3.22,3.22
88.97,4.25,4.25,1.10,1.10,-1.10,-1.01,-1.09,3.15,3.15,3.16
89.86,4.20,4.20,1.11,1.11,-1.11,-1.01,-1.12,3.09,3.09,3.09
90.76,4.15,4.15,1.13,1.13,-1.13,-1.01,-1.15,3.02,3.02,3.02
91.66,4.09,4.09,1.14,1.14,-1.14,-1.01,-1.17,2.95,2.95,2.95
92.58,4.04,4.04,1.16,1.16,-1.16,-1.01,-1.20,2.88,2.88,2.88
93.51,3.98,3.98,1.17,1.17,-1.17,-1.01,-1.23,2.81,2.81,2.81
94.44,3.93,3.93,1.19,1.19,-1.19,-1.01,-1.26,2.74,2.74,2.74
95.39,3.87,3.87,1.20,1.20,-1.20,-1.01,-1.29,2.67,2.67,2.67
96.34,3.82,3.82,1.22,1.22,-1.22,-1.01,-1.32,2.60,2.60,2.60
97.30,3.76,3.76,1.23,1.23,-1.23,-1.02,-1.36,2.53,2.53,2.53
98.28,3.70,3.70,1.24,1.25,-1.25,-1.02,-1.39,2.45,2.46,2.46
99.26,3.65,3.65,1.27,1.26,-1.26,-1.02,-1.42,2.39,2.39,2.38
100.25,3.59,3.59,1.28,1.28,-1.28,-1.03,-1.45,2.31,2.31,2.31
101.25,3.53,3.53,1.29,1.29,-1.29,-1.03,-1.49,2.24,2.24,2.24
102.27,3.47,3.47,1.30,1.30,-1.30,-1.03,-1.52,2.17,2.17,2.17
103.29,3.41,3.41,1.32,1.32,-1.32,-1.04,-1.55,2.09,2.09,2.09
104.32,3.35,3.35,1.33,1.33,-1.33,-1.04,-1.59,2.02,2.02,2.02
105.37,3.29,3.29,1.34,1.34,-1.34,-1.05,-1.62,1.95,1.95,1.95
106.42,3.23,3.23,1.36,1.36,-1.36,-1.06,-1.65,1.87,1.87,1.87
107.48,3.17,3.17,1.37,1.37,-1.37,-1.07,-1.68,1.80,1.80,1.80
108.56,3.11,3.11,1.38,1.38,-1.38,-1.08,-1.71,1.73,1.73,1.73
109.64,3.05,3.05,1.39,1.39,-1.39,-1.09,-1.74,1.66,1.66,1.66
110.74,2.99,2.99,1.41,1.41,-1.41,-1.10,-1.77,1.58,1.58,1.58
111.85,2.93,2.93,1.42,1.42,-1.42,-1.12,-1.80,1.51,1.51,1.51
112.97,2.87,2.87,1.43,1.43,-1.43,-1.13,-1.82,1.44,1.44,1.44
114.10,2.81,2.81,1.44,1.45,-1.45,-1.15,-1.85,1.36,1.37,1.37
115.24,2.76,2.76,1.46,1.46,-1.46,-1.17,-1.87,1.30,1.29,1.30
116.39,2.70,2.70,1.48,1.48,-1.48,-1.18,-1.89,1.22,1.23,1.23
117.55,2.65,2.65,1.50,1.50,-1.50,-1.21,-1.90,1.16,1.16,1.15
118.73,2.60,2.60,1.52,1.51,-1.51,-1.23,-1.92,1.09,1.08,1.09
119.92,2.54,2.54,1.53,1.53,-1.53,-1.25,-1.93,1.01,1.02,1.02
121.12,2.49,2.49,1.54,1.54,-1.54,-1.28,-1.94,0.95,0.95,0.95
122.33,2.44,2.44,1.56,1.56,-1.56,-1.31,-1.94,0.88,0.88,0.88
123.55,2.38,2.38,1.57,1.57,-1.57,-1.33,-1.95,0.81,0.81,0.81
124.79,2.33,2.33,1.59,1.58,-1.58,-1.37,-1.94,0.75,0.74,0.74
126.03,2.27,2.27,1.59,1.60,-1.60,-1.40,-1.94,0.68,0.68,0.68
127.29,2.22,2.22,1.61,1.60,-1.61,-1.43,-1.93,0.62,0.61,0.61
128.57,2.16,2.16,1.61,1.61,-1.61,-1.46,-1.93,0.55,0.55,0.55
129.85,2.10,2.10,1.62,1.62,-1.62,-1.50,-1.91,0.48,0.48,0.48
131.15,2.05,2.05,1.63,1.63,-1.63,-1.53,-1.90,0.42,0.42,0.42
132.46,1.99,1.99,1.63,1.63,-1.63,-1.56,-1.88,0.36,0.36,0.36
133.79,1.93,1.93,1.63,1.63,-1.63,-1.60,-1.86,0.30,0.30,0.30
135.12,1.87,1.87,1.63,1.63,-1.63,-1.63,-1.83,0.24,0.24,0.24
136.48,1.81,1.81,1.63,1.63,-1.63,-1.66,-1.81,0.18,0.18,0.18
137.84,1.75,1.75,1.63,1.63,-1.63,-1.69,-1.78,0.12,0.12,0.12
139.22,1.69,1.69,1.63,1.63,-1.63,-1.71,-1.75,0.06,0.06,0.06
140.61,1.63,1.63,1.63,1.62,-1.62,-1.73,-1.71,0.01,0.00,0.01
142.02,1.56,1.56,1.61,1.61,-1.62,-1.75,-1.68,-0.06,-0.05,-0.05
143.44,1.50,1.50,1.61,1.61,-1.61,-1.76,-1.65,-0.11,-0.11,-0.11
144.87,1.44,1.44,1.60,1.60,-1.60,-1.77,-1.61,-0.16,-0.16,-0.16
146.32,1.38,1.38,1.59,1.59,-1.59,-1.76,-1.57,-0.21,-0.21,-0.21
147.78,1.32,1.32,1.57,1.57,-1.57,-1.76,-1.54,-0.25,-0.26,-0.25
149.26,1.25,1.25,1.55,1.56,-1.56,-1.74,-1.50,-0.31,-0.30,-0.30
150.75,1.19,1.19,1.54,1.54,-1.54,-1.73,-1.46,-0.35,-0.35,-0.35
152.26,1.13,1.13,1.53,1.53,-1.53,-1.70,-1.42,-0.40,-0.40,-0.40
153.78,1.06,1.06,1.51,1.51,-1.51,-1.67,-1.38,-0.45,-0.45,-0.45
155.32,1.00,1.00,1.50,1.50,-1.50,-1.64,-1.34,-0.50,-0.50,-0.50
156.88,0.94,0.94,1.48,1.48,-1.48,-1.60,-1.30,-0.54,-0.54,-0.54
158.44,0.87,0.87,1.46,1.46,-1.46,-1.56,-1.26,-0.59,-0.59,-0.59
160.03,0.81,0.81,1.44,1.44,-1.44,-1.51,-1.22,-0.63,-0.63,-0.63
161.63,0.75,0.75,1.43,1.42,-1.42,-1.46,-1.18,-0.67,-0.68,-0.68
163.24,0.68,0.68,1.40,1.41,-1.40,-1.41,-1.14,-0.72,-0.72,-0.72
164.88,0.62,0.62,1.38,1.39,-1.38,-1.36,-1.10,-0.76,-0.76,-0.76
166.53,0.56,0.56,1.36,1.36,-1.36,-1.31,-1.07,-0.80,-0.80,-0.80
168.19,0.50,0.50,1.34,1.34,-1.34,-1.25,-1.03,-0.84,-0.84,-0.84
169.87,0.43,0.43,1.31,1.31,-1.31,-1.20,-0.99,-0.88,-0.88,-0.88
171.57,0.37,0.37,1.28,1.29,-1.29,-1.15,-0.96,-0.92,-0.92,-0.91
173.29,0.31,0.31,1.26,1.26,-1.26,-1.10,-0.92,-0.95,-0.95,-0.95
175.02,0.25,0.25,1.23,1.23,-1.23,-1.05,-0.89,-0.98,-0.98,-0.98
176.77,0.19,0.19,1.21,1.21,-1.21,-1.00,-0.85,-1.02,-1.02,-1.02
178.54,0.13,0.13,1.18,1.18,-1.18,-0.95,-0.82,-1.05,-1.05,-1.05
180.32,0.07,0.07,1.15,1.15,-1.15,-0.91,-0.79,-1.08,-1.08,-1.08
182.13,0.01,0.01,1.12,1.12,-1.12,-0.86,-0.76,-1.11,-1.11,-1.11
183.95,-0.05,-0.05,1.09,1.09,-1.09,-0.82,-0.73,-1.14,-1.14,-1.14
185.79,-0.11,-0.11,1.06,1.06,-1.06,-0.78,-0.70,-1.17,-1.17,-1.17
187.65,-0.17,-0.17,1.03,1.03,-1.03,-0.74,-0.67,-1.20,-1.20,-1.20
189.52,-0.23,-0.23,1.00,1.00,-1.00,-0.70,-0.64,-1.23,-1.23,-1.23
191.42,-0.29,-0.29,0.97,0.97,-0.96,-0.67,-0.61,-1.25,-1.25,-1.25
193.33,-0.35,-0.35,0.93,0.93,-0.93,-0.63,-0.58,-1.28,-1.28,-1.28
195.27,-0.41,-0.41,0.90,0.90,-0.90,-0.60,-0.55,-1.31,-1.31,-1.31
197.22,-0.47,-0.47,0.86,0.86,-0.86,-0.57,-0.53,-1.33,-1.33,-1.33
199.19,-0.53,-0.53,0.82,0.83,-0.83,-0.54,-0.50,-1.36,-1.36,-1.35
201.18,-0.58,-0.58,0.80,0.79,-0.79,-0.51,-0.48,-1.37,-1.38,-1.38
203.19,-0.64,-0.64,0.76,0.76,-0.76,-0.48,-0.45,-1.40,-1.40,-1.40
205.23,-0.69,-0.69,0.73,0.73,-0.73,-0.46,-0.43,-1.42,-1.42,-1.42
207.28,-0.75,-0.75,0.69,0.69,-0.69,-0.43,-0.40,-1.44,-1.44,-1.44
209.35,-0.80,-0.80,0.66,0.66,-0.66,-0.41,-0.38,-1.46,-1.46,-1.46
211.44,-0.86,-0.86,0.62,0.62,-0.62,-0.39,-0.36,-1.48,-1.48,-1.48
213.56,-0.91,-0.91,0.59,0.59,-0.59,-0.36,-0.33,-1.50,-1.50,-1.50
215.69,-0.96,-0.96,0.56,0.55,-0.55,-0.34,-0.31,-1.51,-1.52,-1.52
217.85,-1.02,-1.02,0.52,0.52,-0.52,-0.32,-0.29,-1.54,-1.54,-1.54
220.03,-1.07,-1.07,0.48,0.48,-0.48,-0.30,-0.27,-1.55,-1.55,-1.55
222.23,-1.12,-1.12,0.45,0.45,-0.45,-0.28,-0.25,-1.57,-1.57,-1.57
224.45,-1.17,-1.17,0.42,0.42,-0.41,-0.27,-0.23,-1.58,-1.58,-1.58
226.70,-1.22,-1.22,0.38,0.38,-0.38,-0.25,-0.21,-1.60,-1.60,-1.60
228.96,-1.27,-1.27,0.35,0.34,-0.35,-0.23,-0.19,-1.62,-1.62,-1.62
231.25,-1.32,-1.32,0.31,0.31,-0.31,-0.22,-0.17,-1.63,-1.63,-1.63
233.57,-1.37,-1.37,0.27,0.28,-0.28,-0.20,-0.15,-1.65,-1.65,-1.64
235.90,-1.41,-1.41,0.26,0.25,-0.25,-0.19,-0.13,-1.66,-1.66,-1.67
238.26,-1.46,-1.46,0.22,0.22,-0.22,-0.17,-0.11,-1.68,-1.68,-1.68
240.64,-1.51,-1.50,0.18,0.19,-0.19,-0.16,-0.09,-1.70,-1.69,-1.69
243.05,-1.55,-1.55,0.16,0.15,-0.16,-0.14,-0.07,-1.70,-1.71,-1.70
245.48,-1.59,-1.59,0.13,0.12,-0.12,-0.13,-0.06,-1.71,-1.72,-1.72
247.93,-1.64,-1.64,0.09,0.09,-0.09,-0.12,-0.04,-1.73,-1.73,-1.73
250.41,-1.68,-1.68,0.06,0.06,-0.06,-0.10,-0.02,-1.74,-1.74,-1.74
252.92,-1.72,-1.72,0.03,0.03,-0.03,-0.09,-0.00,-1.74,-1.75,-1.75
255.45,-1.76,-1.76,-0.01,-0.01,0.01,-0.08,0.01,-1.75,-1.75,-1.75
258.00,-1.80,-1.80,-0.04,-0.04,0.04,-0.07,0.03,-1.76,-1.76,-1.76
260.58,-1.84,-1.84,-0.07,-0.07,0.07,-0.06,0.05,-1.77,-1.77,-1.77
263.19,-1.88,-1.88,-0.10,-0.10,0.10,-0.04,0.06,-1.78,-1.78,-1.78
265.82,-1.91,-1.91,-0.12,-0.13,0.13,-0.03,0.08,-1.78,-1.79,-1.79
268.48,-1.95,-1.95,-0.15,-0.15,0.15,-0.02,0.10,-1.80,-1.80,-1.80
271.16,-1.98,-1.98,-0.18,-0.18,0.18,-0.01,0.11,-1.80,-1.80,-1.80
273.87,-2.02,-2.02,-0.21,-0.21,0.20,-0.00,0.13,-1.81,-1.81,-1.81
276.61,-2.05,-2.05,-0.23,-0.23,0.23,0.01,0.15,-1.82,-1.82,-1.82
279.38,-2.08,-2.08,-0.25,-0.25,0.26,0.02,0.16,-1.82,-1.82,-1.83
282.17,-2.11,-2.11,-0.28,-0.28,0.28,0.03,0.18,-1.83,-1.83,-1.83
284.99,-2.14,-2.14,-0.31,-0.31,0.31,0.04,0.20,-1.83,-1.83,-1.83
287.84,-2.17,-2.17,-0.34,-0.33,0.33,0.05,0.22,-1.84,-1.83,-1.83
290.72,-2.19,-2.19,-0.36,-0.36,0.36,0.06,0.23,-1.83,-1.83,-1.83
293.63,-2.22,-2.22,-0.38,-0.38,0.38,0.07,0.25,-1.84,-1.83,-1.84
296.57,-2.24,-2.24,-0.40,-0.41,0.41,0.08,0.27,-1.83,-1.83,-1.84
299.53,-2.27,-2.27,-0.44,-0.43,0.43,0.09,0.29,-1.84,-1.84,-1.83
302.53,-2.29,-2.29,-0.45,-0.45,0.45,0.10,0.30,-1.84,-1.84,-1.84
305.55,-2.31,-2.31,-0.48,-0.48,0.47,0.11,0.32,-1.84,-1.84,-1.83
308.61,-2.33,-2.33,-0.49,-0.49,0.49,0.12,0.34,-1.84,-1.84,-1.84
311.69,-2.35,-2.35,-0.52,-0.51,0.51,0.13,0.36,-1.84,-1.84,-1.83
314.81,-2.37,-2.37,-0.53,-0.53,0.53,0.14,0.38,-1.84,-1.83,-1.84
317.96,-2.38,-2.38,-0.55,-0.55,0.55,0.15,0.40,-1.83,-1.83,-1.83
321.14,-2.40,-2.40,-0.56,-0.56,0.57,0.16,0.42,-1.83,-1.83,-1.84
324.35,-2.41,-2.41,-0.58,-0.58,0.59,0.17,0.44,-1.82,-1.83,-1.83
327.59,-2.43,-2.43,-0.61,-0.61,0.60,0.18,0.46,-1.83,-1.82,-1.81
330.87,-2.44,-2.44,-0.62,-0.62,0.62,0.19,0.48,-1.82,-1.82,-1.82
334.18,-2.45,-2.45,-0.64,-0.64,0.63,0.20,0.51,-1.82,-1.82,-1.81
337.52,-2.46,-2.46,-0.64,-0.65,0.65,0.21,0.53,-1.81,-1.81,-1.82
340.90,-2.47,-2.47,-0.66,-0.66,0.66,0.22,0.55,-1.81,-1.81,-1.81
344.30,-2.48,-2.48,-0.68,-0.67,0.68,0.23,0.58,-1.80,-1.80,-1.80
347.75,-2.49,-2.49,-0.69,-0.69,0.69,0.24,0.60,-1.80,-1.80,-1.80
351.23,-2.49,-2.49,-0.69,-0.70,0.70,0.25,0.63,-1.79,-1.79,-1.80
354.74,-2.50,-2.50,-0.72,-0.71,0.71,0.26,0.65,-1.79,-1.79,-1.78
358.28,-2.50,-2.50,-0.71,-0.72,0.72,0.27,0.68,-1.78,-1.78,-1.79
361.87,-2.51,-2.51,-0.73,-0.73,0.73,0.29,0.70,-1.78,-1.78,-1.78
365.49,-2.51,-2.51,-0.74,-0.74,0.74,0.30,0.73,-1.77,-1.77,-1.77
369.14,-2.51,-2.51,-0.74,-0.75,0.75,0.31,0.76,-1.76,-1.77,-1.77
372.83,-2.52,-2.52,-0.76,-0.75,0.75,0.32,0.79,-1.77,-1.76,-1.76
376.56,-2.52,-2.52,-0.76,-0.76,0.76,0.33,0.81,-1.76,-1.76,-1.76
380.33,-2.52,-2.52,-0.77,-0.77,0.77,0.35,0.84,-1.75,-1.75,-1.75
384.13,-2.52,-2.52,-0.77,-0.77,0.78,0.36,0.87,-1.74,-1.74,-1.75
387.97,-2.52,-2.52,-0.78,-0.78,0.78,0.37,0.90,-1.74,-1.73,-1.74
391.85,-2.51,-2.51,-0.79,-0.79,0.79,0.39,0.93,-1.72,-1.73,-1.72
395.77,-2.51,-2.51,-0.79,-0.79,0.79,0.40,0.96,-1.72,-1.72,-1.72
399.73,-2.51,-2.51,-0.80,-0.80,0.79,0.41,0.99,-1.72,-1.71,-1.71
403.72,-2.50,-2.50,-0.80,-0.79,0.79,0.43,1.02,-1.70,-1.71,-1.70
407.76,-2.50,-2.50,-0.79,-0.80,0.80,0.44,1.05,-1.70,-1.70,-1.71
411.84,-2.49,-2.49,-0.79,-0.79,0.79,0.46,1.08,-1.70,-1.70,-1.70
415.96,-2.49,-2.49,-0.80,-0.79,0.79,0.47,1.11,-1.70,-1.69,-1.69
420.12,-2.48,-2.48,-0.79,-0.79,0.79,0.49,1.14,-1.69,-1.69,-1.69
424.32,-2.47,-2.47,-0.79,-0.79,0.79,0.51,1.17,-1.68,-1.68,-1.68
428.56,-2.46,-2.46,-0.79,-0.79,0.79,0.52,1.20,-1.67,-1.67,-1.67
432.85,-2.45,-2.45,-0.78,-0.79,0.79,0.54,1.23,-1.66,-1.66,-1.67
437.18,-2.45,-2.45,-0.79,-0.79,0.79,0.56,1.26,-1.66,-1.66,-1.66
441.55,-2.44,-2.44,-0.79,-0.79,0.79,0.58,1.28,-1.65,-1.65,-1.65
445.96,-2.43,-2.43,-0.79,-0.79,0.79,0.59,1.31,-1.64,-1.64,-1.64
450.42,-2.42,-2.42,-0.80,-0.80,0.79,0.61,1.33,-1.63,-1.63,-1.62
454.93,-2.41,-2.41,-0.80,-0.80,0.79,0.63,1.35,-1.62,-1.62,-1.61
459.48,-2.40,-2.40,-0.80,-0.79,0.79,0.65,1.38,-1.61,-1.61,-1.60
464.07,-2.39,-2.39,-0.79,-0.79,0.79,0.67,1.39,-1.60,-1.60,-1.60
468.71,-2.38,-2.38,-0.78,-0.78,0.79,0.69,1.41,-1.59,-1.59,-1.60
473.40,-2.37,-2.37,-0.78,-0.78,0.79,0.71,1.43,-1.58,-1.58,-1.59
478.13,-2.36,-2.36,-0.78,-0.79,0.79,0.74,1.44,-1.57,-1.57,-1.58
482.91,-2.36,-2.36,-0.80,-0.79,0.79,0.76,1.45,-1.57,-1.57,-1.56
487.74,-2.35,-2.35,-0.80,-0.80,0.79,0.78,1.46,-1.56,-1.55,-1.55
492.62,-2.34,-2.34,-0.80,-0.80,0.80,0.81,1.46,-1.54,-1.54,-1.54
497.55,-2.33,-2.33,-0.80,-0.80,0.80,0.83,1.46,-1.52,-1.53,-1.53
502.52,-2.33,-2.33,-0.81,-0.81,0.81,0.86,1.46,-1.52,-1.51,-1.52
