frequency,raw,error,smoothed,error_smoothed,equalization,parametric_eq,fixed_band_eq,equalized_raw,equalized_smoothed,target
20.00,-16.11,-16.85,-16.11,-16.85,6.00,6.82,2.92,-10.11,-10.11,0.74
20.20,-15.97,-16.75,-15.97,-16.75,6.00,6.81,3.01,-9.97,-9.97,0.79
20.40,-15.83,-16.66,-15.83,-16.66,6.00,6.80,3.09,-9.83,-9.83,0.84
20.61,-15.69,-16.56,-15.69,-16.56,6.00,6.79,3.18,-9.69,-9.69,0.86
20.81,-15.55,-16.46,-15.55,-16.46,6.00,6.78,3.27,-9.55,-9.55,0.92
21.02,-15.41,-16.36,-15.41,-16.36,6.00,6.77,3.37,-9.41,-9.41,0.95
21.23,-15.29,-16.26,-15.29,-16.26,6.00,6.76,3.46,-9.29,-9.29,0.97
21.44,-15.17,-16.16,-15.17,-16.16,6.00,6.74,3.56,-9.17,-9.17,0.99
21.66,-15.06,-16.07,-15.05,-16.07,6.00,6.73,3.66,-9.06,-9.05,1.01
21.87,-14.94,-15.96,-14.94,-15.96,6.00,6.72,3.77,-8.94,-8.94,1.02
22.09,-14.82,-15.86,-14.82,-15.86,6.00,6.71,3.87,-8.82,-8.82,1.04
22.31,-14.70,-15.75,-14.70,-15.75,6.00,6.70,3.98,-8.70,-8.70,1.05
22.54,-14.58,-15.63,-14.58,-15.63,6.00,6.68,4.10,-8.58,-8.58,1.05
22.76,-14.46,-15.51,-14.46,-15.51,6.00,6.67,4.21,-8.46,-8.46,1.05
22.99,-14.35,-15.39,-14.34,-15.38,6.00,6.66,4.33,-8.35,-8.34,1.04
23.22,-14.22,-15.26,-14.22,-15.26,6.00,6.64,4.45,-8.22,-8.22,1.04
23.45,-14.09,-15.13,-14.10,-15.13,6.00,6.63,4.58,-8.09,-8.10,1.04
23.69,-13.97,-15.02,-13.97,-15.01,6.00,6.62,4.71,-7.97,-7.97,1.05
23.92,-13.84,-14.88,-13.83,-14.88,6.00,6.60,4.84,-7.84,-7.83,1.05
24.16,-13.70,-14.75,-13.70,-14.75,6.00,6.59,4.97,-7.70,-7.70,1.06
24.40,-13.55,-14.61,-13.54,-14.60,6.00,6.57,5.10,-7.55,-7.54,1.06
24.65,-13.40,-14.45,-13.39,-14.45,6.00,6.56,5.24,-7.40,-7.39,1.05
24.89,-13.25,-14.30,-13.26,-14.31,6.00,6.54,5.38,-7.25,-7.26,1.05
25.14,-13.15,-14.20,-13.15,-14.21,6.00,6.53,5.52,-7.15,-7.15,1.05
25.39,-13.08,-14.14,-13.08,-14.13,6.00,6.51,5.66,-7.08,-7.08,1.06
25.65,-13.01,-14.07,-13.01,-14.06,6.00,6.49,5.80,-7.01,-7.01,1.06
25.91,-12.94,-13.99,-12.93,-13.98,6.00,6.48,5.95,-6.94,-6.93,1.05
26.16,-12.83,-13.87,-12.83,-13.87,6.00,6.46,6.09,-6.83,-6.83,1.05
26.43,-12.70,-13.75,-12.71,-13.75,6.00,6.44,6.23,-6.70,-6.71,1.05
26.69,-12.58,-13.62,-12.58,-13.63,6.00,6.42,6.37,-6.58,-6.58,1.04
26.96,-12.45,-13.50,-12.45,-13.50,6.00,6.41,6.51,-6.45,-6.45,1.05
27.23,-12.32,-13.37,-12.32,-13.37,6.00,6.39,6.65,-6.32,-6.32,1.05
27.50,-12.18,-13.23,-12.18,-13.23,6.00,6.37,6.78,-6.18,-6.18,1.05
27.77,-12.04,-13.08,-12.04,-13.08,6.00,6.35,6.91,-6.04,-6.04,1.04
28.05,-11.90,-12.94,-11.90,-12.93,6.00,6.33,7.04,-5.90,-5.90,1.04
28.33,-11.77,-12.79,-11.77,-12.80,6.00,6.31,7.15,-5.77,-5.77,1.03
28.62,-11.63,-12.66,-11.63,-12.66,6.00,6.29,7.27,-5.63,-5.63,1.03
28.90,-11.50,-12.53,-11.49,-12.52,6.00,6.27,7.37,-5.50,-5.49,1.03
29.19,-11.34,-12.36,-11.34,-12.37,6.00,6.24,7.46,-5.34,-5.34,1.02
29.48,-11.18,-12.22,-11.17,-12.21,6.00,6.22,7.54,-5.18,-5.17,1.04
29.78,-11.01,-12.04,-11.01,-12.05,6.00,6.20,7.62,-5.01,-5.01,1.03
30.08,-10.86,-11.90,-10.87,-11.91,6.00,6.18,7.68,-4.86,-4.87,1.04
30.38,-10.76,-11.78,-10.76,-11.78,6.00,6.15,7.73,-4.76,-4.76,1.02
30.68,-10.66,-11.68,-10.66,-11.68,6.00,6.13,7.76,-4.66,-4.66,1.02
30.99,-10.56,-11.58,-10.55,-11.57,6.00,6.10,7.79,-4.56,-4.55,1.02
31.30,-10.44,-11.46,-10.44,-11.46,6.00,6.08,7.79,-4.44,-4.44,1.02
31.61,-10.31,-11.32,-10.31,-11.33,6.00,6.05,7.79,-4.31,-4.31,1.02
31.93,-10.18,-11.19,-10.18,-11.19,6.00,6.03,7.77,-4.18,-4.18,1.01
32.24,-10.05,-11.05,-10.05,-11.06,6.00,6.00,7.74,-4.05,-4.05,1.00
32.57,-9.93,-10.94,-9.92,-10.93,6.00,5.97,7.69,-3.93,-3.92,1.01
32.89,-9.80,-10.80,-9.80,-10.80,6.00,5.95,7.64,-3.80,-3.80,1.01
33.22,-9.67,-10.66,-9.67,-10.67,6.00,5.92,7.57,-3.67,-3.67,0.99
33.55,-9.55,-10.54,-9.55,-10.54,6.00,5.89,7.49,-3.55,-3.55,0.99
33.89,-9.42,-10.40,-9.42,-10.40,6.00,5.86,7.40,-3.42,-3.42,0.98
34.23,-9.28,-10.26,-9.28,-10.26,6.00,5.83,7.30,-3.28,-3.28,0.98
34.57,-9.13,-10.10,-9.13,-10.10,6.00,5.80,7.20,-3.13,-3.13,0.97
34.92,-8.98,-9.95,-8.98,-9.95,6.00,5.76,7.09,-2.98,-2.98,0.97
35.27,-8.83,-9.80,-8.83,-9.79,6.00,5.73,6.97,-2.83,-2.83,0.97
35.62,-8.69,-9.65,-8.69,-9.65,6.00,5.70,6.85,-2.69,-2.69,0.96
35.97,-8.55,-9.51,-8.55,-9.51,6.00,5.66,6.72,-2.55,-2.55,0.96
36.33,-8.43,-9.39,-8.42,-9.38,6.00,5.63,6.59,-2.43,-2.42,0.96
36.70,-8.30,-9.25,-8.30,-9.25,6.00,5.59,6.46,-2.30,-2.30,0.95
37.06,-8.18,-9.12,-8.17,-9.13,6.00,5.56,6.33,-2.18,-2.17,0.95
37.43,-8.05,-9.01,-8.05,-9.00,6.00,5.52,6.19,-2.05,-2.05,0.96
37.81,-7.92,-8.88,-7.92,-8.88,6.00,5.48,6.06,-1.92,-1.92,0.96
38.19,-7.80,-8.75,-7.80,-8.76,6.00,5.44,5.93,-1.80,-1.80,0.95
38.57,-7.68,-8.64,-7.67,-8.63,6.00,5.40,5.80,-1.68,-1.67,0.96
38.95,-7.55,-8.51,-7.55,-8.51,6.00,5.36,5.67,-1.55,-1.55,0.96
39.34,-7.43,-8.39,-7.43,-8.39,6.00,5.32,5.54,-1.43,-1.43,0.96
39.74,-7.30,-8.25,-7.30,-8.25,6.00,5.28,5.41,-1.30,-1.30,0.95
40.14,-7.16,-8.12,-7.15,-8.11,6.00,5.24,5.29,-1.16,-1.15,0.96
40.54,-7.00,-7.95,-7.00,-7.95,6.00,5.19,5.16,-1.00,-1.00,0.95
40.94,-6.84,-7.78,-6.85,-7.80,6.00,5.15,5.04,-0.84,-0.85,0.95
41.35,-6.71,-7.65,-6.71,-7.65,6.00,5.10,4.93,-0.71,-0.71,0.94
41.76,-6.58,-7.51,-6.57,-7.51,6.00,5.06,4.81,-0.58,-0.57,0.93
42.18,-6.45,-7.39,-6.45,-7.38,6.00,5.01,4.70,-0.45,-0.45,0.94
42.60,-6.33,-7.25,-6.32,-7.25,6.00,4.96,4.60,-0.33,-0.32,0.92
43.03,-6.20,-7.11,-6.20,-7.11,6.00,4.91,4.49,-0.20,-0.20,0.91
43.46,-6.07,-6.97,-6.07,-6.97,6.00,4.86,4.39,-0.07,-0.07,0.91
43.90,-5.94,-6.82,-5.94,-6.82,6.01,4.81,4.30,0.07,0.07,0.88
44.33,-5.81,-6.67,-5.81,-6.67,6.02,4.75,4.20,0.21,0.21,0.86
44.78,-5.68,-6.52,-5.68,-6.53,6.02,4.70,4.11,0.34,0.34,0.84
45.23,-5.56,-6.39,-5.55,-6.38,6.02,4.64,4.02,0.47,0.47,0.84
45.68,-5.44,-6.26,-5.44,-6.26,6.01,4.58,3.94,0.58,0.57,0.82
46.13,-5.33,-6.13,-5.34,-6.15,5.99,4.53,3.86,0.66,0.64,0.80
46.60,-5.25,-6.05,-5.25,-6.04,5.94,4.47,3.78,0.69,0.69,0.80
47.06,-5.17,-5.95,-5.14,-5.92,5.87,4.41,3.70,0.70,0.73,0.78
47.53,-5.02,-5.79,-5.02,-5.80,5.77,4.34,3.63,0.76,0.75,0.77
48.01,-4.88,-5.65,-4.90,-5.66,5.65,4.28,3.56,0.78,0.76,0.77
48.49,-4.76,-5.51,-4.76,-5.51,5.52,4.22,3.49,0.76,0.75,0.75
48.97,-4.65,-5.37,-4.62,-5.35,5.36,4.15,3.43,0.71,0.74,0.73
49.46,-4.48,-5.18,-4.47,-5.18,5.20,4.08,3.37,0.72,0.72,0.71
49.96,-4.30,-4.98,-4.32,-5.01,5.03,4.01,3.31,0.73,0.71,0.68
50.46,-4.18,-4.86,-4.18,-4.86,4.87,3.94,3.25,0.69,0.70,0.68
50.96,-4.06,-4.73,-4.05,-4.71,4.72,3.87,3.19,0.66,0.67,0.67
51.47,-3.93,-4.57,-3.93,-4.58,4.57,3.80,3.14,0.64,0.64,0.65
51.99,-3.79,-4.42,-3.79,-4.43,4.43,3.72,3.08,0.64,0.64,0.63
52.51,-3.66,-4.29,-3.66,-4.28,4.29,3.64,3.03,0.63,0.63,0.63
53.03,-3.52,-4.14,-3.53,-4.15,4.15,3.57,2.98,0.63,0.62,0.62
53.56,-3.41,-4.02,-3.41,-4.01,4.01,3.49,2.93,0.60,0.61,0.61
54.10,-3.29,-3.88,-3.28,-3.87,3.87,3.40,2.88,0.58,0.59,0.59
54.64,-3.15,-3.73,-3.16,-3.73,3.73,3.32,2.83,0.58,0.58,0.58
55.18,-3.02,-3.59,-3.02,-3.59,3.59,3.23,2.78,0.57,0.56,0.57
55.74,-2.90,-3.45,-2.89,-3.45,3.45,3.15,2.73,0.55,0.56,0.55
56.29,-2.76,-3.30,-2.75,-3.30,3.30,3.06,2.68,0.54,0.55,0.55
56.86,-2.61,-3.14,-2.62,-3.15,3.15,2.97,2.63,0.54,0.52,0.53
57.42,-2.49,-2.99,-2.49,-3.00,3.00,2.88,2.58,0.51,0.50,0.50
58.00,-2.38,-2.87,-2.35,-2.84,2.84,2.78,2.52,0.46,0.48,0.49
58.58,-2.21,-2.69,-2.21,-2.69,2.68,2.69,2.47,0.47,0.47,0.48
59.16,-2.05,-2.51,-2.07,-2.53,2.52,2.59,2.41,0.47,0.46,0.46
59.76,-1.93,-2.37,-1.92,-2.35,2.37,2.49,2.35,0.44,0.45,0.44
60.35,-1.80,-2.19,-1.79,-2.20,2.21,2.39,2.29,0.41,0.42,0.40
60.96,-1.67,-2.03,-1.68,-2.04,2.05,2.28,2.23,0.38,0.37,0.36
61.57,-1.57,-1.89,-1.57,-1.89,1.90,2.18,2.16,0.33,0.33,0.32
62.18,-1.47,-1.75,-1.47,-1.75,1.74,2.07,2.09,0.27,0.27,0.28
62.80,-1.37,-1.60,-1.37,-1.60,1.58,1.96,2.02,0.21,0.21,0.23
63.43,-1.26,-1.45,-1.25,-1.44,1.43,1.85,1.95,0.17,0.17,0.19
64.07,-1.14,-1.28,-1.13,-1.27,1.27,1.74,1.87,0.14,0.14,0.14
64.71,-1.00,-1.09,-1.01,-1.11,1.12,1.62,1.79,0.12,0.11,0.10
65.35,-0.89,-0.95,-0.90,-0.95,0.97,1.50,1.71,0.08,0.08,0.06
66.01,-0.80,-0.81,-0.79,-0.80,0.82,1.38,1.62,0.02,0.02,0.01
66.67,-0.70,-0.66,-0.70,-0.66,0.66,1.26,1.54,-0.04,-0.04,-0.04
67.33,-0.60,-0.51,-0.61,-0.52,0.50,1.14,1.45,-0.10,-0.11,-0.09
68.01,-0.51,-0.38,-0.50,-0.37,0.34,1.01,1.35,-0.17,-0.16,-0.13
68.69,-0.39,-0.21,-0.38,-0.20,0.18,0.89,1.26,-0.21,-0.20,-0.18
69.37,-0.25,-0.01,-0.25,-0.02,0.02,0.76,1.16,-0.22,-0.22,-0.23
70.07,-0.10,0.19,-0.12,0.16,-0.13,0.63,1.06,-0.23,-0.25,-0.29
70.77,-0.02,0.31,-0.01,0.32,-0.28,0.49,0.95,-0.30,-0.30,-0.33
71.48,0.06,0.44,0.06,0.45,-0.43,0.36,0.85,-0.37,-0.37,-0.38
72.19,0.13,0.58,0.13,0.57,-0.58,0.22,0.74,-0.45,-0.46,-0.45
72.91,0.19,0.70,0.21,0.71,-0.73,0.08,0.63,-0.54,-0.52,-0.50
73.64,0.30,0.86,0.29,0.86,-0.88,-0.06,0.52,-0.58,-0.59,-0.56
74.38,0.40,1.02,0.39,1.01,-1.03,-0.20,0.41,-0.63,-0.64,-0.62
75.12,0.48,1.16,0.50,1.17,-1.18,-0.34,0.30,-0.70,-0.69,-0.68
75.87,0.60,1.34,0.60,1.33,-1.33,-0.49,0.18,-0.73,-0.73,-0.74
76.63,0.70,1.49,0.70,1.49,-1.47,-0.63,0.07,-0.77,-0.77,-0.79
77.40,0.80,1.64,0.80,1.65,-1.61,-0.78,-0.05,-0.81,-0.80,-0.84
78.17,0.88,1.78,0.88,1.77,-1.74,-0.93,-0.17,-0.86,-0.86,-0.90
78.95,0.95,1.88,0.93,1.87,-1.86,-1.07,-0.29,-0.91,-0.94,-0.93
79.74,0.96,1.95,0.97,1.96,-1.98,-1.22,-0.41,-1.02,-1.01,-0.99
80.54,1.01,2.04,1.04,2.07,-2.10,-1.38,-0.54,-1.09,-1.06,-1.03
81.35,1.12,2.21,1.12,2.20,-2.22,-1.53,-0.66,-1.10,-1.10,-1.08
82.16,1.25,2.38,1.21,2.34,-2.34,-1.68,-0.79,-1.09,-1.13,-1.13
82.98,1.27,2.44,1.29,2.47,-2.46,-1.83,-0.91,-1.19,-1.17,-1.17
83.81,1.36,2.59,1.37,2.59,-2.59,-1.98,-1.04,-1.23,-1.22,-1.22
84.65,1.44,2.71,1.44,2.71,-2.71,-2.13,-1.17,-1.27,-1.27,-1.27
85.50,1.53,2.84,1.54,2.85,-2.84,-2.28,-1.30,-1.31,-1.30,-1.31
86.35,1.62,2.98,1.61,2.97,-2.95,-2.44,-1.43,-1.33,-1.34,-1.36
87.22,1.68,3.09,1.67,3.07,-3.06,-2.59,-1.56,-1.38,-1.40,-1.41
88.09,1.69,3.15,1.71,3.17,-3.17,-2.73,-1.70,-1.48,-1.46,-1.46
88.97,1.74,3.25,1.75,3.26,-3.27,-2.88,-1.83,-1.53,-1.52,-1.51
89.86,1.79,3.35,1.80,3.36,-3.37,-3.03,-1.97,-1.58,-1.57,-1.56
90.76,1.86,3.48,1.85,3.46,-3.46,-3.17,-2.11,-1.60,-1.61,-1.61
91.66,1.89,3.55,1.88,3.54,-3.54,-3.32,-2.25,-1.65,-1.66,-1.66
92.58,1.89,3.61,1.92,3.63,-3.62,-3.45,-2.39,-1.72,-1.70,-1.72
93.51,1.94,3.71,1.95,3.71,-3.70,-3.59,-2.53,-1.75,-1.75,-1.76
94.44,1.99,3.80,1.97,3.78,-3.78,-3.73,-2.68,-1.79,-1.81,-1.81
95.39,1.99,3.84,1.98,3.84,-3.86,-3.86,-2.82,-1.87,-1.87,-1.85
96.34,1.98,3.89,1.99,3.90,-3.93,-3.99,-2.97,-1.95,-1.94,-1.91
97.30,2.00,3.95,2.03,3.98,-4.01,-4.11,-3.12,-2.01,-1.98,-1.95
98.28,2.09,4.09,2.08,4.08,-4.08,-4.23,-3.27,-1.99,-1.99,-2.00
99.26,2.16,4.20,2.13,4.17,-4.14,-4.35,-3.42,-1.98,-2.01,-2.04
100.25,2.14,4.23,2.15,4.24,-4.20,-4.46,-3.56,-2.06,-2.05,-2.09
101.25,2.12,4.26,2.13,4.27,-4.25,-4.56,-3.71,-2.13,-2.12,-2.13
102.27,2.11,4.29,2.11,4.30,-4.30,-4.66,-3.86,-2.19,-2.19,-2.18
103.29,2.10,4.34,2.10,4.33,-4.34,-4.76,-4.01,-2.24,-2.24,-2.24
104.32,2.08,4.36,2.08,4.36,-4.37,-4.85,-4.16,-2.29,-2.29,-2.27
105.37,2.05,4.37,2.06,4.38,-4.39,-4.94,-4.31,-2.34,-2.33,-2.32
106.42,2.03,4.40,2.03,4.40,-4.40,-5.02,-4.45,-2.37,-2.38,-2.37
107.48,2.00,4.42,2.01,4.43,-4.42,-5.10,-4.60,-2.42,-2.41,-2.42
108.56,1.98,4.46,1.98,4.46,-4.43,-5.16,-4.74,-2.45,-2.45,-2.48
109.64,1.96,4.49,1.94,4.46,-4.45,-5.23,-4.88,-2.49,-2.51,-2.52
110.74,1.88,4.46,1.89,4.46,-4.47,-5.28,-5.01,-2.59,-2.58,-2.58
111.85,1.82,4.44,1.84,4.47,-4.49,-5.34,-5.14,-2.67,-2.65,-2.62
112.97,1.81,4.49,1.81,4.49,-4.52,-5.38,-5.26,-2.71,-2.71,-2.68
114.10,1.81,4.54,1.80,4.53,-4.56,-5.42,-5.38,-2.74,-2.75,-2.73
115.24,1.80,4.57,1.80,4.58,-4.59,-5.46,-5.49,-2.79,-2.78,-2.77
116.39,1.80,4.63,1.80,4.63,-4.62,-5.49,-5.59,-2.82,-2.82,-2.83
117.55,1.81,4.67,1.81,4.68,-4.65,-5.51,-5.68,-2.84,-2.84,-2.86
118.73,1.81,4.72,1.82,4.72,-4.68,-5.53,-5.77,-2.86,-2.86,-2.90
119.92,1.82,4.75,1.80,4.73,-4.70,-5.55,-5.85,-2.87,-2.90,-2.93
121.12,1.76,4.73,1.75,4.72,-4.71,-5.56,-5.92,-2.95,-2.96,-2.97
122.33,1.68,4.68,1.70,4.70,-4.72,-5.56,-5.97,-3.04,-3.02,-3.00
123.55,1.64,4.67,1.66,4.69,-4.73,-5.57,-6.02,-3.09,-3.07,-3.02
124.79,1.65,4.71,1.65,4.70,-4.74,-5.56,-6.05,-3.09,-3.09,-3.06
126.03,1.66,4.75,1.66,4.74,-4.74,-5.56,-6.08,-3.08,-3.08,-3.09
127.29,1.66,4.77,1.66,4.77,-4.75,-5.54,-6.09,-3.08,-3.09,-3.11
128.57,1.65,4.80,1.64,4.78,-4.76,-5.53,-6.10,-3.10,-3.12,-3.15
129.85,1.59,4.77,1.61,4.78,-4.77,-5.51,-6.09,-3.18,-3.16,-3.17
131.15,1.58,4.78,1.57,4.77,-4.78,-5.49,-6.08,-3.20,-3.21,-3.20
132.46,1.54,4.77,1.54,4.77,-4.79,-5.47,-6.05,-3.24,-3.25,-3.23
133.79,1.50,4.76,1.52,4.78,-4.78,-5.45,-6.03,-3.28,-3.27,-3.26
135.12,1.49,4.78,1.50,4.78,-4.78,-5.42,-5.98,-3.29,-3.28,-3.29
136.48,1.49,4.80,1.47,4.79,-4.77,-5.39,-5.94,-3.28,-3.30,-3.31
137.84,1.44,4.78,1.44,4.78,-4.77,-5.36,-5.88,-3.33,-3.33,-3.34
139.22,1.38,4.76,1.38,4.76,-4.76,-5.32,-5.82,-3.38,-3.38,-3.38
140.61,1.32,4.73,1.34,4.74,-4.75,-5.29,-5.75,-3.43,-3.41,-3.41
142.02,1.30,4.72,1.32,4.74,-4.73,-5.25,-5.69,-3.43,-3.42,-3.42
143.44,1.30,4.75,1.29,4.74,-4.72,-5.22,-5.61,-3.42,-3.44,-3.45
144.87,1.27,4.76,1.24,4.72,-4.71,-5.18,-5.54,-3.44,-3.48,-3.49
146.32,1.15,4.68,1.17,4.70,-4.71,-5.14,-5.46,-3.56,-3.54,-3.53
147.78,1.09,4.65,1.12,4.69,-4.71,-5.10,-5.38,-3.62,-3.59,-3.56
149.26,1.09,4.70,1.08,4.70,-4.72,-5.06,-5.30,-3.63,-3.63,-3.61
150.75,1.09,4.77,1.07,4.74,-4.74,-5.02,-5.22,-3.64,-3.67,-3.68
152.26,1.03,4.77,1.03,4.77,-4.76,-4.98,-5.14,-3.73,-3.73,-3.74
153.78,0.98,4.79,0.98,4.79,-4.80,-4.94,-5.06,-3.82,-3.82,-3.81
155.32,0.92,4.80,0.93,4.81,-4.84,-4.90,-4.99,-3.92,-3.91,-3.88
156.88,0.89,4.85,0.91,4.86,-4.88,-4.85,-4.91,-3.99,-3.97,-3.96
158.44,0.89,4.93,0.88,4.92,-4.92,-4.81,-4.84,-4.02,-4.03,-4.04
160.03,0.87,4.99,0.86,4.97,-4.95,-4.77,-4.76,-4.07,-4.09,-4.12
161.63,0.80,4.99,0.80,5.00,-4.96,-4.73,-4.69,-4.16,-4.16,-4.19
163.24,0.73,4.98,0.74,4.99,-4.98,-4.69,-4.62,-4.24,-4.24,-4.25
164.88,0.66,4.96,0.66,4.97,-4.97,-4.65,-4.56,-4.31,-4.31,-4.30
166.53,0.60,4.95,0.60,4.96,-4.96,-4.62,-4.50,-4.35,-4.35,-4.35
168.19,0.54,4.93,0.54,4.93,-4.93,-4.58,-4.44,-4.38,-4.39,-4.39
169.87,0.48,4.91,0.47,4.89,-4.89,-4.54,-4.38,-4.41,-4.42,-4.43
171.57,0.38,4.83,0.40,4.84,-4.84,-4.51,-4.33,-4.46,-4.45,-4.44
173.29,0.33,4.79,0.33,4.79,-4.79,-4.47,-4.28,-4.46,-4.47,-4.46
175.02,0.26,4.73,0.26,4.73,-4.74,-4.44,-4.24,-4.48,-4.49,-4.47
176.77,0.21,4.69,0.21,4.69,-4.69,-4.40,-4.19,-4.48,-4.48,-4.48
178.54,0.15,4.64,0.17,4.65,-4.64,-4.37,-4.15,-4.49,-4.47,-4.49
180.32,0.14,4.62,0.13,4.61,-4.60,-4.34,-4.12,-4.46,-4.47,-4.48
182.13,0.11,4.58,0.07,4.55,-4.56,-4.31,-4.08,-4.45,-4.49,-4.47
183.95,-0.01,4.47,0.03,4.51,-4.53,-4.28,-4.05,-4.53,-4.50,-4.48
185.79,-0.03,4.46,-0.01,4.47,-4.50,-4.26,-4.03,-4.52,-4.51,-4.48
187.65,-0.02,4.49,-0.04,4.46,-4.47,-4.23,-4.00,-4.49,-4.51,-4.50
189.52,-0.06,4.46,-0.06,4.46,-4.44,-4.20,-3.98,-4.50,-4.50,-4.52
191.42,-0.10,4.44,-0.10,4.44,-4.42,-4.18,-3.96,-4.52,-4.52,-4.53
193.33,-0.15,4.40,-0.15,4.40,-4.40,-4.16,-3.95,-4.55,-4.55,-4.55
195.27,-0.21,4.36,-0.20,4.38,-4.38,-4.13,-3.94,-4.59,-4.58,-4.57
197.22,-0.24,4.35,-0.24,4.35,-4.36,-4.11,-3.93,-4.60,-4.60,-4.59
199.19,-0.28,4.34,-0.28,4.33,-4.33,-4.09,-3.92,-4.61,-4.61,-4.62
201.18,-0.33,4.30,-0.33,4.30,-4.29,-4.07,-3.91,-4.62,-4.62,-4.63
203.19,-0.40,4.25,-0.39,4.26,-4.25,-4.04,-3.91,-4.65,-4.64,-4.65
205.23,-0.45,4.23,-0.45,4.22,-4.21,-4.02,-3.91,-4.66,-4.66,-4.67
207.28,-0.51,4.17,-0.51,4.18,-4.17,-4.00,-3.91,-4.68,-4.68,-4.68
209.35,-0.58,4.13,-0.58,4.13,-4.13,-3.98,-3.91,-4.71,-4.72,-4.70
211.44,-0.65,4.09,-0.66,4.07,-4.10,-3.95,-3.91,-4.75,-4.76,-4.74
213.56,-0.74,4.00,-0.71,4.03,-4.07,-3.92,-3.91,-4.80,-4.78,-4.74
215.69,-0.76,4.00,-0.74,4.02,-4.03,-3.90,-3.91,-4.79,-4.78,-4.76
217.85,-0.73,4.04,-0.76,4.01,-4.00,-3.87,-3.91,-4.73,-4.76,-4.77
220.03,-0.78,4.00,-0.78,4.00,-3.97,-3.83,-3.91,-4.75,-4.76,-4.78
222.23,-0.83,3.97,-0.84,3.95,-3.93,-3.80,-3.91,-4.76,-4.78,-4.80
224.45,-0.93,3.87,-0.89,3.91,-3.89,-3.76,-3.90,-4.82,-4.78,-4.79
226.70,-0.95,3.85,-0.94,3.85,-3.85,-3.72,-3.90,-4.79,-4.79,-4.80
228.96,-0.94,3.85,-1.00,3.78,-3.79,-3.67,-3.89,-4.73,-4.79,-4.79
231.25,-1.09,3.69,-1.06,3.72,-3.72,-3.62,-3.88,-4.81,-4.78,-4.78
233.57,-1.15,3.62,-1.12,3.64,-3.65,-3.57,-3.87,-4.80,-4.77,-4.77
235.90,-1.17,3.59,-1.18,3.57,-3.58,-3.52,-3.85,-4.75,-4.76,-4.76
238.26,-1.21,3.54,-1.22,3.52,-3.52,-3.46,-3.83,-4.73,-4.73,-4.75
240.64,-1.27,3.46,-1.27,3.45,-3.46,-3.40,-3.81,-4.73,-4.73,-4.72
243.05,-1.33,3.36,-1.32,3.37,-3.40,-3.34,-3.78,-4.73,-4.72,-4.69
245.48,-1.38,3.29,-1.35,3.32,-3.34,-3.27,-3.75,-4.72,-4.69,-4.67
247.93,-1.35,3.29,-1.36,3.29,-3.28,-3.21,-3.71,-4.63,-4.64,-4.64
250.41,-1.35,3.28,-1.37,3.25,-3.23,-3.13,-3.67,-4.58,-4.60,-4.63
252.92,-1.40,3.20,-1.39,3.21,-3.18,-3.06,-3.63,-4.58,-4.57,-4.60
255.45,-1.45,3.12,-1.46,3.12,-3.12,-2.99,-3.58,-4.57,-4.58,-4.57
258.00,-1.51,3.04,-1.53,3.02,-3.06,-2.92,-3.52,-4.57,-4.59,-4.55
260.58,-1.61,2.93,-1.55,2.98,-2.99,-2.84,-3.46,-4.60,-4.54,-4.54
263.19,-1.59,2.91,-1.57,2.94,-2.91,-2.77,-3.40,-4.50,-4.48,-4.50
265.82,-1.53,2.96,-1.62,2.87,-2.82,-2.69,-3.33,-4.35,-4.44,-4.49
268.48,-1.71,2.76,-1.72,2.75,-2.73,-2.62,-3.26,-4.44,-4.45,-4.47
271.16,-1.87,2.56,-1.82,2.61,-2.64,-2.54,-3.18,-4.50,-4.46,-4.43
273.87,-1.97,2.45,-1.90,2.51,-2.54,-2.47,-3.10,-4.51,-4.44,-4.42
276.61,-1.88,2.50,-1.93,2.45,-2.45,-2.40,-3.01,-4.33,-4.39,-4.38
279.38,-1.94,2.42,-2.00,2.36,-2.36,-2.32,-2.93,-4.30,-4.36,-4.36
282.17,-2.11,2.22,-2.09,2.24,-2.27,-2.25,-2.84,-4.37,-4.35,-4.33
284.99,-2.24,2.06,-2.17,2.14,-2.17,-2.18,-2.75,-4.40,-4.33,-4.30
287.84,-2.22,2.06,-2.21,2.07,-2.06,-2.11,-2.65,-4.28,-4.27,-4.28
290.72,-2.15,2.10,-2.23,2.02,-1.96,-2.04,-2.55,-4.10,-4.19,-4.25
293.63,-2.32,1.90,-2.29,1.93,-1.84,-1.97,-2.46,-4.16,-4.13,-4.22
296.57,-2.42,1.77,-2.43,1.76,-1.72,-1.91,-2.36,-4.14,-4.15,-4.19
299.53,-2.57,1.59,-2.60,1.56,-1.60,-1.84,-2.26,-4.17,-4.20,-4.16
302.53,-2.75,1.40,-2.68,1.46,-1.50,-1.78,-2.15,-4.25,-4.17,-4.14
305.55,-2.75,1.35,-2.73,1.38,-1.41,-1.71,-2.05,-4.16,-4.13,-4.10
308.61,-2.67,1.41,-2.75,1.32,-1.34,-1.65,-1.95,-4.01,-4.10,-4.08
311.69,-2.78,1.28,-2.78,1.27,-1.31,-1.59,-1.84,-4.09,-4.09,-4.05
314.81,-2.83,1.20,-2.79,1.24,-1.31,-1.52,-1.74,-4.14,-4.10,-4.03
317.96,-2.80,1.21,-2.75,1.27,-1.34,-1.46,-1.64,-4.13,-4.08,-4.01
321.14,-2.60,1.41,-2.64,1.36,-1.37,-1.41,-1.53,-3.97,-4.01,-4.00
324.35,-2.50,1.49,-2.54,1.45,-1.40,-1.35,-1.43,-3.90,-3.93,-3.99
327.59,-2.49,1.48,-2.47,1.51,-1.42,-1.29,-1.32,-3.90,-3.88,-3.97
330.87,-2.49,1.47,-2.47,1.49,-1.42,-1.23,-1.22,-3.91,-3.89,-3.96
334.18,-2.48,1.47,-2.51,1.44,-1.40,-1.17,-1.12,-3.88,-3.91,-3.95
337.52,-2.57,1.37,-2.58,1.36,-1.36,-1.12,-1.01,-3.92,-3.93,-3.94
340.90,-2.68,1.24,-2.66,1.26,-1.28,-1.06,-0.91,-3.96,-3.94,-3.92
344.30,-2.77,1.15,-2.74,1.18,-1.19,-1.01,-0.81,-3.96,-3.93,-3.91
347.75,-2.79,1.13,-2.81,1.10,-1.10,-0.95,-0.70,-3.89,-3.91,-3.92
351.23,-2.87,1.04,-2.92,0.99,-1.01,-0.90,-0.60,-3.88,-3.93,-3.91
354.74,-3.04,0.87,-3.01,0.89,-0.93,-0.85,-0.50,-3.97,-3.94,-3.91
358.28,-3.15,0.75,-3.08,0.83,-0.85,-0.79,-0.40,-4.00,-3.92,-3.90
361.87,-3.10,0.81,-3.13,0.77,-0.78,-0.74,-0.29,-3.87,-3.90,-3.90
365.49,-3.10,0.80,-3.17,0.73,-0.71,-0.69,-0.19,-3.81,-3.88,-3.90
369.14,-3.28,0.63,-3.23,0.68,-0.65,-0.64,-0.09,-3.93,-3.88,-3.91
372.83,-3.34,0.57,-3.32,0.59,-0.60,-0.58,0.01,-3.94,-3.92,-3.91
376.56,-3.37,0.54,-3.39,0.52,-0.55,-0.53,0.11,-3.92,-3.94,-3.91
380.33,-3.43,0.48,-3.42,0.48,-0.50,-0.48,0.21,-3.93,-3.92,-3.90
384.13,-3.47,0.44,-3.47,0.44,-0.44,-0.43,0.31,-3.91,-3.91,-3.91
387.97,-3.52,0.40,-3.51,0.40,-0.38,-0.38,0.41,-3.90,-3.89,-3.92
391.85,-3.57,0.36,-3.57,0.35,-0.31,-0.33,0.50,-3.88,-3.89,-3.93
395.77,-3.63,0.29,-3.67,0.26,-0.24,-0.27,0.60,-3.87,-3.91,-3.92
399.73,-3.79,0.14,-3.75,0.18,-0.17,-0.22,0.70,-3.96,-3.93,-3.93
403.72,-3.87,0.06,-3.83,0.10,-0.11,-0.17,0.79,-3.97,-3.94,-3.93
407.76,-3.87,0.08,-3.93,0.01,-0.03,-0.12,0.88,-3.90,-3.96,-3.94
411.84,-3.99,-0.04,-4.01,-0.07,0.04,-0.07,0.98,-3.95,-3.97,-3.95
415.96,-4.14,-0.19,-4.07,-0.12,0.11,-0.02,1.07,-4.03,-3.96,-3.95
420.12,-4.14,-0.19,-4.11,-0.16,0.16,0.04,1.16,-3.98,-3.95,-3.95
424.32,-4.06,-0.11,-4.14,-0.19,0.20,0.09,1.24,-3.85,-3.94,-3.95
428.56,-4.18,-0.24,-4.19,-0.25,0.25,0.14,1.33,-3.93,-3.95,-3.94
432.85,-4.29,-0.36,-4.26,-0.32,0.30,0.19,1.41,-3.99,-3.96,-3.93
437.18,-4.34,-0.42,-4.26,-0.35,0.34,0.24,1.49,-4.00,-3.92,-3.92
441.55,-4.20,-0.32,-4.23,-0.34,0.39,0.30,1.56,-3.81,-3.84,-3.88
445.96,-4.12,-0.26,-4.22,-0.37,0.43,0.35,1.63,-3.69,-3.79,-3.85
