frequency,raw,error,smoothed,error_smoothed,equalization,parametric_eq,fixed_band_eq,equalized_raw,equalized_smoothed,target
20.00,-0.05,-1.67,-0.06,-1.68,1.71,-1.32,-0.76,1.65,1.65,1.62
20.20,-0.00,-1.65,0.00,-1.65,1.65,-1.32,-0.78,1.65,1.65,1.65
20.40,0.06,-1.62,0.07,-1.60,1.59,-1.33,-0.80,1.65,1.66,1.68
20.61,0.16,-1.54,0.16,-1.55,1.52,-1.33,-0.83,1.68,1.68,1.70
20.81,0.27,-1.46,0.26,-1.47,1.45,-1.34,-0.85,1.72,1.71,1.73
21.02,0.37,-1.39,0.37,-1.38,1.38,-1.34,-0.88,1.75,1.75,1.76
21.23,0.47,-1.30,0.46,-1.30,1.30,-1.34,-0.90,1.77,1.77,1.77
21.44,0.56,-1.22,0.56,-1.22,1.22,-1.35,-0.93,1.78,1.78,1.78
21.66,0.66,-1.13,0.66,-1.13,1.13,-1.35,-0.96,1.79,1.79,1.79
21.87,0.76,-1.03,0.75,-1.04,1.04,-1.36,-0.98,1.80,1.79,1.79
22.09,0.84,-0.96,0.85,-0.94,0.94,-1.36,-1.01,1.78,1.79,1.80
22.31,0.95,-0.85,0.94,-0.85,0.85,-1.37,-1.04,1.80,1.79,1.80
22.54,1.05,-0.75,1.04,-0.76,0.76,-1.37,-1.07,1.80,1.79,1.80
22.76,1.13,-0.67,1.14,-0.66,0.66,-1.38,-1.10,1.79,1.80,1.80
22.99,1.23,-0.56,1.22,-0.56,0.57,-1.38,-1.13,1.79,1.79,1.78
23.22,1.32,-0.47,1.31,-0.47,0.47,-1.39,-1.17,1.79,1.79,1.78
23.45,1.40,-0.39,1.41,-0.38,0.38,-1.40,-1.20,1.78,1.79,1.78
23.69,1.50,-0.29,1.49,-0.29,0.29,-1.40,-1.23,1.79,1.78,1.78
23.92,1.59,-0.20,1.58,-0.21,0.20,-1.41,-1.27,1.79,1.78,1.78
24.16,1.66,-0.14,1.67,-0.12,0.11,-1.41,-1.30,1.77,1.79,1.79
24.40,1.77,-0.02,1.76,-0.03,0.03,-1.42,-1.34,1.80,1.79,1.79
24.65,1.85,0.06,1.85,0.06,-0.06,-1.43,-1.37,1.79,1.79,1.78
24.89,1.93,0.15,1.93,0.15,-0.14,-1.44,-1.41,1.78,1.79,1.78
25.14,2.02,0.24,2.01,0.23,-0.23,-1.44,-1.45,1.79,1.78,1.78
25.39,2.09,0.31,2.09,0.31,-0.32,-1.45,-1.48,1.77,1.77,1.78
25.65,2.18,0.40,2.18,0.40,-0.40,-1.46,-1.52,1.77,1.77,1.78
25.91,2.25,0.48,2.26,0.48,-0.49,-1.47,-1.56,1.76,1.77,1.77
26.16,2.36,0.59,2.34,0.57,-0.57,-1.48,-1.59,1.79,1.77,1.77
26.43,2.42,0.65,2.42,0.66,-0.65,-1.48,-1.63,1.77,1.78,1.77
26.69,2.50,0.73,2.50,0.73,-0.73,-1.49,-1.67,1.77,1.77,1.77
26.96,2.58,0.81,2.57,0.80,-0.80,-1.50,-1.70,1.77,1.77,1.77
27.23,2.64,0.87,2.64,0.88,-0.88,-1.51,-1.74,1.76,1.76,1.77
27.50,2.72,0.95,2.71,0.95,-0.95,-1.52,-1.77,1.76,1.76,1.77
27.77,2.78,1.02,2.78,1.02,-1.03,-1.54,-1.80,1.75,1.75,1.75
28.05,2.85,1.09,2.85,1.10,-1.10,-1.55,-1.83,1.75,1.75,1.75
28.33,2.92,1.17,2.92,1.17,-1.17,-1.56,-1.86,1.75,1.75,1.74
28.62,2.99,1.24,2.99,1.25,-1.24,-1.57,-1.89,1.74,1.75,1.74
28.90,3.07,1.33,3.06,1.32,-1.31,-1.59,-1.92,1.76,1.75,1.74
29.19,3.12,1.39,3.12,1.39,-1.38,-1.60,-1.95,1.74,1.74,1.73
29.48,3.19,1.45,3.18,1.45,-1.45,-1.61,-1.97,1.74,1.73,1.74
29.78,3.24,1.51,3.24,1.51,-1.51,-1.63,-1.99,1.72,1.73,1.73
30.08,3.30,1.57,3.30,1.57,-1.58,-1.64,-2.01,1.72,1.72,1.73
30.38,3.37,1.65,3.36,1.64,-1.65,-1.66,-2.02,1.72,1.71,1.72
30.68,3.42,1.70,3.42,1.71,-1.71,-1.68,-2.04,1.71,1.71,1.72
30.99,3.49,1.78,3.48,1.78,-1.78,-1.69,-2.05,1.71,1.71,1.70
31.30,3.55,1.84,3.54,1.84,-1.84,-1.71,-2.06,1.71,1.70,1.70
31.61,3.60,1.89,3.60,1.91,-1.90,-1.73,-2.06,1.70,1.70,1.70
31.93,3.66,1.97,3.66,1.97,-1.96,-1.75,-2.06,1.70,1.70,1.69
32.24,3.72,2.04,3.71,2.02,-2.02,-1.77,-2.07,1.70,1.69,1.68
32.57,3.75,2.07,3.76,2.08,-2.07,-1.80,-2.06,1.67,1.68,1.68
32.89,3.80,2.12,3.80,2.13,-2.13,-1.82,-2.06,1.67,1.67,1.68
33.22,3.85,2.18,3.84,2.17,-2.18,-1.84,-2.05,1.67,1.66,1.66
33.55,3.89,2.22,3.89,2.23,-2.23,-1.87,-2.05,1.65,1.66,1.66
33.89,3.94,2.29,3.94,2.28,-2.28,-1.90,-2.04,1.65,1.65,1.65
34.23,3.99,2.34,3.98,2.33,-2.33,-1.92,-2.02,1.65,1.65,1.65
34.57,4.02,2.38,4.02,2.38,-2.38,-1.96,-2.01,1.63,1.64,1.64
34.92,4.07,2.44,4.06,2.43,-2.43,-1.99,-2.00,1.63,1.63,1.63
35.27,4.10,2.47,4.10,2.48,-2.48,-2.02,-1.98,1.62,1.62,1.62
35.62,4.15,2.53,4.14,2.53,-2.53,-2.05,-1.96,1.62,1.62,1.61
35.97,4.18,2.58,4.18,2.57,-2.57,-2.09,-1.94,1.61,1.60,1.60
36.33,4.21,2.61,4.21,2.61,-2.61,-2.13,-1.93,1.59,1.59,1.60
36.70,4.24,2.65,4.24,2.65,-2.65,-2.17,-1.91,1.58,1.58,1.59
37.06,4.27,2.69,4.27,2.69,-2.69,-2.21,-1.89,1.57,1.58,1.57
37.43,4.31,2.74,4.30,2.73,-2.73,-2.26,-1.87,1.57,1.57,1.57
37.81,4.33,2.77,4.33,2.77,-2.77,-2.30,-1.85,1.56,1.56,1.56
38.19,4.35,2.80,4.35,2.80,-2.81,-2.35,-1.83,1.54,1.55,1.55
38.57,4.39,2.84,4.38,2.84,-2.84,-2.40,-1.81,1.55,1.54,1.54
38.95,4.39,2.86,4.40,2.87,-2.87,-2.45,-1.79,1.52,1.53,1.53
39.34,4.44,2.92,4.42,2.90,-2.90,-2.51,-1.77,1.54,1.52,1.52
39.74,4.44,2.93,4.44,2.93,-2.93,-2.56,-1.76,1.51,1.51,1.50
40.14,4.45,2.95,4.46,2.96,-2.96,-2.62,-1.74,1.49,1.50,1.50
40.54,4.48,2.99,4.46,2.97,-2.98,-2.68,-1.72,1.50,1.48,1.49
40.94,4.48,2.99,4.48,3.00,-3.00,-2.74,-1.71,1.48,1.48,1.48
41.35,4.48,3.01,4.49,3.02,-3.02,-2.80,-1.69,1.46,1.48,1.47
41.76,4.52,3.05,4.50,3.04,-3.03,-2.86,-1.68,1.48,1.47,1.47
42.18,4.52,3.05,4.52,3.06,-3.05,-2.93,-1.67,1.47,1.46,1.46
42.60,4.52,3.07,4.52,3.07,-3.07,-2.99,-1.66,1.45,1.45,1.45
43.03,4.52,3.07,4.52,3.08,-3.08,-3.05,-1.65,1.43,1.43,1.44
43.46,4.52,3.09,4.52,3.09,-3.10,-3.11,-1.64,1.42,1.42,1.43
43.90,4.52,3.11,4.52,3.11,-3.11,-3.16,-1.63,1.40,1.40,1.41
44.33,4.52,3.13,4.52,3.13,-3.12,-3.21,-1.63,1.39,1.39,1.39
44.78,4.52,3.14,4.52,3.14,-3.14,-3.26,-1.62,1.38,1.38,1.38
45.23,4.52,3.16,4.51,3.15,-3.14,-3.30,-1.62,1.37,1.37,1.36
45.68,4.51,3.16,4.50,3.15,-3.15,-3.33,-1.61,1.36,1.35,1.35
46.13,4.48,3.15,4.49,3.16,-3.16,-3.36,-1.61,1.32,1.34,1.33
46.60,4.48,3.15,4.48,3.16,-3.16,-3.38,-1.61,1.32,1.32,1.32
47.06,4.48,3.17,4.46,3.15,-3.16,-3.39,-1.61,1.32,1.31,1.31
47.53,4.44,3.14,4.45,3.15,-3.16,-3.40,-1.62,1.28,1.29,1.29
48.01,4.44,3.15,4.43,3.15,-3.16,-3.39,-1.62,1.28,1.28,1.29
48.49,4.41,3.15,4.41,3.15,-3.15,-3.38,-1.62,1.25,1.25,1.26
48.97,4.39,3.15,4.39,3.15,-3.15,-3.36,-1.63,1.23,1.23,1.23
49.46,4.36,3.15,4.36,3.15,-3.15,-3.33,-1.64,1.21,1.21,1.21
49.96,4.33,3.15,4.33,3.15,-3.14,-3.29,-1.64,1.18,1.19,1.18
50.46,4.31,3.14,4.30,3.13,-3.13,-3.25,-1.65,1.17,1.17,1.17
50.96,4.27,3.11,4.27,3.12,-3.12,-3.20,-1.66,1.14,1.15,1.15
51.47,4.24,3.11,4.24,3.11,-3.11,-3.15,-1.67,1.13,1.13,1.12
51.99,4.20,3.09,4.20,3.09,-3.08,-3.09,-1.68,1.11,1.11,1.11
52.51,4.16,3.06,4.16,3.06,-3.06,-3.03,-1.70,1.10,1.10,1.10
53.03,4.11,3.03,4.11,3.03,-3.03,-2.97,-1.71,1.08,1.08,1.08
53.56,4.06,3.00,4.05,2.99,-3.00,-2.91,-1.72,1.06,1.05,1.06
54.10,3.99,2.95,4.00,2.96,-2.96,-2.84,-1.74,1.03,1.03,1.04
54.64,3.94,2.92,3.94,2.92,-2.92,-2.77,-1.75,1.02,1.01,1.02
55.18,3.88,2.88,3.87,2.87,-2.88,-2.71,-1.77,1.00,1.00,1.00
55.74,3.81,2.83,3.81,2.83,-2.83,-2.64,-1.79,0.98,0.98,0.98
56.29,3.74,2.77,3.74,2.78,-2.77,-2.57,-1.80,0.97,0.97,0.97
56.86,3.67,2.72,3.66,2.72,-2.71,-2.50,-1.82,0.96,0.95,0.94
57.42,3.57,2.64,3.57,2.65,-2.64,-2.43,-1.84,0.92,0.93,0.92
58.00,3.49,2.58,3.48,2.57,-2.57,-2.36,-1.85,0.92,0.91,0.91
58.58,3.38,2.48,3.38,2.48,-2.49,-2.29,-1.87,0.89,0.89,0.90
59.16,3.28,2.39,3.28,2.40,-2.40,-2.22,-1.89,0.87,0.88,0.88
59.76,3.18,2.31,3.18,2.31,-2.31,-2.15,-1.91,0.87,0.87,0.87
60.35,3.07,2.22,3.06,2.21,-2.21,-2.07,-1.93,0.85,0.85,0.85
60.96,2.95,2.12,2.94,2.11,-2.11,-1.99,-1.94,0.84,0.83,0.83
61.57,2.80,2.00,2.81,2.01,-2.00,-1.91,-1.96,0.79,0.80,0.80
62.18,2.67,1.89,2.67,1.89,-1.89,-1.82,-1.98,0.77,0.78,0.77
62.80,2.54,1.78,2.53,1.78,-1.77,-1.73,-2.00,0.76,0.75,0.76
63.43,2.39,1.66,2.39,1.66,-1.65,-1.63,-2.01,0.74,0.74,0.73
64.07,2.24,1.53,2.24,1.53,-1.52,-1.53,-2.03,0.72,0.72,0.71
64.71,2.09,1.39,2.09,1.39,-1.39,-1.42,-2.05,0.70,0.70,0.70
65.35,1.94,1.26,1.93,1.26,-1.25,-1.30,-2.07,0.69,0.68,0.68
66.01,1.78,1.12,1.78,1.12,-1.12,-1.18,-2.09,0.66,0.66,0.66
66.67,1.62,0.98,1.62,0.98,-0.98,-1.05,-2.11,0.63,0.64,0.64
67.33,1.48,0.86,1.47,0.85,-0.86,-0.92,-2.13,0.62,0.61,0.62
68.01,1.34,0.74,1.34,0.74,-0.74,-0.78,-2.14,0.60,0.60,0.60
68.69,1.21,0.63,1.21,0.63,-0.63,-0.66,-2.16,0.58,0.58,0.58
69.37,1.11,0.55,1.10,0.54,-0.54,-0.54,-2.19,0.57,0.56,0.56
70.07,1.01,0.47,1.00,0.47,-0.46,-0.45,-2.21,0.54,0.54,0.54
70.77,0.93,0.40,0.92,0.40,-0.41,-0.37,-2.23,0.52,0.52,0.52
71.48,0.86,0.36,0.87,0.37,-0.38,-0.33,-2.25,0.48,0.49,0.50
72.19,0.84,0.36,0.84,0.36,-0.37,-0.32,-2.28,0.47,0.46,0.48
72.91,0.84,0.38,0.83,0.38,-0.39,-0.36,-2.30,0.45,0.44,0.45
73.64,0.85,0.42,0.85,0.42,-0.43,-0.42,-2.33,0.41,0.42,0.43
74.38,0.90,0.48,0.90,0.50,-0.50,-0.52,-2.36,0.39,0.40,0.41
75.12,0.98,0.59,0.98,0.59,-0.60,-0.63,-2.39,0.38,0.38,0.39
75.87,1.10,0.73,1.08,0.71,-0.71,-0.76,-2.42,0.38,0.37,0.37
76.63,1.19,0.83,1.20,0.85,-0.85,-0.90,-2.45,0.34,0.35,0.35
77.40,1.34,1.00,1.33,1.00,-0.99,-1.04,-2.48,0.34,0.34,0.33
78.17,1.46,1.15,1.46,1.15,-1.15,-1.18,-2.52,0.31,0.31,0.31
78.95,1.61,1.31,1.61,1.31,-1.31,-1.32,-2.56,0.30,0.29,0.30
79.74,1.75,1.47,1.75,1.47,-1.48,-1.45,-2.60,0.27,0.28,0.28
80.54,1.90,1.64,1.90,1.64,-1.64,-1.57,-2.64,0.26,0.26,0.26
81.35,2.05,1.81,2.04,1.80,-1.80,-1.68,-2.68,0.25,0.24,0.24
82.16,2.17,1.95,2.17,1.96,-1.95,-1.78,-2.73,0.22,0.23,0.22
82.98,2.30,2.09,2.29,2.09,-2.09,-1.89,-2.78,0.21,0.20,0.20
83.81,2.40,2.23,2.39,2.22,-2.22,-1.98,-2.83,0.18,0.17,0.17
84.65,2.48,2.33,2.49,2.34,-2.34,-2.07,-2.88,0.14,0.15,0.15
85.50,2.58,2.44,2.57,2.44,-2.43,-2.15,-2.93,0.14,0.14,0.14
86.35,2.64,2.53,2.63,2.52,-2.51,-2.23,-2.99,0.12,0.12,0.11
87.22,2.68,2.59,2.68,2.59,-2.58,-2.30,-3.05,0.10,0.10,0.09
88.09,2.70,2.63,2.70,2.63,-2.62,-2.38,-3.11,0.08,0.08,0.06
88.97,2.70,2.65,2.70,2.65,-2.64,-2.45,-3.18,0.05,0.05,0.05
89.86,2.68,2.66,2.68,2.66,-2.65,-2.52,-3.24,0.03,0.03,0.02
90.76,2.65,2.66,2.64,2.65,-2.65,-2.58,-3.31,0.00,-0.00,-0.01
91.66,2.60,2.63,2.60,2.64,-2.63,-2.65,-3.39,-0.04,-0.03,-0.03
92.58,2.55,2.62,2.55,2.61,-2.61,-2.71,-3.46,-0.07,-0.06,-0.07
93.51,2.51,2.59,2.50,2.59,-2.59,-2.78,-3.54,-0.09,-0.09,-0.09
94.44,2.46,2.57,2.46,2.57,-2.58,-2.84,-3.61,-0.12,-0.12,-0.11
95.39,2.43,2.57,2.43,2.57,-2.57,-2.90,-3.69,-0.15,-0.15,-0.14
96.34,2.40,2.58,2.40,2.58,-2.58,-2.97,-3.78,-0.18,-0.18,-0.18
97.30,2.40,2.60,2.39,2.60,-2.61,-3.03,-3.86,-0.21,-0.22,-0.21
98.28,2.40,2.63,2.40,2.64,-2.65,-3.10,-3.95,-0.26,-0.25,-0.24
99.26,2.44,2.70,2.44,2.70,-2.72,-3.16,-4.03,-0.28,-0.28,-0.27
100.25,2.50,2.79,2.50,2.79,-2.81,-3.23,-4.12,-0.31,-0.31,-0.29
101.25,2.59,2.91,2.59,2.91,-2.92,-3.30,-4.21,-0.33,-0.33,-0.32
102.27,2.69,3.04,2.69,3.04,-3.05,-3.37,-4.30,-0.36,-0.36,-0.35
103.29,2.81,3.20,2.80,3.19,-3.19,-3.44,-4.39,-0.38,-0.39,-0.39
104.32,2.93,3.34,2.93,3.35,-3.35,-3.51,-4.48,-0.42,-0.41,-0.41
105.37,3.08,3.52,3.07,3.52,-3.51,-3.58,-4.57,-0.43,-0.43,-0.44
106.42,3.22,3.69,3.21,3.68,-3.68,-3.65,-4.66,-0.46,-0.47,-0.47
107.48,3.35,3.85,3.34,3.85,-3.84,-3.72,-4.75,-0.49,-0.50,-0.50
108.56,3.46,4.00,3.47,4.01,-4.00,-3.80,-4.83,-0.54,-0.53,-0.54
109.64,3.60,4.17,3.59,4.16,-4.15,-3.87,-4.92,-0.56,-0.56,-0.57
110.74,3.72,4.31,3.71,4.31,-4.30,-3.95,-4.99,-0.58,-0.59,-0.60
111.85,3.81,4.43,3.81,4.44,-4.44,-4.03,-5.07,-0.63,-0.62,-0.63
112.97,3.91,4.58,3.90,4.57,-4.56,-4.10,-5.14,-0.66,-0.67,-0.67
114.10,3.97,4.67,3.98,4.68,-4.68,-4.18,-5.21,-0.71,-0.71,-0.70
115.24,4.05,4.79,4.05,4.79,-4.79,-4.26,-5.27,-0.74,-0.74,-0.74
116.39,4.11,4.89,4.10,4.88,-4.88,-4.34,-5.33,-0.78,-0.78,-0.78
117.55,4.16,4.97,4.16,4.98,-4.97,-4.42,-5.37,-0.81,-0.81,-0.82
118.73,4.20,5.05,4.20,5.05,-5.05,-4.50,-5.42,-0.85,-0.85,-0.85
119.92,4.24,5.12,4.23,5.12,-5.12,-4.58,-5.45,-0.88,-0.89,-0.88
121.12,4.26,5.18,4.26,5.18,-5.19,-4.66,-5.48,-0.93,-0.92,-0.92
122.33,4.30,5.25,4.29,5.24,-5.24,-4.74,-5.49,-0.95,-0.96,-0.95
123.55,4.31,5.29,4.31,5.29,-5.30,-4.82,-5.50,-0.99,-0.99,-0.98
124.79,4.32,5.33,4.33,5.34,-5.35,-4.89,-5.50,-1.03,-1.02,-1.02
126.03,4.35,5.40,4.34,5.39,-5.39,-4.97,-5.49,-1.04,-1.05,-1.05
127.29,4.35,5.43,4.35,5.44,-5.43,-5.04,-5.47,-1.08,-1.08,-1.09
128.57,4.35,5.48,4.34,5.47,-5.46,-5.11,-5.45,-1.11,-1.12,-1.13
129.85,4.32,5.48,4.33,5.49,-5.49,-5.17,-5.41,-1.17,-1.16,-1.16
131.15,4.31,5.50,4.31,5.51,-5.51,-5.23,-5.37,-1.20,-1.20,-1.20
132.46,4.31,5.54,4.30,5.52,-5.53,-5.29,-5.31,-1.22,-1.23,-1.23
133.79,4.28,5.53,4.28,5.54,-5.54,-5.35,-5.26,-1.26,-1.26,-1.25
135.12,4.26,5.55,4.26,5.54,-5.55,-5.39,-5.19,-1.29,-1.29,-1.29
136.48,4.24,5.55,4.23,5.55,-5.55,-5.44,-5.12,-1.32,-1.32,-1.31
137.84,4.21,5.55,4.21,5.56,-5.56,-5.47,-5.04,-1.35,-1.35,-1.34
139.22,4.18,5.56,4.18,5.55,-5.55,-5.51,-4.95,-1.37,-1.37,-1.38
140.61,4.15,5.56,4.14,5.55,-5.54,-5.53,-4.86,-1.40,-1.40,-1.41
142.02,4.10,5.52,4.11,5.53,-5.53,-5.55,-4.77,-1.43,-1.42,-1.42
143.44,4.07,5.52,4.06,5.51,-5.51,-5.56,-4.67,-1.44,-1.45,-1.45
144.87,4.01,5.48,4.01,5.48,-5.48,-5.57,-4.58,-1.48,-1.48,-1.48
146.32,3.95,5.45,3.95,5.45,-5.46,-5.56,-4.47,-1.51,-1.51,-1.50
147.78,3.89,5.41,3.89,5.41,-5.42,-5.56,-4.37,-1.53,-1.53,-1.52
149.26,3.83,5.37,3.83,5.38,-5.38,-5.53,-4.27,-1.55,-1.55,-1.54
150.75,3.77,5.35,3.76,5.34,-5.34,-5.51,-4.16,-1.57,-1.57,-1.58
152.26,3.69,5.29,3.69,5.29,-5.28,-5.47,-4.06,-1.60,-1.60,-1.60
153.78,3.60,5.22,3.60,5.23,-5.22,-5.44,-3.95,-1.63,-1.62,-1.63
155.32,3.50,5.16,3.50,5.16,-5.15,-5.39,-3.85,-1.65,-1.65,-1.66
156.88,3.40,5.08,3.39,5.08,-5.07,-5.34,-3.74,-1.67,-1.68,-1.68
158.44,3.27,4.98,3.27,4.98,-4.97,-5.27,-3.64,-1.70,-1.70,-1.72
160.03,3.14,4.88,3.14,4.89,-4.87,-5.21,-3.53,-1.73,-1.73,-1.75
161.63,3.00,4.77,2.99,4.77,-4.76,-5.13,-3.43,-1.76,-1.76,-1.78
163.24,2.86,4.66,2.85,4.66,-4.65,-5.06,-3.33,-1.79,-1.80,-1.81
164.88,2.70,4.53,2.71,4.54,-4.55,-4.97,-3.23,-1.85,-1.84,-1.83
166.53,2.59,4.44,2.58,4.43,-4.46,-4.89,-3.13,-1.87,-1.88,-1.86
168.19,2.46,4.34,2.47,4.35,-4.38,-4.80,-3.04,-1.93,-1.92,-1.89
169.87,2.39,4.30,2.39,4.30,-4.33,-4.70,-2.94,-1.95,-1.95,-1.91
171.57,2.33,4.27,2.32,4.26,-4.30,-4.60,-2.85,-1.97,-1.97,-1.94
173.29,2.29,4.26,2.29,4.26,-4.28,-4.51,-2.76,-1.99,-1.99,-1.97
175.02,2.27,4.26,2.27,4.27,-4.27,-4.40,-2.67,-2.01,-2.00,-2.00
176.77,2.27,4.30,2.26,4.29,-4.27,-4.30,-2.59,-2.00,-2.02,-2.03
178.54,2.23,4.29,2.23,4.30,-4.27,-4.19,-2.50,-2.04,-2.03,-2.07
180.32,2.20,4.29,2.19,4.28,-4.25,-4.08,-2.42,-2.06,-2.06,-2.09
182.13,2.13,4.24,2.12,4.24,-4.23,-3.97,-2.34,-2.10,-2.10,-2.12
183.95,2.04,4.19,2.05,4.19,-4.19,-3.86,-2.26,-2.15,-2.14,-2.15
185.79,1.95,4.12,1.95,4.12,-4.13,-3.75,-2.18,-2.18,-2.18,-2.17
187.65,1.85,4.06,1.84,4.05,-4.05,-3.64,-2.11,-2.20,-2.21,-2.21
189.52,1.72,3.95,1.72,3.95,-3.96,-3.52,-2.04,-2.24,-2.23,-2.23
191.42,1.60,3.85,1.60,3.85,-3.85,-3.41,-1.96,-2.25,-2.25,-2.25
193.33,1.46,3.73,1.45,3.73,-3.73,-3.30,-1.90,-2.27,-2.28,-2.28
195.27,1.31,3.60,1.31,3.61,-3.59,-3.18,-1.83,-2.29,-2.29,-2.30
197.22,1.14,3.46,1.14,3.47,-3.44,-3.07,-1.76,-2.31,-2.30,-2.32
199.19,0.98,3.33,0.96,3.31,-3.29,-2.96,-1.70,-2.31,-2.32,-2.35
201.18,0.78,3.14,0.78,3.14,-3.12,-2.84,-1.64,-2.35,-2.35,-2.36
203.19,0.58,2.95,0.59,2.96,-2.96,-2.73,-1.57,-2.39,-2.37,-2.37
205.23,0.41,2.80,0.40,2.78,-2.81,-2.61,-1.52,-2.40,-2.41,-2.39
207.28,0.23,2.62,0.23,2.63,-2.67,-2.50,-1.46,-2.44,-2.44,-2.39
209.35,0.08,2.49,0.08,2.49,-2.54,-2.38,-1.40,-2.46,-2.45,-2.41
211.44,-0.04,2.38,-0.04,2.38,-2.43,-2.26,-1.35,-2.47,-2.46,-2.43
213.56,-0.12,2.30,-0.13,2.30,-2.32,-2.15,-1.30,-2.45,-2.45,-2.43
215.69,-0.21,2.21,-0.21,2.22,-2.22,-2.03,-1.24,-2.44,-2.43,-2.42
217.85,-0.29,2.14,-0.30,2.14,-2.12,-1.91,-1.19,-2.41,-2.41,-2.43
220.03,-0.40,2.04,-0.40,2.04,-1.99,-1.79,-1.15,-2.39,-2.39,-2.44
222.23,-0.53,1.91,-0.54,1.90,-1.84,-1.66,-1.10,-2.37,-2.38,-2.45
224.45,-0.71,1.72,-0.72,1.72,-1.66,-1.54,-1.05,-2.38,-2.38,-2.43
226.70,-0.93,1.50,-0.93,1.50,-1.46,-1.41,-1.01,-2.39,-2.39,-2.43
228.96,-1.16,1.26,-1.17,1.25,-1.24,-1.28,-0.97,-2.40,-2.41,-2.43
231.25,-1.42,0.99,-1.43,0.99,-1.01,-1.15,-0.93,-2.43,-2.43,-2.41
233.57,-1.68,0.73,-1.67,0.74,-0.78,-1.02,-0.89,-2.47,-2.45,-2.41
235.90,-1.89,0.51,-1.89,0.52,-0.57,-0.88,-0.85,-2.46,-2.46,-2.41
238.26,-2.07,0.33,-2.07,0.33,-0.38,-0.74,-0.81,-2.45,-2.45,-2.40
240.64,-2.21,0.18,-2.21,0.18,-0.22,-0.60,-0.78,-2.43,-2.43,-2.39
243.05,-2.33,0.04,-2.32,0.05,-0.07,-0.45,-0.74,-2.41,-2.40,-2.37
245.48,-2.39,-0.03,-2.41,-0.05,0.05,-0.30,-0.71,-2.34,-2.35,-2.36
247.93,-2.49,-0.15,-2.48,-0.14,0.16,-0.16,-0.68,-2.33,-2.32,-2.34
250.41,-2.55,-0.21,-2.57,-0.24,0.27,-0.01,-0.65,-2.28,-2.30,-2.34
252.92,-2.67,-0.36,-2.67,-0.36,0.38,0.14,-0.62,-2.29,-2.29,-2.31
255.45,-2.78,-0.50,-2.77,-0.48,0.51,0.28,-0.60,-2.28,-2.27,-2.29
258.00,-2.88,-0.61,-2.89,-0.62,0.64,0.43,-0.57,-2.24,-2.25,-2.27
260.58,-3.01,-0.76,-3.01,-0.76,0.79,0.56,-0.54,-2.22,-2.22,-2.26
263.19,-3.14,-0.91,-3.14,-0.90,0.94,0.69,-0.52,-2.21,-2.20,-2.23
265.82,-3.26,-1.05,-3.27,-1.06,1.07,0.80,-0.50,-2.19,-2.20,-2.21
268.48,-3.38,-1.20,-3.39,-1.21,1.18,0.91,-0.48,-2.20,-2.21,-2.19
271.16,-3.50,-1.34,-3.49,-1.32,1.27,0.99,-0.46,-2.23,-2.22,-2.16
273.87,-3.54,-1.40,-3.53,-1.39,1.32,1.06,-0.44,-2.22,-2.21,-2.14
276.61,-3.51,-1.40,-3.52,-1.40,1.34,1.11,-0.42,-2.18,-2.18,-2.12
279.38,-3.46,-1.36,-3.45,-1.35,1.32,1.15,-0.40,-2.14,-2.13,-2.10
282.17,-3.35,-1.27,-3.36,-1.28,1.28,1.16,-0.38,-2.07,-2.07,-2.08
284.99,-3.24,-1.19,-3.25,-1.19,1.22,1.16,-0.37,-2.02,-2.03,-2.06
287.84,-3.14,-1.10,-3.15,-1.11,1.15,1.14,-0.35,-1.99,-1.99,-2.04
290.72,-3.06,-1.05,-3.06,-1.04,1.08,1.11,-0.34,-1.98,-1.98,-2.01
293.63,-2.97,-0.98,-2.98,-0.99,1.01,1.06,-0.32,-1.96,-1.97,-1.99
296.57,-2.91,-0.95,-2.92,-0.94,0.95,1.01,-0.31,-1.96,-1.96,-1.97
299.53,-2.86,-0.91,-2.86,-0.91,0.91,0.95,-0.30,-1.96,-1.95,-1.95
302.53,-2.80,-0.87,-2.80,-0.88,0.86,0.88,-0.28,-1.94,-1.94,-1.93
305.55,-2.74,-0.85,-2.74,-0.84,0.82,0.81,-0.27,-1.92,-1.92,-1.89
308.61,-2.66,-0.79,-2.67,-0.80,0.78,0.75,-0.26,-1.88,-1.89,-1.88
311.69,-2.60,-0.75,-2.60,-0.75,0.75,0.68,-0.25,-1.86,-1.85,-1.85
314.81,-2.52,-0.71,-2.53,-0.71,0.72,0.61,-0.23,-1.81,-1.81,-1.81
317.96,-2.46,-0.67,-2.46,-0.67,0.69,0.54,-0.22,-1.77,-1.77,-1.79
321.14,-2.41,-0.64,-2.42,-0.64,0.67,0.48,-0.21,-1.74,-1.75,-1.77
324.35,-2.37,-0.62,-2.38,-0.63,0.66,0.42,-0.20,-1.72,-1.73,-1.76
327.59,-2.37,-0.65,-2.36,-0.63,0.64,0.37,-0.19,-1.73,-1.72,-1.73
330.87,-2.33,-0.62,-2.34,-0.63,0.63,0.31,-0.18,-1.71,-1.72,-1.71
334.18,-2.32,-0.63,-2.32,-0.63,0.60,0.27,-0.17,-1.72,-1.72,-1.69
337.52,-2.27,-0.60,-2.27,-0.60,0.57,0.22,-0.16,-1.70,-1.70,-1.67
340.90,-2.21,-0.57,-2.21,-0.56,0.53,0.18,-0.15,-1.69,-1.68,-1.64
344.30,-2.11,-0.49,-2.12,-0.49,0.47,0.14,-0.13,-1.64,-1.65,-1.62
347.75,-2.01,-0.41,-2.01,-0.41,0.40,0.11,-0.12,-1.61,-1.61,-1.61
351.23,-1.90,-0.32,-1.91,-0.32,0.33,0.08,-0.11,-1.58,-1.58,-1.59
354.74,-1.80,-0.23,-1.81,-0.24,0.25,0.05,-0.10,-1.55,-1.55,-1.57
358.28,-1.72,-0.17,-1.71,-0.16,0.19,0.02,-0.09,-1.54,-1.53,-1.55
361.87,-1.62,-0.09,-1.64,-0.10,0.13,-0.00,-0.08,-1.49,-1.51,-1.53
365.49,-1.57,-0.06,-1.58,-0.06,0.09,-0.02,-0.07,-1.49,-1.49,-1.51
369.14,-1.54,-0.04,-1.54,-0.04,0.05,-0.04,-0.06,-1.49,-1.49,-1.50
372.83,-1.51,-0.03,-1.52,-0.03,0.03,-0.06,-0.05,-1.48,-1.49,-1.48
376.56,-1.50,-0.03,-1.49,-0.02,0.01,-0.08,-0.04,-1.49,-1.48,-1.47
380.33,-1.46,-0.02,-1.47,-0.02,0.00,-0.09,-0.03,-1.46,-1.47,-1.45
384.13,-1.44,-0.01,-1.44,-0.00,-0.01,-0.10,-0.02,-1.46,-1.46,-1.44
387.97,-1.41,0.01,-1.41,0.02,-0.03,-0.11,-0.01,-1.44,-1.44,-1.43
391.85,-1.36,0.06,-1.37,0.05,-0.05,-0.12,0.01,-1.41,-1.42,-1.42
395.77,-1.33,0.07,-1.33,0.07,-0.07,-0.13,0.02,-1.40,-1.40,-1.40
399.73,-1.28,0.11,-1.29,0.10,-0.10,-0.14,0.03,-1.38,-1.38,-1.39
403.72,-1.25,0.13,-1.26,0.12,-0.12,-0.15,0.04,-1.37,-1.37,-1.38
407.76,-1.22,0.15,-1.22,0.15,-0.14,-0.15,0.05,-1.36,-1.36,-1.37
411.84,-1.20,0.15,-1.20,0.16,-0.16,-0.16,0.06,-1.36,-1.36,-1.35
415.96,-1.16,0.18,-1.17,0.17,-0.17,-0.16,0.07,-1.34,-1.34,-1.34
420.12,-1.15,0.18,-1.14,0.19,-0.19,-0.16,0.08,-1.34,-1.33,-1.33
424.32,-1.11,0.21,-1.13,0.20,-0.20,-0.17,0.09,-1.31,-1.32,-1.32
428.56,-1.11,0.20,-1.11,0.21,-0.20,-0.17,0.10,-1.32,-1.31,-1.31
432.85,-1.10,0.20,-1.10,0.21,-0.21,-0.17,0.11,-1.31,-1.31,-1.30
437.18,-1.07,0.22,-1.08,0.21,-0.22,-0.17,0.11,-1.29,-1.30,-1.30
441.55,-1.07,0.20,-1.06,0.22,-0.22,-0.17,0.12,-1.30,-1.28,-1.28
445.96,-1.02,0.24,-1.04,0.23,-0.22,-0.18,0.13,-1.25,-1.26,-1.27
450.42,-1.02,0.23,-1.02,0.23,-0.22,-0.18,0.14,-1.25,-1.25,-1.26
454.93,-1.02,0.21,-1.01,0.24,-0.22,-0.18,0.14,-1.25,-1.23,-1.24
459.48,-0.98,0.24,-1.00,0.22,-0.23,-0.18,0.15,-1.21,-1.23,-1.23
464.07,-0.98,0.22,-0.98,0.22,-0.23,-0.18,0.15,-1.21,-1.21,-1.21
468.71,-0.98,0.21,-0.97,0.22,-0.23,-0.18,0.16,-1.21,-1.20,-1.19
473.40,-0.94,0.24,-0.95,0.22,-0.23,-0.17,0.16,-1.18,-1.19,-1.18
478.13,-0.94,0.22,-0.93,0.23,-0.24,-0.17,0.16,-1.18,-1.17,-1.16
482.91,-0.89,0.26,-0.90,0.24,-0.24,-0.17,0.16,-1.13,-1.14,-1.15
487.74,-0.88,0.25,-0.88,0.25,-0.24,-0.17,0.16,-1.13,-1.12,-1.13
