frequency,raw,error,smoothed,error_smoothed,equalization,parametric_eq,fixed_band_eq,equalized_raw,equalized_smoothed,target
20.00,15.16,8.76,15.16,8.76,-8.76,-7.52,-3.67,6.40,6.40,6.40
20.20,15.15,8.75,15.15,8.74,-8.75,-7.52,-3.77,6.41,6.40,6.40
20.40,15.13,8.73,15.13,8.73,-8.73,-7.52,-3.87,6.40,6.41,6.40
20.61,15.11,8.71,15.12,8.72,-8.71,-7.52,-3.98,6.40,6.40,6.40
20.81,15.10,8.71,15.10,8.70,-8.70,-7.52,-4.08,6.41,6.40,6.39
21.02,15.08,8.69,15.08,8.68,-8.68,-7.51,-4.20,6.40,6.40,6.39
21.23,15.05,8.66,15.06,8.66,-8.66,-7.51,-4.31,6.39,6.39,6.39
21.44,15.04,8.64,15.04,8.64,-8.65,-7.51,-4.43,6.39,6.39,6.40
21.66,15.02,8.63,15.02,8.63,-8.64,-7.51,-4.55,6.39,6.39,6.39
21.87,15.01,8.62,15.01,8.62,-8.62,-7.51,-4.68,6.39,6.39,6.39
22.09,14.99,8.61,14.99,8.61,-8.61,-7.51,-4.81,6.38,6.38,6.38
22.31,14.97,8.59,14.98,8.60,-8.59,-7.51,-4.94,6.38,6.38,6.38
22.54,14.96,8.59,14.96,8.59,-8.58,-7.51,-5.08,6.38,6.38,6.37
22.76,14.94,8.57,14.94,8.57,-8.57,-7.51,-5.22,6.37,6.37,6.37
22.99,14.92,8.55,14.92,8.56,-8.56,-7.51,-5.36,6.36,6.36,6.37
23.22,14.90,8.54,14.90,8.54,-8.55,-7.50,-5.51,6.36,6.36,6.36
23.45,14.88,8.52,14.88,8.53,-8.53,-7.50,-5.65,6.35,6.35,6.36
23.69,14.86,8.51,14.86,8.52,-8.51,-7.50,-5.81,6.35,6.35,6.35
23.92,14.84,8.51,14.84,8.50,-8.50,-7.50,-5.96,6.35,6.35,6.34
24.16,14.82,8.49,14.82,8.48,-8.48,-7.50,-6.12,6.34,6.34,6.34
24.40,14.79,8.46,14.79,8.46,-8.46,-7.50,-6.28,6.33,6.34,6.33
24.65,14.76,8.43,14.77,8.43,-8.43,-7.50,-6.45,6.33,6.33,6.33
24.89,14.74,8.41,14.74,8.40,-8.41,-7.49,-6.62,6.33,6.32,6.33
25.14,14.71,8.38,14.71,8.38,-8.39,-7.49,-6.79,6.32,6.32,6.33
25.39,14.68,8.36,14.69,8.36,-8.36,-7.49,-6.96,6.32,6.33,6.32
25.65,14.66,8.34,14.66,8.34,-8.33,-7.49,-7.14,6.33,6.33,6.32
25.91,14.63,8.31,14.63,8.31,-8.30,-7.49,-7.31,6.33,6.33,6.32
26.16,14.60,8.27,14.60,8.28,-8.27,-7.48,-7.49,6.33,6.33,6.33
26.43,14.57,8.24,14.57,8.24,-8.24,-7.48,-7.66,6.33,6.33,6.33
26.69,14.53,8.20,14.54,8.21,-8.21,-7.48,-7.84,6.32,6.33,6.33
26.96,14.50,8.18,14.50,8.18,-8.18,-7.48,-8.01,6.33,6.33,6.33
27.23,14.47,8.15,14.47,8.14,-8.14,-7.48,-8.18,6.33,6.33,6.33
27.50,14.43,8.11,14.44,8.11,-8.11,-7.47,-8.35,6.32,6.33,6.32
27.77,14.40,8.07,14.40,8.07,-8.08,-7.47,-8.51,6.32,6.32,6.33
28.05,14.37,8.05,14.37,8.04,-8.05,-7.47,-8.67,6.32,6.32,6.32
28.33,14.33,8.01,14.33,8.01,-8.02,-7.47,-8.82,6.31,6.32,6.32
28.62,14.30,7.99,14.30,7.99,-7.99,-7.46,-8.97,6.31,6.32,6.31
28.90,14.27,7.95,14.27,7.96,-7.96,-7.46,-9.10,6.31,6.31,6.32
29.19,14.24,7.94,14.24,7.93,-7.93,-7.46,-9.23,6.31,6.31,6.31
29.48,14.20,7.91,14.21,7.91,-7.91,-7.45,-9.35,6.30,6.30,6.29
29.78,14.17,7.88,14.17,7.88,-7.88,-7.45,-9.45,6.29,6.29,6.29
30.08,14.14,7.85,14.14,7.85,-7.85,-7.45,-9.54,6.29,6.29,6.29
30.38,14.10,7.82,14.11,7.82,-7.82,-7.44,-9.62,6.28,6.28,6.28
30.68,14.07,7.79,14.07,7.79,-7.79,-7.44,-9.67,6.28,6.28,6.28
30.99,14.04,7.77,14.04,7.76,-7.76,-7.43,-9.72,6.28,6.27,6.28
31.30,14.00,7.73,14.01,7.73,-7.73,-7.43,-9.75,6.27,6.27,6.27
31.61,13.97,7.70,13.97,7.70,-7.70,-7.43,-9.77,6.27,6.27,6.27
31.93,13.94,7.67,13.94,7.67,-7.67,-7.42,-9.76,6.28,6.27,6.27
32.24,13.91,7.63,13.91,7.64,-7.63,-7.42,-9.75,6.28,6.28,6.28
32.57,13.87,7.61,13.88,7.60,-7.60,-7.41,-9.71,6.27,6.28,6.27
32.89,13.84,7.57,13.84,7.56,-7.57,-7.41,-9.67,6.27,6.27,6.27
33.22,13.80,7.53,13.80,7.53,-7.54,-7.40,-9.61,6.27,6.27,6.27
33.55,13.76,7.49,13.77,7.50,-7.50,-7.39,-9.54,6.26,6.26,6.27
33.89,13.73,7.48,13.73,7.47,-7.47,-7.39,-9.46,6.26,6.26,6.26
34.23,13.69,7.45,13.69,7.45,-7.44,-7.38,-9.37,6.25,6.25,6.24
34.57,13.65,7.41,13.65,7.42,-7.41,-7.38,-9.27,6.24,6.24,6.24
34.92,13.61,7.39,13.61,7.39,-7.38,-7.37,-9.17,6.23,6.23,6.22
35.27,13.56,7.35,13.56,7.36,-7.36,-7.36,-9.06,6.20,6.21,6.22
35.62,13.52,7.34,13.52,7.33,-7.33,-7.36,-8.95,6.19,6.18,6.18
35.97,13.47,7.30,13.47,7.31,-7.31,-7.35,-8.83,6.16,6.16,6.17
36.33,13.43,7.29,13.43,7.29,-7.29,-7.34,-8.71,6.14,6.14,6.14
36.70,13.39,7.28,13.39,7.27,-7.28,-7.33,-8.59,6.11,6.11,6.11
37.06,13.35,7.26,13.35,7.27,-7.26,-7.32,-8.47,6.09,6.09,6.09
37.43,13.31,7.26,13.31,7.25,-7.25,-7.32,-8.35,6.06,6.06,6.05
37.81,13.27,7.24,13.27,7.24,-7.24,-7.31,-8.23,6.03,6.03,6.03
38.19,13.22,7.23,13.22,7.23,-7.23,-7.30,-8.11,6.00,6.00,6.00
38.57,13.18,7.21,13.18,7.21,-7.21,-7.29,-8.00,5.97,5.97,5.97
38.95,13.14,7.19,13.14,7.20,-7.20,-7.28,-7.89,5.94,5.94,5.95
39.34,13.10,7.19,13.10,7.18,-7.18,-7.27,-7.78,5.92,5.92,5.91
39.74,13.05,7.16,13.05,7.17,-7.16,-7.25,-7.67,5.89,5.89,5.89
40.14,13.01,7.15,13.01,7.14,-7.14,-7.24,-7.57,5.87,5.87,5.86
40.54,12.96,7.11,12.97,7.12,-7.12,-7.23,-7.47,5.84,5.84,5.85
40.94,12.92,7.10,12.92,7.10,-7.10,-7.22,-7.38,5.82,5.82,5.82
41.35,12.88,7.08,12.88,7.08,-7.08,-7.21,-7.29,5.80,5.80,5.80
41.76,12.83,7.06,12.83,7.06,-7.06,-7.19,-7.21,5.77,5.78,5.77
42.18,12.79,7.03,12.79,7.03,-7.03,-7.18,-7.13,5.76,5.76,5.76
42.60,12.74,7.00,12.74,7.01,-7.01,-7.16,-7.05,5.73,5.74,5.74
43.03,12.70,6.99,12.70,6.98,-6.98,-7.15,-6.99,5.72,5.72,5.71
43.46,12.65,6.96,12.65,6.96,-6.95,-7.13,-6.92,5.70,5.70,5.69
43.90,12.60,6.92,12.60,6.93,-6.92,-7.12,-6.86,5.68,5.68,5.68
44.33,12.55,6.90,12.55,6.90,-6.90,-7.10,-6.81,5.65,5.65,5.65
44.78,12.50,6.87,12.50,6.86,-6.87,-7.08,-6.76,5.63,5.63,5.63
45.23,12.45,6.83,12.45,6.84,-6.84,-7.07,-6.72,5.61,5.61,5.62
45.68,12.40,6.81,12.40,6.82,-6.82,-7.05,-6.68,5.58,5.58,5.59
46.13,12.36,6.81,12.36,6.80,-6.80,-7.03,-6.64,5.56,5.56,5.55
46.60,12.30,6.77,12.31,6.78,-6.78,-7.01,-6.62,5.52,5.53,5.53
47.06,12.26,6.76,12.26,6.76,-6.76,-6.99,-6.59,5.50,5.50,5.50
47.53,12.21,6.74,12.21,6.74,-6.75,-6.97,-6.57,5.46,5.46,5.47
48.01,12.16,6.74,12.16,6.74,-6.73,-6.95,-6.56,5.43,5.43,5.42
48.49,12.11,6.72,12.11,6.72,-6.72,-6.92,-6.54,5.39,5.39,5.39
48.97,12.06,6.71,12.06,6.71,-6.71,-6.90,-6.54,5.35,5.35,5.35
49.46,12.01,6.69,12.01,6.70,-6.70,-6.88,-6.53,5.31,5.31,5.32
49.96,11.96,6.70,11.96,6.69,-6.69,-6.86,-6.53,5.27,5.27,5.26
50.46,11.90,6.68,11.90,6.68,-6.68,-6.83,-6.54,5.22,5.23,5.23
50.96,11.85,6.67,11.85,6.67,-6.66,-6.81,-6.54,5.19,5.19,5.18
51.47,11.80,6.65,11.80,6.65,-6.65,-6.78,-6.55,5.15,5.15,5.15
51.99,11.75,6.64,11.75,6.64,-6.64,-6.76,-6.56,5.12,5.12,5.11
52.51,11.70,6.63,11.70,6.62,-6.62,-6.74,-6.58,5.08,5.08,5.07
53.03,11.64,6.59,11.64,6.60,-6.61,-6.71,-6.59,5.04,5.04,5.05
53.56,11.58,6.58,11.59,6.58,-6.59,-6.69,-6.61,4.99,5.00,5.01
54.10,11.54,6.58,11.54,6.57,-6.57,-6.66,-6.63,4.97,4.96,4.96
54.64,11.48,6.56,11.48,6.56,-6.56,-6.63,-6.64,4.92,4.92,4.93
55.18,11.43,6.55,11.43,6.55,-6.54,-6.61,-6.66,4.89,4.89,4.88
55.74,11.37,6.53,11.37,6.53,-6.52,-6.59,-6.68,4.85,4.85,4.84
56.29,11.32,6.51,11.32,6.51,-6.51,-6.56,-6.69,4.82,4.81,4.82
56.86,11.26,6.47,11.26,6.49,-6.48,-6.54,-6.71,4.78,4.78,4.79
57.42,11.21,6.47,11.21,6.47,-6.46,-6.51,-6.72,4.75,4.75,4.74
58.00,11.16,6.45,11.16,6.44,-6.44,-6.49,-6.73,4.73,4.72,4.71
58.58,11.10,6.41,11.10,6.42,-6.41,-6.47,-6.74,4.69,4.69,4.69
59.16,11.04,6.38,11.04,6.38,-6.39,-6.44,-6.74,4.65,4.65,4.66
59.76,10.99,6.36,10.99,6.36,-6.38,-6.42,-6.74,4.61,4.61,4.63
60.35,10.93,6.35,10.93,6.35,-6.36,-6.40,-6.73,4.57,4.57,4.58
60.96,10.88,6.35,10.88,6.35,-6.35,-6.38,-6.72,4.53,4.52,4.54
61.57,10.82,6.35,10.82,6.35,-6.34,-6.36,-6.71,4.48,4.48,4.47
62.18,10.76,6.34,10.77,6.34,-6.34,-6.34,-6.69,4.42,4.43,4.42
62.80,10.71,6.34,10.71,6.34,-6.33,-6.32,-6.67,4.38,4.38,4.37
63.43,10.65,6.33,10.65,6.33,-6.32,-6.30,-6.64,4.33,4.33,4.32
64.07,10.59,6.31,10.59,6.31,-6.30,-6.28,-6.60,4.29,4.29,4.28
64.71,10.54,6.29,10.54,6.29,-6.29,-6.26,-6.57,4.25,4.25,4.25
65.35,10.47,6.26,10.48,6.27,-6.27,-6.24,-6.52,4.20,4.21,4.21
66.01,10.42,6.25,10.42,6.24,-6.25,-6.23,-6.48,4.17,4.17,4.17
66.67,10.36,6.22,10.36,6.22,-6.23,-6.21,-6.42,4.14,4.13,4.14
67.33,10.29,6.20,10.30,6.20,-6.20,-6.19,-6.37,4.09,4.10,4.09
68.01,10.24,6.19,10.24,6.18,-6.18,-6.17,-6.31,4.06,4.06,4.05
68.69,10.18,6.17,10.18,6.17,-6.16,-6.16,-6.25,4.02,4.02,4.01
69.37,10.12,6.14,10.12,6.14,-6.14,-6.14,-6.18,3.98,3.98,3.98
70.07,10.06,6.12,10.06,6.12,-6.13,-6.12,-6.12,3.94,3.94,3.95
70.77,10.00,6.10,10.00,6.10,-6.11,-6.10,-6.05,3.89,3.90,3.90
71.48,9.95,6.09,9.95,6.09,-6.09,-6.08,-5.98,3.86,3.86,3.86
72.19,9.88,6.07,9.89,6.07,-6.07,-6.06,-5.91,3.81,3.82,3.81
72.91,9.83,6.06,9.83,6.05,-6.05,-6.04,-5.84,3.78,3.78,3.78
73.64,9.76,6.03,9.76,6.03,-6.03,-6.02,-5.77,3.73,3.73,3.73
74.38,9.70,6.01,9.70,6.01,-6.01,-6.00,-5.71,3.69,3.69,3.69
75.12,9.64,5.99,9.64,5.98,-5.98,-5.98,-5.64,3.66,3.66,3.65
75.87,9.58,5.95,9.58,5.96,-5.96,-5.96,-5.57,3.62,3.62,3.63
76.63,9.52,5.93,9.52,5.93,-5.93,-5.94,-5.51,3.59,3.59,3.59
77.40,9.46,5.90,9.46,5.90,-5.90,-5.91,-5.44,3.56,3.56,3.56
78.17,9.40,5.88,9.40,5.87,-5.87,-5.89,-5.38,3.53,3.53,3.52
78.95,9.33,5.83,9.33,5.84,-5.84,-5.87,-5.32,3.49,3.50,3.50
79.74,9.27,5.80,9.27,5.80,-5.81,-5.84,-5.27,3.46,3.47,3.47
80.54,9.21,5.78,9.21,5.77,-5.78,-5.81,-5.22,3.44,3.44,3.43
81.35,9.15,5.74,9.15,5.74,-5.74,-5.79,-5.16,3.41,3.41,3.41
82.16,9.09,5.71,9.09,5.71,-5.71,-5.76,-5.12,3.38,3.38,3.38
82.98,9.02,5.68,9.03,5.68,-5.68,-5.73,-5.07,3.34,3.35,3.35
83.81,8.97,5.65,8.96,5.65,-5.65,-5.70,-5.03,3.32,3.32,3.32
84.65,8.90,5.62,8.90,5.62,-5.62,-5.68,-5.00,3.29,3.29,3.28
85.50,8.83,5.58,8.84,5.59,-5.58,-5.65,-4.97,3.25,3.26,3.25
86.35,8.78,5.55,8.78,5.55,-5.55,-5.62,-4.93,3.23,3.22,3.23
87.22,8.71,5.51,8.71,5.51,-5.52,-5.59,-4.91,3.19,3.19,3.20
88.09,8.65,5.49,8.65,5.48,-5.49,-5.56,-4.89,3.17,3.17,3.17
88.97,8.58,5.45,8.59,5.45,-5.45,-5.53,-4.87,3.13,3.13,3.13
89.86,8.53,5.43,8.52,5.42,-5.42,-5.50,-4.85,3.11,3.10,3.10
90.76,8.46,5.39,8.46,5.39,-5.39,-5.46,-4.84,3.07,3.07,3.07
91.66,8.39,5.36,8.40,5.36,-5.36,-5.43,-4.83,3.03,3.03,3.03
92.58,8.33,5.33,8.33,5.33,-5.33,-5.40,-4.83,3.00,3.00,3.00
93.51,8.27,5.31,8.27,5.30,-5.31,-5.37,-4.83,2.96,2.96,2.96
94.44,8.21,5.28,8.21,5.28,-5.28,-5.34,-4.83,2.93,2.92,2.93
95.39,8.14,5.26,8.14,5.26,-5.26,-5.31,-4.83,2.88,2.88,2.88
96.34,8.08,5.24,8.08,5.24,-5.24,-5.28,-4.84,2.84,2.84,2.84
97.30,8.01,5.21,8.01,5.22,-5.22,-5.25,-4.85,2.79,2.79,2.80
98.28,7.95,5.21,7.95,5.20,-5.20,-5.23,-4.87,2.75,2.75,2.74
99.26,7.88,5.18,7.88,5.18,-5.18,-5.20,-4.89,2.70,2.70,2.70
100.25,7.82,5.16,7.82,5.16,-5.16,-5.17,-4.91,2.67,2.66,2.66
101.25,7.75,5.13,7.75,5.13,-5.13,-5.14,-4.93,2.62,2.62,2.62
102.27,7.69,5.11,7.69,5.10,-5.11,-5.12,-4.95,2.59,2.58,2.58
103.29,7.62,5.08,7.62,5.08,-5.08,-5.09,-4.97,2.54,2.55,2.55
104.32,7.56,5.04,7.56,5.04,-5.05,-5.07,-5.00,2.51,2.51,2.52
105.37,7.50,5.02,7.50,5.02,-5.02,-5.04,-5.03,2.49,2.48,2.48
106.42,7.43,4.98,7.44,4.99,-4.98,-5.02,-5.06,2.45,2.45,2.45
107.48,7.37,4.97,7.37,4.96,-4.95,-4.99,-5.08,2.42,2.41,2.41
108.56,7.30,4.92,7.30,4.92,-4.92,-4.97,-5.11,2.38,2.38,2.38
109.64,7.23,4.88,7.24,4.89,-4.89,-4.95,-5.14,2.34,2.34,2.35
110.74,7.17,4.86,7.17,4.86,-4.86,-4.92,-5.16,2.31,2.31,2.31
111.85,7.11,4.84,7.11,4.83,-4.84,-4.90,-5.19,2.28,2.28,2.28
112.97,7.05,4.81,7.05,4.81,-4.81,-4.88,-5.21,2.24,2.24,2.24
114.10,6.98,4.78,6.98,4.78,-4.78,-4.85,-5.23,2.20,2.20,2.20
115.24,6.91,4.76,6.91,4.76,-4.76,-4.83,-5.25,2.15,2.15,2.16
116.39,6.84,4.74,6.84,4.74,-4.74,-4.80,-5.27,2.10,2.11,2.10
117.55,6.78,4.72,6.78,4.72,-4.72,-4.77,-5.28,2.06,2.06,2.06
118.73,6.71,4.70,6.71,4.70,-4.70,-4.74,-5.29,2.01,2.01,2.01
119.92,6.64,4.68,6.65,4.68,-4.68,-4.71,-5.29,1.97,1.97,1.96
121.12,6.58,4.65,6.58,4.66,-4.66,-4.68,-5.29,1.92,1.92,1.93
122.33,6.52,4.65,6.52,4.64,-4.64,-4.65,-5.28,1.88,1.88,1.88
123.55,6.45,4.62,6.45,4.62,-4.62,-4.61,-5.27,1.83,1.83,1.83
124.79,6.39,4.60,6.39,4.60,-4.61,-4.58,-5.25,1.79,1.78,1.79
126.03,6.32,4.58,6.32,4.59,-4.59,-4.54,-5.23,1.73,1.73,1.74
127.29,6.26,4.58,6.26,4.58,-4.58,-4.51,-5.20,1.68,1.68,1.68
128.57,6.19,4.56,6.19,4.56,-4.56,-4.47,-5.17,1.63,1.63,1.63
129.85,6.12,4.54,6.12,4.55,-4.55,-4.44,-5.14,1.58,1.58,1.58
131.15,6.06,4.53,6.06,4.53,-4.53,-4.40,-5.10,1.53,1.53,1.53
132.46,5.99,4.51,5.99,4.51,-4.51,-4.37,-5.05,1.48,1.49,1.48
133.79,5.93,4.49,5.93,4.49,-4.48,-4.33,-5.00,1.45,1.44,1.44
135.12,5.86,4.46,5.86,4.46,-4.46,-4.30,-4.95,1.40,1.40,1.40
136.48,5.79,4.42,5.80,4.43,-4.43,-4.27,-4.89,1.36,1.37,1.37
137.84,5.73,4.40,5.73,4.40,-4.40,-4.24,-4.83,1.33,1.33,1.34
139.22,5.66,4.37,5.66,4.36,-4.37,-4.21,-4.77,1.30,1.30,1.29
140.61,5.59,4.32,5.60,4.33,-4.33,-4.18,-4.70,1.26,1.27,1.27
142.02,5.53,4.30,5.53,4.30,-4.29,-4.16,-4.63,1.24,1.24,1.24
143.44,5.47,4.27,5.47,4.26,-4.26,-4.13,-4.56,1.21,1.21,1.20
144.87,5.40,4.22,5.40,4.22,-4.22,-4.11,-4.49,1.18,1.18,1.18
146.32,5.33,4.18,5.34,4.18,-4.18,-4.09,-4.42,1.15,1.15,1.15
147.78,5.27,4.15,5.27,4.14,-4.15,-4.07,-4.35,1.12,1.12,1.12
149.26,5.20,4.11,5.20,4.11,-4.11,-4.05,-4.28,1.09,1.09,1.09
150.75,5.13,4.07,5.13,4.07,-4.07,-4.03,-4.21,1.06,1.06,1.06
152.26,5.07,4.03,5.07,4.03,-4.03,-4.02,-4.13,1.04,1.04,1.04
153.78,5.00,4.00,5.00,4.00,-4.00,-4.00,-4.06,1.00,1.01,1.00
155.32,4.94,3.96,4.94,3.96,-3.96,-3.98,-4.00,0.98,0.98,0.98
156.88,4.87,3.93,4.87,3.93,-3.93,-3.97,-3.93,0.94,0.95,0.95
158.44,4.81,3.90,4.81,3.89,-3.90,-3.96,-3.86,0.92,0.91,0.91
160.03,4.74,3.86,4.74,3.86,-3.86,-3.94,-3.80,0.88,0.88,0.88
161.63,4.67,3.82,4.67,3.83,-3.83,-3.93,-3.73,0.84,0.84,0.85
163.24,4.61,3.81,4.61,3.80,-3.80,-3.92,-3.67,0.81,0.80,0.80
164.88,4.54,3.77,4.54,3.78,-3.77,-3.90,-3.62,0.77,0.77,0.77
166.53,4.48,3.75,4.48,3.75,-3.75,-3.89,-3.56,0.73,0.73,0.73
168.19,4.41,3.71,4.41,3.72,-3.72,-3.88,-3.50,0.69,0.69,0.70
169.87,4.35,3.69,4.35,3.69,-3.69,-3.86,-3.45,0.66,0.66,0.66
171.57,4.28,3.67,4.28,3.66,-3.66,-3.85,-3.40,0.62,0.62,0.62
173.29,4.22,3.64,4.22,3.64,-3.64,-3.83,-3.36,0.59,0.58,0.58
175.02,4.15,3.61,4.15,3.61,-3.61,-3.82,-3.31,0.54,0.55,0.54
176.77,4.09,3.58,4.09,3.58,-3.58,-3.80,-3.27,0.51,0.51,0.51
178.54,4.02,3.55,4.02,3.55,-3.55,-3.78,-3.23,0.47,0.47,0.48
180.32,3.96,3.53,3.96,3.52,-3.52,-3.77,-3.19,0.44,0.44,0.43
182.13,3.89,3.49,3.89,3.49,-3.49,-3.75,-3.16,0.40,0.40,0.40
183.95,3.82,3.45,3.83,3.46,-3.46,-3.73,-3.13,0.36,0.37,0.37
185.79,3.76,3.43,3.76,3.43,-3.43,-3.70,-3.10,0.33,0.33,0.33
187.65,3.70,3.40,3.69,3.40,-3.40,-3.68,-3.07,0.30,0.29,0.30
189.52,3.62,3.36,3.63,3.37,-3.37,-3.65,-3.04,0.25,0.25,0.26
191.42,3.56,3.34,3.56,3.34,-3.35,-3.63,-3.02,0.22,0.22,0.22
193.33,3.50,3.32,3.50,3.32,-3.32,-3.60,-3.00,0.18,0.18,0.18
195.27,3.43,3.29,3.44,3.29,-3.29,-3.57,-2.98,0.14,0.15,0.14
197.22,3.37,3.27,3.37,3.26,-3.26,-3.54,-2.96,0.11,0.11,0.10
199.19,3.30,3.22,3.30,3.23,-3.23,-3.50,-2.95,0.08,0.08,0.08
201.18,3.23,3.19,3.24,3.19,-3.19,-3.47,-2.93,0.04,0.05,0.04
203.19,3.18,3.17,3.18,3.16,-3.16,-3.43,-2.92,0.02,0.02,0.02
205.23,3.11,3.12,3.11,3.12,-3.12,-3.39,-2.91,-0.01,-0.01,-0.01
207.28,3.05,3.09,3.05,3.09,-3.09,-3.36,-2.90,-0.04,-0.04,-0.03
209.35,2.98,3.05,2.98,3.05,-3.05,-3.31,-2.89,-0.07,-0.07,-0.07
211.44,2.92,3.01,2.92,3.02,-3.02,-3.27,-2.88,-0.10,-0.10,-0.09
213.56,2.86,2.99,2.86,2.98,-2.98,-3.23,-2.87,-0.12,-0.12,-0.13
215.69,2.80,2.95,2.80,2.95,-2.95,-3.18,-2.86,-0.15,-0.15,-0.15
217.85,2.74,2.91,2.74,2.91,-2.91,-3.14,-2.86,-0.17,-0.17,-0.17
220.03,2.67,2.87,2.68,2.87,-2.87,-3.09,-2.85,-0.20,-0.20,-0.20
222.23,2.61,2.84,2.61,2.83,-2.83,-3.04,-2.84,-0.22,-0.22,-0.22
224.45,2.55,2.80,2.55,2.79,-2.79,-2.99,-2.83,-0.24,-0.24,-0.25
226.70,2.48,2.75,2.49,2.75,-2.75,-2.94,-2.82,-0.27,-0.26,-0.27
228.96,2.43,2.71,2.43,2.71,-2.71,-2.89,-2.81,-0.28,-0.28,-0.28
231.25,2.37,2.67,2.37,2.67,-2.67,-2.84,-2.80,-0.30,-0.30,-0.30
233.57,2.31,2.63,2.31,2.63,-2.63,-2.79,-2.78,-0.32,-0.32,-0.32
235.90,2.25,2.60,2.25,2.59,-2.59,-2.73,-2.77,-0.34,-0.34,-0.34
238.26,2.20,2.57,2.20,2.56,-2.55,-2.68,-2.75,-0.35,-0.36,-0.36
240.64,2.14,2.50,2.15,2.52,-2.52,-2.63,-2.73,-0.37,-0.37,-0.36
243.05,2.10,2.48,2.10,2.48,-2.48,-2.57,-2.71,-0.38,-0.38,-0.38
245.48,2.04,2.44,2.04,2.44,-2.44,-2.52,-2.68,-0.40,-0.39,-0.40
247.93,1.99,2.41,1.99,2.40,-2.40,-2.46,-2.65,-0.41,-0.41,-0.42
250.41,1.94,2.36,1.94,2.36,-2.36,-2.41,-2.62,-0.42,-0.42,-0.41
252.92,1.89,2.31,1.89,2.32,-2.32,-2.35,-2.59,-0.43,-0.43,-0.42
255.45,1.84,2.28,1.84,2.28,-2.28,-2.30,-2.55,-0.44,-0.44,-0.44
258.00,1.80,2.25,1.80,2.24,-2.24,-2.24,-2.52,-0.44,-0.45,-0.44
260.58,1.75,2.20,1.75,2.21,-2.21,-2.19,-2.48,-0.46,-0.45,-0.45
263.19,1.71,2.18,1.71,2.17,-2.17,-2.14,-2.43,-0.46,-0.46,-0.47
265.82,1.67,2.14,1.67,2.14,-2.14,-2.08,-2.39,-0.47,-0.47,-0.47
268.48,1.62,2.10,1.62,2.11,-2.11,-2.03,-2.34,-0.48,-0.48,-0.48
271.16,1.58,2.08,1.58,2.07,-2.07,-1.97,-2.29,-0.49,-0.49,-0.49
273.87,1.53,2.03,1.53,2.04,-2.04,-1.92,-2.24,-0.51,-0.50,-0.50
276.61,1.49,2.01,1.49,2.00,-2.00,-1.87,-2.18,-0.51,-0.51,-0.51
279.38,1.44,1.97,1.44,1.97,-1.97,-1.82,-2.13,-0.53,-0.52,-0.53
282.17,1.40,1.94,1.40,1.93,-1.93,-1.76,-2.07,-0.53,-0.53,-0.53
284.99,1.36,1.89,1.36,1.89,-1.89,-1.71,-2.01,-0.53,-0.54,-0.53
287.84,1.31,1.84,1.32,1.86,-1.86,-1.66,-1.95,-0.54,-0.54,-0.53
290.72,1.27,1.83,1.27,1.82,-1.82,-1.61,-1.89,-0.55,-0.55,-0.56
293.63,1.23,1.78,1.23,1.78,-1.78,-1.56,-1.83,-0.55,-0.55,-0.55
296.57,1.18,1.74,1.18,1.74,-1.74,-1.51,-1.77,-0.56,-0.56,-0.56
299.53,1.13,1.69,1.14,1.69,-1.70,-1.46,-1.70,-0.56,-0.56,-0.56
302.53,1.09,1.65,1.09,1.65,-1.65,-1.41,-1.64,-0.56,-0.56,-0.56
305.55,1.05,1.62,1.04,1.61,-1.61,-1.37,-1.58,-0.56,-0.57,-0.57
308.61,0.99,1.56,1.00,1.57,-1.57,-1.32,-1.51,-0.58,-0.57,-0.57
311.69,0.95,1.52,0.95,1.53,-1.53,-1.27,-1.45,-0.57,-0.57,-0.57
314.81,0.91,1.49,0.91,1.48,-1.48,-1.23,-1.39,-0.57,-0.57,-0.58
317.96,0.86,1.44,0.86,1.44,-1.44,-1.18,-1.32,-0.57,-0.57,-0.58
321.14,0.82,1.39,0.82,1.39,-1.39,-1.13,-1.26,-0.57,-0.57,-0.57
324.35,0.76,1.35,0.77,1.34,-1.34,-1.09,-1.20,-0.58,-0.58,-0.58
327.59,0.72,1.29,0.72,1.29,-1.29,-1.04,-1.14,-0.57,-0.58,-0.57
330.87,0.66,1.23,0.67,1.24,-1.24,-1.00,-1.07,-0.58,-0.58,-0.57
334.18,0.62,1.20,0.62,1.19,-1.19,-0.96,-1.01,-0.57,-0.57,-0.58
337.52,0.57,1.15,0.57,1.15,-1.14,-0.91,-0.95,-0.57,-0.57,-0.57
340.90,0.52,1.10,0.52,1.09,-1.09,-0.87,-0.89,-0.57,-0.57,-0.58
344.30,0.46,1.03,0.47,1.04,-1.04,-0.83,-0.83,-0.57,-0.57,-0.57
347.75,0.41,0.97,0.42,0.98,-0.98,-0.79,-0.77,-0.57,-0.57,-0.56
351.23,0.37,0.94,0.36,0.93,-0.93,-0.75,-0.71,-0.56,-0.57,-0.57
354.74,0.31,0.87,0.31,0.87,-0.87,-0.70,-0.65,-0.56,-0.56,-0.55
358.28,0.25,0.82,0.26,0.82,-0.82,-0.66,-0.59,-0.57,-0.56,-0.57
361.87,0.21,0.77,0.20,0.76,-0.76,-0.62,-0.53,-0.55,-0.56,-0.56
365.49,0.15,0.71,0.15,0.71,-0.71,-0.58,-0.47,-0.56,-0.56,-0.56
369.14,0.10,0.65,0.10,0.66,-0.66,-0.54,-0.42,-0.56,-0.56,-0.55
372.83,0.05,0.60,0.05,0.60,-0.61,-0.50,-0.36,-0.56,-0.56,-0.55
376.56,0.00,0.56,0.00,0.56,-0.55,-0.46,-0.30,-0.55,-0.55,-0.55
380.33,-0.05,0.51,-0.05,0.51,-0.50,-0.42,-0.25,-0.55,-0.55,-0.56
384.13,-0.10,0.46,-0.10,0.45,-0.45,-0.38,-0.19,-0.55,-0.55,-0.56
387.97,-0.16,0.39,-0.16,0.40,-0.40,-0.34,-0.14,-0.55,-0.55,-0.55
391.85,-0.21,0.34,-0.21,0.34,-0.34,-0.30,-0.08,-0.55,-0.55,-0.55
395.77,-0.26,0.29,-0.26,0.29,-0.29,-0.27,-0.03,-0.55,-0.55,-0.55
399.73,-0.31,0.24,-0.31,0.24,-0.24,-0.23,0.02,-0.55,-0.55,-0.55
403.72,-0.36,0.18,-0.36,0.19,-0.19,-0.19,0.08,-0.55,-0.55,-0.54
407.76,-0.41,0.14,-0.41,0.14,-0.14,-0.15,0.13,-0.55,-0.54,-0.54
411.84,-0.45,0.10,-0.45,0.09,-0.09,-0.11,0.18,-0.54,-0.54,-0.55
415.96,-0.50,0.04,-0.50,0.04,-0.04,-0.07,0.23,-0.54,-0.54,-0.54
420.12,-0.55,-0.00,-0.55,-0.00,0.01,-0.03,0.28,-0.54,-0.54,-0.55
424.32,-0.60,-0.05,-0.60,-0.05,0.05,0.01,0.33,-0.55,-0.54,-0.55
428.56,-0.64,-0.10,-0.64,-0.10,0.10,0.05,0.38,-0.54,-0.55,-0.54
432.85,-0.69,-0.15,-0.69,-0.15,0.14,0.08,0.43,-0.55,-0.55,-0.54
437.18,-0.74,-0.19,-0.73,-0.19,0.19,0.12,0.48,-0.55,-0.55,-0.55
441.55,-0.78,-0.23,-0.78,-0.23,0.23,0.16,0.52,-0.54,-0.55,-0.55
445.96,-0.83,-0.28,-0.83,-0.28,0.28,0.20,0.57,-0.55,-0.55,-0.55
450.42,-0.88,-0.33,-0.88,-0.32,0.33,0.24,0.61,-0.55,-0.55,-0.55
454.93,-0.93,-0.38,-0.93,-0.37,0.37,0.28,0.65,-0.56,-0.55,-0.55
459.48,-0.97,-0.41,-0.97,-0.42,0.42,0.32,0.69,-0.55,-0.55,-0.55
464.07,-1.02,-0.47,-1.02,-0.47,0.46,0.37,0.73,-0.55,-0.55,-0.54
468.71,-1.06,-0.51,-1.06,-0.51,0.51,0.41,0.77,-0.55,-0.55,-0.55
473.40,-1.10,-0.55,-1.10,-0.56,0.56,0.45,0.81,-0.54,-0.55,-0.55
478.13,-1.15,-0.60,-1.14,-0.60,0.60,0.49,0.84,-0.55,-0.54,-0.55
482.91,-1.18,-0.63,-1.19,-0.64,0.64,0.53,0.87,-0.54,-0.54,-0.55
487.74,-1.23,-0.69,-1.23,-0.69,0.69,0.57,0.90,-0.54,-0.54,-0.54
492.62,-1.28,-0.74,-1.27,-0.73,0.73,0.62,0.93,-0.55,-0.54,-0.54
497.55,-1.31,-0.77,-1.32,-0.78,0.78,0.66,0.96,-0.53,-0.54,-0.54
