frequency,raw,error,smoothed,error_smoothed,equalization,equalized_raw,equalized_smoothed,target
20,-9.81394558580801,-10.599831786653878,-9.706619991182679,-10.492490844802399,5.999999999999998,-3.8139455858080122,-3.7066199911826807,0.785886200845868
21,-9.141742115759515,-9.927609364367797,-9.201328639987588,-9.987198242847471,6.0,-3.1417421157595147,-3.2013286399875884,0.7858672486082812
22,-8.6720429238905,-9.457885380526932,-8.727457178088208,-9.513311949129493,6.0,-2.6720429238904995,-2.7274571780882084,0.7858424566364333
23,-8.18886985822968,-8.974680276931139,-8.285005605484537,-9.070831963648466,6.0,-2.1888698582296797,-2.285005605484537,0.7858104187014585
24,-7.784541307523114,-8.570310783177247,-7.873973922176563,-8.659758286404376,5.999999999999997,-1.7845413075231162,-1.8739739221765657,0.7857694756541327
25,-7.559382739388594,-8.34510042336726,-7.497124793614126,-8.28285505918177,6.000000000000001,-1.5593827393885933,-1.497124793614125,0.7857176839786661
26,-7.105530590916361,-7.891183372965469,-7.151147924791497,-7.936810532409028,6.000000000000001,-1.1055305909163602,-1.1511479247914957,0.7856527820491079
27,-6.878990001065717,-7.6645621551032574,-6.833100728872727,-7.618680550600949,6.0,-0.8789900010657172,-0.8331007288727266,0.7855721540375402
28,-6.6526549346712205,-7.438127726099932,-6.538991629982066,-7.3244709542576345,6.0,-0.6526549346712205,-0.5389916299820658,0.785472791428711
29,-6.199621399537968,-6.984972651639421,-6.264261042145012,-7.049618537781626,6.000000000000001,-0.19962139953796676,-0.26426104214501134,0.7853512521014525
30,-5.976447834116466,-6.7616514510614785,-6.005354909109995,-6.790565165975458,5.999999999999999,0.02355216588353315,-0.005354909109995809,0.7852036169450121
31,-5.755256634407941,-6.54028207839476,-5.759310853126874,-6.544343715641668,5.999999999999999,0.24474336559205767,0.24068914687312493,0.785025443986819
32,-5.535521494836949,-6.320333214855536,-5.52404265865761,-6.3088627176300465,5.958966685136877,0.4234451902999279,0.4349240264792673,0.784811720018586
33,-5.3165523999429585,-6.10110920966274,-5.298211177802623,-6.082777260985507,5.873953132053905,0.5574007321109464,0.5757419542512823,0.7845568097197813
34,-5.09789513355636,-5.882149535848174,-5.080928855385719,-5.865193414107093,5.749097104818283,0.6512019712619228,0.668168249432564,0.7842544022918139
35,-4.879403706158655,-5.663301161791735,-4.87171024025898,-5.65561868656035,5.600203004511084,0.7207992983524294,0.7284927642521044,0.7838974556330802
36,-4.660974212876292,-5.444452350980924,-4.670358232231933,-5.453848173299028,5.436698319395778,0.775724106519486,0.7663400871638455,0.7834781381046327
37,-4.442184880595121,-5.225172648554185,-4.4768916508667616,-5.259892038512895,5.259892038512894,0.8177071579177726,0.7830003876461324,0.7829877679590638
38,-4.402349396905158,-5.184766147436834,-4.2914432394196105,-5.0738734496558555,5.073873449655857,0.6715240527506996,0.7824302102362468,0.7824167505316759
39,-3.999834999284557,-4.781589512608015,-4.114079449202855,-4.895848291161888,4.895848291161888,0.8960132918773311,0.7817688419590336,0.7817545133234582
40,-3.9716534324964536,-4.7526428716368905,-3.944623495699002,-4.725628158551428,4.725628158551429,0.7539747260549756,0.7810046628524274,0.7809894391404364
41,-3.773598715083664,-4.5537075125775335,-3.782541675789169,-4.562666611590176,4.562666611590176,0.7890678965065119,0.7801249358010072,0.7801087974938694
42,-3.594660511141355,-4.373759185652549,-3.6269760851654103,-4.406091824327126,4.406091824327125,0.8114313131857696,0.7791157391617145,0.7790986745111934
43,-3.5375620256938807,-4.3155059273528025,-3.4769726400966396,-4.254934537291843,4.254934537291842,0.717372511597961,0.777961897195202,0.7779439016589222
44,-3.304709470153586,-4.081337453789985,-3.3318900533239364,-4.108536961009778,4.1085369610097775,0.8038274908561913,0.7766469076858411,0.7766279836363985
45,-3.300416292338074,-4.075549318201915,-3.191924924719517,-3.967077793489106,3.967077793489105,0.6666615011510308,0.7751528687695877,0.7751330258638407
46,-3.0690939412932674,-3.8425336033531106,-3.058629353502207,-3.832089759436685,3.832089759436685,0.7629958181434175,0.7734604059344781,0.7734396620598432
47,-2.8384950771726705,-3.610022059655477,-2.9352502521902064,-3.706798852042377,3.706798852042377,0.8683037748697067,0.7715485998521707,0.7715269824828064
48,-2.8362742821337643,-3.6056467456315837,-2.826696326959886,-3.5960912427926455,3.596091242792645,0.7598169606588807,0.7693949158327591,0.7693724634978194
49,-2.834429945875365,-3.6013818451008763,-2.7389630154744253,-3.5059381509175407,3.5059381509175394,0.6715082050421746,0.766975135443114,0.7669518992255115
50,-2.6052198178796413,-3.369459154011822,-2.677947101239064,-3.442210392307486,3.4422103923074854,0.8369905744278441,0.7642632910684215,0.7642393361321806
51,-2.60476537504578,-3.365972386576688,-2.6477644337964037,-3.4089960381658475,3.408996038165848,0.8042306631200677,0.7612316043694443,0.761207011530908
52,-2.6052702806796235,-3.3630955777604896,-2.6489129499713284,-3.406763379688136,3.406763379688135,0.8014930990085114,0.7578504297168065,0.7578252970808661
53,-2.6065277715129316,-3.3605904200087005,-2.6768173404478315,-3.4309055442965937,3.4309055442965946,0.824377772783663,0.7540882038487631,0.7540626484957689
54,-2.6080439243655174,-3.3579294871668,-2.7213487204250697,-3.4712601235330753,3.4712601235330753,0.863216199167558,0.7499114031080056,0.7498855628012828
55,-2.609280963396424,-3.3545395080100495,-2.767763166806483,-3.513047676544311,3.513047676544311,0.903766713147887,0.7452845097378282,0.7452585446136255
56,-2.8378653324847445,-3.5780094155301145,-2.7991512803181973,-3.5393212691696903,3.539321269169692,0.7014559366849475,0.7401699888514948,0.74014408304537
57,-3.065968616659035,-3.8004712576361808,-2.80002881130359,-3.5345570891217726,3.5345570891217717,0.4685884724627365,0.7345282778181819,0.7345026409771456
58,-3.0660426648447685,-3.794335323406883,-2.760276913890128,-3.488594703831149,3.4885947038311484,0.42255203898637994,0.7283177899410203,0.7282926585621143
59,-2.8384452879526068,-3.559915860902609,-2.6784143799157003,-3.3999093143396975,3.3999093143396975,0.5614640263870907,0.7214949344239971,0.7214705729500022
60,-2.6178001949752767,-3.331791051299642,-2.5632469288936655,-3.277261083625028,3.277261083625028,0.6594608886497513,0.7140141547313625,0.7139908563243651
61,-2.3837718762362345,-3.0895779506715884,-2.4332814309388224,-3.13910941847004,3.1391094184700408,0.7553375422338062,0.7058279875312183,0.7058060744353538
62,-2.1557295298642,-2.852596497738551,-2.3138162901605677,-3.0107034346384594,3.01070343463846,0.8549739047742597,0.6968871444778921,0.6968669678743509
63,-2.1544667465935614,-2.841589304963216,-2.232179462354129,-2.9193200814708957,2.919320081470896,0.7648533348773348,0.687140619116767,0.6871225583696545
64,-2.152078522249519,-2.8285988046257895,-2.2120440485478112,-2.8885798697675407,2.888579869767541,0.736501347518022,0.6765358212197299,0.6765202823762704
65,-2.149211755316118,-2.814217909495926,-2.268010035350873,-2.9330287759891362,2.933028775989135,0.7838170206730171,0.6650187406382617,0.665006154179808
66,-2.147014689652765,-2.799539650278634,-2.4016529200802075,-3.0541870630507884,3.0541870630507897,0.9071723733980246,0.6525341429705822,0.6525249606258687
67,-2.374728617711389,-3.013749107124875,-2.6000029511057785,-3.2390287503323636,3.2390287503323636,0.8643001326209747,0.6390257992265851,0.6390204894134861
68,-2.7032675027647795,-3.3277032954102443,-2.8369609551838204,-3.461397705815207,3.461397705815207,0.7581302030504276,0.6244367506313866,0.6244357926454649
69,-3.094274759969295,-3.7029882469710955,-3.0775412379671145,-3.6862508469476882,3.6862508469476882,0.5919760869783932,0.6087096089805737,0.6087134870018005
70,-3.483498927274761,-4.075295018762201,-3.284170889951116,-3.8759577840197106,3.875957784019711,0.39245885674495007,0.5917868940685951,0.5917960914874398
71,-3.7756886441591675,-4.349315047355981,-3.4237264671261762,-3.9973378787331777,3.9973378787331786,0.2216492345740111,0.5736114116070024,0.5736264031968132
72,-3.7838389838885065,-4.337986894819458,-3.4737230328021895,-4.027849706891346,4.027849706891347,0.24401072300284055,0.5541266740891575,0.5541479109309515
73,-3.5784075270572355,-4.111712772855001,-3.4262085678227736,-3.959485927471087,3.9594859274710865,0.381078400413851,0.5332773596483129,0.5333052457977656
74,-3.364200300296914,-3.8752449674212115,-3.288469406467998,-3.799479204482613,3.7994792044826133,0.4352789041856995,0.5110097980146153,0.5110446671242976
75,-3.11961751131903,-3.606932092437013,-3.0804852550188784,-3.567757722970722,3.567757722970722,0.4481402116516917,0.4872724679518434,0.4873145811179831
76,-2.7176928690387046,-3.179758957781742,-2.829932691890256,-3.2919491890847725,3.2919491890847725,0.574256320046068,0.46201649719451643,0.46206608874303745
77,-2.295475185009248,-2.7307287432534504,-2.566144559618814,-3.00134074981029,3.00134074981029,0.7058655648010421,0.43519619019147626,0.4352535582442023
78,-2.1870355134787047,-2.593870730153512,-2.314593866843893,-2.721363526527594,2.7213635265275937,0.534328013048889,0.4067696596837007,0.4068352166748075
79,-2.0270885241669196,-2.403862277863749,-2.0931510474701094,-2.4698506925362587,2.46985069253626,0.44276216836934035,0.3766996450661506,0.3767737536968294
80,-1.8077359998977596,-2.1527729297477505,-1.9107036184000428,-2.2556581093970256,2.255658109397026,0.4479221094992665,0.3449544909969833,0.3450369298499911
81,-1.8214286134996351,-2.133026793972517,-1.7679834559974692,-2.0794924844881546,2.0794924844881555,0.25806387098852035,0.3115090284906863,0.311598180472882
82,-1.8277814322694306,-2.1042186378128473,-1.6598801032960564,-1.9362249891315437,1.9362249891315442,0.1084435568621136,0.2763448858354878,0.276437205543417
83,-1.5306139924438469,-1.770154527377334,-1.578287438833008,-1.8177371947105776,1.8177371947105776,0.2871232022667307,0.23944975587756967,0.23954053493348715
84,-1.4288595008285525,-1.6297615588178305,-1.5146432010853705,-1.7154588158749688,1.7154588158749693,0.2865993150464168,0.20081561478959875,0.20090205798927796
85,-1.4495848021307007,-1.6101083081299916,-1.4616584808228281,-1.6220953841631451,1.6220953841631454,0.17251058203244463,0.16043690334031724,0.16052350599929088
86,-1.4666358586541368,-1.5850507346923224,-1.41412307453103,-1.532433924328549,1.5324339243285483,0.06579806567441149,0.11831084979751827,0.11841487603818557
87,-1.4795792283321867,-1.5541740132436805,-1.3689629969240578,-1.443405514865178,1.4434055148651779,-0.03617371346700882,0.07444251794112011,0.07459478491149385
88,-1.2612714538649301,-1.2903621963658989,-1.3248510084864051,-1.3537068200280378,1.353706820028038,0.09243536616310788,0.02885581154163286,0.02909074250096877
89,-1.2690351803451123,-1.2509745150832825,-1.2816517138876087,-1.2632599460785077,1.2632599460785077,-0.005775234266604645,-0.01839176780910101,-0.01806066526182981
90,-1.2765577754423236,-1.209744083159174,-1.2398908547846714,-1.1726934862587348,1.1726934862587348,-0.10386428918358881,-0.06719736852593661,-0.0668136922831497
91,-1.266154500605949,-1.1490410466855399,-1.2003418651440003,-1.0829275905015763,1.082927590501576,-0.18322691010437286,-0.11741427464242427,-0.11711345392040906
92,-1.0679861482289632,-0.8990900889802815,-1.1637562317067314,-0.9948799638298149,0.9948799638298147,-0.07310618439914851,-0.16887626787691667,-0.16889605924868167
93,-1.0814038409541682,-0.859314984250444,-1.1307286325016825,-0.9092808429411305,0.9092808429411305,-0.17212299801303765,-0.221447789560552,-0.22208885670372425
94,-1.0977637940715252,-0.8211530006558443,-1.1016659872058938,-0.8265752532529838,0.8265752532529839,-0.2711885408185414,-0.27509073395290995,-0.27661079341568096
95,-1.1168316562504996,-0.7844587702433872,-1.076810047790123,-0.7468844939735155,0.7468844939735155,-0.3699471622769841,-0.3299255538166075,-0.33237288600711246
96,-1.137823854448809,-0.7485450564062077,-1.0562528521875114,-0.6699961432281676,0.6699961432281674,-0.4678277112206417,-0.38625670895934405,-0.38927879804260135
97,-1.0548691625414641,-0.6076436457653871,-1.0398997658697873,-0.5953635246725866,0.5953635246725864,-0.45950563786887777,-0.4445362411972009,-0.447225516776077
98,-0.9527187436478539,-0.44661462420804154,-1.027380150469448,-0.522123729401702,0.522123729401702,-0.4305950142461519,-0.5052564210677459,-0.5061041194398124
99,-0.9723837899535652,-0.40658317280699374,-1.017961520072047,-0.44917246685961676,0.44917246685961665,-0.5232113230939486,-0.5687890532124305,-0.5658006171465715
100,-0.9905308719372354,-0.36433400932064286,-1.0105551312487107,-0.37533981040412884,0.37533981040412884,-0.6151910615331067,-0.6352153208445819,-0.6261968626165926
101,-1.0079639171805193,-0.32079241071591813,-1.0038820746872574,-0.2996779319903602,0.29967793199036025,-0.7082859851901591,-0.7042041426968972,-0.6871715064646011
102,-1.0260585623258898,-0.277457576582147,-0.9967981967096338,-0.22180767549680552,0.22180767549680547,-0.8042508868290843,-0.7749905212128283,-0.7486009857437428
104,-1.0462195719262848,-0.17389441888599544,-0.9886854085968302,-0.1422075575342316,0.1422075575342316,-0.9040120143920531,-0.8464778510625985,-0.8723251530402893
105,-1.0693204331738868,-0.13494977474506653,-0.9797555148826325,-0.062307523450901514,0.0623075234509015,-1.0070129097229854,-0.917447991431731,-0.9343706584288203
106,-0.9338899854412586,0.062484583329357246,-0.9711195420169416,0.015704924800486415,-0.01570492480048641,-0.9495949102417449,-0.986824466817428,-0.9963745687706158
107,-0.8954357491612173,0.16278128946376946,-0.9645541449904829,0.0893582268948785,-0.08935822689487852,-0.9847939760560958,-1.0539123718853614,-1.0582170386249867
108,-0.9238731687119559,0.19590852497969147,-0.9620120728325657,0.15653057409150972,-0.1565305740915097,-1.0804037428034656,-1.1185426469240753,-1.1197816936916474
109,-0.9510365663835527,0.22991983382380665,-0.9650213990661431,0.21605611741079114,-0.21605611741079117,-1.1670926837943438,-1.1810775164769343,-1.1809564002073594
110,-0.9755544680662633,0.2660794855344095,-0.9741550435299013,0.2681225572936895,-0.26812255729368945,-1.2436770253599527,-1.2422776008235907,-1.2416339536006729
111,-0.9966371212734066,0.30507555849580825,-0.9887186218513015,0.3143552352323625,-0.3143552352323626,-1.3109923565057693,-1.3030738570836642,-1.301712679769215
112,-1.0140338825997353,0.34706306197051906,-1.0067262071783036,0.35758827003798777,-0.3575882700379879,-1.3716221526377232,-1.3643144772162916,-1.3610969445702543
113,-1.0277785661234664,0.39191900317354955,-1.0251515885897224,0.4014079902283548,-0.4014079902283548,-1.4291865563518211,-1.4265595788180772,-1.419697569297016
114,-1.0379220596504073,0.43951009233184024,-1.0403897130820678,0.44958569592598896,-0.44958569592598907,-1.4875077555763965,-1.489975409008057,-1.4774321519822475
115,-1.0444349792179832,0.4897903170532951,-1.048845741378966,0.50549813377024,-0.50549813377024,-1.5499331129882232,-1.554343875149206,-1.5342252962712783
117,-1.047321708705455,0.597399758702279,-1.0475698977688637,0.571596342730325,-0.571596342730325,-1.61891805143578,-1.6191662404991887,-1.644721467407734
118,-1.0468229480381837,0.6514866258248193,-1.0348507250489067,0.6489638881307089,-0.6489638881307089,-1.6957868361688926,-1.6838146131796157,-1.698309573863003
119,-1.0435226992991946,0.7072035860515145,-1.0106597403046136,0.7370188585204784,-0.7370188585204782,-1.7805415578196728,-1.7476785988250918,-1.750726285350709
120,-1.0382609460127683,0.7636707990262175,-0.9768239330550733,0.8334429146160398,-0.8334429146160398,-1.8717038606288081,-1.8102668476711132,-1.8019317450389858
121,-1.0319098481785705,0.819982963913964,-0.936818930248718,0.9344283620916718,-0.9344283620916719,-1.9663382102702425,-1.87124729234039,-1.8518928120925344
123,-0.7972497405851817,1.1507314460497422,-0.8951468346357421,1.035287992479274,-1.0352879924792737,-1.8325377330644554,-1.9304348271150158,-1.947981186634924
124,-0.7905904826182684,1.2034827828588774,-0.8563833161832155,1.1313677832445312,-1.1313677832445312,-1.9219582658627996,-1.9877510994277467,-1.9940732654771458
125,-0.7843330812478033,1.2545167283602936,-0.8241097213165758,1.2190734428316767,-1.219073442831677,-2.0034065240794803,-2.0431831641482527,-2.038849809608097
126,-0.7787673726472559,1.3035393187546238,-0.8000295755384097,1.2967282947404726,-1.2967282947404724,-2.0754956673877283,-2.096757870278882,-2.0823066914018797
128,-0.7741883704982786,1.391079798904318,-0.7835554108644143,1.3649785619462824,-1.3649785619462826,-2.139166932444561,-2.148533972810697,-2.1652681694025966
129,-0.7708247332367233,1.4339618314380795,-0.7720295969317709,1.426572339866525,-1.4265723398665253,-2.1973970731032484,-2.1986019367982963,-2.204786564674803
130,-0.768728575857133,1.4742835540744195,-0.7615464031920294,1.4855314058342646,-1.485531405834265,-2.2542599816913977,-2.2470778090262944,-2.2430121299315524
131,-0.767729054542055,1.5122314481973511,-0.7481400349998202,1.545943253546475,-1.5459432535464752,-2.31367230808853,-2.2940832885462954,-2.279960502739406
133,-0.7675025241504041,1.5825995373452544,-0.7289720099584587,1.6107429157429984,-1.6107429157429987,-2.3782454398934028,-2.3397149257014576,-2.3501020614956585
134,-0.767725224146534,1.6156141214618558,-0.7031446712702712,1.6808698076024982,-1.6808698076024984,-2.4485950317490324,-2.3840144788727695,-2.38333934560839
135,-0.7682130303578174,1.6471739655491362,-0.6718923548604345,1.7550622349910556,-1.7550622349910558,-2.5232752653488735,-2.4269545898514906,-2.4153869959069536
137,-0.5410334946641666,1.9349873939898883,-0.6381134276900811,1.8303346488934098,-1.8303346488934096,-2.371368143557576,-2.4684480765834906,-2.476020888654055
138,-0.5420824481956682,1.9625814126477912,-0.6054279986629272,1.9029506844964053,-1.9029506844964055,-2.445033132692074,-2.5083786831593327,-2.5046638608434595
140,-0.5433891333696137,2.0153610052257234,-0.5770986817650476,1.9695425705129508,-1.9695425705129503,-2.512931703882564,-2.5466412522779978,-2.558750138595337
141,-0.5446871553735798,2.039567298647573,-0.5551823936981428,2.0279926739795004,-2.0279926739795,-2.57267982935308,-2.583175067677643,-2.5842544540211527
142,-0.5455594175632144,2.063214653008907,-0.5401809370772626,2.07779677542183,-2.0777967754218305,-2.623356192985045,-2.6179777124990933,-2.6087740705721214
144,-0.5456766984780934,2.109306566149168,-0.5312677296125037,2.1198284083819203,-2.11982840838192,-2.6655051068600133,-2.651096137994424,-2.6549832646272615
145,-0.5450659823200601,2.1316686247023764,-0.5269598579575289,2.1556419973913785,-2.1556419973913785,-2.7007079797114386,-2.6826018553489073,-2.6767346070224365
147,-0.5442052461911879,2.173477974618863,-0.5259541519053545,2.18660918815129,-2.186609188151289,-2.730814434342477,-2.7125633400566436,-2.7176832208100508
148,-0.5438340359099371,2.1931062475433625,-0.5278038759817119,2.213224550973748,-2.2132245509737474,-2.7570585868836845,-2.7410284269554595,-2.7369402834532996
150,-0.5445669123901469,2.2285986250356355,-0.5331879459429314,2.2348355708954855,-2.2348355708954863,-2.779402483285633,-2.7680235168384177,-2.773165537425782
151,-0.5465563359308139,2.243633849717626,-0.5436837927258575,2.2498839829420043,-2.2498839829420048,-2.7964403188728184,-2.7935677756678623,-2.79019018564844
153,-0.5494438257015273,2.2727558388846645,-0.5611356790483463,2.256557831724101,-2.256557831724101,-2.8060016574256283,-2.8176935107724472,-2.8221996645861918
154,-0.5526500324923769,2.2845867850858124,-0.5868453036736409,2.253616400468405,-2.253616400468405,-2.806266432960782,-2.840461704142046,-2.837236817578189
156,-0.5558177746708397,2.309683397254421,-0.6208582856508562,2.2411065122424056,-2.241106512242406,-2.796924286913246,-2.861964797893262,-2.8655011719252608
157,-0.5779152508390476,2.300860926155094,-0.6615726865310927,2.220742568070834,-2.2207425680708335,-2.798657818909881,-2.8823152546019264,-2.878776176994142
