frequency,raw,error,smoothed,error_smoothed,equalization,parametric_eq,equalized_raw,equalized_smoothed,target
20,-49.32,-47.52,-49.38,-47.57,6.00,6.16,-43.32,-43.38,-1.80
21,-48.39,-46.55,-48.27,-46.43,6.00,6.31,-42.39,-42.27,-1.84
22,-47.18,-45.30,-47.16,-45.28,6.00,6.33,-41.18,-41.16,-1.88
23,-46.01,-44.10,-46.06,-44.15,6.00,6.28,-40.01,-40.06,-1.92
24,-44.78,-42.83,-44.97,-43.01,6.00,6.21,-38.78,-38.97,-1.95
25,-43.80,-41.81,-43.88,-41.89,6.00,6.17,-37.80,-37.88,-1.99
26,-42.78,-40.76,-42.79,-40.77,6.00,6.16,-36.78,-36.79,-2.02
27,-41.78,-39.73,-41.70,-39.64,6.00,6.16,-35.78,-35.70,-2.06
28,-40.82,-38.73,-40.61,-38.51,6.00,6.19,-34.82,-34.61,-2.09
29,-39.78,-37.66,-39.50,-37.37,6.00,6.23,-33.78,-33.50,-2.12
30,-38.29,-36.14,-38.39,-36.23,6.00,6.27,-32.29,-32.39,-2.16
31,-37.09,-34.91,-37.28,-35.09,6.00,6.32,-31.09,-31.28,-2.19
32,-36.20,-33.99,-36.20,-33.98,6.00,6.37,-30.20,-30.20,-2.22
33,-35.40,-33.16,-35.17,-32.92,6.00,6.43,-29.40,-29.17,-2.25
34,-34.34,-32.07,-34.20,-31.93,6.00,6.48,-28.34,-28.20,-2.28
35,-33.22,-30.92,-33.34,-31.03,6.00,6.53,-27.22,-27.34,-2.30
36,-32.24,-29.91,-32.59,-30.26,6.00,6.57,-26.24,-26.59,-2.33
37,-31.51,-29.16,-31.96,-29.60,6.00,6.62,-25.51,-25.96,-2.36
38,-31.23,-28.85,-31.44,-29.06,6.00,6.66,-25.23,-25.44,-2.38
39,-31.20,-28.80,-31.04,-28.63,6.00,6.70,-25.20,-25.04,-2.41
40,-31.01,-28.58,-30.73,-28.30,6.00,6.73,-25.01,-24.73,-2.43
41,-30.72,-28.27,-30.49,-28.04,6.00,6.76,-24.72,-24.49,-2.45
42,-30.19,-27.72,-30.29,-27.82,6.00,6.79,-24.19,-24.29,-2.47
43,-29.72,-27.23,-30.11,-27.61,6.00,6.82,-23.72,-24.11,-2.49
44,-29.63,-27.12,-29.90,-27.39,6.00,6.84,-23.63,-23.90,-2.51
45,-29.86,-27.34,-29.65,-27.12,6.00,6.86,-23.86,-23.65,-2.53
46,-29.76,-27.22,-29.33,-26.79,6.00,6.87,-23.76,-23.33,-2.54
47,-29.29,-26.74,-28.94,-26.39,6.00,6.89,-23.29,-22.94,-2.55
48,-28.67,-26.11,-28.48,-25.91,6.00,6.90,-22.67,-22.48,-2.56
49,-27.98,-25.41,-27.95,-25.37,6.00,6.90,-21.98,-21.95,-2.57
50,-27.24,-24.66,-27.37,-24.79,6.00,6.91,-21.24,-21.37,-2.58
51,-26.61,-24.03,-26.78,-24.19,6.00,6.91,-20.61,-20.78,-2.58
52,-26.05,-23.47,-26.19,-23.60,6.00,6.91,-20.05,-20.19,-2.59
53,-25.49,-22.91,-25.63,-23.04,6.00,6.91,-19.49,-19.63,-2.59
54,-25.04,-22.46,-25.11,-22.52,6.00,6.90,-19.04,-19.11,-2.59
55,-24.61,-22.03,-24.64,-22.06,6.00,6.90,-18.61,-18.64,-2.58
56,-24.31,-21.74,-24.23,-21.65,6.00,6.89,-18.31,-18.23,-2.58
57,-24.01,-21.45,-23.86,-21.30,6.00,6.88,-18.01,-17.86,-2.57
58,-23.64,-21.09,-23.55,-21.00,6.00,6.86,-17.64,-17.55,-2.56
59,-23.22,-20.68,-23.30,-20.75,6.00,6.85,-17.22,-17.30,-2.55
60,-22.92,-20.39,-23.09,-20.56,6.00,6.83,-16.92,-17.09,-2.53
61,-22.78,-20.27,-22.94,-20.42,6.00,6.81,-16.78,-16.94,-2.52
62,-22.80,-20.31,-22.83,-20.33,6.00,6.79,-16.80,-16.83,-2.50
63,-22.79,-20.32,-22.77,-20.30,6.00,6.77,-16.79,-16.77,-2.48
64,-22.86,-20.41,-22.75,-20.30,6.00,6.75,-16.86,-16.75,-2.46
65,-22.83,-20.40,-22.77,-20.33,6.00,6.73,-16.83,-16.77,-2.43
66,-22.87,-20.47,-22.81,-20.40,6.00,6.70,-16.87,-16.81,-2.41
67,-22.84,-20.46,-22.87,-20.48,6.00,6.67,-16.84,-16.87,-2.38
68,-22.87,-20.52,-22.95,-20.59,6.00,6.65,-16.87,-16.95,-2.36
69,-22.96,-20.63,-23.04,-20.71,6.00,6.62,-16.96,-17.04,-2.33
70,-23.08,-20.78,-23.14,-20.84,6.00,6.59,-17.08,-17.14,-2.30
71,-23.21,-20.94,-23.24,-20.97,6.00,6.56,-17.21,-17.24,-2.27
72,-23.34,-21.10,-23.34,-21.09,6.00,6.53,-17.34,-17.34,-2.25
73,-23.45,-21.24,-23.41,-21.19,6.00,6.49,-17.45,-17.41,-2.22
74,-23.56,-21.37,-23.46,-21.26,6.00,6.46,-17.56,-17.46,-2.19
75,-23.55,-21.39,-23.46,-21.30,6.00,6.43,-17.55,-17.46,-2.16
76,-23.51,-21.38,-23.43,-21.30,6.00,6.39,-17.51,-17.43,-2.14
77,-23.42,-21.32,-23.37,-21.26,6.00,6.36,-17.42,-17.37,-2.11
78,-23.26,-21.18,-23.27,-21.18,6.00,6.32,-17.26,-17.27,-2.08
79,-23.10,-21.05,-23.15,-21.09,6.00,6.29,-17.10,-17.15,-2.06
80,-22.97,-20.94,-23.03,-20.99,6.00,6.25,-16.97,-17.03,-2.03
81,-22.87,-20.86,-22.91,-20.90,6.00,6.22,-16.87,-16.91,-2.01
82,-22.78,-20.80,-22.80,-20.81,6.00,6.18,-16.78,-16.80,-1.99
83,-22.69,-20.73,-22.72,-20.75,6.00,6.15,-16.69,-16.72,-1.97
84,-22.65,-20.71,-22.66,-20.71,6.00,6.11,-16.65,-16.66,-1.95
85,-22.62,-20.70,-22.63,-20.70,6.00,6.08,-16.62,-16.63,-1.93
86,-22.60,-20.69,-22.63,-20.72,6.00,6.04,-16.60,-16.63,-1.91
87,-22.64,-20.75,-22.66,-20.77,6.00,6.01,-16.64,-16.66,-1.90
88,-22.69,-20.81,-22.72,-20.84,6.00,5.98,-16.69,-16.72,-1.88
89,-22.80,-20.94,-22.79,-20.93,6.00,5.94,-16.80,-16.79,-1.87
90,-22.88,-21.03,-22.89,-21.04,6.00,5.91,-16.88,-16.89,-1.85
91,-22.96,-21.12,-23.00,-21.16,6.00,5.88,-16.96,-17.00,-1.84
92,-23.07,-21.24,-23.12,-21.28,6.00,5.85,-17.07,-17.12,-1.83
93,-23.16,-21.34,-23.23,-21.41,6.00,5.83,-17.16,-17.23,-1.82
94,-23.31,-21.50,-23.33,-21.51,6.00,5.80,-17.31,-17.33,-1.82
95,-23.38,-21.58,-23.40,-21.59,6.00,5.78,-17.38,-17.40,-1.81
96,-23.46,-21.66,-23.41,-21.61,6.00,5.76,-17.46,-17.41,-1.80
97,-23.39,-21.60,-23.36,-21.57,6.00,5.75,-17.39,-17.36,-1.80
98,-23.27,-21.48,-23.23,-21.44,6.00,5.73,-17.27,-17.23,-1.79
99,-23.03,-21.25,-23.00,-21.21,6.00,5.73,-17.03,-17.00,-1.79
100,-22.77,-20.99,-22.67,-20.88,6.00,5.72,-16.77,-16.67,-1.78
101,-22.44,-20.67,-22.24,-20.46,6.00,5.72,-16.44,-16.24,-1.78
102,-22.03,-20.26,-21.72,-19.95,6.00,5.73,-16.03,-15.72,-1.77
104,-20.91,-19.14,-21.14,-19.37,6.00,5.75,-14.91,-15.14,-1.77
105,-20.33,-18.57,-20.50,-18.73,6.00,5.77,-14.33,-14.50,-1.77
106,-19.72,-17.96,-19.83,-18.07,6.00,5.80,-13.72,-13.83,-1.76
107,-19.05,-17.29,-19.14,-17.39,6.00,5.83,-13.05,-13.14,-1.76
108,-18.42,-16.67,-18.46,-16.70,6.00,5.87,-12.42,-12.46,-1.76
109,-17.77,-16.02,-17.76,-16.01,6.00,5.92,-11.77,-11.76,-1.75
110,-17.08,-15.33,-17.07,-15.32,6.00,5.97,-11.08,-11.07,-1.75
111,-16.33,-14.59,-16.37,-14.63,6.00,6.03,-10.33,-10.37,-1.75
112,-15.67,-13.93,-15.66,-13.92,6.00,6.08,-9.67,-9.66,-1.74
113,-15.01,-13.27,-14.94,-13.20,6.00,6.14,-9.01,-8.94,-1.74
114,-14.35,-12.61,-14.20,-12.46,6.00,6.20,-8.35,-8.20,-1.74
115,-13.70,-11.97,-13.46,-11.72,6.00,6.25,-7.70,-7.46,-1.74
117,-12.40,-10.67,-12.71,-10.97,6.00,6.31,-6.40,-6.71,-1.73
118,-11.80,-10.07,-11.96,-10.23,6.00,6.31,-5.80,-5.96,-1.73
119,-11.19,-9.46,-11.24,-9.51,6.00,6.29,-5.19,-5.24,-1.73
120,-10.60,-8.88,-10.53,-8.80,6.00,6.24,-4.60,-4.53,-1.73
121,-10.08,-8.36,-9.85,-8.12,6.00,6.16,-4.08,-3.85,-1.73
123,-8.97,-7.25,-9.20,-7.47,6.00,5.91,-2.97,-3.20,-1.73
124,-8.49,-6.77,-8.57,-6.85,5.92,5.75,-2.57,-2.65,-1.72
125,-8.04,-6.32,-7.98,-6.26,5.78,5.55,-2.26,-2.20,-1.72
126,-7.58,-5.86,-7.42,-5.70,5.59,5.34,-2.00,-1.83,-1.72
128,-6.69,-4.97,-6.88,-5.16,5.00,4.86,-1.69,-1.88,-1.72
129,-6.29,-4.57,-6.37,-4.65,4.61,4.60,-1.68,-1.76,-1.72
130,-5.91,-4.19,-5.88,-4.16,4.16,4.33,-1.75,-1.72,-1.72
131,-5.57,-3.86,-5.41,-3.69,3.69,4.06,-1.88,-1.72,-1.72
133,-4.86,-3.15,-4.96,-3.24,3.24,3.51,-1.62,-1.72,-1.72
134,-4.51,-2.80,-4.52,-2.81,2.81,3.23,-1.71,-1.71,-1.71
135,-4.22,-2.51,-4.10,-2.39,2.39,2.96,-1.84,-1.71,-1.71
137,-3.70,-1.99,-3.69,-1.98,1.98,2.40,-1.72,-1.71,-1.71
138,-3.27,-1.57,-3.30,-1.60,1.60,2.12,-1.68,-1.71,-1.71
140,-2.77,-1.07,-2.93,-1.23,1.23,1.57,-1.54,-1.70,-1.70
141,-2.60,-0.91,-2.59,-0.89,0.89,1.29,-1.72,-1.70,-1.70
142,-2.37,-0.68,-2.26,-0.57,0.57,1.02,-1.81,-1.69,-1.69
144,-1.90,-0.22,-1.96,-0.27,0.27,0.49,-1.63,-1.69,-1.69
145,-1.73,-0.05,-1.68,0.00,-0.00,0.24,-1.73,-1.68,-1.68
147,-1.37,0.30,-1.43,0.25,-0.25,-0.24,-1.62,-1.67,-1.67
148,-1.23,0.43,-1.20,0.47,-0.47,-0.45,-1.70,-1.67,-1.67
150,-0.93,0.73,-0.99,0.67,-0.67,-0.83,-1.60,-1.66,-1.66
151,-0.83,0.82,-0.81,0.84,-0.84,-0.99,-1.68,-1.65,-1.65
153,-0.62,1.02,-0.65,0.99,-0.99,-1.23,-1.62,-1.65,-1.65
154,-0.53,1.11,-0.52,1.12,-1.12,-1.32,-1.66,-1.64,-1.64
156,-0.37,1.26,-0.40,1.23,-1.23,-1.43,-1.60,-1.63,-1.63
157,-0.32,1.30,-0.31,1.32,-1.32,-1.46,-1.64,-1.63,-1.63
159,-0.22,1.40,-0.23,1.39,-1.39,-1.49,-1.62,-1.62,-1.62
160,-0.20,1.41,-0.16,1.45,-1.45,-1.49,-1.66,-1.62,-1.62
162,-0.10,1.51,-0.11,1.50,-1.50,-1.47,-1.61,-1.61,-1.61
164,-0.03,1.58,-0.07,1.54,-1.54,-1.44,-1.58,-1.61,-1.61
165,-0.05,1.55,-0.03,1.57,-1.57,-1.43,-1.63,-1.61,-1.61
167,-0.01,1.59,-0.01,1.60,-1.60,-1.41,-1.62,-1.61,-1.61
169,0.05,1.65,0.02,1.62,-1.62,-1.40,-1.58,-1.61,-1.61
170,0.04,1.64,0.04,1.64,-1.64,-1.41,-1.61,-1.61,-1.61
172,0.01,1.62,0.05,1.66,-1.66,-1.43,-1.66,-1.61,-1.61
174,0.08,1.69,0.07,1.68,-1.68,-1.46,-1.61,-1.61,-1.61
175,0.07,1.68,0.09,1.70,-1.70,-1.48,-1.64,-1.62,-1.62
177,0.14,1.76,0.10,1.73,-1.73,-1.54,-1.59,-1.62,-1.62
179,0.13,1.75,0.12,1.75,-1.75,-1.60,-1.63,-1.63,-1.63
181,0.14,1.77,0.15,1.78,-1.78,-1.68,-1.65,-1.63,-1.63
183,0.20,1.84,0.17,1.81,-1.81,-1.76,-1.62,-1.64,-1.64
184,0.17,1.82,0.20,1.85,-1.85,-1.81,-1.69,-1.65,-1.65
186,0.25,1.90,0.24,1.89,-1.89,-1.90,-1.65,-1.66,-1.66
188,0.27,1.93,0.28,1.94,-1.94,-2.00,-1.68,-1.67,-1.67
190,0.32,1.99,0.32,2.00,-2.00,-2.10,-1.68,-1.67,-1.67
192,0.38,2.06,0.37,2.05,-2.05,-2.21,-1.68,-1.68,-1.68
194,0.43,2.12,0.43,2.12,-2.12,-2.32,-1.69,-1.69,-1.69
196,0.50,2.19,0.48,2.18,-2.18,-2.43,-1.69,-1.70,-1.70
198,0.55,2.25,0.54,2.25,-2.25,-2.54,-1.71,-1.71,-1.71
200,0.61,2.32,0.61,2.32,-2.32,-2.65,-1.72,-1.72,-1.72
202,0.68,2.40,0.67,2.40,-2.40,-2.77,-1.72,-1.72,-1.72
204,0.73,2.46,0.74,2.47,-2.47,-2.88,-1.74,-1.73,-1.73
206,0.84,2.57,0.81,2.55,-2.55,-2.99,-1.71,-1.74,-1.74
208,0.87,2.61,0.88,2.63,-2.63,-3.10,-1.76,-1.74,-1.74
210,0.94,2.69,0.96,2.71,-2.71,-3.21,-1.77,-1.75,-1.75
212,1.07,2.82,1.04,2.79,-2.79,-3.31,-1.73,-1.76,-1.76
214,1.10,2.86,1.12,2.88,-2.88,-3.41,-1.78,-1.76,-1.76
216,1.18,2.94,1.20,2.97,-2.97,-3.51,-1.79,-1.76,-1.76
218,1.29,3.05,1.29,3.05,-3.05,-3.61,-1.77,-1.77,-1.77
221,1.41,3.18,1.37,3.14,-3.14,-3.75,-1.73,-1.77,-1.77
223,1.47,3.24,1.45,3.22,-3.22,-3.84,-1.75,-1.77,-1.77
225,1.54,3.31,1.53,3.30,-3.30,-3.92,-1.76,-1.77,-1.77
227,1.57,3.33,1.60,3.37,-3.37,-4.00,-1.80,-1.77,-1.77
229,1.69,3.45,1.67,3.44,-3.44,-4.08,-1.75,-1.77,-1.77
232,1.74,3.50,1.74,3.50,-3.50,-4.18,-1.77,-1.76,-1.76
234,1.82,3.57,1.80,3.56,-3.56,-4.24,-1.75,-1.76,-1.76
236,1.84,3.59,1.86,3.61,-3.61,-4.30,-1.78,-1.75,-1.75
239,1.94,3.68,1.92,3.66,-3.66,-4.38,-1.72,-1.74,-1.74
241,1.97,3.70,1.97,3.70,-3.70,-4.42,-1.73,-1.73,-1.73
244,2.05,3.77,2.01,3.73,-3.73,-4.48,-1.69,-1.72,-1.73
246,2.05,3.76,2.05,3.76,-3.76,-4.51,-1.72,-1.71,-1.71
248,2.06,3.76,2.08,3.78,-3.78,-4.54,-1.73,-1.70,-1.70
251,2.11,3.80,2.11,3.80,-3.80,-4.57,-1.70,-1.69,-1.69
253,2.12,3.79,2.14,3.81,-3.81,-4.59,-1.70,-1.68,-1.68
256,2.17,3.83,2.16,3.82,-3.82,-4.60,-1.66,-1.66,-1.66
259,2.20,3.85,2.17,3.82,-3.82,-4.61,-1.63,-1.65,-1.65
261,2.20,3.83,2.19,3.82,-3.82,-4.60,-1.63,-1.64,-1.64
264,2.20,3.82,2.20,3.82,-3.82,-4.59,-1.62,-1.62,-1.62
266,2.20,3.80,2.20,3.81,-3.81,-4.58,-1.62,-1.61,-1.61
269,2.22,3.81,2.21,3.80,-3.80,-4.55,-1.59,-1.59,-1.59
272,2.23,3.80,2.22,3.79,-3.79,-4.51,-1.57,-1.58,-1.58
274,2.23,3.79,2.23,3.79,-3.79,-4.48,-1.56,-1.56,-1.56
277,2.23,3.77,2.24,3.78,-3.78,-4.44,-1.56,-1.55,-1.55
280,2.23,3.76,2.25,3.78,-3.78,-4.38,-1.56,-1.53,-1.53
283,2.24,3.75,2.27,3.78,-3.78,-4.32,-1.55,-1.51,-1.51
286,2.31,3.81,2.29,3.79,-3.79,-4.25,-1.48,-1.50,-1.50
288,2.34,3.82,2.31,3.79,-3.79,-4.21,-1.46,-1.49,-1.48
291,2.34,3.81,2.33,3.80,-3.80,-4.13,-1.46,-1.47,-1.47
294,2.36,3.81,2.35,3.81,-3.81,-4.06,-1.45,-1.46,-1.46
297,2.36,3.80,2.37,3.81,-3.81,-3.98,-1.45,-1.44,-1.44
300,2.37,3.79,2.38,3.81,-3.81,-3.89,-1.44,-1.43,-1.43
303,2.40,3.81,2.39,3.80,-3.80,-3.81,-1.41,-1.42,-1.42
306,2.40,3.80,2.39,3.80,-3.80,-3.72,-1.40,-1.40,-1.40
309,2.40,3.79,2.40,3.78,-3.78,-3.63,-1.39,-1.39,-1.39
312,2.40,3.77,2.39,3.77,-3.77,-3.54,-1.37,-1.38,-1.38
316,2.38,3.74,2.38,3.75,-3.75,-3.42,-1.37,-1.37,-1.37
319,2.36,3.71,2.37,3.72,-3.72,-3.33,-1.36,-1.35,-1.35
322,2.36,3.70,2.35,3.69,-3.69,-3.23,-1.33,-1.34,-1.34
325,2.34,3.67,2.32,3.65,-3.65,-3.14,-1.31,-1.33,-1.33
328,2.29,3.61,2.28,3.60,-3.60,-3.05,-1.32,-1.32,-1.32
332,2.22,3.53,2.24,3.55,-3.55,-2.93,-1.33,-1.31,-1.31
335,2.22,3.52,2.19,3.49,-3.49,-2.84,-1.28,-1.30,-1.30
338,2.12,3.41,2.14,3.43,-3.43,-2.75,-1.31,-1.29,-1.29
342,2.08,3.36,2.08,3.36,-3.36,-2.63,-1.28,-1.28,-1.28
345,2.05,3.32,2.01,3.29,-3.29,-2.54,-1.24,-1.27,-1.27
349,1.93,3.19,1.95,3.21,-3.21,-2.42,-1.29,-1.27,-1.27
352,1.90,3.15,1.88,3.14,-3.14,-2.33,-1.24,-1.26,-1.26
356,1.78,3.03,1.81,3.06,-3.06,-2.22,-1.29,-1.25,-1.25
359,1.75,2.99,1.75,2.99,-2.99,-2.14,-1.24,-1.24,-1.24
363,1.71,2.94,1.68,2.92,-2.92,-2.03,-1.21,-1.24,-1.24
366,1.60,2.83,1.61,2.84,-2.84,-1.95,-1.25,-1.23,-1.23
370,1.56,2.78,1.55,2.77,-2.77,-1.84,-1.22,-1.23,-1.23
374,1.47,2.69,1.48,2.70,-2.70,-1.74,-1.24,-1.22,-1.22
377,1.45,2.66,1.42,2.64,-2.64,-1.66,-1.19,-1.22,-1.22
381,1.37,2.58,1.36,2.57,-2.57,-1.56,-1.21,-1.21,-1.21
385,1.30,2.50,1.30,2.51,-2.51,-1.47,-1.22,-1.21,-1.21
389,1.25,2.45,1.25,2.46,-2.46,-1.37,-1.21,-1.21,-1.21
393,1.19,2.39,1.21,2.41,-2.41,-1.28,-1.22,-1.20,-1.20
397,1.15,2.35,1.17,2.37,-2.37,-1.19,-1.22,-1.20,-1.20
401,1.11,2.30,1.14,2.33,-2.33,-1.10,-1.23,-1.20,-1.20
405,1.13,2.32,1.11,2.30,-2.30,-1.02,-1.17,-1.19,-1.19
409,1.08,2.27,1.08,2.27,-2.27,-0.94,-1.19,-1.19,-1.19
413,1.07,2.25,1.05,2.24,-2.24,-0.86,-1.17,-1.18,-1.19
417,1.00,2.18,1.02,2.20,-2.20,-0.78,-1.20,-1.18,-1.18
421,0.96,2.13,0.97,2.15,-2.15,-0.70,-1.19,-1.17,-1.17
425,0.95,2.11,0.92,2.08,-2.08,-0.63,-1.14,-1.17,-1.17
430,0.80,1.95,0.84,2.00,-2.00,-0.54,-1.20,-1.16,-1.16
434,0.74,1.89,0.73,1.88,-1.88,-0.47,-1.15,-1.15,-1.15
438,0.63,1.76,0.60,1.74,-1.74,-0.40,-1.11,-1.14,-1.14
443,0.48,1.60,0.43,1.56,-1.56,-0.31,-1.08,-1.13,-1.13
447,0.24,1.35,0.22,1.33,-1.33,-0.25,-1.10,-1.11,-1.11
451,0.08,1.17,-0.02,1.07,-1.07,-0.19,-1.00,-1.10,-1.10
456,-0.29,0.79,-0.31,0.77,-0.77,-0.11,-1.07,-1.08,-1.08
460,-0.58,0.48,-0.62,0.44,-0.44,-0.05,-1.03,-1.06,-1.06
465,-0.95,0.09,-0.96,0.09,-0.09,0.02,-1.04,-1.05,-1.05
470,-1.37,-0.35,-1.31,-0.28,0.28,0.09,-1.09,-1.03,-1.03
474,-1.66,-0.65,-1.67,-0.66,0.66,0.14,-1.00,-1.01,-1.01
479,-1.98,-0.99,-2.02,-1.03,1.03,0.20,-0.96,-0.99,-0.99
484,-2.34,-1.37,-2.35,-1.38,1.38,0.27,-0.97,-0.97,-0.97
489,-2.66,-1.71,-2.65,-1.69,1.69,0.33,-0.97,-0.95,-0.95
494,-2.93,-2.00,-2.91,-1.97,1.97,0.39,-0.96,-0.94,-0.94
499,-3.18,-2.27,-3.12,-2.20,2.20,0.44,-0.98,-0.92,-0.92
504,-3.34,-2.44,-3.28,-2.38,2.38,0.50,-0.97,-0.90,-0.90
509,-3.41,-2.53,-3.38,-2.50,2.50,0.55,-0.92,-0.89,-0.89
514,-3.46,-2.59,-3.43,-2.56,2.56,0.60,-0.90,-0.87,-0.87
519,-3.44,-2.59,-3.43,-2.58,2.58,0.65,-0.87,-0.86,-0.86
524,-3.41,-2.57,-3.39,-2.54,2.54,0.70,-0.87,-0.84,-0.84
529,-3.33,-2.51,-3.30,-2.48,2.48,0.74,-0.86,-0.83,-0.83
535,-3.16,-2.35,-3.20,-2.38,2.38,0.79,-0.78,-0.82,-0.82
540,-2.99,-2.19,-3.07,-2.27,2.27,0.84,-0.73,-0.80,-0.80
545,-2.93,-2.14,-2.93,-2.14,2.14,0.88,-0.79,-0.79,-0.79
551,-2.79,-2.02,-2.79,-2.02,2.02,0.93,-0.78,-0.78,-0.78
556,-2.67,-1.91,-2.66,-1.90,1.90,0.96,-0.78,-0.76,-0.76
562,-2.55,-1.81,-2.53,-1.79,1.79,1.01,-0.77,-0.75,-0.75
568,-2.39,-1.66,-2.42,-1.69,1.69,1.05,-0.70,-0.73,-0.73
573,-2.30,-1.59,-2.33,-1.62,1.62,1.08,-0.68,-0.71,-0.71
579,-2.25,-1.56,-2.26,-1.57,1.57,1.12,-0.69,-0.69,-0.69
585,-2.20,-1.53,-2.22,-1.54,1.54,1.16,-0.66,-0.67,-0.67
591,-2.17,-1.52,-2.19,-1.54,1.54,1.20,-0.63,-0.65,-0.65
596,-2.16,-1.54,-2.20,-1.57,1.57,1.23,-0.59,-0.63,-0.63
602,-2.22,-1.62,-2.23,-1.62,1.62,1.26,-0.60,-0.60,-0.60
608,-2.25,-1.68,-2.27,-1.69,1.69,1.29,-0.56,-0.58,-0.58
615,-2.34,-1.79,-2.33,-1.78,1.78,1.33,-0.56,-0.55,-0.55
621,-2.41,-1.89,-2.41,-1.89,1.89,1.36,-0.53,-0.52,-0.52
627,-2.50,-2.01,-2.49,-1.99,1.99,1.39,-0.51,-0.49,-0.49
633,-2.61,-2.15,-2.57,-2.11,2.11,1.42,-0.51,-0.47,-0.47
639,-2.68,-2.25,-2.66,-2.22,2.22,1.44,-0.46,-0.44,-0.44
646,-2.76,-2.35,-2.75,-2.34,2.34,1.47,-0.42,-0.41,-0.41
652,-2.82,-2.44,-2.84,-2.46,2.46,1.50,-0.36,-0.38,-0.38
659,-2.91,-2.56,-2.94,-2.58,2.58,1.52,-0.33,-0.36,-0.36
665,-3.00,-2.67,-3.05,-2.71,2.71,1.55,-0.29,-0.34,-0.34
672,-3.11,-2.80,-3.15,-2.84,2.84,1.57,-0.28,-0.31,-0.31
679,-3.23,-2.94,-3.26,-2.96,2.96,1.60,-0.27,-0.30,-0.30
686,-3.39,-3.12,-3.36,-3.08,3.08,1.62,-0.32,-0.28,-0.28
692,-3.45,-3.19,-3.45,-3.18,3.18,1.64,-0.27,-0.27,-0.26
699,-3.52,-3.27,-3.52,-3.27,3.27,1.66,-0.26,-0.25,-0.25
706,-3.60,-3.36,-3.57,-3.33,3.33,1.68,-0.28,-0.24,-0.24
713,-3.60,-3.37,-3.60,-3.36,3.36,1.70,-0.24,-0.24,-0.24
721,-3.59,-3.36,-3.59,-3.36,3.36,1.72,-0.24,-0.23,-0.23
728,-3.55,-3.32,-3.55,-3.32,3.32,1.74,-0.24,-0.23,-0.23
735,-3.50,-3.27,-3.47,-3.24,3.24,1.76,-0.26,-0.23,-0.23
742,-3.41,-3.18,-3.36,-3.13,3.13,1.78,-0.28,-0.23,-0.23
750,-3.24,-3.01,-3.22,-2.99,2.99,1.80,-0.26,-0.23,-0.23
757,-3.07,-2.84,-3.05,-2.81,2.81,1.81,-0.26,-0.24,-0.24
765,-2.85,-2.61,-2.86,-2.62,2.62,1.83,-0.23,-0.24,-0.24
773,-2.66,-2.42,-2.66,-2.41,2.41,1.85,-0.25,-0.24,-0.24
780,-2.47,-2.23,-2.45,-2.21,2.21,1.86,-0.27,-0.25,-0.25
788,-2.26,-2.01,-2.26,-2.01,2.01,1.88,-0.26,-0.25,-0.25
796,-2.02,-1.77,-2.09,-1.83,1.83,1.89,-0.19,-0.26,-0.26
804,-1.84,-1.59,-1.94,-1.68,1.68,1.91,-0.17,-0.26,-0.26
812,-1.75,-1.49,-1.81,-1.55,1.55,1.92,-0.20,-0.26,-0.26
820,-1.69,-1.43,-1.72,-1.46,1.46,1.94,-0.23,-0.26,-0.26
828,-1.62,-1.36,-1.66,-1.40,1.40,1.95,-0.23,-0.26,-0.26
837,-1.61,-1.35,-1.61,-1.35,1.35,1.97,-0.26,-0.26,-0.26
845,-1.62,-1.37,-1.58,-1.32,1.32,1.98,-0.30,-0.26,-0.26
853,-1.59,-1.34,-1.55,-1.30,1.30,1.99,-0.29,-0.25,-0.25
862,-1.55,-1.30,-1.52,-1.27,1.27,2.01,-0.28,-0.25,-0.25
871,-1.48,-1.24,-1.48,-1.24,1.24,2.03,-0.24,-0.24,-0.24
879,-1.35,-1.12,-1.43,-1.19,1.19,2.04,-0.16,-0.24,-0.24
888,-1.35,-1.13,-1.34,-1.12,1.12,2.05,-0.24,-0.23,-0.23
897,-1.24,-1.03,-1.23,-1.02,1.02,2.07,-0.23,-0.22,-0.22
906,-1.14,-0.94,-1.09,-0.88,0.88,2.08,-0.26,-0.20,-0.20
915,-1.00,-0.82,-0.91,-0.72,0.72,2.10,-0.29,-0.19,-0.19
924,-0.85,-0.68,-0.70,-0.53,0.53,2.12,-0.33,-0.17,-0.17
933,-0.60,-0.45,-0.48,-0.32,0.32,2.13,-0.28,-0.16,-0.16
943,-0.29,-0.16,-0.26,-0.12,0.12,2.15,-0.17,-0.14,-0.14
952,-0.00,0.11,-0.06,0.06,-0.06,2.17,-0.06,-0.12,-0.12
962,0.28,0.37,0.09,0.19,-0.19,2.19,0.09,-0.09,-0.09
971,0.38,0.45,0.19,0.26,-0.26,2.21,0.12,-0.07,-0.07
981,0.35,0.39,0.21,0.25,-0.25,2.23,0.09,-0.04,-0.04
991,0.22,0.23,0.15,0.17,-0.17,2.25,0.05,-0.01,-0.01
1001,-0.02,-0.04,0.03,0.01,-0.01,2.27,-0.04,0.02,0.02
1011,-0.22,-0.27,-0.16,-0.21,0.21,2.29,-0.01,0.05,0.05
1021,-0.46,-0.55,-0.40,-0.49,0.49,2.32,0.02,0.08,0.08
1031,-0.52,-0.64,-0.69,-0.81,0.81,2.34,0.28,0.12,0.12
1041,-1.11,-1.27,-1.00,-1.16,1.16,2.37,0.04,0.16,0.16
1052,-1.37,-1.57,-1.32,-1.52,1.52,2.40,0.15,0.20,0.20
1062,-1.54,-1.79,-1.65,-1.90,1.90,2.43,0.35,0.24,0.24
1073,-1.89,-2.18,-1.98,-2.26,2.26,2.46,0.37,0.29,0.29
1084,-2.20,-2.53,-2.27,-2.60,2.60,2.50,0.40,0.33,0.33
1094,-2.52,-2.90,-2.52,-2.90,2.90,2.53,0.37,0.38,0.38
1105,-2.77,-3.20,-2.71,-3.13,3.13,2.57,0.36,0.42,0.42
1116,-2.96,-3.44,-2.81,-3.28,3.28,2.61,0.32,0.47,0.47
1128,-3.08,-3.60,-2.82,-3.34,3.34,2.66,0.26,0.52,0.52
1139,-2.94,-3.51,-2.75,-3.32,3.32,2.70,0.37,0.57,0.57
1150,-2.71,-3.33,-2.60,-3.21,3.21,2.75,0.50,0.61,0.61
1162,-2.41,-3.07,-2.39,-3.05,3.05,2.81,0.64,0.66,0.66
1173,-2.12,-2.83,-2.16,-2.86,2.86,2.86,0.74,0.70,0.70
1185,-1.82,-2.57,-1.94,-2.68,2.68,2.92,0.86,0.75,0.75
1197,-1.59,-2.38,-1.76,-2.54,2.54,2.99,0.95,0.79,0.79
1209,-1.44,-2.27,-1.64,-2.47,2.47,3.06,1.02,0.82,0.82
1221,-1.51,-2.37,-1.61,-2.47,2.47,3.13,0.96,0.86,0.86
1233,-1.66,-2.56,-1.68,-2.57,2.57,3.21,0.90,0.89,0.89
1246,-1.86,-2.78,-1.83,-2.75,2.75,3.30,0.89,0.92,0.92
1258,-2.04,-2.99,-2.07,-3.02,3.02,3.39,0.98,0.95,0.95
1271,-2.38,-3.35,-2.39,-3.36,3.36,3.49,0.98,0.97,0.97
1283,-2.75,-3.74,-2.78,-3.77,3.77,3.58,1.01,0.99,0.99
1296,-3.21,-4.22,-3.22,-4.22,4.22,3.69,1.01,1.00,1.00
1309,-3.71,-4.73,-3.70,-4.71,4.71,3.81,1.00,1.01,1.02
1322,-4.22,-5.25,-4.21,-5.23,5.13,3.93,0.90,0.92,1.02
1335,-4.74,-5.77,-4.74,-5.77,5.45,4.06,0.70,0.71,1.03
1349,-5.29,-6.33,-5.28,-6.32,5.69,4.21,0.40,0.41,1.03
1362,-5.79,-6.83,-5.83,-6.86,5.85,4.35,0.05,0.02,1.03
1376,-6.33,-7.37,-6.36,-7.40,5.95,4.51,-0.38,-0.41,1.03
1390,-6.86,-7.90,-6.88,-7.91,6.00,4.68,-0.86,-0.88,1.03
1404,-7.37,-8.40,-7.36,-8.38,6.00,4.85,-1.37,-1.36,1.03
1418,-7.81,-8.84,-7.79,-8.81,6.00,5.02,-1.81,-1.79,1.03
1432,-8.21,-9.24,-8.16,-9.18,6.00,5.20,-2.21,-2.16,1.02
1446,-8.53,-9.56,-8.46,-9.48,6.00,5.39,-2.53,-2.46,1.02
1461,-8.74,-9.77,-8.69,-9.71,6.00,5.58,-2.74,-2.69,1.02
1475,-8.89,-9.92,-8.84,-9.86,6.00,5.77,-2.89,-2.84,1.02
