frequency,raw
10,-4.676731243910241
11,-3.733257092492453
12,-2.6594782915950184
13,-1.8006941601995958
14,-0.9423572824823956
15,-0.12174046701429209
16,0.4945129264974333
17,1.211144180863367
18,1.8555350211478325
19,2.4045668772607343
20,2.9751077152042322
21,3.3145019661256425
22,3.950106709660166
23,4.421201922630238
24,4.744784083455958
25,5.0623538109099995
26,5.456730335419269
27,5.9114348351375545
28,6.20773130629484
29,6.59480831178501
30,6.777484030237193
31,7.016479851740054
32,7.212009241749974
33,7.500360956108216
34,7.674159050416315
35,7.81696866542424
36,8.02936295037344
37,8.171626818201897
38,8.243868599480958
39,8.44193294118276
40,8.467985524055184
41,8.74842883686512
42,8.70460005554866
43,8.986711381082422
44,8.915208151462299
45,9.043427860505545
46,9.175369813547373
47,8.987298441922537
48,8.966585644508395
49,9.097366301550199
50,8.99187871648359
51,9.171916388261327
52,9.155235506972279
53,9.238890415616083
54,9.329429158732289
55,9.234265571585567
56,9.20088081519296
57,9.094350726248702
58,8.852305425192174
59,8.50980444228981
60,8.183050779969687
61,7.68162122447944
62,7.243467862081139
63,6.700533965457365
64,6.327835346150882
65,6.027669167805903
66,5.860976210643222
67,5.839105454953645
68,5.942573698411967
69,5.942986460272778
70,6.039044224053419
71,6.241539517479381
72,6.442986319595545
73,6.710067506750213
74,6.895023660138917
75,7.173453295264545
76,7.466323113855792
77,7.545651033343099
78,7.661473888926749
79,7.772313363527153
80,7.855830656917887
81,8.042154294266123
82,8.217033535119803
83,8.22599031791679
84,8.238550871786202
85,8.405212052092825
86,8.468587577178315
87,8.483179381432496
88,8.497112349776344
89,8.466509768607374
90,8.415254826523135
91,8.414975083686006
92,8.296393191132992
93,8.128001550630948
94,7.975900836860499
95,7.848775720706754
96,7.662298476834722
97,7.471908807373658
98,7.484656494618622
99,7.4322285227919
100,7.295415049373843
101,7.182833966945426
102,7.073186284351089
104,7.00666695822433
105,7.049771092216566
106,7.053444071162478
107,7.066768000300347
108,7.176603616951556
109,7.200914346261672
110,7.253003787176573
111,7.310249192441536
112,7.3027865908550895
113,7.211139835770976
114,7.17714593646619
115,7.164900388840699
117,7.15481714085409
118,7.147468241885316
119,7.1430435088615924
120,7.1412984148203025
121,7.141391749409695
123,7.100130064880267
124,7.041415194521618
125,7.040433884725327
126,7.039419084594239
128,6.842191048840076
129,6.792222454856371
130,6.726354952127493
131,6.568779752518922
133,6.327894764774553
134,6.197345794589817
135,6.089405146456017
137,5.926282792763776
138,5.852587157016383
140,5.746174422894096
141,5.756430253203795
142,5.758339854913868
144,5.665103153743224
145,5.687645510703121
147,5.7696115957785254
148,5.831714300874984
150,5.863262384985936
151,5.85407617497487
153,5.779506363623896
154,5.770348670864752
156,5.4278879978762005
157,5.292742293752423
159,4.967297987401291
160,4.779393745990252
162,4.429812807635183
164,4.289718251525474
165,4.240235780362907
167,4.318348974796117
169,4.416511609800042
170,4.499341801672414
172,4.50857599905214
174,4.541417022471698
175,4.59627290918963
177,4.5172289377498265
179,4.395044403213569
181,4.324504936564078
183,4.221703306387509
184,4.168211901314915
186,4.011108060341772
188,3.8549780566149403
190,3.5920160004990427
192,3.346490349273969
194,3.1921343839238965
196,2.9529196713121797
198,2.7749349780179813
200,2.6467603671589623
202,2.4237713043788656
204,2.238528576766993
206,2.0751141610280364
208,1.823671346731948
210,1.5870850685754663
212,1.4455257067467011
214,1.2249704346667585
216,0.9640456306637004
218,0.8298574769290257
221,0.4097640025475209
223,0.10498970520595563
225,-0.2577515287756782
227,-0.47136655390067705
229,-0.7348519814113983
232,-1.3710214093054822
234,-1.572663863635258
236,-1.8156183077470933
239,-2.2766998172778417
241,-2.583003841774418
244,-2.9429489819150203
246,-3.3075129886059376
248,-3.6866998380448237
251,-4.0289468657076775
253,-4.308669350229975
256,-4.749937297177862
259,-5.039657946331905
261,-5.315824348682081
264,-5.753241228220774
266,-5.945736421629607
269,-6.177313318270338
272,-6.290122845756237
274,-6.336629060779435
277,-6.259743676433063
280,-6.123808053329943
283,-6.0087745219059245
286,-5.846912987111575
288,-5.747666532220853
291,-5.591350620644652
294,-5.3853839523743146
297,-5.192409509312572
300,-4.939518808684241
303,-4.7677462889193665
306,-4.593041548608603
309,-4.318014321793189
312,-4.01082872693577
316,-3.792712351745205
319,-3.6449201910719475
322,-3.472653545301248
325,-3.193390275088967
328,-3.0061580736956173
332,-2.7700293754884413
335,-2.640278587175274
338,-2.5182846911137364
342,-2.340653819196751
345,-2.268284054754939
349,-2.087079094364901
352,-1.95888581502229
356,-1.8257604315703153
359,-1.700976751577258
363,-1.6381732462642287
366,-1.6238046458188964
370,-1.4674257915053417
374,-1.300912982395574
377,-1.1838965173551141
381,-1.1235026184059462
385,-0.9912194770095706
389,-0.9556303460385092
393,-0.8258261599051764
397,-0.6669126205057081
401,-0.5954087002171389
405,-0.509758848549509
409,-0.5026545254536243
413,-0.45563714300770153
417,-0.30412235440651925
421,-0.31098905228032336
425,-0.3176653645169423
430,-0.32086823658025576
434,-0.3181040401807671
438,-0.31124145681324533
443,-0.3026451824375873
447,-0.29362257077912
451,-0.28389203149796227
456,-0.2723519583174907
460,-0.25843365215405
465,-0.30618655609534606
470,-0.3278319090324988
474,-0.31315459109664756
479,-0.29871744470645467
484,-0.28217801629928774
489,-0.3112159307186162
494,-0.3455168850063006
499,-0.511486411890794
504,-0.6279806453561632
509,-0.7879359606454366
514,-1.227020904182662
519,-1.5412573838707297
524,-1.9022914870218819
529,-2.799397463059594
535,-3.4018823354202947
540,-4.244963748821799
545,-5.136387173262752
551,-6.021416429152815
556,-6.428452432629319
562,-5.834126957285811
568,-5.363493637586284
573,-5.074871734652844
579,-4.101775272628143
585,-3.2388056428183702
591,-2.729973254098407
596,-2.3473226183403613
602,-1.8965324900340366
608,-1.7028277184415095
615,-1.4354445317637812
621,-1.2034853838524782
627,-1.1060837431012076
633,-1.0128133564930093
639,-0.833663439752472
646,-0.7837604920919685
652,-0.7632244268171702
659,-0.6536971395286595
665,-0.6570195889714432
672,-0.6681944073008137
679,-0.680157783004455
686,-0.6866126231291472
692,-0.6040752554831217
699,-0.5732832552621829
706,-0.556784675653212
713,-0.5372403027241002
721,-0.5173928300027595
728,-0.5002435849325437
735,-0.48956442702878356
742,-0.48937092303796526
750,-0.44077364476582925
757,-0.42607638854149643
765,-0.45688971658325483
773,-0.4857594325633299
780,-0.5052057326776147
788,-0.4115099323553877
796,-0.4087387689636315
804,-0.40416197072753546
812,-0.38509033986065333
820,-0.3079203159838859
828,-0.1868329007147178
837,-0.18835087788242566
845,-0.14961290026076268
853,-0.194580005822937
862,-0.13980955917523463
871,-0.02626650169020639
879,-0.018261318456082698
888,-0.042508888721538796
897,-0.056031822920115104
906,-0.051606294440242007
915,-0.04736608906672668
924,-0.011240874119152977
933,0.038637615668832836
943,-0.027209652659384798
952,0.03835535466202655
962,0.10245984898104288
971,-0.08753903921278594
981,-0.2010020074584693
991,-0.08313696367370715
1001,0.00919121444976323
1011,-0.13963884994689124
1021,-0.23873844981156234
1031,-0.21774223134689397
1041,-0.3907533813111814
1052,-0.38886947033392794
1062,-0.22623342684072512
1073,-0.41628193123849355
1084,-0.4994582965013534
1094,-0.4547362584721206
1105,-0.5224505745232713
1116,-0.6115268265731557
1128,-0.6895556435520982
1139,-0.8032267784372427
1150,-0.9109360250189074
1162,-0.834277303641787
1173,-0.860706335582825
1185,-0.9602419514948402
1197,-1.175642336921383
1209,-1.0549080224041165
1221,-0.9013165108857497
1233,-1.0924482515312848
1246,-1.0023690930930527
1258,-0.757796068200776
1271,-0.6993897613408944
1283,-0.5850643038589003
1296,-0.43314292922659225
1309,-0.37802819228152806
1322,-0.27616277939361855
1335,-0.29180398375665684
1349,-0.19548648998770446
1362,0.07275909986786377
1376,0.32742071135419115
1390,0.47185526002865075
1404,0.6148788170796959
1418,0.5940568145764424
1432,0.6431083279811523
1446,0.8896180717952831
1461,0.9933875742997449
1475,1.0913804710196007
1490,1.186464756169146
1505,1.2784775765788812
1520,1.364273450487996
1535,1.477041217496664
1550,1.6436755694333947
1566,1.5476271549042964
1582,1.5008038527024445
1597,1.5475254253599102
1613,1.5995449440311167
1629,1.7712972627534826
1646,1.7591445734342952
1662,1.692155900345492
1679,1.7635549558270425
1696,1.838370851085175
1713,1.9195191180922038
1730,2.0103573582677723
1747,2.1832355529197165
1764,2.2044129700544124
1782,2.0182575025953757
1800,2.115961570170963
1818,1.8079392959856353
1836,1.76054009467892
1854,1.8435719371170718
1873,1.7193531668666426
1892,1.60338027456829
1911,1.4419043698051466
1930,1.1340630951131763
1949,0.9481262440316356
1969,0.9771650265944585
1988,1.0358961094847494
2008,1.1571878176746626
2028,1.3382410307889616
2048,1.594507605129544
2069,1.9983528827533714
2090,2.2781709391086205
2111,2.423885160117363
2132,2.524329580241141
2153,2.508036018136597
2175,2.6329983478264287
2196,2.8210544425291673
2218,2.9020759386116204
2240,2.861956744699909
2263,3.247542392726353
2285,3.3433260537837697
2308,3.320587169926246
2331,3.5929529815052623
2355,3.862032954083939
2378,4.281980219112892
2402,4.849071176747816
2426,5.694362189274455
2450,6.447057842492106
2475,7.16962704666665
2500,8.193993936747093
2525,9.103827415720794
2550,9.891772721379311
2575,10.646458767390264
2601,11.29618029886025
2627,11.771239119199688
2653,12.045168791020815
2680,12.281387807294063
2707,12.693490972948602
2734,12.906766169566488
2761,12.82072074165286
2789,12.895619167782712
2817,12.93821293931343
2845,12.97402704953322
2873,13.009483809402987
2902,13.070971544086769
2931,13.056814528722754
2960,13.086859770900018
2990,13.213584059859208
3020,13.44066636927205
3050,13.606027802255108
3080,13.740014419744202
3111,13.743102334353582
3142,13.905900677532921
3174,14.018163216833562
3206,14.078100679848493
3238,14.283153371449055
3270,14.43086650205299
3303,14.424226643863232
3336,14.457633556122673
3369,14.557949302496164
3403,14.528593053199943
3437,14.439919869014656
3471,14.547668683901115
3506,14.511289381547575
3541,14.461177570013929
3576,14.391352898217974
3612,14.383562683293762
3648,14.122149647346502
3685,13.993464753854498
3721,13.879603639491386
3759,13.669415775256162
3796,13.3971690177613
3834,13.13489449261623
3873,13.16271589117886
3911,13.086711158993644
3950,12.976103198371145
3990,12.78461353606041
4030,12.30370505706236
4070,11.67858890749351
4111,11.448768874706364
4152,11.418262889063762
4193,10.93685197987152
4235,10.622832465452905
4278,10.347356595038775
4321,10.202065679468083
4364,9.89885054680716
4407,9.288804543626458
4451,8.795155246425765
4496,8.152954855300713
4541,7.474882414171207
4586,6.588371314849215
4632,5.994341876646772
4679,5.341744182893661
4725,4.612402432063369
4773,3.9405827907441004
4820,3.5067289425818506
4868,2.7385464261049055
4917,2.054252120409722
4966,1.2552892349670275
5016,0.2574633084395179
5066,-0.5537842321886126
5117,-1.4484812139513261
5168,-1.5608096395654991
5220,-0.6650431683390208
5272,0.5707218280003454
5325,1.4232656293899515
5378,2.6275482831598334
5432,3.6711455888097113
5486,4.252457147776237
5541,4.6497058605405455
5596,4.458091042716872
5652,4.387886159873939
5709,4.573241896046656
5766,5.00271545148625
5823,5.408463635432741
5882,6.03125354270674
5940,6.568328656534535
6000,7.40177876894473
6060,8.022561708150086
6120,8.985732986743905
6182,10.054916549883481
6244,10.772878681633816
6306,11.362869886670971
6369,11.998810021520502
6433,12.48025527961433
6497,12.49821109153256
6562,12.65193009078017
6628,12.176038501235428
6694,11.601560637569133
6761,10.98953079617036
6828,10.014029167193048
6897,9.236697786469808
6966,8.226636137271186
7035,7.371617225255514
7106,6.578795127866374
7177,5.937434683025341
7249,4.960912454283367
7321,3.847865417752887
7394,2.90514962732728
7468,1.9635107594748602
7543,0.74094303607527
7618,-0.4351867045828457
7694,-1.2797652759289333
7771,-2.3088336180388866
7849,-3.3471570781464264
7928,-4.2610405053693166
8007,-5.370483164331131
8087,-5.0001153298270395
8168,-4.779271543198552
8250,-5.283052165948732
8332,-5.397230361062193
8415,-5.063924266279057
8499,-4.395577052474733
8584,-5.225624084786993
8670,-5.045824523850809
8757,-4.0357105300071385
8845,-2.958511079105234
8933,-0.8603745995955965
9022,-0.49921817710963134
9113,-1.0934408447806891
9204,-0.598028601247127
9296,0.752309613079317
9389,0.7197770050354335
9483,0.31131821152876693
9577,-0.4989351541878455
9673,-0.7579769330092025
9770,-0.6932660389763088
9868,-1.0076012485781232
9966,-1.4712450967903328
10066,-2.3011586215074176
10167,-2.2957818579246907
10268,-2.1373981459316314
10371,-1.1669235878668003
10475,-0.1289692486731946
10579,0.43577880143976966
10685,0.34961294887124916
10792,-0.35405132628888314
10900,-1.3654894455386613
11009,-1.858620915869908
11119,-2.4141268459538674
11230,-2.8760710899999506
11343,-3.1087915967672597
11456,-3.2492612444861106
11571,-2.990268659185164
11686,-1.8403557240307982
11803,-1.1137611050797704
11921,-0.19115329313839435
12040,1.033825567473603
12161,1.845633530590157
12282,2.8346387300762816
12405,3.5418759730504834
12529,3.7775288652996677
12655,3.8028276720978473
12781,3.6853935554972486
12909,3.4953903918245333
13038,3.234326769121833
13168,3.058374503598107
13300,3.263731320828167
13433,3.480303068103973
13567,4.102243726092647
13703,4.544609499968488
13840,4.063003414081039
13978,3.344643016902068
14118,2.8874299798024015
14259,2.5267009597055674
14402,2.466759675945304
14546,2.3032448534716674
14692,1.4974723404138244
14838,1.4306487816886624
14987,1.3717519887711638
15137,1.596129878499359
15288,1.9589072363421716
15441,2.4749067774020928
15595,2.575885896980407
15751,2.3807783702476346
15909,2.5187793539509524
16068,2.459198080653187
16229,2.602271017800028
16391,2.326792827412196
16555,1.8701540652881432
16720,0.8188572731953219
16888,0.23627231017159822
17056,-0.4084160264890109
17227,-0.7972153268247579
17399,-0.9463836574786635
17573,-0.7218526571871395
17749,-0.614417089102461
17926,-0.708233196708572
18106,-0.6580905968384556
18287,0.17672538567044693
18470,0.5791988579459373
18654,0.7532010150731931
18841,0.5808727383138006
19029,-0.6892550244201594
19220,-2.1241120877751767
19412,-2.7329304130815135
19606,-3.2532789445828305
19802,-1.9564125144162725
20000,-1.3394864326592222
20200,-1.3329606120471462
20402,-1.6053964647792762
20606,-1.8161773654639237
20812,-2.3676379263290643
21020,-2.907887086938441
21230,-3.2493930079668214
21443,-3.74206152242805
21657,-4.007558125361865
21874,-3.988885976748522
22092,-3.7427711434924555
22313,-3.398158963366897
22537,-3.2684573400644483
22762,-4.331696421115217
22989,-5.232967235729888
23219,-5.830991389313598
23452,-6.828087319730099
23686,-7.249218729033784
23923,-6.992888369180499
24162,-7.532501163079133
24404,-8.074738491659524
24648,-8.616508713623158
24894,-9.157581485576394
25143,-9.700494955861505
25395,-10.244939095773926
25649,-10.78792246349994
25905,-11.329329847243477
26164,-11.871780692265558
26426,-12.415177435862342
26690,-12.956825347827118
26957,-13.49935198254441
27227,-14.042707697127142
27499,-14.584282935968911
27774,-15.126604620165965
28052,-15.669585479356012
28332,-16.210656083288995
28615,-16.752240828825535
28902,-17.296683610608316
29191,-17.839025774778726
29482,-18.379262707093307
29777,-18.922098919133457
