frequency,raw,error,smoothed,error_smoothed,equalization,parametric_eq,equalized_raw,equalized_smoothed,target
20,-15.40,-16.84,-15.35,-16.76,6.00,3.05,-9.40,-9.35,1.44
21,-14.54,-15.98,-14.65,-16.07,6.00,3.51,-8.54,-8.65,1.44
22,-14.01,-15.45,-13.97,-15.40,6.00,4.00,-8.01,-7.97,1.44
23,-13.41,-14.85,-13.31,-14.75,6.00,4.54,-7.41,-7.31,1.44
24,-12.69,-14.12,-12.67,-14.11,6.00,5.11,-6.69,-6.67,1.43
25,-11.89,-13.32,-12.05,-13.49,6.00,5.70,-5.89,-6.05,1.43
26,-11.50,-12.93,-11.44,-12.88,6.00,6.30,-5.50,-5.44,1.43
27,-10.93,-12.35,-10.86,-12.30,6.00,6.88,-4.93,-4.86,1.42
28,-10.33,-11.75,-10.29,-11.73,6.00,7.39,-4.33,-4.29,1.42
29,-9.53,-10.94,-9.74,-11.17,6.00,7.81,-3.53,-3.74,1.42
30,-9.20,-10.61,-9.21,-10.63,6.00,8.08,-3.20,-3.21,1.41
31,-8.77,-10.17,-8.73,-10.12,6.00,8.18,-2.77,-2.73,1.41
32,-8.26,-9.66,-8.25,-9.63,6.00,8.09,-2.26,-2.25,1.40
33,-7.87,-9.26,-7.78,-9.15,6.00,7.85,-1.87,-1.78,1.39
34,-7.20,-8.59,-7.32,-8.69,6.00,7.49,-1.20,-1.32,1.39
35,-6.82,-8.20,-6.87,-8.24,6.00,7.04,-0.82,-0.87,1.38
36,-6.47,-7.84,-6.43,-7.80,6.00,6.55,-0.47,-0.43,1.37
37,-6.13,-7.49,-6.01,-7.36,6.00,6.04,-0.13,-0.01,1.36
38,-5.58,-6.93,-5.61,-6.94,6.00,5.52,0.42,0.39,1.35
39,-5.26,-6.60,-5.20,-6.52,5.92,5.02,0.66,0.72,1.34
40,-4.99,-6.32,-4.78,-6.10,5.75,4.53,0.76,0.97,1.33
41,-4.35,-5.67,-4.40,-5.70,5.50,4.07,1.15,1.10,1.32
42,-3.70,-5.01,-4.02,-5.29,5.20,3.63,1.50,1.18,1.31
43,-3.64,-4.93,-3.63,-4.89,4.86,3.21,1.23,1.23,1.30
44,-3.31,-4.59,-3.25,-4.50,4.50,2.81,1.19,1.25,1.28
45,-2.95,-4.22,-2.88,-4.12,4.12,2.43,1.17,1.24,1.27
46,-2.58,-3.83,-2.49,-3.74,3.74,2.07,1.17,1.25,1.25
47,-2.09,-3.32,-2.15,-3.38,3.38,1.73,1.29,1.23,1.24
48,-1.81,-3.03,-1.81,-3.02,3.02,1.40,1.21,1.21,1.22
49,-1.57,-2.77,-1.48,-2.68,2.68,1.08,1.11,1.19,1.20
50,-1.37,-2.55,-1.19,-2.34,2.34,0.78,0.98,1.15,1.18
51,-0.59,-1.75,-0.92,-2.02,2.02,0.50,1.43,1.11,1.16
52,-0.44,-1.58,-0.62,-1.71,1.71,0.22,1.27,1.09,1.14
53,-0.28,-1.40,-0.29,-1.40,1.40,-0.04,1.13,1.11,1.12
54,-0.15,-1.25,-0.02,-1.11,1.11,-0.28,0.96,1.09,1.10
55,0.30,-0.77,0.23,-0.81,0.81,-0.52,1.12,1.05,1.07
56,0.28,-0.77,0.49,-0.53,0.53,-0.74,0.81,1.03,1.05
57,0.70,-0.32,0.75,-0.25,0.25,-0.94,0.96,1.01,1.02
58,0.92,-0.08,1.00,0.02,-0.02,-1.13,0.91,0.98,1.00
59,1.14,0.17,1.23,0.28,-0.28,-1.31,0.86,0.95,0.97
60,1.67,0.73,1.44,0.54,-0.54,-1.47,1.13,0.90,0.94
61,1.89,0.98,1.67,0.79,-0.79,-1.61,1.10,0.88,0.91
62,1.87,0.99,1.90,1.04,-1.04,-1.75,0.83,0.86,0.88
63,1.88,1.03,2.12,1.29,-1.29,-1.87,0.59,0.84,0.85
64,2.37,1.55,2.35,1.53,-1.53,-1.97,0.84,0.82,0.82
65,2.71,1.92,2.54,1.76,-1.76,-2.07,0.95,0.78,0.79
66,2.70,1.95,2.75,1.99,-1.99,-2.16,0.71,0.76,0.76
67,2.72,2.00,2.92,2.21,-2.21,-2.23,0.52,0.72,0.72
68,3.12,2.43,3.09,2.42,-2.42,-2.30,0.70,0.68,0.69
69,3.27,2.62,3.25,2.62,-2.62,-2.37,0.65,0.62,0.65
70,3.67,3.05,3.40,2.82,-2.82,-2.42,0.85,0.58,0.62
71,3.36,2.78,3.57,3.01,-3.01,-2.48,0.35,0.56,0.58
72,3.73,3.19,3.74,3.19,-3.19,-2.53,0.54,0.54,0.54
73,3.98,3.48,3.89,3.38,-3.38,-2.58,0.61,0.51,0.51
74,3.94,3.47,4.00,3.55,-3.55,-2.63,0.39,0.46,0.47
75,4.12,3.69,4.13,3.71,-3.71,-2.67,0.41,0.41,0.43
76,4.14,3.75,4.25,3.87,-3.87,-2.72,0.28,0.39,0.39
77,4.34,3.99,4.36,4.02,-4.02,-2.77,0.33,0.34,0.35
78,4.48,4.17,4.45,4.16,-4.16,-2.82,0.32,0.29,0.31
79,4.71,4.44,4.54,4.29,-4.29,-2.87,0.42,0.25,0.27
80,4.65,4.42,4.62,4.42,-4.42,-2.92,0.23,0.20,0.23
81,4.73,4.54,4.73,4.54,-4.54,-2.98,0.19,0.19,0.19
82,4.74,4.60,4.79,4.65,-4.65,-3.04,0.09,0.13,0.15
83,4.78,4.68,4.85,4.76,-4.76,-3.10,0.02,0.09,0.10
84,4.86,4.80,4.92,4.87,-4.87,-3.16,-0.01,0.06,0.06
85,4.97,4.95,4.98,4.96,-4.96,-3.23,0.01,0.01,0.02
86,5.02,5.04,5.03,5.05,-5.05,-3.30,-0.03,-0.03,-0.02
87,5.11,5.17,5.06,5.14,-5.14,-3.37,-0.03,-0.08,-0.06
88,5.09,5.20,5.09,5.22,-5.22,-3.45,-0.13,-0.12,-0.10
89,5.17,5.32,5.13,5.29,-5.29,-3.53,-0.12,-0.17,-0.14
90,5.21,5.40,5.17,5.36,-5.36,-3.61,-0.15,-0.20,-0.19
91,5.14,5.37,5.19,5.43,-5.43,-3.69,-0.29,-0.23,-0.23
92,5.20,5.47,5.22,5.49,-5.49,-3.78,-0.29,-0.27,-0.27
93,5.22,5.53,5.24,5.54,-5.54,-3.86,-0.32,-0.31,-0.31
94,5.22,5.57,5.24,5.59,-5.59,-3.95,-0.37,-0.35,-0.35
95,5.22,5.61,5.24,5.63,-5.63,-4.05,-0.41,-0.39,-0.39
96,5.21,5.64,5.23,5.66,-5.66,-4.14,-0.45,-0.43,-0.43
97,5.27,5.74,5.21,5.69,-5.69,-4.24,-0.42,-0.48,-0.47
98,5.20,5.71,5.20,5.71,-5.71,-4.33,-0.51,-0.51,-0.51
99,5.19,5.74,5.17,5.73,-5.73,-4.43,-0.54,-0.56,-0.55
100,5.17,5.76,5.14,5.74,-5.74,-4.53,-0.57,-0.60,-0.59
101,5.13,5.76,5.11,5.74,-5.74,-4.63,-0.61,-0.64,-0.63
102,5.03,5.70,5.07,5.74,-5.74,-4.73,-0.71,-0.68,-0.66
104,5.01,5.75,5.02,5.74,-5.74,-4.93,-0.73,-0.72,-0.74
105,4.99,5.77,4.96,5.73,-5.73,-5.03,-0.74,-0.77,-0.77
106,4.88,5.69,4.91,5.72,-5.72,-5.12,-0.84,-0.81,-0.81
107,4.84,5.69,4.86,5.70,-5.70,-5.22,-0.86,-0.84,-0.85
108,4.82,5.70,4.81,5.69,-5.69,-5.31,-0.87,-0.88,-0.88
109,4.73,5.65,4.75,5.67,-5.67,-5.40,-0.94,-0.92,-0.92
110,4.65,5.60,4.69,5.66,-5.66,-5.49,-1.00,-0.97,-0.95
111,4.65,5.64,4.65,5.64,-5.64,-5.57,-0.99,-0.99,-0.98
112,4.63,5.65,4.60,5.63,-5.63,-5.66,-1.00,-1.03,-1.02
113,4.50,5.55,4.56,5.62,-5.62,-5.73,-1.11,-1.06,-1.05
114,4.50,5.58,4.52,5.60,-5.60,-5.80,-1.10,-1.09,-1.08
115,4.56,5.67,4.47,5.59,-5.59,-5.87,-1.03,-1.12,-1.10
117,4.41,5.57,4.43,5.58,-5.58,-5.99,-1.17,-1.15,-1.16
118,4.29,5.47,4.39,5.56,-5.56,-6.04,-1.27,-1.17,-1.18
119,4.31,5.52,4.34,5.55,-5.55,-6.08,-1.23,-1.20,-1.20
120,4.38,5.61,4.30,5.53,-5.53,-6.12,-1.14,-1.23,-1.23
121,4.31,5.56,4.25,5.50,-5.50,-6.15,-1.19,-1.25,-1.24
123,4.14,5.43,4.20,5.48,-5.48,-6.20,-1.34,-1.28,-1.29
124,4.20,5.51,4.14,5.45,-5.45,-6.21,-1.25,-1.31,-1.31
125,4.10,5.42,4.09,5.41,-5.41,-6.22,-1.31,-1.33,-1.32
126,3.95,5.29,4.03,5.38,-5.38,-6.22,-1.43,-1.35,-1.34
128,4.02,5.40,3.97,5.34,-5.34,-6.20,-1.32,-1.37,-1.37
129,3.92,5.31,3.91,5.30,-5.30,-6.18,-1.38,-1.39,-1.39
130,3.77,5.17,3.85,5.26,-5.26,-6.16,-1.49,-1.41,-1.40
131,3.79,5.21,3.78,5.21,-5.21,-6.13,-1.42,-1.44,-1.42
133,3.75,5.20,3.71,5.17,-5.17,-6.06,-1.42,-1.46,-1.45
134,3.61,5.08,3.65,5.13,-5.13,-6.02,-1.52,-1.48,-1.47
135,3.61,5.09,3.59,5.09,-5.09,-5.98,-1.47,-1.49,-1.48
137,3.55,5.07,3.52,5.04,-5.04,-5.88,-1.49,-1.52,-1.52
138,3.46,4.99,3.47,5.00,-5.00,-5.83,-1.54,-1.54,-1.53
140,3.32,4.89,3.41,4.96,-4.96,-5.72,-1.64,-1.55,-1.56
141,3.32,4.90,3.34,4.92,-4.92,-5.66,-1.60,-1.59,-1.58
142,3.34,4.94,3.27,4.88,-4.88,-5.60,-1.54,-1.61,-1.59
144,3.22,4.85,3.21,4.84,-4.84,-5.47,-1.62,-1.63,-1.62
145,3.14,4.78,3.15,4.80,-4.80,-5.41,-1.66,-1.65,-1.64
147,3.12,4.79,3.09,4.75,-4.75,-5.28,-1.63,-1.67,-1.67
148,3.01,4.69,3.03,4.71,-4.71,-5.22,-1.70,-1.69,-1.68
150,2.91,4.62,2.96,4.67,-4.67,-5.09,-1.76,-1.71,-1.71
151,2.94,4.66,2.89,4.62,-4.62,-5.03,-1.68,-1.73,-1.72
153,2.76,4.51,2.83,4.57,-4.57,-4.91,-1.81,-1.74,-1.74
154,2.71,4.47,2.77,4.52,-4.52,-4.85,-1.81,-1.75,-1.75
156,2.74,4.52,2.69,4.47,-4.47,-4.73,-1.73,-1.78,-1.78
157,2.69,4.48,2.62,4.41,-4.41,-4.67,-1.72,-1.80,-1.79
159,2.55,4.36,2.54,4.35,-4.35,-4.56,-1.80,-1.81,-1.81
160,2.47,4.29,2.46,4.29,-4.29,-4.50,-1.82,-1.83,-1.82
162,2.37,4.21,2.39,4.23,-4.23,-4.40,-1.86,-1.85,-1.84
164,2.30,4.16,2.31,4.17,-4.17,-4.30,-1.87,-1.86,-1.86
165,2.24,4.11,2.23,4.11,-4.11,-4.25,-1.87,-1.88,-1.87
167,2.17,4.06,2.14,4.04,-4.04,-4.15,-1.87,-1.90,-1.89
169,2.00,3.92,2.07,3.98,-3.98,-4.07,-1.98,-1.91,-1.91
170,1.99,3.92,1.98,3.92,-3.92,-4.02,-1.93,-1.93,-1.93
172,1.90,3.85,1.90,3.86,-3.86,-3.94,-1.95,-1.96,-1.95
174,1.78,3.74,1.83,3.80,-3.80,-3.87,-2.01,-1.97,-1.96
175,1.77,3.74,1.76,3.74,-3.74,-3.83,-1.96,-1.98,-1.97
177,1.73,3.72,1.69,3.68,-3.68,-3.76,-1.95,-1.99,-1.99
179,1.57,3.57,1.63,3.62,-3.62,-3.70,-2.05,-2.00,-2.00
181,1.57,3.58,1.57,3.57,-3.57,-3.64,-2.00,-2.00,-2.00
183,1.51,3.52,1.51,3.51,-3.51,-3.58,-2.00,-2.00,-2.01
184,1.49,3.49,1.46,3.46,-3.46,-3.56,-1.97,-2.00,-2.00
186,1.38,3.38,1.41,3.40,-3.40,-3.51,-2.02,-1.99,-2.00
188,1.31,3.31,1.35,3.34,-3.34,-3.46,-2.03,-1.99,-2.00
190,1.33,3.32,1.30,3.29,-3.29,-3.42,-1.95,-1.99,-1.99
192,1.25,3.23,1.24,3.23,-3.23,-3.38,-1.97,-1.98,-1.98
194,1.16,3.14,1.18,3.17,-3.17,-3.34,-2.00,-1.99,-1.98
196,1.17,3.14,1.12,3.11,-3.11,-3.31,-1.93,-1.98,-1.97
198,1.14,3.11,1.07,3.05,-3.05,-3.28,-1.90,-1.97,-1.96
200,0.99,2.95,1.02,2.99,-2.99,-3.25,-1.99,-1.97,-1.96
202,0.99,2.95,0.96,2.93,-2.93,-3.23,-1.94,-1.97,-1.96
204,0.85,2.81,0.90,2.87,-2.87,-3.20,-2.02,-1.98,-1.96
206,0.80,2.76,0.85,2.82,-2.82,-3.18,-2.02,-1.97,-1.96
208,0.80,2.77,0.80,2.78,-2.78,-3.16,-1.97,-1.98,-1.97
210,0.72,2.70,0.75,2.73,-2.73,-3.14,-2.01,-1.99,-1.97
212,0.70,2.68,0.70,2.70,-2.70,-3.12,-2.00,-2.00,-1.98
214,0.70,2.69,0.66,2.67,-2.67,-3.10,-1.96,-2.00,-1.99
216,0.64,2.64,0.62,2.64,-2.64,-3.08,-2.00,-2.01,-2.00
218,0.59,2.60,0.60,2.62,-2.62,-3.07,-2.03,-2.02,-2.01
221,0.50,2.52,0.58,2.60,-2.60,-3.04,-2.10,-2.02,-2.02
223,0.58,2.60,0.56,2.59,-2.59,-3.03,-2.01,-2.02,-2.02
225,0.58,2.61,0.56,2.58,-2.58,-3.01,-2.00,-2.02,-2.03
227,0.51,2.54,0.55,2.57,-2.57,-2.99,-2.05,-2.02,-2.03
229,0.49,2.52,0.53,2.55,-2.55,-2.97,-2.06,-2.02,-2.02
232,0.49,2.51,0.52,2.54,-2.54,-2.94,-2.04,-2.02,-2.02
234,0.55,2.56,0.50,2.52,-2.52,-2.92,-1.97,-2.02,-2.01
236,0.52,2.52,0.49,2.50,-2.50,-2.90,-1.97,-2.01,-2.00
239,0.50,2.49,0.48,2.47,-2.47,-2.86,-1.97,-1.99,-1.99
241,0.50,2.48,0.47,2.44,-2.44,-2.83,-1.94,-1.97,-1.98
244,0.46,2.43,0.45,2.40,-2.40,-2.79,-1.94,-1.95,-1.96
246,0.40,2.35,0.41,2.36,-2.36,-2.76,-1.96,-1.95,-1.95
248,0.38,2.31,0.37,2.32,-2.32,-2.73,-1.93,-1.94,-1.93
251,0.27,2.19,0.34,2.27,-2.27,-2.68,-2.00,-1.93,-1.92
253,0.31,2.22,0.31,2.22,-2.22,-2.65,-1.91,-1.91,-1.90
256,0.33,2.23,0.27,2.17,-2.17,-2.59,-1.84,-1.90,-1.89
259,0.26,2.15,0.23,2.12,-2.12,-2.53,-1.86,-1.89,-1.89
261,0.21,2.09,0.19,2.07,-2.07,-2.49,-1.86,-1.88,-1.88
264,0.14,2.02,0.15,2.02,-2.02,-2.43,-1.88,-1.88,-1.88
266,0.00,1.88,0.10,1.99,-1.99,-2.38,-1.98,-1.88,-1.88
269,0.01,1.89,0.06,1.95,-1.95,-2.32,-1.94,-1.89,-1.88
272,0.06,1.94,0.03,1.93,-1.93,-2.25,-1.87,-1.90,-1.88
274,0.12,2.00,0.01,1.91,-1.91,-2.20,-1.79,-1.90,-1.88
277,0.09,1.97,0.00,1.91,-1.91,-2.12,-1.82,-1.90,-1.88
280,-0.05,1.83,0.01,1.91,-1.91,-2.05,-1.96,-1.91,-1.88
283,-0.04,1.84,0.02,1.93,-1.93,-1.97,-1.97,-1.91,-1.87
286,-0.06,1.81,0.06,1.96,-1.96,-1.90,-2.02,-1.90,-1.87
288,-0.04,1.82,0.11,1.99,-1.99,-1.84,-2.03,-1.89,-1.86
291,0.08,1.93,0.16,2.03,-2.03,-1.77,-1.95,-1.87,-1.85
294,0.14,1.98,0.21,2.08,-2.08,-1.69,-1.93,-1.86,-1.84
297,0.30,2.13,0.26,2.12,-2.12,-1.61,-1.81,-1.86,-1.83
300,0.41,2.23,0.30,2.15,-2.15,-1.53,-1.74,-1.85,-1.82
303,0.43,2.24,0.34,2.18,-2.18,-1.45,-1.74,-1.84,-1.81
306,0.44,2.24,0.37,2.19,-2.19,-1.38,-1.75,-1.82,-1.80
309,0.45,2.24,0.40,2.19,-2.19,-1.30,-1.74,-1.80,-1.79
312,0.44,2.22,0.40,2.18,-2.18,-1.22,-1.73,-1.78,-1.78
316,0.36,2.14,0.37,2.14,-2.14,-1.12,-1.78,-1.76,-1.78
319,0.34,2.11,0.33,2.08,-2.08,-1.04,-1.74,-1.75,-1.77
322,0.23,2.00,0.26,2.01,-2.01,-0.97,-1.77,-1.75,-1.77
325,0.15,1.92,0.15,1.91,-1.91,-0.89,-1.76,-1.76,-1.77
328,0.02,1.79,0.02,1.80,-1.80,-0.82,-1.77,-1.77,-1.76
332,-0.10,1.67,-0.12,1.67,-1.67,-0.72,-1.77,-1.79,-1.76
335,-0.14,1.63,-0.26,1.53,-1.53,-0.65,-1.67,-1.79,-1.76
338,-0.34,1.43,-0.40,1.39,-1.39,-0.58,-1.73,-1.79,-1.76
342,-0.54,1.23,-0.54,1.24,-1.24,-0.48,-1.78,-1.79,-1.76
345,-0.66,1.10,-0.69,1.10,-1.10,-0.41,-1.76,-1.79,-1.76
349,-0.88,0.88,-0.82,0.96,-0.96,-0.32,-1.84,-1.79,-1.76
352,-1.11,0.65,-0.96,0.83,-0.83,-0.25,-1.94,-1.79,-1.76
356,-1.24,0.51,-1.07,0.70,-0.70,-0.16,-1.94,-1.78,-1.75
359,-1.26,0.49,-1.18,0.59,-0.59,-0.10,-1.85,-1.77,-1.75
363,-1.26,0.48,-1.28,0.49,-0.49,-0.01,-1.75,-1.77,-1.74
366,-1.27,0.46,-1.36,0.40,-0.40,0.06,-1.67,-1.76,-1.73
370,-1.42,0.30,-1.43,0.32,-0.32,0.14,-1.74,-1.75,-1.72
374,-1.47,0.25,-1.48,0.26,-0.26,0.23,-1.72,-1.74,-1.71
377,-1.51,0.20,-1.53,0.20,-0.20,0.29,-1.71,-1.73,-1.71
381,-1.58,0.12,-1.56,0.16,-0.16,0.37,-1.73,-1.72,-1.70
385,-1.58,0.11,-1.58,0.12,-0.12,0.46,-1.70,-1.69,-1.69
389,-1.55,0.14,-1.60,0.08,-0.08,0.54,-1.63,-1.68,-1.69
393,-1.65,0.04,-1.62,0.05,-0.05,0.62,-1.70,-1.68,-1.68
397,-1.69,-0.01,-1.66,0.03,-0.03,0.70,-1.72,-1.68,-1.68
401,-1.69,-0.01,-1.68,0.01,-0.01,0.77,-1.70,-1.69,-1.68
405,-1.69,-0.01,-1.69,0.00,-0.00,0.85,-1.69,-1.70,-1.68
409,-1.70,-0.02,-1.71,-0.01,0.01,0.92,-1.69,-1.70,-1.68
413,-1.70,-0.02,-1.73,-0.01,0.01,0.99,-1.69,-1.71,-1.68
417,-1.68,-0.00,-1.74,-0.01,0.01,1.07,-1.67,-1.73,-1.68
421,-1.72,-0.05,-1.74,-0.01,0.01,1.13,-1.71,-1.74,-1.67
425,-1.79,-0.13,-1.71,0.00,-0.00,1.20,-1.79,-1.72,-1.66
430,-1.78,-0.14,-1.67,0.01,-0.01,1.28,-1.79,-1.68,-1.64
434,-1.76,-0.14,-1.62,-0.01,0.01,1.35,-1.75,-1.62,-1.62
438,-1.73,-0.14,-1.61,-0.05,0.05,1.41,-1.68,-1.56,-1.59
443,-1.78,-0.23,-1.62,-0.12,0.12,1.48,-1.66,-1.50,-1.55
447,-1.77,-0.27,-1.69,-0.22,0.22,1.53,-1.55,-1.47,-1.50
451,-1.70,-0.25,-1.81,-0.35,0.35,1.58,-1.34,-1.45,-1.45
456,-1.63,-0.23,-1.95,-0.52,0.52,1.64,-1.11,-1.43,-1.40
460,-1.58,-0.24,-2.12,-0.71,0.71,1.69,-0.87,-1.41,-1.34
465,-1.64,-0.36,-2.31,-0.92,0.92,1.74,-0.72,-1.39,-1.28
470,-2.29,-1.07,-2.50,-1.15,1.15,1.79,-1.14,-1.36,-1.22
474,-2.69,-1.53,-2.68,-1.37,1.37,1.82,-1.31,-1.30,-1.16
479,-3.21,-2.10,-2.84,-1.59,1.59,1.86,-1.62,-1.25,-1.11
484,-3.50,-2.44,-2.99,-1.77,1.77,1.90,-1.72,-1.22,-1.06
489,-3.77,-2.76,-3.12,-1.93,1.93,1.93,-1.84,-1.18,-1.01
494,-3.58,-2.61,-3.21,-2.06,2.06,1.95,-1.52,-1.14,-0.97
499,-3.40,-2.46,-3.26,-2.16,2.16,1.97,-1.24,-1.10,-0.93
504,-3.44,-2.53,-3.29,-2.22,2.22,1.98,-1.22,-1.07,-0.91
509,-3.20,-2.31,-3.28,-2.24,2.24,1.99,-0.96,-1.05,-0.89
514,-2.81,-1.93,-3.23,-2.23,2.23,2.00,-0.58,-1.01,-0.88
519,-2.80,-1.92,-3.14,-2.19,2.19,2.00,-0.61,-0.95,-0.87
524,-2.97,-2.09,-3.07,-2.15,2.15,2.00,-0.82,-0.92,-0.88
529,-2.94,-2.04,-3.00,-2.11,2.11,1.99,-0.83,-0.89,-0.90
535,-2.76,-1.84,-2.97,-2.07,2.07,1.98,-0.69,-0.90,-0.92
540,-2.85,-1.90,-2.96,-2.04,2.04,1.97,-0.81,-0.92,-0.94
545,-3.02,-2.04,-2.98,-2.01,2.01,1.95,-1.00,-0.97,-0.98
551,-3.27,-2.26,-3.02,-2.00,2.00,1.93,-1.27,-1.02,-1.01
556,-3.17,-2.13,-3.07,-2.00,2.00,1.91,-1.17,-1.07,-1.04
562,-3.20,-2.12,-3.13,-2.01,2.01,1.88,-1.18,-1.11,-1.07
568,-3.25,-2.14,-3.18,-2.04,2.04,1.85,-1.21,-1.14,-1.10
573,-3.24,-2.11,-3.21,-2.07,2.07,1.83,-1.17,-1.14,-1.13
579,-3.28,-2.13,-3.24,-2.11,2.11,1.79,-1.17,-1.14,-1.15
585,-3.24,-2.08,-3.29,-2.15,2.15,1.76,-1.09,-1.15,-1.16
591,-3.24,-2.08,-3.35,-2.19,2.19,1.72,-1.04,-1.16,-1.16
596,-3.30,-2.14,-3.42,-2.25,2.25,1.69,-1.05,-1.17,-1.16
602,-3.51,-2.36,-3.47,-2.31,2.31,1.66,-1.20,-1.16,-1.15
608,-3.45,-2.32,-3.50,-2.38,2.38,1.62,-1.07,-1.12,-1.13
615,-3.37,-2.26,-3.55,-2.45,2.45,1.58,-0.92,-1.10,-1.11
621,-3.59,-2.51,-3.60,-2.52,2.52,1.54,-1.07,-1.08,-1.08
627,-3.72,-2.67,-3.65,-2.58,2.58,1.51,-1.14,-1.07,-1.05
633,-3.81,-2.80,-3.69,-2.64,2.64,1.47,-1.16,-1.04,-1.00
639,-3.89,-2.93,-3.70,-2.70,2.70,1.44,-1.19,-1.00,-0.96
646,-3.91,-2.99,-3.70,-2.74,2.74,1.40,-1.17,-0.96,-0.91
652,-3.78,-2.91,-3.67,-2.76,2.76,1.36,-1.02,-0.91,-0.86
659,-3.40,-2.59,-3.62,-2.77,2.77,1.32,-0.63,-0.85,-0.81
665,-3.38,-2.62,-3.56,-2.77,2.77,1.29,-0.61,-0.79,-0.76
672,-3.67,-2.96,-3.49,-2.75,2.75,1.26,-0.92,-0.74,-0.71
679,-3.57,-2.91,-3.42,-2.72,2.72,1.22,-0.84,-0.69,-0.66
686,-3.39,-2.77,-3.32,-2.69,2.69,1.19,-0.69,-0.63,-0.61
692,-3.11,-2.53,-3.24,-2.66,2.66,1.16,-0.44,-0.57,-0.58
699,-3.05,-2.50,-3.17,-2.64,2.64,1.13,-0.41,-0.53,-0.55
706,-3.03,-2.50,-3.13,-2.62,2.62,1.10,-0.41,-0.51,-0.52
713,-3.03,-2.52,-3.12,-2.61,2.61,1.07,-0.41,-0.50,-0.51
721,-3.04,-2.54,-3.11,-2.61,2.61,1.04,-0.43,-0.50,-0.50
728,-3.05,-2.55,-3.12,-2.62,2.62,1.01,-0.43,-0.50,-0.50
735,-3.08,-2.58,-3.11,-2.62,2.62,0.99,-0.45,-0.49,-0.50
742,-3.11,-2.61,-3.11,-2.63,2.63,0.96,-0.48,-0.48,-0.50
750,-3.13,-2.63,-3.14,-2.64,2.64,0.93,-0.49,-0.50,-0.50
757,-3.21,-2.71,-3.16,-2.64,2.64,0.91,-0.57,-0.53,-0.50
765,-3.28,-2.79,-3.17,-2.62,2.62,0.89,-0.66,-0.54,-0.49
773,-3.24,-2.75,-3.14,-2.59,2.59,0.87,-0.65,-0.55,-0.49
780,-3.06,-2.58,-3.07,-2.54,2.54,0.85,-0.52,-0.53,-0.48
788,-2.99,-2.52,-2.97,-2.46,2.46,0.83,-0.53,-0.51,-0.47
796,-3.02,-2.57,-2.85,-2.36,2.36,0.81,-0.66,-0.50,-0.45
804,-2.88,-2.44,-2.72,-2.24,2.24,0.79,-0.64,-0.48,-0.43
812,-2.69,-2.27,-2.57,-2.11,2.11,0.77,-0.58,-0.45,-0.42
820,-2.46,-2.06,-2.41,-1.97,1.97,0.75,-0.48,-0.43,-0.40
828,-2.15,-1.76,-2.24,-1.83,1.83,0.74,-0.32,-0.41,-0.38
837,-1.93,-1.56,-2.07,-1.69,1.69,0.72,-0.24,-0.38,-0.37
845,-1.77,-1.41,-1.90,-1.56,1.56,0.71,-0.21,-0.34,-0.36
853,-1.51,-1.16,-1.76,-1.43,1.43,0.69,-0.07,-0.32,-0.34
862,-1.57,-1.23,-1.63,-1.32,1.32,0.68,-0.24,-0.31,-0.33
871,-1.61,-1.28,-1.52,-1.22,1.22,0.67,-0.39,-0.30,-0.33
879,-1.42,-1.09,-1.43,-1.13,1.13,0.66,-0.29,-0.30,-0.32
888,-1.27,-0.95,-1.36,-1.04,1.04,0.65,-0.22,-0.31,-0.32
897,-1.37,-1.05,-1.30,-0.97,0.97,0.64,-0.40,-0.33,-0.31
906,-1.17,-0.86,-1.24,-0.89,0.89,0.63,-0.28,-0.35,-0.31
915,-1.14,-0.84,-1.17,-0.81,0.81,0.62,-0.33,-0.36,-0.30
924,-1.15,-0.85,-1.09,-0.73,0.73,0.62,-0.42,-0.36,-0.29
933,-1.20,-0.91,-0.99,-0.63,0.63,0.61,-0.56,-0.35,-0.29
943,-1.05,-0.77,-0.88,-0.53,0.53,0.60,-0.51,-0.34,-0.28
952,-0.90,-0.63,-0.74,-0.43,0.43,0.60,-0.47,-0.31,-0.27
962,-0.71,-0.45,-0.60,-0.33,0.33,0.60,-0.38,-0.27,-0.26
971,-0.47,-0.22,-0.48,-0.24,0.24,0.59,-0.23,-0.25,-0.25
981,-0.29,-0.05,-0.37,-0.15,0.15,0.59,-0.14,-0.22,-0.23
991,-0.11,0.11,-0.26,-0.08,0.08,0.59,-0.03,-0.19,-0.22
1001,0.01,0.21,-0.18,-0.01,0.01,0.59,0.02,-0.17,-0.20
1011,0.03,0.21,-0.12,0.04,-0.04,0.59,-0.01,-0.16,-0.18
1021,0.05,0.21,-0.08,0.08,-0.08,0.59,-0.02,-0.16,-0.16
1031,0.08,0.21,-0.05,0.10,-0.10,0.59,-0.02,-0.16,-0.13
1041,0.11,0.22,-0.03,0.13,-0.13,0.60,-0.02,-0.16,-0.10
1052,-0.04,0.04,0.00,0.15,-0.15,0.60,-0.19,-0.15,-0.08
1062,-0.13,-0.08,0.04,0.18,-0.18,0.60,-0.31,-0.14,-0.05
1073,-0.16,-0.14,0.08,0.21,-0.21,0.61,-0.37,-0.13,-0.02
1084,-0.13,-0.14,0.15,0.25,-0.25,0.62,-0.38,-0.10,0.01
1094,-0.07,-0.11,0.23,0.29,-0.29,0.62,-0.36,-0.06,0.04
1105,0.00,-0.07,0.33,0.33,-0.33,0.63,-0.33,-0.00,0.07
1116,0.42,0.32,0.43,0.35,-0.35,0.64,0.07,0.08,0.10
1128,0.69,0.55,0.53,0.36,-0.36,0.65,0.33,0.17,0.14
1139,0.81,0.64,0.60,0.35,-0.35,0.66,0.46,0.24,0.17
1150,0.88,0.67,0.63,0.32,-0.32,0.67,0.56,0.31,0.21
1162,0.82,0.58,0.61,0.26,-0.26,0.68,0.56,0.35,0.25
1173,0.84,0.56,0.54,0.19,-0.19,0.69,0.65,0.35,0.28
1185,0.79,0.47,0.41,0.09,-0.09,0.70,0.70,0.31,0.32
1197,0.55,0.20,0.26,-0.01,0.01,0.72,0.56,0.27,0.35
1209,0.30,-0.09,0.15,-0.11,0.11,0.73,0.42,0.26,0.39
1221,0.10,-0.33,0.06,-0.20,0.20,0.75,0.30,0.26,0.43
1233,-0.27,-0.73,-0.01,-0.27,0.27,0.76,-0.00,0.26,0.46
1246,-0.68,-1.17,-0.03,-0.30,0.30,0.78,-0.38,0.27,0.49
1258,-0.63,-1.14,0.00,-0.30,0.30,0.80,-0.33,0.30,0.52
1271,-0.68,-1.21,0.08,-0.26,0.26,0.82,-0.42,0.33,0.53
1283,-0.34,-0.88,0.18,-0.18,0.18,0.84,-0.16,0.36,0.55
1296,0.16,-0.39,0.30,-0.08,0.08,0.86,0.24,0.38,0.55
1309,0.99,0.44,0.45,0.04,-0.04,0.88,0.95,0.41,0.55
1322,1.33,0.79,0.63,0.16,-0.16,0.90,1.18,0.48,0.54
1335,1.27,0.74,0.79,0.25,-0.25,0.92,1.02,0.54,0.53
1349,1.22,0.70,0.90,0.31,-0.31,0.95,0.91,0.59,0.52
1362,1.12,0.62,0.98,0.34,-0.34,0.97,0.78,0.64,0.50
1376,1.04,0.56,0.98,0.33,-0.33,0.99,0.72,0.65,0.48
1390,0.88,0.42,0.89,0.27,-0.27,1.02,0.61,0.62,0.46
1404,0.68,0.24,0.74,0.18,-0.18,1.05,0.51,0.56,0.44
1418,0.53,0.11,0.53,0.05,-0.05,1.08,0.49,0.48,0.42
1432,0.38,-0.03,0.27,-0.11,0.11,1.10,0.49,0.38,0.41
1446,0.10,-0.30,0.01,-0.29,0.29,1.13,0.39,0.30,0.40
1461,-0.37,-0.76,-0.20,-0.47,0.47,1.16,0.10,0.27,0.40
1475,-0.62,-1.01,-0.38,-0.64,0.64,1.19,0.02,0.26,0.40
1490,-0.71,-1.11,-0.53,-0.79,0.79,1.22,0.09,0.26,0.40
1505,-0.83,-1.24,-0.65,-0.92,0.92,1.26,0.09,0.27,0.41
1520,-0.86,-1.27,-0.72,-1.02,1.02,1.29,0.17,0.30,0.42
1535,-0.82,-1.25,-0.76,-1.11,1.11,1.32,0.29,0.35,0.43
1550,-0.83,-1.27,-0.77,-1.17,1.17,1.36,0.34,0.40,0.44
1566,-0.88,-1.34,-0.78,-1.22,1.22,1.39,0.34,0.44,0.46
1582,-0.74,-1.22,-0.77,-1.26,1.26,1.43,0.52,0.48,0.48
1597,-0.68,-1.19,-0.77,-1.29,1.29,1.46,0.61,0.52,0.51
1613,-0.62,-1.16,-0.76,-1.33,1.33,1.50,0.71,0.57,0.54
1629,-0.54,-1.11,-0.76,-1.37,1.37,1.54,0.83,0.61,0.57
1646,-0.47,-1.08,-0.78,-1.41,1.41,1.57,0.94,0.64,0.61
1662,-0.49,-1.14,-0.80,-1.46,1.46,1.61,0.97,0.66,0.66
1679,-0.81,-1.51,-0.83,-1.51,1.51,1.65,0.70,0.68,0.71
1696,-0.96,-1.72,-0.84,-1.55,1.55,1.68,0.60,0.72,0.76
1713,-1.08,-1.91,-0.83,-1.59,1.59,1.72,0.51,0.77,0.83
1730,-1.12,-2.02,-0.80,-1.61,1.61,1.75,0.50,0.81,0.90
