frequency,raw,smoothed,error,error_smoothed,equalization,parametric_eq,fixed_band_eq,equalized_raw,equalized_smoothed,target
20.00,-9.02,-9.02,-13.97,-13.97,6.00,6.27,2.86,-3.02,-3.02,4.95
20.20,-8.90,-8.89,-13.88,-13.88,6.00,6.26,2.94,-2.90,-2.89,4.98
20.40,-8.78,-8.77,-13.79,-13.78,6.00,6.24,3.02,-2.78,-2.77,5.01
20.61,-8.66,-8.65,-13.69,-13.69,6.00,6.22,3.11,-2.66,-2.65,5.03
20.81,-8.54,-8.54,-13.59,-13.60,6.00,6.21,3.20,-2.54,-2.54,5.06
21.02,-8.42,-8.42,-13.50,-13.50,6.00,6.19,3.29,-2.42,-2.42,5.09
21.23,-8.32,-8.31,-13.41,-13.41,6.00,6.17,3.38,-2.32,-2.31,5.10
21.44,-8.21,-8.22,-13.32,-13.32,6.00,6.16,3.48,-2.21,-2.22,5.11
21.66,-8.12,-8.12,-13.23,-13.23,6.00,6.14,3.58,-2.12,-2.12,5.12
21.87,-8.01,-8.01,-13.13,-13.13,6.00,6.12,3.68,-2.01,-2.01,5.12
22.09,-7.90,-7.90,-13.03,-13.02,6.00,6.11,3.78,-1.90,-1.90,5.13
22.31,-7.77,-7.78,-12.90,-12.90,6.00,6.09,3.89,-1.77,-1.78,5.13
22.54,-7.65,-7.65,-12.77,-12.77,6.00,6.08,4.00,-1.65,-1.65,5.12
22.76,-7.52,-7.51,-12.64,-12.63,6.00,6.06,4.12,-1.52,-1.51,5.12
22.99,-7.39,-7.40,-12.50,-12.51,6.00,6.05,4.23,-1.39,-1.40,5.11
23.22,-7.29,-7.29,-12.40,-12.40,6.00,6.03,4.35,-1.29,-1.29,5.11
23.45,-7.20,-7.19,-12.31,-12.30,6.00,6.02,4.47,-1.20,-1.19,5.11
23.69,-7.10,-7.10,-12.21,-12.21,6.00,6.00,4.60,-1.10,-1.10,5.11
23.92,-7.00,-7.00,-12.12,-12.12,6.00,5.99,4.72,-1.00,-1.00,5.11
24.16,-6.91,-6.90,-12.02,-12.02,6.00,5.98,4.85,-0.91,-0.90,5.12
24.40,-6.79,-6.80,-11.91,-11.91,6.00,5.96,4.98,-0.79,-0.80,5.12
24.65,-6.70,-6.69,-11.80,-11.80,6.00,5.95,5.12,-0.70,-0.69,5.11
24.89,-6.58,-6.59,-11.69,-11.70,6.00,5.94,5.25,-0.58,-0.59,5.11
25.14,-6.49,-6.49,-11.59,-11.59,6.00,5.93,5.39,-0.49,-0.49,5.11
25.39,-6.39,-6.39,-11.50,-11.50,6.00,5.92,5.53,-0.39,-0.39,5.10
25.65,-6.30,-6.30,-11.40,-11.40,6.00,5.91,5.66,-0.30,-0.30,5.10
25.91,-6.21,-6.20,-11.30,-11.29,6.00,5.90,5.80,-0.21,-0.20,5.09
26.16,-6.08,-6.09,-11.18,-11.18,6.00,5.89,5.94,-0.08,-0.09,5.09
26.43,-5.97,-5.97,-11.06,-11.06,6.00,5.88,6.08,0.03,0.03,5.09
26.69,-5.85,-5.85,-10.94,-10.94,6.00,5.87,6.22,0.15,0.15,5.09
26.96,-5.73,-5.73,-10.82,-10.82,6.00,5.87,6.35,0.27,0.27,5.09
27.23,-5.62,-5.61,-10.70,-10.70,6.00,5.86,6.49,0.38,0.39,5.09
27.50,-5.50,-5.50,-10.58,-10.58,6.00,5.85,6.62,0.50,0.50,5.09
27.77,-5.38,-5.39,-10.46,-10.46,6.00,5.85,6.74,0.62,0.61,5.07
28.05,-5.28,-5.28,-10.35,-10.35,6.00,5.85,6.87,0.72,0.72,5.07
28.33,-5.19,-5.19,-10.25,-10.25,6.00,5.85,6.98,0.81,0.81,5.06
28.62,-5.10,-5.09,-10.16,-10.15,6.00,5.85,7.09,0.90,0.91,5.06
28.90,-5.00,-5.00,-10.05,-10.05,6.00,5.85,7.19,1.00,1.00,5.06
29.19,-4.89,-4.88,-9.93,-9.94,6.00,5.85,7.28,1.11,1.12,5.05
29.48,-4.77,-4.76,-9.82,-9.81,6.00,5.85,7.36,1.23,1.24,5.05
29.78,-4.64,-4.64,-9.68,-9.69,6.00,5.86,7.44,1.36,1.36,5.04
30.08,-4.53,-4.54,-9.57,-9.58,6.00,5.86,7.50,1.47,1.46,5.04
30.38,-4.45,-4.45,-9.48,-9.48,6.00,5.87,7.55,1.55,1.55,5.03
30.68,-4.37,-4.37,-9.39,-9.39,6.00,5.88,7.58,1.63,1.63,5.03
30.99,-4.29,-4.28,-9.30,-9.29,6.00,5.89,7.61,1.71,1.72,5.01
31.30,-4.17,-4.16,-9.18,-9.18,6.00,5.90,7.62,1.83,1.84,5.01
31.61,-4.05,-4.05,-9.06,-9.05,6.00,5.91,7.63,1.95,1.95,5.01
31.93,-3.93,-3.94,-8.93,-8.94,6.00,5.92,7.61,2.07,2.06,5.00
32.24,-3.87,-3.87,-8.85,-8.86,6.00,5.94,7.59,2.13,2.13,4.99
32.57,-3.82,-3.82,-8.80,-8.80,6.00,5.95,7.55,2.18,2.18,4.98
32.89,-3.77,-3.75,-8.75,-8.73,6.00,5.97,7.51,2.23,2.25,4.98
33.22,-3.67,-3.65,-8.63,-8.62,6.00,5.99,7.44,2.33,2.35,4.97
33.55,-3.53,-3.54,-8.50,-8.50,6.00,6.00,7.38,2.47,2.46,4.96
33.89,-3.40,-3.41,-8.35,-8.37,6.00,6.02,7.30,2.60,2.59,4.95
34.23,-3.32,-3.32,-8.27,-8.27,6.00,6.04,7.22,2.68,2.68,4.95
34.57,-3.25,-3.25,-8.18,-8.18,6.00,6.06,7.12,2.75,2.75,4.94
34.92,-3.19,-3.17,-8.11,-8.10,6.00,6.08,7.02,2.81,2.83,4.92
35.27,-3.08,-3.07,-8.00,-7.98,6.00,6.10,6.92,2.92,2.93,4.92
35.62,-2.95,-2.95,-7.85,-7.86,6.00,6.12,6.81,3.05,3.05,4.91
35.97,-2.83,-2.84,-7.72,-7.73,6.00,6.13,6.70,3.17,3.16,4.89
36.33,-2.74,-2.74,-7.62,-7.62,6.00,6.15,6.59,3.26,3.26,4.89
36.70,-2.66,-2.65,-7.53,-7.52,6.00,6.16,6.47,3.34,3.35,4.87
37.06,-2.57,-2.57,-7.43,-7.43,6.00,6.17,6.35,3.43,3.43,4.86
37.43,-2.48,-2.48,-7.33,-7.33,6.00,6.18,6.23,3.52,3.52,4.86
37.81,-2.40,-2.39,-7.24,-7.23,6.00,6.18,6.11,3.60,3.61,4.84
38.19,-2.31,-2.30,-7.13,-7.14,6.00,6.18,6.00,3.69,3.70,4.83
38.57,-2.22,-2.22,-7.04,-7.03,6.00,6.18,5.88,3.78,3.78,4.82
38.95,-2.13,-2.13,-6.93,-6.94,6.00,6.17,5.76,3.87,3.87,4.81
39.34,-2.06,-2.06,-6.85,-6.85,6.00,6.16,5.65,3.94,3.94,4.79
39.74,-2.00,-1.99,-6.77,-6.77,6.00,6.14,5.54,4.00,4.01,4.78
40.14,-1.93,-1.92,-6.70,-6.69,6.00,6.12,5.43,4.07,4.08,4.77
40.54,-1.85,-1.84,-6.60,-6.60,6.01,6.09,5.32,4.16,4.16,4.76
40.94,-1.76,-1.76,-6.51,-6.51,6.01,6.06,5.22,4.26,4.25,4.75
41.35,-1.68,-1.68,-6.41,-6.41,6.02,6.01,5.12,4.35,4.34,4.73
41.76,-1.60,-1.59,-6.32,-6.32,6.02,5.97,5.02,4.43,4.43,4.73
42.18,-1.51,-1.50,-6.23,-6.22,6.01,5.91,4.92,4.50,4.50,4.72
42.60,-1.42,-1.41,-6.12,-6.12,5.98,5.85,4.83,4.57,4.57,4.71
43.03,-1.32,-1.33,-6.01,-6.02,5.94,5.79,4.74,4.62,4.61,4.70
43.46,-1.25,-1.24,-5.93,-5.92,5.87,5.72,4.66,4.63,4.63,4.68
43.90,-1.17,-1.15,-5.82,-5.81,5.80,5.65,4.58,4.63,4.64,4.65
44.33,-1.06,-1.06,-5.69,-5.69,5.70,5.57,4.50,4.65,4.65,4.64
44.78,-0.95,-0.95,-5.56,-5.57,5.60,5.49,4.43,4.65,4.65,4.62
45.23,-0.85,-0.86,-5.45,-5.46,5.48,5.40,4.36,4.64,4.63,4.60
45.68,-0.78,-0.77,-5.36,-5.35,5.37,5.31,4.29,4.59,4.59,4.58
46.13,-0.70,-0.69,-5.26,-5.25,5.25,5.22,4.22,4.55,4.56,4.56
46.60,-0.60,-0.60,-5.15,-5.15,5.14,5.13,4.16,4.54,4.54,4.55
47.06,-0.51,-0.51,-5.04,-5.04,5.04,5.03,4.11,4.53,4.53,4.53
47.53,-0.42,-0.42,-4.93,-4.94,4.94,4.93,4.05,4.52,4.52,4.51
48.01,-0.34,-0.34,-4.84,-4.84,4.84,4.84,4.00,4.51,4.50,4.50
48.49,-0.28,-0.27,-4.75,-4.75,4.75,4.74,3.95,4.47,4.48,4.47
48.97,-0.22,-0.21,-4.66,-4.65,4.66,4.64,3.90,4.44,4.45,4.44
49.46,-0.15,-0.14,-4.56,-4.55,4.56,4.55,3.86,4.41,4.41,4.41
49.96,-0.08,-0.09,-4.45,-4.47,4.46,4.45,3.82,4.39,4.37,4.38
50.46,-0.03,-0.03,-4.39,-4.39,4.37,4.35,3.78,4.34,4.34,4.37
50.96,0.01,0.05,-4.33,-4.29,4.28,4.26,3.74,4.29,4.33,4.34
51.47,0.13,0.14,-4.18,-4.18,4.19,4.16,3.71,4.32,4.33,4.31
51.99,0.26,0.22,-4.02,-4.07,4.09,4.07,3.68,4.36,4.31,4.29
52.51,0.28,0.29,-3.99,-3.98,4.00,3.98,3.65,4.28,4.28,4.27
53.03,0.30,0.34,-3.94,-3.91,3.91,3.89,3.62,4.21,4.24,4.25
53.56,0.39,0.39,-3.83,-3.84,3.81,3.80,3.59,4.21,4.20,4.22
54.10,0.47,0.46,-3.72,-3.74,3.73,3.72,3.56,4.20,4.18,4.20
54.64,0.52,0.53,-3.65,-3.64,3.64,3.63,3.53,4.17,4.18,4.17
55.18,0.59,0.60,-3.55,-3.55,3.56,3.55,3.50,4.15,4.16,4.15
55.74,0.66,0.65,-3.46,-3.47,3.48,3.47,3.48,4.14,4.13,4.12
56.29,0.71,0.70,-3.39,-3.40,3.40,3.39,3.45,4.11,4.10,4.10
56.86,0.72,0.75,-3.35,-3.32,3.32,3.31,3.43,4.04,4.07,4.07
57.42,0.79,0.80,-3.25,-3.25,3.24,3.24,3.40,4.03,4.04,4.04
58.00,0.88,0.85,-3.14,-3.18,3.17,3.16,3.37,4.05,4.01,4.02
58.58,0.89,0.91,-3.11,-3.10,3.10,3.09,3.34,3.99,4.00,4.00
59.16,0.93,0.96,-3.05,-3.02,3.03,3.02,3.31,3.96,3.99,3.98
59.76,1.02,1.01,-2.94,-2.95,2.96,2.95,3.28,3.99,3.97,3.96
60.35,1.06,1.05,-2.87,-2.88,2.90,2.88,3.24,3.97,3.95,3.93
60.96,1.07,1.07,-2.84,-2.83,2.84,2.82,3.21,3.92,3.91,3.91
61.57,1.06,1.08,-2.80,-2.79,2.78,2.75,3.17,3.85,3.86,3.87
62.18,1.08,1.10,-2.75,-2.73,2.72,2.69,3.13,3.81,3.83,3.83
62.80,1.15,1.13,-2.65,-2.67,2.66,2.63,3.09,3.82,3.79,3.81
63.43,1.17,1.17,-2.60,-2.61,2.60,2.57,3.05,3.77,3.77,3.77
64.07,1.18,1.20,-2.56,-2.54,2.53,2.51,3.01,3.71,3.73,3.75
64.71,1.24,1.25,-2.48,-2.47,2.46,2.45,2.96,3.70,3.71,3.72
65.35,1.31,1.30,-2.38,-2.39,2.39,2.39,2.91,3.70,3.69,3.69
66.01,1.37,1.35,-2.29,-2.31,2.32,2.33,2.86,3.69,3.67,3.66
66.67,1.37,1.40,-2.26,-2.23,2.26,2.28,2.81,3.63,3.66,3.64
67.33,1.42,1.44,-2.18,-2.16,2.19,2.22,2.75,3.62,3.64,3.61
68.01,1.51,1.47,-2.06,-2.10,2.13,2.17,2.70,3.64,3.60,3.58
68.69,1.48,1.47,-2.06,-2.07,2.06,2.12,2.64,3.55,3.54,3.54
69.37,1.45,1.47,-2.06,-2.04,2.00,2.07,2.58,3.45,3.47,3.51
70.07,1.44,1.49,-2.04,-1.99,1.93,2.02,2.52,3.38,3.42,3.48
70.77,1.57,1.56,-1.88,-1.89,1.87,1.97,2.46,3.45,3.43,3.46
71.48,1.65,1.63,-1.77,-1.79,1.81,1.92,2.40,3.47,3.44,3.42
72.19,1.69,1.68,-1.69,-1.70,1.75,1.87,2.33,3.45,3.44,3.39
72.91,1.67,1.69,-1.68,-1.66,1.70,1.82,2.27,3.37,3.38,3.35
73.64,1.67,1.68,-1.64,-1.64,1.64,1.77,2.21,3.32,3.32,3.31
74.38,1.67,1.67,-1.61,-1.61,1.60,1.72,2.14,3.27,3.27,3.28
75.12,1.67,1.67,-1.57,-1.58,1.56,1.68,2.08,3.23,3.23,3.25
75.87,1.67,1.67,-1.54,-1.54,1.53,1.63,2.02,3.21,3.21,3.22
76.63,1.67,1.67,-1.51,-1.51,1.51,1.59,1.95,3.18,3.18,3.19
77.40,1.67,1.67,-1.48,-1.48,1.49,1.54,1.89,3.16,3.16,3.16
78.17,1.67,1.67,-1.44,-1.45,1.47,1.50,1.83,3.14,3.14,3.11
78.95,1.67,1.67,-1.42,-1.41,1.43,1.45,1.76,3.11,3.11,3.09
79.74,1.67,1.67,-1.38,-1.39,1.39,1.41,1.70,3.06,3.06,3.06
80.54,1.66,1.65,-1.36,-1.37,1.34,1.36,1.64,3.00,2.99,3.02
81.35,1.65,1.66,-1.34,-1.33,1.28,1.32,1.58,2.93,2.93,2.99
82.16,1.66,1.70,-1.29,-1.26,1.21,1.28,1.52,2.88,2.91,2.95
82.98,1.77,1.77,-1.15,-1.15,1.15,1.23,1.46,2.92,2.92,2.93
83.81,1.87,1.85,-1.01,-1.04,1.08,1.19,1.40,2.95,2.93,2.88
84.65,1.90,1.90,-0.94,-0.95,1.01,1.15,1.34,2.92,2.91,2.84
85.50,1.89,1.90,-0.92,-0.91,0.95,1.10,1.28,2.84,2.85,2.81
86.35,1.87,1.88,-0.90,-0.89,0.89,1.06,1.23,2.77,2.78,2.77
87.22,1.87,1.87,-0.86,-0.86,0.84,1.02,1.17,2.72,2.72,2.73
88.09,1.87,1.87,-0.82,-0.83,0.80,0.98,1.12,2.68,2.68,2.69
88.97,1.87,1.87,-0.79,-0.78,0.77,0.94,1.06,2.64,2.64,2.66
89.86,1.87,1.88,-0.75,-0.74,0.73,0.90,1.01,2.61,2.61,2.62
90.76,1.88,1.88,-0.69,-0.70,0.69,0.85,0.95,2.57,2.57,2.57
91.66,1.88,1.88,-0.65,-0.65,0.64,0.81,0.90,2.53,2.53,2.54
92.58,1.88,1.88,-0.60,-0.60,0.60,0.77,0.85,2.48,2.48,2.48
93.51,1.88,1.89,-0.57,-0.56,0.56,0.73,0.80,2.44,2.45,2.45
94.44,1.88,1.89,-0.52,-0.52,0.53,0.69,0.75,2.42,2.42,2.41
95.39,1.88,1.88,-0.48,-0.48,0.51,0.65,0.70,2.40,2.39,2.36
96.34,1.85,1.85,-0.45,-0.47,0.50,0.61,0.65,2.35,2.35,2.31
97.30,1.78,1.79,-0.48,-0.48,0.49,0.57,0.60,2.28,2.28,2.26
98.28,1.72,1.72,-0.49,-0.50,0.48,0.53,0.56,2.21,2.20,2.22
99.26,1.64,1.66,-0.53,-0.51,0.48,0.50,0.51,2.12,2.14,2.17
100.25,1.62,1.62,-0.50,-0.50,0.47,0.46,0.46,2.09,2.09,2.13
101.25,1.60,1.60,-0.48,-0.48,0.46,0.42,0.42,2.06,2.06,2.08
102.27,1.59,1.59,-0.44,-0.44,0.44,0.38,0.37,2.03,2.03,2.03
103.29,1.58,1.58,-0.39,-0.40,0.41,0.34,0.33,2.00,1.99,1.98
104.32,1.56,1.56,-0.38,-0.37,0.38,0.31,0.29,1.95,1.95,1.94
105.37,1.54,1.54,-0.35,-0.35,0.36,0.27,0.25,1.90,1.90,1.89
106.42,1.51,1.52,-0.33,-0.33,0.34,0.23,0.21,1.85,1.85,1.85
107.48,1.49,1.50,-0.31,-0.30,0.32,0.20,0.17,1.82,1.82,1.80
108.56,1.46,1.47,-0.28,-0.28,0.31,0.16,0.13,1.78,1.78,1.75
109.64,1.44,1.41,-0.26,-0.29,0.30,0.13,0.09,1.75,1.72,1.70
110.74,1.35,1.35,-0.30,-0.30,0.29,0.09,0.05,1.64,1.64,1.65
111.85,1.26,1.30,-0.34,-0.30,0.26,0.06,0.02,1.52,1.56,1.61
112.97,1.28,1.28,-0.26,-0.27,0.22,0.03,-0.02,1.51,1.50,1.54
114.10,1.29,1.28,-0.20,-0.22,0.18,-0.01,-0.05,1.47,1.46,1.50
115.24,1.29,1.29,-0.15,-0.15,0.14,-0.04,-0.08,1.43,1.43,1.44
116.39,1.29,1.31,-0.09,-0.08,0.10,-0.07,-0.11,1.39,1.41,1.39
117.55,1.31,1.33,-0.02,-0.01,0.06,-0.10,-0.14,1.38,1.39,1.33
118.73,1.35,1.32,0.07,0.04,0.03,-0.13,-0.17,1.38,1.35,1.28
119.92,1.29,1.28,0.06,0.05,-0.00,-0.16,-0.19,1.29,1.28,1.24
121.12,1.20,1.20,0.02,0.02,-0.03,-0.19,-0.21,1.18,1.18,1.18
122.33,1.11,1.13,-0.02,-0.00,-0.06,-0.22,-0.24,1.06,1.08,1.13
123.55,1.08,1.11,-0.01,0.02,-0.09,-0.24,-0.26,1.00,1.02,1.09
124.79,1.13,1.11,0.10,0.07,-0.12,-0.27,-0.27,1.01,0.99,1.04
126.03,1.14,1.14,0.16,0.15,-0.16,-0.30,-0.29,0.98,0.98,0.99
127.29,1.15,1.16,0.22,0.22,-0.20,-0.32,-0.31,0.95,0.95,0.94
128.57,1.16,1.17,0.29,0.28,-0.25,-0.34,-0.32,0.91,0.92,0.88
129.85,1.16,1.17,0.33,0.34,-0.30,-0.37,-0.33,0.87,0.87,0.83
131.15,1.16,1.15,0.38,0.37,-0.33,-0.39,-0.34,0.83,0.82,0.78
132.46,1.10,1.10,0.37,0.37,-0.36,-0.41,-0.35,0.74,0.74,0.73
133.79,1.05,1.05,0.36,0.36,-0.37,-0.43,-0.36,0.68,0.68,0.70
135.12,0.98,1.01,0.34,0.36,-0.38,-0.45,-0.37,0.60,0.63,0.64
136.48,0.98,0.98,0.38,0.38,-0.39,-0.47,-0.37,0.59,0.59,0.61
137.84,0.98,0.94,0.42,0.38,-0.40,-0.49,-0.37,0.58,0.54,0.56
139.22,0.89,0.93,0.38,0.41,-0.41,-0.50,-0.38,0.48,0.52,0.51
140.61,0.85,0.90,0.39,0.43,-0.42,-0.52,-0.38,0.43,0.48,0.47
142.02,0.94,0.87,0.50,0.43,-0.43,-0.53,-0.38,0.52,0.44,0.44
143.44,0.83,0.85,0.43,0.45,-0.43,-0.55,-0.38,0.40,0.42,0.40
144.87,0.79,0.83,0.43,0.46,-0.43,-0.56,-0.38,0.36,0.40,0.36
146.32,0.79,0.78,0.47,0.45,-0.44,-0.57,-0.38,0.35,0.34,0.32
147.78,0.77,0.74,0.48,0.45,-0.46,-0.58,-0.38,0.31,0.28,0.29
149.26,0.67,0.69,0.42,0.44,-0.49,-0.59,-0.38,0.19,0.21,0.26
150.75,0.63,0.66,0.42,0.45,-0.51,-0.60,-0.38,0.12,0.15,0.21
152.26,0.67,0.66,0.50,0.49,-0.53,-0.61,-0.37,0.14,0.13,0.17
153.78,0.69,0.71,0.56,0.58,-0.54,-0.62,-0.37,0.15,0.17,0.14
155.32,0.74,0.75,0.65,0.65,-0.56,-0.63,-0.37,0.19,0.19,0.09
156.88,0.77,0.72,0.71,0.66,-0.58,-0.63,-0.37,0.19,0.14,0.06
158.44,0.64,0.63,0.63,0.61,-0.60,-0.64,-0.37,0.04,0.03,0.02
160.03,0.47,0.52,0.50,0.55,-0.62,-0.64,-0.36,-0.14,-0.10,-0.03
161.63,0.43,0.46,0.50,0.52,-0.62,-0.64,-0.36,-0.19,-0.17,-0.07
163.24,0.46,0.47,0.57,0.57,-0.61,-0.65,-0.36,-0.15,-0.14,-0.11
164.88,0.52,0.51,0.66,0.65,-0.59,-0.65,-0.36,-0.07,-0.08,-0.14
166.53,0.52,0.50,0.70,0.67,-0.58,-0.65,-0.36,-0.06,-0.09,-0.18
168.19,0.43,0.42,0.65,0.63,-0.58,-0.65,-0.36,-0.15,-0.17,-0.22
169.87,0.29,0.32,0.55,0.57,-0.60,-0.65,-0.36,-0.30,-0.28,-0.25
171.57,0.20,0.24,0.49,0.53,-0.60,-0.65,-0.36,-0.40,-0.36,-0.29
173.29,0.23,0.22,0.56,0.54,-0.60,-0.64,-0.36,-0.37,-0.38,-0.33
175.02,0.24,0.24,0.61,0.60,-0.60,-0.64,-0.36,-0.35,-0.36,-0.36
176.77,0.24,0.25,0.65,0.66,-0.60,-0.64,-0.36,-0.36,-0.35,-0.41
178.54,0.24,0.22,0.69,0.67,-0.62,-0.63,-0.36,-0.38,-0.40,-0.45
180.32,0.18,0.17,0.67,0.65,-0.67,-0.63,-0.36,-0.48,-0.50,-0.48
182.13,0.09,0.12,0.61,0.64,-0.71,-0.62,-0.36,-0.62,-0.59,-0.52
183.95,0.10,0.13,0.66,0.69,-0.74,-0.62,-0.36,-0.64,-0.61,-0.56
185.79,0.16,0.18,0.75,0.77,-0.76,-0.61,-0.37,-0.60,-0.59,-0.59
187.65,0.27,0.21,0.90,0.84,-0.78,-0.60,-0.37,-0.50,-0.56,-0.63
189.52,0.21,0.22,0.87,0.88,-0.79,-0.59,-0.37,-0.58,-0.57,-0.66
191.42,0.14,0.17,0.83,0.86,-0.82,-0.58,-0.38,-0.67,-0.65,-0.69
193.33,0.12,0.08,0.84,0.80,-0.85,-0.57,-0.38,-0.72,-0.76,-0.72
195.27,0.01,0.03,0.76,0.78,-0.87,-0.56,-0.39,-0.86,-0.84,-0.75
197.22,-0.02,0.02,0.76,0.80,-0.88,-0.55,-0.39,-0.89,-0.86,-0.78
199.19,0.04,0.05,0.86,0.86,-0.87,-0.54,-0.39,-0.83,-0.82,-0.81
201.18,0.13,0.10,0.96,0.93,-0.87,-0.53,-0.40,-0.73,-0.76,-0.83
203.19,0.13,0.10,0.98,0.95,-0.86,-0.52,-0.40,-0.73,-0.76,-0.85
205.23,0.03,0.05,0.90,0.91,-0.86,-0.50,-0.41,-0.83,-0.82,-0.87
207.28,-0.07,-0.05,0.81,0.83,-0.85,-0.49,-0.41,-0.92,-0.91,-0.88
209.35,-0.13,-0.14,0.77,0.76,-0.83,-0.48,-0.42,-0.95,-0.97,-0.90
211.44,-0.21,-0.17,0.72,0.75,-0.78,-0.46,-0.42,-0.99,-0.95,-0.92
213.56,-0.19,-0.18,0.74,0.75,-0.74,-0.45,-0.43,-0.92,-0.91,-0.93
215.69,-0.15,-0.21,0.78,0.73,-0.69,-0.43,-0.43,-0.84,-0.90,-0.93
217.85,-0.28,-0.28,0.67,0.67,-0.65,-0.42,-0.44,-0.93,-0.93,-0.94
220.03,-0.39,-0.38,0.57,0.58,-0.61,-0.40,-0.44,-1.00,-0.99,-0.96
222.23,-0.49,-0.42,0.48,0.54,-0.57,-0.39,-0.44,-1.06,-0.99,-0.97
224.45,-0.43,-0.43,0.53,0.53,-0.52,-0.37,-0.45,-0.95,-0.96,-0.96
226.70,-0.36,-0.44,0.60,0.52,-0.47,-0.36,-0.45,-0.83,-0.91,-0.96
228.96,-0.53,-0.48,0.44,0.47,-0.43,-0.34,-0.45,-0.96,-0.91,-0.96
231.25,-0.56,-0.57,0.40,0.38,-0.40,-0.32,-0.45,-0.96,-0.97,-0.95
233.57,-0.67,-0.65,0.29,0.31,-0.38,-0.30,-0.45,-1.05,-1.03,-0.95
235.90,-0.67,-0.65,0.29,0.31,-0.36,-0.29,-0.45,-1.03,-1.01,-0.95
238.26,-0.62,-0.63,0.34,0.32,-0.34,-0.27,-0.45,-0.95,-0.97,-0.95
240.64,-0.58,-0.59,0.36,0.35,-0.32,-0.25,-0.44,-0.89,-0.90,-0.94
243.05,-0.57,-0.57,0.36,0.36,-0.30,-0.23,-0.44,-0.86,-0.87,-0.93
245.48,-0.60,-0.60,0.32,0.32,-0.28,-0.21,-0.43,-0.88,-0.88,-0.92
247.93,-0.63,-0.63,0.28,0.27,-0.27,-0.19,-0.43,-0.90,-0.90,-0.91
250.41,-0.69,-0.66,0.22,0.23,-0.26,-0.18,-0.42,-0.94,-0.92,-0.90
252.92,-0.68,-0.68,0.20,0.20,-0.24,-0.16,-0.41,-0.92,-0.92,-0.88
255.45,-0.67,-0.67,0.19,0.19,-0.22,-0.14,-0.40,-0.89,-0.90,-0.86
258.00,-0.66,-0.66,0.19,0.18,-0.20,-0.12,-0.39,-0.86,-0.87,-0.85
260.58,-0.66,-0.65,0.18,0.18,-0.18,-0.10,-0.37,-0.84,-0.83,-0.83
263.19,-0.65,-0.62,0.16,0.20,-0.16,-0.08,-0.36,-0.80,-0.77,-0.81
265.82,-0.59,-0.60,0.21,0.19,-0.13,-0.06,-0.35,-0.72,-0.74,-0.80
268.48,-0.58,-0.63,0.19,0.14,-0.11,-0.04,-0.33,-0.68,-0.74,-0.77
271.16,-0.71,-0.68,0.04,0.07,-0.08,-0.02,-0.31,-0.78,-0.76,-0.75
273.87,-0.77,-0.74,-0.03,-0.01,-0.04,0.00,-0.30,-0.80,-0.78,-0.73
276.61,-0.77,-0.76,-0.06,-0.05,0.01,0.02,-0.28,-0.76,-0.75,-0.71
279.38,-0.75,-0.74,-0.05,-0.05,0.06,0.04,-0.26,-0.69,-0.69,-0.69
282.17,-0.72,-0.75,-0.04,-0.08,0.11,0.06,-0.24,-0.61,-0.65,-0.68
284.99,-0.78,-0.78,-0.12,-0.12,0.14,0.08,-0.22,-0.63,-0.64,-0.65
287.84,-0.85,-0.81,-0.21,-0.18,0.17,0.10,-0.19,-0.67,-0.64,-0.64
290.72,-0.84,-0.84,-0.22,-0.22,0.20,0.12,-0.17,-0.64,-0.64,-0.61
293.63,-0.83,-0.83,-0.23,-0.24,0.21,0.14,-0.15,-0.61,-0.62,-0.60
296.57,-0.82,-0.82,-0.24,-0.24,0.23,0.17,-0.12,-0.58,-0.58,-0.57
299.53,-0.81,-0.80,-0.25,-0.25,0.25,0.19,-0.10,-0.55,-0.55,-0.56
302.53,-0.79,-0.79,-0.25,-0.26,0.27,0.21,-0.07,-0.52,-0.52,-0.54
305.55,-0.78,-0.78,-0.27,-0.27,0.28,0.23,-0.05,-0.50,-0.50,-0.50
308.61,-0.77,-0.77,-0.28,-0.28,0.29,0.25,-0.02,-0.47,-0.48,-0.49
311.69,-0.77,-0.76,-0.31,-0.31,0.31,0.27,0.00,-0.46,-0.46,-0.46
314.81,-0.76,-0.76,-0.33,-0.33,0.32,0.29,0.03,-0.43,-0.44,-0.42
317.96,-0.76,-0.76,-0.35,-0.35,0.34,0.31,0.06,-0.42,-0.42,-0.41
321.14,-0.76,-0.76,-0.37,-0.37,0.36,0.33,0.08,-0.40,-0.40,-0.39
324.35,-0.76,-0.76,-0.38,-0.39,0.38,0.35,0.11,-0.37,-0.37,-0.37
327.59,-0.76,-0.76,-0.41,-0.41,0.41,0.37,0.14,-0.35,-0.35,-0.35
330.87,-0.76,-0.76,-0.43,-0.43,0.44,0.39,0.17,-0.32,-0.32,-0.33
334.18,-0.77,-0.76,-0.45,-0.45,0.47,0.41,0.20,-0.30,-0.29,-0.31
337.52,-0.77,-0.79,-0.47,-0.50,0.51,0.43,0.22,-0.26,-0.28,-0.29
340.90,-0.81,-0.82,-0.54,-0.55,0.55,0.45,0.25,-0.26,-0.27,-0.27
344.30,-0.90,-0.84,-0.65,-0.59,0.60,0.47,0.28,-0.30,-0.25,-0.25
347.75,-0.85,-0.88,-0.61,-0.65,0.64,0.50,0.31,-0.20,-0.23,-0.23
351.23,-0.89,-0.90,-0.67,-0.69,0.69,0.52,0.34,-0.20,-0.22,-0.21
354.74,-0.95,-0.92,-0.75,-0.73,0.72,0.54,0.37,-0.23,-0.20,-0.20
358.28,-0.96,-0.95,-0.78,-0.78,0.75,0.56,0.40,-0.21,-0.21,-0.18
361.87,-0.96,-0.96,-0.80,-0.79,0.77,0.58,0.43,-0.19,-0.19,-0.16
365.49,-0.95,-0.95,-0.79,-0.80,0.78,0.60,0.46,-0.16,-0.17,-0.15
369.14,-0.94,-0.94,-0.79,-0.80,0.80,0.62,0.50,-0.14,-0.14,-0.14
372.83,-0.94,-0.92,-0.81,-0.79,0.82,0.64,0.53,-0.12,-0.10,-0.13
376.56,-0.91,-0.92,-0.79,-0.81,0.84,0.66,0.56,-0.07,-0.08,-0.12
380.33,-0.91,-0.94,-0.82,-0.84,0.86,0.67,0.59,-0.05,-0.08,-0.09
384.13,-1.00,-0.96,-0.92,-0.88,0.89,0.69,0.62,-0.10,-0.07,-0.08
387.97,-1.01,-1.00,-0.93,-0.93,0.93,0.71,0.65,-0.08,-0.07,-0.07
391.85,-1.01,-1.04,-0.94,-0.98,0.97,0.73,0.69,-0.04,-0.07,-0.06
395.77,-1.07,-1.07,-1.02,-1.02,1.01,0.75,0.72,-0.06,-0.06,-0.05
399.73,-1.13,-1.10,-1.09,-1.06,1.04,0.77,0.75,-0.08,-0.06,-0.04
403.72,-1.12,-1.12,-1.09,-1.09,1.07,0.79,0.78,-0.05,-0.05,-0.03
407.76,-1.11,-1.12,-1.09,-1.10,1.09,0.81,0.82,-0.02,-0.03,-0.02
411.84,-1.12,-1.11,-1.12,-1.11,1.11,0.83,0.85,-0.01,-0.00,-0.00
415.96,-1.12,-1.10,-1.12,-1.11,1.13,0.85,0.88,0.01,0.03,0.01
420.12,-1.10,-1.10,-1.11,-1.11,1.15,0.86,0.91,0.05,0.05,0.02
424.32,-1.08,-1.11,-1.10,-1.13,1.16,0.88,0.94,0.09,0.06,0.03
428.56,-1.14,-1.13,-1.17,-1.16,1.17,0.90,0.98,0.04,0.04,0.03
432.85,-1.18,-1.15,-1.22,-1.20,1.18,0.92,1.01,-0.00,0.02,0.04
437.18,-1.16,-1.16,-1.21,-1.21,1.17,0.94,1.04,0.01,0.01,0.05
441.55,-1.13,-1.13,-1.20,-1.19,1.16,0.95,1.07,0.03,0.03,0.07
445.96,-1.08,-1.08,-1.16,-1.16,1.14,0.97,1.09,0.07,0.06,0.08
450.42,-1.03,-1.02,-1.12,-1.11,1.12,0.99,1.12,0.09,0.10,0.09
454.93,-0.97,-0.95,-1.08,-1.06,1.09,1.00,1.15,0.13,0.14,0.11
459.48,-0.89,-0.91,-1.00,-1.03,1.06,1.02,1.17,0.17,0.15,0.12
464.07,-0.86,-0.87,-0.99,-1.01,1.02,1.04,1.20,0.17,0.15,0.14
468.71,-0.87,-0.85,-1.02,-1.00,0.99,1.05,1.22,0.13,0.15,0.16
473.40,-0.83,-0.82,-0.99,-0.99,0.96,1.07,1.24,0.14,0.14,0.17
478.13,-0.78,-0.78,-0.96,-0.96,0.94,1.09,1.26,0.16,0.16,0.18
482.91,-0.73,-0.73,-0.92,-0.93,0.92,1.10,1.28,0.19,0.19,0.19
487.74,-0.69,-0.68,-0.90,-0.90,0.90,1.12,1.30,0.22,0.22,0.21
492.62,-0.65,-0.64,-0.88,-0.87,0.90,1.13,1.31,0.25,0.25,0.23
497.55,-0.62,-0.62,-0.86,-0.86,0.89,1.15,1.33,0.28,0.27,0.24
