frequency,raw,smoothed,error,error_smoothed,equalization,parametric_eq,fixed_band_eq,equalized_raw,equalized_smoothed,target
20.00,-0.44,-0.44,-9.45,-9.45,6.00,6.25,2.75,5.56,5.56,9.01
20.20,-0.39,-0.39,-9.40,-9.40,6.00,6.25,2.83,5.61,5.61,9.01
20.40,-0.34,-0.34,-9.34,-9.35,6.00,6.24,2.91,5.66,5.66,9.01
20.61,-0.29,-0.29,-9.30,-9.30,6.00,6.24,2.99,5.71,5.71,9.01
20.81,-0.25,-0.25,-9.25,-9.25,6.00,6.24,3.08,5.75,5.75,9.00
21.02,-0.20,-0.20,-9.20,-9.20,6.00,6.24,3.17,5.80,5.80,9.00
21.23,-0.15,-0.15,-9.15,-9.15,6.00,6.24,3.25,5.85,5.85,9.00
21.44,-0.10,-0.10,-9.10,-9.10,6.00,6.23,3.35,5.90,5.90,9.00
21.66,-0.06,-0.06,-9.06,-9.06,6.00,6.23,3.44,5.94,5.94,9.00
21.87,-0.01,-0.01,-9.01,-9.01,6.00,6.23,3.54,5.99,5.99,9.00
22.09,0.03,0.03,-8.97,-8.97,6.00,6.23,3.64,6.03,6.03,9.00
22.31,0.08,0.08,-8.92,-8.92,6.00,6.22,3.75,6.08,6.08,9.00
22.54,0.12,0.12,-8.88,-8.88,6.00,6.22,3.85,6.12,6.12,9.00
22.76,0.17,0.17,-8.83,-8.83,6.00,6.22,3.96,6.17,6.17,9.00
22.99,0.21,0.21,-8.79,-8.78,6.00,6.22,4.07,6.21,6.21,9.00
23.22,0.26,0.26,-8.73,-8.74,6.00,6.21,4.19,6.26,6.26,9.00
23.45,0.30,0.30,-8.69,-8.70,6.00,6.21,4.30,6.30,6.30,8.99
23.69,0.34,0.34,-8.65,-8.65,6.00,6.21,4.42,6.34,6.34,8.99
23.92,0.38,0.38,-8.61,-8.61,6.00,6.21,4.54,6.38,6.38,8.99
24.16,0.43,0.43,-8.56,-8.56,6.00,6.20,4.67,6.43,6.43,8.99
24.40,0.47,0.47,-8.52,-8.52,6.00,6.20,4.79,6.47,6.47,8.99
24.65,0.51,0.51,-8.48,-8.48,6.00,6.20,4.92,6.51,6.51,8.99
24.89,0.55,0.55,-8.44,-8.44,6.00,6.19,5.05,6.55,6.55,8.99
25.14,0.59,0.59,-8.39,-8.39,6.00,6.19,5.18,6.59,6.59,8.99
25.39,0.63,0.63,-8.35,-8.35,6.00,6.19,5.32,6.63,6.63,8.98
25.65,0.67,0.67,-8.31,-8.31,6.00,6.18,5.45,6.67,6.67,8.98
25.91,0.71,0.71,-8.27,-8.27,6.00,6.18,5.58,6.71,6.71,8.98
26.16,0.75,0.75,-8.23,-8.23,6.00,6.18,5.72,6.75,6.75,8.98
26.43,0.79,0.79,-8.19,-8.19,6.00,6.17,5.85,6.79,6.79,8.98
26.69,0.83,0.83,-8.15,-8.15,6.00,6.17,5.98,6.83,6.83,8.98
26.96,0.86,0.86,-8.11,-8.11,6.00,6.17,6.11,6.86,6.86,8.97
27.23,0.90,0.90,-8.07,-8.07,6.00,6.16,6.24,6.90,6.90,8.97
27.50,0.94,0.94,-8.03,-8.03,6.00,6.16,6.37,6.94,6.94,8.97
27.77,0.97,0.98,-8.00,-7.99,6.00,6.15,6.49,6.97,6.98,8.97
28.05,1.01,1.01,-7.96,-7.96,6.00,6.15,6.61,7.01,7.01,8.97
28.33,1.05,1.05,-7.91,-7.92,6.00,6.15,6.72,7.05,7.05,8.97
28.62,1.08,1.08,-7.88,-7.88,6.00,6.14,6.83,7.08,7.08,8.96
28.90,1.12,1.12,-7.84,-7.84,6.00,6.14,6.93,7.12,7.12,8.96
29.19,1.15,1.15,-7.81,-7.81,6.00,6.13,7.03,7.15,7.15,8.96
29.48,1.19,1.19,-7.76,-7.77,6.00,6.13,7.11,7.19,7.19,8.96
29.78,1.22,1.22,-7.73,-7.73,6.00,6.12,7.19,7.22,7.22,8.95
30.08,1.26,1.26,-7.69,-7.69,6.00,6.12,7.25,7.26,7.26,8.95
30.38,1.29,1.29,-7.66,-7.65,6.00,6.11,7.31,7.29,7.29,8.95
30.68,1.33,1.33,-7.61,-7.62,6.00,6.11,7.36,7.33,7.33,8.95
30.99,1.36,1.36,-7.58,-7.58,6.00,6.10,7.40,7.36,7.36,8.94
31.30,1.39,1.39,-7.55,-7.54,6.00,6.10,7.42,7.39,7.39,8.94
31.61,1.43,1.43,-7.51,-7.51,6.00,6.09,7.44,7.43,7.43,8.94
31.93,1.46,1.46,-7.47,-7.47,6.00,6.08,7.44,7.46,7.46,8.93
32.24,1.49,1.49,-7.44,-7.43,6.00,6.08,7.44,7.49,7.49,8.93
32.57,1.53,1.53,-7.40,-7.40,6.00,6.07,7.42,7.53,7.53,8.93
32.89,1.56,1.56,-7.36,-7.36,6.00,6.07,7.40,7.56,7.56,8.92
33.22,1.59,1.60,-7.33,-7.32,6.00,6.06,7.36,7.59,7.60,8.92
33.55,1.63,1.63,-7.28,-7.29,6.00,6.05,7.32,7.63,7.63,8.91
33.89,1.66,1.66,-7.25,-7.25,6.00,6.05,7.27,7.66,7.66,8.91
34.23,1.69,1.69,-7.22,-7.21,6.00,6.04,7.21,7.69,7.69,8.91
34.57,1.72,1.72,-7.18,-7.18,6.00,6.03,7.15,7.72,7.72,8.90
34.92,1.75,1.75,-7.15,-7.15,6.00,6.03,7.08,7.75,7.75,8.90
35.27,1.78,1.78,-7.11,-7.11,6.00,6.02,7.01,7.78,7.78,8.89
35.62,1.81,1.81,-7.08,-7.08,6.00,6.01,6.94,7.81,7.81,8.89
35.97,1.83,1.83,-7.05,-7.05,6.00,6.00,6.86,7.83,7.83,8.88
36.33,1.86,1.86,-7.02,-7.02,6.00,5.99,6.78,7.86,7.86,8.88
36.70,1.89,1.89,-6.98,-6.98,6.00,5.99,6.70,7.89,7.89,8.87
37.06,1.92,1.92,-6.95,-6.95,6.00,5.98,6.62,7.92,7.92,8.87
37.43,1.94,1.95,-6.92,-6.92,6.00,5.97,6.54,7.94,7.95,8.86
37.81,1.97,1.97,-6.88,-6.88,6.00,5.96,6.45,7.97,7.97,8.85
38.19,2.00,2.00,-6.85,-6.85,6.00,5.95,6.38,8.00,8.00,8.85
38.57,2.02,2.02,-6.82,-6.82,6.00,5.94,6.30,8.02,8.02,8.84
38.95,2.05,2.05,-6.78,-6.78,6.00,5.93,6.22,8.05,8.05,8.83
39.34,2.08,2.08,-6.75,-6.75,6.00,5.92,6.15,8.08,8.08,8.83
39.74,2.11,2.11,-6.71,-6.71,6.00,5.91,6.08,8.11,8.11,8.82
40.14,2.13,2.13,-6.68,-6.68,6.00,5.90,6.01,8.13,8.13,8.81
40.54,2.16,2.16,-6.64,-6.65,6.00,5.89,5.94,8.16,8.16,8.80
40.94,2.18,2.18,-6.62,-6.62,6.00,5.88,5.88,8.18,8.18,8.80
41.35,2.20,2.20,-6.59,-6.59,6.00,5.86,5.83,8.20,8.20,8.79
41.76,2.22,2.22,-6.56,-6.56,6.00,5.85,5.77,8.22,8.22,8.78
42.18,2.23,2.23,-6.54,-6.54,6.00,5.84,5.72,8.23,8.23,8.77
42.60,2.25,2.25,-6.51,-6.51,6.00,5.83,5.68,8.25,8.25,8.76
43.03,2.27,2.27,-6.48,-6.48,6.00,5.81,5.64,8.27,8.27,8.75
43.46,2.29,2.29,-6.45,-6.45,6.00,5.80,5.60,8.29,8.29,8.74
43.90,2.31,2.31,-6.42,-6.42,6.00,5.79,5.57,8.31,8.31,8.73
44.33,2.33,2.33,-6.39,-6.39,6.00,5.77,5.54,8.33,8.33,8.72
44.78,2.35,2.35,-6.36,-6.36,6.00,5.76,5.51,8.35,8.35,8.71
45.23,2.37,2.37,-6.33,-6.32,6.00,5.74,5.49,8.37,8.37,8.70
45.68,2.40,2.40,-6.28,-6.29,6.00,5.73,5.48,8.40,8.40,8.69
46.13,2.42,2.42,-6.25,-6.25,6.00,5.71,5.46,8.42,8.42,8.67
46.60,2.44,2.45,-6.22,-6.21,6.00,5.70,5.46,8.44,8.45,8.66
47.06,2.47,2.47,-6.18,-6.18,6.00,5.68,5.45,8.48,8.47,8.65
47.53,2.49,2.49,-6.14,-6.14,6.01,5.66,5.45,8.50,8.50,8.63
48.01,2.51,2.51,-6.11,-6.11,6.01,5.65,5.45,8.52,8.52,8.62
48.49,2.53,2.53,-6.07,-6.07,6.00,5.63,5.46,8.53,8.53,8.60
48.97,2.55,2.55,-6.04,-6.04,5.99,5.61,5.47,8.54,8.54,8.59
49.46,2.57,2.57,-6.00,-6.00,5.98,5.59,5.48,8.55,8.55,8.57
49.96,2.58,2.58,-5.98,-5.97,5.96,5.57,5.50,8.54,8.55,8.56
50.46,2.60,2.60,-5.94,-5.94,5.94,5.55,5.52,8.54,8.54,8.54
50.96,2.61,2.61,-5.91,-5.91,5.91,5.53,5.54,8.52,8.53,8.52
51.47,2.63,2.63,-5.87,-5.87,5.88,5.51,5.56,8.51,8.51,8.50
51.99,2.64,2.64,-5.84,-5.84,5.85,5.49,5.59,8.49,8.49,8.48
52.51,2.66,2.66,-5.81,-5.81,5.81,5.47,5.61,8.47,8.47,8.47
53.03,2.67,2.67,-5.77,-5.77,5.77,5.44,5.64,8.44,8.44,8.45
53.56,2.69,2.69,-5.73,-5.73,5.73,5.42,5.67,8.42,8.42,8.43
54.10,2.71,2.71,-5.69,-5.70,5.70,5.39,5.69,8.41,8.40,8.40
54.64,2.72,2.72,-5.66,-5.66,5.66,5.37,5.72,8.38,8.38,8.38
55.18,2.74,2.74,-5.62,-5.62,5.62,5.34,5.74,8.36,8.36,8.36
55.74,2.75,2.75,-5.59,-5.58,5.58,5.32,5.77,8.33,8.34,8.34
56.29,2.77,2.77,-5.54,-5.54,5.54,5.29,5.79,8.32,8.31,8.31
56.86,2.78,2.78,-5.51,-5.51,5.51,5.26,5.81,8.29,8.29,8.29
57.42,2.79,2.80,-5.47,-5.47,5.47,5.24,5.82,8.26,8.26,8.26
58.00,2.81,2.81,-5.42,-5.43,5.43,5.21,5.83,8.24,8.24,8.23
58.58,2.82,2.82,-5.39,-5.39,5.39,5.18,5.84,8.21,8.21,8.21
59.16,2.83,2.83,-5.35,-5.35,5.35,5.15,5.84,8.18,8.18,8.18
59.76,2.84,2.84,-5.31,-5.31,5.31,5.11,5.84,8.15,8.15,8.15
60.35,2.86,2.86,-5.26,-5.26,5.26,5.08,5.83,8.12,8.12,8.12
60.96,2.87,2.87,-5.22,-5.22,5.22,5.05,5.81,8.09,8.09,8.09
61.57,2.88,2.88,-5.18,-5.17,5.18,5.02,5.79,8.06,8.06,8.06
62.18,2.90,2.90,-5.13,-5.13,5.13,4.98,5.76,8.03,8.03,8.03
62.80,2.91,2.91,-5.08,-5.08,5.08,4.95,5.73,8.00,7.99,7.99
63.43,2.92,2.92,-5.04,-5.04,5.04,4.91,5.69,7.96,7.96,7.96
64.07,2.93,2.93,-4.99,-4.99,4.99,4.87,5.64,7.92,7.92,7.92
64.71,2.94,2.94,-4.95,-4.94,4.94,4.83,5.58,7.88,7.89,7.89
65.35,2.96,2.96,-4.89,-4.89,4.89,4.80,5.52,7.85,7.85,7.85
66.01,2.97,2.97,-4.84,-4.84,4.84,4.76,5.46,7.82,7.81,7.81
66.67,2.98,2.98,-4.79,-4.79,4.80,4.72,5.39,7.78,7.78,7.77
67.33,2.99,2.99,-4.74,-4.74,4.75,4.67,5.31,7.74,7.74,7.73
68.01,3.00,3.00,-4.69,-4.69,4.69,4.63,5.23,7.70,7.69,7.69
68.69,3.00,3.00,-4.65,-4.65,4.64,4.59,5.14,7.64,7.65,7.65
69.37,3.01,3.01,-4.60,-4.60,4.59,4.54,5.05,7.60,7.60,7.61
70.07,3.02,3.02,-4.54,-4.54,4.54,4.50,4.95,7.56,7.56,7.56
70.77,3.03,3.03,-4.49,-4.49,4.49,4.45,4.86,7.52,7.52,7.52
71.48,3.04,3.04,-4.43,-4.43,4.44,4.40,4.76,7.48,7.47,7.47
72.19,3.04,3.04,-4.38,-4.38,4.38,4.36,4.66,7.42,7.43,7.42
72.91,3.05,3.05,-4.33,-4.33,4.33,4.31,4.55,7.38,7.38,7.38
73.64,3.06,3.06,-4.27,-4.27,4.27,4.26,4.45,7.33,7.33,7.33
74.38,3.06,3.06,-4.22,-4.21,4.21,4.21,4.34,7.27,7.28,7.28
75.12,3.07,3.07,-4.16,-4.15,4.15,4.15,4.23,7.22,7.22,7.23
75.87,3.08,3.08,-4.09,-4.09,4.09,4.10,4.13,7.17,7.17,7.17
76.63,3.09,3.09,-4.03,-4.03,4.03,4.05,4.02,7.12,7.12,7.12
77.40,3.10,3.10,-3.97,-3.97,3.97,3.99,3.92,7.07,7.07,7.07
78.17,3.10,3.11,-3.91,-3.91,3.91,3.94,3.81,7.01,7.01,7.01
78.95,3.11,3.11,-3.84,-3.84,3.84,3.88,3.71,6.95,6.96,6.95
79.74,3.12,3.12,-3.78,-3.78,3.78,3.82,3.60,6.90,6.90,6.90
80.54,3.12,3.12,-3.72,-3.72,3.72,3.76,3.50,6.84,6.84,6.84
81.35,3.12,3.12,-3.66,-3.66,3.65,3.71,3.40,6.77,6.78,6.78
82.16,3.13,3.13,-3.59,-3.59,3.59,3.64,3.30,6.72,6.72,6.72
82.98,3.13,3.13,-3.53,-3.52,3.53,3.58,3.21,6.66,6.66,6.66
83.81,3.14,3.14,-3.46,-3.46,3.46,3.52,3.11,6.60,6.60,6.60
84.65,3.14,3.14,-3.39,-3.39,3.39,3.46,3.02,6.53,6.53,6.53
85.50,3.14,3.14,-3.33,-3.33,3.33,3.40,2.93,6.47,6.47,6.47
86.35,3.15,3.15,-3.25,-3.26,3.26,3.33,2.84,6.41,6.40,6.41
87.22,3.15,3.15,-3.19,-3.19,3.19,3.27,2.75,6.34,6.34,6.34
88.09,3.16,3.16,-3.11,-3.12,3.12,3.20,2.66,6.28,6.27,6.27
88.97,3.16,3.16,-3.05,-3.05,3.04,3.14,2.58,6.20,6.21,6.21
89.86,3.17,3.17,-2.97,-2.97,2.97,3.07,2.50,6.14,6.14,6.14
90.76,3.17,3.17,-2.90,-2.90,2.90,3.00,2.42,6.07,6.07,6.07
91.66,3.18,3.18,-2.82,-2.82,2.82,2.93,2.34,6.00,6.01,6.00
92.58,3.19,3.19,-2.74,-2.75,2.75,2.86,2.27,5.94,5.94,5.93
93.51,3.19,3.19,-2.67,-2.67,2.68,2.80,2.19,5.87,5.87,5.86
94.44,3.19,3.19,-2.60,-2.60,2.60,2.73,2.12,5.79,5.79,5.79
95.39,3.19,3.19,-2.53,-2.53,2.53,2.66,2.05,5.72,5.72,5.72
96.34,3.20,3.20,-2.45,-2.46,2.45,2.59,1.98,5.65,5.65,5.65
97.30,3.20,3.20,-2.38,-2.38,2.38,2.52,1.91,5.58,5.58,5.58
98.28,3.20,3.20,-2.31,-2.31,2.31,2.44,1.85,5.51,5.51,5.51
99.26,3.20,3.20,-2.24,-2.24,2.24,2.37,1.78,5.44,5.44,5.44
100.25,3.20,3.20,-2.16,-2.17,2.17,2.30,1.72,5.37,5.37,5.36
101.25,3.19,3.19,-2.10,-2.10,2.10,2.23,1.66,5.29,5.29,5.29
102.27,3.19,3.19,-2.03,-2.03,2.03,2.16,1.60,5.22,5.22,5.22
103.29,3.18,3.18,-1.97,-1.96,1.96,2.09,1.54,5.14,5.15,5.15
104.32,3.18,3.18,-1.89,-1.89,1.90,2.02,1.49,5.08,5.08,5.07
105.37,3.18,3.18,-1.82,-1.82,1.83,1.94,1.43,5.01,5.00,5.00
106.42,3.17,3.17,-1.76,-1.75,1.75,1.87,1.38,4.92,4.93,4.93
107.48,3.17,3.17,-1.68,-1.69,1.68,1.80,1.33,4.85,4.84,4.85
108.56,3.16,3.16,-1.62,-1.62,1.60,1.73,1.28,4.76,4.76,4.78
109.64,3.17,3.18,-1.54,-1.53,1.52,1.66,1.23,4.69,4.70,4.71
110.74,3.19,3.19,-1.44,-1.44,1.44,1.59,1.18,4.63,4.64,4.64
111.85,3.22,3.21,-1.34,-1.35,1.36,1.52,1.13,4.59,4.58,4.56
112.97,3.22,3.22,-1.27,-1.27,1.29,1.45,1.08,4.51,4.50,4.49
114.10,3.21,3.21,-1.21,-1.21,1.21,1.38,1.04,4.42,4.42,4.42
115.24,3.20,3.21,-1.15,-1.14,1.14,1.31,1.00,4.34,4.35,4.35
116.39,3.20,3.20,-1.08,-1.08,1.07,1.24,0.95,4.28,4.28,4.28
117.55,3.20,3.20,-1.01,-1.01,1.01,1.17,0.91,4.22,4.21,4.21
118.73,3.19,3.19,-0.95,-0.95,0.96,1.10,0.87,4.15,4.15,4.14
119.92,3.17,3.17,-0.90,-0.90,0.90,1.03,0.83,4.07,4.07,4.07
121.12,3.15,3.15,-0.85,-0.85,0.85,0.97,0.79,4.00,3.99,4.00
122.33,3.12,3.13,-0.81,-0.80,0.79,0.90,0.76,3.91,3.92,3.93
123.55,3.12,3.12,-0.74,-0.74,0.73,0.84,0.72,3.85,3.85,3.86
124.79,3.12,3.12,-0.68,-0.68,0.67,0.77,0.68,3.79,3.79,3.80
126.03,3.12,3.12,-0.61,-0.61,0.61,0.71,0.65,3.73,3.73,3.73
127.29,3.12,3.12,-0.54,-0.55,0.55,0.65,0.62,3.67,3.67,3.66
128.57,3.11,3.11,-0.49,-0.49,0.49,0.58,0.58,3.60,3.60,3.60
129.85,3.11,3.11,-0.43,-0.43,0.43,0.52,0.55,3.54,3.54,3.54
131.15,3.10,3.10,-0.37,-0.37,0.37,0.46,0.52,3.47,3.48,3.47
132.46,3.10,3.10,-0.31,-0.31,0.32,0.40,0.49,3.42,3.42,3.41
133.79,3.09,3.09,-0.26,-0.26,0.27,0.34,0.46,3.36,3.35,3.35
135.12,3.07,3.07,-0.22,-0.22,0.21,0.29,0.43,3.28,3.29,3.29
136.48,3.06,3.06,-0.17,-0.17,0.16,0.23,0.40,3.22,3.22,3.23
137.84,3.05,3.05,-0.12,-0.12,0.11,0.18,0.37,3.16,3.16,3.17
139.22,3.05,3.05,-0.06,-0.06,0.06,0.12,0.34,3.11,3.11,3.11
140.61,3.05,3.05,-0.01,-0.01,0.01,0.07,0.31,3.06,3.06,3.06
142.02,3.05,3.05,0.05,0.05,-0.04,0.02,0.28,3.01,3.01,3.00
143.44,3.04,3.04,0.09,0.09,-0.09,-0.03,0.25,2.95,2.95,2.95
144.87,3.03,3.03,0.14,0.14,-0.14,-0.08,0.23,2.89,2.90,2.89
146.32,3.02,3.02,0.18,0.18,-0.18,-0.13,0.20,2.84,2.84,2.84
147.78,3.01,3.01,0.22,0.22,-0.22,-0.18,0.17,2.79,2.79,2.79
149.26,3.00,3.00,0.26,0.26,-0.26,-0.22,0.15,2.74,2.74,2.74
150.75,2.99,2.99,0.30,0.30,-0.30,-0.27,0.12,2.69,2.69,2.69
152.26,2.97,2.97,0.33,0.33,-0.33,-0.31,0.09,2.64,2.64,2.64
153.78,2.96,2.96,0.37,0.37,-0.37,-0.35,0.06,2.59,2.59,2.59
155.32,2.95,2.95,0.40,0.40,-0.41,-0.39,0.04,2.54,2.54,2.55
156.88,2.94,2.94,0.44,0.44,-0.44,-0.43,0.01,2.50,2.50,2.50
158.44,2.93,2.93,0.47,0.47,-0.48,-0.47,-0.02,2.45,2.45,2.46
160.03,2.92,2.92,0.51,0.51,-0.51,-0.51,-0.05,2.41,2.41,2.41
161.63,2.91,2.91,0.55,0.55,-0.54,-0.54,-0.07,2.37,2.37,2.36
163.24,2.90,2.90,0.58,0.58,-0.57,-0.58,-0.10,2.33,2.33,2.32
164.88,2.88,2.88,0.60,0.60,-0.60,-0.61,-0.13,2.28,2.28,2.28
166.53,2.86,2.86,0.62,0.62,-0.63,-0.64,-0.16,2.23,2.24,2.24
168.19,2.85,2.85,0.65,0.65,-0.65,-0.67,-0.19,2.20,2.20,2.20
169.87,2.84,2.84,0.68,0.68,-0.68,-0.70,-0.22,2.16,2.16,2.16
171.57,2.83,2.83,0.70,0.70,-0.70,-0.73,-0.25,2.13,2.13,2.13
173.29,2.82,2.82,0.73,0.73,-0.72,-0.76,-0.28,2.10,2.10,2.09
175.02,2.81,2.81,0.75,0.75,-0.75,-0.78,-0.31,2.06,2.06,2.06
176.77,2.79,2.79,0.77,0.77,-0.77,-0.81,-0.34,2.02,2.03,2.02
178.54,2.78,2.78,0.79,0.79,-0.79,-0.83,-0.37,1.99,1.99,1.99
180.32,2.76,2.76,0.80,0.80,-0.81,-0.85,-0.40,1.95,1.95,1.96
182.13,2.75,2.75,0.82,0.82,-0.83,-0.87,-0.43,1.92,1.92,1.93
183.95,2.74,2.74,0.84,0.84,-0.84,-0.89,-0.46,1.90,1.90,1.90
185.79,2.73,2.73,0.86,0.86,-0.86,-0.91,-0.50,1.87,1.87,1.87
187.65,2.72,2.72,0.88,0.88,-0.87,-0.93,-0.53,1.85,1.85,1.84
189.52,2.71,2.71,0.90,0.89,-0.89,-0.94,-0.56,1.82,1.82,1.81
191.42,2.69,2.69,0.90,0.90,-0.90,-0.96,-0.60,1.79,1.79,1.79
193.33,2.67,2.67,0.91,0.91,-0.92,-0.97,-0.63,1.75,1.75,1.76
195.27,2.65,2.66,0.91,0.92,-0.93,-0.98,-0.66,1.72,1.73,1.74
197.22,2.65,2.65,0.94,0.94,-0.93,-1.00,-0.70,1.72,1.71,1.71
199.19,2.64,2.64,0.95,0.95,-0.94,-1.01,-0.73,1.70,1.70,1.69
201.18,2.62,2.62,0.96,0.95,-0.94,-1.01,-0.77,1.68,1.68,1.67
203.19,2.59,2.59,0.95,0.95,-0.95,-1.02,-0.80,1.64,1.65,1.64
205.23,2.57,2.57,0.95,0.95,-0.95,-1.03,-0.84,1.62,1.62,1.62
207.28,2.54,2.55,0.94,0.94,-0.95,-1.03,-0.87,1.59,1.59,1.60
209.35,2.53,2.53,0.95,0.95,-0.95,-1.04,-0.90,1.58,1.58,1.58
211.44,2.51,2.51,0.95,0.95,-0.95,-1.04,-0.93,1.56,1.56,1.56
213.56,2.50,2.50,0.96,0.96,-0.95,-1.04,-0.96,1.55,1.55,1.54
215.69,2.48,2.48,0.96,0.95,-0.95,-1.04,-1.00,1.53,1.53,1.52
217.85,2.45,2.46,0.94,0.95,-0.95,-1.04,-1.02,1.50,1.51,1.51
220.03,2.43,2.43,0.94,0.94,-0.95,-1.04,-1.05,1.48,1.49,1.49
222.23,2.42,2.42,0.95,0.94,-0.94,-1.04,-1.08,1.48,1.47,1.47
224.45,2.40,2.40,0.94,0.94,-0.94,-1.03,-1.11,1.46,1.46,1.46
226.70,2.38,2.38,0.94,0.94,-0.93,-1.03,-1.13,1.45,1.44,1.44
228.96,2.35,2.35,0.92,0.93,-0.93,-1.02,-1.15,1.42,1.42,1.43
231.25,2.33,2.33,0.92,0.92,-0.92,-1.02,-1.17,1.41,1.41,1.41
233.57,2.31,2.31,0.91,0.92,-0.92,-1.01,-1.19,1.39,1.39,1.40
235.90,2.29,2.29,0.92,0.91,-0.91,-1.00,-1.20,1.38,1.38,1.37
238.26,2.27,2.27,0.91,0.90,-0.90,-0.99,-1.21,1.37,1.37,1.36
240.64,2.24,2.24,0.89,0.90,-0.89,-0.98,-1.22,1.35,1.35,1.35
243.05,2.22,2.22,0.88,0.88,-0.89,-0.97,-1.23,1.33,1.33,1.34
245.48,2.20,2.20,0.88,0.87,-0.88,-0.96,-1.23,1.32,1.32,1.33
247.93,2.18,2.18,0.87,0.87,-0.87,-0.94,-1.23,1.31,1.31,1.31
250.41,2.16,2.16,0.86,0.86,-0.86,-0.93,-1.23,1.30,1.30,1.30
252.92,2.14,2.14,0.85,0.85,-0.84,-0.92,-1.22,1.30,1.30,1.29
255.45,2.12,2.12,0.84,0.83,-0.83,-0.90,-1.21,1.29,1.29,1.28
258.00,2.09,2.09,0.82,0.82,-0.82,-0.88,-1.20,1.27,1.27,1.27
260.58,2.06,2.06,0.80,0.80,-0.80,-0.86,-1.18,1.26,1.26,1.26
263.19,2.04,2.04,0.79,0.78,-0.79,-0.85,-1.17,1.25,1.25,1.25
265.82,2.01,2.01,0.77,0.77,-0.77,-0.83,-1.15,1.24,1.24,1.25
268.48,1.99,1.99,0.75,0.75,-0.76,-0.81,-1.12,1.23,1.23,1.24
271.16,1.97,1.97,0.74,0.74,-0.74,-0.79,-1.10,1.23,1.23,1.23
273.87,1.94,1.94,0.72,0.72,-0.72,-0.76,-1.07,1.22,1.22,1.22
276.61,1.92,1.92,0.71,0.71,-0.71,-0.74,-1.04,1.21,1.21,1.21
279.38,1.90,1.90,0.70,0.69,-0.69,-0.72,-1.01,1.21,1.21,1.21
282.17,1.87,1.87,0.67,0.67,-0.67,-0.69,-0.97,1.20,1.21,1.20
284.99,1.85,1.85,0.65,0.65,-0.65,-0.67,-0.94,1.20,1.20,1.20
287.84,1.82,1.82,0.62,0.62,-0.62,-0.64,-0.90,1.20,1.20,1.20
290.72,1.79,1.79,0.59,0.60,-0.60,-0.62,-0.86,1.19,1.20,1.20
293.63,1.77,1.77,0.58,0.57,-0.57,-0.59,-0.82,1.20,1.20,1.19
296.57,1.74,1.74,0.54,0.54,-0.54,-0.56,-0.78,1.20,1.20,1.20
299.53,1.71,1.71,0.51,0.52,-0.52,-0.54,-0.74,1.20,1.20,1.20
302.53,1.68,1.68,0.49,0.49,-0.49,-0.51,-0.69,1.19,1.20,1.19
305.55,1.66,1.66,0.46,0.46,-0.46,-0.48,-0.65,1.20,1.20,1.20
308.61,1.63,1.63,0.44,0.43,-0.43,-0.45,-0.61,1.20,1.20,1.19
311.69,1.60,1.60,0.40,0.40,-0.41,-0.42,-0.56,1.19,1.19,1.20
314.81,1.57,1.57,0.38,0.38,-0.38,-0.39,-0.52,1.19,1.20,1.19
317.96,1.55,1.55,0.35,0.35,-0.35,-0.36,-0.47,1.20,1.20,1.20
321.14,1.53,1.53,0.33,0.33,-0.32,-0.32,-0.43,1.21,1.20,1.20
324.35,1.50,1.50,0.30,0.30,-0.30,-0.29,-0.38,1.20,1.20,1.20
327.59,1.47,1.47,0.26,0.27,-0.27,-0.26,-0.33,1.20,1.20,1.21
330.87,1.44,1.44,0.24,0.24,-0.24,-0.22,-0.29,1.20,1.20,1.20
334.18,1.42,1.42,0.21,0.21,-0.21,-0.19,-0.24,1.21,1.21,1.21
337.52,1.39,1.39,0.18,0.18,-0.18,-0.16,-0.20,1.21,1.21,1.21
340.90,1.36,1.36,0.15,0.15,-0.15,-0.12,-0.15,1.21,1.21,1.21
344.30,1.33,1.33,0.11,0.12,-0.11,-0.09,-0.10,1.22,1.22,1.22
347.75,1.31,1.31,0.09,0.08,-0.08,-0.05,-0.06,1.23,1.23,1.23
351.23,1.28,1.28,0.06,0.05,-0.05,-0.01,-0.01,1.23,1.23,1.22
354.74,1.24,1.25,0.00,0.01,-0.01,0.02,0.03,1.23,1.23,1.24
358.28,1.21,1.21,-0.03,-0.03,0.02,0.06,0.08,1.23,1.23,1.24
361.87,1.18,1.18,-0.06,-0.06,0.06,0.10,0.12,1.24,1.24,1.24
365.49,1.15,1.15,-0.10,-0.09,0.09,0.13,0.17,1.24,1.25,1.25
369.14,1.13,1.13,-0.12,-0.13,0.13,0.17,0.22,1.26,1.25,1.25
372.83,1.10,1.10,-0.16,-0.16,0.16,0.21,0.26,1.26,1.26,1.27
376.56,1.07,1.07,-0.19,-0.19,0.19,0.25,0.31,1.27,1.27,1.26
380.33,1.04,1.04,-0.23,-0.23,0.23,0.28,0.35,1.27,1.27,1.27
384.13,1.01,1.01,-0.26,-0.26,0.26,0.32,0.40,1.27,1.27,1.27
387.97,0.99,0.99,-0.29,-0.29,0.29,0.36,0.44,1.28,1.28,1.28
391.85,0.96,0.96,-0.33,-0.33,0.33,0.40,0.49,1.29,1.29,1.29
395.77,0.93,0.93,-0.36,-0.36,0.36,0.44,0.53,1.29,1.29,1.29
399.73,0.90,0.90,-0.40,-0.40,0.39,0.48,0.58,1.29,1.30,1.30
403.72,0.88,0.88,-0.43,-0.43,0.43,0.52,0.62,1.31,1.31,1.31
407.76,0.85,0.85,-0.46,-0.46,0.46,0.56,0.67,1.31,1.31,1.31
411.84,0.82,0.82,-0.49,-0.49,0.50,0.60,0.71,1.32,1.32,1.31
415.96,0.79,0.79,-0.53,-0.53,0.53,0.64,0.75,1.32,1.32,1.32
420.12,0.75,0.75,-0.57,-0.57,0.57,0.68,0.80,1.32,1.32,1.32
424.32,0.72,0.72,-0.61,-0.61,0.61,0.72,0.84,1.33,1.33,1.33
428.56,0.69,0.69,-0.65,-0.65,0.64,0.76,0.88,1.33,1.33,1.34
432.85,0.66,0.66,-0.69,-0.68,0.68,0.80,0.92,1.34,1.34,1.35
437.18,0.63,0.63,-0.71,-0.72,0.72,0.84,0.96,1.35,1.35,1.35
441.55,0.60,0.60,-0.75,-0.75,0.76,0.88,1.00,1.36,1.36,1.35
445.96,0.57,0.57,-0.79,-0.80,0.80,0.92,1.04,1.37,1.37,1.36
450.42,0.54,0.54,-0.84,-0.84,0.83,0.96,1.08,1.37,1.37,1.38
454.93,0.51,0.51,-0.88,-0.88,0.87,0.99,1.11,1.38,1.38,1.39
459.48,0.49,0.49,-0.91,-0.91,0.91,1.03,1.15,1.40,1.39,1.40
464.07,0.46,0.46,-0.94,-0.94,0.94,1.07,1.18,1.40,1.40,1.40
468.71,0.43,0.43,-0.98,-0.98,0.98,1.11,1.22,1.41,1.41,1.41
473.40,0.40,0.40,-1.02,-1.01,1.01,1.15,1.25,1.41,1.42,1.42
478.13,0.37,0.37,-1.05,-1.05,1.05,1.19,1.28,1.42,1.42,1.42
482.91,0.35,0.35,-1.08,-1.09,1.08,1.23,1.31,1.43,1.43,1.43
487.74,0.32,0.32,-1.12,-1.12,1.12,1.27,1.33,1.44,1.44,1.44
492.62,0.30,0.30,-1.15,-1.15,1.15,1.31,1.36,1.45,1.46,1.45
497.55,0.28,0.28,-1.18,-1.18,1.19,1.34,1.38,1.47,1.47,1.46
502.52,0.25,0.25,-1.22,-1.22,1.23,1.38,1.40,1.48,1.48,1.47
507.55,0.22,0.22,-1.27,-1.27,1.27,1.42,1.42,1.49,1.49,1.49
512.62,0.18,0.18,-1.32,-1.31,1.31,1.46,1.44,1.49,1.49,1.50
517.75,0.15,0.15,-1.36,-1.36,1.35,1.49,1.46,1.50,1.50,1.51
522.93,0.12,0.12,-1.40,-1.40,1.39,1.53,1.47,1.51,1.51,1.52
528.16,0.09,0.09,-1.44,-1.44,1.43,1.57,1.49,1.52,1.52,1.53
533.44,0.06,0.06,-1.47,-1.47,1.47,1.60,1.50,1.53,1.53,1.54
538.77,0.03,0.03,-1.50,-1.51,1.51,1.64,1.51,1.54,1.55,1.53
544.16,0.01,0.01,-1.54,-1.55,1.55,1.67,1.52,1.56,1.56,1.55
549.60,-0.02,-0.02,-1.58,-1.58,1.59,1.71,1.53,1.57,1.57,1.56
555.10,-0.05,-0.05,-1.63,-1.63,1.63,1.74,1.54,1.58,1.58,1.58
560.65,-0.07,-0.07,-1.66,-1.67,1.66,1.77,1.55,1.59,1.59,1.59
566.25,-0.10,-0.10,-1.70,-1.70,1.70,1.81,1.56,1.60,1.60,1.60
