frequency,raw
20.00,-8.18
20.20,-8.11
20.40,-8.04
20.61,-7.97
20.81,-7.90
21.02,-7.83
21.23,-7.77
21.44,-7.70
21.66,-7.63
21.87,-7.57
22.09,-7.50
22.31,-7.43
22.54,-7.35
22.76,-7.28
22.99,-7.20
23.22,-7.13
23.45,-7.06
23.69,-6.99
23.92,-6.91
24.16,-6.84
24.40,-6.77
24.65,-6.70
24.89,-6.63
25.14,-6.56
25.39,-6.48
25.65,-6.40
25.91,-6.33
26.16,-6.25
26.43,-6.18
26.69,-6.11
26.96,-6.03
27.23,-5.96
27.50,-5.88
27.77,-5.80
28.05,-5.73
28.33,-5.66
28.62,-5.59
28.90,-5.51
29.19,-5.44
29.48,-5.37
29.78,-5.30
30.08,-5.23
30.38,-5.17
30.68,-5.10
30.99,-5.03
31.30,-4.97
31.61,-4.91
31.93,-4.84
32.24,-4.78
32.57,-4.72
32.89,-4.66
33.22,-4.60
33.55,-4.55
33.89,-4.49
34.23,-4.43
34.57,-4.38
34.92,-4.32
35.27,-4.26
35.62,-4.20
35.97,-4.14
36.33,-4.09
36.70,-4.03
37.06,-3.98
37.43,-3.92
37.81,-3.87
38.19,-3.81
38.57,-3.76
38.95,-3.71
39.34,-3.65
39.74,-3.60
40.14,-3.54
40.54,-3.48
40.94,-3.43
41.35,-3.37
41.76,-3.32
42.18,-3.27
42.60,-3.22
43.03,-3.17
43.46,-3.11
43.90,-3.06
44.33,-3.01
44.78,-2.96
45.23,-2.91
45.68,-2.86
46.13,-2.82
46.60,-2.77
47.06,-2.72
47.53,-2.68
48.01,-2.63
48.49,-2.59
48.97,-2.54
49.46,-2.50
49.96,-2.46
50.46,-2.42
50.96,-2.38
51.47,-2.34
51.99,-2.30
52.51,-2.26
53.03,-2.23
53.56,-2.20
54.10,-2.16
54.64,-2.13
55.18,-2.09
55.74,-2.06
56.29,-2.04
56.86,-2.01
57.42,-1.98
58.00,-1.95
58.58,-1.92
59.16,-1.89
59.76,-1.86
60.35,-1.83
60.96,-1.80
61.57,-1.77
62.18,-1.74
62.80,-1.70
63.43,-1.66
64.07,-1.63
64.71,-1.61
65.35,-1.59
66.01,-1.57
66.67,-1.56
67.33,-1.56
68.01,-1.55
68.69,-1.55
69.37,-1.55
70.07,-1.54
70.77,-1.53
71.48,-1.52
72.19,-1.51
72.91,-1.49
73.64,-1.46
74.38,-1.44
75.12,-1.43
75.87,-1.42
76.63,-1.41
77.40,-1.41
78.17,-1.40
78.95,-1.39
79.74,-1.37
80.54,-1.35
81.35,-1.33
82.16,-1.32
82.98,-1.31
83.81,-1.30
84.65,-1.29
85.50,-1.28
86.35,-1.28
87.22,-1.27
88.09,-1.26
88.97,-1.24
89.86,-1.24
90.76,-1.24
91.66,-1.23
92.58,-1.22
93.51,-1.21
94.44,-1.21
95.39,-1.22
96.34,-1.20
97.30,-1.19
98.28,-1.20
99.26,-1.20
100.25,-1.21
101.25,-1.23
102.27,-1.24
103.29,-1.25
104.32,-1.26
105.37,-1.26
106.42,-1.26
107.48,-1.26
108.56,-1.24
109.64,-1.24
110.74,-1.25
111.85,-1.26
112.97,-1.26
114.10,-1.27
115.24,-1.27
116.39,-1.29
117.55,-1.31
118.73,-1.31
119.92,-1.30
121.12,-1.30
122.33,-1.28
123.55,-1.26
124.79,-1.26
126.03,-1.26
127.29,-1.28
128.57,-1.30
129.85,-1.33
131.15,-1.34
132.46,-1.35
133.79,-1.33
135.12,-1.32
136.48,-1.31
137.84,-1.31
139.22,-1.32
140.61,-1.34
142.02,-1.37
143.44,-1.38
144.87,-1.38
146.32,-1.38
147.78,-1.37
149.26,-1.36
150.75,-1.35
152.26,-1.36
153.78,-1.38
155.32,-1.41
156.88,-1.43
158.44,-1.44
160.03,-1.45
161.63,-1.44
163.24,-1.43
164.88,-1.43
166.53,-1.43
168.19,-1.44
169.87,-1.45
171.57,-1.48
173.29,-1.50
175.02,-1.52
176.77,-1.55
178.54,-1.57
180.32,-1.59
182.13,-1.61
183.95,-1.62
185.79,-1.61
187.65,-1.60
189.52,-1.60
191.42,-1.61
193.33,-1.63
195.27,-1.64
197.22,-1.66
199.19,-1.68
201.18,-1.69
203.19,-1.68
205.23,-1.67
207.28,-1.66
209.35,-1.65
211.44,-1.63
213.56,-1.61
215.69,-1.59
217.85,-1.57
220.03,-1.56
222.23,-1.57
224.45,-1.58
226.70,-1.59
228.96,-1.60
231.25,-1.61
233.57,-1.61
235.90,-1.61
238.26,-1.60
240.64,-1.60
243.05,-1.59
245.48,-1.59
247.93,-1.58
250.41,-1.57
252.92,-1.55
255.45,-1.53
258.00,-1.51
260.58,-1.48
263.19,-1.45
265.82,-1.41
268.48,-1.38
271.16,-1.34
273.87,-1.30
276.61,-1.27
279.38,-1.24
282.17,-1.22
284.99,-1.20
287.84,-1.18
290.72,-1.17
293.63,-1.17
296.57,-1.17
299.53,-1.17
302.53,-1.17
305.55,-1.17
308.61,-1.16
311.69,-1.16
314.81,-1.15
317.96,-1.13
321.14,-1.12
324.35,-1.10
327.59,-1.07
330.87,-1.05
334.18,-1.03
337.52,-1.00
340.90,-0.99
344.30,-0.96
347.75,-0.95
351.23,-0.93
354.74,-0.92
358.28,-0.91
361.87,-0.91
365.49,-0.90
369.14,-0.89
372.83,-0.88
376.56,-0.88
380.33,-0.88
384.13,-0.89
387.97,-0.90
391.85,-0.93
395.77,-0.96
399.73,-1.00
403.72,-1.05
407.76,-1.10
411.84,-1.16
415.96,-1.22
420.12,-1.29
424.32,-1.35
428.56,-1.42
432.85,-1.51
437.18,-1.59
441.55,-1.67
445.96,-1.75
450.42,-1.82
454.93,-1.85
459.48,-1.88
464.07,-1.87
468.71,-1.86
473.40,-1.87
478.13,-1.89
482.91,-1.95
487.74,-2.04
492.62,-2.12
497.55,-2.18
502.52,-2.21
507.55,-2.21
512.62,-2.15
517.75,-2.05
522.93,-1.93
528.16,-1.78
533.44,-1.63
538.77,-1.49
544.16,-1.36
549.60,-1.26
555.10,-1.15
560.65,-1.04
566.25,-0.96
571.92,-0.87
577.64,-0.78
583.41,-0.69
589.25,-0.61
595.14,-0.52
601.09,-0.44
607.10,-0.35
613.17,-0.28
619.30,-0.22
625.50,-0.16
631.75,-0.13
638.07,-0.10
644.45,-0.10
650.89,-0.11
657.40,-0.13
663.98,-0.15
670.62,-0.18
677.32,-0.20
684.10,-0.21
690.94,-0.20
697.85,-0.19
704.83,-0.16
711.87,-0.12
718.99,-0.08
726.18,-0.02
733.44,0.05
740.78,0.14
748.19,0.22
755.67,0.30
763.23,0.36
770.86,0.43
778.57,0.48
786.35,0.52
794.22,0.55
802.16,0.58
810.18,0.60
818.28,0.62
826.46,0.62
834.73,0.61
843.08,0.59
851.51,0.54
860.02,0.47
868.62,0.38
877.31,0.27
886.08,0.18
894.94,0.10
903.89,0.04
912.93,0.02
922.06,0.01
931.28,0.01
940.59,0.02
950.00,0.01
959.50,0.00
969.09,-0.01
978.78,-0.01
988.57,-0.01
998.46,-0.00
1008.44,0.02
1018.53,0.04
1028.71,0.05
1039.00,0.06
1049.39,0.06
1059.88,0.06
1070.48,0.06
1081.19,0.05
1092.00,0.03
1102.92,0.01
1113.95,-0.01
1125.09,-0.03
1136.34,-0.06
1147.70,-0.08
1159.18,-0.08
1170.77,-0.07
1182.48,-0.04
1194.30,0.00
1206.25,0.04
1218.31,0.09
1230.49,0.13
1242.80,0.18
1255.22,0.23
1267.78,0.29
1280.45,0.36
1293.26,0.42
1306.19,0.48
1319.25,0.52
1332.45,0.55
1345.77,0.58
1359.23,0.59
1372.82,0.60
1386.55,0.62
1400.41,0.65
1414.42,0.70
1428.56,0.78
1442.85,0.87
1457.28,0.97
1471.85,1.08
1486.57,1.18
1501.43,1.28
1516.45,1.37
1531.61,1.45
1546.93,1.52
1562.40,1.58
1578.02,1.63
1593.80,1.66
1609.74,1.69
1625.84,1.70
1642.10,1.71
1658.52,1.71
1675.10,1.72
1691.85,1.72
1708.77,1.73
1725.86,1.72
1743.12,1.70
1760.55,1.66
1778.15,1.59
1795.94,1.52
1813.90,1.45
1832.03,1.38
1850.36,1.39
1868.86,1.45
1887.55,1.58
1906.42,1.75
1925.49,1.94
1944.74,2.14
1964.19,2.29
1983.83,2.43
2003.67,2.55
2023.71,2.66
2043.94,2.76
2064.38,2.87
2085.03,2.96
2105.88,3.04
2126.94,3.12
2148.20,3.20
2169.69,3.30
2191.38,3.42
2213.30,3.60
2235.43,3.84
2257.78,4.15
2280.36,4.48
2303.17,4.83
2326.20,5.20
2349.46,5.56
2372.95,5.92
2396.68,6.30
2420.65,6.64
2444.86,6.95
2469.31,7.23
2494.00,7.47
2518.94,7.66
2544.13,7.82
2569.57,7.93
2595.27,8.01
2621.22,8.07
2647.43,8.11
2673.90,8.18
2700.64,8.31
2727.65,8.50
2754.93,8.75
2782.48,9.04
2810.30,9.32
2838.40,9.57
2866.79,9.76
2895.46,9.86
2924.41,9.88
2953.65,9.83
2983.19,9.73
3013.02,9.60
3043.15,9.47
3073.58,9.34
3104.32,9.22
3135.36,9.10
3166.72,9.00
3198.38,8.93
3230.37,8.89
3262.67,8.88
3295.30,8.91
3328.25,8.95
3361.53,8.99
3395.15,8.99
3429.10,8.97
3463.39,8.90
3498.03,8.78
3533.01,8.61
3568.34,8.43
3604.02,8.23
3640.06,8.05
3676.46,7.88
3713.22,7.73
3750.36,7.60
3787.86,7.49
3825.74,7.39
3864.00,7.28
3902.64,7.14
3941.66,6.98
3981.08,6.78
4020.89,6.54
4061.10,6.30
4101.71,6.02
4142.73,5.74
4184.15,5.48
4226.00,5.26
4268.26,5.10
4310.94,4.99
4354.05,4.94
4397.59,4.90
4441.56,4.85
4485.98,4.80
4530.84,4.72
4576.15,4.62
4621.91,4.51
4668.13,4.37
4714.81,4.21
4761.96,4.02
4809.58,3.81
4857.67,3.62
4906.25,3.46
4955.31,3.34
5004.87,3.27
5054.91,3.25
5105.46,3.24
5156.52,3.17
5208.08,3.01
5260.16,2.75
5312.77,2.39
5365.89,2.02
5419.55,1.68
5473.75,1.41
5528.49,1.27
5583.77,1.22
5639.61,1.24
5696.00,1.30
5752.96,1.41
5810.49,1.56
5868.60,1.78
5927.28,2.03
5986.56,2.31
6046.42,2.64
6106.89,2.99
6167.96,3.36
6229.64,3.73
6291.93,4.10
6354.85,4.48
6418.40,4.89
6482.58,5.29
6547.41,5.69
6612.88,6.07
6679.01,6.42
6745.80,6.76
6813.26,7.10
6881.39,7.37
6950.21,7.62
7019.71,7.86
7089.91,8.05
7160.81,8.24
7232.41,8.41
7304.74,8.54
7377.79,8.61
7451.56,8.63
7526.08,8.58
7601.34,8.49
7677.35,8.38
7754.13,8.27
7831.67,8.20
7909.98,8.17
7989.08,8.16
8068.98,8.23
8149.67,8.37
8231.16,8.55
8313.47,8.80
8396.61,9.05
8480.57,9.28
8565.38,9.45
8651.03,9.48
8737.54,9.36
8824.92,9.06
8913.17,8.72
9002.30,8.25
9092.32,7.52
9183.25,6.95
9275.08,6.58
9367.83,5.88
9461.51,5.14
9556.12,4.48
9651.68,3.84
9748.20,3.06
9845.68,2.14
9944.14,1.11
10043.58,-0.08
10144.02,-1.40
10245.46,-2.81
10347.91,-4.33
10451.39,-5.90
10555.91,-7.36
10661.46,-8.61
10768.08,-9.54
10875.76,-10.15
10984.52,-10.45
11094.36,-10.27
11205.31,-9.76
11317.36,-8.94
11430.53,-7.81
11544.84,-7.14
11660.29,-6.76
11776.89,-5.96
11894.66,-5.56
12013.60,-5.58
12133.74,-5.48
12255.08,-5.67
12377.63,-5.96
12501.41,-6.18
12626.42,-6.40
12752.68,-6.69
12880.21,-7.06
13009.01,-7.51
13139.10,-7.97
13270.49,-8.28
13403.20,-8.30
13537.23,-8.06
13672.60,-7.62
13809.33,-7.00
13947.42,-6.16
14086.90,-5.20
14227.77,-4.21
14370.04,-3.35
14513.74,-2.67
14658.88,-2.18
14805.47,-2.04
14953.52,-2.17
15103.06,-2.52
15254.09,-3.16
15406.63,-3.99
15560.70,-4.93
15716.30,-5.91
15873.47,-6.79
16032.20,-7.51
16192.52,-7.97
16354.45,-8.04
16517.99,-7.85
16683.17,-7.39
16850.01,-6.77
17018.51,-6.15
17188.69,-5.62
17360.58,-5.35
17534.18,-5.32
17709.53,-5.46
17886.62,-5.80
18065.49,-6.24
18246.14,-6.78
18428.60,-7.41
18612.89,-8.16
18799.02,-8.96
18987.01,-9.76
19176.88,-10.36
19368.65,-10.65
19562.33,-10.59
19757.96,-10.01
19955.54,-9.17
