frequency,raw,smoothed,error,error_smoothed,equalization,parametric_eq,fixed_band_eq,equalized_raw,equalized_smoothed,target
20.00,-4.83,-4.82,-9.06,-9.05,6.00,5.71,2.74,1.17,1.18,4.23
20.20,-4.75,-4.75,-9.01,-9.01,6.00,5.71,2.82,1.25,1.25,4.26
20.40,-4.67,-4.67,-8.96,-8.96,6.00,5.70,2.90,1.33,1.33,4.29
20.61,-4.59,-4.59,-8.90,-8.90,6.00,5.70,2.98,1.41,1.41,4.31
20.81,-4.51,-4.51,-8.84,-8.85,6.00,5.70,3.06,1.49,1.49,4.34
21.02,-4.43,-4.42,-8.79,-8.78,6.00,5.70,3.15,1.57,1.58,4.37
21.23,-4.33,-4.33,-8.70,-8.71,6.00,5.70,3.24,1.67,1.67,4.38
21.44,-4.22,-4.22,-8.61,-8.61,6.00,5.70,3.33,1.78,1.78,4.39
21.66,-4.13,-4.12,-8.52,-8.51,6.00,5.70,3.43,1.87,1.88,4.40
21.87,-4.03,-4.04,-8.42,-8.43,6.00,5.70,3.53,1.97,1.96,4.40
22.09,-3.97,-3.98,-8.37,-8.39,6.00,5.70,3.63,2.03,2.02,4.41
22.31,-3.98,-3.97,-8.38,-8.37,6.00,5.70,3.73,2.02,2.03,4.40
22.54,-3.98,-3.98,-8.38,-8.38,6.00,5.70,3.84,2.02,2.02,4.40
22.76,-3.99,-3.99,-8.39,-8.39,6.00,5.70,3.95,2.01,2.01,4.40
22.99,-3.99,-3.97,-8.38,-8.36,6.00,5.69,4.06,2.01,2.03,4.39
23.22,-3.93,-3.93,-8.32,-8.32,6.00,5.69,4.17,2.07,2.07,4.39
23.45,-3.86,-3.87,-8.25,-8.26,6.00,5.69,4.29,2.14,2.13,4.39
23.69,-3.80,-3.80,-8.19,-8.19,6.00,5.69,4.41,2.20,2.20,4.39
23.92,-3.72,-3.72,-8.11,-8.11,6.00,5.69,4.53,2.28,2.28,4.39
24.16,-3.64,-3.64,-8.03,-8.03,6.00,5.69,4.65,2.36,2.36,4.40
24.40,-3.53,-3.53,-7.93,-7.93,6.00,5.69,4.78,2.47,2.47,4.40
24.65,-3.44,-3.43,-7.82,-7.82,6.00,5.69,4.90,2.56,2.57,4.39
24.89,-3.33,-3.34,-7.71,-7.73,6.00,5.69,5.03,2.67,2.66,4.39
25.14,-3.28,-3.28,-7.66,-7.67,6.00,5.68,5.16,2.72,2.72,4.39
25.39,-3.26,-3.25,-7.64,-7.64,6.00,5.68,5.30,2.74,2.75,4.38
25.65,-3.24,-3.24,-7.62,-7.62,6.00,5.68,5.43,2.76,2.76,4.38
25.91,-3.23,-3.21,-7.60,-7.58,6.00,5.68,5.56,2.77,2.79,4.37
26.16,-3.15,-3.15,-7.53,-7.52,6.00,5.68,5.70,2.85,2.85,4.37
26.43,-3.07,-3.07,-7.44,-7.43,6.00,5.68,5.83,2.93,2.93,4.37
26.69,-2.98,-2.97,-7.34,-7.34,6.00,5.67,5.96,3.02,3.03,4.37
26.96,-2.88,-2.90,-7.24,-7.27,6.00,5.67,6.09,3.12,3.10,4.37
27.23,-2.86,-2.86,-7.22,-7.22,6.00,5.67,6.22,3.14,3.14,4.37
27.50,-2.85,-2.84,-7.21,-7.20,6.00,5.67,6.34,3.15,3.16,4.36
27.77,-2.84,-2.83,-7.19,-7.19,6.00,5.67,6.46,3.16,3.17,4.35
28.05,-2.82,-2.81,-7.17,-7.16,6.00,5.67,6.58,3.18,3.19,4.35
28.33,-2.77,-2.77,-7.11,-7.12,6.00,5.66,6.69,3.23,3.23,4.34
28.62,-2.72,-2.72,-7.06,-7.06,6.00,5.66,6.80,3.28,3.28,4.34
28.90,-2.68,-2.66,-7.01,-7.00,6.00,5.66,6.89,3.32,3.34,4.34
29.19,-2.60,-2.60,-6.92,-6.93,6.00,5.66,6.99,3.40,3.40,4.33
29.48,-2.52,-2.51,-6.85,-6.84,6.00,5.65,7.07,3.48,3.49,4.33
29.78,-2.43,-2.43,-6.75,-6.75,6.00,5.65,7.14,3.57,3.57,4.32
30.08,-2.36,-2.37,-6.68,-6.69,6.00,5.65,7.20,3.64,3.63,4.32
30.38,-2.33,-2.32,-6.64,-6.63,6.00,5.65,7.26,3.67,3.68,4.31
30.68,-2.30,-2.29,-6.60,-6.60,6.00,5.64,7.30,3.70,3.71,4.31
30.99,-2.27,-2.27,-6.56,-6.56,6.00,5.64,7.33,3.73,3.73,4.29
31.30,-2.24,-2.23,-6.53,-6.53,6.00,5.64,7.35,3.76,3.77,4.29
31.61,-2.20,-2.20,-6.49,-6.48,6.00,5.64,7.36,3.80,3.80,4.29
31.93,-2.17,-2.17,-6.44,-6.44,6.00,5.63,7.36,3.83,3.83,4.28
32.24,-2.14,-2.14,-6.40,-6.41,6.00,5.63,7.35,3.86,3.86,4.27
32.57,-2.11,-2.11,-6.37,-6.37,6.00,5.63,7.32,3.89,3.89,4.26
32.89,-2.08,-2.08,-6.34,-6.33,6.00,5.62,7.29,3.92,3.92,4.26
33.22,-2.05,-2.04,-6.29,-6.29,6.00,5.62,7.25,3.95,3.96,4.25
33.55,-2.01,-2.00,-6.25,-6.25,6.00,5.62,7.20,3.99,4.00,4.24
33.89,-1.97,-1.98,-6.20,-6.21,6.00,5.61,7.14,4.03,4.02,4.23
34.23,-1.96,-1.96,-6.18,-6.19,6.00,5.61,7.07,4.04,4.04,4.23
34.57,-1.96,-1.95,-6.17,-6.17,6.00,5.60,7.00,4.04,4.05,4.22
34.92,-1.96,-1.95,-6.16,-6.15,6.00,5.60,6.92,4.05,4.05,4.20
35.27,-1.93,-1.92,-6.13,-6.12,6.00,5.59,6.84,4.08,4.08,4.20
35.62,-1.90,-1.89,-6.08,-6.08,6.01,5.59,6.75,4.11,4.11,4.19
35.97,-1.86,-1.87,-6.03,-6.04,6.01,5.59,6.66,4.15,4.14,4.17
36.33,-1.86,-1.86,-6.02,-6.02,6.01,5.58,6.57,4.15,4.15,4.17
36.70,-1.86,-1.85,-6.01,-6.01,6.00,5.58,6.47,4.14,4.14,4.15
37.06,-1.86,-1.85,-6.00,-6.00,5.98,5.57,6.38,4.12,4.12,4.14
37.43,-1.84,-1.84,-5.97,-5.97,5.95,5.56,6.29,4.11,4.11,4.14
37.81,-1.83,-1.82,-5.95,-5.94,5.92,5.56,6.19,4.09,4.10,4.12
38.19,-1.79,-1.78,-5.89,-5.89,5.88,5.55,6.10,4.10,4.11,4.11
38.57,-1.73,-1.73,-5.83,-5.83,5.84,5.55,6.01,4.11,4.11,4.10
38.95,-1.67,-1.68,-5.75,-5.77,5.80,5.54,5.92,4.13,4.11,4.09
39.34,-1.66,-1.66,-5.73,-5.73,5.75,5.53,5.83,4.09,4.09,4.07
39.74,-1.66,-1.65,-5.71,-5.71,5.71,5.53,5.74,4.05,4.06,4.06
40.14,-1.65,-1.63,-5.70,-5.68,5.67,5.52,5.66,4.02,4.04,4.05
40.54,-1.61,-1.61,-5.64,-5.64,5.64,5.51,5.58,4.03,4.03,4.04
40.94,-1.57,-1.58,-5.60,-5.60,5.62,5.51,5.50,4.05,4.04,4.03
41.35,-1.56,-1.56,-5.57,-5.58,5.60,5.50,5.43,4.04,4.04,4.01
41.76,-1.56,-1.55,-5.56,-5.56,5.57,5.49,5.36,4.02,4.02,4.01
42.18,-1.56,-1.56,-5.56,-5.56,5.55,5.48,5.29,3.99,3.99,4.00
42.60,-1.56,-1.56,-5.54,-5.55,5.52,5.47,5.23,3.96,3.96,3.98
43.03,-1.56,-1.54,-5.53,-5.51,5.49,5.46,5.17,3.93,3.95,3.98
43.46,-1.51,-1.51,-5.47,-5.47,5.46,5.45,5.11,3.95,3.95,3.96
43.90,-1.47,-1.48,-5.40,-5.42,5.43,5.44,5.06,3.96,3.95,3.93
44.33,-1.46,-1.46,-5.37,-5.37,5.40,5.43,5.01,3.94,3.94,3.92
44.78,-1.46,-1.45,-5.35,-5.35,5.37,5.42,4.97,3.91,3.91,3.90
45.23,-1.46,-1.46,-5.34,-5.33,5.34,5.41,4.93,3.88,3.88,3.88
45.68,-1.46,-1.46,-5.32,-5.32,5.32,5.40,4.89,3.86,3.86,3.86
46.13,-1.46,-1.46,-5.30,-5.30,5.30,5.39,4.86,3.84,3.84,3.84
46.60,-1.46,-1.46,-5.29,-5.28,5.28,5.38,4.83,3.83,3.83,3.83
47.06,-1.46,-1.46,-5.27,-5.27,5.27,5.36,4.80,3.81,3.81,3.81
47.53,-1.46,-1.46,-5.25,-5.25,5.25,5.35,4.78,3.79,3.79,3.79
48.01,-1.46,-1.46,-5.24,-5.23,5.23,5.34,4.76,3.77,3.77,3.78
48.49,-1.46,-1.46,-5.21,-5.21,5.20,5.32,4.74,3.74,3.74,3.75
48.97,-1.46,-1.46,-5.18,-5.18,5.17,5.31,4.73,3.72,3.72,3.72
49.46,-1.46,-1.46,-5.15,-5.15,5.15,5.29,4.72,3.69,3.69,3.69
49.96,-1.46,-1.46,-5.11,-5.12,5.12,5.27,4.71,3.66,3.66,3.66
50.46,-1.46,-1.46,-5.10,-5.10,5.09,5.26,4.71,3.64,3.64,3.65
50.96,-1.46,-1.45,-5.08,-5.07,5.07,5.24,4.71,3.62,3.62,3.62
51.47,-1.46,-1.45,-5.05,-5.05,5.06,5.22,4.71,3.60,3.60,3.59
51.99,-1.46,-1.47,-5.02,-5.04,5.05,5.20,4.71,3.59,3.58,3.57
52.51,-1.51,-1.50,-5.06,-5.05,5.05,5.18,4.71,3.55,3.55,3.55
53.03,-1.56,-1.54,-5.08,-5.06,5.07,5.16,4.71,3.52,3.54,3.53
53.56,-1.58,-1.58,-5.08,-5.08,5.11,5.14,4.72,3.53,3.52,3.50
54.10,-1.62,-1.63,-5.09,-5.11,5.14,5.11,4.72,3.53,3.51,3.48
54.64,-1.72,-1.71,-5.17,-5.16,5.18,5.09,4.73,3.47,3.47,3.45
55.18,-1.81,-1.81,-5.23,-5.23,5.22,5.07,4.74,3.42,3.42,3.42
55.74,-1.91,-1.89,-5.30,-5.29,5.26,5.04,4.74,3.36,3.37,3.40
56.29,-1.95,-1.94,-5.33,-5.32,5.29,5.01,4.74,3.35,3.35,3.38
56.86,-1.96,-1.96,-5.31,-5.31,5.31,4.98,4.75,3.35,3.35,3.35
57.42,-1.96,-1.96,-5.28,-5.29,5.30,4.95,4.75,3.35,3.34,3.32
58.00,-1.96,-1.97,-5.26,-5.27,5.27,4.92,4.75,3.31,3.30,3.30
58.58,-1.96,-1.95,-5.24,-5.24,5.21,4.89,4.74,3.25,3.26,3.28
59.16,-1.93,-1.91,-5.19,-5.17,5.12,4.86,4.74,3.19,3.21,3.26
59.76,-1.82,-1.82,-5.06,-5.06,5.01,4.82,4.73,3.19,3.19,3.24
60.35,-1.70,-1.70,-4.91,-4.91,4.89,4.78,4.71,3.20,3.19,3.21
60.96,-1.57,-1.57,-4.76,-4.76,4.77,4.75,4.70,3.20,3.19,3.19
61.57,-1.47,-1.46,-4.61,-4.61,4.64,4.71,4.68,3.18,3.18,3.15
62.18,-1.37,-1.36,-4.48,-4.48,4.53,4.66,4.65,3.16,3.17,3.11
62.80,-1.29,-1.30,-4.37,-4.38,4.43,4.62,4.63,3.15,3.13,3.09
63.43,-1.26,-1.26,-4.31,-4.31,4.35,4.58,4.60,3.10,3.09,3.05
64.07,-1.26,-1.25,-4.28,-4.28,4.29,4.53,4.56,3.03,3.04,3.03
64.71,-1.26,-1.25,-4.26,-4.25,4.24,4.48,4.52,2.99,2.99,3.00
65.35,-1.26,-1.26,-4.23,-4.23,4.20,4.43,4.48,2.95,2.94,2.97
66.01,-1.26,-1.26,-4.20,-4.20,4.17,4.38,4.43,2.91,2.91,2.94
66.67,-1.26,-1.24,-4.17,-4.16,4.13,4.33,4.38,2.87,2.89,2.91
67.33,-1.23,-1.22,-4.11,-4.10,4.09,4.28,4.33,2.87,2.88,2.89
68.01,-1.17,-1.18,-4.02,-4.04,4.05,4.23,4.28,2.88,2.86,2.85
68.69,-1.16,-1.16,-3.98,-3.98,4.00,4.18,4.22,2.85,2.84,2.82
69.37,-1.16,-1.15,-3.95,-3.94,3.96,4.13,4.16,2.80,2.81,2.79
70.07,-1.16,-1.16,-3.91,-3.92,3.92,4.08,4.10,2.76,2.76,2.76
70.77,-1.16,-1.15,-3.89,-3.89,3.88,4.03,4.04,2.73,2.73,2.74
71.48,-1.16,-1.15,-3.86,-3.85,3.86,3.99,3.97,2.70,2.71,2.70
72.19,-1.16,-1.16,-3.82,-3.83,3.84,3.95,3.91,2.69,2.68,2.67
72.91,-1.18,-1.19,-3.81,-3.82,3.83,3.91,3.84,2.65,2.64,2.63
73.64,-1.23,-1.22,-3.82,-3.81,3.81,3.87,3.77,2.58,2.59,2.59
74.38,-1.26,-1.25,-3.82,-3.81,3.79,3.83,3.71,2.53,2.55,2.56
75.12,-1.26,-1.26,-3.78,-3.79,3.77,3.80,3.64,2.51,2.51,2.53
75.87,-1.26,-1.26,-3.75,-3.76,3.74,3.77,3.58,2.49,2.49,2.50
76.63,-1.26,-1.26,-3.72,-3.72,3.72,3.74,3.51,2.46,2.46,2.47
77.40,-1.26,-1.26,-3.69,-3.69,3.69,3.72,3.45,2.44,2.44,2.44
78.17,-1.26,-1.26,-3.65,-3.66,3.67,3.69,3.38,2.41,2.41,2.39
78.95,-1.26,-1.25,-3.63,-3.62,3.64,3.67,3.32,2.38,2.39,2.37
79.74,-1.26,-1.25,-3.59,-3.59,3.61,3.65,3.26,2.35,2.36,2.34
80.54,-1.26,-1.27,-3.56,-3.58,3.58,3.63,3.20,2.32,2.31,2.30
81.35,-1.29,-1.30,-3.55,-3.57,3.55,3.60,3.15,2.26,2.25,2.27
82.16,-1.34,-1.31,-3.57,-3.54,3.52,3.58,3.09,2.18,2.21,2.23
82.98,-1.31,-1.30,-3.51,-3.50,3.48,3.55,3.04,2.17,2.18,2.21
83.81,-1.27,-1.28,-3.43,-3.45,3.44,3.53,2.99,2.18,2.16,2.16
84.65,-1.26,-1.26,-3.38,-3.39,3.40,3.50,2.94,2.15,2.15,2.12
85.50,-1.26,-1.25,-3.35,-3.34,3.36,3.47,2.89,2.11,2.11,2.09
86.35,-1.26,-1.26,-3.31,-3.31,3.32,3.44,2.84,2.06,2.06,2.05
87.22,-1.26,-1.26,-3.27,-3.27,3.27,3.41,2.80,2.01,2.01,2.01
88.09,-1.26,-1.26,-3.23,-3.24,3.22,3.37,2.76,1.97,1.96,1.97
88.97,-1.26,-1.26,-3.20,-3.19,3.18,3.34,2.72,1.92,1.93,1.94
89.86,-1.26,-1.25,-3.16,-3.15,3.15,3.30,2.68,1.89,1.89,1.90
90.76,-1.25,-1.24,-3.10,-3.10,3.11,3.26,2.65,1.87,1.87,1.85
91.66,-1.25,-1.25,-3.06,-3.06,3.08,3.22,2.62,1.84,1.84,1.82
92.58,-1.25,-1.26,-3.01,-3.03,3.05,3.18,2.58,1.80,1.79,1.76
93.51,-1.30,-1.29,-3.03,-3.02,3.02,3.14,2.55,1.72,1.73,1.73
94.44,-1.34,-1.32,-3.02,-3.01,2.99,3.09,2.53,1.65,1.67,1.69
95.39,-1.35,-1.35,-2.99,-2.99,2.96,3.05,2.50,1.62,1.61,1.64
96.34,-1.36,-1.35,-2.94,-2.94,2.93,3.00,2.48,1.58,1.58,1.59
97.30,-1.36,-1.36,-2.90,-2.90,2.91,2.96,2.46,1.55,1.55,1.54
98.28,-1.37,-1.37,-2.86,-2.86,2.87,2.91,2.44,1.51,1.50,1.50
99.26,-1.39,-1.38,-2.84,-2.83,2.84,2.86,2.42,1.45,1.46,1.45
100.25,-1.40,-1.40,-2.80,-2.80,2.80,2.81,2.40,1.41,1.41,1.41
101.25,-1.42,-1.41,-2.78,-2.77,2.77,2.76,2.38,1.35,1.36,1.36
102.27,-1.43,-1.43,-2.74,-2.74,2.74,2.71,2.37,1.31,1.31,1.31
103.29,-1.45,-1.45,-2.70,-2.71,2.71,2.66,2.35,1.27,1.27,1.26
104.32,-1.47,-1.47,-2.69,-2.68,2.69,2.61,2.34,1.22,1.22,1.22
105.37,-1.49,-1.49,-2.66,-2.66,2.66,2.55,2.33,1.18,1.17,1.17
106.42,-1.52,-1.51,-2.64,-2.64,2.64,2.50,2.31,1.12,1.13,1.13
107.48,-1.54,-1.54,-2.62,-2.61,2.61,2.45,2.30,1.08,1.08,1.08
108.56,-1.56,-1.56,-2.58,-2.59,2.59,2.39,2.29,1.03,1.03,1.03
109.64,-1.58,-1.58,-2.56,-2.56,2.56,2.34,2.28,0.98,0.98,0.98
110.74,-1.60,-1.60,-2.53,-2.53,2.53,2.29,2.27,0.93,0.93,0.93
111.85,-1.62,-1.61,-2.50,-2.50,2.49,2.23,2.25,0.87,0.88,0.89
112.97,-1.63,-1.63,-2.45,-2.46,2.45,2.18,2.24,0.82,0.82,0.82
114.10,-1.64,-1.64,-2.41,-2.41,2.40,2.12,2.23,0.77,0.77,0.78
115.24,-1.64,-1.64,-2.36,-2.36,2.35,2.07,2.21,0.72,0.72,0.72
116.39,-1.64,-1.63,-2.30,-2.30,2.30,2.01,2.20,0.67,0.67,0.67
117.55,-1.63,-1.63,-2.24,-2.24,2.25,1.96,2.18,0.62,0.62,0.61
118.73,-1.63,-1.62,-2.19,-2.19,2.19,1.90,2.16,0.56,0.57,0.56
119.92,-1.62,-1.62,-2.13,-2.13,2.13,1.85,2.14,0.52,0.52,0.52
121.12,-1.61,-1.61,-2.07,-2.07,2.08,1.80,2.12,0.47,0.46,0.46
122.33,-1.61,-1.60,-2.02,-2.02,2.02,1.74,2.10,0.41,0.41,0.41
123.55,-1.60,-1.59,-1.97,-1.96,1.96,1.69,2.07,0.36,0.36,0.37
124.79,-1.59,-1.59,-1.90,-1.91,1.90,1.64,2.05,0.32,0.31,0.32
126.03,-1.58,-1.58,-1.84,-1.85,1.84,1.58,2.02,0.27,0.27,0.27
127.29,-1.58,-1.57,-1.79,-1.79,1.79,1.53,1.99,0.21,0.21,0.22
128.57,-1.57,-1.57,-1.72,-1.73,1.73,1.48,1.95,0.17,0.16,0.16
129.85,-1.57,-1.56,-1.68,-1.67,1.68,1.43,1.92,0.11,0.11,0.11
131.15,-1.56,-1.56,-1.62,-1.62,1.62,1.38,1.88,0.07,0.06,0.06
132.46,-1.56,-1.55,-1.57,-1.57,1.57,1.33,1.84,0.01,0.01,0.01
133.79,-1.55,-1.55,-1.52,-1.52,1.52,1.28,1.80,-0.03,-0.03,-0.02
135.12,-1.55,-1.54,-1.47,-1.47,1.47,1.23,1.76,-0.08,-0.07,-0.08
136.48,-1.54,-1.54,-1.42,-1.42,1.43,1.18,1.72,-0.11,-0.11,-0.11
137.84,-1.54,-1.54,-1.38,-1.37,1.38,1.13,1.67,-0.15,-0.15,-0.16
139.22,-1.54,-1.54,-1.32,-1.33,1.34,1.08,1.62,-0.20,-0.20,-0.21
140.61,-1.54,-1.54,-1.28,-1.29,1.29,1.03,1.58,-0.24,-0.24,-0.25
142.02,-1.54,-1.54,-1.26,-1.26,1.24,0.98,1.53,-0.29,-0.30,-0.28
143.44,-1.54,-1.54,-1.22,-1.22,1.19,0.94,1.48,-0.34,-0.34,-0.32
144.87,-1.54,-1.51,-1.18,-1.16,1.14,0.89,1.43,-0.40,-0.37,-0.36
146.32,-1.47,-1.48,-1.07,-1.09,1.09,0.84,1.37,-0.38,-0.39,-0.40
147.78,-1.44,-1.45,-1.01,-1.02,1.04,0.80,1.32,-0.40,-0.41,-0.43
149.26,-1.44,-1.43,-0.97,-0.96,0.99,0.75,1.27,-0.45,-0.44,-0.46
150.75,-1.44,-1.43,-0.92,-0.93,0.94,0.71,1.22,-0.50,-0.50,-0.51
152.26,-1.44,-1.44,-0.89,-0.89,0.89,0.67,1.16,-0.55,-0.55,-0.55
153.78,-1.44,-1.44,-0.85,-0.85,0.84,0.62,1.11,-0.59,-0.59,-0.58
155.32,-1.44,-1.44,-0.81,-0.81,0.80,0.58,1.05,-0.63,-0.63,-0.63
156.88,-1.44,-1.44,-0.77,-0.77,0.76,0.54,1.00,-0.67,-0.67,-0.66
158.44,-1.44,-1.44,-0.73,-0.73,0.73,0.50,0.95,-0.71,-0.71,-0.70
160.03,-1.44,-1.44,-0.69,-0.69,0.70,0.45,0.89,-0.74,-0.74,-0.75
161.63,-1.44,-1.43,-0.65,-0.64,0.66,0.41,0.84,-0.78,-0.77,-0.79
163.24,-1.44,-1.44,-0.61,-0.62,0.63,0.37,0.78,-0.81,-0.82,-0.83
164.88,-1.44,-1.46,-0.58,-0.60,0.59,0.34,0.73,-0.84,-0.87,-0.86
166.53,-1.51,-1.47,-0.61,-0.57,0.56,0.30,0.68,-0.95,-0.91,-0.90
168.19,-1.48,-1.48,-0.54,-0.54,0.53,0.26,0.62,-0.95,-0.95,-0.94
169.87,-1.46,-1.47,-0.48,-0.50,0.50,0.22,0.57,-0.96,-0.98,-0.97
171.57,-1.47,-1.46,-0.46,-0.45,0.46,0.18,0.51,-1.00,-1.00,-1.01
173.29,-1.47,-1.47,-0.42,-0.42,0.43,0.15,0.46,-1.03,-1.03,-1.05
175.02,-1.48,-1.47,-0.39,-0.39,0.40,0.11,0.41,-1.08,-1.08,-1.08
176.77,-1.48,-1.48,-0.35,-0.35,0.35,0.08,0.36,-1.12,-1.12,-1.13
178.54,-1.48,-1.48,-0.30,-0.31,0.30,0.04,0.30,-1.17,-1.18,-1.17
180.32,-1.48,-1.48,-0.27,-0.27,0.25,0.01,0.25,-1.23,-1.23,-1.20
182.13,-1.47,-1.46,-0.23,-0.22,0.19,-0.03,0.20,-1.27,-1.27,-1.24
183.95,-1.45,-1.42,-0.17,-0.15,0.14,-0.06,0.15,-1.31,-1.29,-1.28
185.79,-1.36,-1.38,-0.05,-0.07,0.08,-0.09,0.10,-1.28,-1.30,-1.31
187.65,-1.34,-1.34,0.01,0.01,0.02,-0.12,0.04,-1.32,-1.32,-1.35
189.52,-1.32,-1.31,0.07,0.07,-0.04,-0.15,-0.01,-1.36,-1.35,-1.38
191.42,-1.31,-1.30,0.10,0.11,-0.10,-0.18,-0.06,-1.41,-1.40,-1.41
193.33,-1.29,-1.29,0.15,0.15,-0.16,-0.21,-0.11,-1.44,-1.44,-1.44
195.27,-1.28,-1.28,0.19,0.19,-0.21,-0.24,-0.16,-1.48,-1.48,-1.47
197.22,-1.26,-1.26,0.24,0.24,-0.25,-0.27,-0.21,-1.51,-1.52,-1.50
199.19,-1.25,-1.24,0.29,0.29,-0.30,-0.30,-0.26,-1.54,-1.53,-1.53
201.18,-1.21,-1.20,0.34,0.35,-0.34,-0.32,-0.31,-1.55,-1.54,-1.55
203.19,-1.16,-1.17,0.41,0.40,-0.39,-0.35,-0.36,-1.55,-1.56,-1.57
205.23,-1.14,-1.15,0.45,0.44,-0.44,-0.37,-0.40,-1.57,-1.58,-1.59
207.28,-1.14,-1.13,0.46,0.47,-0.48,-0.40,-0.45,-1.61,-1.61,-1.60
209.35,-1.14,-1.12,0.48,0.51,-0.51,-0.42,-0.50,-1.65,-1.63,-1.62
211.44,-1.09,-1.09,0.56,0.55,-0.54,-0.44,-0.54,-1.63,-1.63,-1.64
213.56,-1.05,-1.06,0.60,0.59,-0.57,-0.46,-0.59,-1.62,-1.63,-1.65
215.69,-1.05,-1.04,0.61,0.61,-0.60,-0.48,-0.63,-1.64,-1.64,-1.65
217.85,-1.05,-1.05,0.62,0.61,-0.62,-0.50,-0.67,-1.67,-1.67,-1.66
220.03,-1.06,-1.05,0.62,0.62,-0.64,-0.52,-0.71,-1.70,-1.70,-1.68
222.23,-1.06,-1.03,0.63,0.65,-0.67,-0.54,-0.75,-1.72,-1.70,-1.69
224.45,-1.00,-1.00,0.68,0.68,-0.68,-0.56,-0.79,-1.68,-1.69,-1.68
226.70,-0.96,-0.97,0.73,0.71,-0.70,-0.57,-0.83,-1.66,-1.67,-1.68
228.96,-0.95,-0.95,0.74,0.73,-0.71,-0.58,-0.86,-1.66,-1.66,-1.68
231.25,-0.95,-0.94,0.73,0.74,-0.72,-0.60,-0.89,-1.67,-1.66,-1.67
233.57,-0.94,-0.93,0.74,0.74,-0.74,-0.61,-0.92,-1.67,-1.67,-1.67
235.90,-0.92,-0.92,0.76,0.75,-0.75,-0.62,-0.95,-1.67,-1.67,-1.67
238.26,-0.91,-0.91,0.77,0.76,-0.77,-0.63,-0.97,-1.68,-1.68,-1.67
240.64,-0.89,-0.90,0.77,0.77,-0.79,-0.64,-0.99,-1.68,-1.69,-1.66
243.05,-0.88,-0.86,0.77,0.79,-0.82,-0.65,-1.01,-1.69,-1.68,-1.65
245.48,-0.83,-0.81,0.81,0.83,-0.84,-0.65,-1.03,-1.67,-1.65,-1.64
247.93,-0.73,-0.75,0.90,0.88,-0.87,-0.66,-1.04,-1.59,-1.62,-1.63
250.41,-0.71,-0.71,0.92,0.91,-0.89,-0.66,-1.05,-1.59,-1.59,-1.62
252.92,-0.69,-0.68,0.92,0.92,-0.90,-0.67,-1.06,-1.58,-1.58,-1.60
255.45,-0.68,-0.67,0.90,0.91,-0.90,-0.67,-1.07,-1.57,-1.57,-1.58
258.00,-0.67,-0.66,0.90,0.90,-0.89,-0.67,-1.07,-1.55,-1.55,-1.57
260.58,-0.67,-0.67,0.89,0.88,-0.86,-0.67,-1.07,-1.53,-1.53,-1.55
263.19,-0.68,-0.70,0.85,0.84,-0.83,-0.67,-1.07,-1.50,-1.52,-1.53
265.82,-0.75,-0.73,0.77,0.78,-0.79,-0.67,-1.06,-1.54,-1.52,-1.52
268.48,-0.78,-0.76,0.72,0.73,-0.75,-0.67,-1.05,-1.53,-1.51,-1.49
271.16,-0.78,-0.78,0.69,0.69,-0.71,-0.67,-1.04,-1.49,-1.50,-1.47
273.87,-0.78,-0.78,0.68,0.67,-0.68,-0.67,-1.03,-1.46,-1.46,-1.45
276.61,-0.78,-0.78,0.65,0.65,-0.65,-0.66,-1.02,-1.43,-1.43,-1.43
279.38,-0.78,-0.78,0.64,0.64,-0.63,-0.66,-1.00,-1.41,-1.41,-1.41
282.17,-0.78,-0.77,0.62,0.62,-0.62,-0.65,-0.99,-1.39,-1.39,-1.40
284.99,-0.77,-0.77,0.61,0.61,-0.61,-0.65,-0.97,-1.37,-1.37,-1.37
287.84,-0.76,-0.76,0.60,0.60,-0.60,-0.64,-0.95,-1.36,-1.36,-1.36
290.72,-0.75,-0.75,0.59,0.59,-0.60,-0.64,-0.93,-1.34,-1.34,-1.33
293.63,-0.74,-0.74,0.58,0.58,-0.59,-0.63,-0.91,-1.32,-1.32,-1.32
296.57,-0.73,-0.73,0.57,0.57,-0.58,-0.62,-0.89,-1.30,-1.30,-1.29
299.53,-0.72,-0.71,0.56,0.56,-0.56,-0.62,-0.86,-1.28,-1.27,-1.28
302.53,-0.70,-0.69,0.56,0.56,-0.54,-0.61,-0.84,-1.23,-1.23,-1.26
305.55,-0.69,-0.69,0.54,0.54,-0.51,-0.60,-0.82,-1.20,-1.20,-1.22
308.61,-0.69,-0.70,0.52,0.50,-0.48,-0.59,-0.79,-1.17,-1.19,-1.21
311.69,-0.74,-0.73,0.44,0.45,-0.45,-0.58,-0.77,-1.19,-1.18,-1.18
314.81,-0.77,-0.75,0.38,0.40,-0.42,-0.58,-0.74,-1.18,-1.17,-1.14
317.96,-0.77,-0.77,0.36,0.36,-0.38,-0.57,-0.72,-1.15,-1.15,-1.13
321.14,-0.77,-0.77,0.34,0.34,-0.35,-0.56,-0.69,-1.11,-1.11,-1.11
324.35,-0.77,-0.77,0.33,0.32,-0.31,-0.55,-0.67,-1.08,-1.08,-1.09
327.59,-0.77,-0.77,0.30,0.30,-0.29,-0.54,-0.65,-1.06,-1.06,-1.07
330.87,-0.78,-0.78,0.27,0.28,-0.28,-0.53,-0.62,-1.05,-1.05,-1.05
334.18,-0.78,-0.78,0.26,0.25,-0.27,-0.52,-0.60,-1.05,-1.05,-1.03
337.52,-0.78,-0.77,0.24,0.25,-0.26,-0.51,-0.58,-1.04,-1.03,-1.01
340.90,-0.75,-0.74,0.24,0.25,-0.26,-0.51,-0.55,-1.00,-0.99,-0.99
344.30,-0.69,-0.70,0.28,0.27,-0.25,-0.50,-0.53,-0.93,-0.95,-0.97
347.75,-0.68,-0.68,0.28,0.27,-0.24,-0.49,-0.51,-0.92,-0.92,-0.95
351.23,-0.68,-0.67,0.26,0.26,-0.24,-0.48,-0.49,-0.92,-0.91,-0.93
354.74,-0.68,-0.68,0.24,0.24,-0.24,-0.47,-0.47,-0.92,-0.92,-0.92
358.28,-0.67,-0.67,0.23,0.22,-0.24,-0.46,-0.45,-0.91,-0.91,-0.90
361.87,-0.67,-0.65,0.21,0.23,-0.25,-0.45,-0.42,-0.91,-0.90,-0.88
365.49,-0.63,-0.62,0.25,0.25,-0.26,-0.44,-0.41,-0.88,-0.88,-0.87
369.14,-0.57,-0.59,0.30,0.27,-0.28,-0.44,-0.39,-0.85,-0.87,-0.86
372.83,-0.55,-0.54,0.30,0.30,-0.31,-0.43,-0.37,-0.86,-0.86,-0.85
376.56,-0.52,-0.50,0.32,0.33,-0.35,-0.42,-0.35,-0.87,-0.86,-0.84
380.33,-0.44,-0.44,0.37,0.38,-0.41,-0.41,-0.33,-0.84,-0.84,-0.81
384.13,-0.37,-0.34,0.44,0.46,-0.46,-0.40,-0.31,-0.83,-0.80,-0.80
387.97,-0.25,-0.28,0.55,0.51,-0.50,-0.40,-0.30,-0.75,-0.78,-0.79
391.85,-0.21,-0.24,0.58,0.55,-0.52,-0.39,-0.28,-0.73,-0.76,-0.78
395.77,-0.27,-0.20,0.50,0.57,-0.53,-0.38,-0.26,-0.79,-0.72,-0.77
399.73,-0.17,-0.17,0.59,0.59,-0.52,-0.37,-0.25,-0.68,-0.69,-0.76
403.72,-0.15,-0.18,0.60,0.56,-0.51,-0.37,-0.23,-0.65,-0.69,-0.75
407.76,-0.20,-0.25,0.54,0.49,-0.49,-0.36,-0.22,-0.69,-0.74,-0.74
411.84,-0.39,-0.35,0.34,0.38,-0.48,-0.35,-0.20,-0.86,-0.82,-0.72
415.96,-0.46,-0.38,0.26,0.33,-0.45,-0.35,-0.19,-0.91,-0.83,-0.71
420.12,-0.33,-0.33,0.38,0.37,-0.42,-0.34,-0.18,-0.75,-0.76,-0.70
424.32,-0.20,-0.24,0.50,0.45,-0.39,-0.33,-0.16,-0.59,-0.64,-0.69
428.56,-0.19,-0.20,0.50,0.48,-0.36,-0.33,-0.15,-0.55,-0.57,-0.69
432.85,-0.26,-0.24,0.42,0.43,-0.34,-0.32,-0.14,-0.60,-0.59,-0.68
437.18,-0.34,-0.33,0.33,0.33,-0.33,-0.31,-0.13,-0.67,-0.67,-0.67
441.55,-0.40,-0.40,0.25,0.25,-0.32,-0.31,-0.11,-0.71,-0.72,-0.65
445.96,-0.46,-0.41,0.18,0.23,-0.30,-0.30,-0.10,-0.75,-0.71,-0.64
450.42,-0.39,-0.39,0.24,0.24,-0.28,-0.30,-0.09,-0.66,-0.67,-0.63
454.93,-0.31,-0.36,0.31,0.25,-0.26,-0.29,-0.08,-0.56,-0.62,-0.61
459.48,-0.36,-0.32,0.25,0.28,-0.25,-0.28,-0.07,-0.60,-0.57,-0.60
464.07,-0.33,-0.30,0.26,0.29,-0.25,-0.28,-0.06,-0.57,-0.55,-0.58
468.71,-0.25,-0.29,0.32,0.28,-0.26,-0.27,-0.05,-0.51,-0.55,-0.56
473.40,-0.26,-0.26,0.30,0.29,-0.27,-0.27,-0.04,-0.53,-0.53,-0.55
478.13,-0.28,-0.25,0.26,0.29,-0.29,-0.26,-0.04,-0.57,-0.54,-0.54
