frequency,raw,smoothed,error,error_smoothed,equalization,parametric_eq,fixed_band_eq,equalized_raw,equalized_smoothed,target
20.00,16.45,16.45,7.18,7.18,-7.17,-8.39,-4.11,9.28,9.28,9.27
20.20,16.52,16.53,7.26,7.27,-7.27,-8.39,-4.22,9.26,9.26,9.26
20.40,16.60,16.61,7.35,7.35,-7.35,-8.40,-4.34,9.25,9.25,9.25
20.61,16.68,16.68,7.44,7.44,-7.44,-8.40,-4.45,9.24,9.24,9.24
20.81,16.75,16.75,7.52,7.52,-7.53,-8.41,-4.57,9.23,9.23,9.23
21.02,16.82,16.83,7.60,7.61,-7.61,-8.41,-4.70,9.22,9.22,9.22
21.23,16.89,16.89,7.69,7.68,-7.69,-8.42,-4.82,9.21,9.21,9.21
21.44,16.96,16.96,7.77,7.76,-7.76,-8.42,-4.95,9.20,9.20,9.20
21.66,17.02,17.03,7.84,7.84,-7.84,-8.43,-5.09,9.18,9.19,9.19
21.87,17.09,17.09,7.92,7.91,-7.91,-8.43,-5.23,9.18,9.18,9.18
22.09,17.14,17.15,7.98,7.98,-7.98,-8.44,-5.37,9.16,9.16,9.16
22.31,17.20,17.21,8.05,8.05,-8.05,-8.44,-5.51,9.15,9.16,9.15
22.54,17.26,17.26,8.12,8.12,-8.12,-8.45,-5.66,9.15,9.14,9.14
22.76,17.31,17.32,8.18,8.18,-8.18,-8.46,-5.81,9.14,9.14,9.13
22.99,17.36,17.36,8.23,8.24,-8.24,-8.46,-5.97,9.13,9.13,9.13
23.22,17.41,17.41,8.29,8.29,-8.30,-8.47,-6.13,9.12,9.11,9.12
23.45,17.45,17.46,8.35,8.35,-8.35,-8.48,-6.29,9.10,9.10,9.11
23.69,17.50,17.50,8.41,8.40,-8.41,-8.49,-6.46,9.10,9.09,9.10
23.92,17.54,17.54,8.46,8.46,-8.46,-8.50,-6.63,9.09,9.09,9.08
24.16,17.58,17.58,8.51,8.51,-8.51,-8.50,-6.81,9.08,9.08,9.07
24.40,17.62,17.62,8.56,8.56,-8.55,-8.51,-6.99,9.07,9.07,9.06
24.65,17.65,17.66,8.59,8.60,-8.60,-8.52,-7.17,9.06,9.06,9.06
24.89,17.69,17.69,8.64,8.64,-8.64,-8.53,-7.35,9.06,9.06,9.06
25.14,17.72,17.72,8.67,8.67,-8.67,-8.54,-7.54,9.05,9.05,9.06
25.39,17.75,17.75,8.71,8.70,-8.70,-8.55,-7.73,9.05,9.05,9.05
25.65,17.77,17.78,8.73,8.73,-8.73,-8.57,-7.93,9.04,9.04,9.04
25.91,17.80,17.80,8.76,8.76,-8.76,-8.58,-8.12,9.04,9.04,9.04
26.16,17.82,17.82,8.78,8.78,-8.78,-8.59,-8.32,9.04,9.04,9.04
26.43,17.84,17.84,8.81,8.81,-8.81,-8.60,-8.51,9.04,9.04,9.04
26.69,17.86,17.86,8.83,8.83,-8.83,-8.62,-8.71,9.04,9.04,9.04
26.96,17.87,17.88,8.84,8.84,-8.84,-8.63,-8.90,9.03,9.03,9.03
27.23,17.89,17.89,8.86,8.86,-8.86,-8.65,-9.09,9.03,9.03,9.03
27.50,17.90,17.90,8.87,8.88,-8.88,-8.66,-9.29,9.03,9.03,9.03
27.77,17.91,17.91,8.89,8.89,-8.89,-8.68,-9.47,9.02,9.02,9.03
28.05,17.92,17.92,8.91,8.90,-8.90,-8.69,-9.65,9.02,9.02,9.01
28.33,17.92,17.93,8.91,8.92,-8.92,-8.71,-9.82,9.01,9.01,9.01
28.62,17.93,17.93,8.93,8.93,-8.93,-8.73,-9.99,9.00,9.00,9.00
28.90,17.93,17.93,8.94,8.94,-8.94,-8.74,-10.14,8.99,8.99,9.00
29.19,17.93,17.93,8.95,8.95,-8.95,-8.76,-10.29,8.98,8.98,8.98
29.48,17.93,17.93,8.96,8.96,-8.96,-8.78,-10.42,8.97,8.97,8.97
29.78,17.93,17.93,8.97,8.97,-8.97,-8.80,-10.54,8.97,8.96,8.97
30.08,17.93,17.93,8.98,8.98,-8.97,-8.81,-10.64,8.96,8.96,8.95
30.38,17.92,17.93,8.97,8.98,-8.98,-8.83,-10.73,8.95,8.95,8.95
30.68,17.92,17.92,8.98,8.98,-8.97,-8.85,-10.79,8.95,8.95,8.95
30.99,17.91,17.91,8.97,8.97,-8.97,-8.86,-10.85,8.94,8.94,8.94
31.30,17.90,17.91,8.96,8.97,-8.96,-8.88,-10.88,8.94,8.94,8.94
31.61,17.89,17.89,8.96,8.95,-8.95,-8.89,-10.90,8.94,8.94,8.94
31.93,17.88,17.88,8.94,8.94,-8.94,-8.90,-10.90,8.94,8.94,8.94
32.24,17.86,17.87,8.93,8.93,-8.93,-8.92,-10.88,8.93,8.94,8.94
32.57,17.85,17.85,8.92,8.91,-8.91,-8.92,-10.84,8.94,8.94,8.93
32.89,17.83,17.83,8.90,8.90,-8.90,-8.93,-10.80,8.93,8.93,8.94
33.22,17.81,17.81,8.88,8.88,-8.89,-8.94,-10.73,8.93,8.93,8.93
33.55,17.79,17.79,8.87,8.87,-8.87,-8.94,-10.65,8.92,8.92,8.93
33.89,17.77,17.77,8.86,8.86,-8.86,-8.94,-10.56,8.92,8.92,8.91
34.23,17.75,17.75,8.85,8.85,-8.85,-8.94,-10.46,8.91,8.91,8.91
34.57,17.73,17.73,8.83,8.83,-8.83,-8.93,-10.35,8.90,8.90,8.90
34.92,17.71,17.71,8.83,8.82,-8.82,-8.93,-10.24,8.89,8.89,8.89
35.27,17.68,17.69,8.81,8.82,-8.81,-8.91,-10.11,8.87,8.87,8.87
35.62,17.66,17.66,8.81,8.81,-8.80,-8.90,-9.99,8.86,8.86,8.86
35.97,17.63,17.63,8.79,8.79,-8.80,-8.89,-9.86,8.84,8.84,8.84
36.33,17.60,17.60,8.78,8.78,-8.79,-8.87,-9.73,8.82,8.82,8.82
36.70,17.57,17.57,8.78,8.78,-8.78,-8.85,-9.60,8.80,8.80,8.80
37.06,17.54,17.54,8.77,8.77,-8.77,-8.83,-9.46,8.78,8.78,8.78
37.43,17.51,17.51,8.76,8.76,-8.76,-8.81,-9.33,8.76,8.75,8.75
37.81,17.47,17.48,8.74,8.75,-8.75,-8.78,-9.20,8.73,8.73,8.73
38.19,17.44,17.44,8.74,8.74,-8.73,-8.76,-9.08,8.71,8.71,8.71
38.57,17.41,17.41,8.73,8.72,-8.72,-8.73,-8.95,8.69,8.69,8.69
38.95,17.37,17.37,8.70,8.71,-8.71,-8.70,-8.83,8.67,8.67,8.67
39.34,17.33,17.34,8.68,8.69,-8.69,-8.68,-8.72,8.65,8.65,8.65
39.74,17.30,17.30,8.67,8.67,-8.67,-8.65,-8.61,8.64,8.63,8.63
40.14,17.26,17.26,8.65,8.65,-8.65,-8.62,-8.50,8.62,8.62,8.61
40.54,17.22,17.23,8.62,8.62,-8.62,-8.59,-8.40,8.60,8.60,8.60
40.94,17.18,17.18,8.59,8.60,-8.60,-8.56,-8.30,8.59,8.59,8.59
41.35,17.14,17.14,8.57,8.57,-8.57,-8.53,-8.21,8.57,8.57,8.57
41.76,17.10,17.10,8.54,8.54,-8.54,-8.50,-8.12,8.56,8.57,8.56
42.18,17.06,17.06,8.50,8.51,-8.51,-8.47,-8.04,8.56,8.56,8.56
42.60,17.02,17.02,8.48,8.47,-8.47,-8.44,-7.96,8.55,8.55,8.55
43.03,16.97,16.98,8.44,8.44,-8.44,-8.41,-7.89,8.54,8.54,8.54
43.46,16.93,16.93,8.40,8.40,-8.40,-8.38,-7.82,8.53,8.53,8.53
43.90,16.89,16.89,8.36,8.36,-8.36,-8.35,-7.77,8.53,8.53,8.53
44.33,16.84,16.84,8.33,8.32,-8.32,-8.33,-7.71,8.52,8.52,8.52
44.78,16.79,16.80,8.28,8.28,-8.29,-8.30,-7.66,8.51,8.51,8.51
45.23,16.75,16.75,8.25,8.25,-8.25,-8.27,-7.62,8.51,8.50,8.51
45.68,16.70,16.70,8.21,8.21,-8.21,-8.24,-7.58,8.50,8.49,8.49
46.13,16.65,16.65,8.17,8.17,-8.17,-8.21,-7.55,8.48,8.48,8.48
46.60,16.60,16.60,8.13,8.13,-8.13,-8.18,-7.53,8.47,8.47,8.47
47.06,16.55,16.55,8.10,8.10,-8.10,-8.15,-7.50,8.45,8.45,8.46
47.53,16.50,16.50,8.06,8.06,-8.06,-8.12,-7.49,8.44,8.44,8.44
48.01,16.45,16.45,8.03,8.03,-8.03,-8.09,-7.48,8.42,8.42,8.42
48.49,16.40,16.40,8.00,8.00,-8.00,-8.06,-7.47,8.41,8.40,8.40
48.97,16.35,16.35,7.97,7.97,-7.97,-8.02,-7.47,8.39,8.38,8.38
49.46,16.29,16.30,7.93,7.94,-7.94,-7.99,-7.47,8.36,8.36,8.37
49.96,16.24,16.24,7.91,7.91,-7.91,-7.96,-7.48,8.34,8.34,8.34
50.46,16.19,16.19,7.88,7.88,-7.88,-7.93,-7.49,8.31,8.31,8.31
50.96,16.13,16.14,7.85,7.85,-7.85,-7.90,-7.50,8.28,8.29,8.28
51.47,16.08,16.08,7.82,7.82,-7.82,-7.86,-7.52,8.26,8.26,8.26
51.99,16.03,16.03,7.80,7.79,-7.79,-7.83,-7.54,8.24,8.24,8.24
52.51,15.97,15.97,7.76,7.76,-7.76,-7.80,-7.56,8.21,8.22,8.21
53.03,15.91,15.92,7.72,7.73,-7.73,-7.77,-7.58,8.19,8.19,8.19
53.56,15.86,15.86,7.70,7.70,-7.70,-7.73,-7.61,8.17,8.16,8.16
54.10,15.80,15.80,7.67,7.66,-7.67,-7.70,-7.63,8.14,8.14,8.14
54.64,15.74,15.75,7.63,7.63,-7.64,-7.66,-7.66,8.11,8.11,8.11
55.18,15.68,15.69,7.60,7.60,-7.61,-7.63,-7.68,8.08,8.08,8.08
55.74,15.63,15.63,7.58,7.58,-7.57,-7.60,-7.71,8.06,8.06,8.06
56.29,15.57,15.57,7.55,7.55,-7.54,-7.56,-7.73,8.03,8.03,8.03
56.86,15.51,15.51,7.52,7.52,-7.51,-7.53,-7.75,8.00,8.00,8.00
57.42,15.45,15.45,7.49,7.49,-7.49,-7.50,-7.77,7.97,7.96,7.96
58.00,15.38,15.39,7.45,7.45,-7.46,-7.47,-7.79,7.93,7.93,7.93
58.58,15.32,15.33,7.42,7.43,-7.43,-7.44,-7.80,7.90,7.90,7.90
59.16,15.26,15.26,7.40,7.40,-7.40,-7.41,-7.81,7.86,7.86,7.87
59.76,15.20,15.20,7.37,7.37,-7.37,-7.38,-7.81,7.83,7.83,7.83
60.35,15.13,15.14,7.34,7.34,-7.34,-7.35,-7.81,7.79,7.80,7.79
60.96,15.07,15.07,7.32,7.32,-7.32,-7.32,-7.81,7.76,7.75,7.76
61.57,15.00,15.00,7.30,7.29,-7.29,-7.30,-7.80,7.71,7.71,7.71
62.18,14.93,14.94,7.26,7.27,-7.27,-7.27,-7.78,7.67,7.67,7.67
62.80,14.86,14.87,7.23,7.24,-7.24,-7.25,-7.75,7.62,7.62,7.63
63.43,14.80,14.80,7.23,7.22,-7.22,-7.22,-7.72,7.59,7.58,7.58
64.07,14.73,14.73,7.20,7.20,-7.19,-7.20,-7.69,7.54,7.54,7.54
64.71,14.66,14.66,7.17,7.17,-7.17,-7.18,-7.65,7.50,7.50,7.49
65.35,14.59,14.59,7.15,7.14,-7.14,-7.16,-7.60,7.45,7.45,7.45
66.01,14.51,14.52,7.11,7.12,-7.12,-7.14,-7.55,7.40,7.40,7.40
66.67,14.44,14.44,7.09,7.09,-7.09,-7.12,-7.50,7.35,7.35,7.36
67.33,14.37,14.37,7.07,7.06,-7.07,-7.10,-7.44,7.31,7.30,7.31
68.01,14.29,14.30,7.04,7.04,-7.04,-7.08,-7.37,7.25,7.26,7.26
68.69,14.22,14.22,7.02,7.02,-7.01,-7.06,-7.30,7.21,7.21,7.21
69.37,14.15,14.15,7.00,6.99,-6.99,-7.05,-7.23,7.16,7.16,7.16
70.07,14.07,14.07,6.96,6.96,-6.96,-7.03,-7.16,7.11,7.11,7.11
70.77,13.99,14.00,6.93,6.94,-6.94,-7.01,-7.09,7.05,7.06,7.06
71.48,13.92,13.92,6.92,6.91,-6.92,-6.99,-7.01,7.01,7.01,7.01
72.19,13.84,13.84,6.89,6.89,-6.89,-6.97,-6.94,6.95,6.95,6.95
72.91,13.76,13.76,6.86,6.87,-6.87,-6.95,-6.86,6.90,6.90,6.90
73.64,13.68,13.68,6.84,6.84,-6.84,-6.93,-6.78,6.84,6.84,6.84
74.38,13.60,13.60,6.82,6.82,-6.82,-6.91,-6.71,6.78,6.79,6.78
75.12,13.52,13.52,6.80,6.80,-6.80,-6.89,-6.63,6.73,6.73,6.72
75.87,13.44,13.44,6.77,6.77,-6.77,-6.87,-6.56,6.67,6.67,6.67
76.63,13.35,13.36,6.75,6.75,-6.75,-6.84,-6.49,6.60,6.61,6.61
77.40,13.27,13.27,6.73,6.73,-6.73,-6.82,-6.42,6.55,6.55,6.54
78.17,13.18,13.19,6.70,6.70,-6.70,-6.80,-6.36,6.48,6.48,6.48
78.95,13.10,13.10,6.68,6.68,-6.68,-6.77,-6.30,6.42,6.42,6.42
79.74,13.01,13.01,6.66,6.66,-6.66,-6.75,-6.24,6.35,6.35,6.35
80.54,12.92,12.93,6.64,6.64,-6.64,-6.72,-6.18,6.28,6.29,6.29
81.35,12.84,12.84,6.62,6.62,-6.62,-6.69,-6.13,6.23,6.22,6.23
82.16,12.75,12.75,6.60,6.60,-6.60,-6.66,-6.08,6.16,6.16,6.16
82.98,12.66,12.67,6.58,6.58,-6.57,-6.63,-6.03,6.09,6.09,6.08
83.81,12.57,12.57,6.55,6.55,-6.55,-6.60,-5.99,6.02,6.02,6.02
84.65,12.48,12.48,6.54,6.53,-6.53,-6.57,-5.96,5.96,5.95,5.95
85.50,12.38,12.39,6.50,6.50,-6.50,-6.54,-5.92,5.88,5.88,5.88
86.35,12.29,12.29,6.47,6.48,-6.48,-6.51,-5.90,5.81,5.81,5.82
87.22,12.19,12.20,6.45,6.45,-6.45,-6.48,-5.87,5.74,5.74,5.74
88.09,12.10,12.10,6.43,6.43,-6.43,-6.45,-5.85,5.67,5.67,5.68
88.97,12.00,12.01,6.41,6.41,-6.40,-6.41,-5.84,5.60,5.60,5.60
89.86,11.91,11.91,6.38,6.38,-6.38,-6.38,-5.82,5.53,5.53,5.53
90.76,11.81,11.81,6.36,6.36,-6.36,-6.35,-5.82,5.45,5.45,5.45
91.66,11.71,11.71,6.33,6.34,-6.34,-6.31,-5.82,5.38,5.38,5.38
92.58,11.61,11.61,6.31,6.31,-6.32,-6.28,-5.82,5.30,5.30,5.30
93.51,11.51,11.51,6.29,6.29,-6.30,-6.25,-5.82,5.22,5.22,5.22
94.44,11.41,11.41,6.28,6.28,-6.27,-6.21,-5.83,5.14,5.14,5.14
95.39,11.31,11.31,6.26,6.25,-6.25,-6.18,-5.84,5.06,5.06,5.06
96.34,11.20,11.21,6.23,6.23,-6.23,-6.15,-5.86,4.97,4.97,4.97
97.30,11.10,11.10,6.21,6.22,-6.22,-6.11,-5.88,4.89,4.89,4.89
98.28,10.99,11.00,6.20,6.20,-6.20,-6.08,-5.91,4.80,4.80,4.80
99.26,10.89,10.89,6.18,6.18,-6.18,-6.05,-5.93,4.72,4.71,4.71
100.25,10.78,10.78,6.15,6.16,-6.16,-6.01,-5.96,4.62,4.62,4.63
101.25,10.67,10.68,6.14,6.14,-6.14,-5.98,-5.99,4.53,4.54,4.53
102.27,10.57,10.57,6.12,6.12,-6.12,-5.95,-6.03,4.46,4.45,4.45
103.29,10.46,10.46,6.10,6.10,-6.10,-5.92,-6.07,4.37,4.37,4.37
104.32,10.35,10.35,6.07,6.07,-6.07,-5.89,-6.11,4.28,4.28,4.28
105.37,10.24,10.24,6.05,6.05,-6.05,-5.86,-6.14,4.20,4.20,4.20
106.42,10.13,10.13,6.02,6.02,-6.02,-5.83,-6.19,4.11,4.11,4.11
107.48,10.02,10.02,6.00,6.00,-6.00,-5.80,-6.23,4.03,4.03,4.03
108.56,9.91,9.91,5.97,5.97,-5.97,-5.77,-6.27,3.95,3.95,3.94
109.64,9.80,9.80,5.93,5.94,-5.94,-5.75,-6.31,3.86,3.86,3.87
110.74,9.69,9.69,5.91,5.91,-5.91,-5.72,-6.35,3.78,3.78,3.78
111.85,9.58,9.58,5.88,5.88,-5.88,-5.70,-6.38,3.70,3.70,3.70
112.97,9.47,9.47,5.86,5.85,-5.85,-5.68,-6.42,3.62,3.62,3.62
114.10,9.35,9.36,5.82,5.82,-5.82,-5.65,-6.45,3.53,3.54,3.53
115.24,9.24,9.24,5.79,5.79,-5.79,-5.63,-6.48,3.45,3.45,3.45
116.39,9.12,9.13,5.76,5.76,-5.76,-5.61,-6.51,3.36,3.36,3.36
117.55,9.01,9.01,5.74,5.73,-5.74,-5.60,-6.53,3.28,3.27,3.28
118.73,8.89,8.90,5.71,5.71,-5.71,-5.58,-6.55,3.18,3.18,3.19
119.92,8.78,8.79,5.69,5.69,-5.69,-5.56,-6.56,3.09,3.09,3.10
121.12,8.68,8.68,5.68,5.68,-5.68,-5.55,-6.56,3.01,3.01,3.01
122.33,8.58,8.58,5.67,5.67,-5.67,-5.54,-6.56,2.92,2.92,2.92
123.55,8.48,8.49,5.66,5.66,-5.66,-5.53,-6.56,2.83,2.83,2.83
124.79,8.39,8.39,5.65,5.65,-5.66,-5.52,-6.55,2.74,2.74,2.74
126.03,8.30,8.30,5.65,5.66,-5.66,-5.51,-6.53,2.65,2.65,2.65
127.29,8.22,8.22,5.67,5.66,-5.66,-5.50,-6.50,2.56,2.56,2.56
128.57,8.14,8.14,5.67,5.67,-5.67,-5.50,-6.48,2.47,2.47,2.47
129.85,8.07,8.07,5.69,5.69,-5.69,-5.49,-6.44,2.39,2.39,2.39
131.15,8.00,8.00,5.70,5.70,-5.70,-5.49,-6.40,2.30,2.30,2.30
132.46,7.94,7.94,5.72,5.72,-5.72,-5.49,-6.35,2.22,2.22,2.22
133.79,7.88,7.89,5.74,5.74,-5.74,-5.49,-6.30,2.14,2.14,2.15
135.12,7.83,7.84,5.77,5.77,-5.77,-5.49,-6.24,2.07,2.07,2.07
136.48,7.79,7.79,5.80,5.79,-5.79,-5.50,-6.18,2.00,2.00,2.00
137.84,7.74,7.75,5.82,5.82,-5.82,-5.50,-6.12,1.93,1.93,1.93
139.22,7.70,7.70,5.84,5.84,-5.85,-5.51,-6.05,1.86,1.86,1.86
140.61,7.66,7.66,5.87,5.87,-5.87,-5.51,-5.98,1.79,1.79,1.79
142.02,7.62,7.62,5.90,5.90,-5.90,-5.52,-5.91,1.73,1.73,1.73
143.44,7.58,7.58,5.92,5.92,-5.92,-5.53,-5.84,1.67,1.67,1.66
144.87,7.54,7.54,5.94,5.94,-5.94,-5.54,-5.76,1.61,1.60,1.60
146.32,7.49,7.49,5.96,5.96,-5.95,-5.54,-5.69,1.54,1.54,1.54
147.78,7.44,7.44,5.97,5.97,-5.96,-5.55,-5.61,1.48,1.48,1.48
149.26,7.38,7.39,5.97,5.97,-5.97,-5.56,-5.54,1.41,1.42,1.42
150.75,7.33,7.33,5.98,5.97,-5.97,-5.57,-5.46,1.36,1.36,1.36
152.26,7.26,7.27,5.96,5.97,-5.97,-5.58,-5.39,1.30,1.30,1.30
153.78,7.20,7.20,5.96,5.96,-5.96,-5.59,-5.32,1.25,1.25,1.24
155.32,7.13,7.13,5.94,5.94,-5.94,-5.60,-5.25,1.19,1.19,1.19
156.88,7.06,7.06,5.93,5.93,-5.93,-5.61,-5.18,1.14,1.14,1.13
158.44,6.98,6.98,5.90,5.90,-5.91,-5.62,-5.11,1.08,1.08,1.08
160.03,6.90,6.91,5.87,5.88,-5.88,-5.63,-5.05,1.02,1.02,1.03
161.63,6.82,6.82,5.85,5.85,-5.85,-5.63,-4.99,0.97,0.97,0.97
163.24,6.74,6.74,5.83,5.83,-5.82,-5.64,-4.93,0.92,0.92,0.91
164.88,6.65,6.66,5.79,5.80,-5.79,-5.64,-4.88,0.86,0.86,0.86
166.53,6.57,6.57,5.76,5.76,-5.76,-5.64,-4.82,0.82,0.81,0.81
168.19,6.48,6.49,5.72,5.72,-5.72,-5.64,-4.77,0.76,0.76,0.77
169.87,6.40,6.40,5.68,5.68,-5.69,-5.64,-4.73,0.72,0.72,0.72
171.57,6.32,6.32,5.65,5.65,-5.65,-5.64,-4.69,0.68,0.67,0.67
173.29,6.23,6.24,5.61,5.61,-5.61,-5.63,-4.65,0.63,0.63,0.63
175.02,6.15,6.15,5.57,5.57,-5.57,-5.62,-4.61,0.58,0.59,0.59
176.77,6.07,6.07,5.53,5.53,-5.53,-5.61,-4.58,0.54,0.54,0.54
178.54,5.99,5.99,5.49,5.49,-5.49,-5.59,-4.55,0.50,0.50,0.51
180.32,5.91,5.91,5.45,5.45,-5.45,-5.58,-4.52,0.46,0.47,0.47
182.13,5.83,5.84,5.40,5.41,-5.41,-5.56,-4.50,0.43,0.43,0.43
183.95,5.76,5.76,5.37,5.37,-5.37,-5.53,-4.48,0.40,0.39,0.39
185.79,5.68,5.68,5.33,5.32,-5.33,-5.51,-4.47,0.36,0.36,0.36
187.65,5.60,5.60,5.28,5.28,-5.28,-5.48,-4.46,0.32,0.32,0.32
189.52,5.52,5.53,5.23,5.24,-5.24,-5.44,-4.45,0.28,0.29,0.29
191.42,5.44,5.45,5.20,5.20,-5.19,-5.41,-4.44,0.25,0.25,0.25
193.33,5.37,5.37,5.16,5.15,-5.15,-5.37,-4.44,0.23,0.22,0.22
195.27,5.28,5.29,5.10,5.10,-5.10,-5.33,-4.44,0.19,0.19,0.19
197.22,5.20,5.21,5.05,5.05,-5.05,-5.29,-4.44,0.15,0.16,0.16
199.19,5.12,5.12,5.00,5.00,-5.00,-5.24,-4.45,0.13,0.13,0.13
201.18,5.04,5.04,4.94,4.94,-4.94,-5.19,-4.45,0.10,0.10,0.10
203.19,4.96,4.96,4.89,4.89,-4.89,-5.14,-4.46,0.07,0.07,0.07
205.23,4.88,4.88,4.84,4.84,-4.84,-5.09,-4.47,0.05,0.05,0.05
207.28,4.80,4.80,4.78,4.78,-4.78,-5.03,-4.48,0.02,0.02,0.02
209.35,4.72,4.72,4.73,4.73,-4.73,-4.97,-4.50,-0.01,-0.01,-0.00
211.44,4.64,4.64,4.67,4.68,-4.68,-4.91,-4.51,-0.03,-0.03,-0.03
213.56,4.56,4.57,4.63,4.62,-4.63,-4.85,-4.53,-0.06,-0.06,-0.06
215.69,4.49,4.49,4.58,4.57,-4.57,-4.79,-4.54,-0.08,-0.08,-0.08
217.85,4.41,4.42,4.52,4.52,-4.52,-4.73,-4.56,-0.11,-0.10,-0.11
220.03,4.34,4.34,4.47,4.47,-4.47,-4.66,-4.57,-0.13,-0.13,-0.13
222.23,4.27,4.27,4.42,4.42,-4.42,-4.59,-4.59,-0.14,-0.15,-0.15
224.45,4.20,4.20,4.37,4.37,-4.37,-4.53,-4.60,-0.16,-0.16,-0.17
226.70,4.13,4.13,4.32,4.32,-4.32,-4.46,-4.61,-0.18,-0.18,-0.19
228.96,4.06,4.06,4.27,4.26,-4.27,-4.39,-4.62,-0.21,-0.21,-0.20
231.25,3.99,3.99,4.22,4.22,-4.22,-4.32,-4.63,-0.23,-0.23,-0.22
233.57,3.92,3.93,4.16,4.17,-4.17,-4.26,-4.63,-0.25,-0.25,-0.24
235.90,3.86,3.86,4.14,4.13,-4.13,-4.19,-4.63,-0.26,-0.27,-0.28
238.26,3.79,3.80,4.09,4.09,-4.08,-4.12,-4.63,-0.29,-0.29,-0.29
240.64,3.73,3.73,4.04,4.04,-4.03,-4.05,-4.63,-0.30,-0.30,-0.31
243.05,3.66,3.67,3.99,3.99,-3.99,-3.99,-4.62,-0.32,-0.32,-0.32
245.48,3.60,3.60,3.94,3.94,-3.94,-3.92,-4.61,-0.34,-0.34,-0.34
247.93,3.54,3.54,3.89,3.89,-3.89,-3.86,-4.59,-0.35,-0.35,-0.35
250.41,3.48,3.48,3.85,3.85,-3.85,-3.79,-4.57,-0.36,-0.37,-0.36
252.92,3.42,3.42,3.80,3.80,-3.80,-3.73,-4.55,-0.38,-0.38,-0.38
255.45,3.36,3.37,3.75,3.76,-3.76,-3.66,-4.52,-0.39,-0.39,-0.39
258.00,3.31,3.31,3.72,3.71,-3.71,-3.60,-4.49,-0.40,-0.40,-0.40
260.58,3.25,3.25,3.67,3.67,-3.67,-3.54,-4.45,-0.42,-0.42,-0.41
263.19,3.19,3.20,3.63,3.63,-3.63,-3.48,-4.41,-0.44,-0.43,-0.43
265.82,3.14,3.14,3.59,3.59,-3.59,-3.42,-4.36,-0.45,-0.45,-0.45
268.48,3.09,3.09,3.55,3.55,-3.55,-3.37,-4.32,-0.46,-0.46,-0.46
271.16,3.03,3.04,3.51,3.51,-3.51,-3.31,-4.27,-0.48,-0.47,-0.48
273.87,2.98,2.98,3.47,3.47,-3.47,-3.26,-4.21,-0.49,-0.49,-0.49
276.61,2.93,2.93,3.44,3.44,-3.44,-3.21,-4.16,-0.50,-0.50,-0.51
279.38,2.88,2.88,3.40,3.40,-3.40,-3.16,-4.10,-0.52,-0.52,-0.52
282.17,2.83,2.84,3.37,3.36,-3.36,-3.11,-4.04,-0.53,-0.53,-0.53
284.99,2.79,2.79,3.33,3.33,-3.33,-3.06,-3.98,-0.53,-0.54,-0.53
287.84,2.74,2.74,3.28,3.29,-3.29,-3.01,-3.92,-0.55,-0.55,-0.54
290.72,2.69,2.70,3.25,3.25,-3.25,-2.97,-3.85,-0.56,-0.55,-0.56
293.63,2.65,2.65,3.22,3.22,-3.22,-2.93,-3.79,-0.56,-0.56,-0.57
296.57,2.61,2.61,3.19,3.18,-3.18,-2.88,-3.73,-0.57,-0.57,-0.57
299.53,2.56,2.57,3.13,3.14,-3.14,-2.85,-3.66,-0.58,-0.58,-0.57
302.53,2.52,2.52,3.11,3.11,-3.11,-2.81,-3.60,-0.58,-0.58,-0.59
305.55,2.48,2.48,3.07,3.07,-3.07,-2.77,-3.54,-0.59,-0.59,-0.58
308.61,2.44,2.44,3.04,3.04,-3.04,-2.74,-3.47,-0.60,-0.60,-0.60
311.69,2.40,2.40,3.00,3.01,-3.01,-2.71,-3.41,-0.60,-0.60,-0.60
314.81,2.36,2.37,2.98,2.97,-2.97,-2.68,-3.35,-0.61,-0.61,-0.61
317.96,2.33,2.33,2.94,2.94,-2.94,-2.65,-3.30,-0.61,-0.61,-0.61
321.14,2.29,2.30,2.91,2.91,-2.91,-2.62,-3.24,-0.61,-0.61,-0.61
324.35,2.26,2.26,2.88,2.88,-2.88,-2.60,-3.18,-0.61,-0.62,-0.62
327.59,2.22,2.23,2.84,2.84,-2.85,-2.57,-3.13,-0.62,-0.62,-0.61
330.87,2.19,2.19,2.81,2.81,-2.82,-2.55,-3.08,-0.62,-0.62,-0.62
334.18,2.16,2.16,2.79,2.79,-2.79,-2.53,-3.03,-0.62,-0.62,-0.62
337.52,2.13,2.13,2.76,2.76,-2.76,-2.52,-2.98,-0.62,-0.62,-0.63
340.90,2.10,2.10,2.74,2.73,-2.73,-2.50,-2.93,-0.62,-0.62,-0.63
344.30,2.07,2.07,2.70,2.70,-2.70,-2.49,-2.89,-0.63,-0.63,-0.63
347.75,2.04,2.04,2.67,2.67,-2.67,-2.47,-2.85,-0.63,-0.63,-0.62
351.23,2.01,2.01,2.65,2.64,-2.64,-2.46,-2.81,-0.63,-0.63,-0.64
354.74,1.98,1.99,2.60,2.61,-2.62,-2.45,-2.77,-0.63,-0.63,-0.62
358.28,1.96,1.96,2.60,2.59,-2.59,-2.45,-2.74,-0.63,-0.63,-0.63
361.87,1.93,1.94,2.56,2.56,-2.56,-2.44,-2.71,-0.63,-0.63,-0.63
365.49,1.91,1.91,2.54,2.54,-2.54,-2.44,-2.67,-0.63,-0.63,-0.63
369.14,1.88,1.89,2.52,2.52,-2.52,-2.43,-2.65,-0.63,-0.63,-0.63
372.83,1.86,1.86,2.49,2.49,-2.50,-2.43,-2.62,-0.63,-0.63,-0.63
376.56,1.84,1.84,2.47,2.47,-2.48,-2.43,-2.59,-0.63,-0.63,-0.63
380.33,1.82,1.82,2.46,2.46,-2.46,-2.43,-2.57,-0.63,-0.63,-0.63
384.13,1.80,1.80,2.45,2.44,-2.44,-2.44,-2.55,-0.63,-0.63,-0.65
387.97,1.78,1.78,2.42,2.42,-2.42,-2.44,-2.53,-0.63,-0.63,-0.64
391.85,1.76,1.76,2.39,2.40,-2.40,-2.44,-2.51,-0.64,-0.64,-0.63
395.77,1.74,1.74,2.38,2.38,-2.38,-2.45,-2.50,-0.64,-0.64,-0.63
399.73,1.72,1.73,2.36,2.36,-2.37,-2.45,-2.48,-0.64,-0.64,-0.64
403.72,1.71,1.71,2.35,2.35,-2.35,-2.46,-2.47,-0.64,-0.64,-0.64
407.76,1.69,1.70,2.33,2.34,-2.33,-2.47,-2.45,-0.64,-0.64,-0.64
411.84,1.68,1.68,2.33,2.32,-2.32,-2.47,-2.44,-0.64,-0.64,-0.64
415.96,1.67,1.67,2.31,2.31,-2.31,-2.48,-2.43,-0.64,-0.64,-0.63
420.12,1.65,1.66,2.30,2.30,-2.30,-2.48,-2.42,-0.65,-0.65,-0.65
424.32,1.64,1.64,2.29,2.29,-2.29,-2.49,-2.41,-0.65,-0.65,-0.65
428.56,1.63,1.63,2.28,2.29,-2.29,-2.49,-2.40,-0.65,-0.65,-0.65
432.85,1.62,1.62,2.28,2.28,-2.28,-2.49,-2.39,-0.65,-0.65,-0.65
437.18,1.61,1.61,2.28,2.27,-2.27,-2.49,-2.38,-0.65,-0.66,-0.66
441.55,1.59,1.60,2.26,2.26,-2.26,-2.49,-2.37,-0.66,-0.66,-0.67
445.96,1.58,1.58,2.25,2.25,-2.25,-2.49,-2.36,-0.66,-0.66,-0.67
450.42,1.57,1.57,2.23,2.24,-2.24,-2.48,-2.35,-0.67,-0.67,-0.66
454.93,1.56,1.56,2.22,2.22,-2.23,-2.48,-2.34,-0.67,-0.67,-0.66
459.48,1.55,1.55,2.22,2.21,-2.22,-2.47,-2.33,-0.66,-0.67,-0.66
464.07,1.53,1.54,2.21,2.21,-2.21,-2.45,-2.31,-0.67,-0.67,-0.67
468.71,1.52,1.52,2.20,2.20,-2.20,-2.44,-2.30,-0.67,-0.67,-0.67
473.40,1.51,1.51,2.19,2.19,-2.18,-2.42,-2.28,-0.67,-0.67,-0.68
478.13,1.49,1.50,2.17,2.17,-2.17,-2.40,-2.26,-0.68,-0.67,-0.68
482.91,1.48,1.48,2.16,2.16,-2.16,-2.37,-2.24,-0.67,-0.68,-0.68
487.74,1.46,1.47,2.13,2.14,-2.14,-2.34,-2.22,-0.68,-0.68,-0.67
492.62,1.45,1.45,2.12,2.13,-2.13,-2.31,-2.19,-0.67,-0.67,-0.67
