frequency,raw,smoothed,error,error_smoothed,equalization,parametric_eq,fixed_band_eq,equalized_raw,equalized_smoothed,target
20.00,1.41,1.41,-4.30,-4.30,4.29,4.01,1.74,5.70,5.70,5.71
20.20,1.42,1.42,-4.29,-4.29,4.28,4.01,1.79,5.71,5.71,5.71
20.40,1.43,1.44,-4.28,-4.27,4.27,4.01,1.84,5.71,5.71,5.71
20.61,1.45,1.45,-4.26,-4.26,4.26,4.00,1.89,5.71,5.71,5.71
20.81,1.46,1.46,-4.24,-4.25,4.25,4.00,1.95,5.71,5.71,5.71
21.02,1.47,1.47,-4.23,-4.23,4.24,3.99,2.01,5.71,5.71,5.71
21.23,1.48,1.48,-4.22,-4.22,4.23,3.99,2.07,5.71,5.71,5.71
21.44,1.49,1.49,-4.21,-4.21,4.21,3.99,2.13,5.71,5.71,5.70
21.66,1.50,1.50,-4.20,-4.20,4.20,3.98,2.19,5.70,5.70,5.70
21.87,1.51,1.51,-4.19,-4.19,4.18,3.98,2.26,5.70,5.70,5.70
22.09,1.52,1.52,-4.18,-4.18,4.17,3.97,2.32,5.69,5.69,5.70
22.31,1.54,1.54,-4.16,-4.16,4.15,3.97,2.39,5.69,5.69,5.70
22.54,1.56,1.57,-4.14,-4.13,4.14,3.96,2.46,5.70,5.70,5.70
22.76,1.59,1.59,-4.11,-4.11,4.12,3.96,2.53,5.71,5.71,5.70
22.99,1.61,1.61,-4.09,-4.09,4.11,3.96,2.61,5.72,5.72,5.70
23.22,1.61,1.61,-4.09,-4.08,4.10,3.95,2.68,5.71,5.71,5.70
23.45,1.61,1.61,-4.08,-4.08,4.08,3.95,2.76,5.70,5.70,5.70
23.69,1.61,1.61,-4.08,-4.08,4.07,3.94,2.84,5.68,5.68,5.70
23.92,1.61,1.62,-4.08,-4.08,4.06,3.94,2.92,5.67,5.68,5.69
24.16,1.63,1.63,-4.06,-4.06,4.05,3.93,3.00,5.68,5.68,5.69
24.40,1.65,1.65,-4.04,-4.04,4.03,3.93,3.08,5.69,5.69,5.69
24.65,1.68,1.68,-4.01,-4.01,4.02,3.92,3.16,5.70,5.70,5.69
24.89,1.70,1.70,-3.99,-3.99,4.01,3.91,3.25,5.71,5.71,5.69
25.14,1.71,1.71,-3.98,-3.98,3.99,3.91,3.33,5.71,5.70,5.69
25.39,1.71,1.71,-3.97,-3.97,3.98,3.90,3.42,5.69,5.69,5.69
25.65,1.71,1.71,-3.97,-3.97,3.96,3.90,3.51,5.68,5.68,5.69
25.91,1.71,1.72,-3.97,-3.97,3.95,3.89,3.59,5.66,5.66,5.68
26.16,1.73,1.73,-3.95,-3.95,3.93,3.89,3.68,5.67,5.66,5.68
26.43,1.75,1.76,-3.93,-3.92,3.92,3.88,3.76,5.67,5.68,5.68
26.69,1.78,1.78,-3.90,-3.90,3.91,3.87,3.85,5.69,5.69,5.68
26.96,1.81,1.80,-3.87,-3.87,3.89,3.87,3.93,5.71,5.70,5.68
27.23,1.81,1.81,-3.86,-3.86,3.88,3.86,4.01,5.69,5.69,5.68
27.50,1.81,1.81,-3.86,-3.86,3.86,3.85,4.09,5.67,5.67,5.67
27.77,1.81,1.81,-3.86,-3.86,3.84,3.85,4.17,5.65,5.66,5.67
28.05,1.82,1.82,-3.85,-3.85,3.82,3.84,4.24,5.65,5.65,5.67
28.33,1.84,1.85,-3.82,-3.82,3.81,3.83,4.31,5.65,5.65,5.67
28.62,1.87,1.87,-3.79,-3.79,3.79,3.82,4.37,5.67,5.67,5.67
28.90,1.90,1.90,-3.76,-3.77,3.78,3.82,4.43,5.68,5.68,5.66
29.19,1.91,1.91,-3.75,-3.75,3.77,3.81,4.49,5.68,5.68,5.66
29.48,1.91,1.91,-3.75,-3.74,3.75,3.80,4.54,5.67,5.67,5.66
29.78,1.91,1.91,-3.74,-3.74,3.74,3.79,4.58,5.66,5.66,5.66
30.08,1.91,1.91,-3.74,-3.74,3.74,3.79,4.62,5.65,5.65,5.65
30.38,1.91,1.91,-3.74,-3.74,3.73,3.78,4.65,5.65,5.65,5.65
30.68,1.91,1.91,-3.74,-3.74,3.73,3.77,4.68,5.64,5.64,5.65
30.99,1.91,1.91,-3.73,-3.73,3.72,3.76,4.70,5.64,5.64,5.64
31.30,1.92,1.92,-3.72,-3.72,3.71,3.75,4.70,5.64,5.64,5.64
31.61,1.93,1.93,-3.71,-3.70,3.70,3.74,4.71,5.63,5.63,5.64
31.93,1.95,1.95,-3.68,-3.69,3.68,3.73,4.70,5.63,5.63,5.64
32.24,1.96,1.97,-3.67,-3.67,3.67,3.72,4.70,5.63,5.63,5.63
32.57,1.98,1.98,-3.65,-3.64,3.65,3.71,4.68,5.63,5.63,5.63
32.89,2.00,2.00,-3.62,-3.63,3.63,3.71,4.66,5.64,5.63,5.62
33.22,2.01,2.01,-3.61,-3.61,3.62,3.70,4.63,5.63,5.63,5.62
33.55,2.01,2.01,-3.60,-3.60,3.61,3.69,4.59,5.62,5.62,5.62
33.89,2.01,2.01,-3.60,-3.60,3.60,3.67,4.55,5.61,5.62,5.61
34.23,2.01,2.01,-3.60,-3.60,3.60,3.66,4.51,5.61,5.61,5.61
34.57,2.01,2.01,-3.59,-3.59,3.59,3.65,4.46,5.61,5.61,5.60
34.92,2.01,2.01,-3.59,-3.59,3.59,3.64,4.41,5.60,5.60,5.60
35.27,2.01,2.01,-3.58,-3.59,3.58,3.63,4.35,5.59,5.59,5.59
35.62,2.01,2.01,-3.58,-3.58,3.56,3.62,4.29,5.57,5.57,5.59
35.97,2.01,2.02,-3.57,-3.56,3.54,3.61,4.23,5.56,5.57,5.58
36.33,2.04,2.05,-3.54,-3.53,3.52,3.60,4.17,5.57,5.57,5.58
36.70,2.08,2.08,-3.49,-3.50,3.50,3.58,4.10,5.59,5.58,5.57
37.06,2.11,2.10,-3.46,-3.47,3.48,3.57,4.04,5.60,5.59,5.57
37.43,2.11,2.11,-3.45,-3.45,3.47,3.56,3.97,5.58,5.58,5.56
37.81,2.11,2.12,-3.44,-3.44,3.45,3.55,3.91,5.56,5.56,5.56
38.19,2.11,2.11,-3.44,-3.44,3.44,3.53,3.84,5.55,5.55,5.55
38.57,2.11,2.11,-3.43,-3.43,3.43,3.52,3.77,5.54,5.54,5.54
38.95,2.11,2.11,-3.42,-3.42,3.42,3.50,3.71,5.54,5.54,5.54
39.34,2.11,2.11,-3.42,-3.42,3.42,3.49,3.65,5.53,5.53,5.53
39.74,2.11,2.11,-3.41,-3.41,3.41,3.48,3.58,5.52,5.52,5.52
40.14,2.11,2.11,-3.40,-3.41,3.40,3.46,3.52,5.51,5.50,5.51
40.54,2.11,2.11,-3.39,-3.40,3.38,3.45,3.46,5.49,5.49,5.51
40.94,2.11,2.13,-3.39,-3.37,3.36,3.43,3.41,5.47,5.48,5.50
41.35,2.15,2.15,-3.34,-3.34,3.33,3.42,3.35,5.48,5.49,5.49
41.76,2.19,2.18,-3.29,-3.30,3.31,3.40,3.30,5.50,5.49,5.48
42.18,2.21,2.21,-3.26,-3.27,3.29,3.38,3.25,5.50,5.49,5.47
42.60,2.21,2.22,-3.25,-3.25,3.26,3.37,3.20,5.48,5.48,5.46
43.03,2.21,2.21,-3.24,-3.24,3.24,3.35,3.15,5.46,5.46,5.45
43.46,2.21,2.21,-3.23,-3.23,3.23,3.33,3.11,5.44,5.44,5.44
43.90,2.21,2.21,-3.22,-3.22,3.21,3.31,3.07,5.43,5.43,5.43
44.33,2.21,2.21,-3.21,-3.21,3.21,3.30,3.03,5.42,5.42,5.42
44.78,2.21,2.21,-3.20,-3.20,3.20,3.28,2.99,5.41,5.41,5.41
45.23,2.21,2.21,-3.19,-3.19,3.19,3.26,2.96,5.40,5.40,5.40
45.68,2.21,2.21,-3.18,-3.18,3.18,3.24,2.93,5.39,5.39,5.39
46.13,2.21,2.21,-3.16,-3.16,3.17,3.22,2.90,5.38,5.38,5.37
46.60,2.21,2.21,-3.15,-3.15,3.16,3.20,2.87,5.37,5.37,5.36
47.06,2.21,2.21,-3.14,-3.14,3.14,3.18,2.84,5.35,5.35,5.35
47.53,2.21,2.21,-3.12,-3.12,3.12,3.16,2.82,5.34,5.34,5.33
48.01,2.21,2.21,-3.11,-3.11,3.10,3.14,2.80,5.31,5.31,5.32
48.49,2.21,2.21,-3.09,-3.10,3.07,3.11,2.78,5.28,5.28,5.31
48.97,2.21,2.23,-3.08,-3.06,3.04,3.09,2.77,5.26,5.27,5.29
49.46,2.26,2.26,-3.01,-3.01,3.01,3.07,2.75,5.27,5.27,5.27
49.96,2.31,2.29,-2.95,-2.97,2.98,3.05,2.74,5.29,5.27,5.26
50.46,2.31,2.31,-2.93,-2.93,2.95,3.02,2.72,5.26,5.26,5.24
50.96,2.31,2.32,-2.91,-2.91,2.92,3.00,2.71,5.23,5.24,5.22
51.47,2.31,2.31,-2.89,-2.89,2.89,2.97,2.70,5.21,5.21,5.21
51.99,2.31,2.31,-2.87,-2.87,2.87,2.95,2.69,5.18,5.18,5.19
52.51,2.31,2.31,-2.86,-2.86,2.85,2.92,2.69,5.16,5.16,5.17
53.03,2.31,2.31,-2.84,-2.84,2.83,2.89,2.68,5.14,5.14,5.15
53.56,2.31,2.31,-2.81,-2.81,2.81,2.87,2.67,5.13,5.13,5.13
54.10,2.31,2.31,-2.79,-2.79,2.79,2.84,2.66,5.11,5.11,5.11
54.64,2.31,2.31,-2.77,-2.77,2.77,2.81,2.66,5.08,5.08,5.08
55.18,2.31,2.31,-2.75,-2.75,2.75,2.78,2.65,5.06,5.06,5.06
55.74,2.31,2.31,-2.73,-2.73,2.73,2.75,2.64,5.04,5.04,5.04
56.29,2.31,2.31,-2.70,-2.70,2.70,2.72,2.63,5.01,5.01,5.01
56.86,2.31,2.31,-2.68,-2.68,2.68,2.69,2.62,4.99,4.99,4.99
57.42,2.31,2.31,-2.65,-2.65,2.65,2.66,2.61,4.96,4.96,4.96
58.00,2.31,2.31,-2.62,-2.62,2.62,2.63,2.60,4.94,4.94,4.94
58.58,2.31,2.31,-2.60,-2.60,2.60,2.60,2.58,4.91,4.91,4.91
59.16,2.31,2.31,-2.57,-2.57,2.57,2.56,2.57,4.88,4.88,4.88
59.76,2.31,2.31,-2.54,-2.54,2.54,2.53,2.55,4.86,4.86,4.85
60.35,2.31,2.31,-2.51,-2.51,2.52,2.49,2.53,4.83,4.83,4.82
60.96,2.31,2.31,-2.48,-2.48,2.49,2.46,2.50,4.80,4.80,4.79
61.57,2.31,2.31,-2.45,-2.45,2.45,2.42,2.48,4.77,4.77,4.76
62.18,2.31,2.31,-2.42,-2.42,2.41,2.39,2.45,4.73,4.73,4.73
62.80,2.31,2.31,-2.38,-2.39,2.37,2.35,2.41,4.68,4.68,4.70
63.43,2.31,2.32,-2.35,-2.35,2.32,2.31,2.38,4.64,4.64,4.66
64.07,2.32,2.34,-2.30,-2.29,2.27,2.27,2.34,4.60,4.61,4.63
64.71,2.38,2.37,-2.21,-2.22,2.22,2.23,2.30,4.61,4.59,4.59
65.35,2.41,2.40,-2.14,-2.15,2.17,2.19,2.26,4.58,4.57,4.55
66.01,2.41,2.42,-2.10,-2.10,2.12,2.15,2.21,4.53,4.54,4.51
66.67,2.41,2.42,-2.06,-2.06,2.07,2.11,2.16,4.48,4.48,4.48
67.33,2.41,2.41,-2.02,-2.02,2.02,2.07,2.11,4.43,4.43,4.44
68.01,2.41,2.41,-1.98,-1.98,1.98,2.02,2.06,4.39,4.39,4.39
68.69,2.41,2.41,-1.94,-1.94,1.93,1.98,2.00,4.35,4.35,4.35
69.37,2.41,2.41,-1.90,-1.90,1.89,1.94,1.94,4.31,4.31,4.31
70.07,2.41,2.41,-1.85,-1.85,1.85,1.89,1.88,4.26,4.26,4.27
70.77,2.41,2.41,-1.81,-1.81,1.81,1.84,1.82,4.22,4.22,4.22
71.48,2.41,2.41,-1.76,-1.76,1.76,1.80,1.76,4.17,4.17,4.17
72.19,2.41,2.41,-1.71,-1.71,1.71,1.75,1.69,4.13,4.13,4.13
72.91,2.41,2.41,-1.67,-1.67,1.67,1.70,1.63,4.08,4.08,4.08
73.64,2.41,2.41,-1.62,-1.62,1.62,1.65,1.56,4.03,4.03,4.03
74.38,2.41,2.41,-1.57,-1.57,1.57,1.60,1.49,3.98,3.98,3.98
75.12,2.41,2.41,-1.52,-1.52,1.52,1.55,1.43,3.93,3.93,3.93
75.87,2.41,2.41,-1.46,-1.46,1.46,1.50,1.36,3.88,3.88,3.88
76.63,2.41,2.41,-1.41,-1.41,1.41,1.44,1.29,3.82,3.82,3.82
77.40,2.41,2.41,-1.36,-1.36,1.36,1.39,1.22,3.77,3.77,3.77
78.17,2.41,2.41,-1.30,-1.30,1.30,1.33,1.15,3.71,3.71,3.71
78.95,2.41,2.41,-1.24,-1.24,1.24,1.28,1.08,3.66,3.66,3.66
79.74,2.41,2.41,-1.19,-1.19,1.19,1.22,1.01,3.60,3.60,3.60
80.54,2.41,2.41,-1.13,-1.13,1.13,1.17,0.94,3.54,3.54,3.54
81.35,2.41,2.41,-1.07,-1.07,1.07,1.11,0.87,3.48,3.48,3.48
82.16,2.41,2.41,-1.01,-1.01,1.01,1.05,0.80,3.42,3.42,3.42
82.98,2.41,2.41,-0.95,-0.95,0.95,0.99,0.74,3.36,3.36,3.36
83.81,2.41,2.41,-0.89,-0.89,0.89,0.93,0.67,3.30,3.30,3.30
84.65,2.41,2.41,-0.82,-0.82,0.82,0.87,0.60,3.24,3.24,3.24
85.50,2.41,2.41,-0.76,-0.76,0.76,0.81,0.53,3.17,3.17,3.17
86.35,2.41,2.41,-0.70,-0.70,0.69,0.75,0.46,3.10,3.11,3.11
87.22,2.41,2.42,-0.63,-0.63,0.63,0.69,0.39,3.04,3.04,3.04
88.09,2.42,2.42,-0.55,-0.56,0.56,0.63,0.33,2.98,2.98,2.98
88.97,2.42,2.42,-0.49,-0.49,0.49,0.56,0.26,2.91,2.91,2.91
89.86,2.42,2.42,-0.42,-0.42,0.42,0.50,0.19,2.84,2.84,2.84
90.76,2.42,2.42,-0.35,-0.35,0.35,0.44,0.12,2.77,2.77,2.77
91.66,2.42,2.42,-0.28,-0.28,0.28,0.37,0.06,2.70,2.70,2.71
92.58,2.42,2.42,-0.21,-0.21,0.21,0.31,-0.01,2.63,2.63,2.64
93.51,2.42,2.42,-0.14,-0.14,0.14,0.24,-0.07,2.56,2.56,2.57
94.44,2.42,2.42,-0.07,-0.07,0.07,0.17,-0.14,2.50,2.50,2.50
95.39,2.42,2.42,-0.00,-0.00,0.01,0.11,-0.21,2.43,2.43,2.43
96.34,2.42,2.42,0.07,0.06,-0.06,0.04,-0.27,2.36,2.36,2.35
97.30,2.41,2.41,0.13,0.13,-0.13,-0.03,-0.34,2.29,2.29,2.28
98.28,2.40,2.40,0.19,0.19,-0.19,-0.09,-0.40,2.21,2.21,2.21
99.26,2.39,2.39,0.25,0.25,-0.25,-0.16,-0.47,2.14,2.14,2.14
100.25,2.37,2.37,0.31,0.31,-0.31,-0.23,-0.53,2.06,2.06,2.07
101.25,2.35,2.36,0.36,0.36,-0.37,-0.30,-0.60,1.98,1.99,1.99
102.27,2.34,2.34,0.42,0.42,-0.42,-0.36,-0.66,1.92,1.92,1.92
103.29,2.33,2.33,0.48,0.48,-0.48,-0.43,-0.72,1.86,1.85,1.85
104.32,2.31,2.31,0.54,0.54,-0.53,-0.50,-0.78,1.78,1.78,1.78
105.37,2.28,2.29,0.58,0.58,-0.58,-0.57,-0.85,1.70,1.71,1.70
106.42,2.26,2.26,0.63,0.63,-0.63,-0.64,-0.91,1.63,1.63,1.63
107.48,2.23,2.23,0.68,0.68,-0.68,-0.71,-0.97,1.55,1.55,1.56
108.56,2.21,2.21,0.73,0.73,-0.73,-0.77,-1.03,1.48,1.48,1.48
109.64,2.19,2.19,0.78,0.78,-0.79,-0.84,-1.08,1.41,1.40,1.41
110.74,2.17,2.17,0.83,0.83,-0.84,-0.91,-1.14,1.33,1.33,1.34
111.85,2.15,2.15,0.89,0.89,-0.90,-0.98,-1.20,1.25,1.26,1.27
112.97,2.14,2.15,0.95,0.95,-0.95,-1.04,-1.25,1.19,1.19,1.19
114.10,2.14,2.15,1.02,1.02,-1.01,-1.11,-1.30,1.13,1.14,1.12
115.24,2.14,2.14,1.09,1.09,-1.07,-1.18,-1.35,1.08,1.07,1.05
116.39,2.13,2.12,1.15,1.14,-1.12,-1.24,-1.40,1.01,0.99,0.98
117.55,2.08,2.09,1.17,1.18,-1.18,-1.31,-1.45,0.90,0.91,0.91
118.73,2.05,2.06,1.21,1.22,-1.24,-1.37,-1.50,0.81,0.82,0.84
119.92,2.05,2.05,1.28,1.28,-1.30,-1.44,-1.54,0.75,0.75,0.77
121.12,2.06,2.06,1.36,1.36,-1.37,-1.50,-1.58,0.69,0.69,0.70
122.33,2.07,2.07,1.44,1.43,-1.43,-1.57,-1.62,0.64,0.63,0.63
123.55,2.07,2.08,1.51,1.51,-1.50,-1.63,-1.66,0.57,0.57,0.57
124.79,2.08,2.08,1.58,1.59,-1.58,-1.69,-1.69,0.50,0.50,0.50
126.03,2.09,2.09,1.66,1.66,-1.65,-1.75,-1.72,0.44,0.44,0.43
127.29,2.10,2.10,1.74,1.73,-1.73,-1.81,-1.75,0.37,0.37,0.37
128.57,2.10,2.11,1.80,1.80,-1.80,-1.87,-1.78,0.30,0.30,0.30
129.85,2.11,2.11,1.87,1.87,-1.87,-1.93,-1.81,0.24,0.24,0.24
131.15,2.11,2.11,1.94,1.94,-1.94,-1.99,-1.84,0.17,0.17,0.18
132.46,2.12,2.12,2.01,2.01,-2.01,-2.05,-1.86,0.12,0.11,0.11
133.79,2.12,2.13,2.07,2.07,-2.07,-2.11,-1.88,0.05,0.05,0.05
135.12,2.13,2.13,2.14,2.14,-2.14,-2.16,-1.90,-0.00,-0.01,-0.01
136.48,2.13,2.13,2.20,2.20,-2.20,-2.22,-1.92,-0.07,-0.07,-0.07
137.84,2.13,2.13,2.26,2.26,-2.26,-2.27,-1.94,-0.13,-0.13,-0.13
139.22,2.13,2.14,2.32,2.32,-2.32,-2.33,-1.96,-0.19,-0.19,-0.18
140.61,2.14,2.14,2.38,2.38,-2.38,-2.38,-1.97,-0.24,-0.24,-0.24
142.02,2.14,2.14,2.44,2.44,-2.44,-2.43,-1.99,-0.29,-0.29,-0.30
143.44,2.14,2.14,2.49,2.50,-2.49,-2.48,-2.01,-0.35,-0.35,-0.35
144.87,2.14,2.14,2.55,2.55,-2.55,-2.53,-2.02,-0.40,-0.40,-0.40
146.32,2.14,2.14,2.60,2.60,-2.60,-2.58,-2.04,-0.46,-0.46,-0.46
147.78,2.14,2.14,2.64,2.64,-2.65,-2.63,-2.05,-0.51,-0.51,-0.50
149.26,2.14,2.14,2.69,2.69,-2.70,-2.68,-2.07,-0.56,-0.56,-0.55
150.75,2.14,2.14,2.74,2.74,-2.74,-2.73,-2.09,-0.60,-0.60,-0.60
152.26,2.14,2.15,2.79,2.79,-2.78,-2.77,-2.11,-0.64,-0.63,-0.65
153.78,2.14,2.14,2.84,2.83,-2.81,-2.81,-2.12,-0.67,-0.67,-0.69
155.32,2.13,2.12,2.87,2.86,-2.85,-2.86,-2.14,-0.71,-0.73,-0.74
156.88,2.07,2.09,2.86,2.87,-2.88,-2.90,-2.16,-0.81,-0.79,-0.79
158.44,2.05,2.06,2.88,2.89,-2.91,-2.94,-2.19,-0.86,-0.85,-0.83
160.03,2.04,2.04,2.92,2.92,-2.94,-2.98,-2.21,-0.90,-0.90,-0.87
161.63,2.04,2.04,2.97,2.96,-2.97,-3.02,-2.24,-0.93,-0.93,-0.93
163.24,2.03,2.04,3.00,3.01,-3.00,-3.05,-2.26,-0.96,-0.96,-0.97
164.88,2.03,2.04,3.04,3.05,-3.02,-3.09,-2.29,-0.99,-0.98,-1.01
166.53,2.03,2.02,3.08,3.07,-3.04,-3.13,-2.32,-1.01,-1.02,-1.05
168.19,2.00,1.99,3.09,3.08,-3.06,-3.16,-2.35,-1.06,-1.07,-1.09
169.87,1.93,1.95,3.06,3.07,-3.08,-3.19,-2.39,-1.15,-1.13,-1.12
171.57,1.91,1.92,3.07,3.08,-3.10,-3.23,-2.42,-1.18,-1.18,-1.16
173.29,1.90,1.90,3.10,3.09,-3.11,-3.26,-2.46,-1.21,-1.22,-1.20
175.02,1.89,1.89,3.12,3.12,-3.13,-3.29,-2.50,-1.24,-1.24,-1.23
176.77,1.89,1.89,3.16,3.15,-3.15,-3.31,-2.54,-1.26,-1.26,-1.26
178.54,1.89,1.89,3.19,3.19,-3.18,-3.34,-2.58,-1.29,-1.29,-1.30
180.32,1.89,1.90,3.22,3.22,-3.22,-3.37,-2.63,-1.33,-1.33,-1.33
182.13,1.90,1.90,3.26,3.26,-3.26,-3.39,-2.68,-1.36,-1.36,-1.36
183.95,1.91,1.91,3.30,3.30,-3.31,-3.42,-2.73,-1.40,-1.40,-1.39
185.79,1.92,1.93,3.34,3.34,-3.35,-3.44,-2.78,-1.43,-1.42,-1.42
187.65,1.94,1.94,3.39,3.38,-3.38,-3.46,-2.83,-1.44,-1.44,-1.45
189.52,1.95,1.96,3.43,3.43,-3.42,-3.48,-2.89,-1.46,-1.46,-1.47
191.42,1.96,1.97,3.46,3.47,-3.45,-3.50,-2.94,-1.49,-1.48,-1.50
193.33,1.98,1.96,3.51,3.48,-3.48,-3.52,-3.00,-1.49,-1.52,-1.53
195.27,1.93,1.94,3.48,3.49,-3.50,-3.54,-3.06,-1.57,-1.56,-1.55
197.22,1.91,1.93,3.49,3.50,-3.52,-3.56,-3.13,-1.61,-1.59,-1.58
199.19,1.92,1.92,3.52,3.52,-3.53,-3.57,-3.19,-1.61,-1.61,-1.60
201.18,1.93,1.93,3.55,3.55,-3.54,-3.59,-3.25,-1.61,-1.61,-1.62
203.19,1.93,1.93,3.58,3.57,-3.55,-3.60,-3.32,-1.61,-1.62,-1.64
205.23,1.91,1.90,3.58,3.57,-3.55,-3.61,-3.38,-1.64,-1.65,-1.67
207.28,1.86,1.87,3.55,3.56,-3.56,-3.63,-3.45,-1.70,-1.69,-1.69
209.35,1.83,1.84,3.54,3.55,-3.57,-3.64,-3.51,-1.74,-1.73,-1.71
211.44,1.83,1.83,3.56,3.55,-3.58,-3.64,-3.58,-1.74,-1.75,-1.73
213.56,1.82,1.82,3.57,3.57,-3.58,-3.65,-3.64,-1.76,-1.76,-1.75
215.69,1.82,1.82,3.59,3.59,-3.59,-3.66,-3.71,-1.76,-1.76,-1.76
217.85,1.82,1.82,3.60,3.60,-3.59,-3.67,-3.77,-1.77,-1.77,-1.78
220.03,1.81,1.82,3.61,3.62,-3.59,-3.67,-3.83,-1.78,-1.77,-1.80
222.23,1.81,1.80,3.63,3.62,-3.59,-3.68,-3.89,-1.78,-1.79,-1.81
224.45,1.79,1.77,3.62,3.60,-3.60,-3.68,-3.94,-1.81,-1.83,-1.83
226.70,1.72,1.74,3.57,3.59,-3.61,-3.68,-4.00,-1.88,-1.86,-1.85
228.96,1.71,1.72,3.57,3.58,-3.61,-3.68,-4.05,-1.90,-1.89,-1.86
231.25,1.72,1.71,3.60,3.59,-3.62,-3.69,-4.09,-1.90,-1.90,-1.88
233.57,1.73,1.73,3.62,3.63,-3.62,-3.69,-4.13,-1.89,-1.89,-1.89
235.90,1.74,1.75,3.66,3.66,-3.63,-3.68,-4.17,-1.89,-1.89,-1.91
238.26,1.76,1.75,3.69,3.67,-3.65,-3.68,-4.20,-1.89,-1.90,-1.93
240.64,1.74,1.74,3.68,3.68,-3.67,-3.68,-4.23,-1.93,-1.93,-1.94
243.05,1.71,1.72,3.66,3.68,-3.69,-3.68,-4.25,-1.98,-1.97,-1.95
245.48,1.71,1.72,3.67,3.68,-3.71,-3.67,-4.27,-2.00,-1.99,-1.96
247.93,1.74,1.74,3.72,3.71,-3.73,-3.67,-4.28,-1.99,-1.99,-1.97
250.41,1.76,1.76,3.75,3.74,-3.74,-3.66,-4.28,-1.98,-1.99,-1.98
252.92,1.77,1.78,3.77,3.77,-3.75,-3.65,-4.28,-1.98,-1.98,-2.00
255.45,1.78,1.79,3.78,3.79,-3.76,-3.64,-4.27,-1.98,-1.98,-2.00
258.00,1.79,1.78,3.80,3.78,-3.77,-3.64,-4.26,-1.98,-1.99,-2.01
260.58,1.76,1.76,3.78,3.77,-3.77,-3.63,-4.24,-2.00,-2.01,-2.01
263.19,1.71,1.73,3.74,3.76,-3.76,-3.62,-4.22,-2.04,-2.02,-2.02
265.82,1.70,1.70,3.74,3.74,-3.74,-3.61,-4.19,-2.04,-2.04,-2.03
268.48,1.69,1.67,3.73,3.71,-3.72,-3.59,-4.16,-2.02,-2.05,-2.04
271.16,1.63,1.64,3.68,3.69,-3.69,-3.58,-4.12,-2.06,-2.05,-2.05
273.87,1.59,1.61,3.65,3.67,-3.66,-3.57,-4.08,-2.07,-2.05,-2.06
276.61,1.58,1.57,3.65,3.64,-3.64,-3.55,-4.03,-2.06,-2.06,-2.07
279.38,1.56,1.55,3.63,3.62,-3.62,-3.54,-3.98,-2.06,-2.07,-2.07
282.17,1.51,1.52,3.59,3.60,-3.60,-3.52,-3.93,-2.09,-2.08,-2.08
284.99,1.49,1.50,3.57,3.58,-3.60,-3.51,-3.88,-2.11,-2.10,-2.08
287.84,1.50,1.50,3.58,3.57,-3.60,-3.49,-3.82,-2.10,-2.11,-2.07
290.72,1.51,1.51,3.59,3.59,-3.61,-3.48,-3.77,-2.10,-2.10,-2.08
293.63,1.52,1.53,3.61,3.61,-3.61,-3.46,-3.71,-2.09,-2.08,-2.09
296.57,1.54,1.54,3.62,3.62,-3.61,-3.44,-3.65,-2.07,-2.07,-2.08
299.53,1.55,1.56,3.63,3.64,-3.60,-3.42,-3.59,-2.05,-2.04,-2.08
302.53,1.56,1.56,3.65,3.64,-3.59,-3.40,-3.53,-2.03,-2.04,-2.08
305.55,1.55,1.51,3.63,3.59,-3.58,-3.38,-3.47,-2.02,-2.06,-2.08
308.61,1.43,1.46,3.52,3.54,-3.56,-3.36,-3.41,-2.12,-2.10,-2.08
311.69,1.38,1.41,3.46,3.49,-3.53,-3.34,-3.35,-2.15,-2.12,-2.08
314.81,1.39,1.38,3.48,3.46,-3.50,-3.32,-3.29,-2.11,-2.12,-2.08
317.96,1.39,1.39,3.47,3.47,-3.47,-3.30,-3.24,-2.08,-2.08,-2.08
321.14,1.39,1.38,3.47,3.46,-3.44,-3.28,-3.18,-2.05,-2.06,-2.08
324.35,1.35,1.35,3.43,3.42,-3.41,-3.25,-3.13,-2.06,-2.06,-2.08
327.59,1.30,1.32,3.36,3.39,-3.39,-3.23,-3.08,-2.08,-2.06,-2.06
330.87,1.29,1.29,3.36,3.36,-3.36,-3.21,-3.03,-2.06,-2.06,-2.06
334.18,1.29,1.27,3.35,3.33,-3.32,-3.18,-2.98,-2.03,-2.05,-2.06
337.52,1.22,1.24,3.28,3.30,-3.28,-3.16,-2.93,-2.06,-2.04,-2.06
340.90,1.19,1.19,3.25,3.25,-3.24,-3.13,-2.89,-2.05,-2.05,-2.06
344.30,1.16,1.15,3.21,3.20,-3.21,-3.11,-2.85,-2.05,-2.07,-2.05
347.75,1.10,1.11,3.14,3.16,-3.19,-3.08,-2.81,-2.08,-2.07,-2.04
351.23,1.08,1.09,3.13,3.13,-3.16,-3.06,-2.77,-2.08,-2.07,-2.05
354.74,1.08,1.08,3.11,3.11,-3.13,-3.03,-2.73,-2.05,-2.05,-2.03
358.28,1.09,1.10,3.12,3.13,-3.10,-3.01,-2.70,-2.01,-2.00,-2.03
361.87,1.09,1.10,3.12,3.12,-3.07,-2.98,-2.67,-1.98,-1.97,-2.02
365.49,1.10,1.06,3.12,3.08,-3.05,-2.95,-2.64,-1.95,-1.98,-2.02
369.14,1.00,1.01,3.02,3.02,-3.03,-2.92,-2.61,-2.02,-2.02,-2.02
372.83,0.93,0.96,2.93,2.96,-3.00,-2.90,-2.59,-2.07,-2.05,-2.00
376.56,0.92,0.92,2.93,2.93,-2.98,-2.87,-2.56,-2.06,-2.06,-2.00
380.33,0.93,0.93,2.93,2.93,-2.95,-2.84,-2.54,-2.02,-2.02,-2.00
384.13,0.94,0.94,2.94,2.93,-2.92,-2.81,-2.52,-1.98,-1.98,-2.00
387.97,0.94,0.94,2.92,2.92,-2.89,-2.79,-2.51,-1.94,-1.95,-1.98
391.85,0.92,0.92,2.89,2.89,-2.85,-2.76,-2.49,-1.93,-1.93,-1.96
395.77,0.87,0.88,2.84,2.84,-2.82,-2.73,-2.48,-1.94,-1.94,-1.97
399.73,0.83,0.83,2.79,2.79,-2.78,-2.70,-2.46,-1.95,-1.95,-1.96
403.72,0.77,0.77,2.72,2.72,-2.74,-2.67,-2.45,-1.96,-1.97,-1.95
407.76,0.71,0.71,2.66,2.66,-2.69,-2.64,-2.44,-1.98,-1.98,-1.95
411.84,0.65,0.66,2.60,2.61,-2.64,-2.61,-2.43,-1.98,-1.97,-1.94
415.96,0.63,0.65,2.57,2.59,-2.59,-2.58,-2.43,-1.96,-1.94,-1.93
420.12,0.64,0.64,2.58,2.57,-2.54,-2.55,-2.42,-1.90,-1.91,-1.94
424.32,0.64,0.61,2.57,2.54,-2.51,-2.52,-2.41,-1.86,-1.89,-1.93
428.56,0.57,0.57,2.49,2.49,-2.48,-2.49,-2.41,-1.90,-1.91,-1.92
432.85,0.49,0.52,2.40,2.43,-2.46,-2.46,-2.40,-1.96,-1.93,-1.91
437.18,0.49,0.51,2.39,2.41,-2.44,-2.43,-2.40,-1.95,-1.94,-1.90
441.55,0.53,0.52,2.43,2.41,-2.44,-2.40,-2.39,-1.90,-1.92,-1.89
445.96,0.57,0.54,2.46,2.42,-2.43,-2.37,-2.39,-1.86,-1.89,-1.89
450.42,0.54,0.56,2.41,2.43,-2.43,-2.34,-2.38,-1.89,-1.87,-1.87
454.93,0.56,0.60,2.42,2.46,-2.44,-2.31,-2.38,-1.88,-1.84,-1.86
459.48,0.66,0.63,2.51,2.48,-2.46,-2.28,-2.37,-1.80,-1.83,-1.85
464.07,0.69,0.64,2.54,2.49,-2.48,-2.25,-2.36,-1.79,-1.84,-1.85
468.71,0.60,0.64,2.44,2.48,-2.49,-2.22,-2.35,-1.89,-1.85,-1.84
473.40,0.60,0.63,2.43,2.47,-2.50,-2.19,-2.34,-1.89,-1.86,-1.83
478.13,0.67,0.67,2.50,2.49,-2.50,-2.16,-2.33,-1.82,-1.83,-1.82
482.91,0.73,0.72,2.54,2.53,-2.49,-2.12,-2.32,-1.76,-1.78,-1.80
487.74,0.76,0.72,2.56,2.52,-2.49,-2.09,-2.31,-1.73,-1.77,-1.80
492.62,0.67,0.69,2.46,2.48,-2.48,-2.06,-2.29,-1.80,-1.79,-1.79
497.55,0.62,0.66,2.40,2.44,-2.46,-2.03,-2.27,-1.84,-1.80,-1.78
502.52,0.65,0.65,2.42,2.41,-2.44,-2.00,-2.25,-1.78,-1.79,-1.77
507.55,0.67,0.66,2.42,2.41,-2.40,-1.97,-2.23,-1.73,-1.75,-1.75
512.62,0.65,0.64,2.39,2.38,-2.36,-1.94,-2.21,-1.71,-1.72,-1.74
517.75,0.60,0.60,2.33,2.33,-2.32,-1.91,-2.18,-1.71,-1.72,-1.73
522.93,0.53,0.55,2.24,2.26,-2.27,-1.87,-2.16,-1.74,-1.72,-1.71
