frequency,raw
10,-17.611759301551796
11,-17.04656596031421
12,-16.201481910685633
13,-15.592195667619475
14,-14.945475428229301
15,-14.45693420816674
16,-13.901261878069192
17,-13.456563859883026
18,-13.052613489640585
19,-12.753415222740188
20,-12.327649095390008
21,-11.917829675664766
22,-11.703780592188988
23,-11.395026616407606
24,-11.20748535349594
25,-10.968855165234766
26,-10.736486537380323
27,-10.527560811215768
28,-10.419803647458345
29,-10.164726051264719
30,-9.87780650861974
31,-9.737347491870318
32,-9.661213866084836
33,-9.477526323239385
34,-9.307608820990762
35,-9.235906064766493
36,-9.17241864094883
37,-9.088113883117815
38,-8.987355470283774
39,-8.872990560531608
40,-8.68795029853242
41,-8.630281275058909
42,-8.514910760713583
43,-8.408093459985462
44,-8.309463186645612
45,-8.236252094804398
46,-8.124600772829815
47,-8.130607537749174
48,-8.13031735860438
49,-8.021569802068367
50,-7.905793019318885
51,-7.76598523259862
52,-7.7674242596589815
53,-7.770442683992273
54,-7.544107110731358
55,-7.545621022334634
56,-7.552075422418816
57,-7.561941699208947
58,-7.431741869909103
59,-7.481221838233588
60,-7.487948131042549
61,-7.491972284334222
62,-7.493951504960054
63,-7.494991020348689
64,-7.53629668901496
65,-7.256090115597907
66,-7.297437098478627
67,-7.297072027975266
68,-7.29417849716062
69,-7.127675935377868
70,-7.180762876681542
71,-7.17369547618841
72,-7.010501774390724
73,-7.1171289652074545
74,-7.150276903305849
75,-6.8770359823599865
76,-6.805154927491454
77,-6.897997713953632
78,-6.911160393074573
79,-6.9230605616342435
80,-6.751060473380771
81,-6.732980854386273
82,-6.83006348803899
83,-6.821106705242006
84,-6.8085461513725924
85,-6.794322245006138
86,-6.779658871267838
87,-6.765067067013657
88,-6.766826149291002
89,-6.960661268422466
90,-6.874114213504703
91,-6.833271364760149
92,-6.9237115756437
93,-7.09685216318249
94,-6.99118565204408
95,-7.019178864915777
96,-7.080838769900254
97,-7.161124979660234
98,-7.160141677965459
99,-7.1500159372273
100,-7.148233697922882
101,-7.2260282001769065
102,-7.432633811534694
104,-7.447039260336768
105,-7.340912403887077
106,-7.18905525084689
107,-7.290358348352348
108,-7.26254138658932
109,-7.041584975747701
110,-6.990990757517329
111,-6.932250129567835
112,-6.8753680967845945
113,-6.851022127081217
114,-6.740810234243192
115,-6.79593151701014
117,-6.840290174980662
118,-6.6946787564356
119,-6.658044574322747
120,-6.6989020566143544
121,-6.639791098111591
123,-6.335811243454431
124,-6.320086046227558
125,-6.291305539455181
126,-6.246667706228736
128,-6.19300875294895
129,-5.984065722173445
130,-5.867579789028893
131,-5.8415340353167275
133,-5.809147106655681
134,-5.7589976780448096
135,-5.622685262278527
137,-5.47566003795299
138,-5.479283134368378
140,-5.579658232448608
141,-5.5749872465211965
142,-5.41443515785682
144,-5.338890421139708
145,-5.418001007916795
147,-5.454884836376124
148,-5.458103952261993
150,-5.485595904259621
151,-5.644652176458758
153,-5.649553596715879
154,-5.555483984477952
156,-5.540366018758849
157,-5.520711997099848
159,-5.500659213485991
160,-5.440815979504713
162,-5.336992319840989
164,-5.507552188297083
165,-5.544442816966753
167,-5.736318690148105
169,-5.909538314797374
170,-6.018247280207583
172,-5.872593254045336
174,-5.906426314269504
175,-5.802153623795608
177,-5.609251395086032
179,-5.500555396848678
181,-5.524794369553761
183,-5.166596187418596
184,-5.088820062689326
186,-5.195570413017743
188,-5.195891012981457
190,-5.09789406295263
192,-4.956728378417096
194,-5.115799641583821
196,-5.188631642911009
198,-4.8127959522991235
200,-4.730602552985438
202,-4.840726822316012
204,-4.820402906866555
206,-4.550037148056677
208,-4.540398217099971
210,-4.693774974701547
212,-4.686730611956187
214,-4.679175402045934
216,-4.671216452489883
218,-4.6640255950241905
221,-4.659330469947298
223,-4.658688590252123
225,-4.662774869675825
227,-4.670880935098618
229,-4.6808139028224645
232,-4.689340001075323
234,-4.693158459399131
236,-4.690113162760922
239,-4.680112404067835
241,-4.80237005312542
244,-4.90991875749217
246,-4.841485437565624
248,-4.90634090554066
251,-4.666439283462568
253,-4.618040507271288
256,-4.619417481803172
259,-4.622666784103822
261,-4.627273927354231
264,-4.6326982124948035
266,-4.63793864794844
269,-4.484477345986811
272,-4.611500220882435
274,-4.738611141409498
277,-4.731028906084341
280,-4.721111200190036
283,-4.710867564632146
286,-4.70191770977898
288,-4.694739368308112
291,-4.68855555825714
294,-4.681984281117712
297,-4.674090483466684
300,-4.6651557379761766
303,-4.656593218608155
306,-4.649985044133018
309,-4.645862077556714
312,-4.616614034918911
316,-4.4986733804289365
319,-4.67725882431256
322,-4.723930516635328
325,-4.712719817250919
328,-4.70270354074016
332,-4.696139101306627
335,-4.693456927601814
338,-4.692973514886547
342,-4.691762176568877
345,-4.687114519282355
349,-4.568590134350823
352,-4.58488079565661
356,-4.748826162767339
359,-4.749107437878371
363,-4.817454177469005
366,-4.8030855770236744
370,-4.588516217460627
374,-4.5758931789115795
377,-4.56432687384724
381,-4.554220331219916
385,-4.518083532818489
389,-4.456750357703052
393,-4.579182068056077
397,-4.617484909211428
401,-4.605283138346479
405,-4.5942121935473885
409,-4.587107870451504
413,-4.585748801158701
417,-4.589725124691753
421,-4.596591822565558
425,-4.5544106519757666
430,-4.599868584767016
434,-4.737980825401327
438,-4.722363763440734
443,-4.588247952722821
447,-4.579225341064354
451,-4.569494801783196
456,-4.573552969756416
460,-4.560300256470691
465,-4.4477989621302765
470,-4.275660596361988
474,-4.229724639506308
479,-4.182021364416973
484,-4.098430932715849
489,-3.9430830688199427
494,-3.9159959085037337
499,-3.884361386207591
504,-3.851463735344965
509,-3.8211918061232826
514,-3.796612947283482
519,-3.7792390730460497
524,-3.7690923322549037
529,-3.7651837312594925
535,-3.705263761573913
540,-3.726934109093966
545,-3.775175188278411
551,-3.77678626884003
556,-3.776235809195936
562,-3.770482724990973
568,-3.758321256233581
573,-3.739422627321206
579,-3.67455653515556
585,-3.6627354453918737
591,-3.7796783828902147
596,-3.6314333672664265
602,-3.573598170985855
608,-3.485604091720446
615,-3.419201912182439
621,-3.3772870560451995
627,-3.23102827180491
633,-3.2089215727891403
639,-3.1345243845731874
646,-2.9785039700617832
652,-2.8361835189414837
659,-2.7572989376671995
665,-2.7236963350932606
672,-2.640578786781448
679,-2.546361239475491
686,-2.457847577322429
692,-2.455646017617383
699,-2.3613024480351
706,-2.198634453356833
713,-2.134441375682711
721,-2.087478358908679
728,-1.897110499245063
735,-1.8585005306473494
742,-1.8583070266565307
750,-1.7633706329325878
757,-1.7447251358382228
765,-1.6784538462985759
773,-1.560893853561704
780,-1.572417698365148
788,-1.5190777574233745
796,-1.4224883437452545
804,-1.3707992237713875
812,-1.3063862284394725
820,-1.1898930442487052
828,-1.215713539207893
837,-1.1604548812248874
845,-1.1181514776290826
853,-1.1612172588667926
862,-1.0058791502842743
871,-1.0158042127435198
879,-1.0251284565574057
888,-0.852042187902556
897,-0.8215196506766126
906,-0.8170941221967395
915,-0.7026711103261685
924,-0.6539656825972476
933,-0.5531921396092264
943,-0.38980325621401757
952,-0.3665078794991918
962,-0.2631686961692965
971,-0.2114692564100512
981,-0.12989693472735908
991,-0.05477901697896981
1001,0.006056099118281838
1011,0.11666791120588717
1021,0.2091476350775835
1031,0.2361990316462974
1041,0.3634866683150898
1052,0.39934471514802616
1062,0.4756823390477038
1073,0.5868487446641554
1084,0.7184208551869318
1094,0.7912701666449447
1105,0.847725661115142
1116,0.9043758605512829
1128,0.97060769737992
1139,1.1106836909084667
1150,1.161331305396863
1162,1.2163268226247044
1173,1.2815476411925137
1185,1.361177688441491
1197,1.4561235321148223
1209,1.564244553664048
1221,1.6821022149357536
1233,1.8070094572422235
1246,1.8740502173604945
1258,1.9698170519499905
1271,2.0192785761772702
1283,2.1695628109133414
1296,2.322338374877361
1309,2.473618295518503
1322,2.620411199149927
1335,2.762198091693817
1349,2.9010946477730437
1362,3.025050139735842
1376,3.0820478261264275
1390,3.226482374800887
1404,3.3695059318519323
1418,3.5058668763458942
1432,3.631341047623737
1446,3.7448198992111985
1461,3.8485894017156603
1475,3.946582298435516
1490,4.041666583585061
1505,4.133679403994797
1520,4.2852496590177545
1535,4.395568397659436
1550,4.458647511791841
1566,4.6120645508023115
1582,4.804363969925193
1597,4.982410792629076
1613,5.125705059851144
1629,5.324498518647888
1646,5.539150070490405
1662,5.69365740711612
1679,5.910616695858575
1696,6.179307164032197
1713,6.342725311636443
1730,6.481843248003933
1747,6.7250474297837
1764,6.931146915938188
1782,7.111555416984482
1800,7.233437504731589
1818,7.353745640085781
1836,7.494119474289004
1854,7.688975547527219
1873,7.8075673529435985
1892,7.929240296521411
1911,8.0531167381499
1930,8.176849349880742
1949,8.254378611479275
1969,8.317627481856215
1988,8.437019313850925
2008,8.558062305037737
2028,8.582622832910502
2048,8.604613524641955
2069,8.713611962868082
2090,8.792111908159411
2111,8.867145313977097
2132,8.862650686351667
2153,8.865297670781954
2175,8.913942632511745
2196,8.98584446575125
2218,8.955879202417194
2240,8.88613666557482
2263,8.822985417831624
2285,8.832698306940099
2308,8.752388251199072
2331,8.638051054394086
2355,8.632842670099556
2378,8.573159230195143
2402,8.469469007565468
2426,8.419917469874315
2450,8.411086161585139
2475,8.282392790431913
2500,8.301524123904446
2525,8.364613119255667
2550,8.368091472488706
2575,8.27326621223893
2601,8.158075071550169
2627,8.118550559815253
2653,8.024815086102302
2680,7.88019112485324
2707,7.866853239563904
2734,7.879919020269272
2761,7.869010199360641
2789,7.919998236331974
2817,7.852722471666436
2845,7.828562625406949
2873,7.776286326025261
2902,7.74442672968836
2931,7.728100977718748
2960,7.774604339322899
2990,7.785239524708525
3020,7.767352478338025
3050,7.80853635998163
3080,7.846637354721285
3111,7.798064302842565
3142,7.799897857114631
3174,7.830319403158397
3206,7.803952626643392
3238,7.789935702718562
3270,7.820370388477748
3303,7.804440639695358
3336,7.757777027625541
3369,7.702419399049171
3403,7.628047754179079
3437,7.589661926315628
3471,7.480674021204347
3506,7.409594657239352
3541,7.389490512891076
3576,7.389602704688841
3612,7.219931511441266
3648,7.109256485285977
3685,6.953499709768076
3721,6.77050498951568
3759,6.630196025001237
3796,6.446220115224033
3834,6.274923823806864
3873,6.078630256035815
3911,5.8588481742998795
3950,5.626502140988914
3990,5.476797737707249
4030,5.232038162527764
4070,5.009102689955088
4111,4.776872718238607
4152,4.557804671451326
4193,4.384647013549686
4235,4.209212842296712
4278,4.075038497910628
4321,3.960355636957269
4364,3.7890187410968936
4407,3.623173206147893
4451,3.431376818048733
4496,3.34450960171566
4541,3.1938692256190713
4586,3.0840509967276466
4632,2.850853083230633
4679,2.5923567474956126
4725,2.4255366204256124
4773,1.9143612373777597
4820,1.6688740090329004
4868,1.3394086501962938
4917,1.0574100590424562
4966,0.7633804761940963
5016,0.1434409368081182
5066,-0.2078970038126604
5117,-0.422282618487535
5168,-0.6715985377898406
5220,-1.084600825115646
5272,-1.4996965818874193
5325,-1.9904023933388162
5378,-2.631668057295122
5432,-2.980870716510604
5486,-3.7271751875677355
5541,-4.724079790566436
5596,-5.353357351241741
5652,-6.164187994021618
5709,-7.504709444000508
5766,-8.843617887851373
5823,-10.129588984967862
5882,-11.630394207983805
5940,-12.784383195218854
6000,-13.23532589829314
6060,-13.768289886468565
6120,-13.075394820509429
6182,-12.239938967035014
6244,-11.665796583836695
6306,-11.123621943150113
6369,-10.770423279558749
6433,-10.580030790865678
6497,-10.943480018808021
6562,-11.77294791997182
6628,-12.438293897188398
6694,-13.806238835132191
6761,-15.026249825513577
6828,-16.285056736222984
6897,-16.77136468286314
6966,-16.848456667518867
7035,-17.25646187625282
7106,-18.199077055751903
7177,-19.030146377982064
7249,-19.285767548863607
7321,-19.553532799628414
7394,-18.520782620674716
7468,-19.486397327609314
7543,-19.782277727319865
7618,-19.90613818934396
7694,-19.374829319625942
7771,-18.760563597105975
7849,-18.145320947237987
7928,-17.651726779123983
8007,-17.601350327406283
8087,-17.86291910825659
8168,-17.62417713284041
8250,-17.206523354409132
8332,-16.24980098316774
8415,-15.392502320871653
8499,-13.865078431737247
8584,-13.759985995816633
8670,-13.926141056646117
8757,-14.389745236980513
8845,-12.526231776613315
8933,-11.325148372031297
9022,-9.522959301028957
9113,-11.64768163260094
9204,-13.058290166804376
9296,-12.682842493825394
9389,-12.00831797825912
9483,-12.216557141492196
9577,-11.752544877691012
9673,-10.466074260262616
9770,-9.955365973722557
9868,-9.925310580498433
9966,-9.348976980651003
10066,-9.351186027057123
10167,-9.575907363917425
10268,-9.866312306128123
10371,-9.705978658937983
10475,-10.01098808867675
10579,-9.839672681463675
10685,-8.970614369478136
10792,-7.583408396013289
10900,-6.79601773175894
11009,-5.891247788570938
11119,-5.6948922889195215
11230,-5.329429371527146
11343,-5.395526875161606
11456,-5.884730553927978
11571,-7.202382575659854
11686,-7.926584273724439
11803,-8.761832444169372
11921,-9.334334915672812
12040,-10.149451917224042
12161,-10.913311924163374
12282,-11.422474118998256
12405,-12.096059175109307
12529,-12.60096811744138
12655,-11.886299556137224
12781,-13.73692835880334
12909,-13.859422944948381
13038,-12.674094149706047
13168,-14.869316023219803
13300,-16.09923596497001
13433,-16.206856402973077
13567,-15.711954688567456
13703,-14.984959261597403
13840,-15.100846396949816
13978,-15.526328006314106
14118,-15.860372926604255
14259,-16.578861060609995
14402,-16.55680085694617
14546,-16.509252728162224
14692,-17.76229878031205
14838,-20.454182116472747
14987,-22.109337147981012
15137,-23.305824235593292
15288,-22.94511520895691
15441,-22.271970083455443
15595,-19.518624153140195
15751,-18.284137026073687
15909,-16.012316853988644
16068,-14.93490657666527
16229,-13.699125796851872
16391,-12.479207482345057
16555,-11.914721107457726
16720,-11.438783174138969
16888,-11.147499298424
17056,-11.09309676128612
17227,-11.9016757978927
17399,-12.03841313225703
17573,-11.968804752395027
17749,-11.982545127655609
17926,-12.002162966090523
18106,-12.39912355500207
18287,-13.154527231986748
18470,-13.56165279053722
18654,-13.757826652190323
18841,-13.740143700610247
19029,-13.615869775110301
19220,-13.44618831935465
19412,-13.394692808868014
19606,-13.62673617966756
19802,-14.594884577420562
20000,-15.100757602713667
20200,-15.46463093819326
20402,-15.953792587114261
20606,-16.403209367206564
20812,-17.523379395578655
21020,-18.748923076745612
21230,-19.500271500900453
21443,-20.41111313006587
21657,-21.876753401916027
21874,-22.85407129133896
22092,-23.187788237384613
22313,-24.17195541017563
22537,-25.08420071332507
22762,-25.33012225411306
22989,-25.413927076972897
23219,-24.961645645127255
23452,-25.03565265728006
23686,-25.27953644650523
23923,-25.789975359932274
24162,-25.974151592742967
24404,-26.160055246783738
24648,-26.346106577283464
24894,-26.53209185035379
25143,-26.719143079038254
25395,-26.907007752709063
25649,-27.094144502366767
25905,-27.28045128361918
26164,-27.467193540868834
26426,-27.65432627191862
26690,-27.84054557457496
26957,-28.027162653954107
27227,-28.214176758749705
27499,-28.40032614365306
27774,-28.586858037322934
28052,-28.77373058019714
28332,-28.95968050676331
28615,-29.145888182615984
28902,-29.33350247880231
29191,-29.520092223564752
29482,-29.705655855022304
29777,-29.892499011198662
