frequency,raw,error,smoothed,error_smoothed,equalization,parametric_eq,equalized_raw,equalized_smoothed,target
20.00,1.92,-3.91,1.92,-3.91,3.91,1.07,5.83,5.83,5.83
20.20,1.96,-3.87,1.96,-3.87,3.87,1.10,5.83,5.83,5.83
20.40,2.01,-3.82,2.01,-3.83,3.83,1.14,5.84,5.83,5.83
20.61,2.05,-3.79,2.05,-3.79,3.79,1.17,5.84,5.84,5.84
20.81,2.09,-3.75,2.09,-3.75,3.75,1.21,5.84,5.84,5.84
21.02,2.13,-3.71,2.14,-3.70,3.70,1.24,5.83,5.84,5.84
21.23,2.18,-3.66,2.18,-3.66,3.66,1.28,5.84,5.84,5.84
21.44,2.22,-3.62,2.22,-3.62,3.62,1.32,5.84,5.84,5.84
21.66,2.26,-3.59,2.26,-3.58,3.58,1.36,5.84,5.85,5.85
21.87,2.31,-3.54,2.31,-3.54,3.54,1.40,5.85,5.85,5.85
22.09,2.35,-3.50,2.35,-3.50,3.50,1.45,5.85,5.85,5.85
22.31,2.39,-3.46,2.39,-3.46,3.46,1.49,5.85,5.85,5.85
22.54,2.43,-3.43,2.43,-3.42,3.42,1.54,5.85,5.85,5.86
22.76,2.48,-3.38,2.48,-3.38,3.38,1.58,5.86,5.86,5.86
22.99,2.52,-3.34,2.52,-3.34,3.34,1.63,5.86,5.86,5.86
23.22,2.56,-3.30,2.56,-3.30,3.30,1.68,5.86,5.86,5.86
23.45,2.60,-3.26,2.60,-3.26,3.26,1.73,5.86,5.86,5.86
23.69,2.64,-3.23,2.64,-3.22,3.22,1.78,5.86,5.86,5.87
23.92,2.69,-3.18,2.69,-3.18,3.18,1.83,5.87,5.87,5.87
24.16,2.73,-3.14,2.73,-3.14,3.14,1.88,5.87,5.87,5.87
24.40,2.77,-3.10,2.77,-3.10,3.10,1.93,5.87,5.87,5.87
24.65,2.81,-3.06,2.81,-3.06,3.06,1.99,5.87,5.87,5.87
24.89,2.85,-3.03,2.85,-3.02,3.02,2.04,5.87,5.88,5.88
25.14,2.89,-2.99,2.89,-2.98,2.98,2.10,5.87,5.88,5.88
25.39,2.94,-2.94,2.94,-2.94,2.94,2.15,5.88,5.88,5.88
25.65,2.98,-2.90,2.98,-2.90,2.90,2.20,5.88,5.88,5.88
25.91,3.02,-2.87,3.02,-2.86,2.86,2.26,5.88,5.89,5.89
26.16,3.07,-2.82,3.06,-2.83,2.83,2.31,5.90,5.89,5.89
26.43,3.10,-2.79,3.10,-2.79,2.79,2.36,5.89,5.89,5.89
26.69,3.14,-2.75,3.14,-2.75,2.75,2.42,5.89,5.89,5.89
26.96,3.18,-2.71,3.18,-2.71,2.71,2.47,5.89,5.89,5.89
27.23,3.22,-2.68,3.22,-2.67,2.67,2.52,5.89,5.89,5.89
27.50,3.27,-2.63,3.27,-2.63,2.63,2.56,5.90,5.90,5.90
27.77,3.31,-2.59,3.30,-2.59,2.59,2.61,5.90,5.90,5.90
28.05,3.35,-2.55,3.34,-2.55,2.55,2.65,5.90,5.90,5.90
28.33,3.38,-2.52,3.38,-2.52,2.52,2.69,5.90,5.90,5.90
28.62,3.42,-2.48,3.42,-2.48,2.48,2.73,5.90,5.90,5.90
28.90,3.46,-2.44,3.46,-2.44,2.44,2.76,5.90,5.90,5.90
29.19,3.50,-2.40,3.50,-2.40,2.40,2.79,5.90,5.90,5.90
29.48,3.53,-2.37,3.54,-2.37,2.37,2.82,5.90,5.90,5.90
29.78,3.57,-2.34,3.57,-2.33,2.33,2.84,5.90,5.90,5.91
30.08,3.61,-2.30,3.61,-2.30,2.30,2.86,5.91,5.90,5.91
30.38,3.65,-2.26,3.64,-2.26,2.26,2.87,5.91,5.90,5.91
30.68,3.68,-2.23,3.68,-2.23,2.23,2.88,5.91,5.90,5.91
30.99,3.72,-2.19,3.71,-2.19,2.19,2.89,5.91,5.90,5.91
31.30,3.75,-2.16,3.75,-2.16,2.16,2.88,5.91,5.90,5.91
31.61,3.78,-2.13,3.78,-2.12,2.12,2.88,5.90,5.90,5.91
31.93,3.81,-2.10,3.82,-2.09,2.09,2.87,5.90,5.90,5.91
32.24,3.84,-2.06,3.85,-2.05,2.05,2.85,5.90,5.90,5.90
32.57,3.88,-2.02,3.88,-2.02,2.02,2.83,5.90,5.90,5.90
32.89,3.91,-1.99,3.91,-1.99,1.99,2.81,5.90,5.90,5.90
33.22,3.94,-1.96,3.95,-1.96,1.96,2.78,5.90,5.90,5.90
33.55,3.98,-1.92,3.98,-1.93,1.93,2.74,5.91,5.90,5.90
33.89,4.01,-1.89,4.00,-1.90,1.90,2.71,5.91,5.90,5.90
34.23,4.04,-1.86,4.03,-1.87,1.87,2.67,5.91,5.90,5.90
34.57,4.07,-1.83,4.06,-1.84,1.84,2.62,5.91,5.90,5.90
34.92,4.09,-1.81,4.09,-1.81,1.81,2.58,5.90,5.90,5.90
35.27,4.12,-1.78,4.12,-1.78,1.78,2.53,5.90,5.89,5.90
35.62,4.14,-1.75,4.14,-1.75,1.75,2.48,5.89,5.89,5.89
35.97,4.17,-1.72,4.17,-1.72,1.72,2.42,5.89,5.89,5.89
36.33,4.19,-1.70,4.19,-1.70,1.70,2.37,5.89,5.89,5.89
36.70,4.21,-1.68,4.22,-1.67,1.67,2.31,5.88,5.88,5.89
37.06,4.23,-1.65,4.24,-1.64,1.64,2.26,5.87,5.88,5.88
37.43,4.26,-1.62,4.26,-1.61,1.61,2.20,5.87,5.88,5.88
37.81,4.29,-1.59,4.29,-1.59,1.59,2.14,5.88,5.88,5.88
38.19,4.31,-1.57,4.31,-1.56,1.56,2.08,5.87,5.87,5.88
38.57,4.34,-1.53,4.34,-1.53,1.53,2.02,5.87,5.87,5.87
38.95,4.37,-1.50,4.37,-1.50,1.50,1.96,5.87,5.87,5.87
39.34,4.39,-1.47,4.39,-1.47,1.47,1.90,5.86,5.86,5.86
39.74,4.42,-1.44,4.42,-1.44,1.44,1.84,5.86,5.86,5.86
40.14,4.45,-1.40,4.45,-1.41,1.41,1.79,5.86,5.85,5.85
40.54,4.47,-1.38,4.47,-1.38,1.38,1.73,5.85,5.85,5.85
40.94,4.50,-1.34,4.50,-1.35,1.35,1.67,5.85,5.85,5.84
41.35,4.52,-1.32,4.52,-1.32,1.32,1.62,5.84,5.84,5.84
41.76,4.55,-1.29,4.55,-1.29,1.29,1.56,5.84,5.84,5.84
42.18,4.57,-1.26,4.57,-1.26,1.26,1.51,5.83,5.83,5.83
42.60,4.60,-1.23,4.60,-1.23,1.23,1.45,5.83,5.83,5.83
43.03,4.62,-1.20,4.62,-1.20,1.20,1.40,5.82,5.82,5.82
43.46,4.64,-1.18,4.64,-1.17,1.17,1.35,5.81,5.82,5.82
43.90,4.66,-1.15,4.66,-1.15,1.15,1.30,5.81,5.81,5.81
44.33,4.68,-1.12,4.68,-1.12,1.12,1.25,5.80,5.80,5.80
44.78,4.70,-1.10,4.70,-1.10,1.10,1.20,5.80,5.80,5.80
45.23,4.72,-1.07,4.72,-1.07,1.07,1.16,5.79,5.79,5.79
45.68,4.74,-1.04,4.73,-1.05,1.05,1.11,5.79,5.78,5.78
46.13,4.75,-1.02,4.75,-1.02,1.02,1.07,5.77,5.77,5.77
46.60,4.77,-0.99,4.76,-1.00,1.00,1.02,5.77,5.76,5.76
47.06,4.78,-0.97,4.77,-0.97,0.97,0.98,5.75,5.75,5.75
47.53,4.79,-0.95,4.79,-0.95,0.95,0.94,5.74,5.74,5.74
48.01,4.80,-0.93,4.80,-0.93,0.93,0.90,5.73,5.73,5.73
48.49,4.81,-0.91,4.81,-0.90,0.90,0.86,5.71,5.72,5.72
48.97,4.82,-0.89,4.83,-0.88,0.88,0.82,5.70,5.70,5.71
49.46,4.83,-0.86,4.84,-0.85,0.85,0.78,5.68,5.69,5.69
49.96,4.84,-0.84,4.85,-0.83,0.83,0.74,5.67,5.68,5.68
50.46,4.85,-0.82,4.86,-0.80,0.80,0.70,5.65,5.66,5.67
50.96,4.87,-0.78,4.87,-0.77,0.77,0.67,5.64,5.65,5.65
51.47,4.89,-0.75,4.89,-0.75,0.75,0.63,5.64,5.64,5.64
51.99,4.91,-0.71,4.90,-0.72,0.72,0.60,5.63,5.62,5.62
52.51,4.93,-0.68,4.92,-0.69,0.69,0.56,5.62,5.61,5.61
53.03,4.94,-0.65,4.93,-0.66,0.66,0.53,5.60,5.59,5.59
53.56,4.95,-0.63,4.95,-0.63,0.63,0.50,5.58,5.58,5.58
54.10,4.96,-0.60,4.96,-0.60,0.60,0.47,5.56,5.56,5.56
54.64,4.97,-0.58,4.98,-0.57,0.57,0.44,5.54,5.54,5.55
55.18,4.99,-0.54,4.99,-0.53,0.53,0.40,5.53,5.53,5.53
55.74,5.00,-0.51,5.01,-0.50,0.50,0.37,5.50,5.51,5.51
56.29,5.02,-0.47,5.02,-0.47,0.47,0.34,5.49,5.49,5.49
56.86,5.04,-0.44,5.04,-0.43,0.43,0.31,5.47,5.47,5.48
57.42,5.05,-0.41,5.06,-0.40,0.40,0.29,5.45,5.46,5.46
58.00,5.07,-0.37,5.08,-0.36,0.36,0.26,5.43,5.44,5.44
58.58,5.09,-0.33,5.09,-0.32,0.32,0.23,5.41,5.42,5.42
59.16,5.11,-0.29,5.11,-0.29,0.29,0.20,5.40,5.40,5.40
59.76,5.13,-0.25,5.13,-0.25,0.25,0.17,5.38,5.38,5.38
60.35,5.15,-0.21,5.14,-0.22,0.22,0.14,5.37,5.36,5.36
60.96,5.16,-0.18,5.16,-0.18,0.18,0.12,5.34,5.34,5.34
61.57,5.18,-0.14,5.17,-0.15,0.15,0.09,5.33,5.32,5.32
62.18,5.19,-0.10,5.18,-0.11,0.11,0.06,5.30,5.30,5.29
62.80,5.20,-0.07,5.19,-0.08,0.08,0.03,5.28,5.27,5.27
63.43,5.20,-0.05,5.20,-0.05,0.05,0.01,5.25,5.25,5.25
64.07,5.21,-0.01,5.20,-0.02,0.02,-0.02,5.23,5.22,5.22
64.71,5.21,0.01,5.20,0.01,-0.01,-0.05,5.20,5.19,5.20
65.35,5.21,0.04,5.20,0.04,-0.04,-0.07,5.17,5.17,5.17
66.01,5.21,0.07,5.21,0.07,-0.07,-0.10,5.14,5.14,5.14
66.67,5.20,0.09,5.21,0.10,-0.10,-0.13,5.10,5.11,5.11
67.33,5.20,0.11,5.21,0.13,-0.13,-0.15,5.07,5.08,5.09
68.01,5.19,0.13,5.21,0.16,-0.16,-0.18,5.03,5.05,5.06
68.69,5.19,0.16,5.21,0.19,-0.19,-0.21,5.00,5.02,5.03
69.37,5.19,0.19,5.21,0.22,-0.22,-0.24,4.97,4.99,5.00
70.07,5.19,0.22,5.20,0.24,-0.24,-0.27,4.95,4.96,4.97
70.77,5.20,0.27,5.20,0.27,-0.27,-0.29,4.93,4.93,4.93
71.48,5.20,0.30,5.20,0.30,-0.30,-0.32,4.90,4.90,4.90
72.19,5.21,0.34,5.20,0.33,-0.33,-0.35,4.88,4.86,4.87
72.91,5.21,0.38,5.19,0.36,-0.36,-0.38,4.85,4.83,4.83
73.64,5.20,0.40,5.18,0.38,-0.38,-0.41,4.82,4.80,4.80
74.38,5.19,0.43,5.17,0.41,-0.41,-0.44,4.78,4.76,4.76
75.12,5.18,0.45,5.16,0.43,-0.43,-0.47,4.75,4.73,4.73
75.87,5.15,0.46,5.15,0.46,-0.46,-0.50,4.69,4.69,4.69
76.63,5.13,0.47,5.13,0.48,-0.48,-0.53,4.65,4.66,4.66
77.40,5.11,0.49,5.12,0.50,-0.50,-0.57,4.61,4.62,4.62
78.17,5.10,0.52,5.10,0.52,-0.52,-0.60,4.58,4.58,4.58
78.95,5.08,0.53,5.09,0.55,-0.55,-0.63,4.53,4.54,4.55
79.74,5.07,0.56,5.08,0.57,-0.57,-0.67,4.50,4.50,4.51
80.54,5.05,0.58,5.06,0.60,-0.60,-0.70,4.45,4.46,4.47
81.35,5.05,0.62,5.06,0.63,-0.63,-0.74,4.42,4.42,4.43
82.16,5.05,0.66,5.05,0.67,-0.67,-0.77,4.38,4.38,4.39
82.98,5.05,0.70,5.05,0.71,-0.71,-0.81,4.34,4.35,4.35
83.81,5.05,0.73,5.06,0.75,-0.75,-0.85,4.30,4.31,4.32
84.65,5.06,0.78,5.07,0.79,-0.79,-0.88,4.27,4.27,4.28
85.50,5.06,0.82,5.08,0.85,-0.85,-0.92,4.21,4.23,4.24
86.35,5.08,0.88,5.09,0.90,-0.90,-0.96,4.18,4.20,4.20
87.22,5.09,0.92,5.11,0.95,-0.95,-1.00,4.14,4.16,4.17
88.09,5.11,0.98,5.13,1.01,-1.01,-1.04,4.10,4.12,4.13
88.97,5.14,1.05,5.15,1.06,-1.06,-1.09,4.08,4.08,4.09
89.86,5.17,1.12,5.17,1.12,-1.12,-1.13,4.05,4.05,4.05
90.76,5.19,1.18,5.18,1.17,-1.17,-1.17,4.02,4.01,4.01
91.66,5.21,1.24,5.19,1.22,-1.22,-1.22,3.99,3.97,3.97
92.58,5.23,1.29,5.20,1.26,-1.26,-1.27,3.97,3.93,3.94
93.51,5.23,1.33,5.20,1.30,-1.30,-1.31,3.93,3.89,3.90
94.44,5.22,1.36,5.19,1.34,-1.34,-1.36,3.88,3.85,3.86
95.39,5.20,1.38,5.19,1.37,-1.37,-1.41,3.83,3.82,3.82
96.34,5.18,1.41,5.17,1.40,-1.40,-1.46,3.78,3.78,3.77
97.30,5.15,1.42,5.15,1.42,-1.42,-1.51,3.73,3.74,3.73
98.28,5.13,1.44,5.13,1.44,-1.44,-1.56,3.69,3.69,3.69
99.26,5.10,1.45,5.10,1.45,-1.45,-1.61,3.65,3.65,3.65
100.25,5.06,1.45,5.07,1.47,-1.47,-1.66,3.59,3.60,3.61
101.25,5.03,1.47,5.04,1.48,-1.48,-1.71,3.55,3.56,3.56
102.27,5.00,1.48,5.01,1.49,-1.49,-1.76,3.51,3.51,3.52
103.29,4.98,1.50,4.98,1.51,-1.51,-1.81,3.47,3.47,3.48
104.32,4.96,1.52,4.95,1.52,-1.52,-1.86,3.44,3.43,3.44
105.37,4.93,1.54,4.93,1.54,-1.54,-1.91,3.39,3.39,3.39
106.42,4.90,1.55,4.91,1.56,-1.56,-1.96,3.34,3.34,3.35
107.48,4.87,1.56,4.89,1.59,-1.59,-2.01,3.28,3.30,3.31
108.56,4.85,1.59,4.87,1.61,-1.61,-2.06,3.24,3.26,3.26
109.64,4.84,1.62,4.86,1.64,-1.64,-2.11,3.20,3.22,3.22
110.74,4.84,1.66,4.85,1.68,-1.68,-2.16,3.16,3.18,3.18
111.85,4.85,1.72,4.85,1.71,-1.71,-2.20,3.14,3.13,3.13
112.97,4.86,1.77,4.84,1.75,-1.75,-2.24,3.11,3.09,3.09
114.10,4.86,1.81,4.83,1.80,-1.80,-2.28,3.06,3.04,3.05
115.24,4.86,1.85,4.83,1.84,-1.84,-2.32,3.02,2.99,3.01
116.39,4.85,1.89,4.84,1.89,-1.89,-2.36,2.96,2.95,2.96
117.55,4.85,1.93,4.85,1.94,-1.94,-2.40,2.91,2.91,2.92
118.73,4.85,1.97,4.86,1.99,-1.99,-2.43,2.86,2.87,2.88
119.92,4.85,2.01,4.88,2.05,-2.05,-2.46,2.80,2.83,2.84
121.12,4.87,2.08,4.89,2.11,-2.11,-2.48,2.76,2.78,2.79
122.33,4.88,2.13,4.92,2.17,-2.17,-2.50,2.71,2.74,2.75
123.55,4.90,2.18,4.94,2.23,-2.23,-2.52,2.67,2.70,2.72
124.79,4.93,2.25,4.96,2.30,-2.30,-2.54,2.63,2.66,2.68
126.03,4.99,2.35,4.99,2.36,-2.36,-2.55,2.63,2.63,2.64
127.29,5.02,2.42,5.01,2.42,-2.42,-2.56,2.60,2.59,2.60
128.57,5.05,2.48,5.04,2.47,-2.47,-2.57,2.58,2.56,2.57
129.85,5.09,2.56,5.06,2.53,-2.53,-2.57,2.56,2.53,2.53
131.15,5.10,2.60,5.07,2.57,-2.57,-2.57,2.53,2.50,2.50
132.46,5.11,2.65,5.08,2.61,-2.61,-2.57,2.50,2.47,2.46
133.79,5.11,2.68,5.08,2.64,-2.64,-2.57,2.47,2.44,2.43
135.12,5.10,2.70,5.08,2.67,-2.67,-2.56,2.43,2.41,2.40
136.48,5.09,2.72,5.07,2.69,-2.69,-2.55,2.40,2.37,2.37
137.84,5.06,2.72,5.05,2.71,-2.71,-2.54,2.35,2.34,2.34
139.22,5.04,2.73,5.02,2.72,-2.72,-2.53,2.32,2.31,2.31
140.61,5.01,2.73,5.00,2.72,-2.72,-2.52,2.29,2.27,2.28
142.02,4.95,2.69,4.97,2.73,-2.73,-2.50,2.22,2.24,2.26
143.44,4.93,2.70,4.95,2.73,-2.73,-2.48,2.20,2.21,2.23
144.87,4.89,2.69,4.92,2.74,-2.74,-2.47,2.15,2.19,2.20
146.32,4.88,2.70,4.91,2.74,-2.74,-2.45,2.14,2.16,2.18
147.78,4.85,2.70,4.89,2.75,-2.75,-2.43,2.10,2.14,2.15
149.26,4.84,2.71,4.88,2.77,-2.77,-2.41,2.07,2.11,2.13
150.75,4.84,2.73,4.87,2.78,-2.78,-2.40,2.06,2.09,2.11
152.26,4.85,2.77,4.87,2.80,-2.80,-2.38,2.05,2.06,2.08
153.78,4.87,2.81,4.86,2.82,-2.82,-2.36,2.05,2.04,2.06
155.32,4.88,2.85,4.86,2.84,-2.84,-2.35,2.04,2.02,2.03
156.88,4.88,2.87,4.86,2.86,-2.86,-2.33,2.02,2.00,2.01
158.44,4.88,2.90,4.86,2.88,-2.88,-2.32,2.00,1.98,1.98
160.03,4.88,2.92,4.85,2.89,-2.89,-2.31,1.99,1.95,1.96
161.63,4.86,2.93,4.84,2.91,-2.91,-2.29,1.95,1.93,1.93
163.24,4.85,2.95,4.82,2.92,-2.92,-2.29,1.93,1.90,1.90
164.88,4.81,2.93,4.80,2.92,-2.92,-2.28,1.89,1.88,1.88
166.53,4.79,2.93,4.78,2.93,-2.93,-2.27,1.86,1.86,1.86
168.19,4.76,2.93,4.76,2.93,-2.93,-2.26,1.83,1.83,1.83
169.87,4.72,2.91,4.73,2.92,-2.92,-2.26,1.80,1.81,1.81
171.57,4.69,2.90,4.70,2.92,-2.92,-2.26,1.77,1.78,1.79
173.29,4.66,2.89,4.67,2.91,-2.91,-2.26,1.75,1.76,1.77
175.02,4.62,2.87,4.65,2.90,-2.90,-2.26,1.72,1.74,1.75
176.77,4.60,2.87,4.62,2.90,-2.90,-2.26,1.70,1.72,1.73
178.54,4.58,2.87,4.60,2.89,-2.89,-2.27,1.69,1.71,1.71
180.32,4.57,2.87,4.57,2.88,-2.88,-2.28,1.69,1.69,1.70
182.13,4.56,2.88,4.55,2.87,-2.87,-2.29,1.69,1.68,1.68
183.95,4.53,2.86,4.53,2.86,-2.86,-2.30,1.67,1.67,1.67
185.79,4.51,2.85,4.50,2.85,-2.85,-2.31,1.66,1.66,1.66
187.65,4.49,2.84,4.48,2.84,-2.84,-2.32,1.65,1.64,1.65
189.52,4.47,2.83,4.46,2.83,-2.83,-2.34,1.64,1.63,1.64
191.42,4.46,2.83,4.44,2.81,-2.81,-2.36,1.65,1.62,1.63
193.33,4.43,2.81,4.41,2.80,-2.80,-2.38,1.63,1.61,1.62
195.27,4.39,2.78,4.39,2.79,-2.79,-2.40,1.60,1.60,1.61
197.22,4.36,2.76,4.36,2.77,-2.77,-2.42,1.59,1.59,1.60
199.19,4.33,2.74,4.34,2.76,-2.76,-2.44,1.57,1.58,1.59
201.18,4.30,2.72,4.32,2.74,-2.74,-2.46,1.56,1.57,1.58
203.19,4.28,2.71,4.29,2.73,-2.73,-2.49,1.55,1.56,1.57
205.23,4.26,2.70,4.27,2.72,-2.72,-2.51,1.54,1.55,1.56
207.28,4.24,2.69,4.25,2.70,-2.70,-2.54,1.54,1.54,1.55
209.35,4.22,2.68,4.23,2.69,-2.69,-2.56,1.53,1.53,1.54
211.44,4.20,2.67,4.21,2.68,-2.68,-2.59,1.52,1.53,1.53
213.56,4.18,2.66,4.18,2.67,-2.67,-2.62,1.51,1.52,1.52
215.69,4.17,2.66,4.16,2.65,-2.65,-2.64,1.52,1.51,1.51
217.85,4.15,2.65,4.14,2.64,-2.64,-2.67,1.51,1.50,1.50
220.03,4.13,2.64,4.12,2.62,-2.62,-2.69,1.51,1.49,1.49
222.23,4.10,2.62,4.09,2.61,-2.61,-2.71,1.49,1.49,1.48
224.45,4.08,2.60,4.06,2.59,-2.59,-2.73,1.49,1.48,1.48
226.70,4.04,2.57,4.03,2.56,-2.56,-2.75,1.48,1.47,1.47
228.96,4.01,2.55,4.00,2.54,-2.54,-2.77,1.47,1.46,1.46
231.25,3.98,2.53,3.96,2.51,-2.51,-2.78,1.47,1.45,1.45
233.57,3.93,2.48,3.93,2.48,-2.48,-2.79,1.45,1.45,1.45
235.90,3.88,2.44,3.90,2.46,-2.46,-2.80,1.42,1.44,1.44
238.26,3.85,2.41,3.86,2.43,-2.43,-2.81,1.42,1.44,1.44
240.64,3.81,2.38,3.82,2.39,-2.39,-2.81,1.42,1.43,1.43
243.05,3.77,2.34,3.79,2.36,-2.36,-2.81,1.41,1.43,1.43
245.48,3.74,2.31,3.75,2.33,-2.33,-2.80,1.41,1.42,1.43
247.93,3.71,2.29,3.72,2.30,-2.30,-2.80,1.41,1.42,1.42
250.41,3.69,2.27,3.68,2.27,-2.27,-2.78,1.42,1.41,1.42
252.92,3.66,2.25,3.65,2.25,-2.25,-2.77,1.41,1.41,1.41
255.45,3.64,2.23,3.62,2.22,-2.22,-2.75,1.42,1.40,1.41
258.00,3.61,2.21,3.59,2.20,-2.20,-2.72,1.41,1.40,1.40
260.58,3.57,2.17,3.56,2.17,-2.17,-2.70,1.40,1.39,1.40
263.19,3.53,2.14,3.54,2.15,-2.15,-2.66,1.38,1.39,1.39
265.82,3.49,2.10,3.51,2.13,-2.13,-2.63,1.36,1.38,1.39
268.48,3.47,2.09,3.48,2.10,-2.10,-2.59,1.37,1.38,1.38
271.16,3.44,2.07,3.45,2.08,-2.08,-2.55,1.36,1.37,1.37
273.87,3.41,2.04,3.42,2.05,-2.05,-2.51,1.35,1.37,1.37
276.61,3.39,2.03,3.39,2.03,-2.03,-2.46,1.36,1.36,1.36
279.38,3.37,2.02,3.36,2.00,-2.00,-2.41,1.37,1.35,1.35
282.17,3.35,2.00,3.33,1.98,-1.98,-2.36,1.37,1.35,1.35
284.99,3.32,1.97,3.30,1.95,-1.95,-2.31,1.37,1.35,1.35
287.84,3.27,1.93,3.27,1.92,-1.92,-2.26,1.35,1.34,1.34
290.72,3.23,1.89,3.23,1.89,-1.89,-2.20,1.34,1.34,1.34
293.63,3.20,1.86,3.20,1.86,-1.86,-2.14,1.34,1.34,1.34
296.57,3.17,1.83,3.17,1.83,-1.83,-2.09,1.34,1.34,1.34
299.53,3.13,1.79,3.14,1.80,-1.80,-2.03,1.33,1.34,1.34
302.53,3.11,1.77,3.11,1.77,-1.77,-1.97,1.34,1.34,1.34
305.55,3.08,1.74,3.08,1.75,-1.75,-1.91,1.33,1.33,1.34
308.61,3.05,1.71,3.05,1.72,-1.72,-1.85,1.33,1.33,1.34
311.69,3.02,1.68,3.03,1.69,-1.69,-1.79,1.33,1.34,1.34
314.81,3.00,1.66,3.00,1.67,-1.67,-1.74,1.33,1.34,1.34
317.96,2.97,1.62,2.98,1.64,-1.64,-1.68,1.33,1.34,1.35
321.14,2.95,1.60,2.96,1.62,-1.62,-1.62,1.33,1.35,1.35
324.35,2.94,1.59,2.95,1.60,-1.60,-1.56,1.34,1.35,1.35
327.59,2.92,1.57,2.93,1.58,-1.58,-1.51,1.34,1.35,1.35
330.87,2.91,1.55,2.91,1.55,-1.55,-1.45,1.36,1.35,1.36
334.18,2.90,1.54,2.89,1.53,-1.53,-1.39,1.37,1.36,1.36
337.52,2.88,1.52,2.87,1.51,-1.51,-1.34,1.37,1.36,1.36
340.90,2.87,1.51,2.85,1.49,-1.49,-1.29,1.38,1.36,1.36
344.30,2.84,1.47,2.83,1.46,-1.46,-1.23,1.38,1.37,1.37
347.75,2.81,1.44,2.80,1.44,-1.44,-1.18,1.37,1.37,1.37
351.23,2.78,1.41,2.78,1.41,-1.41,-1.13,1.37,1.37,1.37
354.74,2.75,1.38,2.75,1.38,-1.38,-1.08,1.37,1.37,1.37
358.28,2.72,1.34,2.73,1.35,-1.35,-1.03,1.37,1.37,1.38
361.87,2.70,1.32,2.70,1.32,-1.32,-0.98,1.38,1.37,1.38
365.49,2.67,1.29,2.67,1.29,-1.29,-0.93,1.38,1.37,1.38
369.14,2.64,1.26,2.64,1.26,-1.26,-0.89,1.38,1.38,1.38
372.83,2.61,1.22,2.62,1.23,-1.23,-0.84,1.38,1.38,1.39
376.56,2.57,1.18,2.59,1.20,-1.20,-0.79,1.37,1.39,1.39
380.33,2.54,1.15,2.56,1.17,-1.17,-0.75,1.37,1.39,1.39
384.13,2.51,1.11,2.53,1.13,-1.13,-0.71,1.38,1.40,1.40
387.97,2.50,1.10,2.50,1.10,-1.10,-0.66,1.40,1.40,1.40
391.85,2.48,1.07,2.47,1.06,-1.06,-0.62,1.42,1.40,1.41
395.77,2.46,1.05,2.43,1.03,-1.03,-0.58,1.43,1.41,1.41
399.73,2.43,1.01,2.40,0.99,-0.99,-0.54,1.44,1.41,1.42
403.72,2.39,0.97,2.37,0.95,-0.95,-0.50,1.44,1.42,1.42
407.76,2.35,0.92,2.33,0.91,-0.91,-0.46,1.44,1.42,1.43
411.84,2.29,0.86,2.30,0.87,-0.87,-0.42,1.42,1.43,1.43
415.96,2.24,0.80,2.26,0.83,-0.83,-0.38,1.41,1.44,1.44
420.12,2.20,0.76,2.22,0.78,-0.78,-0.35,1.42,1.44,1.44
424.32,2.16,0.71,2.19,0.74,-0.74,-0.31,1.42,1.44,1.45
428.56,2.13,0.68,2.14,0.70,-0.70,-0.28,1.43,1.44,1.45
432.85,2.11,0.66,2.10,0.66,-0.66,-0.24,1.45,1.44,1.45
437.18,2.08,0.62,2.06,0.62,-0.62,-0.21,1.46,1.45,1.46
441.55,2.05,0.59,2.03,0.58,-0.58,-0.18,1.47,1.45,1.46
445.96,2.00,0.54,1.99,0.54,-0.54,-0.14,1.46,1.45,1.46
450.42,1.95,0.49,1.95,0.50,-0.50,-0.11,1.45,1.46,1.46
454.93,1.91,0.45,1.92,0.46,-0.46,-0.08,1.45,1.46,1.46
459.48,1.86,0.40,1.88,0.42,-0.42,-0.05,1.44,1.46,1.46
464.07,1.83,0.37,1.84,0.38,-0.38,-0.03,1.45,1.46,1.46
468.71,1.80,0.34,1.80,0.34,-0.34,0.00,1.46,1.46,1.46
473.40,1.77,0.31,1.77,0.30,-0.30,0.03,1.47,1.47,1.46
478.13,1.75,0.28,1.73,0.26,-0.26,0.05,1.49,1.47,1.47
482.91,1.71,0.24,1.69,0.22,-0.22,0.08,1.49,1.47,1.47
487.74,1.66,0.18,1.65,0.17,-0.17,0.10,1.49,1.48,1.48
492.62,1.61,0.12,1.62,0.13,-0.13,0.13,1.48,1.49,1.49
497.55,1.56,0.07,1.58,0.08,-0.08,0.15,1.48,1.50,1.49
502.52,1.52,0.02,1.54,0.04,-0.04,0.17,1.48,1.50,1.50
507.55,1.49,-0.02,1.50,-0.01,0.01,0.19,1.50,1.51,1.51
512.62,1.47,-0.05,1.47,-0.05,0.05,0.21,1.52,1.52,1.52
517.75,1.44,-0.09,1.42,-0.10,0.10,0.23,1.54,1.53,1.53
522.93,1.41,-0.13,1.38,-0.15,0.15,0.25,1.56,1.53,1.54
528.16,1.37,-0.18,1.35,-0.20,0.20,0.26,1.57,1.54,1.55
533.44,1.32,-0.24,1.31,-0.25,0.25,0.28,1.57,1.55,1.56
538.77,1.27,-0.30,1.27,-0.29,0.29,0.29,1.56,1.57,1.57
544.16,1.22,-0.36,1.24,-0.34,0.34,0.31,1.56,1.58,1.58
549.60,1.18,-0.41,1.20,-0.39,0.39,0.32,1.57,1.59,1.59
555.10,1.15,-0.45,1.17,-0.44,0.44,0.34,1.59,1.60,1.60
560.65,1.12,-0.49,1.13,-0.48,0.48,0.35,1.60,1.62,1.61
566.25,1.10,-0.52,1.10,-0.53,0.53,0.37,1.63,1.63,1.62
571.92,1.07,-0.57,1.06,-0.57,0.57,0.38,1.64,1.64,1.64
577.64,1.05,-0.60,1.03,-0.62,0.62,0.39,1.67,1.65,1.65
583.41,1.02,-0.65,1.00,-0.66,0.66,0.40,1.68,1.66,1.67
589.25,0.98,-0.70,0.97,-0.70,0.70,0.42,1.68,1.67,1.68
595.14,0.94,-0.76,0.94,-0.75,0.75,0.43,1.69,1.69,1.70
601.09,0.90,-0.81,0.92,-0.78,0.78,0.44,1.68,1.70,1.71
607.10,0.87,-0.85,0.89,-0.82,0.82,0.46,1.69,1.71,1.72
613.17,0.85,-0.88,0.86,-0.86,0.86,0.47,1.71,1.72,1.73
619.30,0.83,-0.90,0.83,-0.90,0.90,0.48,1.73,1.73,1.73
625.50,0.80,-0.94,0.80,-0.93,0.93,0.50,1.73,1.73,1.74
631.75,0.78,-0.96,0.77,-0.96,0.96,0.51,1.74,1.74,1.74
638.07,0.75,-1.00,0.74,-1.00,1.00,0.52,1.75,1.74,1.75
644.45,0.73,-1.02,0.71,-1.03,1.03,0.54,1.76,1.74,1.75
650.89,0.69,-1.06,0.68,-1.06,1.06,0.55,1.75,1.74,1.75
657.40,0.66,-1.08,0.65,-1.09,1.09,0.57,1.75,1.74,1.74
663.98,0.62,-1.12,0.62,-1.12,1.12,0.58,1.74,1.74,1.74
670.62,0.59,-1.15,0.59,-1.15,1.15,0.60,1.74,1.74,1.74
677.32,0.56,-1.18,0.56,-1.18,1.18,0.61,1.74,1.74,1.74
684.10,0.53,-1.21,0.53,-1.21,1.21,0.63,1.74,1.74,1.74
690.94,0.50,-1.24,0.50,-1.24,1.24,0.65,1.74,1.74,1.74
697.85,0.46,-1.28,0.47,-1.27,1.27,0.67,1.73,1.73,1.74
704.83,0.44,-1.30,0.44,-1.29,1.29,0.68,1.73,1.73,1.74
711.87,0.40,-1.34,0.42,-1.32,1.32,0.70,1.72,1.73,1.74
718.99,0.38,-1.36,0.39,-1.34,1.34,0.72,1.72,1.74,1.74
726.18,0.36,-1.39,0.37,-1.36,1.36,0.74,1.72,1.74,1.75
733.44,0.34,-1.41,0.36,-1.39,1.39,0.76,1.73,1.74,1.75
740.78,0.33,-1.42,0.34,-1.41,1.41,0.79,1.74,1.74,1.75
748.19,0.32,-1.43,0.32,-1.43,1.43,0.81,1.75,1.75,1.75
755.67,0.30,-1.45,0.30,-1.45,1.45,0.83,1.75,1.75,1.75
763.23,0.29,-1.46,0.28,-1.48,1.48,0.85,1.77,1.75,1.75
770.86,0.28,-1.47,0.26,-1.50,1.50,0.88,1.78,1.76,1.75
778.57,0.26,-1.49,0.23,-1.52,1.52,0.90,1.78,1.76,1.75
786.35,0.23,-1.52,0.21,-1.55,1.55,0.92,1.78,1.76,1.75
794.22,0.20,-1.55,0.18,-1.58,1.58,0.95,1.78,1.76,1.75
