frequency,raw
20.00,0.60
20.20,0.68
20.40,0.77
20.61,0.85
20.81,0.93
21.02,1.02
21.23,1.10
21.44,1.18
21.66,1.27
21.87,1.35
22.09,1.43
22.31,1.49
22.54,1.55
22.76,1.61
22.99,1.68
23.22,1.73
23.45,1.79
23.69,1.85
23.92,1.90
24.16,1.97
24.40,2.05
24.65,2.12
24.89,2.20
25.14,2.26
25.39,2.30
25.65,2.35
25.91,2.39
26.16,2.44
26.43,2.49
26.69,2.54
26.96,2.59
27.23,2.66
27.50,2.73
27.77,2.79
28.05,2.86
28.33,2.90
28.62,2.95
28.90,2.99
29.19,3.04
29.48,3.10
29.78,3.15
30.08,3.20
30.38,3.24
30.68,3.27
30.99,3.31
31.30,3.34
31.61,3.38
31.93,3.41
32.24,3.46
32.57,3.51
32.89,3.56
33.22,3.65
33.55,3.75
33.89,3.85
34.23,3.85
34.57,3.81
34.92,3.77
35.27,3.82
35.62,3.89
35.97,3.96
36.33,4.07
36.70,4.19
37.06,4.27
37.43,4.23
37.81,4.18
38.19,4.22
38.57,4.34
38.95,4.47
39.34,4.44
39.74,4.39
40.14,4.40
40.54,4.53
40.94,4.66
41.35,4.64
41.76,4.59
42.18,4.62
42.60,4.75
43.03,4.88
43.46,4.86
43.90,4.84
44.33,4.86
44.78,4.90
45.23,4.95
45.68,5.02
46.13,5.07
46.60,5.08
47.06,5.08
47.53,5.10
48.01,5.12
48.49,5.14
48.97,5.16
49.46,5.17
49.96,5.19
50.46,5.25
50.96,5.31
51.47,5.32
51.99,5.32
52.51,5.36
53.03,5.40
53.56,5.47
54.10,5.52
54.64,5.52
55.18,5.52
55.74,5.52
56.29,5.53
56.86,5.56
57.42,5.60
58.00,5.63
58.58,5.69
59.16,5.73
59.76,5.73
60.35,5.73
60.96,5.73
61.57,5.73
62.18,5.72
62.80,5.70
63.43,5.81
64.07,5.97
64.71,5.94
65.35,5.93
66.01,5.93
66.67,5.93
67.33,5.93
68.01,5.93
68.69,5.93
69.37,5.93
70.07,5.93
70.77,5.90
71.48,5.93
72.19,5.98
72.91,6.02
73.64,6.03
74.38,6.03
75.12,6.03
75.87,6.03
76.63,6.03
77.40,6.03
78.17,6.03
78.95,6.03
79.74,6.13
80.54,6.16
81.35,6.13
82.16,6.12
82.98,6.23
83.81,6.23
84.65,6.23
85.50,6.23
86.35,6.23
87.22,6.23
88.09,6.23
88.97,6.23
89.86,6.23
90.76,6.23
91.66,6.24
92.58,6.24
93.51,6.24
94.44,6.24
95.39,6.23
96.34,6.23
97.30,6.23
98.28,6.22
99.26,6.20
100.25,6.17
101.25,6.08
102.27,6.02
103.29,6.05
104.32,6.03
105.37,5.92
106.42,5.87
107.48,5.79
108.56,5.71
109.64,5.69
110.74,5.54
111.85,5.43
112.97,5.44
114.10,5.46
115.24,5.46
116.39,5.29
117.55,5.23
118.73,5.24
119.92,5.17
121.12,5.14
122.33,5.11
123.55,5.12
124.79,5.08
126.03,4.90
127.29,4.89
128.57,4.90
129.85,4.94
131.15,4.93
132.46,4.87
133.79,4.91
135.12,4.94
136.48,5.09
137.84,5.14
139.22,5.14
140.61,5.18
142.02,5.23
143.44,5.39
144.87,5.47
146.32,5.52
147.78,5.55
149.26,5.61
150.75,5.65
152.26,5.65
153.78,5.65
155.32,5.57
156.88,5.48
158.44,5.31
160.03,5.16
161.63,4.89
163.24,4.71
164.88,4.54
166.53,4.38
168.19,4.25
169.87,4.14
171.57,4.07
173.29,4.07
175.02,4.10
176.77,4.14
178.54,4.25
180.32,4.29
182.13,4.36
183.95,4.42
185.79,4.43
187.65,4.44
189.52,4.46
191.42,4.47
193.33,4.48
195.27,4.43
197.22,4.38
199.19,4.34
201.18,4.27
203.19,4.22
205.23,4.16
207.28,4.14
209.35,4.09
211.44,4.04
213.56,3.95
215.69,3.86
217.85,3.76
220.03,3.73
222.23,3.69
224.45,3.57
226.70,3.45
228.96,3.32
231.25,3.23
233.57,3.15
235.90,3.14
238.26,3.15
240.64,3.10
243.05,3.09
245.48,3.11
247.93,3.07
250.41,3.05
252.92,3.07
255.45,3.00
258.00,2.97
260.58,2.99
263.19,3.01
265.82,3.09
268.48,3.09
271.16,3.16
273.87,3.34
276.61,3.33
279.38,3.25
282.17,3.43
284.99,3.53
287.84,3.47
290.72,3.51
293.63,3.62
296.57,3.76
299.53,3.80
302.53,3.77
305.55,3.78
308.61,3.77
311.69,3.73
314.81,3.80
317.96,3.88
321.14,3.97
324.35,4.05
327.59,4.06
330.87,3.88
334.18,3.75
337.52,3.76
340.90,3.78
344.30,3.81
347.75,3.84
351.23,3.76
354.74,3.61
358.28,3.60
361.87,3.59
365.49,3.45
369.14,3.39
372.83,3.28
376.56,3.15
380.33,3.03
384.13,2.94
387.97,2.88
391.85,2.79
395.77,2.67
399.73,2.56
403.72,2.47
407.76,2.34
411.84,2.15
415.96,2.06
420.12,2.02
424.32,1.95
428.56,1.95
432.85,1.96
437.18,1.99
441.55,1.96
445.96,1.90
450.42,1.92
454.93,1.98
459.48,2.04
464.07,2.10
468.71,2.15
473.40,2.20
478.13,2.18
482.91,2.21
487.74,2.18
492.62,2.15
497.55,2.10
502.52,2.06
507.55,1.96
512.62,1.90
517.75,1.87
522.93,1.77
528.16,1.66
533.44,1.52
538.77,1.43
544.16,1.39
549.60,1.26
555.10,1.12
560.65,0.97
566.25,0.89
571.92,0.79
577.64,0.67
583.41,0.58
589.25,0.55
595.14,0.56
601.09,0.52
607.10,0.48
613.17,0.41
619.30,0.40
625.50,0.38
631.75,0.38
638.07,0.52
644.45,0.50
650.89,0.42
657.40,0.48
663.98,0.57
670.62,0.62
677.32,0.67
684.10,0.71
690.94,0.75
697.85,0.79
704.83,0.80
711.87,0.81
718.99,0.86
726.18,0.83
733.44,0.70
740.78,0.64
748.19,0.61
755.67,0.58
763.23,0.55
770.86,0.54
778.57,0.55
786.35,0.57
794.22,0.48
802.16,0.43
810.18,0.42
818.28,0.40
826.46,0.42
834.73,0.47
843.08,0.44
851.51,0.43
860.02,0.42
868.62,0.42
877.31,0.39
886.08,0.32
894.94,0.29
903.89,0.29
912.93,0.27
922.06,0.20
931.28,0.17
940.59,0.17
950.00,0.18
959.50,0.18
969.09,0.09
978.78,0.02
988.57,0.01
998.46,0.00
1008.44,-0.06
1018.53,-0.10
1028.71,-0.11
1039.00,-0.09
1049.39,-0.05
1059.88,-0.01
1070.48,0.03
1081.19,0.16
1092.00,0.25
1102.92,0.29
1113.95,0.36
1125.09,0.42
1136.34,0.49
1147.70,0.57
1159.18,0.67
1170.77,0.77
1182.48,0.69
1194.30,0.74
1206.25,0.84
1218.31,0.90
1230.49,0.96
1242.80,1.03
1255.22,1.08
1267.78,1.15
1280.45,1.18
1293.26,1.20
1306.19,1.26
1319.25,1.33
1332.45,1.37
1345.77,1.46
1359.23,1.51
1372.82,1.53
1386.55,1.55
1400.41,1.59
1414.42,1.73
1428.56,1.82
1442.85,1.77
1457.28,1.81
1471.85,1.84
1486.57,1.91
1501.43,2.01
1516.45,2.09
1531.61,2.15
1546.93,2.13
1562.40,2.19
1578.02,2.39
1593.80,2.50
1609.74,2.52
1625.84,2.57
1642.10,2.63
1658.52,2.76
1675.10,2.88
1691.85,2.94
1708.77,2.95
1725.86,3.03
1743.12,3.25
1760.55,3.38
1778.15,3.48
1795.94,3.58
1813.90,3.83
1832.03,3.99
1850.36,4.02
1868.86,4.07
1887.55,4.13
1906.42,4.22
1925.49,4.34
1944.74,4.48
1964.19,4.59
1983.83,4.57
2003.67,4.69
2023.71,4.88
2043.94,5.09
2064.38,5.19
2085.03,5.08
2105.88,5.11
2126.94,5.24
2148.20,5.31
2169.69,5.32
2191.38,5.27
2213.30,5.06
2235.43,5.07
2257.78,5.21
2280.36,5.36
2303.17,5.39
2326.20,5.36
2349.46,5.23
2372.95,5.16
2396.68,5.20
2420.65,5.28
2444.86,5.36
2469.31,5.45
2494.00,5.56
2518.94,5.72
2544.13,5.85
2569.57,5.96
2595.27,6.07
2621.22,6.25
2647.43,6.38
2673.90,6.45
2700.64,6.56
2727.65,6.67
2754.93,6.73
2782.48,6.75
2810.30,6.79
2838.40,6.80
2866.79,6.78
2895.46,6.73
2924.41,6.69
2953.65,6.66
2983.19,6.70
3013.02,6.83
3043.15,6.97
3073.58,7.03
3104.32,7.20
3135.36,7.44
3166.72,7.57
3198.38,7.56
3230.37,7.59
3262.67,7.68
3295.30,7.67
3328.25,7.64
3361.53,7.60
3395.15,7.45
3429.10,7.29
3463.39,7.19
3498.03,7.07
3533.01,6.90
3568.34,6.70
3604.02,6.44
3640.06,6.20
3676.46,5.89
3713.22,5.58
3750.36,5.16
3787.86,4.69
3825.74,4.27
3864.00,3.82
3902.64,3.38
3941.66,2.92
3981.08,2.39
4020.89,1.93
4061.10,1.58
4101.71,1.32
4142.73,1.00
4184.15,0.69
4226.00,0.41
4268.26,0.17
4310.94,-0.03
4354.05,-0.27
4397.59,-0.75
4441.56,-1.22
4485.98,-1.53
4530.84,-1.61
4576.15,-1.06
4621.91,-0.43
4668.13,0.56
4714.81,1.85
4761.96,2.91
4809.58,4.03
4857.67,5.10
4906.25,5.87
4955.31,6.33
5004.87,6.51
5054.91,6.35
5105.46,5.93
5156.52,5.60
5208.08,5.07
5260.16,4.50
5312.77,4.09
5365.89,3.72
5419.55,3.26
5473.75,2.86
5528.49,2.34
5583.77,1.84
5639.61,1.37
5696.00,0.76
5752.96,0.25
5810.49,-0.15
5868.60,-0.29
5927.28,-0.54
5986.56,-1.01
6046.42,-1.08
6106.89,-0.98
6167.96,-1.35
6229.64,-1.88
6291.93,-2.15
6354.85,-2.17
6418.40,-2.23
6482.58,-2.30
6547.41,-2.30
6612.88,-2.08
6679.01,-1.96
6745.80,-1.90
6813.26,-1.78
6881.39,-1.77
6950.21,-1.75
7019.71,-2.07
7089.91,-2.36
7160.81,-2.58
7232.41,-2.94
7304.74,-3.52
7377.79,-4.04
7451.56,-4.98
7526.08,-5.82
7601.34,-6.05
7677.35,-5.95
7754.13,-5.73
7831.67,-5.31
7909.98,-4.98
7989.08,-4.38
8068.98,-3.67
8149.67,-3.08
8231.16,-2.53
8313.47,-1.83
8396.61,-1.35
8480.57,-1.00
8565.38,-1.16
8651.03,-1.28
8737.54,-1.38
8824.92,-1.18
8913.17,-1.21
9002.30,-1.25
9092.32,-1.15
9183.25,-0.85
9275.08,-0.50
9367.83,-0.22
9461.51,0.20
9556.12,0.56
9651.68,0.63
9748.20,0.43
9845.68,-0.27
9944.14,-1.06
10043.58,-2.25
10144.02,-4.58
10245.46,-5.88
10347.91,-5.60
10451.39,-4.08
10555.91,-2.89
10661.46,-2.42
10768.08,-3.52
10875.76,-4.59
10984.52,-4.86
11094.36,-4.77
11205.31,-3.99
11317.36,-3.52
11430.53,-3.69
11544.84,-3.94
11660.29,-3.98
11776.89,-4.06
11894.66,-4.28
12013.60,-4.01
12133.74,-3.83
12255.08,-3.74
12377.63,-2.78
12501.41,-2.66
12626.42,-6.39
12752.68,-5.79
12880.21,-3.62
13009.01,-2.07
13139.10,-3.23
13270.49,-8.86
13403.20,-10.11
13537.23,-9.78
13672.60,-8.97
13809.33,-8.45
13947.42,-7.94
14086.90,-7.45
14227.77,-6.68
14370.04,-5.79
14513.74,-4.58
14658.88,-3.38
14805.47,-3.16
14953.52,-3.83
15103.06,-2.92
15254.09,-2.77
15406.63,-3.44
15560.70,-5.43
15716.30,-7.19
15873.47,-8.48
16032.20,-9.94
16192.52,-10.56
16354.45,-10.76
16517.99,-10.96
16683.17,-11.30
16850.01,-11.49
17018.51,-12.16
17188.69,-13.61
17360.58,-14.79
17534.18,-15.86
17709.53,-17.54
17886.62,-19.08
18065.49,-20.07
18246.14,-21.08
18428.60,-21.34
18612.89,-21.07
18799.02,-20.83
18987.01,-20.98
19176.88,-20.81
19368.65,-20.60
19562.33,-20.24
19757.96,-20.38
19955.54,-21.07
