frequency,raw
20.00,6.30
20.20,6.26
20.40,6.22
20.61,6.18
20.81,6.14
21.02,6.10
21.23,6.10
21.44,6.10
21.66,6.10
21.87,6.10
22.09,6.08
22.31,6.04
22.54,5.99
22.76,5.95
22.99,5.90
23.22,5.90
23.45,5.90
23.69,5.90
23.92,5.90
24.16,5.87
24.40,5.82
24.65,5.77
24.89,5.72
25.14,5.70
25.39,5.70
25.65,5.70
25.91,5.70
26.16,5.67
26.43,5.61
26.69,5.56
26.96,5.51
27.23,5.50
27.50,5.50
27.77,5.50
28.05,5.49
28.33,5.43
28.62,5.38
28.90,5.32
29.19,5.30
29.48,5.30
29.78,5.30
30.08,5.28
30.38,5.22
30.68,5.16
30.99,5.10
31.30,5.10
31.61,5.10
31.93,5.10
32.24,5.06
32.57,5.00
32.89,4.94
33.22,4.91
33.55,4.90
33.89,4.89
34.23,4.87
34.57,4.83
34.92,4.80
35.27,4.76
35.62,4.73
35.97,4.69
36.33,4.67
36.70,4.65
37.06,4.62
37.43,4.57
37.81,4.52
38.19,4.49
38.57,4.49
38.95,4.49
39.34,4.44
39.74,4.39
40.14,4.35
40.54,4.32
40.94,4.29
41.35,4.26
41.76,4.23
42.18,4.19
42.60,4.14
43.03,4.09
43.46,4.09
43.90,4.09
44.33,4.06
44.78,4.01
45.23,3.97
45.68,3.92
46.13,3.89
46.60,3.89
47.06,3.88
47.53,3.83
48.01,3.78
48.49,3.74
48.97,3.69
49.46,3.67
49.96,3.64
50.46,3.58
50.96,3.51
51.47,3.50
51.99,3.49
52.51,3.48
53.03,3.48
53.56,3.41
54.10,3.34
54.64,3.31
55.18,3.29
55.74,3.29
56.29,3.26
56.86,3.20
57.42,3.14
58.00,3.08
58.58,3.08
59.16,3.08
59.76,3.08
60.35,3.06
60.96,3.03
61.57,2.94
62.18,2.88
62.80,2.88
63.43,2.88
64.07,2.88
64.71,2.84
65.35,2.77
66.01,2.68
66.67,2.68
67.33,2.68
68.01,2.68
68.69,2.68
69.37,2.65
70.07,2.59
70.77,2.51
71.48,2.48
72.19,2.48
72.91,2.48
73.64,2.48
74.38,2.41
75.12,2.30
75.87,2.28
76.63,2.28
77.40,2.28
78.17,2.28
78.95,2.28
79.74,2.28
80.54,2.19
81.35,2.10
82.16,2.08
82.98,2.08
83.81,2.08
84.65,2.08
85.50,2.08
86.35,2.03
87.22,1.92
88.09,1.88
88.97,1.88
89.86,1.88
90.76,1.88
91.66,1.88
92.58,1.88
93.51,1.86
94.44,1.82
95.39,1.75
96.34,1.68
97.30,1.67
98.28,1.66
99.26,1.65
100.25,1.63
101.25,1.61
102.27,1.56
103.29,1.48
104.32,1.40
105.37,1.34
106.42,1.32
107.48,1.30
108.56,1.27
109.64,1.25
110.74,1.23
111.85,1.20
112.97,1.10
114.10,1.05
115.24,1.00
116.39,1.00
117.55,1.00
118.73,1.01
119.92,1.01
121.12,1.02
122.33,1.03
123.55,1.04
124.79,0.99
126.03,0.95
127.29,0.89
128.57,0.86
129.85,0.87
131.15,0.87
132.46,0.88
133.79,0.88
135.12,0.89
136.48,0.89
137.84,0.89
139.22,0.86
140.61,0.81
142.02,0.76
143.44,0.71
144.87,0.69
146.32,0.69
147.78,0.69
149.26,0.69
150.75,0.69
152.26,0.69
153.78,0.69
155.32,0.69
156.88,0.65
158.44,0.60
160.03,0.52
161.63,0.50
163.24,0.49
164.88,0.49
166.53,0.48
168.19,0.48
169.87,0.47
171.57,0.46
173.29,0.46
175.02,0.45
176.77,0.45
178.54,0.37
180.32,0.35
182.13,0.32
183.95,0.27
185.79,0.28
187.65,0.29
189.52,0.31
191.42,0.32
193.33,0.33
195.27,0.35
197.22,0.36
199.19,0.38
201.18,0.38
203.19,0.39
205.23,0.36
207.28,0.31
209.35,0.29
211.44,0.28
213.56,0.23
215.69,0.19
217.85,0.17
220.03,0.17
222.23,0.17
224.45,0.17
226.70,0.17
228.96,0.17
231.25,0.18
233.57,0.19
235.90,0.20
238.26,0.20
240.64,0.15
243.05,0.15
245.48,0.17
247.93,0.18
250.41,0.12
252.92,0.13
255.45,0.14
258.00,0.15
260.58,0.15
263.19,0.16
265.82,0.15
268.48,0.15
271.16,0.15
273.87,0.14
276.61,0.11
279.38,0.05
282.17,0.04
284.99,0.05
287.84,0.06
290.72,0.07
293.63,0.08
296.57,0.09
299.53,0.11
302.53,0.08
305.55,0.04
308.61,0.04
311.69,-0.01
314.81,-0.04
317.96,-0.05
321.14,-0.05
324.35,-0.05
327.59,-0.05
330.87,-0.05
334.18,-0.06
337.52,-0.06
340.90,-0.06
344.30,-0.08
347.75,-0.14
351.23,-0.16
354.74,-0.16
358.28,-0.15
361.87,-0.15
365.49,-0.14
369.14,-0.13
372.83,-0.17
376.56,-0.21
380.33,-0.28
384.13,-0.30
387.97,-0.30
391.85,-0.30
395.77,-0.29
399.73,-0.30
403.72,-0.30
407.76,-0.30
411.84,-0.37
415.96,-0.41
420.12,-0.40
424.32,-0.40
428.56,-0.39
432.85,-0.38
437.18,-0.35
441.55,-0.36
445.96,-0.36
450.42,-0.32
454.93,-0.26
459.48,-0.20
464.07,-0.14
468.71,-0.08
473.40,-0.02
478.13,0.02
482.91,-0.00
487.74,-0.02
492.62,-0.03
497.55,-0.02
502.52,0.01
507.55,0.03
512.62,0.05
517.75,0.05
522.93,-0.01
528.16,-0.05
533.44,-0.07
538.77,-0.10
544.16,-0.14
549.60,-0.19
555.10,-0.24
560.65,-0.29
566.25,-0.33
571.92,-0.38
577.64,-0.56
583.41,-0.64
589.25,-0.66
595.14,-0.67
601.09,-0.67
607.10,-0.66
613.17,-0.65
619.30,-0.63
625.50,-0.60
631.75,-0.58
638.07,-0.54
644.45,-0.51
650.89,-0.46
657.40,-0.43
663.98,-0.45
670.62,-0.41
677.32,-0.36
684.10,-0.32
690.94,-0.28
697.85,-0.24
704.83,-0.23
711.87,-0.22
718.99,-0.23
726.18,-0.24
733.44,-0.27
740.78,-0.29
748.19,-0.28
755.67,-0.26
763.23,-0.28
770.86,-0.29
778.57,-0.31
786.35,-0.31
794.22,-0.25
802.16,-0.14
810.18,-0.11
818.28,-0.10
826.46,-0.10
834.73,-0.09
843.08,-0.02
851.51,-0.00
860.02,0.07
868.62,0.09
877.31,0.06
886.08,-0.01
894.94,-0.04
903.89,-0.04
912.93,0.00
922.06,0.04
931.28,0.05
940.59,0.05
950.00,0.05
959.50,0.05
969.09,0.06
978.78,0.07
988.57,0.02
998.46,0.00
1008.44,0.01
1018.53,0.04
1028.71,0.06
1039.00,0.17
1049.39,0.22
1059.88,0.29
1070.48,0.39
1081.19,0.46
1092.00,0.51
1102.92,0.57
1113.95,0.63
1125.09,0.69
1136.34,0.77
1147.70,0.85
1159.18,0.94
1170.77,1.03
1182.48,1.07
1194.30,1.07
1206.25,1.15
1218.31,1.26
1230.49,1.34
1242.80,1.41
1255.22,1.43
1267.78,1.50
1280.45,1.56
1293.26,1.58
1306.19,1.59
1319.25,1.66
1332.45,1.74
1345.77,1.82
1359.23,1.91
1372.82,1.93
1386.55,1.97
1400.41,2.06
1414.42,2.08
1428.56,2.06
1442.85,2.14
1457.28,2.21
1471.85,2.19
1486.57,2.19
1501.43,2.27
1516.45,2.38
1531.61,2.45
1546.93,2.44
1562.40,2.48
1578.02,2.55
1593.80,2.62
1609.74,2.65
1625.84,2.63
1642.10,2.69
1658.52,2.76
1675.10,2.85
1691.85,2.93
1708.77,2.91
1725.86,2.96
1743.12,2.98
1760.55,2.97
1778.15,2.95
1795.94,3.05
1813.90,3.10
1832.03,3.10
1850.36,3.10
1868.86,3.09
1887.55,3.16
1906.42,3.20
1925.49,3.19
1944.74,3.18
1964.19,3.21
1983.83,3.21
2003.67,3.14
2023.71,3.05
2043.94,3.06
2064.38,3.05
2085.03,3.04
2105.88,3.07
2126.94,3.09
2148.20,3.10
2169.69,3.07
2191.38,3.08
2213.30,3.10
2235.43,3.04
2257.78,3.02
2280.36,3.05
2303.17,3.00
2326.20,2.86
2349.46,2.87
2372.95,2.89
2396.68,2.74
2420.65,2.58
2444.86,2.55
2469.31,2.52
2494.00,2.47
2518.94,2.46
2544.13,2.48
2569.57,2.44
2595.27,2.39
2621.22,2.36
2647.43,2.40
2673.90,2.46
2700.64,2.48
2727.65,2.45
2754.93,2.37
2782.48,2.30
2810.30,2.18
2838.40,1.99
2866.79,1.89
2895.46,1.82
2924.41,1.59
2953.65,1.43
2983.19,1.44
3013.02,1.37
3043.15,1.12
3073.58,1.04
3104.32,0.94
3135.36,0.89
3166.72,0.76
3198.38,0.60
3230.37,0.38
3262.67,0.15
3295.30,0.02
3328.25,-0.19
3361.53,-0.45
3395.15,-0.64
3429.10,-0.86
3463.39,-1.17
3498.03,-1.43
3533.01,-1.63
3568.34,-1.81
3604.02,-2.08
3640.06,-2.24
3676.46,-2.31
3713.22,-2.81
3750.36,-3.18
3787.86,-3.51
3825.74,-3.76
3864.00,-4.05
3902.64,-4.35
3941.66,-4.59
3981.08,-4.99
4020.89,-5.21
4061.10,-4.97
4101.71,-4.89
4142.73,-4.98
4184.15,-4.98
4226.00,-4.91
4268.26,-4.99
4310.94,-5.18
4354.05,-5.34
4397.59,-5.44
4441.56,-5.51
4485.98,-5.42
4530.84,-5.40
4576.15,-5.43
4621.91,-5.51
4668.13,-5.61
4714.81,-5.57
4761.96,-5.63
4809.58,-5.76
4857.67,-6.14
4906.25,-6.45
4955.31,-6.78
5004.87,-7.09
5054.91,-7.33
5105.46,-7.55
5156.52,-7.90
5208.08,-8.21
5260.16,-8.36
5312.77,-8.50
5365.89,-8.61
5419.55,-8.68
5473.75,-8.78
5528.49,-8.86
5583.77,-8.89
5639.61,-8.94
5696.00,-8.95
5752.96,-8.90
5810.49,-8.84
5868.60,-8.75
5927.28,-8.54
5986.56,-8.52
6046.42,-8.31
6106.89,-8.02
6167.96,-7.74
6229.64,-7.54
6291.93,-7.32
6354.85,-6.97
6418.40,-6.76
6482.58,-6.42
6547.41,-5.88
6612.88,-5.51
6679.01,-5.19
6745.80,-4.66
6813.26,-4.20
6881.39,-3.85
6950.21,-3.75
7019.71,-4.51
7089.91,-5.20
7160.81,-5.86
7232.41,-6.26
7304.74,-6.45
7377.79,-6.70
7451.56,-6.95
7526.08,-7.46
7601.34,-8.21
7677.35,-8.57
7754.13,-9.07
7831.67,-9.27
7909.98,-9.24
7989.08,-9.80
8068.98,-9.64
8149.67,-9.31
8231.16,-9.13
8313.47,-8.37
8396.61,-8.34
8480.57,-8.73
8565.38,-8.87
8651.03,-8.40
8737.54,-8.45
8824.92,-7.15
8913.17,-5.56
9002.30,-4.50
9092.32,-8.03
9183.25,-9.18
9275.08,-8.88
9367.83,-8.63
9461.51,-8.54
9556.12,-8.43
9651.68,-8.05
9748.20,-7.00
9845.68,-5.76
9944.14,-5.38
10043.58,-6.29
10144.02,-7.43
10245.46,-8.12
10347.91,-8.85
10451.39,-9.55
10555.91,-10.04
10661.46,-10.56
10768.08,-11.65
10875.76,-12.29
10984.52,-12.92
11094.36,-13.57
11205.31,-13.81
11317.36,-14.44
11430.53,-14.87
11544.84,-15.65
11660.29,-16.32
11776.89,-16.89
11894.66,-17.68
12013.60,-18.24
12133.74,-18.53
12255.08,-18.85
12377.63,-19.42
12501.41,-19.49
12626.42,-19.42
12752.68,-19.28
12880.21,-19.40
13009.01,-19.64
13139.10,-19.37
13270.49,-19.23
13403.20,-18.96
13537.23,-19.08
13672.60,-18.21
13809.33,-17.61
13947.42,-16.81
14086.90,-15.05
14227.77,-13.82
14370.04,-13.19
14513.74,-12.41
14658.88,-11.41
14805.47,-11.24
14953.52,-12.07
15103.06,-12.97
15254.09,-13.50
15406.63,-14.33
15560.70,-15.36
15716.30,-15.83
15873.47,-16.50
16032.20,-16.17
16192.52,-16.13
16354.45,-16.57
16517.99,-17.19
16683.17,-17.88
16850.01,-18.40
17018.51,-19.06
17188.69,-19.33
17360.58,-19.50
17534.18,-19.66
17709.53,-19.73
17886.62,-19.67
18065.49,-19.60
18246.14,-19.60
18428.60,-19.80
18612.89,-19.93
18799.02,-19.51
18987.01,-19.40
19176.88,-19.69
19368.65,-19.69
19562.33,-19.70
19757.96,-19.98
19955.54,-20.10
