frequency,raw,error,smoothed,error_smoothed,equalization,parametric_eq,fixed_band_eq,equalized_raw,equalized_smoothed,target
20.00,-19.25,-18.31,-19.25,-18.31,6.00,4.44,2.81,-13.25,-13.25,-0.94
20.20,-19.08,-18.23,-19.09,-18.23,6.00,4.50,2.89,-13.08,-13.09,-0.85
20.40,-18.92,-18.15,-18.92,-18.15,6.00,4.57,2.97,-12.92,-12.92,-0.77
20.61,-18.76,-18.05,-18.76,-18.06,6.00,4.64,3.06,-12.76,-12.76,-0.70
20.81,-18.59,-17.98,-18.59,-17.98,6.00,4.71,3.14,-12.59,-12.59,-0.61
21.02,-18.42,-17.89,-18.42,-17.89,6.00,4.78,3.23,-12.42,-12.42,-0.53
21.23,-18.26,-17.79,-18.26,-17.79,6.00,4.84,3.32,-12.26,-12.26,-0.47
21.44,-18.09,-17.68,-18.10,-17.68,6.00,4.91,3.41,-12.09,-12.10,-0.41
21.66,-17.94,-17.57,-17.93,-17.57,6.00,4.98,3.51,-11.94,-11.93,-0.36
21.87,-17.77,-17.46,-17.77,-17.46,6.00,5.05,3.61,-11.77,-11.77,-0.31
22.09,-17.60,-17.34,-17.60,-17.34,6.00,5.12,3.71,-11.60,-11.60,-0.26
22.31,-17.43,-17.22,-17.43,-17.22,6.00,5.19,3.81,-11.43,-11.43,-0.21
22.54,-17.27,-17.09,-17.27,-17.09,6.00,5.26,3.92,-11.27,-11.27,-0.17
22.76,-17.10,-16.97,-17.10,-16.96,6.00,5.33,4.03,-11.10,-11.10,-0.13
22.99,-16.93,-16.83,-16.93,-16.83,6.00,5.40,4.14,-10.93,-10.93,-0.10
23.22,-16.76,-16.70,-16.76,-16.70,6.00,5.46,4.26,-10.76,-10.76,-0.07
23.45,-16.59,-16.57,-16.59,-16.57,6.00,5.53,4.37,-10.59,-10.59,-0.03
23.69,-16.43,-16.44,-16.42,-16.44,6.00,5.60,4.49,-10.43,-10.42,0.01
23.92,-16.25,-16.31,-16.26,-16.31,6.00,5.67,4.62,-10.25,-10.26,0.05
24.16,-16.09,-16.20,-16.09,-16.19,6.00,5.73,4.74,-10.09,-10.09,0.10
24.40,-15.92,-16.05,-15.92,-16.05,6.00,5.80,4.87,-9.92,-9.92,0.13
24.65,-15.75,-15.92,-15.75,-15.92,6.00,5.86,5.00,-9.75,-9.75,0.16
24.89,-15.58,-15.77,-15.58,-15.78,6.00,5.92,5.13,-9.58,-9.58,0.19
25.14,-15.41,-15.64,-15.41,-15.64,6.00,5.99,5.26,-9.41,-9.41,0.23
25.39,-15.25,-15.51,-15.25,-15.51,6.00,6.05,5.39,-9.25,-9.25,0.26
25.65,-15.08,-15.38,-15.08,-15.38,6.00,6.11,5.53,-9.08,-9.08,0.30
25.91,-14.92,-15.24,-14.92,-15.24,6.00,6.17,5.66,-8.92,-8.92,0.32
26.16,-14.74,-15.09,-14.75,-15.10,6.00,6.23,5.80,-8.74,-8.75,0.35
26.43,-14.59,-14.97,-14.58,-14.96,6.00,6.28,5.93,-8.59,-8.58,0.39
26.69,-14.41,-14.83,-14.42,-14.83,6.00,6.34,6.07,-8.41,-8.42,0.42
26.96,-14.25,-14.70,-14.25,-14.71,6.00,6.39,6.20,-8.25,-8.25,0.45
27.23,-14.09,-14.57,-14.09,-14.57,6.00,6.44,6.33,-8.09,-8.09,0.49
27.50,-13.92,-14.44,-13.92,-14.43,6.00,6.49,6.46,-7.92,-7.92,0.52
27.77,-13.75,-14.29,-13.75,-14.30,6.00,6.53,6.58,-7.75,-7.75,0.54
28.05,-13.59,-14.17,-13.59,-14.16,6.00,6.58,6.70,-7.59,-7.59,0.57
28.33,-13.43,-14.03,-13.43,-14.03,6.00,6.62,6.81,-7.43,-7.43,0.59
28.62,-13.28,-13.90,-13.27,-13.90,6.00,6.66,6.92,-7.28,-7.27,0.62
28.90,-13.11,-13.77,-13.11,-13.77,6.00,6.70,7.02,-7.11,-7.11,0.66
29.19,-12.95,-13.63,-12.95,-13.64,6.00,6.73,7.11,-6.95,-6.95,0.68
29.48,-12.79,-13.52,-12.79,-13.51,6.00,6.77,7.20,-6.79,-6.79,0.73
29.78,-12.63,-13.38,-12.63,-13.39,6.00,6.80,7.27,-6.63,-6.63,0.75
30.08,-12.48,-13.25,-12.48,-13.26,6.00,6.82,7.34,-6.48,-6.48,0.78
30.38,-12.33,-13.13,-12.32,-13.13,6.00,6.85,7.39,-6.33,-6.32,0.81
30.68,-12.16,-13.00,-12.17,-13.00,6.00,6.87,7.44,-6.16,-6.17,0.84
30.99,-12.01,-12.87,-12.01,-12.87,6.00,6.89,7.47,-6.01,-6.01,0.85
31.30,-11.86,-12.75,-11.86,-12.75,6.00,6.90,7.49,-5.86,-5.86,0.88
31.61,-11.71,-12.63,-11.71,-12.62,6.00,6.91,7.50,-5.71,-5.71,0.91
31.93,-11.57,-12.50,-11.57,-12.50,6.00,6.92,7.50,-5.57,-5.57,0.93
32.24,-11.42,-12.37,-11.42,-12.38,6.00,6.93,7.49,-5.42,-5.42,0.95
32.57,-11.28,-12.26,-11.29,-12.26,6.00,6.93,7.47,-5.28,-5.29,0.98
32.89,-11.15,-12.16,-11.15,-12.15,6.00,6.93,7.43,-5.15,-5.15,1.01
33.22,-11.01,-12.04,-11.01,-12.04,6.00,6.93,7.39,-5.01,-5.01,1.03
33.55,-10.87,-11.92,-10.87,-11.92,6.00,6.92,7.34,-4.87,-4.87,1.04
33.89,-10.73,-11.79,-10.73,-11.79,6.00,6.92,7.28,-4.73,-4.73,1.05
34.23,-10.59,-11.67,-10.60,-11.67,6.00,6.90,7.22,-4.59,-4.60,1.08
34.57,-10.46,-11.55,-10.46,-11.55,6.00,6.89,7.15,-4.46,-4.46,1.09
34.92,-10.32,-11.42,-10.33,-11.43,6.00,6.87,7.07,-4.32,-4.33,1.10
35.27,-10.19,-11.31,-10.19,-11.30,6.00,6.85,6.99,-4.19,-4.19,1.11
35.62,-10.06,-11.18,-10.06,-11.18,6.00,6.83,6.90,-4.06,-4.06,1.11
35.97,-9.93,-11.05,-9.93,-11.06,6.00,6.81,6.81,-3.93,-3.93,1.12
36.33,-9.80,-10.94,-9.80,-10.93,6.00,6.78,6.72,-3.80,-3.80,1.14
36.70,-9.67,-10.81,-9.67,-10.81,6.00,6.75,6.63,-3.67,-3.67,1.14
37.06,-9.54,-10.68,-9.55,-10.68,6.00,6.72,6.54,-3.54,-3.55,1.13
37.43,-9.42,-10.56,-9.42,-10.56,6.00,6.69,6.45,-3.42,-3.42,1.14
37.81,-9.30,-10.44,-9.30,-10.44,6.00,6.65,6.36,-3.30,-3.30,1.14
38.19,-9.18,-10.32,-9.18,-10.32,6.00,6.62,6.27,-3.18,-3.18,1.14
38.57,-9.05,-10.20,-9.05,-10.19,6.00,6.58,6.18,-3.05,-3.05,1.14
38.95,-8.92,-10.06,-8.92,-10.06,6.00,6.54,6.09,-2.92,-2.92,1.14
39.34,-8.79,-9.92,-8.80,-9.93,6.00,6.50,6.01,-2.79,-2.80,1.13
39.74,-8.67,-9.80,-8.67,-9.80,6.00,6.46,5.93,-2.67,-2.67,1.12
40.14,-8.55,-9.68,-8.55,-9.67,6.00,6.41,5.85,-2.55,-2.55,1.12
40.54,-8.43,-9.55,-8.44,-9.55,6.00,6.37,5.77,-2.43,-2.44,1.12
40.94,-8.32,-9.44,-8.32,-9.43,6.00,6.33,5.70,-2.32,-2.32,1.11
41.35,-8.20,-9.31,-8.20,-9.32,6.00,6.28,5.63,-2.20,-2.20,1.11
41.76,-8.09,-9.20,-8.09,-9.19,6.00,6.24,5.57,-2.09,-2.09,1.11
42.18,-7.97,-9.08,-7.98,-9.08,6.00,6.20,5.51,-1.97,-1.98,1.10
42.60,-7.86,-8.95,-7.86,-8.96,6.00,6.15,5.45,-1.86,-1.86,1.09
43.03,-7.75,-8.85,-7.75,-8.84,6.00,6.11,5.40,-1.75,-1.75,1.09
43.46,-7.63,-8.71,-7.63,-8.71,6.00,6.07,5.35,-1.63,-1.63,1.08
43.90,-7.51,-8.58,-7.51,-8.58,6.00,6.03,5.31,-1.51,-1.51,1.07
44.33,-7.39,-8.44,-7.40,-8.45,6.00,5.99,5.27,-1.39,-1.40,1.05
44.78,-7.28,-8.33,-7.28,-8.32,6.00,5.95,5.23,-1.28,-1.28,1.05
45.23,-7.16,-8.20,-7.17,-8.20,6.00,5.91,5.20,-1.16,-1.17,1.03
45.68,-7.05,-8.08,-7.05,-8.08,6.00,5.88,5.17,-1.05,-1.05,1.03
46.13,-6.94,-7.96,-6.94,-7.96,6.00,5.85,5.14,-0.94,-0.94,1.02
46.60,-6.83,-7.86,-6.83,-7.85,6.00,5.82,5.12,-0.83,-0.83,1.02
47.06,-6.72,-7.74,-6.73,-7.75,6.00,5.79,5.11,-0.72,-0.73,1.02
47.53,-6.62,-7.64,-6.62,-7.64,6.00,5.77,5.09,-0.62,-0.62,1.01
48.01,-6.52,-7.54,-6.52,-7.53,6.00,5.75,5.09,-0.52,-0.52,1.02
48.49,-6.41,-7.42,-6.42,-7.43,6.00,5.74,5.08,-0.41,-0.42,1.01
48.97,-6.31,-7.32,-6.31,-7.31,6.00,5.73,5.08,-0.31,-0.31,1.00
49.46,-6.20,-7.19,-6.20,-7.19,6.00,5.72,5.08,-0.20,-0.20,0.99
49.96,-6.09,-7.07,-6.10,-7.08,6.00,5.72,5.08,-0.09,-0.10,0.98
50.46,-5.99,-6.98,-5.99,-6.98,6.00,5.72,5.08,0.01,0.01,0.99
50.96,-5.89,-6.90,-5.89,-6.88,6.00,5.73,5.09,0.11,0.11,1.00
51.47,-5.78,-6.78,-5.78,-6.78,6.00,5.74,5.10,0.22,0.22,0.99
51.99,-5.67,-6.67,-5.68,-6.68,6.00,5.76,5.11,0.33,0.33,1.00
52.51,-5.57,-6.58,-5.57,-6.57,6.01,5.77,5.12,0.44,0.44,1.01
53.03,-5.46,-6.47,-5.47,-6.48,6.02,5.80,5.13,0.56,0.55,1.01
53.56,-5.36,-6.37,-5.36,-6.37,6.02,5.82,5.15,0.66,0.66,1.01
54.10,-5.25,-6.26,-5.25,-6.26,6.01,5.84,5.16,0.75,0.76,1.01
54.64,-5.14,-6.14,-5.15,-6.15,5.99,5.85,5.17,0.84,0.84,1.00
55.18,-5.04,-6.04,-5.04,-6.04,5.95,5.86,5.18,0.90,0.91,1.00
55.74,-4.94,-5.93,-4.94,-5.93,5.89,5.87,5.19,0.95,0.95,0.99
56.29,-4.84,-5.83,-4.85,-5.83,5.82,5.86,5.20,0.98,0.97,0.99
56.86,-4.75,-5.73,-4.75,-5.73,5.73,5.84,5.20,0.98,0.98,0.98
57.42,-4.65,-5.62,-4.65,-5.62,5.63,5.80,5.20,0.98,0.98,0.96
58.00,-4.54,-5.50,-4.54,-5.50,5.52,5.75,5.20,0.98,0.98,0.96
58.58,-4.43,-5.38,-4.43,-5.39,5.40,5.67,5.20,0.97,0.97,0.95
59.16,-4.32,-5.27,-4.33,-5.27,5.27,5.58,5.19,0.95,0.95,0.94
59.76,-4.22,-5.16,-4.22,-5.15,5.15,5.48,5.17,0.93,0.93,0.93
60.35,-4.12,-5.03,-4.12,-5.04,5.03,5.36,5.15,0.91,0.91,0.91
60.96,-4.02,-4.93,-4.02,-4.91,4.91,5.23,5.13,0.88,0.89,0.90
61.57,-3.91,-4.78,-3.92,-4.79,4.78,5.08,5.10,0.87,0.86,0.87
62.18,-3.81,-4.65,-3.81,-4.66,4.66,4.94,5.06,0.84,0.85,0.84
62.80,-3.70,-4.54,-3.70,-4.53,4.53,4.78,5.02,0.83,0.83,0.84
63.43,-3.58,-4.39,-3.59,-4.40,4.41,4.63,4.97,0.82,0.82,0.81
64.07,-3.47,-4.28,-3.48,-4.28,4.29,4.48,4.91,0.81,0.81,0.80
64.71,-3.37,-4.17,-3.37,-4.16,4.17,4.33,4.85,0.80,0.80,0.80
65.35,-3.26,-4.05,-3.27,-4.06,4.06,4.18,4.78,0.80,0.79,0.79
66.01,-3.16,-3.95,-3.16,-3.95,3.95,4.04,4.71,0.79,0.79,0.79
66.67,-3.06,-3.85,-3.06,-3.85,3.85,3.90,4.63,0.78,0.79,0.79
67.33,-2.96,-3.75,-2.96,-3.75,3.75,3.76,4.55,0.79,0.79,0.79
68.01,-2.86,-3.65,-2.86,-3.65,3.65,3.63,4.46,0.79,0.79,0.79
68.69,-2.76,-3.55,-2.76,-3.55,3.56,3.51,4.37,0.79,0.79,0.79
69.37,-2.66,-3.46,-2.66,-3.46,3.46,3.39,4.28,0.80,0.80,0.80
70.07,-2.56,-3.36,-2.57,-3.37,3.37,3.27,4.18,0.80,0.80,0.80
70.77,-2.47,-3.29,-2.47,-3.28,3.27,3.16,4.08,0.80,0.80,0.81
71.48,-2.37,-3.18,-2.37,-3.18,3.17,3.06,3.97,0.80,0.80,0.81
72.19,-2.27,-3.08,-2.27,-3.08,3.08,2.96,3.87,0.81,0.81,0.81
72.91,-2.17,-2.99,-2.17,-2.98,2.99,2.86,3.76,0.82,0.82,0.81
73.64,-2.08,-2.89,-2.08,-2.89,2.90,2.76,3.65,0.82,0.82,0.81
74.38,-1.99,-2.81,-2.00,-2.81,2.81,2.67,3.54,0.82,0.82,0.81
75.12,-1.91,-2.72,-1.92,-2.73,2.72,2.59,3.43,0.81,0.81,0.81
75.87,-1.84,-2.65,-1.84,-2.65,2.64,2.50,3.31,0.80,0.80,0.81
76.63,-1.76,-2.58,-1.76,-2.57,2.56,2.42,3.20,0.80,0.80,0.81
77.40,-1.68,-2.49,-1.68,-2.49,2.49,2.34,3.09,0.80,0.81,0.81
78.17,-1.59,-2.39,-1.60,-2.41,2.41,2.26,2.98,0.82,0.81,0.80
78.95,-1.52,-2.34,-1.53,-2.34,2.34,2.19,2.87,0.82,0.81,0.82
79.74,-1.46,-2.28,-1.46,-2.27,2.27,2.11,2.75,0.81,0.81,0.82
80.54,-1.39,-2.21,-1.39,-2.21,2.20,2.04,2.64,0.81,0.81,0.82
81.35,-1.31,-2.14,-1.31,-2.14,2.14,1.97,2.53,0.82,0.82,0.83
82.16,-1.23,-2.07,-1.23,-2.07,2.08,1.91,2.43,0.84,0.84,0.84
82.98,-1.15,-2.01,-1.16,-2.01,2.02,1.84,2.32,0.86,0.86,0.85
83.81,-1.08,-1.95,-1.09,-1.95,1.96,1.77,2.21,0.88,0.87,0.86
84.65,-1.03,-1.90,-1.03,-1.91,1.91,1.71,2.11,0.88,0.88,0.87
85.50,-0.97,-1.87,-0.97,-1.86,1.86,1.65,2.00,0.89,0.89,0.90
86.35,-0.91,-1.83,-0.91,-1.82,1.81,1.59,1.90,0.90,0.90,0.91
87.22,-0.84,-1.76,-0.84,-1.76,1.76,1.53,1.80,0.92,0.92,0.92
88.09,-0.77,-1.71,-0.78,-1.71,1.72,1.47,1.69,0.94,0.94,0.93
88.97,-0.71,-1.66,-0.72,-1.66,1.66,1.41,1.60,0.95,0.94,0.95
89.86,-0.67,-1.62,-0.67,-1.62,1.61,1.35,1.50,0.93,0.94,0.95
90.76,-0.61,-1.56,-0.61,-1.56,1.55,1.30,1.40,0.93,0.94,0.95
91.66,-0.54,-1.49,-0.54,-1.49,1.48,1.24,1.30,0.94,0.94,0.95
92.58,-0.47,-1.41,-0.47,-1.41,1.42,1.19,1.21,0.94,0.94,0.93
93.51,-0.40,-1.34,-0.41,-1.34,1.35,1.13,1.11,0.94,0.94,0.93
94.44,-0.35,-1.27,-0.35,-1.27,1.27,1.08,1.02,0.92,0.92,0.92
95.39,-0.30,-1.20,-0.30,-1.19,1.19,1.02,0.93,0.89,0.90,0.90
96.34,-0.24,-1.11,-0.25,-1.12,1.11,0.97,0.84,0.87,0.87,0.87
97.30,-0.19,-1.03,-0.20,-1.04,1.03,0.92,0.75,0.83,0.83,0.83
98.28,-0.15,-0.96,-0.15,-0.95,0.94,0.87,0.66,0.79,0.79,0.80
99.26,-0.10,-0.87,-0.10,-0.86,0.86,0.81,0.58,0.75,0.76,0.77
100.25,-0.04,-0.77,-0.04,-0.77,0.77,0.76,0.49,0.73,0.73,0.73
101.25,0.02,-0.67,0.01,-0.67,0.69,0.71,0.41,0.70,0.70,0.69
102.27,0.07,-0.58,0.06,-0.59,0.60,0.66,0.32,0.67,0.66,0.65
103.29,0.09,-0.51,0.09,-0.51,0.52,0.61,0.24,0.61,0.61,0.60
104.32,0.12,-0.45,0.12,-0.44,0.44,0.56,0.16,0.56,0.56,0.57
105.37,0.15,-0.37,0.15,-0.37,0.36,0.51,0.08,0.51,0.51,0.52
106.42,0.20,-0.28,0.19,-0.29,0.28,0.46,0.01,0.48,0.47,0.48
107.48,0.24,-0.20,0.24,-0.20,0.20,0.41,-0.07,0.44,0.44,0.44
108.56,0.28,-0.12,0.28,-0.12,0.12,0.36,-0.14,0.40,0.40,0.40
109.64,0.33,-0.04,0.32,-0.04,0.04,0.31,-0.21,0.36,0.36,0.36
110.74,0.37,0.03,0.37,0.04,-0.05,0.26,-0.28,0.32,0.32,0.33
111.85,0.42,0.11,0.42,0.12,-0.13,0.21,-0.35,0.29,0.29,0.30
112.97,0.48,0.22,0.47,0.21,-0.20,0.16,-0.42,0.27,0.27,0.26
114.10,0.52,0.28,0.52,0.29,-0.27,0.11,-0.48,0.24,0.24,0.24
115.24,0.56,0.36,0.55,0.35,-0.34,0.06,-0.54,0.22,0.22,0.20
116.39,0.58,0.41,0.58,0.40,-0.40,0.01,-0.60,0.18,0.18,0.17
117.55,0.60,0.44,0.60,0.45,-0.45,-0.04,-0.66,0.15,0.15,0.15
118.73,0.62,0.49,0.62,0.49,-0.50,-0.09,-0.71,0.12,0.13,0.13
119.92,0.66,0.54,0.65,0.53,-0.54,-0.15,-0.76,0.12,0.11,0.12
121.12,0.68,0.58,0.68,0.57,-0.58,-0.20,-0.81,0.10,0.10,0.10
122.33,0.70,0.61,0.70,0.61,-0.61,-0.25,-0.85,0.08,0.09,0.09
123.55,0.73,0.65,0.73,0.65,-0.65,-0.30,-0.90,0.08,0.08,0.08
124.79,0.76,0.69,0.76,0.69,-0.69,-0.35,-0.94,0.07,0.07,0.06
126.03,0.79,0.73,0.78,0.72,-0.72,-0.40,-0.97,0.06,0.05,0.06
127.29,0.80,0.75,0.80,0.76,-0.76,-0.45,-1.01,0.03,0.04,0.04
128.57,0.82,0.80,0.83,0.80,-0.80,-0.50,-1.04,0.02,0.02,0.02
129.85,0.86,0.84,0.85,0.84,-0.84,-0.56,-1.06,0.02,0.01,0.02
131.15,0.89,0.88,0.88,0.88,-0.88,-0.61,-1.09,0.00,-0.00,0.00
132.46,0.91,0.93,0.92,0.93,-0.93,-0.66,-1.11,-0.02,-0.01,-0.02
133.79,0.95,0.97,0.94,0.97,-0.97,-0.71,-1.14,-0.03,-0.03,-0.02
135.12,0.98,1.02,0.97,1.01,-1.02,-0.77,-1.15,-0.04,-0.04,-0.04
136.48,1.00,1.05,1.00,1.06,-1.06,-0.82,-1.17,-0.06,-0.06,-0.05
137.84,1.03,1.10,1.02,1.10,-1.09,-0.87,-1.19,-0.07,-0.07,-0.07
139.22,1.04,1.14,1.04,1.14,-1.13,-0.92,-1.20,-0.09,-0.08,-0.10
140.61,1.06,1.18,1.05,1.17,-1.15,-0.98,-1.21,-0.10,-0.10,-0.12
142.02,1.06,1.19,1.05,1.19,-1.18,-1.03,-1.22,-0.12,-0.12,-0.13
143.44,1.05,1.20,1.05,1.20,-1.20,-1.08,-1.23,-0.15,-0.15,-0.15
144.87,1.04,1.21,1.04,1.21,-1.22,-1.14,-1.24,-0.18,-0.18,-0.18
146.32,1.03,1.23,1.03,1.23,-1.24,-1.19,-1.25,-0.21,-0.21,-0.20
147.78,1.04,1.26,1.04,1.26,-1.27,-1.24,-1.26,-0.23,-0.23,-0.22
149.26,1.05,1.29,1.05,1.29,-1.30,-1.29,-1.27,-0.25,-0.25,-0.24
150.75,1.07,1.35,1.06,1.34,-1.34,-1.35,-1.28,-0.27,-0.28,-0.28
152.26,1.08,1.38,1.08,1.38,-1.39,-1.40,-1.29,-0.31,-0.31,-0.30
153.78,1.11,1.43,1.11,1.44,-1.44,-1.45,-1.29,-0.34,-0.33,-0.33
155.32,1.14,1.50,1.14,1.50,-1.50,-1.50,-1.30,-0.37,-0.37,-0.36
156.88,1.19,1.57,1.18,1.57,-1.57,-1.55,-1.31,-0.38,-0.39,-0.38
158.44,1.21,1.63,1.22,1.64,-1.64,-1.60,-1.32,-0.43,-0.42,-0.43
160.03,1.26,1.71,1.25,1.71,-1.71,-1.65,-1.33,-0.45,-0.46,-0.46
161.63,1.28,1.77,1.28,1.78,-1.77,-1.70,-1.35,-0.50,-0.49,-0.50
163.24,1.31,1.83,1.31,1.84,-1.83,-1.74,-1.36,-0.53,-0.52,-0.53
164.88,1.35,1.90,1.34,1.90,-1.89,-1.79,-1.37,-0.54,-0.55,-0.56
166.53,1.37,1.95,1.36,1.95,-1.94,-1.83,-1.38,-0.58,-0.58,-0.59
168.19,1.38,1.99,1.38,2.00,-1.99,-1.88,-1.40,-0.61,-0.61,-0.62
169.87,1.39,2.03,1.38,2.03,-2.03,-1.92,-1.42,-0.64,-0.65,-0.64
171.57,1.39,2.06,1.39,2.06,-2.07,-1.96,-1.43,-0.68,-0.68,-0.67
173.29,1.39,2.09,1.39,2.09,-2.10,-2.00,-1.45,-0.71,-0.71,-0.70
175.02,1.39,2.11,1.39,2.12,-2.12,-2.04,-1.47,-0.74,-0.73,-0.73
176.77,1.40,2.15,1.39,2.15,-2.14,-2.07,-1.50,-0.75,-0.75,-0.75
178.54,1.40,2.17,1.40,2.17,-2.16,-2.11,-1.52,-0.76,-0.77,-0.78
180.32,1.39,2.18,1.39,2.18,-2.17,-2.14,-1.54,-0.78,-0.78,-0.79
182.13,1.38,2.18,1.37,2.18,-2.18,-2.17,-1.57,-0.80,-0.80,-0.81
183.95,1.35,2.17,1.35,2.17,-2.17,-2.20,-1.59,-0.83,-0.82,-0.82
185.79,1.33,2.16,1.33,2.16,-2.16,-2.22,-1.62,-0.84,-0.83,-0.83
187.65,1.31,2.15,1.30,2.15,-2.15,-2.24,-1.65,-0.84,-0.84,-0.85
189.52,1.28,2.13,1.27,2.13,-2.13,-2.26,-1.68,-0.85,-0.85,-0.85
191.42,1.24,2.10,1.24,2.10,-2.10,-2.28,-1.71,-0.87,-0.86,-0.86
193.33,1.21,2.07,1.21,2.07,-2.08,-2.30,-1.74,-0.87,-0.87,-0.87
195.27,1.18,2.04,1.17,2.05,-2.05,-2.31,-1.78,-0.87,-0.88,-0.87
197.22,1.15,2.03,1.14,2.03,-2.02,-2.32,-1.81,-0.88,-0.88,-0.88
199.19,1.11,2.01,1.11,2.00,-2.00,-2.33,-1.85,-0.89,-0.89,-0.90
201.18,1.09,1.99,1.08,1.98,-1.98,-2.33,-1.88,-0.89,-0.90,-0.90
203.19,1.06,1.96,1.06,1.96,-1.96,-2.34,-1.92,-0.91,-0.91,-0.90
205.23,1.04,1.95,1.04,1.94,-1.96,-2.34,-1.95,-0.92,-0.92,-0.91
207.28,1.03,1.94,1.02,1.94,-1.95,-2.33,-1.99,-0.92,-0.93,-0.91
209.35,1.02,1.94,1.02,1.94,-1.95,-2.33,-2.03,-0.94,-0.93,-0.92
211.44,1.03,1.96,1.03,1.96,-1.96,-2.32,-2.06,-0.93,-0.93,-0.94
213.56,1.04,1.97,1.04,1.97,-1.97,-2.31,-2.10,-0.93,-0.93,-0.94
215.69,1.05,1.98,1.04,1.99,-1.98,-2.30,-2.13,-0.93,-0.93,-0.93
217.85,1.05,2.00,1.05,2.00,-1.99,-2.29,-2.16,-0.94,-0.94,-0.95
220.03,1.05,2.01,1.05,2.01,-2.00,-2.27,-2.20,-0.96,-0.95,-0.96
222.23,1.05,2.02,1.05,2.02,-2.01,-2.25,-2.23,-0.97,-0.97,-0.98
224.45,1.05,2.02,1.05,2.02,-2.02,-2.23,-2.26,-0.98,-0.98,-0.97
226.70,1.05,2.03,1.05,2.03,-2.03,-2.21,-2.29,-0.98,-0.98,-0.98
228.96,1.05,2.04,1.05,2.03,-2.04,-2.19,-2.31,-0.99,-0.99,-0.99
231.25,1.05,2.04,1.05,2.04,-2.05,-2.17,-2.33,-1.00,-1.00,-0.99
233.57,1.05,2.06,1.05,2.06,-2.06,-2.14,-2.35,-1.02,-1.02,-1.01
235.90,1.05,2.07,1.05,2.07,-2.07,-2.11,-2.37,-1.03,-1.03,-1.03
238.26,1.05,2.09,1.05,2.09,-2.09,-2.09,-2.38,-1.04,-1.04,-1.04
240.64,1.05,2.10,1.05,2.10,-2.10,-2.06,-2.40,-1.05,-1.05,-1.06
243.05,1.05,2.11,1.05,2.11,-2.11,-2.03,-2.40,-1.06,-1.06,-1.06
245.48,1.05,2.12,1.05,2.12,-2.12,-2.00,-2.41,-1.07,-1.07,-1.07
247.93,1.05,2.12,1.05,2.12,-2.12,-1.97,-2.41,-1.07,-1.07,-1.07
250.41,1.05,2.14,1.05,2.13,-2.12,-1.93,-2.40,-1.08,-1.08,-1.09
252.92,1.05,2.12,1.05,2.12,-2.12,-1.90,-2.40,-1.08,-1.08,-1.07
255.45,1.05,2.11,1.05,2.12,-2.12,-1.87,-2.38,-1.07,-1.07,-1.07
258.00,1.05,2.11,1.05,2.11,-2.11,-1.84,-2.37,-1.06,-1.06,-1.06
260.58,1.05,2.10,1.05,2.10,-2.10,-1.80,-2.35,-1.05,-1.05,-1.06
263.19,1.05,2.09,1.05,2.09,-2.09,-1.77,-2.33,-1.04,-1.04,-1.04
265.82,1.05,2.08,1.05,2.07,-2.07,-1.74,-2.30,-1.02,-1.02,-1.03
268.48,1.05,2.05,1.05,2.06,-2.06,-1.70,-2.27,-1.01,-1.01,-1.01
271.16,1.05,2.04,1.05,2.04,-2.04,-1.67,-2.24,-0.99,-0.99,-0.99
273.87,1.05,2.02,1.05,2.02,-2.03,-1.64,-2.21,-0.98,-0.98,-0.97
276.61,1.05,1.99,1.05,2.00,-2.01,-1.60,-2.17,-0.96,-0.97,-0.95
279.38,1.05,1.99,1.05,1.99,-2.00,-1.57,-2.13,-0.95,-0.95,-0.94
282.17,1.06,1.98,1.06,1.98,-1.98,-1.54,-2.09,-0.92,-0.92,-0.92
284.99,1.07,1.97,1.06,1.97,-1.96,-1.51,-2.05,-0.90,-0.90,-0.91
287.84,1.07,1.96,1.07,1.95,-1.94,-1.48,-2.00,-0.88,-0.88,-0.89
290.72,1.06,1.92,1.06,1.93,-1.92,-1.44,-1.96,-0.86,-0.86,-0.86
293.63,1.05,1.90,1.05,1.89,-1.89,-1.41,-1.91,-0.84,-0.84,-0.85
296.57,1.03,1.85,1.02,1.86,-1.85,-1.38,-1.86,-0.83,-0.83,-0.83
299.53,1.00,1.81,1.00,1.81,-1.81,-1.35,-1.81,-0.81,-0.81,-0.81
302.53,0.97,1.77,0.97,1.76,-1.76,-1.32,-1.77,-0.79,-0.79,-0.80
305.55,0.94,1.70,0.94,1.71,-1.70,-1.29,-1.72,-0.77,-0.77,-0.76
308.61,0.91,1.65,0.90,1.65,-1.65,-1.27,-1.67,-0.74,-0.74,-0.75
311.69,0.87,1.58,0.87,1.59,-1.59,-1.24,-1.62,-0.72,-0.71,-0.72
314.81,0.85,1.53,0.84,1.53,-1.53,-1.21,-1.57,-0.68,-0.69,-0.68
317.96,0.81,1.47,0.81,1.47,-1.47,-1.18,-1.52,-0.67,-0.67,-0.66
321.14,0.78,1.42,0.78,1.42,-1.42,-1.16,-1.47,-0.64,-0.64,-0.64
324.35,0.75,1.37,0.75,1.37,-1.37,-1.13,-1.42,-0.63,-0.63,-0.63
327.59,0.73,1.32,0.73,1.33,-1.33,-1.11,-1.37,-0.61,-0.61,-0.60
330.87,0.72,1.30,0.71,1.29,-1.30,-1.08,-1.33,-0.58,-0.59,-0.58
334.18,0.71,1.26,0.71,1.26,-1.27,-1.06,-1.28,-0.57,-0.56,-0.55
337.52,0.71,1.24,0.71,1.24,-1.25,-1.03,-1.23,-0.54,-0.53,-0.53
340.90,0.72,1.22,0.72,1.22,-1.22,-1.01,-1.19,-0.50,-0.50,-0.50
344.30,0.74,1.21,0.73,1.21,-1.20,-0.99,-1.14,-0.46,-0.47,-0.47
347.75,0.73,1.18,0.73,1.18,-1.17,-0.97,-1.10,-0.44,-0.44,-0.46
351.23,0.72,1.14,0.72,1.15,-1.13,-0.95,-1.06,-0.42,-0.41,-0.43
354.74,0.71,1.11,0.70,1.10,-1.10,-0.92,-1.01,-0.39,-0.40,-0.40
358.28,0.68,1.06,0.68,1.05,-1.05,-0.90,-0.97,-0.37,-0.37,-0.38
361.87,0.65,1.00,0.65,1.00,-1.00,-0.88,-0.93,-0.35,-0.35,-0.35
365.49,0.62,0.94,0.62,0.95,-0.95,-0.87,-0.89,-0.33,-0.33,-0.32
369.14,0.59,0.90,0.58,0.89,-0.89,-0.85,-0.85,-0.30,-0.31,-0.31
372.83,0.55,0.83,0.55,0.83,-0.83,-0.83,-0.81,-0.28,-0.28,-0.28
376.56,0.51,0.77,0.51,0.77,-0.77,-0.81,-0.78,-0.27,-0.26,-0.26
380.33,0.49,0.71,0.48,0.72,-0.72,-0.79,-0.74,-0.23,-0.24,-0.23
384.13,0.46,0.67,0.46,0.67,-0.67,-0.78,-0.70,-0.21,-0.22,-0.22
387.97,0.43,0.62,0.43,0.63,-0.63,-0.76,-0.67,-0.20,-0.20,-0.20
391.85,0.41,0.59,0.40,0.59,-0.59,-0.74,-0.64,-0.18,-0.19,-0.19
395.77,0.39,0.55,0.39,0.55,-0.56,-0.73,-0.60,-0.17,-0.17,-0.16
399.73,0.38,0.53,0.38,0.53,-0.54,-0.71,-0.57,-0.16,-0.16,-0.15
403.72,0.38,0.53,0.38,0.52,-0.53,-0.70,-0.54,-0.15,-0.15,-0.15
407.76,0.39,0.53,0.38,0.52,-0.52,-0.68,-0.51,-0.14,-0.14,-0.14
411.84,0.39,0.52,0.39,0.52,-0.53,-0.67,-0.48,-0.14,-0.14,-0.13
415.96,0.40,0.53,0.40,0.53,-0.53,-0.66,-0.45,-0.13,-0.13,-0.13
420.12,0.41,0.54,0.41,0.54,-0.54,-0.64,-0.42,-0.13,-0.13,-0.13
424.32,0.42,0.55,0.42,0.55,-0.54,-0.63,-0.39,-0.13,-0.13,-0.13
428.56,0.42,0.55,0.42,0.55,-0.55,-0.62,-0.36,-0.13,-0.13,-0.13
432.85,0.42,0.56,0.41,0.55,-0.55,-0.61,-0.34,-0.13,-0.13,-0.14
437.18,0.40,0.54,0.40,0.55,-0.54,-0.60,-0.31,-0.14,-0.14,-0.14
441.55,0.39,0.53,0.38,0.53,-0.53,-0.58,-0.29,-0.14,-0.15,-0.15
445.96,0.37,0.52,0.36,0.51,-0.51,-0.57,-0.26,-0.15,-0.15,-0.16
450.42,0.33,0.48,0.33,0.49,-0.49,-0.56,-0.24,-0.16,-0.15,-0.16
454.93,0.31,0.46,0.30,0.46,-0.46,-0.55,-0.22,-0.15,-0.16,-0.16
459.48,0.27,0.43,0.27,0.43,-0.43,-0.54,-0.20,-0.16,-0.16,-0.17
