frequency,raw,smoothed,error,error_smoothed,equalization,parametric_eq,fixed_band_eq,equalized_raw,equalized_smoothed,target
20.00,3.94,3.94,-1.11,-1.11,1.11,0.88,0.60,5.05,5.05,5.05
20.20,3.91,3.91,-1.17,-1.17,1.18,0.92,0.61,5.09,5.09,5.08
20.40,3.88,3.88,-1.23,-1.23,1.24,0.96,0.63,5.11,5.11,5.11
20.61,3.85,3.85,-1.28,-1.29,1.29,1.00,0.65,5.14,5.14,5.13
20.81,3.82,3.82,-1.34,-1.34,1.34,1.03,0.67,5.16,5.16,5.16
21.02,3.80,3.80,-1.39,-1.39,1.38,1.08,0.69,5.18,5.18,5.19
21.23,3.77,3.77,-1.43,-1.43,1.42,1.12,0.72,5.19,5.20,5.20
21.44,3.75,3.75,-1.46,-1.46,1.46,1.16,0.74,5.21,5.21,5.21
21.66,3.73,3.73,-1.49,-1.49,1.49,1.21,0.76,5.22,5.22,5.22
21.87,3.71,3.71,-1.51,-1.51,1.51,1.26,0.78,5.22,5.22,5.22
22.09,3.69,3.69,-1.54,-1.53,1.53,1.30,0.81,5.22,5.23,5.23
22.31,3.68,3.68,-1.55,-1.55,1.55,1.35,0.83,5.23,5.23,5.23
22.54,3.67,3.67,-1.56,-1.56,1.56,1.40,0.86,5.23,5.23,5.23
22.76,3.65,3.65,-1.58,-1.57,1.57,1.45,0.89,5.22,5.22,5.23
22.99,3.64,3.64,-1.58,-1.58,1.58,1.50,0.91,5.22,5.22,5.22
23.22,3.63,3.63,-1.59,-1.58,1.59,1.55,0.94,5.22,5.22,5.22
23.45,3.63,3.63,-1.58,-1.59,1.59,1.60,0.97,5.22,5.22,5.21
23.69,3.62,3.62,-1.59,-1.60,1.60,1.65,1.00,5.22,5.22,5.21
23.92,3.61,3.61,-1.60,-1.60,1.60,1.70,1.02,5.21,5.22,5.21
24.16,3.61,3.61,-1.61,-1.61,1.60,1.74,1.05,5.21,5.21,5.22
24.40,3.61,3.61,-1.61,-1.61,1.60,1.78,1.08,5.21,5.21,5.22
24.65,3.61,3.61,-1.60,-1.60,1.60,1.82,1.11,5.21,5.21,5.21
24.89,3.62,3.62,-1.59,-1.59,1.60,1.85,1.14,5.22,5.21,5.21
25.14,3.62,3.62,-1.59,-1.59,1.59,1.88,1.17,5.21,5.21,5.21
25.39,3.62,3.62,-1.59,-1.58,1.58,1.90,1.20,5.20,5.21,5.21
25.65,3.63,3.63,-1.58,-1.58,1.58,1.91,1.23,5.21,5.20,5.21
25.91,3.63,3.63,-1.57,-1.57,1.57,1.93,1.26,5.20,5.20,5.20
26.16,3.64,3.64,-1.55,-1.56,1.56,1.93,1.29,5.20,5.20,5.19
26.43,3.64,3.64,-1.55,-1.55,1.56,1.93,1.32,5.20,5.20,5.19
26.69,3.64,3.64,-1.55,-1.55,1.55,1.92,1.35,5.19,5.19,5.19
26.96,3.65,3.65,-1.54,-1.55,1.54,1.91,1.38,5.19,5.19,5.19
27.23,3.65,3.65,-1.54,-1.54,1.54,1.88,1.41,5.19,5.19,5.19
27.50,3.65,3.65,-1.54,-1.53,1.53,1.86,1.43,5.18,5.18,5.19
27.77,3.65,3.65,-1.53,-1.53,1.52,1.83,1.46,5.17,5.18,5.18
28.05,3.66,3.66,-1.52,-1.52,1.52,1.79,1.48,5.18,5.17,5.18
28.33,3.66,3.66,-1.50,-1.51,1.51,1.75,1.50,5.17,5.17,5.16
28.62,3.66,3.66,-1.50,-1.50,1.50,1.71,1.52,5.16,5.17,5.16
28.90,3.67,3.67,-1.49,-1.49,1.49,1.66,1.54,5.16,5.16,5.16
29.19,3.67,3.67,-1.48,-1.48,1.48,1.61,1.56,5.15,5.15,5.15
29.48,3.68,3.68,-1.48,-1.47,1.47,1.56,1.57,5.15,5.15,5.16
29.78,3.68,3.68,-1.47,-1.46,1.46,1.51,1.58,5.14,5.14,5.15
30.08,3.69,3.69,-1.45,-1.45,1.45,1.46,1.59,5.14,5.14,5.14
30.38,3.70,3.70,-1.43,-1.43,1.44,1.41,1.59,5.14,5.13,5.13
30.68,3.71,3.71,-1.42,-1.42,1.42,1.36,1.60,5.13,5.13,5.13
30.99,3.72,3.72,-1.40,-1.40,1.40,1.31,1.60,5.12,5.12,5.12
31.30,3.73,3.73,-1.39,-1.39,1.38,1.25,1.59,5.11,5.11,5.12
31.61,3.74,3.74,-1.37,-1.37,1.36,1.21,1.59,5.10,5.11,5.11
31.93,3.76,3.76,-1.34,-1.34,1.34,1.16,1.58,5.10,5.10,5.10
32.24,3.77,3.77,-1.32,-1.32,1.32,1.11,1.57,5.09,5.09,5.09
32.57,3.79,3.79,-1.30,-1.30,1.30,1.06,1.55,5.09,5.09,5.09
32.89,3.80,3.80,-1.28,-1.28,1.28,1.02,1.54,5.08,5.08,5.08
33.22,3.82,3.82,-1.25,-1.25,1.25,0.98,1.52,5.07,5.07,5.07
33.55,3.84,3.84,-1.23,-1.23,1.23,0.94,1.50,5.07,5.06,5.07
33.89,3.86,3.86,-1.20,-1.20,1.20,0.90,1.47,5.06,5.06,5.06
34.23,3.88,3.88,-1.17,-1.17,1.17,0.86,1.44,5.05,5.05,5.05
34.57,3.90,3.90,-1.14,-1.14,1.14,0.82,1.42,5.04,5.04,5.04
34.92,3.92,3.92,-1.11,-1.11,1.11,0.79,1.39,5.03,5.03,5.03
35.27,3.94,3.94,-1.08,-1.08,1.08,0.75,1.35,5.01,5.02,5.02
35.62,3.97,3.97,-1.04,-1.04,1.04,0.72,1.32,5.01,5.01,5.01
35.97,3.99,3.99,-1.00,-1.01,1.01,0.69,1.28,5.00,5.00,5.00
36.33,4.02,4.02,-0.97,-0.97,0.97,0.66,1.25,4.99,4.99,4.99
36.70,4.04,4.04,-0.94,-0.94,0.94,0.63,1.21,4.98,4.98,4.98
37.06,4.06,4.06,-0.90,-0.90,0.90,0.61,1.17,4.96,4.97,4.96
37.43,4.09,4.09,-0.87,-0.87,0.86,0.58,1.13,4.96,4.95,4.96
37.81,4.12,4.12,-0.82,-0.83,0.83,0.56,1.09,4.95,4.94,4.94
38.19,4.14,4.14,-0.79,-0.79,0.79,0.53,1.06,4.93,4.93,4.93
38.57,4.17,4.17,-0.76,-0.75,0.75,0.51,1.02,4.92,4.92,4.93
38.95,4.19,4.19,-0.72,-0.72,0.72,0.49,0.97,4.91,4.91,4.91
39.34,4.22,4.22,-0.68,-0.68,0.68,0.47,0.93,4.90,4.90,4.90
39.74,4.24,4.24,-0.64,-0.64,0.64,0.45,0.89,4.88,4.88,4.88
40.14,4.26,4.26,-0.62,-0.61,0.61,0.43,0.85,4.87,4.87,4.88
40.54,4.29,4.29,-0.57,-0.58,0.58,0.41,0.81,4.87,4.86,4.86
40.94,4.31,4.31,-0.54,-0.54,0.54,0.39,0.77,4.85,4.85,4.85
41.35,4.33,4.33,-0.51,-0.51,0.51,0.37,0.73,4.84,4.84,4.84
41.76,4.35,4.35,-0.48,-0.48,0.48,0.36,0.69,4.83,4.83,4.83
42.18,4.37,4.37,-0.45,-0.45,0.45,0.34,0.65,4.82,4.82,4.82
42.60,4.39,4.39,-0.42,-0.42,0.42,0.33,0.62,4.81,4.81,4.81
43.03,4.41,4.41,-0.39,-0.39,0.38,0.31,0.58,4.79,4.79,4.80
43.46,4.43,4.43,-0.35,-0.35,0.35,0.30,0.54,4.78,4.78,4.78
43.90,4.44,4.44,-0.32,-0.32,0.32,0.28,0.50,4.76,4.76,4.76
44.33,4.46,4.46,-0.28,-0.28,0.28,0.27,0.46,4.74,4.74,4.74
44.78,4.47,4.47,-0.25,-0.25,0.25,0.26,0.43,4.72,4.72,4.72
45.23,4.49,4.49,-0.21,-0.21,0.22,0.24,0.39,4.71,4.71,4.70
45.68,4.50,4.50,-0.18,-0.18,0.19,0.23,0.35,4.69,4.69,4.68
46.13,4.51,4.51,-0.15,-0.16,0.16,0.22,0.32,4.67,4.67,4.66
46.60,4.52,4.52,-0.14,-0.13,0.13,0.21,0.28,4.65,4.65,4.66
47.06,4.53,4.53,-0.11,-0.11,0.10,0.20,0.25,4.63,4.63,4.64
47.53,4.54,4.54,-0.08,-0.08,0.08,0.19,0.21,4.62,4.61,4.62
48.01,4.54,4.54,-0.07,-0.06,0.05,0.18,0.18,4.59,4.59,4.61
48.49,4.55,4.55,-0.03,-0.02,0.02,0.16,0.14,4.57,4.57,4.58
48.97,4.56,4.56,0.02,0.01,-0.01,0.15,0.11,4.55,4.55,4.54
49.46,4.56,4.56,0.05,0.05,-0.04,0.14,0.08,4.52,4.52,4.51
49.96,4.56,4.56,0.08,0.07,-0.07,0.13,0.04,4.49,4.49,4.48
50.46,4.56,4.56,0.09,0.10,-0.10,0.13,0.01,4.46,4.46,4.47
50.96,4.56,4.56,0.11,0.12,-0.12,0.12,-0.02,4.44,4.44,4.45
51.47,4.56,4.56,0.15,0.14,-0.14,0.11,-0.05,4.42,4.42,4.41
51.99,4.56,4.56,0.17,0.17,-0.17,0.10,-0.08,4.39,4.40,4.39
52.51,4.56,4.56,0.18,0.19,-0.18,0.09,-0.11,4.38,4.37,4.38
53.03,4.55,4.55,0.20,0.20,-0.20,0.08,-0.14,4.35,4.35,4.35
53.56,4.54,4.54,0.21,0.22,-0.22,0.07,-0.17,4.32,4.32,4.33
54.10,4.54,4.54,0.24,0.24,-0.24,0.06,-0.20,4.30,4.30,4.30
54.64,4.53,4.53,0.26,0.26,-0.25,0.05,-0.23,4.28,4.28,4.27
55.18,4.52,4.52,0.27,0.27,-0.27,0.05,-0.25,4.25,4.25,4.25
55.74,4.50,4.50,0.28,0.28,-0.28,0.04,-0.28,4.22,4.22,4.22
56.29,4.49,4.49,0.29,0.29,-0.29,0.03,-0.30,4.20,4.20,4.20
56.86,4.48,4.48,0.30,0.30,-0.30,0.02,-0.33,4.18,4.17,4.18
57.42,4.46,4.46,0.31,0.31,-0.31,0.01,-0.35,4.15,4.15,4.15
58.00,4.44,4.44,0.31,0.32,-0.31,0.01,-0.37,4.13,4.13,4.13
58.58,4.43,4.43,0.32,0.32,-0.32,-0.00,-0.39,4.11,4.11,4.11
59.16,4.41,4.41,0.32,0.32,-0.32,-0.01,-0.41,4.09,4.09,4.09
59.76,4.39,4.39,0.32,0.32,-0.33,-0.02,-0.43,4.06,4.06,4.07
60.35,4.36,4.36,0.33,0.33,-0.33,-0.03,-0.44,4.03,4.03,4.03
60.96,4.34,4.34,0.33,0.33,-0.34,-0.03,-0.46,4.00,4.00,4.01
61.57,4.32,4.32,0.35,0.34,-0.35,-0.04,-0.47,3.97,3.97,3.97
62.18,4.29,4.29,0.35,0.36,-0.35,-0.05,-0.49,3.94,3.94,3.93
62.80,4.27,4.27,0.36,0.36,-0.35,-0.06,-0.50,3.92,3.91,3.91
63.43,4.24,4.24,0.36,0.36,-0.36,-0.06,-0.51,3.88,3.88,3.88
64.07,4.21,4.21,0.36,0.36,-0.36,-0.07,-0.52,3.85,3.85,3.85
64.71,4.18,4.18,0.36,0.36,-0.36,-0.08,-0.52,3.82,3.82,3.82
65.35,4.15,4.15,0.35,0.35,-0.36,-0.09,-0.53,3.79,3.79,3.80
66.01,4.12,4.12,0.35,0.35,-0.36,-0.10,-0.53,3.76,3.76,3.77
66.67,4.09,4.09,0.35,0.35,-0.35,-0.10,-0.54,3.74,3.74,3.74
67.33,4.06,4.06,0.35,0.35,-0.35,-0.11,-0.54,3.71,3.71,3.71
68.01,4.03,4.03,0.35,0.35,-0.35,-0.12,-0.54,3.68,3.68,3.68
68.69,4.00,4.00,0.35,0.35,-0.35,-0.13,-0.54,3.65,3.65,3.65
69.37,3.96,3.96,0.34,0.35,-0.35,-0.13,-0.54,3.61,3.62,3.61
70.07,3.93,3.93,0.35,0.34,-0.34,-0.14,-0.54,3.59,3.58,3.58
70.77,3.89,3.89,0.33,0.34,-0.34,-0.15,-0.54,3.55,3.55,3.56
71.48,3.86,3.86,0.34,0.33,-0.34,-0.16,-0.54,3.52,3.52,3.52
72.19,3.82,3.82,0.33,0.33,-0.34,-0.17,-0.54,3.48,3.49,3.49
72.91,3.79,3.79,0.34,0.33,-0.33,-0.17,-0.54,3.46,3.46,3.45
73.64,3.75,3.75,0.33,0.33,-0.33,-0.18,-0.53,3.42,3.42,3.42
74.38,3.71,3.71,0.32,0.33,-0.33,-0.19,-0.53,3.38,3.39,3.39
75.12,3.67,3.67,0.32,0.32,-0.32,-0.20,-0.53,3.35,3.35,3.35
75.87,3.64,3.64,0.32,0.31,-0.32,-0.21,-0.52,3.32,3.32,3.32
76.63,3.60,3.60,0.31,0.31,-0.31,-0.22,-0.52,3.29,3.29,3.29
77.40,3.56,3.56,0.30,0.30,-0.30,-0.22,-0.52,3.26,3.26,3.26
78.17,3.52,3.52,0.30,0.30,-0.30,-0.23,-0.51,3.22,3.22,3.22
78.95,3.48,3.48,0.29,0.29,-0.29,-0.24,-0.51,3.19,3.19,3.19
79.74,3.44,3.44,0.28,0.28,-0.28,-0.25,-0.51,3.16,3.16,3.16
80.54,3.40,3.40,0.27,0.28,-0.28,-0.26,-0.50,3.12,3.12,3.13
81.35,3.37,3.37,0.28,0.27,-0.27,-0.27,-0.50,3.10,3.09,3.09
82.16,3.33,3.33,0.27,0.27,-0.27,-0.28,-0.50,3.06,3.06,3.06
82.98,3.29,3.29,0.26,0.27,-0.26,-0.28,-0.50,3.02,3.03,3.03
83.81,3.25,3.25,0.27,0.26,-0.26,-0.29,-0.50,2.99,2.99,2.98
84.65,3.21,3.21,0.26,0.26,-0.26,-0.30,-0.49,2.95,2.95,2.95
85.50,3.17,3.17,0.25,0.26,-0.26,-0.31,-0.49,2.91,2.91,2.92
86.35,3.13,3.13,0.25,0.25,-0.25,-0.32,-0.49,2.87,2.87,2.88
87.22,3.09,3.09,0.25,0.25,-0.25,-0.33,-0.49,2.84,2.84,2.84
88.09,3.05,3.05,0.25,0.25,-0.25,-0.34,-0.49,2.80,2.80,2.80
88.97,3.02,3.02,0.25,0.26,-0.25,-0.35,-0.49,2.77,2.76,2.77
89.86,2.98,2.98,0.26,0.26,-0.26,-0.36,-0.49,2.72,2.72,2.72
90.76,2.94,2.94,0.27,0.26,-0.26,-0.37,-0.49,2.68,2.68,2.67
91.66,2.90,2.90,0.26,0.27,-0.26,-0.38,-0.50,2.64,2.64,2.64
92.58,2.86,2.86,0.27,0.27,-0.27,-0.39,-0.50,2.59,2.59,2.59
93.51,2.82,2.82,0.27,0.27,-0.27,-0.40,-0.50,2.55,2.55,2.55
94.44,2.78,2.78,0.27,0.28,-0.28,-0.40,-0.50,2.50,2.50,2.51
95.39,2.75,2.75,0.29,0.28,-0.29,-0.41,-0.51,2.47,2.46,2.47
96.34,2.71,2.71,0.30,0.30,-0.29,-0.42,-0.51,2.42,2.42,2.41
97.30,2.67,2.67,0.30,0.31,-0.30,-0.43,-0.51,2.37,2.37,2.37
98.28,2.63,2.63,0.31,0.31,-0.31,-0.44,-0.52,2.32,2.32,2.32
99.26,2.59,2.59,0.32,0.32,-0.32,-0.45,-0.52,2.27,2.27,2.27
100.25,2.55,2.55,0.32,0.32,-0.33,-0.46,-0.53,2.22,2.22,2.23
101.25,2.52,2.52,0.34,0.34,-0.34,-0.47,-0.53,2.18,2.18,2.18
102.27,2.48,2.48,0.34,0.35,-0.35,-0.48,-0.54,2.13,2.14,2.14
103.29,2.45,2.45,0.37,0.36,-0.36,-0.49,-0.54,2.09,2.09,2.08
104.32,2.41,2.41,0.37,0.37,-0.37,-0.50,-0.55,2.04,2.04,2.04
105.37,2.37,2.37,0.37,0.38,-0.38,-0.51,-0.56,1.99,2.00,2.00
106.42,2.34,2.34,0.39,0.39,-0.39,-0.53,-0.56,1.95,1.95,1.95
107.48,2.30,2.30,0.40,0.40,-0.40,-0.54,-0.57,1.90,1.90,1.90
108.56,2.27,2.27,0.42,0.42,-0.41,-0.55,-0.57,1.86,1.85,1.85
109.64,2.23,2.23,0.43,0.43,-0.43,-0.56,-0.58,1.80,1.81,1.80
110.74,2.20,2.20,0.44,0.44,-0.44,-0.57,-0.58,1.76,1.75,1.76
111.85,2.16,2.16,0.45,0.45,-0.46,-0.58,-0.59,1.70,1.70,1.71
112.97,2.12,2.12,0.47,0.47,-0.47,-0.59,-0.60,1.65,1.65,1.65
114.10,2.09,2.09,0.49,0.49,-0.49,-0.60,-0.60,1.60,1.60,1.60
115.24,2.05,2.05,0.50,0.51,-0.51,-0.61,-0.61,1.54,1.54,1.55
116.39,2.01,2.01,0.52,0.52,-0.52,-0.62,-0.61,1.49,1.49,1.49
117.55,1.98,1.98,0.54,0.54,-0.54,-0.63,-0.62,1.44,1.44,1.44
118.73,1.94,1.94,0.56,0.55,-0.55,-0.64,-0.62,1.39,1.39,1.38
119.92,1.90,1.90,0.56,0.57,-0.57,-0.65,-0.62,1.33,1.34,1.34
121.12,1.87,1.87,0.58,0.58,-0.58,-0.66,-0.63,1.29,1.29,1.29
122.33,1.83,1.83,0.60,0.59,-0.59,-0.67,-0.63,1.24,1.24,1.23
123.55,1.79,1.79,0.60,0.60,-0.60,-0.68,-0.63,1.19,1.19,1.19
124.79,1.75,1.75,0.61,0.61,-0.62,-0.69,-0.63,1.13,1.14,1.14
126.03,1.72,1.72,0.63,0.63,-0.63,-0.70,-0.63,1.09,1.09,1.09
127.29,1.68,1.68,0.64,0.64,-0.64,-0.71,-0.63,1.04,1.04,1.04
128.57,1.64,1.64,0.66,0.66,-0.65,-0.72,-0.63,0.99,0.99,0.98
129.85,1.60,1.60,0.67,0.67,-0.66,-0.73,-0.63,0.94,0.94,0.93
131.15,1.56,1.56,0.68,0.67,-0.67,-0.74,-0.63,0.89,0.89,0.88
132.46,1.52,1.52,0.68,0.68,-0.68,-0.75,-0.63,0.84,0.84,0.84
133.79,1.48,1.48,0.68,0.69,-0.69,-0.76,-0.63,0.79,0.79,0.80
135.12,1.44,1.44,0.69,0.69,-0.69,-0.77,-0.63,0.75,0.75,0.75
136.48,1.40,1.40,0.69,0.69,-0.70,-0.77,-0.62,0.70,0.70,0.71
137.84,1.36,1.36,0.69,0.70,-0.70,-0.78,-0.62,0.66,0.66,0.67
139.22,1.32,1.32,0.71,0.71,-0.70,-0.79,-0.62,0.62,0.62,0.61
140.61,1.29,1.29,0.72,0.71,-0.71,-0.80,-0.62,0.58,0.58,0.57
142.02,1.25,1.25,0.70,0.71,-0.71,-0.81,-0.61,0.54,0.54,0.55
143.44,1.21,1.21,0.70,0.71,-0.71,-0.82,-0.61,0.50,0.50,0.51
144.87,1.18,1.18,0.71,0.71,-0.71,-0.82,-0.61,0.47,0.47,0.47
146.32,1.15,1.15,0.72,0.72,-0.72,-0.83,-0.60,0.43,0.43,0.43
147.78,1.11,1.11,0.71,0.72,-0.72,-0.84,-0.60,0.39,0.39,0.40
149.26,1.08,1.08,0.72,0.72,-0.73,-0.85,-0.60,0.35,0.35,0.36
150.75,1.05,1.05,0.74,0.73,-0.74,-0.85,-0.59,0.31,0.31,0.31
152.26,1.02,1.02,0.74,0.74,-0.74,-0.86,-0.59,0.28,0.28,0.28
153.78,0.99,0.99,0.75,0.75,-0.75,-0.87,-0.59,0.24,0.24,0.24
155.32,0.96,0.96,0.76,0.76,-0.76,-0.87,-0.58,0.20,0.20,0.20
156.88,0.93,0.93,0.77,0.77,-0.77,-0.88,-0.58,0.16,0.16,0.16
158.44,0.90,0.90,0.78,0.78,-0.77,-0.88,-0.58,0.13,0.12,0.12
160.03,0.86,0.86,0.78,0.78,-0.78,-0.89,-0.58,0.08,0.08,0.08
161.63,0.82,0.82,0.78,0.78,-0.78,-0.89,-0.58,0.04,0.04,0.04
163.24,0.78,0.78,0.79,0.78,-0.78,-0.90,-0.58,-0.00,0.00,-0.01
164.88,0.74,0.74,0.78,0.78,-0.78,-0.90,-0.58,-0.04,-0.04,-0.04
166.53,0.71,0.71,0.78,0.78,-0.78,-0.90,-0.58,-0.07,-0.08,-0.07
168.19,0.67,0.67,0.78,0.79,-0.79,-0.91,-0.58,-0.12,-0.12,-0.11
169.87,0.65,0.65,0.80,0.80,-0.80,-0.91,-0.58,-0.15,-0.15,-0.15
171.57,0.62,0.62,0.81,0.81,-0.82,-0.91,-0.58,-0.20,-0.19,-0.19
173.29,0.61,0.61,0.83,0.83,-0.84,-0.91,-0.59,-0.23,-0.23,-0.22
175.02,0.59,0.59,0.85,0.86,-0.86,-0.91,-0.59,-0.27,-0.27,-0.26
176.77,0.59,0.59,0.89,0.89,-0.89,-0.91,-0.59,-0.30,-0.31,-0.30
178.54,0.58,0.58,0.93,0.93,-0.93,-0.91,-0.60,-0.35,-0.34,-0.35
180.32,0.58,0.58,0.96,0.96,-0.96,-0.91,-0.60,-0.38,-0.38,-0.38
182.13,0.58,0.58,0.99,0.99,-0.99,-0.91,-0.60,-0.41,-0.41,-0.41
183.95,0.57,0.57,1.03,1.02,-1.02,-0.91,-0.61,-0.45,-0.45,-0.46
185.79,0.56,0.56,1.05,1.05,-1.05,-0.91,-0.62,-0.49,-0.48,-0.49
187.65,0.55,0.55,1.08,1.07,-1.07,-0.90,-0.62,-0.52,-0.52,-0.53
189.52,0.53,0.53,1.09,1.09,-1.09,-0.90,-0.63,-0.56,-0.56,-0.56
191.42,0.51,0.51,1.10,1.10,-1.10,-0.90,-0.63,-0.59,-0.59,-0.59
193.33,0.49,0.49,1.11,1.11,-1.11,-0.89,-0.64,-0.62,-0.62,-0.62
195.27,0.47,0.47,1.11,1.12,-1.12,-0.89,-0.65,-0.65,-0.65,-0.64
197.22,0.45,0.45,1.12,1.13,-1.12,-0.88,-0.66,-0.67,-0.67,-0.67
199.19,0.43,0.43,1.14,1.13,-1.13,-0.88,-0.67,-0.70,-0.70,-0.71
201.18,0.40,0.40,1.13,1.13,-1.13,-0.87,-0.67,-0.73,-0.73,-0.73
203.19,0.38,0.38,1.12,1.13,-1.13,-0.86,-0.68,-0.75,-0.75,-0.74
205.23,0.36,0.36,1.13,1.12,-1.13,-0.85,-0.69,-0.77,-0.77,-0.77
207.28,0.34,0.34,1.11,1.12,-1.12,-0.84,-0.70,-0.78,-0.78,-0.77
209.35,0.32,0.32,1.12,1.12,-1.11,-0.84,-0.71,-0.79,-0.80,-0.80
211.44,0.29,0.29,1.11,1.11,-1.10,-0.83,-0.71,-0.81,-0.81,-0.82
213.56,0.27,0.27,1.10,1.09,-1.09,-0.81,-0.72,-0.82,-0.82,-0.83
215.69,0.24,0.24,1.07,1.08,-1.08,-0.80,-0.73,-0.84,-0.83,-0.83
217.85,0.22,0.22,1.06,1.06,-1.06,-0.79,-0.74,-0.84,-0.84,-0.84
220.03,0.19,0.19,1.04,1.04,-1.04,-0.78,-0.74,-0.85,-0.85,-0.85
222.23,0.16,0.16,1.03,1.02,-1.01,-0.77,-0.75,-0.85,-0.85,-0.87
224.45,0.13,0.13,0.99,0.99,-0.99,-0.75,-0.75,-0.86,-0.86,-0.86
226.70,0.10,0.10,0.96,0.96,-0.96,-0.74,-0.76,-0.86,-0.86,-0.86
228.96,0.08,0.08,0.94,0.93,-0.94,-0.72,-0.76,-0.86,-0.86,-0.86
231.25,0.05,0.05,0.90,0.90,-0.91,-0.71,-0.76,-0.86,-0.86,-0.85
233.57,0.02,0.02,0.87,0.87,-0.88,-0.69,-0.76,-0.86,-0.85,-0.85
235.90,-0.00,-0.00,0.85,0.85,-0.85,-0.67,-0.76,-0.85,-0.85,-0.85
238.26,-0.02,-0.02,0.83,0.82,-0.82,-0.66,-0.76,-0.84,-0.84,-0.85
240.64,-0.04,-0.04,0.80,0.80,-0.79,-0.64,-0.76,-0.83,-0.83,-0.84
243.05,-0.06,-0.06,0.77,0.77,-0.77,-0.62,-0.75,-0.83,-0.83,-0.83
245.48,-0.08,-0.08,0.73,0.73,-0.74,-0.60,-0.75,-0.82,-0.82,-0.81
247.93,-0.10,-0.10,0.70,0.71,-0.71,-0.58,-0.74,-0.81,-0.81,-0.80
250.41,-0.12,-0.12,0.68,0.68,-0.68,-0.56,-0.73,-0.80,-0.79,-0.80
252.92,-0.13,-0.13,0.65,0.64,-0.64,-0.54,-0.72,-0.77,-0.78,-0.78
255.45,-0.15,-0.15,0.61,0.61,-0.61,-0.52,-0.71,-0.76,-0.76,-0.76
258.00,-0.17,-0.17,0.57,0.57,-0.58,-0.50,-0.69,-0.75,-0.74,-0.74
260.58,-0.18,-0.18,0.55,0.54,-0.54,-0.47,-0.68,-0.72,-0.73,-0.73
263.19,-0.20,-0.20,0.51,0.51,-0.51,-0.45,-0.66,-0.71,-0.71,-0.71
265.82,-0.21,-0.21,0.48,0.48,-0.47,-0.43,-0.64,-0.68,-0.69,-0.69
268.48,-0.23,-0.23,0.44,0.44,-0.44,-0.40,-0.62,-0.67,-0.67,-0.67
271.16,-0.24,-0.24,0.40,0.41,-0.41,-0.38,-0.60,-0.65,-0.65,-0.64
273.87,-0.26,-0.26,0.37,0.37,-0.37,-0.36,-0.57,-0.63,-0.63,-0.63
276.61,-0.27,-0.27,0.34,0.34,-0.34,-0.33,-0.55,-0.61,-0.61,-0.61
279.38,-0.29,-0.29,0.30,0.30,-0.30,-0.31,-0.53,-0.59,-0.59,-0.59
282.17,-0.30,-0.30,0.28,0.27,-0.27,-0.28,-0.50,-0.57,-0.57,-0.58
284.99,-0.32,-0.32,0.23,0.24,-0.23,-0.25,-0.47,-0.55,-0.55,-0.55
287.84,-0.33,-0.33,0.21,0.20,-0.20,-0.23,-0.44,-0.53,-0.53,-0.54
290.72,-0.35,-0.35,0.16,0.16,-0.16,-0.20,-0.41,-0.51,-0.51,-0.51
293.63,-0.37,-0.37,0.12,0.13,-0.13,-0.17,-0.38,-0.50,-0.49,-0.49
296.57,-0.38,-0.38,0.09,0.09,-0.09,-0.14,-0.35,-0.47,-0.47,-0.47
299.53,-0.40,-0.40,0.05,0.05,-0.05,-0.12,-0.32,-0.45,-0.45,-0.45
302.53,-0.42,-0.42,0.02,0.01,-0.01,-0.09,-0.29,-0.43,-0.43,-0.44
305.55,-0.44,-0.44,-0.04,-0.03,0.03,-0.06,-0.26,-0.41,-0.40,-0.40
308.61,-0.45,-0.45,-0.07,-0.07,0.07,-0.03,-0.22,-0.38,-0.38,-0.38
311.69,-0.47,-0.47,-0.11,-0.12,0.12,-0.00,-0.19,-0.35,-0.35,-0.36
314.81,-0.49,-0.49,-0.17,-0.16,0.16,0.03,-0.16,-0.33,-0.33,-0.32
317.96,-0.51,-0.51,-0.21,-0.20,0.20,0.06,-0.12,-0.31,-0.31,-0.30
321.14,-0.53,-0.53,-0.24,-0.25,0.24,0.09,-0.09,-0.29,-0.29,-0.29
324.35,-0.55,-0.55,-0.28,-0.29,0.29,0.11,-0.06,-0.26,-0.27,-0.27
327.59,-0.58,-0.58,-0.34,-0.33,0.33,0.14,-0.02,-0.25,-0.25,-0.24
330.87,-0.60,-0.60,-0.37,-0.37,0.37,0.17,0.01,-0.23,-0.23,-0.23
334.18,-0.62,-0.62,-0.41,-0.42,0.42,0.20,0.05,-0.20,-0.21,-0.21
337.52,-0.65,-0.65,-0.46,-0.46,0.46,0.23,0.09,-0.19,-0.18,-0.19
340.90,-0.67,-0.67,-0.51,-0.50,0.51,0.26,0.12,-0.16,-0.16,-0.16
344.30,-0.70,-0.70,-0.55,-0.55,0.55,0.29,0.16,-0.15,-0.15,-0.15
347.75,-0.72,-0.72,-0.59,-0.60,0.59,0.32,0.19,-0.13,-0.13,-0.13
351.23,-0.75,-0.75,-0.64,-0.64,0.64,0.35,0.23,-0.11,-0.11,-0.11
354.74,-0.77,-0.77,-0.68,-0.68,0.67,0.38,0.27,-0.10,-0.10,-0.09
358.28,-0.79,-0.79,-0.71,-0.71,0.71,0.41,0.30,-0.08,-0.08,-0.08
361.87,-0.80,-0.80,-0.74,-0.74,0.74,0.44,0.34,-0.06,-0.06,-0.06
365.49,-0.82,-0.82,-0.77,-0.77,0.77,0.47,0.38,-0.05,-0.05,-0.05
369.14,-0.83,-0.83,-0.79,-0.79,0.79,0.50,0.41,-0.04,-0.03,-0.04
372.83,-0.84,-0.84,-0.82,-0.81,0.82,0.53,0.45,-0.02,-0.02,-0.02
376.56,-0.84,-0.84,-0.83,-0.84,0.84,0.56,0.49,-0.00,-0.01,-0.01
380.33,-0.85,-0.85,-0.86,-0.86,0.85,0.59,0.53,0.00,0.01,0.01
384.13,-0.85,-0.85,-0.87,-0.87,0.87,0.62,0.57,0.02,0.02,0.02
387.97,-0.85,-0.85,-0.88,-0.88,0.88,0.65,0.60,0.03,0.03,0.03
391.85,-0.85,-0.85,-0.89,-0.89,0.89,0.67,0.64,0.04,0.04,0.04
395.77,-0.85,-0.85,-0.91,-0.90,0.90,0.70,0.68,0.05,0.06,0.06
399.73,-0.85,-0.85,-0.92,-0.91,0.91,0.73,0.72,0.06,0.07,0.07
403.72,-0.84,-0.84,-0.91,-0.92,0.92,0.76,0.75,0.08,0.08,0.07
407.76,-0.84,-0.84,-0.92,-0.92,0.92,0.78,0.79,0.08,0.09,0.08
411.84,-0.83,-0.83,-0.93,-0.93,0.93,0.81,0.83,0.10,0.10,0.10
415.96,-0.82,-0.82,-0.93,-0.93,0.93,0.84,0.87,0.11,0.11,0.11
420.12,-0.81,-0.81,-0.93,-0.93,0.93,0.86,0.90,0.12,0.12,0.12
424.32,-0.80,-0.80,-0.93,-0.93,0.93,0.89,0.94,0.13,0.13,0.13
428.56,-0.79,-0.79,-0.93,-0.93,0.92,0.91,0.97,0.13,0.13,0.14
432.85,-0.78,-0.78,-0.93,-0.92,0.92,0.94,1.01,0.14,0.14,0.15
437.18,-0.76,-0.76,-0.92,-0.92,0.92,0.96,1.04,0.16,0.16,0.16
441.55,-0.74,-0.74,-0.91,-0.91,0.92,0.98,1.08,0.18,0.18,0.17
445.96,-0.72,-0.73,-0.90,-0.91,0.92,1.01,1.11,0.20,0.19,0.18
450.42,-0.72,-0.72,-0.91,-0.92,0.92,1.03,1.14,0.20,0.20,0.19
454.93,-0.72,-0.72,-0.93,-0.93,0.93,1.05,1.17,0.21,0.21,0.21
459.48,-0.72,-0.72,-0.94,-0.94,0.94,1.07,1.20,0.22,0.22,0.22
464.07,-0.72,-0.72,-0.96,-0.96,0.96,1.09,1.22,0.24,0.24,0.24
468.71,-0.72,-0.72,-0.98,-0.98,0.97,1.11,1.25,0.25,0.25,0.26
473.40,-0.72,-0.72,-0.99,-0.99,0.99,1.13,1.27,0.27,0.27,0.27
478.13,-0.72,-0.72,-1.01,-1.00,1.00,1.15,1.29,0.28,0.28,0.29
482.91,-0.71,-0.71,-1.01,-1.01,1.01,1.16,1.31,0.30,0.30,0.30
487.74,-0.71,-0.71,-1.03,-1.02,1.02,1.18,1.32,0.31,0.32,0.32
492.62,-0.70,-0.70,-1.04,-1.04,1.03,1.20,1.34,0.33,0.33,0.34
497.55,-0.70,-0.70,-1.05,-1.04,1.04,1.21,1.35,0.34,0.35,0.35
502.52,-0.69,-0.69,-1.05,-1.05,1.05,1.23,1.36,0.36,0.36,0.36
507.55,-0.68,-0.68,-1.05,-1.06,1.06,1.24,1.37,0.38,0.38,0.37
512.62,-0.68,-0.68,-1.07,-1.07,1.07,1.26,1.38,0.39,0.40,0.39
517.75,-0.67,-0.67,-1.08,-1.08,1.08,1.27,1.38,0.41,0.41,0.41
522.93,-0.66,-0.66,-1.09,-1.09,1.09,1.28,1.38,0.43,0.43,0.43
