frequency,raw,error,smoothed,error_smoothed,equalization,parametric_eq,equalized_raw,equalized_smoothed,target
20,3.52,1.78,3.54,1.79,-1.79,-1.14,1.73,1.74,1.74
21,3.59,1.85,3.57,1.82,-1.82,-1.37,1.77,1.74,1.74
22,3.58,1.84,3.59,1.85,-1.85,-1.58,1.74,1.74,1.74
23,3.58,1.85,3.60,1.86,-1.86,-1.74,1.73,1.74,1.74
24,3.58,1.85,3.59,1.86,-1.86,-1.80,1.73,1.74,1.74
25,3.58,1.85,3.58,1.85,-1.85,-1.75,1.74,1.73,1.73
26,3.58,1.85,3.56,1.83,-1.83,-1.63,1.75,1.73,1.73
27,3.51,1.79,3.53,1.80,-1.80,-1.47,1.72,1.73,1.73
28,3.43,1.71,3.48,1.76,-1.76,-1.29,1.68,1.72,1.72
29,3.43,1.72,3.42,1.70,-1.70,-1.13,1.73,1.72,1.72
30,3.40,1.69,3.35,1.64,-1.64,-0.99,1.76,1.71,1.71
31,3.29,1.59,3.27,1.57,-1.57,-0.86,1.73,1.71,1.71
32,3.17,1.47,3.18,1.48,-1.48,-0.76,1.69,1.70,1.70
33,3.06,1.37,3.08,1.39,-1.39,-0.67,1.68,1.70,1.70
34,2.97,1.29,2.98,1.29,-1.29,-0.60,1.69,1.69,1.69
35,2.88,1.20,2.86,1.18,-1.18,-0.53,1.70,1.68,1.68
36,2.73,1.06,2.75,1.08,-1.08,-0.48,1.66,1.67,1.67
37,2.59,0.93,2.63,0.97,-0.97,-0.43,1.63,1.66,1.66
38,2.50,0.85,2.52,0.86,-0.86,-0.39,1.64,1.65,1.65
39,2.41,0.77,2.40,0.75,-0.75,-0.35,1.66,1.64,1.64
40,2.29,0.66,2.28,0.64,-0.64,-0.31,1.65,1.63,1.63
41,2.14,0.52,2.16,0.53,-0.53,-0.28,1.61,1.62,1.62
42,2.03,0.42,2.03,0.42,-0.42,-0.25,1.61,1.61,1.61
43,1.93,0.34,1.91,0.31,-0.31,-0.22,1.62,1.60,1.60
44,1.79,0.21,1.78,0.20,-0.20,-0.18,1.60,1.58,1.58
45,1.65,0.08,1.65,0.08,-0.08,-0.15,1.57,1.57,1.57
46,1.50,-0.05,1.52,-0.03,0.03,-0.11,1.53,1.55,1.55
47,1.38,-0.15,1.40,-0.14,0.14,-0.07,1.52,1.54,1.54
48,1.25,-0.27,1.27,-0.25,0.25,-0.02,1.50,1.52,1.52
49,1.16,-0.34,1.15,-0.35,0.35,0.03,1.51,1.50,1.50
50,1.07,-0.41,1.04,-0.44,0.44,0.09,1.52,1.48,1.48
51,0.92,-0.54,0.93,-0.53,0.53,0.16,1.46,1.46,1.46
52,0.81,-0.63,0.83,-0.61,0.61,0.24,1.43,1.44,1.44
53,0.75,-0.67,0.73,-0.69,0.69,0.33,1.44,1.42,1.42
54,0.63,-0.76,0.65,-0.75,0.75,0.43,1.38,1.40,1.40
55,0.57,-0.80,0.58,-0.80,0.80,0.53,1.37,1.38,1.38
56,0.49,-0.86,0.51,-0.84,0.84,0.64,1.33,1.35,1.35
57,0.45,-0.87,0.46,-0.86,0.86,0.74,1.32,1.33,1.33
58,0.42,-0.88,0.42,-0.88,0.88,0.82,1.30,1.30,1.30
59,0.42,-0.85,0.40,-0.87,0.87,0.87,1.30,1.27,1.27
60,0.37,-0.87,0.39,-0.86,0.86,0.88,1.23,1.24,1.24
61,0.38,-0.83,0.39,-0.83,0.83,0.85,1.21,1.22,1.22
62,0.38,-0.80,0.40,-0.79,0.79,0.79,1.17,1.19,1.19
63,0.37,-0.78,0.42,-0.73,0.73,0.70,1.11,1.16,1.16
64,0.46,-0.66,0.46,-0.67,0.67,0.59,1.13,1.12,1.12
65,0.51,-0.58,0.49,-0.60,0.60,0.47,1.11,1.09,1.09
66,0.55,-0.50,0.53,-0.52,0.52,0.36,1.08,1.06,1.06
67,0.57,-0.45,0.58,-0.45,0.45,0.25,1.02,1.02,1.02
68,0.64,-0.35,0.62,-0.37,0.37,0.14,1.02,0.99,0.99
69,0.64,-0.31,0.66,-0.30,0.30,0.05,0.94,0.95,0.95
70,0.71,-0.20,0.69,-0.23,0.23,-0.04,0.94,0.92,0.92
71,0.71,-0.17,0.72,-0.16,0.16,-0.12,0.87,0.88,0.88
72,0.75,-0.09,0.75,-0.09,0.09,-0.20,0.85,0.84,0.84
73,0.77,-0.03,0.78,-0.03,0.03,-0.27,0.80,0.81,0.81
74,0.80,0.04,0.81,0.04,-0.04,-0.33,0.76,0.77,0.77
75,0.85,0.12,0.84,0.11,-0.11,-0.40,0.74,0.73,0.73
76,0.87,0.18,0.87,0.18,-0.18,-0.45,0.69,0.69,0.69
77,0.90,0.25,0.91,0.26,-0.26,-0.51,0.65,0.65,0.65
78,0.93,0.32,0.95,0.33,-0.33,-0.56,0.60,0.61,0.61
79,0.96,0.39,0.99,0.42,-0.42,-0.62,0.55,0.57,0.57
80,1.04,0.51,1.04,0.51,-0.51,-0.67,0.54,0.53,0.53
81,1.09,0.61,1.09,0.60,-0.60,-0.72,0.50,0.49,0.49
82,1.13,0.69,1.14,0.69,-0.69,-0.77,0.44,0.45,0.45
83,1.20,0.80,1.20,0.79,-0.79,-0.82,0.41,0.41,0.41
84,1.26,0.90,1.26,0.90,-0.90,-0.87,0.37,0.36,0.36
85,1.30,0.98,1.32,1.00,-1.00,-0.92,0.31,0.32,0.32
86,1.39,1.11,1.38,1.10,-1.10,-0.97,0.29,0.28,0.28
87,1.44,1.20,1.44,1.21,-1.21,-1.02,0.24,0.24,0.24
88,1.50,1.31,1.50,1.31,-1.31,-1.07,0.20,0.20,0.20
89,1.56,1.41,1.56,1.40,-1.40,-1.12,0.16,0.16,0.16
90,1.62,1.51,1.62,1.50,-1.50,-1.17,0.12,0.12,0.12
91,1.67,1.60,1.67,1.59,-1.59,-1.22,0.08,0.07,0.07
92,1.72,1.69,1.71,1.68,-1.68,-1.28,0.04,0.03,0.03
93,1.75,1.76,1.76,1.76,-1.76,-1.33,-0.01,-0.01,-0.01
94,1.79,1.84,1.80,1.85,-1.85,-1.39,-0.05,-0.05,-0.05
95,1.82,1.91,1.84,1.93,-1.93,-1.45,-0.10,-0.09,-0.09
96,1.89,2.02,1.88,2.00,-2.00,-1.50,-0.11,-0.13,-0.13
97,1.90,2.07,1.92,2.08,-2.08,-1.56,-0.18,-0.17,-0.17
98,1.96,2.17,1.96,2.16,-2.16,-1.62,-0.20,-0.21,-0.21
99,1.99,2.24,2.00,2.25,-2.25,-1.68,-0.25,-0.25,-0.25
100,2.01,2.30,2.04,2.33,-2.33,-1.75,-0.32,-0.29,-0.29
101,2.07,2.40,2.08,2.42,-2.42,-1.81,-0.34,-0.33,-0.32
102,2.09,2.46,2.12,2.50,-2.50,-1.87,-0.40,-0.38,-0.36
104,2.20,2.64,2.16,2.58,-2.58,-2.00,-0.37,-0.42,-0.44
105,2.20,2.68,2.19,2.65,-2.65,-2.07,-0.45,-0.46,-0.47
106,2.21,2.72,2.22,2.72,-2.72,-2.13,-0.51,-0.50,-0.51
107,2.24,2.79,2.24,2.78,-2.78,-2.20,-0.54,-0.54,-0.54
108,2.27,2.85,2.25,2.83,-2.83,-2.27,-0.56,-0.58,-0.58
109,2.26,2.88,2.26,2.88,-2.88,-2.34,-0.61,-0.61,-0.61
110,2.24,2.89,2.27,2.91,-2.91,-2.40,-0.67,-0.65,-0.65
111,2.24,2.92,2.27,2.95,-2.95,-2.47,-0.71,-0.68,-0.68
112,2.28,3.00,2.27,2.98,-2.98,-2.54,-0.70,-0.72,-0.71
113,2.28,3.03,2.26,3.01,-3.01,-2.60,-0.73,-0.75,-0.75
114,2.25,3.03,2.26,3.04,-3.04,-2.67,-0.79,-0.78,-0.78
115,2.22,3.03,2.25,3.07,-3.07,-2.73,-0.85,-0.82,-0.81
117,2.22,3.09,2.24,3.10,-3.10,-2.86,-0.87,-0.85,-0.87
118,2.24,3.14,2.23,3.12,-3.12,-2.92,-0.88,-0.89,-0.90
119,2.23,3.16,2.22,3.14,-3.14,-2.98,-0.91,-0.93,-0.93
120,2.21,3.17,2.20,3.16,-3.16,-3.03,-0.94,-0.96,-0.96
121,2.18,3.17,2.17,3.17,-3.17,-3.09,-0.98,-0.99,-0.98
123,2.14,3.18,2.15,3.17,-3.17,-3.19,-1.03,-1.03,-1.04
124,2.11,3.18,2.12,3.18,-3.18,-3.23,-1.06,-1.06,-1.06
125,2.07,3.16,2.09,3.18,-3.18,-3.27,-1.10,-1.09,-1.09
126,2.03,3.15,2.05,3.17,-3.17,-3.31,-1.14,-1.12,-1.11
128,2.02,3.19,2.02,3.17,-3.17,-3.37,-1.15,-1.15,-1.16
129,1.99,3.18,1.98,3.16,-3.16,-3.40,-1.17,-1.18,-1.19
130,1.95,3.16,1.95,3.16,-3.16,-3.42,-1.21,-1.21,-1.21
131,1.91,3.15,1.91,3.15,-3.15,-3.44,-1.24,-1.24,-1.23
133,1.87,3.15,1.88,3.15,-3.15,-3.46,-1.27,-1.27,-1.27
134,1.83,3.13,1.85,3.14,-3.14,-3.46,-1.31,-1.30,-1.30
135,1.80,3.12,1.81,3.14,-3.14,-3.46,-1.33,-1.32,-1.32
137,1.79,3.15,1.78,3.13,-3.13,-3.45,-1.34,-1.35,-1.36
138,1.74,3.12,1.75,3.13,-3.13,-3.44,-1.38,-1.38,-1.38
140,1.71,3.13,1.71,3.12,-3.12,-3.40,-1.40,-1.40,-1.41
141,1.67,3.10,1.68,3.11,-3.11,-3.37,-1.43,-1.43,-1.43
142,1.63,3.08,1.64,3.09,-3.09,-3.35,-1.46,-1.45,-1.45
144,1.59,3.08,1.59,3.07,-3.07,-3.28,-1.48,-1.48,-1.48
145,1.55,3.05,1.54,3.04,-3.04,-3.24,-1.49,-1.50,-1.50
147,1.47,3.00,1.48,3.01,-3.01,-3.16,-1.53,-1.53,-1.53
148,1.44,2.99,1.42,2.97,-2.97,-3.12,-1.52,-1.55,-1.55
150,1.35,2.93,1.35,2.92,-2.92,-3.03,-1.57,-1.57,-1.57
151,1.29,2.88,1.28,2.87,-2.87,-2.98,-1.58,-1.59,-1.59
153,1.18,2.80,1.20,2.82,-2.82,-2.88,-1.63,-1.61,-1.62
154,1.12,2.75,1.13,2.76,-2.76,-2.82,-1.64,-1.63,-1.63
156,1.03,2.69,1.05,2.70,-2.70,-2.72,-1.67,-1.65,-1.65
157,0.97,2.64,0.98,2.65,-2.65,-2.66,-1.68,-1.67,-1.67
159,0.89,2.58,0.91,2.60,-2.60,-2.55,-1.70,-1.69,-1.69
160,0.83,2.54,0.84,2.54,-2.54,-2.50,-1.71,-1.71,-1.70
162,0.77,2.50,0.77,2.49,-2.49,-2.39,-1.72,-1.72,-1.72
164,0.72,2.47,0.70,2.44,-2.44,-2.28,-1.72,-1.74,-1.75
165,0.65,2.41,0.63,2.39,-2.39,-2.22,-1.74,-1.76,-1.76
167,0.52,2.30,0.56,2.34,-2.34,-2.11,-1.81,-1.77,-1.78
169,0.47,2.27,0.49,2.28,-2.28,-2.00,-1.81,-1.79,-1.79
170,0.41,2.22,0.42,2.22,-2.22,-1.95,-1.81,-1.81,-1.80
172,0.36,2.18,0.34,2.16,-2.16,-1.85,-1.79,-1.82,-1.82
174,0.25,2.09,0.25,2.09,-2.09,-1.74,-1.84,-1.83,-1.84
175,0.16,2.01,0.17,2.02,-2.02,-1.69,-1.85,-1.85,-1.85
177,0.10,1.96,0.07,1.94,-1.94,-1.59,-1.83,-1.86,-1.86
179,-0.02,1.86,-0.02,1.85,-1.85,-1.49,-1.87,-1.87,-1.88
181,-0.14,1.75,-0.12,1.76,-1.76,-1.40,-1.90,-1.89,-1.89
183,-0.26,1.65,-0.23,1.67,-1.67,-1.30,-1.93,-1.90,-1.90
184,-0.34,1.57,-0.34,1.58,-1.58,-1.26,-1.91,-1.91,-1.91
186,-0.46,1.47,-0.45,1.48,-1.48,-1.17,-1.93,-1.92,-1.92
188,-0.54,1.40,-0.56,1.38,-1.38,-1.08,-1.91,-1.93,-1.93
190,-0.68,1.27,-0.67,1.27,-1.27,-0.99,-1.95,-1.95,-1.95
192,-0.79,1.17,-0.79,1.16,-1.16,-0.90,-1.95,-1.96,-1.96
194,-0.93,1.04,-0.91,1.05,-1.05,-0.81,-1.98,-1.97,-1.97
196,-1.04,0.94,-1.04,0.94,-0.94,-0.73,-1.97,-1.98,-1.98
198,-1.16,0.83,-1.17,0.82,-0.82,-0.64,-1.98,-1.99,-1.99
200,-1.29,0.71,-1.29,0.70,-0.70,-0.55,-1.99,-2.00,-2.00
202,-1.43,0.58,-1.42,0.58,-0.58,-0.47,-2.01,-2.01,-2.01
204,-1.58,0.44,-1.55,0.46,-0.46,-0.38,-2.04,-2.01,-2.01
206,-1.69,0.34,-1.68,0.34,-0.34,-0.29,-2.02,-2.02,-2.02
208,-1.83,0.20,-1.81,0.22,-0.22,-0.20,-2.04,-2.03,-2.03
210,-1.94,0.10,-1.94,0.10,-0.10,-0.11,-2.03,-2.04,-2.04
212,-2.06,-0.01,-2.07,-0.03,0.03,-0.02,-2.03,-2.04,-2.04
214,-2.21,-0.15,-2.20,-0.15,0.15,0.08,-2.06,-2.05,-2.05
216,-2.32,-0.26,-2.33,-0.28,0.28,0.18,-2.04,-2.06,-2.06
218,-2.47,-0.40,-2.47,-0.40,0.40,0.28,-2.06,-2.06,-2.06
221,-2.62,-0.54,-2.60,-0.53,0.53,0.44,-2.09,-2.07,-2.07
223,-2.77,-0.69,-2.74,-0.66,0.66,0.55,-2.11,-2.08,-2.08
225,-2.86,-0.77,-2.88,-0.79,0.79,0.66,-2.06,-2.08,-2.08
227,-3.00,-0.91,-3.02,-0.93,0.93,0.78,-2.07,-2.09,-2.09
229,-3.14,-1.04,-3.16,-1.06,1.06,0.91,-2.08,-2.10,-2.09
232,-3.29,-1.18,-3.29,-1.19,1.19,1.10,-2.09,-2.10,-2.10
234,-3.43,-1.32,-3.43,-1.32,1.32,1.23,-2.10,-2.11,-2.11
236,-3.58,-1.47,-3.56,-1.45,1.45,1.36,-2.13,-2.11,-2.11
239,-3.70,-1.58,-3.68,-1.57,1.57,1.55,-2.13,-2.12,-2.12
241,-3.81,-1.69,-3.80,-1.68,1.68,1.67,-2.13,-2.12,-2.12
244,-3.92,-1.79,-3.90,-1.77,1.77,1.83,-2.14,-2.13,-2.13
246,-3.98,-1.85,-3.99,-1.86,1.86,1.93,-2.12,-2.13,-2.13
248,-4.07,-1.93,-4.06,-1.93,1.93,2.00,-2.14,-2.13,-2.13
251,-4.14,-2.00,-4.13,-1.99,1.99,2.09,-2.15,-2.14,-2.14
253,-4.18,-2.03,-4.17,-2.03,2.03,2.12,-2.14,-2.14,-2.14
256,-4.24,-2.09,-4.21,-2.06,2.06,2.14,-2.17,-2.15,-2.15
259,-4.21,-2.06,-4.24,-2.09,2.09,2.13,-2.12,-2.15,-2.15
261,-4.24,-2.08,-4.25,-2.10,2.10,2.11,-2.14,-2.15,-2.15
264,-4.28,-2.12,-4.26,-2.10,2.10,2.06,-2.18,-2.16,-2.16
266,-4.25,-2.09,-4.25,-2.09,2.09,2.03,-2.16,-2.16,-2.16
269,-4.21,-2.04,-4.24,-2.07,2.07,1.97,-2.13,-2.16,-2.16
272,-4.25,-2.08,-4.21,-2.05,2.05,1.92,-2.20,-2.17,-2.17
274,-4.25,-2.08,-4.18,-2.01,2.01,1.89,-2.23,-2.17,-2.17
277,-4.11,-1.93,-4.14,-1.97,1.97,1.85,-2.13,-2.17,-2.17
280,-4.08,-1.90,-4.10,-1.93,1.93,1.82,-2.15,-2.18,-2.18
283,-4.09,-1.91,-4.06,-1.88,1.88,1.80,-2.20,-2.18,-2.18
286,-4.02,-1.84,-4.02,-1.84,1.84,1.78,-2.18,-2.18,-2.18
288,-3.98,-1.79,-3.98,-1.80,1.80,1.78,-2.17,-2.18,-2.18
291,-3.93,-1.74,-3.95,-1.77,1.77,1.78,-2.16,-2.19,-2.18
294,-3.92,-1.73,-3.93,-1.74,1.74,1.79,-2.17,-2.19,-2.19
297,-3.94,-1.75,-3.91,-1.72,1.72,1.81,-2.21,-2.19,-2.19
300,-3.89,-1.69,-3.90,-1.71,1.71,1.83,-2.17,-2.19,-2.19
303,-3.92,-1.72,-3.90,-1.71,1.71,1.85,-2.21,-2.19,-2.19
306,-3.91,-1.71,-3.91,-1.71,1.71,1.88,-2.19,-2.20,-2.20
309,-3.93,-1.73,-3.92,-1.73,1.73,1.92,-2.20,-2.20,-2.20
312,-3.97,-1.77,-3.95,-1.75,1.75,1.96,-2.22,-2.20,-2.20
316,-3.96,-1.75,-3.98,-1.78,1.78,2.02,-2.18,-2.20,-2.20
319,-4.01,-1.80,-4.02,-1.82,1.82,2.07,-2.19,-2.20,-2.20
322,-4.04,-1.83,-4.07,-1.86,1.86,2.12,-2.17,-2.20,-2.20
325,-4.14,-1.93,-4.13,-1.92,1.92,2.17,-2.22,-2.21,-2.21
328,-4.20,-1.99,-4.19,-1.98,1.98,2.22,-2.21,-2.21,-2.21
332,-4.29,-2.08,-4.26,-2.05,2.05,2.30,-2.24,-2.21,-2.21
335,-4.35,-2.14,-4.33,-2.12,2.12,2.36,-2.23,-2.21,-2.21
338,-4.40,-2.18,-4.41,-2.20,2.20,2.42,-2.20,-2.21,-2.21
342,-4.52,-2.30,-4.49,-2.28,2.28,2.51,-2.24,-2.21,-2.21
345,-4.57,-2.35,-4.58,-2.37,2.37,2.57,-2.20,-2.21,-2.21
349,-4.71,-2.49,-4.68,-2.47,2.47,2.66,-2.24,-2.22,-2.22
352,-4.75,-2.53,-4.79,-2.57,2.57,2.73,-2.17,-2.22,-2.22
356,-4.88,-2.66,-4.91,-2.69,2.69,2.82,-2.19,-2.22,-2.22
359,-5.01,-2.79,-5.03,-2.82,2.82,2.90,-2.19,-2.22,-2.22
363,-5.21,-2.99,-5.17,-2.95,2.95,2.99,-2.26,-2.22,-2.22
366,-5.31,-3.08,-5.31,-3.09,3.09,3.06,-2.21,-2.22,-2.22
370,-5.45,-3.22,-5.46,-3.24,3.24,3.16,-2.21,-2.22,-2.22
374,-5.65,-3.42,-5.61,-3.39,3.39,3.26,-2.26,-2.22,-2.22
377,-5.73,-3.50,-5.76,-3.53,3.53,3.33,-2.20,-2.23,-2.23
381,-5.91,-3.68,-5.89,-3.67,3.67,3.43,-2.24,-2.23,-2.23
385,-6.04,-3.81,-6.03,-3.80,3.80,3.52,-2.24,-2.23,-2.23
389,-6.17,-3.94,-6.15,-3.92,3.92,3.62,-2.25,-2.23,-2.23
393,-6.29,-4.05,-6.26,-4.02,4.02,3.71,-2.26,-2.23,-2.23
397,-6.37,-4.13,-6.36,-4.12,4.12,3.80,-2.24,-2.23,-2.23
401,-6.44,-4.20,-6.45,-4.21,4.21,3.89,-2.22,-2.23,-2.23
405,-6.51,-4.27,-6.53,-4.29,4.29,3.98,-2.21,-2.24,-2.24
409,-6.59,-4.35,-6.60,-4.37,4.37,4.06,-2.22,-2.24,-2.24
413,-6.66,-4.42,-6.67,-4.43,4.43,4.14,-2.22,-2.24,-2.24
417,-6.74,-4.50,-6.73,-4.50,4.50,4.22,-2.24,-2.24,-2.24
421,-6.82,-4.58,-6.79,-4.55,4.55,4.29,-2.27,-2.24,-2.24
425,-6.82,-4.58,-6.83,-4.59,4.59,4.35,-2.22,-2.24,-2.24
430,-6.88,-4.64,-6.86,-4.63,4.63,4.42,-2.25,-2.24,-2.24
434,-6.87,-4.63,-6.89,-4.65,4.65,4.48,-2.21,-2.23,-2.23
438,-6.92,-4.68,-6.90,-4.67,4.67,4.52,-2.25,-2.23,-2.23
443,-6.90,-4.67,-6.90,-4.67,4.67,4.57,-2.23,-2.23,-2.23
447,-6.90,-4.67,-6.88,-4.66,4.66,4.60,-2.24,-2.23,-2.23
451,-6.88,-4.65,-6.86,-4.64,4.64,4.63,-2.24,-2.22,-2.22
456,-6.82,-4.60,-6.82,-4.61,4.61,4.65,-2.21,-2.22,-2.22
460,-6.79,-4.58,-6.78,-4.57,4.57,4.66,-2.22,-2.21,-2.21
465,-6.74,-4.53,-6.73,-4.52,4.52,4.67,-2.21,-2.20,-2.20
470,-6.65,-4.45,-6.67,-4.47,4.47,4.66,-2.18,-2.20,-2.20
474,-6.58,-4.39,-6.60,-4.42,4.42,4.65,-2.16,-2.19,-2.19
479,-6.56,-4.38,-6.54,-4.36,4.36,4.63,-2.19,-2.18,-2.18
484,-6.47,-4.30,-6.47,-4.31,4.31,4.60,-2.16,-2.17,-2.17
489,-6.42,-4.26,-6.40,-4.25,4.25,4.56,-2.17,-2.15,-2.15
494,-6.30,-4.16,-6.33,-4.19,4.19,4.52,-2.10,-2.14,-2.14
499,-6.28,-4.15,-6.26,-4.14,4.14,4.47,-2.14,-2.13,-2.13
504,-6.21,-4.10,-6.19,-4.08,4.08,4.41,-2.12,-2.11,-2.11
509,-6.12,-4.02,-6.12,-4.03,4.03,4.35,-2.09,-2.09,-2.09
514,-6.06,-3.98,-6.05,-3.97,3.97,4.29,-2.09,-2.08,-2.08
519,-5.96,-3.90,-5.97,-3.91,3.91,4.22,-2.05,-2.06,-2.06
524,-5.90,-3.86,-5.89,-3.85,3.85,4.15,-2.04,-2.04,-2.04
529,-5.82,-3.80,-5.81,-3.79,3.79,4.08,-2.02,-2.02,-2.02
535,-5.73,-3.73,-5.73,-3.73,3.73,3.99,-1.99,-2.00,-2.00
540,-5.66,-3.68,-5.65,-3.67,3.67,3.92,-1.98,-1.97,-1.97
545,-5.57,-3.61,-5.57,-3.61,3.61,3.84,-1.95,-1.95,-1.95
551,-5.46,-3.53,-5.48,-3.55,3.55,3.75,-1.90,-1.93,-1.93
556,-5.40,-3.49,-5.39,-3.49,3.49,3.68,-1.90,-1.90,-1.90
562,-5.33,-3.45,-5.31,-3.43,3.43,3.59,-1.90,-1.88,-1.88
568,-5.23,-3.38,-5.22,-3.37,3.37,3.51,-1.86,-1.85,-1.85
573,-5.14,-3.31,-5.12,-3.30,3.30,3.44,-1.84,-1.82,-1.82
579,-5.02,-3.22,-5.03,-3.23,3.23,3.36,-1.78,-1.79,-1.79
585,-4.92,-3.15,-4.93,-3.17,3.17,3.28,-1.75,-1.77,-1.77
591,-4.86,-3.12,-4.84,-3.10,3.10,3.20,-1.75,-1.74,-1.74
596,-4.74,-3.03,-4.74,-3.04,3.04,3.14,-1.70,-1.71,-1.71
602,-4.66,-2.98,-4.65,-2.97,2.97,3.07,-1.68,-1.68,-1.68
608,-4.55,-2.90,-4.56,-2.91,2.91,3.01,-1.63,-1.64,-1.64
615,-4.47,-2.85,-4.47,-2.85,2.85,2.94,-1.61,-1.61,-1.61
621,-4.40,-2.82,-4.38,-2.80,2.80,2.89,-1.60,-1.58,-1.58
627,-4.32,-2.77,-4.30,-2.75,2.75,2.84,-1.56,-1.55,-1.55
633,-4.24,-2.72,-4.23,-2.71,2.71,2.80,-1.52,-1.51,-1.51
639,-4.17,-2.69,-4.17,-2.69,2.69,2.76,-1.48,-1.48,-1.48
646,-4.12,-2.67,-4.12,-2.68,2.68,2.73,-1.44,-1.45,-1.45
652,-4.04,-2.63,-4.09,-2.68,2.68,2.70,-1.36,-1.41,-1.41
659,-4.00,-2.62,-4.07,-2.70,2.70,2.69,-1.30,-1.37,-1.37
665,-4.05,-2.71,-4.07,-2.73,2.73,2.68,-1.32,-1.34,-1.34
672,-4.10,-2.79,-4.07,-2.77,2.77,2.68,-1.33,-1.30,-1.30
679,-4.07,-2.80,-4.08,-2.81,2.81,2.69,-1.25,-1.27,-1.27
686,-4.14,-2.91,-4.08,-2.85,2.85,2.71,-1.29,-1.23,-1.23
692,-4.10,-2.90,-4.07,-2.88,2.88,2.74,-1.22,-1.19,-1.19
699,-4.06,-2.90,-4.05,-2.89,2.89,2.77,-1.16,-1.15,-1.15
706,-4.03,-2.91,-4.00,-2.89,2.89,2.80,-1.14,-1.12,-1.12
713,-3.96,-2.88,-3.94,-2.86,2.86,2.83,-1.09,-1.08,-1.08
721,-3.86,-2.82,-3.86,-2.82,2.82,2.83,-1.04,-1.04,-1.04
728,-3.78,-2.77,-3.76,-2.76,2.76,2.82,-1.02,-1.00,-1.00
735,-3.66,-2.69,-3.64,-2.68,2.68,2.77,-0.97,-0.96,-0.96
742,-3.51,-2.58,-3.52,-2.59,2.59,2.70,-0.91,-0.93,-0.93
750,-3.38,-2.49,-3.38,-2.50,2.50,2.60,-0.88,-0.89,-0.89
757,-3.24,-2.39,-3.24,-2.39,2.39,2.48,-0.84,-0.85,-0.85
765,-3.11,-2.29,-3.10,-2.29,2.29,2.34,-0.82,-0.81,-0.81
773,-2.96,-2.18,-2.96,-2.18,2.18,2.20,-0.77,-0.78,-0.78
780,-2.83,-2.09,-2.82,-2.08,2.08,2.07,-0.75,-0.74,-0.74
788,-2.68,-1.97,-2.69,-1.98,1.98,1.94,-0.69,-0.71,-0.71
796,-2.53,-1.86,-2.56,-1.89,1.89,1.81,-0.64,-0.67,-0.67
804,-2.44,-1.80,-2.44,-1.80,1.80,1.69,-0.63,-0.64,-0.64
812,-2.31,-1.70,-2.32,-1.72,1.72,1.59,-0.59,-0.60,-0.60
820,-2.20,-1.63,-2.21,-1.64,1.64,1.49,-0.55,-0.57,-0.57
828,-2.11,-1.57,-2.10,-1.56,1.56,1.40,-0.54,-0.54,-0.54
837,-2.02,-1.51,-1.99,-1.49,1.49,1.30,-0.53,-0.50,-0.50
845,-1.90,-1.42,-1.88,-1.40,1.40,1.22,-0.49,-0.47,-0.47
853,-1.78,-1.33,-1.76,-1.32,1.32,1.15,-0.46,-0.44,-0.44
862,-1.64,-1.22,-1.64,-1.23,1.23,1.07,-0.41,-0.41,-0.41
871,-1.51,-1.12,-1.51,-1.13,1.13,1.00,-0.37,-0.38,-0.38
879,-1.41,-1.05,-1.39,-1.03,1.03,0.94,-0.37,-0.35,-0.35
888,-1.24,-0.91,-1.26,-0.94,0.94,0.87,-0.30,-0.32,-0.32
897,-1.12,-0.82,-1.13,-0.84,0.84,0.81,-0.28,-0.30,-0.30
906,-1.02,-0.75,-1.01,-0.74,0.74,0.75,-0.28,-0.27,-0.27
915,-0.88,-0.64,-0.89,-0.65,0.65,0.69,-0.23,-0.24,-0.24
924,-0.79,-0.57,-0.77,-0.55,0.55,0.64,-0.23,-0.21,-0.21
933,-0.65,-0.46,-0.65,-0.46,0.46,0.58,-0.18,-0.19,-0.19
943,-0.55,-0.39,-0.53,-0.37,0.37,0.52,-0.17,-0.16,-0.16
952,-0.43,-0.29,-0.42,-0.29,0.29,0.47,-0.14,-0.13,-0.13
962,-0.32,-0.21,-0.32,-0.21,0.21,0.42,-0.11,-0.11,-0.11
971,-0.23,-0.15,-0.22,-0.14,0.14,0.37,-0.09,-0.08,-0.08
981,-0.11,-0.05,-0.12,-0.07,0.07,0.32,-0.04,-0.05,-0.05
991,-0.04,-0.01,-0.04,-0.01,0.01,0.27,-0.02,-0.03,-0.03
1001,0.00,0.00,0.03,0.03,-0.03,0.22,-0.03,0.00,0.00
1011,0.06,0.04,0.08,0.06,-0.06,0.18,0.01,0.03,0.03
1021,0.14,0.09,0.12,0.06,-0.06,0.14,0.08,0.05,0.05
1031,0.19,0.11,0.13,0.05,-0.05,0.10,0.14,0.08,0.08
1041,0.18,0.07,0.13,0.02,-0.02,0.07,0.17,0.11,0.11
1052,0.14,0.01,0.11,-0.03,0.03,0.04,0.18,0.14,0.14
1062,0.09,-0.07,0.07,-0.09,0.09,0.01,0.19,0.17,0.17
1073,0.00,-0.19,0.04,-0.16,0.16,-0.01,0.16,0.19,0.19
1084,-0.05,-0.27,0.01,-0.22,0.22,-0.02,0.17,0.22,0.22
1094,-0.08,-0.33,-0.01,-0.27,0.27,-0.03,0.19,0.25,0.25
1105,-0.04,-0.32,-0.02,-0.30,0.30,-0.04,0.27,0.28,0.28
1116,-0.02,-0.33,-0.01,-0.32,0.32,-0.04,0.31,0.31,0.31
1128,0.00,-0.34,0.01,-0.33,0.33,-0.03,0.33,0.34,0.34
1139,0.06,-0.31,0.06,-0.32,0.32,-0.02,0.38,0.37,0.37
1150,0.09,-0.31,0.11,-0.30,0.30,-0.01,0.39,0.40,0.40
1162,0.16,-0.27,0.17,-0.27,0.27,0.01,0.43,0.44,0.44
1173,0.26,-0.20,0.24,-0.23,0.23,0.03,0.50,0.47,0.47
1185,0.33,-0.17,0.30,-0.20,0.20,0.06,0.53,0.50,0.50
1197,0.38,-0.15,0.37,-0.16,0.16,0.08,0.54,0.53,0.53
1209,0.43,-0.13,0.44,-0.12,0.12,0.11,0.55,0.56,0.56
1221,0.47,-0.12,0.52,-0.08,0.08,0.14,0.56,0.60,0.60
1233,0.60,-0.03,0.59,-0.05,0.05,0.17,0.65,0.63,0.63
1246,0.65,-0.01,0.65,-0.01,0.01,0.21,0.66,0.66,0.66
1258,0.70,0.01,0.72,0.02,-0.02,0.24,0.68,0.70,0.70
1271,0.76,0.03,0.78,0.05,-0.05,0.27,0.72,0.73,0.73
1283,0.84,0.08,0.84,0.07,-0.07,0.30,0.78,0.77,0.77
1296,0.91,0.11,0.88,0.08,-0.08,0.33,0.84,0.80,0.80
1309,0.94,0.11,0.92,0.08,-0.08,0.36,0.86,0.84,0.84
1322,0.97,0.10,0.94,0.07,-0.07,0.39,0.90,0.87,0.87
1335,0.94,0.03,0.96,0.05,-0.05,0.42,0.90,0.91,0.91
1349,0.92,-0.02,0.96,0.02,-0.02,0.45,0.91,0.95,0.95
1362,0.95,-0.03,0.96,-0.02,0.02,0.48,0.97,0.98,0.98
1376,0.99,-0.03,0.96,-0.06,0.06,0.51,1.06,1.02,1.02
1390,0.95,-0.10,0.95,-0.11,0.11,0.54,1.06,1.06,1.06
1404,0.93,-0.16,0.94,-0.16,0.16,0.56,1.09,1.10,1.10
1418,0.88,-0.25,0.93,-0.21,0.21,0.59,1.09,1.13,1.13
1432,0.91,-0.26,0.92,-0.26,0.26,0.61,1.17,1.17,1.17
1446,0.90,-0.31,0.91,-0.30,0.30,0.64,1.21,1.21,1.21
1461,0.89,-0.36,0.90,-0.35,0.35,0.67,1.25,1.25,1.25
1475,0.86,-0.43,0.89,-0.40,0.40,0.69,1.27,1.29,1.29
1490,0.88,-0.45,0.88,-0.46,0.46,0.72,1.34,1.33,1.33
1505,0.85,-0.52,0.86,-0.52,0.52,0.74,1.37,1.37,1.37
1520,0.86,-0.55,0.83,-0.59,0.59,0.76,1.45,1.41,1.41
1535,0.82,-0.63,0.79,-0.67,0.67,0.79,1.49,1.46,1.46
1550,0.76,-0.73,0.73,-0.76,0.76,0.81,1.53,1.50,1.50
1566,0.65,-0.89,0.67,-0.87,0.87,0.84,1.52,1.54,1.54
1582,0.60,-0.98,0.61,-0.98,0.98,0.86,1.58,1.58,1.58
1597,0.53,-1.09,0.54,-1.09,1.09,0.89,1.62,1.63,1.63
1613,0.48,-1.19,0.47,-1.20,1.20,0.91,1.69,1.67,1.67
1629,0.41,-1.30,0.40,-1.31,1.31,0.94,1.72,1.71,1.71
1646,0.34,-1.41,0.35,-1.41,1.41,0.96,1.75,1.76,1.76
1662,0.29,-1.51,0.31,-1.49,1.49,0.99,1.78,1.80,1.80
1679,0.25,-1.59,0.29,-1.56,1.56,1.01,1.81,1.85,1.85
1696,0.23,-1.66,0.29,-1.61,1.61,1.04,1.84,1.89,1.90
1713,0.28,-1.66,0.30,-1.64,1.64,1.07,1.92,1.94,1.94
1730,0.34,-1.65,0.33,-1.66,1.66,1.10,2.00,1.99,1.99
1747,0.39,-1.64,0.37,-1.67,1.67,1.12,2.06,2.04,2.04
1764,0.44,-1.64,0.42,-1.67,1.67,1.15,2.11,2.09,2.09
