frequency,raw,error,smoothed,error_smoothed,equalization,parametric_eq,equalized_raw,equalized_smoothed,target
20,1.08,-1.30,1.10,-1.28,1.28,-0.41,2.36,2.38,2.38
21,1.40,-0.98,1.40,-0.98,0.98,-0.46,2.38,2.38,2.38
22,1.70,-0.68,1.69,-0.68,0.68,-0.52,2.38,2.38,2.38
23,1.98,-0.40,1.97,-0.40,0.40,-0.59,2.38,2.38,2.38
24,2.27,-0.11,2.24,-0.13,0.13,-0.66,2.40,2.37,2.37
25,2.56,0.19,2.50,0.12,-0.12,-0.73,2.43,2.37,2.37
26,2.75,0.38,2.74,0.37,-0.37,-0.81,2.38,2.37,2.37
27,2.95,0.58,2.97,0.61,-0.61,-0.89,2.34,2.37,2.36
28,3.14,0.78,3.19,0.83,-0.83,-0.98,2.31,2.36,2.36
29,3.43,1.07,3.40,1.04,-1.04,-1.06,2.38,2.36,2.36
30,3.66,1.31,3.60,1.25,-1.25,-1.14,2.41,2.35,2.35
31,3.74,1.39,3.78,1.44,-1.44,-1.23,2.30,2.35,2.35
32,3.93,1.59,3.96,1.62,-1.62,-1.31,2.31,2.34,2.34
33,4.10,1.77,4.12,1.79,-1.79,-1.40,2.31,2.33,2.33
34,4.29,1.96,4.28,1.95,-1.95,-1.48,2.34,2.33,2.33
35,4.46,2.14,4.42,2.10,-2.10,-1.57,2.36,2.32,2.32
36,4.58,2.27,4.55,2.24,-2.24,-1.66,2.34,2.31,2.31
37,4.68,2.38,4.68,2.37,-2.37,-1.76,2.30,2.30,2.30
38,4.78,2.49,4.79,2.50,-2.50,-1.87,2.28,2.29,2.29
39,4.90,2.62,4.89,2.61,-2.61,-1.98,2.29,2.28,2.28
40,4.98,2.71,4.99,2.71,-2.71,-2.10,2.27,2.27,2.27
41,5.15,2.89,5.07,2.81,-2.81,-2.22,2.34,2.26,2.26
42,5.16,2.91,5.16,2.91,-2.91,-2.35,2.25,2.25,2.25
43,5.26,3.02,5.23,3.00,-3.00,-2.49,2.26,2.24,2.24
44,5.36,3.14,5.31,3.09,-3.09,-2.64,2.27,2.22,2.22
45,5.36,3.15,5.38,3.18,-3.18,-2.79,2.18,2.21,2.21
46,5.43,3.24,5.46,3.27,-3.27,-2.95,2.16,2.19,2.19
47,5.45,3.27,5.54,3.36,-3.36,-3.11,2.08,2.18,2.18
48,5.55,3.39,5.62,3.47,-3.47,-3.28,2.08,2.16,2.16
49,5.64,3.50,5.71,3.57,-3.57,-3.46,2.07,2.14,2.14
50,5.75,3.63,5.80,3.68,-3.68,-3.63,2.07,2.12,2.12
51,5.92,3.82,5.90,3.79,-3.79,-3.81,2.12,2.10,2.10
52,5.95,3.87,5.99,3.91,-3.91,-3.98,2.04,2.08,2.08
53,6.13,4.07,6.09,4.03,-4.03,-4.15,2.10,2.06,2.06
54,6.23,4.19,6.18,4.14,-4.14,-4.32,2.09,2.04,2.04
55,6.32,4.31,6.27,4.26,-4.26,-4.48,2.06,2.01,2.01
56,6.42,4.43,6.35,4.36,-4.36,-4.63,2.05,1.99,1.99
57,6.42,4.45,6.43,4.47,-4.47,-4.77,1.95,1.96,1.96
58,6.51,4.57,6.50,4.56,-4.56,-4.90,1.95,1.94,1.94
59,6.61,4.70,6.56,4.65,-4.65,-5.01,1.96,1.91,1.91
60,6.61,4.73,6.61,4.73,-4.73,-5.11,1.88,1.88,1.88
61,6.61,4.75,6.66,4.80,-4.80,-5.20,1.81,1.85,1.85
62,6.71,4.88,6.69,4.87,-4.87,-5.27,1.84,1.82,1.82
63,6.71,4.92,6.73,4.93,-4.93,-5.32,1.78,1.79,1.79
64,6.80,5.04,6.75,4.99,-4.99,-5.36,1.81,1.76,1.76
65,6.80,5.07,6.78,5.05,-5.05,-5.39,1.75,1.73,1.73
66,6.80,5.10,6.80,5.10,-5.10,-5.41,1.70,1.70,1.70
67,6.80,5.14,6.82,5.15,-5.15,-5.42,1.65,1.66,1.66
68,6.80,5.17,6.83,5.20,-5.20,-5.41,1.59,1.63,1.63
69,6.80,5.21,6.85,5.26,-5.26,-5.41,1.54,1.59,1.59
70,6.80,5.24,6.86,5.31,-5.31,-5.39,1.49,1.56,1.56
71,6.90,5.38,6.88,5.36,-5.36,-5.38,1.54,1.52,1.52
72,6.90,5.42,6.89,5.41,-5.41,-5.36,1.49,1.48,1.48
73,6.90,5.45,6.90,5.46,-5.46,-5.34,1.44,1.45,1.45
74,6.90,5.49,6.91,5.50,-5.50,-5.33,1.39,1.41,1.41
75,6.99,5.62,6.92,5.55,-5.55,-5.31,1.44,1.37,1.37
76,6.99,5.66,6.92,5.59,-5.59,-5.30,1.40,1.33,1.33
77,6.90,5.61,6.92,5.63,-5.63,-5.29,1.27,1.29,1.29
78,6.90,5.65,6.92,5.67,-5.67,-5.28,1.23,1.25,1.25
79,6.90,5.69,6.91,5.70,-5.70,-5.28,1.19,1.21,1.21
80,6.90,5.73,6.90,5.74,-5.74,-5.29,1.16,1.17,1.17
81,6.90,5.77,6.89,5.76,-5.76,-5.29,1.13,1.13,1.13
82,6.90,5.81,6.88,5.79,-5.79,-5.31,1.11,1.09,1.09
83,6.90,5.85,6.86,5.82,-5.82,-5.33,1.08,1.04,1.05
84,6.80,5.80,6.84,5.84,-5.84,-5.35,0.96,1.00,1.00
85,6.80,5.84,6.83,5.86,-5.86,-5.38,0.93,0.96,0.96
86,6.80,5.88,6.81,5.89,-5.89,-5.41,0.91,0.92,0.92
87,6.80,5.92,6.79,5.91,-5.91,-5.45,0.89,0.88,0.88
88,6.80,5.96,6.77,5.93,-5.93,-5.50,0.86,0.84,0.84
89,6.76,5.96,6.75,5.96,-5.96,-5.54,0.80,0.80,0.80
90,6.71,5.95,6.74,5.98,-5.98,-5.60,0.73,0.76,0.75
91,6.71,6.00,6.72,6.01,-6.01,-5.66,0.70,0.71,0.71
92,6.71,6.04,6.70,6.03,-6.03,-5.72,0.68,0.67,0.67
93,6.71,6.08,6.69,6.06,-6.06,-5.79,0.65,0.63,0.63
94,6.71,6.12,6.68,6.08,-6.08,-5.86,0.62,0.59,0.59
95,6.71,6.16,6.66,6.12,-6.12,-5.93,0.59,0.55,0.55
96,6.63,6.12,6.66,6.15,-6.15,-6.01,0.48,0.51,0.51
97,6.61,6.14,6.65,6.19,-6.19,-6.09,0.42,0.47,0.47
98,6.60,6.17,6.65,6.23,-6.23,-6.17,0.37,0.42,0.43
99,6.68,6.29,6.65,6.27,-6.27,-6.26,0.41,0.38,0.39
100,6.67,6.32,6.66,6.32,-6.32,-6.35,0.35,0.34,0.35
101,6.65,6.34,6.67,6.38,-6.38,-6.44,0.27,0.30,0.31
102,6.63,6.36,6.69,6.43,-6.43,-6.53,0.19,0.26,0.27
104,6.70,6.50,6.71,6.50,-6.50,-6.71,0.20,0.22,0.20
105,6.74,6.58,6.73,6.56,-6.56,-6.80,0.18,0.18,0.16
106,6.75,6.62,6.76,6.62,-6.62,-6.90,0.13,0.14,0.13
107,6.81,6.72,6.78,6.69,-6.69,-6.99,0.12,0.10,0.09
108,6.80,6.74,6.81,6.74,-6.74,-7.08,0.05,0.06,0.06
109,6.78,6.75,6.83,6.80,-6.80,-7.16,-0.02,0.03,0.02
110,6.79,6.80,6.84,6.85,-6.85,-7.25,-0.06,-0.01,-0.01
111,6.91,6.95,6.85,6.89,-6.89,-7.33,0.02,-0.04,-0.04
112,6.93,7.00,6.84,6.92,-6.92,-7.41,0.01,-0.07,-0.07
113,6.92,7.02,6.83,6.94,-6.94,-7.48,-0.02,-0.10,-0.10
114,6.85,6.97,6.81,6.95,-6.95,-7.55,-0.10,-0.14,-0.13
115,6.81,6.96,6.78,6.95,-6.95,-7.61,-0.14,-0.17,-0.15
117,6.77,6.98,6.74,6.94,-6.94,-7.72,-0.17,-0.19,-0.21
118,6.69,6.92,6.70,6.92,-6.92,-7.77,-0.23,-0.22,-0.23
119,6.62,6.87,6.65,6.90,-6.90,-7.80,-0.28,-0.25,-0.25
120,6.54,6.82,6.59,6.87,-6.87,-7.84,-0.33,-0.28,-0.28
121,6.55,6.85,6.53,6.84,-6.84,-7.86,-0.29,-0.31,-0.30
123,6.49,6.83,6.47,6.80,-6.80,-7.89,-0.31,-0.33,-0.34
124,6.39,6.75,6.41,6.77,-6.77,-7.89,-0.38,-0.36,-0.36
125,6.38,6.76,6.36,6.74,-6.74,-7.89,-0.36,-0.38,-0.38
126,6.36,6.76,6.31,6.72,-6.72,-7.88,-0.36,-0.41,-0.40
128,6.25,6.69,6.28,6.70,-6.70,-7.84,-0.46,-0.43,-0.44
129,6.20,6.65,6.25,6.70,-6.70,-7.81,-0.50,-0.45,-0.45
130,6.21,6.68,6.23,6.70,-6.70,-7.77,-0.49,-0.47,-0.47
131,6.18,6.66,6.22,6.71,-6.71,-7.73,-0.53,-0.49,-0.48
133,6.12,6.64,6.22,6.74,-6.74,-7.63,-0.62,-0.52,-0.52
134,6.17,6.70,6.23,6.77,-6.77,-7.57,-0.60,-0.54,-0.54
135,6.23,6.78,6.25,6.81,-6.81,-7.51,-0.58,-0.56,-0.55
137,6.23,6.81,6.28,6.86,-6.86,-7.38,-0.63,-0.58,-0.58
138,6.29,6.88,6.31,6.91,-6.91,-7.31,-0.62,-0.60,-0.60
140,6.38,7.01,6.34,6.96,-6.96,-7.16,-0.58,-0.62,-0.63
141,6.43,7.07,6.37,7.01,-7.01,-7.09,-0.58,-0.64,-0.64
142,6.43,7.08,6.39,7.05,-7.05,-7.01,-0.62,-0.66,-0.65
144,6.43,7.11,6.40,7.08,-7.08,-6.85,-0.65,-0.68,-0.68
145,6.43,7.13,6.40,7.10,-7.10,-6.77,-0.67,-0.70,-0.70
147,6.39,7.11,6.38,7.10,-7.10,-6.61,-0.71,-0.72,-0.73
148,6.33,7.07,6.34,7.09,-7.09,-6.53,-0.76,-0.74,-0.74
150,6.33,7.10,6.29,7.05,-7.05,-6.37,-0.72,-0.76,-0.77
151,6.33,7.11,6.22,7.00,-7.00,-6.30,-0.67,-0.78,-0.78
153,6.17,6.97,6.13,6.93,-6.93,-6.14,-0.76,-0.80,-0.81
154,6.09,6.91,6.03,6.85,-6.85,-6.07,-0.76,-0.82,-0.82
156,6.05,6.89,5.92,6.76,-6.76,-5.92,-0.71,-0.84,-0.84
157,5.96,6.81,5.81,6.66,-6.66,-5.85,-0.71,-0.86,-0.85
159,5.69,6.57,5.69,6.57,-6.57,-5.71,-0.88,-0.88,-0.88
160,5.58,6.47,5.58,6.48,-6.48,-5.64,-0.90,-0.89,-0.89
162,5.37,6.28,5.48,6.40,-6.40,-5.51,-1.03,-0.91,-0.91
164,5.13,6.06,5.40,6.33,-6.33,-5.38,-1.20,-0.93,-0.93
165,5.12,6.06,5.33,6.27,-6.27,-5.32,-1.15,-0.94,-0.94
167,5.07,6.03,5.27,6.23,-6.23,-5.21,-1.16,-0.96,-0.96
169,5.08,6.05,5.23,6.20,-6.20,-5.10,-1.12,-0.97,-0.97
170,5.15,6.13,5.21,6.19,-6.19,-5.05,-1.04,-0.98,-0.98
172,5.27,6.26,5.18,6.18,-6.18,-4.95,-0.91,-0.99,-0.99
174,5.33,6.33,5.17,6.17,-6.17,-4.85,-0.84,-1.00,-1.01
175,5.33,6.34,5.15,6.16,-6.16,-4.81,-0.83,-1.01,-1.01
177,5.28,6.30,5.12,6.14,-6.14,-4.72,-0.86,-1.02,-1.02
179,5.18,6.21,5.08,6.11,-6.11,-4.64,-0.93,-1.03,-1.03
181,5.04,6.07,5.04,6.07,-6.07,-4.57,-1.03,-1.03,-1.03
183,5.00,6.04,4.98,6.02,-6.02,-4.50,-1.02,-1.04,-1.04
184,4.96,6.00,4.92,5.96,-5.96,-4.47,-1.00,-1.04,-1.04
186,4.83,5.87,4.84,5.88,-5.88,-4.40,-1.05,-1.04,-1.04
188,4.70,5.74,4.75,5.80,-5.80,-4.35,-1.10,-1.05,-1.05
190,4.62,5.67,4.66,5.71,-5.71,-4.29,-1.09,-1.05,-1.05
192,4.50,5.55,4.57,5.62,-5.62,-4.24,-1.12,-1.05,-1.05
194,4.42,5.47,4.47,5.52,-5.52,-4.20,-1.10,-1.05,-1.05
196,4.37,5.42,4.37,5.43,-5.43,-4.16,-1.06,-1.05,-1.05
198,4.27,5.32,4.28,5.33,-5.33,-4.12,-1.06,-1.05,-1.05
200,4.14,5.19,4.18,5.24,-5.24,-4.08,-1.10,-1.05,-1.05
202,4.11,5.16,4.09,5.14,-5.14,-4.05,-1.03,-1.06,-1.05
204,4.02,5.07,3.99,5.05,-5.05,-4.02,-1.03,-1.06,-1.06
206,3.95,5.00,3.90,4.95,-4.95,-3.99,-1.00,-1.06,-1.06
208,3.83,4.89,3.80,4.86,-4.86,-3.96,-1.03,-1.06,-1.06
210,3.71,4.77,3.70,4.76,-4.76,-3.94,-1.05,-1.06,-1.06
212,3.63,4.69,3.60,4.66,-4.66,-3.92,-1.03,-1.06,-1.06
214,3.50,4.56,3.50,4.56,-4.56,-3.90,-1.06,-1.06,-1.06
216,3.35,4.41,3.40,4.46,-4.46,-3.88,-1.11,-1.06,-1.06
218,3.24,4.30,3.30,4.36,-4.36,-3.86,-1.12,-1.06,-1.06
221,3.23,4.29,3.20,4.25,-4.25,-3.83,-1.03,-1.06,-1.06
223,3.12,4.18,3.10,4.15,-4.15,-3.82,-1.04,-1.06,-1.06
225,3.00,4.05,3.00,4.06,-4.06,-3.80,-1.06,-1.05,-1.06
227,2.89,3.94,2.91,3.96,-3.96,-3.78,-1.07,-1.05,-1.05
229,2.84,3.89,2.82,3.87,-3.87,-3.77,-1.03,-1.05,-1.05
232,2.76,3.81,2.73,3.78,-3.78,-3.74,-1.02,-1.05,-1.05
234,2.62,3.66,2.65,3.69,-3.69,-3.73,-1.07,-1.04,-1.04
236,2.51,3.55,2.57,3.61,-3.61,-3.71,-1.10,-1.04,-1.04
239,2.41,3.44,2.49,3.52,-3.52,-3.68,-1.11,-1.03,-1.03
241,2.43,3.46,2.42,3.44,-3.44,-3.66,-1.01,-1.03,-1.03
244,2.37,3.39,2.34,3.36,-3.36,-3.63,-0.99,-1.02,-1.02
246,2.28,3.29,2.27,3.28,-3.28,-3.61,-1.00,-1.01,-1.01
248,2.23,3.24,2.19,3.20,-3.20,-3.59,-0.97,-1.01,-1.01
251,2.13,3.13,2.12,3.12,-3.12,-3.55,-0.99,-1.00,-1.00
253,2.05,3.04,2.04,3.03,-3.03,-3.53,-0.98,-0.99,-0.99
256,1.98,2.96,1.95,2.94,-2.94,-3.49,-0.96,-0.98,-0.98
259,1.90,2.88,1.87,2.85,-2.85,-3.45,-0.95,-0.98,-0.98
261,1.82,2.79,1.78,2.75,-2.75,-3.43,-0.93,-0.97,-0.97
264,1.67,2.63,1.69,2.65,-2.65,-3.38,-0.98,-0.96,-0.96
266,1.59,2.54,1.60,2.55,-2.55,-3.36,-0.96,-0.95,-0.95
269,1.50,2.45,1.50,2.45,-2.45,-3.31,-0.95,-0.95,-0.95
272,1.40,2.34,1.41,2.35,-2.35,-3.27,-0.95,-0.94,-0.94
274,1.38,2.31,1.32,2.26,-2.26,-3.24,-0.88,-0.93,-0.93
277,1.28,2.20,1.24,2.16,-2.16,-3.19,-0.88,-0.93,-0.93
280,1.19,2.11,1.16,2.08,-2.08,-3.14,-0.89,-0.92,-0.92
283,1.05,1.96,1.09,2.00,-2.00,-3.10,-0.95,-0.91,-0.91
286,0.91,1.82,1.03,1.93,-1.93,-3.05,-1.02,-0.91,-0.91
288,0.92,1.82,0.97,1.87,-1.87,-3.02,-0.96,-0.90,-0.90
291,0.93,1.82,0.93,1.83,-1.83,-2.98,-0.90,-0.89,-0.89
294,0.89,1.78,0.90,1.79,-1.79,-2.93,-0.90,-0.89,-0.89
297,0.86,1.74,0.88,1.77,-1.77,-2.89,-0.91,-0.88,-0.88
300,0.87,1.75,0.88,1.75,-1.75,-2.85,-0.88,-0.88,-0.88
303,0.88,1.75,0.88,1.75,-1.75,-2.81,-0.87,-0.87,-0.87
306,0.89,1.76,0.88,1.75,-1.75,-2.77,-0.86,-0.87,-0.87
309,0.90,1.76,0.90,1.76,-1.76,-2.73,-0.86,-0.86,-0.86
312,0.90,1.75,0.92,1.77,-1.77,-2.69,-0.88,-0.86,-0.86
316,1.01,1.86,0.94,1.79,-1.79,-2.65,-0.79,-0.85,-0.85
319,1.01,1.85,0.97,1.82,-1.82,-2.61,-0.81,-0.85,-0.85
322,1.01,1.85,1.00,1.84,-1.84,-2.58,-0.83,-0.84,-0.84
325,1.02,1.85,1.04,1.87,-1.87,-2.55,-0.85,-0.84,-0.84
328,1.10,1.93,1.07,1.90,-1.90,-2.52,-0.80,-0.83,-0.83
332,1.10,1.93,1.11,1.94,-1.94,-2.49,-0.84,-0.83,-0.83
335,1.18,2.00,1.15,1.97,-1.97,-2.46,-0.79,-0.82,-0.82
338,1.19,2.01,1.19,2.01,-2.01,-2.44,-0.82,-0.82,-0.82
342,1.19,2.00,1.24,2.05,-2.05,-2.41,-0.86,-0.82,-0.82
345,1.25,2.06,1.28,2.10,-2.10,-2.39,-0.85,-0.81,-0.81
349,1.31,2.12,1.34,2.15,-2.15,-2.37,-0.84,-0.81,-0.81
352,1.38,2.19,1.39,2.20,-2.20,-2.35,-0.82,-0.81,-0.81
356,1.44,2.24,1.45,2.25,-2.25,-2.33,-0.81,-0.81,-0.80
359,1.52,2.32,1.50,2.31,-2.31,-2.32,-0.79,-0.80,-0.80
363,1.57,2.37,1.56,2.36,-2.36,-2.31,-0.79,-0.80,-0.80
366,1.60,2.40,1.61,2.41,-2.41,-2.30,-0.82,-0.80,-0.80
370,1.61,2.41,1.67,2.47,-2.47,-2.29,-0.86,-0.80,-0.80
374,1.81,2.61,1.72,2.51,-2.51,-2.28,-0.70,-0.80,-0.80
377,1.81,2.60,1.76,2.56,-2.56,-2.27,-0.75,-0.80,-0.79
381,1.82,2.61,1.80,2.59,-2.59,-2.27,-0.77,-0.79,-0.79
385,1.83,2.62,1.83,2.62,-2.62,-2.26,-0.79,-0.79,-0.79
389,1.83,2.61,1.86,2.64,-2.64,-2.26,-0.81,-0.78,-0.78
393,1.85,2.63,1.88,2.66,-2.66,-2.26,-0.81,-0.78,-0.78
397,1.93,2.70,1.89,2.66,-2.66,-2.26,-0.73,-0.77,-0.77
401,1.93,2.69,1.90,2.66,-2.66,-2.26,-0.73,-0.76,-0.76
405,1.93,2.68,1.91,2.65,-2.65,-2.26,-0.73,-0.75,-0.75
409,1.93,2.66,1.91,2.64,-2.64,-2.26,-0.71,-0.73,-0.74
413,1.93,2.65,1.90,2.62,-2.62,-2.27,-0.69,-0.72,-0.72
417,1.92,2.62,1.90,2.59,-2.59,-2.27,-0.68,-0.70,-0.70
421,1.89,2.57,1.89,2.57,-2.57,-2.27,-0.68,-0.67,-0.68
425,1.83,2.48,1.89,2.54,-2.54,-2.28,-0.71,-0.65,-0.65
430,1.85,2.47,1.89,2.50,-2.50,-2.28,-0.66,-0.62,-0.62
434,1.86,2.45,1.89,2.47,-2.47,-2.29,-0.61,-0.59,-0.59
438,1.89,2.45,1.89,2.44,-2.44,-2.29,-0.55,-0.55,-0.56
443,1.92,2.44,1.90,2.41,-2.41,-2.30,-0.50,-0.52,-0.52
447,1.88,2.36,1.91,2.39,-2.39,-2.30,-0.51,-0.48,-0.48
451,1.93,2.37,1.93,2.37,-2.37,-2.30,-0.44,-0.44,-0.44
456,1.89,2.29,1.95,2.35,-2.35,-2.30,-0.46,-0.40,-0.40
460,1.95,2.31,1.97,2.33,-2.33,-2.30,-0.38,-0.36,-0.36
465,2.01,2.33,2.00,2.32,-2.32,-2.29,-0.31,-0.32,-0.32
470,2.03,2.31,2.03,2.31,-2.31,-2.29,-0.28,-0.28,-0.28
474,2.04,2.28,2.06,2.30,-2.30,-2.28,-0.26,-0.24,-0.24
479,2.09,2.29,2.09,2.30,-2.30,-2.27,-0.21,-0.21,-0.21
484,2.14,2.31,2.11,2.29,-2.29,-2.26,-0.15,-0.18,-0.17
489,2.17,2.31,2.13,2.28,-2.28,-2.25,-0.11,-0.15,-0.14
494,2.11,2.22,2.15,2.27,-2.27,-2.23,-0.16,-0.12,-0.11
499,2.14,2.23,2.16,2.25,-2.25,-2.21,-0.11,-0.10,-0.09
504,2.17,2.24,2.16,2.23,-2.23,-2.19,-0.07,-0.08,-0.07
509,2.18,2.24,2.15,2.21,-2.21,-2.16,-0.03,-0.06,-0.06
514,2.20,2.24,2.13,2.18,-2.18,-2.13,0.02,-0.05,-0.05
519,2.11,2.15,2.10,2.15,-2.15,-2.10,-0.04,-0.05,-0.04
524,2.10,2.14,2.06,2.11,-2.11,-2.07,-0.01,-0.04,-0.04
529,2.03,2.07,2.01,2.06,-2.06,-2.04,-0.03,-0.04,-0.04
535,1.97,2.01,1.96,2.01,-2.01,-2.00,-0.04,-0.05,-0.04
540,1.90,1.95,1.89,1.95,-1.95,-1.96,-0.05,-0.05,-0.05
545,1.81,1.87,1.82,1.89,-1.89,-1.92,-0.08,-0.06,-0.06
551,1.76,1.83,1.75,1.82,-1.82,-1.87,-0.06,-0.07,-0.07
556,1.71,1.79,1.67,1.75,-1.75,-1.83,-0.05,-0.08,-0.08
562,1.62,1.71,1.60,1.69,-1.69,-1.78,-0.07,-0.09,-0.09
568,1.51,1.61,1.52,1.62,-1.62,-1.73,-0.11,-0.10,-0.10
573,1.41,1.52,1.45,1.56,-1.56,-1.69,-0.15,-0.11,-0.11
579,1.34,1.46,1.39,1.50,-1.50,-1.63,-0.16,-0.11,-0.12
585,1.31,1.43,1.33,1.45,-1.45,-1.58,-0.14,-0.12,-0.12
591,1.21,1.33,1.28,1.40,-1.40,-1.53,-0.19,-0.12,-0.12
596,1.20,1.32,1.24,1.35,-1.35,-1.48,-0.15,-0.11,-0.12
602,1.20,1.31,1.21,1.31,-1.31,-1.43,-0.11,-0.10,-0.11
608,1.21,1.31,1.18,1.28,-1.28,-1.37,-0.07,-0.09,-0.10
615,1.22,1.30,1.17,1.25,-1.25,-1.31,-0.03,-0.08,-0.09
621,1.15,1.22,1.16,1.22,-1.22,-1.26,-0.07,-0.06,-0.07
627,1.18,1.22,1.16,1.20,-1.20,-1.21,-0.02,-0.04,-0.04
633,1.11,1.13,1.16,1.17,-1.17,-1.16,-0.07,-0.01,-0.02
639,1.14,1.13,1.17,1.16,-1.16,-1.10,-0.02,0.01,0.01
646,1.18,1.14,1.18,1.14,-1.14,-1.05,0.04,0.04,0.04
652,1.22,1.15,1.20,1.12,-1.12,-1.00,0.10,0.07,0.07
659,1.23,1.12,1.22,1.11,-1.11,-0.94,0.12,0.11,0.11
665,1.23,1.09,1.24,1.10,-1.10,-0.89,0.13,0.14,0.14
672,1.21,1.03,1.25,1.08,-1.08,-0.84,0.13,0.17,0.18
679,1.23,1.02,1.27,1.06,-1.06,-0.78,0.16,0.21,0.21
686,1.28,1.04,1.28,1.04,-1.04,-0.73,0.23,0.24,0.24
692,1.32,1.04,1.29,1.02,-1.02,-0.69,0.30,0.27,0.28
699,1.26,0.95,1.29,0.99,-0.99,-0.63,0.27,0.30,0.31
706,1.26,0.93,1.27,0.94,-0.94,-0.58,0.31,0.33,0.33
713,1.27,0.91,1.25,0.89,-0.89,-0.53,0.38,0.36,0.36
721,1.26,0.87,1.21,0.82,-0.82,-0.48,0.43,0.38,0.38
728,1.24,0.83,1.15,0.75,-0.75,-0.43,0.49,0.40,0.41
735,1.22,0.79,1.08,0.65,-0.65,-0.39,0.56,0.42,0.43
742,1.11,0.66,0.99,0.55,-0.55,-0.34,0.56,0.44,0.44
750,0.95,0.49,0.90,0.44,-0.44,-0.29,0.51,0.46,0.46
757,0.84,0.36,0.80,0.33,-0.33,-0.25,0.51,0.47,0.47
765,0.71,0.22,0.69,0.21,-0.21,-0.20,0.50,0.49,0.49
773,0.55,0.05,0.59,0.09,-0.09,-0.15,0.46,0.50,0.50
780,0.38,-0.13,0.49,-0.02,0.02,-0.11,0.40,0.51,0.51
788,0.24,-0.28,0.39,-0.13,0.13,-0.06,0.37,0.52,0.52
796,0.13,-0.40,0.30,-0.23,0.23,-0.01,0.35,0.53,0.53
804,0.05,-0.48,0.22,-0.31,0.31,0.03,0.36,0.53,0.53
812,0.09,-0.45,0.15,-0.39,0.39,0.07,0.48,0.54,0.54
820,0.27,-0.28,0.10,-0.45,0.45,0.12,0.72,0.55,0.55
828,0.23,-0.33,0.05,-0.51,0.51,0.16,0.74,0.56,0.55
837,0.14,-0.42,0.01,-0.55,0.55,0.21,0.69,0.56,0.56
845,0.03,-0.54,-0.02,-0.59,0.59,0.25,0.62,0.57,0.57
853,-0.08,-0.66,-0.04,-0.62,0.62,0.29,0.53,0.58,0.58
862,-0.17,-0.75,-0.05,-0.64,0.64,0.33,0.46,0.58,0.58
871,-0.13,-0.72,-0.06,-0.65,0.65,0.37,0.52,0.59,0.59
879,-0.09,-0.69,-0.06,-0.66,0.66,0.41,0.57,0.60,0.60
888,-0.10,-0.71,-0.06,-0.66,0.66,0.45,0.56,0.61,0.61
897,-0.11,-0.73,-0.05,-0.66,0.66,0.49,0.55,0.61,0.61
906,-0.02,-0.64,-0.03,-0.66,0.66,0.53,0.64,0.62,0.62
915,-0.02,-0.65,-0.02,-0.65,0.65,0.57,0.63,0.63,0.63
924,0.06,-0.58,-0.00,-0.65,0.65,0.61,0.71,0.64,0.64
933,0.07,-0.58,0.01,-0.64,0.64,0.64,0.71,0.65,0.65
943,0.07,-0.60,0.02,-0.64,0.64,0.68,0.71,0.66,0.66
952,0.07,-0.61,0.03,-0.65,0.65,0.71,0.72,0.68,0.68
962,0.08,-0.61,0.03,-0.66,0.66,0.75,0.73,0.69,0.69
971,0.08,-0.63,0.04,-0.67,0.67,0.78,0.75,0.70,0.70
981,-0.00,-0.72,0.03,-0.69,0.69,0.82,0.69,0.72,0.72
991,0.01,-0.73,0.03,-0.71,0.71,0.85,0.72,0.74,0.74
1001,-0.00,-0.76,0.02,-0.74,0.74,0.88,0.73,0.76,0.76
1011,-0.05,-0.83,0.01,-0.76,0.76,0.91,0.71,0.78,0.78
1021,-0.03,-0.83,0.01,-0.80,0.80,0.94,0.76,0.80,0.80
1031,-0.00,-0.82,-0.00,-0.83,0.83,0.97,0.83,0.82,0.82
1041,0.03,-0.82,-0.01,-0.86,0.86,1.00,0.89,0.85,0.85
1052,-0.02,-0.90,-0.02,-0.90,0.90,1.03,0.88,0.88,0.88
1062,-0.03,-0.93,-0.03,-0.94,0.94,1.05,0.90,0.91,0.90
1073,-0.04,-0.97,-0.04,-0.97,0.97,1.08,0.93,0.94,0.93
1084,-0.00,-0.97,-0.05,-1.01,1.01,1.11,1.01,0.97,0.97
1094,-0.07,-1.07,-0.06,-1.06,1.06,1.14,0.99,1.00,1.00
1105,-0.06,-1.09,-0.07,-1.10,1.10,1.16,1.04,1.03,1.03
1116,-0.06,-1.13,-0.08,-1.14,1.14,1.19,1.08,1.07,1.07
1128,-0.11,-1.21,-0.09,-1.19,1.19,1.22,1.08,1.10,1.10
1139,-0.13,-1.26,-0.10,-1.24,1.24,1.25,1.10,1.13,1.13
1150,-0.13,-1.30,-0.11,-1.28,1.28,1.27,1.15,1.17,1.17
1162,-0.09,-1.29,-0.13,-1.33,1.33,1.30,1.24,1.20,1.20
1173,-0.12,-1.35,-0.14,-1.37,1.37,1.33,1.25,1.23,1.23
1185,-0.16,-1.42,-0.15,-1.41,1.41,1.36,1.25,1.26,1.26
1197,-0.17,-1.46,-0.16,-1.45,1.45,1.39,1.28,1.29,1.29
1209,-0.17,-1.49,-0.17,-1.49,1.49,1.42,1.32,1.32,1.32
1221,-0.18,-1.52,-0.18,-1.52,1.52,1.45,1.34,1.34,1.34
1233,-0.23,-1.59,-0.20,-1.56,1.56,1.48,1.32,1.36,1.36
1246,-0.23,-1.61,-0.21,-1.59,1.59,1.52,1.36,1.38,1.38
1258,-0.22,-1.62,-0.22,-1.61,1.61,1.55,1.39,1.39,1.40
1271,-0.26,-1.67,-0.24,-1.64,1.64,1.59,1.38,1.41,1.41
1283,-0.23,-1.65,-0.25,-1.67,1.67,1.62,1.44,1.42,1.42
1296,-0.22,-1.65,-0.27,-1.69,1.69,1.66,1.47,1.42,1.43
1309,-0.26,-1.69,-0.29,-1.72,1.72,1.70,1.46,1.43,1.43
1322,-0.27,-1.70,-0.32,-1.75,1.75,1.74,1.47,1.43,1.43
1335,-0.34,-1.77,-0.35,-1.77,1.77,1.78,1.43,1.43,1.43
1349,-0.37,-1.80,-0.37,-1.79,1.79,1.82,1.42,1.42,1.42
1362,-0.44,-1.86,-0.40,-1.82,1.82,1.87,1.38,1.42,1.42
1376,-0.47,-1.88,-0.43,-1.84,1.84,1.91,1.37,1.41,1.41
1390,-0.49,-1.89,-0.47,-1.87,1.87,1.96,1.38,1.40,1.40
1404,-0.49,-1.88,-0.50,-1.89,1.89,2.01,1.40,1.39,1.39
1418,-0.55,-1.94,-0.53,-1.92,1.92,2.06,1.36,1.38,1.38
1432,-0.62,-2.00,-0.57,-1.94,1.94,2.12,1.32,1.38,1.38
1446,-0.62,-1.99,-0.60,-1.97,1.97,2.17,1.35,1.37,1.37
1461,-0.60,-1.96,-0.64,-2.00,2.00,2.23,1.40,1.36,1.36
1475,-0.62,-1.98,-0.68,-2.04,2.04,2.28,1.42,1.36,1.36
1490,-0.65,-2.01,-0.72,-2.08,2.08,2.34,1.43,1.36,1.36
1505,-0.75,-2.11,-0.77,-2.13,2.13,2.40,1.38,1.36,1.36
1520,-0.80,-2.17,-0.81,-2.18,2.18,2.47,1.38,1.37,1.37
1535,-0.85,-2.23,-0.86,-2.24,2.24,2.53,1.39,1.38,1.38
1550,-0.95,-2.34,-0.91,-2.31,2.31,2.59,1.36,1.39,1.39
1566,-1.02,-2.43,-0.97,-2.38,2.38,2.66,1.36,1.41,1.41
1582,-1.04,-2.48,-1.02,-2.46,2.46,2.73,1.41,1.44,1.43
1597,-1.09,-2.55,-1.07,-2.54,2.54,2.79,1.45,1.47,1.46
1613,-1.16,-2.66,-1.12,-2.62,2.62,2.86,1.46,1.50,1.50
1629,-1.19,-2.73,-1.18,-2.72,2.72,2.93,1.53,1.54,1.54
1646,-1.21,-2.80,-1.23,-2.82,2.82,3.01,1.61,1.59,1.58
1662,-1.25,-2.89,-1.29,-2.92,2.92,3.08,1.67,1.64,1.64
1679,-1.35,-3.04,-1.34,-3.04,3.04,3.15,1.69,1.69,1.69
1696,-1.40,-3.15,-1.41,-3.16,3.16,3.22,1.76,1.76,1.75
1713,-1.42,-3.24,-1.47,-3.29,3.29,3.29,1.87,1.82,1.82
1730,-1.47,-3.36,-1.54,-3.43,3.43,3.36,1.96,1.89,1.89
1747,-1.58,-3.55,-1.61,-3.58,3.58,3.43,2.00,1.97,1.97
1764,-1.68,-3.73,-1.69,-3.73,3.73,3.50,2.05,2.05,2.05
1782,-1.77,-3.90,-1.76,-3.90,3.90,3.56,2.12,2.13,2.13
1800,-1.88,-4.10,-1.84,-4.06,4.06,3.63,2.18,2.22,2.22
1818,-1.89,-4.20,-1.92,-4.23,4.23,3.69,2.34,2.31,2.31
1836,-2.00,-4.41,-1.99,-4.40,4.40,3.75,2.40,2.41,2.41
1854,-2.05,-4.56,-2.07,-4.57,4.57,3.81,2.52,2.50,2.50
1873,-2.10,-4.71,-2.13,-4.73,4.73,3.86,2.63,2.60,2.60
1892,-2.15,-4.86,-2.19,-4.89,4.89,3.91,2.74,2.70,2.71
