frequency,raw,error,smoothed,error_smoothed,equalization,parametric_eq,equalized_raw,equalized_smoothed,target
20,1.08,-1.30,1.08,-1.30,1.30,-0.43,2.38,2.38,2.38
21,1.40,-0.98,1.40,-0.98,0.98,-0.48,2.38,2.38,2.38
22,1.70,-0.68,1.70,-0.68,0.68,-0.55,2.38,2.38,2.38
23,1.98,-0.40,1.98,-0.39,0.39,-0.61,2.37,2.38,2.38
24,2.27,-0.11,2.26,-0.12,0.12,-0.68,2.39,2.37,2.37
25,2.56,0.19,2.51,0.14,-0.14,-0.76,2.42,2.37,2.37
26,2.75,0.38,2.75,0.38,-0.38,-0.83,2.37,2.37,2.37
27,2.95,0.58,2.98,0.62,-0.62,-0.91,2.33,2.36,2.36
28,3.14,0.78,3.20,0.83,-0.83,-1.00,2.30,2.36,2.36
29,3.43,1.07,3.40,1.04,-1.04,-1.08,2.39,2.36,2.36
30,3.66,1.31,3.59,1.24,-1.24,-1.16,2.42,2.35,2.35
31,3.74,1.39,3.78,1.43,-1.43,-1.25,2.31,2.35,2.35
32,3.93,1.59,3.95,1.61,-1.61,-1.33,2.31,2.34,2.34
33,4.10,1.77,4.12,1.79,-1.79,-1.42,2.31,2.33,2.33
34,4.29,1.96,4.28,1.95,-1.95,-1.50,2.34,2.33,2.33
35,4.46,2.14,4.42,2.10,-2.10,-1.59,2.36,2.32,2.32
36,4.58,2.27,4.56,2.25,-2.25,-1.69,2.33,2.31,2.31
37,4.68,2.38,4.69,2.38,-2.38,-1.79,2.30,2.30,2.30
38,4.78,2.49,4.80,2.51,-2.51,-1.89,2.27,2.29,2.29
39,4.90,2.62,4.91,2.63,-2.63,-2.00,2.27,2.28,2.28
40,4.98,2.71,5.01,2.73,-2.73,-2.12,2.25,2.27,2.27
41,5.15,2.89,5.09,2.83,-2.83,-2.24,2.32,2.26,2.26
42,5.16,2.91,5.17,2.92,-2.92,-2.38,2.24,2.25,2.25
43,5.26,3.02,5.24,3.00,-3.00,-2.52,2.25,2.24,2.24
44,5.36,3.14,5.30,3.08,-3.08,-2.66,2.28,2.22,2.22
45,5.36,3.15,5.37,3.16,-3.16,-2.82,2.20,2.21,2.21
46,5.43,3.24,5.43,3.24,-3.24,-2.98,2.19,2.19,2.19
47,5.45,3.27,5.50,3.33,-3.33,-3.14,2.12,2.18,2.18
48,5.55,3.39,5.58,3.42,-3.42,-3.31,2.12,2.16,2.16
49,5.64,3.50,5.67,3.53,-3.53,-3.48,2.11,2.14,2.14
50,5.75,3.63,5.77,3.65,-3.65,-3.66,2.10,2.12,2.12
51,5.92,3.82,5.88,3.78,-3.78,-3.83,2.14,2.10,2.10
52,5.95,3.87,5.99,3.91,-3.91,-4.01,2.04,2.08,2.08
53,6.13,4.07,6.10,4.04,-4.04,-4.18,2.09,2.06,2.06
54,6.23,4.19,6.20,4.16,-4.16,-4.35,2.07,2.04,2.04
55,6.32,4.31,6.30,4.28,-4.28,-4.51,2.04,2.01,2.01
56,6.42,4.43,6.38,4.39,-4.39,-4.66,2.03,1.99,1.99
57,6.42,4.45,6.45,4.49,-4.49,-4.80,1.93,1.96,1.96
58,6.51,4.57,6.52,4.58,-4.58,-4.92,1.93,1.94,1.94
59,6.61,4.70,6.57,4.66,-4.66,-5.04,1.95,1.91,1.91
60,6.61,4.73,6.62,4.74,-4.74,-5.14,1.87,1.88,1.88
61,6.61,4.75,6.66,4.81,-4.81,-5.22,1.80,1.85,1.85
62,6.71,4.88,6.70,4.87,-4.87,-5.29,1.84,1.82,1.82
63,6.71,4.92,6.73,4.93,-4.93,-5.34,1.77,1.79,1.79
64,6.80,5.04,6.75,4.99,-4.99,-5.38,1.81,1.76,1.76
65,6.80,5.07,6.77,5.04,-5.04,-5.41,1.76,1.73,1.73
66,6.80,5.10,6.79,5.09,-5.09,-5.42,1.71,1.70,1.70
67,6.80,5.14,6.80,5.14,-5.14,-5.43,1.66,1.66,1.66
68,6.80,5.17,6.82,5.19,-5.19,-5.43,1.61,1.63,1.63
69,6.80,5.21,6.83,5.24,-5.24,-5.42,1.56,1.59,1.59
70,6.80,5.24,6.85,5.29,-5.29,-5.40,1.51,1.56,1.56
71,6.90,5.38,6.87,5.35,-5.35,-5.39,1.55,1.52,1.52
72,6.90,5.42,6.89,5.40,-5.40,-5.37,1.49,1.48,1.48
73,6.90,5.45,6.91,5.46,-5.46,-5.35,1.44,1.45,1.45
74,6.90,5.49,6.92,5.51,-5.51,-5.33,1.39,1.41,1.41
75,6.99,5.62,6.93,5.56,-5.56,-5.32,1.43,1.37,1.37
76,6.99,5.66,6.93,5.61,-5.61,-5.30,1.38,1.33,1.33
77,6.90,5.61,6.93,5.64,-5.64,-5.29,1.26,1.29,1.29
78,6.90,5.65,6.93,5.68,-5.68,-5.29,1.22,1.25,1.25
79,6.90,5.69,6.92,5.71,-5.71,-5.28,1.19,1.21,1.21
80,6.90,5.73,6.91,5.74,-5.74,-5.29,1.16,1.17,1.17
81,6.90,5.77,6.89,5.76,-5.76,-5.29,1.14,1.13,1.13
82,6.90,5.81,6.88,5.79,-5.79,-5.31,1.11,1.09,1.09
83,6.90,5.85,6.86,5.81,-5.81,-5.32,1.09,1.05,1.05
84,6.80,5.80,6.84,5.84,-5.84,-5.35,0.96,1.00,1.00
85,6.80,5.84,6.82,5.86,-5.86,-5.38,0.94,0.96,0.96
86,6.80,5.88,6.81,5.88,-5.88,-5.41,0.91,0.92,0.92
87,6.80,5.92,6.79,5.91,-5.91,-5.45,0.89,0.88,0.88
88,6.80,5.96,6.77,5.93,-5.93,-5.49,0.87,0.84,0.84
89,6.76,5.96,6.75,5.96,-5.96,-5.54,0.80,0.80,0.80
90,6.71,5.95,6.74,5.99,-5.99,-5.59,0.72,0.75,0.75
91,6.71,6.00,6.72,6.01,-6.01,-5.65,0.70,0.71,0.71
92,6.71,6.04,6.71,6.04,-6.04,-5.71,0.67,0.67,0.67
93,6.71,6.08,6.69,6.06,-6.06,-5.78,0.64,0.63,0.63
94,6.71,6.12,6.68,6.09,-6.09,-5.85,0.62,0.59,0.59
95,6.71,6.16,6.67,6.12,-6.12,-5.92,0.59,0.55,0.55
96,6.63,6.12,6.65,6.14,-6.14,-6.00,0.48,0.51,0.51
97,6.61,6.14,6.65,6.18,-6.18,-6.08,0.43,0.47,0.47
98,6.60,6.17,6.64,6.21,-6.21,-6.17,0.39,0.43,0.43
99,6.68,6.29,6.64,6.26,-6.26,-6.25,0.42,0.39,0.39
100,6.67,6.32,6.65,6.30,-6.30,-6.34,0.37,0.34,0.35
101,6.65,6.34,6.66,6.36,-6.36,-6.43,0.29,0.30,0.31
102,6.63,6.36,6.68,6.42,-6.42,-6.52,0.21,0.26,0.27
104,6.70,6.50,6.70,6.48,-6.48,-6.70,0.22,0.21,0.20
105,6.74,6.58,6.72,6.55,-6.55,-6.79,0.19,0.17,0.16
106,6.75,6.62,6.75,6.62,-6.62,-6.89,0.13,0.13,0.13
107,6.81,6.72,6.78,6.68,-6.68,-6.98,0.13,0.09,0.09
108,6.80,6.74,6.81,6.75,-6.75,-7.06,0.05,0.06,0.06
109,6.78,6.75,6.83,6.81,-6.81,-7.15,-0.03,0.02,0.02
110,6.79,6.80,6.86,6.86,-6.86,-7.24,-0.07,-0.01,-0.01
111,6.91,6.95,6.87,6.91,-6.91,-7.32,0.00,-0.04,-0.04
112,6.93,7.00,6.87,6.94,-6.94,-7.39,-0.01,-0.07,-0.07
113,6.92,7.02,6.86,6.96,-6.96,-7.47,-0.05,-0.10,-0.10
114,6.85,6.97,6.84,6.97,-6.97,-7.53,-0.12,-0.13,-0.13
115,6.81,6.96,6.81,6.97,-6.97,-7.60,-0.16,-0.16,-0.15
117,6.77,6.98,6.76,6.95,-6.95,-7.71,-0.18,-0.19,-0.21
118,6.69,6.92,6.71,6.93,-6.93,-7.75,-0.24,-0.22,-0.23
119,6.62,6.87,6.65,6.90,-6.90,-7.79,-0.28,-0.25,-0.25
120,6.54,6.82,6.59,6.87,-6.87,-7.82,-0.33,-0.28,-0.28
121,6.55,6.85,6.53,6.84,-6.84,-7.85,-0.29,-0.31,-0.30
123,6.49,6.83,6.47,6.80,-6.80,-7.88,-0.31,-0.33,-0.34
124,6.39,6.75,6.41,6.77,-6.77,-7.88,-0.38,-0.36,-0.36
125,6.38,6.76,6.36,6.74,-6.74,-7.87,-0.36,-0.38,-0.38
126,6.36,6.76,6.31,6.71,-6.71,-7.86,-0.36,-0.41,-0.40
128,6.25,6.69,6.26,6.69,-6.69,-7.82,-0.44,-0.43,-0.44
129,6.20,6.65,6.22,6.68,-6.68,-7.79,-0.48,-0.45,-0.45
130,6.21,6.68,6.20,6.67,-6.67,-7.76,-0.46,-0.47,-0.47
131,6.18,6.66,6.18,6.68,-6.68,-7.71,-0.50,-0.49,-0.48
133,6.12,6.64,6.18,6.70,-6.70,-7.61,-0.58,-0.51,-0.52
134,6.17,6.70,6.20,6.73,-6.73,-7.56,-0.56,-0.54,-0.54
135,6.23,6.78,6.22,6.78,-6.78,-7.50,-0.55,-0.56,-0.55
137,6.23,6.81,6.26,6.84,-6.84,-7.37,-0.61,-0.58,-0.58
138,6.29,6.88,6.30,6.90,-6.90,-7.30,-0.61,-0.60,-0.60
140,6.38,7.01,6.34,6.96,-6.96,-7.15,-0.58,-0.62,-0.63
141,6.43,7.07,6.38,7.02,-7.02,-7.07,-0.59,-0.64,-0.64
142,6.43,7.08,6.41,7.07,-7.07,-7.00,-0.64,-0.66,-0.65
144,6.43,7.11,6.42,7.10,-7.10,-6.84,-0.67,-0.68,-0.68
145,6.43,7.13,6.42,7.12,-7.12,-6.76,-0.69,-0.70,-0.70
147,6.39,7.11,6.41,7.13,-7.13,-6.60,-0.74,-0.72,-0.73
148,6.33,7.07,6.38,7.12,-7.12,-6.52,-0.79,-0.74,-0.74
150,6.33,7.10,6.34,7.10,-7.10,-6.36,-0.77,-0.76,-0.77
151,6.33,7.11,6.28,7.06,-7.06,-6.28,-0.73,-0.78,-0.78
153,6.17,6.97,6.20,7.00,-7.00,-6.13,-0.83,-0.80,-0.81
154,6.09,6.91,6.09,6.91,-6.91,-6.05,-0.83,-0.82,-0.82
156,6.05,6.89,5.97,6.81,-6.81,-5.91,-0.76,-0.84,-0.84
157,5.96,6.81,5.83,6.69,-6.69,-5.83,-0.73,-0.86,-0.85
159,5.69,6.57,5.68,6.56,-6.56,-5.69,-0.87,-0.88,-0.88
160,5.58,6.47,5.53,6.43,-6.43,-5.63,-0.85,-0.89,-0.89
162,5.37,6.28,5.40,6.31,-6.31,-5.50,-0.94,-0.91,-0.91
164,5.13,6.06,5.29,6.22,-6.22,-5.37,-1.09,-0.93,-0.93
165,5.12,6.06,5.21,6.15,-6.15,-5.31,-1.03,-0.94,-0.94
167,5.07,6.03,5.17,6.13,-6.13,-5.20,-1.06,-0.96,-0.96
169,5.08,6.05,5.16,6.13,-6.13,-5.09,-1.05,-0.97,-0.97
170,5.15,6.13,5.17,6.15,-6.15,-5.04,-1.01,-0.98,-0.98
172,5.27,6.26,5.20,6.19,-6.19,-4.94,-0.92,-0.99,-0.99
174,5.33,6.33,5.22,6.22,-6.22,-4.84,-0.89,-1.00,-1.01
175,5.33,6.34,5.22,6.23,-6.23,-4.80,-0.91,-1.01,-1.01
177,5.28,6.30,5.21,6.23,-6.23,-4.71,-0.95,-1.02,-1.02
179,5.18,6.21,5.17,6.19,-6.19,-4.63,-1.02,-1.03,-1.03
181,5.04,6.07,5.11,6.14,-6.14,-4.56,-1.10,-1.03,-1.03
183,5.00,6.04,5.02,6.06,-6.06,-4.49,-1.06,-1.04,-1.04
184,4.96,6.00,4.93,5.97,-5.97,-4.46,-1.01,-1.04,-1.04
186,4.83,5.87,4.83,5.87,-5.87,-4.39,-1.04,-1.04,-1.04
188,4.70,5.74,4.73,5.77,-5.77,-4.34,-1.07,-1.05,-1.05
190,4.62,5.67,4.63,5.67,-5.67,-4.28,-1.05,-1.05,-1.05
192,4.50,5.55,4.53,5.58,-5.58,-4.23,-1.08,-1.05,-1.05
194,4.42,5.47,4.44,5.49,-5.49,-4.19,-1.07,-1.05,-1.05
196,4.37,5.42,4.35,5.40,-5.40,-4.14,-1.03,-1.05,-1.05
198,4.27,5.32,4.26,5.32,-5.32,-4.11,-1.05,-1.05,-1.05
200,4.14,5.19,4.18,5.23,-5.23,-4.07,-1.10,-1.05,-1.05
202,4.11,5.16,4.09,5.15,-5.15,-4.04,-1.04,-1.05,-1.05
204,4.02,5.07,4.01,5.06,-5.06,-4.01,-1.04,-1.06,-1.06
206,3.95,5.00,3.91,4.97,-4.97,-3.98,-1.02,-1.06,-1.06
208,3.83,4.89,3.81,4.87,-4.87,-3.95,-1.04,-1.06,-1.06
210,3.71,4.77,3.71,4.77,-4.77,-3.93,-1.06,-1.06,-1.06
212,3.63,4.69,3.61,4.66,-4.66,-3.91,-1.04,-1.06,-1.06
214,3.50,4.56,3.50,4.56,-4.56,-3.89,-1.06,-1.06,-1.06
216,3.35,4.41,3.40,4.45,-4.45,-3.87,-1.11,-1.06,-1.06
218,3.24,4.30,3.29,4.35,-4.35,-3.85,-1.11,-1.06,-1.06
221,3.23,4.29,3.19,4.25,-4.25,-3.82,-1.02,-1.06,-1.06
223,3.12,4.18,3.09,4.15,-4.15,-3.81,-1.03,-1.06,-1.06
225,3.00,4.05,3.00,4.05,-4.05,-3.79,-1.05,-1.05,-1.06
227,2.89,3.94,2.90,3.96,-3.96,-3.77,-1.07,-1.05,-1.05
229,2.84,3.89,2.81,3.86,-3.86,-3.76,-1.02,-1.05,-1.05
232,2.76,3.81,2.72,3.77,-3.77,-3.73,-1.01,-1.05,-1.05
234,2.62,3.66,2.64,3.68,-3.68,-3.71,-1.06,-1.04,-1.04
236,2.51,3.55,2.56,3.59,-3.59,-3.70,-1.08,-1.04,-1.04
239,2.41,3.44,2.48,3.51,-3.51,-3.67,-1.10,-1.03,-1.03
241,2.43,3.46,2.41,3.44,-3.44,-3.65,-1.01,-1.03,-1.03
244,2.37,3.39,2.34,3.36,-3.36,-3.62,-0.99,-1.02,-1.02
246,2.28,3.29,2.27,3.29,-3.29,-3.60,-1.01,-1.01,-1.01
248,2.23,3.24,2.20,3.21,-3.21,-3.58,-0.98,-1.01,-1.01
251,2.13,3.13,2.13,3.13,-3.13,-3.54,-1.00,-1.00,-1.00
253,2.05,3.04,2.05,3.05,-3.05,-3.52,-1.00,-0.99,-0.99
256,1.98,2.96,1.97,2.95,-2.95,-3.48,-0.98,-0.98,-0.98
259,1.90,2.88,1.88,2.86,-2.86,-3.44,-0.96,-0.98,-0.98
261,1.82,2.79,1.79,2.76,-2.76,-3.42,-0.94,-0.97,-0.97
264,1.67,2.63,1.70,2.66,-2.66,-3.37,-0.99,-0.96,-0.96
266,1.59,2.54,1.61,2.56,-2.56,-3.35,-0.97,-0.95,-0.95
269,1.50,2.45,1.51,2.46,-2.46,-3.30,-0.96,-0.95,-0.95
272,1.40,2.34,1.42,2.36,-2.36,-3.26,-0.96,-0.94,-0.94
274,1.38,2.31,1.33,2.26,-2.26,-3.23,-0.88,-0.93,-0.93
277,1.28,2.20,1.24,2.16,-2.16,-3.18,-0.88,-0.93,-0.93
280,1.19,2.11,1.15,2.07,-2.07,-3.14,-0.88,-0.92,-0.92
283,1.05,1.96,1.07,1.99,-1.99,-3.09,-0.94,-0.91,-0.91
286,0.91,1.82,1.00,1.91,-1.91,-3.04,-1.00,-0.91,-0.91
288,0.92,1.82,0.95,1.85,-1.85,-3.01,-0.93,-0.90,-0.90
291,0.93,1.82,0.91,1.80,-1.80,-2.97,-0.87,-0.90,-0.89
294,0.89,1.78,0.88,1.77,-1.77,-2.93,-0.88,-0.89,-0.89
297,0.86,1.74,0.87,1.75,-1.75,-2.88,-0.89,-0.88,-0.88
300,0.87,1.75,0.86,1.74,-1.74,-2.84,-0.87,-0.88,-0.88
303,0.88,1.75,0.87,1.74,-1.74,-2.80,-0.86,-0.87,-0.87
306,0.89,1.76,0.89,1.75,-1.75,-2.76,-0.86,-0.87,-0.87
309,0.90,1.76,0.91,1.77,-1.77,-2.72,-0.87,-0.86,-0.86
312,0.90,1.75,0.93,1.79,-1.79,-2.69,-0.89,-0.86,-0.86
316,1.01,1.86,0.96,1.81,-1.81,-2.64,-0.80,-0.85,-0.85
319,1.01,1.85,0.99,1.83,-1.83,-2.61,-0.82,-0.85,-0.85
322,1.01,1.85,1.02,1.86,-1.86,-2.57,-0.85,-0.84,-0.84
325,1.02,1.85,1.05,1.88,-1.88,-2.54,-0.86,-0.84,-0.84
328,1.10,1.93,1.08,1.91,-1.91,-2.52,-0.81,-0.83,-0.83
332,1.10,1.93,1.11,1.94,-1.94,-2.48,-0.84,-0.83,-0.83
335,1.18,2.00,1.14,1.97,-1.97,-2.46,-0.79,-0.82,-0.82
338,1.19,2.01,1.18,2.00,-2.00,-2.43,-0.81,-0.82,-0.82
342,1.19,2.00,1.22,2.04,-2.04,-2.41,-0.85,-0.82,-0.82
345,1.25,2.06,1.27,2.08,-2.08,-2.39,-0.83,-0.81,-0.81
349,1.31,2.12,1.32,2.13,-2.13,-2.36,-0.82,-0.81,-0.81
352,1.38,2.19,1.38,2.18,-2.18,-2.35,-0.81,-0.81,-0.81
356,1.44,2.24,1.44,2.24,-2.24,-2.33,-0.80,-0.81,-0.80
359,1.52,2.32,1.50,2.30,-2.30,-2.32,-0.78,-0.80,-0.80
363,1.57,2.37,1.56,2.36,-2.36,-2.30,-0.79,-0.80,-0.80
366,1.60,2.40,1.62,2.42,-2.42,-2.29,-0.82,-0.80,-0.80
370,1.61,2.41,1.68,2.47,-2.47,-2.28,-0.87,-0.80,-0.80
374,1.81,2.61,1.73,2.52,-2.52,-2.27,-0.71,-0.80,-0.80
377,1.81,2.60,1.77,2.57,-2.57,-2.27,-0.76,-0.79,-0.79
381,1.82,2.61,1.81,2.60,-2.60,-2.26,-0.78,-0.79,-0.79
385,1.83,2.62,1.84,2.63,-2.63,-2.26,-0.80,-0.79,-0.79
389,1.83,2.61,1.87,2.65,-2.65,-2.25,-0.82,-0.78,-0.78
393,1.85,2.63,1.89,2.67,-2.67,-2.25,-0.82,-0.78,-0.78
397,1.93,2.70,1.90,2.67,-2.67,-2.25,-0.74,-0.77,-0.77
401,1.93,2.69,1.91,2.67,-2.67,-2.25,-0.75,-0.76,-0.76
405,1.93,2.68,1.92,2.67,-2.67,-2.26,-0.74,-0.75,-0.75
409,1.93,2.66,1.92,2.65,-2.65,-2.26,-0.72,-0.73,-0.74
413,1.93,2.65,1.91,2.63,-2.63,-2.26,-0.70,-0.72,-0.72
417,1.92,2.62,1.90,2.60,-2.60,-2.27,-0.68,-0.70,-0.70
421,1.89,2.57,1.89,2.57,-2.57,-2.27,-0.68,-0.68,-0.68
425,1.83,2.48,1.88,2.53,-2.53,-2.28,-0.70,-0.65,-0.65
430,1.85,2.47,1.87,2.50,-2.50,-2.28,-0.65,-0.62,-0.62
434,1.86,2.45,1.87,2.46,-2.46,-2.28,-0.60,-0.59,-0.59
438,1.89,2.45,1.87,2.43,-2.43,-2.29,-0.54,-0.56,-0.56
443,1.92,2.44,1.88,2.40,-2.40,-2.29,-0.48,-0.52,-0.52
447,1.88,2.36,1.89,2.38,-2.38,-2.29,-0.50,-0.48,-0.48
451,1.93,2.37,1.91,2.36,-2.36,-2.29,-0.43,-0.44,-0.44
456,1.89,2.29,1.94,2.34,-2.34,-2.29,-0.45,-0.40,-0.40
460,1.95,2.31,1.96,2.33,-2.33,-2.29,-0.38,-0.36,-0.36
465,2.01,2.33,1.99,2.31,-2.31,-2.29,-0.31,-0.32,-0.32
470,2.03,2.31,2.02,2.31,-2.31,-2.28,-0.28,-0.28,-0.28
474,2.04,2.28,2.05,2.30,-2.30,-2.28,-0.26,-0.24,-0.24
479,2.09,2.29,2.09,2.29,-2.29,-2.27,-0.20,-0.21,-0.21
484,2.14,2.31,2.11,2.29,-2.29,-2.26,-0.15,-0.17,-0.17
489,2.17,2.31,2.14,2.28,-2.28,-2.24,-0.11,-0.14,-0.14
494,2.11,2.22,2.15,2.27,-2.27,-2.22,-0.16,-0.11,-0.11
499,2.14,2.23,2.17,2.26,-2.26,-2.20,-0.12,-0.09,-0.09
504,2.17,2.24,2.17,2.24,-2.24,-2.18,-0.07,-0.07,-0.07
509,2.18,2.24,2.16,2.22,-2.22,-2.16,-0.04,-0.06,-0.06
514,2.20,2.24,2.15,2.19,-2.19,-2.13,0.00,-0.05,-0.05
519,2.11,2.15,2.12,2.16,-2.16,-2.10,-0.05,-0.04,-0.04
524,2.10,2.14,2.08,2.12,-2.12,-2.07,-0.02,-0.04,-0.04
529,2.03,2.07,2.03,2.07,-2.07,-2.04,-0.04,-0.04,-0.04
535,1.97,2.01,1.97,2.02,-2.02,-1.99,-0.05,-0.05,-0.04
540,1.90,1.95,1.91,1.96,-1.96,-1.96,-0.06,-0.05,-0.05
545,1.81,1.87,1.83,1.89,-1.89,-1.92,-0.09,-0.06,-0.06
551,1.76,1.83,1.75,1.83,-1.83,-1.87,-0.07,-0.07,-0.07
556,1.71,1.79,1.67,1.76,-1.76,-1.83,-0.05,-0.08,-0.08
562,1.62,1.71,1.59,1.68,-1.68,-1.78,-0.06,-0.09,-0.09
568,1.51,1.61,1.51,1.61,-1.61,-1.73,-0.10,-0.10,-0.10
573,1.41,1.52,1.43,1.54,-1.54,-1.68,-0.14,-0.11,-0.11
579,1.34,1.46,1.36,1.48,-1.48,-1.63,-0.14,-0.12,-0.12
585,1.31,1.43,1.31,1.43,-1.43,-1.58,-0.12,-0.12,-0.12
591,1.21,1.33,1.26,1.38,-1.38,-1.52,-0.17,-0.12,-0.12
596,1.20,1.32,1.22,1.34,-1.34,-1.48,-0.14,-0.12,-0.12
602,1.20,1.31,1.20,1.31,-1.31,-1.43,-0.11,-0.11,-0.11
608,1.21,1.31,1.18,1.28,-1.28,-1.37,-0.07,-0.10,-0.10
615,1.22,1.30,1.17,1.25,-1.25,-1.31,-0.03,-0.08,-0.09
621,1.15,1.22,1.16,1.23,-1.23,-1.26,-0.08,-0.07,-0.07
627,1.18,1.22,1.16,1.20,-1.20,-1.21,-0.02,-0.04,-0.04
633,1.11,1.13,1.16,1.18,-1.18,-1.15,-0.07,-0.02,-0.02
639,1.14,1.13,1.17,1.16,-1.16,-1.10,-0.02,0.01,0.01
646,1.18,1.14,1.18,1.14,-1.14,-1.04,0.04,0.04,0.04
652,1.22,1.15,1.19,1.12,-1.12,-0.99,0.10,0.07,0.07
659,1.23,1.12,1.21,1.10,-1.10,-0.94,0.13,0.11,0.11
665,1.23,1.09,1.22,1.08,-1.08,-0.89,0.15,0.14,0.14
672,1.21,1.03,1.24,1.06,-1.06,-0.83,0.15,0.18,0.18
679,1.23,1.02,1.25,1.05,-1.05,-0.78,0.18,0.21,0.21
686,1.28,1.04,1.27,1.03,-1.03,-0.73,0.25,0.24,0.24
692,1.32,1.04,1.28,1.01,-1.01,-0.68,0.31,0.27,0.28
699,1.26,0.95,1.29,0.99,-0.99,-0.63,0.27,0.30,0.31
706,1.26,0.93,1.29,0.96,-0.96,-0.58,0.30,0.33,0.33
713,1.27,0.91,1.28,0.92,-0.92,-0.53,0.35,0.36,0.36
721,1.26,0.87,1.26,0.87,-0.87,-0.48,0.39,0.38,0.38
728,1.24,0.83,1.21,0.81,-0.81,-0.43,0.43,0.41,0.41
735,1.22,0.79,1.15,0.72,-0.72,-0.38,0.50,0.43,0.43
742,1.11,0.66,1.05,0.61,-0.61,-0.34,0.50,0.44,0.44
750,0.95,0.49,0.94,0.48,-0.48,-0.29,0.47,0.46,0.46
757,0.84,0.36,0.81,0.34,-0.34,-0.24,0.50,0.47,0.47
765,0.71,0.22,0.68,0.19,-0.19,-0.20,0.52,0.49,0.49
773,0.55,0.05,0.54,0.05,-0.05,-0.15,0.50,0.50,0.50
780,0.38,-0.13,0.42,-0.09,0.09,-0.11,0.47,0.51,0.51
788,0.24,-0.28,0.32,-0.20,0.20,-0.06,0.44,0.52,0.52
796,0.13,-0.40,0.24,-0.29,0.29,-0.01,0.41,0.53,0.53
804,0.05,-0.48,0.18,-0.35,0.35,0.03,0.40,0.53,0.53
812,0.09,-0.45,0.14,-0.40,0.40,0.08,0.49,0.54,0.54
820,0.27,-0.28,0.11,-0.44,0.44,0.12,0.71,0.55,0.55
828,0.23,-0.33,0.08,-0.48,0.48,0.16,0.71,0.55,0.55
837,0.14,-0.42,0.04,-0.52,0.52,0.21,0.66,0.56,0.56
845,0.03,-0.54,0.01,-0.56,0.56,0.25,0.59,0.57,0.57
853,-0.08,-0.66,-0.03,-0.60,0.60,0.29,0.52,0.58,0.58
862,-0.17,-0.75,-0.06,-0.64,0.64,0.33,0.47,0.58,0.58
871,-0.13,-0.72,-0.08,-0.67,0.67,0.38,0.54,0.59,0.59
879,-0.09,-0.69,-0.10,-0.69,0.69,0.41,0.60,0.60,0.60
888,-0.10,-0.71,-0.09,-0.70,0.70,0.45,0.60,0.61,0.61
897,-0.11,-0.73,-0.07,-0.69,0.69,0.49,0.58,0.61,0.61
906,-0.02,-0.64,-0.05,-0.67,0.67,0.53,0.65,0.62,0.62
915,-0.02,-0.65,-0.01,-0.65,0.65,0.57,0.62,0.63,0.63
924,0.06,-0.58,0.02,-0.63,0.63,0.61,0.68,0.64,0.64
933,0.07,-0.58,0.04,-0.61,0.61,0.64,0.68,0.65,0.65
943,0.07,-0.60,0.06,-0.61,0.61,0.68,0.68,0.66,0.66
952,0.07,-0.61,0.06,-0.61,0.61,0.72,0.68,0.68,0.68
962,0.08,-0.61,0.06,-0.63,0.63,0.75,0.71,0.69,0.69
971,0.08,-0.63,0.05,-0.66,0.66,0.78,0.74,0.70,0.70
981,-0.00,-0.72,0.03,-0.69,0.69,0.82,0.69,0.72,0.72
991,0.01,-0.73,0.02,-0.72,0.72,0.85,0.73,0.74,0.74
1001,-0.00,-0.76,0.01,-0.75,0.75,0.88,0.75,0.76,0.76
1011,-0.05,-0.83,-0.00,-0.78,0.78,0.91,0.73,0.78,0.78
1021,-0.03,-0.83,-0.01,-0.81,0.81,0.94,0.78,0.80,0.80
1031,-0.00,-0.82,-0.01,-0.84,0.84,0.97,0.84,0.82,0.82
1041,0.03,-0.82,-0.02,-0.87,0.87,1.00,0.89,0.85,0.85
1052,-0.02,-0.90,-0.02,-0.90,0.90,1.03,0.87,0.88,0.88
1062,-0.03,-0.93,-0.02,-0.93,0.93,1.06,0.90,0.90,0.90
1073,-0.04,-0.97,-0.03,-0.96,0.96,1.08,0.92,0.93,0.93
1084,-0.00,-0.97,-0.04,-1.01,1.01,1.11,1.00,0.97,0.97
1094,-0.07,-1.07,-0.05,-1.05,1.05,1.14,0.98,1.00,1.00
1105,-0.06,-1.09,-0.06,-1.10,1.10,1.16,1.03,1.03,1.03
1116,-0.06,-1.13,-0.08,-1.14,1.14,1.19,1.08,1.07,1.07
1128,-0.11,-1.21,-0.09,-1.19,1.19,1.22,1.08,1.10,1.10
1139,-0.13,-1.26,-0.10,-1.24,1.24,1.25,1.11,1.13,1.13
1150,-0.13,-1.30,-0.12,-1.28,1.28,1.27,1.15,1.17,1.17
1162,-0.09,-1.29,-0.13,-1.33,1.33,1.30,1.24,1.20,1.20
1173,-0.12,-1.35,-0.14,-1.37,1.37,1.33,1.25,1.23,1.23
1185,-0.16,-1.42,-0.15,-1.42,1.42,1.36,1.25,1.26,1.26
1197,-0.17,-1.46,-0.17,-1.46,1.46,1.39,1.29,1.29,1.29
1209,-0.17,-1.49,-0.18,-1.50,1.50,1.42,1.33,1.32,1.32
1221,-0.18,-1.52,-0.19,-1.53,1.53,1.45,1.35,1.34,1.34
1233,-0.23,-1.59,-0.20,-1.57,1.57,1.48,1.34,1.36,1.36
1246,-0.23,-1.61,-0.21,-1.59,1.59,1.52,1.36,1.38,1.38
1258,-0.22,-1.62,-0.22,-1.62,1.62,1.55,1.40,1.40,1.40
1271,-0.26,-1.67,-0.23,-1.64,1.64,1.59,1.38,1.41,1.41
1283,-0.23,-1.65,-0.24,-1.66,1.66,1.62,1.43,1.42,1.42
1296,-0.22,-1.65,-0.26,-1.68,1.68,1.66,1.46,1.43,1.43
1309,-0.26,-1.69,-0.28,-1.71,1.71,1.70,1.45,1.43,1.43
1322,-0.27,-1.70,-0.30,-1.73,1.73,1.74,1.46,1.43,1.43
1335,-0.34,-1.77,-0.34,-1.77,1.77,1.78,1.42,1.43,1.43
1349,-0.37,-1.80,-0.37,-1.80,1.80,1.82,1.43,1.42,1.42
1362,-0.44,-1.86,-0.41,-1.83,1.83,1.87,1.39,1.42,1.42
1376,-0.47,-1.88,-0.45,-1.86,1.86,1.92,1.39,1.41,1.41
1390,-0.49,-1.89,-0.48,-1.89,1.89,1.96,1.40,1.40,1.40
1404,-0.49,-1.88,-0.52,-1.91,1.91,2.01,1.42,1.39,1.39
1418,-0.55,-1.94,-0.54,-1.93,1.93,2.07,1.38,1.38,1.38
1432,-0.62,-2.00,-0.57,-1.95,1.95,2.12,1.33,1.38,1.38
1446,-0.62,-1.99,-0.60,-1.97,1.97,2.17,1.34,1.37,1.37
1461,-0.60,-1.96,-0.63,-1.99,1.99,2.23,1.39,1.36,1.36
1475,-0.62,-1.98,-0.66,-2.02,2.02,2.28,1.40,1.36,1.36
1490,-0.65,-2.01,-0.70,-2.06,2.06,2.34,1.41,1.36,1.36
1505,-0.75,-2.11,-0.75,-2.11,2.11,2.41,1.36,1.36,1.36
1520,-0.80,-2.17,-0.80,-2.17,2.17,2.47,1.37,1.37,1.37
1535,-0.85,-2.23,-0.86,-2.24,2.24,2.53,1.39,1.38,1.38
1550,-0.95,-2.34,-0.92,-2.32,2.32,2.59,1.36,1.39,1.39
1566,-1.02,-2.43,-0.98,-2.39,2.39,2.66,1.37,1.41,1.41
1582,-1.04,-2.48,-1.04,-2.47,2.47,2.73,1.43,1.43,1.43
1597,-1.09,-2.55,-1.09,-2.56,2.56,2.80,1.46,1.46,1.46
1613,-1.16,-2.66,-1.14,-2.64,2.64,2.87,1.48,1.50,1.50
1629,-1.19,-2.73,-1.19,-2.72,2.72,2.94,1.53,1.54,1.54
1646,-1.21,-2.80,-1.23,-2.82,2.82,3.01,1.60,1.58,1.58
1662,-1.25,-2.89,-1.28,-2.91,2.91,3.08,1.66,1.64,1.64
1679,-1.35,-3.04,-1.33,-3.02,3.02,3.15,1.67,1.69,1.69
1696,-1.40,-3.15,-1.39,-3.14,3.14,3.22,1.74,1.75,1.75
1713,-1.42,-3.24,-1.45,-3.27,3.27,3.29,1.85,1.82,1.82
1730,-1.47,-3.36,-1.52,-3.41,3.41,3.36,1.94,1.89,1.89
1747,-1.58,-3.55,-1.60,-3.56,3.56,3.43,1.98,1.97,1.97
1764,-1.68,-3.73,-1.67,-3.72,3.72,3.50,2.04,2.05,2.05
1782,-1.77,-3.90,-1.76,-3.89,3.89,3.57,2.12,2.13,2.13
1800,-1.88,-4.10,-1.84,-4.06,4.06,3.63,2.18,2.22,2.22
1818,-1.89,-4.20,-1.91,-4.23,4.23,3.69,2.34,2.31,2.31
1836,-2.00,-4.41,-1.99,-4.39,4.39,3.75,2.39,2.41,2.41
1854,-2.05,-4.56,-2.05,-4.56,4.56,3.81,2.51,2.50,2.50
1873,-2.10,-4.71,-2.12,-4.72,4.72,3.86,2.62,2.60,2.60
1892,-2.15,-4.86,-2.17,-4.88,4.88,3.91,2.72,2.71,2.71
