frequency,raw,error,smoothed,error_smoothed,equalization,parametric_eq,fixed_band_eq,equalized_raw,equalized_smoothed,target
20.00,8.81,0.95,8.81,0.95,-0.96,-1.17,-0.72,7.86,7.85,7.86
20.20,8.80,0.95,8.81,0.96,-0.96,-1.18,-0.74,7.84,7.85,7.85
20.40,8.80,0.96,8.80,0.97,-0.97,-1.19,-0.76,7.84,7.84,7.84
20.61,8.80,0.97,8.80,0.98,-0.97,-1.20,-0.78,7.83,7.83,7.83
20.81,8.80,1.00,8.80,0.99,-0.98,-1.21,-0.80,7.82,7.82,7.81
21.02,8.80,1.01,8.81,1.01,-1.00,-1.22,-0.82,7.81,7.81,7.80
21.23,8.81,1.03,8.81,1.02,-1.01,-1.23,-0.84,7.80,7.80,7.79
21.44,8.81,1.02,8.82,1.03,-1.03,-1.24,-0.86,7.78,7.79,7.80
21.66,8.82,1.05,8.83,1.05,-1.05,-1.25,-0.89,7.77,7.78,7.78
21.87,8.84,1.07,8.84,1.07,-1.07,-1.26,-0.91,7.77,7.77,7.78
22.09,8.85,1.10,8.86,1.10,-1.10,-1.27,-0.94,7.76,7.76,7.76
22.31,8.87,1.12,8.88,1.12,-1.13,-1.29,-0.96,7.75,7.75,7.75
22.54,8.90,1.16,8.90,1.16,-1.16,-1.30,-0.99,7.74,7.74,7.74
22.76,8.93,1.19,8.93,1.19,-1.19,-1.31,-1.02,7.74,7.74,7.74
22.99,8.96,1.23,8.96,1.23,-1.23,-1.32,-1.04,7.73,7.73,7.73
23.22,8.99,1.27,8.99,1.26,-1.26,-1.33,-1.07,7.73,7.73,7.72
23.45,9.02,1.29,9.02,1.30,-1.30,-1.35,-1.10,7.73,7.73,7.73
23.69,9.05,1.33,9.05,1.33,-1.33,-1.36,-1.13,7.73,7.73,7.72
23.92,9.08,1.37,9.08,1.36,-1.35,-1.37,-1.16,7.73,7.73,7.71
24.16,9.10,1.38,9.10,1.38,-1.38,-1.39,-1.19,7.73,7.73,7.72
24.40,9.11,1.39,9.11,1.40,-1.39,-1.40,-1.22,7.72,7.72,7.72
24.65,9.12,1.40,9.12,1.40,-1.41,-1.42,-1.25,7.71,7.71,7.72
24.89,9.13,1.42,9.13,1.42,-1.42,-1.43,-1.29,7.71,7.71,7.72
25.14,9.14,1.44,9.15,1.43,-1.43,-1.45,-1.32,7.71,7.71,7.71
25.39,9.16,1.46,9.16,1.45,-1.45,-1.46,-1.35,7.72,7.71,7.71
25.65,9.16,1.46,9.17,1.46,-1.46,-1.48,-1.39,7.70,7.70,7.71
25.91,9.18,1.48,9.18,1.48,-1.48,-1.49,-1.42,7.70,7.70,7.70
26.16,9.20,1.49,9.20,1.49,-1.50,-1.51,-1.45,7.70,7.70,7.71
26.43,9.23,1.52,9.23,1.52,-1.53,-1.52,-1.49,7.71,7.71,7.71
26.69,9.26,1.55,9.26,1.55,-1.55,-1.54,-1.52,7.71,7.71,7.71
26.96,9.29,1.58,9.29,1.58,-1.57,-1.56,-1.55,7.72,7.72,7.71
27.23,9.32,1.61,9.32,1.61,-1.60,-1.58,-1.59,7.72,7.72,7.71
27.50,9.34,1.63,9.34,1.63,-1.62,-1.59,-1.62,7.72,7.72,7.71
27.77,9.36,1.65,9.36,1.65,-1.65,-1.61,-1.65,7.71,7.71,7.72
28.05,9.38,1.67,9.39,1.67,-1.67,-1.63,-1.69,7.71,7.71,7.72
28.33,9.41,1.69,9.41,1.69,-1.70,-1.65,-1.72,7.72,7.72,7.73
28.62,9.44,1.72,9.44,1.72,-1.72,-1.67,-1.75,7.73,7.72,7.72
28.90,9.47,1.74,9.47,1.74,-1.74,-1.69,-1.78,7.73,7.73,7.73
29.19,9.49,1.76,9.50,1.77,-1.76,-1.71,-1.81,7.73,7.73,7.73
29.48,9.52,1.79,9.52,1.79,-1.79,-1.73,-1.84,7.73,7.73,7.73
29.78,9.54,1.81,9.54,1.82,-1.82,-1.75,-1.87,7.73,7.73,7.73
30.08,9.56,1.84,9.57,1.84,-1.84,-1.77,-1.90,7.72,7.72,7.73
30.38,9.59,1.88,9.59,1.87,-1.87,-1.79,-1.92,7.72,7.71,7.71
30.68,9.61,1.90,9.62,1.90,-1.91,-1.81,-1.95,7.71,7.71,7.71
30.99,9.64,1.93,9.65,1.93,-1.94,-1.83,-1.97,7.70,7.71,7.71
31.30,9.68,1.97,9.68,1.97,-1.97,-1.86,-1.99,7.71,7.70,7.71
31.61,9.70,2.00,9.71,2.01,-2.00,-1.88,-2.02,7.70,7.70,7.71
31.93,9.73,2.05,9.74,2.04,-2.03,-1.90,-2.04,7.70,7.70,7.69
32.24,9.76,2.07,9.76,2.07,-2.06,-1.93,-2.06,7.71,7.70,7.69
32.57,9.77,2.09,9.77,2.09,-2.08,-1.95,-2.08,7.69,7.70,7.68
32.89,9.78,2.10,9.78,2.10,-2.10,-1.97,-2.09,7.69,7.69,7.68
33.22,9.78,2.11,9.78,2.11,-2.11,-2.00,-2.11,7.67,7.67,7.68
33.55,9.78,2.11,9.79,2.12,-2.12,-2.03,-2.13,7.66,7.67,7.67
33.89,9.79,2.13,9.79,2.13,-2.13,-2.05,-2.14,7.66,7.66,7.66
34.23,9.79,2.14,9.79,2.14,-2.14,-2.08,-2.16,7.65,7.65,7.65
34.57,9.80,2.16,9.80,2.16,-2.16,-2.11,-2.17,7.64,7.64,7.65
34.92,9.81,2.18,9.82,2.18,-2.18,-2.13,-2.19,7.63,7.63,7.63
35.27,9.84,2.19,9.84,2.20,-2.21,-2.16,-2.20,7.63,7.63,7.65
35.62,9.87,2.25,9.87,2.24,-2.25,-2.19,-2.22,7.63,7.63,7.63
35.97,9.90,2.28,9.90,2.28,-2.28,-2.22,-2.23,7.62,7.62,7.62
36.33,9.93,2.32,9.93,2.33,-2.33,-2.25,-2.25,7.61,7.61,7.61
36.70,9.96,2.38,9.96,2.37,-2.37,-2.28,-2.27,7.59,7.59,7.59
37.06,9.99,2.42,9.99,2.42,-2.42,-2.31,-2.28,7.58,7.58,7.57
37.43,10.02,2.46,10.02,2.47,-2.46,-2.34,-2.30,7.56,7.56,7.56
37.81,10.05,2.51,10.05,2.51,-2.51,-2.37,-2.32,7.54,7.54,7.54
38.19,10.07,2.55,10.08,2.55,-2.55,-2.41,-2.34,7.52,7.52,7.52
38.57,10.10,2.60,10.10,2.59,-2.59,-2.44,-2.36,7.51,7.51,7.51
38.95,10.11,2.62,10.12,2.63,-2.62,-2.47,-2.39,7.49,7.49,7.49
39.34,10.13,2.67,10.13,2.66,-2.65,-2.51,-2.41,7.48,7.48,7.47
39.74,10.13,2.69,10.13,2.69,-2.68,-2.54,-2.44,7.45,7.45,7.44
40.14,10.13,2.71,10.13,2.71,-2.70,-2.58,-2.46,7.43,7.43,7.43
40.54,10.12,2.71,10.13,2.72,-2.72,-2.62,-2.49,7.40,7.41,7.41
40.94,10.12,2.74,10.12,2.73,-2.74,-2.65,-2.52,7.39,7.38,7.39
41.35,10.11,2.74,10.12,2.75,-2.75,-2.69,-2.55,7.36,7.36,7.37
41.76,10.11,2.77,10.11,2.76,-2.76,-2.73,-2.59,7.35,7.35,7.35
42.18,10.11,2.77,10.11,2.78,-2.78,-2.77,-2.63,7.34,7.34,7.34
42.60,10.11,2.80,10.11,2.79,-2.79,-2.81,-2.66,7.32,7.32,7.31
43.03,10.10,2.81,10.10,2.81,-2.80,-2.85,-2.70,7.30,7.30,7.30
43.46,10.09,2.82,10.10,2.82,-2.82,-2.89,-2.75,7.27,7.27,7.27
43.90,10.09,2.84,10.09,2.84,-2.84,-2.93,-2.79,7.25,7.25,7.25
44.33,10.09,2.87,10.09,2.86,-2.87,-2.97,-2.84,7.22,7.22,7.23
44.78,10.10,2.90,10.10,2.89,-2.90,-3.01,-2.89,7.20,7.20,7.21
45.23,10.11,2.92,10.11,2.93,-2.94,-3.05,-2.94,7.18,7.18,7.19
45.68,10.13,2.98,10.13,2.98,-2.98,-3.10,-2.99,7.15,7.15,7.15
46.13,10.15,3.03,10.15,3.03,-3.03,-3.14,-3.05,7.12,7.12,7.12
46.60,10.18,3.09,10.18,3.09,-3.09,-3.19,-3.10,7.09,7.09,7.09
47.06,10.21,3.15,10.21,3.15,-3.15,-3.23,-3.16,7.06,7.06,7.06
47.53,10.24,3.21,10.24,3.21,-3.21,-3.28,-3.22,7.03,7.03,7.04
48.01,10.27,3.29,10.27,3.28,-3.28,-3.32,-3.29,6.99,6.99,6.99
48.49,10.30,3.35,10.30,3.35,-3.35,-3.37,-3.35,6.95,6.95,6.96
48.97,10.33,3.42,10.33,3.42,-3.42,-3.42,-3.42,6.92,6.92,6.91
49.46,10.36,3.48,10.36,3.49,-3.48,-3.46,-3.49,6.88,6.88,6.88
49.96,10.39,3.56,10.39,3.55,-3.55,-3.51,-3.55,6.85,6.84,6.83
50.46,10.41,3.60,10.42,3.61,-3.60,-3.56,-3.62,6.81,6.81,6.81
50.96,10.43,3.65,10.43,3.66,-3.65,-3.61,-3.70,6.78,6.78,6.78
51.47,10.45,3.71,10.45,3.71,-3.70,-3.66,-3.77,6.75,6.75,6.75
51.99,10.45,3.75,10.46,3.75,-3.74,-3.70,-3.84,6.71,6.72,6.70
52.51,10.46,3.78,10.46,3.78,-3.77,-3.75,-3.91,6.69,6.68,6.68
53.03,10.45,3.80,10.45,3.80,-3.81,-3.80,-3.99,6.65,6.65,6.66
53.56,10.44,3.82,10.45,3.83,-3.84,-3.85,-4.06,6.61,6.61,6.62
54.10,10.44,3.87,10.44,3.86,-3.86,-3.90,-4.13,6.58,6.57,6.58
54.64,10.43,3.88,10.44,3.89,-3.89,-3.95,-4.20,6.54,6.54,6.55
55.18,10.43,3.92,10.43,3.92,-3.92,-4.00,-4.27,6.51,6.51,6.51
55.74,10.43,3.96,10.43,3.95,-3.95,-4.05,-4.34,6.49,6.48,6.48
56.29,10.43,3.97,10.43,3.98,-3.98,-4.09,-4.41,6.46,6.46,6.46
56.86,10.43,4.00,10.43,4.01,-4.00,-4.14,-4.47,6.43,6.43,6.43
57.42,10.43,4.04,10.43,4.04,-4.03,-4.19,-4.53,6.40,6.40,6.39
58.00,10.43,4.07,10.43,4.06,-4.06,-4.23,-4.59,6.38,6.38,6.36
58.58,10.43,4.09,10.43,4.09,-4.09,-4.28,-4.64,6.35,6.35,6.35
59.16,10.43,4.11,10.43,4.11,-4.12,-4.33,-4.69,6.32,6.32,6.33
59.76,10.43,4.14,10.43,4.14,-4.15,-4.37,-4.74,6.28,6.28,6.29
60.35,10.43,4.18,10.43,4.18,-4.19,-4.41,-4.78,6.24,6.24,6.25
60.96,10.43,4.22,10.43,4.22,-4.23,-4.46,-4.82,6.20,6.20,6.21
61.57,10.43,4.28,10.43,4.27,-4.27,-4.50,-4.85,6.16,6.16,6.16
62.18,10.43,4.32,10.43,4.32,-4.31,-4.54,-4.88,6.12,6.12,6.11
62.80,10.43,4.36,10.43,4.36,-4.36,-4.58,-4.90,6.08,6.08,6.07
63.43,10.43,4.41,10.43,4.41,-4.40,-4.62,-4.92,6.03,6.03,6.02
64.07,10.43,4.44,10.43,4.44,-4.44,-4.66,-4.94,5.99,5.99,5.99
64.71,10.43,4.48,10.43,4.48,-4.48,-4.69,-4.95,5.95,5.95,5.95
65.35,10.43,4.52,10.43,4.52,-4.52,-4.73,-4.95,5.91,5.91,5.91
66.01,10.43,4.56,10.43,4.55,-4.56,-4.76,-4.95,5.88,5.88,5.88
66.67,10.43,4.59,10.43,4.59,-4.59,-4.79,-4.95,5.84,5.84,5.85
67.33,10.43,4.64,10.43,4.63,-4.63,-4.83,-4.94,5.80,5.80,5.80
68.01,10.43,4.67,10.43,4.67,-4.67,-4.86,-4.93,5.77,5.77,5.77
68.69,10.43,4.71,10.43,4.71,-4.70,-4.88,-4.92,5.73,5.73,5.73
69.37,10.43,4.74,10.43,4.74,-4.74,-4.91,-4.91,5.69,5.69,5.69
70.07,10.43,4.78,10.43,4.78,-4.78,-4.94,-4.89,5.65,5.65,5.65
70.77,10.43,4.83,10.43,4.82,-4.83,-4.97,-4.87,5.61,5.61,5.61
71.48,10.43,4.86,10.43,4.86,-4.87,-4.99,-4.85,5.57,5.57,5.57
72.19,10.43,4.91,10.43,4.91,-4.91,-5.01,-4.83,5.53,5.53,5.53
72.91,10.43,4.95,10.43,4.95,-4.95,-5.04,-4.81,5.49,5.49,5.48
73.64,10.43,4.99,10.43,4.99,-4.99,-5.06,-4.79,5.45,5.45,5.44
74.38,10.43,5.03,10.43,5.03,-5.02,-5.08,-4.78,5.41,5.41,5.41
75.12,10.43,5.06,10.43,5.06,-5.06,-5.10,-4.76,5.38,5.38,5.38
75.87,10.43,5.09,10.43,5.09,-5.09,-5.12,-4.74,5.34,5.34,5.35
76.63,10.43,5.13,10.43,5.12,-5.12,-5.13,-4.72,5.31,5.31,5.31
77.40,10.43,5.15,10.43,5.15,-5.16,-5.15,-4.71,5.28,5.28,5.28
78.17,10.43,5.19,10.44,5.19,-5.19,-5.17,-4.70,5.24,5.25,5.24
78.95,10.44,5.21,10.44,5.22,-5.22,-5.19,-4.69,5.22,5.22,5.23
79.74,10.44,5.25,10.45,5.25,-5.26,-5.20,-4.68,5.19,5.19,5.19
80.54,10.45,5.28,10.46,5.29,-5.29,-5.22,-4.68,5.17,5.17,5.17
81.35,10.46,5.33,10.46,5.32,-5.32,-5.23,-4.67,5.15,5.14,5.13
82.16,10.46,5.35,10.46,5.35,-5.34,-5.25,-4.67,5.12,5.12,5.12
82.98,10.45,5.37,10.45,5.37,-5.37,-5.26,-4.68,5.09,5.09,5.08
83.81,10.43,5.38,10.43,5.38,-5.38,-5.27,-4.69,5.05,5.05,5.05
84.65,10.41,5.40,10.41,5.40,-5.40,-5.29,-4.70,5.01,5.02,5.01
85.50,10.39,5.41,10.39,5.41,-5.41,-5.30,-4.71,4.99,4.99,4.98
86.35,10.37,5.42,10.37,5.42,-5.41,-5.31,-4.73,4.96,4.96,4.95
87.22,10.34,5.42,10.34,5.42,-5.42,-5.33,-4.75,4.93,4.93,4.92
88.09,10.31,5.42,10.31,5.42,-5.42,-5.34,-4.77,4.89,4.89,4.89
88.97,10.27,5.41,10.28,5.42,-5.42,-5.35,-4.80,4.85,4.86,4.86
89.86,10.24,5.42,10.24,5.42,-5.42,-5.37,-4.83,4.82,4.82,4.83
90.76,10.21,5.42,10.21,5.42,-5.42,-5.38,-4.87,4.79,4.79,4.79
91.66,10.18,5.43,10.19,5.43,-5.43,-5.39,-4.91,4.76,4.76,4.75
92.58,10.16,5.44,10.16,5.44,-5.44,-5.41,-4.95,4.73,4.72,4.72
93.51,10.13,5.44,10.13,5.45,-5.45,-5.42,-5.00,4.68,4.68,4.69
94.44,10.11,5.46,10.12,5.46,-5.48,-5.44,-5.05,4.63,4.64,4.65
95.39,10.10,5.50,10.11,5.49,-5.51,-5.45,-5.10,4.59,4.60,4.61
96.34,10.10,5.53,10.10,5.53,-5.54,-5.46,-5.16,4.56,4.56,4.57
97.30,10.11,5.58,10.11,5.58,-5.58,-5.48,-5.22,4.53,4.53,4.54
98.28,10.11,5.62,10.12,5.63,-5.62,-5.49,-5.28,4.49,4.50,4.49
99.26,10.12,5.67,10.12,5.67,-5.65,-5.50,-5.35,4.47,4.47,4.45
100.25,10.12,5.71,10.12,5.70,-5.68,-5.52,-5.41,4.44,4.43,4.41
101.25,10.10,5.72,10.11,5.72,-5.71,-5.53,-5.48,4.39,4.40,4.39
102.27,10.08,5.72,10.09,5.73,-5.73,-5.55,-5.55,4.36,4.36,4.36
103.29,10.06,5.74,10.06,5.74,-5.74,-5.56,-5.63,4.33,4.32,4.32
104.32,10.03,5.74,10.03,5.74,-5.74,-5.58,-5.70,4.29,4.29,4.29
105.37,10.00,5.74,10.00,5.74,-5.74,-5.59,-5.77,4.26,4.26,4.27
106.42,9.97,5.74,9.97,5.74,-5.74,-5.61,-5.85,4.23,4.23,4.24
107.48,9.94,5.74,9.94,5.74,-5.74,-5.62,-5.92,4.20,4.20,4.20
108.56,9.91,5.74,9.91,5.74,-5.74,-5.63,-6.00,4.17,4.17,4.17
109.64,9.88,5.74,9.88,5.74,-5.75,-5.65,-6.07,4.14,4.13,4.14
110.74,9.85,5.75,9.86,5.75,-5.76,-5.66,-6.14,4.10,4.10,4.11
111.85,9.83,5.76,9.84,5.76,-5.77,-5.68,-6.21,4.06,4.07,4.07
112.97,9.82,5.78,9.82,5.78,-5.79,-5.69,-6.28,4.03,4.03,4.04
114.10,9.81,5.81,9.81,5.81,-5.81,-5.71,-6.34,4.00,4.00,4.01
115.24,9.79,5.83,9.80,5.83,-5.83,-5.72,-6.40,3.96,3.97,3.96
116.39,9.78,5.86,9.78,5.86,-5.85,-5.74,-6.45,3.93,3.93,3.92
117.55,9.76,5.87,9.77,5.88,-5.87,-5.75,-6.50,3.89,3.90,3.89
118.73,9.75,5.90,9.75,5.89,-5.89,-5.77,-6.54,3.86,3.86,3.85
119.92,9.73,5.90,9.73,5.90,-5.90,-5.78,-6.58,3.83,3.83,3.83
121.12,9.71,5.91,9.71,5.91,-5.92,-5.79,-6.61,3.80,3.80,3.80
122.33,9.69,5.92,9.70,5.92,-5.92,-5.81,-6.63,3.77,3.77,3.77
123.55,9.67,5.92,9.67,5.93,-5.93,-5.82,-6.65,3.74,3.74,3.75
124.79,9.65,5.94,9.65,5.93,-5.93,-5.83,-6.66,3.72,3.72,3.72
126.03,9.61,5.93,9.62,5.93,-5.93,-5.85,-6.66,3.68,3.69,3.68
127.29,9.58,5.93,9.58,5.93,-5.93,-5.86,-6.65,3.66,3.66,3.65
128.57,9.54,5.93,9.54,5.92,-5.92,-5.87,-6.64,3.62,3.62,3.61
129.85,9.49,5.91,9.50,5.91,-5.91,-5.88,-6.62,3.58,3.58,3.58
131.15,9.45,5.91,9.45,5.90,-5.91,-5.90,-6.60,3.54,3.54,3.54
132.46,9.40,5.89,9.41,5.90,-5.90,-5.91,-6.56,3.50,3.50,3.52
133.79,9.37,5.90,9.37,5.89,-5.90,-5.92,-6.53,3.47,3.47,3.48
135.12,9.34,5.89,9.34,5.89,-5.90,-5.93,-6.48,3.45,3.44,3.45
136.48,9.31,5.89,9.31,5.89,-5.89,-5.94,-6.44,3.42,3.42,3.43
137.84,9.28,5.89,9.28,5.89,-5.89,-5.95,-6.38,3.39,3.40,3.39
139.22,9.25,5.90,9.25,5.89,-5.88,-5.96,-6.33,3.37,3.37,3.36
140.61,9.22,5.89,9.22,5.89,-5.87,-5.96,-6.27,3.35,3.34,3.33
142.02,9.17,5.87,9.17,5.87,-5.86,-5.97,-6.21,3.31,3.31,3.30
143.44,9.12,5.85,9.13,5.85,-5.85,-5.98,-6.14,3.28,3.28,3.28
144.87,9.08,5.83,9.08,5.83,-5.84,-5.99,-6.08,3.25,3.24,3.26
146.32,9.03,5.81,9.04,5.81,-5.82,-5.99,-6.01,3.21,3.22,3.23
147.78,9.00,5.80,9.00,5.80,-5.81,-6.00,-5.95,3.19,3.19,3.21
149.26,8.97,5.79,8.97,5.80,-5.80,-6.00,-5.88,3.17,3.18,3.18
150.75,8.95,5.80,8.95,5.79,-5.79,-6.01,-5.82,3.16,3.16,3.15
152.26,8.92,5.79,8.92,5.79,-5.78,-6.01,-5.76,3.14,3.14,3.14
153.78,8.89,5.78,8.90,5.79,-5.77,-6.01,-5.70,3.12,3.12,3.11
155.32,8.86,5.78,8.86,5.77,-5.77,-6.01,-5.64,3.10,3.09,3.08
156.88,8.82,5.76,8.82,5.76,-5.76,-6.02,-5.58,3.06,3.06,3.06
158.44,8.77,5.75,8.78,5.75,-5.76,-6.02,-5.53,3.02,3.02,3.03
160.03,8.74,5.74,8.74,5.74,-5.75,-6.02,-5.47,2.99,2.99,3.00
161.63,8.71,5.74,8.71,5.74,-5.75,-6.01,-5.42,2.96,2.96,2.97
163.24,8.68,5.74,8.69,5.74,-5.75,-6.01,-5.38,2.93,2.94,2.94
164.88,8.66,5.75,8.66,5.75,-5.75,-6.01,-5.34,2.92,2.91,2.91
166.53,8.63,5.76,8.63,5.75,-5.74,-6.01,-5.30,2.89,2.89,2.87
168.19,8.60,5.75,8.60,5.75,-5.74,-6.00,-5.26,2.86,2.86,2.85
169.87,8.56,5.75,8.56,5.74,-5.73,-5.99,-5.23,2.83,2.83,2.82
171.57,8.51,5.73,8.51,5.73,-5.72,-5.99,-5.20,2.79,2.79,2.78
173.29,8.46,5.71,8.47,5.72,-5.71,-5.98,-5.18,2.75,2.75,2.75
175.02,8.42,5.70,8.42,5.70,-5.71,-5.97,-5.16,2.72,2.71,2.72
176.77,8.37,5.69,8.37,5.69,-5.70,-5.96,-5.14,2.67,2.68,2.68
178.54,8.33,5.68,8.33,5.69,-5.70,-5.95,-5.13,2.64,2.64,2.65
180.32,8.30,5.70,8.30,5.69,-5.70,-5.94,-5.12,2.60,2.60,2.61
182.13,8.27,5.69,8.28,5.70,-5.70,-5.93,-5.12,2.57,2.57,2.59
183.95,8.26,5.71,8.26,5.71,-5.71,-5.91,-5.12,2.55,2.55,2.55
185.79,8.25,5.74,8.25,5.73,-5.72,-5.90,-5.13,2.53,2.53,2.51
187.65,8.23,5.75,8.23,5.75,-5.73,-5.88,-5.13,2.50,2.50,2.48
189.52,8.20,5.75,8.20,5.75,-5.74,-5.87,-5.14,2.46,2.46,2.45
191.42,8.17,5.75,8.17,5.75,-5.76,-5.85,-5.16,2.42,2.42,2.42
193.33,8.14,5.75,8.15,5.76,-5.77,-5.83,-5.18,2.37,2.38,2.39
195.27,8.12,5.77,8.12,5.77,-5.78,-5.81,-5.20,2.34,2.34,2.36
197.22,8.10,5.78,8.11,5.78,-5.78,-5.79,-5.22,2.32,2.32,2.32
199.19,8.09,5.79,8.09,5.80,-5.79,-5.77,-5.24,2.31,2.30,2.30
201.18,8.07,5.81,8.07,5.80,-5.79,-5.74,-5.27,2.29,2.29,2.27
203.19,8.05,5.80,8.05,5.80,-5.78,-5.72,-5.30,2.27,2.27,2.25
205.23,8.01,5.78,8.01,5.78,-5.77,-5.69,-5.34,2.24,2.23,2.24
207.28,7.96,5.75,7.97,5.76,-5.76,-5.67,-5.37,2.20,2.21,2.21
209.35,7.91,5.73,7.92,5.73,-5.74,-5.64,-5.41,2.17,2.18,2.19
211.44,7.88,5.72,7.88,5.71,-5.71,-5.61,-5.44,2.17,2.16,2.16
213.56,7.83,5.68,7.83,5.69,-5.69,-5.58,-5.48,2.15,2.15,2.15
215.69,7.78,5.66,7.78,5.66,-5.66,-5.55,-5.51,2.13,2.13,2.13
217.85,7.73,5.63,7.73,5.63,-5.63,-5.52,-5.55,2.11,2.10,2.10
220.03,7.67,5.59,7.68,5.59,-5.60,-5.49,-5.58,2.08,2.08,2.08
222.23,7.62,5.56,7.62,5.56,-5.57,-5.45,-5.61,2.06,2.06,2.06
224.45,7.57,5.52,7.58,5.53,-5.53,-5.42,-5.64,2.04,2.04,2.05
226.70,7.53,5.50,7.53,5.50,-5.50,-5.38,-5.67,2.03,2.04,2.03
228.96,7.49,5.46,7.49,5.47,-5.46,-5.35,-5.69,2.03,2.03,2.03
231.25,7.44,5.43,7.44,5.43,-5.43,-5.31,-5.71,2.02,2.01,2.01
233.57,7.38,5.38,7.39,5.39,-5.39,-5.27,-5.72,2.00,2.00,2.00
235.90,7.33,5.34,7.33,5.35,-5.35,-5.23,-5.73,1.99,1.99,1.99
238.26,7.28,5.31,7.28,5.30,-5.31,-5.19,-5.74,1.98,1.98,1.97
240.64,7.23,5.25,7.23,5.26,-5.26,-5.14,-5.73,1.97,1.97,1.98
243.05,7.18,5.21,7.18,5.21,-5.21,-5.10,-5.72,1.97,1.97,1.97
245.48,7.13,5.17,7.13,5.16,-5.16,-5.06,-5.71,1.97,1.97,1.97
247.93,7.08,5.12,7.08,5.12,-5.11,-5.01,-5.69,1.97,1.97,1.96
250.41,7.02,5.05,7.03,5.06,-5.06,-4.97,-5.65,1.97,1.97,1.97
252.92,6.97,5.00,6.97,5.00,-5.01,-4.92,-5.62,1.97,1.96,1.97
255.45,6.91,4.95,6.92,4.94,-4.95,-4.87,-5.57,1.96,1.96,1.97
258.00,6.86,4.89,6.86,4.89,-4.90,-4.82,-5.52,1.97,1.97,1.97
260.58,6.81,4.84,6.81,4.84,-4.84,-4.77,-5.46,1.97,1.97,1.97
263.19,6.76,4.79,6.76,4.79,-4.78,-4.72,-5.40,1.98,1.98,1.98
265.82,6.71,4.74,6.71,4.73,-4.73,-4.67,-5.33,1.99,1.98,1.97
268.48,6.65,4.68,6.65,4.67,-4.67,-4.62,-5.25,1.98,1.98,1.98
271.16,6.58,4.60,6.58,4.61,-4.61,-4.56,-5.17,1.97,1.97,1.98
273.87,6.51,4.54,6.52,4.54,-4.55,-4.51,-5.08,1.97,1.97,1.98
276.61,6.45,4.47,6.45,4.48,-4.48,-4.46,-4.99,1.97,1.97,1.98
279.38,6.39,4.43,6.39,4.42,-4.42,-4.40,-4.90,1.98,1.98,1.97
282.17,6.33,4.36,6.33,4.36,-4.35,-4.34,-4.80,1.98,1.98,1.97
284.99,6.27,4.29,6.27,4.29,-4.28,-4.29,-4.70,1.99,1.98,1.99
287.84,6.20,4.21,6.20,4.21,-4.22,-4.23,-4.59,1.99,1.99,1.99
290.72,6.13,4.15,6.14,4.14,-4.15,-4.17,-4.48,1.99,1.99,1.99
293.63,6.07,4.07,6.08,4.08,-4.08,-4.11,-4.38,2.00,2.00,2.00
296.57,6.02,4.01,6.02,4.01,-4.01,-4.05,-4.27,2.02,2.01,2.01
299.53,5.96,3.95,5.96,3.94,-3.93,-3.99,-4.16,2.03,2.02,2.02
302.53,5.88,3.85,5.89,3.86,-3.86,-3.93,-4.05,2.02,2.03,2.03
305.55,5.82,3.79,5.82,3.79,-3.79,-3.87,-3.94,2.03,2.03,2.03
308.61,5.76,3.72,5.76,3.72,-3.72,-3.80,-3.82,2.04,2.04,2.05
311.69,5.70,3.65,5.70,3.65,-3.65,-3.74,-3.71,2.05,2.05,2.05
314.81,5.64,3.58,5.64,3.58,-3.58,-3.68,-3.61,2.06,2.06,2.06
317.96,5.58,3.52,5.58,3.51,-3.51,-3.61,-3.50,2.07,2.07,2.07
321.14,5.51,3.43,5.52,3.44,-3.44,-3.55,-3.39,2.08,2.08,2.08
324.35,5.45,3.37,5.45,3.36,-3.37,-3.48,-3.28,2.09,2.09,2.08
327.59,5.39,3.28,5.39,3.29,-3.29,-3.41,-3.18,2.10,2.10,2.11
330.87,5.33,3.23,5.33,3.23,-3.22,-3.35,-3.08,2.11,2.11,2.11
334.18,5.27,3.16,5.27,3.15,-3.15,-3.28,-2.98,2.12,2.12,2.11
337.52,5.20,3.08,5.20,3.08,-3.08,-3.21,-2.88,2.12,2.12,2.12
340.90,5.13,2.99,5.14,3.01,-3.01,-3.14,-2.78,2.12,2.13,2.14
344.30,5.08,2.94,5.08,2.94,-2.94,-3.08,-2.68,2.14,2.14,2.15
347.75,5.03,2.88,5.03,2.87,-2.87,-3.01,-2.59,2.16,2.16,2.15
351.23,4.96,2.81,4.97,2.80,-2.80,-2.94,-2.50,2.16,2.17,2.15
354.74,4.90,2.72,4.90,2.73,-2.73,-2.87,-2.41,2.17,2.17,2.18
358.28,4.83,2.65,4.84,2.66,-2.66,-2.80,-2.32,2.17,2.18,2.18
361.87,4.77,2.59,4.78,2.59,-2.59,-2.73,-2.23,2.18,2.19,2.19
365.49,4.72,2.53,4.72,2.52,-2.52,-2.66,-2.15,2.20,2.20,2.20
369.14,4.66,2.45,4.66,2.45,-2.45,-2.58,-2.06,2.21,2.21,2.21
372.83,4.60,2.38,4.60,2.39,-2.39,-2.51,-1.98,2.22,2.22,2.22
376.56,4.54,2.32,4.54,2.32,-2.32,-2.44,-1.90,2.22,2.23,2.22
380.33,4.48,2.25,4.49,2.25,-2.25,-2.37,-1.83,2.23,2.23,2.23
384.13,4.43,2.19,4.43,2.19,-2.19,-2.30,-1.75,2.25,2.24,2.25
387.97,4.37,2.12,4.38,2.12,-2.12,-2.22,-1.67,2.25,2.26,2.26
391.85,4.32,2.06,4.32,2.06,-2.05,-2.15,-1.60,2.27,2.27,2.27
395.77,4.26,1.99,4.27,1.99,-1.99,-2.08,-1.53,2.28,2.28,2.27
399.73,4.21,1.93,4.21,1.92,-1.92,-2.01,-1.46,2.29,2.29,2.28
403.72,4.15,1.84,4.16,1.85,-1.86,-1.93,-1.39,2.30,2.30,2.31
407.76,4.10,1.79,4.10,1.79,-1.79,-1.86,-1.32,2.31,2.31,2.31
411.84,4.05,1.73,4.05,1.73,-1.73,-1.78,-1.26,2.32,2.32,2.32
415.96,4.00,1.66,4.00,1.67,-1.67,-1.71,-1.19,2.34,2.33,2.34
420.12,3.94,1.61,3.95,1.61,-1.61,-1.64,-1.13,2.34,2.34,2.34
424.32,3.89,1.55,3.89,1.54,-1.54,-1.56,-1.07,2.35,2.35,2.35
428.56,3.84,1.48,3.84,1.48,-1.48,-1.49,-1.01,2.36,2.36,2.37
432.85,3.79,1.42,3.79,1.42,-1.42,-1.42,-0.95,2.38,2.37,2.38
437.18,3.73,1.36,3.73,1.36,-1.35,-1.34,-0.89,2.38,2.38,2.37
441.55,3.67,1.29,3.67,1.29,-1.29,-1.27,-0.83,2.39,2.39,2.38
445.96,3.61,1.22,3.61,1.22,-1.22,-1.19,-0.77,2.39,2.39,2.39
450.42,3.54,1.14,3.55,1.15,-1.15,-1.12,-0.72,2.39,2.40,2.40
454.93,3.49,1.08,3.49,1.08,-1.08,-1.04,-0.66,2.41,2.41,2.41
459.48,3.44,1.02,3.44,1.01,-1.01,-0.97,-0.61,2.43,2.43,2.42
464.07,3.38,0.94,3.38,0.94,-0.94,-0.90,-0.56,2.44,2.44,2.44
468.71,3.31,0.86,3.32,0.87,-0.87,-0.82,-0.50,2.44,2.45,2.45
473.40,3.25,0.79,3.25,0.79,-0.80,-0.75,-0.45,2.45,2.45,2.46
478.13,3.18,0.71,3.19,0.72,-0.73,-0.68,-0.40,2.45,2.46,2.47
482.91,3.13,0.66,3.13,0.66,-0.66,-0.60,-0.35,2.48,2.48,2.48
487.74,3.08,0.60,3.08,0.59,-0.59,-0.53,-0.31,2.50,2.49,2.49
492.62,3.02,0.53,3.02,0.52,-0.51,-0.46,-0.26,2.51,2.51,2.50
497.55,2.95,0.45,2.96,0.45,-0.44,-0.38,-0.21,2.51,2.51,2.51
502.52,2.89,0.38,2.89,0.37,-0.37,-0.31,-0.16,2.52,2.52,2.52
507.55,2.83,0.30,2.83,0.30,-0.30,-0.24,-0.12,2.53,2.53,2.54
512.62,2.77,0.23,2.78,0.23,-0.23,-0.17,-0.07,2.54,2.54,2.54
517.75,2.72,0.16,2.72,0.16,-0.16,-0.09,-0.03,2.56,2.55,2.56
522.93,2.66,0.09,2.67,0.09,-0.10,-0.02,0.02,2.57,2.57,2.57
528.16,2.61,0.03,2.61,0.03,-0.03,0.05,0.06,2.58,2.59,2.58
